Time,EMG1,EMG2,EMG3,EMG4,EMG5,EMG6,EMG7,EMG8
13:50:20:731339,5,-2,-4,0,10,13,-8,-1
13:50:20:739530,5,-2,-4,0,10,13,-8,-1
13:50:20:740294,-4,-1,3,-6,-5,1,2,-1
13:50:20:754540,-6,-2,0,8,1,-9,-8,1
13:50:20:755270,-6,-2,0,8,1,-9,-8,1
13:50:20:761294,4,1,-1,0,4,-2,-3,-1
13:50:20:768878,3,1,-2,-11,-9,-10,-4,-3
13:50:20:776985,3,1,-2,-11,-9,-10,-4,-3
13:50:20:777788,-5,-1,-3,1,-5,1,2,1
13:50:20:791350,-3,-3,-1,3,3,1,0,-4
13:50:20:799565,-3,-3,-1,3,3,1,0,-4
13:50:20:800267,-5,-2,-4,-8,-10,-12,-5,1
13:50:20:806368,-2,-2,1,1,-8,-3,3,0
13:50:20:813855,-2,-2,1,1,-8,-3,3,0
13:50:20:821401,-3,3,-2,0,0,-4,-4,-1
13:50:20:828821,-3,1,-2,4,11,13,6,-1
13:50:20:837059,-3,1,-2,4,11,13,6,-1
13:50:20:837850,-4,-3,1,-2,-2,0,-2,-1
13:50:20:851449,-1,-1,-4,-5,-1,1,2,-2
13:50:20:859523,-1,-1,-4,-5,-1,1,2,-2
13:50:20:860297,-2,1,3,-2,-1,-4,-2,-1
13:50:20:866347,-4,0,-2,-3,-6,-3,0,0
13:50:20:873888,-4,0,-2,-3,-6,-3,0,0
13:50:20:881299,0,1,-3,-4,-1,0,-1,-2
13:50:20:888876,1,-4,-5,3,1,11,-1,-3
13:50:20:897021,1,-4,-5,3,1,11,-1,-3
13:50:20:897846,0,-3,-1,4,-2,0,-3,0
13:50:20:911288,-3,-1,-11,-19,1,-4,0,0
13:50:20:919533,-3,-1,-11,-19,1,-4,0,0
13:50:20:920284,-1,0,2,8,1,3,0,1
13:50:20:926290,-2,-5,9,24,4,-2,0,0
13:50:20:933924,-2,-5,9,24,4,-2,0,0
13:50:20:941327,-3,-1,-2,-5,3,1,-1,-4
13:50:20:948775,0,3,2,-7,0,-2,0,0
13:50:20:957020,0,3,2,-7,0,-2,0,0
13:50:20:957817,0,-1,-1,-1,-6,-9,-3,-3
13:50:20:971357,0,1,2,5,7,11,0,1
13:50:20:987050,0,1,2,5,7,11,0,1
13:50:20:987770,2,-1,-4,-11,0,-5,-5,-1
13:50:20:994474,1,1,4,4,-2,0,-2,-2
13:50:20:995293,1,1,4,4,-2,0,-2,-2
13:50:21:1307,-1,0,2,20,6,6,4,0
13:50:21:8822,-1,-2,1,0,-1,-9,1,0
13:50:21:16385,-1,-2,1,0,-1,-9,1,0
13:50:21:23788,-2,-5,-4,-4,-1,1,-3,0
13:50:21:31298,-1,-1,-9,-14,-9,-11,-1,-2
13:50:21:39600,-1,-1,-9,-14,-9,-11,-1,-2
13:50:21:40346,-1,0,-2,16,17,4,0,1
13:50:21:54610,-3,1,0,-5,-3,-7,0,0
13:50:21:55344,-3,1,0,-5,-3,-7,0,0
13:50:21:61287,0,-1,-3,-16,-16,-10,-1,-5
13:50:21:68890,2,-1,2,0,4,-5,0,3
13:50:21:76388,2,-1,2,0,4,-5,0,3
13:50:21:83848,0,0,-2,-19,-3,1,-1,0
13:50:21:91292,-3,-7,-5,7,-1,-4,-3,-5
13:50:21:99532,-3,-7,-5,7,-1,-4,-3,-5
13:50:21:100283,-2,0,-7,0,-5,-2,1,0
13:50:21:114503,0,1,3,10,13,1,-8,-1
13:50:21:115295,0,1,3,10,13,1,-8,-1
13:50:21:121408,-3,1,4,1,0,2,-2,-4
13:50:21:128831,-3,-2,1,-16,-19,-6,7,-2
13:50:21:136402,-3,-2,1,-16,-19,-6,7,-2
13:50:21:143805,2,1,3,1,6,4,1,0
13:50:21:151419,0,-3,1,4,-2,-5,-8,-1
13:50:21:159498,0,-3,1,4,-2,-5,-8,-1
13:50:21:160267,-3,-2,-1,12,-8,-2,0,-3
13:50:21:174499,1,0,-4,-16,-5,2,6,2
13:50:21:175300,1,0,-4,-16,-5,2,6,2
13:50:21:181331,2,2,0,-6,5,3,1,0
13:50:21:188920,-1,-1,-6,-3,-4,-1,1,-2
13:50:21:196395,-1,-1,-6,-3,-4,-1,1,-2
13:50:21:203852,-3,-3,1,-10,-8,-4,-3,-1
13:50:21:211316,1,-3,-5,-9,3,8,-1,1
13:50:21:219503,1,-3,-5,-9,3,8,-1,1
13:50:21:220295,-1,0,1,4,1,-1,-5,-2
13:50:21:234516,-1,3,6,7,4,5,-1,0
13:50:21:235337,-1,3,6,7,4,5,-1,0
13:50:21:241273,-1,-2,0,1,-7,10,-1,1
13:50:21:248781,-2,-2,-1,-2,-8,-2,-1,-3
13:50:21:256424,-2,-2,-1,-2,-8,-2,-1,-3
13:50:21:263823,-1,-1,-3,3,2,-9,2,-2
13:50:21:271372,-7,-6,-3,-3,-7,-11,-7,-4
13:50:21:279536,-7,-6,-3,-3,-7,-11,-7,-4
13:50:21:280282,-1,-1,0,18,7,5,-2,-1
13:50:21:294508,-2,-4,-4,44,17,4,5,-2
13:50:21:295339,-2,-4,-4,44,17,4,5,-2
13:50:21:301351,-1,-4,-3,-19,-8,-9,-3,-1
13:50:21:308833,0,1,1,-11,-8,-10,-2,-3
13:50:21:316394,0,1,1,-11,-8,-10,-2,-3
13:50:21:323848,1,3,4,-4,-2,-1,1,0
13:50:21:331322,0,2,-1,-7,-7,-4,-2,3
13:50:21:339625,0,2,-1,-7,-7,-4,-2,3
13:50:21:340349,-4,-2,-3,-10,0,-1,-1,-3
13:50:21:354814,0,-3,-8,-11,2,-2,-4,-3
13:50:21:355356,0,-3,-8,-11,2,-2,-4,-3
13:50:21:361318,3,-2,0,7,3,0,1,-2
13:50:21:368846,3,5,3,-10,-9,-5,-1,-3
13:50:21:376381,3,5,3,-10,-9,-5,-1,-3
13:50:21:383896,-2,-1,-1,-6,5,0,1,-3
13:50:21:391334,0,3,-1,7,-1,6,0,4
13:50:21:399491,0,3,-1,7,-1,6,0,4
13:50:21:400314,0,-1,-7,-4,-4,-6,4,1
13:50:21:414550,0,4,10,7,13,13,3,1
13:50:21:415335,0,4,10,7,13,13,3,1
13:50:21:421396,-5,-4,-1,2,4,4,6,1
13:50:21:428859,-3,-6,-1,-9,-2,-8,-1,-1
13:50:21:436377,-3,-6,-1,-9,-2,-8,-1,-1
13:50:21:443843,-1,-2,2,-1,-7,-4,-4,1
13:50:21:460163,2,-1,-4,1,-1,-1,2,-3
13:50:21:461020,2,-1,-4,1,-1,-1,2,-3
13:50:21:461735,0,2,2,2,-7,11,0,3
13:50:21:474535,1,1,0,8,5,10,5,1
13:50:21:475345,1,1,0,8,5,10,5,1
13:50:21:481322,-3,-5,-8,-5,3,-3,-3,-3
13:50:21:488851,-1,0,3,9,4,0,0,-2
13:50:21:496387,-1,0,3,9,4,0,0,-2
13:50:21:503868,-2,-2,-1,2,-3,-2,-3,-2
13:50:21:511394,-1,-1,-2,-10,-11,-13,-2,3
13:50:21:519609,-1,-1,-2,-10,-11,-13,-2,3
13:50:21:520296,1,1,-5,15,11,-2,2,-1
13:50:21:534562,5,-1,-1,-5,-7,-4,0,-2
13:50:21:535280,5,-1,-1,-5,-7,-4,0,-2
13:50:21:541360,-3,0,0,-5,1,-4,-7,-2
13:50:21:548811,-2,-2,-1,-5,-6,4,-1,1
13:50:21:556405,-2,-2,-1,-5,-6,4,-1,1
13:50:21:563840,0,0,1,-9,-8,-8,-4,-2
13:50:21:571413,-1,-5,-2,-5,11,3,0,-3
13:50:21:579497,-1,-5,-2,-5,11,3,0,-3
13:50:21:580287,-2,-2,-3,0,-1,-1,-3,-1
13:50:21:594489,-4,-1,-8,-17,-8,-4,-3,-2
13:50:21:595276,-4,-1,-8,-17,-8,-4,-3,-2
13:50:21:601329,0,-2,-1,4,1,1,1,0
13:50:21:608857,-5,-2,-2,-17,-5,-7,-1,-2
13:50:21:616368,-5,-2,-2,-17,-5,-7,-1,-2
13:50:21:623842,1,1,-7,-10,0,2,3,0
13:50:21:631273,0,-5,-3,33,33,14,4,-2
13:50:21:639616,0,-5,-3,33,33,14,4,-2
13:50:21:640313,1,-1,2,-13,-9,-9,-3,-1
13:50:21:654573,-6,-2,0,8,-1,-2,0,-1
13:50:21:655319,-6,-2,0,8,-1,-2,0,-1
13:50:21:661303,-4,-1,-2,3,-1,-6,-1,-4
13:50:21:668815,0,1,8,5,-3,0,-3,1
13:50:21:676396,0,1,8,5,-3,0,-3,1
13:50:21:683825,0,0,4,23,-5,-4,2,-1
13:50:21:691336,0,-1,-5,1,0,0,2,-1
13:50:21:699555,0,-1,-5,1,0,0,2,-1
13:50:21:700313,-4,2,2,2,-2,0,-3,-1
13:50:21:714547,-2,-4,-2,-3,-5,-4,-2,-3
13:50:21:715289,-2,-4,-2,-3,-5,-4,-2,-3
13:50:21:721361,2,-4,-1,-9,0,-7,-2,-1
13:50:21:728831,-2,-7,1,5,-2,-5,-7,-5
13:50:21:736420,-2,-7,1,5,-2,-5,-7,-5
13:50:21:743801,-4,-9,-2,6,1,17,1,-1
13:50:21:751407,1,9,-1,-16,-9,-10,-1,2
13:50:21:759574,1,9,-1,-16,-9,-10,-1,2
13:50:21:760315,-8,-9,-7,-2,-7,-3,-4,-4
13:50:21:774566,1,-2,1,-3,-4,5,-2,0
13:50:21:775382,1,-2,1,-3,-4,5,-2,0
13:50:21:781303,1,1,0,-12,-3,1,11,2
13:50:21:788917,-2,-2,-4,2,1,-6,0,-4
13:50:21:796372,-2,-2,-4,2,1,-6,0,-4
13:50:21:803879,0,0,1,2,5,7,4,0
13:50:21:811327,2,4,-1,-24,-9,-3,-6,1
13:50:21:819516,2,4,-1,-24,-9,-3,-6,1
13:50:21:820354,0,0,1,12,3,-12,-4,-1
13:50:21:834611,-1,0,-3,-4,1,0,0,-1
13:50:21:835295,-1,0,-3,-4,1,0,0,-1
13:50:21:841352,-1,0,5,-12,-2,-4,-3,-1
13:50:21:848816,-2,-1,4,6,18,10,1,-1
13:50:21:856479,-2,-1,4,6,18,10,1,-1
13:50:21:863831,2,3,-2,-3,-7,-3,-3,0
13:50:21:871448,-2,0,2,-4,-13,-8,-2,-3
13:50:21:879489,-2,0,2,-4,-13,-8,-2,-3
13:50:21:880301,1,3,-3,-1,12,11,0,1
13:50:21:894516,-2,-2,-5,2,-3,3,1,1
13:50:21:895343,-2,-2,-5,2,-3,3,1,1
13:50:21:901369,2,3,-3,-8,-9,-15,-5,-2
13:50:21:917100,1,1,0,-2,6,10,13,5
13:50:21:917815,1,1,0,-2,6,10,13,5
13:50:21:923834,-5,-6,-3,3,5,11,3,5
13:50:21:931368,1,1,-3,3,-7,-9,-7,-3
13:50:21:938976,1,1,-3,3,-7,-9,-7,-3
13:50:21:946274,1,-2,2,-1,2,4,6,-3
13:50:21:954580,1,-6,-7,-4,-3,6,-6,3
13:50:21:955381,1,-6,-7,-4,-3,6,-6,3
13:50:21:961302,-2,-2,-1,-11,-6,-13,-10,-4
13:50:21:976976,-1,4,1,4,-1,-1,-1,-2
13:50:21:977782,-1,4,1,4,-1,-1,-1,-2
13:50:21:983785,-2,5,2,3,2,-3,-4,1
13:50:21:991301,-3,-5,-5,-13,-4,-13,-1,-3
13:50:21:998902,-3,-5,-5,-13,-4,-13,-1,-3
13:50:22:6417,-3,-4,-5,-13,-5,-7,-2,11
13:50:22:14521,0,-1,2,0,-7,-16,3,18
13:50:22:15316,0,-1,2,0,-7,-16,3,18
13:50:22:28794,0,2,5,0,6,3,3,8
13:50:22:37054,-4,-3,3,-4,-5,-4,2,-7
13:50:22:37837,-4,-3,3,-4,-5,-4,2,-7
13:50:22:43803,2,-1,0,6,-1,-5,-8,-15
13:50:22:51324,-7,-8,-7,0,-4,-6,-1,-15
13:50:22:58911,-7,-8,-7,0,-4,-6,-1,-15
13:50:22:66327,-4,-1,-9,-2,-8,2,4,-15
13:50:22:74471,1,2,-1,-1,5,3,-5,-10
13:50:22:75268,1,2,-1,-1,5,3,-5,-10
13:50:22:81330,1,-4,-2,-24,-14,-12,-8,-7
13:50:22:96989,-7,-6,6,41,13,7,5,-5
13:50:22:97802,-7,-6,6,41,13,7,5,-5
13:50:22:103841,-2,-1,-2,6,-2,3,3,3
13:50:22:111298,2,4,1,-11,-10,-3,-4,0
13:50:22:118934,2,4,1,-11,-10,-3,-4,0
13:50:22:126342,0,0,6,-1,-3,-5,-6,3
13:50:22:134532,-2,-7,-2,-3,-2,-3,-4,2
13:50:22:135279,-2,-7,-2,-3,-2,-3,-4,2
13:50:22:141364,-1,-8,-9,-1,4,4,2,2
13:50:22:157129,-5,-10,-8,-8,-2,-5,-8,-4
13:50:22:157791,-5,-10,-8,-8,-2,-5,-8,-4
13:50:22:163818,2,3,2,2,4,3,-2,0
13:50:22:171399,0,3,-7,-13,-9,-6,-4,-5
13:50:22:178820,0,3,-7,-13,-9,-6,-4,-5
13:50:22:186391,-2,-1,-4,44,30,12,6,0
13:50:22:194499,1,0,-4,-17,-6,0,2,-2
13:50:22:195337,1,0,-4,-17,-6,0,2,-2
13:50:22:201361,0,-2,4,-7,-13,0,-4,-3
13:50:22:217006,3,5,-2,-2,0,-6,-3,3
13:50:22:217798,3,5,-2,-2,0,-6,-3,3
13:50:22:223813,0,0,3,-3,1,-4,2,-1
13:50:22:231349,-1,0,1,-2,-4,2,2,2
13:50:22:238969,-1,0,1,-2,-4,2,2,2
13:50:22:246322,-2,0,1,-1,-3,2,-1,-2
13:50:22:254655,-2,1,4,8,6,5,-3,2
13:50:22:255367,-2,1,4,8,6,5,-3,2
13:50:22:261279,-2,-5,2,-4,-6,-2,-1,0
13:50:22:277023,1,1,-10,-11,-2,0,0,2
13:50:22:277767,1,1,-10,-11,-2,0,0,2
13:50:22:283775,-1,-2,-11,3,-2,-6,-1,-1
13:50:22:299464,-3,-5,1,28,14,4,1,2
13:50:22:300269,-3,-5,1,28,14,4,1,2
13:50:22:306404,4,3,5,-6,1,9,-2,4
13:50:22:314479,5,2,-1,-9,-11,-11,-2,0
13:50:22:315291,5,2,-1,-9,-11,-11,-2,0
13:50:22:321347,0,3,5,7,5,4,-3,-1
13:50:22:337087,-2,1,2,-5,-4,5,2,-2
13:50:22:337840,-2,1,2,-5,-4,5,2,-2
13:50:22:343778,-3,-3,-2,-7,4,9,7,-4
13:50:22:352103,2,-1,4,4,6,-5,-2,-2
13:50:22:352844,2,-1,4,4,6,-5,-2,-2
13:50:22:366419,0,0,-12,-11,-10,-11,-2,-1
13:50:22:374582,0,1,0,-3,0,2,0,-1
13:50:22:375314,0,1,0,-3,0,2,0,-1
13:50:22:381304,1,-5,1,-10,-11,-4,-2,0
13:50:22:397023,-4,-2,-9,1,7,-11,-3,-6
13:50:22:397797,-4,-2,-9,1,7,-11,-3,-6
13:50:22:403864,-2,5,0,-6,-2,-6,5,0
13:50:22:419513,-2,5,0,-6,-2,-6,5,0
13:50:22:420285,2,5,7,2,-13,-9,-4,-1
13:50:22:426315,0,-19,0,-7,-10,-6,-1,-3
13:50:22:434583,0,-19,0,-7,-10,-6,-1,-3
13:50:22:435306,0,-1,-1,-2,1,10,4,1
13:50:22:441382,-2,7,1,-2,-5,0,-3,0
13:50:22:457078,-2,7,1,-2,-5,0,-3,0
13:50:22:457807,-2,-9,-6,-9,-10,-19,-7,3
13:50:22:463844,-3,-4,1,0,10,1,0,0
13:50:22:479557,-3,-4,1,0,10,1,0,0
13:50:22:480340,-2,3,6,1,2,8,-10,-3
13:50:22:486346,-7,-4,-6,-3,-6,-18,-13,-11
13:50:22:494507,-7,-4,-6,-3,-6,-18,-13,-11
13:50:22:495310,1,-2,17,4,8,0,-4,0
13:50:22:501383,-1,2,6,-1,-14,-14,-5,-2
13:50:22:517118,-1,2,6,-1,-14,-14,-5,-2
13:50:22:517799,-1,-7,-3,0,13,18,4,-3
13:50:22:523809,2,3,-4,1,0,-1,-7,0
13:50:22:539651,2,3,-4,1,0,-1,-7,0
13:50:22:540341,-5,-12,-7,-10,-13,-14,-2,-1
13:50:22:546299,2,8,3,-8,1,5,3,4
13:50:22:554568,2,8,3,-8,1,5,3,4
13:50:22:555296,1,-2,-12,-6,-2,3,1,-1
13:50:22:568869,-1,-4,0,0,5,-3,1,1
13:50:22:577010,-1,-4,0,0,5,-3,1,1
13:50:22:577862,-4,3,-12,-1,-1,4,2,-3
13:50:22:583894,-1,-10,-19,-5,-5,-6,3,0
13:50:22:599544,-1,-10,-19,-5,-5,-6,3,0
13:50:22:600298,-5,-25,-4,0,0,-2,0,-2
13:50:22:606399,1,12,11,1,2,0,1,0
13:50:22:614578,1,12,11,1,2,0,1,0
13:50:22:615311,3,8,8,-2,2,-1,-2,0
13:50:22:621372,-5,-11,-19,-5,-2,-1,-4,-4
13:50:22:637026,-5,-11,-19,-5,-2,-1,-4,-4
13:50:22:637843,2,13,4,1,-3,-2,9,1
13:50:22:643779,3,4,-1,3,-11,3,4,2
13:50:22:659546,3,4,-1,3,-11,3,4,2
13:50:22:660313,-2,3,-4,0,5,0,-3,-4
13:50:22:666287,-2,0,-1,4,6,-1,0,0
13:50:22:674581,-2,0,-1,4,6,-1,0,0
13:50:22:675361,-1,3,2,1,0,-1,3,1
13:50:22:681340,1,12,9,4,-1,-6,-5,0
13:50:22:705249,1,12,9,4,-1,-6,-5,0
13:50:22:706078,2,4,-13,-1,-1,1,4,2
13:50:22:706737,2,6,0,1,2,-5,-2,-1
13:50:22:719543,2,6,0,1,2,-5,-2,-1
13:50:22:720286,1,-4,1,3,-2,-2,-4,2
13:50:22:726331,1,1,16,6,4,-2,-11,-3
13:50:22:734554,1,1,16,6,4,-2,-11,-3
13:50:22:735290,3,2,7,4,7,19,12,3
13:50:22:741452,-4,-18,-13,-6,-3,1,3,0
13:50:22:757130,-4,-18,-13,-6,-3,1,3,0
13:50:22:757789,-2,5,3,-7,3,-10,0,-2
13:50:22:763850,2,2,3,-5,11,8,6,3
13:50:22:779944,2,2,3,-5,11,8,6,3
13:50:22:780788,-4,-6,-7,2,0,-11,-3,-3
13:50:22:786314,-1,5,4,-1,-1,2,-1,-1
13:50:22:794479,-1,5,4,-1,-1,2,-1,-1
13:50:22:795260,-7,-33,-12,-4,-5,-5,-2,-4
13:50:22:801342,-4,-5,-5,5,-1,0,-6,-6
13:50:22:817025,-4,-5,-5,5,-1,0,-6,-6
13:50:22:817837,3,9,-1,-3,-3,1,-4,-3
13:50:22:823856,-3,-17,-5,-1,-3,0,-3,0
13:50:22:839600,-3,-17,-5,-1,-3,0,-3,0
13:50:22:840328,-2,-2,-6,3,1,-3,-6,-1
13:50:22:846306,-5,-6,-12,-3,-7,-7,2,-2
13:50:22:854624,-5,-6,-12,-3,-7,-7,2,-2
13:50:22:855300,2,9,7,-4,1,7,-3,1
13:50:22:868846,3,8,16,-2,9,12,9,2
13:50:22:877011,3,8,16,-2,9,12,9,2
13:50:22:877814,-9,-12,-18,-15,-19,-10,3,-4
13:50:22:883897,0,-15,-14,-4,-12,-3,1,-1
13:50:22:899526,0,-15,-14,-4,-12,-3,1,-1
13:50:22:900292,3,17,13,0,2,-6,-9,-7
13:50:22:906339,-4,-7,2,3,-5,-11,-7,-3
13:50:22:914594,-4,-7,2,3,-5,-11,-7,-3
13:50:22:915302,0,1,-4,1,3,-3,0,-1
13:50:22:928817,0,-1,-1,-2,1,1,-3,-1
13:50:22:937037,0,-1,-1,-2,1,1,-3,-1
13:50:22:937820,1,7,8,11,1,3,4,1
13:50:22:943744,-2,5,5,-2,-1,0,2,-1
13:50:22:951381,-2,5,5,-2,-1,0,2,-1
13:50:22:958829,-2,5,-4,-17,-3,2,0,2
13:50:22:966293,-3,2,-7,-9,-14,-11,-4,-4
13:50:22:982017,-3,2,-7,-9,-14,-11,-4,-4
13:50:22:982791,3,0,5,17,16,11,4,3
13:50:22:988847,-3,0,-4,3,5,2,0,0
13:50:22:997054,-3,0,-4,3,5,2,0,0
13:50:22:997805,-2,3,2,-5,-1,3,2,-3
13:50:23:3903,-2,11,12,6,3,5,-7,3
13:50:23:11321,-2,11,12,6,3,5,-7,3
13:50:23:18832,-6,-7,-8,4,-8,-5,-2,-1
13:50:23:26348,2,4,5,1,-1,-6,0,-5
13:50:23:34518,2,4,5,1,-1,-6,0,-5
13:50:23:35276,2,3,8,5,3,0,-4,0
13:50:23:57751,-1,-6,-7,-6,7,6,2,0
13:50:23:58508,-1,-6,-7,-6,7,6,2,0
13:50:23:59385,0,-3,7,0,-1,0,0,-1
13:50:23:63811,0,-1,-3,6,2,-9,4,-1
13:50:23:71428,0,-1,-3,6,2,-9,4,-1
13:50:23:78880,-1,-7,2,5,-1,-3,0,-3
13:50:23:86342,-3,-5,7,7,0,3,13,-2
13:50:23:94511,-3,-5,7,7,0,3,13,-2
13:50:23:95327,0,7,-4,-10,-9,-12,-2,-2
13:50:23:108849,-4,-42,-19,-2,-2,-1,1,1
13:50:23:117002,-4,-42,-19,-2,-2,-1,1,1
13:50:23:117795,0,-1,-7,-4,-1,-2,-2,-1
13:50:23:123866,4,15,2,-7,-1,-1,-6,0
13:50:23:131356,4,15,2,-7,-1,-1,-6,0
13:50:23:138875,3,4,-8,11,-3,2,-3,-1
13:50:23:146341,-5,2,4,-5,-2,-1,2,-2
13:50:23:154570,-5,2,4,-5,-2,-1,2,-2
13:50:23:155295,1,6,21,9,0,4,-2,2
13:50:23:168804,-3,-25,-8,-3,-8,-7,-5,-2
13:50:23:177004,-3,-25,-8,-3,-8,-7,-5,-2
13:50:23:177760,-3,2,-3,-5,-9,-2,-3,0
13:50:23:183760,6,19,9,0,-2,4,2,4
13:50:23:199540,6,19,9,0,-2,4,2,4
13:50:23:200293,-5,-34,-10,-8,-9,-8,-2,-3
13:50:23:206406,-1,2,6,-5,-2,-3,-1,-1
13:50:23:214519,-1,2,6,-5,-2,-3,-1,-1
13:50:23:215307,4,15,-6,-5,6,3,5,1
13:50:23:228797,-15,-33,-44,-4,-9,-6,-13,-9
13:50:23:237112,-15,-33,-44,-4,-9,-6,-13,-9
13:50:23:237787,2,2,2,-5,9,14,1,0
13:50:23:243813,5,4,15,5,15,16,2,3
13:50:23:251383,5,4,15,5,15,16,2,3
13:50:23:258800,-11,-21,-16,-4,-8,-12,-6,-6
13:50:23:266270,-12,-14,-23,-22,-9,-17,-2,-5
13:50:23:274547,-12,-14,-23,-22,-9,-17,-2,-5
13:50:23:275346,-6,-26,4,-3,0,-8,3,0
13:50:23:288961,-5,4,1,3,0,2,3,1
13:50:23:297093,-5,4,1,3,0,2,3,1
13:50:23:297797,1,-25,-14,5,-2,-3,-3,0
13:50:23:303861,2,7,-18,-16,0,-2,-5,-2
13:50:23:319516,2,7,-18,-16,0,-2,-5,-2
13:50:23:320287,2,8,9,14,2,5,-4,1
13:50:23:326369,9,24,29,4,6,10,0,1
13:50:23:334612,9,24,29,4,6,10,0,1
13:50:23:335314,2,35,26,-14,-14,2,1,1
13:50:23:348847,1,1,4,24,1,4,4,2
13:50:23:357140,1,1,4,24,1,4,4,2
13:50:23:357830,-3,-8,1,-21,0,-9,-2,-2
13:50:23:363769,-2,-11,-2,18,7,-1,-5,0
13:50:23:379522,-2,-11,-2,18,7,-1,-5,0
13:50:23:380303,0,3,-8,-1,3,5,-1,-1
13:50:23:386400,3,11,9,-9,-3,-9,2,-5
13:50:23:394513,3,11,9,-9,-3,-9,2,-5
13:50:23:395291,-5,-10,-11,-4,0,-8,-4,1
13:50:23:408848,0,-1,-7,-9,-10,-12,-6,-3
13:50:23:417071,0,-1,-7,-9,-10,-12,-6,-3
13:50:23:417783,-2,-12,-10,-16,-6,6,9,2
13:50:23:423839,-7,-2,3,14,12,-1,-1,-4
13:50:23:431376,-7,-2,3,14,12,-1,-1,-4
13:50:23:438782,2,16,4,30,2,-4,5,2
13:50:23:446261,3,8,0,-13,-14,-7,-3,-3
13:50:23:454561,3,8,0,-13,-14,-7,-3,-3
13:50:23:455311,-1,27,14,16,-1,-2,-5,-4
13:50:23:468853,3,-34,-16,-7,9,4,3,3
13:50:23:477013,3,-34,-16,-7,9,4,3,3
13:50:23:477803,-6,-8,5,-4,-2,-2,-2,-4
13:50:23:483869,2,-5,-14,-5,-5,1,-6,4
13:50:23:491373,2,-5,-14,-5,-5,1,-6,4
13:50:23:498928,4,12,-13,10,10,7,6,8
13:50:23:506310,-3,2,23,7,10,4,6,0
13:50:23:514518,-3,2,23,7,10,4,6,0
13:50:23:515344,7,21,21,-6,-10,-3,-14,-7
13:50:23:528820,4,12,1,3,2,25,6,6
13:50:23:537084,4,12,1,3,2,25,6,6
13:50:23:537810,-4,-1,35,8,4,-13,0,-4
13:50:23:543773,4,20,49,24,-4,-8,-5,-2
13:50:23:551374,4,20,49,24,-4,-8,-5,-2
13:50:23:558830,-3,-5,-28,-25,-10,-2,0,0
13:50:23:566381,-3,-9,-5,-1,-7,-10,2,0
13:50:23:574580,-3,-9,-5,-1,-7,-10,2,0
13:50:23:575356,2,-3,-17,-1,-4,0,1,-2
13:50:23:588898,-1,-8,-4,-3,-3,-3,0,-3
13:50:23:597025,-1,-8,-4,-3,-3,-3,0,-3
13:50:23:597790,2,-6,-9,5,2,-1,-4,-1
13:50:23:603889,-9,2,11,-10,-11,-16,-12,-6
13:50:23:619619,-9,2,11,-10,-11,-16,-12,-6
13:50:23:620313,-2,-5,-3,-4,7,15,14,3
13:50:23:626287,0,2,-18,-15,-8,-4,-5,-5
13:50:23:634538,0,2,-18,-15,-8,-4,-5,-5
13:50:23:635328,-5,-6,2,4,3,-2,-4,-2
13:50:23:648901,-12,2,-6,-11,-13,-11,-4,-5
13:50:23:657044,-12,2,-6,-11,-13,-11,-4,-5
13:50:23:657813,2,-2,-11,-14,-5,-8,-11,-5
13:50:23:663790,-6,5,-2,2,13,11,3,0
13:50:23:671452,-6,5,-2,2,13,11,3,0
13:50:23:686996,-12,-23,-9,-2,12,-2,-6,-6
13:50:23:687758,13,6,-15,-9,-14,-11,-6,2
13:50:23:694554,13,6,-15,-9,-14,-11,-6,2
13:50:23:695306,-2,-23,1,2,-12,-19,0,2
13:50:23:708804,-5,-8,2,-5,11,12,4,-1
13:50:23:717091,-5,-8,2,-5,11,12,4,-1
13:50:23:717801,-2,3,0,-2,-1,0,5,0
13:50:23:723843,-12,-4,-9,-2,-7,-10,2,0
13:50:23:731361,-12,-4,-9,-2,-7,-10,2,0
13:50:23:738915,5,-1,-14,2,8,6,-1,1
13:50:23:746278,-5,-38,-7,2,2,-12,-15,-15
13:50:23:754609,-5,-38,-7,2,2,-12,-15,-15
13:50:23:755302,-1,-19,-34,-9,-9,-6,9,-1
13:50:23:768803,13,2,4,-5,-7,-4,-2,2
13:50:23:777028,13,2,4,-5,-7,-4,-2,2
13:50:23:777811,-8,-3,-27,1,3,1,-3,-7
13:50:23:783831,5,13,1,10,9,10,2,5
13:50:23:799600,5,13,1,10,9,10,2,5
13:50:23:800346,4,24,8,2,-5,-3,-8,-4
13:50:23:806325,3,-3,9,16,4,1,4,1
13:50:23:813858,3,-3,9,16,4,1,4,1
13:50:23:821392,-2,14,21,-10,-9,-6,1,0
13:50:23:828764,17,15,9,-12,0,-8,9,7
13:50:23:837096,17,15,9,-12,0,-8,9,7
13:50:23:837748,-27,-31,-7,-19,-1,-5,-3,1
13:50:23:851364,-4,-12,-8,-8,-3,3,-6,1
13:50:23:859541,-4,-12,-8,-8,-3,3,-6,1
13:50:23:860292,19,46,16,0,0,16,-16,6
13:50:23:866360,-6,10,0,-1,-3,-8,0,-7
13:50:23:873899,-6,10,0,-1,-3,-8,0,-7
13:50:23:881362,4,13,16,2,6,-3,9,-5
13:50:23:888911,6,1,-5,-4,-2,11,14,6
13:50:23:897030,6,1,-5,-4,-2,11,14,6
13:50:23:897778,1,5,1,12,2,1,-6,-2
13:50:23:911290,3,20,1,4,12,-3,-4,-2
13:50:23:919614,3,20,1,4,12,-3,-4,-2
13:50:23:920260,6,-6,5,20,6,5,6,-1
13:50:23:926320,-4,-30,-20,3,-1,5,-3,2
13:50:23:933960,-4,-30,-20,3,-1,5,-3,2
13:50:23:941373,-11,3,-6,-13,-11,-9,14,-4
13:50:23:957644,-2,-29,-53,-17,-10,9,14,6
13:50:23:958441,-2,-29,-53,-17,-10,9,14,6
13:50:23:959267,-16,-59,-63,-20,-9,-1,4,-4
13:50:23:971425,-5,30,11,20,8,2,-3,-7
13:50:23:979509,-5,30,11,20,8,2,-3,-7
13:50:23:980340,7,25,30,13,0,-7,-11,0
13:50:23:986378,-3,-3,10,-4,-4,2,-6,2
13:50:23:993813,-3,-3,10,-4,-4,2,-6,2
13:50:24:1346,-4,14,5,-17,-22,-17,-4,-2
13:50:24:8840,-5,1,14,10,20,15,13,-5
13:50:24:17020,-5,1,14,10,20,15,13,-5
13:50:24:17750,0,14,0,-3,6,5,-4,-2
13:50:24:31312,3,33,41,-1,-23,-18,-9,0
13:50:24:39529,3,33,41,-1,-23,-18,-9,0
13:50:24:40263,7,-45,-2,7,21,15,8,6
13:50:24:46293,-2,10,4,-10,-12,-11,-6,-1
13:50:24:53974,-2,10,4,-10,-12,-11,-6,-1
13:50:24:61295,14,14,13,10,8,-2,-4,0
13:50:24:68873,15,-3,-1,-4,9,7,1,0
13:50:24:76997,15,-3,-1,-4,9,7,1,0
13:50:24:77795,6,17,-3,-3,1,6,1,-1
13:50:24:91325,-7,-13,-5,12,-4,-2,1,2
13:50:24:99586,-7,-13,-5,12,-4,-2,1,2
13:50:24:100287,11,40,24,2,0,5,2,4
13:50:24:106299,-11,-2,-5,-3,-5,-4,-8,-8
13:50:24:113830,-11,-2,-5,-3,-5,-4,-8,-8
13:50:24:121361,0,34,16,7,1,3,1,3
13:50:24:128816,-5,-5,-8,-5,-3,-8,-7,-5
13:50:24:137095,-5,-5,-8,-5,-3,-8,-7,-5
13:50:24:137780,-9,-24,-18,-9,-5,-15,-19,-5
13:50:24:151242,2,2,-20,-5,4,0,1,1
13:50:24:159529,2,2,-20,-5,4,0,1,1
13:50:24:160289,-1,-13,5,15,0,0,9,4
13:50:24:166353,-5,-20,6,11,4,1,3,0
13:50:24:173889,-5,-20,6,11,4,1,3,0
13:50:24:181309,-10,-16,24,-16,-8,-10,-5,-5
13:50:24:188834,3,-14,-27,6,1,8,6,4
13:50:24:197021,3,-14,-27,6,1,8,6,4
13:50:24:197783,-3,-42,-42,-1,5,6,-1,1
13:50:24:211274,7,34,-16,-2,-7,-4,0,1
13:50:24:219574,7,34,-16,-2,-7,-4,0,1
13:50:24:220352,-5,12,49,9,-4,1,2,-3
13:50:24:226298,5,-7,-3,6,1,-4,-4,-2
13:50:24:233919,5,-7,-3,6,1,-4,-4,-2
13:50:24:241361,-10,-30,-38,-7,-5,-3,-3,-6
13:50:24:248814,-5,2,4,-13,-8,-6,-2,-1
13:50:24:257051,-5,2,4,-13,-8,-6,-2,-1
13:50:24:257819,-2,3,9,10,-7,-7,-2,0
13:50:24:271384,5,25,43,27,32,16,1,3
13:50:24:279549,5,25,43,27,32,16,1,3
13:50:24:280308,-2,-56,-49,-24,-7,-7,4,-6
13:50:24:286381,-23,-3,-28,-23,-7,-19,-3,-9
13:50:24:293827,-23,-3,-28,-23,-7,-19,-3,-9
13:50:24:301365,2,17,-2,-2,4,11,-3,4
13:50:24:308845,-2,-7,-4,-13,-17,-10,-5,-1
13:50:24:317080,-2,-7,-4,-13,-17,-10,-5,-1
13:50:24:317780,4,8,-10,-8,-2,-4,-4,-3
13:50:24:331336,-7,-4,3,8,3,8,-4,-5
13:50:24:339556,-7,-4,3,8,3,8,-4,-5
13:50:24:340339,8,15,18,4,-7,-7,-1,5
13:50:24:346305,17,10,26,2,4,4,-3,2
13:50:24:353970,17,10,26,2,4,4,-3,2
13:50:24:361273,-29,-16,27,1,4,2,1,-9
13:50:24:368911,45,-1,4,-5,-6,-6,-1,16
13:50:24:377028,45,-1,4,-5,-6,-6,-1,16
13:50:24:377783,7,2,2,-4,2,-1,-3,5
13:50:24:391344,-15,-9,-2,-2,7,5,5,4
13:50:24:399591,-15,-9,-2,-2,7,5,5,4
13:50:24:400304,-29,-21,-9,4,-5,-4,1,-7
13:50:24:406276,-15,2,11,6,-2,-1,-6,-7
13:50:24:413849,-15,2,11,6,-2,-1,-6,-7
13:50:24:421381,29,49,-26,-6,-4,5,1,7
13:50:24:428864,-3,-24,-31,-1,7,-4,-5,-1
13:50:24:437148,-3,-24,-31,-1,7,-4,-5,-1
13:50:24:437808,6,17,30,6,-3,0,-3,1
13:50:24:452146,-5,-1,4,1,10,3,12,-3
13:50:24:452850,-5,-1,4,1,10,3,12,-3
13:50:24:458835,-4,-9,5,-2,2,-3,-9,-4
13:50:24:466404,-2,8,-21,-21,-7,-11,-4,-6
13:50:24:473949,-2,8,-21,-21,-7,-11,-4,-6
13:50:24:481312,0,-3,-15,6,-7,-5,0,11
13:50:24:488815,-4,16,12,18,1,-4,-4,-3
13:50:24:497064,-4,16,12,18,1,-4,-4,-3
13:50:24:497809,-5,22,12,-3,3,-4,3,-8
13:50:24:512476,-1,-14,-7,-14,0,14,3,-1
13:50:24:513291,-1,-14,-7,-14,0,14,3,-1
13:50:24:518902,-3,-27,-4,-5,-7,-12,-7,-9
13:50:24:526347,6,-5,-2,-5,4,14,3,1
13:50:24:533964,6,-5,-2,-5,4,14,3,1
13:50:24:541345,0,-3,-16,-1,5,1,6,2
13:50:24:548903,-4,-15,-5,-1,-15,-10,4,-6
13:50:24:557059,-4,-15,-5,-1,-15,-10,4,-6
13:50:24:557788,2,19,19,7,1,-3,-8,-4
13:50:24:572012,-3,-18,3,6,-1,-4,-6,3
13:50:24:572784,-3,-18,3,6,-1,-4,-6,3
13:50:24:578823,-11,1,-3,5,6,12,5,-4
13:50:24:586366,-7,2,-14,-14,-3,-6,-3,-1
13:50:24:593801,-7,2,-14,-14,-3,-6,-3,-1
13:50:24:601343,15,5,-33,-13,-8,-2,-6,4
13:50:24:608847,-5,15,0,10,5,6,1,3
13:50:24:617075,-5,15,0,10,5,6,1,3
13:50:24:617770,1,-2,-4,3,5,1,5,0
13:50:24:632102,3,12,-1,-12,-14,1,5,-2
13:50:24:632767,3,12,-1,-12,-14,1,5,-2
13:50:24:638826,0,1,-8,-6,5,13,13,17
13:50:24:646318,0,7,45,18,-4,4,-11,-12
13:50:24:653921,0,7,45,18,-4,4,-11,-12
13:50:24:661302,-15,-51,-24,-20,-3,2,0,-12
13:50:24:668825,-14,-14,-8,-2,3,-12,-3,-4
13:50:24:677019,-14,-14,-8,-2,3,-12,-3,-4
13:50:24:677801,0,8,23,17,14,-2,-6,0
13:50:24:692059,23,-7,-11,4,12,-4,-2,7
13:50:24:692798,23,-7,-11,4,12,-4,-2,7
13:50:24:698889,-1,11,12,6,-17,-10,-7,0
13:50:24:706298,1,25,2,-4,-4,-1,-1,-3
13:50:24:713851,1,25,2,-4,-4,-1,-1,-3
13:50:24:721393,37,12,-4,-21,-6,-11,7,6
13:50:24:728790,-38,-72,-8,-11,-8,-11,-1,-2
13:50:24:737139,-38,-72,-8,-11,-8,-11,-1,-2
13:50:24:737857,-30,-6,8,-4,5,2,-3,-9
13:50:24:752091,5,-11,-47,-10,2,0,1,0
13:50:24:752840,5,-11,-47,-10,2,0,1,0
13:50:24:758837,0,-27,-21,8,-6,2,-6,-1
13:50:24:774509,-9,6,-11,-2,-9,5,-4,-2
13:50:24:775341,-9,6,-11,-2,-9,5,-4,-2
13:50:24:781280,-2,-1,8,-6,-4,-15,-21,-7
13:50:24:788789,7,6,1,-2,5,-1,-1,-1
13:50:24:796321,7,6,1,-2,5,-1,-1,-1
13:50:24:803894,0,2,17,12,3,2,6,-1
13:50:24:812049,10,23,19,2,5,-10,-4,0
13:50:24:812801,10,23,19,2,5,-10,-4,0
13:50:24:818893,21,-9,-18,-16,-4,8,8,7
13:50:24:834528,2,9,9,0,-5,5,1,-2
13:50:24:835312,2,9,9,0,-5,5,1,-2
13:50:24:841324,13,3,-4,7,-5,-1,-1,0
13:50:24:848874,-8,1,4,-18,-8,-4,1,-2
13:50:24:856432,-8,1,4,-18,-8,-4,1,-2
13:50:24:863808,-18,-2,4,-9,-6,-3,-3,-3
13:50:24:872036,-7,-19,2,1,-4,-13,-2,1
13:50:24:872780,-7,-19,2,1,-4,-13,-2,1
13:50:24:878876,1,6,4,10,4,12,1,-2
13:50:24:894512,5,13,-22,-12,6,9,2,-2
13:50:24:895326,5,13,-22,-12,6,9,2,-2
13:50:24:901346,-11,7,-2,-1,-3,-13,-5,-8
13:50:24:908840,9,-15,6,4,-1,-6,-3,4
13:50:24:916450,9,-15,6,4,-1,-6,-3,4
13:50:24:923896,-5,3,0,-2,-11,-6,-7,-8
13:50:24:932175,-2,14,22,14,8,13,7,2
13:50:24:932837,-2,14,22,14,8,13,7,2
13:50:24:938837,19,1,20,-13,-10,-13,-7,-2
13:50:24:954581,0,11,16,7,0,3,-7,2
13:50:24:955286,0,11,16,7,0,3,-7,2
13:50:24:961344,-7,2,7,6,10,6,4,-1
13:50:24:968926,-20,-16,-4,-1,-12,-10,-5,-6
13:50:24:976388,-20,-16,-4,-1,-12,-10,-5,-6
13:50:24:983827,1,-13,-11,-1,7,3,-1,0
13:50:24:992038,2,0,-10,-17,-2,-4,-2,-4
13:50:24:992844,2,0,-10,-17,-2,-4,-2,-4
13:50:24:998956,2,7,-9,17,15,8,8,3
13:50:25:14514,1,1,1,-14,-14,-7,-2,-3
13:50:25:15328,1,1,1,-14,-14,-7,-2,-3
13:50:25:21399,-18,-11,-7,3,18,13,10,3
13:50:25:28804,2,2,-12,-1,1,8,3,4
13:50:25:36461,2,2,-12,-1,1,8,3,4
13:50:25:43817,-27,-21,5,-8,-12,-13,-2,0
13:50:25:52105,4,-14,-11,-2,-2,1,0,-5
13:50:25:52817,4,-14,-11,-2,-2,1,0,-5
13:50:25:58813,-1,2,5,1,-1,5,6,4
13:50:25:74540,4,-1,1,11,-2,6,-1,-5
13:50:25:75332,4,-1,1,11,-2,6,-1,-5
13:50:25:81345,12,7,-12,-10,3,3,0,-3
13:50:25:89035,0,11,2,-5,4,4,7,1
13:50:25:96342,0,11,2,-5,4,4,7,1
13:50:25:103880,-11,-5,-16,-24,-11,-16,-10,-6
13:50:25:112032,-7,5,-2,6,1,-2,1,0
13:50:25:112822,-7,5,-2,6,1,-2,1,0
13:50:25:118873,-1,15,-2,6,0,-5,-6,-1
13:50:25:134539,9,7,9,2,-7,-7,9,0
13:50:25:135312,9,7,9,2,-7,-7,9,0
13:50:25:141341,9,11,2,-2,-4,10,7,1
13:50:25:148924,1,-1,-32,7,-5,-6,6,4
13:50:25:156433,1,-1,-32,7,-5,-6,6,4
13:50:25:163850,6,-4,13,18,4,2,5,-2
13:50:25:172139,1,3,14,-7,0,-15,-14,-2
13:50:25:172740,1,3,14,-7,0,-15,-14,-2
13:50:25:178795,6,-17,11,0,6,-1,-8,5
13:50:25:194523,12,9,8,-3,10,34,16,-1
13:50:25:195339,12,9,8,-3,10,34,16,-1
13:50:25:201294,-15,1,23,9,-6,-11,-11,0
13:50:25:208796,-13,-7,-1,-1,-11,-1,7,0
13:50:25:216392,-13,-7,-1,-1,-11,-1,7,0
13:50:25:223887,12,2,-6,7,-1,8,16,0
13:50:25:232208,-3,-8,1,6,-1,-15,-17,-3
13:50:25:232839,-3,-8,1,6,-1,-15,-17,-3
13:50:25:238834,1,-6,-29,5,8,0,-1,-1
13:50:25:254597,-5,4,1,12,9,4,-6,-4
13:50:25:255264,-5,4,1,12,9,4,-6,-4
13:50:25:261309,-10,10,2,-17,-12,-9,-6,-3
13:50:25:268964,-17,-14,0,-19,-5,-8,1,0
13:50:25:276347,-17,-14,0,-19,-5,-8,1,0
13:50:25:283801,12,7,6,6,-7,-2,-4,0
13:50:25:292042,9,-1,3,9,5,3,-6,4
13:50:25:292798,9,-1,3,9,5,3,-6,4
13:50:25:298823,-16,-7,-3,-14,-7,1,-3,-7
13:50:25:314520,-3,-3,-2,0,-6,-13,-9,-4
13:50:25:315295,-3,-3,-2,0,-6,-13,-9,-4
13:50:25:321409,5,-13,-12,10,12,7,2,0
13:50:25:328752,-5,-3,-7,-13,0,1,0,0
13:50:25:336442,-5,-3,-7,-13,0,1,0,0
13:50:25:343789,6,-1,-4,6,-7,-11,0,-3
13:50:25:352092,-5,-10,-7,7,1,-6,-2,0
13:50:25:352877,-5,-10,-7,7,1,-6,-2,0
13:50:25:358762,-10,-9,-11,-1,-10,-8,1,-4
13:50:25:374527,1,9,-1,-2,8,17,1,-1
13:50:25:375355,1,9,-1,-2,8,17,1,-1
13:50:25:381304,6,15,0,-17,3,-11,-9,-3
13:50:25:388821,3,-4,-7,-2,-3,4,4,1
13:50:25:396352,3,-4,-7,-2,-3,4,4,1
13:50:25:403876,-7,-9,-6,-14,-11,-17,-25,-1
13:50:25:412043,-7,-22,6,-9,-8,-15,-6,-8
13:50:25:412814,-7,-22,6,-9,-8,-15,-6,-8
13:50:25:418877,5,-33,12,-9,-1,1,13,4
13:50:25:434522,0,10,4,6,-8,-13,-9,-3
13:50:25:435310,0,10,4,6,-8,-13,-9,-3
13:50:25:441323,-1,19,-4,18,7,5,6,3
13:50:25:448921,-4,9,-16,-11,-6,-1,7,0
13:50:25:456417,-4,9,-16,-11,-6,-1,7,0
13:50:25:463801,-3,1,8,7,2,37,7,0
13:50:25:472084,2,16,18,-1,-9,1,-1,0
13:50:25:472791,2,16,18,-1,-9,1,-1,0
13:50:25:478800,-4,-8,-2,-9,4,8,21,-1
13:50:25:494435,-2,-9,-16,1,2,13,-2,5
13:50:25:495274,-2,-9,-16,1,2,13,-2,5
13:50:25:501343,-8,0,-4,2,-8,-21,-9,-4
13:50:25:508835,0,30,0,5,2,-2,9,-2
13:50:25:516432,0,30,0,5,2,-2,9,-2
13:50:25:523902,0,-4,-10,-18,4,-3,-6,-2
13:50:25:532157,0,-3,-8,-6,-4,-2,-5,-1
13:50:25:532812,0,-3,-8,-6,-4,-2,-5,-1
13:50:25:538867,4,14,6,16,8,2,1,0
13:50:25:554555,-2,-31,-14,-33,-7,-4,-3,-3
13:50:25:555303,-2,-31,-14,-33,-7,-4,-3,-3
13:50:25:561301,-7,1,9,-3,-3,-2,-2,-1
13:50:25:568954,-8,-6,6,5,10,-3,-2,0
13:50:25:576358,-8,-6,6,5,10,-3,-2,0
13:50:25:583837,-2,0,-8,-4,3,4,-9,2
13:50:25:592055,10,9,5,-4,2,17,7,0
13:50:25:592832,10,9,5,-4,2,17,7,0
13:50:25:598928,0,7,22,5,6,6,10,-2
13:50:25:614478,6,8,19,15,6,-6,2,-2
13:50:25:615350,6,8,19,15,6,-6,2,-2
13:50:25:621379,-3,-4,2,-5,-5,-12,-1,0
13:50:25:628768,11,35,12,-2,0,-1,-4,1
13:50:25:636451,11,35,12,-2,0,-1,-4,1
13:50:25:643814,5,-3,-19,-33,-15,-6,-5,-17
13:50:25:652114,1,-6,-14,12,25,-2,-2,-5
13:50:25:652842,1,-6,-14,12,25,-2,-2,-5
13:50:25:658799,-4,12,22,11,-3,-1,4,4
13:50:25:674535,6,-14,2,11,7,5,0,1
13:50:25:675324,6,-14,2,11,7,5,0,1
13:50:25:681295,-3,-13,-7,-1,0,3,-5,26
13:50:25:697022,-10,-15,-16,2,-18,-7,-3,18
13:50:25:697765,-10,-15,-16,2,-18,-7,-3,18
13:50:25:703925,0,4,5,7,-4,-4,-1,-9
13:50:25:712039,-3,0,-1,-4,-9,-30,-9,-15
13:50:25:712822,-3,0,-1,-4,-9,-30,-9,-15
13:50:25:726306,9,-9,-21,-2,-1,11,17,-11
13:50:25:734517,0,-3,7,3,14,3,-10,-12
13:50:25:735275,0,-3,7,3,14,3,-10,-12
13:50:25:741282,-5,3,2,-1,-9,-13,-22,-2
13:50:25:757052,-5,3,2,-1,-9,-13,-22,-2
13:50:25:757795,-1,-16,-6,8,-7,-19,-12,-8
13:50:25:763763,9,-15,-13,1,12,-1,10,1
13:50:25:772117,9,-15,-13,1,12,-1,10,1
13:50:25:772793,-6,-9,-4,-22,-18,3,1,2
13:50:25:786431,-11,-4,3,6,12,20,10,3
13:50:25:794504,-11,-4,3,6,12,20,10,3
13:50:25:795311,-14,-10,-1,-13,1,-4,2,-3
13:50:25:801316,-2,8,7,0,-7,-2,-12,-4
13:50:25:817080,-2,8,7,0,-7,-2,-12,-4
13:50:25:817779,1,8,-7,-4,-1,9,7,5
13:50:25:823777,-4,-20,-16,8,-5,1,-4,-5
13:50:25:832193,-4,-20,-16,8,-5,1,-4,-5
13:50:25:832804,6,-8,-26,-1,4,5,15,-1
13:50:25:846300,-3,7,1,-3,7,12,8,4
13:50:25:854559,-3,7,1,-3,7,12,8,4
13:50:25:855364,-9,-8,6,7,-9,-10,-5,-2
13:50:25:861239,6,6,-2,3,-1,-7,-6,-3
13:50:25:877053,6,6,-2,3,-1,-7,-6,-3
13:50:25:877784,3,0,13,8,9,17,2,-2
13:50:25:883901,-9,-24,-6,-11,3,-5,-1,2
13:50:25:892090,-9,-24,-6,-11,3,-5,-1,2
13:50:25:892833,-6,-7,3,-1,8,-2,-5,-2
13:50:25:906366,-3,27,-7,-8,-12,-5,-8,-5
13:50:25:914529,-3,27,-7,-8,-12,-5,-8,-5
13:50:25:915315,3,4,-4,-10,-10,-6,-1,1
13:50:25:921348,-5,12,0,11,-2,-11,-2,2
13:50:25:937147,-5,12,0,11,-2,-11,-2,2
13:50:25:937784,-14,9,0,10,3,-4,0,-6
13:50:25:943775,-7,-1,-6,3,4,-6,-15,-7
13:50:25:952159,-7,-1,-6,3,4,-6,-15,-7
13:50:25:952758,-6,-9,-2,1,3,-2,-6,-1
13:50:25:966348,-3,-8,4,-14,-18,-10,2,-4
13:50:25:974532,-3,-8,4,-14,-18,-10,2,-4
13:50:25:975260,0,5,-1,-4,0,0,-1,0
13:50:25:981351,4,-1,5,1,3,9,-5,6
13:50:25:997046,4,-1,5,1,3,9,-5,6
13:50:25:997865,2,-7,11,-11,-2,-11,-4,-1
13:50:26:3920,-7,-12,-1,-6,7,7,8,0
13:50:26:12059,-7,-12,-1,-6,7,7,8,0
13:50:26:12750,-5,-3,-17,0,-9,5,-4,0
13:50:26:26335,-1,1,-4,4,2,-1,-1,-3
13:50:26:34580,-1,1,-4,4,2,-1,-1,-3
13:50:26:35332,9,7,-6,0,4,4,10,3
13:50:26:41323,9,-4,-1,-3,0,12,11,2
13:50:26:57078,9,-4,-1,-3,0,12,11,2
13:50:26:57849,4,-1,10,15,5,10,13,-2
13:50:26:63799,-2,-3,-5,-2,-8,-1,1,0
13:50:26:72075,-2,-3,-5,-2,-8,-1,1,0
13:50:26:72851,1,-6,2,-16,-6,-8,-4,-2
13:50:26:86345,0,5,-3,-9,-4,-10,-1,-4
13:50:26:94637,0,5,-3,-9,-4,-10,-1,-4
13:50:26:95314,-3,7,-2,0,-1,1,0,-6
13:50:26:101427,6,0,-9,-13,-8,-10,-7,0
13:50:26:117135,6,0,-9,-13,-8,-10,-7,0
13:50:26:117829,0,11,13,-3,-12,-6,5,1
13:50:26:123817,2,-2,11,6,1,-9,-8,-1
13:50:26:132079,2,-2,11,6,1,-9,-8,-1
13:50:26:132846,4,-14,-18,3,10,11,2,-1
13:50:26:146300,0,-3,2,-6,1,-6,-5,-1
13:50:26:154616,0,-3,2,-6,1,-6,-5,-1
13:50:26:155322,-14,1,1,1,-10,-6,-12,2
13:50:26:161264,-12,17,-14,5,10,16,3,1
13:50:26:177038,-12,17,-14,5,10,16,3,1
13:50:26:177779,6,7,7,8,10,11,1,0
13:50:26:183857,7,-11,9,-3,5,0,2,-1
13:50:26:192058,7,-11,9,-3,5,0,2,-1
13:50:26:192790,13,8,2,4,-7,-5,-7,-4
13:50:26:206257,5,0,-11,-1,-10,-18,-5,-1
13:50:26:214512,5,0,-11,-1,-10,-18,-5,-1
13:50:26:215346,-13,-2,1,0,1,6,-1,-4
13:50:26:221383,-10,-12,-5,9,0,-2,-4,-3
13:50:26:237131,-10,-12,-5,9,0,-2,-4,-3
13:50:26:237806,-2,1,1,2,11,0,-10,10
13:50:26:243786,3,14,-4,-3,9,6,3,3
13:50:26:252099,3,14,-4,-3,9,6,3,3
13:50:26:252820,5,11,11,0,2,-2,-7,-8
13:50:26:266397,-7,-3,-5,-5,-5,3,8,-6
13:50:26:274540,-7,-3,-5,-5,-5,3,8,-6
13:50:26:275292,7,6,5,-1,-2,15,17,1
13:50:26:281316,7,1,6,-2,-11,-3,2,4
13:50:26:297032,7,1,6,-2,-11,-3,2,4
13:50:26:297760,-15,-15,-2,-2,-14,-16,-2,-4
13:50:26:303828,-4,-4,9,19,11,9,7,6
13:50:26:312064,-4,-4,9,19,11,9,7,6
13:50:26:312762,11,3,-3,3,1,8,-3,0
13:50:26:326366,-3,-2,-6,1,-1,-6,-13,-4
13:50:26:334514,-3,-2,-6,1,-1,-6,-13,-4
13:50:26:335306,-10,-21,-9,-1,6,-16,-2,-2
13:50:26:341262,-4,-1,4,-11,-8,-7,-4,-5
13:50:26:357072,-4,-1,4,-11,-8,-7,-4,-5
13:50:26:357763,-3,-12,-6,-8,1,6,21,3
13:50:26:363804,13,13,11,-9,-4,4,6,1
13:50:26:372117,13,13,11,-9,-4,4,6,1
13:50:26:372756,-4,1,-14,-9,-5,2,-13,0
13:50:26:386396,0,17,13,12,4,-1,2,-3
13:50:26:394480,0,17,13,12,4,-1,2,-3
13:50:26:395286,14,25,8,-12,-9,-1,-8,1
13:50:26:401349,-9,-17,-10,-11,-2,11,-3,0
13:50:26:417111,-9,-17,-10,-11,-2,11,-3,0
13:50:26:417802,10,-7,-4,11,2,-6,1,4
13:50:26:423798,-10,-3,-3,2,-11,-21,-6,-7
13:50:26:432178,-10,-3,-3,2,-11,-21,-6,-7
13:50:26:432807,-8,-8,0,-2,1,-13,-11,-6
13:50:26:455281,1,0,8,0,4,4,-1,3
13:50:26:456025,1,0,8,0,4,4,-1,3
13:50:26:456759,-9,3,18,-6,-5,-13,-20,-7
13:50:26:461252,-15,-18,-2,1,-5,-8,-2,-1
13:50:26:477051,-15,-18,-2,1,-5,-8,-2,-1
13:50:26:477770,-1,-6,0,12,3,9,7,1
13:50:26:483818,9,27,-6,-15,-4,3,3,-4
13:50:26:492064,9,27,-6,-15,-4,3,3,-4
13:50:26:492817,-15,-8,-27,-1,-2,-5,-2,-9
13:50:26:506253,14,0,-13,-4,7,-6,-4,1
13:50:26:514565,14,0,-13,-4,7,-6,-4,1
13:50:26:515284,-1,-5,-4,11,8,7,3,5
13:50:26:521399,-8,-12,-10,-2,-3,-8,-11,-3
13:50:26:537104,-8,-12,-10,-2,-3,-8,-11,-3
13:50:26:537819,9,6,5,-2,7,6,2,-2
13:50:26:543765,-6,-20,2,13,1,6,11,-3
13:50:26:552043,-6,-20,2,13,1,6,11,-3
13:50:26:552848,-10,1,10,4,-9,-8,-9,-1
13:50:26:566359,-10,4,9,1,-1,-5,-5,0
13:50:26:574535,-10,4,9,1,-1,-5,-5,0
13:50:26:575306,2,3,-23,-11,-12,3,5,3
13:50:26:581301,10,-10,7,7,3,-1,-2,0
13:50:26:597038,10,-10,7,7,3,-1,-2,0
13:50:26:597754,4,-14,-13,-10,-3,-5,-8,-1
13:50:26:603828,-4,-6,10,8,9,7,1,-1
13:50:26:612070,-4,-6,10,8,9,7,1,-1
13:50:26:612766,5,18,1,-14,-16,-10,-2,-4
13:50:26:626362,5,-5,-9,-3,2,4,4,3
13:50:26:634545,5,-5,-9,-3,2,4,4,3
13:50:26:635315,8,-20,-3,3,-1,0,5,9
13:50:26:648895,-3,7,-12,-11,-10,-10,-7,-3
13:50:26:657081,-3,7,-12,-11,-10,-10,-7,-3
13:50:26:657855,10,8,5,5,4,8,-7,-4
13:50:26:663821,4,-12,5,-2,6,15,23,2
13:50:26:671505,4,-12,5,-2,6,15,23,2
13:50:26:678787,-16,1,5,-5,-1,-2,8,-6
13:50:26:686343,10,-3,2,-6,-10,-9,-8,-5
13:50:26:694568,10,-3,2,-6,-10,-9,-8,-5
13:50:26:695334,12,25,11,2,10,12,6,7
13:50:26:708859,-8,-21,-21,-3,-7,-9,0,0
13:50:26:717070,-8,-21,-21,-3,-7,-9,0,0
13:50:26:717754,-10,-7,-3,2,11,-4,-6,-3
13:50:26:723775,5,14,13,9,-2,-3,-4,2
13:50:26:731409,5,14,13,9,-2,-3,-4,2
13:50:26:738826,-7,-9,-7,-5,-2,8,7,0
13:50:26:746289,-4,16,5,-6,-3,-5,-8,-5
13:50:26:754602,-4,16,5,-6,-3,-5,-8,-5
13:50:26:755304,-2,-8,5,-5,-4,-10,9,1
13:50:26:768842,-2,4,-5,-2,-5,2,-2,-5
13:50:26:777031,-2,4,-5,-2,-5,2,-2,-5
13:50:26:777798,-7,-5,7,6,7,3,0,0
13:50:26:783844,-2,11,1,2,1,-5,-12,2
13:50:26:791382,-2,11,1,2,1,-5,-12,2
13:50:26:798810,7,-7,3,-3,-7,-12,-5,-3
13:50:26:806278,-5,-5,-5,0,9,11,13,0
13:50:26:814464,-5,-5,-5,0,9,11,13,0
13:50:26:815267,-1,6,-4,-14,0,-5,-4,0
13:50:26:828807,-5,-4,-7,-4,-1,-7,-4,0
13:50:26:837102,-5,-4,-7,-4,-1,-7,-4,0
13:50:26:837849,4,-6,8,15,16,8,4,1
13:50:26:843754,-4,2,4,-3,-1,-8,-3,-2
13:50:26:851340,-4,2,4,-3,-1,-8,-3,-2
13:50:26:858859,-6,-8,-7,-7,-12,-1,0,-4
13:50:26:866354,-1,-10,-1,-6,1,5,3,0
13:50:26:874511,-1,-10,-1,-6,1,5,3,0
13:50:26:875276,-10,-5,1,16,4,-3,-3,-1
13:50:26:888799,5,9,1,8,1,-1,1,0
13:50:26:896961,5,9,1,8,1,-1,1,0
13:50:26:897753,-8,-11,-6,-2,-5,10,19,0
13:50:26:903894,7,10,-14,-11,-7,-7,-6,-2
13:50:26:911324,7,10,-14,-11,-7,-7,-6,-2
13:50:26:918970,4,-10,8,1,0,-11,-12,1
13:50:26:926327,-3,-10,21,1,4,-5,-6,2
13:50:26:934593,-3,-10,21,1,4,-5,-6,2
13:50:26:935387,0,7,-7,-17,-19,-20,-16,-3
13:50:26:948949,8,6,-8,-10,10,8,-7,-1
13:50:26:957109,8,6,-8,-10,10,8,-7,-1
13:50:26:957842,-9,3,-11,-2,0,6,-3,-6
13:50:26:963789,-6,-7,-6,2,-2,0,-4,-1
13:50:26:971443,-6,-7,-6,2,-2,0,-4,-1
13:50:26:987062,13,25,2,7,-8,-11,2,0
13:50:26:987765,-11,-11,-6,2,4,-4,3,-2
13:50:26:994511,-11,-11,-6,2,4,-4,3,-2
13:50:26:995294,-5,-21,-14,0,7,4,-5,-1
13:50:27:8812,1,6,-7,-17,-13,-10,-2,-2
13:50:27:17137,1,6,-7,-17,-13,-10,-2,-2
13:50:27:17694,3,7,4,-8,10,6,2,-3
13:50:27:23841,1,-8,-7,-1,1,6,4,2
13:50:27:31360,1,-8,-7,-1,1,6,4,2
13:50:27:38894,-3,3,11,-9,-9,-16,-6,-4
13:50:27:46283,1,-1,3,7,1,1,-7,-1
13:50:27:54607,1,-1,3,7,1,1,-7,-1
13:50:27:55309,10,8,2,-2,-4,5,-10,3
13:50:27:68898,-8,-30,-16,-2,-1,-3,27,3
13:50:27:77090,-8,-30,-16,-2,-1,-3,27,3
13:50:27:77815,-3,1,2,2,-4,-12,10,-2
13:50:27:83895,-3,-11,-2,0,-7,-4,-10,-5
13:50:27:91391,-3,-11,-2,0,-7,-4,-10,-5
13:50:27:98933,-3,1,-8,5,3,-9,2,3
13:50:27:106306,9,10,4,-12,0,1,-1,1
13:50:27:114541,9,10,4,-12,0,1,-1,1
13:50:27:115314,-14,-11,-11,-9,-10,-8,-11,-5
13:50:27:128751,-17,-37,-9,-1,-4,0,-11,-5
13:50:27:137118,-17,-37,-9,-1,-4,0,-11,-5
13:50:27:137825,15,23,9,-1,1,9,1,3
13:50:27:143784,0,12,-4,-5,-9,-4,2,1
13:50:27:151422,0,12,-4,-5,-9,-4,2,1
13:50:27:158822,-4,-12,-5,-1,5,-19,-4,-6
13:50:27:166373,16,14,12,10,4,8,-17,-1
13:50:27:174516,16,14,12,10,4,8,-17,-1
13:50:27:175336,-12,-10,-5,7,5,19,8,1
13:50:27:188806,-9,1,-12,-5,-1,1,7,1
13:50:27:197024,-9,1,-12,-5,-1,1,7,1
13:50:27:197794,-6,-10,2,-2,-3,-14,-4,-1
13:50:27:203858,-8,-7,3,7,-3,-5,-6,-4
13:50:27:211377,-8,-7,3,7,-3,-5,-6,-4
13:50:27:218926,2,-3,-9,2,3,11,4,-1
13:50:27:226288,11,18,2,-15,-7,-8,-2,-2
13:50:27:234486,11,18,2,-15,-7,-8,-2,-2
13:50:27:235283,-10,-13,2,2,-6,-1,-3,0
13:50:27:248904,16,5,-1,7,20,-4,5,4
13:50:27:257081,16,5,-1,7,20,-4,5,4
13:50:27:257817,9,9,21,7,1,18,8,3
13:50:27:263789,-5,-2,2,1,-9,1,6,1
13:50:27:271398,-5,-2,2,1,-9,1,6,1
13:50:27:286998,-11,-5,-24,-10,1,2,-4,1
13:50:27:287724,-11,-7,10,1,-7,-12,-6,-2
13:50:27:294534,-11,-7,10,1,-7,-12,-6,-2
13:50:27:295306,-4,0,13,-7,-10,-5,-7,-4
13:50:27:308836,-5,-6,-9,8,-1,2,-1,-2
13:50:27:317091,-5,-6,-9,8,-1,2,-1,-2
13:50:27:317802,-1,5,11,-5,2,2,-1,-3
13:50:27:323801,8,22,5,0,-6,-6,-2,2
13:50:27:331396,8,22,5,0,-6,-6,-2,2
13:50:27:338858,-10,-20,-29,6,26,12,1,-3
13:50:27:346277,0,13,0,4,-3,0,10,0
13:50:27:354573,0,13,0,4,-3,0,10,0
13:50:27:355285,6,13,-1,-5,-6,-9,-8,-1
13:50:27:368866,-2,-1,-7,0,1,6,5,-4
13:50:27:377006,-2,-1,-7,0,1,6,5,-4
13:50:27:377832,3,2,0,8,-4,-9,9,3
13:50:27:383858,1,-3,-3,-7,-8,-9,-20,-7
13:50:27:391385,1,-3,-3,-7,-8,-9,-20,-7
13:50:27:398906,9,5,3,1,4,9,-10,-7
13:50:27:406359,-3,1,-8,9,6,-1,-6,-2
13:50:27:414491,-3,1,-8,9,6,-1,-6,-2
13:50:27:415371,-1,-20,-9,-13,-10,-7,-2,-2
13:50:27:428848,2,-7,1,-7,4,1,-2,1
13:50:27:437142,2,-7,1,-7,4,1,-2,1
13:50:27:437798,2,-3,8,-1,-3,-2,5,4
13:50:27:443797,-5,17,8,-9,-3,4,2,0
13:50:27:451469,-5,17,8,-9,-3,4,2,0
13:50:27:458800,12,-3,-11,-6,5,-3,1,0
13:50:27:466346,-7,0,1,2,15,1,1,-3
13:50:27:474554,-7,0,1,2,15,1,1,-3
13:50:27:475349,-3,13,7,0,-10,-8,-7,1
13:50:27:488816,-7,-12,-7,9,6,-2,0,-4
13:50:27:497043,-7,-12,-7,9,6,-2,0,-4
13:50:27:497769,6,2,-1,-8,-4,-12,-9,-3
13:50:27:503859,4,0,3,0,-3,4,-4,-1
13:50:27:511359,4,0,3,0,-3,4,-4,-1
13:50:27:518955,1,-11,-7,-3,-8,-8,-7,-4
13:50:27:526311,1,-6,-11,-7,-7,0,-8,5
13:50:27:534522,1,-6,-11,-7,-7,0,-8,5
13:50:27:535325,-11,1,2,3,6,8,12,1
13:50:27:548893,-5,-8,-2,3,1,-6,-6,-3
13:50:27:556778,-5,-8,-2,3,1,-6,-6,-3
13:50:27:564456,-6,-6,3,-4,3,-1,0,-4
13:50:27:565331,-2,1,5,10,-6,2,2,0
13:50:27:571503,-2,1,5,10,-6,2,2,0
13:50:27:578834,-8,10,-4,-1,-5,9,2,-1
13:50:27:586419,5,-1,-10,-1,5,-1,6,1
13:50:27:593870,5,-1,-10,-1,5,-1,6,1
13:50:27:601379,-4,17,6,0,-5,4,7,3
13:50:27:608840,-3,4,17,-13,-8,-7,-4,-5
13:50:27:617062,-3,4,17,-13,-8,-7,-4,-5
13:50:27:617802,5,-4,-3,2,3,10,1,1
13:50:27:632068,-1,-3,5,-11,-2,-4,-5,-1
13:50:27:632790,-1,-3,5,-11,-2,-4,-5,-1
13:50:27:638868,8,-3,0,11,8,-17,-15,-3
13:50:27:646270,0,-5,-11,-1,5,19,11,3
13:50:27:653994,0,-5,-11,-1,5,19,11,3
13:50:27:661316,-6,5,0,-2,-13,-8,-11,-6
13:50:27:668910,9,5,7,-16,-3,-11,-10,-2
13:50:27:677081,9,5,7,-16,-3,-11,-10,-2
13:50:27:677791,-3,-2,1,-6,-5,-13,1,-1
13:50:27:692007,-3,-4,-2,17,9,15,15,4
13:50:27:692817,-3,-4,-2,17,9,15,15,4
13:50:27:698998,-5,-27,-5,-1,-7,-2,6,1
13:50:27:706337,-19,-25,-6,-2,-2,-14,-8,-6
13:50:27:713848,-19,-25,-6,-2,-2,-14,-8,-6
13:50:27:721405,-3,2,-5,-1,-10,-5,1,0
13:50:27:728807,6,2,-6,11,2,-4,-3,0
13:50:27:737116,6,2,-6,11,2,-4,-3,0
13:50:27:737829,2,-2,-1,-5,-1,14,2,3
13:50:27:752037,-4,-15,-9,-1,-1,0,8,-1
13:50:27:752817,-4,-15,-9,-1,-1,0,8,-1
13:50:27:758747,4,8,-7,1,3,-1,3,-2
13:50:27:766355,-8,-4,-1,10,3,-8,-12,-3
13:50:27:773868,-8,-4,-1,10,3,-8,-12,-3
13:50:27:781326,10,21,18,13,8,21,3,0
13:50:27:788873,5,13,11,-1,-9,1,6,2
13:50:27:797053,5,13,11,-1,-9,1,6,2
13:50:27:797789,0,-1,-2,-9,-6,-8,-13,1
13:50:27:812083,-9,0,-7,-8,-11,0,-9,-1
13:50:27:812795,-9,0,-7,-8,-11,0,-9,-1
13:50:27:818925,1,-3,0,-9,4,-4,4,1
13:50:27:826303,-3,11,13,-13,-3,-5,-2,-3
13:50:27:842080,-3,11,13,-13,-3,-5,-2,-3
13:50:27:842789,-11,-13,-14,-6,-3,-5,-4,-6
13:50:27:848785,5,-6,-1,12,2,-5,3,-1
13:50:27:857081,5,-6,-1,12,2,-5,3,-1
13:50:27:857796,0,-2,-4,2,-2,-2,5,0
13:50:27:872076,3,9,5,5,10,11,11,6
13:50:27:872790,3,9,5,5,10,11,11,6
13:50:27:878759,-4,-7,6,1,0,8,-11,-5
13:50:27:886347,-4,-1,-2,3,4,8,2,-1
13:50:27:893825,-4,-1,-2,3,4,8,2,-1
13:50:27:901403,-3,9,0,1,1,-9,3,-2
13:50:27:908807,7,14,-4,1,2,-4,-6,1
13:50:27:917137,7,14,-4,1,2,-4,-6,1
13:50:27:917771,-10,-14,-9,-7,-5,-8,1,-1
13:50:27:932179,8,1,-10,-4,11,4,3,-2
13:50:27:932809,8,1,-10,-4,11,4,3,-2
13:50:27:938858,-15,-3,19,18,-5,-4,0,-3
13:50:27:946290,0,10,16,-12,-12,-11,0,-4
13:50:27:953931,0,10,16,-12,-12,-11,0,-4
13:50:27:961296,9,6,-2,-6,6,0,6,-3
13:50:27:968890,-1,-7,3,13,4,8,3,1
13:50:27:977044,-1,-7,3,13,4,8,3,1
13:50:27:977701,-2,-1,6,-1,-5,-2,-1,1
13:50:27:992056,-7,-9,-19,-6,-10,-6,2,1
13:50:27:992813,-7,-9,-19,-6,-10,-6,2,1
13:50:27:998904,-1,-11,-2,4,12,17,7,3
13:50:28:6293,-7,-3,9,4,2,14,-4,-6
13:50:28:13810,-7,-3,9,4,2,14,-4,-6
13:50:28:21411,-15,-3,5,-7,2,1,4,-4
13:50:28:28816,5,-1,-3,-2,8,-3,-2,-6
13:50:28:37182,5,-1,-3,-2,8,-3,-2,-6
13:50:28:37778,9,20,8,-3,0,1,-3,0
13:50:28:52082,-8,-7,-1,1,-4,-2,1,-5
13:50:28:52787,-8,-7,-1,1,-4,-2,1,-5
13:50:28:58833,4,9,2,-8,-1,-7,-5,1
13:50:28:66423,0,7,8,-11,-12,-15,-7,1
13:50:28:73874,0,7,8,-11,-12,-15,-7,1
13:50:28:81283,8,1,-6,-8,6,20,9,-2
13:50:28:88803,-1,-9,-10,-4,3,9,-7,0
13:50:28:97148,-1,-9,-10,-4,3,9,-7,0
13:50:28:97787,5,0,-5,3,-11,-25,-8,-4
13:50:28:120199,16,-3,0,11,2,1,6,3
13:50:28:120938,16,-3,0,11,2,1,6,3
13:50:28:121731,-2,-13,-8,2,2,-1,-5,-4
13:50:28:126315,1,-7,-8,-17,-8,-8,-1,-2
13:50:28:133890,1,-7,-8,-17,-8,-8,-1,-2
13:50:28:141369,-4,-14,4,16,1,5,-4,-2
13:50:28:148848,-16,-25,-7,-9,-5,0,1,0
13:50:28:157046,-16,-25,-7,-9,-5,0,1,0
13:50:28:157803,5,5,-2,2,2,2,-1,0
13:50:28:172019,-1,4,11,-5,-12,-17,-15,-6
13:50:28:172773,-1,4,11,-5,-12,-17,-15,-6
13:50:28:178853,-10,-3,-1,2,-4,-3,-15,0
13:50:28:186410,1,3,-6,3,-7,-6,-1,1
13:50:28:193815,1,3,-6,3,-7,-6,-1,1
13:50:28:201324,-6,-13,-14,-10,-10,-6,1,-2
13:50:28:208801,-9,3,2,6,14,2,-1,2
13:50:28:217132,-9,3,2,6,14,2,-1,2
13:50:28:217785,2,13,-9,-2,1,4,10,1
13:50:28:232075,2,-6,-6,-5,0,4,5,0
13:50:28:232797,2,-6,-6,-5,0,4,5,0
13:50:28:238785,8,19,2,-5,-6,-4,-7,-1
13:50:28:246269,3,6,6,39,11,-3,1,0
13:50:28:253926,3,6,6,39,11,-3,1,0
13:50:28:261282,4,-6,-7,-2,0,-8,-4,-3
13:50:28:269041,-8,1,2,-8,-8,1,4,-5
13:50:28:277056,-8,1,2,-8,-8,1,4,-5
13:50:28:277870,1,0,14,0,-10,-19,-7,0
13:50:28:292056,3,-3,-5,-6,9,11,-4,2
13:50:28:292803,3,-3,-5,-6,9,11,-4,2
13:50:28:298786,-1,11,-5,-5,8,4,3,3
13:50:28:306316,-3,5,0,-3,-10,-10,-2,-4
13:50:28:313847,-3,5,0,-3,-10,-10,-2,-4
13:50:28:321396,0,-9,-4,-8,0,-1,-3,1
13:50:28:328820,4,-2,-14,0,3,-4,4,2
13:50:28:337198,4,-2,-14,0,3,-4,4,2
13:50:28:337868,-17,-10,3,0,-1,6,6,-6
13:50:28:352116,-4,3,10,-13,-7,-1,-2,-3
13:50:28:352832,-4,3,10,-13,-7,-1,-2,-3
13:50:28:358803,-7,-11,1,-7,-1,-6,-3,-2
13:50:28:366403,4,2,-1,-7,-11,-2,-3,4
13:50:28:373886,4,2,-1,-7,-11,-2,-3,4
13:50:28:381404,-1,-13,-10,8,1,2,2,-3
13:50:28:388879,3,9,-6,3,-5,-2,3,0
13:50:28:396985,3,9,-6,3,-5,-2,3,0
13:50:28:397781,-1,0,-9,-5,-1,6,-1,1
13:50:28:411953,-1,-19,-13,-4,3,3,3,-4
13:50:28:412741,-1,-19,-13,-4,3,3,3,-4
13:50:28:418921,2,4,0,-7,0,-3,-3,-1
13:50:28:426313,-7,-14,3,1,7,0,-4,-4
13:50:28:433868,-7,-14,3,1,7,0,-4,-4
13:50:28:441359,8,1,-5,0,-3,-13,-1,-2
13:50:28:448933,4,0,-8,-12,-9,2,-3,-1
13:50:28:457064,4,0,-8,-12,-9,2,-3,-1
13:50:28:457795,10,30,3,13,-1,-2,-8,1
13:50:28:472098,-5,-3,-12,-12,-8,-13,-17,-3
13:50:28:472793,-5,-3,-12,-12,-8,-13,-17,-3
13:50:28:478768,-1,-1,1,-4,0,7,9,2
13:50:28:486437,-7,7,22,2,-1,-6,2,-1
13:50:28:493827,-7,7,22,2,-1,-6,2,-1
13:50:28:501319,0,-1,-6,3,-3,-8,-8,-3
13:50:28:508796,1,-8,3,8,1,10,11,0
13:50:28:517102,1,-8,3,8,1,10,11,0
13:50:28:517788,-3,-22,7,2,1,-1,3,-2
13:50:28:532092,0,3,0,3,4,2,2,1
13:50:28:532818,0,3,0,3,4,2,2,1
13:50:28:538883,-12,-7,-12,-1,4,4,1,3
13:50:28:554581,-3,5,-12,-7,-1,-5,-2,0
13:50:28:555325,-3,5,-12,-7,-1,-5,-2,0
13:50:28:561299,-28,9,-3,-10,-3,5,1,-4
13:50:28:568803,-30,-3,5,5,17,19,11,5
13:50:28:576336,-30,-3,5,5,17,19,11,5
13:50:28:583858,16,3,8,-1,-6,-8,-15,-3
13:50:28:592085,16,-7,-2,2,-7,-10,3,0
13:50:28:592816,16,-7,-2,2,-7,-10,3,0
13:50:28:598908,1,-21,-4,7,-1,-2,4,-1
13:50:28:614474,9,5,8,3,-4,-1,-4,4
13:50:28:615283,9,5,8,3,-4,-1,-4,4
13:50:28:621354,15,-1,-1,9,12,14,7,0
13:50:28:628793,3,0,-14,-10,0,-2,-2,-6
13:50:28:636431,3,0,-14,-10,0,-2,-2,-6
13:50:28:643746,-1,-10,-10,7,-2,-7,-4,-6
13:50:28:652105,9,8,2,12,19,17,2,1
13:50:28:652819,9,8,2,12,19,17,2,1
13:50:28:658825,19,-10,1,-3,10,7,-7,0
13:50:28:674565,-9,-11,-20,-9,-13,-24,-13,-5
13:50:28:675336,-9,-11,-20,-9,-13,-24,-13,-5
13:50:28:681286,-3,4,-7,-18,-9,-3,-8,-3
13:50:28:688790,-3,5,1,-9,-6,-5,-5,-6
13:50:28:696347,-3,5,1,-9,-6,-5,-5,-6
13:50:28:703863,-11,-2,-1,2,2,-11,3,0
13:50:28:711943,-2,7,0,-7,0,8,-2,-2
13:50:28:712760,-2,7,0,-7,0,8,-2,-2
13:50:28:718983,9,25,17,2,3,8,3,1
13:50:28:734542,8,-5,10,4,-6,-1,4,1
13:50:28:735300,8,-5,10,4,-6,-1,4,1
13:50:28:741312,-7,0,1,-10,-1,3,5,-1
13:50:28:748884,-16,-23,-7,2,-13,-3,-4,-4
13:50:28:756326,-16,-23,-7,2,-13,-3,-4,-4
13:50:28:763826,-8,-10,4,37,9,0,1,-1
13:50:28:772112,-18,-19,2,-6,3,9,0,-5
13:50:28:772829,-18,-19,2,-6,3,9,0,-5
13:50:28:778747,1,7,0,-6,-8,0,2,2
13:50:28:794463,5,-2,5,9,4,2,-1,-3
13:50:28:795275,5,-2,5,9,4,2,-1,-3
13:50:28:801320,-8,-26,-16,-3,5,-2,2,0
13:50:28:808809,1,-9,0,1,7,9,-6,-2
13:50:28:816386,1,-9,0,1,7,9,-6,-2
13:50:28:823774,-3,-19,5,1,-1,-9,-2,-5
13:50:28:832114,12,9,2,4,-4,-5,2,3
13:50:28:832792,12,9,2,4,-4,-5,2,3
13:50:28:838897,-4,6,-8,-14,-4,-6,-7,-1
13:50:28:854609,0,19,16,-10,-7,-6,-2,-4
13:50:28:855278,0,19,16,-10,-7,-6,-2,-4
13:50:28:861259,-9,-1,6,-9,-2,4,4,2
13:50:28:868817,4,6,9,-1,-5,-1,1,3
13:50:28:876301,4,6,9,-1,-5,-1,1,3
13:50:28:883853,9,-4,-10,-11,-1,-3,-1,-3
13:50:28:892040,14,17,-1,13,0,4,-3,-1
13:50:28:892797,14,17,-1,13,0,4,-3,-1
13:50:28:898867,20,11,10,-6,4,6,-8,-3
13:50:28:914518,20,-10,-10,-22,-3,-15,1,1
13:50:28:915288,20,-10,-10,-22,-3,-15,1,1
13:50:28:921340,2,10,0,-6,-12,-9,-7,-7
13:50:28:928773,-5,8,-14,0,4,-1,-4,-8
13:50:28:936451,-5,8,-14,0,4,-1,-4,-8
13:50:28:943757,-6,-3,-2,12,14,-1,4,2
13:50:28:952093,-16,-14,4,6,7,-6,-2,0
13:50:28:952812,-16,-14,4,6,7,-6,-2,0
13:50:28:958845,24,-2,-4,-13,-13,-17,-8,0
13:50:28:974568,2,-26,-13,-8,-1,-3,-1,-1
13:50:28:975379,2,-26,-13,-8,-1,-3,-1,-1
13:50:28:981293,-10,1,9,12,-8,-2,0,3
13:50:28:988831,-39,12,8,15,2,2,1,-1
13:50:28:996352,-39,12,8,15,2,2,1,-1
13:50:29:3858,-22,2,13,6,-1,-5,-1,1
13:50:29:11957,4,-19,-19,-4,-7,-9,-6,0
13:50:29:12769,4,-19,-19,-4,-7,-9,-6,0
13:50:29:18885,8,3,6,-1,-3,-1,10,-3
13:50:29:34463,3,3,-1,-3,-2,2,3,1
13:50:29:35270,3,3,-1,-3,-2,2,3,1
13:50:29:41340,7,4,-9,-6,3,2,-6,0
13:50:29:48914,-3,0,-1,8,-2,-5,8,3
13:50:29:56380,-3,0,-1,8,-2,-5,8,3
13:50:29:63786,-15,-3,-2,7,5,10,9,-5
13:50:29:72054,-15,-3,-2,7,5,10,9,-5
13:50:29:72803,-5,1,3,-3,6,4,7,2
13:50:29:78747,-9,4,-16,-4,-14,-3,-5,0
13:50:29:94503,-9,4,-16,-4,-14,-3,-5,0
13:50:29:95283,-3,-2,-4,-5,-3,1,-7,-4
13:50:29:101345,-6,2,5,0,5,-10,3,1
13:50:29:117030,-6,2,5,0,5,-10,3,1
13:50:29:117736,3,9,22,1,5,-2,2,0
13:50:29:123806,5,2,-5,2,-2,-13,-3,-3
13:50:29:132124,5,2,-5,2,-2,-13,-3,-3
13:50:29:132789,-7,-6,-7,-8,-4,-6,-10,-4
13:50:29:138867,-10,-15,-19,-3,-2,4,0,1
13:50:29:154596,-10,-15,-19,-3,-2,4,0,1
13:50:29:155265,-3,4,-9,10,2,-3,-2,0
13:50:29:161286,-15,-3,1,1,-13,0,-11,-4
13:50:29:177083,-15,-3,1,1,-13,0,-11,-4
13:50:29:177798,3,5,2,-8,-14,-6,0,0
13:50:29:183836,3,3,10,6,9,2,-5,1
13:50:29:192012,3,3,10,6,9,2,-5,1
13:50:29:192797,-2,1,-1,3,-7,-7,-6,-2
13:50:29:198937,0,-9,-2,-3,0,-2,3,-2
13:50:29:214473,0,-9,-2,-3,0,-2,3,-2
13:50:29:215280,8,9,-8,-5,5,2,5,1
13:50:29:221372,4,4,6,8,1,1,-1,3
13:50:29:237147,4,4,6,8,1,1,-1,3
13:50:29:237884,-11,11,-6,3,7,4,5,2
13:50:29:243769,-2,-1,-5,-8,-9,-2,1,0
13:50:29:252051,-2,-1,-5,-8,-9,-2,1,0
13:50:29:252739,-6,-17,2,-3,4,15,0,-4
13:50:29:258812,0,-5,1,13,5,7,2,1
13:50:29:274577,0,-5,1,13,5,7,2,1
13:50:29:275303,-2,7,7,9,-5,3,-4,-3
13:50:29:281325,-5,0,6,-11,3,4,-3,0
13:50:29:297074,-5,0,6,-11,3,4,-3,0
13:50:29:297764,5,-11,1,-12,-5,0,-9,0
13:50:29:303920,-2,-3,-8,-8,-8,-9,-9,-3
13:50:29:312081,-2,-3,-8,-8,-8,-9,-9,-3
13:50:29:312850,-2,5,1,4,1,-7,-13,-4
13:50:29:318833,12,2,1,-4,3,-1,4,1
13:50:29:334535,12,2,1,-4,3,-1,4,1
13:50:29:335339,-4,-4,3,-11,-19,-18,-5,-4
13:50:29:341315,-2,-11,-4,31,16,19,6,3
13:50:29:357082,-2,-11,-4,31,16,19,6,3
13:50:29:357788,10,20,12,18,8,16,11,6
13:50:29:363756,-5,-3,-3,-15,-13,-8,-5,-6
13:50:29:372170,-5,-3,-3,-15,-13,-8,-5,-6
13:50:29:372813,-5,-16,-23,-2,0,-3,4,-2
13:50:29:378741,5,5,-12,-12,-6,-5,-1,-1
13:50:29:394536,5,5,-12,-12,-6,-5,-1,-1
13:50:29:395305,3,-5,-4,-18,-3,-3,3,2
13:50:29:401255,-2,-4,-7,-6,-1,-1,3,-5
13:50:29:417103,-2,-4,-7,-6,-1,-1,3,-5
13:50:29:417699,0,-2,-3,5,-6,-5,-5,-2
13:50:29:423822,-9,-1,-3,-2,-1,-4,-2,-3
13:50:29:432124,-9,-1,-3,-2,-1,-4,-2,-3
13:50:29:432800,14,1,2,-1,10,19,8,4
13:50:29:438863,1,-24,3,6,-2,0,5,2
13:50:29:454566,1,-24,3,6,-2,0,5,2
13:50:29:455271,6,29,1,-1,-2,-10,-7,0
13:50:29:461254,-10,12,7,1,7,-8,-2,-5
13:50:29:477032,-10,12,7,1,7,-8,-2,-5
13:50:29:477766,-7,-1,-4,-16,-5,-10,-1,-5
13:50:29:483878,-8,-3,-1,-6,1,1,-2,3
13:50:29:492091,-8,-3,-1,-6,1,1,-2,3
13:50:29:492753,-4,-7,-12,1,3,2,-4,-4
13:50:29:506346,11,2,-15,-11,-10,-2,4,6
13:50:29:514504,11,2,-15,-11,-10,-2,4,6
13:50:29:515317,-5,-7,11,12,6,7,-2,3
13:50:29:521347,1,-3,-7,7,-1,-1,-1,-1
13:50:29:537126,1,-3,-7,7,-1,-1,-1,-1
13:50:29:537773,-4,-5,12,-11,-5,-8,-2,-1
13:50:29:543796,-3,5,1,-8,-22,-48,-21,-3
13:50:29:552060,-3,5,1,-8,-22,-48,-21,-3
13:50:29:552815,-9,9,0,13,13,3,6,-2
13:50:29:566332,-1,-21,6,-2,-1,3,4,-3
13:50:29:574526,-1,-21,6,-2,-1,3,4,-3
13:50:29:575272,10,-2,10,-17,-19,-7,-3,-5
13:50:29:581271,3,3,-12,6,5,-3,-5,-2
13:50:29:596984,3,3,-12,6,5,-3,-5,-2
13:50:29:597761,3,-11,-10,-12,5,5,11,4
13:50:29:603887,1,12,-4,0,2,7,2,-3
13:50:29:611823,1,12,-4,0,2,7,2,-3
13:50:29:618807,-6,-13,6,8,3,-5,0,-3
13:50:29:626274,-13,-6,-4,-6,-2,4,5,0
13:50:29:634536,-13,-6,-4,-6,-2,4,5,0
13:50:29:635325,1,-3,-15,3,0,-3,3,-3
13:50:29:641299,5,7,24,-3,-3,12,7,6
13:50:29:648962,5,7,24,-3,-3,12,7,6
13:50:29:656299,1,5,-1,1,1,2,2,-2
13:50:29:663779,9,13,8,0,10,6,-11,-1
13:50:29:672090,9,13,8,0,10,6,-11,-1
13:50:29:672826,0,8,0,-1,-2,9,8,-3
13:50:29:686386,6,-1,-6,3,1,3,-7,0
13:50:29:694523,6,-1,-6,3,1,3,-7,0
13:50:29:695312,-10,-11,-7,1,-4,-18,-9,-3
13:50:29:701339,12,-3,10,10,9,15,19,0
13:50:29:708897,12,-3,10,10,9,15,19,0
13:50:29:716368,2,2,5,1,-3,1,-4,-2
13:50:29:723815,-8,-3,1,-12,-4,-2,5,3
13:50:29:732074,-8,-3,1,-12,-4,-2,5,3
13:50:29:732770,-10,-14,-6,8,-5,-2,-3,0
13:50:29:746270,-5,-10,-5,-9,-2,6,-5,-6
13:50:29:754590,-5,-10,-5,-9,-2,6,-5,-6
13:50:29:755336,-3,-6,-9,-15,-7,-12,-4,-2
13:50:29:761262,6,-4,-5,8,-1,2,-2,0
13:50:29:768893,6,-4,-5,8,-1,2,-2,0
13:50:29:776331,3,-3,-6,-1,-6,-8,-5,-3
13:50:29:783882,4,9,-5,8,21,13,-1,-2
13:50:29:792008,4,9,-5,8,21,13,-1,-2
13:50:29:792799,10,3,5,-11,-8,1,-1,4
13:50:29:806309,-4,5,3,-9,-5,-6,2,1
13:50:29:814524,-4,5,3,-9,-5,-6,2,1
13:50:29:815287,-8,-10,-8,-9,-4,-11,0,2
13:50:29:821393,-2,-1,6,-1,3,21,15,2
13:50:29:828827,-2,-1,6,-1,3,21,15,2
13:50:29:836350,-6,-19,-21,3,0,-3,0,3
13:50:29:843786,-5,-1,3,2,-5,-23,-12,-8
13:50:29:852031,-5,-1,3,2,-5,-23,-12,-8
13:50:29:852773,13,14,9,2,12,26,8,0
13:50:29:866381,-5,-6,-15,-4,-1,-6,2,-1
13:50:29:874537,-5,-6,-15,-4,-1,-6,2,-1
13:50:29:875270,-1,-14,7,2,-5,-3,4,0
13:50:29:881286,-7,7,13,2,-12,-7,-2,-4
13:50:29:888826,-7,7,13,2,-12,-7,-2,-4
13:50:29:896266,-4,6,-2,-1,4,-5,-20,-6
13:50:29:903830,1,-8,-17,-16,-7,-8,-11,-3
13:50:29:912077,1,-8,-17,-16,-7,-8,-11,-3
13:50:29:912803,9,8,4,8,15,19,-2,3
13:50:29:926306,-8,-2,-7,-2,-3,1,-7,6
13:50:29:934519,-8,-2,-7,-2,-3,1,-7,6
13:50:29:935315,-10,-9,-1,-19,3,-1,-12,4
13:50:29:941294,-3,13,6,-12,-2,-16,-2,4
13:50:29:948934,-3,13,6,-12,-2,-16,-2,4
13:50:29:956321,3,7,-5,-5,-10,-10,5,-6
13:50:29:963806,14,21,2,-9,-2,2,0,-5
13:50:29:972137,14,21,2,-9,-2,2,0,-5
13:50:29:972798,2,-4,10,10,0,-5,11,-5
13:50:29:986343,-16,-28,-15,10,-5,-6,-8,-3
13:50:29:994548,-16,-28,-15,10,-5,-6,-8,-3
13:50:29:995318,0,9,0,0,1,10,-6,1
13:50:30:1320,0,-6,-3,9,3,2,4,-2
13:50:30:8883,0,-6,-3,9,3,2,4,-2
13:50:30:16426,-8,-2,-5,3,-4,-6,-3,-4
13:50:30:23814,3,10,2,1,-1,1,-4,-4
13:50:30:32089,3,10,2,1,-1,1,-4,-4
13:50:30:32759,3,17,6,2,1,-6,-7,-6
13:50:30:46303,-7,0,1,-6,-4,9,1,-3
13:50:30:54567,-7,0,1,-6,-4,9,1,-3
13:50:30:55296,-9,-26,-11,-11,-4,-9,-3,0
13:50:30:61253,-14,-18,-13,8,0,-15,2,-3
13:50:30:68908,-14,-18,-13,8,0,-15,2,-3
13:50:30:76303,5,-9,-20,8,5,24,18,5
13:50:30:83860,2,4,10,-6,-11,0,-1,-1
13:50:30:92033,2,4,10,-6,-11,0,-1,-1
13:50:30:92805,-2,-9,-1,2,0,-16,-13,-9
13:50:30:106315,0,-26,-11,-6,-1,-5,-3,-7
13:50:30:114486,0,-26,-11,-6,-1,-5,-3,-7
13:50:30:115362,2,6,6,-1,-7,5,-1,1
13:50:30:121378,6,19,6,0,6,13,5,3
13:50:30:128872,6,19,6,0,6,13,5,3
13:50:30:136365,3,-2,-4,-13,-11,-8,-1,2
13:50:30:143747,3,2,-5,-8,11,12,2,2
13:50:30:152079,3,2,-5,-8,11,12,2,2
13:50:30:152805,-7,5,3,2,-7,-7,-2,0
13:50:30:166428,-4,-11,2,6,7,4,7,2
13:50:30:174515,-4,-11,2,6,7,4,7,2
13:50:30:175260,-2,-9,7,2,-10,-12,-4,-1
13:50:30:181277,4,4,1,2,-11,-25,-11,2
13:50:30:188904,4,4,1,2,-11,-25,-11,2
13:50:30:196290,4,10,7,8,4,14,11,-4
13:50:30:203837,4,-1,2,-2,-5,-3,-4,-1
13:50:30:212082,4,-1,2,-2,-5,-3,-4,-1
13:50:30:212797,-6,10,-2,-3,-4,-16,-15,-1
13:50:30:226305,5,1,-11,7,3,2,5,0
13:50:30:234518,5,1,-11,7,3,2,5,0
13:50:30:235305,-8,-6,-6,-2,-1,2,-1,0
13:50:30:241307,3,-2,-7,12,7,-4,-5,-4
13:50:30:248981,3,-2,-7,12,7,-4,-5,-4
13:50:30:256289,-1,-16,-3,13,8,4,12,6
13:50:30:263776,-35,9,9,-9,-9,4,13,4
13:50:30:272146,-35,9,9,-9,-9,4,13,4
13:50:30:272788,-3,3,1,-9,2,-9,-9,-4
13:50:30:286362,15,-5,2,-2,2,-2,8,-6
13:50:30:294502,15,-5,2,-2,2,-2,8,-6
13:50:30:295310,20,13,1,1,-3,15,14,1
13:50:30:301280,-14,-24,-8,-11,-6,2,-12,2
13:50:30:308889,-14,-24,-8,-11,-6,2,-12,2
13:50:30:316375,0,-5,-20,-4,1,-10,-13,-1
13:50:30:323842,9,12,4,3,-8,-8,-5,-5
13:50:30:331888,9,12,4,3,-8,-8,-5,-5
13:50:30:338917,-5,8,2,-7,12,13,3,3
13:50:30:346323,5,15,11,0,8,-1,-3,-3
13:50:30:354580,5,15,11,0,8,-1,-3,-3
13:50:30:355276,-6,-18,-18,-14,-4,-12,-1,-8
13:50:30:361265,7,-2,1,5,5,2,-3,-1
13:50:30:368889,7,-2,1,5,5,2,-3,-1
13:50:30:376286,-5,-4,3,4,3,1,-1,0
13:50:30:383844,7,11,-15,2,4,10,3,2
13:50:30:392076,7,11,-15,2,4,10,3,2
13:50:30:392827,-2,5,7,7,2,5,0,6
13:50:30:406271,-1,-8,9,6,-1,-4,-3,-6
13:50:30:414502,-1,-8,9,6,-1,-4,-3,-6
13:50:30:415353,-3,-2,10,3,1,-1,-9,-6
13:50:30:429487,7,-3,-8,-15,0,-7,-8,-1
13:50:30:430332,7,-3,-8,-15,0,-7,-8,-1
13:50:30:436365,-1,-10,-9,-1,-7,-8,1,1
13:50:30:443758,4,5,-5,-4,-6,-2,3,1
13:50:30:451375,4,5,-5,-4,-6,-2,3,1
13:50:30:458827,0,4,-11,-10,-5,-2,1,-5
13:50:30:466359,-12,-13,-14,6,-6,-9,-5,-6
13:50:30:474575,-12,-13,-14,6,-6,-9,-5,-6
13:50:30:475315,3,10,5,-7,2,-11,1,-3
13:50:30:489527,-4,6,26,2,14,-11,1,-1
13:50:30:490317,-4,6,26,2,14,-11,1,-1
13:50:30:496279,-4,-14,0,2,10,4,-2,3
13:50:30:503885,0,7,9,-5,-9,5,-8,-1
13:50:30:511361,0,7,9,-5,-9,5,-8,-1
13:50:30:518831,8,31,18,6,-3,-5,-3,-1
13:50:30:526327,1,-7,4,-5,-2,3,1,2
13:50:30:534548,1,-7,4,-5,-2,3,1,2
13:50:30:535342,-17,-32,-14,-7,4,4,-2,-25
13:50:30:549575,-7,-5,-6,9,-3,0,0,-2
13:50:30:550298,-7,-5,-6,9,-3,0,0,-2
13:50:30:556277,-4,8,2,-6,-10,-5,3,-4
13:50:30:563783,0,-2,-9,-14,-7,-3,3,3
13:50:30:571427,0,-2,-9,-14,-7,-3,3,3
13:50:30:578830,0,4,-4,2,-6,-6,4,1
13:50:30:586387,-2,10,-1,0,-10,-14,-8,-8
13:50:30:594464,-2,10,-1,0,-10,-14,-8,-8
13:50:30:595294,4,16,17,5,-1,21,-7,2
13:50:30:609204,-1,-14,4,-1,7,3,5,2
13:50:30:617010,-1,-14,4,-1,7,3,5,2
13:50:30:617753,-3,-2,4,4,-1,-10,-10,10
13:50:30:623820,1,2,-3,-2,-3,-1,-3,1
13:50:30:631331,1,2,-3,-2,-3,-1,-3,1
13:50:30:638796,11,0,6,0,-4,1,0,-14
13:50:30:646307,9,22,10,0,2,1,6,-15
13:50:30:654562,9,22,10,0,2,1,6,-15
13:50:30:655253,-2,-5,-3,8,3,-4,1,-10
13:50:30:669555,-5,-4,15,-14,8,-1,-3,10
13:50:30:670308,-5,-4,15,-14,8,-1,-3,10
13:50:30:676289,-2,-4,-2,11,8,6,-6,21
13:50:30:683973,-1,-3,-8,7,-3,1,3,16
13:50:30:691370,-1,-3,-8,7,-3,1,3,16
13:50:30:698886,-8,-12,-14,-20,-27,-18,-12,0
13:50:30:706284,-6,-17,-4,2,6,5,-3,1
13:50:30:714514,-6,-17,-4,2,6,5,-3,1
13:50:30:715330,-2,8,0,3,-7,0,12,6
13:50:30:729466,-5,-18,-13,-11,-7,0,4,-6
13:50:30:730288,-5,-18,-13,-11,-7,0,4,-6
13:50:30:736310,5,-10,-19,-7,11,-6,-3,-3
13:50:30:743755,-3,3,1,12,2,-11,7,-6
13:50:30:751407,-3,3,1,12,2,-11,7,-6
13:50:30:758807,2,-3,-3,-6,15,-3,11,4
13:50:30:766328,-6,-2,-6,-9,-10,10,-1,3
13:50:30:774539,-6,-2,-6,-9,-10,10,-1,3
13:50:30:775315,-7,-17,7,3,3,0,-4,0
13:50:30:789526,1,-2,4,0,-17,-22,-4,-4
13:50:30:790314,1,-2,4,0,-17,-22,-4,-4
13:50:30:796272,4,20,7,10,4,17,14,8
13:50:30:803874,-2,-9,-15,7,9,2,-3,3
13:50:30:811360,-2,-9,-15,7,9,2,-3,3
13:50:30:818873,9,9,3,-1,-9,13,10,3
13:50:30:826282,7,14,6,-1,-77,1,-2,5
13:50:30:834530,7,14,6,-1,-77,1,-2,5
13:50:30:835303,6,-3,-10,-17,5,-1,-13,-6
13:50:30:849596,0,-20,-19,-6,62,-2,-8,-4
13:50:30:850321,0,-20,-19,-6,62,-2,-8,-4
13:50:30:856310,-1,5,21,4,35,-7,-13,-4
13:50:30:863783,-4,7,5,8,30,8,-2,-4
13:50:30:871419,-4,7,5,8,30,8,-2,-4
13:50:30:878833,-25,-8,-10,-13,-5,-7,9,-4
13:50:30:886348,-3,-1,8,0,2,7,-1,-4
13:50:30:894504,-3,-1,8,0,2,7,-1,-4
13:50:30:895322,6,2,-3,10,-5,5,6,-2
13:50:30:909530,1,-6,-2,-7,2,-11,-4,-1
13:50:30:910273,1,-6,-2,-7,2,-11,-4,-1
13:50:30:916474,-24,-23,2,0,-18,-12,-9,-3
13:50:30:923854,7,22,0,-11,-8,3,1,5
13:50:30:931342,7,22,0,-11,-8,3,1,5
13:50:30:938827,7,8,-4,0,-4,-6,6,1
13:50:30:946259,-9,1,-2,5,3,-8,2,-4
13:50:30:954651,-9,1,-2,5,3,-8,2,-4
13:50:30:955282,7,12,4,6,6,6,-4,-2
13:50:30:969596,3,-5,-6,15,2,-5,2,-4
13:50:30:970270,3,-5,-6,15,2,-5,2,-4
13:50:30:976286,0,-1,14,20,7,6,1,0
13:50:30:983900,-1,7,14,-2,-6,-1,11,0
13:50:30:991394,-1,7,14,-2,-6,-1,11,0
13:50:30:998911,-5,-1,-4,-5,-2,-3,-7,3
13:50:31:6335,-6,-23,-17,-16,-2,15,-1,-1
13:50:31:14514,-6,-23,-17,-16,-2,15,-1,-1
13:50:31:15318,-4,-6,-28,-18,1,-10,-8,-3
13:50:31:29520,26,12,15,-2,2,5,2,2
13:50:31:30317,26,12,15,-2,2,5,2,2
13:50:31:36365,16,-2,-2,-12,-14,5,8,-2
13:50:31:43748,-24,-20,0,4,0,-2,-6,-4
13:50:31:51409,-24,-20,0,4,0,-2,-6,-4
13:50:31:58791,-12,-21,-12,-2,-2,-13,-7,2
13:50:31:66339,-5,-8,-10,6,5,20,10,2
13:50:31:74541,-5,-8,-10,6,5,20,10,2
13:50:31:75291,1,2,2,9,4,-1,-3,1
13:50:31:89532,0,15,15,5,-4,-9,-8,-5
13:50:31:90340,0,15,15,5,-4,-9,-8,-5
13:50:31:96266,0,-7,-6,-2,-7,-3,-5,-5
13:50:31:103873,5,1,-19,-2,-7,-19,-9,4
13:50:31:111335,5,1,-19,-2,-7,-19,-9,4
13:50:31:118946,-2,0,1,13,7,-7,-6,-3
13:50:31:126316,3,-7,4,5,5,10,-3,-5
13:50:31:134516,3,-7,4,5,5,10,-3,-5
13:50:31:135251,-11,-5,17,6,-8,-8,14,-3
13:50:31:149618,-6,-1,-9,-3,16,6,-1,-2
13:50:31:150344,-6,-1,-9,-3,16,6,-1,-2
13:50:31:156324,1,8,-9,-12,-2,-4,-3,-4
13:50:31:172109,1,10,2,-9,-10,-11,2,-2
13:50:31:172853,1,10,2,-9,-10,-11,2,-2
13:50:31:178806,8,-9,-13,-8,-13,-1,8,0
13:50:31:186359,15,6,4,7,2,3,8,5
13:50:31:194555,15,6,4,7,2,3,8,5
13:50:31:195336,5,12,8,-6,0,3,-4,1
13:50:31:209535,-7,-15,-22,11,4,-8,-7,-6
13:50:31:210282,-7,-15,-22,11,4,-8,-7,-6
13:50:31:216369,3,-2,-11,3,-8,8,-1,0
13:50:31:223813,-4,-17,7,-9,1,8,-3,-2
13:50:31:231410,-4,-17,7,-9,1,8,-3,-2
13:50:31:238828,-5,2,-11,-4,-8,1,-11,-4
13:50:31:246264,-5,2,-24,-12,-4,-5,-3,-1
13:50:31:254587,-5,2,-24,-12,-4,-5,-3,-1
13:50:31:255285,-4,4,16,-4,-1,-10,-13,-3
13:50:31:269507,-4,-1,3,-4,-8,-17,-5,0
13:50:31:270281,-4,-1,3,-4,-8,-17,-5,0
13:50:31:276310,1,1,-1,8,14,-5,-1,-2
13:50:31:283870,-12,-9,-9,-6,-6,-13,-7,-6
13:50:31:291356,-12,-9,-9,-6,-6,-13,-7,-6
13:50:31:298964,-11,-10,7,-5,-6,0,2,-1
13:50:31:306384,-1,7,2,-3,4,6,3,0
13:50:31:314534,-1,7,2,-3,4,6,3,0
13:50:31:315290,-3,5,-12,2,3,-15,-6,-4
13:50:31:329521,-1,13,16,16,5,18,42,-2
13:50:31:330294,-1,13,16,16,5,18,42,-2
13:50:31:336433,11,11,1,-16,-7,12,15,3
13:50:31:343803,6,6,8,-12,-9,-6,-16,-3
13:50:31:351386,6,6,8,-12,-9,-6,-16,-3
13:50:31:358821,12,-5,2,3,3,-5,-8,0
13:50:31:366355,-11,-12,6,11,6,1,-10,0
13:50:31:373913,-11,-12,6,11,6,1,-10,0
13:50:31:381330,-5,-4,9,0,-17,-4,2,-4
13:50:31:389535,12,17,-5,8,11,21,9,0
13:50:31:390304,12,17,-5,8,11,21,9,0
13:50:31:396272,0,1,-2,3,5,-8,3,2
13:50:31:412028,-6,-13,-8,-18,-14,-16,-13,-3
13:50:31:412817,-6,-13,-8,-18,-14,-16,-13,-3
13:50:31:418886,-3,-7,-20,6,16,16,-3,-2
13:50:31:426306,-3,-3,-10,-11,-3,-13,-14,0
13:50:31:433958,-3,-3,-10,-11,-3,-13,-14,0
13:50:31:441321,1,8,7,4,-8,-2,-1,2
13:50:31:449595,7,-13,-5,-16,-8,-1,-7,1
13:50:31:450360,7,-13,-5,-16,-8,-1,-7,1
13:50:31:456338,-9,-7,1,7,15,3,1,0
13:50:31:472163,2,-10,1,0,-13,-3,1,3
13:50:31:472837,2,-10,1,0,-13,-3,1,3
13:50:31:478821,-2,-21,-8,-6,-4,4,-3,-2
13:50:31:486366,2,13,-3,-1,-2,-7,4,-1
13:50:31:493858,2,13,-3,-1,-2,-7,4,-1
13:50:31:501292,-10,-6,5,-2,4,13,5,-5
13:50:31:509459,-12,7,4,2,-1,-6,2,3
13:50:31:510298,-12,7,4,2,-1,-6,2,3
13:50:31:516410,3,2,-17,-31,-12,-10,-4,-4
13:50:31:532070,-8,-6,6,-6,9,-7,3,-3
13:50:31:532781,-8,-6,6,-6,9,-7,3,-3
13:50:31:538877,4,3,0,8,7,-7,1,-1
13:50:31:546281,-2,10,4,1,0,10,-7,-1
13:50:31:553911,-2,10,4,1,0,10,-7,-1
13:50:31:561328,0,13,2,-5,9,13,-1,0
13:50:31:569552,-5,-11,-1,2,2,-11,-4,-6
13:50:31:570288,-5,-11,-1,2,2,-11,-4,-6
13:50:31:576284,-4,-6,-2,7,-18,-11,5,3
13:50:31:591991,3,0,-1,16,16,6,-8,0
13:50:31:592837,3,0,-1,16,16,6,-8,0
13:50:31:598916,-1,-6,7,-11,-13,-9,-10,-3
13:50:31:606348,-6,-1,-7,1,-7,11,6,-2
13:50:31:613853,-6,-1,-7,1,-7,11,6,-2
13:50:31:621379,1,17,13,22,4,6,0,-4
13:50:31:629469,-9,4,19,-12,-8,-7,-2,-3
13:50:31:630300,-9,4,19,-12,-8,-7,-2,-3
13:50:31:636315,-4,-12,-16,-17,-7,-4,-1,4
13:50:31:652011,16,11,-19,8,4,4,9,3
13:50:31:652774,16,11,-19,8,4,4,9,3
13:50:31:658762,-6,0,11,3,-11,-2,-9,-3
13:50:31:666434,-6,-3,5,-9,-11,-3,-7,-1
13:50:31:673879,-6,-3,5,-9,-11,-3,-7,-1
13:50:31:681314,10,-6,-6,-1,10,0,10,2
13:50:31:689540,4,0,-1,4,-3,4,0,2
13:50:31:690337,4,0,-1,4,-3,4,0,2
13:50:31:696300,-2,-10,-9,3,6,-11,-7,1
13:50:31:711984,-2,-16,0,-9,-3,5,-2,0
13:50:31:712790,-2,-16,0,-9,-3,5,-2,0
13:50:31:718820,-5,18,9,-3,1,7,1,4
13:50:31:726285,-5,-6,-19,-18,-5,-4,3,0
13:50:31:733928,-5,-6,-19,-18,-5,-4,3,0
13:50:31:741320,0,14,12,-11,-9,-2,1,-5
13:50:31:749516,3,4,6,6,1,0,-5,1
13:50:31:750286,3,4,6,6,1,0,-5,1
13:50:31:756339,-1,0,-4,9,4,-11,-10,0
13:50:31:772088,16,17,5,2,8,6,18,3
13:50:31:772830,16,17,5,2,8,6,18,3
13:50:31:778812,-12,-23,-3,12,1,-1,-10,-4
13:50:31:786390,-3,-20,-14,1,4,8,-8,-1
13:50:31:793858,-3,-20,-14,1,4,8,-8,-1
13:50:31:801327,8,-6,1,3,1,-10,3,-1
13:50:31:809438,-11,-1,8,4,-6,-11,-4,-5
13:50:31:810259,-11,-1,8,4,-6,-11,-4,-5
13:50:31:816357,6,10,-5,-10,-13,1,5,7
13:50:31:831990,-5,6,-1,-7,-5,-7,-5,-5
13:50:31:832759,-5,6,-1,-7,-5,-7,-5,-5
13:50:31:838827,-7,-5,-7,-7,11,11,7,1
13:50:31:846276,-4,-13,1,-5,1,6,10,-1
13:50:31:853915,-4,-13,1,-5,1,6,10,-1
13:50:31:861267,1,-3,5,4,-7,-5,-4,-10
13:50:31:869600,5,-5,-6,6,4,0,-14,2
13:50:31:870280,5,-5,-6,6,4,0,-14,2
13:50:31:876298,6,3,0,-15,-2,1,-7,-1
13:50:31:892055,-13,-1,2,16,7,6,4,-4
13:50:31:892787,-13,-1,2,16,7,6,4,-4
13:50:31:898838,-9,-2,8,0,-5,1,-3,-6
13:50:31:906335,-7,-6,7,1,6,1,-5,-1
13:50:31:913894,-7,-6,7,1,6,1,-5,-1
13:50:31:921396,6,6,-4,-11,-1,4,8,5
13:50:31:929506,8,3,8,0,-9,-11,-8,5
13:50:31:930296,8,3,8,0,-9,-11,-8,5
13:50:31:936347,-8,-12,-8,0,8,-6,-8,-4
13:50:31:952058,-10,-1,-4,-1,4,0,1,-3
13:50:31:952779,-10,-1,-4,-1,4,0,1,-3
13:50:31:958782,0,-4,-14,4,-6,1,5,0
13:50:31:966341,-4,-12,-10,-8,-5,-7,-4,-8
13:50:31:973881,-4,-12,-10,-8,-5,-7,-4,-8
13:50:31:981312,5,0,1,7,0,0,-2,-7
13:50:31:989523,4,21,13,2,5,4,7,0
13:50:31:990329,4,21,13,2,5,4,7,0
13:50:31:996277,-7,5,-2,-4,0,0,-1,3
13:50:32:12048,0,-4,-13,-12,-5,-3,-2,0
13:50:32:12805,0,-4,-13,-12,-5,-3,-2,0
13:50:32:18889,1,-1,-9,-1,-4,1,-7,2
13:50:32:26316,5,9,2,-4,4,-4,3,1
13:50:32:33926,5,9,2,-4,4,-4,3,1
13:50:32:41349,-4,-8,12,0,-1,-9,-12,-3
13:50:32:49593,-2,14,7,2,-2,-7,4,0
13:50:32:50258,-2,14,7,2,-2,-7,4,0
13:50:32:56328,14,-10,-22,-19,-6,-1,17,0
13:50:32:72099,9,-9,-7,11,2,2,-4,0
13:50:32:72824,9,-9,-7,11,2,2,-4,0
13:50:32:78779,-1,4,-1,5,-2,3,1,4
13:50:32:86354,-1,-10,-17,-21,-4,-10,-1,3
13:50:32:93766,-1,-10,-17,-21,-4,-10,-1,3
13:50:32:101294,-5,-6,-13,12,24,19,6,-2
13:50:32:109469,-9,-9,12,7,-12,-2,-4,-5
13:50:32:110280,-9,-9,12,7,-12,-2,-4,-5
13:50:32:116346,-9,-4,22,0,0,-7,-4,-4
13:50:32:132086,3,-1,0,-1,-7,-4,-3,-3
13:50:32:132749,3,-1,0,-1,-7,-4,-3,-3
13:50:32:138944,0,6,-7,11,4,5,3,-4
13:50:32:146275,0,-3,-17,0,5,2,2,-2
13:50:32:153952,0,-3,-17,0,5,2,2,-2
13:50:32:161234,-8,13,18,6,-16,0,-3,0
13:50:32:169549,28,-6,1,-2,3,12,14,2
13:50:32:170286,28,-6,1,-2,3,12,14,2
13:50:32:176254,1,-7,-15,-13,-7,-9,0,7
13:50:32:192021,-27,-7,1,0,-11,-4,6,-2
13:50:32:192782,-27,-7,1,0,-11,-4,6,-2
13:50:32:198787,-8,9,9,-2,2,1,-1,-3
13:50:32:206285,-7,3,-8,-15,-4,-12,-9,-7
13:50:32:213840,-7,3,-8,-15,-4,-12,-9,-7
13:50:32:221353,1,14,2,4,4,-8,-1,2
13:50:32:229474,2,-4,-2,8,8,5,-4,3
13:50:32:230281,2,-4,-2,8,8,5,-4,3
13:50:32:236349,7,-9,1,6,8,1,-5,0
13:50:32:252033,-10,-5,11,-1,-3,-6,-7,1
13:50:32:252781,-10,-5,11,-1,-3,-6,-7,1
13:50:32:258808,5,-6,-5,-11,-3,-4,-11,-4
13:50:32:266385,2,11,-1,4,-2,2,-12,1
13:50:32:273904,2,11,-1,4,-2,2,-12,1
13:50:32:281301,3,-1,4,-2,-4,8,4,4
13:50:32:289532,-3,-2,-12,-29,-4,-17,-6,-4
13:50:32:290316,-3,-2,-12,-29,-4,-17,-6,-4
13:50:32:296278,-2,4,-5,-4,2,-2,9,-2
13:50:32:311997,1,3,-9,9,-2,6,8,-1
13:50:32:312794,1,3,-9,9,-2,6,8,-1
13:50:32:318892,1,18,3,-6,-9,-10,-3,0
13:50:32:334498,0,12,7,1,0,2,-2,0
13:50:32:335291,0,12,7,1,0,2,-2,0
13:50:32:341272,0,-9,-5,3,3,4,1,3
13:50:32:349627,-6,0,14,23,5,-4,-9,-7
13:50:32:350311,-6,0,14,23,5,-4,-9,-7
13:50:32:363731,-14,-9,2,-6,-1,-10,-24,-11
13:50:32:372056,-2,-10,5,1,-6,-2,7,5
13:50:32:372795,-2,-10,5,1,-6,-2,7,5
13:50:32:378732,-5,-5,-14,-8,0,-7,-2,-5
13:50:32:394490,-5,-5,-14,-8,0,-7,-2,-5
13:50:32:395269,3,5,-2,-6,-3,-5,-2,-1
13:50:32:401357,0,3,-17,-10,-5,-1,10,1
13:50:32:409503,0,3,-17,-10,-5,-1,10,1
13:50:32:410265,5,8,11,32,4,19,23,-1
13:50:32:423822,-2,-13,6,8,-4,-2,17,-3
13:50:32:432143,-2,-13,6,8,-4,-2,17,-3
13:50:32:432781,5,4,-2,-9,-2,2,5,-3
13:50:32:438879,0,-3,6,9,9,6,-2,2
13:50:32:454620,0,-3,6,9,9,6,-2,2
13:50:32:455278,0,-13,-10,-7,-3,1,-2,3
13:50:32:461224,-6,-2,-8,-3,1,-18,-19,-5
13:50:32:469574,-6,-2,-8,-3,1,-18,-19,-5
13:50:32:470330,-16,21,17,3,8,2,-10,-1
13:50:32:483914,0,-10,-2,-5,-8,-3,7,-3
13:50:32:492024,0,-10,-2,-5,-8,-3,7,-3
13:50:32:492829,3,-12,-14,-3,3,-2,-18,-2
13:50:32:498863,-4,-7,3,-3,2,-4,-7,-5
13:50:32:514560,-4,-7,3,-3,2,-4,-7,-5
13:50:32:515317,4,8,-4,-5,6,0,8,-4
13:50:32:521411,7,-15,0,18,2,10,5,-2
13:50:32:529499,7,-15,0,18,2,10,5,-2
13:50:32:530272,-5,7,0,-7,-9,-13,-5,-1
13:50:32:543822,-13,-3,-22,-16,-4,-4,-6,0
13:50:32:552090,-13,-3,-22,-16,-4,-4,-6,0
13:50:32:552815,-1,-13,11,9,5,-5,1,-3
13:50:32:558776,7,7,0,-4,0,11,2,-1
13:50:32:574503,7,7,0,-4,0,11,2,-1
13:50:32:575287,-3,-15,-15,-4,-10,-2,-5,-2
13:50:32:581317,-5,-4,7,8,1,-6,2,0
13:50:32:589488,-5,-4,7,8,1,-6,2,0
13:50:32:590246,7,2,-5,-6,-5,14,8,4
13:50:32:603892,12,29,13,-2,5,14,114,14
13:50:32:611981,12,29,13,-2,5,14,114,14
13:50:32:612753,-13,-21,-26,-18,-3,-11,16,-4
13:50:32:618908,2,4,8,3,0,-4,-117,0
13:50:32:634472,2,4,8,3,0,-4,-117,0
13:50:32:635283,17,9,2,5,14,11,-127,-1
13:50:32:641329,4,0,-7,-6,-3,1,-125,-1
13:50:32:649587,4,0,-7,-6,-3,1,-125,-1
13:50:32:650241,4,-11,-7,0,-14,-21,-72,-3
13:50:32:663801,-1,11,9,6,4,2,-22,-5
13:50:32:672078,-1,11,9,6,4,2,-22,-5
13:50:32:672739,7,8,9,7,17,9,-14,4
13:50:32:678876,-13,-3,-9,-10,-1,2,14,-5
13:50:32:694492,-13,-3,-9,-10,-1,2,14,-5
13:50:32:695309,-9,-14,1,-6,-8,2,23,3
13:50:32:701302,1,-9,6,-2,-9,0,6,-6
13:50:32:709526,1,-9,6,-2,-9,0,6,-6
13:50:32:710243,5,0,-9,-5,-16,-19,6,-5
13:50:32:723835,-12,-23,-1,13,12,9,0,1
13:50:32:732170,-12,-23,-1,13,12,9,0,1
13:50:32:732910,-6,3,-10,10,-4,-9,3,-1
13:50:32:738926,5,9,12,2,-6,-6,-3,0
13:50:32:754614,5,9,12,2,-6,-6,-3,0
13:50:32:755300,-1,7,20,-6,-4,-4,-1,-7
13:50:32:761252,-3,-8,-12,11,5,-5,-6,-3
13:50:32:769640,-3,-8,-12,11,5,-5,-6,-3
13:50:32:770350,-3,4,-2,1,-1,-6,-3,-3
13:50:32:783889,4,0,0,-9,-6,9,20,4
13:50:32:792079,4,0,0,-9,-6,9,20,4
13:50:32:792858,9,-11,4,-1,1,-2,9,-1
13:50:32:798888,0,7,-7,-8,-9,-8,5,2
13:50:32:814564,0,7,-7,-8,-9,-8,5,2
13:50:32:815301,-13,6,8,1,10,3,9,1
13:50:32:821376,-3,-18,-22,-12,-19,-16,-19,-12
13:50:32:829476,-3,-18,-22,-12,-19,-16,-19,-12
13:50:32:830274,-7,-1,0,1,1,11,2,1
13:50:32:843774,-4,-7,0,-14,-3,-9,-1,1
13:50:32:852076,-4,-7,0,-14,-3,-9,-1,1
13:50:32:852782,2,-4,-9,-9,-6,-10,-5,-4
13:50:32:858773,3,15,4,-4,4,0,-1,0
13:50:32:874496,3,15,4,-4,4,0,-1,0
13:50:32:875341,-3,-20,-12,-19,-3,-1,3,2
13:50:32:881307,8,12,11,5,1,4,0,-2
13:50:32:889539,8,12,11,5,1,4,0,-2
13:50:32:890281,4,-11,-1,9,11,4,-6,6
13:50:32:903870,-10,-4,-3,-6,4,7,0,2
13:50:32:912024,-10,-4,-3,-6,4,7,0,2
13:50:32:912768,-5,1,5,13,-6,-12,0,-6
13:50:32:918830,-5,-3,2,-7,-2,6,15,3
13:50:32:934486,-5,-3,2,-7,-2,6,15,3
13:50:32:935278,-1,18,4,-4,-6,-4,-1,1
13:50:32:941283,0,-4,-9,4,-1,-5,-7,4
13:50:32:949572,0,-4,-9,4,-1,-5,-7,4
13:50:32:950306,13,3,-2,-6,-3,2,3,-1
13:50:32:963754,2,25,14,1,-8,-6,4,-3
13:50:32:972061,2,25,14,1,-8,-6,4,-3
13:50:32:972775,-2,-17,-1,6,17,5,-1,4
13:50:32:978771,8,15,3,2,-2,-1,12,1
13:50:32:994506,8,15,3,2,-2,-1,12,1
13:50:32:995292,-11,5,-31,-10,-4,-3,2,-5
13:50:33:1294,-7,-17,-9,7,7,-2,-5,-7
13:50:33:9496,-7,-17,-9,7,7,-2,-5,-7
13:50:33:10293,7,3,0,-12,0,3,12,2
13:50:33:23875,-3,-9,4,4,-10,-3,-5,0
13:50:33:32142,-3,-9,4,4,-10,-3,-5,0
13:50:33:32842,4,6,3,8,-6,4,5,3
13:50:33:38764,0,5,5,-1,6,-2,-5,-3
13:50:33:54622,0,5,5,-1,6,-2,-5,-3
13:50:33:55270,-5,-3,14,6,-4,-4,-6,-4
13:50:33:61287,17,-8,0,0,-4,-5,-11,-1
13:50:33:69549,17,-8,0,0,-4,-5,-11,-1
13:50:33:70254,-3,-1,2,11,3,3,-15,-4
13:50:33:83868,-19,1,-6,1,-9,-15,4,-4
13:50:33:92030,-19,1,-6,1,-9,-15,4,-4
13:50:33:92803,-8,3,-7,-5,9,12,-1,-4
13:50:33:98979,-2,1,-11,-6,-7,4,2,0
13:50:33:114469,-2,1,-11,-6,-7,4,2,0
13:50:33:115280,-4,-18,-4,-5,-10,1,-11,-1
13:50:33:121368,2,0,-10,-10,3,-4,-11,-2
13:50:33:129482,2,0,-10,-10,3,-4,-11,-2
13:50:33:130257,4,1,-2,-14,-4,4,8,-5
13:50:33:143798,-9,-9,-10,6,11,-2,1,2
13:50:33:152074,-9,-9,-10,6,11,-2,1,2
13:50:33:152823,7,11,13,-14,2,-2,-2,-5
13:50:33:158823,1,-11,-8,6,3,29,36,10
13:50:33:174534,1,-11,-8,6,3,29,36,10
13:50:33:175349,-4,6,2,2,-6,-9,0,3
13:50:33:181316,1,-10,-2,-12,1,-12,-9,-3
13:50:33:189453,1,-10,-2,-12,1,-12,-9,-3
13:50:33:190265,1,-4,1,7,-9,-9,-2,-2
13:50:33:203847,-1,-28,8,-1,-5,4,2,-2
13:50:33:211995,-1,-28,8,-1,-5,4,2,-2
13:50:33:212712,-7,-9,1,-7,3,-7,-14,-6
13:50:33:218901,0,-2,16,8,16,8,-18,-2
13:50:33:234542,0,-2,16,8,16,8,-18,-2
13:50:33:235294,3,5,5,9,0,7,5,1
13:50:33:241309,5,17,6,-6,-4,18,12,0
13:50:33:249526,5,17,6,-6,-4,18,12,0
13:50:33:250260,-15,-7,-4,4,0,-2,0,-2
13:50:33:263795,0,11,-4,-1,0,-15,-2,3
13:50:33:272113,0,11,-4,-1,0,-15,-2,3
13:50:33:272824,-3,-11,-17,-12,2,-4,8,6
13:50:33:286343,-3,21,-7,-10,-3,-8,-9,-6
13:50:33:294556,-3,21,-7,-10,-3,-8,-9,-6
13:50:33:295291,10,9,-13,-5,-7,0,-3,-3
13:50:33:301309,-9,-16,-10,8,-1,4,13,-3
13:50:33:308882,-9,-16,-10,8,-1,4,13,-3
13:50:33:316373,5,20,6,6,-2,-5,-12,2
13:50:33:323819,7,7,-6,1,1,3,6,0
13:50:33:332102,7,7,-6,1,1,3,6,0
13:50:33:332753,-3,-17,0,6,-3,5,15,-1
13:50:33:346303,-3,-1,13,-5,-16,-19,-4,-5
13:50:33:354612,-3,-1,13,-5,-16,-19,-4,-5
13:50:33:355316,-8,-6,-2,-6,5,-5,1,0
13:50:33:361268,-4,-21,-1,9,7,6,8,1
13:50:33:368866,-4,-21,-1,9,7,6,8,1
13:50:33:376343,-11,-6,-18,-6,-9,-6,-5,-4
13:50:33:383832,-10,-21,-1,-12,-10,-10,-20,-4
13:50:33:392016,-10,-21,-1,-12,-10,-10,-20,-4
13:50:33:392807,6,-3,1,-4,14,8,0,-3
13:50:33:415305,3,7,-3,-3,2,7,8,2
13:50:33:415983,3,7,-3,-3,2,7,8,2
13:50:33:416776,1,-2,-7,-6,-1,1,-8,-1
13:50:33:421367,4,19,9,-15,-3,-6,-8,1
13:50:33:437110,4,19,9,-15,-3,-6,-8,1
13:50:33:437783,-4,3,5,3,-8,-5,-1,-4
13:50:33:443762,-4,-10,-2,-7,-4,-10,-3,-3
13:50:33:452091,-4,-10,-2,-7,-4,-10,-3,-3
13:50:33:452827,-3,-1,2,12,-6,-9,5,-3
13:50:33:466337,3,3,-6,7,9,3,-18,0
13:50:33:474566,3,3,-6,7,9,3,-18,0
13:50:33:475334,0,6,13,11,23,13,6,0
13:50:33:481347,3,1,4,8,-2,6,4,-2
13:50:33:488944,3,1,4,8,-2,6,4,-2
13:50:33:496272,0,15,5,-2,-11,-6,-6,-2
13:50:33:503838,2,6,3,3,1,-20,-24,-4
13:50:33:511961,2,6,3,3,1,-20,-24,-4
13:50:33:512800,9,-5,-15,-4,-5,8,8,0
13:50:33:526309,11,-2,-17,-5,-3,-15,-3,2
13:50:33:534464,11,-2,-17,-5,-3,-15,-3,2
13:50:33:535284,4,-1,4,18,11,4,-2,1
13:50:33:541331,-6,5,3,-23,4,-4,-6,-5
13:50:33:548910,-6,5,3,-23,4,-4,-6,-5
13:50:33:556338,0,-5,10,-1,-4,-7,-5,-2
13:50:33:563813,-8,6,6,9,-2,12,13,-2
13:50:33:572079,-8,6,6,9,-2,12,13,-2
13:50:33:572769,-4,1,9,0,-2,4,-4,1
13:50:33:586435,5,-9,4,7,-3,-6,-3,-2
13:50:33:594483,5,-9,4,7,-3,-6,-3,-2
13:50:33:595297,1,-11,-5,-2,2,-5,-1,1
13:50:33:601345,-2,7,1,5,-2,7,1,-1
13:50:33:608832,-2,7,1,5,-2,7,1,-1
13:50:33:616401,-7,-2,-5,-13,-10,-12,0,-3
13:50:33:623806,9,-21,6,15,0,2,1,0
13:50:33:639469,9,-21,6,15,0,2,1,0
13:50:33:640265,-6,-13,1,1,2,-2,12,6
13:50:33:646309,7,-14,-19,8,1,16,20,2
13:50:33:654613,7,-14,-19,8,1,16,20,2
13:50:33:655278,7,0,0,1,1,3,13,1
13:50:33:661266,-20,0,-18,-4,6,-2,-2,-5
13:50:33:668938,-20,0,-18,-4,6,-2,-2,-5
13:50:33:676279,-1,6,4,-5,-10,-5,-11,2
13:50:33:692637,3,-10,-1,-1,0,-9,-4,-5
13:50:33:693451,3,-10,-1,-1,0,-9,-4,-5
13:50:33:694270,-11,-16,-20,-9,-5,-11,-4,-1
13:50:33:706317,0,6,15,3,9,7,-2,3
13:50:33:714462,0,6,15,3,9,7,-2,3
13:50:33:715333,-1,11,11,-4,-11,-10,0,-2
13:50:33:721307,3,19,9,-10,-18,-9,-4,1
13:50:33:728799,3,19,9,-10,-18,-9,-4,1
13:50:33:736325,3,4,-14,3,8,17,10,2
13:50:33:743753,-18,-18,-13,-7,-6,-11,-9,-2
13:50:33:752058,-18,-18,-13,-7,-6,-11,-9,-2
13:50:33:752801,-3,8,14,-6,-3,-6,-8,-4
13:50:33:766331,8,27,-7,13,3,5,5,1
13:50:33:774515,8,27,-7,13,3,5,5,1
13:50:33:775265,5,-7,-4,-6,-2,1,8,-1
13:50:33:781275,2,-1,6,9,-4,-15,-6,2
13:50:33:788929,2,-1,6,9,-4,-15,-6,2
13:50:33:796262,3,10,5,6,6,16,1,0
13:50:33:803843,-5,-4,-5,-15,6,4,21,-3
13:50:33:812078,-5,-4,-5,-15,6,4,21,-3
13:50:33:812820,-4,-8,-12,-11,-10,-11,-8,1
13:50:33:826317,-7,1,-4,-6,-9,-4,-18,0
13:50:33:834523,-7,1,-4,-6,-9,-4,-18,0
13:50:33:835303,-5,-26,6,5,0,-7,-7,-4
13:50:33:841282,6,5,1,4,-6,-9,3,-3
13:50:33:848973,6,5,1,4,-6,-9,3,-3
13:50:33:856353,7,8,7,19,12,-1,1,1
13:50:33:863783,8,0,4,-11,-5,-3,1,-3
13:50:33:872065,8,0,4,-11,-5,-3,1,-3
13:50:33:872782,-5,-10,0,0,-11,1,-1,-2
13:50:33:886372,-2,1,8,9,3,13,-5,0
13:50:33:894539,-2,1,8,9,3,13,-5,0
13:50:33:895292,4,14,-14,-5,-4,-7,3,0
13:50:33:901319,10,9,3,-1,-6,-3,-1,2
13:50:33:908869,10,9,3,-1,-6,-3,-1,2
13:50:33:916380,0,4,19,-2,0,4,-6,0
13:50:33:923851,-14,-8,-3,5,16,6,8,-6
13:50:33:932104,-14,-8,-3,5,16,6,8,-6
13:50:33:932758,2,8,2,-2,1,-4,0,-4
13:50:33:946282,-2,5,9,5,-6,0,-3,2
13:50:33:954525,-2,5,9,5,-6,0,-3,2
13:50:33:955239,-6,-5,-11,12,1,-7,-3,-3
13:50:33:961272,-11,-23,-14,0,12,9,3,-3
13:50:33:969016,-11,-23,-14,0,12,9,3,-3
13:50:33:976234,-1,-17,-9,-12,0,1,-2,-3
13:50:33:983947,-1,-7,-5,-6,8,-5,-4,-2
13:50:33:992009,-1,-7,-5,-6,8,-5,-4,-2
13:50:33:992777,0,-4,7,-2,10,5,7,1
13:50:34:6321,-6,-11,4,-3,-9,-6,-13,-2
13:50:34:14509,-6,-11,4,-3,-9,-6,-13,-2
13:50:34:15291,-8,10,-5,-7,-8,-10,-8,-1
13:50:34:21353,-7,-5,-3,4,6,5,-1,1
13:50:34:28829,-7,-5,-3,4,6,5,-1,1
13:50:34:36360,-2,-12,-23,-6,-5,-2,-2,-4
13:50:34:43726,3,6,-9,9,7,-2,0,3
13:50:34:52040,3,6,-9,9,7,-2,0,3
13:50:34:52826,0,-2,0,15,6,-1,-2,-1
13:50:34:66378,-4,-5,5,-7,-10,5,2,3
13:50:34:74555,-4,-5,5,-7,-10,5,2,3
13:50:34:75271,1,7,-1,-12,-7,-8,-3,-2
13:50:34:81276,0,0,1,-5,0,-15,-4,-5
13:50:34:88927,0,0,1,-5,0,-15,-4,-5
13:50:34:96244,-6,-3,3,7,-15,1,-3,-5
13:50:34:103858,-1,1,-3,2,7,1,3,-1
13:50:34:112021,-1,1,-3,2,7,1,3,-1
13:50:34:112790,2,3,-15,-6,1,2,4,1
13:50:34:126286,-4,0,5,-14,-11,-14,-3,-6
13:50:34:134484,-4,0,5,-14,-11,-14,-3,-6
13:50:34:135312,2,2,5,2,15,9,12,1
13:50:34:141308,3,0,-3,3,-2,11,-3,3
13:50:34:148948,3,0,-3,3,-2,11,-3,3
13:50:34:156329,-4,8,25,2,-5,-10,-7,0
13:50:34:163791,5,8,-7,-12,-2,-1,5,0
13:50:34:172028,5,8,-7,-12,-2,-1,5,0
13:50:34:172782,-8,0,-22,-12,-2,-1,-14,-2
13:50:34:186817,-1,-12,6,2,-3,-1,-5,-2
13:50:34:194503,-1,-12,6,2,-3,-1,-5,-2
13:50:34:195318,2,-2,-6,0,4,1,-2,3
13:50:34:201295,-7,0,-11,-13,-9,-13,-4,-4
13:50:34:208823,-7,0,-11,-13,-9,-13,-4,-4
13:50:34:216389,-3,-6,6,4,1,2,-3,-2
13:50:34:223837,7,2,3,5,-1,18,7,-1
13:50:34:231354,7,2,3,5,-1,18,7,-1
13:50:34:238838,0,6,-8,-12,10,13,1,1
13:50:34:246323,16,18,8,-5,-2,-5,-2,-1
13:50:34:254545,16,18,8,-5,-2,-5,-2,-1
13:50:34:255275,-1,39,22,5,-11,-9,1,-2
13:50:34:269590,-6,-9,7,6,-2,-2,-2,3
13:50:34:270262,-6,-9,7,6,-2,-2,-2,3
13:50:34:276250,7,-20,-2,4,0,3,3,3
13:50:34:283830,6,35,12,8,7,-2,-1,0
13:50:34:291351,6,35,12,8,7,-2,-1,0
13:50:34:298928,-4,-2,-4,-4,-4,-8,-2,-2
13:50:34:306288,-7,-12,-7,-6,1,7,0,-8
13:50:34:314536,-7,-12,-7,-6,1,7,0,-8
13:50:34:315342,-5,-13,-14,-7,-3,-2,3,-1
13:50:34:329443,-10,-7,-10,-4,-6,-11,5,-2
13:50:34:330245,-10,-7,-10,-4,-6,-11,5,-2
13:50:34:336336,-6,-8,-7,-11,-2,2,3,2
13:50:34:343763,-5,-10,-8,-5,-5,-16,-12,5
13:50:34:351341,-5,-10,-8,-5,-5,-16,-12,5
13:50:34:358833,-5,-13,12,15,-13,-6,3,1
13:50:34:366394,7,3,-4,15,6,0,0,4
13:50:34:374536,7,3,-4,15,6,0,0,4
13:50:34:375318,6,11,9,1,-5,-6,-8,-5
13:50:34:389513,1,7,2,2,-3,7,14,-1
13:50:34:390292,1,7,2,2,-3,7,14,-1
13:50:34:396241,5,4,0,-3,6,0,-1,-2
13:50:34:403854,-3,-6,-12,-7,-2,9,16,-4
13:50:34:411348,-3,-6,-12,-7,-2,9,16,-4
13:50:34:418837,13,8,6,15,6,4,10,0
13:50:34:426303,-8,-5,9,-1,-25,-12,-12,2
13:50:34:434476,-8,-5,9,-1,-25,-12,-12,2
13:50:34:435269,-2,16,3,-12,0,-8,-3,-2
13:50:34:449611,0,-17,4,-1,9,-7,-4,-7
13:50:34:450362,0,-17,4,-1,9,-7,-4,-7
13:50:34:456309,-4,-7,-10,-6,-9,1,-7,1
13:50:34:463769,-1,7,-7,17,-6,-4,-6,-3
13:50:34:471384,-1,7,-7,17,-6,-4,-6,-3
13:50:34:478771,5,-23,-16,-6,4,3,12,-1
13:50:34:486400,-20,-18,-6,-16,-12,-10,-7,-12
13:50:34:494268,-20,-18,-6,-16,-12,-10,-7,-12
13:50:34:501266,-5,10,-3,2,3,-6,-20,-8
13:50:34:509502,2,-17,4,-9,7,3,-3,-3
13:50:34:510265,2,-17,4,-9,7,3,-3,-3
13:50:34:516385,-8,0,4,-4,-9,-4,1,-1
13:50:34:523785,12,3,0,-3,10,16,5,-1
13:50:34:531364,12,3,0,-3,10,16,5,-1
13:50:34:538916,5,-6,3,12,11,3,7,4
13:50:34:546259,3,-3,-5,2,-2,-1,0,5
13:50:34:554587,3,-3,-5,2,-2,-1,0,5
13:50:34:555292,-13,-10,-4,-9,-3,0,-2,-5
13:50:34:569558,-3,-5,-9,-7,1,-3,-2,-2
13:50:34:570320,-3,-5,-9,-7,1,-3,-2,-2
13:50:34:576298,-1,-5,-1,3,-3,11,-6,-1
13:50:34:583806,-1,-6,-18,7,16,1,-2,6
13:50:34:591394,-1,-6,-18,7,16,1,-2,6
13:50:34:598983,10,9,4,-8,-4,-1,6,5
13:50:34:606357,0,11,10,-4,0,-5,-11,0
13:50:34:614483,0,11,10,-4,0,-5,-11,0
13:50:34:615277,-8,-1,-2,-7,-3,3,2,-3
13:50:34:629532,4,8,-12,-7,-11,-4,-7,-3
13:50:34:630314,4,8,-12,-7,-11,-4,-7,-3
13:50:34:636411,5,7,2,-1,4,-7,-3,-4
13:50:34:643830,0,9,10,-5,-5,-10,3,-4
13:50:34:651335,0,9,10,-5,-5,-10,3,-4
13:50:34:658856,-1,-18,-2,-15,-9,-10,-1,-4
13:50:34:666401,10,15,18,10,15,14,9,9
13:50:34:674535,10,15,18,10,15,14,9,9
13:50:34:675241,-1,3,-2,-4,-6,-6,-9,0
13:50:34:689489,-9,-11,-6,-3,-3,-3,7,-1
13:50:34:690274,-9,-11,-6,-3,-3,-3,7,-1
13:50:34:696283,-5,10,-1,13,13,13,0,0
13:50:34:703879,-1,-12,2,13,-9,-7,0,-2
13:50:34:711335,-1,-12,2,13,-9,-7,0,-2
13:50:34:718771,-4,-8,2,-2,-1,-1,1,-2
13:50:34:726312,0,-2,-2,-11,-6,4,10,2
13:50:34:734538,0,-2,-2,-11,-6,4,10,2
13:50:34:735297,-3,-10,-6,4,5,-4,-9,3
13:50:34:749558,1,7,6,-1,-8,3,-1,-8
13:50:34:750280,1,7,6,-1,-8,3,-1,-8
13:50:34:756259,-2,3,0,6,2,-8,0,-1
13:50:34:763759,6,-2,-3,-10,-7,-10,-14,-2
13:50:34:771388,6,-2,-3,-10,-7,-10,-14,-2
13:50:34:778764,-5,4,3,-4,-5,-10,-3,-4
13:50:34:786338,-5,0,3,8,13,2,-13,0
13:50:34:794508,-5,0,3,8,13,2,-13,0
13:50:34:795287,-1,-6,-9,-9,-2,-4,-1,-6
13:50:34:809464,0,-6,-16,-12,-5,-6,-7,1
13:50:34:810263,0,-6,-16,-12,-5,-6,-7,1
13:50:34:816388,3,4,1,6,2,13,1,-2
13:50:34:823787,-10,5,5,-3,-8,-3,4,-2
13:50:34:831396,-10,5,5,-3,-8,-3,4,-2
13:50:34:838817,7,9,13,7,6,12,3,-1
13:50:34:846263,-3,2,22,1,-4,-2,9,-2
13:50:34:854631,-3,2,22,1,-4,-2,9,-2
13:50:34:855374,0,-1,2,-8,-8,-4,7,4
13:50:34:869575,1,-12,-4,7,1,11,4,-1
13:50:34:870303,1,-12,-4,7,1,11,4,-1
13:50:34:876262,1,-9,-11,-6,-5,-9,3,1
13:50:34:883783,7,-3,-10,1,1,-9,-6,-2
13:50:34:891393,7,-3,-10,1,1,-9,-6,-2
13:50:34:898838,-9,0,-15,-11,-6,1,-6,-6
13:50:34:906333,-7,7,9,0,-2,-5,-9,-2
13:50:34:914496,-7,7,9,0,-2,-5,-9,-2
13:50:34:915304,-5,3,5,-5,-4,-8,-4,4
13:50:34:929454,1,3,4,3,4,8,5,-6
13:50:34:930275,1,3,4,3,4,8,5,-6
13:50:34:936358,5,6,-4,12,5,4,-1,-1
13:50:34:943777,-2,19,-1,-4,10,8,4,2
13:50:34:951375,-2,19,-1,-4,10,8,4,2
13:50:34:958867,-10,-6,8,7,-2,-2,-7,3
13:50:34:966378,3,-9,-2,-10,-2,-6,-1,-1
13:50:34:974506,3,-9,-2,-10,-2,-6,-1,-1
13:50:34:975259,5,-8,-23,-5,-3,0,4,-1
13:50:34:989430,-3,13,-3,15,7,-3,4,3
13:50:34:990277,-3,13,-3,15,7,-3,4,3
13:50:34:996291,4,13,0,6,11,-11,-3,-1
13:50:35:3876,-4,-10,-10,-8,0,8,-7,-5
13:50:35:11367,-4,-10,-10,-8,0,8,-7,-5
13:50:35:18815,-5,-4,6,-7,-9,-4,-1,1
13:50:35:26297,1,-8,-6,-12,-7,-5,0,3
13:50:35:34539,1,-8,-6,-12,-7,-5,0,3
13:50:35:35283,9,10,2,1,3,0,-6,-2
13:50:35:49276,-1,-8,-9,4,3,8,15,4
13:50:35:56991,-1,-8,-9,4,3,8,15,4
13:50:35:57791,2,1,4,0,7,2,4,3
13:50:35:63737,-8,-2,-8,-4,-4,-9,-6,-4
13:50:35:71395,-8,-2,-8,-4,-4,-9,-6,-4
13:50:35:78778,0,0,-5,2,8,15,5,3
13:50:35:86324,-1,-8,1,-12,-1,1,2,4
13:50:35:94513,-1,-8,1,-12,-1,1,2,4
13:50:35:95339,-6,-30,-15,-5,-6,-6,8,0
13:50:35:109520,19,3,-24,-9,-5,-4,9,3
13:50:35:110296,19,3,-24,-9,-5,-4,9,3
13:50:35:116397,-9,-1,14,1,3,-6,-11,-8
13:50:35:123850,5,3,5,3,-5,-1,2,1
13:50:35:131377,5,3,5,3,-5,-1,2,1
13:50:35:138915,0,2,6,2,1,16,6,0
13:50:35:146268,3,17,4,1,0,-2,-17,-2
13:50:35:153944,3,17,4,1,0,-2,-17,-2
13:50:35:161302,-13,-21,-10,-6,-13,-16,-20,-8
13:50:35:169559,-3,-15,-4,15,8,7,3,-3
13:50:35:170263,-3,-15,-4,15,8,7,3,-3
13:50:35:176311,-7,-17,-17,-12,-6,-9,5,0
13:50:35:191963,-10,-8,7,2,-3,-6,-5,-2
13:50:35:192776,-10,-8,7,2,-3,-6,-5,-2
13:50:35:198971,-1,10,3,-2,-7,-6,0,-2
13:50:35:206349,2,4,-4,7,7,14,11,-1
13:50:35:213809,2,4,-4,7,7,14,11,-1
13:50:35:221369,6,19,9,2,-1,12,32,3
13:50:35:229429,-13,-13,-2,-22,-15,-3,-5,-4
13:50:35:230281,-13,-13,-2,-22,-15,-3,-5,-4
13:50:35:236281,6,-2,4,11,15,11,5,0
13:50:35:252030,5,5,7,-8,-6,-3,-4,-8
13:50:35:252800,5,5,7,-8,-6,-3,-4,-8
13:50:35:258806,-1,2,4,-5,-6,-8,-9,-2
13:50:35:266366,29,2,-8,3,2,-7,-8,8
13:50:35:273846,29,2,-8,3,2,-7,-8,8
13:50:35:281264,8,3,5,4,-4,-3,-2,-1
13:50:35:289485,-19,10,6,10,8,-4,24,5
13:50:35:290302,-19,10,6,10,8,-4,24,5
13:50:35:296268,-10,7,14,2,-3,-3,-17,-3
13:50:35:312015,1,40,6,-2,-1,-1,-10,0
13:50:35:312770,1,40,6,-2,-1,-1,-10,0
13:50:35:318780,-10,-17,-9,-1,-4,-12,-6,-1
13:50:35:326248,-1,-12,-3,10,-3,-6,-11,-4
13:50:35:333867,-1,-12,-3,10,-3,-6,-11,-4
13:50:35:341309,8,6,-10,-5,3,11,-6,3
13:50:35:349571,-10,-15,-3,1,-1,-7,-3,-4
13:50:35:350288,-10,-15,-3,1,-1,-7,-3,-4
13:50:35:356286,8,2,-7,-2,2,-1,3,-5
13:50:35:372044,-4,-7,4,-6,-1,9,11,-3
13:50:35:372772,-4,-7,4,-6,-1,9,11,-3
13:50:35:378786,1,2,-25,-4,-8,-5,6,-2
13:50:35:386369,-8,-2,4,1,-7,-4,-11,-6
13:50:35:393850,-8,-2,4,1,-7,-4,-11,-6
13:50:35:401300,-11,5,4,2,-6,1,-2,3
13:50:35:409500,-7,-3,-18,5,-1,-1,-8,-4
13:50:35:410295,-7,-3,-18,5,-1,-1,-8,-4
13:50:35:416372,2,-1,3,-1,1,-8,-2,-4
13:50:35:432101,5,-7,11,4,-3,1,4,-1
13:50:35:432822,5,-7,11,4,-3,1,4,-1
13:50:35:438989,-5,12,19,5,-2,5,10,-2
13:50:35:446252,0,-16,-23,-10,1,-11,-3,-4
13:50:35:453973,0,-16,-23,-10,1,-11,-3,-4
13:50:35:461290,2,11,5,3,6,5,6,5
13:50:35:469506,-1,15,5,0,0,11,-3,3
13:50:35:470289,-1,15,5,0,0,11,-3,3
13:50:35:476319,-13,-16,-5,-1,-4,-11,-13,-4
13:50:35:491989,5,-8,-2,-7,2,2,-5,-3
13:50:35:492776,5,-8,-2,-7,2,2,-5,-3
13:50:35:498833,1,-19,-12,-2,2,-2,-7,1
13:50:35:506368,-14,-16,1,-3,-4,-14,-7,-3
13:50:35:513819,-14,-16,1,-3,-4,-14,-7,-3
13:50:35:521385,3,-5,-4,-3,3,-8,0,-5
13:50:35:529473,8,9,-7,-4,6,6,-2,0
13:50:35:530280,8,9,-7,-4,6,6,-2,0
13:50:35:536352,10,2,2,1,1,5,1,0
13:50:35:552003,-4,-9,-9,-8,-3,-1,11,-7
13:50:35:552760,-4,-9,-9,-8,-3,-1,11,-7
13:50:35:558738,-6,-11,-12,-13,-5,-7,-7,-6
13:50:35:566360,1,-2,1,-3,-2,-14,-2,-2
13:50:35:573864,1,-2,1,-3,-2,-14,-2,-2
13:50:35:581258,0,24,9,0,4,12,1,-2
13:50:35:589489,-9,9,10,-6,-2,1,4,0
13:50:35:590286,-9,9,10,-6,-2,1,4,0
13:50:35:596256,-1,-10,-26,1,-1,-6,3,2
13:50:35:612453,-4,-10,-6,-2,-4,-4,-2,-1
13:50:35:613231,-4,-10,-6,-2,-4,-4,-2,-1
13:50:35:618807,5,5,13,-8,-7,1,-3,-7
13:50:35:626291,5,-6,3,4,8,-2,-3,-1
13:50:35:633860,5,-6,3,4,8,-2,-3,-1
13:50:35:641311,0,-21,-2,-3,-2,-4,-8,0
13:50:35:649553,-4,7,18,2,-8,-14,-14,1
13:50:35:650307,-4,7,18,2,-8,-14,-14,1
13:50:35:656296,-10,7,12,3,2,1,-4,3
13:50:35:672054,-11,-13,-6,-10,-13,-7,0,-1
13:50:35:672781,-11,-13,-6,-10,-13,-7,0,-1
13:50:35:678764,3,-8,-31,-9,-5,1,7,6
13:50:35:686361,6,5,-8,3,9,10,3,3
13:50:35:693857,6,5,-8,3,9,10,3,3
13:50:35:701297,12,23,2,6,-3,-4,5,-1
13:50:35:709470,12,23,2,6,-3,-4,5,-1
13:50:35:710275,7,31,6,-5,-6,4,0,-2
13:50:35:716457,-4,-12,4,7,12,7,-9,1
13:50:35:732115,-4,-12,4,7,12,7,-9,1
13:50:35:732861,-11,-5,11,5,2,4,6,3
13:50:35:738897,4,3,-1,-10,-15,-6,16,3
13:50:35:754592,4,3,-1,-10,-15,-6,16,3
13:50:35:755304,5,5,5,8,2,4,-3,2
13:50:35:761285,-4,-1,12,5,2,-6,-3,-9
13:50:35:769585,-4,-1,12,5,2,-6,-3,-9
13:50:35:770311,5,3,2,5,20,10,1,4
13:50:35:776309,-1,-7,4,-4,6,13,2,2
13:50:35:792019,-1,-7,4,-4,6,13,2,2
13:50:35:792794,5,-12,-8,-4,-13,-15,-8,-4
13:50:35:798879,-12,-15,2,-5,3,-3,-6,2
13:50:35:814518,-12,-15,2,-5,3,-3,-6,2
13:50:35:815308,3,6,-6,-9,-6,-4,4,0
13:50:35:821387,5,16,-7,-13,-2,8,-5,-6
13:50:35:829522,5,16,-7,-13,-2,8,-5,-6
13:50:35:830276,-17,-26,-11,-5,-2,-6,3,-4
13:50:35:836357,-9,-4,-1,-4,0,-6,4,-5
13:50:35:852103,-9,-4,-1,-4,0,-6,4,-5
13:50:35:852810,12,-8,-1,5,2,2,7,3
13:50:35:858794,7,-8,2,0,-13,-10,-9,-5
13:50:35:874539,7,-8,2,0,-13,-10,-9,-5
13:50:35:875322,-6,3,11,15,6,-5,-11,-2
13:50:35:881304,-7,-6,-13,3,5,6,-8,-2
13:50:35:889501,-7,-6,-13,3,5,6,-8,-2
13:50:35:890337,-1,8,-15,-3,5,12,-5,2
13:50:35:896282,4,7,-7,-2,-12,-16,-2,4
13:50:35:912012,4,7,-7,-2,-12,-16,-2,4
13:50:35:912756,-10,-11,-2,0,2,1,-6,-5
13:50:35:918833,-3,19,7,11,9,19,2,7
13:50:35:934519,-3,19,7,11,9,19,2,7
13:50:35:935320,4,11,4,-1,-8,-6,1,-6
13:50:35:941287,-3,0,17,17,-6,-17,-3,-3
13:50:35:949567,-3,0,17,17,-6,-17,-3,-3
13:50:35:950309,-3,20,-4,-11,4,-2,3,1
13:50:35:956298,5,-4,-6,-6,1,0,9,2
13:50:35:972079,5,-4,-6,-6,1,0,9,2
13:50:35:972752,3,-11,-3,3,-13,10,19,3
13:50:35:978774,-15,-22,-9,-2,0,-6,-5,-3
13:50:35:994494,-15,-22,-9,-2,0,-6,-5,-3
13:50:35:995263,-6,0,0,-8,-3,-1,-5,-5
13:50:36:1339,0,5,10,1,-1,-3,1,0
13:50:36:9518,0,5,10,1,-1,-3,1,0
13:50:36:10269,-10,-30,-7,-3,-2,-6,-10,0
13:50:36:16364,-6,-9,7,-5,-7,-14,-10,-6
13:50:36:32113,-6,-9,7,-5,-7,-14,-10,-6
13:50:36:32787,6,-4,-4,8,-1,2,-3,-3
13:50:36:38864,-11,7,-95,-3,15,2,-2,-7
13:50:36:54573,-11,7,-95,-3,15,2,-2,-7
13:50:36:55295,10,5,-32,-5,-1,-4,-8,1
13:50:36:61275,-2,-7,-6,2,-3,10,10,2
13:50:36:69560,-2,-7,-6,2,-3,10,10,2
13:50:36:70268,-9,-4,-32,-3,-8,4,10,-4
13:50:36:76243,5,2,4,-7,-4,-3,-12,-5
13:50:36:92009,5,2,4,-7,-4,-3,-12,-5
13:50:36:92780,-7,-9,35,8,2,-19,-1,-4
13:50:36:98958,8,-5,44,-2,-1,5,6,2
13:50:36:114542,8,-5,44,-2,-1,5,6,2
13:50:36:115356,-5,-7,26,-7,3,-2,-5,-1
13:50:36:121351,8,-2,18,-9,-1,-6,-6,-3
13:50:36:129445,8,-2,18,-9,-1,-6,-6,-3
13:50:36:130247,2,2,22,5,-3,0,3,-4
13:50:36:143798,2,2,16,3,-4,-6,-3,3
13:50:36:151994,2,2,16,3,-4,-6,-3,3
13:50:36:152751,-3,-15,0,11,-3,4,0,-2
13:50:36:166428,-7,-3,-9,-15,-4,-10,-33,-10
13:50:36:174546,-7,-3,-9,-15,-4,-10,-33,-10
13:50:36:175301,-3,-5,-4,-7,-5,-9,-19,2
13:50:36:181278,5,0,14,15,10,5,13,1
13:50:36:189501,5,0,14,15,10,5,13,1
13:50:36:190233,5,23,-7,-7,2,4,5,4
13:50:36:203876,-3,-10,-1,-2,-9,-1,6,4
13:50:36:212037,-3,-10,-1,-2,-9,-1,6,4
13:50:36:212803,-2,1,18,5,-8,4,10,-1
13:50:36:218815,3,9,2,1,6,7,6,-8
13:50:36:234548,3,9,2,1,6,7,6,-8
13:50:36:235275,10,11,19,7,1,-11,-2,3
13:50:36:241307,-3,-6,-3,-12,1,8,20,3
13:50:36:249568,-3,-6,-3,-12,1,8,20,3
13:50:36:250272,-6,-6,-27,-10,0,0,-7,-1
13:50:36:263764,-4,0,9,8,-6,-15,13,2
13:50:36:272078,-4,0,9,8,-6,-15,13,2
13:50:36:272810,2,1,-1,2,18,5,-12,-1
13:50:36:278792,0,-13,-8,1,2,7,8,1
13:50:36:286446,0,-13,-8,1,2,7,8,1
13:50:36:293781,-8,-6,-11,-6,-4,2,-8,-3
13:50:36:301277,9,-5,-10,-13,1,-4,-13,2
13:50:36:309519,9,-5,-10,-13,1,-4,-13,2
13:50:36:310289,-7,-20,8,-5,-3,-2,9,-1
13:50:36:323830,-10,14,12,-1,-3,-6,-3,-5
13:50:36:332153,-10,14,12,-1,-3,-6,-3,-5
13:50:36:332832,-9,0,0,-3,5,-8,6,-8
13:50:36:338815,2,-6,9,6,6,10,-10,3
13:50:36:346310,2,-6,9,6,6,10,-10,3
13:50:36:353890,3,10,-9,-1,-16,14,2,4
13:50:36:361279,-2,10,3,5,1,8,0,3
13:50:36:369570,-2,10,3,5,1,8,0,3
13:50:36:370318,12,3,8,-10,-1,-16,-1,0
13:50:36:383849,-1,-2,-20,2,-4,-15,-6,-2
13:50:36:392012,-1,-2,-20,2,-4,-15,-6,-2
13:50:36:392823,-3,23,-15,-6,1,4,2,0
13:50:36:398815,1,-9,-3,-5,-1,3,0,1
13:50:36:406360,1,-9,-3,-5,-1,3,0,1
13:50:36:413790,-11,-24,-6,13,7,9,7,-1
13:50:36:421348,0,-17,-16,-14,-5,5,6,0
13:50:36:429474,0,-17,-16,-14,-5,5,6,0
13:50:36:430274,-9,3,-2,-2,-12,-9,-1,4
13:50:36:443826,3,4,-2,0,4,-9,4,-5
13:50:36:452076,3,4,-2,0,4,-9,4,-5
13:50:36:452750,12,4,3,-6,-2,-13,-23,-6
13:50:36:458775,-5,-2,-7,1,0,-6,6,2
13:50:36:466423,-5,-2,-7,1,0,-6,6,2
13:50:36:473796,-8,4,14,3,-4,2,-3,-6
13:50:36:481264,2,25,2,-20,-3,-5,2,-2
13:50:36:489566,2,25,2,-20,-3,-5,2,-2
13:50:36:490355,0,3,-9,6,-1,1,-3,2
13:50:36:503880,-7,10,-6,-4,-6,-3,-5,-6
13:50:36:512039,-7,10,-6,-4,-6,-3,-5,-6
13:50:36:512801,9,7,4,-11,-1,5,1,-1
13:50:36:518930,-12,-24,-12,4,3,12,-11,-5
13:50:36:534554,-12,-24,-12,4,3,12,-11,-5
13:50:36:535305,2,-3,10,-1,10,5,25,6
13:50:36:541321,-4,-27,2,3,-9,-4,10,2
13:50:36:549605,-4,-27,2,3,-9,-4,10,2
13:50:36:550300,11,4,-4,-7,-4,3,-7,-5
13:50:36:563771,-9,-13,16,7,-4,-14,-15,-7
13:50:36:572080,-9,-13,16,7,-4,-14,-15,-7
13:50:36:572790,0,16,0,3,7,-2,5,-2
13:50:36:578761,6,4,8,-4,-6,-9,-3,3
13:50:36:586426,6,4,8,-4,-6,-9,-3,3
13:50:36:593774,0,-3,0,17,1,-1,-5,1
13:50:36:601278,-4,1,0,-10,-3,2,0,-3
13:50:36:609536,-4,1,0,-10,-3,2,0,-3
13:50:36:610267,0,-11,11,-1,-9,-15,-14,-1
13:50:36:623799,1,18,-7,7,14,16,16,8
13:50:36:632029,1,18,-7,7,14,16,16,8
13:50:36:632779,-6,-16,-17,2,-2,-2,4,0
13:50:36:638798,5,-3,-3,8,-16,2,-8,-6
13:50:36:646319,5,-3,-3,8,-16,2,-8,-6
13:50:36:653893,-5,-5,-5,4,-1,0,8,-32
13:50:36:661289,9,25,13,-1,-6,-10,-3,-64
13:50:36:669564,9,25,13,-1,-6,-10,-3,-64
13:50:36:670270,0,-16,-17,-15,-1,-6,0,24
13:50:36:683843,-4,-19,-9,-11,5,8,-9,44
13:50:36:692023,-4,-19,-9,-11,5,8,-9,44
13:50:36:692801,-6,9,-15,2,3,12,-3,33
13:50:36:698929,-3,9,-2,13,6,-8,-3,9
13:50:36:706350,-3,9,-2,13,6,-8,-3,9
13:50:36:713784,-11,3,5,13,-6,-9,3,-7
13:50:36:721383,-8,-7,5,-27,-20,-11,-7,10
13:50:36:729447,-8,-7,5,-27,-20,-11,-7,10
13:50:36:730295,-5,-17,-11,-22,3,3,2,-3
13:50:36:743800,-7,-34,-14,3,-4,1,2,-1
13:50:36:752029,-7,-34,-14,3,-4,1,2,-1
13:50:36:752726,6,4,0,-5,-11,-7,1,-6
13:50:36:758820,-4,-14,-20,-2,12,-2,-8,-9
13:50:36:766378,-4,-14,-20,-2,12,-2,-8,-9
13:50:36:773802,-4,2,0,3,0,-6,-4,-4
13:50:36:781240,5,17,-12,15,13,13,8,-1
13:50:36:789535,5,17,-12,15,13,13,8,-1
13:50:36:790290,10,8,7,-17,7,-1,7,0
13:50:36:803857,1,17,3,-1,1,5,-7,4
13:50:36:812002,1,17,3,-1,1,5,-7,4
13:50:36:812749,1,-4,7,3,5,16,7,-3
13:50:36:818803,-10,-10,-11,-1,-4,15,1,-1
13:50:36:834489,-10,-10,-11,-1,-4,15,1,-1
13:50:36:835266,4,1,4,5,9,-8,0,-4
13:50:36:841297,87,6,17,24,0,-4,6,1
13:50:36:849573,87,6,17,24,0,-4,6,1
13:50:36:850281,125,-48,2,2,-9,3,-11,-6
13:50:36:863783,-23,-9,-12,-12,-7,-7,-7,-8
13:50:36:872038,-23,-9,-12,-12,-7,-7,-7,-8
13:50:36:872796,-80,20,8,2,-2,-3,-5,2
13:50:36:878778,-68,3,19,13,-2,0,2,3
13:50:36:886396,-68,3,19,13,-2,0,2,3
13:50:36:893739,-71,-8,-18,0,-5,-9,-2,-6
13:50:36:901283,-44,21,7,-1,8,-11,-15,9
13:50:36:909514,-44,21,7,-1,8,-11,-15,9
13:50:36:910294,-37,19,2,-10,-11,-5,-13,0
13:50:36:923837,-13,-10,10,-1,3,-8,-5,-13
13:50:36:932080,-13,-10,10,-1,3,-8,-5,-13
13:50:36:932775,-21,20,8,-2,0,1,-7,-10
13:50:36:938813,-4,-12,2,-12,-11,-17,-8,-4
13:50:36:946359,-4,-12,2,-12,-11,-17,-8,-4
13:50:36:953830,-4,17,1,13,8,10,6,-1
13:50:36:961279,2,8,2,-19,0,10,8,4
13:50:36:969630,2,8,2,-19,0,10,8,4
13:50:36:970288,6,7,-11,-1,5,1,1,4
13:50:36:983827,-7,-2,-1,7,0,0,-7,-4
13:50:36:992019,-7,-2,-1,7,0,0,-7,-4
13:50:36:992822,4,5,9,-10,-7,-13,-12,-4
13:50:36:998995,5,-17,-18,-3,1,10,7,-6
13:50:37:6383,5,-17,-18,-3,1,10,7,-6
13:50:37:13788,8,-21,2,19,3,0,7,-27
13:50:37:21362,11,0,3,-6,-3,0,1,-13
13:50:37:29454,11,0,3,-6,-3,0,1,-13
13:50:37:30230,-4,-18,-20,-19,-1,-9,-3,8
13:50:37:43770,-1,-15,-4,-6,-2,-5,-2,9
13:50:37:52106,-1,-15,-4,-6,-2,-5,-2,9
13:50:37:52807,6,13,3,-10,-11,-4,-16,6
13:50:37:67007,-20,-3,1,-4,-19,-8,6,7
13:50:37:67828,-20,-3,1,-4,-19,-8,6,7
13:50:37:73791,-13,2,5,5,5,4,1,3
13:50:37:81331,11,13,-15,-2,5,-7,14,7
13:50:37:88906,11,13,-15,-2,5,-7,14,7
13:50:37:96291,4,0,11,7,1,-7,-6,5
13:50:37:103837,2,-6,15,-6,-8,-19,-13,-5
13:50:37:111993,2,-6,15,-6,-8,-19,-13,-5
13:50:37:112731,0,-23,-28,-1,-3,12,8,2
13:50:37:126984,2,-1,-2,-8,-6,-6,-5,-1
13:50:37:127808,2,-1,-2,-8,-6,-6,-5,-1
13:50:37:133858,2,-6,7,0,-11,-2,1,-3
13:50:37:141294,7,-28,-21,15,6,13,11,0
13:50:37:148886,7,-28,-21,15,6,13,11,0
13:50:37:156320,4,-5,-3,-9,-1,-7,3,-1
13:50:37:163793,-5,9,12,10,-1,4,-7,-1
13:50:37:172047,-5,9,12,10,-1,4,-7,-1
13:50:37:172784,1,-3,-10,8,24,13,-1,-4
13:50:37:186990,-7,3,-1,0,-9,-17,-23,-5
13:50:37:187731,-7,3,-1,0,-9,-17,-23,-5
13:50:37:193798,-2,0,-1,-1,-6,-13,0,5
13:50:37:201282,10,19,0,-5,1,-6,-5,0
13:50:37:208853,10,19,0,-5,1,-6,-5,0
13:50:37:216352,11,52,6,-8,-2,-3,-2,-4
13:50:37:223760,-2,-8,14,7,7,2,2,-3
13:50:37:231988,-2,-8,14,7,7,2,2,-3
13:50:37:232769,-4,-39,2,-4,-8,3,0,-4
13:50:37:246976,4,11,6,5,0,3,-1,-5
13:50:37:247754,4,11,6,5,0,3,-1,-5
13:50:37:253807,8,-4,0,-15,3,-12,1,-2
13:50:37:261244,0,-17,-4,-10,4,3,29,-5
13:50:37:276986,0,-17,-4,-10,4,3,29,-5
13:50:37:277727,-9,1,14,14,4,10,26,4
13:50:37:283807,2,8,2,2,-3,8,-3,3
13:50:37:292002,2,8,2,2,-3,8,-3,3
13:50:37:292779,5,14,-9,2,-2,11,-11,2
13:50:37:306958,-3,11,4,0,0,2,-10,5
13:50:37:307760,-3,11,4,0,0,2,-10,5
13:50:37:313775,-1,-2,-4,6,1,6,0,-5
13:50:37:321344,11,11,-5,3,4,-3,5,-1
13:50:37:328815,11,11,-5,3,4,-3,5,-1
13:50:37:336326,-10,1,10,-9,1,-4,4,1
13:50:37:343747,6,6,-3,-8,5,5,15,1
13:50:37:352048,6,6,-3,-8,5,5,15,1
13:50:37:352780,3,-9,-15,-19,-4,-10,-7,-6
13:50:37:367042,-13,-14,5,33,15,6,7,0
13:50:37:367774,-13,-14,5,33,15,6,7,0
13:50:37:373774,-3,8,3,9,-4,1,-4,1
13:50:37:381235,4,24,7,3,-4,-6,-17,1
13:50:37:388860,4,24,7,3,-4,-6,-17,1
13:50:37:396259,-3,-1,15,7,6,6,-4,-3
13:50:37:403828,8,-7,3,-2,-2,0,-1,-2
13:50:37:412019,8,-7,3,-2,-2,0,-1,-2
13:50:37:412795,4,11,6,7,9,15,7,-2
13:50:37:426276,-10,-28,-6,11,5,15,5,4
13:50:37:434528,-10,-28,-6,11,5,15,5,4
13:50:37:435295,2,-7,2,4,-9,-18,-3,-2
13:50:37:441270,1,-1,3,0,5,-1,2,-2
13:50:37:448956,1,-1,3,0,5,-1,2,-2
13:50:37:456253,-1,-5,-8,-5,2,9,-10,-3
13:50:37:463780,1,4,-16,-8,7,-9,-13,-9
13:50:37:472081,1,4,-16,-8,7,-9,-13,-9
13:50:37:472823,6,-10,-15,-7,-12,-10,-2,-1
13:50:37:487114,6,-1,0,-11,-3,2,-5,2
13:50:37:487785,6,-1,0,-11,-3,2,-5,2
13:50:37:493734,-7,-19,-4,-2,1,-1,-16,1
13:50:37:501247,-10,-1,-11,0,-12,-6,7,0
13:50:37:508907,-10,-1,-11,0,-12,-6,7,0
13:50:37:516394,-11,-8,-4,-2,2,-6,-8,-1
13:50:37:523833,-1,10,3,-5,-7,-2,-5,-4
13:50:37:532158,-1,10,3,-5,-7,-2,-5,-4
13:50:37:532795,-1,2,10,3,-2,-11,15,-4
13:50:37:546999,0,-15,6,-9,-2,5,-2,-6
13:50:37:547799,0,-15,6,-9,-2,5,-2,-6
13:50:37:553908,-3,-13,-7,-3,-9,-4,12,-1
13:50:37:561270,2,-2,-11,-12,-9,-2,-5,-1
13:50:37:568896,2,-2,-11,-12,-9,-2,-5,-1
13:50:37:576311,0,21,8,-2,0,-12,-8,1
13:50:37:583836,-10,-5,-2,12,6,1,-5,-2
13:50:37:591992,-10,-5,-2,12,6,1,-5,-2
13:50:37:592772,2,-16,-8,-6,4,3,-5,1
13:50:37:607011,9,16,4,-4,-7,-4,-9,0
13:50:37:607778,9,16,4,-4,-7,-4,-9,0
13:50:37:613760,-2,2,6,6,-3,4,-5,0
13:50:37:621425,-3,-5,2,-5,6,3,4,0
13:50:37:628819,-3,-5,2,-5,6,3,4,0
13:50:37:636350,-8,-18,-18,-14,1,4,6,-3
13:50:37:643700,-8,15,-2,-10,-4,-9,0,-5
13:50:37:652015,-8,15,-2,-10,-4,-9,0,-5
13:50:37:652775,-2,-1,1,2,-5,15,-5,-6
13:50:37:667036,-4,-26,-16,-15,-7,-11,-7,-1
13:50:37:667813,-4,-26,-16,-15,-7,-11,-7,-1
13:50:37:673775,6,5,-9,6,3,4,-4,8
13:50:37:681290,3,1,-1,3,-10,-15,-31,-7
13:50:37:688868,3,1,-1,3,-10,-15,-31,-7
13:50:37:696290,5,5,17,-2,-2,-15,-16,-3
13:50:37:703861,-12,-11,15,-4,4,10,2,8
13:50:37:712034,-12,-11,15,-4,4,10,2,8
13:50:37:712790,-10,9,-12,-2,-1,-2,-16,-2
13:50:37:727028,3,3,-12,-5,-1,7,6,0
13:50:37:727774,3,3,-12,-5,-1,7,6,0
13:50:37:733853,10,16,-2,-3,-4,-7,12,6
13:50:37:741296,-3,7,11,-6,-8,-1,1,-3
13:50:37:748881,-3,7,11,-6,-8,-1,1,-3
13:50:37:756326,-6,-1,2,3,-7,-11,4,-3
13:50:37:763768,29,33,3,-1,10,4,19,9
13:50:37:772044,29,33,3,-1,10,4,19,9
13:50:37:772781,-4,-18,-10,3,6,-5,12,-4
13:50:37:787060,-5,5,-17,-6,-8,-8,7,-2
13:50:37:787806,-5,5,-17,-6,-8,-8,7,-2
13:50:37:793790,-6,2,3,-4,-1,2,2,-1
13:50:37:801305,0,-5,-8,9,4,1,12,0
13:50:37:808835,0,-5,-8,9,4,1,12,0
13:50:37:816345,0,-2,-10,-14,-6,1,6,-1
13:50:37:823833,-5,-2,-11,-7,6,-13,-7,-3
13:50:37:831984,-5,-2,-11,-7,6,-13,-7,-3
13:50:37:832756,2,-7,-5,3,2,8,17,2
13:50:37:846935,1,-14,-10,6,3,0,-8,1
13:50:37:847751,1,-14,-10,6,3,0,-8,1
13:50:37:853866,-20,-7,0,4,-5,-5,-8,-7
13:50:37:861277,-6,-12,11,14,4,-2,9,-1
13:50:37:868884,-6,-12,11,14,4,-2,9,-1
13:50:37:876250,5,16,9,-2,-1,-3,1,0
13:50:37:883775,-10,-3,6,3,-11,-2,-7,-8
13:50:37:892003,-10,-3,6,3,-11,-2,-7,-8
13:50:37:892796,3,35,20,13,2,-3,-12,-1
13:50:37:906974,4,-8,-1,2,-4,-2,-5,12
13:50:37:907812,4,-8,-1,2,-4,-2,-5,12
13:50:37:913720,2,-6,-15,-9,-17,-1,10,-11
13:50:37:921365,-29,-8,6,2,5,2,3,-6
13:50:37:928856,-29,-8,6,2,5,2,3,-6
13:50:37:936353,0,3,-3,-6,5,13,26,6
13:50:37:943726,10,-3,-7,1,3,-1,-12,5
13:50:37:952064,10,-3,-7,1,3,-1,-12,5
13:50:37:952784,0,-6,12,15,6,4,1,-3
13:50:37:967044,-6,-4,-104,-1,-3,-15,6,-5
13:50:37:967773,-6,-4,-104,-1,-3,-15,6,-5
13:50:37:973822,9,-4,-10,-5,-1,-5,-9,0
13:50:37:981280,6,30,67,-6,5,-4,-12,-9
13:50:37:988929,6,30,67,-6,5,-4,-12,-9
13:50:37:996265,5,-9,-10,-117,-1,3,-7,-1
13:50:38:3837,-3,-15,0,-31,-14,-15,-5,-10
13:50:38:11375,-3,-15,0,-31,-14,-15,-5,-10
13:50:38:18898,-8,-8,34,65,15,-6,-10,9
13:50:38:26979,11,7,11,52,1,3,13,6
13:50:38:27761,11,7,11,52,1,3,13,6
13:50:38:33867,2,-25,-20,23,-8,-5,-4,6
13:50:38:49579,-3,-15,2,-4,-11,-6,-8,1
13:50:38:50342,-3,-15,2,-4,-11,-6,-8,1
13:50:38:56296,-6,-8,0,25,7,-3,-4,-4
13:50:38:63772,-15,-9,12,18,8,13,10,-2
13:50:38:71351,-15,-9,12,18,8,13,10,-2
13:50:38:78786,-15,4,4,19,-6,-7,-7,-7
13:50:38:87033,-1,10,4,-12,-5,-4,-2,-6
13:50:38:87749,-1,10,4,-12,-5,-4,-2,-6
13:50:38:93730,-4,-5,0,6,-2,2,3,2
13:50:38:109479,1,-8,5,7,1,6,1,2
13:50:38:110277,1,-8,5,7,1,6,1,2
13:50:38:116442,9,5,-18,4,-2,-4,0,-3
13:50:38:123826,-3,13,6,13,1,0,-1,-2
13:50:38:131345,-3,13,6,13,1,0,-1,-2
13:50:38:138816,-10,-19,-7,-9,0,-6,-10,-7
13:50:38:146978,2,-5,10,5,11,18,13,4
13:50:38:147778,2,-5,10,5,11,18,13,4
13:50:38:153840,4,22,9,-1,-2,2,-7,-1
13:50:38:169547,-5,-4,-8,-15,-7,-5,-10,-5
13:50:38:170292,-5,-4,-8,-15,-7,-5,-10,-5
13:50:38:176249,3,10,7,-5,-2,5,0,0
13:50:38:183807,10,27,3,-6,-2,-7,-6,1
13:50:38:191358,10,27,3,-6,-2,-7,-6,1
13:50:38:198800,0,-31,-11,-5,-13,1,1,-1
13:50:38:207017,18,2,-9,2,1,9,-8,0
13:50:38:207785,18,2,-9,2,1,9,-8,0
13:50:38:213771,-10,-16,-22,-5,-9,-14,2,-3
13:50:38:229468,-8,-22,-18,-16,-9,-4,-13,-5
13:50:38:230256,-8,-22,-18,-16,-9,-4,-13,-5
13:50:38:236394,3,-2,0,-7,-2,2,0,1
13:50:38:243753,3,4,3,6,-4,1,1,3
13:50:38:251361,3,4,3,6,-4,1,1,3
13:50:38:258806,-4,-3,-6,3,12,4,-12,-2
13:50:38:267061,-3,7,13,10,6,-3,-3,3
13:50:38:267805,-3,7,13,10,6,-3,-3,3
13:50:38:273802,3,10,6,6,1,4,4,-1
13:50:38:289503,-9,-23,-11,-7,-4,2,4,5
13:50:38:290328,-9,-23,-11,-7,-4,2,4,5
13:50:38:296260,-8,-12,1,1,-4,-3,-1,-3
13:50:38:303852,-4,7,-11,-20,-13,-2,16,3
13:50:38:311364,-4,7,-11,-20,-13,-2,16,3
13:50:38:318799,6,15,15,5,16,14,8,3
13:50:38:326957,-1,4,-7,-3,1,-3,-1,-2
13:50:38:327748,-1,4,-7,-3,1,-3,-1,-2
13:50:38:333837,-12,14,-1,-8,0,-11,5,-4
13:50:38:349558,-1,-6,13,-1,-5,2,7,2
13:50:38:350308,-1,-6,13,-1,-5,2,7,2
13:50:38:356333,7,18,8,11,3,-2,10,4
13:50:38:363772,0,19,7,-3,-2,-4,2,-1
13:50:38:371410,0,19,7,-3,-2,-4,2,-1
13:50:38:378796,-12,-33,-12,0,-2,-5,1,-4
13:50:38:387074,-1,-7,-17,-5,6,-5,-16,-9
13:50:38:387784,-1,-7,-17,-5,6,-5,-16,-9
13:50:38:393698,0,-8,-20,-7,-10,0,-4,-2
13:50:38:409490,2,31,1,-6,-6,0,-6,-4
13:50:38:410270,2,31,1,-6,-6,0,-6,-4
13:50:38:416382,4,-6,5,-1,-1,-8,-11,0
13:50:38:423842,0,-12,-2,2,2,-16,-8,0
13:50:38:431360,0,-12,-2,2,2,-16,-8,0
13:50:38:438818,9,13,-1,-5,2,2,7,4
13:50:38:446971,0,-14,8,4,-1,-10,-11,-4
13:50:38:447765,0,-14,8,4,-1,-10,-11,-4
13:50:38:453838,6,-11,-14,2,-10,7,4,-2
13:50:38:469520,-5,-9,1,-8,5,9,7,2
13:50:38:470277,-5,-9,1,-8,5,9,7,2
13:50:38:476263,-12,7,-6,-17,-5,0,-6,0
13:50:38:483800,2,-3,-9,4,-6,-10,-3,-8
13:50:38:491332,2,-3,-9,4,-6,-10,-3,-8
13:50:38:498832,0,-17,4,14,9,-7,-10,-4
13:50:38:507029,-1,-2,14,-15,3,11,3,5
13:50:38:507819,-1,-2,14,-15,3,11,3,5
13:50:38:513787,9,4,-20,-17,1,5,-5,8
13:50:38:529468,-9,-10,-8,17,-4,-1,-8,-4
13:50:38:530279,-9,-10,-8,17,-4,-1,-8,-4
13:50:38:536376,-7,4,4,9,-6,-10,-12,-5
13:50:38:543727,6,5,9,19,7,3,4,0
13:50:38:551406,6,5,9,19,7,3,4,0
13:50:38:558788,6,14,1,-2,1,-1,2,0
13:50:38:567043,-10,-19,-3,-4,3,-8,3,-6
13:50:38:567825,-10,-19,-3,-4,3,-8,3,-6
13:50:38:573800,-3,7,21,2,2,-13,5,-3
13:50:38:589479,-3,-10,-21,-6,-2,10,15,-1
13:50:38:590292,-3,-10,-21,-6,-2,10,15,-1
13:50:38:596232,4,-9,-12,-1,1,-3,-3,-1
13:50:38:603837,10,3,8,1,-2,-8,-4,2
13:50:38:611338,10,3,8,1,-2,-8,-4,2
13:50:38:618833,6,-2,10,0,-6,6,8,7
13:50:38:626967,11,1,10,-7,2,8,-2,3
13:50:38:627752,11,1,10,-7,2,8,-2,3
13:50:38:633886,-9,-9,-14,-10,-6,-4,-11,-1
13:50:38:649590,-10,2,-2,-4,4,9,3,3
13:50:38:650268,-10,2,-2,-4,4,9,3,3
13:50:38:664418,-7,38,-6,-6,1,3,-1,-9
13:50:38:665259,0,-3,2,0,-6,-7,-1,-4
13:50:38:671437,0,-3,2,0,-6,-7,-1,-4
13:50:38:678763,2,-12,1,8,1,-1,-8,0
13:50:38:687011,-14,11,5,9,-6,-8,-5,-8
13:50:38:687752,-14,11,5,9,-6,-8,-5,-8
13:50:38:693774,-1,-7,-3,11,12,8,11,0
13:50:38:709546,5,-15,-17,-8,-8,-5,-5,2
13:50:38:710328,5,-15,-17,-8,-8,-5,-5,2
13:50:38:716368,-3,-13,-13,-8,-10,-1,3,0
13:50:38:723852,-2,-1,1,-1,3,3,-8,2
13:50:38:731381,-2,-1,1,-1,3,3,-8,2
13:50:38:738809,-6,-21,15,-2,11,-2,7,0
13:50:38:746958,-1,17,-11,-4,0,-3,6,4
13:50:38:747762,-1,17,-11,-4,0,-3,6,4
13:50:38:753837,5,-5,-6,-4,-21,-6,-12,0
13:50:38:769497,-9,-10,10,2,21,21,19,-1
13:50:38:770285,-9,-10,10,2,21,21,19,-1
13:50:38:776295,-1,3,19,-2,-9,-7,-1,1
13:50:38:783882,4,-5,-7,0,-14,-14,-14,-8
13:50:38:791345,4,-5,-7,0,-14,-14,-14,-8
13:50:38:798931,1,6,4,-7,5,-4,-4,2
13:50:38:806991,-5,-16,-2,0,0,-1,9,0
13:50:38:807845,-5,-16,-2,0,0,-1,9,0
13:50:38:813755,6,4,-6,13,-2,-3,-9,-5
13:50:38:829462,7,6,-2,-5,-7,-6,1,1
13:50:38:830259,7,6,-2,-5,-7,-6,1,1
13:50:38:836370,-5,-4,10,-7,-12,-3,3,-7
13:50:38:843729,4,-9,-24,-12,-6,-2,11,3
13:50:38:851355,4,-9,-24,-12,-6,-2,11,3
13:50:38:858754,-1,-4,6,0,8,1,-3,-1
13:50:38:866999,-9,-6,5,0,7,7,-11,-8
13:50:38:867774,-9,-6,5,0,7,7,-11,-8
13:50:38:873828,3,1,-10,0,-2,-19,1,-6
13:50:38:889525,3,7,7,2,14,22,6,6
13:50:38:890315,3,7,7,2,14,22,6,6
13:50:38:896223,-2,-7,9,-7,-1,3,7,2
13:50:38:903842,-8,25,-6,-2,-8,-14,-3,-3
13:50:38:911370,-8,25,-6,-2,-8,-14,-3,-3
13:50:38:918856,3,1,-19,-12,4,-5,-5,0
13:50:38:926985,-2,-69,2,-1,-5,-1,3,-4
13:50:38:927861,-2,-69,2,-1,-5,-1,3,-4
13:50:38:933808,3,-3,4,10,5,14,6,3
13:50:38:949619,8,29,3,-7,-11,-3,-7,1
13:50:38:950317,8,29,3,-7,-11,-3,-7,1
13:50:38:956334,-5,20,8,1,3,8,16,3
13:50:38:972105,1,12,-1,0,-4,9,-7,-3
13:50:38:972792,1,12,-1,0,-4,9,-7,-3
13:50:38:978764,-12,13,1,-2,7,0,-4,-1
13:50:38:987056,-2,6,-2,8,-1,-5,7,-1
13:50:38:987807,-2,6,-2,8,-1,-5,7,-1
13:50:39:1294,-9,-7,-5,-8,-11,2,-4,-5
13:50:39:9540,2,-12,-4,-5,-3,-18,-8,-8
13:50:39:10310,2,-12,-4,-5,-3,-18,-8,-8
13:50:39:16372,8,-5,-6,1,5,21,30,11
13:50:39:32146,8,-5,-6,1,5,21,30,11
13:50:39:32785,-9,7,1,-1,-9,-8,-12,0
13:50:39:38892,10,9,-13,5,-3,-11,-7,-2
13:50:39:46987,10,9,-13,5,-3,-11,-7,-2
13:50:39:47778,-9,-14,-9,-9,-1,4,2,-3
13:50:39:61269,-3,8,6,-7,2,6,6,4
13:50:39:69553,-3,8,6,-7,2,6,6,4
13:50:39:70299,8,-7,0,8,5,-3,6,-8
13:50:39:76228,-22,-24,-2,-3,-9,-6,-6,-9
13:50:39:92019,-22,-24,-2,-3,-9,-6,-6,-9
13:50:39:92797,-1,4,-5,-4,0,-4,0,2
13:50:39:98946,9,-8,-16,4,2,-22,-27,-7
13:50:39:107008,9,-8,-16,4,2,-22,-27,-7
13:50:39:107819,-7,6,-1,-6,2,9,-9,1
13:50:39:121365,1,10,5,-8,-12,-12,-10,-8
13:50:39:129488,1,10,5,-8,-12,-12,-10,-8
13:50:39:130239,4,0,-16,-6,4,-41,0,3
13:50:39:136382,-6,-3,-7,-8,-3,-15,-22,1
13:50:39:152033,-6,-3,-7,-8,-3,-15,-22,1
13:50:39:152788,-6,-10,-3,2,-5,11,7,6
13:50:39:158790,4,-5,-3,1,4,12,-1,2
13:50:39:167009,4,-5,-3,1,4,12,-1,2
13:50:39:167756,-1,-2,4,3,-4,6,-9,-9
13:50:39:181304,4,11,2,12,2,12,2,2
13:50:39:189550,4,11,2,12,2,12,2,2
13:50:39:190266,6,5,13,-8,2,3,4,3
13:50:39:196260,-12,-13,5,4,-21,-9,5,-7
13:50:39:211978,-12,-13,5,4,-21,-9,5,-7
13:50:39:212756,1,2,0,-1,11,-2,-9,3
13:50:39:218873,4,1,-8,-9,-10,-11,-16,-1
13:50:39:234514,4,1,-8,-9,-10,-11,-16,-1
13:50:39:235229,0,-17,-8,-2,-16,-1,5,3
13:50:39:241337,-6,-10,3,-5,5,6,13,-1
13:50:39:249561,-6,-10,3,-5,5,6,13,-1
13:50:39:250279,3,1,5,2,4,1,-4,-7
13:50:39:256349,4,-9,27,5,11,8,16,3
13:50:39:272054,4,-9,27,5,11,8,16,3
13:50:39:272752,-8,9,-11,3,10,5,7,-4
13:50:39:278775,-11,-30,-13,4,7,6,-3,-7
13:50:39:287043,-11,-30,-13,4,7,6,-3,-7
13:50:39:287833,6,20,4,0,-2,4,5,9
13:50:39:301283,-4,10,3,11,9,1,9,2
13:50:39:309489,-4,10,3,11,9,1,9,2
13:50:39:310230,1,-9,-2,-6,-8,-6,4,1
13:50:39:316393,7,4,-1,10,3,2,1,0
13:50:39:332118,7,4,-1,10,3,2,1,0
13:50:39:332803,5,25,9,10,4,-4,-11,-1
13:50:39:338946,-2,4,-7,-12,-2,-7,-9,-3
13:50:39:347013,-2,4,-7,-12,-2,-7,-9,-3
13:50:39:347773,3,3,8,0,-5,-6,-6,-1
13:50:39:361314,6,11,-2,-3,-1,5,-2,-2
13:50:39:369567,6,11,-2,-3,-1,5,-2,-2
13:50:39:370322,-10,-7,-3,-4,3,-8,3,-7
13:50:39:376285,-10,0,2,3,-4,6,11,-3
13:50:39:392035,-10,0,2,3,-4,6,11,-3
13:50:39:392806,9,2,-6,0,19,11,-8,1
13:50:39:398943,7,7,-14,-14,-6,-22,58,0
13:50:39:406981,7,7,-14,-14,-6,-22,58,0
13:50:39:407747,0,-4,3,11,4,6,4,0
13:50:39:421354,-3,12,20,-6,0,-1,-29,2
13:50:39:429497,-3,12,20,-6,0,-1,-29,2
13:50:39:430286,4,-4,10,-3,-19,-3,-31,-3
13:50:39:436355,-5,-1,7,8,-5,1,-33,-3
13:50:39:452061,-5,-1,7,8,-5,1,-33,-3
13:50:39:452784,-1,1,-13,-2,5,11,19,1
13:50:39:458758,9,-10,-8,9,7,11,-11,2
13:50:39:467138,9,-10,-8,9,7,11,-11,2
13:50:39:467807,-12,-5,6,11,-8,-15,-3,-15
13:50:39:481283,0,22,19,1,2,-2,3,1
13:50:39:489508,0,22,19,1,2,-2,3,1
13:50:39:490308,-10,-4,-15,-3,-4,4,-3,-5
13:50:39:496280,-7,2,-8,-13,-15,-11,-13,3
13:50:39:512016,-7,2,-8,-13,-15,-11,-13,3
13:50:39:512740,-19,-11,16,4,11,5,1,-2
13:50:39:518797,2,-9,-9,-6,-3,6,7,3
13:50:39:526365,2,-9,-9,-6,-3,6,7,3
13:50:39:533808,6,-24,-1,-14,-16,-5,-2,1
13:50:39:541320,2,-10,-10,-6,0,-5,-3,4
13:50:39:549580,2,-10,-10,-6,0,-5,-3,4
13:50:39:550286,4,29,19,8,4,-3,10,6
13:50:39:556315,-2,-7,5,4,-10,-6,-18,-8
13:50:39:572073,-2,-7,5,4,-10,-6,-18,-8
13:50:39:572774,5,-12,-17,-13,-8,2,-1,-1
13:50:39:578801,0,15,6,3,8,3,5,-2
13:50:39:587067,0,15,6,3,8,3,5,-2
13:50:39:587796,10,-11,-7,-10,-4,-12,-8,8
13:50:39:601295,-8,-22,-22,-5,-2,-6,6,4
13:50:39:609524,-8,-22,-22,-5,-2,-6,6,4
13:50:39:610312,-1,12,-5,5,6,8,6,3
13:50:39:616400,10,61,-1,0,1,4,-4,3
13:50:39:632146,10,61,-1,0,1,4,-4,3
13:50:39:632787,-1,-3,-14,-12,-6,-8,-14,-1
13:50:39:638866,1,-11,-3,4,6,12,9,-1
13:50:39:647003,1,-11,-3,4,6,12,9,-1
13:50:39:647768,0,7,13,-1,-1,-18,-6,-4
13:50:39:661298,-9,-23,-3,-1,-12,-28,-6,-9
13:50:39:669570,-9,-23,-3,-1,-12,-28,-6,-9
13:50:39:670330,-3,-10,-3,10,8,16,6,3
13:50:39:676241,-11,-6,-2,-5,-5,3,-4,-4
13:50:39:692008,-11,-6,-2,-5,-5,3,-4,-4
13:50:39:692778,11,9,24,9,-5,-7,-2,1
13:50:39:698920,1,-6,7,0,12,7,13,4
13:50:39:707019,1,-6,7,0,12,7,13,4
13:50:39:707804,-4,0,-5,-6,-9,-2,13,0
13:50:39:721333,0,-5,-8,-6,-3,-6,0,0
13:50:39:729477,0,-5,-8,-6,-3,-6,0,0
13:50:39:730254,-3,-15,-8,-12,-26,5,6,-4
13:50:39:736360,-3,-5,-10,11,15,-3,-2,-3
13:50:39:752017,-3,-5,-10,11,15,-3,-2,-3
13:50:39:752773,-3,0,-19,-15,2,-4,6,-1
13:50:39:758777,6,9,18,7,-3,-19,-6,-2
13:50:39:767048,6,9,18,7,-3,-19,-6,-2
13:50:39:767762,-1,-7,0,3,6,-9,-19,2
13:50:39:781263,5,-5,-8,-2,14,7,-1,-7
13:50:39:789535,5,-5,-8,-2,14,7,-1,-7
13:50:39:790265,-2,13,4,4,2,-7,2,-8
13:50:39:796266,-2,3,-3,-11,-19,-3,0,-2
13:50:39:812013,-2,3,-3,-11,-19,-3,0,-2
13:50:39:812750,-9,-1,1,21,13,-1,5,2
13:50:39:818804,-2,14,11,13,3,-10,6,2
13:50:39:826352,-2,14,11,13,3,-10,6,2
13:50:39:833801,8,38,8,3,-1,5,-10,-1
13:50:39:841315,-3,-6,-6,2,-6,5,-9,-5
13:50:39:849538,-3,-6,-6,2,-6,5,-9,-5
13:50:39:850320,-10,-8,2,12,1,-17,-20,-13
13:50:39:856280,4,3,3,-5,2,1,-8,7
13:50:39:872044,4,3,3,-5,2,1,-8,7
13:50:39:872768,0,-16,3,-4,4,3,-1,-4
13:50:39:878775,1,-1,-3,-7,-2,14,2,-1
13:50:39:886434,1,-1,-3,-7,-2,14,2,-1
13:50:39:893773,-3,0,-12,-4,-3,10,10,-5
13:50:39:901300,-1,-37,-7,3,7,13,5,-5
13:50:39:909547,-1,-37,-7,3,7,13,5,-5
13:50:39:910337,3,13,8,-4,-11,14,1,5
13:50:39:923835,-5,9,-10,-19,-21,-17,-3,1
13:50:39:932101,-5,9,-10,-19,-21,-17,-3,1
13:50:39:932826,-1,-12,-4,-4,6,0,7,7
13:50:39:938824,0,2,2,0,4,8,5,-1
13:50:39:946334,0,2,2,0,4,8,5,-1
13:50:39:953898,-6,-5,2,-4,-9,-4,-2,24
13:50:39:961265,1,-16,-11,6,11,-7,19,-5
13:50:39:969534,1,-16,-11,6,11,-7,19,-5
13:50:39:970268,-9,-14,-11,-7,-2,0,-1,-24
13:50:39:983863,32,-6,-8,12,20,32,3,-5
13:50:39:992060,32,-6,-8,12,20,32,3,-5
13:50:39:992842,-7,-28,-22,-3,0,-2,0,-8
13:50:39:998925,-12,4,10,-17,-17,-10,-4,-3
13:50:40:6329,-12,4,10,-17,-17,-10,-4,-3
13:50:40:13792,-9,15,10,4,3,-2,-5,-2
13:50:40:21379,-11,-1,-3,-4,-4,-7,0,19
13:50:40:29460,-11,-1,-3,-4,-4,-7,0,19
13:50:40:30255,-14,0,3,0,-13,-10,-5,1
13:50:40:52775,-8,13,15,11,6,12,-9,-13
13:50:40:53443,-8,13,15,11,6,12,-9,-13
13:50:40:54317,7,-7,1,-10,2,20,8,-4
13:50:40:58777,-3,13,10,-6,-22,-17,-5,-7
13:50:40:66432,-3,13,10,-6,-22,-17,-5,-7
13:50:40:73844,-2,6,11,7,2,-4,-2,-6
13:50:40:81288,3,-6,-9,-2,2,7,4,9
13:50:40:89512,3,-6,-9,-2,2,7,4,9
13:50:40:90262,5,9,0,-22,2,-2,2,7
13:50:40:103868,-11,-6,3,-2,-3,-5,-6,4
13:50:40:112021,-11,-6,3,-2,-3,-5,-6,4
13:50:40:112729,13,11,-7,-2,-7,-2,-1,5
13:50:40:118880,-4,-14,-23,-18,-11,-6,1,-2
13:50:40:126336,-4,-14,-23,-18,-11,-6,1,-2
13:50:40:133820,5,-7,-2,0,4,1,-8,-6
13:50:40:141334,1,7,11,5,10,3,1,-9
13:50:40:149594,1,7,11,5,10,3,1,-9
13:50:40:150265,0,-16,3,-1,-9,-8,0,-4
13:50:40:163781,-7,-27,-12,1,4,-5,-2,-2
13:50:40:172067,-7,-27,-12,1,4,-5,-2,-2
13:50:40:172734,-4,0,-12,4,13,4,-10,-4
13:50:40:178785,-2,-9,12,4,-7,-2,-3,-3
13:50:40:186382,-2,-9,12,4,-7,-2,-3,-3
13:50:40:193733,3,11,-10,-12,-2,-5,-3,-6
13:50:40:201281,3,3,-13,-3,-8,-1,8,-2
13:50:40:209516,3,3,-13,-3,-8,-1,8,-2
13:50:40:210308,-5,0,7,0,-10,-7,-2,1
13:50:40:223834,0,-8,11,2,22,23,-5,1
13:50:40:232103,0,-8,11,2,22,23,-5,1
13:50:40:232781,-4,-8,10,11,7,7,3,3
13:50:40:238819,-3,11,8,-5,-14,-23,-7,-6
13:50:40:246340,-3,11,8,-5,-14,-23,-7,-6
13:50:40:253810,1,-4,1,2,-4,-18,-8,-7
13:50:40:261258,-11,6,14,9,5,8,-4,-3
13:50:40:269515,-11,6,14,9,5,8,-4,-3
13:50:40:270301,4,2,-8,-1,1,-4,1,-1
13:50:40:283781,-3,-6,-19,-9,-11,-5,-10,3
13:50:40:292021,-3,-6,-19,-9,-11,-5,-10,3
13:50:40:292783,-2,-4,-9,2,-10,5,8,4
13:50:40:298957,7,10,-10,-4,7,0,9,0
13:50:40:306389,7,10,-10,-4,7,0,9,0
13:50:40:313748,7,-3,-11,-9,21,10,5,5
13:50:40:321378,-2,-2,3,-18,-5,-4,-12,-2
13:50:40:329544,-2,-2,3,-18,-5,-4,-12,-2
13:50:40:330317,-5,4,15,10,-10,-5,-1,-2
13:50:40:343746,-11,-5,9,14,-8,-8,-2,-6
13:50:40:352086,-11,-5,9,14,-8,-8,-2,-6
13:50:40:352837,-7,-19,-8,8,2,-6,-10,5
13:50:40:358779,6,8,-11,-1,6,7,12,8
13:50:40:366437,6,8,-11,-1,6,7,12,8
13:50:40:373822,-11,-11,5,2,-3,-1,19,-4
13:50:40:390197,7,1,15,11,6,-10,8,3
13:50:40:390967,7,1,15,11,6,-10,8,3
13:50:40:391771,-3,-9,-28,4,1,0,-3,-1
13:50:40:403803,-6,-14,-26,-21,-4,-4,-8,-2
13:50:40:412003,-6,-14,-26,-21,-4,-4,-8,-2
13:50:40:412763,1,3,5,-10,-7,-5,3,-3
13:50:40:418808,4,1,3,13,10,-8,-15,3
13:50:40:426350,4,1,3,13,10,-8,-15,3
13:50:40:433856,7,8,10,-6,3,3,3,-1
13:50:40:441290,5,-1,0,-5,-14,-8,-4,-4
13:50:40:449524,5,-1,0,-5,-14,-8,-4,-4
13:50:40:450252,1,-8,0,-4,-2,3,-4,-4
13:50:40:463767,0,-2,2,-6,-4,5,-7,-3
13:50:40:472068,0,-2,2,-6,-4,5,-7,-3
13:50:40:472848,-1,21,2,-17,-6,7,0,1
13:50:40:478770,6,11,-6,-7,-1,17,6,-6
13:50:40:486356,6,11,-6,-7,-1,17,6,-6
13:50:40:493784,1,12,7,-4,-2,-9,-3,113
13:50:40:501308,0,-10,-2,-3,-1,8,18,-11
13:50:40:509480,0,-10,-2,-3,-1,8,18,-11
13:50:40:510263,-3,-1,1,5,12,-8,-9,-83
13:50:40:523831,-9,0,4,15,-2,-7,-4,-57
13:50:40:532085,-9,0,4,15,-2,-7,-4,-57
13:50:40:532772,3,-11,-12,0,-4,0,2,-38
13:50:40:538868,-3,0,-3,-4,-7,-8,-5,-6
13:50:40:546311,-3,0,-3,-4,-7,-8,-5,-6
13:50:40:553862,-2,-4,-3,17,9,5,0,-14
13:50:40:561197,-8,-8,6,-5,-5,1,-3,5
13:50:40:569511,-8,-8,6,-5,-5,1,-3,5
13:50:40:570300,0,2,-8,-11,-7,-20,-3,0
13:50:40:583838,-2,-17,-30,-38,8,8,3,15
13:50:40:591990,-2,-17,-30,-38,8,8,3,15
13:50:40:592785,3,6,-8,18,-1,-11,-20,-14
13:50:40:598807,-6,-18,3,21,-2,-9,-17,-13
13:50:40:606371,-6,-18,3,21,-2,-9,-17,-13
13:50:40:613774,-6,-10,-4,3,-3,5,-15,-3
13:50:40:621380,5,-8,1,6,-3,-3,-1,12
13:50:40:629475,5,-8,1,6,-3,-3,-1,12
13:50:40:630257,-1,-5,11,-25,-13,-9,1,9
13:50:40:643724,12,14,-21,8,8,0,9,7
13:50:40:652032,12,14,-21,8,8,0,9,7
13:50:40:652757,-7,-6,22,-97,4,-3,2,-2
13:50:40:658757,0,12,20,-29,2,-4,8,10
13:50:40:666390,0,12,20,-29,2,-4,8,10
13:50:40:673815,-1,-2,-5,82,8,5,-7,-2
13:50:40:681330,-1,17,22,55,-15,10,-4,10
13:50:40:689529,-1,17,22,55,-15,10,-4,10
13:50:40:690333,0,-1,14,62,-3,-12,1,-2
13:50:40:703844,-13,-35,-13,31,2,-4,-6,-5
13:50:40:711999,-13,-35,-13,31,2,-4,-6,-5
13:50:40:712763,-6,-20,-21,17,-1,-2,8,-6
13:50:40:718812,2,11,4,11,3,5,-2,0
13:50:40:726343,2,11,4,11,3,5,-2,0
13:50:40:733817,4,10,-1,-5,-11,-10,-1,1
13:50:40:741303,-1,-2,-5,0,7,8,6,-1
13:50:40:749528,-1,-2,-5,0,7,8,6,-1
13:50:40:750265,1,8,-1,10,-3,10,7,-5
13:50:40:763753,-5,9,-13,-9,-12,-25,-21,-7
13:50:40:772101,-5,9,-13,-9,-12,-25,-21,-7
13:50:40:772824,0,-5,-7,-5,-2,5,8,6
13:50:40:778767,0,7,-13,-5,-7,-14,5,0
13:50:40:786359,0,7,-13,-5,-7,-14,5,0
13:50:40:793789,0,-5,-2,-5,1,6,9,-2
13:50:40:801325,0,-20,10,-5,10,3,-2,1
13:50:40:809504,0,-20,10,-5,10,3,-2,1
13:50:40:810290,-1,1,29,-5,-6,3,-4,0
13:50:40:823831,1,1,-1,4,3,-1,7,0
13:50:40:832053,1,1,-1,4,3,-1,7,0
13:50:40:832765,1,0,-3,1,5,3,-6,-1
13:50:40:846936,-13,7,11,-7,-4,-2,-1,-3
13:50:40:847735,-13,7,11,-7,-4,-2,-1,-3
13:50:40:853894,1,2,3,3,9,10,4,-1
13:50:40:861278,6,1,-3,-7,8,20,24,7
13:50:40:868852,6,1,-3,-7,8,20,24,7
13:50:40:876309,1,-3,-17,-22,-7,0,9,-3
13:50:40:883794,6,6,-16,-8,1,6,-9,2
13:50:40:891989,6,6,-16,-8,1,6,-9,2
13:50:40:892785,-8,24,10,-5,-2,-11,-2,-1
13:50:40:907005,8,32,-11,2,-5,-9,-5,-5
13:50:40:907763,8,32,-11,2,-5,-9,-5,-5
13:50:40:913730,-1,-8,-23,-1,4,0,-11,3
13:50:40:921326,-3,-2,-11,2,6,-1,2,-2
13:50:40:928821,-3,-2,-11,2,6,-1,2,-2
13:50:40:936319,3,6,17,0,5,-3,-12,-5
13:50:40:943714,-3,5,18,-4,-7,-14,-11,3
13:50:40:952027,-3,5,18,-4,-7,-14,-11,3
13:50:40:952769,-4,-8,-13,2,-9,-21,5,-1
13:50:40:967042,-8,-29,6,4,2,-2,2,2
13:50:40:967778,-8,-29,6,4,2,-2,2,2
13:50:40:973768,0,7,-4,-13,-3,-6,-3,2
13:50:40:981253,0,31,27,-1,-6,2,2,-4
13:50:40:988899,0,31,27,-1,-6,2,2,-4
13:50:40:996254,-2,-13,7,6,17,18,8,5
13:50:41:3855,-11,-21,-22,-11,-1,-5,-9,-3
13:50:41:12026,-11,-21,-22,-11,-1,-5,-9,-3
13:50:41:12785,4,21,8,8,-3,4,-6,-1
13:50:41:26993,2,-12,24,0,5,-16,-4,-9
13:50:41:27778,2,-12,24,0,5,-16,-4,-9
13:50:41:33823,2,-2,8,-3,-3,0,0,3
13:50:41:41285,7,20,-18,8,-4,6,16,1
13:50:41:48920,7,20,-18,8,-4,6,16,1
13:50:41:56298,0,6,-34,-5,-10,-1,4,-4
13:50:41:63761,-1,-15,-13,3,5,5,-1,2
13:50:41:72030,-1,-15,-13,3,5,5,-1,2
13:50:41:72762,-6,-19,-5,-15,2,6,-8,2
13:50:41:87097,-6,-8,-13,-5,-10,2,-2,0
13:50:41:87816,-6,-8,-13,-5,-10,2,-2,0
13:50:41:93735,8,-2,-1,-1,-5,-6,3,-6
13:50:41:101309,2,-8,11,-6,6,3,6,0
13:50:41:108882,2,-8,11,-6,6,3,6,0
13:50:41:116401,0,-31,-22,0,1,-7,-1,3
13:50:41:123817,-1,-31,0,10,-5,-11,-8,4
13:50:41:132117,-1,-31,0,10,-5,-11,-8,4
13:50:41:132783,-8,12,0,-5,-8,-3,8,1
13:50:41:146952,-3,-16,-3,-9,-4,22,37,8
13:50:41:147738,-3,-16,-3,-9,-4,22,37,8
13:50:41:153876,-4,-8,10,5,-3,-3,-22,-2
13:50:41:161301,9,43,0,-4,-1,-9,-18,-5
13:50:41:168910,9,43,0,-4,-1,-9,-18,-5
13:50:41:176260,0,3,24,8,19,12,12,1
13:50:41:183897,4,-9,-6,-6,9,0,-1,-1
13:50:41:192014,4,-9,-6,-6,9,0,-1,-1
13:50:41:192807,0,1,-17,-2,-6,-3,-6,-2
13:50:41:206996,3,9,4,5,-8,-5,-17,-2
13:50:41:207771,3,9,4,5,-8,-5,-17,-2
13:50:41:213733,-3,9,19,17,26,21,6,7
13:50:41:221383,-10,-12,6,-3,-11,-14,-7,-8
13:50:41:228815,-10,-12,6,-3,-11,-14,-7,-8
13:50:41:236324,2,-7,-12,-10,-18,-3,5,-2
13:50:41:243716,1,10,-13,-1,1,-6,-4,-6
13:50:41:252055,1,10,-13,-1,1,-6,-4,-6
13:50:41:252784,-2,10,15,-1,-2,0,5,1
13:50:41:267018,4,7,-7,-12,-5,0,0,3
13:50:41:267824,4,7,-7,-12,-5,0,0,3
13:50:41:273770,-6,-12,-21,-2,-5,-8,0,-1
13:50:41:281322,2,-13,7,7,9,10,-5,-1
13:50:41:288927,2,-13,7,7,9,10,-5,-1
13:50:41:296279,4,7,-8,-16,-2,-2,-7,-6
13:50:41:303851,-9,-24,-16,17,5,-13,5,-1
13:50:41:312022,-9,-24,-16,17,5,-13,5,-1
13:50:41:312797,0,6,-2,3,-4,3,-9,-8
13:50:41:327027,-9,13,2,-8,-11,-1,-3,-1
13:50:41:327806,-9,13,2,-8,-11,-1,-3,-1
13:50:41:333804,-8,-19,-3,-3,1,-7,-12,0
13:50:41:341300,1,7,20,-2,3,-4,-3,1
13:50:41:348982,1,7,20,-2,3,-4,-3,1
13:50:41:356299,-1,8,2,-9,-15,3,14,-2
13:50:41:363763,0,9,11,9,3,10,0,0
13:50:41:372056,0,9,11,9,3,10,0,0
13:50:41:372756,-2,3,-3,0,1,-5,0,5
13:50:41:387064,-7,-4,-4,7,-16,-11,-1,-4
13:50:41:387826,-7,-4,-4,7,-16,-11,-1,-4
13:50:41:393744,0,-1,18,18,24,10,5,-6
13:50:41:401314,4,13,8,-13,-10,-3,-3,0
13:50:41:408811,4,13,8,-13,-10,-3,-3,0
13:50:41:416463,-3,-8,-7,3,-19,-12,0,2
13:50:41:423854,0,-6,-8,-8,13,2,-2,-2
13:50:41:432082,0,-6,-8,-8,13,2,-2,-2
13:50:41:432814,-1,-1,4,-10,-8,-2,-2,-2
13:50:41:446955,-2,-5,-1,-1,-2,2,2,1
13:50:41:447780,-2,-5,-1,-1,-2,2,2,1
13:50:41:453893,1,3,-11,-8,1,-4,-13,2
13:50:41:461301,3,3,3,0,1,13,19,2
13:50:41:468919,3,3,3,0,1,13,19,2
13:50:41:476271,6,12,14,6,0,3,4,-5
13:50:41:483793,3,-7,-13,4,-5,1,7,2
13:50:41:492012,3,-7,-13,4,-5,1,7,2
13:50:41:492811,-5,-15,-7,2,-3,-6,6,3
13:50:41:506967,0,20,19,7,4,9,-1,3
13:50:41:507785,0,20,19,7,4,9,-1,3
13:50:41:513726,0,-5,-12,-10,-2,1,-7,-6
13:50:41:521332,-5,4,-14,-17,1,1,-5,-2
13:50:41:528826,-5,4,-14,-17,1,1,-5,-2
13:50:41:536342,-4,-2,6,-1,-3,-7,-4,1
13:50:41:543715,-13,-8,-1,6,0,-8,-8,-1
13:50:41:552078,-13,-8,-1,6,0,-8,-8,-1
13:50:41:552777,0,-13,4,9,5,4,15,-6
13:50:41:567028,5,24,-3,-9,-2,-5,-18,-5
13:50:41:567761,5,24,-3,-9,-2,-5,-18,-5
13:50:41:573776,-3,-1,-16,-15,-3,1,10,6
13:50:41:581257,3,-8,10,5,-3,-8,-17,-1
13:50:41:588898,3,-8,10,5,-3,-8,-17,-1
13:50:41:596268,0,16,17,-2,-3,-3,-9,-3
13:50:41:603879,1,-11,-9,8,-1,-4,-11,-9
13:50:41:612038,1,-11,-9,8,-1,-4,-11,-9
13:50:41:612826,8,-4,-3,-9,-8,-9,-7,-1
13:50:41:626986,-7,-16,-8,-5,1,0,7,-3
13:50:41:627774,-7,-16,-8,-5,1,0,7,-3
13:50:41:633790,-4,-2,-25,-20,-16,-8,-5,-4
13:50:41:641309,-5,-3,7,-1,-4,0,7,2
13:50:41:649052,-5,-3,7,-1,-4,0,7,2
13:50:41:656310,1,-2,12,26,18,0,-3,1
13:50:41:663770,-4,-14,-17,-15,-12,-18,-11,-7
13:50:41:672064,-4,-14,-17,-15,-12,-18,-11,-7
13:50:41:672763,-5,-10,-1,-12,-6,8,-4,1
13:50:41:686978,3,9,4,6,0,2,3,5
13:50:41:687719,3,9,4,6,0,2,3,5
13:50:41:693760,-1,3,0,-1,-1,-8,-9,-2
13:50:41:701322,2,9,-1,-10,4,13,-6,2
13:50:41:708822,2,9,-1,-10,4,13,-6,2
13:50:41:716377,-1,24,7,6,-1,-6,8,-4
13:50:41:723805,-2,-5,-13,-5,-3,-7,-6,-2
13:50:41:732117,-2,-5,-13,-5,-3,-7,-6,-2
13:50:41:732748,2,-6,13,5,6,2,-6,-1
13:50:41:746969,2,-6,-9,-17,-12,-15,-1,-3
13:50:41:747754,2,-6,-9,-17,-12,-15,-1,-3
13:50:41:761316,-2,1,-5,0,21,-3,8,3
13:50:41:768869,-2,1,-5,0,21,-3,8,3
13:50:41:776279,2,7,9,5,4,7,5,-4
13:50:41:783840,0,-4,-18,2,0,-1,8,0
13:50:41:791363,0,-4,-18,2,0,-1,8,0
13:50:41:798982,2,-2,-13,4,7,3,-5,1
13:50:41:807009,0,1,11,5,-2,5,-2,0
13:50:41:807853,0,1,11,5,-2,5,-2,0
13:50:41:813806,-6,-13,17,-3,-12,-7,-6,-1
13:50:41:829505,-3,-19,-1,3,3,-8,-19,-9
13:50:41:830264,-3,-19,-1,3,3,-8,-19,-9
13:50:41:836362,-1,0,-19,-15,0,4,7,3
13:50:41:843752,0,17,14,15,4,8,10,-1
13:50:41:851375,0,17,14,15,4,8,10,-1
13:50:41:858829,1,2,-8,-12,3,-3,-3,-2
13:50:41:867006,-4,-1,0,10,-3,5,5,0
13:50:41:867719,-4,-1,0,10,-3,5,5,0
13:50:41:873853,2,-13,-9,-3,-8,-4,1,2
13:50:41:889528,-9,-8,-2,-7,-1,-21,-3,-7
