Time,EMG1,EMG2,EMG3,EMG4,EMG5,EMG6,EMG7,EMG8
13:50:51:297078,2,-5,-6,6,19,6,-7,-4
13:50:51:297862,0,-9,2,12,-4,-10,-9,-8
13:50:51:304739,0,-9,2,12,-4,-10,-9,-8
13:50:51:305445,-1,-9,-2,-8,1,3,5,2
13:50:51:318972,-2,6,-4,-10,2,5,5,0
13:50:51:335327,-2,6,-4,-10,2,5,5,0
13:50:51:336138,-1,0,6,-14,5,-5,19,-4
13:50:51:336911,-3,-1,-1,-4,4,-13,-14,-4
13:50:51:341495,-3,-1,-1,-4,4,-13,-14,-4
13:50:51:348989,-4,3,-4,-5,-12,-4,-17,-2
13:50:51:365318,-1,1,1,20,14,-4,-3,-6
13:50:51:366092,-1,1,1,20,14,-4,-3,-6
13:50:51:366907,-2,9,-1,-9,-12,-8,-12,-2
13:50:51:378959,0,-2,0,-17,-6,14,17,5
13:50:51:387220,0,-2,0,-17,-6,14,17,5
13:50:51:387886,-6,-12,3,4,9,4,-1,-5
13:50:51:402158,-1,8,7,-5,2,0,-9,-1
13:50:51:402929,-1,8,7,-5,2,0,-9,-1
13:50:51:408980,2,-1,-1,-3,9,-2,-6,-5
13:50:51:416516,-4,-5,-4,-5,0,0,1,1
13:50:51:424650,-4,-5,-4,-5,0,0,1,1
13:50:51:425439,4,-4,-1,-10,-12,-9,-8,6
13:50:51:439069,3,-7,-18,-1,5,-5,-1,4
13:50:51:447100,3,-7,-18,-1,5,-5,-1,4
13:50:51:447920,-3,-3,-20,1,-7,1,-5,6
13:50:51:454040,-2,-8,5,2,-5,-6,-4,-4
13:50:51:469706,-2,-8,5,2,-5,-6,-4,-4
13:50:51:470441,5,3,15,7,1,1,-9,-1
13:50:51:485377,15,-2,0,2,3,10,4,-4
13:50:51:486102,15,-2,0,2,3,10,4,-4
13:50:51:486938,9,-5,-5,-8,19,10,10,-1
13:50:51:499025,-12,-3,-3,-23,-11,-6,4,-4
13:50:51:507156,-12,-3,-3,-23,-11,-6,4,-4
13:50:51:507899,-17,-5,2,-13,7,9,-19,0
13:50:51:513895,-13,5,24,-5,-12,-5,-7,-5
13:50:51:521503,-13,5,24,-5,-12,-5,-7,-5
13:50:51:537196,-6,-2,-3,1,-4,-5,0,-4
13:50:51:537838,-1,13,-2,-12,-4,0,-1,8
13:50:51:544599,-1,13,-2,-12,-4,0,-1,8
13:50:51:545448,0,-1,-8,4,-3,15,19,2
13:50:51:558948,1,-2,-5,-9,-5,-15,-5,-4
13:50:51:567817,1,-2,-5,-9,-5,-15,-5,-4
13:50:51:568637,-2,5,3,7,5,8,0,1
13:50:51:573923,-1,-3,3,9,2,4,-5,-2
13:50:51:581525,-1,-3,3,9,2,4,-5,-2
13:50:51:589021,-2,-4,-8,20,-12,-4,6,-4
13:50:51:605387,-8,-4,-12,14,7,-2,11,-10
13:50:51:606096,-8,-4,-12,14,7,-2,11,-10
13:50:51:606942,-2,4,6,-26,-8,-23,-14,0
13:50:51:619015,6,0,14,21,-12,0,9,1
13:50:51:627105,6,0,14,21,-12,0,9,1
13:50:51:627908,-1,-2,0,11,4,6,-8,-3
13:50:51:633942,-4,-11,-24,-2,-2,4,-9,-6
13:50:51:641518,-4,-11,-24,-2,-2,4,-9,-6
13:50:51:649031,5,8,20,3,-7,-16,-2,-1
13:50:51:656401,-3,-3,3,0,0,-9,0,1
13:50:51:664671,-3,-3,3,0,0,-9,0,1
13:50:51:665486,-2,-2,-12,-12,4,-7,5,3
13:50:51:678929,1,0,-1,16,14,15,5,4
13:50:51:687222,1,0,-1,16,14,15,5,4
13:50:51:687935,-1,0,-7,-15,-3,8,6,0
13:50:51:693885,-2,-1,-5,-23,-9,-11,-6,3
13:50:51:709640,-2,-1,-5,-23,-9,-11,-6,3
13:50:51:710446,-1,-5,-5,13,21,16,-3,-2
13:50:51:716539,0,5,5,-5,-14,2,-3,-1
13:50:51:724683,0,5,5,-5,-14,2,-3,-1
13:50:51:725433,-7,-6,2,-3,-11,-19,4,0
13:50:51:739408,-1,-7,-10,12,7,-6,4,-1
13:50:51:747132,-1,-7,-10,12,7,-6,4,-1
13:50:51:747905,5,3,-8,-9,-20,-9,1,-2
13:50:51:753996,5,6,4,3,16,10,-2,0
13:50:51:761468,5,6,4,3,16,10,-2,0
13:50:51:777097,2,-7,-8,-25,1,11,-7,4
13:50:51:777858,2,-8,-3,-20,-10,-10,3,2
13:50:51:784690,2,-8,-3,-20,-10,-10,3,2
13:50:51:785464,-1,0,8,13,-7,-9,-9,-3
13:50:51:807809,1,-2,-1,11,-6,5,3,-7
13:50:51:808602,1,-2,-1,11,-6,5,3,-7
13:50:51:809369,-4,1,9,11,-2,2,11,-3
13:50:51:813911,0,5,9,15,12,-3,-5,2
13:50:51:821570,0,5,9,15,12,-3,-5,2
13:50:51:829004,-2,-10,-12,7,-7,-2,-12,-6
13:50:51:836551,-3,-1,-1,-14,0,15,5,3
13:50:51:843928,-3,-1,-1,-14,0,15,5,3
13:50:51:851419,1,3,4,-1,-2,-24,-6,-2
13:50:51:867776,-2,2,9,24,-16,-14,-15,-7
13:50:51:868559,-2,2,9,24,-16,-14,-15,-7
13:50:51:869366,0,5,0,21,14,1,-3,31
13:50:51:882211,-1,5,0,-21,-22,-18,-5,38
13:50:51:882925,-1,5,0,-21,-22,-18,-5,38
13:50:51:889013,-1,-3,-11,3,2,-11,18,-25
13:50:51:896409,1,-8,-7,-11,-10,-4,10,-16
13:50:51:904096,1,-8,-7,-11,-10,-4,10,-16
13:50:51:911402,0,-10,-1,-16,4,9,-11,-10
13:50:51:919047,-3,-3,-5,-21,-15,-12,-12,-16
13:50:51:927113,-3,-3,-5,-21,-15,-12,-12,-16
13:50:51:927913,3,6,5,24,14,16,18,-1
13:50:51:942648,-7,-9,-9,-18,1,-15,-4,-14
13:50:51:943451,-7,-9,-9,-18,1,-15,-4,-14
13:50:51:949069,-1,-1,-7,-20,-33,-6,-7,-7
13:50:51:956497,5,1,5,24,19,10,2,-1
13:50:51:963963,5,1,5,24,19,10,2,-1
13:50:51:971539,0,2,5,-14,-2,11,20,2
13:50:51:978949,-2,-9,-16,-5,0,7,2,1
13:50:51:987221,-2,-9,-16,-5,0,7,2,1
13:50:51:987932,-4,-7,-10,10,10,21,21,-2
13:50:52:2168,-4,7,9,11,10,26,25,4
13:50:52:2943,-4,7,9,11,10,26,25,4
13:50:52:8944,-21,8,7,-6,3,-6,-13,5
13:50:52:16555,-10,-1,-1,10,11,-6,-14,-2
13:50:52:24022,-10,-1,-1,10,11,-6,-14,-2
13:50:52:31427,6,-1,6,-1,1,-2,-9,1
13:50:52:38964,2,-5,-2,-9,-9,-10,-9,-5
13:50:52:47187,2,-5,-2,-9,-9,-10,-9,-5
13:50:52:47914,12,-1,-12,28,15,5,-7,2
13:50:52:62194,7,-2,-1,-1,5,5,1,-3
13:50:52:62963,7,-2,-1,-1,5,5,1,-3
13:50:52:68972,5,2,-1,-8,-5,-15,4,-3
13:50:52:76431,2,1,-4,3,-5,-3,-10,3
13:50:52:84043,2,1,-4,3,-5,-3,-10,3
13:50:52:91490,-1,-2,-3,-10,5,5,18,1
13:50:52:99019,-5,3,3,-2,1,-8,9,0
13:50:52:107209,-5,3,3,-2,1,-8,9,0
13:50:52:108011,4,0,8,-9,-6,-11,-18,2
13:50:52:122190,2,-11,-3,-22,-11,-20,-15,-9
13:50:52:122984,2,-11,-3,-22,-11,-20,-15,-9
13:50:52:128942,4,2,-1,7,5,9,1,-8
13:50:52:136507,-6,11,-1,2,2,-15,-4,6
13:50:52:144001,-6,11,-1,2,2,-15,-4,6
13:50:52:151489,-12,-8,-4,-8,-13,-6,-5,0
13:50:52:158929,2,-3,-1,3,2,20,4,2
13:50:52:167166,2,-3,-1,3,2,20,4,2
13:50:52:167930,-3,-8,-5,-4,-4,-16,-14,-3
13:50:52:182198,-4,-1,-1,-1,4,0,2,-1
13:50:52:182913,-4,-1,-1,-1,4,0,2,-1
13:50:52:188924,-3,6,1,-4,5,-2,6,-3
13:50:52:196397,2,2,-7,-5,4,1,-7,1
13:50:52:204057,2,2,-7,-5,4,1,-7,1
13:50:52:211465,-1,-3,3,31,6,-5,-10,3
13:50:52:218973,3,7,3,6,-2,9,15,0
13:50:52:227122,3,7,3,6,-2,9,15,0
13:50:52:227919,-3,4,10,-5,-11,-1,-2,1
13:50:52:242162,5,-4,5,-14,0,0,-7,-5
13:50:52:242986,5,-4,5,-14,0,0,-7,-5
13:50:52:249059,1,-7,-14,-7,2,-11,-6,5
13:50:52:256503,-10,-2,-1,-10,-6,-4,0,2
13:50:52:263937,-10,-2,-1,-10,-6,-4,0,2
13:50:52:271570,-4,-2,5,-11,-10,2,8,-8
13:50:52:278959,2,1,-7,6,-3,-6,-7,-6
13:50:52:287254,2,1,-7,6,-3,-6,-7,-6
13:50:52:287933,5,-6,6,2,-5,1,-14,5
13:50:52:302224,3,0,-2,5,11,9,15,1
13:50:52:303012,3,0,-2,5,11,9,15,1
13:50:52:308973,-2,5,1,-5,-4,-2,-2,-4
13:50:52:316510,0,-2,0,-8,-2,-6,-8,1
13:50:52:324054,0,-2,0,-8,-2,-6,-8,1
13:50:52:331485,-3,2,-4,-10,-2,-2,3,-3
13:50:52:339077,-5,5,-2,21,5,1,6,-3
13:50:52:347186,-5,5,-2,21,5,1,6,-3
13:50:52:347946,0,-7,-47,0,-6,-7,-16,-5
13:50:52:362160,-1,0,11,8,-3,-5,-13,4
13:50:52:362903,-1,0,11,8,-3,-5,-13,4
13:50:52:368961,-1,-1,19,0,-2,-1,2,1
13:50:52:376410,1,-9,10,-4,1,10,15,1
13:50:52:384072,1,-9,10,-4,1,10,15,1
13:50:52:391464,-1,1,13,-6,1,4,-8,-7
13:50:52:399018,-2,6,-14,-2,-15,-8,-12,-5
13:50:52:407140,-2,6,-14,-2,-15,-8,-12,-5
13:50:52:407953,-3,-1,-9,-3,13,5,14,3
13:50:52:422216,1,-2,5,4,7,-6,1,3
13:50:52:422966,1,-2,5,4,7,-6,1,3
13:50:52:429009,0,6,9,-3,-2,5,5,-2
13:50:52:436578,-6,-9,-8,-1,-7,-7,0,-5
13:50:52:443990,-6,-9,-8,-1,-7,-7,0,-5
13:50:52:451467,-1,-8,9,-5,14,11,-4,-3
13:50:52:458967,-4,-2,-2,11,-2,-3,-1,0
13:50:52:467145,-4,-2,-2,11,-2,-3,-1,0
13:50:52:467886,-1,3,-2,-4,-1,-1,7,-3
13:50:52:482201,0,-2,1,-7,-10,-6,2,-2
13:50:52:482910,0,-2,1,-7,-10,-6,2,-2
13:50:52:488956,2,2,-1,0,-2,-3,1,8
13:50:52:496426,0,-3,2,5,10,2,-47,0
13:50:52:504039,0,-3,2,5,10,2,-47,0
13:50:52:511439,-3,-4,-2,3,-9,-10,-11,-8
13:50:52:519047,-4,4,4,-5,3,10,21,-4
13:50:52:527146,-4,4,4,-5,3,10,21,-4
13:50:52:527929,-3,1,3,-16,-9,-3,16,-2
13:50:52:542126,1,-6,3,11,5,-17,9,-5
13:50:52:542943,1,-6,3,11,5,-17,9,-5
13:50:52:549018,4,8,-2,16,-3,7,14,8
13:50:52:556491,-4,-5,-9,-12,-6,4,-3,-5
13:50:52:563969,-4,-5,-9,-12,-6,4,-3,-5
13:50:52:571490,-4,-7,-9,-2,-6,-9,-27,-3
13:50:52:578929,-2,-6,-11,-16,-9,-9,3,3
13:50:52:587248,-2,-6,-11,-16,-9,-9,3,3
13:50:52:587990,0,1,-1,-3,-1,3,6,3
13:50:52:602818,7,2,-6,-8,-7,6,4,5
13:50:52:603578,7,2,-6,-8,-7,6,4,5
13:50:52:608899,-3,-1,4,33,18,4,4,-5
13:50:52:616488,-4,5,11,22,3,-15,-1,-5
13:50:52:623996,-4,5,11,22,3,-15,-1,-5
13:50:52:631453,-3,-2,2,-10,0,3,-2,5
13:50:52:638988,-3,-9,-16,-13,-22,-13,-2,1
13:50:52:647154,-3,-9,-16,-13,-22,-13,-2,1
13:50:52:647918,1,-6,3,13,24,5,4,4
13:50:52:662137,-1,-6,5,-21,-5,1,4,-6
13:50:52:662919,-1,-6,5,-21,-5,1,4,-6
13:50:52:668985,-1,2,-13,-3,-11,-6,2,-3
13:50:52:676437,2,16,8,14,12,8,-4,2
13:50:52:684075,2,16,8,14,12,8,-4,2
13:50:52:691465,2,1,2,-5,3,7,7,0
13:50:52:699099,-1,-1,-2,-5,2,9,-3,3
13:50:52:707174,-1,-1,-2,-5,2,9,-3,3
13:50:52:707907,1,-5,-6,0,3,0,5,-4
13:50:52:722163,-1,-4,2,2,9,4,6,3
13:50:52:722951,-1,-4,2,2,9,4,6,3
13:50:52:728952,-4,-10,-4,-10,-9,-12,-11,-9
13:50:52:736518,-6,-1,-1,-11,10,3,4,-3
13:50:52:743956,-6,-1,-1,-11,10,3,4,-3
13:50:52:751461,-1,2,2,-11,1,-5,2,4
13:50:52:758995,6,-4,-2,3,-8,3,1,2
13:50:52:767165,6,-4,-2,3,-8,3,1,2
13:50:52:767924,1,2,-2,13,1,-1,-11,-10
13:50:52:782251,5,6,1,8,5,-5,2,2
13:50:52:782914,5,6,1,8,5,-5,2,2
13:50:52:789034,6,1,3,-9,1,2,-6,4
13:50:52:804761,-10,-4,2,-13,-7,-9,0,-16
13:50:52:805452,-10,-4,2,-13,-7,-9,0,-16
13:50:52:811441,-1,1,-4,-14,-5,16,-7,1
13:50:52:819078,0,3,-1,4,-7,-7,-6,1
13:50:52:826453,0,3,-1,4,-7,-7,-6,1
13:50:52:834003,-5,-7,-7,0,-11,-11,3,-3
13:50:52:842178,-8,-3,-5,-12,-2,4,0,0
13:50:52:842946,-8,-3,-5,-12,-2,4,0,0
13:50:52:849043,3,1,-6,1,2,-2,-3,4
13:50:52:865076,1,2,1,-16,-13,-14,-4,-1
13:50:52:872224,1,2,1,-16,-13,-14,-4,-1
13:50:52:872914,-3,-1,-1,21,9,7,2,1
13:50:52:878963,2,-7,-3,20,17,13,7,1
13:50:52:886543,2,-7,-3,20,17,13,7,1
13:50:52:893880,-1,-1,12,-4,-18,-7,-5,-5
13:50:52:910257,-3,-4,-7,-2,-9,-10,-13,-3
13:50:52:911073,-3,-4,-7,-2,-9,-10,-13,-3
13:50:52:911865,0,1,3,0,8,-1,11,-2
13:50:52:924593,-3,2,-4,0,3,4,14,-5
13:50:52:925389,-3,2,-4,0,3,4,14,-5
13:50:52:931485,-3,3,-1,-1,-5,-15,-17,-2
13:50:52:939023,-1,-8,-3,14,13,9,-4,-1
13:50:52:946441,-1,-8,-3,14,13,9,-4,-1
13:50:52:954047,3,5,-6,-22,-10,-4,6,2
13:50:52:962132,-4,-29,-15,-13,-4,-4,-1,-2
13:50:52:962917,-4,-29,-15,-13,-4,-4,-1,-2
13:50:52:969018,-3,-6,-5,-5,-5,-7,-7,-2
13:50:52:984624,0,4,-9,-1,8,1,-5,6
13:50:52:985418,0,4,-9,-1,8,1,-5,6
13:50:52:991404,0,-2,4,1,-3,-19,6,0
13:50:52:998941,-3,0,0,0,-2,6,-1,-1
13:50:53:14637,-3,0,0,0,-2,6,-1,-1
13:50:53:15421,-2,-4,4,3,-2,11,-8,-3
13:50:53:22186,0,10,4,-3,-6,-5,2,2
13:50:53:22937,0,10,4,-3,-6,-5,2,2
13:50:53:28860,-1,-9,-4,4,1,8,22,-4
13:50:53:44332,3,9,13,-9,0,6,-1,4
13:50:53:52216,3,9,13,-9,0,6,-1,4
13:50:53:52874,-3,1,2,14,5,-5,0,-6
13:50:53:58959,-7,-19,-4,13,-1,-7,-4,-4
13:50:53:66529,-7,-19,-4,13,-1,-7,-4,-4
13:50:53:82830,-9,-13,-13,-3,-11,-10,-12,-1
13:50:53:83569,5,2,8,1,-5,3,0,3
13:50:53:84384,5,2,8,1,-5,3,0,3
13:50:53:89006,3,0,-16,-11,-11,1,7,3
13:50:53:104687,1,2,0,3,13,-3,-5,-7
13:50:53:105412,1,2,0,3,13,-3,-5,-7
13:50:53:119636,0,8,7,-22,-10,13,6,6
13:50:53:120371,2,6,-10,-29,2,1,2,2
13:50:53:126498,2,6,-10,-29,2,1,2,2
13:50:53:133977,1,-1,-6,1,22,7,-6,0
13:50:53:142533,3,-1,6,11,-3,6,3,3
13:50:53:157170,3,-1,6,11,-3,6,3,3
13:50:53:157934,-1,1,12,-2,-7,-4,-5,-8
13:50:53:164663,-4,3,-2,-2,-5,-11,-10,-8
13:50:53:165452,-4,3,-2,-2,-5,-11,-10,-8
13:50:53:171507,-3,0,-3,0,-3,-5,-1,-7
13:50:53:178929,1,5,1,-5,-1,0,-3,-5
13:50:53:186509,1,5,1,-5,-1,0,-3,-5
13:50:53:193938,2,12,1,-4,12,1,-10,2
13:50:53:202138,-5,-1,4,-14,-19,-2,4,-3
13:50:53:202946,-5,-1,4,-14,-19,-2,4,-3
13:50:53:208897,2,2,5,4,-8,-33,-4,4
13:50:53:224641,-4,4,1,46,23,16,-3,0
13:50:53:225439,-4,4,1,46,23,16,-3,0
13:50:53:231453,2,-10,-5,-6,5,10,2,2
13:50:53:239022,0,-5,-11,-16,-18,-21,-2,-1
13:50:53:263230,0,-5,-11,-16,-18,-21,-2,-1
13:50:53:263983,0,-2,-15,8,4,4,12,-4
13:50:53:264796,-3,-11,-7,-8,-5,6,-4,0
13:50:53:269729,-3,-11,-7,-8,-5,6,-4,0
13:50:53:270448,-1,-11,6,0,-8,3,-14,-4
13:50:53:284642,-1,-10,7,2,-2,-4,0,-1
13:50:53:285490,-1,-10,7,2,-2,-4,0,-1
13:50:53:291445,-6,-2,-5,-5,-9,-1,3,-1
13:50:53:299057,-1,7,6,17,12,13,1,-3
13:50:53:306535,-1,7,6,17,12,13,1,-3
13:50:53:313913,-2,-4,3,19,5,1,-3,-1
13:50:53:322265,-1,-5,-17,-19,-29,-15,-3,-3
13:50:53:322967,-1,-5,-17,-19,-29,-15,-3,-3
13:50:53:328947,-1,22,8,4,14,13,7,-1
13:50:53:344643,-3,7,2,-11,-14,-16,-3,-3
13:50:53:345446,-3,7,2,-11,-14,-16,-3,-3
13:50:53:351433,-5,-28,-11,3,2,-22,-2,1
13:50:53:367180,5,10,8,6,21,13,8,3
13:50:53:367941,5,10,8,6,21,13,8,3
13:50:53:373959,1,5,5,-14,-8,11,3,-7
13:50:53:382250,-1,-4,1,17,11,9,4,2
13:50:53:382960,-1,-4,1,17,11,9,4,2
13:50:53:388959,3,8,10,6,-8,2,-9,1
13:50:53:404700,-3,-3,-5,-10,-8,8,3,4
13:50:53:405492,-3,-3,-5,-10,-8,8,3,4
13:50:53:411379,-4,-5,-11,1,10,2,-10,-1
13:50:53:427109,1,1,3,4,9,2,-3,-1
13:50:53:427961,1,1,3,4,9,2,-3,-1
13:50:53:433918,-2,3,4,-1,-10,-12,-4,0
13:50:53:442125,0,0,-7,-4,0,5,0,2
13:50:53:442941,0,0,-7,-4,0,5,0,2
13:50:53:449017,-1,2,-2,-8,-7,-9,-2,-3
13:50:53:472744,-4,-19,-2,-9,-11,-14,-9,-10
13:50:53:473542,-4,-19,-2,-9,-11,-14,-9,-10
13:50:53:474355,4,-6,-6,-2,1,12,4,8
13:50:53:478942,-2,4,0,0,-7,-19,-7,-3
13:50:53:486606,-2,4,0,0,-7,-19,-7,-3
13:50:53:493862,0,-2,7,-4,-9,-21,-2,-3
13:50:53:510280,0,3,1,6,13,9,-1,0
13:50:53:511031,0,3,1,6,13,9,-1,0
13:50:53:511890,-5,1,3,5,0,7,5,-5
13:50:53:524588,-2,7,-4,-9,-11,-15,0,-8
13:50:53:525409,-2,7,-4,-9,-11,-15,0,-8
13:50:53:531488,-3,-5,1,6,5,0,3,-1
13:50:53:538979,-1,-4,0,-5,15,16,6,-42
13:50:53:546422,-1,-4,0,-5,15,16,6,-42
13:50:53:554038,-3,-11,-3,15,-3,-6,-6,-63
13:50:53:562101,-4,0,-5,10,-16,-10,3,6
13:50:53:562908,-4,0,-5,10,-16,-10,3,6
13:50:53:576481,-1,0,-8,-4,1,10,-3,31
13:50:53:584597,1,-14,-1,-4,-6,-4,-3,29
13:50:53:585384,1,-14,-1,-4,-6,-4,-3,29
13:50:53:591404,2,1,-8,-16,4,-3,0,25
13:50:53:599034,-2,7,-5,-11,4,-3,-3,19
13:50:53:606504,-2,7,-5,-11,4,-3,-3,19
13:50:53:613889,1,-4,9,-3,-9,1,-3,14
13:50:53:622176,1,-4,9,5,-7,-8,-7,2
13:50:53:622923,1,-4,9,5,-7,-8,-7,2
13:50:53:628930,-4,4,-7,-8,6,-16,-12,6
13:50:53:644645,-4,4,-7,-8,6,-16,-12,6
13:50:53:645417,-2,2,0,-1,-1,-3,1,-2
13:50:53:651398,-1,-4,-10,-10,-15,-1,15,-7
13:50:53:667162,-1,-4,-10,-10,-15,-1,15,-7
13:50:53:667906,2,-6,7,9,9,4,1,-4
13:50:53:682905,-5,-9,-10,-10,-1,12,2,-2
13:50:53:683615,-5,-9,-10,-10,-1,12,2,-2
13:50:53:684387,1,7,-4,-2,5,-1,0,2
13:50:53:689011,2,-4,14,9,3,3,1,-4
13:50:53:705106,2,-4,14,9,3,3,1,-4
13:50:53:705859,-3,-7,1,1,-1,2,-6,-7
13:50:53:711388,-1,-7,3,-7,0,3,-4,0
13:50:53:727143,-1,-7,3,-7,0,3,-4,0
13:50:53:727911,-5,0,5,0,-4,-10,0,3
13:50:53:733969,-3,6,5,-8,1,5,1,-2
13:50:53:742610,-3,6,5,-8,1,5,1,-2
13:50:53:749099,-1,-11,-17,-2,4,-7,2,-7
13:50:53:756436,5,3,-5,-16,-4,-4,-3,-2
13:50:53:764662,5,3,-5,-16,-4,-4,-3,-2
13:50:53:765504,0,8,2,-12,-2,14,-4,-1
13:50:53:771535,4,17,13,-1,-6,-8,0,-2
13:50:53:787261,4,17,13,-1,-6,-8,0,-2
13:50:53:787964,-2,-4,-1,2,0,-1,-1,0
13:50:53:793895,-4,7,-14,5,3,3,-15,1
13:50:53:802163,-4,7,-14,5,3,3,-15,1
13:50:53:802897,0,11,4,9,5,4,-1,0
13:50:53:816472,-3,-8,-5,8,2,-5,0,0
13:50:53:824610,-3,-8,-5,8,2,-5,0,0
13:50:53:825386,0,-6,3,-2,-5,-8,2,-4
13:50:53:831485,-1,-2,-9,8,-1,0,2,-1
13:50:53:855352,-1,-2,-9,8,-1,0,2,-1
13:50:53:856089,-1,19,-6,-8,-1,-9,8,-3
13:50:53:856883,-5,11,2,-8,-2,-3,-3,0
13:50:53:862145,-5,11,2,-8,-2,-3,-3,0
13:50:53:862915,-3,5,-15,-9,-5,-5,-5,0
13:50:53:876419,-2,0,1,5,2,-1,-3,0
13:50:53:884636,-2,0,1,5,2,-1,-3,0
13:50:53:885456,0,-21,4,4,10,14,3,-1
13:50:53:891407,-1,-18,0,-5,-6,-9,-6,-10
13:50:53:907169,-1,-18,0,-5,-6,-9,-6,-10
13:50:53:907918,9,0,5,-4,-17,-3,-3,-3
13:50:53:913872,8,10,0,11,10,0,1,3
13:50:53:922215,8,10,0,11,10,0,1,3
13:50:53:922943,-6,-10,-19,-2,-3,-2,-8,1
13:50:53:936543,0,0,-3,0,-1,1,5,0
13:50:53:944645,0,0,-3,0,-1,1,5,0
13:50:53:945442,-2,15,24,4,4,-2,5,0
13:50:53:958988,0,-7,-4,9,11,5,9,0
13:50:53:967167,0,-7,-4,9,11,5,9,0
13:50:53:967891,1,-6,-6,-10,-1,-11,-7,4
13:50:53:982886,-1,-4,5,2,-8,-11,-6,-4
13:50:53:983575,-1,-4,5,2,-8,-11,-6,-4
13:50:53:984362,-1,-12,0,3,-4,0,-2,-9
13:50:53:996431,-3,-2,-10,-21,-9,6,0,-3
13:50:54:4735,-3,-2,-10,-21,-9,6,0,-3
13:50:54:5444,-3,21,4,-2,1,-2,-8,-5
13:50:54:11399,-5,-2,6,9,-6,-12,-7,0
13:50:54:27158,-5,-2,6,9,-6,-12,-7,0
13:50:54:27950,-2,-4,5,8,-4,5,-3,-1
13:50:54:33994,-2,-3,4,-5,6,-3,-4,-4
13:50:54:42199,-2,-3,4,-5,6,-3,-4,-4
13:50:54:42989,5,2,0,-12,0,1,5,2
13:50:54:56912,-2,-3,-3,4,12,9,-6,1
13:50:54:64663,-2,-3,-3,4,12,9,-6,1
13:50:54:65475,-4,-8,-10,8,0,10,10,2
13:50:54:71512,0,0,7,1,5,16,18,-6
13:50:54:87172,0,0,7,1,5,16,18,-6
13:50:54:87928,-2,-13,-6,-15,-8,-9,-7,-3
13:50:54:93893,-1,-2,-3,-5,-6,-14,3,1
13:50:54:102191,-1,-2,-3,-5,-6,-14,3,1
13:50:54:102958,-3,-6,-8,13,0,-8,-6,-1
13:50:54:116494,-1,4,-5,6,-3,-5,-6,-3
13:50:54:124688,-1,4,-5,6,-3,-5,-6,-3
13:50:54:125430,2,2,6,7,3,2,-4,1
13:50:54:131449,0,11,-10,-6,2,-1,-1,-1
13:50:54:147130,0,11,-10,-6,2,-1,-1,-1
13:50:54:147909,0,-10,3,23,8,4,0,-3
13:50:54:153976,2,7,17,-5,-10,-7,-5,0
13:50:54:162158,2,7,17,-5,-10,-7,-5,0
13:50:54:162927,-1,9,-2,2,11,13,-4,3
13:50:54:176467,-1,12,-1,0,-9,8,13,1
13:50:54:184664,-1,12,-1,0,-9,8,13,1
13:50:54:185457,0,17,3,-6,-10,-6,16,1
13:50:54:191397,0,5,2,-20,-8,-11,-14,1
13:50:54:207159,0,5,2,-20,-8,-11,-14,1
13:50:54:207903,0,-21,-23,-24,-3,-7,-1,-3
13:50:54:213897,0,2,-2,7,-3,-2,-4,0
13:50:54:222211,0,2,-2,7,-3,-2,-4,0
13:50:54:222939,-1,3,4,-1,-2,-4,-6,-2
13:50:54:236550,-3,-9,2,-8,0,-1,-1,-1
13:50:54:244640,-3,-9,2,-8,0,-1,-1,-1
13:50:54:245435,-8,-28,-6,-8,-3,-7,4,-4
13:50:54:251407,0,-1,-7,9,5,12,4,4
13:50:54:267121,0,-1,-7,9,5,12,4,4
13:50:54:267912,3,20,9,1,2,13,6,0
13:50:54:273987,0,-7,1,4,0,-21,-9,-9
13:50:54:282199,0,-7,1,4,0,-21,-9,-9
13:50:54:282913,-1,-3,11,2,0,8,7,-1
13:50:54:296433,-40,13,16,10,8,8,4,3
13:50:54:304710,-40,13,16,10,8,8,4,3
13:50:54:305406,-38,1,6,0,0,-7,-11,-2
13:50:54:311434,33,-12,-7,-32,-3,7,13,-1
13:50:54:327109,33,-12,-7,-32,-3,7,13,-1
13:50:54:327893,29,3,-6,-11,-2,-11,-2,5
13:50:54:334009,20,-3,7,11,-1,-4,-79,-6
13:50:54:342152,20,-3,7,11,-1,-4,-79,-6
13:50:54:342914,9,-1,-3,20,-2,-7,-59,-6
13:50:54:356473,-4,-5,-14,19,6,3,73,4
13:50:54:364619,-4,-5,-14,19,6,3,73,4
13:50:54:365419,5,11,2,-6,-13,-12,114,-3
13:50:54:371528,-6,13,3,7,-4,5,127,-4
13:50:54:387229,-6,13,3,7,-4,5,127,-4
13:50:54:387967,3,3,4,3,4,0,86,1
13:50:54:393882,-9,-27,-28,-21,-10,-6,33,-5
13:50:54:402156,-9,-27,-28,-21,-10,-6,33,-5
13:50:54:402930,-9,-5,-6,1,4,1,10,-2
13:50:54:416511,-2,-15,-1,3,9,0,-30,0
13:50:54:424411,-2,-15,-1,3,9,0,-30,0
13:50:54:432209,0,6,7,-8,0,7,-13,-1
13:50:54:432876,1,-9,-4,-3,-4,-5,-13,-1
13:50:54:447151,1,-9,-4,-3,-4,-5,-13,-1
13:50:54:447930,4,-2,2,-7,-1,3,-9,0
13:50:54:454036,1,7,3,4,3,-6,-7,-3
13:50:54:462137,1,7,3,4,3,-6,-7,-3
13:50:54:462942,-6,1,-3,-11,-11,-15,-7,-4
13:50:54:476439,-7,-21,-8,2,0,-1,-6,-4
13:50:54:484680,-7,-21,-8,2,0,-1,-6,-4
13:50:54:485446,-4,-4,2,5,7,16,-14,4
13:50:54:491457,-4,-1,-4,-1,1,-10,-10,4
13:50:54:507188,-4,-1,-4,-1,1,-10,-10,4
13:50:54:507946,-1,-3,-2,1,-7,4,-7,-5
13:50:54:513903,-1,21,6,-7,-11,-6,-9,-4
13:50:54:522213,-1,21,6,-7,-11,-6,-9,-4
13:50:54:522926,3,9,-6,-5,-3,-9,-2,-2
13:50:54:536481,1,0,-12,0,1,-1,-1,2
13:50:54:544643,1,0,-12,0,1,-1,-1,2
13:50:54:545459,0,13,-5,2,4,-4,-4,-3
13:50:54:551472,4,14,15,9,9,3,-1,2
13:50:54:567142,4,14,15,9,9,3,-1,2
13:50:54:567934,-4,-28,-7,2,-3,-1,-14,-2
13:50:54:573880,-2,-11,-11,-8,0,2,-4,0
13:50:54:582230,-2,-11,-11,-8,0,2,-4,0
13:50:54:582947,2,10,21,-3,9,21,6,4
13:50:54:596368,-2,-15,1,-3,-10,5,-8,1
13:50:54:604733,-2,-15,1,-3,-10,5,-8,1
13:50:54:605466,1,6,-6,-9,-5,-10,-5,-2
13:50:54:611400,-2,-6,-12,1,12,0,6,-1
13:50:54:627136,-2,-6,-12,1,12,0,6,-1
13:50:54:627914,-6,-27,12,24,9,2,4,-3
13:50:54:633954,1,1,-3,-2,-1,0,-9,-5
13:50:54:642184,1,1,-3,-2,-1,0,-9,-5
13:50:54:642958,-11,-13,-30,-11,-5,-8,-7,0
13:50:54:656443,1,-4,2,-5,2,8,0,1
13:50:54:664654,1,-4,2,-5,2,8,0,1
13:50:54:665537,2,6,-7,-6,-7,-4,5,2
13:50:54:671522,-5,5,2,-3,-5,-9,3,-4
13:50:54:687205,-5,5,2,-3,-5,-9,3,-4
13:50:54:687926,2,-5,0,8,4,0,1,3
13:50:54:693857,4,10,12,-1,-9,-42,-2,-3
13:50:54:701475,4,10,12,-1,-9,-42,-2,-3
13:50:54:708897,6,22,14,2,2,4,5,-1
13:50:54:716498,-4,-9,12,13,-3,20,-1,2
13:50:54:724652,-4,-9,12,13,-3,20,-1,2
13:50:54:725465,-3,-11,-18,-16,-3,4,-9,0
13:50:54:738980,-7,-17,-11,18,12,10,-2,-1
13:50:54:747117,-7,-17,-11,18,12,10,-2,-1
13:50:54:747916,-1,1,8,-3,0,8,4,-6
13:50:54:753943,1,12,-7,-5,-2,2,-9,-2
13:50:54:761479,1,12,-7,-5,-2,2,-9,-2
13:50:54:769006,-1,-21,-20,-8,-10,-6,2,-3
13:50:54:776452,-4,-6,2,-3,6,-7,1,-6
13:50:54:784703,-4,-6,2,-3,6,-7,1,-6
13:50:54:785434,-1,11,-3,-4,-1,-14,-6,-2
13:50:54:799083,-2,4,0,-14,-11,-12,-8,2
13:50:54:807202,-2,4,0,-14,-11,-12,-8,2
13:50:54:807971,-2,-14,-5,-12,3,1,4,-3
13:50:54:822256,-1,0,8,10,9,11,-1,0
13:50:54:822975,-1,0,8,10,9,11,-1,0
13:50:54:828891,-5,-15,-8,3,-7,10,3,6
13:50:54:836500,3,-23,-14,-13,-15,-8,-9,-2
13:50:54:844638,3,-23,-14,-13,-15,-8,-9,-2
13:50:54:845456,-6,5,-1,2,2,-3,-7,-7
13:50:54:858945,-1,-4,-4,0,0,6,1,-3
13:50:54:867183,-1,-4,-4,0,0,6,1,-3
13:50:54:867961,7,14,19,2,5,-3,-4,0
13:50:54:873919,1,10,1,-7,-4,-6,4,2
13:50:54:881469,1,10,1,-7,-4,-6,4,2
13:50:54:888958,-6,-15,-34,-8,-6,-2,3,-2
13:50:54:896395,-4,-20,-4,4,-1,4,0,-2
13:50:54:904715,-4,-20,-4,4,-1,4,0,-2
13:50:54:905438,-6,12,10,-3,-13,-18,-7,-1
13:50:54:918951,-3,10,2,2,1,-3,1,-3
13:50:54:927139,-3,10,2,2,1,-3,1,-3
13:50:54:927918,1,11,0,-5,-7,-13,-19,0
13:50:54:933999,2,-1,0,-12,-6,-1,1,0
13:50:54:941531,2,-1,0,-12,-6,-1,1,0
13:50:54:949060,2,6,9,16,10,17,3,2
13:50:54:956462,-1,5,-1,0,1,5,-2,2
13:50:54:964668,-1,5,-1,0,1,5,-2,2
13:50:54:965424,-7,-23,-5,2,-4,-10,-12,1
13:50:54:978922,4,5,-11,4,6,2,-1,2
13:50:54:987163,4,5,-11,4,6,2,-1,2
13:50:54:987937,4,15,9,6,2,2,2,-2
13:50:54:993911,-3,-4,9,1,-3,-6,4,-4
13:50:55:1471,-3,-4,9,1,-3,-6,4,-4
13:50:55:8972,8,-24,-1,-10,-2,9,10,3
13:50:55:16529,-3,-3,6,3,-7,-6,3,3
13:50:55:24680,-3,-3,6,3,-7,-6,3,3
13:50:55:25414,2,33,19,11,4,-19,-13,2
13:50:55:38969,5,25,-2,-2,8,23,11,4
13:50:55:47092,5,25,-2,-2,8,23,11,4
13:50:55:47892,-13,-16,-8,-7,-3,-6,-3,-3
13:50:55:54013,-8,-18,-4,-6,-1,0,-2,-6
13:50:55:61499,-8,-18,-4,-6,-1,0,-2,-6
13:50:55:68952,11,-32,-20,-26,-6,-9,-2,0
13:50:55:76437,-3,23,11,2,2,8,1,1
13:50:55:84638,-3,23,11,2,2,8,1,1
13:50:55:85435,0,14,1,9,1,-1,5,-2
13:50:55:99108,2,-27,-6,-9,-6,-11,-10,-4
13:50:55:107152,2,-27,-6,-9,-6,-11,-10,-4
13:50:55:107927,-5,11,19,16,3,4,0,-4
13:50:55:113875,1,-4,1,-1,-4,-1,-6,0
13:50:55:121556,1,-4,1,-1,-4,-1,-6,0
13:50:55:128891,-2,7,16,-2,3,4,3,1
13:50:55:136513,-6,-13,-15,-5,2,-5,-8,-1
13:50:55:144659,-6,-13,-15,-5,2,-5,-8,-1
13:50:55:145412,-12,-35,-47,-12,-2,4,2,-6
13:50:55:158952,-1,8,-11,-3,-2,-6,7,-2
13:50:55:167200,-1,8,-11,-3,-2,-6,7,-2
13:50:55:167963,2,-13,22,9,6,0,2,5
13:50:55:173923,0,24,13,-10,-3,-3,5,4
13:50:55:181460,0,24,13,-10,-3,-3,5,4
13:50:55:188964,1,21,-5,-7,-4,-2,1,-5
13:50:55:196417,6,35,11,7,-7,3,-3,0
13:50:55:204674,6,35,11,7,-7,3,-3,0
13:50:55:205403,-1,12,0,-2,-7,-12,4,1
13:50:55:219011,4,4,-14,-5,4,0,3,0
13:50:55:227174,4,4,-14,-5,4,0,3,0
13:50:55:227954,-1,-31,-4,16,5,12,0,-8
13:50:55:233985,-1,-4,-20,7,12,9,13,3
13:50:55:241481,-1,-4,-20,7,12,9,13,3
13:50:55:249091,4,15,13,5,-9,-11,-4,-1
13:50:55:256473,-8,-27,-5,-7,-3,-3,-7,-5
13:50:55:264661,-8,-27,-5,-7,-3,-3,-7,-5
13:50:55:265485,-8,-49,-1,-5,-2,-1,-3,-6
13:50:55:278995,1,25,13,1,-5,-3,1,-2
13:50:55:287200,1,25,13,1,-5,-3,1,-2
13:50:55:287889,-1,-1,-23,9,0,-5,13,-1
13:50:55:293919,-3,-14,-12,-12,-7,-5,10,-8
13:50:55:301533,-3,-14,-12,-12,-7,-5,10,-8
13:50:55:309017,3,23,7,-21,0,1,-7,1
13:50:55:316565,4,-2,15,42,17,2,-18,-4
13:50:55:324696,4,-2,15,42,17,2,-18,-4
13:50:55:325440,1,14,-1,18,6,2,-11,8
13:50:55:339024,-11,-17,0,-12,-10,-8,-13,-2
13:50:55:347114,-11,-17,0,-12,-10,-8,-13,-2
13:50:55:347907,-4,-2,-5,-4,2,9,-27,-1
13:50:55:353985,1,-4,5,2,-3,0,-14,-3
13:50:55:361439,1,-4,5,2,-3,0,-14,-3
13:50:55:368965,-5,9,4,-25,-16,-16,8,-5
13:50:55:376443,-4,2,7,-12,11,5,10,4
13:50:55:384650,-4,2,7,-12,11,5,10,4
13:50:55:385412,0,16,7,7,4,2,13,-5
13:50:55:399064,3,11,-9,7,-13,-20,1,-2
13:50:55:407170,3,11,-9,7,-13,-20,1,-2
13:50:55:407944,-7,-4,5,1,-1,4,0,2
13:50:55:422148,-9,-2,-17,-26,-7,-9,-12,0
13:50:55:422928,-9,-2,-17,-26,-7,-9,-12,0
13:50:55:428867,8,22,4,16,13,8,5,2
13:50:55:436529,-10,-16,-8,-3,-1,-4,13,1
13:50:55:445060,-10,-16,-8,-3,-1,-4,13,1
13:50:55:451428,5,41,27,-13,-5,6,-2,0
13:50:55:458929,-12,-50,-67,-16,-2,-5,-11,-5
13:50:55:466958,-12,-50,-67,-16,-2,-5,-11,-5
13:50:55:474606,4,-6,-5,14,1,4,6,-1
13:50:55:475352,5,12,34,12,-6,10,10,-6
13:50:55:481523,5,12,34,12,-6,10,10,-6
13:50:55:489015,1,-6,8,7,-3,-6,-11,-2
13:50:55:496423,7,33,18,14,25,5,5,2
13:50:55:504701,7,33,18,14,25,5,5,2
13:50:55:505409,1,-16,-10,-10,1,-2,5,2
13:50:55:518951,-1,-24,-7,-10,-6,-4,-15,7
13:50:55:527158,-1,-24,-7,-10,-6,-4,-15,7
13:50:55:527960,0,1,-23,-9,1,-4,-3,-1
13:50:55:542140,11,10,22,8,-10,-5,1,-5
13:50:55:542952,11,10,22,8,-10,-5,1,-5
13:50:55:549013,-10,-34,-21,-5,-5,-1,-1,-2
13:50:55:556423,-1,4,3,4,-2,-2,2,-3
13:50:55:564681,-1,4,3,4,-2,-2,2,-3
13:50:55:565468,-1,-7,7,-8,-2,-9,-5,1
13:50:55:578937,0,-18,-22,3,2,-6,5,0
13:50:55:587241,0,-18,-22,3,2,-6,5,0
13:50:55:587943,2,10,6,-17,-6,3,-2,-1
13:50:55:593863,-1,1,-10,-19,-16,-3,-16,3
13:50:55:601520,-1,1,-10,-19,-16,-3,-16,3
13:50:55:608958,2,-1,1,5,2,0,-5,0
13:50:55:616501,1,2,15,4,4,1,-10,38
13:50:55:624638,1,2,15,4,4,1,-10,38
13:50:55:625416,-13,-9,5,1,-4,-4,-3,-1
13:50:55:638966,-2,-27,-9,0,1,-2,8,-18
13:50:55:647164,-2,-27,-9,0,1,-2,8,-18
13:50:55:647942,5,5,-7,7,-1,4,0,-17
13:50:55:662175,5,21,6,8,-8,-7,-1,-8
13:50:55:662944,5,21,6,8,-8,-7,-1,-8
13:50:55:668980,-3,-19,-6,11,4,-6,-6,-6
13:50:55:676429,9,10,-3,-5,-10,-2,3,-6
13:50:55:684067,9,10,-3,-5,-10,-2,3,-6
13:50:55:691440,-5,6,-13,-3,0,13,14,3
13:50:55:699078,-9,-1,-3,1,2,10,-3,2
13:50:55:707149,-9,-1,-3,1,2,10,-3,2
13:50:55:707909,-4,1,-5,-5,5,-1,-6,3
13:50:55:722166,-8,-2,-5,7,5,3,5,-4
13:50:55:722918,-8,-2,-5,7,5,3,5,-4
13:50:55:728958,-4,-36,-2,2,-1,-8,2,-1
13:50:55:736480,-15,-4,12,-1,5,-8,-6,-12
13:50:55:743934,-15,-4,12,-1,5,-8,-6,-12
13:50:55:751501,-7,-18,-9,-11,-3,3,1,-3
13:50:55:758970,3,-1,21,-9,-1,10,6,-2
13:50:55:767136,3,-1,21,-9,-1,10,6,-2
13:50:55:767916,15,26,14,-6,0,8,7,2
13:50:55:782100,-7,7,-32,-15,-10,-12,1,1
13:50:55:782890,-7,7,-32,-15,-10,-12,1,1
13:50:55:789035,0,-12,-8,5,4,-1,21,4
13:50:55:796438,1,-21,2,3,5,-5,1,-6
13:50:55:804036,1,-21,2,3,5,-5,1,-6
13:50:55:811377,-3,14,4,2,-7,0,-14,0
13:50:55:819696,3,4,-33,-22,-6,-3,-3,-2
13:50:55:820429,3,4,-33,-22,-6,-3,-3,-2
13:50:55:826385,2,8,14,-10,-1,-13,1,3
13:50:55:842168,16,-2,11,-21,-5,0,5,-1
13:50:55:842955,16,-2,11,-21,-5,0,5,-1
13:50:55:849044,7,8,-11,-13,-3,-4,-13,-1
13:50:55:856457,1,-15,19,9,-3,4,-1,3
13:50:55:864000,1,-15,19,9,-3,4,-1,3
13:50:55:871529,3,16,1,12,2,0,-2,8
13:50:55:879622,-7,1,32,123,-2,4,5,2
13:50:55:880393,-7,1,32,123,-2,4,5,2
13:50:55:886453,-2,-59,-1,50,0,-8,0,-6
13:50:55:902185,-4,3,-2,-37,4,7,-8,0
13:50:55:902910,-4,3,-2,-37,4,7,-8,0
13:50:55:908962,-7,20,-3,-52,-18,-8,-4,-3
13:50:55:916527,-4,18,18,-21,11,2,4,-4
13:50:55:924043,-4,18,18,-21,11,2,4,-4
13:50:55:931447,11,37,0,-19,-1,24,-4,-2
13:50:55:939665,-6,-8,-27,-13,-10,4,15,-1
13:50:55:940447,-6,-8,-27,-13,-10,4,15,-1
13:50:55:946432,-14,-33,-9,-6,3,-6,0,-3
13:50:55:962153,-12,2,9,-9,-1,-19,-17,-8
13:50:55:962935,-12,2,9,-9,-1,-19,-17,-8
13:50:55:968943,1,-4,-30,-1,0,-4,0,3
13:50:55:976433,1,0,-5,-24,1,-6,5,6
13:50:55:984035,1,0,-5,-24,1,-6,5,6
13:50:55:991450,1,19,36,22,2,-13,0,-3
13:50:55:999671,12,2,3,-5,-1,10,1,-2
13:50:56:393,12,2,3,-5,-1,10,1,-2
13:50:56:6468,-3,3,19,3,8,5,-2,1
13:50:56:22158,4,29,-17,-8,-8,-12,-6,0
13:50:56:22900,4,29,-17,-8,-8,-12,-6,0
13:50:56:28929,-7,-8,-2,18,30,16,6,-5
13:50:56:36579,16,2,12,7,3,9,-4,-1
13:50:56:43936,16,2,12,7,3,9,-4,-1
13:50:56:51449,3,9,-8,-12,-8,-11,0,-2
13:50:56:59603,-2,1,-3,-6,8,8,13,-2
13:50:56:60435,-2,1,-3,-6,8,8,13,-2
13:50:56:66478,-4,5,9,-14,-16,-11,-10,1
13:50:56:82221,-3,7,8,4,7,3,-2,-2
13:50:56:82929,-3,7,8,4,7,3,-2,-2
13:50:56:88964,-2,-1,-9,-1,3,1,-2,-3
13:50:56:96406,4,4,21,-6,-5,-36,-10,-3
13:50:56:104091,4,4,21,-6,-5,-36,-10,-3
13:50:56:111384,-4,2,-11,-8,83,13,-1,4
13:50:56:119718,8,-2,9,-2,-13,-3,-15,0
13:50:56:120410,8,-2,9,-2,-13,-3,-15,0
13:50:56:126440,-14,-11,-6,-18,-52,-13,7,-1
13:50:56:142133,6,-13,-50,-9,-25,-8,-3,4
13:50:56:142987,6,-13,-50,-9,-25,-8,-3,4
13:50:56:149035,-3,-15,-6,-6,-36,5,2,3
13:50:56:156421,-12,-17,18,6,0,2,-3,-6
13:50:56:163946,-12,-17,18,6,0,2,-3,-6
13:50:56:171565,-1,0,2,4,-4,0,2,-3
13:50:56:179607,-8,-47,23,-5,8,2,3,1
13:50:56:180439,-8,-47,23,-5,8,2,3,1
13:50:56:186475,3,-21,-6,-9,-25,-16,-9,-5
13:50:56:202201,-15,11,-10,27,4,4,6,-3
13:50:56:202895,-15,11,-10,27,4,4,6,-3
13:50:56:208924,15,33,13,54,-6,6,9,3
13:50:56:216496,-1,8,-22,-16,5,9,-7,-4
13:50:56:223997,-1,8,-22,-16,5,9,-7,-4
13:50:56:231429,-3,-3,19,-30,-4,1,-6,-5
13:50:56:239649,-5,-7,-12,-7,5,10,7,3
13:50:56:240461,-5,-7,-12,-7,5,10,7,3
13:50:56:246395,-6,-8,-23,-32,-10,-23,-12,-1
13:50:56:262141,-12,-31,-18,3,95,7,-2,-6
13:50:56:262942,-12,-31,-18,3,95,7,-2,-6
13:50:56:268991,-3,-5,6,4,-3,-11,-11,-8
13:50:56:276441,12,2,7,16,-41,1,4,7
13:50:56:284092,12,2,7,16,-41,1,4,7
13:50:56:291478,5,-2,-18,-3,-31,-5,-3,-1
13:50:56:299699,-9,17,1,6,-26,0,3,84
13:50:56:300481,-9,17,1,6,-26,0,3,84
13:50:56:306478,-3,-1,-6,10,6,4,3,15
13:50:56:322197,13,21,7,-4,-22,6,9,-20
13:50:56:322880,13,21,7,-4,-22,6,9,-20
13:50:56:328938,25,-3,-3,21,10,10,6,-28
13:50:56:336517,-1,-6,4,-14,-23,-24,-6,-21
13:50:56:343918,-1,-6,4,-14,-23,-24,-6,-21
13:50:56:351467,-20,5,2,17,18,8,-11,-9
13:50:56:359652,-3,-1,1,1,-3,12,-5,-25
13:50:56:360454,-3,-1,1,1,-3,12,-5,-25
13:50:56:366527,-13,-9,10,-12,-3,-19,-3,-9
13:50:56:382165,0,23,5,5,10,0,5,-20
13:50:56:382919,0,23,5,5,10,0,5,-20
13:50:56:388961,2,18,7,-7,-3,-2,4,-7
13:50:56:396429,-17,-23,7,24,4,-4,-4,-22
13:50:56:404032,-17,-23,7,24,4,-4,-4,-22
13:50:56:411351,4,-11,-7,-1,-8,-5,-2,-10
13:50:56:419683,-2,-3,6,18,18,12,6,-1
13:50:56:420447,-2,-3,6,18,18,12,6,-1
13:50:56:426414,-10,-23,-12,-10,-7,-6,-1,-3
13:50:56:442119,2,-3,-17,-16,-11,-7,-10,0
13:50:56:442937,2,-3,-17,-16,-11,-7,-10,0
13:50:56:448971,0,7,5,-8,-2,10,8,2
13:50:56:456435,1,12,6,-6,1,-7,5,1
13:50:56:463961,1,12,6,-6,1,-7,5,1
13:50:56:480332,8,-12,-3,1,6,-1,-7,6
13:50:56:481086,-1,-17,-3,-3,1,7,8,-2
13:50:56:481898,-1,-17,-3,-3,1,7,8,-2
13:50:56:486458,-5,-6,-4,-13,-9,-1,9,1
13:50:56:502176,2,14,2,-18,-7,-13,-12,3
13:50:56:502922,2,14,2,-18,-7,-13,-12,3
13:50:56:508904,-5,0,-3,29,13,21,7,3
13:50:56:516536,10,6,2,13,5,4,-4,0
13:50:56:524020,10,6,2,13,5,4,-4,0
13:50:56:531443,1,10,15,-3,-3,-11,-8,1
13:50:56:539691,2,1,11,3,1,-10,-6,1
13:50:56:540467,2,1,11,3,1,-10,-6,1
13:50:56:546393,4,8,5,1,6,-9,-8,-1
13:50:56:562146,1,-5,12,-9,-8,14,34,5
13:50:56:562944,1,-5,12,-9,-8,14,34,5
13:50:56:568937,-1,10,-8,3,14,16,18,2
13:50:56:584635,-5,4,-5,0,10,-4,-14,-1
13:50:56:585466,-5,4,-5,0,10,-4,-14,-1
13:50:56:591420,14,9,3,20,3,4,1,6
13:50:56:599709,-6,-23,-85,7,17,6,-3,-6
13:50:56:600427,-6,-23,-85,7,17,6,-3,-6
13:50:56:613930,-10,-14,-19,-5,11,9,-12,-5
13:50:56:622211,2,23,17,-17,-16,-17,-9,-1
13:50:56:622948,2,23,17,-17,-16,-17,-9,-1
13:50:56:628889,-8,-14,-7,-11,-6,-6,-5,-2
13:50:56:644602,-15,6,15,-6,3,-3,-1,0
13:50:56:645424,-15,6,15,-6,3,-3,-1,0
13:50:56:651420,5,11,15,-51,-5,-6,-3,6
13:50:56:659574,2,12,13,-15,-9,-2,-13,-2
13:50:56:660458,2,12,13,-15,-9,-2,-13,-2
13:50:56:673965,-17,-6,5,18,2,3,3,2
13:50:56:682249,-3,5,2,32,-13,-23,4,-1
13:50:56:682893,-3,5,2,32,-13,-23,4,-1
13:50:56:689003,-4,4,10,18,4,-5,-2,-2
13:50:56:704663,12,-9,3,6,8,11,-2,0
13:50:56:705406,12,-9,3,6,8,11,-2,0
13:50:56:711449,1,-13,-20,18,-5,1,-2,-2
13:50:56:719628,10,-17,22,10,-2,-1,-1,-1
13:50:56:720378,10,-17,22,10,-2,-1,-1,-1
13:50:56:734016,5,0,-3,-9,-7,-9,4,3
13:50:56:742151,1,0,-4,-2,3,8,5,5
13:50:56:742971,1,0,-4,-2,3,8,5,5
13:50:56:749069,-6,1,-1,8,-2,6,-7,-4
13:50:56:764600,-3,11,9,-18,-1,-8,-2,-3
13:50:56:765461,-3,11,9,-18,-1,-8,-2,-3
13:50:56:771530,-16,-20,-6,15,12,14,0,1
13:50:56:779588,-12,-8,-3,4,-6,-4,-5,-2
13:50:56:780425,-12,-8,-3,4,-6,-4,-5,-2
13:50:56:793893,3,6,1,-21,-10,-11,-4,-6
13:50:56:802155,3,1,-5,13,-3,13,-1,-2
13:50:56:802928,3,1,-5,13,-3,13,-1,-2
13:50:56:808944,-4,11,5,-13,-7,-7,1,2
13:50:56:824675,13,-7,1,-4,4,-2,5,8
13:50:56:825446,13,-7,1,-4,4,-2,5,8
13:50:56:831439,-7,-15,-8,4,5,5,6,-4
13:50:56:839644,-6,-4,-11,-11,-6,-10,-8,-9
13:50:56:840418,-6,-4,-11,-11,-6,-10,-8,-9
13:50:56:853981,-2,-12,0,-8,5,6,1,1
13:50:56:862175,-2,-4,4,2,11,11,-3,0
13:50:56:862942,-2,-4,4,2,11,11,-3,0
13:50:56:868970,8,-11,13,-2,0,4,6,-1
13:50:56:884633,23,-4,-1,-11,-12,-11,-2,6
13:50:56:885493,23,-4,-1,-11,-12,-11,-2,6
13:50:56:891426,-20,-11,-16,4,2,-3,-5,0
13:50:56:899719,-9,-5,3,-7,5,-3,-3,-1
13:50:56:900471,-9,-5,3,-7,5,-3,-3,-1
13:50:56:913913,8,12,-10,-4,-9,-13,-2,-6
13:50:56:921861,2,8,-1,-19,-3,-2,-5,-5
13:50:56:929612,2,8,-1,-19,-3,-2,-5,-5
13:50:56:930409,21,12,15,0,5,-3,2,4
13:50:56:944625,-6,6,-3,-3,-11,4,1,-3
13:50:56:945460,-6,6,-3,-3,-11,4,1,-3
13:50:56:951448,3,5,6,-10,-7,2,-3,0
13:50:56:967107,3,5,6,-10,-7,2,-3,0
13:50:56:967932,-3,15,21,-10,-8,-9,-3,0
13:50:56:973924,7,19,11,1,-2,-16,-4,2
13:50:56:982215,7,19,11,1,-2,-16,-4,2
13:50:56:982950,-18,-21,-24,-11,17,7,2,0
13:50:56:989006,7,8,5,15,8,1,-4,3
13:50:57:4673,7,8,5,15,8,1,-4,3
13:50:57:5422,2,16,3,20,3,4,-3,-3
13:50:57:11380,2,-5,-16,-6,-4,-2,-2,1
13:50:57:27175,2,-5,-16,-6,-4,-2,-2,1
13:50:57:27939,-3,-24,-25,-7,-8,-6,-4,-1
13:50:57:33964,-4,-2,5,2,2,-5,0,-9
13:50:57:42152,-4,-2,5,2,2,-5,0,-9
13:50:57:42976,-13,-12,-5,2,-2,-7,-7,-7
13:50:57:49058,-7,-8,-9,-12,-5,-5,-12,-5
13:50:57:64689,-7,-8,-9,-12,-5,-5,-12,-5
13:50:57:65460,-4,8,5,2,-10,-13,-6,2
13:50:57:71506,-8,-10,-9,-14,10,5,7,-3
13:50:57:87219,-8,-10,-9,-14,10,5,7,-3
13:50:57:87916,5,3,2,10,10,7,14,3
13:50:57:93919,-6,-8,-14,0,-9,1,1,-1
13:50:57:102167,-6,-8,-14,0,-9,1,1,-1
13:50:57:102928,-8,-25,-3,1,3,2,-1,-4
13:50:57:108918,2,-9,23,6,5,9,2,2
13:50:57:124648,2,-9,23,6,5,9,2,2
13:50:57:125435,16,23,4,9,-7,5,4,5
13:50:57:131468,9,3,-5,-14,-18,-10,-7,2
13:50:57:147105,9,3,-5,-14,-18,-10,-7,2
13:50:57:147903,-12,1,-1,1,6,6,-2,-4
13:50:57:154077,-6,0,8,-11,-8,-3,-4,-2
13:50:57:162142,-6,0,8,-11,-8,-3,-4,-2
13:50:57:162882,-12,-5,-10,37,22,19,11,-2
13:50:57:168947,2,10,-5,12,6,3,9,9
13:50:57:184613,2,10,-5,12,6,3,9,9
13:50:57:185408,-12,-1,10,-21,-18,-18,-11,-2
13:50:57:191460,0,6,10,3,0,-2,3,-2
13:50:57:207593,0,6,10,3,0,-2,3,-2
13:50:57:208364,1,10,-2,-13,0,10,4,-10
13:50:57:213928,0,0,-8,-4,-1,5,2,0
13:50:57:222158,0,0,-8,-4,-1,5,2,0
13:50:57:222875,5,-19,-17,-3,-13,-5,-3,1
13:50:57:228982,-4,6,-17,-3,-8,-9,-4,-7
13:50:57:244632,-4,6,-17,-3,-8,-9,-4,-7
13:50:57:245460,-2,12,-11,-8,-6,-11,-4,-1
13:50:57:251461,-16,-17,-1,0,1,-1,-5,-2
13:50:57:267212,-16,-17,-1,0,1,-1,-5,-2
13:50:57:267949,4,-2,0,-10,-1,-6,-2,1
13:50:57:273954,7,14,19,13,1,6,-2,5
13:50:57:282227,7,14,19,13,1,6,-2,5
13:50:57:282933,9,6,5,3,-5,-12,1,3
13:50:57:289063,-2,-2,-19,-10,-6,-4,-3,-2
13:50:57:304701,-2,-2,-19,-10,-6,-4,-3,-2
13:50:57:305420,5,-4,10,8,8,15,4,-2
13:50:57:311389,1,-2,-2,27,1,-5,-1,-3
13:50:57:319065,1,-2,-2,27,1,-5,-1,-3
13:50:57:326485,-5,0,-9,-4,6,-2,-8,-3
13:50:57:334005,-2,5,8,-5,-1,-6,0,-1
13:50:57:342112,-2,5,8,-5,-1,-6,0,-1
13:50:57:342905,-2,-20,0,1,-4,3,-6,-2
13:50:57:349053,-11,12,-3,-8,5,19,24,3
13:50:57:364608,-11,12,-3,-8,5,19,24,3
13:50:57:365389,-1,-8,0,-15,-3,-7,8,-1
13:50:57:371506,13,12,-1,-7,-5,-11,-14,1
13:50:57:378955,13,12,-1,-7,-5,-11,-14,1
13:50:57:394595,-5,-7,-12,0,-12,-19,3,-3
13:50:57:395375,17,7,-6,1,11,9,-17,0
13:50:57:402159,17,7,-6,1,11,9,-17,0
13:50:57:402956,8,7,4,-13,-6,0,-14,1
13:50:57:408980,-20,-24,4,-2,-11,-5,4,-4
13:50:57:424628,-20,-24,4,-2,-11,-5,4,-4
13:50:57:425398,-3,4,5,27,16,0,8,4
13:50:57:431461,8,-5,-3,-17,-3,4,0,-7
13:50:57:438993,8,-5,-3,-17,-3,4,0,-7
13:50:57:446376,-8,-20,-4,0,10,-8,-9,-5
13:50:57:453964,4,-4,-2,-4,-9,-10,-2,2
13:50:57:462143,4,-4,-2,-4,-9,-10,-2,2
13:50:57:462887,-4,12,5,-16,-8,2,-3,-8
13:50:57:468899,-6,-7,-18,-5,-9,-24,-9,-2
13:50:57:484631,-6,-7,-18,-5,-9,-24,-9,-2
13:50:57:485432,2,6,-2,6,-1,4,-2,1
13:50:57:491475,-3,0,6,2,1,-2,-2,0
13:50:57:499133,-3,0,6,2,1,-2,-2,0
13:50:57:506430,-6,-5,20,8,0,0,0,-3
13:50:57:513889,-8,-14,-4,-12,-7,-2,-1,-9
13:50:57:522231,-8,-14,-4,-12,-7,-2,-1,-9
13:50:57:522933,0,-3,-11,-12,-8,2,4,4
13:50:57:536523,3,11,7,17,8,6,-1,5
13:50:57:544596,3,11,7,17,8,6,-1,5
13:50:57:545384,4,7,-12,11,-9,-2,-2,2
13:50:57:551388,3,-9,5,16,12,9,-2,-1
13:50:57:559002,3,-9,5,16,12,9,-2,-1
13:50:57:566549,-4,4,-5,-12,0,-9,-5,3
13:50:57:573887,-2,14,6,-1,3,2,6,-2
13:50:57:582291,-2,14,6,-1,3,2,6,-2
13:50:57:582918,16,-7,-2,-17,-10,5,2,-2
13:50:57:596371,1,-13,-6,2,2,6,-7,-3
13:50:57:604761,1,-13,-6,2,2,6,-7,-3
13:50:57:605410,-5,-1,1,-12,1,0,3,0
13:50:57:611364,-10,-6,-17,-4,-14,-19,-4,-6
13:50:57:619056,-10,-6,-17,-4,-14,-19,-4,-6
13:50:57:626452,-1,-1,5,21,13,9,2,3
13:50:57:633967,-3,16,-7,-9,3,6,1,4
13:50:57:642163,-3,16,-7,-9,3,6,1,4
13:50:57:642998,1,24,6,-5,-9,-3,2,-1
13:50:57:656436,0,4,-2,14,0,-12,1,-5
13:50:57:664695,0,4,-2,14,0,-12,1,-5
13:50:57:665483,0,-9,0,-6,10,7,0,-1
13:50:57:671509,5,-9,-1,-7,-3,2,-4,-6
13:50:57:678936,5,-9,-1,-7,-3,2,-4,-6
13:50:57:686492,3,2,4,16,6,3,11,2
13:50:57:693936,-2,-8,11,-18,-25,-8,5,-1
13:50:57:702160,-2,-8,11,-18,-25,-8,5,-1
13:50:57:702942,3,-7,-2,-2,5,0,8,0
13:50:57:716482,2,11,6,-5,5,21,16,0
13:50:57:724614,2,11,6,-5,5,21,16,0
13:50:57:725412,0,1,10,-17,-11,-17,-21,-5
13:50:57:731456,-3,-15,2,-13,7,0,-3,4
13:50:57:739050,-3,-15,2,-13,7,0,-3,4
13:50:57:746378,1,-5,0,7,-6,-6,-7,0
13:50:57:753913,-5,-16,-16,-3,0,-7,-8,-5
13:50:57:762099,-5,-16,-16,-3,0,-7,-8,-5
13:50:57:762880,-5,-17,-13,7,2,-5,-4,-2
13:50:57:776440,1,-16,-12,2,-17,-8,-4,-1
13:50:57:784639,1,-16,-12,2,-17,-8,-4,-1
13:50:57:785419,7,-3,3,5,9,5,-1,-1
13:50:57:791497,-5,-22,-13,15,0,-26,0,1
13:50:57:799115,-5,-22,-13,15,0,-26,0,1
13:50:57:806412,-13,0,-16,-16,-12,-3,-9,1
13:50:57:813885,-2,10,20,1,14,4,-2,1
13:50:57:822204,-2,10,20,1,14,4,-2,1
13:50:57:822932,-15,-18,-23,-2,-4,3,-7,-7
13:50:57:836526,8,15,26,6,8,5,2,1
13:50:57:844661,8,15,26,6,8,5,2,1
13:50:57:845449,-1,-1,8,-9,-3,-1,5,-5
13:50:57:851477,-2,-7,-6,13,-3,0,2,-2
13:50:57:859030,-2,-7,-6,13,-3,0,2,-2
13:50:57:866528,-11,1,2,6,-9,-14,-5,-6
13:50:57:873954,-13,-6,-11,-2,6,8,-2,1
13:50:57:882269,-13,-6,-11,-2,6,8,-2,1
13:50:57:882950,-6,6,-6,5,-5,7,0,-1
13:50:57:896385,2,16,-14,-20,10,7,2,0
13:50:57:904701,2,16,-14,-20,10,7,2,0
13:50:57:905443,-7,-4,1,-5,-1,5,5,-3
13:50:57:911392,-14,-21,-11,1,-9,10,13,0
13:50:57:919081,-14,-21,-11,1,-9,10,13,0
13:50:57:926457,3,0,5,20,33,22,19,4
13:50:57:933981,1,1,8,0,4,-2,-6,-5
13:50:57:942145,1,1,8,0,4,-2,-6,-5
13:50:57:942873,10,20,-1,-21,-22,-18,-13,-2
13:50:57:956458,5,18,-1,2,-5,-8,-6,-2
13:50:57:964699,5,18,-1,2,-5,-8,-6,-2
13:50:57:965458,4,5,1,-2,-11,-3,-8,3
13:50:57:971495,8,5,7,-1,-8,3,-2,-1
13:50:57:978937,8,5,7,-1,-8,3,-2,-1
13:50:57:986550,-15,-22,-13,4,12,1,-4,0
13:50:57:993900,9,-1,1,-2,-2,-2,-2,0
13:50:58:2150,9,-1,1,-2,-2,-2,-2,0
13:50:58:2906,-3,-16,2,-2,-3,-4,3,-6
13:50:58:16517,4,11,-3,9,-6,-27,-9,-2
13:50:58:24641,4,11,-3,9,-6,-27,-9,-2
13:50:58:25394,12,15,2,7,3,10,1,10
13:50:58:31488,-6,0,11,28,7,-1,-3,2
13:50:58:39009,-6,0,11,28,7,-1,-3,2
13:50:58:46380,4,-15,-16,-8,-5,-5,-4,-3
13:50:58:53944,-1,-6,3,-3,-5,4,-8,4
13:50:58:62126,-1,-6,3,-3,-5,4,-8,4
13:50:58:66419,-1,2,-4,-8,-3,2,3,-3
13:50:58:76465,14,14,2,-17,-8,-20,-7,-8
13:50:58:84690,14,14,2,-17,-8,-20,-7,-8
13:50:58:85417,-1,15,15,-2,8,-2,2,-4
13:50:58:91418,-4,6,3,-6,-2,17,-1,0
13:50:58:99001,-4,6,3,-6,-2,17,-1,0
13:50:58:106446,-8,-5,10,-4,4,10,8,1
13:50:58:113929,-2,-1,1,0,-5,-3,3,3
13:50:58:122261,-2,-1,1,0,-5,-3,3,3
13:50:58:122933,-7,-13,-1,-4,-8,-15,-14,-5
13:50:58:136489,-1,-2,-6,-3,7,17,10,-3
13:50:58:144651,-1,-2,-6,-3,7,17,10,-3
13:50:58:145457,8,1,1,-4,2,-6,-4,-5
13:50:58:151442,-1,6,-4,-7,0,-7,-2,-3
13:50:58:158990,-1,6,-4,-7,0,-7,-2,-3
13:50:58:166533,-7,-1,-19,-7,-13,-9,-5,0
13:50:58:173924,-4,-1,2,-2,-5,-3,1,4
13:50:58:182250,-4,-1,2,-2,-5,-3,1,4
13:50:58:182941,1,0,1,-14,-6,-8,-4,4
13:50:58:196406,-7,-13,-3,-1,2,-4,-10,-1
13:50:58:204696,-7,-13,-3,-1,2,-4,-10,-1
13:50:58:205418,9,0,-13,14,0,-5,7,1
13:50:58:211386,-5,-17,-21,-24,-4,2,4,-5
13:50:58:219010,-5,-17,-21,-24,-4,2,4,-5
13:50:58:226422,9,-7,-12,10,11,3,4,5
13:50:58:233930,2,1,0,-9,-4,2,1,-1
13:50:58:249715,2,1,0,-9,-4,2,1,-1
13:50:58:250419,2,4,6,-8,-1,0,-1,-3
13:50:58:256385,6,-4,-11,9,-1,-3,-8,1
13:50:58:264648,6,-4,-11,9,-1,-3,-8,1
13:50:58:265472,-4,-4,2,-3,-3,4,-3,2
13:50:58:271490,9,4,5,4,-5,-7,5,1
13:50:58:278941,9,4,5,4,-5,-7,5,1
13:50:58:286487,-8,-3,17,9,0,-1,0,-3
13:50:58:293930,4,-12,-11,-2,15,2,7,0
13:50:58:302169,4,-12,-11,-2,15,2,7,0
13:50:58:302941,3,10,3,-14,-15,-10,-6,4
13:50:58:316516,-10,-2,9,5,10,4,-7,-4
13:50:58:324640,-10,-2,9,5,10,4,-7,-4
13:50:58:325397,1,-3,-3,-16,0,15,2,-4
13:50:58:331442,-9,2,-9,7,-5,-15,-6,-2
13:50:58:339052,-9,2,-9,7,-5,-15,-6,-2
13:50:58:346369,-12,-31,1,10,0,-10,3,0
13:50:58:354004,-2,3,13,-5,0,7,-2,5
13:50:58:362161,-2,3,13,-5,0,7,-2,5
13:50:58:362918,-8,3,1,12,-10,-17,-4,-1
13:50:58:376439,-15,-5,-22,-14,3,-3,3,-3
13:50:58:384636,-15,-5,-22,-14,3,-3,3,-3
13:50:58:385393,3,4,3,-5,5,12,4,0
13:50:58:391414,0,7,3,0,-6,4,3,-3
13:50:58:399110,0,7,3,0,-6,4,3,-3
13:50:58:406445,3,15,-6,4,4,-11,-10,-2
13:50:58:413897,-1,-2,14,12,22,21,16,3
13:50:58:422258,-1,-2,14,12,22,21,16,3
13:50:58:422967,-6,-10,-6,8,0,8,-12,-7
13:50:58:436450,-8,-7,-11,-6,-12,-9,-8,-1
13:50:58:444605,-8,-7,-11,-6,-12,-9,-8,-1
13:50:58:445429,-5,16,1,-13,-1,-13,-10,-1
13:50:58:451410,3,-1,10,-3,-8,-11,-8,1
13:50:58:458979,3,-1,10,-3,-8,-11,-8,1
13:50:58:466485,18,17,3,6,-10,-3,12,-3
13:50:58:473943,4,-2,-4,14,6,2,5,0
13:50:58:481537,4,-2,-4,14,6,2,5,0
13:50:58:488959,9,-1,-14,18,2,-1,-7,-4
13:50:58:496405,4,-11,-5,5,11,-1,-3,2
13:50:58:504680,4,-11,-5,5,11,-1,-3,2
13:50:58:505385,-7,-4,0,-22,5,12,13,2
13:50:58:519774,0,7,0,-12,-4,-3,-1,-3
13:50:58:520433,0,7,0,-12,-4,-3,-1,-3
13:50:58:526443,0,-19,-5,-6,-2,8,1,2
13:50:58:534001,-1,14,13,13,-12,-4,-11,-2
13:50:58:541478,-1,14,13,13,-12,-4,-11,-2
13:50:58:549054,-8,-13,-7,2,5,3,-3,-3
13:50:58:556465,-4,-4,11,-9,-16,2,-1,-2
13:50:58:564635,-4,-4,11,-9,-16,2,-1,-2
13:50:58:565458,-2,18,10,2,10,6,8,-2
13:50:58:579553,4,-2,-12,-3,7,-15,-1,6
13:50:58:580362,4,-2,-12,-3,7,-15,-1,6
13:50:58:586490,-3,5,9,-10,-4,7,6,5
13:50:58:593920,-8,-3,-15,-8,-4,0,3,-7
13:50:58:601488,-8,-3,-15,-8,-4,0,3,-7
13:50:58:608867,-17,1,5,2,2,-2,-4,-6
13:50:58:616527,-1,13,-5,-4,-1,10,8,0
13:50:58:624657,-1,13,-5,-4,-1,10,8,0
13:50:58:625397,3,-8,4,1,-5,-6,-13,0
13:50:58:639654,1,-12,-1,3,2,-6,-2,-5
13:50:58:640419,1,-12,-1,3,2,-6,-2,-5
13:50:58:646355,-2,-2,-3,-8,-13,-1,2,-3
13:50:58:653962,-2,-12,7,-15,-2,-11,-3,-5
13:50:58:661468,-2,-12,7,-15,-2,-11,-3,-5
13:50:58:668991,12,-3,10,9,5,-5,-2,3
13:50:58:676427,-2,3,-1,10,0,3,-6,0
13:50:58:684628,-2,3,-1,10,0,3,-6,0
13:50:58:685409,-10,-11,-18,16,11,1,1,-5
13:50:58:699731,-4,-1,-9,-17,-16,-10,5,0
13:50:58:700438,-4,-1,-9,-17,-16,-10,5,0
13:50:58:706423,8,3,-3,-3,-6,7,3,-4
13:50:58:713907,10,10,6,27,20,9,-1,7
13:50:58:721554,10,10,6,27,20,9,-1,7
13:50:58:728938,-6,4,4,-11,-6,-11,-12,-2
13:50:58:736527,-11,-15,-19,-11,-22,-2,-2,-3
13:50:58:744632,-11,-15,-19,-11,-22,-2,-2,-3
13:50:58:745484,3,11,2,-4,-5,-13,2,-1
13:50:58:759648,1,-2,7,20,7,8,4,-1
13:50:58:760441,1,-2,7,20,7,8,4,-1
13:50:58:766516,1,2,4,10,1,-2,2,-1
13:50:58:773923,-3,0,1,-25,0,-24,-3,-5
13:50:58:781519,-3,0,1,-25,0,-24,-3,-5
13:50:58:789002,20,0,-12,-3,-1,8,9,9
13:50:58:796443,5,4,-10,-8,-2,5,-5,2
13:50:58:804712,5,4,-10,-8,-2,5,-5,2
13:50:58:805426,-6,-2,-8,-8,0,-4,-1,-1
13:50:58:819655,-5,-16,-7,-18,1,5,1,-5
13:50:58:820381,-5,-16,-7,-18,1,5,1,-5
13:50:58:826391,-19,-8,-4,-7,2,7,6,-1
13:50:58:833975,-2,-21,-11,-5,2,-1,6,-2
13:50:58:841520,-2,-21,-11,-5,2,-1,6,-2
13:50:58:849054,-3,-2,-3,1,7,-10,3,-4
13:50:58:856480,9,15,17,16,-3,-11,-2,-2
13:50:58:872239,9,15,17,16,-3,-11,-2,-2
13:50:58:872944,-4,-16,9,-5,-8,-9,-4,-5
13:50:58:879537,-7,5,7,3,-1,1,-1,-4
13:50:58:880371,-7,5,7,3,-1,1,-1,-4
13:50:58:886474,0,-5,-2,-7,-1,-6,-6,1
13:50:58:893921,2,-8,-15,-7,-3,10,0,-1
13:50:58:901487,2,-8,-15,-7,-3,10,0,-1
13:50:58:908903,-11,-4,10,8,-10,2,-3,-1
13:50:58:916495,-6,-4,11,15,17,9,1,5
13:50:58:924624,-6,-4,11,15,17,9,1,5
13:50:58:925403,6,19,-5,0,13,7,-6,4
13:50:58:939595,-6,-6,-5,-11,-12,18,14,4
13:50:58:940434,-6,-6,-5,-11,-12,18,14,4
13:50:58:946346,12,-1,5,-5,-10,-8,5,-2
13:50:58:953955,8,19,0,-2,6,-6,-9,-6
13:50:58:961467,8,19,0,-2,6,-6,-9,-6
13:50:58:977100,6,-2,-13,-17,-5,0,-1,-6
13:50:58:977861,-6,-17,-3,-3,-5,-21,-10,2
13:50:58:984635,-6,-17,-3,-3,-5,-21,-10,2
13:50:58:985386,-6,-8,12,-14,-5,-7,-9,1
13:50:58:999664,3,7,11,-3,2,5,-3,0
13:50:59:395,3,7,11,-3,2,5,-3,0
13:50:59:6466,-6,-7,3,3,6,-11,-1,-1
13:50:59:13927,8,-11,-5,-11,-4,-4,2,-4
13:50:59:21583,8,-11,-5,-11,-4,-4,2,-4
13:50:59:28874,-4,5,0,-8,3,7,2,-2
13:50:59:36496,1,23,9,12,-13,-12,-9,-2
13:50:59:44667,1,23,9,12,-13,-12,-9,-2
13:50:59:45423,-2,3,2,14,3,4,-2,-2
13:50:59:59654,-3,-1,-2,-4,-7,-6,2,-3
13:50:59:60470,-3,-1,-2,-4,-7,-6,2,-3
13:50:59:66477,7,24,-4,-8,1,2,7,0
13:50:59:73916,-2,9,19,16,2,-4,-2,1
13:50:59:81461,-2,9,19,16,2,-4,-2,1
13:50:59:89001,-5,6,5,21,0,0,-7,3
13:50:59:96398,4,3,-12,-3,-10,-2,-11,-6
13:50:59:104744,4,3,-12,-3,-10,-2,-11,-6
13:50:59:105426,-4,-10,-8,-10,5,1,-7,-2
13:50:59:119710,-8,-8,-2,11,1,6,-1,9
13:50:59:120424,-8,-8,-2,11,1,6,-1,9
13:50:59:126416,-1,-24,-12,7,-9,-11,6,1
13:50:59:133978,-1,-4,-6,-8,18,4,7,-3
13:50:59:141510,-1,-4,-6,-8,18,4,7,-3
13:50:59:149026,0,11,-2,0,-18,14,-1,-6
13:50:59:156447,0,2,2,-1,-6,-2,-2,-3
13:50:59:164654,0,2,2,-1,-6,-2,-2,-3
13:50:59:165496,-15,-22,5,18,8,13,2,0
13:50:59:179608,-4,-3,2,-21,2,-6,0,3
13:50:59:180443,-4,-3,2,-21,2,-6,0,3
13:50:59:186537,1,16,12,-1,11,1,2,-7
13:50:59:193881,2,4,0,-15,-8,0,-3,-2
13:50:59:201544,2,4,0,-15,-8,0,-3,-2
13:50:59:208954,6,-5,-3,10,-15,-5,-9,-1
13:50:59:216542,3,11,8,21,8,-15,-2,-7
13:50:59:224649,3,11,8,21,8,-15,-2,-7
13:50:59:225430,-3,5,12,26,18,7,13,3
13:50:59:239606,-21,-24,-13,-21,-10,-6,-3,-4
13:50:59:240391,-21,-24,-13,-21,-10,-6,-3,-4
13:50:59:246407,0,-3,-12,-17,-12,-5,4,2
13:50:59:253982,3,7,5,14,11,19,6,8
13:50:59:261403,3,7,5,14,11,19,6,8
13:50:59:268986,-6,-9,-9,-11,0,-8,-1,-5
13:50:59:276450,-4,-3,4,3,-14,-2,-2,-3
13:50:59:284659,-4,-3,4,3,-14,-2,-2,-3
13:50:59:285375,9,10,-2,-28,4,-4,0,3
13:50:59:299751,6,-12,-8,32,11,9,10,-3
13:50:59:300374,6,-12,-8,32,11,9,10,-3
13:50:59:306465,-10,-36,-1,-6,-16,-19,1,0
13:50:59:313920,3,-2,5,-7,6,5,8,0
13:50:59:321612,3,-2,5,-7,6,5,8,0
13:50:59:328908,5,5,-11,-2,3,3,-8,-1
13:50:59:336467,2,-1,-2,-7,0,-4,-6,-4
13:50:59:344618,2,-1,-2,-7,0,-4,-6,-4
13:50:59:345437,-4,-15,-18,-11,0,-4,-3,-4
13:50:59:359652,-22,-13,-14,-26,-12,-3,-14,-4
13:50:59:360415,-22,-13,-14,-26,-12,-3,-14,-4
13:50:59:366461,10,21,5,-18,-5,-7,-3,-1
13:50:59:373924,7,8,7,30,10,9,7,3
13:50:59:381484,7,8,7,30,10,9,7,3
13:50:59:388996,9,1,9,10,-7,1,1,-1
13:50:59:396378,-5,8,3,-21,-13,-7,-6,-1
13:50:59:404680,-5,8,3,-21,-13,-7,-6,-1
13:50:59:405422,-3,1,-3,-11,8,-4,0,-4
13:50:59:419687,5,-11,3,9,7,-4,-5,0
13:50:59:420417,5,-11,3,9,7,-4,-5,0
13:50:59:426443,-7,-3,-8,-12,-6,-3,-5,-4
13:50:59:442170,-8,-7,-13,-2,1,8,-9,4
13:50:59:442936,-8,-7,-13,-2,1,8,-9,4
13:50:59:448975,3,-3,-9,1,3,4,0,3
13:50:59:456432,-3,-3,5,-5,-6,-6,1,-11
13:50:59:463963,-3,-3,5,-5,-6,-6,1,-11
13:50:59:471485,-11,-1,5,20,1,4,-4,-3
13:50:59:479578,-8,-5,4,11,10,5,12,-2
13:50:59:480421,-8,-5,4,11,10,5,12,-2
13:50:59:486499,6,-6,-4,19,1,-8,-12,2
13:50:59:502202,16,-6,-11,-14,-11,-14,-8,3
13:50:59:502918,16,-6,-11,-14,-11,-14,-8,3
13:50:59:508944,-5,-10,-6,-1,8,11,14,0
13:50:59:516501,-10,-24,-18,-13,-9,-17,-17,-4
13:50:59:524008,-10,-24,-18,-13,-9,-17,-17,-4
13:50:59:531406,-8,-2,3,1,-3,5,6,-4
13:50:59:539634,-6,18,5,-5,-6,1,2,-6
13:50:59:540382,-6,18,5,-5,-6,1,2,-6
13:50:59:546405,1,-9,-2,-5,-2,-3,-8,4
13:50:59:562170,6,0,-6,9,0,-1,-2,-3
13:50:59:562926,6,0,-6,9,0,-1,-2,-3
13:50:59:569075,20,41,20,-9,-8,-11,-4,6
13:50:59:576452,8,4,19,-12,-4,-5,8,1
13:50:59:584039,8,4,19,-12,-4,-5,8,1
13:50:59:591433,-5,-12,-5,0,-8,-2,5,1
13:50:59:599724,-11,-3,4,9,-1,-7,4,-2
13:50:59:600410,-11,-3,4,9,-1,-7,4,-2
13:50:59:606454,19,12,4,4,0,6,4,-3
13:50:59:622165,5,2,-11,-6,-3,-3,-12,3
13:50:59:622909,5,2,-11,-6,-3,-3,-12,3
13:50:59:628929,-4,2,4,-5,13,3,-5,2
13:50:59:636553,-4,11,10,3,-1,-4,-1,0
13:50:59:643969,-4,11,10,3,-1,-4,-1,0
13:50:59:651396,-16,-9,-8,14,-8,-8,4,-4
13:50:59:659601,-3,-1,-4,-11,2,4,4,0
13:50:59:660438,-3,-1,-4,-11,2,4,4,0
13:50:59:666472,-1,-11,-7,-12,2,4,-7,-6
13:50:59:690311,-5,2,-7,13,10,4,8,1
13:50:59:691063,-5,2,-7,13,10,4,8,1
13:50:59:691884,-15,-10,-18,4,5,0,-14,-3
13:50:59:696391,7,4,3,-9,-7,2,-6,4
13:50:59:703989,7,4,3,-9,-7,2,-6,4
13:50:59:711437,-4,-5,-3,2,4,-4,-1,-3
13:50:59:719644,-13,-8,-11,-12,-6,2,1,-4
13:50:59:720387,-13,-8,-11,-12,-6,2,1,-4
13:50:59:726395,9,9,2,-3,-3,-4,-2,-2
13:50:59:742136,-7,11,6,-7,-6,-4,1,-5
13:50:59:742879,-7,11,6,-7,-6,-4,1,-5
13:50:59:749034,-8,10,8,6,1,-3,-2,2
13:50:59:756481,1,-18,-7,-6,3,1,5,-3
13:50:59:763938,1,-18,-7,-6,3,1,5,-3
13:50:59:771452,0,-8,-7,-9,7,9,6,-3
13:50:59:779628,-2,-6,-8,26,5,2,-3,-3
13:50:59:780436,-2,-6,-8,26,5,2,-3,-3
13:50:59:786506,-15,-25,-13,-8,-2,-5,3,-2
13:50:59:810317,11,21,11,0,-7,-4,-6,0
13:50:59:811066,11,21,11,0,-7,-4,-6,0
13:50:59:811811,6,10,-1,14,5,6,3,4
13:50:59:816471,3,7,-1,-2,-7,-7,0,2
13:50:59:823963,3,7,-1,-2,-7,-7,0,2
13:50:59:831437,0,6,-2,-11,-5,9,-7,-1
13:50:59:839586,-6,-9,-2,3,-3,1,7,-4
13:50:59:840419,-6,-9,-2,3,-3,1,7,-4
13:50:59:846360,3,-10,4,-2,-14,-2,-1,-4
13:50:59:862124,0,3,-6,-10,6,-7,-3,7
13:50:59:862913,0,3,-6,-10,6,-7,-3,7
13:50:59:869096,-3,13,20,-9,3,2,0,3
13:50:59:876512,4,5,5,-4,4,0,0,2
13:50:59:884035,4,5,5,-4,4,0,0,2
13:50:59:891384,-1,-2,-2,25,-3,-1,-1,-4
13:50:59:899733,-2,2,16,8,-9,9,-7,-3
13:50:59:900442,-2,2,16,8,-9,9,-7,-3
13:50:59:906446,6,0,1,-18,0,-6,1,-2
13:50:59:922173,9,-1,1,3,-3,3,4,-4
13:50:59:922945,9,-1,1,3,-3,3,4,-4
13:50:59:928884,13,5,5,-6,-2,-9,-2,1
13:50:59:936490,-2,-29,-11,-6,2,-8,-7,1
13:50:59:943938,-2,-29,-11,-6,2,-8,-7,1
13:50:59:951470,-5,3,-2,1,-7,-6,1,-6
13:50:59:959635,1,-7,-16,13,20,38,31,7
13:50:59:960425,1,-7,-16,13,20,38,31,7
13:50:59:966545,1,1,2,-13,1,-6,-2,0
13:50:59:982266,-11,-1,-6,-11,11,-11,-9,-4
13:50:59:982933,-11,-1,-6,-11,11,-11,-9,-4
13:50:59:988980,1,0,-5,-10,-3,3,-1,-1
13:50:59:996373,12,5,-15,-3,-10,-2,-7,-6
13:51:00:4026,12,5,-15,-3,-10,-2,-7,-6
13:51:00:11383,-8,-16,9,-10,-5,-2,-4,2
13:51:00:19703,2,20,5,8,-4,-10,-8,2
13:51:00:20472,2,20,5,8,-4,-10,-8,2
13:51:00:26385,8,-4,-3,-7,-8,-24,-4,1
13:51:00:42129,6,2,13,-6,-1,-1,2,-3
13:51:00:42926,6,2,13,-6,-1,-1,2,-3
13:51:00:49005,19,26,3,-4,-1,7,4,5
13:51:00:56448,-14,-9,3,-4,-3,-15,-6,-7
13:51:00:64014,-14,-9,3,-4,-3,-15,-6,-7
13:51:00:71551,-20,-6,0,-3,5,10,3,-4
13:51:00:79559,6,10,8,10,-9,-26,-17,-8
13:51:00:80361,6,10,8,10,-9,-26,-17,-8
13:51:00:86512,-7,1,-7,8,0,17,12,-2
13:51:00:102091,-7,-2,0,-21,-5,5,-3,2
13:51:00:102887,-7,-2,0,-21,-5,5,-3,2
13:51:00:108933,-4,15,-2,9,-9,2,-3,4
13:51:00:116529,6,-5,-10,-2,-9,-4,2,2
13:51:00:124004,6,-5,-10,-2,-9,-4,2,2
13:51:00:131441,-15,-11,0,20,13,5,-6,-10
13:51:00:139611,-5,1,11,2,-5,-13,-6,-4
13:51:00:140408,-5,1,11,2,-5,-13,-6,-4
13:51:00:146364,8,-2,-6,-2,-9,0,-2,-3
13:51:00:162135,-15,-9,6,-7,-3,1,7,-3
13:51:00:162872,-15,-9,6,-7,-3,1,7,-3
13:51:00:168938,-4,0,-1,6,13,1,19,4
13:51:00:176457,-1,-5,-13,-2,-3,-6,-10,-2
13:51:00:184002,-1,-5,-13,-2,-3,-6,-10,-2
13:51:00:191395,3,0,-14,-2,-8,-4,-17,5
13:51:00:199666,-12,-21,-6,2,6,15,-3,-2
13:51:00:200435,-12,-21,-6,2,6,15,-3,-2
13:51:00:206407,-6,-13,13,0,0,-5,-14,-4
13:51:00:222184,17,8,3,2,-1,-7,6,-1
13:51:00:222897,17,8,3,2,-1,-7,6,-1
13:51:00:228880,20,6,9,18,6,-1,4,5
13:51:00:236469,-2,2,-12,0,-8,2,-3,-2
13:51:00:243970,-2,2,-12,0,-8,2,-3,-2
13:51:00:251474,-15,-9,3,-12,-14,-9,-8,0
13:51:00:259618,2,4,6,-1,9,4,8,11
13:51:00:260460,2,4,6,-1,9,4,8,11
13:51:00:266522,-2,-1,-15,-7,1,-9,9,-2
13:51:00:282245,-2,-1,-15,-7,1,-9,9,-2
13:51:00:282935,4,-4,-2,8,18,-1,-3,-1
13:51:00:288958,16,-4,3,12,-1,-9,-2,-1
13:51:00:304690,16,-4,3,12,-1,-9,-2,-1
13:51:00:305397,4,4,-3,6,-10,6,15,0
13:51:00:311364,-7,-8,-7,-10,-12,-12,-3,-7
13:51:00:319716,-7,-8,-7,-10,-12,-12,-3,-7
13:51:00:320412,-11,2,4,15,9,-1,-2,-4
13:51:00:326390,-11,-17,0,7,-3,2,-5,-7
13:51:00:342142,-11,-17,0,7,-3,2,-5,-7
13:51:00:342909,-1,-2,-16,13,1,-2,0,0
13:51:00:348988,0,2,-2,6,5,10,8,2
13:51:00:364678,0,2,-2,6,5,10,8,2
13:51:00:365400,11,-11,9,-18,-5,1,1,-2
13:51:00:371468,-7,10,9,2,3,3,2,-1
13:51:00:379616,-7,10,9,2,3,3,2,-1
13:51:00:380414,-8,21,6,-11,-16,-14,-7,0
13:51:00:393933,-2,-11,-2,-9,-5,6,3,-5
13:51:00:402179,-2,-11,-2,-9,-5,6,3,-5
13:51:00:402884,-4,2,16,-4,-6,-10,-10,-2
13:51:00:408892,-2,3,-12,-10,-6,-8,-8,-5
13:51:00:424635,-2,3,-12,-10,-6,-8,-8,-5
13:51:00:425432,14,-11,0,-10,7,-4,-11,0
13:51:00:431421,4,9,-5,-12,-6,-4,-3,6
13:51:00:439665,4,9,-5,-12,-6,-4,-3,6
13:51:00:440446,3,-4,-31,0,1,24,20,2
13:51:00:454020,-8,-3,3,12,13,3,8,-3
13:51:00:462135,-8,-3,3,12,13,3,8,-3
13:51:00:462891,-9,-6,4,18,-1,-8,-6,1
13:51:00:468984,5,13,10,-7,-10,-15,-6,-3
13:51:00:484637,5,13,10,-7,-10,-15,-6,-3
13:51:00:485419,-2,-15,1,-3,-2,6,-6,-7
13:51:00:491538,1,18,19,3,7,9,-2,3
13:51:00:499718,1,18,19,3,7,9,-2,3
13:51:00:500425,-28,-12,-4,-17,-4,-11,-12,-9
13:51:00:513914,-5,3,-5,-12,-14,-10,-6,-9
13:51:00:522154,-5,3,-5,-12,-14,-10,-6,-9
13:51:00:522928,8,12,1,-11,10,27,42,7
13:51:00:528969,-8,-12,-13,-4,5,2,-9,0
13:51:00:544609,-8,-12,-13,-4,5,2,-9,0
13:51:00:545422,7,1,-4,-6,-12,-7,-13,3
13:51:00:551561,-3,-5,6,9,9,-1,5,-6
13:51:00:559640,-3,-5,6,9,9,-1,5,-6
13:51:00:560410,-3,-16,-1,6,9,-3,-6,3
13:51:00:573952,2,-16,-7,18,1,-3,-8,3
13:51:00:582113,2,-16,-7,18,1,-3,-8,3
13:51:00:582894,7,4,-9,-8,-5,4,-3,-2
13:51:00:588979,-6,0,3,0,-2,6,4,-2
13:51:00:604705,-6,0,3,0,-2,6,4,-2
13:51:00:605421,12,9,9,-3,0,-1,-2,6
13:51:00:611390,11,3,1,-6,3,12,-6,-1
13:51:00:619667,11,3,1,-6,3,12,-6,-1
13:51:00:620363,-14,-7,-1,-1,-2,-3,-13,-14
13:51:00:633935,-1,-2,-10,12,9,-3,2,1
13:51:00:642246,-1,-2,-10,12,9,-3,2,1
13:51:00:643013,0,-2,4,-4,-3,17,22,2
13:51:00:649002,-12,-17,-2,-24,-5,3,-2,-1
13:51:00:664710,-12,-17,-2,-24,-5,3,-2,-1
13:51:00:665548,1,29,8,-4,-9,-15,-12,-6
13:51:00:671562,0,0,-9,-19,-2,-2,10,3
13:51:00:679622,0,0,-9,-19,-2,-2,10,3
13:51:00:680396,-2,8,0,1,6,0,0,6
13:51:00:693911,-9,-7,-8,0,-10,-9,-9,-4
13:51:00:702274,-9,-7,-8,0,-10,-9,-9,-4
13:51:00:702906,-15,-12,0,-4,2,-2,-1,-3
13:51:00:708932,-2,-4,1,-5,-1,9,7,4
13:51:00:724672,-2,-4,1,-5,-1,9,7,4
13:51:00:725416,5,-10,-18,-4,-3,-4,-7,1
13:51:00:731416,-14,4,2,7,-1,-3,3,1
13:51:00:739687,-14,4,2,7,-1,-3,3,1
13:51:00:740404,-11,-3,3,-3,-12,-27,-16,-1
13:51:00:753968,16,23,-20,6,25,6,0,3
13:51:00:762108,16,23,-20,6,25,6,0,3
13:51:00:762905,-1,3,-4,10,0,8,3,-10
13:51:00:768994,-6,0,9,-4,-6,-3,-7,0
13:51:00:784602,-6,0,9,-4,-6,-3,-7,0
13:51:00:785421,2,-2,0,-1,2,-4,5,-3
13:51:00:791414,14,-4,7,17,-10,-9,-8,-3
13:51:00:799718,14,-4,7,17,-10,-9,-8,-3
13:51:00:800403,9,-1,3,17,14,12,9,1
13:51:00:813882,-8,-11,-1,3,1,-13,-7,1
13:51:00:822292,-8,-11,-1,3,1,-13,-7,1
13:51:00:822912,9,9,2,-8,-10,-6,8,-33
13:51:00:828878,1,4,5,-1,-4,-1,4,-35
13:51:00:844618,1,4,5,-1,-4,-1,4,-35
13:51:00:845402,-2,-21,-14,6,6,-13,-14,11
13:51:00:851440,-8,-3,13,-14,-14,1,-2,26
13:51:00:859595,-8,-3,13,-14,-14,1,-2,26
13:51:00:860403,3,10,-7,18,11,11,7,21
13:51:00:873977,4,-3,-10,-2,-9,4,0,8
13:51:00:882312,4,-3,-10,-2,-9,4,0,8
13:51:00:882917,-9,-7,-8,-30,-6,15,3,0
13:51:00:888943,-3,2,-6,3,14,7,-9,4
13:51:00:904668,-3,2,-6,3,14,7,-9,4
13:51:00:905393,-9,5,18,6,9,9,2,7
13:51:00:911337,9,5,-3,-4,-1,3,8,-8
13:51:00:919697,9,5,-3,-4,-1,3,8,-8
13:51:00:920396,4,10,-4,-8,-8,-2,0,-2
13:51:00:933962,-6,-6,-11,10,-6,-9,-2,-1
13:51:00:942141,-6,-6,-11,10,-6,-9,-2,-1
13:51:00:942919,13,4,-17,-11,0,-10,-3,2
13:51:00:948949,-1,-11,-5,-17,11,9,0,-4
13:51:00:964605,-1,-11,-5,-17,11,9,0,-4
13:51:00:965430,-12,-17,0,3,-11,-20,-8,-10
13:51:00:971526,10,0,3,3,-5,-10,2,0
13:51:00:979572,10,0,3,3,-5,-10,2,0
13:51:00:980384,-8,-3,5,-5,2,-1,-1,0
13:51:00:993923,-7,-6,-15,14,12,-1,-6,-3
13:51:01:2163,-7,-6,-15,14,12,-1,-6,-3
13:51:01:2889,-2,-1,14,13,4,3,-4,0
13:51:01:8971,-6,10,11,-12,-4,-4,-4,-11
13:51:01:24642,-6,10,11,-12,-4,-4,-4,-11
13:51:01:25412,-9,-14,-10,0,-2,13,23,6
13:51:01:31449,1,13,-3,-11,-3,-10,-9,-1
13:51:01:39615,1,13,-3,-11,-3,-10,-9,-1
13:51:01:40414,1,1,3,-4,-4,-3,-11,-5
13:51:01:54023,1,7,0,24,6,-9,2,-1
13:51:01:62136,1,7,0,24,6,-9,2,-1
13:51:01:62870,2,10,-11,-23,-11,-4,-3,2
13:51:01:68989,8,-4,-1,6,-18,-5,-11,3
13:51:01:92790,8,-4,-1,6,-18,-5,-11,3
13:51:01:93583,-1,0,9,8,2,16,1,-3
13:51:01:94357,8,-2,14,-9,2,18,11,4
13:51:01:99687,8,-2,14,-9,2,18,11,4
13:51:01:100421,-4,-16,-14,1,-13,-16,-4,-8
13:51:01:113895,0,-8,-5,-13,7,9,4,2
13:51:01:122280,0,-8,-5,-13,7,9,4,2
13:51:01:122934,-15,-8,0,1,-6,-11,-8,1
13:51:01:128920,1,7,0,-1,-15,-9,2,-5
13:51:01:144612,1,7,0,-1,-15,-9,2,-5
13:51:01:145408,4,-5,1,-7,4,1,8,2
13:51:01:151460,-6,-9,-16,-16,-2,-7,-2,2
13:51:01:159666,-6,-9,-16,-16,-2,-7,-2,2
13:51:01:160442,-3,0,4,3,4,-3,-1,-4
13:51:01:173927,12,5,7,1,13,3,0,0
13:51:01:182237,12,5,7,1,13,3,0,0
13:51:01:182907,1,2,-1,-1,-5,-6,-10,5
13:51:01:189005,-6,-7,-1,4,-4,-7,-1,-7
13:51:01:204725,-6,-7,-1,4,-4,-7,-1,-7
13:51:01:205425,10,5,0,26,14,5,-4,-4
13:51:01:211326,-7,0,-4,-8,7,-3,9,5
13:51:01:219740,-7,0,-4,-8,7,-3,9,5
13:51:01:220421,1,4,15,7,-1,28,48,6
13:51:01:233989,-4,-3,-6,-3,-10,-1,-8,3
13:51:01:242118,-4,-3,-6,-3,-10,-1,-8,3
13:51:01:242942,-2,6,10,10,7,-3,-15,-5
13:51:01:249005,-3,-5,-2,-14,-10,4,0,-1
13:51:01:264648,-3,-5,-2,-14,-10,4,0,-1
13:51:01:265424,3,-4,-16,-27,-10,-13,-13,-1
13:51:01:271494,-11,-21,-21,-2,0,-7,-9,-10
13:51:01:279610,-11,-21,-21,-2,0,-7,-9,-10
13:51:01:280399,0,-8,-15,-1,-2,8,3,-1
13:51:01:293979,-7,-14,2,-11,-10,0,7,-3
13:51:01:302158,-7,-14,2,-11,-10,0,7,-3
13:51:01:302905,-8,-1,0,-15,-7,-13,-14,-6
13:51:01:316515,-6,13,28,1,-1,-2,-6,-7
13:51:01:324626,-6,13,28,1,-1,-2,-6,-7
13:51:01:325402,6,-1,-9,-7,-6,-21,-3,1
13:51:01:331427,5,-1,-13,4,13,15,4,0
13:51:01:338999,5,-1,-13,4,13,15,4,0
13:51:01:346355,10,4,3,5,2,3,-8,-1
13:51:01:353963,1,7,5,-3,8,-3,4,7
13:51:01:362144,1,7,5,-3,8,-3,4,7
13:51:01:362906,3,-2,-2,-15,-10,-18,-15,-12
13:51:01:376449,2,0,7,3,-4,-4,0,3
13:51:01:384584,2,0,7,3,-4,-4,0,3
13:51:01:385442,-7,-8,4,5,-9,7,0,1
13:51:01:391425,1,-17,-23,-1,-10,-4,-4,2
13:51:01:399094,1,-17,-23,-1,-10,-4,-4,2
13:51:01:406416,-14,-11,0,-4,-1,-1,6,-6
13:51:01:413903,-5,4,-2,-2,6,0,-4,-7
13:51:01:422190,-5,4,-2,-2,6,0,-4,-7
13:51:01:422913,-8,-10,17,20,-1,5,-12,6
13:51:01:436444,-7,2,7,-1,-9,-6,-1,-11
13:51:01:444593,-7,2,7,-1,-9,-6,-1,-11
13:51:01:445394,-13,16,16,8,-42,-9,-4,6
13:51:01:451442,12,7,-2,-4,-14,-6,4,2
13:51:01:459009,12,7,-2,-4,-14,-6,4,2
13:51:01:466483,-5,-1,-10,-17,17,2,1,0
13:51:01:473901,1,17,-3,29,17,19,3,2
13:51:01:482228,1,17,-3,29,17,19,3,2
13:51:01:482966,0,-7,2,6,20,-1,0,-5
13:51:01:496438,3,2,4,7,7,-5,-2,0
13:51:01:504756,3,2,4,7,7,-5,-2,0
13:51:01:505464,3,4,-1,-15,0,-9,6,-2
13:51:01:511366,4,5,7,-5,-6,-15,-6,1
13:51:01:519014,4,5,7,-5,-6,-15,-6,1
13:51:01:526438,-4,-3,-14,0,4,11,-4,0
13:51:01:533939,-5,-19,9,-13,-8,-3,-12,-2
13:51:01:542134,-5,-19,9,-13,-8,-3,-12,-2
13:51:01:542915,8,-7,-8,-4,2,4,1,-3
13:51:01:556432,-4,-6,-12,-11,-7,-1,1,-6
13:51:01:564697,-4,-6,-12,-11,-7,-1,1,-6
13:51:01:565500,0,6,-9,5,3,0,-2,-1
13:51:01:571535,-1,-1,0,-11,2,6,7,2
13:51:01:578962,-1,-1,0,-11,2,6,7,2
13:51:01:586496,7,14,8,16,21,1,-11,3
13:51:01:593929,-10,-19,-20,-8,-6,5,-5,-5
13:51:01:602216,-10,-19,-20,-8,-6,5,-5,-5
13:51:01:602899,-5,-1,-10,-12,-9,-8,4,-2
13:51:01:616573,3,-1,7,-8,-8,0,9,-2
13:51:01:624615,3,-1,7,-8,-8,0,9,-2
13:51:01:625371,-1,-3,-5,3,3,2,10,-2
13:51:01:631434,0,-7,0,14,13,17,15,-4
13:51:01:639035,0,-7,0,14,13,17,15,-4
13:51:01:646370,-4,-12,-13,-14,-4,-1,11,-1
13:51:01:653971,-1,-6,-5,-7,-14,-12,-5,-2
13:51:01:662137,-1,-6,-5,-7,-14,-12,-5,-2
13:51:01:662921,3,5,-5,-3,-2,-7,-7,3
13:51:01:676450,1,-8,-27,-3,4,0,-1,5
13:51:01:684635,1,-8,-27,-3,4,0,-1,5
13:51:01:685405,2,1,5,2,-7,-16,-6,-2
13:51:01:691392,6,13,16,-2,22,17,-5,-1
13:51:01:699054,6,13,16,-2,22,17,-5,-1
13:51:01:706431,0,-14,-17,19,-3,6,-5,-4
13:51:01:713903,-6,8,14,-5,-11,-20,-11,-9
13:51:01:722201,-6,8,14,-5,-11,-20,-11,-9
13:51:01:722935,7,18,17,-4,0,1,7,-4
13:51:01:736469,-11,-21,-15,-8,-9,-5,-4,2
13:51:01:744626,-11,-21,-15,-8,-9,-5,-4,2
13:51:01:745432,-10,-8,8,-3,2,-3,1,1
13:51:01:751410,1,23,12,18,2,-3,-1,0
13:51:01:759003,1,23,12,18,2,-3,-1,0
13:51:01:766474,4,-5,-19,10,-1,7,-2,1
13:51:01:773936,8,3,26,28,-2,0,-1,3
13:51:01:782240,8,3,26,28,-2,0,-1,3
13:51:01:782922,2,13,13,1,-5,10,2,-2
13:51:01:796407,11,0,-11,-6,8,-4,0,0
13:51:01:804738,11,0,-11,-6,8,-4,0,0
13:51:01:805392,-10,1,8,-3,-1,2,1,1
13:51:01:811385,-14,18,-5,2,-14,-18,-2,2
13:51:01:819117,-14,18,-5,2,-14,-18,-2,2
13:51:01:826447,-11,-11,1,-10,14,12,-1,-9
13:51:01:833967,5,13,-10,-8,-5,11,0,3
13:51:01:842162,5,13,-10,-8,-5,11,0,3
13:51:01:842881,-4,1,-1,-11,-6,-4,-1,2
13:51:01:856430,-28,-8,7,1,-6,0,-4,-7
13:51:01:864657,-28,-8,7,1,-6,0,-4,-7
13:51:01:865475,2,-4,1,-9,-5,-2,-4,4
13:51:01:871508,4,21,9,-13,6,19,11,3
13:51:01:878923,4,21,9,-13,6,19,11,3
13:51:01:886486,15,1,-4,-6,-7,-17,-11,-3
13:51:01:893930,24,-18,-21,-19,-5,-9,-1,-2
13:51:01:902150,24,-18,-21,-19,-5,-9,-1,-2
13:51:01:902940,10,8,4,0,-3,-1,-4,4
13:51:01:925354,-10,-16,15,18,6,-1,-2,0
13:51:01:926145,-10,-16,15,18,6,-1,-2,0
13:51:01:926894,-9,-3,5,3,-12,-9,0,-7
13:51:01:931431,4,-3,1,10,8,-3,0,-5
13:51:01:939053,4,-3,1,10,8,-3,0,-5
13:51:01:946413,7,8,6,12,-2,-6,4,1
13:51:01:954002,-1,-1,-4,-3,-5,-5,-9,-4
13:51:01:962100,-1,-1,-4,-3,-5,-5,-9,-4
13:51:01:962862,-3,-12,-25,2,-1,-6,-10,-2
13:51:01:976428,-9,-6,-5,-3,5,-2,-5,-8
13:51:01:984688,-9,-6,-5,-3,5,-2,-5,-8
13:51:01:985486,-9,2,-2,4,2,-1,-2,-5
13:51:01:991458,-3,-1,7,2,-10,3,-1,3
13:51:01:999051,-3,-1,7,2,-10,3,-1,3
13:51:02:6481,3,4,8,18,4,4,1,4
13:51:02:22743,10,-6,8,-1,-5,7,7,2
13:51:02:23561,10,-6,8,-1,-5,7,7,2
13:51:02:24365,1,-13,-2,-28,-9,6,-1,0
13:51:02:36514,-6,-12,-11,-1,-6,-9,-5,-6
13:51:02:44623,-6,-12,-11,-1,-6,-9,-5,-6
13:51:02:45494,0,-6,0,17,5,-2,0,-4
13:51:02:51445,-8,0,-4,-22,-3,-8,0,-5
13:51:02:59016,-8,0,-4,-22,-3,-8,0,-5
13:51:02:66582,-11,6,1,-19,4,-8,-2,-12
13:51:02:73963,-5,-8,-9,9,5,9,3,8
13:51:02:82218,-5,-8,-9,9,5,9,3,8
13:51:02:82937,-12,1,-11,-4,7,16,8,0
13:51:02:96385,-4,-6,-11,-11,-10,-9,-7,-2
13:51:02:104637,-4,-6,-11,-11,-10,-9,-7,-2
13:51:02:105356,0,-10,-5,1,0,-8,-4,3
13:51:02:111397,0,5,11,24,12,-1,7,-4
13:51:02:118998,0,5,11,24,12,-1,7,-4
13:51:02:126418,10,7,6,11,-7,17,-4,1
13:51:02:134002,5,-6,1,-2,-5,-1,-7,4
13:51:02:142149,5,-6,1,-2,-5,-1,-7,4
13:51:02:142912,-8,-12,-10,-15,-5,-14,-2,-3
13:51:02:156487,0,21,4,7,-5,-12,-2,-6
13:51:02:164599,0,21,4,7,-5,-12,-2,-6
13:51:02:165384,3,-11,8,-2,2,0,4,0
13:51:02:171488,-1,-5,3,-6,3,1,-7,7
13:51:02:179020,-1,-5,3,-6,3,1,-7,7
13:51:02:186534,1,6,-2,-5,2,-1,-7,0
13:51:02:202824,6,11,9,5,-1,7,-2,-5
13:51:02:203636,6,11,9,5,-1,7,-2,-5
13:51:02:204394,3,4,13,31,7,20,16,-1
13:51:02:216504,1,6,-16,-20,-10,-14,11,3
13:51:02:224642,1,6,-16,-20,-10,-14,11,3
13:51:02:225439,2,7,-6,-13,-5,-18,-6,-2
13:51:02:231439,10,-8,-20,-15,-1,-3,-2,2
13:51:02:238987,10,-8,-20,-15,-1,-3,-2,2
13:51:02:246349,-7,1,-6,-1,-8,-10,0,2
13:51:02:254015,-10,-18,-15,-14,7,17,1,0
13:51:02:261469,-10,-18,-15,-14,7,17,1,0
13:51:02:268973,19,10,9,2,-30,-16,-10,-2
13:51:02:276403,-1,6,7,6,5,7,2,-3
13:51:02:284667,-1,6,7,6,5,7,2,-3
13:51:02:285420,-4,1,-3,-13,-7,-2,-1,-4
13:51:02:299758,4,-11,-15,14,0,0,7,-2
13:51:02:300434,4,-11,-15,14,0,0,7,-2
13:51:02:306458,-13,-5,-6,-15,3,-15,-3,4
13:51:02:313869,-17,-6,5,-3,2,-24,-19,-4
13:51:02:321545,-17,-6,5,-3,2,-24,-19,-4
13:51:02:328910,2,2,1,-4,16,33,40,4
13:51:02:336521,-2,1,1,-5,-15,-6,-3,0
13:51:02:344635,-2,1,1,-5,-15,-6,-3,0
13:51:02:345414,10,14,6,8,3,-4,-15,-2
13:51:02:359659,4,10,8,20,-3,-4,1,-6
13:51:02:360427,4,10,8,20,-3,-4,1,-6
13:51:02:366476,-7,-14,1,16,4,-2,-8,-7
13:51:02:373943,-9,-1,1,-8,7,-2,-5,-2
13:51:02:381506,-9,-1,1,-8,7,-2,-5,-2
13:51:02:389000,0,3,5,4,-4,-4,-8,-2
13:51:02:396416,19,5,14,16,-2,1,2,0
13:51:02:404658,19,5,14,16,-2,1,2,0
13:51:02:405375,-20,-15,-2,-16,2,0,4,3
13:51:02:419733,-7,-5,-5,5,-4,3,-1,3
13:51:02:420462,-7,-5,-5,5,-4,3,-1,3
13:51:02:426424,-2,-1,-12,-12,-6,-6,-7,-5
13:51:02:434032,-20,-9,-10,-18,-4,-2,-9,-1
13:51:02:441488,-20,-9,-10,-18,-4,-2,-9,-1
13:51:02:449093,-1,-13,-12,0,0,-2,1,-4
13:51:02:456472,8,2,6,-7,-3,-7,3,-3
13:51:02:464423,8,2,6,-7,-3,-7,3,-3
13:51:02:471482,12,-1,11,-10,4,2,-2,5
13:51:02:479586,-8,9,-3,-9,0,9,-7,0
13:51:02:480398,-8,9,-3,-9,0,9,-7,0
13:51:02:486471,2,2,12,19,3,3,1,-2
13:51:02:493898,5,-5,-16,-7,3,5,8,-2
13:51:02:501538,5,-5,-16,-7,3,5,8,-2
13:51:02:508936,-7,8,-2,-8,-8,-3,-7,-3
13:51:02:516523,-5,5,4,7,-7,-9,-1,0
13:51:02:524655,-5,5,4,7,-7,-9,-1,0
13:51:02:525417,-13,-13,16,3,12,-2,2,0
13:51:02:539635,2,-6,5,1,10,14,2,-2
13:51:02:540446,2,-6,5,1,10,14,2,-2
13:51:02:546371,3,2,0,3,-5,3,-2,1
13:51:02:553951,10,-12,-9,0,2,-2,2,6
13:51:02:561467,10,-12,-9,0,2,-2,2,6
13:51:02:569001,0,-14,-16,-10,-8,-13,0,1
13:51:02:576430,3,7,-7,-16,-4,-1,9,-7
13:51:02:584655,3,7,-7,-16,-4,-1,9,-7
13:51:02:585454,-3,2,-14,1,2,9,-13,-3
13:51:02:599753,6,3,15,4,10,-4,1,-1
13:51:02:600434,6,3,15,4,10,-4,1,-1
13:51:02:606440,4,10,0,-11,-9,4,8,-1
13:51:02:613920,3,5,6,9,-10,-8,0,3
13:51:02:621572,3,5,6,9,-10,-8,0,3
13:51:02:628920,-6,-7,-17,37,4,-9,-10,0
13:51:02:636464,-3,-8,0,5,5,5,4,-1
13:51:02:644596,-3,-8,0,5,5,5,4,-1
13:51:02:645413,-1,3,2,-8,6,8,2,-6
13:51:02:659649,4,-1,-7,-3,-1,-1,-10,-5
13:51:02:660379,4,-1,-7,-3,-1,-1,-10,-5
13:51:02:666496,-3,1,1,-12,16,12,6,-1
13:51:02:673968,1,-5,-27,-12,-15,1,7,0
13:51:02:681439,1,-5,-27,-12,-15,1,7,0
13:51:02:688956,10,-4,-14,-1,-5,-6,-3,1
13:51:02:697071,-20,-7,6,-4,-1,3,1,-5
13:51:02:697903,-20,-7,6,-4,-1,3,1,-5
13:51:02:703988,5,-14,1,-4,0,-1,3,0
13:51:02:719700,10,6,-5,-1,-5,-16,-6,2
13:51:02:720442,10,6,-5,-1,-5,-16,-6,2
13:51:02:726399,-5,-34,-2,1,-9,-7,-21,-4
13:51:02:733878,-12,-3,-4,-15,0,4,-2,11
13:51:02:749695,-12,-3,-4,-15,0,4,-2,11
13:51:02:750425,-1,11,1,-19,2,-3,5,3
13:51:02:757130,-5,-1,5,5,-7,-3,-6,0
13:51:02:757934,-5,-1,5,5,-7,-3,-6,0
13:51:02:763861,8,11,-5,6,5,3,-2,5
13:51:02:779615,-1,1,-1,-2,2,-3,-4,-4
13:51:02:780390,-1,1,-1,-2,2,-3,-4,-4
13:51:02:786518,-13,14,15,21,2,-9,-3,-4
13:51:02:793936,15,29,9,23,19,6,1,-1
13:51:02:801474,15,29,9,23,19,6,1,-1
13:51:02:808907,-3,2,-11,-25,-17,-2,10,-5
13:51:02:817150,-1,-6,6,6,-4,-9,-1,0
13:51:02:817917,-1,-6,6,6,-4,-9,-1,0
13:51:02:823916,-2,1,1,-14,12,13,-14,5
13:51:02:839626,-10,-18,0,-6,12,5,4,2
13:51:02:840383,-10,-18,0,-6,12,5,4,2
13:51:02:854663,10,8,-1,1,-16,-10,12,-1
13:51:02:855381,-16,-11,-4,-1,0,6,-3,-1
13:51:02:861406,-16,-11,-4,-1,0,6,-3,-1
13:51:02:869034,-4,7,6,-18,-6,0,-4,-2
13:51:02:877092,-12,-18,-10,-10,-3,2,-9,-10
13:51:02:877904,-12,-18,-10,-10,-3,2,-9,-10
13:51:02:883948,-3,-9,0,-12,-5,-15,-15,-2
13:51:02:899670,-4,5,12,15,10,9,-12,-2
13:51:02:900386,-4,5,12,15,10,9,-12,-2
13:51:02:906429,-7,4,0,10,-5,-14,-4,-3
13:51:02:913916,8,6,-2,1,0,-4,0,-4
13:51:02:921520,8,6,-2,1,0,-4,0,-4
13:51:02:928897,5,2,-12,8,-1,10,2,1
13:51:02:937129,-10,9,2,-1,-12,-14,-4,2
13:51:02:937942,-10,9,2,-1,-12,-14,-4,2
13:51:02:943902,-5,1,1,-2,0,-6,5,2
13:51:02:959591,18,9,-19,5,3,5,-1,-9
13:51:02:960408,18,9,-19,5,3,5,-1,-9
13:51:02:966470,3,-5,-1,0,17,14,6,4
13:51:02:973896,3,13,14,-20,-22,-20,-2,-2
13:51:02:981469,3,13,14,-20,-22,-20,-2,-2
13:51:02:989014,-7,-3,1,-2,-11,-7,5,-5
13:51:02:997116,-8,-18,-20,-18,-5,4,14,3
13:51:02:997944,-8,-18,-20,-18,-5,4,14,3
13:51:03:3940,-4,-2,7,-1,-5,-2,1,0
13:51:03:19757,16,5,-1,5,5,-7,-7,1
13:51:03:20475,16,5,-1,5,5,-7,-7,1
13:51:03:26364,7,10,-1,3,2,-11,-7,1
13:51:03:33968,-2,-26,-9,11,4,11,5,-3
13:51:03:41448,-2,-26,-9,11,4,11,5,-3
13:51:03:49107,1,-4,-7,-5,-6,2,-2,1
13:51:03:57175,-30,-2,23,-4,5,-5,-5,-8
13:51:03:57973,-30,-2,23,-4,5,-5,-5,-8
13:51:03:63916,-7,-13,-2,-11,1,-7,0,-8
13:51:03:79624,0,-12,1,-8,-8,-14,-12,-1
13:51:03:80407,0,-12,1,-8,-8,-14,-12,-1
13:51:03:86515,8,-9,-2,23,6,22,22,7
13:51:03:93908,-3,21,12,7,-8,-3,1,-2
13:51:03:101497,-3,21,12,7,-8,-3,1,-2
13:51:03:108958,-12,5,-4,3,6,12,1,1
13:51:03:117147,10,-1,-5,17,-1,0,0,7
13:51:03:117921,10,-1,-5,17,-1,0,0,7
13:51:03:123974,-6,-9,10,-4,-2,-8,-5,-6
13:51:03:139583,4,-1,8,-10,10,-4,10,-3
13:51:03:140392,4,-1,8,-10,10,-4,10,-3
13:51:03:146372,-4,-12,-24,-9,-2,0,1,-5
13:51:03:153977,-2,15,2,-9,-9,7,-11,-4
13:51:03:161432,-2,15,2,-9,-9,7,-11,-4
13:51:03:168974,-8,-3,-2,14,5,16,18,7
13:51:03:177104,1,16,0,-22,-11,-9,-17,2
13:51:03:177963,1,16,0,-22,-11,-9,-17,2
13:51:03:183979,-13,3,-3,-2,3,-15,-11,-5
13:51:03:199694,-8,-20,-4,11,8,4,3,-3
13:51:03:200423,-8,-20,-4,11,8,4,3,-3
13:51:03:206495,8,-6,-4,-2,-9,1,-1,-6
13:51:03:222203,9,-1,-14,3,3,13,8,4
13:51:03:222889,9,-1,-14,3,3,13,8,4
13:51:03:228960,5,0,17,-5,-8,-7,1,-2
13:51:03:236932,1,-2,1,10,9,3,9,-3
13:51:03:243922,1,-2,1,10,9,3,9,-3
13:51:03:251396,7,6,7,-4,-4,-19,-14,-1
13:51:03:259618,-5,-26,-8,-4,-4,0,-1,2
13:51:03:260442,-5,-26,-8,-4,-4,0,-1,2
13:51:03:266524,5,9,7,-5,-2,-1,0,3
13:51:03:282264,-16,-3,-10,-10,-6,6,21,6
13:51:03:282909,-16,-3,-10,-10,-6,6,21,6
13:51:03:288988,1,7,-3,3,5,-22,-26,-1
13:51:03:297064,-2,13,3,1,-5,-8,-13,-5
13:51:03:297865,-2,13,3,1,-5,-8,-13,-5
13:51:03:311827,2,1,-58,5,6,-1,4,-8
13:51:03:319664,-7,4,18,-1,3,-13,-6,-4
13:51:03:320418,-7,4,18,-1,3,-13,-6,-4
13:51:03:326381,2,5,54,1,3,12,-2,-2
13:51:03:342109,5,0,14,15,6,6,5,-1
13:51:03:342866,5,0,14,15,6,6,5,-1
13:51:03:349028,-1,-15,-5,4,-4,-1,3,-1
13:51:03:357120,6,-13,2,15,1,-3,0,-6
13:51:03:357883,6,-13,2,15,1,-3,0,-6
13:51:03:371468,-2,22,15,-1,5,2,-3,-1
13:51:03:379537,-3,-7,-14,-23,2,0,0,-3
13:51:03:380383,-3,-7,-14,-23,2,0,0,-3
13:51:03:386478,4,4,7,-13,-10,3,1,1
13:51:03:402051,3,8,-6,0,6,2,-8,-4
13:51:03:402887,3,8,-6,0,6,2,-8,-4
13:51:03:408933,5,-5,-6,2,-8,16,17,9
13:51:03:417096,7,3,7,-6,8,-14,-10,0
13:51:03:417876,7,3,7,-6,8,-14,-10,0
13:51:03:431440,6,-2,2,-5,1,-11,-7,-2
13:51:03:439653,-11,-4,-13,-14,-17,-5,3,-2
13:51:03:440386,-11,-4,-13,-14,-17,-5,3,-2
13:51:03:446402,-8,-16,-25,4,0,-16,-6,-10
13:51:03:462144,9,-1,4,2,-1,7,-3,9
13:51:03:462901,9,-1,4,2,-1,7,-3,9
13:51:03:468956,-6,16,11,8,-6,3,-1,-3
13:51:03:477068,1,-1,-9,4,0,-1,-6,-3
13:51:03:477846,1,-1,-9,4,0,-1,-6,-3
13:51:03:491444,-6,-17,-15,-15,-6,-8,-7,0
13:51:03:499691,-4,-1,-12,-6,-1,2,0,0
13:51:03:500407,-4,-1,-12,-6,-1,2,0,0
13:51:03:506444,-6,-2,-14,2,-2,-3,-8,-5
13:51:03:522233,-5,-13,-19,1,1,-1,-3,17
13:51:03:522939,-5,-13,-19,1,1,-1,-3,17
13:51:03:528909,2,7,7,-8,-2,-7,5,-1
13:51:03:537178,-5,-3,21,0,-8,-7,14,-7
13:51:03:537957,-5,-3,21,0,-8,-7,14,-7
13:51:03:551434,-18,3,-6,9,12,31,23,1
13:51:03:559630,-46,-7,-5,-7,1,7,8,-9
13:51:03:560458,-46,-7,-5,-7,1,7,8,-9
13:51:03:566519,2,-14,7,5,0,-5,-3,-3
13:51:03:590265,30,-8,-2,1,-7,-5,5,-1
13:51:03:591064,30,-8,-2,1,-7,-5,5,-1
13:51:03:591866,25,2,-2,-5,3,1,12,-6
13:51:03:597097,33,20,1,9,7,6,7,1
13:51:03:597890,33,20,1,9,7,6,7,1
13:51:03:611448,4,-7,-3,-7,-2,-4,-26,-4
13:51:03:619673,4,-7,-3,-7,-2,-4,-26,-4
13:51:03:620425,-1,6,4,-5,-5,-10,-15,-5
13:51:03:626360,4,0,3,13,14,-8,-1,3
13:51:03:642081,4,0,3,13,14,-8,-1,3
13:51:03:642935,3,6,14,-5,-2,1,-4,2
13:51:03:649070,-6,-1,17,5,-17,-3,-5,50
13:51:03:664674,-6,-1,17,5,-17,-3,-5,50
13:51:03:665436,-5,8,-26,7,2,-2,-6,14
13:51:03:671506,11,4,-7,-10,-10,-4,11,-18
13:51:03:679583,11,4,-7,-10,-10,-4,11,-18
13:51:03:680381,-5,-3,-6,-1,-7,-22,-8,-36
13:51:03:686539,-2,-4,11,-6,0,-3,-1,-22
13:51:03:702145,-2,-4,11,-6,0,-3,-1,-22
13:51:03:702909,-8,-9,-5,1,-5,-5,-11,-7
13:51:03:708915,-11,2,-6,7,-6,6,-6,-1
13:51:03:724666,-11,2,-6,7,-6,6,-6,-1
13:51:03:725408,10,-4,12,1,12,17,1,8
13:51:03:731450,-17,3,6,-8,-5,-3,-12,-3
13:51:03:739605,-17,3,6,-8,-5,-3,-12,-3
13:51:03:740372,2,-4,-17,11,2,-6,-5,-4
13:51:03:746402,-9,15,6,-7,2,-5,-11,-8
13:51:03:762210,-9,15,6,-7,2,-5,-11,-8
13:51:03:762936,-1,15,1,11,-6,10,6,-1
13:51:03:768986,2,-7,-3,15,-3,-1,15,-8
13:51:03:784664,2,-7,-3,15,-3,-1,15,-8
13:51:03:785433,-8,-6,13,-21,-6,0,2,5
13:51:03:791409,-1,-7,-3,-16,4,-6,-1,5
13:51:03:799727,-1,-7,-3,-16,4,-6,-1,5
13:51:03:800417,-9,-18,-4,-11,2,-1,1,0
13:51:03:806452,-7,-11,-10,6,-4,1,1,-1
13:51:03:822224,-7,-11,-10,6,-4,1,1,-1
13:51:03:822959,-6,4,-3,-15,4,15,-4,-5
13:51:03:828934,7,-6,-5,13,9,1,0,2
13:51:03:844622,7,-6,-5,13,9,1,0,2
13:51:03:845487,15,5,7,8,-6,-6,-7,3
13:51:03:851464,6,0,-15,-3,1,-1,-2,-6
13:51:03:859690,6,0,-15,-3,1,-1,-2,-6
13:51:03:860458,-3,15,10,-7,-9,2,14,5
13:51:03:866518,3,-12,-19,-14,2,-9,10,2
13:51:03:882172,3,-12,-19,-14,2,-9,10,2
13:51:03:882939,-5,-6,13,8,-1,-8,1,-10
13:51:03:888976,-6,2,0,2,0,4,-10,2
13:51:03:904708,-6,2,0,2,0,4,-10,2
13:51:03:905402,13,3,-12,-2,-2,6,9,10
13:51:03:911364,-13,-5,-9,-21,-6,3,5,-2
13:51:03:919727,-13,-5,-9,-21,-6,3,5,-2
13:51:03:920461,-5,-20,-11,-12,6,-16,-9,1
13:51:03:926398,14,14,1,-8,13,-1,2,-2
13:51:03:942147,14,14,1,-8,13,-1,2,-2
13:51:03:942925,-13,6,3,2,-1,2,0,-11
13:51:03:948993,5,1,13,8,-3,0,4,2
13:51:03:972754,5,1,13,8,-3,0,4,2
13:51:03:973563,4,-6,-6,12,3,-2,4,-3
13:51:03:974364,4,2,0,-18,-13,-7,3,-7
13:51:03:979614,4,2,0,-18,-13,-7,3,-7
13:51:03:980421,-8,9,1,7,-1,-1,-4,6
13:51:03:986501,1,-2,5,22,13,17,-13,8
13:51:04:2163,1,-2,5,22,13,17,-13,8
13:51:04:2915,5,-4,-17,-11,-7,4,14,-7
13:51:04:8991,-8,-12,12,4,9,-4,17,-20
13:51:04:24681,-8,-12,12,4,9,-4,17,-20
13:51:04:25463,4,-19,-3,3,0,-11,-8,-3
13:51:04:31460,-2,0,-10,-2,-5,-1,-7,1
13:51:04:39620,-2,0,-10,-2,-5,-1,-7,1
13:51:04:40409,-1,-1,1,-14,-4,-14,-2,1
13:51:04:46408,2,-10,-7,-4,-5,1,-13,7
13:51:04:62213,2,-10,-7,-4,-5,1,-13,7
13:51:04:62933,-5,5,15,7,-5,6,-9,1
13:51:04:69001,-10,-24,-20,-14,-8,-12,-8,5
13:51:04:76452,-10,-24,-20,-14,-8,-12,-8,5
13:51:04:84017,1,8,9,25,3,5,-3,9
13:51:04:91443,1,25,15,31,18,1,-5,-3
13:51:04:99673,1,25,15,31,18,1,-5,-3
13:51:04:100378,3,14,17,5,0,3,3,-2
13:51:04:106403,-1,-5,-4,-13,-16,-7,0,-4
13:51:04:122171,-1,-5,-4,-13,-16,-7,0,-4
13:51:04:122918,-1,8,-1,-1,0,1,3,0
13:51:04:128914,-6,-2,-14,-1,14,6,1,-1
13:51:04:136587,-6,-2,-14,-1,14,6,1,-1
13:51:04:143888,2,1,-15,-4,9,2,-11,4
13:51:04:151412,-7,-3,4,1,-4,-5,11,3
13:51:04:159641,-7,-3,4,1,-4,-5,11,3
13:51:04:160430,-3,-2,-5,-9,5,-8,-5,-4
13:51:04:173949,3,2,3,11,1,-6,-3,-1
13:51:04:182183,3,2,3,11,1,-6,-3,-1
13:51:04:182901,1,-4,-11,10,-3,2,11,-2
13:51:04:188927,9,1,-4,-7,-6,-2,1,4
13:51:04:196468,9,1,-4,-7,-6,-2,1,4
13:51:04:203976,-3,-18,-8,-8,-4,5,-5,-7
13:51:04:211408,12,4,-2,-10,-13,2,-12,-1
13:51:04:219719,12,4,-2,-10,-13,2,-12,-1
13:51:04:220480,-3,-14,-11,-8,-9,-4,-4,1
13:51:04:233924,-3,18,2,0,7,6,-3,4
13:51:04:250323,-3,18,2,0,7,6,-3,4
13:51:04:251071,0,1,11,-6,-13,-7,-23,-9
13:51:04:251858,-6,-1,12,0,2,7,0,-6
13:51:04:256502,-6,-1,12,0,2,7,0,-6
13:51:04:263841,-16,-15,15,-5,-15,-2,5,7
13:51:04:271477,11,8,2,1,-4,-3,0,26
13:51:04:279639,11,8,2,1,-4,-3,0,26
13:51:04:280392,-10,-7,6,2,26,-11,8,3
13:51:04:293946,0,-15,-19,-23,10,3,3,-19
13:51:04:302203,0,-15,-19,-23,10,3,3,-19
13:51:04:302964,8,4,-9,-6,-18,-8,-5,-13
13:51:04:308892,-9,-2,15,9,-10,-9,-7,-12
13:51:04:316550,-9,-2,15,9,-10,-9,-7,-12
13:51:04:323926,-11,-2,-2,3,6,14,0,-6
13:51:04:331387,6,7,3,5,-2,17,19,5
13:51:04:339670,6,7,3,5,-2,17,19,5
13:51:04:340461,-3,0,-18,-13,7,-9,4,-4
13:51:04:353944,6,0,3,-4,3,-4,-12,-5
13:51:04:362151,6,0,3,-4,3,-4,-12,-5
13:51:04:362914,1,4,6,-9,-4,9,2,8
13:51:04:368931,10,7,7,-9,-12,-11,1,3
13:51:04:376478,10,7,7,-9,-12,-11,1,3
13:51:04:383910,6,-10,3,6,-3,3,1,-4
13:51:04:391401,-15,0,4,13,-5,0,-3,-7
13:51:04:399707,-15,0,4,13,-5,0,-3,-7
13:51:04:400399,-2,9,-11,-9,-1,-10,-2,1
13:51:04:413902,-1,-13,-24,7,14,14,-8,3
13:51:04:422218,-1,-13,-24,7,14,14,-8,3
13:51:04:422923,-3,-1,0,9,4,5,-4,4
13:51:04:428911,-9,3,3,-6,-19,-14,0,-4
13:51:04:436586,-9,3,3,-6,-19,-14,0,-4
13:51:04:443937,2,2,-3,6,14,-1,10,-5
13:51:04:451461,-16,-25,2,21,7,1,1,-1
13:51:04:459642,-16,-25,2,21,7,1,1,-1
13:51:04:460409,8,2,6,-18,-15,-11,9,-1
13:51:04:473887,-3,10,2,-4,-11,-6,1,-3
13:51:04:482282,-3,10,2,-4,-11,-6,1,-3
13:51:04:482928,-4,5,9,15,5,5,-11,4
13:51:04:488970,3,-10,6,-4,0,-7,-11,2
13:51:04:496409,3,-10,6,-4,0,-7,-11,2
13:51:04:503997,7,11,-5,-11,-6,-9,-9,0
13:51:04:511414,-3,17,-2,-4,1,104,4,-8
13:51:04:527183,-3,17,-2,-4,1,104,4,-8
13:51:04:527899,2,-12,-10,-4,0,34,-7,-10
13:51:04:533983,-4,3,3,-13,-6,-57,7,2
13:51:04:542103,-4,3,3,-13,-6,-57,7,2
13:51:04:542910,-5,5,5,1,-9,-23,-7,3
13:51:04:549062,-1,-3,-2,-8,3,-26,0,4
13:51:04:556471,-1,-3,-2,-8,3,-26,0,4
13:51:04:563885,2,1,-9,11,0,-18,-6,5
13:51:04:571471,-9,-18,-8,-4,-2,-12,-5,-1
13:51:04:579654,-9,-18,-8,-4,-2,-12,-5,-1
13:51:04:580426,-4,-8,8,-15,-15,-6,-4,-8
13:51:04:593941,0,0,2,26,0,-11,0,0
13:51:04:602204,0,0,2,26,0,-11,0,0
13:51:04:602931,-2,-9,-9,-13,-10,6,2,6
13:51:04:608892,13,9,-1,-8,-9,-5,10,4
13:51:04:616563,13,9,-1,-8,-9,-5,10,4
13:51:04:623937,-8,-2,-9,-11,-2,0,-3,0
13:51:04:631433,3,1,-3,-4,5,14,-1,-4
13:51:04:639665,3,1,-3,-4,5,14,-1,-4
13:51:04:640461,1,5,10,5,6,-5,6,-6
13:51:04:653989,-5,4,3,-1,-4,-11,-7,-1
13:51:04:662161,-5,4,3,-1,-4,-11,-7,-1
13:51:04:662898,14,4,0,6,4,83,0,-2
13:51:04:668954,8,-6,-8,1,-2,25,-10,-1
13:51:04:676489,8,-6,-8,1,-2,25,-10,-1
13:51:04:683985,-8,-15,-1,-2,4,-38,1,2
13:51:04:700326,-12,2,-10,-9,5,-26,1,-7
13:51:04:701109,-12,2,-10,-9,5,-26,1,-7
13:51:04:701853,1,10,8,14,10,-26,2,6
13:51:04:713936,0,-3,-3,-3,-6,-19,-2,-5
13:51:04:722163,0,-3,-3,-3,-6,-19,-2,-5
13:51:04:722915,1,-3,6,3,-1,-2,3,-2
13:51:04:728870,-8,-4,-9,-2,-11,-9,-2,-9
13:51:04:736583,-8,-4,-9,-2,-11,-9,-2,-9
13:51:04:743908,-4,-3,-4,-6,-6,-1,5,-4
13:51:04:751446,2,8,9,3,4,8,1,-3
13:51:04:759663,2,8,9,3,4,8,1,-3
13:51:04:760496,4,-3,8,1,5,5,4,6
13:51:04:773937,-12,-13,-17,-18,-10,-4,-10,-2
13:51:04:782245,-12,-13,-17,-18,-10,-4,-10,-2
13:51:04:782911,-2,19,-11,7,1,-2,4,1
13:51:04:788976,22,-3,7,-9,-10,-5,1,5
13:51:04:804682,22,-3,7,-9,-10,-5,1,5
13:51:04:805410,-8,-4,-10,-4,7,4,0,-12
13:51:04:811352,-3,12,2,1,20,8,8,-2
13:51:04:819689,-3,12,2,1,20,8,8,-2
13:51:04:820419,-15,-15,-9,-2,4,4,-10,-3
13:51:04:834006,-14,-26,12,3,-4,-3,2,-1
13:51:04:842106,-14,-26,12,3,-4,-3,2,-1
13:51:04:842923,9,4,9,4,-3,-5,-21,-1
13:51:04:848982,12,-8,4,2,3,17,23,3
13:51:04:856455,12,-8,4,2,3,17,23,3
13:51:04:863920,12,7,4,5,-3,-6,4,-4
13:51:04:871483,5,20,-3,-4,5,-7,-13,-9
13:51:04:879612,5,20,-3,-4,5,-7,-13,-9
13:51:04:880440,-8,-11,-7,11,0,-2,8,3
13:51:04:893911,-10,-1,-9,0,-7,0,2,-1
13:51:04:902180,-10,-1,-9,0,-7,0,2,-1
13:51:04:902897,-18,-10,-3,-17,-8,-11,-1,-1
13:51:04:908908,-2,17,20,16,5,-1,-8,5
13:51:04:916549,-2,17,20,16,5,-1,-8,5
13:51:04:923927,-8,-2,6,21,1,3,4,0
13:51:04:931437,10,1,3,-17,2,6,-3,5
13:51:04:939611,10,1,3,-17,2,6,-3,5
13:51:04:940414,15,8,-1,-14,-14,-23,-10,-3
13:51:04:953927,-4,-3,-12,9,-9,-3,-2,0
13:51:04:962138,-4,-3,-12,9,-9,-3,-2,0
13:51:04:962902,8,-6,4,10,6,11,35,10
13:51:04:968942,-8,-20,-6,-9,-1,6,-109,-4
13:51:04:976401,-8,-20,-6,-9,-1,6,-109,-4
13:51:04:984001,-10,-4,-8,-8,-7,-5,12,0
13:51:04:991475,-18,-14,-6,1,0,-4,77,0
13:51:04:999705,-18,-14,-6,1,0,-4,77,0
13:51:05:411,-7,-2,-13,-4,20,4,14,0
13:51:05:13953,10,-2,3,24,6,-13,21,-1
13:51:05:22166,10,-2,3,24,6,-13,21,-1
13:51:05:22906,8,15,7,-24,-10,1,3,-4
13:51:05:28949,3,-7,-13,-11,-2,-6,4,-3
13:51:05:36528,3,-7,-13,-11,-2,-6,4,-3
13:51:05:43921,4,-15,12,15,6,2,-13,-7
13:51:05:51423,-41,1,7,-6,-21,2,-15,56
13:51:05:59647,-41,1,7,-6,-21,2,-15,56
13:51:05:60450,-36,-13,-10,-10,8,15,-26,38
13:51:05:73953,-2,9,-20,-14,-4,5,26,-21
13:51:05:82241,-2,9,-20,-14,-4,5,26,-21
13:51:05:82874,-20,13,-9,-4,-6,-10,-17,-42
13:51:05:88923,9,5,-2,-11,-2,-4,-3,-22
13:51:05:96439,9,5,-2,-11,-2,-4,-3,-22
13:51:05:103984,16,-3,-9,11,1,8,20,-11
13:51:05:111357,24,4,9,-2,0,-3,-3,-47
13:51:05:119039,24,4,9,-2,0,-3,-3,-47
13:51:05:126441,27,8,18,-6,-12,-13,-10,-14
13:51:05:133935,28,3,-1,29,14,-2,-2,27
13:51:05:142173,28,3,-1,29,14,-2,-2,27
13:51:05:142991,-4,-20,-20,-2,3,-3,1,18
13:51:05:157147,-3,1,2,0,7,-4,-3,10
13:51:05:157935,-3,1,2,0,7,-4,-3,10
13:51:05:163935,7,2,-10,5,-1,3,-17,7
13:51:05:171502,11,0,-3,-9,-1,2,-8,-7
13:51:05:179000,11,0,-3,-9,-1,2,-8,-7
13:51:05:186511,5,-5,-1,4,16,-17,-11,-3
13:51:05:193918,-11,9,11,17,16,1,7,-13
13:51:05:202135,-11,9,11,17,16,1,7,-13
13:51:05:202924,2,32,7,-13,-15,-10,-1,-31
13:51:05:217166,-21,-19,-8,-19,19,-3,4,-13
13:51:05:217932,-21,-19,-8,-19,19,-3,4,-13
13:51:05:223908,-14,-13,-19,-10,-8,-6,6,4
13:51:05:231447,11,7,7,14,-21,6,14,21
13:51:05:239033,11,7,7,14,-21,6,14,21
13:51:05:254641,4,2,10,12,-1,7,16,19
13:51:05:255369,11,-6,-10,-12,-17,-8,3,5
13:51:05:262165,11,-6,-10,-12,-17,-8,3,5
13:51:05:262951,3,22,11,-6,0,0,13,8
13:51:05:277149,3,-6,5,14,10,6,12,2
13:51:05:277916,3,-6,5,14,10,6,12,2
13:51:05:283940,3,-6,11,-3,-13,-5,-11,-10
13:51:05:291426,-12,1,15,-5,43,-8,2,-8
13:51:05:299034,-12,1,15,-5,43,-8,2,-8
13:51:05:306510,-5,3,-21,-8,1,-2,-4,-4
13:51:05:313935,6,-10,-11,0,-36,-2,-15,-5
13:51:05:322242,6,-10,-11,0,-36,-2,-15,-5
13:51:05:322910,8,-9,-3,24,-7,5,5,3
13:51:05:337104,-17,10,-9,0,4,-8,-4,-9
13:51:05:337865,-17,10,-9,0,4,-8,-4,-9
13:51:05:343922,-10,-10,-8,-10,-8,18,24,3
13:51:05:351444,-7,0,5,-16,-10,-5,-11,-11
13:51:05:358953,-7,0,5,-16,-10,-5,-11,-11
13:51:05:366487,-6,-29,-26,-8,-5,-7,-4,-13
13:51:05:373945,-5,21,12,10,-2,-8,-7,8
13:51:05:382121,-5,21,12,10,-2,-8,-7,8
13:51:05:382907,-6,-19,-1,-4,9,6,0,4
13:51:05:397057,1,-15,-8,-2,-13,-13,-18,7
13:51:05:397861,1,-15,-8,-2,-13,-13,-18,7
13:51:05:404009,0,8,24,-5,0,-5,-10,-5
13:51:05:411420,1,22,11,1,-1,10,15,2
13:51:05:419014,1,22,11,1,-1,10,15,2
13:51:05:426390,-7,11,7,-8,0,-3,-2,2
13:51:05:433896,14,-2,-10,-5,-9,-1,19,5
13:51:05:442133,14,-2,-10,-5,-9,-1,19,5
13:51:05:442938,2,10,0,-8,-5,-8,-5,2
13:51:05:457099,-10,-14,-16,-28,-6,5,-11,-7
13:51:05:457904,-10,-14,-16,-28,-6,5,-11,-7
13:51:05:463880,-6,-11,-4,4,7,8,6,-1
13:51:05:471481,-1,21,15,23,9,7,-1,2
13:51:05:479003,-1,21,15,23,9,7,-1,2
13:51:05:486451,18,2,-2,6,-5,-7,-8,4
13:51:05:493904,6,-6,-34,2,-6,-1,8,-7
13:51:05:502238,6,-6,-34,2,-6,-1,8,-7
13:51:05:502932,-3,-1,1,-8,8,5,-3,-4
13:51:05:517171,2,-1,14,9,5,-5,-7,6
13:51:05:517903,2,-1,14,9,5,-5,-7,6
13:51:05:532057,2,-2,6,-7,-8,0,12,2
13:51:05:532806,-17,-14,10,-17,-7,0,-4,0
13:51:05:538995,-17,-14,10,-17,-7,0,-4,0
13:51:05:546368,2,0,0,4,7,-5,-12,0
13:51:05:554002,6,5,-6,16,-2,-1,-2,-3
13:51:05:562134,6,5,-6,16,-2,-1,-2,-3
13:51:05:562884,-7,-7,-16,-5,-4,0,4,7
13:51:05:577132,-7,-18,-1,-4,7,-1,-12,-10
13:51:05:577875,-7,-18,-1,-4,7,-1,-12,-10
13:51:05:583933,-7,2,0,17,-1,-7,-10,-9
13:51:05:591448,-14,-45,-11,-9,2,-5,2,4
13:51:05:599067,-14,-45,-11,-9,2,-5,2,4
13:51:05:606447,4,6,6,11,2,11,6,4
13:51:05:613857,6,24,8,-5,-5,4,2,1
13:51:05:622227,6,24,8,-5,-5,4,2,1
13:51:05:622905,-9,10,12,2,0,3,-2,-1
13:51:05:637234,-8,11,7,-4,-4,-12,1,-10
13:51:05:637897,-8,11,7,-4,-4,-12,1,-10
13:51:05:643865,18,22,3,-1,-13,-2,-3,1
13:51:05:651427,5,-4,-9,11,4,18,14,-3
13:51:05:658959,5,-4,-9,11,4,18,14,-3
13:51:05:666515,-1,-1,15,0,-2,-2,1,5
13:51:05:673919,-6,2,-9,-10,-7,-1,6,4
13:51:05:682252,-6,2,-9,-10,-7,-1,6,4
13:51:05:683018,-7,8,-7,-5,1,-9,-5,-6
13:51:05:697106,0,-4,13,8,7,6,0,-2
13:51:05:697935,0,-4,13,8,7,6,0,-2
13:51:05:704008,-4,-33,-21,-5,4,-7,-6,-11
13:51:05:711417,17,3,9,3,4,6,14,4
13:51:05:719042,17,3,9,3,4,6,14,4
13:51:05:726493,6,-9,-3,1,-2,-2,8,0
13:51:05:734005,-2,-9,-10,-23,-6,-16,-11,-5
13:51:05:742099,-2,-9,-10,-23,-6,-16,-11,-5
13:51:05:742921,-10,-7,3,-26,-3,4,5,1
13:51:05:757111,-8,-4,13,-3,-8,-7,-6,-1
13:51:05:757981,-8,-4,13,-3,-8,-7,-6,-1
13:51:05:763934,-4,27,3,8,4,-3,0,-3
13:51:05:771495,-8,-8,-17,-25,0,10,-3,0
13:51:05:778956,-8,-8,-17,-25,0,10,-3,0
13:51:05:786437,21,8,13,-2,11,12,17,3
13:51:05:793940,0,8,9,0,-9,3,2,7
13:51:05:802213,0,8,9,0,-9,3,2,7
13:51:05:802920,-5,-10,-6,8,0,-4,1,-1
13:51:05:817126,-5,-12,-4,-3,11,-1,-13,-6
13:51:05:817875,-5,-12,-4,-3,11,-1,-13,-6
13:51:05:823917,-9,-14,-23,-1,-8,-13,-11,-4
13:51:05:831422,2,11,5,4,-4,2,8,-3
13:51:05:839063,2,11,5,4,-4,2,8,-3
13:51:05:846364,-7,-8,14,-1,0,10,-10,-3
13:51:05:853972,17,18,-1,6,3,-1,-13,4
13:51:05:862157,17,18,-1,6,3,-1,-13,4
13:51:05:862901,-5,-7,-18,-2,-8,-10,-16,-4
13:51:05:877146,-9,13,12,2,1,5,7,-5
13:51:05:877906,-9,13,12,2,1,5,7,-5
13:51:05:883947,1,-16,-3,10,7,-7,1,-4
13:51:05:891416,6,-1,-6,-16,-7,-14,1,-1
13:51:05:899216,6,-1,-6,-16,-7,-14,1,-1
13:51:05:906374,-13,12,-8,8,-1,15,22,8
13:51:05:913861,-15,-23,-15,0,-16,-35,-32,-8
13:51:05:922227,-15,-23,-15,0,-16,-35,-32,-8
13:51:05:922920,10,-1,22,-13,-11,-13,-4,-8
13:51:05:937160,13,-6,0,10,7,1,10,8
13:51:05:937913,13,-6,0,10,7,1,10,8
13:51:05:943879,-1,-5,-12,-6,1,-8,-12,3
13:51:05:951412,-4,2,-13,9,0,-7,-6,-5
13:51:05:958981,-4,2,-13,9,0,-7,-6,-5
13:51:05:966463,11,21,16,-1,-4,6,5,3
13:51:05:973935,0,-10,-6,-5,14,13,8,0
13:51:05:981525,0,-10,-6,-5,14,13,8,0
13:51:05:989024,1,3,-8,-7,-2,-12,3,-1
13:51:05:997077,0,-11,13,-13,-4,8,10,8
13:51:05:997894,0,-11,13,-13,-4,8,10,8
13:51:06:3973,-9,-14,-14,-3,0,22,3,3
13:51:06:11449,-4,-19,-6,7,-3,-5,-6,2
13:51:06:19039,-4,-19,-6,7,-3,-5,-6,2
13:51:06:26450,4,3,0,9,3,-5,-4,-8
13:51:06:33958,6,14,1,-6,-11,1,1,-6
13:51:06:41499,6,14,1,-6,-11,1,1,-6
13:51:06:48986,6,-5,-14,-7,6,5,-5,-4
13:51:06:57168,-13,-15,-1,10,2,-1,-7,-5
13:51:06:57965,-13,-15,-1,10,2,-1,-7,-5
13:51:06:63917,-1,1,-8,9,8,-10,-7,-4
13:51:06:79596,-4,7,-1,25,8,12,15,4
13:51:06:80409,-4,7,-1,25,8,12,15,4
13:51:06:86439,-10,1,8,-8,-5,-9,0,-6
13:51:06:93911,1,15,4,-13,-10,-8,-24,-3
13:51:06:101502,1,15,4,-13,-10,-8,-24,-3
13:51:06:108939,-9,-7,9,-5,-9,9,19,8
13:51:06:117134,-4,8,10,9,5,13,8,3
13:51:06:117947,-4,8,10,9,5,13,8,3
13:51:06:123936,1,-3,-10,-2,3,7,-9,1
13:51:06:139647,-1,-7,-10,-9,-11,-6,-1,-1
13:51:06:140423,-1,-7,-10,-9,-11,-6,-1,-1
13:51:06:146396,-2,9,1,-23,-17,-15,-4,-1
13:51:06:153973,12,31,15,-9,-7,-11,0,-1
13:51:06:161505,12,31,15,-9,-7,-11,0,-1
13:51:06:168970,1,-5,11,-6,13,4,-5,-1
13:51:06:177121,-5,3,10,12,9,0,2,-3
13:51:06:177917,-5,3,10,12,9,0,2,-3
13:51:06:183989,-2,-4,-1,5,-4,1,-2,-6
13:51:06:199675,1,-3,-10,15,-2,-2,6,-7
13:51:06:200405,1,-3,-10,15,-2,-2,6,-7
13:51:06:206445,-22,-26,-64,-1,1,4,-9,-6
13:51:06:213901,-5,-22,-10,-13,-2,-5,-5,-6
13:51:06:221554,-5,-22,-10,-13,-2,-5,-5,-6
13:51:06:228965,-10,-10,31,4,5,12,8,1
13:51:06:237117,-5,-4,32,-5,-6,-9,-4,1
13:51:06:237890,-5,-4,32,-5,-6,-9,-4,1
13:51:06:243904,10,16,28,8,-11,-17,-14,-2
13:51:06:259655,7,-21,-16,0,15,9,6,-2
13:51:06:260407,7,-21,-16,0,15,9,6,-2
13:51:06:266430,-14,-7,31,7,2,0,1,-2
13:51:06:273960,3,6,-3,-11,-2,-1,-6,-3
13:51:06:281455,3,6,-3,-11,-2,-1,-6,-3
13:51:06:288939,9,7,-5,11,2,-3,-3,1
13:51:06:297072,-4,-5,-2,4,-4,6,-12,-1
13:51:06:297907,-4,-5,-2,4,-4,6,-12,-1
13:51:06:304067,-2,-9,-20,-11,5,-1,1,2
13:51:06:319719,0,15,8,-10,-2,-5,-2,0
13:51:06:320421,0,15,8,-10,-2,-5,-2,0
13:51:06:326390,7,10,-11,14,-2,-1,-8,0
13:51:06:333958,-5,-3,-24,-3,1,-3,-5,-2
13:51:06:341493,-5,-3,-24,-3,1,-3,-5,-2
13:51:06:349029,6,10,6,8,-1,2,7,1
13:51:06:357147,14,9,8,0,5,6,17,8
13:51:06:357934,14,9,8,0,5,6,17,8
13:51:06:363903,-12,-45,-22,-24,-4,-6,2,-9
13:51:06:379604,-11,-14,-29,-11,-7,-13,-8,-3
13:51:06:380405,-11,-14,-29,-11,-7,-13,-8,-3
13:51:06:386489,17,13,22,23,4,5,-7,4
13:51:06:393902,-9,-18,-4,-17,-10,2,2,-2
13:51:06:401482,-9,-18,-4,-17,-10,2,2,-2
13:51:06:408934,-11,5,10,-8,-9,-8,-9,-1
13:51:06:417136,8,20,9,-11,-9,2,3,6
13:51:06:417853,8,20,9,-11,-9,2,3,6
13:51:06:423945,9,23,0,5,-12,0,3,-2
13:51:06:439646,12,-1,1,20,4,-6,-6,-1
13:51:06:440432,12,-1,1,20,4,-6,-6,-1
13:51:06:446378,-5,9,-7,-2,2,-4,-5,-5
13:51:06:453942,-11,-8,-6,8,9,7,3,-3
13:51:06:461494,-11,-8,-6,8,9,7,3,-3
13:51:06:469026,3,-5,4,-9,-10,1,10,-1
13:51:06:477108,13,0,-46,8,7,-6,-1,2
13:51:06:477897,13,0,-46,8,7,-6,-1,2
13:51:06:484006,-4,-15,-35,-19,10,-8,-1,1
13:51:06:499663,-21,-3,49,13,-4,10,5,2
13:51:06:500379,-21,-3,49,13,-4,10,5,2
13:51:06:506462,-7,-17,29,-21,-6,-5,-9,-3
13:51:06:513923,3,4,15,-6,1,-7,-3,-12
13:51:06:521533,3,4,15,-6,1,-7,-3,-12
13:51:06:528971,-4,-4,-11,-3,-2,-2,3,0
13:51:06:537188,-6,-2,-7,7,-1,-7,1,2
13:51:06:537878,-6,-2,-7,7,-1,-7,1,2
13:51:06:543872,9,13,9,6,9,0,2,0
13:51:06:559628,-11,-17,-15,-10,4,2,-6,2
13:51:06:560410,-11,-17,-15,-10,4,2,-6,2
13:51:06:566450,4,-5,7,16,0,1,-8,-4
13:51:06:573905,-1,-4,-8,-3,-9,-12,-1,-5
13:51:06:581448,-1,-4,-8,-3,-9,-12,-1,-5
13:51:06:588940,8,4,2,8,3,2,4,3
13:51:06:597072,2,-8,-8,31,22,13,-2,-1
13:51:06:597921,2,-8,-8,31,22,13,-2,-1
13:51:06:603922,-12,15,9,-21,3,1,1,0
13:51:06:619648,1,-4,3,-29,-21,-3,4,-2
13:51:06:620384,1,-4,3,-29,-21,-3,4,-2
13:51:06:626374,-10,-14,-5,-2,-7,6,-7,2
13:51:06:633886,4,21,5,-8,-4,5,5,7
13:51:06:641496,4,21,5,-8,-4,5,5,7
13:51:06:648954,10,5,-3,-8,-1,-9,-4,-6
13:51:06:657107,16,-8,-2,12,5,-4,17,4
13:51:06:657983,16,-8,-2,12,5,-4,17,4
13:51:06:663909,0,-19,-17,8,4,12,6,-3
13:51:06:679584,-14,-3,9,-4,-7,-6,-7,3
13:51:06:680412,-14,-3,9,-4,-7,-6,-7,3
13:51:06:686456,1,-6,12,7,8,-9,-2,1
13:51:06:693881,7,10,-7,5,-10,-2,-7,-4
13:51:06:701621,7,10,-7,5,-10,-2,-7,-4
13:51:06:708947,-3,4,-19,-2,-6,-8,-3,5
13:51:06:717095,2,16,1,-8,5,9,3,-2
13:51:06:717872,2,16,1,-8,5,9,3,-2
13:51:06:723923,5,-3,-8,-7,-1,8,-3,-11
13:51:06:747718,0,-2,-4,-8,-7,-4,-4,-5
13:51:06:748578,0,-2,-4,-8,-7,-4,-4,-5
13:51:06:749380,-8,-2,-7,-7,-2,-10,-8,32
13:51:06:754049,0,-6,-4,-1,4,-6,-11,2
13:51:06:761447,0,-6,-4,-1,4,-6,-11,2
13:51:06:768984,9,17,-4,-5,-16,-1,-11,-19
13:51:06:777120,-20,-23,-5,12,9,9,11,-8
13:51:06:777898,-20,-23,-5,12,9,9,11,-8
13:51:06:783923,-11,0,0,6,0,4,2,-12
13:51:06:799817,-5,-9,-13,1,-1,0,-4,-5
13:51:06:800416,-5,-9,-13,1,-1,0,-4,-5
13:51:06:806395,-13,-25,113,-12,-2,-9,-1,-3
13:51:06:813888,-7,-17,117,-9,-2,0,-11,-6
13:51:06:821538,-7,-17,117,-9,-2,0,-11,-6
13:51:06:828934,11,-11,-14,19,7,1,6,4
13:51:06:837126,0,11,-59,-29,-15,-12,-7,2
13:51:06:837888,0,11,-59,-29,-15,-12,-7,2
13:51:06:843911,-6,8,-75,4,13,3,6,-7
13:51:06:859564,6,-25,-63,-2,5,0,-5,1
13:51:06:860410,6,-25,-63,-2,5,0,-5,1
13:51:06:866501,-4,1,-28,-11,-8,0,-9,-8
13:51:06:873910,1,8,-19,2,1,0,-5,-3
13:51:06:881410,1,8,-19,2,1,0,-5,-3
13:51:06:888911,-11,-24,-44,-8,-2,-17,-10,-4
13:51:06:897053,7,-10,-20,12,0,5,5,-2
13:51:06:897878,7,-10,-20,12,0,5,5,-2
13:51:06:903916,7,0,7,23,0,6,-8,-1
13:51:06:919638,-6,11,8,-2,-8,-1,3,1
13:51:06:920383,-6,11,8,-2,-8,-1,3,1
13:51:06:926421,8,10,3,-1,-1,-2,-23,2
13:51:06:942149,8,10,3,-1,-1,-2,-23,2
13:51:06:942954,5,11,21,16,-2,-5,4,2
13:51:06:949037,-4,34,20,-21,-12,2,15,2
13:51:06:957101,-4,34,20,-21,-12,2,15,2
13:51:06:957867,-18,-9,-7,-9,-6,1,2,-1
13:51:06:963897,-2,-3,-2,5,0,4,13,1
13:51:06:979591,-2,-3,-2,5,0,4,13,1
13:51:06:980377,5,5,-4,0,-4,-11,-17,-7
13:51:06:986519,3,-2,-4,-4,-6,2,15,5
13:51:07:2215,3,-2,-4,-4,-6,2,15,5
13:51:07:2947,12,-4,-12,0,0,-3,5,-1
13:51:07:8904,-1,-10,-9,-18,-4,-5,-6,-4
13:51:07:17118,-1,-10,-9,-18,-4,-5,-6,-4
13:51:07:17863,22,9,2,6,14,9,1,7
13:51:07:31397,-5,1,-5,8,3,2,10,0
13:51:07:39660,-5,1,-5,8,3,2,10,0
13:51:07:40412,-6,7,6,7,-3,-7,8,-4
13:51:07:46392,-4,-4,15,-13,-1,-1,10,-2
13:51:07:62165,-4,-4,15,-13,-1,-1,10,-2
13:51:07:62916,-7,0,-9,-20,-8,0,-10,3
13:51:07:68917,4,5,0,7,-8,-1,-13,3
13:51:07:77155,4,5,0,7,-8,-1,-13,3
13:51:07:77934,-28,-22,-5,-7,0,-8,-10,-11
13:51:07:91432,1,1,5,5,8,15,14,15
13:51:07:99721,1,1,5,5,8,15,14,15
13:51:07:100411,15,54,21,16,4,-4,0,4
13:51:07:106425,-4,-3,2,4,1,-1,-8,-9
13:51:07:122219,-4,-3,2,4,1,-1,-8,-9
13:51:07:122883,-8,-6,5,-3,9,11,8,1
13:51:07:128869,-5,5,-8,7,-4,-3,-3,-5
13:51:07:137175,-5,5,-8,7,-4,-3,-3,-5
13:51:07:137972,-3,-8,-19,-15,-17,-13,-1,-2
13:51:07:151417,4,-8,0,-4,3,-12,-6,-5
13:51:07:159656,4,-8,0,-4,3,-12,-6,-5
13:51:07:160455,-21,-14,-4,-7,-1,3,-3,1
13:51:07:166497,0,-6,0,-3,-2,-6,-7,0
13:51:07:182231,0,-6,0,-3,-2,-6,-7,0
13:51:07:182943,11,0,11,-14,-6,-3,-2,1
13:51:07:188991,10,0,-17,-7,-4,-11,-8,-5
13:51:07:197115,10,0,-17,-7,-4,-11,-8,-5
13:51:07:197896,0,-19,-6,-2,2,3,8,0
13:51:07:211407,1,-5,5,7,-13,-7,0,2
13:51:07:219717,1,-5,5,7,-13,-7,0,2
13:51:07:220480,6,17,-3,-7,2,3,2,0
13:51:07:226431,4,15,-14,5,12,7,5,6
13:51:07:242135,4,15,-14,5,12,7,5,6
13:51:07:242941,-10,5,17,8,1,-2,-10,-8
13:51:07:248981,-21,-51,-3,2,-12,-9,-6,-5
13:51:07:256906,-21,-51,-3,2,-12,-9,-6,-5
13:51:07:263891,-2,8,-5,-6,-5,-13,-15,-10
13:51:07:271449,-5,-9,22,17,9,11,12,2
13:51:07:279632,-5,-9,22,17,9,11,12,2
13:51:07:280417,2,-14,-2,-2,-5,2,7,7
13:51:07:286438,2,1,-12,-6,-5,-2,-3,0
13:51:07:302181,2,1,-12,-6,-5,-2,-3,0
13:51:07:302904,-1,-15,-2,3,7,1,-7,-2
13:51:07:308887,1,21,16,2,4,-3,4,-3
13:51:07:317138,1,21,16,2,4,-3,4,-3
13:51:07:317878,2,6,-7,3,4,3,5,-6
13:51:07:331367,-10,-2,-7,-10,-7,1,1,-2
13:51:07:339629,-10,-2,-7,-10,-7,1,1,-2
13:51:07:340428,13,5,21,2,1,-4,-3,-1
13:51:07:346415,17,23,4,-3,8,7,-4,0
13:51:07:362097,17,23,4,-3,8,7,-4,0
13:51:07:362879,2,-2,0,0,-3,-4,0,6
13:51:07:368944,-5,-11,-6,-12,-5,-8,3,-6
13:51:07:377157,-5,-11,-6,-12,-5,-8,3,-6
13:51:07:377924,-11,-13,-12,-1,-10,5,3,3
13:51:07:391375,-6,-1,5,-16,-6,-3,-6,-2
13:51:07:399707,-6,-1,5,-16,-6,-3,-6,-2
13:51:07:400413,-3,-6,-2,-2,-1,-4,2,0
13:51:07:406430,-4,4,-4,1,0,0,1,-7
13:51:07:422231,-4,4,-4,1,0,0,1,-7
13:51:07:422977,0,-1,-13,13,-1,-3,2,-9
13:51:07:428890,19,22,9,1,2,12,10,11
13:51:07:437191,19,22,9,1,2,12,10,11
13:51:07:437895,-1,6,-5,-1,3,0,-3,2
13:51:07:451458,6,-1,-21,3,0,-2,-9,3
13:51:07:459632,6,-1,-21,3,0,-2,-9,3
13:51:07:460412,1,6,-6,-16,-4,-5,8,0
13:51:07:473943,-2,10,9,0,10,-5,2,-2
13:51:07:482139,-2,10,9,0,10,-5,2,-2
13:51:07:482908,10,6,0,3,5,9,7,-2
13:51:07:488994,-18,-32,-15,-5,-7,-2,-6,0
13:51:07:497103,-18,-32,-15,-5,-7,-2,-6,0
13:51:07:497870,-6,25,11,3,2,2,-4,0
13:51:07:511448,0,-13,-16,-1,-3,-1,-17,-5
13:51:07:519685,0,-13,-16,-1,-3,-1,-17,-5
13:51:07:520398,-7,-23,4,1,-3,0,-4,0
13:51:07:526418,8,3,9,4,-6,-14,1,-2
13:51:07:542587,8,3,9,4,-6,-14,1,-2
13:51:07:543391,-6,-7,-21,1,0,2,-4,-5
13:51:07:549020,-5,16,12,2,-15,7,-3,-4
13:51:07:557138,-5,16,12,2,-15,7,-3,-4
13:51:07:557892,-8,-19,1,-3,-5,-5,7,5
13:51:07:571489,-1,0,21,14,8,-4,-1,-4
13:51:07:579588,-1,0,21,14,8,-4,-1,-4
13:51:07:580352,-1,-13,-3,-7,2,11,6,-6
13:51:07:586514,6,9,-8,-17,9,-17,2,-2
13:51:07:602204,6,9,-8,-17,9,-17,2,-2
13:51:07:602965,0,-8,7,13,23,-5,-3,0
13:51:07:608922,-10,-1,4,21,-4,-4,-11,-8
13:51:07:617583,-10,-1,4,21,-4,-4,-11,-8
13:51:07:623964,2,13,4,-8,-19,-9,-6,7
13:51:07:631421,4,-21,-17,-6,-9,5,12,5
13:51:07:639614,4,-21,-17,-6,-9,5,12,5
13:51:07:640397,-2,-2,0,-4,-1,2,-4,-3
13:51:07:646329,2,3,-7,-1,-2,0,0,7
13:51:07:662134,2,3,-7,-1,-2,0,0,7
13:51:07:662856,7,9,6,-4,-1,7,-3,1
13:51:07:668965,-7,-7,-12,6,-6,6,1,-1
13:51:07:677097,-7,-7,-12,6,-6,6,1,-1
13:51:07:677890,-1,14,6,6,-1,-6,-1,-1
13:51:07:691453,-1,-4,-4,-4,3,4,-4,-2
13:51:07:699685,-1,-4,-4,-4,3,4,-4,-2
13:51:07:700388,6,29,-6,-15,-6,-7,-7,-4
13:51:07:713910,2,9,1,5,1,-1,5,5
13:51:07:722243,2,9,1,5,1,-1,5,5
13:51:07:722908,-21,-12,-1,-8,-7,-11,-7,-8
13:51:07:728939,-2,2,6,-12,0,-3,4,-3
13:51:07:737187,-2,2,6,-12,0,-3,4,-3
13:51:07:737932,-1,-19,-3,9,0,2,9,2
13:51:07:751959,-8,-15,-2,-3,2,0,-2,-4
13:51:07:759619,-8,-15,-2,-3,2,0,-2,-4
13:51:07:760410,7,-14,-2,6,2,1,-7,0
13:51:07:766555,4,15,1,14,1,-1,-7,0
13:51:07:782151,4,15,1,14,1,-1,-7,0
13:51:07:782958,6,2,-5,5,8,27,14,4
13:51:07:789004,-5,6,-1,-7,-2,-9,-9,2
13:51:07:797081,-5,6,-1,-7,-2,-9,-9,2
13:51:07:797877,7,-1,-16,-5,-5,-11,-10,-4
13:51:07:811414,4,9,15,20,3,6,9,2
13:51:07:819643,4,9,15,20,3,6,9,2
13:51:07:820369,-8,-5,9,3,3,0,10,2
13:51:07:826448,-7,-11,-5,-4,-1,-1,-8,-6
13:51:07:842131,-7,-11,-5,-4,-1,-1,-8,-6
13:51:07:842986,16,3,-15,-1,-4,2,-1,-2
13:51:07:849011,-4,-1,-3,-28,-3,-4,-5,-2
13:51:07:857113,-4,-1,-3,-28,-3,-4,-5,-2
13:51:07:857909,1,2,-3,-5,-1,-13,-3,-2
13:51:07:871537,11,27,18,1,-3,0,2,-2
13:51:07:879607,11,27,18,1,-3,0,2,-2
13:51:07:880399,-9,2,11,1,-4,-12,-5,-5
13:51:07:886514,-11,-22,-16,-20,-7,-19,-4,-9
13:51:07:902142,-11,-22,-16,-20,-7,-19,-4,-9
13:51:07:902915,5,15,7,20,9,19,14,1
13:51:07:908909,6,-1,-3,-3,8,1,-3,4
13:51:07:917188,6,-1,-3,-3,8,1,-3,4
13:51:07:917937,-14,-9,5,-9,-3,-11,-10,-4
13:51:07:931407,-2,2,-8,-2,0,0,-5,0
13:51:07:939649,-2,2,-8,-2,0,0,-5,0
13:51:07:940424,-11,-15,-11,-4,-7,-1,-6,-4
13:51:07:953938,-14,-4,0,5,-5,-12,-7,-3
13:51:07:962164,-14,-4,0,5,-5,-12,-7,-3
13:51:07:962893,3,-3,19,9,15,37,41,13
13:51:07:968970,4,5,17,28,4,14,4,0
13:51:07:976485,4,5,17,28,4,14,4,0
13:51:07:983971,5,-3,0,13,-13,-25,-18,-7
13:51:07:991413,-1,-3,-13,-8,0,2,6,2
13:51:07:999654,-1,-3,-13,-8,0,2,6,2
13:51:08:455,-15,6,-8,-24,-3,0,-2,-8
13:51:08:13914,-11,-20,-11,-13,-8,4,7,-7
13:51:08:30309,-11,-20,-11,-13,-8,4,7,-7
13:51:08:31053,-2,-13,-6,-28,-4,-5,-10,0
13:51:08:31861,2,-14,8,2,-1,9,5,4
13:51:08:36600,2,-14,8,2,-1,9,5,4
13:51:08:43894,4,5,-17,3,0,2,9,10
13:51:08:51456,1,11,-3,-6,2,-2,-4,-6
13:51:08:59680,1,11,-3,-6,2,-2,-4,-6
13:51:08:60449,-4,-3,-1,-12,2,-8,-7,-2
13:51:08:73917,5,-1,-3,14,0,18,-12,4
13:51:08:82155,5,-1,-3,14,0,18,-12,4
13:51:08:82908,-7,-2,-5,0,-4,-12,2,-2
13:51:08:88971,6,9,12,24,14,8,12,1
13:51:08:96467,6,9,12,24,14,8,12,1
13:51:08:103994,-3,3,4,1,-8,-2,-4,-2
13:51:08:111425,3,9,-1,-13,-9,-14,-11,-1
13:51:08:119649,3,9,-1,-13,-9,-14,-11,-1
13:51:08:120394,3,-11,-5,7,3,-5,-4,-4
13:51:08:134389,9,12,3,-16,-8,0,2,-5
13:51:08:142158,9,12,3,-16,-8,0,2,-5
13:51:08:142902,-1,14,5,-4,0,-2,-9,-2
13:51:08:149052,-17,-21,-16,8,10,-3,3,3
13:51:08:156501,-17,-21,-16,8,10,-3,3,3
13:51:08:163912,1,-4,-2,-1,3,6,-8,-4
13:51:08:171494,-10,11,6,-5,-5,-5,19,4
13:51:08:179589,-10,11,6,-5,-5,-5,19,4
13:51:08:180370,4,-19,-9,2,-3,-2,-3,-7
13:51:08:193961,7,-1,2,-21,-4,-8,-4,-1
13:51:08:202132,7,-1,2,-21,-4,-8,-4,-1
13:51:08:202922,-3,4,2,-10,-12,-6,-12,2
13:51:08:208958,17,-1,-7,-8,9,11,-2,1
13:51:08:216495,17,-1,-7,-8,9,11,-2,1
13:51:08:223908,7,5,-3,3,-6,-6,-4,0
13:51:08:231435,-21,-2,-6,-1,-14,-6,-9,-3
13:51:08:239617,-21,-2,-6,-1,-14,-6,-9,-3
13:51:08:240396,-6,17,0,-15,1,-5,-3,-2
13:51:08:253974,4,13,1,-5,-2,-3,-1,0
13:51:08:262225,4,13,1,-5,-2,-3,-1,0
13:51:08:262895,-9,1,10,22,2,-1,4,-1
13:51:08:268954,-14,-28,-9,18,6,1,-8,-11
13:51:08:276453,-14,-28,-9,18,6,1,-8,-11
13:51:08:283940,8,11,12,4,2,2,10,9
13:51:08:291381,6,-12,18,1,-7,-10,-9,-3
13:51:08:299647,6,-12,18,1,-7,-10,-9,-3
13:51:08:300386,3,-7,3,9,6,7,8,0
13:51:08:313878,-11,-16,-11,0,1,10,15,3
13:51:08:322198,-11,-16,-11,0,1,10,15,3
13:51:08:322891,-7,6,-11,-12,0,-8,-11,-3
13:51:08:328840,10,22,12,8,-3,-8,-12,-6
13:51:08:336525,10,22,12,8,-3,-8,-12,-6
13:51:08:343914,1,-6,-6,5,2,9,17,5
13:51:08:351391,-2,-19,-7,1,-3,4,15,6
13:51:08:359649,-2,-19,-7,1,-3,4,15,6
13:51:08:360415,-5,-10,-10,6,-3,-7,-18,-10
13:51:08:373876,-11,-9,4,-10,3,-6,-3,-2
13:51:08:382247,-11,-9,4,-10,3,-6,-3,-2
13:51:08:382938,-2,-2,-3,-5,-7,-7,-8,-1
13:51:08:389015,14,11,-18,2,16,12,-3,-3
13:51:08:396471,14,11,-18,2,16,12,-3,-3
13:51:08:403987,-4,3,8,-15,0,9,5,-2
13:51:08:411403,-16,4,19,5,-3,7,3,-3
13:51:08:419669,-16,4,19,5,-3,7,3,-3
13:51:08:420359,4,-3,-2,-5,-1,14,11,8
13:51:08:433973,9,-5,6,-9,-11,-3,6,1
13:51:08:442165,9,-5,6,-9,-11,-3,6,1
13:51:08:442889,-8,-14,2,14,9,-4,1,-11
13:51:08:457138,-1,-8,-8,13,-2,-9,-4,7
13:51:08:457910,-1,-8,-8,13,-2,-9,-4,7
13:51:08:463882,2,-16,3,-3,4,0,-8,-2
13:51:08:471499,-1,-5,5,10,3,-7,-9,-2
13:51:08:479622,-1,-5,5,10,3,-7,-9,-2
13:51:08:480372,-6,14,10,14,1,-4,-5,-1
13:51:08:493912,-4,41,11,-4,12,5,15,1
13:51:08:502195,-4,41,11,-4,12,5,15,1
13:51:08:502951,-4,-21,-13,5,4,1,11,-5
13:51:08:508921,-3,-26,-22,-2,-4,0,22,12
13:51:08:524633,-3,-26,-22,-2,-4,0,22,12
13:51:08:525425,-4,-11,-1,-1,-5,-4,-8,0
13:51:08:531428,12,23,20,-8,-1,-8,-20,-7
13:51:08:539713,12,23,20,-8,-1,-8,-20,-7
13:51:08:540439,-2,3,-4,2,-14,-9,-3,2
13:51:08:562761,0,-2,-6,-6,-2,1,9,0
13:51:08:563550,0,-2,-6,-6,-2,1,9,0
13:51:08:564366,6,27,3,-4,-5,13,8,-4
13:51:08:568945,4,-11,-25,-13,-6,2,-11,-2
13:51:08:576461,4,-11,-25,-13,-6,2,-11,-2
13:51:08:592065,-5,7,-1,-15,-10,-10,-5,4
13:51:08:592827,4,-7,7,0,1,4,1,-7
13:51:08:599692,4,-7,7,0,1,4,1,-7
13:51:08:600352,-3,-6,3,-16,7,0,7,0
13:51:08:613905,3,7,-8,0,2,-13,-23,-9
13:51:08:630267,3,7,-8,0,2,-13,-23,-9
13:51:08:631120,5,-4,4,9,4,6,13,6
13:51:08:631879,1,-8,-4,-16,-15,-9,-1,-4
13:51:08:636547,1,-8,-4,-16,-15,-9,-1,-4
13:51:08:643950,6,28,-10,9,5,-4,-7,0
13:51:08:651401,-10,-1,-2,6,3,6,-6,3
13:51:08:659445,-10,-1,-2,6,3,6,-6,3
13:51:08:666459,11,-4,2,-10,-2,-2,-7,-1
13:51:08:673977,-9,-3,-11,-13,-3,-6,-6,-8
13:51:08:682182,-9,-3,-11,-13,-3,-6,-6,-8
13:51:08:682931,4,0,-11,-15,-9,-8,-14,-5
13:51:08:697098,-12,-19,-17,6,-2,-8,-18,-5
13:51:08:697884,-12,-19,-17,6,-2,-8,-18,-5
13:51:08:703906,-15,-13,-3,8,11,-6,-17,-5
13:51:08:711434,10,-2,-5,9,8,17,6,1
13:51:08:719682,10,-2,-5,9,8,17,6,1
13:51:08:720395,-5,-19,-2,-12,-12,9,10,2
13:51:08:733947,-3,4,-15,-4,1,-4,6,3
13:51:08:742151,-3,4,-15,-4,1,-4,6,3
13:51:08:742891,1,-4,18,-7,-14,-13,3,-3
13:51:08:749008,-14,-24,-2,-2,-9,-8,14,-4
13:51:08:756504,-14,-24,-2,-2,-9,-8,14,-4
13:51:08:763901,10,-1,-12,4,-9,-11,-9,-2
13:51:08:771517,-3,-5,10,5,9,11,-9,7
13:51:08:779570,-3,-5,10,5,9,11,-9,7
13:51:08:780388,-1,-2,3,-4,12,15,3,1
13:51:08:802804,3,-2,14,7,-5,15,17,7
13:51:08:803649,3,-2,14,7,-5,15,17,7
13:51:08:804350,-1,-9,-14,-7,-5,2,11,-2
13:51:08:808982,1,22,-9,-23,-18,-18,-6,0
13:51:08:816599,1,22,-9,-23,-18,-18,-6,0
13:51:08:823927,9,10,4,14,-2,-10,5,4
13:51:08:831440,-2,2,11,4,5,0,7,-5
13:51:08:839636,-2,2,11,4,5,0,7,-5
13:51:08:840459,-3,8,1,-15,1,-3,1,1
13:51:08:854056,-9,6,11,-1,-2,1,-9,-1
13:51:08:862164,-9,6,11,-1,-2,1,-9,-1
13:51:08:862875,-10,13,-4,15,-6,-3,-26,1
13:51:08:869029,7,16,4,2,1,-5,11,-1
13:51:08:876474,7,16,4,2,1,-5,11,-1
13:51:08:883941,-10,-10,3,-5,6,4,9,-4
13:51:08:891403,17,-7,-15,-12,-3,0,0,16
13:51:08:899079,17,-7,-15,-12,-3,0,0,16
13:51:08:906374,6,6,-8,-5,1,-2,-12,1
13:51:08:913884,-11,-9,15,6,-8,-8,-10,-13
13:51:08:922260,-11,-9,15,6,-8,-8,-10,-13
13:51:08:922922,9,-10,1,-5,5,-2,-9,-3
13:51:08:937179,-1,2,-9,-32,-13,-2,0,-1
13:51:08:937934,-1,2,-9,-32,-13,-2,0,-1
13:51:08:943902,-2,-3,1,14,10,9,-1,0
13:51:08:951461,5,1,-4,20,1,-10,-6,-3
13:51:08:958969,5,1,-4,20,1,-10,-6,-3
13:51:08:974583,-9,-29,-6,10,-5,-9,-9,-10
13:51:08:975348,3,-11,-19,-3,-3,11,15,2
13:51:08:982149,3,-11,-19,-3,-3,11,15,2
13:51:08:982981,-11,-2,-7,15,0,-11,-5,-5
13:51:08:997120,-2,7,10,17,7,3,-7,-5
13:51:08:997883,-2,7,10,17,7,3,-7,-5
13:51:09:3988,-4,13,20,-14,-3,15,7,2
13:51:09:11395,-11,-7,1,5,6,-4,0,-10
13:51:09:19003,-11,-7,1,5,6,-4,0,-10
13:51:09:26422,-7,-1,3,-12,-8,-12,1,-7
13:51:09:33957,-7,-2,-2,2,-3,-5,1,3
13:51:09:42165,-7,-2,-2,2,-3,-5,1,3
13:51:09:42933,1,-12,1,-3,-3,0,11,4
13:51:09:57159,-3,3,-1,9,1,20,15,-1
13:51:09:57928,-3,3,-1,9,1,20,15,-1
13:51:09:63898,6,15,0,-1,-2,5,6,-2
13:51:09:79613,-3,-1,5,-3,-1,-13,-24,-10
13:51:09:80408,-3,-1,5,-3,-1,-13,-24,-10
13:51:09:86464,-1,3,-3,0,6,-8,1,0
13:51:09:93919,16,8,4,-5,5,-10,-18,5
13:51:09:102261,16,8,4,-5,5,-10,-18,5
13:51:09:102998,2,-8,-16,-15,-3,-4,-4,-3
13:51:09:117154,-12,-12,-2,-9,-4,-4,4,-6
13:51:09:117901,-12,-12,-2,-9,-4,-4,4,-6
13:51:09:123945,-4,-15,-1,0,5,-7,0,-6
13:51:09:140060,1,6,25,-17,-7,2,-10,-6
13:51:09:147115,1,6,25,-17,-7,2,-10,-6
13:51:09:147887,9,11,-5,-3,-8,1,3,5
13:51:09:153932,-1,-6,3,-3,4,-8,-6,-2
13:51:09:162129,-1,-6,3,-3,4,-8,-6,-2
13:51:09:162886,-2,-3,-7,-10,2,3,13,3
13:51:09:177108,-2,9,-5,7,4,3,2,4
13:51:09:177888,-2,9,-5,7,4,3,2,4
13:51:09:183967,-2,16,-12,-6,-9,5,-5,-3
13:51:09:191395,5,4,-4,15,-1,1,1,-1
13:51:09:199082,5,4,-4,15,-1,1,1,-1
13:51:09:206386,8,1,7,22,-1,-12,-7,5
13:51:09:213883,3,12,-8,-2,-7,-6,-3,4
13:51:09:222224,3,12,-8,-2,-7,-6,-3,4
13:51:09:222910,-11,-16,-3,0,3,2,0,1
13:51:09:237173,-7,-9,-13,-6,0,13,2,-3
13:51:09:237910,-7,-9,-13,-6,0,13,2,-3
13:51:09:243863,0,0,7,4,0,4,-4,0
13:51:09:251404,-1,0,-3,12,-2,-19,-1,2
13:51:09:259048,-1,0,-3,12,-2,-19,-1,2
13:51:09:266483,-12,-10,17,-11,1,-5,-15,-3
13:51:09:273908,3,-8,-16,-10,-8,-3,8,-3
13:51:09:282143,3,-8,-16,-10,-8,-3,8,-3
13:51:09:282942,4,8,-8,8,3,-10,-8,-6
13:51:09:297102,12,43,4,-9,-2,-2,3,6
13:51:09:297926,12,43,4,-9,-2,-2,3,6
13:51:09:303979,-5,8,-8,-15,1,7,2,0
13:51:09:311436,-1,-19,-5,-1,8,5,8,8
13:51:09:319058,-1,-19,-5,-1,8,5,8,8
13:51:09:326440,-1,-5,-5,0,-9,2,13,2
13:51:09:333949,7,-24,-11,-4,-10,-3,-8,-3
13:51:09:349743,7,-24,-11,-4,-10,-3,-8,-3
13:51:09:350406,1,1,3,-5,17,6,2,1
13:51:09:357087,-1,-6,-8,7,-1,-11,0,-8
13:51:09:357878,-1,-6,-8,7,-1,-11,0,-8
13:51:09:363909,1,-4,2,4,3,-4,-8,-25
13:51:09:379541,-11,-23,-12,-16,-5,10,10,-8
13:51:09:380336,-11,-23,-12,-16,-5,10,10,-8
13:51:09:386455,-5,-3,-3,14,-12,-1,-2,9
13:51:09:393911,-8,-1,16,8,1,-2,-8,2
13:51:09:402121,-8,-1,16,8,1,-2,-8,2
13:51:09:402911,0,-6,3,-20,-13,-7,-4,7
13:51:09:417175,2,2,-9,-14,-3,-10,3,1
13:51:09:417901,2,2,-9,-14,-3,-10,3,1
13:51:09:423915,-6,9,14,10,14,18,25,-2
13:51:09:431423,14,7,3,6,8,5,-4,3
13:51:09:439019,14,7,3,6,8,5,-4,3
13:51:09:446415,2,-6,-24,2,-12,-13,-11,6
13:51:09:453987,2,30,12,-1,1,1,-7,0
13:51:09:462102,2,30,12,-1,1,1,-7,0
13:51:09:462881,0,15,19,9,1,-2,0,-3
13:51:09:477095,-14,3,3,8,2,1,-1,1
13:51:09:477883,-14,3,3,8,2,1,-1,1
13:51:09:483999,-3,-17,-22,9,10,4,6,2
13:51:09:491462,-3,-14,-14,-12,5,1,2,-4
13:51:09:499037,-3,-14,-14,-12,5,1,2,-4
13:51:09:506394,-3,1,12,-12,-13,-10,2,-6
13:51:09:514578,1,7,14,2,5,17,9,9
13:51:09:515387,1,7,14,2,5,17,9,9
13:51:09:521450,7,0,-17,-17,0,1,6,3
13:51:09:537178,-12,-25,-1,4,-5,-16,2,-5
13:51:09:537943,-12,-25,-1,4,-5,-16,2,-5
13:51:09:543895,1,-8,0,14,-3,6,8,1
13:51:09:551447,7,-6,-3,-2,-12,6,0,3
13:51:09:558968,7,-6,-3,-2,-12,6,0,3
13:51:09:566485,-6,0,-13,-20,-8,-9,-9,-8
13:51:09:573895,12,-6,0,-13,2,-3,3,-3
13:51:09:581505,12,-6,0,-13,2,-3,3,-3
13:51:09:589001,19,-1,6,0,6,-2,-8,0
13:51:09:597108,-8,10,6,11,0,8,-19,-14
13:51:09:597896,-8,10,6,11,0,8,-19,-14
13:51:09:604035,0,-12,-9,-4,-4,-10,-4,5
13:51:09:611433,-7,-4,13,-5,-3,-4,0,-1
13:51:09:619041,-7,-4,13,-5,-3,-4,0,-1
13:51:09:626409,-6,3,8,12,-6,-8,-8,-3
13:51:09:634602,-9,7,-12,-11,7,-3,6,3
13:51:09:635431,-9,7,-12,-11,7,-3,6,3
13:51:09:641363,-7,-5,-9,6,7,-6,0,-2
13:51:09:657564,-5,-4,-15,-3,1,17,15,3
13:51:09:658341,-5,-4,-15,-3,1,17,15,3
13:51:09:663900,3,14,14,8,-1,2,-14,-10
13:51:09:671554,-10,-12,-4,12,-13,-17,-16,-7
13:51:09:678941,-10,-12,-4,12,-13,-17,-16,-7
13:51:09:686432,0,-2,1,-8,14,9,1,4
13:51:09:694577,12,7,-3,-3,-11,-16,-6,6
13:51:09:695362,12,7,-3,-3,-11,-16,-6,6
13:51:09:701396,-13,-16,8,-1,-8,-9,-3,-4
13:51:09:717130,-3,-10,-10,0,6,-2,-12,-5
13:51:09:717879,-3,-10,-10,0,6,-2,-12,-5
13:51:09:723850,7,24,6,3,13,13,17,5
13:51:09:731389,-1,6,30,-2,-7,-3,5,-4
13:51:09:738991,-1,6,30,-2,-7,-3,5,-4
13:51:09:746375,-3,-3,-12,-7,-14,-5,2,2
13:51:09:754664,3,-17,-18,2,1,1,-13,-4
13:51:09:755419,3,-17,-18,2,1,1,-13,-4
13:51:09:761367,2,17,8,7,2,3,-2,6
13:51:09:777116,8,20,2,-1,-4,-5,-2,2
13:51:09:777892,8,20,2,-1,-4,-5,-2,2
13:51:09:783934,-4,-10,-7,0,4,7,-7,1
13:51:09:791423,-10,1,10,-2,5,-5,0,4
13:51:09:799064,-10,1,10,-2,5,-5,0,4
13:51:09:806384,-6,-9,-4,6,-5,-6,-5,-7
13:51:09:814641,-3,-5,-3,-5,3,12,-10,-4
13:51:09:815442,-3,-5,-3,-5,3,12,-10,-4
13:51:09:828892,10,8,-1,-3,-1,2,8,1
13:51:09:837247,-2,1,7,-3,-4,-8,-15,-7
13:51:09:838015,-2,1,7,-3,-4,-8,-15,-7
13:51:09:843914,6,-2,-4,3,-1,-8,-10,-7
13:51:09:859666,-17,-18,11,12,6,4,25,23
13:51:09:860438,-17,-18,11,12,6,4,25,23
13:51:09:866448,17,-6,1,-15,-6,-10,-14,4
13:51:09:874686,10,7,12,3,2,-2,7,7
13:51:09:875484,10,7,12,3,2,-2,7,7
13:51:09:888968,-3,-2,15,-8,-10,-1,3,5
13:51:09:897134,1,-9,-43,-13,-3,4,2,-2
13:51:09:897955,1,-9,-43,-13,-3,4,2,-2
13:51:09:903968,-4,-3,0,25,3,3,7,-7
13:51:09:919609,-7,6,-5,4,0,-7,-2,-14
13:51:09:920381,-7,6,-5,4,0,-7,-2,-14
13:51:09:935252,-12,-25,-31,-21,-3,-2,-1,-20
13:51:09:936009,13,4,3,7,2,-10,-12,-27
13:51:09:936851,13,4,3,7,2,-10,-12,-27
13:51:09:949047,-16,2,1,3,2,2,-10,-11
13:51:09:957087,7,1,-4,-13,-7,-2,9,4
13:51:09:957853,7,1,-4,-13,-7,-2,9,4
13:51:09:971471,-11,0,12,-4,-7,-1,3,15
13:51:09:979609,13,21,8,1,-1,2,4,14
13:51:09:980405,13,21,8,1,-1,2,4,14
13:51:09:986455,-1,0,-6,-1,-3,-13,-4,6
13:51:09:994558,-1,-1,30,2,2,1,1,5
13:51:09:995352,-1,-1,30,2,2,1,1,5
13:51:10:8890,-4,-7,-11,-14,6,10,0,3
13:51:10:17226,-3,-12,-10,-5,-7,6,3,-1
13:51:10:17942,-3,-12,-10,-5,-7,6,3,-1
13:51:10:23937,1,-14,3,2,5,0,5,10
13:51:10:39640,1,7,-9,-7,-8,-8,-10,13
13:51:10:40439,1,7,-9,-7,-8,-8,-10,13
13:51:10:46380,-1,12,9,23,0,2,1,-1
13:51:10:54591,-2,-8,3,1,4,3,-4,-13
13:51:10:55377,-2,-8,3,1,4,3,-4,-13
13:51:10:68954,9,12,3,-11,3,1,-4,-9
13:51:10:77129,4,5,14,-11,-1,-6,-1,-10
13:51:10:77898,4,5,14,-11,-1,-6,-1,-10
13:51:10:83896,-6,-12,-17,-8,2,9,7,-6
13:51:10:99671,-18,-2,-18,9,2,-10,1,-5
13:51:10:100407,-18,-2,-18,9,2,-10,1,-5
13:51:10:106387,-1,-16,-12,-15,-2,-12,-7,0
13:51:10:114634,-4,-16,-5,-17,-5,8,-3,2
13:51:10:115457,-4,-16,-5,-17,-5,8,-3,2
13:51:10:128916,-5,7,6,0,0,-8,-10,-3
13:51:10:137103,8,-4,-10,14,4,17,11,2
13:51:10:137898,8,-4,-10,14,4,17,11,2
13:51:10:143897,2,5,1,2,-6,-8,-12,-2
13:51:10:159614,3,2,-25,8,-3,15,-7,8
13:51:10:160434,3,2,-25,8,-3,15,-7,8
13:51:10:166512,7,5,-12,6,6,9,25,10
13:51:10:182130,-11,-16,-23,-13,-2,-11,-1,-6
13:51:10:182968,-11,-16,-23,-13,-2,-11,-1,-6
13:51:10:188946,-7,-8,7,-7,-5,-4,-10,-4
13:51:10:197075,8,7,19,15,5,-12,-3,2
13:51:10:197893,8,7,19,15,5,-12,-3,2
13:51:10:203975,6,24,12,-1,5,1,5,0
13:51:10:219670,6,24,12,-1,5,1,5,0
13:51:10:220432,-10,-11,-15,-21,-10,-13,-19,-9
13:51:10:226377,-15,-25,-21,7,-1,-5,-15,2
13:51:10:234612,3,-13,8,-3,-13,-4,-4,-8
13:51:10:235430,3,-13,8,-3,-13,-4,-4,-8
13:51:10:248979,3,-24,-21,8,-5,5,3,-6
13:51:10:257117,3,-24,-21,8,-5,5,3,-6
13:51:10:257876,-6,-3,16,12,12,-6,-7,-2
13:51:10:263869,-5,-7,-2,-4,-5,-3,0,-5
13:51:10:279591,-5,-7,-2,-4,-5,-3,0,-5
13:51:10:280387,-10,-5,14,-2,4,-7,13,-9
13:51:10:293944,-5,6,-8,-27,-11,-2,8,0
13:51:10:302202,-5,6,-8,-27,-11,-2,8,0
13:51:10:302905,-2,0,16,-7,-2,-7,17,-2
13:51:10:308946,1,13,14,4,1,8,-6,-3
13:51:10:317202,1,13,14,4,1,8,-6,-3
13:51:10:317905,-1,22,-6,5,-5,25,32,-5
13:51:10:323918,13,40,-19,-7,-8,3,5,2
13:51:10:339618,13,40,-19,-7,-8,3,5,2
13:51:10:340427,5,34,4,14,25,15,-8,1
13:51:10:346343,3,-15,14,9,0,-4,-2,-4
13:51:10:362078,3,-15,14,9,0,-4,-2,-4
13:51:10:362871,-7,17,14,-7,-20,-18,-14,0
13:51:10:369003,15,35,25,25,15,5,1,3
13:51:10:377086,15,35,25,25,15,5,1,3
13:51:10:377860,-6,-27,2,8,-4,-6,-10,2
13:51:10:383922,-6,41,-12,-3,-4,10,8,-1
13:51:10:399590,-6,41,-12,-3,-4,10,8,-1
13:51:10:400400,9,22,30,6,0,-2,11,9
13:51:10:406508,-7,36,54,-4,2,-3,-20,3
13:51:10:422240,-7,36,54,-4,2,-3,-20,3
13:51:10:422951,6,23,3,-14,-9,-5,-21,-1
13:51:10:428917,-10,-65,-56,-8,-11,-14,1,-5
13:51:10:437167,-10,-65,-56,-8,-11,-14,1,-5
13:51:10:437917,-3,0,3,20,-1,3,-4,3
13:51:10:443918,0,-23,-7,-5,4,3,0,-1
13:51:10:460050,0,-23,-7,-5,4,3,0,-1
13:51:10:467123,3,24,-15,7,13,-7,-1,0
13:51:10:467886,-6,-29,5,-16,-7,-5,-2,-8
13:51:10:482239,-6,-29,5,-16,-7,-5,-2,-8
13:51:10:482982,8,35,43,7,-3,3,-6,-1
13:51:10:489012,-13,-37,12,-3,-1,-4,4,-7
13:51:10:497095,-13,-37,12,-3,-1,-4,4,-7
13:51:10:497866,0,-48,-34,-6,2,2,-3,1
13:51:10:503997,4,-7,10,3,-7,-6,-3,3
13:51:10:519729,4,-7,10,3,-7,-6,-3,3
13:51:10:520445,5,6,-5,4,0,5,0,5
13:51:10:526400,13,49,26,13,5,13,-1,3
13:51:10:542163,13,49,26,13,5,13,-1,3
13:51:10:542932,-12,-37,-9,-13,-3,-6,13,-6
13:51:10:549012,-25,-19,7,2,6,-2,-6,-2
13:51:10:557142,-25,-19,7,2,6,-2,-6,-2
13:51:10:557927,1,-5,-28,-1,4,13,-1,0
13:51:10:563906,7,13,-4,15,7,7,4,-1
13:51:10:579625,7,13,-4,15,7,7,4,-1
13:51:10:580399,1,-20,-21,-25,-12,-13,-7,-7
13:51:10:586485,6,-7,-10,-6,-9,9,17,18
13:51:10:602244,6,-7,-10,-6,-9,9,17,18
13:51:10:602917,-4,-20,-8,-4,6,3,9,-1
13:51:10:608894,-4,-12,-23,-4,-1,3,12,-2
13:51:10:617246,-4,-12,-23,-4,-1,3,12,-2
13:51:10:617950,-8,-7,-3,8,-1,-10,-19,-13
13:51:10:623898,-8,14,-26,-15,-4,-13,-9,-6
13:51:10:639697,-8,14,-26,-15,-4,-13,-9,-6
13:51:10:640384,1,50,0,10,-7,3,-6,1
13:51:10:646402,10,28,0,-2,-1,-11,-1,2
13:51:10:662106,10,28,0,-2,-1,-11,-1,2
13:51:10:662910,10,66,37,-16,-16,7,2,2
