Time,EMG1,EMG2,EMG3,EMG4,EMG5,EMG6,EMG7,EMG8
13:51:20:217321,-1,2,3,1,4,-2,4,1
13:51:20:217943,-1,-2,6,6,-1,-1,1,-2
13:51:20:232243,3,-2,-2,-2,-8,-3,-6,1
13:51:20:233023,3,-2,-2,-2,-8,-3,-6,1
13:51:20:239135,-2,-1,2,3,1,-7,1,2
13:51:20:246523,0,1,0,3,5,-1,-1,-2
13:51:20:254161,0,1,0,3,5,-1,-1,-2
13:51:20:261578,-3,-1,2,-2,-7,-4,-6,-4
13:51:20:269127,2,-1,0,1,0,1,-2,0
13:51:20:277259,2,-1,0,1,0,1,-2,0
13:51:20:278026,-3,-3,-10,14,4,3,-2,-2
13:51:20:292234,-1,-3,-3,-1,0,-5,4,-1
13:51:20:293041,-1,-3,-3,-1,0,-5,4,-1
13:51:20:299105,-3,1,3,-6,-9,-7,4,0
13:51:20:306601,-5,1,1,0,3,2,-1,-1
13:51:20:314826,-5,1,1,0,3,2,-1,-1
13:51:20:321547,-1,-3,-5,-4,3,-2,-4,-1
13:51:20:328995,1,0,1,0,-8,3,-5,2
13:51:20:337331,1,0,1,0,-8,3,-5,2
13:51:20:338081,2,-4,6,-6,-2,-4,-3,-2
13:51:20:352261,-1,3,-4,0,-4,-10,-2,-1
13:51:20:353057,-1,3,-4,0,-4,-10,-2,-1
13:51:20:359086,-3,-3,0,3,5,9,1,0
13:51:20:366561,0,-4,-3,-1,1,-7,-1,1
13:51:20:374145,0,-4,-3,-1,1,-7,-1,1
13:51:20:381540,-2,6,-4,-1,0,-10,-1,-2
13:51:20:389083,0,-3,-5,-2,-6,2,-2,-3
13:51:20:397228,0,-3,-5,-2,-6,2,-2,-3
13:51:20:398028,3,-4,6,3,1,3,-1,0
13:51:20:412258,-1,0,2,6,-2,-2,6,0
13:51:20:413035,-1,0,2,6,-2,-2,6,0
13:51:20:419053,-3,-2,0,3,-2,0,3,-3
13:51:20:426511,-1,1,1,-3,5,4,-4,-3
13:51:20:442270,-1,1,1,-3,5,4,-4,-3
13:51:20:443006,2,4,0,4,-5,2,-3,1
13:51:20:457940,1,-1,4,-8,-4,-3,-1,0
13:51:20:458651,1,-1,4,-8,-4,-3,-1,0
13:51:20:459490,-4,-5,-2,-7,0,-5,-4,1
13:51:20:472233,-2,-3,-9,-11,1,-4,0,0
13:51:20:472945,-2,-3,-9,-11,1,-4,0,0
13:51:20:479026,0,0,-4,0,-3,-1,3,-2
13:51:20:486635,-3,-1,4,5,3,0,-4,0
13:51:20:494073,-3,-1,4,5,3,0,-4,0
13:51:20:501512,-2,-1,-13,-2,-5,4,4,0
13:51:20:508989,-3,-4,-2,-2,-1,4,2,-5
13:51:20:517274,-3,-4,-2,-2,-1,4,2,-5
13:51:20:518045,2,1,12,-5,1,3,-4,-81
13:51:20:532308,3,-3,-8,-3,2,-5,-1,5
13:51:20:533001,3,-3,-8,-3,2,-5,-1,5
13:51:20:539114,2,3,-5,1,0,-6,-3,38
13:51:20:546439,-1,-1,1,-6,-5,0,-3,24
13:51:20:554139,-1,-1,1,-6,-5,0,-3,24
13:51:20:561472,-2,-2,3,1,-3,0,1,17
13:51:20:569044,-4,2,1,4,-2,-3,-5,2
13:51:20:577232,-4,2,1,4,-2,-3,-5,2
13:51:20:578019,-3,-2,-3,5,-1,-3,0,13
13:51:20:592227,-1,-5,-4,-5,0,-2,1,-12
13:51:20:593014,-1,-5,-4,-5,0,-2,1,-12
13:51:20:599137,-1,-3,-2,0,-3,-7,3,11
13:51:20:606527,-3,1,0,-5,-2,-1,1,-10
13:51:20:614054,-3,1,0,-5,-2,-1,1,-10
13:51:20:621585,-2,2,1,-1,3,-3,-3,2
13:51:20:628999,0,7,-3,3,1,-3,-1,-4
13:51:20:636680,0,7,-3,3,1,-3,-1,-4
13:51:20:652916,-5,-3,-1,-6,-1,0,1,-5
13:51:20:653617,-1,-1,1,0,-5,2,1,1
13:51:20:654470,-1,-1,1,0,-5,2,1,1
13:51:20:659008,2,-3,-5,-14,-4,3,-7,-3
13:51:20:674727,-1,-3,2,1,-2,1,-3,-4
13:51:20:675554,-1,-3,2,1,-2,1,-3,-4
13:51:20:681483,0,-2,0,1,-5,-7,-3,1
13:51:20:689068,-1,-2,-2,3,5,3,3,-4
13:51:20:696548,-1,-2,-2,3,5,3,3,-4
13:51:20:712873,-1,-1,-2,-6,3,0,-1,-3
13:51:20:713664,-2,3,-4,-6,-3,-8,-4,0
13:51:20:714513,-2,3,-4,-6,-3,-8,-4,0
13:51:20:719066,1,-2,0,0,3,4,1,1
13:51:20:734717,0,-6,15,8,-9,-6,-2,-3
13:51:20:735524,0,-6,15,8,-9,-6,-2,-3
13:51:20:741525,0,2,-6,6,5,4,-1,-4
13:51:20:749075,-2,2,3,3,0,4,-3,-7
13:51:20:756624,-2,2,3,3,0,4,-3,-7
13:51:20:763981,-2,-2,-5,2,-3,-6,3,-2
13:51:20:772258,2,-5,-8,-5,-5,-10,0,0
13:51:20:772963,2,-5,-8,-5,-5,-10,0,0
13:51:20:779017,-2,2,5,0,8,15,2,2
13:51:20:794701,0,-1,-2,-4,1,-3,2,-3
13:51:20:795550,0,-1,-2,-4,1,-3,2,-3
13:51:20:801510,-5,-2,2,3,-9,1,-17,-3
13:51:20:809010,-2,-3,-6,0,1,-4,-6,1
13:51:20:816606,-2,-3,-6,0,1,-4,-6,1
13:51:20:824031,1,-2,2,2,6,-2,3,0
13:51:20:832304,0,1,1,-5,-1,-3,3,-1
13:51:20:833025,0,1,1,-5,-1,-3,3,-1
13:51:20:839041,-3,1,-3,-9,-2,-3,-2,-1
13:51:20:854832,-2,-7,-12,-6,-6,-1,1,-4
13:51:20:855523,-2,-7,-12,-6,-6,-1,1,-4
13:51:20:861514,0,-3,0,-2,1,-2,2,-3
13:51:20:869087,-1,-2,2,6,-5,3,-2,0
13:51:20:884733,-1,-2,2,6,-5,3,-2,0
13:51:20:885575,-2,2,-3,4,3,3,0,2
13:51:20:892217,-1,1,4,5,3,-3,2,-6
13:51:20:893023,-1,1,4,5,3,-3,2,-6
13:51:20:906559,1,-3,-1,4,-5,-7,0,-4
13:51:20:914729,-1,1,-9,-6,-4,-2,-1,-4
13:51:20:915543,-1,1,-9,-6,-4,-2,-1,-4
13:51:20:921584,-1,-1,1,-9,-5,-7,1,-2
13:51:20:929003,1,0,-2,5,4,3,-2,6
13:51:20:936624,1,0,-2,5,4,3,-2,6
13:51:20:944035,1,1,6,3,1,-2,-5,1
13:51:20:952242,-3,-4,4,-5,1,-1,2,0
13:51:20:952957,-3,-4,4,-5,1,-1,2,0
13:51:20:959006,-2,-6,-8,-3,-2,2,1,0
13:51:20:974737,0,0,-5,-4,4,8,0,-2
13:51:20:975537,0,0,-5,-4,4,8,0,-2
13:51:20:989747,0,0,-11,-9,-2,-5,-2,-4
13:51:20:990486,0,-3,3,4,-2,-3,-4,2
13:51:20:996589,0,-3,3,4,-2,-3,-4,2
13:51:21:4064,0,0,2,1,1,1,6,1
13:51:21:12200,-2,1,-2,3,3,2,109,1
13:51:21:12970,-2,1,-2,3,3,2,109,1
13:51:21:19067,-1,2,-1,-4,-3,-6,-90,-4
13:51:21:34744,-4,-1,-1,-3,-2,-3,-128,-7
13:51:21:35614,-4,-1,-1,-3,-2,-3,-128,-7
13:51:21:41580,1,-4,1,0,2,8,-74,-5
13:51:21:49007,1,-1,4,0,-9,-7,0,3
13:51:21:56514,1,-1,4,0,-9,-7,0,3
13:51:21:64006,-1,-4,-8,-6,-2,-10,6,-2
13:51:21:72250,3,3,0,-2,7,1,-3,-1
13:51:21:73018,3,3,0,-2,7,1,-3,-1
13:51:21:78941,0,0,1,-3,-1,-3,12,4
13:51:21:94736,-1,-7,-4,-1,-6,-4,2,-1
13:51:21:95499,-1,-7,-4,-1,-6,-4,2,-1
13:51:21:101560,0,2,1,7,-2,-5,24,0
13:51:21:109064,-3,2,0,-1,-1,4,-3,-3
13:51:21:116665,-3,2,0,-1,-1,4,-3,-3
13:51:21:124002,0,-4,-3,-3,2,2,23,-5
13:51:21:132217,-2,-4,1,2,2,3,-1,1
13:51:21:133009,-2,-4,1,2,2,3,-1,1
13:51:21:139062,-3,-1,4,7,-5,-3,6,-1
13:51:21:154811,-2,2,-8,-3,-5,-2,0,0
13:51:21:155517,-2,2,-8,-3,-5,-2,0,0
13:51:21:161472,-1,1,5,4,0,-3,2,0
13:51:21:177213,-2,-5,-6,2,0,-5,-8,-3
13:51:21:177965,-2,-5,-6,2,0,-5,-8,-3
13:51:21:184078,2,-1,-3,-5,-5,3,2,0
13:51:21:192216,5,-4,1,-5,3,1,1,-2
13:51:21:193044,5,-4,1,-5,3,1,1,-2
13:51:21:199085,-6,-5,0,-1,-6,-2,4,-1
13:51:21:214670,-2,5,6,3,3,3,-1,-1
13:51:21:215488,-2,5,6,3,3,3,-1,-1
13:51:21:221621,-1,1,-3,-2,0,0,5,-2
13:51:21:229003,-5,0,-2,-2,-2,-6,0,1
13:51:21:236652,-5,0,-2,-2,-2,-6,0,1
13:51:21:243967,-3,-1,1,7,5,2,2,1
13:51:21:252279,0,-2,1,-1,1,2,-2,-1
13:51:21:253028,0,-2,1,-1,1,2,-2,-1
13:51:21:258987,1,-3,-3,-16,3,1,4,1
13:51:21:274733,1,-4,-3,-2,0,2,-3,-1
13:51:21:275524,1,-4,-3,-2,0,2,-3,-1
13:51:21:281484,1,1,-3,1,-5,0,-5,0
13:51:21:289061,-1,3,2,-6,-2,-3,-2,0
13:51:21:296537,-1,3,2,-6,-2,-3,-2,0
13:51:21:304123,-5,2,3,-2,-2,-3,-1,1
13:51:21:312251,-2,-2,-3,4,1,-5,-4,-2
13:51:21:313003,-2,-2,-3,4,1,-5,-4,-2
13:51:21:319124,-2,-6,-3,1,-5,-3,-1,-2
13:51:21:334733,0,0,-3,3,-1,2,-1,1
13:51:21:335508,0,0,-3,3,-1,2,-1,1
13:51:21:341552,-2,1,1,-4,0,-1,-3,3
13:51:21:349129,1,2,3,-9,-2,-9,-1,-6
13:51:21:356606,1,2,3,-9,-2,-9,-1,-6
13:51:21:364025,0,-7,-3,3,2,5,3,-4
13:51:21:372287,0,-7,-3,3,2,5,3,-4
13:51:21:373035,-1,0,3,-1,-4,8,-3,3
13:51:21:379039,0,4,-2,-1,2,-7,-6,-4
13:51:21:394749,0,4,-2,-1,2,-7,-6,-4
13:51:21:395546,-3,-5,-3,3,2,2,4,-3
13:51:21:401564,-1,0,2,0,-2,2,0,1
13:51:21:417255,-1,0,2,0,-2,2,0,1
13:51:21:418012,2,-3,-1,-4,-10,-4,-2,2
13:51:21:424008,0,4,1,-4,-6,-2,2,-1
13:51:21:432286,0,4,1,-4,-6,-2,2,-1
13:51:21:433039,-2,1,-4,-2,-5,-2,3,-3
13:51:21:439072,-1,-3,-4,0,10,-1,-1,-1
13:51:21:455485,-1,-3,-4,0,10,-1,-1,-1
13:51:21:456144,0,-1,-4,1,0,-4,-6,3
13:51:21:461500,-2,-8,0,-5,-3,1,-3,-2
13:51:21:477257,-2,-8,0,-5,-3,1,-3,-2
13:51:21:478003,-3,0,-7,-4,2,0,6,-3
13:51:21:484107,3,2,-3,7,3,-8,0,-3
13:51:21:492266,3,2,-3,7,3,-8,0,-3
13:51:21:493049,1,-2,6,-2,0,0,-1,0
13:51:21:499124,-6,-2,3,0,0,4,-5,2
13:51:21:514768,-6,-2,3,0,0,4,-5,2
13:51:21:515563,0,1,-5,1,-3,-3,3,0
13:51:21:521599,-2,1,-6,-4,-7,-6,5,-1
13:51:21:545361,-2,1,-6,-4,-7,-6,5,-1
13:51:21:546110,-3,0,0,-9,6,3,-6,-3
13:51:21:546947,0,-1,-1,1,-6,0,-1,0
13:51:21:552267,0,-1,-1,1,-6,0,-1,0
13:51:21:553008,-4,2,-1,-2,-5,-2,2,-2
13:51:21:566590,-1,-1,0,-2,2,-6,-7,-2
13:51:21:574704,-1,-1,0,-2,2,-6,-7,-2
13:51:21:575506,2,0,-2,-2,3,-4,-4,1
13:51:21:581553,-2,-4,6,2,-1,-3,3,2
13:51:21:597222,-2,-4,6,2,-1,-3,3,2
13:51:21:598029,-2,-2,0,4,-2,-2,-3,-3
13:51:21:604162,1,0,-7,-4,-9,0,0,2
13:51:21:612237,1,0,-7,-4,-9,0,0,2
13:51:21:612976,1,0,2,-1,-6,-1,-6,-3
13:51:21:626494,0,-3,-2,-2,-1,0,0,-6
13:51:21:634694,0,-3,-2,-2,-1,0,0,-6
13:51:21:635498,0,-1,-2,-3,-3,0,6,-2
13:51:21:641526,-4,0,0,5,7,9,-3,-1
13:51:21:657265,-4,0,0,5,7,9,-3,-1
13:51:21:658052,-1,1,-3,7,3,4,3,2
13:51:21:663991,-1,0,-1,-1,0,-6,1,-3
13:51:21:672235,-1,0,-1,-1,0,-6,1,-3
13:51:21:673001,-3,-6,3,-3,-1,-4,-1,-3
13:51:21:686614,-1,-2,0,1,1,-4,0,-2
13:51:21:694757,-1,-2,0,1,1,-4,0,-2
13:51:21:695568,-1,3,-8,-5,-1,-1,-4,-1
13:51:21:701539,2,2,-5,-9,-4,2,-7,-3
13:51:21:717389,2,2,-5,-9,-4,2,-7,-3
13:51:21:718064,-2,-3,0,4,0,5,-3,0
13:51:21:724029,-3,1,5,0,1,0,-4,3
13:51:21:732197,-3,1,5,0,1,0,-4,3
13:51:21:732952,0,-5,1,6,-4,-6,-2,-3
13:51:21:746515,3,-7,-7,-12,-6,1,4,-2
13:51:21:754822,3,-7,-7,-12,-6,1,4,-2
13:51:21:755501,1,0,-7,-5,1,-3,1,-3
13:51:21:761468,-1,0,-1,0,-4,-3,1,-3
13:51:21:777235,-1,0,-1,0,-4,-3,1,-3
13:51:21:778023,-4,-2,2,2,-3,1,0,4
13:51:21:784049,-3,-2,2,-5,4,0,-6,5
13:51:21:792254,-3,-2,2,-5,4,0,-6,5
13:51:21:793038,-3,-1,-1,0,0,-2,-4,-1
13:51:21:806493,-3,0,0,3,-1,8,0,-3
13:51:21:822849,-3,0,0,3,-1,8,0,-3
13:51:21:823650,1,-4,0,-10,-6,-3,-2,-5
13:51:21:824471,-3,2,-3,1,-2,-6,3,1
13:51:21:837325,-3,2,-3,1,-2,-6,3,1
13:51:21:837996,-4,-4,-7,2,5,3,0,2
13:51:21:843961,4,0,3,5,2,-3,-2,2
13:51:21:852268,4,0,3,5,2,-3,-2,2
13:51:21:852991,2,1,-1,7,-2,-5,-6,-1
13:51:21:866609,-1,-1,2,0,0,-1,1,-3
13:51:21:874745,-1,-1,2,0,0,-1,1,-3
13:51:21:875512,-4,-1,0,-8,-4,-6,0,-6
13:51:21:881480,2,-2,-8,-5,-1,-2,-1,-4
13:51:21:897185,2,-2,-8,-5,-1,-2,-1,-4
13:51:21:897970,-1,-1,9,9,11,6,6,4
13:51:21:904071,-3,-2,-4,-7,-5,-6,-1,3
13:51:21:912203,-3,-2,-4,-7,-5,-6,-1,3
13:51:21:912950,2,0,1,-4,-7,1,0,-5
13:51:21:926527,-2,1,-2,-2,0,0,5,3
13:51:21:934703,-2,1,-2,-2,0,0,5,3
13:51:21:935468,-1,-1,-2,2,-1,-4,-5,1
13:51:21:941534,-3,-1,-7,0,0,0,-4,-5
13:51:21:957211,-3,-1,-7,0,0,0,-4,-5
13:51:21:958003,0,-2,-3,-6,-3,1,-3,-1
13:51:21:964021,0,-5,6,0,-8,-1,-1,-1
13:51:21:972329,0,-5,6,0,-8,-1,-1,-1
13:51:21:973034,0,-3,0,-1,4,1,0,0
13:51:21:995371,-2,-3,3,3,1,0,-1,-3
13:51:21:996156,-2,-3,3,3,1,0,-1,-3
13:51:21:996967,1,0,-1,-4,2,3,0,-1
13:51:22:1559,-3,0,0,7,0,1,0,0
13:51:22:17272,-3,0,0,7,0,1,0,0
13:51:22:17999,-1,1,-2,0,0,-5,-3,6
13:51:22:24008,4,0,-2,-6,-1,-3,-1,-1
13:51:22:32245,4,0,-2,-6,-1,-3,-1,-1
13:51:22:33041,-2,2,3,2,-4,-2,-1,-6
13:51:22:46474,2,4,1,-4,-7,2,-6,-2
13:51:22:54774,2,4,1,-4,-7,2,-6,-2
13:51:22:55499,-1,-2,0,-4,-3,-8,3,-5
13:51:22:61477,-5,-2,-8,0,-2,1,0,-2
13:51:22:77235,-5,-2,-8,0,-2,1,0,-2
13:51:22:77961,-5,1,-2,-4,4,3,-3,2
13:51:22:84011,-1,-6,-1,2,3,-2,-1,1
13:51:22:92186,-1,-6,-1,2,3,-2,-1,1
13:51:22:93039,1,-3,-6,-6,0,-4,-4,2
13:51:22:106513,-6,0,0,-2,5,4,0,-3
13:51:22:114720,-6,0,0,-2,5,4,0,-3
13:51:22:115483,3,0,-5,-5,-5,5,0,-4
13:51:22:121570,2,3,2,0,-4,-4,2,2
13:51:22:137289,2,3,2,0,-4,-4,2,2
13:51:22:137985,-3,-5,4,-4,-4,-7,1,0
13:51:22:144012,0,-1,-1,-1,-1,1,-3,-3
13:51:22:152281,0,-1,-1,-1,-1,1,-3,-3
13:51:22:152982,-1,3,1,2,3,-1,-2,-3
13:51:22:166653,-2,-4,0,6,1,-1,-1,1
13:51:22:174776,-2,-4,0,6,1,-1,-1,1
13:51:22:175504,-1,-6,1,6,-4,-4,7,-4
13:51:22:181487,2,4,-4,-3,-3,-4,-1,0
13:51:22:197170,2,4,-4,-3,-3,-4,-1,0
13:51:22:197949,-3,-1,-3,-4,3,2,-9,2
13:51:22:204137,-3,-1,4,-3,-4,2,0,2
13:51:22:212241,-3,-1,4,-3,-4,2,0,2
13:51:22:212986,3,-2,-9,-1,0,0,3,-3
13:51:22:226601,0,0,-2,-1,-1,-5,-3,-1
13:51:22:234669,0,0,-2,-1,-1,-5,-3,-1
13:51:22:235482,-1,-1,2,-2,-2,-2,-3,-1
13:51:22:241470,-1,-3,-1,1,0,-4,-2,-3
13:51:22:257216,-1,-3,-1,1,0,-4,-2,-3
13:51:22:257985,-2,4,-2,0,1,4,1,-4
13:51:22:264004,0,-1,2,-2,-3,-1,-1,-2
13:51:22:272249,0,-1,2,-2,-3,-1,-1,-2
13:51:22:273020,-2,-2,4,0,-6,-9,-2,1
13:51:22:286540,-2,0,-4,-5,3,-4,-4,3
13:51:22:294736,-2,0,-4,-5,3,-4,-4,3
13:51:22:295537,-1,3,0,3,2,-1,1,-2
13:51:22:301544,-3,-3,3,5,-3,5,0,-4
13:51:22:317284,-3,-3,3,5,-3,5,0,-4
13:51:22:318019,-2,-5,0,-6,-2,-1,3,6
13:51:22:324009,0,-5,-4,1,6,1,2,-2
13:51:22:332187,0,-5,-4,1,6,1,2,-2
13:51:22:333013,-4,-3,-4,-9,-1,6,-3,-1
13:51:22:346545,-3,3,-2,-4,-7,-5,0,2
13:51:22:354826,-3,3,-2,-4,-7,-5,0,2
13:51:22:355490,2,2,3,9,1,-6,0,1
13:51:22:361493,2,1,3,1,-2,-7,-4,-3
13:51:22:377293,2,1,3,1,-2,-7,-4,-3
13:51:22:378020,-3,-3,-2,-1,-2,-1,-4,-1
13:51:22:384132,-2,-2,-1,-1,-4,-5,-3,1
13:51:22:392239,-2,-2,-1,-1,-4,-5,-3,1
13:51:22:392991,0,-2,-1,0,-1,0,1,-3
13:51:22:406564,-2,-1,-4,1,2,2,-3,-1
13:51:22:414758,-2,-1,-4,1,2,2,-3,-1
13:51:22:415501,-2,1,2,2,-4,2,-5,-6
13:51:22:421590,-3,-3,-1,-1,-2,1,3,-3
13:51:22:437311,-3,-3,-1,-1,-2,1,3,-3
13:51:22:438033,3,2,-4,-2,3,4,1,-1
13:51:22:444011,-3,-2,-1,-3,0,-1,-2,-2
13:51:22:452283,-3,-2,-1,-3,0,-1,-2,-2
13:51:22:453041,-2,-2,-3,-5,0,-1,-2,4
13:51:22:466609,-2,1,-7,5,3,0,-5,-1
13:51:22:474765,-2,1,-7,5,3,0,-5,-1
13:51:22:475536,-4,1,-7,4,-1,-1,-1,-2
13:51:22:481502,2,0,0,-5,3,3,3,0
13:51:22:497216,2,0,0,-5,3,3,3,0
13:51:22:498065,0,-1,6,10,-1,-3,-2,3
13:51:22:504106,0,-2,8,0,0,1,1,-4
13:51:22:511528,0,-2,8,0,0,1,1,-4
13:51:22:519086,-1,-3,2,-9,-8,-10,3,-1
13:51:22:526568,1,-1,-3,2,-1,1,-1,0
13:51:22:534751,1,-1,-3,2,-1,1,-1,0
13:51:22:535577,0,-5,-10,-3,2,-4,-4,2
13:51:22:549073,-2,2,-6,-4,1,1,2,-1
13:51:22:557283,-2,2,-6,-4,1,1,2,-1
13:51:22:558048,-2,-2,4,0,2,7,1,-4
13:51:22:564020,1,-1,-4,5,0,-4,-3,1
13:51:22:571657,1,-1,-4,5,0,-4,-3,1
13:51:22:579021,-2,2,4,1,0,-3,-4,-3
13:51:22:586571,-3,0,-2,-4,-5,-1,0,0
13:51:22:594657,-3,0,-2,-4,-5,-1,0,0
13:51:22:595505,-2,-6,2,0,4,3,5,0
13:51:22:608997,1,-1,0,-6,-3,-6,-4,-2
13:51:22:617193,1,-1,0,-6,-3,-6,-4,-2
13:51:22:617939,2,-3,1,-8,-8,-3,1,1
13:51:22:624100,-4,-2,-8,-2,-1,1,2,6
13:51:22:631527,-4,-2,-8,-2,-1,1,2,6
13:51:22:639003,2,0,0,3,3,-2,-1,-2
13:51:22:646514,-1,-4,5,-6,-5,-6,-3,-9
13:51:22:654789,-1,-4,5,-6,-5,-6,-3,-9
13:51:22:655480,-2,3,-2,-1,-6,-2,-6,1
13:51:22:669100,-4,-2,-3,2,3,1,-1,-2
13:51:22:677176,-4,-2,-3,2,3,1,-1,-2
13:51:22:678004,0,3,1,0,1,-1,4,17
13:51:22:684078,1,-4,-3,-9,-2,-3,-2,1
13:51:22:691553,1,-4,-3,-9,-2,-3,-2,1
13:51:22:699144,-1,-2,-4,-2,0,-1,-2,-14
13:51:22:706471,-1,-2,2,6,7,-1,1,-5
13:51:22:714699,-1,-2,2,6,7,-1,1,-5
13:51:22:715542,0,-2,-3,-10,-5,-3,-1,5
13:51:22:728994,-5,2,3,-6,-7,-1,1,0
13:51:22:737293,-5,2,3,-6,-7,-1,1,0
13:51:22:738017,1,-4,-3,3,7,-1,-5,-11
13:51:22:744024,1,-3,-1,-3,-1,0,-1,-6
13:51:22:751604,1,-3,-1,-3,-1,0,-1,-6
13:51:22:759055,-2,0,-3,-4,-3,2,-1,-9
13:51:22:766560,-2,-3,1,8,0,2,-1,0
13:51:22:774763,-2,-3,1,8,0,2,-1,0
13:51:22:775548,-2,-1,5,3,-2,-3,-7,2
13:51:22:789075,-2,1,-4,0,1,-1,3,5
13:51:22:797233,-2,1,-4,0,1,-1,3,5
13:51:22:798080,-2,0,-4,5,-3,2,3,-4
13:51:22:804058,-2,1,-5,-3,-3,0,0,-2
13:51:22:811534,-2,1,-5,-3,-3,0,0,-2
13:51:22:819067,0,-1,-3,-5,0,2,1,-1
13:51:22:826505,6,2,-1,-7,-5,-7,-5,-1
13:51:22:834474,6,2,-1,-7,-5,-7,-5,-1
13:51:22:841526,-2,-4,2,-5,-4,1,1,2
13:51:22:849060,-3,-6,3,4,-2,2,-5,1
13:51:22:857193,-3,-6,3,4,-2,2,-5,1
13:51:22:858018,-2,-1,-4,5,2,-2,0,-1
13:51:22:872252,-4,5,-3,-2,1,-8,2,-1
13:51:22:872947,-4,5,-3,-2,1,-8,2,-1
13:51:22:879002,-4,3,-5,-5,0,-2,1,-2
13:51:22:886611,3,-2,5,-1,0,2,-3,-3
13:51:22:894679,3,-2,5,-1,0,2,-3,-3
13:51:22:895487,0,-1,3,-4,3,-4,-5,4
13:51:22:909698,2,-5,-2,-5,-4,0,0,1
13:51:22:910489,2,-5,-2,-5,-4,0,0,1
13:51:22:916608,2,-5,-2,4,1,-1,5,-1
13:51:22:924024,-4,1,-1,1,5,5,5,-3
13:51:22:931552,-4,1,-1,1,5,5,5,-3
13:51:22:939045,-1,0,-3,-1,-4,-6,1,-4
13:51:22:946455,2,-1,-2,5,-8,-10,-7,0
13:51:22:954788,2,-1,-2,5,-8,-10,-7,0
13:51:22:955511,-2,-2,-2,-7,9,3,-3,0
13:51:22:969806,0,0,-3,-8,3,1,0,-2
13:51:22:970551,0,0,-3,-8,3,1,0,-2
13:51:22:976502,-1,1,0,1,-14,-8,-2,-2
13:51:22:984070,-2,0,-1,5,3,6,-2,-1
13:51:22:991577,-2,0,-1,5,3,6,-2,-1
13:51:22:999092,-3,-1,2,-2,3,-6,-1,-1
13:51:23:6533,0,0,-2,-8,-3,-3,2,0
13:51:23:14734,0,0,-2,-8,-3,-3,2,0
13:51:23:15549,3,-3,-5,-5,-7,2,-1,1
13:51:23:29674,-4,-5,-2,-6,11,4,0,-2
13:51:23:30475,-4,-5,-2,-6,11,4,0,-2
13:51:23:36571,0,3,-3,0,-2,3,-3,-2
13:51:23:44000,0,-3,2,-12,-2,-1,0,-3
13:51:23:51598,0,-3,2,-12,-2,-1,0,-3
13:51:23:59015,-2,-3,5,3,0,-4,1,0
13:51:23:75350,3,3,-6,3,-4,-1,-2,0
13:51:23:76153,3,3,-6,3,-4,-1,-2,0
13:51:23:76943,2,2,-1,-3,-2,3,0,-2
13:51:23:89674,-2,-3,4,-3,-4,-5,-5,3
13:51:23:90503,-2,-3,4,-3,-4,-5,-5,3
13:51:23:96458,-2,2,-3,3,-2,-4,-6,2
13:51:23:104054,-3,3,-8,-2,0,-4,4,-3
13:51:23:111526,-3,3,-8,-2,0,-4,4,-3
13:51:23:119042,-2,-2,-3,-8,-1,1,3,2
13:51:23:126484,-1,-6,3,5,-1,2,-2,0
13:51:23:134707,-1,-6,3,5,-1,2,-2,0
13:51:23:135543,1,-6,-2,-3,1,-4,1,-7
13:51:23:149765,2,2,2,1,1,-2,-1,-2
13:51:23:150484,2,2,2,1,1,-2,-1,-2
13:51:23:156486,-1,1,6,8,3,5,3,1
13:51:23:163973,1,5,4,0,-9,-1,1,-2
13:51:23:171701,1,5,4,0,-9,-1,1,-2
13:51:23:179015,-5,-4,1,1,-1,-1,-4,-2
13:51:23:186545,0,-4,-1,6,-1,-10,-6,-1
13:51:23:194654,0,-4,-1,6,-1,-10,-6,-1
13:51:23:195505,-2,-4,-2,0,0,-4,0,0
13:51:23:209731,-2,1,-5,-1,1,-3,-1,1
13:51:23:210535,-2,1,-5,-1,1,-3,-1,1
13:51:23:216612,-3,-1,-4,-4,-6,-1,-3,1
13:51:23:224021,-1,0,-2,3,2,4,1,-2
13:51:23:231564,-1,0,-2,3,2,4,1,-2
13:51:23:239068,2,-2,1,-2,-4,0,-2,-5
13:51:23:246509,-1,-8,-3,1,-1,2,-3,-2
13:51:23:254795,-1,-8,-3,1,-1,2,-3,-2
13:51:23:255470,-3,1,-10,-2,7,-3,-1,-2
13:51:23:269751,-4,1,5,6,2,-5,-5,-3
13:51:23:270518,-4,1,5,6,2,-5,-5,-3
13:51:23:276506,2,3,5,0,3,3,1,-2
13:51:23:284021,1,0,-6,-8,-6,-1,8,2
13:51:23:291530,1,0,-6,-8,-6,-1,8,2
13:51:23:299072,-1,-3,3,1,2,-2,3,-2
13:51:23:306544,-3,-5,-5,-3,4,1,-1,1
13:51:23:314718,-3,-5,-5,-3,4,1,-1,1
13:51:23:315480,-2,1,0,-4,-4,-6,-6,1
13:51:23:329656,0,3,5,-6,0,-4,-1,-6
13:51:23:330483,0,3,5,-6,0,-4,-1,-6
13:51:23:336536,-1,0,2,1,-4,0,-3,-1
13:51:23:343966,0,2,-3,-3,-4,-3,4,-1
13:51:23:351575,0,2,-3,-3,-4,-3,4,-1
13:51:23:358997,0,-1,-8,-6,-3,-2,-1,1
13:51:23:366549,-3,-6,-3,-2,-3,0,-3,2
13:51:23:374716,-3,-6,-3,-2,-3,0,-3,2
13:51:23:375498,-4,-1,0,-9,-3,-3,-2,4
13:51:23:389699,3,2,-3,-3,6,4,5,2
13:51:23:390478,3,2,-3,-3,6,4,5,2
13:51:23:396480,1,-1,3,5,0,4,-1,-7
13:51:23:404097,-3,2,5,2,-1,0,-7,-4
13:51:23:411563,-3,2,5,2,-1,0,-7,-4
13:51:23:419063,-1,-5,-10,-16,-8,-5,4,-1
13:51:23:426503,1,-4,-2,17,1,3,-4,1
13:51:23:434750,1,-4,-2,17,1,3,-4,1
13:51:23:435558,1,-1,-5,5,0,1,-5,-1
13:51:23:449779,-1,-2,1,-6,-5,-7,-3,-5
13:51:23:450503,-1,-2,1,-6,-5,-7,-3,-5
13:51:23:456520,-2,-3,2,4,-3,-2,-1,0
13:51:23:472287,-2,-3,-2,-1,4,4,-2,0
13:51:23:472988,-2,-3,-2,-1,4,4,-2,0
13:51:23:478989,-2,1,-3,1,2,1,1,-2
13:51:23:486616,1,0,0,-1,-4,-4,-1,-3
13:51:23:494082,1,0,0,-1,-4,-4,-1,-3
13:51:23:501563,-2,3,2,10,7,1,2,3
13:51:23:509737,-3,-3,-1,0,3,1,4,0
13:51:23:510533,-3,-3,-1,0,3,1,4,0
13:51:23:516628,-2,-5,-8,-10,-6,-5,-7,-4
13:51:23:532221,-1,-3,-8,-3,-5,-4,-5,-3
13:51:23:533071,-1,-3,-8,-3,-5,-4,-5,-3
13:51:23:539102,-1,2,1,3,4,-7,-1,1
13:51:23:546479,0,-3,1,-2,-2,0,-1,0
13:51:23:554176,0,-3,1,-2,-2,0,-1,0
13:51:23:561516,1,-4,4,0,-5,1,-6,-1
13:51:23:569710,-3,0,3,-1,0,5,5,-1
13:51:23:570446,-3,0,3,-1,0,5,5,-1
13:51:23:576476,2,7,-1,1,-2,-7,4,-3
13:51:23:592213,0,0,0,-8,-3,-1,-1,2
13:51:23:593012,0,0,0,-8,-3,-1,-1,2
13:51:23:599162,-3,-3,0,4,-2,2,1,0
13:51:23:606519,-1,-1,-1,16,10,0,1,2
13:51:23:614001,-1,-1,-1,16,10,0,1,2
13:51:23:621617,0,-4,-1,-8,-6,-6,-4,0
13:51:23:629665,-4,3,-2,1,0,2,-2,-4
13:51:23:630487,-4,3,-2,1,0,2,-2,-4
13:51:23:636527,-3,-1,-2,6,0,4,3,-2
13:51:23:652286,0,-1,1,-5,-2,2,1,2
13:51:23:653044,0,-1,1,-5,-2,2,1,2
13:51:23:659038,2,-3,4,-12,-2,2,-5,-2
13:51:23:666599,-2,-1,1,-5,-2,-7,-5,-4
13:51:23:674068,-2,-1,1,-5,-2,-7,-5,-4
13:51:23:681490,-7,2,-4,-2,-1,-2,1,-2
13:51:23:689782,-4,2,-4,0,-9,-4,5,-3
13:51:23:690475,-4,2,-4,0,-9,-4,5,-3
13:51:23:696489,2,-2,-1,10,5,6,4,1
13:51:23:712221,0,-5,-4,-9,-2,0,-4,0
13:51:23:712984,0,-5,-4,-9,-2,0,-4,0
13:51:23:719060,0,2,-2,-2,2,-2,-1,-2
13:51:23:726485,0,-1,4,5,0,-1,-4,3
13:51:23:734067,0,-1,4,5,0,-1,-4,3
13:51:23:741501,3,1,4,-2,-3,0,-5,3
13:51:23:749770,-2,-5,-2,-8,-2,-1,-1,-3
13:51:23:750532,-2,-5,-2,-8,-2,-1,-1,-3
13:51:23:756494,-5,-2,-1,-10,0,1,0,-1
13:51:23:772262,1,3,-4,5,1,2,-3,-1
13:51:23:772978,1,3,-4,5,1,2,-3,-1
13:51:23:778992,-1,0,-3,7,5,-3,-3,1
13:51:23:786562,0,-3,0,-7,-1,0,0,-4
13:51:23:794084,0,-3,0,-7,-1,0,0,-4
13:51:23:801515,-1,-1,0,-4,-6,1,3,-2
13:51:23:809730,1,0,2,-5,1,-2,-3,0
13:51:23:810520,1,0,2,-5,1,-2,-3,0
13:51:23:816573,0,1,-5,2,-5,-3,-1,-4
13:51:23:832198,-2,-2,3,2,-4,-2,0,-1
13:51:23:833007,-2,-2,3,2,-4,-2,0,-1
13:51:23:839127,0,-2,-1,-3,1,-3,-2,0
13:51:23:846477,1,-1,-3,-9,2,0,1,-1
13:51:23:854174,1,-1,-3,-9,2,0,1,-1
13:51:23:861506,0,-6,1,16,-2,0,-1,-3
13:51:23:869819,-3,0,-4,2,-2,-2,-4,-3
13:51:23:870480,-3,0,-4,2,-2,-2,-4,-3
13:51:23:876541,-2,-1,4,-10,-2,-7,-2,-2
13:51:23:892207,0,-7,1,2,5,3,5,0
13:51:23:893003,0,-7,1,2,5,3,5,0
13:51:23:899143,-2,-1,-1,-5,2,0,-1,-2
13:51:23:906507,1,2,0,5,4,4,5,4
13:51:23:914003,1,2,0,5,4,4,5,4
13:51:23:921515,0,-2,-9,11,0,-5,-9,-1
13:51:23:929008,-3,-4,1,3,-6,-2,-8,-4
13:51:23:937309,-3,-4,1,3,-6,-2,-8,-4
13:51:23:938004,-5,0,9,1,0,1,0,1
13:51:23:952237,0,-6,-8,-7,-8,-3,4,-1
13:51:23:953021,0,-6,-8,-7,-8,-3,4,-1
13:51:23:959009,7,6,5,1,2,-3,0,-4
13:51:23:966647,-5,0,2,-3,-1,2,4,-1
13:51:23:974131,-5,0,2,-3,-1,2,4,-1
13:51:23:981475,0,0,-10,-8,-5,1,1,-4
13:51:23:989030,1,4,-3,-5,-1,-9,-1,0
13:51:23:997240,1,4,-3,-5,-1,-9,-1,0
13:51:23:997987,-5,0,1,-11,-3,0,0,2
13:51:24:12208,-2,1,-5,7,-2,-3,-9,-4
13:51:24:12993,-2,1,-5,7,-2,-3,-9,-4
13:51:24:19041,0,-4,0,-6,0,2,1,-1
13:51:24:26466,4,-3,4,-2,-7,-8,3,-1
13:51:24:34124,4,-3,4,-2,-7,-8,3,-1
13:51:24:41517,-2,-6,-11,3,2,-2,0,-2
13:51:24:49063,-3,3,-2,-11,-3,-2,-18,-1
13:51:24:57205,-3,3,-2,-11,-3,-2,-18,-1
13:51:24:57981,4,4,1,-6,3,28,15,4
13:51:24:72296,-3,-10,-10,8,2,19,6,-2
13:51:24:72994,-3,-10,-10,8,2,19,6,-2
13:51:24:78971,-5,-6,-1,10,0,-3,-2,-3
13:51:24:86625,3,2,10,-4,4,8,-2,0
13:51:24:94121,3,2,10,-4,4,8,-2,0
13:51:24:101568,0,4,1,-5,-6,-4,4,3
13:51:24:109030,1,-4,-2,-4,-9,-16,-2,0
13:51:24:117239,1,-4,-2,-4,-9,-16,-2,0
13:51:24:117967,0,-1,2,-2,1,-5,-10,1
13:51:24:132354,0,2,0,-20,4,-1,-3,2
13:51:24:133083,0,2,0,-20,4,-1,-3,2
13:51:24:139114,-2,-3,-11,-12,2,-8,-3,-7
13:51:24:146462,-1,3,4,10,-8,-13,-1,-3
13:51:24:154134,-1,3,4,10,-8,-13,-1,-3
13:51:24:161537,-2,-1,3,26,14,5,1,0
13:51:24:169087,-2,-4,-4,0,-2,-2,6,1
13:51:24:177223,-2,-4,-4,0,-2,-2,6,1
13:51:24:177965,0,-4,8,-5,-5,5,19,-5
13:51:24:192178,-5,-1,-8,-3,-3,-6,0,-9
13:51:24:192982,-5,-1,-8,-3,-3,-6,0,-9
13:51:24:199110,1,-3,-4,-2,0,13,-7,2
13:51:24:214738,-1,1,4,5,9,1,-6,-1
13:51:24:215525,-1,1,4,5,9,1,-6,-1
13:51:24:221573,-5,0,-6,-8,-11,-15,-11,-4
13:51:24:229021,1,-4,-2,2,4,3,3,-2
13:51:24:237196,1,-4,-2,2,4,3,3,-2
13:51:24:237994,1,3,-1,7,0,-5,-3,4
13:51:24:252283,2,1,2,7,-2,-8,-3,1
13:51:24:253008,2,1,2,7,-2,-8,-3,1
13:51:24:259033,-1,0,2,-7,-1,-2,-7,0
13:51:24:266581,-2,4,3,9,0,1,-1,-1
13:51:24:274091,-2,4,3,9,0,1,-1,-1
13:51:24:281510,-5,-8,-1,1,-2,-13,-28,-8
13:51:24:289079,1,0,-8,-6,3,24,13,5
13:51:24:297210,1,0,-8,-6,3,24,13,5
13:51:24:297953,-2,2,-1,-12,-12,-19,23,-5
13:51:24:312601,-5,-2,-9,-4,-4,-1,26,6
13:51:24:313466,-5,-2,-9,-4,-4,-1,26,6
13:51:24:319125,0,-2,2,1,6,10,-3,2
13:51:24:326549,1,-4,2,-8,3,0,-20,-1
13:51:24:334088,1,-4,2,-8,3,0,-20,-1
13:51:24:341508,-2,7,0,-3,-17,-10,-11,-1
13:51:24:349139,0,-2,5,7,10,-4,-14,-4
13:51:24:357205,0,-2,5,7,10,-4,-14,-4
13:51:24:358022,0,-2,-2,-26,-5,1,2,-2
13:51:24:372283,2,6,16,12,6,1,4,-3
13:51:24:372969,2,6,16,12,6,1,4,-3
13:51:24:378984,-1,-2,-5,-2,11,3,4,-1
13:51:24:386614,-2,4,4,-3,-7,-1,-1,-3
13:51:24:394071,-2,4,4,-3,-7,-1,-1,-3
13:51:24:401460,0,-2,-10,-7,-4,-5,-7,0
13:51:24:409022,-1,-3,-5,7,1,-9,-12,-2
13:51:24:416633,-1,-3,-5,7,1,-9,-12,-2
13:51:24:424046,-1,-4,-9,9,16,5,-2,0
13:51:24:432278,-6,-10,-17,-22,-23,-8,-5,-5
13:51:24:433007,-6,-10,-17,-22,-23,-8,-5,-5
13:51:24:439057,-2,1,26,18,4,1,-2,-4
13:51:24:454826,2,-1,-1,-6,-5,-6,5,2
13:51:24:455490,2,-1,-1,-6,-5,-6,5,2
13:51:24:461509,0,-8,-4,-4,-7,-4,1,-1
13:51:24:469057,-5,-8,-13,-5,-6,-7,3,-1
13:51:24:476620,-5,-8,-13,-5,-6,-7,3,-1
13:51:24:484029,4,6,-6,1,-2,2,-1,1
13:51:24:492190,-8,1,0,1,0,6,0,-1
13:51:24:493008,-8,1,0,1,0,6,0,-1
13:51:24:499123,-5,-8,-9,2,-8,-7,-5,-3
13:51:24:514740,7,-2,1,7,16,4,-5,-2
13:51:24:515547,7,-2,1,7,16,4,-5,-2
13:51:24:521617,-1,-4,-6,-9,-10,-4,0,1
13:51:24:528976,-1,-3,-1,14,10,2,6,1
13:51:24:536596,-1,-3,-1,14,10,2,6,1
13:51:24:544035,0,1,4,5,-11,-3,-2,-3
13:51:24:552228,3,8,7,-3,3,-1,1,2
13:51:24:553009,3,8,7,-3,3,-1,1,2
13:51:24:558985,0,5,6,-6,-1,0,1,1
13:51:24:574720,-2,-2,-4,2,-1,-1,1,-1
13:51:24:575491,-2,-2,-4,2,-1,-1,1,-1
13:51:24:581530,1,-3,2,2,9,9,7,2
13:51:24:589126,0,-3,-1,0,-5,-4,-11,-3
13:51:24:596512,0,-3,-1,0,-5,-4,-11,-3
13:51:24:604034,-2,-4,-7,-7,-4,-2,-1,-5
13:51:24:612207,0,7,6,6,7,3,0,4
13:51:24:612998,0,7,6,6,7,3,0,4
13:51:24:619031,-4,2,-6,-17,-9,-6,-1,-4
13:51:24:634715,-2,-2,-6,-1,-4,4,-7,-1
13:51:24:635494,-2,-2,-6,-1,-4,4,-7,-1
13:51:24:641535,0,4,5,3,6,-3,3,0
13:51:24:649131,2,-4,-7,-15,-17,-22,-19,-5
13:51:24:656593,2,-4,-7,-15,-17,-22,-19,-5
13:51:24:663962,-3,-1,-9,-8,6,25,12,-2
13:51:24:672312,-3,-1,-9,-8,6,25,12,-2
13:51:24:672995,-3,-1,-6,4,-1,0,4,-1
13:51:24:678996,0,-1,5,11,2,-7,-5,4
13:51:24:694725,0,-1,5,11,2,-7,-5,4
13:51:24:695523,0,-4,0,-5,-3,-3,3,-1
13:51:24:701473,-2,3,6,14,6,0,3,1
13:51:24:717251,-2,3,6,14,6,0,3,1
13:51:24:717989,-3,-6,-20,-25,-12,-8,-4,-5
13:51:24:723996,-3,0,6,-3,11,-8,-12,-8
13:51:24:732320,-3,0,6,-3,11,-8,-12,-8
13:51:24:732997,-3,-4,-3,9,0,-7,0,0
13:51:24:739055,2,-3,1,5,-2,8,-2,2
13:51:24:754765,2,-3,1,5,-2,8,-2,2
13:51:24:755496,-1,-4,0,-4,-1,4,-1,-1
13:51:24:761435,-6,-6,-9,-5,-7,-12,-5,-3
13:51:24:777218,-6,-6,-9,-5,-7,-12,-5,-3
13:51:24:777957,5,3,4,-3,-1,6,3,-1
13:51:24:784034,7,4,6,-4,-2,-10,4,4
13:51:24:792206,7,4,6,-4,-2,-10,4,4
13:51:24:792977,-3,3,1,-5,5,1,3,-2
13:51:24:799127,-2,-2,-8,-12,-8,3,-5,-1
13:51:24:814712,-2,-2,-8,-12,-8,3,-5,-1
13:51:24:815472,-1,-6,-12,10,12,4,-4,-1
13:51:24:821596,-3,-3,-4,-3,8,9,2,5
13:51:24:846700,-3,-3,-4,-3,8,9,2,5
13:51:24:847466,0,0,6,-9,-8,-4,3,-6
13:51:24:848297,-7,-4,-10,-11,-21,-12,0,-2
13:51:24:852215,-7,-4,-10,-11,-21,-12,0,-2
13:51:24:852937,2,1,7,-9,0,3,1,2
13:51:24:859029,-4,-4,6,1,3,-14,-5,-1
13:51:24:874794,-4,-4,6,1,3,-14,-5,-1
13:51:24:875541,-4,5,-1,-11,-11,-4,-2,-2
13:51:24:881533,4,0,5,6,6,2,-2,-3
13:51:24:897208,4,0,5,6,6,2,-2,-3
13:51:24:897999,0,-7,-11,13,5,0,0,-1
13:51:24:904060,3,-3,-2,2,8,2,5,3
13:51:24:912247,3,-3,-2,2,8,2,5,3
13:51:24:912998,-2,-1,-5,10,5,4,-3,-3
13:51:24:919008,2,9,11,5,-9,-10,7,-4
13:51:24:934727,2,9,11,5,-9,-10,7,-4
13:51:24:935542,-1,8,23,7,-1,6,7,2
13:51:24:941519,1,10,18,2,2,-6,-23,-7
13:51:24:957223,1,10,18,2,2,-6,-23,-7
13:51:24:958033,-2,-1,-16,-8,-3,-3,1,1
13:51:24:964000,-1,-7,-13,1,-9,-8,-4,-2
13:51:24:972360,-1,-7,-13,1,-9,-8,-4,-2
13:51:24:972995,-5,-6,7,-12,0,-5,-7,-2
13:51:24:978970,-4,-5,-7,12,-6,-9,-9,-4
13:51:24:994680,-4,-5,-7,12,-6,-9,-9,-4
13:51:24:995513,-1,-4,7,-4,5,19,12,3
13:51:25:1464,0,-7,-24,-12,-12,-4,0,-3
13:51:25:17270,0,-7,-24,-12,-12,-4,0,-3
13:51:25:17986,1,-5,-4,2,9,8,10,0
13:51:25:24010,1,2,11,0,3,9,0,3
13:51:25:32190,1,2,11,0,3,9,0,3
13:51:25:33029,0,8,2,-1,-5,-12,-6,-2
13:51:25:39094,-2,0,-7,2,7,16,8,0
13:51:25:54595,-2,0,-7,2,7,16,8,0
13:51:25:62192,1,-4,-5,-1,-9,-11,0,2
13:51:25:62955,-3,-7,-5,-17,-9,-6,-6,1
13:51:25:94183,-3,-7,-5,-17,-9,-6,-6,1
13:51:25:94949,3,11,12,20,15,19,-1,1
13:51:25:95764,-3,-7,-17,-5,2,0,0,0
13:51:25:96575,-3,-7,-17,-5,2,0,0,0
13:51:25:99693,-3,-9,-8,-19,-13,-13,-8,3
13:51:25:100441,-2,6,5,-4,-1,-3,7,1
13:51:25:122894,-2,6,5,-4,-1,-3,7,1
13:51:25:123655,2,5,-1,6,-6,-9,-7,-4
13:51:25:124481,-6,0,-1,-11,1,-5,-2,3
13:51:25:137961,-6,0,-1,-11,1,-5,-2,3
13:51:25:138684,0,-3,-6,2,5,-3,-1,-4
13:51:25:144001,7,11,9,6,3,9,0,-2
13:51:25:152268,7,11,9,6,3,9,0,-2
13:51:25:153032,-6,-15,-9,6,-7,-1,-1,-3
13:51:25:159007,1,-7,5,8,-7,-2,2,0
13:51:25:174703,1,-7,5,8,-7,-2,2,0
13:51:25:175514,-5,-13,-6,-11,-9,-1,-5,0
13:51:25:181506,1,-8,-8,-1,25,10,0,-2
13:51:25:189144,1,-8,-8,-1,25,10,0,-2
13:51:25:196461,-8,-2,2,-10,-16,-21,-12,-4
13:51:25:204118,1,2,5,14,10,19,1,3
13:51:25:212226,1,2,5,14,10,19,1,3
13:51:25:212990,5,4,1,4,5,15,10,3
13:51:25:219036,-2,-1,-1,-2,-16,-14,-8,-7
13:51:25:234796,-2,-1,-1,-2,-16,-14,-8,-7
13:51:25:235495,3,10,4,-4,5,5,5,1
13:51:25:250420,1,-1,0,-4,-2,-9,-2,-1
13:51:25:251138,1,-1,0,-4,-2,-9,-2,-1
13:51:25:251976,-3,-1,3,-3,-5,-9,-5,-4
13:51:25:272854,-2,4,-4,0,2,6,-4,2
13:51:25:273686,-2,4,-4,0,2,6,-4,2
13:51:25:274497,-2,8,4,2,2,-8,9,-1
13:51:25:279001,0,14,34,8,1,3,5,-1
13:51:25:295233,0,14,34,8,1,3,5,-1
13:51:25:295955,-1,-13,-4,4,8,9,-5,-1
13:51:25:301516,0,2,2,-11,-13,-10,0,-2
13:51:25:310817,0,2,2,-11,-13,-10,0,-2
13:51:25:316607,2,-3,-7,1,2,-21,-24,-6
13:51:25:324015,1,-7,-5,4,6,1,1,1
13:51:25:332038,1,-7,-5,4,6,1,1,1
13:51:25:339123,-9,-7,-11,-7,-13,-9,-12,-8
13:51:25:346515,-19,-13,-6,-3,2,-4,1,-6
13:51:25:355220,-19,-13,-6,-3,2,-4,1,-6
13:51:25:362187,-2,5,-7,8,10,5,9,1
13:51:25:362941,4,5,11,2,-4,7,9,4
13:51:25:369047,4,5,11,2,-4,7,9,4
13:51:25:376501,-3,-7,-5,-9,-10,-3,-1,-2
13:51:25:392893,4,-11,-20,3,-3,-1,-1,-3
13:51:25:393674,4,-11,-20,3,-3,-1,-1,-3
13:51:25:394449,3,4,6,23,6,0,-1,3
13:51:25:415382,-9,-17,-11,-9,-3,0,-4,-4
13:51:25:416164,-9,-17,-11,-9,-3,0,-4,-4
13:51:25:417007,-3,-1,19,-3,-2,1,7,0
13:51:25:421567,-4,6,-1,3,-5,-2,0,2
13:51:25:437263,-4,6,-1,3,-5,-2,0,2
13:51:25:438025,4,-2,-5,-1,1,25,19,-2
13:51:25:443961,1,-8,-17,-1,-2,-6,-15,2
13:51:25:452301,1,-8,-17,-1,-2,-6,-15,2
13:51:25:452976,9,-16,-18,-16,-13,-25,-6,10
13:51:25:466558,5,-2,-10,1,1,9,4,4
13:51:25:474706,5,-2,-10,1,1,9,4,4
13:51:25:475497,-7,-4,12,1,0,6,2,-1
13:51:25:481483,0,6,11,-10,-12,-17,-8,-8
13:51:25:489102,0,6,11,-10,-12,-17,-8,-8
13:51:25:496450,1,10,-4,-1,7,6,5,-7
13:51:25:504051,-4,-3,-7,-6,-21,-19,-15,-6
13:51:25:512237,-4,-3,-7,-6,-21,-19,-15,-6
13:51:25:513009,2,13,-1,-11,-1,0,-3,-1
13:51:25:526543,-5,4,-10,-8,-5,-5,6,3
13:51:25:534810,-5,4,-10,-8,-5,-5,6,3
13:51:25:535493,-3,3,6,9,8,3,3,-3
13:51:25:541534,-15,-22,-1,9,13,11,-7,-10
13:51:25:549177,-15,-22,-1,9,13,11,-7,-10
13:51:25:556550,-10,-3,-4,-7,-10,-15,-20,-1
13:51:25:563969,15,5,4,2,5,-6,2,12
13:51:25:572291,15,5,4,2,5,-6,2,12
13:51:25:573023,-2,0,4,-1,-1,-7,-2,-1
13:51:25:586572,14,5,10,0,1,18,9,4
13:51:25:594702,14,5,10,0,1,18,9,4
13:51:25:595515,37,12,1,-2,2,21,20,55
13:51:25:601498,0,6,0,8,5,8,14,4
13:51:25:609079,0,6,0,8,5,8,14,4
13:51:25:616575,-2,-2,10,1,-1,-3,-15,-15
13:51:25:624013,4,8,-3,-5,-7,-14,-2,-1
13:51:25:632230,4,8,-3,-5,-7,-14,-2,-1
13:51:25:632980,-11,-2,7,14,0,-5,-2,-11
13:51:25:646501,-8,-4,-18,-27,-10,-11,-11,-16
13:51:25:654838,-8,-4,-18,-27,-10,-11,-11,-16
13:51:25:655561,-6,-7,-15,-16,-6,-4,3,-6
13:51:25:661472,-3,0,1,6,-1,0,9,3
13:51:25:669077,-3,0,1,6,-1,0,9,3
13:51:25:676569,-3,-3,-13,-11,-11,-2,-4,-10
13:51:25:684083,-8,3,6,-2,2,-21,-10,-1
13:51:25:692218,-8,3,6,-2,2,-21,-10,-1
13:51:25:692983,2,8,10,4,2,-6,-2,11
13:51:25:706537,6,24,38,20,17,-13,-18,0
13:51:25:714709,6,24,38,20,17,-13,-18,0
13:51:25:715480,-4,-10,-32,-35,-18,-11,3,-9
13:51:25:721553,-6,-32,-38,24,7,4,1,0
13:51:25:729034,-6,-32,-38,24,7,4,1,0
13:51:25:736559,0,11,14,-9,15,9,1,-5
13:51:25:743956,-13,-7,-5,-32,-9,6,1,-6
13:51:25:752307,-13,-7,-5,-32,-9,6,1,-6
13:51:25:752993,-4,-16,-15,8,-3,-5,-7,-7
13:51:25:766608,-2,2,12,-2,3,14,9,1
13:51:25:774748,-2,2,12,-2,3,14,9,1
13:51:25:775491,-10,3,0,-3,-8,-12,-3,-6
13:51:25:781465,-4,-12,-17,1,8,10,22,-2
13:51:25:789110,-4,-12,-17,1,8,10,22,-2
13:51:25:796465,-2,-11,-4,1,12,24,2,2
13:51:25:804077,7,13,17,-1,-8,-2,-3,-1
13:51:25:812190,7,13,17,-1,-8,-2,-3,-1
13:51:25:813026,0,5,-8,3,2,-3,1,-7
13:51:25:826518,-7,-10,-3,17,16,9,5,2
13:51:25:834717,-7,-10,-3,17,16,9,5,2
13:51:25:835478,-5,-1,-4,9,1,-8,-2,-1
13:51:25:841488,2,-12,0,-3,-9,-11,-9,-1
13:51:25:849182,2,-12,0,-3,-9,-11,-9,-1
13:51:25:856535,-5,-8,6,-7,2,-4,-7,-4
13:51:25:864005,6,4,11,-13,0,10,-1,-1
13:51:25:872128,6,4,11,-13,0,10,-1,-1
13:51:25:879038,7,11,7,5,-7,-17,-3,3
13:51:25:886629,-6,-4,-10,1,6,0,1,0
13:51:25:894667,-6,-4,-10,1,6,0,1,0
13:51:25:895467,2,4,6,7,0,7,11,-5
13:51:25:901566,1,6,-7,-7,-9,-14,-2,-7
13:51:25:909051,1,6,-7,-7,-9,-14,-2,-7
13:51:25:916612,-4,-1,-17,30,13,9,-8,0
13:51:25:923996,5,11,4,-5,3,19,2,3
13:51:25:932264,5,11,4,-5,3,19,2,3
13:51:25:933020,-15,-8,5,2,-19,-13,2,-4
13:51:25:946516,20,-17,-25,-1,2,0,1,10
13:51:25:954838,20,-17,-25,-1,2,0,1,10
13:51:25:955533,3,27,14,-15,2,-3,6,8
13:51:25:961443,-7,14,23,5,-4,6,-6,-4
13:51:25:969147,-7,14,23,5,-4,6,-6,-4
13:51:25:976495,-2,-7,-9,-12,-1,6,-8,1
13:51:25:984049,-2,8,7,-8,-12,-9,-6,3
13:51:25:992232,-2,8,7,-8,-12,-9,-6,3
13:51:25:993028,-3,-3,11,12,-12,0,3,-5
13:51:26:6505,2,-7,-2,-16,-4,2,3,-1
13:51:26:14702,2,-7,-2,-16,-4,2,3,-1
13:51:26:15531,5,7,11,-12,-7,-12,-9,-4
13:51:26:21619,-15,-7,1,12,-8,0,-6,-6
13:51:26:29081,-15,-7,1,12,-8,0,-6,-6
13:51:26:36606,7,-3,10,0,10,13,7,1
13:51:26:43977,1,0,-2,12,14,15,2,-4
13:51:26:52263,1,0,-2,12,14,15,2,-4
13:51:26:52973,-3,-12,-15,8,3,-3,-5,-3
13:51:26:66572,-6,-3,-4,10,-5,-15,-4,0
13:51:26:74726,-6,-3,-4,10,-5,-15,-4,0
13:51:26:75528,2,-8,12,-3,-1,-1,-9,0
13:51:26:81489,-6,-4,-6,-2,-14,-12,-7,-4
13:51:26:89082,-6,-4,-6,-2,-14,-12,-7,-4
13:51:26:96534,-3,6,-6,3,8,6,0,-4
13:51:26:104080,5,1,-9,11,13,-1,1,-2
13:51:26:112214,5,1,-9,11,13,-1,1,-2
13:51:26:112976,-8,-11,-5,5,-4,-19,-4,5
13:51:26:126501,-4,1,-8,8,15,-2,-5,-3
13:51:26:134771,-4,1,-8,8,15,-2,-5,-3
13:51:26:135426,3,-7,-10,-5,10,16,0,-5
13:51:26:141539,-5,-6,-11,-6,-14,-9,2,1
13:51:26:149211,-5,-6,-11,-6,-14,-9,2,1
13:51:26:156532,2,16,14,2,4,19,21,4
13:51:26:164034,4,-3,11,-11,-1,1,2,-2
13:51:26:172310,4,-3,11,-11,-1,1,2,-2
13:51:26:173024,-7,2,-13,4,-10,-7,-4,-3
13:51:26:186615,3,1,5,-10,-5,-5,2,3
13:51:26:194680,3,1,5,-10,-5,-5,2,3
13:51:26:195462,3,-4,9,-16,-13,-10,-5,-1
13:51:26:201496,-3,-6,-6,-19,-14,0,-8,-2
13:51:26:209057,-3,-6,-6,-19,-14,0,-8,-2
13:51:26:216573,-4,-11,-14,-19,10,5,4,-3
13:51:26:223987,1,8,10,-12,-16,-11,1,-2
13:51:26:232310,1,8,10,-12,-16,-11,1,-2
13:51:26:232980,1,1,-4,6,12,4,3,4
13:51:26:246489,-2,-2,-1,-1,-5,-3,-2,1
13:51:26:254787,-2,-2,-1,-1,-5,-3,-2,1
13:51:26:255475,4,0,0,-7,-13,-10,-7,-4
13:51:26:261522,-1,-4,-4,4,1,2,-3,-2
13:51:26:269133,-1,-4,-4,4,1,2,-3,-2
13:51:26:276475,-8,-21,-3,-2,0,0,3,-5
13:51:26:284046,-5,-1,-8,-6,5,3,-6,-6
13:51:26:291568,-5,-1,-8,-6,5,3,-6,-6
13:51:26:299114,1,8,0,16,13,0,-4,4
13:51:26:306499,3,3,-2,19,4,-1,0,21
13:51:26:314690,3,3,-2,19,4,-1,0,21
13:51:26:315483,1,2,-26,-3,-9,-2,-6,13
13:51:26:329710,6,22,-1,-8,8,8,5,-14
13:51:26:330510,6,22,-1,-8,8,8,5,-14
13:51:26:336585,0,0,10,-14,-9,-12,5,-7
13:51:26:343988,-5,-11,3,1,-7,-1,2,-8
13:51:26:351558,-5,-11,3,1,-7,-1,2,-8
13:51:26:358985,-2,-9,-26,-12,-4,-1,-2,-11
13:51:26:366626,0,5,7,13,-1,-4,-1,-1
13:51:26:374700,0,5,7,13,-1,-4,-1,-1
13:51:26:375483,-1,5,4,-2,1,9,-2,-7
13:51:26:389667,-2,-6,5,-22,13,-3,-4,-2
13:51:26:390483,-2,-6,5,-22,13,-3,-4,-2
13:51:26:396486,2,-2,10,1,0,6,-1,-1
13:51:26:404102,-6,-11,-11,-8,-8,-5,0,-3
13:51:26:411557,-6,-11,-11,-8,-8,-5,0,-3
13:51:26:418973,-15,-10,2,-6,4,14,3,1
13:51:26:435311,-1,-4,19,14,11,0,1,-1
13:51:26:436128,-1,-4,19,14,11,0,1,-1
13:51:26:436923,2,9,5,10,-4,-4,-3,-4
13:51:26:449729,-5,-3,-21,-12,-5,5,4,-1
13:51:26:450490,-5,-3,-21,-12,-5,5,4,-1
13:51:26:456524,2,1,14,18,5,-9,-3,4
13:51:26:464010,4,6,-14,5,-5,-13,-13,5
13:51:26:471616,4,6,-14,5,-5,-13,-13,5
13:51:26:479010,-3,3,4,-4,-5,-10,0,-4
13:51:26:495316,-1,-2,7,0,-5,5,1,-4
13:51:26:496098,-1,-2,7,0,-5,5,1,-4
13:51:26:496943,-2,0,-6,-10,0,1,-7,2
13:51:26:510162,1,0,10,8,7,1,8,4
13:51:26:517287,1,0,10,8,7,1,8,4
13:51:26:518083,3,-6,8,-5,-7,-18,-7,-8
13:51:26:523980,0,-2,-19,-5,5,0,-14,-1
13:51:26:531531,0,-2,-19,-5,5,0,-14,-1
13:51:26:539107,-1,-4,0,10,-7,-3,-3,-1
13:51:26:546493,-5,5,14,4,-12,4,18,-1
13:51:26:554734,-5,5,14,4,-12,4,18,-1
13:51:26:555442,1,-7,-15,-11,3,1,8,3
13:51:26:569834,1,-5,3,-9,-3,-2,2,-2
13:51:26:570460,1,-5,3,-9,-3,-2,2,-2
13:51:26:576523,-5,-6,-12,-6,7,11,-3,-1
13:51:26:584082,0,12,-6,-5,-7,8,-2,4
13:51:26:591506,0,12,-6,-5,-7,8,-2,4
13:51:26:599064,2,-4,4,-2,-1,-1,1,2
13:51:26:606503,-2,-1,9,20,-6,-10,-10,-2
13:51:26:614713,-2,-1,9,20,-6,-10,-10,-2
13:51:26:615496,3,-1,-18,-5,-13,-8,3,2
13:51:26:629677,3,-5,-6,3,11,0,3,-5
13:51:26:630476,3,-5,-6,3,11,0,3,-5
13:51:26:636585,-3,-3,-3,9,4,-2,-3,-6
13:51:26:643947,-4,-3,-11,-4,-2,6,-4,0
13:51:26:651553,-4,-3,-11,-4,-2,6,-4,0
13:51:26:659006,4,14,30,0,-2,-12,-2,1
13:51:26:666556,-2,-10,11,-5,0,-2,-3,0
13:51:26:674735,-2,-10,11,-5,0,-2,-3,0
13:51:26:675519,-12,-17,-2,-7,4,12,-2,-4
13:51:26:689725,0,-1,-14,-4,-4,-5,7,-6
13:51:26:690526,0,-1,-14,-4,-4,-5,7,-6
13:51:26:696474,0,6,4,-1,-5,-4,3,1
13:51:26:704104,-1,-13,-2,-3,-1,-16,-1,3
13:51:26:711529,-1,-13,-2,-3,-1,-16,-1,3
13:51:26:719038,2,-3,-2,8,-3,-12,-11,-5
13:51:26:726519,-6,0,-7,-17,-8,-6,0,-1
13:51:26:734766,-6,0,-7,-17,-8,-6,0,-1
13:51:26:735535,2,4,15,10,3,9,9,3
13:51:26:749761,-1,-1,1,0,-3,-6,-5,11
13:51:26:750488,-1,-1,1,0,-3,-6,-5,11
13:51:26:756476,-3,8,11,-5,2,8,0,15
13:51:26:772304,-3,-4,-6,7,1,3,-1,-15
13:51:26:772981,-3,-4,-6,7,1,3,-1,-15
13:51:26:778926,3,11,-7,-15,-6,-7,-7,-11
13:51:26:795342,2,3,2,-5,-1,-3,-3,-2
13:51:26:796124,2,3,2,-5,-1,-3,-3,-2
13:51:26:796932,8,-1,-1,3,3,-7,3,-6
13:51:26:809720,0,4,23,18,16,24,4,-1
13:51:26:810456,0,4,23,18,16,24,4,-1
13:51:26:816621,1,-4,-11,-7,-17,-6,-8,-1
13:51:26:824052,-1,-3,-6,1,-5,-16,-11,0
13:51:26:831560,-1,-3,-6,1,-5,-16,-11,0
13:51:26:839060,-3,4,4,-4,0,1,3,2
13:51:26:846492,-1,-1,2,-7,-8,-12,-7,4
13:51:26:854771,-1,-1,2,-7,-8,-12,-7,4
13:51:26:855503,-9,0,-9,9,6,-1,-2,0
13:51:26:869746,-3,-21,-31,-9,-8,7,-8,-10
13:51:26:870514,-3,-21,-31,-9,-8,7,-8,-10
13:51:26:876496,1,-9,-15,-4,-2,0,1,-1
13:51:26:883981,-6,14,-1,8,4,14,4,-4
13:51:26:891527,-6,14,-1,8,4,14,4,-4
13:51:26:899093,2,-1,13,-6,6,3,3,-3
13:51:26:906465,-4,-4,2,-4,0,-1,7,-2
13:51:26:914738,-4,-4,2,-4,0,-1,7,-2
13:51:26:915506,-3,-3,-1,1,-13,-8,-1,5
13:51:26:929685,5,6,9,5,11,0,-8,6
13:51:26:930470,5,6,9,5,11,0,-8,6
13:51:26:936524,-3,-17,-17,-2,1,-2,-2,-8
13:51:26:943971,-1,-4,-8,-7,8,-2,-2,-5
13:51:26:951586,-1,-4,-8,-7,8,-2,-2,-5
13:51:26:959003,2,3,18,6,-4,0,0,3
13:51:26:966542,-3,7,-13,8,-8,-6,3,2
13:51:26:974709,-3,7,-13,8,-8,-6,3,2
13:51:26:975537,-6,-15,1,-5,-11,-12,-6,-1
13:51:26:989683,-4,-7,10,-5,-1,-6,2,0
13:51:26:990544,-4,-7,10,-5,-1,-6,2,0
13:51:26:996465,3,1,7,-2,-6,-3,0,-3
13:51:27:4046,-7,-13,1,0,-1,8,1,-7
13:51:27:11541,-7,-13,1,0,-1,8,1,-7
13:51:27:19100,0,11,7,23,2,3,2,8
13:51:27:26519,3,18,11,13,2,1,13,4
13:51:27:34683,3,18,11,13,2,1,13,4
13:51:27:35447,-6,4,5,2,10,-4,-1,-2
13:51:27:49712,3,-4,-6,-6,-4,-3,-8,-1
13:51:27:50480,3,-4,-6,-6,-4,-3,-8,-1
13:51:27:56519,1,7,3,-19,-3,6,-4,0
13:51:27:72238,2,7,-1,-4,-1,-1,-2,1
13:51:27:73023,2,7,-1,-4,-1,-1,-2,1
13:51:27:78981,-3,-3,0,-5,-6,-7,-5,-2
13:51:27:86565,1,-1,10,0,-4,0,-3,4
13:51:27:94668,1,-1,10,0,-4,0,-3,4
13:51:27:95517,-2,-26,-17,5,15,17,6,-1
13:51:27:109730,2,-13,-13,-8,-4,-8,4,-5
13:51:27:110540,2,-13,-13,-8,-4,-8,4,-5
13:51:27:116602,-2,7,-3,-6,-5,-14,4,-4
13:51:27:124010,1,4,-6,3,-5,10,3,0
13:51:27:131582,1,4,-6,3,-5,10,3,0
13:51:27:139086,-2,0,-6,-2,-3,-4,3,-5
13:51:27:146472,-2,2,5,-8,0,-5,-8,1
13:51:27:154723,-2,2,5,-8,0,-5,-8,1
13:51:27:155459,-1,-6,-11,-3,-2,-2,-14,1
13:51:27:169711,-3,-4,-4,7,-6,7,-2,2
13:51:27:170487,-3,-4,-4,7,-6,7,-2,2
13:51:27:176520,-3,-13,1,0,-3,-7,2,-2
13:51:27:184087,-1,-12,7,-2,6,3,-4,-4
13:51:27:191563,-1,-12,7,-2,6,3,-4,-4
13:51:27:199021,-2,4,-7,-1,0,1,-3,-4
13:51:27:206493,-1,5,-2,-10,-6,-7,-2,3
13:51:27:214716,-1,5,-2,-10,-6,-7,-2,3
13:51:27:215522,-1,-1,-5,-9,2,5,-4,-1
13:51:27:229696,2,8,6,7,7,0,-11,-5
13:51:27:230477,2,8,6,7,7,0,-11,-5
13:51:27:236558,1,9,6,5,-7,-7,-12,-5
13:51:27:252239,-7,-5,1,1,4,-12,9,2
13:51:27:252960,-7,-5,1,1,4,-12,9,2
13:51:27:259044,3,-4,-11,3,3,2,-3,2
13:51:27:266617,3,-1,3,-4,-7,4,-3,-1
13:51:27:274066,3,-1,3,-4,-7,4,-3,-1
13:51:27:281522,0,12,1,10,0,7,116,39
13:51:27:289682,-4,21,2,-6,-5,-7,-15,-2
13:51:27:290514,-4,21,2,-6,-5,-7,-15,-2
13:51:27:296492,-3,0,-4,0,-1,0,-97,-23
13:51:27:312212,0,-14,0,5,11,1,-59,-9
13:51:27:312970,0,-14,0,5,11,1,-59,-9
13:51:27:319068,3,9,7,0,-5,5,-24,13
13:51:27:326499,-2,-10,-14,-8,-8,-11,-7,7
13:51:27:334059,-2,-10,-14,-8,-8,-11,-7,7
13:51:27:341495,0,-10,0,5,3,4,8,-6
13:51:27:349742,-1,-7,-7,-4,-4,-3,1,-5
13:51:27:350505,-1,-7,-7,-4,-4,-3,1,-5
13:51:27:356505,-2,12,7,-5,5,-4,-4,-15
13:51:27:372264,3,9,7,-1,9,8,15,4
13:51:27:373009,3,9,7,-1,9,8,15,4
13:51:27:378986,-1,-12,-1,1,3,-3,-12,43
13:51:27:386595,-1,-16,4,-1,-8,-11,17,2
13:51:27:394021,-1,-16,4,-1,-8,-11,17,2
13:51:27:401478,-2,3,5,10,-12,-8,8,-34
13:51:27:409716,2,-4,-3,32,13,9,21,-25
13:51:27:410518,2,-4,-3,32,13,9,21,-25
13:51:27:416576,0,14,2,-23,-2,-1,-5,-12
13:51:27:432234,-3,3,5,-11,-7,1,-16,-2
13:51:27:433034,-3,3,5,-11,-7,1,-16,-2
13:51:27:439328,1,-9,-11,-10,2,-1,-9,-9
13:51:27:446534,-4,6,-12,-23,-5,-5,-7,3
13:51:27:454156,-4,6,-12,-23,-5,-5,-7,3
13:51:27:461467,-2,-7,-8,-6,-3,1,-11,-7
13:51:27:469717,-3,-5,4,-7,-6,-9,-5,0
13:51:27:470474,-3,-5,4,-7,-6,-9,-5,0
13:51:27:476498,2,1,3,6,0,-4,-4,2
13:51:27:492186,0,5,-2,0,2,7,2,6
13:51:27:492953,0,5,-2,0,2,7,2,6
13:51:27:499079,-4,8,-6,-18,-14,4,-3,3
13:51:27:506513,-1,-5,8,7,-1,-1,3,-5
13:51:27:514001,-1,-5,8,7,-1,-1,3,-5
13:51:27:521590,-5,-19,6,16,11,13,-3,-6
13:51:27:529685,-4,-3,-13,-11,-8,-13,0,-3
13:51:27:530471,-4,-3,-13,-11,-8,-13,0,-3
13:51:27:536608,-2,-17,-2,-11,3,9,3,1
13:51:27:552226,-8,3,-1,4,0,2,4,7
13:51:27:552968,-8,3,-1,4,0,2,4,7
13:51:27:567209,3,12,2,-9,-3,-16,-5,0
13:51:27:567953,-34,6,-7,-11,-2,9,2,2
13:51:27:574061,-34,6,-7,-11,-2,9,2,2
13:51:27:581557,14,-2,-20,-3,2,11,-1,-4
13:51:27:589736,28,-7,-4,-20,-18,-19,-11,-6
13:51:27:590488,28,-7,-4,-20,-18,-19,-11,-6
13:51:27:596476,11,0,8,17,11,-12,5,-2
13:51:27:612201,4,-8,-1,0,1,-1,-7,-2
13:51:27:612945,4,-8,-1,0,1,-1,-7,-2
13:51:27:619085,-7,6,-5,-2,-5,3,-4,-4
13:51:27:626554,11,10,-5,12,6,4,4,1
13:51:27:634069,11,10,-5,12,6,4,4,1
13:51:27:641518,-2,2,-5,-12,-15,-11,-5,2
13:51:27:649752,3,2,7,11,0,5,6,4
13:51:27:650568,3,2,7,11,0,5,6,4
13:51:27:656476,-2,2,6,9,2,-5,2,0
13:51:27:672288,3,23,6,-8,16,15,5,2
13:51:27:672988,3,23,6,-8,16,15,5,2
13:51:27:678989,-8,1,19,6,-3,-9,-4,1
13:51:27:686645,2,1,2,5,6,-6,-2,-3
13:51:27:694066,2,1,2,5,6,-6,-2,-3
13:51:27:701519,-6,-7,-8,2,9,7,-1,-3
13:51:27:709725,-9,-12,-17,-4,3,0,6,-2
13:51:27:710538,-9,-12,-17,-4,3,0,6,-2
13:51:27:716599,-1,17,16,4,-12,-4,1,-1
13:51:27:732350,-2,-14,-43,-7,-6,-4,-3,3
13:51:27:732994,-2,-14,-43,-7,-6,-4,-3,3
13:51:27:739057,2,-13,-17,-5,1,4,-6,-3
13:51:27:746487,-1,17,8,-4,-12,-5,-4,-9
13:51:27:754125,-1,17,8,-4,-12,-5,-4,-9
13:51:27:761493,1,-20,-4,-5,-3,2,-6,-1
13:51:27:769731,-5,-25,-11,11,7,10,-9,2
13:51:27:770476,-5,-25,-11,11,7,10,-9,2
13:51:27:776515,-4,53,36,-4,0,-6,3,-9
13:51:27:792228,-8,-34,-10,-7,0,0,2,-30
13:51:27:793021,-8,-34,-10,-7,0,0,2,-30
13:51:27:799093,-8,-16,-11,-6,-4,-14,5,14
13:51:27:806491,5,5,21,22,5,-4,-2,21
13:51:27:814057,5,5,21,22,5,-4,-2,21
13:51:27:821550,-1,4,25,8,7,-1,-1,9
13:51:27:829638,4,-14,-6,-10,-9,-1,-1,-1
13:51:27:830452,4,-14,-6,-10,-9,-1,-1,-1
13:51:27:844027,5,-3,2,4,2,11,6,1
13:51:27:852307,1,-14,8,12,-5,1,0,6
13:51:27:853039,1,-14,8,12,-5,1,0,6
13:51:27:859005,-10,-40,-22,-26,-19,-12,2,-4
13:51:27:866567,-4,6,12,7,-1,-21,2,3
13:51:27:874049,-4,6,12,7,-1,-21,2,3
13:51:27:890341,1,10,3,-3,5,4,-1,-5
13:51:27:891126,-7,-13,2,7,0,-8,-3,-1
13:51:27:891951,-7,-13,2,7,0,-8,-3,-1
13:51:27:896486,0,6,3,6,8,9,4,3
13:51:27:912208,1,-7,2,-11,-5,-1,4,-2
13:51:27:913000,1,-7,2,-11,-5,-1,4,-2
13:51:27:919038,-3,-3,0,8,-10,4,-6,-2
13:51:27:926508,2,15,7,3,2,1,1,3
13:51:27:934019,2,15,7,3,2,1,1,3
13:51:27:941544,-1,1,-15,-4,-9,-12,-7,-9
13:51:27:949758,7,64,8,4,12,20,9,4
13:51:27:950486,7,64,8,4,12,20,9,4
13:51:27:956498,-4,10,-27,-14,3,1,4,-1
13:51:27:972207,1,3,-7,2,-5,-1,-7,-2
13:51:27:972936,1,3,-7,2,-5,-1,-7,-2
13:51:27:978995,4,2,-4,10,11,12,1,4
13:51:27:986598,-7,1,-16,0,0,-4,-5,-3
13:51:27:994017,-7,1,-16,0,0,-4,-5,-3
13:51:28:1537,-2,-36,2,-14,-3,-3,-1,-7
13:51:28:9756,-2,-36,2,-14,-3,-3,-1,-7
13:51:28:10562,0,2,2,-15,-3,9,0,-3
13:51:28:16787,-2,4,7,-9,-3,-1,0,-3
13:51:28:32367,-2,4,7,-9,-3,-1,0,-3
13:51:28:33044,1,-8,-12,-4,5,6,1,3
13:51:28:39074,-11,-27,-21,-6,6,2,10,-2
13:51:28:54777,-11,-27,-21,-6,6,2,10,-2
13:51:28:55491,3,-19,-12,-5,3,-11,4,-6
13:51:28:61489,-4,-4,-9,-4,-3,-1,-9,5
13:51:28:69795,-4,-4,-9,-4,-3,-1,-9,5
13:51:28:70501,-10,-27,-29,-21,-1,-6,0,-5
13:51:28:76508,2,-1,6,20,6,-1,-1,5
13:51:28:92212,2,-1,6,20,6,-1,-1,5
13:51:28:92972,0,20,20,4,-17,-13,0,-2
13:51:28:99127,-8,-16,-10,24,6,4,-9,-5
13:51:28:114706,-8,-16,-10,24,6,4,-9,-5
13:51:28:115472,0,7,6,-1,-1,0,-4,0
13:51:28:121550,5,32,25,-4,-9,-7,-3,2
13:51:28:129648,5,32,25,-4,-9,-7,-3,2
13:51:28:130475,-5,-9,-13,-5,15,8,3,-2
13:51:28:136582,-2,-4,15,2,0,-5,-5,-7
13:51:28:152241,-2,-4,15,2,0,-5,-5,-7
13:51:28:152971,-6,-12,10,-8,-5,0,-7,-1
13:51:28:159024,2,-9,-26,-22,-6,-11,8,11
13:51:28:174762,2,-9,-26,-22,-6,-11,8,11
13:51:28:175513,3,-1,30,-2,-6,-4,-3,2
13:51:28:181498,3,20,-1,-1,-3,0,1,-6
13:51:28:189132,3,20,-1,-1,-3,0,1,-6
13:51:28:196480,0,2,-5,5,-8,0,-4,-11
13:51:28:204059,8,11,12,6,4,0,4,-7
13:51:28:212234,8,11,12,6,4,0,4,-7
13:51:28:212992,-2,-13,-2,7,-11,-4,-9,-2
13:51:28:218972,-9,-4,5,6,5,-1,-1,-6
13:51:28:234728,-9,-4,5,6,5,-1,-1,-6
13:51:28:235491,-1,-8,5,-7,4,-4,-7,5
13:51:28:241513,5,27,14,26,14,6,-5,0
13:51:28:249730,5,27,14,26,14,6,-5,0
13:51:28:250481,2,13,2,6,-1,-3,5,0
13:51:28:264017,0,5,-3,-10,-9,-5,-9,-1
13:51:28:272267,0,5,-3,-10,-9,-5,-9,-1
13:51:28:272996,-1,-2,10,8,6,25,2,0
13:51:28:279034,3,-1,-2,9,-2,11,10,10
13:51:28:294672,3,-1,-2,9,-2,11,10,10
13:51:28:295491,-5,10,13,-2,-1,-9,7,-3
13:51:28:301536,3,-23,-8,-22,-5,-1,-4,-9
13:51:28:309717,3,-23,-8,-22,-5,-1,-4,-9
13:51:28:310500,-11,-25,-42,7,10,-2,4,2
13:51:28:324039,-7,-36,-30,-3,2,-6,0,0
13:51:28:332298,-7,-36,-30,-3,2,-6,0,0
13:51:28:332976,1,11,7,-6,-4,-13,-7,-2
13:51:28:339051,-3,0,-12,-8,-4,2,-1,4
13:51:28:354787,-3,0,-12,-8,-4,2,-1,4
13:51:28:355494,0,2,0,4,11,-2,-1,3
13:51:28:361503,-1,16,15,0,-11,-7,-5,-1
13:51:28:369746,-1,16,15,0,-11,-7,-5,-1
13:51:28:370561,2,-7,-4,-13,-10,-4,-6,-8
13:51:28:384048,-3,1,2,6,10,2,-3,-2
13:51:28:392286,-3,1,2,6,10,2,-3,-2
13:51:28:393049,1,9,11,-8,-8,5,4,2
13:51:28:399134,-5,-6,9,8,-13,-8,0,-3
13:51:28:414735,-5,-6,9,8,-13,-8,0,-3
13:51:28:415503,-4,0,4,3,-1,0,-2,-3
13:51:28:421656,9,5,6,16,0,-4,-2,-3
13:51:28:429676,9,5,6,16,0,-4,-2,-3
13:51:28:430476,4,9,20,14,-4,-3,-2,-1
13:51:28:443990,-13,-4,-5,-25,-7,-7,-10,-4
13:51:28:452348,-13,-4,-5,-25,-7,-7,-10,-4
13:51:28:453032,7,9,-16,-6,-4,1,-5,1
13:51:28:459026,4,-7,-17,-18,-2,-15,1,-1
13:51:28:474695,4,-7,-17,-18,-2,-15,1,-1
13:51:28:475559,2,9,3,-2,11,1,-2,2
13:51:28:481501,-3,-2,-1,-3,-4,14,-1,1
13:51:28:489740,-3,-2,-1,-3,-4,14,-1,1
13:51:28:490503,-6,-19,-23,-2,-7,-2,-2,1
13:51:28:504076,2,0,-7,-5,2,-6,5,3
13:51:28:512196,2,0,-7,-5,2,-6,5,3
13:51:28:513031,-5,-2,8,-5,-10,-13,-2,-2
13:51:28:519032,-3,1,-3,34,19,7,3,-1
13:51:28:534789,-3,1,-3,34,19,7,3,-1
13:51:28:535463,9,1,-5,-6,-1,-2,-1,3
13:51:28:541521,-2,0,-12,-12,-6,-10,-5,0
13:51:28:549821,-2,0,-12,-12,-6,-10,-5,0
13:51:28:550542,-12,-21,-12,-7,5,-9,-5,-11
13:51:28:563993,4,-6,22,3,5,19,11,-1
13:51:28:572281,4,-6,22,3,5,19,11,-1
13:51:28:572991,-1,-4,-4,-6,-16,-9,1,-2
13:51:28:578988,-7,-4,-14,13,12,-15,-2,-2
13:51:28:594700,-7,-4,-14,13,12,-15,-2,-2
13:51:28:595491,-6,-10,-15,2,6,8,8,-4
13:51:28:601557,-4,4,-3,-24,-17,-9,-11,-5
13:51:28:609723,-4,4,-3,-24,-17,-9,-11,-5
13:51:28:610513,-16,2,0,17,2,-3,-4,1
13:51:28:623983,1,13,10,-1,5,6,-4,1
13:51:28:632264,1,13,10,-1,5,6,-4,1
13:51:28:632999,-23,-23,15,0,-5,-5,-3,1
13:51:28:639013,-3,4,-6,-5,-6,-2,1,-4
13:51:28:654730,-3,4,-6,-5,-6,-2,1,-4
13:51:28:655476,2,-7,-35,-7,2,11,6,-4
13:51:28:661490,8,-10,-7,-3,-2,2,-10,0
13:51:28:669793,8,-10,-7,-3,-2,2,-10,0
13:51:28:670569,14,24,25,7,-3,-1,-4,4
13:51:28:684062,13,14,3,7,0,7,6,2
13:51:28:692249,13,14,3,7,0,7,6,2
13:51:28:693034,1,-17,24,6,-4,-9,-9,-9
13:51:28:699061,-6,0,-23,-15,-6,-8,2,-2
13:51:28:714738,-6,0,-23,-15,-6,-8,2,-2
13:51:28:715534,24,18,-8,-11,3,3,-2,-1
13:51:28:721619,2,-16,11,8,-5,-10,-1,0
13:51:28:729738,2,-16,11,8,-5,-10,-1,0
13:51:28:730486,10,-23,-24,-18,-10,-2,2,1
13:51:28:744049,-4,-7,0,-1,1,1,7,0
13:51:28:752302,-4,-7,0,-1,1,1,7,0
13:51:28:753021,4,15,17,6,-5,2,3,1
13:51:28:758983,-10,-3,-8,-17,-13,-6,-6,-3
13:51:28:774712,-10,-3,-8,-17,-13,-6,-6,-3
13:51:28:775498,-11,7,12,2,11,21,4,-1
13:51:28:781517,-15,2,11,0,-9,-3,-2,-3
13:51:28:789706,-15,2,11,0,-9,-3,-2,-3
13:51:28:790482,-10,6,-7,6,2,1,1,0
13:51:28:804129,-3,-7,-11,-3,-14,0,6,-5
13:51:28:812184,-3,-7,-11,-3,-14,0,6,-5
13:51:28:812948,10,11,27,-1,3,-9,0,8
13:51:28:819009,8,4,-7,-7,7,-7,-6,-10
13:51:28:834685,8,4,-7,-7,7,-7,-6,-10
13:51:28:835534,-9,-7,-6,20,30,19,8,-4
13:51:28:841505,-8,7,5,-1,5,5,-1,3
13:51:28:850213,-8,7,5,-1,5,5,-1,3
13:51:28:856523,1,1,7,-17,-11,-8,-5,3
13:51:28:863996,16,-4,-18,16,12,9,6,5
13:51:28:872277,16,-4,-18,16,12,9,6,5
13:51:28:873057,6,9,15,-13,-3,-2,39,1
13:51:28:878986,-10,-9,0,-9,-5,-5,17,-6
13:51:28:894695,-10,-9,0,-9,-5,-5,17,-6
13:51:28:895493,0,2,7,-14,-9,-3,-20,-1
13:51:28:901546,7,8,-4,1,15,2,-10,3
13:51:28:909700,7,8,-4,1,15,2,-10,3
13:51:28:910503,-11,4,-7,6,7,6,-17,-1
13:51:28:923981,3,-10,6,-9,-4,21,-17,-5
13:51:28:932256,3,-10,6,-9,-4,21,-17,-5
13:51:28:932955,38,6,-8,0,-4,0,-4,3
13:51:28:939042,-13,-21,2,-2,-6,-16,-10,-1
13:51:28:954754,-13,-21,2,-2,-6,-16,-10,-1
13:51:28:955480,-9,2,-17,-9,-13,0,-12,-6
13:51:28:961502,15,9,-7,-16,-2,6,8,3
13:51:28:969774,15,9,-7,-16,-2,6,8,3
13:51:28:970471,-5,-12,-23,14,3,-10,-1,-1
13:51:28:984027,1,4,4,-6,2,-6,-4,2
13:51:28:992169,1,4,4,-6,2,-6,-4,2
13:51:28:992942,1,-11,6,-16,-12,-15,0,-2
13:51:28:999149,-10,1,5,1,3,0,-3,-5
13:51:29:14687,-10,1,5,1,3,0,-3,-5
13:51:29:15503,22,8,0,10,4,9,-1,1
13:51:29:21597,-4,-14,21,17,-6,-1,0,-5
13:51:29:29697,-4,-14,21,17,-6,-1,0,-5
13:51:29:30500,-10,12,12,-18,-10,4,-5,2
13:51:29:43999,-21,-2,5,26,13,6,1,6
13:51:29:52186,-21,-2,5,26,13,6,1,6
13:51:29:52957,6,8,-2,16,0,-7,1,2
13:51:29:58997,-3,-10,-18,-4,-7,-1,3,-6
13:51:29:74743,-3,-10,-18,-4,-7,-1,3,-6
13:51:29:75545,4,-8,0,-7,6,-19,-2,-2
13:51:29:81503,-3,-1,-26,-7,8,2,0,-3
13:51:29:89649,-3,-1,-26,-7,8,2,0,-3
13:51:29:90467,-14,-8,-43,-15,-7,-6,-4,-3
13:51:29:104050,1,14,19,4,1,-4,0,5
13:51:29:112213,1,14,19,4,1,-4,0,5
13:51:29:113011,0,-6,4,-3,-7,-4,-1,-2
13:51:29:119038,-2,-3,8,-14,-13,-5,3,-4
13:51:29:134690,-2,-3,8,-14,-13,-5,3,-4
13:51:29:135482,-16,-21,14,17,5,-5,-1,-5
13:51:29:141514,26,5,0,9,-2,-6,-6,-1
13:51:29:149168,26,5,0,9,-2,-6,-6,-1
13:51:29:156489,-10,3,5,-10,-4,-11,0,-4
13:51:29:164001,-11,11,32,18,9,1,-1,4
13:51:29:172265,-11,11,32,18,9,1,-1,4
13:51:29:172964,-10,4,5,-5,20,15,3,0
13:51:29:186568,-11,-1,12,-4,-1,8,-1,1
13:51:29:194719,-11,-1,12,-4,-1,8,-1,1
13:51:29:195506,-7,8,1,4,-9,-5,-6,-2
13:51:29:201511,10,-4,-42,-11,-1,-10,1,-1
13:51:29:209018,10,-4,-42,-11,-1,-10,1,-1
13:51:29:216611,16,-4,7,2,-5,-4,-3,-5
13:51:29:224000,2,7,-2,-6,-5,-5,-16,-3
13:51:29:232195,2,7,-2,-6,-5,-5,-16,-3
13:51:29:232995,5,-10,-9,9,-7,3,-11,1
13:51:29:246494,-4,-12,10,-7,-2,-7,-1,0
13:51:29:254795,-4,-12,10,-7,-2,-7,-1,0
13:51:29:255519,-7,2,23,15,5,5,3,-4
13:51:29:261477,-7,0,-2,4,-7,-5,3,1
13:51:29:269089,-7,0,-2,4,-7,-5,3,1
13:51:29:276494,-14,-7,1,-11,0,-4,4,2
13:51:29:284078,9,2,-16,6,3,5,6,0
13:51:29:292208,9,2,-16,6,3,5,6,0
13:51:29:293018,0,8,-4,-9,-2,2,0,1
13:51:29:306501,8,0,-5,-8,8,1,-1,3
13:51:29:314688,8,0,-5,-8,8,1,-1,3
13:51:29:315482,-5,-5,-41,-14,-4,-5,-3,-4
13:51:29:321597,-17,-19,-5,-9,-5,1,-2,-10
13:51:29:329055,-17,-19,-5,-9,-5,1,-2,-10
13:51:29:336582,4,-16,-27,3,1,4,1,-1
13:51:29:343958,-2,-2,-6,-5,3,0,1,0
13:51:29:352287,-2,-2,-6,-5,3,0,1,0
13:51:29:353041,-1,5,6,-12,1,-18,-2,-2
13:51:29:366544,-2,18,26,9,-7,3,2,0
13:51:29:374709,-2,18,26,9,-7,3,2,0
13:51:29:375549,-11,-1,16,8,2,5,7,-3
13:51:29:381500,7,12,22,8,4,4,-3,0
13:51:29:389178,7,12,22,8,4,4,-3,0
13:51:29:396530,-3,8,11,7,5,-1,-4,5
13:51:29:404126,2,-5,-10,6,7,0,-4,-7
13:51:29:412259,2,-5,-10,6,7,0,-4,-7
13:51:29:413010,6,-8,-13,-5,5,5,2,0
13:51:29:426513,13,-6,-21,-9,-9,-1,3,1
13:51:29:434698,13,-6,-21,-9,-9,-1,3,1
13:51:29:435501,9,11,12,2,17,9,4,4
13:51:29:441511,-11,-12,-42,-9,-11,-9,-5,-3
13:51:29:449162,-11,-12,-42,-9,-11,-9,-5,-3
13:51:29:456530,1,-1,0,-12,-9,6,2,2
13:51:29:463990,-1,-1,-7,-18,-1,7,3,0
13:51:29:472230,-1,-1,-7,-18,-1,7,3,0
13:51:29:472968,-8,-20,-25,0,-11,0,3,-4
13:51:29:486646,3,14,26,5,3,2,1,1
13:51:29:494625,3,14,26,5,3,2,1,1
13:51:29:495456,26,11,8,-1,-5,-5,-11,1
13:51:29:501556,-6,-17,-2,-9,-21,-4,-6,-5
13:51:29:509020,-6,-17,-2,-9,-21,-4,-6,-5
13:51:29:516555,-2,-2,-6,15,7,-8,3,-5
13:51:29:523981,9,7,12,27,7,0,3,3
13:51:29:532350,9,7,12,27,7,0,3,3
13:51:29:532942,-12,3,-10,-17,-23,-6,-2,-4
13:51:29:546487,-7,-6,4,37,9,4,-2,1
13:51:29:554787,-7,-6,4,37,9,4,-2,1
13:51:29:555503,0,6,27,16,-15,5,-3,-2
13:51:29:561522,7,6,0,-20,-18,-11,-1,-1
13:51:29:569117,7,6,0,-20,-18,-11,-1,-1
13:51:29:576522,-27,-8,-6,-15,17,7,4,-3
13:51:29:584035,-14,-4,14,1,5,2,0,-3
13:51:29:592239,-14,-4,14,1,5,2,0,-3
13:51:29:592987,-3,0,-12,-8,-7,3,0,0
13:51:29:606549,-3,-1,-5,-24,0,-6,-5,-2
13:51:29:614728,-3,-1,-5,-24,0,-6,-5,-2
13:51:29:615560,1,4,10,8,1,-6,-2,3
13:51:29:621584,11,-4,-20,-27,-7,-2,5,0
13:51:29:629086,11,-4,-20,-27,-7,-2,5,0
13:51:29:636626,7,-4,-13,-16,-11,1,-7,-3
13:51:29:644037,-28,5,4,5,8,2,-5,-4
13:51:29:652344,-28,5,4,5,8,2,-5,-4
13:51:29:652986,-5,-7,-1,-1,6,-5,1,0
13:51:29:667206,11,-2,2,2,-8,-8,-1,3
13:51:29:667998,11,-2,2,2,-8,-8,-1,3
13:51:29:674058,-9,1,-1,12,4,2,-3,0
13:51:29:681549,-25,-6,12,10,3,-4,-3,-6
13:51:29:689136,-25,-6,12,10,3,-4,-3,-6
13:51:29:696511,10,-3,5,3,6,-2,4,-1
13:51:29:704027,6,-6,-3,-1,-9,-4,0,1
13:51:29:712226,6,-6,-3,-1,-9,-4,0,1
13:51:29:712963,-3,-11,-17,18,14,8,3,0
13:51:29:726553,-2,1,7,8,8,10,4,-2
13:51:29:734709,-2,1,7,8,8,10,4,-2
13:51:29:735505,0,-4,-3,-11,-6,-5,-7,-3
13:51:29:741551,17,9,-32,3,3,6,1,2
13:51:29:749185,17,9,-32,3,3,6,1,2
13:51:29:756521,4,0,-10,-13,-1,-2,-4,-1
13:51:29:764017,-5,1,2,-7,7,1,3,0
13:51:29:772326,-5,1,2,-7,7,1,3,0
13:51:29:772973,-10,-3,6,-11,-7,-10,1,-2
13:51:29:787276,-7,5,-6,-14,-2,-9,-5,-2
13:51:29:787993,-7,5,-6,-14,-2,-9,-5,-2
13:51:29:794050,6,9,12,-1,12,13,6,3
13:51:29:801523,-2,-16,11,-6,-9,4,-3,-4
13:51:29:809048,-2,-16,11,-6,-9,4,-3,-4
13:51:29:816600,-1,0,-5,-8,-9,-1,0,-8
13:51:29:824066,0,6,9,7,0,-5,-4,0
13:51:29:832212,0,6,9,7,0,-5,-4,0
13:51:29:833039,14,-2,-2,2,12,5,2,0
13:51:29:847184,13,4,-1,-7,-3,-13,-4,-2
13:51:29:847951,13,4,-1,-7,-3,-13,-4,-2
13:51:29:854050,-23,-3,2,14,2,-9,-2,1
13:51:29:861493,1,-2,-8,4,-3,1,-1,-1
13:51:29:869148,1,-2,-8,4,-3,1,-1,-1
13:51:29:876546,-4,-13,-21,-21,-25,-8,-8,-4
13:51:29:884028,-10,0,8,19,14,-15,0,0
13:51:29:892226,-10,0,8,19,14,-15,0,0
13:51:29:892979,9,10,1,-3,-12,2,3,2
13:51:29:907181,-6,-5,-4,-14,-7,9,1,3
13:51:29:908068,-6,-5,-4,-14,-7,9,1,3
13:51:29:913991,-4,5,9,9,2,-7,2,-1
13:51:29:921636,4,6,-3,-15,9,7,-4,0
13:51:29:929078,4,6,-3,-15,9,7,-4,0
13:51:29:936664,-5,-5,-18,-2,-2,-4,-4,-1
13:51:29:944003,-1,-4,8,30,-3,3,1,-3
13:51:29:952275,-1,-4,8,30,-3,3,1,-3
13:51:29:953002,4,7,27,19,2,1,0,2
13:51:29:967302,-3,-9,4,1,-7,-11,-3,-4
13:51:29:967996,-3,-9,4,1,-7,-11,-3,-4
13:51:29:974043,-3,-2,-2,-2,-1,5,-3,2
13:51:29:981567,2,6,2,-8,-6,6,-3,2
13:51:29:989146,2,6,2,-8,-6,6,-3,2
13:51:29:996505,-1,2,-11,-4,-5,-13,-6,-3
13:51:30:4043,-2,-2,-10,6,17,14,10,-2
13:51:30:12168,-2,-2,-10,6,17,14,10,-2
13:51:30:13007,6,-2,6,2,-7,-1,5,-2
13:51:30:27159,-6,-15,-1,-7,-11,-14,-5,0
13:51:30:27951,-6,-15,-1,-7,-11,-14,-5,0
13:51:30:34064,0,-1,5,-6,6,0,-16,1
13:51:30:41565,-6,1,0,-10,-5,0,-7,-3
13:51:30:57266,-6,1,0,-10,-5,0,-7,-3
13:51:30:58024,6,1,-7,-4,-3,-5,8,-2
13:51:30:64014,2,9,8,13,7,-10,-4,-3
13:51:30:71688,2,9,8,13,7,-10,-4,-3
13:51:30:79002,5,13,4,17,13,13,5,1
13:51:30:87264,-1,-3,-8,-7,-4,-8,-5,-3
13:51:30:87955,-1,-3,-8,-7,-4,-8,-5,-3
13:51:30:94002,-7,8,14,-5,0,3,2,-2
13:51:30:109633,11,7,-6,-1,1,1,8,7
13:51:30:110483,11,7,-6,-1,1,1,8,7
13:51:30:116589,0,-5,-9,-13,-15,2,0,-2
13:51:30:124040,-9,-10,0,20,12,22,4,-4
13:51:30:131510,-9,-10,0,20,12,22,4,-4
13:51:30:139113,2,-10,18,32,-12,-10,-9,5
13:51:30:147167,5,4,21,-9,-14,-9,-2,-2
13:51:30:147951,5,4,21,-9,-14,-9,-2,-2
13:51:30:154019,-11,-7,-14,2,1,2,3,-2
13:51:30:169699,-2,2,-4,-6,-4,-5,0,2
13:51:30:170519,-2,2,-4,-6,-4,-5,0,2
13:51:30:176530,-2,-10,5,-12,-1,-14,-12,-7
13:51:30:184065,1,-8,-24,-9,-4,1,-4,-1
13:51:30:191527,1,-8,-24,-9,-4,1,-4,-1
13:51:30:199094,-3,-11,7,-8,4,6,0,-5
13:51:30:206551,-4,-5,2,0,-8,-3,-7,-5
13:51:30:214685,-4,-5,2,0,-8,-3,-7,-5
13:51:30:215498,-5,-1,-21,21,11,2,1,-2
13:51:30:229659,5,10,11,17,10,-4,6,2
13:51:30:230518,5,10,11,17,10,-4,6,2
13:51:30:236581,2,7,-5,-9,-8,9,0,1
13:51:30:244007,-7,-3,-9,-18,7,-7,-2,1
13:51:30:251588,-7,-3,-9,-18,7,-7,-2,1
13:51:30:259019,-9,-10,-6,-7,0,2,5,-6
13:51:30:267283,-2,-6,-9,-8,-9,-3,-5,-5
13:51:30:268028,-2,-6,-9,-8,-9,-3,-5,-5
13:51:30:274033,19,14,2,-15,-7,-8,2,4
13:51:30:289723,-2,2,12,-11,4,7,-2,-1
13:51:30:290525,-2,2,12,-11,4,7,-2,-1
13:51:30:296492,-2,3,9,-11,-2,-11,-3,2
13:51:30:304013,8,2,15,11,3,2,3,2
13:51:30:311517,8,2,15,11,3,2,3,2
13:51:30:318986,-9,6,19,3,-6,-9,-2,2
13:51:30:327175,5,-2,-17,2,-1,0,2,2
13:51:30:327929,5,-2,-17,2,-1,0,2,2
13:51:30:334045,-6,-3,-21,-1,3,-8,-4,-3
13:51:30:349806,-8,-7,-20,2,-8,-6,4,-8
13:51:30:350548,-8,-7,-20,2,-8,-6,4,-8
13:51:30:356609,11,4,-14,-8,-12,-5,-4,0
13:51:30:363971,-6,-8,-17,-12,-2,0,1,-2
13:51:30:371670,-6,-8,-17,-12,-2,0,1,-2
13:51:30:379012,-7,-1,23,3,11,6,6,3
13:51:30:387213,-7,-1,5,0,-10,-3,2,-4
13:51:30:387953,-7,-1,5,0,-10,-3,2,-4
13:51:30:394013,13,0,8,3,-3,9,-1,-3
13:51:30:409669,7,7,16,3,9,13,-1,3
13:51:30:410502,7,7,16,3,9,13,-1,3
13:51:30:416578,-11,2,4,2,-9,-8,-5,-3
13:51:30:424008,12,6,12,-3,1,1,-5,1
13:51:30:431505,12,6,12,-3,1,1,-5,1
13:51:30:439179,-9,-10,-2,0,-2,-7,-2,-1
13:51:30:447156,-5,-8,3,-6,-6,-5,1,2
13:51:30:447951,-5,-8,3,-6,-6,-5,1,2
13:51:30:454023,-12,3,-8,-5,2,-7,0,-4
13:51:30:469740,-3,1,-14,-3,3,-8,-3,1
13:51:30:470538,-3,1,-14,-3,3,-8,-3,1
13:51:30:476527,1,3,8,-3,6,8,1,0
13:51:30:484036,3,-12,-7,-6,-8,-7,1,7
13:51:30:491578,3,-12,-7,-6,-8,-7,1,7
13:51:30:499021,-6,3,-5,0,-2,-2,-3,5
13:51:30:507316,-5,2,6,4,0,-5,0,-2
13:51:30:508035,-5,2,6,4,0,-5,0,-2
13:51:30:513970,5,-4,3,3,2,2,5,-2
13:51:30:529674,1,3,-6,7,-8,6,-8,-8
13:51:30:530497,1,3,-6,7,-8,6,-8,-8
13:51:30:536649,-4,-15,-25,-3,-3,3,-3,-5
13:51:30:543994,-12,-3,-2,0,13,2,-1,-1
13:51:30:551551,-12,-3,-2,0,13,2,-1,-1
13:51:30:558965,-4,5,6,-8,-10,-7,-4,-3
13:51:30:567218,2,8,11,3,-3,8,-3,-3
13:51:30:568068,2,8,11,3,-3,8,-3,-3
13:51:30:574014,-1,7,4,12,20,9,5,-7
13:51:30:589786,12,5,-8,-12,-3,-9,2,-1
13:51:30:590490,12,5,-8,-12,-3,-9,2,-1
13:51:30:596494,3,-7,-3,-6,-3,-9,-6,0
13:51:30:604027,10,-11,-4,2,-2,-6,-1,-1
13:51:30:611540,10,-11,-4,2,-2,-6,-1,-1
13:51:30:619027,-3,-11,5,0,-3,8,-1,-3
13:51:30:627156,-6,-3,5,0,0,-7,-3,-4
13:51:30:627962,-6,-3,5,0,0,-7,-3,-4
13:51:30:633974,2,7,-6,-5,-12,-6,-5,0
13:51:30:649730,-2,5,9,2,4,5,6,2
13:51:30:650497,-2,5,9,2,4,5,6,2
13:51:30:656562,6,-3,-4,-17,1,0,1,0
13:51:30:663983,-1,6,-4,-4,-3,-4,-2,-3
13:51:30:671625,-1,6,-4,-4,-3,-4,-2,-3
13:51:30:679004,-21,0,10,11,7,-11,-5,-3
13:51:30:687234,-1,-3,-14,7,12,4,7,0
13:51:30:687985,-1,-3,-14,7,12,4,7,0
13:51:30:693955,25,5,-6,-3,8,20,10,7
13:51:30:709658,-14,1,-6,9,0,-2,-8,-5
13:51:30:710547,-14,1,-6,9,0,-2,-8,-5
13:51:30:716612,-8,-12,-12,-26,-9,-11,-8,-2
13:51:30:724051,8,-1,-3,-8,-3,0,0,-1
13:51:30:731563,8,-1,-3,-8,-3,0,0,-1
13:51:30:739010,8,-10,-7,-6,-8,-4,0,-2
13:51:30:747163,-9,-5,-7,-5,-8,-7,-3,-3
13:51:30:747968,-9,-5,-7,-5,-8,-7,-3,-3
13:51:30:754000,-2,3,-2,-1,2,1,-1,-2
13:51:30:769735,2,0,11,-7,3,-4,3,5
13:51:30:770492,2,0,11,-7,3,-4,3,5
13:51:30:776496,-3,-7,-26,3,-2,4,-2,1
13:51:30:783982,-10,-9,-21,0,-6,2,0,-3
13:51:30:791539,-10,-9,-21,0,-6,2,0,-3
13:51:30:799106,1,-7,8,6,3,0,0,-5
13:51:30:807231,-21,-12,5,-11,-8,-5,-5,3
13:51:30:808004,-21,-12,5,-11,-8,-5,-5,3
13:51:30:813994,4,8,10,36,-5,-6,1,2
13:51:30:829692,-3,-6,24,-1,4,6,1,-1
13:51:30:830488,-3,-6,24,-1,4,6,1,-1
13:51:30:836601,-3,7,3,-2,13,6,5,1
13:51:30:843976,-1,2,1,-35,-9,-8,-7,-4
13:51:30:851599,-1,2,1,-35,-9,-8,-7,-4
13:51:30:858997,-14,-13,-7,-8,5,-4,-2,-5
13:51:30:867263,2,1,-5,-8,2,6,2,10
13:51:30:868045,2,1,-5,-8,2,6,2,10
13:51:30:874021,-3,7,19,7,-17,-6,-1,-22
13:51:30:889738,-24,-1,7,40,12,0,4,-14
13:51:30:890530,-24,-1,7,40,12,0,4,-14
13:51:30:896498,-9,-5,-14,-2,7,6,-4,10
13:51:30:904047,10,4,-9,-6,3,-4,3,9
13:51:30:911543,10,4,-9,-6,3,-4,3,9
13:51:30:919093,1,3,-9,-1,5,-6,-4,2
13:51:30:927200,26,3,-8,-3,-11,-3,-1,4
13:51:30:928001,26,3,-8,-3,-11,-3,-1,4
13:51:30:934074,6,-3,-8,-1,4,8,0,3
13:51:30:949827,10,-8,-21,-1,-1,-2,-1,1
13:51:30:950529,10,-8,-21,-1,-1,-2,-1,1
13:51:30:956583,-1,11,-2,-18,-3,-3,2,4
13:51:30:964013,-7,8,4,-3,-4,-2,-3,-3
13:51:30:971691,-7,8,4,-3,-4,-2,-3,-3
13:51:30:979022,8,2,13,8,9,-2,4,1
13:51:30:987243,-6,-5,11,0,-1,1,-6,-6
13:51:30:987989,-6,-5,11,0,-1,1,-6,-6
13:51:30:993955,6,6,4,10,-7,-2,-2,2
13:51:31:9728,-3,-7,6,23,8,5,7,-1
13:51:31:10520,-3,-7,6,23,8,5,7,-1
13:51:31:16564,-4,-1,7,-7,-17,-7,-1,-2
13:51:31:32212,-6,-7,1,-14,-5,-5,-4,-2
13:51:31:33017,-6,-7,1,-14,-5,-5,-4,-2
13:51:31:39069,-14,-15,11,0,-3,-4,-1,-2
13:51:31:47142,-1,-4,-4,-13,-9,-7,-2,-2
13:51:31:47945,-1,-4,-4,-13,-9,-7,-2,-2
13:51:31:61563,-3,6,5,8,-1,6,7,3
13:51:31:69727,-1,2,-19,-13,-6,1,-6,2
13:51:31:70557,-1,2,-19,-13,-6,1,-6,2
13:51:31:76578,3,-11,-24,-2,7,-1,-7,-7
13:51:31:92219,7,13,16,0,-3,1,4,0
13:51:31:93059,7,13,16,0,-3,1,4,0
13:51:31:99032,-6,-6,-8,-24,-8,0,-2,-3
13:51:31:107192,-4,-6,-1,12,8,0,1,-5
13:51:31:107968,-4,-6,-1,12,8,0,1,-5
13:51:31:121587,-3,-1,-7,2,-5,0,1,2
13:51:31:129702,5,2,-7,-1,-1,4,4,2
13:51:31:130507,5,2,-7,-1,-1,4,4,2
13:51:31:136564,-3,-8,1,-8,6,-4,-2,0
13:51:31:152273,-4,0,-13,-7,-2,-5,-6,-3
13:51:31:152982,-4,0,-13,-7,-2,-5,-6,-3
13:51:31:158976,17,22,13,-15,-3,-7,-1,2
13:51:31:167174,8,-1,12,4,9,22,8,3
13:51:31:167950,8,-1,12,4,9,22,8,3
13:51:31:181532,-7,-5,-13,-25,-12,14,-4,-9
13:51:31:189683,10,-3,-15,37,6,-1,-4,-1
13:51:31:190503,10,-3,-15,37,6,-1,-4,-1
13:51:31:196498,0,-4,11,17,12,-10,-5,-1
13:51:31:212167,2,-7,9,-8,-9,-6,-5,-2
13:51:31:212988,2,-7,9,-8,-9,-6,-5,-2
13:51:31:219057,-9,-3,-1,7,2,-3,-1,-2
13:51:31:227202,-20,3,9,-1,-5,-7,-6,-4
13:51:31:227971,-20,3,9,-1,-5,-7,-6,-4
13:51:31:241537,0,-1,-20,12,0,-7,-3,-1
13:51:31:249703,-7,2,13,-10,-4,4,5,-3
13:51:31:250489,-7,2,13,-10,-4,4,5,-3
13:51:31:256590,6,2,-7,-8,2,10,1,1
13:51:31:272241,3,5,-1,5,4,0,1,4
13:51:31:272993,3,5,-1,5,4,0,1,4
13:51:31:279030,4,3,17,13,-2,-1,8,0
13:51:31:287201,-12,0,14,-9,-11,-13,-3,-7
13:51:31:288014,-12,0,14,-9,-11,-13,-3,-7
13:51:31:301463,-3,-1,8,1,-7,-4,2,-1
13:51:31:309682,-3,-9,-14,50,2,-3,-3,-2
13:51:31:310510,-3,-9,-14,50,2,-3,-3,-2
13:51:31:316553,-12,-9,-2,8,-7,-1,-8,-2
13:51:31:332164,17,9,-10,-16,12,8,2,2
13:51:31:332987,17,9,-10,-16,12,8,2,2
13:51:31:339049,6,5,10,-8,2,-4,-1,5
13:51:31:346538,6,5,10,-8,2,-4,-1,5
13:51:31:354018,-3,-10,-25,-33,-6,-2,-2,0
13:51:31:361527,16,-3,-15,-16,1,12,0,1
13:51:31:369772,16,-3,-15,-16,1,12,0,1
13:51:31:370499,-10,-1,-8,2,0,-9,0,-2
13:51:31:376502,-11,-11,1,16,6,-8,-1,-3
13:51:31:392236,-11,-11,1,16,6,-8,-1,-3
13:51:31:392995,1,-1,-2,-17,-11,-7,-3,-2
13:51:31:398981,-15,-4,-4,-12,-17,-6,-3,-7
13:51:31:406553,-15,-4,-4,-12,-17,-6,-3,-7
13:51:31:414035,-8,2,26,21,-1,-1,-1,-1
13:51:31:421629,-3,3,2,2,10,1,0,4
13:51:31:429661,-3,3,2,2,10,1,0,4
13:51:31:430472,6,-1,-2,-15,3,4,-4,-3
13:51:31:436636,-4,-15,-15,9,6,1,0,-2
13:51:31:452295,-4,-15,-15,9,6,1,0,-2
13:51:31:453006,-2,2,11,-15,-6,-1,-3,-3
13:51:31:458980,6,12,4,6,-11,-20,-3,-6
13:51:31:466597,6,12,4,6,-11,-20,-3,-6
13:51:31:474026,-4,-8,-14,-4,4,-9,-4,-1
13:51:31:481526,-10,1,12,0,-7,-28,-7,-3
13:51:31:489671,-10,1,12,0,-7,-28,-7,-3
13:51:31:490512,1,1,-18,0,0,-19,-7,1
13:51:31:496497,8,12,0,-1,-8,5,-15,1
13:51:31:512218,8,12,0,-1,-8,5,-15,1
13:51:31:512928,1,3,-4,-9,-6,15,-2,-2
13:51:31:519074,1,2,11,6,-4,2,3,1
13:51:31:526560,1,2,11,6,-4,2,3,1
13:51:31:534011,2,-4,2,-8,-4,3,1,0
13:51:31:541533,22,5,-4,2,9,10,4,2
13:51:31:549737,22,5,-4,2,9,10,4,2
13:51:31:550497,-11,-9,12,13,-1,7,-2,-8
13:51:31:556443,-9,-6,-2,-14,-3,9,1,-5
13:51:31:572228,-9,-6,-2,-14,-3,9,1,-5
13:51:31:572964,5,4,-2,7,13,7,0,2
13:51:31:579003,8,5,3,-3,-6,-2,-5,2
13:51:31:587229,8,5,3,-3,-6,-2,-5,2
13:51:31:588015,-11,-13,4,20,-4,8,-1,-4
13:51:31:601531,-14,-5,-13,0,4,8,2,-3
13:51:31:609692,-14,-5,-13,0,4,8,2,-3
13:51:31:610520,-14,-2,-6,6,-6,-12,4,-4
13:51:31:616514,6,4,-6,-16,1,-9,-4,0
13:51:31:632218,6,4,-6,-16,1,-9,-4,0
13:51:31:632949,-2,-7,-11,-9,4,2,1,5
13:51:31:639063,-1,-3,5,14,-2,-10,0,-4
13:51:31:646508,-1,-3,5,14,-2,-10,0,-4
13:51:31:654068,5,-2,-23,-7,-6,-9,2,-2
13:51:31:661448,-5,-11,-8,-2,0,6,4,4
13:51:31:669776,-5,-11,-8,-2,0,6,4,4
13:51:31:670505,19,10,3,3,12,17,3,2
13:51:31:676528,-9,-3,7,-1,14,11,4,-2
13:51:31:692220,-9,-3,7,-1,14,11,4,-2
13:51:31:692972,6,6,-1,-16,-17,-10,-5,0
13:51:31:699003,12,-4,-10,8,-8,1,-6,-1
13:51:31:707241,12,-4,-10,8,-8,1,-6,-1
13:51:31:707997,3,15,17,-16,2,0,6,0
13:51:31:721664,-14,2,13,10,-2,-10,2,-1
13:51:31:729651,-14,2,13,10,-2,-10,2,-1
13:51:31:730511,11,3,14,9,-6,-3,-10,1
13:51:31:736555,18,-1,-4,-9,0,-4,0,2
13:51:31:752263,18,-1,-4,-9,0,-4,0,2
13:51:31:752985,-10,-7,0,-10,-7,-13,3,-1
13:51:31:759030,-3,-3,-17,-14,-4,-6,-2,-1
13:51:31:767250,-3,-3,-17,-14,-4,-6,-2,-1
13:51:31:767971,-13,0,0,7,8,4,4,-1
13:51:31:781558,-1,5,11,5,24,1,3,-2
13:51:31:789747,-1,5,11,5,24,1,3,-2
13:51:31:790535,-27,-9,8,-8,-7,-4,-6,-6
13:51:31:796462,7,-2,2,8,1,3,-2,-2
13:51:31:812222,7,-2,2,8,1,3,-2,-2
13:51:31:812947,10,-6,-20,-2,0,4,4,1
13:51:31:819119,7,2,-6,-5,-1,2,-7,-1
13:51:31:827216,7,2,-6,-5,-1,2,-7,-1
13:51:31:828021,2,-1,-3,15,6,9,2,-1
13:51:31:841569,-6,-3,3,4,-11,-2,-6,-2
13:51:31:849727,-6,-3,3,4,-11,-2,-6,-2
13:51:31:850525,2,-4,-12,-2,6,-1,-1,6
13:51:31:856566,-16,-11,-26,-13,-14,-7,-2,-2
13:51:31:872291,-16,-11,-26,-13,-14,-7,-2,-2
13:51:31:872967,6,-6,-4,25,10,-2,-1,-3
13:51:31:879029,-4,-2,-4,-6,-8,-3,-3,-5
13:51:31:887269,-4,-2,-4,-6,-8,-3,-3,-5
13:51:31:887965,-8,-2,1,-10,0,0,-1,-4
13:51:31:901581,-2,-5,2,-2,-6,-1,-2,2
13:51:31:909685,-2,-5,2,-2,-6,-1,-2,2
13:51:31:910503,10,6,9,-10,-9,-11,-7,2
13:51:31:916629,8,15,12,-3,13,14,4,3
13:51:31:932246,8,15,12,-3,13,14,4,3
13:51:31:933023,13,6,-2,-28,-10,-11,-2,-3
13:51:31:939153,1,2,0,3,-2,-9,4,2
13:51:31:947201,1,2,0,3,-2,-9,4,2
13:51:31:947955,0,-5,-15,-8,-4,-7,0,-5
13:51:31:961501,-9,-1,9,5,-3,3,5,-4
13:51:31:969783,-9,-1,9,5,-3,3,5,-4
13:51:31:970557,-6,-3,16,0,-2,3,-5,-2
13:51:31:984039,0,1,-10,3,-4,2,-4,0
13:51:31:991998,0,1,-10,3,-4,2,-4,0
13:51:31:999710,-11,-2,3,11,5,-1,1,3
13:51:32:505,3,0,-5,2,-5,0,3,-2
13:51:32:6612,3,0,-5,2,-5,0,3,-2
13:51:32:14027,-18,3,1,6,4,-4,-4,-6
13:51:32:21648,-21,-9,1,4,8,9,1,-4
13:51:32:29656,-21,-9,1,4,8,9,1,-4
13:51:32:30508,-3,3,2,0,1,9,-2,7
13:51:32:44022,-1,2,3,9,-5,-11,-2,-2
13:51:32:52247,-1,2,3,9,-5,-11,-2,-2
13:51:32:52985,21,-3,-10,5,2,-30,2,0
13:51:32:59030,-6,-6,2,-5,-1,-9,3,1
13:51:32:66606,-6,-6,2,-5,-1,-9,3,1
13:51:32:74051,0,0,12,-4,-9,4,1,-1
13:51:32:81531,-6,-12,-15,7,2,2,-6,-5
13:51:32:89738,-6,-12,-15,7,2,2,-6,-5
13:51:32:90523,5,12,-10,-22,-5,7,-2,1
13:51:32:104083,0,-5,-4,-22,-3,1,0,-3
13:51:32:112202,0,-5,-4,-22,-3,1,0,-3
13:51:32:112975,-5,-4,5,4,-6,6,0,-3
13:51:32:119026,1,3,-10,-19,4,8,6,0
13:51:32:126541,1,3,-10,-19,4,8,6,0
13:51:32:134038,-7,2,-4,-5,-13,-13,-1,-9
13:51:32:141466,-11,-13,4,8,16,9,-3,4
13:51:32:149797,-11,-13,4,8,16,9,-3,4
13:51:32:150512,5,-7,4,9,-1,-2,-3,5
13:51:32:164008,10,-1,-3,1,-1,-10,5,-1
13:51:32:172296,10,-1,-3,1,-1,-10,5,-1
13:51:32:172986,-2,-3,-6,15,5,23,17,0
13:51:32:178929,-3,0,-5,-7,-11,-3,-6,-3
13:51:32:186592,-3,0,-5,-7,-11,-3,-6,-3
13:51:32:194010,1,5,-4,-8,-2,-4,-6,1
13:51:32:201548,-2,2,5,8,6,6,1,0
13:51:32:209732,-2,2,5,8,6,6,1,0
13:51:32:210507,-5,-4,11,0,1,-6,-3,-2
13:51:32:223934,10,12,0,-13,-3,-8,2,3
13:51:32:232247,10,12,0,-13,-3,-8,2,3
13:51:32:233002,-5,-1,-2,-8,-3,-3,-1,0
13:51:32:239100,4,1,-2,5,0,-5,-5,-1
13:51:32:246551,4,1,-2,5,0,-5,-5,-1
13:51:32:254110,-4,-7,-6,-3,1,4,-1,-4
13:51:32:261533,11,9,2,-32,-12,4,1,0
13:51:32:269772,11,9,2,-32,-12,4,1,0
13:51:32:270516,8,10,2,-14,-5,-1,-4,-2
13:51:32:284033,8,1,10,10,6,7,-1,-2
13:51:32:292262,8,1,10,10,6,7,-1,-2
13:51:32:293044,0,-2,-1,7,3,2,-8,1
13:51:32:299139,-10,-6,-3,-4,-13,-3,-2,-2
13:51:32:306613,-10,-6,-3,-4,-13,-3,-2,-2
13:51:32:313987,-9,-1,-11,-7,-6,-3,-1,-2
13:51:32:321594,2,-6,9,-1,5,-5,-3,-2
13:51:32:329667,2,-6,9,-1,5,-5,-3,-2
13:51:32:330485,6,1,4,10,-3,0,-5,2
13:51:32:344007,-6,12,-1,28,15,3,3,0
13:51:32:352296,-6,12,-1,28,15,3,3,0
13:51:32:352996,-2,-10,7,19,3,-2,-5,-2
13:51:32:359021,-3,-11,3,9,-4,-3,-4,-5
13:51:32:366658,-3,-11,3,9,-4,-3,-4,-5
13:51:32:374001,-7,-4,-5,-15,-5,-2,3,-2
13:51:32:381538,-15,-2,-1,-13,-1,-4,-2,1
13:51:32:389721,-15,-2,-1,-13,-1,-4,-2,1
13:51:32:390527,-3,-1,3,-3,-7,-11,5,-3
13:51:32:404142,4,-1,-2,-10,0,-1,-3,1
13:51:32:412195,4,-1,-2,-10,0,-1,-3,1
13:51:32:412957,6,6,-8,23,14,-6,-4,3
13:51:32:419099,-26,-14,-10,-4,-2,-13,-2,-2
13:51:32:426560,-26,-14,-10,-4,-2,-13,-2,-2
13:51:32:434019,10,8,-4,-1,5,10,2,-1
13:51:32:441494,-3,-2,-12,-11,-11,-1,-1,-1
13:51:32:449788,-3,-2,-12,-11,-11,-1,-1,-1
13:51:32:450513,1,-3,13,-8,-3,-2,1,0
13:51:32:463972,3,0,-11,15,0,-6,2,2
13:51:32:472264,3,0,-11,15,0,-6,2,2
13:51:32:473007,-10,-5,19,12,4,5,6,-3
13:51:32:478958,-2,-3,-6,-6,-12,-4,-5,-6
13:51:32:486630,-2,-3,-6,-6,-12,-4,-5,-6
13:51:32:493977,-6,-19,-17,-22,-1,0,-1,2
13:51:32:501528,-3,-3,-11,-23,-1,-1,-4,1
13:51:32:509722,-3,-3,-11,-23,-1,-1,-4,1
13:51:32:510507,-1,2,-20,-29,-17,-4,-13,3
13:51:32:523983,19,0,-10,1,0,3,-5,-5
13:51:32:532264,19,0,-10,1,0,3,-5,-5
13:51:32:532996,-8,2,11,1,-11,-27,4,-6
13:51:32:539030,14,11,20,4,-5,1,-5,6
13:51:32:546541,14,11,20,4,-5,1,-5,6
13:51:32:554051,-1,-10,-12,-10,-5,-3,-21,-2
13:51:32:561549,4,-2,-7,11,4,-3,-13,1
13:51:32:569744,4,-2,-7,11,4,-3,-13,1
13:51:32:570546,-3,4,-4,4,17,6,0,-6
13:51:32:584040,12,-6,-1,-1,4,-1,10,-5
13:51:32:592233,12,-6,-1,-1,4,-1,10,-5
13:51:32:592992,8,11,0,15,8,1,14,-3
13:51:32:599023,-8,3,6,-1,-9,-2,4,0
13:51:32:606537,-8,3,6,-1,-9,-2,4,0
13:51:32:614019,7,0,6,13,-4,9,5,2
13:51:32:621606,-26,-19,8,0,-10,-18,0,-2
13:51:32:629699,-26,-19,8,0,-10,-18,0,-2
13:51:32:630486,-6,-3,-5,-18,-2,-2,4,0
13:51:32:643972,-8,1,4,-3,-2,3,-1,0
13:51:32:652183,-8,1,4,-3,-2,3,-1,0
13:51:32:652971,8,-2,0,15,4,-3,-2,0
13:51:32:659045,-1,4,-1,-6,1,5,1,-5
13:51:32:666584,-1,4,-1,-6,1,5,1,-5
13:51:32:673944,-6,-8,-9,-11,-16,-2,-1,-1
13:51:32:681525,2,-4,-10,-15,3,-4,-4,1
13:51:32:689763,2,-4,-10,-15,3,-4,-4,1
13:51:32:690497,13,11,13,14,18,3,3,0
13:51:32:704089,5,8,0,6,-4,1,-6,-1
13:51:32:712178,5,8,0,6,-4,1,-6,-1
13:51:32:712927,-15,-10,-12,-12,-17,-16,-9,2
13:51:32:719015,5,6,6,-7,4,7,3,1
13:51:32:726567,5,6,6,-7,4,7,3,1
13:51:32:734030,-3,-3,-8,2,8,5,1,-6
13:51:32:741492,-5,-4,0,-1,2,-5,2,-2
13:51:32:749771,-5,-4,0,-1,2,-5,2,-2
13:51:32:750540,0,-4,0,-6,3,-2,-2,4
13:51:32:763962,11,-2,-13,4,-2,-1,-6,-2
13:51:32:772258,11,-2,-13,4,-2,-1,-6,-2
13:51:32:773023,-3,-2,3,-8,-1,16,4,-4
13:51:32:778953,-9,-7,-2,-7,-4,-5,1,-2
13:51:32:786662,-9,-7,-2,-7,-4,-5,1,-2
13:51:32:793968,-13,-4,-23,-8,-11,-3,-3,0
13:51:32:801527,-12,-15,-2,-2,13,3,2,-1
13:51:32:809737,-12,-15,-2,-2,13,3,2,-1
13:51:32:810540,-8,-8,10,14,12,-6,1,2
13:51:32:823986,-3,0,2,13,-8,-10,-5,-1
13:51:32:832225,-3,0,2,13,-8,-10,-5,-1
13:51:32:832971,4,3,9,-2,-7,-10,-4,-3
13:51:32:839063,-4,3,6,-2,-2,0,-3,-2
13:51:32:846543,-4,3,6,-2,-2,0,-3,-2
13:51:32:854083,15,2,1,2,-3,10,-2,1
13:51:32:861527,-14,-3,-3,-4,-9,9,1,-5
13:51:32:869745,-14,-3,-3,-4,-9,9,1,-5
13:51:32:870539,-10,0,-5,-6,-10,-9,-6,-9
13:51:32:884075,10,2,4,15,1,-3,-1,-6
13:51:32:892248,10,2,4,15,1,-3,-1,-6
13:51:32:893071,-15,-8,-7,-8,-1,-9,-8,-4
13:51:32:899037,2,13,10,-7,9,11,8,19
13:51:32:906585,2,13,10,-7,9,11,8,19
13:51:32:914018,13,16,7,-5,-8,4,0,3
13:51:32:921611,10,-5,-12,-26,-10,-14,-3,-2
13:51:32:929049,10,-5,-12,-26,-10,-14,-3,-2
13:51:32:936555,-1,-11,-11,13,21,7,1,5
13:51:32:943999,-13,-3,12,3,-2,6,-2,-5
13:51:32:952196,-13,-3,12,3,-2,6,-2,-5
13:51:32:952944,-4,1,-11,-7,0,-4,0,0
13:51:32:967222,0,-6,-8,-1,7,8,-3,0
13:51:32:967983,0,-6,-8,-1,7,8,-3,0
13:51:32:974055,-11,-11,-12,18,-2,2,3,-1
13:51:32:981475,14,0,-5,2,-3,-5,2,2
13:51:32:989144,14,0,-5,2,-3,-5,2,2
13:51:32:996450,-4,1,19,0,8,-8,1,-4
13:51:33:4002,5,-2,-15,24,5,4,1,-2
13:51:33:12192,5,-2,-15,24,5,4,1,-2
13:51:33:12988,1,2,-4,-4,-16,-9,-4,-1
13:51:33:27224,-2,12,0,0,-3,-3,-3,4
13:51:33:28018,-2,12,0,0,-3,-3,-3,4
13:51:33:33974,0,-1,5,-14,3,-5,-6,0
13:51:33:41514,-6,-3,2,-1,0,-4,-5,-4
13:51:33:49056,-6,-3,2,-1,0,-4,-5,-4
13:51:33:56579,2,1,-1,-17,-4,10,4,-7
13:51:33:64014,11,11,18,4,3,5,3,2
13:51:33:72285,11,11,18,4,3,5,3,2
13:51:33:73031,-1,-2,-1,-21,-5,-9,-8,-2
13:51:33:87278,-9,-5,-16,-1,5,-6,3,0
13:51:33:87991,-9,-5,-16,-1,5,-6,3,0
13:51:33:93978,9,7,5,7,-1,0,5,-4
13:51:33:109715,-6,-1,10,7,2,-9,1,0
13:51:33:110540,-6,-1,10,7,2,-9,1,0
13:51:33:116585,-14,-11,1,6,3,7,-4,5
13:51:33:123989,4,-1,10,2,5,4,-2,-2
13:51:33:132283,4,-1,10,2,5,4,-2,-2
13:51:33:133007,9,9,-1,5,-1,6,2,4
13:51:33:147185,11,3,7,-4,-2,-4,-9,-2
13:51:33:147992,11,3,7,-4,-2,-4,-9,-2
13:51:33:154044,8,5,-8,2,-1,-7,-3,1
13:51:33:161437,10,-1,-8,-4,-3,-11,2,-4
13:51:33:169161,10,-1,-8,-4,-3,-11,2,-4
13:51:33:176546,-5,-7,16,11,2,5,-1,-4
13:51:33:184063,5,-2,-1,-8,-10,-1,-15,-10
13:51:33:192244,5,-2,-1,-8,-10,-1,-15,-10
13:51:33:193021,-4,-9,-23,3,7,-9,2,-1
13:51:33:207253,-1,0,-12,8,-1,1,8,6
13:51:33:208021,-1,0,-12,8,-1,1,8,6
13:51:33:214002,-7,0,-2,-7,-10,-2,-7,2
13:51:33:221645,-2,4,10,20,-1,-2,6,2
13:51:33:229071,-2,4,10,20,-1,-2,6,2
13:51:33:236604,-17,-4,-7,-3,-3,3,-3,-3
13:51:33:244022,-13,-2,-10,-32,-7,-9,0,-2
13:51:33:252279,-13,-2,-10,-32,-7,-9,0,-2
13:51:33:252956,3,0,11,7,5,6,3,-1
13:51:33:267219,0,1,-12,52,13,9,-1,0
13:51:33:267945,0,1,-12,52,13,9,-1,0
13:51:33:274030,-2,-7,2,-4,-6,-10,-4,-1
13:51:33:281550,-5,-4,16,-13,-8,-4,-5,-3
13:51:33:289103,-5,-4,16,-13,-8,-4,-5,-3
13:51:33:296452,13,10,4,3,0,5,6,0
13:51:33:304154,-14,-14,-3,-21,-2,0,-4,0
13:51:33:312166,-14,-14,-3,-21,-2,0,-4,0
13:51:33:312948,-4,-3,1,-7,-11,-1,-3,-2
13:51:33:327200,-5,-10,5,19,9,2,1,-6
13:51:33:327969,-5,-10,5,19,9,2,1,-6
13:51:33:334029,1,6,13,48,8,-12,5,-3
13:51:33:341466,3,-6,-38,-32,0,-3,2,0
13:51:33:349102,3,-6,-38,-32,0,-3,2,0
13:51:33:356515,5,10,-15,-35,0,6,-3,0
13:51:33:363962,20,10,0,-5,-14,-5,-4,-5
13:51:33:372323,20,10,0,-5,-14,-5,-4,-5
13:51:33:373029,-4,-5,-18,-11,-9,-1,5,0
13:51:33:387288,-12,-4,7,1,2,-3,-5,0
13:51:33:387963,-12,-4,7,1,2,-3,-5,0
13:51:33:393975,-2,-1,10,23,19,1,-3,4
13:51:33:401517,0,-3,7,10,4,1,8,3
13:51:33:409099,0,-3,7,10,4,1,8,3
13:51:33:416573,-1,-5,5,-6,-6,1,2,-3
13:51:33:423973,10,10,-1,-4,-6,-6,0,-1
13:51:33:432282,10,10,-1,-4,-6,-6,0,-1
13:51:33:433009,-4,-4,4,-6,-6,-4,0,-1
13:51:33:447231,-13,4,1,-17,-6,-3,-4,-2
13:51:33:448017,-13,4,1,-17,-6,-3,-4,-2
13:51:33:454061,6,-2,6,-11,4,6,1,0
13:51:33:461419,5,0,0,3,-3,5,-5,-4
13:51:33:469132,5,0,0,3,-3,5,-5,-4
13:51:33:476561,2,-3,3,5,1,-10,-5,-9
13:51:33:484052,-4,-3,-1,9,3,7,10,-5
13:51:33:492203,-4,-3,-1,9,3,7,10,-5
13:51:33:492928,3,0,-9,-5,3,4,2,-1
13:51:33:507184,-11,-23,-9,-3,-1,-10,-4,-4
13:51:33:508010,-11,-23,-9,-3,-1,-10,-4,-4
13:51:33:513975,-2,4,-5,12,-1,-9,-4,3
13:51:33:521639,-3,-5,-14,-19,2,0,-3,-2
13:51:33:528975,-3,-5,-14,-19,2,0,-3,-2
13:51:33:536642,-7,-6,5,2,-1,4,-1,-4
13:51:33:544041,11,9,8,0,-3,4,3,10
13:51:33:552236,11,9,8,0,-3,4,3,10
13:51:33:552968,-16,-2,-7,-13,-9,-9,-5,-1
13:51:33:567297,-11,7,14,6,-14,5,-17,2
13:51:33:567983,-11,7,14,6,-14,5,-17,2
13:51:33:574011,8,-4,-2,6,7,5,12,2
13:51:33:581569,-4,-4,-11,-8,2,-8,10,-8
13:51:33:589146,-4,-4,-11,-8,2,-8,10,-8
13:51:33:596473,4,3,10,-3,-8,-4,14,-9
13:51:33:604029,-3,-5,-2,3,6,-1,3,-1
13:51:33:612211,-3,-5,-2,3,6,-1,3,-1
13:51:33:612953,0,3,-20,-22,-6,3,-9,1
13:51:33:627188,15,9,-4,-13,-4,11,5,11
13:51:33:627988,15,9,-4,-13,-4,11,5,11
13:51:33:634096,-3,-2,2,-9,-6,-11,-10,-3
13:51:33:641487,-5,-1,-3,3,16,9,0,-3
13:51:33:649201,-5,-1,-3,3,16,9,0,-3
13:51:33:656497,-14,-3,-4,-12,-7,-1,1,5
13:51:33:663961,-5,2,-2,9,-2,-9,-5,-6
13:51:33:672338,-5,2,-2,9,-2,-9,-5,-6
13:51:33:673040,6,-5,-14,15,7,-3,-4,-5
13:51:33:687264,-5,-6,2,12,10,2,6,1
13:51:33:687969,-5,-6,2,12,10,2,6,1
13:51:33:693943,17,10,8,11,-3,0,-3,3
13:51:33:701483,4,1,-5,-9,-16,-21,-9,0
13:51:33:709066,4,1,-5,-9,-16,-21,-9,0
13:51:33:716557,-1,0,1,10,17,14,-4,-1
13:51:33:724002,-9,4,5,-22,-3,1,-5,0
13:51:33:732251,-9,4,5,-22,-3,1,-5,0
13:51:33:733013,-6,-2,17,-9,-7,-10,-7,1
13:51:33:747193,-14,-8,0,7,4,2,5,0
13:51:33:748010,-14,-8,0,7,4,2,5,0
13:51:33:754074,16,2,3,12,-2,8,0,-6
13:51:33:761441,-8,4,-4,0,-7,-12,-17,-9
13:51:33:769140,-8,4,-4,0,-7,-12,-17,-9
13:51:33:776552,-8,-5,-5,14,10,-2,0,2
13:51:33:784050,7,1,17,-1,-5,2,2,3
13:51:33:792215,7,1,17,-1,-5,2,2,3
13:51:33:792982,-14,-3,11,10,-5,0,-4,-1
13:51:33:807222,-5,-5,-10,9,-1,1,5,1
13:51:33:808008,-5,-5,-10,9,-1,1,5,1
13:51:33:813969,6,6,-10,-2,-11,0,-1,-2
13:51:33:821654,-4,-5,7,5,1,2,0,-4
13:51:33:829032,-4,-5,7,5,1,2,0,-4
13:51:33:836622,-9,-12,-15,-5,-6,0,1,-1
13:51:33:843976,7,6,-4,-11,-5,-2,1,2
13:51:33:852247,7,6,-4,-11,-5,-2,1,2
13:51:33:852969,-1,-13,-40,-11,7,-9,-9,2
13:51:33:867189,-11,-17,-20,-17,-1,-9,-17,-11
13:51:33:867999,-11,-17,-20,-17,-1,-9,-17,-11
13:51:33:874063,-5,9,0,-1,3,11,5,0
13:51:33:889675,-7,0,4,10,1,2,9,1
13:51:33:890549,-7,0,4,10,1,2,9,1
13:51:33:896509,-1,-14,-10,-26,-7,-14,2,-1
13:51:33:904055,0,-7,5,-20,-10,-4,-8,1
13:51:33:911578,0,-7,5,-20,-10,-4,-8,1
13:51:33:919069,2,1,19,-3,2,-1,4,1
13:51:33:927195,7,9,4,16,0,6,3,-1
13:51:33:927986,7,9,4,16,0,6,3,-1
13:51:33:934104,-1,5,-7,-16,-8,-12,-6,2
13:51:33:949770,-3,-11,-1,-4,5,7,8,-3
13:51:33:950548,-3,-11,-1,-4,5,7,8,-3
13:51:33:956506,7,-10,19,18,3,0,2,-4
13:51:33:963981,-3,1,-1,-1,1,8,2,-3
13:51:33:971609,-3,1,-1,-1,1,8,2,-3
13:51:33:978992,-3,-1,7,-7,-2,-4,3,-5
13:51:33:987218,10,-6,2,10,-1,2,-1,0
13:51:33:987990,10,-6,2,10,-1,2,-1,0
13:51:33:993984,5,9,0,6,-3,10,3,3
13:51:34:9660,0,2,-21,12,6,-2,-5,3
13:51:34:10584,0,2,-21,12,6,-2,-5,3
13:51:34:24710,5,-1,2,-15,-8,-3,-10,-4
13:51:34:25494,1,1,13,7,4,-5,-4,1
13:51:34:31525,1,1,13,7,4,-5,-4,1
13:51:34:39044,-3,3,10,8,4,0,-4,3
13:51:34:47169,1,11,6,-5,-6,-6,2,5
13:51:34:47976,1,11,6,-5,-6,-6,2,5
13:51:34:54057,-8,5,7,6,12,44,35,6
13:51:34:69762,7,8,0,-16,-14,-10,-4,0
13:51:34:70553,7,8,0,-16,-14,-10,-4,0
13:51:34:76432,-2,0,2,-8,-5,-19,-6,-9
13:51:34:84075,-9,-10,-16,12,6,8,4,-8
13:51:34:91571,-9,-10,-16,12,6,8,4,-8
13:51:34:99024,-3,-2,-8,15,-2,-1,-7,2
13:51:34:107213,-3,-3,2,2,-10,-20,-11,-12
13:51:34:108041,-3,-3,2,2,-10,-20,-11,-12
13:51:34:113973,-1,5,-7,5,4,-16,-4,-6
13:51:34:129671,8,9,4,-14,-8,5,0,5
13:51:34:130564,8,9,4,-14,-8,5,0,5
13:51:34:136549,0,-5,-11,-16,-8,-1,-8,1
13:51:34:143971,-7,-2,4,6,11,-2,-1,7
13:51:34:151561,-7,-2,4,6,11,-2,-1,7
13:51:34:158984,-11,4,-6,2,6,3,-3,-6
13:51:34:167255,-4,3,4,-9,-12,0,-1,-7
13:51:34:168027,-4,3,4,-9,-12,0,-1,-7
13:51:34:174033,0,-7,1,6,3,2,1,5
13:51:34:190121,7,-11,5,-2,9,13,2,10
13:51:34:190910,7,-11,5,-2,9,13,2,10
13:51:34:196441,2,-2,-4,-12,-2,-5,-6,-2
13:51:34:212158,-2,-8,-16,-12,-12,-14,-4,1
13:51:34:212987,-2,-8,-16,-12,-12,-14,-4,1
13:51:34:219026,4,0,-7,17,7,-1,-3,-5
13:51:34:227239,9,8,13,16,8,-5,-7,-4
13:51:34:227998,9,8,13,16,8,-5,-7,-4
13:51:34:234078,2,3,12,3,0,-2,2,-2
13:51:34:249782,-11,-14,-17,-20,-3,2,1,-1
13:51:34:250578,-11,-14,-17,-20,-3,2,1,-1
13:51:34:256531,7,1,-4,-12,-14,-9,-8,3
13:51:34:263977,6,5,0,4,0,5,0,9
13:51:34:271673,6,5,0,4,0,5,0,9
13:51:34:278998,-14,-5,5,1,-11,-4,2,-7
13:51:34:287280,-3,2,0,0,8,13,7,-8
13:51:34:287998,-3,2,0,0,8,13,7,-8
13:51:34:294018,-7,-2,-9,0,9,0,0,-5
13:51:34:309738,13,11,6,5,4,12,3,2
13:51:34:310567,13,11,6,5,4,12,3,2
13:51:34:316667,-1,-8,-1,-12,2,-2,3,-3
13:51:34:324014,-6,1,0,3,-1,-10,-4,-2
13:51:34:331566,-6,1,0,3,-1,-10,-4,-2
13:51:34:339073,2,-1,5,8,6,-3,-2,-2
13:51:34:347173,-5,-4,5,3,-3,-5,1,-1
13:51:34:347982,-5,-4,5,3,-3,-5,1,-1
13:51:34:354059,11,5,5,0,4,5,3,2
13:51:34:369771,-6,-11,-10,8,-4,5,4,-5
13:51:34:370609,-6,-11,-10,8,-4,5,4,-5
13:51:34:376558,-22,-4,-12,-9,-6,3,-1,-3
13:51:34:384053,3,-4,4,-1,0,-11,-5,-4
13:51:34:391600,3,-4,4,-1,0,-11,-5,-4
13:51:34:399048,10,0,0,1,0,9,0,9
13:51:34:407183,-9,-3,-10,-20,-7,-14,-11,-3
13:51:34:408003,-9,-3,-10,-20,-7,-14,-11,-3
13:51:34:413988,-2,-9,-2,10,2,-24,-12,-4
13:51:34:429676,5,-1,-3,7,3,14,20,2
13:51:34:430515,5,-1,-3,7,3,14,20,2
13:51:34:444687,-7,3,-6,-8,8,4,-2,3
13:51:34:445558,9,1,8,-1,-1,-9,-6,-1
13:51:34:451618,9,1,8,-1,-1,-9,-6,-1
13:51:34:467863,7,11,-3,-1,-5,5,4,0
13:51:34:468580,-14,-4,-10,5,4,0,0,-6
13:51:34:469436,-14,-4,-10,5,4,0,0,-6
13:51:34:474036,-9,-14,5,14,-7,2,-7,-2
13:51:34:489753,0,6,-3,-9,3,3,2,-3
13:51:34:490539,0,6,-3,-9,3,3,2,-3
13:51:34:496544,7,1,-22,-15,-15,-9,-4,-6
13:51:34:504086,5,12,0,-1,1,3,3,5
13:51:34:511531,5,12,0,-1,1,3,3,5
13:51:34:519095,-3,-4,8,-12,-11,-6,6,5
13:51:34:527180,-1,3,-5,-7,-8,-10,-10,-2
13:51:34:527962,-1,3,-5,-7,-8,-10,-10,-2
13:51:34:534035,0,-2,13,31,9,-2,-4,-2
13:51:34:549764,-13,-7,-5,2,-4,-12,-3,-4
13:51:34:550538,-13,-7,-5,2,-4,-12,-3,-4
13:51:34:556597,3,1,5,-4,-2,1,-14,2
13:51:34:563987,1,-15,1,-12,-21,-15,4,-5
13:51:34:571652,1,-15,1,-12,-21,-15,4,-5
13:51:34:578939,6,-2,3,-8,16,7,16,-4
13:51:34:587261,-4,4,6,0,12,9,1,-3
13:51:34:587977,-4,4,6,0,12,9,1,-3
13:51:34:593942,-8,2,19,4,-5,10,14,5
13:51:34:609673,-6,4,15,-9,-3,15,2,8
13:51:34:610530,-6,4,15,-9,-3,15,2,8
13:51:34:616552,1,3,-9,7,-2,-6,4,-2
13:51:34:623970,8,-6,-5,8,-3,-4,-10,-5
13:51:34:631567,8,-6,-5,8,-3,-4,-10,-5
13:51:34:639041,-3,-8,-5,-5,-4,-3,-9,-4
13:51:34:647152,14,-2,8,21,6,3,-3,3
13:51:34:647956,14,-2,8,21,6,3,-3,3
13:51:34:654094,1,4,2,5,-5,-3,-10,-1
13:51:34:669744,1,4,2,5,-5,-3,-10,-1
13:51:34:670577,7,-3,-22,-34,-8,-1,0,0
13:51:34:676485,7,9,4,-2,3,-2,3,-2
13:51:34:692197,7,9,4,-2,3,-2,3,-2
13:51:34:693004,-9,1,0,8,-3,-6,-2,1
13:51:34:699005,-1,-6,-17,-7,4,0,-6,1
13:51:34:707256,-1,-6,-17,-7,4,0,-6,1
13:51:34:708036,-6,-2,2,8,2,2,-4,1
13:51:34:721641,1,3,3,-4,-6,1,7,4
13:51:34:729665,1,3,3,-4,-6,1,7,4
13:51:34:730522,12,-1,-5,-6,3,6,5,3
13:51:34:744046,-3,-2,-6,-10,-5,-13,-3,-4
13:51:34:752298,-3,-2,-6,-10,-5,-13,-3,-4
13:51:34:752991,-10,2,-3,-2,-6,-2,16,2
13:51:34:758995,-9,-8,-4,-6,-9,-2,2,-4
13:51:34:767236,-9,-8,-4,-6,-9,-2,2,-4
13:51:34:767996,-17,-3,0,12,10,-6,-7,-9
13:51:34:773988,-4,0,-5,1,11,-5,-9,-3
13:51:34:789679,-4,0,-5,1,11,-5,-9,-3
13:51:34:790536,5,2,16,-2,6,1,-5,-3
13:51:34:796432,0,1,-3,-7,-8,-5,-2,-1
13:51:34:812136,0,1,-3,-7,-8,-5,-2,-1
13:51:34:812947,-1,-3,-10,0,7,6,1,4
13:51:34:819099,5,0,-7,-3,0,7,2,2
13:51:34:827198,5,0,-7,-3,0,7,2,2
13:51:34:827968,5,3,10,27,8,-2,-2,-2
13:51:34:841590,9,-3,1,-20,-6,-4,1,1
13:51:34:849753,9,-3,1,-20,-6,-4,1,1
13:51:34:850504,3,-3,11,-7,-23,-4,0,-3
13:51:34:856573,5,4,13,-11,-12,-4,-2,-1
13:51:34:872330,5,4,13,-11,-12,-4,-2,-1
13:51:34:873042,-1,3,8,-13,-1,8,-6,-1
13:51:34:879002,0,2,7,5,-19,-21,-10,-2
13:51:34:887251,0,2,7,5,-19,-21,-10,-2
13:51:34:887998,-3,10,-6,-2,6,-10,2,1
13:51:34:901498,-7,-3,-6,-17,-10,1,-1,-2
13:51:34:909661,-7,-3,-6,-17,-10,1,-1,-2
13:51:34:910463,-8,-4,-7,21,14,1,4,-1
13:51:34:916668,-4,0,-4,3,10,3,1,-1
13:51:34:932254,-4,0,-4,3,10,3,1,-1
13:51:34:932996,-2,-10,-5,-18,-9,2,-4,-10
13:51:34:939071,-2,-11,-3,1,0,-2,0,-1
13:51:34:947218,-2,-11,-3,1,0,-2,0,-1
13:51:34:947971,-1,11,-1,13,-1,-4,-4,4
13:51:34:961474,-14,-9,-17,10,6,8,5,-3
13:51:34:977888,-14,-9,-17,10,6,8,5,-3
13:51:34:978646,16,3,4,-3,3,2,-6,1
13:51:34:979525,3,8,-5,-4,14,9,1,-2
13:51:35:413,3,8,-5,-4,14,9,1,-2
13:51:35:1109,-4,-6,-7,-12,-11,-10,-2,1
13:51:35:1908,-12,-18,-10,-3,0,-1,-5,-4
13:51:35:7205,-12,-18,-10,-3,0,-1,-5,-4
13:51:35:7961,-7,-4,16,-9,8,6,5,-1
13:51:35:22079,-7,-6,-4,-3,-6,-5,-2,0
13:51:35:29722,-7,-6,-4,-3,-6,-5,-2,0
13:51:35:30535,-2,-1,-8,11,-14,4,10,-6
13:51:35:36696,5,0,8,15,2,7,2,-1
13:51:35:52302,5,0,8,15,2,7,2,-1
13:51:35:53005,17,-6,-12,-13,10,-9,-5,-1
13:51:35:59002,0,4,-1,13,13,2,4,0
13:51:35:67239,0,4,-1,13,13,2,4,0
13:51:35:68016,-6,3,18,0,-13,-6,-4,4
13:51:35:81485,0,-4,3,7,6,0,-4,4
13:51:35:89664,0,-4,3,7,6,0,-4,4
13:51:35:90566,-1,-7,-5,14,-1,-7,-6,-3
13:51:35:96521,11,9,8,-9,0,8,3,-3
13:51:35:112211,11,9,8,-9,0,8,3,-3
13:51:35:113010,-8,-13,-2,-5,-6,-3,-4,-5
13:51:35:119055,-2,-2,-4,-28,1,-3,1,1
13:51:35:127188,-2,-2,-4,-28,1,-3,1,1
13:51:35:127941,9,13,2,-5,9,7,-3,4
13:51:35:141482,-20,-6,-14,-1,-11,-6,1,-3
13:51:35:149796,-20,-6,-14,-1,-11,-6,1,-3
13:51:35:150521,-13,3,-1,-5,-8,-3,-6,-4
13:51:35:156465,1,7,9,-1,12,2,-5,6
13:51:35:172255,1,7,9,-1,12,2,-5,6
13:51:35:173008,8,-14,-17,14,-6,0,-1,-1
13:51:35:178961,1,-3,-8,-5,-1,2,-1,-4
13:51:35:187276,1,-3,-8,-5,-1,2,-1,-4
13:51:35:187992,-12,-9,-10,-16,-1,3,6,1
13:51:35:201482,20,13,19,11,-6,-4,1,-1
13:51:35:209759,20,13,19,11,-6,-4,1,-1
13:51:35:210531,2,-5,3,-5,-4,-6,-7,14
13:51:35:216565,0,-4,-9,22,8,4,-6,7
13:51:35:232211,0,-4,-9,22,8,4,-6,7
13:51:35:232976,2,9,-7,-30,-13,-11,1,-4
13:51:35:239004,7,2,2,-10,4,-9,-7,-2
13:51:35:247212,7,2,2,-10,4,-9,-7,-2
13:51:35:248006,-3,3,-2,8,-5,4,3,-4
13:51:35:261435,-12,-1,-10,-6,-17,-6,-11,-11
13:51:35:269777,-12,-1,-10,-6,-17,-6,-11,-11
13:51:35:270530,-16,-7,0,-9,3,1,-1,-3
13:51:35:276490,-6,-8,4,11,-4,-1,6,-2
13:51:35:292215,-6,-8,4,11,-4,-1,6,-2
13:51:35:293012,4,-8,-16,2,1,-3,0,-1
13:51:35:299056,0,-10,4,8,-4,-5,-1,0
13:51:35:307237,0,-10,4,8,-4,-5,-1,0
13:51:35:308008,-4,-8,-19,-10,7,-11,-8,-8
13:51:35:330319,-7,6,1,-7,10,10,8,-4
13:51:35:331117,-7,6,1,-7,10,10,8,-4
13:51:35:331926,-7,6,7,0,-7,-10,-2,-6
13:51:35:336675,-2,3,-12,-8,-10,-7,-1,1
13:51:35:352181,-2,3,-12,-8,-10,-7,-1,1
13:51:35:352953,-1,-4,12,2,-7,-1,2,1
13:51:35:359001,-7,-4,16,-11,-3,7,1,0
13:51:35:367216,-7,-4,16,-11,-3,7,1,0
13:51:35:367944,6,3,10,-3,5,5,-2,0
13:51:35:381487,0,-6,-14,7,-1,0,-9,-1
13:51:35:389705,0,-6,-14,7,-1,0,-9,-1
13:51:35:390536,5,3,-7,-1,-1,-2,0,-10
13:51:35:396532,-5,-1,0,9,9,-4,2,0
13:51:35:412229,-5,-1,0,9,9,-4,2,0
13:51:35:412991,-3,-1,-3,1,-4,2,1,4
13:51:35:418962,4,5,-4,-18,-10,0,-1,-4
13:51:35:427178,4,5,-4,-18,-10,0,-1,-4
13:51:35:427947,4,-3,-5,-2,-5,-5,-1,4
13:51:35:441538,5,-9,-4,11,10,-1,-1,3
13:51:35:449725,5,-9,-4,11,10,-1,-1,3
13:51:35:450515,1,-7,-6,2,-5,10,5,-1
13:51:35:456508,0,-3,10,6,-11,-15,-6,2
13:51:35:472303,0,-3,10,6,-11,-15,-6,2
13:51:35:473011,-5,7,-2,-5,7,2,-2,2
13:51:35:478984,3,6,-16,-16,-9,4,-2,-3
13:51:35:487252,3,6,-16,-16,-9,4,-2,-3
13:51:35:487929,-14,-13,9,-5,-4,-3,-4,-1
13:51:35:501480,13,9,14,3,8,9,4,1
13:51:35:509747,13,9,14,3,8,9,4,1
13:51:35:510542,-1,0,-5,14,9,6,4,-2
13:51:35:516519,0,11,0,1,-14,-11,0,-2
13:51:35:532244,0,11,0,1,-14,-11,0,-2
13:51:35:532972,3,2,-11,1,-3,3,-3,-7
13:51:35:539079,7,-6,2,8,9,1,-1,3
13:51:35:547174,7,-6,2,8,9,1,-1,3
13:51:35:547996,5,-2,4,3,10,6,-5,1
13:51:35:561491,-9,-3,-12,-31,-4,-3,-4,-6
13:51:35:569761,-9,-3,-12,-31,-4,-3,-4,-6
13:51:35:570537,-10,0,3,6,3,11,0,0
13:51:35:576492,-3,1,-2,-1,-5,2,4,4
13:51:35:592222,-3,1,-2,-1,-5,2,4,4
13:51:35:593015,7,5,1,-13,-6,-10,-1,1
13:51:35:599009,5,4,7,2,0,-6,-1,-6
13:51:35:607259,5,4,7,2,0,-6,-1,-6
13:51:35:608040,-4,8,-7,-4,-5,-3,3,0
13:51:35:621549,5,-9,-7,6,-13,-6,-6,-3
13:51:35:629707,5,-9,-7,6,-13,-6,-6,-3
13:51:35:630518,-17,-4,-1,-13,2,-12,1,-3
13:51:35:636508,-18,-5,-8,2,-7,5,-7,-1
13:51:35:652219,-18,-5,-8,2,-7,5,-7,-1
13:51:35:653011,1,-9,-8,20,-1,0,-3,3
13:51:35:659002,5,3,11,2,12,-3,7,5
13:51:35:667307,5,3,11,2,12,-3,7,5
13:51:35:668031,-4,-3,6,-6,-1,3,4,-5
13:51:35:681478,-6,-3,-4,0,-4,0,-6,-3
13:51:35:689812,-6,-3,-4,0,-4,0,-6,-3
13:51:35:690551,-8,5,-3,3,5,7,6,-5
13:51:35:696453,4,-7,10,3,1,-3,3,2
13:51:35:712197,4,-7,10,3,1,-3,3,2
13:51:35:712958,-3,1,0,16,6,-4,-5,-1
13:51:35:719002,-9,-5,-11,-22,4,2,-3,-7
13:51:35:727192,-9,-5,-11,-22,4,2,-3,-7
13:51:35:727970,16,4,10,-8,-8,3,1,4
13:51:35:741591,0,2,-1,2,2,-1,-4,17
13:51:35:749792,0,2,-1,2,2,-1,-4,17
13:51:35:750526,7,3,5,-12,-10,-5,-4,6
13:51:35:763992,-5,-14,-8,-11,-5,-2,-1,-14
13:51:35:772360,-5,-14,-8,-11,-5,-2,-1,-14
13:51:35:772986,-13,-3,-2,1,4,-4,2,-11
13:51:35:779000,-5,3,-10,-1,2,3,2,-12
13:51:35:786655,-5,3,-10,-1,2,3,2,-12
13:51:35:793954,12,5,-2,0,-5,-4,-5,-10
13:51:35:801515,-1,-4,3,24,6,-1,6,-3
13:51:35:809711,-1,-4,3,24,6,-1,6,-3
13:51:35:810568,1,-6,-7,-24,-6,-5,2,1
13:51:35:823995,-10,-7,3,-9,-13,12,0,-1
13:51:35:832207,-10,-7,3,-9,-13,12,0,-1
13:51:35:832954,-1,-5,-7,-7,5,-3,-6,7
13:51:35:839020,9,6,-5,6,4,8,2,5
13:51:35:846540,9,6,-5,6,4,8,2,5
13:51:35:854088,-1,-6,3,8,-1,2,-1,-4
13:51:35:861446,-1,-11,7,10,5,-5,-7,-4
13:51:35:869840,-1,-11,7,10,5,-5,-7,-4
13:51:35:870582,6,3,-9,-13,-3,-10,-1,-2
13:51:35:884049,2,4,9,0,0,-6,-1,4
13:51:35:892209,2,4,9,0,0,-6,-1,4
13:51:35:892992,-5,-2,17,4,-8,-3,0,1
13:51:35:899007,4,18,6,-2,-12,-1,-3,-2
13:51:35:906605,4,18,6,-2,-12,-1,-3,-2
13:51:35:913989,-9,8,4,9,3,0,-3,0
13:51:35:921595,-5,-3,-4,5,6,-7,4,6
13:51:35:929680,-5,-3,-4,5,6,-7,4,6
13:51:35:930423,-2,-2,2,0,-5,-4,-6,1
13:51:35:943985,1,1,-5,-7,1,0,-3,0
13:51:35:952223,1,1,-5,-7,1,0,-3,0
13:51:35:953019,-14,-7,-1,-9,4,3,7,-3
13:51:35:959004,-5,-13,15,15,-2,-7,-5,-2
13:51:35:966631,-5,-13,15,15,-2,-7,-5,-2
13:51:35:974025,0,3,-5,9,7,2,0,1
13:51:35:981484,8,-1,-10,-10,5,-11,2,-2
13:51:35:989676,8,-1,-10,-10,5,-11,2,-2
13:51:35:990541,5,2,-9,12,3,1,12,-2
13:51:36:4087,6,8,-6,4,3,1,0,2
13:51:36:12147,6,8,-6,4,3,1,0,2
13:51:36:12927,-13,-14,-9,-17,-4,-2,-5,-3
13:51:36:18991,-7,-4,-5,-13,-9,-6,0,-4
13:51:36:26592,-7,-4,-5,-13,-9,-6,0,-4
13:51:36:33994,2,-5,-17,12,5,0,-9,-1
13:51:36:41469,2,-5,1,3,5,7,-9,1
13:51:36:49783,2,-5,1,3,5,7,-9,1
13:51:36:50522,15,0,5,11,1,9,-2,2
13:51:36:63993,-3,3,-1,-10,-6,-3,5,-2
13:51:36:72345,-3,3,-1,-10,-6,-3,5,-2
13:51:36:73015,-4,-2,10,-14,-8,-13,-6,-3
13:51:36:78974,-13,-8,-19,-33,-6,-2,-6,-1
13:51:36:86616,-13,-8,-19,-33,-6,-2,-6,-1
13:51:36:93970,-3,3,13,5,3,7,0,-3
13:51:36:101470,3,-5,-2,-17,-1,-3,2,-1
13:51:36:109722,3,-5,-2,-17,-1,-3,2,-1
13:51:36:110572,-5,-8,-4,-10,-4,7,1,-5
13:51:36:123999,4,6,-1,16,3,5,4,3
13:51:36:132215,4,6,-1,16,3,5,4,3
13:51:36:132982,-23,-13,-1,-12,-10,-3,14,-3
13:51:36:139059,-9,3,12,2,-7,-4,1,-2
13:51:36:146549,-9,3,12,2,-7,-4,1,-2
13:51:36:154032,5,5,-4,9,3,-5,-12,0
13:51:36:161438,-6,0,-1,9,-3,-6,-4,-6
13:51:36:169778,-6,0,-1,9,-3,-6,-4,-6
13:51:36:170566,2,-3,-16,-18,7,1,2,0
13:51:36:184016,3,7,2,-7,-7,13,-3,-6
13:51:36:192223,3,7,2,-7,-7,13,-3,-6
13:51:36:193032,-1,-1,-15,5,0,-2,2,12
13:51:36:199031,-1,-5,-2,12,10,-2,-5,1
13:51:36:206604,-1,-5,-2,12,10,-2,-5,1
13:51:36:214010,3,7,2,3,1,-2,-1,-5
13:51:36:221555,9,11,11,5,-19,5,-3,0
13:51:36:229659,9,11,11,5,-19,5,-3,0
13:51:36:230443,-2,-2,6,16,13,9,-2,-3
13:51:36:244009,-7,-15,-9,7,6,1,-5,2
13:51:36:252265,-7,-15,-9,7,6,1,-5,2
13:51:36:252981,5,-4,1,-13,-15,-12,-4,-6
13:51:36:259005,-12,-13,-9,6,6,1,6,-1
13:51:36:266625,-12,-13,-9,6,6,1,6,-1
13:51:36:274004,11,1,-3,-20,-4,-19,-10,2
13:51:36:281464,-3,3,11,18,13,3,1,-1
13:51:36:289705,-3,3,11,18,13,3,1,-1
13:51:36:290567,-1,-13,0,12,-1,10,13,3
13:51:36:304078,-8,-10,-1,-15,-19,-5,3,-3
13:51:36:312182,-8,-10,-1,-15,-19,-5,3,-3
13:51:36:312937,24,5,6,-9,-2,9,-16,3
13:51:36:319059,-12,-1,14,19,5,-12,-6,1
13:51:36:326587,-12,-1,14,19,5,-12,-6,1
13:51:36:334070,-5,7,-10,-2,-2,-14,-11,-2
13:51:36:341494,-1,3,-2,-11,8,2,1,-5
13:51:36:349794,-1,3,-2,-11,8,2,1,-5
13:51:36:350563,-13,2,5,7,1,-6,27,-7
13:51:36:363978,-3,-8,4,10,3,5,115,2
13:51:36:372269,-3,-8,4,10,3,5,115,2
13:51:36:372992,-9,2,16,-1,-5,9,-61,3
13:51:36:378985,9,6,19,5,0,-6,-103,7
13:51:36:386641,9,6,19,5,0,-6,-103,7
13:51:36:393998,12,2,-13,-22,0,4,-53,4
13:51:36:401496,0,2,-25,-19,-17,-7,-64,-6
13:51:36:409654,0,2,-25,-19,-17,-7,-64,-6
13:51:36:410522,11,10,-4,4,3,1,0,-5
13:51:36:423993,0,2,-9,-7,-3,-6,-7,0
13:51:36:432209,0,2,-9,-7,-3,-6,-7,0
13:51:36:432967,-16,-18,9,13,12,0,3,1
13:51:36:439006,-3,-3,-9,-7,-6,-4,-9,0
13:51:36:446537,-3,-3,-9,-7,-6,-4,-9,0
13:51:36:454072,-6,10,-2,-11,-11,-1,2,-2
13:51:36:461433,-20,-10,-1,17,4,3,-13,-4
13:51:36:469790,-20,-10,-1,17,4,3,-13,-4
13:51:36:470583,-4,-13,5,11,10,-1,-6,-1
13:51:36:483998,18,6,-3,10,-3,-5,-11,-9
13:51:36:492237,18,6,-3,10,-3,-5,-11,-9
13:51:36:493051,2,-3,13,9,4,4,-6,-4
13:51:36:499051,6,1,12,-12,-10,-8,-6,0
13:51:36:506676,6,1,12,-12,-10,-8,-6,0
13:51:36:514005,-3,-1,-12,2,-14,-3,-4,3
13:51:36:521598,-1,4,-7,-1,14,5,-1,3
13:51:36:529654,-1,4,-7,-1,14,5,-1,3
13:51:36:530444,5,4,1,-13,-6,-11,7,-2
13:51:36:544662,-3,-8,5,-3,4,11,0,-3
13:51:36:545478,-3,-8,5,-3,4,11,0,-3
13:51:36:551531,3,9,5,16,8,8,6,3
13:51:36:559033,-5,-3,-4,3,-8,-6,-5,-1
13:51:36:566630,-5,-3,-4,3,-8,-6,-5,-1
13:51:36:574030,-7,-4,-12,6,-2,-7,-5,-9
13:51:36:581532,2,9,-5,-7,-7,2,7,-4
13:51:36:589745,2,9,-5,-7,-7,2,7,-4
13:51:36:590516,-4,-8,-9,11,-6,-9,-6,-1
13:51:36:604747,1,5,-2,16,10,9,-6,2
13:51:36:605454,1,5,-2,16,10,9,-6,2
13:51:36:611443,-5,-16,-5,-7,-11,-11,-6,-5
13:51:36:619023,2,-3,7,-25,2,0,-2,2
13:51:36:626591,2,-3,7,-25,2,0,-2,2
13:51:36:633998,3,5,7,6,-10,-2,-2,0
13:51:36:641494,-2,-2,-20,-1,3,-1,0,1
13:51:36:649738,-2,-2,-20,-1,3,-1,0,1
13:51:36:650534,-3,-1,-24,-8,7,0,3,4
13:51:36:664665,-1,-6,-3,-29,-6,16,3,-4
13:51:36:665559,-1,-6,-3,-29,-6,16,3,-4
13:51:36:671541,-10,-15,-2,-15,1,1,5,-2
13:51:36:678972,8,-2,0,-6,-9,-16,5,1
13:51:36:686650,8,-2,0,-6,-9,-16,5,1
13:51:36:694007,3,5,-2,-2,-1,-3,-3,-3
13:51:36:701476,-10,-1,-6,3,-2,-2,6,0
13:51:36:709059,-10,-1,-6,3,-2,-2,6,0
13:51:36:716564,-4,-6,-16,-17,-1,-1,3,-1
13:51:36:724666,-6,-6,-1,21,5,-11,-3,-2
13:51:36:725481,-6,-6,-1,21,5,-11,-3,-2
13:51:36:731476,6,19,25,16,1,10,3,0
13:51:36:747182,-2,-5,-3,-10,-3,-2,4,-1
13:51:36:747961,-2,-5,-3,-10,-3,-2,4,-1
13:51:36:754038,6,0,10,8,-3,2,0,4
13:51:36:761463,-5,8,1,5,12,7,1,2
13:51:36:769115,-5,8,1,5,12,7,1,2
13:51:36:776509,-19,-11,-22,-7,-13,-5,2,-6
13:51:36:784685,-5,-11,10,-1,-12,1,-2,-2
13:51:36:785430,-5,-11,10,-1,-12,1,-2,-2
13:51:36:791469,6,-8,-3,-13,-3,-9,8,0
13:51:36:807178,15,-2,-9,-17,3,-20,-26,-7
13:51:36:807956,15,-2,-9,-17,3,-20,-26,-7
13:51:36:813972,-10,-5,1,4,19,7,-6,0
13:51:36:821585,-3,3,3,-9,-12,0,-2,-1
13:51:36:829016,-3,3,3,-9,-12,0,-2,-1
13:51:36:836561,8,12,4,13,-8,-1,-1,-1
13:51:36:843995,3,7,-5,-13,-2,0,3,0
13:51:36:852256,3,7,-5,-13,-2,0,3,0
13:51:36:852964,1,4,0,-28,-5,-2,7,-1
13:51:36:867162,0,-6,-9,-16,-7,5,2,5
13:51:36:867979,0,-6,-9,-16,-7,5,2,5
13:51:36:873967,-7,-9,-13,-13,-14,-7,-5,-4
13:51:36:881441,-12,-4,3,11,6,-1,11,-5
13:51:36:889049,-12,-4,3,11,6,-1,11,-5
13:51:36:896467,11,19,25,4,1,-8,1,2
13:51:36:904819,-5,-6,6,8,4,-7,0,0
13:51:36:905552,-5,-6,6,8,4,-7,0,0
13:51:36:911451,0,5,10,10,8,2,-2,-3
13:51:36:927184,9,7,15,28,8,2,0,5
13:51:36:928010,9,7,15,28,8,2,0,5
13:51:36:934063,4,-6,-7,-5,-6,-12,-4,-9
13:51:36:941518,-4,-2,-6,-7,0,2,-6,0
13:51:36:949096,-4,-2,-6,-7,0,2,-6,0
13:51:36:956509,-2,-5,8,20,6,13,-1,2
13:51:36:964674,-4,-5,7,5,2,10,9,-2
13:51:36:965566,-4,-5,7,5,2,10,9,-2
13:51:36:971651,-8,-14,-13,-4,6,1,-3,0
13:51:36:987273,7,15,7,-8,-7,-8,-4,-3
13:51:36:987992,7,15,7,-8,-7,-8,-4,-3
13:51:36:993959,2,-1,-13,-3,-9,-9,-3,-4
13:51:37:1499,-16,-13,-23,-26,1,-5,3,-2
13:51:37:9055,-16,-13,-23,-26,1,-5,3,-2
13:51:37:16578,-10,-9,18,14,-7,-2,-5,-6
13:51:37:24670,-5,-26,-7,-9,1,4,-3,-2
13:51:37:25446,-5,-26,-7,-9,1,4,-3,-2
13:51:37:31472,-3,3,-1,-13,-2,3,-7,0
13:51:37:47210,25,23,5,3,-8,-2,-3,3
13:51:37:48000,25,23,5,3,-8,-2,-3,3
13:51:37:54079,-3,-11,-10,1,-3,-6,5,0
13:51:37:61487,-8,-1,8,19,9,5,10,-1
13:51:37:69068,-8,-1,8,19,9,5,10,-1
13:51:37:76492,9,4,-9,-6,-1,5,11,-1
13:51:37:84723,7,2,-2,-4,-9,-7,5,-3
13:51:37:85454,7,2,-2,-4,-9,-7,5,-3
13:51:37:91433,-9,5,5,-2,0,5,4,3
13:51:37:107154,-12,-12,-5,6,-3,-11,-8,-4
13:51:37:107980,-12,-12,-5,6,-3,-11,-8,-4
13:51:37:113962,3,3,-11,-12,4,-2,6,0
13:51:37:121588,24,16,-6,12,15,5,-3,-1
13:51:37:129041,24,16,-6,12,15,5,-3,-1
13:51:37:136545,-28,-6,-2,20,2,-1,-5,-5
13:51:37:144642,11,11,-13,-4,-3,4,-4,-5
13:51:37:145575,11,11,-13,-4,-3,4,-4,-5
13:51:37:151488,2,2,8,-2,-7,-6,-9,-4
13:51:37:167203,1,-6,7,2,-1,7,0,5
13:51:37:167952,1,-6,7,2,-1,7,0,5
13:51:37:173922,3,-2,7,-21,-12,-2,-2,1
13:51:37:181460,8,-3,-1,-4,-8,-11,-5,-2
13:51:37:189088,8,-3,-1,-4,-8,-11,-5,-2
13:51:37:196443,-4,-18,-8,11,-2,3,-4,-8
13:51:37:204786,3,2,7,-2,-2,-1,-1,0
13:51:37:205524,3,2,7,-2,-2,-1,-1,0
13:51:37:211459,19,14,8,14,6,-3,6,5
13:51:37:227222,-20,-4,-1,4,1,0,-3,0
13:51:37:227992,-20,-4,-1,4,1,0,-3,0
13:51:37:234069,6,-1,-11,-14,0,5,-7,2
13:51:37:241496,-10,-2,0,-2,-4,-10,-1,-5
13:51:37:249057,-10,-2,0,-2,-4,-10,-1,-5
13:51:37:256474,7,-1,-8,19,16,4,-1,7
13:51:37:264703,-5,3,-3,-1,2,-4,5,4
13:51:37:265533,-5,3,-3,-1,2,-4,5,4
13:51:37:271581,-6,-7,-3,-24,-11,-6,-4,-4
13:51:37:287242,3,-11,4,5,-8,-7,-3,-3
13:51:37:287998,3,-11,4,5,-8,-7,-3,-3
13:51:37:293959,3,3,-6,-13,-4,-2,-1,-3
13:51:37:301458,-8,-5,1,9,-6,-4,-3,-4
13:51:37:309073,-8,-5,1,9,-6,-4,-3,-4
13:51:37:316559,3,0,-95,-9,2,-1,3,-4
13:51:37:324708,3,6,8,6,8,8,-7,0
13:51:37:325521,3,6,8,6,8,8,-7,0
13:51:37:331506,9,-3,63,-10,-10,-4,0,4
13:51:37:347163,-10,-2,13,-11,0,-6,7,1
13:51:37:347960,-10,-2,13,-11,0,-6,7,1
13:51:37:354161,5,17,13,7,14,-8,-1,2
13:51:37:361486,0,3,-5,-12,4,2,-4,-4
13:51:37:369066,0,3,-5,-12,4,2,-4,-4
13:51:37:376506,-7,-6,1,0,0,5,-5,-4
13:51:37:384648,6,-6,-9,12,1,11,-1,3
13:51:37:385427,6,-6,-9,12,1,11,-1,3
13:51:37:391479,-9,-1,7,13,-1,3,1,0
13:51:37:407200,3,4,-5,-11,-7,-1,4,-5
13:51:37:407996,3,4,-5,-11,-7,-1,4,-5
13:51:37:413994,-3,-2,12,-8,-5,2,-2,-1
13:51:37:421600,-19,-8,-25,-6,4,1,-1,-1
13:51:37:429037,-19,-8,-25,-6,4,1,-1,-1
13:51:37:436504,-4,1,-4,1,-2,-9,2,-3
13:51:37:444686,0,-2,-13,-24,22,-3,-2,-2
13:51:37:445563,0,-2,-13,-24,22,-3,-2,-2
13:51:37:451475,-14,-14,7,8,-7,3,1,4
13:51:37:467218,17,21,9,-1,-21,-2,-3,2
13:51:37:467961,17,21,9,-1,-21,-2,-3,2
13:51:37:473963,10,8,-4,1,-6,2,-3,-1
13:51:37:481447,-10,-5,15,-10,0,-1,3,-1
13:51:37:489098,-10,-5,15,-10,0,-1,3,-1
13:51:37:496477,-3,7,9,13,3,-1,-1,-4
13:51:37:504770,7,-18,-2,14,0,3,-2,-8
13:51:37:505544,7,-18,-2,14,0,3,-2,-8
13:51:37:511476,-1,11,11,-5,-7,-8,-9,-4
13:51:37:527204,-11,-6,-8,-11,-5,-2,-5,3
13:51:37:527985,-11,-6,-8,-11,-5,-2,-5,3
13:51:37:534073,-3,-3,-1,-4,2,-5,6,-2
13:51:37:541528,1,-7,1,0,-5,4,5,-1
13:51:37:549175,1,-7,1,0,-5,4,5,-1
13:51:37:556458,3,-4,-15,-5,6,-2,2,1
13:51:37:564640,0,5,5,32,10,6,-2,0
13:51:37:565452,0,5,5,32,10,6,-2,0
13:51:37:571600,14,-2,6,-21,-5,0,-4,-1
13:51:37:587253,-4,-11,1,4,-15,-12,-10,1
13:51:37:588069,-4,-11,1,4,-15,-12,-10,1
13:51:37:593960,-2,-11,-16,-3,0,10,-3,-2
13:51:37:601508,-1,0,-21,-8,1,-3,5,-4
13:51:37:609082,-1,0,-21,-8,1,-3,5,-4
13:51:37:616545,-13,1,11,15,1,1,8,-2
13:51:37:624679,2,5,-7,16,7,-28,1,0
13:51:37:625479,2,5,-7,16,7,-28,1,0
13:51:37:631519,-8,-23,-2,-5,7,-2,1,-1
13:51:37:647183,-15,-7,-12,-13,-7,3,-10,-1
13:51:37:647982,-15,-7,-12,-13,-7,3,-10,-1
13:51:37:654105,-10,9,-16,-13,-3,-11,-9,5
13:51:37:669771,11,14,7,-9,-8,0,-6,-1
13:51:37:670594,11,14,7,-9,-8,0,-6,-1
13:51:37:676488,10,2,4,3,-7,3,-120,-5
13:51:37:684678,21,6,10,-4,4,6,-44,5
13:51:37:685421,21,6,10,-4,4,6,-44,5
13:51:37:699029,-5,-4,-5,-14,-13,-13,29,-3
13:51:37:707228,4,4,14,10,12,10,70,0
13:51:37:708027,4,4,14,10,12,10,70,0
13:51:37:713981,-7,5,9,9,16,5,64,1
13:51:37:729666,-11,-4,10,-4,-11,3,40,-4
13:51:37:730534,-11,-4,10,-4,-11,3,40,-4
13:51:37:736564,-6,3,-2,10,-4,-22,44,2
13:51:37:744626,-5,-13,4,12,2,-8,47,2
13:51:37:745489,-5,-13,4,12,2,-8,47,2
13:51:37:758984,-5,-6,-5,-12,-16,2,39,-2
13:51:37:767217,-9,-4,-14,7,5,-7,3,-5
13:51:37:768024,-9,-4,-14,7,5,-7,3,-5
13:51:37:774023,4,4,10,7,3,12,41,3
13:51:37:789685,6,2,3,-10,-119,13,6,3
13:51:37:790625,6,2,3,-10,-119,13,6,3
13:51:37:796469,3,11,0,9,-24,0,2,-1
13:51:37:804755,-16,-7,12,-2,25,-17,-13,-5
13:51:37:805557,-16,-7,12,-2,25,-17,-13,-5
13:51:37:819064,-23,1,1,1,54,5,-8,-7
13:51:37:827185,8,0,-2,-15,60,10,-7,4
13:51:37:827963,8,0,-2,-15,60,10,-7,4
13:51:37:834011,8,-3,7,24,3,-6,0,-5
13:51:37:849694,-11,1,-6,-8,1,-12,6,-6
13:51:37:850532,-11,1,-6,-8,1,-12,6,-6
13:51:37:856462,7,-5,-12,-6,16,6,-1,-2
13:51:37:864717,8,-1,-1,7,18,12,-2,3
13:51:37:865547,8,-1,-1,7,18,12,-2,3
13:51:37:878978,6,10,-9,4,0,0,-3,3
13:51:37:887284,-6,-5,-8,-6,-10,-12,4,-6
13:51:37:888002,-6,-5,-8,-6,-10,-12,4,-6
13:51:37:893938,-4,-13,10,-6,-7,-3,0,-11
13:51:37:909681,11,15,4,19,-2,-2,-12,3
13:51:37:910496,11,15,4,19,-2,-2,-12,3
13:51:37:916480,15,-2,-11,7,3,17,1,11
13:51:37:924742,0,-3,2,-8,3,4,-3,-1
13:51:37:925586,0,-3,2,-8,3,4,-3,-1
13:51:37:939076,6,4,0,-14,-6,-6,-2,0
13:51:37:947172,-5,7,4,0,3,-4,-1,-3
13:51:37:947937,-5,7,4,0,3,-4,-1,-3
13:51:37:954036,-1,-5,-8,-23,-20,-12,-20,-9
13:51:37:969735,9,-1,1,-8,11,-9,-12,-4
13:51:37:970493,9,-1,1,-8,11,-9,-12,-4
13:51:37:976488,6,-8,2,-8,-24,-1,-19,-10
13:51:37:992210,6,-8,2,-8,-24,-1,-19,-10
13:51:37:992985,-3,-3,4,-13,-6,11,7,4
13:51:37:999208,-9,-8,-6,-16,-6,-5,1,11
13:51:38:7225,-9,-8,-6,-16,-6,-5,1,11
13:51:38:7998,-4,-4,-17,2,-1,3,-13,-1
13:51:38:13985,-4,6,7,14,10,2,7,1
13:51:38:29732,-4,6,7,14,10,2,7,1
13:51:38:30478,-7,-7,2,-13,-5,-5,-1,0
13:51:38:36589,-7,-3,12,6,-6,-6,0,-7
13:51:38:44022,-7,-3,12,6,-6,-6,0,-7
13:51:38:51475,2,1,3,29,12,20,-1,-8
13:51:38:58933,-2,-2,-2,2,0,-7,-5,7
13:51:38:67190,-2,-2,-2,2,0,-7,-5,7
13:51:38:67966,7,-6,-6,-12,-10,6,-3,6
13:51:38:73934,-1,-9,-20,-15,4,5,16,-1
13:51:38:89687,-1,-9,-20,-15,4,5,16,-1
13:51:38:90474,-4,-4,7,-15,-13,-20,2,-3
13:51:38:96415,-2,8,13,10,2,-9,-10,-5
13:51:38:104082,-2,8,13,10,2,-9,-10,-5
13:51:38:111477,-9,0,14,-12,-3,-3,-8,-5
13:51:38:118992,0,4,13,-1,-2,3,-4,2
13:51:38:127224,0,4,13,-1,-2,3,-4,2
13:51:38:127995,9,2,-10,-7,0,-9,-2,-2
13:51:38:134000,5,-7,21,17,4,-14,-25,2
13:51:38:149734,5,-7,21,17,4,-14,-25,2
13:51:38:150583,1,1,-7,-4,1,5,-6,0
13:51:38:156473,-11,-5,2,10,-1,-1,-7,-5
13:51:38:164045,-11,-5,2,10,-1,-1,-7,-5
13:51:38:171556,-5,-4,-4,-5,-4,-3,12,1
13:51:38:178969,-2,-7,-17,-6,6,11,21,-2
13:51:38:187249,-2,-7,-17,-6,6,11,21,-2
13:51:38:187946,4,5,-7,9,-1,18,35,4
13:51:38:193991,-11,2,-5,-31,-6,3,3,-1
13:51:38:209735,-11,2,-5,-31,-6,3,3,-1
13:51:38:210617,-2,-3,-17,4,-1,-11,-18,-1
13:51:38:216609,0,-9,-4,-4,6,2,6,0
13:51:38:224072,0,-9,-4,-4,6,2,6,0
13:51:38:231513,6,-1,-4,-17,-3,-6,-2,-4
13:51:38:239072,6,6,-24,-6,-10,-6,-7,2
13:51:38:247162,6,6,-24,-6,-10,-6,-7,2
13:51:38:247959,-11,-6,7,-1,-7,-6,-8,-2
13:51:38:254111,-5,-1,0,9,2,0,-6,-1
13:51:38:269779,-5,-1,0,9,2,0,-6,-1
13:51:38:270459,2,-1,7,21,8,-8,-3,-7
13:51:38:276503,-11,-7,-1,5,2,-6,-14,-2
13:51:38:284038,-11,-7,-1,5,2,-6,-14,-2
13:51:38:291443,4,3,-10,-20,-9,-6,-19,0
13:51:38:299013,10,9,9,18,10,2,2,-3
13:51:38:307175,10,9,9,18,10,2,2,-3
13:51:38:307947,-15,-5,5,15,0,-1,-10,-3
13:51:38:313947,1,-3,-7,13,-8,2,-5,1
13:51:38:329660,1,-3,-7,13,-8,2,-5,1
13:51:38:330454,22,0,-20,-11,2,10,11,3
13:51:38:336528,14,12,21,-5,-2,5,14,6
13:51:38:344065,14,12,21,-5,-2,5,14,6
13:51:38:351527,-7,-11,-6,-5,4,-6,-9,-4
13:51:38:359011,-10,-2,-8,-9,1,0,0,-5
13:51:38:367231,-10,-2,-8,-9,1,0,0,-5
13:51:38:368054,-1,-12,-2,-11,-13,-5,1,-2
13:51:38:373944,-16,2,-4,-19,-17,-7,-14,0
13:51:38:389731,-16,2,-4,-19,-17,-7,-14,0
13:51:38:390496,-17,-4,15,18,13,11,3,5
13:51:38:396440,14,0,-6,16,12,-1,7,2
13:51:38:404102,14,0,-6,16,12,-1,7,2
13:51:38:411471,-2,-3,-16,4,-10,-3,1,-3
13:51:38:419058,1,6,4,-10,-1,-3,8,2
13:51:38:427247,1,6,4,-10,-1,-3,8,2
13:51:38:428029,-7,1,12,-8,7,-1,17,-2
13:51:38:434032,-2,-4,3,-9,7,-5,15,2
13:51:38:449765,-2,-4,3,-9,7,-5,15,2
13:51:38:450557,-6,10,11,-1,-5,1,25,1
13:51:38:456482,3,-1,-3,0,-12,0,7,-2
13:51:38:464693,3,-1,-3,0,-12,0,7,-2
13:51:38:465567,-8,-7,-6,13,2,-7,-14,-3
13:51:38:479015,-2,-14,3,21,7,-30,-16,-8
13:51:38:487269,-2,-14,3,21,7,-30,-16,-8
13:51:38:488042,4,-6,-4,8,-1,-26,-20,-4
13:51:38:494020,-2,-1,-9,1,5,13,-12,4
13:51:38:509742,-2,-1,-9,1,5,13,-12,4
13:51:38:510524,4,26,-2,-1,-3,12,-6,4
13:51:38:516534,18,-2,13,4,-5,0,-16,-4
13:51:38:524717,18,-2,13,4,-5,0,-16,-4
13:51:38:525582,-10,-10,-5,-17,-8,-21,-20,-5
13:51:38:539053,-4,0,-14,-9,-9,13,10,-1
13:51:38:547190,-4,0,-14,-9,-9,13,10,-1
13:51:38:547967,7,0,8,2,-2,8,-3,1
13:51:38:553965,-8,-13,-24,-8,6,5,-6,1
13:51:38:569750,-8,-13,-24,-8,6,5,-6,1
13:51:38:570495,-3,-18,-3,11,-7,1,7,-2
13:51:38:576456,13,11,0,-8,-11,-5,2,-4
13:51:38:584698,13,11,0,-8,-11,-5,2,-4
13:51:38:585562,8,2,6,11,14,19,-6,6
13:51:38:598945,2,-33,-11,-8,-7,-6,-5,0
13:51:38:607228,2,-33,-11,-8,-7,-6,-5,0
13:51:38:607991,-8,-12,-9,-25,-5,-10,-2,-8
13:51:38:621596,-7,10,-2,6,5,14,8,3
13:51:38:629676,-7,10,-2,6,5,14,8,3
13:51:38:630483,13,19,-16,11,9,0,1,1
13:51:38:636541,-13,8,0,3,4,-6,-7,-4
13:51:38:644055,-13,8,0,3,4,-6,-7,-4
13:51:38:651507,-16,0,-5,-13,-5,3,-1,-6
13:51:38:658985,-3,-1,3,-13,-12,-22,-11,-1
13:51:38:667288,-3,-1,3,-13,-12,-22,-11,-1
13:51:38:668032,6,-8,-14,-15,-1,-6,3,3
13:51:38:681458,-11,-2,4,-4,-4,0,-11,-2
13:51:38:689725,-11,-2,4,-4,-4,0,-11,-2
13:51:38:690505,3,5,15,5,-8,-3,-1,0
13:51:38:696448,9,7,5,0,-7,-8,-1,-4
13:51:38:704099,9,7,5,0,-7,-8,-1,-4
13:51:38:711458,4,-2,1,23,19,0,3,4
13:51:38:719010,-1,-4,14,-1,2,10,4,3
13:51:38:727219,-1,-4,14,-1,2,10,4,3
13:51:38:727988,-1,-6,6,-17,-18,-4,-10,-5
13:51:38:741456,-1,1,12,-4,6,1,5,-7
13:51:38:749762,-1,1,12,-4,6,1,5,-7
13:51:38:750576,3,0,-13,9,-3,-4,-3,-5
13:51:38:756477,13,5,-5,5,5,19,9,2
13:51:38:764036,13,5,-5,5,5,19,9,2
13:51:38:771579,11,6,7,-4,8,2,4,12
13:51:38:778988,-11,-2,-11,-18,-5,-5,-5,11
13:51:38:787206,-11,-2,-11,-18,-5,-5,-5,11
13:51:38:787941,-17,1,1,-4,1,9,2,1
13:51:38:801533,-4,0,7,3,8,-2,-13,-7
13:51:38:809723,-4,0,7,3,8,-2,-13,-7
13:51:38:810560,5,-5,17,1,-2,-3,2,-3
13:51:38:816570,-2,2,11,8,-6,2,5,-3
13:51:38:824066,-2,2,11,8,-6,2,5,-3
13:51:38:831510,-13,-2,-2,7,-3,-2,5,-4
13:51:38:839058,6,8,-3,5,0,-9,-4,-5
13:51:38:847189,6,8,-3,5,0,-9,-4,-5
13:51:38:847968,-2,1,9,-18,-6,-2,0,-2
13:51:38:861490,1,5,-1,0,6,-1,3,-1
13:51:38:869769,1,5,-1,0,6,-1,3,-1
13:51:38:870458,-4,-1,-9,10,2,0,-2,-3
13:51:38:876500,4,11,-5,-1,-1,4,3,-2
13:51:38:884071,4,11,-5,-1,-1,4,3,-2
13:51:38:891463,-15,-16,-16,-22,-3,-1,-6,-10
13:51:38:899008,8,-5,-1,-9,-1,-9,2,1
13:51:38:907229,8,-5,-1,-9,-1,-9,2,1
13:51:38:907980,1,14,7,-9,-2,7,-9,3
13:51:38:921649,-8,-1,-3,3,-11,-2,-7,-4
13:51:38:929703,-8,-1,-3,3,-11,-2,-7,-4
13:51:38:930444,0,-7,-10,13,-2,-7,-6,-3
13:51:38:936546,-1,-7,-11,-1,-3,-4,4,-1
13:51:38:944069,-1,-7,-11,-1,-3,-4,4,-1
13:51:38:951463,16,6,-15,-17,-1,-1,0,1
13:51:38:958994,1,-7,1,11,3,3,-1,0
13:51:38:967258,1,-7,1,11,3,3,-1,0
13:51:38:967991,3,-3,8,9,4,9,8,2
13:51:38:981460,-7,1,2,-18,-11,-1,-4,-4
13:51:38:989718,-7,1,2,-18,-11,-1,-4,-4
13:51:38:990469,12,-8,-10,8,1,-2,4,-1
13:51:38:996436,-11,-2,-6,2,0,-5,3,-3
13:51:39:4148,-11,-2,-6,2,0,-5,3,-3
13:51:39:11510,-6,0,-8,-25,-21,-19,-4,-4
13:51:39:19026,-1,7,15,11,15,13,-1,0
13:51:39:27239,-1,7,15,11,15,13,-1,0
13:51:39:28009,8,0,10,8,2,0,-7,-2
13:51:39:41470,9,2,1,-11,-8,-8,-2,6
13:51:39:49721,9,2,1,-11,-8,-8,-2,6
13:51:39:50541,-19,-10,9,3,1,-6,-4,-2
13:51:39:56481,0,-4,9,23,3,-3,-2,-3
13:51:39:64041,0,-4,9,23,3,-3,-2,-3
13:51:39:71593,-2,-6,-10,-13,-4,0,-4,0
13:51:39:78992,-2,-7,-14,-22,-6,2,1,5
13:51:39:87251,-2,-7,-14,-22,-6,2,1,5
13:51:39:87967,-1,8,-1,-6,5,-13,3,2
13:51:39:101477,-4,-6,4,1,-4,-5,0,-2
13:51:39:109667,-4,-6,4,1,-4,-5,0,-2
13:51:39:110480,1,-1,9,11,3,13,-1,-3
13:51:39:116543,-11,-10,-13,-8,-6,-4,-1,-7
13:51:39:124059,-11,-10,-13,-8,-6,-4,-1,-7
13:51:39:131440,-2,2,2,6,10,7,1,2
13:51:39:139087,-18,-9,-23,-4,5,13,4,0
13:51:39:147183,-18,-9,-23,-4,5,13,4,0
13:51:39:147952,2,9,8,11,-4,-4,-4,4
13:51:39:161547,0,9,7,8,1,2,-7,0
13:51:39:169785,0,9,7,8,1,2,-7,0
13:51:39:170488,-9,1,-6,10,-2,-10,-1,-6
13:51:39:176465,1,-3,-7,-7,9,-3,4,1
13:51:39:184018,1,-3,-7,-7,9,-3,4,1
13:51:39:191466,-9,9,16,9,6,16,0,-3
13:51:39:199000,-4,-2,10,7,7,-11,3,-1
13:51:39:207205,-4,-2,10,7,7,-11,3,-1
13:51:39:207961,3,-9,1,-5,-12,-16,-3,-4
13:51:39:221576,-4,-13,7,3,1,5,1,-4
13:51:39:229710,-4,-13,7,3,1,5,1,-4
13:51:39:230477,5,-5,-22,-25,-5,9,0,1
13:51:39:236544,-6,3,-8,-2,-4,-2,-3,-1
13:51:39:244051,-6,3,-8,-2,-4,-2,-3,-1
13:51:39:251537,-3,-13,-5,-8,2,1,4,0
13:51:39:258998,4,8,2,-19,-7,9,-6,-7
13:51:39:267298,4,8,2,-19,-7,9,-6,-7
13:51:39:268015,6,11,12,15,-17,-11,-3,1
13:51:39:281491,-2,-6,-1,11,10,-4,-1,5
13:51:39:289788,-2,-6,-1,11,10,-4,-1,5
13:51:39:290513,-2,-6,-1,-3,-1,-1,-8,-4
13:51:39:296469,5,2,0,-7,1,-13,-2,-4
13:51:39:304132,5,2,0,-7,1,-13,-2,-4
13:51:39:311462,-1,22,12,-9,12,7,8,1
13:51:39:319042,2,-5,8,38,10,6,5,-2
13:51:39:327194,2,-5,8,38,10,6,5,-2
13:51:39:327972,-10,-1,4,12,-3,6,-5,-3
13:51:39:341501,-4,-3,-2,2,-15,-3,0,-1
13:51:39:349810,-4,-3,-2,2,-15,-3,0,-1
13:51:39:350582,-5,-8,-12,3,8,1,-3,-1
13:51:39:356488,4,4,1,-13,-9,-10,-2,-3
13:51:39:364017,4,4,1,-13,-9,-10,-2,-3
13:51:39:371589,-3,-11,-7,-10,0,6,-2,2
13:51:39:379022,2,-5,-2,7,10,1,-7,4
13:51:39:387277,2,-5,-2,7,10,1,-7,4
13:51:39:388017,3,-7,-12,-11,-9,-13,3,-1
13:51:39:401546,-11,-14,-14,4,6,4,-5,-6
13:51:39:409660,-11,-14,-14,4,6,4,-5,-6
13:51:39:410436,9,-2,-18,6,-1,-11,-5,-2
13:51:39:416577,5,2,-2,-20,-7,7,6,-1
13:51:39:424035,5,2,-2,-20,-7,7,6,-1
13:51:39:431431,-1,2,-9,-4,9,11,11,2
13:51:39:439056,-1,11,15,4,2,-4,0,-2
13:51:39:447199,-1,11,15,4,2,-4,0,-2
13:51:39:447961,12,-6,8,9,-2,-3,2,4
13:51:39:461508,-2,-2,17,-3,-3,1,3,-1
13:51:39:469748,-2,-2,17,-3,-3,1,3,-1
13:51:39:470503,-7,7,13,-4,-1,-4,-9,1
13:51:39:476423,12,2,-20,-12,-13,-17,5,1
13:51:39:484057,12,2,-20,-12,-13,-17,5,1
13:51:39:491499,2,3,1,1,5,-1,2,-1
13:51:39:498982,0,3,-14,-16,-9,-4,-8,-3
13:51:39:507215,0,3,-14,-16,-9,-4,-8,-3
13:51:39:507971,-4,-10,-3,-11,-2,-5,-4,4
13:51:39:521547,-13,-11,-2,2,2,-4,-11,-1
13:51:39:529700,-13,-11,-2,2,2,-4,-11,-1
13:51:39:530490,-10,-5,1,-5,-16,-10,-12,-4
13:51:39:544649,-9,2,3,8,-5,9,2,1
13:51:39:545466,-9,2,3,8,-5,9,2,1
13:51:39:551474,-13,-13,11,10,-7,0,11,-2
13:51:39:558949,-2,-3,-4,-14,9,4,-2,-6
13:51:39:566617,-2,-3,-4,-14,9,4,-2,-6
13:51:39:573982,5,15,15,13,5,-2,-3,-5
13:51:39:581494,4,2,-12,-9,-10,-8,-2,1
13:51:39:589696,4,2,-12,-9,-10,-8,-2,1
13:51:39:590484,1,4,-5,-12,2,2,2,-1
13:51:39:604729,-3,1,2,2,-9,1,-1,-1
13:51:39:605473,-3,1,2,2,-9,1,-1,-1
13:51:39:611426,-11,-6,5,2,2,-1,13,-1
13:51:39:618976,-10,2,-11,-10,-4,-3,-3,1
13:51:39:626606,-10,2,-11,-10,-4,-3,-3,1
13:51:39:633989,1,-11,-7,22,5,-1,-19,-1
13:51:39:641478,24,5,2,-8,-7,-5,1,-5
13:51:39:649763,24,5,2,-8,-7,-5,1,-5
13:51:39:650603,-1,-1,-12,-13,-10,-11,2,-13
13:51:39:664671,1,-10,-12,-3,-3,-2,-3,4
13:51:39:665566,1,-10,-12,-3,-3,-2,-3,4
13:51:39:671577,6,-2,6,2,13,10,6,7
13:51:39:678991,4,3,23,11,5,6,-1,-4
13:51:39:686666,4,3,23,11,5,6,-1,-4
13:51:39:694012,-6,-10,-27,-26,-7,-15,-5,6
13:51:39:701556,0,4,-4,-12,2,0,3,4
13:51:39:709680,0,4,-4,-12,2,0,3,4
13:51:39:710453,7,15,6,0,2,2,0,4
13:51:39:724664,-5,1,-5,-1,-2,-9,1,1
13:51:39:725468,-5,1,-5,-1,-2,-9,1,1
13:51:39:731472,2,8,-3,17,1,7,5,-4
13:51:39:739121,-5,-13,2,5,-2,-3,-5,-7
13:51:39:746472,-5,-13,2,5,-2,-3,-5,-7
13:51:39:754125,3,-2,-14,-18,-15,-5,-9,-4
13:51:39:761479,-2,1,8,22,16,17,27,-3
13:51:39:769783,-2,1,8,22,16,17,27,-3
13:51:39:770483,10,8,8,-5,1,6,2,4
13:51:39:784733,-12,-9,0,-16,-13,-14,-12,-5
13:51:39:785463,-12,-9,0,-16,-13,-14,-12,-5
13:51:39:791442,-4,2,5,20,-5,0,2,0
13:51:39:799019,4,-4,-18,-12,14,14,9,2
13:51:39:806524,4,-4,-18,-12,14,14,9,2
13:51:39:813930,-13,-8,-3,-19,-4,-5,-7,-9
13:51:39:821491,4,10,6,26,5,-4,-17,4
13:51:39:829686,4,10,6,26,5,-4,-17,4
13:51:39:830460,-4,-4,10,2,-7,-2,-5,-5
13:51:39:844714,0,-2,0,-20,-13,-5,5,4
13:51:39:845456,0,-2,0,-20,-13,-5,5,4
13:51:39:851531,-4,-8,-3,19,21,11,6,-4
13:51:39:858933,0,3,-4,3,-6,3,-10,-13
13:51:39:866575,0,3,-4,3,-6,3,-10,-13
13:51:39:874001,-4,-9,-25,-10,-4,-1,10,1
13:51:39:881469,18,22,2,-8,-1,-6,2,5
13:51:39:889712,18,22,2,-8,-1,-6,2,5
13:51:39:890506,5,1,-14,-24,-22,-18,-8,-1
13:51:39:904765,2,-7,1,-18,1,-4,0,4
13:51:39:905505,2,-7,1,-18,1,-4,0,4
13:51:39:911450,4,11,18,3,8,9,1,4
13:51:39:919020,-16,-5,4,15,7,1,-2,-5
13:51:39:926615,-16,-5,4,15,7,1,-2,-5
13:51:39:933997,-2,-5,-8,-5,-3,-12,-7,-5
13:51:39:941503,1,-9,-12,2,0,-4,4,-2
13:51:39:949750,1,-9,-12,2,0,-4,4,-2
13:51:39:950479,0,4,3,2,6,6,8,2
13:51:39:964689,-6,-2,-5,-2,-6,-5,3,1
13:51:39:965573,-6,-2,-5,-2,-6,-5,3,1
13:51:39:971552,-13,-3,9,10,1,0,-5,-3
13:51:39:978994,-2,-1,-2,30,11,4,-4,2
13:51:39:986565,-2,-1,-2,30,11,4,-4,2
13:51:39:993983,-2,-8,-10,10,7,27,34,3
13:51:40:1516,4,1,0,-3,-12,-9,-6,-3
13:51:40:9697,4,1,0,-3,-12,-9,-6,-3
13:51:40:10471,20,10,2,-16,-11,-15,-7,-1
13:51:40:24662,-14,-14,-9,-10,1,17,19,3
13:51:40:25454,-14,-14,-9,-10,1,17,19,3
13:51:40:31508,-2,6,10,-4,-1,-3,-9,11
13:51:40:39078,-19,-3,6,-14,-2,-11,-19,14
13:51:40:46486,-19,-3,6,-14,-2,-11,-19,14
13:51:40:54038,-6,-9,0,7,2,-1,-7,5
13:51:40:61483,-5,0,12,-4,17,-7,0,-11
13:51:40:69730,-5,0,12,-4,17,-7,0,-11
13:51:40:70429,11,-1,4,19,5,-10,-7,-16
13:51:40:84679,5,-4,6,1,-5,5,0,-15
13:51:40:85466,5,-4,6,1,-5,5,0,-15
13:51:40:91453,6,0,2,-5,0,-1,-14,-8
13:51:40:98954,1,10,-6,-1,-16,-12,-8,-8
13:51:40:106591,1,10,-6,-1,-16,-12,-8,-8
13:51:40:113934,-10,0,-2,-5,-3,13,17,-8
13:51:40:121521,8,-8,-18,-20,-12,-18,-3,-4
13:51:40:129660,8,-8,-18,-20,-12,-18,-3,-4
13:51:40:130489,-14,-8,-15,-6,-7,-11,-11,-5
13:51:40:144650,4,1,-2,6,5,5,4,-7
13:51:40:145499,4,1,-2,6,5,5,4,-7
13:51:40:151444,4,3,2,-17,-3,-3,-4,-2
13:51:40:158995,3,3,5,3,6,7,-6,-1
13:51:40:166559,3,3,5,3,6,7,-6,-1
13:51:40:173960,-4,-10,-2,-12,-2,10,-3,5
13:51:40:181505,-13,0,-18,-6,2,5,-7,5
13:51:40:189818,-13,0,-18,-6,2,5,-7,5
13:51:40:190451,-8,-4,11,7,-10,0,-7,-3
13:51:40:204797,19,8,8,14,-4,-3,1,5
13:51:40:205520,19,8,8,14,-4,-3,1,5
13:51:40:211423,2,-7,-1,25,1,-8,-2,-2
13:51:40:219007,-6,4,22,-3,-1,-5,-7,1
13:51:40:226613,-6,4,22,-3,-1,-5,-7,1
13:51:40:234026,-2,-8,-5,-8,-3,-4,1,-2
13:51:40:241489,-7,-10,-11,-19,-11,-6,-2,-1
13:51:40:249755,-7,-10,-11,-19,-11,-6,-2,-1
13:51:40:250495,-3,-7,-2,-12,-1,-7,-1,4
13:51:40:264689,5,-2,-3,9,2,5,1,1
13:51:40:265560,5,-2,-3,9,2,5,1,1
13:51:40:271564,6,12,3,3,0,-1,-7,-2
13:51:40:278952,-17,-2,-5,-5,-8,1,1,-1
13:51:40:286575,-17,-2,-5,-5,-8,1,1,-1
13:51:40:294016,1,-6,-8,6,8,-8,3,-2
13:51:40:301539,4,1,3,0,6,6,2,-1
13:51:40:309713,4,1,3,0,6,6,2,-1
13:51:40:310483,-11,-8,-5,-9,-2,-5,-9,7
13:51:40:324707,-3,6,5,4,8,9,-2,1
13:51:40:325478,-3,6,5,4,8,9,-2,1
13:51:40:331555,18,20,6,11,-1,4,4,3
13:51:40:339090,-13,-15,11,7,5,-1,-1,2
13:51:40:346489,-13,-15,11,7,5,-1,-1,2
13:51:40:354028,-11,-2,-9,-13,-4,74,1,-3
13:51:40:361454,33,9,-20,-5,-7,10,-3,-6
13:51:40:369776,33,9,-20,-5,-7,10,-3,-6
13:51:40:370451,0,-6,2,13,16,-34,-3,-6
13:51:40:384758,-6,-13,-12,-3,0,-36,-12,-1
13:51:40:385465,-6,-13,-12,-3,0,-36,-12,-1
13:51:40:391475,0,8,0,-7,5,-18,-1,-6
13:51:40:398963,-3,-1,2,-11,-12,-28,-9,-5
13:51:40:406600,-3,-1,2,-11,-12,-28,-9,-5
13:51:40:413937,-13,-4,9,11,2,-11,-2,-4
13:51:40:421566,-3,-2,-2,-9,-5,1,-1,-2
13:51:40:429692,-3,-2,-2,-9,-5,1,-1,-2
13:51:40:430481,5,3,10,-39,-22,-11,0,0
13:51:40:444696,1,-4,6,13,18,20,6,-1
13:51:40:445466,1,-4,6,13,18,20,6,-1
13:51:40:451505,5,4,-6,13,4,1,3,4
13:51:40:458972,0,2,12,-4,-7,-7,1,-3
13:51:40:466613,0,2,12,-4,-7,-7,1,-3
13:51:40:473997,1,7,-7,-4,-4,2,5,0
13:51:40:481460,-5,1,4,4,-3,6,10,4
13:51:40:489115,-5,1,4,4,-3,6,10,4
13:51:40:496452,-1,0,15,0,-11,-6,2,1
13:51:40:504674,11,3,8,2,-2,3,0,1
13:51:40:505434,11,3,8,2,-2,3,0,1
13:51:40:511478,-5,-4,-17,-20,-13,-8,-6,2
13:51:40:527121,2,2,0,14,6,-1,-2,-3
13:51:40:527909,2,2,0,14,6,-1,-2,-3
13:51:40:534010,4,-12,-9,1,9,19,11,2
13:51:40:541470,-11,-11,-5,11,-3,0,-1,-2
13:51:40:549054,-11,-11,-5,11,-3,0,-1,-2
13:51:40:556536,-1,2,12,4,12,-6,-11,-4
13:51:40:564652,-16,-24,-8,5,2,17,8,3
13:51:40:565444,-16,-24,-8,5,2,17,8,3
13:51:40:571550,-2,-5,-10,0,-8,-12,0,-8
13:51:40:587263,-1,4,-36,-4,7,5,-3,2
13:51:40:587977,-1,4,-36,-4,7,5,-3,2
13:51:40:593974,4,-7,1,5,0,-3,1,2
13:51:40:601532,-7,2,8,13,-12,-10,-3,-5
13:51:40:609029,-7,2,8,13,-12,-10,-3,-5
13:51:40:616510,4,0,-7,12,15,21,-6,2
13:51:40:624721,-3,3,6,-8,-5,2,5,3
13:51:40:625461,-3,3,6,-8,-5,2,5,3
13:51:40:631427,-17,-15,10,-6,5,3,-3,-6
13:51:40:647230,10,5,10,-3,1,-7,-3,0
13:51:40:647989,10,5,10,-3,1,-7,-3,0
13:51:40:654057,3,4,-15,-16,-19,-17,-7,-4
13:51:40:661421,2,-7,-10,-16,-15,-3,2,0
13:51:40:669104,2,-7,-10,-16,-15,-3,2,0
13:51:40:676451,-2,-3,1,14,16,4,1,3
13:51:40:684709,-7,4,-7,-20,-1,-10,-1,-8
13:51:40:685510,-7,4,-7,-20,-1,-10,-1,-8
13:51:40:691494,-10,-10,-7,11,-11,-3,0,-3
13:51:40:715342,2,10,10,9,7,-6,-3,-2
13:51:40:716132,2,10,10,9,7,-6,-3,-2
13:51:40:716944,11,9,4,-3,-1,1,14,7
13:51:40:721571,-10,-13,-8,-12,-5,4,2,-8
13:51:40:728991,-10,-13,-8,-12,-5,4,2,-8
13:51:40:736539,-4,2,3,5,-7,-4,-6,2
13:51:40:744657,-7,-3,-14,-1,2,-4,-9,1
13:51:40:745500,-7,-3,-14,-1,2,-4,-9,1
13:51:40:751486,-17,-9,2,3,3,15,10,-1
13:51:40:767195,0,4,-3,4,-4,1,3,5
13:51:40:767967,0,4,-3,4,-4,1,3,5
13:51:40:773977,-3,-2,-25,6,0,0,-1,31
13:51:40:781441,2,-2,-3,-11,3,-14,-4,5
13:51:40:789092,2,-2,-3,-11,3,-14,-4,5
13:51:40:796492,-4,-1,-10,-3,-1,1,1,-18
13:51:40:804787,6,4,10,6,1,1,-1,-16
13:51:40:805503,6,4,10,6,1,1,-1,-16
13:51:40:811492,-10,2,21,28,-4,-1,0,-15
13:51:40:827250,-4,4,1,11,-4,5,-2,-7
13:51:40:827976,-4,4,1,11,-4,5,-2,-7
13:51:40:834010,12,11,8,-12,2,-11,-8,-1
13:51:40:841548,-4,-8,5,-4,12,-2,-6,8
13:51:40:849063,-4,-8,5,-4,12,-2,-6,8
13:51:40:865330,6,21,0,-12,3,5,7,5
13:51:40:866154,0,11,-22,-13,-19,-1,-2,0
13:51:40:866963,0,11,-22,-13,-19,-1,-2,0
13:51:40:871534,1,-1,7,-11,11,-12,-4,-5
13:51:40:887235,17,8,3,4,8,1,3,0
13:51:40:888017,17,8,3,4,8,1,3,0
13:51:40:893921,-4,-4,5,-3,-7,-1,2,-6
13:51:40:901509,-9,-25,-18,-12,0,4,4,-2
13:51:40:909074,-9,-25,-18,-12,0,4,4,-2
13:51:40:916638,0,0,12,-5,-16,0,-12,2
13:51:40:924703,2,6,9,5,-6,0,-2,6
13:51:40:925489,2,6,9,5,-6,0,-2,6
13:51:40:931477,7,-2,-11,-1,6,3,-1,-1
13:51:40:947192,-4,5,33,0,-13,3,-3,-1
13:51:40:947974,-4,5,33,0,-13,3,-3,-1
13:51:40:954079,7,-7,4,16,-3,-5,0,-1
13:51:40:961434,9,8,-6,-3,13,1,4,-6
13:51:40:969112,9,8,-6,-3,13,1,4,-6
13:51:40:976486,-7,-10,-23,-19,2,2,-3,-5
13:51:40:984657,6,3,-19,-6,6,4,-8,2
13:51:40:985409,6,3,-19,-6,6,4,-8,2
13:51:40:991510,-2,6,-4,-9,-11,-4,-1,-6
13:51:41:7210,-1,2,-8,-7,-5,-5,1,0
13:51:41:8020,-1,2,-8,-7,-5,-5,1,0
13:51:41:13966,-16,-15,0,-30,-3,-36,-24,-1
13:51:41:21544,17,0,12,9,10,6,8,1
13:51:41:29015,17,0,12,9,10,6,8,1
13:51:41:36569,-10,-12,0,26,15,15,20,-1
13:51:41:44644,-3,-14,-8,-13,-6,-1,-6,1
13:51:41:45451,-3,-14,-8,-13,-6,-1,-6,1
13:51:41:51483,2,9,8,-7,-6,-10,-11,-6
13:51:41:67224,-7,-1,6,-6,1,3,5,3
13:51:41:67985,-7,-1,6,-6,1,3,5,3
13:51:41:74017,5,3,11,-1,-3,12,8,10
13:51:41:81467,0,1,8,7,-10,2,-3,-3
13:51:41:89074,0,1,8,7,-10,2,-3,-3
13:51:41:96441,7,0,4,18,-2,-1,-15,-8
13:51:41:104731,4,-6,-16,10,-6,2,12,-2
13:51:41:105486,4,-6,-16,10,-6,2,12,-2
13:51:41:111441,-9,-8,-14,-32,-14,9,2,-4
13:51:41:127169,-13,-11,-9,-6,2,-2,-7,-3
13:51:41:127962,-13,-11,-9,-6,2,-2,-7,-3
13:51:41:133968,10,9,-7,-3,-1,4,5,5
13:51:41:141469,-3,19,17,-3,6,-14,-3,4
13:51:41:149156,-3,19,17,-3,6,-14,-3,4
13:51:41:156487,1,-2,-20,-1,-11,-13,-9,-2
13:51:41:164665,7,0,10,21,1,3,1,0
13:51:41:165533,7,0,10,21,1,3,1,0
13:51:41:171542,-16,-20,6,16,6,-10,-7,-4
13:51:41:187281,-6,0,2,3,6,-1,-7,-1
13:51:41:187979,-6,0,2,3,6,-1,-7,-1
13:51:41:193963,7,8,3,-3,-12,-12,-8,-5
13:51:41:201461,-1,-1,6,9,8,0,-9,1
13:51:41:209042,-1,-1,6,9,8,0,-9,1
13:51:41:216581,9,12,1,-15,3,10,9,12
13:51:41:224710,-3,-10,-14,-8,-10,-1,14,4
13:51:41:225500,-3,-10,-14,-8,-10,-1,14,4
13:51:41:231469,5,3,10,2,3,3,3,0
13:51:41:247189,-11,-24,-22,-5,-9,-9,-8,-6
13:51:41:247958,-11,-24,-22,-5,-9,-9,-8,-6
13:51:41:254053,-10,-2,-12,17,6,5,5,-5
13:51:41:261490,-6,-6,5,-5,7,3,0,2
13:51:41:269109,-6,-6,5,-5,7,3,0,2
13:51:41:276473,-1,3,5,0,3,1,-1,1
13:51:41:284667,-2,3,0,4,6,-1,17,2
13:51:41:285419,-2,3,0,4,6,-1,17,2
13:51:41:291522,-11,-13,17,24,5,16,17,-5
13:51:41:307144,10,9,3,8,-7,8,15,0
13:51:41:307954,10,9,3,8,-7,8,15,0
13:51:41:313985,1,4,-11,-13,-5,-2,4,-5
13:51:41:329684,1,4,-11,-13,-5,-2,4,-5
13:51:41:330495,-14,0,9,-9,1,-8,-29,-4
13:51:41:336572,3,-9,-8,-8,-8,-9,-27,-2
13:51:41:344642,3,-9,-8,-8,-8,-9,-27,-2
13:51:41:345426,8,-2,-22,-9,5,6,-1,4
13:51:41:351505,-13,6,-4,-8,-4,-4,-7,1
13:51:41:367256,-13,6,-4,-8,-4,-4,-7,1
13:51:41:368013,-9,6,1,-9,-8,-14,-14,-8
13:51:41:373991,8,4,-6,-3,9,-2,-2,6
13:51:41:389687,8,4,-6,-3,9,-2,-2,6
13:51:41:390497,1,-1,15,-9,1,4,2,-2
13:51:41:396459,9,-6,-7,-17,-4,-4,-4,-6
13:51:41:404783,9,-6,-7,-17,-4,-4,-4,-6
13:51:41:405523,2,1,-12,21,11,-13,-15,-8
13:51:41:411438,0,3,2,7,2,12,5,3
13:51:41:435330,0,3,2,7,2,12,5,3
13:51:41:436083,3,10,16,24,-2,-2,4,1
13:51:41:436936,-7,-8,-2,-10,3,-10,-6,-6
13:51:41:449813,-7,-8,-2,-10,3,-10,-6,-6
13:51:41:450497,14,1,-2,-13,-20,-4,-6,-4
13:51:41:456564,8,12,-5,5,0,4,17,3
13:51:41:464690,8,12,-5,5,0,4,17,3
13:51:41:465484,-5,-10,-4,-2,5,11,17,1
13:51:41:478983,-6,8,1,-3,-10,-11,-3,-4
13:51:41:487246,-6,8,1,-3,-10,-11,-3,-4
13:51:41:487949,-13,-4,-15,-5,2,-6,-12,-2
13:51:41:493940,4,4,-1,-14,7,3,0,5
