Time,EMG1,EMG2,EMG3,EMG4,EMG5,EMG6,EMG7,EMG8
20:23:48:33259,-1,-2,-2,-3,-1,-1,0,0
20:23:48:34015,-1,-2,-2,-3,-1,-1,0,0
20:23:48:40032,0,-2,-2,0,-2,-1,-2,0
20:23:48:55620,0,0,-2,0,1,0,-1,0
20:23:48:56481,0,0,-2,0,1,0,-1,0
20:23:48:62534,-1,-1,0,-1,-1,0,-1,-1
20:23:48:70026,0,-1,-2,-1,1,1,0,0
20:23:48:77509,0,-1,-2,-1,1,1,0,0
20:23:48:85017,-1,-2,-1,-1,0,-1,0,-1
20:23:48:93264,-3,-3,-1,-1,-1,-1,-1,-2
20:23:48:94035,-3,-3,-1,-1,-1,-1,-1,-2
20:23:48:100014,-1,-1,-1,-1,0,-2,-1,1
20:23:48:115694,-2,-2,-1,2,-2,0,-2,-1
20:23:48:116552,-2,-2,-1,2,-2,0,-2,-1
20:23:48:122528,-2,0,-1,-1,-1,-1,-1,-1
20:23:48:130049,-1,-1,0,-2,-1,-4,-1,0
20:23:48:137532,-1,-1,0,-2,-1,-4,-1,0
20:23:48:145002,0,-1,-3,-2,0,-1,0,-1
20:23:48:153292,0,-1,-1,-1,-2,-1,0,-1
20:23:48:154025,0,-1,-1,-1,-2,-1,0,-1
20:23:48:160037,0,0,1,-2,1,-1,-1,-1
20:23:48:175800,-1,1,0,-1,-3,1,-1,0
20:23:48:176536,-1,1,0,-1,-3,1,-1,0
20:23:48:182561,-2,-1,-2,-1,-3,0,0,-2
20:23:48:190022,1,0,-2,-1,0,-1,-1,-1
20:23:48:197542,1,0,-2,-1,0,-1,-1,-1
20:23:48:205032,-1,-1,-1,-2,-2,0,-1,-1
20:23:48:213254,-3,-4,-1,-2,1,-1,-2,0
20:23:48:214011,-3,-4,-1,-2,1,-1,-2,0
20:23:48:220012,0,-2,0,1,-1,-1,-2,-1
20:23:48:235779,0,0,0,-2,0,-1,-1,-2
20:23:48:236561,0,0,0,-2,0,-1,-1,-2
20:23:48:242545,-2,-3,-1,-1,0,-2,-1,-1
20:23:48:250071,-1,-2,-2,0,-1,-1,-2,-2
20:23:48:257679,-1,-2,-2,0,-1,-1,-2,-2
20:23:48:265079,-1,-1,-2,-1,1,-1,-1,0
20:23:48:273258,0,-1,-2,-4,0,-1,0,0
20:23:48:274001,0,-1,-2,-4,0,-1,0,0
20:23:48:280038,0,-1,0,0,0,-2,-1,0
20:23:48:295643,-1,0,-1,-1,-3,-2,-1,-3
20:23:48:296513,-1,0,-1,-1,-3,-2,-1,-3
20:23:48:302503,-2,-1,0,-1,-3,-1,0,0
20:23:48:310013,-1,0,0,-1,1,0,1,-2
20:23:48:317581,-1,0,0,-1,1,0,1,-2
20:23:48:325039,0,-2,-2,0,-1,-1,0,0
20:23:48:333273,-3,1,-1,1,-2,-2,0,-1
20:23:48:334009,-3,1,-1,1,-2,-2,0,-1
20:23:48:340051,1,0,0,-1,-2,-1,-2,-1
20:23:48:355688,0,-3,-1,-2,-2,-2,-1,1
20:23:48:356590,0,-3,-1,-2,-2,-2,-1,1
20:23:48:362544,-1,-2,-2,-1,0,0,-1,-3
20:23:48:370060,1,-1,-1,0,-1,-1,0,-1
20:23:48:377521,1,-1,-1,0,-1,-1,0,-1
20:23:48:385028,0,1,0,0,-2,-1,-1,-2
20:23:48:393291,-3,-1,0,-2,-1,0,-3,-1
20:23:48:394014,-3,-1,0,-2,-1,0,-3,-1
20:23:48:400031,0,2,-1,-2,-1,-1,-1,-2
20:23:48:423910,-1,0,0,1,-1,-2,-1,-2
20:23:48:424666,-1,0,0,1,-1,-2,-1,-2
20:23:48:425529,-2,-1,-1,-2,0,0,-3,0
20:23:48:430047,-1,-2,-1,-2,-1,1,0,-1
20:23:48:437572,-1,-2,-1,-2,-1,1,0,-1
20:23:48:445049,-1,-2,-1,-1,-2,-2,-1,-2
20:23:48:453334,-1,-2,0,-1,-1,1,-1,1
20:23:48:454016,-1,-2,0,-1,-1,1,-1,1
20:23:48:460063,-1,-1,0,-1,-2,1,1,1
20:23:48:475658,-1,0,0,0,0,-1,0,-2
20:23:48:476515,-1,0,0,0,0,-1,0,-2
20:23:48:482537,0,-1,-2,-1,-1,-1,1,-1
20:23:48:490070,0,-2,-3,-1,-1,-2,-1,-2
20:23:48:497547,0,-2,-3,-1,-1,-2,-1,-2
20:23:48:505021,-3,-1,-1,1,-1,-2,-2,-2
20:23:48:513284,-2,-1,-1,-1,0,1,-1,-1
20:23:48:514025,-2,-1,-1,-1,0,1,-1,-1
20:23:48:520040,-1,-2,-2,-2,1,-1,1,-1
20:23:48:535665,-1,-1,1,-1,-1,0,-1,0
20:23:48:536529,-1,-1,1,-1,-1,0,-1,0
20:23:48:542552,0,-1,0,-1,0,-1,-1,-2
20:23:48:550054,0,1,-1,-3,1,-3,-2,-1
20:23:48:557546,0,1,-1,-3,1,-3,-2,-1
20:23:48:565022,-4,-2,-1,-2,-3,-1,-3,-1
20:23:48:573262,0,-1,-1,0,-1,-1,-2,-2
20:23:48:573988,0,-1,-1,0,-1,-1,-2,-2
20:23:48:580067,-1,-1,1,0,0,-1,-1,-1
20:23:48:595808,-1,0,-1,-2,0,-3,0,0
20:23:48:596504,-1,0,-1,-2,0,-3,0,0
20:23:48:602529,-1,0,-1,-1,-1,1,-1,-1
20:23:48:610018,-1,-2,-1,0,0,1,0,0
20:23:48:617674,-1,-2,-1,0,0,1,0,0
20:23:48:625029,-1,-1,-1,1,-1,-1,-1,0
20:23:48:633181,-2,-1,-2,1,-2,0,-2,-2
20:23:48:634031,-2,-1,-2,1,-2,0,-2,-2
20:23:48:640040,-2,-1,0,-2,0,-1,-1,-1
20:23:48:655771,-2,-3,-1,-1,-3,-1,0,-1
20:23:48:656524,-2,-3,-1,-1,-3,-1,0,-1
20:23:48:662523,0,-1,1,0,0,0,-2,-2
20:23:48:670019,-3,1,-2,-3,1,-2,-3,-2
20:23:48:677517,-3,1,-2,-3,1,-2,-3,-2
20:23:48:685056,-2,0,-2,-2,-1,-2,-2,-1
20:23:48:693272,-2,-2,0,1,-1,-2,-2,0
20:23:48:694038,-2,-2,0,1,-1,-2,-2,0
20:23:48:700030,-1,0,-1,1,1,-2,0,-1
20:23:48:715669,0,1,-2,-2,-3,-1,-1,-3
20:23:48:716520,0,1,-2,-2,-3,-1,-1,-3
20:23:48:722539,-2,0,-1,-1,-3,0,-2,0
20:23:48:730039,-1,-2,0,0,-2,-1,0,1
20:23:48:737530,-1,-2,0,0,-2,-1,0,1
20:23:48:745038,0,-2,-3,0,-1,-2,-2,-1
20:23:48:753309,-2,-2,0,0,-1,-1,-1,0
20:23:48:754042,-2,-2,0,0,-1,-1,-1,0
20:23:48:767542,0,-1,-1,-1,-1,-2,-1,-1
20:23:48:775670,0,-1,-3,-1,-1,1,-1,-2
20:23:48:776519,0,-1,-3,-1,-1,1,-1,-2
20:23:48:782523,-1,-1,-1,-1,0,-2,0,0
20:23:48:790044,-2,-3,-3,-3,-2,-1,-1,-2
20:23:48:797543,-2,-3,-3,-3,-2,-1,-1,-2
20:23:48:805021,-1,1,-1,-2,-1,0,0,-1
20:23:48:813279,-1,1,0,0,-2,-2,-2,0
20:23:48:814030,-1,1,0,0,-2,-2,-2,0
20:23:48:820042,1,-3,-1,-3,-1,-2,0,0
20:23:48:835658,0,-1,0,-3,-1,1,1,-3
20:23:48:836506,0,-1,0,-3,-1,1,1,-3
20:23:48:842516,0,-2,-1,0,-3,0,0,-2
20:23:48:850024,-1,-1,-2,-2,-2,-1,-1,1
20:23:48:857534,-1,-1,-2,-2,-2,-1,-1,1
20:23:48:865064,-2,-1,0,-1,-1,-1,-1,-1
20:23:48:873277,-1,-2,1,0,0,0,-1,-1
20:23:48:874044,-1,-2,1,0,0,0,-1,-1
20:23:48:880048,-1,-4,-1,-1,-2,-1,-2,-1
20:23:48:895759,-1,1,0,1,1,-3,1,-2
20:23:48:896520,-1,1,0,1,1,-3,1,-2
20:23:48:902556,-1,-1,-2,1,-2,0,0,-1
20:23:48:910048,-1,-2,-1,-1,-3,0,-2,-2
20:23:48:917521,-1,-2,-1,-1,-3,0,-2,-2
20:23:48:925085,-1,-3,-2,-2,0,-1,1,-3
20:23:48:933294,-2,-2,-1,-1,-1,-2,-1,0
20:23:48:933910,-2,-2,-1,-1,-1,-2,-1,0
20:23:48:947534,-1,-1,-2,0,-1,-1,-3,-1
20:23:48:955815,0,-2,-1,0,1,0,-1,-1
20:23:48:956515,0,-2,-1,0,1,0,-1,-1
20:23:48:962518,-2,1,-1,0,-2,-2,-1,-1
20:23:48:978276,0,0,-2,-1,1,-2,-2,-1
20:23:48:979014,0,0,-2,-1,1,-2,-2,-1
20:23:48:985044,0,0,0,0,-1,0,-2,-3
20:23:48:993274,0,1,-1,-3,-1,0,-1,-1
20:23:48:994014,0,1,-1,-3,-1,0,-1,-1
20:23:49:7518,-1,0,-1,-3,0,-1,0,-1
20:23:49:15811,-1,0,-1,-3,0,-1,0,-1
20:23:49:16532,-1,-1,0,2,-1,-3,-1,-1
20:23:49:22550,0,-1,0,0,0,-2,-2,0
20:23:49:38299,0,-1,0,0,0,-2,-2,0
20:23:49:39035,-2,-2,0,0,-2,0,0,-1
20:23:49:53898,-1,-1,-1,-1,-3,-1,0,-1
20:23:49:54659,-1,-1,-1,-1,-3,-1,0,-1
20:23:49:55544,0,-2,-1,-1,-1,-1,-1,-2
20:23:49:67556,0,-1,-2,-3,1,1,0,-1
20:23:49:75779,0,-1,-2,-3,1,1,0,-1
20:23:49:76568,0,0,-1,-3,-2,-2,-1,-2
20:23:49:82519,-2,-2,0,-3,4,0,-1,1
20:23:49:98268,-2,-2,0,-3,4,0,-1,1
20:23:49:99009,0,-1,1,4,-5,-2,-2,-1
20:23:49:105062,-1,-2,0,4,-7,-5,-2,-1
20:23:49:113264,-1,-2,0,4,-7,-5,-2,-1
20:23:49:114004,-1,1,0,-29,-12,-2,-1,1
20:23:49:127518,1,-1,-3,36,42,9,3,0
20:23:49:135676,1,-1,-3,36,42,9,3,0
20:23:49:136525,-1,-3,-5,0,11,4,-1,0
20:23:49:150068,-2,-2,-5,-3,-20,-5,-2,-1
20:23:49:158287,-2,-2,-5,-3,-20,-5,-2,-1
20:23:49:159052,-1,-1,-6,-36,-9,-1,-2,-1
20:23:49:165026,0,-2,-3,1,2,0,-2,0
20:23:49:188917,0,-2,-3,1,2,0,-2,0
20:23:49:189636,-1,-1,0,7,0,2,0,-2
20:23:49:190509,1,-2,0,-8,-6,-4,-1,-1
20:23:49:195818,1,-2,0,-8,-6,-4,-1,-1
20:23:49:196517,-2,-2,1,26,15,3,2,1
20:23:49:202555,-1,-1,3,1,1,0,-3,-2
20:23:49:218297,-1,-1,3,1,1,0,-3,-2
20:23:49:219024,1,-1,0,-25,-1,-8,1,-2
20:23:49:225044,-2,-1,-3,-25,-19,-7,-2,-1
20:23:49:240761,-2,-1,-3,-25,-19,-7,-2,-1
20:23:49:241498,-1,0,-2,5,-7,-2,1,-2
20:23:49:247588,0,-1,-1,-6,-4,-3,-1,-2
20:23:49:255775,0,-1,-1,-6,-4,-3,-1,-2
20:23:49:256518,-3,-1,1,3,4,0,-2,-2
20:23:49:262512,0,1,-4,-25,-3,0,-2,-2
20:23:49:278301,0,1,-4,-25,-3,0,-2,-2
20:23:49:279080,-1,-4,-4,0,5,0,-2,-3
20:23:49:285075,0,-1,0,1,-2,2,2,0
20:23:49:300833,0,-1,0,1,-2,2,2,0
20:23:49:301550,0,-1,0,8,-6,-1,-2,-2
20:23:49:307557,-2,0,0,0,1,0,-4,-2
20:23:49:315812,-2,0,0,0,1,0,-4,-2
20:23:49:316558,-1,0,3,19,-1,0,0,0
20:23:49:322535,-1,0,-1,4,-1,-6,-1,-1
20:23:49:338321,-1,0,-1,4,-1,-6,-1,-1
20:23:49:339081,-1,0,8,22,11,3,2,1
20:23:49:345018,-1,-5,-3,-8,-1,-1,-2,-1
20:23:49:360650,-1,-5,-3,-8,-1,-1,-2,-1
20:23:49:361530,-1,-2,-9,27,10,1,-2,0
20:23:49:367560,-2,-1,1,11,2,0,0,1
20:23:49:375711,-2,-1,1,11,2,0,0,1
20:23:49:376562,-3,0,7,-17,-12,-5,-1,-1
20:23:49:382539,-3,-1,31,20,-3,-2,-3,-1
20:23:49:398277,-3,-1,31,20,-3,-2,-3,-1
20:23:49:399055,-3,-5,-10,-4,7,3,-2,-1
20:23:49:405058,-5,-5,-5,-8,-3,-4,-2,-3
20:23:49:420686,-5,-5,-5,-8,-3,-4,-2,-3
20:23:49:421560,3,3,8,-5,-6,0,-3,1
20:23:49:427529,3,2,1,-2,2,3,3,2
20:23:49:443902,3,2,1,-2,2,3,3,2
20:23:49:444795,1,2,1,-7,-4,-3,-1,-3
20:23:49:445528,-1,0,-9,-4,-2,-1,1,-1
20:23:49:458300,-1,0,-9,-4,-2,-1,1,-1
20:23:49:459035,-1,-2,6,-3,-2,-1,1,-1
20:23:49:465057,1,3,11,-5,1,2,1,-2
20:23:49:480789,1,3,11,-5,1,2,1,-2
20:23:49:481518,3,1,14,9,-4,0,-1,1
20:23:49:487570,-3,-1,-8,-3,-1,-1,-2,0
20:23:49:495825,-3,-1,-8,-3,-1,-1,-2,0
20:23:49:496557,-2,-3,-2,-4,-5,-3,-2,-1
20:23:49:502560,4,1,6,0,2,3,-1,-1
20:23:49:518275,4,1,6,0,2,3,-1,-1
20:23:49:519049,6,0,-1,-7,0,-1,0,6
20:23:49:525042,14,-8,-29,-23,-2,-2,-3,0
20:23:49:540791,14,-8,-29,-23,-2,-2,-3,0
20:23:49:541539,-19,-3,-2,-5,-2,-3,-1,-2
20:23:49:547585,-5,1,33,14,0,-3,-1,-3
20:23:49:555809,-5,1,33,14,0,-3,-1,-3
20:23:49:556534,7,-6,-4,-14,-3,-2,-2,1
20:23:49:562558,-17,0,-23,-5,-6,-2,-4,-8
20:23:49:578312,-17,0,-23,-5,-6,-2,-4,-8
20:23:49:579061,-1,4,-8,5,3,1,-3,-7
20:23:49:592556,6,-4,-5,1,0,-1,-3,6
20:23:49:600823,6,-4,-5,1,0,-1,-3,6
20:23:49:601562,0,-1,-14,-1,-3,-1,0,1
20:23:49:607525,2,4,-3,-4,-1,-2,-1,0
20:23:49:615820,2,4,-3,-4,-1,-2,-1,0
20:23:49:616553,-14,-2,23,6,0,-1,-1,-2
20:23:49:622553,8,-16,-17,3,0,1,1,-2
20:23:49:638294,8,-16,-17,3,0,1,1,-2
20:23:49:639039,1,-5,-28,-12,-4,-5,-3,-5
20:23:49:645046,-2,7,10,8,-1,-2,2,-1
20:23:49:660656,-2,7,10,8,-1,-2,2,-1
20:23:49:661528,11,-5,-15,-3,-3,3,-1,3
20:23:49:676332,-3,2,-10,-2,-2,-2,0,-2
20:23:49:677134,-3,2,-10,-2,-2,-2,0,-2
20:23:49:678017,-1,-9,-15,5,1,1,2,1
20:23:49:682537,-1,2,6,8,5,6,1,2
20:23:49:698278,-1,2,6,8,5,6,1,2
20:23:49:699018,-11,-4,19,-4,-1,-3,-5,-6
20:23:49:705031,-2,-2,12,3,0,-3,3,2
20:23:49:720789,-2,-2,12,3,0,-3,3,2
20:23:49:721517,-11,-6,-26,-7,-8,-7,-6,-3
20:23:49:727556,-1,-3,-8,-7,2,3,-1,1
20:23:49:735678,-1,-3,-8,-7,2,3,-1,1
20:23:49:736542,9,6,16,-11,0,0,0,-3
20:23:49:742572,-4,18,-8,0,1,-4,-3,-2
20:23:49:758660,-4,18,-8,0,1,-4,-3,-2
20:23:49:759401,6,-4,-34,1,1,-1,-1,-1
20:23:49:765068,-2,7,10,4,-3,-1,-3,-3
20:23:49:788948,-2,7,10,4,-3,-1,-3,-3
20:23:49:789683,-7,-8,-6,-3,-3,-2,0,-3
20:23:49:790531,-4,-8,-23,0,1,-1,-1,-2
20:23:49:795792,-4,-8,-23,0,1,-1,-1,-2
20:23:49:796523,-1,-4,-9,-6,-3,-1,1,1
20:23:49:802529,-1,0,20,-2,-3,-2,-3,-1
20:23:49:818318,-1,0,20,-2,-3,-2,-3,-1
20:23:49:819051,3,-3,-15,-5,2,2,-3,2
20:23:49:825030,-4,-8,-3,-7,-6,-6,-2,-2
20:23:49:840690,-4,-8,-3,-7,-6,-6,-2,-2
20:23:49:841533,2,5,17,11,3,0,3,2
20:23:49:847532,-4,-10,-7,-2,-1,1,-3,-1
20:23:49:855805,-4,-10,-7,-2,-1,1,-3,-1
20:23:49:856523,-1,2,5,2,3,-2,-3,-2
20:23:49:862532,0,1,5,-6,-6,-1,-1,-1
20:23:49:878275,0,1,5,-6,-6,-1,-1,-1
20:23:49:879067,-2,9,21,3,0,0,2,-3
20:23:49:885062,-2,-7,-12,0,-2,-1,0,-2
20:23:49:900676,-2,-7,-12,0,-2,-1,0,-2
20:23:49:901537,0,3,7,10,20,7,2,0
20:23:49:916301,-1,17,-5,-11,-4,-1,0,-1
20:23:49:917161,-1,17,-5,-11,-4,-1,0,-1
20:23:49:918011,-2,7,26,1,-12,-4,-2,-1
20:23:49:930058,1,0,4,0,3,2,4,0
20:23:49:938291,1,0,4,0,3,2,4,0
20:23:49:939047,0,2,14,3,-1,-3,1,-1
20:23:49:945040,0,-9,-2,-3,-4,-4,-2,-2
20:23:49:960831,0,-9,-2,-3,-4,-4,-2,-2
20:23:49:961522,1,-6,-11,-5,-1,1,-2,-1
20:23:49:967524,0,10,4,5,2,2,2,-2
20:23:49:975794,0,10,4,5,2,2,2,-2
20:23:49:976534,-4,2,-12,-3,-4,-5,-4,-2
20:23:49:990081,0,-1,12,0,-2,-3,0,0
20:23:49:998287,0,-1,12,0,-2,-3,0,0
20:23:49:999040,-3,0,-4,-12,-7,-4,-5,-1
20:23:50:5076,5,-3,-10,-1,2,0,-1,0
20:23:50:12544,5,-3,-10,-1,2,0,-1,0
20:23:50:20055,-2,-7,-1,-9,-1,-1,-1,0
20:23:50:27545,-2,-5,0,1,-1,-2,-2,-1
20:23:50:35677,-2,-5,0,1,-1,-2,-2,-1
20:23:50:36550,2,17,12,9,0,0,-2,-2
20:23:50:50047,-2,-1,5,1,2,-2,-4,-1
20:23:50:58298,-2,-1,5,1,2,-2,-4,-1
20:23:50:59029,-3,-4,-8,1,2,-1,-3,-1
20:23:50:73295,2,-4,-3,10,3,0,4,10
20:23:50:74032,2,-4,-3,10,3,0,4,10
20:23:50:80072,-2,-1,-7,-4,-4,-3,-3,-16
20:23:50:87559,0,1,-7,-10,-5,-3,1,5
20:23:50:96441,0,1,-7,-10,-5,-3,1,5
20:23:50:97321,-1,2,5,6,8,-1,-1,-42
20:23:50:110082,-1,-3,2,-2,1,-1,0,9
20:23:50:118282,-1,-3,2,-2,1,-1,0,9
20:23:50:119024,4,-1,-3,-5,-4,4,6,22
20:23:50:133309,-1,-5,-15,-3,0,-3,-3,-6
20:23:50:134061,-1,-5,-15,-3,0,-3,-3,-6
20:23:50:140036,-3,-7,-1,3,-5,-4,-3,0
20:23:50:147599,-4,-3,-1,6,5,-2,-2,-2
20:23:50:155763,-4,-3,-1,6,5,-2,-2,-2
20:23:50:156516,-1,-5,-5,-4,-1,3,3,6
20:23:50:170053,1,-2,-2,-7,-5,-2,-2,-8
20:23:50:178327,1,-2,-2,-7,-5,-2,-2,-8
20:23:50:179033,0,-4,-1,-1,-3,-1,-1,7
20:23:50:185035,-6,-3,1,2,-1,1,-1,-7
20:23:50:192548,-6,-3,1,2,-1,1,-1,-7
20:23:50:200090,2,4,4,0,-3,-4,-3,6
20:23:50:207565,0,-4,-12,-4,-3,1,3,-3
20:23:50:215696,0,-4,-12,-4,-3,1,3,-3
20:23:50:216562,-1,-2,-1,-2,-2,-1,4,7
20:23:50:230046,-2,11,0,2,-4,0,-2,-5
20:23:50:238273,-2,11,0,2,-4,0,-2,-5
20:23:50:239015,-10,-26,-10,-6,3,-1,-1,-3
20:23:50:245034,0,-6,2,-5,-3,-2,-4,0
20:23:50:252527,0,-6,2,-5,-3,-2,-4,0
20:23:50:260026,-8,1,-2,8,-3,-1,-2,0
20:23:50:267535,1,3,4,1,-5,-3,-3,0
20:23:50:275663,1,3,4,1,-5,-3,-3,0
20:23:50:276527,3,5,-1,-2,-7,-1,-1,1
20:23:50:290066,-18,-8,7,1,-1,-2,-4,-2
20:23:50:298339,-18,-8,7,1,-1,-2,-4,-2
20:23:50:299027,1,-3,-10,-3,1,-2,0,0
20:23:50:305061,0,-2,-3,-5,-3,-2,-5,0
20:23:50:312564,0,-2,-3,-5,-3,-2,-5,0
20:23:50:320063,6,9,2,2,4,-2,-2,3
20:23:50:327536,4,-4,-9,-3,-3,-4,-6,-3
20:23:50:335664,4,-4,-9,-3,-3,-4,-6,-3
20:23:50:336569,6,4,-4,2,4,-2,1,1
20:23:50:350067,6,9,2,2,8,5,2,-1
20:23:50:358317,6,9,2,2,8,5,2,-1
20:23:50:359050,-14,-8,-1,1,-1,1,9,16
20:23:50:365022,-2,-1,3,0,0,0,-1,-31
20:23:50:372512,-2,-1,3,0,0,0,-1,-31
20:23:50:380066,2,0,3,-1,-3,-2,1,-4
20:23:50:387593,3,3,2,-3,0,-6,-3,3
20:23:50:395796,3,3,2,-3,0,-6,-3,3
20:23:50:396545,3,-2,-1,-3,-2,0,-5,1
20:23:50:418959,1,-7,-3,-3,-4,-4,-8,3
20:23:50:419703,1,-7,-3,-3,-4,-4,-8,3
20:23:50:420544,4,10,0,-14,-2,-1,7,-4
20:23:50:425044,-20,-14,-1,2,3,-1,-4,1
20:23:50:432571,-20,-14,-1,2,3,-1,-4,1
20:23:50:440035,-3,-1,-2,0,-4,-2,-1,-5
20:23:50:447552,1,1,1,1,1,5,12,-2
20:23:50:455805,1,1,1,1,1,5,12,-2
20:23:50:456524,-1,2,4,2,2,2,-10,-1
20:23:50:470064,14,4,1,0,0,4,7,11
20:23:50:478320,14,4,1,0,0,4,7,11
20:23:50:479035,5,5,0,3,2,-3,-8,-6
20:23:50:485070,0,3,2,3,0,0,-3,-4
20:23:50:492526,0,3,2,3,0,0,-3,-4
20:23:50:500047,-7,-6,-4,-2,-2,-4,0,5
20:23:50:523810,13,-18,-3,-2,-2,-1,-2,2
20:23:50:524692,13,-18,-3,-2,-2,-1,-2,2
20:23:50:525554,-1,-1,6,11,2,6,7,-5
20:23:50:530050,1,7,-2,-6,-5,-4,-1,2
20:23:50:538283,1,7,-2,-6,-5,-4,-1,2
20:23:50:539034,0,23,-2,-6,-1,1,-4,-16
20:23:50:545072,9,-57,-4,-2,-1,-7,-7,1
20:23:50:552534,9,-57,-4,-2,-1,-7,-7,1
20:23:50:560028,-7,-30,-4,-3,0,-3,0,4
20:23:50:567531,-78,9,5,3,14,3,-8,-3
20:23:50:575810,-78,9,5,3,14,3,-8,-3
20:23:50:576539,-9,33,-7,-1,-1,-3,-7,5
20:23:50:590072,6,13,3,2,1,-4,-13,0
20:23:50:598292,6,13,3,2,1,-4,-13,0
20:23:50:599038,-4,21,2,0,-8,0,-1,-3
20:23:50:605017,27,0,-3,4,-5,-2,-1,-6
20:23:50:628911,27,0,-3,4,-5,-2,-1,-6
20:23:50:629662,20,-15,-10,-5,-5,-7,-3,-1
20:23:50:630525,10,15,-3,1,1,6,20,14
20:23:50:635659,10,15,-3,1,1,6,20,14
20:23:50:636525,-10,-34,5,5,4,0,6,-6
20:23:50:650073,4,34,2,-1,-2,0,4,-2
20:23:50:658335,4,34,2,-1,-2,0,4,-2
20:23:50:658908,-9,-6,-1,-2,0,-2,-7,-2
20:23:50:665036,8,5,2,-6,-3,-1,-5,-5
20:23:50:672541,8,5,2,-6,-3,-1,-5,-5
20:23:50:680058,20,18,-10,-2,5,0,-3,-1
20:23:50:687563,3,-16,-1,-9,-4,-2,15,-1
20:23:50:695684,3,-16,-1,-9,-4,-2,15,-1
20:23:50:696543,-10,-2,1,-4,-1,-3,-8,0
20:23:50:710539,-21,-10,-10,10,4,0,4,-4
20:23:50:726409,-21,-10,-10,10,4,0,4,-4
20:23:50:727261,-1,-6,-3,-8,-5,-3,-5,0
20:23:50:728027,22,20,3,-8,-14,-5,-8,2
20:23:50:732508,22,20,3,-8,-14,-5,-8,2
20:23:50:740014,-11,15,6,0,5,2,4,-5
20:23:50:747550,-12,10,4,1,-1,-2,-4,0
20:23:50:756406,-12,10,4,1,-1,-2,-4,0
20:23:50:757283,-8,8,2,-1,-5,0,1,2
20:23:50:770054,-5,-12,-2,1,0,-2,-10,-2
20:23:50:778349,-5,-12,-2,1,0,-2,-10,-2
20:23:50:779074,-10,-19,-1,11,3,-1,1,-3
20:23:50:785063,-21,-31,-2,0,0,-4,-5,-7
20:23:50:800805,-21,-31,-2,0,0,-4,-5,-7
20:23:50:801550,3,5,0,-4,2,2,1,1
20:23:50:816437,3,-29,0,-2,3,1,0,1
20:23:50:817288,3,-29,0,-2,3,1,0,1
20:23:50:818027,0,-20,5,2,0,-1,-6,-2
20:23:50:830059,5,21,-2,-3,-2,-2,-10,2
20:23:50:838280,5,21,-2,-3,-2,-2,-10,2
20:23:50:839046,-15,-14,-3,0,-1,2,3,4
20:23:50:853312,15,-10,-5,-3,0,-2,-8,-2
20:23:50:854068,15,-10,-5,-3,0,-2,-8,-2
20:23:50:868298,19,20,2,-4,-8,-4,-7,1
20:23:50:869025,-11,11,-3,-6,-1,4,5,-3
20:23:50:875057,-11,11,-3,-6,-1,4,5,-3
20:23:50:882533,3,-19,1,8,1,0,19,2
20:23:50:890034,-5,-6,-1,0,-2,0,8,-2
20:23:50:905678,-5,-6,-1,0,-2,0,8,-2
20:23:50:906549,-13,-2,-6,-5,-3,-3,-6,-5
20:23:50:913289,18,-32,2,-4,-2,-4,-16,-3
20:23:50:913902,18,-32,2,-4,-2,-4,-16,-3
20:23:50:920067,-25,-11,-1,-2,4,6,-2,2
20:23:50:943927,5,11,-3,-4,-1,2,9,3
20:23:50:944694,5,11,-3,-4,-1,2,9,3
20:23:50:945557,24,3,0,-4,-4,-4,-14,-12
20:23:50:950071,-4,13,-2,2,1,3,11,5
20:23:50:958320,-4,13,-2,2,1,3,11,5
20:23:50:959028,6,-6,1,-3,-3,-3,5,3
20:23:50:973326,2,21,-4,-2,-2,-3,-1,-3
20:23:50:974059,2,21,-4,-2,-2,-3,-1,-3
20:23:50:980064,4,-8,-7,-3,-2,-2,-11,0
20:23:50:987563,14,31,6,1,-1,-1,-2,3
20:23:51:11436,14,31,6,1,-1,-1,-2,3
20:23:51:12199,-11,-11,-3,-3,-1,-1,17,1
20:23:51:13051,-7,-7,0,-1,-2,-1,9,3
20:23:51:17932,-7,-7,0,-1,-2,-1,9,3
20:23:51:25078,5,14,-1,-4,-4,-4,-6,-5
20:23:51:49565,0,19,0,-1,3,1,0,1
20:23:51:50278,0,19,0,-1,3,1,0,1
20:23:51:51167,12,21,0,0,-2,0,7,-2
20:23:51:51912,-1,10,2,1,-1,-1,-5,-4
20:23:51:55044,-1,10,2,1,-1,-1,-5,-4
20:23:51:62560,18,-33,-7,-3,-2,-1,-2,2
20:23:51:70082,-16,-8,-11,-4,0,0,1,-8
20:23:51:85828,-16,-8,-11,-4,0,0,1,-8
20:23:51:86549,15,39,4,-2,-3,-4,-17,1
20:23:51:93181,-21,-38,-4,1,-3,-1,-5,-3
20:23:51:94049,-21,-38,-4,1,-3,-1,-5,-3
20:23:51:100044,8,4,-1,-2,-3,-1,0,-2
20:23:51:107579,-20,-1,1,4,-1,-4,9,-5
20:23:51:115068,-20,-1,1,4,-1,-4,9,-5
20:23:51:122529,-14,-17,-6,6,0,-1,2,-2
20:23:51:130047,19,-11,0,-1,2,-1,4,-3
20:23:51:145673,19,-11,0,-1,2,-1,4,-3
20:23:51:146532,-8,7,-3,-4,0,-1,-3,-4
20:23:51:153163,5,15,-1,5,2,0,-9,-10
20:23:51:154039,5,15,-1,5,2,0,-9,-10
20:23:51:160036,-25,8,5,3,2,4,11,3
20:23:51:167550,-4,6,1,-3,-2,-5,-8,-1
20:23:51:175052,-4,6,1,-3,-2,-5,-8,-1
20:23:51:182549,15,3,-1,2,-2,-7,-16,2
20:23:51:190069,0,-8,3,-8,-3,0,-2,15
20:23:51:198322,0,-8,3,-8,-3,0,-2,15
20:23:51:199014,-4,-43,-6,0,0,-2,-10,-25
20:23:51:213345,12,18,-1,-4,-1,-2,-1,2
20:23:51:214065,12,18,-1,-4,-1,-2,-1,2
20:23:51:228203,16,18,-10,-5,-1,-1,3,9
20:23:51:228948,0,-25,-1,2,-2,0,14,-2
20:23:51:235062,0,-25,-1,2,-2,0,14,-2
20:23:51:242551,-4,-7,-2,-1,-1,0,-3,5
20:23:51:250061,-6,-9,6,1,-1,-5,-19,1
20:23:51:258300,-6,-9,6,1,-1,-5,-19,1
20:23:51:259039,-2,1,0,-2,2,2,-4,-4
20:23:51:273317,-9,10,-4,-2,-3,2,-3,0
20:23:51:274045,-9,10,-4,-2,-3,2,-3,0
20:23:51:280065,3,-7,4,3,-1,-2,3,-1
20:23:51:287558,-29,-36,-6,-3,2,-2,2,-17
20:23:51:295036,-29,-36,-6,-3,2,-2,2,-17
20:23:51:302548,-8,17,0,-6,-7,1,7,0
20:23:51:310093,5,-62,0,1,1,1,11,7
20:23:51:318300,5,-62,0,1,1,1,11,7
20:23:51:319076,-2,-1,3,4,-1,-2,2,6
20:23:51:333303,-4,26,3,-3,-2,-3,-4,-2
20:23:51:334077,-4,26,3,-3,-2,-3,-4,-2
20:23:51:340030,-10,-4,2,-2,1,2,17,2
20:23:51:347558,-15,4,-3,3,-3,-4,-4,2
20:23:51:355085,-15,4,-3,3,-3,-4,-4,2
20:23:51:362552,-10,9,-2,0,-1,-2,-13,8
20:23:51:370147,11,13,-2,-4,-1,0,-16,-3
20:23:51:378379,11,13,-2,-4,-1,0,-16,-3
20:23:51:378913,4,-6,0,0,3,2,0,-7
20:23:51:393198,-16,-13,-4,1,2,4,8,0
20:23:51:394116,-16,-13,-4,1,2,4,8,0
20:23:51:400084,1,0,0,-2,-4,-2,6,-2
20:23:51:407564,13,-4,-2,-3,-3,0,8,1
20:23:51:415066,13,-4,-2,-3,-3,0,8,1
20:23:51:422570,-8,-8,-4,5,3,-1,4,-5
20:23:51:430074,9,31,2,1,0,-1,-7,-1
20:23:51:438345,9,31,2,1,0,-1,-7,-1
20:23:51:439074,12,3,3,-3,-3,-6,-23,1
20:23:51:453182,10,9,3,1,2,1,-1,-4
20:23:51:454082,10,9,3,1,2,1,-1,-4
20:23:51:460091,0,24,-3,-1,0,-3,-5,5
20:23:51:467536,-9,6,-3,-1,-2,1,6,7
20:23:51:475109,-9,6,-3,-1,-2,1,6,7
20:23:51:482548,23,-29,-6,-3,-1,0,-2,-13
20:23:51:490062,15,9,0,-2,-1,1,10,-5
20:23:51:498325,15,9,0,-2,-1,1,10,-5
20:23:51:499059,-4,-1,-2,-2,-1,-1,5,3
20:23:51:513311,6,2,-1,-1,-1,-4,-11,-5
20:23:51:513932,6,2,-1,-1,-1,-4,-11,-5
20:23:51:520154,-13,28,0,0,-2,1,2,7
20:23:51:527561,5,12,-11,0,-1,-4,-6,-7
20:23:51:535075,5,12,-11,0,-1,-4,-6,-7
20:23:51:542651,-8,-18,-3,-5,-1,0,-5,-12
20:23:51:550114,-11,-1,2,-2,-1,-3,-2,3
20:23:51:558322,-11,-1,2,-2,-1,-3,-2,3
20:23:51:559091,-3,-7,2,2,0,-1,11,4
20:23:51:573300,15,-28,0,7,6,-1,-11,6
20:23:51:574025,15,-28,0,7,6,-1,-11,6
20:23:51:580043,-16,-26,-5,-3,1,-1,-9,0
20:23:51:587557,-6,15,1,5,-2,-3,5,-12
20:23:51:595066,-6,15,1,5,-2,-3,5,-12
20:23:51:602544,-2,18,3,0,-1,-1,-2,2
20:23:51:610030,-6,12,2,-2,-2,1,7,-2
20:23:51:618293,-6,12,2,-2,-2,1,7,-2
20:23:51:619038,0,-18,-1,-3,-3,1,1,-5
20:23:51:633305,-13,-2,-3,-3,-1,-6,-17,1
20:23:51:634070,-13,-2,-3,-3,-1,-6,-17,1
20:23:51:640053,-1,-12,-1,-1,1,6,26,5
20:23:51:647587,1,11,-3,-4,-3,-1,6,-3
20:23:51:655066,1,11,-3,-4,-3,-1,6,-3
20:23:51:662554,0,3,2,2,3,-2,-13,-3
20:23:51:670067,-6,-1,2,3,-4,-1,2,9
20:23:51:678339,-6,-1,2,3,-4,-1,2,9
20:23:51:679000,-51,-14,-4,-1,-2,-2,-2,-10
20:23:51:701439,3,-13,-7,-8,-2,0,0,7
20:23:51:702317,3,-13,-7,-8,-2,0,0,7
20:23:51:702958,18,-48,0,3,-1,-1,3,-13
20:23:51:707578,-6,-5,-1,-6,-1,1,-4,-5
20:23:51:715055,-6,-5,-1,-6,-1,1,-4,-5
20:23:51:722546,6,21,5,-2,-1,-2,-4,6
20:23:51:730055,-23,-5,-2,12,11,-1,-2,-6
20:23:51:738170,-23,-5,-2,12,11,-1,-2,-6
20:23:51:739066,7,13,-8,2,-4,-6,-6,1
20:23:51:753341,10,-11,-5,-9,-2,-2,-5,-30
20:23:51:754068,10,-11,-5,-9,-2,-2,-5,-30
20:23:51:760053,-13,-6,-3,-10,-6,-1,18,7
20:23:51:767555,8,4,3,2,0,-2,-8,6
20:23:51:775032,8,4,3,2,0,-2,-8,6
20:23:51:782542,6,12,-2,-3,-3,-3,-8,-19
20:23:51:806444,9,-15,0,-2,-1,2,-5,6
20:23:51:807157,9,-15,0,-2,-1,2,-5,6
20:23:51:808035,-10,35,-5,-1,2,-1,-12,2
20:23:51:813320,-4,20,3,-1,-6,-2,-4,-14
20:23:51:814068,-4,20,3,-1,-6,-2,-4,-14
20:23:51:820066,25,-2,0,10,2,-2,-3,-12
20:23:51:835711,-34,-49,-5,-7,-5,-2,-10,4
20:23:51:836575,-34,-49,-5,-7,-5,-2,-10,4
20:23:51:842568,9,12,-1,-8,-2,3,4,26
20:23:51:850061,-14,-14,-5,7,1,0,11,14
20:23:51:865707,-14,-14,-5,7,1,0,11,14
20:23:51:866543,-7,-9,-3,-1,0,1,-7,0
20:23:51:873306,11,22,3,-3,-2,1,19,13
20:23:51:874060,11,22,3,-3,-2,1,19,13
20:23:51:880065,11,-33,-12,-6,-1,-1,0,-11
20:23:51:895702,18,20,5,5,5,-2,0,0
20:23:51:896562,18,20,5,5,5,-2,0,0
20:23:51:910696,9,-4,2,-10,-4,-1,-1,9
20:23:51:911550,-7,-9,0,6,5,2,-1,0
20:23:51:917551,-7,-9,0,6,5,2,-1,0
20:23:51:925058,-10,18,3,0,0,-2,-2,11
20:23:51:933319,2,-2,-8,-8,-4,-2,6,-22
20:23:51:933947,2,-2,-8,-8,-4,-2,6,-22
20:23:51:940077,-42,-32,0,-1,0,-1,-3,-5
20:23:51:955715,28,9,-6,-6,-4,-4,-7,2
20:23:51:956568,28,9,-6,-6,-4,-4,-7,2
20:23:51:962531,3,-32,4,3,1,-1,-3,-6
20:23:51:970082,-30,-12,3,2,13,4,-2,4
20:23:51:977566,-30,-12,3,2,13,4,-2,4
20:23:51:985064,14,20,1,2,-1,-3,-3,-2
20:23:51:993306,16,9,3,-9,-11,-4,3,4
20:23:51:994056,16,9,3,-9,-11,-4,3,4
20:23:52:55,-16,-30,-3,3,1,-1,-5,-11
20:23:52:15717,5,0,5,0,-1,4,17,7
20:23:52:16539,5,0,5,0,-1,4,17,7
20:23:52:22541,11,14,7,-5,-5,4,4,14
20:23:52:38173,-20,-5,1,-3,-3,-4,-16,-1
20:23:52:39042,-20,-5,1,-3,-3,-4,-16,-1
20:23:52:45058,10,9,-3,-2,1,-3,-5,4
20:23:52:53320,29,25,6,-4,0,3,-1,1
20:23:52:54064,29,25,6,-4,0,3,-1,1
20:23:52:60062,31,-38,-12,11,10,2,-3,-2
20:23:52:83795,-14,6,-2,-18,-8,-2,2,16
20:23:52:84659,-14,6,-2,-18,-8,-2,2,16
20:23:52:85421,-9,14,9,6,6,1,5,5
20:23:52:90034,13,-11,-5,-2,-2,-2,-9,-8
20:23:52:97563,13,-11,-5,-2,-2,-2,-9,-8
20:23:52:104927,-2,24,2,-3,-5,-4,-1,-5
20:23:52:113336,19,-25,-2,7,0,-2,-3,-14
20:23:52:113946,19,-25,-2,7,0,-2,-3,-14
20:23:52:120063,-16,9,-9,12,0,-4,-2,-11
20:23:52:136319,-7,7,0,-8,-5,-2,-4,-18
20:23:52:137191,-7,7,0,-8,-5,-2,-4,-18
20:23:52:142566,14,16,2,-2,0,-1,4,4
20:23:52:149943,-17,-15,-10,-2,0,-1,-7,-10
20:23:52:157558,-17,-15,-10,-2,0,-1,-7,-10
20:23:52:165054,-26,26,4,2,-1,2,0,7
20:23:52:173341,6,3,3,12,3,-1,-4,-1
20:23:52:174062,6,3,3,12,3,-1,-4,-1
20:23:52:187435,1,-2,9,-2,-4,3,7,0
20:23:52:195694,-3,-1,-10,-4,-4,-1,3,3
20:23:52:196681,-3,-1,-10,-4,-4,-1,3,3
20:23:52:202576,2,-1,2,-14,-3,-5,-7,-2
20:23:52:210069,6,-47,-2,-4,-1,-2,3,24
20:23:52:217546,6,-47,-2,-4,-1,-2,3,24
20:23:52:225055,-2,0,-2,-10,-2,-2,-10,-28
20:23:52:233305,11,33,1,3,-4,-2,0,21
20:23:52:234038,11,33,1,3,-4,-2,0,21
20:23:52:247583,-27,-32,-12,0,-1,-1,-2,10
20:23:52:255729,4,11,-1,2,-6,-2,1,-6
20:23:52:256588,4,11,-1,2,-6,-2,1,-6
20:23:52:262568,42,16,-8,-6,-3,0,-2,2
20:23:52:270093,-4,4,3,5,11,3,1,-15
20:23:52:277563,-4,4,3,5,11,3,1,-15
20:23:52:293950,-27,-15,2,4,0,-4,-5,-42
20:23:52:294683,-5,-7,-1,-5,3,0,0,-2
20:23:52:295569,-5,-7,-1,-5,3,0,0,-2
20:23:52:300048,17,15,-3,-11,-8,-3,4,14
20:23:52:316199,14,11,1,8,0,-4,-7,-19
20:23:52:317024,14,11,1,8,0,-4,-7,-19
20:23:52:322623,-19,-10,-3,-2,-3,-3,-4,-3
20:23:52:330075,-18,-12,-3,-19,-1,0,3,9
20:23:52:337567,-18,-12,-3,-19,-1,0,3,9
20:23:52:345094,19,-46,-5,11,10,-1,-4,-30
20:23:52:361461,6,10,-3,4,-1,0,1,-7
20:23:52:362318,6,10,-3,4,-1,0,1,-7
20:23:52:362947,-23,-20,2,-5,-6,-3,0,11
20:23:52:375727,16,-22,-3,6,5,0,-5,-13
20:23:52:376553,16,-22,-3,6,5,0,-5,-13
20:23:52:382533,14,35,-1,-10,-6,-2,3,15
20:23:52:390087,-12,-11,-7,5,13,5,2,27
20:23:52:397571,-12,-11,-7,5,13,5,2,27
20:23:52:405062,-35,-12,-5,12,4,1,-4,-8
20:23:52:413828,-14,12,2,-2,-3,0,6,34
20:23:52:414706,-14,12,2,-2,-3,0,6,34
20:23:52:420049,11,15,8,2,1,0,-2,-10
20:23:52:435718,-7,12,3,7,-2,-4,-6,-12
20:23:52:436566,-7,12,3,7,-2,-4,-6,-12
20:23:52:442564,18,3,4,2,-13,-2,0,5
20:23:52:450095,25,3,-19,6,7,-1,1,1
20:23:52:465724,25,3,-19,6,7,-1,1,1
20:23:52:466568,8,36,6,-3,0,4,1,6
20:23:52:473306,-14,-9,11,44,1,-3,-5,-9
20:23:52:474053,-14,-9,11,44,1,-3,-5,-9
20:23:52:480075,3,-13,-6,-5,-3,-3,-3,6
20:23:52:495702,-28,-22,-8,-31,-11,-4,-4,-24
20:23:52:496571,-28,-22,-8,-31,-11,-4,-4,-24
20:23:52:502579,-41,-4,3,13,5,0,-2,2
20:23:52:510071,4,18,12,-17,-12,-5,-2,2
20:23:52:517588,4,18,12,-17,-12,-5,-2,2
20:23:52:525073,1,3,-14,-17,5,-1,-1,-3
20:23:52:533322,8,3,2,6,-10,-1,2,8
20:23:52:534065,8,3,2,6,-10,-1,2,8
20:23:52:540053,10,-3,-5,-3,1,-2,-2,-2
20:23:52:555714,9,-4,2,-21,-14,-4,-5,-13
20:23:52:556576,9,-4,2,-21,-14,-4,-5,-13
20:23:52:562573,-5,-5,-10,-5,12,6,4,-6
20:23:52:570054,-10,5,-2,-13,2,1,-2,1
20:23:52:577578,-10,5,-2,-13,2,1,-2,1
20:23:52:585047,-5,-4,8,0,-2,-4,0,2
20:23:52:593192,-10,-17,-9,11,12,4,0,2
20:23:52:594028,-10,-17,-9,11,12,4,0,2
20:23:52:600053,5,11,12,-9,-10,-2,0,-14
20:23:52:615682,1,-23,-7,-25,-12,-6,-3,-4
20:23:52:616532,1,-23,-7,-25,-12,-6,-3,-4
20:23:52:622574,13,9,9,-3,-4,-3,1,13
20:23:52:638338,-9,20,3,-4,3,2,-4,-20
20:23:52:639085,-9,20,3,-4,3,2,-4,-20
20:23:52:645101,1,10,7,-16,-11,-4,-1,5
20:23:52:653197,-14,14,4,-4,-6,-3,0,8
20:23:52:654100,-14,14,4,-4,-6,-3,0,8
20:23:52:660112,1,-5,-2,6,16,4,0,9
20:23:52:675690,16,-42,-11,-1,-7,-3,-3,5
20:23:52:676555,16,-42,-11,-1,-7,-3,-3,5
20:23:52:682554,-9,-2,-3,-1,-6,-1,3,13
20:23:52:690097,0,14,-1,7,-6,-4,-3,-23
20:23:52:697567,0,14,-1,7,-6,-4,-3,-23
20:23:52:705053,2,-11,6,11,-12,-2,0,0
20:23:52:713183,-26,-7,1,-7,7,0,1,9
20:23:52:714053,-26,-7,1,-7,7,0,1,9
20:23:52:727560,5,22,-4,1,3,3,4,17
20:23:52:735682,-4,-14,2,29,21,5,1,9
20:23:52:736554,-4,-14,2,29,21,5,1,9
20:23:52:742543,-3,-9,3,-12,-6,-2,-6,-44
20:23:52:758199,32,13,-17,-2,1,1,2,5
20:23:52:759059,32,13,-17,-2,1,1,2,5
20:23:52:765090,14,7,-8,9,5,-2,1,14
20:23:52:773219,3,4,10,-8,-10,-3,-4,3
20:23:52:774047,3,4,10,-8,-10,-3,-4,3
20:23:52:796455,-27,-33,-24,20,14,0,-2,7
20:23:52:797190,-16,34,-3,4,-2,-2,0,7
20:23:52:798054,-16,34,-3,4,-2,-2,0,7
20:23:52:809923,6,-13,4,10,4,-1,-7,-33
20:23:52:818188,8,7,3,10,-8,-2,3,-13
20:23:52:819073,8,7,3,10,-8,-2,3,-13
20:23:52:825051,2,17,-5,-24,-5,1,4,27
20:23:52:833343,-14,32,5,-14,-14,-5,-5,-11
20:23:52:834058,-14,32,5,-14,-14,-5,-5,-11
20:23:52:847439,14,19,2,-16,-11,-6,-4,-15
20:23:52:855703,-8,1,-7,17,14,5,-2,-1
20:23:52:856560,-8,1,-7,17,14,5,-2,-1
20:23:52:862567,-9,-8,14,22,-4,-3,1,14
20:23:52:878180,24,-28,-8,15,3,1,1,-18
20:23:52:879039,24,-28,-8,15,3,1,1,-18
20:23:52:884969,-26,-53,-1,13,-3,-5,-3,-8
20:23:52:893574,19,19,4,-18,3,0,1,-2
20:23:52:900049,19,19,4,-18,3,0,1,-2
20:23:52:907612,-8,-10,-1,2,-4,0,-3,-33
20:23:52:915693,-10,-7,3,-4,13,4,-2,1
20:23:52:916621,-10,-7,3,-4,13,4,-2,1
20:23:52:922586,5,6,-3,-8,-2,-2,-3,-1
20:23:52:938707,5,6,-3,-8,-2,-2,-3,-1
20:23:52:939576,-10,-20,-7,-18,-13,-5,-3,3
20:23:52:945082,0,14,3,4,10,5,0,-17
20:23:52:953312,0,14,3,4,10,5,0,-17
20:23:52:954043,-32,-70,2,-2,-2,-4,-3,-4
20:23:52:984586,18,31,-7,-12,3,-2,-3,11
20:23:52:985304,18,31,-7,-12,3,-2,-3,11
20:23:52:986154,1,28,4,5,3,-1,1,5
20:23:52:986932,-5,-25,0,3,-1,1,-1,5
20:23:53:6502,-5,-25,0,3,-1,1,-1,5
20:23:53:7165,-2,2,-6,-4,-1,-1,0,5
20:23:53:8068,6,26,9,40,20,4,0,10
20:23:53:13310,6,26,9,40,20,4,0,10
20:23:53:14083,3,-25,5,21,3,-1,2,-4
20:23:53:27456,-9,5,4,-7,-5,-3,1,11
20:23:53:51451,-9,5,4,-7,-5,-3,1,11
20:23:53:52306,-1,5,-6,-2,7,0,-1,-2
20:23:53:53071,-8,5,-1,-13,-5,-1,-1,2
20:23:53:58205,-8,5,-1,-13,-5,-1,-1,2
20:23:53:59081,15,57,5,-13,-8,-3,1,8
20:23:53:65083,8,-15,-14,-23,2,1,3,26
20:23:53:73230,8,-15,-14,-23,2,1,3,26
20:23:53:74061,-9,-49,-2,-16,-5,-2,-3,-7
20:23:53:87591,-11,-14,-9,-9,-8,-3,-3,-23
20:23:53:95700,-11,-14,-9,-9,-8,-3,-3,-23
20:23:53:96577,19,19,0,7,-11,-1,0,13
20:23:53:110050,3,4,-4,-10,-9,2,3,13
20:23:53:118346,3,4,-4,-10,-9,2,3,13
20:23:53:119065,-6,14,-9,10,3,-1,-1,0
20:23:53:125070,4,-21,-6,4,-7,-5,-5,-13
20:23:53:133196,4,-21,-6,4,-7,-5,-5,-13
20:23:53:134057,-24,-7,6,6,-5,-1,-11,-25
20:23:53:147948,15,4,8,7,6,0,-1,0
20:23:53:155741,15,4,8,7,6,0,-1,0
20:23:53:156616,-4,20,12,-7,-1,-1,2,9
20:23:53:162616,-12,-7,-3,-6,-6,0,2,16
20:23:53:178700,-12,-7,-3,-6,-6,0,2,16
20:23:53:179427,-10,-53,-12,2,1,-2,0,15
20:23:53:185066,14,2,-3,-1,-3,0,1,9
20:23:53:193237,14,2,-3,-1,-3,0,1,9
20:23:53:194062,16,14,-1,-20,-12,-4,-3,-16
20:23:53:216334,4,5,-2,9,10,0,-2,6
20:23:53:217180,4,5,-2,9,10,0,-2,6
20:23:53:218058,10,-19,-1,-2,9,-3,1,4
20:23:53:222547,3,21,5,16,-6,-3,0,-6
20:23:53:246298,3,21,5,16,-6,-3,0,-6
20:23:53:247186,-27,16,2,7,13,1,-2,1
20:23:53:247972,2,-14,-17,-17,6,-1,-4,-9
20:23:53:260727,2,-14,-17,-17,6,-1,-4,-9
20:23:53:261579,15,27,6,-4,-6,0,2,21
20:23:53:267570,-13,-2,3,1,-1,-1,-4,-1
20:23:53:275706,-13,-2,3,1,-1,-1,-4,-1
20:23:53:276557,3,-11,-6,-5,-5,-1,-1,-1
20:23:53:282583,-5,-12,1,4,-2,-2,-1,1
20:23:53:298349,-5,-12,1,4,-2,-2,-1,1
20:23:53:299095,-10,32,-1,24,21,5,-7,-40
20:23:53:305098,-2,1,5,14,8,1,-1,-4
20:23:53:313232,-2,1,5,14,8,1,-1,-4
20:23:53:314095,5,-5,-3,-13,-2,2,4,8
20:23:53:327571,-17,4,0,14,-9,-6,-5,-13
20:23:53:335718,-17,4,0,14,-9,-6,-5,-13
20:23:53:336587,-3,-11,7,3,-5,-1,-3,-1
20:23:53:350132,6,14,-6,-11,-10,0,3,10
20:23:53:366350,6,14,-6,-11,-10,0,3,10
20:23:53:367198,1,-10,-5,10,4,-1,-3,-2
20:23:53:367955,-6,14,-5,-12,-10,-5,-5,-6
20:23:53:373383,-6,14,-5,-12,-10,-5,-5,-6
20:23:53:374069,-8,-4,-11,-7,-5,0,-1,-13
20:23:53:387614,-39,4,6,-2,3,-1,0,-7
20:23:53:395691,-39,4,6,-2,3,-1,0,-7
20:23:53:396556,9,20,5,-3,-3,-1,5,33
20:23:53:402439,-10,-10,2,-12,-2,-1,-4,-7
20:23:53:418213,-10,-10,2,-12,-2,-1,-4,-7
20:23:53:419068,-4,-36,6,-6,-8,1,6,10
20:23:53:424921,-1,15,-2,-13,-3,0,-4,-17
20:23:53:433298,-1,15,-2,-13,-3,0,-4,-17
20:23:53:434042,6,-16,-2,-9,1,-2,1,4
20:23:53:447561,-25,-10,9,-2,-3,-3,-2,-10
20:23:53:455746,-25,-10,9,-2,-3,-3,-2,-10
20:23:53:456594,10,3,-1,-16,-9,-2,-3,-11
20:23:53:470125,16,21,-4,0,5,0,-1,4
20:23:53:478162,16,21,-4,0,5,0,-1,4
20:23:53:479034,-1,7,5,19,6,-1,-1,0
20:23:53:485042,24,-5,-1,5,14,4,2,5
20:23:53:493183,24,-5,-1,5,14,4,2,5
20:23:53:494043,8,10,5,-4,-8,-2,-1,-2
20:23:53:507570,-7,5,-23,-13,-6,-3,-10,-42
20:23:53:523962,-7,5,-23,-13,-6,-3,-10,-42
20:23:53:524687,-2,-10,-7,-10,9,3,0,-7
20:23:53:525555,7,-13,4,2,-1,1,5,20
20:23:53:538713,7,-13,4,2,-1,1,5,20
20:23:53:539582,-14,0,-14,-29,-10,-4,-4,3
20:23:53:545096,10,1,1,26,23,8,1,4
20:23:53:560690,10,1,1,26,23,8,1,4
20:23:53:561579,5,18,-7,-11,0,-1,1,0
20:23:53:567492,-5,-35,-2,-13,-9,-2,0,2
20:23:53:583867,-5,-35,-2,-13,-9,-2,0,2
20:23:53:584729,-12,18,3,3,-4,-2,-1,17
20:23:53:585492,-44,-28,-7,4,26,7,3,6
20:23:53:598666,-44,-28,-7,4,26,7,3,6
20:23:53:605702,8,33,4,3,-8,0,-6,-31
20:23:53:606470,18,24,6,4,-2,0,0,14
20:23:53:628993,18,24,6,4,-2,0,0,14
20:23:53:629708,3,-6,-16,8,4,-3,1,15
20:23:53:630457,13,-17,1,12,-1,1,-1,-9
20:23:53:635491,13,-17,1,12,-1,1,-1,-9
20:23:53:650709,-3,4,11,-5,-4,-2,-4,-18
20:23:53:651466,6,1,2,-25,-14,-4,1,2
20:23:53:658336,6,1,2,-25,-14,-4,1,2
20:23:53:659068,-6,-19,4,21,-3,-4,1,32
20:23:53:664934,-17,-2,-7,-4,-6,-3,-6,-21
20:23:53:672588,-17,-2,-7,-4,-6,-3,-6,-21
20:23:53:680073,-5,2,7,7,-2,-1,2,-3
20:23:53:696378,21,-45,-6,-6,-18,-8,-1,17
20:23:53:697196,21,-45,-6,-6,-18,-8,-1,17
20:23:53:698074,-9,-29,-2,2,5,3,1,-1
20:23:53:719336,5,24,5,60,9,3,1,13
20:23:53:720208,5,24,5,60,9,3,1,13
20:23:53:720950,3,-13,-9,-1,-3,-2,-3,-3
20:23:53:725076,13,8,1,-22,-12,-6,1,3
20:23:53:732603,13,8,1,-22,-12,-6,1,3
20:23:53:739982,-5,-7,3,-6,-12,-4,-2,-13
20:23:53:747458,17,-22,-15,-17,-3,-3,-5,-5
20:23:53:763234,17,-22,-15,-17,-3,-3,-5,-5
20:23:53:764111,0,-2,1,-6,4,0,-3,-9
20:23:53:770121,-24,23,7,4,-4,-1,-2,-31
20:23:53:778356,-24,23,7,4,-4,-1,-2,-31
20:23:53:778968,2,-5,-3,-5,4,1,-1,1
20:23:53:784948,3,12,4,-23,-11,-4,1,14
20:23:53:792609,3,12,4,-23,-11,-4,1,14
20:23:53:799947,-7,7,4,18,5,0,-1,-6
20:23:53:807463,-8,-8,2,-10,9,4,-1,-4
20:23:53:815706,-8,-8,2,-10,9,4,-1,-4
20:23:53:816595,4,1,-1,-11,-3,-5,-3,0
20:23:53:830494,4,2,3,-8,1,-1,0,-1
20:23:53:838367,4,2,3,-8,1,-1,0,-1
20:23:53:839074,9,13,-3,-5,-2,0,1,4
20:23:53:844926,29,27,1,15,2,-1,-2,-2
20:23:53:860738,29,27,1,15,2,-1,-2,-2
20:23:53:861574,-5,-19,-3,0,-4,-3,-7,-26
20:23:53:867455,15,17,5,4,2,-1,1,12
20:23:53:875702,15,17,5,4,2,-1,1,12
20:23:53:876605,-6,-13,-5,3,3,-1,-2,-6
20:23:53:889979,-6,1,4,6,-4,-2,1,24
20:23:53:898344,-6,1,4,6,-4,-2,1,24
20:23:53:898925,-28,-9,11,18,8,0,-3,-6
20:23:53:904969,-10,16,-5,3,2,-2,-1,4
20:23:53:912585,-10,16,-5,3,2,-2,-1,4
20:23:53:920091,24,-51,-12,-12,-2,1,2,-10
20:23:53:927473,13,4,-9,1,-3,-1,-5,-1
20:23:53:935712,13,4,-9,1,-3,-1,-5,-1
20:23:53:936581,8,14,-1,-4,-7,-2,4,17
20:23:53:950004,-13,-9,-9,-32,-2,3,0,-9
20:23:53:958388,-13,-9,-9,-32,-2,3,0,-9
20:23:53:959087,2,4,-4,-12,-11,-3,-1,9
20:23:53:964941,-2,-2,8,-2,-11,-7,-4,-5
20:23:53:980722,-2,-2,8,-2,-11,-7,-4,-5
20:23:53:981598,-3,8,-5,13,7,0,0,9
20:23:53:987461,-80,-53,0,-4,0,-2,-4,6
20:23:53:995692,-80,-53,0,-4,0,-2,-4,6
20:23:53:996586,13,34,8,11,-2,2,3,8
20:23:54:9945,14,-14,-1,-1,5,1,-3,-8
20:23:54:18355,14,-14,-1,-1,5,1,-3,-8
20:23:54:19051,-8,19,5,-23,-2,-3,-2,-4
20:23:54:24966,31,8,0,1,-3,-3,0,-3
20:23:54:40703,31,8,0,1,-3,-3,0,-3
20:23:54:41582,5,11,3,-16,-6,-4,-4,-12
20:23:54:47457,1,-2,-7,-14,-4,3,3,-6
20:23:54:56244,1,-2,-7,-14,-4,3,3,-6
20:23:54:62613,-27,-93,-13,-7,-7,-4,-5,-15
20:23:54:69958,0,-6,-11,12,-4,-2,-2,-17
20:23:54:78336,0,-6,-11,12,-4,-2,-2,-17
20:23:54:79059,-3,13,5,-8,2,1,1,9
20:23:54:85076,12,14,3,-6,-3,-1,0,0
20:23:54:101220,12,14,3,-6,-3,-1,0,0
20:23:54:102099,1,13,-11,-6,10,2,1,3
20:23:54:107475,-21,-6,-1,-1,0,-1,-1,-9
20:23:54:115696,-21,-6,-1,-1,0,-1,-1,-9
20:23:54:116594,-3,1,-7,1,-4,-3,-6,-27
20:23:54:130009,-3,-27,4,1,-2,0,0,9
20:23:54:138355,-3,-27,4,1,-2,0,0,9
20:23:54:139079,0,-1,7,20,0,1,4,14
20:23:54:144955,10,16,-2,-3,-3,-4,-3,-4
20:23:54:168858,10,16,-2,-3,-3,-4,-3,-4
20:23:54:169687,8,17,2,9,-2,-3,-2,-11
20:23:54:170435,0,-2,5,4,0,1,2,9
20:23:54:175720,0,-2,5,4,0,1,2,9
20:23:54:176589,10,-20,1,4,10,3,-3,8
20:23:54:190089,-2,-10,6,0,-2,-2,-2,-14
20:23:54:206450,-2,-10,6,0,-2,-2,-2,-14
20:23:54:207227,-8,18,1,11,-6,-3,-3,-6
20:23:54:208105,14,14,0,8,10,2,0,4
20:23:54:220711,14,14,0,8,10,2,0,4
20:23:54:221627,4,16,1,-6,-7,-1,2,7
20:23:54:236353,-11,-6,-8,-2,-1,-2,-3,-1
20:23:54:237202,-11,-6,-8,-2,-1,-2,-3,-1
20:23:54:237964,-1,-7,-9,-2,3,-1,0,-16
20:23:54:250075,-10,-27,1,-15,0,-1,-7,0
20:23:54:266339,-10,-27,1,-15,0,-1,-7,0
20:23:54:267192,-13,3,-18,-35,-5,-2,0,8
20:23:54:267933,5,5,2,-8,-5,-3,-2,-3
20:23:54:280748,5,5,2,-8,-5,-3,-2,-3
20:23:54:281553,-22,-8,4,0,4,2,-1,0
20:23:54:311966,-6,-22,-12,12,6,-2,1,-5
20:23:54:312820,-6,-22,-12,12,6,-2,1,-5
20:23:54:313692,6,-4,1,10,5,0,-1,0
20:23:54:314435,9,-5,-2,23,0,-2,1,3
20:23:54:318202,9,-5,-2,23,0,-2,1,3
20:23:54:319073,-31,-31,0,-1,-7,-2,-3,-4
20:23:54:325101,-10,1,-4,-4,10,5,1,2
20:23:54:340741,-10,1,-4,-4,10,5,1,2
20:23:54:341505,12,20,7,-11,1,-1,-1,8
20:23:54:347594,-2,-13,-12,-18,-6,-3,-1,-6
20:23:54:355715,-2,-13,-12,-18,-6,-3,-1,-6
20:23:54:356581,0,31,-5,-15,4,3,-1,4
20:23:54:370124,10,18,7,5,-10,-1,1,4
20:23:54:378386,10,18,7,5,-10,-1,1,4
20:23:54:379102,3,12,-5,25,3,-4,-6,-8
20:23:54:385100,-1,-16,0,4,-4,-2,1,3
20:23:54:400456,-1,-16,0,4,-4,-2,1,3
20:23:54:408222,-7,-6,5,33,2,-1,-1,0
20:23:54:408969,-6,-19,3,4,3,0,-1,0
20:23:54:415705,-6,-19,3,4,3,0,-1,0
20:23:54:416451,5,-11,1,-2,-8,-3,0,4
20:23:54:438841,7,-3,-2,7,-3,-1,-3,-3
20:23:54:439707,7,-3,-2,7,-3,-1,-3,-3
20:23:54:440455,-20,-46,-15,0,-2,-1,-2,-4
20:23:54:444974,1,11,5,-1,-4,0,0,3
20:23:54:460712,1,11,5,-1,-4,0,0,3
20:23:54:461587,1,38,7,3,-4,-1,1,3
20:23:54:467459,-13,16,-8,2,-6,-6,-11,-17
20:23:54:475698,-13,16,-8,2,-6,-6,-11,-17
20:23:54:476592,17,38,10,-11,1,-1,3,9
20:23:54:490097,-2,-2,-1,2,6,0,1,6
20:23:54:498230,-2,-2,-1,2,6,0,1,6
20:23:54:499083,4,-14,-3,-25,2,2,-2,-1
20:23:54:504989,-2,16,2,-5,-3,-1,4,2
20:23:54:520724,-2,16,2,-5,-3,-1,4,2
20:23:54:521596,9,-31,-1,0,-3,-5,1,0
20:23:54:527613,-9,-8,1,9,5,0,-1,-3
20:23:54:543199,-9,-8,1,9,5,0,-1,-3
20:23:54:544070,-4,-1,-1,-1,-4,-2,-2,0
20:23:54:550087,3,19,0,-9,-3,-4,-2,0
20:23:54:558212,3,19,0,-9,-3,-4,-2,0
20:23:54:559076,2,-26,-4,6,7,0,0,0
20:23:54:564998,-17,-4,8,-4,-3,0,1,1
20:23:54:580705,-17,-4,8,-4,-3,0,1,1
20:23:54:581558,-2,-3,-3,37,-3,-3,-4,-12
20:23:54:587615,9,4,-3,1,-3,-3,-1,4
20:23:54:595700,9,4,-3,1,-3,-3,-1,4
20:23:54:596578,8,2,-10,-16,-4,-3,0,6
20:23:54:610084,1,-28,0,2,7,3,-1,-5
20:23:54:618219,1,-28,0,2,7,3,-1,-5
20:23:54:619076,6,7,5,21,-2,-1,-3,-3
20:23:54:633315,-8,-7,-6,-16,-5,-3,-1,-2
20:23:54:634049,-8,-7,-6,-16,-5,-3,-1,-2
20:23:54:640200,-4,12,2,-1,-3,0,-5,-12
20:23:54:647579,4,1,-1,-7,-2,1,1,2
20:23:54:655094,4,1,-1,-7,-2,1,1,2
20:23:54:662586,0,-3,0,15,16,7,3,8
20:23:54:678804,-8,13,-2,-19,-5,-3,-3,-3
20:23:54:679691,-8,13,-2,-19,-5,-3,-3,-3
20:23:54:680578,6,-39,-12,-26,-4,0,1,1
20:23:54:692456,1,-21,-3,0,-1,1,2,1
20:23:54:700729,1,-21,-3,0,-1,1,2,1
20:23:54:701583,-6,4,6,-3,3,-1,-2,-3
20:23:54:707600,13,27,-8,-4,-3,0,0,2
20:23:54:715113,13,27,-8,-4,-3,0,0,2
20:23:54:722621,-1,-12,-13,-37,-6,-1,-1,-2
20:23:54:730109,0,16,3,4,5,-1,2,-1
20:23:54:738244,0,16,3,4,5,-1,2,-1
20:23:54:739088,-3,3,5,4,0,-2,0,4
20:23:54:753335,4,9,-1,1,-10,-2,-4,-2
20:23:54:754087,4,9,-1,1,-10,-2,-4,-2
20:23:54:760073,16,16,4,-21,-8,-4,-2,-4
20:23:54:767589,-8,-12,5,6,16,3,0,0
20:23:54:783345,-8,-12,5,6,16,3,0,0
20:23:54:784088,0,2,-1,8,2,-2,-2,0
20:23:54:790075,-8,-3,-13,25,4,-2,-4,-2
20:23:54:798229,-8,-3,-13,25,4,-2,-4,-2
20:23:54:798943,-9,-2,6,37,1,-2,1,-5
20:23:54:813330,-4,-47,0,7,13,2,-4,-16
20:23:54:814073,-4,-47,0,7,13,2,-4,-16
20:23:54:820088,35,9,-14,-2,-10,-4,-2,-5
20:23:54:827606,8,18,10,-13,-3,-3,1,4
20:23:54:835114,8,18,10,-13,-3,-3,1,4
20:23:54:850750,-3,4,5,-1,4,3,-1,1
20:23:54:851471,4,15,1,-12,-4,-2,-3,-2
20:23:54:858318,4,15,1,-12,-4,-2,-3,-2
20:23:54:859078,-32,7,0,12,7,2,0,-5
20:23:54:873342,4,-44,-3,-6,-6,-5,-2,1
20:23:54:873961,4,-44,-3,-6,-6,-5,-2,1
20:23:54:880088,-2,33,3,-24,-3,1,-1,1
20:23:54:887482,32,46,-10,3,1,-2,-3,-3
20:23:54:895089,32,46,-10,3,1,-2,-3,-3
20:23:54:902604,1,-3,4,-2,1,-2,0,3
20:23:54:910098,-3,8,-1,10,-4,-1,0,4
20:23:54:918241,-3,8,-1,10,-4,-1,0,4
20:23:54:918972,-9,-7,5,13,-9,-2,-4,-13
20:23:54:933347,-3,-20,3,-7,-8,-1,3,2
20:23:54:934083,-3,-20,3,-7,-8,-1,3,2
20:23:54:940071,6,-8,0,-12,-3,2,0,8
20:23:54:947579,-8,-1,-1,-9,2,2,1,-2
20:23:54:955103,-8,-1,-1,-9,2,2,1,-2
20:23:54:962612,-5,5,2,11,0,-4,-1,1
20:23:54:970095,-18,30,1,-12,-12,-2,-1,2
20:23:54:978242,-18,30,1,-12,-12,-2,-1,2
20:23:54:979095,-30,-7,-12,8,0,-1,-1,0
20:23:54:993213,-3,-15,-8,-8,-4,-1,-1,-1
20:23:54:994093,-3,-15,-8,-8,-4,-1,-1,-1
20:23:55:79,10,-6,-2,-6,5,0,-2,4
20:23:55:7591,-6,-21,4,-5,5,0,-1,-5
20:23:55:23224,-6,-21,4,-5,5,0,-1,-5
20:23:55:23942,4,9,0,-15,-4,-2,-2,1
20:23:55:30117,0,-15,-7,4,6,-2,-7,-3
20:23:55:38205,0,-15,-7,4,6,-2,-7,-3
20:23:55:39070,-21,-19,-4,-14,-8,-2,1,-4
20:23:55:53208,5,30,5,11,-1,-2,1,3
20:23:55:53948,5,30,5,11,-1,-2,1,3
20:23:55:60096,-11,-41,-11,2,5,1,-3,-2
20:23:55:67602,18,5,1,13,14,2,-1,2
20:23:55:75117,18,5,1,13,14,2,-1,2
20:23:55:82465,23,8,1,-4,-5,-2,3,6
20:23:55:90000,7,-6,3,-8,-5,-2,-2,-1
20:23:55:98212,7,-6,3,-8,-5,-2,-2,-1
20:23:55:99101,0,-6,2,-10,0,-1,2,8
20:23:55:113220,-16,-2,-1,15,1,0,-2,-4
20:23:55:114105,-16,-2,-1,15,1,0,-2,-4
20:23:55:119980,28,-8,-2,-15,-6,-2,-5,-5
20:23:55:127466,-5,-11,-3,-23,-8,-2,1,2
20:23:55:135079,-5,-11,-3,-23,-8,-2,1,2
20:23:55:142468,6,9,5,16,4,0,2,0
20:23:55:149961,-5,23,-1,-10,-13,-1,-1,-3
20:23:55:158589,-5,23,-1,-10,-13,-1,-1,-3
20:23:55:164965,-21,-31,-8,-2,-4,-3,-3,-9
20:23:55:173411,-2,-15,1,-7,-4,0,-1,-1
20:23:55:173957,-2,-15,1,-7,-4,0,-1,-1
20:23:55:180101,11,36,2,4,4,1,1,-2
20:23:55:187582,16,21,-3,-6,-4,-3,-4,3
20:23:55:203382,16,21,-3,-6,-4,-3,-4,3
20:23:55:204003,-12,-12,-1,-9,2,-4,-15,-16
20:23:55:209975,-8,5,0,5,2,0,-1,-1
20:23:55:218349,-8,5,0,5,2,0,-1,-1
20:23:55:219074,11,5,-5,-3,5,5,4,3
20:23:55:233213,6,12,-1,6,0,0,-1,0
20:23:55:234125,6,12,-1,6,0,0,-1,0
20:23:55:239942,-15,-15,-4,-3,-1,-2,-3,2
20:23:55:247462,-12,-27,-4,-1,-1,1,0,-4
20:23:55:255107,-12,-27,-4,-1,-1,1,0,-4
20:23:55:262589,-3,17,5,-5,-3,-3,-1,-2
20:23:55:270113,36,20,10,14,11,-1,-1,-4
20:23:55:278202,36,20,10,14,11,-1,-1,-4
20:23:55:278944,6,1,-4,0,2,2,-19,-8
20:23:55:293261,-40,-62,-10,-2,-3,-3,-2,1
20:23:55:294106,-40,-62,-10,-2,-3,-3,-2,1
20:23:55:300065,-10,-12,2,3,4,-3,15,13
20:23:55:307614,-4,12,0,0,-2,0,5,-5
20:23:55:315076,-4,12,0,0,-2,0,5,-5
20:23:55:322587,-13,8,-3,4,-8,-2,3,-1
20:23:55:330081,2,-2,-3,5,-3,-2,-2,-1
20:23:55:338201,2,-2,-3,5,-3,-2,-2,-1
20:23:55:339066,26,30,-2,-7,-10,-2,-7,-3
20:23:55:353236,-4,-17,-6,-15,-2,0,-1,2
20:23:55:354012,-4,-17,-6,-15,-2,0,-1,2
20:23:55:360102,-4,-2,0,10,0,-2,-5,-4
20:23:55:376261,-19,7,-1,0,-3,-2,2,1
20:23:55:376986,-19,7,-1,0,-3,-2,2,1
20:23:55:382580,-3,4,-3,-6,0,0,11,6
20:23:55:390066,20,-2,-5,17,12,3,-6,2
20:23:55:398211,20,-2,-5,17,12,3,-6,2
20:23:55:398952,6,5,0,-1,-7,0,-1,-3
20:23:55:413343,6,32,3,24,4,-1,-6,2
20:23:55:414088,6,32,3,24,4,-1,-6,2
20:23:55:420119,-13,-17,-6,-6,2,1,-4,-1
20:23:55:427605,6,8,2,-2,-2,1,25,4
20:23:55:435082,6,8,2,-2,-2,1,25,4
20:23:55:442609,4,-4,-1,-4,-1,-3,-4,-4
20:23:55:450109,4,23,2,-7,0,3,18,9
20:23:55:458223,4,23,2,-7,0,3,18,9
20:23:55:459084,-32,-38,-8,-2,0,-2,-11,-18
20:23:55:481329,-5,2,3,-13,-8,-4,-16,-7
20:23:55:482202,-5,2,3,-13,-8,-4,-16,-7
20:23:55:482989,2,29,3,4,-1,0,-11,-9
20:23:55:487454,-3,17,-2,-12,-3,-5,-8,-5
20:23:55:495077,-3,17,-2,-12,-3,-5,-8,-5
20:23:55:502588,20,17,3,-7,-4,-1,27,6
20:23:55:510126,-8,-7,-3,-13,0,2,-9,1
20:23:55:518224,-8,-7,-3,-13,0,2,-9,1
20:23:55:518950,9,12,0,0,-3,-2,-11,3
20:23:55:533209,3,-28,-7,-8,4,-2,-5,-3
20:23:55:533958,3,-28,-7,-8,4,-2,-5,-3
20:23:55:540107,17,-3,4,10,2,-1,10,4
20:23:55:547619,-4,19,1,-8,-5,0,1,7
20:23:55:555140,-4,19,1,-8,-5,0,1,7
20:23:55:570719,-2,-13,-6,-4,-1,0,21,14
20:23:55:571453,-12,-11,-1,-6,-8,-6,-7,-5
20:23:55:585709,-12,-11,-1,-6,-8,-6,-7,-5
20:23:55:586627,-6,-2,2,-1,4,4,5,14
20:23:55:593231,-6,-15,-1,14,6,8,6,-4
20:23:55:594076,-6,-15,-1,14,6,8,6,-4
20:23:55:599935,-11,-31,-3,2,-3,-5,-40,-20
20:23:55:616099,0,1,3,-3,-3,-5,-24,-11
20:23:55:623253,0,1,3,-3,-3,-5,-24,-11
20:23:55:624081,0,19,-2,-4,-3,-3,-2,-9
20:23:55:638242,0,-28,-4,-1,-5,-4,9,1
20:23:55:639100,0,-28,-4,-1,-5,-4,9,1
20:23:55:644970,13,24,1,3,3,-3,2,4
20:23:55:653211,-24,4,-5,0,-3,-3,-12,-10
20:23:55:654095,-24,4,-5,0,-3,-3,-12,-10
20:23:55:659975,3,-12,0,0,3,2,-4,2
20:23:55:675750,14,5,3,-2,1,-1,27,9
20:23:55:676621,14,5,3,-2,1,-1,27,9
20:23:55:690754,-16,-2,1,1,-2,0,-4,-6
20:23:55:691529,2,-39,-5,2,5,-1,-18,-10
20:23:55:697583,2,-39,-5,2,5,-1,-18,-10
20:23:55:704980,-2,-16,-2,-1,-2,-3,-7,-3
20:23:55:713242,4,20,5,1,-4,1,-10,-8
20:23:55:714101,4,20,5,1,-4,1,-10,-8
20:23:55:727506,-11,-23,-1,3,3,-2,6,-5
20:23:55:735714,4,20,-1,-1,-6,-5,-9,1
20:23:55:736590,4,20,-1,-1,-6,-5,-9,1
20:23:55:742496,20,-1,-2,0,1,1,3,7
20:23:55:749977,1,-13,-4,-6,-4,-3,-4,-2
20:23:55:757589,1,-13,-4,-6,-4,-3,-4,-2
20:23:55:764963,-23,-3,1,3,-4,-5,-5,-2
20:23:55:772459,-14,-4,-2,4,7,2,-3,3
20:23:55:780723,-14,-4,-2,4,7,2,-3,3
20:23:55:781589,-8,18,-1,-4,-1,-3,0,2
20:23:55:795725,5,-17,-5,-1,-2,2,13,4
20:23:55:796626,5,-17,-5,-1,-2,2,13,4
20:23:55:802471,6,-1,-1,-3,-2,3,13,0
20:23:55:809956,3,17,2,-2,0,0,2,-2
20:23:55:817604,3,17,2,-2,0,0,2,-2
20:23:55:833218,2,3,6,-3,-3,0,5,6
20:23:55:833978,5,2,2,-4,1,1,5,0
20:23:55:840746,5,2,2,-4,1,1,5,0
20:23:55:841593,-2,0,-2,0,0,4,12,2
20:23:55:855735,6,-13,-2,1,-2,1,1,-3
20:23:55:856603,6,-13,-2,1,-2,1,1,-3
20:23:55:870735,0,-8,-2,-2,-5,0,-4,-5
20:23:55:871470,-18,9,-1,6,2,-2,-3,1
20:23:55:877615,-18,9,-1,6,2,-2,-3,1
20:23:55:884971,13,-4,-4,-5,2,-1,-11,-10
20:23:55:892506,-8,-4,1,4,4,0,3,0
20:23:55:900733,-8,-4,1,4,4,0,3,0
20:23:55:901614,-15,-2,-1,1,-3,-6,4,5
20:23:55:915738,16,19,3,-2,-3,0,7,1
20:23:55:916604,16,19,3,-2,-3,0,7,1
20:23:55:922536,-33,-10,-4,-8,-4,-6,-12,-9
20:23:55:929981,-5,-11,-1,-3,-5,-3,-1,-2
20:23:55:937581,-5,-11,-1,-3,-5,-3,-1,-2
20:23:55:953237,8,0,1,-5,-2,-4,-16,-5
20:23:55:953948,-5,12,2,2,1,2,2,1
20:23:55:960759,-5,12,2,2,1,2,2,1
20:23:55:961620,2,-1,-5,3,-1,0,7,8
20:23:55:976251,0,-26,-2,-9,-2,-1,0,-1
20:23:55:976999,0,-26,-2,-9,-2,-1,0,-1
20:23:55:982470,9,12,1,0,0,1,8,-7
20:23:55:989994,-4,-22,-5,-11,-4,-3,-5,-2
20:23:55:997606,-4,-22,-5,-11,-4,-3,-5,-2
20:23:56:4975,3,0,0,2,5,4,4,3
20:23:56:12508,-9,0,-3,-7,-6,-3,-6,-4
20:23:56:20718,-9,0,-3,-7,-6,-3,-6,-4
20:23:56:21581,1,-4,0,-1,-1,1,10,0
20:23:56:35746,1,-3,1,7,0,6,30,5
20:23:56:36593,1,-3,1,7,0,6,30,5
20:23:56:42465,6,12,0,-4,-3,-3,1,0
20:23:56:49985,-13,-3,-4,-4,-1,-5,-22,-5
20:23:56:57587,-13,-3,-4,-4,-1,-5,-22,-5
20:23:56:64979,-26,-37,-5,7,1,1,-9,-2
20:23:56:81351,-2,29,3,17,0,-3,-2,0
20:23:56:82249,-2,29,3,17,0,-3,-2,0
20:23:56:82964,-8,23,1,-2,0,-4,-2,-3
20:23:56:95756,7,-7,1,-3,-2,1,6,-4
20:23:56:96605,7,-7,1,-3,-2,1,6,-4
20:23:56:102461,14,-5,-2,2,-2,1,14,-1
20:23:56:109980,1,16,-1,-3,4,1,12,5
20:23:56:125743,1,16,-1,-3,4,1,12,5
20:23:56:126581,8,-2,2,1,12,1,-5,2
20:23:56:132474,0,11,0,-1,9,3,-8,-2
20:23:56:140747,0,11,0,-1,9,3,-8,-2
20:23:56:141612,1,9,-4,-4,-5,0,-7,0
20:23:56:155725,-5,-37,-6,0,-3,-3,-1,1
20:23:56:156584,-5,-37,-6,0,-3,-3,-1,1
20:23:56:162441,-24,16,1,-3,-2,-2,-19,0
20:23:56:169994,-4,-16,-4,-6,-4,-5,-14,0
20:23:56:177592,-4,-16,-4,-6,-4,-5,-14,0
20:23:56:184990,10,1,0,3,-2,1,-15,2
20:23:56:192483,-6,2,1,0,-2,-1,9,2
20:23:56:200724,-6,2,1,0,-2,-1,9,2
20:23:56:201581,31,8,2,-1,-1,-3,-6,1
20:23:56:215715,-18,-24,-4,0,0,0,-5,-4
20:23:56:216613,-18,-24,-4,0,0,0,-5,-4
20:23:56:222463,10,7,-3,-8,-6,-2,8,-3
20:23:56:230007,9,23,-1,2,-2,-3,-8,-2
20:23:56:237601,9,23,-1,2,-2,-3,-8,-2
20:23:56:244989,-16,-26,-5,-3,3,-1,-1,-4
20:23:56:252477,-3,4,-1,-7,-7,-4,-8,0
20:23:56:260744,-3,4,-1,-7,-7,-4,-8,0
20:23:56:261594,9,-16,-1,0,1,-3,3,1
20:23:56:275755,3,14,4,1,-1,0,-2,0
20:23:56:276624,3,14,4,1,-1,0,-2,0
20:23:56:282468,-10,-3,-1,3,-2,3,-6,-5
20:23:56:290001,12,11,1,-1,0,-2,-10,-2
20:23:56:297620,12,11,1,-1,0,-2,-10,-2
20:23:56:304991,-33,-7,0,1,3,1,-11,-5
20:23:56:312489,2,10,0,-3,0,8,3,3
20:23:56:320736,2,10,0,-3,0,8,3,3
20:23:56:321479,-14,9,-3,-2,-5,-6,-6,-8
20:23:56:335738,-14,-8,-6,11,7,-2,-4,-8
20:23:56:336580,-14,-8,-6,11,7,-2,-4,-8
20:23:56:342615,9,-4,-4,-1,-1,-1,5,4
20:23:56:350131,0,11,0,-5,-3,-3,-1,0
20:23:56:357615,0,11,0,-5,-3,-3,-1,0
20:23:56:365086,16,6,3,-6,-8,0,13,5
20:23:56:372639,6,-4,-2,-12,0,1,-13,-3
20:23:56:380750,6,-4,-2,-12,0,1,-13,-3
20:23:56:381624,31,-1,-2,1,-2,-1,8,3
20:23:56:395472,11,18,1,3,-2,-4,-1,1
20:23:56:403194,11,18,1,3,-2,-4,-1,1
20:23:56:403986,-4,-2,0,-3,-1,-3,-2,0
20:23:56:410101,-1,-2,-2,-2,-2,1,7,-3
20:23:56:417603,-1,-2,-2,-2,-2,1,7,-3
20:23:56:425005,-18,-7,-2,7,-1,1,23,6
20:23:56:432477,-26,-14,-2,17,5,-2,16,1
20:23:56:440788,-26,-14,-2,17,5,-2,16,1
20:23:56:441604,-9,-19,-5,-2,1,-1,-8,0
20:23:56:455743,8,13,0,-8,-5,0,6,-2
20:23:56:456456,8,13,0,-8,-5,0,6,-2
20:23:56:462476,-2,16,3,8,4,-2,-9,-5
20:23:56:469982,6,-2,3,-4,-4,-4,-6,-1
20:23:56:477595,6,-2,3,-4,-4,-4,-6,-1
20:23:56:484968,0,-6,-1,-9,-8,-1,-1,-1
20:23:56:493215,1,15,-3,-3,-4,-1,3,-6
20:23:56:494086,1,15,-3,-3,-4,-1,3,-6
20:23:56:499977,15,8,-5,-6,-3,0,-11,-4
20:23:56:516224,8,1,1,0,3,-2,-7,5
20:23:56:516961,8,1,1,0,3,-2,-7,5
20:23:56:522463,-5,-2,-2,-3,1,1,12,1
20:23:56:538232,4,-8,2,-7,0,1,8,8
20:23:56:539092,4,-8,2,-7,0,1,8,8
20:23:56:544995,-5,4,0,4,4,2,0,-8
20:23:56:553214,-3,-18,-6,-4,-3,-4,-11,-6
20:23:56:554101,-3,-18,-6,-4,-3,-4,-11,-6
20:23:56:567500,4,0,-2,9,-1,-1,-19,-4
20:23:56:575767,-5,-12,-2,4,0,1,-11,-2
20:23:56:576611,-5,-12,-2,4,0,1,-11,-2
20:23:56:582484,-7,-5,3,-8,-1,-5,-8,-3
20:23:56:598248,-7,0,0,1,-3,-1,5,-5
20:23:56:598951,-7,0,0,1,-3,-1,5,-5
20:23:56:604988,-16,-46,-3,-4,-1,-1,0,-2
20:23:56:613254,-1,-3,-5,-6,-3,-5,3,-5
20:23:56:614116,-1,-3,-5,-6,-3,-5,3,-5
20:23:56:627614,1,12,0,-7,-2,-2,-6,2
20:23:56:635735,-22,-8,-1,10,2,-3,-10,-10
20:23:56:636490,-22,-8,-1,10,2,-3,-10,-10
20:23:56:642480,9,0,-3,-3,-1,-1,13,-8
20:23:56:658213,-18,-44,-4,-5,-4,4,2,-5
20:23:56:658955,-18,-44,-4,-5,-4,4,2,-5
20:23:56:665107,-6,-1,0,-2,-1,-6,-16,-3
20:23:56:673235,13,15,2,-2,-1,5,5,7
20:23:56:674097,13,15,2,-2,-1,5,5,7
20:23:56:687634,-1,4,-2,-6,-3,-2,-8,-2
20:23:56:695750,5,-9,-2,-2,2,3,12,6
20:23:56:696493,5,-9,-2,-2,2,3,12,6
20:23:56:702594,1,10,-1,1,0,1,14,7
20:23:56:718240,18,28,2,-5,-3,-4,7,2
20:23:56:718965,18,28,2,-5,-3,-4,7,2
20:23:56:725128,-13,-12,-2,3,2,0,1,-4
20:23:56:733254,16,9,5,0,-1,-1,-7,-2
20:23:56:733975,16,9,5,0,-1,-1,-7,-2
20:23:56:747478,5,16,2,0,0,3,-7,6
20:23:56:755721,-1,4,-5,-1,-1,-5,-3,2
20:23:56:756460,-1,4,-5,-1,-1,-5,-3,2
20:23:56:762604,-9,-20,-1,5,3,1,8,4
20:23:56:778231,-8,2,-4,-8,-1,2,3,1
20:23:56:779103,-8,2,-4,-8,-1,2,3,1
20:23:56:785002,-13,-32,-6,1,2,-5,-23,-8
20:23:56:793214,2,6,1,5,0,7,11,7
20:23:56:793952,2,6,1,5,0,7,11,7
20:23:56:807520,5,4,1,-3,-4,-1,-6,3
20:23:56:816119,2,5,0,4,-1,-1,-16,-1
20:23:56:823345,2,5,0,4,-1,-1,-16,-1
20:23:56:824082,0,-29,0,6,-1,0,7,0
20:23:56:846354,4,-3,-1,-4,-3,-2,7,-3
20:23:56:847230,4,-3,-1,-4,-3,-2,7,-3
20:23:56:848019,7,19,0,-5,-3,-3,16,-1
20:23:56:853214,-7,-9,-2,-5,-1,-5,9,0
20:23:56:854116,-7,-9,-2,-5,-1,-5,9,0
20:23:56:876392,-5,17,0,-4,-5,-2,-7,-9
20:23:56:877255,-5,17,0,-4,-5,-2,-7,-9
20:23:56:877999,-3,7,-1,2,1,-2,-15,-3
20:23:56:882611,-16,-30,-7,-2,0,-2,-1,4
20:23:56:898384,-16,-30,-7,-2,0,-2,-1,4
20:23:56:898981,-14,-13,0,-2,-1,-3,-11,0
20:23:56:905016,7,26,4,2,2,6,9,2
20:23:56:920756,7,26,4,2,2,6,9,2
20:23:56:921636,7,-9,-6,-6,-1,-5,-12,-5
20:23:56:927513,5,5,-2,0,-2,-2,-16,1
20:23:56:943866,5,5,-2,0,-2,-2,-16,1
20:23:56:944803,-8,-17,1,0,2,5,5,4
20:23:56:945506,0,-1,1,-1,1,0,5,5
20:23:56:958296,0,-1,1,-1,1,0,5,5
20:23:56:959156,2,-23,-3,-4,-1,-5,-14,-2
20:23:56:965028,0,26,3,1,0,1,16,9
20:23:56:981251,0,26,3,1,0,1,16,9
20:23:56:981980,-2,24,1,4,0,1,-8,-5
20:23:56:987473,0,6,-2,-4,-2,-2,2,-5
20:23:56:995713,0,6,-2,-4,-2,-2,2,-5
20:23:56:996601,16,12,-11,-2,-2,1,6,-6
20:23:57:2506,2,7,1,-10,-2,1,8,-4
20:23:57:18734,2,7,1,-10,-2,1,8,-4
20:23:57:25763,4,-4,2,8,3,0,2,-5
20:23:57:26494,-8,-15,-1,0,-1,0,-9,-10
20:23:57:41487,-8,-15,-1,0,-1,0,-9,-10
20:23:57:42235,12,6,-1,-3,-2,1,6,-2
20:23:57:47623,4,13,-2,4,2,2,3,-5
20:23:57:55779,4,13,-2,4,2,2,3,-5
20:23:57:56513,0,6,0,-2,-2,0,9,-5
20:23:57:62502,-14,1,-1,-6,-3,-4,-2,3
20:23:57:86533,-14,1,-1,-6,-3,-4,-2,3
20:23:57:87276,-19,-22,-3,-4,0,-8,-8,6
20:23:57:87975,9,12,0,2,4,5,9,1
20:23:57:100759,9,12,0,2,4,5,9,1
20:23:57:101579,-6,-3,0,-6,-3,-5,-10,1
20:23:57:107483,23,-7,-6,-5,-2,-3,-9,-7
20:23:57:115739,23,-7,-6,-5,-2,-3,-9,-7
20:23:57:116591,-11,2,-1,-5,-3,-2,0,3
20:23:57:122494,-6,-1,-1,6,-8,-6,-10,2
20:23:57:138630,-6,-1,-1,6,-8,-6,-10,2
20:23:57:145737,5,6,3,-2,1,2,-1,0
20:23:57:146478,-34,-17,2,3,-3,-4,-7,-2
20:23:57:160740,-34,-17,2,3,-3,-4,-7,-2
20:23:57:161604,-9,3,0,6,0,2,0,4
20:23:57:167477,15,7,2,-6,-1,-2,11,1
20:23:57:175749,15,7,2,-6,-1,-2,11,1
20:23:57:176579,-2,-9,-5,-10,-2,-4,-4,-12
20:23:57:182482,-13,-22,-5,-6,-2,-4,-10,-4
20:23:57:198264,-13,-22,-5,-6,-2,-4,-10,-4
20:23:57:199128,2,-5,-2,-3,-2,-3,-11,2
20:23:57:205003,5,3,1,2,-2,1,4,-2
20:23:57:220753,5,3,1,2,-2,1,4,-2
20:23:57:221617,-1,-17,2,-3,0,1,-3,-3
20:23:57:227505,-19,-15,-5,-2,0,1,-4,1
20:23:57:235728,-19,-15,-5,-2,0,1,-4,1
20:23:57:236631,-31,-3,3,5,-1,-1,4,-13
20:23:57:249975,-2,-8,-1,-4,-4,-5,-3,-1
20:23:57:258231,-2,-8,-1,-4,-4,-5,-3,-1
20:23:57:258961,22,31,-2,-11,-2,-3,7,-6
20:23:57:264979,4,11,-2,3,4,2,-5,-1
20:23:57:280757,4,11,-2,3,4,2,-5,-1
20:23:57:281508,1,-15,-4,2,-1,2,4,3
20:23:57:287504,2,-1,-1,0,0,-1,8,-8
20:23:57:295740,2,-1,-1,0,0,-1,8,-8
20:23:57:296596,3,18,-5,-12,-3,-1,-10,-3
20:23:57:302474,26,-7,0,16,14,-1,-5,-2
20:23:57:318232,26,-7,0,16,14,-1,-5,-2
20:23:57:318976,30,9,-5,2,-3,-2,6,0
20:23:57:325009,19,17,6,-2,-1,7,7,1
20:23:57:340764,19,17,6,-2,-1,7,7,1
20:23:57:341496,-1,5,3,4,1,-3,-9,5
20:23:57:347527,-6,0,-1,4,1,-3,0,8
20:23:57:355774,-6,0,-1,4,1,-3,0,8
20:23:57:356644,-22,-17,1,7,4,0,-10,-10
20:23:57:362508,-2,-5,-2,-10,-4,-2,-4,1
20:23:57:378228,-2,-5,-2,-10,-4,-2,-4,1
20:23:57:378963,-8,3,5,3,-2,0,3,4
20:23:57:385016,8,-4,-1,-9,-1,-2,-7,8
20:23:57:400766,8,-4,-1,-9,-1,-2,-7,8
20:23:57:401485,-13,-37,-7,-8,-6,1,11,2
20:23:57:407607,-6,-1,-1,-1,-4,-2,-5,-3
20:23:57:415774,-6,-1,-1,-1,-4,-2,-5,-3
20:23:57:416598,3,-6,-2,3,3,5,-6,8
20:23:57:422485,-2,10,-1,-8,-6,-4,-5,3
20:23:57:438271,-2,10,-1,-8,-6,-4,-5,3
20:23:57:438997,8,-13,-1,-4,0,-4,-2,15
20:23:57:445120,-10,3,1,3,1,-1,-25,-29
20:23:57:460732,-10,3,1,3,1,-1,-25,-29
20:23:57:461495,0,-16,-4,3,-2,-1,2,-2
20:23:57:467476,5,-3,-3,4,-3,-1,2,-5
20:23:57:475730,5,-3,-3,4,-3,-1,2,-5
20:23:57:476466,13,26,-1,0,-3,-2,16,14
20:23:57:489974,5,4,-3,5,1,-1,-6,2
20:23:57:498242,5,4,-3,5,1,-1,-6,2
20:23:57:498989,-7,9,0,4,2,0,-8,-19
20:23:57:513254,-4,-4,-3,-3,-5,-3,19,3
20:23:57:514103,-4,-4,-3,-3,-5,-3,19,3
20:23:57:528242,-1,-13,-3,-6,-3,-4,-13,-13
20:23:57:528980,-1,13,-5,2,1,2,8,11
20:23:57:535745,-1,13,-5,2,1,2,8,11
20:23:57:536612,-10,5,0,3,1,0,5,-9
20:23:57:549982,-13,-12,2,-9,-7,-3,6,-6
20:23:57:558244,-13,-12,2,-9,-7,-3,6,-6
20:23:57:559109,-2,9,-2,5,4,4,9,6
20:23:57:564999,-9,-3,0,-5,2,1,10,-2
20:23:57:572606,-9,-3,0,-5,2,1,10,-2
20:23:57:580005,33,16,0,-4,1,-1,5,-13
20:23:57:587516,-3,-13,1,-3,-3,-1,-10,3
20:23:57:595747,-3,-13,1,-3,-3,-1,-10,3
20:23:57:596480,4,10,0,-4,-2,0,14,12
20:23:57:610025,2,-31,-2,-4,0,0,-7,-5
20:23:57:626388,2,-31,-2,-4,0,0,-7,-5
20:23:57:627251,-11,-10,3,3,-1,-2,-18,2
20:23:57:627963,10,6,2,-2,-6,-6,-21,-5
20:23:57:632593,10,6,2,-2,-6,-6,-21,-5
20:23:57:639981,-10,-15,-3,4,2,0,-2,2
20:23:57:647486,14,20,-1,1,3,5,3,15
20:23:57:655771,14,20,-1,1,3,5,3,15
20:23:57:656622,5,-53,-3,-11,-8,-7,-8,-18
20:23:57:670004,-2,21,1,8,9,3,16,-8
20:23:57:678286,-2,21,1,8,9,3,16,-8
20:23:57:679110,0,16,3,3,0,1,2,0
20:23:57:685012,8,-2,-3,-6,-5,-4,-3,-3
20:23:57:692627,8,-2,-3,-6,-5,-4,-3,-3
20:23:57:700006,-1,3,0,17,7,-3,-17,-17
20:23:57:707492,-6,9,2,12,5,6,11,19
20:23:57:715749,-6,9,2,12,5,6,11,19
20:23:57:716490,3,12,-3,-9,-9,-6,-17,9
20:23:57:730004,-3,-30,2,-3,0,2,-7,-5
20:23:57:738207,-3,-30,2,-3,0,2,-7,-5
20:23:57:739090,10,27,3,-7,-2,3,33,20
20:23:57:744990,5,13,-4,-2,-1,-4,4,1
20:23:57:752621,5,13,-4,-2,-1,-4,4,1
20:23:57:759971,-24,8,-7,7,2,-6,-10,5
20:23:57:767502,-21,-20,-5,-8,-7,-1,-2,-2
20:23:57:775767,-21,-20,-5,-8,-7,-1,-2,-2
20:23:57:776490,9,15,2,-13,-5,6,11,14
20:23:57:790017,-10,-40,-5,-1,4,-5,-10,-18
20:23:57:798258,-10,-40,-5,-1,4,-5,-10,-18
20:23:57:798989,-22,-7,-2,-5,1,-2,-7,-4
20:23:57:804985,7,30,4,-2,-2,0,2,11
20:23:57:812642,7,30,4,-2,-2,0,2,11
20:23:57:820000,-4,-9,-2,-4,-1,3,11,-1
20:23:57:827519,0,-3,-4,-1,-2,-2,0,-13
20:23:57:835727,0,-3,-4,-1,-2,-2,0,-13
20:23:57:836498,1,-3,-1,1,0,-4,-12,-28
20:23:57:850015,3,-2,1,7,5,2,13,8
20:23:57:858241,3,-2,1,7,5,2,13,8
20:23:57:858976,0,4,-1,-9,-5,-3,-3,0
20:23:57:864985,4,21,-3,-7,-7,0,1,-8
20:23:57:872631,4,21,-3,-7,-7,0,1,-8
20:23:57:880013,-31,-25,0,4,3,0,0,-2
20:23:57:887477,-7,-27,-2,-9,-6,-6,-15,11
20:23:57:895745,-7,-27,-2,-9,-6,-6,-15,11
20:23:57:896613,11,-2,3,4,-1,4,-1,15
20:23:57:910028,-2,7,-2,-2,-3,-3,-2,-3
20:23:57:918280,-2,7,-2,-2,-3,-3,-2,-3
20:23:57:918992,-9,-6,-5,1,-2,0,-6,-5
20:23:57:925022,11,15,-1,-3,3,3,10,3
20:23:57:932631,11,15,-1,-3,3,3,10,3
20:23:57:939994,-9,15,0,-3,-6,-5,-6,-1
20:23:57:947505,12,-11,-10,2,-1,-1,-4,-7
20:23:57:955780,12,-11,-10,2,-1,-1,-4,-7
20:23:57:956632,2,4,3,-4,-5,-1,4,-25
20:23:57:969999,-28,-10,0,-3,0,4,21,5
20:23:57:978237,-28,-10,0,-3,0,4,21,5
20:23:57:979094,16,19,0,1,3,2,-1,-19
20:23:57:985063,-8,-3,0,5,-6,-8,-15,-5
20:23:57:992629,-8,-3,0,5,-6,-8,-15,-5
20:23:57:999996,4,-10,1,0,4,5,15,13
20:23:58:16359,-15,19,0,1,-3,-5,-14,-18
20:23:58:17226,-15,19,0,1,-3,-5,-14,-18
20:23:58:17974,-12,-11,-3,-3,1,-3,-7,-5
20:23:58:30007,13,11,3,8,11,1,-5,7
20:23:58:38235,13,11,3,8,11,1,-5,7
20:23:58:39011,0,0,-1,1,-7,-4,9,30
20:23:58:44988,-41,-16,4,-25,-3,-2,-14,-13
20:23:58:52631,-41,-16,4,-25,-3,-2,-14,-13
20:23:58:59991,-14,-10,-5,0,0,-2,-8,-8
20:23:58:67511,18,13,2,3,-2,0,3,-12
20:23:58:75817,18,13,2,3,-2,0,3,-12
20:23:58:76503,4,-13,-2,19,0,-4,-4,-8
20:23:58:90002,-2,-2,0,-2,-6,-2,-1,6
20:23:58:98240,-2,-2,0,-2,-6,-2,-1,6
20:23:58:99137,-3,4,-1,-5,0,4,0,7
20:23:58:105017,-27,-43,-8,16,2,-1,-5,-13
20:23:58:120775,-27,-43,-8,16,2,-1,-5,-13
20:23:58:121520,-16,-8,-5,4,-1,-4,-4,0
20:23:58:127474,20,6,0,-4,-10,-1,6,17
20:23:58:135747,20,6,0,-4,-10,-1,6,17
20:23:58:136612,-1,-7,-3,-12,3,0,0,-4
20:23:58:150005,1,-3,-4,-9,0,2,7,4
20:23:58:158253,1,-3,-4,-9,0,2,7,4
20:23:58:159122,13,4,2,2,4,0,0,5
20:23:58:165026,7,12,-2,7,2,-2,-4,-4
20:23:58:180774,7,12,-2,7,2,-2,-4,-4
20:23:58:181493,-50,-26,-9,3,8,-2,-4,-20
20:23:58:187510,0,-2,2,-12,-2,-4,-1,7
20:23:58:195742,0,-2,2,-12,-2,-4,-1,7
20:23:58:196629,27,28,0,-12,-11,-2,-1,-4
20:23:58:210032,7,1,2,-5,2,4,4,13
20:23:58:218267,7,1,2,-5,2,4,4,13
20:23:58:219103,24,-10,2,-1,-3,-1,2,18
20:23:58:224980,8,14,4,15,3,-1,0,6
20:23:58:232613,8,14,4,15,3,-1,0,6
20:23:58:239994,8,4,5,37,19,0,-2,6
20:23:58:247465,-25,-89,-8,-5,-5,-4,-6,-31
20:23:58:255779,-25,-89,-8,-5,-5,-4,-6,-31
20:23:58:256652,6,11,5,-2,-10,-4,-4,-9
20:23:58:270031,9,7,-14,-10,-3,1,2,8
20:23:58:278234,9,7,-14,-10,-3,1,2,8
20:23:58:279100,16,6,-4,-16,-5,-3,-6,-5
20:23:58:293265,-20,-3,-1,2,1,-1,3,-4
20:23:58:294015,-20,-3,-1,2,1,-1,3,-4
20:23:58:299999,2,2,1,-7,-4,2,1,9
20:23:58:307536,-1,21,5,-6,-3,2,2,3
20:23:58:315753,-1,21,5,-6,-3,2,2,3
20:23:58:316614,-22,-1,1,-2,-3,-3,-6,-23
20:23:58:329994,0,-37,-1,3,1,-3,-1,17
20:23:58:338275,0,-37,-1,3,1,-3,-1,17
20:23:58:339007,-8,-10,-2,-5,6,1,0,9
20:23:58:344984,11,27,3,8,4,-1,-1,5
20:23:58:352639,11,27,3,8,4,-1,-1,5
20:23:58:360023,-14,-9,-4,0,-2,-1,1,5
20:23:58:367540,11,17,1,10,5,2,0,14
20:23:58:375803,11,17,1,10,5,2,0,14
20:23:58:376663,12,-9,-19,-22,-3,1,-4,-4
20:23:58:390000,-6,0,9,2,-11,-6,-2,6
20:23:58:398271,-6,0,9,2,-11,-6,-2,6
20:23:58:399118,-8,-23,-9,-20,3,2,0,6
20:23:58:413637,-9,0,-7,31,-2,-2,-2,-4
20:23:58:420750,-9,0,-7,31,-2,-2,-2,-4
20:23:58:421632,12,27,18,-6,-18,-4,0,-8
20:23:58:427510,7,19,0,-27,-11,-5,0,4
20:23:58:435115,7,19,0,-27,-11,-5,0,4
20:23:58:442493,11,33,7,-8,1,1,1,8
20:23:58:450004,-3,30,-6,26,28,9,6,8
20:23:58:458007,-3,30,-6,26,28,9,6,8
20:23:58:465010,-14,-36,-30,38,-11,-4,2,20
20:23:58:473268,-2,19,-3,-9,-14,-7,-5,-8
20:23:58:474015,-2,19,-3,-9,-14,-7,-5,-8
20:23:58:479996,-35,-73,-15,-27,-6,0,-2,-16
20:23:58:487630,-22,-8,0,26,11,0,-6,-8
20:23:58:495158,-22,-8,0,26,11,0,-6,-8
20:23:58:502506,-11,-24,0,-1,0,-3,2,-5
20:23:58:510022,57,13,10,-22,12,2,-1,1
20:23:58:518615,57,13,10,-22,12,2,-1,1
20:23:58:533898,1,6,-5,4,-10,-3,-5,-4
20:23:58:534758,9,-13,-16,-20,-18,-3,-3,-16
20:23:58:535491,9,-13,-16,-20,-18,-3,-3,-16
20:23:58:540004,57,46,15,-28,-2,0,-3,-13
20:23:58:547514,-36,-52,9,5,-1,1,0,2
20:23:58:555126,-36,-52,9,5,-1,1,0,2
20:23:58:562510,-9,2,7,-26,-3,-2,3,16
20:23:58:569981,-5,5,-12,-23,-6,0,-2,-10
20:23:58:578287,-5,5,-12,-23,-6,0,-2,-10
20:23:58:579103,10,27,7,1,1,-1,-6,-31
20:23:58:593265,0,23,11,-55,-16,-6,5,9
20:23:58:594008,0,23,11,-55,-16,-6,5,9
20:23:58:600009,-13,-8,9,-4,20,6,3,3
20:23:58:607534,13,21,-6,-21,0,-1,-3,2
20:23:58:615118,13,21,-6,-21,0,-1,-3,2
20:23:58:639533,12,27,7,-6,8,4,2,5
20:23:58:640376,-31,-71,-5,27,14,-1,-5,-12
20:23:58:641140,-31,-71,-5,27,14,-1,-5,-12
20:23:58:642009,10,-13,-4,60,6,0,2,16
20:23:58:653244,-19,37,3,-6,-15,-4,0,14
20:23:58:653984,-19,37,3,-6,-15,-4,0,14
20:23:58:659995,-9,-30,1,62,19,-1,-2,2
20:23:58:667512,-15,-16,5,30,5,5,-1,-24
20:23:58:675126,-15,-16,5,30,5,5,-1,-24
20:23:58:682610,3,34,8,-10,-14,-6,1,0
20:23:58:706371,-2,-47,-5,-39,-8,-3,-7,-18
20:23:58:707266,-2,-47,-5,-39,-8,-3,-7,-18
20:23:58:708003,4,6,7,-18,-4,-3,-7,-12
20:23:58:713275,22,18,1,22,8,-2,-2,-4
20:23:58:714136,22,18,1,22,8,-2,-2,-4
20:23:58:719992,9,-35,-11,-13,3,-2,3,-13
20:23:58:727519,21,29,11,31,4,0,-4,-9
20:23:58:735002,21,29,11,31,4,0,-4,-9
20:23:58:742512,-6,-10,-9,47,8,-1,0,2
20:23:58:749998,-5,-10,14,14,-4,0,2,11
20:23:58:765761,-5,-10,14,14,-4,0,2,11
20:23:58:766622,-20,-8,-1,-16,-6,2,-4,-17
20:23:58:773251,14,11,2,-5,-6,0,-1,-4
20:23:58:774013,14,11,2,-5,-6,0,-1,-4
20:23:58:779995,6,28,-4,-10,-3,-2,-1,-3
20:23:58:787501,31,-28,-5,-15,-4,-1,0,-2
20:23:58:795119,31,-28,-5,-15,-4,-1,0,-2
20:23:58:810755,-5,-20,-18,12,15,7,2,17
20:23:58:811495,-18,5,-4,25,11,6,4,6
20:23:58:818248,-18,5,-4,25,11,6,4,6
20:23:58:819008,18,38,22,8,1,-2,0,11
20:23:58:833066,-18,23,-13,-2,-3,-3,-4,-9
20:23:58:840787,-18,23,-13,-2,-3,-3,-4,-9
20:23:58:841682,-15,-36,0,-3,-9,-6,-4,-17
20:23:58:847541,9,4,3,-2,-2,-2,-1,3
20:23:58:855018,9,4,3,-2,-2,-2,-1,3
20:23:58:862518,-41,2,-9,-29,-10,-2,-6,-2
20:23:58:878894,10,7,1,-14,0,-1,2,-2
20:23:58:879670,10,7,1,-14,0,-1,2,-2
20:23:58:880501,-12,11,8,2,11,1,0,-2
20:23:58:892539,12,5,3,-13,1,0,-3,-12
20:23:58:900743,12,5,3,-13,1,0,-3,-12
20:23:58:901614,12,13,9,-25,-19,-5,1,11
20:23:58:907506,1,-21,2,7,-3,-3,-2,-8
20:23:58:915150,1,-21,2,7,-3,-3,-2,-8
20:23:58:922506,9,0,-17,-17,-6,1,3,-3
20:23:58:930001,-35,-80,-12,-15,-8,0,-6,-18
20:23:58:938281,-35,-80,-12,-15,-8,0,-6,-18
20:23:58:939015,12,5,5,35,2,-3,-5,-8
20:23:58:952503,17,16,-20,14,8,2,-1,4
20:23:58:960778,17,16,-20,14,8,2,-1,4
20:23:58:961516,10,-17,-4,-4,-8,-1,3,6
20:23:58:967496,-8,27,4,-13,-7,-7,-7,1
20:23:58:983234,-8,27,4,-13,-7,-7,-7,1
20:23:58:984151,-2,1,-6,-12,-6,-3,1,9
20:23:58:990027,4,22,3,11,4,2,3,11
20:23:58:998308,4,22,3,11,4,2,3,11
20:23:58:999050,-6,-9,13,-2,-15,-5,-4,2
20:23:59:12552,-10,-46,1,-22,-9,-4,-1,-7
20:23:59:20793,-10,-46,1,-22,-9,-4,-1,-7
20:23:59:21642,18,23,6,10,3,0,0,1
20:23:59:27546,-12,0,-10,-2,-11,-2,-4,-12
20:23:59:35030,-12,0,-10,-2,-11,-2,-4,-12
20:23:59:42525,5,20,-12,-6,0,0,-1,-2
20:23:59:49995,-6,19,-10,-8,-6,-4,0,8
20:23:59:58277,-6,19,-10,-8,-6,-4,0,8
20:23:59:59021,6,-15,-10,-14,12,2,0,1
20:23:59:72529,20,31,2,21,6,2,3,8
20:23:59:80759,20,31,2,21,6,2,3,8
20:23:59:81498,-16,-20,-8,-25,-4,0,1,16
20:23:59:87517,10,-2,1,-15,-8,-1,-2,9
20:23:59:95146,10,-2,1,-15,-8,-1,-2,9
20:23:59:102508,-8,-1,11,14,-3,-2,-2,4
20:23:59:110013,-10,22,-9,-11,-7,-3,-4,-5
20:23:59:118256,-10,22,-9,-11,-7,-3,-4,-5
20:23:59:119008,-4,-10,-3,-13,0,3,2,-2
20:23:59:142367,3,-2,1,-3,-2,-2,1,3
20:23:59:143118,3,-2,1,-3,-2,-2,1,3
20:23:59:143874,-7,4,8,4,-4,-4,-3,-3
20:23:59:147488,-15,-2,6,12,-1,-2,2,1
20:23:59:155118,-15,-2,6,12,-1,-2,2,1
20:23:59:162492,9,2,-1,24,16,2,1,-8
20:23:59:170002,-36,-27,-15,-8,5,-1,-2,-2
20:23:59:178283,-36,-27,-15,-8,5,-1,-2,-2
20:23:59:179008,19,5,-14,9,-2,-2,-1,-6
20:23:59:201774,26,12,9,-8,1,-2,0,-3
20:23:59:202609,26,12,9,-8,1,-2,0,-3
20:23:59:208257,-4,-6,-16,-12,0,3,5,-1
20:23:59:208998,2,10,6,8,-1,-2,-5,-3
20:23:59:215003,2,10,6,8,-1,-2,-5,-3
20:23:59:222495,-6,6,16,-12,-10,-3,2,0
20:23:59:230019,3,16,9,10,4,0,-3,-13
20:23:59:238258,3,16,9,10,4,0,-3,-13
20:23:59:238995,-13,-4,-5,-1,-3,-3,-4,-5
20:23:59:252516,6,-1,-1,-5,0,3,4,6
20:23:59:268884,6,-1,-1,-5,0,3,4,6
20:23:59:269761,-6,10,9,-3,-3,-2,-6,-4
20:23:59:270480,-30,-53,-15,-28,3,3,-1,12
20:23:59:275161,-30,-53,-15,-28,3,3,-1,12
20:23:59:282528,-13,-15,-13,-25,13,3,1,16
20:23:59:290033,15,21,-4,-2,-7,-4,1,3
20:23:59:305762,15,21,-4,-2,-7,-4,1,3
20:23:59:306517,-3,2,8,22,-2,2,-1,-7
20:23:59:312503,3,-8,-8,-5,-1,0,0,1
20:23:59:320778,3,-8,-8,-5,-1,0,0,1
20:23:59:321631,10,8,-9,-1,-5,-4,-1,6
20:23:59:335764,2,8,2,6,0,-2,-5,-24
20:23:59:336621,2,8,2,6,0,-2,-5,-24
20:23:59:342554,8,12,-1,4,-1,-4,-5,-23
20:23:59:350063,7,-4,-6,-8,-2,-1,3,2
20:23:59:357659,7,-4,-6,-8,-2,-1,3,2
20:23:59:365040,-6,-7,-4,-22,-9,-1,-1,3
20:23:59:372479,3,-13,0,-12,-5,-2,1,-4
20:23:59:380756,3,-13,0,-12,-5,-2,1,-4
20:23:59:381550,-22,-10,3,22,3,0,-1,-3
20:23:59:395776,7,8,10,9,10,4,2,-3
20:23:59:396637,7,8,10,9,10,4,2,-3
20:23:59:402508,-5,-2,-10,-21,0,1,-3,-8
20:23:59:409979,-30,-11,-2,-6,-3,-5,-2,23
20:23:59:417485,-30,-11,-2,-6,-3,-5,-2,23
20:23:59:425002,5,2,-3,-2,6,0,-7,-27
20:23:59:432534,3,11,7,27,7,3,2,-8
20:23:59:440779,3,11,7,27,7,3,2,-8
20:23:59:441488,2,-5,0,2,-3,-3,-1,4
20:23:59:455796,3,-4,-15,0,0,2,-7,-5
20:23:59:456587,3,-4,-15,0,0,2,-7,-5
20:23:59:478855,12,0,3,12,4,1,3,21
20:23:59:479777,5,24,14,-8,0,-1,-4,-2
20:23:59:480506,5,24,14,-8,0,-1,-4,-2
20:23:59:485017,-11,-2,-2,-5,-8,-6,0,-1
20:23:59:492519,-2,1,-1,-11,-9,-2,-2,0
20:23:59:508253,-2,1,-1,-11,-9,-2,-2,0
20:23:59:509001,-32,-20,-1,33,6,-2,-1,-11
20:23:59:515764,4,4,-1,-16,0,-2,0,2
20:23:59:516632,4,4,-1,-16,0,-2,0,2
20:23:59:522504,-17,-11,-2,13,-1,-1,2,1
20:23:59:538266,-11,-12,-1,15,13,2,0,0
20:23:59:539005,-11,-12,-1,15,13,2,0,0
20:23:59:544995,10,6,6,-3,-1,1,-4,-16
20:23:59:552502,10,-10,-1,9,-4,-3,3,15
20:23:59:560791,10,-10,-1,9,-4,-3,3,15
20:23:59:561635,0,12,11,-11,-2,-2,-4,0
20:23:59:584398,-17,-27,8,7,-7,-2,2,9
20:23:59:585129,-17,-27,8,7,-7,-2,2,9
20:23:59:585992,-18,-8,-6,-2,0,-5,-1,16
20:23:59:590006,17,11,-6,-23,2,1,-2,4
20:23:59:605771,17,11,-6,-23,2,1,-2,4
20:23:59:606504,25,30,1,-11,-5,-3,-3,-2
20:23:59:612547,-5,-1,-1,11,1,-1,2,3
20:23:59:620788,-5,-1,-1,11,1,-1,2,3
20:23:59:621510,0,9,-2,-34,-3,-1,-2,-8
20:23:59:643928,1,-3,-1,29,9,2,1,-10
20:23:59:644785,1,-3,-1,29,9,2,1,-10
20:23:59:645516,-10,-1,4,4,2,-1,5,7
20:23:59:649994,17,12,2,9,-1,-3,1,-1
20:23:59:657486,17,12,2,9,-1,-3,1,-1
20:23:59:673138,9,-4,0,0,0,0,1,-6
20:23:59:674005,2,-3,-12,-18,-14,-4,-5,-11
20:23:59:680743,2,-3,-12,-18,-14,-4,-5,-11
20:23:59:681636,4,-9,-17,-7,-4,-3,-2,1
20:23:59:695782,-2,-3,-23,-21,-8,-1,0,-2
20:23:59:696647,-2,-3,-23,-21,-8,-1,0,-2
20:23:59:710634,2,-11,1,14,2,1,5,6
20:23:59:711500,-4,9,19,1,7,-1,-2,0
20:23:59:717649,-4,9,19,1,7,-1,-2,0
20:23:59:725003,-1,-9,-5,-2,1,-2,-1,0
20:23:59:732504,13,10,13,-9,-14,-2,-9,-10
20:23:59:740753,13,10,13,-9,-14,-2,-9,-10
20:23:59:741492,5,-5,-4,-9,-9,-5,-9,-8
20:23:59:755791,-2,-7,-4,34,22,4,3,-2
20:23:59:756499,-2,-7,-4,34,22,4,3,-2
20:23:59:762502,3,0,-13,-2,-2,1,-2,-11
20:23:59:778246,-26,1,9,10,0,-2,-5,-18
20:23:59:779021,-26,1,9,10,0,-2,-5,-18
20:23:59:785002,5,-1,10,24,8,3,4,6
20:23:59:792535,-7,-2,-11,-32,-10,-6,-8,-18
20:23:59:800760,-7,-2,-11,-32,-10,-6,-8,-18
20:23:59:801506,-5,-8,3,-3,-6,-1,1,3
20:23:59:815769,0,0,-6,0,0,1,3,10
20:23:59:816511,0,0,-6,0,0,1,3,10
20:23:59:822515,15,2,2,11,0,-1,-2,-2
20:23:59:830047,-11,-1,4,-15,-3,-3,3,5
20:23:59:837643,-11,-1,4,-15,-3,-3,3,5
20:23:59:845040,1,-8,4,13,-3,-2,-3,6
20:23:59:861390,0,1,2,1,-1,2,2,1
20:23:59:862248,0,1,2,1,-1,2,2,1
20:23:59:863027,-15,5,-1,-1,9,3,2,-4
20:23:59:875746,15,-13,-8,0,-4,-2,5,19
20:23:59:876484,15,-13,-8,0,-4,-2,5,19
20:23:59:882496,-9,9,2,-6,-1,-1,-1,-1
20:23:59:890000,16,15,2,2,-3,1,0,8
20:23:59:897640,16,15,2,2,-3,1,0,8
20:23:59:905026,3,9,-3,8,-4,-1,-4,-5
20:23:59:912513,-30,-4,2,-9,-10,-5,-2,2
20:23:59:920543,-30,-4,2,-9,-10,-5,-2,2
20:23:59:927509,1,6,-8,4,-7,-2,-1,-1
20:23:59:935789,2,-24,2,13,-1,-1,-3,-5
20:23:59:936624,2,-24,2,13,-1,-1,-3,-5
20:23:59:942532,-11,-17,0,-24,-4,-2,3,3
20:23:59:950016,-27,-1,-2,29,4,-2,0,-6
20:23:59:957505,-27,-1,-2,29,4,-2,0,-6
20:23:59:965008,-2,-4,-17,-7,4,3,4,8
20:23:59:981424,4,14,6,-9,-5,-5,-9,-20
20:23:59:982147,4,14,6,-9,-5,-5,-9,-20
20:23:59:982983,1,-21,8,44,21,1,0,2
20:23:59:995769,11,12,0,-8,-5,1,4,10
20:23:59:996638,11,12,0,-8,-5,1,4,10
20:24:00:2513,0,-5,1,-21,-7,-3,-4,-5
20:24:00:10019,-5,-4,-15,-30,8,3,-4,-7
20:24:00:17519,-5,-4,-15,-30,8,3,-4,-7
20:24:00:25028,-3,17,-1,-25,-4,0,1,0
20:24:00:32508,12,-3,0,-8,-9,0,0,4
20:24:00:40768,12,-3,0,-8,-9,0,0,4
20:24:00:41505,-2,-5,3,-8,-6,-3,-5,-8
20:24:00:55756,1,-5,-3,-20,-6,-3,-1,1
20:24:00:56624,1,-5,-3,-20,-6,-3,-1,1
20:24:00:62498,-1,-2,0,-1,-3,-1,-2,1
20:24:00:70018,8,15,5,28,12,4,4,3
20:24:00:77514,8,15,5,28,12,4,4,3
20:24:00:85038,-5,-16,5,27,9,-2,3,10
20:24:00:92506,-3,10,-2,-14,3,-1,-4,-4
20:24:00:100792,-3,10,-2,-14,3,-1,-4,-4
20:24:00:101515,3,16,-5,-8,-4,0,-1,11
20:24:00:116151,11,-1,0,-2,2,-2,3,2
20:24:00:123234,11,-1,0,-2,2,-2,3,2
20:24:00:123987,5,4,7,-25,-8,-3,-2,-3
20:24:00:129983,-2,-4,4,43,8,2,-2,-5
20:24:00:137621,-2,-4,4,43,8,2,-2,-5
20:24:00:145015,-3,-2,5,16,-4,-3,-3,-5
20:24:00:152493,3,9,1,-7,1,-7,-11,-9
20:24:00:160766,3,9,1,-7,1,-7,-11,-9
20:24:00:161513,5,4,-7,8,5,-1,-1,-8
20:24:00:175786,-1,-9,-9,8,-4,-1,3,3
20:24:00:176511,-1,-9,-9,8,-4,-1,3,3
20:24:00:182514,-6,-4,-6,-27,-14,-4,-6,-5
20:24:00:190001,-3,-18,-5,-3,1,2,1,-5
20:24:00:197677,-3,-18,-5,-3,1,2,1,-5
20:24:00:205034,-13,-7,-5,-9,-9,1,0,-8
20:24:00:212528,-4,2,-6,-21,-2,1,-1,3
20:24:00:220766,-4,2,-6,-21,-2,1,-1,3
20:24:00:221520,5,-4,-8,6,0,-1,-3,-1
20:24:00:235783,-12,-22,-11,-17,20,6,4,-1
20:24:00:236552,-12,-22,-11,-17,20,6,4,-1
20:24:00:242518,-23,9,1,-7,-3,0,-2,-3
20:24:00:249996,3,-8,4,13,6,1,5,3
20:24:00:257606,3,-8,4,13,6,1,5,3
20:24:00:265015,10,-43,-1,5,0,0,-1,1
20:24:00:273264,17,1,-1,-6,-7,-3,-13,-7
20:24:00:274012,17,1,-1,-6,-7,-3,-13,-7
20:24:00:280009,21,34,3,-11,-1,0,-5,0
20:24:00:296182,7,-13,1,6,-3,-6,-3,6
20:24:00:297027,7,-13,1,6,-3,-6,-3,6
20:24:00:302540,2,7,1,8,-1,-2,-5,9
20:24:00:318257,-38,17,8,6,-4,-6,-13,-7
20:24:00:319007,-38,17,8,6,-4,-6,-13,-7
20:24:00:325007,-4,-3,-13,-11,-1,3,16,7
20:24:00:333258,3,-36,-7,-7,3,0,7,-2
20:24:00:334151,3,-36,-7,-7,3,0,7,-2
20:24:00:347526,-2,20,-2,6,2,2,9,-1
20:24:00:355767,14,17,-8,-16,-6,-3,7,0
20:24:00:356488,14,17,-8,-16,-6,-3,7,0
20:24:00:362514,3,4,6,-5,-4,1,12,2
20:24:00:378269,-2,7,7,-6,-2,-6,-15,2
20:24:00:379003,-2,7,7,-6,-2,-6,-15,2
20:24:00:385040,11,-3,0,17,6,-1,-14,-12
20:24:00:393264,4,-9,-11,3,-6,-8,1,-1
20:24:00:394128,4,-9,-11,3,-6,-8,1,-1
20:24:00:407525,-15,-3,3,-11,1,2,13,4
20:24:00:415786,2,-16,-1,4,-2,-3,-13,-6
20:24:00:416520,2,-16,-1,4,-2,-3,-13,-6
20:24:00:422507,-7,5,-2,-6,4,0,-3,-9
20:24:00:438281,-8,34,11,2,-9,-2,-4,-3
20:24:00:439014,-8,34,11,2,-9,-2,-4,-3
20:24:00:445019,15,2,-4,7,3,1,2,5
20:24:00:453294,-14,-29,1,3,-8,4,4,2
20:24:00:454149,-14,-29,1,3,-8,4,4,2
20:24:00:476415,1,-3,7,20,22,3,-3,0
20:24:00:477135,6,40,8,-1,3,3,-5,-10
20:24:00:477997,6,40,8,-1,3,3,-5,-10
20:24:00:482505,-3,-18,-4,-8,-9,-3,-13,0
20:24:00:498262,-1,1,6,-2,-2,6,14,6
20:24:00:499020,-1,1,6,-2,-2,6,14,6
20:24:00:513888,7,-2,-1,-11,-6,-7,-4,-8
20:24:00:514636,1,-10,-2,4,0,0,21,13
20:24:00:515505,1,-10,-2,4,0,0,21,13
20:24:00:527503,-11,12,9,-8,-1,2,-23,-4
20:24:00:535791,4,3,-6,2,-3,-3,16,2
20:24:00:536505,4,3,-6,2,-3,-3,16,2
20:24:00:542515,-15,17,0,3,0,7,11,20
20:24:00:558268,-4,-20,-9,-3,-2,-3,2,1
20:24:00:559015,-4,-20,-9,-3,-2,-3,2,1
20:24:00:565017,15,-10,-6,-11,-15,-18,-13,-10
20:24:00:580788,0,30,-2,6,1,-2,0,-5
20:24:00:581507,0,30,-2,6,1,-2,0,-5
20:24:00:587556,-3,25,-1,-2,-3,6,27,0
20:24:00:595800,12,-21,5,3,5,-2,-21,-9
20:24:00:596526,12,-21,5,3,5,-2,-21,-9
20:24:00:602518,9,-23,1,-3,-3,-6,-1,8
20:24:00:618688,-35,6,-5,-6,-2,4,9,2
20:24:00:619547,-35,6,-5,-6,-2,4,9,2
20:24:00:633920,-21,-30,-4,-2,-3,-8,-23,-3
20:24:00:634661,7,11,2,0,3,2,20,3
20:24:00:635553,7,11,2,0,3,2,20,3
20:24:00:647556,12,18,-5,-5,-1,0,-19,-3
20:24:00:655820,0,10,0,4,6,4,5,16
20:24:00:656566,0,10,0,4,6,4,5,16
20:24:00:662533,-21,3,-7,-4,-6,-2,-12,-7
20:24:00:678157,13,-9,-4,-4,0,7,15,11
20:24:00:679038,13,-9,-4,-4,0,7,15,11
20:24:00:685071,-28,-4,-1,2,8,4,27,4
20:24:00:693280,-11,-5,-5,-2,1,-8,-24,-13
20:24:00:694021,-11,-5,-5,-2,1,-8,-24,-13
20:24:00:707554,24,18,-5,-7,1,4,28,5
20:24:00:715772,0,-38,-3,-7,-5,-3,-2,5
20:24:00:716532,0,-38,-3,-7,-5,-3,-2,5
20:24:00:722559,5,-5,0,1,5,-6,-16,-10
20:24:00:738174,3,25,-12,3,-3,-4,-22,-3
20:24:00:739027,3,25,-12,3,-3,-4,-22,-3
20:24:00:745037,-3,-1,1,-3,-10,-1,8,-12
20:24:00:753153,-4,-1,3,3,-4,-4,11,-17
20:24:00:754020,-4,-1,3,3,-4,-4,11,-17
20:24:00:767554,19,2,-3,3,0,-9,-11,5
20:24:00:775652,36,-31,-3,7,2,2,-13,-1
20:24:00:776510,36,-31,-3,7,2,2,-13,-1
20:24:00:790015,8,-12,-3,2,-1,0,-5,-4
20:24:00:806425,8,-12,-3,2,-1,0,-5,-4
20:24:00:807292,-12,17,5,10,2,1,-14,-8
20:24:00:808064,8,-9,6,-9,-5,0,2,9
20:24:00:828901,8,-9,6,-9,-5,0,2,9
20:24:00:829652,-17,-17,1,3,9,2,-17,-11
20:24:00:830526,-14,-10,-4,7,8,3,-6,-5
20:24:00:835764,-14,-10,-4,7,8,3,-6,-5
20:24:00:836510,0,17,-1,-7,-9,-3,-3,2
20:24:00:842523,8,-13,-4,-3,-3,-3,-9,-5
20:24:00:858286,8,-13,-4,-3,-3,-3,-9,-5
20:24:00:859033,-10,-4,-6,-2,-2,-5,-45,-11
20:24:00:865020,5,34,2,4,1,7,5,-16
20:24:00:880750,5,34,2,4,1,7,5,-16
20:24:00:881502,27,-17,-19,-13,-7,-2,-2,-3
20:24:00:896404,-2,-22,-2,8,10,2,2,1
20:24:00:897291,-2,-22,-2,8,10,2,2,1
20:24:00:898014,4,2,8,11,7,1,0,6
20:24:00:910008,-7,6,1,3,0,3,2,-7
20:24:00:918305,-7,6,1,3,0,3,2,-7
20:24:00:919019,1,-9,-1,-10,-11,-3,37,9
20:24:00:925014,-15,-2,5,-14,-7,-2,-12,-3
20:24:00:940770,-15,-2,5,-14,-7,-2,-12,-3
20:24:00:941505,-8,8,-4,-7,-6,-2,12,-5
20:24:00:947535,-1,-14,-1,1,-3,-4,9,4
20:24:00:955782,-1,-14,-1,1,-3,-4,9,4
20:24:00:956531,-3,25,4,-6,-6,-5,-17,-5
20:24:00:962550,2,-5,-5,-1,-7,-6,-19,1
20:24:00:978285,2,-5,-5,-1,-7,-6,-19,1
20:24:00:979004,-15,4,0,-2,2,4,29,1
20:24:00:985028,-3,10,2,11,1,-3,8,-3
20:24:01:782,-3,10,2,11,1,-3,8,-3
20:24:01:1522,-4,-5,13,-2,-2,-4,-20,-1
20:24:01:7535,-8,-9,-1,-11,-4,-2,-9,-2
20:24:01:15802,-8,-9,-1,-11,-4,-2,-9,-2
20:24:01:16596,-7,-9,1,2,1,-4,-10,-3
20:24:01:22521,-1,3,-1,5,0,2,7,0
20:24:01:38319,-1,3,-1,5,0,2,7,0
20:24:01:39064,2,-3,-7,-11,-3,-2,7,-1
20:24:01:45036,-9,-25,-6,-9,-3,-2,-11,0
20:24:01:60773,-9,-25,-6,-9,-3,-2,-11,0
20:24:01:61529,-2,26,2,4,5,11,45,15
20:24:01:67629,6,-3,-1,-3,-3,-2,5,12
20:24:01:75784,6,-3,-1,-3,-3,-2,5,12
20:24:01:76571,-1,-2,-1,-4,2,3,11,7
20:24:01:82507,-29,-12,1,15,13,3,8,0
20:24:01:98327,-29,-12,1,15,13,3,8,0
20:24:01:99010,6,-16,-5,1,1,1,-11,-11
20:24:01:105023,3,-19,-6,-10,-5,-3,-15,-11
20:24:01:120818,3,-19,-6,-10,-5,-3,-15,-11
20:24:01:121565,-1,-1,2,-4,-4,2,-13,0
20:24:01:127560,5,-13,7,-6,-11,-8,5,-3
20:24:01:135802,5,-13,7,-6,-11,-8,5,-3
20:24:01:136520,0,10,2,7,3,-3,0,-2
20:24:01:142532,-29,11,0,-2,2,4,-1,-3
20:24:01:158324,-29,11,0,-2,2,4,-1,-3
20:24:01:159064,-4,-3,-7,-4,-7,-6,12,-2
20:24:01:165030,12,-8,-4,-5,-6,-7,-6,1
20:24:01:180808,12,-8,-4,-5,-6,-7,-6,1
20:24:01:181628,-4,1,1,3,3,1,-9,0
20:24:01:187531,12,12,-7,-8,-3,3,4,-1
20:24:01:195778,12,12,-7,-8,-3,3,4,-1
20:24:01:196527,-9,-14,-5,-8,0,-5,-19,-5
20:24:01:202563,8,5,1,-1,-3,-2,-10,-5
20:24:01:218299,8,5,1,-1,-3,-2,-10,-5
20:24:01:219028,-6,6,-3,-1,0,-2,0,-5
20:24:01:225025,-20,-1,-5,2,3,-1,9,7
20:24:01:240788,-20,-1,-5,2,3,-1,9,7
20:24:01:241564,14,21,2,12,6,0,-8,2
20:24:01:247540,6,13,1,8,7,4,6,3
20:24:01:255817,6,13,1,8,7,4,6,3
20:24:01:256545,3,-6,1,-4,-5,-2,12,8
20:24:01:270040,12,-9,-2,-6,-1,0,4,5
20:24:01:278308,12,-9,-2,-6,-1,0,4,5
20:24:01:279042,14,-10,-9,-1,-3,-4,-24,-11
20:24:01:285043,3,10,0,2,-4,-2,1,-7
20:24:01:300823,3,10,0,2,-4,-2,1,-7
20:24:01:301578,-3,-5,0,1,-1,1,1,6
20:24:01:307538,-1,7,2,8,1,1,-4,1
20:24:01:315782,-1,7,2,8,1,1,-4,1
20:24:01:316513,-11,-7,2,2,0,1,3,2
20:24:01:330038,-3,3,3,2,-4,0,-21,-13
20:24:01:338273,-3,3,3,2,-4,0,-21,-13
20:24:01:339019,2,-5,-1,7,0,-6,-16,-7
20:24:01:345050,-4,-7,-1,-16,-4,-1,3,2
20:24:01:360788,-4,-7,-1,-16,-4,-1,3,2
20:24:01:361523,2,4,4,0,5,6,29,11
20:24:01:367533,-1,-42,-8,-4,1,-2,6,3
20:24:01:375772,-1,-42,-8,-4,1,-2,6,3
20:24:01:376506,-5,-3,3,4,2,-1,-2,3
20:24:01:390016,18,14,0,-5,-5,2,8,1
20:24:01:398272,18,14,0,-5,-5,2,8,1
20:24:01:399019,-5,-2,-1,-6,-3,-4,-32,-18
20:24:01:405052,-5,6,6,7,2,4,-5,7
20:24:01:420807,-5,6,6,7,2,4,-5,7
20:24:01:421542,-42,3,-4,-6,-2,-4,5,-11
20:24:01:436427,5,15,2,10,-1,-4,3,-1
20:24:01:437288,5,15,2,10,-1,-4,3,-1
20:24:01:438086,5,-14,-1,-2,-5,3,-4,-9
20:24:01:450016,-8,0,-2,-2,1,-1,13,0
20:24:01:458289,-8,0,-2,-2,1,-1,13,0
20:24:01:459034,5,-2,-6,3,1,1,12,6
20:24:01:465020,-16,4,-3,1,1,-2,-4,-3
20:24:01:480757,-16,4,-3,1,1,-2,-4,-3
20:24:01:481505,-3,8,-2,1,3,-2,10,2
20:24:01:487532,-1,-1,-3,3,6,-2,-15,-2
20:24:01:496172,-1,-1,-3,3,6,-2,-15,-2
20:24:01:510644,-11,16,1,-3,-8,-5,-22,-2
20:24:01:511509,-6,4,-3,-3,0,-3,10,-4
20:24:01:518265,-6,4,-3,-3,0,-3,10,-4
20:24:01:519011,18,1,4,-7,-8,-2,-18,9
20:24:01:525050,-3,-11,-6,-3,3,1,12,-2
20:24:01:540771,-3,-11,-6,-3,3,1,12,-2
20:24:01:541511,0,-7,-1,-4,0,0,-4,-5
20:24:01:547531,24,-3,3,13,5,-1,3,2
20:24:01:555785,24,-3,3,13,5,-1,3,2
20:24:01:556536,4,-7,1,3,2,1,5,6
20:24:01:570034,14,8,-1,-10,-5,-5,-5,-7
20:24:01:578294,14,8,-1,-10,-5,-5,-5,-7
20:24:01:579027,5,-4,-4,-3,2,2,2,-1
20:24:01:585025,-18,-23,-1,-6,-4,3,11,5
20:24:01:600768,-18,-23,-1,-6,-4,3,11,5
20:24:01:601556,-13,-31,-8,-8,-1,2,12,-6
20:24:01:616402,4,8,1,1,3,-1,3,-6
20:24:01:617271,4,8,1,1,3,-1,3,-6
20:24:01:618042,10,16,1,-11,-4,-3,2,1
20:24:01:630013,-1,-7,-2,3,-4,3,7,12
20:24:01:638270,-1,-7,-2,3,-4,3,7,12
20:24:01:639007,1,10,2,0,-2,-6,-12,-12
20:24:01:645011,2,0,-2,-5,1,-3,7,-5
20:24:01:660805,2,0,-2,-5,1,-3,7,-5
20:24:01:661542,-4,-3,-2,6,5,2,6,4
20:24:01:667513,-9,7,0,3,-3,-1,-15,3
20:24:01:675760,-9,7,0,3,-3,-1,-15,3
20:24:01:676520,-9,-42,-5,-5,-2,1,7,6
20:24:01:690040,-1,-7,-2,4,6,-1,9,-6
20:24:01:698297,-1,-7,-2,4,6,-1,9,-6
20:24:01:699014,-6,20,0,3,-2,0,11,-11
20:24:01:704999,12,6,-2,-5,-2,-2,-9,0
20:24:01:712643,12,6,-2,-5,-2,-2,-9,0
20:24:01:728211,-4,2,-2,-4,-5,-6,-4,-3
20:24:01:729025,0,12,-2,0,-5,-3,-16,-6
20:24:01:735750,0,12,-2,0,-5,-3,-16,-6
20:24:01:736496,-3,17,2,-2,1,2,-4,10
20:24:01:750041,1,2,1,-4,-4,-2,-33,-7
20:24:01:758312,1,2,1,-4,-4,-2,-33,-7
20:24:01:759041,-4,-11,0,4,0,5,36,3
20:24:01:764998,-2,-6,3,-6,-4,-1,9,6
20:24:01:772515,-2,-6,3,-6,-4,-1,9,6
20:24:01:780065,16,-1,0,-3,-4,-5,-10,-3
20:24:01:787517,-2,-5,-2,2,5,3,18,6
20:24:01:795800,-2,-5,-2,2,5,3,18,6
20:24:01:796542,16,-5,-2,-7,-2,0,-11,-5
20:24:01:810015,-3,29,2,1,1,-2,-10,-3
20:24:01:818307,-3,29,2,1,1,-2,-10,-3
20:24:01:819021,15,14,-2,-1,-2,-8,-35,-1
20:24:01:833283,-6,-5,2,-8,-6,1,-5,-5
20:24:01:834004,-6,-5,2,-8,-6,1,-5,-5
20:24:01:840034,-8,-4,1,-5,-2,-3,-6,-11
20:24:01:847552,17,1,-3,-4,-3,-2,-1,-1
20:24:01:855788,17,1,-3,-4,-3,-2,-1,-1
20:24:01:856533,-4,-13,-4,-5,0,-5,-21,-4
20:24:01:870070,-9,-3,0,7,0,-4,-10,-10
20:24:01:878913,-9,-3,0,7,0,-4,-10,-10
20:24:01:879789,-10,2,-3,-2,-2,-1,1,1
20:24:01:885048,-5,-5,-3,-1,-6,-5,-12,-5
20:24:01:892652,-5,-5,-3,-1,-6,-5,-12,-5
20:24:01:900036,-5,1,2,-2,1,-2,9,-1
20:24:01:907534,-4,-3,-5,-10,-3,-2,4,2
20:24:01:915862,-4,-3,-5,-10,-3,-2,4,2
20:24:01:916533,7,2,-2,-11,-1,-2,-1,7
20:24:01:938927,-12,5,0,-3,-2,3,-1,-2
20:24:01:939667,-12,5,0,-3,-2,3,-1,-2
20:24:01:940533,0,5,-4,3,1,1,12,2
20:24:01:945038,-4,-1,-2,-2,2,2,8,4
20:24:01:960803,-4,-1,-2,-2,2,2,8,4
20:24:01:961548,-4,2,3,11,0,0,-9,-2
20:24:01:984543,4,-7,-1,5,-2,-2,8,-5
20:24:01:985402,4,-7,-1,5,-2,-2,8,-5
20:24:01:986148,-1,-3,0,-6,-7,-5,-11,-3
20:24:01:990054,1,-7,-2,-6,-5,-2,21,4
20:24:01:998253,1,-7,-2,-6,-5,-2,21,4
20:24:01:999006,4,5,0,10,7,7,21,14
20:24:02:5035,-6,-19,-3,-12,-4,-3,-13,-1
20:24:02:20811,-6,-19,-3,-12,-4,-3,-13,-1
20:24:02:21513,-13,-5,-5,1,2,0,1,-1
20:24:02:27552,5,-20,-1,5,1,-4,-25,-1
20:24:02:35798,5,-20,-1,5,1,-4,-25,-1
20:24:02:36510,-10,-4,-3,-1,-1,-2,-21,-1
20:24:02:50045,-9,8,-1,2,3,1,-19,-5
20:24:02:58273,-9,8,-1,2,3,1,-19,-5
20:24:02:59012,7,6,2,4,-4,-4,-18,-6
20:24:02:65000,5,7,-2,-5,-5,1,12,1
20:24:02:80798,5,7,-2,-5,-5,1,12,1
20:24:02:81530,0,-3,1,-7,-9,-3,-2,1
20:24:02:87532,-15,-3,-3,-3,-7,-4,0,1
20:24:02:95838,-15,-3,-3,-3,-7,-4,0,1
20:24:02:96535,-2,-1,0,7,6,-2,-13,-10
20:24:02:110070,1,-13,-1,4,2,-1,0,-2
20:24:02:118305,1,-13,-1,4,2,-1,0,-2
20:24:02:119021,7,9,-1,-1,-2,-1,2,1
20:24:02:125029,7,-12,-7,4,6,1,10,0
20:24:02:140791,7,-12,-7,4,6,1,10,0
20:24:02:141535,4,-21,-4,0,1,2,10,-9
20:24:02:147568,-20,11,4,8,-1,-5,-10,-2
20:24:02:155790,-20,11,4,8,-1,-5,-10,-2
20:24:02:156550,-33,-33,0,-1,0,-3,-8,-5
20:24:02:178922,14,5,0,24,9,9,9,-1
20:24:02:179646,14,5,0,24,9,9,9,-1
20:24:02:180541,-4,-10,1,0,-1,2,17,8
20:24:02:185034,-10,-27,-4,-8,2,-6,-13,-2
20:24:02:200801,-10,-27,-4,-8,2,-6,-13,-2
20:24:02:201529,4,8,2,-1,1,-1,-2,-1
20:24:02:207518,8,18,-6,-1,3,1,-4,8
20:24:02:215038,8,18,-6,-1,3,1,-4,8
20:24:02:222560,0,-44,2,-4,0,-2,-6,-5
20:24:02:230013,17,0,-3,-7,-8,2,19,5
20:24:02:245798,17,0,-3,-7,-8,2,19,5
20:24:02:246526,30,8,-3,3,7,5,12,-3
20:24:02:253175,-9,-1,1,-7,-5,-7,-34,-26
20:24:02:254031,-9,-1,1,-7,-5,-7,-34,-26
20:24:02:268202,0,17,-3,-3,-2,1,13,16
20:24:02:269028,0,8,2,6,-2,0,20,8
20:24:02:275018,0,8,2,6,-2,0,20,8
20:24:02:282533,0,19,-2,-3,-2,-4,-19,-9
20:24:02:290031,-2,18,0,-13,-4,-3,-13,2
20:24:02:298273,-2,18,0,-13,-4,-3,-13,2
20:24:02:299011,6,-7,-5,16,6,-2,-4,-3
20:24:02:313152,1,16,5,-1,-2,1,7,-27
20:24:02:314043,1,16,5,-1,-2,1,7,-27
20:24:02:320038,-6,-1,-9,-12,-7,0,12,-2
20:24:02:327549,-10,-7,-3,-2,1,0,-5,8
20:24:02:335065,-10,-7,-3,-2,1,0,-5,8
20:24:02:342572,19,-5,-1,-8,-7,-4,-8,-18
20:24:02:350033,-7,-18,2,0,4,6,13,21
20:24:02:358284,-7,-18,2,0,4,6,13,21
20:24:02:359041,-12,-13,-1,1,-1,2,7,17
20:24:02:372593,8,8,2,-5,-7,-6,-8,-11
20:24:02:380845,8,8,2,-5,-7,-6,-8,-11
20:24:02:381535,-8,15,1,-4,3,3,12,0
20:24:02:387545,-3,-1,1,-2,0,-2,2,1
20:24:02:395082,-3,-1,1,-2,0,-2,2,1
20:24:02:402547,-11,13,2,-1,-5,-3,-6,3
20:24:02:410033,-16,-59,-4,1,5,1,-8,23
20:24:02:418294,-16,-59,-4,1,5,1,-8,23
20:24:02:419030,-1,-3,1,1,-1,-1,4,0
20:24:02:433294,-3,21,-3,-2,-5,-6,0,-7
20:24:02:434036,-3,21,-3,-2,-5,-6,0,-7
20:24:02:440027,-7,12,-1,-3,-1,3,-3,-9
20:24:02:447561,21,-15,0,2,-1,-1,4,-28
20:24:02:455150,21,-15,0,2,-1,-1,4,-28
20:24:02:462534,-4,-4,2,-5,-3,-7,-18,7
20:24:02:470053,5,8,-3,1,1,-3,-32,10
20:24:02:478293,5,8,-3,1,1,-3,-32,10
20:24:02:479035,3,2,0,-7,-4,-5,-10,-20
20:24:02:492533,-5,-8,-4,0,-1,-4,-7,10
20:24:02:500816,-5,-8,-4,0,-1,-4,-7,10
20:24:02:501537,0,-2,-3,-5,-5,-1,-7,20
20:24:02:507548,3,24,2,16,8,1,-5,-7
20:24:02:515181,3,24,2,16,8,1,-5,-7
20:24:02:522563,-2,16,2,-1,2,7,28,-3
20:24:02:530042,-11,-8,-4,-3,-2,-3,0,-10
20:24:02:538319,-11,-8,-4,-3,-2,-3,0,-10
20:24:02:539066,-1,11,-2,0,2,2,-2,-4
20:24:02:552597,3,11,-1,-1,0,6,18,-3
20:24:02:560843,3,11,-1,-1,0,6,18,-3
20:24:02:561532,5,5,-2,-2,1,-1,4,-14
20:24:02:567579,-21,-2,-2,-9,-2,-3,-7,-20
20:24:02:575066,-21,-2,-2,-9,-2,-3,-7,-20
20:24:02:582579,-15,2,0,0,-1,0,10,12
20:24:02:590030,10,11,3,-5,-3,1,14,3
20:24:02:598304,10,11,3,-5,-3,1,14,3
20:24:02:599023,4,-7,3,3,-1,-1,4,4
20:24:02:621451,-7,-10,0,-7,-4,1,9,-4
20:24:02:622284,-7,-10,0,-7,-4,1,9,-4
20:24:02:623019,3,-7,-6,4,-4,-7,2,19
20:24:02:627550,0,-2,-1,-12,-7,-6,-18,-13
20:24:02:635052,0,-2,-1,-12,-7,-6,-18,-13
20:24:02:642570,-9,-6,-1,8,4,-4,-24,-5
20:24:02:650021,-16,-7,-3,5,3,-5,-7,1
20:24:02:658291,-16,-7,-3,5,3,-5,-7,1
20:24:02:659051,-14,6,-5,-11,-3,0,-5,11
20:24:02:672578,6,11,-2,-1,-2,0,-4,5
20:24:02:680680,6,11,-2,-1,-2,0,-4,5
20:24:02:681566,1,-34,-3,1,3,-4,-14,-12
20:24:02:687550,9,11,0,-2,-3,3,1,1
20:24:02:695041,9,11,0,-2,-3,3,1,1
20:24:02:702536,-5,2,0,4,4,9,27,20
20:24:02:710057,3,-26,-4,-20,-7,-3,-9,-1
20:24:02:718282,3,-26,-4,-20,-7,-3,-9,-1
20:24:02:719040,-28,-24,-4,-4,-1,-7,-18,-24
20:24:02:732556,7,20,2,-7,0,3,9,12
20:24:02:740783,7,20,2,-7,0,3,9,12
20:24:02:741548,10,-5,0,0,-6,-3,-6,-3
20:24:02:747537,2,-7,1,8,-6,1,18,5
20:24:02:755034,2,-7,1,8,-6,1,18,5
20:24:02:762529,13,9,-1,3,-1,0,0,7
20:24:02:770048,-15,-13,-1,3,3,0,-6,-16
20:24:02:785783,-15,-13,-1,3,3,0,-6,-16
20:24:02:786522,10,18,6,18,14,7,17,0
20:24:02:792550,9,12,0,8,2,-4,-9,3
20:24:02:800809,9,12,0,8,2,-4,-9,3
20:24:02:801587,-2,-3,1,-5,-5,0,6,0
20:24:02:807576,-4,-1,-2,10,1,1,1,6
20:24:02:815030,-4,-1,-2,10,1,1,1,6
20:24:02:822582,4,-4,4,-10,-2,-3,-12,-37
20:24:02:830053,-17,-11,1,-12,0,-1,-2,11
20:24:02:838353,-17,-11,1,-12,0,-1,-2,11
20:24:02:839017,-8,-44,-7,-10,-11,-3,1,1
20:24:02:852555,-9,-3,-5,-1,1,0,-1,-3
20:24:02:860793,-9,-3,-5,-1,1,0,-1,-3
20:24:02:861529,1,25,1,-17,-5,-1,-3,-6
20:24:02:867536,4,3,0,-2,4,-1,0,-16
20:24:02:875168,4,3,0,-2,4,-1,0,-16
20:24:02:882537,5,6,-2,-1,7,1,-7,5
20:24:02:890017,7,4,-4,-8,-1,-2,8,-4
20:24:02:898151,7,4,-4,-8,-1,-2,8,-4
20:24:02:899020,-3,-5,-2,6,7,0,-10,-28
20:24:02:912554,24,-3,1,21,15,2,7,9
20:24:02:920829,24,-3,1,21,15,2,7,9
20:24:02:921528,-1,5,-2,-2,-5,2,-5,9
20:24:02:927575,13,-4,2,-10,-11,-2,-11,13
20:24:02:935070,13,-4,2,-10,-11,-2,-11,13
20:24:02:942540,7,-32,-1,20,3,-1,3,24
20:24:02:950048,-12,6,1,-8,-13,-3,10,-8
20:24:02:958301,-12,6,1,-8,-13,-3,10,-8
20:24:02:959056,8,22,-4,-18,-9,-4,2,17
20:24:02:972566,-10,10,0,7,0,-5,-5,0
20:24:02:980660,-10,10,0,7,0,-5,-5,0
20:24:02:981528,-6,-16,-14,12,2,3,3,-23
20:24:02:987568,0,-10,-5,-11,11,2,3,22
20:24:02:995054,0,-10,-5,-11,11,2,3,22
20:24:03:10664,-9,22,3,-3,-7,-1,4,7
20:24:03:11528,22,-1,-9,19,0,-2,1,0
20:24:03:18169,22,-1,-9,19,0,-2,1,0
20:24:03:19036,12,11,-1,1,-6,-5,-1,-4
20:24:03:32560,-10,-66,-4,-19,-7,-2,2,9
20:24:03:40794,-10,-66,-4,-19,-7,-2,2,9
20:24:03:41537,-13,3,-1,-5,-5,-2,1,-2
20:24:03:47563,-24,31,-1,14,-8,0,-9,-23
20:24:03:55062,-24,31,-1,14,-8,0,-9,-23
20:24:03:62568,-7,13,13,-7,-8,-4,1,13
20:24:03:70100,3,16,2,-17,0,-2,-14,-18
20:24:03:78276,3,16,2,-17,0,-2,-14,-18
20:24:03:79038,-7,-18,-10,21,10,0,1,-11
20:24:03:92554,15,11,-5,-25,8,6,7,1
20:24:03:100681,15,11,-5,-25,8,6,7,1
20:24:03:101565,0,2,2,-16,-5,-2,0,1
20:24:03:115805,0,5,-7,30,-16,-6,-3,-25
20:24:03:116567,0,5,-7,30,-16,-6,-3,-25
20:24:03:122556,-2,-35,6,17,13,1,-5,-13
20:24:03:130051,-9,-26,-21,-12,-4,-1,4,33
20:24:03:138287,-9,-26,-21,-12,-4,-1,4,33
20:24:03:139029,-1,19,-1,-28,-9,-2,1,-3
20:24:03:152547,-11,-10,3,-7,3,-1,0,13
20:24:03:160699,-11,-10,3,-7,3,-1,0,13
20:24:03:161560,14,44,-4,-14,-7,-5,-4,10
20:24:03:183910,-30,-14,8,9,19,2,4,19
20:24:03:184717,-30,-14,8,9,19,2,4,19
20:24:03:185547,-33,-30,-11,6,-2,-1,2,18
20:24:03:190038,7,-4,-4,6,-5,-4,2,28
20:24:03:197672,7,-4,-4,6,-5,-4,2,28
20:24:03:205075,11,23,5,-26,-9,-2,-5,-19
20:24:03:212541,7,-2,2,11,8,3,0,-14
20:24:03:220712,7,-2,2,11,8,3,0,-14
20:24:03:221521,7,3,-4,7,15,0,-7,-21
20:24:03:235798,17,18,0,14,14,4,8,6
20:24:03:236582,17,18,0,14,14,4,8,6
20:24:03:250663,32,-1,-4,25,12,4,2,-11
20:24:03:251594,-11,-25,-4,-17,-10,0,0,0
20:24:03:257569,-11,-25,-4,-17,-10,0,0,0
20:24:03:265030,11,22,8,20,11,4,5,20
20:24:03:272552,-14,-8,-11,-6,-12,-5,-10,5
20:24:03:280785,-14,-8,-11,-6,-12,-5,-10,5
20:24:03:281541,8,47,8,-35,-18,-6,-3,-5
20:24:03:295814,-22,0,5,-25,-22,-6,-10,-51
20:24:03:296556,-22,0,5,-25,-22,-6,-10,-51
20:24:03:302556,-7,-12,-10,-4,3,-1,-6,-32
20:24:03:310051,10,-42,17,22,6,0,4,-1
20:24:03:317656,10,-42,17,22,6,0,4,-1
20:24:03:325079,-5,-10,-3,-11,0,-3,1,-3
20:24:03:332550,2,43,8,9,2,1,1,2
20:24:03:357197,2,43,8,9,2,1,1,2
20:24:03:357907,-22,-17,4,24,6,3,7,25
20:24:03:358814,-19,27,12,-11,-14,-7,-4,0
20:24:03:359584,-19,27,12,-11,-14,-7,-4,0
20:24:03:362543,-36,-30,-19,-6,-10,-3,5,36
20:24:03:370062,13,-45,-8,-5,-6,-1,0,-1
20:24:03:377571,13,-45,-8,-5,-6,-1,0,-1
20:24:03:385046,5,17,4,-35,-7,-4,-13,-39
20:24:03:392555,1,8,6,17,13,0,0,-30
20:24:03:400857,1,8,6,17,13,0,0,-30
20:24:03:401542,11,9,6,12,-13,-3,7,29
20:24:03:424471,-2,2,2,-33,-3,1,-4,-1
20:24:03:425184,-2,2,2,-33,-3,1,-4,-1
20:24:03:426051,-7,-5,-19,-21,-9,-5,-4,-1
20:24:03:430063,23,40,2,19,-1,-6,0,7
20:24:03:437539,23,40,2,19,-1,-6,0,7
20:24:03:453193,12,-8,-7,-5,0,0,-5,9
20:24:03:454055,-2,8,-3,0,2,-6,-9,3
20:24:03:460787,-2,8,-3,0,2,-6,-9,3
20:24:03:461531,7,-32,-7,23,9,3,1,4
20:24:03:475703,-9,-24,-19,7,5,4,-2,-2
20:24:03:476538,-9,-24,-19,7,5,4,-2,-2
20:24:03:482534,10,20,8,-22,-9,-2,2,10
20:24:03:490041,3,7,-13,-18,-6,-3,2,25
20:24:03:497546,3,7,-13,-18,-6,-3,2,25
20:24:03:505077,-1,5,15,33,17,7,2,-3
20:24:03:512559,11,31,7,-7,6,3,4,-5
20:24:03:528188,11,31,7,-7,6,3,4,-5
20:24:03:529059,-26,-37,-27,-15,-7,-3,-5,-35
20:24:03:535692,-4,-5,-1,-10,-8,-2,-5,-10
20:24:03:536550,-4,-5,-1,-10,-8,-2,-5,-10
20:24:03:542550,-26,-23,7,-6,-14,-9,-8,-9
20:24:03:550069,-12,16,0,0,8,4,6,3
20:24:03:557575,-12,16,0,0,8,4,6,3
20:24:03:565047,-21,10,9,14,5,2,3,20
20:24:03:572603,-3,17,-2,30,8,4,2,8
20:24:03:581168,-3,17,-2,30,8,4,2,8
20:24:03:587535,-11,-54,-5,6,7,1,-3,3
20:24:03:595689,8,-8,-6,-8,-15,-6,-6,-27
20:24:03:596534,8,-8,-6,-8,-15,-6,-6,-27
20:24:03:602569,-6,6,-8,-17,-9,-2,-3,-3
20:24:03:618328,15,-42,5,21,7,-3,-5,-6
20:24:03:619064,15,-42,5,21,7,-3,-5,-6
20:24:03:633184,5,12,7,6,5,-1,-2,-11
20:24:03:634044,0,20,-7,-1,-5,1,-4,-11
20:24:03:640790,0,20,-7,-1,-5,1,-4,-11
20:24:03:641550,21,7,10,10,7,0,2,-3
20:24:03:655797,-2,-2,9,1,10,6,1,-12
20:24:03:656591,-2,-2,9,1,10,6,1,-12
20:24:03:670687,-2,-13,9,53,13,0,-1,-12
20:24:03:671597,-31,-16,-3,-48,-11,-5,1,3
20:24:03:677591,-31,-16,-3,-48,-11,-5,1,3
20:24:03:685069,-8,-24,-19,4,5,1,-2,-3
20:24:03:701485,-3,-16,-13,5,-1,-3,0,14
20:24:03:702170,-3,-16,-13,5,-1,-3,0,14
20:24:03:703061,29,33,-2,6,-4,-1,2,2
20:24:03:715713,-3,4,-1,19,12,2,1,5
20:24:03:716568,-3,4,-1,19,12,2,1,5
20:24:03:722573,-35,-45,-22,-5,8,2,2,2
20:24:03:730060,7,35,8,23,4,-3,-3,2
20:24:03:737593,7,35,8,23,4,-3,-3,2
20:24:03:745087,-9,8,16,20,-7,-1,1,3
20:24:03:752560,-5,-4,-17,-6,-7,-2,-1,0
20:24:03:760833,-5,-4,-17,-6,-7,-2,-1,0
20:24:03:761565,17,39,9,-10,-13,-4,-5,7
20:24:03:775678,15,-3,6,-4,-7,-7,-6,2
20:24:03:776531,15,-3,6,-4,-7,-7,-6,2
20:24:03:782562,5,1,-3,-23,-4,-1,4,12
20:24:03:790056,-1,19,13,-27,-6,1,3,4
20:24:03:797564,-1,19,13,-27,-6,1,3,4
20:24:03:805064,3,-1,6,20,8,2,0,16
20:24:03:812544,-16,4,4,-1,5,1,0,-5
20:24:03:820843,-16,4,4,-1,5,1,0,-5
20:24:03:821520,-17,13,4,-9,-11,-5,-8,-12
20:24:03:835706,-3,-45,-12,-20,-5,0,-4,-24
20:24:03:836593,-3,-45,-12,-20,-5,0,-4,-24
20:24:03:851174,-3,-25,3,9,6,-1,2,-4
20:24:03:858184,-1,-13,-7,-7,4,-2,0,4
20:24:03:859039,-1,-13,-7,-7,4,-2,0,4
20:24:03:865066,16,0,3,-3,5,3,0,0
20:24:03:881424,5,8,10,2,-7,-4,-11,-16
20:24:03:882171,5,8,10,2,-7,-4,-11,-16
20:24:03:883044,5,-17,1,-7,-3,1,1,-2
20:24:03:895726,-3,-3,-10,4,-4,1,3,3
20:24:03:896535,-3,-3,-10,4,-4,1,3,3
20:24:03:902577,-2,9,1,-17,-2,-3,-6,-12
20:24:03:910100,-14,2,2,-10,-12,-2,1,6
20:24:03:917570,-14,2,2,-10,-12,-2,1,6
20:24:03:925083,28,23,-8,-25,-15,-3,1,6
20:24:03:932543,5,10,1,19,2,2,2,12
20:24:03:940818,5,10,1,19,2,2,2,12
20:24:03:941567,2,-27,-7,-14,-10,-5,-3,-9
20:24:03:955689,6,18,6,22,8,1,-4,-23
20:24:03:956552,6,18,6,22,8,1,-4,-23
20:24:03:962546,0,2,2,-12,-9,-3,1,-3
20:24:03:970052,1,-12,-14,-15,-1,0,-1,-12
20:24:03:985716,1,-12,-14,-15,-1,0,-1,-12
20:24:03:986539,17,18,8,-2,9,0,-1,4
20:24:03:992560,-25,-7,-3,-9,7,2,-2,1
20:24:04:792,-25,-7,-3,-9,7,2,-2,1
20:24:04:1550,1,-21,-10,-31,5,2,1,5
20:24:04:15664,-19,6,3,-1,-9,-4,-3,-3
20:24:04:16529,-19,6,3,-1,-9,-4,-3,-3
20:24:04:22569,-10,24,-7,13,-3,-3,0,-2
20:24:04:30056,6,-2,14,-3,-2,-1,1,-8
20:24:04:37567,6,-2,14,-3,-2,-1,1,-8
20:24:04:53173,-2,0,-11,8,3,0,-3,-8
20:24:04:54060,33,1,3,28,4,0,-1,12
20:24:04:60687,33,1,3,28,4,0,-1,12
20:24:04:61563,3,11,7,10,7,3,-2,-5
20:24:04:75673,7,-8,-1,-2,-9,0,1,6
20:24:04:76539,7,-8,-1,-2,-9,0,1,6
20:24:04:90059,1,11,11,9,-8,-4,0,5
20:24:04:98312,7,-4,-10,-13,-9,-6,-5,26
20:24:04:99040,7,-4,-10,-13,-9,-6,-5,26
20:24:04:105045,-15,-12,-30,-6,3,0,1,8
20:24:04:112571,3,-6,-7,-1,1,-2,2,7
20:24:04:120055,3,-6,-7,-1,1,-2,2,7
20:24:04:127549,0,1,4,-12,-7,-5,-3,-8
20:24:04:135657,0,3,0,5,13,5,0,-1
20:24:04:136535,0,3,0,5,13,5,0,-1
20:24:04:142611,-6,0,6,13,3,1,1,-1
20:24:04:158202,1,5,-3,-10,-11,-5,-2,3
20:24:04:159046,1,5,-3,-10,-11,-5,-2,3
20:24:04:165042,-5,-1,2,8,5,2,1,2
20:24:04:172633,-18,11,17,18,9,0,0,-12
20:24:04:180074,-18,11,17,18,9,0,0,-12
20:24:04:196430,4,1,6,9,6,3,-7,-3
20:24:04:197172,18,-5,6,-4,-6,-1,-1,-25
20:24:04:198042,18,-5,6,-4,-6,-1,-1,-25
20:24:04:202553,-10,-20,4,-4,-2,-2,-1,-16
20:24:04:218194,2,0,0,3,-2,-3,-5,-27
20:24:04:219042,2,0,0,3,-2,-3,-5,-27
20:24:04:225044,-5,-1,-10,3,1,-2,-3,-1
20:24:04:232555,-1,-1,-4,-16,0,0,2,19
20:24:04:240044,-1,-1,-4,-16,0,0,2,19
20:24:04:247541,11,18,-3,-11,-11,-4,0,-4
20:24:04:255700,-17,-26,-2,-15,-3,-2,-2,-1
20:24:04:256565,-17,-26,-2,-15,-3,-2,-2,-1
20:24:04:262600,-1,2,3,3,-2,2,5,-14
20:24:04:287059,4,3,-4,3,-2,1,1,8
20:24:04:287930,4,3,-4,3,-2,1,1,8
20:24:04:288681,15,-3,-2,11,-1,-3,-7,-14
20:24:04:292555,-9,-5,-17,2,-2,0,1,-3
20:24:04:300095,-9,-5,-17,2,-2,0,1,-3
20:24:04:307565,-4,2,3,-21,-1,0,2,-7
20:24:04:315686,-33,-28,-13,15,-3,-4,-6,-1
20:24:04:316549,-33,-28,-13,15,-3,-4,-6,-1
20:24:04:322573,3,-3,0,-16,-6,-1,-3,9
20:24:04:338214,15,12,3,-11,-2,0,0,-16
20:24:04:339045,15,12,3,-11,-2,0,0,-16
20:24:04:345052,-29,-7,-7,3,5,-2,-6,-2
20:24:04:352660,9,8,3,-3,5,1,2,14
20:24:04:368349,9,8,3,-3,5,1,2,14
20:24:04:369049,11,10,-1,4,-3,-5,-3,2
20:24:04:375676,4,14,5,-9,1,-3,-4,-7
20:24:04:376553,4,14,5,-9,1,-3,-4,-7
20:24:04:382538,-2,2,1,1,-1,0,4,2
20:24:04:398233,0,-15,-1,4,-5,-3,-5,-9
20:24:04:399096,0,-15,-1,4,-5,-3,-5,-9
20:24:04:405102,-2,2,2,-1,9,4,5,28
20:24:04:412602,2,-16,-26,-13,20,4,2,9
20:24:04:420076,2,-16,-26,-13,20,4,2,9
20:24:04:427552,-3,-14,-2,-1,-5,-3,-7,-7
20:24:04:435700,-9,4,-18,-13,-10,-3,-3,1
20:24:04:436539,-9,4,-18,-13,-10,-3,-3,1
20:24:04:450071,22,-4,-8,-10,-6,-2,-1,-15
20:24:04:458196,-26,-5,5,15,-3,0,-4,-7
20:24:04:459066,-26,-5,5,15,-3,0,-4,-7
20:24:04:473207,13,21,10,0,-5,1,0,-23
20:24:04:474054,21,26,10,4,-1,0,5,-1
20:24:04:480197,21,26,10,4,-1,0,5,-1
20:24:04:487565,-14,-16,-16,-16,-2,1,-2,5
20:24:04:496189,-19,-7,-3,-14,-13,-6,-2,5
20:24:04:503184,-19,-7,-3,-14,-13,-6,-2,5
20:24:04:504031,-4,5,12,9,15,4,-2,-6
20:24:04:518198,-6,-21,-1,32,2,1,-1,2
20:24:04:519061,-6,-21,-1,32,2,1,-1,2
20:24:04:525045,-9,-7,-4,-7,-2,-4,-3,5
20:24:04:532551,13,23,14,2,2,0,2,8
20:24:04:540061,13,23,14,2,2,0,2,8
20:24:04:547547,-2,-7,6,7,-5,0,2,17
20:24:04:563796,16,-2,-5,-7,-4,0,1,31
20:24:04:564691,16,-2,-5,-7,-4,0,1,31
20:24:04:565557,-4,3,-1,32,2,-1,3,14
20:24:04:578308,7,-1,6,-8,-2,-1,-3,-22
20:24:04:579071,7,-1,6,-8,-2,-1,-3,-22
20:24:04:585057,-20,-5,-4,21,0,-4,-3,-15
20:24:04:592563,7,0,0,-16,-5,1,4,3
20:24:04:608280,7,0,0,-16,-5,1,4,3
20:24:04:609041,1,-7,-5,-21,-14,-4,-2,-8
20:24:04:615717,-18,-13,3,5,1,2,0,0
20:24:04:616555,-18,-13,3,5,1,2,0,0
20:24:04:622570,-5,-16,6,-9,0,-1,-2,5
20:24:04:638720,-15,10,-1,17,8,0,-2,-11
20:24:04:639572,-15,10,-1,17,8,0,-2,-11
20:24:04:645049,10,16,-12,-6,-12,-2,-2,3
20:24:04:652578,11,11,5,-9,-6,0,3,3
20:24:04:660063,11,11,5,-9,-6,0,3,3
20:24:04:667588,-4,-9,4,-21,-1,2,2,5
20:24:04:675732,16,7,5,7,0,-5,-10,-7
20:24:04:676570,16,7,5,7,0,-5,-10,-7
20:24:04:682553,-20,-12,-16,-4,-8,-6,0,-1
20:24:04:698208,-26,-26,-3,0,7,-2,-12,-30
20:24:04:699060,-26,-26,-3,0,7,-2,-12,-30
20:24:04:705073,-8,8,7,9,3,0,2,12
20:24:04:720849,-8,8,7,9,3,0,2,12
20:24:04:721577,-21,-8,-4,-5,-6,-3,0,7
20:24:04:727530,2,4,6,4,12,4,6,4
20:24:04:736215,2,4,6,4,12,4,6,4
20:24:04:743179,21,-4,-2,34,0,0,1,12
20:24:04:744044,10,8,4,-4,-1,0,0,3
20:24:04:758309,10,8,4,-4,-1,0,0,3
20:24:04:759069,6,18,-10,-24,0,1,-2,-6
20:24:04:765057,26,1,1,2,-6,-4,0,-8
20:24:04:780818,26,1,1,2,-6,-4,0,-8
20:24:04:781548,0,2,5,1,-2,-5,2,2
20:24:04:787546,-37,-29,-14,-5,-6,-6,-13,-28
20:24:04:796444,-37,-29,-14,-5,-6,-6,-13,-28
20:24:04:797192,11,2,5,9,8,2,4,8
20:24:04:802579,12,25,6,4,9,2,-1,-3
20:24:04:818331,12,25,6,4,9,2,-1,-3
20:24:04:819064,-14,-16,-7,-6,4,3,-3,-6
20:24:04:825076,-3,-21,0,-18,-7,-3,-1,5
20:24:04:840829,-3,-21,0,-18,-7,-3,-1,5
20:24:04:841554,16,10,2,-15,-14,-3,0,12
20:24:04:847567,-34,3,1,-6,-5,-6,-5,-20
20:24:04:855812,-34,3,1,-6,-5,-6,-5,-20
20:24:04:856570,-19,-10,-7,-1,0,-4,3,-10
20:24:04:862592,0,-25,-16,15,-1,1,-3,-5
20:24:04:878348,0,-25,-16,15,-1,1,-3,-5
20:24:04:879074,-8,-3,13,21,-4,-3,-2,-13
20:24:04:885066,10,-21,4,29,7,0,7,7
20:24:04:900831,10,-21,4,29,7,0,7,7
20:24:04:901617,-10,18,7,-27,-6,-2,2,1
20:24:04:916470,12,38,-3,-3,-3,-4,-2,0
20:24:04:917201,12,38,-3,-3,-3,-4,-2,0
20:24:04:918070,-1,-8,-3,2,-2,-1,-1,7
20:24:04:922578,8,5,4,8,5,2,1,8
20:24:04:938212,8,5,4,8,5,2,1,8
20:24:04:939062,21,14,-10,-27,-7,-1,-8,-17
20:24:04:945051,10,9,2,-11,2,1,-6,1
20:24:04:960816,10,9,2,-11,2,1,-6,1
20:24:04:961544,-5,-32,-4,23,28,6,1,-2
20:24:04:967584,-15,-26,-5,-10,7,3,-1,-6
20:24:04:975724,-15,-26,-5,-10,7,3,-1,-6
20:24:04:976564,16,20,-7,-4,-16,-5,-2,-5
20:24:04:982575,0,-32,-2,-17,-5,1,-6,9
20:24:04:998190,0,-32,-2,-17,-5,1,-6,9
20:24:04:999077,-1,-12,-1,2,3,2,-2,7
20:24:05:5079,21,36,-2,-6,-5,-2,-3,-2
20:24:05:21218,21,36,-2,-6,-5,-2,-3,-2
20:24:05:22115,5,-3,-2,-4,3,2,1,-3
20:24:05:27564,-11,14,-3,-4,-10,-3,0,2
20:24:05:35725,-11,14,-3,-4,-10,-3,0,2
20:24:05:36579,17,16,-8,5,-4,-3,-11,1
20:24:05:50085,-10,-38,-5,-7,-5,-5,3,-10
20:24:05:58330,-10,-38,-5,-7,-5,-5,3,-10
20:24:05:59052,-20,-1,1,10,-3,-1,1,0
20:24:05:65057,2,-9,0,2,2,1,-7,-3
20:24:05:81274,2,-9,0,2,2,1,-7,-3
20:24:05:88183,17,-7,7,0,0,-1,2,0
20:24:05:89088,-3,35,6,9,2,2,7,2
20:24:05:95850,-3,35,6,9,2,2,7,2
20:24:05:96571,14,20,-1,-13,6,-1,-3,16
20:24:05:110087,-7,2,-8,-24,-3,-1,11,-6
20:24:05:118322,-7,2,-8,-24,-3,-1,11,-6
20:24:05:119059,0,20,6,3,-13,-5,2,15
20:24:05:125054,8,-11,3,10,4,1,-16,-3
20:24:05:140822,8,-11,3,10,4,1,-16,-3
20:24:05:141547,-34,-2,-11,-27,-6,0,1,8
20:24:05:147594,13,-14,0,-2,-1,-2,5,7
20:24:05:155845,13,-14,0,-2,-1,-2,5,7
20:24:05:156586,-7,-47,3,-11,3,3,23,-8
20:24:05:170081,0,9,1,-2,3,0,-3,-5
20:24:05:178343,0,9,1,-2,3,0,-3,-5
20:24:05:179056,5,15,-1,7,-15,-7,8,1
20:24:05:192569,-9,-9,-6,3,18,2,-2,-1
20:24:05:200741,-9,-9,-6,3,18,2,-2,-1
20:24:05:201565,-1,30,10,3,0,-1,-5,-12
20:24:05:207562,-6,40,-3,-16,-7,-5,-15,-16
20:24:05:215850,-6,40,-3,-16,-7,-5,-15,-16
20:24:05:216555,-5,-37,-3,2,-3,-1,-16,-15
20:24:05:230065,8,-12,-4,-10,-9,-5,-2,0
20:24:05:238211,8,-12,-4,-10,-9,-5,-2,0
20:24:05:239047,3,-18,1,-2,11,6,1,1
20:24:05:245051,-2,6,-1,18,1,3,8,19
20:24:05:260718,-2,6,-1,18,1,3,8,19
20:24:05:261551,9,18,-3,1,-9,-3,9,18
20:24:05:267570,5,13,8,18,-4,0,-6,-22
20:24:05:275735,5,13,8,18,-4,0,-6,-22
20:24:05:276560,13,-4,-12,3,0,-3,-9,-11
20:24:05:290074,-27,10,6,1,-2,1,4,4
20:24:05:298218,-27,10,6,1,-2,1,4,4
20:24:05:299056,-4,11,-4,-15,12,1,-3,-6
20:24:05:305077,-8,-16,0,-8,-8,-3,0,-7
20:24:05:320734,-8,-16,0,-8,-8,-3,0,-7
20:24:05:321610,-10,11,-3,16,0,-8,-21,-12
20:24:05:327614,15,14,4,5,-1,-1,2,6
20:24:05:335690,15,14,4,5,-1,-1,2,6
20:24:05:336586,-1,8,0,4,3,1,1,0
20:24:05:350050,7,10,-3,2,-1,-1,-12,-2
20:24:05:358207,7,10,-3,2,-1,-1,-12,-2
20:24:05:359094,-7,-4,4,1,-4,0,-16,-2
20:24:05:365076,-27,-18,-3,-6,-1,0,24,15
20:24:05:381191,-27,-18,-3,-6,-1,0,24,15
20:24:05:388235,-5,4,7,-1,-9,-2,4,8
20:24:05:389096,-8,-17,8,15,2,0,-3,-1
20:24:05:396472,-8,-17,8,15,2,0,-3,-1
20:24:05:397342,-19,-40,4,21,-3,-3,11,-3
20:24:05:410073,6,-1,-5,-8,-10,0,30,9
20:24:05:418216,6,-1,-5,-8,-10,0,30,9
20:24:05:419077,-22,-23,-3,-8,-3,-2,-15,-19
20:24:05:425106,5,-12,-4,3,3,5,20,27
20:24:05:440730,5,-12,-4,3,3,5,20,27
20:24:05:441573,9,17,-2,-7,-2,0,24,15
20:24:05:447586,27,11,-6,-4,-2,1,-7,-5
20:24:05:455730,27,11,-6,-4,-2,1,-7,-5
20:24:05:456550,-16,-37,-5,7,8,0,-3,-6
20:24:05:470086,-6,8,1,-7,1,6,18,13
20:24:05:478318,-6,8,1,-7,1,6,18,13
20:24:05:479063,4,9,-5,-4,-2,-1,10,-1
20:24:05:485083,13,-12,0,15,4,-8,-4,-8
20:24:05:501194,13,-12,0,15,4,-8,-4,-8
20:24:05:508223,-1,-21,-3,7,3,1,8,-1
20:24:05:509094,1,13,2,-6,-2,-5,-20,-14
20:24:05:515735,1,13,2,-6,-2,-5,-20,-14
20:24:05:516594,-8,-5,-4,-23,-3,-3,0,2
20:24:05:530084,-20,-13,-4,-18,-4,-6,-19,-5
20:24:05:546460,-20,-13,-4,-18,-4,-6,-19,-5
20:24:05:547175,5,24,1,0,4,2,-2,-8
20:24:05:548032,-13,0,2,0,2,-9,-13,-12
20:24:05:560714,-13,0,2,0,2,-9,-13,-12
20:24:05:561585,10,12,-3,-8,-5,-5,-1,5
20:24:05:567589,25,12,-2,14,27,3,-18,-1
20:24:05:575742,25,12,-2,14,27,3,-18,-1
20:24:05:576604,6,22,0,2,0,5,1,-4
20:24:05:590099,-6,10,-4,-15,-11,-3,-4,-10
20:24:05:598202,-6,10,-4,-15,-11,-3,-4,-10
20:24:05:599050,-1,-11,-2,-4,-4,-3,-18,-4
20:24:05:612596,5,-2,-10,-5,-5,2,9,-7
20:24:05:620701,5,-2,-10,-5,-5,2,9,-7
20:24:05:621559,-10,-63,-4,-3,1,-4,-13,-22
20:24:05:627591,-2,-12,-1,0,-7,-7,-9,-14
20:24:05:635704,-2,-12,-1,0,-7,-7,-9,-14
20:24:05:636615,7,23,5,1,-4,-4,-16,5
20:24:05:650613,-23,0,2,3,-1,0,-24,0
20:24:05:658187,-23,0,2,3,-1,0,-24,0
20:24:05:659102,5,10,1,-5,-1,3,3,0
20:24:05:665059,-20,-4,0,3,-2,3,29,0
20:24:05:680823,-20,-4,0,3,-2,3,29,0
20:24:05:681567,-2,20,-2,-2,-5,0,0,-1
20:24:05:696479,-1,-6,-1,-6,-4,2,0,4
20:24:05:697197,-1,-6,-1,-6,-4,2,0,4
20:24:05:698070,15,30,-1,-9,-1,2,14,6
20:24:05:710074,6,-11,-2,-2,-4,-5,-5,3
20:24:05:718311,6,-11,-2,-2,-4,-5,-5,3
20:24:05:719053,-21,-3,3,12,4,2,6,13
20:24:05:725070,3,-20,-4,-4,-6,-5,6,-2
20:24:05:740814,3,-20,-4,-4,-6,-5,6,-2
20:24:05:741577,-15,-27,-2,2,-3,2,-13,11
20:24:05:747625,8,20,15,14,6,6,-6,1
20:24:05:756282,8,20,15,14,6,6,-6,1
20:24:05:762555,-1,-20,5,5,4,0,8,4
20:24:05:770074,-5,32,-4,-7,-7,0,-10,1
20:24:05:778362,-5,32,-4,-7,-7,0,-10,1
20:24:05:779073,1,-39,-10,0,-6,-8,-10,-5
20:24:05:785091,5,-17,-1,-9,4,3,4,-1
20:24:05:801202,5,-17,-1,-9,4,3,4,-1
20:24:05:802065,1,19,-5,-12,-8,-7,-27,-7
20:24:05:807577,5,0,-4,2,-6,-4,-12,-14
20:24:05:815694,5,0,-4,2,-6,-4,-12,-14
20:24:05:816548,8,-3,-8,-4,4,-2,-5,-2
20:24:05:838954,8,-4,7,10,10,2,11,7
20:24:05:839684,8,-4,7,10,10,2,11,7
20:24:05:840552,-5,-9,-4,-9,-1,3,20,1
20:24:05:845052,-7,-6,-4,-6,-1,-1,-6,-5
20:24:05:860742,-7,-6,-4,-6,-1,-1,-6,-5
20:24:05:861591,-1,26,1,4,4,3,11,3
20:24:05:867582,23,18,0,-2,-3,0,4,4
20:24:05:875710,23,18,0,-2,-3,0,4,4
20:24:05:876591,-1,1,1,1,-2,-4,1,-2
20:24:05:890065,-6,-5,2,5,-1,-3,-10,-2
20:24:05:898198,-6,-5,2,5,-1,-3,-10,-2
20:24:05:899062,7,-21,-2,-2,-6,-4,-7,-5
20:24:05:905077,8,3,-7,-5,-6,-3,-4,2
20:24:05:920762,8,3,-7,-5,-6,-3,-4,2
20:24:05:921577,-2,10,10,0,-2,-1,-1,-6
20:24:05:927572,-2,-14,-3,1,-1,2,4,5
20:24:05:935730,-2,-14,-3,1,-1,2,4,5
20:24:05:936565,8,15,3,9,-2,-4,7,0
20:24:05:950095,-3,-12,2,6,2,-1,13,11
20:24:05:958219,-3,-12,2,6,2,-1,13,11
20:24:05:959064,5,-14,-1,8,1,-4,-9,-4
20:24:05:965053,-9,-20,-5,-1,1,0,2,-7
20:24:05:980709,-9,-20,-5,-1,1,0,2,-7
20:24:05:981583,1,7,-3,-1,5,-4,-6,-1
20:24:05:987585,-10,9,2,-4,0,-1,-4,-3
20:24:05:995076,-10,9,2,-4,0,-1,-4,-3
20:24:06:2569,-39,17,-2,-3,-1,0,-2,-2
20:24:06:10062,-3,-27,-8,-15,-5,-3,-7,-7
20:24:06:18208,-3,-27,-8,-15,-5,-3,-7,-7
20:24:06:19058,14,9,-1,0,-2,2,8,-2
20:24:06:32582,-10,19,1,-10,4,3,9,-5
20:24:06:40703,-10,19,1,-10,4,3,9,-5
20:24:06:41569,6,-5,1,1,-1,-1,0,5
20:24:06:47601,2,3,2,2,2,-1,-2,1
20:24:06:55066,2,3,2,2,2,-1,-2,1
20:24:06:62601,8,-18,-3,-5,-3,-3,3,-4
20:24:06:70066,1,-8,-1,10,-3,-1,-2,3
20:24:06:78325,1,-8,-1,10,-3,-1,-2,3
20:24:06:79112,-36,-1,-8,-9,-5,-3,-4,-4
20:24:06:92602,-8,3,2,-6,-4,-1,7,-1
20:24:06:100730,-8,3,2,-6,-4,-1,7,-1
20:24:06:101578,12,7,7,25,5,2,-9,-2
20:24:06:115718,-5,16,-2,1,1,-1,-21,-8
20:24:06:116556,-5,16,-2,1,1,-1,-21,-8
20:24:06:122582,4,-15,-7,-5,2,2,-19,1
20:24:06:130058,-10,-15,0,7,3,-2,-18,0
20:24:06:138173,-10,-15,0,7,3,-2,-18,0
20:24:06:139087,6,9,5,-6,-1,3,-5,-2
20:24:06:152594,-21,5,-6,-8,-3,-3,-1,-4
20:24:06:160706,-21,5,-6,-8,-3,-3,-1,-4
20:24:06:161560,1,-2,0,1,-4,-1,4,3
20:24:06:167595,1,-8,-3,1,4,-1,0,-3
20:24:06:175075,1,-8,-3,1,4,-1,0,-3
20:24:06:182571,0,13,4,-6,-3,0,6,-2
20:24:06:190077,16,16,0,3,6,5,21,11
20:24:06:198349,16,16,0,3,6,5,21,11
20:24:06:199067,5,5,0,-3,1,-1,6,3
20:24:06:212588,10,-7,-1,-3,-5,-1,15,13
20:24:06:220721,10,-7,-1,-3,-5,-1,15,13
20:24:06:221582,-12,-10,-4,-7,4,1,7,2
20:24:06:227566,7,2,-2,4,-5,-2,12,-11
20:24:06:235088,7,2,-2,4,-5,-2,12,-11
20:24:06:242613,4,-4,8,-5,-2,-5,0,-5
20:24:06:250083,-1,0,0,-2,-3,0,4,12
20:24:06:258320,-1,0,0,-2,-3,0,4,12
20:24:06:259068,10,-3,-1,-2,-1,1,-4,2
20:24:06:272618,-3,-5,-3,-3,-1,-4,-20,-13
20:24:06:280826,-3,-5,-3,-3,-1,-4,-20,-13
20:24:06:281597,-3,-4,-6,-1,1,5,13,2
20:24:06:287588,-9,-26,-5,-3,-1,-1,-11,-5
20:24:06:295067,-9,-26,-5,-3,-1,-1,-11,-5
20:24:06:302612,-2,-7,-3,-3,-4,-3,2,-6
20:24:06:310084,8,10,0,2,-2,-1,4,1
20:24:06:318178,8,10,0,2,-2,-1,4,1
20:24:06:319110,7,-2,-3,2,0,-3,-14,-5
20:24:06:332567,6,-14,0,6,4,2,-6,-5
20:24:06:340825,6,-14,0,6,4,2,-6,-5
20:24:06:341581,-5,7,-5,-5,-1,-1,-6,-8
20:24:06:347577,-3,2,-1,2,0,-6,-9,-6
20:24:06:363355,-3,2,-1,2,0,-6,-9,-6
20:24:06:364057,5,4,2,0,-3,2,3,5
20:24:06:370070,-5,-12,-3,4,1,3,-1,1
20:24:06:378194,-5,-12,-3,4,1,3,-1,1
20:24:06:379078,-19,-8,-2,5,4,-2,-1,-1
20:24:06:392580,8,8,0,0,-4,-2,5,-7
20:24:06:400853,8,8,0,0,-4,-2,5,-7
20:24:06:401607,6,-9,0,-1,2,1,-4,2
20:24:06:407605,2,5,1,-9,-6,-3,-9,-4
20:24:06:415112,2,5,1,-9,-6,-3,-9,-4
20:24:06:422571,-8,-28,-3,0,-3,1,19,17
20:24:06:430076,-5,-6,-2,-2,-2,1,4,-12
20:24:06:445834,-5,-6,-2,-2,-2,1,4,-12
20:24:06:446575,1,19,2,-2,0,-4,-25,-2
20:24:06:452593,-9,8,-4,0,-1,-1,-14,0
20:24:06:460702,-9,8,-4,0,-1,-1,-14,0
20:24:06:461570,6,1,5,-1,-3,-4,-9,-9
20:24:06:467584,-9,-4,0,-5,-2,-2,-11,1
20:24:06:475089,-9,-4,0,-5,-2,-2,-11,1
20:24:06:482598,10,13,-3,2,2,2,0,-2
20:24:06:490097,1,11,-5,-10,-1,1,15,11
20:24:06:498222,1,11,-5,-10,-1,1,15,11
20:24:06:499071,20,10,-6,-2,1,-5,-7,-6
20:24:06:512589,0,-2,5,-2,1,-1,-1,4
20:24:06:520723,0,-2,5,-2,1,-1,-1,4
20:24:06:521564,2,11,-2,0,-4,-2,-9,-12
20:24:06:527586,0,-23,2,-3,-4,-4,-7,-7
20:24:06:535097,0,-23,2,-3,-4,-4,-7,-7
20:24:06:550721,-26,-21,-1,-7,-6,-6,-20,0
20:24:06:551446,-14,14,-2,6,0,-2,-7,8
20:24:06:558202,-14,14,-2,6,0,-2,-7,8
20:24:06:559135,-6,13,-3,0,0,-3,5,-4
20:24:06:572575,-1,2,3,-2,-2,-4,-9,-4
20:24:06:580730,-1,2,3,-2,-2,-4,-9,-4
20:24:06:581584,6,7,-1,-1,-1,-2,0,2
20:24:06:587565,2,-3,-1,-2,-1,0,13,7
20:24:06:595098,2,-3,-1,-2,-1,0,13,7
20:24:06:602559,-8,-13,-12,-2,2,4,31,3
20:24:06:618849,6,-1,0,-7,0,-4,-17,-22
20:24:06:619703,6,-1,0,-7,0,-4,-17,-22
20:24:06:620561,-8,-1,4,-5,-1,5,30,0
20:24:06:632616,9,8,-17,-14,-3,0,-3,-7
20:24:06:640701,9,8,-17,-14,-3,0,-3,-7
20:24:06:641598,-8,-34,0,-3,-2,-9,-26,-6
20:24:06:655719,0,4,7,0,2,3,22,8
20:24:06:656574,0,4,7,0,2,3,22,8
20:24:06:662599,7,28,-1,5,2,3,-18,1
20:24:06:670070,-5,1,0,0,-2,-6,-14,-8
20:24:06:678210,-5,1,0,0,-2,-6,-14,-8
20:24:06:679074,3,-3,0,4,0,0,14,3
20:24:06:692613,2,5,1,5,0,-2,-3,-3
20:24:06:700854,2,5,1,5,0,-2,-3,-3
20:24:06:701583,0,-3,-1,0,-1,-2,-3,-16
20:24:06:707598,-4,-4,1,3,3,3,21,10
20:24:06:715082,-4,-4,1,3,3,3,21,10
20:24:06:722592,1,4,-3,-3,-4,-3,-19,1
20:24:06:730082,0,4,2,9,1,-2,-6,1
20:24:06:738234,0,4,2,9,1,-2,-6,1
20:24:06:739082,-2,-10,-3,-4,0,4,16,-6
20:24:06:761467,3,6,-1,0,-1,0,-2,-4
20:24:06:762196,3,6,-1,0,-1,0,-2,-4
20:24:06:763061,-6,-18,-4,-5,-4,1,5,4
20:24:06:767561,1,-7,0,-4,-3,-2,-8,7
20:24:06:775065,1,-7,0,-4,-3,-2,-8,7
20:24:06:782551,3,18,6,1,-3,-1,13,5
20:24:06:790063,1,-5,0,-3,-6,-7,3,1
20:24:06:799345,1,-5,0,-3,-6,-7,3,1
20:24:06:805066,-12,-21,2,-7,-3,0,2,-2
20:24:06:812590,-14,-9,-3,0,1,-1,-15,-4
20:24:06:820716,-14,-9,-3,0,1,-1,-15,-4
20:24:06:821571,7,1,-3,5,2,-2,-9,7
20:24:06:827580,-2,7,1,3,2,2,7,13
20:24:06:835085,-2,7,1,3,2,2,7,13
20:24:06:842564,-3,-5,0,4,-1,1,10,4
20:24:06:850110,-8,-16,-3,-5,-3,-4,-17,-6
20:24:06:858218,-8,-16,-3,-5,-3,-4,-17,-6
20:24:06:859054,1,7,-2,3,3,-3,-10,-14
20:24:06:872566,10,9,1,-2,-2,1,-1,-2
20:24:06:880696,10,9,1,-2,-2,1,-1,-2
20:24:06:881561,-11,12,-3,-6,-2,-5,-14,-2
20:24:06:887635,-7,-2,-3,-3,0,2,6,-7
20:24:06:895114,-7,-2,-3,-3,0,2,6,-7
20:24:06:910695,8,22,13,1,0,1,1,0
20:24:06:911438,-4,2,-2,0,0,0,5,-1
20:24:06:917590,-4,2,-2,0,0,0,5,-1
20:24:06:925068,1,4,2,-1,-4,-4,0,5
20:24:06:932606,12,13,-1,-5,-3,-1,18,-4
20:24:06:940596,12,13,-1,-5,-3,-1,18,-4
20:24:06:947601,-8,-26,-8,-1,2,6,20,1
20:24:06:955732,1,-16,0,2,-3,-3,-10,-14
20:24:06:956588,1,-16,0,2,-3,-3,-10,-14
20:24:06:962581,-14,-2,-10,-7,0,-2,1,0
20:24:06:970125,0,-2,3,-6,3,0,0,-1
20:24:06:977594,0,-2,3,-6,3,0,0,-1
20:24:06:985082,0,-8,-2,2,-1,-5,-23,0
20:24:06:992635,-3,-2,-1,-1,0,-1,-11,1
20:24:07:757,-3,-2,-1,-1,0,-1,-11,1
20:24:07:1590,6,-1,-3,-1,-1,4,-4,-1
20:24:07:15703,-8,23,2,1,0,-1,5,6
20:24:07:16578,-8,23,2,1,0,-1,5,6
20:24:07:22610,13,4,1,-2,-1,0,12,6
20:24:07:29952,-12,-9,-3,1,0,1,15,0
20:24:07:37583,-12,-9,-3,1,0,1,15,0
20:24:07:45080,0,14,0,4,0,-3,-7,-6
20:24:07:52565,3,-7,2,-1,-1,-3,9,1
20:24:07:60706,3,-7,2,-1,-1,-3,9,1
20:24:07:61564,6,-11,-3,-2,0,-3,-11,14
20:24:07:75707,6,-2,-3,-1,0,2,-4,11
20:24:07:76569,6,-2,-3,-1,0,2,-4,11
20:24:07:82566,-6,-3,2,-1,1,0,-3,2
20:24:07:90079,1,3,-5,1,0,3,9,10
20:24:07:97602,1,3,-5,1,0,3,9,10
20:24:07:105087,-7,-13,-5,-6,-3,-4,-5,-2
20:24:07:112569,-5,7,-4,0,-1,1,6,-3
20:24:07:120840,-5,7,-4,0,-1,1,6,-3
20:24:07:121592,-4,-2,8,1,-2,0,21,-1
20:24:07:135734,2,-5,1,-2,-4,-4,-2,-6
20:24:07:136583,2,-5,1,-2,-4,-4,-2,-6
20:24:07:142597,-2,6,-7,-2,-4,-6,-13,-32
20:24:07:150071,-5,-9,-3,-1,1,-1,-7,-10
20:24:07:157619,-5,-9,-3,-1,1,-1,-7,-10
20:24:07:165080,9,17,1,1,1,4,10,16
20:24:07:172592,-9,-25,-7,-3,-2,-5,-13,-15
20:24:07:188197,-9,-25,-7,-3,-2,-5,-13,-15
20:24:07:189092,28,-8,2,-1,-3,-4,-15,15
20:24:07:195700,10,15,8,0,1,0,-10,-10
20:24:07:196588,10,15,8,0,1,0,-10,-10
20:24:07:202599,1,10,-2,1,0,-1,-14,-28
20:24:07:210088,5,0,3,0,-2,-2,-15,4
20:24:07:217595,5,0,3,0,-2,-2,-15,4
20:24:07:225077,-9,-35,-1,-1,0,-3,-13,10
20:24:07:232606,-2,5,0,0,0,0,-4,1
20:24:07:240721,-2,5,0,0,0,0,-4,1
20:24:07:241563,-28,-16,-3,-3,-2,-4,-4,-22
20:24:07:255710,-3,10,-4,-4,-2,-2,0,8
20:24:07:256576,-3,10,-4,-4,-2,-2,0,8
20:24:07:262576,-5,-31,3,0,-2,0,15,-18
20:24:07:270064,20,12,-6,-2,-2,-1,10,28
20:24:07:277562,20,12,-6,-2,-2,-1,10,28
20:24:07:285053,-1,29,-3,2,5,1,12,-14
20:24:07:292590,4,-3,1,1,1,0,-6,1
20:24:07:300732,4,-3,1,1,1,0,-6,1
20:24:07:301610,13,5,0,1,2,1,3,2
20:24:07:315735,-3,-27,-8,-3,-2,-2,2,7
20:24:07:316608,-3,-27,-8,-3,-2,-2,2,7
20:24:07:322565,-19,12,1,-3,-2,-2,8,6
20:24:07:330095,-5,24,0,1,-1,6,6,23
20:24:07:337590,-5,24,0,1,-1,6,6,23
20:24:07:345071,1,-7,-20,-2,-1,-1,-6,-4
20:24:07:352624,4,5,-1,3,0,-3,-1,14
20:24:07:360710,4,5,-1,3,0,-3,-1,14
20:24:07:361578,-15,-16,6,-4,-2,-1,-2,10
20:24:07:375719,-10,-13,0,0,2,0,6,-21
20:24:07:376589,-10,-13,0,0,2,0,6,-21
20:24:07:382615,8,1,1,-2,-3,-5,-17,1
20:24:07:390122,-4,-25,-2,-2,0,-1,-18,1
20:24:07:397594,-4,-25,-2,-2,0,-1,-18,1
20:24:07:405121,-2,-9,3,2,3,6,0,27
20:24:07:412632,11,-12,2,-1,0,2,15,5
20:24:07:420861,11,-12,2,-1,0,2,15,5
20:24:07:421583,4,27,4,-1,-1,1,-2,-14
20:24:07:435762,-7,4,-1,-1,-1,-5,1,14
20:24:07:436716,-7,4,-1,-1,-1,-5,1,14
20:24:07:442588,16,9,-1,-2,-2,-3,-12,-24
20:24:07:450074,-4,7,-3,0,1,-4,-14,-24
20:24:07:457584,-4,7,-3,0,1,-4,-14,-24
20:24:07:465112,4,19,2,1,-3,1,6,-7
20:24:07:472584,-10,11,-1,-2,0,1,13,-17
20:24:07:480731,-10,11,-1,-2,0,1,13,-17
20:24:07:481590,2,-3,-3,-2,-2,-3,-1,-17
20:24:07:495784,-17,-32,-1,-1,-1,-3,14,-16
20:24:07:496627,-17,-32,-1,-1,-1,-3,14,-16
20:24:07:502608,-13,-20,-6,-5,-3,3,6,0
20:24:07:510068,6,24,1,-1,-1,1,7,49
20:24:07:517611,6,24,1,-1,-1,1,7,49
20:24:07:525107,0,5,-5,2,-6,-6,-3,24
20:24:07:532583,-2,-10,-10,-11,-2,-2,-5,1
20:24:07:540751,-2,-10,-10,-11,-2,-2,-5,1
20:24:07:541592,15,5,1,1,5,0,6,-3
20:24:07:555717,-10,-27,0,-6,-4,-5,4,-1
20:24:07:556598,-10,-27,0,-6,-4,-5,4,-1
20:24:07:562596,-4,-2,-4,2,1,-3,0,11
20:24:07:570086,13,-23,-21,5,5,0,-15,-54
20:24:07:577573,13,-23,-21,5,5,0,-15,-54
20:24:07:585069,-21,-38,-1,0,-2,3,0,-8
20:24:07:592601,-33,15,7,5,3,1,2,28
20:24:07:600711,-33,15,7,5,3,1,2,28
20:24:07:601579,-30,15,-2,2,11,3,-1,-12
20:24:07:616194,13,17,2,-6,-7,-2,-1,5
20:24:07:617085,13,17,2,-6,-7,-2,-1,5
20:24:07:622575,6,2,7,-3,-6,-4,-4,19
20:24:07:630093,-1,5,1,3,1,4,-6,-24
20:24:07:637601,-1,5,1,3,1,4,-6,-24
20:24:07:645089,29,35,-6,-2,-4,-4,2,12
20:24:07:652641,-22,-24,-1,-17,-8,-8,-13,-21
20:24:07:660853,-22,-24,-1,-17,-8,-8,-13,-21
20:24:07:661636,2,10,-1,5,-8,-2,-5,-22
20:24:07:675728,13,8,-8,-2,-8,-3,14,-4
20:24:07:676650,13,8,-8,-2,-8,-3,14,-4
20:24:07:682594,-10,-9,0,-1,2,2,11,28
20:24:07:690096,-1,9,5,10,0,-3,-8,-49
20:24:07:697607,-1,9,5,10,0,-3,-8,-49
20:24:07:705138,10,-3,-2,-5,3,2,5,36
20:24:07:712624,8,-15,0,-1,2,-2,-14,-31
20:24:07:720865,8,-15,0,-1,2,-2,-14,-31
20:24:07:721580,-19,-40,6,18,7,1,-5,-18
20:24:07:735751,-7,24,3,0,0,4,3,35
20:24:07:736619,-7,24,3,0,0,4,3,35
20:24:07:742588,-8,-40,-6,-24,-17,-5,-4,-3
20:24:07:750134,5,-5,3,4,-2,0,-4,19
20:24:07:757624,5,-5,3,4,-2,0,-4,19
20:24:07:765114,-3,7,-1,-1,-1,-2,-1,21
20:24:07:772603,24,-1,-10,-5,3,-1,0,-27
20:24:07:780703,24,-1,-10,-5,3,-1,0,-27
20:24:07:781622,-9,4,-2,5,1,0,0,-24
20:24:07:795720,16,15,6,25,1,-3,-5,-13
20:24:07:796575,16,15,6,25,1,-3,-5,-13
20:24:07:802591,17,21,0,-5,-8,-5,-9,-7
20:24:07:810101,-48,-16,-2,-1,-9,-5,1,14
20:24:07:817597,-48,-16,-2,-1,-9,-5,1,14
20:24:07:833248,-8,-12,-3,0,2,-1,5,28
20:24:07:834097,12,2,7,-2,-3,1,-2,-21
20:24:07:840698,12,2,7,-2,-3,1,-2,-21
20:24:07:841581,1,22,1,-3,0,1,3,21
20:24:07:855766,1,-9,-2,-2,-1,4,14,27
20:24:07:856590,1,-9,-2,-2,-1,4,14,27
20:24:07:862614,7,-1,5,-3,-1,-1,-9,-48
20:24:07:870102,-11,-23,-4,-4,-3,-4,-5,5
20:24:07:877590,-11,-23,-4,-4,-3,-4,-5,5
20:24:07:885152,8,-41,-10,6,1,1,-2,-7
20:24:07:892591,-9,-6,18,-15,-3,-2,0,30
20:24:07:900161,-9,-6,18,-15,-3,-2,0,30
20:24:07:907475,-9,-13,-1,16,1,-5,2,19
20:24:07:915743,11,19,-16,7,-4,-2,1,19
20:24:07:916602,11,19,-16,7,-4,-2,1,19
20:24:07:922610,-4,-19,-4,-22,-3,0,-1,-29
20:24:07:938211,1,-35,-2,-3,9,-2,-14,-38
20:24:07:939073,1,-35,-2,-3,9,-2,-14,-38
20:24:07:944939,16,12,4,24,6,-2,-12,-28
20:24:07:952495,2,34,-3,-22,-11,-2,7,12
20:24:07:960064,2,34,-3,-22,-11,-2,7,12
20:24:07:967636,-6,5,16,-24,-3,1,-1,19
20:24:07:975715,-10,-33,-1,-41,-10,-4,-10,-17
20:24:07:976583,-10,-33,-1,-41,-10,-4,-10,-17
20:24:07:982601,-44,-16,-14,-4,-4,-3,14,42
20:24:07:998189,18,23,-8,9,17,2,-2,4
20:24:07:999084,18,23,-8,9,17,2,-2,4
20:24:08:5133,-13,-36,-18,-3,10,0,2,32
20:24:08:12610,-18,12,0,0,-4,-1,-3,-1
20:24:08:20100,-18,12,0,0,-4,-1,-3,-1
20:24:08:36505,-17,4,-19,-9,-15,-4,-7,-26
20:24:08:37222,7,-1,-18,38,14,5,7,22
20:24:08:38086,7,-1,-18,38,14,5,7,22
20:24:08:42590,47,64,19,20,22,5,1,18
20:24:08:58278,-13,-8,-9,21,10,-2,-3,37
20:24:08:59122,-13,-8,-9,21,10,-2,-3,37
20:24:08:65110,6,31,7,26,4,-6,-18,-71
20:24:08:72601,1,27,11,-26,-7,-1,2,-20
20:24:08:80091,1,27,11,-26,-7,-1,2,-20
20:24:08:87617,-34,22,-8,20,2,-2,-7,-22
20:24:08:95749,-23,-4,2,17,-3,-7,1,-8
20:24:08:96569,-23,-4,2,17,-3,-7,1,-8
20:24:08:102615,30,23,-4,-16,3,2,0,3
20:24:08:118217,-24,10,5,6,-12,-3,0,-11
20:24:08:119117,-24,10,5,6,-12,-3,0,-11
20:24:08:125099,47,26,26,7,3,-1,7,18
20:24:08:132622,-2,-46,11,-35,-3,2,-6,-58
20:24:08:140165,-2,-46,11,-35,-3,2,-6,-58
20:24:08:147612,-5,3,7,-35,-19,-3,1,7
20:24:08:155698,13,30,18,-3,-13,-4,1,17
20:24:08:156593,13,30,18,-3,-13,-4,1,17
20:24:08:170101,32,-24,-11,-4,5,3,3,20
20:24:08:178218,26,-7,7,0,4,2,-4,-5
20:24:08:179080,26,-7,7,0,4,2,-4,-5
20:24:08:185091,-12,-8,-11,-28,1,1,7,34
20:24:08:192575,-6,-53,-6,-54,-12,-6,-11,-15
20:24:08:200077,-6,-53,-6,-54,-12,-6,-11,-15
20:24:08:207591,-30,-98,-14,-7,-11,-3,-1,-28
20:24:08:215767,1,17,7,40,12,3,5,36
20:24:08:216592,1,17,7,40,12,3,5,36
20:24:08:222472,-8,16,24,41,21,3,6,20
20:24:08:238717,-17,-4,-13,28,-1,-3,-6,-14
20:24:08:239475,-17,-4,-13,28,-1,-3,-6,-14
20:24:08:245119,6,7,-15,-28,2,-2,-4,-51
20:24:08:252606,-2,-31,-16,12,19,7,7,7
20:24:08:260117,-2,-31,-16,12,19,7,7,7
20:24:08:267463,-15,-76,-15,38,22,2,-2,-27
20:24:08:275758,-14,-39,0,25,-1,-4,-4,-8
20:24:08:276588,-14,-39,0,25,-1,-4,-4,-8
20:24:08:282487,-7,12,-21,-64,-33,-8,-5,-4
20:24:08:298233,22,53,3,-13,-6,-3,-1,-12
20:24:08:299101,22,53,3,-13,-6,-3,-1,-12
20:24:08:304982,32,25,12,21,-1,-4,-15,-63
20:24:08:312471,10,17,2,-12,22,9,1,8
20:24:08:320172,10,17,2,-12,22,9,1,8
20:24:08:336469,-17,-17,0,-16,-4,1,4,9
20:24:08:337216,6,26,-14,35,3,-1,0,-3
20:24:08:338084,6,26,-14,35,3,-1,0,-3
20:24:08:342453,-18,13,-6,11,-8,2,11,68
20:24:08:358224,-5,18,12,-28,-6,-4,-10,-3
20:24:08:359112,-5,18,12,-28,-6,-4,-10,-3
20:24:08:373258,24,35,0,20,4,-3,-1,13
20:24:08:373986,-2,-7,3,-20,-19,-5,7,36
20:24:08:380085,-2,-7,3,-20,-19,-5,7,36
20:24:08:387608,15,34,33,41,-5,-1,0,9
20:24:08:395733,-6,-79,-13,-24,-8,-3,2,-21
20:24:08:396611,-6,-79,-13,-24,-8,-3,2,-21
20:24:08:402592,6,-6,9,-26,-11,-3,-2,-2
20:24:08:418242,16,35,-1,20,6,0,-2,-18
20:24:08:419088,16,35,-1,20,6,0,-2,-18
20:24:08:425092,21,-11,-11,-29,-8,-3,-9,-15
20:24:08:432620,2,7,3,-29,-11,-5,-6,-3
20:24:08:440080,2,7,3,-29,-11,-5,-6,-3
20:24:08:447529,-18,1,-3,-6,5,2,-2,-2
20:24:08:455705,-6,-6,-8,13,18,10,5,-19
20:24:08:456619,-6,-6,-8,13,18,10,5,-19
20:24:08:462517,-39,-26,3,21,-2,-3,-1,-2
20:24:08:478227,-4,24,5,-10,-12,-5,-1,10
20:24:08:479078,-4,24,5,-10,-12,-5,-1,10
20:24:08:484972,-16,8,-3,-11,8,3,5,14
20:24:08:492493,9,24,-11,-7,8,3,1,2
20:24:08:500094,9,24,-11,-7,8,3,1,2
20:24:08:507483,-11,-6,1,-7,-8,-4,-1,1
20:24:08:515724,-6,9,-14,-25,-16,-7,-12,-4
20:24:08:516617,-6,9,-14,-25,-16,-7,-12,-4
20:24:08:522634,7,3,-5,-8,1,0,-3,-9
20:24:08:538729,5,-3,4,6,8,3,4,1
20:24:08:539604,5,-3,4,6,8,3,4,1
20:24:08:545112,2,17,-7,8,4,-3,-7,-37
20:24:08:552652,5,-39,1,10,10,1,2,0
20:24:08:560093,5,-39,1,10,10,1,2,0
20:24:08:567627,18,36,8,3,-3,-1,3,2
20:24:08:575730,-10,-4,16,28,-6,-3,0,5
20:24:08:576587,-10,-4,16,28,-6,-3,0,5
20:24:08:582621,14,-3,-18,-2,0,-1,5,26
20:24:08:598260,-19,-53,-15,26,-1,-3,-3,-19
20:24:08:599113,-19,-53,-15,26,-1,-3,-3,-19
20:24:08:605089,-8,25,2,8,2,1,-5,16
20:24:08:612585,11,9,-20,-11,-8,-2,4,17
20:24:08:620121,11,9,-20,-11,-8,-2,4,17
20:24:08:627608,8,-6,-10,-24,-8,-2,-5,-22
20:24:08:635720,8,21,20,-1,13,1,1,18
20:24:08:636609,8,21,20,-1,13,1,1,18
20:24:08:642595,-13,-17,-1,-12,-5,-4,-8,-17
20:24:08:658759,-13,-17,-1,-12,-5,-4,-8,-17
20:24:08:659511,9,31,2,-5,-8,-2,3,-3
20:24:08:665128,-10,-30,3,4,8,-2,-3,7
20:24:08:680708,-10,-30,3,4,8,-2,-3,7
20:24:08:681579,-5,-5,4,-3,-2,-1,0,8
20:24:08:687582,-12,-8,1,-2,-9,-4,-14,-29
20:24:08:695746,-12,-8,1,-2,-9,-4,-14,-29
20:24:08:696596,5,-15,-5,6,-3,-3,-9,-6
20:24:08:702604,-3,9,2,-11,-10,1,6,-19
20:24:08:718257,-3,9,2,-11,-10,1,6,-19
20:24:08:719117,-1,8,14,-6,-3,-2,2,20
20:24:08:725113,-4,12,14,24,7,0,3,22
20:24:08:740748,-4,12,14,24,7,0,3,22
20:24:08:741609,-3,-3,1,4,-3,-3,2,1
20:24:08:747624,-2,-42,5,25,5,-1,4,27
20:24:08:755860,-2,-42,5,25,5,-1,4,27
20:24:08:756593,-6,-3,-6,13,4,-1,-8,-18
20:24:08:762601,3,7,-2,9,-6,1,5,0
20:24:08:778250,3,7,-2,9,-6,1,5,0
20:24:08:779110,-2,-32,-3,-11,-7,-2,0,0
20:24:08:785100,0,5,6,-2,2,0,1,9
20:24:08:800747,0,5,6,-2,2,0,1,9
20:24:08:801606,-1,13,-2,-11,1,0,-2,-13
20:24:08:807599,-3,-6,-2,-11,-2,-2,1,4
20:24:08:815709,-3,-6,-2,-11,-2,-2,1,4
20:24:08:816593,-9,-1,-12,1,5,1,0,-2
20:24:08:822595,-14,-10,-4,-5,0,-2,-4,-17
20:24:08:838225,-14,-10,-4,-5,0,-2,-4,-17
20:24:08:839092,-13,-3,10,-3,-2,0,-3,-2
20:24:08:844956,5,8,-9,-13,-6,-1,-1,18
20:24:08:860732,5,8,-9,-13,-6,-1,-1,18
20:24:08:861572,-6,2,-6,22,23,4,-1,13
20:24:08:867501,2,7,-4,-3,-4,-2,-4,-5
20:24:08:875715,2,7,-4,-3,-4,-2,-4,-5
20:24:08:876601,9,8,0,-14,-12,-2,6,27
20:24:08:889969,-1,-7,-3,4,3,-2,1,3
20:24:08:898239,-1,-7,-3,4,3,-2,1,3
20:24:08:899087,3,1,0,-2,-3,-2,-3,-8
20:24:08:904963,-16,33,13,-1,-2,0,-7,-9
20:24:08:920730,-16,33,13,-1,-2,0,-7,-9
20:24:08:921583,6,-11,9,10,-3,-4,-5,-7
20:24:08:927514,8,8,-1,3,0,-2,0,-5
20:24:08:935728,8,8,-1,3,0,-2,0,-5
20:24:08:936592,6,7,-5,-2,-11,-2,-3,-28
20:24:08:950093,2,-6,-3,1,-1,-4,-3,-17
20:24:08:958232,2,-6,-3,1,-1,-4,-3,-17
20:24:08:959102,-1,-6,-18,-20,-5,-3,-1,-18
20:24:08:964976,-1,-10,-4,0,-3,0,-2,-15
20:24:08:980773,-1,-10,-4,0,-3,0,-2,-15
20:24:08:981633,-9,-22,-3,-8,-5,-1,0,11
20:24:08:987496,4,-6,-2,-6,1,-1,-2,13
20:24:08:996096,4,-6,-2,-6,1,-1,-2,13
20:24:09:2491,1,6,-7,4,8,3,-3,-7
20:24:09:9995,-1,-16,-14,1,-1,-2,2,2
20:24:09:18242,-1,-16,-14,1,-1,-2,2,2
20:24:09:19123,2,11,9,26,0,-1,-1,9
20:24:09:25124,-17,-41,-2,-2,4,0,3,11
20:24:09:40742,-17,-41,-2,-2,4,0,3,11
20:24:09:41595,-14,4,6,-18,-9,-2,1,12
20:24:09:47485,4,0,-3,-8,-5,0,-3,-11
20:24:09:55725,4,0,-3,-8,-5,0,-3,-11
20:24:09:56594,5,11,9,17,-2,2,4,-3
20:24:09:69996,-10,12,6,-5,-5,0,4,26
20:24:09:78242,-10,12,6,-5,-5,0,4,26
20:24:09:79097,6,18,-5,-21,-7,-2,-1,1
20:24:09:85010,7,13,-5,3,5,-3,-7,-2
20:24:09:108860,7,13,-5,3,5,-3,-7,-2
20:24:09:109726,10,-13,-4,-11,-2,-1,1,-9
20:24:09:110501,6,-10,0,-8,0,1,3,-1
20:24:09:115709,6,-10,0,-8,0,1,3,-1
20:24:09:116580,2,-9,0,8,9,-1,0,-18
