Time,EMG1,EMG2,EMG3,EMG4,EMG5,EMG6,EMG7,EMG8
17:44:37:851694,2,2,4,-6,0,-1,2,2
17:44:37:859865,2,2,4,-6,0,-1,2,2
17:44:37:860672,0,-2,-3,-4,-4,0,-1,-5
17:44:37:866611,-1,-4,-2,2,-2,0,-2,-3
17:44:37:874205,-1,-4,-2,2,-2,0,-2,-3
17:44:37:881666,-2,-4,-3,-6,-4,-2,0,4
17:44:37:889163,-1,2,-2,2,1,-1,-2,-1
17:44:37:897387,-1,2,-2,2,1,-1,-2,-1
17:44:37:898204,-3,0,-8,4,-1,-5,-2,-3
17:44:37:911645,2,-2,2,-1,-5,-1,-2,-3
17:44:37:919885,2,-2,2,-1,-5,-1,-2,-3
17:44:37:920657,-3,-4,4,-1,-2,0,1,-4
17:44:37:926659,-1,0,3,-1,-1,1,-2,4
17:44:37:934218,-1,0,3,-1,-1,1,-2,4
17:44:37:941641,-3,-2,-16,-4,1,3,-2,-7
17:44:37:949179,-2,-1,-7,-3,0,-3,0,2
17:44:37:957400,-2,-1,-7,-3,0,-3,0,2
17:44:37:958188,2,0,1,-2,-1,-5,0,2
17:44:37:971637,1,-2,-1,2,-3,1,0,-2
17:44:37:979966,1,-2,-1,2,-3,1,0,-2
17:44:37:980699,-1,-6,5,1,-1,1,2,-1
17:44:37:986640,5,4,0,-2,0,-4,-1,-3
17:44:37:994240,5,4,0,-2,0,-4,-1,-3
17:44:38:1695,-2,-3,0,-6,0,8,22,11
17:44:38:9183,1,-4,-9,0,2,-1,7,2
17:44:38:17341,1,-4,-9,0,2,-1,7,2
17:44:38:18167,-7,5,0,-2,-2,0,-12,-4
17:44:38:32143,-2,-1,-1,-4,-3,1,0,-1
17:44:38:39837,-2,-1,-1,-4,-3,1,0,-1
17:44:38:40638,1,-1,4,1,1,-3,-6,-8
17:44:38:46654,0,-1,0,-3,-1,-3,-8,-3
17:44:38:54184,0,-1,0,-3,-1,-3,-8,-3
17:44:38:61675,-1,-1,-4,-4,-3,-4,-3,0
17:44:38:69163,-3,-1,-7,-3,-2,-2,-2,0
17:44:38:77372,-3,-1,-7,-3,-2,-2,-2,0
17:44:38:78153,-1,-1,-3,-1,-2,1,0,-8
17:44:38:92200,-1,0,-1,6,0,-1,3,3
17:44:38:99851,-1,0,-1,6,0,-1,3,3
17:44:38:100646,3,5,5,2,-2,-2,2,5
17:44:38:106682,-1,-4,-1,-3,-1,0,2,-3
17:44:38:122336,-1,-4,-1,-3,-1,0,2,-3
17:44:38:123158,-3,-6,-4,-5,0,-1,-14,1
17:44:38:129189,-1,1,1,-1,-1,-2,-4,0
17:44:38:137362,-1,1,1,-1,-1,-2,-4,0
17:44:38:138197,0,0,-1,-1,-2,-2,1,-4
17:44:38:151664,0,-4,-1,4,3,1,-3,-7
17:44:38:159841,0,-4,-1,4,3,1,-3,-7
17:44:38:160623,1,3,-3,0,-3,-2,-2,3
17:44:38:166664,1,0,1,0,0,-2,1,7
17:44:38:182471,1,0,1,0,0,-2,1,7
17:44:38:183198,-2,-8,1,-2,-3,1,2,-1
17:44:38:189165,0,1,-2,-1,6,1,-2,-1
17:44:38:197869,0,1,-2,-1,6,1,-2,-1
17:44:38:204233,-2,0,-2,2,-1,-2,-2,-4
17:44:38:211705,-2,-4,0,-3,-4,-6,1,0
17:44:38:219843,-2,-4,0,-3,-4,-6,1,0
17:44:38:220622,2,1,-4,-1,0,-1,1,-1
17:44:38:226639,-2,-3,-1,0,-1,2,-2,2
17:44:38:234191,-2,-3,-1,0,-1,2,-2,2
17:44:38:241679,-1,1,-1,-2,-1,-4,-3,1
17:44:38:249145,-1,1,-4,-8,-2,-1,-1,-3
17:44:38:257386,-1,1,-4,-8,-2,-1,-1,-3
17:44:38:258173,-1,-5,1,0,1,-3,0,-3
17:44:38:271644,-6,1,-2,-2,-1,-2,-5,2
17:44:38:279856,-6,1,-2,-2,-1,-2,-5,2
17:44:38:280685,0,-1,-7,-5,-2,2,-2,-8
17:44:38:286616,3,-3,0,-2,-3,0,3,2
17:44:38:294237,3,-3,0,-2,-3,0,3,2
17:44:38:309839,-3,-3,-2,2,0,-3,-4,1
17:44:38:310607,-2,1,3,2,-3,-2,0,-5
17:44:38:317370,-2,1,3,2,-3,-2,0,-5
17:44:38:318178,-1,-2,0,-3,1,0,1,5
17:44:38:331701,-3,1,1,0,-2,1,-2,-1
17:44:38:339868,-3,1,1,0,-2,1,-2,-1
17:44:38:340657,-1,-2,-1,-2,0,-2,-1,-2
17:44:38:346628,-1,-2,-5,-3,-12,-4,4,-3
17:44:38:354202,-1,-2,-5,-3,-12,-4,4,-3
17:44:38:361662,-2,-2,-2,0,-6,-7,-2,2
17:44:38:369119,-4,0,-1,-3,4,3,-3,-6
17:44:38:377573,-4,0,-1,-3,4,3,-3,-6
17:44:38:378186,1,-1,1,-1,-1,-1,0,2
17:44:38:391620,2,-1,-2,-3,5,-2,2,-1
17:44:38:399901,2,-1,-2,-3,5,-2,2,-1
17:44:38:400662,-2,-3,4,-2,1,-2,-1,2
17:44:38:406676,1,-4,-7,4,-1,2,-3,-2
17:44:38:414231,1,-4,-7,4,-1,2,-3,-2
17:44:38:421652,-3,3,-3,-1,0,0,-5,0
17:44:38:429156,-4,-2,-3,-4,-3,2,0,-2
17:44:38:436748,-4,-2,-3,-4,-3,2,0,-2
17:44:38:444174,0,-3,-2,0,-3,-1,-2,-2
17:44:38:451670,2,3,0,-1,1,0,-5,1
17:44:38:459868,2,3,0,-1,1,0,-5,1
17:44:38:460640,-1,2,-1,-3,-3,0,1,-6
17:44:38:474889,2,-1,2,6,-1,-5,-2,-2
17:44:38:475706,2,-1,2,6,-1,-5,-2,-2
17:44:38:481672,-1,-2,-3,0,-1,0,2,2
17:44:38:489153,-2,-1,3,-4,-2,-2,1,-1
17:44:38:496664,-2,-1,3,-4,-2,-2,1,-1
17:44:38:504197,-2,0,1,-5,2,1,-3,2
17:44:38:511716,-2,-3,0,-3,1,-1,-4,-2
17:44:38:519863,-2,-3,0,-3,1,-1,-4,-2
17:44:38:520648,1,-4,-2,2,-2,0,2,-3
17:44:38:534845,-2,-3,-2,2,-1,0,2,1
17:44:38:535643,-2,-3,-2,2,-1,0,2,1
17:44:38:541682,0,1,0,1,-3,-5,-4,-6
17:44:38:549205,-2,-4,-3,-1,-3,-1,0,1
17:44:38:556715,-2,-4,-3,-1,-3,-1,0,1
17:44:38:564152,0,-1,-3,-5,-1,2,-1,4
17:44:38:571643,5,0,1,-5,-2,-4,2,1
17:44:38:579843,5,0,1,-5,-2,-4,2,1
17:44:38:580682,-1,-1,1,1,2,-2,0,-5
17:44:38:594850,-5,-6,-5,1,-2,-1,-2,-3
17:44:38:595761,-5,-6,-5,1,-2,-1,-2,-3
17:44:38:601642,-4,-1,-3,-1,0,0,2,-3
17:44:38:609188,0,-2,-1,-2,0,0,-4,0
17:44:38:616695,0,-2,-1,-2,0,0,-4,0
17:44:38:624164,0,1,3,1,-3,0,-4,1
17:44:38:631622,-1,2,1,2,2,1,-3,-4
17:44:38:639636,-1,2,1,2,2,1,-3,-4
17:44:38:646672,2,-3,-3,1,1,1,0,-7
17:44:38:654879,-5,2,0,-1,-2,-3,-1,-3
17:44:38:655686,-5,2,0,-1,-2,-3,-1,-3
17:44:38:669792,-4,-2,0,-2,3,-1,2,5
17:44:38:670594,-1,-2,-2,-3,-1,-2,2,1
17:44:38:676698,-1,-2,-2,-3,-1,-2,2,1
17:44:38:684155,2,0,-4,-4,-6,-4,0,-3
17:44:38:691684,-1,1,-4,2,1,0,-5,-1
17:44:38:699882,-1,1,-4,2,1,0,-5,-1
17:44:38:700684,1,0,0,-1,-3,-1,-6,0
17:44:38:714866,0,-2,4,2,-2,-3,-1,0
17:44:38:715662,0,-2,4,2,-2,-3,-1,0
17:44:38:721664,0,-3,-1,1,-3,0,-3,-6
17:44:38:729161,4,-2,-1,1,-1,1,0,-3
17:44:38:736728,4,-2,-1,1,-1,1,0,-3
17:44:38:744170,-7,-2,2,-4,0,-4,-3,2
17:44:38:751628,-4,3,-5,-6,-2,-3,1,-1
17:44:38:759836,-4,3,-5,-6,-2,-3,1,-1
17:44:38:760645,-4,3,-2,-4,-2,1,4,-2
17:44:38:774901,-2,-3,-2,2,0,4,-3,1
17:44:38:775762,-2,-3,-2,2,0,4,-3,1
17:44:38:781630,4,-5,0,2,0,-4,2,2
17:44:38:789157,2,6,-1,-4,-2,-2,2,-1
17:44:38:796756,2,6,-1,-4,-2,-2,2,-1
17:44:38:804183,-1,-3,-2,0,0,2,-2,-3
17:44:38:811677,-4,-4,0,-2,-6,-4,-2,0
17:44:38:819856,-4,-4,0,-2,-6,-4,-2,0
17:44:38:820634,-2,-1,0,-3,-1,2,-2,-1
17:44:38:843077,1,-2,0,3,-1,2,-2,3
17:44:38:843850,1,-2,0,3,-1,2,-2,3
17:44:38:844649,4,0,-1,-4,-1,-5,-2,-2
17:44:38:849132,-2,3,0,-2,-4,-3,-3,-5
17:44:38:856725,-2,3,0,-2,-4,-3,-3,-5
17:44:38:864194,-4,-2,-3,5,1,0,-1,4
17:44:38:871649,0,-4,-1,-3,-1,-2,3,-2
17:44:38:879823,0,-4,-1,-3,-1,-2,3,-2
17:44:38:880640,1,-3,-2,-3,-1,-2,-2,-4
17:44:38:894813,-4,-1,3,-2,2,3,-5,-1
17:44:38:895629,-4,-1,3,-2,2,3,-5,-1
17:44:38:901656,1,1,-3,0,-2,-2,-1,-1
17:44:38:909170,0,-1,-2,-3,3,-2,5,-4
17:44:38:916675,0,-1,-2,-3,3,-2,5,-4
17:44:38:924192,-4,1,1,3,-1,-1,-4,3
17:44:38:931654,2,-4,5,-1,2,2,-3,-3
17:44:38:939863,2,-4,5,-1,2,2,-3,-3
17:44:38:940670,0,0,-5,-5,-2,2,-1,-5
17:44:38:954835,-1,1,-5,-4,-1,-4,-2,4
17:44:38:955635,-1,1,-5,-4,-1,-4,-2,4
17:44:38:961694,-4,-1,0,-1,2,-3,2,6
17:44:38:969182,0,-4,-9,-4,0,2,2,-1
17:44:38:976713,0,-4,-9,-4,0,2,2,-1
17:44:38:984145,0,-4,0,-2,0,-4,0,-6
17:44:38:991624,-4,1,5,5,0,2,-1,-2
17:44:38:999863,-4,1,5,5,0,2,-1,-2
17:44:39:651,0,-6,-17,-12,-5,-3,-1,-3
17:44:39:14858,1,-1,-3,-4,-1,-4,-3,-3
17:44:39:15699,1,-1,-3,-4,-1,-4,-3,-3
17:44:39:29864,-5,2,0,4,0,1,3,0
17:44:39:30640,-1,-3,2,0,-8,-5,-7,5
17:44:39:36678,-1,-3,2,0,-8,-5,-7,5
17:44:39:44151,2,1,7,4,3,3,-3,0
17:44:39:51651,-3,1,-2,1,1,1,-1,-4
17:44:39:59854,-3,1,-2,1,1,1,-1,-4
17:44:39:60670,-2,-1,-7,-4,-2,-6,1,-5
17:44:39:74850,2,-3,-11,0,5,0,3,-3
17:44:39:75646,2,-3,-11,0,5,0,3,-3
17:44:39:81623,-1,0,9,-9,-6,1,-1,-5
17:44:39:89131,1,-1,-19,-7,0,1,2,-3
17:44:39:96705,1,-1,-19,-7,0,1,2,-3
17:44:39:104122,1,-3,4,6,-4,0,-2,9
17:44:39:111615,-2,0,2,2,-6,-4,-3,-2
17:44:39:119885,-2,0,2,2,-6,-4,-3,-2
17:44:39:120659,-1,0,-1,-3,2,1,-1,-2
17:44:39:134841,1,-1,-6,-10,-2,-5,1,-1
17:44:39:135667,1,-1,-6,-10,-2,-5,1,-1
17:44:39:141627,-3,-2,-4,0,-2,-1,1,-1
17:44:39:149200,-1,-4,5,5,-3,-2,-5,6
17:44:39:156704,-1,-4,5,5,-3,-2,-5,6
17:44:39:164150,1,-1,2,1,0,-3,-2,0
17:44:39:171659,-5,-2,8,1,0,4,2,-4
17:44:39:179893,-5,-2,8,1,0,4,2,-4
17:44:39:180696,-1,0,-2,-1,0,1,1,0
17:44:39:194152,5,1,1,0,-1,1,-3,-1
17:44:39:202398,5,1,1,0,-1,1,-3,-1
17:44:39:203176,-1,-2,5,3,2,1,-1,-1
17:44:39:209136,-6,-3,-3,0,-4,-5,-5,-6
17:44:39:216727,-6,-3,-3,0,-4,-5,-5,-6
17:44:39:224171,-3,4,-1,-7,-1,-1,4,-1
17:44:39:231664,0,3,0,-4,5,-1,1,5
17:44:39:239851,0,3,0,-4,5,-1,1,5
17:44:39:240648,2,-1,-2,6,0,0,-6,-2
17:44:39:254825,-2,-2,3,-1,-3,-3,-2,-3
17:44:39:255642,-2,-2,3,-1,-3,-3,-2,-3
17:44:39:261661,-1,-9,0,-3,-1,-6,-1,1
17:44:39:269173,0,3,6,2,-3,-1,3,3
17:44:39:276703,0,3,6,2,-3,-1,3,3
17:44:39:284201,-2,-2,-7,2,-4,2,1,-2
17:44:39:291695,-1,-2,-1,2,1,3,1,-5
17:44:39:299863,-1,-2,-1,2,1,3,1,-5
17:44:39:300642,-2,3,5,3,0,-3,-5,-2
17:44:39:314836,-1,-3,2,5,-2,-4,2,-2
17:44:39:315660,-1,-3,2,5,-2,-4,2,-2
17:44:39:321700,0,0,-8,0,1,1,-3,-1
17:44:39:329268,-4,0,3,-8,-2,-3,-2,-2
17:44:39:336680,-4,0,3,-8,-2,-3,-2,-2
17:44:39:344151,2,-4,-15,3,-4,-4,0,-1
17:44:39:360474,2,-3,-8,-4,1,0,-4,3
17:44:39:361279,2,-3,-8,-4,1,0,-4,3
17:44:39:362148,-1,1,1,-2,0,1,-3,0
17:44:39:374836,-3,-2,12,3,-3,-1,-4,0
17:44:39:375648,-3,-2,12,3,-3,-1,-4,0
17:44:39:381809,-2,0,0,-4,0,-1,0,0
17:44:39:397397,-1,1,-4,-1,1,1,1,-2
17:44:39:398135,-1,1,-4,-1,1,1,1,-2
17:44:39:404142,-4,0,-2,3,-2,-1,-3,2
17:44:39:411672,1,-1,2,-2,0,-2,1,-3
17:44:39:419212,1,-1,2,-2,0,-2,1,-3
17:44:39:426697,-3,1,-6,-1,-2,0,-5,-1
17:44:39:442984,-4,-4,1,2,-3,-1,2,-3
17:44:39:443800,-4,-4,1,2,-3,-1,2,-3
17:44:39:444596,3,0,5,5,4,2,5,-5
17:44:39:457391,3,1,-2,4,2,-1,-1,3
17:44:39:458175,3,1,-2,4,2,-1,-1,3
17:44:39:472329,-3,-1,9,-5,-5,-3,-4,2
17:44:39:473105,-1,0,-7,-5,-3,1,-5,4
17:44:39:479206,-1,0,-7,-5,-3,1,-5,4
17:44:39:486664,2,-5,-4,-8,1,-2,-2,-1
17:44:39:494818,-6,0,3,8,4,0,1,-4
17:44:39:495627,-6,0,3,8,4,0,1,-4
17:44:39:501647,1,-2,5,8,-2,-3,-2,0
17:44:39:525527,2,-3,-12,-7,-3,0,-4,-3
17:44:39:526322,2,-3,-12,-7,-3,0,-4,-3
17:44:39:527138,-5,-3,-1,-9,0,-2,2,-3
17:44:39:531625,-1,-1,1,3,-1,-1,-2,-1
17:44:39:539210,-1,-1,1,3,-1,-1,-2,-1
17:44:39:555532,-3,-1,0,-3,0,0,-2,2
17:44:39:556302,-1,-2,-8,-3,0,-3,-3,-2
17:44:39:557150,-1,-2,-8,-3,0,-3,-3,-2
17:44:39:561649,-3,-1,3,5,-3,-3,1,-1
17:44:39:577350,-2,-3,2,-8,0,-2,4,-3
17:44:39:578148,-2,-3,2,-8,0,-2,4,-3
17:44:39:584134,0,1,-5,-3,-4,-1,-5,-1
17:44:39:591641,-1,-1,-4,5,-4,1,-2,1
17:44:39:599215,-1,-1,-4,5,-4,1,-2,1
17:44:39:606649,-2,1,-8,-3,-4,-4,0,-4
17:44:39:614877,-1,1,1,-3,-2,-3,-4,-1
17:44:39:615667,-1,1,1,-3,-2,-3,-4,-1
17:44:39:621659,2,-1,-1,0,6,1,-6,0
17:44:39:637810,-1,1,-11,-5,1,3,1,-5
17:44:39:638629,-1,1,-11,-5,1,3,1,-5
17:44:39:644133,0,-5,4,-4,-6,-3,0,-6
17:44:39:651623,-3,-2,-1,3,6,1,-3,-1
17:44:39:668098,-3,-2,-1,3,6,1,-3,-1
17:44:39:668845,-2,-1,-8,1,0,-1,3,5
17:44:39:674888,1,-2,2,0,-9,-4,-2,-2
17:44:39:675698,1,-2,2,0,-9,-4,-2,-2
17:44:39:681631,-2,-7,-1,1,-1,-1,1,-5
17:44:39:697362,-4,-2,-3,-1,-5,-3,0,-2
17:44:39:698157,-4,-2,-3,-1,-5,-3,0,-2
17:44:39:704149,1,-2,-3,-1,-1,-2,-1,1
17:44:39:719863,2,2,2,-1,5,-2,1,-1
17:44:39:720675,2,2,2,-1,5,-2,1,-1
17:44:39:726690,1,-2,-3,-4,-4,0,-5,-3
17:44:39:734822,0,-1,0,-4,-1,2,0,0
17:44:39:735664,0,-1,0,-4,-1,2,0,0
17:44:39:749164,-1,2,4,-2,-3,1,-1,0
17:44:39:757380,0,-2,-5,-2,-3,2,-3,-1
17:44:39:758175,0,-2,-5,-2,-3,2,-3,-1
17:44:39:764185,0,2,7,-15,-3,-4,2,2
17:44:39:779822,0,1,-5,-3,-1,-3,1,-1
17:44:39:780633,0,1,-5,-3,-1,-3,1,-1
17:44:39:786680,-1,2,3,5,-1,0,-2,-3
17:44:39:795506,0,-4,2,1,0,-1,-1,-2
17:44:39:796321,0,-4,2,1,0,-1,-1,-2
17:44:39:801629,1,4,-5,2,3,4,1,-3
17:44:39:817373,1,-1,-4,-4,0,2,-5,-1
17:44:39:818176,1,-1,-4,-4,0,2,-5,-1
17:44:39:832301,-4,-3,-3,1,-5,-5,-3,1
17:44:39:833145,1,-1,2,-1,2,-1,4,-5
17:44:39:839241,1,-1,2,-1,2,-1,4,-5
17:44:39:846648,-1,-1,-8,-2,1,-3,2,-3
17:44:39:863040,-4,1,-1,4,-3,-3,-4,3
17:44:39:863853,-4,1,-1,4,-3,-3,-4,3
17:44:39:864650,-1,0,-2,0,1,3,-3,-1
17:44:39:877369,1,-3,4,0,-3,0,0,0
17:44:39:878265,1,-3,4,0,-3,0,0,0
17:44:39:884130,-3,-3,1,1,5,2,0,-1
17:44:39:891654,0,-1,0,1,0,-3,0,-4
17:44:39:899215,0,-1,0,1,0,-3,0,-4
17:44:39:915519,1,-2,1,3,1,-2,1,2
17:44:39:916363,-2,-7,0,-2,-5,-3,-5,-5
17:44:39:917164,-2,-7,0,-2,-5,-3,-5,-5
17:44:39:921638,1,0,0,2,-2,5,-3,-4
17:44:39:945496,-1,0,6,-6,0,-1,0,8
17:44:39:946313,-1,0,6,-6,0,-1,0,8
17:44:39:947147,-4,-13,-8,-11,-7,-4,-1,0
17:44:39:951716,0,5,0,1,1,1,1,-2
17:44:39:959202,0,5,0,1,1,1,1,-2
17:44:39:966637,-1,1,-1,4,4,0,2,0
17:44:39:974855,-2,-4,0,0,0,0,0,-1
17:44:39:975757,-2,-4,0,0,0,0,0,-1
17:44:39:981671,1,1,5,-1,1,2,1,-2
17:44:39:997836,-1,6,5,3,-3,-2,-3,-2
17:44:39:998639,-1,6,5,3,-3,-2,-3,-2
17:44:40:12414,-2,-2,-4,-6,-4,-5,-4,-1
17:44:40:13123,-1,0,-9,-7,2,0,2,2
17:44:40:19193,-1,0,-9,-7,2,0,2,2
17:44:40:26700,1,-2,-5,-3,-6,-4,-4,-4
17:44:40:34830,-3,-3,2,4,0,1,-1,-4
17:44:40:35638,-3,-3,2,4,0,1,-1,-4
17:44:40:41649,2,4,0,4,2,0,3,2
17:44:40:57855,-1,-6,1,-7,1,-4,-1,0
17:44:40:58656,-1,-6,1,-7,1,-4,-1,0
17:44:40:72367,0,2,7,-1,4,0,1,-1
17:44:40:73151,-3,1,-1,1,3,1,2,0
17:44:40:79265,-3,1,-1,1,3,1,2,0
17:44:40:86744,0,1,1,4,-5,-1,-5,0
17:44:40:94860,-1,-3,-12,1,0,1,-4,0
17:44:40:95635,-1,-3,-12,1,0,1,-4,0
17:44:40:101621,-6,-2,0,-2,-1,1,0,-5
17:44:40:125538,-1,-1,-5,0,-1,-3,-1,-5
17:44:40:126376,-1,-1,-5,0,-1,-3,-1,-5
17:44:40:127173,5,-2,-9,-1,2,2,-1,2
17:44:40:131682,0,1,-1,3,-1,-3,3,-3
17:44:40:139259,0,1,-1,3,-1,-3,3,-3
17:44:40:156157,-6,1,3,-4,-7,-2,-1,0
17:44:40:156931,0,-4,0,4,2,-1,-4,4
17:44:40:157752,0,-4,0,4,2,-1,-4,4
17:44:40:161648,1,0,-1,3,8,-2,-3,0
17:44:40:177383,-3,-3,-5,-7,-5,-2,-1,-3
17:44:40:178181,-3,-3,-5,-7,-5,-2,-1,-3
17:44:40:184163,-2,1,16,4,2,3,-5,-3
17:44:40:191656,1,0,0,-9,-4,1,2,2
17:44:40:207445,1,0,0,-9,-4,1,2,2
17:44:40:208155,-5,-4,-10,-1,-10,-7,8,-6
17:44:40:214874,2,0,4,1,-2,-2,0,0
17:44:40:215688,2,0,4,1,-2,-2,0,0
17:44:40:221633,3,-2,0,-3,-4,-6,-2,0
17:44:40:237358,-2,2,-2,0,4,1,-1,-1
17:44:40:238145,-2,2,-2,0,4,1,-1,-1
17:44:40:244155,-2,1,-8,-10,-4,1,-4,4
17:44:40:251653,0,0,3,1,-3,-1,-4,-2
17:44:40:259235,0,0,3,1,-3,-1,-4,-2
17:44:40:266658,-1,-1,8,5,3,2,-2,-1
17:44:40:274900,-2,-1,-8,-3,-1,-4,-2,-4
17:44:40:275688,-2,-1,-8,-3,-1,-4,-2,-4
17:44:40:281684,4,1,-5,-9,-3,0,2,-1
17:44:40:297384,0,0,6,2,2,-2,-3,-2
17:44:40:298318,0,0,6,2,2,-2,-3,-2
17:44:40:304154,-1,-3,1,-1,0,2,0,2
17:44:40:319849,-5,-5,-5,5,-2,0,1,-3
17:44:40:320805,-5,-5,-5,5,-2,0,1,-3
17:44:40:335512,-2,0,-3,-1,5,1,5,-2
17:44:40:336313,1,-3,-9,-9,-7,-4,-2,1
17:44:40:337142,1,-3,-9,-9,-7,-4,-2,1
17:44:40:357999,-1,1,7,3,3,0,-4,-3
17:44:40:358813,1,0,-7,4,-3,-6,-4,-4
17:44:40:359637,1,0,-7,4,-3,-6,-4,-4
17:44:40:364177,2,-2,-15,-2,1,-1,0,-3
17:44:40:379895,-1,0,15,4,1,6,-1,-1
17:44:40:380708,-1,0,15,4,1,6,-1,-1
17:44:40:386737,-4,-4,-5,-9,-3,-4,1,-4
17:44:40:395346,-2,-2,-4,-4,-1,-1,-1,-1
17:44:40:401724,-2,-2,-4,-4,-1,-1,-1,-1
17:44:40:409171,-1,1,-5,2,-5,-2,-4,1
17:44:40:417339,0,-3,-4,-5,-5,-2,-1,-2
17:44:40:418164,0,-3,-4,-5,-5,-2,-1,-2
17:44:40:424208,0,0,-9,0,-2,-2,2,-3
17:44:40:439838,0,0,-9,0,-2,-2,2,-3
17:44:40:440649,1,-1,4,-3,1,3,0,2
17:44:40:455520,-2,-3,5,-1,1,1,-2,0
17:44:40:456364,-2,-3,5,-1,1,1,-2,0
17:44:40:457142,-6,3,6,0,-1,1,-3,1
17:44:40:469167,3,-2,-1,1,-2,-3,-5,-1
17:44:40:477805,3,-2,-1,1,-2,-3,-5,-1
17:44:40:484833,-1,-4,-15,-1,1,-1,3,-2
17:44:40:485587,-6,-2,-5,-12,-4,-8,-4,-1
17:44:40:499875,-6,-2,-5,-12,-4,-8,-4,-1
17:44:40:500645,-2,0,-9,-3,-4,1,-3,-2
17:44:40:506646,0,-5,-10,-1,-1,2,1,0
17:44:40:514975,0,-5,-10,-1,-1,2,1,0
17:44:40:515680,-2,1,0,0,2,-1,3,3
17:44:40:529155,0,-3,6,8,7,3,-1,4
17:44:40:537378,0,-3,6,8,7,3,-1,4
17:44:40:538155,0,-1,1,-4,0,-2,-4,-1
17:44:40:544157,1,0,2,-4,-3,-3,-2,2
17:44:40:559891,1,0,2,-4,-3,-3,-2,2
17:44:40:560667,-3,-1,6,-1,-4,-2,-1,-3
17:44:40:566652,2,-1,-4,-3,-4,-2,3,-5
17:44:40:574886,2,-1,-4,-3,-4,-2,3,-5
17:44:40:575660,0,-2,2,3,0,-1,-3,3
17:44:40:589604,-4,1,3,12,6,-1,-1,-4
17:44:40:597359,-4,1,3,12,6,-1,-1,-4
17:44:40:598136,2,4,4,-4,1,0,4,-3
17:44:40:604139,2,0,1,-2,0,2,-2,-1
17:44:40:619869,2,0,1,-2,0,2,-2,-1
17:44:40:620681,-1,-3,-4,2,-2,-6,-4,-2
17:44:40:635491,-4,2,5,0,-4,-1,0,-3
17:44:40:636313,-4,2,5,0,-4,-1,0,-3
17:44:40:637091,-2,0,-1,-2,-5,4,-3,8
17:44:40:649173,-2,-2,-3,-1,0,-2,-3,-2
17:44:40:657344,-2,-2,-3,-1,0,-2,-3,-2
17:44:40:658141,-1,-1,-4,-3,4,-3,3,0
17:44:40:671678,-1,-3,-7,-6,-1,0,-1,-2
17:44:40:679886,-1,-3,-7,-6,-1,0,-1,-2
17:44:40:680664,-4,1,7,4,1,-2,-5,-3
17:44:40:686660,1,2,-4,-2,1,2,1,-4
17:44:40:694900,1,2,-4,-2,1,2,1,-4
17:44:40:695619,-2,-4,2,0,-2,-1,0,-2
17:44:40:709145,2,-3,-11,-8,-3,-1,-2,0
17:44:40:717412,2,-3,-11,-8,-3,-1,-2,0
17:44:40:718183,1,0,2,4,-1,-5,0,0
17:44:40:724168,-5,-3,0,-4,-6,-6,-3,-1
17:44:40:739883,-5,-3,0,-4,-6,-6,-3,-1
17:44:40:740665,2,0,6,0,-4,-1,-1,-3
17:44:40:746620,3,-2,1,0,-2,-2,1,-1
17:44:40:755579,3,-2,1,0,-2,-2,1,-1
17:44:40:756332,-3,-4,-7,-3,0,2,-1,-2
17:44:40:769171,-5,-1,-2,3,3,1,-2,-2
17:44:40:777364,-5,-1,-2,3,3,1,-2,-2
17:44:40:778193,2,3,4,-3,-2,-2,-2,-2
17:44:40:784172,1,-2,-10,-2,-6,-3,-2,-1
17:44:40:799878,1,-2,-10,-2,-6,-3,-2,-1
17:44:40:800684,-1,-4,-4,1,-2,2,4,2
17:44:40:806713,-2,2,7,1,0,0,1,-1
17:44:40:814865,-2,2,7,1,0,0,1,-1
17:44:40:815761,0,-5,4,0,-6,-6,1,-8
17:44:40:829155,-4,-2,-3,-11,-7,-2,-2,-1
17:44:40:845546,-4,-2,-3,-11,-7,-2,-2,-1
17:44:40:846314,-1,-1,-8,-8,1,0,-2,2
17:44:40:847140,-2,2,1,3,0,0,1,-2
17:44:40:868112,-2,2,1,3,0,0,1,-2
17:44:40:868793,-3,-1,-6,-8,2,1,-2,1
17:44:40:869798,-1,-3,4,4,2,-1,-4,-1
17:44:40:874855,-1,-3,4,4,2,-1,-4,-1
17:44:40:875656,0,-1,-8,-4,1,-1,3,-1
17:44:40:889171,1,0,3,4,0,-2,-2,2
17:44:40:897392,1,0,3,4,0,-2,-2,2
17:44:40:898184,-1,-2,-2,9,8,4,-2,-3
17:44:40:911665,-1,2,11,5,3,-2,0,0
17:44:40:919887,-1,2,11,5,3,-2,0,0
17:44:40:920693,-1,-1,-2,0,-4,0,-1,3
17:44:40:926730,4,1,3,1,-2,-2,-1,0
17:44:40:934811,4,1,3,1,-2,-2,-1,0
17:44:40:935631,-4,-7,-23,-3,1,1,-2,0
17:44:40:949163,-2,-3,-7,-2,1,1,-1,-3
17:44:40:957387,-2,-3,-7,-2,1,1,-1,-3
17:44:40:958176,0,1,2,-7,-7,-5,-2,0
17:44:40:964148,-2,-1,0,3,2,-3,-5,-2
17:44:40:979866,-2,-1,0,3,2,-3,-5,-2
17:44:40:980661,-1,-3,-7,-12,0,0,1,-3
17:44:40:986646,-3,-3,10,4,-5,-2,3,-1
17:44:40:994898,-3,-3,10,4,-5,-2,3,-1
17:44:40:995666,1,-1,-2,4,4,0,-1,1
17:44:41:9136,-5,-6,-10,-7,-4,0,-1,1
17:44:41:17642,-5,-6,-10,-7,-4,0,-1,1
17:44:41:18143,-1,3,7,-2,0,-2,-6,-2
17:44:41:24158,-1,1,-2,0,-3,0,1,-1
17:44:41:39897,-1,1,-2,0,-3,0,1,-1
17:44:41:40670,0,0,-7,-1,1,-3,-1,1
17:44:41:46657,3,-1,-2,-8,1,0,-2,-5
17:44:41:54871,3,-1,-2,-8,1,0,-2,-5
17:44:41:55670,-2,-3,-4,-9,-9,-4,-4,-7
17:44:41:69261,-1,7,-7,-3,2,2,-2,1
17:44:41:77392,-1,7,-7,-3,2,2,-2,1
17:44:41:78156,2,-4,14,4,0,1,1,3
17:44:41:84138,-2,-6,-3,-3,3,1,0,-3
17:44:41:99855,-2,-6,-3,-3,3,1,0,-3
17:44:41:100659,-6,4,9,5,-5,-6,-1,1
17:44:41:106651,-2,0,-7,-1,0,-3,-1,0
17:44:41:122365,-2,0,-7,-1,0,-3,-1,0
17:44:41:123191,1,-3,-1,-4,-3,-3,1,-3
17:44:41:129124,-1,-5,-15,-12,-3,0,0,3
17:44:41:137801,-1,-5,-15,-12,-3,0,0,3
17:44:41:144805,-4,0,6,-2,-2,1,-3,-3
17:44:41:145618,-4,-3,2,3,-1,-4,-4,-4
17:44:41:159870,-4,-3,2,3,-1,-4,-4,-4
17:44:41:160672,2,-3,-12,-2,0,0,2,-3
17:44:41:166611,0,-1,1,4,-5,0,-3,1
17:44:41:174923,0,-1,1,4,-5,0,-3,1
17:44:41:175684,0,-2,1,2,-1,2,0,4
17:44:41:189179,4,0,7,-6,-5,-5,1,-3
17:44:41:197353,4,0,7,-6,-5,-5,1,-3
17:44:41:198169,-1,2,-2,3,1,-3,0,-2
17:44:41:204126,-3,1,17,4,-3,-3,3,-2
17:44:41:219876,-3,1,17,4,-3,-3,3,-2
17:44:41:220644,-4,-3,0,-3,-5,-3,-3,-3
17:44:41:226685,-2,-1,-2,-3,5,1,0,2
17:44:41:234864,-2,-1,-2,-3,5,1,0,2
17:44:41:235649,1,-1,-1,4,-1,-2,2,0
17:44:41:249190,-1,-3,-7,-2,-2,1,0,2
17:44:41:257366,-1,-3,-7,-2,-2,1,0,2
17:44:41:258152,2,2,3,-3,5,3,-1,5
17:44:41:272129,-2,1,-5,2,-1,0,-2,-2
17:44:41:279840,-2,1,-5,2,-1,0,-2,-2
17:44:41:280635,-1,1,-5,0,-2,-5,1,0
17:44:41:286692,0,-3,-14,-5,-1,0,-3,-1
17:44:41:294215,0,-3,-14,-5,-1,0,-3,-1
17:44:41:301627,0,2,-5,-4,3,2,-4,1
17:44:41:309136,1,-7,0,10,3,-4,2,-3
17:44:41:317353,1,-7,0,10,3,-4,2,-3
17:44:41:318154,-1,-2,-8,-10,-1,0,-3,-7
17:44:41:331680,-1,4,-3,-2,-4,-2,0,1
17:44:41:339869,-1,4,-3,-2,-4,-2,0,1
17:44:41:340691,-2,-2,-2,0,-2,-4,1,-1
17:44:41:346621,0,0,0,0,2,3,-1,-1
17:44:41:354190,0,0,0,0,2,3,-1,-1
17:44:41:361641,-4,-3,0,5,0,-1,-4,-1
17:44:41:369125,2,1,11,6,-3,0,5,-1
17:44:41:377385,2,1,11,6,-3,0,5,-1
17:44:41:378170,-1,0,-13,1,4,0,-2,-6
17:44:41:391648,-3,-1,4,2,-5,-5,-3,0
17:44:41:399871,-3,-1,4,2,-5,-5,-3,0
17:44:41:400819,1,1,11,4,-3,1,-2,-1
17:44:41:406634,-1,-4,-9,1,4,2,-2,-3
17:44:41:414278,-1,-4,-9,1,4,2,-2,-3
17:44:41:421633,-3,-4,-12,-7,-3,-2,1,-1
17:44:41:429186,-1,-1,7,-8,-5,-1,-5,-1
17:44:41:437427,-1,-1,7,-8,-5,-1,-5,-1
17:44:41:438240,1,-3,6,1,-1,-2,8,-1
17:44:41:451656,-1,5,0,-2,-1,-2,0,1
17:44:41:459906,-1,5,0,-2,-1,-2,0,1
17:44:41:460679,1,1,-9,-3,-3,-1,-4,-1
17:44:41:466630,0,-2,3,6,3,1,-1,0
17:44:41:474243,0,-2,3,6,3,1,-1,0
17:44:41:481656,-5,-4,2,-3,-3,0,-4,-3
17:44:41:489152,-2,2,-5,-2,-1,-3,-2,0
17:44:41:497370,-2,2,-5,-2,-1,-3,-2,0
17:44:41:498172,-3,0,-1,1,0,-2,4,2
17:44:41:511671,-4,-3,-6,-6,-3,-2,-1,-4
17:44:41:519884,-4,-3,-6,-6,-3,-2,-1,-4
17:44:41:520713,3,0,-18,0,1,2,-1,1
17:44:41:526644,2,-1,-11,-6,-2,-3,-5,0
17:44:41:534184,2,-1,-11,-6,-2,-3,-5,0
17:44:41:541677,-2,-3,3,4,0,-4,-3,0
17:44:41:549199,-3,-1,6,1,-5,-1,-1,2
17:44:41:557354,-3,-1,6,1,-5,-1,-1,2
17:44:41:558125,-2,3,3,-4,-5,-1,-2,-4
17:44:41:571670,0,-3,-1,0,4,0,2,-3
17:44:41:579887,0,-3,-1,0,4,0,2,-3
17:44:41:580637,2,-4,-3,-6,0,-4,-1,-2
17:44:41:594831,-2,-2,1,2,-4,-1,0,-3
17:44:41:595647,-2,-2,1,2,-4,-1,0,-3
17:44:41:601662,-2,-4,1,4,-1,1,-2,2
17:44:41:609162,0,-1,1,1,3,-3,-1,3
17:44:41:617368,0,-1,1,1,3,-3,-1,3
17:44:41:618152,-1,0,0,-4,-7,-1,-2,-1
17:44:41:631652,1,0,4,4,3,3,-1,-1
17:44:41:639963,1,0,4,4,3,3,-1,-1
17:44:41:640626,2,0,5,2,-1,2,-5,-3
17:44:41:646655,-2,-5,-6,-3,-2,-1,-2,3
17:44:41:654252,-2,-5,-6,-3,-2,-1,-2,3
17:44:41:661619,-4,-1,5,-4,-4,-5,1,0
17:44:41:669120,0,3,3,-4,-1,-3,3,-4
17:44:41:677356,0,3,3,-4,-1,-3,3,-4
17:44:41:678221,-1,0,0,4,3,1,1,-3
17:44:41:700562,2,-1,-2,-7,-2,1,0,1
17:44:41:701352,2,-1,-2,-7,-2,1,0,1
17:44:41:702152,-4,-6,2,-4,-2,-3,-7,-5
17:44:41:706714,-1,-2,4,-2,-2,-3,-1,3
17:44:41:714199,-1,-2,4,-2,-2,-3,-1,3
17:44:41:721684,0,0,15,2,3,4,-1,-4
17:44:41:729167,1,-3,-11,-3,0,1,-4,-1
17:44:41:737368,1,-3,-11,-3,0,1,-4,-1
17:44:41:738141,1,2,-5,-1,-1,-1,1,2
17:44:41:751693,-3,0,0,-5,-3,1,-1,-2
17:44:41:759853,-3,0,0,-5,-3,1,-1,-2
17:44:41:760629,-1,-4,0,-1,4,2,2,1
17:44:41:766678,-2,-3,-9,6,-3,-2,4,-3
17:44:41:774187,-2,-3,-9,6,-3,-2,4,-3
17:44:41:781624,-3,-2,6,7,-5,-3,-2,-2
17:44:41:789126,-3,-2,3,3,5,4,-1,-2
17:44:41:797373,-3,-2,3,3,5,4,-1,-2
17:44:41:798149,3,-4,4,-1,-4,-4,-1,0
17:44:41:811699,1,-1,-5,-6,1,1,-2,-1
17:44:41:820637,1,-1,-5,-6,1,1,-2,-1
17:44:41:821375,-3,-1,-4,-1,-1,0,-4,3
17:44:41:826648,-3,3,-1,1,-7,-5,-4,1
17:44:41:834219,-3,3,-1,1,-7,-5,-4,1
17:44:41:841688,2,-1,-1,-1,4,-3,2,-4
17:44:41:849128,-2,-4,3,1,1,-1,-2,-3
17:44:41:857373,-2,-4,3,1,1,-1,-2,-3
17:44:41:858161,-2,1,-2,1,0,2,1,-1
17:44:41:871636,-2,-5,-2,-6,-1,0,-3,0
17:44:41:879844,-2,-5,-2,-6,-1,0,-3,0
17:44:41:880660,0,-1,-3,-3,0,0,-2,2
17:44:41:886653,-1,3,0,0,-4,-4,0,0
17:44:41:894196,-1,3,0,0,-4,-4,0,0
17:44:41:901660,-3,-5,-6,-4,-4,0,-5,-5
17:44:41:909158,-1,0,9,2,-2,1,-3,-5
17:44:41:917409,-1,0,9,2,-2,1,-3,-5
17:44:41:918202,-3,0,-6,-2,1,-2,2,-3
17:44:41:931628,1,-3,-3,1,-4,-1,-1,1
17:44:41:939978,1,-3,-3,1,-4,-1,-1,1
17:44:41:940687,1,1,-4,-5,-5,1,1,2
17:44:41:946668,-2,-1,-4,-7,-1,1,3,-1
17:44:41:954243,-2,-1,-4,-7,-1,1,3,-1
17:44:41:961665,-3,-2,-3,-4,-1,-2,-2,1
17:44:41:969184,2,0,-2,2,2,-2,-3,-3
17:44:41:977333,2,0,-2,2,2,-2,-3,-3
17:44:41:978169,1,0,-2,1,0,-2,-5,0
17:44:41:991683,0,-3,-1,-2,-2,-4,-3,-5
17:44:41:999836,0,-3,-1,-2,-2,-4,-3,-5
17:44:42:621,-2,3,3,-2,-4,1,6,6
17:44:42:6724,-3,-2,-4,-2,-1,-4,-6,-4
17:44:42:14183,-3,-2,-4,-2,-1,-4,-6,-4
17:44:42:21693,-1,0,-3,0,-1,-3,-4,-7
17:44:42:29187,1,1,-2,-1,0,3,5,12
17:44:42:37366,1,1,-2,-1,0,3,5,12
17:44:42:38143,-2,-2,-2,-5,1,1,-13,-17
17:44:42:51661,-3,-2,4,13,3,2,-5,-11
17:44:42:59828,-3,-2,4,13,3,2,-5,-11
17:44:42:60646,1,-4,-5,0,1,4,20,25
17:44:42:66690,10,0,-1,-4,-3,-3,-7,8
17:44:42:74199,10,0,-1,-4,-3,-3,-7,8
17:44:42:81617,3,-3,-3,-1,-4,-7,-1,1
17:44:42:89166,5,-3,7,0,-1,2,12,2
17:44:42:104846,5,-3,7,0,-1,2,12,2
17:44:42:105745,-14,-3,2,-1,0,2,-9,-6
17:44:42:111672,-3,-6,-5,-4,-2,-7,-25,-8
17:44:42:119859,-3,-6,-5,-4,-2,-7,-25,-8
17:44:42:120650,13,5,-1,2,3,5,7,-7
17:44:42:126666,-1,22,0,-5,-2,-3,3,-5
17:44:42:134236,-1,22,0,-5,-2,-3,3,-5
17:44:42:141641,-1,6,4,1,-3,0,2,3
17:44:42:149143,-5,-7,-5,-4,-2,-1,3,-2
17:44:42:157459,-5,-7,-5,-4,-2,-1,3,-2
17:44:42:158178,-6,1,-2,-2,-4,-3,-4,0
17:44:42:171643,-2,-4,-7,1,-1,-1,-2,1
17:44:42:179887,-2,-4,-7,1,-1,-1,-2,1
17:44:42:180660,0,-4,0,-4,-2,-7,-8,-19
17:44:42:186634,2,7,3,-2,-2,1,4,5
17:44:42:194263,2,7,3,-2,-2,1,4,5
17:44:42:201657,-1,7,5,6,1,0,1,5
17:44:42:209151,-2,-4,-7,-9,0,-4,1,1
17:44:42:216761,-2,-4,-7,-9,0,-4,1,1
17:44:42:224156,-1,-6,-7,-24,-9,1,-1,-5
17:44:42:231670,-3,-6,-1,9,-3,-3,-2,-3
17:44:42:239853,-3,-6,-1,9,-3,-3,-2,-3
17:44:42:240635,-4,-7,-1,8,1,-1,-1,1
17:44:42:254892,-6,-6,2,-5,-4,-1,3,-4
17:44:42:255695,-6,-6,2,-5,-4,-1,3,-4
17:44:42:261648,1,3,1,7,0,-3,-3,-2
17:44:42:269171,0,-2,2,10,1,-3,3,1
17:44:42:276682,0,-2,2,10,1,-3,3,1
17:44:42:284179,-4,-7,-3,-2,-6,-4,2,0
17:44:42:291675,-3,-4,-1,-1,-1,1,5,3
17:44:42:299872,-3,-4,-1,-1,-1,1,5,3
17:44:42:300647,0,-2,1,13,3,0,-13,-4
17:44:42:314937,-2,0,-6,-2,0,-2,-3,-1
17:44:42:315671,-2,0,-6,-2,0,-2,-3,-1
17:44:42:321674,-3,1,1,-2,-2,-1,6,7
17:44:42:329173,1,-2,0,-7,-1,2,-1,-3
17:44:42:336697,1,-2,0,-7,-1,2,-1,-3
17:44:42:344127,-2,-2,-5,-4,1,0,-1,-4
17:44:42:360497,0,-9,-1,-6,-2,-4,-6,-8
17:44:42:361294,0,-9,-1,-6,-2,-4,-6,-8
17:44:42:362117,-3,-2,-1,-4,-2,-4,-1,0
17:44:42:374884,1,1,-3,1,1,5,3,2
17:44:42:375654,1,1,-3,1,1,5,3,2
17:44:42:381692,0,-1,0,-2,-1,2,-2,0
17:44:42:389183,-7,0,-2,-4,-2,-2,-7,-9
17:44:42:396672,-7,0,-2,-4,-2,-2,-7,-9
17:44:42:404136,1,0,-3,-4,1,0,-1,-2
17:44:42:411646,-2,-1,3,-1,0,0,3,4
17:44:42:419855,-2,-1,3,-1,0,0,3,4
17:44:42:420646,0,-1,-2,-3,-1,4,2,-9
17:44:42:434836,1,-2,-7,-3,-2,-2,-3,-4
17:44:42:435650,1,-2,-7,-3,-2,-2,-3,-4
17:44:42:441623,1,-4,5,1,0,-2,-3,6
17:44:42:449121,-2,-3,-4,-1,-2,0,-4,0
17:44:42:456746,-2,-3,-4,-1,-2,0,-4,0
17:44:42:464192,1,2,-4,-4,-1,-2,3,-1
17:44:42:471652,-5,0,2,0,-1,-1,-1,2
17:44:42:479928,-5,0,2,0,-1,-1,-1,2
17:44:42:480689,0,-3,-2,-3,-1,-2,-5,-1
17:44:42:494849,5,1,0,-2,0,-3,5,4
17:44:42:495687,5,1,0,-2,0,-3,5,4
17:44:42:501639,-1,-3,3,2,-2,-1,0,0
17:44:42:509124,-10,1,-6,-2,-1,-1,2,-3
17:44:42:516697,-10,1,-6,-2,-1,-1,2,-3
17:44:42:524162,0,1,10,-1,-4,-2,2,-3
17:44:42:531683,-1,-2,-3,-5,-1,-2,-2,-2
17:44:42:539916,-1,-2,-3,-5,-1,-2,-2,-2
17:44:42:540733,4,-3,-6,1,3,0,-1,13
17:44:42:555509,2,-1,1,0,-1,-4,-3,-3
17:44:42:556327,2,-1,1,0,-1,-4,-3,-3
17:44:42:561659,-3,-2,-2,-1,1,0,-4,-2
17:44:42:569149,-1,-3,-2,2,0,0,0,0
17:44:42:576732,-1,-3,-2,2,0,0,0,0
17:44:42:584167,7,2,-3,-1,-1,-1,1,-6
17:44:42:591722,-7,-1,6,0,-2,2,-1,12
17:44:42:599837,-7,-1,6,0,-2,2,-1,12
17:44:42:600605,5,-2,-19,-3,0,-1,1,15
17:44:42:614804,13,5,21,6,-3,-2,-3,-9
17:44:42:615721,13,5,21,6,-3,-2,-3,-9
17:44:42:621655,-15,-3,14,-1,-3,-7,-1,7
17:44:42:629170,-20,0,23,9,2,1,0,9
17:44:42:636680,-20,0,23,9,2,1,0,9
17:44:42:644210,-23,-2,-13,-11,-1,-3,-4,-18
17:44:42:651696,-12,0,20,8,-2,1,0,-19
17:44:42:659920,-12,0,20,8,-2,1,0,-19
17:44:42:660723,5,-1,-12,-2,1,3,0,-13
17:44:42:674842,-6,5,-36,-14,-2,-2,3,-3
17:44:42:675662,-6,5,-36,-14,-2,-2,3,-3
17:44:42:681715,-10,-2,-3,-2,-4,-1,-1,13
17:44:42:689214,20,-4,-23,0,2,-1,3,18
17:44:42:696757,20,-4,-23,0,2,-1,3,18
17:44:42:704138,-13,1,3,6,0,0,-1,-12
17:44:42:711616,-16,-1,0,-13,-5,-3,-4,-10
17:44:42:719899,-16,-1,0,-13,-5,-3,-4,-10
17:44:42:720677,9,-6,12,2,-3,-3,-2,7
17:44:42:734853,4,-1,16,1,1,-2,-1,-24
17:44:42:735660,4,-1,16,1,1,-2,-1,-24
17:44:42:741633,30,1,-12,-2,-1,0,-5,2
17:44:42:749152,13,-3,-17,-13,-3,-2,-2,8
17:44:42:756728,13,-3,-17,-13,-3,-2,-2,8
17:44:42:764141,-36,-10,-5,0,0,0,-1,10
17:44:42:771737,-8,1,16,3,2,-2,6,-10
17:44:42:779859,-8,1,16,3,2,-2,6,-10
17:44:42:780680,4,-3,-1,-2,-2,-6,-7,1
17:44:42:794892,-17,-4,-25,-4,0,2,-3,5
17:44:42:795686,-17,-4,-25,-4,0,2,-3,5
17:44:42:801646,3,6,-3,0,0,1,3,-5
17:44:42:809128,-6,3,8,0,-2,-3,-1,11
17:44:42:816762,-6,3,8,0,-2,-3,-1,11
17:44:42:824172,-3,-5,3,1,-1,2,2,-4
17:44:42:831670,24,4,-6,1,1,1,2,10
17:44:42:839900,24,4,-6,1,1,1,2,10
17:44:42:840781,5,0,6,2,1,-2,-2,-4
17:44:42:854889,-2,-3,5,7,-1,0,-7,1
17:44:42:855688,-2,-3,5,7,-1,0,-7,1
17:44:42:861654,3,6,-5,-3,-1,-3,0,-5
17:44:42:869175,15,-1,-22,-4,-1,-1,-4,-4
17:44:42:876741,15,-1,-22,-4,-1,-1,-4,-4
17:44:42:884181,-2,-1,3,4,-3,-2,-2,9
17:44:42:891662,-1,-3,-2,-2,-2,-1,-1,-5
17:44:42:899839,-1,-3,-2,-2,-2,-1,-1,-5
17:44:42:900650,6,0,-12,-2,-2,0,1,-3
17:44:42:914842,-31,-4,6,-3,-3,-2,0,-2
17:44:42:915653,-31,-4,6,-3,-3,-2,0,-2
17:44:42:921648,1,1,9,-5,0,0,2,-10
17:44:42:929165,1,2,1,4,0,-1,-1,-4
17:44:42:936684,1,2,1,4,0,-1,-1,-4
17:44:42:944128,-6,1,-5,-5,1,1,-2,4
17:44:42:951707,-7,0,2,-1,-3,-4,-4,14
17:44:42:960270,-7,0,2,-1,-3,-4,-4,14
17:44:42:966697,-3,-1,-15,-1,0,-2,-2,-2
17:44:42:974858,9,-1,-2,0,2,-1,0,-2
17:44:42:975695,9,-1,-2,0,2,-1,0,-2
17:44:42:981651,-5,1,-2,1,-1,0,0,-12
17:44:42:989139,-1,-4,-7,1,-1,2,-1,-5
17:44:42:996725,-1,-4,-7,1,-1,2,-1,-5
17:44:43:4236,15,-3,24,-1,-4,-1,-1,-1
17:44:43:11653,-4,-4,-9,-5,-1,-1,-2,0
17:44:43:19952,-4,-4,-9,-5,-1,-1,-2,0
17:44:43:20673,8,-2,12,3,1,0,0,5
17:44:43:34883,-20,0,4,-3,-2,2,-3,4
17:44:43:35676,-20,0,4,-3,-2,2,-3,4
17:44:43:41649,4,-5,8,0,-1,-4,4,-2
17:44:43:49214,0,1,2,-2,-2,-2,0,-3
17:44:43:56720,0,1,2,-2,-2,-2,0,-3
17:44:43:64169,-10,-1,4,-1,-2,-2,-6,-6
17:44:43:71677,12,-2,4,-3,-1,-2,0,-6
17:44:43:87376,12,-2,4,-3,-1,-2,0,-6
17:44:43:88198,3,0,-4,3,1,2,-2,-5
17:44:43:94840,8,1,-4,2,0,-1,0,-2
17:44:43:95678,8,1,-4,2,0,-1,0,-2
17:44:43:101677,-1,2,-10,-1,-1,-2,-3,-19
17:44:43:109145,39,1,5,3,1,0,-2,-3
17:44:43:116706,39,1,5,3,1,0,-2,-3
17:44:43:124156,-9,-5,-3,-6,-2,0,0,3
17:44:43:131702,-28,-4,-1,0,0,-3,-2,-7
17:44:43:139834,-28,-4,-1,0,0,-3,-2,-7
17:44:43:140687,-1,-4,-28,-2,-4,-2,-1,4
17:44:43:154820,-3,-2,28,5,-2,0,1,6
17:44:43:155626,-3,-2,28,5,-2,0,1,6
17:44:43:161688,-10,0,-3,-3,-1,-1,-1,4
17:44:43:177335,-18,-3,-14,-6,-1,-2,-4,-3
17:44:43:178135,-18,-3,-14,-6,-1,-2,-4,-3
17:44:43:184183,-4,1,1,-2,-2,-2,-2,-4
17:44:43:191674,-4,-2,1,-3,0,0,-2,-9
17:44:43:199204,-4,-2,1,-3,0,0,-2,-9
17:44:43:206688,-2,-4,-27,-4,-2,-2,0,6
17:44:43:214868,-3,-1,-17,-3,-1,-1,4,-2
17:44:43:215674,-3,-1,-17,-3,-1,-1,4,-2
17:44:43:221639,-11,1,-1,2,0,-4,1,-8
17:44:43:237336,-4,1,-10,-2,-5,-2,-5,9
17:44:43:238196,-4,1,-10,-2,-5,-2,-5,9
17:44:43:244133,23,0,15,-2,-1,2,-2,0
17:44:43:251661,39,1,-3,-3,-2,0,-2,-5
17:44:43:259206,39,1,-3,-3,-2,0,-2,-5
17:44:43:266844,1,-2,6,2,0,-2,-1,-3
17:44:43:274840,9,1,15,5,4,-4,5,-4
17:44:43:275726,9,1,15,5,4,-4,5,-4
17:44:43:281714,-24,-4,-11,-4,-1,1,4,1
17:44:43:297338,1,1,-11,-4,-5,0,-3,0
17:44:43:298154,1,1,-11,-4,-5,0,-3,0
17:44:43:304196,-10,4,-7,-1,-3,0,-4,-4
17:44:43:311650,-26,-2,2,5,-1,-1,-4,4
17:44:43:319217,-26,-2,2,5,-1,-1,-4,4
17:44:43:326633,12,1,4,-1,0,-3,0,4
17:44:43:334858,2,-3,-10,-8,-6,0,0,1
17:44:43:335701,2,-3,-10,-8,-6,0,0,1
17:44:43:341727,-11,0,8,1,-4,-1,-4,-1
17:44:43:357341,3,1,-7,-6,0,-4,3,6
17:44:43:358165,3,1,-7,-6,0,-4,3,6
17:44:43:364141,27,0,11,4,3,0,-1,-3
17:44:43:371643,8,-5,-1,-2,2,-1,-2,-1
17:44:43:379234,8,-5,-1,-2,2,-1,-2,-1
17:44:43:386674,-13,0,3,-2,0,0,-4,0
17:44:43:394822,-21,-9,-8,-8,-3,-2,-2,-17
17:44:43:395622,-21,-9,-8,-8,-3,-2,-2,-17
17:44:43:401695,-26,-5,-11,-4,-4,-3,3,-11
17:44:43:417385,-3,-1,14,4,-2,3,-2,5
17:44:43:418207,-3,-1,14,4,-2,3,-2,5
17:44:43:424168,12,1,-2,-1,-2,-1,-2,11
17:44:43:431692,40,2,6,-1,-1,-3,0,-6
17:44:43:439228,40,2,6,-1,-1,-3,0,-6
17:44:43:446663,-7,3,10,3,0,-3,-2,-8
17:44:43:454811,1,-2,11,8,-2,-1,-3,-1
17:44:43:455683,1,-2,11,8,-2,-1,-3,-1
17:44:43:461673,15,20,4,-4,0,1,1,-2
17:44:43:477344,-39,1,-7,-2,-1,0,0,-8
17:44:43:478139,-39,1,-7,-2,-1,0,0,-8
17:44:43:484152,0,-6,-5,-1,2,2,0,-5
17:44:43:491773,-26,1,-12,-4,1,-1,1,-7
17:44:43:499182,-26,1,-12,-4,1,-1,1,-7
17:44:43:506619,-3,-18,-3,3,-2,-3,-1,18
17:44:43:514841,19,-7,-12,-4,-3,1,-1,-4
17:44:43:515654,19,-7,-12,-4,-3,1,-1,-4
17:44:43:521640,-6,-6,-19,-8,-3,2,0,5
17:44:43:537348,-6,3,18,5,-1,-3,0,24
17:44:43:538165,-6,3,18,5,-1,-3,0,24
17:44:43:544125,4,13,15,1,0,-2,1,-11
17:44:43:551657,-5,11,5,0,0,-1,6,8
17:44:43:559184,-5,11,5,0,0,-1,6,8
17:44:43:566631,-17,9,8,2,-3,-1,-4,-4
17:44:43:574835,5,-5,8,-1,1,-3,-6,-18
17:44:43:575654,5,-5,8,-1,1,-3,-6,-18
17:44:43:581643,-28,-31,-41,-7,-4,1,-1,2
17:44:43:597353,-2,-11,-9,-5,-3,-1,0,-8
17:44:43:598156,-2,-11,-9,-5,-3,-1,0,-8
17:44:43:604159,-20,-1,-10,-6,-1,-1,-1,1
17:44:43:611655,4,-5,1,2,-1,1,0,10
17:44:43:619226,4,-5,1,2,-1,1,0,10
17:44:43:626645,37,3,8,2,-2,-5,-7,-24
17:44:43:634575,1,7,24,4,-2,-1,-1,9
17:44:43:642478,1,7,24,4,-2,-1,-1,9
17:44:43:643190,15,9,15,7,0,3,1,6
17:44:43:657371,23,-3,2,-9,-2,1,-1,-9
17:44:43:658192,23,-3,2,-9,-2,1,-1,-9
17:44:43:664137,9,-3,5,-1,0,-2,0,-5
17:44:43:671652,-24,-11,-31,-8,-3,-1,-4,2
17:44:43:679222,-24,-11,-31,-8,-3,-1,-4,2
17:44:43:686681,11,16,18,5,-1,-2,2,8
17:44:43:694857,11,16,18,5,-1,-2,2,8
17:44:43:695638,-1,-15,-7,8,1,-2,2,-1
17:44:43:709266,11,-3,-11,-12,1,2,-2,-3
17:44:43:717427,11,-3,-11,-12,1,2,-2,-3
17:44:43:718170,-23,2,1,1,2,0,0,6
17:44:43:724164,17,-13,8,3,2,-1,-5,9
17:44:43:739886,17,-13,8,3,2,-1,-5,9
17:44:43:740695,6,-1,-21,-7,-3,-2,-3,-20
17:44:43:746638,20,12,-5,-3,-2,-2,-1,-12
17:44:43:754858,20,12,-5,-3,-2,-2,-1,-12
17:44:43:755731,0,4,-14,-3,-4,0,2,5
17:44:43:761681,-56,-13,-2,-2,-2,-2,-2,-21
17:44:43:777391,-56,-13,-2,-2,-2,-2,-2,-21
17:44:43:778194,2,9,34,4,1,-1,-1,-6
17:44:43:784133,-14,-12,-18,-12,-3,-4,1,-7
17:44:43:799888,-14,-12,-18,-12,-3,-4,1,-7
17:44:43:800680,-29,-12,34,8,2,-1,-4,-1
17:44:43:806643,-37,0,-4,6,0,0,0,7
17:44:43:814958,-37,0,-4,6,0,0,0,7
17:44:43:815683,-4,15,-13,-5,-2,-2,-1,-1
17:44:43:821683,-3,-2,8,1,-1,0,1,0
17:44:43:837395,-3,-2,8,1,-1,0,1,0
17:44:43:838214,-21,5,21,15,2,0,-5,-9
17:44:43:844195,-9,-19,-32,-4,-2,2,0,9
17:44:43:859877,-9,-19,-32,-4,-2,2,0,9
17:44:43:860639,23,-6,-13,-3,0,1,1,0
17:44:43:866684,22,0,-2,-7,-2,-3,-5,-8
17:44:43:874881,22,0,-2,-7,-2,-3,-5,-8
17:44:43:875694,7,2,-3,7,2,1,-5,-9
17:44:43:881667,48,4,0,1,-2,-1,1,0
17:44:43:897376,48,4,0,1,-2,-1,1,0
17:44:43:898155,-27,4,2,-4,-2,-6,-1,5
17:44:43:904128,5,4,23,5,2,3,1,11
17:44:43:919853,5,4,23,5,2,3,1,11
17:44:43:920685,29,0,-15,-2,-2,0,1,10
17:44:43:926608,-22,-3,-11,-1,-5,-5,-1,-7
17:44:43:934893,-22,-3,-11,-1,-5,-5,-1,-7
17:44:43:935680,-11,-10,12,-3,-3,0,2,7
17:44:43:941656,-49,-2,-2,-6,1,-1,-4,-2
17:44:43:957387,-49,-2,-2,-6,1,-1,-4,-2
17:44:43:958205,3,0,-54,-8,-5,-2,-2,13
17:44:43:964170,-23,0,-6,-2,-3,1,0,17
17:44:43:979871,-23,0,-6,-2,-3,1,0,17
17:44:43:980680,18,1,7,-3,1,-2,-3,-6
17:44:43:986682,24,2,-49,-10,-4,-4,0,-4
17:44:43:994880,24,2,-49,-10,-4,-4,0,-4
17:44:43:995669,3,1,5,-1,0,1,7,3
17:44:44:1729,21,12,42,12,3,-1,1,17
17:44:44:17356,21,12,42,12,3,-1,1,17
17:44:44:18183,31,7,-3,-6,0,1,1,4
17:44:44:24129,15,-1,5,3,-1,-1,-2,-15
17:44:44:39887,15,-1,5,3,-1,-1,-2,-15
17:44:44:40641,-3,7,-20,8,3,-1,1,-2
17:44:44:46671,-8,2,14,5,1,-2,-4,-14
17:44:44:54854,-8,2,14,5,1,-2,-4,-14
17:44:44:55704,-11,-22,-13,-15,-5,-4,-1,-24
17:44:44:61615,11,-4,16,-3,-4,-3,-1,-3
17:44:44:77355,11,-4,16,-3,-4,-3,-1,-3
17:44:44:78132,10,-7,-55,-7,-5,0,-6,1
17:44:44:84105,-16,-9,-37,-10,1,2,3,-36
17:44:44:99858,-16,-9,-37,-10,1,2,3,-36
17:44:44:100632,-44,2,23,2,-1,-2,-6,-13
17:44:44:106667,25,-6,3,0,0,1,4,31
17:44:44:114877,25,-6,3,0,0,1,4,31
17:44:44:115632,19,6,-33,-3,2,-2,0,-12
17:44:44:129159,-13,0,26,-6,-5,1,2,7
17:44:44:137344,-13,0,26,-6,-5,1,2,7
17:44:44:138171,1,3,28,3,-1,0,0,10
17:44:44:144172,-7,-4,10,6,-2,-8,-9,18
17:44:44:159915,-7,-4,10,6,-2,-8,-9,18
17:44:44:160668,-34,-13,16,-6,-3,-3,2,-15
17:44:44:166706,8,4,11,5,0,3,11,12
17:44:44:174859,8,4,11,5,0,3,11,12
17:44:44:175653,12,2,19,8,3,-2,-2,16
17:44:44:189192,12,1,-13,-7,-4,-1,-4,-19
17:44:44:205521,12,1,-13,-7,-4,-1,-4,-19
17:44:44:206334,12,-29,-51,-15,-3,-2,1,-2
17:44:44:207144,15,7,3,3,1,1,-1,-22
17:44:44:219863,15,7,3,3,1,1,-1,-22
17:44:44:220675,10,-5,7,-6,-5,-3,-3,-3
17:44:44:226636,-39,-6,10,10,-3,-3,-15,-8
17:44:44:234874,-39,-6,10,10,-3,-3,-15,-8
17:44:44:235657,-31,-13,4,-14,-2,2,4,-6
17:44:44:249148,-23,5,18,5,0,-2,-2,-10
17:44:44:257377,-23,5,18,5,0,-2,-2,-10
17:44:44:258154,-28,1,-17,5,-1,-3,-6,-6
17:44:44:264176,16,3,5,12,5,1,-5,14
17:44:44:279862,16,3,5,12,5,1,-5,14
17:44:44:280638,-28,5,23,-1,-1,2,-3,-11
17:44:44:295476,-34,-11,-18,-5,-4,-6,-1,5
17:44:44:296333,-34,-11,-18,-5,-4,-6,-1,5
17:44:44:297108,21,-1,4,6,0,-8,-6,-1
17:44:44:309179,-3,-8,22,-1,3,6,4,16
17:44:44:317376,-3,-8,22,-1,3,6,4,16
17:44:44:318147,-8,8,4,3,0,4,2,-13
17:44:44:324175,11,32,0,2,-2,-4,-3,41
17:44:44:339962,11,32,0,2,-2,-4,-3,41
17:44:44:340727,52,3,-9,-2,-1,1,5,27
17:44:44:346630,6,6,-27,-12,-4,-3,4,-17
17:44:44:354860,6,6,-27,-12,-4,-3,4,-17
17:44:44:355643,4,-4,-14,6,3,1,0,4
17:44:44:369176,-54,-15,-16,-1,-9,-6,-4,-23
17:44:44:377361,-54,-15,-16,-1,-9,-6,-4,-23
17:44:44:378186,16,4,32,0,-2,-3,7,1
17:44:44:384222,10,-4,-8,-2,-2,0,-4,20
17:44:44:399644,10,-4,-8,-2,-2,0,-4,20
17:44:44:407351,-2,3,13,3,2,2,-5,5
17:44:44:408111,14,-7,-4,-13,-5,-1,5,-3
17:44:44:414874,14,-7,-4,-13,-5,-1,5,-3
17:44:44:415681,-24,16,-39,0,1,-3,-10,-4
17:44:44:429149,24,-17,-30,-19,-6,-6,1,-18
17:44:44:437374,24,-17,-30,-19,-6,-6,1,-18
17:44:44:438195,-18,2,10,3,5,4,7,8
17:44:44:444166,-2,-1,-29,-14,-1,4,1,-6
17:44:44:459889,-2,-1,-29,-14,-1,4,1,-6
17:44:44:460671,30,15,38,5,0,1,-1,-25
17:44:44:475496,-8,-2,5,5,8,1,-8,-34
17:44:44:476317,-8,-2,5,5,8,1,-8,-34
17:44:44:477124,6,-18,-66,-13,-11,-12,-12,-1
17:44:44:489653,24,-10,16,4,-1,2,3,9
17:44:44:497373,24,-10,16,4,-1,2,3,9
17:44:44:498128,-20,0,12,3,-1,0,0,-15
17:44:44:504128,10,8,5,6,4,1,4,1
17:44:44:519845,10,8,5,6,4,1,4,1
17:44:44:520648,-27,-18,-49,-8,-6,-3,-2,-10
17:44:44:526651,2,-1,33,7,-7,-1,-2,-5
17:44:44:534856,2,-1,33,7,-7,-1,-2,-5
17:44:44:535622,18,20,19,5,2,6,3,20
17:44:44:549166,-9,-2,-11,-9,6,-4,-2,-11
17:44:44:557334,-9,-2,-11,-9,6,-4,-2,-11
17:44:44:558126,39,-9,19,-3,0,-2,2,39
17:44:44:564165,12,-9,18,7,-5,-3,2,16
17:44:44:579858,12,-9,18,7,-5,-3,2,16
17:44:44:580618,1,1,8,2,-1,-3,3,4
17:44:44:586683,9,-3,-37,-4,-4,0,-2,10
17:44:44:594872,9,-3,-37,-4,-4,0,-2,10
17:44:44:595645,5,2,19,0,-7,-1,-4,-11
17:44:44:609177,2,9,-9,-1,-3,2,0,-3
17:44:44:617342,2,9,-9,-1,-3,2,0,-3
17:44:44:618170,6,5,14,6,3,3,4,-7
17:44:44:624177,-4,-1,3,-7,1,1,2,-5
17:44:44:631680,-4,-1,3,-7,1,1,2,-5
17:44:44:639200,3,-9,13,-3,0,-3,-4,7
17:44:44:646672,2,2,-2,-3,1,-1,1,8
17:44:44:654850,2,2,-2,-3,1,-1,1,8
17:44:44:655635,-18,3,12,4,0,-1,4,-5
17:44:44:669259,-19,-12,-2,-8,-3,-7,-9,-16
17:44:44:677363,-19,-12,-2,-8,-3,-7,-9,-16
17:44:44:678164,-2,-2,-2,-5,-7,-2,-8,8
17:44:44:684191,10,3,5,7,0,4,3,-7
17:44:44:691759,10,3,5,7,0,4,3,-7
17:44:44:699149,-11,-6,-11,-9,-1,-4,1,3
17:44:44:706626,5,3,-6,0,0,-1,-5,-5
17:44:44:714875,5,3,-6,0,0,-1,-5,-5
17:44:44:715673,-3,-7,-16,-2,0,-1,0,-4
17:44:44:729131,0,7,26,6,3,-3,1,10
17:44:44:737351,0,7,26,6,3,-3,1,10
17:44:44:738142,3,8,7,2,-1,0,-4,-6
17:44:44:744124,-6,-4,-12,2,-3,-5,-3,-3
17:44:44:751718,-6,-4,-12,2,-3,-5,-3,-3
17:44:44:759138,-13,-5,-8,-5,0,0,-2,-9
17:44:44:766836,1,-2,13,-3,-2,-1,4,3
17:44:44:774894,1,-2,13,-3,-2,-1,4,3
17:44:44:775687,0,-15,-21,-8,-5,-3,-7,-6
17:44:44:789121,-1,2,-4,-4,-3,-1,4,-4
17:44:44:797393,-1,2,-4,-4,-3,-1,4,-4
17:44:44:798175,-4,10,6,3,3,0,-3,6
17:44:44:804141,-2,1,-1,-1,-1,1,8,2
17:44:44:819859,-2,1,-1,-1,-1,1,8,2
17:44:44:820655,-4,-7,1,-3,-3,0,3,-3
17:44:44:826609,3,-2,-5,3,1,0,-7,1
17:44:44:834892,3,-2,-5,3,1,0,-7,1
17:44:44:835663,4,15,3,-2,0,0,-1,-2
17:44:44:849135,-8,1,3,1,-1,-2,-3,-6
17:44:44:857368,-8,1,3,1,-1,-2,-3,-6
17:44:44:858211,-2,-37,1,-3,-2,-4,-2,-4
17:44:44:864186,0,2,-3,-6,-1,-1,-6,7
17:44:44:879851,0,2,-3,-6,-1,-1,-6,7
17:44:44:880637,7,5,4,1,0,-2,2,5
17:44:44:886636,-13,-4,-3,-2,2,-3,-6,-6
17:44:44:894891,-13,-4,-3,-2,2,-3,-6,-6
17:44:44:895695,-3,-2,-6,-1,-1,4,4,-6
17:44:44:909176,-3,2,-10,0,-2,3,0,-3
17:44:44:917420,-3,2,-10,0,-2,3,0,-3
17:44:44:918159,3,8,-3,-2,-2,-2,-3,-2
17:44:44:924097,0,-26,4,-1,-1,-6,3,-3
17:44:44:931706,0,-26,4,-1,-1,-6,3,-3
17:44:44:939182,-1,-7,-4,1,0,-1,-4,1
17:44:44:946619,2,-2,-7,-4,-3,0,0,-1
17:44:44:954958,2,-2,-7,-4,-3,0,0,-1
17:44:44:955665,-12,-1,2,1,-1,-2,1,-4
17:44:44:969153,1,6,-1,1,1,0,-3,-21
17:44:44:977361,1,6,-1,1,1,0,-3,-21
17:44:44:978193,13,-1,-4,-3,0,-3,-7,9
17:44:44:984175,0,3,4,-1,0,1,-1,-2
17:44:44:999880,0,3,4,-1,0,1,-1,-2
17:44:45:650,-2,0,3,-2,-2,-2,2,-6
17:44:45:6602,-2,10,1,4,0,-1,1,-1
17:44:45:14858,-2,10,1,4,0,-1,1,-1
17:44:45:15707,0,0,-3,-1,-1,-1,1,3
17:44:45:29169,3,-7,-12,-8,-3,-2,-2,1
17:44:45:37364,3,-7,-12,-8,-3,-2,-2,1
17:44:45:38186,-2,5,2,-2,-2,0,-1,-10
17:44:45:51767,4,0,0,0,2,1,-1,4
17:44:45:59840,4,0,0,0,2,1,-1,4
17:44:45:60625,3,1,-8,2,-3,1,-1,6
17:44:45:66631,9,1,-10,-9,-7,-4,-2,8
17:44:45:74200,9,1,-10,-9,-7,-4,-2,8
17:44:45:81649,-7,4,11,3,1,-3,0,-1
17:44:45:89128,-14,-2,6,8,2,1,0,2
17:44:45:97384,-14,-2,6,8,2,1,0,2
17:44:45:98173,4,-5,-15,-5,-4,0,0,-6
17:44:45:112360,3,3,4,3,-1,-3,-1,5
17:44:45:113169,3,3,4,3,-1,-3,-1,5
17:44:45:119103,-9,2,4,4,2,1,-1,0
17:44:45:126665,10,-4,-4,-4,0,0,-2,35
17:44:45:134199,10,-4,-4,-4,0,0,-2,35
17:44:45:141654,3,0,-1,-2,-3,-1,0,-6
17:44:45:149174,-3,6,16,1,1,-1,0,-9
17:44:45:157374,-3,6,16,1,1,-1,0,-9
17:44:45:158193,2,8,-3,-7,-2,-3,0,12
17:44:45:172362,2,1,3,5,-2,-1,1,-11
17:44:45:173151,2,1,3,5,-2,-1,1,-11
17:44:45:179158,-6,-3,-1,2,-1,2,2,10
17:44:45:186667,3,1,-1,-3,-3,-1,-4,-4
17:44:45:194227,3,1,-1,-3,-3,-1,-4,-4
17:44:45:201759,-38,-3,6,-1,1,-2,1,-31
17:44:45:209127,15,-4,-12,-4,-4,-3,-1,-7
17:44:45:217352,15,-4,-12,-4,-4,-3,-1,-7
17:44:45:218217,32,-6,-4,1,0,0,-4,-15
17:44:45:232291,-6,-1,-5,1,-2,-1,0,-26
17:44:45:233101,-6,-1,-5,1,-2,-1,0,-26
17:44:45:239142,-13,-10,1,1,2,-2,4,16
17:44:45:246665,-3,1,17,3,-2,0,-1,9
17:44:45:254186,-3,1,17,3,-2,0,-1,9
17:44:45:261669,47,13,26,-3,-2,-1,-3,9
17:44:45:269179,-35,-15,1,-2,-2,-3,0,9
17:44:45:277349,-35,-15,1,-2,-2,-3,0,9
17:44:45:278160,-5,-5,-8,-3,-2,0,1,5
17:44:45:292364,3,-12,-5,-1,1,1,-3,-14
17:44:45:293150,3,-12,-5,-1,1,1,-3,-14
17:44:45:299231,-9,-18,2,-1,0,-2,-2,3
17:44:45:306671,-9,-8,-1,-3,2,2,3,-4
17:44:45:314188,-9,-8,-1,-3,2,2,3,-4
17:44:45:321609,-1,14,26,-6,-8,-6,-1,-7
17:44:45:329109,7,5,-28,-10,14,4,1,4
17:44:45:337361,7,5,-28,-10,14,4,1,4
17:44:45:338238,-6,-17,-25,23,14,2,-6,-7
17:44:45:352332,6,21,-13,5,3,3,6,12
17:44:45:353169,6,21,-13,5,3,3,6,12
17:44:45:359118,-11,1,-35,6,3,-2,1,-2
17:44:45:366630,1,4,13,-11,-13,-10,-10,-7
17:44:45:374203,1,4,13,-11,-13,-10,-10,-7
17:44:45:381640,-2,-8,1,-7,-16,-6,-3,0
17:44:45:389130,-1,-2,3,0,-5,-5,-1,-4
17:44:45:397378,-1,-2,3,0,-5,-5,-1,-4
17:44:45:398168,-3,-5,-12,-18,-3,11,20,5
17:44:45:412349,-2,3,1,8,3,9,-22,-3
17:44:45:413182,-2,3,1,8,3,9,-22,-3
17:44:45:419129,2,10,8,10,15,6,4,3
17:44:45:426654,2,-8,-1,7,-2,-19,-8,-4
17:44:45:434211,2,-8,-1,7,-2,-19,-8,-4
17:44:45:441646,-6,0,-8,-17,-10,-12,-10,-8
17:44:45:449163,-2,-2,25,-13,-10,-7,-7,-1
17:44:45:457443,-2,-2,25,-13,-10,-7,-7,-1
17:44:45:458188,0,1,-16,-9,-17,-2,0,2
17:44:45:472362,2,0,-17,-23,8,7,10,-1
17:44:45:473189,2,0,-17,-23,8,7,10,-1
17:44:45:479175,-2,-2,0,-9,-12,-8,-12,-6
17:44:45:486654,2,-3,13,1,-5,2,4,2
17:44:45:494238,2,-3,13,1,-5,2,4,2
17:44:45:501690,-3,-3,4,1,12,-1,-10,-2
17:44:45:509146,-1,3,-5,3,-3,3,5,1
17:44:45:517340,-1,3,-5,3,-3,3,5,1
17:44:45:518127,0,4,2,-8,0,2,0,-4
17:44:45:532351,0,3,-4,7,0,-1,1,-2
17:44:45:533132,0,3,-4,7,0,-1,1,-2
17:44:45:539160,0,-6,5,4,8,-1,3,-1
17:44:45:546649,-2,-1,14,15,0,-2,-5,-3
17:44:45:554206,-2,-1,14,15,0,-2,-5,-3
17:44:45:561675,9,63,-4,-13,-3,-2,0,4
17:44:45:569206,-1,3,28,15,-3,-1,4,0
17:44:45:577351,-1,3,28,15,-3,-1,4,0
17:44:45:578146,-2,-15,16,21,0,-1,-3,-3
17:44:45:592381,3,12,-16,0,2,-1,2,1
17:44:45:593170,3,12,-16,0,2,-1,2,1
17:44:45:599175,0,-8,-14,-5,-3,-2,0,-1
17:44:45:606598,-9,-40,12,-1,0,-3,3,-3
17:44:45:622342,-9,-40,12,-1,0,-3,3,-3
17:44:45:623140,-4,-12,-8,0,1,1,-3,-2
17:44:45:629182,0,3,7,4,-5,0,-6,1
17:44:45:637359,0,3,7,4,-5,0,-6,1
17:44:45:638138,-2,-7,-3,2,-6,-2,-3,-4
17:44:45:652337,-2,-5,-19,-11,-4,-6,-1,0
17:44:45:653146,-2,-5,-19,-11,-4,-6,-1,0
17:44:45:659169,2,-2,-6,4,-2,4,4,0
17:44:45:666799,5,0,-48,-10,27,14,5,0
17:44:45:674194,5,0,-48,-10,27,14,5,0
17:44:45:681641,-1,-6,16,2,5,0,6,1
17:44:45:689127,-3,2,36,4,-12,-4,2,-4
17:44:45:697342,-3,2,36,4,-12,-4,2,-4
17:44:45:698152,-1,-4,4,-23,-5,-1,-4,4
17:44:45:712338,-4,0,20,-5,0,1,1,-5
17:44:45:713169,-4,0,20,-5,0,1,1,-5
17:44:45:727344,-7,-17,11,2,-4,-6,-5,-4
17:44:45:728111,4,2,-10,1,-2,2,0,2
17:44:45:734217,4,2,-10,1,-2,2,0,2
17:44:45:741600,0,-4,-22,17,6,-1,-2,-3
17:44:45:749195,2,9,25,9,-7,-5,-2,0
17:44:45:757364,2,9,25,9,-7,-5,-2,0
17:44:45:758187,1,-1,1,-4,10,3,0,3
17:44:45:772421,-5,-2,-12,-4,-4,-4,-2,-2
17:44:45:773141,-5,-2,-12,-4,-4,-4,-2,-2
17:44:45:779166,1,0,-34,12,15,9,-1,-1
17:44:45:786612,0,-7,-37,-25,-13,-5,0,0
17:44:45:794184,0,-7,-37,-25,-13,-5,0,0
17:44:45:801647,-3,4,5,-11,-6,-7,-2,-3
17:44:45:809150,-4,-14,-34,-6,-5,-5,-7,-1
17:44:45:817392,-4,-14,-34,-6,-5,-5,-7,-1
17:44:45:818179,-6,-10,0,-9,-6,-2,-2,-2
17:44:45:840500,1,5,18,-1,0,1,-1,4
17:44:45:841312,1,5,18,-1,0,1,-1,4
17:44:45:842111,7,13,27,11,-1,-1,-5,3
17:44:45:846680,-7,-22,-3,0,-11,-7,-1,-4
17:44:45:862400,-7,-22,-3,0,-11,-7,-1,-4
17:44:45:863170,-3,-5,8,-4,-6,-6,-2,-1
17:44:45:869152,-2,-1,9,11,10,6,-9,-3
17:44:45:877322,-2,-1,9,11,10,6,-9,-3
17:44:45:878105,0,-2,-15,-14,-5,0,-8,-3
17:44:45:892391,1,7,-1,6,4,-8,-5,1
17:44:45:893184,1,7,-1,6,4,-8,-5,1
17:44:45:899170,-2,3,-2,-1,-12,-4,-7,-3
17:44:45:906696,3,9,-1,2,7,11,6,3
17:44:45:914176,3,9,-1,2,7,11,6,3
17:44:45:921661,0,-5,18,0,-7,1,9,-1
17:44:45:929165,-3,0,0,7,4,-3,-4,0
17:44:45:937364,-3,0,0,7,4,-3,-4,0
17:44:45:938147,-2,-1,-9,2,-6,-1,5,-5
17:44:45:952332,-2,-2,-16,0,16,3,-5,-6
17:44:45:953130,-2,-2,-16,0,16,3,-5,-6
17:44:45:959189,-1,0,17,15,8,-3,0,3
17:44:45:966679,-4,-4,-17,-13,-6,-13,-18,-7
17:44:45:974204,-4,-4,-17,-13,-6,-13,-18,-7
17:44:45:981650,1,-1,-3,-2,-15,0,16,0
17:44:45:989117,7,22,14,13,22,10,8,4
17:44:45:996694,7,22,14,13,22,10,8,4
17:44:46:4144,0,1,18,-4,-5,-7,-7,-3
17:44:46:12363,-3,-8,-31,-7,-17,-6,1,-2
17:44:46:13175,-3,-8,-31,-7,-17,-6,1,-2
17:44:46:19144,7,40,7,1,21,5,0,2
17:44:46:34865,-3,-2,7,-7,-8,1,5,0
17:44:46:35674,-3,-2,7,-7,-8,1,5,0
17:44:46:41611,-9,-15,-10,-5,5,6,-4,-1
17:44:46:49150,6,25,13,8,-8,-3,10,1
17:44:46:56752,6,25,13,8,-8,-3,10,1
17:44:46:64133,3,-7,5,11,16,6,-3,1
17:44:46:72352,-3,-16,-9,-15,-20,-16,1,-3
17:44:46:73171,-3,-16,-9,-15,-20,-16,1,-3
17:44:46:79151,-1,-5,-14,-23,-9,12,42,9
17:44:46:94859,-2,-7,-5,-1,1,10,9,3
17:44:46:95676,-2,-7,-5,-1,1,10,9,3
17:44:46:101637,-5,-16,-10,2,-1,-7,-10,-8
17:44:46:109152,1,2,24,1,0,-6,-8,-5
17:44:46:116782,1,2,24,1,0,-6,-8,-5
17:44:46:124153,-5,-23,37,9,-7,-7,-17,-8
17:44:46:140574,-2,-8,-26,-7,1,-4,-7,2
17:44:46:141327,-2,-8,-26,-7,1,-4,-7,2
17:44:46:142147,-4,-9,-19,-3,-7,-2,-7,-9
17:44:46:154829,-4,-3,-6,-4,3,4,0,-11
17:44:46:155668,-4,-3,-6,-4,3,4,0,-11
17:44:46:161628,3,7,-11,-5,4,-1,-16,20
17:44:46:169125,-1,2,3,2,6,12,43,13
17:44:46:176689,-1,2,3,2,6,12,43,13
17:44:46:184121,-4,3,12,1,5,0,2,-14
17:44:46:192305,0,-8,5,-3,-14,-14,-22,-1
17:44:46:193110,0,-8,5,-3,-14,-14,-22,-1
17:44:46:199156,2,13,-26,1,-1,-4,-2,11
17:44:46:214902,-3,3,11,3,2,-2,-13,-7
17:44:46:215681,-3,3,11,3,2,-2,-13,-7
17:44:46:221609,-3,-4,-5,-12,-15,-11,-12,-4
17:44:46:229122,0,3,5,11,13,9,5,-3
17:44:46:236689,0,3,5,11,13,9,5,-3
17:44:46:244148,-3,-13,-16,-8,-3,-4,-14,-9
17:44:46:252326,-1,-11,-8,-7,4,7,11,2
17:44:46:253104,-1,-11,-8,-7,4,7,11,2
17:44:46:259150,2,13,19,6,-2,-4,-7,-7
17:44:46:274818,-1,19,-13,4,-11,-7,11,19
17:44:46:275624,-1,19,-13,4,-11,-7,11,19
17:44:46:281695,-1,-15,-7,-15,-1,4,-8,-5
17:44:46:289168,5,-2,22,9,1,6,3,16
17:44:46:296677,5,-2,22,9,1,6,3,16
17:44:46:304140,-4,4,0,-2,-17,-18,-13,19
17:44:46:312324,0,-8,10,17,19,7,-3,-18
17:44:46:313151,0,-8,10,17,19,7,-3,-18
17:44:46:319135,-4,-28,-43,-31,-5,1,-12,-16
17:44:46:334840,-5,-14,-22,-18,-24,-5,24,-1
17:44:46:335648,-5,-14,-22,-18,-24,-5,24,-1
17:44:46:341611,-1,9,26,23,15,-2,-3,-1
17:44:46:349180,-14,-36,2,-9,-13,-6,-25,-13
17:44:46:356718,-14,-36,2,-9,-13,-6,-25,-13
17:44:46:364138,0,13,12,6,-1,0,8,-4
17:44:46:372380,6,1,-8,-15,12,3,-11,-1
17:44:46:373162,6,1,-8,-15,12,3,-11,-1
17:44:46:379146,2,6,-13,-1,-5,-4,4,11
17:44:46:394847,-1,10,3,2,16,4,-46,-7
17:44:46:395673,-1,10,3,2,16,4,-46,-7
17:44:46:401645,-7,5,6,6,-11,2,27,-5
17:44:46:409148,-9,-6,-3,-7,-18,-5,31,24
17:44:46:416698,-9,-6,-3,-7,-18,-5,31,24
17:44:46:424159,-3,-6,-5,4,12,-1,-47,-39
17:44:46:432370,0,-2,-4,-1,-5,-5,-19,-3
17:44:46:433178,0,-2,-4,-1,-5,-5,-19,-3
17:44:46:439148,16,14,13,11,-3,1,19,-8
17:44:46:454887,14,20,9,8,-6,-12,10,12
17:44:46:455780,14,20,9,8,-6,-12,10,12
17:44:46:461667,-3,-3,-3,-8,18,17,12,4
17:44:46:469138,-17,1,5,6,-4,5,-5,-17
17:44:46:476715,-17,1,5,6,-4,5,-5,-17
17:44:46:484160,-1,-3,10,11,14,8,-12,9
17:44:46:492315,19,9,6,6,4,1,5,-6
17:44:46:493129,19,9,6,6,4,1,5,-6
17:44:46:499156,15,3,-19,-19,-18,-8,-3,2
17:44:46:514879,-18,-7,1,-4,9,7,1,10
17:44:46:515682,-18,-7,1,-4,9,7,1,10
17:44:46:521688,-10,0,5,7,-6,-15,8,5
17:44:46:529151,-2,-14,-8,-9,-20,-15,0,6
17:44:46:536665,-2,-14,-8,-9,-20,-15,0,6
17:44:46:544163,-8,8,1,-3,10,10,13,-4
17:44:46:552332,11,-6,-11,-7,-8,-8,-5,-10
17:44:46:553112,11,-6,-11,-7,-8,-8,-5,-10
17:44:46:559162,15,-1,-20,-2,8,12,16,27
17:44:46:574851,-17,-2,5,6,-1,-2,-7,-3
17:44:46:575626,-17,-2,5,6,-1,-2,-7,-3
17:44:46:581663,-10,4,-10,-22,-3,-8,-10,-10
17:44:46:589155,-16,-5,-10,-15,-15,3,32,8
17:44:46:596729,-16,-5,-10,-15,-15,3,32,8
17:44:46:604180,0,4,6,5,5,-4,-5,4
17:44:46:612349,35,24,12,1,-5,-3,-23,-10
17:44:46:613157,35,24,12,1,-5,-3,-23,-10
17:44:46:619155,-30,-39,-8,-2,-9,-5,-3,-4
17:44:46:634868,3,9,-9,0,33,17,5,1
17:44:46:635674,3,9,-9,0,33,17,5,1
17:44:46:641617,-7,-10,-4,-8,-27,-16,-3,-22
17:44:46:649189,-10,-9,-7,1,3,2,-5,-23
17:44:46:656692,-10,-9,-7,1,3,2,-5,-23
17:44:46:664153,-6,-2,0,0,-6,-17,-12,-15
17:44:46:672347,4,-18,-11,-9,-7,1,0,16
17:44:46:673162,4,-18,-11,-9,-7,1,0,16
17:44:46:679154,-9,3,3,15,-2,9,3,35
17:44:46:695328,-6,-1,-26,-22,3,-12,-11,-7
17:44:46:696127,-6,-1,-26,-22,3,-12,-11,-7
17:44:46:701631,11,-2,9,9,23,18,12,-3
17:44:46:709119,-4,1,12,-5,-20,-9,-4,5
17:44:46:716718,-4,1,12,-5,-20,-9,-4,5
17:44:46:724114,6,15,8,3,-1,-2,-1,-4
17:44:46:732384,-1,7,7,7,-6,-5,-5,-11
17:44:46:733199,-1,7,7,7,-6,-5,-5,-11
17:44:46:739153,12,18,14,14,3,2,6,-7
17:44:46:754861,-11,-27,-7,-17,-3,-2,6,-6
17:44:46:755723,-11,-27,-7,-17,-3,-2,6,-6
17:44:46:761633,1,5,16,7,18,9,5,18
17:44:46:769175,9,10,12,-3,-10,-6,-13,-13
17:44:46:776769,9,10,12,-3,-10,-6,-13,-13
17:44:46:784152,-5,2,-3,-13,-16,-4,0,1
17:44:46:792329,-1,1,2,3,0,11,0,6
17:44:46:793139,-1,1,2,3,0,11,0,6
17:44:46:799184,6,-6,-11,-11,-6,1,4,-4
17:44:46:814901,-5,-2,-6,13,14,1,-6,-10
17:44:46:815707,-5,-2,-6,13,14,1,-6,-10
17:44:46:821664,-7,-18,9,-4,-5,-3,8,1
17:44:46:829143,6,14,7,12,1,3,-1,2
17:44:46:836745,6,14,7,12,1,3,-1,2
17:44:46:844149,-5,-5,-14,-3,-5,-5,-24,-24
17:44:46:852407,9,8,-1,7,8,0,7,5
17:44:46:853170,9,8,-1,7,8,0,7,5
17:44:46:859132,-9,10,15,18,12,8,12,7
17:44:46:874865,-9,-14,-6,-13,-7,-2,0,2
17:44:46:875631,-9,-14,-6,-13,-7,-2,0,2
17:44:46:881678,12,5,-11,-5,-18,-17,-19,0
17:44:46:889160,-3,2,13,30,35,10,5,0
17:44:46:896679,-3,2,13,30,35,10,5,0
17:44:46:904153,-1,6,1,-5,4,-1,1,-5
17:44:46:912352,-1,-3,-7,-9,-12,-21,-7,2
17:44:46:913176,-1,-3,-7,-9,-12,-21,-7,2
17:44:46:919136,-2,-13,-6,7,2,5,1,9
17:44:46:934938,-2,-13,-6,7,2,5,1,9
17:44:46:935629,-1,-12,-19,-12,-16,-10,-11,-9
17:44:46:941608,0,-6,-2,-4,13,7,12,6
17:44:46:957376,0,-6,-2,-4,13,7,12,6
17:44:46:958127,7,6,7,10,3,3,-6,1
17:44:46:964166,7,-4,0,-18,-30,-16,9,21
17:44:46:972349,7,-4,0,-18,-30,-16,9,21
17:44:46:973124,19,12,2,-6,25,14,-9,-9
17:44:46:986671,-2,-6,-2,-1,-6,-3,-2,-8
17:44:46:994849,-2,-6,-2,-1,-6,-3,-2,-8
17:44:46:995635,-9,-5,-13,-27,-32,-14,-1,-6
17:44:47:1672,-6,2,3,6,12,10,8,6
17:44:47:17333,-6,2,3,6,12,10,8,6
17:44:47:18146,0,5,10,18,26,18,12,10
17:44:47:24164,9,0,-3,-18,-7,0,7,-2
17:44:47:32342,9,0,-3,-18,-7,0,7,-2
17:44:47:33131,-19,-18,3,16,-13,-4,17,20
17:44:47:46643,-9,-6,-10,6,1,-3,-25,-24
17:44:47:54906,-9,-6,-10,6,1,-3,-25,-24
17:44:47:55616,-3,-2,11,17,-5,-3,10,4
17:44:47:61708,-5,5,2,-10,-9,2,27,-6
17:44:47:77454,-5,5,2,-10,-9,2,27,-6
17:44:47:78237,-13,0,-4,-7,-3,-5,-8,-4
17:44:47:84170,15,4,2,15,7,13,-4,7
17:44:47:92336,15,4,2,15,7,13,-4,7
17:44:47:93127,6,3,2,3,-4,-4,-3,-7
17:44:47:106653,6,-11,-10,5,0,-6,-4,-2
17:44:47:114878,6,-11,-10,5,0,-6,-4,-2
17:44:47:115693,10,6,8,-11,2,0,-10,-16
17:44:47:121636,-14,-2,-4,7,16,0,1,2
17:44:47:137383,-14,-2,-4,7,16,0,1,2
17:44:47:138166,-7,-4,-6,-5,10,2,-14,-12
17:44:47:144174,-7,-7,-4,-11,-7,-5,2,8
17:44:47:152334,-7,-7,-4,-11,-7,-5,2,8
17:44:47:153169,-7,-5,-5,-9,-14,-4,3,-2
17:44:47:166670,16,20,20,17,25,18,-3,0
17:44:47:174873,16,20,20,17,25,18,-3,0
17:44:47:175680,-8,0,-3,-7,-10,-6,-2,-10
17:44:47:181650,3,5,-5,-27,-18,-10,-8,-6
17:44:47:197370,3,5,-5,-27,-18,-10,-8,-6
17:44:47:198145,-6,0,-6,-6,-5,6,3,7
17:44:47:204144,-1,2,10,19,5,-6,-1,13
17:44:47:212383,-1,2,10,19,5,-6,-1,13
17:44:47:213185,-15,-3,-16,-4,-21,-19,-14,-27
17:44:47:226623,-5,2,-1,28,1,1,-2,0
17:44:47:234922,-5,2,-1,28,1,1,-2,0
17:44:47:235654,-13,-3,10,18,12,12,7,14
17:44:47:241641,-20,-24,-9,6,-10,-10,-8,-6
17:44:47:257354,-20,-24,-9,6,-10,-10,-8,-6
17:44:47:258163,13,3,2,11,4,-2,6,4
17:44:47:264135,3,2,7,1,-7,-9,6,15
17:44:47:272408,3,2,7,1,-7,-9,6,15
17:44:47:273195,19,3,-9,-22,-9,3,-14,-13
17:44:47:286620,0,-1,2,-11,6,-3,-5,-8
17:44:47:294913,0,-1,2,-11,6,-3,-5,-8
17:44:47:295671,13,5,4,4,-3,-5,8,6
17:44:47:301716,-12,-3,0,-7,-2,4,-7,-22
17:44:47:317354,-12,-3,0,-7,-2,4,-7,-22
17:44:47:318201,-6,-11,-3,6,1,-3,-2,2
17:44:47:324143,10,6,-5,-9,21,14,10,8
17:44:47:332353,10,6,-5,-9,21,14,10,8
17:44:47:333156,12,7,0,7,-6,-11,-3,-1
17:44:47:346635,-1,5,2,12,0,-5,-3,-12
17:44:47:354833,-1,5,2,12,0,-5,-3,-12
17:44:47:355654,-10,0,3,2,14,9,4,7
17:44:47:361617,-1,4,-8,-15,-26,-9,-4,-5
17:44:47:377353,-1,4,-8,-15,-26,-9,-4,-5
17:44:47:378215,2,0,-6,-20,-3,10,6,4
17:44:47:384145,26,-6,-7,22,10,5,-13,-14
17:44:47:392335,26,-6,-7,22,10,5,-13,-14
17:44:47:393146,-2,-5,3,-8,-9,-9,-12,-15
17:44:47:406681,-10,-3,4,-16,-11,-1,1,12
17:44:47:414879,-10,-3,4,-16,-11,-1,1,12
17:44:47:415654,-14,-7,-2,9,14,7,1,4
17:44:47:421626,5,-6,-7,-11,-19,-10,-5,-12
17:44:47:437376,5,-6,-7,-11,-19,-10,-5,-12
17:44:47:438155,-2,2,2,-4,-7,-13,8,10
17:44:47:444195,-3,-3,-8,-23,-9,8,8,27
17:44:47:452362,-3,-3,-8,-23,-9,8,8,27
17:44:47:453139,8,2,-4,2,8,9,-18,-10
17:44:47:466693,-13,-21,-13,-4,-2,-10,-6,-8
17:44:47:474876,-13,-21,-13,-4,-2,-10,-6,-8
17:44:47:475628,4,2,2,-5,-12,-1,9,11
17:44:47:481664,-4,5,-1,-34,20,14,7,3
17:44:47:497347,-4,5,-1,-34,20,14,7,3
17:44:47:498133,2,1,-1,-13,-5,-11,-8,-9
17:44:47:504161,-5,0,-4,-45,-14,-7,-5,1
17:44:47:512371,-5,0,-4,-45,-14,-7,-5,1
17:44:47:513188,25,-3,0,-5,-1,14,11,24
17:44:47:526661,-3,-6,2,33,13,-5,-7,12
17:44:47:534843,-3,-6,2,33,13,-5,-7,12
17:44:47:535780,-6,6,7,20,7,1,8,19
17:44:47:541702,4,-4,-12,-21,-19,-14,-6,-19
17:44:47:557375,4,-4,-12,-21,-19,-14,-6,-19
17:44:47:558194,-1,6,-2,-4,-19,-13,4,0
17:44:47:564165,-8,1,-1,-3,11,3,6,-12
17:44:47:572316,-8,1,-1,-3,11,3,6,-12
17:44:47:573129,-28,4,5,38,11,-2,-15,-18
17:44:47:586700,-15,-10,-2,9,-17,-9,-6,0
17:44:47:594901,-15,-10,-2,9,-17,-9,-6,0
17:44:47:595691,-21,-19,-6,-34,-12,-4,-1,-18
17:44:47:601644,4,4,1,33,6,4,-1,1
17:44:47:617378,4,4,1,33,6,4,-1,1
17:44:47:618161,7,1,-12,-15,-12,-6,-8,-7
17:44:47:624150,-7,-7,1,16,-8,3,-3,-5
17:44:47:632327,-7,-7,1,16,-8,3,-3,-5
17:44:47:633132,5,6,-2,-25,4,0,2,-12
17:44:47:646759,29,13,15,18,-13,-20,-5,-17
17:44:47:654880,29,13,15,18,-13,-20,-5,-17
17:44:47:655684,-7,-11,-9,-4,9,5,11,21
17:44:47:661650,-6,4,-4,-19,1,7,2,2
17:44:47:677384,-6,4,-4,-19,1,7,2,2
17:44:47:678160,11,2,2,2,2,-1,-4,-6
17:44:47:684138,0,0,-6,-6,-7,-1,3,10
17:44:47:692384,0,0,-6,-6,-7,-1,3,10
17:44:47:693195,1,0,-2,26,19,1,-17,-10
17:44:47:706626,2,-8,4,-10,12,5,5,0
17:44:47:714924,2,-8,4,-10,12,5,5,0
17:44:47:715739,0,0,-7,-3,35,13,3,-8
17:44:47:721635,3,-1,-21,-13,-4,4,-3,-7
17:44:47:737364,3,-1,-21,-13,-4,4,-3,-7
17:44:47:738169,3,0,10,50,-26,-19,-16,-24
17:44:47:744156,-6,6,10,4,21,12,1,-9
17:44:47:752438,-6,6,10,4,21,12,1,-9
17:44:47:753166,-9,-9,-4,-18,-16,-6,5,-2
17:44:47:766651,10,6,4,18,2,-2,2,-1
17:44:47:774844,10,6,4,18,2,-2,2,-1
17:44:47:775669,-4,-6,-3,-7,-16,-9,-3,7
17:44:47:781626,-3,-4,-7,-10,17,11,2,6
17:44:47:797342,-3,-4,-7,-10,17,11,2,6
17:44:47:798136,-16,3,-6,2,-2,-2,1,8
17:44:47:804172,-17,-1,5,9,-7,-10,-2,3
17:44:47:812395,-17,-1,5,9,-7,-10,-2,3
17:44:47:813164,24,-2,-2,-5,-4,12,16,12
17:44:47:826644,-26,-27,0,4,7,-1,0,-5
17:44:47:834854,-26,-27,0,4,7,-1,0,-5
17:44:47:835659,-2,-9,-10,-23,-16,-14,-3,11
17:44:47:841602,2,3,9,-6,-17,-4,-1,4
17:44:47:857355,2,3,9,-6,-17,-4,-1,4
17:44:47:858122,7,-4,3,12,2,8,5,0
17:44:47:864224,-27,-5,-6,11,12,2,-3,-17
17:44:47:872365,-27,-5,-6,11,12,2,-3,-17
17:44:47:873344,-13,-5,11,-8,-7,-9,-8,-2
17:44:47:886735,-18,-2,-9,-2,-4,4,-8,-13
17:44:47:894857,-18,-2,-9,-2,-4,4,-8,-13
17:44:47:895616,2,6,-17,-6,14,8,7,4
17:44:47:909179,15,8,6,-16,-17,-10,6,12
17:44:47:917551,15,8,6,-16,-17,-10,6,12
17:44:47:918153,12,8,3,-12,0,0,-16,-5
17:44:47:924184,10,8,-11,-33,6,4,0,4
17:44:47:931701,10,8,-11,-33,6,4,0,4
17:44:47:939141,-22,6,16,29,17,1,10,0
17:44:47:946632,12,7,13,20,21,12,1,2
17:44:47:954926,12,7,13,20,21,12,1,2
17:44:47:955665,4,-5,-8,2,-11,2,4,0
17:44:47:969237,1,2,2,-15,-32,-18,-7,0
17:44:47:977380,1,2,2,-15,-32,-18,-7,0
17:44:47:978158,8,7,-5,-9,-9,-3,4,0
17:44:47:984170,1,-7,0,12,9,4,0,2
17:44:47:991700,1,-7,0,12,9,4,0,2
17:44:47:999174,-6,-5,7,16,-1,-2,-14,-3
17:44:48:6638,29,15,3,14,-9,-12,-2,8
17:44:48:14972,29,15,3,14,-9,-12,-2,8
17:44:48:15660,-23,-13,12,39,9,7,2,-4
17:44:48:29154,-11,-11,-12,-4,8,-6,6,-19
17:44:48:37405,-11,-11,-12,-4,8,-6,6,-19
17:44:48:38151,13,20,11,-17,-19,4,-2,1
17:44:48:44175,-4,-11,-12,-4,5,-5,6,-5
17:44:48:51734,-4,-11,-12,-4,5,-5,6,-5
17:44:48:59164,11,-1,-8,-19,0,-9,-2,-8
17:44:48:66672,11,-8,0,-5,-13,1,7,7
17:44:48:74845,11,-8,0,-5,-13,1,7,7
17:44:48:75625,-4,-12,-16,-24,-1,2,-3,-1
17:44:48:89148,-5,2,-5,-29,-28,-13,5,5
17:44:48:97406,-5,2,-5,-29,-28,-13,5,5
17:44:48:98192,-1,-2,-3,-5,12,3,-30,-35
17:44:48:104143,-10,0,2,-1,2,5,-2,-10
17:44:48:111683,-10,0,2,-1,2,5,-2,-10
17:44:48:119206,22,-3,-8,12,-4,-9,21,12
17:44:48:126655,-8,8,6,22,5,4,-4,12
17:44:48:134842,-8,8,6,22,5,4,-4,12
17:44:48:135643,-14,-29,-9,-3,13,6,3,-6
17:44:48:149171,19,8,-4,-1,-17,-12,-2,12
17:44:48:157331,19,8,-4,-1,-17,-12,-2,12
17:44:48:158122,-4,9,6,-2,5,3,-5,7
17:44:48:164149,-2,-17,-4,-6,7,1,-21,-7
17:44:48:171702,-2,-17,-4,-6,7,1,-21,-7
17:44:48:179249,17,16,-2,-10,7,0,4,0
17:44:48:186675,14,10,-4,-10,-1,0,5,-7
17:44:48:194924,14,10,-4,-10,-1,0,5,-7
17:44:48:195635,21,15,5,-14,-7,-9,-8,4
17:44:48:209143,-13,-4,-3,10,-1,-3,-7,-4
17:44:48:217371,-13,-4,-3,10,-1,-3,-7,-4
17:44:48:218135,-7,-7,2,46,3,4,20,1
17:44:48:224138,11,-1,6,6,18,16,13,12
17:44:48:231724,11,-1,6,6,18,16,13,12
17:44:48:239143,-10,-6,-6,-32,-16,-13,-4,4
17:44:48:246640,-3,-4,6,34,13,0,8,5
17:44:48:254877,-3,-4,6,34,13,0,8,5
17:44:48:255666,2,-7,1,-1,-4,-5,-18,-14
17:44:48:269158,-3,-7,-14,-37,8,-4,-11,-12
17:44:48:277413,-3,-7,-14,-37,8,-4,-11,-12
17:44:48:278158,-6,1,-4,-6,-4,-1,10,7
17:44:48:284137,-16,1,3,25,-6,1,4,-3
17:44:48:291717,-16,1,3,25,-6,1,4,-3
17:44:48:299174,-2,2,3,-1,13,5,-6,-8
17:44:48:306633,0,-6,-7,-48,-24,-16,-11,-4
17:44:48:314902,0,-6,-7,-48,-24,-16,-11,-4
17:44:48:315679,7,-2,5,-7,8,13,13,9
17:44:48:329232,1,7,-6,-17,14,7,-2,-10
17:44:48:337335,1,7,-6,-17,14,7,-2,-10
17:44:48:338152,5,2,1,0,-12,5,6,6
17:44:48:344165,-14,-16,-8,18,-5,-5,-5,4
17:44:48:351729,-14,-16,-8,18,-5,-5,-5,4
17:44:48:359154,-18,-18,-6,-14,-8,-10,-4,-9
17:44:48:366682,8,-10,4,-8,-13,-3,3,4
17:44:48:374851,8,-10,4,-8,-13,-3,3,4
17:44:48:375635,2,12,5,13,3,-3,-3,-1
17:44:48:389171,-25,-19,-4,3,-2,2,3,-6
17:44:48:397380,-25,-19,-4,3,-2,2,3,-6
17:44:48:398185,8,-6,-3,-2,0,-5,-11,0
17:44:48:404144,-6,9,7,9,-18,-14,-9,0
17:44:48:411695,-6,9,7,9,-18,-14,-9,0
17:44:48:419145,-7,-2,-5,5,9,1,-5,-12
17:44:48:426665,-3,4,0,-5,11,9,2,-9
17:44:48:434916,-3,4,0,-5,11,9,2,-9
17:44:48:435646,-17,-4,-1,5,0,4,4,6
17:44:48:449153,0,5,-5,3,-9,-9,-12,-14
17:44:48:457354,0,5,-5,3,-9,-9,-12,-14
17:44:48:458145,-5,5,-8,6,10,5,3,10
17:44:48:464136,27,13,0,-11,-15,-6,-3,-3
17:44:48:471675,27,13,0,-11,-15,-6,-3,-3
17:44:48:479162,-7,-10,1,-17,-6,-2,3,2
17:44:48:486653,-8,13,3,12,12,6,-4,-2
17:44:48:494891,-8,13,3,12,12,6,-4,-2
17:44:48:495662,-10,-12,-6,-1,-10,-9,4,8
17:44:48:509194,11,13,13,27,1,6,3,7
17:44:48:517330,11,13,13,27,1,6,3,7
17:44:48:518149,4,-1,9,8,-17,-13,-10,-3
17:44:48:524142,-7,6,-4,-3,16,6,-4,-1
17:44:48:531714,-7,6,-4,-3,16,6,-4,-1
17:44:48:539144,5,4,-13,-24,-4,0,7,4
17:44:48:546635,-18,-33,1,-6,-11,-3,4,10
17:44:48:554867,-18,-33,1,-6,-11,-3,4,10
17:44:48:555667,23,9,-2,6,3,-2,-17,-5
17:44:48:569194,-8,-4,-5,5,21,14,10,3
17:44:48:577373,-8,-4,-5,5,21,14,10,3
17:44:48:578141,10,7,-6,-14,-5,-4,-20,-15
17:44:48:584139,-7,8,2,-10,-17,-12,-5,-12
17:44:48:591709,-7,8,2,-10,-17,-12,-5,-12
17:44:48:599183,3,1,3,-15,10,8,21,4
17:44:48:606621,14,-17,-12,-3,3,4,-4,4
17:44:48:614889,14,-17,-12,-3,3,4,-4,4
17:44:48:615680,-11,-2,10,53,-3,-6,9,4
17:44:48:629157,11,13,10,9,0,-3,-9,-9
17:44:48:637385,11,13,10,9,0,-3,-9,-9
17:44:48:638153,-13,19,0,-16,-2,5,-1,-6
17:44:48:644151,17,-10,1,7,-1,-1,-8,-6
17:44:48:651708,17,-10,1,7,-1,-1,-8,-6
17:44:48:659154,-9,4,2,8,-2,-3,12,4
17:44:48:666642,9,36,7,1,15,10,3,8
17:44:48:674834,9,36,7,1,15,10,3,8
17:44:48:675622,-12,-12,-2,-18,2,4,-3,6
17:44:48:689152,-2,-8,-4,-9,-17,-13,-7,-6
17:44:48:697443,-2,-8,-4,-9,-17,-13,-7,-6
17:44:48:698212,6,7,4,18,-7,4,11,-12
17:44:48:704146,-14,-25,-8,-5,9,-4,-9,1
17:44:48:711696,-14,-25,-8,-5,9,-4,-9,1
17:44:48:719146,-8,-2,-12,-37,-11,-8,-8,9
17:44:48:726666,-42,-11,3,7,-2,-1,-1,-38
17:44:48:734836,-42,-11,3,7,-2,-1,-1,-38
17:44:48:735643,8,2,-4,2,6,7,6,1
17:44:48:749170,-3,-11,-1,11,-12,-12,-1,3
17:44:48:757319,-3,-11,-1,11,-12,-12,-1,3
17:44:48:758154,3,2,3,11,5,-1,-3,-5
17:44:48:764187,14,8,-5,-5,-2,4,-3,12
17:44:48:771705,14,8,-5,-5,-2,4,-3,12
17:44:48:779162,13,-14,-8,-13,-5,-5,-11,5
17:44:48:786606,5,-9,-8,-20,-9,0,-2,-8
17:44:48:794861,5,-9,-8,-20,-9,0,-2,-8
17:44:48:795641,-11,-21,-5,-24,-15,-9,-3,-4
17:44:48:809233,3,11,4,3,8,7,-4,4
17:44:48:817335,3,11,4,3,8,7,-4,4
17:44:48:818125,-29,-31,-6,9,7,-2,-10,-12
17:44:48:824153,12,15,-1,7,-9,-7,6,9
17:44:48:831711,12,15,-1,7,-9,-7,6,9
17:44:48:839155,15,10,5,14,4,11,14,11
17:44:48:846631,3,3,-4,-3,-3,-5,5,2
17:44:48:854232,3,3,-4,-3,-3,-5,5,2
17:44:48:861634,-13,-2,0,9,1,-3,-3,4
17:44:48:869168,-7,1,6,19,6,3,3,-1
17:44:48:877378,-7,1,6,19,6,3,3,-1
17:44:48:878158,8,-11,-9,-14,-8,-11,-19,-13
17:44:48:892464,6,-2,6,12,16,6,12,10
17:44:48:893210,6,-2,6,12,16,6,12,10
17:44:48:899155,0,13,2,3,21,11,-2,-5
17:44:48:906646,-9,-16,-9,-22,-18,-7,-4,-8
17:44:48:914225,-9,-16,-9,-22,-18,-7,-4,-8
17:44:48:921646,-21,-8,5,2,1,3,5,-3
17:44:48:929161,-5,-2,-11,-13,-3,-1,-4,5
17:44:48:937349,-5,-2,-11,-13,-3,-1,-4,5
17:44:48:938132,5,-6,-4,-4,-1,-4,-5,-9
17:44:48:952315,-1,9,9,18,10,3,6,3
17:44:48:953185,-1,9,9,18,10,3,6,3
17:44:48:959155,8,15,12,31,-8,-8,-1,0
17:44:48:966653,0,0,-3,-9,17,13,18,-7
17:44:48:974188,0,0,-3,-9,17,13,18,-7
17:44:48:981671,-5,-17,-7,-10,-16,-11,3,10
17:44:48:989152,-22,-2,-10,-14,1,5,5,9
17:44:48:997385,-22,-2,-10,-14,1,5,5,9
17:44:48:998163,-12,-18,-8,5,-11,-8,2,2
17:44:49:12372,-12,26,0,-14,4,3,-16,-21
17:44:49:13165,-12,26,0,-14,4,3,-16,-21
17:44:49:19188,-7,0,-11,-19,-2,9,-13,-10
17:44:49:26739,-2,-9,1,6,-7,-8,1,3
17:44:49:34253,-2,-9,1,6,-7,-8,1,3
17:44:49:41651,-10,-9,-3,-3,2,-8,-5,-14
17:44:49:49247,4,-13,-2,-13,-18,-8,-5,-2
17:44:49:57391,4,-13,-2,-13,-18,-8,-5,-2
17:44:49:58151,13,16,1,15,18,11,3,7
17:44:49:72336,-3,-7,8,4,-14,-11,-12,-4
17:44:49:73167,-3,-7,8,4,-14,-11,-12,-4
17:44:49:79198,5,6,7,1,25,16,10,1
17:44:49:86600,18,-50,-16,-13,8,-2,-10,-10
17:44:49:94198,18,-50,-16,-13,8,-2,-10,-10
17:44:49:101620,-4,2,-5,-17,-22,-9,7,-1
17:44:49:109204,-2,0,-4,-11,-14,-10,-2,6
17:44:49:117357,-2,0,-4,-11,-14,-10,-2,6
17:44:49:118172,9,15,-1,8,9,5,6,8
17:44:49:132356,11,14,4,-6,-19,-13,-6,8
17:44:49:133150,11,14,4,-6,-19,-13,-6,8
17:44:49:139157,-24,14,3,15,14,-1,-3,-8
17:44:49:146702,-5,-4,0,0,7,5,-2,5
17:44:49:154205,-5,-4,0,0,7,5,-2,5
17:44:49:161646,18,-2,-3,-15,-20,-10,3,7
17:44:49:169133,-9,11,4,8,3,4,17,21
17:44:49:177386,-9,11,4,8,3,4,17,21
17:44:49:178175,3,-22,-7,-7,-1,-1,-23,-11
17:44:49:192837,7,3,0,-5,3,3,2,0
17:44:49:193649,7,3,0,-5,3,3,2,0
17:44:49:199169,10,13,7,-10,-8,-5,-2,3
17:44:49:206636,-24,6,8,15,5,5,-6,-14
17:44:49:214288,-24,6,8,15,5,5,-6,-14
17:44:49:221635,-1,-17,-4,21,6,3,-1,-4
17:44:49:229180,-1,-2,-5,25,31,11,4,6
17:44:49:237346,-1,-2,-5,25,31,11,4,6
17:44:49:238132,0,15,1,-6,6,3,-5,2
17:44:49:252337,6,1,9,-7,-11,-10,-1,-5
17:44:49:253183,6,1,9,-7,-11,-10,-1,-5
17:44:49:259219,12,14,17,15,-12,-4,4,6
17:44:49:266664,12,11,-8,-10,9,5,-2,-3
17:44:49:274165,12,11,-8,-10,9,5,-2,-3
17:44:49:281681,5,4,-7,-6,-8,-9,-2,-3
17:44:49:289146,-5,-5,-1,-5,-20,-10,-6,-7
17:44:49:297354,-5,-5,-1,-5,-20,-10,-6,-7
17:44:49:298145,-13,-9,-6,-5,6,0,-8,-5
17:44:49:312355,-8,-15,0,-5,2,2,3,-7
17:44:49:313205,-8,-15,0,-5,2,2,3,-7
17:44:49:319158,8,-4,-3,-3,-3,-9,-6,-2
17:44:49:326650,1,-11,-6,-11,-4,2,5,-3
17:44:49:334177,1,-11,-6,-11,-4,2,5,-3
17:44:49:341630,-15,-20,5,16,12,4,-2,-3
17:44:49:349836,-6,3,-9,-1,-4,-3,-8,-1
17:44:49:350662,-6,3,-9,-1,-4,-3,-8,-1
17:44:49:356633,0,9,4,-8,-10,3,12,6
17:44:49:372363,-14,-4,-1,5,7,-2,1,20
17:44:49:373151,-14,-4,-1,5,7,-2,1,20
17:44:49:379198,-20,-21,-19,-14,-9,-8,-12,-19
17:44:49:386611,-21,3,-6,-14,-7,-7,-9,6
17:44:49:394277,-21,3,-6,-14,-7,-7,-9,6
17:44:49:401673,8,10,10,0,2,0,-10,-1
17:44:49:409863,5,6,-2,3,4,3,-9,-3
17:44:49:410678,5,6,-2,3,4,3,-9,-3
17:44:49:416667,5,1,-4,-5,6,10,25,-4
17:44:49:432351,12,-1,6,3,-11,-6,1,-6
17:44:49:433203,12,-1,6,3,-11,-6,1,-6
17:44:49:439151,16,1,-6,-8,-7,-1,0,1
17:44:49:446648,6,-23,11,13,-5,-6,0,3
17:44:49:454282,6,-23,11,13,-5,-6,0,3
17:44:49:461636,-59,-17,-15,8,6,-7,-2,-21
17:44:49:469787,9,47,8,4,27,19,-4,2
17:44:49:470625,9,47,8,4,27,19,-4,2
17:44:49:476665,-1,1,1,-14,-6,-8,-38,-31
17:44:49:492392,20,9,-2,8,-18,-11,2,-14
17:44:49:493199,20,9,-2,8,-18,-11,2,-14
17:44:49:499150,13,14,6,-2,1,8,22,26
17:44:49:506631,8,-5,-6,-10,-1,4,-4,3
17:44:49:514211,8,-5,-6,-10,-1,4,-4,3
17:44:49:521650,8,-7,4,2,-2,-1,2,1
17:44:49:529818,-8,-17,-9,4,1,-6,7,2
17:44:49:530625,-8,-17,-9,4,1,-6,7,2
17:44:49:536600,-6,1,2,6,-4,-5,-7,-2
17:44:49:552318,5,19,4,11,-1,-1,14,1
17:44:49:553150,5,19,4,11,-1,-1,14,1
17:44:49:559164,18,36,-4,-4,3,-7,1,28
17:44:49:566657,0,12,5,2,-7,-5,-30,-15
17:44:49:574167,0,12,5,2,-7,-5,-30,-15
17:44:49:581639,9,11,6,-6,1,5,13,-1
17:44:49:589839,-7,-2,-8,-11,-6,-4,0,-3
17:44:49:590650,-7,-2,-8,-11,-6,-4,0,-3
17:44:49:596629,-4,-11,1,6,13,6,5,10
17:44:49:612392,8,-7,-2,4,-3,-3,-4,-14
17:44:49:613162,8,-7,-2,4,-3,-3,-4,-14
17:44:49:619141,-6,-21,-4,7,-8,-2,-1,-1
17:44:49:626620,1,-1,1,22,17,3,8,7
17:44:49:634179,1,-1,1,22,17,3,8,7
17:44:49:641602,-2,-9,-2,-11,-2,1,-5,-4
17:44:49:649904,-11,-15,4,-10,-9,-2,4,0
17:44:49:650673,-11,-15,4,-10,-9,-2,4,0
17:44:49:656646,-22,-24,-4,-3,-6,-3,-6,-14
17:44:49:672341,-10,-16,-4,-18,-1,-2,-1,-3
17:44:49:673133,-10,-16,-4,-18,-1,-2,-1,-3
17:44:49:679150,10,5,-3,2,-9,-1,6,10
17:44:49:686610,8,0,-3,-19,-10,-4,-4,-7
17:44:49:694288,8,0,-3,-19,-10,-4,-4,-7
17:44:49:701637,-22,-12,-10,-6,6,4,-1,-3
17:44:49:709885,0,-3,-4,-10,-1,-2,-7,-1
17:44:49:710678,0,-3,-4,-10,-1,-2,-7,-1
17:44:49:716617,9,9,-3,-10,1,2,5,7
17:44:49:732345,-20,-1,1,3,1,-7,-20,-10
17:44:49:733163,-20,-1,1,3,1,-7,-20,-10
17:44:49:739161,7,-11,-16,6,-1,0,-1,-16
17:44:49:746693,-2,2,2,3,-10,-2,3,-9
17:44:49:754212,-2,2,2,3,-10,-2,3,-9
17:44:49:761630,5,1,3,-14,3,-3,-6,2
17:44:49:769808,-2,-9,-4,-4,-3,-1,8,8
17:44:49:770639,-2,-9,-4,-4,-3,-1,8,8
17:44:49:784178,-4,16,12,3,0,0,-7,1
17:44:49:792370,7,-8,-3,6,5,2,1,5
17:44:49:793178,7,-8,-3,6,5,2,1,5
17:44:49:799232,-16,-5,-11,-5,-6,-3,-3,-6
17:44:49:814871,-4,14,-1,-1,2,3,8,3
17:44:49:815650,-4,14,-1,-1,2,3,8,3
17:44:49:821618,16,-9,4,3,-2,-5,3,-4
17:44:49:829867,20,-7,2,1,4,14,10,19
17:44:49:830677,20,-7,2,1,4,14,10,19
17:44:49:844211,-11,15,9,22,14,6,1,0
17:44:49:852360,0,-5,-3,3,0,-4,-7,2
17:44:49:853179,0,-5,-3,3,0,-4,-7,2
17:44:49:859167,18,3,-4,-31,-13,-7,2,0
17:44:49:874856,-11,-3,-7,-7,-6,-3,-2,-6
17:44:49:875675,-11,-3,-7,-7,-6,-3,-2,-6
17:44:49:881633,12,-4,4,6,14,1,-6,5
17:44:49:889827,14,-16,1,3,0,-1,-11,-10
17:44:49:890680,14,-16,1,3,0,-1,-11,-10
17:44:49:904173,-12,5,1,-7,-14,-14,-13,-2
17:44:49:912363,-4,3,-4,4,-1,-7,-11,-19
17:44:49:913173,-4,3,-4,4,-1,-7,-11,-19
17:44:49:919221,-10,2,2,-1,-5,4,1,-4
17:44:49:934846,-9,-3,2,26,1,1,16,-2
17:44:49:935667,-9,-3,2,26,1,1,16,-2
17:44:49:941643,4,-1,0,-3,-7,-4,-1,10
17:44:49:949817,10,26,10,-8,0,-2,-10,0
17:44:49:950638,10,26,10,-8,0,-2,-10,0
17:44:49:964169,-11,-5,3,13,-3,1,17,19
17:44:49:972352,-2,7,7,-7,-4,0,-19,-14
17:44:49:973161,-2,7,7,-7,-4,0,-19,-14
17:44:49:979206,13,-1,-5,-14,-4,-1,-1,-1
17:44:49:994840,-7,-18,-13,-13,1,0,17,9
17:44:49:995645,-7,-18,-13,-13,1,0,17,9
17:44:50:1615,-1,-2,5,-7,0,1,2,-5
17:44:50:9856,5,-5,-7,2,-7,-5,4,3
17:44:50:10662,5,-5,-7,2,-7,-5,4,3
17:44:50:24164,-9,-11,-3,12,0,-4,-8,-7
17:44:50:32335,-2,5,-3,-2,0,5,12,8
17:44:50:33222,-2,5,-3,-2,0,5,12,8
17:44:50:39165,-10,-8,2,4,8,-1,-16,-3
17:44:50:54831,13,12,-3,-8,-1,-1,-27,-3
17:44:50:55635,13,12,-3,-8,-1,-1,-27,-3
17:44:50:61611,15,7,7,0,-7,-2,-11,6
17:44:50:69839,-4,-11,-5,-3,-5,-5,3,7
17:44:50:70654,-4,-11,-5,-3,-5,-5,3,7
17:44:50:84183,-9,6,1,26,-6,3,4,4
17:44:50:92330,-5,-34,-17,-6,6,6,14,1
17:44:50:93155,-5,-34,-17,-6,6,6,14,1
17:44:50:99166,-3,24,-4,-7,-2,-1,0,-4
17:44:50:114856,-14,-9,-2,-8,-7,-7,-4,-5
17:44:50:115639,-14,-9,-2,-8,-7,-7,-4,-5
17:44:50:121664,33,7,-4,-6,-4,-2,-1,4
17:44:50:129819,-2,-14,0,-4,3,1,13,6
17:44:50:130632,-2,-14,0,-4,3,1,13,6
17:44:50:144188,-4,-17,2,-4,5,0,1,-7
17:44:50:152341,2,2,7,-8,-1,1,4,-1
17:44:50:153172,2,2,7,-8,-1,1,4,-1
17:44:50:159153,-13,13,-8,-7,3,4,-13,-10
17:44:50:174791,27,24,1,6,-6,-2,8,16
17:44:50:175643,27,24,1,6,-6,-2,8,16
17:44:50:181734,3,1,-9,-4,-1,-6,3,3
17:44:50:197383,3,1,-9,-4,-1,-6,3,3
17:44:50:198187,-6,9,7,2,3,-1,-6,8
17:44:50:204162,-3,-12,1,2,0,-2,-1,-5
17:44:50:212342,-3,-12,1,2,0,-2,-1,-5
17:44:50:213151,-23,-10,-3,4,8,1,-11,-10
17:44:50:219175,-15,-23,-4,4,4,-1,4,-5
17:44:50:234887,-15,-23,-4,4,4,-1,4,-5
17:44:50:235709,-12,2,6,9,-1,-6,-16,-14
17:44:50:241663,16,6,2,3,-1,1,11,-3
17:44:50:257378,16,6,2,3,-1,1,11,-3
17:44:50:258163,-10,-32,-7,-6,-4,-1,4,-22
17:44:50:264139,4,-7,-2,-9,-2,-2,3,12
17:44:50:272366,4,-7,-2,-9,-2,-2,3,12
17:44:50:273210,-24,16,4,-1,-1,-1,-2,7
17:44:50:279172,-10,2,0,-7,-3,-2,-3,3
17:44:50:294952,-10,2,0,-7,-3,-2,-3,3
17:44:50:295690,-4,18,4,4,3,12,27,4
17:44:50:301634,-28,9,-2,-13,-10,-6,-3,-7
17:44:50:317390,-28,9,-2,-13,-10,-6,-3,-7
17:44:50:318178,-9,6,-7,-11,2,-4,-9,-2
17:44:50:324176,-3,-12,0,-5,-5,-3,-9,-9
17:44:50:332389,-3,-12,0,-5,-5,-3,-9,-9
17:44:50:333174,10,13,-5,-2,-4,1,-3,3
17:44:50:339167,9,-6,-2,0,5,2,2,2
17:44:50:354875,9,-6,-2,0,5,2,2,2
17:44:50:355662,7,-48,0,12,5,1,-1,8
17:44:50:361664,6,-2,-1,10,3,4,6,-2
17:44:50:377360,6,-2,-1,10,3,4,6,-2
17:44:50:378139,-2,12,-7,-1,-7,-3,6,-6
17:44:50:384167,7,-8,2,-3,3,8,-4,-7
17:44:50:392383,7,-8,2,-3,3,8,-4,-7
17:44:50:393159,-3,-8,-4,-2,5,10,8,5
17:44:50:399162,3,-12,-10,4,0,-5,-4,0
17:44:50:414856,3,-12,-10,4,0,-5,-4,0
17:44:50:415640,-6,-2,-2,-3,-5,-2,-6,-7
17:44:50:421621,-6,-9,-10,-7,-19,-9,-5,0
17:44:50:437362,-6,-9,-10,-7,-19,-9,-5,0
17:44:50:438162,23,23,4,-17,-4,-5,2,9
17:44:50:444171,-10,23,-1,-4,-1,-5,-19,-15
17:44:50:452334,-10,23,-1,-4,-1,-5,-19,-15
17:44:50:453180,3,-17,5,0,-14,-10,-10,-2
17:44:50:459163,-16,11,12,6,0,-2,-4,7
17:44:50:474883,-16,11,12,6,0,-2,-4,7
17:44:50:475633,7,9,-1,5,6,5,6,17
17:44:50:481611,12,3,-6,8,11,8,3,-5
17:44:50:497357,12,3,-6,8,11,8,3,-5
17:44:50:498142,-27,6,-8,-6,-9,-12,-7,-10
17:44:50:504160,-4,1,3,8,-3,1,8,-2
17:44:50:512352,-4,1,3,8,-3,1,8,-2
17:44:50:513152,9,12,4,3,4,3,-6,-13
17:44:50:519168,-2,0,2,-10,1,1,4,-4
17:44:50:534851,-2,0,2,-10,1,1,4,-4
17:44:50:535658,-5,18,2,-2,-2,-2,0,-4
17:44:50:541618,2,4,2,1,4,-4,0,-11
17:44:50:557345,2,4,2,1,4,-4,0,-11
17:44:50:558177,5,6,1,4,-1,-5,0,-11
17:44:50:564180,13,-17,-4,-3,-2,14,42,11
17:44:50:572336,13,-17,-4,-3,-2,14,42,11
17:44:50:573152,5,-15,-7,-6,-2,1,-5,6
17:44:50:579192,-32,-15,-2,-14,-4,-7,-13,-7
17:44:50:594886,-32,-15,-2,-14,-4,-7,-13,-7
17:44:50:595678,-24,-25,-7,2,-1,1,0,-4
17:44:50:601736,1,-11,-2,4,9,3,-4,1
17:44:50:609191,1,-11,-2,4,9,3,-4,1
17:44:50:616648,-23,-13,-3,-21,2,0,-9,-10
17:44:50:624167,15,3,3,-5,-2,-1,4,5
17:44:50:632359,15,3,3,-5,-2,-1,4,5
17:44:50:633195,3,-21,2,7,0,-2,-6,5
17:44:50:639182,4,17,7,1,-1,-1,6,13
17:44:50:654879,4,17,7,1,-1,-1,6,13
17:44:50:655654,26,-10,-4,6,1,-1,7,-7
17:44:50:661624,4,-6,-4,12,0,-6,-13,-2
17:44:50:669200,4,-6,-4,12,0,-6,-13,-2
17:44:50:676630,2,5,-6,-14,6,0,3,-4
17:44:50:684194,0,2,0,-2,-3,-3,-6,-4
17:44:50:692370,0,2,0,-2,-3,-3,-6,-4
17:44:50:693167,5,13,1,16,6,-1,-4,1
17:44:50:699170,-9,3,-9,-3,-6,-4,0,3
17:44:50:714886,-9,3,-9,-3,-6,-4,0,3
17:44:50:715669,9,10,3,-9,-5,-4,-13,5
17:44:50:721613,7,-8,-13,-4,-4,-2,6,5
17:44:50:729249,7,-8,-13,-4,-4,-2,6,5
17:44:50:736637,-5,-4,-9,18,5,3,-1,-9
17:44:50:744201,6,-12,2,-10,2,-3,-5,9
17:44:50:752327,6,-12,2,-10,2,-3,-5,9
17:44:50:753157,17,1,0,-1,-1,3,7,14
17:44:50:766667,-16,19,-1,4,1,-1,-1,-20
17:44:50:774885,-16,19,-1,4,1,-1,-1,-20
17:44:50:775641,19,30,14,4,0,1,-3,20
17:44:50:781647,-3,-2,1,-5,-8,-6,-20,-1
17:44:50:789237,-3,-2,1,-5,-8,-6,-20,-1
17:44:50:796661,-20,-1,2,-1,-7,-6,-11,-20
17:44:50:804180,4,-20,-10,3,2,0,3,-1
17:44:50:812336,4,-20,-10,3,2,0,3,-1
17:44:50:813143,2,-15,-1,-22,-8,-2,14,-4
17:44:50:826654,-14,-8,3,0,0,6,13,1
17:44:50:834901,-14,-8,3,0,0,6,13,1
17:44:50:835633,27,4,-5,1,-3,-11,-12,8
17:44:50:841665,-9,-10,-4,-9,-6,-5,-12,-19
17:44:50:849192,-9,-10,-4,-9,-6,-5,-12,-19
17:44:50:856698,-10,7,4,-3,-4,5,27,-11
17:44:50:864174,15,9,1,7,2,5,10,13
17:44:50:872335,15,9,1,7,2,5,10,13
17:44:50:873189,6,-5,-2,1,0,-5,-14,2
17:44:50:886728,-6,0,6,1,-2,-1,6,-2
17:44:50:894877,-6,0,6,1,-2,-1,6,-2
17:44:50:895641,20,2,1,-10,-5,-2,-3,8
17:44:50:901633,-1,4,-5,-7,4,0,-8,-4
17:44:50:909180,-1,4,-5,-7,4,0,-8,-4
17:44:50:916638,0,-1,-2,9,-1,-3,-15,6
17:44:50:924157,-1,20,1,-1,-4,-3,-7,5
17:44:50:932445,-1,20,1,-1,-4,-3,-7,5
17:44:50:933165,-4,-15,0,-3,7,3,-2,-7
17:44:50:946601,-31,14,4,5,-6,-9,-18,-4
17:44:50:954850,-31,14,4,5,-6,-9,-18,-4
17:44:50:955666,-14,6,2,4,7,10,9,-7
17:44:50:961613,4,-20,1,1,-4,2,11,-2
17:44:50:969267,4,-20,1,1,-4,2,11,-2
17:44:50:976697,-15,1,-4,-14,-11,0,14,13
17:44:50:984172,9,5,-3,11,5,1,-1,-3
17:44:50:992385,9,5,-3,11,5,1,-1,-3
17:44:50:993164,-1,-11,-1,2,2,2,3,-9
17:44:51:6631,7,6,3,-6,-6,-6,-13,3
17:44:51:14849,7,6,3,-6,-6,-6,-13,3
17:44:51:15669,-18,-14,-6,3,1,-4,-9,-9
17:44:51:21614,-9,-27,-11,0,-2,-2,3,-3
17:44:51:29231,-9,-27,-11,0,-2,-2,3,-3
17:44:51:36657,-8,-6,-7,-2,-5,-7,-5,-3
17:44:51:44195,7,-5,-2,-4,1,2,-2,-5
17:44:51:52331,7,-5,-2,-4,1,2,-2,-5
17:44:51:53173,19,-9,-6,2,1,2,-1,10
17:44:51:66637,-2,8,0,-4,4,2,-8,-8
17:44:51:74893,-2,8,0,-4,4,2,-8,-8
17:44:51:75682,-10,16,-3,4,-5,-3,4,-10
17:44:51:81644,7,-7,0,-7,-3,5,8,8
17:44:51:89191,7,-7,0,-7,-3,5,8,8
17:44:51:96650,-5,6,6,6,1,-6,-9,-8
17:44:51:104169,-6,9,10,3,0,-4,3,18
17:44:51:112339,-6,9,10,3,0,-4,3,18
17:44:51:113169,8,13,6,2,-2,1,3,9
17:44:51:126685,3,3,-4,0,-4,-4,-4,-10
17:44:51:134831,3,3,-4,0,-4,-4,-4,-10
17:44:51:135623,-5,1,0,-8,-2,-1,5,0
17:44:51:141657,15,7,-3,0,1,-1,-6,10
17:44:51:149168,15,7,-3,0,1,-1,-6,10
17:44:51:156633,-13,-16,-9,-10,-5,-2,-21,-1
17:44:51:164101,-1,6,3,-1,-2,0,8,0
17:44:51:172358,-1,6,3,-1,-2,0,8,0
17:44:51:173159,-8,-12,-3,-6,4,-7,-16,3
17:44:51:186652,23,-2,4,4,-3,-7,-5,-1
17:44:51:194841,23,-2,4,4,-3,-7,-5,-1
17:44:51:195643,0,-4,-3,1,-5,-3,-6,-6
17:44:51:201569,-11,-10,4,10,3,4,0,-12
17:44:51:209292,-11,-10,4,10,3,4,0,-12
17:44:51:216627,4,-24,-5,1,1,7,15,9
17:44:51:224174,-13,0,-4,-12,-4,-3,-1,5
17:44:51:232366,-13,0,-4,-12,-4,-3,-1,5
17:44:51:233167,7,4,3,7,10,4,-5,-2
17:44:51:246710,-8,-1,-2,-3,4,4,8,-5
17:44:51:254852,-8,-1,-2,-3,4,4,8,-5
17:44:51:255637,-16,12,2,4,-6,-5,7,-5
17:44:51:261636,6,16,2,-2,2,7,3,-3
17:44:51:269242,6,16,2,-2,2,7,3,-3
17:44:51:276699,-12,-6,2,-3,-5,-1,6,2
17:44:51:284186,-22,-28,-14,-4,-6,-13,-15,-9
17:44:51:292429,-22,-28,-14,-4,-6,-13,-15,-9
17:44:51:293214,11,18,3,1,-3,-2,-10,-6
17:44:51:306630,-1,-18,-7,-4,2,5,15,6
17:44:51:314868,-1,-18,-7,-4,2,5,15,6
17:44:51:315670,14,1,1,9,6,-1,3,3
17:44:51:321673,3,15,9,15,2,-3,-7,3
17:44:51:329217,3,15,9,15,2,-3,-7,3
17:44:51:336650,0,-14,5,-4,5,4,5,0
17:44:51:344229,-2,-18,-9,-2,-4,2,8,-1
17:44:51:352322,-2,-18,-9,-2,-4,2,8,-1
17:44:51:353144,0,13,-7,-15,-11,-7,0,-11
17:44:51:366663,28,15,-3,11,1,-1,-3,7
17:44:51:374892,28,15,-3,11,1,-1,-3,7
17:44:51:375670,-12,-31,-2,7,1,-4,-4,-2
17:44:51:381747,-35,-4,3,-7,-6,-2,-8,-14
17:44:51:389172,-35,-4,3,-7,-6,-2,-8,-14
17:44:51:396661,-15,23,5,3,3,-1,-10,-19
17:44:51:404193,4,-10,7,-1,0,2,-4,2
17:44:51:412343,4,-10,7,-1,0,2,-4,2
17:44:51:413158,-10,16,3,-7,-7,-3,-1,-2
17:44:51:426647,3,-6,-5,-7,-2,-1,7,1
17:44:51:434828,3,-6,-5,-7,-2,-1,7,1
17:44:51:435626,20,21,-6,-14,-8,-3,-1,-4
17:44:51:441665,-24,-8,4,25,12,5,1,0
17:44:51:449185,-24,-8,4,25,12,5,1,0
17:44:51:456626,4,7,2,4,6,3,5,0
17:44:51:464139,15,4,-5,-9,-5,-10,-5,8
17:44:51:472392,15,4,-5,-9,-5,-10,-5,8
17:44:51:473158,1,-1,0,-1,-3,-3,-2,9
17:44:51:486670,14,8,-5,-14,-7,-6,-5,-8
17:44:51:494868,14,8,-5,-14,-7,-6,-5,-8
17:44:51:495649,8,-26,-7,2,9,5,3,8
17:44:51:501637,-2,1,-10,-2,2,4,4,4
17:44:51:509212,-2,1,-10,-2,2,4,4,4
17:44:51:516655,6,2,4,-18,-9,-7,-4,0
17:44:51:524171,10,10,-2,-7,-6,-2,4,-6
17:44:51:532364,10,10,-2,-7,-6,-2,4,-6
17:44:51:533199,-12,-14,-11,-3,-7,-5,-11,16
17:44:51:546641,-5,-6,-1,-7,-4,1,9,3
17:44:51:554860,-5,-6,-1,-7,-4,1,9,3
17:44:51:555646,-5,-13,-5,3,-7,-7,-2,-12
17:44:51:561644,5,3,3,3,3,3,-2,-3
17:44:51:569197,5,3,3,3,3,3,-2,-3
17:44:51:576635,-10,-3,2,4,0,2,1,-1
17:44:51:584169,-3,9,1,-23,-9,-8,-8,-7
17:44:51:592389,-3,9,1,-23,-9,-8,-8,-7
17:44:51:593162,18,17,6,-1,-1,0,3,3
17:44:51:606653,-7,-2,4,-6,-6,-4,-7,1
17:44:51:614836,-7,-2,4,-6,-6,-4,-7,1
17:44:51:615686,0,-1,-4,2,1,2,2,-4
17:44:51:621648,5,-11,0,6,4,4,-2,5
17:44:51:629230,5,-11,0,6,4,4,-2,5
17:44:51:636728,-15,-3,-4,1,-2,2,20,-5
17:44:51:644182,-16,-6,-7,-1,-1,-2,-4,-9
17:44:51:652317,-16,-6,-7,-1,-1,-2,-4,-9
17:44:51:653160,-19,-32,1,4,3,2,-4,10
17:44:51:666625,3,-2,4,6,-2,-3,1,1
17:44:51:674886,3,-2,4,6,-2,-3,1,1
17:44:51:675707,-16,-12,-2,-8,-6,-5,-12,-13
17:44:51:689842,-10,-24,-1,-2,6,3,-1,-3
17:44:51:690667,-10,-24,-1,-2,6,3,-1,-3
17:44:51:696642,4,-10,-3,1,-1,-1,-3,2
17:44:51:704180,-7,0,-5,-4,-12,-5,-2,-4
17:44:51:711733,-7,0,-5,-4,-12,-5,-2,-4
17:44:51:719181,-10,47,6,-2,4,1,-5,-1
17:44:51:726656,3,-5,-5,2,1,-1,11,-2
17:44:51:734928,3,-5,-5,2,1,-1,11,-2
17:44:51:735622,14,25,7,17,2,-1,4,2
17:44:51:749786,1,3,6,4,1,-1,-2,0
17:44:51:750734,1,3,6,4,1,-1,-2,0
17:44:51:756655,14,-8,-4,-3,-1,0,-5,-3
17:44:51:764271,-2,-8,-11,-1,2,-3,-9,2
17:44:51:771673,-2,-8,-11,-1,2,-3,-9,2
17:44:51:779189,-18,-6,2,5,4,-1,-10,-14
17:44:51:786629,-11,11,3,-4,2,0,3,-3
17:44:51:794859,-11,11,3,-4,2,0,3,-3
17:44:51:795663,8,-15,-2,1,-3,-2,4,-3
17:44:51:809839,11,22,2,6,0,2,0,-9
17:44:51:810642,11,22,2,6,0,2,0,-9
17:44:51:816612,3,-3,-13,-9,-6,-7,-4,1
17:44:51:824108,13,18,0,0,2,4,-2,2
17:44:51:831696,13,18,0,0,2,4,-2,2
17:44:51:839208,-10,4,-4,-6,4,9,16,17
17:44:51:846628,-19,-1,-6,-4,-10,-6,5,0
17:44:51:854846,-19,-1,-6,-4,-10,-6,5,0
17:44:51:855640,4,2,-5,-1,1,3,-1,-6
17:44:51:869898,-9,-3,3,1,3,2,7,0
17:44:51:870691,-9,-3,3,1,3,2,7,0
17:44:51:876626,13,-3,-5,-27,-11,-7,-6,-4
17:44:51:884170,20,-23,-7,0,1,-4,-5,-5
17:44:51:891721,20,-23,-7,0,1,-4,-5,-5
17:44:51:899168,1,10,0,4,1,-5,-8,-4
17:44:51:906635,1,-1,-3,-7,-3,-6,-7,-3
17:44:51:914839,1,-1,-3,-7,-3,-6,-7,-3
17:44:51:915664,2,-8,-1,-1,0,-4,-6,-3
17:44:51:929824,-2,-9,-1,7,1,1,-6,-3
17:44:51:930670,-2,-9,-1,7,1,1,-6,-3
17:44:51:936633,-11,-3,2,4,7,12,11,-1
17:44:51:944221,19,15,2,1,-4,-5,0,0
17:44:51:951712,19,15,2,1,-4,-5,0,0
17:44:51:959190,-24,-13,1,3,-2,-2,-1,-2
17:44:51:966613,5,3,5,-1,2,0,3,7
17:44:51:974847,5,3,5,-1,2,0,3,7
17:44:51:975647,-8,-15,-3,3,-2,-2,-5,-8
17:44:51:989898,-27,-8,-2,-5,-5,-5,-13,-14
17:44:51:990675,-27,-8,-2,-5,-5,-5,-13,-14
17:44:51:996650,12,11,5,-2,-3,0,8,6
17:44:52:4214,-5,-31,-5,1,1,-2,0,0
17:44:52:11659,-5,-31,-5,1,1,-2,0,0
17:44:52:19176,-30,-6,-2,1,2,1,12,-11
17:44:52:26703,-7,0,-5,-8,-6,-7,-11,-1
17:44:52:34873,-7,0,-5,-8,-6,-7,-11,-1
17:44:52:35613,18,13,2,14,3,-1,-12,1
17:44:52:49872,21,-9,5,-1,3,7,14,15
17:44:52:50879,21,-9,5,-1,3,7,14,15
17:44:52:56648,23,1,-3,-1,-5,-3,-5,-1
17:44:52:64211,4,13,2,19,5,-2,-3,-1
17:44:52:71676,4,13,2,19,5,-2,-3,-1
17:44:52:79108,-7,-12,-2,-3,4,-1,-2,4
17:44:52:86605,-3,2,-2,-6,-8,-4,-9,-3
17:44:52:94897,-3,2,-2,-6,-8,-4,-9,-3
17:44:52:95654,-2,6,4,-3,-1,1,2,6
17:44:52:109839,-14,-3,-2,1,6,2,7,-5
17:44:52:110657,-14,-3,-2,1,6,2,7,-5
17:44:52:116609,6,-4,-6,-3,-3,0,1,-1
17:44:52:124101,3,37,8,1,-3,1,-1,9
17:44:52:131681,3,37,8,1,-3,1,-1,9
17:44:52:139181,4,1,-1,-1,-4,-3,-3,-7
17:44:52:146636,-18,-54,-7,-5,1,6,4,9
17:44:52:162349,-18,-54,-7,-5,1,6,4,9
17:44:52:163165,-6,-6,-10,-8,-6,-3,4,4
17:44:52:169806,0,-6,-2,-2,3,2,1,-4
17:44:52:170630,0,-6,-2,-2,3,2,1,-4
17:44:52:176655,-4,-6,0,-16,-3,-2,-2,-1
17:44:52:184196,-1,21,4,-6,-1,-2,-4,-2
17:44:52:191716,-1,21,4,-6,-1,-2,-4,-2
17:44:52:199252,21,20,10,-5,-6,-4,-3,-9
17:44:52:206616,-5,-2,-4,2,2,-3,-4,-5
17:44:52:214889,-5,-2,-4,2,2,-3,-4,-5
17:44:52:215722,4,-10,3,1,2,2,3,2
17:44:52:229842,-10,1,0,-2,-3,-4,-6,-16
17:44:52:230649,-10,1,0,-2,-3,-4,-6,-16
17:44:52:244787,11,-10,-5,3,3,0,3,20
17:44:52:245604,-4,-3,-7,3,6,-1,-9,-5
17:44:52:251686,-4,-3,-7,3,6,-1,-9,-5
17:44:52:259172,-8,3,1,-2,-1,2,7,3
17:44:52:266639,-12,-21,-2,-10,-10,-5,-3,-2
17:44:52:274854,-12,-21,-2,-10,-10,-5,-3,-2
17:44:52:275668,-23,-28,-9,5,7,4,-6,-6
17:44:52:289816,13,13,4,-1,-3,2,8,9
17:44:52:290643,13,13,4,-1,-3,2,8,9
17:44:52:296638,-12,1,-6,-4,-14,-7,-3,-4
17:44:52:304174,-18,-12,-2,10,5,-2,6,0
17:44:52:311715,-18,-12,-2,10,5,-2,6,0
17:44:52:327293,-10,1,-2,0,0,-2,-6,-10
17:44:52:328074,12,6,-1,-3,-3,7,7,5
17:44:52:334858,12,6,-1,-3,-3,7,7,5
17:44:52:335668,-2,4,-7,5,0,0,-3,1
17:44:52:357949,8,37,6,-3,-3,-5,-5,-8
17:44:52:358773,8,37,6,-3,-3,-5,-5,-8
17:44:52:359605,1,-15,-2,5,1,-4,-10,-3
17:44:52:364228,-3,-6,1,-1,1,1,1,6
17:44:52:371718,-3,-6,1,-1,1,1,1,6
17:44:52:379110,3,4,1,-3,-4,0,1,-8
17:44:52:386609,-1,-8,3,0,0,0,-8,-8
17:44:52:394841,-1,-8,3,0,0,0,-8,-8
17:44:52:395711,9,-18,-7,0,-9,-9,-6,-2
17:44:52:409817,14,-24,-4,-3,1,7,0,6
17:44:52:410634,14,-24,-4,-3,1,7,0,6
17:44:52:416596,-6,1,4,8,12,4,-6,-4
17:44:52:424112,0,4,-10,-6,-5,-7,-4,-8
17:44:52:431686,0,4,-10,-6,-5,-7,-4,-8
17:44:52:439180,-21,-3,0,1,-3,-2,-7,-19
17:44:52:446614,1,-8,-7,-4,0,-2,0,-13
17:44:52:454855,1,-8,-7,-4,0,-2,0,-13
17:44:52:455642,17,19,4,-2,-1,-1,6,22
17:44:52:469854,17,-13,-7,-8,-3,-2,-3,3
17:44:52:470651,17,-13,-7,-8,-3,-2,-3,3
17:44:52:476638,-3,14,1,3,3,0,-10,-12
17:44:52:484176,11,24,0,5,-5,-5,-1,5
17:44:52:491698,11,24,0,5,-5,-5,-1,5
17:44:52:499178,3,5,1,-5,-6,-2,-4,3
17:44:52:506624,5,-3,7,-1,-1,3,6,6
17:44:52:522377,5,-3,7,-1,-1,3,6,6
17:44:52:523173,-5,2,-1,-7,-5,-7,-5,1
17:44:52:529833,-25,-23,-15,-8,-7,-1,-3,-7
17:44:52:530642,-25,-23,-15,-8,-7,-1,-3,-7
17:44:52:536696,6,3,6,2,1,1,11,5
17:44:52:552419,1,-7,-10,-5,2,-3,-2,-1
17:44:52:553171,1,-7,-10,-5,2,-3,-2,-1
17:44:52:559189,3,1,1,-7,-3,3,5,-2
17:44:52:566611,-5,7,3,-3,9,3,3,4
17:44:52:574859,-5,7,3,-3,9,3,3,4
17:44:52:575669,10,0,3,5,4,2,4,-2
17:44:52:589832,-16,-9,1,-6,-5,-2,-4,-9
17:44:52:590640,-16,-9,1,-6,-5,-2,-4,-9
17:44:52:604747,-1,-8,-4,-2,-1,-4,-5,-7
17:44:52:605570,13,7,1,4,0,-1,0,15
17:44:52:611690,13,7,1,4,0,-1,0,15
17:44:52:619104,-8,-12,-7,-5,-9,-7,-6,-4
17:44:52:626615,-13,4,6,2,-5,0,0,-2
17:44:52:634187,-13,4,6,2,-5,0,0,-2
17:44:52:641632,7,12,4,2,10,8,11,4
17:44:52:649892,13,5,-3,-4,-6,-4,-7,-5
17:44:52:650664,13,5,-3,-4,-6,-4,-7,-5
17:44:52:656629,-10,9,-6,2,-3,-6,-5,-13
17:44:52:672347,-14,-6,11,7,2,0,-2,-6
17:44:52:673182,-14,-6,11,7,2,0,-2,-6
17:44:52:679207,6,22,4,-1,-1,5,-2,2
17:44:52:686648,-3,7,-4,-5,-4,-6,-3,-6
17:44:52:694195,-3,7,-4,-5,-4,-6,-3,-6
17:44:52:701695,2,6,-5,1,0,-2,-2,2
17:44:52:709815,-19,-12,-2,2,3,2,-1,1
17:44:52:710621,-19,-12,-2,2,3,2,-1,1
17:44:52:716650,6,3,5,5,-5,-1,-1,5
17:44:52:732378,-2,-1,-6,-1,8,4,4,2
17:44:52:733197,-2,-1,-6,-1,8,4,4,2
17:44:52:739184,-7,-52,-13,-5,1,-7,0,0
17:44:52:746668,-5,2,-3,-1,-10,-4,-1,-1
17:44:52:754221,-5,2,-3,-1,-10,-4,-1,-1
17:44:52:761691,-6,-19,3,13,-6,-1,1,-4
17:44:52:769820,21,0,-2,4,-2,3,3,2
17:44:52:770630,21,0,-2,4,-2,3,3,2
17:44:52:776686,8,-1,0,-14,2,1,5,19
17:44:52:800550,2,16,0,-4,-5,-5,-1,-8
17:44:52:801386,2,16,0,-4,-5,-5,-1,-8
17:44:52:802156,-14,-4,0,-1,2,2,5,-4
17:44:52:806637,16,-21,-11,-4,1,-2,2,8
17:44:52:814214,16,-21,-11,-4,1,-2,2,8
17:44:52:821650,-15,8,2,-5,-4,-5,-13,-8
17:44:52:829828,0,13,3,2,-1,-4,-3,3
17:44:52:830631,0,13,3,2,-1,-4,-3,3
17:44:52:844223,-2,6,-4,-5,7,7,3,1
17:44:52:852431,-11,-8,3,14,4,1,-6,-1
17:44:52:853179,-11,-8,3,14,4,1,-6,-1
17:44:52:859184,28,15,-2,-9,-2,0,0,3
17:44:52:866638,-8,-7,2,-11,-6,-5,1,1
17:44:52:882380,-8,-7,2,-11,-6,-5,1,1
17:44:52:883205,-9,15,3,2,-4,-3,-7,-14
17:44:52:889847,-3,8,1,3,-2,-1,-3,-4
17:44:52:890695,-3,8,1,3,-2,-1,-3,-4
17:44:52:896643,-16,-10,2,9,1,-1,3,-3
17:44:52:912340,-14,0,-1,-3,5,0,0,-5
17:44:52:913174,-14,0,-1,-3,5,0,0,-5
17:44:52:919185,-3,4,-4,-7,-6,-6,-7,0
17:44:52:926636,-9,5,-3,-1,-1,2,-1,-3
17:44:52:934212,-9,5,-3,-1,-1,2,-1,-3
17:44:52:941652,-5,-20,-5,-3,-10,-4,-2,6
17:44:52:949831,0,8,2,-7,1,-3,1,-3
17:44:52:950637,0,8,2,-7,1,-3,1,-3
17:44:52:956646,7,6,5,4,0,6,6,1
17:44:52:972366,2,-21,-10,1,1,2,5,-4
17:44:52:973198,2,-21,-10,1,1,2,5,-4
17:44:52:979203,-6,-6,-3,5,1,-5,-4,-2
17:44:52:994839,11,15,2,-6,-7,-3,-8,6
17:44:52:995665,11,15,2,-6,-7,-3,-8,6
17:44:53:1654,-7,5,0,-2,2,0,3,-9
17:44:53:9859,3,-14,-6,-5,-2,0,3,-3
17:44:53:10668,3,-14,-6,-5,-2,0,3,-3
17:44:53:16625,30,0,-5,-1,5,0,-6,-1
17:44:53:32373,-14,-2,-3,4,3,1,6,-2
17:44:53:33186,-14,-2,-3,4,3,1,6,-2
17:44:53:39190,0,-12,-7,1,-1,0,-3,-10
17:44:53:46647,12,10,6,10,0,-1,-8,-10
17:44:53:54218,12,10,6,10,0,-1,-8,-10
17:44:53:61631,-7,-12,3,2,4,1,2,6
17:44:53:78025,3,23,3,-2,-4,1,3,14
17:44:53:78911,3,23,3,-2,-4,1,3,14
17:44:53:79623,8,6,-1,-7,-8,-4,-3,9
17:44:53:92349,3,-15,-5,-1,-1,-1,-6,-3
17:44:53:93186,3,-15,-5,-1,-1,-1,-6,-3
17:44:53:99180,4,26,2,-4,-4,-4,0,2
17:44:53:106659,-2,-10,0,-7,-2,-2,-1,2
17:44:53:114231,-2,-10,0,-7,-2,-2,-1,2
17:44:53:121629,-24,-9,2,30,21,8,4,-8
17:44:53:129844,13,-10,-4,1,1,2,-4,6
17:44:53:130624,13,-10,-4,1,1,2,-4,6
17:44:53:136655,2,-9,-3,-13,-14,-5,-6,-5
17:44:53:161200,-1,10,4,4,13,7,0,-3
17:44:53:161948,-1,10,4,4,13,7,0,-3
17:44:53:162785,13,-2,-4,-7,-5,-2,3,13
17:44:53:166647,-11,-17,0,-6,-8,-7,1,0
17:44:53:174206,-11,-17,0,-6,-8,-7,1,0
17:44:53:181795,-14,-4,1,-5,-3,-2,0,-7
17:44:53:197972,-7,-11,-5,2,2,-4,-7,-12
17:44:53:198809,-7,-11,-5,2,2,-4,-7,-12
17:44:53:199635,-4,-14,5,12,1,3,5,4
17:44:53:212357,6,0,-2,11,10,6,6,8
17:44:53:213236,6,0,-2,11,10,6,6,8
17:44:53:219139,8,8,2,2,5,6,3,4
17:44:53:226620,4,35,5,-7,-11,-5,1,1
17:44:53:251203,4,35,5,-7,-11,-5,1,1
17:44:53:251985,7,-7,-9,-2,-2,-6,-5,-5
17:44:53:252812,23,21,5,0,-1,-4,0,4
17:44:53:253642,23,21,5,0,-1,-4,0,4
17:44:53:256650,-28,-4,-3,-7,5,1,0,-9
17:44:53:280481,-8,-13,-10,-8,-9,-4,-5,-10
17:44:53:281306,-8,-13,-10,-8,-9,-4,-5,-10
17:44:53:282176,6,13,4,3,-3,0,4,6
17:44:53:286638,-2,-8,-1,3,3,6,7,-4
17:44:53:294231,-2,-8,-1,3,3,6,7,-4
17:44:53:310510,3,9,4,-10,-4,-6,-3,5
17:44:53:311302,-1,-10,0,-5,-6,-1,0,-4
17:44:53:312171,-1,-10,0,-5,-6,-1,0,-4
17:44:53:324095,7,-9,-6,-7,-6,-9,-10,-4
17:44:53:332348,-20,-11,-6,-8,4,-1,-5,-5
17:44:53:333202,-20,-11,-6,-8,4,-1,-5,-5
17:44:53:339187,18,3,-3,-3,0,2,9,0
17:44:53:346652,-26,-24,0,14,7,1,0,-3
17:44:53:362366,-26,-24,0,14,7,1,0,-3
17:44:53:363244,-3,-2,-1,-8,-5,-1,-9,-8
17:44:53:369812,-9,-2,3,-10,-14,-7,-9,-4
17:44:53:370745,-9,-2,3,-10,-14,-7,-9,-4
17:44:53:376645,14,12,-3,-6,-1,2,-1,2
17:44:53:392799,8,-6,-6,-3,-4,-2,0,11
17:44:53:393634,8,-6,-6,-3,-4,-2,0,11
17:44:53:399152,-10,-1,3,4,5,2,4,3
17:44:53:406616,14,18,10,4,-2,-4,-1,-9
17:44:53:414227,14,18,10,4,-2,-4,-1,-9
17:44:53:421644,7,2,2,9,-8,-3,-8,-6
17:44:53:429865,-15,10,1,-1,3,3,3,2
17:44:53:430686,-15,10,1,-1,3,3,3,2
17:44:53:436637,-9,-16,-6,-2,-1,-1,5,1
17:44:53:452428,-9,-16,-6,-2,-1,-1,5,1
17:44:53:453194,18,46,5,-12,-12,-10,-5,5
17:44:53:459192,-11,-15,-3,-1,-8,-3,-7,-6
17:44:53:474887,-11,-15,-3,-1,-8,-3,-7,-6
17:44:53:475650,-10,-18,-2,23,5,7,0,-5
17:44:53:481634,-7,12,3,3,4,0,3,-2
17:44:53:489861,-7,12,3,3,4,0,3,-2
17:44:53:490650,-25,-26,-11,-11,-9,-6,-9,-5
17:44:53:504131,-29,-18,-1,0,-3,0,0,-4
17:44:53:512389,-29,-18,-1,0,-3,0,0,-4
17:44:53:513229,-2,-1,-3,-2,3,3,1,-5
17:44:53:519101,-11,-2,-7,-8,-1,-3,-6,-5
17:44:53:534856,-11,-2,-7,-8,-1,-3,-6,-5
17:44:53:535636,3,-4,-2,-5,-6,-1,-1,-4
17:44:53:541603,-1,1,-4,2,-3,-5,-2,-2
17:44:53:549647,-1,1,-4,2,-3,-5,-2,-2
17:44:53:556619,11,7,-10,3,4,5,10,5
17:44:53:564277,14,9,-5,3,7,-1,-5,-2
17:44:53:572360,14,9,-5,3,7,-1,-5,-2
17:44:53:573161,1,-7,-3,-22,-6,-6,-9,-7
17:44:53:579201,-10,-9,-5,-8,-2,-4,2,-2
17:44:53:594884,-10,-9,-5,-8,-2,-4,2,-2
17:44:53:595656,2,3,4,5,8,2,4,0
17:44:53:601642,7,-19,-1,0,-9,-1,-11,-6
17:44:53:609858,7,-19,-1,0,-9,-1,-11,-6
17:44:53:610635,6,3,2,-2,-5,-8,-10,-7
17:44:53:624118,14,-16,-3,5,13,7,6,-1
17:44:53:640503,14,-16,-3,5,13,7,6,-1
17:44:53:641314,0,9,-1,0,-1,-2,-2,3
17:44:53:642159,1,4,-5,-9,-6,-6,-5,0
17:44:53:654831,1,4,-5,-9,-6,-6,-5,0
17:44:53:655615,3,26,4,18,13,4,8,7
17:44:53:661667,-4,6,-1,13,-16,-5,2,-2
17:44:53:669841,-4,6,-1,13,-16,-5,2,-2
17:44:53:670646,7,-6,-7,-6,-3,2,2,3
17:44:53:684211,-4,23,10,0,7,4,7,3
17:44:53:700608,-4,23,10,0,7,4,7,3
17:44:53:701349,5,-8,3,-1,-2,-2,-4,-2
17:44:53:702160,-4,-12,-1,-19,-13,-7,-3,4
17:44:53:714875,-4,-12,-1,-19,-13,-7,-3,4
17:44:53:715653,-5,-16,-3,-2,2,2,0,-2
17:44:53:721674,15,27,10,9,-3,0,0,4
17:44:53:729887,15,27,10,9,-3,0,0,4
17:44:53:730661,-10,1,-3,-1,-4,-4,-2,0
17:44:53:744145,-14,-40,-18,-4,1,-3,-11,-6
17:44:53:752341,-14,-40,-18,-4,1,-3,-11,-6
17:44:53:753285,1,28,10,18,14,-1,11,9
17:44:53:759192,-22,-17,-6,-24,7,4,-3,-1
17:44:53:775235,-22,-17,-6,-24,7,4,-3,-1
17:44:53:782297,-9,-3,6,-36,-33,-12,-7,-7
17:44:53:783115,12,-6,1,19,8,1,3,1
17:44:53:789875,12,-6,1,19,8,1,3,1
17:44:53:790679,1,-8,-16,-23,-5,-1,-3,-1
17:44:53:804119,3,20,1,-6,-4,1,4,-3
17:44:53:812463,3,20,1,-6,-4,1,4,-3
17:44:53:813176,8,-34,-8,1,-4,-6,-10,-3
17:44:53:819118,-8,-9,-3,-5,-3,-4,1,2
17:44:53:835326,-8,-9,-3,-5,-3,-4,1,2
17:44:53:836192,1,4,8,17,5,7,-3,-8
17:44:53:841607,-15,2,4,-9,5,3,-2,-2
17:44:53:850070,-15,2,4,-9,5,3,-2,-2
17:44:53:850658,29,33,2,4,-2,-2,-5,4
17:44:53:864165,-25,-12,-3,-6,-12,-8,-2,-4
17:44:53:872337,-25,-12,-3,-6,-12,-8,-2,-4
17:44:53:873193,-16,-27,-10,9,9,-1,-1,-7
17:44:53:879124,15,10,4,5,6,1,-2,-3
17:44:53:895325,15,10,4,5,6,1,-2,-3
17:44:53:896180,7,12,-1,-11,0,2,4,1
17:44:53:918003,7,-18,-13,10,-7,-3,-5,-9
17:44:53:918860,7,-18,-13,10,-7,-3,-5,-9
17:44:53:919626,-28,-47,-9,4,1,3,-4,-2
17:44:53:924190,13,15,-2,-10,2,1,4,11
17:44:53:932317,13,15,-2,-10,2,1,4,11
17:44:53:933180,5,7,-3,-24,5,-2,0,-2
17:44:53:939215,21,25,5,1,0,2,4,5
17:44:53:954879,21,25,5,1,0,2,4,5
17:44:53:955664,-3,11,-2,-26,-9,-1,6,-1
17:44:53:961682,26,13,4,7,-4,-12,-13,-5
17:44:53:977354,26,13,4,7,-4,-12,-13,-5
17:44:53:978268,7,-27,-5,16,0,2,2,9
17:44:53:984119,10,30,21,7,8,10,9,6
17:44:53:992377,10,30,21,7,8,10,9,6
17:44:53:993197,-12,-29,1,0,-7,-8,-9,-4
17:44:53:999264,-18,-9,-2,-8,-16,-3,0,-2
17:44:54:14849,-18,-9,-2,-8,-16,-3,0,-2
17:44:54:15717,2,13,3,8,-3,-1,1,1
17:44:54:30512,11,-22,-7,1,4,4,1,-7
17:44:54:31312,11,-22,-7,1,4,4,1,-7
17:44:54:32167,-4,8,4,12,1,-2,-1,-5
17:44:54:44124,-9,-4,-1,-2,-4,-1,6,0
17:44:54:52763,-9,-4,-1,-2,-4,-1,6,0
17:44:54:59773,-9,4,-5,-2,-1,-3,-6,-2
17:44:54:60636,-10,-12,-6,-2,1,0,1,1
17:44:54:74832,-10,-12,-6,-2,1,0,1,1
17:44:54:75621,2,10,-1,-18,-5,2,-2,2
17:44:54:81602,-2,-8,-11,-13,1,-4,-6,2
17:44:54:89846,-2,-8,-11,-13,1,-4,-6,2
17:44:54:90630,9,-3,1,-9,7,1,0,3
17:44:54:112963,-4,12,6,-9,-9,0,-2,-3
17:44:54:113784,-4,12,6,-9,-9,0,-2,-3
17:44:54:114566,-4,-7,-10,0,-4,-3,3,-2
17:44:54:119188,12,-16,-10,-14,2,3,-4,-2
17:44:54:134888,12,-16,-10,-14,2,3,-4,-2
17:44:54:135680,4,1,-3,18,1,-3,2,7
17:44:54:141651,-9,-4,-3,-1,-9,-3,-5,-3
17:44:54:149973,-9,-4,-3,-1,-9,-3,-5,-3
17:44:54:150608,-13,22,5,9,-2,0,0,-5
17:44:54:173078,-5,-2,4,29,6,-3,3,-5
17:44:54:173792,-5,-2,4,29,6,-3,3,-5
17:44:54:174644,2,33,7,8,-1,-6,-3,-3
17:44:54:195531,-7,-3,-1,-20,-3,-2,-1,8
17:44:54:196288,-7,-3,-1,-20,-3,-2,-1,8
17:44:54:197084,-1,-10,9,1,5,3,-1,-1
17:44:54:201621,9,10,-4,5,-2,-3,-4,-10
17:44:54:209826,9,10,-4,5,-2,-3,-4,-10
17:44:54:210637,-43,-17,-3,-11,2,4,-3,-9
17:44:54:224209,-3,16,-3,1,0,-8,1,9
17:44:54:232322,-3,16,-3,1,0,-8,1,9
17:44:54:233188,17,-4,-9,-22,0,-1,-5,-1
17:44:54:239221,-16,6,-4,15,-4,2,3,-6
17:44:54:255283,-16,6,-4,15,-4,2,3,-6
17:44:54:256075,4,-25,-3,-9,7,6,6,0
17:44:54:261632,-2,1,-2,3,-1,-2,2,4
17:44:54:269821,-2,1,-2,3,-1,-2,2,4
17:44:54:270592,17,1,2,7,-6,-10,-8,3
17:44:54:284206,1,20,8,9,3,2,-6,-8
17:44:54:292330,1,20,8,9,3,2,-6,-8
17:44:54:293195,2,69,17,2,-2,4,6,1
17:44:54:306610,8,6,5,19,-7,-7,-9,4
17:44:54:314894,8,6,5,19,-7,-7,-9,4
17:44:54:315697,-9,-16,-9,-5,-9,-2,0,-7
17:44:54:321667,6,3,-4,-31,5,6,9,0
17:44:54:337353,6,3,-4,-31,5,6,9,0
17:44:54:338193,3,-18,1,55,-1,-5,-1,-5
17:44:54:344117,-3,-25,2,12,5,5,-1,2
17:44:54:352375,-3,-25,2,12,5,5,-1,2
17:44:54:353182,0,-29,-5,-18,-7,-5,-3,1
17:44:54:359187,16,14,-5,1,3,-1,-3,2
17:44:54:374865,16,14,-5,1,3,-1,-3,2
17:44:54:375657,-3,-13,-6,-12,-3,4,5,0
17:44:54:390536,-15,-24,-10,-48,-16,-12,-13,-9
17:44:54:391313,-15,-24,-10,-48,-16,-12,-13,-9
17:44:54:392196,-4,13,3,12,18,8,0,-4
17:44:54:404213,-21,-22,3,-6,-5,-3,0,-3
17:44:54:412342,-21,-22,3,-6,-5,-3,0,-3
17:44:54:413283,0,-15,-1,-7,0,-5,-4,-7
17:44:54:419182,0,9,5,12,-1,-7,-10,-3
17:44:54:434871,0,9,5,12,-1,-7,-10,-3
17:44:54:435639,13,-19,-8,3,-6,-5,0,3
17:44:54:441674,1,26,10,1,4,3,10,3
17:44:54:449965,1,26,10,1,4,3,10,3
17:44:54:450652,-3,0,-7,-5,-5,-2,-5,1
17:44:54:473012,-9,0,-7,-10,-3,3,3,2
17:44:54:473823,-9,0,-7,-10,-3,3,3,2
17:44:54:474625,10,7,5,7,1,4,8,0
17:44:54:479200,9,-6,-7,11,0,1,2,1
17:44:54:494637,9,-6,-7,11,0,1,2,1
17:44:54:502291,-10,-11,-5,-8,-6,-5,-2,3
17:44:54:503068,7,18,3,6,5,2,-3,0
17:44:54:509202,7,18,3,6,5,2,-3,0
17:44:54:516648,-31,-2,-4,-10,-3,-2,-3,-9
17:44:54:524188,-12,11,1,3,-9,-4,-1,-9
17:44:54:532327,-12,11,1,3,-9,-4,-1,-9
17:44:54:533177,-2,11,12,13,10,1,5,3
17:44:54:546625,0,-1,7,3,1,2,-5,-8
17:44:54:554893,0,-1,7,3,1,2,-5,-8
17:44:54:555658,12,4,-1,-38,-23,-9,-4,1
17:44:54:561726,2,1,2,7,7,1,5,6
17:44:54:569193,2,1,2,7,7,1,5,6
17:44:54:584792,-19,-9,-3,-8,-4,1,0,-4
17:44:54:585568,-10,-53,-13,-3,-4,-2,1,-1
17:44:54:592378,-10,-53,-13,-3,-4,-2,1,-1
17:44:54:593182,1,14,-4,-1,-2,-8,-7,-4
17:44:54:615478,-6,-24,-3,6,12,8,8,3
17:44:54:616270,-6,-24,-3,6,12,8,8,3
17:44:54:617169,4,-12,2,2,-5,-3,-11,-9
17:44:54:621609,3,18,-2,11,-1,-7,-10,-7
17:44:54:629205,3,18,-2,11,-1,-7,-10,-7
17:44:54:636643,4,16,1,15,10,5,2,-5
17:44:54:644146,-11,15,3,-28,-2,-1,-2,-3
17:44:54:652350,-11,15,3,-28,-2,-1,-2,-3
17:44:54:653194,2,-19,-13,2,-1,0,0,5
17:44:54:666631,5,-2,3,16,5,2,4,-1
17:44:54:674853,5,-2,3,16,5,2,4,-1
17:44:54:675685,-3,-8,5,13,-1,0,-4,4
17:44:54:681608,-2,-20,-9,-16,-13,-15,-12,-8
17:44:54:689204,-2,-20,-9,-16,-13,-15,-12,-8
17:44:54:696654,7,21,-1,7,29,14,18,6
17:44:54:704154,11,18,7,6,-2,-2,-7,2
17:44:54:712333,11,18,7,6,-2,-2,-7,2
17:44:54:713191,2,28,-3,-14,-11,-8,-5,0
17:44:54:726607,-14,-15,-8,5,6,1,-1,-4
17:44:54:743009,-14,-15,-8,5,6,1,-1,-4
17:44:54:743793,-7,-25,-6,-7,-7,1,4,7
17:44:54:744618,-5,11,1,14,15,12,4,-4
17:44:54:749200,-5,11,1,14,15,12,4,-4
17:44:54:756622,13,-2,-1,10,2,2,11,6
17:44:54:764148,-6,-49,-12,-1,-11,-5,-4,-1
17:44:54:772363,-6,-49,-12,-1,-11,-5,-4,-1
17:44:54:773223,-12,8,9,10,-3,-11,-17,-7
17:44:54:786631,-11,-14,-3,7,7,3,2,1
17:44:54:794913,-11,-14,-3,7,7,3,2,1
17:44:54:795668,12,-3,-2,18,-7,-2,-1,0
17:44:54:809833,-3,9,-4,3,5,1,2,2
17:44:54:810674,-3,9,-4,3,5,1,2,2
17:44:54:816648,14,-4,-6,-1,3,3,5,2
17:44:54:824122,15,21,-1,-4,-7,-5,-13,-8
17:44:54:832362,15,21,-1,-4,-7,-5,-13,-8
17:44:54:833203,-5,-12,-4,-14,0,2,-2,-5
17:44:54:846646,-8,-37,-1,-11,-8,-1,7,6
17:44:54:854864,-8,-37,-1,-11,-8,-1,7,6
17:44:54:855649,-16,-19,1,-1,-9,-7,-6,-7
17:44:54:861661,7,18,9,2,19,9,4,1
17:44:54:869199,7,18,9,2,19,9,4,1
17:44:54:876631,16,9,3,-5,-3,-2,-2,3
17:44:54:884129,-8,-4,-4,-22,2,4,3,3
17:44:54:892413,-8,-4,-4,-22,2,4,3,3
17:44:54:893197,6,26,6,-4,12,10,5,-1
17:44:54:906648,-11,-25,1,1,-11,-8,-7,-3
17:44:54:914859,-11,-25,1,1,-11,-8,-7,-3
17:44:54:915668,-18,-24,-4,2,-8,-9,-9,-6
17:44:54:921637,0,7,3,-11,-5,-1,3,-1
17:44:54:929185,0,7,3,-11,-5,-1,3,-1
17:44:54:936649,-1,6,-3,-11,3,-2,-1,2
17:44:54:944197,4,3,2,7,-7,-2,3,-4
17:44:54:952326,4,3,2,7,-7,-2,3,-4
17:44:54:953201,19,11,-4,-3,-9,-3,-1,-1
17:44:54:966640,6,10,-4,0,-7,-4,0,-2
17:44:54:974901,6,10,-4,0,-7,-4,0,-2
17:44:54:975689,-4,5,-4,-6,8,7,4,-1
17:44:54:981658,-3,1,-6,-7,-10,-9,-9,-1
17:44:54:989195,-3,1,-6,-7,-10,-9,-9,-1
17:44:54:996678,2,-15,-6,5,-3,-4,-5,0
17:44:55:4190,17,22,-4,-19,-4,-3,-2,2
17:44:55:19906,17,22,-4,-19,-4,-3,-2,2
17:44:55:20660,-6,-4,5,1,-2,4,-1,-7
17:44:55:26651,8,30,1,2,0,6,-1,-4
17:44:55:34860,8,30,1,2,0,6,-1,-4
17:44:55:35630,-37,-18,-3,-5,-15,-12,-12,-10
17:44:55:41629,-5,-8,-1,1,-4,-5,4,6
17:44:55:49245,-5,-8,-1,1,-4,-5,4,6
17:44:55:56601,27,19,1,-4,-9,-7,1,6
17:44:55:64131,7,6,-4,-14,13,7,3,1
17:44:55:72371,7,6,-4,-14,13,7,3,1
17:44:55:73213,-1,-15,-4,-25,-5,-4,-1,-4
17:44:55:86656,2,5,6,24,-4,-3,-5,1
17:44:55:94847,2,5,6,24,-4,-3,-5,1
17:44:55:95647,-20,-10,-2,11,23,9,9,5
17:44:55:101613,-16,-29,-14,1,-15,-6,-6,-13
17:44:55:109185,-16,-29,-14,1,-15,-6,-6,-13
17:44:55:116635,18,15,2,3,-3,-6,-1,3
17:44:55:124113,-33,-40,1,21,12,2,2,2
17:44:55:132392,-33,-40,1,21,12,2,2,2
17:44:55:133202,9,-1,-3,-3,-8,-3,-4,2
17:44:55:146608,12,5,0,-2,9,5,6,5
17:44:55:154877,12,5,0,-2,9,5,6,5
17:44:55:155643,-7,-1,7,-11,-8,-9,-8,-6
17:44:55:161625,-1,9,0,-6,5,1,-11,-5
17:44:55:169205,-1,9,0,-6,5,1,-11,-5
17:44:55:176617,-5,9,5,8,8,6,7,-2
17:44:55:184138,-3,8,3,0,-3,0,0,-2
17:44:55:192385,-3,8,3,0,-3,0,0,-2
17:44:55:193179,-5,0,2,2,0,0,-2,0
17:44:55:206647,-39,-7,-13,-36,-22,-15,-5,-8
17:44:55:214865,-39,-7,-13,-36,-22,-15,-5,-8
17:44:55:215659,4,-8,-5,-3,9,12,7,3
17:44:55:221667,35,-9,-3,-21,-6,1,2,8
17:44:55:229221,35,-9,-3,-21,-6,1,2,8
17:44:55:236639,-1,-1,1,9,3,-8,-14,-9
17:44:55:244207,2,9,5,9,8,7,6,-5
17:44:55:252356,2,9,5,9,8,7,6,-5
17:44:55:253214,-21,-30,-14,6,-11,-5,-2,0
17:44:55:266677,-2,8,9,35,12,2,6,1
17:44:55:274898,-2,8,9,35,12,2,6,1
17:44:55:275648,13,-5,-13,2,-1,-3,-5,-1
17:44:55:281669,7,4,8,-17,-4,2,3,4
17:44:55:289213,7,4,8,-17,-4,2,3,4
17:44:55:296648,7,-7,1,-1,-8,-8,-2,0
17:44:55:304216,12,-4,-3,10,-1,-2,-12,-10
17:44:55:312325,12,-4,-3,10,-1,-2,-12,-10
17:44:55:313188,-8,-1,4,-12,-1,5,3,-4
17:44:55:326652,-10,1,-7,-7,-8,-4,-4,0
17:44:55:334838,-10,1,-7,-7,-8,-4,-4,0
17:44:55:335619,-4,9,1,-8,-6,-8,-3,-2
17:44:55:341636,10,-1,8,0,-2,-4,-5,-5
17:44:55:349193,10,-1,8,0,-2,-4,-5,-5
17:44:55:356595,4,21,15,12,22,11,5,4
17:44:55:364095,-8,-14,-9,-16,-17,-16,-9,0
17:44:55:379842,-8,-14,-9,-16,-17,-16,-9,0
17:44:55:380605,-8,0,0,1,-4,-1,3,-2
17:44:55:387311,13,27,11,13,8,4,4,4
17:44:55:388199,13,27,11,13,8,4,4,4
17:44:55:394095,-11,-12,-8,4,8,6,1,2
17:44:55:401597,20,8,-7,10,3,1,-2,-4
17:44:55:409206,20,8,-7,10,3,1,-2,-4
17:44:55:416626,23,11,1,-6,-6,0,0,3
17:44:55:424141,-27,8,1,4,7,4,2,-5
17:44:55:432374,-27,8,1,4,7,4,2,-5
17:44:55:433205,-14,-29,-11,-6,-4,-8,-8,-4
17:44:55:447346,-9,-7,-4,-5,-8,-4,0,-2
17:44:55:448194,-9,-7,-4,-5,-8,-4,0,-2
17:44:55:454138,6,23,10,-1,0,1,3,-4
17:44:55:469835,-7,-10,5,12,2,1,1,8
17:44:55:470634,-7,-10,5,12,2,1,1,8
17:44:55:476618,10,1,-8,1,-1,-4,-5,7
17:44:55:484104,-3,-14,-6,-13,7,1,-4,-4
17:44:55:491695,-3,-14,-6,-13,7,1,-4,-4
17:44:55:499135,4,12,3,0,0,2,4,-6
17:44:55:507335,-1,-2,5,4,-12,-1,-4,-1
17:44:55:508177,-1,-2,5,4,-12,-1,-4,-1
17:44:55:514135,-19,-17,-15,-22,-1,2,0,-6
17:44:55:529830,-3,0,-3,-5,-5,-7,-3,-4
17:44:55:530634,-3,0,-3,-5,-5,-7,-3,-4
17:44:55:536638,2,11,0,7,3,6,5,3
17:44:55:544156,9,-22,-12,-12,-10,-7,-4,4
17:44:55:551707,9,-22,-12,-12,-10,-7,-4,4
17:44:55:559122,-4,-3,-1,7,-4,-1,1,-5
17:44:55:567052,19,5,1,4,17,5,6,3
17:44:55:574848,19,5,1,4,17,5,6,3
17:44:55:575666,4,-9,-8,-16,-3,1,1,1
17:44:55:589851,-11,-4,-5,5,-2,-3,-8,-9
17:44:55:590677,-11,-4,-5,5,-2,-3,-8,-9
17:44:55:596645,-5,-4,8,-3,-14,-13,-14,-7
17:44:55:604123,-5,-7,7,-4,1,7,7,5
17:44:55:611702,-5,-7,7,-4,1,7,7,5
17:44:55:619212,15,3,-1,-19,-14,-8,-6,-5
17:44:55:627317,-7,-6,-7,14,-4,0,2,-1
17:44:55:628199,-7,-6,-7,14,-4,0,2,-1
17:44:55:634107,7,-17,-10,12,6,3,-2,3
17:44:55:649816,-16,18,1,16,7,0,0,-5
17:44:55:650633,-16,18,1,16,7,0,0,-5
17:44:55:656675,-3,14,9,27,2,2,2,0
17:44:55:664202,10,11,4,8,-9,-5,-7,-2
17:44:55:671661,10,11,4,8,-9,-5,-7,-2
17:44:55:679107,-21,15,2,3,-3,2,6,-1
17:44:55:687343,-3,-17,-7,-12,-15,-8,-2,-2
17:44:55:688193,-3,-17,-7,-12,-15,-8,-2,-2
17:44:55:694099,-9,5,0,-3,2,1,-5,-5
17:44:55:709805,-1,27,1,-10,-2,1,3,1
17:44:55:710627,-1,27,1,-10,-2,1,3,1
17:44:55:716622,-5,-19,-2,-9,3,2,0,-5
17:44:55:724221,5,9,-6,-6,6,-2,-6,1
17:44:55:731692,5,9,-6,-6,6,-2,-6,1
17:44:55:739122,-1,1,5,-3,1,1,7,1
17:44:55:747328,21,-2,-10,-12,-3,-1,-8,7
17:44:55:748180,21,-2,-10,-12,-3,-1,-8,7
17:44:55:754144,-3,17,3,4,13,6,2,2
17:44:55:769831,-2,-24,-5,-19,-7,-7,2,-9
17:44:55:770648,-2,-24,-5,-19,-7,-7,2,-9
17:44:55:776631,6,-5,-6,-6,-7,-6,-3,1
17:44:55:784112,1,-3,-1,4,1,1,8,5
17:44:55:791692,1,-3,-1,4,1,1,8,5
17:44:55:799163,-5,-31,-8,-25,-2,-5,-7,-5
17:44:55:807327,-5,-25,-8,-7,0,1,-3,-3
17:44:55:808198,-5,-25,-8,-7,0,1,-3,-3
17:44:55:814155,4,-2,-2,-4,-10,-2,-6,2
17:44:55:829833,-8,5,-4,4,5,5,7,0
17:44:55:830652,-8,5,-4,4,5,5,7,0
17:44:55:836634,-3,5,-4,-13,-13,-10,-6,-3
17:44:55:844160,5,24,11,1,12,8,4,-1
17:44:55:851738,5,24,11,1,12,8,4,-1
17:44:55:859152,3,-4,-7,7,-1,-2,1,1
17:44:55:867317,-10,-3,6,-5,-6,0,-1,-2
17:44:55:868101,-10,-3,6,-5,-6,0,-1,-2
17:44:55:874206,-22,9,4,9,-8,-7,-6,2
17:44:55:889866,-4,-17,-8,23,3,-2,1,3
17:44:55:890670,-4,-17,-8,23,3,-2,1,3
17:44:55:896639,28,6,5,13,12,8,9,11
17:44:55:904124,2,11,5,0,2,1,-1,-1
17:44:55:911673,2,11,5,0,2,1,-1,-1
17:44:55:919207,3,2,1,2,-1,-3,-3,-9
17:44:55:927316,-11,-19,2,-7,-5,-5,-7,-9
17:44:55:928199,-11,-19,2,-7,-5,-5,-7,-9
17:44:55:934107,-4,2,2,-34,2,-4,-4,-4
17:44:55:949810,2,0,-4,-5,6,1,3,0
17:44:55:950636,2,0,-4,-5,6,1,3,0
17:44:55:956658,2,10,2,6,12,10,0,-5
17:44:55:964206,18,12,1,2,-8,-6,-5,5
17:44:55:971660,18,12,1,2,-8,-6,-5,5
17:44:55:979104,10,32,3,7,-5,-2,5,1
17:44:55:987351,-5,5,2,-23,-8,-6,-6,-2
17:44:55:988188,-5,5,2,-23,-8,-6,-6,-2
17:44:55:994121,8,-16,-10,11,2,1,1,4
17:44:56:9801,-4,0,-4,-22,3,2,6,3
17:44:56:10638,-4,0,-4,-22,3,2,6,3
17:44:56:16608,-7,-10,-4,0,1,-5,-13,-7
17:44:56:24116,-5,-8,8,8,-4,1,-9,-10
17:44:56:31687,-5,-8,8,8,-4,1,-9,-10
17:44:56:39103,-14,-9,-2,10,-15,-7,0,4
17:44:56:47344,5,-3,-3,16,5,1,1,-2
17:44:56:48194,5,-3,-3,16,5,1,1,-2
17:44:56:54160,5,9,13,-8,-7,-6,-5,-4
17:44:56:69838,-13,-15,-6,15,7,1,1,-2
17:44:56:70651,-13,-15,-6,15,7,1,1,-2
17:44:56:76628,-8,-29,-13,-5,-4,2,5,-6
17:44:56:84096,8,14,6,3,3,1,1,4
17:44:56:91692,8,14,6,3,3,1,1,4
17:44:56:99145,-9,5,2,8,4,-1,0,3
17:44:56:107328,1,-14,-8,-6,-15,-9,-3,-2
17:44:56:108197,1,-14,-8,-6,-15,-9,-3,-2
17:44:56:114151,1,6,7,19,1,2,-3,3
17:44:56:129819,-16,-19,-6,-5,-4,-1,-3,-5
17:44:56:130689,-16,-19,-6,-5,-4,-1,-3,-5
17:44:56:136638,-15,-6,2,8,-11,-7,7,-2
17:44:56:144178,13,17,5,4,12,8,-1,-1
17:44:56:151692,13,17,5,4,12,8,-1,-1
17:44:56:159145,-3,-3,-11,-3,-2,-6,-8,-6
17:44:56:167306,11,22,8,-3,0,0,7,4
17:44:56:168210,11,22,8,-3,0,0,7,4
17:44:56:174217,-5,-9,-12,-21,-3,-4,1,-3
17:44:56:189868,-7,-6,3,7,-3,-4,-2,0
17:44:56:190674,-7,-6,3,7,-3,-4,-2,0
17:44:56:196641,8,-2,6,-6,1,4,0,1
17:44:56:204155,-7,8,10,15,10,4,3,1
17:44:56:211670,-7,8,10,15,10,4,3,1
17:44:56:219209,-15,-19,-4,-19,1,-3,-1,-10
17:44:56:227326,-4,-3,-7,-13,-16,-8,-10,-7
17:44:56:228219,-4,-3,-7,-13,-16,-8,-10,-7
17:44:56:234096,8,-2,-1,3,10,6,-2,3
17:44:56:249818,-7,-4,-5,-9,-5,-1,3,-3
17:44:56:250624,-7,-4,-5,-9,-5,-1,3,-3
17:44:56:256671,1,-14,-9,-23,-7,-5,-1,2
17:44:56:264225,-2,4,-2,10,13,0,1,1
17:44:56:271659,-2,4,-2,10,13,0,1,1
17:44:56:279127,-2,8,12,45,11,9,7,6
17:44:56:287313,-9,-7,2,-1,5,9,5,0
17:44:56:288185,-9,-7,2,-1,5,9,5,0
17:44:56:294126,-10,7,-1,16,-14,-11,-13,-7
17:44:56:309799,-14,2,2,2,-3,-7,-7,-7
17:44:56:310650,-14,2,2,2,-3,-7,-7,-7
17:44:56:316601,-13,2,1,-7,2,3,-2,-7
17:44:56:324091,0,-17,-14,-6,-21,-6,-4,-1
17:44:56:331696,0,-17,-14,-6,-21,-6,-4,-1
17:44:56:339101,0,12,-2,-8,-2,-1,1,2
17:44:56:347361,13,-19,11,-12,-7,-4,0,8
17:44:56:348207,13,-19,11,-12,-7,-4,0,8
17:44:56:354129,4,3,-2,0,2,4,0,0
17:44:56:369843,-1,14,-15,-4,-1,-3,-6,-4
17:44:56:370651,-1,14,-15,-4,-1,-3,-6,-4
17:44:56:376612,7,-2,-2,-8,-8,-6,0,3
17:44:56:384117,11,0,-7,-3,7,3,2,0
17:44:56:391726,11,0,-7,-3,7,3,2,0
17:44:56:399145,4,-18,-10,-15,-8,-5,-1,1
17:44:56:407330,10,2,0,3,2,0,1,2
17:44:56:408228,10,2,0,3,2,0,1,2
17:44:56:421615,3,-19,0,1,-5,-6,-6,-3
17:44:56:429839,-3,-5,-5,-10,0,-2,-2,-7
17:44:56:430665,-3,-5,-5,-10,0,-2,-2,-7
17:44:56:436654,4,5,-1,-4,0,4,1,1
17:44:56:452371,-21,-32,-3,-3,-3,-3,-3,2
17:44:56:453232,-21,-32,-3,-3,-3,-3,-3,2
17:44:56:459113,8,-14,-1,0,9,3,5,-4
17:44:56:467376,8,6,-5,0,0,-4,-10,-2
17:44:56:468200,8,6,-5,0,0,-4,-10,-2
17:44:56:481619,-3,9,-1,5,6,0,-1,1
17:44:56:489832,-14,-7,-5,-8,-9,-5,-4,-4
17:44:56:490671,-14,-7,-5,-8,-9,-5,-4,-4
17:44:56:496673,-11,18,-7,-10,0,-1,-11,-8
17:44:56:512376,-8,5,-7,-13,4,9,9,1
17:44:56:513284,-8,5,-7,-13,4,9,9,1
17:44:56:519142,7,6,0,-7,-12,-6,-3,1
17:44:56:527364,-5,8,8,15,4,4,3,-5
17:44:56:528211,-5,8,8,15,4,4,3,-5
17:44:56:541637,-8,-7,-6,-34,-16,-8,1,4
17:44:56:549942,12,0,-8,-6,-3,-3,-3,3
17:44:56:550657,12,0,-8,-6,-3,-3,-3,3
17:44:56:556594,-8,-2,5,9,13,12,7,-5
17:44:56:572346,18,14,3,1,-9,-10,-8,-2
17:44:56:573215,18,14,3,1,-9,-10,-8,-2
17:44:56:579103,8,-4,1,7,3,-1,4,-1
17:44:56:587325,-10,16,10,3,-2,1,8,-2
17:44:56:588189,-10,16,10,3,-2,1,8,-2
17:44:56:601643,13,2,-2,21,6,1,-3,3
17:44:56:609817,0,15,4,-21,-5,1,-1,0
17:44:56:610652,0,15,4,-21,-5,1,-1,0
17:44:56:616629,12,13,-2,-8,3,3,7,5
17:44:56:632316,3,-2,-4,-4,-2,-3,4,2
17:44:56:633264,3,-2,-4,-4,-2,-3,4,2
17:44:56:639121,-15,-6,-3,9,-3,-1,0,2
17:44:56:647344,3,-5,8,8,-1,-2,-6,-1
17:44:56:648226,3,-5,8,8,-1,-2,-6,-1
17:44:56:661677,7,-7,-6,11,10,6,-2,-2
17:44:56:669793,7,6,-4,-9,2,3,-3,3
17:44:56:670613,7,6,-4,-9,2,3,-3,3
17:44:56:676596,0,10,4,-13,-7,-6,2,4
17:44:56:692293,-7,-41,-6,3,-1,-1,-5,-8
17:44:56:693199,-7,-41,-6,3,-1,-1,-5,-8
17:44:56:699203,-25,-20,-2,-4,4,4,-1,-7
17:44:56:707317,-3,36,5,8,-2,-1,-2,2
17:44:56:708188,-3,36,5,8,-2,-1,-2,2
17:44:56:721647,3,-5,-6,3,2,1,-1,-3
17:44:56:729898,14,0,-3,-5,-1,1,-3,2
17:44:56:730658,14,0,-3,-5,-1,1,-3,2
17:44:56:736734,-2,5,1,-12,0,-6,-13,-8
17:44:56:752336,-2,5,1,-12,0,-6,-13,-8
17:44:56:753103,-9,-23,0,6,-1,2,7,1
17:44:56:759134,-11,-1,1,-1,-9,-9,-10,1
17:44:56:766657,-11,-1,1,-1,-9,-9,-10,1
17:44:56:774112,-7,-3,-1,6,7,5,3,-5
17:44:56:781673,0,-2,0,1,-3,2,5,-1
17:44:56:789850,0,-2,0,1,-3,2,5,-1
17:44:56:790634,2,1,2,-4,0,-5,-3,-1
17:44:56:796638,-2,0,-1,3,2,-3,-3,-5
17:44:56:812342,-2,0,-1,3,2,-3,-3,-5
17:44:56:813129,6,-5,2,-6,-11,-7,-5,1
17:44:56:819093,-5,-16,-1,3,6,4,-2,-1
17:44:56:826670,-5,-16,-1,3,6,4,-2,-1
17:44:56:834131,-16,-1,-6,10,4,0,-4,-8
17:44:56:841602,0,-35,-11,10,-1,3,1,1
17:44:56:849843,0,-35,-11,10,-1,3,1,1
17:44:56:850662,1,-10,-10,-9,-4,1,1,-1
17:44:56:856626,4,6,-5,0,-1,-6,-1,0
17:44:56:872355,4,6,-5,0,-1,-6,-1,0
17:44:56:873215,1,1,-2,5,9,6,11,8
17:44:56:879115,15,-3,-3,-5,-6,-6,-2,3
17:44:56:886687,15,-3,-3,-5,-6,-6,-2,3
17:44:56:894121,2,2,-5,4,1,-3,-3,-4
17:44:56:901609,0,4,-10,-5,-6,-3,-2,-5
17:44:56:909867,0,4,-10,-5,-6,-3,-2,-5
17:44:56:910678,-4,-6,0,18,-3,-2,-1,3
17:44:56:916642,6,-3,5,3,5,7,5,3
17:44:56:932375,6,-3,5,3,5,7,5,3
17:44:56:933322,-2,5,0,-12,-15,-10,-4,-2
17:44:56:939108,0,-17,7,19,11,2,-1,-1
17:44:56:946789,0,-17,7,19,11,2,-1,-1
17:44:56:962275,-6,-22,-11,-8,4,5,-2,-5
17:44:56:963087,-1,20,0,-26,-28,-15,1,1
17:44:56:969912,-1,20,0,-26,-28,-15,1,1
17:44:56:970653,-7,-7,3,2,12,5,-1,4
17:44:56:976614,-4,8,-2,-12,-3,-3,1,0
17:44:56:992362,-4,8,-2,-12,-3,-3,1,0
17:44:56:993206,-3,8,-3,3,9,4,0,-4
17:44:56:999140,2,32,16,6,7,1,1,-3
17:44:57:7345,2,32,16,6,7,1,1,-3
17:44:57:8204,0,-3,-7,10,-10,-11,-10,-7
17:44:57:21664,5,-5,3,13,4,2,0,-2
17:44:57:29845,5,-5,3,13,4,2,0,-2
17:44:57:30633,-17,-10,2,-13,-8,-1,1,-1
17:44:57:36635,6,13,-5,6,1,1,-2,2
17:44:57:52356,6,13,-5,6,1,1,-2,2
17:44:57:53199,15,-3,4,0,0,5,4,1
17:44:57:59110,-24,-5,-2,1,0,-1,-3,-7
17:44:57:67381,-24,-5,-2,1,0,-1,-3,-7
17:44:57:68227,-3,-11,-2,-6,-1,0,0,-4
17:44:57:81595,8,11,8,-9,-8,-1,-4,2
17:44:57:89858,8,11,8,-9,-8,-1,-4,2
17:44:57:90642,-1,8,8,15,5,-3,-6,-2
17:44:57:96613,-5,-2,0,-5,-1,0,10,-3
17:44:57:112366,-5,-2,0,-5,-1,0,10,-3
17:44:57:113136,10,8,3,4,4,-2,-5,1
17:44:57:119100,23,-2,-5,-5,4,6,2,4
17:44:57:126679,23,-2,-5,-5,4,6,2,4
17:44:57:134128,10,8,3,13,-7,-6,-1,0
17:44:57:141627,5,7,3,-1,-2,0,0,2
17:44:57:149856,5,7,3,-1,-2,0,0,2
17:44:57:150657,-7,-5,2,-20,-21,-18,-11,-5
17:44:57:156613,-18,-17,-6,-9,-9,-2,-4,-4
17:44:57:172340,-18,-17,-6,-9,-9,-2,-4,-4
17:44:57:173204,13,6,1,-23,-7,5,12,4
17:44:57:179124,-4,-1,-6,13,19,6,-14,-10
17:44:57:187382,-4,-1,-6,13,19,6,-14,-10
17:44:57:188193,6,-16,-5,-2,0,-1,0,1
17:44:57:201620,-4,1,-2,5,-6,-10,-1,-3
17:44:57:209853,-4,1,-2,5,-6,-10,-1,-3
17:44:57:210613,-5,-7,-15,-3,5,4,1,0
17:44:57:216620,-2,11,4,-31,-8,-3,-3,2
17:44:57:232351,-2,11,4,-31,-8,-3,-3,2
17:44:57:233266,-7,17,-3,26,5,4,1,-3
17:44:57:239067,-6,-3,-1,7,2,-4,-5,-5
17:44:57:246734,-6,-3,-1,7,2,-4,-5,-5
17:44:57:254104,-3,-4,3,0,4,3,-1,2
17:44:57:261623,-15,-30,-3,-9,-10,-1,2,1
17:44:57:269844,-15,-30,-3,-9,-10,-1,2,1
17:44:57:270660,-6,-3,-5,9,-5,-4,2,2
17:44:57:276618,-2,-16,-10,-6,-1,-4,-12,-5
17:44:57:292382,-2,-16,-10,-6,-1,-4,-12,-5
17:44:57:293227,-5,-7,-4,2,7,5,-2,-1
17:44:57:299166,13,15,7,7,-4,-2,5,2
17:44:57:307342,13,15,7,7,-4,-2,5,2
17:44:57:308219,-2,21,3,-18,-6,-4,-1,-1
17:44:57:321644,10,-12,-7,-10,0,1,2,0
17:44:57:329860,10,-12,-7,-10,0,1,2,0
17:44:57:330635,8,13,12,-3,-14,-12,-12,-4
17:44:57:336621,3,7,3,25,-1,3,1,1
17:44:57:352386,3,7,3,25,-1,3,1,1
17:44:57:353215,-13,-30,-12,-9,0,4,0,-5
17:44:57:359116,-11,-29,-8,2,3,1,2,1
17:44:57:366716,-11,-29,-8,2,3,1,2,1
17:44:57:374105,-7,-22,-2,26,5,0,1,-1
17:44:57:381626,-8,-2,-1,2,-1,1,1,2
17:44:57:389828,-8,-2,-1,2,-1,1,1,2
17:44:57:390677,9,12,-13,-13,9,-2,0,4
17:44:57:404108,-12,-19,-3,15,-5,-5,-10,-11
17:44:57:412367,-12,-19,-3,15,-5,-5,-10,-11
17:44:57:413229,10,23,-3,-19,-5,-7,-2,-5
17:44:57:419127,-2,11,-1,-7,-2,2,0,5
17:44:57:426701,-2,11,-1,-7,-2,2,0,5
17:44:57:434148,-1,11,16,-11,-4,2,-1,0
17:44:57:441631,-1,12,6,7,0,-4,-3,-5
17:44:57:449837,-1,12,6,7,0,-4,-3,-5
17:44:57:450618,-14,9,4,10,2,3,6,-3
17:44:57:464132,22,17,11,4,-2,-5,0,2
17:44:57:472390,22,17,11,4,-2,-5,0,2
17:44:57:473228,-7,-14,3,10,9,9,2,-1
17:44:57:479143,1,2,-6,-23,-6,-2,-1,-3
17:44:57:486642,1,2,-6,-23,-6,-2,-1,-3
17:44:57:494165,-4,13,-4,-1,6,3,-8,-5
17:44:57:501629,-4,1,4,-3,-2,-4,-3,-1
17:44:57:517433,-4,1,4,-3,-2,-4,-3,-1
17:44:57:518232,-4,-24,-23,-8,-10,-7,1,0
17:44:57:524141,2,-1,-3,-12,-1,-2,0,-5
17:44:57:532311,2,-1,-3,-12,-1,-2,0,-5
17:44:57:533116,10,2,-6,-11,-4,0,0,3
17:44:57:539152,-4,-10,-2,23,-3,0,-7,-7
17:44:57:546705,-4,-10,-2,23,-3,0,-7,-7
17:44:57:554092,7,-8,0,-3,-5,-2,3,5
17:44:57:561664,-8,-2,-1,-9,-6,-5,-6,-8
17:44:57:569826,-8,-2,-1,-9,-6,-5,-6,-8
17:44:57:570635,-7,-21,2,-2,-6,-4,-4,-1
17:44:57:584226,-1,2,-5,-2,6,4,8,7
17:44:57:592314,-1,2,-5,-2,6,4,8,7
17:44:57:593097,-6,17,6,-4,1,-1,0,-1
17:44:57:599143,8,-8,-1,-18,-4,-2,1,4
17:44:57:606671,8,-8,-1,-18,-4,-2,1,4
17:44:57:614127,-18,-7,-13,-13,-6,1,-6,-14
17:44:57:621718,0,1,6,-1,-6,-2,-3,0
17:44:57:629853,0,1,6,-1,-6,-2,-3,0
17:44:57:630633,-3,-4,1,1,1,0,-4,-3
17:44:57:644191,3,-25,-2,-13,-1,1,2,2
17:44:57:652334,3,-25,-2,-13,-1,1,2,2
17:44:57:653211,-10,9,9,8,2,1,-1,-2
17:44:57:659127,-3,20,7,5,-2,-1,-3,1
17:44:57:666693,-3,20,7,5,-2,-1,-3,1
17:44:57:674182,15,1,-6,-9,-2,-3,4,9
17:44:57:681625,-2,12,-1,0,-7,-2,5,2
17:44:57:689939,-2,12,-1,0,-7,-2,5,2
17:44:57:690675,-5,10,8,-10,-7,-5,-5,-8
17:44:57:704154,-8,9,-3,0,4,1,1,0
17:44:57:712374,-8,9,-3,0,4,1,1,0
17:44:57:713204,-1,1,0,4,-2,-4,-3,-1
17:44:57:719142,-8,-1,-8,5,4,1,7,-5
17:44:57:726717,-8,-1,-8,5,4,1,7,-5
17:44:57:734151,1,1,6,12,9,-3,-14,-8
17:44:57:741630,11,-1,-4,-1,5,11,25,14
17:44:57:749861,11,-1,-4,-1,5,11,25,14
17:44:57:750606,-1,-19,-9,-3,2,1,12,3
17:44:57:764142,-12,1,-2,0,-5,-11,-27,-14
17:44:57:772352,-12,1,-2,0,-5,-11,-27,-14
17:44:57:773197,7,12,5,19,0,-3,-4,1
17:44:57:779157,3,18,4,-7,-3,-2,-7,-6
17:44:57:786664,3,18,4,-7,-3,-2,-7,-6
17:44:57:794178,3,-13,-7,-4,-5,0,4,5
17:44:57:801642,-12,-53,-6,2,5,3,4,-8
17:44:57:809850,-12,-53,-6,2,5,3,4,-8
17:44:57:810612,13,14,4,3,-2,4,8,4
17:44:57:824177,14,16,1,1,6,0,-10,7
17:44:57:832334,14,16,1,1,6,0,-10,7
17:44:57:833306,-11,-13,-3,-4,-4,-4,-15,-5
17:44:57:839140,-13,9,-5,3,-5,-4,-6,-8
17:44:57:854890,-13,9,-5,3,-5,-4,-6,-8
17:44:57:855676,-2,2,-1,-9,-3,1,-6,-4
17:44:57:861659,2,7,-4,10,6,-1,-3,-1
17:44:57:869845,2,7,-4,10,6,-1,-3,-1
17:44:57:870629,-1,-6,-6,-4,1,0,2,-1
17:44:57:884205,8,1,7,-6,-8,-7,-8,0
17:44:57:892360,8,1,7,-6,-8,-7,-8,0
17:44:57:893213,-7,27,16,1,2,1,0,-18
17:44:57:899157,22,-16,1,1,3,3,9,3
17:44:57:906646,22,-16,1,1,3,3,9,3
17:44:57:914152,6,8,0,-8,-3,-1,8,11
17:44:57:921660,-14,10,4,-1,3,2,11,9
17:44:57:929838,-14,10,4,-1,3,2,11,9
17:44:57:930625,-34,-49,-20,-17,-7,-3,-8,-13
17:44:57:944164,-2,-14,-13,12,9,-1,-6,2
17:44:57:952330,-2,-14,-13,12,9,-1,-6,2
17:44:57:953125,-7,-3,3,7,1,-2,-1,-2
17:44:57:959159,0,67,24,0,-2,-1,0,-3
17:44:57:966666,0,67,24,0,-2,-1,0,-3
17:44:57:974111,25,-23,-5,-6,-2,-2,-3,6
17:44:57:981616,8,-5,2,-3,-2,-1,-1,-4
17:44:57:989867,8,-5,2,-3,-2,-1,-1,-4
17:44:57:990646,7,8,3,1,0,-2,6,6
17:44:58:4176,2,-31,-11,-4,-4,2,10,-2
17:44:58:12321,2,-31,-11,-4,-4,2,10,-2
17:44:58:13108,-15,-17,-1,-6,-1,-3,-8,-4
17:44:58:19094,-13,-13,-20,-8,25,8,0,-3
17:44:58:26682,-13,-13,-20,-8,25,8,0,-3
17:44:58:34154,10,33,2,14,10,1,-2,1
17:44:58:41631,-17,-52,-8,-8,-16,-8,-7,-10
17:44:58:49859,-17,-52,-8,-8,-16,-8,-7,-10
17:44:58:50635,-20,5,1,-10,-3,-2,-8,-3
17:44:58:72970,-1,6,-3,1,-6,-3,-3,0
17:44:58:73789,-1,6,-3,1,-6,-3,-3,0
17:44:58:74587,9,-4,-7,9,-2,-1,5,0
17:44:58:79167,-18,-9,-8,4,-3,-4,-6,-4
17:44:58:86682,-18,-9,-8,4,-3,-4,-6,-4
17:44:58:94109,12,-1,-2,-7,-4,6,10,13
17:44:58:101600,-4,12,3,-11,-5,-1,5,3
17:44:58:109838,-4,12,3,-11,-5,-1,5,3
17:44:58:110618,3,3,-5,-17,-12,-11,-9,-5
17:44:58:132977,0,-1,-14,-6,5,-1,-11,2
17:44:58:133795,0,-1,-14,-6,5,-1,-11,2
17:44:58:134600,-22,-9,-1,7,8,7,0,-13
17:44:58:139162,2,13,9,4,-10,-11,-8,-4
17:44:58:146686,2,13,9,4,-10,-11,-8,-4
17:44:58:154094,9,8,4,-6,-2,2,8,15
17:44:58:161609,22,3,9,6,-1,3,-1,3
17:44:58:169844,22,3,9,6,-1,3,-1,3
17:44:58:170660,3,12,1,6,-3,-2,-3,2
17:44:58:184160,-2,-5,1,2,1,-1,6,15
17:44:58:192350,-2,-5,1,2,1,-1,6,15
17:44:58:193145,-4,-8,0,0,-2,-3,-1,-3
17:44:58:199121,1,-23,-5,-19,0,0,1,-8
17:44:58:206683,1,-23,-5,-19,0,0,1,-8
17:44:58:214144,-10,-23,-17,2,1,2,-2,-5
17:44:58:221654,-19,15,0,-4,-11,-3,-8,-8
17:44:58:229864,-19,15,0,-4,-11,-3,-8,-8
17:44:58:230642,5,5,-1,-9,1,-2,11,-2
17:44:58:244112,5,-1,-1,-4,-6,-2,-2,1
17:44:58:252365,5,-1,-1,-4,-6,-2,-2,1
17:44:58:253223,10,-11,-4,1,-1,-2,-5,2
17:44:58:259148,-2,19,5,2,0,0,-5,-5
17:44:58:266712,-2,19,5,2,0,0,-5,-5
17:44:58:274144,-2,-3,-1,0,2,2,2,-1
17:44:58:281662,3,-10,-11,2,-4,-2,-2,-7
17:44:58:289262,3,-10,-11,2,-4,-2,-2,-7
17:44:58:296648,-4,6,4,7,-8,-6,-1,-7
17:44:58:304141,-4,-5,4,12,8,7,12,2
17:44:58:312320,-4,-5,4,12,8,7,12,2
17:44:58:313176,2,59,22,0,8,2,-5,-10
17:44:58:327734,2,13,11,-1,-4,-6,-9,16
17:44:58:328584,2,13,11,-1,-4,-6,-9,16
17:44:58:334161,11,21,-5,5,1,-11,-14,4
17:44:58:349842,-12,-35,-6,-2,1,10,17,4
17:44:58:350664,-12,-35,-6,-2,1,10,17,4
17:44:58:356684,-8,-49,-8,3,-7,-3,0,1
17:44:58:364145,7,-22,-9,-1,-2,-3,-3,3
17:44:58:372349,7,-22,-9,-1,-2,-3,-3,3
17:44:58:373254,-1,-12,-6,-9,2,-1,-4,-6
17:44:58:387351,5,-10,0,-3,-1,-1,-5,-9
17:44:58:388213,5,-10,0,-3,-1,-1,-5,-9
17:44:58:394124,16,28,5,11,1,0,1,4
17:44:58:401655,-1,20,-1,-4,-1,-1,7,-4
17:44:58:409248,-1,20,-1,-4,-1,-1,7,-4
17:44:58:416638,-17,-32,-14,-8,-2,-1,1,4
17:44:58:424118,11,10,12,8,-1,2,4,-2
17:44:58:432325,11,10,12,8,-1,2,4,-2
17:44:58:433111,-16,-21,-14,-1,-1,3,-2,-1
17:44:58:447293,3,14,-2,4,-1,-1,-5,-9
17:44:58:448136,3,14,-2,4,-1,-1,-5,-9
17:44:58:454145,-8,-10,1,25,11,4,2,-8
17:44:58:461671,-21,-15,-12,-5,2,-7,-7,2
17:44:58:469255,-21,-15,-12,-5,2,-7,-7,2
17:44:58:476678,-4,-1,-16,-26,-13,-8,-9,-8
17:44:58:484165,3,9,0,0,0,0,6,0
17:44:58:492322,3,9,0,0,0,0,6,0
17:44:58:493122,-8,0,5,2,7,14,11,7
17:44:58:507326,16,25,2,-6,-8,-8,-11,-9
17:44:58:508123,16,25,2,-6,-8,-8,-11,-9
17:44:58:522439,2,27,23,-9,-4,-5,-4,1
17:44:58:523164,13,9,2,22,2,5,2,4
17:44:58:529237,13,9,2,22,2,5,2,4
17:44:58:536647,7,-3,-3,2,-2,2,5,10
17:44:58:544163,1,-3,-2,-16,-3,-4,-6,-6
17:44:58:552396,1,-3,-2,-16,-3,-4,-6,-6
17:44:58:553126,-10,5,-5,-1,1,0,-5,-3
17:44:58:567297,-11,-18,-1,-3,1,-4,-6,-1
17:44:58:568124,-11,-18,-1,-3,1,-4,-6,-1
17:44:58:574164,4,5,8,9,-3,-4,1,0
17:44:58:581667,1,-29,-8,1,11,3,-1,-6
17:44:58:589174,1,-29,-8,1,11,3,-1,-6
17:44:58:596634,-1,-35,-11,-3,-4,-4,1,1
17:44:58:604098,1,3,2,-4,-10,-10,-5,1
17:44:58:612346,1,3,2,-4,-10,-10,-5,1
17:44:58:613130,-1,4,-2,0,2,3,1,-4
17:44:58:627293,-12,12,0,-6,-2,-7,-24,-15
17:44:58:628129,-12,12,0,-6,-2,-7,-24,-15
17:44:58:634092,-7,-2,4,-1,-3,0,4,9
17:44:58:641611,9,7,2,0,-1,6,14,8
17:44:58:649267,9,7,2,0,-1,6,14,8
17:44:58:656611,7,5,-3,-5,0,2,7,1
17:44:58:664114,-15,-10,-3,1,-4,-3,-7,-7
17:44:58:672372,-15,-10,-3,1,-4,-3,-7,-7
17:44:58:673241,-3,5,7,-1,0,-1,-1,1
17:44:58:687335,-2,-2,0,-2,-1,1,-2,2
17:44:58:688218,-2,-2,0,-2,-1,1,-2,2
17:44:58:694114,1,-31,-10,3,0,2,-5,-13
17:44:58:701619,-14,3,-1,-4,-2,-5,-3,-5
17:44:58:709240,-14,3,-1,-4,-2,-5,-3,-5
17:44:58:716631,-13,-19,-12,-6,-4,-4,0,-3
17:44:58:724133,2,6,0,-4,5,4,8,7
17:44:58:732368,2,6,0,-4,5,4,8,7
17:44:58:733241,8,9,0,-5,-8,-7,0,-10
17:44:58:747340,6,9,-3,-2,0,2,3,0
17:44:58:748226,6,9,-3,-2,0,2,3,0
17:44:58:754265,16,-3,3,3,-3,-2,-5,-5
17:44:58:761649,-7,-31,-3,1,-1,4,20,2
17:44:58:769211,-7,-31,-3,1,-1,4,20,2
17:44:58:776649,11,-17,-4,-2,0,2,-1,5
17:44:58:784145,-2,-6,-2,-1,-2,-3,-4,-1
17:44:58:799865,-2,-6,-2,-1,-2,-3,-4,-1
17:44:58:800651,-8,32,6,1,-2,-5,1,-7
17:44:58:807352,-3,-5,3,12,0,-1,-5,-9
17:44:58:808258,-3,-5,3,12,0,-1,-5,-9
17:44:58:814155,1,13,5,1,7,5,1,4
17:44:58:821637,-11,-26,3,-9,-6,-4,-5,0
17:44:58:829178,-11,-26,3,-9,-6,-4,-5,0
17:44:58:836650,-31,-39,-12,-13,-9,-3,-5,-7
17:44:58:844171,-2,-29,-14,15,-6,-3,1,0
17:44:58:852375,-2,-29,-14,15,-6,-3,1,0
17:44:58:853151,5,7,-9,9,5,-1,-4,-10
17:44:58:867303,-6,8,-5,-3,1,0,5,8
17:44:58:868138,-6,8,-5,-3,1,0,5,8
17:44:58:874178,-5,3,4,-1,1,-1,-4,9
17:44:58:881678,17,2,-2,-5,-4,-2,-5,-10
17:44:58:889167,17,2,-2,-5,-4,-2,-5,-10
17:44:58:904823,-1,-41,-12,-10,-4,-7,-7,2
17:44:58:905600,-5,23,11,0,6,7,6,2
17:44:58:912330,-5,23,11,0,6,7,6,2
17:44:58:913117,2,1,-3,1,-2,-2,-2,-1
17:44:58:927285,-7,-12,-15,-12,0,-1,-4,-4
17:44:58:928091,-7,-12,-15,-12,0,-1,-4,-4
17:44:58:934137,7,19,1,4,-1,2,1,1
17:44:58:941653,8,10,-4,21,6,1,1,3
17:44:58:949172,8,10,-4,21,6,1,1,3
17:44:58:956677,7,16,9,-4,-1,-4,-3,6
17:44:58:964148,-3,20,13,-13,-4,-6,-20,-33
17:44:58:972332,-3,20,13,-13,-4,-6,-20,-33
17:44:58:973121,7,16,-5,-5,-2,-2,-13,0
17:44:58:995518,-20,31,4,-4,-4,1,11,13
17:44:58:996322,-20,31,4,-4,-4,1,11,13
17:44:58:997108,-14,-8,3,2,0,0,3,-3
17:44:59:1634,25,-2,-9,-1,-2,-2,0,6
17:44:59:9246,25,-2,-9,-1,-2,-2,0,6
17:44:59:16629,9,0,-4,-5,1,-3,4,2
17:44:59:24157,1,-2,5,-2,0,2,4,0
17:44:59:32319,1,-2,5,-2,0,2,4,0
17:44:59:33113,-9,-8,2,-9,-1,0,-1,-9
17:44:59:47305,0,31,3,-6,-1,1,5,12
17:44:59:48110,0,31,3,-6,-1,1,5,12
17:44:59:54123,2,7,9,0,-5,-1,-1,4
17:44:59:61637,-20,-19,-6,-2,2,0,0,-12
17:44:59:69144,-20,-19,-6,-2,2,0,0,-12
17:44:59:76667,5,25,-1,0,-2,-3,-2,1
17:44:59:84160,7,0,0,-7,-3,-4,-5,-6
17:44:59:92329,7,0,0,-7,-3,-4,-5,-6
