Time,EMG1,EMG2,EMG3,EMG4,EMG5,EMG6,EMG7,EMG8
14:48:08:663662,-1,-1,-4,-1,-1,-3,0,-2
14:48:08:671127,-1,1,1,-4,0,-1,0,-2
14:48:08:678737,-1,1,1,-4,0,-1,0,-2
14:48:08:686154,-1,0,-3,-4,-1,-2,-1,-1
14:48:08:694329,-1,0,-5,1,0,0,0,-1
14:48:08:695193,-1,0,-5,1,0,0,0,-1
14:48:08:701150,1,2,-5,-3,-1,-1,-2,0
14:48:08:716836,0,-1,0,-1,-4,-2,-1,-1
14:48:08:717688,0,-1,0,-1,-4,-2,-1,-1
14:48:08:723659,3,-1,-1,-1,0,-1,-2,0
14:48:08:739335,-1,-4,-1,-1,-2,-1,-2,0
14:48:08:740135,-1,-4,-1,-1,-2,-1,-2,0
14:48:08:746098,1,4,-5,-2,-2,-1,-2,-2
14:48:08:754317,2,-5,-2,0,-1,-2,-3,-2
14:48:08:755161,2,-5,-2,0,-1,-2,-3,-2
14:48:08:761147,-2,-2,-3,-3,-3,-1,0,-3
14:48:08:776828,2,0,0,-1,0,0,0,0
14:48:08:777630,2,0,0,-1,0,0,0,0
14:48:08:783651,-2,-10,-7,-2,-3,-2,-3,-1
14:48:08:791129,0,-1,-2,-1,-2,-1,0,1
14:48:08:798679,0,-1,-2,-1,-2,-1,0,1
14:48:08:806135,-1,0,0,1,0,-1,3,10
14:48:08:814371,-2,2,1,0,-1,-1,0,-1
14:48:08:815176,-2,2,1,0,-1,-1,0,-1
14:48:08:821149,2,-1,0,0,-1,-1,0,1
14:48:08:836869,-6,-6,2,-1,1,1,-3,0
14:48:08:837675,-6,-6,2,-1,1,1,-3,0
14:48:08:843617,-3,2,2,0,0,1,0,-3
14:48:08:851112,0,1,-2,-3,-4,-3,0,-3
14:48:08:858714,0,1,-2,-3,-4,-3,0,-3
14:48:08:866172,4,-6,-4,-2,-2,-3,-2,-4
14:48:08:874295,0,2,-1,0,0,-2,1,-1
14:48:08:875136,0,2,-1,0,0,-2,1,-1
14:48:08:881162,2,-6,-8,-3,-2,-3,-3,-1
14:48:08:896866,2,0,-2,-2,-1,-1,-1,-1
14:48:08:897681,2,0,-2,-2,-1,-1,-1,-1
14:48:08:903659,-9,-2,-1,-1,-4,-1,-1,-3
14:48:08:911149,-6,0,-2,-1,-1,-3,-2,-1
14:48:08:926856,-6,0,-2,-1,-1,-3,-2,-1
14:48:08:927662,-1,2,1,-2,0,1,-1,-1
14:48:08:934355,-1,-2,-1,0,-1,-1,-2,0
14:48:08:935183,-1,-2,-1,0,-1,-1,-2,0
14:48:08:941151,-2,1,1,0,-1,0,-1,-2
14:48:08:956870,0,-1,-1,-1,-1,0,-2,-2
14:48:08:957680,0,-1,-1,-1,-1,0,-2,-2
14:48:08:963628,2,-1,0,1,1,-1,-1,0
14:48:08:971139,-2,-1,-2,-2,-2,-1,0,-1
14:48:08:978716,-2,-1,-2,-2,-2,-1,0,-1
14:48:08:986175,0,12,4,-1,-1,-1,0,-1
14:48:08:994295,-3,-12,-3,-2,-1,-2,-3,-1
14:48:08:995137,-3,-12,-3,-2,-1,-2,-3,-1
14:48:09:1178,-1,-2,-1,0,0,-4,-2,-3
14:48:09:16851,-1,0,0,-3,-1,-2,-1,0
14:48:09:17671,-1,0,0,-3,-1,-2,-1,0
14:48:09:23652,6,-6,-2,-2,0,0,-1,-3
14:48:09:31194,2,0,-1,0,-1,-1,-1,-2
14:48:09:38654,2,0,-1,0,-1,-1,-1,-2
14:48:09:46156,-6,0,1,-1,-2,-1,-1,-1
14:48:09:54332,2,0,1,-2,-2,-1,0,1
14:48:09:55150,2,0,1,-2,-2,-1,0,1
14:48:09:61106,2,-2,-3,-3,-2,-2,0,-2
14:48:09:76790,6,2,1,-1,-2,-2,-1,-2
14:48:09:77619,6,2,1,-1,-2,-2,-1,-2
14:48:09:91838,-1,-1,-1,-1,-2,1,-1,0
14:48:09:92599,7,2,-3,0,1,1,1,-2
14:48:09:98744,7,2,-3,0,1,1,1,-2
14:48:09:106174,-3,-4,-1,-2,-1,0,-3,0
14:48:09:114302,-5,-1,-3,-1,-2,-1,0,-2
14:48:09:115151,-5,-1,-3,-1,-2,-1,0,-2
14:48:09:121114,2,-2,-1,1,-2,-1,-2,1
14:48:09:137253,2,-2,-1,1,-2,-1,-2,1
14:48:09:144300,1,-2,-4,-1,-3,-3,-4,1
14:48:09:145107,-7,-8,2,1,3,3,2,-1
14:48:09:159343,-7,-8,2,1,3,3,2,-1
14:48:09:160170,-15,18,2,1,1,-1,1,-1
14:48:09:166183,-4,0,-1,0,0,-2,1,-1
14:48:09:174360,-4,0,-1,0,0,-2,1,-1
14:48:09:175125,-4,-5,0,-2,0,0,-1,0
14:48:09:188644,-1,6,-1,-1,-2,-2,-2,-1
14:48:09:196886,-1,6,-1,-1,-2,-2,-2,-1
14:48:09:197673,3,-7,-2,-4,-2,-1,-2,1
14:48:09:203648,-1,-7,-4,-2,-3,-2,-1,0
14:48:09:219328,-1,-7,-4,-2,-3,-2,-1,0
14:48:09:220172,-1,-2,-1,-2,-2,-1,0,-2
14:48:09:226124,-4,2,1,0,-1,-1,-1,-4
14:48:09:234378,-4,2,1,0,-1,-1,-1,-4
14:48:09:235174,-1,1,-1,0,-1,0,0,-1
14:48:09:248661,-1,0,-2,-2,-3,-1,-2,1
14:48:09:256856,-1,0,-2,-2,-3,-1,-2,1
14:48:09:257661,-1,-6,-2,-1,0,-1,0,-4
14:48:09:263643,-1,3,0,0,-1,-2,-2,-2
14:48:09:279357,-1,3,0,0,-1,-2,-2,-2
14:48:09:280133,-1,-9,-2,-1,0,-2,-2,-1
14:48:09:286160,-10,-7,6,0,-1,1,-1,-2
14:48:09:294343,-10,-7,6,0,-1,1,-1,-2
14:48:09:295199,2,0,-3,-2,-1,0,0,1
14:48:09:308657,3,0,-2,0,-1,-1,-2,0
14:48:09:316898,3,0,-2,0,-1,-1,-2,0
14:48:09:317677,-1,1,1,0,-2,-1,-1,-1
14:48:09:323632,2,1,-1,-1,-1,-1,-2,0
14:48:09:339353,2,1,-1,-1,-1,-1,-2,0
14:48:09:340144,-1,0,-1,-2,-2,0,0,0
14:48:09:346141,-2,-3,-3,-1,-1,-1,-2,-1
14:48:09:354390,-2,-3,-3,-1,-1,-1,-2,-1
14:48:09:355169,-8,1,-2,0,0,1,0,-2
14:48:09:368636,-1,2,-3,-2,1,-1,0,-1
14:48:09:376874,-1,2,-3,-2,1,-1,0,-1
14:48:09:377676,1,-3,-2,1,0,-1,-1,-2
14:48:09:383619,2,-2,0,-3,-2,-1,-1,-1
14:48:09:399322,2,-2,0,-3,-2,-1,-1,-1
14:48:09:400137,2,-1,-1,-1,1,-2,-1,-2
14:48:09:406098,6,1,1,-1,-2,-1,-1,-1
14:48:09:414345,6,1,1,-1,-2,-1,-1,-1
14:48:09:415145,0,13,7,1,-1,1,0,0
14:48:09:428668,-1,-1,-2,-1,-1,-1,-2,-1
14:48:09:436852,-1,-1,-2,-1,-1,-1,-2,-1
14:48:09:437646,-1,-9,-4,-1,-2,-4,-2,-1
14:48:09:443620,-3,3,-1,-2,0,-1,-2,-2
14:48:09:459322,-3,3,-1,-2,0,-1,-2,-2
14:48:09:460148,-1,-3,-2,-2,-3,1,-1,0
14:48:09:466142,-2,6,-1,0,1,1,0,-1
14:48:09:481822,-2,6,-1,0,1,1,0,-1
14:48:09:482612,-1,6,2,-1,0,-2,0,0
14:48:09:488679,-1,-6,-3,-1,-3,0,-1,-1
14:48:09:496811,-1,-6,-3,-1,-3,0,-1,-1
14:48:09:497630,0,1,1,-1,0,-1,0,1
14:48:09:503650,-1,-2,-2,-3,0,-2,0,-2
14:48:09:519353,-1,-2,-2,-3,0,-2,0,-2
14:48:09:520111,-2,-3,-4,-2,-2,-2,-3,-2
14:48:09:534394,-2,-4,-2,-1,1,0,-2,-1
14:48:09:535196,-2,-4,-2,-1,1,0,-2,-1
14:48:09:541181,2,-4,-3,-2,-1,-1,-3,-1
14:48:09:548649,0,0,0,0,-2,0,0,0
14:48:09:556837,0,0,0,0,-2,0,0,0
14:48:09:557612,0,-3,-1,-1,0,-3,-1,-1
14:48:09:563659,-4,-3,-3,-1,-1,1,1,-1
14:48:09:587598,-4,-3,-3,-1,-1,1,1,-1
14:48:09:588335,-1,-2,-1,0,-2,-1,0,-3
14:48:09:589122,-3,-1,0,1,-1,-2,-1,0
14:48:09:594346,-3,-1,0,1,-1,-2,-1,0
14:48:09:595164,-1,-2,-2,0,1,0,-1,-1
14:48:09:608650,1,-1,-2,0,-2,-3,-1,-1
14:48:09:616862,1,-1,-2,0,-2,-3,-1,-1
14:48:09:617669,-1,11,6,0,2,0,0,-1
14:48:09:623642,2,0,-3,-1,-2,-1,-1,-1
14:48:09:647475,2,0,-3,-1,-2,-1,-1,-1
14:48:09:648280,-3,-4,-2,-3,-3,-1,-1,0
14:48:09:649090,-2,-2,0,-2,-1,1,-2,1
14:48:09:654341,-2,-2,0,-2,-1,1,-2,1
14:48:09:655121,-5,-6,-1,1,0,-1,-1,-1
14:48:09:668670,-8,-5,0,-1,-2,-1,-2,-2
14:48:09:676827,-8,-5,0,-1,-2,-1,-2,-2
14:48:09:677644,1,-5,-2,-2,-3,-3,0,0
14:48:09:683661,-1,1,1,-1,-2,-1,0,-1
14:48:09:699404,-1,1,1,-1,-2,-1,0,-1
14:48:09:700181,-1,0,0,-1,0,-1,-1,0
14:48:09:706169,1,0,-2,-3,-1,-2,-2,0
14:48:09:714358,1,0,-2,-3,-1,-2,-2,0
14:48:09:715126,1,-3,-1,-3,-4,-2,-2,0
14:48:09:728667,-1,-27,-6,-2,-3,0,-1,-1
14:48:09:736900,-1,-27,-6,-2,-3,0,-1,-1
14:48:09:737696,1,-1,-3,-1,-2,-2,-2,-2
14:48:09:743678,1,3,-1,0,-2,-1,-1,-1
14:48:09:759376,1,3,-1,0,-2,-1,-1,-1
14:48:09:760187,-1,0,-1,0,0,0,-1,-3
14:48:09:766166,3,5,1,-1,-1,-3,-1,0
14:48:09:774433,3,5,1,-1,-1,-3,-1,0
14:48:09:775201,2,5,1,0,-1,-3,-2,2
14:48:09:788652,-1,2,-2,-1,0,-1,-1,-2
14:48:09:796883,-1,2,-2,-1,0,-1,-1,-2
14:48:09:797694,-1,-5,-3,0,-2,-2,-1,-1
14:48:09:811134,-1,3,0,-1,-1,-1,-1,0
14:48:09:819359,-1,3,0,-1,-1,-1,-1,0
14:48:09:820131,-4,-13,-4,0,0,0,-2,-1
14:48:09:826136,-2,4,0,-2,0,-1,-2,-1
14:48:09:833708,-2,4,0,-2,0,-1,-2,-1
14:48:09:841169,3,-1,-3,0,-2,2,1,-1
14:48:09:848665,3,5,2,0,-2,-1,-1,0
14:48:09:856660,3,5,2,0,-2,-1,-1,0
14:48:09:864313,-1,0,-1,-2,0,-3,-2,0
14:48:09:865148,0,3,2,0,0,-1,-1,-1
14:48:09:879381,0,3,2,0,0,-1,-1,-1
14:48:09:880203,1,42,12,3,2,0,1,0
14:48:09:886196,-3,0,-3,-2,0,-1,-2,0
14:48:09:894344,-3,0,-3,-2,0,-1,-2,0
14:48:09:895150,-2,-12,-3,-1,-4,-2,-1,-2
14:48:09:908623,-7,-2,3,1,2,2,1,-2
14:48:09:916882,-7,-2,3,1,2,2,1,-2
14:48:09:917693,-3,-9,-4,-3,-1,-1,0,-2
14:48:09:923642,5,-7,-4,0,-3,-3,-2,4
14:48:09:939390,5,-7,-4,0,-3,-3,-2,4
14:48:09:940177,-3,-17,-5,-4,-2,-2,-1,-1
14:48:09:946172,0,-3,-2,1,1,-2,0,-4
14:48:09:954434,0,-3,-2,1,1,-2,0,-4
14:48:09:955179,-1,-9,-6,-2,-3,-2,-3,0
14:48:09:968654,-2,-2,-2,-1,0,0,-1,-2
14:48:09:976884,-2,-2,-2,-1,0,0,-1,-2
14:48:09:977672,-2,-2,-2,0,-2,-1,-1,-1
14:48:09:983649,1,2,-2,-2,-3,-1,-1,2
14:48:09:999390,1,2,-2,-2,-3,-1,-1,2
14:48:10:148,-1,-1,-1,-2,-1,0,-1,-1
14:48:10:6140,0,6,1,-2,-3,-1,-1,-2
14:48:10:14383,0,6,1,-2,-3,-1,-1,-2
14:48:10:15213,2,-11,-5,0,2,0,1,-1
14:48:10:37502,1,0,-1,-3,-3,-2,-1,-3
14:48:10:38308,1,0,-1,-3,-3,-2,-1,-3
14:48:10:39137,-2,2,0,-1,0,0,-2,0
14:48:10:43606,-2,6,2,1,2,-1,-1,-1
14:48:10:59354,-2,6,2,1,2,-1,-1,-1
14:48:10:60135,-4,5,1,0,-1,-1,0,-1
14:48:10:66143,-2,-1,-2,-2,-3,-1,-3,-3
14:48:10:74341,-2,-1,-2,-2,-3,-1,-3,-3
14:48:10:75193,-7,-1,5,0,-1,0,0,1
14:48:10:88684,-2,-3,-2,1,0,0,0,-2
14:48:10:96826,-2,-3,-2,1,0,0,0,-2
14:48:10:97618,1,1,-2,0,-1,-1,-2,-1
14:48:10:111192,-5,-3,-2,-1,-1,-2,-1,-1
14:48:10:119329,-5,-3,-2,-1,-1,-2,-1,-1
14:48:10:120136,-2,-2,-2,-1,-3,1,-1,-1
14:48:10:126137,1,-2,-3,-1,-2,-1,-1,-2
14:48:10:133674,1,-2,-3,-1,-2,-1,-1,-2
14:48:10:141097,0,1,-3,-2,-1,-1,0,-1
14:48:10:148619,-1,-1,-1,-1,0,-1,1,-1
14:48:10:156826,-1,-1,-1,-1,0,-1,1,-1
14:48:10:157658,0,0,-2,1,0,0,0,-1
14:48:10:171159,-1,-3,-4,-1,-1,-1,-1,-1
14:48:10:179352,-1,-3,-4,-1,-1,-1,-1,-1
14:48:10:180175,-2,0,-5,-4,-2,-1,-4,-1
14:48:10:186109,0,-2,1,-1,-2,-2,-2,-1
14:48:10:193706,0,-2,1,-1,-2,-2,-2,-1
14:48:10:201127,1,-1,-10,-9,-5,-1,2,-1
14:48:10:208639,-4,-8,-31,-21,-14,-4,3,-2
14:48:10:216874,-4,-8,-31,-21,-14,-4,3,-2
14:48:10:217646,0,3,4,5,12,-4,0,1
14:48:10:231135,0,-3,16,-20,-3,-5,-4,-1
14:48:10:239380,0,-3,16,-20,-3,-5,-4,-1
14:48:10:240189,-1,-3,-1,0,-20,-3,1,-2
14:48:10:246147,3,4,12,22,-5,12,-3,2
14:48:10:253736,3,4,12,22,-5,12,-3,2
14:48:10:261154,-1,-2,13,12,23,-12,-1,-1
14:48:10:268667,0,-1,-15,3,16,7,4,2
14:48:10:276873,0,-1,-15,3,16,7,4,2
14:48:10:277674,-2,-3,-2,-7,-24,-11,-7,-4
14:48:10:291161,2,-1,4,2,9,6,6,2
14:48:10:299362,2,-1,4,2,9,6,6,2
14:48:10:300174,-2,1,-7,-8,-9,-2,-3,0
14:48:10:306153,-20,-2,7,2,-8,-14,-2,-2
14:48:10:313715,-20,-2,7,2,-8,-14,-2,-2
14:48:10:321193,-3,2,-1,6,17,13,-2,-2
14:48:10:328676,2,-2,0,5,-3,-6,-11,-3
14:48:10:336876,2,-2,0,5,-3,-6,-11,-3
14:48:10:337643,2,-6,-4,-6,-9,0,-1,-1
14:48:10:351143,11,1,7,-3,-3,-7,-1,8
14:48:10:359367,11,1,7,-3,-3,-7,-1,8
14:48:10:360186,10,-3,5,4,-1,7,1,2
14:48:10:366148,4,-1,-12,-8,4,1,3,1
14:48:10:373697,4,-1,-12,-8,4,1,3,1
14:48:10:381161,2,4,-7,2,1,4,4,-4
14:48:10:388719,4,6,5,8,-2,-3,-4,-6
14:48:10:396873,4,6,5,8,-2,-3,-4,-6
14:48:10:397653,-14,3,-3,-1,2,-5,-6,-33
14:48:10:420021,-11,0,-7,-1,-4,1,-4,-5
14:48:10:420837,-11,0,-7,-1,-4,1,-4,-5
14:48:10:421620,2,-4,3,2,2,0,1,18
14:48:10:426132,-5,-9,2,1,-1,-1,0,-4
14:48:10:433735,-5,-9,2,1,-1,-1,0,-4
14:48:10:441157,-4,-3,-5,1,0,0,2,2
14:48:10:448670,10,14,1,9,6,4,2,8
14:48:10:464377,10,14,1,9,6,4,2,8
14:48:10:465219,4,11,14,-3,-3,1,-1,1
14:48:10:471147,-5,-11,-10,-10,-4,-4,-2,-4
14:48:10:479321,-5,-11,-10,-10,-4,-4,-2,-4
14:48:10:480121,-5,-38,-9,-2,2,-3,-2,-1
14:48:10:486163,7,13,8,-9,-5,1,0,-5
14:48:10:493678,7,13,8,-9,-5,1,0,-5
14:48:10:509325,0,8,8,0,-5,-3,1,16
14:48:10:510112,-9,1,4,-4,-8,-4,-4,-6
14:48:10:516796,-9,1,4,-4,-8,-4,-4,-6
14:48:10:517651,-5,9,-11,-16,-3,-3,-2,1
14:48:10:531142,3,12,-14,-3,-1,-1,-1,1
14:48:10:539369,3,12,-14,-3,-1,-1,-1,1
14:48:10:540192,7,6,-1,-2,-1,-1,0,-2
14:48:10:546148,-6,-16,-10,-24,-6,0,-2,-3
14:48:10:553677,-6,-16,-10,-24,-6,0,-2,-3
14:48:10:561164,1,-9,13,14,1,-2,-2,-4
14:48:10:568687,1,-2,9,26,17,6,5,2
14:48:10:576882,1,-2,9,26,17,6,5,2
14:48:10:577646,-5,32,-4,-9,-4,-1,-1,-5
14:48:10:591191,8,2,9,5,-2,-3,0,-1
14:48:10:599343,8,2,9,5,-2,-3,0,-1
14:48:10:600130,-2,0,-3,2,2,0,-2,-4
14:48:10:606169,-8,-2,-3,-13,-6,-5,-3,-2
14:48:10:613667,-8,-2,-3,-13,-6,-5,-3,-2
14:48:10:621117,2,7,13,9,-2,0,0,0
14:48:10:628618,0,-4,7,1,1,-2,-2,0
14:48:10:636845,0,-4,7,1,1,-2,-2,0
14:48:10:637636,-5,-4,-10,-12,-10,-2,-2,0
14:48:10:651174,3,1,4,4,2,3,1,1
14:48:10:659357,3,1,4,4,2,3,1,1
14:48:10:660141,1,-9,-2,1,3,3,-1,-1
14:48:10:666119,-4,-18,-11,-1,-2,0,-1,-3
14:48:10:673707,-4,-18,-11,-1,-2,0,-1,-3
14:48:10:681163,-2,-5,-9,-4,-5,-4,-3,-3
14:48:10:688622,-2,4,-3,-5,-3,-3,-2,-2
14:48:10:696876,-2,4,-3,-5,-3,-3,-2,-2
14:48:10:697669,-1,-10,13,5,0,1,-1,2
14:48:10:711129,-2,5,0,-19,-8,-1,1,0
14:48:10:719338,-2,5,0,-19,-8,-1,1,0
14:48:10:720163,0,-6,3,2,-3,-2,-2,2
14:48:10:726135,-1,-1,-7,3,-1,1,0,0
14:48:10:733731,-1,-1,-7,3,-1,1,0,0
14:48:10:741140,-3,-3,-5,-4,-1,-1,-1,-2
14:48:10:748664,-1,6,-1,1,-4,-2,-3,0
14:48:10:756874,-1,6,-1,1,-4,-2,-3,0
14:48:10:757696,-3,-25,-14,13,3,0,-1,-2
14:48:10:771119,-2,0,7,7,-4,-4,-3,-1
14:48:10:779360,-2,0,7,7,-4,-4,-3,-1
14:48:10:780176,-1,8,-7,-8,1,-1,-4,-21
14:48:10:786151,-2,-5,-3,0,-1,-1,-1,-5
14:48:10:793707,-2,-5,-3,0,-1,-1,-1,-5
14:48:10:801162,-1,9,-1,-7,0,2,1,2
14:48:10:808659,-2,-9,3,5,1,0,0,-2
14:48:10:816820,-2,-9,3,5,1,0,0,-2
14:48:10:817636,3,0,-13,-3,-1,-1,0,4
14:48:10:831128,3,-4,15,12,0,-2,-1,3
14:48:10:839405,3,-4,15,12,0,-2,-1,3
14:48:10:840201,1,1,3,-1,-3,-2,-2,1
14:48:10:846147,-11,-8,-18,-8,-2,-2,-1,-3
14:48:10:853686,-11,-8,-18,-8,-2,-2,-1,-3
14:48:10:861163,1,6,-1,-2,-1,-1,0,1
14:48:10:868657,1,0,1,5,4,2,-1,1
14:48:10:876835,1,0,1,5,4,2,-1,1
14:48:10:877632,1,-4,-4,-5,-5,-4,-2,2
14:48:10:891137,0,2,1,1,1,0,1,6
14:48:10:899318,0,2,1,1,1,0,1,6
14:48:10:900158,4,1,1,1,5,3,2,1
14:48:10:906149,-2,-2,-5,-7,-7,-8,-5,-5
14:48:10:913651,-2,-2,-5,-7,-7,-8,-5,-5
14:48:10:921143,8,-1,-1,1,4,3,3,1
14:48:10:928643,-6,-6,-11,-8,-1,0,0,-1
14:48:10:936840,-6,-6,-11,-8,-1,0,0,-1
14:48:10:937658,-4,4,2,-4,-4,-3,0,-2
14:48:10:951166,1,11,3,1,-1,0,1,3
14:48:10:959370,1,11,3,1,-1,0,1,3
14:48:10:960137,-3,-11,-4,-2,-2,-3,1,6
14:48:10:966140,0,-3,-1,3,2,0,1,-6
14:48:10:973697,0,-3,-1,3,2,0,1,-6
14:48:10:981109,-7,-5,-1,-1,2,3,4,7
14:48:10:988625,3,-2,-3,-2,0,3,1,1
14:48:10:996871,3,-2,-3,-2,0,3,1,1
14:48:10:997664,-10,3,3,-2,-4,-4,0,-2
14:48:11:11132,1,2,-1,-2,0,-2,0,-2
14:48:11:19338,1,2,-1,-2,0,-2,0,-2
14:48:11:20143,-2,-4,-4,-2,-2,-4,-15,10
14:48:11:26129,-3,-2,1,2,-1,-7,-2,3
14:48:11:33709,-3,-2,1,2,-1,-7,-2,3
14:48:11:41161,-9,-1,-3,0,1,-2,4,-15
14:48:11:48648,4,1,0,-1,-2,0,-6,2
14:48:11:56256,4,1,0,-1,-2,0,-6,2
14:48:11:63627,3,3,0,1,0,3,7,1
14:48:11:71175,-5,-3,-5,-2,-3,0,-4,-8
14:48:11:79324,-5,-3,-5,-2,-3,0,-4,-8
14:48:11:80167,-2,0,-2,-1,-5,-2,0,-4
14:48:11:94344,9,-1,-2,-3,-1,-4,-14,-7
14:48:11:95188,9,-1,-2,-3,-1,-4,-14,-7
14:48:11:101147,-2,-7,-2,0,2,1,-5,2
14:48:11:108637,11,2,0,0,3,7,8,10
14:48:11:116169,11,2,0,0,3,7,8,10
14:48:11:123694,17,2,1,-2,-2,-13,-25,10
14:48:11:131137,-5,-5,-2,-1,-3,-1,5,2
14:48:11:139340,-5,-5,-2,-1,-3,-1,5,2
14:48:11:140151,-3,1,2,1,-1,3,-4,-21
14:48:11:154308,0,-2,0,-1,-1,-1,-7,1
14:48:11:155159,0,-2,0,-1,-1,-1,-7,1
14:48:11:161156,-2,1,-2,-2,-3,-2,5,-2
14:48:11:168672,-5,-3,0,3,-2,-1,4,-4
14:48:11:176178,-5,-3,0,3,-2,-1,4,-4
14:48:11:183643,4,-4,-1,-2,1,2,6,1
14:48:11:191118,-2,-3,-3,-3,-2,-2,-2,-11
14:48:11:199365,-2,-3,-3,-3,-2,-2,-2,-11
14:48:11:200145,-2,1,1,0,-2,0,-4,3
14:48:11:214324,-8,-6,-2,-3,-2,3,14,1
14:48:11:215138,-8,-6,-2,-3,-2,3,14,1
14:48:11:221133,-1,0,-2,-3,-3,-2,1,-2
14:48:11:228618,6,1,-1,-3,0,-1,4,5
14:48:11:236234,6,1,-1,-3,0,-1,4,5
14:48:11:243633,-9,-1,-3,-1,-1,-3,-2,2
14:48:11:251151,2,3,2,2,3,1,-2,2
14:48:11:259373,2,3,2,2,3,1,-2,2
14:48:11:260157,-8,-3,-3,-4,-1,1,-2,-1
14:48:11:274350,-3,3,0,-2,0,0,-8,-12
14:48:11:275176,-3,3,0,-2,0,0,-8,-12
14:48:11:281143,7,4,1,3,2,-1,18,2
14:48:11:288645,-7,2,2,3,5,-1,-4,-7
14:48:11:296199,-7,2,2,3,5,-1,-4,-7
14:48:11:303638,-1,-3,-4,-3,-4,-3,-6,-5
14:48:11:311167,-1,-1,3,3,4,3,-1,8
14:48:11:319370,-1,-1,3,3,4,3,-1,8
14:48:11:320160,4,-7,0,-1,0,2,-5,-10
14:48:11:334393,0,-3,-3,-2,-6,-8,-26,-7
14:48:11:335178,0,-3,-3,-2,-6,-8,-26,-7
14:48:11:341170,4,-1,0,1,3,-8,-20,-5
14:48:11:348672,-1,-3,-3,-1,-1,0,4,0
14:48:11:356218,-1,-3,-3,-1,-1,0,4,0
14:48:11:363656,-2,3,0,-2,-4,0,2,1
14:48:11:371154,-8,-5,-3,-1,3,-2,1,4
14:48:11:379365,-8,-5,-3,-1,3,-2,1,4
14:48:11:380124,-3,0,2,-1,4,4,5,2
14:48:11:394382,-6,1,-3,-3,-6,-5,9,-3
14:48:11:395215,-6,1,-3,-3,-6,-5,9,-3
14:48:11:401170,-2,-1,-1,0,0,3,14,9
14:48:11:408652,-11,-4,-2,-4,-8,-5,-7,-7
14:48:11:416185,-11,-4,-2,-4,-8,-5,-7,-7
14:48:11:423688,5,6,1,0,3,3,-6,-5
14:48:11:431162,-15,-3,-2,-2,1,4,12,3
14:48:11:439339,-15,-3,-2,-2,1,4,12,3
14:48:11:440147,17,-5,-4,-4,-5,-6,-7,-5
14:48:11:454357,10,0,0,0,1,0,-9,-9
14:48:11:455165,10,0,0,0,1,0,-9,-9
14:48:11:461207,-10,-6,0,2,4,-1,7,-3
14:48:11:468685,6,1,3,0,2,-1,6,2
14:48:11:476216,6,1,3,0,2,-1,6,2
14:48:11:483668,-6,-2,-2,-2,-3,1,13,-6
14:48:11:491163,0,1,-2,1,1,3,8,3
14:48:11:499370,0,1,-2,1,1,3,8,3
14:48:11:500163,1,-9,-2,-1,-3,-4,-11,12
14:48:11:514335,15,7,-2,-2,-4,-6,-9,-3
14:48:11:515141,15,7,-2,-2,-4,-6,-9,-3
14:48:11:521137,-4,-1,-2,-2,-2,-6,-15,-6
14:48:11:528651,5,0,-1,-2,1,4,13,-12
14:48:11:536228,5,0,-1,-2,1,4,13,-12
14:48:11:543649,-30,-1,-1,-2,-4,3,15,-33
14:48:11:551127,-30,-3,1,1,0,2,-3,5
14:48:11:559338,-30,-3,1,1,0,2,-3,5
14:48:11:560190,1,2,2,0,0,5,2,0
14:48:11:574319,-18,1,-1,-1,-6,-9,-11,3
14:48:11:575185,-18,1,-1,-1,-6,-9,-11,3
14:48:11:581148,6,2,0,0,3,0,-2,11
14:48:11:588638,11,-2,-2,-1,-4,-3,-2,7
14:48:11:596196,11,-2,-2,-1,-4,-3,-2,7
14:48:11:603637,-5,-3,-1,-2,-4,-4,-8,-5
14:48:11:611133,0,-9,-2,0,5,5,13,-22
14:48:11:619384,0,-9,-2,0,5,5,13,-22
14:48:11:620154,3,5,-2,-1,-3,-8,-11,7
14:48:11:634386,8,-4,-5,-4,-4,-6,-19,15
14:48:11:635198,8,-4,-5,-4,-4,-6,-19,15
14:48:11:641137,-9,0,-1,1,5,-3,-27,5
14:48:11:648660,-7,0,-1,0,0,4,18,-10
14:48:11:656231,-7,0,-1,0,0,4,18,-10
14:48:11:663680,13,-3,-1,1,-4,1,1,-2
14:48:11:671157,7,0,-4,-2,-2,-5,-15,8
14:48:11:679364,7,0,-4,-2,-2,-5,-15,8
14:48:11:680116,8,1,0,-1,-1,2,9,1
14:48:11:694341,-13,-4,3,0,0,-1,-3,6
14:48:11:695128,-13,-4,3,0,0,-1,-3,6
14:48:11:701158,1,-2,-1,-1,-2,0,10,1
14:48:11:708666,10,6,0,-2,0,-3,-16,2
14:48:11:716194,10,6,0,-2,0,-3,-16,2
14:48:11:723680,22,-5,-4,-2,-6,-6,-17,16
14:48:11:739993,0,-1,-1,-2,-1,-2,-3,-3
14:48:11:740804,0,-1,-1,-2,-1,-2,-3,-3
14:48:11:741587,0,3,1,-1,-1,2,5,6
14:48:11:754363,4,-1,-4,-2,-4,0,15,-2
14:48:11:755169,4,-1,-4,-2,-4,0,15,-2
14:48:11:761151,-14,5,-1,-2,3,-3,-5,-25
14:48:11:768652,0,-1,-2,-1,1,3,-8,-5
14:48:11:776238,0,-1,-2,-1,1,3,-8,-5
14:48:11:783669,-10,-5,0,-2,-2,-2,8,-1
14:48:11:791148,2,-5,0,1,2,2,2,-2
14:48:11:799358,2,-5,0,1,2,2,2,-2
14:48:11:800176,3,1,-3,-2,-3,1,7,-6
14:48:11:822515,-14,-1,0,-1,-5,-3,-5,-10
14:48:11:823326,-14,-1,0,-1,-5,-3,-5,-10
14:48:11:824162,-8,-4,0,-1,0,8,38,6
14:48:11:828620,4,2,2,3,1,-4,-4,5
14:48:11:836218,4,2,2,3,1,-4,-4,5
14:48:11:851802,-15,-4,-2,-2,-4,-6,4,-27
14:48:11:852572,10,-7,-2,1,1,-4,13,9
14:48:11:859383,10,-7,-2,1,1,-4,13,9
14:48:11:860166,11,-4,0,-1,5,2,-3,18
14:48:11:874350,-1,2,-2,-4,-5,-7,-1,2
14:48:11:875168,-1,2,-2,-4,-5,-7,-1,2
14:48:11:881142,-23,3,-1,-3,-3,0,-13,-5
14:48:11:888637,-8,-7,1,0,0,0,-1,3
14:48:11:896200,-8,-7,1,0,0,0,-1,3
14:48:11:903643,34,0,3,3,4,3,-10,14
14:48:11:911133,-8,-2,-4,-7,-8,-1,24,-13
14:48:11:919322,-8,-2,-4,-7,-8,-1,24,-13
14:48:11:920128,-11,0,-3,-3,2,-3,-6,-18
14:48:11:934390,-1,-1,0,-2,-2,2,-4,-3
14:48:11:935169,-1,-1,0,-2,-2,2,-4,-3
14:48:11:941160,-2,-3,-1,0,-4,1,6,7
14:48:11:948662,13,2,-1,1,1,-2,-14,7
14:48:11:964360,13,2,-1,1,1,-2,-14,7
14:48:11:965157,-7,-5,-1,-2,-1,-5,-15,4
14:48:11:971161,12,3,1,-1,-4,-9,-33,23
14:48:11:979354,12,3,1,-1,-4,-9,-33,23
14:48:11:980160,13,0,-1,0,4,-1,-16,4
14:48:11:994364,-5,-2,-3,-2,-1,3,1,-6
14:48:11:995186,-5,-2,-3,-2,-1,3,1,-6
14:48:12:1139,-26,4,1,1,-4,-5,-38,-13
14:48:12:16826,10,5,0,0,5,5,-10,-5
14:48:12:17691,10,5,0,0,5,5,-10,-5
14:48:12:23612,19,4,2,0,0,3,8,16
14:48:12:31122,2,1,-2,-1,-2,-4,-6,-24
14:48:12:38723,2,1,-2,-1,-2,-4,-6,-24
14:48:12:46135,24,-5,-3,-1,-1,-1,-4,16
14:48:12:54360,-17,-12,-1,0,-1,-3,-6,-1
14:48:12:55169,-17,-12,-1,0,-1,-3,-6,-1
14:48:12:61171,-7,-1,-3,-2,-2,0,23,-5
14:48:12:76859,-4,2,0,2,3,3,-6,-9
14:48:12:77693,-4,2,0,2,3,3,-6,-9
14:48:12:83667,-1,-4,-1,0,-1,-1,11,-11
14:48:12:91118,14,2,-1,-1,-1,-6,-7,1
14:48:12:98726,14,2,-1,-1,-1,-6,-7,1
14:48:12:106159,-20,-6,-1,-2,-2,-4,10,-9
14:48:12:114304,-12,-6,-3,-1,-5,-2,-12,10
14:48:12:115125,-12,-6,-3,-1,-5,-2,-12,10
14:48:12:121144,-1,-1,-2,2,0,-4,7,4
14:48:12:136855,-16,-5,-1,-3,-1,-1,-3,-16
14:48:12:137662,-16,-5,-1,-3,-1,-1,-3,-16
14:48:12:151785,-5,-4,-4,-3,-1,-4,-11,-11
14:48:12:152594,-1,2,-2,-1,-3,-5,-24,-2
14:48:12:158743,-1,2,-2,-1,-3,-5,-24,-2
14:48:12:166136,19,5,1,2,-1,2,-17,-11
14:48:12:174363,10,2,3,0,-1,0,20,8
14:48:12:175172,10,2,3,0,-1,0,20,8
14:48:12:181189,-26,-8,2,1,0,-4,-9,6
14:48:12:196908,7,4,2,1,3,12,22,11
14:48:12:197688,7,4,2,1,3,12,22,11
14:48:12:203686,1,1,-1,1,2,0,1,15
14:48:12:211132,-10,-1,-2,-3,-5,1,8,-7
14:48:12:218713,-10,-1,-2,-3,-5,1,8,-7
14:48:12:226185,2,1,-1,0,-3,2,27,20
14:48:12:234334,-10,3,0,2,4,-5,-3,4
14:48:12:235116,-10,3,0,2,4,-5,-3,4
14:48:12:241187,-6,4,-2,-3,-1,-1,-5,0
14:48:12:265050,9,-7,-1,0,0,1,2,-4
14:48:12:265830,9,-7,-1,0,0,1,2,-4
14:48:12:266601,-1,-1,-1,-4,-7,-1,6,-9
14:48:12:271144,12,1,3,3,6,4,-18,15
14:48:12:278702,12,1,3,3,6,4,-18,15
14:48:12:286181,2,3,-2,-3,-6,-11,-21,0
14:48:12:294764,-7,-3,-4,-1,-3,0,-10,-5
14:48:12:301874,-7,-3,-4,-1,-3,0,-10,-5
14:48:12:302689,6,-3,-2,-2,-3,-3,-20,9
14:48:12:316877,4,-1,-2,-3,-3,-7,-2,1
14:48:12:317675,4,-1,-2,-3,-3,-7,-2,1
14:48:12:323654,-7,-1,0,0,4,2,-3,5
14:48:12:331180,-35,-2,-3,-1,0,-4,-1,-11
14:48:12:338658,-35,-2,-3,-1,0,-4,-1,-11
14:48:12:346153,-1,-4,0,-2,1,-4,-3,-6
14:48:12:362537,1,9,0,-2,3,7,2,7
14:48:12:363316,1,9,0,-2,3,7,2,7
14:48:12:364136,5,-1,0,-2,-3,-2,14,12
14:48:12:376817,16,-2,-3,-3,-8,0,4,17
14:48:12:377675,16,-2,-3,-3,-8,0,4,17
14:48:12:383630,0,2,-3,1,5,11,6,0
14:48:12:391172,-2,-8,-3,-4,-6,0,8,-19
14:48:12:398759,-2,-8,-3,-4,-6,0,8,-19
14:48:12:406172,-4,-4,-2,-2,-3,8,2,-6
14:48:12:414314,-2,-2,-1,2,4,2,13,-4
14:48:12:415135,-2,-2,-1,2,4,2,13,-4
14:48:12:421152,-13,-5,0,-1,1,0,1,-19
14:48:12:436846,9,2,0,-3,-4,-5,-33,-47
14:48:12:437666,9,2,0,-3,-4,-5,-33,-47
14:48:12:443663,1,2,-2,-3,-6,1,16,-11
14:48:12:451175,11,-1,1,-2,0,7,23,22
14:48:12:458656,11,-1,1,-2,0,7,23,22
14:48:12:466186,5,1,-2,2,3,3,-3,2
14:48:12:474350,-12,-5,-4,-4,-7,-14,-5,1
14:48:12:475184,-12,-5,-4,-4,-7,-14,-5,1
14:48:12:481136,0,-5,0,-2,1,-4,7,-3
14:48:12:496813,4,-3,-2,2,0,-5,-8,11
14:48:12:497647,4,-3,-2,2,0,-5,-8,11
14:48:12:503690,-2,-1,0,0,-4,-4,-19,-24
14:48:12:511180,9,-6,-3,-2,2,9,20,-6
14:48:12:518713,9,-6,-3,-2,2,9,20,-6
14:48:12:526117,1,1,2,0,0,2,-22,-8
14:48:12:534339,-12,3,0,0,-3,-7,-8,-25
14:48:12:535184,-12,3,0,0,-3,-7,-8,-25
14:48:12:541139,3,1,-3,-3,-6,-10,-3,-6
14:48:12:556808,-10,-5,1,0,-1,-3,-1,13
14:48:12:557660,-10,-5,1,0,-1,-3,-1,13
14:48:12:563643,-13,-6,-2,-3,-1,-1,15,-4
14:48:12:571193,-2,4,1,0,-3,-2,15,15
14:48:12:578687,-2,4,1,0,-3,-2,15,15
14:48:12:586151,7,3,1,2,-1,-6,22,15
14:48:12:594374,1,-3,-6,-4,-1,-4,-15,2
14:48:12:595176,1,-3,-6,-4,-1,-4,-15,2
14:48:12:601144,9,2,-1,-3,3,-2,-15,9
14:48:12:616836,27,-1,1,-1,1,3,-7,-4
14:48:12:617642,27,-1,1,-1,1,3,-7,-4
14:48:12:623622,3,-1,-2,0,0,-1,1,4
14:48:12:631150,13,2,0,-3,-2,7,21,46
14:48:12:638732,13,2,0,-3,-2,7,21,46
14:48:12:646162,-2,-12,-1,-1,-4,0,22,5
14:48:12:654371,5,4,-2,0,1,3,4,8
14:48:12:655176,5,4,-2,0,1,3,4,8
14:48:12:661194,-2,-1,-4,-3,-4,-2,27,-4
14:48:12:676868,-17,-1,1,-1,0,-2,-11,-25
14:48:12:677719,-17,-1,1,-1,0,-2,-11,-25
14:48:12:683658,-2,2,-3,-3,-7,-3,-20,-2
14:48:12:691151,2,3,3,6,12,13,5,-18
14:48:12:698713,2,3,3,6,12,13,5,-18
14:48:12:706166,-4,1,0,0,-1,9,43,8
14:48:12:714297,-14,-1,-2,-5,-12,-12,-10,-12
14:48:12:715119,-14,-1,-2,-5,-12,-12,-10,-12
14:48:12:721186,-6,-1,2,2,4,-3,-22,-17
14:48:12:736870,-16,-8,-1,0,-1,3,6,-13
14:48:12:737671,-16,-8,-1,0,-1,3,6,-13
14:48:12:743664,-26,-1,0,-2,-4,4,-22,-38
14:48:12:751169,-7,-6,-3,3,6,7,27,-6
14:48:12:758670,-7,-6,-3,3,6,7,27,-6
14:48:12:766164,-5,-5,-2,-2,-2,-4,-16,11
14:48:12:774300,-8,1,-2,-1,-6,-2,2,6
14:48:12:775160,-8,1,-2,-1,-6,-2,2,6
14:48:12:781148,30,6,2,1,5,6,-12,11
14:48:12:796825,7,-3,1,-3,-6,-7,-2,12
14:48:12:797621,7,-3,1,-3,-6,-7,-2,12
14:48:12:803701,-9,-2,-1,2,1,-1,58,9
14:48:12:811185,19,-3,-3,-4,-4,-8,-36,3
14:48:12:818700,19,-3,-3,-4,-4,-8,-36,3
14:48:12:826103,-9,-2,-1,-2,-7,-13,-25,-13
14:48:12:834350,25,-2,-2,-1,-1,-6,6,13
14:48:12:835161,25,-2,-2,-1,-1,-6,6,13
14:48:12:841145,17,2,0,0,-10,-3,9,13
14:48:12:856812,-12,-1,-2,-3,-5,-3,-1,-16
14:48:12:857676,-12,-1,-2,-3,-5,-3,-1,-16
14:48:12:863630,6,-3,-3,-1,4,10,6,10
14:48:12:871109,-15,1,-1,-2,-6,-20,0,-18
14:48:12:878706,-15,1,-1,-2,-6,-20,0,-18
14:48:12:886141,-8,-3,1,0,5,2,-11,6
14:48:12:894362,13,-6,-2,1,1,1,4,9
14:48:12:895140,13,-6,-2,1,1,1,4,9
14:48:12:901133,-12,-2,-1,-4,-4,-4,-25,-20
14:48:12:916842,3,1,0,1,2,-2,-27,3
14:48:12:917665,3,1,0,1,2,-2,-27,3
14:48:12:923649,-16,-4,-4,0,0,-1,48,-18
14:48:12:939300,-12,3,1,0,-2,4,19,-11
14:48:12:940151,-12,3,1,0,-2,4,19,-11
14:48:12:946133,-25,-1,-1,-2,3,-4,-34,-22
14:48:12:954404,-14,-1,-3,-4,-8,-5,-3,-22
14:48:12:955175,-14,-1,-3,-4,-8,-5,-3,-22
14:48:12:968614,9,1,-5,-4,-3,2,20,5
14:48:12:976846,-2,-3,1,1,9,7,0,29
14:48:12:977675,-2,-3,1,1,9,7,0,29
14:48:12:983620,-15,-6,-6,-5,-13,-7,1,9
14:48:12:999324,8,12,2,4,19,13,17,24
14:48:13:145,8,12,2,4,19,13,17,24
14:48:13:6128,16,11,3,2,2,-5,-36,-29
14:48:13:14377,-7,6,-2,0,-8,-13,-18,-2
14:48:13:15146,-7,6,-2,0,-8,-13,-18,-2
14:48:13:28703,-4,-11,1,-1,2,-1,-7,-4
14:48:13:36811,-2,-5,-2,-3,-2,4,7,4
14:48:13:37633,-2,-5,-2,-3,-2,4,7,4
14:48:13:43612,21,3,0,-1,-6,-14,42,6
14:48:13:59300,-15,-7,-2,-4,-6,-2,-19,-15
14:48:13:60134,-15,-7,-2,-4,-6,-2,-19,-15
14:48:13:66153,11,1,-5,-5,-3,0,-2,9
14:48:13:74298,-8,-4,-2,0,-1,2,13,-3
14:48:13:75128,-8,-4,-2,0,-1,2,13,-3
14:48:13:88657,-1,-1,3,3,2,-4,-28,18
14:48:13:96861,-1,-1,3,3,2,-4,-28,18
14:48:13:97619,-12,2,-1,-2,-6,-10,-24,-11
14:48:13:103653,-12,-5,-2,2,7,-3,-18,11
14:48:13:119175,-12,-5,-2,2,7,-3,-18,11
14:48:13:126862,6,-3,0,-1,-4,-8,40,2
14:48:13:127592,6,2,-1,0,8,10,15,14
14:48:13:134352,6,2,-1,0,8,10,15,14
14:48:13:135165,-4,-11,-3,-3,-1,8,25,4
14:48:13:148644,-1,-4,-2,-2,-7,-11,-24,3
14:48:13:156829,-1,-4,-2,-2,-7,-11,-24,3
14:48:13:157634,-25,-2,3,3,8,5,-22,-21
14:48:13:163646,28,-5,-2,-2,-6,-2,-27,-1
14:48:13:179386,28,-5,-2,-2,-6,-2,-27,-1
14:48:13:180187,-1,-3,-4,-3,-5,-1,-21,-15
14:48:13:186178,-1,6,5,3,9,3,-2,2
14:48:13:194338,-1,6,5,3,9,3,-2,2
14:48:13:195148,14,-1,-1,-1,0,-2,-10,1
14:48:13:208644,0,3,-1,-2,-10,-4,4,-1
14:48:13:216871,0,3,-1,-2,-10,-4,4,-1
14:48:13:217727,-13,-3,1,-1,0,0,-30,7
14:48:13:223656,-20,-1,4,3,11,11,21,-1
14:48:13:239383,-20,-1,4,3,11,11,21,-1
14:48:13:240147,32,11,-2,-4,-6,2,14,8
14:48:13:246143,-12,-12,-2,-4,-7,-4,-27,-5
14:48:13:254391,-12,-12,-2,-4,-7,-4,-27,-5
14:48:13:255192,3,-2,-2,-2,2,-2,15,4
14:48:13:268656,-10,1,-1,5,12,9,34,7
14:48:13:276867,-10,1,-1,5,12,9,34,7
14:48:13:277698,11,2,-2,-1,-1,0,5,5
14:48:13:283646,-3,-3,-2,-5,-6,2,-6,-13
14:48:13:299378,-3,-3,-2,-5,-6,2,-6,-13
14:48:13:300162,14,4,3,2,-3,-5,-17,5
14:48:13:306144,17,4,0,-2,-3,-4,12,-3
14:48:13:314427,17,4,0,-2,-3,-4,12,-3
14:48:13:315163,-6,-3,-3,0,0,4,-19,2
14:48:13:328643,14,4,-2,-6,-17,-5,4,-1
14:48:13:336877,14,4,-2,-6,-17,-5,4,-1
14:48:13:337689,-26,-3,1,0,10,9,-1,-15
14:48:13:343678,35,-1,-6,-2,-2,-3,-8,2
14:48:13:359374,35,-1,-6,-2,-2,-3,-8,2
14:48:13:360174,-10,4,4,1,-7,1,-1,-15
14:48:13:366120,-18,-3,0,0,-3,-5,-22,6
14:48:13:374389,-18,-3,0,0,-3,-5,-22,6
14:48:13:375158,-18,3,-2,-4,-4,-10,-19,-22
14:48:13:388643,-44,-8,-2,1,4,4,-9,-26
14:48:13:396838,-44,-8,-2,1,4,4,-9,-26
14:48:13:397673,-2,-2,-1,0,1,-1,-8,7
14:48:13:403595,-5,-4,-2,-2,2,2,6,0
14:48:13:419359,-5,-4,-2,-2,2,2,6,0
14:48:13:420136,4,-15,-5,-5,-10,-10,0,4
14:48:13:426127,6,6,0,1,4,2,4,5
14:48:13:434358,6,6,0,1,4,2,4,5
14:48:13:435189,-1,5,-1,-3,-10,0,35,10
14:48:13:448671,-37,-17,-2,-2,-3,-6,-14,-11
14:48:13:456854,-37,-17,-2,-2,-3,-6,-14,-11
14:48:13:457641,-6,-13,0,1,8,3,3,2
14:48:13:463612,1,9,1,-1,-3,-4,-8,-6
14:48:13:479349,1,9,1,-1,-3,-4,-8,-6
14:48:13:480154,-2,2,-1,-3,-3,3,6,-1
14:48:13:486186,15,4,-8,-2,-2,-1,-4,11
14:48:13:494367,15,4,-8,-2,-2,-1,-4,11
14:48:13:495157,25,10,0,2,7,6,13,10
14:48:13:508724,5,0,-1,-3,-4,0,4,-7
14:48:13:516850,5,0,-1,-3,-4,0,4,-7
14:48:13:517662,-1,-6,-1,-1,-2,-5,13,-2
14:48:13:523658,16,-8,0,-1,-2,-2,13,6
14:48:13:539356,16,-8,0,-1,-2,-2,13,6
14:48:13:540174,-4,-8,0,1,1,4,5,-2
14:48:13:546174,-12,-5,0,-3,-4,3,22,0
14:48:13:554357,-12,-5,0,-3,-4,3,22,0
14:48:13:555160,-5,3,0,1,5,2,-15,1
14:48:13:568673,-17,0,4,-1,-4,4,16,8
14:48:13:576857,-17,0,4,-1,-4,4,16,8
14:48:13:577661,10,8,3,1,6,5,10,6
14:48:13:583700,11,-1,-6,-2,-1,-6,-23,1
14:48:13:599320,11,-1,-6,-2,-1,-6,-23,1
14:48:13:600100,6,-7,-3,-3,-11,-12,-18,-4
14:48:13:606174,2,-9,-2,1,9,-2,-6,2
14:48:13:614359,2,-9,-2,1,9,-2,-6,2
14:48:13:615173,-28,8,7,-3,-6,2,12,-3
14:48:13:628656,6,10,7,1,3,5,1,-20
14:48:13:636837,6,10,7,1,3,5,1,-20
14:48:13:637655,6,-1,-1,3,2,0,-6,1
14:48:13:643678,-11,8,7,-3,-19,-14,-7,10
14:48:13:659379,-11,8,7,-3,-19,-14,-7,10
14:48:13:660153,1,-4,-2,2,7,6,-11,-25
14:48:13:666183,12,6,-6,-4,-5,0,15,-5
14:48:13:674326,12,6,-6,-4,-5,0,15,-5
14:48:13:675143,-1,1,-6,-4,-6,-5,-8,-14
14:48:13:688675,1,-5,0,0,3,3,-12,-2
14:48:13:696884,1,-5,0,0,3,3,-12,-2
14:48:13:697700,-5,-4,-6,-3,-5,-4,-6,4
14:48:13:703640,3,-2,1,4,20,8,-7,-4
14:48:13:719381,3,-2,1,4,20,8,-7,-4
14:48:13:720168,5,-13,-9,0,4,-5,-5,3
14:48:13:726147,6,3,-9,-4,-9,-6,-11,4
14:48:13:734383,6,3,-9,-4,-9,-6,-11,4
14:48:13:735190,5,9,-3,-2,-6,-3,2,-1
14:48:13:748641,-9,-9,-1,2,2,2,-11,3
14:48:13:756870,-9,-9,-1,2,2,2,-11,3
14:48:13:757665,5,-1,1,-1,-1,0,1,9
14:48:13:763648,3,-11,1,-1,-1,1,7,8
14:48:13:779365,3,-11,1,-1,-1,1,7,8
14:48:13:780176,4,-5,5,0,0,0,35,10
14:48:13:786153,-2,0,-4,1,5,2,-7,-4
14:48:13:794365,-2,0,-4,1,5,2,-7,-4
14:48:13:795158,6,9,6,-2,-7,-4,5,10
14:48:13:808618,-3,11,7,0,-2,-4,-1,-11
14:48:13:816841,-3,11,7,0,-2,-4,-1,-11
14:48:13:817683,-2,-3,1,-2,-1,1,-10,-3
14:48:13:823623,-11,-3,-3,-1,-6,-5,-7,-10
14:48:13:839335,-11,-3,-3,-1,-6,-5,-7,-10
14:48:13:840165,-5,2,3,4,11,5,-8,-3
14:48:13:846118,14,2,-4,-3,-3,-2,5,10
14:48:13:854391,14,2,-4,-3,-3,-2,5,10
14:48:13:855161,2,3,-5,4,-2,-5,-13,-17
14:48:13:868631,-7,-8,0,1,-3,2,5,-1
14:48:13:876874,-7,-8,0,1,-3,2,5,-1
14:48:13:877685,-3,8,4,0,-2,3,5,8
14:48:13:883611,6,3,-5,-2,-1,-4,-7,-1
14:48:13:899353,6,3,-5,-2,-1,-4,-7,-1
14:48:13:900136,-2,3,0,2,-8,-5,0,5
14:48:13:906128,-1,-3,-4,0,3,0,-7,-6
14:48:13:921855,-1,-3,-4,0,3,0,-7,-6
14:48:13:922637,-30,-15,-8,-2,-7,-5,1,-7
14:48:13:928662,-2,-12,-13,-9,-5,-3,7,6
14:48:13:936863,-2,-12,-13,-9,-5,-3,7,6
14:48:13:937635,4,-7,2,-3,2,0,-8,-18
14:48:13:951183,-9,15,1,2,0,2,8,3
14:48:13:959323,-9,15,1,2,0,2,8,3
14:48:13:960161,11,11,-2,1,-1,-2,-15,-3
14:48:13:966195,-2,-7,2,2,1,-2,-12,-3
14:48:13:973684,-2,-7,2,2,1,-2,-12,-3
14:48:13:981135,-21,-7,-6,-6,-11,-2,16,-7
14:48:13:988627,-4,7,4,1,5,-1,8,0
14:48:13:996874,-4,7,4,1,5,-1,8,0
14:48:13:997672,8,1,-1,-2,-2,3,0,3
14:48:14:11137,-1,-3,5,-1,-10,-6,2,-2
14:48:14:19362,-1,-3,5,-1,-10,-6,2,-2
14:48:14:20134,-1,-24,-7,2,1,-4,3,5
14:48:14:26128,8,-1,-7,3,3,-2,-7,7
14:48:14:33724,8,-1,-7,3,3,-2,-7,7
14:48:14:41169,-19,5,2,-7,-3,-3,-11,-14
14:48:14:48621,-11,-3,2,-10,-1,-3,-4,-2
14:48:14:56878,-11,-3,2,-10,-1,-3,-4,-2
14:48:14:57691,3,-10,-9,4,2,-1,2,10
14:48:14:71130,-6,1,2,3,-5,-3,-10,-12
14:48:14:79362,-6,1,2,3,-5,-3,-10,-12
14:48:14:80163,4,4,3,-5,5,4,2,6
14:48:14:86178,17,1,1,-3,-3,-4,-7,-1
14:48:14:93699,17,1,1,-3,-3,-4,-7,-1
14:48:14:101170,-17,9,6,4,1,-1,-2,1
14:48:14:108651,-14,-3,3,0,-1,2,9,10
14:48:14:116867,-14,-3,3,0,-1,2,9,10
14:48:14:117681,8,-5,-1,12,7,2,4,4
14:48:14:131147,5,-15,-9,-2,0,0,2,-5
14:48:14:139377,5,-15,-9,-2,0,0,2,-5
14:48:14:140178,9,1,-10,-12,-9,-2,0,-2
14:48:14:146175,-3,10,2,3,-1,3,5,4
14:48:14:153767,-3,10,2,3,-1,3,5,4
14:48:14:161158,21,5,0,-7,-6,-3,-3,6
14:48:14:168683,7,-9,2,1,-8,-7,-11,-15
14:48:14:176829,7,-9,2,1,-8,-7,-11,-15
14:48:14:177655,2,7,5,1,10,3,5,4
14:48:14:191181,-10,-17,0,-4,3,-1,-3,-4
14:48:14:199353,-10,-17,0,-4,3,-1,-3,-4
14:48:14:200129,-3,-18,-5,-2,-5,-3,-7,-14
14:48:14:206185,11,-10,-4,-1,2,2,1,1
14:48:14:213723,11,-10,-4,-1,2,2,1,1
14:48:14:221197,12,12,8,7,4,1,4,8
14:48:14:228686,3,13,2,-4,-4,-3,-9,-12
14:48:14:236859,3,13,2,-4,-4,-3,-9,-12
14:48:14:237675,-6,-3,-3,-3,2,0,-1,2
14:48:14:251175,-2,-7,-2,0,1,2,-2,-1
14:48:14:259360,-2,-7,-2,0,1,2,-2,-1
14:48:14:260170,0,15,8,1,-7,-4,-1,0
14:48:14:266180,-1,11,11,2,0,2,7,5
14:48:14:273713,-1,11,11,2,0,2,7,5
14:48:14:281157,0,-14,-8,2,1,-1,-11,-12
14:48:14:288627,-4,-17,-18,-7,-2,-4,2,7
14:48:14:296898,-4,-17,-18,-7,-2,-4,2,7
14:48:14:297672,-18,-4,-6,-5,-2,-3,-3,-5
14:48:14:311184,-4,6,2,-3,-1,0,-6,-13
14:48:14:319371,-4,6,2,-3,-1,0,-6,-13
14:48:14:320149,-6,-21,-11,-11,4,2,0,-1
14:48:14:326115,-4,-8,2,4,0,3,6,8
14:48:14:341857,-4,-8,2,4,0,3,6,8
14:48:14:342661,-9,-33,-3,-8,-9,-5,-6,-11
14:48:14:348599,-17,-5,8,9,1,1,4,1
14:48:14:356852,-17,-5,8,9,1,1,4,1
14:48:14:357646,-5,17,-6,3,4,3,5,10
14:48:14:371179,0,-18,-9,19,13,0,-6,-4
14:48:14:387521,0,-18,-9,19,13,0,-6,-4
14:48:14:388317,0,20,6,3,1,-1,3,3
14:48:14:389144,-6,16,-3,-23,-2,0,4,2
14:48:14:393714,-6,16,-3,-23,-2,0,4,2
14:48:14:401177,16,-7,-32,-9,-5,-3,-2,1
14:48:14:408658,4,10,-1,-39,-7,0,-11,-25
14:48:14:416831,4,10,-1,-39,-7,0,-11,-25
14:48:14:417639,7,18,14,3,-1,2,4,5
14:48:14:431189,-4,27,0,16,-3,-1,3,11
14:48:14:439330,-4,27,0,16,-3,-1,3,11
14:48:14:440118,-6,9,10,-3,0,-4,-13,-18
14:48:14:454340,6,-6,3,19,8,2,6,7
14:48:14:455172,6,-6,3,19,8,2,6,7
14:48:14:461172,-2,8,10,15,1,0,-4,-21
14:48:14:468675,2,-40,-23,-15,-3,-2,0,3
14:48:14:476831,2,-40,-23,-15,-3,-2,0,3
14:48:14:477635,-1,15,0,-7,-9,-4,2,19
14:48:14:491188,-29,-11,5,4,-5,-1,11,11
14:48:14:499315,-29,-11,5,4,-5,-1,11,11
14:48:14:500121,6,-13,11,-2,-9,-3,-4,8
14:48:14:506159,-1,9,-5,0,-7,-2,-9,-20
14:48:14:513708,-1,9,-5,0,-7,-2,-9,-20
14:48:14:521182,3,-1,5,1,-4,0,5,4
14:48:14:528690,7,3,-1,3,-1,-4,-5,-6
14:48:14:536611,7,3,-1,3,-1,-4,-5,-6
14:48:14:543616,7,-3,6,1,-5,1,4,4
14:48:14:551117,15,4,2,-6,-6,-4,-13,-19
14:48:14:559415,15,4,2,-6,-6,-4,-13,-19
14:48:14:560198,-8,2,-28,-19,-5,-4,7,15
14:48:14:566172,-4,-11,-3,9,2,1,1,2
14:48:14:573753,-4,-11,-3,9,2,1,1,2
14:48:14:581133,-3,-38,2,3,8,-1,-7,-7
14:48:14:588677,-9,-2,-33,7,-24,-8,-13,-14
14:48:14:596881,-9,-2,-33,7,-24,-8,-13,-14
14:48:14:597660,3,-24,-7,5,10,1,5,11
14:48:14:611113,-5,-10,4,16,5,4,14,27
14:48:14:619379,-5,-10,4,16,5,4,14,27
14:48:14:620157,-25,4,-9,6,-3,-4,-8,-16
14:48:14:626187,-26,24,14,-2,-3,1,-2,-9
14:48:14:633747,-26,24,14,-2,-3,1,-2,-9
14:48:14:641143,0,-27,2,-4,-3,1,5,6
14:48:14:648658,3,23,10,13,12,0,7,12
14:48:14:656840,3,23,10,13,12,0,7,12
14:48:14:657631,-5,-38,-11,-18,-6,-1,-10,-27
14:48:14:671170,16,7,9,-2,-4,-1,3,12
14:48:14:679383,16,7,9,-2,-4,-1,3,12
14:48:14:680186,14,27,29,3,-7,-4,-1,-1
14:48:14:686151,40,25,19,-9,-1,-1,-2,0
14:48:14:693667,40,25,19,-9,-1,-1,-2,0
14:48:14:701184,-6,-3,-8,-33,-14,-1,0,-1
14:48:14:708678,3,-20,-13,4,13,0,1,14
14:48:14:716902,3,-20,-13,4,13,0,1,14
14:48:14:717677,-27,16,-6,2,6,-2,-21,-55
14:48:14:731165,6,7,-6,-9,-8,1,8,3
14:48:14:739346,6,7,-6,-9,-8,1,8,3
14:48:14:740134,9,25,1,25,5,-3,-1,15
14:48:14:746186,-8,24,17,-17,-2,3,5,6
14:48:14:753679,-8,24,17,-17,-2,3,5,6
14:48:14:769302,32,7,-5,-4,-2,-4,-3,-2
14:48:14:770122,4,-7,7,20,-8,-4,-10,-2
14:48:14:776881,4,-7,7,20,-8,-4,-10,-2
14:48:14:777634,-15,34,10,15,6,0,-9,-26
14:48:14:791191,-8,-21,-24,-32,-5,-4,5,-7
14:48:14:807589,-8,-21,-24,-32,-5,-4,5,-7
14:48:14:808342,17,-1,10,19,14,6,8,12
14:48:14:809108,-2,-32,-7,43,33,2,-4,2
14:48:14:813702,-2,-32,-7,43,33,2,-4,2
14:48:14:821149,-15,-27,-1,-2,-1,0,10,25
14:48:14:828650,-1,0,-2,-39,-8,1,2,-2
14:48:14:836168,-1,0,-2,-39,-8,1,2,-2
14:48:14:843649,0,20,-7,-14,3,0,-15,-28
14:48:14:851201,-36,1,-1,6,-2,2,1,-8
14:48:14:859346,-36,1,-1,6,-2,2,1,-8
14:48:14:860145,-2,-22,-20,-34,-4,1,4,11
14:48:14:874301,11,21,-3,-9,-5,-1,-2,3
14:48:14:875128,11,21,-3,-9,-5,-1,-2,3
14:48:14:881149,9,-20,-36,-8,-12,-4,-3,-12
14:48:14:888659,-7,-20,-5,4,-15,-5,-12,-17
14:48:14:896189,-7,-20,-5,4,-15,-5,-12,-17
14:48:14:903646,-3,15,52,45,8,-1,-4,-29
14:48:14:911164,-15,-8,1,-37,-3,4,-4,-12
14:48:14:919375,-15,-8,1,-37,-3,4,-4,-12
14:48:14:920192,5,1,-1,-4,-8,3,10,18
14:48:14:934306,17,-31,-14,34,8,-3,-23,0
14:48:14:935130,17,-31,-14,34,8,-3,-23,0
14:48:14:941116,-2,0,37,0,-5,9,4,5
14:48:14:948669,15,22,1,-10,10,2,8,33
14:48:14:956195,15,22,1,-10,10,2,8,33
14:48:14:963645,-3,-27,-73,14,-15,-6,-12,-41
14:48:14:971151,12,32,30,53,0,-3,-1,-18
14:48:14:979405,12,32,30,53,0,-3,-1,-18
14:48:14:980174,-8,25,33,57,24,-6,3,29
14:48:14:994354,23,17,-10,-5,-15,-3,0,-4
14:48:14:995178,23,17,-10,-5,-15,-3,0,-4
14:48:15:1170,16,-8,-10,6,4,4,25,34
14:48:15:8660,-43,12,8,-60,-14,-5,3,8
14:48:15:16203,-43,12,8,-60,-14,-5,3,8
14:48:15:23649,-31,-45,-7,-24,11,4,-19,-35
14:48:15:31145,-10,-21,-17,-14,1,-1,9,8
14:48:15:39370,-10,-21,-17,-14,1,-1,9,8
14:48:15:40173,20,31,-14,-2,9,-1,-3,0
14:48:15:53634,1,-73,-35,13,6,-5,-15,-13
14:48:15:61868,1,-73,-35,13,6,-5,-15,-13
14:48:15:62648,4,29,53,23,-17,3,15,13
14:48:15:68658,20,44,-38,-30,-22,-8,16,28
14:48:15:76208,20,44,-38,-30,-22,-8,16,28
14:48:15:83682,-13,-7,-32,-18,3,-5,1,20
14:48:15:91178,-17,7,48,24,-3,-3,-9,-13
14:48:15:99353,-17,7,48,24,-3,-3,-9,-13
14:48:15:100151,4,26,17,-20,8,-5,-5,2
14:48:15:114376,0,4,-14,-20,-6,4,6,-2
14:48:15:115178,0,4,-14,-20,-6,4,6,-2
14:48:15:121168,-9,-30,11,6,-4,-2,1,9
14:48:15:128664,15,14,-8,35,7,3,-10,-2
14:48:15:136178,15,14,-8,35,7,3,-10,-2
14:48:15:143651,0,-36,-23,-15,12,1,-6,-9
14:48:15:151165,-1,-45,27,-35,7,2,-1,-11
14:48:15:159369,-1,-45,27,-35,7,2,-1,-11
14:48:15:160148,1,-9,13,-4,1,1,-1,-10
14:48:15:174312,-19,-5,-17,-27,-6,-2,-1,-5
14:48:15:175128,-19,-5,-17,-27,-6,-2,-1,-5
14:48:15:181175,24,45,-6,0,-9,-3,6,23
14:48:15:188683,3,-15,-7,1,-2,0,-9,-24
14:48:15:196194,3,-15,-7,1,-2,0,-9,-24
14:48:15:203635,4,6,7,-9,-32,-8,1,5
14:48:15:211171,5,6,15,25,12,-3,-10,4
14:48:15:219337,5,6,15,25,12,-3,-10,4
14:48:15:220149,-16,-21,-22,-7,8,3,1,12
14:48:15:234310,-3,-17,12,19,0,2,2,6
14:48:15:235170,-3,-17,12,19,0,2,2,6
14:48:15:241114,-1,-21,-21,-31,-4,-1,4,15
14:48:15:248610,-1,-10,12,-10,-1,3,10,17
14:48:15:256207,-1,-10,12,-10,-1,3,10,17
14:48:15:263658,20,23,20,-16,-10,-2,-7,3
14:48:15:271137,-6,38,11,17,-12,-8,-8,-5
14:48:15:279386,-6,38,11,17,-12,-8,-8,-5
14:48:15:280166,-34,-46,-38,-13,7,3,2,-9
14:48:15:294365,9,-4,-31,4,1,-9,-16,-13
14:48:15:295161,9,-4,-31,4,1,-9,-16,-13
14:48:15:301147,-23,33,11,23,5,-1,-8,-2
14:48:15:308665,7,5,-2,-32,-2,0,2,10
14:48:15:316241,7,5,-2,-32,-2,0,2,10
14:48:15:323631,-17,-4,-9,9,3,3,8,11
14:48:15:331133,-9,19,33,34,9,-4,9,1
14:48:15:339394,-9,19,33,34,9,-4,9,1
14:48:15:340206,-13,0,39,-5,3,-1,-2,4
14:48:15:354385,-2,5,42,8,2,1,4,-3
14:48:15:355176,-2,5,42,8,2,1,4,-3
14:48:15:361129,10,10,-34,-4,-12,-6,-2,14
14:48:15:368642,0,2,-27,8,15,4,1,-4
14:48:15:376223,0,2,-27,8,15,4,1,-4
14:48:15:383674,8,-34,-11,-21,4,-3,-7,-5
14:48:15:391163,5,-19,-20,-21,-15,0,-1,-11
14:48:15:399371,5,-19,-20,-21,-15,0,-1,-11
14:48:15:400142,-7,40,42,8,-13,-6,-8,-19
14:48:15:414378,-24,-32,-59,-42,-18,-5,-2,2
14:48:15:415198,-24,-32,-59,-42,-18,-5,-2,2
14:48:15:421158,-20,20,4,41,7,-1,-11,-19
14:48:15:428662,-2,-6,-7,21,8,-1,-3,6
14:48:15:436175,-2,-6,-7,21,8,-1,-3,6
14:48:15:443671,-3,-26,-18,-7,-1,6,4,2
14:48:15:451198,10,19,17,6,7,-1,-3,6
14:48:15:459339,10,19,17,6,7,-1,-3,6
14:48:15:460141,-5,15,-7,-2,-3,-4,-3,-1
14:48:15:474348,-17,-9,16,2,10,-1,1,-3
14:48:15:475144,-17,-9,16,2,10,-1,1,-3
14:48:15:481175,33,-20,-5,20,1,-2,-1,-5
14:48:15:488686,-9,22,-12,-15,-3,0,5,22
14:48:15:496197,-9,22,-12,-15,-3,0,5,22
14:48:15:503615,15,30,14,5,3,2,8,8
14:48:15:511207,4,33,-33,1,1,1,0,-13
14:48:15:519356,4,33,-33,1,1,1,0,-13
14:48:15:520155,-21,-24,-26,-20,-7,-2,4,9
14:48:15:534316,1,-25,43,-10,-15,-3,-11,-7
14:48:15:535184,1,-25,43,-10,-15,-3,-11,-7
14:48:15:541114,-29,-23,21,9,-1,-3,5,-4
14:48:15:548611,2,-41,-14,9,7,3,14,5
14:48:15:556207,2,-41,-14,9,7,3,14,5
14:48:15:563633,27,19,0,1,-5,-1,0,15
14:48:15:571115,-6,22,23,-6,12,7,1,-23
14:48:15:579371,-6,22,23,-6,12,7,1,-23
14:48:15:580159,17,14,6,-34,-6,0,4,12
14:48:15:594338,-4,12,5,14,-6,-1,-5,-11
14:48:15:595151,-4,12,5,14,-6,-1,-5,-11
14:48:15:601141,14,-25,-30,-30,-10,-8,-13,-14
14:48:15:608658,7,-22,-9,7,-14,-6,-8,0
14:48:15:616268,7,-22,-9,7,-14,-6,-8,0
14:48:15:623677,21,33,-19,19,10,2,3,10
14:48:15:631155,-22,-64,-29,31,19,-1,-7,0
14:48:15:639370,-22,-64,-29,31,19,-1,-7,0
14:48:15:640197,23,10,55,2,0,0,-9,-13
14:48:15:654359,25,30,39,12,-1,2,-20,-19
14:48:15:655193,25,30,39,12,-1,2,-20,-19
14:48:15:661164,12,-4,-53,-23,-14,-5,-4,-4
14:48:15:668668,22,15,23,16,-10,-3,13,27
14:48:15:676242,22,15,23,16,-10,-3,13,27
14:48:15:683706,5,26,-13,-17,-1,3,-1,-14
14:48:15:691176,14,46,18,-8,3,-3,1,-5
14:48:15:699317,14,46,18,-8,3,-3,1,-5
14:48:15:700145,-30,-43,0,-10,-1,6,6,-11
14:48:15:714391,2,-31,-29,-18,2,1,-19,-24
14:48:15:715219,2,-31,-29,-18,2,1,-19,-24
14:48:15:721185,-32,-13,24,18,13,0,4,14
14:48:15:728668,-13,24,24,-8,-13,-2,-3,-6
14:48:15:736183,-13,24,24,-8,-13,-2,-3,-6
14:48:15:743724,-5,-46,-24,-9,-20,-9,-15,-28
14:48:15:751170,-10,-12,-20,-61,-3,-5,3,3
14:48:15:759351,-10,-12,-20,-61,-3,-5,3,3
14:48:15:760158,0,-29,14,12,10,0,10,28
14:48:15:774313,30,-17,1,25,0,2,9,6
14:48:15:775129,30,-17,1,25,0,2,9,6
14:48:15:781173,-9,53,48,6,-3,2,9,-3
14:48:15:796880,-5,-24,-8,8,-8,-7,-6,-31
14:48:15:797687,-5,-24,-8,8,-8,-7,-6,-31
14:48:15:803670,47,-23,4,40,3,1,3,16
14:48:15:811167,22,9,16,6,8,4,6,14
14:48:15:818682,22,9,16,6,8,4,6,14
14:48:15:826205,-3,10,-5,-10,4,4,-10,-22
14:48:15:834326,-44,-10,-40,-51,-12,-4,-10,-15
14:48:15:835157,-44,-10,-40,-51,-12,-4,-10,-15
14:48:15:841113,1,-15,-14,-12,4,0,-2,2
14:48:15:856827,-41,2,-9,-4,3,-2,-7,-46
14:48:15:857632,-41,2,-9,-4,3,-2,-7,-46
14:48:15:863671,11,40,-9,4,-9,-10,-6,-8
14:48:15:871180,16,1,15,27,9,1,9,33
14:48:15:878697,16,1,15,27,9,1,9,33
14:48:15:886127,-26,-4,-7,7,2,-1,-17,-26
14:48:15:894332,-21,-1,16,-18,-22,-8,-6,-1
14:48:15:895156,-21,-1,16,-18,-22,-8,-6,-1
14:48:15:901165,10,-30,-50,-23,-8,-14,-2,9
14:48:15:916845,-26,4,-18,-10,-4,3,-3,-21
14:48:15:917677,-26,4,-18,-10,-4,3,-3,-21
14:48:15:923607,-33,0,47,-2,-10,0,-3,-1
14:48:15:931175,11,-19,-32,-3,3,-2,1,19
14:48:15:938709,11,-19,-32,-3,3,-2,1,19
14:48:15:946148,-41,-8,16,9,-5,-1,4,2
14:48:15:954330,-8,17,10,0,-4,-1,-1,9
14:48:15:955167,-8,17,10,0,-4,-1,-1,9
14:48:15:961140,28,-27,-19,-1,-6,1,5,8
14:48:15:976830,33,-41,-43,-29,7,1,15,21
14:48:15:977679,33,-41,-43,-29,7,1,15,21
14:48:15:983666,3,20,31,22,4,-1,-5,-19
14:48:15:991159,14,-6,-14,5,1,4,12,17
14:48:16:6857,14,-6,-14,5,1,4,12,17
14:48:16:7692,25,-34,-30,-11,5,2,-5,-2
14:48:16:14345,-13,38,27,10,8,2,-4,-17
14:48:16:15191,-13,38,27,10,8,2,-4,-17
14:48:16:21157,1,-9,-20,9,-1,-5,-15,-3
14:48:16:36847,14,-9,-15,-2,-10,-5,-1,6
14:48:16:37703,14,-9,-15,-2,-10,-5,-1,6
14:48:16:43619,1,9,2,-39,-4,7,12,-6
14:48:16:51137,-17,-30,-16,0,3,3,4,12
14:48:16:58715,-17,-30,-16,0,3,3,4,12
14:48:16:66141,-46,5,-14,-20,1,2,10,18
14:48:16:74330,5,-20,3,7,4,-2,-13,-13
14:48:16:75194,5,-20,3,7,4,-2,-13,-13
14:48:16:81176,-2,26,4,-5,5,-2,2,-7
14:48:16:96860,35,43,16,-14,7,8,13,30
14:48:16:97663,35,43,16,-14,7,8,13,30
14:48:16:103643,17,19,-5,1,-8,-7,-12,-5
14:48:16:111158,-1,18,46,7,-15,-5,-17,-59
14:48:16:118719,-1,18,46,7,-15,-5,-17,-59
14:48:16:126144,-18,-7,31,54,4,-5,-1,-6
14:48:16:134392,7,18,8,-6,-6,-2,-2,14
14:48:16:135182,7,18,8,-6,-6,-2,-2,14
14:48:16:141170,-11,-31,-26,-17,-3,0,3,10
14:48:16:156854,-9,-10,-12,-2,3,0,-1,-11
14:48:16:157711,-9,-10,-12,-2,3,0,-1,-11
14:48:16:163641,-8,25,34,23,15,11,11,7
14:48:16:171141,-5,7,-4,0,-7,-4,-6,4
14:48:16:178733,-5,7,-4,0,-7,-4,-6,4
14:48:16:186169,4,-14,-21,-13,5,-1,-8,-23
14:48:16:194328,-4,-22,-5,31,-3,-2,4,24
14:48:16:195135,-4,-22,-5,31,-3,-2,4,24
14:48:16:201199,2,40,-2,10,3,-1,-1,-16
14:48:16:216825,-13,-18,-28,-7,-1,-4,4,15
14:48:16:217632,-13,-18,-28,-7,-1,-4,4,15
14:48:16:223712,8,-3,5,-7,-4,-3,-6,1
14:48:16:231176,-8,35,11,13,10,5,11,3
14:48:16:238715,-8,35,11,13,10,5,11,3
14:48:16:246179,18,32,47,-19,-19,-8,-6,2
14:48:16:254324,-1,12,-8,-35,-10,-4,-8,-8
14:48:16:255208,-1,12,-8,-35,-10,-4,-8,-8
14:48:16:261119,9,-4,-11,7,4,4,4,19
14:48:16:285068,19,13,3,5,8,2,3,2
14:48:16:285834,19,13,3,5,8,2,3,2
14:48:16:286658,14,-35,-33,-14,-10,-1,9,16
14:48:16:291162,-13,7,-17,-7,7,4,-3,-11
14:48:16:298677,-13,7,-17,-7,7,4,-3,-11
14:48:16:306207,-20,11,-3,-7,2,2,-2,-18
14:48:16:314349,-7,-24,-39,-19,-3,-4,-1,2
14:48:16:315162,-7,-24,-39,-19,-3,-4,-1,2
14:48:16:321160,6,-23,9,10,10,-2,-8,-8
14:48:16:336810,14,-9,39,45,3,-5,2,10
14:48:16:337653,14,-9,39,45,3,-5,2,10
14:48:16:343671,-7,1,-29,36,13,1,1,7
14:48:16:351182,-8,2,26,11,4,3,9,17
14:48:16:358664,-8,2,26,11,4,3,9,17
14:48:16:366141,-8,-13,-45,-20,-12,-3,-6,-12
14:48:16:374351,-21,-38,-6,-28,-16,-4,-8,-12
14:48:16:375240,-21,-38,-6,-28,-16,-4,-8,-12
14:48:16:381129,-7,-27,30,6,7,-4,-15,-24
14:48:16:396836,1,-23,-16,22,-2,-1,-9,-6
14:48:16:397663,1,-23,-16,22,-2,-1,-9,-6
14:48:16:403642,-4,-25,11,-24,-5,1,1,13
14:48:16:411143,8,-5,12,-1,-8,-3,-6,-12
14:48:16:418687,8,-5,12,-1,-8,-3,-6,-12
14:48:16:426109,6,-13,-37,-16,3,5,5,-1
14:48:16:434333,13,25,10,25,9,0,7,4
14:48:16:435180,13,25,10,25,9,0,7,4
14:48:16:448651,-1,48,27,5,-11,-1,3,-4
14:48:16:456858,4,8,4,13,6,2,1,-4
14:48:16:457679,4,8,4,13,6,2,1,-4
14:48:16:463654,4,33,31,17,-1,1,5,4
14:48:16:471144,-19,25,35,8,-2,-5,-1,-5
14:48:16:478682,-19,25,35,8,-2,-5,-1,-5
14:48:16:486151,4,-9,-18,0,6,-3,-1,10
14:48:16:494355,-20,-23,-17,-38,-4,0,-3,-1
14:48:16:495166,-20,-23,-17,-38,-4,0,-3,-1
14:48:16:501154,-32,7,18,0,-11,-6,-4,9
14:48:16:516862,-15,-45,-7,0,-4,-2,-3,0
14:48:16:517679,-15,-45,-7,0,-4,-2,-3,0
14:48:16:523645,-17,-36,-14,11,1,-1,5,12
14:48:16:531150,3,32,-31,-13,-13,-5,-13,-27
14:48:16:538731,3,32,-31,-13,-13,-5,-13,-27
14:48:16:546162,4,-43,10,-6,-4,3,7,4
14:48:16:554335,8,-15,-34,-13,-10,-2,1,2
14:48:16:555150,8,-15,-34,-13,-10,-2,1,2
14:48:16:561169,12,22,-13,4,9,-1,-10,7
14:48:16:576879,-1,-17,52,23,10,4,-3,-3
14:48:16:577685,-1,-17,52,23,10,4,-3,-3
14:48:16:583647,-28,2,-3,3,-7,-3,-7,-23
14:48:16:591153,-6,8,-14,-5,3,1,-1,3
14:48:16:598689,-6,8,-14,-5,3,1,-1,3
14:48:16:606180,19,22,19,-4,-7,0,5,18
14:48:16:614342,-5,1,13,-13,-15,-4,2,4
14:48:16:615160,-5,1,13,-13,-15,-4,2,4
14:48:16:621170,-1,-17,-11,4,-11,-2,-1,-6
14:48:16:636817,8,11,0,6,11,3,9,8
14:48:16:637635,8,11,0,6,11,3,9,8
14:48:16:643671,-3,36,-19,0,-9,-4,-8,-11
14:48:16:651168,-9,9,3,22,6,-1,-11,0
14:48:16:658711,-9,9,3,22,6,-1,-11,0
14:48:16:666149,-6,-22,-1,-19,6,4,-3,-8
14:48:16:674335,2,23,-3,-23,-8,-3,-3,-15
14:48:16:675160,2,23,-3,-23,-8,-3,-3,-15
14:48:16:681137,-13,-8,17,-13,3,-1,7,5
14:48:16:696849,-34,-21,-14,3,-3,-1,4,-7
14:48:16:697644,-34,-21,-14,3,-3,-1,4,-7
14:48:16:703650,9,35,16,13,-1,3,3,1
14:48:16:711133,7,-30,13,16,-1,0,4,3
14:48:16:718717,7,-30,13,16,-1,0,4,3
14:48:16:726162,-4,18,-3,1,-4,-3,-8,-8
14:48:16:734370,10,-13,-14,-48,-7,-2,-6,5
14:48:16:735178,10,-13,-14,-48,-7,-2,-6,5
14:48:16:748646,25,4,11,-7,13,3,-13,-23
14:48:16:756849,24,23,32,15,1,-3,-5,5
14:48:16:757675,24,23,32,15,1,-3,-5,5
14:48:16:763639,11,7,-5,8,8,0,1,3
14:48:16:779339,-17,-17,-15,-11,-2,0,0,-5
14:48:16:780149,-17,-17,-15,-11,-2,0,0,-5
14:48:16:786136,-29,0,-10,11,-1,-2,-2,-30
14:48:16:794357,11,15,-7,8,5,0,7,11
14:48:16:795195,11,15,-7,8,5,0,7,11
14:48:16:808692,18,35,-8,-15,-14,-6,-2,10
14:48:16:816817,-6,-34,-24,-12,4,0,-6,-5
14:48:16:817659,-6,-34,-24,-12,4,0,-6,-5
14:48:16:823624,7,-25,-18,-23,-7,-3,2,8
14:48:16:839322,17,35,19,25,4,1,2,10
14:48:16:840146,17,35,19,25,4,1,2,10
14:48:16:846139,-1,-23,-18,-2,2,-3,-15,2
14:48:16:854337,-6,17,-4,-5,-3,2,4,-11
14:48:16:855183,-6,17,-4,-5,-3,2,4,-11
14:48:16:868718,-40,-16,13,12,5,0,7,2
14:48:16:876864,-1,8,-9,-14,-2,-3,-15,-13
14:48:16:877668,-1,8,-9,-14,-2,-3,-15,-13
14:48:16:883622,11,-7,-9,-15,-1,-4,-4,5
14:48:16:899314,-4,-24,-7,4,2,7,6,14
14:48:16:900140,-4,-24,-7,4,2,7,6,14
14:48:16:906182,7,39,3,0,1,1,5,-15
14:48:16:914353,16,7,6,7,-8,-7,-13,0
14:48:16:915144,16,7,6,7,-8,-7,-13,0
14:48:16:928643,-1,2,3,8,2,1,3,3
14:48:16:936869,13,-3,-16,-10,-10,-7,-8,-5
14:48:16:937674,13,-3,-16,-10,-10,-7,-8,-5
14:48:16:943696,18,-36,-24,10,-7,-9,-3,2
14:48:16:959322,-8,-13,-11,-17,-1,-1,16,-1
14:48:16:960148,-8,-13,-11,-17,-1,-1,16,-1
14:48:16:966165,9,4,-3,17,2,4,3,4
14:48:16:974365,-5,3,8,-4,-1,-3,6,0
14:48:16:975166,-5,3,8,-4,-1,-3,6,0
14:48:16:988682,-9,-5,-11,-23,-5,3,5,7
14:48:16:996851,-21,-2,-5,-3,-4,5,7,7
14:48:16:997624,-21,-2,-5,-3,-4,5,7,7
14:48:17:3674,-21,17,8,-3,-5,-3,-3,8
14:48:17:19434,-21,17,8,-3,-5,-3,-3,8
14:48:17:20199,4,16,10,7,-2,-1,-2,-11
14:48:17:26173,17,15,10,7,3,1,3,4
14:48:17:34353,17,15,10,7,3,1,3,4
14:48:17:35150,6,29,27,38,14,3,2,6
14:48:17:48676,23,-15,16,7,12,5,-1,5
14:48:17:56887,23,-15,16,7,12,5,-1,5
14:48:17:57696,5,34,23,17,8,2,2,-10
14:48:17:63671,-8,-8,1,-38,-12,-4,-3,-2
14:48:17:79385,-8,-8,1,-38,-12,-4,-3,-2
14:48:17:80166,15,6,8,-10,-5,-1,-1,4
14:48:17:86166,-13,-8,-2,4,-3,-6,1,-1
14:48:17:93746,-13,-8,-2,4,-3,-6,1,-1
14:48:17:101164,0,-15,-27,-27,-6,-5,-10,-12
14:48:17:108656,8,0,11,11,4,1,7,1
14:48:17:116836,8,0,11,11,4,1,7,1
14:48:17:117631,-14,-39,-26,6,0,-3,-12,6
14:48:17:123685,-27,-9,-4,19,5,-2,-3,-6
14:48:17:139391,-27,-9,-4,19,5,-2,-3,-6
14:48:17:140204,13,44,27,8,-1,0,-1,10
14:48:17:146168,11,-30,6,-14,-3,-8,-11,-5
14:48:17:153688,11,-30,6,-14,-3,-8,-11,-5
14:48:17:161189,-21,-35,-14,-19,-7,-4,-7,-20
14:48:17:168687,-2,-4,10,-7,-4,0,-2,-1
14:48:17:176870,-2,-4,10,-7,-4,0,-2,-1
14:48:17:177664,6,-8,8,-1,2,-3,4,3
14:48:17:183636,3,-10,-20,-11,3,2,5,0
14:48:17:199369,3,-10,-20,-11,3,2,5,0
14:48:17:200164,5,6,-9,-2,-4,-4,-9,-2
14:48:17:206174,-4,5,3,6,-2,2,-2,-4
14:48:17:213667,-4,5,3,6,-2,2,-2,-4
14:48:17:221144,-4,-31,-21,-1,2,0,-4,-8
14:48:17:228618,-46,-21,-12,2,-3,-4,-4,-2
14:48:17:236913,-46,-21,-12,2,-3,-4,-4,-2
14:48:17:237656,-5,-2,6,-2,6,6,11,7
14:48:17:243633,7,-6,0,5,6,-1,-10,-5
14:48:17:259361,7,-6,0,5,6,-1,-10,-5
14:48:17:260145,-41,16,18,21,1,1,0,3
14:48:17:266139,9,27,22,3,-10,-2,12,0
14:48:17:273726,9,27,22,3,-10,-2,12,0
14:48:17:281154,14,-4,-6,8,-4,-6,-10,-2
14:48:17:288642,-9,-8,-2,-3,-3,1,2,-1
14:48:17:296916,-9,-8,-2,-3,-3,1,2,-1
14:48:17:297682,16,13,-16,-18,-2,1,17,7
14:48:17:303709,14,13,-2,-3,4,0,13,5
14:48:17:319355,14,13,-2,-3,4,0,13,5
14:48:17:320151,-4,-9,-19,-3,-3,-6,-21,-20
14:48:17:326137,6,17,1,-4,-7,-4,-11,-3
14:48:17:333725,6,17,1,-4,-7,-4,-11,-3
14:48:17:341189,4,-2,2,-6,0,0,5,2
14:48:17:348668,1,2,-12,5,-3,-2,-7,-3
14:48:17:356914,1,2,-12,5,-3,-2,-7,-3
14:48:17:357661,-13,-10,8,-28,-10,2,-1,-7
14:48:17:363671,6,-11,0,11,2,1,5,8
14:48:17:379406,6,-11,0,11,2,1,5,8
14:48:17:380171,-13,-4,0,6,3,1,26,9
14:48:17:386143,-12,6,-15,-19,-6,-3,-12,-1
14:48:17:393761,-12,6,-15,-19,-6,-3,-12,-1
14:48:17:401179,5,-4,-6,1,1,4,7,3
14:48:17:408689,-20,-22,-2,0,-1,9,18,1
14:48:17:416846,-20,-22,-2,0,-1,9,18,1
14:48:17:417676,4,-31,0,1,-4,-1,-19,-14
14:48:17:423718,1,6,-5,1,-1,-1,-13,5
14:48:17:439408,1,6,-5,1,-1,-1,-13,5
14:48:17:440228,12,-4,-3,-1,-1,0,24,3
14:48:17:446145,14,-6,0,-3,0,-1,16,-5
14:48:17:453686,14,-6,0,-3,0,-1,16,-5
14:48:17:461194,-7,13,9,-4,-5,-1,4,1
14:48:17:468712,5,7,2,-5,-4,-4,-7,5
14:48:17:476871,5,7,2,-5,-4,-4,-7,5
14:48:17:477654,6,-12,-3,3,3,-2,-12,11
14:48:17:483639,-15,-9,0,1,-4,-4,-5,-13
14:48:17:499319,-15,-9,0,1,-4,-4,-5,-13
14:48:17:500170,-8,2,-5,1,5,1,-4,3
14:48:17:506228,-57,-8,-2,-11,-6,-2,6,-25
14:48:17:513696,-57,-8,-2,-11,-6,-2,6,-25
14:48:17:521149,11,22,1,2,1,-9,-18,-9
14:48:17:528623,30,21,4,0,1,2,5,4
14:48:17:536868,30,21,4,0,1,2,5,4
14:48:17:537637,-19,13,3,3,-5,-6,-10,-5
14:48:17:543626,30,9,-2,0,0,-9,-30,-13
14:48:17:559357,30,9,-2,0,0,-9,-30,-13
14:48:17:560173,-9,2,-2,-4,-6,-4,2,-15
14:48:17:566158,7,-7,-6,-6,-1,-1,-4,9
14:48:17:581832,7,-7,-6,-6,-1,-1,-4,9
14:48:17:582654,7,-7,-1,-1,0,1,-22,-7
14:48:17:588681,-7,17,0,0,-4,-6,-17,3
14:48:17:596882,-7,17,0,0,-4,-6,-17,3
14:48:17:597636,-5,-2,-2,0,8,5,11,15
14:48:17:603647,22,-9,0,-6,-9,-6,-12,13
14:48:17:619343,22,-9,0,-6,-9,-6,-12,13
14:48:17:620168,12,19,6,1,3,-3,-12,11
14:48:17:626115,6,7,-8,-5,-9,-11,-10,3
14:48:17:641849,6,7,-8,-5,-9,-11,-10,3
14:48:17:642628,-14,-8,-14,2,7,0,-3,7
14:48:17:648687,-7,-10,1,2,-2,-1,3,3
14:48:17:656846,-7,-10,1,2,-2,-1,3,3
14:48:17:657646,-5,-7,2,3,7,2,-14,-6
14:48:17:663637,-21,-3,1,0,0,-9,-9,-23
14:48:17:679377,-21,-3,1,0,0,-9,-9,-23
14:48:17:680143,-6,-12,-9,-7,-14,-11,3,1
14:48:17:686162,-37,-8,5,0,0,-9,-29,-19
14:48:17:693676,-37,-8,5,0,0,-9,-29,-19
14:48:17:701153,2,31,13,1,-10,-3,3,2
14:48:17:708658,6,-8,-4,1,1,0,7,4
14:48:17:716868,6,-8,-4,1,1,0,7,4
14:48:17:717662,31,-1,-4,-2,-1,8,0,17
14:48:17:731639,15,10,0,3,5,7,-5,5
14:48:17:739328,15,10,0,3,5,7,-5,5
14:48:17:740195,5,-12,0,-2,-7,3,-6,-6
14:48:17:746124,1,-10,-8,-3,6,6,16,2
14:48:17:753690,1,-10,-8,-3,6,6,16,2
14:48:17:761150,-19,3,1,-4,-12,-15,-2,4
14:48:17:768634,-3,-6,-3,-1,10,15,60,4
14:48:17:776850,-3,-6,-3,-1,10,15,60,4
14:48:17:777685,-17,-8,-8,-6,-5,2,22,3
14:48:17:791663,7,15,8,1,2,6,17,28
14:48:17:799381,7,15,8,1,2,6,17,28
14:48:17:800174,16,2,-2,-2,-5,-7,-20,-28
14:48:17:806133,25,-24,-9,-2,4,13,12,8
14:48:17:813702,25,-24,-9,-2,4,13,12,8
14:48:17:821148,-12,-8,-3,-7,-11,-7,50,-7
14:48:17:828633,-34,6,3,9,18,8,-8,-3
14:48:17:845025,-34,6,3,9,18,8,-8,-3
14:48:17:845808,-8,-19,-5,-1,2,2,-6,-25
14:48:17:851154,8,-14,-5,-8,-11,-12,-10,1
14:48:17:859393,8,-14,-5,-8,-11,-12,-10,1
14:48:17:860189,-4,9,2,2,8,-1,-31,-13
14:48:17:866161,-12,3,1,-3,-10,-6,-16,-7
14:48:17:873739,-12,3,1,-3,-10,-6,-16,-7
14:48:17:881168,9,-6,1,1,4,6,9,15
14:48:17:897500,1,6,2,-2,-7,0,-8,-21
14:48:17:898338,1,6,2,-2,-7,0,-8,-21
14:48:17:899159,6,0,4,7,14,13,6,-1
14:48:17:911162,-17,-5,-6,-7,-14,-8,6,-8
14:48:17:919398,-17,-5,-6,-7,-14,-8,6,-8
14:48:17:920163,-25,-2,-2,3,5,4,-4,-2
14:48:17:926137,3,13,7,-1,-2,3,-6,-29
14:48:17:933769,3,13,7,-1,-2,3,-6,-29
14:48:17:941144,-9,-13,-8,0,-6,-5,0,22
14:48:17:948676,-3,-6,0,5,12,-1,-1,-3
14:48:17:956906,-3,-6,0,5,12,-1,-1,-3
14:48:17:957687,-30,-4,0,-5,-8,-8,-17,-17
14:48:17:971186,10,8,0,-1,0,-3,-11,38
14:48:17:979367,10,8,0,-1,0,-3,-11,38
14:48:17:980197,25,1,0,0,1,-4,-7,11
14:48:17:986149,-19,-23,-9,-6,-13,-4,40,-9
14:48:18:18860,-19,-23,-9,-6,-13,-4,40,-9
14:48:18:19686,3,7,7,2,6,-4,0,-4
14:48:18:20487,33,6,0,0,1,-3,-7,3
14:48:18:21312,33,6,0,0,1,-3,-7,3
14:48:18:23682,48,-2,-11,-6,-9,-6,0,21
14:48:18:31197,18,-10,1,-3,-1,1,8,4
14:48:18:39332,18,-10,1,-3,-1,1,8,4
14:48:18:40179,16,3,2,-1,1,-1,7,21
14:48:18:46195,-4,-3,-6,-2,-9,-6,-21,-17
14:48:18:61876,-4,-3,-6,-2,-9,-6,-21,-17
14:48:18:62651,9,14,6,2,4,11,9,4
14:48:18:68644,14,8,5,-2,1,4,5,-15
14:48:18:76853,14,8,5,-2,1,4,5,-15
14:48:18:77670,1,-3,-4,1,4,-5,-13,-22
14:48:18:91161,-14,-4,-7,-3,-3,-6,0,5
14:48:18:99376,-14,-4,-7,-3,-3,-6,0,5
14:48:18:100139,-35,9,4,0,-2,-2,-16,1
14:48:18:106165,3,-4,-1,-1,-5,-13,-2,-5
14:48:18:121894,3,-4,-1,-1,-5,-13,-2,-5
14:48:18:122686,-13,-5,-2,-3,-5,-4,1,-6
14:48:18:128651,-9,2,8,-3,-4,-5,-27,-10
14:48:18:136856,-9,2,8,-3,-4,-5,-27,-10
14:48:18:137647,-3,-32,-7,1,8,18,20,-20
14:48:18:151119,19,1,-5,2,2,5,-32,-21
14:48:18:159393,19,1,-5,2,2,5,-32,-21
14:48:18:160187,0,-2,-2,-2,-8,-6,-8,39
14:48:18:166171,-5,7,3,2,1,7,18,17
14:48:18:173704,-5,7,3,2,1,7,18,17
14:48:18:181186,-21,-16,-7,-8,-11,-1,35,-26
14:48:18:188676,2,-2,4,0,0,0,17,8
14:48:18:196844,2,-2,4,0,0,0,17,8
14:48:18:197650,18,15,1,-1,3,-7,-22,7
14:48:18:211183,-11,7,-9,0,0,-1,21,-17
14:48:18:227532,-11,7,-9,0,0,-1,21,-17
14:48:18:228325,-25,5,5,1,-6,-4,-4,-35
14:48:18:229156,6,-4,-3,-1,-3,2,25,22
14:48:18:241910,6,-4,-3,-1,-3,2,25,22
14:48:18:242673,0,-7,-5,4,11,5,-19,7
14:48:18:248689,15,4,3,-1,1,1,-20,9
14:48:18:256886,15,4,3,-1,1,1,-20,9
14:48:18:257711,-20,-14,-1,-1,-2,-1,-5,-20
14:48:18:271178,-15,3,5,5,1,2,3,-7
14:48:18:279410,-15,3,5,5,1,2,3,-7
14:48:18:280199,31,7,5,-1,-3,-1,-1,10
14:48:18:286178,13,2,-3,3,11,16,-1,9
14:48:18:301874,13,2,-3,3,11,16,-1,9
14:48:18:302653,-8,9,7,0,-4,-1,12,-5
14:48:18:308640,-27,-4,-2,-5,-4,-3,-2,20
14:48:18:316866,-27,-4,-2,-5,-4,-3,-2,20
14:48:18:317680,22,11,0,-4,-8,0,0,19
14:48:18:331151,34,7,-3,0,0,-1,-9,-7
14:48:18:339389,34,7,-3,0,0,-1,-9,-7
14:48:18:340168,27,8,1,-4,-1,-2,-11,16
14:48:18:353680,-7,6,3,-4,-10,-14,-21,-27
14:48:18:361848,-7,6,3,-4,-10,-14,-21,-27
14:48:18:362651,2,-3,-8,3,2,-3,5,3
14:48:18:368641,-13,0,3,-2,2,1,10,-9
14:48:18:376896,-13,0,3,-2,2,1,10,-9
14:48:18:377667,9,-28,-14,-5,0,0,-3,-2
14:48:18:391220,-32,-12,-5,-6,-9,-16,-17,-16
14:48:18:399361,-32,-12,-5,-6,-9,-16,-17,-16
14:48:18:400168,-49,-6,2,2,3,-1,-14,-21
14:48:18:406158,4,-3,-2,0,3,5,-16,8
14:48:18:421862,4,-3,-2,0,3,5,-16,8
14:48:18:422632,13,-1,3,-2,-3,-3,15,3
14:48:18:428657,-23,6,2,0,2,7,15,-7
14:48:18:436879,-23,6,2,0,2,7,15,-7
14:48:18:437689,1,-4,-2,-5,-12,-7,-5,-11
14:48:18:451204,15,-13,-5,0,4,5,-1,-6
14:48:18:459346,15,-13,-5,0,4,5,-1,-6
14:48:18:460182,6,17,4,-1,-3,-5,-1,2
14:48:18:466123,-1,-5,-3,-2,-2,3,-11,9
14:48:18:481850,-1,-5,-3,-2,-2,3,-11,9
14:48:18:482658,33,-3,-1,2,6,-1,-3,-20
14:48:18:488700,3,-4,0,-3,-6,-7,-5,-5
14:48:18:496838,3,-4,0,-3,-6,-7,-5,-5
14:48:18:497664,-23,-1,3,2,1,3,-12,-10
14:48:18:511216,-2,-7,-6,0,1,4,34,-11
14:48:18:519349,-2,-7,-6,0,1,4,34,-11
14:48:18:520174,0,4,-4,-2,-5,0,10,8
14:48:18:526179,5,3,-3,1,2,-5,-28,25
14:48:18:541912,5,3,-3,1,2,-5,-28,25
14:48:18:542714,22,1,-3,-2,-6,-4,0,2
14:48:18:548686,-41,-5,-7,-2,-1,-1,44,-16
14:48:18:556884,-41,-5,-7,-2,-1,-1,44,-16
14:48:18:557659,7,-4,4,-1,-2,-7,-19,26
14:48:18:571188,2,-17,1,-3,-3,-1,2,-9
14:48:18:579324,2,-17,1,-3,-3,-1,2,-9
14:48:18:580164,-33,-7,-4,-2,-3,-2,-8,-5
14:48:18:586163,5,3,-5,2,4,-2,-12,0
14:48:18:601879,5,3,-5,2,4,-2,-12,0
14:48:18:602696,-10,-1,-2,-4,-8,-4,35,-6
14:48:18:608649,24,10,0,2,14,6,2,15
14:48:18:616867,24,10,0,2,14,6,2,15
14:48:18:617645,-8,-3,-5,-3,-4,-2,-14,6
14:48:18:639999,-19,-8,-2,-2,-8,-8,-6,3
14:48:18:640834,-19,-8,-2,-2,-8,-8,-6,3
14:48:18:641615,-8,3,4,-2,0,-5,-2,-13
14:48:18:653687,16,22,3,5,4,-1,-19,18
14:48:18:661867,16,22,3,5,4,-1,-19,18
14:48:18:662668,-15,11,10,2,4,13,33,0
14:48:18:668675,-5,12,-1,-1,-4,-9,-14,0
14:48:18:676263,-5,12,-1,-1,-4,-9,-14,0
14:48:18:683688,13,2,-1,2,5,0,-16,10
14:48:18:691182,-2,-8,3,-2,-6,2,20,-19
14:48:18:699408,-2,-8,3,-2,-6,2,20,-19
14:48:18:700190,-24,-11,-5,1,2,3,-8,2
14:48:18:713651,-4,3,-2,-3,-5,-3,-16,-30
14:48:18:721877,-4,3,-2,-3,-5,-3,-16,-30
14:48:18:722674,0,9,-1,1,-2,2,-1,-10
14:48:18:728654,2,-8,-3,-1,2,-2,-8,1
14:48:18:736241,2,-8,-3,-1,2,-2,-8,1
14:48:18:743654,0,-12,-6,-2,-6,-12,-31,-16
14:48:18:751150,-8,-11,-2,-2,2,0,-15,-2
14:48:18:759405,-8,-11,-2,-2,2,0,-15,-2
14:48:18:760194,-1,10,-3,-2,0,10,16,-9
14:48:18:773647,-1,-3,-1,-3,-3,-1,4,1
14:48:18:781911,-1,-3,-1,-3,-3,-1,4,1
14:48:18:782683,-14,-4,-5,-1,5,-3,11,-6
14:48:18:788646,-9,1,0,-2,-6,-1,0,9
14:48:18:796211,-9,1,0,-2,-6,-1,0,9
14:48:18:803665,-15,-2,4,1,4,1,-13,13
14:48:18:811175,-27,-13,-4,-5,-8,3,65,7
14:48:18:819373,-27,-13,-4,-5,-8,3,65,7
14:48:18:820123,-8,-7,-7,-1,-2,0,-4,-11
14:48:18:834310,18,7,8,0,2,-4,-24,4
14:48:18:835156,18,7,8,0,2,-4,-24,4
14:48:18:841173,16,-7,0,1,3,8,21,5
14:48:18:848669,-6,3,3,3,3,7,4,2
14:48:18:856168,-6,3,3,3,3,7,4,2
14:48:18:863687,-7,7,-3,0,-2,-10,-20,-14
14:48:18:871202,14,-2,-2,0,-1,-2,-9,10
14:48:18:879368,14,-2,-2,0,-1,-2,-9,10
14:48:18:880181,8,6,4,2,-1,7,39,13
14:48:18:894317,5,-6,-3,0,0,-5,-24,-8
14:48:18:895142,5,-6,-3,0,0,-5,-24,-8
14:48:18:901215,4,-6,-9,-4,-3,-9,-40,3
14:48:18:908666,-8,-11,-5,-1,-2,-2,6,6
14:48:18:916217,-8,-11,-5,-1,-2,-2,6,6
14:48:18:923665,13,-4,-2,-5,-4,-2,7,5
14:48:18:931122,-19,9,-5,-1,2,-2,-29,3
14:48:18:946876,-19,9,-5,-1,2,-2,-29,3
14:48:18:947663,-12,-3,-3,1,2,7,17,9
14:48:18:954323,9,-14,-13,-3,-2,-4,-3,1
14:48:18:955166,9,-14,-13,-3,-2,-4,-3,1
14:48:18:961108,23,-6,4,-1,1,-3,-5,22
14:48:18:968638,-1,-4,0,-2,-1,0,-11,-2
14:48:18:976194,-1,-4,0,-2,-1,0,-11,-2
14:48:18:983723,-1,-9,3,1,4,2,-3,1
14:48:18:991169,-13,-9,0,1,-1,6,32,6
14:48:18:999376,-13,-9,0,1,-1,6,32,6
14:48:19:164,1,-3,1,-1,-5,4,56,-7
14:48:19:14125,-30,11,9,-1,-3,-4,-8,-4
14:48:19:21885,-30,11,9,-1,-3,-4,-8,-4
14:48:19:22679,-1,5,-2,-1,-1,-7,-31,-9
14:48:19:36821,53,16,-1,-1,0,1,-16,-2
14:48:19:37666,53,16,-1,-1,0,1,-16,-2
14:48:19:43644,-12,-4,-5,-4,-5,6,31,-8
14:48:19:51152,14,3,3,2,3,3,3,12
14:48:19:59390,14,3,3,2,3,3,3,12
14:48:19:60179,5,-12,-10,-2,-5,-14,-32,-5
14:48:19:74384,-16,-7,-11,-4,-3,-2,-6,-24
14:48:19:75183,-16,-7,-11,-4,-3,-2,-6,-24
14:48:19:81129,-32,-4,-4,0,-2,-6,-9,-5
14:48:19:88674,-6,-4,0,-3,-4,-10,-12,-12
14:48:19:96221,-6,-4,0,-3,-4,-10,-12,-12
14:48:19:103666,-17,3,-3,-4,-1,-5,-13,6
14:48:19:111185,-7,-9,-1,-1,0,-3,-1,11
14:48:19:119397,-7,-9,-1,-1,0,-3,-1,11
14:48:19:120162,9,0,3,3,2,1,-9,-3
14:48:19:134372,10,5,5,0,-4,-12,-24,-1
14:48:19:135165,10,5,5,0,-4,-12,-24,-1
14:48:19:141145,9,-5,1,-1,-2,1,11,3
14:48:19:148651,11,2,3,2,0,-8,-33,14
14:48:19:156238,11,2,3,2,0,-8,-33,14
14:48:19:163644,-15,5,-1,-2,-1,-6,-16,-35
14:48:19:171187,2,6,9,0,-1,3,4,10
14:48:19:179416,2,6,9,0,-1,3,4,10
14:48:19:180211,20,8,2,-1,-3,5,16,13
14:48:19:194369,14,-2,-6,-4,2,4,25,-8
14:48:19:195209,14,-2,-6,-4,2,4,25,-8
14:48:19:201155,-1,-1,-3,2,5,4,9,-5
14:48:19:208637,-10,7,-7,-2,-6,0,21,-3
14:48:19:216235,-10,7,-7,-2,-6,0,21,-3
14:48:19:223707,10,-4,1,0,0,-4,-19,8
14:48:19:231167,8,10,4,2,4,2,2,8
14:48:19:239368,8,10,4,2,4,2,2,8
14:48:19:240164,22,-3,-1,-1,-4,-5,-10,-2
14:48:19:254341,4,-11,-2,-3,-2,5,55,5
14:48:19:255202,4,-11,-2,-3,-2,5,55,5
14:48:19:261173,-19,-15,0,-3,-4,-3,-18,12
14:48:19:268679,-10,-7,-3,0,0,-4,-20,5
14:48:19:276212,-10,-7,-3,0,0,-4,-20,5
14:48:19:283686,9,7,1,0,1,8,17,-4
14:48:19:291169,-15,3,1,4,-2,2,7,-27
14:48:19:299378,-15,3,1,4,-2,2,7,-27
14:48:19:300180,-4,3,-3,-2,-2,4,18,4
14:48:19:314312,-7,-3,0,0,-2,3,16,12
14:48:19:315164,-7,-3,0,0,-2,3,16,12
14:48:19:321131,14,8,3,-1,0,0,2,-3
14:48:19:328720,-9,2,-1,-1,-1,-3,-21,0
14:48:19:336217,-9,2,-1,-1,-1,-3,-21,0
14:48:19:343670,-35,-7,-3,-3,-1,-3,-7,-22
14:48:19:351143,4,-3,-2,-2,-1,-3,-7,17
14:48:19:359378,4,-3,-2,-2,-1,-3,-7,17
14:48:19:360171,4,-9,-6,-3,-2,1,15,7
14:48:19:374297,-9,-4,-2,-5,-1,3,-3,-7
14:48:19:375144,-9,-4,-2,-5,-1,3,-3,-7
14:48:19:381146,7,11,10,5,-4,-5,-11,3
14:48:19:388675,5,-14,-8,0,0,-2,-1,-6
14:48:19:396205,5,-14,-8,0,0,-2,-1,-6
14:48:19:403670,-10,-5,0,-1,3,-3,-30,3
14:48:19:411178,19,2,4,-1,-3,0,22,-1
14:48:19:419403,19,2,4,-1,-3,0,22,-1
14:48:19:420188,-7,2,0,1,3,-1,0,10
14:48:19:434384,-22,-7,0,-2,-1,0,-13,-20
14:48:19:435223,-22,-7,0,-2,-1,0,-13,-20
14:48:19:441179,8,8,2,3,2,6,17,2
14:48:19:448677,9,1,-1,0,0,-6,-15,2
14:48:19:456256,9,1,-1,0,0,-6,-15,2
14:48:19:463693,-8,6,-2,-3,-3,-8,-21,-22
14:48:19:471210,-1,-4,4,-2,-3,-2,-3,12
14:48:19:479384,-1,-4,4,-2,-3,-2,-3,12
14:48:19:480198,-5,-4,-4,-3,-3,-3,-2,1
14:48:19:494425,6,-6,-4,-3,-2,-3,0,-1
14:48:19:495229,6,-6,-4,-3,-2,-3,0,-1
14:48:19:501173,19,-3,-4,-1,3,4,15,12
14:48:19:508668,-4,2,-12,-4,0,2,-2,-12
14:48:19:516252,-4,2,-12,-4,0,2,-2,-12
14:48:19:523699,24,-7,-3,-3,-5,-3,4,5
14:48:19:531182,5,-5,-7,-2,1,-1,-10,21
14:48:19:539347,5,-5,-7,-2,1,-1,-10,21
14:48:19:540193,3,13,6,0,1,-2,-13,25
14:48:19:554331,4,10,2,1,-4,-1,-10,-7
14:48:19:555142,4,10,2,1,-4,-1,-10,-7
14:48:19:561185,-12,-8,-3,-3,-4,2,10,5
14:48:19:576854,6,4,0,-2,-4,-8,-6,-1
14:48:19:577713,6,4,0,-2,-4,-8,-6,-1
14:48:19:583655,-7,6,3,-1,-4,-10,-3,-34
14:48:19:591185,-45,4,1,-1,-5,-2,-10,-59
14:48:19:598701,-45,4,1,-1,-5,-2,-10,-59
14:48:19:606192,10,8,7,-1,3,9,17,13
14:48:19:614732,2,-4,2,1,1,1,-14,15
14:48:19:621842,2,-4,2,1,1,1,-14,15
14:48:19:622663,-11,-11,-5,2,-1,-3,-5,1
14:48:19:636830,-9,0,-5,-2,0,-3,-6,1
14:48:19:637661,-9,0,-5,-2,0,-3,-6,1
14:48:19:643704,5,-4,-3,0,0,2,-12,8
14:48:19:659285,26,-1,-1,-1,-2,10,52,-15
14:48:19:660153,26,-1,-1,-1,-2,10,52,-15
14:48:19:666157,-15,0,1,-3,-5,-15,-20,-6
14:48:19:674353,6,-4,7,5,2,-2,-9,3
14:48:19:675148,6,-4,7,5,2,-2,-9,3
14:48:19:681176,0,-6,-3,2,0,8,3,2
14:48:19:697307,-20,-2,-11,-4,-1,-6,-6,16
14:48:19:698094,-20,-2,-11,-4,-1,-6,-6,16
14:48:19:703683,-20,-10,3,2,-2,-8,-2,-14
14:48:19:711199,0,6,5,0,-1,3,8,11
14:48:19:718714,0,6,5,0,-1,3,8,11
14:48:19:726224,-3,-2,-8,-6,-4,1,5,-9
14:48:19:734335,11,-10,-2,-1,-3,-2,-10,-7
14:48:19:735158,11,-10,-2,-1,-3,-2,-10,-7
14:48:19:741140,-1,3,1,-5,-7,-3,4,-6
14:48:19:756889,0,-7,0,0,0,1,-8,-3
14:48:19:757678,0,-7,0,0,0,1,-8,-3
14:48:19:763680,-22,-2,-7,-3,2,3,-9,-32
14:48:19:771186,-2,-8,-1,-4,-5,2,33,14
14:48:19:778684,-2,-8,-1,-4,-5,2,33,14
14:48:19:786133,-8,-13,5,4,0,-4,-5,2
14:48:19:794359,-4,-3,-5,-5,-3,-9,-20,9
14:48:19:795183,-4,-3,-5,-5,-3,-9,-20,9
14:48:19:801156,19,-3,-4,-4,-3,-3,-27,6
14:48:19:816842,3,4,3,3,4,1,20,-10
14:48:19:817710,3,4,3,3,4,1,20,-10
14:48:19:823643,25,2,-1,2,-1,-1,-5,-13
14:48:19:831138,2,6,-5,0,1,1,-15,-14
14:48:19:838747,2,6,-5,0,1,1,-15,-14
14:48:19:846149,-2,-7,-3,0,5,6,0,11
14:48:19:854339,-1,0,3,-2,0,6,2,-12
14:48:19:855184,-1,0,3,-2,0,6,2,-12
14:48:19:861160,-9,-7,-4,-2,-1,2,4,17
14:48:19:876889,-5,5,3,2,1,8,2,1
14:48:19:877687,-5,5,3,2,1,8,2,1
14:48:19:883706,7,-1,-4,-4,-2,-3,8,13
14:48:19:891138,-11,-3,-1,-2,-5,-6,-3,-9
14:48:19:898714,-11,-3,-1,-2,-5,-6,-3,-9
14:48:19:906145,-11,7,1,-1,-3,-2,10,-21
14:48:19:914304,6,7,2,-4,-3,4,15,5
14:48:19:915131,6,7,2,-4,-3,4,15,5
14:48:19:921153,15,5,3,0,-2,-5,-9,6
14:48:19:936897,-8,-3,-1,0,-3,-7,-4,-7
14:48:19:937694,-8,-3,-1,0,-3,-7,-4,-7
14:48:19:943682,-2,4,0,3,4,4,15,9
14:48:19:951194,-25,-5,3,1,1,-1,-23,22
14:48:19:958737,-25,-5,3,1,1,-1,-23,22
14:48:19:966140,19,-4,-7,-3,-3,-4,-18,5
14:48:19:974347,12,2,-2,0,0,-5,3,16
14:48:19:975210,12,2,-2,0,0,-5,3,16
14:48:19:981219,0,1,-1,-2,1,-4,-10,-11
14:48:19:996825,1,-1,-9,1,-1,-8,-21,-24
14:48:19:997657,1,-1,-9,1,-1,-8,-21,-24
14:48:20:3657,4,1,-2,-1,3,1,-16,-1
14:48:20:11176,-3,-8,0,-1,-2,3,9,-19
14:48:20:18711,-3,-8,0,-1,-2,3,9,-19
14:48:20:26215,-2,6,2,0,1,1,3,9
14:48:20:34340,12,11,2,0,3,-2,-11,1
14:48:20:35151,12,11,2,0,3,-2,-11,1
14:48:20:41150,-5,6,2,-1,-3,-3,3,9
14:48:20:57294,5,3,1,1,-2,-6,-2,7
14:48:20:58143,5,3,1,1,-2,-6,-2,7
14:48:20:63704,15,-6,-6,-4,-3,1,28,0
14:48:20:71222,-5,1,-1,-1,2,2,-19,0
14:48:20:78688,-5,1,-1,-1,2,2,-19,0
14:48:20:86161,-3,4,6,3,5,8,19,18
14:48:20:94374,-2,-10,-11,-3,-2,2,2,10
14:48:20:95198,-2,-10,-11,-3,-2,2,2,10
14:48:20:101160,-5,-7,-4,-3,-3,-5,0,-14
14:48:20:116869,-14,3,3,-1,-1,7,20,-8
14:48:20:117700,-14,3,3,-1,-1,7,20,-8
14:48:20:123694,4,-6,-4,-2,-4,-6,-21,-7
14:48:20:131169,1,-5,-2,-2,-2,-1,-2,-10
14:48:20:138735,1,-5,-2,-2,-2,-1,-2,-10
14:48:20:146154,15,15,0,0,2,2,-13,-12
14:48:20:154380,9,0,-2,0,-1,-3,-10,3
14:48:20:155202,9,0,-2,0,-1,-3,-10,3
14:48:20:161182,-29,-3,3,1,-3,-2,-9,-1
14:48:20:176857,-1,-6,-1,0,2,-3,-19,1
14:48:20:177689,-1,-6,-1,0,2,-3,-19,1
14:48:20:183656,3,-17,-3,-2,-5,3,19,-3
14:48:20:191156,-8,-6,-9,-1,-2,-5,-8,-4
14:48:20:198734,-8,-6,-9,-1,-2,-5,-8,-4
14:48:20:206154,-17,1,-3,-2,3,-4,-13,5
14:48:20:214350,8,1,-1,-2,-3,-8,0,10
14:48:20:215202,8,1,-1,-2,-3,-8,0,10
14:48:20:221166,-23,-4,-1,-1,-3,2,14,-7
14:48:20:236900,-16,6,9,-1,3,-1,-15,1
14:48:20:237665,-16,6,9,-1,3,-1,-15,1
14:48:20:243652,-1,-1,0,-1,-2,-2,-6,-6
14:48:20:251168,22,-7,0,-1,0,2,-18,-5
14:48:20:258735,22,-7,0,-1,0,2,-18,-5
14:48:20:266172,-19,0,-5,-2,-3,-6,-16,-35
14:48:20:274329,1,0,0,0,3,7,22,12
14:48:20:275156,1,0,0,0,3,7,22,12
14:48:20:281177,7,-4,-4,0,-1,-2,10,7
14:48:20:296833,-28,0,-9,-4,-6,-5,12,-29
14:48:20:297650,-28,0,-9,-4,-6,-5,12,-29
14:48:20:303671,27,0,-3,-2,-2,3,31,4
14:48:20:311188,3,-25,-7,0,2,2,15,0
14:48:20:318695,3,-25,-7,0,2,2,15,0
14:48:20:326181,-7,-2,-3,0,-4,-2,-14,-1
14:48:20:334330,1,5,1,-1,-6,-4,8,-3
14:48:20:335150,1,5,1,-1,-6,-4,8,-3
14:48:20:341133,-9,4,-2,-2,-2,-3,-6,-11
14:48:20:356839,1,-6,0,-2,-1,-4,-31,-2
14:48:20:357657,1,-6,0,-2,-1,-4,-31,-2
14:48:20:363717,-13,3,1,0,-1,-3,4,11
14:48:20:371201,-18,0,7,0,1,4,-1,-21
14:48:20:378689,-18,0,7,0,1,4,-1,-21
14:48:20:386153,4,2,-1,-1,-3,6,7,3
14:48:20:394367,8,6,1,-1,-3,0,-3,7
14:48:20:395189,8,6,1,-1,-3,0,-3,7
14:48:20:401128,-5,-11,0,-3,-1,-5,1,1
14:48:20:416881,8,4,6,0,3,0,1,4
14:48:20:417670,8,4,6,0,3,0,1,4
14:48:20:423665,5,-1,0,-1,0,-3,-16,6
14:48:20:431182,1,-14,-12,-1,-5,-3,16,-3
14:48:20:438703,1,-14,-12,-1,-5,-3,16,-3
14:48:20:446128,10,11,1,1,4,4,11,5
14:48:20:454390,3,7,-1,-4,-9,-3,3,7
14:48:20:455181,3,7,-1,-4,-9,-3,3,7
14:48:20:461180,-5,-6,1,-1,-5,-5,-2,-42
14:48:20:476882,18,1,-6,0,7,3,3,11
14:48:20:477694,18,1,-6,0,7,3,3,11
14:48:20:483680,-10,1,-2,-2,-1,4,6,3
14:48:20:491150,-8,0,5,-1,-3,-4,-14,-11
14:48:20:498706,-8,0,5,-1,-3,-4,-14,-11
14:48:20:506206,8,1,-1,3,13,19,52,14
14:48:20:514354,-8,-6,3,-2,0,-5,-3,5
14:48:20:515152,-8,-6,3,-2,0,-5,-3,5
14:48:20:528666,4,6,-3,-1,-6,-9,-24,-6
14:48:20:536870,7,10,4,-1,-8,-4,-4,1
14:48:20:537690,7,10,4,-1,-8,-4,-4,1
14:48:20:543669,-9,-14,0,1,4,1,-20,-26
14:48:20:559398,2,11,0,0,-4,-5,-5,1
14:48:20:560185,2,11,0,0,-4,-5,-5,1
14:48:20:566150,6,5,-2,1,0,11,21,38
14:48:20:574377,-11,-8,-4,-2,-8,-7,-9,-5
14:48:20:575192,-11,-8,-4,-2,-8,-7,-9,-5
14:48:20:588676,0,-3,-9,-2,1,-8,-35,-26
14:48:20:596872,0,-2,-1,1,3,2,2,-3
14:48:20:597705,0,-2,-1,1,3,2,2,-3
14:48:20:603675,-2,-7,0,-3,-4,-5,15,30
14:48:20:619329,-5,-1,-4,-3,0,2,9,-5
14:48:20:620177,-5,-1,-4,-3,0,2,9,-5
14:48:20:626128,-4,-13,2,-2,-2,-4,5,14
14:48:20:634368,12,0,-1,0,7,1,-12,-2
14:48:20:635193,12,0,-1,0,7,1,-12,-2
14:48:20:648653,-4,1,3,-1,-3,-7,-20,-5
14:48:20:656842,0,-12,-2,0,-4,4,-4,1
14:48:20:657709,0,-12,-2,0,-4,4,-4,1
14:48:20:663670,-2,-7,-4,-1,-2,-1,-4,2
14:48:20:679353,-2,1,-6,-3,-7,-6,8,2
14:48:20:680210,-2,1,-6,-3,-7,-6,8,2
14:48:20:686149,-17,8,6,-3,-1,1,-19,-18
14:48:20:694335,-7,-12,1,1,4,4,-5,-3
14:48:20:695182,-7,-12,1,1,4,4,-5,-3
14:48:20:708687,14,-1,-3,-5,-6,-8,3,-10
14:48:20:716626,4,-5,-3,-3,0,5,39,-2
14:48:20:724378,4,-5,-3,-3,0,5,39,-2
14:48:20:725167,3,11,0,3,6,2,-3,6
14:48:20:739355,-1,7,-4,0,0,-4,-12,0
14:48:20:740189,-1,7,-4,0,0,-4,-12,0
14:48:20:746154,-19,2,2,-3,-3,-8,-6,7
14:48:20:754354,-3,1,2,-1,2,3,4,3
14:48:20:755161,-3,1,2,-1,2,3,4,3
14:48:20:768712,14,-19,-4,0,-3,-3,-9,31
14:48:20:776876,-3,-19,-2,-4,-12,-18,-18,-21
14:48:20:777709,-3,-19,-2,-4,-12,-18,-18,-21
14:48:20:783666,3,1,5,1,3,3,5,4
14:48:20:799340,13,-3,-4,-1,3,15,23,7
14:48:20:800160,13,-3,-4,-1,3,15,23,7
14:48:20:806195,9,0,1,2,11,0,-7,-2
14:48:20:814346,-7,14,3,1,2,-2,-6,10
14:48:20:815177,-7,14,3,1,2,-2,-6,10
14:48:20:828657,-3,6,-5,-3,-11,-3,5,-5
14:48:20:836853,-5,2,-3,0,-2,-2,2,-18
14:48:20:837641,-5,2,-3,0,-2,-2,2,-18
14:48:20:843676,1,9,-3,0,0,5,8,5
14:48:20:859320,-7,-5,-1,-3,-4,-2,6,2
14:48:20:860145,-7,-5,-1,-3,-4,-2,6,2
14:48:20:866170,-2,-1,0,1,0,2,-3,-14
14:48:20:874351,-3,0,-10,-3,-6,3,-2,-6
14:48:20:875164,-3,0,-10,-3,-6,3,-2,-6
14:48:20:888678,-10,-14,-5,-2,-6,-6,5,-37
14:48:20:896909,-12,-12,-4,-2,-4,-4,-9,10
14:48:20:897665,-12,-12,-4,-2,-4,-4,-9,10
14:48:20:903675,2,-4,-2,-1,0,2,3,30
14:48:20:919377,7,18,3,0,1,-3,-12,-8
14:48:20:920188,7,18,3,0,1,-3,-12,-8
14:48:20:926161,-2,-3,-3,2,7,2,-12,-7
14:48:20:934328,3,-3,-1,1,2,3,-3,8
14:48:20:935144,3,-3,-1,1,2,3,-3,8
14:48:20:948692,-1,1,-4,-2,-5,-7,-16,-5
14:48:20:956851,-1,1,-4,-2,-5,-7,-16,-5
14:48:20:957698,-4,-11,0,0,3,2,14,6
14:48:20:963707,-1,-12,-3,-4,-8,-5,6,10
14:48:20:979444,-1,-12,-3,-4,-8,-5,6,10
14:48:20:980207,-7,1,3,1,1,-4,-11,1
14:48:20:986209,1,4,2,0,0,1,8,10
14:48:21:1891,1,4,2,0,0,1,8,10
14:48:21:2685,6,6,3,0,-2,0,11,11
14:48:21:8701,-5,10,7,-2,-2,-3,-9,-13
14:48:21:16907,-5,10,7,-2,-2,-3,-9,-13
14:48:21:17705,4,1,2,-4,-6,-7,-11,5
14:48:21:23679,8,8,8,3,10,3,-1,-5
14:48:21:39392,8,8,8,3,10,3,-1,-5
14:48:21:40189,3,-5,5,2,-2,-1,-4,-3
14:48:21:46147,-2,-5,-4,-3,-10,-8,-8,-11
14:48:21:61891,-2,-5,-4,-3,-10,-8,-8,-11
14:48:21:62658,-3,4,-1,-1,7,5,0,-4
14:48:21:68673,-9,-5,-8,-4,-3,1,11,8
14:48:21:76876,-9,-5,-8,-4,-3,1,11,8
14:48:21:77682,-8,-13,-4,-2,-3,-3,8,-6
14:48:21:83677,-1,1,-3,-2,-2,-4,-2,-4
14:48:21:99391,-1,1,-3,-2,-2,-4,-2,-4
14:48:21:100167,5,7,-1,-1,-2,2,3,20
14:48:21:106165,-5,-8,-3,-1,-1,-1,1,-3
14:48:21:121878,-5,-8,-3,-1,-1,-1,1,-3
14:48:21:122676,4,8,-9,-1,3,1,7,7
14:48:21:128686,-3,12,-3,-2,-7,-2,-4,-26
14:48:21:136904,-3,12,-3,-2,-7,-2,-4,-26
14:48:21:137685,0,-1,6,0,2,-1,-8,-10
14:48:21:143684,-2,-3,1,0,-4,0,0,6
14:48:21:159404,-2,-3,1,0,-4,0,0,6
14:48:21:160195,-22,-10,-6,-2,-2,-2,-15,-40
14:48:21:166151,0,3,-14,-2,2,1,5,9
14:48:21:181870,0,3,-14,-2,2,1,5,9
14:48:21:182663,9,-3,3,-1,-5,-7,-3,3
14:48:21:188687,1,-6,5,1,7,6,4,6
14:48:21:196905,1,-6,5,1,7,6,4,6
14:48:21:197668,-2,-1,-6,-2,-3,-2,-2,-2
14:48:21:203668,-5,-8,0,-3,-1,-1,-4,-11
14:48:21:219345,-5,-8,0,-3,-1,-1,-4,-11
14:48:21:220194,-1,-7,0,-2,4,3,7,24
14:48:21:226136,7,-5,-3,-1,-3,0,11,17
14:48:21:241849,7,-5,-3,-1,-3,0,11,17
14:48:21:242682,-8,7,-2,-2,-3,-2,-7,-13
14:48:21:248700,-3,2,4,1,-2,-3,-15,-16
14:48:21:256859,-3,2,4,1,-2,-3,-15,-16
14:48:21:257681,8,6,0,-1,-5,1,20,25
14:48:21:263681,-1,-1,-2,0,0,-3,-15,-28
14:48:21:279348,-1,-1,-2,0,0,-3,-15,-28
14:48:21:280132,5,6,7,0,2,1,-3,0
14:48:21:286120,-4,6,-1,-3,-2,-1,0,1
14:48:21:301853,-4,6,-1,-3,-2,-1,0,1
14:48:21:302693,14,-18,-2,1,1,-2,1,3
14:48:21:308705,2,2,-8,-5,-2,-1,-3,-5
14:48:21:316881,2,2,-8,-5,-2,-1,-3,-5
14:48:21:317680,5,5,1,3,0,1,0,-5
14:48:21:323691,5,-11,-2,-14,-9,-2,9,24
14:48:21:339367,5,-11,-2,-14,-9,-2,9,24
14:48:21:340170,-7,-1,-1,-9,6,1,-9,-13
14:48:21:346195,-3,1,4,5,-1,0,2,8
14:48:21:361914,-3,1,4,5,-1,0,2,8
14:48:21:362678,-1,6,-2,4,-8,-7,-11,-25
14:48:21:368685,-5,0,8,0,4,2,-3,-16
14:48:21:376847,-5,0,8,0,4,2,-3,-16
14:48:21:377681,-10,-5,-6,4,-2,1,1,2
14:48:21:383663,2,0,-5,-2,-7,-9,6,26
14:48:21:399348,2,0,-5,-2,-7,-9,6,26
14:48:21:400138,2,-25,-10,0,-9,-11,-3,11
14:48:21:406207,-8,-10,1,2,2,11,8,10
14:48:21:421867,-8,-10,1,2,2,11,8,10
14:48:21:422682,0,2,-3,-12,-2,1,-12,-13
14:48:21:428683,2,6,6,1,-8,-9,-9,-1
14:48:21:436857,2,6,6,1,-8,-9,-9,-1
14:48:21:437659,-9,4,5,8,-6,-1,3,9
14:48:21:443680,-8,-4,-6,-2,0,-4,-22,-37
14:48:21:459386,-8,-4,-6,-2,0,-4,-22,-37
14:48:21:460177,-15,0,3,4,0,2,6,5
14:48:21:466175,1,-4,2,-24,-8,-5,-10,-5
14:48:21:481887,1,-4,2,-24,-8,-5,-10,-5
14:48:21:482689,9,-13,-8,2,7,3,8,11
14:48:21:488668,4,-22,-6,19,-3,-2,1,4
14:48:21:496898,4,-22,-6,19,-3,-2,1,4
14:48:21:497694,3,22,4,1,2,-2,-7,-3
14:48:21:511190,-26,-7,-12,27,19,5,10,14
14:48:21:519377,-26,-7,-12,27,19,5,10,14
14:48:21:520191,-2,-7,-6,-23,9,3,-4,-12
14:48:21:526172,6,26,11,-7,-4,-4,-9,-23
14:48:21:541871,6,26,11,-7,-4,-4,-9,-23
14:48:21:542664,1,3,8,1,2,5,9,16
14:48:21:548677,12,8,-5,4,-2,1,6,12
14:48:21:556873,12,8,-5,4,-2,1,6,12
14:48:21:557678,-2,-21,-2,-9,-6,-2,-5,-18
14:48:21:571120,13,30,-6,10,13,8,14,17
14:48:21:579402,13,30,-6,10,13,8,14,17
14:48:21:580207,-5,19,10,7,-8,-5,-6,5
14:48:21:586176,-9,-29,-4,-14,-9,-5,-3,-1
14:48:21:593724,-9,-29,-4,-14,-9,-5,-3,-1
14:48:21:601169,-12,-8,-18,4,-3,4,8,-1
14:48:21:608701,-1,4,-11,-9,12,-1,-14,-30
14:48:21:616944,-1,4,-11,-9,12,-1,-14,-30
14:48:21:617717,22,11,15,18,1,0,-10,-20
14:48:21:631196,-2,-35,5,-3,-4,-3,0,-11
14:48:21:639369,-2,-35,5,-3,-4,-3,0,-11
14:48:21:640173,-8,-38,-24,4,4,-2,4,-3
14:48:21:646168,-4,-2,19,1,-7,-1,3,5
14:48:21:661899,-4,-2,19,1,-7,-1,3,5
14:48:21:662664,11,18,7,13,7,-2,7,22
14:48:21:668680,-1,-1,-15,-4,-15,-10,-5,8
14:48:21:677917,-1,-1,-15,-4,-15,-10,-5,8
14:48:21:683727,-76,-2,-6,-15,-7,-3,-25,-71
14:48:21:691181,-3,-1,10,26,6,4,7,5
14:48:21:699333,-3,-1,10,26,6,4,7,5
14:48:21:700130,-3,1,14,-49,-26,-8,-7,-3
14:48:21:706168,1,13,10,0,-3,2,5,12
14:48:21:721931,1,13,10,0,-3,2,5,12
14:48:21:722747,2,-7,5,19,18,4,-2,-8
14:48:21:728727,21,0,-4,16,7,1,5,26
14:48:21:736836,21,0,-4,16,7,1,5,26
14:48:21:737684,1,34,12,-15,0,-7,-11,-29
14:48:21:751168,9,-15,-20,-7,-2,-3,-20,-30
14:48:21:759392,9,-15,-20,-7,-2,-3,-20,-30
14:48:21:760201,13,-19,-6,18,5,7,15,27
14:48:21:766186,-12,25,26,-3,-13,-7,-4,-12
14:48:21:781897,-12,25,26,-3,-13,-7,-4,-12
14:48:21:782677,30,51,15,11,-5,-3,3,30
14:48:21:797517,-9,-17,-21,-25,-14,-1,0,-9
14:48:21:798330,-9,-17,-21,-25,-14,-1,0,-9
14:48:21:799146,16,8,-14,-42,-16,-4,6,21
14:48:21:811198,4,16,6,-16,-15,-3,1,2
14:48:21:819393,4,16,6,-16,-15,-3,1,2
14:48:21:820188,21,-15,-19,7,13,4,7,20
14:48:21:826129,-14,0,11,-11,4,2,-3,-3
14:48:21:842360,-14,0,11,-11,4,2,-3,-3
14:48:21:849282,-19,-28,16,25,-2,0,-7,3
14:48:21:850101,1,3,-4,3,8,5,5,2
14:48:21:856875,1,3,-4,3,8,5,5,2
14:48:21:857661,-11,-63,-7,-5,-8,-2,9,39
14:48:21:871209,34,-3,-10,11,7,0,-1,7
14:48:21:879339,34,-3,-10,11,7,0,-1,7
14:48:21:880148,8,-21,-17,-10,2,-2,-5,-12
14:48:21:886151,4,-19,-10,-11,-8,-2,9,20
14:48:21:901847,4,-19,-10,-11,-8,-2,9,20
14:48:21:902652,-12,28,-10,-34,-3,1,3,16
14:48:21:908700,0,49,44,9,6,3,2,4
14:48:21:916855,0,49,44,9,6,3,2,4
14:48:21:917669,-40,12,17,26,11,3,1,-6
14:48:21:931193,-27,-41,-19,4,8,-1,-2,-15
14:48:21:939398,-27,-41,-19,4,8,-1,-2,-15
14:48:21:940177,24,-14,-10,-5,6,-3,-6,-1
14:48:21:946193,11,12,15,-1,-1,0,-4,-22
14:48:21:961852,11,12,15,-1,-1,0,-4,-22
14:48:21:962703,3,13,2,5,13,1,8,-3
14:48:21:968702,-42,-15,-25,-17,-3,-5,-8,0
14:48:21:976871,-42,-15,-25,-17,-3,-5,-8,0
14:48:21:977674,22,22,11,25,3,-1,-4,-9
14:48:21:991161,19,21,3,-6,-8,-5,-4,-5
14:48:21:999351,19,21,3,-6,-8,-5,-4,-5
14:48:22:156,-14,-2,3,3,-12,-10,-21,-27
14:48:22:6217,-14,12,-13,-20,6,1,8,20
14:48:22:21887,-14,12,-13,-20,6,1,8,20
14:48:22:22689,12,-31,-35,14,3,0,3,10
14:48:22:28701,8,39,15,2,-11,-5,-15,-12
14:48:22:36862,8,39,15,2,-11,-5,-15,-12
14:48:22:37681,-2,-23,3,-1,-5,-4,-8,-17
14:48:22:51211,-17,-16,-15,0,5,-3,-1,-7
14:48:22:67579,-17,-16,-15,0,5,-3,-1,-7
14:48:22:68313,0,23,-57,3,-10,-6,-9,-39
14:48:22:69147,9,-6,15,15,-1,-2,-9,-44
14:48:22:81887,9,-6,15,15,-1,-2,-9,-44
14:48:22:82670,-10,63,27,-11,2,2,3,-7
14:48:22:88684,11,-20,-48,19,1,-2,-6,1
14:48:22:96906,11,-20,-48,19,1,-2,-6,1
14:48:22:97675,7,16,7,-21,-2,9,17,21
14:48:22:111213,-10,-33,48,-7,-6,-1,5,22
14:48:22:119383,-10,-33,48,-7,-6,-1,5,22
14:48:22:120155,5,20,8,-63,-15,-3,10,32
14:48:22:133683,-5,8,-4,-22,-5,-1,-3,-11
14:48:22:141888,-5,8,-4,-22,-5,-1,-3,-11
14:48:22:142706,-23,-33,23,41,5,-6,-14,-18
14:48:22:148691,3,22,-6,-5,-4,-4,-2,6
14:48:22:156878,3,22,-6,-5,-4,-4,-2,6
14:48:22:157684,6,6,-7,-7,5,1,9,19
14:48:22:171204,-27,15,-5,19,7,2,1,-23
14:48:22:179344,-27,15,-5,19,7,2,1,-23
14:48:22:180126,10,26,23,-23,-8,4,8,12
14:48:22:186134,43,-40,8,3,5,3,12,32
14:48:22:201847,43,-40,8,3,5,3,12,32
14:48:22:202703,31,-1,10,22,7,2,5,13
14:48:22:208722,11,-5,76,88,11,4,1,0
14:48:22:216885,11,-5,76,88,11,4,1,0
14:48:22:217716,-52,-23,-99,-87,-35,-11,-8,-4
14:48:22:231165,-31,-12,-1,23,19,5,-1,8
14:48:22:239337,-31,-12,-1,23,19,5,-1,8
14:48:22:240149,-14,-26,35,22,13,-2,-18,-63
14:48:22:246176,-37,31,-15,-19,-21,-11,-6,0
14:48:22:261896,-37,31,-15,-19,-21,-11,-6,0
14:48:22:262717,16,-31,15,-15,9,2,-10,-6
14:48:22:268678,4,-87,-75,-41,4,2,3,-2
14:48:22:276720,4,-87,-75,-41,4,2,3,-2
14:48:22:283699,8,-7,34,52,4,2,-2,1
14:48:22:291179,-45,13,29,-19,2,1,0,-10
14:48:22:299420,-45,13,29,-19,2,1,0,-10
14:48:22:300158,-6,30,16,50,2,1,8,13
14:48:22:306109,12,-13,13,-33,-13,1,2,2
14:48:22:321899,12,-13,13,-33,-13,1,2,2
14:48:22:322681,5,36,-10,-7,-11,-2,0,2
14:48:22:328726,35,22,-2,-12,-15,-5,3,5
14:48:22:336875,35,22,-2,-12,-15,-5,3,5
14:48:22:337681,-9,10,10,-18,-5,5,8,19
14:48:22:351216,12,-42,-51,-17,-8,-4,0,3
14:48:22:359370,12,-42,-51,-17,-8,-4,0,3
14:48:22:360150,-1,-44,30,23,10,-3,-4,-7
14:48:22:366211,-8,11,11,0,-4,-6,-4,0
14:48:22:373709,-8,11,11,0,-4,-6,-4,0
14:48:22:381128,13,21,-28,-10,-3,-1,-1,-2
14:48:22:388722,-6,4,-15,6,6,3,3,6
14:48:22:396871,-6,4,-15,6,6,3,3,6
14:48:22:397671,-3,1,-30,-45,-21,-6,-5,-14
14:48:22:411221,16,-7,-33,-24,5,5,0,0
14:48:22:419356,16,-7,-33,-24,5,5,0,0
14:48:22:420142,8,39,64,39,4,-2,4,15
14:48:22:433697,12,12,-4,-5,-6,-10,-5,0
14:48:22:441903,12,12,-4,-5,-6,-10,-5,0
14:48:22:442690,11,2,-42,11,14,-1,-10,-16
14:48:22:448691,-19,-23,8,-17,17,6,10,9
14:48:22:456205,-19,-23,8,-17,17,6,10,9
14:48:22:463701,-22,-35,-27,6,8,-2,-6,-23
14:48:22:471131,17,66,27,36,20,5,0,1
14:48:22:479398,17,66,27,36,20,5,0,1
14:48:22:480188,2,-21,-39,2,-3,5,2,-14
14:48:22:493706,23,20,27,10,-1,-4,-8,-9
14:48:22:501903,23,20,27,10,-1,-4,-8,-9
14:48:22:502688,4,-27,-2,20,-7,-10,9,35
14:48:22:508737,3,3,21,15,-1,-1,-1,-3
14:48:22:524368,3,3,21,15,-1,-1,-1,-3
14:48:22:525165,3,-67,-30,-30,-8,2,3,12
14:48:22:531136,-27,-2,-18,-12,-17,-5,-7,-3
14:48:22:539362,-27,-2,-18,-12,-17,-5,-7,-3
14:48:22:540190,-16,-14,28,33,4,-1,0,1
14:48:22:554163,1,-12,39,8,-10,-3,-4,-9
14:48:22:561872,1,-12,39,8,-10,-3,-4,-9
14:48:22:562697,10,25,-7,10,14,7,-1,-11
14:48:22:568726,-8,-23,-54,6,-1,-1,-5,-15
14:48:22:576224,-8,-23,-54,6,-1,-1,-5,-15
14:48:22:583687,-8,31,30,-22,-5,-3,-11,-6
14:48:22:591155,-9,-6,-21,-21,3,0,9,19
14:48:22:599392,-9,-6,-21,-21,3,0,9,19
14:48:22:600188,-1,36,-34,-15,-9,-3,-3,0
14:48:22:613695,12,6,29,14,-9,-4,-6,2
14:48:22:621613,12,6,29,14,-9,-4,-6,2
14:48:22:629317,12,-2,16,-16,6,-4,-3,-7
14:48:22:630102,24,42,5,2,-4,-1,4,10
14:48:22:636210,24,42,5,2,-4,-1,4,10
14:48:22:643698,-20,-33,-15,-14,-14,-10,-8,-12
14:48:22:651179,-4,27,-19,-3,5,9,3,1
14:48:22:659395,-4,27,-19,-3,5,9,3,1
14:48:22:660196,3,54,24,11,-5,-6,-15,-9
14:48:22:673683,-46,-83,-40,34,17,-6,-24,-48
14:48:22:681920,-46,-83,-40,34,17,-6,-24,-48
14:48:22:682669,6,15,4,-6,1,2,6,7
14:48:22:688696,1,45,0,-14,-1,3,11,25
14:48:22:696214,1,45,0,-14,-1,3,11,25
14:48:22:703741,-30,-4,37,13,9,4,2,-2
14:48:22:711210,12,16,29,26,-5,-5,0,0
14:48:22:719376,12,16,29,26,-5,-5,0,0
14:48:22:720156,7,21,3,19,-2,1,2,12
14:48:22:733731,-11,-30,-5,-47,-24,-13,-23,-27
14:48:22:741916,-11,-30,-5,-47,-24,-13,-23,-27
14:48:22:742674,18,15,2,13,-2,-8,-24,-20
14:48:22:748682,21,-7,-26,18,4,6,12,25
14:48:22:756199,21,-7,-26,18,4,6,12,25
14:48:22:763718,4,0,-23,-15,2,5,9,1
14:48:22:771190,-13,24,-14,-6,-4,0,5,5
14:48:22:779378,-13,24,-14,-6,-4,0,5,5
14:48:22:780168,1,-26,-13,18,16,7,2,-27
14:48:22:793699,-19,-13,-2,3,5,3,18,21
14:48:22:801862,-19,-13,-2,3,5,3,18,21
14:48:22:802678,12,34,37,2,-20,-7,6,23
14:48:22:808690,12,-8,26,0,-4,2,-5,-5
14:48:22:816198,12,-8,26,0,-4,2,-5,-5
14:48:22:823733,23,-57,-23,-8,1,4,10,18
14:48:22:831143,-11,-75,-42,-29,-22,-9,-11,-6
14:48:22:839355,-11,-75,-42,-29,-22,-9,-11,-6
14:48:22:840171,16,17,36,12,3,8,8,-2
14:48:22:853682,16,15,-21,-22,1,5,3,7
14:48:22:861876,16,15,-21,-22,1,5,3,7
14:48:22:862706,-55,-39,-37,-19,-8,-8,-5,-5
14:48:22:868723,33,26,4,38,10,1,-1,-8
14:48:22:876210,33,26,4,38,10,1,-1,-8
14:48:22:883712,11,-30,-13,-8,9,6,12,25
14:48:22:891178,-26,-27,25,0,1,4,0,-5
14:48:22:906865,-26,-27,25,0,1,4,0,-5
14:48:22:907682,-28,-5,-58,-37,-12,-3,-6,-9
14:48:22:914319,0,22,23,-2,11,5,8,10
14:48:22:915188,0,22,23,-2,11,5,8,10
14:48:22:921146,-26,-36,2,-14,7,-4,-8,-21
14:48:22:928688,38,33,-8,-14,-3,-1,-6,-27
14:48:22:936232,38,33,-8,-14,-3,-1,-6,-27
14:48:22:951798,15,18,21,-8,-12,-6,-2,-2
14:48:22:952582,-1,2,14,36,0,-11,-16,-15
14:48:22:959372,-1,2,14,36,0,-11,-16,-15
14:48:22:960143,19,-7,-30,-24,-10,-3,-2,5
14:48:22:974330,-38,-27,-12,-5,-3,-5,2,0
14:48:22:975197,-38,-27,-12,-5,-3,-5,2,0
14:48:22:981129,5,1,9,0,-8,2,7,18
14:48:22:988732,29,33,2,-17,0,3,3,1
14:48:22:996242,29,33,2,-17,0,3,3,1
14:48:23:3733,-2,-8,14,36,2,-2,-7,-7
14:48:23:11175,9,-23,-22,-10,-1,0,8,22
14:48:23:19365,9,-23,-22,-10,-1,0,8,22
14:48:23:20176,13,-41,6,8,9,4,-4,-15
14:48:23:33712,7,-7,15,-2,-1,-3,-2,12
14:48:23:41895,7,-7,15,-2,-1,-3,-2,12
14:48:23:42716,-25,-46,6,13,2,0,5,4
14:48:23:48707,14,1,-36,-55,-9,-4,3,6
14:48:23:56232,14,1,-36,-55,-9,-4,3,6
14:48:23:63719,-14,59,33,27,5,-1,3,1
14:48:23:71175,-21,4,38,34,20,10,6,-2
14:48:23:79409,-21,4,38,34,20,10,6,-2
14:48:23:80201,-11,23,-9,-6,6,3,0,-16
14:48:23:93746,-4,25,13,27,-7,-7,-26,-52
14:48:23:101889,-4,25,13,27,-7,-7,-26,-52
14:48:23:102709,-25,-8,-9,-12,-3,0,2,5
14:48:23:108740,-6,54,18,-5,-3,-6,3,10
14:48:23:116249,-6,54,18,-5,-3,-6,3,10
14:48:23:123723,-28,-2,21,-12,-10,-7,-10,-4
14:48:23:131199,-15,-29,18,2,-9,-4,-15,-29
14:48:23:139334,-15,-29,18,2,-9,-4,-15,-29
14:48:23:140145,44,-11,-46,4,8,-1,-1,8
14:48:23:153710,-5,-37,-37,-33,-9,1,8,16
14:48:23:161882,-5,-37,-37,-33,-9,1,8,16
14:48:23:162740,-19,0,2,21,-2,1,2,6
14:48:23:168687,10,-2,-40,-7,-11,-6,-3,11
14:48:23:176211,10,-2,-40,-7,-11,-6,-3,11
14:48:23:183700,15,32,6,-16,1,-3,-2,11
14:48:23:191182,-25,5,-21,13,0,1,4,2
14:48:23:199375,-25,5,-21,13,0,1,4,2
14:48:23:200166,26,24,23,47,5,0,9,29
14:48:23:213701,-15,-74,0,-1,-3,-4,-9,-16
14:48:23:221853,-15,-74,0,-1,-3,-4,-9,-16
14:48:23:222703,-1,-16,16,-13,2,2,-1,-11
14:48:23:228710,-1,48,46,38,19,4,7,10
14:48:23:236214,-1,48,46,38,19,4,7,10
14:48:23:243721,-11,0,-47,-15,-5,-4,-9,-17
14:48:23:251142,13,20,15,-21,-8,1,3,8
14:48:23:259393,13,20,15,-21,-8,1,3,8
14:48:23:260169,15,-19,10,-24,-14,-4,-1,-4
14:48:23:274109,7,46,-4,18,-1,-1,-3,-1
14:48:23:281866,7,46,-4,18,-1,-1,-3,-1
14:48:23:282712,23,27,2,2,-6,-4,1,-1
14:48:23:288705,-26,1,0,-17,-10,-5,-4,-12
14:48:23:296247,-26,1,0,-17,-10,-5,-4,-12
14:48:23:303693,28,22,18,-9,2,4,1,-2
14:48:23:311159,4,-21,-10,5,4,1,-7,-6
14:48:23:319381,4,-21,-10,5,4,1,-7,-6
14:48:23:320201,-26,-16,-12,-21,4,0,-7,-11
14:48:23:334342,13,-31,-8,-12,3,4,4,6
14:48:23:335190,13,-31,-8,-12,3,4,4,6
14:48:23:341154,3,17,-11,9,-8,-3,-4,-2
14:48:23:348689,-43,-38,-2,15,4,2,7,3
14:48:23:356235,-43,-38,-2,15,4,2,7,3
14:48:23:363736,-34,-14,-41,1,1,0,1,-6
14:48:23:371135,2,35,14,-24,-16,-4,-4,0
14:48:23:378714,2,35,14,-24,-16,-4,-4,0
14:48:23:386171,7,10,-20,-16,-1,-1,-4,-2
14:48:23:394342,26,-11,-6,-22,-6,-4,-1,2
14:48:23:395122,26,-11,-6,-22,-6,-4,-1,2
14:48:23:401178,-5,-13,-36,-30,-16,-8,-5,-6
14:48:23:416895,6,-33,-1,-9,3,-3,-4,-4
14:48:23:417731,6,-33,-1,-9,3,-3,-4,-4
14:48:23:423704,-9,-37,16,7,8,1,1,-1
14:48:23:431164,6,15,8,15,9,-1,-2,-4
14:48:23:438710,6,15,8,15,9,-1,-2,-4
14:48:23:446196,-1,14,37,-10,2,4,3,1
14:48:23:454330,23,22,25,5,-7,-3,0,0
14:48:23:455168,23,22,25,5,-7,-3,0,0
14:48:23:461146,0,-14,-18,-5,-8,-5,0,-2
14:48:23:476820,-3,-7,3,9,-5,-2,1,5
14:48:23:477692,-3,-7,3,9,-5,-2,1,5
14:48:23:483746,-17,-25,-8,-11,11,5,3,1
14:48:23:491197,-55,-9,-19,-9,-2,-2,-1,-2
14:48:23:498727,-55,-9,-19,-9,-2,-2,-1,-2
14:48:23:506165,-27,48,25,35,5,0,-3,-4
14:48:23:522503,-1,21,35,24,-5,1,2,1
14:48:23:523340,-1,21,35,24,-5,1,2,1
14:48:23:524129,32,-10,-20,-12,-4,-3,-2,5
14:48:23:536852,7,-5,-19,-8,0,-3,-6,-2
14:48:23:537722,7,-5,-19,-8,0,-3,-6,-2
14:48:23:543703,-9,-10,13,24,-6,-4,-4,-5
14:48:23:551162,26,-1,-8,8,8,1,0,-1
14:48:23:558700,26,-1,-8,8,8,1,0,-1
14:48:23:566196,-4,2,11,25,1,0,0,-1
14:48:23:574344,-27,-27,-45,-42,5,2,0,1
14:48:23:575175,-27,-27,-45,-42,5,2,0,1
14:48:23:581164,-14,30,4,-21,-5,-5,-3,-4
14:48:23:596820,-2,-15,-32,7,12,1,-2,-5
14:48:23:597716,-2,-15,-32,7,12,1,-2,-5
14:48:23:603695,12,27,-4,-16,-6,2,1,1
14:48:23:611197,-1,25,47,7,-3,0,3,1
14:48:23:618713,-1,25,47,7,-3,0,3,1
14:48:23:626179,5,20,17,-4,-1,2,1,1
14:48:23:634354,0,9,-15,-6,-6,-4,-4,-1
14:48:23:635163,0,9,-15,-6,-6,-4,-4,-1
14:48:23:641169,15,-14,38,19,5,4,3,1
14:48:23:656852,10,19,4,8,-1,-3,-6,-1
14:48:23:657685,10,19,4,8,-1,-3,-6,-1
14:48:23:663723,-4,-43,-29,-18,-1,-2,-5,-2
14:48:23:671152,-4,-11,9,-1,-1,-2,1,-5
14:48:23:678740,-4,-11,9,-1,-1,-2,1,-5
14:48:23:686212,-6,-3,-31,-23,-14,-5,-2,-6
14:48:23:694383,28,12,10,-14,-11,-7,-5,0
14:48:23:695193,28,12,10,-14,-11,-7,-5,0
14:48:23:701225,-4,-16,-5,1,15,-1,-1,-4
14:48:23:716853,13,7,-8,10,0,-1,0,0
14:48:23:717696,13,7,-8,10,0,-1,0,0
14:48:23:723715,14,32,-3,10,7,-6,-5,-2
14:48:23:731815,-19,-14,-20,18,0,1,-1,2
14:48:23:738724,-19,-14,-20,18,0,1,-1,2
14:48:23:746177,-3,-13,-17,-17,-8,0,0,2
14:48:23:754363,-32,-20,9,-20,-5,-1,-1,-6
14:48:23:755205,-32,-20,9,-20,-5,-1,-1,-6
14:48:23:761177,4,-5,0,5,-6,1,1,-1
14:48:23:776918,-2,20,-6,-16,0,3,2,0
14:48:23:777692,-2,20,-6,-16,0,3,2,0
14:48:23:791614,10,-9,5,-35,-16,0,0,2
14:48:23:799341,1,0,43,14,1,-2,-6,-7
14:48:23:800182,1,0,43,14,1,-2,-6,-7
14:48:23:806176,6,1,10,-4,4,-4,-7,-2
14:48:23:814369,-13,-34,-39,-40,-6,2,1,-4
14:48:23:815200,-13,-34,-39,-40,-6,2,1,-4
14:48:23:821181,9,1,9,17,-4,-4,0,-2
14:48:23:836880,-8,-28,4,28,17,8,3,-6
14:48:23:837707,-8,-28,4,28,17,8,3,-6
14:48:23:843702,-6,23,3,10,4,1,4,-1
14:48:23:851152,24,24,-18,7,-5,-8,-6,-2
14:48:23:858763,24,24,-18,7,-5,-8,-6,-2
14:48:23:866203,16,-22,0,27,5,2,1,-2
14:48:23:874347,-5,-10,-22,20,7,-2,-1,1
14:48:23:875145,-5,-10,-22,20,7,-2,-1,1
14:48:23:881156,-10,7,0,11,7,4,2,2
14:48:23:896868,13,4,10,1,-6,-3,-5,-1
14:48:23:897702,13,4,10,1,-6,-3,-5,-1
14:48:23:903704,-19,-1,0,19,2,2,1,-2
14:48:23:911169,-10,17,-8,10,-3,-5,-3,-4
14:48:23:918747,-10,17,-8,10,-3,-5,-3,-4
14:48:23:926199,-2,18,7,11,-1,-2,-4,0
14:48:23:934101,-9,13,30,5,5,0,1,0
14:48:23:941846,-9,13,30,5,5,0,1,0
14:48:23:942699,9,-18,1,-13,-10,-3,-1,3
14:48:23:956828,0,-10,4,-7,-5,-3,-3,1
14:48:23:957712,0,-10,4,-7,-5,-3,-3,1
14:48:23:963722,-14,-4,13,-13,-5,-1,-10,-8
14:48:23:971170,4,0,1,1,3,-2,-1,-1
14:48:23:978702,4,0,1,1,3,-2,-1,-1
14:48:23:986219,5,-7,-9,-8,0,-3,1,0
14:48:23:994350,-25,7,-14,-18,-3,2,2,4
14:48:23:995221,-25,7,-14,-18,-3,2,2,4
14:48:24:1151,3,4,17,-16,-1,-1,-1,-7
14:48:24:16833,-2,-8,-7,-10,-6,0,2,2
14:48:24:17685,-2,-8,-7,-10,-6,0,2,2
14:48:24:23650,0,-12,-32,-7,1,-1,1,6
14:48:24:31224,0,-4,-17,-12,-8,3,10,3
14:48:24:38720,0,-4,-17,-12,-8,3,10,3
14:48:24:46161,6,-16,-11,18,6,-2,-7,-2
14:48:24:54344,17,17,5,-3,2,3,1,2
14:48:24:55156,17,17,5,-3,2,3,1,2
14:48:24:61167,5,-16,-24,-11,-2,-3,-3,-1
14:48:24:76879,2,-7,-16,16,1,-2,-8,-4
14:48:24:77699,2,-7,-16,16,1,-2,-8,-4
14:48:24:83744,-19,-7,-37,-1,-3,0,-1,-5
14:48:24:91192,15,21,32,8,3,1,0,-1
14:48:24:98736,15,21,32,8,3,1,0,-1
14:48:24:106147,-1,36,17,-35,-4,-2,3,2
14:48:24:114359,-13,-28,8,20,11,-1,-8,-1
14:48:24:115183,-13,-28,8,20,11,-1,-8,-1
14:48:24:121211,7,5,-49,-15,-3,-2,-15,3
14:48:24:136830,-8,-5,38,-4,-11,-7,-2,-2
14:48:24:137683,-8,-5,38,-4,-11,-7,-2,-2
14:48:24:143725,-11,7,54,37,8,2,6,-1
14:48:24:151193,-13,-5,-42,-27,-12,2,8,5
14:48:24:158721,-13,-5,-42,-27,-12,2,8,5
14:48:24:166192,-35,-30,12,3,-2,-2,-8,-5
14:48:24:173717,3,-4,37,23,0,0,8,2
14:48:24:181917,3,-4,37,23,0,0,8,2
14:48:24:182699,-16,2,-1,-25,-20,-6,-6,-7
14:48:24:196882,15,-2,-7,-15,-1,-5,-18,2
14:48:24:197723,15,-2,-7,-15,-1,-5,-18,2
14:48:24:203720,24,9,9,19,6,-4,-13,-2
14:48:24:211179,17,9,1,-22,1,2,-6,-2
14:48:24:218723,17,9,1,-22,1,2,-6,-2
14:48:24:226172,-18,4,3,7,-2,-5,7,-3
14:48:24:234354,-2,-43,-41,-5,6,-2,-6,-3
14:48:24:235136,-2,-43,-41,-5,6,-2,-6,-3
14:48:24:241175,32,20,1,-13,-4,5,7,5
14:48:24:256824,-7,7,33,14,-8,-3,13,-5
14:48:24:257701,-7,7,33,14,-8,-3,13,-5
14:48:24:263732,-36,-27,-13,-7,-4,-1,2,-12
14:48:24:271177,-6,-9,-33,-35,-3,5,1,0
14:48:24:278723,-6,-9,-33,-35,-3,5,1,0
14:48:24:286123,-4,-19,-7,10,1,3,6,2
14:48:24:293762,-12,7,6,14,-9,-6,-9,-11
14:48:24:301847,-12,7,6,14,-9,-6,-9,-11
14:48:24:302694,-6,-3,8,-2,6,-1,-5,3
14:48:24:316815,25,16,-28,-15,2,-6,-8,1
14:48:24:317721,25,16,-28,-15,2,-6,-8,1
14:48:24:323654,10,7,-13,6,-2,-5,-8,0
14:48:24:339331,0,1,-4,6,0,0,1,8
14:48:24:340147,0,1,-4,6,0,0,1,8
14:48:24:346183,-12,22,16,1,-2,-1,8,-10
14:48:24:353702,-14,9,10,5,-2,-2,3,-12
14:48:24:361210,-14,9,10,5,-2,-2,3,-12
14:48:24:368644,22,8,8,3,0,7,8,4
14:48:24:376858,-13,6,4,2,0,-4,22,2
14:48:24:377711,-13,6,4,2,0,-4,22,2
14:48:24:383732,3,-2,6,10,1,-3,3,-1
14:48:24:399355,-7,-28,-14,5,-2,-3,-11,3
14:48:24:400177,-7,-28,-14,5,-2,-3,-11,3
14:48:24:406147,8,-14,-12,0,-6,-7,-9,3
14:48:24:413673,-16,3,1,6,8,1,-12,-4
14:48:24:421203,-16,3,1,6,8,1,-12,-4
14:48:24:428736,-40,-1,17,2,3,2,6,12
14:48:24:436898,0,25,19,-2,-2,-4,-38,-19
14:48:24:437739,0,25,19,-2,-2,-4,-38,-19
14:48:24:443724,13,5,2,2,0,-7,-21,2
14:48:24:459348,-3,-7,-10,-6,-5,-3,-38,-7
14:48:24:460175,-3,-7,-10,-6,-5,-3,-38,-7
14:48:24:466138,23,24,7,0,1,2,-2,3
14:48:24:473701,15,-3,-9,-2,2,3,26,8
14:48:24:481237,15,-3,-9,-2,2,3,26,8
14:48:24:488735,3,-5,-3,2,0,7,34,7
14:48:24:496893,31,16,-2,4,9,2,-1,4
14:48:24:497702,31,16,-2,4,9,2,-1,4
14:48:24:503712,-5,-13,5,0,6,6,11,-3
14:48:24:519368,-18,-29,7,-1,-11,-4,22,7
14:48:24:520211,-18,-29,7,-1,-11,-4,22,7
14:48:24:526161,-44,-5,-1,1,6,5,-15,2
14:48:24:533732,3,-6,-6,-1,2,1,19,7
14:48:24:541246,3,-6,-6,-1,2,1,19,7
14:48:24:548754,12,-12,-11,-6,-8,-11,1,14
14:48:24:556885,-12,-7,-9,-7,3,6,16,3
14:48:24:557705,-12,-7,-9,-7,3,6,16,3
14:48:24:563722,-19,1,0,-10,-12,-11,-15,-19
14:48:24:579391,20,-2,7,7,7,8,-5,-6
14:48:24:580224,20,-2,7,7,7,8,-5,-6
14:48:24:586190,-6,-31,-25,-4,-2,2,0,-25
14:48:24:593728,25,-2,-8,-3,-12,-4,-2,17
14:48:24:601202,25,-2,-8,-3,-12,-4,-2,17
14:48:24:608744,11,15,12,0,3,-3,-5,6
14:48:24:616851,-8,7,11,-1,-1,-3,-12,-10
14:48:24:617719,-8,7,11,-1,-1,-3,-12,-10
14:48:24:623668,5,4,-2,-2,0,-11,-7,-4
14:48:24:639339,-2,10,14,-3,-5,-3,-13,4
14:48:24:640147,-2,10,14,-3,-5,-3,-13,4
14:48:24:646188,28,-1,-5,0,-6,-4,-8,-1
14:48:24:653715,-10,-6,-1,-1,2,-6,-17,13
14:48:24:669393,-10,-6,-1,-1,2,-6,-17,13
14:48:24:670199,11,-3,-22,-18,-14,-11,-37,-24
14:48:24:676846,-24,-4,-8,-3,4,7,7,-8
14:48:24:677714,-24,-4,-8,-3,4,7,7,-8
14:48:24:683720,-2,10,13,8,16,9,21,-8
14:48:24:699397,-7,17,-3,-6,-7,-6,-3,-13
14:48:24:700204,-7,17,-3,-6,-7,-6,-3,-13
14:48:24:706211,16,-3,-6,0,-6,6,29,14
14:48:24:713729,12,-17,-5,-1,-3,-7,-7,3
14:48:24:721241,12,-17,-5,-1,-3,-7,-7,3
14:48:24:728740,6,-6,8,3,-2,4,-8,9
14:48:24:736839,-8,-1,-3,-5,-5,0,-13,-19
14:48:24:737739,-8,-1,-3,-5,-5,0,-13,-19
14:48:24:743634,1,-9,-10,-3,-1,-4,0,19
14:48:24:759382,2,1,-3,3,5,0,11,0
14:48:24:760183,2,1,-3,3,5,0,11,0
14:48:24:774350,-85,-5,2,-1,-7,3,-7,-14
14:48:24:775155,18,10,3,-4,-2,-6,16,37
14:48:24:781250,18,10,3,-4,-2,-6,16,37
14:48:24:788716,15,13,18,0,-5,-2,14,12
14:48:24:796858,-7,-26,-12,-2,-5,3,24,-17
14:48:24:797715,-7,-26,-12,-2,-5,3,24,-17
14:48:24:803730,24,-23,-5,0,2,0,17,12
14:48:24:819354,29,9,-1,-3,-3,-9,-33,11
14:48:24:820161,29,9,-1,-3,-3,-9,-33,11
14:48:24:826207,22,-10,-2,2,7,8,9,23
14:48:24:833735,-31,-25,-8,0,-3,3,43,-17
14:48:24:841205,-31,-25,-8,0,-3,3,43,-17
14:48:24:848713,-4,13,2,-1,3,4,-15,-7
14:48:24:856842,-11,-5,-10,-1,0,-2,-11,8
14:48:24:857712,-11,-5,-10,-1,0,-2,-11,8
14:48:24:863639,18,-1,-7,-2,0,-4,12,2
14:48:24:887593,18,-1,-7,-2,0,-4,12,2
14:48:24:888344,4,3,0,-4,1,1,-14,-5
14:48:24:889166,-17,2,0,1,-5,-5,-12,11
14:48:24:901887,-17,2,0,1,-5,-5,-12,11
14:48:24:902730,9,10,12,5,4,2,-28,28
14:48:24:908733,11,-12,-10,-3,-6,-6,2,-26
14:48:24:916910,11,-12,-10,-3,-6,-6,2,-26
14:48:24:917751,51,13,3,1,0,2,11,-2
14:48:24:923728,11,7,-1,-1,-2,-1,-29,7
14:48:24:939140,11,7,-1,-1,-2,-1,-29,7
14:48:24:946849,-21,-8,1,0,-3,0,-4,-34
14:48:24:947719,-59,4,2,-3,-8,-13,-28,-51
14:48:24:961893,-59,4,2,-3,-8,-13,-28,-51
14:48:24:962716,-10,2,-7,-1,-1,-2,-2,26
14:48:24:968763,-3,-2,-15,-1,9,6,1,19
14:48:24:976927,-3,-2,-15,-1,9,6,1,19
14:48:24:977724,-24,4,0,0,1,5,13,-21
14:48:24:983727,-40,3,3,4,1,1,-5,-32
14:48:25:7525,-40,3,3,4,1,1,-5,-32
14:48:25:8345,-2,-44,-14,-3,2,-1,-12,6
14:48:25:9133,54,24,9,1,-2,-4,-19,44
14:48:25:21840,54,24,9,1,-2,-4,-19,44
14:48:25:22710,-9,7,6,0,3,2,-5,-17
14:48:25:28702,-3,-8,-1,-3,9,4,-2,-8
14:48:25:36880,-3,-8,-1,-3,9,4,-2,-8
14:48:25:37713,-36,0,-4,-3,-27,-27,6,11
14:48:25:43654,39,11,-8,17,28,28,41,37
14:48:25:59360,39,11,-8,17,28,28,41,37
14:48:25:60165,-1,20,20,-8,1,-5,-30,-19
14:48:25:66194,-37,-33,-4,-7,-16,-11,-13,-36
14:48:25:81892,-37,-33,-4,-7,-16,-11,-13,-36
14:48:25:82725,14,-1,0,0,0,-3,-2,-5
14:48:25:88713,20,3,-2,-2,4,2,-21,-8
14:48:25:96870,20,3,-2,-2,4,2,-21,-8
14:48:25:97706,11,6,-2,-12,-3,-8,5,14
14:48:25:103752,-14,5,8,-3,-13,-11,12,-20
14:48:25:119334,-14,5,8,-3,-13,-11,12,-20
14:48:25:120145,10,8,2,9,6,13,21,4
14:48:25:126185,-23,-11,3,0,-2,-3,-16,3
14:48:25:141900,-23,-11,3,0,-2,-3,-16,3
14:48:25:142759,-34,-29,-22,-4,-2,15,3,4
14:48:25:148729,3,-1,6,-3,-6,-4,11,10
14:48:25:156857,3,-1,6,-3,-6,-4,11,10
14:48:25:157714,-8,-2,-7,4,5,8,7,-14
14:48:25:171166,-1,9,4,-3,-8,-10,-25,-43
14:48:25:179390,-1,9,4,-3,-8,-10,-25,-43
14:48:25:180204,17,-2,-4,-1,-1,3,16,19
14:48:25:186203,11,-1,8,-1,-1,7,30,4
14:48:25:201922,11,-1,8,-1,-1,7,30,4
14:48:25:202754,-1,17,-2,-4,-7,-10,-15,-22
14:48:25:208742,13,3,-7,-1,-1,-10,-22,-6
14:48:25:216903,13,3,-7,-1,-1,-10,-22,-6
14:48:25:217728,17,9,8,4,5,-1,-29,-3
14:48:25:223705,14,4,-5,-5,-2,8,24,8
14:48:25:239413,14,4,-5,-5,-2,8,24,8
14:48:25:240181,-4,-4,15,0,2,1,0,1
14:48:25:246169,-8,4,-7,-12,-2,-3,-6,-6
14:48:25:261852,-8,4,-7,-12,-2,-3,-6,-6
14:48:25:262734,-11,-4,1,-5,-7,-1,22,-16
14:48:25:268645,-15,-3,0,6,13,8,21,5
14:48:25:276922,-15,-3,0,6,13,8,21,5
14:48:25:277735,2,-1,-6,2,10,3,22,-7
14:48:25:291164,-49,-9,1,-3,-12,-7,11,-25
14:48:25:299394,-49,-9,1,-3,-12,-7,11,-25
14:48:25:300205,-5,-1,1,1,-4,0,-1,-6
14:48:25:306166,16,0,-2,-1,-4,-7,-4,13
14:48:25:321873,16,0,-2,-1,-4,-7,-4,13
14:48:25:322707,-51,-2,0,-2,-4,-8,-7,-19
14:48:25:328693,27,-9,-6,-1,-5,-2,-3,31
14:48:25:336905,27,-9,-6,-1,-5,-2,-3,31
14:48:25:337719,6,-4,-23,-5,-7,-1,-21,6
14:48:25:351176,4,2,6,8,9,7,-4,1
14:48:25:359384,4,2,6,8,9,7,-4,1
14:48:25:360200,-27,6,7,-1,-4,-4,7,9
14:48:25:366148,7,2,-6,0,2,1,18,-2
14:48:25:381898,7,2,-6,0,2,1,18,-2
14:48:25:382725,2,2,3,2,1,10,22,-8
14:48:25:388638,-5,-15,-2,-1,-5,-2,-1,-9
14:48:25:396875,-5,-15,-2,-1,-5,-2,-1,-9
14:48:25:397709,2,-1,-7,-2,3,0,-3,-4
14:48:25:411216,-2,25,8,-3,-5,-4,-10,6
14:48:25:419395,-2,25,8,-3,-5,-4,-10,6
14:48:25:420184,4,9,-4,0,8,0,-29,15
14:48:25:426140,35,0,-2,-5,-4,0,-10,4
14:48:25:441881,35,0,-2,-5,-4,0,-10,4
14:48:25:442733,37,-7,-1,0,3,-5,-4,22
14:48:25:448737,2,-2,-6,-2,-5,-10,-17,-9
14:48:25:456897,2,-2,-6,-2,-5,-10,-17,-9
14:48:25:457702,1,2,4,6,11,13,2,-1
14:48:25:471180,-1,-13,-5,-1,-2,10,32,-4
14:48:25:479364,-1,-13,-5,-1,-2,10,32,-4
14:48:25:480179,-8,-7,-15,-6,-7,-5,0,-14
14:48:25:486218,-24,3,1,-3,-7,1,34,8
14:48:25:501851,-24,3,1,-3,-7,1,34,8
14:48:25:502733,1,7,-1,3,-4,7,-4,-7
14:48:25:508756,0,-14,-14,1,6,2,-27,-10
14:48:25:516866,0,-14,-14,1,6,2,-27,-10
14:48:25:517712,-17,-6,4,-5,-12,-14,-11,-10
14:48:25:540021,-24,-17,-8,-7,1,-2,-7,6
14:48:25:540848,-24,-17,-8,-7,1,-2,-7,6
14:48:25:541700,25,4,4,1,-1,-4,5,4
14:48:25:546190,4,-10,1,2,0,-1,30,6
14:48:25:562349,4,-10,1,2,0,-1,30,6
14:48:25:563126,28,-11,3,-2,-4,-6,-8,12
14:48:25:568644,17,-9,-6,2,7,10,10,3
14:48:25:576887,17,-9,-6,2,7,10,10,3
14:48:25:577705,3,2,-2,3,0,1,24,-14
14:48:25:591147,-8,-13,-12,-1,-3,0,0,10
14:48:25:599397,-8,-13,-12,-1,-3,0,0,10
14:48:25:600199,-34,12,1,-2,8,2,-10,-10
14:48:25:606171,18,-3,4,-2,-5,0,27,3
14:48:25:621869,18,-3,4,-2,-5,0,27,3
14:48:25:622722,-7,-1,-1,0,6,3,-6,-3
14:48:25:628645,-11,7,4,0,-3,-11,-41,-3
14:48:25:636896,-11,7,4,0,-3,-11,-41,-3
14:48:25:637710,9,-17,-4,-6,-11,0,8,9
14:48:25:651217,-34,9,7,0,-4,-7,-8,-25
14:48:25:659388,-34,9,7,0,-4,-7,-8,-25
14:48:25:660191,-7,-5,-1,-4,-2,-8,-24,24
14:48:25:666142,11,-22,-2,-3,-9,-4,1,-9
14:48:25:681903,11,-22,-2,-3,-9,-4,1,-9
14:48:25:682710,-17,11,5,5,8,6,3,3
14:48:25:688654,-7,15,0,-3,-3,-7,-24,-12
14:48:25:696871,-7,15,0,-3,-3,-7,-24,-12
14:48:25:697723,8,-8,-7,-6,-10,-8,-15,-9
14:48:25:720037,1,5,4,0,2,-4,-26,-16
14:48:25:720812,1,5,4,0,2,-4,-26,-16
14:48:25:721610,-17,-2,-5,-3,-9,-9,11,-13
14:48:25:726169,10,13,13,0,-3,1,-10,26
14:48:25:741895,10,13,13,0,-3,1,-10,26
14:48:25:742704,12,-2,-13,-4,-3,2,14,19
14:48:25:748727,6,8,9,3,4,-2,-4,16
14:48:25:756863,6,8,9,3,4,-2,-4,16
14:48:25:757718,-9,3,5,3,1,1,8,-22
14:48:25:771190,0,5,-4,-2,0,-1,-37,-26
14:48:25:779399,0,5,-4,-2,0,-1,-37,-26
14:48:25:780182,6,1,-1,-3,3,0,-8,19
14:48:25:786187,33,3,-1,0,-2,-4,-3,-4
14:48:25:801910,33,3,-1,0,-2,-4,-3,-4
14:48:25:802714,-12,-9,7,1,-1,3,37,6
14:48:25:808725,-16,-25,-17,-1,7,12,61,7
14:48:25:816898,-16,-25,-17,-1,7,12,61,7
14:48:25:817720,-5,12,2,2,7,0,-9,-31
14:48:25:831155,-5,5,7,-2,-8,-3,18,8
14:48:25:839428,-5,5,7,-2,-8,-3,18,8
14:48:25:840179,22,0,6,2,3,0,-8,21
14:48:25:846164,-3,7,7,6,8,5,17,-2
14:48:25:861877,-3,7,7,6,8,5,17,-2
14:48:25:862714,6,5,2,-3,-11,-10,10,13
14:48:25:868645,2,-6,2,-3,-6,-8,-18,-2
14:48:25:876898,2,-6,2,-3,-6,-8,-18,-2
14:48:25:877704,11,-3,-1,-1,-2,-2,-22,-20
14:48:25:891157,1,-7,-3,0,-5,-2,-8,-3
14:48:25:899368,1,-7,-3,0,-5,-2,-8,-3
14:48:25:900206,6,-5,8,-1,-4,0,-12,-17
14:48:25:906150,-13,-1,-14,-5,-2,1,19,17
14:48:25:921880,-13,-1,-14,-5,-2,1,19,17
14:48:25:922720,8,1,-4,0,0,2,16,-4
14:48:25:928671,-43,-6,6,7,1,-2,-11,-26
14:48:25:936881,-43,-6,6,7,1,-2,-11,-26
14:48:25:937713,-1,1,-28,1,-2,-8,13,8
14:48:25:951147,-5,3,4,7,-1,-5,-12,2
14:48:25:959377,-5,3,4,7,-1,-5,-12,2
14:48:25:960161,10,-3,-7,-10,-1,-1,-13,6
14:48:25:966179,3,19,4,0,1,0,-10,8
14:48:25:981880,3,19,4,0,1,0,-10,8
14:48:25:982701,5,-14,4,2,3,0,-15,1
14:48:25:988648,20,-1,-14,-13,-7,6,22,17
14:48:25:996866,20,-1,-14,-13,-7,6,22,17
14:48:25:997725,-38,1,6,-1,-4,-12,-49,-15
14:48:26:11193,-13,-6,15,14,3,-1,-17,1
14:48:26:19392,-13,-6,15,14,3,-1,-17,1
14:48:26:20168,3,-21,-6,2,-1,-1,9,15
14:48:26:26136,0,-8,-25,-9,0,0,5,12
14:48:26:41856,0,-8,-25,-9,0,0,5,12
14:48:26:42696,-6,-11,-2,-3,-2,-5,-11,-30
14:48:26:48756,22,13,2,-5,0,4,0,-5
14:48:26:56882,22,13,2,-5,0,4,0,-5
14:48:26:57749,-19,-2,0,3,9,19,32,16
14:48:26:71170,-9,-2,-1,-12,-1,-4,-23,1
14:48:26:79395,-9,-2,-1,-12,-1,-4,-23,1
14:48:26:80192,-7,9,-5,1,-5,-5,-5,-9
14:48:26:86193,0,-5,-20,-14,0,-1,-8,-22
14:48:26:101883,0,-5,-20,-14,0,-1,-8,-22
14:48:26:102741,-15,4,0,1,0,8,28,-2
14:48:26:108762,26,0,7,11,3,-9,-55,-16
14:48:26:116912,26,0,7,11,3,-9,-55,-16
14:48:26:117734,12,6,8,3,-1,-7,0,8
14:48:26:131213,-21,-13,-6,3,-6,-10,11,17
14:48:26:139348,-21,-13,-6,3,-6,-10,11,17
14:48:26:140186,-15,-39,-6,-2,-3,2,1,-1
14:48:26:146199,31,1,7,14,1,2,-6,0
14:48:26:161923,31,1,7,14,1,2,-6,0
14:48:26:162711,8,10,-1,-4,-7,-3,18,-10
14:48:26:168726,-19,-11,-1,4,5,0,11,1
14:48:26:176858,-19,-11,-1,4,5,0,11,1
14:48:26:177714,-5,7,3,-6,2,3,-5,19
14:48:26:191163,-9,15,5,-7,-6,4,29,-9
14:48:26:199370,-9,15,5,-7,-6,4,29,-9
14:48:26:200146,-3,8,8,4,-1,-11,-26,-4
14:48:26:213674,-2,0,2,-13,0,-2,-2,0
14:48:26:221907,-2,0,2,-13,0,-2,-2,0
14:48:26:222781,9,4,15,7,7,13,15,0
14:48:26:228735,0,2,4,0,-6,-2,9,10
14:48:26:236198,0,2,4,0,-6,-2,9,10
14:48:26:243769,16,3,-4,-3,-4,-8,-16,-10
14:48:26:251189,1,4,9,8,3,2,5,-16
14:48:26:259383,1,4,9,8,3,2,5,-16
14:48:26:260174,28,-8,-12,6,-1,1,1,8
14:48:26:273786,7,-13,-5,4,-8,-1,6,-8
14:48:26:281856,7,-13,-5,4,-8,-1,6,-8
14:48:26:282707,-18,7,-5,-10,-11,-3,-7,-2
14:48:26:288721,12,-9,-28,-3,2,6,15,2
14:48:26:296177,12,-9,-28,-3,2,6,15,2
14:48:26:303644,25,5,17,12,-1,-3,12,-8
14:48:26:311186,3,13,19,7,0,-1,21,7
14:48:26:319391,3,13,19,7,0,-1,21,7
14:48:26:320188,4,-10,-13,-9,3,12,31,2
14:48:26:333771,-4,-3,-4,-6,-2,-2,-2,-40
14:48:26:341884,-4,-3,-4,-6,-2,-2,-2,-40
14:48:26:342728,9,-7,-2,-2,-3,-6,-10,3
14:48:26:348614,-33,-11,-13,-13,-4,-5,-8,6
14:48:26:356221,-33,-11,-13,-13,-4,-5,-8,6
14:48:26:363710,-1,28,-25,-19,5,7,-6,-10
14:48:26:371177,12,4,-16,-14,1,-2,-35,21
14:48:26:379368,12,4,-16,-14,1,-2,-35,21
14:48:26:380191,-22,6,11,2,-2,1,9,8
14:48:26:393629,-16,-13,-1,0,-2,-6,7,14
14:48:26:401882,-16,-13,-1,0,-2,-6,7,14
14:48:26:402735,7,0,2,0,-1,-4,-6,20
14:48:26:408725,20,10,10,4,1,8,-9,38
14:48:26:416250,20,10,10,4,1,8,-9,38
14:48:26:423646,2,-14,5,1,-2,0,0,-17
14:48:26:431175,-17,11,-5,-10,-1,7,19,-18
14:48:26:439430,-17,11,-5,-10,-1,7,19,-18
14:48:26:440203,-21,-4,3,-2,-2,-4,-5,-6
14:48:26:453644,-12,-3,5,-7,-13,3,-4,-23
14:48:26:461857,-12,-3,5,-7,-13,3,-4,-23
14:48:26:462715,10,-1,10,9,2,12,11,2
14:48:26:468677,-10,2,-4,6,0,-6,-3,10
14:48:26:476230,-10,2,-4,6,0,-6,-3,10
14:48:26:483726,-6,-5,2,1,3,6,16,8
14:48:26:491178,1,-4,9,4,-1,-8,-11,-30
14:48:26:499350,1,-4,9,4,-1,-8,-11,-30
14:48:26:500162,16,1,-10,-6,-7,-12,-2,11
14:48:26:513655,-39,-7,-26,-33,6,3,11,21
14:48:26:521909,-39,-7,-26,-33,6,3,11,21
14:48:26:522710,-8,-13,-20,-1,-2,-9,-19,-5
14:48:26:528726,11,-15,1,10,1,-2,-8,-3
14:48:26:536187,11,-15,1,10,1,-2,-8,-3
14:48:26:543729,-10,11,-3,-2,8,2,-1,-10
14:48:26:551177,13,-5,3,5,6,6,-8,-3
14:48:26:559355,13,-5,3,5,6,6,-8,-3
14:48:26:560166,-1,-10,-6,2,-6,-11,-9,25
14:48:26:573713,14,4,10,4,-4,3,1,3
14:48:26:581840,14,4,10,4,-4,3,1,3
14:48:26:582711,5,3,2,-1,1,-4,-26,-14
14:48:26:588721,20,-1,-1,6,-2,-8,-10,-15
14:48:26:596201,20,-1,-1,6,-2,-8,-10,-15
14:48:26:603620,-1,1,5,-8,-4,-1,-2,-3
14:48:26:611124,-7,8,8,-2,-2,3,-4,8
14:48:26:619365,-7,8,8,-2,-2,3,-4,8
14:48:26:620181,-46,9,-7,-6,-4,6,29,-28
14:48:26:633731,7,4,-10,-1,-1,-9,-1,22
14:48:26:641866,7,4,-10,-1,-1,-9,-1,22
14:48:26:642717,-13,8,18,2,3,1,22,-8
14:48:26:648674,-22,1,19,8,2,-7,-10,-22
14:48:26:656240,-22,1,19,8,2,-7,-10,-22
14:48:26:671884,-8,-1,8,4,-1,-6,-11,19
14:48:26:672740,-21,4,4,0,-2,-2,0,-25
14:48:26:679373,-21,4,4,0,-2,-2,0,-25
14:48:26:680183,5,-9,8,-2,-8,-7,-16,-4
14:48:26:693746,-8,-11,0,-4,4,-1,-18,11
14:48:26:701894,-8,-11,0,-4,4,-1,-18,11
14:48:26:702768,-4,-1,-9,1,2,-1,-27,-9
14:48:26:716882,23,3,-1,4,-3,-4,13,21
14:48:26:717732,23,3,-1,4,-3,-4,13,21
14:48:26:723738,45,11,8,3,-1,12,34,16
14:48:26:731179,21,22,-16,-3,-4,-1,8,-2
14:48:26:739384,21,22,-16,-3,-4,-1,8,-2
14:48:26:740157,-4,-1,-4,1,-5,-12,-27,-9
14:48:26:753754,7,1,-13,-11,0,-4,7,14
14:48:26:761952,7,1,-13,-11,0,-4,7,14
14:48:26:762765,-15,-6,-8,-2,5,-1,6,-24
14:48:26:768754,3,-11,0,3,1,4,21,2
14:48:26:776227,3,-11,0,3,1,4,21,2
14:48:26:783721,-12,-11,10,3,-3,-5,-10,14
14:48:26:791175,-4,-18,4,-1,-3,-5,-22,-19
14:48:26:799752,-4,-18,4,-1,-3,-5,-22,-19
14:48:26:806177,-14,-2,-3,1,-3,1,-2,5
14:48:26:813623,-10,3,3,5,0,-5,-20,17
14:48:26:830005,-10,3,3,5,0,-5,-20,17
14:48:26:830863,5,5,-16,-12,-3,-9,-18,18
14:48:26:831610,-13,-15,3,3,-4,-2,14,-4
14:48:26:836218,-13,-15,3,3,-4,-2,14,-4
14:48:26:843659,16,8,3,8,14,9,-2,-8
14:48:26:860036,15,6,6,7,2,11,6,11
14:48:26:860839,15,6,6,7,2,11,6,11
14:48:26:861628,29,-12,-6,-1,-12,-7,-5,10
14:48:26:873657,-27,-18,-2,4,1,3,-3,-41
14:48:26:881893,-27,-18,-2,4,1,3,-3,-41
14:48:26:882712,-6,-5,-25,-10,-4,4,3,-23
14:48:26:888717,-2,9,9,10,-3,-9,-4,23
14:48:26:896220,-2,9,9,10,-3,-9,-4,23
14:48:26:911865,16,-3,1,3,13,-1,-6,-11
14:48:26:912636,0,3,-6,-5,1,11,2,0
14:48:26:919403,0,3,-6,-5,1,11,2,0
14:48:26:920212,7,3,12,-3,-12,-12,0,-9
14:48:26:933668,26,3,7,1,-4,2,12,-3
14:48:26:941868,26,3,7,1,-4,2,12,-3
14:48:26:942724,-42,-2,-6,-11,-7,-7,0,-44
14:48:26:948742,2,3,-6,-18,-11,-4,5,-7
14:48:26:956271,2,3,-6,-18,-11,-4,5,-7
14:48:26:963737,-28,-5,7,4,-1,5,19,11
14:48:26:971189,-38,-10,-32,-22,-2,2,13,-18
14:48:26:979398,-38,-10,-32,-22,-2,2,13,-18
14:48:26:980153,-11,-1,2,7,0,-3,-21,1
14:48:26:993739,-17,2,8,12,11,5,18,-11
14:48:27:1877,-17,2,8,12,11,5,18,-11
14:48:27:2734,2,-4,-4,-5,-5,-8,-23,2
14:48:27:8786,28,7,10,1,4,0,15,12
14:48:27:16287,28,7,10,1,4,0,15,12
14:48:27:23652,9,7,-1,-5,-3,3,-4,16
14:48:27:31208,-24,-3,-3,0,-8,-14,0,-13
14:48:27:39364,-24,-3,-3,0,-8,-14,0,-13
14:48:27:40207,-10,-1,2,0,-1,-4,13,-53
14:48:27:53735,-3,-2,-5,-5,-8,-9,11,12
14:48:27:61866,-3,-2,-5,-5,-8,-9,11,12
14:48:27:62731,-18,-5,-7,-2,9,-2,-31,2
14:48:27:68749,30,-3,-10,-17,-5,-9,-54,-30
14:48:27:76197,30,-3,-10,-17,-5,-9,-54,-30
14:48:27:83639,20,0,-1,-1,-4,5,30,24
14:48:27:91137,-4,0,4,8,2,24,-3,31
14:48:27:99388,-4,0,4,8,2,24,-3,31
14:48:27:100174,26,0,0,0,-1,12,24,11
14:48:27:113650,-27,0,1,0,1,-4,-6,-7
14:48:27:121891,-27,0,1,0,1,-4,-6,-7
14:48:27:122737,-9,1,1,0,-3,-2,13,9
14:48:27:136859,20,1,-2,1,0,-11,-9,11
14:48:27:137736,20,1,-2,1,0,-11,-9,11
14:48:27:143644,-7,-7,-12,-13,-7,-3,-2,7
14:48:27:151160,-23,-9,0,2,4,2,-4,-11
14:48:27:158772,-23,-9,0,2,4,2,-4,-11
14:48:27:166189,4,2,-11,-3,-13,-9,-3,-5
14:48:27:173697,-4,-3,-3,3,-1,0,26,11
14:48:27:181868,-4,-3,-3,3,-1,0,26,11
14:48:27:182742,-4,-6,-4,-9,6,2,-21,15
14:48:27:196890,-16,1,12,13,-5,-1,-21,5
14:48:27:197729,-16,1,12,13,-5,-1,-21,5
14:48:27:203668,15,-7,5,5,2,-8,-12,1
14:48:27:211197,17,-14,-7,-11,-1,1,15,-23
14:48:27:218789,17,-14,-7,-11,-1,1,15,-23
14:48:27:226162,12,5,3,4,4,2,-19,21
14:48:27:233674,13,8,-8,-2,-2,-3,6,29
14:48:27:241915,13,8,-8,-2,-2,-3,6,29
14:48:27:242741,30,1,3,2,-4,-2,11,8
14:48:27:256878,9,-8,3,-2,2,5,20,0
14:48:27:257765,9,-8,3,-2,2,5,20,0
14:48:27:263673,0,-6,10,8,-2,-1,7,6
14:48:27:271172,-4,2,-7,5,1,-1,-26,-11
14:48:27:278717,-4,2,-7,5,1,-1,-26,-11
14:48:27:286193,-15,0,1,0,-2,-10,-12,-8
14:48:27:293703,10,6,3,2,9,0,-14,9
14:48:27:301895,10,6,3,2,9,0,-14,9
14:48:27:302725,-20,-7,-20,0,2,7,53,-6
14:48:27:316867,15,0,-5,-3,-9,2,-19,8
14:48:27:317730,15,0,-5,-3,-9,2,-19,8
14:48:27:323764,3,6,15,8,0,3,-22,-25
14:48:27:331230,-7,0,-1,-4,-2,-4,-11,4
14:48:27:338763,-7,0,-1,-4,-2,-4,-11,4
14:48:27:346207,-25,-9,-3,-4,-2,4,0,9
14:48:27:353755,30,-1,2,-4,-2,-7,-3,-22
14:48:27:361881,30,-1,2,-4,-2,-7,-3,-22
14:48:27:362762,-4,7,7,4,3,0,-1,3
14:48:27:376878,-8,3,6,1,6,10,7,1
14:48:27:377731,-8,3,6,1,6,10,7,1
14:48:27:383755,19,-13,3,0,4,-1,15,-7
14:48:27:391221,-18,1,8,8,4,7,-7,-12
14:48:27:398746,-18,1,8,8,4,7,-7,-12
14:48:27:406141,-11,7,4,-1,-2,2,-9,-18
14:48:27:413679,-39,2,-6,-6,-2,-1,-4,-40
14:48:27:421870,-39,2,-6,-6,-2,-1,-4,-40
14:48:27:422756,7,3,-2,-5,-3,2,1,-2
14:48:27:436858,17,8,-7,-4,-8,-8,5,4
14:48:27:437736,17,8,-7,-4,-8,-8,5,4
14:48:27:443663,6,-1,-9,-4,-5,-4,-20,-11
14:48:27:451142,14,3,1,6,-6,-1,0,18
14:48:27:458751,14,3,1,6,-6,-1,0,18
14:48:27:466185,-3,-2,-8,-2,4,-5,-18,0
14:48:27:473655,-10,-5,5,-13,4,-2,-15,0
14:48:27:481879,-10,-5,5,-13,4,-2,-15,0
14:48:27:482732,-12,13,-2,-4,-2,-8,-6,-24
14:48:27:496898,-4,-3,-9,-3,-1,2,1,-4
14:48:27:497740,-4,-3,-9,-3,-1,2,1,-4
14:48:27:503655,-12,0,16,9,2,8,20,9
14:48:27:511163,-28,4,8,6,-3,-3,16,4
14:48:27:518733,-28,4,8,6,-3,-3,16,4
14:48:27:526139,5,-9,-28,-14,1,0,1,-8
14:48:27:533656,-15,-15,-17,-6,-8,-13,-33,4
14:48:27:541888,-15,-15,-17,-6,-8,-13,-33,4
14:48:27:542728,-32,-20,1,2,2,-5,-10,-3
14:48:27:556859,15,4,-7,-5,-8,-11,-30,-22
14:48:27:557765,15,4,-7,-5,-8,-11,-30,-22
14:48:27:563684,3,0,1,-1,7,8,-29,-10
14:48:27:571170,3,3,6,2,0,3,5,-4
14:48:27:578745,3,3,6,2,0,3,5,-4
14:48:27:586182,15,-8,5,2,-10,-11,1,26
14:48:27:593661,44,-10,-2,-1,-3,-7,-31,12
14:48:27:601661,44,-10,-2,-1,-3,-7,-31,12
14:48:27:608787,9,4,-6,-7,-9,-3,10,11
14:48:27:616854,-15,0,5,5,10,4,9,-10
14:48:27:617757,-15,0,5,5,10,4,9,-10
14:48:27:623680,34,12,1,1,6,3,11,18
14:48:27:631177,8,2,-3,-7,0,4,11,13
14:48:27:638743,8,2,-3,-7,0,4,11,13
14:48:27:646138,-21,-3,-5,-5,-10,-7,12,4
14:48:27:653642,1,3,2,-3,-11,-9,18,9
14:48:27:661915,1,3,2,-3,-11,-9,18,9
14:48:27:662728,-26,-4,1,2,11,7,-9,-2
14:48:27:676887,-15,2,0,1,4,0,40,7
14:48:27:677735,-15,2,0,1,4,0,40,7
14:48:27:683669,-11,-10,0,-1,-1,0,5,2
14:48:27:691146,-9,-3,-6,4,3,7,13,-5
14:48:27:698759,-9,-3,-6,4,3,7,13,-5
14:48:27:706151,24,13,5,-5,-3,-5,6,20
14:48:27:713663,-38,15,-4,-4,-7,-9,-32,-30
14:48:27:721878,-38,15,-4,-4,-7,-9,-32,-30
14:48:27:722711,8,-3,-7,3,-3,-2,-3,9
14:48:27:736868,6,-16,-5,-4,-2,9,-9,-19
14:48:27:737722,6,-16,-5,-4,-2,9,-9,-19
14:48:27:743676,-1,7,1,1,8,-1,-18,-31
14:48:27:751158,2,-3,-10,-3,1,2,15,24
14:48:27:758735,2,-3,-10,-3,1,2,15,24
14:48:27:766167,3,-7,-2,-3,-2,0,3,-11
14:48:27:773659,4,20,-12,-20,-1,0,-8,-2
14:48:27:781833,4,20,-12,-20,-1,0,-8,-2
14:48:27:782717,6,11,11,-1,-3,-6,9,-5
14:48:27:796873,-1,-10,12,6,-4,-10,-16,-9
14:48:27:797719,-1,-10,12,6,-4,-10,-16,-9
14:48:27:803653,29,17,10,0,0,11,0,-8
14:48:27:811143,-16,-14,-3,6,3,-6,3,8
14:48:27:826918,-16,-14,-3,6,3,-6,3,8
14:48:27:827726,-2,-2,-1,2,-4,2,-4,23
14:48:27:833667,-3,14,15,1,-6,2,13,8
14:48:27:841893,-3,14,15,1,-6,2,13,8
14:48:27:842708,-28,-1,-19,-15,-9,-10,-15,-30
14:48:27:856868,8,-17,-19,-1,0,2,20,21
14:48:27:857742,8,-17,-19,-1,0,2,20,21
14:48:27:863668,5,-25,-1,4,-7,-8,-14,6
14:48:27:871185,4,-5,-8,-2,2,0,13,14
14:48:27:878750,4,-5,-8,-2,2,0,13,14
14:48:27:886194,12,-31,8,9,0,-1,-22,-26
14:48:27:893676,4,-10,7,-3,-6,-1,-4,-13
14:48:27:901865,4,-10,7,-3,-6,-1,-4,-13
14:48:27:902750,-20,15,0,-5,2,-3,-7,-1
14:48:27:916909,8,2,7,1,-3,-2,2,-10
14:48:27:917735,8,2,7,1,-3,-2,2,-10
14:48:27:923738,-8,-6,4,2,1,3,20,15
14:48:27:931178,8,3,-2,2,-1,0,-23,-66
14:48:27:938752,8,3,-2,2,-1,0,-23,-66
14:48:27:946185,-11,3,-3,0,2,-1,-21,-68
14:48:27:953765,3,6,9,1,1,1,-16,-6
14:48:27:961892,3,6,9,1,1,1,-16,-6
14:48:27:962739,17,-9,-4,-1,-2,2,11,33
14:48:27:976868,6,-1,-3,0,4,0,-2,19
14:48:27:977770,6,-1,-3,0,4,0,-2,19
14:48:27:983722,-10,-2,-7,-1,-3,-3,3,17
14:48:27:991182,-16,-4,-4,0,-3,-5,4,20
14:48:27:998754,-16,-4,-4,0,-3,-5,4,20
14:48:28:6125,-6,6,-33,-7,3,1,-4,4
14:48:28:13640,8,2,-1,-1,-2,-4,-13,-32
14:48:28:21854,8,2,-1,-1,-2,-4,-13,-32
14:48:28:22725,2,21,11,1,-6,1,17,16
14:48:28:36850,-9,-30,-16,-6,-2,-5,2,11
14:48:28:37752,-9,-30,-16,-6,-2,-5,2,11
14:48:28:43623,2,9,3,1,3,2,10,12
14:48:28:51139,8,6,18,0,-3,3,12,22
14:48:28:58740,8,6,18,0,-3,3,12,22
14:48:28:66146,-31,-57,-8,-4,-9,-7,-16,-25
14:48:28:73631,-5,0,3,5,-1,1,13,33
14:48:28:81886,-5,0,3,5,-1,1,13,33
14:48:28:82757,5,-16,-12,-15,0,2,5,-11
14:48:28:96862,-1,-17,-4,2,4,3,11,18
14:48:28:97735,-1,-17,-4,2,4,3,11,18
14:48:28:103702,10,27,10,3,-2,0,3,15
14:48:28:119384,-10,-30,3,-3,2,-1,-14,-31
14:48:28:120180,-10,-30,3,-3,2,-1,-14,-31
14:48:28:126113,21,20,13,-1,-10,-2,5,7
14:48:28:133649,-20,30,4,0,-7,-4,-12,-35
14:48:28:141225,-20,30,4,0,-7,-4,-12,-35
14:48:28:157533,11,-4,10,-7,5,2,4,12
14:48:28:158323,7,24,11,5,-2,-1,-3,-9
14:48:28:159171,7,24,11,5,-2,-1,-3,-9
14:48:28:163669,-10,11,1,10,-4,-3,-9,-24
14:48:28:179366,8,14,-10,1,4,2,-4,4
14:48:28:180162,8,14,-10,1,4,2,-4,4
14:48:28:186154,-6,23,12,32,4,2,11,22
14:48:28:193647,-19,-6,-6,-39,-17,-5,-6,-34
14:48:28:201220,-19,-6,-6,-39,-17,-5,-6,-34
14:48:28:208671,-3,4,-12,6,6,3,0,-3
14:48:28:225010,8,-22,-4,4,0,-2,-1,21
14:48:28:225850,8,-22,-4,4,0,-2,-1,21
14:48:28:226650,-6,-9,-8,10,0,-3,8,20
14:48:28:247527,4,-1,12,15,6,3,-2,-5
14:48:28:248370,4,-1,12,15,6,3,-2,-5
14:48:28:249162,-8,-8,-7,-3,-2,-4,-11,-16
14:48:28:253680,11,13,-11,20,0,-3,3,11
14:48:28:261273,11,13,-11,20,0,-3,3,11
14:48:28:268704,-11,-10,1,-13,2,1,-1,-9
14:48:28:276871,26,37,12,-6,3,1,1,10
14:48:28:277754,26,37,12,-6,3,1,1,10
14:48:28:283752,-7,-17,0,-14,-5,2,5,14
14:48:28:299411,5,-22,-17,-4,2,-2,-6,-12
14:48:28:300225,5,-22,-17,-4,2,-2,-6,-12
14:48:28:306161,-22,-8,-5,13,-3,-4,-5,-7
14:48:28:313678,-41,-30,-2,1,-4,-4,-5,-23
14:48:28:329412,-41,-30,-2,1,-4,-4,-5,-23
14:48:28:330206,3,19,3,-2,3,0,-8,-32
14:48:28:336887,-1,9,11,-13,-4,3,7,22
14:48:28:337751,-1,9,11,-13,-4,3,7,22
14:48:28:343693,4,6,3,-13,-10,-4,-5,-13
14:48:28:359387,3,19,0,-1,2,-1,-15,-32
14:48:28:360176,3,19,0,-1,2,-1,-15,-32
14:48:28:366197,-18,-17,13,5,-8,-2,1,25
14:48:28:381929,-7,-16,-16,0,-4,-1,-5,5
14:48:28:382769,-7,-16,-16,0,-4,-1,-5,5
14:48:28:388667,28,-9,-12,-31,10,2,7,11
14:48:28:396901,2,28,16,18,2,-1,10,17
14:48:28:397734,2,28,16,18,2,-1,10,17
14:48:28:403666,-17,-12,-15,-39,-8,-2,-1,10
14:48:28:419389,15,-26,-3,-21,-6,-2,2,11
14:48:28:420224,15,-26,-3,-21,-6,-2,2,11
14:48:28:426209,1,-10,-13,24,6,-1,-7,-25
14:48:28:433683,-18,11,-13,-3,-4,-3,-21,-35
14:48:28:441278,-18,11,-13,-3,-4,-3,-21,-35
14:48:28:448661,-63,4,-5,-22,-9,-1,10,24
14:48:28:456824,25,-2,8,18,6,1,1,14
14:48:28:457748,25,-2,8,18,6,1,1,14
14:48:28:463752,23,-11,-11,18,2,2,-1,6
14:48:28:479393,8,-31,-35,-32,6,2,14,33
14:48:28:480239,8,-31,-35,-32,6,2,14,33
14:48:28:486194,15,25,22,15,20,2,6,7
14:48:28:493688,-20,6,13,15,-11,-4,-19,-59
14:48:28:501198,-20,6,13,15,-11,-4,-19,-59
14:48:28:508750,29,12,5,-11,-10,-3,-13,-19
14:48:28:516838,-26,-23,15,5,8,2,11,12
14:48:28:517746,-26,-23,15,5,8,2,11,12
14:48:28:523668,9,27,14,16,5,0,-1,-24
14:48:28:539333,-14,-18,-26,-8,-9,1,-1,-16
14:48:28:540178,-14,-18,-26,-8,-9,1,-1,-16
14:48:28:546225,46,-10,-23,-7,-8,2,3,18
14:48:28:553739,33,13,-11,-53,-8,0,2,11
14:48:28:561183,33,13,-11,-53,-8,0,2,11
14:48:28:568680,-27,-44,-17,-9,5,1,3,7
14:48:28:576877,8,46,-9,29,11,1,9,17
14:48:28:577774,8,46,-9,29,11,1,9,17
14:48:28:583668,-24,-3,13,52,4,-4,-11,-25
14:48:28:599384,-30,-15,-1,-20,-11,2,13,30
14:48:28:600176,-30,-15,-1,-20,-11,2,13,30
14:48:28:606147,-10,11,14,-20,10,1,-2,2
14:48:28:621877,12,12,5,1,-21,-11,-7,-11
14:48:28:622741,12,12,5,1,-21,-11,-7,-11
14:48:28:628765,0,12,9,-3,-1,4,3,-1
14:48:28:636852,6,-16,13,3,16,3,11,42
14:48:28:637763,6,-16,13,3,16,3,11,42
14:48:28:643656,-10,-41,-26,-23,-14,-1,-2,-2
14:48:28:659376,-3,22,17,29,7,-3,-10,-19
14:48:28:660170,-3,22,17,29,7,-3,-10,-19
14:48:28:666213,23,20,-15,-16,2,-1,-6,0
14:48:28:673802,-12,-40,-17,15,-8,-1,2,4
14:48:28:681220,-12,-40,-17,15,-8,-1,2,4
14:48:28:688703,-15,17,-17,-4,-3,-2,1,-1
14:48:28:696867,-26,-15,19,-5,-6,-7,-11,-26
14:48:28:697754,-26,-15,19,-5,-6,-7,-11,-26
14:48:28:703674,-2,-22,-27,11,3,0,0,-1
14:48:28:719368,6,26,-1,6,-2,1,-1,-1
14:48:28:720208,6,26,-1,6,-2,1,-1,-1
14:48:28:726178,19,-43,32,7,-12,-12,-15,-16
14:48:28:733638,25,-16,0,-33,6,2,7,10
14:48:28:741220,25,-16,0,-33,6,2,7,10
14:48:28:748650,-3,31,9,1,-2,0,0,11
14:48:28:756878,2,19,11,-26,-7,-3,3,6
14:48:28:757758,2,19,11,-26,-7,-3,3,6
14:48:28:763680,-7,11,11,14,-1,1,1,4
14:48:28:779365,-19,-9,-38,4,2,1,1,4
14:48:28:780195,-19,-9,-38,4,2,1,1,4
14:48:28:786189,-6,31,22,-6,-12,-7,-17,-30
14:48:28:793669,-16,-35,3,35,7,-5,-18,-41
14:48:28:801226,-16,-35,3,35,7,-5,-18,-41
14:48:28:808667,-4,-15,-11,-11,-4,2,9,21
14:48:28:816903,-4,-15,-11,-11,-4,2,9,21
14:48:28:817742,0,-2,6,-21,25,6,4,6
14:48:28:823679,-33,-33,-32,-8,1,3,6,15
14:48:28:839416,-33,-33,-32,-8,1,3,6,15
14:48:28:840193,5,-3,12,24,-9,-1,6,16
14:48:28:846172,1,-9,-2,23,6,4,10,15
14:48:28:861901,1,-9,-2,23,6,4,10,15
14:48:28:862737,36,-8,-17,7,9,3,8,19
14:48:28:868660,33,10,11,11,-14,-6,-8,-23
14:48:28:876916,33,10,11,11,-14,-6,-8,-23
14:48:28:877744,15,47,36,77,5,0,3,7
14:48:28:883655,-7,-29,-37,9,-6,-9,-18,-16
14:48:28:899376,-7,-29,-37,9,-6,-9,-18,-16
14:48:28:900213,-31,-24,-30,-12,12,0,-16,-35
14:48:28:906166,15,47,40,-4,-11,-6,-1,13
14:48:28:921872,15,47,40,-4,-11,-6,-1,13
14:48:28:922760,21,22,4,-42,-19,-6,-2,-10
14:48:28:928646,-4,-30,6,15,28,6,8,1
14:48:28:936895,-4,-30,6,15,28,6,8,1
14:48:28:937748,-17,8,-11,-32,-13,2,2,5
14:48:28:943657,21,0,-20,-9,-4,-9,-7,-6
14:48:28:959397,21,0,-20,-9,-4,-9,-7,-6
14:48:28:960175,-55,-111,-39,0,1,0,-17,-55
14:48:28:966158,-10,-26,-35,-8,-6,-1,9,10
14:48:28:981948,-10,-26,-35,-8,-6,-1,9,10
14:48:28:982754,18,11,-17,-51,-20,-1,-2,-4
14:48:28:988701,-25,-27,-32,-7,13,3,-2,-13
14:48:28:996883,-25,-27,-32,-7,13,3,-2,-13
14:48:28:997758,19,-6,-46,-13,-17,-4,5,35
14:48:29:3653,-2,21,33,14,1,1,-6,-22
14:48:29:19432,-2,21,33,14,1,1,-6,-22
14:48:29:20171,11,3,18,7,-7,-7,-11,-16
14:48:29:26158,-13,-19,2,-5,3,4,4,11
14:48:29:50096,-13,-19,2,-5,3,4,4,11
14:48:29:50886,0,55,51,33,26,13,16,17
14:48:29:51771,15,31,50,-24,-8,-1,-3,-6
14:48:29:56896,15,31,50,-24,-8,-1,-3,-6
14:48:29:57662,11,16,27,27,-3,-2,-3,10
14:48:29:71165,20,80,17,-20,14,3,8,13
14:48:29:79396,20,80,17,-20,14,3,8,13
14:48:29:80207,-30,-23,-6,-3,-5,-9,-23,-30
14:48:29:86179,-9,45,52,1,-16,-1,1,13
14:48:29:101906,-9,45,52,1,-16,-1,1,13
14:48:29:102843,-17,31,-12,0,-3,0,4,10
14:48:29:108669,35,29,-9,-18,-10,-1,2,10
14:48:29:116906,35,29,-9,-18,-10,-1,2,10
14:48:29:117748,-11,-6,-15,-17,-19,-7,-3,11
14:48:29:131183,-5,25,-8,3,-11,-2,5,9
14:48:29:139429,-5,25,-8,3,-11,-2,5,9
14:48:29:140235,-15,63,36,-17,-10,-9,-14,-26
14:48:29:146190,47,-18,12,11,-2,-2,-3,-10
14:48:29:162385,47,-18,12,11,-2,-2,-3,-10
14:48:29:163183,5,-68,-18,-38,1,0,11,20
14:48:29:168644,-28,-10,32,2,2,2,-9,-10
14:48:29:176925,-28,-10,32,2,2,2,-9,-10
14:48:29:177753,-9,-6,-8,2,6,0,-4,-16
14:48:29:191162,5,-29,-7,20,-4,-3,5,23
14:48:29:199385,5,-29,-7,20,-4,-3,5,23
14:48:29:200193,18,4,-39,4,18,0,5,12
14:48:29:206183,-9,1,-24,16,8,1,-1,-11
14:48:29:221906,-9,1,-24,16,8,1,-1,-11
14:48:29:222784,13,38,17,29,12,3,11,28
14:48:29:228669,-13,-78,-40,-34,0,2,8,11
14:48:29:236902,-13,-78,-40,-34,0,2,8,11
14:48:29:237738,-15,-41,26,23,-5,-4,-4,-26
14:48:29:251184,-21,-18,-10,-9,9,3,-10,-12
14:48:29:259399,-21,-18,-10,-9,9,3,-10,-12
14:48:29:260199,-10,18,23,25,6,0,1,13
14:48:29:266154,-37,-16,-14,-17,1,-5,-3,-3
14:48:29:281900,-37,-16,-14,-17,1,-5,-3,-3
14:48:29:282765,29,51,20,-2,-7,-2,6,17
14:48:29:288662,-22,38,4,17,1,-4,1,-1
14:48:29:296915,-22,38,4,17,1,-4,1,-1
14:48:29:297760,24,-44,1,-9,-6,-3,-6,-28
14:48:29:311146,13,-10,-24,-38,-14,-2,-5,-3
14:48:29:319382,13,-10,-24,-38,-14,-2,-5,-3
14:48:29:320185,-5,5,-17,-13,-5,1,0,-1
14:48:29:326143,3,-44,-16,-21,-2,-1,-8,-22
14:48:29:341892,3,-44,-16,-21,-2,-1,-8,-22
14:48:29:342763,34,-28,-14,-12,3,-2,-10,8
14:48:29:348625,4,27,26,23,2,2,7,13
14:48:29:356879,4,27,26,23,2,2,7,13
14:48:29:357753,-24,-19,11,25,12,6,2,-6
14:48:29:371190,8,-8,-41,-24,-6,-1,-3,-11
14:48:29:379349,8,-8,-41,-24,-6,-1,-3,-11
14:48:29:380181,1,39,2,13,9,3,4,11
14:48:29:386193,-18,-53,-26,0,1,1,3,5
14:48:29:401868,-18,-53,-26,0,1,1,3,5
14:48:29:402651,19,-28,-38,-31,-17,-3,2,-9
14:48:29:408782,-14,23,5,2,-13,-1,2,1
14:48:29:416887,-14,23,5,2,-13,-1,2,1
14:48:29:417761,-28,-13,4,8,-3,0,11,31
14:48:29:431191,15,62,57,52,4,-11,-20,-60
14:48:29:439363,15,62,57,52,4,-11,-20,-60
14:48:29:440189,0,-46,-5,3,10,5,8,9
14:48:29:446202,15,-10,-11,2,4,-1,5,15
14:48:29:461852,15,-10,-11,2,4,-1,5,15
14:48:29:462657,7,-39,-7,30,3,-4,-6,-12
14:48:29:468671,0,4,-13,6,4,-4,-3,-2
14:48:29:476856,0,4,-13,6,4,-4,-3,-2
14:48:29:477778,-19,7,-10,9,-4,-1,4,20
14:48:29:491188,12,13,-13,12,9,-2,-10,-24
14:48:29:499349,12,13,-13,12,9,-2,-10,-24
14:48:29:500143,1,21,16,-22,-16,0,-5,-11
14:48:29:506179,24,17,28,-2,1,7,19,37
14:48:29:521916,24,17,28,-2,1,7,19,37
14:48:29:522767,3,28,-15,-11,-1,1,-8,-14
14:48:29:528709,-5,9,23,4,-6,6,5,8
14:48:29:536871,-5,9,23,4,-6,6,5,8
