Time,EMG1,EMG2,EMG3,EMG4,EMG5,EMG6,EMG7,EMG8
17:35:08:794023,1,-2,0,0,-2,-1,-1,-1
17:35:08:794822,1,-2,0,0,-2,-1,-1,-1
17:35:08:808350,0,1,-1,-1,-2,0,1,0
17:35:08:816495,-1,-2,-1,0,0,-1,-1,-1
17:35:08:817300,-1,-2,-1,0,0,-1,-1,-1
17:35:08:823367,-1,-1,-2,-1,0,0,-2,-2
17:35:08:830865,-1,0,-1,-1,-1,1,-1,-2
17:35:08:838384,-1,0,-1,-1,-1,1,-1,-2
17:35:08:845843,-1,-1,-2,-1,-2,0,-1,-2
17:35:08:854044,0,0,-2,0,-1,-1,-1,-1
17:35:08:854846,0,0,-2,0,-1,-1,-1,-1
17:35:08:860811,-1,0,-1,-2,-1,-2,-1,-1
17:35:08:876518,-1,-1,-1,-1,-1,-3,0,-2
17:35:08:877337,-1,-1,-1,-1,-1,-3,0,-2
17:35:08:883302,-1,-1,0,-1,-1,0,1,-1
17:35:08:890861,-2,-1,0,-2,-1,-1,-2,0
17:35:08:898393,-2,-1,0,-2,-1,-1,-2,0
17:35:08:905830,-1,0,-1,-1,-1,-1,0,-1
17:35:08:914019,-2,0,-2,-2,-1,0,-3,-1
17:35:08:914868,-2,0,-2,-2,-1,0,-3,-1
17:35:08:928353,1,-2,0,-1,-1,1,-1,0
17:35:08:936532,-2,-2,-2,-1,-3,-2,-2,0
17:35:08:937366,-2,-2,-2,-1,-3,-2,-2,0
17:35:08:943276,-1,-1,-1,-1,0,-1,0,-3
17:35:08:950832,-1,-1,-1,-2,-1,0,-1,-1
17:35:08:966546,-1,-1,-1,-2,-1,0,-1,-1
17:35:08:967338,-2,-1,-1,-1,-1,-2,-1,0
17:35:08:974046,-2,-1,-1,0,-2,-3,2,-1
17:35:08:974839,-2,-1,-1,0,-2,-3,2,-1
17:35:08:988368,-1,0,-1,-1,-1,0,-3,1
17:35:08:996486,0,-1,-1,-1,-1,0,-1,0
17:35:08:997337,0,-1,-1,-1,-1,0,-1,0
17:35:09:11523,-1,-3,-2,-2,0,-1,-1,1
17:35:09:12330,-1,-1,-1,-1,-1,-1,0,0
17:35:09:18359,-1,-1,-1,-1,-1,-1,0,0
17:35:09:25855,0,-3,-1,0,0,-3,-1,-1
17:35:09:34050,0,-1,-1,0,-2,-1,-1,-1
17:35:09:34834,0,-1,-1,0,-2,-1,-1,-1
17:35:09:48334,-3,-2,-1,-1,0,-2,-2,-1
17:35:09:56514,-2,-1,-1,-1,-1,-1,-1,-1
17:35:09:57325,-2,-1,-1,-1,-1,-1,-1,-1
17:35:09:63301,-1,0,1,-1,-2,-1,-1,-2
17:35:09:70976,-1,-2,-1,-1,0,-1,1,-2
17:35:09:78390,-1,-2,-1,-1,0,-1,1,-2
17:35:09:85828,-2,-2,0,0,-1,1,-1,-1
17:35:09:94046,-2,0,-2,-1,0,1,-2,-1
17:35:09:94920,-2,0,-2,-1,0,1,-2,-1
17:35:09:100897,-1,0,-1,-1,-2,0,-2,-1
17:35:09:116556,0,-2,0,-1,0,-1,-1,-1
17:35:09:117386,0,-2,0,-1,0,-1,-1,-1
17:35:09:123323,-1,-1,-2,-1,-2,1,2,-1
17:35:09:130833,-2,-2,-2,0,-1,-1,-2,0
17:35:09:138421,-2,-2,-2,0,-1,-1,-2,0
17:35:09:145814,-1,-1,-1,0,0,-1,0,0
17:35:09:154059,-1,-2,-2,-2,-1,-2,-2,-2
17:35:09:154906,-1,-2,-2,-2,-1,-2,-2,-2
17:35:09:168419,1,0,-1,-2,0,-1,-2,-2
17:35:09:176589,-2,1,0,0,2,-2,0,0
17:35:09:177361,-2,1,0,0,2,-2,0,0
17:35:09:183348,-3,-1,0,-1,-2,-2,0,-1
17:35:09:199073,-1,-1,-2,0,0,-1,1,-1
17:35:09:199850,-1,-1,-2,0,0,-1,1,-1
17:35:09:205838,-1,-2,-1,0,0,-1,-2,-2
17:35:09:214013,-1,-2,1,1,-1,0,-2,-1
17:35:09:214856,-1,-2,1,1,-1,0,-2,-1
17:35:09:228316,-1,-1,-2,-2,-2,-2,-2,0
17:35:09:236526,1,1,-1,-1,-1,-1,-1,-2
17:35:09:237379,1,1,-1,-1,-1,-1,-1,-2
17:35:09:243339,-2,-1,-1,-3,-2,-2,0,-3
17:35:09:259040,0,-2,-1,-2,-1,-2,-3,-1
17:35:09:259857,0,-2,-1,-2,-1,-2,-3,-1
17:35:09:265832,-2,0,-2,-1,0,-1,-2,1
17:35:09:274011,-3,-2,-1,-2,-2,-1,1,0
17:35:09:274849,-3,-2,-1,-2,-2,-1,1,0
17:35:09:288319,-1,1,-2,-1,0,-2,-2,-1
17:35:09:296546,-1,1,-2,-1,0,-2,-2,-1
17:35:09:297350,0,-1,-2,-2,-2,0,-1,0
17:35:09:303376,0,1,-1,-1,-1,1,-1,-1
17:35:09:319045,0,1,-1,-1,-1,1,-1,-1
17:35:09:319879,0,-1,-1,-2,1,0,-2,0
17:35:09:325810,-1,-1,-1,0,-1,-1,-1,-2
17:35:09:334035,-1,-1,-1,0,-1,-1,-1,-2
17:35:09:334836,-1,-2,0,-2,-1,-2,-2,0
17:35:09:348355,0,-1,0,-1,0,1,0,-1
17:35:09:356533,0,-1,0,-1,0,1,0,-1
17:35:09:357314,-1,-2,-2,-1,-1,-3,-1,-2
17:35:09:363302,-1,-3,-2,-1,-2,-2,-1,-2
17:35:09:379049,-1,-3,-2,-1,-2,-2,-1,-2
17:35:09:379837,0,-1,0,-1,-1,-1,-1,-1
17:35:09:385847,-2,-2,0,-1,0,-1,0,1
17:35:09:394024,-2,-2,0,-1,0,-1,0,1
17:35:09:394841,-1,-1,-1,-1,-1,0,-1,-1
17:35:09:408396,1,0,-1,-1,-2,-2,0,-1
17:35:09:416531,1,0,-1,-1,-2,-2,0,-1
17:35:09:417312,0,-1,-2,0,0,-2,-2,-2
17:35:09:423331,-1,-3,-2,-1,-3,-1,-2,-1
17:35:09:439498,-1,-3,-2,-1,-3,-1,-2,-1
17:35:09:446513,-2,0,0,-1,-1,0,-2,-1
17:35:09:447349,-1,-1,-1,-1,0,-1,-2,-2
17:35:09:454039,-1,-1,-1,-1,0,-1,-2,-2
17:35:09:454834,-2,-2,-3,-1,0,0,-2,0
17:35:09:468364,-2,-1,1,-1,-2,0,-1,-1
17:35:09:476531,-2,-1,1,-1,-2,0,-1,-1
17:35:09:477337,-1,0,-1,-2,-1,0,0,-1
17:35:09:483348,-1,-3,-1,-1,0,0,-3,-1
17:35:09:499069,-1,-3,-1,-1,0,0,-3,-1
17:35:09:499881,-1,-2,-1,-1,-1,-2,1,-2
17:35:09:505816,-1,1,-1,0,-3,-1,-1,-1
17:35:09:521705,-1,1,-1,0,-3,-1,-1,-1
17:35:09:522394,-1,-1,1,-2,-2,-1,-2,-1
17:35:09:528331,-2,0,-3,0,-2,-3,-1,-3
17:35:09:536680,-2,0,-3,0,-2,-3,-1,-3
17:35:09:537372,1,1,-1,0,-2,-2,-2,0
17:35:09:543337,1,0,-2,-1,0,0,-2,-1
17:35:09:560103,1,0,-2,-1,0,0,-2,-1
17:35:09:566515,-1,-2,-1,-1,0,0,-1,-3
17:35:09:567312,0,-2,-1,-1,-2,0,-2,1
17:35:09:574165,0,-2,-1,-1,-2,0,-2,1
17:35:09:574878,-1,-1,-1,-1,-2,-2,1,0
17:35:09:588353,0,-2,-4,-1,1,-3,-1,0
17:35:09:604713,0,-2,-4,-1,1,-3,-1,0
17:35:09:605477,-1,-1,-1,-1,-2,1,-1,-1
17:35:09:606312,-1,-1,1,-1,0,-1,-1,-3
17:35:09:619029,-1,-1,1,-1,0,-1,-1,-3
17:35:09:619815,-1,-1,-1,-2,-1,-1,1,-2
17:35:09:625852,0,-1,-2,-3,0,0,0,-1
17:35:09:641560,0,-1,-2,-3,0,0,0,-1
17:35:09:642436,-2,-2,-1,0,-1,-2,0,-1
17:35:09:648352,-1,0,-1,0,-3,-1,-2,-1
17:35:09:656549,-1,0,-1,0,-3,-1,-2,-1
17:35:09:657320,-1,0,0,-1,-1,-1,-3,1
17:35:09:663296,-2,-3,0,-2,-2,0,-1,-1
17:35:09:679049,-2,-3,0,-2,-2,0,-1,-1
17:35:09:679829,-1,-3,0,0,-1,-2,0,-1
17:35:09:685868,-2,-2,-1,-1,-1,-1,1,0
17:35:09:694016,-2,-2,-1,-1,-1,-1,1,0
17:35:09:694836,-1,1,-3,-2,-1,-1,-2,-1
17:35:09:708383,-1,0,-1,0,0,-1,-1,0
17:35:09:716546,-1,0,-1,0,0,-1,-1,0
17:35:09:717332,-1,-1,-2,-1,0,-1,-1,-1
17:35:09:723391,-1,-2,-1,-1,-1,-1,0,-1
17:35:09:739088,-1,-2,-1,-1,-1,-1,0,-1
17:35:09:739873,-1,0,-1,0,-1,-1,-1,-2
17:35:09:745856,0,0,0,0,-2,-2,-1,0
17:35:09:761554,0,0,0,0,-2,-2,-1,0
17:35:09:762347,-1,-1,-1,0,0,0,-1,-1
17:35:09:768334,-2,0,0,-1,-2,0,-2,-2
17:35:09:776571,-2,0,0,-1,-2,0,-2,-2
17:35:09:777375,0,0,-1,0,-1,-1,-1,-2
17:35:09:783345,-2,-2,-1,-1,-1,-1,-1,0
17:35:09:799563,-2,-2,-1,-1,-1,-1,-1,0
17:35:09:800319,-1,-1,0,-2,-1,0,-3,-2
17:35:09:805831,-2,-3,-2,-2,-2,-1,-1,0
17:35:09:814028,-2,-3,-2,-2,-2,-1,-1,0
17:35:09:814819,0,-2,0,-2,-3,-1,0,0
17:35:09:837204,-3,-3,-1,-2,-2,-2,-2,-3
17:35:09:837993,-3,-3,-1,-2,-2,-2,-2,-3
17:35:09:838822,0,-3,-2,-2,-2,-1,2,-1
17:35:09:843331,0,1,0,0,0,-1,0,-2
17:35:09:859046,0,1,0,0,0,-1,0,-2
17:35:09:859853,-2,0,2,0,-1,-1,-2,-3
17:35:09:882165,0,-2,-1,-2,-1,0,-2,-1
17:35:09:882971,0,-2,-1,-2,-1,0,-2,-1
17:35:09:883817,-1,-3,-2,-2,0,-1,-1,0
17:35:09:888365,-1,-1,-1,-1,0,-1,-1,1
17:35:09:896528,-1,-1,-1,-1,0,-1,-1,1
17:35:09:897320,-1,0,-1,-1,-2,0,0,-1
17:35:09:903383,0,-1,-1,1,-1,-2,-2,-1
17:35:09:919496,0,-1,-1,1,-1,-2,-2,-1
17:35:09:920287,-1,-1,0,-1,1,-3,-1,0
17:35:09:925861,-1,-1,-1,-1,-2,1,-2,-2
17:35:09:934073,-1,-1,-1,-1,-2,1,-2,-2
17:35:09:934825,-1,0,-2,0,0,-1,0,1
17:35:09:957213,0,-2,-2,-1,-2,-1,-1,-1
17:35:09:958025,0,-2,-2,-1,-2,-1,-1,-1
17:35:09:958805,-2,-1,-2,0,-1,-1,-2,-2
17:35:09:963343,-1,0,-1,0,-1,0,1,-1
17:35:09:979040,-1,0,-1,0,-1,0,1,-1
17:35:09:979848,-1,-1,-2,-2,-2,0,0,-1
17:35:09:994708,-1,-2,-1,-1,-3,-1,1,-3
17:35:09:995483,-1,-2,-1,-1,-3,-1,1,-3
17:35:09:996280,-3,-4,-2,-1,-1,-2,-2,0
17:35:10:8364,-2,0,-2,-1,-1,0,0,-1
17:35:10:16525,-2,0,-2,-1,-1,0,0,-1
17:35:10:17308,0,1,-3,-2,-2,-2,-1,-3
17:35:10:23358,-1,0,-1,-2,0,-1,0,0
17:35:10:39092,-1,0,-1,-2,0,-1,0,0
17:35:10:39870,0,0,-2,-1,-2,-1,-1,-1
17:35:10:45847,-2,-2,-1,-2,0,-1,-2,-2
17:35:10:54041,-2,-2,-1,-2,0,-1,-2,-2
17:35:10:54841,-2,-1,0,-2,1,0,0,0
17:35:10:77201,-1,0,-1,-1,0,-1,-1,-1
17:35:10:78015,-1,0,-1,-1,0,-1,-1,-1
17:35:10:78835,-2,-1,-1,0,-1,-1,-2,-1
17:35:10:99667,0,0,-2,-1,-1,-4,-3,-1
17:35:10:100480,0,0,-2,-1,-1,-4,-3,-1
17:35:10:101281,-2,0,0,-2,1,-2,0,-1
17:35:10:114094,1,-2,-2,-1,-1,0,1,-1
17:35:10:114832,1,-2,-2,-1,-1,0,1,-1
17:35:10:120855,0,-1,-2,0,-1,0,0,-2
17:35:10:128335,-1,-2,0,-1,-1,-2,-4,0
17:35:10:136559,-1,-2,0,-1,-1,-2,-4,0
17:35:10:137309,-1,-1,0,-1,-1,-2,-3,-2
17:35:10:150844,-1,-2,0,-1,-1,-1,-1,-1
17:35:10:159005,-1,-2,0,-1,-1,-1,-1,-1
17:35:10:159825,-1,2,-3,0,-2,1,0,0
17:35:10:165825,-1,0,-1,0,-2,1,-2,-2
17:35:10:173358,-1,0,-1,0,-2,1,-2,-2
17:35:10:180853,-1,0,-1,-1,-2,-2,-2,-2
17:35:10:188378,-1,0,-1,-2,-1,-2,1,-2
17:35:10:196518,-1,0,-1,-2,-1,-2,1,-2
17:35:10:197311,-2,-1,0,-1,-2,-2,-1,-1
17:35:10:210835,-2,-1,-1,1,-2,0,-2,0
17:35:10:219042,-2,-1,-1,1,-2,0,-2,0
17:35:10:219825,-1,-2,-3,-2,-1,-3,-2,-1
17:35:10:225940,-1,-1,-1,-1,0,-2,0,-1
17:35:10:233420,-1,-1,-1,-1,0,-2,0,-1
17:35:10:240839,0,0,0,-2,-2,-1,-1,-1
17:35:10:248309,-2,-3,-2,0,0,-1,-3,-2
17:35:10:256556,-2,-3,-2,0,0,-1,-3,-2
17:35:10:257357,-1,-2,-1,0,-1,-1,-1,-2
17:35:10:270924,-2,-2,0,-2,-1,-2,1,0
17:35:10:279028,-2,-2,0,-2,-1,-2,1,0
17:35:10:279821,-1,-3,-1,-1,2,0,0,-3
17:35:10:285863,-1,-1,0,-2,-1,-2,-2,-2
17:35:10:293384,-1,-1,0,-2,-1,-2,-2,-2
17:35:10:300834,-1,-1,0,-1,-1,0,-1,-2
17:35:10:308314,-1,-1,-2,-1,-1,0,0,-2
17:35:10:316564,-1,-1,-2,-1,-1,0,0,-2
17:35:10:317335,-2,-4,-2,0,-3,-1,-4,-1
17:35:10:330845,-2,1,-2,-1,-1,-2,-2,-1
17:35:10:339043,-2,1,-2,-1,-1,-2,-2,-1
17:35:10:339850,1,0,-2,0,-2,-1,-3,1
17:35:10:345823,0,-2,0,1,-2,-2,-1,-1
17:35:10:353413,0,-2,0,1,-2,-2,-1,-1
17:35:10:360862,-1,-2,0,0,0,-2,1,-3
17:35:10:368362,0,-1,0,-2,1,-1,1,0
17:35:10:376498,0,-1,0,-2,1,-1,1,0
17:35:10:377310,1,-1,-1,-2,-2,-1,0,0
17:35:10:390841,0,-2,-1,1,-1,0,0,-2
17:35:10:399076,0,-2,-1,1,-1,0,0,-2
17:35:10:399865,0,-2,0,0,0,0,0,0
17:35:10:405834,-2,-2,0,-2,-2,0,-2,0
17:35:10:413353,-2,-2,0,-2,-2,0,-2,0
17:35:10:420855,-1,0,0,0,-1,-2,0,-1
17:35:10:428350,-1,0,-2,-2,-1,0,0,-1
17:35:10:436612,-1,0,-2,-2,-1,0,0,-1
17:35:10:437332,-1,0,-1,-1,-1,0,-4,-2
17:35:10:450854,-1,-2,-3,-1,-2,-2,0,-1
17:35:10:459017,-1,-2,-3,-1,-2,-2,0,-1
17:35:10:459814,-2,-2,-1,-1,-1,-2,0,-1
17:35:10:474064,0,0,-1,-1,-1,-1,-1,-1
17:35:10:474903,0,0,-1,-1,-1,-1,-1,-1
17:35:10:480826,-3,0,-1,-2,-2,-1,-1,-1
17:35:10:488355,0,-1,-2,-1,-2,-1,-3,-2
17:35:10:496518,0,-1,-2,-1,-2,-1,-3,-2
17:35:10:497328,-1,-1,-2,-1,0,-2,-1,1
17:35:10:511318,-1,1,-1,0,-2,0,-1,-1
17:35:10:519079,-1,1,-1,0,-2,0,-1,-1
17:35:10:519876,-2,-1,-2,-1,-1,-1,0,0
17:35:10:525854,-2,-1,0,-2,0,0,-1,1
17:35:10:533365,-2,-1,0,-2,0,0,-1,1
17:35:10:540867,-2,-2,-1,-1,-2,-2,-2,-1
17:35:10:548366,0,-2,-1,-2,-2,-1,-2,-1
17:35:10:556552,0,-2,-1,-2,-2,-1,-2,-1
17:35:10:557363,0,-1,-1,0,0,-1,-1,-2
17:35:10:570839,-1,-1,-2,1,-2,-1,-1,-2
17:35:10:579005,-1,-1,-2,1,-2,-1,-1,-2
17:35:10:579834,-1,-1,0,-1,-2,-1,0,-1
17:35:10:594015,-1,0,-1,-2,-1,0,-1,-1
17:35:10:594820,-1,0,-1,-2,-1,0,-1,-1
17:35:10:600850,-1,1,0,-1,0,-1,-1,-2
17:35:10:608331,-3,-1,-2,-1,-1,-1,-1,-1
17:35:10:616528,-3,-1,-2,-1,-1,-1,-1,-1
17:35:10:617330,-1,-3,-16,-4,-1,1,-4,0
17:35:10:630825,0,-1,-2,-1,-1,-1,0,0
17:35:10:639027,0,-1,-2,-1,-1,-1,0,0
17:35:10:639913,0,-1,3,-1,-2,0,0,-2
17:35:10:645871,-3,-1,-1,-1,0,0,-2,-2
17:35:10:653359,-3,-1,-1,-1,0,0,-2,-2
17:35:10:660851,-2,-1,-12,0,0,0,-3,-1
17:35:10:668314,-1,-2,3,-2,-1,-3,-1,-1
17:35:10:676518,-1,-2,3,-2,-1,-3,-1,-1
17:35:10:677334,0,4,22,0,-2,-1,-3,-2
17:35:10:690883,-3,-4,-15,-3,-3,-2,-2,-2
17:35:10:699062,-3,-4,-15,-3,-3,-2,-2,-2
17:35:10:699824,-1,-4,-5,0,0,0,1,-3
17:35:10:705859,0,0,2,-1,0,1,2,0
17:35:10:713397,0,0,2,-1,0,1,2,0
17:35:10:720833,-1,0,-3,-6,0,-4,0,0
17:35:10:728349,-1,-2,-3,-1,-1,-1,-1,0
17:35:10:736582,-1,-2,-3,-1,-1,-1,-1,0
17:35:10:737370,0,1,5,2,-3,1,-1,-2
17:35:10:750905,-2,0,1,1,0,-3,-2,-1
17:35:10:759041,-2,0,1,1,0,-3,-2,-1
17:35:10:759837,-2,1,8,4,-1,0,-1,-2
17:35:10:765855,0,-2,-3,1,-2,-2,-2,-2
17:35:10:773463,0,-2,-3,1,-2,-2,-2,-2
17:35:10:780842,0,-1,-6,-2,1,1,2,0
17:35:10:797209,-2,3,10,3,1,0,0,-1
17:35:10:797991,-2,3,10,3,1,0,0,-1
17:35:10:798812,1,-3,0,0,0,1,-2,-1
17:35:10:810877,-1,-3,-13,-2,-3,-2,-2,0
17:35:10:819073,-1,-3,-13,-2,-3,-2,-2,0
17:35:10:819836,-4,-1,2,1,0,-3,-3,-1
17:35:10:825837,-1,-1,-4,-6,-1,-3,-1,-2
17:35:10:833455,-1,-1,-4,-6,-1,-3,-1,-2
17:35:10:840842,-2,-1,-3,-2,-2,-1,0,0
17:35:10:848314,1,2,12,3,0,-1,-2,-2
17:35:10:856533,1,2,12,3,0,-1,-2,-2
17:35:10:857361,-2,-1,-9,1,0,-2,0,0
17:35:10:870835,-1,-4,-20,-7,1,0,0,0
17:35:10:887212,-1,-4,-20,-7,1,0,0,0
17:35:10:887990,1,-3,-7,-5,-5,-3,-1,-3
17:35:10:888831,-1,2,9,0,0,1,1,0
17:35:10:893370,-1,2,9,0,0,1,1,0
17:35:10:900844,0,-2,-8,-3,-3,-2,-1,-2
17:35:10:908312,-1,-1,2,0,-4,-3,-1,-2
17:35:10:924033,-1,-1,2,0,-4,-3,-1,-2
17:35:10:924838,0,-1,0,-1,-2,-2,-2,1
17:35:10:930867,-2,-2,-5,-9,-1,0,-1,-2
17:35:10:939043,-2,-2,-5,-9,-1,0,-1,-2
17:35:10:939822,-1,3,5,2,3,2,0,0
17:35:10:945840,-2,1,36,4,0,2,0,1
17:35:10:953425,-2,1,36,4,0,2,0,1
17:35:10:960838,-3,-2,6,-7,-3,-1,1,-2
17:35:10:968320,-1,-2,-16,1,-6,-6,0,-2
17:35:10:975918,-1,-2,-16,1,-6,-6,0,-2
17:35:10:983372,2,8,42,14,4,2,1,0
17:35:10:990847,-3,-4,9,0,-2,-3,-3,-1
17:35:10:999062,-3,-4,9,0,-2,-3,-3,-1
17:35:10:999866,-4,-7,-17,-3,-5,-3,-5,-3
17:35:11:5842,-2,-6,-27,-3,-1,-1,-2,-2
17:35:11:13362,-2,-6,-27,-3,-1,-1,-2,-2
17:35:11:20879,1,2,10,4,1,-3,-1,-2
17:35:11:28342,2,1,11,4,-1,3,3,0
17:35:11:35858,2,1,11,4,-1,3,3,0
17:35:11:51507,-2,-3,-5,0,-2,-1,-1,1
17:35:11:52296,0,-1,-21,-5,-2,0,-5,0
17:35:11:59016,0,-1,-21,-5,-2,0,-5,0
17:35:11:59848,2,2,55,7,2,3,1,2
17:35:11:73987,0,4,39,9,3,-1,0,0
17:35:11:74854,0,4,39,9,3,-1,0,0
17:35:11:80814,1,3,-3,-2,4,1,-1,0
17:35:11:88370,0,0,13,1,-2,-1,-1,-1
17:35:11:95859,0,0,13,1,-2,-1,-1,-1
17:35:11:103300,-5,-9,-37,-11,-4,-3,-2,-2
17:35:11:110846,-3,-5,-42,-6,-2,-1,-2,-1
17:35:11:119058,-3,-5,-42,-6,-2,-1,-2,-1
17:35:11:119836,-1,-3,-12,-4,-6,-2,-3,-2
17:35:11:134023,-1,3,46,4,0,-1,1,0
17:35:11:134825,-1,3,46,4,0,-1,1,0
17:35:11:140853,1,1,-16,-8,0,-1,-1,-1
17:35:11:148358,0,-2,-12,-1,1,0,0,0
17:35:11:155839,0,-2,-12,-1,1,0,0,0
17:35:11:171542,-3,-3,5,4,-1,-1,-2,-1
17:35:11:172316,-1,1,-3,0,1,-1,1,-2
17:35:11:179019,-1,1,-3,0,1,-1,1,-2
17:35:11:179851,-6,-12,-57,-10,-5,-3,-2,-3
17:35:11:210870,-1,0,11,-4,0,-2,-4,-1
17:35:11:211642,-1,0,11,-4,0,-2,-4,-1
17:35:11:212506,0,2,23,6,0,-1,-3,0
17:35:11:213252,0,-7,-40,-7,1,0,0,0
17:35:11:215909,0,-7,-40,-7,1,0,0,0
17:35:11:223338,-5,-8,-7,-3,1,3,4,0
17:35:11:247167,3,5,21,3,1,1,0,1
17:35:11:247977,3,5,21,3,1,1,0,1
17:35:11:248839,2,2,34,7,-3,-3,-2,-1
17:35:11:253995,0,1,16,3,1,1,0,2
17:35:11:254850,0,1,16,3,1,1,0,2
17:35:11:260866,0,4,8,-3,0,-1,-3,-1
17:35:11:268336,2,4,38,8,-2,-1,-3,0
17:35:11:275865,2,4,38,8,-2,-1,-3,0
17:35:11:283289,-2,-1,29,0,-1,-1,-2,-1
17:35:11:290836,-5,-2,-6,-4,-3,-2,1,-2
17:35:11:299044,-5,-2,-6,-4,-3,-2,1,-2
17:35:11:299829,3,5,3,1,3,-1,0,-1
17:35:11:314031,0,3,24,6,-3,-2,-2,-3
17:35:11:314830,0,3,24,6,-3,-2,-2,-3
17:35:11:320838,-1,2,-30,-4,2,-1,-1,0
17:35:11:328312,-2,-1,-20,-2,-1,0,-2,-1
17:35:11:335893,-2,-1,-20,-2,-1,0,-2,-1
17:35:11:343310,2,2,3,8,3,0,0,1
17:35:11:350839,-3,-13,-77,-20,-4,-3,-1,-3
17:35:11:359029,-3,-13,-77,-20,-4,-3,-1,-3
17:35:11:359858,-1,-2,-11,5,-5,-3,-3,-2
17:35:11:374022,-1,-6,-10,-19,-3,3,0,-1
17:35:11:374853,-1,-6,-10,-19,-3,3,0,-1
17:35:11:380834,-1,-2,-18,-10,-2,-2,-1,-2
17:35:11:388332,0,0,25,5,-3,-3,-3,-3
17:35:11:395895,0,0,25,5,-3,-3,-3,-3
17:35:11:403321,-3,-3,-3,2,-3,-1,-4,-1
17:35:11:410847,-3,-5,-28,-9,-4,-9,-24,-2
17:35:11:419149,-3,-5,-28,-9,-4,-9,-24,-2
17:35:11:419888,-1,1,39,7,0,3,2,-2
17:35:11:434059,2,0,-34,7,2,12,4,2
17:35:11:434856,2,0,-34,7,2,12,4,2
17:35:11:440855,-3,-7,-6,-5,-3,-2,-3,-3
17:35:11:456524,0,5,35,4,2,0,0,-1
17:35:11:457363,0,5,35,4,2,0,0,-1
17:35:11:463364,-3,-1,10,-5,-5,-2,2,-1
17:35:11:470855,-1,2,8,6,-2,-2,3,0
17:35:11:479062,-1,2,8,6,-2,-2,3,0
17:35:11:479854,0,1,23,-5,0,-4,-6,-3
17:35:11:494511,-2,2,24,-2,-2,-1,4,-1
17:35:11:495349,-2,2,24,-2,-2,-1,4,-1
17:35:11:500847,-1,-3,-6,-17,-1,-2,1,-3
17:35:11:508317,-1,-2,-8,-7,-2,-1,10,-1
17:35:11:515918,-1,-2,-8,-7,-2,-1,10,-1
17:35:11:523348,1,0,-30,6,2,0,6,0
17:35:11:530865,-1,-4,7,11,0,-3,-5,-3
17:35:11:539029,-1,-4,7,11,0,-3,-5,-3
17:35:11:539850,-1,-4,-51,-3,-1,-4,-3,-3
17:35:11:554068,0,3,23,-7,5,-3,-6,0
17:35:11:554861,0,3,23,-7,5,-3,-6,0
17:35:11:560836,-2,-4,10,4,-2,-3,-2,0
17:35:11:568354,0,-5,-39,1,-8,0,0,-2
17:35:11:575958,0,-5,-39,1,-8,0,0,-2
17:35:11:583343,-3,-2,-6,-6,-1,0,0,-1
17:35:11:590843,-6,-13,-47,-12,-4,17,22,2
17:35:11:599006,-6,-13,-47,-12,-4,17,22,2
17:35:11:599819,-1,0,-5,3,-2,2,2,-3
17:35:11:613997,-1,-2,8,-3,-8,5,6,0
17:35:11:614847,-1,-2,8,-3,-8,5,6,0
17:35:11:620862,-2,-7,-4,-10,2,12,4,0
17:35:11:628342,-1,3,14,6,-1,-7,-7,-2
17:35:11:635863,-1,3,14,6,-1,-7,-7,-2
17:35:11:643307,1,4,9,2,10,0,1,0
17:35:11:650850,-3,-4,-20,2,-2,-9,-12,-3
17:35:11:659051,-3,-4,-20,2,-2,-9,-12,-3
17:35:11:659867,3,11,67,18,5,-1,-4,1
17:35:11:674048,-1,4,24,-1,2,-9,-9,-3
17:35:11:674841,-1,4,24,-1,2,-9,-9,-3
17:35:11:680855,-4,-7,-5,-8,-17,-6,2,-3
17:35:11:688298,7,5,7,1,13,1,6,1
17:35:11:695873,7,5,7,1,13,1,6,1
17:35:11:703308,-1,-1,-18,-7,-7,3,-18,-2
17:35:11:710861,-2,0,-7,4,-6,-9,-15,-2
17:35:11:719037,-2,0,-7,4,-6,-9,-15,-2
17:35:11:719841,1,-2,-13,3,12,-2,3,0
17:35:11:734026,1,-1,11,2,1,5,2,-1
17:35:11:734861,1,-1,11,2,1,5,2,-1
17:35:11:740849,-1,1,-4,4,1,-7,-4,-1
17:35:11:748310,-2,-1,21,0,-4,-3,-1,0
17:35:11:755903,-2,-1,21,0,-4,-3,-1,0
17:35:11:763308,-2,-7,-14,-6,-7,2,1,-1
17:35:11:770851,-5,-12,-82,-22,-10,-10,-5,-4
17:35:11:779099,-5,-12,-82,-22,-10,-10,-5,-4
17:35:11:779851,0,5,42,5,4,4,-3,-1
17:35:11:794092,1,2,21,6,-1,-3,0,-1
17:35:11:794868,1,2,21,6,-1,-3,0,-1
17:35:11:800833,-2,-2,-13,-2,-1,-5,-1,-2
17:35:11:808327,0,1,4,-2,7,25,19,1
17:35:11:815890,0,1,4,-2,7,25,19,1
17:35:11:823357,3,3,-1,-2,-3,32,23,4
17:35:11:830851,-2,-4,4,1,8,-7,-3,-3
17:35:11:839024,-2,-4,4,1,8,-7,-3,-3
17:35:11:839917,-1,-5,-24,-14,-13,-11,-7,0
17:35:11:854071,-2,-5,0,4,1,-4,-2,-2
17:35:11:854880,-2,-5,0,4,1,-4,-2,-2
17:35:11:860858,-2,2,-6,-2,-8,-11,-7,-2
17:35:11:868368,1,-2,14,5,7,-2,-4,0
17:35:11:875850,1,-2,14,5,7,-2,-4,0
17:35:11:883351,-3,-2,-5,2,4,-3,-3,-5
17:35:11:890896,0,-2,-33,-9,-14,-5,-4,0
17:35:11:899047,0,-2,-33,-9,-14,-5,-4,0
17:35:11:899861,-3,-7,-3,-1,4,-5,-2,0
17:35:11:914030,-3,-5,9,-3,-12,-15,-7,-4
17:35:11:914831,-3,-5,9,-3,-12,-15,-7,-4
17:35:11:920848,3,3,3,-3,9,29,27,5
17:35:11:928366,-2,3,7,1,-4,-4,3,0
17:35:11:935882,-2,3,7,1,-4,-4,3,0
17:35:11:943311,-5,-10,-6,-2,-5,-19,-19,-5
17:35:11:950846,-1,3,-2,-6,8,9,0,-2
17:35:11:959074,-1,3,-2,-6,8,9,0,-2
17:35:11:959856,-1,1,-4,-5,1,-7,-5,-2
17:35:11:974034,-1,1,8,3,-2,-6,-7,0
17:35:11:974972,-1,1,8,3,-2,-6,-7,0
17:35:11:980842,-1,-1,1,11,5,-4,-1,1
17:35:11:996536,0,0,8,0,-4,3,-1,0
17:35:11:997317,0,0,8,0,-4,3,-1,0
17:35:12:3360,-2,-4,-7,-3,-5,-6,-3,-2
17:35:12:10838,2,0,-8,-5,-2,4,2,1
17:35:12:18375,2,0,-8,-5,-2,4,2,1
17:35:12:25843,-3,0,3,-4,-12,-11,-15,-5
17:35:12:34031,1,2,8,-3,7,3,-6,2
17:35:12:34837,1,2,8,-3,7,3,-6,2
17:35:12:40854,1,4,2,-3,-9,4,3,1
17:35:12:56526,-2,-3,-1,6,5,-2,4,-3
17:35:12:57348,-2,-3,-1,6,5,-2,4,-3
17:35:12:63294,-2,-2,-5,-5,-2,-9,-6,-5
17:35:12:70845,0,-2,1,2,-3,-3,-3,3
17:35:12:78350,0,-2,1,2,-3,-3,-3,3
17:35:12:85828,-1,1,5,6,-13,-6,6,-1
17:35:12:94023,2,4,4,0,9,4,4,1
17:35:12:94864,2,4,4,0,9,4,4,1
17:35:12:100828,1,1,2,1,-1,-1,1,1
17:35:12:116539,-3,-3,-1,0,0,-7,-5,-2
17:35:12:117334,-3,-3,-1,0,0,-7,-5,-2
17:35:12:123340,0,-4,-4,-4,2,2,-1,0
17:35:12:130878,-1,1,2,-2,-6,-4,0,-2
17:35:12:138416,-1,1,2,-2,-6,-4,0,-2
17:35:12:145838,-2,-3,-3,7,5,-5,-12,-2
17:35:12:154051,-1,-7,-11,-11,3,3,-10,-2
17:35:12:154871,-1,-7,-11,-11,3,3,-10,-2
17:35:12:160855,2,1,0,2,7,7,9,2
17:35:12:176550,-15,-5,0,4,-11,-5,3,-3
17:35:12:177444,-15,-5,0,4,-11,-5,3,-3
17:35:12:183320,-2,-2,-3,-7,-7,-1,-2,-3
17:35:12:190845,2,3,8,3,0,0,4,0
17:35:12:198420,2,3,8,3,0,0,4,0
17:35:12:205863,-5,-5,2,11,3,-2,0,-4
17:35:12:213983,2,1,4,-6,3,3,3,0
17:35:12:214854,2,1,4,-6,3,3,3,0
17:35:12:220842,1,-1,4,3,1,-5,-4,-3
17:35:12:236604,4,2,8,6,-3,2,8,0
17:35:12:237301,4,2,8,6,-3,2,8,0
17:35:12:243335,0,-2,-80,-13,10,11,-13,0
17:35:12:250836,-2,-2,-1,1,-1,-8,-6,-3
17:35:12:258339,-2,-2,-1,1,-1,-8,-6,-3
17:35:12:265856,-1,2,30,3,-7,-6,0,0
17:35:12:274015,1,1,-13,-5,-7,-1,-6,-2
17:35:12:274847,1,1,-13,-5,-7,-1,-6,-2
17:35:12:280863,3,7,21,2,5,-4,-3,2
17:35:12:296510,-7,-15,-7,-6,-13,-10,-2,-5
17:35:12:297327,-7,-15,-7,-6,-13,-10,-2,-5
17:35:12:303373,3,0,-3,-9,2,7,5,1
17:35:12:310871,-2,-4,-5,2,10,-1,-7,-1
17:35:12:318364,-2,-4,-5,2,10,-1,-7,-1
17:35:12:325864,-5,-6,-9,-12,-14,-8,-6,-6
17:35:12:334027,3,9,12,9,16,9,7,5
17:35:12:334829,3,9,12,9,16,9,7,5
17:35:12:340869,-1,-4,6,-4,-2,6,22,-1
17:35:12:356545,-6,1,1,0,-11,-7,-3,-3
17:35:12:357358,-6,1,1,0,-11,-7,-3,-3
17:35:12:363320,-5,1,8,5,10,-3,-11,-5
17:35:12:370875,6,3,-8,-4,3,1,-9,-7
17:35:12:378377,6,3,-8,-4,3,1,-9,-7
17:35:12:385850,1,-5,0,3,1,-2,-2,2
17:35:12:394058,1,0,5,1,2,2,9,12
17:35:12:394923,1,0,5,1,2,2,9,12
17:35:12:400830,-5,-5,-4,-2,2,5,5,8
17:35:12:416535,-8,0,1,1,-2,3,13,-7
17:35:12:417336,-8,0,1,1,-2,3,13,-7
17:35:12:423313,-15,-8,2,-18,-13,-7,2,13
17:35:12:430924,-1,-10,-17,-14,-1,-5,-19,-9
17:35:12:438411,-1,-10,-17,-14,-1,-5,-19,-9
17:35:12:445865,6,5,3,8,-6,-12,-15,-7
17:35:12:453985,-1,-1,1,-2,2,6,11,11
17:35:12:454846,-1,-1,1,-2,2,6,11,11
17:35:12:460861,2,3,-1,-1,-1,-11,-20,-6
17:35:12:476574,0,1,13,10,13,8,0,23
17:35:12:477359,0,1,13,10,13,8,0,23
17:35:12:483309,2,8,14,-4,2,8,15,-9
17:35:12:490846,-2,1,-1,-7,-7,-10,-17,-9
17:35:12:498391,-2,1,-1,-7,-7,-10,-17,-9
17:35:12:505859,11,-2,-13,-17,7,3,9,18
17:35:12:514038,-13,-3,4,4,-11,5,15,-2
17:35:12:514869,-13,-3,4,4,-11,5,15,-2
17:35:12:520843,-5,-5,-8,-1,-6,-5,-14,-13
17:35:12:536509,3,-1,2,1,-3,8,2,-6
17:35:12:537338,3,-1,2,1,-3,8,2,-6
17:35:12:543361,-3,4,15,10,-11,-20,-15,-6
17:35:12:550879,2,3,-2,1,2,-3,-1,-1
17:35:12:558389,2,3,-2,1,2,-3,-1,-1
17:35:12:565850,1,-3,21,-25,-6,20,14,2
17:35:12:574084,8,8,41,26,-2,-13,-25,-5
17:35:12:574843,8,8,41,26,-2,-13,-25,-5
17:35:12:580851,-4,-2,66,20,1,-6,-2,-4
17:35:12:596558,-4,-2,66,20,1,-6,-2,-4
17:35:12:597353,-3,-6,-29,-16,-10,11,12,-3
17:35:12:603297,-10,-20,-90,-35,-7,-5,0,-5
17:35:12:619062,-10,-20,-90,-35,-7,-5,0,-5
17:35:12:619862,3,-1,20,-3,3,-1,-17,-3
17:35:12:625857,-11,-24,-91,-37,-22,-9,-20,-11
17:35:12:634029,-11,-24,-91,-37,-22,-9,-20,-11
17:35:12:634851,4,9,15,20,12,-4,6,-3
17:35:12:640849,-5,-14,-84,-15,-3,-3,-10,-5
17:35:12:656566,-5,-14,-84,-15,-3,-3,-10,-5
17:35:12:657323,0,7,50,22,3,-6,-5,-3
17:35:12:663328,2,6,127,23,6,12,13,3
17:35:12:679076,2,6,127,23,6,12,13,3
17:35:12:679889,-4,-10,-19,2,-3,-5,-10,-4
17:35:12:685844,0,5,-3,-3,5,-6,-7,-2
17:35:12:694052,0,5,-3,-3,5,-6,-7,-2
17:35:12:694849,-4,0,-68,-15,-12,-5,0,-4
17:35:12:700860,5,12,44,23,5,6,0,2
17:35:12:716508,5,12,44,23,5,6,0,2
17:35:12:717301,0,-8,-20,-45,5,-2,-11,0
17:35:12:723348,-5,-18,-20,-24,-11,-10,6,-2
17:35:12:739074,-5,-18,-20,-24,-11,-10,6,-2
17:35:12:739875,1,-7,24,-21,-13,-1,12,5
17:35:12:745855,5,15,51,36,0,2,1,4
17:35:12:754013,5,15,51,36,0,2,1,4
17:35:12:754864,-20,-45,-76,-43,-13,-11,-11,-14
17:35:12:760864,-1,3,3,4,2,-7,-12,-6
17:35:12:776541,-1,3,3,4,2,-7,-12,-6
17:35:12:777374,6,10,28,18,1,3,2,1
17:35:12:783357,5,12,-7,3,8,6,7,5
17:35:12:799055,5,12,-7,3,8,6,7,5
17:35:12:799863,-5,-2,11,-1,-12,3,2,-2
17:35:12:805908,-1,2,27,15,2,-2,6,2
17:35:12:814071,-1,2,27,15,2,-2,6,2
17:35:12:814881,10,11,14,0,-1,-3,14,1
17:35:12:820846,-7,-8,-4,-2,8,7,-4,-9
17:35:12:836583,-7,-8,-4,-2,8,7,-4,-9
17:35:12:837353,9,8,15,9,0,-4,-7,1
17:35:12:843336,12,7,8,4,14,14,21,23
17:35:12:859093,12,7,8,4,14,14,21,23
17:35:12:859826,-14,-3,23,13,-2,-5,2,-6
17:35:12:865828,-4,-4,-1,4,-1,1,0,6
17:35:12:874075,-4,-4,-1,4,-1,1,0,6
17:35:12:874933,-3,-4,6,-2,8,11,17,2
17:35:12:880833,28,15,2,5,-9,-6,4,69
17:35:12:896608,28,15,2,5,-9,-6,4,69
17:35:12:897353,-8,-15,6,3,-2,-8,21,28
17:35:12:903316,45,3,9,-11,5,4,0,1
17:35:12:919044,45,3,9,-11,5,4,0,1
17:35:12:919841,-20,-3,0,-3,-8,0,1,45
17:35:12:925851,-30,-8,-12,-9,-6,-6,-1,-63
17:35:12:934063,-30,-8,-12,-9,-6,-6,-1,-63
17:35:12:934833,-10,7,-1,5,13,-5,-35,-57
17:35:12:948317,-34,-10,-5,0,-6,-1,-34,-1
17:35:12:956616,-34,-10,-5,0,-6,-1,-34,-1
17:35:12:957354,10,12,25,14,4,4,-13,-3
17:35:12:963316,-38,4,17,4,11,8,-1,-43
17:35:12:979039,-38,4,17,4,11,8,-1,-43
17:35:12:979841,-20,5,3,4,-13,-5,-8,86
17:35:12:985861,-11,-15,-10,16,2,-11,9,-6
17:35:12:994067,-11,-15,-10,16,2,-11,9,-6
17:35:12:994891,18,2,-10,-4,24,6,-9,-61
17:35:13:8334,-27,-2,-2,-2,6,0,16,54
17:35:13:16543,-27,-2,-2,-2,6,0,16,54
17:35:13:17326,29,0,-7,-12,-8,-4,13,-8
17:35:13:23316,21,-1,-11,-27,0,2,3,-21
17:35:13:39038,21,-1,-11,-27,0,2,3,-21
17:35:13:39906,11,11,4,1,-7,-2,-7,12
17:35:13:45885,7,9,-1,33,9,10,28,53
17:35:13:54049,7,9,-1,33,9,10,28,53
17:35:13:54852,14,3,2,8,7,4,21,19
17:35:13:68365,18,3,3,-23,-22,-11,-1,1
17:35:13:76548,18,3,3,-23,-22,-11,-1,1
17:35:13:77318,-5,-19,-16,-14,-9,-12,-10,-32
17:35:13:83311,-4,-10,-28,-23,-3,-8,-14,-23
17:35:13:98999,-4,-10,-28,-23,-3,-8,-14,-23
17:35:13:99855,3,4,7,2,-7,-5,4,-6
17:35:13:105854,-12,-4,10,20,-1,-1,5,-5
17:35:13:114025,-12,-4,10,20,-1,-1,5,-5
17:35:13:114841,-13,1,4,14,7,14,52,1
17:35:13:128362,2,-23,-1,-5,-7,-10,15,21
17:35:13:136491,2,-23,-1,-5,-7,-10,15,21
17:35:13:137346,-30,-3,-6,-4,-8,1,26,74
17:35:13:143487,18,9,7,16,2,0,-2,-27
17:35:13:158993,18,9,7,16,2,0,-2,-27
17:35:13:159869,-27,-3,-50,10,22,11,-12,7
17:35:13:165848,-20,9,12,10,-9,-12,-24,-15
17:35:13:174043,-20,9,12,10,-9,-12,-24,-15
17:35:13:174845,17,-6,-7,-11,-14,-5,-9,-30
17:35:13:188345,-5,21,10,4,0,5,-7,-33
17:35:13:196520,-5,21,10,4,0,5,-7,-33
17:35:13:197334,7,9,-7,-14,-4,-7,-14,10
17:35:13:203337,-7,-9,2,-1,-7,-9,-11,7
17:35:13:210921,-7,-9,2,-1,-7,-9,-11,7
17:35:13:218352,17,-2,14,20,13,-2,-53,-82
17:35:13:225848,7,-1,-22,-10,10,3,5,-16
17:35:13:234023,7,-1,-22,-10,10,3,5,-16
17:35:13:234843,9,-2,4,0,-7,-1,-6,-31
17:35:13:248370,17,-4,-18,-25,13,11,11,29
17:35:13:256554,17,-4,-18,-25,13,11,11,29
17:35:13:257328,-17,3,10,-8,8,8,9,24
17:35:13:263344,-60,-12,-13,-5,9,-2,-29,-91
17:35:13:270952,-60,-12,-13,-5,9,-2,-29,-91
17:35:13:278304,-8,-5,-9,-21,-12,-6,-2,-32
17:35:13:285861,18,2,19,2,-12,-9,-6,-21
17:35:13:294018,18,2,19,2,-12,-9,-6,-21
17:35:13:294846,8,-6,-7,-1,-4,-5,13,1
17:35:13:308309,-30,-6,12,-8,-8,1,2,6
17:35:13:316527,-30,-6,12,-8,-8,1,2,6
17:35:13:317338,-1,0,-4,-19,3,-3,3,21
17:35:13:323298,-6,-4,-18,-14,-17,-3,5,14
17:35:13:330966,-6,-4,-18,-14,-17,-3,5,14
17:35:13:338325,23,-8,0,-13,-10,-6,4,12
17:35:13:345850,41,22,64,78,0,-4,19,93
17:35:13:354070,41,22,64,78,0,-4,19,93
17:35:13:354842,-2,-13,4,3,-9,-12,-9,-14
17:35:13:368307,4,-21,-26,-15,-4,4,1,25
17:35:13:376519,4,-21,-26,-15,-4,4,1,25
17:35:13:377369,-26,-17,-7,9,11,-5,-9,-20
17:35:13:383298,43,17,18,10,9,4,0,16
17:35:13:390891,43,17,18,10,9,4,0,16
17:35:13:398323,-12,-8,-31,-7,12,-5,-59,-34
17:35:13:405871,-4,16,-18,-17,-4,0,-24,-13
17:35:13:414018,-4,16,-18,-17,-4,0,-24,-13
17:35:13:414843,14,-5,42,5,-14,0,9,2
17:35:13:428345,-23,-2,-17,-17,6,4,9,-23
17:35:13:436581,-23,-2,-17,-17,6,4,9,-23
17:35:13:437375,-2,21,27,22,0,4,3,-6
17:35:13:443335,-18,-4,4,-2,0,2,-15,-47
17:35:13:450855,-18,-4,4,-2,0,2,-15,-47
17:35:13:458353,20,13,15,-2,-12,4,29,24
17:35:13:465856,-4,-6,-13,9,2,-4,45,0
17:35:13:474014,-4,-6,-13,9,2,-4,45,0
17:35:13:474854,-5,13,34,27,14,18,23,23
17:35:13:488384,0,-14,4,5,13,5,14,52
17:35:13:496505,0,-14,4,5,13,5,14,52
17:35:13:497286,-50,-20,-31,-11,12,4,-11,9
17:35:13:503327,69,4,21,14,-3,-5,-17,-8
17:35:13:510866,69,4,21,14,-3,-5,-17,-8
17:35:13:518345,-5,-3,0,-7,-15,-14,-35,-11
17:35:13:525868,-28,-5,-5,-25,-19,-8,-25,-17
17:35:13:534035,-28,-5,-5,-25,-19,-8,-25,-17
17:35:13:534871,4,5,-13,-5,-5,-7,-11,-25
17:35:13:548354,-26,-4,23,3,9,11,41,41
17:35:13:556625,-26,-4,23,3,9,11,41,41
17:35:13:557318,-19,-20,-6,-3,2,-1,-17,-29
17:35:13:563307,22,16,-2,10,-2,-7,-32,-2
17:35:13:570891,22,16,-2,10,-2,-7,-32,-2
17:35:13:578305,-7,10,10,10,4,8,15,12
17:35:13:585872,-37,-13,-7,-18,3,0,-19,-29
17:35:13:594028,-37,-13,-7,-18,3,0,-19,-29
17:35:13:594910,25,12,-26,-5,-4,-6,14,11
17:35:13:608311,5,2,14,17,-16,-5,26,47
17:35:13:616527,5,2,14,17,-16,-5,26,47
17:35:13:617318,9,4,2,-7,-18,-6,8,60
17:35:13:623307,22,-10,-10,-15,-7,-8,-16,-8
17:35:13:630891,22,-10,-10,-15,-7,-8,-16,-8
17:35:13:638294,-5,15,24,30,24,12,-3,-17
17:35:13:645851,-21,-1,-28,-12,17,3,3,31
17:35:13:654050,-21,-1,-28,-12,17,3,3,31
17:35:13:654874,13,2,2,-2,8,-4,15,62
17:35:13:668318,22,4,32,3,14,7,22,24
17:35:13:676560,22,4,32,3,14,7,22,24
17:35:13:677366,-5,-4,-21,-44,0,-1,-8,-37
17:35:13:683309,0,16,6,-2,8,3,-14,-75
17:35:13:690892,0,16,6,-2,8,3,-14,-75
17:35:13:698336,41,15,-11,0,1,-3,0,-24
17:35:13:705856,-22,20,29,7,0,5,-2,-18
17:35:13:713988,-22,20,29,7,0,5,-2,-18
17:35:13:714855,-32,-45,-35,0,-11,-8,5,-14
17:35:13:728328,30,-6,-24,3,-2,-13,-9,-5
17:35:13:736561,30,-6,-24,3,-2,-13,-9,-5
17:35:13:737353,-70,-27,6,-9,-15,4,29,0
17:35:13:743326,-7,6,57,-11,-23,-7,-10,23
17:35:13:750852,-7,6,57,-11,-23,-7,-10,23
17:35:13:758342,19,8,14,9,-6,-2,-16,3
17:35:13:765874,-50,-33,-38,-8,-2,0,-5,-18
17:35:13:774020,-50,-33,-38,-8,-2,0,-5,-18
17:35:13:774835,17,6,-7,3,4,9,13,59
17:35:13:788428,33,-7,-47,12,13,5,26,-7
17:35:13:796523,33,-7,-47,12,13,5,26,-7
17:35:13:797296,14,-4,-15,5,-4,7,-2,12
17:35:13:803345,67,12,-13,-9,-6,2,29,54
17:35:13:810952,67,12,-13,-9,-6,2,29,54
17:35:13:818323,3,13,2,-25,-10,-7,15,-17
17:35:13:825789,-3,6,-13,-1,-13,-11,-35,-52
17:35:13:834025,-3,6,-13,-1,-13,-11,-35,-52
17:35:13:834842,-12,-4,-17,-9,-4,-5,-17,-70
17:35:13:848342,-18,-19,-44,-25,2,3,0,-4
17:35:13:856574,-18,-19,-44,-25,2,3,0,-4
17:35:13:857310,-11,9,26,8,18,8,-8,2
17:35:13:871520,11,-4,17,12,6,4,-6,0
17:35:13:872328,11,-4,17,12,6,4,-6,0
17:35:13:878352,-5,3,58,25,4,-5,11,0
17:35:13:885859,1,8,-27,-13,-9,13,45,77
17:35:13:893357,1,8,-27,-13,-9,13,45,77
17:35:13:900887,26,-10,-9,1,-10,-8,-14,24
17:35:13:908310,-41,-17,1,3,-10,-12,-23,-22
17:35:13:916561,-41,-17,1,3,-10,-12,-23,-22
17:35:13:917325,-1,-2,-14,-29,-25,-6,39,-21
17:35:13:931540,-5,-13,-4,-5,-2,-7,-39,-72
17:35:13:932331,-5,-13,-4,-5,-2,-7,-39,-72
17:35:13:938310,13,-5,-8,-15,-11,-8,-13,-18
17:35:13:945854,-19,-13,-46,-9,-13,-11,-8,-8
17:35:13:953387,-19,-13,-46,-9,-13,-11,-8,-8
17:35:13:960852,36,3,1,-7,5,-2,18,50
17:35:13:968310,38,10,54,-4,-8,6,8,-7
17:35:13:976517,38,10,54,-4,-8,6,8,-7
17:35:13:977334,-7,-10,-58,-1,-6,-8,-53,15
17:35:13:991521,5,26,21,22,16,7,1,58
17:35:13:992388,5,26,21,22,16,7,1,58
17:35:13:998304,-16,10,18,33,14,11,1,-33
17:35:14:5955,-23,6,19,0,2,-2,-14,-32
17:35:14:13383,-23,6,19,0,2,-2,-14,-32
17:35:14:20864,-29,4,-3,0,6,-2,-5,-22
17:35:14:28339,54,14,0,7,7,7,27,67
17:35:14:36574,54,14,0,7,7,7,27,67
17:35:14:37366,12,7,-9,-28,-11,-15,-54,20
17:35:14:51538,-7,10,15,-6,-4,-2,17,-10
17:35:14:52351,-7,10,15,-6,-4,-2,17,-10
17:35:14:58324,19,1,2,-9,-5,6,3,-41
17:35:14:65881,20,0,-33,-15,-13,-19,-21,27
17:35:14:73403,20,0,-33,-15,-13,-19,-21,27
17:35:14:80855,6,11,12,22,6,6,-8,12
17:35:14:88409,-32,-9,-8,12,2,2,7,-16
17:35:14:96517,-32,-9,-8,12,2,2,7,-16
17:35:14:97432,-18,8,23,-15,-15,-5,15,-32
17:35:14:111502,-46,-18,-10,-5,4,-4,-35,-47
17:35:14:112288,-46,-18,-10,-5,4,-4,-35,-47
17:35:14:118340,14,-5,-14,-17,0,-3,27,15
17:35:14:125860,-24,-27,-4,3,-12,-8,-7,-33
17:35:14:133359,-24,-27,-4,3,-12,-8,-7,-33
17:35:14:140845,25,-4,-10,40,16,2,-24,-5
17:35:14:148325,25,3,-31,-19,-10,1,20,40
17:35:14:156527,25,3,-31,-19,-10,1,20,40
17:35:14:157324,-2,10,30,-2,0,3,34,40
17:35:14:171495,12,4,-12,5,-1,-8,-20,10
17:35:14:172333,12,4,-12,5,-1,-8,-20,10
17:35:14:178367,-42,-16,0,29,10,3,-2,36
17:35:14:185858,-5,15,40,14,-1,-3,-3,-17
17:35:14:193359,-5,15,40,14,-1,-3,-3,-17
17:35:14:200872,16,3,5,-19,-19,-18,-36,0
17:35:14:208285,-29,-24,-31,-1,0,-2,-14,-58
17:35:14:216561,-29,-24,-31,-1,0,-2,-14,-58
17:35:14:217345,-32,11,19,7,5,-2,-11,-43
17:35:14:231504,-25,-13,-1,1,3,1,-6,-13
17:35:14:232359,-25,-13,-1,1,3,1,-6,-13
17:35:14:238317,23,4,19,33,-2,1,5,-47
17:35:14:245944,1,-13,10,-13,-3,1,-3,-33
17:35:14:253430,1,-13,10,-13,-3,1,-3,-33
17:35:14:260857,-17,-8,-2,-8,-1,0,-20,-29
17:35:14:268312,-3,17,16,1,-1,3,-6,11
17:35:14:276521,-3,17,16,1,-1,3,-6,11
17:35:14:277375,7,2,-36,-37,4,-2,6,14
17:35:14:291518,3,-6,23,2,10,-1,6,49
17:35:14:292360,3,-6,23,2,10,-1,6,49
17:35:14:298297,-37,0,-5,-13,-5,2,2,14
17:35:14:305868,27,22,-11,6,4,-1,15,-4
17:35:14:313382,27,22,-11,6,4,-1,15,-4
17:35:14:320948,-36,-26,9,12,5,3,0,-1
17:35:14:328319,-19,-5,15,31,17,8,-6,-50
17:35:14:336691,-19,-5,15,31,17,8,-6,-50
17:35:14:337353,42,7,1,-16,-7,1,41,76
17:35:14:351543,-16,-15,-23,9,9,1,23,-5
17:35:14:352357,-16,-15,-23,9,9,1,23,-5
17:35:14:358316,-23,-10,-11,0,-7,-9,-55,-81
17:35:14:365846,21,2,-6,-10,-12,-10,-40,-25
17:35:14:373412,21,2,-6,-10,-12,-10,-40,-25
17:35:14:380865,-4,-2,-8,26,11,8,34,35
17:35:14:388343,-11,12,11,-8,3,10,61,-10
17:35:14:396522,-11,12,11,-8,3,10,61,-10
17:35:14:397300,37,24,-12,-1,-2,0,20,-11
17:35:14:411511,-11,-29,-28,16,15,6,16,27
17:35:14:412322,-11,-29,-28,16,15,6,16,27
17:35:14:418362,-15,-16,-23,2,-15,-7,0,11
17:35:14:425888,-8,0,78,-8,-14,-5,-44,-55
17:35:14:433362,-8,0,78,-8,-14,-5,-44,-55
17:35:14:440811,2,-20,-11,-13,14,0,-19,-6
17:35:14:448354,64,16,-10,-12,-15,-3,24,104
17:35:14:456539,64,16,-10,-12,-15,-3,24,104
17:35:14:457440,-7,-6,9,34,18,4,34,46
17:35:14:471516,-31,-2,-9,3,1,-1,10,-34
17:35:14:472331,-31,-2,-9,3,1,-1,10,-34
17:35:14:478358,28,-3,-13,12,32,6,-13,-47
17:35:14:485860,31,-2,-18,1,-2,0,-3,1
17:35:14:493405,31,-2,-18,1,-2,0,-3,1
17:35:14:500865,-16,-8,12,-35,-15,-2,2,7
17:35:14:508339,-11,21,10,8,12,10,7,27
17:35:14:516538,-11,21,10,8,12,10,7,27
17:35:14:517333,-7,-16,-10,-19,-21,-15,-48,-70
17:35:14:531540,-22,0,-9,-22,-21,-10,-1,5
17:35:14:532325,-22,0,-9,-22,-21,-10,-1,5
17:35:14:538322,-10,-9,5,-1,-6,0,-13,76
17:35:14:545881,16,8,8,14,-6,-7,-34,67
17:35:14:553390,16,8,8,14,-6,-7,-34,67
17:35:14:560858,14,20,47,-1,-12,-1,15,-9
17:35:14:568344,-29,4,28,4,2,5,-14,-49
17:35:14:576601,-29,4,28,4,2,5,-14,-49
17:35:14:577353,-1,25,-8,-11,-17,-11,-6,-72
17:35:14:591537,-41,-30,-19,-14,-2,-15,-44,-65
17:35:14:592429,-41,-30,-19,-14,-2,-15,-44,-65
17:35:14:598296,-20,-29,-14,0,28,15,11,14
17:35:14:605890,-5,-8,-14,-17,-14,-11,-7,12
17:35:14:613467,-5,-8,-14,-17,-14,-11,-7,12
17:35:14:620860,10,16,-43,-19,7,7,4,-54
17:35:14:628321,-4,21,31,-12,-7,-1,-5,-76
17:35:14:636562,-4,21,31,-12,-7,-1,-5,-76
17:35:14:637342,1,1,-7,-15,-16,-14,-44,-47
17:35:14:651581,-30,-6,-60,2,1,1,-1,-3
17:35:14:652358,-30,-6,-60,2,1,1,-1,-3
17:35:14:658329,-20,-13,6,-13,-7,-5,-14,-14
17:35:14:665860,-12,-12,4,-19,9,13,21,27
17:35:14:673350,-12,-12,4,-19,9,13,21,27
17:35:14:680860,37,9,14,-12,-6,-7,-1,59
17:35:14:688354,4,-12,-40,-2,-2,9,37,-4
17:35:14:696499,4,-12,-40,-2,-2,9,37,-4
17:35:14:697289,24,10,38,9,3,-2,13,-15
17:35:14:711496,-7,-6,-11,4,27,2,-22,-20
17:35:14:712316,-7,-6,-11,4,27,2,-22,-20
17:35:14:718335,36,-11,-60,1,-7,4,22,33
17:35:14:725877,0,5,20,7,1,-2,-15,-84
17:35:14:733366,0,5,20,7,1,-2,-15,-84
17:35:14:740803,0,4,4,-13,0,5,23,-2
17:35:14:748337,41,10,26,6,5,-8,-24,20
17:35:14:756530,41,10,26,6,5,-8,-24,20
17:35:14:757355,-10,18,41,18,-3,6,-8,-12
17:35:14:771553,12,1,-7,7,-18,-9,-20,-14
17:35:14:772337,12,1,-7,7,-18,-9,-20,-14
17:35:14:778304,-39,-21,-12,8,-4,-3,1,31
17:35:14:785904,-16,15,-7,-7,11,10,38,36
17:35:14:793401,-16,15,-7,-7,11,10,38,36
17:35:14:800884,-15,-12,5,8,-2,-1,6,-32
17:35:14:808313,-6,-22,39,-9,-23,-4,13,-15
17:35:14:815907,-6,-22,39,-9,-23,-4,13,-15
17:35:14:823307,-3,-5,11,8,-1,6,21,63
17:35:14:831550,39,9,26,-23,-5,3,4,73
17:35:14:832358,39,9,26,-23,-5,3,4,73
17:35:14:838326,5,-3,-7,-12,3,-5,-35,39
17:35:14:854047,4,-5,-19,-4,4,-1,-11,-71
17:35:14:854880,4,-5,-19,-4,4,-1,-11,-71
17:35:14:860863,-10,6,16,1,-4,-3,30,51
17:35:14:868320,-26,10,-15,5,2,-3,-27,3
17:35:14:875903,-26,10,-15,5,2,-3,-27,3
17:35:14:883312,-2,-6,5,31,-8,-10,-36,-28
17:35:14:891487,46,37,-31,-12,-7,-3,45,76
17:35:14:892315,46,37,-31,-12,-7,-3,45,76
17:35:14:898345,-10,1,0,-39,-4,-2,0,-9
17:35:14:914040,-51,-16,-18,-19,-18,-8,1,-39
17:35:14:914859,-51,-16,-18,-19,-18,-8,1,-39
17:35:14:920934,1,-15,-22,-12,3,0,33,17
17:35:14:928307,-16,-8,12,-39,-4,-13,-30,-11
17:35:14:935892,-16,-8,12,-39,-4,-13,-30,-11
17:35:14:952224,-1,41,40,22,10,1,-4,-29
17:35:14:953073,10,-25,6,5,-12,-5,34,104
17:35:14:953871,10,-25,6,5,-12,-5,34,104
17:35:14:958361,-3,-21,-31,-16,-10,-9,-14,33
17:35:14:974030,14,-8,-13,-8,21,6,-17,-3
17:35:14:974933,14,-8,-13,-8,21,6,-17,-3
17:35:14:980869,-12,-11,-21,17,4,1,17,5
17:35:14:988331,-1,-17,-18,13,5,5,13,19
17:35:14:995887,-1,-17,-18,13,5,5,13,19
17:35:15:3434,21,34,-14,-9,-16,-12,-48,-66
17:35:15:11485,38,21,48,-18,4,2,26,-42
17:35:15:12309,38,21,48,-18,4,2,26,-42
17:35:15:18342,-17,-9,-15,-9,1,2,5,-53
17:35:15:34060,8,-12,19,14,-6,4,13,56
17:35:15:34879,8,-12,19,14,-6,4,13,56
17:35:15:40846,-7,-19,-22,8,14,8,-8,-7
17:35:15:48323,35,11,-16,13,-2,3,-25,-23
17:35:15:55873,35,11,-16,13,-2,3,-25,-23
17:35:15:63340,-1,-25,6,4,8,4,-3,9
17:35:15:71499,17,24,52,17,-8,-11,-15,22
17:35:15:72320,17,24,52,17,-8,-11,-15,22
17:35:15:78293,-7,-4,17,16,0,1,-6,-5
17:35:15:94011,-20,-32,-42,-2,1,-3,12,56
17:35:15:94868,-20,-32,-42,-2,1,-3,12,56
17:35:15:100867,-29,-17,25,-28,-5,-4,8,14
17:35:15:108346,10,38,-13,20,6,-1,-7,29
17:35:15:115879,10,38,-13,20,6,-1,-7,29
17:35:15:123318,15,17,-30,21,11,14,26,24
17:35:15:131533,26,25,-41,-10,-4,-5,-9,-45
17:35:15:132336,26,25,-41,-10,-4,-5,-9,-45
17:35:15:138320,-11,15,-12,-6,-8,-3,8,26
17:35:15:153977,-10,-12,19,18,9,-5,-37,-20
17:35:15:154861,-10,-12,19,18,9,-5,-37,-20
17:35:15:160769,-13,12,39,4,8,4,13,-106
17:35:15:168365,-19,-12,-68,-8,-7,-2,22,-50
17:35:15:175926,-19,-12,-68,-8,-7,-2,22,-50
17:35:15:183331,13,27,35,2,-10,-3,0,30
17:35:15:191515,-48,6,30,-15,-11,3,12,-1
17:35:15:192338,-48,6,30,-15,-11,3,12,-1
17:35:15:198316,-12,-12,-24,10,14,7,-3,98
17:35:15:214026,10,-6,-55,0,2,-6,-20,-24
17:35:15:214862,10,-6,-55,0,2,-6,-20,-24
17:35:15:228947,8,2,1,-25,-19,-13,6,-12
17:35:15:229761,-35,5,12,5,-2,1,-28,-88
17:35:15:235901,-35,5,12,5,-2,1,-28,-88
17:35:15:243292,7,-15,-48,-17,-1,-8,-46,-31
17:35:15:251529,-15,-19,33,24,31,15,30,34
17:35:15:252330,-15,-19,33,24,31,15,30,34
17:35:15:258322,2,-20,-49,-33,-27,-7,10,-4
17:35:15:274032,3,5,12,60,24,0,-32,-68
17:35:15:274914,3,5,12,60,24,0,-32,-68
17:35:15:280806,-1,4,10,1,-4,3,4,5
17:35:15:288324,10,1,-10,-21,-11,5,33,127
17:35:15:295882,10,1,-10,-21,-11,5,33,127
17:35:15:303334,2,17,-3,26,5,-1,21,-15
17:35:15:311542,9,13,34,10,4,2,-1,-2
17:35:15:312368,9,13,34,10,4,2,-1,-2
17:35:15:318336,23,13,37,24,13,6,17,18
17:35:15:334014,-34,-30,-3,-28,-20,-8,-8,-12
17:35:15:334864,-34,-30,-3,-28,-20,-8,-8,-12
17:35:15:340888,-30,-62,-68,-36,-17,-4,32,-17
17:35:15:348334,-24,18,0,4,-2,-4,-11,-50
17:35:15:355902,-24,18,0,4,-2,-4,-11,-50
17:35:15:363310,-8,23,37,4,24,4,-22,53
17:35:15:371493,-10,-31,-21,-28,-12,-5,-4,36
17:35:15:372311,-10,-31,-21,-28,-12,-5,-4,36
17:35:15:378424,34,17,26,8,12,-12,-49,58
17:35:15:394067,13,-24,-24,23,24,15,15,42
17:35:15:394870,13,-24,-24,23,24,15,15,42
17:35:15:400885,-13,-10,24,11,-7,-6,15,-34
17:35:15:408314,13,-6,41,9,-16,-7,-10,-38
17:35:15:415900,13,-6,41,9,-16,-7,-10,-38
17:35:15:423339,-9,-14,2,3,17,8,-36,-73
17:35:15:431501,31,38,-14,-19,-8,-7,16,-22
17:35:15:432313,31,38,-14,-19,-8,-7,16,-22
17:35:15:438334,-21,-6,19,-7,-18,-8,-10,-11
17:35:15:453985,13,-11,-1,-5,-7,-9,-14,36
17:35:15:454870,13,-11,-1,-5,-7,-9,-14,36
17:35:15:460865,8,7,-3,-7,6,20,-4,50
17:35:15:468387,8,3,22,12,-3,-6,-10,9
17:35:15:475943,8,3,22,12,-3,-6,-10,9
17:35:15:483289,25,12,-14,13,0,-2,-10,-55
17:35:15:491517,-37,-39,9,24,24,15,-8,-33
17:35:15:492340,-37,-39,9,24,24,15,-8,-33
17:35:15:498301,-1,-3,6,19,-5,-4,13,10
17:35:15:513990,-18,-27,-9,-18,4,1,-2,-61
17:35:15:514867,-18,-27,-9,-18,4,1,-2,-61
17:35:15:520793,0,5,-49,3,23,10,20,-4
17:35:15:528289,-12,0,-3,-44,-18,-14,-36,-65
17:35:15:535887,-12,0,-3,-44,-18,-14,-36,-65
17:35:15:543291,43,-11,-65,-18,-21,-14,-25,-38
17:35:15:551577,17,26,-22,-6,-7,9,25,78
17:35:15:552400,17,26,-22,-6,-7,9,25,78
17:35:15:558328,-22,-8,51,12,0,3,19,-50
17:35:15:574020,2,-14,-48,3,20,0,-8,-37
17:35:15:574881,2,-14,-48,3,20,0,-8,-37
17:35:15:580845,-2,-14,10,42,6,-1,-12,-2
17:35:15:588312,18,10,-23,-32,-29,-13,-5,8
17:35:15:595895,18,10,-23,-32,-29,-13,-5,8
17:35:15:603321,2,4,27,-5,-3,-4,-9,-1
17:35:15:611553,21,8,-4,8,-1,6,53,36
17:35:15:612366,21,8,-4,8,-1,6,53,36
17:35:15:618334,27,-16,58,-14,-9,19,27,39
17:35:15:634029,-29,0,27,3,-5,-4,-15,-43
17:35:15:634881,-29,0,27,3,-5,-4,-15,-43
17:35:15:648975,-2,4,16,7,11,-7,-6,104
17:35:15:649758,2,1,-12,-13,-7,1,-30,74
17:35:15:655889,2,1,-12,-13,-7,1,-30,74
17:35:15:663334,4,0,-54,-32,-11,-10,-16,-32
17:35:15:671541,-11,-30,-27,22,-7,-3,27,-27
17:35:15:672359,-11,-30,-27,22,-7,-3,27,-27
17:35:15:678325,-5,20,4,-22,-3,12,16,-10
17:35:15:694017,5,5,9,16,5,2,7,24
17:35:15:694847,5,5,9,16,5,2,7,24
17:35:15:700855,-8,-5,6,-10,-4,-12,-3,-18
17:35:15:708299,-14,0,26,6,-6,1,9,2
17:35:15:715907,-14,0,26,6,-6,1,9,2
17:35:15:723326,-27,-14,14,-14,-26,-23,-53,-31
17:35:15:731479,-1,3,15,14,-7,-6,14,29
17:35:15:732309,-1,3,15,14,-7,-6,14,29
17:35:15:738357,-35,-5,-12,41,16,6,11,-36
17:35:15:754043,36,9,12,-15,-13,-10,-3,76
17:35:15:754872,36,9,12,-15,-13,-10,-3,76
17:35:15:760863,-2,-17,-10,-11,-2,-1,31,81
17:35:15:776534,12,9,36,-4,15,11,18,-43
17:35:15:777347,12,9,36,-4,15,11,18,-43
17:35:15:783306,44,12,-16,-8,-3,6,49,82
17:35:15:791543,0,17,5,-4,2,-5,-8,-9
17:35:15:792366,0,17,5,-4,2,-5,-8,-9
17:35:15:805798,-7,-22,-58,-6,1,-2,-19,-60
17:35:15:814030,-11,-11,-29,3,-4,-6,-39,-53
17:35:15:814870,-11,-11,-29,3,-4,-6,-39,-53
17:35:15:820864,12,19,-44,-7,-4,-5,-1,-50
17:35:15:836541,-18,-16,5,1,-1,-5,-6,80
17:35:15:837356,-18,-16,5,1,-1,-5,-6,80
17:35:15:843305,-43,-17,25,0,-7,-2,-22,-51
17:35:15:851541,-20,-24,6,10,11,6,23,-33
17:35:15:852403,-20,-24,6,10,11,6,23,-33
17:35:15:865808,1,5,27,3,1,5,6,46
17:35:15:874033,-15,9,-26,-4,-11,-8,-29,-105
17:35:15:874879,-15,9,-26,-4,-11,-8,-29,-105
17:35:15:888376,-26,1,-4,10,-1,4,2,-84
17:35:15:896533,-26,1,-4,10,-1,4,2,-84
17:35:15:897327,52,24,-40,-22,9,1,7,24
17:35:15:903317,-4,22,33,9,-17,-6,8,11
17:35:15:911721,-4,22,33,9,-17,-6,8,11
17:35:15:912340,0,-14,3,-8,2,-4,-21,50
17:35:15:925793,16,25,13,-15,-13,-13,-23,1
17:35:15:934042,16,25,13,-15,-13,-13,-23,1
17:35:15:934866,-28,4,19,21,-5,-1,18,-15
17:35:15:940813,-21,3,-11,-6,-6,-8,-17,-58
17:35:15:956557,-21,3,-11,-6,-6,-8,-17,-58
17:35:15:957332,-4,-7,1,-7,1,7,47,40
17:35:15:963302,18,-9,23,7,-5,-4,-7,-23
17:35:15:971534,18,-9,23,7,-5,-4,-7,-23
17:35:15:972331,10,10,35,-7,3,9,-13,-8
17:35:15:985885,-3,13,22,9,9,2,7,70
17:35:15:994031,-3,13,22,9,9,2,7,70
17:35:15:994915,8,10,38,4,2,0,-51,-16
17:35:16:920,15,41,47,8,15,3,-20,5
17:35:16:16508,15,41,47,8,15,3,-20,5
17:35:16:17314,-16,-20,-38,3,17,7,7,-39
17:35:16:23416,-21,-38,-3,-5,-5,-2,6,-37
17:35:16:31526,-21,-38,-3,-5,-5,-2,6,-37
17:35:16:32316,2,-4,-6,-19,-10,-5,-19,37
17:35:16:45873,6,-10,-44,12,4,-13,-21,8
17:35:16:54053,6,-10,-44,12,4,-13,-21,8
17:35:16:54899,-16,-3,21,8,-1,-1,-9,0
17:35:16:60864,35,-26,-14,-16,2,7,-7,-14
17:35:16:76547,35,-26,-14,-16,2,7,-7,-14
17:35:16:77310,-9,10,48,-24,-12,-9,-18,-64
17:35:16:83347,21,12,-5,-2,13,12,25,16
17:35:16:99072,21,12,-5,-2,13,12,25,16
17:35:16:99863,22,-7,-72,4,12,14,30,49
17:35:16:105944,-12,9,-1,-18,-22,-10,-3,-9
17:35:16:113984,-12,9,-1,-18,-22,-10,-3,-9
17:35:16:114864,-13,-1,-20,10,-11,-12,-3,-80
17:35:16:120870,20,-16,-28,26,17,5,19,27
17:35:16:136573,20,-16,-28,26,17,5,19,27
17:35:16:137338,5,-9,1,-1,4,-3,-8,-36
17:35:16:143320,-9,12,28,-24,-9,0,-7,-49
17:35:16:151503,-9,12,28,-24,-9,0,-7,-49
17:35:16:152314,-38,-7,-6,-3,-6,-6,23,71
17:35:16:165882,-23,5,17,-11,0,-3,-9,18
17:35:16:174056,-23,5,17,-11,0,-3,-9,18
17:35:16:174865,31,16,-52,-18,-12,0,1,34
17:35:16:180876,3,8,-46,-8,5,2,24,39
17:35:16:196551,3,8,-46,-8,5,2,24,39
17:35:16:197336,-2,19,16,-11,1,-2,-15,-48
17:35:16:203323,-3,-27,31,12,1,3,2,-10
17:35:16:211517,-3,-27,31,12,1,3,2,-10
17:35:16:212279,5,-13,13,10,-2,-7,8,-3
17:35:16:225814,17,-11,-8,-19,-3,-2,4,-73
17:35:16:234056,17,-11,-8,-19,-3,-2,4,-73
17:35:16:234866,9,17,23,57,3,-5,-7,-10
17:35:16:240867,-21,-15,-34,2,6,1,-5,1
17:35:16:256582,-21,-15,-34,2,6,1,-5,1
17:35:16:257348,-11,-13,-50,-19,2,1,16,-31
17:35:16:263318,-18,51,31,13,8,1,-17,-7
17:35:16:271538,-18,51,31,13,8,1,-17,-7
17:35:16:272325,-7,-18,22,-14,-2,1,2,23
17:35:16:285826,-30,-31,14,23,14,2,3,61
17:35:16:294023,-30,-31,14,23,14,2,3,61
17:35:16:294887,-16,-10,-4,-8,9,4,-16,-71
17:35:16:300878,26,-12,-4,-2,-7,-5,-50,48
17:35:16:316536,26,-12,-4,-2,-7,-5,-50,48
17:35:16:317327,0,-8,-18,1,0,0,-8,-2
17:35:16:323295,8,32,33,-1,-19,1,36,18
17:35:16:331553,8,32,33,-1,-19,1,36,18
17:35:16:332340,8,-1,0,1,1,2,22,40
17:35:16:345807,-14,-15,-2,-13,2,-1,-14,-3
17:35:16:354039,-14,-15,-2,-13,2,-1,-14,-3
17:35:16:354869,5,3,38,-4,8,8,-35,-44
17:35:16:360806,0,-2,-16,-8,-7,-9,-19,0
17:35:16:376535,0,-2,-16,-8,-7,-9,-19,0
17:35:16:377319,-11,7,14,4,5,-3,-30,-28
17:35:16:383310,11,7,-40,-19,-4,0,35,65
17:35:16:391537,11,7,-40,-19,-4,0,35,65
17:35:16:392327,10,-3,-14,33,-1,-12,-73,44
17:35:16:405901,-16,-3,16,10,-1,0,9,36
17:35:16:414025,-16,-3,16,10,-1,0,9,36
17:35:16:414890,-10,-4,-26,-40,-22,-9,13,-44
17:35:16:420796,-9,-1,-1,10,3,3,-10,-51
17:35:16:436543,-9,-1,-1,10,3,3,-10,-51
17:35:16:437333,-32,-21,43,-21,-15,-9,-7,-68
17:35:16:443346,32,13,38,11,4,-6,-8,13
17:35:16:451525,32,13,38,11,4,-6,-8,13
17:35:16:452316,3,16,7,6,3,8,-24,-7
17:35:16:465893,6,-21,-45,1,-6,0,31,32
17:35:16:474052,6,-21,-45,1,-6,0,31,32
17:35:16:474877,9,3,-28,6,-3,-4,25,24
17:35:16:480817,0,-13,-24,-5,-8,-7,-31,64
17:35:16:496504,0,-13,-24,-5,-8,-7,-31,64
17:35:16:497366,20,30,-16,-29,-6,0,32,63
17:35:16:503354,12,13,0,-5,0,3,-7,-15
17:35:16:511547,12,13,0,-5,0,3,-7,-15
17:35:16:512330,-20,-17,31,16,6,-2,18,23
17:35:16:525867,-8,-18,-33,-20,-6,-2,-5,-45
17:35:16:534018,-8,-18,-33,-20,-6,-2,-5,-45
17:35:16:534876,12,-15,-4,-6,4,5,-1,4
17:35:16:540893,-24,-26,8,0,-2,-3,-32,-124
17:35:16:556541,-24,-26,8,0,-2,-3,-32,-124
17:35:16:557322,-9,13,-7,-22,-4,-8,-14,-2
17:35:16:563308,-13,15,-27,-1,4,12,44,16
17:35:16:571510,-13,15,-27,-1,4,12,44,16
17:35:16:572306,2,-4,-15,40,-5,-9,-7,31
17:35:16:585885,-14,7,9,4,8,1,13,2
17:35:16:594040,-14,7,9,4,8,1,13,2
17:35:16:594880,51,11,14,-19,-19,-5,4,40
17:35:16:600879,10,-9,-39,-12,-2,-1,31,-2
17:35:16:616588,10,-9,-39,-12,-2,-1,31,-2
17:35:16:617366,-12,-10,65,39,27,16,43,-17
17:35:16:623343,-21,-8,19,-10,-1,-4,-26,-46
17:35:16:631491,-21,-8,19,-10,-1,-4,-26,-46
17:35:16:632335,16,-12,-55,-20,8,7,-22,-16
17:35:16:645895,-40,3,-48,10,-1,-7,10,-2
17:35:16:654048,-40,3,-48,10,-1,-7,10,-2
17:35:16:654922,-3,7,12,9,0,1,38,17
17:35:16:660865,3,6,2,5,2,2,2,-14
17:35:16:676584,3,6,2,5,2,2,2,-14
17:35:16:677411,-12,-14,-62,-20,-5,1,5,11
17:35:16:683322,22,-11,52,-5,-8,-2,17,17
17:35:16:691565,22,-11,52,-5,-8,-2,17,17
17:35:16:692352,2,9,50,-3,2,1,-1,43
17:35:16:705809,0,-5,11,-3,1,0,10,-22
17:35:16:714045,0,-5,11,-3,1,0,10,-22
17:35:16:714870,-8,25,57,1,2,0,-9,-12
17:35:16:728309,10,16,16,6,-9,-9,-36,-39
17:35:16:736600,10,16,16,6,-9,-9,-36,-39
17:35:16:737345,-20,13,-13,-1,-4,3,-4,-67
17:35:16:743325,15,-8,-16,-3,-1,0,-5,4
17:35:16:750860,15,-8,-16,-3,-1,0,-5,4
17:35:16:758339,-13,0,-4,11,8,5,32,-22
17:35:16:765896,7,6,-22,-10,5,6,12,25
17:35:16:774045,7,6,-22,-10,5,6,12,25
17:35:16:774876,-4,-30,-35,-4,-5,-3,-3,14
17:35:16:788317,-6,6,-5,0,6,-2,-8,-68
17:35:16:796571,-6,6,-5,0,6,-2,-8,-68
17:35:16:797350,38,-8,-18,-22,-33,-7,48,53
17:35:16:803330,7,-2,40,10,5,2,-15,16
17:35:16:810895,7,-2,40,10,5,2,-15,16
17:35:16:818365,-6,24,13,7,-12,-10,-33,-53
17:35:16:825902,25,8,-5,-9,-13,-5,32,26
17:35:16:834003,25,8,-5,-9,-13,-5,32,26
17:35:16:834871,1,-4,9,3,6,-1,-12,-24
17:35:16:848347,-18,25,2,-11,-24,-12,-9,30
17:35:16:856518,-18,25,2,-11,-24,-12,-9,30
17:35:16:857300,8,-21,-5,0,1,-6,-12,-12
17:35:16:863324,2,-15,-36,-28,-18,-4,-7,13
17:35:16:870907,2,-15,-36,-28,-18,-4,-7,13
17:35:16:878263,-8,13,29,-2,-11,-7,2,11
17:35:16:885881,13,23,21,54,15,5,11,20
17:35:16:894038,13,23,21,54,15,5,11,20
17:35:16:894868,-10,4,0,-1,8,2,25,-14
17:35:16:908349,22,14,-27,-7,3,14,9,102
17:35:16:917251,22,14,-27,-7,3,14,9,102
17:35:16:918021,0,-9,-34,26,13,0,-3,8
17:35:16:923273,-30,-38,-21,2,2,-5,-16,-24
17:35:16:930861,-30,-38,-21,2,2,-5,-16,-24
17:35:16:938309,22,9,30,5,0,9,6,112
17:35:16:945801,-12,9,33,-7,3,0,1,-24
17:35:16:954072,-12,9,33,-7,3,0,1,-24
17:35:16:954881,-25,-8,-18,-5,-3,-7,-29,-20
17:35:16:968294,-6,-3,-13,-2,0,-2,-13,2
17:35:16:976527,-6,-3,-13,-2,0,-2,-13,2
17:35:16:977305,-8,2,43,-20,-14,-8,-18,-52
17:35:16:983301,26,-8,-6,3,4,3,-1,13
17:35:16:990883,26,-8,-6,3,4,3,-1,13
17:35:16:998285,5,-4,-33,-4,-2,-5,-39,-27
17:35:17:5848,9,1,-12,-8,-2,-3,-4,-50
17:35:17:14055,9,1,-12,-8,-2,-3,-4,-50
17:35:17:14859,-2,-7,4,10,-9,-6,6,32
17:35:17:28307,-31,-6,0,15,6,-4,-15,-55
17:35:17:36535,-31,-6,0,15,6,-4,-15,-55
17:35:17:37373,5,15,2,-9,-4,-3,5,7
17:35:17:43309,-11,2,56,0,4,5,2,-39
17:35:17:50869,-11,2,56,0,4,5,2,-39
17:35:17:58346,-17,-3,-3,5,16,6,10,-2
17:35:17:65866,-26,-45,-26,-36,-14,-1,16,35
17:35:17:74084,-26,-45,-26,-36,-14,-1,16,35
17:35:17:74881,-9,-20,-35,9,-5,11,24,-15
17:35:17:88318,-2,1,27,10,-2,-4,-20,-102
17:35:17:96541,-2,1,27,10,-2,-4,-20,-102
17:35:17:97363,-6,-4,-7,15,15,0,-20,-8
17:35:17:103318,41,3,14,15,13,4,16,27
17:35:17:110985,41,3,14,15,13,4,16,27
17:35:17:118348,29,0,5,-1,-1,-9,-28,12
17:35:17:125894,-21,-22,-22,-9,0,3,-3,5
17:35:17:134013,-21,-22,-22,-9,0,3,-3,5
17:35:17:134866,11,18,30,-3,5,-7,-47,-48
17:35:17:148390,1,8,50,-3,1,-2,-14,42
17:35:17:156513,1,8,50,-3,1,-2,-14,42
17:35:17:157314,3,-5,-16,-17,-19,-10,-15,-56
17:35:17:163338,-4,13,18,-7,5,0,10,-7
17:35:17:170909,-4,13,18,-7,5,0,10,-7
17:35:17:178287,15,4,-15,-11,-10,3,11,-27
17:35:17:185789,-7,6,21,3,1,-4,4,-13
17:35:17:194029,-7,6,21,3,1,-4,4,-13
17:35:17:194881,3,3,32,5,2,9,32,68
17:35:17:208332,8,-21,-2,7,1,5,37,20
17:35:17:216500,8,-21,-2,7,1,5,37,20
17:35:17:217325,-15,-14,-6,-15,21,4,-27,4
17:35:17:223274,-44,-20,-28,-9,-11,-4,-16,-36
17:35:17:230891,-44,-20,-28,-9,-11,-4,-16,-36
17:35:17:238307,-15,-30,0,-3,9,6,38,17
17:35:17:245826,-9,7,-49,12,4,-3,0,4
17:35:17:254039,-9,7,-49,12,4,-3,0,4
17:35:17:254876,-1,2,22,9,4,7,47,23
17:35:17:268278,17,16,12,7,-7,3,28,55
17:35:17:276555,17,16,12,7,-7,3,28,55
17:35:17:277310,34,28,16,-3,-7,-7,-19,-48
17:35:17:283301,-2,-21,-29,-6,-4,3,59,32
17:35:17:290982,-2,-21,-29,-6,-4,3,59,32
17:35:17:298292,-37,-19,-10,-19,0,4,-4,-6
17:35:17:305811,17,-4,-22,-21,-1,-12,-84,-15
17:35:17:314067,17,-4,-22,-21,-1,-12,-84,-15
17:35:17:314859,6,-7,-19,-6,-2,-1,24,96
17:35:17:328322,-5,6,1,19,2,-2,-24,-5
17:35:17:336556,-5,6,1,19,2,-2,-24,-5
17:35:17:337352,-1,-3,3,10,-5,1,37,10
17:35:17:343304,-14,-7,25,17,14,6,-11,15
17:35:17:350878,-14,-7,25,17,14,6,-11,15
17:35:17:358348,-5,2,-12,-6,1,6,8,43
17:35:17:365883,-3,2,-49,-43,-13,-9,-14,51
17:35:17:374051,-3,2,-49,-43,-13,-9,-14,51
17:35:17:374879,-8,-15,-21,9,0,-2,-24,-33
17:35:17:388321,16,-16,12,-6,3,-8,-32,-25
17:35:17:396559,16,-16,12,-6,3,-8,-32,-25
17:35:17:397456,0,-16,-20,-3,-13,-7,0,-27
17:35:17:403329,36,4,-22,0,-5,2,3,-30
17:35:17:410908,36,4,-22,0,-5,2,3,-30
17:35:17:418363,1,20,28,-6,1,-4,-22,-57
17:35:17:425888,0,36,53,3,-10,-6,-31,31
17:35:17:433889,0,36,53,3,-10,-6,-31,31
17:35:17:440798,-4,12,-58,7,12,8,2,-23
17:35:17:448295,-26,-28,1,-8,0,-4,-6,-16
17:35:17:456533,-26,-28,1,-8,0,-4,-6,-16
17:35:17:457315,0,-36,-28,-13,-2,-11,-35,-8
17:35:17:463305,18,15,-2,14,1,0,49,23
17:35:17:470896,18,15,-2,14,1,0,49,23
17:35:17:478312,-27,-7,-53,-13,-10,-13,-9,-2
17:35:17:485833,-1,18,-12,-9,1,3,27,-18
17:35:17:494581,-1,18,-12,-9,1,3,27,-18
17:35:17:494890,53,47,48,7,0,2,-23,4
17:35:17:508327,-26,-9,11,-17,-17,-8,-49,-78
17:35:17:516532,-26,-9,11,-17,-17,-8,-49,-78
17:35:17:517341,-20,1,-9,-25,-8,-6,-2,-2
17:35:17:523341,23,37,7,-13,-16,-3,19,17
17:35:17:530895,23,37,7,-13,-16,-3,19,17
17:35:17:538345,20,19,40,-15,-7,3,15,23
17:35:17:545794,13,-1,-17,17,0,1,6,-38
17:35:17:561553,13,-1,-17,17,0,1,6,-38
17:35:17:562335,-34,-62,-5,9,4,-3,-2,-15
17:35:17:568308,-9,-40,-3,18,7,-6,-54,-94
17:35:17:576563,-9,-40,-3,18,7,-6,-54,-94
17:35:17:577338,11,-3,8,-10,-11,-6,-9,17
17:35:17:583380,-3,27,13,3,-1,6,76,9
17:35:17:591011,-3,27,13,3,-1,6,76,9
17:35:17:598318,2,12,-3,23,3,-1,-1,56
17:35:17:605891,-5,9,-8,0,-1,1,15,13
17:35:17:613996,-5,9,-8,0,-1,1,15,13
17:35:17:614894,0,6,-6,-2,0,3,57,48
17:35:17:628342,12,-17,-24,5,-3,6,0,32
17:35:17:636518,12,-17,-24,5,-3,6,0,32
17:35:17:637303,-6,6,-13,-12,-6,-8,-36,-60
17:35:17:643313,-6,-13,-53,-8,2,0,10,-50
17:35:17:650904,-6,-13,-53,-8,2,0,10,-50
17:35:17:658287,-8,0,20,5,-5,1,28,67
17:35:17:665768,-1,5,-10,-20,12,1,-17,33
17:35:17:673363,-1,5,-10,-20,12,1,-17,33
17:35:17:680806,29,1,37,15,1,0,-22,8
17:35:17:688313,-9,-6,18,6,2,-4,1,-17
17:35:17:696522,-9,-6,18,6,2,-4,1,-17
17:35:17:697327,-35,-19,-42,-26,-13,-5,15,-42
17:35:17:711518,7,-4,4,9,6,0,-7,11
17:35:17:712332,7,-4,4,9,6,0,-7,11
17:35:17:718309,12,27,10,-2,-5,-3,-1,-29
17:35:17:725894,23,34,9,-2,-9,-12,-40,59
17:35:17:733386,23,34,9,-2,-9,-12,-40,59
17:35:17:740808,-5,-18,-13,7,6,-1,-16,64
17:35:17:748320,26,10,-11,-2,-8,8,20,5
17:35:17:756567,26,10,-11,-2,-8,8,20,5
17:35:17:757358,14,18,6,18,8,1,28,-26
17:35:17:771515,-26,-23,28,22,23,3,-14,-14
17:35:17:772361,-26,-23,28,22,23,3,-14,-14
17:35:17:778312,-16,-7,-7,9,-6,-5,-26,-128
17:35:17:785821,-26,-24,-22,-6,-14,-9,-40,-25
17:35:17:793413,-26,-24,-22,-6,-14,-9,-40,-25
17:35:17:800882,5,-6,-14,-4,6,1,-3,3
17:35:17:808331,-6,2,7,2,2,-2,23,67
17:35:17:816524,-6,2,7,2,2,-2,23,67
17:35:17:817299,-6,23,72,20,4,0,-12,32
17:35:17:839718,-35,-43,3,-19,-10,-6,-6,-8
17:35:17:840504,-35,-43,3,-19,-10,-6,-6,-8
17:35:17:841298,9,10,4,-8,-5,-1,28,46
17:35:17:845816,12,1,-6,-6,14,13,18,61
17:35:17:853447,12,1,-6,-6,14,13,18,61
17:35:17:860899,-13,-9,-21,-10,0,2,4,-22
17:35:17:868313,-3,14,14,-17,-9,2,-8,-76
17:35:17:876481,-3,14,14,-17,-9,2,-8,-76
17:35:17:877303,-18,13,-3,9,1,-1,-14,24
17:35:17:891540,6,5,35,7,2,7,44,-4
17:35:17:892355,6,5,35,7,2,7,44,-4
17:35:17:898332,22,-16,23,8,-2,4,3,10
17:35:17:905836,-4,-2,20,16,-5,-5,18,-15
17:35:17:913332,-4,-2,20,16,-5,-5,18,-15
17:35:17:920885,5,16,-7,-14,-6,4,-12,-48
17:35:17:928362,12,18,8,5,4,-1,-15,-25
17:35:17:936517,12,18,8,5,4,-1,-15,-25
17:35:17:937303,-28,-28,-20,-3,9,-1,11,4
17:35:17:951504,-11,5,-29,6,7,6,10,8
17:35:17:952289,-11,5,-29,6,7,6,10,8
17:35:17:958347,-16,-33,-47,-5,-7,-7,-47,-60
17:35:17:965871,-2,-7,-41,-38,0,1,4,75
17:35:17:973343,-2,-7,-41,-38,0,1,4,75
17:35:17:980858,14,-15,0,16,3,5,43,58
17:35:17:988290,1,18,24,11,15,6,-5,-8
17:35:17:996525,1,18,24,11,15,6,-5,-8
17:35:17:997409,2,20,-35,-18,-4,-4,-10,-27
17:35:18:11490,13,9,18,2,-13,-8,7,34
17:35:18:12328,13,9,18,2,-13,-8,7,34
17:35:18:18269,-15,13,24,-17,6,10,11,-12
17:35:18:25773,22,-22,39,17,3,0,-23,-26
17:35:18:33368,22,-22,39,17,3,0,-23,-26
17:35:18:40888,1,-1,-3,-12,-13,-11,-17,-19
17:35:18:48287,-9,7,-36,-2,-11,-11,-6,-2
17:35:18:56634,-9,7,-36,-2,-11,-11,-6,-2
17:35:18:57322,-1,-22,-25,9,9,5,26,32
17:35:18:71525,-32,-19,-29,-14,-15,-7,-7,6
17:35:18:72329,-32,-19,-29,-14,-15,-7,-7,6
17:35:18:78315,21,1,18,26,3,2,9,40
17:35:18:85793,-9,9,13,0,-5,-1,-10,-17
17:35:18:93342,-9,9,13,0,-5,-1,-10,-17
17:35:18:100809,11,2,35,-16,-7,-1,20,50
17:35:18:108320,7,-20,-5,0,-3,1,57,85
17:35:18:116545,7,-20,-5,0,-3,1,57,85
17:35:18:117362,24,8,12,14,-6,-16,-56,-75
17:35:18:131520,13,8,36,11,15,6,-26,-126
17:35:18:132316,13,8,36,11,15,6,-26,-126
17:35:18:138301,-17,-20,-25,-6,-10,-4,3,26
17:35:18:145824,-1,5,10,3,7,2,-27,-44
17:35:18:161574,-1,5,10,3,7,2,-27,-44
17:35:18:162334,-19,-23,-15,44,8,1,-7,-31
17:35:18:168314,-15,-5,-55,-9,2,10,50,94
17:35:18:176536,-15,-5,-55,-9,2,10,50,94
17:35:18:177366,15,24,21,-13,-3,-5,-20,15
17:35:18:191527,-31,-28,-23,16,15,-3,-16,-58
17:35:18:192338,-31,-28,-23,16,15,-3,-16,-58
17:35:18:198316,-22,-27,-9,-12,-11,-7,-27,48
17:35:18:205852,24,18,-5,-11,-4,0,13,8
17:35:18:213365,24,18,-5,-11,-4,0,13,8
17:35:18:220818,8,3,18,-7,0,6,21,35
17:35:18:228322,-18,-12,10,-9,-28,-18,-37,-48
17:35:18:236546,-18,-12,10,-9,-28,-18,-37,-48
17:35:18:237352,2,27,18,-14,1,4,6,-8
17:35:18:251535,14,21,26,-18,1,-5,-82,7
17:35:18:252369,14,21,26,-18,1,-5,-82,7
17:35:18:258343,-38,-14,-1,-9,-6,0,45,23
17:35:18:265813,9,21,49,17,-1,-8,-14,-5
17:35:18:281564,9,21,49,17,-1,-8,-14,-5
17:35:18:282332,-22,-2,22,-15,-14,-3,-2,-12
17:35:18:288313,-29,-26,18,1,-12,-5,14,31
17:35:18:296538,-29,-26,18,1,-12,-5,14,31
17:35:18:297329,9,15,-20,5,3,-1,14,15
17:35:18:311550,20,-13,-25,7,-1,-1,-7,-15
17:35:18:312322,20,-13,-25,7,-1,-1,-7,-15
17:35:18:318312,9,-3,-1,15,4,2,-22,-112
17:35:18:325815,-11,33,-33,-3,0,2,25,-10
17:35:18:333391,-11,33,-33,-3,0,2,25,-10
17:35:18:340823,8,-6,-32,-18,-5,-13,-39,8
17:35:18:348309,2,-1,-11,1,3,-3,-15,-53
17:35:18:356542,2,-1,-11,1,3,-3,-15,-53
17:35:18:357354,-14,6,17,13,1,3,7,3
17:35:18:371522,-40,-15,-3,-7,-1,2,25,-51
17:35:18:372359,-40,-15,-3,-7,-1,2,25,-51
17:35:18:378306,26,-10,14,-4,-3,-2,5,16
17:35:18:385820,2,2,-21,0,-3,-3,10,-7
17:35:18:393392,2,2,-21,0,-3,-3,10,-7
17:35:18:400872,-16,-5,-14,-2,8,5,6,-66
17:35:18:408333,45,-6,69,25,11,6,22,6
17:35:18:416517,45,-6,69,25,11,6,22,6
17:35:18:417310,25,16,-14,-10,0,0,-5,-80
17:35:18:431484,32,7,-29,6,9,3,-3,106
17:35:18:432327,32,7,-29,6,9,3,-3,106
17:35:18:438348,-10,0,53,2,-3,-2,0,-15
17:35:18:445901,-21,-10,-42,-15,-7,0,-1,43
17:35:18:453368,-21,-10,-42,-15,-7,0,-1,43
17:35:18:460921,-23,-16,-36,-6,3,4,-5,-5
17:35:18:468407,-19,4,19,-5,-6,-7,-2,-88
17:35:18:476540,-19,4,19,-5,-6,-7,-2,-88
17:35:18:477384,46,27,7,-4,-2,-1,6,11
17:35:18:491554,8,-32,19,-4,-7,-3,-40,-20
17:35:18:492338,8,-32,19,-4,-7,-3,-40,-20
17:35:18:498383,36,21,42,21,-11,-12,-13,38
17:35:18:505921,11,5,-19,-6,-3,7,35,103
17:35:18:513444,11,5,-19,-6,-3,7,35,103
17:35:18:520827,-21,-36,-48,-8,-11,-3,-4,50
17:35:18:528309,-17,10,-3,-11,-5,-6,-5,-57
17:35:18:536587,-17,10,-3,-11,-5,-6,-5,-57
17:35:18:537341,-44,-11,-9,8,6,12,24,12
17:35:18:551926,-9,-23,-72,-20,-10,-5,3,23
17:35:18:559039,-9,-23,-72,-20,-10,-5,3,23
17:35:18:559880,-10,-4,0,-4,2,-11,-35,0
17:35:18:565796,-10,6,11,17,1,-5,-12,-11
17:35:18:573389,-10,6,11,17,1,-5,-12,-11
17:35:18:580817,-4,-15,-26,8,7,7,6,-31
17:35:18:588350,14,19,6,-11,-6,0,0,-19
17:35:18:595899,14,19,6,-11,-6,0,0,-19
17:35:18:603365,-20,24,-10,12,21,4,11,-33
17:35:18:611595,13,-8,-26,-24,-8,-7,-34,31
17:35:18:612351,13,-8,-26,-24,-8,-7,-34,31
17:35:18:618330,-2,-3,-16,-5,-2,-4,-4,-13
17:35:18:634050,-17,-1,12,7,12,2,13,-40
17:35:18:634890,-17,-1,12,7,12,2,13,-40
17:35:18:640875,0,27,-12,-11,-7,-11,-31,36
17:35:18:648324,-7,-9,8,-10,-5,-12,-38,27
17:35:18:655892,-7,-9,8,-10,-5,-12,-38,27
17:35:18:663339,8,24,14,1,-6,1,14,9
17:35:18:679703,18,21,32,0,-16,-4,11,-12
17:35:18:680507,18,21,32,0,-16,-4,11,-12
17:35:18:681305,-10,-15,21,14,16,10,28,9
17:35:18:694042,-24,-24,-3,71,36,12,59,-13
17:35:18:694886,-24,-24,-3,71,36,12,59,-13
17:35:18:700804,-14,-36,-7,1,3,5,9,-42
17:35:18:708313,-19,-9,19,5,0,-3,18,29
17:35:18:715898,-19,-9,19,5,0,-3,18,29
17:35:18:723329,10,-2,-1,-1,1,4,-24,-57
17:35:18:731505,-3,-4,-28,-31,-10,-5,-15,-8
17:35:18:732326,-3,-4,-28,-31,-10,-5,-15,-8
17:35:18:738407,-28,-24,-13,-35,-8,1,26,5
17:35:18:754057,31,28,-57,-19,-10,0,13,37
17:35:18:754917,31,28,-57,-19,-10,0,13,37
17:35:18:760824,41,35,0,-14,-10,-9,-28,15
17:35:18:768320,18,3,-7,3,1,3,21,35
17:35:18:775940,18,3,-7,3,1,3,21,35
17:35:18:783356,-24,-15,29,7,3,-1,-2,-15
17:35:18:799670,-19,-19,16,-17,-1,-6,-56,1
17:35:18:800465,-19,-19,16,-17,-1,-6,-56,1
17:35:18:801248,-7,8,-6,-13,-8,-6,-2,2
17:35:18:814023,-28,-22,-3,4,-3,-1,0,-50
17:35:18:814900,-28,-22,-3,4,-3,-1,0,-50
17:35:18:820843,-2,-5,-9,15,12,5,5,14
17:35:18:836540,9,-4,-26,-1,-2,0,8,35
17:35:18:837354,9,-4,-26,-1,-2,0,8,35
17:35:18:843328,9,10,2,-18,-2,-3,-15,61
17:35:18:851535,-2,-48,-29,-16,-6,7,69,96
17:35:18:852369,-2,-48,-29,-16,-6,7,69,96
17:35:18:858326,2,-7,33,7,-2,-6,10,44
17:35:18:874064,18,42,29,-17,2,8,-39,-28
17:35:18:874891,18,42,29,-17,2,8,-39,-28
17:35:18:880898,-13,-32,-21,11,1,3,12,17
17:35:18:888324,2,-4,-18,34,16,0,-6,-46
17:35:18:895887,2,-4,-18,34,16,0,-6,-46
17:35:18:903335,11,-12,-20,-11,-10,0,-33,-90
17:35:18:911461,7,16,19,-2,0,-8,-22,43
17:35:18:912338,7,16,19,-2,0,-8,-22,43
17:35:18:918344,-9,-7,-1,8,-9,-14,-17,26
17:35:18:933736,-11,-1,3,18,-7,-7,-32,-18
17:35:18:941556,-11,-1,3,18,-7,-7,-32,-18
17:35:18:942422,21,3,-5,0,2,0,14,-32
17:35:18:956524,7,10,35,7,8,0,-5,-33
17:35:18:957349,7,10,35,7,8,0,-5,-33
17:35:18:963340,1,15,19,5,5,11,1,24
17:35:18:971567,-23,-30,-37,-28,-1,0,-7,-19
17:35:18:972351,-23,-30,-37,-28,-1,0,-7,-19
17:35:18:978358,1,56,44,1,4,8,45,69
17:35:18:994033,-18,-17,-24,-18,-5,0,-21,-28
17:35:18:994895,-18,-17,-24,-18,-5,0,-21,-28
17:35:19:807,-5,-26,-38,3,0,1,-4,-74
17:35:19:8335,-2,-31,-2,5,13,6,16,-11
17:35:19:15900,-2,-31,-2,5,13,6,16,-11
17:35:19:23335,-2,-19,-2,13,1,-4,3,19
17:35:19:31488,-43,-1,31,-2,-9,2,38,51
17:35:19:32330,-43,-1,31,-2,-9,2,38,51
17:35:19:38364,8,-19,-22,-16,0,-1,40,24
17:35:19:54055,27,30,24,14,14,2,-3,-12
17:35:19:54898,27,30,24,14,14,2,-3,-12
17:35:19:60803,24,45,-12,0,-5,-7,0,-15
17:35:19:68318,43,38,25,-18,4,15,67,127
17:35:19:75906,43,38,25,-18,4,15,67,127
17:35:19:83345,-9,-14,0,-4,3,-2,-19,-61
17:35:19:91545,-42,-11,-25,-13,-13,-1,3,-9
17:35:19:92327,-42,-11,-25,-13,-13,-1,3,-9
17:35:19:98291,-13,-31,0,-13,-9,-4,-15,26
17:35:19:114451,22,0,22,-4,-12,-10,-34,-102
17:35:19:115287,22,0,22,-4,-12,-10,-34,-102
17:35:19:120894,17,-17,3,6,-1,-4,9,91
17:35:19:128340,19,3,-15,-8,-5,0,48,76
17:35:19:135929,19,3,-15,-8,-5,0,48,76
17:35:19:143348,-28,-1,5,1,9,5,-23,-39
17:35:19:151528,27,15,21,20,3,19,47,49
17:35:19:152350,27,15,21,20,3,19,47,49
17:35:19:158300,-1,4,41,20,0,3,47,113
17:35:19:174048,-1,4,41,20,0,3,47,113
17:35:19:174944,-5,-33,-24,-25,-4,-11,-54,-101
17:35:19:180802,-2,48,20,11,-3,-9,-44,-80
17:35:19:196520,-2,48,20,11,-3,-9,-44,-80
17:35:19:197378,6,-7,74,83,-3,-12,-28,-20
17:35:19:203387,-6,-20,15,-2,-8,-7,-6,-44
17:35:19:211528,-6,-20,15,-2,-8,-7,-6,-44
17:35:19:212309,-31,4,-24,-19,-6,-10,-34,-19
17:35:19:218324,9,-25,-78,-40,-4,-3,8,-23
17:35:19:234025,9,-25,-78,-40,-4,-3,8,-23
17:35:19:234887,48,35,7,19,3,0,-33,-72
17:35:19:240916,19,-2,-34,-7,3,12,9,29
17:35:19:256570,19,-2,-34,-7,3,12,9,29
17:35:19:257287,-22,-5,8,-2,-4,-14,-42,-73
17:35:19:263317,-17,-23,-4,4,-4,-6,-10,-4
17:35:19:271520,-17,-23,-4,4,-4,-6,-10,-4
17:35:19:272313,-10,10,-27,-7,0,-1,9,20
17:35:19:278304,-27,-17,-10,-3,1,-5,13,-39
17:35:19:294049,-27,-17,-10,-3,1,-5,13,-39
17:35:19:294863,15,3,-5,-14,-6,-5,-28,-25
17:35:19:300897,26,36,23,14,-1,-2,-19,-27
17:35:19:316562,26,36,23,14,-1,-2,-19,-27
17:35:19:317341,-24,-17,-8,6,-2,-4,46,106
17:35:19:323334,-4,-10,-12,-20,-5,-5,-18,-57
17:35:19:331510,-4,-10,-12,-20,-5,-5,-18,-57
17:35:19:332321,-18,10,-2,-3,0,3,-18,-80
17:35:19:338325,-18,-24,-56,-26,-5,-1,4,29
17:35:19:354072,-18,-24,-56,-26,-5,-1,4,29
17:35:19:354902,-28,-31,-12,-19,2,0,12,47
17:35:19:360826,5,14,-16,-15,-6,-6,-16,-1
17:35:19:376585,5,14,-16,-15,-6,-6,-16,-1
17:35:19:377377,-4,1,-27,-23,-2,0,-31,-113
17:35:19:392210,-17,-33,1,-9,2,3,-38,-83
17:35:19:393015,-17,-33,1,-9,2,3,-38,-83
17:35:19:393794,-8,13,13,6,-8,-8,-6,-34
17:35:19:398275,6,-8,0,6,1,-4,-18,-63
17:35:19:414048,6,-8,0,6,1,-4,-18,-63
17:35:19:414927,4,8,-18,-27,-3,0,7,-28
17:35:19:420806,-12,14,63,17,-8,2,12,27
17:35:19:436546,-12,14,63,17,-8,2,12,27
17:35:19:437324,19,3,-37,-23,5,2,4,-4
17:35:19:443302,-9,29,25,12,-2,-2,1,-12
17:35:19:451528,-9,29,25,12,-2,-2,1,-12
17:35:19:452320,-10,19,18,13,0,0,4,-1
17:35:19:458372,13,6,-68,-19,-7,-3,3,5
17:35:19:474055,13,6,-68,-19,-7,-3,3,5
17:35:19:474890,36,11,12,12,8,4,-11,-83
17:35:19:480808,11,-5,-3,3,-4,1,6,18
17:35:19:497041,11,-5,-3,3,-4,1,6,18
17:35:19:497764,9,-3,-35,7,-2,6,57,117
17:35:19:503363,23,-14,26,4,4,5,20,127
17:35:19:511526,23,-14,26,4,4,5,20,127
17:35:19:512341,5,-18,6,-22,-7,-2,-22,24
17:35:19:518311,-6,18,17,7,1,5,10,16
17:35:19:533997,-6,18,17,7,1,5,10,16
17:35:19:534891,-16,-15,13,-3,3,-5,-17,-39
17:35:19:540975,-9,-8,46,13,-5,-4,1,-22
17:35:19:556511,-9,-8,46,13,-5,-4,1,-22
17:35:19:557291,4,0,2,7,0,5,39,112
17:35:19:563322,-21,-7,-9,4,8,-2,-9,-77
17:35:19:571527,-21,-7,-9,4,8,-2,-9,-77
17:35:19:572331,3,-3,20,3,18,7,2,59
17:35:19:585937,-5,-15,-67,-3,1,-2,6,4
17:35:19:594014,-5,-15,-67,-3,1,-2,6,4
17:35:19:594805,-21,6,19,10,-20,-10,-39,-101
17:35:19:600832,28,-18,-4,2,-6,-5,26,62
17:35:19:616561,28,-18,-4,2,-6,-5,26,62
17:35:19:617344,0,-5,-28,-4,2,-5,-25,5
17:35:19:623321,-22,9,-6,-3,2,-3,-13,-41
17:35:19:631492,-22,9,-6,-3,2,-3,-13,-41
17:35:19:632278,27,24,-32,7,-9,-7,-29,-45
17:35:19:645830,-8,4,32,7,8,-3,-9,10
17:35:19:654083,-8,4,32,7,8,-3,-9,10
17:35:19:654903,-6,17,19,23,22,17,5,-12
17:35:19:660802,-2,-22,11,-8,0,2,2,-6
17:35:19:676573,-2,-22,11,-8,0,2,2,-6
17:35:19:677371,-22,-26,-18,-22,-14,-9,22,-28
17:35:19:683315,-20,-30,-16,-21,-10,-8,-27,-49
17:35:19:691636,-20,-30,-16,-21,-10,-8,-27,-49
17:35:19:692376,37,45,29,-17,1,9,77,127
17:35:19:705809,1,13,-6,-10,0,4,4,-55
17:35:19:714054,1,13,-6,-10,0,4,4,-55
17:35:19:714893,-23,-34,6,-7,-8,-11,2,71
17:35:19:720828,23,43,-8,-5,11,8,23,90
17:35:19:728409,23,43,-8,-5,11,8,23,90
17:35:19:735867,-23,-17,40,6,-11,-17,-55,-98
17:35:19:743359,-13,-18,15,2,-10,-6,-17,-48
17:35:19:751506,-13,-18,15,2,-10,-6,-17,-48
17:35:19:752418,6,7,-28,-13,-3,-1,-11,107
17:35:19:765824,-12,16,-1,-5,1,-4,-35,-105
17:35:19:774000,-12,16,-1,-5,1,-4,-35,-105
17:35:19:774824,-11,-24,-32,17,-5,-3,-8,-38
17:35:19:780835,-9,11,7,6,1,1,4,1
17:35:19:788420,-9,11,7,6,1,1,4,1
17:35:19:795908,21,27,36,19,1,-2,-4,-48
17:35:19:803395,12,19,26,15,-1,-2,-14,-1
17:35:19:811575,12,19,26,15,-1,-2,-14,-1
17:35:19:812317,17,6,2,-11,-11,7,47,87
17:35:19:826275,4,13,5,3,8,3,1,-12
17:35:19:834035,4,13,5,3,8,3,1,-12
17:35:19:834900,-16,-15,-24,-7,-9,-6,-10,-63
17:35:19:840798,27,4,-16,16,6,2,8,39
17:35:19:848352,27,4,-16,16,6,2,8,39
17:35:19:855791,1,20,24,8,3,-8,-37,-58
17:35:19:863315,11,-1,-28,-2,-3,11,31,49
17:35:19:871542,11,-1,-28,-2,-3,11,31,49
17:35:19:872342,-7,17,41,8,8,4,-2,-33
17:35:19:885769,-8,-9,16,-16,-11,-9,-19,25
17:35:19:894063,-8,-9,16,-16,-11,-9,-19,25
17:35:19:894908,-15,-16,4,11,19,3,-2,-36
17:35:19:900805,1,-1,6,-4,0,2,27,36
17:35:19:908384,1,-1,6,-4,0,2,27,36
17:35:19:915809,3,-18,-19,8,-5,-12,-37,-26
17:35:19:923313,-12,-11,0,4,-3,1,-5,-10
17:35:19:931556,-12,-11,0,4,-3,1,-5,-10
17:35:19:932328,-2,0,-1,-9,-6,2,25,-25
17:35:19:945813,0,4,-7,-4,-6,-9,-10,-8
17:35:19:954051,0,4,-7,-4,-6,-9,-10,-8
17:35:19:954914,4,-1,-10,-4,-2,-1,0,18
17:35:19:960819,-9,-5,-2,-5,-2,1,4,-16
17:35:19:968419,-9,-5,-2,-5,-2,1,4,-16
17:35:19:975834,-8,-12,-15,3,-10,-4,1,15
17:35:19:983338,-4,-4,9,4,-5,-4,-13,-13
17:35:19:991501,-4,-4,9,4,-5,-4,-13,-13
17:35:19:992327,7,2,17,0,10,57,49,-7
17:35:20:5809,8,7,34,7,1,6,3,14
17:35:20:14082,8,7,34,7,1,6,3,14
17:35:20:14904,-25,-24,-38,-36,-16,-26,-3,-23
17:35:20:20832,-10,-1,11,5,1,-18,-11,-12
17:35:20:28324,-10,-1,11,5,1,-18,-11,-12
17:35:20:35833,10,-7,36,7,1,-4,5,14
17:35:20:43322,-15,2,-35,-13,-13,-32,-49,-24
17:35:20:51524,-15,2,-35,-13,-13,-32,-49,-24
17:35:20:52328,7,1,51,3,-2,10,-17,-33
17:35:20:65870,-28,-13,43,17,0,-4,6,-30
17:35:20:74027,-28,-13,43,17,0,-4,6,-30
17:35:20:74813,0,12,41,11,14,63,81,27
17:35:20:80804,13,17,50,10,12,49,19,14
17:35:20:96573,13,17,50,10,12,49,19,14
17:35:20:97353,-1,5,71,-7,-6,-41,-26,0
17:35:20:103363,6,-2,-44,-16,1,-11,-2,7
17:35:20:111565,6,-2,-44,-16,1,-11,-2,7
17:35:20:112280,6,-3,-125,-36,1,12,7,4
17:35:20:125832,5,-4,-30,-19,-5,-18,4,-6
17:35:20:133998,5,-4,-30,-19,-5,-18,4,-6
17:35:20:134797,-1,4,26,22,-1,-24,2,4
17:35:20:140809,7,-4,-9,7,-4,-6,-6,2
17:35:20:156540,7,-4,-9,7,-4,-6,-6,2
17:35:20:157347,-7,12,-30,-6,-10,-3,-11,0
17:35:20:163311,6,6,20,28,2,-25,-43,-19
17:35:20:171596,6,6,20,28,2,-25,-43,-19
17:35:20:172482,1,-10,-26,-37,-26,-18,-16,-2
17:35:20:185820,-10,1,20,5,5,25,45,10
17:35:20:194041,-10,1,20,5,5,25,45,10
17:35:20:194882,15,24,15,11,5,-13,-22,2
17:35:20:200820,18,-5,-18,-28,-9,3,-1,13
17:35:20:216539,18,-5,-18,-28,-9,3,-1,13
17:35:20:217347,4,-24,-17,-5,-4,10,3,14
17:35:20:223286,-9,-18,-30,-3,-1,-25,29,-1
17:35:20:231586,-9,-18,-30,-3,-1,-25,29,-1
17:35:20:232353,-14,3,-15,24,22,-2,12,4
17:35:20:245808,-6,1,-8,-24,-13,5,18,5
17:35:20:254047,-6,1,-8,-24,-13,5,18,5
17:35:20:254911,2,6,31,1,8,-9,-14,-9
17:35:20:260800,-8,2,-12,-1,17,20,-2,2
17:35:20:276570,-8,2,-12,-1,17,20,-2,2
17:35:20:277345,6,0,-19,-3,-14,-17,-42,-9
17:35:20:283319,-5,5,4,1,-9,-13,-28,3
17:35:20:291557,-5,5,4,1,-9,-13,-28,3
17:35:20:292368,-10,-16,-8,-2,2,-8,22,-1
17:35:20:305821,-10,-28,-34,-3,-9,1,10,-73
17:35:20:314026,-10,-28,-34,-3,-9,1,10,-73
17:35:20:314901,68,25,1,12,10,27,37,35
17:35:20:320791,3,16,6,-9,-4,-12,-57,-12
17:35:20:336563,3,16,6,-9,-4,-12,-57,-12
17:35:20:337343,-61,-5,-5,-4,-3,-13,-24,-3
17:35:20:343315,-17,-2,20,-7,-12,9,21,16
17:35:20:351532,-17,-2,20,-7,-12,9,21,16
17:35:20:352354,29,19,-35,12,16,-1,-5,17
17:35:20:365791,-32,-37,-42,-23,-7,-9,9,-24
17:35:20:374048,-32,-37,-42,-23,-7,-9,9,-24
17:35:20:374930,-28,-12,-1,12,-1,6,18,-15
17:35:20:380806,18,14,20,24,19,2,-9,-30
17:35:20:396529,18,14,20,24,19,2,-9,-30
17:35:20:397358,69,30,-38,-33,-11,-15,-22,-25
17:35:20:403302,-7,-2,-31,-1,-5,14,-33,-33
17:35:20:419028,-7,-2,-31,-1,-5,14,-33,-33
17:35:20:419802,-22,-8,37,51,35,18,30,-21
17:35:20:425813,24,63,24,9,-21,-9,-19,1
17:35:20:433998,24,63,24,9,-21,-9,-19,1
17:35:20:434808,-2,-15,39,21,-17,-1,10,-3
17:35:20:440774,-3,-37,46,15,8,-21,-36,46
17:35:20:456513,-3,-37,46,15,8,-21,-36,46
17:35:20:457285,-31,-21,1,-1,-8,0,23,10
17:35:20:463333,-15,-28,14,11,9,19,24,13
17:35:20:471538,-15,-28,14,11,9,19,24,13
17:35:20:472324,8,-40,17,-19,-17,-7,-4,-61
17:35:20:485827,9,-5,-11,-24,3,14,64,72
17:35:20:494014,9,-5,-11,-24,3,14,64,72
17:35:20:494808,6,19,19,-9,-7,-16,-39,50
17:35:20:508348,1,-6,-15,1,-6,-8,-2,0
17:35:20:516523,1,-6,-15,1,-6,-8,-2,0
17:35:20:517328,-25,-9,-7,-8,-21,-11,-18,2
17:35:20:523340,29,-1,-4,-3,5,3,-30,-38
17:35:20:539063,29,-1,-4,-3,5,3,-30,-38
17:35:20:539898,-31,-10,-15,-2,-2,5,-19,-90
17:35:20:545836,-2,2,-3,20,2,9,-5,-32
17:35:20:553993,-2,2,-3,20,2,9,-5,-32
17:35:20:554801,-11,-7,-23,4,0,-5,-19,17
17:35:20:568967,17,14,-11,9,2,17,48,73
17:35:20:569810,17,14,-11,9,2,17,48,73
17:35:20:575825,-14,-12,-11,-19,-1,-2,-19,5
17:35:20:583334,-27,3,8,-15,-7,-5,19,-35
17:35:20:590843,-27,3,8,-15,-7,-5,19,-35
17:35:20:598353,48,43,5,-18,-5,-1,45,116
17:35:20:605832,-13,-1,-4,3,16,1,-8,-8
17:35:20:614033,-13,-1,-4,3,16,1,-8,-8
17:35:20:614803,5,7,-19,-19,19,10,13,39
17:35:20:628982,1,-2,-9,-8,-10,-9,-19,12
17:35:20:629798,1,-2,-9,-8,-10,-9,-19,12
17:35:20:635950,-6,-4,-17,-5,1,-4,-35,-60
17:35:20:643376,-9,-4,0,-1,8,2,0,8
17:35:20:658991,-9,-4,0,-1,8,2,0,8
17:35:20:659803,-8,-6,16,3,-18,3,-5,-27
17:35:20:665850,0,-31,-16,-18,-19,-21,-23,-14
17:35:20:674023,0,-31,-16,-18,-19,-21,-23,-14
17:35:20:674806,-14,-15,-11,1,-2,0,-9,-33
17:35:20:688993,11,14,6,-3,-32,-5,9,-18
17:35:20:689804,11,14,6,-3,-32,-5,9,-18
17:35:20:695843,-1,-13,-2,9,3,5,-3,10
17:35:20:703334,-2,7,8,-4,-6,-2,2,-18
17:35:20:710919,-2,7,8,-4,-6,-2,2,-18
17:35:20:718347,1,-2,-4,-6,2,-1,-9,7
17:35:20:725828,12,15,9,13,7,8,10,18
17:35:20:734026,12,15,9,13,7,8,10,18
17:35:20:734837,-5,-2,-2,-5,3,-3,-10,-12
17:35:20:748987,-5,-7,-6,-2,10,-2,-8,9
17:35:20:749810,-5,-7,-6,-2,10,-2,-8,9
17:35:20:755814,-4,-4,-31,0,-10,-21,-4,-9
17:35:20:763334,18,10,48,17,15,0,-3,35
17:35:20:770907,18,10,48,17,15,0,-3,35
17:35:20:778301,1,-4,-9,-4,-4,-5,5,10
17:35:20:785786,4,-10,-80,-17,-5,1,18,4
17:35:20:794040,4,-10,-80,-17,-5,1,18,4
17:35:20:794892,0,6,37,14,8,24,13,-3
17:35:20:809475,-2,0,23,14,6,-12,-9,-9
17:35:20:816537,-2,0,23,14,6,-12,-9,-9
17:35:20:817333,-5,-1,-18,0,0,-8,-5,-3
17:35:20:823278,9,7,31,23,4,9,7,1
17:35:20:830914,9,7,31,23,4,9,7,1
17:35:20:838309,8,-6,-14,-14,1,3,13,8
17:35:20:845790,2,9,50,13,6,-6,25,-2
17:35:20:854035,2,9,50,13,6,-6,25,-2
17:35:20:854901,-3,5,-9,-7,2,-10,-8,-8
17:35:20:869027,-5,-4,-41,-22,-7,-10,12,-5
17:35:20:869899,-5,-4,-41,-22,-7,-10,12,-5
17:35:20:875817,3,2,9,-1,-7,-12,10,-9
17:35:20:883323,-2,0,15,-6,1,12,-7,5
17:35:20:890911,-2,0,15,-6,1,12,-7,5
17:35:20:898323,-2,-5,-5,0,0,-10,-1,0
17:35:20:905789,-9,-4,-11,-19,-14,-33,-17,-22
17:35:20:913997,-9,-4,-11,-19,-14,-33,-17,-22
17:35:20:914783,-12,7,17,1,-5,8,18,-7
17:35:20:929033,-1,2,-8,9,5,7,44,-12
17:35:20:929902,-1,2,-8,9,5,7,44,-12
17:35:20:935831,21,5,12,6,6,17,0,98
17:35:20:943321,4,8,6,10,5,5,-15,17
17:35:20:950897,4,8,6,10,5,5,-15,17
17:35:20:958327,-17,-12,16,17,-1,-16,-44,-74
17:35:20:965851,-8,-14,-5,17,6,7,-5,8
17:35:20:974024,-8,-14,-5,17,6,7,-5,8
17:35:20:974890,-25,12,12,4,11,8,11,-2
17:35:20:988995,-8,-3,10,-2,-12,-11,-44,-68
17:35:20:989822,-8,-3,10,-2,-12,-11,-44,-68
17:35:20:995819,-20,-42,-96,-77,-24,0,-86,3
17:35:21:3326,10,-17,-36,-24,-1,15,36,11
17:35:21:10844,10,-17,-36,-24,-1,15,36,11
17:35:21:18291,-6,-17,-89,-48,-15,-8,10,-33
17:35:21:25826,-55,-36,24,11,11,7,-56,-90
17:35:21:34060,-55,-36,24,11,11,7,-56,-90
17:35:21:34934,23,3,30,17,1,8,18,-25
17:35:21:49020,11,48,25,48,42,18,8,4
17:35:21:49860,11,48,25,48,42,18,8,4
17:35:21:55788,1,-21,70,61,1,-6,55,2
17:35:21:63301,-9,-16,-7,0,3,5,-13,-51
17:35:21:70932,-9,-16,-7,0,3,5,-13,-51
17:35:21:78321,44,41,-19,-15,1,1,-42,-38
17:35:21:94681,11,-13,-25,-11,-26,-12,26,66
17:35:21:95478,11,-13,-25,-11,-26,-12,26,66
17:35:21:96279,-20,-9,-62,7,-10,-5,39,70
17:35:21:109003,-20,2,-17,-23,-5,13,-54,5
17:35:21:109809,-20,2,-17,-23,-5,13,-54,5
17:35:21:115840,2,18,36,32,23,-2,-16,-35
17:35:21:123334,-17,2,-31,-18,-22,-4,-12,-75
17:35:21:130820,-17,2,-31,-18,-22,-4,-12,-75
17:35:21:138291,-5,-18,46,18,16,6,-28,101
17:35:21:145848,39,24,24,1,16,-4,-12,119
17:35:21:153783,39,24,24,1,16,-4,-12,119
17:35:21:160784,2,6,28,43,4,2,61,54
17:35:21:169073,29,-9,-16,-14,-15,-15,74,127
17:35:21:169888,29,-9,-16,-14,-15,-15,74,127
17:35:21:175815,6,14,23,-2,11,1,-21,29
17:35:21:183334,-13,14,34,-1,16,-7,-45,-8
17:35:21:190926,-13,14,34,-1,16,-7,-45,-8
17:35:21:198330,3,8,21,-17,-2,6,5,-26
17:35:21:214682,-6,-41,-50,4,2,7,15,14
17:35:21:215504,-6,-41,-50,4,2,7,15,14
17:35:21:216419,5,-15,47,18,-13,3,-1,-128
17:35:21:229003,5,-9,-14,-32,-3,-6,-16,-17
17:35:21:229890,5,-9,-14,-32,-3,-6,-16,-17
17:35:21:235790,-10,-3,-36,-18,-12,-12,-36,-16
17:35:21:243329,16,26,15,-11,-17,-12,-75,22
17:35:21:250917,16,26,15,-11,-17,-12,-75,22
17:35:21:258312,4,-10,-33,-21,-7,14,91,70
17:35:21:265831,-18,5,8,-3,-8,-3,16,-29
17:35:21:274044,-18,5,8,-3,-8,-3,16,-29
17:35:21:274900,47,28,17,24,0,-17,-61,-12
17:35:21:289011,-12,-43,-87,-28,-5,7,29,-19
17:35:21:289902,-12,-43,-87,-28,-5,7,29,-19
17:35:21:295824,-2,25,19,1,-8,0,4,-70
17:35:21:303311,-11,-19,1,43,36,31,60,-75
17:35:21:310923,-11,-19,1,43,36,31,60,-75
17:35:21:318348,-9,-19,-4,-20,4,8,26,75
17:35:21:325843,-24,25,51,4,-16,-6,22,-120
17:35:21:334019,-24,25,51,4,-16,-6,22,-120
17:35:21:334837,-21,-10,18,3,9,-2,-69,-125
17:35:21:348993,-7,-7,18,6,-6,-1,12,-15
17:35:21:349818,-7,-7,18,6,-6,-1,12,-15
17:35:21:355851,-6,-10,9,3,-1,0,9,-16
17:35:21:363353,7,20,-19,-14,-9,-6,-8,44
17:35:21:370842,7,20,-19,-14,-9,-6,-8,44
17:35:21:378334,-21,-46,-59,-27,-11,-10,-16,5
17:35:21:385851,-29,14,1,8,10,8,37,101
17:35:21:393999,-29,14,1,8,10,8,37,101
17:35:21:394812,14,42,54,-21,-11,1,47,-2
17:35:21:409045,-4,-14,-25,-33,-15,-6,-46,10
17:35:21:409829,-4,-14,-25,-33,-15,-6,-46,10
17:35:21:415842,11,8,-52,-9,-1,-5,36,63
17:35:21:423392,-15,5,39,-3,-11,-8,-13,-3
17:35:21:430919,-15,5,39,-3,-11,-8,-13,-3
17:35:21:438288,1,23,7,5,15,21,11,23
17:35:21:445872,27,20,30,-7,-7,-6,5,13
17:35:21:453397,27,20,30,-7,-7,-6,5,13
17:35:21:460820,-21,-20,15,5,-23,-11,6,-11
17:35:21:469024,47,8,31,-1,-3,6,60,107
17:35:21:469922,47,8,31,-1,-3,6,60,107
17:35:21:475817,-16,-5,-31,-10,1,-13,-43,24
17:35:21:491529,10,17,11,9,9,-10,-40,-68
17:35:21:492333,10,17,11,9,9,-10,-40,-68
17:35:21:498335,-10,-6,-3,-4,5,16,83,38
17:35:21:505830,-19,-8,-9,24,-2,-8,-16,-26
17:35:21:513392,-19,-8,-9,24,-2,-8,-16,-26
17:35:21:520825,-20,-48,-62,-15,-13,-14,-51,-78
17:35:21:528958,14,-21,-8,-11,3,5,24,-7
17:35:21:529792,14,-21,-8,-11,3,5,24,-7
17:35:21:535820,34,-13,-43,-10,-4,-12,-113,-46
17:35:21:551516,0,0,5,0,-8,-15,-60,-62
17:35:21:552341,0,0,5,0,-8,-15,-60,-62
17:35:21:558526,50,58,25,15,8,21,39,10
17:35:21:565816,-16,-27,-29,-6,0,8,15,5
17:35:21:573390,-16,-27,-29,-6,0,8,15,5
17:35:21:580825,-14,-1,27,39,8,1,16,33
17:35:21:588756,-27,10,25,26,21,6,42,102
17:35:21:596504,-27,10,25,26,21,6,42,102
17:35:21:597305,-8,10,0,15,11,0,-8,-53
17:35:21:611464,55,49,6,-30,-5,-5,9,4
17:35:21:612304,55,49,6,-30,-5,-5,9,4
17:35:21:618338,-16,-19,-30,-7,2,6,23,-75
17:35:21:625852,-12,-27,-30,-25,-24,-10,-37,-42
17:35:21:633493,-12,-27,-30,-25,-24,-10,-37,-42
17:35:21:640780,30,8,47,9,3,7,33,2
17:35:21:649082,-12,-8,-4,-1,-7,-8,-35,-42
17:35:21:649825,-12,-8,-4,-1,-7,-8,-35,-42
17:35:21:655790,-36,-12,-18,-14,-7,-2,-9,-2
17:35:21:671536,11,-36,23,28,20,3,28,94
17:35:21:672331,11,-36,23,28,20,3,28,94
17:35:21:678308,-15,-4,1,-3,2,2,-38,38
17:35:21:685844,12,11,21,3,-2,3,13,-58
17:35:21:693371,12,11,21,3,-2,3,13,-58
17:35:21:700799,0,2,21,-15,-13,-7,-22,37
17:35:21:709087,-19,-8,-4,-6,-22,-2,9,-29
17:35:21:709921,-19,-8,-4,-6,-22,-2,9,-29
17:35:21:715824,-25,-14,46,-23,-6,9,89,66
17:35:21:731515,25,9,40,21,9,1,27,-13
17:35:21:732324,25,9,40,21,9,1,27,-13
17:35:21:738282,34,16,-11,11,-16,-17,-7,-21
17:35:21:745773,-22,-10,-18,2,6,4,-44,29
17:35:21:753447,-22,-10,-18,2,6,4,-44,29
17:35:21:760781,-39,5,4,12,10,9,71,-100
17:35:21:769021,34,-26,-60,-4,-11,-21,-101,-128
17:35:21:769922,34,-26,-60,-4,-11,-21,-101,-128
17:35:21:775816,-11,4,-32,-22,-7,-10,-127,50
17:35:21:791569,-50,10,-32,-24,4,8,-3,-35
17:35:21:792336,-50,10,-32,-24,4,8,-3,-35
17:35:21:798312,4,-9,25,28,24,1,-7,8
17:35:21:805823,10,0,-12,9,8,8,-1,26
17:35:21:813395,10,0,-12,9,8,8,-1,26
17:35:21:820867,-20,37,23,-26,0,-7,-18,11
17:35:21:828949,7,13,48,12,24,17,-20,-4
17:35:21:829789,7,13,48,12,24,17,-20,-4
17:35:21:835880,8,-23,-16,-13,-8,-6,-43,-60
17:35:21:851524,-16,10,1,16,-6,-2,27,5
17:35:21:852347,-16,10,1,16,-6,-2,27,5
17:35:21:858312,-1,9,32,4,-9,-12,-39,-38
17:35:21:865839,19,-7,-11,-18,4,17,76,74
17:35:21:873409,19,-7,-11,-18,4,17,76,74
17:35:21:880849,-12,-41,-45,6,0,-9,21,-51
17:35:21:888996,6,7,-8,5,-8,-11,29,43
17:35:21:889814,6,7,-8,5,-8,-11,29,43
17:35:21:895795,2,6,8,13,13,-4,-10,4
17:35:21:911486,13,-7,17,-16,-5,-3,-41,-52
17:35:21:912315,13,-7,17,-16,-5,-3,-41,-52
17:35:21:918361,2,18,-28,-11,-4,-1,6,-67
17:35:21:925858,-39,3,2,-1,-1,-1,3,-33
17:35:21:933412,-39,3,2,-1,-1,-1,3,-33
17:35:21:940797,-9,-8,-4,37,17,15,51,12
17:35:21:949007,-4,-28,-9,3,-5,-4,-26,-30
17:35:21:949817,-4,-28,-9,3,-5,-4,-26,-30
17:35:21:955812,-1,-9,6,-17,-3,-4,45,101
17:35:21:971579,-7,-5,-71,10,-1,4,18,12
17:35:21:972320,-7,-5,-71,10,-1,4,18,12
17:35:21:978317,33,31,29,-5,-6,6,2,11
17:35:21:985853,-11,8,-26,-29,-17,-7,28,0
17:35:21:993390,-11,8,-26,-29,-17,-7,28,0
17:35:22:817,-6,-39,-43,-4,-7,1,-4,76
17:35:22:9063,2,11,29,-7,-7,-17,-50,-117
17:35:22:9937,2,11,29,-7,-7,-17,-50,-117
17:35:22:15839,-4,11,17,-6,9,18,43,-34
17:35:22:31504,17,45,19,10,6,0,-6,3
17:35:22:32338,17,45,19,10,6,0,-6,3
17:35:22:38313,-19,-7,7,-3,-6,-7,-6,-2
17:35:22:45784,9,18,8,-4,-3,-18,-84,38
17:35:22:53376,9,18,8,-4,-3,-18,-84,38
17:35:22:60836,28,12,-18,-13,6,6,-10,25
17:35:22:69037,13,-11,11,1,1,-3,23,43
17:35:22:69913,13,-11,11,1,1,-3,23,43
17:35:22:75809,22,2,23,11,-1,-13,-10,-4
17:35:22:91539,-28,-2,-9,-15,-6,10,34,-66
17:35:22:92343,-28,-2,-9,-15,-6,10,34,-66
17:35:22:98318,-7,-2,-27,-26,3,-9,-36,4
17:35:22:105805,-14,-13,-16,-2,-7,-1,46,65
17:35:22:113363,-14,-13,-16,-2,-7,-1,46,65
17:35:22:120821,7,8,-15,-18,-17,-19,-58,8
17:35:22:128954,8,43,27,-4,-1,-4,-27,8
17:35:22:129785,8,43,27,-4,-1,-4,-27,8
17:35:22:135821,27,12,56,10,1,3,65,-29
17:35:22:151530,-43,-60,5,7,-2,4,58,-108
17:35:22:152340,-43,-60,5,7,-2,4,58,-108
17:35:22:158326,-33,-30,44,37,8,-5,-14,-47
17:35:22:165833,-12,-33,-35,1,2,3,-23,-1
17:35:22:173346,-12,-33,-35,1,2,3,-23,-1
17:35:22:180864,-15,-2,-27,16,-4,-2,-59,-26
17:35:22:189017,39,23,5,-5,12,8,-23,2
17:35:22:189819,39,23,5,-5,12,8,-23,2
17:35:22:195813,13,-21,-9,-20,-13,3,21,47
17:35:22:211485,6,44,8,1,-14,-18,11,52
17:35:22:212324,6,44,8,1,-14,-18,11,52
17:35:22:218353,-3,-3,-6,-20,-2,9,38,21
17:35:22:225850,-18,-46,36,-7,-2,3,-23,-40
17:35:22:233360,-18,-46,36,-7,-2,3,-23,-40
17:35:22:240801,-27,-12,-19,-2,7,-3,4,17
17:35:22:248984,39,21,3,2,13,2,-11,-34
17:35:22:249818,39,21,3,2,13,2,-11,-34
17:35:22:255802,0,-18,7,9,14,0,-13,-8
17:35:22:271531,24,12,23,8,2,5,1,70
17:35:22:272357,24,12,23,8,2,5,1,70
17:35:22:278345,6,-15,-9,0,-3,2,3,-34
17:35:22:285808,32,3,-17,-9,0,10,35,-15
17:35:22:293361,32,3,-17,-9,0,10,35,-15
17:35:22:300780,11,7,17,15,1,5,40,127
17:35:22:309022,-34,-9,-5,-11,-12,3,-3,-38
17:35:22:309909,-34,-9,-5,-11,-12,3,-3,-38
17:35:22:315816,7,7,-33,-10,4,-7,-12,-102
17:35:22:331520,-5,-18,-24,-16,-18,-11,2,-68
17:35:22:332334,-5,-18,-24,-16,-18,-11,2,-68
17:35:22:338342,14,2,-58,-13,-15,1,-58,-37
17:35:22:345781,17,0,1,1,-4,-23,2,65
17:35:22:353461,17,0,1,1,-4,-23,2,65
17:35:22:360853,-20,-1,21,-4,-12,-7,-46,-40
17:35:22:369058,0,-17,-5,32,12,8,56,117
17:35:22:369912,0,-17,-5,32,12,8,56,117
17:35:22:383313,12,19,-11,-16,-12,-11,31,127
17:35:22:399730,-13,-10,6,6,6,4,-12,-31
17:35:22:400502,-13,-10,6,6,6,4,-12,-31
17:35:22:401369,-17,11,34,-24,-17,-7,2,-6
17:35:22:413980,-12,-24,-14,-31,-3,2,-16,98
17:35:22:414806,-12,-24,-14,-31,-3,2,-16,98
17:35:22:420849,15,1,9,3,0,-6,-3,-14
17:35:22:428991,1,5,32,5,-7,-11,-43,-54
17:35:22:429819,1,5,32,5,-7,-11,-43,-54
17:35:22:443356,-39,-18,-21,31,30,6,-15,64
17:35:22:451538,-39,-18,-21,31,30,6,-15,64
17:35:22:452365,-13,0,-1,10,2,-15,-51,-16
17:35:22:458379,-46,-25,29,7,-3,-3,-38,-84
17:35:22:474099,-46,-25,29,7,-3,-3,-38,-84
17:35:22:474786,4,-3,-50,-6,-2,4,8,-5
17:35:22:480825,8,-18,2,1,2,-2,-5,-67
17:35:22:489016,8,-18,2,1,2,-2,-5,-67
17:35:22:489804,12,10,4,3,0,0,-4,89
17:35:22:503321,22,24,0,-10,-7,2,-14,-24
17:35:22:511519,22,24,0,-10,-7,2,-14,-24
17:35:22:512284,-13,3,-2,17,10,0,35,48
17:35:22:518388,8,6,-5,-8,-4,-2,2,-18
17:35:22:534074,8,6,-5,-8,-4,-2,2,-18
17:35:22:534996,-19,-14,17,-7,2,6,18,42
17:35:22:540865,-12,6,35,1,-4,0,5,-71
17:35:22:549028,-12,6,35,1,-4,0,5,-71
17:35:22:549776,-5,-18,-61,-8,0,-4,-1,-40
17:35:22:563323,-11,8,6,22,-2,-5,-15,-33
17:35:22:571539,-11,8,6,22,-2,-5,-15,-33
17:35:22:572343,27,4,-8,-5,-10,-1,3,-107
17:35:22:578338,-3,0,4,-18,0,9,65,-36
17:35:22:594055,-3,0,4,-18,0,9,65,-36
17:35:22:594922,-17,7,31,-3,-6,-5,-7,-59
17:35:22:600820,2,21,-9,2,5,4,7,10
17:35:22:609026,2,21,-9,2,5,4,7,10
17:35:22:609786,-15,-9,29,15,10,4,-18,-71
17:35:22:623331,8,-25,-16,-4,-8,-1,-11,-37
17:35:22:631562,8,-25,-16,-4,-8,-1,-11,-37
17:35:22:632342,-10,-4,-10,-31,-3,1,54,44
17:35:22:638315,-3,-21,-57,2,3,-3,-57,42
17:35:22:654030,-3,-21,-57,2,3,-3,-57,42
17:35:22:654819,21,35,14,12,-8,-15,-54,-56
17:35:22:660799,-38,13,17,-1,1,0,-3,-47
17:35:22:669068,-38,13,17,-1,1,0,-3,-47
17:35:22:669910,-18,-18,0,9,5,6,-3,-5
17:35:22:683315,35,25,5,7,3,0,-18,26
17:35:22:691524,35,25,5,7,3,0,-18,26
17:35:22:692349,52,33,45,-4,0,-6,-56,-4
17:35:22:698313,13,-5,1,2,6,7,13,-21
17:35:22:714037,13,-5,1,2,6,7,13,-21
17:35:22:714821,12,-7,16,-7,-9,-1,77,70
17:35:22:720807,32,7,-10,2,1,12,9,-36
17:35:22:729006,32,7,-10,2,1,12,9,-36
17:35:22:729914,-23,-19,18,-3,-4,-5,-31,-83
17:35:22:743389,-21,-2,-11,-13,0,6,37,-60
17:35:22:751551,-21,-2,-11,-13,0,6,37,-60
17:35:22:752350,-24,33,15,-13,13,12,-6,0
17:35:22:758296,-3,-22,-37,-13,0,16,33,2
17:35:22:774045,-3,-22,-37,-13,0,16,33,2
17:35:22:774808,-13,1,14,10,3,-6,-8,31
17:35:22:780809,-21,25,53,6,-10,-9,-8,-61
17:35:22:789030,-21,25,53,6,-10,-9,-8,-61
17:35:22:789840,21,-15,-50,-3,-4,17,35,-61
17:35:22:803291,-26,-22,6,3,-1,-9,-14,23
17:35:22:811572,-26,-22,6,3,-1,-9,-14,23
17:35:22:812324,-16,-14,4,3,-2,-6,-5,-24
17:35:22:818309,-1,3,-10,49,25,-3,-28,-20
17:35:22:834004,-1,3,-10,49,25,-3,-28,-20
17:35:22:834801,-15,-6,-86,-17,-12,2,-2,8
17:35:22:840765,19,7,-18,-14,-12,3,29,74
17:35:22:849045,19,7,-18,-14,-12,3,29,74
17:35:22:849970,55,38,2,6,-8,-11,-6,104
17:35:22:863309,-5,-7,-1,-10,-2,4,63,23
17:35:22:871540,-5,-7,-1,-10,-2,4,63,23
17:35:22:872330,-10,6,49,7,-1,4,1,85
17:35:22:878312,39,15,5,3,0,-16,-99,30
17:35:22:902220,39,15,5,3,0,-16,-99,30
17:35:22:903043,0,-11,-7,18,5,3,-2,25
17:35:22:903816,18,2,29,-7,-8,-1,73,-7
17:35:22:909029,18,2,29,-7,-8,-1,73,-7
17:35:22:909808,-25,-17,9,-6,3,-11,-34,-100
17:35:22:923336,0,-31,-29,-2,0,-9,-6,93
17:35:22:931540,0,-31,-29,-2,0,-9,-6,93
17:35:22:932325,7,-1,-8,-13,-3,-5,-6,-51
17:35:22:938342,-28,2,31,-14,-6,-1,15,33
17:35:22:954047,-28,2,31,-14,-6,-1,15,33
17:35:22:954827,3,-11,-9,-10,-4,-3,-1,-4
17:35:22:960804,34,18,-7,-10,-15,-26,-40,54
17:35:22:969060,34,18,-7,-10,-15,-26,-40,54
17:35:22:969912,-28,7,6,-1,1,-12,-69,-4
17:35:22:983328,-48,-9,21,4,4,11,36,27
17:35:22:991544,-48,-9,21,4,4,11,36,27
17:35:22:992411,15,-7,-14,-5,0,-1,8,1
17:35:22:998320,-10,-26,0,-6,-3,9,73,87
17:35:23:14031,-10,-26,0,-6,-3,9,73,87
17:35:23:14832,20,35,18,2,-3,3,11,32
17:35:23:20796,-7,-2,-49,10,7,-10,-79,-90
17:35:23:29042,-7,-2,-49,10,7,-10,-79,-90
17:35:23:29919,-37,-33,-28,3,0,5,-23,-96
17:35:23:43290,19,-25,11,35,15,20,29,-4
17:35:23:51540,19,-25,11,35,15,20,29,-4
17:35:23:52342,-2,-38,-17,-2,0,-5,-68,-81
17:35:23:58280,-11,11,-16,-12,-4,1,-9,-28
17:35:23:74071,-11,11,-16,-12,-4,1,-9,-28
17:35:23:74851,-26,26,-4,-4,5,14,95,88
17:35:23:80794,27,25,24,-15,-7,1,-43,-49
17:35:23:89021,27,25,24,-15,-7,1,-43,-49
17:35:23:89816,4,-17,-11,30,-1,3,40,1
17:35:23:103294,-22,-24,-65,-16,-10,-7,-22,-97
17:35:23:111580,-22,-24,-65,-16,-10,-7,-22,-97
17:35:23:112407,-2,-56,-36,9,23,3,17,15
17:35:23:118295,-31,9,-5,4,-9,-6,-19,-73
17:35:23:134092,-31,9,-5,4,-9,-6,-19,-73
17:35:23:134910,20,25,10,-16,-12,2,38,-64
17:35:23:140822,-14,-8,25,-11,1,-2,44,-70
17:35:23:149025,-14,-8,25,-11,1,-2,44,-70
17:35:23:149836,28,51,41,4,-9,2,-8,25
17:35:23:163256,-27,-39,-12,-19,-7,1,-5,-7
17:35:23:171544,-27,-39,-12,-19,-7,1,-5,-7
17:35:23:172320,11,2,13,-9,1,11,7,-18
17:35:23:178296,25,2,37,2,0,-31,-91,83
17:35:23:194023,25,2,37,2,0,-31,-91,83
17:35:23:194819,4,-8,-21,1,11,-9,-36,16
17:35:23:200788,-34,-18,-21,-2,-3,3,19,-32
17:35:23:209042,-34,-18,-21,-2,-3,3,19,-32
17:35:23:209833,23,29,-6,1,-3,-17,-89,44
17:35:23:223349,-10,-4,12,-4,3,-4,-1,-116
17:35:23:231530,-10,-4,12,-4,3,-4,-1,-116
17:35:23:232301,-27,-30,-19,-11,-17,-3,34,-24
17:35:23:238341,19,35,25,20,7,14,62,22
17:35:23:254011,19,35,25,20,7,14,62,22
17:35:23:254785,2,-28,-13,0,-5,-10,-1,-17
17:35:23:260823,11,32,31,4,1,12,54,11
17:35:23:269022,11,32,31,4,1,12,54,11
17:35:23:269805,3,-10,11,-7,-10,-1,9,26
17:35:23:283338,48,19,10,-2,5,-2,61,127
17:35:23:291586,48,19,10,-2,5,-2,61,127
17:35:23:292376,-22,28,5,-7,-8,-7,-20,-48
17:35:23:298354,-3,-14,-34,-8,-2,-9,-76,7
17:35:23:314003,-3,-14,-34,-8,-2,-9,-76,7
17:35:23:314809,-7,22,2,-11,3,6,-27,-95
17:35:23:320846,-32,-10,0,10,-9,-2,14,-37
17:35:23:328463,-32,-10,0,10,-9,-2,14,-37
17:35:23:335788,30,9,29,2,-2,2,19,15
17:35:23:343318,-10,-30,-23,-4,-10,-3,-36,-69
17:35:23:351530,-10,-30,-23,-4,-10,-3,-36,-69
17:35:23:352344,-29,-12,17,-7,15,5,-35,-84
17:35:23:365835,5,10,-18,-11,-4,-3,17,14
17:35:23:374022,5,10,-18,-11,-4,-3,17,14
17:35:23:374820,-3,5,-40,-8,-2,1,24,7
17:35:23:380824,31,4,-56,23,17,-2,-37,12
17:35:23:388359,31,4,-56,23,17,-2,-37,12
17:35:23:395801,-11,-27,-18,4,-6,-2,-18,68
17:35:23:403311,25,10,28,-14,0,-2,13,127
17:35:23:411281,25,10,28,-14,0,-2,13,127
17:35:23:418310,-28,20,30,17,0,10,57,-3
17:35:23:425812,6,5,10,-8,-8,3,24,86
17:35:23:434045,6,5,10,-8,-8,3,24,86
17:35:23:434829,-6,-10,3,-6,0,4,17,15
17:35:23:440844,-32,-8,29,6,1,10,-52,-67
17:35:23:448374,-32,-8,29,6,1,10,-52,-67
17:35:23:455831,-27,-12,21,4,-2,3,26,13
17:35:23:463331,1,16,-2,-14,-19,-8,-26,-79
17:35:23:471533,1,16,-2,-14,-19,-8,-26,-79
17:35:23:472289,15,-7,-9,-5,8,-4,-37,-37
17:35:23:485810,-12,-1,4,-4,2,-1,40,5
17:35:23:494065,-12,-1,4,-4,2,-1,40,5
17:35:23:494906,11,21,2,2,3,6,5,122
17:35:23:500839,-14,-2,-30,0,3,5,19,83
17:35:23:508330,-14,-2,-30,0,3,5,19,83
17:35:23:515833,-19,4,-23,-4,-8,-3,25,-128
17:35:23:523354,39,9,-1,-1,0,-11,-50,19
17:35:23:531527,39,9,-1,-1,0,-11,-50,19
17:35:23:532322,29,-6,19,4,-7,-8,10,-28
17:35:23:545822,3,17,-44,-16,3,-12,-13,-60
17:35:23:554035,3,17,-44,-16,3,-12,-13,-60
17:35:23:554813,22,13,-18,-6,-3,-18,-35,22
17:35:23:560875,-13,-19,8,7,-2,-8,4,-79
17:35:23:568367,-13,-19,8,7,-2,-8,4,-79
17:35:23:575825,-7,-8,-3,9,-9,-15,-24,-37
17:35:23:583310,14,16,33,4,9,28,101,89
17:35:23:591534,14,16,33,4,9,28,101,89
17:35:23:592348,-17,-22,1,5,3,4,-18,-48
17:35:23:605861,-33,-29,3,6,-7,-5,12,32
17:35:23:614014,-33,-29,3,6,-7,-5,12,32
17:35:23:614814,17,-6,-26,-13,2,20,-12,29
17:35:23:620861,-14,-28,-22,-15,-2,-7,-60,-42
17:35:23:628356,-14,-28,-22,-15,-2,-7,-60,-42
17:35:23:635810,-6,-8,19,12,0,6,84,49
17:35:23:643300,24,-9,-53,21,-1,4,2,12
17:35:23:651287,24,-9,-53,21,-1,4,2,12
17:35:23:658343,2,-13,16,2,9,13,5,83
17:35:23:665799,3,8,22,-4,-1,1,29,-15
17:35:23:674050,3,8,22,-4,-1,1,29,-15
17:35:23:674930,-15,-26,-27,-3,-4,-16,30,-44
17:35:23:680808,-2,24,33,2,12,10,53,-118
17:35:23:688317,-2,24,33,2,12,10,53,-118
17:35:23:695822,25,33,13,-9,-3,-11,-23,85
17:35:23:703340,5,-9,4,-14,-18,-20,-18,66
17:35:23:711505,5,-9,4,-14,-18,-20,-18,66
17:35:23:712325,0,39,-3,-12,-2,-16,-57,18
17:35:23:725859,14,3,7,13,8,4,-21,-26
17:35:23:734004,14,3,7,13,8,4,-21,-26
17:35:23:734801,48,5,-36,-8,-10,-11,13,22
17:35:23:740932,-6,0,24,5,0,-7,-15,19
17:35:23:748380,-6,0,24,5,0,-7,-15,19
17:35:23:755777,-21,-7,17,6,0,-7,-80,-74
17:35:23:763283,20,-2,-5,-5,10,2,25,90
17:35:23:771496,20,-2,-5,-5,10,2,25,90
17:35:23:772304,-14,-28,-5,22,-1,-5,3,13
17:35:23:785846,-17,-28,9,-6,-11,-2,-15,-80
17:35:23:794033,-17,-28,9,-6,-11,-2,-15,-80
17:35:23:794806,-21,-3,32,4,12,22,18,20
17:35:23:800784,-23,35,-8,12,-2,-5,13,19
17:35:23:808370,-23,35,-8,12,-2,-5,13,19
17:35:23:815812,-10,22,-53,-1,11,7,-17,-93
17:35:23:823309,46,7,5,-15,-9,-1,35,98
17:35:23:831527,46,7,5,-15,-9,-1,35,98
17:35:23:832319,-9,-5,45,13,-3,6,31,23
17:35:23:845788,-12,-13,-41,-6,9,15,-5,-91
17:35:23:854150,-12,-13,-41,-6,9,15,-5,-91
17:35:23:854835,19,2,-10,-13,-4,-8,11,-8
17:35:23:860800,-49,-26,22,7,1,22,16,-40
17:35:23:868392,-49,-26,22,7,1,22,16,-40
17:35:23:875802,4,16,-14,-15,-5,9,90,48
17:35:23:883301,-5,-8,-20,-8,-6,-18,-32,-7
17:35:23:891535,-5,-8,-20,-8,-6,-18,-32,-7
17:35:23:892423,-6,-43,-23,9,17,3,5,-51
17:35:23:905812,-1,4,11,20,-1,-11,-32,-43
17:35:23:914045,-1,4,11,20,-1,-11,-32,-43
17:35:23:914844,16,9,19,17,4,-4,-14,-44
17:35:23:920805,33,37,-51,-22,-5,-5,-10,20
17:35:23:928383,33,37,-51,-22,-5,-5,-10,20
17:35:23:935831,11,-3,-1,-13,-13,-7,-9,30
17:35:23:943317,40,1,-12,7,0,-10,-97,21
17:35:23:951518,40,1,-12,7,0,-10,-97,21
17:35:23:952299,-24,-16,-30,4,-5,-12,7,95
17:35:23:965805,14,10,4,-9,-5,-13,-25,14
17:35:23:973983,14,10,4,-9,-5,-13,-25,14
17:35:23:974788,-32,-25,-2,-8,-5,-3,-46,20
17:35:23:980846,-17,5,7,14,-3,6,42,44
17:35:23:988330,-17,5,7,14,-3,6,42,44
17:35:23:995850,27,-2,22,-13,-13,-8,10,-39
17:35:24:3357,10,-14,36,-8,-4,-3,-11,-11
17:35:24:11536,10,-14,36,-8,-4,-3,-11,-11
17:35:24:12299,-6,-17,-5,-20,-5,-9,0,-11
17:35:24:25852,6,26,24,5,2,-3,47,101
17:35:24:34000,6,26,24,5,2,-3,47,101
17:35:24:34822,-27,-41,-23,-19,-4,-2,28,20
17:35:24:40857,-11,2,-32,-12,-7,20,55,34
17:35:24:48384,-11,2,-32,-12,-7,20,55,34
17:35:24:55809,22,35,-1,2,-4,2,23,79
17:35:24:63282,-9,32,-6,-2,1,-8,-39,-32
17:35:24:71535,-9,32,-6,-2,1,-8,-39,-32
17:35:24:72354,-18,-8,12,26,12,7,-37,-53
17:35:24:85917,25,8,-1,2,8,-5,-31,-5
17:35:24:94016,25,8,-1,2,8,-5,-31,-5
17:35:24:94813,8,11,18,-1,-4,-7,-17,-51
17:35:24:100803,-12,-18,13,-3,-6,-15,34,18
17:35:24:108381,-12,-18,13,-3,-6,-15,34,18
17:35:24:115792,6,45,-33,-3,3,2,19,-46
17:35:24:123399,-6,-20,44,6,4,11,-3,-22
17:35:24:131541,-6,-20,44,6,4,11,-3,-22
17:35:24:132313,-12,16,19,1,-4,-8,-68,-92
17:35:24:145826,-39,-39,0,14,1,3,44,-117
17:35:24:154075,-39,-39,0,14,1,3,44,-117
17:35:24:154864,-2,12,-7,-5,-3,5,-13,-56
17:35:24:160820,2,-5,7,-8,-3,11,-1,-44
17:35:24:168431,2,-5,7,-8,-3,11,-1,-44
17:35:24:175809,-3,-5,0,3,-1,1,1,-24
17:35:24:183318,4,-23,-43,-15,-3,2,43,10
17:35:24:191538,4,-23,-43,-15,-3,2,43,10
17:35:24:192365,14,-44,32,-1,1,-5,-12,44
17:35:24:205822,6,46,16,21,5,-9,-66,-66
17:35:24:214032,6,46,16,21,5,-9,-66,-66
17:35:24:214890,-1,12,-6,5,-4,-9,-15,41
17:35:24:220823,-8,-4,12,8,6,5,-6,-18
17:35:24:228406,-8,-4,12,8,6,5,-6,-18
17:35:24:235851,-17,16,19,12,8,7,40,64
17:35:24:243357,-22,13,6,-3,2,-11,-47,-25
17:35:24:251525,-22,13,6,-3,2,-11,-47,-25
17:35:24:252313,53,15,-6,-7,-11,3,18,68
17:35:24:265809,-9,-7,28,16,4,24,27,9
17:35:24:274064,-9,-7,28,16,4,24,27,9
17:35:24:274833,-15,7,-43,-7,2,15,38,-51
17:35:24:289046,-16,-46,-13,-5,2,6,14,-33
17:35:24:289838,-16,-46,-13,-5,2,6,14,-33
17:35:24:295832,0,-3,-5,0,-3,-4,-21,-65
17:35:24:303358,-28,-20,31,1,-1,-9,-60,-111
17:35:24:310847,-28,-20,31,1,-1,-9,-60,-111
17:35:24:318346,-1,-13,19,23,9,8,18,43
17:35:24:325916,22,-7,-13,-15,-9,-3,2,11
17:35:24:334031,22,-7,-13,-15,-9,-3,2,11
17:35:24:334813,-18,-13,-2,-12,-10,-12,-48,-101
17:35:24:349031,-17,12,-34,-5,-1,5,11,-47
17:35:24:349844,-17,12,-34,-5,-1,5,11,-47
17:35:24:355839,32,12,-47,-10,-8,-5,-18,-14
17:35:24:363338,35,36,19,-6,-3,-10,31,125
17:35:24:370838,35,36,19,-6,-3,-10,31,125
17:35:24:378305,-12,6,55,10,0,1,-5,2
17:35:24:385797,4,8,-18,-10,-1,-12,-57,95
17:35:24:394025,4,8,-18,-10,-1,-12,-57,95
17:35:24:394819,-18,2,13,-5,3,5,-28,4
17:35:24:409004,-4,-25,-65,0,2,-10,-23,-128
17:35:24:409813,-4,-25,-65,0,2,-10,-23,-128
17:35:24:415784,-15,-8,-12,-9,-3,-10,-37,-90
17:35:24:423286,31,0,7,-4,-6,3,18,-5
17:35:24:430875,31,0,7,-4,-6,3,18,-5
17:35:24:438314,25,19,9,10,10,5,-2,71
17:35:24:445767,6,-11,15,25,0,-14,-7,5
17:35:24:454032,6,-11,15,25,0,-14,-7,5
17:35:24:454830,-3,-5,23,13,2,5,21,6
17:35:24:469033,-8,6,-2,2,8,5,-43,36
17:35:24:469839,-8,6,-2,2,8,5,-43,36
17:35:24:475782,12,0,-11,-6,-5,3,10,10
17:35:24:483308,0,14,11,-7,-4,-14,-32,11
17:35:24:490885,0,14,11,-7,-4,-14,-32,11
17:35:24:498318,-24,-29,-28,-3,15,10,23,-88
17:35:24:505828,-12,-17,8,14,5,5,15,-20
17:35:24:514026,-12,-17,8,14,5,5,15,-20
17:35:24:514842,15,10,-9,-8,-4,-5,13,53
17:35:24:529017,-1,-11,-21,-27,-13,-5,-32,0
17:35:24:529824,-1,-11,-21,-27,-13,-5,-32,0
17:35:24:535836,-9,-1,-24,2,12,-4,31,82
17:35:24:543292,13,30,-6,-14,-8,0,22,101
17:35:24:550958,13,30,-6,-14,-8,0,22,101
17:35:24:558327,3,13,8,-13,-12,-6,2,2
17:35:24:565863,-14,-32,-39,-11,-5,4,48,-47
17:35:24:573990,-14,-32,-39,-11,-5,4,48,-47
17:35:24:574793,-8,-24,8,-5,-12,-6,34,-19
17:35:24:589024,-14,-7,52,4,3,2,-23,46
17:35:24:589907,-14,-7,52,4,3,2,-23,46
17:35:24:595807,-15,-34,-7,4,7,6,33,26
17:35:24:603324,-9,-3,16,9,7,13,36,-36
17:35:24:610853,-9,-3,16,9,7,13,36,-36
17:35:24:618389,-14,-20,3,9,5,5,-45,-49
17:35:24:625843,53,15,-10,-16,-15,-13,-19,-5
17:35:24:634091,53,15,-10,-16,-15,-13,-19,-5
17:35:24:634800,-9,-10,-23,-1,-7,-13,-55,-28
17:35:24:648998,14,3,8,10,5,-8,-13,42
17:35:24:649807,14,3,8,10,5,-8,-13,42
17:35:24:655821,5,21,-8,-8,-2,10,7,49
17:35:24:663329,-17,-27,-24,-7,-3,1,17,42
17:35:24:670840,-17,-27,-24,-7,-3,1,17,42
17:35:24:678281,3,16,-5,-3,2,-11,-66,-26
17:35:24:685793,13,8,5,0,-2,7,10,-22
17:35:24:694022,13,8,5,0,-2,7,10,-22
17:35:24:694884,-17,-17,28,16,-2,3,34,-5
17:35:24:708979,-7,-18,-8,1,1,-1,-13,43
17:35:24:709805,-7,-18,-8,1,1,-1,-13,43
17:35:24:715796,28,50,24,-17,-10,-2,6,-17
17:35:24:731499,-48,-30,-26,-5,-4,4,-11,-50
17:35:24:732309,-48,-30,-26,-5,-4,4,-11,-50
17:35:24:738337,-12,21,5,-3,-2,-17,-14,63
17:35:24:745822,-17,7,-9,4,7,5,51,97
17:35:24:754048,-17,7,-9,4,7,5,51,97
17:35:24:754815,-40,-49,-1,-24,-11,-1,26,-97
17:35:24:768991,-5,30,15,-2,-2,-7,-44,-85
17:35:24:769813,-5,30,15,-2,-2,-7,-44,-85
17:35:24:775829,42,5,23,15,4,6,30,75
17:35:24:783336,-11,-10,-38,-8,-1,-1,43,-28
17:35:24:790919,-11,-10,-38,-8,-1,-1,43,-28
17:35:24:798291,-17,7,-46,-14,-9,-6,-35,-69
17:35:24:805797,-4,8,7,-3,2,4,17,-20
17:35:24:814025,-4,8,7,-3,2,4,17,-20
17:35:24:814795,7,-5,-48,-1,3,1,-86,-47
17:35:24:828993,-7,17,5,-14,-9,-24,-3,36
17:35:24:829791,-7,17,5,-14,-9,-24,-3,36
17:35:24:835832,7,26,36,19,-2,1,20,29
17:35:24:851493,8,-28,9,2,-4,-9,-44,-5
17:35:24:852320,8,-28,9,2,-4,-9,-44,-5
17:35:24:858317,-18,-27,3,-5,-8,-13,-8,22
17:35:24:865857,13,14,21,-7,5,14,14,100
17:35:24:874028,13,14,21,-7,5,14,14,100
17:35:24:874844,-14,14,11,-9,-4,-10,-7,31
17:35:24:889496,24,9,-13,-10,-1,11,-11,25
17:35:24:890279,24,9,-13,-10,-1,11,-11,25
17:35:24:895795,-11,-18,-4,-3,0,-7,-12,-2
17:35:24:903344,13,16,4,5,0,19,9,-114
17:35:24:910857,13,16,4,5,0,19,9,-114
17:35:24:926974,13,-2,8,2,-6,1,42,9
17:35:24:934694,15,30,-1,-1,-11,-14,-11,32
17:35:24:935548,15,30,-1,-1,-11,-14,-11,32
17:35:24:936283,-4,-6,-15,-6,6,2,3,0
17:35:24:949011,-1,-3,19,1,0,-4,11,1
17:35:24:949812,-1,-3,19,1,0,-4,11,1
17:35:24:955860,14,6,-33,1,2,2,-14,-35
17:35:24:963353,-21,-12,-3,-2,-8,-5,14,11
17:35:24:970865,-21,-12,-3,-2,-8,-5,14,11
17:35:24:978348,-9,-16,-9,-1,6,1,5,-4
17:35:24:985807,-5,5,-17,-2,5,19,-57,-84
17:35:24:994063,-5,5,-17,-2,5,19,-57,-84
17:35:24:994800,-16,-3,13,5,2,13,21,-54
17:35:25:9006,-26,-28,3,-17,-8,-15,-12,-74
17:35:25:9832,-26,-28,3,-17,-8,-15,-12,-74
17:35:25:15804,5,58,-14,-9,-3,5,37,-31
17:35:25:23278,-6,-16,0,-3,0,6,13,-85
17:35:25:30872,-6,-16,0,-3,0,6,13,-85
17:35:25:38315,5,-27,14,-4,-7,-10,-5,-19
17:35:25:45786,7,13,19,14,1,-6,10,-26
17:35:25:54085,7,13,19,14,1,-6,10,-26
17:35:25:54854,13,-38,17,10,-3,1,73,46
17:35:25:69030,-2,-12,-18,4,1,3,35,74
17:35:25:69863,-2,-12,-18,4,1,3,35,74
17:35:25:75817,1,-11,-42,-13,-3,-2,1,29
17:35:25:83302,8,-16,-2,13,7,-3,60,62
17:35:25:90941,8,-16,-2,13,7,-3,60,62
17:35:25:98323,9,-32,-21,-15,-3,-6,-43,28
17:35:25:105826,5,31,33,4,2,-8,-17,-12
17:35:25:114057,5,31,33,4,2,-8,-17,-12
17:35:25:114832,30,44,21,3,7,8,10,16
17:35:25:129042,-12,17,23,3,1,5,43,-98
17:35:25:129827,-12,17,23,3,1,5,43,-98
17:35:25:135830,4,23,-2,-2,7,0,-30,56
17:35:25:143319,-9,-13,-13,0,0,6,7,-26
17:35:25:150947,-9,-13,-13,0,0,6,7,-26
17:35:25:166455,-7,16,27,0,5,3,15,19
17:35:25:167237,1,2,-3,-1,3,5,15,62
17:35:25:174059,1,2,-3,-1,3,5,15,62
17:35:25:174924,18,1,2,27,0,-3,-11,-9
17:35:25:189038,-7,-14,-35,2,-2,-16,-81,55
17:35:25:189852,-7,-14,-35,2,-2,-16,-81,55
17:35:25:195820,-15,10,3,-3,-18,-10,-27,-94
17:35:25:203399,2,-16,-3,-4,-3,-8,-7,-2
17:35:25:210953,2,-16,-3,-4,-3,-8,-7,-2
17:35:25:218333,-5,-1,34,-5,-4,-7,23,36
17:35:25:225829,-18,-13,-21,-21,-7,-5,-17,13
17:35:25:233348,-18,-13,-21,-21,-7,-5,-17,13
17:35:25:240917,-29,-26,-9,3,0,4,6,-58
17:35:25:248980,-7,-12,11,2,-5,1,-4,-62
17:35:25:249819,-7,-12,11,2,-5,1,-4,-62
17:35:25:255806,-17,9,-44,-15,-5,3,-18,38
17:35:25:271502,18,16,14,15,5,11,6,-16
17:35:25:272351,18,16,14,15,5,11,6,-16
17:35:25:278367,-13,5,28,1,-1,-1,30,85
17:35:25:285823,-4,8,-29,1,-2,-12,-10,-17
17:35:25:293339,-4,8,-29,1,-2,-12,-10,-17
17:35:25:300781,-1,-12,-4,9,1,-2,-20,8
17:35:25:309017,-4,-22,20,-11,-10,-15,-29,41
17:35:25:309840,-4,-22,20,-11,-10,-15,-29,41
17:35:25:315790,27,3,7,-8,0,-8,-40,9
17:35:25:331492,-5,2,9,1,4,6,14,-29
17:35:25:332313,-5,2,9,1,4,6,14,-29
17:35:25:338371,30,-15,18,-5,-11,-11,2,-2
17:35:25:345810,0,-2,8,0,-2,-2,-6,-7
17:35:25:353412,0,-2,8,0,-2,-2,-6,-7
17:35:25:360803,-9,-10,-13,5,7,10,43,-40
17:35:25:369021,-2,-23,-30,8,5,8,44,30
17:35:25:369878,-2,-23,-30,8,5,8,44,30
17:35:25:375827,14,3,-39,-6,1,-3,-9,29
17:35:25:391485,3,-1,-16,6,9,2,-24,1
17:35:25:392353,3,-1,-16,6,9,2,-24,1
17:35:25:398330,34,40,15,-3,-5,2,4,-26
17:35:25:405806,12,2,2,2,2,6,15,49
17:35:25:413365,12,2,2,2,2,6,15,49
17:35:25:420831,-24,-28,-24,2,3,-1,-2,-23
17:35:25:429033,17,24,-7,-28,-13,-7,-21,34
17:35:25:429870,17,24,-7,-28,-13,-7,-21,34
17:35:25:435815,-12,-20,-8,0,16,3,-28,30
17:35:25:451583,-6,35,11,1,-3,-11,-28,-46
17:35:25:452362,-6,35,11,1,-3,-11,-28,-46
17:35:25:458329,-4,-16,-17,-8,-10,-6,6,9
17:35:25:465811,-5,-3,33,8,-4,-2,-2,-45
17:35:25:473387,-5,-3,33,8,-4,-2,-2,-45
17:35:25:480819,-28,-18,20,6,-3,2,-38,52
17:35:25:488981,17,12,-13,1,-7,2,-12,-24
17:35:25:489806,17,12,-13,1,-7,2,-12,-24
17:35:25:495812,-33,-33,9,-14,-2,2,28,-23
17:35:25:511497,-3,14,-2,7,1,-1,-4,-7
17:35:25:512299,-3,14,-2,7,1,-1,-4,-7
17:35:25:518336,-27,12,9,-4,-11,-11,-80,-68
17:35:25:526469,-30,-14,-31,-14,-4,-5,-1,-55
17:35:25:527315,-30,-14,-31,-14,-4,-5,-1,-55
17:35:25:540843,13,5,11,-14,-11,-4,13,-31
17:35:25:548978,26,-18,-31,11,1,8,68,120
17:35:25:549786,26,-18,-31,11,1,8,68,120
17:35:25:555798,4,24,9,1,-4,-15,-16,-82
17:35:25:571526,16,12,40,4,5,17,59,22
17:35:25:572369,16,12,40,4,5,17,59,22
17:35:25:578329,19,-3,-45,-4,-1,-11,11,40
17:35:25:585844,-13,-21,5,-11,-5,2,17,-13
17:35:25:593418,-13,-21,5,-11,-5,2,17,-13
17:35:25:600823,8,-12,-6,-1,-7,-1,27,76
17:35:25:608972,4,-9,0,-9,-3,4,1,7
17:35:25:609813,4,-9,0,-9,-3,4,1,7
17:35:25:615847,-35,-3,-30,-14,-4,7,26,-9
17:35:25:631509,8,-23,1,-18,-6,-7,-14,46
17:35:25:632288,8,-23,1,-18,-6,-7,-14,46
17:35:25:638308,8,26,14,5,1,7,5,-44
17:35:25:645800,-7,11,-6,0,0,-6,-39,-57
17:35:25:653353,-7,11,-6,0,0,-6,-39,-57
17:35:25:660791,-12,-36,-1,23,4,-4,-29,31
17:35:25:669004,0,1,10,-2,-3,15,30,-26
17:35:25:669800,0,1,10,-2,-3,15,30,-26
17:35:25:675776,1,-10,6,-2,17,6,30,11
17:35:25:691627,-2,10,14,7,-9,-15,-21,10
17:35:25:692383,-2,10,14,7,-9,-15,-21,10
17:35:25:698268,-7,8,8,8,9,13,1,-16
17:35:25:706511,1,11,18,11,1,-6,9,94
17:35:25:707340,1,11,18,11,1,-6,9,94
17:35:25:720813,-13,14,18,0,-8,-12,-16,-48
17:35:25:728998,-13,14,18,0,-8,-12,-16,-48
17:35:25:729796,-25,16,-13,3,10,-2,-7,-19
17:35:25:735767,21,9,-3,-7,1,9,76,22
17:35:25:751515,21,9,-3,-7,1,9,76,22
17:35:25:752272,7,23,-5,-9,-4,-5,-18,-46
17:35:25:758355,-8,-10,-26,-23,-11,-4,-3,-46
17:35:25:773998,-8,-10,-26,-23,-11,-4,-3,-46
17:35:25:774795,16,-4,36,6,13,7,-38,-35
17:35:25:780816,4,14,21,4,-14,-7,-17,12
17:35:25:788998,4,14,21,4,-14,-7,-17,12
17:35:25:789774,-12,-34,9,9,1,-12,-37,-33
17:35:25:795841,3,-10,12,18,11,9,-17,26
17:35:25:811508,3,-10,12,18,11,9,-17,26
17:35:25:812299,-2,40,-24,21,6,-2,-1,-53
17:35:25:818330,-8,4,-6,-7,1,-5,-8,-56
17:35:25:834055,-8,4,-6,-7,1,-5,-8,-56
17:35:25:834832,11,7,-9,5,-4,1,20,14
17:35:25:840818,-1,9,14,13,3,-1,-18,-17
17:35:25:849004,-1,9,14,13,3,-1,-18,-17
17:35:25:849775,-19,-17,-8,-32,-22,-6,10,-52
17:35:25:855831,9,2,3,-7,-4,-2,28,36
17:35:25:871565,9,2,3,-7,-4,-2,28,36
17:35:25:872354,-13,-12,-8,-20,-5,-5,-14,-6
17:35:25:878320,-27,-27,22,-1,0,4,-23,-49
17:35:25:894508,-27,-27,22,-1,0,4,-23,-49
17:35:25:895325,-2,-10,12,11,9,23,94,40
17:35:25:900832,13,22,-14,7,6,-2,-101,7
17:35:25:909027,13,22,-14,7,6,-2,-101,7
17:35:25:909793,-26,-40,-11,-5,-1,-7,-37,-2
17:35:25:915820,-7,-13,-43,13,16,-3,-8,25
17:35:25:931551,-7,-13,-43,13,16,-3,-8,25
17:35:25:932368,-11,-31,-25,-10,-6,-5,-29,-47
17:35:25:938394,-20,-32,-33,13,-8,-8,22,-30
17:35:25:954046,-20,-32,-33,13,-8,-8,22,-30
17:35:25:954841,-23,-37,-33,-4,0,0,20,-36
17:35:25:960786,15,6,7,-9,-3,0,-9,32
17:35:25:969119,15,6,7,-9,-3,0,-9,32
17:35:25:969861,1,0,10,3,-1,-9,-89,-14
17:35:25:975828,3,-2,-53,-26,-8,5,18,4
17:35:25:991629,3,-2,-53,-26,-8,5,18,4
17:35:25:992326,15,33,-13,-4,-3,-3,-8,11
17:35:25:998318,24,46,42,7,-1,4,29,16
17:35:26:14029,24,46,42,7,-1,4,29,16
17:35:26:14854,20,-14,-30,3,-14,-6,-14,94
17:35:26:20824,3,-25,11,-1,3,3,39,-32
17:35:26:29033,3,-25,11,-1,3,3,39,-32
17:35:26:29821,-21,-25,30,3,10,4,34,67
17:35:26:35799,-2,-2,-12,-10,1,-9,-31,11
17:35:26:51522,-2,-2,-12,-10,1,-9,-31,11
17:35:26:52316,5,26,-29,-9,-1,-2,10,-45
17:35:26:58304,11,10,20,6,-2,-1,-31,-19
17:35:26:74026,11,10,20,6,-2,-1,-31,-19
17:35:26:74824,8,2,10,-4,-10,-4,24,18
17:35:26:80794,8,1,40,-4,3,16,21,106
17:35:26:89029,8,1,40,-4,3,16,21,106
17:35:26:89802,-2,21,12,-2,2,-2,-43,-15
17:35:26:95775,-12,-1,22,0,-2,4,4,-51
17:35:26:111517,-12,-1,22,0,-2,4,4,-51
17:35:26:112321,-4,-11,-3,-4,-3,0,18,-23
17:35:26:118304,-8,-4,-2,1,-8,-11,-3,-57
17:35:26:134494,-8,-4,-2,1,-8,-11,-3,-57
17:35:26:135255,19,11,-7,-2,0,-1,3,18
17:35:26:140850,-4,-3,-16,-6,-2,5,18,-14
17:35:26:149012,-4,-3,-16,-6,-2,5,18,-14
17:35:26:149834,12,39,72,9,-1,-9,-57,33
17:35:26:155806,8,25,3,-3,-4,-11,-26,106
17:35:26:171513,8,25,3,-3,-4,-11,-26,106
17:35:26:172339,31,-4,-8,10,4,-1,18,43
17:35:26:178269,-29,0,9,-22,-8,-2,21,-102
17:35:26:194039,-29,0,9,-22,-8,-2,21,-102
17:35:26:194864,-24,-7,-6,-3,1,-5,-17,-21
17:35:26:200836,53,6,-1,5,3,15,88,103
17:35:26:209008,53,6,-1,5,3,15,88,103
17:35:26:209799,-10,-6,6,-3,3,3,28,-21
17:35:26:223340,-23,20,-59,-6,5,0,-3,-8
17:35:26:231522,-23,20,-59,-6,5,0,-3,-8
17:35:26:232293,8,-16,11,5,0,5,56,87
17:35:26:238318,-24,-24,-7,5,-1,-16,-43,-71
17:35:26:254460,-24,-24,-7,5,-1,-16,-43,-71
17:35:26:255280,-2,-13,-33,-4,1,6,31,58
17:35:26:260848,1,22,-5,0,-3,1,-13,-17
17:35:26:269006,1,22,-5,0,-3,1,-13,-17
17:35:26:269801,-22,5,16,4,2,0,-36,-63
17:35:26:283311,15,-20,-5,-4,2,-8,-65,58
17:35:26:291519,15,-20,-5,-4,2,-8,-65,58
17:35:26:292301,2,17,-6,2,0,0,-41,28
17:35:26:298310,8,9,9,-2,4,6,59,-22
17:35:26:305878,8,9,9,-2,4,6,59,-22
17:35:26:313271,-1,6,-2,0,-2,2,18,-25
17:35:26:320831,-24,-86,-15,3,0,1,14,16
17:35:26:329011,-24,-86,-15,3,0,1,14,16
17:35:26:329819,-16,-15,-11,-6,-2,1,10,-42
17:35:26:343352,8,0,16,-13,-11,-9,-36,-47
17:35:26:351492,8,0,16,-13,-11,-9,-36,-47
17:35:26:352305,-19,27,-2,-11,-3,19,42,-27
17:35:26:358268,-18,-17,-39,1,-3,-1,-29,20
17:35:26:365858,-18,-17,-39,1,-3,-1,-29,20
17:35:26:373316,-16,3,10,-2,-5,-8,-13,-8
17:35:26:380817,22,47,33,20,14,1,-14,86
17:35:26:389041,22,47,33,20,14,1,-14,86
17:35:26:389827,13,3,-40,20,5,-4,-8,1
17:35:26:403342,-3,9,1,-12,-8,-1,10,-68
17:35:26:411532,-3,9,1,-12,-8,-1,10,-68
17:35:26:412316,22,-38,-42,-13,-12,-14,-23,-26
17:35:26:418301,6,-5,-9,-22,-15,1,54,21
17:35:26:425899,6,-5,-9,-22,-15,1,54,21
17:35:26:433316,21,11,42,22,2,-1,2,92
17:35:26:440823,-1,-16,-5,-4,-3,6,21,56
17:35:26:449031,-1,-16,-5,-4,-3,6,21,56
17:35:26:449851,6,-11,-15,9,5,2,-35,-86
17:35:26:463337,-19,-20,8,33,10,-5,5,-41
17:35:26:471558,-19,-20,8,33,10,-5,5,-41
17:35:26:472423,-23,12,29,-10,13,8,7,-39
17:35:26:478389,-28,27,43,2,10,-2,-77,-68
17:35:26:485955,-28,27,43,2,10,-2,-77,-68
17:35:26:493409,29,-16,-7,-13,-2,0,18,-33
17:35:26:500821,-5,0,8,1,-4,-6,4,-43
17:35:26:509054,-5,0,8,1,-4,-6,4,-43
17:35:26:509836,-29,-7,-5,-2,1,2,29,-69
17:35:26:523353,6,-14,-33,-5,-11,-2,-16,74
17:35:26:531569,6,-14,-33,-5,-11,-2,-16,74
17:35:26:532353,50,14,-11,-9,-5,-6,-47,108
17:35:26:538358,-12,-21,-19,3,12,7,18,-28
17:35:26:545845,-12,-21,-19,3,12,7,18,-28
17:35:26:553362,-13,2,-5,-12,-8,-1,46,-35
17:35:26:560840,7,7,10,-18,-16,-10,3,11
17:35:26:569006,7,7,10,-18,-16,-10,3,11
17:35:26:569822,7,2,-3,-17,1,2,62,65
17:35:26:583335,-3,8,-10,-2,-1,-7,10,-54
17:35:26:591534,-3,8,-10,-2,-1,-7,10,-54
17:35:26:592320,-4,22,18,10,-10,-17,-45,-75
17:35:26:598314,-4,-19,-3,5,0,8,32,-4
17:35:26:605880,-4,-19,-3,5,0,8,32,-4
17:35:26:613299,-18,1,15,10,-8,10,6,-33
17:35:26:620853,21,-12,-8,24,12,2,-2,47
17:35:26:629041,21,-12,-8,24,12,2,-2,47
17:35:26:629825,-5,-24,-13,3,-1,-11,-52,112
17:35:26:643428,7,16,40,13,9,-10,7,27
17:35:26:651519,7,16,40,13,9,-10,7,27
17:35:26:652329,-21,-30,-13,4,-4,-8,-1,-36
17:35:26:658290,-16,-14,9,-21,-14,-7,-27,-57
17:35:26:665886,-16,-14,9,-21,-14,-7,-27,-57
17:35:26:673311,-31,0,12,20,10,17,12,-41
17:35:26:680814,35,51,18,3,-8,2,29,-47
17:35:26:689044,35,51,18,3,-8,2,29,-47
17:35:26:689833,-10,-34,12,10,17,4,25,3
17:35:26:703385,-2,10,-16,-18,-2,2,-17,1
17:35:26:711540,-2,10,-16,-18,-2,2,-17,1
17:35:26:712331,0,19,-17,-18,1,-5,1,-63
17:35:26:718315,-6,-21,-4,-5,-1,-5,-38,-63
17:35:26:725896,-6,-21,-4,-5,-1,-5,-38,-63
17:35:26:733322,-14,1,-5,-6,-6,-2,37,-12
17:35:26:740842,-6,34,2,5,-5,-4,-14,19
17:35:26:749082,-6,34,2,5,-5,-4,-14,19
17:35:26:749852,45,47,16,2,1,-8,-22,99
17:35:26:763313,-1,-9,-8,3,-3,1,8,4
17:35:26:771543,-1,-9,-8,3,-3,1,8,4
17:35:26:772341,0,13,-4,-6,-4,-7,-22,52
17:35:26:778293,-8,31,23,5,14,0,-22,-16
17:35:26:785890,-8,31,23,5,14,0,-22,-16
17:35:26:793393,-15,-3,-10,-3,-13,2,14,-44
17:35:26:800830,-38,-27,-70,-29,-1,-2,27,-19
17:35:26:809095,-38,-27,-70,-29,-1,-2,27,-19
17:35:26:809805,17,19,6,1,-4,5,27,90
17:35:26:823320,5,-11,-8,-16,-8,7,58,66
17:35:26:831542,5,-11,-8,-16,-8,7,58,66
17:35:26:832345,15,0,-4,5,6,-6,-54,-36
17:35:26:838368,13,-4,-3,-3,-4,2,-3,62
17:35:26:845831,13,-4,-3,-3,-4,2,-3,62
17:35:26:853370,-3,-10,18,-11,-10,-15,-1,-27
17:35:26:869654,14,-2,7,32,15,12,8,-59
17:35:26:870444,14,-2,7,32,15,12,8,-59
17:35:26:871300,-19,-33,4,-6,7,4,-11,-9
17:35:26:883350,3,-14,-36,-15,-11,-15,-13,19
17:35:26:891531,3,-14,-36,-15,-11,-15,-13,19
17:35:26:892354,18,19,-5,-7,4,-1,-39,-12
17:35:26:898292,2,-4,23,11,-3,3,26,-1
17:35:26:905848,2,-4,23,11,-3,3,26,-1
17:35:26:913335,2,8,3,-1,8,-4,-24,1
17:35:26:920852,7,13,-10,-12,-8,-9,-22,-12
17:35:26:929012,7,13,-10,-12,-8,-9,-22,-12
17:35:26:929810,-6,-5,3,21,-6,7,11,25
17:35:26:943318,11,-4,19,-14,-7,5,1,-10
17:35:26:951498,11,-4,19,-14,-7,5,1,-10
17:35:26:952294,21,45,10,-8,2,5,-6,19
17:35:26:966527,-5,-13,2,8,10,11,24,16
17:35:26:967381,-5,-13,2,8,10,11,24,16
17:35:26:973387,-18,-50,9,3,1,11,48,-36
17:35:26:980810,19,46,19,-12,-3,-10,16,48
17:35:26:989009,19,46,19,-12,-3,-10,16,48
17:35:26:989811,11,-14,-8,-12,-9,-6,1,6
17:35:27:3312,-14,-19,-2,46,3,-3,-9,-68
17:35:27:11615,-14,-19,-2,46,3,-3,-9,-68
17:35:27:12349,-25,-29,-15,-1,-8,-6,-14,-47
17:35:27:18376,-23,-12,-34,-3,-3,2,24,-41
17:35:27:25831,-23,-12,-34,-3,-3,2,24,-41
17:35:27:33336,6,-9,-63,-7,-2,-3,-33,-51
17:35:27:40835,-2,9,13,2,-12,2,-9,36
17:35:27:49007,-2,9,13,2,-12,2,-9,36
17:35:27:49805,-5,25,37,21,7,-3,13,-69
17:35:27:63298,-1,2,30,-3,0,2,-14,-9
17:35:27:71507,-1,2,30,-3,0,2,-14,-9
17:35:27:72292,14,-7,1,-16,-9,-12,9,38
17:35:27:78353,10,9,21,12,10,-7,-70,-66
17:35:27:85836,10,9,21,12,10,-7,-70,-66
17:35:27:93285,-15,-18,-3,10,5,-4,-4,-23
17:35:27:100834,-15,-54,-64,-7,11,-20,-77,42
17:35:27:108353,-15,-54,-64,-7,11,-20,-77,42
17:35:27:115791,-9,-16,-31,0,1,7,7,-41
17:35:27:123275,8,0,-33,-16,-11,12,33,71
17:35:27:131538,8,0,-33,-16,-11,12,33,71
17:35:27:132313,-8,-12,-11,3,3,0,-3,31
17:35:27:146561,13,21,15,-9,1,-8,-15,8
17:35:27:147323,13,21,15,-9,1,-8,-15,8
17:35:27:153326,3,-11,32,-29,-9,10,14,4
17:35:27:160787,-5,-11,-1,4,-13,-6,37,-46
17:35:27:168440,-5,-11,-1,4,-13,-6,37,-46
17:35:27:175807,36,17,12,-27,-13,-13,15,79
17:35:27:183315,1,-18,15,25,9,-4,0,-27
17:35:27:191549,1,-18,15,25,9,-4,0,-27
17:35:27:192355,0,12,-10,13,8,4,1,-32
17:35:27:206514,-21,12,12,-16,-9,-11,-25,-4
17:35:27:207351,-21,12,12,-16,-9,-11,-25,-4
17:35:27:213310,-11,-21,-10,-6,-3,-5,-12,13
17:35:27:220834,20,21,-10,1,2,2,12,-7
17:35:27:228422,20,21,-10,1,2,2,12,-7
17:35:27:235835,-15,5,12,1,-3,0,3,-5
17:35:27:243315,13,47,51,-30,-8,1,33,21
17:35:27:251505,13,47,51,-30,-8,1,33,21
17:35:27:252311,14,17,17,-11,-7,-5,-37,-7
17:35:27:266496,-7,-11,31,5,4,1,-5,63
17:35:27:267355,-7,-11,31,5,4,1,-5,63
17:35:27:273297,-27,-27,-40,6,5,-10,-46,-128
17:35:27:280812,-30,-44,-14,3,-5,3,18,10
17:35:27:288357,-30,-44,-14,3,-5,3,18,10
17:35:27:295833,3,14,-19,-4,3,-7,-47,-15
17:35:27:303371,-23,-6,-1,-18,-23,-11,-23,-41
17:35:27:311524,-23,-6,-1,-18,-23,-11,-23,-41
17:35:27:312312,9,-17,-12,-6,-4,0,40,9
17:35:27:326597,-1,9,-6,-2,-3,-13,-44,-34
17:35:27:327285,-1,9,-6,-2,-3,-13,-44,-34
17:35:27:333338,48,81,-19,-7,-8,3,29,92
17:35:27:340843,10,12,-28,5,17,7,-39,2
17:35:27:348336,10,12,-28,5,17,7,-39,2
17:35:27:355797,2,9,18,39,10,9,21,4
17:35:27:363262,8,-9,-12,-2,4,10,20,3
17:35:27:371553,8,-9,-12,-2,4,10,20,3
17:35:27:372318,-13,18,11,6,-1,-6,-36,52
17:35:27:386546,6,-34,-43,18,1,-1,12,44
17:35:27:387309,6,-34,-43,18,1,-1,12,44
17:35:27:393273,-5,-5,15,4,0,3,66,-45
17:35:27:400835,11,7,0,-2,1,0,17,21
17:35:27:408370,11,7,0,-2,1,0,17,21
17:35:27:415793,-28,-66,-18,-9,-4,3,-18,-10
17:35:27:423292,-5,30,32,4,-7,8,26,3
17:35:27:431527,-5,30,32,4,-7,8,26,3
17:35:27:432335,-8,-14,23,8,-5,2,-23,-11
17:35:27:446554,2,-10,1,-5,7,-3,-54,-10
17:35:27:447344,2,-10,1,-5,7,-3,-54,-10
17:35:27:453295,7,10,-2,-7,-6,-3,27,-30
17:35:27:460763,-13,-37,-41,-9,-10,0,47,82
17:35:27:468363,-13,-37,-41,-9,-10,0,47,82
17:35:27:475803,-4,-13,-9,-3,10,1,4,10
17:35:27:483302,3,28,30,-5,-4,0,40,-63
17:35:27:491521,3,28,30,-5,-4,0,40,-63
17:35:27:492328,-13,7,-19,27,16,19,40,-4
17:35:27:506514,0,-8,-39,-21,-2,-3,-19,-26
17:35:27:507331,0,-8,-39,-21,-2,-3,-19,-26
17:35:27:513338,12,6,10,-6,-2,-4,32,72
17:35:27:520791,25,7,21,4,2,3,11,-16
17:35:27:528403,25,7,21,4,2,3,11,-16
17:35:27:535804,-37,-10,-9,-48,-38,-16,-54,18
17:35:27:543322,5,4,17,-18,-17,-9,-28,29
17:35:27:551506,5,4,17,-18,-17,-9,-28,29
17:35:27:552387,-7,-3,6,-13,-4,-2,-8,-74
17:35:27:566512,-3,-13,-4,4,8,-1,-15,-108
17:35:27:567349,-3,-13,-4,4,8,-1,-15,-108
17:35:27:573422,-7,-24,-33,-5,3,-5,-2,-21
17:35:27:580818,6,12,5,-7,3,-4,-40,30
17:35:27:588349,6,12,5,-7,3,-4,-40,30
17:35:27:595861,-8,-7,16,22,17,-1,-15,17
17:35:27:603347,-24,-8,-3,-10,-13,-2,33,-13
17:35:27:611508,-24,-8,-3,-10,-13,-2,33,-13
17:35:27:612300,13,2,6,-22,0,3,17,15
17:35:27:626478,-14,-38,19,-10,17,24,73,-20
17:35:27:627294,-14,-38,19,-10,17,24,73,-20
17:35:27:633360,6,-1,43,5,-2,-2,3,39
17:35:27:640859,-6,-9,-6,0,-10,-1,44,56
17:35:27:648338,-6,-9,-6,0,-10,-1,44,56
17:35:27:663995,19,5,-17,3,1,0,-22,-5
17:35:27:664780,-13,12,-19,10,-4,-8,-21,-26
17:35:27:671522,-13,12,-19,10,-4,-8,-21,-26
17:35:27:672300,-25,-19,-27,2,6,0,-6,45
17:35:27:686476,36,27,-8,10,-2,-3,-54,0
17:35:27:687306,36,27,-8,10,-2,-3,-54,0
17:35:27:693397,4,-23,-1,0,1,7,18,32
17:35:27:700817,8,3,-32,-7,-6,-5,-8,44
17:35:27:708347,8,3,-32,-7,-6,-5,-8,44
17:35:27:715846,9,-23,-15,20,-6,-5,-55,-37
17:35:27:723347,24,52,37,23,10,-6,-7,-21
17:35:27:731539,24,52,37,23,10,-6,-7,-21
17:35:27:732298,-12,3,-23,-20,-18,2,45,-68
17:35:27:746509,-21,14,14,12,5,-7,-37,60
17:35:27:747288,-21,14,14,12,5,-7,-37,60
17:35:27:753350,-4,3,27,31,0,-2,-34,-31
17:35:27:760846,-51,-25,-24,-3,2,3,34,-31
17:35:27:768342,-51,-25,-24,-3,2,3,34,-31
17:35:27:775769,9,17,-16,-5,0,-1,-34,-36
17:35:27:783343,-2,-39,-43,17,11,-1,-11,-96
17:35:27:791586,-2,-39,-43,17,11,-1,-11,-96
17:35:27:792387,-11,-6,-10,-4,1,4,52,98
17:35:27:806531,-6,33,38,-18,-8,3,9,-52
17:35:27:807327,-6,33,38,-18,-8,3,9,-52
17:35:27:813296,15,-5,-6,6,-2,-5,19,12
17:35:27:820809,10,-13,-3,-19,-16,-9,-32,90
17:35:27:828382,10,-13,-3,-19,-16,-9,-32,90
17:35:27:835808,17,33,25,3,13,2,17,-19
17:35:27:843287,-2,-19,-14,0,-2,3,28,-11
17:35:27:851609,-2,-19,-14,0,-2,3,28,-11
17:35:27:852330,-17,-7,0,-5,8,-4,-2,-60
17:35:27:866553,10,-59,-20,-13,7,4,4,-39
17:35:27:867350,10,-59,-20,-13,7,4,4,-39
17:35:27:873328,-17,-34,22,0,7,-3,-30,3
17:35:27:880793,-7,7,5,17,-2,-7,-15,73
17:35:27:888390,-7,7,5,17,-2,-7,-15,73
17:35:27:895839,30,24,12,-15,-3,-3,-10,-43
17:35:27:903324,-1,-38,-25,-25,-7,-12,-61,3
17:35:27:911559,-1,-38,-25,-25,-7,-12,-61,3
17:35:27:912315,8,27,-26,-8,-3,-2,-5,10
17:35:27:926541,-14,-9,37,-8,1,3,22,-121
17:35:27:927332,-14,-9,37,-8,1,3,22,-121
17:35:27:933333,6,34,7,-5,5,11,5,-10
17:35:27:940867,-19,-6,-5,1,-3,10,31,-27
17:35:27:948401,-19,-6,-5,1,-3,10,31,-27
17:35:27:955822,-15,-12,13,-5,-7,-5,-15,-52
17:35:27:963296,20,36,14,5,-2,-11,4,26
17:35:27:971496,20,36,14,5,-2,-11,4,26
17:35:27:972303,-16,-13,-37,11,1,-3,-10,99
17:35:27:986486,37,29,17,9,2,6,-14,36
17:35:27:987279,37,29,17,9,2,6,-14,36
17:35:27:993307,-12,12,2,2,11,0,16,-61
17:35:28:820,6,-8,-9,-23,-5,2,21,-9
17:35:28:8418,6,-8,-9,-23,-5,2,21,-9
17:35:28:15833,18,-49,-62,9,-6,2,15,34
17:35:28:23365,10,15,30,17,12,4,-7,16
17:35:28:31523,10,15,30,17,12,4,-7,16
17:35:28:32309,-14,8,33,-11,-14,-9,31,-67
17:35:28:46497,-53,-14,-52,-23,2,8,20,-34
17:35:28:47305,-53,-14,-52,-23,2,8,20,-34
17:35:28:53253,4,-1,39,17,7,-1,2,44
17:35:28:68971,-10,9,1,6,1,-4,3,-55
17:35:28:69789,-10,9,1,6,1,-4,3,-55
17:35:28:75803,-39,-21,2,-9,-5,-6,-1,-5
17:35:28:83355,-1,-25,-12,4,-12,-18,-71,48
17:35:28:90837,-1,-25,-12,4,-12,-18,-71,48
17:35:28:98346,1,-10,17,-8,2,-2,-29,-27
17:35:28:106486,37,36,45,15,13,19,49,99
17:35:28:107307,37,36,45,15,13,19,49,99
17:35:28:113313,-10,-23,-15,-18,-10,-12,-49,16
17:35:28:128998,23,1,19,-4,-9,3,3,-85
17:35:28:129814,23,1,19,-4,-9,3,3,-85
17:35:28:135779,34,12,-1,19,0,1,6,0
17:35:28:143250,-31,-12,-37,-26,-6,10,32,19
17:35:28:150856,-31,-12,-37,-26,-6,10,32,19
17:35:28:158270,23,42,12,10,5,7,43,12
17:35:28:166509,-10,0,-24,15,11,-5,-15,-33
17:35:28:167332,-10,0,-24,15,11,-5,-15,-33
17:35:28:173433,14,22,-14,-9,-8,-17,-69,-26
17:35:28:189069,3,3,6,-6,2,-16,-86,6
17:35:28:189795,3,3,6,-6,2,-16,-86,6
17:35:28:195805,-17,-14,-12,-16,3,2,8,-29
17:35:28:203294,-19,11,-4,23,4,6,51,-13
17:35:28:210904,-19,11,-4,23,4,6,51,-13
17:35:28:218290,8,9,8,-12,-11,0,23,25
17:35:28:226607,10,13,14,12,6,20,18,26
17:35:28:227332,10,13,14,12,6,20,18,26
17:35:28:233308,-20,-48,30,-5,5,11,7,22
17:35:28:249046,-7,10,-11,-5,5,2,42,-57
17:35:28:249834,-7,10,-11,-5,5,2,42,-57
17:35:28:255791,-16,-34,-42,-12,-21,-9,-37,85
17:35:28:263348,-30,-35,7,9,5,-15,-50,-29
17:35:28:270882,-30,-35,7,9,5,-15,-50,-29
17:35:28:278319,2,19,5,0,-2,-3,-28,61
17:35:28:286491,0,-8,7,-27,-31,-9,-21,97
17:35:28:287290,0,-8,7,-27,-31,-9,-21,97
17:35:28:293327,-3,41,15,9,-3,0,5,-74
17:35:28:309042,-12,7,4,-17,1,3,6,6
17:35:28:309850,-12,7,4,-17,1,3,6,6
17:35:28:315817,-15,1,-28,5,3,4,43,35
17:35:28:323345,5,-10,-7,21,5,-4,-8,-8
17:35:28:330822,5,-10,-7,21,5,-4,-8,-8
17:35:28:338309,4,-21,-12,32,5,1,-27,-67
17:35:28:346491,39,6,-24,1,-12,-6,-12,99
17:35:28:347337,39,6,-24,1,-12,-6,-12,99
17:35:28:353251,36,29,29,18,6,5,22,46
17:35:28:377161,-6,-1,6,2,-1,2,7,-117
17:35:28:377966,-6,-1,6,2,-1,2,7,-117
17:35:28:378786,2,27,38,4,-4,-5,0,-30
17:35:28:383298,-13,15,-6,4,5,3,3,-29
17:35:28:390867,-13,15,-6,4,5,3,3,-29
17:35:28:398313,-1,-15,6,30,4,4,20,87
17:35:28:406489,-20,-62,-34,-9,-7,-15,-10,-39
17:35:28:407294,-20,-62,-34,-9,-7,-15,-10,-39
17:35:28:413313,-10,-47,-6,-7,-3,4,-31,-50
17:35:28:428959,-2,-20,-14,23,6,5,39,-24
17:35:28:429791,-2,-20,-14,23,6,5,39,-24
17:35:28:435817,10,11,-60,-71,-23,-15,14,-58
17:35:28:443322,14,14,33,6,13,12,0,-38
17:35:28:450852,14,14,33,6,13,12,0,-38
17:35:28:458328,-6,14,38,-18,-5,-11,-94,-43
17:35:28:466510,11,32,-4,-9,-23,-21,-44,1
17:35:28:467318,11,32,-4,-9,-23,-21,-44,1
17:35:28:473271,6,15,-2,3,9,10,22,1
17:35:28:488978,-8,-18,-36,-26,-5,4,16,97
17:35:28:489786,-8,-18,-36,-26,-5,4,16,97
17:35:28:495809,5,17,-2,-1,-5,-13,-56,44
17:35:28:503332,20,11,36,4,10,0,-30,52
17:35:28:510843,20,11,36,4,10,0,-30,52
17:35:28:518280,5,-19,-30,5,7,8,29,-69
17:35:28:526486,14,37,21,6,-10,-9,-16,-37
17:35:28:527310,14,37,21,6,-10,-9,-16,-37
17:35:28:533325,-12,-13,15,4,12,5,37,19
17:35:28:549004,-24,-4,-7,-3,-1,1,-5,-24
17:35:28:549795,-24,-4,-7,-3,-1,1,-5,-24
17:35:28:555802,-18,-5,-5,5,2,3,5,15
17:35:28:563263,-3,-3,14,12,16,-1,4,-19
17:35:28:570870,-3,-3,14,12,16,-1,4,-19
17:35:28:578272,-33,-35,8,17,-4,12,91,-42
17:35:28:586519,5,22,36,22,-3,-3,13,33
17:35:28:587330,5,22,36,22,-3,-3,13,33
17:35:28:593286,-8,31,-4,-1,0,-3,17,-17
17:35:28:608998,1,-7,5,-3,-13,-21,-102,-22
17:35:28:609828,1,-7,5,-3,-13,-21,-102,-22
17:35:28:615794,11,-8,-34,-32,-9,0,46,60
17:35:28:623292,-19,-11,-42,4,1,7,54,-17
17:35:28:630877,-19,-11,-42,4,1,7,54,-17
17:35:28:638296,14,7,34,4,5,-5,-46,45
17:35:28:646561,7,-28,-9,-14,-4,-13,-34,4
17:35:28:647349,7,-28,-9,-14,-4,-13,-34,4
17:35:28:653383,15,31,-13,7,-5,-10,-44,-12
17:35:28:669103,-34,3,5,-10,2,4,-10,-81
17:35:28:669827,-34,3,5,-10,2,4,-10,-81
17:35:28:675786,6,15,-34,-9,8,-1,-26,16
17:35:28:683291,6,12,12,4,13,3,-2,-61
17:35:28:690888,6,12,12,4,13,3,-2,-61
17:35:28:698340,36,5,7,2,-3,-2,6,30
17:35:28:706469,-3,-22,-7,4,10,12,68,52
17:35:28:707286,-3,-22,-7,4,10,12,68,52
17:35:28:713336,3,-1,19,2,4,-2,-44,-17
17:35:28:728992,17,3,-15,-19,-5,-2,16,-19
17:35:28:729789,17,3,-15,-19,-5,-2,16,-19
17:35:28:735842,-19,-9,15,-16,-13,-3,32,-3
17:35:28:743340,-8,10,-6,-10,-15,-2,-40,-62
17:35:28:750821,-8,10,-6,-10,-15,-2,-40,-62
17:35:28:758328,-7,-11,-19,-8,-2,-1,10,-45
17:35:28:766503,10,41,-4,21,29,8,-3,-64
17:35:28:767310,10,41,-4,21,29,8,-3,-64
17:35:28:773308,-11,-14,4,11,-4,2,15,20
17:35:28:789479,-18,-45,4,-12,-7,2,12,-39
17:35:28:790267,-18,-45,4,-12,-7,2,12,-39
17:35:28:795773,-2,0,4,13,8,18,52,101
17:35:28:803324,16,-23,1,4,-8,-3,27,-17
17:35:28:810897,16,-23,1,4,-8,-3,27,-17
17:35:28:818325,-18,-11,-7,57,0,-17,-24,-51
17:35:28:826522,-14,8,10,1,-4,-2,-5,-38
17:35:28:827321,-14,8,10,1,-4,-2,-5,-38
17:35:28:833290,8,4,-27,-9,-10,-15,-39,48
17:35:28:849041,-13,-4,0,-5,-5,0,50,47
17:35:28:849806,-13,-4,0,-5,-5,0,50,47
17:35:28:855874,4,10,2,-18,-3,-9,-37,-98
17:35:28:863305,1,9,2,8,-11,2,85,104
17:35:28:870883,1,9,2,8,-11,2,85,104
17:35:28:878292,-21,-57,-40,-32,-11,-2,19,-38
17:35:28:886542,14,13,4,-5,1,15,87,127
17:35:28:887361,14,13,4,-5,1,15,87,127
17:35:28:893324,-3,-2,16,0,6,14,30,-73
