Time,EMG1,EMG2,EMG3,EMG4,EMG5,EMG6,EMG7,EMG8
14:09:27:699258,-1,-2,-1,-1,-1,-1,-1,-1
14:09:27:707497,0,-2,0,-2,-2,-1,0,-2
14:09:27:708299,0,-2,0,-2,-2,-1,0,-2
14:09:27:714373,-1,-3,-2,-1,0,0,-2,-2
14:09:27:730007,-1,-3,0,1,-2,0,-1,0
14:09:27:730751,-1,-3,0,1,-2,0,-1,0
14:09:27:736740,0,-2,-2,-1,-1,0,0,-1
14:09:27:752514,0,0,-3,-2,0,-1,-1,0
14:09:27:753381,0,0,-3,-2,0,-1,-1,0
14:09:27:759237,0,-1,0,-1,-1,0,0,0
14:09:27:767518,-1,-1,-1,-1,0,-1,-1,-1
14:09:27:768261,-1,-1,-1,-1,0,-1,-1,-1
14:09:27:774248,-2,0,-1,0,-1,-1,-2,-1
14:09:27:790012,-2,-1,-1,0,0,-2,-1,-1
14:09:27:790883,-2,-1,-1,0,0,-2,-1,-1
14:09:27:796760,0,1,-1,1,0,0,0,-2
14:09:27:804254,-2,1,-1,-1,-1,-3,-2,-2
14:09:27:811758,-2,1,-1,-1,-1,-3,-2,-2
14:09:27:819250,0,-2,-3,-1,-1,-1,-1,0
14:09:27:827521,0,-1,-1,0,0,-2,-1,-2
14:09:27:828270,0,-1,-1,0,0,-2,-1,-2
14:09:27:834254,1,-2,-1,-2,-1,0,-2,1
14:09:27:858147,0,-2,-3,-3,-1,-1,0,0
14:09:27:859002,0,-2,-3,-3,-1,-1,0,0
14:09:27:859754,-4,0,1,-1,0,-4,-1,-1
14:09:27:864245,-2,-1,-2,0,-1,-1,0,-1
14:09:27:871874,-2,-1,-2,0,-1,-1,0,-1
14:09:27:879275,-1,1,0,-2,-2,-1,-1,0
14:09:27:887868,0,-1,1,0,1,0,0,0
14:09:27:902506,0,-1,1,0,1,0,0,0
14:09:27:903401,-2,-3,0,-2,-2,1,-1,-1
14:09:27:910017,-1,-2,-1,0,-2,0,-3,-1
14:09:27:910867,-1,-2,-1,0,-2,0,-3,-1
14:09:27:916755,-3,-1,-2,-1,-1,0,-3,-3
14:09:27:932521,0,0,-2,-1,0,0,-1,-1
14:09:27:933377,0,0,-2,-1,0,0,-1,-1
14:09:27:939251,0,1,2,0,1,-1,-1,-2
14:09:27:947499,0,-2,-1,-1,-1,-2,1,-2
14:09:27:948371,0,-2,-1,-1,-1,-2,1,-2
14:09:27:961754,-2,0,-2,-1,1,-1,1,0
14:09:27:970024,-2,-1,0,0,0,-1,-2,-1
14:09:27:970893,-2,-1,0,0,0,-1,-2,-1
14:09:27:984959,0,-2,-3,0,-2,0,0,0
14:09:27:985770,0,-2,-1,-2,-3,-2,0,-1
14:09:27:991861,0,-2,-1,-2,-3,-2,0,-1
14:09:27:999276,-1,-1,-2,0,0,-2,-2,0
14:09:28:7477,-2,-1,-2,-3,-1,1,-1,0
14:09:28:8364,-2,-1,-2,-3,-1,1,-1,0
14:09:28:14243,-2,-1,0,-3,-1,-2,0,-1
14:09:28:30527,-3,-3,0,0,-3,-1,0,-2
14:09:28:31252,-3,-3,0,0,-3,-1,0,-2
14:09:28:36767,0,0,-1,-2,0,-1,-1,-1
14:09:28:60646,-2,-1,-3,0,1,0,-1,-1
14:09:28:61499,-2,-1,-3,0,1,0,-1,-1
14:09:28:62234,-3,-2,-1,0,-2,0,-2,-3
14:09:28:67897,-2,-1,-1,-1,-2,-2,0,-1
14:09:28:75036,-2,-1,-1,-1,-2,-2,0,-1
14:09:28:75749,-1,-1,0,-1,0,-1,-2,0
14:09:28:90641,-1,0,-1,-2,0,-1,0,-1
14:09:28:91500,-1,0,-1,-2,0,-1,0,-1
14:09:28:96776,-2,-4,-1,-2,-1,-1,1,-2
14:09:28:104381,-2,0,0,-2,0,-1,-2,-2
14:09:28:111880,-2,0,0,-2,0,-1,-2,-2
14:09:28:144507,0,0,-1,-2,0,0,-1,0
14:09:28:145281,0,-2,-1,0,-1,0,0,0
14:09:28:146123,0,-2,-1,0,-1,0,0,0
14:09:28:146874,-1,-1,-1,1,1,0,-2,-1
14:09:28:149998,0,0,0,0,-1,-1,2,-2
14:09:28:150874,0,0,0,0,-1,-1,2,-2
14:09:28:156770,-2,-3,-3,-1,0,-1,0,1
14:09:28:164251,0,-1,-2,0,0,-1,-3,0
14:09:28:171795,0,-1,-2,0,0,-1,-3,0
14:09:28:179269,-1,0,-3,0,-4,0,0,-1
14:09:28:187493,-1,0,0,-2,0,-1,-2,-1
14:09:28:188238,-1,0,0,-2,0,-1,-2,-1
14:09:28:194256,0,-2,0,-1,0,1,-1,0
14:09:28:210549,-1,0,0,-1,0,-1,-3,-2
14:09:28:217495,-1,0,0,-1,0,-1,-3,-2
14:09:28:218234,-2,-1,-2,0,-1,-2,0,-2
14:09:28:224260,-1,-2,-1,-1,-2,-1,-1,-1
14:09:28:239990,-1,-2,-1,-1,-2,-1,-1,-1
14:09:28:240865,-1,1,-2,0,-2,-1,-2,-3
14:09:28:247493,-2,0,0,-1,0,0,0,-2
14:09:28:248269,-2,0,0,-1,0,0,0,-2
14:09:28:261765,-2,-1,-3,-2,-3,0,0,-1
14:09:28:278132,-1,-3,0,-3,-1,-1,-2,0
14:09:28:278997,-1,-3,0,-3,-1,-1,-2,0
14:09:28:279744,-1,-1,-1,-1,0,-2,-2,0
14:09:28:292543,1,-1,-2,0,-1,0,1,0
14:09:28:293280,1,-1,-2,0,-1,0,1,0
14:09:28:299248,-2,-2,2,1,-1,0,1,-1
14:09:28:307504,-2,-1,-2,-3,0,-1,-1,-2
14:09:28:308359,-2,-1,-2,-3,0,-1,-1,-2
14:09:28:330649,1,-1,-1,-1,0,-1,-2,-1
14:09:28:331497,-1,-2,-2,-1,0,-3,-2,-3
14:09:28:332286,-1,-2,-2,-1,0,-3,-2,-3
14:09:28:336751,-2,-1,0,-4,-2,-1,-1,-2
14:09:28:352538,-1,-1,-2,-1,-1,-1,-2,-1
14:09:28:353377,-1,-1,-2,-1,-1,-1,-2,-1
14:09:28:359269,1,1,0,-2,-1,-1,-2,-1
14:09:28:367514,-1,-3,1,-2,-2,-1,0,-1
14:09:28:368259,-1,-3,1,-2,-2,-1,0,-1
14:09:28:381772,-1,0,0,-1,0,-2,0,-2
14:09:28:398178,-2,0,-2,-1,-1,0,-1,0
14:09:28:399000,-2,0,-2,-1,-1,0,-1,0
14:09:28:399777,0,-1,-1,1,-1,-1,-1,1
14:09:28:412878,-1,1,0,0,-2,0,-1,0
14:09:28:420672,-1,1,0,0,-2,0,-1,0
14:09:28:421501,-1,-1,-3,-1,-1,-1,-2,-1
14:09:28:427496,0,0,-2,0,-1,1,0,-1
14:09:28:428398,0,0,-2,0,-1,1,0,-1
14:09:28:441760,-2,-5,-1,-1,0,-3,0,0
14:09:28:450046,-1,0,-2,-1,0,-2,2,-2
14:09:28:450745,-1,0,-2,-1,0,-2,2,-2
14:09:28:456755,-2,-1,0,0,0,-2,-2,1
14:09:28:472536,-2,0,-2,0,-1,-1,-2,-3
14:09:28:473270,-2,0,-2,0,-1,-1,-2,-3
14:09:28:479271,-2,-1,-1,-3,-1,0,-3,-1
14:09:28:487512,0,-2,-1,-3,-1,0,-1,0
14:09:28:488295,0,-2,-1,-3,-1,0,-1,0
14:09:28:501756,0,-1,0,-2,0,1,-1,-1
14:09:28:510021,-1,-1,0,-1,-3,-3,0,-1
14:09:28:510742,-1,-1,0,-1,-3,-3,0,-1
14:09:28:516750,0,-1,0,-2,0,-1,0,-2
14:09:28:532513,-3,-2,-1,1,0,0,0,0
14:09:28:533267,-3,-2,-1,1,0,0,0,0
14:09:28:539231,-1,0,-1,0,-1,-1,-1,0
14:09:28:547483,-1,-2,-1,-1,0,-2,-3,-1
14:09:28:548263,-1,-2,-1,-1,0,-2,-3,-1
14:09:28:562249,-2,-1,-1,-1,0,-1,-1,-1
14:09:28:570047,-2,-1,-1,-1,0,-1,-1,-1
14:09:28:570747,-2,-3,-2,-2,0,1,-1,1
14:09:28:584280,0,0,-1,-1,-2,-2,1,0
14:09:28:600676,0,0,-1,-1,-2,-2,1,0
14:09:28:601509,-2,-1,0,1,0,-3,0,0
14:09:28:602236,0,-1,-2,-1,-1,-1,0,0
14:09:28:606889,0,-1,-2,-1,-1,-1,0,0
14:09:28:614270,0,-1,0,0,0,0,0,0
14:09:28:621813,-1,-3,-1,1,-3,-1,-2,-2
14:09:28:630021,-1,-3,-1,1,-3,-1,-2,-2
14:09:28:630778,0,-1,-2,0,0,0,-2,-1
14:09:28:644264,-4,1,-3,-1,1,0,-2,-2
14:09:28:660661,-4,1,-3,-1,1,0,-2,-2
14:09:28:661500,-2,0,0,-1,-2,0,0,-1
14:09:28:662245,0,0,0,-1,-3,-3,-1,0
14:09:28:674999,0,0,0,-1,-3,-3,-1,0
14:09:28:675741,-1,-1,-1,-1,0,0,0,0
14:09:28:681763,0,-2,0,0,0,-1,1,-1
14:09:28:689992,0,-2,0,0,0,-1,1,-1
14:09:28:690859,2,0,-2,-2,-1,-2,-1,1
14:09:28:696756,0,1,-2,2,0,-1,-1,-2
14:09:28:720646,0,1,-2,2,0,-1,-1,-2
14:09:28:721518,-2,-1,0,-4,-3,-1,0,-3
14:09:28:722268,-1,-2,-1,0,0,0,0,0
14:09:28:734982,-1,-2,-1,0,0,0,0,0
14:09:28:735774,-3,-2,-1,0,-1,-3,-3,0
14:09:28:741800,0,-2,-1,-1,-1,-1,-2,1
14:09:28:750011,0,-2,-1,-1,-1,-1,-2,1
14:09:28:750775,0,-1,-1,-1,-1,-1,2,-1
14:09:28:764310,-2,0,1,0,-1,-1,0,-1
14:09:28:772542,-2,0,1,0,-1,-1,0,-1
14:09:28:773267,1,-1,-1,-1,-3,-1,-2,-2
14:09:28:787576,-1,-2,-2,-2,-3,1,-1,-3
14:09:28:788235,-1,-2,-2,-2,-3,1,-1,-3
14:09:28:794260,-2,-4,-3,-1,-2,-1,-3,-1
14:09:28:801771,-1,-1,-1,-1,1,-1,-1,-2
14:09:28:810021,-1,-1,-1,-1,1,-1,-1,-2
14:09:28:810775,-1,0,-2,0,-3,0,-1,-1
14:09:28:816760,-2,-1,-3,-1,0,-1,-3,-2
14:09:28:832495,-2,-1,-3,-1,0,-1,-3,-2
14:09:28:833232,-3,-1,-1,0,0,-1,-2,-1
14:09:28:839280,0,-2,-1,-3,0,-2,0,-1
14:09:28:846910,0,-2,-1,-3,0,-2,0,-1
14:09:28:855011,0,1,0,0,0,-2,-1,-2
14:09:28:861798,-1,0,0,-2,1,-2,-1,0
14:09:28:870020,-1,0,0,-2,1,-2,-1,0
14:09:28:870764,-1,-2,-1,-1,0,-1,-1,1
14:09:28:884260,0,-2,-2,2,-4,-1,-2,-1
14:09:28:892513,0,-2,-2,2,-4,-1,-2,-1
14:09:28:893252,-2,1,-1,-1,1,0,0,-2
14:09:28:899280,-1,0,-2,-1,0,0,0,-1
14:09:28:915012,-1,0,-2,-1,0,0,0,-1
14:09:28:915786,0,-3,-1,0,1,0,0,-2
14:09:28:921787,-2,-3,1,0,-2,-2,0,0
14:09:28:930022,-2,-3,1,0,-2,-2,0,0
14:09:28:930746,2,0,-1,-2,-2,0,-2,0
14:09:28:936761,-2,-4,-3,0,-1,-1,1,0
14:09:28:952880,-2,-4,-3,0,-1,-1,1,0
14:09:28:953744,-2,-3,-2,-1,-1,-2,-1,-2
14:09:28:959267,1,1,1,-1,-2,-1,-1,-2
14:09:28:966751,1,1,1,-1,-2,-1,-1,-2
14:09:28:974258,-2,-3,-3,0,-1,0,-1,0
14:09:28:981758,-1,-2,-2,-2,-1,0,0,-2
14:09:28:998143,-1,-2,-2,-2,-1,0,0,-2
14:09:28:998877,0,0,1,0,-2,-3,-2,-1
14:09:28:999741,2,5,-2,-2,-2,0,1,1
14:09:29:12517,2,5,-2,-2,-2,0,1,1
14:09:29:13384,-1,-1,-1,-1,-3,-3,0,-2
14:09:29:19272,-2,-1,-1,0,2,1,-3,-2
14:09:29:26737,-2,-1,-1,0,2,1,-3,-2
14:09:29:34293,-1,0,-1,-2,-1,2,-1,-2
14:09:29:41764,-1,-1,-2,0,-3,-2,-1,1
14:09:29:50056,-1,-1,-2,0,-3,-2,-1,1
14:09:29:50809,-1,-1,2,-1,-1,1,-2,0
14:09:29:56764,-1,-1,-2,-2,-3,-2,-2,-1
14:09:29:72519,-1,-1,-2,-2,-3,-2,-2,-1
14:09:29:73260,-1,1,0,-1,-1,0,-2,-1
14:09:29:79278,-3,-2,1,2,-2,-1,0,-1
14:09:29:86921,-3,-2,1,2,-2,-1,0,-1
14:09:29:94280,0,0,0,-1,0,-1,-1,-4
14:09:29:101774,-2,-4,-1,-1,0,-2,-3,-2
14:09:29:110014,-2,-4,-1,-1,0,-2,-3,-2
14:09:29:110810,-3,-1,0,-1,-2,-1,0,-1
14:09:29:116801,-2,-1,0,0,1,-2,0,-1
14:09:29:132524,-2,-1,0,0,1,-2,0,-1
14:09:29:133253,0,-1,-1,-1,0,-2,-1,-1
14:09:29:139266,0,-1,-1,-1,1,-1,0,1
14:09:29:155005,0,-1,-1,-1,1,-1,0,1
14:09:29:155763,0,-2,-2,1,2,-1,-1,-1
14:09:29:161794,-2,0,0,-3,0,-2,-1,-3
14:09:29:170004,-2,0,0,-3,0,-2,-1,-3
14:09:29:170771,-1,-1,0,-2,-2,-1,1,-1
14:09:29:184288,-1,1,0,-1,-2,-1,-2,-2
14:09:29:192521,-1,1,0,-1,-2,-1,-2,-2
14:09:29:193264,-1,-2,-3,-2,-2,-1,0,-1
14:09:29:199254,0,-2,-1,-2,0,0,-2,-3
14:09:29:215012,0,-2,-1,-2,0,0,-2,-3
14:09:29:215867,-3,0,-2,1,1,0,-2,0
14:09:29:230638,0,-3,-2,-3,-2,1,-2,0
14:09:29:231544,0,-3,-2,-3,-2,1,-2,0
14:09:29:232279,-1,-1,-1,-3,0,-2,-2,-1
14:09:29:244255,-2,-1,0,-1,-1,-1,0,-1
14:09:29:252541,-2,-1,0,-1,-1,-1,0,-1
14:09:29:253260,-1,-2,-2,-1,-1,-1,0,-2
14:09:29:259258,0,-3,-3,-1,-2,-1,0,-1
14:09:29:275020,0,-3,-3,-1,-2,-1,0,-1
14:09:29:275747,1,0,2,0,-1,-2,-1,-1
14:09:29:290668,-1,-1,0,-1,0,1,0,0
14:09:29:291514,-1,-1,0,-1,0,1,0,0
14:09:29:292236,-1,0,-1,-1,0,-1,-1,0
14:09:29:304289,-1,-1,-3,0,0,-2,-2,0
14:09:29:312512,-1,-1,-3,0,0,-2,-2,0
14:09:29:313269,-3,-1,0,-1,0,0,-1,-1
14:09:29:319287,-2,-1,-2,0,-1,0,-1,-1
14:09:29:335040,-2,-1,-2,0,-1,0,-1,-1
14:09:29:335777,-1,-1,-3,-2,-1,-1,0,-1
14:09:29:341779,-1,1,1,1,-2,1,-1,-1
14:09:29:350013,-1,1,1,1,-2,1,-1,-1
14:09:29:350760,0,-1,-1,0,0,-3,-2,-3
14:09:29:364261,-1,-3,-2,-2,0,-2,0,-2
14:09:29:372540,-1,-3,-2,-2,0,-2,0,-2
14:09:29:373259,-1,-3,-1,-1,0,-3,1,-1
14:09:29:386772,-1,-1,0,-3,1,0,0,0
14:09:29:395005,-1,-1,0,-3,1,0,0,0
14:09:29:395882,0,-2,-3,-3,-3,0,0,-1
14:09:29:401776,0,-1,-2,-1,-2,-2,-1,1
14:09:29:417546,0,-1,-2,-1,-2,-2,-1,1
14:09:29:418277,-3,-2,-1,0,1,0,-3,-2
14:09:29:424268,0,1,0,0,-1,2,0,-1
14:09:29:432530,0,1,0,0,-1,2,0,-1
14:09:29:433400,1,1,0,1,-4,0,-2,2
14:09:29:439289,0,0,0,-1,-2,-2,-2,-2
14:09:29:455400,0,0,0,-1,-2,-2,-2,-2
14:09:29:462509,0,0,0,-2,-2,0,-1,-2
14:09:29:463283,-1,-2,-1,-4,-1,-2,1,-2
14:09:29:470027,-1,-2,-1,-4,-1,-2,1,-2
14:09:29:470886,-1,0,-2,0,0,0,-2,0
14:09:29:484262,-2,1,1,-3,1,-3,-4,-2
14:09:29:492508,-2,1,1,-3,1,-3,-4,-2
14:09:29:493385,-1,-1,0,-2,-2,-2,-1,0
14:09:29:499319,0,-2,-2,0,-1,-1,-2,-1
14:09:29:515031,0,-2,-2,0,-1,-1,-2,-1
14:09:29:515765,-1,-1,-2,-2,1,1,0,-3
14:09:29:521804,-2,-1,-1,1,-2,0,-4,-2
14:09:29:537546,-2,-1,-1,1,-2,0,-4,-2
14:09:29:538268,-3,-2,0,-1,-2,-1,-2,-2
14:09:29:553146,-2,-4,0,1,1,1,1,0
14:09:29:554015,-2,-4,0,1,1,1,1,0
14:09:29:554760,0,-1,-1,-2,-2,-1,0,1
14:09:29:559259,1,-1,-1,0,0,2,0,0
14:09:29:575518,1,-1,-1,0,0,2,0,0
14:09:29:576261,-1,-3,-4,-1,-2,-2,0,-3
14:09:29:581756,-1,0,-3,-4,-2,-2,-2,-3
14:09:29:590016,-1,0,-3,-4,-2,-2,-2,-3
14:09:29:590759,0,1,0,0,-1,-1,0,-1
14:09:29:604312,-2,-5,-2,0,-1,-1,-1,-1
14:09:29:620656,-2,-5,-2,0,-1,-1,-1,-1
14:09:29:621528,1,-2,1,0,-1,0,-1,2
14:09:29:622261,-1,2,-1,-2,-2,-2,0,-2
14:09:29:635018,-1,2,-1,-2,-2,-2,0,-2
14:09:29:635776,-3,-2,-3,-2,-1,-1,-1,-1
14:09:29:650639,2,2,0,1,-1,-1,0,1
14:09:29:651514,2,2,0,1,-1,-1,0,1
14:09:29:652280,-2,2,0,0,-1,0,-1,-1
14:09:29:673245,-2,-3,0,-1,0,-1,-2,0
14:09:29:673889,-2,-3,0,-1,0,-1,-2,0
14:09:29:674764,0,-2,-1,1,1,0,0,-1
14:09:29:679312,-4,-3,-3,-2,0,-4,-1,-2
14:09:29:695024,-4,-3,-3,-2,0,-4,-1,-2
14:09:29:695880,-2,-3,-2,-2,-1,0,-1,-2
14:09:29:710698,-2,-1,0,-2,-3,0,0,-1
14:09:29:711517,-2,-1,0,-2,-3,0,0,-1
14:09:29:712252,0,-1,0,1,-1,-1,0,-1
14:09:29:724275,-1,-2,-2,1,1,-2,0,-1
14:09:29:740638,-1,-2,-2,1,1,-2,0,-1
14:09:29:741529,-1,-1,-1,0,1,0,-1,-1
14:09:29:742274,0,-1,-3,-3,-2,0,-1,-1
14:09:29:755514,0,-1,-3,-3,-2,0,-1,-1
14:09:29:762515,0,-1,-1,-1,-2,-1,-1,1
14:09:29:763253,-2,0,-1,-3,-2,-1,-1,-1
14:09:29:770056,-2,0,-1,-3,-2,-1,-1,-1
14:09:29:770768,-1,-3,-2,-3,1,-1,-3,-2
14:09:29:784319,1,-1,-1,1,-1,-2,-2,0
14:09:29:807269,1,-1,-1,1,-1,-2,-2,0
14:09:29:816301,-3,-3,-2,-1,-1,0,-1,-1
14:09:29:817168,0,1,-2,-1,0,0,-1,0
14:09:29:817936,0,1,-2,-1,0,0,-1,0
14:09:29:818753,-2,0,0,-1,-1,-1,1,-1
14:09:29:830685,-1,-5,-3,-1,-1,-1,1,1
14:09:29:831526,-1,-5,-3,-1,-1,-1,1,1
14:09:29:832305,0,-3,0,-2,0,-1,-3,0
14:09:29:844266,1,-1,0,1,2,0,-2,1
14:09:29:860654,1,-1,0,1,2,0,-2,1
14:09:29:861499,-1,3,-2,-1,-2,-1,-2,-1
14:09:29:862238,0,1,0,-2,0,-1,0,0
14:09:29:875010,0,1,0,-2,0,-1,0,0
14:09:29:875766,1,-1,-1,-1,-1,0,1,1
14:09:29:881783,-1,-2,-2,1,-1,0,-1,-1
14:09:29:890066,-1,-2,-2,1,-1,0,-1,-1
14:09:29:890941,0,-1,-1,2,1,-3,-2,-2
14:09:29:904330,-2,-1,2,-1,-3,-1,0,-3
14:09:29:912518,-2,-1,2,-1,-3,-1,0,-3
14:09:29:913288,-1,0,-1,-2,-1,-1,-1,0
14:09:29:926767,-2,-3,0,0,0,-1,-2,0
14:09:29:935027,-2,-3,0,0,0,-1,-2,0
14:09:29:935792,-1,-3,0,0,-2,-1,1,-2
14:09:29:950788,1,-1,-4,-1,-1,0,-2,-1
14:09:29:951541,1,-1,-4,-1,-1,0,-2,-1
14:09:29:952262,-2,-1,0,-1,1,0,-1,-2
14:09:29:973144,-1,0,-3,-2,-2,-3,-1,-1
14:09:29:974015,-1,0,-3,-2,-2,-3,-1,-1
14:09:29:974770,0,-2,0,-2,0,0,-2,-1
14:09:29:979297,-3,-1,-2,-2,-1,0,0,-2
14:09:29:995524,-3,-1,-2,-2,-1,0,0,-2
14:09:29:996266,-1,0,-1,-1,0,-1,0,0
14:09:30:1781,-1,1,-1,-2,0,-1,-1,0
14:09:30:10012,-1,1,-1,-2,0,-1,-1,0
14:09:30:10890,0,-1,-1,-1,-2,-2,0,0
14:09:30:24281,-2,-2,-1,0,0,-1,-1,-2
14:09:30:41284,-2,-2,-1,0,0,-1,-1,-2
14:09:30:42129,0,-1,-2,-1,-2,-1,-1,-2
14:09:30:42919,-1,1,-1,0,-1,-1,-3,-1
14:09:30:46889,-1,1,-1,0,-1,-1,-3,-1
14:09:30:62952,-1,-1,0,-1,1,-1,0,0
14:09:30:70654,0,0,-1,0,-2,-2,0,-1
14:09:30:71552,0,0,-1,0,-2,-2,0,-1
14:09:30:72281,-1,-2,-2,-2,-1,-4,-3,-3
14:09:30:84780,0,0,2,-2,-2,-2,0,0
14:09:30:92524,0,0,2,-2,-2,-2,0,0
14:09:30:93263,-1,-3,-1,0,1,-1,-2,-3
14:09:30:99331,-2,-2,-2,-1,1,-1,-1,-1
14:09:30:115027,-2,-2,-2,-1,1,-1,-1,-1
14:09:30:115772,-1,-2,-2,-2,-2,-2,-2,-1
14:09:30:121775,-3,-3,0,-2,-1,-1,-3,-4
14:09:30:130040,-3,-3,0,-2,-1,-1,-3,-4
14:09:30:130812,-1,-1,-3,-2,-1,-1,-1,-1
14:09:30:144312,1,2,0,0,-1,-1,2,1
14:09:30:152531,1,2,0,0,-1,-1,2,1
14:09:30:153283,-1,-2,-2,-3,-3,-2,-2,-1
14:09:30:159291,0,0,-1,-5,-2,-2,-2,-2
14:09:30:166784,0,0,-1,-5,-2,-2,-2,-2
14:09:30:174315,-2,-2,0,1,-2,-3,-2,-3
14:09:30:181781,-3,-3,-2,1,-1,-2,0,-2
14:09:30:198154,-3,-3,-2,1,-1,-2,0,-2
14:09:30:199064,2,1,0,-1,-1,-2,-1,0
14:09:30:204288,-1,-2,-1,-3,0,0,-2,-1
14:09:30:220062,-1,-2,-1,-3,0,0,-2,-1
14:09:30:220797,-1,0,0,1,2,2,0,-1
14:09:30:227543,0,0,-2,-2,-4,1,-2,1
14:09:30:228288,0,0,-2,-2,-4,1,-2,1
14:09:30:234288,-1,1,0,2,2,0,0,-1
14:09:30:241794,0,-2,1,1,-2,1,1,0
14:09:30:249409,0,-2,1,1,-2,1,1,0
14:09:30:256770,-1,-4,-4,-4,-5,-2,-1,-1
14:09:30:273148,-1,-3,-2,0,1,-1,0,-1
14:09:30:274027,-1,-3,-2,0,1,-1,0,-1
14:09:30:274777,1,1,-1,3,0,0,1,1
14:09:30:295675,3,4,-2,-4,-5,-2,-2,-2
14:09:30:296507,3,4,-2,-4,-5,-2,-2,-2
14:09:30:297249,-2,-2,-3,-5,1,1,-4,-1
14:09:30:301766,-3,-4,-5,-3,0,-3,-3,-2
14:09:30:309282,-3,-4,-5,-3,0,-3,-3,-2
14:09:30:316817,0,-1,-1,-3,-5,-4,0,0
14:09:30:324284,-2,-1,1,0,0,-3,0,-1
14:09:30:332537,-2,-1,1,0,0,-3,0,-1
14:09:30:333285,-2,-3,-2,1,1,0,0,-1
14:09:30:347537,-2,-4,-1,2,1,0,-2,-1
14:09:30:348275,-2,-4,-1,2,1,0,-2,-1
14:09:30:354270,-2,-1,0,2,5,1,-1,0
14:09:30:361780,-1,-2,-2,3,3,1,1,-1
14:09:30:369294,-1,-2,-2,3,3,1,1,-1
14:09:30:376780,-1,0,-3,0,-1,-2,0,-2
14:09:30:384274,-1,-3,-2,-2,2,-2,-4,-2
14:09:30:392515,-1,-3,-2,-2,2,-2,-4,-2
14:09:30:393272,-2,-1,1,-3,-3,-1,-1,-1
14:09:30:407519,-2,-1,0,-1,-1,-2,0,-1
14:09:30:408259,-2,-1,0,-1,-1,-2,0,-1
14:09:30:414276,-3,-2,0,-3,-1,-1,1,-1
14:09:30:429882,-3,-3,-4,7,9,2,-1,-1
14:09:30:430775,-3,-3,-4,7,9,2,-1,-1
14:09:30:436809,1,-2,0,-4,5,3,-2,-1
14:09:30:453530,-4,-3,-20,-17,-10,-4,-3,-4
14:09:30:454424,-4,-3,-20,-17,-10,-4,-3,-4
14:09:30:459283,-3,-2,-5,-1,-6,-3,-2,-2
14:09:30:467560,6,8,12,11,1,0,1,3
14:09:30:468284,6,8,12,11,1,0,1,3
14:09:30:474306,2,2,0,-6,-6,-2,0,2
14:09:30:481795,-1,0,-2,-6,-6,-2,0,-2
14:09:30:497556,-1,0,-2,-6,-6,-2,0,-2
14:09:30:498299,-4,-6,-4,-5,4,0,-4,-4
14:09:30:504268,0,3,8,0,0,1,1,-1
14:09:30:512549,0,3,8,0,0,1,1,-1
14:09:30:513290,-3,-6,-3,1,-5,-2,-4,-3
14:09:30:527521,0,-2,-10,-5,-2,1,0,1
14:09:30:528389,0,-2,-10,-5,-2,1,0,1
14:09:30:534321,1,4,6,0,0,-1,-1,-2
14:09:30:541799,2,2,7,1,-3,-1,1,3
14:09:30:549320,2,2,7,1,-3,-1,1,3
14:09:30:556787,1,1,1,11,5,1,6,1
14:09:30:564301,-3,-4,2,1,-2,1,-1,0
14:09:30:572534,-3,-4,2,1,-2,1,-1,0
14:09:30:573295,-1,-1,1,2,1,1,0,0
14:09:30:587529,-4,-3,0,-5,-3,-4,-1,0
14:09:30:588272,-4,-3,0,-5,-3,-4,-1,0
14:09:30:602581,-4,-5,-7,2,-3,-4,-5,-4
14:09:30:603268,-3,-2,-2,4,-3,0,-1,-3
14:09:30:617566,-3,-2,-2,4,-3,0,-1,-3
14:09:30:618257,-1,-1,6,5,0,-5,-2,-3
14:09:30:624272,-1,-3,-4,-5,-4,-2,0,-2
14:09:30:640043,-1,-3,-4,-5,-4,-2,0,-2
14:09:30:640820,3,2,-1,-2,-2,1,-2,-6
14:09:30:647533,0,1,-2,-2,2,-2,-1,0
14:09:30:648269,0,1,-2,-2,2,-2,-1,0
14:09:30:662552,-1,0,1,-3,-4,2,1,2
14:09:30:663156,0,3,2,0,0,0,-2,-2
14:09:30:669266,0,3,2,0,0,0,-2,-2
14:09:30:685040,-2,-2,-6,-1,0,-1,-1,-1
14:09:30:685810,-2,-5,2,-1,1,1,0,6
14:09:30:692542,-2,-5,2,-1,1,1,0,6
14:09:30:693282,-1,0,3,0,-2,-2,-1,0
14:09:30:707566,-2,-2,6,5,5,0,-2,-4
14:09:30:708314,-2,-2,6,5,5,0,-2,-4
14:09:30:714292,-2,-2,1,2,13,6,3,3
14:09:30:730041,1,-4,-8,2,-1,-1,0,-3
14:09:30:730793,1,-4,-8,2,-1,-1,0,-3
14:09:30:736846,-2,-1,2,-8,-6,-2,-1,0
14:09:30:744266,-1,1,-2,-5,0,0,-1,0
14:09:30:760018,-1,1,-2,-5,0,0,-1,0
14:09:30:760759,-2,0,-2,-10,-2,-2,-2,-3
14:09:30:767972,-2,-7,-4,5,-1,-1,0,-3
14:09:30:783188,-2,-7,-4,5,-1,-1,0,-3
14:09:30:784040,0,-3,-2,-3,0,1,1,2
14:09:30:784768,-2,-4,-7,-5,-8,-6,-5,-4
14:09:30:789394,-2,-4,-7,-5,-8,-6,-5,-4
14:09:30:796816,2,-2,-6,-1,-7,-2,3,2
14:09:30:804284,-2,0,-5,-3,-3,-4,1,-1
14:09:30:812562,-2,0,-5,-3,-3,-4,1,-1
14:09:30:813427,0,1,8,0,3,2,0,1
14:09:30:827309,0,1,-7,-8,-1,-3,-4,-2
14:09:30:835068,0,1,-7,-8,-1,-3,-4,-2
14:09:30:835782,-2,-1,-4,1,-3,-3,-2,-1
14:09:30:850027,0,0,1,-15,-2,1,-1,0
14:09:30:850796,0,0,1,-15,-2,1,-1,0
14:09:30:856804,-2,-3,-3,0,3,2,1,-3
14:09:30:873231,-2,-2,-6,-4,-3,-2,0,-2
14:09:30:873895,-2,-2,-6,-4,-3,-2,0,-2
14:09:30:874771,-3,-1,-2,-9,-4,-3,-3,-2
14:09:30:895666,-2,0,3,0,-1,-6,-12,-3
14:09:30:896538,-2,0,3,0,-1,-6,-12,-3
14:09:30:897276,-3,-3,-4,4,0,0,-6,-4
14:09:30:901798,-4,0,4,2,-3,-1,12,1
14:09:30:909415,-4,0,4,2,-3,-1,12,1
14:09:30:916787,2,1,-3,-5,-4,-5,-3,3
14:09:30:924279,2,-2,1,6,1,1,-6,-3
14:09:30:940043,2,-2,1,6,1,1,-6,-3
14:09:30:940772,-2,-1,-3,-3,-3,-2,1,0
14:09:30:946787,0,3,7,10,4,5,6,1
14:09:30:955031,0,3,7,10,4,5,6,1
14:09:30:955770,0,0,-10,-1,1,2,-23,-3
14:09:30:961765,0,2,-1,-3,-2,-1,22,0
14:09:30:969273,0,2,-1,-3,-2,-1,22,0
14:09:30:976795,1,-2,3,2,-5,0,-1,1
14:09:30:984305,-2,-4,-8,2,4,8,3,4
14:09:30:992563,-2,-4,-8,2,4,8,3,4
14:09:30:993271,0,1,-1,-3,7,3,1,1
14:09:31:15697,1,-2,-4,-3,-2,0,-2,0
14:09:31:16549,1,-2,-4,-3,-2,0,-2,0
14:09:31:17302,-3,-2,2,-1,11,1,-6,-3
14:09:31:30076,-4,-3,-3,-8,-20,-26,-21,-7
14:09:31:30787,-4,-3,-3,-8,-20,-26,-21,-7
14:09:31:36794,2,2,6,4,-2,3,15,0
14:09:31:44297,3,3,9,7,24,26,3,3
14:09:31:60028,3,3,9,7,24,26,3,3
14:09:31:60805,-3,-4,-4,-4,-12,-9,3,1
14:09:31:66801,-4,-5,1,-7,-13,-19,-19,-9
14:09:31:75077,-4,-5,1,-7,-13,-19,-19,-9
14:09:31:75805,1,-3,-1,-5,-5,-5,11,0
14:09:31:90066,1,-2,-3,0,5,4,1,1
14:09:31:90776,1,-2,-3,0,5,4,1,1
14:09:31:96776,-4,0,0,1,3,-2,-11,-4
14:09:31:104284,1,1,1,1,0,2,2,2
14:09:31:111895,1,1,1,1,0,2,2,2
14:09:31:127281,0,2,-1,2,-3,-3,-8,-1
14:09:31:135714,-1,2,-1,0,-2,-1,6,-7
14:09:31:136556,-1,2,-1,0,-2,-1,6,-7
14:09:31:137272,-1,0,-2,-2,0,-1,4,-4
14:09:31:150065,-1,1,-1,0,2,1,3,3
14:09:31:150792,-1,1,-1,0,2,1,3,3
14:09:31:156821,-1,0,0,0,-2,-1,6,-3
14:09:31:164289,-1,-4,-1,-2,-2,-6,-20,2
14:09:31:180051,-1,-4,-1,-2,-2,-6,-20,2
14:09:31:180779,-2,-2,-2,-6,-5,-3,-1,-1
14:09:31:186767,-4,0,2,6,6,11,11,4
14:09:31:195039,-4,0,2,6,6,11,11,4
14:09:31:195784,-1,-1,-1,2,-3,-8,17,-1
14:09:31:210005,2,-3,-5,-8,-2,-9,-23,1
14:09:31:210770,2,-3,-5,-8,-2,-9,-23,1
14:09:31:216766,-1,-2,0,1,-1,7,5,0
14:09:31:224268,1,1,2,5,10,8,13,0
14:09:31:231772,1,1,2,5,10,8,13,0
14:09:31:239279,0,2,1,2,3,3,-15,-2
14:09:31:246773,-4,-2,-4,-5,-8,-7,2,-1
14:09:31:255415,-4,-2,-4,-5,-8,-7,2,-1
14:09:31:261784,-2,-3,0,-5,-7,-4,16,-2
14:09:31:270039,1,0,0,2,9,16,-10,0
14:09:31:270778,1,0,0,2,9,16,-10,0
14:09:31:276785,-1,-3,-3,0,7,6,-8,0
14:09:31:284279,0,0,-2,-6,-11,-15,6,-4
14:09:31:291910,0,0,-2,-6,-11,-15,6,-4
14:09:31:299289,0,0,-2,-2,6,-1,-11,1
14:09:31:306769,-2,-2,-1,-4,-1,-2,0,-1
14:09:31:315060,-2,-2,-1,-4,-1,-2,0,-1
14:09:31:315794,0,1,-2,1,-3,-3,-4,0
14:09:31:329942,-2,-1,-3,-3,-3,-4,-1,-2
14:09:31:330769,-2,-1,-3,-3,-3,-4,-1,-2
14:09:31:336778,-2,3,0,-3,0,-3,1,-1
14:09:31:344349,-2,5,2,3,-3,-3,-1,-1
14:09:31:351780,-2,5,2,3,-3,-3,-1,-1
14:09:31:359296,-3,1,-1,-1,-6,-1,-5,-2
14:09:31:366796,-3,-3,0,1,2,0,-1,0
14:09:31:375040,-3,-3,0,1,2,0,-1,0
14:09:31:375797,-1,-5,-3,-4,-6,-3,-4,-3
14:09:31:398191,1,-6,-1,1,-1,3,2,-1
14:09:31:399036,1,-6,-1,1,-1,3,2,-1
14:09:31:399789,1,-7,-1,-3,-1,-4,-5,0
14:09:31:404308,-1,-4,1,1,-6,0,2,-1
14:09:31:411773,-1,-4,1,1,-6,0,2,-1
14:09:31:419320,-1,-6,-3,-2,0,0,-2,-1
14:09:31:426813,-1,-4,-3,-3,1,-5,0,-2
14:09:31:435026,-1,-4,-3,-3,1,-5,0,-2
14:09:31:435800,-2,0,-1,-3,-3,0,0,-1
14:09:31:449901,0,4,-4,-1,-8,-6,-5,-3
14:09:31:450788,0,4,-4,-1,-8,-6,-5,-3
14:09:31:456832,-1,-4,0,6,7,13,1,-1
14:09:31:464313,0,2,3,1,3,-2,-2,-4
14:09:31:471805,0,2,3,1,3,-2,-2,-4
14:09:31:479303,-1,7,-2,-6,-3,-6,-3,-2
14:09:31:495681,-5,-5,-5,-5,1,1,-1,0
14:09:31:496554,-5,-5,-5,-5,1,1,-1,0
14:09:31:497300,-4,-2,-1,0,3,1,1,-1
14:09:31:510046,0,8,-2,-1,1,2,-3,-2
14:09:31:510764,0,8,-2,-1,1,2,-3,-2
14:09:31:516799,2,12,0,5,1,0,-1,1
14:09:31:524298,-1,8,1,2,-8,-8,-2,2
14:09:31:531779,-1,8,1,2,-8,-8,-2,2
14:09:31:539279,0,68,2,3,-9,-5,-4,2
14:09:31:556306,1,-5,4,3,-2,5,-1,3
14:09:31:557155,1,-5,4,3,-2,5,-1,3
14:09:31:557895,3,-45,2,6,-10,0,0,4
14:09:31:570024,4,-14,12,21,-8,-3,-4,2
14:09:31:570766,4,-14,12,21,-8,-3,-4,2
14:09:31:576778,-2,-25,-6,-26,14,2,-2,6
14:09:31:584325,-12,-21,-23,-59,21,-3,9,2
14:09:31:591801,-12,-21,-23,-59,21,-3,9,2
14:09:31:599324,-13,-24,-31,-36,14,-1,5,-10
14:09:31:606772,-9,-9,-12,4,-2,-3,-4,-11
14:09:31:615044,-9,-9,-12,4,-2,-3,-4,-11
14:09:31:615775,-1,-2,1,22,-3,0,1,-7
14:09:31:629909,5,14,2,14,-9,-4,-1,-1
14:09:31:630795,5,14,2,14,-9,-4,-1,-1
14:09:31:636806,2,6,6,13,-8,-7,-7,0
14:09:31:644294,3,8,-3,3,-2,6,7,-2
14:09:31:651810,3,8,-3,3,-2,6,7,-2
14:09:31:659268,0,3,-3,-2,-8,-4,-5,-2
14:09:31:691899,2,6,8,4,-4,1,-2,-1
14:09:31:692768,2,6,8,4,-4,1,-2,-1
14:09:31:693531,2,1,-1,11,6,1,2,0
14:09:31:694416,-7,-31,-57,-10,-2,0,-4,-2
14:09:31:697530,-7,-31,-57,-10,-2,0,-4,-2
14:09:31:698286,-4,-9,-1,2,-3,-3,-1,-2
14:09:31:704282,2,11,24,0,-1,0,-1,1
14:09:31:720075,2,11,24,0,-1,0,-1,1
14:09:31:720820,-3,-9,-14,-4,-5,-6,-3,-2
14:09:31:726801,0,1,11,-3,-1,0,-6,0
14:09:31:735053,0,1,11,-3,-1,0,-6,0
14:09:31:735794,2,3,15,-4,-1,0,2,-2
14:09:31:750064,0,-3,-25,-1,2,1,10,-1
14:09:31:750817,0,-3,-25,-1,2,1,10,-1
14:09:31:764929,-2,5,24,-1,-5,-8,-5,-5
14:09:31:765801,-1,6,32,16,7,3,-3,1
14:09:31:771778,-1,6,32,16,7,3,-3,1
14:09:31:779296,-1,-1,5,0,-5,-3,1,-2
14:09:31:786800,2,1,17,5,-2,-5,-6,-3
14:09:31:795039,2,1,17,5,-2,-5,-6,-3
14:09:31:795810,-1,-6,-40,-9,0,4,-1,2
14:09:31:810039,6,10,23,7,-2,-2,-1,7
14:09:31:810782,6,10,23,7,-2,-2,-1,7
14:09:31:816782,1,6,8,3,1,-5,-3,-2
14:09:31:824294,-2,2,-28,-22,1,2,0,3
14:09:31:831908,-2,2,-28,-22,1,2,0,3
14:09:31:839324,-2,-9,-27,-3,0,-1,-2,0
14:09:31:846785,-5,-11,5,2,-1,-1,0,-6
14:09:31:855041,-5,-11,5,2,-1,-1,0,-6
14:09:31:855784,2,-2,14,0,-3,-2,1,1
14:09:31:870025,2,5,-12,-11,-6,-6,-2,3
14:09:31:870777,2,5,-12,-11,-6,-6,-2,3
14:09:31:876781,0,-2,5,7,3,10,4,3
14:09:31:884295,-6,-3,18,-2,-9,-10,-5,-8
14:09:31:891935,-6,-3,18,-2,-9,-10,-5,-8
14:09:31:899300,-2,-12,27,7,-2,-4,-4,0
14:09:31:915683,-5,-4,-13,-4,3,1,-2,0
14:09:31:916561,-5,-4,-13,-4,3,1,-2,0
14:09:31:917284,3,6,-1,-1,0,-1,0,-2
14:09:31:930061,1,9,14,13,2,1,1,-5
14:09:31:930799,1,9,14,13,2,1,1,-5
14:09:31:936778,-1,9,-11,-10,1,1,-2,-1
14:09:31:952543,4,3,10,-1,0,1,-1,4
14:09:31:953282,4,3,10,-1,0,1,-1,4
14:09:31:959294,1,-2,1,-2,0,-1,-1,-7
14:09:31:966797,-1,0,-10,-7,1,4,2,0
14:09:31:975052,-1,0,-10,-7,1,4,2,0
14:09:31:975792,-5,-5,7,9,-2,-4,-1,-3
14:09:31:989934,-6,0,-14,-8,-4,-2,-4,-7
14:09:31:990817,-6,0,-14,-8,-4,-2,-4,-7
14:09:32:4916,-4,-5,-20,-6,-2,-1,-1,-3
14:09:32:5783,0,-8,-20,4,2,0,1,5
14:09:32:11791,0,-8,-20,4,2,0,1,5
14:09:32:19303,1,13,-7,-1,0,-1,-1,-1
14:09:32:26814,0,0,18,-4,1,0,1,-1
14:09:32:35047,0,0,18,-4,1,0,1,-1
14:09:32:35790,-1,-3,5,3,-1,0,-3,-7
14:09:32:49924,-4,9,4,-1,-2,-1,-3,-12
14:09:32:50794,-4,9,4,-1,-2,-1,-3,-12
14:09:32:56798,-3,-12,4,-7,-1,-3,-2,1
14:09:32:72599,9,-5,-2,0,-2,0,-4,-13
14:09:32:73338,9,-5,-2,0,-2,0,-4,-13
14:09:32:79338,-2,14,14,19,4,2,3,8
14:09:32:86793,-1,-7,1,2,-1,-2,-1,1
14:09:32:94291,-1,-7,1,2,-1,-2,-1,1
14:09:32:101794,3,6,-7,-12,0,2,-1,2
14:09:32:110044,-2,8,-19,-10,-2,-1,1,1
14:09:32:110787,-2,8,-19,-10,-2,-1,1,1
14:09:32:116830,-7,-4,-16,-20,-7,-3,0,-2
14:09:32:132587,2,-6,-1,-5,-3,-4,-3,11
14:09:32:133327,2,-6,-1,-5,-3,-4,-3,11
14:09:32:139320,1,-5,0,-2,5,6,2,0
14:09:32:146825,-1,-5,-2,5,2,1,0,0
14:09:32:154296,-1,-5,-2,5,2,1,0,0
14:09:32:161797,-1,-1,-11,-4,-2,-4,-3,1
14:09:32:170055,-5,-6,-39,-20,-5,-2,-4,-15
14:09:32:170806,-5,-6,-39,-20,-5,-2,-4,-15
14:09:32:176785,4,-8,-21,-16,-1,-4,-1,3
14:09:32:192565,0,-3,6,7,3,1,1,9
14:09:32:193304,0,-3,6,7,3,1,1,9
14:09:32:199289,-2,3,13,4,-1,1,0,-5
14:09:32:206814,-6,-15,-7,3,-1,-2,-2,0
14:09:32:214296,-6,-15,-7,3,-1,-2,-2,0
14:09:32:230683,6,7,29,17,-1,-2,-3,-10
14:09:32:231543,-2,-10,1,-10,1,0,1,0
14:09:32:232298,-2,-10,1,-10,1,0,1,0
14:09:32:244300,0,0,3,1,-1,1,-1,1
14:09:32:252563,-1,1,10,0,-4,-1,-1,-3
14:09:32:253303,-1,1,10,0,-4,-1,-1,-3
14:09:32:259323,-1,-1,-5,3,1,0,-1,-1
14:09:32:266792,-2,5,15,2,5,1,0,2
14:09:32:274341,-2,5,15,2,5,1,0,2
14:09:32:281796,4,-3,2,4,1,2,0,6
14:09:32:290056,-1,-7,-20,-2,0,1,-1,2
14:09:32:290825,-1,-7,-20,-2,0,1,-1,2
14:09:32:296825,9,4,-1,3,-1,-5,-2,-2
14:09:32:312583,1,9,15,3,0,0,-1,1
14:09:32:313322,1,9,15,3,0,0,-1,1
14:09:32:319308,-8,-5,-16,-3,-6,-2,-1,3
14:09:32:326777,0,1,10,1,-2,-2,-1,6
14:09:32:334312,0,1,10,1,-2,-2,-1,6
14:09:32:341778,-16,-54,-78,-15,-6,-8,-8,-4
14:09:32:350013,-9,-5,-7,2,-4,-4,-3,-12
14:09:32:350754,-9,-5,-7,2,-4,-4,-3,-12
14:09:32:356806,2,21,26,2,-1,-1,1,11
14:09:32:372557,-7,-11,-14,-4,-5,-5,-6,-1
14:09:32:373303,-7,-11,-14,-4,-5,-5,-6,-1
14:09:32:379275,0,9,11,-4,1,2,2,-3
14:09:32:386791,2,14,24,-3,1,1,1,0
14:09:32:394449,2,14,24,-3,1,1,1,0
14:09:32:401787,0,1,-5,-5,0,-3,-2,-7
14:09:32:409920,1,-1,3,0,-2,1,3,2
14:09:32:410780,1,-1,3,0,-2,1,3,2
14:09:32:416814,-5,4,21,-8,-7,-3,-3,-2
14:09:32:432575,0,-10,-19,-1,2,-4,-2,-4
14:09:32:433327,0,-10,-19,-1,2,-4,-2,-4
14:09:32:439294,-4,-1,5,-18,-2,2,0,-2
14:09:32:446800,-5,-13,-59,-10,-6,-3,-3,-5
14:09:32:454307,-5,-13,-59,-10,-6,-3,-3,-5
14:09:32:461819,2,4,31,27,-1,1,0,2
14:09:32:470050,2,4,31,27,-1,1,0,2
14:09:32:470774,-3,3,22,9,2,0,0,0
14:09:32:476816,2,1,-10,0,2,0,0,-2
14:09:32:492563,2,1,-10,0,2,0,0,-2
14:09:32:493290,1,6,8,1,-2,0,0,1
14:09:32:499325,-2,0,9,5,1,-1,-1,-1
14:09:32:514938,-2,0,9,5,1,-1,-1,-1
14:09:32:515802,2,6,7,2,2,-1,-1,0
14:09:32:521797,-2,-11,-14,0,2,1,1,1
14:09:32:530088,-2,-11,-14,0,2,1,1,1
14:09:32:530806,-4,-17,17,1,-1,-3,-1,-2
14:09:32:536848,-1,-10,1,-1,3,2,-1,-1
14:09:32:552553,-1,-10,1,-1,3,2,-1,-1
14:09:32:553291,7,17,8,4,0,3,-1,4
14:09:32:559302,-2,5,-18,-1,-1,-1,0,-6
14:09:32:575080,-2,5,-18,-1,-1,-1,0,-6
14:09:32:575787,-9,-16,-29,-12,-4,1,-3,-10
14:09:32:581818,-1,7,3,-6,-1,-1,-1,0
14:09:32:589946,-1,7,3,-6,-1,-1,-1,0
14:09:32:590790,1,6,21,10,3,0,1,2
14:09:32:596832,-3,-7,-5,-4,-1,-2,-8,-7
14:09:32:612669,-3,-7,-5,-4,-1,-2,-8,-7
14:09:32:613310,4,8,17,6,1,-1,0,1
14:09:32:619317,1,1,19,3,-2,0,0,-1
14:09:32:635095,1,1,19,3,-2,0,0,-1
14:09:32:635816,-7,-51,-54,-11,-1,-4,-2,-5
14:09:32:641834,1,0,-12,-4,-1,1,1,1
14:09:32:650047,1,0,-12,-4,-1,1,1,1
14:09:32:650808,3,20,19,-1,0,-1,1,-1
14:09:32:656805,0,-1,1,1,-5,-2,-1,3
14:09:32:672565,0,-1,1,1,-5,-2,-1,3
14:09:32:673273,1,9,2,2,-3,-2,-2,-3
14:09:32:679329,1,6,6,-4,2,-1,-1,-3
14:09:32:695087,1,6,6,-4,2,-1,-1,-3
14:09:32:695807,0,2,1,3,0,0,-2,0
14:09:32:701791,-2,0,-7,-1,-2,-1,1,-5
14:09:32:710064,-2,0,-7,-1,-2,-1,1,-5
14:09:32:710804,4,2,8,-2,-2,1,3,12
14:09:32:716852,2,4,11,4,0,0,0,3
14:09:32:732562,2,4,11,4,0,0,0,3
14:09:32:733289,-1,7,10,5,1,-2,-1,-2
14:09:32:739295,1,-5,-8,4,1,-2,0,-3
14:09:32:755044,1,-5,-8,4,1,-2,0,-3
14:09:32:755789,-2,6,6,-1,-1,-2,-7,-4
14:09:32:761790,-4,-4,-4,-7,-2,-3,-2,-2
14:09:32:770073,-4,-4,-4,-7,-2,-3,-2,-2
14:09:32:770777,1,1,-7,-3,7,4,1,0
14:09:32:776803,-4,-5,4,1,-2,-2,0,-1
14:09:32:792541,-4,-5,4,1,-2,-2,0,-1
14:09:32:793276,-4,-4,1,-4,0,0,-1,-6
14:09:32:799336,3,6,0,-10,4,1,1,2
14:09:32:814792,3,6,0,-10,4,1,1,2
14:09:32:822443,0,1,0,2,-2,0,2,1
14:09:32:823298,-3,-15,-54,-7,-2,-1,-3,-3
14:09:32:830064,-3,-15,-54,-7,-2,-1,-3,-3
14:09:32:830833,0,3,0,-3,-2,-1,-1,0
14:09:32:836796,3,4,9,12,4,4,1,0
14:09:32:852583,3,4,9,12,4,4,1,0
14:09:32:853304,-2,-5,-6,0,-5,-3,-2,-2
14:09:32:859304,0,4,5,-2,-3,-2,0,1
14:09:32:875057,0,4,5,-2,-3,-2,0,1
14:09:32:875810,1,4,13,2,-2,-2,0,1
14:09:32:881817,-1,3,6,0,-2,-3,-3,-4
14:09:32:890048,-1,3,6,0,-2,-3,-3,-4
14:09:32:890797,-1,0,-8,-2,-2,0,-3,2
14:09:32:896805,2,10,21,6,-1,0,2,2
14:09:32:912569,2,10,21,6,-1,0,2,2
14:09:32:913309,-2,1,-5,-1,-2,-2,-3,-3
14:09:32:919306,-3,4,11,0,-2,-6,-11,0
14:09:32:935085,-3,4,11,0,-2,-6,-11,0
14:09:32:935808,-1,-2,-6,-4,0,3,5,-2
14:09:32:941806,-1,-7,-9,-3,-2,-1,1,-1
14:09:32:950072,-1,-7,-9,-3,-2,-1,1,-1
14:09:32:950788,-1,-3,-3,1,0,-4,-3,-4
14:09:32:956785,-2,1,-4,-1,-2,-2,-7,11
14:09:32:980672,-2,1,-4,-1,-2,-2,-7,11
14:09:32:981575,1,5,1,1,-2,-1,2,10
14:09:32:982299,-2,-7,3,-2,-1,-2,-1,-4
14:09:32:995051,-2,-7,3,-2,-1,-2,-1,-4
14:09:32:995817,0,3,3,1,0,2,1,-2
14:09:33:1797,-1,-1,5,-3,-4,-3,-1,-5
14:09:33:10047,-1,-1,5,-3,-4,-3,-1,-5
14:09:33:10792,0,10,-16,-1,3,0,-1,-5
14:09:33:24827,0,1,2,7,2,0,1,-3
14:09:33:32553,0,1,2,7,2,0,1,-3
14:09:33:33312,0,0,10,3,-2,0,-1,0
14:09:33:39305,-3,1,-17,-5,-3,-2,-1,-3
14:09:33:55042,-3,1,-17,-5,-3,-2,-1,-3
14:09:33:55816,-2,-9,1,-6,-2,-1,0,-1
14:09:33:70676,2,1,7,0,1,0,-1,0
14:09:33:71575,2,1,7,0,1,0,-1,0
14:09:33:72310,0,-3,4,1,-1,-3,-1,5
14:09:33:84333,5,16,-8,2,0,2,3,13
14:09:33:92555,5,16,-8,2,0,2,3,13
14:09:33:93287,-2,-2,-1,-4,0,-2,-5,-7
14:09:33:99306,-1,0,-1,2,2,0,0,-8
14:09:33:114933,-1,0,-1,2,2,0,0,-8
14:09:33:115783,-2,-2,-2,1,0,-1,-1,-2
14:09:33:121837,0,-3,0,1,1,1,2,-5
14:09:33:130082,0,-3,0,1,1,1,2,-5
14:09:33:130804,-6,-25,-4,-5,-2,-3,-2,-2
14:09:33:144296,-4,-23,-14,-5,1,1,1,1
14:09:33:152562,-4,-23,-14,-5,1,1,1,1
14:09:33:153302,1,-4,-1,-1,0,1,-2,-1
14:09:33:159300,-2,1,-5,-7,-3,-3,1,-4
14:09:33:166806,-2,1,-5,-7,-3,-3,1,-4
14:09:33:174297,-2,4,-6,0,-3,-3,-3,-2
14:09:33:181808,-1,-2,6,4,1,-3,-4,-2
14:09:33:190081,-1,-2,6,4,1,-3,-4,-2
14:09:33:190806,-2,-1,5,-2,-1,0,0,-1
14:09:33:204292,-3,1,4,-6,-7,-2,-4,-4
14:09:33:212539,-3,1,4,-6,-7,-2,-4,-4
14:09:33:213286,4,12,-5,0,-4,-4,0,-1
14:09:33:219307,-4,-13,-11,-4,3,1,-4,-7
14:09:33:226817,-4,-13,-11,-4,3,1,-4,-7
14:09:33:234314,-4,-16,-13,-5,-1,0,1,-5
14:09:33:250688,0,0,-3,-2,-3,-2,-2,-3
14:09:33:251540,0,0,-3,-2,-3,-2,-2,-3
14:09:33:252287,5,14,1,-3,-4,-1,1,4
14:09:33:264312,-3,-6,-5,-3,-1,0,-1,0
14:09:33:272575,-3,-6,-5,-3,-1,0,-1,0
14:09:33:273284,-4,-6,-10,0,-1,-2,-2,-2
14:09:33:279305,2,11,1,-3,-1,-2,1,2
14:09:33:286781,2,11,1,-3,-1,-2,1,2
14:09:33:294330,-1,-2,6,3,4,0,-3,-3
14:09:33:301824,0,-5,-8,5,0,1,-1,4
14:09:33:310072,0,-5,-8,5,0,1,-1,4
14:09:33:310818,-4,-4,4,1,-1,-2,1,-12
14:09:33:324303,-5,-6,-14,-4,-6,-4,-1,-8
14:09:33:332618,-5,-6,-14,-4,-6,-4,-1,-8
14:09:33:333311,1,-12,6,10,-3,1,-1,-4
14:09:33:347557,3,-1,9,-7,5,-1,-2,-5
14:09:33:348294,3,-1,9,-7,5,-1,-2,-5
14:09:33:354277,-4,1,-15,-10,0,-4,0,3
14:09:33:361819,0,-3,16,-4,-5,-1,-2,2
14:09:33:370067,0,-3,16,-4,-5,-1,-2,2
14:09:33:370812,1,1,5,-2,-1,1,0,20
14:09:33:393205,-1,8,-5,0,-2,-2,-2,-15
14:09:33:394076,-1,8,-5,0,-2,-2,-2,-15
14:09:33:394791,4,11,0,-4,3,-1,-2,-1
14:09:33:407564,-1,-2,-15,5,1,1,4,6
14:09:33:408313,-1,-2,-15,5,1,1,4,6
14:09:33:414303,1,3,2,-1,1,1,2,17
14:09:33:421810,0,9,6,-2,-1,-1,-2,-7
14:09:33:430071,0,9,6,-2,-1,-1,-2,-7
14:09:33:430822,-4,-2,8,-2,-5,-2,-2,-23
14:09:33:444301,-4,-14,7,-2,-1,-2,0,1
14:09:33:452566,-4,-14,7,-2,-1,-2,0,1
14:09:33:453291,-1,7,4,-4,0,1,0,9
14:09:33:459283,3,7,-1,0,-6,-3,2,1
14:09:33:466946,3,7,-1,0,-6,-3,2,1
14:09:33:474345,0,-5,-2,2,-1,-4,-3,-8
14:09:33:481829,-1,1,2,3,3,1,-2,2
14:09:33:489944,-1,1,2,3,3,1,-2,2
14:09:33:490807,-4,-1,2,-6,-2,0,-3,-10
14:09:33:504319,-8,-21,-17,-5,-1,-1,-1,0
14:09:33:512560,-8,-21,-17,-5,-1,-1,-1,0
14:09:33:513303,1,1,4,2,0,1,-1,-2
14:09:33:519331,3,3,4,5,1,-1,0,2
14:09:33:526787,3,3,4,5,1,-1,0,2
14:09:33:534335,-2,-2,0,-5,8,2,-1,3
14:09:33:541810,-4,-9,4,5,0,-2,-2,2
14:09:33:550099,-4,-9,4,5,0,-2,-2,2
14:09:33:550835,1,-25,-16,-16,-9,-6,-1,0
14:09:33:564353,-9,-9,0,-4,-2,-2,-5,-6
14:09:33:572566,-9,-9,0,-4,-2,-2,-5,-6
14:09:33:573301,6,32,16,12,0,0,3,4
14:09:33:579321,3,13,-7,-10,-5,1,2,3
14:09:33:586812,3,13,-7,-10,-5,1,2,3
14:09:33:594299,-3,-1,-5,-1,3,0,-3,-4
14:09:33:601786,2,9,13,20,10,4,4,3
14:09:33:610044,2,9,13,20,10,4,4,3
14:09:33:610805,-7,4,1,-17,-6,-1,0,-2
14:09:33:624355,-1,-13,-9,-4,-8,-3,-6,-6
14:09:33:632574,-1,-13,-9,-4,-8,-3,-6,-6
14:09:33:633311,7,-9,-26,-7,1,-2,-1,-9
14:09:33:639311,-4,-11,-25,-14,-5,-1,1,12
14:09:33:646805,-4,-11,-25,-14,-5,-1,1,12
14:09:33:654338,9,12,16,13,0,-1,-1,-4
14:09:33:661816,20,9,3,-5,-6,-7,-5,-5
14:09:33:670062,20,9,3,-5,-6,-7,-5,-5
14:09:33:670796,-6,-11,-10,1,-2,3,8,15
14:09:33:684346,-4,-8,1,-5,-1,-4,-6,-15
14:09:33:692580,-4,-8,1,-5,-1,-4,-6,-15
14:09:33:693291,3,0,12,11,2,-3,-2,1
14:09:33:699344,30,20,18,3,8,6,6,22
14:09:33:706799,30,20,18,3,8,6,6,22
14:09:33:714302,-7,-7,10,1,-5,1,1,7
14:09:33:721793,-40,-39,-13,-17,-3,-5,-5,-4
14:09:33:730079,-40,-39,-13,-17,-3,-5,-5,-4
14:09:33:730805,5,11,16,12,2,3,2,-2
14:09:33:744324,-6,-11,-7,-6,-4,-3,-1,-5
14:09:33:752555,-6,-11,-7,-6,-4,-3,-1,-5
14:09:33:753318,-15,-13,-14,-7,-2,-3,-5,-7
14:09:33:759312,14,21,0,10,-2,1,2,-2
14:09:33:766931,14,21,0,10,-2,1,2,-2
14:09:33:774305,-31,9,21,17,5,-4,-6,-5
14:09:33:781824,-57,-18,-14,-12,-7,-4,-2,-1
14:09:33:789955,-57,-18,-14,-12,-7,-4,-2,-1
14:09:33:790790,-12,-7,-13,0,-5,-5,-7,-10
14:09:33:804299,16,4,22,5,0,1,2,1
14:09:33:812566,16,4,22,5,0,1,2,1
14:09:33:813306,20,9,4,-4,0,1,-1,0
14:09:33:819339,7,7,9,-1,5,4,2,1
14:09:33:826794,7,7,9,-1,5,4,2,1
14:09:33:834312,14,-16,-8,-4,-2,0,0,-1
14:09:33:841793,18,25,3,8,2,4,4,4
14:09:33:850049,18,25,3,8,2,4,4,4
14:09:33:850806,0,4,3,6,7,-2,-1,-3
14:09:33:864298,-15,-16,6,6,3,-1,-4,-10
14:09:33:872572,-15,-16,6,6,3,-1,-4,-10
14:09:33:873281,26,4,-5,-8,-3,-4,-3,-2
14:09:33:879329,-1,2,-17,-2,0,0,-3,-4
14:09:33:886798,-1,2,-17,-2,0,0,-3,-4
14:09:33:894320,-6,-9,8,7,-2,-2,2,5
14:09:33:901827,-6,-2,1,-12,-9,-4,-4,-2
14:09:33:910049,-6,-2,1,-12,-9,-4,-4,-2
14:09:33:910802,-6,-6,-10,-10,2,0,-1,-5
14:09:33:924323,-10,-9,18,5,2,0,0,0
14:09:33:932557,-10,-9,18,5,2,0,0,0
14:09:33:933304,3,0,-2,-6,-5,-3,-3,-3
14:09:33:939336,8,3,-12,3,7,5,8,-1
14:09:33:946833,8,3,-12,3,7,5,8,-1
14:09:33:954324,-11,-4,-7,-12,-6,-1,-1,1
14:09:33:961821,21,10,1,-5,-3,-4,-10,-8
14:09:33:969314,21,10,1,-5,-3,-4,-10,-8
14:09:33:976787,-6,-2,-7,-1,0,1,1,-2
14:09:33:984355,-5,3,-6,-3,-7,-4,-3,1
14:09:33:992551,-5,3,-6,-3,-7,-4,-3,1
14:09:33:993292,-13,-3,-3,0,-3,-1,-3,-6
14:09:34:7563,5,2,3,11,11,2,0,-10
14:09:34:8305,5,2,3,11,11,2,0,-10
14:09:34:14351,4,1,-8,-5,4,0,0,2
14:09:34:21817,1,12,0,4,-3,-1,-2,7
14:09:34:29439,1,12,0,4,-3,-1,-2,7
14:09:34:36852,15,8,7,-3,-3,-2,2,5
14:09:34:44317,-9,-11,-10,-19,-2,-1,1,-1
14:09:34:52597,-9,-11,-10,-19,-2,-1,1,-1
14:09:34:53356,-8,-5,-12,-5,-5,-3,-3,-2
14:09:34:67560,5,5,13,4,-6,-4,6,-3
14:09:34:68189,5,5,13,4,-6,-4,6,-3
14:09:34:74311,5,-7,-21,0,7,-2,-6,-1
14:09:34:81826,-4,-1,-2,4,0,-1,-5,-3
14:09:34:89350,-4,-1,-2,4,0,-1,-5,-3
14:09:34:96842,7,-5,-10,1,5,1,-11,-2
14:09:34:104304,-3,6,3,-4,-3,0,3,0
14:09:34:112602,-3,6,3,-4,-3,0,3,0
14:09:34:113321,6,16,4,2,0,1,2,-2
14:09:34:127568,5,5,7,0,5,0,-2,2
14:09:34:128330,5,5,7,0,5,0,-2,2
14:09:34:134337,4,-8,-18,-3,-6,-1,5,5
14:09:34:141919,-1,1,16,3,-3,-2,-3,-4
14:09:34:149341,-1,1,16,3,-3,-2,-3,-4
14:09:34:156798,-7,-4,17,-1,-4,-3,-1,0
14:09:34:164468,3,-4,-6,-3,-2,1,2,3
14:09:34:172569,3,-4,-6,-3,-2,1,2,3
14:09:34:173309,-2,19,8,16,5,1,1,-6
14:09:34:187549,1,25,-16,-1,-2,0,0,-2
14:09:34:188300,1,25,-16,-1,-2,0,0,-2
14:09:34:194313,-8,-13,12,-12,-1,0,0,-2
14:09:34:201805,-5,-5,7,14,6,0,3,8
14:09:34:209336,-5,-5,7,14,6,0,3,8
14:09:34:216854,3,18,21,2,-3,0,-11,4
14:09:34:224335,-9,-13,-9,-2,-4,-5,-5,-9
14:09:34:232556,-9,-13,-9,-2,-4,-5,-5,-9
14:09:34:233305,-42,-17,-5,-2,0,0,3,-6
14:09:34:247601,3,-19,-20,0,7,-2,-10,-5
14:09:34:248347,3,-19,-20,0,7,-2,-10,-5
14:09:34:254362,3,8,-2,-4,-1,-2,1,3
14:09:34:261842,-4,2,-21,-12,-7,0,1,-12
14:09:34:269327,-4,2,-21,-12,-7,0,1,-12
14:09:34:276814,16,2,-7,-2,-4,1,0,-2
14:09:34:284332,3,6,4,-3,-4,-1,2,5
14:09:34:292566,3,6,4,-3,-4,-1,2,5
14:09:34:293326,12,-9,13,13,3,-1,-1,2
14:09:34:307574,-14,-13,-19,-8,0,0,0,-2
14:09:34:308318,-14,-13,-19,-8,0,0,0,-2
14:09:34:314307,-4,11,-17,-3,0,-1,2,0
14:09:34:321787,5,8,15,19,8,5,5,6
14:09:34:329442,5,8,15,19,8,5,5,6
14:09:34:336813,-9,-24,-18,-9,-5,-3,-9,-21
14:09:34:344319,-7,4,4,1,-4,-2,-2,1
14:09:34:352586,-7,4,4,1,-4,-2,-2,1
14:09:34:353331,1,19,7,-2,-1,2,8,17
14:09:34:367593,-7,-13,24,-3,-2,-5,-8,-7
14:09:34:368195,-7,-13,24,-3,-2,-5,-8,-7
14:09:34:374318,5,3,-21,-8,-2,-1,-5,1
14:09:34:381817,7,-8,21,0,-2,-2,5,-1
14:09:34:389337,7,-8,21,0,-2,-2,5,-1
14:09:34:396848,-10,-30,5,-2,-4,-1,-1,0
14:09:34:404312,-8,-24,-13,-10,-7,-2,-2,-5
14:09:34:412565,-8,-24,-13,-10,-7,-2,-2,-5
14:09:34:413309,9,11,-4,7,4,-1,11,5
14:09:34:427553,-2,17,27,-3,-2,-2,0,3
14:09:34:428311,-2,17,27,-3,-2,-2,0,3
14:09:34:434327,9,22,28,7,2,1,4,1
14:09:34:441842,-10,-11,10,0,1,2,0,6
14:09:34:449325,-10,-11,10,0,1,2,0,6
14:09:34:456826,-9,-20,-11,-3,-6,0,5,-3
14:09:34:464311,-4,15,-3,-3,-5,-3,-8,-7
14:09:34:472553,-4,15,-3,-3,-5,-3,-8,-7
14:09:34:473304,7,-26,-13,-9,6,-1,-8,-10
14:09:34:487602,10,-11,-19,1,-1,-2,-1,5
14:09:34:488347,10,-11,-19,1,-1,-2,-1,5
14:09:34:494311,-5,-19,-24,-2,-2,0,-1,1
14:09:34:501835,-1,24,-13,0,0,-3,1,7
14:09:34:509284,-1,24,-13,0,0,-3,1,7
14:09:34:516809,10,15,24,0,4,0,-5,1
14:09:34:524325,11,-5,-6,7,-4,-3,-5,-1
14:09:34:532585,11,-5,-6,7,-4,-3,-5,-1
14:09:34:533301,-6,4,-7,-5,-8,-4,0,-2
14:09:34:547585,-4,-6,-30,-17,-10,-3,3,13
14:09:34:548326,-4,-6,-30,-17,-10,-3,3,13
14:09:34:554295,10,2,4,3,0,-3,0,-1
14:09:34:561818,17,9,30,9,-3,-3,-2,-5
14:09:34:569333,17,9,30,9,-3,-3,-2,-5
14:09:34:576842,4,2,-17,-4,-2,-2,1,3
14:09:34:584332,-9,-7,11,2,5,4,0,-4
14:09:34:592593,-9,-7,11,2,5,4,0,-4
14:09:34:593315,-16,-6,25,0,-11,-12,-17,-4
14:09:34:607567,-3,-8,-32,-14,9,5,6,-2
14:09:34:608319,-3,-8,-32,-14,9,5,6,-2
14:09:34:614329,-21,7,-3,3,0,7,5,9
14:09:34:621845,3,0,-10,-6,-7,-1,6,4
14:09:34:629428,3,0,-10,-6,-7,-1,6,4
14:09:34:636854,-19,9,5,10,4,0,-17,-13
14:09:34:644331,8,-9,-36,-16,5,2,-4,-10
14:09:34:652582,8,-9,-36,-16,5,2,-4,-10
14:09:34:653324,23,7,13,9,3,0,4,-4
14:09:34:667456,-24,0,27,15,2,1,3,4
14:09:34:668321,-24,0,27,15,2,1,3,4
14:09:34:674330,-33,-7,-6,-14,-5,-1,-1,-5
14:09:34:681835,4,-4,4,-10,-4,-3,-4,-5
14:09:34:689332,4,-4,4,-10,-4,-3,-4,-5
14:09:34:696808,4,7,-25,-10,-1,-3,-4,9
14:09:34:704304,-2,-12,-33,-11,-3,-5,-10,-32
14:09:34:712612,-2,-12,-33,-11,-3,-5,-10,-32
14:09:34:713334,26,7,4,-19,-8,1,6,-7
14:09:34:727607,15,11,7,13,-1,-2,-16,1
14:09:34:728315,15,11,7,13,-1,-2,-16,1
14:09:34:734313,-17,-16,23,21,1,-1,0,-1
14:09:34:741835,-9,-1,3,0,-1,5,14,10
14:09:34:749337,-9,-1,3,0,-1,5,14,10
14:09:34:756861,8,5,2,-1,-3,-8,-3,21
14:09:34:764312,-20,2,4,4,4,4,0,8
14:09:34:772573,-20,2,4,4,4,4,0,8
14:09:34:773309,-6,-15,-25,-17,-1,0,2,-23
14:09:34:787608,11,10,3,-5,5,-1,-3,-5
14:09:34:788309,11,10,3,-5,5,-1,-3,-5
14:09:34:794289,-4,0,-5,7,4,4,0,6
14:09:34:801799,2,-13,-2,3,0,-8,-6,-4
14:09:34:809310,2,-13,-2,3,0,-8,-6,-4
14:09:34:816818,14,-22,-23,-9,0,-1,-1,-8
14:09:34:824308,18,6,2,-6,-4,-2,-4,-10
14:09:34:832564,18,6,2,-6,-4,-2,-4,-10
14:09:34:833315,9,2,1,1,-4,0,3,18
14:09:34:847568,-4,-4,0,-11,-9,-12,-25,-5
14:09:34:848307,-4,-4,0,-11,-9,-12,-25,-5
14:09:34:854365,-6,-11,23,3,-5,-1,2,-15
14:09:34:861824,9,1,-21,1,1,2,12,9
14:09:34:869331,9,1,-21,1,1,2,12,9
14:09:34:876844,-13,33,21,9,3,2,4,6
14:09:34:884356,-20,-12,-12,-7,10,4,4,-3
14:09:34:892566,-20,-12,-12,-7,10,4,4,-3
14:09:34:893315,1,-3,-9,15,14,3,5,23
14:09:34:907572,-6,14,27,14,4,1,5,10
14:09:34:908335,-6,14,27,14,4,1,5,10
14:09:34:914344,-6,9,-23,-9,-3,-1,-5,-22
14:09:34:930097,-5,-31,5,9,-4,1,3,-3
14:09:34:930822,-5,-31,5,9,-4,1,3,-3
14:09:34:936838,3,-4,9,-11,-1,-3,0,-6
14:09:34:944337,0,16,15,5,0,-2,-8,-13
14:09:34:951827,0,16,15,5,0,-2,-8,-13
14:09:34:959399,14,-38,-9,0,-5,-1,-4,-7
14:09:34:967579,-2,5,-6,-2,-5,1,3,5
14:09:34:968207,-2,5,-6,-2,-5,1,3,5
14:09:34:974316,-2,5,-11,4,1,-2,-6,28
14:09:34:990073,5,-15,12,6,-6,-9,-11,13
14:09:34:990846,5,-15,12,6,-6,-9,-11,13
14:09:34:996855,-7,-23,3,1,-9,-3,-1,-13
14:09:35:4345,-2,2,-16,4,7,5,-3,-3
14:09:35:11831,-2,2,-16,4,7,5,-3,-3
14:09:35:19333,-6,3,-34,1,-1,0,-9,1
14:09:35:27586,-4,-3,26,-4,-2,-5,-5,-14
14:09:35:28338,-4,-3,26,-4,-2,-5,-5,-14
14:09:35:34316,-2,8,18,-6,-2,5,9,-12
14:09:35:49954,0,8,-11,-10,-1,0,8,9
14:09:35:50837,0,8,-11,-10,-1,0,8,9
14:09:35:56830,7,0,-3,4,-3,-6,-3,4
14:09:35:64332,2,16,6,7,-4,1,5,6
14:09:35:71837,2,16,6,7,-4,1,5,6
14:09:35:79331,-2,22,-6,-1,0,2,8,-4
14:09:35:87609,1,-2,4,-2,-2,5,7,27
14:09:35:88353,1,-2,4,-2,-2,5,7,27
14:09:35:94316,-5,21,5,-2,-3,-7,-11,-18
14:09:35:109958,17,10,-2,-11,-4,-1,1,-16
14:09:35:110839,17,10,-2,-11,-4,-1,1,-16
14:09:35:116817,-1,0,23,-5,5,2,5,-1
14:09:35:124324,2,-18,-2,-7,-3,0,-2,2
14:09:35:131836,2,-18,-2,-7,-3,0,-2,2
14:09:35:139342,1,-11,0,14,-2,1,13,14
14:09:35:147583,-7,1,-52,-21,-11,-12,-1,-1
14:09:35:148324,-7,1,-52,-21,-11,-12,-1,-1
14:09:35:154338,-4,-19,-19,3,1,-3,-5,-19
14:09:35:169962,-6,-28,16,12,2,2,12,11
14:09:35:170829,-6,-28,16,12,2,2,12,11
14:09:35:176822,4,8,8,-10,-3,-4,-41,-19
14:09:35:184341,-2,-10,-8,-8,-4,-8,-8,-17
14:09:35:191846,-2,-10,-8,-8,-4,-8,-8,-17
14:09:35:199339,-16,-36,7,-5,7,13,9,-12
14:09:35:207566,-1,19,8,-1,-2,-1,-3,1
14:09:35:208303,-1,19,8,-1,-2,-1,-3,1
14:09:35:214359,-2,0,-24,-14,0,-5,3,6
14:09:35:230062,-2,-16,-17,-11,-1,2,5,3
14:09:35:230806,-2,-16,-17,-11,-1,2,5,3
14:09:35:236813,-2,-13,-12,-26,-13,-10,-8,-5
14:09:35:244317,8,19,48,19,6,1,-4,-2
14:09:35:251804,8,19,48,19,6,1,-4,-2
14:09:35:259354,-11,-5,-7,-6,-5,-5,1,6
14:09:35:267457,14,7,-11,0,-2,1,3,-12
14:09:35:268338,14,7,-11,0,-2,1,3,-12
14:09:35:274327,21,55,5,-3,-2,0,6,-10
14:09:35:290098,-5,14,33,10,-1,0,4,-3
14:09:35:290835,-5,14,33,10,-1,0,4,-3
14:09:35:296819,-10,-24,-4,-10,1,-2,-12,-6
14:09:35:304321,4,15,-1,1,-1,1,-2,5
14:09:35:311829,4,15,-1,1,-1,1,-2,5
14:09:35:319330,-10,7,-5,11,-2,-4,-2,4
14:09:35:327182,-1,18,11,5,5,4,0,-3
14:09:35:334919,-1,18,11,5,5,4,0,-3
14:09:35:335818,12,19,-1,9,6,-1,-5,34
14:09:35:349974,-14,-14,-37,-6,7,2,2,-5
14:09:35:350840,-14,-14,-37,-6,7,2,2,-5
14:09:35:356834,-11,2,35,11,0,3,8,8
14:09:35:364351,-14,-8,3,-2,-8,-3,-6,3
14:09:35:380090,-14,-8,3,-2,-8,-3,-6,3
14:09:35:380836,1,-18,-6,2,-3,-3,-7,19
14:09:35:387592,-7,32,-1,0,4,0,-5,-4
14:09:35:388341,-7,32,-1,0,4,0,-5,-4
14:09:35:394343,-8,-22,5,3,1,-2,2,-5
14:09:35:409984,10,3,4,1,-8,-7,-3,-1
14:09:35:410798,10,3,4,1,-8,-7,-3,-1
14:09:35:416847,5,11,2,10,-9,-4,1,-10
14:09:35:424348,8,-14,-1,-5,-7,-4,-9,-11
14:09:35:431796,8,-14,-1,-5,-7,-4,-9,-11
14:09:35:439359,2,-22,-39,-7,4,0,-15,-28
14:09:35:447583,-13,-14,-24,-6,-1,-3,-9,-2
14:09:35:448362,-13,-14,-24,-6,-1,-3,-9,-2
14:09:35:454343,6,11,-1,-3,-1,2,3,-16
14:09:35:469955,8,-11,6,4,2,-5,-6,16
14:09:35:470828,8,-11,6,4,2,-5,-6,16
14:09:35:476809,-3,-28,-6,0,-3,-2,6,-2
14:09:35:484299,-16,-14,-24,-11,-6,-4,-2,-11
14:09:35:491818,-16,-14,-24,-11,-6,-4,-2,-11
14:09:35:499332,-1,-3,3,-5,-1,3,5,8
14:09:35:507582,4,17,-14,4,4,3,8,1
14:09:35:508305,4,17,-14,4,4,3,8,1
14:09:35:514330,-7,-27,-23,-11,1,-2,1,3
14:09:35:529960,5,5,19,9,-3,-4,-3,-21
14:09:35:530854,5,5,19,9,-3,-4,-3,-21
14:09:35:536864,-7,-3,11,1,0,-3,-7,-9
14:09:35:544339,-32,5,-1,-1,-2,-4,-11,-4
14:09:35:551840,-32,5,-1,-1,-2,-4,-11,-4
14:09:35:559335,2,54,26,10,5,4,4,10
14:09:35:567625,-4,-17,6,2,5,4,4,-3
14:09:35:568350,-4,-17,6,2,5,4,4,-3
14:09:35:574337,2,6,-23,-15,0,0,6,7
14:09:35:590008,15,4,-5,-2,2,-1,-1,-2
14:09:35:590850,15,4,-5,-2,2,-1,-1,-2
14:09:35:596865,8,-22,-1,-1,-5,-6,-1,0
14:09:35:604337,-9,-14,2,1,0,0,-7,2
14:09:35:611835,-9,-14,2,1,0,0,-7,2
14:09:35:619325,-1,5,-2,10,-2,0,2,4
14:09:35:627450,10,7,9,-6,-2,2,8,7
14:09:35:628308,10,7,9,-6,-2,2,8,7
14:09:35:634369,12,-6,12,5,1,1,-6,-14
14:09:35:650458,-11,-21,-6,-24,5,0,-6,-3
14:09:35:657604,-11,-21,-6,-24,5,0,-6,-3
14:09:35:658320,-2,14,13,-1,-1,-4,11,14
14:09:35:664330,-1,-4,-40,-11,-2,-1,-5,-6
14:09:35:671863,-1,-4,-40,-11,-2,-1,-5,-6
14:09:35:679332,-7,-16,-15,-6,2,1,-1,8
14:09:35:687606,16,-4,22,1,-10,-6,-11,9
14:09:35:688333,16,-4,22,1,-10,-6,-11,9
14:09:35:694331,1,5,14,2,-7,0,3,0
14:09:35:709957,-3,-26,5,0,-6,-2,2,15
14:09:35:710809,-3,-26,5,0,-6,-2,2,15
14:09:35:716839,-24,-5,-17,-8,-2,-10,-8,36
14:09:35:724345,11,31,6,6,-5,-1,3,16
14:09:35:731837,11,31,6,6,-5,-1,3,16
14:09:35:739370,4,5,15,8,3,8,13,-8
14:09:35:747607,-23,-29,-2,-13,3,-4,-5,-1
14:09:35:748347,-23,-29,-2,-13,3,-4,-5,-1
14:09:35:754324,1,8,-5,-7,1,2,5,-16
14:09:35:769946,1,4,0,4,-3,0,-1,-16
14:09:35:770843,1,4,0,4,-3,0,-1,-16
14:09:35:776844,7,21,17,2,-1,-3,-11,1
14:09:35:784334,-10,23,-18,2,4,7,15,9
14:09:35:791863,-10,23,-18,2,4,7,15,9
14:09:35:799340,-4,-14,-23,-3,-5,-1,13,-4
14:09:35:807582,4,-3,-17,-9,-3,-3,-2,-7
14:09:35:808359,4,-3,-17,-9,-3,-3,-2,-7
14:09:35:814335,8,24,22,14,4,4,-7,-25
14:09:35:829944,0,-17,12,2,-5,3,9,-9
14:09:35:830821,0,-17,12,2,-5,3,9,-9
14:09:35:844363,-4,-11,1,7,4,-4,-5,-5
14:09:35:852581,5,-2,34,17,4,0,-9,-6
14:09:35:853311,5,-2,34,17,4,0,-9,-6
14:09:35:859342,-14,-2,-40,-28,-10,-4,0,-11
14:09:35:867567,-2,5,9,2,-6,-5,-6,4
14:09:35:868333,-2,5,9,2,-6,-5,-6,4
14:09:35:881814,5,27,24,-5,2,2,6,22
14:09:35:889947,16,-18,-11,6,-3,-2,1,-2
14:09:35:890824,16,-18,-11,6,-3,-2,1,-2
14:09:35:896827,8,14,-6,10,3,2,-11,-20
14:09:35:912591,1,40,-21,-10,2,3,11,-2
14:09:35:913313,1,40,-21,-10,2,3,11,-2
14:09:35:919340,5,-25,4,0,-3,-8,-18,12
14:09:35:927584,6,-15,-13,-2,3,-3,-7,-1
14:09:35:928337,6,-15,-13,-2,3,-3,-7,-1
14:09:35:941829,-5,-30,18,-12,-2,2,2,1
14:09:35:949965,-4,-14,-22,-14,1,2,11,11
14:09:35:950835,-4,-14,-22,-14,1,2,11,11
14:09:35:956844,-1,10,45,19,4,3,8,14
14:09:35:972952,-8,-35,8,0,-1,0,-6,9
14:09:35:979995,-8,-35,8,0,-1,0,-6,9
14:09:35:980925,11,4,-25,-1,-1,-1,-1,-7
14:09:35:987565,-4,19,11,2,-1,-6,-16,-12
14:09:35:988341,-4,19,11,2,-1,-6,-16,-12
14:09:36:1833,-9,19,-14,-11,-5,-5,-13,-8
14:09:36:9962,-11,-25,6,3,2,0,8,-8
14:09:36:10823,-11,-25,6,3,2,0,8,-8
14:09:36:16850,8,0,-25,-1,4,1,8,-10
14:09:36:32448,0,9,-2,1,-2,2,11,-12
14:09:36:33346,0,9,-2,1,-2,2,11,-12
14:09:36:39355,-8,-36,-12,-7,-8,-8,-2,-18
14:09:36:47596,1,-5,-46,-14,0,-3,-1,7
14:09:36:48208,1,-5,-46,-14,0,-3,-1,7
14:09:36:61858,-3,-8,-12,-21,-9,-3,-3,0
14:09:36:78234,-2,36,-34,-5,3,1,-9,2
14:09:36:78950,-2,36,-34,-5,3,1,-9,2
14:09:36:79830,-10,-17,9,-8,-1,-2,-14,-9
14:09:36:92579,-16,-5,44,10,-1,-3,-18,-19
14:09:36:93318,-16,-5,44,10,-1,-3,-18,-19
14:09:36:99334,-10,-23,-29,4,7,4,18,1
14:09:36:106842,-13,-17,25,1,-2,-2,-2,-19
14:09:36:122614,-13,-17,25,1,-2,-2,-2,-19
14:09:36:123320,-3,-3,11,-7,-8,-6,-1,2
14:09:36:129971,3,7,-22,-3,6,4,3,-2
14:09:36:130865,3,7,-22,-3,6,4,3,-2
14:09:36:136848,10,20,-9,4,-1,5,27,21
14:09:36:152616,16,-9,-31,-13,-8,-5,-21,-19
14:09:36:153341,16,-9,-31,-13,-8,-5,-21,-19
14:09:36:159322,-8,-23,-13,-1,4,2,-3,-6
14:09:36:167612,10,31,37,12,1,5,19,16
14:09:36:168343,10,31,37,12,1,5,19,16
14:09:36:181856,-7,4,2,16,-11,-2,0,4
14:09:36:189954,-4,-28,-17,-1,-2,-2,-4,-2
14:09:36:190827,-4,-28,-17,-1,-2,-2,-4,-2
14:09:36:196823,1,10,-20,-9,-6,-1,24,-10
14:09:36:212576,-1,17,3,-3,3,5,13,-3
14:09:36:213344,-1,17,3,-3,3,5,13,-3
14:09:36:219326,-8,-9,-14,-16,0,-2,-7,0
14:09:36:227585,-14,-7,-18,-3,2,-7,-15,-9
14:09:36:228330,-14,-7,-18,-3,2,-7,-15,-9
14:09:36:241816,13,4,-1,12,6,2,-22,1
14:09:36:249979,3,26,44,15,-3,-2,15,-17
14:09:36:250824,3,26,44,15,-3,-2,15,-17
14:09:36:256838,14,37,62,12,0,-2,-24,6
14:09:36:272445,9,19,24,-6,1,3,2,22
14:09:36:273316,9,19,24,-6,1,3,2,22
14:09:36:279338,21,37,24,8,-1,-6,-14,-8
14:09:36:287572,2,-21,8,7,11,3,-11,12
14:09:36:288313,2,-21,8,7,11,3,-11,12
14:09:36:301841,-22,-30,-18,-9,2,-2,-13,-13
14:09:36:309960,9,6,-22,-15,-8,-5,2,4
14:09:36:310841,9,6,-22,-15,-8,-5,2,4
14:09:36:316860,-6,-6,36,5,0,0,-8,2
14:09:36:332462,12,-5,-1,8,-6,-6,-6,-12
14:09:36:333335,12,-5,-1,8,-6,-6,-6,-12
14:09:36:339334,-2,0,14,-7,-5,-4,5,26
14:09:36:346841,3,-2,-55,-19,-9,-2,-8,18
14:09:36:354332,3,-2,-55,-19,-9,-2,-8,18
14:09:36:361821,-6,-3,11,11,6,7,35,5
14:09:36:369931,8,-23,34,11,2,-8,-18,-6
14:09:36:370820,8,-23,34,11,2,-8,-18,-6
14:09:36:376804,-9,-11,-36,-15,-9,-9,-14,-13
14:09:36:400715,-9,-11,-36,-15,-9,-9,-14,-13
14:09:36:401566,-17,-33,3,7,2,7,8,-17
14:09:36:402300,-2,7,15,11,0,1,-8,9
14:09:36:415082,-2,7,15,11,0,1,-8,9
14:09:36:415827,-17,-7,26,0,-1,-7,-8,19
14:09:36:421896,16,6,-44,-14,2,1,6,4
14:09:36:429965,16,6,-44,-14,2,1,6,4
14:09:36:430870,-15,-9,0,2,0,4,12,9
14:09:36:436852,-6,15,1,-16,8,6,8,-8
14:09:36:452592,-6,15,1,-16,8,6,8,-8
14:09:36:453342,10,-23,-22,-4,-7,-6,5,39
14:09:36:459376,-1,-14,-14,-2,-1,-9,-20,-10
14:09:36:475088,-1,-14,-14,-2,-1,-9,-20,-10
14:09:36:475848,-1,24,14,-2,-3,-6,-19,-19
14:09:36:481822,0,-34,-19,-8,-4,-2,-8,7
14:09:36:490094,0,-34,-19,-8,-4,-2,-8,7
14:09:36:490811,-7,0,-2,5,-4,-5,7,-26
14:09:36:496826,-33,-32,13,-11,-5,-3,-4,-8
14:09:36:512640,-33,-32,13,-11,-5,-3,-4,-8
14:09:36:513436,-8,6,2,-14,3,4,3,-16
14:09:36:519343,5,34,28,8,-5,-3,-2,13
14:09:36:535366,5,34,28,8,-5,-3,-2,13
14:09:36:542473,3,-3,0,-7,3,7,7,-3
14:09:36:543214,9,18,6,7,-3,5,10,-16
14:09:36:550102,9,18,6,7,-3,5,10,-16
14:09:36:550850,20,11,0,5,0,-4,-16,7
14:09:36:556848,6,-18,-13,6,3,0,6,6
14:09:36:573226,6,-18,-13,6,3,0,6,6
14:09:36:573975,-17,5,1,2,-2,-3,-1,-3
14:09:36:579376,-1,-28,3,0,-5,0,15,16
14:09:36:594994,-1,-28,3,0,-5,0,15,16
14:09:36:595828,-2,-6,-5,3,2,-3,-15,5
14:09:36:601847,10,-1,7,9,8,7,-12,-27
14:09:36:610086,10,-1,7,9,8,7,-12,-27
14:09:36:610829,-3,-1,-18,7,-4,-1,18,2
14:09:36:616858,-4,25,0,-11,-7,-5,-5,-10
14:09:36:632681,-4,25,0,-11,-7,-5,-5,-10
14:09:36:633346,-3,16,52,23,4,6,17,2
14:09:36:639349,-6,-31,20,6,-3,-1,-6,-10
14:09:36:654962,-6,-31,20,6,-3,-1,-6,-10
14:09:36:655831,-9,-11,-12,-6,-6,-15,-18,-12
14:09:36:661846,13,15,-20,1,0,-4,-20,-8
14:09:36:678234,13,15,-20,1,0,-4,-20,-8
14:09:36:678975,8,-6,-30,-13,-1,5,8,2
14:09:36:679892,-2,-1,-6,-16,-9,-7,-4,-5
14:09:36:692590,-2,-1,-6,-16,-9,-7,-4,-5
14:09:36:693325,-5,-42,-13,-6,9,9,12,-1
14:09:36:699382,3,16,21,11,3,-7,-8,10
14:09:36:723227,3,16,21,11,3,-7,-8,10
14:09:36:723997,-4,40,11,0,-3,0,-9,-10
14:09:36:724852,2,-8,-31,-10,-1,2,33,31
14:09:36:730125,2,-8,-31,-10,-1,2,33,31
14:09:36:730881,3,3,4,8,3,1,-7,14
14:09:36:736850,1,29,17,3,-2,4,12,19
14:09:36:752602,1,29,17,3,-2,4,12,19
14:09:36:753341,5,28,5,2,-6,-1,4,17
14:09:36:766863,8,6,-1,10,3,1,15,0
14:09:36:774958,8,6,-1,10,3,1,15,0
14:09:36:775825,18,-1,-20,-9,-4,2,6,-4
14:09:36:781880,4,4,21,8,3,-1,-16,-29
14:09:36:790099,4,4,21,8,3,-1,-16,-29
14:09:36:790832,-5,-5,-16,-6,-1,2,3,-7
14:09:36:804389,-9,-17,-25,0,-2,0,1,-12
14:09:36:812580,-9,-17,-25,0,-2,0,1,-12
14:09:36:813351,-8,-25,-32,-31,-4,1,13,-10
14:09:36:819356,4,-2,10,2,-3,-2,-5,-26
14:09:36:834977,4,-2,10,2,-3,-2,-5,-26
14:09:36:835846,17,-34,13,11,5,10,11,-13
14:09:36:841879,-9,-37,-21,-14,3,1,-6,15
14:09:36:849979,-9,-37,-21,-14,3,1,-6,15
14:09:36:850846,-7,14,-15,0,-4,-9,-7,6
14:09:36:864360,-24,-24,-16,2,2,1,-2,-3
14:09:36:872634,-24,-24,-16,2,2,1,-2,-3
14:09:36:873379,-5,17,9,14,1,-7,-9,-15
14:09:36:879389,-29,11,34,3,2,-1,-12,-20
14:09:36:894964,-29,11,34,3,2,-1,-12,-20
14:09:36:895860,0,-3,-43,-23,-10,-10,-11,8
14:09:36:901840,16,16,-24,-10,0,-1,-1,2
14:09:36:909962,16,16,-24,-10,0,-1,-1,2
14:09:36:910844,7,30,50,16,6,4,22,13
14:09:36:924376,3,0,5,-8,1,5,7,-7
14:09:36:932611,3,0,5,-8,1,5,7,-7
14:09:36:933341,-8,26,36,15,4,2,-12,5
14:09:36:939355,16,0,-26,-1,1,-7,-15,14
14:09:36:955454,16,0,-26,-1,1,-7,-15,14
14:09:36:956319,1,-8,-7,2,-7,-1,-2,13
14:09:36:961846,-7,1,-24,2,-2,1,0,1
14:09:36:969968,-7,1,-24,2,-2,1,0,1
14:09:36:970809,-4,3,-7,-13,1,0,-4,-32
14:09:36:984331,5,11,0,-7,0,2,-16,18
14:09:37:721,5,11,0,-7,0,2,-16,18
14:09:37:1588,1,-44,5,-1,-6,-15,-30,9
14:09:37:2363,3,7,27,6,0,3,23,8
14:09:37:15147,3,7,27,6,0,3,23,8
14:09:37:15877,2,-21,13,-2,-4,2,21,56
14:09:37:21874,8,3,16,17,0,0,14,-2
14:09:37:30130,8,3,16,17,0,0,14,-2
14:09:37:30841,10,8,-9,-6,3,1,10,1
14:09:37:44336,-16,14,-14,-1,-11,-13,-12,-6
14:09:37:52611,-16,14,-14,-1,-11,-13,-12,-6
14:09:37:53377,-14,3,1,-3,6,6,-2,-9
14:09:37:59353,4,16,17,-11,-7,-2,0,-13
14:09:37:74958,4,16,17,-11,-7,-2,0,-13
14:09:37:75851,-4,8,24,-16,-4,-3,-24,-42
14:09:37:81848,-3,11,4,1,0,-8,-14,5
14:09:37:90095,-3,11,4,1,0,-8,-14,5
14:09:37:90827,-7,-24,20,12,-2,-1,-11,-15
14:09:37:104384,18,-10,0,6,-1,0,16,7
14:09:37:112632,18,-10,0,6,-1,0,16,7
14:09:37:113347,1,-12,-44,-1,-3,-7,-8,-19
14:09:37:119377,-7,-2,17,5,1,2,-13,-13
14:09:37:135016,-7,-2,17,5,1,2,-13,-13
14:09:37:135859,-2,28,-4,2,8,3,19,-11
14:09:37:141874,-7,-18,-31,-16,-5,-1,4,22
14:09:37:149973,-7,-18,-31,-16,-5,-1,4,22
14:09:37:150842,14,15,22,15,9,12,32,-4
14:09:37:164222,0,-23,-30,-7,-2,0,-15,-8
14:09:37:172591,0,-23,-30,-7,-2,0,-15,-8
14:09:37:173338,-3,-30,-51,-12,-9,-9,-6,15
14:09:37:179379,-2,-35,-45,-8,2,1,6,0
14:09:37:194986,-2,-35,-45,-8,2,1,6,0
14:09:37:195910,18,22,9,7,-2,-2,-9,19
14:09:37:201844,-9,-25,-6,-2,-1,-7,5,7
14:09:37:209987,-9,-25,-6,-2,-1,-7,5,7
14:09:37:210876,-1,-12,20,0,1,-7,-17,-11
14:09:37:224336,-7,-30,5,-6,8,6,2,-12
14:09:37:232611,-7,-30,5,-6,8,6,2,-12
14:09:37:233368,-2,-2,3,6,-3,-3,-6,7
14:09:37:239344,20,16,25,0,1,1,-31,-1
14:09:37:254990,20,16,25,0,1,1,-31,-1
14:09:37:255853,-17,-21,-64,-23,-3,-2,0,6
14:09:37:261832,-10,14,-13,1,-6,-9,-13,3
14:09:37:277634,-10,14,-13,1,-6,-9,-13,3
14:09:37:278453,-15,-8,64,-1,-8,-7,-9,2
14:09:37:284384,15,7,21,9,-1,5,20,-15
14:09:37:292606,15,7,21,9,-1,5,20,-15
14:09:37:293220,11,-29,23,17,5,10,3,29
14:09:37:299360,-4,11,-8,-16,-3,-5,-16,-4
14:09:37:323208,-4,11,-8,-16,-3,-5,-16,-4
14:09:37:323984,-6,43,35,10,5,7,-3,13
14:09:37:324940,-12,-11,-38,-8,2,-6,5,2
14:09:37:330097,-12,-11,-38,-8,2,-6,5,2
14:09:37:330853,9,18,-23,-8,0,-3,14,10
14:09:37:344330,-10,10,-23,-7,4,13,34,-4
14:09:37:352592,-10,10,-23,-7,4,13,34,-4
14:09:37:353342,4,4,-30,-16,-5,-4,-11,-25
14:09:37:359334,-17,5,10,6,-1,-5,-14,-39
14:09:37:374954,-17,5,10,6,-1,-5,-14,-39
14:09:37:375841,-22,-91,-12,-5,1,-2,-20,-38
14:09:37:381878,19,-9,-47,-20,-12,-13,-23,-16
14:09:37:389981,19,-9,-47,-20,-12,-13,-23,-16
14:09:37:390852,-9,21,-13,2,-1,-6,4,4
14:09:37:404217,8,-17,59,12,-2,-1,-1,17
14:09:37:412616,8,-17,59,12,-2,-1,-1,17
14:09:37:413332,-26,-27,22,-13,-1,-2,1,13
14:09:37:419358,0,4,-20,9,1,5,17,6
14:09:37:435007,0,4,-20,9,1,5,17,6
14:09:37:435869,-11,16,10,10,-9,-6,4,-3
14:09:37:441842,6,24,40,8,-1,0,3,-14
14:09:37:450017,6,24,40,8,-1,0,3,-14
14:09:37:450854,-10,-27,-51,-19,-5,-3,-22,3
14:09:37:464375,4,4,-8,-4,1,3,9,5
14:09:37:472588,4,4,-8,-4,1,3,9,5
14:09:37:473337,13,17,17,8,6,1,9,-19
14:09:37:479371,1,7,50,13,0,1,-10,16
14:09:37:494992,1,7,50,13,0,1,-10,16
14:09:37:495854,33,32,-3,12,5,13,9,7
14:09:37:501721,-4,-4,19,1,-2,-15,-3,12
14:09:37:510017,-4,-4,19,1,-2,-15,-3,12
14:09:37:510838,13,33,31,-7,-7,-2,-11,-14
14:09:37:524356,0,-55,-57,-23,-1,4,-20,-29
14:09:37:532369,0,-55,-57,-23,-1,4,-20,-29
14:09:37:539973,-14,-18,2,3,2,-4,1,0
14:09:37:540718,5,15,-11,-4,4,5,-2,20
14:09:37:554999,5,15,-11,-4,4,5,-2,20
14:09:37:555843,-13,11,-6,-9,4,-1,14,-6
14:09:37:561869,-18,-4,5,2,10,7,-22,-17
14:09:37:569986,-18,-4,5,2,10,7,-22,-17
14:09:37:570855,4,36,-3,1,-4,-11,-17,-21
14:09:37:584367,-1,-15,-34,-10,-5,-7,0,10
14:09:37:600746,-1,-15,-34,-10,-5,-7,0,10
14:09:37:601639,-14,-51,-42,-13,-2,1,0,3
14:09:37:602368,0,4,13,11,4,6,17,45
14:09:37:614975,0,4,13,11,4,6,17,45
14:09:37:615850,14,-7,-26,-4,-5,2,8,-10
14:09:37:621833,-15,2,21,6,4,12,55,54
14:09:37:630106,-15,2,21,6,4,12,55,54
14:09:37:630856,26,-10,26,5,1,3,8,42
14:09:37:644733,-13,11,15,24,12,7,5,20
14:09:37:652625,-13,11,15,24,12,7,5,20
14:09:37:653354,28,53,-7,3,-4,2,-15,10
14:09:37:659365,-16,3,6,-8,-11,-7,10,-10
14:09:37:674989,-16,3,6,-8,-11,-7,10,-10
14:09:37:675844,-11,38,26,4,9,7,17,-2
14:09:37:681861,-38,0,-12,-26,-7,-8,-9,-66
14:09:37:689978,-38,0,-12,-26,-7,-8,-9,-66
14:09:37:690830,-40,-8,23,-10,3,-6,-14,-38
14:09:37:704227,-2,6,-4,-9,5,5,5,7
14:09:37:712618,-2,6,-4,-9,5,5,5,7
14:09:37:713345,-15,-8,12,25,4,5,11,-10
14:09:37:719377,10,-25,1,11,2,-6,-15,-22
14:09:37:735040,10,-25,1,11,2,-6,-15,-22
14:09:37:735865,-13,-1,17,6,-2,-2,16,30
14:09:37:741711,12,11,15,15,-14,-23,-54,-42
14:09:37:749350,12,11,15,15,-14,-23,-54,-42
14:09:37:756863,7,-39,-29,-11,-3,0,6,-9
14:09:37:764384,-22,-24,-25,-10,0,-4,-18,-5
14:09:37:772614,-22,-24,-25,-10,0,-4,-18,-5
14:09:37:773331,-12,-14,-77,-15,1,1,-8,2
14:09:37:787227,13,19,-14,-5,1,8,13,14
14:09:37:795035,13,19,-14,-5,1,8,13,14
14:09:37:795869,-4,23,35,1,-14,-3,-19,7
14:09:37:801848,18,34,19,20,1,-10,-19,25
14:09:37:809330,18,34,19,20,1,-10,-19,25
14:09:37:816872,0,1,33,-7,-9,-8,5,-9
14:09:37:833225,19,69,38,2,-2,3,18,-3
14:09:37:833980,19,69,38,2,-2,3,18,-3
14:09:37:834970,-27,-4,20,18,4,4,5,6
14:09:37:846824,-9,-11,-30,-11,0,-1,7,9
14:09:37:855005,-9,-11,-30,-11,0,-1,7,9
14:09:37:855863,15,-22,-41,-13,-1,-8,-22,-1
14:09:37:861879,0,-37,-74,-33,-1,12,17,11
14:09:37:877599,0,-37,-74,-33,-1,12,17,11
14:09:37:878219,-1,-10,22,3,-7,-5,14,21
14:09:37:884396,7,-25,30,20,-2,1,-8,-5
14:09:37:892598,7,-25,30,20,-2,1,-8,-5
14:09:37:893344,-9,10,-45,-27,-3,0,-12,-18
14:09:37:906854,-11,-19,8,-9,-3,11,39,-10
14:09:37:923285,-11,-19,8,-9,-3,11,39,-10
14:09:37:923993,0,-13,-38,0,2,-2,-8,-16
14:09:37:924848,15,5,-16,13,-4,-11,6,-10
14:09:37:929341,15,5,-16,13,-4,-11,6,-10
14:09:37:936895,21,29,34,6,0,-3,-24,-25
14:09:37:944370,13,-62,-11,8,5,2,-12,3
14:09:37:952647,13,-62,-11,8,5,2,-12,3
14:09:37:953249,30,-5,-5,28,4,6,9,8
14:09:37:966888,-5,55,42,4,-1,-9,-16,-20
14:09:37:974976,-5,55,42,4,-1,-9,-16,-20
14:09:37:975855,3,-16,-3,-9,2,8,6,17
14:09:37:981876,15,27,24,9,-1,3,-2,0
14:09:37:989361,15,27,24,9,-1,3,-2,0
14:09:37:996775,13,15,31,21,11,16,23,-7
14:09:38:4228,-7,2,18,-14,-4,-8,-37,-23
14:09:38:12612,-7,2,18,-14,-4,-8,-37,-23
14:09:38:13355,-49,-18,-66,-15,-4,-2,10,-12
14:09:38:26856,6,-22,1,-8,-7,-4,6,12
14:09:38:35005,6,-22,1,-8,-7,-4,6,12
14:09:38:35846,7,2,7,-6,-6,-5,4,9
14:09:38:41724,-1,36,50,15,-1,-1,23,14
14:09:38:49336,-1,36,50,15,-1,-1,23,14
14:09:38:56853,12,-21,-24,-26,-9,-8,-12,-6
14:09:38:64230,31,40,-2,1,-4,-18,-29,-22
14:09:38:72614,31,40,-2,1,-4,-18,-29,-22
14:09:38:73351,-11,-29,36,7,-5,-9,-28,-22
14:09:38:86725,10,-18,-30,-28,-20,-5,-8,7
14:09:38:94991,10,-18,-30,-28,-20,-5,-8,7
14:09:38:95859,9,-39,23,11,-6,-8,-16,18
14:09:38:109976,-27,-17,-25,-2,5,6,27,2
14:09:38:110832,-27,-17,-25,-2,5,6,27,2
14:09:38:116730,-14,36,6,-12,-1,-5,-6,7
14:09:38:124217,-40,-55,-90,-28,-4,1,-28,-14
14:09:38:132643,-40,-55,-90,-28,-4,1,-28,-14
14:09:38:133361,21,44,10,12,8,-1,-10,-14
14:09:38:155735,-11,16,8,12,4,10,17,5
14:09:38:156607,-11,16,8,12,4,10,17,5
14:09:38:157353,-11,-9,-49,-12,6,2,-11,-19
14:09:38:161857,-5,2,-19,1,-6,7,9,13
14:09:38:169356,-5,2,-19,1,-6,7,9,13
14:09:38:176872,-15,16,-9,-6,-5,-9,-10,-3
14:09:38:184374,3,22,35,2,-3,-16,-7,11
14:09:38:193227,3,22,35,2,-3,-16,-7,11
14:09:38:193977,-2,-32,-17,-2,0,10,19,6
14:09:38:206861,0,-14,-26,-16,1,-4,-9,-12
14:09:38:214977,0,-14,-26,-16,1,-4,-9,-12
14:09:38:215870,13,21,26,13,8,7,26,11
14:09:38:221867,6,-12,14,3,5,-4,-23,-11
14:09:38:229362,6,-12,14,3,5,-4,-23,-11
14:09:38:236865,-2,-5,9,3,6,6,25,7
14:09:38:244258,-6,-17,-26,-8,4,11,0,1
14:09:38:252654,-6,-17,-26,-8,4,11,0,1
14:09:38:253372,-13,-47,-43,-9,-6,-10,-29,-9
14:09:38:266891,12,0,-11,4,5,-9,9,-27
14:09:38:274990,12,0,-11,4,5,-9,9,-27
14:09:38:275865,27,65,46,14,0,-1,12,17
14:09:38:281826,5,40,31,20,4,3,-16,-9
14:09:38:289370,5,40,31,20,4,3,-16,-9
14:09:38:296866,2,15,25,14,7,7,32,15
14:09:38:304351,11,-20,28,2,-4,-1,-11,17
14:09:38:312636,11,-20,28,2,-4,-1,-11,17
14:09:38:313377,2,-29,-20,-12,-9,-14,-21,-14
14:09:38:326770,-24,-20,-12,-15,6,-1,8,3
14:09:38:335484,-24,-20,-12,-15,6,-1,8,3
14:09:38:342471,-9,-3,-10,1,-4,4,-2,4
14:09:38:343255,10,1,-1,10,-1,-12,-33,21
14:09:38:349390,10,1,-1,10,-1,-12,-33,21
14:09:38:356859,-12,0,6,-13,0,-6,-14,13
14:09:38:364369,17,35,14,2,-4,8,38,31
14:09:38:372609,17,35,14,2,-4,8,38,31
14:09:38:373365,-10,34,7,-1,-8,-6,-23,2
14:09:38:387271,18,-48,-54,-29,-11,2,31,9
14:09:38:394972,18,-48,-54,-29,-11,2,31,9
14:09:38:395835,21,-9,-21,3,9,7,2,-8
14:09:38:401864,-18,-12,21,11,-1,7,18,15
14:09:38:409347,-18,-12,21,11,-1,7,18,15
14:09:38:416854,15,0,1,4,-5,-4,-8,-12
14:09:38:433241,-19,4,31,14,-2,1,10,9
14:09:38:433984,-19,4,31,14,-2,1,10,9
14:09:38:434890,-1,7,36,8,-2,-2,-5,-19
14:09:38:446763,27,45,43,11,0,0,-18,-35
14:09:38:455004,27,45,43,11,0,0,-18,-35
14:09:38:455905,-5,-29,1,2,-2,-7,17,31
14:09:38:461882,-27,-26,-39,6,6,-3,-13,-7
14:09:38:477605,-27,-26,-39,6,6,-3,-13,-7
14:09:38:478340,-2,-14,-19,-24,-10,-5,5,0
14:09:38:484399,-3,22,20,6,0,-7,7,-35
14:09:38:492631,-3,22,20,6,0,-7,7,-35
14:09:38:493368,-11,9,-24,-41,-2,8,21,16
14:09:38:506733,-20,-31,19,-1,-8,-19,-27,-27
14:09:38:515036,-20,-31,19,-1,-8,-19,-27,-27
14:09:38:515844,12,15,-5,-14,-2,7,17,-11
14:09:38:521855,48,47,-26,-10,4,3,0,23
14:09:38:529351,48,47,-26,-10,4,3,0,23
14:09:38:536865,0,-13,-30,-12,9,4,-5,28
14:09:38:544346,-24,-19,22,13,-8,-3,11,-10
14:09:38:552598,-24,-19,22,13,-8,-3,11,-10
14:09:38:553339,-23,-2,-21,-20,-17,-5,13,-25
14:09:38:566888,26,61,22,6,5,3,-31,-15
14:09:38:574995,26,61,22,6,5,3,-31,-15
14:09:38:575861,-62,-7,9,14,10,8,-17,-21
14:09:38:581870,2,-21,16,-9,-8,-10,-10,-8
14:09:38:589383,2,-21,16,-9,-8,-10,-10,-8
14:09:38:596855,17,-42,-27,-3,-9,-3,14,5
14:09:38:604353,0,20,3,0,12,14,17,46
14:09:38:612500,0,20,3,0,12,14,17,46
14:09:38:613367,-29,2,0,-21,-13,-6,-13,-32
14:09:38:626835,-17,3,-16,-8,1,-14,2,0
14:09:38:635084,-17,3,-16,-8,1,-14,2,0
14:09:38:635853,9,-34,59,0,5,-3,-5,-2
14:09:38:641876,-5,-39,-87,-21,-5,0,-7,-12
14:09:38:649371,-5,-39,-87,-21,-5,0,-7,-12
14:09:38:665017,9,31,22,37,9,-6,2,5
14:09:38:665703,-1,-22,12,-1,-5,7,7,-33
14:09:38:672476,-1,-22,12,-1,-5,7,7,-33
14:09:38:673353,51,-35,-35,6,4,3,0,29
14:09:38:686864,-3,-21,-33,-20,-16,-9,4,16
14:09:38:695011,-3,-21,-33,-20,-16,-9,4,16
14:09:38:695883,-30,7,4,17,2,7,15,-3
14:09:38:710509,-49,-19,41,-4,15,6,-3,-17
14:09:38:711392,-49,-19,41,-4,15,6,-3,-17
14:09:38:716857,22,72,20,29,-5,-7,-11,27
14:09:38:724377,-18,-8,3,18,-8,-12,-54,-14
14:09:38:731877,-18,-8,3,18,-8,-12,-54,-14
14:09:38:739379,11,-5,4,8,6,-5,-32,-44
14:09:38:746905,21,-1,-8,-9,4,3,6,-10
14:09:38:754987,21,-1,-8,-9,4,3,6,-10
14:09:38:755865,3,-27,-9,-2,-10,0,-7,5
14:09:38:769975,21,-2,-5,-8,6,4,8,16
14:09:38:770835,21,-2,-5,-8,6,4,8,16
14:09:38:776874,-35,-26,9,-5,8,6,0,-13
14:09:38:784359,32,19,21,16,1,9,35,53
14:09:38:791881,32,19,21,16,1,9,35,53
14:09:38:799347,26,23,10,10,9,-4,20,-9
14:09:38:806867,8,40,-10,-9,-8,-18,-37,14
14:09:38:815004,8,40,-10,-9,-8,-18,-37,14
14:09:38:815845,-4,5,-92,-45,-5,0,3,2
14:09:38:830001,-9,-26,-27,-6,8,16,27,16
14:09:38:830882,-9,-26,-27,-6,8,16,27,16
14:09:38:836885,-2,18,21,-14,-1,-2,-18,-6
14:09:38:844351,26,43,44,26,-5,-15,-16,12
14:09:38:851872,26,43,44,26,-5,-15,-16,12
14:09:38:859222,-19,-9,43,29,21,12,24,-14
14:09:38:866760,-24,-17,29,-11,-12,0,2,-7
14:09:38:875001,-24,-17,29,-11,-12,0,2,-7
14:09:38:875849,-16,-41,-27,-18,-11,-2,22,29
14:09:38:890008,28,3,-62,1,0,-3,-11,-64
14:09:38:890887,28,3,-62,1,0,-3,-11,-64
14:09:38:896748,10,21,68,27,1,-2,-13,-12
14:09:38:904259,-11,-70,-54,-17,-8,9,35,13
14:09:38:911859,-11,-70,-54,-17,-8,9,35,13
14:09:38:919232,11,-12,-49,-3,-8,3,35,25
14:09:38:926723,-8,-17,15,9,-1,0,3,-5
14:09:38:942477,-8,-17,15,9,-1,0,3,-5
14:09:38:943334,7,-4,55,19,-9,-28,-6,8
14:09:38:950004,-2,-13,-31,-9,1,11,16,12
14:09:38:950882,-2,-13,-31,-9,1,11,16,12
14:09:38:956863,-14,50,69,7,-11,-9,-21,15
14:09:38:964233,-52,-26,-22,16,10,6,14,-4
14:09:38:971839,-52,-26,-22,16,10,6,14,-4
14:09:38:987541,11,4,-3,-25,-4,1,-26,-11
14:09:38:988256,8,42,54,-10,-6,7,32,13
14:09:38:995029,8,42,54,-10,-6,7,32,13
14:09:38:995887,-1,22,-9,5,12,10,18,-33
14:09:39:9985,1,17,91,16,11,0,-11,-14
14:09:39:10890,1,17,91,16,11,0,-11,-14
14:09:39:16766,-10,-34,-16,-2,-16,-7,-8,-16
14:09:39:24234,14,-39,-26,1,8,15,27,13
14:09:39:31874,14,-39,-26,1,8,15,27,13
14:09:39:39406,23,21,62,7,6,13,26,53
14:09:39:46765,-14,-1,18,-11,-12,-9,-22,-4
14:09:39:55020,-14,-1,18,-11,-12,-9,-22,-4
14:09:39:55887,-23,-30,-43,-16,4,-1,31,-15
14:09:39:69975,11,21,0,5,5,-2,14,64
14:09:39:70861,11,21,0,5,5,-2,14,64
14:09:39:76867,-58,-32,48,0,2,-5,-12,-29
14:09:39:84372,6,-4,39,23,10,1,-20,-5
14:09:39:91852,6,-4,39,23,10,1,-20,-5
14:09:39:107496,29,12,4,-3,3,1,-8,-16
14:09:39:108230,-7,-1,-25,-18,-14,-12,7,-26
14:09:39:114984,-7,-1,-25,-18,-14,-12,7,-26
14:09:39:115869,0,4,-31,-27,-4,7,-14,-5
14:09:39:130026,1,-23,-3,3,-5,3,-2,7
14:09:39:130902,1,-23,-3,3,-5,3,-2,7
14:09:39:136866,36,34,-28,-6,1,1,0,33
14:09:39:144254,1,68,32,7,-1,-13,-17,-29
14:09:39:151857,1,68,32,7,-1,-13,-17,-29
14:09:39:159382,17,-59,-36,-32,-16,-8,-30,-11
14:09:39:166885,4,-8,-97,-30,-9,1,-10,-45
14:09:39:174978,4,-8,-97,-30,-9,1,-10,-45
14:09:39:175840,36,3,36,39,9,14,25,29
14:09:39:189978,38,20,67,24,-7,-15,-26,-18
14:09:39:190881,38,20,67,24,-7,-15,-26,-18
14:09:39:196868,0,-15,-36,0,-2,5,0,30
14:09:39:212493,-6,82,61,11,19,9,-21,18
14:09:39:213362,-6,82,61,11,19,9,-21,18
14:09:39:219244,3,8,11,8,1,-15,-10,-18
14:09:39:226738,-7,33,-20,-3,2,2,16,-12
14:09:39:234988,-7,33,-20,-3,2,2,16,-12
14:09:39:235863,-18,3,0,-11,-11,-35,-64,-38
14:09:39:249999,-28,-128,-106,-59,-16,6,12,-14
14:09:39:250868,-28,-128,-106,-59,-16,6,12,-14
14:09:39:264995,-18,42,2,2,6,8,-13,-20
14:09:39:265749,-39,-79,-29,-3,-12,-16,13,-10
14:09:39:271865,-39,-79,-29,-3,-12,-16,13,-10
14:09:39:279257,-5,20,44,13,-3,-14,-20,-18
14:09:39:295608,-48,-65,-35,-20,1,4,-11,-13
14:09:39:296486,-48,-65,-35,-20,1,4,-11,-13
14:09:39:297231,5,15,-33,13,14,24,83,12
14:09:39:310016,27,57,-72,-29,-13,-17,-7,16
14:09:39:310859,27,57,-72,-29,-13,-17,-7,16
14:09:39:316878,23,21,6,6,-2,6,-21,-18
14:09:39:324351,-13,-24,43,32,19,16,-12,-43
14:09:39:331886,-13,-24,43,32,19,16,-12,-43
14:09:39:339241,-20,26,22,3,-4,-6,27,33
14:09:39:346866,15,17,43,27,12,-12,-15,0
14:09:39:354979,15,17,43,27,12,-12,-15,0
14:09:39:355846,-75,-20,-56,-36,-14,4,-24,-5
14:09:39:370008,-26,-61,-68,-9,-5,-12,-10,-13
14:09:39:370868,-26,-61,-68,-9,-5,-12,-10,-13
14:09:39:376726,35,3,9,6,-5,-21,-46,-1
14:09:39:384244,-13,-19,-84,-33,-3,-6,-30,-39
14:09:39:391837,-13,-19,-84,-33,-3,-6,-30,-39
14:09:39:399239,-7,-69,-35,-9,-21,-18,4,41
14:09:39:406740,18,-31,110,38,11,6,26,31
14:09:39:415013,18,-31,110,38,11,6,26,31
14:09:39:415864,3,-16,-6,2,2,16,19,-6
14:09:39:429997,21,101,54,5,-6,-36,-5,44
14:09:39:430876,21,101,54,5,-6,-36,-5,44
14:09:39:436735,-6,-55,-36,-1,23,13,6,43
14:09:39:444250,16,23,32,-14,-7,10,-2,17
14:09:39:451851,16,23,32,-14,-7,10,-2,17
14:09:39:459343,8,26,-25,1,-7,-4,-7,-23
14:09:39:466749,-31,-26,17,-20,-10,-4,16,55
14:09:39:474990,-31,-26,17,-20,-10,-4,16,55
14:09:39:475874,-38,-98,-39,-26,-8,-7,11,29
14:09:39:490007,37,60,40,44,11,22,13,0
14:09:39:490887,37,60,40,44,11,22,13,0
14:09:39:496861,18,-17,8,12,-6,-11,1,-25
14:09:39:504263,8,52,-39,14,-7,9,14,36
14:09:39:511864,8,52,-39,14,-7,9,14,36
14:09:39:527511,5,19,26,21,14,1,-3,-26
14:09:39:528239,4,-4,26,4,-9,-6,23,-30
14:09:39:535505,4,-4,26,4,-9,-6,23,-30
14:09:39:541865,50,35,-17,-6,7,12,-16,-29
14:09:39:549992,21,-32,47,6,4,6,-6,7
14:09:39:550844,21,-32,47,6,4,6,-6,7
14:09:39:556882,-40,-50,-28,-5,-15,-7,-1,8
14:09:39:564337,-31,-46,-86,-27,-4,6,-15,-83
14:09:39:571865,-31,-46,-86,-27,-4,6,-15,-83
14:09:39:579369,25,72,69,5,-1,4,12,-12
14:09:39:586862,24,35,8,20,-1,4,-13,19
14:09:39:594988,24,35,8,20,-1,4,-13,19
14:09:39:595838,-62,77,67,1,8,16,0,-24
14:09:39:609987,-9,-14,26,-16,-11,-13,10,-8
14:09:39:610864,-9,-14,26,-16,-11,-13,10,-8
14:09:39:616864,10,-49,86,16,3,4,10,-15
14:09:39:624390,0,10,-26,2,3,10,18,15
14:09:39:631898,0,10,-26,2,3,10,18,15
14:09:39:639257,19,4,-48,6,0,-14,43,7
14:09:39:646851,8,48,37,19,16,10,39,-10
14:09:39:654369,8,48,37,19,16,10,39,-10
14:09:39:661757,9,41,-119,-35,-4,-15,-24,-2
14:09:39:669989,-9,-51,-7,-20,1,-9,-16,-3
14:09:39:670889,-9,-51,-7,-20,1,-9,-16,-3
14:09:39:676883,-37,-4,47,19,2,-7,-68,-25
14:09:39:692499,14,54,-48,-28,-12,-25,-82,38
14:09:39:693353,14,54,-48,-28,-12,-25,-82,38
14:09:39:699227,19,-25,45,12,-3,-18,-34,20
14:09:39:706723,-26,-18,-9,2,2,-2,-32,-55
14:09:39:714371,-26,-18,-9,2,2,-2,-32,-55
14:09:39:721884,2,43,2,-1,-6,-9,11,-11
14:09:39:730003,-2,-43,20,-16,-3,14,21,17
14:09:39:730855,-2,-43,20,-16,-3,14,21,17
14:09:39:736861,7,-18,56,-4,6,29,59,8
14:09:39:752513,46,27,47,21,6,-1,6,-6
14:09:39:753358,46,27,47,21,6,-1,6,-6
14:09:39:759226,0,50,-9,-24,1,6,3,12
14:09:39:766904,-4,91,63,10,8,-10,-30,3
14:09:39:774377,-4,91,63,10,8,-10,-30,3
14:09:39:781901,46,-17,-37,-2,-2,-4,-17,-9
14:09:39:789976,-30,64,39,9,-5,11,26,-16
14:09:39:790846,-30,64,39,9,-5,11,26,-16
14:09:39:796902,-10,24,-41,-15,-1,2,63,-13
14:09:39:812634,-38,-84,-27,-26,-2,-15,11,-9
14:09:39:813360,-38,-84,-27,-26,-2,-15,11,-9
14:09:39:819374,-44,-93,-97,-41,-17,0,2,-10
14:09:39:826885,-14,-14,-2,5,-5,-18,0,30
14:09:39:834407,-14,-14,-2,5,-5,-18,0,30
14:09:39:841886,-37,5,8,15,-1,-6,-24,-35
14:09:39:850000,38,-17,-48,-18,-12,-15,-59,-27
14:09:39:850866,38,-17,-48,-18,-12,-15,-59,-27
14:09:39:856858,6,28,15,12,-1,21,42,16
14:09:39:872492,-16,-99,-97,-31,-4,18,26,16
14:09:39:873387,-16,-99,-97,-31,-4,18,26,16
14:09:39:879368,-37,23,-1,-13,-1,-12,-27,15
14:09:39:886892,4,-65,-86,-19,0,-2,-3,-24
14:09:39:894362,4,-65,-86,-19,0,-2,-3,-24
14:09:39:901765,67,-23,-35,-7,-7,-3,-13,65
14:09:39:910009,-8,22,39,31,21,15,22,-10
14:09:39:910871,-8,22,39,31,21,15,22,-10
14:09:39:916736,38,37,82,43,1,-33,-36,33
14:09:39:932500,-13,-8,71,7,16,7,1,-7
14:09:39:933381,-13,-8,71,7,16,7,1,-7
14:09:39:939261,-46,-67,-42,6,-28,-15,-21,-31
14:09:39:946870,4,-23,17,14,-11,-4,-86,-38
14:09:39:954393,4,-23,17,14,-11,-4,-86,-38
14:09:39:961740,5,-22,-46,-3,21,17,5,16
14:09:39:970016,-3,-6,16,-6,-7,-15,-41,-1
14:09:39:970887,-3,-6,16,-6,-7,-15,-41,-1
14:09:39:976891,-25,-16,-74,-52,-5,4,-18,-43
14:09:39:992501,12,96,67,13,7,19,59,15
14:09:39:993385,12,96,67,13,7,19,59,15
14:09:39:999251,20,5,29,-9,-2,-11,22,2
14:09:40:6766,-1,0,-14,-6,5,4,6,20
14:09:40:14361,-1,0,-14,-6,5,4,6,20
14:09:40:21922,72,-59,-4,-26,1,0,-21,25
14:09:40:30021,14,-7,-46,-12,-16,-13,44,1
14:09:40:30866,14,-7,-46,-12,-16,-13,44,1
14:09:40:36889,-9,31,127,38,13,21,-9,-4
14:09:40:52495,31,58,4,-2,1,9,1,-11
14:09:40:53366,31,58,4,-2,1,9,1,-11
14:09:40:59392,11,-28,44,28,13,7,-31,-9
14:09:40:66777,15,51,37,1,-21,-7,-2,8
14:09:40:74366,15,51,37,1,-21,-7,-2,8
14:09:40:81868,-69,-45,-20,7,0,3,-12,-4
14:09:40:89998,-15,-45,16,26,4,0,43,-10
14:09:40:90873,-15,-45,16,26,4,0,43,-10
14:09:40:96878,28,85,40,31,24,26,-7,61
14:09:40:112641,61,63,-48,-29,5,-3,-33,39
14:09:40:113364,61,63,-48,-29,5,-3,-33,39
14:09:40:119367,-20,10,12,-1,-20,-15,25,-14
14:09:40:126894,-64,-29,40,6,12,-15,-64,-44
14:09:40:134381,-64,-29,40,6,12,-15,-64,-44
14:09:40:141870,1,-29,58,42,26,10,4,-3
14:09:40:149997,12,-114,-114,-25,-45,-24,-2,-3
14:09:40:150880,12,-114,-114,-25,-45,-24,-2,-3
14:09:40:156750,-31,-49,-22,-28,-12,-20,-28,-35
14:09:40:172510,-91,91,47,12,4,-20,13,62
14:09:40:173376,-91,91,47,12,4,-20,13,62
14:09:40:179370,20,78,-11,-13,-8,8,21,-51
14:09:40:186877,3,-21,31,14,33,32,59,-27
14:09:40:194376,3,-21,31,14,33,32,59,-27
14:09:40:201755,-2,46,26,-19,-11,-41,7,5
14:09:40:209984,-27,-75,-50,-24,-19,-14,-1,-27
14:09:40:210894,-27,-75,-50,-24,-19,-14,-1,-27
14:09:40:216737,14,-46,-25,-26,-10,-10,7,-45
14:09:40:232523,-19,43,78,36,31,34,10,95
14:09:40:233367,-19,43,78,36,31,34,10,95
14:09:40:239286,-7,-2,-43,-29,18,21,2,-6
14:09:40:246776,-6,40,8,-8,-22,-7,-32,-10
14:09:40:254379,-6,40,8,-8,-22,-7,-32,-10
14:09:40:261755,5,27,-8,8,-5,-18,-9,86
14:09:40:270004,1,35,-1,14,9,29,-9,11
14:09:40:270881,1,35,-1,14,9,29,-9,11
14:09:40:276739,-5,51,26,1,-21,-31,-33,-36
14:09:40:292656,-5,51,26,1,-21,-31,-33,-36
14:09:40:293253,5,-82,-108,-65,-9,-9,-3,-25
14:09:40:299248,1,10,8,27,0,17,30,8
14:09:40:315010,1,10,8,27,0,17,30,8
14:09:40:315881,-13,-23,25,-7,-31,-26,-65,-26
14:09:40:321773,-8,-65,-1,12,7,24,37,45
14:09:40:330026,-8,-65,-1,12,7,24,37,45
14:09:40:330892,-42,-2,-6,-6,-3,-13,-4,-62
14:09:40:336790,-8,-4,-18,-7,-13,-10,-1,8
14:09:40:352550,-8,-4,-18,-7,-13,-10,-1,8
14:09:40:353405,59,68,45,55,40,20,32,18
14:09:40:359261,-66,-80,-63,-27,-7,4,3,-13
14:09:40:374975,-66,-80,-63,-27,-7,4,3,-13
14:09:40:375885,33,10,-3,0,-19,-15,-27,-2
14:09:40:381881,68,14,4,18,37,4,20,-6
14:09:40:389977,68,14,4,18,37,4,20,-6
14:09:40:390888,-29,-20,-87,-36,-8,7,35,37
14:09:40:396777,31,63,-62,-24,-33,-27,-13,49
14:09:40:412510,31,63,-62,-24,-33,-27,-13,49
14:09:40:413373,26,-39,-66,-7,-2,12,26,0
14:09:40:419241,-35,23,51,-6,9,9,2,-7
14:09:40:435026,-35,23,51,-6,9,9,2,-7
14:09:40:435744,6,9,47,27,8,-13,-26,2
14:09:40:441888,-24,47,32,29,-2,8,22,24
14:09:40:449985,-24,47,32,29,-2,8,22,24
14:09:40:450873,27,14,53,12,-8,-3,57,112
14:09:40:456769,12,-53,-50,0,3,10,-42,-90
14:09:40:472490,12,-53,-50,0,3,10,-42,-90
14:09:40:473364,7,49,-37,-13,-13,-38,-2,-44
14:09:40:479375,-24,-21,-14,7,21,14,-21,-27
14:09:40:495001,-24,-21,-14,7,21,14,-21,-27
14:09:40:495879,2,-98,-43,-19,-9,-23,-36,-18
14:09:40:501865,0,11,63,-6,-39,-2,29,-39
14:09:40:509995,0,11,63,-6,-39,-2,29,-39
14:09:40:510879,-23,67,110,45,48,56,70,-12
14:09:40:516866,-28,-41,-25,-15,11,10,4,11
14:09:40:532511,-28,-41,-25,-15,11,10,4,11
14:09:40:533237,50,26,72,18,10,32,53,22
14:09:40:539385,15,25,19,-7,-16,10,-16,46
14:09:40:554999,15,25,19,-7,-16,10,-16,46
14:09:40:555872,-32,-23,-21,-34,-2,-1,-16,-26
14:09:40:561871,18,9,-80,5,9,7,74,22
14:09:40:570019,18,9,-80,5,9,7,74,22
14:09:40:570749,5,12,-68,5,-9,15,11,-18
14:09:40:576859,-15,8,42,1,-2,-30,-27,8
14:09:40:592631,-15,8,42,1,-2,-30,-27,8
14:09:40:593355,-82,-102,-69,-22,10,5,-19,15
14:09:40:599383,-8,-64,-21,-26,-25,-28,-2,-44
14:09:40:614995,-8,-64,-21,-26,-25,-28,-2,-44
14:09:40:615851,-27,34,63,0,-19,-33,-90,-17
14:09:40:621886,13,19,-14,14,20,26,-35,38
14:09:40:629995,13,19,-14,14,20,26,-35,38
14:09:40:630877,13,-20,-76,-10,-4,-20,-30,10
14:09:40:644266,-6,44,127,-3,-15,-33,-35,-24
14:09:40:652650,-6,44,127,-3,-15,-33,-35,-24
14:09:40:653380,32,-11,57,-4,5,4,-10,18
14:09:40:659377,-7,-60,-34,29,30,26,-30,-20
14:09:40:675027,-7,-60,-34,29,30,26,-30,-20
14:09:40:675879,1,32,16,-12,-39,-33,2,-16
14:09:40:681754,2,25,3,9,13,30,86,47
14:09:40:689989,2,25,3,9,13,30,86,47
14:09:40:690886,26,5,-6,-1,10,9,-2,57
14:09:40:704283,-10,-1,24,-25,-34,-27,-35,-18
14:09:40:712685,-10,-1,24,-25,-34,-27,-35,-18
14:09:40:713388,32,40,26,8,11,-4,23,16
14:09:40:719284,10,24,-13,-5,15,2,13,-16
14:09:40:734766,10,24,-13,-5,15,2,13,-16
14:09:40:742509,-7,-33,49,-6,-19,2,62,-81
14:09:40:743256,32,-3,10,22,3,-16,-75,8
14:09:40:750012,32,-3,10,22,3,-16,-75,8
14:09:40:750892,-33,-51,-59,-35,6,10,-49,-29
14:09:40:764251,9,8,-1,-26,-30,-25,-16,-4
14:09:40:772519,9,8,-1,-26,-30,-25,-16,-4
14:09:40:773363,-23,-83,-60,3,9,3,22,3
14:09:40:779281,26,7,56,24,17,26,-13,89
14:09:40:795041,26,7,56,24,17,26,-13,89
14:09:40:795884,24,77,35,5,-16,-16,-34,-67
14:09:40:801758,-29,35,-13,12,32,13,-15,-28
14:09:40:810021,-29,35,-13,12,32,13,-15,-28
14:09:40:810891,-12,-12,-11,-16,1,-6,41,30
14:09:40:824415,33,-17,2,10,-28,-11,10,-32
14:09:40:832513,33,-17,2,10,-28,-11,10,-32
14:09:40:833381,1,42,75,35,-17,-31,21,-1
14:09:40:839263,-22,55,-1,-4,20,10,-16,-9
14:09:40:855039,-22,55,-1,-4,20,10,-16,-9
14:09:40:855897,11,10,-11,6,-10,-16,-26,-51
14:09:40:861879,27,10,-17,1,1,-1,30,-33
14:09:40:870028,27,10,-17,1,1,-1,30,-33
14:09:40:870894,2,-63,-65,-28,-3,24,34,-4
14:09:40:884371,-9,-116,-55,-11,19,23,84,47
14:09:40:892505,-9,-116,-55,-11,19,23,84,47
14:09:40:893394,3,1,16,32,1,-4,-33,32
14:09:40:899407,34,68,-25,3,-17,-11,59,8
14:09:40:915005,34,68,-25,3,-17,-11,59,8
14:09:40:915736,-4,88,30,21,21,7,4,93
14:09:40:921886,8,-27,-70,-43,-22,-31,-53,-5
14:09:40:930029,8,-27,-70,-43,-22,-31,-53,-5
14:09:40:930753,5,19,-60,1,40,51,-15,1
14:09:40:944412,-21,73,99,12,-26,-47,-38,2
14:09:40:952528,-21,73,99,12,-26,-47,-38,2
14:09:40:953371,-2,-17,13,-20,-5,9,-7,-49
14:09:40:959377,-12,-11,-72,-41,-6,9,0,-57
14:09:40:975000,-12,-11,-72,-41,-6,9,0,-57
14:09:40:975870,-79,-58,53,1,-42,-21,8,46
14:09:40:981894,-48,-90,-2,-6,25,11,-50,16
14:09:40:990003,-48,-90,-2,-6,25,11,-50,16
14:09:40:990902,49,-68,-67,-28,-3,6,30,28
14:09:41:4371,-34,1,53,4,16,8,32,-14
14:09:41:12644,-34,1,53,4,16,8,32,-14
14:09:41:13381,19,10,31,36,30,27,33,-32
14:09:41:19396,19,-41,75,3,5,-21,-78,-33
14:09:41:35029,19,-41,75,3,5,-21,-78,-33
14:09:41:35914,-16,0,18,11,-7,14,-6,-6
14:09:41:41887,39,40,13,29,-7,-22,-18,-24
14:09:41:50028,39,40,13,29,-7,-22,-18,-24
14:09:41:50750,39,-2,-63,-36,-25,-47,-65,-78
14:09:41:64390,-88,-67,47,-17,-26,18,-19,-69
14:09:41:72651,-88,-67,47,-17,-26,18,-19,-69
14:09:41:73383,-29,-38,61,55,27,10,10,7
14:09:41:79372,38,57,35,5,-27,1,61,30
14:09:41:95017,38,57,35,5,-27,1,61,30
14:09:41:95882,-44,-33,48,24,42,20,7,1
14:09:41:101741,24,18,-57,-31,5,26,59,44
14:09:41:109755,24,18,-57,-31,5,26,59,44
14:09:41:116893,44,65,-35,4,-9,9,77,53
14:09:41:124390,8,-2,-34,-20,15,11,-4,-10
14:09:41:132483,8,-2,-34,-20,15,11,-4,-10
14:09:41:133237,-40,36,95,23,1,-27,-65,-34
14:09:41:139355,14,69,58,69,-19,-13,-12,-1
14:09:41:154987,14,69,58,69,-19,-13,-12,-1
14:09:41:155879,40,-5,10,-18,-31,5,-35,53
14:09:41:161871,20,-57,-76,-10,7,7,17,82
14:09:41:169997,20,-57,-76,-10,7,7,17,82
14:09:41:170750,44,-11,21,-25,32,14,28,26
14:09:41:193142,-24,-29,-92,-45,-20,-25,-10,19
14:09:41:194000,-24,-29,-92,-45,-20,-25,-10,19
14:09:41:194757,-20,-32,-50,15,18,-12,4,12
14:09:41:199259,-37,-23,50,33,31,26,8,-54
14:09:41:214994,-37,-23,50,33,31,26,8,-54
14:09:41:215886,-27,-3,-88,-38,-30,-35,-10,3
14:09:41:221761,3,74,15,-25,-34,-46,-28,16
14:09:41:230020,3,74,15,-25,-34,-46,-28,16
14:09:41:230865,3,-25,24,18,25,12,0,-49
14:09:41:253167,-8,-48,-23,-21,-47,-8,-9,-1
14:09:41:254062,-8,-48,-23,-21,-47,-8,-9,-1
14:09:41:254755,15,-46,41,-13,-32,-12,23,39
14:09:41:259386,-21,41,59,45,29,19,-3,-57
14:09:41:275009,-21,41,59,45,29,19,-3,-57
14:09:41:275873,-27,-42,-103,-29,-49,-17,19,-14
14:09:41:281891,1,-80,-73,-4,34,6,63,1
14:09:41:290034,1,-80,-73,-4,34,6,63,1
14:09:41:290766,16,57,8,-18,-38,-72,-36,-9
14:09:41:304382,9,-51,-17,13,48,33,-31,36
14:09:41:312538,9,-51,-17,13,48,33,-31,36
14:09:41:313256,-1,44,19,-5,-2,0,-26,-5
14:09:41:319374,17,51,19,-18,-20,-13,27,88
14:09:41:334997,17,51,19,-18,-20,-13,27,88
14:09:41:335875,-17,-23,13,-23,66,71,41,-29
14:09:41:341757,-28,51,73,16,-28,-17,-14,-35
14:09:41:350039,-28,51,73,16,-28,-17,-14,-35
14:09:41:350762,-55,-63,-33,4,-5,18,22,-40
14:09:41:364251,-5,19,-3,16,-2,-14,-1,-48
14:09:41:372646,-5,19,-3,16,-2,-14,-1,-48
14:09:41:373397,30,17,-36,-2,-13,2,25,-37
14:09:41:379273,-32,13,27,11,9,2,-58,-29
14:09:41:395520,-32,13,27,11,9,2,-58,-29
14:09:41:396381,-16,-15,-1,-3,-8,7,12,20
14:09:41:401762,21,-17,-55,-36,-1,-3,-28,-42
14:09:41:410014,21,-17,-55,-36,-1,-3,-28,-42
14:09:41:410881,16,33,36,35,12,1,-43,-49
14:09:41:424771,-3,28,36,27,30,5,-43,-21
14:09:41:432639,-3,28,36,27,30,5,-43,-21
14:09:41:433376,2,-31,-29,3,-14,-12,-10,32
14:09:41:439276,14,-77,-33,22,8,33,45,30
14:09:41:455056,14,-77,-33,22,8,33,45,30
14:09:41:455910,-8,55,51,19,10,3,-8,-24
14:09:41:461771,5,-10,7,-11,-12,-20,8,30
14:09:41:470044,5,-10,7,-11,-12,-20,8,30
14:09:41:470901,20,24,50,7,-4,-29,-6,-10
14:09:41:484254,33,48,-70,-19,-14,8,10,-2
14:09:41:492657,33,48,-70,-19,-14,8,10,-2
14:09:41:493259,6,13,-35,-27,3,-7,-38,3
14:09:41:499287,73,67,54,6,3,12,68,27
14:09:41:515026,73,67,54,6,3,12,68,27
14:09:41:515893,-19,-36,-30,-32,0,28,-45,35
14:09:41:521777,-4,-63,-87,-54,-14,13,87,44
14:09:41:529427,-4,-63,-87,-54,-14,13,87,44
14:09:41:536752,-6,20,2,-14,-19,-9,5,16
14:09:41:544259,-18,-14,20,-6,11,-2,-23,-3
14:09:41:552652,-18,-14,20,-6,11,-2,-23,-3
14:09:41:553383,20,8,-61,36,12,-3,-7,51
14:09:41:566804,-41,0,18,14,-6,-31,-64,-55
14:09:41:575381,-41,0,18,14,-6,-31,-64,-55
14:09:41:582518,-24,-7,-49,-32,-6,-4,12,0
14:09:41:583246,19,-55,-7,18,16,14,-4,57
14:09:41:589398,19,-55,-7,18,16,14,-4,57
14:09:41:596890,-6,31,5,-6,-16,-27,-41,-38
14:09:41:604396,-6,-7,15,-14,-7,18,1,12
14:09:41:612514,-6,-7,15,-14,-7,18,1,12
14:09:41:613254,-2,42,70,28,17,27,24,30
14:09:41:626760,-53,-9,39,18,8,-9,2,-27
14:09:41:635007,-53,-9,39,18,8,-9,2,-27
14:09:41:635884,-16,-24,-13,-6,-14,-9,-6,-22
14:09:41:641890,6,-1,-68,2,20,3,-32,-16
14:09:41:649385,6,-1,-68,2,20,3,-32,-16
14:09:41:656878,17,9,53,-15,1,-9,-18,32
14:09:41:664388,-22,-27,-23,-6,-1,-3,-17,-11
14:09:41:672537,-22,-27,-23,-6,-1,-3,-17,-11
14:09:41:673269,13,10,66,39,4,17,4,-15
14:09:41:686897,33,-40,-48,-21,-11,-26,-30,-40
14:09:41:695021,33,-40,-48,-21,-11,-26,-30,-40
14:09:41:695763,39,39,18,-9,-13,-28,7,-36
14:09:41:701907,9,14,35,6,-16,15,34,6
14:09:41:709404,9,14,35,6,-16,15,34,6
14:09:41:716779,1,49,25,0,29,23,15,28
14:09:41:724385,-21,-28,8,-1,-29,-33,-19,-16
14:09:41:732536,-21,-28,8,-1,-29,-33,-19,-16
14:09:41:733382,-4,-18,17,17,35,52,82,-1
14:09:41:746928,12,25,-13,1,-4,-11,-1,-28
14:09:41:755028,12,25,-13,1,-4,-11,-1,-28
14:09:41:755889,-6,-31,-34,-28,-20,-25,-17,-18
14:09:41:761765,4,-6,-12,0,-2,22,38,-16
14:09:41:769377,4,-6,-12,0,-2,22,38,-16
14:09:41:776815,-8,9,41,19,31,16,31,-8
14:09:41:784246,-1,20,4,8,-5,3,9,37
14:09:41:792651,-1,20,4,8,-5,3,9,37
14:09:41:793259,-10,-30,-59,-22,-21,-20,-20,-25
14:09:41:806755,10,7,25,9,12,7,-23,40
14:09:41:815074,10,7,25,9,12,7,-23,40
14:09:41:815897,-17,43,-12,-3,-16,-28,-65,-83
14:09:41:821787,-39,-62,-44,-2,6,-1,-18,-40
14:09:41:829419,-39,-62,-44,-2,6,-1,-18,-40
14:09:41:836770,-31,-21,-17,29,-6,5,4,36
14:09:41:844291,35,43,44,2,-6,-6,44,41
14:09:41:852646,35,43,44,2,-6,-6,44,41
14:09:41:853406,14,7,-6,12,10,-1,24,42
14:09:41:866786,-20,-14,-48,-48,-23,-9,-10,5
14:09:41:875024,-20,-14,-48,-48,-23,-9,-10,5
14:09:41:875889,35,-24,5,-1,-1,-3,15,52
14:09:41:881811,47,30,-17,-10,5,-14,3,44
14:09:41:889396,47,30,-17,-10,5,-14,3,44
14:09:41:905032,3,-38,-27,-15,1,23,-18,-22
14:09:41:905848,22,78,105,36,3,5,18,-37
14:09:41:912639,22,78,105,36,3,5,18,-37
14:09:41:913414,-2,41,34,23,3,2,12,-2
14:09:41:926768,-14,36,2,-16,-2,-3,-24,-13
14:09:41:935037,-14,36,2,-16,-2,-3,-24,-13
14:09:41:935909,-31,2,31,18,7,20,-2,-7
14:09:41:950045,6,-8,-10,3,7,4,14,48
14:09:41:950887,6,-8,-10,3,7,4,14,48
14:09:41:956805,20,-26,8,-28,-11,-25,-38,-71
14:09:41:964262,-24,-52,17,-10,-14,-12,-16,-31
14:09:41:972659,-24,-52,17,-10,-14,-12,-16,-31
14:09:41:973277,5,-50,-29,7,12,19,0,47
14:09:41:986752,-50,-15,-80,-60,-23,-4,-14,-27
14:09:41:995016,-50,-15,-80,-60,-23,-4,-14,-27
14:09:41:995882,-16,2,19,8,-5,-22,38,52
14:09:42:1752,-34,3,17,26,25,19,-5,-3
14:09:42:9373,-34,3,17,26,25,19,-5,-3
14:09:42:16800,-17,1,-86,-31,-13,-4,-20,-33
14:09:42:24257,38,35,26,13,9,3,10,39
14:09:42:32663,38,35,26,13,9,3,10,39
14:09:42:33390,-7,-47,9,0,23,-12,-20,-29
14:09:42:46780,9,32,32,19,-3,-3,24,36
14:09:42:55029,9,32,32,19,-3,-3,24,36
14:09:42:55891,15,0,54,9,24,28,23,-28
14:09:42:61755,-4,-62,45,11,-7,-20,-14,-73
14:09:42:69434,-4,-62,45,11,-7,-20,-14,-73
14:09:42:76890,3,-13,34,11,-2,9,28,7
14:09:42:84395,-4,-30,-48,-30,-9,1,-11,-4
14:09:42:92525,-4,-30,-48,-30,-9,1,-11,-4
14:09:42:93257,32,-3,18,-5,-34,-24,-18,-17
14:09:42:106777,-29,-50,-50,1,12,-4,-9,-38
14:09:42:115040,-29,-50,-50,1,12,-4,-9,-38
14:09:42:115873,57,29,-53,-17,-7,-7,-27,87
14:09:42:121888,1,-17,-17,0,24,23,-32,1
14:09:42:129423,1,-17,-17,0,24,23,-32,1
14:09:42:136892,-21,-56,-50,-17,-7,1,-3,-25
14:09:42:144378,30,36,48,16,-23,-10,12,-23
14:09:42:152524,30,36,48,16,-23,-10,12,-23
14:09:42:153253,16,-12,-16,5,13,9,35,18
14:09:42:166869,-4,-22,-49,-19,0,25,12,-1
14:09:42:175001,-4,-22,-49,-19,0,25,12,-1
14:09:42:175763,-35,-42,-11,-2,-10,-18,-34,-3
14:09:42:181870,10,-5,23,36,15,5,4,23
14:09:42:189400,10,-5,23,36,15,5,4,23
14:09:42:196758,1,60,25,11,-20,-15,18,50
14:09:42:204268,11,24,33,15,8,10,-18,2
14:09:42:212528,11,24,33,15,8,10,-18,2
14:09:42:213405,-26,68,24,6,-3,-18,-69,-20
14:09:42:227268,-6,28,-5,-13,-15,-23,-16,24
14:09:42:235003,-6,28,-5,-13,-15,-23,-16,24
14:09:42:235859,25,27,-2,-10,5,9,-5,-48
14:09:42:241769,-51,-22,-74,-5,2,4,12,-4
14:09:42:249410,-51,-22,-74,-5,2,4,12,-4
14:09:42:256800,8,25,-51,-16,-13,10,58,86
14:09:42:273154,5,-4,82,-7,-4,7,6,-5
14:09:42:274007,5,-4,82,-7,-4,7,6,-5
14:09:42:274753,15,7,-1,-6,22,25,21,-1
14:09:42:286908,16,-3,-13,-26,-32,-41,43,4
14:09:42:295054,16,-3,-13,-26,-32,-41,43,4
14:09:42:295777,-17,3,51,-1,-12,-18,7,-29
14:09:42:301919,17,73,-36,24,45,60,61,-16
14:09:42:317516,17,73,-36,24,45,60,61,-16
14:09:42:318252,-13,-27,13,-6,-28,-11,9,4
14:09:42:324408,23,6,-66,-30,-34,-29,-32,-13
14:09:42:332526,23,6,-66,-30,-34,-29,-32,-13
14:09:42:333258,-65,-52,-42,-2,38,23,35,18
14:09:42:346878,-23,-58,1,-40,-17,-14,-41,-24
14:09:42:363149,-23,-58,1,-40,-17,-14,-41,-24
14:09:42:364015,21,-59,-19,21,-22,-6,-27,-31
14:09:42:364748,-31,-15,-16,30,19,-11,31,75
14:09:42:369382,-31,-15,-16,30,19,-11,31,75
14:09:42:376789,-40,-4,-74,-55,-9,-28,-51,-26
14:09:42:384393,-9,22,-5,20,29,31,11,-36
14:09:42:392524,-9,22,-5,20,29,31,11,-36
14:09:42:393261,14,1,12,6,7,6,7,-7
14:09:42:407258,7,27,58,1,-37,-39,-51,19
14:09:42:415036,7,27,58,1,-37,-39,-51,19
14:09:42:415877,46,71,-44,-8,21,38,25,3
14:09:42:421916,-20,-7,29,34,25,7,29,12
14:09:42:429429,-20,-7,29,34,25,7,29,12
14:09:42:436893,5,-49,56,-9,-16,-10,-59,-29
14:09:42:444397,11,11,32,0,8,6,-15,-35
14:09:42:452520,11,11,32,0,8,6,-15,-35
14:09:42:453301,30,107,37,16,-17,-17,10,43
14:09:42:466911,-5,-9,24,-2,12,1,-24,37
14:09:42:475032,-5,-9,24,-2,12,1,-24,37
14:09:42:475768,20,35,31,11,10,16,-17,5
14:09:42:490075,8,11,35,-14,-34,-21,4,64
14:09:42:490906,8,11,35,-14,-34,-21,4,64
14:09:42:505044,-13,34,22,-3,5,3,-2,-22
14:09:42:505791,-40,1,-44,-4,17,-10,-4,-78
14:09:42:511912,-40,1,-44,-4,17,-10,-4,-78
14:09:42:519276,6,-10,-106,-40,-12,-23,-56,-13
14:09:42:526760,4,21,16,-1,6,10,-4,-11
14:09:42:535068,4,21,16,-1,6,10,-4,-11
14:09:42:535804,-7,12,27,12,21,6,6,-3
14:09:42:550040,26,-33,34,11,-7,-4,-40,7
14:09:42:550873,26,-33,34,11,-7,-4,-40,7
14:09:42:556777,-51,-72,37,8,-8,-9,18,19
14:09:42:564267,1,-24,-47,-14,19,7,0,4
14:09:42:571901,1,-24,-47,-14,19,7,0,4
14:09:42:579399,-24,5,41,21,-5,-10,2,40
14:09:42:595659,-17,2,18,11,1,8,-4,-18
14:09:42:596519,-17,2,18,11,1,8,-4,-18
14:09:42:597402,-21,-21,-17,-6,-20,-8,4,-22
14:09:42:610017,-12,-25,-31,-28,-42,-20,-8,-24
14:09:42:610887,-12,-25,-31,-28,-42,-20,-8,-24
14:09:42:616786,42,17,18,11,-8,7,-8,-22
14:09:42:624271,-31,24,42,13,5,10,-5,-38
14:09:42:640046,-31,24,42,13,5,10,-5,-38
14:09:42:640889,21,11,-32,-5,-4,-3,71,9
14:09:42:646809,75,16,-4,0,3,-5,21,58
14:09:42:655046,75,16,-4,0,3,-5,21,58
14:09:42:655891,25,18,-9,-5,-3,-11,-14,-14
14:09:42:670017,24,-7,2,-10,-18,7,-14,-66
14:09:42:670876,24,-7,2,-10,-18,7,-14,-66
14:09:42:684910,3,-65,-43,-4,7,8,43,3
14:09:42:685769,12,29,-17,-3,-4,-11,-13,-25
14:09:42:691887,12,29,-17,-3,-4,-11,-13,-25
14:09:42:699280,-52,-9,-13,-27,2,-2,9,66
14:09:42:706767,16,37,49,6,-8,2,57,48
14:09:42:715007,16,37,49,6,-8,2,57,48
14:09:42:715873,-50,-43,31,32,5,5,-8,-56
14:09:42:730024,3,48,47,3,2,-9,-12,6
14:09:42:730909,3,48,47,3,2,-9,-12,6
14:09:42:736752,25,60,-4,-23,-10,10,-18,3
14:09:42:744274,-36,-22,-47,8,13,10,-31,48
14:09:42:751914,-36,-22,-47,8,13,10,-31,48
14:09:42:759288,-2,-37,-52,-17,11,6,-38,-22
14:09:42:766795,-5,-16,15,-4,-32,-41,-33,-49
14:09:42:775042,-5,-16,15,-4,-32,-41,-33,-49
14:09:42:775913,-37,-10,48,37,31,23,33,51
14:09:42:790053,14,-1,-63,-18,-4,-10,-15,34
14:09:42:790879,14,-1,-63,-18,-4,-10,-15,34
14:09:42:796766,-18,-11,-10,4,-17,-42,-11,-33
14:09:42:812527,-70,-81,-79,-36,11,21,-4,4
14:09:42:813387,-70,-81,-79,-36,11,21,-4,4
14:09:42:819277,-13,-30,-13,-20,-14,-12,-23,-18
14:09:42:826764,0,-33,-32,-2,-13,18,69,-36
14:09:42:834991,0,-33,-32,-2,-13,18,69,-36
14:09:42:835893,-4,1,18,3,-13,-14,-42,-46
14:09:42:850422,-1,-72,-22,11,5,2,-23,16
14:09:42:857516,-1,-72,-22,11,5,2,-23,16
14:09:42:858387,36,33,39,19,34,39,37,31
14:09:42:872535,15,33,52,28,15,-5,-18,46
14:09:42:873390,15,33,52,28,15,-5,-18,46
14:09:42:879267,12,-20,-16,4,-6,-1,4,-6
14:09:42:886756,-13,-5,-65,-15,-16,-13,4,-14
14:09:42:895522,-13,-5,-65,-15,-16,-13,4,-14
14:09:42:901788,58,26,-51,7,31,45,61,33
14:09:42:918138,-1,59,45,5,0,4,27,18
14:09:42:919016,-1,59,45,5,0,4,27,18
14:09:42:919791,-32,42,22,-2,-22,-8,12,6
14:09:42:924258,13,-29,-13,6,25,-6,5,20
14:09:42:931892,13,-29,-13,6,25,-6,5,20
14:09:42:939271,-53,-39,-13,12,5,-16,-48,-59
14:09:42:955671,6,-19,34,1,-1,-10,-16,-42
14:09:42:962549,6,-19,34,1,-1,-10,-16,-42
14:09:42:963267,33,30,35,-4,5,-15,-14,-9
14:09:42:970026,11,-3,-60,-6,10,35,49,-12
14:09:42:970894,11,-3,-60,-6,10,35,49,-12
14:09:42:976789,13,-5,7,-2,-24,-23,5,-6
14:09:42:984310,-63,-51,-2,-9,-6,5,0,28
14:09:42:991904,-63,-51,-2,-9,-6,5,0,28
14:09:42:999280,0,-32,-20,-26,-1,3,-41,14
14:09:43:6788,31,-14,13,10,9,13,-15,-17
14:09:43:15034,31,-14,13,10,9,13,-15,-17
14:09:43:15898,-28,-25,0,-10,-10,-5,18,27
14:09:43:30058,20,45,45,17,-18,-33,-40,-34
14:09:43:30921,20,45,45,17,-18,-33,-40,-34
14:09:43:36762,38,-9,-5,5,20,20,37,-41
14:09:43:44302,-9,7,-65,-62,-28,-25,31,-3
14:09:43:51899,-9,7,-65,-62,-28,-25,31,-3
14:09:43:59391,12,71,68,-3,17,9,-29,1
14:09:43:66798,14,21,7,4,-11,15,55,-5
14:09:43:75019,14,21,7,4,-11,15,55,-5
14:09:43:75767,2,-15,-41,-20,-20,-33,-49,59
14:09:43:90029,23,-41,80,12,12,4,11,7
14:09:43:90759,23,-41,80,12,12,4,11,7
14:09:43:96776,5,-35,23,38,-14,2,-53,-23
14:09:43:104273,-8,-34,33,3,7,-5,-10,14
14:09:43:111914,-8,-34,33,3,7,-5,-10,14
14:09:43:119407,32,28,38,6,-10,-38,-69,-22
14:09:43:126910,38,3,25,26,-6,3,-24,18
14:09:43:135054,38,3,25,26,-6,3,-24,18
14:09:43:135764,-12,-6,3,9,-3,0,33,4
14:09:43:150551,-18,25,4,-3,19,16,-23,-37
14:09:43:151277,-18,25,4,-3,19,16,-23,-37
14:09:43:156929,13,-4,-15,-31,-18,-26,25,7
14:09:43:164398,17,-3,-12,6,-2,-1,25,24
14:09:43:180014,17,-3,-12,6,-2,-1,25,24
14:09:43:180882,-8,-43,-24,-14,-14,7,12,21
14:09:43:186762,1,27,-59,-18,-8,-3,-13,-24
14:09:43:195013,1,27,-59,-18,-8,-3,-13,-24
14:09:43:195796,-29,36,2,11,19,25,3,-14
14:09:43:210014,-12,-19,13,-2,5,2,3,32
14:09:43:210768,-12,-19,13,-2,5,2,3,32
14:09:43:216761,4,16,64,25,-4,-7,18,45
14:09:43:224271,-20,27,-6,-9,16,-2,-8,-18
14:09:43:231911,-20,27,-6,-9,16,-2,-8,-18
14:09:43:239428,-18,-52,-5,-9,10,22,12,0
14:09:43:246935,30,-30,-7,-6,-25,-23,-24,-30
14:09:43:255036,30,-30,-7,-6,-25,-23,-24,-30
14:09:43:255765,-21,19,-21,-15,12,14,40,-33
14:09:43:278139,2,45,76,28,-3,8,15,53
14:09:43:279002,2,45,76,28,-3,8,15,53
14:09:43:279796,26,-45,-87,-39,-20,-19,34,-21
14:09:43:284256,-4,29,34,-6,-10,-8,-26,-9
14:09:43:291907,-4,29,34,-6,-10,-8,-26,-9
14:09:43:299429,4,4,-12,11,14,8,10,2
14:09:43:306812,1,-15,-27,10,-9,-10,2,-9
14:09:43:315040,1,-15,-27,10,-9,-10,2,-9
14:09:43:315764,2,-12,-43,-18,-14,-6,13,0
14:09:43:330043,-31,-28,-26,-13,0,-3,17,-35
14:09:43:330766,-31,-28,-26,-13,0,-3,17,-35
14:09:43:336769,0,12,-17,-5,-10,-24,-55,-43
14:09:43:344411,17,14,9,9,5,16,1,34
14:09:43:351886,17,14,9,9,5,16,1,34
14:09:43:359273,6,15,27,34,30,29,3,36
14:09:43:366932,-3,52,37,-5,-13,-26,-11,64
14:09:43:375016,-3,52,37,-5,-13,-26,-11,64
14:09:43:375770,-29,-35,15,0,-17,5,-33,-14
14:09:43:390041,-42,8,16,2,30,12,-13,-8
14:09:43:390762,-42,8,16,2,30,12,-13,-8
14:09:43:396780,-23,-2,-37,-18,2,-12,-24,10
14:09:43:404428,37,91,68,32,15,10,41,-19
14:09:43:411904,37,91,68,32,15,10,41,-19
14:09:43:427516,-29,10,-21,-23,-6,-3,-1,-44
14:09:43:428262,3,-44,-42,-23,12,11,40,8
14:09:43:434399,3,-44,-42,-23,12,11,40,8
14:09:43:441763,14,77,31,16,33,26,9,47
14:09:43:450025,-5,-22,-33,-25,-24,-25,-110,-26
14:09:43:450942,-5,-22,-33,-25,-24,-25,-110,-26
14:09:43:456791,38,48,83,28,-23,-15,-1,3
14:09:43:472517,0,-43,-84,-6,14,18,-15,36
14:09:43:473278,0,-43,-84,-6,14,18,-15,36
14:09:43:479328,16,27,81,13,-9,-16,-12,-51
14:09:43:486786,0,34,48,22,-5,11,-14,-32
14:09:43:494411,0,34,48,22,-5,11,-14,-32
14:09:43:501788,9,-49,-84,-35,4,-4,-13,-15
14:09:43:510028,-11,-84,-25,-40,-25,-11,-5,24
14:09:43:510901,-11,-84,-25,-40,-25,-11,-5,24
14:09:43:516776,-35,2,30,11,-5,1,-19,-36
14:09:43:532554,-27,-26,-50,17,-12,-20,26,-41
14:09:43:533426,-27,-26,-50,17,-12,-20,26,-41
14:09:43:539301,-44,-57,-53,-18,-3,4,33,40
14:09:43:546788,-35,38,27,15,-3,6,11,6
14:09:43:554408,-35,38,27,15,-3,6,11,6
14:09:43:561795,35,20,12,15,19,14,-28,-50
14:09:43:570072,15,28,-39,-13,9,-2,-20,-49
14:09:43:570902,15,28,-39,-13,9,-2,-20,-49
14:09:43:576794,-17,-57,-24,11,-22,-11,0,18
14:09:43:600674,12,17,90,17,9,-3,-76,-9
14:09:43:601544,12,17,90,17,9,-3,-76,-9
14:09:43:602281,-23,-6,-60,-37,-34,-56,8,-6
14:09:43:606776,-11,0,46,10,7,-2,4,37
14:09:43:614404,-11,0,46,10,7,-2,4,37
14:09:43:621783,-13,-105,-84,-29,-9,5,-17,-26
14:09:43:630025,-10,13,57,21,0,-5,4,-64
14:09:43:630886,-10,13,57,21,0,-5,4,-64
14:09:43:636810,62,32,75,22,15,11,30,22
14:09:43:652548,-3,-49,-32,3,3,19,80,20
14:09:43:653439,-3,-49,-32,3,3,19,80,20
14:09:43:659289,32,45,41,45,17,17,10,40
14:09:43:666780,16,-5,-13,-14,-23,-22,-52,-90
14:09:43:674390,16,-5,-13,-14,-23,-22,-52,-90
14:09:43:681766,-83,-14,7,6,32,35,104,21
14:09:43:698159,32,-32,-109,-24,-3,-5,3,12
14:09:43:699125,32,-32,-109,-24,-3,-5,3,12
14:09:43:699776,30,44,11,-25,-35,-16,3,33
14:09:43:712551,4,38,29,13,13,21,74,70
14:09:43:713410,4,38,29,13,13,21,74,70
14:09:43:719264,-20,34,-83,-30,0,-5,-16,-16
14:09:43:726805,33,12,-9,0,2,20,10,29
14:09:43:734413,33,12,-9,0,2,20,10,29
14:09:43:741789,-60,-29,68,20,18,3,-54,-21
14:09:43:750031,6,22,3,-1,-12,-28,-34,-5
14:09:43:750957,6,22,3,-1,-12,-28,-34,-5
14:09:43:756788,18,12,18,-13,-16,-21,12,-22
14:09:43:772573,-3,20,69,27,32,17,-14,-5
14:09:43:773438,-3,20,69,27,32,17,-14,-5
14:09:43:779276,40,24,34,16,-24,-22,-76,-13
14:09:43:786779,-21,-37,-83,-12,26,50,25,7
14:09:43:794407,-21,-37,-83,-12,26,50,25,7
14:09:43:801852,30,36,35,19,11,10,21,43
14:09:43:810032,-12,-44,-1,-22,-35,-41,-23,-35
14:09:43:810768,-12,-44,-1,-22,-35,-41,-23,-35
14:09:43:816789,-16,11,-10,21,32,42,3,49
14:09:43:832555,-13,-18,-50,-41,-11,-23,-2,4
14:09:43:833403,-13,-18,-50,-41,-11,-23,-2,4
14:09:43:839284,15,25,12,7,1,-7,18,-35
14:09:43:846782,-29,-7,6,-14,-18,-26,-94,-71
14:09:43:854467,-29,-7,6,-14,-18,-26,-94,-71
14:09:43:861804,43,-16,62,7,1,-4,-42,-55
14:09:43:870081,6,71,57,-2,-3,4,7,9
14:09:43:870788,6,71,57,-2,-3,4,7,9
14:09:43:876902,5,-2,-27,13,6,-2,-29,10
14:09:43:892530,1,-15,38,12,13,13,31,6
14:09:43:893273,1,-15,38,12,13,13,31,6
14:09:43:899273,-29,-85,-59,-28,-22,-3,18,-10
14:09:43:906807,-6,30,7,18,-13,-20,61,54
14:09:43:914440,-6,30,7,18,-13,-20,61,54
14:09:43:921926,-38,-70,-57,-21,19,11,24,-8
14:09:43:930047,21,-41,-26,-5,10,1,-3,-23
14:09:43:930777,21,-41,-26,-5,10,1,-3,-23
14:09:43:936781,1,24,7,11,-7,-13,12,36
14:09:43:952530,-46,-60,-24,-8,8,-10,-34,-17
14:09:43:953267,-46,-60,-24,-8,8,-10,-34,-17
14:09:43:959404,14,-33,-108,-50,-17,-1,-4,7
14:09:43:966909,4,-26,-85,-31,-16,-16,68,-24
14:09:43:974452,4,-26,-85,-31,-16,-16,68,-24
14:09:43:981798,25,29,45,5,-2,9,20,11
14:09:43:990070,-5,-15,9,21,8,8,-40,26
14:09:43:990919,-5,-15,9,21,8,8,-40,26
14:09:43:996794,-11,-2,-64,15,-8,0,17,0
14:09:44:12564,-16,32,22,0,-9,-5,-25,23
14:09:44:13393,-16,32,22,0,-9,-5,-25,23
14:09:44:19281,-27,7,38,14,-2,2,7,0
14:09:44:26796,45,-5,35,16,17,10,-10,25
14:09:44:34402,45,-5,35,16,17,10,-10,25
14:09:44:41756,20,-13,22,-25,-9,-8,-28,30
14:09:44:50014,0,-11,-9,4,-20,-7,8,8
14:09:44:50894,0,-11,-9,4,-20,-7,8,8
14:09:44:56805,11,37,-8,-3,7,-2,-12,-30
14:09:44:72561,1,-5,-11,-1,2,4,29,6
14:09:44:73411,1,-5,-11,-1,2,4,29,6
14:09:44:79261,-27,-75,-66,-43,8,-13,-39,-50
14:09:44:86783,13,74,20,9,-4,-3,6,-21
14:09:44:94439,13,74,20,9,-4,-3,6,-21
14:09:44:101803,25,24,43,29,-2,9,12,-3
14:09:44:110065,-24,-56,-26,-5,2,12,48,18
14:09:44:110823,-24,-56,-26,-5,2,12,48,18
14:09:44:116809,6,-24,38,-23,-8,-5,11,21
14:09:44:132550,-10,-17,-31,-10,8,20,36,-7
14:09:44:133424,-10,-17,-31,-10,8,20,36,-7
14:09:44:139298,-22,-6,21,29,8,-31,-62,-47
14:09:44:146805,16,51,72,1,7,1,-51,-99
14:09:44:154409,16,51,72,1,7,1,-51,-99
14:09:44:161827,-10,41,27,-3,4,6,44,-10
14:09:44:170066,17,-23,-31,-12,14,19,0,-20
14:09:44:170798,17,-23,-31,-12,14,19,0,-20
14:09:44:176808,0,6,-7,-2,-5,2,-3,35
14:09:44:192540,-53,-10,26,3,-11,-7,-8,-3
14:09:44:193285,-53,-10,26,3,-11,-7,-8,-3
14:09:44:199324,9,-44,-87,-41,17,24,37,-28
14:09:44:215066,9,-44,-87,-41,17,24,37,-28
14:09:44:215962,-38,-25,-27,-5,-9,-6,17,42
14:09:44:221775,6,86,109,14,-15,-30,-54,20
14:09:44:230066,6,86,109,14,-15,-30,-54,20
14:09:44:230777,23,43,30,19,2,4,37,-4
14:09:44:236811,-5,25,33,6,-4,1,-8,28
14:09:44:260700,-5,25,33,6,-4,1,-8,28
14:09:44:261523,-18,34,21,-3,21,18,-8,12
14:09:44:262280,-55,-32,27,3,-29,-61,-55,11
14:09:44:275028,-55,-32,27,3,-29,-61,-55,11
14:09:44:275763,-22,-14,-48,-3,20,10,-30,36
14:09:44:281787,1,-26,-57,-10,2,20,53,11
14:09:44:290086,1,-26,-57,-10,2,20,53,11
14:09:44:290790,7,13,24,7,-13,-30,-33,-16
14:09:44:304299,6,-83,-94,-12,2,1,-6,12
14:09:44:312565,6,-83,-94,-12,2,1,-6,12
14:09:44:313322,5,-33,34,-2,-9,-25,-19,2
14:09:44:319293,-26,-21,17,12,18,19,8,-7
14:09:44:335033,-26,-21,17,12,18,19,8,-7
14:09:44:335802,9,-24,-34,-7,-10,-10,-25,11
14:09:44:350666,10,25,-20,-14,-5,5,4,-14
14:09:44:351539,10,25,-20,-14,-5,5,4,-14
14:09:44:352291,-32,26,30,17,10,13,29,-19
14:09:44:356773,50,3,-35,9,-3,-7,-24,6
14:09:44:372602,50,3,-35,9,-3,-7,-24,6
14:09:44:373323,-9,-71,-10,-15,-15,-14,-27,-6
14:09:44:379290,11,47,84,36,8,13,62,23
14:09:44:395026,11,47,84,36,8,13,62,23
14:09:44:395876,5,-1,11,15,29,34,17,23
14:09:44:401830,0,-8,89,3,-26,-29,-76,-79
14:09:44:410075,0,-8,89,3,-26,-29,-76,-79
14:09:44:410788,7,62,45,-6,16,22,-15,7
14:09:44:424297,13,71,14,0,2,11,23,-7
14:09:44:432568,13,71,14,0,2,11,23,-7
14:09:44:433410,12,-6,12,-8,-17,-6,-9,37
14:09:44:439284,1,-13,13,7,5,19,2,-19
14:09:44:455044,1,-13,13,7,5,19,2,-19
14:09:44:455888,10,-90,-114,-48,-26,-23,-26,15
14:09:44:461788,19,28,-1,-13,-9,-1,-31,7
14:09:44:470037,19,28,-1,-13,-9,-1,-31,7
14:09:44:470932,-5,36,57,18,-13,-29,34,-42
14:09:44:493183,28,46,-7,3,21,23,47,55
14:09:44:494123,28,46,-7,3,21,23,47,55
14:09:44:494778,20,14,-6,10,21,26,-10,-3
14:09:44:499303,-26,-62,-73,-11,-7,-8,8,14
14:09:44:515061,-26,-62,-73,-11,-7,-8,8,14
14:09:44:515789,13,16,-71,-4,-2,9,3,-6
14:09:44:521911,-16,-12,-20,-20,22,10,78,21
14:09:44:537609,-16,-12,-20,-20,22,10,78,21
14:09:44:538292,2,-37,2,-24,-34,-27,-35,-45
14:09:44:544312,-11,-34,31,5,-6,20,11,-49
14:09:44:552555,-11,-34,31,5,-6,20,11,-49
14:09:44:553289,-54,38,41,1,27,-3,-2,-21
14:09:44:559311,0,14,10,0,2,3,-23,1
14:09:44:583212,0,14,10,0,2,3,-23,1
14:09:44:584066,5,-37,-61,-22,-13,3,-20,21
14:09:44:584806,-36,-93,-37,-19,-1,-4,-9,-45
14:09:44:590067,-36,-93,-37,-19,-1,-4,-9,-45
14:09:44:590907,30,14,-12,30,8,-4,12,9
14:09:44:604297,16,90,114,55,39,12,-23,-17
14:09:44:612538,16,90,114,55,39,12,-23,-17
14:09:44:613443,39,87,98,19,-11,-13,42,92
14:09:44:626815,-25,-9,25,-2,-13,-28,-34,-35
14:09:44:635054,-25,-9,25,-2,-13,-28,-34,-35
14:09:44:635794,16,-16,-38,-22,-11,-1,-30,-49
14:09:44:641771,-3,15,-42,16,8,17,-62,-6
14:09:44:650030,-3,15,-42,16,8,17,-62,-6
14:09:44:650915,28,15,-22,-7,13,4,23,35
14:09:44:664330,15,1,-36,-6,-20,-8,8,30
14:09:44:672560,15,1,-36,-6,-20,-8,8,30
14:09:44:673333,-69,-39,51,27,-9,6,-7,-16
14:09:44:679297,0,48,24,-1,-12,-8,7,34
14:09:44:695034,0,48,24,-1,-12,-8,7,34
14:09:44:695785,3,61,29,6,-2,4,3,-22
14:09:44:701772,-23,-50,-56,-40,-5,-11,-5,-11
14:09:44:710033,-23,-50,-56,-40,-5,-11,-5,-11
14:09:44:710932,27,-20,-24,-31,-13,-8,40,3
14:09:44:724308,18,-2,-6,-6,-19,-32,-86,-4
14:09:44:732528,18,-2,-6,-6,-19,-32,-86,-4
14:09:44:733295,-58,-48,26,-1,21,13,3,-46
14:09:44:739302,4,35,2,-4,-3,-4,51,49
14:09:44:755065,4,35,2,-4,-3,-4,51,49
14:09:44:755779,50,51,39,37,7,14,-7,-29
14:09:44:770708,-39,-31,2,-9,-15,2,3,9
14:09:44:771560,-39,-31,2,-9,-15,2,3,9
14:09:44:772304,18,32,8,28,23,5,40,28
14:09:44:784311,17,-16,23,21,4,4,42,19
14:09:44:792546,17,-16,23,21,4,4,42,19
14:09:44:793297,-10,7,-58,-55,3,6,-4,4
14:09:44:799283,31,22,12,5,-8,-6,42,-23
14:09:44:815048,31,22,12,5,-8,-6,42,-23
14:09:44:815942,-10,2,8,6,6,16,25,45
14:09:44:821777,0,-5,-24,-17,3,3,15,46
14:09:44:830061,0,-5,-24,-17,3,3,15,46
14:09:44:830807,6,-4,21,-7,-35,-36,-34,-7
14:09:44:844289,-1,-5,59,5,15,17,-17,7
14:09:44:852544,-1,-5,59,5,15,17,-17,7
14:09:44:853430,-19,-38,-29,-19,-15,2,24,18
14:09:44:859287,-30,-11,-10,10,10,12,-9,10
14:09:44:875086,-30,-11,-10,10,10,12,-9,10
14:09:44:875910,-14,-61,-25,4,-27,-37,-65,-50
14:09:44:881814,-8,-25,9,-12,-10,-19,-33,-11
14:09:44:890059,-8,-25,9,-12,-10,-19,-33,-11
14:09:44:890919,13,34,62,48,21,35,62,5
14:09:44:904813,14,10,17,13,-5,-10,22,-38
14:09:44:912535,14,10,17,13,-5,-10,22,-38
14:09:44:913412,2,71,30,22,17,-6,5,-2
14:09:44:919308,6,-4,5,16,-3,9,0,-35
14:09:44:935039,6,-4,5,16,-3,9,0,-35
14:09:44:935807,-17,-51,6,-1,11,6,-27,-20
14:09:44:941779,0,-24,-62,9,16,12,36,28
14:09:44:950055,0,-24,-62,9,16,12,36,28
14:09:44:950903,7,14,13,-13,-18,-7,-62,-5
14:09:44:964283,4,11,-37,-38,-20,-7,-33,8
14:09:44:972521,4,11,-37,-38,-20,-7,-33,8
14:09:44:973310,15,19,-47,-12,0,-6,2,30
14:09:44:979284,-45,11,34,9,5,-1,-11,-4
14:09:45:3168,-45,11,34,9,5,-1,-11,-4
14:09:45:4055,-1,-57,-78,-46,-26,-14,-23,4
14:09:45:4787,-17,-11,-28,-1,-1,-8,29,-27
14:09:45:10057,-17,-11,-28,-1,-1,-8,29,-27
14:09:45:10789,17,8,-25,-2,-3,19,55,22
14:09:45:24292,1,-26,-51,-20,-13,-2,32,17
14:09:45:32588,1,-26,-51,-20,-13,-2,32,17
14:09:45:33312,19,34,-39,2,12,19,23,43
14:09:45:39318,20,5,6,-5,1,-8,7,16
14:09:45:55077,20,5,6,-5,1,-8,7,16
14:09:45:55927,-13,-48,23,13,-9,-26,-25,-50
14:09:45:61809,3,7,-29,-27,-4,-18,-50,17
14:09:45:70044,3,7,-29,-27,-4,-18,-50,17
14:09:45:70786,3,49,66,25,14,16,33,56
14:09:45:84318,17,10,24,13,13,5,8,-22
14:09:45:92556,17,10,24,13,13,5,8,-22
14:09:45:93376,-25,-10,-36,-27,-25,-22,-47,-34
14:09:45:99333,-46,-31,-8,-12,34,14,-21,-47
14:09:45:115162,-46,-31,-8,-12,34,14,-21,-47
14:09:45:115929,-3,-54,-95,-33,-16,-9,-39,14
14:09:45:121798,4,-26,10,-12,-32,-32,-65,14
14:09:45:130685,4,-26,10,-12,-32,-32,-65,14
14:09:45:131549,-19,-43,-33,-14,8,4,-10,-61
14:09:45:144310,-5,-26,19,10,-26,-25,10,-2
14:09:45:152546,-5,-26,19,10,-26,-25,10,-2
14:09:45:153436,32,8,8,16,18,26,37,34
14:09:45:159304,-31,64,18,1,4,6,-16,-27
14:09:45:183210,-31,64,18,1,4,6,-16,-27
14:09:45:184054,41,-6,-19,-16,-20,-33,-19,68
14:09:45:184788,15,-11,1,8,23,31,7,-23
14:09:45:190045,15,-11,1,8,23,31,7,-23
14:09:45:190784,-58,-39,-6,-17,-10,-29,-63,-59
14:09:45:204296,19,-6,12,27,9,28,28,79
14:09:45:212585,19,-6,12,27,9,28,28,79
14:09:45:213333,14,22,51,9,21,10,41,17
14:09:45:219323,33,20,-14,2,-19,-13,9,-14
14:09:45:235536,33,20,-14,2,-19,-13,9,-14
14:09:45:236317,-3,15,11,10,10,-2,32,-11
14:09:45:241815,26,100,46,5,8,12,-3,-12
14:09:45:250048,26,100,46,5,8,12,-3,-12
14:09:45:250794,-55,-18,-54,-18,-14,1,-4,-15
14:09:45:264284,-22,-58,-37,-42,-27,-24,-6,-69
14:09:45:280742,-22,-58,-37,-42,-27,-24,-6,-69
14:09:45:281535,-17,-6,36,22,14,41,33,-66
14:09:45:282278,-13,13,-17,-19,-9,-15,2,10
14:09:45:295065,-13,13,-17,-19,-9,-15,2,10
14:09:45:295943,16,-21,-49,-28,-15,-15,-13,-2
14:09:45:301813,-3,-15,-11,14,7,17,7,34
14:09:45:310066,-3,-15,-11,14,7,17,7,34
14:09:45:310914,-12,0,56,-5,18,6,-15,-30
14:09:45:324281,-9,-5,62,45,14,3,14,59
14:09:45:332559,-9,-5,62,45,14,3,14,59
14:09:45:333436,-9,3,-1,9,-9,-5,-11,27
14:09:45:346797,11,74,-1,-1,8,12,-19,20
14:09:45:355128,11,74,-1,-1,8,12,-19,20
14:09:45:355833,-3,-31,26,-1,-17,-32,5,37
14:09:45:361808,11,-6,-33,-19,0,18,63,-20
14:09:45:369468,11,-6,-33,-19,0,18,63,-20
14:09:45:376805,27,15,37,22,0,-4,64,-43
14:09:45:384324,8,8,-25,-5,-4,-8,26,9
14:09:45:392561,8,8,-25,-5,-4,-8,26,9
14:09:45:393294,-36,-38,-36,-12,9,1,-5,-27
14:09:45:416178,12,11,-55,-52,-17,-17,-19,-6
14:09:45:416899,12,11,-55,-52,-17,-17,-19,-6
14:09:45:417795,15,2,-4,13,-1,18,-49,39
14:09:45:421779,-10,-11,14,14,19,13,-12,-8
14:09:45:429449,-10,-11,14,14,19,13,-12,-8
14:09:45:436823,-31,-37,-29,-13,-1,-10,-13,-28
14:09:45:444310,5,-28,30,13,-9,-16,-15,-3
14:09:45:452345,5,-28,30,13,-9,-16,-15,-3
14:09:45:459289,-14,51,49,23,8,20,31,-11
14:09:45:466833,22,-20,47,13,0,1,-10,-55
14:09:45:475097,22,-20,47,13,0,1,-10,-55
14:09:45:475795,27,59,-41,-14,-8,0,3,28
14:09:45:481834,29,-1,78,37,-8,-13,-1,23
14:09:45:489461,29,-1,78,37,-8,-13,-1,23
14:09:45:496805,4,-10,-18,-6,20,3,-30,-16
14:09:45:513187,-4,-9,-46,-27,-16,-18,4,-38
14:09:45:513926,-4,-9,-46,-27,-16,-18,4,-38
14:09:45:514961,32,3,33,8,-6,7,15,59
14:09:45:526820,-9,2,-51,-10,3,4,4,-26
14:09:45:535056,-9,2,-51,-10,3,4,4,-26
14:09:45:535942,-9,-19,1,0,-6,-8,13,-16
14:09:45:541796,-5,16,27,4,-8,-12,22,-6
14:09:45:549309,-5,16,27,4,-8,-12,22,-6
14:09:45:556830,-6,1,34,19,12,6,-15,-6
14:09:45:564303,0,-8,19,24,-8,-15,9,15
14:09:45:572559,0,-8,19,24,-8,-15,9,15
14:09:45:573290,-18,-28,-51,-22,8,0,-16,3
14:09:45:586791,-24,0,28,-11,-2,-9,-32,30
14:09:45:595053,-24,0,28,-11,-2,-9,-32,30
14:09:45:595808,8,35,13,3,-1,-3,-3,10
14:09:45:601829,19,-23,-99,-33,-4,-1,-13,-4
14:09:45:609441,19,-23,-99,-33,-4,-1,-13,-4
14:09:45:616801,11,22,19,-9,-9,10,-2,3
14:09:45:624282,-18,-2,24,23,11,2,-16,25
14:09:45:632565,-18,-2,24,23,11,2,-16,25
14:09:45:633321,17,52,34,-2,-13,-10,-32,-23
14:09:45:646851,-5,-38,-5,2,23,10,17,-13
14:09:45:655060,-5,-38,-5,2,23,10,17,-13
14:09:45:655832,13,-13,20,16,-6,-2,5,-18
14:09:45:661811,-19,14,1,21,-9,5,35,18
14:09:45:669463,-19,14,1,21,-9,5,35,18
14:09:45:676794,-52,-55,25,32,15,-10,-8,-19
14:09:45:693168,-27,-81,-69,-42,-3,3,9,-13
14:09:45:694082,-27,-81,-69,-42,-3,3,9,-13
14:09:45:694812,-6,-33,-65,-9,-11,-8,-9,-29
14:09:45:706843,2,43,19,0,3,1,-10,-8
14:09:45:715054,2,43,19,0,3,1,-10,-8
14:09:45:715795,46,42,9,8,-9,-1,-24,6
14:09:45:721816,4,28,26,9,-2,9,-4,6
14:09:45:729461,4,28,26,9,-2,9,-4,6
14:09:45:745082,-19,-18,-69,-17,-7,-3,-1,-3
14:09:45:745803,-6,23,50,17,2,9,2,1
14:09:45:752551,-6,23,50,17,2,9,2,1
14:09:45:753308,56,-24,6,-8,5,3,-17,9
14:09:45:766815,-5,-38,60,12,8,13,-31,9
14:09:45:775048,-5,-38,60,12,8,13,-31,9
14:09:45:775810,-9,20,35,11,-3,4,73,28
14:09:45:790092,24,15,1,1,-9,-4,-24,-42
14:09:45:790920,24,15,1,1,-9,-4,-24,-42
14:09:45:796821,-5,32,4,0,14,2,-10,-5
14:09:45:804310,-40,-6,-91,-20,-7,-1,-3,-8
14:09:45:812578,-40,-6,-91,-20,-7,-1,-3,-8
14:09:45:813305,-18,-4,1,-21,1,13,37,46
14:09:45:826807,39,41,1,-7,-2,-13,-5,15
14:09:45:835068,39,41,1,-7,-2,-13,-5,15
14:09:45:835946,-69,-88,-83,-28,-11,-13,-43,-15
14:09:45:841787,2,-5,22,-12,2,10,-15,-3
14:09:45:849313,2,-5,22,-12,2,10,-15,-3
14:09:45:856803,11,-6,24,-2,-2,-2,5,-17
14:09:45:864286,-29,-15,37,10,-1,-6,41,36
14:09:45:872541,-29,-15,37,10,-1,-6,41,36
14:09:45:873332,2,36,58,2,-17,-9,20,15
14:09:45:886817,7,-37,-96,-16,15,1,-2,-4
14:09:45:895061,7,-37,-96,-16,15,1,-2,-4
14:09:45:895790,12,2,13,15,4,5,55,5
14:09:45:901780,-21,21,-26,-9,-22,-11,-12,2
14:09:45:909443,-21,21,-26,-9,-22,-11,-12,2
14:09:45:916798,9,29,-18,-10,5,-13,-30,34
14:09:45:924341,-41,-14,-25,-9,10,1,-13,-30
14:09:45:932558,-41,-14,-25,-9,10,1,-13,-30
14:09:45:933322,26,40,30,25,12,6,-3,6
14:09:45:946826,18,-7,48,20,-14,-3,-14,39
14:09:45:955044,18,-7,48,20,-14,-3,-14,39
14:09:45:955800,-14,-4,15,9,-2,-9,4,-46
14:09:45:970094,12,-36,-1,-4,-4,5,23,15
14:09:45:970835,12,-36,-1,-4,-4,5,23,15
14:09:45:976803,-5,-49,-27,-15,-4,-3,-10,-9
14:09:45:984290,-13,11,38,6,8,0,-14,-4
14:09:45:992547,-13,11,38,6,8,0,-14,-4
14:09:45:993304,-17,22,-9,-7,-6,-14,7,-25
14:09:46:23836,13,1,7,10,8,12,-28,-17
14:09:46:24668,13,1,7,10,8,12,-28,-17
14:09:46:25432,-17,-39,-26,-4,6,-1,-35,-15
14:09:46:26292,3,28,-20,-16,-6,-18,-24,-19
14:09:46:29423,3,28,-20,-16,-6,-18,-24,-19
14:09:46:36811,-4,19,35,21,13,14,7,21
14:09:46:44304,-13,17,12,1,-6,5,-12,-35
14:09:46:52541,-13,17,12,1,-6,5,-12,-35
14:09:46:53421,-6,-3,-39,-7,10,1,-44,-25
14:09:46:66813,-30,26,-13,2,12,15,30,14
14:09:46:75052,-30,26,-13,2,12,15,30,14
14:09:46:75806,15,0,3,-11,-28,-18,-2,26
14:09:46:81823,12,31,25,10,10,12,6,33
14:09:46:89459,12,31,25,10,10,12,6,33
14:09:46:96820,14,5,-43,5,4,6,28,-11
14:09:46:104289,11,-24,-66,-65,-18,-11,20,-17
14:09:46:112546,11,-24,-66,-65,-18,-11,20,-17
14:09:46:113309,-19,-10,17,-11,-13,0,57,0
14:09:46:126789,42,-2,5,9,6,2,63,70
14:09:46:135039,42,-2,5,9,6,2,63,70
14:09:46:135926,15,-25,11,-3,-10,5,0,7
14:09:46:141802,1,-13,-8,-7,-25,-16,-21,-8
14:09:46:149308,1,-13,-8,-7,-25,-16,-21,-8
14:09:46:156869,5,36,21,7,9,-12,-15,58
14:09:46:164310,-9,-24,-10,9,13,5,-25,8
14:09:46:172598,-9,-24,-10,9,13,5,-25,8
14:09:46:173314,-29,-2,-15,-28,-17,-16,-19,-23
14:09:46:186837,-6,22,-61,-1,16,14,-6,-50
14:09:46:195077,-6,22,-61,-1,16,14,-6,-50
14:09:46:195798,15,-4,-6,-15,5,14,-13,30
14:09:46:201820,-5,-8,57,20,-2,-14,9,-5
14:09:46:209303,-5,-8,57,20,-2,-14,9,-5
14:09:46:216815,8,-11,-17,-5,-12,-3,-4,1
14:09:46:224306,-30,-38,-45,-8,-6,-3,-14,-2
14:09:46:232580,-30,-38,-45,-8,-6,-3,-14,-2
14:09:46:233306,31,3,27,17,2,0,-19,-1
14:09:46:246820,46,12,17,-6,-16,-9,14,3
14:09:46:255071,46,12,17,-6,-16,-9,14,3
14:09:46:255823,-17,-35,20,15,28,24,15,-7
14:09:46:261810,12,5,28,37,8,8,29,8
14:09:46:269418,12,5,28,37,8,8,29,8
14:09:46:276799,-1,-1,4,0,-12,4,-1,-4
14:09:46:284291,6,22,-7,2,2,-7,-27,-5
14:09:46:299831,6,22,-7,2,2,-7,-27,-5
14:09:46:307461,-9,10,9,-11,-5,-15,-40,-71
14:09:46:308311,6,27,-29,-11,9,5,26,5
14:09:46:315057,6,27,-29,-11,9,5,26,5
14:09:46:315790,4,-14,1,22,-8,-8,-2,17
14:09:46:330096,-17,-31,9,-3,2,-8,-18,-11
14:09:46:330820,-17,-31,9,-3,2,-8,-18,-11
14:09:46:336786,-9,13,8,2,8,-13,-6,-26
14:09:46:344332,-5,-12,-35,-21,-7,-4,-7,27
14:09:46:351933,-5,-12,-35,-21,-7,-4,-7,27
14:09:46:359310,-10,-19,-54,-15,-6,0,10,1
14:09:46:366816,-11,-14,16,12,-3,0,-1,2
14:09:46:375056,-11,-14,16,12,-3,0,-1,2
14:09:46:375796,-2,-27,7,6,-5,-1,11,-1
14:09:46:390559,-7,-57,-11,-4,-22,-14,-15,-33
14:09:46:391335,-7,-57,-11,-4,-22,-14,-15,-33
14:09:46:396823,-5,24,-51,-9,9,13,21,0
14:09:46:404317,1,29,33,1,-14,-5,-9,-21
14:09:46:411918,1,29,33,1,-14,-5,-9,-21
14:09:46:419345,6,9,-3,0,-4,-19,-41,3
14:09:46:426801,-19,-20,-32,2,-3,-3,38,2
14:09:46:435090,-19,-20,-32,2,-3,-3,38,2
14:09:46:435790,33,35,-13,7,4,6,19,2
14:09:46:450098,10,43,44,-22,-3,-11,-12,15
14:09:46:450938,10,43,44,-22,-3,-11,-12,15
14:09:46:456804,7,1,16,-1,19,33,46,38
14:09:46:464318,-12,-25,57,21,14,-5,-23,-22
14:09:46:471820,-12,-25,57,21,14,-5,-23,-22
14:09:46:479290,-20,17,20,-27,-25,-27,-24,-9
14:09:46:486792,56,27,2,13,11,26,1,-45
14:09:46:495068,56,27,2,13,11,26,1,-45
14:09:46:495819,-6,30,15,10,14,6,23,11
14:09:46:509935,-10,-16,4,-7,-1,-4,12,53
14:09:46:510823,-10,-16,4,-7,-1,-4,12,53
14:09:46:516829,-10,2,-10,-6,-18,-20,-9,-17
14:09:46:524297,0,4,-9,5,16,8,6,3
14:09:46:531795,0,4,-9,5,16,8,6,3
14:09:46:539308,-16,-32,-24,-6,-2,1,8,14
14:09:46:546839,-10,6,-19,-18,-26,-22,24,31
14:09:46:555116,-10,6,-19,-18,-26,-22,24,31
14:09:46:555809,11,15,60,30,2,6,5,-3
14:09:46:578228,6,33,4,26,15,26,3,11
14:09:46:579076,6,33,4,26,15,26,3,11
14:09:46:579816,1,-9,-37,-15,-23,-9,-52,-5
14:09:46:584331,-32,-21,5,3,-7,-9,-55,-69
14:09:46:591795,-32,-21,5,3,-7,-9,-55,-69
14:09:46:599334,-7,-83,-36,-14,1,-19,-26,-57
14:09:46:606803,-14,-36,-33,-4,3,15,39,4
14:09:46:615053,-14,-36,-33,-4,3,15,39,4
14:09:46:615800,21,16,34,15,6,15,-22,41
14:09:46:630095,5,-6,65,-5,-16,-24,-4,-86
14:09:46:630804,5,-6,65,-5,-16,-24,-4,-86
14:09:46:636846,-3,-15,-34,-48,-5,7,41,53
14:09:46:644322,21,51,-2,-16,-9,-19,-28,31
14:09:46:651807,21,51,-2,-16,-9,-19,-28,31
14:09:46:659307,6,39,-5,13,3,16,65,-33
14:09:46:666835,14,-37,-40,-1,18,10,39,73
14:09:46:675055,14,-37,-40,-1,18,10,39,73
14:09:46:675790,-23,-47,-32,10,-1,-4,-41,-48
14:09:46:690172,-23,-28,-12,5,9,2,5,0
14:09:46:690832,-23,-28,-12,5,9,2,5,0
14:09:46:696826,15,16,-2,-1,8,13,13,38
14:09:46:704323,24,52,39,18,-11,-2,-20,17
14:09:46:711964,24,52,39,18,-11,-2,-20,17
14:09:46:719331,-27,-20,52,13,12,-15,-34,-14
14:09:46:726858,-5,-65,-2,-2,15,16,30,18
14:09:46:735103,-5,-65,-2,-2,15,16,30,18
14:09:46:735838,0,38,-12,6,-8,2,25,16
14:09:46:750070,-35,-7,-28,-5,-20,-18,-30,-25
14:09:46:750805,-35,-7,-28,-5,-20,-18,-30,-25
14:09:46:756812,-16,-60,-49,-17,2,-8,-11,32
14:09:46:764319,12,-40,-36,8,9,31,31,-20
14:09:46:771931,12,-40,-36,8,9,31,31,-20
14:09:46:779336,22,67,53,2,-17,-24,-29,13
14:09:46:786839,19,-12,13,-19,-11,-7,-14,-22
14:09:46:795063,19,-12,13,-19,-11,-7,-14,-22
14:09:46:795941,-9,-16,-31,-11,-2,8,-9,-14
14:09:46:810105,22,7,0,-4,-16,-9,-23,7
14:09:46:810804,22,7,0,-4,-16,-9,-23,7
14:09:46:816819,-13,15,20,1,29,16,6,-1
14:09:46:824359,-16,9,3,14,5,3,7,-12
14:09:46:831948,-16,9,3,14,5,3,7,-12
14:09:46:839332,3,17,77,18,-21,-15,-13,-16
14:09:46:846809,13,30,33,-9,9,9,-17,3
14:09:46:855106,13,30,33,-9,9,9,-17,3
14:09:46:855804,3,11,-18,-1,10,1,11,-22
14:09:46:870106,-18,18,-6,-2,0,4,-12,-5
14:09:46:870825,-18,18,-6,-2,0,4,-12,-5
14:09:46:876815,18,-29,-29,-10,-8,-14,-39,-9
14:09:46:884361,17,3,0,-8,-17,-38,-31,43
14:09:46:891849,17,3,0,-8,-17,-38,-31,43
14:09:46:899306,20,-2,31,20,18,17,39,30
14:09:46:906829,-20,40,-16,-33,-12,0,5,13
14:09:46:915072,-20,40,-16,-33,-12,0,5,13
14:09:46:915797,-29,-18,-3,-13,-14,-12,-14,-37
14:09:46:930075,-14,12,-21,-9,3,-3,-24,-88
14:09:46:930837,-14,12,-21,-9,3,-3,-24,-88
14:09:46:944946,2,-33,-36,21,-3,18,11,-12
14:09:46:945807,4,22,65,19,21,21,-8,-34
14:09:46:951911,4,22,65,19,21,21,-8,-34
14:09:46:959311,7,4,-9,5,-1,-5,-22,-35
14:09:46:966822,-17,-31,10,9,3,1,-32,-37
14:09:46:975086,-17,-31,10,9,3,1,-32,-37
14:09:46:975817,12,28,56,6,8,0,25,28
14:09:46:989947,43,19,17,1,7,-10,15,-14
14:09:46:990818,43,19,17,1,7,-10,15,-14
14:09:46:996813,-4,52,15,-3,-8,-4,-9,24
14:09:47:4307,-7,-6,-6,-15,-2,-1,-16,19
14:09:47:11791,-7,-6,-6,-15,-2,-1,-16,19
14:09:47:19337,28,3,40,17,8,-19,1,0
14:09:47:26878,3,-10,-21,-16,-7,0,16,10
14:09:47:35084,3,-10,-21,-16,-7,0,16,10
14:09:47:35839,-16,-14,14,1,16,24,-7,8
14:09:47:50104,-24,3,18,13,-16,-13,-21,-26
14:09:47:50839,-24,3,18,13,-16,-13,-21,-26
14:09:47:56836,-12,-4,-34,-10,8,20,48,-32
14:09:47:64345,10,-50,-37,13,8,5,61,61
14:09:47:71840,10,-50,-37,13,8,5,61,61
14:09:47:79352,-1,-12,-36,-3,-29,-28,-10,-2
14:09:47:86818,-17,-9,-1,14,21,18,23,27
14:09:47:95075,-17,-9,-1,14,21,18,23,27
14:09:47:95801,-19,-67,-44,-3,6,-10,-43,-47
14:09:47:110103,7,7,-34,-14,-37,-27,-32,18
14:09:47:110831,7,7,-34,-14,-37,-27,-32,18
14:09:47:116818,-18,-33,-18,-24,-8,10,28,33
14:09:47:124319,-4,51,-24,20,-12,-2,1,30
14:09:47:131994,-4,51,-24,20,-12,-2,1,30
14:09:47:139299,46,62,-12,-9,-12,8,1,33
14:09:47:155691,-1,-21,6,-8,8,-14,37,9
14:09:47:156587,-1,-21,6,-8,8,-14,37,9
14:09:47:157309,-15,-17,-7,-16,-9,-3,-19,-14
14:09:47:170063,-12,6,21,5,0,9,9,7
14:09:47:170786,-12,6,21,5,0,9,9,7
14:09:47:176815,-18,-30,-29,5,0,-7,-12,14
14:09:47:184314,5,-25,-8,-23,-12,-29,-16,14
14:09:47:191946,5,-25,-8,-23,-12,-29,-16,14
14:09:47:199332,-22,2,-30,-19,-1,10,2,6
14:09:47:206809,21,36,37,-3,2,-1,-16,-30
14:09:47:214443,21,36,37,-3,2,-1,-16,-30
14:09:47:221820,-8,-70,4,-10,15,15,16,-11
14:09:47:230082,-31,-16,23,4,-3,3,-5,-16
14:09:47:230826,-31,-16,23,4,-3,3,-5,-16
14:09:47:236825,5,19,70,22,9,-6,15,-24
14:09:47:252599,-19,10,16,18,26,22,1,28
14:09:47:253355,-19,10,16,18,26,22,1,28
14:09:47:259347,-71,33,-45,-27,-15,-31,-12,-56
14:09:47:266856,5,-47,-41,-10,0,-2,18,-29
14:09:47:274485,5,-47,-41,-10,0,-2,18,-29
14:09:47:281837,37,6,-8,14,1,-1,-6,10
14:09:47:289980,9,-13,-9,-8,-24,-11,9,5
14:09:47:290838,9,-13,-9,-8,-24,-11,9,5
14:09:47:296819,10,34,10,16,19,20,4,-3
14:09:47:312581,20,18,39,23,30,18,1,-14
14:09:47:313427,20,18,39,23,30,18,1,-14
14:09:47:319315,24,46,73,20,-14,-3,6,3
14:09:47:326924,-30,-45,-17,-10,-5,1,-16,-12
14:09:47:334325,-30,-45,-17,-10,-5,1,-16,-12
14:09:47:341846,-42,-23,13,14,7,8,32,39
14:09:47:350097,6,35,59,-4,-2,-11,-33,6
14:09:47:350826,6,35,59,-4,-2,-11,-33,6
14:09:47:356816,-23,63,29,-3,1,4,-7,-7
14:09:47:372488,3,-17,-46,-16,3,13,12,24
14:09:47:373353,3,-17,-46,-16,3,13,12,24
14:09:47:379314,25,-6,7,-9,-14,-32,-40,15
14:09:47:386801,12,-30,-8,0,16,13,9,-4
14:09:47:394451,12,-30,-8,0,16,13,9,-4
14:09:47:401810,15,-18,-17,5,-11,-12,-33,-8
14:09:47:410112,-9,-21,-68,-23,-10,-10,-7,-19
14:09:47:410809,-9,-21,-68,-23,-10,-10,-7,-19
14:09:47:416826,4,-12,46,16,-1,-4,-13,-39
14:09:47:432615,18,40,38,25,-2,-10,3,-19
14:09:47:433318,18,40,38,25,-2,-10,3,-19
14:09:47:439352,47,53,29,6,27,21,21,43
14:09:47:455046,-23,-10,-37,-1,2,-11,52,17
14:09:47:455792,-23,-10,-37,-1,2,-11,52,17
14:09:47:461827,23,-33,-26,8,-25,-22,-16,7
14:09:47:470130,-24,42,19,13,15,22,5,18
14:09:47:470849,-24,42,19,13,15,22,5,18
14:09:47:476856,-21,-37,4,-3,1,-3,-16,21
14:09:47:492611,18,0,5,13,-21,-7,5,36
14:09:47:493311,18,0,5,13,-21,-7,5,36
14:09:47:499350,5,-4,-19,-21,-9,-19,0,-35
14:09:47:506876,15,26,32,16,7,17,14,-2
14:09:47:514331,15,26,32,16,7,17,14,-2
14:09:47:521844,15,20,26,22,14,9,9,29
14:09:47:530093,6,9,-18,-23,-8,-5,7,-15
14:09:47:530847,6,9,-18,-23,-8,-5,7,-15
14:09:47:536811,3,17,-43,-22,3,12,8,45
14:09:47:552597,-35,-7,-55,-16,19,-7,-17,25
14:09:47:553332,-35,-7,-55,-16,19,-7,-17,25
14:09:47:559347,-19,-6,-17,-17,9,12,-9,-27
14:09:47:566820,-4,29,27,-6,-24,-3,5,-48
14:09:47:574441,-4,29,27,-6,-24,-3,5,-48
14:09:47:581812,-36,-49,1,-6,-13,-3,-4,-8
14:09:47:590040,3,-29,-23,-19,-3,-21,-20,-24
14:09:47:590806,3,-29,-23,-19,-3,-21,-20,-24
14:09:47:596817,38,26,-16,-10,-11,18,-12,-13
14:09:47:612570,12,-15,27,5,1,-14,-24,-7
14:09:47:613323,12,-15,27,5,1,-14,-24,-7
14:09:47:619312,-45,-18,-48,-23,0,2,22,-6
14:09:47:626798,-6,-4,-11,-4,-12,-12,-8,-9
14:09:47:634428,-6,-4,-11,-4,-12,-12,-8,-9
14:09:47:641835,-22,-2,18,-12,-7,-11,7,-20
14:09:47:650043,-29,3,24,18,23,32,12,-33
14:09:47:650930,-29,3,24,18,23,32,12,-33
14:09:47:656809,27,-14,-49,-8,-9,-2,17,14
14:09:47:672624,-5,-24,-16,0,-22,-1,-20,-13
14:09:47:673316,-5,-24,-16,0,-22,-1,-20,-13
14:09:47:679291,-2,0,-22,1,12,-4,6,-1
14:09:47:686858,13,-12,-31,-17,5,1,45,11
14:09:47:694459,13,-12,-31,-17,5,1,45,11
14:09:47:701834,51,35,30,9,5,2,-23,-26
14:09:47:710072,31,23,34,0,-2,11,-13,7
14:09:47:710857,31,23,34,0,-2,11,-13,7
14:09:47:716857,-33,-42,27,-3,11,3,7,-13
14:09:47:732499,36,1,-20,-1,-10,-8,-26,22
14:09:47:733376,36,1,-20,-1,-10,-8,-26,22
14:09:47:739313,14,14,9,4,-27,-10,-34,26
14:09:47:746823,-25,-15,-4,-7,1,-6,-22,-9
14:09:47:754337,-25,-15,-4,-7,1,-6,-22,-9
14:09:47:761836,-5,35,-43,-5,-6,-8,-3,8
14:09:47:770082,-10,-35,-19,-18,-7,-16,-3,-37
14:09:47:770846,-10,-35,-19,-18,-7,-16,-3,-37
14:09:47:776844,-23,-17,34,11,13,9,15,9
14:09:47:792605,-4,22,1,-6,-9,-19,-32,-55
14:09:47:793318,-4,22,1,-6,-9,-19,-32,-55
14:09:47:799328,12,3,-19,-1,8,6,33,16
14:09:47:806818,-2,5,14,9,2,24,-1,13
14:09:47:814317,-2,5,14,9,2,24,-1,13
14:09:47:821833,-1,-14,-1,2,-6,-6,1,-20
14:09:47:830075,0,21,44,13,-13,-8,1,45
14:09:47:830809,0,21,44,13,-13,-8,1,45
14:09:47:836835,-2,8,8,-40,-3,7,15,-22
14:09:47:852598,-3,43,16,7,-1,1,0,29
14:09:47:853311,-3,43,16,7,-1,1,0,29
14:09:47:859334,-4,-22,7,7,-5,-9,-29,-2
14:09:47:866844,-24,-31,-29,-29,-10,-16,31,15
14:09:47:874478,-24,-31,-29,-29,-10,-16,31,15
14:09:47:881816,-9,-17,19,6,-3,-7,4,-4
14:09:47:890044,-3,8,-12,11,24,27,10,33
14:09:47:890800,-3,8,-12,11,24,27,10,33
14:09:47:896818,-6,-10,13,-3,-14,-9,-3,-17
14:09:47:912586,1,17,13,-4,-1,4,-1,7
14:09:47:913319,1,17,13,-4,-1,4,-1,7
14:09:47:919333,-16,38,37,14,17,15,-7,-28
14:09:47:926838,-8,-16,-44,-16,10,6,-22,-21
14:09:47:934501,-8,-16,-44,-16,10,6,-22,-21
14:09:47:941804,-6,-32,-54,-1,-7,-2,8,13
14:09:47:949956,17,4,21,-11,2,1,14,-19
14:09:47:950843,17,4,21,-11,2,1,14,-19
14:09:47:956796,7,9,6,15,-7,-11,16,-39
14:09:47:972603,-2,-20,-47,-8,4,13,30,48
14:09:47:973332,-2,-20,-47,-8,4,13,30,48
14:09:47:979316,-1,14,3,5,9,13,48,6
14:09:47:986846,22,30,21,19,15,13,13,56
14:09:47:994444,22,30,21,19,15,13,13,56
14:09:48:1821,-10,-11,49,2,-1,-3,-31,-10
14:09:48:9945,6,-13,-22,2,6,-4,-15,-28
