Time,EMG1,EMG2,EMG3,EMG4,EMG5,EMG6,EMG7,EMG8
13:42:05:468579,0,0,-3,-3,-1,0,-3,0
13:42:05:469351,-1,-4,-1,-1,0,-1,-2,-1
13:42:05:470232,0,-2,-1,0,-1,-2,-1,-1
13:42:05:471053,0,-2,-1,0,-1,-2,-1,-1
13:42:05:474693,-4,-1,-2,1,2,0,-1,-2
13:42:05:475429,3,-5,-2,-1,-2,-1,-1,2
13:42:05:476310,3,-5,-2,-1,-2,-1,-1,2
13:42:05:480843,3,-17,-3,0,-2,-1,-1,0
13:42:05:488331,-3,-4,-4,2,-3,0,-1,-2
13:42:05:495979,-3,-4,-4,2,-3,0,-1,-2
13:42:05:503341,1,3,-1,-2,0,-2,-1,-1
13:42:05:510863,2,3,1,1,0,0,-1,0
13:42:05:519082,2,3,1,1,0,0,-1,0
13:42:05:519848,-2,2,1,-1,0,0,0,0
13:42:05:534099,-3,-2,1,-2,-3,-1,-1,-2
13:42:05:534826,-3,-2,1,-2,-3,-1,-1,-2
13:42:05:540868,1,4,-1,-1,-2,-1,0,0
13:42:05:548346,1,-3,0,0,2,0,-1,-2
13:42:05:555859,1,-3,0,0,2,0,-1,-2
13:42:05:563341,1,2,-4,-1,-2,-2,-1,1
13:42:05:579725,-5,-6,-1,-3,-1,-3,-2,-2
13:42:05:580582,-5,-6,-1,-3,-1,-3,-2,-2
13:42:05:581315,-4,2,0,0,0,-1,-1,-1
13:42:05:594093,-2,-1,-1,0,0,0,0,-1
13:42:05:594837,-2,-1,-1,0,0,0,0,-1
13:42:05:600837,1,13,3,0,-3,-2,-2,1
13:42:05:608379,-1,1,-2,-2,0,-1,-1,0
13:42:05:615979,-1,1,-2,-2,0,-1,-1,0
13:42:05:623349,-3,-9,1,-1,1,-1,-2,-1
13:42:05:630846,1,1,0,0,-1,-2,1,-1
13:42:05:639087,1,1,0,0,-1,-2,1,-1
13:42:05:639823,-4,-3,-4,0,-1,1,-1,-4
13:42:05:654109,2,0,-3,-2,-1,-1,-2,0
13:42:05:654819,2,0,-3,-2,-1,-1,-2,0
13:42:05:677225,2,4,1,0,-2,1,0,0
13:42:05:678103,-6,9,1,-1,0,-1,-1,1
13:42:05:678805,-6,9,1,-1,0,-1,-1,1
13:42:05:700341,-1,0,-1,-2,-1,-1,-2,-1
13:42:05:701076,0,-2,0,0,-1,-2,-1,-1
13:42:05:701948,0,-2,0,0,-1,-2,-1,-1
13:42:05:702700,0,-2,-1,-1,-2,-2,-1,-2
13:42:05:722234,-1,-12,-4,-3,-1,-1,-2,-2
13:42:05:723087,-1,-12,-4,-3,-1,-1,-2,-2
13:42:05:723810,-2,-4,-4,-1,0,-2,0,0
13:42:05:728327,0,2,0,2,0,0,1,-1
13:42:05:735972,0,2,0,2,0,0,1,-1
13:42:05:743350,0,-6,-2,0,-1,0,1,-2
13:42:05:759718,-1,-1,1,-1,-4,-1,-3,-1
13:42:05:766576,-1,-1,1,-1,-4,-1,-3,-1
13:42:05:767340,0,-3,0,-2,-2,0,-1,-1
13:42:05:783354,0,-16,-6,-2,0,0,-1,-4
13:42:05:784084,0,-16,-6,-2,0,0,-1,-4
13:42:05:788963,-3,2,-1,-2,-1,0,-1,-2
13:42:05:789860,-1,1,-3,-1,0,-2,0,-1
13:42:05:795819,-1,1,-3,-1,0,-2,0,-1
13:42:05:803303,0,-4,-1,-2,-1,-3,-1,-1
13:42:05:810840,1,10,1,-1,0,-1,-1,1
13:42:05:819115,1,10,1,-1,0,-1,-1,1
13:42:05:819811,0,8,0,2,-1,0,-1,0
13:42:05:834104,1,0,-2,-3,-2,-1,-2,-1
13:42:05:834845,1,0,-2,-3,-2,-1,-2,-1
13:42:05:840832,-1,-2,-2,-1,0,-1,1,-2
13:42:05:848304,-2,-1,0,1,0,-1,0,-1
13:42:05:855944,-2,-1,0,1,0,-1,0,-1
13:42:05:863356,0,6,0,-2,0,-2,-1,0
13:42:05:870806,-1,-2,-1,-4,-4,-1,-1,0
13:42:05:879071,-1,-2,-1,-4,-4,-1,-1,0
13:42:05:879839,-4,-3,1,-1,-3,-3,-3,-2
13:42:05:894735,1,4,1,-1,-1,-1,-2,1
13:42:05:895590,1,4,1,-1,-1,-1,-2,1
13:42:05:900850,-2,-3,-3,-1,0,1,0,-2
13:42:05:908368,-3,2,1,0,0,1,-1,-2
13:42:05:915938,-3,2,1,0,0,1,-1,-2
13:42:05:923347,-3,5,-1,1,1,-2,-2,-2
13:42:05:930811,-1,-3,-1,-1,0,0,-1,-1
13:42:05:955501,-1,-3,-1,-1,0,0,-1,-1
13:42:05:956224,-6,-1,0,-2,-2,0,-3,0
13:42:05:957103,-5,11,-1,1,-2,-1,0,-2
13:42:05:957817,-5,11,-1,1,-2,-1,0,-2
13:42:05:977211,2,-8,-3,0,-1,-2,-2,0
13:42:05:977973,1,-5,-2,-1,-1,-1,-1,1
13:42:05:978842,1,-5,-2,-1,-1,-1,-1,1
13:42:05:983329,1,-1,-2,0,0,0,0,0
13:42:05:999712,-1,-4,-2,2,0,0,0,-4
13:42:06:577,-1,-4,-2,2,0,0,0,-4
13:42:06:1317,-2,-2,0,-1,-1,2,0,-3
13:42:06:22216,-4,-2,1,1,-3,-2,-1,-1
13:42:06:23077,-4,-2,1,1,-3,-2,-1,-1
13:42:06:23834,2,-3,-2,-3,-1,-1,-1,0
13:42:06:28317,1,-1,-1,-1,2,-1,0,-2
13:42:06:35943,1,-1,-1,-1,2,-1,0,-2
13:42:06:43340,3,-1,-3,-1,-2,-2,-2,2
13:42:06:50820,0,11,3,-3,-1,1,0,0
13:42:06:59471,0,11,3,-3,-1,1,0,0
13:42:06:65863,1,-9,-1,1,2,-1,1,-1
13:42:06:74074,-3,-9,-3,-1,-1,-3,-1,-2
13:42:06:74847,-3,-9,-3,-1,-1,-3,-1,-2
13:42:06:80835,-1,0,2,0,-2,0,0,-1
13:42:06:88319,0,0,-2,1,-1,-1,-1,-2
13:42:06:95863,0,0,-2,1,-1,-1,-1,-2
13:42:06:103358,-3,-2,-2,0,-1,-1,-3,-2
13:42:06:110833,-1,-7,-3,0,-2,0,-1,0
13:42:06:119090,-1,-7,-3,0,-2,0,-1,0
13:42:06:119801,-2,-2,0,-2,-1,-1,-1,-1
13:42:06:134080,-2,-11,-3,-3,-1,-2,-2,-2
13:42:06:134834,-2,-11,-3,-3,-1,-2,-2,-2
13:42:06:140848,0,2,-1,-1,0,-3,-2,0
13:42:06:148316,-5,-16,-1,-1,0,-2,-1,-1
13:42:06:155804,-5,-16,-1,-1,0,-2,-1,-1
13:42:06:163333,-3,3,0,-2,-1,-1,-1,-2
13:42:06:170836,1,1,-1,2,-1,0,-1,0
13:42:06:179111,1,1,-1,2,-1,0,-1,0
13:42:06:179857,-1,-2,-2,-3,-1,1,-2,-1
13:42:06:194113,0,5,1,-3,-1,-3,-1,-1
13:42:06:194874,0,5,1,-3,-1,-3,-1,-1
13:42:06:200824,-4,-16,-3,-2,-3,-2,-2,-3
13:42:06:208374,-1,2,-1,-2,-1,0,-2,-1
13:42:06:224437,-1,2,-1,-2,-1,0,-2,-1
13:42:06:231445,-3,-6,-2,-1,0,1,0,-3
13:42:06:232304,3,1,-1,0,-2,-2,-1,0
13:42:06:255334,3,1,-1,0,-2,-2,-1,0
13:42:06:256194,1,3,-2,-1,-3,-2,-1,1
13:42:06:257061,0,2,-2,-1,-3,-3,-1,1
13:42:06:257846,0,2,-2,-1,-3,-3,-1,1
13:42:06:260828,-2,-1,0,-2,0,-1,0,-1
13:42:06:276570,-1,-1,-3,-1,0,-2,-1,-3
13:42:06:277339,-1,-1,-3,-1,0,-2,-1,-3
13:42:06:283311,1,-7,-2,0,0,-1,-2,-1
13:42:06:290874,-3,3,0,-1,-1,2,0,-1
13:42:06:298465,-3,3,0,-1,-1,2,0,-1
13:42:06:305851,-3,-10,-3,-1,-1,-2,0,-2
13:42:06:322238,-2,-3,-2,-3,0,-1,-1,-2
13:42:06:323103,-2,-3,-2,-3,0,-1,-1,-2
13:42:06:323843,0,0,-1,-1,0,1,-1,-1
13:42:06:336574,-1,0,0,-2,-1,-2,-2,2
13:42:06:337304,-1,0,0,-2,-1,-2,-2,2
13:42:06:343407,0,5,0,0,-1,-3,-1,-1
13:42:06:350823,0,-1,-2,-1,-1,1,-1,-1
13:42:06:358400,0,-1,-2,-1,-1,1,-1,-1
13:42:06:365842,-1,3,-1,-1,-1,-2,0,0
13:42:06:374101,0,-2,0,-1,-3,-1,-2,-2
13:42:06:374827,0,-2,0,-1,-3,-1,-2,-2
13:42:06:380828,-3,5,0,-1,-1,-1,0,-1
13:42:06:396596,-3,-3,-1,0,0,-1,-1,-2
13:42:06:397316,-3,-3,-1,0,0,-1,-1,-2
13:42:06:403314,0,0,-1,-2,0,-1,-2,-1
13:42:06:410830,0,0,-1,1,-1,-1,-1,-1
13:42:06:418440,0,0,-1,1,-1,-1,-1,-1
13:42:06:425845,-1,1,0,-1,-1,-2,-3,-1
13:42:06:434104,0,-3,-1,0,0,-1,0,0
13:42:06:434815,0,-3,-1,0,0,-1,0,0
13:42:06:440831,0,0,-2,-1,-1,1,1,0
13:42:06:456585,-1,-2,-3,-1,-2,0,-2,-1
13:42:06:457333,-1,-2,-3,-1,-2,0,-2,-1
13:42:06:463376,-3,1,-1,1,0,1,-1,-2
13:42:06:470816,0,2,1,-1,-2,-1,0,1
13:42:06:478366,0,2,1,-1,-2,-1,0,1
13:42:06:485846,-3,-2,1,0,-1,-1,0,-1
13:42:06:494065,-1,-4,-2,1,1,0,-1,-1
13:42:06:494873,-1,-4,-2,1,1,0,-1,-1
13:42:06:508340,0,13,1,-1,-2,-1,-1,0
13:42:06:532831,2,13,6,1,0,-1,1,2
13:42:06:533712,2,13,6,1,0,-1,1,2
13:42:06:534439,-1,-4,-2,-1,0,-1,-1,0
13:42:06:535304,-1,-2,-4,-2,-1,1,-1,-1
13:42:06:538479,-1,-2,-4,-2,-1,1,-1,-1
13:42:06:545814,-4,-24,-3,-1,-2,-1,-1,-1
13:42:06:554100,-1,-6,-1,-3,-1,0,-3,0
13:42:06:554838,-1,-6,-1,-3,-1,0,-3,0
13:42:06:560841,1,-6,-3,-2,0,0,-1,0
13:42:06:576598,0,-3,-3,1,1,-1,1,-2
13:42:06:577371,0,-3,-3,1,1,-1,1,-2
13:42:06:583308,1,6,-2,-1,0,-2,-1,-2
13:42:06:590822,0,2,-1,-2,-1,-3,0,0
13:42:06:598316,0,2,-1,-2,-1,-3,0,0
13:42:06:605879,-1,2,-1,-2,-1,-2,0,-3
13:42:06:614130,-3,-4,-2,-1,-4,0,0,-1
13:42:06:614839,-3,-4,-2,-1,-4,0,0,-1
13:42:06:620827,0,4,-1,0,1,-1,-2,0
13:42:06:636458,-1,-2,0,-2,0,-3,-1,-1
13:42:06:637328,-1,-2,0,-2,0,-3,-1,-1
13:42:06:643345,2,5,2,-1,-1,-1,0,-1
13:42:06:650833,-1,-3,-2,0,-1,-1,0,-1
13:42:06:658336,-1,-3,-2,0,-1,-1,0,-1
13:42:06:665970,0,-4,-2,-1,-1,-1,-1,-1
13:42:06:674081,-2,-1,-2,-3,-2,-3,-1,-3
13:42:06:674837,-2,-1,-2,-3,-2,-3,-1,-3
13:42:06:680826,0,1,-1,0,0,0,-1,0
13:42:06:696472,1,1,-1,-1,0,-2,-2,-1
13:42:06:697339,1,1,-1,-1,0,-2,-2,-1
13:42:06:703344,-3,2,1,-2,-2,-4,-1,-1
13:42:06:710857,0,-4,0,0,0,-1,0,-1
13:42:06:718339,0,-4,0,0,0,-1,0,-1
13:42:06:725847,-1,-1,-1,0,0,0,-1,-1
13:42:06:734085,-2,-1,-1,-1,-1,-1,-1,-1
13:42:06:734828,-2,-1,-1,-1,-1,-1,-1,-1
13:42:06:748331,-1,-2,-2,-2,-1,1,-1,-2
13:42:06:756593,-1,1,0,1,0,1,-1,-2
13:42:06:757333,-1,1,0,1,0,1,-1,-2
13:42:06:771455,0,0,-1,-2,-2,-3,-1,-2
13:42:06:772326,-2,-2,0,-1,-2,0,0,-1
13:42:06:778360,-2,-2,0,-1,-2,0,0,-1
13:42:06:785819,-2,-3,0,-3,-1,-4,-1,-1
13:42:06:794101,-2,2,0,-1,1,-4,-2,0
13:42:06:794833,-2,2,0,-1,1,-4,-2,0
13:42:06:800844,-1,1,-3,-2,-1,-1,0,0
13:42:06:817204,-2,-3,-3,-3,-1,-1,-1,-2
13:42:06:818080,-2,-3,-3,-3,-1,-1,-1,-2
13:42:06:823329,-3,-1,0,0,-1,0,-2,-1
13:42:06:830845,0,0,0,0,-2,1,0,-1
13:42:06:838342,0,0,0,0,-2,1,0,-1
13:42:06:845843,0,-2,-2,-2,-1,-1,0,-2
13:42:06:854075,-1,-3,-1,-1,0,-2,0,-1
13:42:06:854824,-1,-3,-1,-1,0,-2,0,-1
13:42:06:860832,-1,-1,-2,-1,-2,-1,-1,1
13:42:06:877067,-1,0,0,-2,-1,0,1,1
13:42:06:877893,-1,0,0,-2,-1,0,1,1
13:42:06:883341,-1,0,0,0,-1,-1,-1,-1
13:42:06:890829,0,-1,-1,-2,-1,-2,-2,-1
13:42:06:898347,0,-1,-1,-2,-1,-2,-2,-1
13:42:06:905843,-1,-1,-1,-2,-2,1,-1,-2
13:42:06:914079,0,0,0,-1,-1,0,-1,-1
13:42:06:914825,0,0,0,-1,-1,0,-1,-1
13:42:06:920828,1,-2,-2,-1,-3,-2,-1,1
13:42:06:936575,-1,-1,-2,0,-1,-3,-1,-1
13:42:06:937323,-1,-1,-2,0,-1,-3,-1,-1
13:42:06:943379,-1,0,1,0,-2,-1,-2,1
13:42:06:950819,-2,-1,-1,-1,-1,0,-1,0
13:42:06:958471,-2,-1,-1,-1,-1,0,-1,0
13:42:06:965829,0,-2,-1,-2,-1,0,0,-2
13:42:06:974078,-1,-3,-4,-2,-2,-1,0,-2
13:42:06:974852,-1,-3,-4,-2,-2,-1,0,-2
13:42:06:980821,-1,-2,-2,1,-1,-1,-1,-1
13:42:06:996640,0,-1,0,-1,-1,-1,-1,-2
13:42:06:997344,0,-1,0,-1,-1,-1,-1,-2
13:42:07:3318,-1,-3,-1,1,1,-1,0,-1
13:42:07:10861,-1,-2,-2,-1,-2,-1,-1,-1
13:42:07:18335,-1,-2,-2,-1,-2,-1,-1,-1
13:42:07:25865,-2,-1,0,0,0,0,-2,-1
13:42:07:34064,1,-7,-2,-3,-1,0,-2,-2
13:42:07:34823,1,-7,-2,-3,-1,0,-2,-2
13:42:07:40843,-6,-1,1,-2,-3,0,-1,-3
13:42:07:56454,0,-2,-2,0,-2,1,1,0
13:42:07:57343,0,-2,-2,0,-2,1,1,0
13:42:07:63348,-1,-2,-1,-2,1,0,-1,-3
13:42:07:70814,-3,-2,0,-1,0,-1,-1,-1
13:42:07:78390,-3,-2,0,-1,0,-1,-1,-1
13:42:07:85835,0,-5,-2,-1,-1,-2,-2,0
13:42:07:94113,-2,-1,1,2,0,-1,-1,-1
13:42:07:94842,-2,-1,1,2,0,-1,-1,-1
13:42:07:108379,-1,-1,-2,-2,-1,-1,-2,1
13:42:07:116579,-1,1,-1,-1,-3,0,-2,0
13:42:07:117329,-1,1,-1,-1,-3,0,-2,0
13:42:07:123328,-1,-1,-2,-2,-3,-3,0,-2
13:42:07:130822,-3,-7,-2,-1,0,-1,-1,-2
13:42:07:138356,-3,-7,-2,-1,0,-1,-1,-2
13:42:07:145871,2,3,-1,-1,0,-1,1,0
13:42:07:154096,-2,-1,-1,0,-2,-2,-1,-3
13:42:07:154832,-2,-1,-1,0,-2,-2,-1,-3
13:42:07:160856,-2,1,2,0,-1,-1,-1,0
13:42:07:176593,-1,2,-2,-4,-2,-3,-2,0
13:42:07:177341,-1,2,-2,-4,-2,-3,-2,0
13:42:07:183348,3,-2,-2,-2,0,-1,0,0
13:42:07:190824,0,0,-3,-3,-2,0,-3,0
13:42:07:206618,0,0,-3,-3,-2,0,-3,0
13:42:07:207326,-2,0,-3,0,-1,-1,-2,-1
13:42:07:214066,4,3,0,2,0,0,-1,0
13:42:07:214817,4,3,0,2,0,0,-1,0
13:42:07:228399,-1,-1,0,-1,-1,-2,-1,1
13:42:07:236593,0,-11,-3,-1,-1,-2,0,1
13:42:07:237362,0,-11,-3,-1,-1,-2,0,1
13:42:07:243381,-2,3,0,0,-1,-1,0,-1
13:42:07:259181,-5,-1,1,-1,0,1,3,-3
13:42:07:259864,-5,-1,1,-1,0,1,3,-3
13:42:07:265836,-1,-1,-2,-2,-3,-1,0,-2
13:42:07:274118,0,0,-1,-1,-2,0,-3,-1
13:42:07:274835,0,0,-1,-1,-2,0,-3,-1
13:42:07:288328,-1,1,3,2,-1,0,-2,-1
13:42:07:296465,-8,6,4,0,-2,-1,0,-2
13:42:07:297364,-8,6,4,0,-2,-1,0,-2
13:42:07:303347,-1,-5,-2,-3,-1,-1,1,-2
13:42:07:319108,-3,-1,-1,0,1,0,0,0
13:42:07:319841,-3,-1,-1,0,1,0,0,0
13:42:07:325850,-1,0,0,1,-1,-1,-3,-2
13:42:07:334093,0,-1,-2,-1,2,-1,-2,-2
13:42:07:334834,0,-1,-2,-1,2,-1,-2,-2
13:42:07:348352,1,-1,-1,0,-1,-1,-3,-2
13:42:07:357218,1,-1,-1,0,-1,-1,-3,-2
13:42:07:358097,1,-1,-2,-3,-2,-3,-3,-2
13:42:07:363359,-1,-2,-2,-1,0,-1,0,0
13:42:07:387223,-1,-2,-2,-1,0,-1,0,0
13:42:07:388108,-1,-4,-1,0,1,1,-1,0
13:42:07:388869,0,0,-1,-2,-1,-1,0,0
13:42:07:410260,0,0,-1,-2,-1,-1,0,0
13:42:07:410996,-4,6,2,0,-2,-1,1,2
13:42:07:411851,-3,-1,-3,-1,0,1,-1,-2
13:42:07:432845,-3,-1,-3,-1,0,1,-1,-2
13:42:07:433702,1,-5,-3,-2,-4,-2,-2,-2
13:42:07:434449,-2,-3,-1,-1,-1,0,1,-3
13:42:07:447236,-2,-3,-1,-1,-1,0,1,-3
13:42:07:448106,1,-1,-1,-1,-3,-1,0,-2
13:42:07:448824,1,-2,-2,-2,-3,-2,-1,-2
13:42:07:461620,1,-2,-2,-2,-3,-2,-1,-2
13:42:07:462360,0,3,-1,-1,-1,0,-1,0
13:42:07:468335,-2,-3,-1,-2,0,-2,-2,-1
13:42:07:492259,-2,-3,-1,-2,0,-2,-2,-1
13:42:07:493092,0,-4,-1,0,-1,0,0,-1
13:42:07:493844,-2,2,1,-3,-3,-4,-5,1
13:42:07:499077,-2,2,1,-3,-3,-4,-5,1
13:42:07:499830,0,-1,-1,2,-2,-1,-2,-2
13:42:07:505837,-1,0,-2,-2,-2,0,-3,-1
13:42:07:521607,-1,0,-2,-2,-2,0,-3,-1
13:42:07:522359,0,-2,0,0,-2,-3,-2,-2
13:42:07:528344,-3,-3,-1,-1,-2,0,-1,-1
13:42:07:536479,-3,-3,-1,-1,-2,0,-1,-1
13:42:07:537334,0,0,0,5,4,0,-2,0
13:42:07:543357,2,0,-2,-1,0,0,0,-1
13:42:07:559141,2,0,-2,-1,0,0,0,-1
13:42:07:559831,-1,-2,-1,0,-2,0,0,-2
13:42:07:573412,-1,-1,0,-1,2,0,-1,0
13:42:07:581584,-1,-1,0,-1,2,0,-1,0
13:42:07:582322,-1,-2,-3,-4,-1,-4,-1,-1
13:42:07:588385,-3,-2,-2,0,-2,-1,1,0
13:42:07:596602,-3,-2,-2,0,-2,-1,1,0
13:42:07:597320,-1,0,-1,-1,1,-1,-5,-1
13:42:07:603325,0,-1,-2,-1,-2,-2,-3,0
13:42:07:619150,0,-1,-2,-1,-2,-2,-3,0
13:42:07:619848,-1,0,-3,-2,-3,-2,-3,-1
13:42:07:625880,1,-1,1,1,2,-2,-1,-3
13:42:07:641646,1,-1,1,1,2,-2,-1,-3
13:42:07:642328,0,-2,-3,-8,0,-3,-1,0
13:42:07:648334,-2,-2,-2,-2,-4,-1,0,-1
13:42:07:656597,-2,-2,-2,-2,-4,-1,0,-1
13:42:07:657396,-2,-1,0,1,-1,-1,1,-2
13:42:07:663376,-1,0,-1,-1,0,0,-1,-1
13:42:07:679087,-1,0,-1,-1,0,0,-1,-1
13:42:07:679854,-2,-2,0,0,-2,0,2,-1
13:42:07:685858,-2,-2,1,1,2,-3,-2,0
13:42:07:701609,-2,-2,1,1,2,-3,-2,0
13:42:07:702341,-1,-1,0,-1,1,1,-1,0
13:42:07:708378,-1,0,-2,1,-1,0,2,-2
13:42:07:724748,-1,0,-2,1,-1,0,2,-2
13:42:07:725489,-1,-3,-3,-1,-3,-3,-1,-1
13:42:07:726359,-2,0,1,-4,-1,-1,-2,-1
13:42:07:739105,-2,0,1,-4,-1,-1,-2,-1
13:42:07:739869,0,-1,0,-1,-4,-2,-3,-1
13:42:07:745850,0,-4,-2,2,0,1,1,-1
13:42:07:761554,0,-4,-2,2,0,1,1,-1
13:42:07:762355,-3,-2,-2,-2,-3,0,-1,-2
13:42:07:768341,-1,-3,0,-4,0,0,0,-1
13:42:07:776479,-1,-3,0,-4,0,0,0,-1
13:42:07:777389,1,0,-3,-2,0,-1,-2,0
13:42:07:783334,2,1,-2,2,0,-1,-1,-2
13:42:07:799079,2,1,-2,2,0,-1,-1,-2
13:42:07:799862,0,3,3,-1,-2,0,-1,-1
13:42:07:805831,-2,-2,1,-3,-4,-2,-2,0
13:42:07:829706,-2,-2,1,-3,-4,-2,-2,0
13:42:07:830462,-2,-7,-5,0,6,2,1,-1
13:42:07:831335,-2,-2,-5,-7,-5,-5,-3,-2
13:42:07:837194,-2,-2,-5,-7,-5,-5,-3,-2
13:42:07:838068,0,-1,-1,-3,-2,1,-1,-1
13:42:07:850843,-1,1,0,-5,0,-2,-2,-1
13:42:07:867270,-1,1,0,-5,0,-2,-2,-1
13:42:07:868107,-3,-4,0,0,-6,-3,0,0
13:42:07:868834,0,0,1,3,0,2,0,0
13:42:07:882221,0,0,1,3,0,2,0,0
13:42:07:883089,0,4,-2,1,-8,-4,-2,-2
13:42:07:888330,-2,0,0,0,2,-3,-1,-1
13:42:07:896605,-2,0,0,0,2,-3,-1,-1
13:42:07:897327,1,-3,0,-2,1,-2,0,0
13:42:07:903343,-2,-2,-1,-1,-6,-3,-1,-3
13:42:07:919079,-2,-2,-1,-1,-6,-3,-1,-3
13:42:07:919831,0,0,0,-2,-1,0,-1,-1
13:42:07:925864,0,-1,0,3,2,1,0,0
13:42:07:941520,0,-1,0,3,2,1,0,0
13:42:07:942355,0,-1,-2,0,3,1,-1,0
13:42:07:948329,0,-1,-5,-1,-1,-2,-1,0
13:42:07:957215,0,-1,-5,-1,-1,-2,-1,0
13:42:07:958084,-3,-3,-2,-3,-5,1,0,-3
13:42:07:963381,0,1,0,3,3,3,1,0
13:42:07:979992,0,1,0,3,3,3,1,0
13:42:07:980735,-1,-1,-2,-2,1,-5,-3,0
13:42:08:2234,0,-1,-1,-4,-1,-1,-2,-1
13:42:08:3080,0,-1,-1,-4,-1,-1,-2,-1
13:42:08:3832,0,1,2,-6,-2,-3,0,-1
13:42:08:8357,-3,-3,-2,-5,0,0,0,-2
13:42:08:16593,-3,-3,-2,-5,0,0,0,-2
13:42:08:17338,-1,-1,-3,1,-5,-2,-3,-3
13:42:08:23333,-3,-2,-1,2,-5,-4,-2,-2
13:42:08:39095,-3,-2,-1,2,-5,-4,-2,-2
13:42:08:39847,-2,-1,0,6,6,3,2,-2
13:42:08:45830,0,0,-2,1,0,-2,-2,-1
13:42:08:61616,0,0,-2,1,0,-2,-2,-1
13:42:08:62374,-2,-3,0,-3,-3,-2,-2,-1
13:42:08:68338,-3,-2,-2,-3,-2,-1,0,-1
13:42:08:76618,-3,-2,-2,-3,-2,-1,0,-1
13:42:08:77375,-1,-4,-2,-2,-1,-2,-1,-1
13:42:08:83367,1,-1,0,1,-6,2,0,-1
13:42:08:99135,1,-1,0,1,-6,2,0,-1
13:42:08:99861,-3,0,-2,0,-3,-3,-3,0
13:42:08:105836,-3,-2,0,3,8,-1,-3,0
13:42:08:121592,-3,-2,0,3,8,-1,-3,0
13:42:08:122344,0,0,2,3,3,1,-1,-1
13:42:08:128369,-2,-1,-1,-1,2,2,1,-2
13:42:08:136962,-2,-1,-1,-1,2,2,1,-2
13:42:08:144028,-2,-3,-3,-5,-4,-2,-4,-3
13:42:08:144860,-2,-1,-2,-2,1,-1,-1,-3
13:42:08:167241,-2,-1,-2,-2,1,-1,-1,-3
13:42:08:167962,-1,2,-1,3,-4,-2,-1,0
13:42:08:168839,1,1,1,-2,0,1,2,-1
13:42:08:189727,1,1,1,-2,0,1,2,-1
13:42:08:190493,1,0,1,2,1,3,3,0
13:42:08:191386,0,-2,0,-7,-9,-5,-3,1
13:42:08:196615,0,-2,0,-7,-9,-5,-3,1
13:42:08:197333,0,-1,0,3,9,3,-1,-2
13:42:08:210899,0,-2,-3,-1,-1,-2,-2,-3
13:42:08:219122,0,-2,-3,-1,-1,-2,-2,-3
13:42:08:219848,-2,0,-3,-3,-2,1,-1,0
13:42:08:225858,-1,3,5,0,1,2,-1,-2
13:42:08:241621,-1,3,5,0,1,2,-1,-2
13:42:08:242346,-1,-5,-10,-3,-1,-2,-1,-2
13:42:08:248340,-3,-9,-11,-5,-3,-1,-1,0
13:42:08:256604,-3,-9,-11,-5,-3,-1,-1,0
13:42:08:257355,-1,-1,-7,-3,-1,-2,-1,-1
13:42:08:280130,-1,3,-1,4,-4,-4,-3,-3
13:42:08:280977,-1,3,-1,4,-4,-4,-3,-3
13:42:08:281733,1,9,14,4,2,4,2,0
13:42:08:285860,-3,-10,-12,-3,0,0,0,-1
13:42:08:301643,-3,-10,-12,-3,0,0,0,-1
13:42:08:302345,-2,-8,9,0,-7,-8,-5,-2
13:42:08:308375,2,9,9,-1,-4,-5,-2,0
13:42:08:316486,2,9,9,-1,-4,-5,-2,0
13:42:08:317371,-5,-15,-25,-4,-1,-1,0,-1
13:42:08:330861,-2,-13,-10,-2,-4,-3,-2,-1
13:42:08:339101,-2,-13,-10,-2,-4,-3,-2,-1
13:42:08:339845,7,23,23,10,1,-4,-2,-3
13:42:08:345909,4,15,26,1,4,5,3,4
13:42:08:361644,4,15,26,1,4,5,3,4
13:42:08:362373,-6,-13,-19,-9,-4,-2,-1,-3
13:42:08:368416,2,21,40,4,0,-1,0,18
13:42:08:376634,2,21,40,4,0,-1,0,18
13:42:08:377346,10,-10,-14,-3,-2,-5,4,42
13:42:08:390877,-1,-8,-15,-4,1,1,3,6
13:42:08:399100,-1,-8,-15,-4,1,1,3,6
13:42:08:399849,0,21,24,6,1,-1,-3,-14
13:42:08:405830,0,-18,-30,-6,-2,-1,-1,-6
13:42:08:422123,0,-18,-30,-6,-2,-1,-1,-6
13:42:08:422856,-7,-17,-22,-9,-3,0,0,-7
13:42:08:428367,-2,-1,25,7,-2,-3,-2,20
13:42:08:443852,-2,-1,25,7,-2,-3,-2,20
13:42:08:451479,3,2,20,6,0,2,2,7
13:42:08:452352,-9,-9,-37,-13,-2,-2,-3,-20
13:42:08:459158,-9,-9,-37,-13,-2,-2,-3,-20
13:42:08:459892,1,15,20,7,3,3,-1,-7
13:42:08:465855,2,-4,-25,1,2,-1,2,3
13:42:08:481625,2,-4,-25,1,2,-1,2,3
13:42:08:482361,0,2,14,2,2,3,-3,-10
13:42:08:488363,-6,-18,3,-1,-4,-4,-6,-13
13:42:08:496637,-6,-18,3,-1,-4,-4,-6,-13
13:42:08:497336,3,-2,6,3,2,3,3,-5
13:42:08:510875,-2,1,13,0,-2,0,-1,3
13:42:08:519475,-2,1,13,0,-2,0,-1,3
13:42:08:526514,1,2,-25,-12,0,-3,0,9
13:42:08:527350,-5,12,24,2,1,1,-4,-60
13:42:08:549737,-5,12,24,2,1,1,-4,-60
13:42:08:550462,-4,8,21,0,1,-1,0,-25
13:42:08:551395,-8,0,-7,-8,-5,-2,1,1
13:42:08:556476,-8,0,-7,-8,-5,-2,1,1
13:42:08:557351,-4,10,0,0,-3,-3,-6,-8
13:42:08:571368,-4,-28,-15,2,-4,-1,-1,4
13:42:08:579111,-4,-28,-15,2,-4,-1,-1,4
13:42:08:579878,0,-5,-14,-2,-4,-4,-1,6
13:42:08:593379,6,4,-2,3,2,0,-1,11
13:42:08:601612,6,4,-2,3,2,0,-1,11
13:42:08:602347,-5,-18,28,4,-2,0,-1,2
13:42:08:617224,4,-11,-34,-7,0,-1,-2,-44
13:42:08:618089,4,-11,-34,-7,0,-1,-2,-44
13:42:08:618828,-5,-23,-21,-3,-6,-4,-6,-7
13:42:08:630861,-3,-6,-6,-1,0,1,1,12
13:42:08:639084,-3,-6,-6,-1,0,1,1,12
13:42:08:639860,-5,-7,-3,-3,-1,-2,0,-4
13:42:08:645854,7,21,17,6,0,-1,0,25
13:42:08:661638,7,21,17,6,0,-1,0,25
13:42:08:662360,-1,0,-3,-12,-4,0,-1,1
13:42:08:668349,-2,6,2,-8,-5,-2,-1,2
13:42:08:676616,-2,6,2,-8,-5,-2,-1,2
13:42:08:677353,0,0,-24,0,3,1,-2,19
13:42:08:690859,-5,-4,-11,-9,-5,-4,-4,-2
13:42:08:699098,-5,-4,-11,-9,-5,-4,-4,-2
13:42:08:699844,-2,2,13,4,6,2,4,-9
13:42:08:713387,7,6,-11,-6,-2,-3,-1,-48
13:42:08:721587,7,6,-11,-6,-2,-3,-1,-48
13:42:08:722346,0,20,-3,3,-3,-2,-2,-8
13:42:08:728356,-7,3,8,2,-1,-1,1,16
13:42:08:736588,-7,3,8,2,-1,-1,1,16
13:42:08:737390,1,-3,-8,-6,-1,0,0,-3
13:42:08:750855,4,4,2,7,2,1,-2,10
13:42:08:759139,4,4,2,7,2,1,-2,10
13:42:08:759887,-1,8,4,-1,-1,-2,0,11
13:42:08:765854,3,5,38,17,7,3,0,8
13:42:08:781335,3,5,38,17,7,3,0,8
13:42:08:788988,-2,-9,12,5,-6,-3,-3,-7
13:42:08:789731,-4,1,22,-5,-2,1,1,5
13:42:08:796622,-4,1,22,-5,-2,1,1,5
13:42:08:797364,1,0,-13,-3,2,-2,-2,-1
13:42:08:810884,-2,-12,-2,0,0,-3,-1,11
13:42:08:819081,-2,-12,-2,0,0,-3,-1,11
13:42:08:819854,-3,-11,-8,-6,-1,0,-1,-6
13:42:08:825880,-1,-5,-19,-7,-1,0,-2,3
13:42:08:841491,-1,-5,-19,-7,-1,0,-2,3
13:42:08:842393,0,9,3,2,-2,-2,-3,0
13:42:08:848353,0,-3,-22,0,-2,-3,-2,5
13:42:08:856466,0,-3,-22,0,-2,-3,-2,5
13:42:08:857350,-2,-5,-8,-2,0,2,3,-16
13:42:08:870885,-5,-13,1,-2,-2,-2,-5,0
13:42:08:879146,-5,-13,1,-2,-2,-2,-5,0
13:42:08:879870,0,-1,-7,-4,-3,-3,-1,3
13:42:08:885918,1,4,1,3,1,1,0,-2
13:42:08:901480,1,4,1,3,1,1,0,-2
13:42:08:902375,1,14,1,-3,0,0,-1,3
13:42:08:908369,0,2,1,1,0,-2,-1,4
13:42:08:916467,0,2,1,1,0,-2,-1,4
13:42:08:917339,0,1,-3,-4,-4,-1,-2,1
13:42:08:930856,0,9,-1,1,-1,-2,-1,-1
13:42:08:939130,0,9,-1,1,-1,-2,-1,-1
13:42:08:939837,1,0,3,2,-1,0,9,7
13:42:08:945838,2,-4,-5,-3,-2,0,-1,1
13:42:08:953391,2,-4,-5,-3,-2,0,-1,1
13:42:08:960875,-4,-14,-5,0,3,1,-7,-1
13:42:08:968369,-1,6,7,-7,-5,-3,1,-3
13:42:08:976598,-1,6,7,-7,-5,-3,1,-3
13:42:08:977348,-8,-19,-7,-22,-3,-3,-4,-3
13:42:08:990885,-3,-7,0,-3,-2,-1,-1,0
13:42:08:999099,-3,-7,0,-3,-2,-1,-1,0
13:42:08:999854,-1,-6,-2,4,-1,-1,0,0
13:42:09:5876,-3,-3,-1,-2,-1,-2,-1,0
13:42:09:21476,-3,-3,-1,-2,-1,-2,-1,0
13:42:09:22374,1,1,-2,8,4,-1,-1,-1
13:42:09:44765,0,-7,-4,1,0,-1,1,-1
13:42:09:45495,0,-7,-4,1,0,-1,1,-1
13:42:09:46346,2,8,-2,-2,-6,-1,-4,0
13:42:09:50848,2,-1,-3,-4,2,1,-1,0
13:42:09:67218,2,-1,-3,-4,2,1,-1,0
13:42:09:68083,0,1,1,-2,-2,0,-1,-1
13:42:09:68830,-2,3,2,6,3,0,-3,0
13:42:09:89748,-2,3,2,6,3,0,-3,0
13:42:09:90459,-2,0,-4,0,1,1,0,-2
13:42:09:91363,0,3,3,5,-2,-2,-3,-1
13:42:09:96629,0,3,3,5,-2,-2,-3,-1
13:42:09:97332,-6,-2,-4,-1,-1,-1,-1,-1
13:42:09:119742,-2,2,4,1,1,-1,-1,0
13:42:09:120491,-2,2,4,1,1,-1,-1,0
13:42:09:121353,3,16,2,-2,-3,-1,-1,1
13:42:09:133763,-2,5,-2,0,-3,-2,0,-2
13:42:09:141653,-2,5,-2,0,-3,-2,0,-2
13:42:09:142375,-3,-11,-1,-1,-2,-1,-1,0
13:42:09:156492,-3,-14,3,0,-1,0,-1,-1
13:42:09:157350,-3,-14,3,0,-1,0,-1,-1
13:42:09:163387,-2,-4,-3,-2,-2,-4,-1,-3
13:42:09:170835,1,1,-3,7,1,0,0,0
13:42:09:179091,1,1,-3,7,1,0,0,0
13:42:09:179845,-1,-4,-2,-2,-1,-3,-4,-3
13:42:09:194113,-1,1,-2,-3,0,-2,-1,-3
13:42:09:194860,-1,1,-2,-3,0,-2,-1,-3
13:42:09:200844,4,11,-1,0,-1,-1,-1,0
13:42:09:208385,-1,-12,-7,-9,3,2,1,0
13:42:09:215867,-1,-12,-7,-9,3,2,1,0
13:42:09:231478,-2,3,5,3,-2,-2,0,-1
13:42:09:232210,2,20,10,-1,-2,0,0,0
13:42:09:239129,2,20,10,-1,-2,0,0,0
13:42:09:239839,0,6,7,-3,-3,-3,1,-1
13:42:09:254122,-1,-1,0,3,0,-2,-2,0
13:42:09:254861,-1,-1,0,3,0,-2,-2,0
13:42:09:260870,-1,-7,-2,-1,-2,1,-2,0
13:42:09:268376,1,-2,-8,-5,-3,-1,2,4
13:42:09:275879,1,-2,-8,-5,-3,-1,2,4
13:42:09:283340,-4,-16,-10,-7,-4,-4,-18,-15
13:42:09:290852,-2,-4,-4,0,1,1,-2,0
13:42:09:299112,-2,-4,-4,0,1,1,-2,0
13:42:09:299854,7,4,2,3,0,3,16,16
13:42:09:314098,-1,0,0,-4,-5,-5,-13,-5
13:42:09:314840,-1,0,0,-4,-5,-5,-13,-5
13:42:09:320853,-4,-2,-2,-5,-1,-1,1,4
13:42:09:328388,-2,-1,0,-1,-2,-1,2,-2
13:42:09:344126,-2,-1,0,-1,-2,-1,2,-2
13:42:09:344847,-1,-8,-2,3,1,-2,-1,-2
13:42:09:350875,2,14,-3,-4,-1,0,-2,-4
13:42:09:366502,2,14,-3,-4,-1,0,-2,-4
13:42:09:367344,0,1,-2,0,0,-1,-3,0
13:42:09:374128,-2,-2,-3,1,2,-1,0,-1
13:42:09:374840,-2,-2,-3,1,2,-1,0,-1
13:42:09:389098,-1,-4,0,1,2,-1,-1,0
13:42:09:389854,-1,-2,0,0,-4,0,3,2
13:42:09:395871,-1,-2,0,0,-4,0,3,2
13:42:09:403345,-1,-1,-1,1,-2,-1,-6,-5
13:42:09:410863,1,6,0,0,0,-1,0,0
13:42:09:419110,1,6,0,0,0,-1,0,0
13:42:09:419852,-2,-6,-1,0,0,-1,0,1
13:42:09:434492,-1,-1,-4,-3,0,0,1,-2
13:42:09:435358,-1,-1,-4,-3,0,0,1,-2
13:42:09:440875,-3,-9,-5,-3,-1,0,1,-1
13:42:09:448354,-2,-5,-2,-2,-2,-4,-2,0
13:42:09:455871,-2,-5,-2,-2,-2,-4,-2,0
13:42:09:463409,-2,-1,-1,3,-2,-1,0,-2
13:42:09:470901,-3,-10,-5,-5,-4,-2,-2,-2
13:42:09:479096,-3,-10,-5,-5,-4,-2,-2,-2
13:42:09:479886,0,2,-1,1,5,0,0,-2
13:42:09:494142,-5,-6,-3,-3,0,0,-1,-4
13:42:09:494878,-5,-6,-3,-3,0,0,-1,-4
13:42:09:500843,-1,5,1,-3,-4,0,-2,0
13:42:09:508379,0,-1,1,4,0,-2,-1,1
13:42:09:524153,0,-1,1,4,0,-2,-1,1
13:42:09:524858,-3,-8,1,-4,0,1,-2,-2
13:42:09:530856,-3,-3,-2,0,0,-1,-1,-1
13:42:09:539114,-3,-3,-2,0,0,-1,-1,-1
13:42:09:539845,1,29,2,-2,-4,-1,-2,-2
13:42:09:554124,1,5,3,6,5,0,0,-2
13:42:09:554854,1,5,3,6,5,0,0,-2
13:42:09:560881,-2,-9,-3,0,0,-2,-1,0
13:42:09:568423,0,-3,-5,-4,-4,0,1,0
13:42:09:575868,0,-3,-5,-4,-4,0,1,0
13:42:09:583344,0,-1,3,-1,-2,-1,-2,-3
13:42:09:590892,-1,-5,-2,-10,-3,-2,-2,-2
13:42:09:599097,-1,-5,-2,-10,-3,-2,-2,-2
13:42:09:599863,-3,-6,-5,-7,-2,-2,0,-1
13:42:09:614112,-1,-11,4,2,-1,-2,-2,-1
13:42:09:614864,-1,-11,4,2,-1,-2,-2,-1
13:42:09:620855,-1,0,-3,-1,-4,-3,-1,1
13:42:09:628429,4,9,-5,4,-3,-2,-1,-4
13:42:09:635852,4,9,-5,4,-3,-2,-1,-4
13:42:09:643383,-3,-4,-1,-2,0,-2,-2,0
13:42:09:650865,-1,6,0,-1,-1,1,0,-1
13:42:09:666505,-1,6,0,-1,-1,1,0,-1
13:42:09:667381,4,8,-3,1,2,1,-1,-1
13:42:09:674129,0,-1,-4,-2,0,0,0,-1
13:42:09:674858,0,-1,-4,-2,0,0,0,-1
13:42:09:688989,-1,-8,-1,1,1,-1,-1,-3
13:42:09:689729,3,-2,-2,-4,-4,-2,-1,1
13:42:09:695871,3,-2,-2,-4,-4,-2,-1,1
13:42:09:711526,-4,-1,-1,-2,-1,-2,-1,-2
13:42:09:712257,-4,-16,1,7,2,1,-1,-2
13:42:09:719126,-4,-16,1,7,2,1,-1,-2
13:42:09:719880,-1,-9,0,-3,1,2,-1,0
13:42:09:734104,0,-6,-5,-3,0,0,1,3
13:42:09:734741,0,-6,-5,-3,0,0,1,3
13:42:09:740850,2,1,2,1,-3,-3,0,-2
13:42:09:748351,-3,3,0,2,0,-1,-3,-4
13:42:09:755877,-3,3,0,2,0,-1,-3,-4
13:42:09:763395,5,-2,-3,-3,-1,-3,-2,-1
13:42:09:770864,0,2,1,-3,-1,-2,0,-1
13:42:09:779119,0,2,1,-3,-1,-2,0,-1
13:42:09:779888,-4,4,-2,-1,1,-1,-2,-1
13:42:09:794117,-6,-17,-5,-5,0,-2,-1,-3
13:42:09:794861,-6,-17,-5,-5,0,-2,-1,-3
13:42:09:800862,0,2,2,3,-3,1,2,-1
13:42:09:808364,-7,2,4,-2,-1,-1,-2,-2
13:42:09:815862,-7,2,4,-2,-1,-1,-2,-2
13:42:09:823339,-3,-5,-3,0,0,1,-1,-1
13:42:09:830871,1,1,-1,2,-1,-3,-1,-1
13:42:09:839104,1,1,-1,2,-1,-3,-1,-1
13:42:09:839875,-1,-2,2,1,-1,0,0,-1
13:42:09:854511,5,15,2,-3,-3,-2,0,3
13:42:09:861677,5,15,2,-3,-3,-2,0,3
13:42:09:862372,1,-1,-2,1,-1,-1,-1,-1
13:42:09:868365,-1,6,-2,-2,-3,-2,-2,-1
13:42:09:875922,-1,6,-2,-2,-3,-2,-2,-1
13:42:09:883367,-1,4,2,-4,-3,-3,-1,0
13:42:09:899739,6,2,-3,1,1,0,-1,2
13:42:09:900477,6,2,-3,1,1,0,-1,2
13:42:09:901358,2,-2,-4,-4,0,-2,-3,0
13:42:09:913736,-3,-6,-1,-3,-2,-2,-3,-2
13:42:09:921611,-3,-6,-1,-3,-2,-2,-3,-2
13:42:09:922354,-1,-2,0,-2,1,0,-2,-1
13:42:09:928378,-2,-4,-3,-3,-2,-1,-4,-2
13:42:09:944139,-2,-4,-3,-3,-2,-1,-4,-2
13:42:09:944887,-6,-28,-4,-5,-5,-2,-2,-3
13:42:09:950888,-3,2,1,-6,-3,-1,-2,0
13:42:09:959140,-3,2,1,-6,-3,-1,-2,0
13:42:09:959860,-2,0,1,2,2,-1,-1,1
13:42:09:974119,-2,0,1,0,-2,-1,0,-2
13:42:09:974865,-2,0,1,0,-2,-1,0,-2
13:42:09:980881,0,7,-2,-3,-1,-1,-1,-1
13:42:09:988358,-1,-3,-5,9,1,0,1,-1
13:42:09:995895,-1,-3,-5,9,1,0,1,-1
13:42:10:3363,-4,-2,-1,-1,0,0,0,-3
13:42:10:10889,0,3,0,-1,-3,-2,1,-2
13:42:10:19114,0,3,0,-1,-3,-2,1,-2
13:42:10:19842,7,-5,-5,-3,-4,-2,-3,0
13:42:10:34104,-1,-5,-1,-1,6,4,0,-1
13:42:10:34846,-1,-5,-1,-1,6,4,0,-1
13:42:10:40857,3,9,1,-1,-1,-1,0,1
13:42:10:48352,0,-3,1,-2,-1,-1,0,-1
13:42:10:55870,0,-3,1,-2,-1,-1,0,-1
13:42:10:63400,-7,-13,-2,-3,-4,-3,-3,-1
13:42:10:70870,-2,-4,-2,-2,1,0,-1,-1
13:42:10:78416,-2,-4,-2,-2,1,0,-1,-1
13:42:10:85883,-4,-12,-6,1,-3,-1,0,-2
13:42:10:94128,0,1,0,-3,-3,-2,0,-1
13:42:10:94949,0,1,0,-3,-3,-2,0,-1
13:42:10:100863,-1,8,3,2,-1,-3,2,-1
13:42:10:116509,-3,-9,-6,-5,-2,0,-1,-2
13:42:10:117375,-3,-9,-6,-5,-2,0,-1,-2
13:42:10:123385,-1,7,-2,-1,-1,0,-1,-1
13:42:10:130854,1,13,6,1,-1,-3,-1,-2
13:42:10:138373,1,13,6,1,-1,-3,-1,-2
13:42:10:145865,-3,9,4,0,0,-2,-4,-3
13:42:10:154105,-3,-11,0,-2,-3,-3,-2,0
13:42:10:154866,-3,-11,0,-2,-3,-3,-2,0
13:42:10:160878,-5,8,-3,1,3,-1,-1,-3
13:42:10:176508,0,-2,5,2,0,-1,-3,-2
13:42:10:177412,0,-2,5,2,0,-1,-3,-2
13:42:10:183371,3,-5,-10,2,1,1,2,2
13:42:10:190884,-2,6,-2,-2,-2,-3,-1,2
13:42:10:198373,-2,6,-2,-2,-2,-3,-1,2
13:42:10:205864,1,22,0,0,1,0,-2,2
13:42:10:214490,0,-27,-22,-3,-2,-2,-2,-12
13:42:10:221635,0,-27,-22,-3,-2,-2,-2,-12
13:42:10:222386,-3,-15,-15,-7,-1,1,0,2
13:42:10:236478,4,28,43,13,2,2,0,12
13:42:10:237371,4,28,43,13,2,2,0,12
13:42:10:243389,-4,-24,-17,-5,-5,-3,-2,22
13:42:10:250861,-4,20,9,-4,-1,-1,6,1
13:42:10:258380,-4,20,9,-4,-1,-1,6,1
13:42:10:265889,-6,-22,-16,0,3,4,3,5
13:42:10:274014,-6,-29,-8,-2,-5,-4,-7,-9
13:42:10:274874,-6,-29,-8,-2,-5,-4,-7,-9
13:42:10:280856,1,-9,-41,-6,-2,1,2,-8
13:42:10:296523,-2,-5,-16,-9,-2,-2,-5,-10
13:42:10:297359,-2,-5,-16,-9,-2,-2,-5,-10
13:42:10:303350,6,9,26,10,3,2,0,-1
13:42:10:310896,1,-3,-10,10,4,1,-2,10
13:42:10:318349,1,-3,-10,10,4,1,-2,10
13:42:10:325915,-2,-24,16,7,-3,-4,-4,-14
13:42:10:334004,2,11,-37,-7,-3,-2,4,0
13:42:10:334865,2,11,-37,-7,-3,-2,4,0
13:42:10:340868,-1,4,-4,-13,-3,-2,10,-9
13:42:10:356494,0,-1,21,-1,2,1,1,1
13:42:10:357368,0,-1,21,-1,2,1,1,1
13:42:10:363406,0,10,13,2,2,1,-5,6
13:42:10:370877,-14,-42,-42,-23,-10,-5,-2,-10
13:42:10:378446,-14,-42,-42,-23,-10,-5,-2,-10
13:42:10:385920,-12,-19,-22,-16,-2,-1,-5,-11
13:42:10:394147,5,20,21,14,1,-1,-2,8
13:42:10:394881,5,20,21,14,1,-1,-2,8
13:42:10:400869,8,5,21,4,0,-1,3,-1
13:42:10:416498,9,57,13,5,-2,-3,-3,0
13:42:10:417354,9,57,13,5,-2,-3,-3,0
13:42:10:423369,-11,-9,0,0,-3,0,-3,-10
13:42:10:439013,-3,-1,13,3,-3,-1,-2,6
13:42:10:439897,-3,-1,13,3,-3,-1,-2,6
13:42:10:445873,6,20,31,11,3,0,-8,-5
13:42:10:454124,-6,1,10,-4,-4,-1,-4,-4
13:42:10:454755,-6,1,10,-4,-4,-1,-4,-4
13:42:10:460902,-23,-32,-48,-22,-19,-15,-12,-18
13:42:10:476548,2,-30,-78,-18,1,5,2,9
13:42:10:477372,2,-30,-78,-18,1,5,2,9
13:42:10:483364,2,15,6,-1,0,-1,10,24
13:42:10:490871,6,-12,7,-4,2,3,22,27
13:42:10:498359,6,-12,7,-4,2,3,22,27
13:42:10:505876,2,7,16,-1,1,1,-1,-4
13:42:10:514120,12,2,43,13,3,3,12,13
13:42:10:514842,12,2,43,13,3,3,12,13
13:42:10:520883,10,46,58,35,17,9,8,31
13:42:10:536514,0,21,-6,-14,0,3,1,1
13:42:10:537399,0,21,-6,-14,0,3,1,1
13:42:10:543369,-1,9,-36,-10,-3,-2,-3,-1
13:42:10:550877,-10,9,22,0,-4,-8,-14,-26
13:42:10:558397,-10,9,22,0,-4,-8,-14,-26
13:42:10:565891,4,0,-2,-13,-6,-2,-6,-20
13:42:10:574141,-2,3,-2,2,2,3,-2,-10
13:42:10:574889,-2,3,-2,2,2,3,-2,-10
13:42:10:580864,1,-3,-12,-1,-2,-3,-5,-5
13:42:10:596552,-5,-11,8,-4,-2,-3,-5,3
13:42:10:597377,-5,-11,8,-4,-2,-3,-5,3
13:42:10:603378,-5,-4,4,12,-3,-4,-3,-5
13:42:10:610879,-2,-18,-38,-2,-2,0,-2,-9
13:42:10:618377,-2,-18,-38,-2,-2,0,-2,-9
13:42:10:625892,6,2,7,-3,-2,-2,-2,17
13:42:10:633381,3,-1,-1,4,-1,-2,-7,-10
13:42:10:641629,3,-1,-1,4,-1,-2,-7,-10
13:42:10:642387,-2,0,-11,0,-2,-2,0,5
13:42:10:656506,-5,-4,8,3,5,1,-1,-3
13:42:10:657381,-5,-4,8,3,5,1,-1,-3
13:42:10:663409,-4,4,23,-2,-2,-1,-2,-15
13:42:10:670877,-5,5,-8,-2,0,2,0,-4
13:42:10:678392,-5,5,-8,-2,0,2,0,-4
13:42:10:685871,-1,-17,-26,0,0,-3,-5,-7
13:42:10:693384,-2,-7,8,8,-1,-4,-4,4
13:42:10:701510,-2,-7,8,8,-1,-4,-4,4
13:42:10:702367,2,1,23,7,-2,-2,-4,-2
13:42:10:716500,-1,-16,2,8,7,1,0,-2
13:42:10:717361,-1,-16,2,8,7,1,0,-2
13:42:10:723396,-2,10,8,-5,-4,-1,0,-6
13:42:10:730865,0,3,1,-2,-3,-1,4,0
13:42:10:738385,0,3,1,-2,-3,-1,4,0
13:42:10:745790,-4,-17,-10,-2,-1,0,0,-1
13:42:10:754136,-7,-7,-1,-2,-3,-2,-3,-3
13:42:10:754737,-7,-7,-1,-2,-3,-2,-3,-3
13:42:10:760900,1,-4,-3,-2,0,2,2,-4
13:42:10:776519,3,1,-3,-2,-2,-2,-2,-3
13:42:10:777397,3,1,-3,-2,-2,-2,-2,-3
13:42:10:783234,-1,-6,-19,-6,-1,-1,1,3
13:42:10:790900,0,-10,3,0,-1,-3,-4,-1
13:42:10:798380,0,-10,3,0,-1,-3,-4,-1
13:42:10:805902,-1,4,5,-1,-2,1,2,-1
13:42:10:822151,0,-4,-6,-3,1,-2,-2,-4
13:42:10:823011,0,-4,-6,-3,1,-2,-2,-4
13:42:10:823885,0,-1,3,5,0,-2,-1,-1
13:42:10:836512,1,-1,3,1,-1,3,1,1
13:42:10:837371,1,-1,3,1,-1,3,1,1
13:42:10:843383,-8,-17,-8,-3,-2,-1,-1,-4
13:42:10:850887,-3,1,-3,-2,-5,-3,-1,2
13:42:10:858367,-3,1,-3,-2,-5,-3,-1,2
13:42:10:865878,6,28,10,6,5,1,1,0
13:42:10:873304,-5,-8,-14,-4,-3,-5,-5,-3
13:42:10:881494,-5,-8,-14,-4,-3,-5,-5,-3
13:42:10:882354,2,-12,-21,-9,0,0,0,1
13:42:10:896511,0,2,5,3,0,0,0,-2
13:42:10:897380,0,2,5,3,0,0,0,-2
13:42:10:903375,-2,-11,-4,-3,2,1,2,0
13:42:10:910889,-5,-9,8,-3,-2,1,0,-2
13:42:10:918397,-5,-9,8,-3,-2,1,0,-2
13:42:10:925923,1,7,7,3,-2,0,2,-1
13:42:10:933352,1,-8,-4,1,-1,-3,-4,0
13:42:10:941687,1,-8,-4,1,-1,-3,-4,0
13:42:10:942403,5,10,4,-3,0,-1,-2,2
13:42:10:956523,-3,2,3,-4,-2,-2,-2,-4
13:42:10:957371,-3,2,3,-4,-2,-2,-2,-4
13:42:10:963388,-3,-4,-4,-3,-2,-3,-4,-14
13:42:10:970889,2,0,3,-4,-1,-2,0,-5
13:42:10:978403,2,0,3,-4,-1,-2,0,-5
13:42:10:985919,-6,-11,5,2,-2,-2,-1,4
13:42:10:993410,1,8,1,-3,-2,-1,-2,6
13:42:11:1612,1,8,1,-3,-2,-1,-2,6
13:42:11:2363,-6,3,14,0,0,-2,-6,-5
13:42:11:16512,-1,4,0,0,-1,-2,-9,0
13:42:11:17358,-1,4,0,0,-1,-2,-9,0
13:42:11:30879,0,5,0,-5,-8,-6,-1,-2
13:42:11:39131,-8,2,1,-5,8,5,2,-6
13:42:11:39881,-8,2,1,-5,8,5,2,-6
13:42:11:53984,-1,1,-18,-4,1,2,-1,-1
13:42:11:54748,-1,8,2,-1,-3,-7,-1,3
13:42:11:60926,-1,8,2,-1,-3,-7,-1,3
13:42:11:77151,-1,-6,-11,-10,-1,-2,0,0
13:42:11:78005,-1,0,11,5,0,1,3,-3
13:42:11:78886,-1,0,11,5,0,1,3,-3
13:42:11:83259,2,-8,0,2,-3,-1,10,6
13:42:11:98995,-2,12,1,-2,-3,-3,-5,-1
13:42:11:99861,-2,12,1,-2,-3,-3,-5,-1
13:42:11:105915,6,31,-7,-1,-2,-2,-7,-1
13:42:11:113421,7,11,-6,-1,-1,1,6,2
13:42:11:120866,7,11,-6,-1,-1,1,6,2
13:42:11:128254,-14,-2,5,-7,-6,-2,-8,-11
13:42:11:136503,8,4,-5,4,0,1,-1,2
13:42:11:137351,8,4,-5,4,0,1,-1,2
13:42:11:143432,16,0,27,5,-2,-1,-1,-2
13:42:11:159008,-12,-23,7,2,-4,-3,-3,-4
13:42:11:159901,-12,-23,7,2,-4,-3,-3,-4
13:42:11:165880,-3,-9,-4,-3,-1,1,-2,-4
13:42:11:174142,-15,-10,2,8,-7,-3,-1,-1
13:42:11:174739,-15,-10,2,8,-7,-3,-1,-1
13:42:11:188375,-12,-9,-5,-7,0,-2,-2,3
13:42:11:196545,8,1,-29,-11,1,2,1,-4
13:42:11:197373,8,1,-29,-11,1,2,1,-4
13:42:11:203391,26,1,-5,-7,5,7,5,6
13:42:11:219017,-61,-29,2,2,4,-3,-1,0
13:42:11:219857,-61,-29,2,2,4,-3,-1,0
13:42:11:225935,-24,-37,-10,6,-4,-3,-5,-3
13:42:11:234030,36,0,1,-12,14,4,3,2
13:42:11:234883,36,0,1,-12,14,4,3,2
13:42:11:248380,3,15,15,7,-3,0,0,-4
13:42:11:256511,32,7,-20,-1,-9,-3,-2,2
13:42:11:257383,32,7,-20,-1,-9,-3,-2,2
13:42:11:263278,15,23,-16,-9,-1,1,0,5
13:42:11:279068,13,-4,0,-8,0,-2,-3,2
13:42:11:279926,13,-4,0,-8,0,-2,-3,2
13:42:11:285897,-7,-7,0,1,-8,-5,-1,-6
13:42:11:293388,14,-6,14,14,-1,1,2,1
13:42:11:300897,14,-6,14,14,-1,1,2,1
13:42:11:308332,17,10,-25,20,19,3,0,1
13:42:11:316543,-60,8,58,17,-3,0,1,-2
13:42:11:317371,-60,8,58,17,-3,0,1,-2
13:42:11:330874,25,-20,-8,-5,-1,2,3,-5
13:42:11:339154,25,-20,-8,-5,-1,2,3,-5
13:42:11:339747,-65,9,-17,-20,5,-2,-6,-11
13:42:11:345756,11,-15,5,-19,-19,-9,-7,-5
13:42:11:361524,11,-15,5,-19,-19,-9,-7,-5
13:42:11:362369,5,-32,-3,-8,-9,-2,-3,2
13:42:11:368395,21,29,45,-7,-1,0,1,9
13:42:11:376521,21,29,45,-7,-1,0,1,9
13:42:11:377375,-35,-18,-33,-16,-16,-8,-3,-6
13:42:11:383268,-30,9,32,6,5,5,2,-5
13:42:11:399006,-30,9,32,6,5,5,2,-5
13:42:11:399859,38,0,8,-11,-4,-1,1,4
13:42:11:405898,-18,-14,-7,4,1,-3,5,2
13:42:11:413416,-18,-14,-7,4,1,-3,5,2
13:42:11:420755,34,10,3,20,4,-4,-5,0
13:42:11:428275,-5,-20,-22,-11,2,5,3,1
13:42:11:436480,-5,-20,-22,-11,2,5,3,1
13:42:11:437403,1,-16,-23,-8,-4,-3,-5,0
13:42:11:443430,-7,8,-23,2,1,-2,-4,3
13:42:11:459228,-7,8,-23,2,1,-2,-4,3
13:42:11:459924,4,-5,-8,-2,-1,2,5,-4
13:42:11:465876,-20,1,7,-7,-9,-5,0,7
13:42:11:473381,-20,1,7,-7,-9,-5,0,7
13:42:11:480889,26,1,-3,-2,-2,-4,-1,1
13:42:11:488404,3,7,8,6,3,0,1,2
13:42:11:496516,3,7,8,6,3,0,1,2
13:42:11:497376,-16,14,-3,-5,-2,-1,2,-4
13:42:11:503370,-5,10,-10,-1,2,-1,-2,-1
13:42:11:519121,-5,10,-10,-1,2,-1,-2,-1
13:42:11:519864,10,16,1,8,4,0,1,-5
13:42:11:525917,4,20,4,-4,-9,0,-7,-8
13:42:11:533396,4,20,4,-4,-9,0,-7,-8
13:42:11:540892,-21,-5,0,11,7,4,2,1
13:42:11:548396,-12,-45,7,-4,-3,-10,-7,-1
13:42:11:556636,-12,-45,7,-4,-3,-10,-7,-1
13:42:11:557412,24,-25,2,19,7,4,1,-1
13:42:11:563402,-55,-18,-6,6,3,-1,-2,-11
13:42:11:579143,-55,-18,-6,6,3,-1,-2,-11
13:42:11:579917,18,16,1,6,-6,-3,1,7
13:42:11:585907,14,16,10,-4,1,2,8,-1
13:42:11:593383,14,16,10,-4,1,2,8,-1
13:42:11:600868,1,18,-10,-6,-1,5,-6,-7
13:42:11:608384,-2,28,11,23,10,1,1,-5
13:42:11:616495,-2,28,11,23,10,1,1,-5
13:42:11:617394,36,15,15,-2,2,-1,3,4
13:42:11:630898,16,-5,-16,-2,-3,-1,-3,2
13:42:11:639024,16,-5,-16,-2,-3,-1,-3,2
13:42:11:639888,-13,4,-1,-16,-7,-12,-18,-10
13:42:11:645894,26,-3,-10,-3,-4,1,1,1
13:42:11:653379,26,-3,-10,-3,-4,1,1,1
13:42:11:660748,-33,14,-1,-5,-1,-5,1,1
13:42:11:668398,-30,-30,0,2,-1,-5,-12,-4
13:42:11:676535,-30,-30,0,2,-1,-5,-12,-4
13:42:11:677395,-12,20,19,18,-8,-4,5,-2
13:42:11:683235,0,7,6,5,3,5,7,4
13:42:11:699130,0,7,6,5,3,5,7,4
13:42:11:699781,1,-14,-4,-7,-3,-1,-3,-3
13:42:11:705790,2,-11,-1,-10,1,-2,-1,-4
13:42:11:721527,2,-11,-1,-10,1,-2,-1,-4
13:42:11:722377,15,-33,-16,-12,-3,1,5,3
13:42:11:728401,-6,-16,-7,2,3,3,-4,-2
13:42:11:744661,-6,-16,-7,2,3,3,-4,-2
13:42:11:745569,-25,-15,-23,-2,3,1,-2,1
13:42:11:746251,10,7,-3,4,-3,-3,0,1
13:42:11:759763,10,7,-3,4,-3,-3,0,1
13:42:11:760527,7,28,10,-12,-6,-5,-5,-7
13:42:11:765892,12,-39,-37,-22,-1,2,-5,-5
13:42:11:781497,12,-39,-37,-22,-1,2,-5,-5
13:42:11:782364,-14,-6,-11,5,1,2,4,-1
13:42:11:788379,13,39,9,-5,-7,-6,-5,-3
13:42:11:796422,13,39,9,-5,-7,-6,-5,-3
13:42:11:804020,-54,-4,35,-5,0,5,1,-4
13:42:11:804886,3,-5,1,5,-3,-2,2,2
13:42:11:819122,3,-5,1,5,-3,-2,2,2
13:42:11:819861,9,13,-8,-6,3,-2,-2,0
13:42:11:825902,-7,5,-14,-18,1,1,8,2
13:42:11:841513,-7,5,-14,-18,1,1,8,2
13:42:11:842395,-15,-29,-9,1,-5,-6,-7,4
13:42:11:848386,-10,-12,5,-9,-6,-5,-9,-4
13:42:11:864780,-10,-12,5,-9,-6,-5,-9,-4
13:42:11:865521,27,6,-2,-1,-3,3,3,4
13:42:11:866253,-23,-13,1,4,0,-5,-4,-6
13:42:11:879135,-23,-13,1,4,0,-5,-4,-6
13:42:11:879755,4,-3,-23,-5,1,-2,-3,-2
13:42:11:885752,6,9,5,0,1,2,1,-1
13:42:11:909828,6,9,5,0,1,2,1,-1
13:42:11:910505,3,3,-2,1,-3,-2,-1,5
13:42:11:911395,7,-6,-7,-5,2,3,1,1
13:42:11:916633,7,-6,-7,-5,2,3,1,1
13:42:11:917363,0,-17,-3,11,4,-1,-2,-5
13:42:11:930888,-9,8,7,2,-6,-1,3,2
13:42:11:939175,-9,8,7,2,-6,-1,3,2
13:42:11:939925,3,2,5,-13,-3,1,-4,-6
13:42:11:945893,4,16,19,4,-5,-1,-2,-5
13:42:11:961585,4,16,19,4,-5,-1,-2,-5
13:42:11:962389,-17,35,15,6,2,4,7,2
13:42:11:968299,-5,-22,12,0,3,-2,-6,-4
13:42:11:976535,-5,-22,12,0,3,-2,-6,-4
13:42:11:977382,18,-18,-24,-2,5,0,-2,-5
13:42:11:990780,-19,10,-13,12,-4,-4,1,2
13:42:11:999183,-19,10,-13,12,-4,-4,1,2
13:42:11:999919,8,-47,17,9,-7,-5,-10,0
13:42:12:5901,21,-28,-12,6,2,0,-1,4
13:42:12:13428,21,-28,-12,6,2,0,-1,4
13:42:12:20892,-8,4,3,3,-2,-1,1,-7
13:42:12:28424,18,43,18,10,2,0,6,5
13:42:12:44157,18,43,18,10,2,0,6,5
13:42:12:44870,29,21,-20,-12,-2,-1,0,1
13:42:12:50894,2,6,-1,-7,-2,-4,-3,-2
13:42:12:59151,2,6,-1,-7,-2,-4,-3,-2
13:42:12:59871,-54,-30,2,7,2,-5,-3,-8
13:42:12:65864,-40,-27,-9,9,4,-4,2,-1
13:42:12:73400,-40,-27,-9,9,4,-4,2,-1
13:42:12:80882,44,34,8,-1,-2,-2,3,3
13:42:12:88381,-7,-3,-5,4,-1,2,-2,-6
13:42:12:96532,-7,-3,-5,4,-1,2,-2,-6
13:42:12:97371,5,7,-17,-4,-1,1,-8,0
13:42:12:110912,16,-6,-36,-28,-11,-4,-1,-3
13:42:12:118897,16,-6,-36,-28,-11,-4,-1,-3
13:42:12:126577,6,4,8,0,5,2,-2,6
13:42:12:127392,-10,6,6,8,1,1,-7,-5
13:42:12:133379,-10,6,6,8,1,1,-7,-5
13:42:12:140762,1,-31,-13,-5,-3,-1,6,3
13:42:12:148376,-4,9,9,-8,-1,-1,3,3
13:42:12:156501,-4,9,9,-8,-1,-1,3,3
13:42:12:157384,11,19,8,4,4,1,-2,-7
13:42:12:170934,-22,-33,-11,-12,-6,-2,-1,-4
13:42:12:179027,-22,-33,-11,-12,-6,-2,-1,-4
13:42:12:179923,2,4,18,0,4,4,8,6
13:42:12:185876,-1,-3,-3,-5,-3,-4,-2,-1
13:42:12:193435,-1,-3,-3,-5,-3,-4,-2,-1
13:42:12:209086,-17,-6,10,-14,-3,1,1,-1
13:42:12:209903,23,18,-1,8,2,1,5,11
13:42:12:216505,23,18,-1,8,2,1,5,11
13:42:12:217383,-39,-24,-9,-2,-6,-3,-8,-2
13:42:12:230949,2,-13,-10,10,0,1,-3,-4
13:42:12:239052,2,-13,-10,10,0,1,-3,-4
13:42:12:239920,26,7,9,-4,4,6,6,4
13:42:12:245911,-26,21,-22,7,9,-3,-8,-5
13:42:12:253376,-26,21,-22,7,9,-3,-8,-5
13:42:12:260766,-16,9,-8,-12,-9,-7,-6,-3
13:42:12:277145,27,14,16,-10,1,4,6,3
13:42:12:278010,27,14,16,-10,1,4,6,3
13:42:12:278761,-55,-30,-20,-1,-1,-4,-1,-3
13:42:12:299660,25,-10,-6,-3,-5,-6,-12,-1
13:42:12:300514,25,-10,-6,-3,-5,-6,-12,-1
13:42:12:301387,15,9,3,7,0,3,2,5
13:42:12:305901,-11,54,12,-8,4,6,12,1
13:42:12:313436,-11,54,12,-8,4,6,12,1
13:42:12:320878,4,10,24,1,-2,-2,-7,-1
13:42:12:328441,0,-21,0,0,-4,-5,-8,-3
13:42:12:336511,0,-21,0,0,-4,-5,-8,-3
13:42:12:337404,8,15,-1,-3,-6,-4,-3,-2
13:42:12:350882,10,-19,14,0,4,4,-1,4
13:42:12:359133,10,-19,14,0,4,4,-1,4
13:42:12:359893,3,-9,-5,0,7,-1,-4,-4
13:42:12:365875,-11,-7,4,1,-1,-3,3,0
13:42:12:373409,-11,-7,4,1,-1,-3,3,0
13:42:12:380892,14,3,-12,-7,-6,-4,-2,4
13:42:12:388398,-13,7,9,1,2,5,0,-3
13:42:12:396516,-13,7,9,1,2,5,0,-3
13:42:12:397384,-11,-12,-5,-1,0,0,3,-7
13:42:12:410969,23,-13,1,0,-6,-4,0,3
13:42:12:419043,23,-13,1,0,-6,-4,0,3
13:42:12:419876,15,30,-4,5,-3,-1,-1,3
13:42:12:425928,-17,11,12,7,1,0,0,-4
13:42:12:433393,-17,11,12,7,1,0,0,-4
13:42:12:440774,-43,-12,-17,1,1,0,-2,-12
13:42:12:448416,2,-6,3,2,-8,-3,-5,-3
13:42:12:456536,2,-6,3,2,-8,-3,-5,-3
13:42:12:457389,30,-4,-8,-2,0,6,15,9
13:42:12:470902,18,-19,-16,-6,-2,-3,-8,2
13:42:12:479041,18,-19,-16,-6,-2,-3,-8,2
13:42:12:479896,12,13,-9,4,-1,-8,-12,-13
13:42:12:485762,11,9,4,5,-5,-3,2,1
13:42:12:493392,11,9,4,5,-5,-3,2,1
13:42:12:500777,13,-5,14,-1,-3,1,5,1
13:42:12:508256,-23,-17,3,-3,-4,-6,-5,-3
13:42:12:516529,-23,-17,3,-3,-4,-6,-5,-3
13:42:12:517388,-1,5,4,-1,2,1,-2,2
13:42:12:530778,-4,2,-24,-4,3,0,-2,-8
13:42:12:539148,-4,2,-24,-4,3,0,-2,-8
13:42:12:539755,20,-11,-1,4,-2,-10,-6,0
13:42:12:545778,-1,6,9,4,2,1,-4,-1
13:42:12:553415,-1,6,9,4,2,1,-4,-1
13:42:12:560905,12,2,7,3,0,-4,-6,-5
13:42:12:568410,3,6,2,-1,-3,0,8,-4
13:42:12:576555,3,6,2,-1,-3,0,8,-4
13:42:12:577399,-20,-18,-8,-8,-5,3,2,0
13:42:12:590956,-13,-7,-24,-8,0,0,1,-1
13:42:12:599141,-13,-7,-24,-8,0,0,1,-1
13:42:12:599887,17,1,24,3,1,0,2,-2
13:42:12:605899,-15,-51,-24,2,7,1,0,-3
13:42:12:613432,-15,-51,-24,2,7,1,0,-3
13:42:12:620880,-38,-12,-3,4,1,0,-3,-6
13:42:12:628398,-12,4,6,1,-5,-6,-4,-5
13:42:12:636513,-12,4,6,1,-5,-6,-4,-5
13:42:12:637406,-32,-1,-6,-2,-1,0,2,-3
13:42:12:650894,23,27,12,-1,-2,-1,-2,1
13:42:12:659182,23,27,12,-1,-2,-1,-2,1
13:42:12:659903,-1,13,3,-11,-3,2,0,0
13:42:12:665896,23,-1,1,8,0,-3,2,3
13:42:12:673392,23,-1,1,8,0,-3,2,3
13:42:12:680882,18,9,-1,-1,2,0,0,0
13:42:12:688392,-20,4,4,-4,-3,-2,-5,-2
13:42:12:696537,-20,4,4,-4,-3,-2,-5,-2
13:42:12:697381,27,-7,-7,1,-3,-5,0,5
13:42:12:710905,25,-11,-13,-3,-3,3,-3,4
13:42:12:718999,25,-11,-13,-3,-3,3,-3,4
13:42:12:719886,-6,3,4,11,-6,-4,-2,-2
13:42:12:725902,-14,0,-5,-2,-3,3,9,6
13:42:12:733390,-14,0,-5,-2,-3,3,9,6
13:42:12:740798,-13,-8,-1,-6,-2,-2,-5,-9
13:42:12:748292,-21,5,-25,3,3,2,-3,-11
13:42:12:756516,-21,5,-25,3,3,2,-3,-11
13:42:12:757426,-26,-2,-5,-15,-1,-4,-3,-4
13:42:12:770895,0,-2,9,-6,-4,-5,-3,0
13:42:12:779017,0,-2,9,-6,-4,-5,-3,0
13:42:12:779894,-16,-24,-6,-4,-5,-2,-2,-3
13:42:12:785752,-2,-2,-1,-6,4,1,-2,0
13:42:12:793392,-2,-2,-1,-6,4,1,-2,0
13:42:12:800775,-11,-21,-11,1,1,-3,-7,-3
13:42:12:808283,10,2,12,4,-3,2,7,8
13:42:12:816517,10,2,12,4,-3,2,7,8
13:42:12:817385,-3,17,-1,2,-2,-4,-4,1
13:42:12:830770,4,6,2,3,0,-1,2,-5
13:42:12:839143,4,6,2,3,0,-1,2,-5
13:42:12:839897,39,39,-19,30,7,4,1,5
13:42:12:845890,-11,1,0,-1,-2,-2,-7,2
13:42:12:853394,-11,1,0,-1,-2,-2,-7,2
13:42:12:860931,11,-36,7,-1,-1,-1,2,1
13:42:12:868381,16,9,-5,-4,-2,-3,-1,1
13:42:12:876542,16,9,-5,-4,-2,-3,-1,1
13:42:12:877435,-4,1,-6,-6,1,4,-7,-6
13:42:12:890905,5,-7,6,-10,-6,-11,-15,-5
13:42:12:899139,5,-7,6,-10,-6,-11,-15,-5
13:42:12:899909,13,18,-1,4,2,0,-4,3
13:42:12:914021,-10,-12,6,-2,-7,-2,-6,-2
13:42:12:914889,-10,-12,6,-2,-7,-2,-6,-2
13:42:12:920868,20,-24,-20,-6,6,4,5,2
13:42:12:928421,16,8,7,-8,-2,-5,7,5
13:42:12:935877,16,8,7,-8,-2,-5,7,5
13:42:12:943416,-22,-4,5,5,-5,1,2,-6
13:42:12:950926,-2,-17,-25,-9,-5,-2,-1,-4
13:42:12:959139,-2,-17,-25,-9,-5,-2,-1,-4
13:42:12:959912,9,0,5,-9,-6,-10,-7,-2
13:42:12:974440,9,5,0,7,5,5,1,3
13:42:12:981537,9,5,0,7,5,5,1,3
13:42:12:982403,8,38,7,-6,1,5,6,2
13:42:12:988375,-19,11,9,-1,-1,3,-2,-2
13:42:12:995917,-19,11,9,-1,-1,3,-2,-2
13:42:13:3383,-5,-11,-9,3,-4,5,7,-1
13:42:13:10921,1,-8,-18,-2,-1,-4,-6,-2
13:42:13:19014,1,-8,-18,-2,-1,-4,-6,-2
13:42:13:19902,4,15,12,1,-1,-6,-1,-2
13:42:13:34016,-28,-26,-4,1,-3,-5,-8,-13
13:42:13:34890,-28,-26,-4,1,-3,-5,-8,-13
13:42:13:40900,-3,-30,-13,-12,-4,2,3,1
13:42:13:48393,-8,6,4,-2,-2,-2,2,-3
13:42:13:55874,-8,6,4,-2,-2,-2,2,-3
13:42:13:63297,-23,-3,3,5,3,-2,-1,0
13:42:13:70893,-15,3,-4,6,5,7,5,5
13:42:13:79029,-15,3,-4,6,5,7,5,5
13:42:13:79906,-9,-47,4,13,8,-1,-8,-6
13:42:13:94053,11,10,7,-6,-4,-4,2,3
13:42:13:94949,11,10,7,-6,-4,-4,2,3
13:42:13:100761,-1,1,7,4,-3,-4,1,3
13:42:13:108417,-17,10,3,1,2,4,5,-6
13:42:13:115879,-17,10,3,1,2,4,5,-6
13:42:13:123274,6,-3,-19,-20,-9,-5,-8,-11
13:42:13:130771,13,2,9,-3,-4,-3,-3,-1
13:42:13:139137,13,2,9,-3,-4,-3,-3,-1
13:42:13:139880,-6,20,9,-5,-9,-5,-9,1
13:42:13:154018,10,4,6,4,6,3,1,4
13:42:13:154885,10,4,6,4,6,3,1,4
13:42:13:160773,8,-28,-32,-15,-4,-2,-1,2
13:42:13:168265,3,-11,-11,-5,-1,-4,-3,-3
13:42:13:175891,3,-11,-11,-5,-1,-4,-3,-3
13:42:13:183387,-14,10,4,-2,1,2,3,0
13:42:13:190908,10,16,17,-1,-10,1,-2,4
13:42:13:199159,10,16,17,-1,-10,1,-2,4
13:42:13:199910,-2,12,10,5,0,2,-1,-4
13:42:13:214174,1,0,3,1,-2,-3,-1,-4
13:42:13:214809,1,0,3,1,-2,-3,-1,-4
13:42:13:220882,-7,10,7,-1,0,-3,0,-1
13:42:13:228404,-35,-16,-25,-2,2,0,1,-4
13:42:13:235898,-35,-16,-25,-2,2,0,1,-4
13:42:13:243418,-10,-11,14,-1,0,2,-2,-3
13:42:13:250888,13,-6,-18,-10,1,-3,-3,2
13:42:13:259031,13,-6,-18,-10,1,-3,-3,2
13:42:13:259757,-10,6,-3,-4,-6,-1,2,5
13:42:13:274206,5,2,24,5,1,4,6,4
13:42:13:275065,5,2,24,5,1,4,6,4
13:42:13:280927,17,18,20,-1,-8,-3,-9,1
13:42:13:288398,-3,-24,-4,-11,-1,-5,-4,-5
13:42:13:295898,-3,-24,-4,-11,-1,-5,-4,-5
13:42:13:303386,-19,-11,-3,1,-1,0,-5,-6
13:42:13:310945,5,-25,-9,3,-1,-3,-3,-5
13:42:13:319027,5,-25,-9,3,-1,-3,-3,-5
13:42:13:319901,-4,1,-8,-16,-9,-4,9,7
13:42:13:334053,-9,12,-6,-3,2,-2,-5,-4
13:42:13:334892,-9,12,-6,-3,2,-2,-5,-4
13:42:13:340908,12,35,-11,-3,3,3,0,1
13:42:13:348421,-13,27,19,8,-5,2,1,0
13:42:13:355907,-13,27,19,8,-5,2,1,0
13:42:13:363284,7,5,1,0,-1,-7,-5,-1
13:42:13:370766,12,-13,-15,-5,1,1,-3,0
13:42:13:379188,12,-13,-15,-5,1,1,-3,0
13:42:13:379823,-3,-2,5,9,4,1,0,0
13:42:13:394062,-37,-9,5,1,-2,-3,3,-3
13:42:13:394893,-37,-9,5,1,-2,-3,3,-3
13:42:13:400782,21,-29,3,0,0,-5,-7,-4
13:42:13:408273,-8,4,12,4,-1,-1,-12,-7
13:42:13:415912,-8,4,12,4,-1,-1,-12,-7
13:42:13:423303,-3,8,1,9,9,1,-2,0
13:42:13:430759,21,0,-19,-1,-2,1,-1,4
13:42:13:439141,21,0,-19,-1,-2,1,-1,4
13:42:13:439916,22,0,6,-5,2,2,4,4
13:42:13:454050,-5,-4,5,4,2,0,1,-2
13:42:13:454916,-5,-4,5,4,2,0,1,-2
13:42:13:460838,18,-16,-10,-4,-1,-2,-2,0
13:42:13:468308,-18,-20,-18,-14,-1,-2,-2,-7
13:42:13:475962,-18,-20,-18,-14,-1,-2,-2,-7
13:42:13:483414,-27,-4,-17,-1,3,9,5,3
13:42:13:490905,19,-3,4,-5,-8,-10,-2,-1
13:42:13:499165,19,-3,4,-5,-8,-10,-2,-1
13:42:13:499897,-16,18,-5,-5,6,1,-3,-2
13:42:13:514168,13,16,14,2,-1,-1,-2,0
13:42:13:514756,13,16,14,2,-1,-1,-2,0
13:42:13:520896,-7,-15,-9,1,-5,-3,3,-2
13:42:13:528405,-6,7,6,9,1,0,3,-2
13:42:13:535939,-6,7,6,9,1,0,3,-2
13:42:13:543454,-10,-5,1,-1,-5,-2,2,-8
13:42:13:550884,19,-1,10,4,3,2,7,3
13:42:13:559042,19,-1,10,4,3,2,7,3
13:42:13:559913,-6,8,2,-2,-2,0,-2,-3
13:42:13:574176,15,2,7,-6,-7,-4,8,7
13:42:13:574970,15,2,7,-6,-7,-4,8,7
13:42:13:580893,-14,8,5,-7,-2,-9,-2,-11
13:42:13:588378,3,-15,-7,-3,-1,-3,-8,-5
13:42:13:595885,3,-15,-7,-3,-1,-3,-8,-5
13:42:13:603412,-8,11,9,-7,-5,-5,-11,-6
13:42:13:610959,-21,7,-29,0,2,2,6,1
13:42:13:619018,-21,7,-29,0,2,2,6,1
13:42:13:619893,7,-10,8,7,-4,-3,-5,1
13:42:13:634051,-12,13,-14,-7,1,2,-5,-1
13:42:13:634930,-12,13,-14,-7,1,2,-5,-1
13:42:13:640911,22,3,2,0,1,1,3,6
13:42:13:648410,10,5,0,8,5,-4,-11,-4
13:42:13:655895,10,5,0,8,5,-4,-11,-4
13:42:13:663286,14,0,-7,2,0,0,3,10
13:42:13:670783,28,6,-19,8,2,0,-3,2
13:42:13:679154,28,6,-19,8,2,0,-3,2
13:42:13:679778,11,13,9,14,3,5,10,3
13:42:13:694045,-9,10,9,-6,4,3,6,-1
13:42:13:694911,-9,10,9,-6,4,3,6,-1
13:42:13:709023,-17,-7,0,-6,-5,0,-1,-6
13:42:13:709771,6,-15,10,-1,-4,-4,9,-3
13:42:13:715917,6,-15,10,-1,-4,-4,9,-3
13:42:13:731532,-19,-18,-19,-2,-1,-2,5,-6
13:42:13:732261,-3,0,-1,-2,0,5,3,4
13:42:13:739035,-3,0,-1,-2,0,5,3,4
13:42:13:739931,-3,1,7,0,-3,-6,-14,-8
13:42:13:754536,-3,-1,14,0,-3,-5,-13,-1
13:42:13:755281,-3,-1,14,0,-3,-5,-13,-1
13:42:13:760912,-15,-1,-5,0,-1,-7,-11,-7
13:42:13:768403,7,-14,5,-1,-5,-8,2,5
13:42:13:775932,7,-14,5,-1,-5,-8,2,5
13:42:13:783408,9,-28,-17,-8,-5,4,15,-3
13:42:13:790911,-8,-20,-21,-5,-2,-6,-10,1
13:42:13:799026,-8,-20,-21,-5,-2,-6,-10,1
13:42:13:799898,-2,8,17,7,4,0,-27,-4
13:42:13:814046,1,5,-1,1,1,5,-1,0
13:42:13:814925,1,5,-1,1,1,5,-1,0
13:42:13:820925,17,8,-19,-15,-3,0,1,4
13:42:13:828417,21,15,16,11,7,0,-3,-2
13:42:13:835906,21,15,16,11,7,0,-3,-2
13:42:13:843264,-12,-2,8,10,3,1,-2,1
13:42:13:850795,-20,-6,-34,-18,-7,0,2,-2
13:42:13:858413,-20,-6,-34,-18,-7,0,2,-2
13:42:13:865791,-5,6,-7,-3,0,3,7,6
13:42:13:874025,-39,-5,13,-6,-6,-5,-16,-6
13:42:13:874908,-39,-5,13,-6,-6,-5,-16,-6
13:42:13:880784,1,7,4,-3,-5,-8,-9,-1
13:42:13:896572,1,-6,9,13,-4,0,0,-5
13:42:13:897406,1,-6,9,13,-4,0,0,-5
13:42:13:903350,8,-7,0,4,-1,-2,1,-7
13:42:13:910784,-21,-3,12,-2,-3,-1,-3,-7
13:42:13:918406,-21,-3,12,-2,-3,-1,-3,-7
13:42:13:925768,-41,-3,-16,-5,-5,0,7,-6
13:42:13:942192,-3,0,-2,8,9,11,11,-2
13:42:13:943052,-3,0,-2,8,9,11,11,-2
13:42:13:943797,26,-17,8,2,-4,-3,5,8
13:42:13:956539,-38,-9,-10,-10,-3,-4,1,-6
13:42:13:957407,-38,-9,-10,-10,-3,-4,1,-6
13:42:13:963315,7,-14,1,2,19,19,19,7
13:42:13:970789,23,6,-4,1,1,-3,1,2
13:42:13:986563,23,6,-4,1,1,-3,1,2
13:42:13:987408,-32,-7,-18,-2,-5,-13,-10,-3
13:42:13:994089,7,-6,-8,-1,5,6,-8,-2
13:42:13:994913,7,-6,-8,-1,5,6,-8,-2
13:42:14:791,23,31,28,0,-2,0,-2,-3
13:42:14:16535,-5,17,7,3,-2,-9,-7,-8
13:42:14:17393,-5,17,7,3,-2,-9,-7,-8
13:42:14:23409,7,25,13,-2,-3,3,9,8
13:42:14:30902,-2,-27,-12,-2,0,2,-4,-2
13:42:14:38386,-2,-27,-12,-2,0,2,-4,-2
13:42:14:45798,-56,-20,3,10,-3,-8,-8,-14
13:42:14:54034,26,14,3,7,7,11,23,11
13:42:14:54886,26,14,3,7,7,11,23,11
13:42:14:60786,20,-9,4,-1,1,-5,-10,-5
13:42:14:76583,2,13,7,-10,-2,-8,7,1
13:42:14:77416,2,13,7,-10,-2,-8,7,1
13:42:14:83288,32,27,-2,-9,1,-3,-3,2
13:42:14:90782,5,-13,-22,1,-11,-7,-8,0
13:42:14:98402,5,-13,-22,1,-11,-7,-8,0
13:42:14:105814,-12,-8,1,3,1,-1,-6,2
13:42:14:114033,16,-10,-12,2,14,7,-5,7
13:42:14:114889,16,-10,-12,2,14,7,-5,7
13:42:14:120904,0,-11,-23,-4,-13,-8,-7,-9
13:42:14:136539,-8,-26,0,6,-4,-2,16,-5
13:42:14:137395,-8,-26,0,6,-4,-2,16,-5
13:42:14:143332,25,9,-10,-16,-4,-3,-11,4
13:42:14:150781,-19,-6,21,-4,-5,-4,-6,-2
13:42:14:158412,-19,-6,21,-4,-5,-4,-6,-2
13:42:14:165900,-27,-8,1,3,-1,5,5,-1
13:42:14:174032,8,30,19,-1,3,-1,-3,1
13:42:14:174786,8,30,19,-1,3,-1,-3,1
13:42:14:180886,14,8,-1,-7,-6,-10,-8,-3
13:42:14:196569,-8,6,-2,-9,-2,4,12,3
13:42:14:197402,-8,6,-2,-9,-2,4,12,3
13:42:14:203411,-8,-5,0,-3,5,4,5,1
13:42:14:210920,2,-7,-22,-14,-8,-4,10,3
13:42:14:218399,2,-7,-22,-14,-8,-4,10,3
13:42:14:225927,-6,7,6,7,0,4,8,9
13:42:14:234035,9,6,5,-3,-2,-1,-6,-3
13:42:14:234895,9,6,5,-3,-2,-1,-6,-3
13:42:14:240917,10,-17,0,8,2,-2,-1,-6
13:42:14:256555,-33,-36,-17,-9,-3,-2,4,-7
13:42:14:257306,-33,-36,-17,-9,-3,-2,4,-7
13:42:14:263435,11,8,-3,-1,-2,-1,-3,0
13:42:14:270910,11,0,5,7,-2,-8,-19,1
13:42:14:278433,11,0,5,7,-2,-8,-19,1
13:42:14:285798,-8,-5,1,-6,-1,2,0,-1
13:42:14:294071,9,16,5,-9,-11,-5,-4,9
13:42:14:294915,9,16,5,-9,-11,-5,-4,9
13:42:14:300761,5,-5,-4,8,13,9,7,3
13:42:14:316534,15,25,12,3,-4,0,-6,-2
13:42:14:317392,15,25,12,3,-4,0,-6,-2
13:42:14:323271,0,7,-4,-3,-1,5,-2,1
13:42:14:330816,-11,-20,-19,-2,-1,-1,-7,-4
13:42:14:338427,-11,-20,-19,-2,-1,-1,-7,-4
13:42:14:345776,-16,-10,-1,1,-1,-6,3,-3
13:42:14:354014,4,15,4,8,-2,2,-3,-4
13:42:14:354895,4,15,4,8,-2,2,-3,-4
13:42:14:360775,3,5,-5,-2,5,2,-2,-6
13:42:14:376603,-2,-4,9,0,2,-1,1,0
13:42:14:377390,-2,-4,9,0,2,-1,1,0
13:42:14:383271,3,36,9,-6,-7,-4,-1,1
13:42:14:390778,-14,-62,-21,-7,6,2,5,-2
13:42:14:398454,-14,-62,-21,-7,6,2,5,-2
13:42:14:405814,17,12,-18,-18,-5,-6,-5,3
13:42:14:414168,4,5,5,7,4,3,-1,-3
13:42:14:414780,4,5,5,7,4,3,-1,-3
13:42:14:420913,-14,-58,0,3,-5,1,5,-4
13:42:14:436534,12,7,8,-1,-4,-7,-5,2
13:42:14:437403,12,7,8,-1,-4,-7,-5,2
13:42:14:443327,-6,-30,2,7,0,-2,4,0
13:42:14:450770,8,43,1,4,7,4,1,-1
13:42:14:458410,8,43,1,4,7,4,1,-1
13:42:14:465759,23,25,3,-2,-3,-4,-4,3
13:42:14:474090,-12,-25,-1,4,0,-3,-4,2
13:42:14:474791,-12,-25,-1,4,0,-3,-4,2
13:42:14:480902,15,22,-4,-4,-6,-5,-4,0
13:42:14:496557,-4,5,-5,-4,-7,-4,-6,-8
13:42:14:497402,-4,5,-5,-4,-7,-4,-6,-8
13:42:14:503388,-25,-34,-1,-1,-2,-3,-11,-7
13:42:14:510934,12,-1,-4,-3,-1,0,2,2
13:42:14:518435,12,-1,-4,-3,-1,0,2,2
13:42:14:525918,4,3,6,-14,-2,0,5,-2
13:42:14:534045,-7,-4,8,14,-6,-6,-4,-4
13:42:14:534904,-7,-4,8,14,-6,-6,-4,-4
13:42:14:540773,-26,-6,16,12,4,5,-2,-2
13:42:14:556564,-6,20,7,-8,-7,-5,-5,-1
13:42:14:557295,-6,20,7,-8,-7,-5,-5,-1
13:42:14:563441,7,-14,-5,0,-7,-4,1,-1
13:42:14:570936,-24,9,-5,-10,12,11,8,-6
13:42:14:578429,-24,9,-5,-10,12,11,8,-6
13:42:14:585788,-1,-31,-5,11,-1,0,-11,0
13:42:14:594055,14,6,-9,2,5,-2,-3,1
13:42:14:594925,14,6,-9,2,5,-2,-3,1
13:42:14:600789,3,-1,-12,1,-1,-5,-9,-4
13:42:14:616536,1,5,-9,-12,-9,1,-7,-4
13:42:14:617422,1,5,-9,-12,-9,1,-7,-4
13:42:14:623302,2,2,-1,4,7,5,7,-3
13:42:14:630776,3,-17,7,7,-2,-6,4,1
13:42:14:638434,3,-17,7,7,-2,-6,4,1
13:42:14:645818,12,35,2,-8,-2,0,14,12
13:42:14:654047,16,5,-1,6,0,3,-4,1
13:42:14:654931,16,5,-1,6,0,3,-4,1
13:42:14:660818,-21,-15,-8,-8,-2,-5,-1,-5
13:42:14:676539,5,1,8,1,-2,-4,-4,3
13:42:14:677449,5,1,8,1,-2,-4,-4,3
13:42:14:683281,-18,5,7,5,2,0,2,-6
13:42:14:690815,-3,-13,1,5,-1,2,19,1
13:42:14:698412,-3,-13,1,5,-1,2,19,1
13:42:14:705798,-4,-22,-18,-6,7,5,2,-2
13:42:14:713328,-10,-6,-17,-5,-9,-5,-10,-4
13:42:14:721532,-10,-6,-17,-5,-9,-5,-10,-4
13:42:14:722408,-4,5,2,3,-1,2,1,1
13:42:14:736523,5,19,9,-8,1,0,-2,1
13:42:14:737406,5,19,9,-8,1,0,-2,1
13:42:14:743291,0,7,-11,10,-4,-9,-13,-2
13:42:14:750782,-2,21,16,4,7,7,11,-1
13:42:14:758407,-2,21,16,4,7,7,11,-1
13:42:14:765924,-12,-1,4,-9,-3,-1,-2,-1
13:42:14:773278,-1,-18,-16,-3,0,-2,-5,-1
13:42:14:781553,-1,-18,-16,-3,0,-2,-5,-1
13:42:14:782291,15,4,4,3,1,3,2,-3
13:42:14:796541,7,47,3,-5,8,1,-1,6
13:42:14:797278,7,47,3,-5,8,1,-1,6
13:42:14:803413,1,36,8,-4,-1,-2,1,2
13:42:14:819026,-19,-26,-7,-4,-7,-3,-9,-7
13:42:14:819916,-19,-26,-7,-4,-7,-3,-9,-7
13:42:14:825801,9,-19,2,0,1,-1,8,2
13:42:14:833312,-16,-10,-15,-4,-7,-6,-10,-8
13:42:14:840910,-16,-10,-15,-4,-7,-6,-10,-8
13:42:14:848436,1,20,-8,-15,-9,-3,-12,-4
13:42:14:856537,12,1,6,4,6,3,0,0
13:42:14:857301,12,1,6,4,6,3,0,0
13:42:14:863402,19,25,9,1,2,-2,1,1
13:42:14:879046,-4,32,14,-1,-6,0,0,2
13:42:14:879779,-4,32,14,-1,-6,0,0,2
13:42:14:885925,15,-19,-6,3,-2,-1,2,3
13:42:14:893451,-13,-54,4,4,1,1,10,-1
13:42:14:900902,-13,-54,4,4,1,1,10,-1
13:42:14:908441,-2,1,0,-14,-6,-3,-2,-3
13:42:14:916540,2,-2,-2,5,-1,-2,5,2
13:42:14:917427,2,-2,-2,5,-1,-2,5,2
13:42:14:923270,6,45,6,8,3,0,-1,5
13:42:14:939547,-3,-12,-24,-8,-5,-8,-10,-7
13:42:14:940313,-3,-12,-24,-8,-5,-8,-10,-7
13:42:14:945902,13,-16,4,8,2,8,11,1
13:42:14:953427,2,1,-3,2,1,-3,-5,-3
13:42:14:960932,2,1,-3,2,1,-3,-5,-3
13:42:14:968276,0,-15,-8,-1,-4,-5,-6,1
13:42:14:976537,-2,5,3,2,-2,-4,-3,-3
13:42:14:977429,-2,5,3,2,-2,-4,-3,-3
13:42:14:983314,-11,-22,-4,-4,-5,-6,-5,-2
13:42:14:999047,-11,-5,-5,-8,1,4,-3,4
13:42:14:999903,-11,-5,-5,-8,1,4,-3,4
13:42:15:5797,-12,42,2,-2,6,5,4,-2
13:42:15:14046,3,-1,13,-1,-10,-7,-2,2
13:42:15:14911,3,-1,13,-1,-10,-7,-2,2
13:42:15:28315,-2,-6,12,8,3,4,10,-3
13:42:15:36549,0,12,18,-5,-5,-7,2,1
13:42:15:37435,0,12,18,-5,-5,-7,2,1
13:42:15:43333,-33,-21,-7,-7,-3,-4,-23,-13
13:42:15:59069,4,-8,-9,11,-1,0,-3,-3
13:42:15:59943,4,-8,-9,11,-1,0,-3,-3
13:42:15:65771,1,-5,-4,-8,-6,-7,-3,0
13:42:15:74034,1,9,-15,0,0,3,1,-3
13:42:15:74932,1,9,-15,0,0,3,1,-3
13:42:15:88395,15,35,3,1,-1,1,4,1
13:42:15:96574,11,-19,-1,-2,-2,-1,-2,3
13:42:15:97413,11,-19,-1,-2,-2,-1,-2,3
13:42:15:103282,1,-33,-9,-8,4,1,3,-4
13:42:15:119037,-16,19,15,1,4,2,-1,-8
13:42:15:119768,-16,19,15,1,4,2,-1,-8
13:42:15:125968,16,-14,-4,6,8,4,7,8
13:42:15:134023,-4,-17,-8,-8,-9,-7,6,5
13:42:15:134906,-4,-17,-8,-8,-9,-7,6,5
13:42:15:148452,-24,-8,-1,3,0,4,-2,-4
13:42:15:156557,15,11,0,-5,-5,-1,-10,-4
13:42:15:157304,15,11,0,-5,-5,-1,-10,-4
13:42:15:163322,-8,-11,-4,19,7,1,-7,2
13:42:15:179078,-4,-26,-14,3,1,-1,-4,0
13:42:15:179806,-4,-26,-14,3,1,-1,-4,0
13:42:15:194710,-3,-22,-10,-14,-5,-6,-2,-7
13:42:15:195526,1,13,9,-5,0,2,2,-2
13:42:15:196459,1,13,9,-5,0,2,2,-2
13:42:15:208281,5,7,11,3,-5,-6,-2,3
13:42:15:216570,4,-13,-3,-2,9,6,1,-5
13:42:15:217406,4,-13,-3,-2,9,6,1,-5
13:42:15:223328,3,-10,-18,-16,-5,-4,4,-2
13:42:15:239036,-7,1,-8,-2,0,1,0,0
13:42:15:239931,-7,1,-8,-2,0,1,0,0
13:42:15:245803,-1,10,6,-3,-3,-2,-12,-2
13:42:15:254044,-8,9,7,5,-1,0,5,2
13:42:15:254920,-8,9,7,5,-1,0,5,2
13:42:15:268301,-15,20,-4,-5,-5,-1,-4,-1
13:42:15:276573,-2,21,6,2,-2,-1,1,0
13:42:15:277425,-2,21,6,2,-2,-1,1,0
13:42:15:283294,2,8,-9,15,13,13,12,11
13:42:15:299038,2,8,-9,15,13,13,12,11
13:42:15:299913,10,-7,-4,-4,-4,-3,-1,0
13:42:15:305806,-5,-52,-10,-2,-5,-5,-5,-10
13:42:15:321548,-5,-52,-10,-2,-5,-5,-5,-10
13:42:15:322291,-9,-6,-31,15,2,-5,-7,-4
13:42:15:328304,0,1,16,1,2,2,4,-1
13:42:15:336533,0,1,16,1,2,2,4,-1
13:42:15:337402,-23,-41,-1,-9,-3,-4,-8,-8
13:42:15:343306,3,22,8,-6,-11,-7,-3,6
13:42:15:359075,3,22,8,-6,-11,-7,-3,6
13:42:15:359833,17,13,5,-20,-4,0,4,3
13:42:15:365815,-7,-6,-6,-8,-5,0,-1,-1
13:42:15:381539,-7,-6,-6,-8,-5,0,-1,-1
13:42:15:382310,-2,0,-24,-15,-6,0,-3,-5
13:42:15:397174,9,-4,1,14,9,6,-3,0
13:42:15:398023,9,-4,1,14,9,6,-3,0
13:42:15:398766,16,1,3,3,0,0,-1,4
13:42:15:403411,-5,-25,-19,-6,-9,-5,2,-5
13:42:15:419176,-5,-25,-19,-6,-9,-5,2,-5
13:42:15:419908,2,13,8,-5,0,0,3,-1
13:42:15:425839,-16,-31,21,2,-6,-4,-2,-4
13:42:15:441586,-16,-31,21,2,-6,-4,-2,-4
13:42:15:442433,3,-28,1,-1,-7,-8,-8,-9
13:42:15:448293,22,20,9,11,4,-2,-7,7
13:42:15:456549,22,20,9,11,4,-2,-7,7
13:42:15:457431,31,2,14,4,2,2,-7,2
13:42:15:463442,14,23,6,-8,-9,-7,-5,-1
13:42:15:479195,14,23,6,-8,-9,-7,-5,-1
13:42:15:479819,0,4,-4,-1,-5,-2,1,1
13:42:15:485815,-22,-10,-6,-3,0,-4,-3,-7
13:42:15:501552,-22,-10,-6,-3,0,-4,-3,-7
13:42:15:502413,-12,0,1,-8,3,0,2,3
13:42:15:508351,-4,17,6,9,4,-4,-5,-3
13:42:15:516525,-4,17,6,9,4,-4,-5,-3
13:42:15:517421,-17,-8,-21,-2,-3,-3,-6,-7
13:42:15:523305,28,13,-15,7,6,2,10,8
13:42:15:539072,28,13,-15,7,6,2,10,8
13:42:15:539959,30,18,13,5,9,8,8,8
13:42:15:545805,-10,-13,-2,-6,-4,4,-1,-5
13:42:15:561567,-10,-13,-2,-6,-4,4,-1,-5
13:42:15:562312,-24,2,19,2,-2,-3,-7,-7
13:42:15:568292,-2,29,15,-1,-2,-1,-1,-2
13:42:15:576575,-2,29,15,-1,-2,-1,-1,-2
13:42:15:577467,20,-2,-19,-3,-1,2,2,3
13:42:15:583309,-21,-16,-7,-9,-4,-5,-6,-8
13:42:15:599065,-21,-16,-7,-9,-4,-5,-6,-8
13:42:15:599942,6,5,2,4,2,-3,0,7
13:42:15:605800,10,1,-3,-8,2,3,7,1
13:42:15:621571,10,1,-3,-8,2,3,7,1
13:42:15:622306,5,-3,7,7,5,-2,-5,-5
13:42:15:628330,45,18,-21,0,0,-3,2,7
13:42:15:636542,45,18,-21,0,0,-3,2,7
13:42:15:637418,-19,-8,10,3,1,0,-4,-7
13:42:15:643302,13,-2,5,-6,-4,1,7,2
13:42:15:659058,13,-2,5,-6,-4,1,7,2
13:42:15:659920,-3,2,-3,5,-2,-2,5,3
13:42:15:665784,-18,13,3,4,-5,2,2,-7
13:42:15:681557,-18,13,3,4,-5,2,2,-7
13:42:15:682281,-21,-24,-4,-8,-5,-3,-5,-7
13:42:15:688289,4,-17,-3,-16,0,2,-1,1
13:42:15:696593,4,-17,-3,-16,0,2,-1,1
13:42:15:697413,-24,8,7,-2,-6,-5,-4,3
13:42:15:703306,-23,-15,1,-5,-10,-5,-2,-3
13:42:15:719061,-23,-15,1,-5,-10,-5,-2,-3
13:42:15:719794,6,28,-4,12,2,-1,5,1
13:42:15:725811,12,6,10,7,2,2,-7,-3
13:42:15:741338,12,6,10,7,2,2,-7,-3
13:42:15:749064,-47,-38,-21,-20,-10,-9,-2,-8
13:42:15:749807,5,11,-1,4,1,2,11,6
13:42:15:756543,5,11,-1,4,1,2,11,6
13:42:15:757282,3,-28,-14,-4,-1,0,1,3
13:42:15:770775,-25,-7,-1,14,0,-4,-9,-7
13:42:15:779047,-25,-7,-1,14,0,-4,-9,-7
13:42:15:779799,-1,-8,-7,-7,0,6,2,2
13:42:15:785905,-20,-33,-3,-2,6,-2,-4,-6
13:42:15:801572,-20,-33,-3,-2,6,-2,-4,-6
13:42:15:802432,10,16,17,11,-1,-2,2,-1
13:42:15:808334,-10,16,-1,-1,-1,-2,-6,2
13:42:15:816555,-10,16,-1,-1,-1,-2,-6,2
13:42:15:817300,3,-5,-5,0,0,0,2,-6
13:42:15:830805,17,-23,-14,-2,-1,-2,0,3
13:42:15:839041,17,-23,-14,-2,-1,-2,0,3
13:42:15:839774,-4,30,6,2,-3,-3,-10,-5
13:42:15:845938,-4,0,-15,-7,2,-1,0,-5
13:42:15:861561,-4,0,-15,-7,2,-1,0,-5
13:42:15:862479,-7,21,6,10,1,-4,0,5
13:42:15:868295,7,5,5,-6,-5,-9,-13,-2
13:42:15:876551,7,5,5,-6,-5,-9,-13,-2
13:42:15:877310,3,-2,7,-3,0,2,9,1
13:42:15:890813,-6,-25,-2,7,3,5,5,3
13:42:15:907158,-6,-25,-2,7,3,5,5,3
13:42:15:908072,-8,-24,-6,-9,-4,-9,-5,-9
13:42:15:908804,3,8,3,-15,-5,1,-6,0
13:42:15:921928,3,8,3,-15,-5,1,-6,0
13:42:15:929059,26,1,-2,2,-1,4,1,7
13:42:15:929820,-2,16,-4,-4,-4,-7,-4,-5
13:42:15:936538,-2,16,-4,-4,-4,-7,-4,-5
13:42:15:937443,-25,-29,-1,1,0,2,-2,-7
13:42:15:950801,-6,5,9,-2,-9,-12,-5,-1
13:42:15:959084,-6,5,9,-2,-9,-12,-5,-1
13:42:15:959923,0,-24,-2,0,1,2,1,-3
13:42:15:965824,-10,-5,1,-7,-4,3,3,-4
13:42:15:973443,-10,-5,1,-7,-4,3,3,-4
13:42:15:980796,-4,-4,-13,-10,-4,-4,-12,-1
13:42:15:988292,13,6,-2,-2,5,1,0,-2
13:42:16:4047,13,6,-2,-2,5,1,0,-2
13:42:16:4824,-15,11,6,0,-2,5,1,-5
13:42:16:10831,-25,-6,3,11,2,4,9,-1
13:42:16:19074,-25,-6,3,11,2,4,9,-1
13:42:16:19911,19,31,3,-2,4,3,3,4
13:42:16:25822,-3,-6,2,4,-2,-1,5,5
13:42:16:33433,-3,-6,2,4,-2,-1,5,5
13:42:16:49040,0,11,-3,3,-3,-2,-5,-4
13:42:16:49778,-16,11,-17,5,5,3,-7,-7
13:42:16:56551,-16,11,-17,5,5,3,-7,-7
13:42:16:57403,16,-22,-12,1,2,-8,1,4
13:42:16:70798,11,14,11,7,-2,-2,-5,1
13:42:16:79046,11,14,11,7,-2,-2,-5,1
13:42:16:79926,4,-14,-7,2,-1,-4,-8,-1
13:42:16:85789,8,-18,0,-1,0,1,7,4
13:42:16:93468,8,-18,0,-1,0,1,7,4
13:42:16:100812,19,-27,-17,-9,-6,-7,-6,0
13:42:16:108338,-16,-7,-4,10,5,4,9,-5
13:42:16:116535,-16,-7,-4,10,5,4,9,-5
13:42:16:117422,-20,10,3,-4,-1,0,10,3
13:42:16:130804,18,6,6,-1,-5,-9,-7,2
13:42:16:139059,18,6,6,-1,-5,-9,-7,2
13:42:16:139921,5,12,-12,-3,1,-2,2,2
13:42:16:145782,-28,-13,7,-6,-4,-3,-8,-7
13:42:16:153406,-28,-13,7,-6,-4,-3,-8,-7
13:42:16:169078,8,2,4,-1,0,4,2,-5
13:42:16:169796,9,-5,-10,-10,-6,-3,-3,-5
13:42:16:176586,9,-5,-10,-10,-6,-3,-3,-5
13:42:16:177430,-7,10,-6,7,8,5,-1,0
13:42:16:190827,-16,-13,-13,-6,0,5,6,-1
13:42:16:199058,-16,-13,-13,-6,0,5,6,-1
13:42:16:199912,-15,21,14,-1,-4,-6,-6,-9
13:42:16:205805,0,7,-9,0,-2,4,1,-1
13:42:16:213421,0,7,-9,0,-2,4,1,-1
13:42:16:229054,17,-1,5,-1,2,6,5,7
13:42:16:229820,39,-11,-2,-6,6,1,4,0
13:42:16:236531,39,-11,-2,-6,6,1,4,0
13:42:16:237446,15,2,8,-5,-6,-4,-5,2
13:42:16:250809,-22,-23,-12,0,2,-1,-12,1
13:42:16:259083,-22,-23,-12,0,2,-1,-12,1
13:42:16:259927,-18,3,2,-3,-3,-1,-5,-1
13:42:16:265788,-11,17,28,-1,-6,-5,0,7
13:42:16:273442,-11,17,28,-1,-6,-5,0,7
13:42:16:280808,-1,7,0,-1,-1,-1,1,2
13:42:16:288323,-15,12,0,-8,2,0,-13,-6
13:42:16:296575,-15,12,0,-8,2,0,-13,-6
13:42:16:297417,7,-12,-18,-5,2,5,1,-3
13:42:16:310834,-17,-47,-7,5,1,0,8,-4
13:42:16:319063,-17,-47,-7,5,1,0,8,-4
13:42:16:319917,6,-2,9,0,-2,-8,-14,-5
13:42:16:325821,5,-2,-11,-6,-6,-7,-7,0
13:42:16:333444,5,-2,-11,-6,-6,-7,-7,0
13:42:16:340830,0,-8,0,3,0,0,5,1
13:42:16:348291,37,27,-2,1,4,0,5,0
13:42:16:356536,37,27,-2,1,4,0,5,0
13:42:16:357299,-19,-4,-2,1,-6,0,12,1
13:42:16:370817,8,23,12,6,0,1,-9,-1
13:42:16:379081,8,23,12,6,0,1,-9,-1
13:42:16:380002,0,1,-4,-5,1,-1,-7,-3
13:42:16:385820,-7,4,-6,-13,-8,-9,-9,-10
13:42:16:393443,-7,4,-6,-13,-8,-9,-9,-10
13:42:16:400943,-20,-7,-12,-7,-5,-1,-7,-4
13:42:16:408326,0,-11,5,6,5,8,1,2
13:42:16:416564,0,-11,5,6,5,8,1,2
13:42:16:417333,-9,-8,16,5,2,-5,-7,-1
13:42:16:430829,-7,5,-1,3,0,-1,0,2
13:42:16:439061,-7,5,-1,3,0,-1,0,2
13:42:16:439808,3,7,10,21,6,6,30,2
13:42:16:445934,0,29,0,1,-2,1,8,5
13:42:16:461577,0,29,0,1,-2,1,8,5
13:42:16:462413,19,9,-5,-5,-4,-4,-1,8
13:42:16:468300,16,-4,-9,-8,-5,-3,3,0
13:42:16:476559,16,-4,-9,-8,-5,-3,3,0
13:42:16:477296,-7,13,2,-2,1,5,0,-3
13:42:16:490849,-23,-17,-2,-6,-4,-11,-16,-4
13:42:16:499188,-23,-17,-2,-6,-4,-11,-16,-4
13:42:16:499813,-7,-9,-3,-3,-2,1,5,-3
13:42:16:505810,15,9,4,1,0,3,0,4
13:42:16:521567,15,9,4,1,0,3,0,4
13:42:16:522435,7,4,-4,-5,-2,-2,-3,-7
13:42:16:528362,-2,-2,-10,-2,-3,5,10,-3
13:42:16:536557,-2,-2,-10,-2,-3,5,10,-3
13:42:16:537303,-5,-2,0,8,7,4,-7,2
13:42:16:550814,-4,-36,-4,-3,-7,-11,-4,-6
13:42:16:559054,-4,-36,-4,-3,-7,-11,-4,-6
13:42:16:559925,21,4,-5,-1,-2,-1,-9,-5
13:42:16:565780,-9,-13,-4,-1,-1,0,3,-2
13:42:16:582182,-9,-13,-4,-1,-1,0,3,-2
13:42:16:583081,-4,5,5,-4,-3,-7,-3,5
13:42:16:588303,11,0,-3,-6,-4,-1,-12,-3
13:42:16:596585,11,0,-3,-6,-4,-1,-12,-3
13:42:16:597441,1,26,0,-10,2,8,-7,-5
13:42:16:610842,7,18,16,4,-2,0,0,-1
13:42:16:619051,7,18,16,4,-2,0,0,-1
13:42:16:619916,-14,-21,-5,10,7,7,5,-2
13:42:16:625838,-10,14,5,-6,-4,-2,-10,-2
13:42:16:641561,-10,14,5,-6,-4,-2,-10,-2
13:42:16:642455,-11,-8,4,-4,-5,-8,-10,-6
13:42:16:648285,10,-14,-10,7,-1,-4,9,-1
13:42:16:656569,10,-14,-10,7,-1,-4,9,-1
13:42:16:657424,15,-10,-7,-3,-8,-10,-5,-3
13:42:16:670794,-9,-13,2,8,1,4,4,-2
13:42:16:679059,-9,-13,2,8,1,4,4,-2
13:42:16:679828,27,37,-2,5,2,0,1,3
13:42:16:685790,1,-5,-4,-4,1,-4,-8,2
13:42:16:701564,1,-5,-4,-4,1,-4,-8,2
13:42:16:702293,-14,-13,-1,-7,-5,-1,-3,0
13:42:16:708347,-3,8,-3,3,1,5,9,2
13:42:16:715933,-3,8,-3,3,1,5,9,2
13:42:16:723334,-21,6,4,3,3,1,23,2
13:42:16:730843,-12,-11,4,0,1,-2,-6,-3
13:42:16:739069,-12,-11,4,0,1,-2,-6,-3
13:42:16:739915,14,5,5,3,1,5,-1,2
13:42:16:753314,39,-20,-9,-13,-3,-9,-2,2
13:42:16:761577,39,-20,-9,-13,-3,-9,-2,2
13:42:16:762441,-6,-20,-31,8,1,-5,-3,1
13:42:16:768305,12,11,4,0,0,0,-2,2
13:42:16:775945,12,11,4,0,0,0,-2,2
13:42:16:783295,-12,-14,-8,-5,-5,-1,1,-2
13:42:16:790827,-24,-15,-16,-4,-3,-11,-6,-4
13:42:16:799078,-24,-15,-16,-4,-3,-11,-6,-4
13:42:16:799785,10,4,13,-3,0,-4,-10,-5
13:42:16:813363,-9,1,9,4,7,7,9,-6
13:42:16:821574,-9,1,9,4,7,7,9,-6
13:42:16:822437,4,11,-2,-13,-7,-7,-7,-7
13:42:16:828302,-7,10,-7,-3,-3,-5,-8,1
13:42:16:835949,-7,10,-7,-3,-3,-5,-8,1
13:42:16:843311,0,-6,3,-2,-2,0,-8,-2
13:42:16:850833,-1,0,-6,-2,-3,-3,-2,-3
13:42:16:859565,-1,0,-6,-2,-3,-3,-2,-3
13:42:16:865808,-16,-2,0,-3,-3,-2,3,3
13:42:16:873430,5,-12,1,2,1,5,-1,3
13:42:16:881550,5,-12,1,2,1,5,-1,3
13:42:16:882309,-12,4,-7,-2,0,2,-8,2
13:42:16:888311,34,13,-3,-1,-1,-3,-7,2
13:42:16:895955,34,13,-3,-1,-1,-3,-7,2
13:42:16:903313,-4,15,-2,0,-4,-5,-3,-8
13:42:16:910855,-12,-24,1,0,0,2,4,1
13:42:16:919059,-12,-24,1,0,0,2,4,1
13:42:16:919927,11,-8,-16,-10,0,1,-1,2
13:42:16:933304,-23,-13,-5,-5,-7,-6,-3,-4
13:42:16:941668,-23,-13,-5,-5,-7,-6,-3,-4
13:42:16:942511,-9,-24,6,5,0,1,0,-2
13:42:16:948314,4,18,10,2,5,2,3,3
13:42:16:955950,4,18,10,2,5,2,3,3
13:42:16:963364,12,-3,-4,-5,-3,-3,14,4
13:42:16:970804,-28,2,4,7,-1,0,-2,-3
13:42:16:979199,-28,2,4,7,-1,0,-2,-3
13:42:16:979817,-7,-8,-6,-1,-2,0,-2,-4
13:42:16:993363,0,16,3,1,-3,4,7,-7
13:42:17:1573,0,16,3,1,-3,4,7,-7
13:42:17:2435,0,12,7,-3,-6,-2,-3,1
13:42:17:8324,8,-18,-10,-5,-1,-1,-5,-2
13:42:17:15803,8,-18,-10,-5,-1,-1,-5,-2
13:42:17:23327,-4,-38,3,1,-2,-6,9,-2
13:42:17:30797,1,-3,4,7,3,0,-3,-2
13:42:17:39081,1,-3,4,7,3,0,-3,-2
13:42:17:39810,6,8,1,2,4,3,-3,-2
13:42:17:53327,-23,11,-5,-8,0,0,-4,-5
13:42:17:61581,-23,11,-5,-8,0,0,-4,-5
13:42:17:62327,6,5,-4,4,7,4,3,0
13:42:17:68296,-4,12,10,7,1,0,9,8
13:42:17:75955,-4,12,10,7,1,0,9,8
13:42:17:83319,4,-20,-4,4,0,-3,-4,-2
13:42:17:90798,1,10,4,-6,-6,-1,-2,2
13:42:17:99086,1,10,4,-6,-6,-1,-2,2
13:42:17:99805,-27,-22,-12,-10,-4,-3,-4,-4
13:42:17:122198,13,-19,-1,-7,-3,-1,0,4
13:42:17:123057,13,-19,-1,-7,-3,-1,0,4
13:42:17:123822,-9,4,2,0,0,-2,-3,-2
13:42:17:128334,-8,-8,-10,-5,-2,2,6,2
13:42:17:135933,-8,-8,-10,-5,-2,2,6,2
13:42:17:143344,0,0,3,3,-1,0,0,-4
13:42:17:150822,12,26,-9,1,0,-4,-5,-3
13:42:17:159058,12,26,-9,1,0,-4,-5,-3
13:42:17:159824,-5,12,8,2,0,-1,3,-2
13:42:17:173343,4,30,-2,-8,-7,-4,-6,2
13:42:17:181579,4,30,-2,-8,-7,-4,-6,2
13:42:17:182314,13,12,-1,1,-4,-3,-4,-1
13:42:17:188299,-4,-17,3,3,0,-2,2,-6
13:42:17:195942,-4,-17,3,3,0,-2,2,-6
13:42:17:203316,0,42,-14,-12,3,4,2,0
13:42:17:210822,-27,-7,5,-4,-4,-5,-11,-5
13:42:17:219067,-27,-7,5,-4,-4,-5,-11,-5
13:42:17:219812,-3,-14,14,6,0,0,-2,-1
13:42:17:233810,8,-5,2,-5,-1,-2,3,1
13:42:17:241604,8,-5,2,-5,-1,-2,3,1
13:42:17:242353,3,-35,-11,-8,-5,3,-4,1
13:42:17:256584,-17,-17,2,7,-3,-5,-2,-4
13:42:17:257334,-17,-17,2,7,-3,-5,-2,-4
13:42:17:263383,7,2,10,3,0,-1,2,2
13:42:17:279719,-2,-1,-3,0,1,-2,-2,0
13:42:17:280541,-2,-1,-3,0,1,-2,-2,0
13:42:17:281290,-27,25,0,2,3,2,-5,-4
13:42:17:293340,9,8,-10,-1,2,1,-1,0
13:42:17:301563,9,8,-10,-1,2,1,-1,0
13:42:17:302309,3,-24,-5,-5,-1,-3,-3,-1
13:42:17:308307,-5,-33,-12,-7,-1,-1,-8,-4
13:42:17:315934,-5,-33,-12,-7,-1,-1,-8,-4
13:42:17:323306,0,-12,13,-1,-7,-4,2,0
13:42:17:330945,16,13,12,6,1,2,3,2
13:42:17:339057,16,13,12,6,1,2,3,2
13:42:17:339815,13,21,11,13,2,2,-1,-1
13:42:17:353287,15,20,4,0,-4,1,5,3
13:42:17:361676,15,20,4,0,-4,1,5,3
13:42:17:362305,29,21,-1,3,-1,0,2,4
13:42:17:368301,9,-14,-4,-4,1,-2,-3,-5
13:42:17:375945,9,-14,-4,-4,1,-2,-3,-5
13:42:17:383306,-2,5,-5,-7,4,-1,-2,1
13:42:17:390795,-13,-2,4,-6,-1,0,2,2
13:42:17:399053,-13,-2,4,-6,-1,0,2,2
13:42:17:399810,1,-36,-27,-8,-5,-9,-8,-2
13:42:17:413336,-3,8,-5,-4,2,2,-1,-10
13:42:17:429693,-3,8,-5,-4,2,2,-1,-10
13:42:17:430419,3,10,-2,-1,3,-2,1,3
13:42:17:431296,9,-6,-2,5,1,1,-4,-2
13:42:17:435936,9,-6,-2,5,1,1,-4,-2
13:42:17:443344,2,37,0,-2,0,-4,-3,2
13:42:17:450830,14,1,4,-2,-2,-2,-1,1
13:42:17:459122,14,1,4,-2,-2,-2,-1,1
13:42:17:459822,-32,10,13,-3,-4,-3,-3,-5
13:42:17:473372,-9,5,13,1,3,2,2,-1
13:42:17:481560,-9,5,13,1,3,2,2,-1
13:42:17:482301,2,-16,1,10,3,4,3,0
13:42:17:488310,10,-2,11,3,-7,-4,-1,7
13:42:17:495935,10,-2,11,3,-7,-4,-1,7
13:42:17:503308,1,-22,0,-12,-7,1,-2,2
13:42:17:510844,-10,-7,-13,-12,-5,-5,-3,-1
13:42:17:519044,-10,-7,-13,-12,-5,-5,-3,-1
13:42:17:519809,4,-2,-4,-11,-2,-3,-6,-5
13:42:17:533327,-7,17,-2,-1,1,-1,-1,1
13:42:17:541581,-7,17,-2,-1,1,-1,-1,1
13:42:17:542341,12,-8,7,2,0,1,3,-4
13:42:17:548315,-24,-31,-18,0,-4,-6,-7,-11
13:42:17:555933,-24,-31,-18,0,-4,-6,-7,-11
13:42:17:563359,29,3,5,12,2,1,-7,2
13:42:17:570823,7,-1,-11,5,4,3,-1,-2
13:42:17:579063,7,-1,-11,5,4,3,-1,-2
13:42:17:579956,-4,3,-8,-1,-2,-3,0,-3
13:42:17:593322,7,9,-14,-6,0,3,6,3
13:42:17:601567,7,9,-14,-6,0,3,6,3
13:42:17:602420,-9,-18,-1,5,-1,-2,-3,-5
13:42:17:608333,-12,-41,-4,-8,-2,-2,0,-4
13:42:17:615927,-12,-41,-4,-8,-2,-2,0,-4
13:42:17:623367,-26,-13,-8,-8,-7,-7,-4,-5
13:42:17:630833,8,6,7,9,6,4,6,-1
13:42:17:639075,8,6,7,9,6,4,6,-1
13:42:17:639840,5,38,11,10,4,1,2,3
13:42:17:653312,8,-36,-7,-2,-4,-3,-4,-3
13:42:17:661610,8,-36,-7,-2,-4,-3,-4,-3
13:42:17:662425,-26,-35,2,-5,-6,-5,1,-1
13:42:17:676578,-14,31,3,-9,2,1,0,0
13:42:17:677482,-14,31,3,-9,2,1,0,0
13:42:17:683314,-8,-11,-2,0,-2,0,1,-1
13:42:17:690808,-9,-4,-4,10,1,1,5,-4
13:42:17:698449,-9,-4,-4,10,1,1,5,-4
13:42:17:713952,16,11,4,0,0,1,0,4
13:42:17:714790,-22,-11,-8,-7,-7,-7,-14,-7
13:42:17:721588,-22,-11,-8,-7,-7,-7,-14,-7
13:42:17:722454,-8,14,-16,-10,-1,1,1,1
13:42:17:744721,9,7,8,0,1,1,1,1
13:42:17:745555,9,7,8,0,1,1,1,1
13:42:17:746340,7,16,-8,-7,-1,0,1,-4
13:42:17:750806,-7,12,-17,2,-3,-1,-1,2
13:42:17:766602,-7,12,-17,2,-3,-1,-1,2
13:42:17:767312,10,35,10,-3,3,4,1,0
13:42:17:773301,-7,-7,10,-5,-4,-3,-1,3
13:42:17:789085,-7,-7,10,-5,-4,-3,-1,3
13:42:17:789808,11,1,1,2,-2,0,2,2
13:42:17:796595,8,-19,-6,-1,-1,-1,-3,5
13:42:17:797319,8,-19,-6,-1,-1,-1,-3,5
13:42:17:803437,-3,61,24,-5,-2,-3,-3,0
13:42:17:810828,4,-4,-4,4,3,1,2,-4
13:42:17:818436,4,-4,-4,4,3,1,2,-4
13:42:17:825820,-5,-10,4,-2,1,-3,-1,1
13:42:17:833316,9,7,4,4,-1,-2,0,2
13:42:17:841592,9,7,4,4,-1,-2,0,2
13:42:17:842346,-5,-53,-11,-4,-4,-3,-3,-2
13:42:17:856569,-20,-5,0,12,3,0,2,-3
13:42:17:857306,-20,-5,0,12,3,0,2,-3
13:42:17:863350,-1,-19,-13,3,9,5,5,-1
13:42:17:870814,15,18,7,-11,-1,0,-1,2
13:42:17:878526,15,18,7,-11,-1,0,-1,2
13:42:17:885813,-1,8,0,2,1,0,-2,1
13:42:17:893351,5,2,-8,-3,-5,-1,1,1
13:42:17:901590,5,2,-8,-3,-5,-1,1,1
13:42:17:902438,-6,-31,6,-3,-6,-3,-4,-4
13:42:17:916579,-9,3,2,4,-3,-6,-1,0
13:42:17:917446,-9,3,2,4,-3,-6,-1,0
13:42:17:923320,3,7,1,-3,-1,0,1,-1
13:42:17:930806,-4,-8,2,-1,2,0,-2,-3
13:42:17:938447,-4,-8,2,-1,2,0,-2,-3
13:42:17:953975,3,-8,-3,13,4,-2,-5,-5
13:42:17:954801,8,-32,-15,-20,-6,-1,-2,-3
13:42:17:961568,8,-32,-15,-20,-6,-1,-2,-3
13:42:17:962319,-21,-28,-19,-14,-9,-3,2,-1
13:42:17:976551,-35,-24,15,-2,-2,-2,-2,-6
13:42:17:977321,-35,-24,15,-2,-2,-2,-2,-6
13:42:17:991519,-9,-27,-3,2,-4,-2,-1,-2
13:42:17:992337,23,22,6,6,-2,0,-1,2
13:42:17:998457,23,22,6,6,-2,0,-1,2
13:42:18:5824,17,65,7,-3,0,0,-4,-4
13:42:18:13341,3,-4,-3,-2,-1,-1,-5,-1
13:42:18:21564,3,-4,-3,-2,-1,-1,-5,-1
13:42:18:22319,6,15,-1,0,-3,-3,-2,-3
13:42:18:36571,-7,-4,0,12,3,0,-4,-4
13:42:18:37315,-7,-4,0,12,3,0,-4,-4
13:42:18:43351,-16,-30,-8,-10,5,1,0,3
13:42:18:50818,-8,-41,-6,-11,-5,-4,2,-3
13:42:18:58452,-8,-41,-6,-11,-5,-4,2,-3
13:42:18:65812,6,16,12,2,-5,-5,-3,2
13:42:18:73336,1,7,6,-2,4,4,2,2
13:42:18:81562,1,7,6,-2,4,4,2,2
13:42:18:82299,-11,-18,-6,2,-7,-2,-4,-3
13:42:18:96607,-8,19,-16,8,-2,0,1,-4
13:42:18:97302,-8,19,-16,8,-2,0,1,-4
13:42:18:103305,1,-10,-6,-3,-4,0,4,2
13:42:18:110826,-11,13,7,1,3,2,1,0
13:42:18:118427,-11,13,7,1,3,2,1,0
13:42:18:125831,-11,-51,-23,-6,-2,-3,-3,-4
13:42:18:133352,28,30,10,-9,-6,-6,-2,6
13:42:18:141622,28,30,10,-9,-6,-6,-2,6
13:42:18:142364,13,27,9,7,6,4,-1,-1
13:42:18:156581,5,3,-10,-8,-4,-4,-4,-5
13:42:18:157453,5,3,-10,-8,-4,-4,-4,-5
13:42:18:163359,2,9,0,-4,-3,-2,1,0
13:42:18:170840,2,2,-5,10,4,2,3,3
13:42:18:178343,2,2,-5,10,4,2,3,3
13:42:18:185826,-16,-38,-2,0,2,0,-1,-2
13:42:18:193362,-34,-1,0,-2,-4,-2,4,-3
13:42:18:201586,-34,-1,0,-2,-4,-2,4,-3
13:42:18:202306,-8,-3,9,8,3,3,4,1
13:42:18:216561,16,-28,-10,7,2,-1,-2,0
13:42:18:217304,16,-28,-10,7,2,-1,-2,0
13:42:18:223317,-4,16,5,1,0,-1,-2,-5
13:42:18:230845,0,8,6,1,-1,-1,-2,1
13:42:18:238468,0,8,6,1,-1,-1,-2,1
13:42:18:245832,-10,-34,-18,-3,0,-5,-5,-6
13:42:18:253338,26,24,-13,-12,-2,0,-3,4
13:42:18:261618,26,24,-13,-12,-2,0,-3,4
13:42:18:262295,-11,24,1,7,0,-3,-3,-3
13:42:18:276641,13,21,-1,-1,3,5,7,7
13:42:18:277351,13,21,-1,-1,3,5,7,7
13:42:18:283312,18,23,9,-2,-1,-1,1,3
13:42:18:290870,1,-39,-21,-8,-8,-3,-1,-5
13:42:18:298456,1,-39,-21,-8,-8,-3,-1,-5
13:42:18:305853,-39,-23,14,3,-2,0,0,-2
13:42:18:313347,2,33,8,7,5,-2,-3,-1
13:42:18:321587,2,33,8,7,5,-2,-3,-1
13:42:18:322320,7,-13,-7,1,0,-2,-1,-6
13:42:18:336571,6,-9,-1,0,1,-5,-5,-3
13:42:18:337326,6,-9,-1,0,1,-5,-5,-3
13:42:18:343337,14,4,-7,-15,2,2,4,4
13:42:18:350811,-21,-23,0,-5,-3,-1,1,-3
13:42:18:358446,-21,-23,0,-5,-3,-1,1,-3
13:42:18:365804,7,-13,1,-7,-3,0,3,3
13:42:18:373339,-21,-20,-2,-3,0,0,-1,-2
13:42:18:389085,-21,-20,-2,-3,0,0,-1,-2
13:42:18:389824,27,14,-10,-1,-5,-1,0,0
13:42:18:396609,1,13,8,-8,-3,0,0,-3
13:42:18:397462,1,13,8,-8,-3,0,0,-3
13:42:18:411452,-1,2,-5,5,3,3,-5,-3
13:42:18:412349,5,16,7,-10,-3,0,-1,-4
13:42:18:418447,5,16,7,-10,-3,0,-1,-4
13:42:18:433962,6,-6,8,-4,-4,-2,1,3
13:42:18:434820,-6,-4,0,-1,-1,-1,-4,-2
13:42:18:441604,-6,-4,0,-1,-1,-1,-4,-2
13:42:18:442313,5,36,5,-4,-4,0,-5,3
13:42:18:456980,4,-2,-33,6,1,-2,1,0
13:42:18:457828,4,-2,-33,6,1,-2,1,0
13:42:18:463350,-12,-4,-4,-1,-5,-6,-1,-4
13:42:18:479074,11,14,13,-2,-3,0,-4,0
13:42:18:479882,11,14,13,-2,-3,0,-4,0
13:42:18:485848,-11,-18,-17,-4,-3,0,4,4
13:42:18:502197,-6,10,22,5,2,-2,-5,-2
13:42:18:502940,-6,10,22,5,2,-2,-5,-2
13:42:18:503842,11,11,11,-6,-1,0,-2,-1
13:42:18:516198,-3,-7,-2,4,2,0,0,-2
13:42:18:524097,-3,-7,-2,4,2,0,0,-2
13:42:18:524947,-6,-14,-3,-4,-3,-4,-4,-2
13:42:18:530824,-5,-6,3,1,-3,0,0,0
13:42:18:538317,-5,-6,3,1,-3,0,0,0
13:42:18:545836,10,11,8,10,6,2,2,-3
13:42:18:553323,-2,-18,-9,-8,0,-1,4,1
13:42:18:561610,-2,-18,-9,-8,0,-1,4,1
13:42:18:562321,-6,-14,-8,-5,-1,-4,-5,-4
13:42:18:576578,3,13,-1,-1,-3,-2,4,0
13:42:18:577311,3,13,-1,-1,-3,-2,4,0
13:42:18:583345,4,10,6,7,1,3,3,2
13:42:18:599439,-10,-1,-2,2,-1,-1,-2,-1
13:42:18:600326,-10,-1,-2,2,-1,-1,-2,-1
13:42:18:605823,-4,-11,-13,-5,-1,-2,1,1
13:42:18:613345,-6,-24,-6,0,-4,-5,-7,-2
13:42:18:629077,-6,-24,-6,0,-4,-5,-7,-2
13:42:18:629995,0,0,0,-5,-4,-5,-6,-1
13:42:18:636952,-8,3,-1,-4,2,2,3,0
13:42:18:644080,-8,3,-1,-4,2,2,3,0
13:42:18:644821,-7,-4,-3,2,-2,-2,-2,-4
13:42:18:659080,6,20,6,0,-4,1,-1,5
13:42:18:659994,6,20,6,0,-4,1,-1,5
13:42:18:665814,-2,14,8,6,3,6,0,-1
13:42:18:673320,0,12,-21,-4,0,0,4,0
13:42:18:689093,0,12,-21,-4,0,0,4,0
13:42:18:689825,-2,-31,-7,-7,-7,-5,-4,-5
13:42:18:696595,-4,8,11,0,2,3,1,0
13:42:18:697447,-4,8,11,0,2,3,1,0
13:42:18:703342,2,28,-6,0,-2,-2,0,-2
13:42:18:727240,-5,-5,6,-1,-2,-3,-4,-1
13:42:18:728109,-5,-5,6,-1,-2,-3,-4,-1
13:42:18:728847,-12,13,3,-8,-2,-1,-11,-11
13:42:18:741644,10,4,-2,5,3,4,3,3
13:42:18:742331,10,4,-2,5,3,4,3,3
13:42:18:748323,8,3,4,10,2,-1,3,9
13:42:18:764710,-9,-3,4,4,0,-4,-5,-8
13:42:18:765561,-9,-3,4,4,0,-4,-5,-8
13:42:18:766307,2,0,2,6,6,3,6,5
13:42:18:779092,-10,-4,8,0,-3,-2,-4,-1
13:42:18:779841,-10,-4,8,0,-3,-2,-4,-1
13:42:18:785837,-20,-30,-13,-7,-5,-3,-7,-6
13:42:18:793321,26,-4,3,-8,-4,-2,4,5
13:42:18:800821,26,-4,3,-8,-4,-2,4,5
13:42:18:808350,-9,-1,-11,-9,-1,-1,3,-1
13:42:18:816582,11,-21,-12,3,-4,-4,-5,6
13:42:18:817312,11,-21,-12,3,-4,-4,-5,6
13:42:18:823329,37,-35,2,-10,-5,2,1,-3
13:42:18:839083,25,32,8,2,1,-2,-5,-8
13:42:18:839822,25,32,8,2,1,-2,-5,-8
13:42:18:845836,11,6,-10,-9,-2,-2,-1,2
13:42:18:853346,-2,-58,-18,-3,-2,-3,-4,-4
13:42:18:860988,-2,-58,-18,-3,-2,-3,-4,-4
13:42:18:868309,-11,14,4,-6,-1,0,-4,-4
13:42:18:876580,-3,10,2,2,6,1,1,-2
13:42:18:877372,-3,10,2,2,6,1,1,-2
13:42:18:883340,-2,-14,10,6,0,0,0,2
13:42:18:899072,-12,-7,9,2,1,2,1,-2
13:42:18:899838,-12,-7,9,2,1,2,1,-2
13:42:18:905848,-3,20,8,16,13,3,-2,6
13:42:18:913368,-9,-17,-4,-9,-8,-5,-5,0
13:42:18:920955,-9,-17,-4,-9,-8,-5,-5,0
13:42:18:928323,-23,23,-3,4,1,2,1,-7
13:42:18:936560,-4,3,2,-1,-2,1,4,-1
13:42:18:937478,-4,3,2,-1,-2,1,4,-1
13:42:18:943359,10,-5,5,2,-6,-9,-4,-1
13:42:18:967235,-20,-14,-14,-4,0,4,4,3
13:42:18:968094,-20,-14,-14,-4,0,4,4,3
13:42:18:968877,-6,5,-5,6,-1,0,0,-7
13:42:18:973361,19,7,4,-3,-2,-2,3,2
13:42:18:989073,19,7,4,-3,-2,-2,3,2
13:42:18:989853,18,14,-8,1,-1,-3,1,5
13:42:19:12207,-15,8,3,-6,-1,1,-1,-1
13:42:19:13108,-15,8,3,-6,-1,1,-1,-1
13:42:19:13812,3,-3,-3,-7,-7,-5,-4,-5
13:42:19:18963,-12,-15,-19,-7,-3,-6,-8,-6
13:42:19:19814,-12,-15,-19,-7,-3,-6,-8,-6
13:42:19:33961,-7,7,1,-6,0,1,3,-1
13:42:19:34818,-6,13,2,3,1,-5,-5,-2
13:42:19:40941,-6,13,2,3,1,-5,-5,-2
13:42:19:48331,-7,-10,-4,0,0,-2,-1,-1
13:42:19:64717,20,79,12,-1,-2,-1,2,4
13:42:19:65589,20,79,12,-1,-2,-1,2,4
13:42:19:66325,9,10,3,-5,-3,-3,-2,5
13:42:19:79113,-9,-30,-2,-2,-3,0,-4,1
13:42:19:79846,-9,-30,-2,-2,-3,0,-4,1
13:42:19:85861,-11,-14,-8,0,0,0,2,-3
13:42:19:93360,-1,-10,-2,2,-1,1,1,-2
13:42:19:100988,-1,-10,-2,2,-1,1,1,-2
13:42:19:108319,-1,-11,-5,-10,-3,-3,-3,1
13:42:19:116585,21,5,0,-1,-1,-2,-1,-7
13:42:19:117459,21,5,0,-1,-1,-2,-1,-7
13:42:19:123358,13,-22,-10,1,-3,-3,-3,4
13:42:19:139103,-6,-23,1,0,-3,0,-7,-1
13:42:19:139829,-6,-23,1,0,-3,0,-7,-1
13:42:19:145827,-6,19,4,4,1,-2,-3,-4
13:42:19:153341,-23,-1,-13,-3,2,-1,13,5
13:42:19:160939,-23,-1,-13,-3,2,-1,13,5
13:42:19:168317,3,8,1,7,1,-1,1,4
13:42:19:176592,3,-3,4,-6,-4,-2,-4,-5
13:42:19:177343,3,-3,4,-6,-4,-2,-4,-5
13:42:19:183393,-1,2,-1,-5,-1,3,4,-1
13:42:19:199075,-14,-8,3,6,0,-1,0,-2
13:42:19:199955,-14,-8,3,6,0,-1,0,-2
13:42:19:205827,0,-28,2,-3,-2,-4,-7,-3
13:42:19:213372,7,29,3,-5,1,4,2,-1
13:42:19:220823,7,29,3,-5,1,4,2,-1
13:42:19:228346,1,14,6,1,5,8,-3,0
13:42:19:236563,-6,9,1,1,-1,-10,-8,-4
13:42:19:237310,-6,9,1,1,-1,-10,-8,-4
13:42:19:243360,-29,-27,-9,-2,1,-1,0,-6
13:42:19:259090,-29,-27,-9,-2,1,-1,0,-6
13:42:19:259834,5,16,2,-2,0,2,-2,-4
13:42:19:265814,21,32,3,-1,-2,-3,2,7
13:42:19:281587,21,32,3,-1,-2,-3,2,7
13:42:19:282327,2,-14,3,3,2,2,4,2
13:42:19:288342,15,-9,-1,0,0,5,0,4
13:42:19:296598,15,-9,-1,0,0,5,0,4
13:42:19:297324,2,8,5,-3,-3,2,8,-1
13:42:19:310850,1,-6,-3,-3,-3,-5,-3,-1
13:42:19:319096,1,-6,-3,-3,-3,-5,-3,-1
13:42:19:319829,18,-19,-9,3,-2,-2,-4,-1
13:42:19:325870,-2,-7,3,7,7,7,0,-2
13:42:19:341597,-2,-7,3,7,7,7,0,-2
13:42:19:342362,-11,-12,-7,-5,0,-3,-2,0
13:42:19:348343,0,7,5,-4,-7,-7,-6,-5
13:42:19:357189,0,7,5,-4,-7,-7,-6,-5
13:42:19:358071,9,6,2,-1,0,-1,3,-1
13:42:19:363360,9,0,-5,-9,-4,-2,-4,3
13:42:19:379090,9,0,-5,-9,-4,-2,-4,3
13:42:19:379862,-23,-15,0,-10,-3,-1,-2,-1
13:42:19:385848,21,-2,1,3,-2,-1,3,-3
13:42:19:402095,21,-2,1,3,-2,-1,3,-3
13:42:19:402823,15,-6,-4,12,13,4,-2,0
13:42:19:408345,-18,-7,-5,-3,-2,-1,1,-5
13:42:19:416609,-18,-7,-5,-3,-2,-1,1,-5
13:42:19:417328,-19,-20,-13,-4,-8,-4,2,5
13:42:19:423344,2,-10,0,2,3,-6,-9,-1
13:42:19:439105,2,-10,0,2,3,-6,-9,-1
13:42:19:439829,-43,-43,-10,-1,5,2,-2,-12
13:42:19:445859,-5,0,-2,-5,-4,-1,1,-3
13:42:19:461633,-5,0,-2,-5,-4,-1,1,-3
13:42:19:462327,-38,-48,-11,-3,-7,-3,0,-3
13:42:19:468346,22,5,2,2,0,-5,0,6
13:42:19:476609,22,5,2,2,0,-5,0,6
13:42:19:477353,4,3,-6,7,-1,-4,-8,-11
13:42:19:483321,0,10,-3,-3,-2,0,6,6
13:42:19:499124,0,10,-3,-3,-2,0,6,6
13:42:19:499835,-4,22,6,-1,-2,-4,-4,-2
13:42:19:505834,15,15,0,1,-9,-5,-5,-5
13:42:19:521592,15,15,0,1,-9,-5,-5,-5
13:42:19:522324,-22,1,9,-4,-2,-5,-6,-11
13:42:19:528376,-63,-17,-2,-4,-2,0,0,-18
13:42:19:536586,-63,-17,-2,-4,-2,0,0,-18
13:42:19:537324,1,26,8,3,-2,4,3,0
13:42:19:550822,-54,-41,-2,2,-4,-7,-14,-19
13:42:19:559100,-54,-41,-2,2,-4,-7,-14,-19
13:42:19:559846,20,25,3,-2,-2,-1,-5,-8
13:42:19:565811,25,-14,-7,5,2,2,9,9
13:42:19:581580,25,-14,-7,5,2,2,9,9
13:42:19:582340,33,14,11,3,-4,0,8,14
13:42:19:588339,-38,-3,1,-13,-6,-5,0,-2
13:42:19:596585,-38,-3,1,-13,-6,-5,0,-2
13:42:19:597332,34,12,9,6,-6,-6,-7,2
13:42:19:610901,-9,5,-4,-2,4,2,-2,-7
13:42:19:619081,-9,5,-4,-2,4,2,-2,-7
13:42:19:619816,1,-5,-1,-7,-8,-3,-3,-5
13:42:19:625858,19,8,-3,-6,1,4,6,8
13:42:19:641603,19,8,-3,-6,1,4,6,8
13:42:19:642352,73,5,0,-1,3,1,2,13
13:42:19:648347,26,-24,-8,-1,1,3,6,4
13:42:19:656572,26,-24,-8,-1,1,3,6,4
13:42:19:657330,-4,-18,-8,-9,-3,-6,-10,11
13:42:19:670829,-18,-10,-3,-3,1,-2,8,4
13:42:19:687215,-18,-10,-3,-3,1,-2,8,4
13:42:19:687956,2,28,1,-2,4,3,-4,-2
13:42:19:688840,26,66,15,7,-3,-3,-3,2
13:42:19:701585,26,66,15,7,-3,-3,-3,2
13:42:19:702316,0,-3,-16,-8,-3,-1,-4,0
13:42:19:708328,-41,-24,8,0,0,11,7,-1
13:42:19:724103,-41,-24,8,0,0,11,7,-1
13:42:19:724950,-40,-15,-5,0,-5,-7,-8,-7
13:42:19:730834,-43,7,-2,3,-1,-6,-3,-9
13:42:19:747221,-43,7,-2,3,-1,-6,-3,-9
13:42:19:748065,11,-11,-1,-3,-2,-1,-3,-6
13:42:19:748817,14,20,0,3,0,-1,-1,-7
13:42:19:761607,14,20,0,3,0,-1,-1,-7
13:42:19:762327,-39,-24,-6,6,10,-1,2,2
13:42:19:768322,25,6,0,2,2,1,-1,-2
13:42:19:776616,25,6,0,2,2,1,-1,-2
13:42:19:777353,-3,15,8,-8,2,4,5,2
13:42:19:790846,-27,-30,-13,-10,-8,-8,-10,-16
13:42:19:799094,-27,-30,-13,-10,-8,-8,-10,-16
13:42:19:799830,-7,-7,-9,-4,3,3,-2,2
13:42:19:805860,1,23,6,4,-5,-13,-14,0
13:42:19:821600,1,23,6,4,-5,-13,-14,0
13:42:19:822334,45,23,-1,-8,-2,1,2,-1
13:42:19:828376,5,-15,4,2,-1,4,4,-8
13:42:19:836584,5,-15,4,2,-1,4,4,-8
13:42:19:837335,-16,-12,6,5,-1,1,3,-3
13:42:19:850824,21,10,-5,-4,0,-2,-1,6
13:42:19:859151,21,10,-5,-4,0,-2,-1,6
13:42:19:859818,-30,13,1,0,1,4,3,0
13:42:19:865831,-21,2,-4,-3,-4,-7,1,3
13:42:19:881598,-21,2,-4,-3,-4,-7,1,3
13:42:19:882331,-39,-7,0,7,1,4,14,-6
13:42:19:888319,9,2,6,2,2,2,-1,0
13:42:19:896606,9,2,6,2,2,2,-1,0
13:42:19:897337,34,-25,-1,-7,-3,-5,-4,-1
13:42:19:910889,3,3,1,1,3,2,-2,2
13:42:19:919090,3,3,1,1,3,2,-2,2
13:42:19:919837,-14,-22,-13,-4,-5,-4,5,-3
13:42:19:925924,-32,-36,-5,-5,-5,-4,-11,-7
13:42:19:941673,-32,-36,-5,-5,-5,-4,-11,-7
13:42:19:942365,16,10,-2,7,-1,0,3,-1
13:42:19:948337,26,14,-1,3,3,3,-3,5
13:42:19:956612,26,14,-1,3,3,3,-3,5
13:42:19:957359,43,9,-3,-1,-3,-6,-9,8
13:42:19:970844,-33,40,6,5,3,8,5,-4
13:42:19:979095,-33,40,6,5,3,8,5,-4
13:42:19:979857,41,6,-10,-2,0,3,-7,6
13:42:19:985829,22,-18,-3,-9,-12,-4,12,3
13:42:20:1594,22,-18,-3,-9,-12,-4,12,3
13:42:20:2326,-15,-19,-5,-26,-13,-6,-4,-8
13:42:20:8377,28,-55,-14,-4,1,10,10,4
13:42:20:16596,28,-55,-14,-4,1,10,10,4
13:42:20:17337,-35,-35,3,0,-2,-6,0,-5
13:42:20:30847,4,-11,5,-1,4,-1,5,5
13:42:20:47205,4,-11,5,-1,4,-1,5,5
13:42:20:48071,18,32,11,18,11,12,10,2
13:42:20:48829,0,53,0,8,5,-10,-12,13
13:42:20:69719,0,53,0,8,5,-10,-12,13
13:42:20:70465,-78,-3,3,5,5,1,17,-7
13:42:20:71334,21,-20,4,5,5,11,-3,-4
13:42:20:76609,21,-20,4,5,5,11,-3,-4
13:42:20:77372,38,6,15,4,1,0,-18,24
13:42:20:90880,1,1,-1,-6,-4,-1,-3,-3
13:42:20:99094,1,1,-1,-6,-4,-1,-3,-3
13:42:20:99839,1,-1,-8,-1,-9,-9,-6,-7
13:42:20:105835,-6,-1,2,11,9,2,-8,-6
13:42:20:121586,-6,-1,2,11,9,2,-8,-6
13:42:20:122402,16,-15,0,0,1,2,-4,-9
13:42:20:128346,3,34,-8,-8,-5,2,10,7
13:42:20:136604,3,34,-8,-8,-5,2,10,7
13:42:20:137319,-12,-27,-13,-2,-1,0,-17,-24
13:42:20:150826,9,-3,-2,4,4,-1,-6,20
13:42:20:167235,9,-3,-2,4,4,-1,-6,20
13:42:20:168079,7,29,5,3,-1,-5,2,10
13:42:20:168824,7,-10,0,-8,-8,-12,-13,-7
13:42:20:181620,7,-10,0,-8,-8,-12,-13,-7
13:42:20:182327,0,-1,3,8,3,0,2,-4
13:42:20:188340,-15,14,-3,-4,-3,2,0,0
13:42:20:204118,-15,14,-3,-4,-3,2,0,0
13:42:20:204840,23,11,-7,-1,-1,-4,7,10
13:42:20:210884,-1,-21,-5,1,-4,-11,-13,-7
13:42:20:219078,-1,-21,-5,1,-4,-11,-13,-7
13:42:20:219841,-31,-31,-6,-7,-6,-3,2,1
13:42:20:225915,18,10,2,-9,10,17,7,8
13:42:20:241643,18,10,2,-9,10,17,7,8
13:42:20:242404,-26,3,-8,-4,2,0,2,-2
13:42:20:248329,-55,-30,1,0,-6,-11,-9,-2
13:42:20:256593,-55,-30,1,0,-6,-11,-9,-2
13:42:20:257356,-33,-14,-5,-11,-8,-3,1,5
13:42:20:270847,19,4,-8,4,1,6,10,-7
13:42:20:279106,19,4,-8,4,1,6,10,-7
13:42:20:279867,38,-10,-6,1,16,6,-4,-12
13:42:20:285817,0,-28,-15,-7,-6,3,6,-9
13:42:20:301583,0,-28,-15,-7,-6,3,6,-9
13:42:20:302358,11,55,-4,-13,-10,-3,4,-6
13:42:20:308364,-54,-31,-6,-1,-5,-10,-3,-22
13:42:20:316589,-54,-31,-6,-1,-5,-10,-3,-22
13:42:20:317329,11,37,14,9,-8,-10,-2,0
13:42:20:330824,8,43,18,-7,-12,-15,-19,-13
13:42:20:347223,8,43,18,-7,-12,-15,-19,-13
13:42:20:348084,14,16,9,1,3,7,4,0
13:42:20:348830,28,10,4,5,3,4,15,18
13:42:20:361656,28,10,4,5,3,4,15,18
13:42:20:362329,1,7,-17,-14,9,-1,-6,10
13:42:20:368349,28,-10,-11,-3,-4,-14,-20,7
13:42:20:376629,28,-10,-11,-3,-4,-14,-20,7
13:42:20:377395,-22,29,13,5,-6,-7,-9,-5
13:42:20:390847,11,4,-9,-10,-4,-2,-4,-10
13:42:20:399092,11,4,-9,-10,-4,-2,-4,-10
13:42:20:399829,-26,-5,-2,7,0,-7,-19,-2
13:42:20:405848,-8,8,6,11,7,10,6,1
13:42:20:421588,-8,8,6,11,7,10,6,1
13:42:20:422334,28,-18,2,3,-1,1,32,11
13:42:20:428374,-20,-3,-7,-10,1,-3,1,4
13:42:20:443852,-20,-3,-7,-10,1,-3,1,4
13:42:20:451503,-21,-15,0,-2,-1,4,7,-5
13:42:20:452318,-34,-41,20,-2,0,3,4,-6
13:42:20:459091,-34,-41,20,-2,0,3,4,-6
13:42:20:459858,-11,-2,-6,-8,-7,-2,-10,1
13:42:20:465870,66,41,-9,0,-6,2,9,15
13:42:20:481646,66,41,-9,0,-6,2,9,15
13:42:20:482325,26,-63,-4,4,3,1,-11,-12
13:42:20:488324,-3,-11,-8,4,9,11,-7,-5
13:42:20:495954,-3,-11,-8,4,9,11,-7,-5
13:42:20:503339,13,7,9,-8,-9,-4,-8,-3
13:42:20:510876,13,44,24,1,4,-3,3,-1
13:42:20:519100,13,44,24,1,4,-3,3,-1
13:42:20:519823,-19,9,13,-6,-6,-4,-17,-8
13:42:20:533364,6,10,6,-2,-5,-1,15,4
13:42:20:541600,6,10,6,-2,-5,-1,15,4
13:42:20:542331,5,25,6,23,21,3,2,-1
13:42:20:548351,22,-7,-15,2,6,4,-3,9
13:42:20:555958,22,-7,-15,2,6,4,-3,9
13:42:20:563359,-25,-27,-14,-19,-24,-16,-16,-4
13:42:20:570841,-10,-18,1,6,5,2,-4,12
13:42:20:579471,-10,-18,1,6,5,2,-4,12
13:42:20:585846,-26,-15,-7,0,-6,-5,3,-4
13:42:20:593370,-22,-19,-11,-11,-10,-6,-7,-6
13:42:20:601593,-22,-19,-11,-11,-10,-6,-7,-6
13:42:20:602346,34,10,12,10,6,1,-4,8
13:42:20:608404,-22,-7,-6,3,2,1,14,-12
13:42:20:615844,-22,-7,-6,3,2,1,14,-12
13:42:20:623339,-21,12,-5,-1,-2,6,6,-1
13:42:20:630839,-9,-12,-7,-3,-3,-1,-4,-2
13:42:20:639143,-9,-12,-7,-3,-3,-1,-4,-2
13:42:20:639868,19,18,17,9,2,-2,0,5
13:42:20:653327,-10,-3,8,1,-2,-1,-9,-7
13:42:20:669709,-10,-3,8,1,-2,-1,-9,-7
13:42:20:670473,-2,-11,-14,-7,-1,5,5,1
13:42:20:671337,54,27,8,3,5,13,19,7
13:42:20:675871,54,27,8,3,5,13,19,7
13:42:20:683360,-9,0,0,-3,12,-1,-10,1
13:42:20:690849,-26,25,4,0,-6,-8,-15,-8
13:42:20:699097,-26,25,4,0,-6,-8,-15,-8
13:42:20:699854,13,-12,-6,1,-6,1,2,-9
13:42:20:713377,-11,-25,-11,-9,-6,-13,3,-4
13:42:20:721604,-11,-25,-11,-9,-6,-13,3,-4
13:42:20:722375,-15,46,10,6,3,12,17,7
13:42:20:728367,-17,23,17,-2,-11,-12,-19,-5
13:42:20:735960,-17,23,17,-2,-11,-12,-19,-5
13:42:20:743344,-7,-21,-1,-5,-9,-4,5,-9
13:42:20:750860,8,-42,-8,5,13,-5,-9,-5
13:42:20:759136,8,-42,-8,5,13,-5,-9,-5
13:42:20:759865,-15,-23,-8,-4,1,1,0,15
13:42:20:773353,17,-26,-7,-2,-2,5,-21,-9
13:42:20:781599,17,-26,-7,-2,-2,5,-21,-9
13:42:20:782339,36,-13,-24,2,-3,-7,-3,-16
13:42:20:788349,22,31,4,0,2,6,9,5
13:42:20:795964,22,31,4,0,2,6,9,5
13:42:20:803333,-68,46,6,3,0,-2,-6,-10
13:42:20:810860,-4,-2,-1,4,2,4,-5,-11
13:42:20:819080,-4,-2,-1,4,2,4,-5,-11
13:42:20:819838,27,-22,-12,-16,-8,-15,12,6
13:42:20:833349,-20,19,-1,-11,-5,-14,2,1
13:42:20:841639,-20,19,-1,-11,-5,-14,2,1
13:42:20:842352,4,-2,10,5,4,14,-10,0
13:42:20:848336,17,11,-4,0,-4,2,8,9
13:42:20:855867,17,11,-4,0,-4,2,8,9
13:42:20:863384,18,-42,-10,-2,0,-6,-5,0
13:42:20:870871,-65,0,-9,-7,-6,1,-14,-19
13:42:20:879109,-65,0,-9,-7,-6,1,-14,-19
13:42:20:879895,30,6,5,-5,-5,-5,3,14
13:42:20:893362,-8,-32,-6,5,9,0,3,5
13:42:20:901620,-8,-32,-6,5,9,0,3,5
13:42:20:902333,2,4,-3,1,1,0,12,0
13:42:20:908343,-13,-17,2,1,-3,-3,3,-4
13:42:20:915837,-13,-17,2,1,-3,-3,3,-4
13:42:20:923368,-9,-15,-2,9,6,8,7,-3
13:42:20:930856,-7,-13,-9,0,5,-1,-1,4
13:42:20:939100,-7,-13,-9,0,5,-1,-1,4
13:42:20:939850,-24,7,2,1,-2,1,-28,-10
13:42:20:953336,-5,-23,-1,-2,-4,-6,-13,-6
13:42:20:962229,-5,-23,-1,-2,-4,-6,-13,-6
13:42:20:963111,9,4,1,0,-2,-4,-2,3
13:42:20:968334,13,22,-1,-13,-14,-2,8,10
13:42:20:976001,13,22,-1,-13,-14,-2,8,10
13:42:20:983365,2,-6,-23,-7,2,6,1,-4
13:42:20:990851,29,-7,-6,2,-1,-3,11,11
13:42:20:999104,29,-7,-6,2,-1,-3,11,11
13:42:20:999831,6,-14,-11,-9,-9,-6,1,-2
13:42:21:13386,-17,-38,-16,7,0,3,1,-3
13:42:21:21605,-17,-38,-16,7,0,3,1,-3
13:42:21:22353,-16,-34,-1,3,6,4,-9,-2
13:42:21:28391,59,15,18,3,-5,-10,4,10
13:42:21:35984,59,15,18,3,-5,-10,4,10
13:42:21:43402,-15,3,0,-4,-3,2,3,-4
13:42:21:50864,5,28,15,2,-3,3,-2,-2
13:42:21:59166,5,28,15,2,-3,3,-2,-2
13:42:21:59880,-14,24,9,-1,0,-3,9,1
13:42:21:73379,-8,12,-7,-3,4,2,0,-3
13:42:21:81621,-8,12,-7,-3,4,2,0,-3
13:42:21:82368,-9,-34,-9,0,1,2,-11,-8
13:42:21:88340,-34,2,-5,-6,-8,-7,-8,-4
13:42:21:95976,-34,2,-5,-6,-8,-7,-8,-4
13:42:21:103343,45,23,11,0,-2,-3,-6,5
13:42:21:110888,-9,14,-9,-5,5,8,-2,-7
13:42:21:119107,-9,14,-9,-5,5,8,-2,-7
13:42:21:119832,3,-20,-3,-3,-3,-2,12,3
13:42:21:133360,-3,31,4,1,-1,-1,18,3
13:42:21:141630,-3,31,4,1,-1,-1,18,3
13:42:21:142367,13,14,0,-1,2,5,12,2
13:42:21:148348,-33,-45,-19,-8,-6,-1,-3,-7
13:42:21:155856,-33,-45,-19,-8,-6,-1,-3,-7
13:42:21:163373,7,-12,-2,4,7,8,-1,-1
13:42:21:170833,-6,12,6,-9,1,-4,-11,2
13:42:21:179112,-6,12,6,-9,1,-4,-11,2
13:42:21:179860,-14,12,8,3,-4,-6,-2,-3
13:42:21:193371,8,-19,7,4,6,6,14,-6
13:42:21:201604,8,-19,7,4,6,6,14,-6
13:42:21:202387,34,23,6,-9,-11,-12,-4,3
13:42:21:208383,8,-8,14,8,0,5,23,13
13:42:21:215855,8,-8,14,8,0,5,23,13
13:42:21:223374,-15,16,-2,9,12,7,-12,-2
13:42:21:230851,1,-22,0,1,-5,-8,-17,-3
13:42:21:246655,1,-22,0,1,-5,-8,-17,-3
13:42:21:247336,-22,5,-1,-8,-5,-3,-2,-11
13:42:21:253327,-1,-17,-4,-2,-3,-4,-5,0
13:42:21:261619,-1,-17,-4,-2,-3,-4,-5,0
13:42:21:262355,-6,-9,1,-6,-5,-4,-6,-5
13:42:21:268340,17,-10,-14,-5,-5,-6,-5,1
13:42:21:275883,17,-10,-14,-5,-5,-6,-5,1
13:42:21:283363,2,7,10,2,-7,0,6,1
13:42:21:290874,24,22,-2,-2,2,9,-2,-1
13:42:21:299101,24,22,-2,-2,2,9,-2,-1
13:42:21:299848,-16,-13,-3,5,2,-8,-11,-3
13:42:21:313385,-11,5,6,-3,-4,-4,-2,0
13:42:21:321590,-11,5,6,-3,-4,-4,-2,0
13:42:21:322354,-7,-31,-1,-2,-3,-3,6,4
13:42:21:328397,-9,-4,-7,-8,-3,-11,-9,-3
13:42:21:335973,-9,-4,-7,-8,-3,-11,-9,-3
13:42:21:343408,-33,0,11,6,9,5,-7,-5
13:42:21:350844,8,10,13,3,0,-7,-7,-6
13:42:21:359195,8,10,13,3,0,-7,-7,-6
13:42:21:359880,20,1,-12,-6,-1,-4,-1,0
13:42:21:373390,-8,14,-1,4,-2,-1,14,-4
13:42:21:381611,-8,14,-1,4,-2,-1,14,-4
13:42:21:382367,9,18,7,1,-4,1,-5,-2
13:42:21:388360,15,21,4,1,6,5,-4,1
13:42:21:396022,15,21,4,1,6,5,-4,1
13:42:21:403354,-10,3,1,-2,-1,-1,12,4
13:42:21:410925,-23,-39,-5,-2,-2,-2,-3,-8
13:42:21:418985,-23,-39,-5,-2,-2,-2,-3,-8
13:42:21:419867,36,20,4,-1,-3,-11,2,9
13:42:21:433362,-1,2,-6,2,0,9,-4,4
13:42:21:441620,-1,2,-6,2,0,9,-4,4
13:42:21:442373,20,-4,-8,0,-2,4,-5,-2
13:42:21:456238,-3,-10,3,3,1,1,-11,-3
13:42:21:464133,-3,-10,3,3,1,1,-11,-3
13:42:21:464872,12,-4,-7,-2,-2,-3,12,4
13:42:21:470857,0,5,-6,-5,-6,-1,0,1
13:42:21:478352,0,5,-6,-5,-6,-1,0,1
13:42:21:485841,21,9,-1,-4,0,2,2,-2
13:42:21:493386,-17,-24,-3,-3,3,1,13,-3
13:42:21:501619,-17,-24,-3,-3,3,1,13,-3
13:42:21:502350,-13,1,-1,-4,0,2,5,-3
13:42:21:516474,21,20,3,2,-3,0,-10,11
13:42:21:517333,21,20,3,2,-3,0,-10,11
13:42:21:523362,-26,-43,-12,0,9,5,-15,-4
13:42:21:530876,-14,-6,-8,0,1,-3,-3,-2
13:42:21:538362,-14,-6,-8,0,1,-3,-3,-2
13:42:21:545890,12,4,-2,-4,-8,-5,-2,1
13:42:21:553348,-3,0,-8,0,-2,-2,-15,-8
13:42:21:561627,-3,0,-8,0,-2,-2,-15,-8
13:42:21:562355,-36,11,-9,-1,-3,-12,-8,-7
13:42:21:576490,-35,31,3,-13,-7,-6,-2,-3
13:42:21:577432,-35,31,3,-13,-7,-6,-2,-3
13:42:21:583342,-56,3,3,-5,-5,3,-22,-9
13:42:21:590863,5,-2,4,-1,3,1,-2,-3
13:42:21:598354,5,-2,4,-1,3,1,-2,-3
13:42:21:605902,32,5,-1,-6,-7,-7,-3,3
13:42:21:613357,6,-15,-2,-1,-3,1,5,7
13:42:21:621613,6,-15,-2,-1,-3,1,5,7
13:42:21:622367,16,-20,-10,-1,-2,4,6,0
13:42:21:636491,12,-7,-7,-2,-3,-4,-20,1
13:42:21:637365,12,-7,-7,-2,-3,-4,-20,1
13:42:21:643425,-27,6,4,0,0,3,13,3
13:42:21:650841,11,19,11,9,6,0,3,6
13:42:21:658361,11,19,11,9,6,0,3,6
13:42:21:665882,9,-28,-11,-10,-3,-5,-9,5
13:42:21:673360,2,-29,-5,7,1,-4,-2,-3
13:42:21:681605,2,-29,-5,7,1,-4,-2,-3
13:42:21:682342,8,21,8,11,10,5,6,-9
13:42:21:696647,-24,-4,2,-5,-8,-2,6,-6
13:42:21:697341,-24,-4,2,-5,-8,-2,6,-6
13:42:21:703344,15,33,15,3,1,-2,16,4
13:42:21:710867,5,6,-3,-6,-5,-2,11,-6
13:42:21:718490,5,6,-3,-6,-5,-2,11,-6
13:42:21:725903,-5,-10,-5,-1,-3,-4,-1,2
13:42:21:733357,5,8,2,-2,-1,4,5,0
13:42:21:741552,5,8,2,-2,-1,4,5,0
13:42:21:742413,-44,-46,-10,0,-3,1,10,-4
13:42:21:756626,-4,-14,-1,-5,4,0,-13,-5
13:42:21:757364,-4,-14,-1,-5,4,0,-13,-5
13:42:21:763396,-25,17,-4,0,-4,-3,-5,-9
13:42:21:770856,4,-30,-6,-4,-4,0,6,0
13:42:21:778394,4,-30,-6,-4,-4,0,6,0
13:42:21:785844,1,46,9,9,5,2,-4,0
13:42:21:793340,7,-16,-5,-10,-5,-6,-8,0
13:42:21:801645,7,-16,-5,-10,-5,-6,-8,0
13:42:21:802374,21,-9,-6,-4,-4,-3,-17,-7
13:42:21:816482,13,17,0,0,0,4,-6,-4
13:42:21:817359,13,17,0,0,0,4,-6,-4
13:42:21:823339,12,7,2,0,3,1,-3,5
13:42:21:830881,-31,-1,-5,3,0,-4,-2,-7
13:42:21:838371,-31,-1,-5,3,0,-4,-2,-7
13:42:21:845867,11,-7,2,-3,-3,-5,-6,-1
13:42:21:853362,-1,7,3,-8,0,2,-8,-3
13:42:21:861639,-1,7,3,-8,0,2,-8,-3
13:42:21:862380,-20,-60,-17,-10,-6,-3,0,-7
13:42:21:876537,-2,40,4,12,8,-2,8,0
13:42:21:877384,-2,40,4,12,8,-2,8,0
13:42:21:883384,2,-6,-2,-13,-4,-7,1,2
13:42:21:890876,-6,1,-4,0,-3,-5,1,0
13:42:21:898365,-6,1,-4,0,-3,-5,1,0
13:42:21:905869,-2,13,12,0,1,2,3,-2
13:42:21:913385,-10,-1,0,2,4,-1,1,0
13:42:21:921612,-10,-1,0,2,4,-1,1,0
13:42:21:922368,-3,-8,-4,4,1,0,-9,-10
13:42:21:936599,15,-16,-6,-2,-4,-9,2,2
13:42:21:937340,15,-16,-6,-2,-4,-9,2,2
13:42:21:943400,-36,-14,-4,-3,-4,-3,-4,-11
13:42:21:950862,1,7,3,-1,-1,3,11,-4
13:42:21:958379,1,7,3,-1,-1,3,11,-4
13:42:21:965910,13,1,4,4,-2,-5,-10,3
13:42:21:973359,-36,-24,-3,-3,-3,-2,6,1
13:42:21:981355,-36,-24,-3,-3,-3,-2,6,1
13:42:21:988347,21,51,4,2,0,-5,-9,8
13:42:21:996516,-17,-16,-11,-3,-5,-3,-10,-6
13:42:21:997354,-17,-16,-11,-3,-5,-3,-10,-6
13:42:22:3363,6,-1,8,-9,-7,0,5,5
13:42:22:10899,22,26,9,6,2,4,2,4
13:42:22:26644,22,26,9,6,2,4,2,4
13:42:22:27369,33,5,-11,-13,-6,-4,0,5
13:42:22:33346,15,-18,-3,12,2,2,-13,-5
13:42:22:41494,15,-18,-3,12,2,2,-13,-5
13:42:22:42347,-1,-12,4,8,10,13,15,3
13:42:22:56610,-1,19,-1,-13,-6,-4,-11,-3
13:42:22:57347,-1,19,-1,-13,-6,-4,-11,-3
13:42:22:63356,-1,0,2,12,7,4,2,4
13:42:22:70863,14,-1,5,-2,-2,-9,-2,-1
13:42:22:78369,14,-1,5,-2,-2,-9,-2,-1
13:42:22:94032,-3,4,-5,-5,-4,-4,0,-7
13:42:22:94888,-7,13,-1,-1,-2,-1,17,4
13:42:22:101487,-7,13,-1,-1,-2,-1,17,4
13:42:22:102352,-34,8,-1,2,5,4,-1,-3
13:42:22:116616,0,3,-3,-13,-6,3,5,-4
13:42:22:117343,0,3,-3,-13,-6,3,5,-4
13:42:22:132244,-1,-2,-8,1,3,8,20,8
13:42:22:132963,21,-7,-2,3,5,0,0,4
13:42:22:138380,21,-7,-2,3,5,0,0,4
13:42:22:145847,8,2,1,0,-2,-3,-11,-9
13:42:22:153349,8,-6,0,1,-1,-6,6,4
13:42:22:161640,8,-6,0,1,-1,-6,6,4
13:42:22:162345,-2,-3,-3,5,-2,-8,-7,-6
13:42:22:176651,-10,5,4,10,7,5,4,-1
13:42:22:177388,-10,5,4,10,7,5,4,-1
13:42:22:183391,-26,-22,-4,-6,-6,-1,-2,2
13:42:22:190877,-7,-8,0,-4,-4,-4,-15,-4
13:42:22:198518,-7,-8,0,-4,-4,-4,-15,-4
13:42:22:205903,21,-17,-10,-2,-4,-1,-5,0
13:42:22:213367,-16,-8,-2,2,-2,1,0,-1
13:42:22:221510,-16,-8,-2,2,-2,1,0,-1
13:42:22:222379,-1,9,5,-3,-3,-13,-14,-5
13:42:22:244820,0,-4,-1,-3,-2,1,-4,-1
13:42:22:245495,0,-4,-1,-3,-2,1,-4,-1
13:42:22:246387,-21,-56,-11,-12,-6,-1,4,-1
13:42:22:250912,-25,-12,0,1,-1,3,-4,-10
13:42:22:258412,-25,-12,0,1,-1,3,-4,-10
13:42:22:265864,12,3,3,5,-4,-3,-1,-2
13:42:22:273384,22,-8,-4,4,3,4,3,11
13:42:22:281603,22,-8,-4,4,3,4,3,11
13:42:22:282346,-8,0,3,2,4,0,1,-1
13:42:22:296650,16,16,1,3,-2,-5,-8,2
13:42:22:297355,16,16,1,3,-2,-5,-8,2
13:42:22:303396,0,19,9,4,6,4,12,-1
13:42:22:310879,2,-12,0,-7,-3,-6,-8,-9
13:42:22:318364,2,-12,0,-7,-3,-6,-8,-9
13:42:22:325916,-10,8,-3,0,-3,-3,0,-1
13:42:22:333372,1,16,-2,-7,-1,5,2,-4
13:42:22:341544,1,16,-2,-7,-1,5,2,-4
13:42:22:342393,8,-7,-2,2,1,2,-3,-1
13:42:22:356490,-2,-4,-8,-11,-7,-11,-8,0
13:42:22:357385,-2,-4,-8,-11,-7,-11,-8,0
13:42:22:363377,-4,5,4,5,5,4,-1,0
13:42:22:370878,15,-3,4,1,-2,1,11,7
13:42:22:378369,15,-3,4,1,-2,1,11,7
13:42:22:385846,-1,-10,-3,-5,-3,-3,2,0
13:42:22:393379,10,1,0,18,8,4,3,0
13:42:22:400853,10,1,0,18,8,4,3,0
13:42:22:408362,-8,0,-5,-16,-1,1,-7,-9
13:42:22:416611,-3,-3,4,4,1,2,5,-4
13:42:22:417358,-3,-3,4,4,1,2,5,-4
13:42:22:423362,12,34,4,2,-6,-5,0,6
13:42:22:438968,-11,-11,-7,-7,-3,-4,-5,-4
13:42:22:439867,-11,-11,-7,-7,-3,-4,-5,-4
13:42:22:445875,11,2,-4,-3,0,-2,-7,2
13:42:22:453350,6,-5,4,3,5,3,12,0
13:42:22:460916,6,-5,4,3,5,3,12,0
13:42:22:468356,-29,12,-4,-1,1,-2,-2,-6
13:42:22:476680,2,-7,-4,-6,-5,-5,-4,-3
13:42:22:477421,2,-7,-4,-6,-5,-5,-4,-3
13:42:22:483371,5,-53,-12,2,5,6,2,2
13:42:22:499162,-2,-4,-4,-9,3,1,-5,-1
13:42:22:499875,-2,-4,-4,-9,3,1,-5,-1
13:42:22:505879,13,25,-2,-1,-1,-2,-5,-1
13:42:22:513411,-16,-12,-9,-7,-6,0,3,1
13:42:22:520869,-16,-12,-9,-7,-6,0,3,1
13:42:22:528402,-16,-17,6,2,-3,0,-2,-1
13:42:22:536496,-4,16,3,0,-2,-4,-14,-7
13:42:22:537350,-4,16,3,0,-2,-4,-14,-7
13:42:22:543436,7,16,3,-3,-5,-2,16,-1
13:42:22:559146,9,1,-3,-3,-4,-1,-5,-2
13:42:22:559887,9,1,-3,-3,-4,-1,-5,-2
13:42:22:565884,2,-2,0,-4,-5,-3,-6,-5
13:42:22:573369,-9,-5,-5,-2,-2,1,1,-1
13:42:22:580875,-9,-5,-5,-2,-2,1,1,-1
13:42:22:588398,-9,4,-1,8,4,1,0,1
13:42:22:596546,-1,6,2,7,-2,-6,-3,3
13:42:22:597352,-1,6,2,7,-2,-6,-3,3
13:42:22:603367,-12,-4,0,2,1,2,-3,-2
13:42:22:618976,-9,-38,-7,-1,-4,-3,0,-1
13:42:22:619849,-9,-38,-7,-1,-4,-3,0,-1
13:42:22:625891,32,-2,-3,0,-1,-5,-4,6
13:42:22:633360,-12,-14,-6,-4,-1,2,0,-4
13:42:22:640900,-12,-14,-6,-4,-1,2,0,-4
13:42:22:648375,-11,-6,-7,-2,0,1,5,-1
13:42:22:656498,-7,18,1,0,-1,2,0,-1
13:42:22:657364,-7,18,1,0,-1,2,0,-1
13:42:22:663352,-7,-27,2,5,-1,-8,-9,-6
13:42:22:678756,6,24,-1,-9,4,7,7,4
13:42:22:686628,6,24,-1,-9,4,7,7,4
13:42:22:687367,20,6,1,-2,-4,-1,-1,1
13:42:22:693393,-8,8,-4,-1,-4,-2,-4,3
13:42:22:700862,-8,8,-4,-1,-4,-2,-4,3
13:42:22:708407,14,-4,5,-6,-5,-2,1,2
13:42:22:716608,10,-18,-3,0,3,1,-2,0
13:42:22:717350,10,-18,-3,0,3,1,-2,0
13:42:22:723361,-7,13,-1,-3,1,2,3,0
13:42:22:739011,2,-11,-4,12,8,-3,-5,-1
13:42:22:739872,2,-11,-4,12,8,-3,-5,-1
13:42:22:745869,9,7,-3,-3,-4,-4,-8,-3
13:42:22:753368,2,11,10,2,0,-2,1,1
13:42:22:760960,2,11,10,2,0,-2,1,1
13:42:22:768419,3,-2,-1,-2,1,3,0,0
13:42:22:776634,-9,6,-3,-6,-8,-1,1,-2
13:42:22:777371,-9,6,-3,-6,-8,-1,1,-2
13:42:22:783375,-6,-6,-10,-5,1,3,1,-2
13:42:22:799121,-1,-3,4,3,-2,-2,-2,-1
13:42:22:799850,-1,-3,4,3,-2,-2,-2,-1
13:42:22:805865,-11,-12,-8,-7,-4,0,3,4
13:42:22:813412,10,5,4,-7,-3,-2,-5,-3
13:42:22:820873,10,5,4,-7,-3,-2,-5,-3
13:42:22:828406,-3,0,-3,-5,-4,-4,-10,-5
13:42:22:836485,12,14,0,4,4,2,4,2
13:42:22:837353,12,14,0,4,4,2,4,2
13:42:22:843444,-9,6,8,2,-2,-4,-3,-8
13:42:22:859152,-2,13,3,3,1,1,6,1
13:42:22:859877,-2,13,3,3,1,1,6,1
13:42:22:865871,8,7,0,9,6,3,3,4
13:42:22:873363,7,-31,-16,-7,0,-1,-3,-2
13:42:22:880866,7,-31,-16,-7,0,-1,-3,-2
13:42:22:888369,-14,3,1,-2,-5,-5,-9,1
13:42:22:896538,-8,-19,-4,-2,-4,2,4,0
13:42:22:897372,-8,-19,-4,-2,-4,2,4,0
13:42:22:903365,-4,-10,-8,-7,3,-1,0,-1
13:42:22:918998,-11,-16,2,-8,-5,-5,-5,0
13:42:22:919861,-11,-16,2,-8,-5,-5,-5,0
13:42:22:925873,-2,-30,-3,-7,-4,-1,2,-3
13:42:22:933354,-16,11,2,-7,-7,-8,-4,-3
13:42:22:940852,-16,11,2,-7,-7,-8,-4,-3
13:42:22:948367,6,34,9,-3,-2,2,-1,-3
13:42:22:964762,5,-5,-4,0,-2,-2,-6,-4
13:42:22:965500,5,-5,-4,0,-2,-2,-6,-4
13:42:22:966367,-4,-7,2,-2,-8,-5,-4,-2
13:42:22:978992,4,3,-2,4,10,2,-6,-8
13:42:22:979894,4,3,-2,4,10,2,-6,-8
13:42:22:985876,1,2,-1,6,1,1,5,-2
13:42:22:993376,-10,-4,1,-7,-8,-3,1,2
13:42:23:880,-10,-4,1,-7,-8,-3,1,2
13:42:23:8358,13,9,1,1,3,1,-3,2
13:42:23:16491,3,7,-4,3,2,3,0,0
13:42:23:17364,3,7,-4,3,2,3,0,0
13:42:23:23385,-4,-14,-7,-3,-1,-2,1,-1
13:42:23:38989,4,-27,1,-1,-5,-3,-8,0
13:42:23:39890,4,-27,1,-1,-5,-3,-8,0
13:42:23:45912,-4,-10,-6,4,3,-2,0,-1
13:42:23:53359,-15,7,-5,3,4,5,7,0
13:42:23:60914,-15,7,-5,3,4,5,7,0
13:42:23:68368,-7,-10,-3,5,3,0,-1,-4
13:42:23:76508,1,-3,1,-12,-3,-3,-5,1
13:42:23:77377,1,-3,1,-12,-3,-3,-5,1
13:42:23:83372,-7,10,6,-1,0,-2,0,1
13:42:23:99005,11,-26,-9,-1,-3,1,-2,-1
13:42:23:99853,11,-26,-9,-1,-3,1,-2,-1
13:42:23:105863,15,13,1,-5,-2,0,-3,2
13:42:23:113372,3,-3,0,-4,1,2,3,-3
13:42:23:120871,3,-3,0,-4,1,2,3,-3
13:42:23:128453,-4,8,-8,-6,-5,0,-5,1
13:42:23:136624,-13,-40,-3,-4,-4,-4,-5,-7
13:42:23:137360,-13,-40,-3,-4,-4,-4,-5,-7
13:42:23:143407,-13,-6,8,2,2,3,1,-3
13:42:23:159127,-15,-4,3,9,-3,-4,-6,-11
13:42:23:159861,-15,-4,3,9,-3,-4,-6,-11
13:42:23:165882,4,2,1,-5,-2,-3,0,2
13:42:23:173379,11,61,13,9,7,3,-1,-1
13:42:23:180894,11,61,13,9,7,3,-1,-1
13:42:23:188430,28,-2,3,-1,-4,-1,2,4
13:42:23:197012,6,11,-9,-1,1,-3,0,6
13:42:23:203993,6,11,-9,-1,1,-3,0,6
13:42:23:204883,-2,-29,-11,-4,-2,-3,-2,-4
13:42:23:219111,-2,-29,-11,-4,-2,-3,-2,-4
13:42:23:219858,7,18,2,3,-6,-5,0,2
13:42:23:225891,9,-2,4,13,8,7,7,2
13:42:23:241638,9,-2,4,13,8,7,7,2
13:42:23:242372,-3,27,8,4,-4,-2,-3,-5
13:42:23:248361,-15,17,5,-11,-10,-7,-4,-2
13:42:23:257010,-15,17,5,-11,-10,-7,-4,-2
13:42:23:264013,-29,-15,0,-13,-5,-3,-2,-3
13:42:23:264885,5,31,-9,0,2,1,5,4
13:42:23:279138,5,31,-9,0,2,1,5,4
13:42:23:279898,5,5,-7,-7,-2,-2,5,3
13:42:23:285876,4,16,12,11,6,6,0,-4
13:42:23:301662,4,16,12,11,6,6,0,-4
13:42:23:302394,4,-46,-13,11,2,-3,-9,-5
13:42:23:308383,-3,-29,-21,-9,5,4,3,-3
13:42:23:316645,-3,-29,-21,-9,5,4,3,-3
13:42:23:317376,17,24,5,-8,-3,1,3,2
13:42:23:323369,6,-19,0,-5,-6,-8,-7,0
13:42:23:339119,6,-19,0,-5,-6,-8,-7,0
13:42:23:339849,1,-19,0,0,-1,1,0,-3
13:42:23:345859,-18,-8,-6,0,-3,-3,-4,-7
13:42:23:361696,-18,-8,-6,0,-3,-3,-4,-7
13:42:23:362363,-18,10,2,4,-1,-3,0,1
13:42:23:368373,22,1,3,-13,-1,-1,0,-4
13:42:23:376626,22,1,3,-13,-1,-1,0,-4
13:42:23:377385,5,11,-15,-18,6,3,2,0
13:42:23:390917,-28,-5,7,15,5,1,-4,-7
13:42:23:399506,-28,-5,7,15,5,1,-4,-7
13:42:23:406522,-6,0,9,-5,-5,0,-4,-4
13:42:23:407370,0,1,15,8,-1,-2,-1,0
13:42:23:429815,0,1,15,8,-1,-2,-1,0
13:42:23:430484,-2,14,1,0,0,-1,1,1
13:42:23:431362,15,7,-1,1,-2,5,2,5
13:42:23:452264,15,7,-1,1,-2,5,2,5
13:42:23:452989,24,4,15,6,2,-1,6,8
13:42:23:453883,-21,39,15,10,0,-3,-2,-2
13:42:23:474823,-21,39,15,10,0,-3,-2,-2
13:42:23:475507,-5,9,1,-3,-5,-3,3,4
13:42:23:476413,4,-12,-14,-14,-1,-3,-7,0
13:42:23:498503,4,-12,-14,-14,-1,-3,-7,0
13:42:23:499372,4,10,3,-1,-14,-7,-5,-3
13:42:23:500251,-16,12,4,21,2,-1,0,6
13:42:23:500983,-16,12,4,21,2,-1,0,6
13:42:23:511544,-5,-27,3,-3,-1,0,0,4
13:42:23:512242,-33,-21,-4,-7,-3,1,-2,-12
13:42:23:519136,-33,-21,-4,-7,-3,1,-2,-12
13:42:23:519881,-42,3,-7,-8,-2,-4,-8,-15
13:42:23:525908,-1,-2,14,-8,4,2,2,1
13:42:23:542054,-1,-2,14,-8,4,2,2,1
13:42:23:542926,-5,-8,0,23,19,12,6,9
13:42:23:557275,9,0,-11,-9,-8,-4,-4,-1
13:42:23:558008,9,0,-11,-9,-8,-4,-4,-1
13:42:23:558882,39,-17,-18,-32,-6,-2,-4,-4
13:42:23:579784,7,19,8,-6,1,0,-3,0
13:42:23:580479,7,19,8,-6,1,0,-3,0
13:42:23:581358,-35,31,-6,-12,-1,-1,2,-11
13:42:23:585887,12,-7,-12,-52,-17,-5,5,2
13:42:23:601650,12,-7,-12,-52,-17,-5,5,2
13:42:23:602362,8,64,13,-4,-15,-4,-8,-2
13:42:23:608412,1,14,7,22,11,7,0,6
13:42:23:616624,1,14,7,22,11,7,0,6
13:42:23:617362,-4,-20,9,-11,-8,-9,-5,0
13:42:23:630874,-16,-10,9,9,-14,-4,2,-1
13:42:23:639127,-16,-10,9,9,-14,-4,2,-1
13:42:23:639870,-39,-10,-8,22,9,2,2,4
13:42:23:645875,-6,-4,-5,6,-9,-10,5,-7
13:42:23:661640,-6,-4,-5,6,-9,-10,5,-7
13:42:23:662368,-1,-24,-3,1,-2,-5,-4,0
13:42:23:668378,19,-7,-21,-6,-2,2,5,-3
13:42:23:676638,19,-7,-21,-6,-2,2,5,-3
13:42:23:677401,-54,-3,-10,-3,2,3,0,-3
13:42:23:690918,-30,34,1,-7,4,-5,-16,-18
13:42:23:699137,-30,34,1,-7,4,-5,-16,-18
13:42:23:699878,15,-3,13,6,-2,0,2,1
13:42:23:705862,7,-22,-2,-4,-6,-12,-11,0
13:42:23:721506,7,-22,-2,-4,-6,-12,-11,0
13:42:23:722395,22,-30,-16,6,-2,-3,3,-3
13:42:23:728391,-5,1,1,31,16,4,4,-3
13:42:23:736622,-5,1,1,31,16,4,4,-3
13:42:23:737349,-11,-23,-7,-14,-5,-6,-5,-1
13:42:23:750867,-20,-43,7,-5,-7,-5,-15,0
13:42:23:759186,-20,-43,7,-5,-7,-5,-15,0
13:42:23:759889,-17,-3,-9,10,0,7,-2,-12
13:42:23:765876,4,33,2,0,0,5,-1,12
13:42:23:781519,4,33,2,0,0,5,-1,12
13:42:23:782365,49,-15,1,-10,-18,-19,-10,2
13:42:23:788406,11,-49,-17,-7,4,4,-6,-2
13:42:23:796649,11,-49,-17,-7,4,4,-6,-2
13:42:23:797374,18,17,-2,9,-1,3,13,13
13:42:23:810973,-29,-10,-9,-11,-2,1,-1,-7
13:42:23:819000,-29,-10,-9,-11,-2,1,-1,-7
13:42:23:819871,-27,-32,3,6,6,0,13,4
13:42:23:825922,-7,-10,-5,-10,-15,-12,-7,-3
13:42:23:841525,-7,-10,-5,-10,-15,-12,-7,-3
13:42:23:842403,24,16,0,-1,3,2,-19,-10
13:42:23:848374,-13,-11,-9,1,0,2,19,-1
13:42:23:856498,-13,-11,-9,1,0,2,19,-1
13:42:23:857412,-12,-9,9,-4,-3,3,-1,-7
13:42:23:870904,19,-34,-22,-15,-4,-6,-10,3
13:42:23:879014,19,-34,-22,-15,-4,-6,-10,3
13:42:23:879885,-12,5,-3,7,11,3,4,1
13:42:23:885864,20,-6,-5,7,-4,-5,6,18
13:42:23:901662,20,-6,-5,7,-4,-5,6,18
13:42:23:902391,15,15,10,0,6,5,-7,0
13:42:23:908379,16,7,-10,-4,1,1,19,11
13:42:23:916515,16,7,-10,-4,1,1,19,11
13:42:23:917376,2,-26,-19,-3,-1,-1,13,5
13:42:23:930863,5,17,15,3,1,5,5,8
13:42:23:939014,5,17,15,3,1,5,5,8
13:42:23:939864,19,5,5,-14,-5,-4,-11,-1
13:42:23:945904,-6,16,-5,7,11,7,-20,-11
13:42:23:961674,-6,16,-5,7,11,7,-20,-11
13:42:23:962389,-2,35,10,-6,-3,1,3,0
13:42:23:968372,-24,-9,8,6,-9,-3,3,-6
13:42:23:976483,-24,-9,8,6,-9,-3,3,-6
13:42:23:977383,0,40,10,7,9,5,2,8
13:42:23:990899,0,15,3,1,-4,-4,13,-4
13:42:23:999117,0,15,3,1,-4,-4,13,-4
13:42:23:999866,-23,-16,-1,0,-5,4,14,-9
13:42:24:5868,-11,6,12,8,12,1,-17,-5
13:42:24:21624,-11,6,12,8,12,1,-17,-5
13:42:24:22359,29,12,-5,3,4,-2,4,-26
13:42:24:28429,12,-28,-2,-12,-10,0,-23,-1
13:42:24:36622,12,-28,-2,-12,-10,0,-23,-1
13:42:24:37382,-27,-20,3,1,2,2,-7,-4
13:42:24:50887,26,4,-13,-17,6,3,-1,-19
13:42:24:59121,26,4,-13,-17,6,3,-1,-19
13:42:24:59996,-10,1,-5,-6,-11,-9,-8,18
13:42:24:65867,-17,-21,-2,15,4,0,12,8
13:42:24:82005,-17,-21,-2,15,4,0,12,8
13:42:24:82898,14,-2,0,0,-7,-5,-2,-11
13:42:24:88392,12,23,2,5,0,1,9,-5
13:42:24:96673,12,23,2,5,0,1,9,-5
13:42:24:97371,17,3,-8,0,-3,-5,-28,-6
13:42:24:110881,2,-4,-4,-1,-4,-1,4,5
13:42:24:119126,2,-4,-4,-1,-4,-1,4,5
13:42:24:119872,11,19,1,-1,3,5,0,4
13:42:24:125892,-32,-45,-2,-5,-2,5,3,-5
13:42:24:141697,-32,-45,-2,-5,-2,5,3,-5
13:42:24:142367,-13,-4,4,5,1,-7,10,-5
13:42:24:148363,-21,26,-2,1,3,1,24,1
13:42:24:156651,-21,26,-2,1,3,1,24,1
13:42:24:157362,20,1,4,-3,5,3,-7,5
13:42:24:170889,22,21,4,5,1,7,-16,-1
13:42:24:179134,22,21,4,5,1,7,-16,-1
13:42:24:179896,-14,-45,-9,4,4,0,12,0
13:42:24:185884,-5,-25,-10,-1,-2,-5,-7,-15
13:42:24:201502,-5,-25,-10,-1,-2,-5,-7,-15
13:42:24:202362,13,-29,-1,-1,3,7,0,8
13:42:24:208384,-22,31,14,1,-5,-4,18,-2
13:42:24:216623,-22,31,14,1,-5,-4,18,-2
13:42:24:217368,-1,0,-12,-3,-7,-6,5,-3
13:42:24:230875,29,-21,-13,-5,-7,-5,-9,6
13:42:24:239031,29,-21,-13,-5,-7,-5,-9,6
13:42:24:239903,-26,-1,-8,-8,-7,-8,-7,0
13:42:24:245880,14,32,16,6,7,7,-9,-4
13:42:24:261524,14,32,16,6,7,7,-9,-4
13:42:24:262395,3,-8,-1,-3,-6,-9,-16,2
13:42:24:268379,6,-7,-11,-11,-9,-12,-8,-1
13:42:24:275927,6,-7,-11,-11,-9,-12,-8,-1
13:42:24:291532,-2,21,-6,-8,3,6,9,0
13:42:24:292281,10,22,17,1,0,1,-12,0
13:42:24:299007,10,22,17,1,0,1,-12,0
13:42:24:299875,-25,-22,1,-2,3,8,-5,2
13:42:24:313409,5,-10,-7,1,-2,1,-14,5
13:42:24:321503,5,-10,-7,1,-2,1,-14,5
13:42:24:322375,-12,-24,-9,-3,-1,-7,-6,-9
13:42:24:328380,8,-6,-22,-13,-5,-5,-6,-6
13:42:24:335877,8,-6,-22,-13,-5,-5,-6,-6
13:42:24:351514,19,6,18,14,10,8,10,2
13:42:24:352377,4,-28,-26,-11,-3,-6,14,-1
13:42:24:359073,4,-28,-26,-11,-3,-6,14,-1
13:42:24:359900,3,-10,-1,-8,-11,-10,-2,-4
13:42:24:373385,9,-20,-11,-11,0,2,-3,-1
13:42:24:381518,9,-20,-11,-11,0,2,-3,-1
13:42:24:382382,-1,-6,3,6,3,6,6,2
13:42:24:388406,-27,25,22,4,-2,-4,-4,2
13:42:24:395892,-27,25,22,4,-2,-4,-4,2
13:42:24:403387,-13,-56,-24,-49,-6,0,-1,-6
13:42:24:410904,-8,33,12,6,-9,-2,4,0
13:42:24:419001,-8,33,12,6,-9,-2,4,0
13:42:24:419868,16,39,17,12,0,-6,-1,4
13:42:24:433403,11,3,9,9,9,8,10,-3
13:42:24:441541,11,3,9,9,9,8,10,-3
13:42:24:442387,32,7,-15,9,-5,-7,3,-5
13:42:24:448390,29,58,11,13,0,-6,-5,4
13:42:24:455868,29,58,11,13,0,-6,-5,4
13:42:24:463423,10,34,12,8,11,4,-4,3
13:42:24:470879,-36,-61,-12,-12,-2,-1,-5,-12
13:42:24:479135,-36,-61,-12,-12,-2,-1,-5,-12
13:42:24:479890,-5,1,-2,-4,-7,-4,-7,-2
13:42:24:493463,-12,-22,-19,5,1,-8,5,12
13:42:24:501627,-12,-22,-19,5,1,-8,5,12
13:42:24:502368,-9,0,-2,23,11,13,21,4
13:42:24:508419,-14,-28,-6,-10,6,3,7,-4
13:42:24:515876,-14,-28,-6,-10,6,3,7,-4
13:42:24:523379,6,54,19,0,-22,-7,-6,-7
13:42:24:530866,19,-5,6,17,2,-4,1,7
13:42:24:539151,19,-5,6,17,2,-4,1,7
13:42:24:539889,3,-20,-15,-13,-3,0,-10,-5
13:42:24:553370,1,15,-19,-2,-5,0,9,-7
13:42:24:561703,1,15,-19,-2,-5,0,9,-7
13:42:24:562378,-23,20,-3,3,1,-1,-10,-4
13:42:24:568364,25,19,20,7,8,4,-13,4
13:42:24:575884,25,19,20,7,8,4,-13,4
13:42:24:583371,-4,-37,1,-1,8,0,1,-4
13:42:24:590875,-3,-10,3,-4,-12,-5,0,-9
13:42:24:614763,-3,-10,3,-4,-12,-5,0,-9
13:42:24:615509,23,55,-9,-12,-9,-6,-4,10
13:42:24:616378,-2,-9,1,-16,6,7,5,5
13:42:24:622263,-2,-9,1,-16,6,7,5,5
13:42:24:622996,-21,11,17,25,2,-7,-14,-8
13:42:24:636500,-25,-15,-4,-8,-11,-4,-13,-1
13:42:24:637385,-25,-15,-4,-8,-11,-4,-13,-1
13:42:24:643457,8,-46,-11,-9,1,2,-1,2
13:42:24:659767,-6,25,4,8,-2,-9,-4,15
13:42:24:660526,-6,25,4,8,-2,-9,-4,15
13:42:24:661381,-13,10,4,19,18,16,16,3
13:42:24:682256,-2,-6,2,-13,-4,1,-1,-1
13:42:24:683016,-2,-6,2,-13,-4,1,-1,-1
13:42:24:683872,-24,6,-8,-3,-5,-7,-5,-8
13:42:24:688359,-1,-5,-2,23,7,-3,-10,-7
13:42:24:703998,-1,-5,-2,23,7,-3,-10,-7
13:42:24:704869,22,-32,-24,-4,-1,1,10,0
13:42:24:710913,19,11,-4,-9,-9,-11,-2,4
13:42:24:726536,19,11,-4,-9,-9,-11,-2,4
13:42:24:727397,12,40,14,-1,9,5,4,7
13:42:24:733378,13,-21,-2,-5,-2,1,9,5
13:42:24:749779,13,-21,-2,-5,-2,1,9,5
13:42:24:750523,-23,6,15,-14,-7,-9,-27,-3
13:42:24:751408,-12,-30,-11,-13,1,7,-10,-12
13:42:24:755888,-12,-30,-11,-13,1,7,-10,-12
13:42:24:771532,40,-49,-11,1,-8,-19,7,3
13:42:24:772383,-24,13,1,1,6,12,-2,-9
13:42:24:779020,-24,13,1,1,6,12,-2,-9
13:42:24:779912,9,1,5,-6,-4,1,-9,-12
13:42:24:793426,-4,-13,-15,12,-9,-18,-5,-13
13:42:24:801513,-4,-13,-15,12,-9,-18,-5,-13
13:42:24:802391,-25,10,18,-1,-5,1,-1,-1
13:42:24:808410,0,-16,-16,-12,-8,-5,12,17
13:42:24:815903,0,-16,-16,-12,-8,-5,12,17
13:42:24:823405,13,28,-5,7,5,4,-4,2
13:42:24:839640,-8,-20,-1,0,7,5,-8,-5
13:42:24:840535,-8,-20,-1,0,7,5,-8,-5
13:42:24:841294,-17,10,-11,-11,-10,-10,17,-5
13:42:24:853417,13,38,11,9,5,0,-7,-1
13:42:24:861645,13,38,11,9,5,0,-7,-1
13:42:24:862378,18,3,8,18,4,12,3,4
13:42:24:868380,-15,13,6,12,6,-5,-8,-1
13:42:24:875881,-15,13,6,12,6,-5,-8,-1
13:42:24:883374,-14,3,9,-2,4,1,-3,5
13:42:24:890906,-25,-17,0,-12,-11,-5,7,-2
13:42:24:898887,-25,-17,0,-12,-11,-5,7,-2
13:42:24:905881,4,-10,-7,-8,-1,3,-24,-7
13:42:24:913431,19,-17,3,-10,-2,2,22,-15
13:42:24:921522,19,-17,3,-10,-2,2,22,-15
13:42:24:922368,-2,-71,-25,-11,-7,-4,2,-1
13:42:24:928428,3,33,-9,-3,-3,-4,-20,-5
13:42:24:935873,3,33,-9,-3,-3,-4,-20,-5
13:42:24:943420,-21,24,8,-6,-1,-4,-2,5
13:42:24:950915,32,41,19,3,10,7,7,6
13:42:24:959137,32,41,19,3,10,7,7,6
13:42:24:959867,-5,-22,-13,-5,0,2,3,-2
13:42:24:973389,-26,-3,12,5,0,-10,-13,-8
13:42:24:981639,-26,-3,12,5,0,-10,-13,-8
13:42:24:982375,-4,37,4,-3,2,2,0,-6
13:42:24:988386,1,2,3,1,-4,-3,5,4
13:42:24:995909,1,2,3,1,-4,-3,5,4
13:42:25:3392,15,14,25,-2,-5,2,11,4
13:42:25:10905,-14,-14,-4,-6,2,1,1,6
13:42:25:19129,-14,-14,-4,-6,2,1,1,6
13:42:25:19886,-10,19,11,10,1,3,19,16
13:42:25:33398,12,-4,2,-12,-6,-5,-13,4
13:42:25:41658,12,-4,2,-12,-6,-5,-13,4
13:42:25:42392,8,28,-16,-6,5,2,-1,-3
13:42:25:48386,-6,-5,-35,-15,5,3,3,-5
13:42:25:55879,-6,-5,-35,-15,5,3,3,-5
13:42:25:63384,-20,-44,0,-13,-9,-8,-9,-10
13:42:25:70927,7,-52,0,-7,-4,1,10,-4
13:42:25:79006,7,-52,0,-7,-4,1,10,-4
13:42:25:79903,18,-22,-29,1,-1,-11,11,9
13:42:25:93447,-10,24,25,5,-1,6,-5,-4
13:42:25:101524,-10,24,25,5,-1,6,-5,-4
13:42:25:102382,-11,-27,-10,-1,-9,-11,-12,-4
13:42:25:108390,0,2,0,12,6,7,14,9
13:42:25:115908,0,2,0,12,6,7,14,9
13:42:25:131527,-20,12,13,10,5,-3,2,6
13:42:25:132418,-12,0,-5,8,0,1,22,-1
13:42:25:139763,-12,0,-5,8,0,1,22,-1
13:42:25:140514,22,13,-40,-5,-5,2,6,2
13:42:25:162280,32,-7,1,12,0,4,-8,-15
13:42:25:163046,32,-7,1,12,0,4,-8,-15
13:42:25:163885,-28,-38,-6,-3,-9,0,-17,-9
13:42:25:168389,-11,33,-1,-8,-2,0,-29,6
13:42:25:184010,-11,33,-1,-8,-2,0,-29,6
13:42:25:184869,14,-47,15,1,-1,-8,-42,12
13:42:25:207293,9,7,16,-12,-10,-4,15,16
13:42:25:208041,9,7,16,-12,-10,-4,15,16
13:42:25:208769,20,38,11,10,19,14,-8,8
13:42:25:213419,-20,13,-2,-9,-8,-12,-5,-7
13:42:25:221516,-20,13,-2,-9,-8,-12,-5,-7
13:42:25:222404,-33,20,7,-7,-17,-2,21,-21
13:42:25:236511,-2,-8,-2,3,8,-1,-14,-7
13:42:25:237432,-2,-8,-2,3,8,-1,-14,-7
13:42:25:243404,-32,-39,3,-4,12,-3,-3,-19
13:42:25:250893,-5,-10,-11,-3,-19,-13,-4,0
13:42:25:258403,-5,-10,-11,-3,-19,-13,-4,0
13:42:25:265896,-7,35,36,11,3,0,-22,-5
13:42:25:273389,-15,-13,-15,-28,-6,-1,-6,1
13:42:25:282030,-15,-13,-15,-28,-6,-1,-6,1
13:42:25:288390,1,14,-1,4,0,10,8,-7
13:42:25:296542,-7,45,14,7,10,9,-2,-7
13:42:25:297460,-7,45,14,7,10,9,-2,-7
13:42:25:303409,31,-9,-18,-7,-8,-8,-10,12
13:42:25:310899,10,-16,-16,43,11,1,9,19
13:42:25:318395,10,-16,-16,43,11,1,9,19
13:42:25:325895,4,-55,-17,-11,-2,5,11,0
13:42:25:333420,-20,5,8,5,-13,-21,-22,-14
13:42:25:341666,-20,5,8,5,-13,-21,-22,-14
13:42:25:342444,-10,45,-9,16,9,5,6,-13
13:42:25:356521,-1,12,4,4,2,15,17,17
13:42:25:357401,-1,12,4,4,2,15,17,17
13:42:25:363391,-18,-70,-14,-17,-12,-11,-8,1
13:42:25:370892,21,0,19,-11,-8,-8,-1,2
13:42:25:378435,21,0,19,-11,-8,-8,-1,2
13:42:25:385894,5,14,-3,-16,-9,-2,9,-3
13:42:25:393423,26,-13,0,2,9,-3,-2,-12
13:42:25:401528,26,-13,0,2,9,-3,-2,-12
13:42:25:402372,16,84,10,0,-10,-6,6,10
13:42:25:424798,6,1,-12,11,12,14,21,14
13:42:25:425525,6,1,-12,11,12,14,21,14
13:42:25:426394,15,11,3,6,9,3,-4,-8
13:42:25:430891,8,-10,-13,-23,-10,-9,2,-8
13:42:25:446575,8,-10,-13,-23,-10,-9,2,-8
13:42:25:447377,-2,-77,-9,-12,-4,-4,-6,-7
13:42:25:453387,-27,-13,-23,-13,-8,-2,-8,-9
13:42:25:469046,-27,-13,-23,-13,-8,-2,-8,-9
13:42:25:469876,12,-8,-18,4,-4,-6,-4,2
13:42:25:476518,3,38,13,9,2,2,-6,-6
13:42:25:477408,3,38,13,9,2,2,-6,-6
13:42:25:491551,-1,51,-9,-7,-6,-4,4,6
13:42:25:492272,21,-15,1,-21,-19,1,-3,1
13:42:25:498386,21,-15,1,-21,-19,1,-3,1
13:42:25:514045,2,3,-9,11,27,2,-22,-1
13:42:25:514900,-4,-27,-13,-23,-12,-7,-4,-9
13:42:25:521561,-4,-27,-13,-23,-12,-7,-4,-9
13:42:25:522402,-25,8,12,26,13,15,16,1
13:42:25:536501,-18,14,-6,-15,19,7,-2,-8
13:42:25:537404,-18,14,-6,-15,19,7,-2,-8
13:42:25:543440,15,33,22,17,-11,-7,2,6
13:42:25:550895,5,20,4,4,0,-1,-9,27
13:42:25:558413,5,20,4,4,0,-1,-9,27
13:42:25:565895,22,-17,1,-2,-3,-6,-4,-2
13:42:25:573392,32,12,6,17,2,0,-8,10
13:42:25:581516,32,12,6,17,2,0,-8,10
13:42:25:582372,-38,-65,-8,18,14,5,1,-4
13:42:25:596571,14,-28,17,8,-1,-4,5,-2
13:42:25:597386,14,-28,17,8,-1,-4,5,-2
13:42:25:603399,-24,19,-7,-39,-11,-7,1,-16
13:42:25:610774,-19,38,-5,-7,5,5,-7,-9
13:42:25:618431,-19,38,-5,-7,5,5,-7,-9
13:42:25:625907,37,17,0,-8,-14,-1,9,13
13:42:25:633384,-13,33,0,-1,-10,-5,-5,-14
13:42:25:641539,-13,33,0,-1,-10,-5,-5,-14
13:42:25:642457,-14,-43,0,-5,-6,-2,0,-5
13:42:25:656517,-49,2,4,-1,-7,-4,11,4
13:42:25:657407,-49,2,4,-1,-7,-4,11,4
13:42:25:663393,-13,-13,-7,4,0,-3,5,-4
13:42:25:670923,26,15,5,-1,-15,-2,12,6
13:42:25:678441,26,15,5,-1,-15,-2,12,6
13:42:25:685898,18,32,5,3,3,2,7,6
13:42:25:702261,10,-61,6,-16,1,-1,-21,-19
13:42:25:703009,10,-61,6,-16,1,-1,-21,-19
13:42:25:703878,-20,23,13,-16,-15,-17,-15,-3
13:42:25:724665,18,-42,-11,14,-3,2,-7,17
13:42:25:725559,18,-42,-11,14,-3,2,-7,17
13:42:25:726427,6,67,-16,17,29,21,38,23
13:42:25:730898,-1,79,1,-39,7,-2,-5,0
13:42:25:746555,-1,79,1,-39,7,-2,-5,0
13:42:25:747413,-3,13,38,-18,-10,-1,-4,2
13:42:25:762299,-63,-82,-21,20,6,-3,-4,-14
13:42:25:763039,-63,-82,-21,20,6,-3,-4,-14
13:42:25:763887,-26,-20,-15,5,-1,6,11,-5
13:42:25:776570,31,49,19,15,9,14,17,5
13:42:25:777377,31,49,19,15,9,14,17,5
13:42:25:791570,12,-42,-7,-3,-4,-1,-13,-14
13:42:25:792291,-11,-6,-14,4,-1,-2,9,13
13:42:25:798402,-11,-6,-14,4,-1,-2,9,13
13:42:25:805919,8,-38,-6,-10,-13,-17,-48,0
13:42:25:813426,-6,-22,-1,21,8,-1,-19,-11
13:42:25:821628,-6,-22,-1,21,8,-1,-19,-11
13:42:25:822383,20,64,-50,-8,6,12,5,-11
13:42:25:836512,13,-37,-16,12,-7,-5,-6,-3
13:42:25:837380,13,-37,-16,12,-7,-5,-6,-3
13:42:25:843403,-24,-32,31,8,-4,-10,-15,2
13:42:25:850905,8,14,0,-5,-1,8,37,-14
13:42:25:858455,8,14,0,-5,-1,8,37,-14
13:42:25:865892,-22,5,5,3,2,-9,-6,-4
13:42:25:873400,-13,-2,9,-12,-10,-19,-24,-13
13:42:25:881517,-13,-2,9,-12,-10,-19,-24,-13
13:42:25:882380,-7,42,10,-12,7,19,10,-2
13:42:25:896563,-8,25,15,3,12,3,-5,-1
13:42:25:897394,-8,25,15,3,12,3,-5,-1
13:42:25:903377,-27,-12,-4,-8,-7,6,-2,-3
13:42:25:910930,23,0,-2,-28,-8,-5,-4,7
13:42:25:918375,23,0,-2,-28,-8,-5,-4,7
13:42:25:925901,12,-72,17,18,-12,-9,8,4
13:42:25:933404,-21,34,11,-6,0,14,-5,0
13:42:25:941526,-21,34,11,-6,0,14,-5,0
13:42:25:942402,-6,68,8,2,-5,-9,14,4
13:42:25:956534,0,-17,-27,-6,7,-2,-2,2
13:42:25:957407,0,-17,-27,-6,7,-2,-2,2
13:42:25:963422,19,-31,9,8,11,4,4,7
13:42:25:970892,-8,-20,-9,1,4,-2,-14,-14
13:42:25:978436,-8,-20,-9,1,4,-2,-14,-14
13:42:25:985904,-11,-25,-17,-12,-5,3,3,-6
13:42:26:2267,15,7,6,13,-1,-11,1,-6
13:42:26:3021,15,7,6,13,-1,-11,1,-6
13:42:26:3747,26,97,-3,33,17,21,24,-1
13:42:26:24653,-26,-27,-11,10,-9,-14,-9,-12
13:42:26:25533,-26,-27,-11,10,-9,-14,-9,-12
13:42:26:26406,40,-1,-9,-25,-13,-14,-18,13
13:42:26:30890,13,-35,-2,11,10,6,-4,12
13:42:26:38398,13,-35,-2,11,10,6,-4,12
13:42:26:45911,-7,-39,-12,-10,-8,-2,-14,-18
13:42:26:53405,-4,24,1,-6,-4,7,-5,-1
13:42:26:62349,-4,24,1,-6,-4,7,-5,-1
13:42:26:63104,-12,-36,-20,-2,8,0,30,2
13:42:26:76552,-23,83,17,32,-5,-2,6,-2
13:42:26:77394,-23,83,17,32,-5,-2,6,-2
13:42:26:83400,10,-25,12,-6,2,-8,-10,-16
13:42:26:90949,27,10,15,1,5,6,11,15
13:42:26:98391,27,10,15,1,5,6,11,15
13:42:26:105904,-14,7,10,7,-6,-12,-8,3
13:42:26:113406,18,-44,-2,7,3,7,9,0
13:42:26:121541,18,-44,-2,7,3,7,9,0
13:42:26:122428,1,67,-4,-9,3,0,-1,-1
13:42:26:136530,-10,-6,-13,-19,-12,-8,10,-3
13:42:26:137388,-10,-6,-13,-19,-12,-8,10,-3
13:42:26:143416,27,4,-4,-14,-4,6,-11,4
13:42:26:150904,-37,-25,-20,-12,0,-7,-5,-31
13:42:26:158440,-37,-25,-20,-12,0,-7,-5,-31
13:42:26:165883,-10,-8,10,2,-8,-4,-9,-4
13:42:26:173395,3,-31,-6,-15,-3,0,23,17
13:42:26:180905,3,-31,-6,-15,-3,0,23,17
13:42:26:188417,3,-4,-20,-7,-5,-4,-8,-3
13:42:26:196561,1,-10,-4,3,-7,-3,-4,12
13:42:26:197384,1,-10,-4,3,-7,-3,-4,12
13:42:26:203395,-2,-22,2,4,6,4,25,11
13:42:26:219046,-12,-14,-3,-1,-1,-1,-6,3
13:42:26:219902,-12,-14,-3,-1,-1,-1,-6,3
13:42:26:225926,31,3,8,-4,-7,-8,-5,4
13:42:26:233407,0,-31,-1,-6,11,5,-1,3
13:42:26:240946,0,-31,-1,-6,11,5,-1,3
13:42:26:265397,-2,-49,-13,2,-7,1,-12,-2
13:42:26:266135,-19,17,3,-15,-7,-5,-10,-7
13:42:26:267006,-19,17,3,-15,-7,-5,-10,-7
13:42:26:267755,-17,18,18,4,5,-2,9,-5
13:42:26:279042,28,-25,2,-6,-5,-1,0,8
13:42:26:279929,28,-25,2,-6,-5,-1,0,8
13:42:26:285922,-14,-23,-8,-1,-7,-6,-11,-8
13:42:26:293400,-2,33,-6,19,4,3,8,6
13:42:26:300909,-2,33,-6,19,4,3,8,6
13:42:26:308428,-32,-27,-15,-1,0,-1,-9,-3
13:42:26:316543,30,-9,16,-3,-2,0,8,3
13:42:26:317425,30,-9,16,-3,-2,0,8,3
13:42:26:323284,-3,35,7,4,0,-2,0,-12
13:42:26:339039,-14,-20,-14,8,0,-2,-4,1
13:42:26:339894,-14,-20,-14,8,0,-2,-4,1
13:42:26:345921,-38,-47,-1,-8,2,-3,23,-5
13:42:26:353392,-18,20,18,-6,0,-3,-13,-25
13:42:26:360967,-18,20,18,-6,0,-3,-13,-25
13:42:26:368384,27,25,16,16,0,6,-13,12
13:42:26:376588,-9,-19,9,3,8,8,1,-12
13:42:26:377406,-9,-19,9,3,8,8,1,-12
13:42:26:390803,-19,9,-8,-9,-1,1,-3,-7
13:42:26:399025,32,-12,1,-4,-8,-12,-7,12
13:42:26:399884,32,-12,1,-4,-8,-12,-7,12
13:42:26:405778,20,19,-3,3,1,-5,15,26
13:42:26:413402,-33,11,-3,-5,-2,-5,-8,0
13:42:26:420894,-33,11,-3,-5,-2,-5,-8,0
13:42:26:428483,-9,-45,-13,-3,-1,3,-5,-2
13:42:26:436518,34,60,16,-2,1,3,5,2
13:42:26:437408,34,60,16,-2,1,3,5,2
13:42:26:443453,8,2,17,-3,-4,2,-7,-16
13:42:26:459600,25,26,1,4,-1,3,-2,2
13:42:26:460424,25,26,1,4,-1,3,-2,2
13:42:26:465911,9,28,6,-4,-7,-4,-6,10
13:42:26:481539,7,41,-10,-1,2,2,-3,-4
13:42:26:482404,7,41,-10,-1,2,2,-3,-4
13:42:26:488402,-7,1,-18,-4,-1,-3,7,-29
13:42:26:496557,-46,-37,-12,-2,-8,-2,0,-4
13:42:26:497398,-46,-37,-12,-2,-8,-2,0,-4
13:42:26:503420,1,55,27,3,6,0,-33,-11
13:42:26:519041,-12,-23,-16,0,1,1,-5,-9
13:42:26:519909,-12,-23,-16,0,1,1,-5,-9
13:42:26:525892,6,5,-10,-4,-8,-1,-2,9
13:42:26:533385,-3,26,19,4,0,-7,-15,8
13:42:26:540913,-3,26,19,4,0,-7,-15,8
13:42:26:548447,-6,-51,-9,12,7,-11,-10,-27
13:42:26:556558,7,-35,-18,-5,-10,-14,-14,-1
13:42:26:557435,7,-35,-18,-5,-10,-14,-14,-1
13:42:26:563404,24,5,-3,-10,5,9,18,29
