Time,EMG1,EMG2,EMG3,EMG4,EMG5,EMG6,EMG7,EMG8
14:51:59:630212,0,-5,-1,-1,-2,-1,-1,-1
14:51:59:631031,0,-2,0,-3,1,-2,1,-1
14:51:59:637748,0,-2,0,-3,1,-2,1,-1
14:51:59:638597,0,-4,-1,0,-2,0,-1,-1
14:51:59:652019,-1,-1,0,0,0,-1,-1,-1
14:51:59:660269,-1,-1,0,0,0,-1,-1,-1
14:51:59:661060,-1,3,-2,-1,0,-1,-1,-1
14:51:59:667035,-1,-1,-2,0,-3,0,1,1
14:51:59:674651,-1,-1,-2,0,-3,0,1,1
14:51:59:682058,0,-2,-1,0,-2,-1,-1,-2
14:51:59:689551,-1,-1,-2,0,0,-1,-1,-1
14:51:59:697739,-1,-1,-2,0,0,-1,-1,-1
14:51:59:698550,-3,-1,-1,-2,0,-1,-2,-1
14:51:59:712078,-1,-1,-2,-1,1,-1,-1,-1
14:51:59:728416,-1,-1,-2,-1,1,-1,-1,-1
14:51:59:729222,0,-1,1,-2,-1,-1,-2,0
14:51:59:730053,-1,-2,-3,-4,-2,-1,0,0
14:51:59:734627,-1,-2,-3,-4,-2,-1,0,0
14:51:59:742041,-1,-3,-1,-3,-2,0,-1,-2
14:51:59:749548,-2,10,-4,-3,1,-2,-1,-3
14:51:59:757792,-2,10,-4,-3,1,-2,-1,-3
14:51:59:758595,-2,1,-1,0,-1,-1,-2,0
14:51:59:772071,0,-2,0,-1,-2,-1,-1,-1
14:51:59:780274,0,-2,0,-1,-2,-1,-1,-1
14:51:59:781066,-4,-5,1,0,1,0,0,-1
14:51:59:787035,1,-1,0,-2,-2,0,-1,-2
14:51:59:794635,1,-1,0,-2,-2,0,-1,-2
14:51:59:802069,-1,0,-2,-1,0,1,0,-1
14:51:59:809552,-1,-3,0,0,-1,0,-2,-1
14:51:59:817742,-1,-3,0,0,-1,0,-2,-1
14:51:59:818529,1,0,-3,-1,-1,-1,-1,-1
14:51:59:832044,-1,-1,0,0,-3,-2,0,0
14:51:59:840218,-1,-1,0,0,-3,-2,0,0
14:51:59:841011,-1,-1,-1,-1,0,-2,-2,-1
14:51:59:847057,-2,-2,1,-1,-2,-1,-1,0
14:51:59:854588,-2,-2,1,-1,-2,-1,-1,0
14:51:59:862100,-2,-2,-2,-1,0,0,-1,-2
14:51:59:869570,0,-3,-1,-1,-1,0,-1,-2
14:51:59:877763,0,-3,-1,-1,-1,0,-1,-2
14:51:59:878539,0,0,-1,1,-1,-3,0,-1
14:51:59:892067,-1,-3,1,1,-1,0,-1,-2
14:51:59:900243,-1,-3,1,1,-1,0,-1,-2
14:51:59:901042,-1,-2,-1,0,-1,-1,-1,-3
14:51:59:907078,-1,-2,-1,-2,0,-1,-2,1
14:51:59:914591,-1,-2,-1,-2,0,-1,-2,1
14:51:59:922062,-3,2,-1,-1,-1,-3,-1,-2
14:51:59:929516,-1,-1,0,-1,-1,0,0,-1
14:51:59:937771,-1,-1,0,-1,-1,0,0,-1
14:51:59:938577,1,-1,1,-3,-1,-2,-1,0
14:51:59:952099,-1,-2,-2,0,1,-2,-2,-1
14:51:59:960247,-1,-2,-2,0,1,-2,-2,-1
14:51:59:961039,-1,-2,-2,1,-1,1,-1,-1
14:51:59:967032,-2,0,0,-1,-2,-2,0,-2
14:51:59:974594,-2,0,0,-1,-2,-2,0,-2
14:51:59:982028,-2,0,-2,-2,-1,-1,-1,-1
14:51:59:989508,-1,0,-1,-2,-2,-1,0,0
14:51:59:997760,-1,0,-1,-2,-2,-1,0,0
14:51:59:998559,-1,-3,1,1,-2,-1,0,-1
14:52:00:12066,-2,0,-1,0,0,0,-2,-2
14:52:00:20263,-2,0,-1,0,0,0,-2,-2
14:52:00:21082,1,0,-2,-2,-1,0,-2,-1
14:52:00:27022,0,-1,-1,-4,-1,-2,-2,-1
14:52:00:34642,0,-1,-1,-4,-1,-2,-2,-1
14:52:00:42049,-1,1,-3,-2,0,-2,-1,-2
14:52:00:49571,0,-1,-1,-1,-2,-2,-1,0
14:52:00:57783,0,-1,-1,-1,-2,-2,-1,0
14:52:00:58571,-1,-2,-2,-2,0,-2,-1,0
14:52:00:72033,-1,-2,-1,0,0,-1,-1,-1
14:52:00:80285,-1,-2,-1,0,0,-1,-1,-1
14:52:00:81064,-2,-2,-1,-1,-2,0,-1,0
14:52:00:95295,-1,-2,-2,0,0,-1,-1,0
14:52:00:96071,-1,-2,-2,0,0,-1,-1,0
14:52:00:102059,-2,-1,-3,0,0,-1,-2,-1
14:52:00:109541,-2,1,0,1,-4,-2,-2,-1
14:52:00:117087,-2,1,0,1,-4,-2,-2,-1
14:52:00:124598,-1,0,-1,-1,-1,-2,0,-2
14:52:00:132039,-2,0,0,-1,-2,-2,0,0
14:52:00:140215,-2,0,0,-1,-2,-2,0,0
14:52:00:141015,-1,-5,2,1,0,0,-1,-1
14:52:00:155252,-2,-1,-1,-1,-1,-1,-1,-2
14:52:00:156074,-2,-1,-1,-1,-1,-1,-1,-2
14:52:00:162064,-1,-1,-1,-2,-1,-1,-2,-1
14:52:00:169570,0,0,0,-2,-1,-2,-3,-1
14:52:00:177048,0,0,0,-2,-1,-2,-3,-1
14:52:00:184568,-1,0,-1,-1,-1,-1,-1,0
14:52:00:192078,-2,-1,-1,0,1,0,-1,1
14:52:00:200243,-2,-1,-1,0,1,0,-1,1
14:52:00:201058,-1,-1,-2,-4,-1,-1,-3,-2
14:52:00:215200,-1,-2,-3,0,-1,1,-2,-3
14:52:00:216016,-1,-2,-3,0,-1,1,-2,-3
14:52:00:222072,0,-3,1,-1,-2,-2,-2,-1
14:52:00:229550,0,0,0,1,0,0,-1,1
14:52:00:237082,0,0,0,1,0,0,-1,1
14:52:00:244528,0,0,-1,-1,-2,-2,-1,-1
14:52:00:252082,0,-4,0,0,-2,-2,1,-2
14:52:00:260290,0,-4,0,0,-2,-2,1,-2
14:52:00:261071,0,1,-1,-1,-1,1,0,-1
14:52:00:275234,-1,-1,-2,-1,0,1,0,0
14:52:00:276048,-1,-1,-2,-1,0,1,0,0
14:52:00:282028,0,-1,-1,0,-2,-1,1,0
14:52:00:289502,-2,0,-1,-2,0,-1,-1,0
14:52:00:297086,-2,0,-1,-2,0,-1,-1,0
14:52:00:304550,0,-1,-1,-1,0,0,-2,1
14:52:00:312008,-1,-2,0,-1,1,-1,-1,-1
14:52:00:320238,-1,-2,0,-1,1,-1,-1,-1
14:52:00:321078,-1,0,0,-2,-2,-2,-1,-2
14:52:00:335225,0,-2,-3,-1,-3,-1,-2,-2
14:52:00:336027,0,-2,-3,-1,-3,-1,-2,-2
14:52:00:342050,-1,-2,-3,-2,-2,-2,-2,-1
14:52:00:349513,-2,-2,-1,-3,0,0,-2,-3
14:52:00:357088,-2,-2,-1,-3,0,0,-2,-3
14:52:00:364524,-2,-1,-1,-1,0,-2,1,-1
14:52:00:372044,0,0,0,-2,-1,0,-1,-1
14:52:00:380276,0,0,0,-2,-1,0,-1,-1
14:52:00:381129,2,0,-1,1,-1,-1,1,-1
14:52:00:395254,-2,-1,0,-1,0,-1,0,-1
14:52:00:396062,-2,-1,0,-1,0,-1,0,-1
14:52:00:402066,-9,-2,-1,-1,-1,0,-3,-11
14:52:00:409527,-1,1,-1,-1,-1,0,1,-1
14:52:00:417109,-1,1,-1,-1,-1,0,1,-1
14:52:00:424574,2,-1,-2,-1,-2,-2,-2,6
14:52:00:432082,0,-1,-3,-1,-1,-2,-2,-2
14:52:00:440230,0,-1,-3,-1,-1,-2,-2,-2
14:52:00:441036,-1,-1,-1,1,0,-1,-1,-2
14:52:00:455246,2,-1,-1,0,-1,-2,-2,0
14:52:00:456067,2,-1,-1,0,-1,-2,-2,0
14:52:00:462062,-1,0,-1,-1,-1,-1,-1,-1
14:52:00:469549,-2,-5,0,-1,1,-2,-1,-2
14:52:00:477062,-2,-5,0,-1,1,-2,-1,-2
14:52:00:484548,0,-2,-2,-1,0,-1,0,1
14:52:00:492045,-1,2,-1,-3,0,-1,-1,0
14:52:00:500252,-1,2,-1,-3,0,-1,-1,0
14:52:00:501056,0,-1,-1,-2,-1,-1,-1,1
14:52:00:515233,-2,-1,-2,-2,-2,-1,-1,-1
14:52:00:516021,-2,-1,-2,-2,-2,-1,-1,-1
14:52:00:522074,-1,0,-1,0,-1,1,-1,0
14:52:00:529563,-2,-1,-2,1,-1,0,-1,0
14:52:00:537085,-2,-1,-2,1,-1,0,-1,0
14:52:00:544514,-2,-1,-1,-2,-1,-1,0,-1
14:52:00:552013,-1,-2,0,-2,-2,-2,0,1
14:52:00:560265,-1,-2,0,-2,-2,-2,0,1
14:52:00:561070,-2,-1,-2,0,0,-1,-1,-2
14:52:00:575232,0,0,0,0,-1,-1,-3,-1
14:52:00:576062,0,0,0,0,-1,-1,-3,-1
14:52:00:582045,1,0,1,-1,0,-1,0,-1
14:52:00:589496,-2,-1,-1,-1,0,-1,-1,-2
14:52:00:597094,-2,-1,-1,-1,0,-1,-1,-2
14:52:00:604554,-1,-3,-2,0,-1,-1,-1,-4
14:52:00:612037,-1,-1,-3,0,-1,-1,0,0
14:52:00:620253,-1,-1,-3,0,-1,-1,0,0
14:52:00:621056,-1,-1,-1,-2,-2,0,-2,0
14:52:00:635240,-1,0,1,-2,-3,-2,0,-3
14:52:00:636071,-1,0,1,-2,-3,-2,0,-3
14:52:00:642040,2,4,-1,-3,-3,-2,-1,-1
14:52:00:649533,0,-1,-2,-1,-2,-2,-1,-2
14:52:00:657121,0,-1,-2,-1,-2,-2,-1,-2
14:52:00:664530,-1,-2,-2,-2,0,0,0,0
14:52:00:672016,-1,-1,-1,-1,1,1,0,-3
14:52:00:680306,-1,-1,-1,-1,1,1,0,-3
14:52:00:681081,-2,-2,-1,-1,-1,-1,-2,-2
14:52:00:695295,-3,-2,-2,0,-2,1,-1,-2
14:52:00:696078,-3,-2,-2,0,-2,1,-1,-2
14:52:00:702071,-3,-2,0,1,-1,-1,1,0
14:52:00:709543,0,1,-1,-1,-1,-1,-1,0
14:52:00:717135,0,1,-1,-1,-1,-1,-1,0
14:52:00:724592,-1,-2,-1,-4,-1,-1,0,0
14:52:00:740956,-2,-2,-1,-1,-2,-2,0,-2
14:52:00:741755,-2,-2,-1,-1,-2,-2,0,-2
14:52:00:742556,1,-2,0,-1,-2,-1,-1,-1
14:52:00:755258,0,1,-1,-2,-1,0,-2,-1
14:52:00:756055,0,1,-1,-2,-1,0,-2,-1
14:52:00:762037,-1,-2,-3,1,-1,0,-1,0
14:52:00:769534,-1,-1,-1,-3,-1,-1,1,-2
14:52:00:785237,-1,-1,-1,-3,-1,-1,1,-2
14:52:00:786065,-1,-1,-2,-1,1,-2,0,-1
14:52:00:792000,-2,-1,0,-1,0,-2,-1,0
14:52:00:800254,-2,-1,0,-1,0,-2,-1,0
14:52:00:801055,1,3,-1,-2,-2,-1,-4,-1
14:52:00:814540,1,0,0,-1,-1,-3,-3,0
14:52:00:822760,1,0,0,-1,-1,-3,-3,0
14:52:00:823541,-2,-1,-2,-2,0,-1,-1,-2
14:52:00:829563,0,-3,-2,-1,0,0,-2,1
14:52:00:837156,0,-3,-2,-1,0,0,-2,1
14:52:00:844525,-1,-3,0,-2,-1,-1,0,-2
14:52:00:852017,-2,-2,-1,0,0,0,0,0
14:52:00:860260,-2,-2,-1,0,0,0,0,0
14:52:00:861086,-1,-2,-1,1,-1,0,0,0
14:52:00:874518,0,-2,0,0,-3,-2,0,0
14:52:00:882758,0,-2,0,0,-3,-2,0,0
14:52:00:883537,-1,-1,1,0,-1,-1,-1,-2
14:52:00:889534,-1,-1,-1,-1,-1,0,0,-1
14:52:00:897110,-1,-1,-1,-1,-1,0,0,-1
14:52:00:904573,1,2,-3,0,-2,-1,-2,0
14:52:00:912066,-1,-1,0,0,0,0,-1,-2
14:52:00:920210,-1,-1,0,0,0,0,-1,-2
14:52:00:921048,-1,-1,-3,-1,-2,-1,-1,-1
14:52:00:934535,-1,0,-2,-3,-2,-1,-1,0
14:52:00:942781,-1,0,-2,-3,-2,-1,-1,0
14:52:00:943620,-3,-2,-1,-1,-1,1,-2,-2
14:52:00:949560,-2,0,0,-1,1,-1,-2,-1
14:52:00:957069,-2,0,0,-1,1,-1,-2,-1
14:52:00:964565,0,-3,-1,-1,-1,0,-2,0
14:52:00:972091,1,0,-1,0,-1,-1,-1,-2
14:52:00:980264,1,0,-1,0,-1,-1,-1,-2
14:52:00:981030,-1,-2,-1,-1,0,-1,0,-1
14:52:00:994560,-1,-1,0,0,0,-1,0,-1
14:52:01:2696,-1,-1,0,0,0,-1,0,-1
14:52:01:3521,-1,-2,0,0,-1,0,-1,-2
14:52:01:9566,-2,-1,-1,-1,0,-1,1,-2
14:52:01:17115,-2,-1,-1,-1,0,-1,1,-2
14:52:01:24558,-1,-2,0,1,0,-2,0,1
14:52:01:32065,-1,-2,-2,-2,-4,0,-2,0
14:52:01:39631,-1,-2,-2,-2,-4,0,-2,0
14:52:01:47003,-3,-1,0,-2,1,-1,-2,-1
14:52:01:54517,-2,-2,-1,-1,-2,-1,-1,-1
14:52:01:62742,-2,-2,-1,-1,-2,-1,-1,-1
14:52:01:63532,-1,-1,-1,0,-1,0,-2,-1
14:52:01:77762,0,-2,-1,-2,-1,-2,-1,0
14:52:01:78580,0,-2,-1,-2,-1,-2,-1,0
14:52:01:84530,-1,-2,-1,-1,-2,0,-1,0
14:52:01:92001,0,0,0,0,-1,-1,-1,-3
14:52:01:99613,0,0,0,0,-1,-1,-1,-3
14:52:01:115926,-3,-2,-1,-1,-2,-1,-2,-1
14:52:01:116755,-1,0,-1,-2,0,-1,0,-1
14:52:01:117536,-1,0,-1,-2,0,-1,0,-1
14:52:01:122043,0,0,-2,-1,-2,-2,0,-2
14:52:01:137739,0,0,-2,-1,-1,0,-2,0
14:52:01:138559,0,0,-2,-1,-1,0,-2,0
14:52:01:144491,0,0,-1,-1,-2,-2,-1,-1
14:52:01:152026,-1,1,-1,-2,0,-1,-1,-2
14:52:01:159612,-1,1,-1,-2,0,-1,-1,-2
14:52:01:167095,0,-1,-3,-2,-2,-2,-1,-2
14:52:01:175242,-3,-1,-2,0,-1,0,0,0
14:52:01:176110,-3,-1,-2,0,-1,0,0,0
14:52:01:182046,-1,0,0,-2,1,-1,-1,1
14:52:01:198209,1,-2,0,-3,-1,-1,0,1
14:52:01:199033,1,-2,0,-3,-1,-1,0,1
14:52:01:204555,-1,0,-2,-1,-3,-2,-2,-1
14:52:01:212039,-3,-2,-1,-1,0,-1,-1,0
14:52:01:219607,-3,-2,-1,-1,0,-1,-1,0
14:52:01:227031,-1,0,0,-1,0,0,-2,-1
14:52:01:235260,-2,0,-2,0,-2,-2,-2,-2
14:52:01:236088,-2,0,-2,0,-2,-2,-2,-2
14:52:01:242050,-2,-1,-3,-1,0,0,1,0
14:52:01:257751,0,0,1,0,-1,-2,-1,-1
14:52:01:258555,0,0,1,0,-1,-2,-1,-1
14:52:01:264549,0,-1,-1,-2,-2,-1,-1,0
14:52:01:272059,-1,-2,-1,-1,0,-1,0,-1
14:52:01:279641,-1,-2,-1,-1,0,-1,0,-1
14:52:01:287077,-1,-1,1,-1,0,-2,-2,-3
14:52:01:295230,-2,0,-3,-1,-3,-1,-1,0
14:52:01:296042,-2,0,-3,-1,-3,-1,-1,0
14:52:01:302068,-1,-1,-2,0,-1,0,-1,0
14:52:01:317771,0,-3,1,0,-2,-1,-2,-2
14:52:01:318598,0,-3,1,0,-2,-1,-2,-2
14:52:01:324562,0,-1,0,0,-2,-2,0,0
14:52:01:332070,0,-1,-1,-3,-1,-2,1,-1
14:52:01:339621,0,-1,-1,-3,-1,-2,1,-1
14:52:01:347061,0,-1,1,5,7,2,2,0
14:52:01:354581,-2,0,-1,-5,-6,-2,-2,-1
14:52:01:362763,-2,0,-1,-5,-6,-2,-2,-1
14:52:01:363522,-1,0,-1,8,1,-2,0,-1
14:52:01:377706,1,1,0,-1,1,1,-2,1
14:52:01:378532,1,1,0,-1,1,1,-2,1
14:52:01:384571,-1,-2,-2,-4,-3,-2,-2,-1
14:52:01:392092,-2,-3,-1,-3,-1,-2,-3,-2
14:52:01:399620,-2,-3,-1,-3,-1,-2,-3,-2
14:52:01:407038,-3,-1,0,0,0,-1,-1,-1
14:52:01:414526,0,0,-1,0,-7,-6,-5,0
14:52:01:422762,0,0,-1,0,-7,-6,-5,0
14:52:01:423572,-1,-2,-1,0,3,0,1,-1
14:52:01:437746,0,-1,-3,-14,-1,2,0,0
14:52:01:438559,0,-1,-3,-14,-1,2,0,0
14:52:01:444506,-3,-3,-6,-20,-10,-6,-5,-1
14:52:01:452037,-1,-2,1,9,-4,1,1,-1
14:52:01:459616,-1,-2,1,9,-4,1,1,-1
14:52:01:467024,-1,-3,-1,6,-7,1,-2,0
14:52:01:474544,-2,-2,-4,-2,14,-4,-5,-1
14:52:01:482775,-2,-2,-4,-2,14,-4,-5,-1
14:52:01:483537,1,3,4,14,7,-2,3,1
14:52:01:497738,-2,-4,-4,-20,-20,0,0,-1
14:52:01:498542,-2,-4,-4,-20,-20,0,0,-1
14:52:01:504547,-1,-1,-2,2,-2,-9,-7,-3
14:52:01:512046,0,1,1,5,2,-2,-2,0
14:52:01:519609,0,1,1,5,2,-2,-2,0
14:52:01:527067,-1,4,2,-6,-4,6,-1,-3
14:52:01:534566,-4,1,11,6,8,6,1,-3
14:52:01:542780,-4,1,11,6,8,6,1,-3
14:52:01:543597,2,6,8,12,-1,0,2,1
14:52:01:557732,3,-16,-20,-9,15,0,3,2
14:52:01:558596,3,-16,-20,-9,15,0,3,2
14:52:01:564545,-3,6,23,22,12,5,1,-4
14:52:01:572057,-1,-16,1,24,21,4,2,1
14:52:01:579625,-1,-16,1,24,21,4,2,1
14:52:01:587070,-2,4,-4,-6,-22,-18,-10,-3
14:52:01:594526,0,8,13,-1,5,10,5,-1
14:52:01:602716,0,8,13,-1,5,10,5,-1
14:52:01:603506,-1,-4,5,17,11,0,0,2
14:52:01:617765,0,0,-33,-18,-15,-8,-4,0
14:52:01:618574,0,0,-33,-18,-15,-8,-4,0
14:52:01:624568,0,5,-3,-25,-9,2,1,-1
14:52:01:632069,0,0,24,-14,-18,-5,-3,-4
14:52:01:639582,0,0,24,-14,-18,-5,-3,-4
14:52:01:647080,1,15,2,-2,5,0,-3,0
14:52:01:654552,-1,2,20,25,-8,-4,2,-1
14:52:01:662758,-1,2,20,25,-8,-4,2,-1
14:52:01:663528,1,-7,35,-5,-3,2,1,0
14:52:01:677714,-3,-4,-9,-9,-6,-3,-5,-2
14:52:01:678542,-3,-4,-9,-9,-6,-3,-5,-2
14:52:01:684556,1,-2,17,35,4,8,3,-2
14:52:01:692077,0,2,20,44,-2,-2,2,8
14:52:01:699625,0,2,20,44,-2,-2,2,8
14:52:01:707027,0,-3,-5,-14,-1,-3,-1,-2
14:52:01:714554,-61,-30,-31,-53,-18,-8,-2,14
14:52:01:722749,-61,-30,-31,-53,-18,-8,-2,14
14:52:01:723581,-3,-6,39,40,6,2,3,-12
14:52:01:737700,7,11,-9,0,8,3,-1,0
14:52:01:738588,7,11,-9,0,8,3,-1,0
14:52:01:744515,-2,-3,-47,-25,-8,-2,1,-1
14:52:01:752042,0,8,-10,-10,1,-2,-4,-5
14:52:01:759597,0,8,-10,-10,1,-2,-4,-5
14:52:01:767044,19,-5,-2,15,-1,-3,-4,-3
14:52:01:774531,-11,14,-26,-14,-1,-3,-4,-9
14:52:01:782796,-11,14,-26,-14,-1,-3,-4,-9
14:52:01:783576,14,-15,-61,-78,-12,-3,-2,11
14:52:01:797745,40,3,35,12,4,0,-3,-1
14:52:01:798549,40,3,35,12,4,0,-3,-1
14:52:01:804543,-5,-16,-11,-7,-2,-3,-3,1
14:52:01:812049,15,6,6,21,7,6,9,0
14:52:01:819614,15,6,6,21,7,6,9,0
14:52:01:827026,-21,-4,-23,-14,-3,-1,-2,-1
14:52:01:834564,-1,0,12,35,-1,-3,-4,-7
14:52:01:842766,-1,0,12,35,-1,-3,-4,-7
14:52:01:843596,-1,-1,-1,-10,3,5,4,-1
14:52:01:857764,0,-41,-19,-18,0,-1,-2,-7
14:52:01:858563,0,-41,-19,-18,0,-1,-2,-7
14:52:01:864551,1,-3,2,12,-3,-4,-3,4
14:52:01:872026,8,13,6,-6,-5,-4,-4,-1
14:52:01:879618,8,13,6,-6,-5,-4,-4,-1
14:52:01:887083,-9,-3,-6,-4,4,4,2,2
14:52:01:894532,-7,11,21,5,0,0,-1,-3
14:52:01:902727,-7,11,21,5,0,0,-1,-3
14:52:01:903509,-5,4,-11,-16,-2,0,-2,-3
14:52:01:917714,7,10,-10,-8,2,2,-1,1
14:52:01:918544,7,10,-10,-8,2,2,-1,1
14:52:01:924577,5,8,40,17,-2,-4,-4,-4
14:52:01:932061,-2,1,4,-9,-2,0,-1,-1
14:52:01:939591,-2,1,4,-9,-2,0,-1,-1
14:52:01:947086,-4,7,-16,-11,-1,0,0,-2
14:52:01:954558,-2,5,4,2,-5,-1,-3,-1
14:52:01:962086,-2,5,4,2,-5,-1,-3,-1
14:52:01:969525,3,2,1,9,3,0,0,0
14:52:01:985935,-5,-5,4,2,5,1,1,-2
14:52:01:986694,-5,-5,4,2,5,1,1,-2
14:52:01:987499,-1,24,7,7,-1,0,-1,2
14:52:02:221,-1,11,-9,-11,-5,-4,-3,-2
14:52:02:1039,-1,11,-9,-11,-5,-4,-3,-2
14:52:02:7063,-3,-9,-10,-6,2,1,0,0
14:52:02:14547,1,-11,-5,7,-4,-2,0,5
14:52:02:22108,1,-11,-5,7,-4,-2,0,5
14:52:02:38397,-3,-10,-2,8,0,-1,0,-1
14:52:02:39166,-6,13,7,-3,-6,-5,-3,-3
14:52:02:40018,-6,13,7,-3,-6,-5,-3,-3
14:52:02:44575,-4,-5,-6,-4,0,1,0,-2
14:52:02:60242,12,7,8,8,28,18,15,5
14:52:02:61080,12,7,8,8,28,18,15,5
14:52:02:67028,5,0,1,0,0,0,0,1
14:52:02:74538,-7,-28,-18,-3,-13,-7,-7,-2
14:52:02:82136,-7,-28,-18,-3,-13,-7,-7,-2
14:52:02:89593,-5,-13,0,-4,-3,-2,-1,0
14:52:02:97736,-3,-5,-9,-1,-5,-4,-3,-3
14:52:02:98532,-3,-5,-9,-1,-5,-4,-3,-3
14:52:02:104527,-2,-2,-1,-2,-2,-4,-4,2
14:52:02:120222,-2,-6,-3,-2,-1,0,-1,0
14:52:02:121049,-2,-6,-3,-2,-1,0,-1,0
14:52:02:127108,-3,-11,-13,-6,-5,-4,-2,-4
14:52:02:134608,-12,-11,-1,4,1,-1,0,0
14:52:02:142078,-12,-11,-1,4,1,-1,0,0
14:52:02:149542,-1,-4,-14,-14,-1,0,-1,-1
14:52:02:157715,7,-2,-15,-4,-4,-2,-1,-3
14:52:02:158543,7,-2,-15,-4,-4,-2,-1,-3
14:52:02:164508,4,11,12,-3,2,-1,1,-2
14:52:02:180213,1,7,0,-9,-8,-6,-5,2
14:52:02:181042,1,7,0,-9,-8,-6,-5,2
14:52:02:187007,-1,11,9,3,5,5,4,-1
14:52:02:194584,0,11,9,1,-3,-1,-3,-3
14:52:02:202094,0,11,9,1,-3,-1,-3,-3
14:52:02:209522,-4,-9,-1,-2,-6,0,0,-2
14:52:02:217776,-6,-7,-3,0,-2,0,-1,-4
14:52:02:218569,-6,-7,-3,0,-2,0,-1,-4
14:52:02:224558,-12,2,-2,1,-5,-7,-3,-1
14:52:02:240244,7,10,6,-3,-2,-3,-2,3
14:52:02:241065,7,10,6,-3,-2,-3,-2,3
14:52:02:247025,-1,-4,2,6,-2,-1,-1,0
14:52:02:254553,2,-8,-5,-1,4,-1,1,-1
14:52:02:262089,2,-8,-5,-1,4,-1,1,-1
14:52:02:269537,4,-5,-5,1,-4,-2,-2,-4
14:52:02:277727,0,-6,-4,-1,0,1,0,-1
14:52:02:278573,0,-6,-4,-1,0,1,0,-1
14:52:02:284549,0,-5,-2,-2,-3,-4,-3,5
14:52:02:300243,-7,-2,-4,-4,2,2,1,-1
14:52:02:301061,-7,-2,-4,-4,2,2,1,-1
14:52:02:307070,2,2,1,2,-2,-3,-2,4
14:52:02:314530,0,-2,-1,2,0,1,-3,-2
14:52:02:322118,0,-2,-1,2,0,1,-3,-2
14:52:02:329541,1,-3,-2,2,-1,-1,0,-3
14:52:02:337740,-4,-1,-4,-2,1,0,2,-1
14:52:02:338527,-4,-1,-4,-2,1,0,2,-1
14:52:02:344581,-5,0,-2,-2,0,0,-2,-1
14:52:02:360284,5,-2,-4,-3,-3,-1,0,6
14:52:02:361118,5,-2,-4,-3,-3,-1,0,6
14:52:02:367044,-1,0,1,3,1,1,2,-3
14:52:02:374573,-3,0,1,-1,-3,0,-3,-5
14:52:02:382112,-3,0,1,-1,-3,0,-3,-5
14:52:02:389593,0,-2,0,-1,-1,-1,-3,0
14:52:02:405966,-3,-2,-3,-2,-2,-3,-1,-6
14:52:02:406760,-3,-2,-3,-2,-2,-3,-1,-6
14:52:02:407532,1,3,0,0,3,2,5,-2
14:52:02:420242,9,1,1,-1,-2,-4,-3,-2
14:52:02:421078,9,1,1,-1,-2,-4,-3,-2
14:52:02:427088,5,-1,-5,-3,-4,-3,-4,0
14:52:02:434544,1,0,-1,1,5,1,0,1
14:52:02:442157,1,0,-1,1,5,1,0,1
14:52:02:449586,5,2,0,1,0,0,-8,-3
14:52:02:457710,6,4,-1,-1,-3,-2,-2,1
14:52:02:458535,6,4,-1,-1,-3,-2,-2,1
14:52:02:464586,-5,-7,0,2,6,3,-1,-1
14:52:02:480254,-9,1,-1,0,-1,-4,-11,-4
14:52:02:481126,-9,1,-1,0,-1,-4,-11,-4
14:52:02:487052,-1,0,-3,-1,-2,-2,-4,-4
14:52:02:494559,-5,-8,-2,0,-1,0,3,4
14:52:02:502101,-5,-8,-2,0,-1,0,3,4
14:52:02:509608,-8,3,1,-2,-2,-3,-6,-4
14:52:02:517726,2,-4,0,-1,0,-1,-5,-7
14:52:02:518533,2,-4,0,-1,0,-1,-5,-7
14:52:02:524520,-1,1,-1,-1,2,1,8,9
14:52:02:540255,0,3,1,0,-2,-1,-8,-16
14:52:02:541043,0,3,1,0,-2,-1,-8,-16
14:52:02:547099,-2,-4,0,-1,-3,-5,-5,4
14:52:02:554570,-8,-6,-1,-2,0,1,12,6
14:52:02:562071,-8,-6,-1,-2,0,1,12,6
14:52:02:569530,3,-2,-3,-2,-3,1,0,-15
14:52:02:577750,3,-2,-3,-2,-3,1,0,-15
14:52:02:578557,0,1,-1,-1,-2,0,1,5
14:52:02:584550,2,-6,-2,-1,1,-1,-2,2
14:52:02:600279,2,-6,-2,-1,1,-1,-2,2
14:52:02:601052,-3,0,-1,0,0,2,2,-6
14:52:02:607051,-2,2,0,-5,-8,-5,-5,-1
14:52:02:622722,-2,2,0,-5,-8,-5,-5,-1
14:52:02:623519,-12,-3,0,-1,-4,-5,-6,3
14:52:02:629569,8,2,3,1,4,6,3,4
14:52:02:637758,8,2,3,1,4,6,3,4
14:52:02:638549,8,2,-2,0,-1,1,9,17
14:52:02:644536,-1,0,1,0,-1,1,6,10
14:52:02:660236,-1,0,1,0,-1,1,6,10
14:52:02:661061,-3,0,1,-1,-1,1,-4,-4
14:52:02:667088,-4,1,-1,1,0,1,2,-1
14:52:02:682753,-4,1,-1,1,0,1,2,-1
14:52:02:683513,-10,-3,-2,-2,1,0,0,-2
14:52:02:689576,-3,-3,-2,-5,-6,-6,-7,-6
14:52:02:697763,-3,-3,-2,-5,-6,-6,-7,-6
14:52:02:698548,-3,2,-2,-1,5,-1,-8,-7
14:52:02:704518,-2,-2,-3,-3,-4,-1,6,1
14:52:02:720261,-2,-2,-3,-3,-4,-1,6,1
14:52:02:721054,2,-1,0,-1,-2,-4,1,-4
14:52:02:727118,-5,-2,-1,-2,-2,-2,-12,-4
14:52:02:742781,-5,-2,-1,-2,-2,-2,-12,-4
14:52:02:743576,9,0,0,0,0,-1,-6,11
14:52:02:749536,-6,-5,1,1,0,-3,-1,-2
14:52:02:757745,-6,-5,1,1,0,-3,-1,-2
14:52:02:758561,5,-2,-3,-1,-2,-1,0,2
14:52:02:764599,2,0,-2,-2,-2,-2,-6,-8
14:52:02:780286,2,0,-2,-2,-2,-2,-6,-8
14:52:02:781111,-2,-1,-3,-2,-4,-2,-9,-9
14:52:02:787081,-16,-2,-1,0,1,-1,-3,-5
14:52:02:802791,-16,-2,-1,0,1,-1,-3,-5
14:52:02:803596,-7,0,-1,-1,-2,-2,-5,-14
14:52:02:809577,2,-1,-2,-2,0,1,3,3
14:52:02:817756,2,-1,-2,-2,0,1,3,3
14:52:02:818534,-1,0,-1,-3,-1,-3,1,2
14:52:02:824553,-6,-2,-3,-2,-3,2,-1,2
14:52:02:840284,-6,-2,-3,-2,-3,2,-1,2
14:52:02:841076,3,-1,-1,1,2,3,0,-20
14:52:02:847077,2,-1,0,-3,-5,-1,2,-2
14:52:02:862836,2,-1,0,-3,-5,-1,2,-2
14:52:02:863598,-2,0,-2,-1,0,0,0,6
14:52:02:869547,-4,-7,-3,1,3,3,-6,-7
14:52:02:877813,-4,-7,-3,1,3,3,-6,-7
14:52:02:878577,-7,-4,0,0,-1,-5,-5,3
14:52:02:884565,0,2,0,1,1,1,3,-5
14:52:02:900294,0,2,0,1,1,1,3,-5
14:52:02:901064,-14,-4,-3,0,-7,-4,0,-1
14:52:02:907078,2,-6,-3,-1,-2,-5,10,0
14:52:02:922761,2,-6,-3,-1,-2,-5,10,0
14:52:02:923590,3,1,0,-2,-3,0,14,4
14:52:02:929522,-3,1,-2,-2,1,2,1,2
14:52:02:937781,-3,1,-2,-2,1,2,1,2
14:52:02:938568,2,-1,0,-3,-4,-1,6,4
14:52:02:952018,3,4,1,0,5,2,-1,-10
14:52:02:960263,3,4,1,0,5,2,-1,-10
14:52:02:961070,-3,-1,-1,-1,-1,-3,-10,-9
14:52:02:967013,4,0,0,0,2,-2,5,3
14:52:02:982759,4,0,0,0,2,-2,5,3
14:52:02:983540,8,0,0,0,0,-5,-13,1
14:52:02:989528,-8,-2,-1,1,0,5,-2,1
14:52:02:997737,-8,-2,-1,1,0,5,-2,1
14:52:02:998644,0,-2,-3,-2,1,3,10,1
14:52:03:12040,-3,-2,-2,-3,-5,-6,-8,-4
14:52:03:20303,-3,-2,-2,-3,-5,-6,-8,-4
14:52:03:21085,1,1,-1,0,2,-1,-7,6
14:52:03:27056,2,1,1,-1,-1,-1,3,6
14:52:03:42756,2,1,1,-1,-1,-1,3,6
14:52:03:43538,-4,-2,-2,-1,-3,-1,1,-15
14:52:03:49522,0,-4,-2,0,0,0,-4,0
14:52:03:57756,0,-4,-2,0,0,0,-4,0
14:52:03:58564,-13,-2,1,-3,-3,-2,1,1
14:52:03:72512,12,2,0,-3,-3,-1,9,-6
14:52:03:80277,12,2,0,-3,-3,-1,9,-6
14:52:03:81051,1,-1,-2,0,3,-1,-3,-5
14:52:03:87043,-1,-2,-2,-1,-5,-7,-8,0
14:52:03:102746,-1,-2,-2,-1,-5,-7,-8,0
14:52:03:103540,1,-3,-1,0,0,4,8,4
14:52:03:109602,-2,1,1,0,2,-3,-8,-3
14:52:03:125300,-2,1,1,0,2,-3,-8,-3
14:52:03:126065,-4,1,1,-1,2,1,-4,-1
14:52:03:132068,-9,-1,-3,-2,0,-2,-8,-10
14:52:03:140265,-9,-1,-3,-2,0,-2,-8,-10
14:52:03:141041,9,1,0,0,0,-2,2,1
14:52:03:147090,-13,-3,-2,-2,-2,2,2,1
14:52:03:170957,-13,-3,-2,-2,-2,2,2,1
14:52:03:171730,6,1,-1,0,-1,-1,0,5
14:52:03:172524,0,-2,-1,-1,-1,-1,2,-2
14:52:03:177789,0,-2,-1,-1,-1,-1,2,-2
14:52:03:178599,-2,-2,0,-2,-1,-2,1,-3
14:52:03:192009,5,0,-1,-1,-3,-1,-2,3
14:52:03:200317,5,0,-1,-1,-3,-1,-2,3
14:52:03:201056,1,-1,-1,0,-5,-1,-3,1
14:52:03:214521,-1,0,0,0,3,2,4,-1
14:52:03:222751,-1,0,0,0,3,2,4,-1
14:52:03:223532,-5,-1,-1,-2,-1,2,0,-5
14:52:03:229540,1,-1,-1,-5,-6,-5,-7,-1
14:52:03:237782,1,-1,-1,-5,-6,-5,-7,-1
14:52:03:238579,1,-3,-1,-1,-1,2,9,3
14:52:03:252038,1,-1,1,0,3,0,8,1
14:52:03:260273,1,-1,1,0,3,0,8,1
14:52:03:261044,-2,-1,0,-1,-3,-5,-6,-3
14:52:03:267045,2,-1,-3,-1,-2,-4,-4,1
14:52:03:282801,2,-1,-3,-1,-2,-4,-4,1
14:52:03:283584,-5,-1,-2,1,4,3,1,9
14:52:03:298367,-6,-2,-1,-1,-4,-4,-11,-28
14:52:03:299234,-6,-2,-1,-1,-4,-4,-11,-28
14:52:03:300037,5,1,-2,-2,-2,-3,-7,-2
14:52:03:312090,-1,-1,-2,-1,2,1,-9,9
14:52:03:320242,-1,-1,-2,-1,2,1,-9,9
14:52:03:321034,-5,-1,1,0,1,-2,-10,-6
14:52:03:327064,-3,-2,0,0,-1,0,-2,2
14:52:03:342830,-3,-2,0,0,-1,0,-2,2
14:52:03:343586,0,-1,-1,-2,-2,1,4,5
14:52:03:349577,-1,0,-1,0,1,0,1,-1
14:52:03:357751,-1,0,-1,0,1,0,1,-1
14:52:03:358551,-1,-3,-1,0,-1,1,9,0
14:52:03:372096,-2,-1,-1,-2,0,0,3,2
14:52:03:380311,-2,-1,-1,-2,0,0,3,2
14:52:03:381089,-1,1,0,-2,-2,1,-6,-2
14:52:03:387067,2,-1,-2,-1,-2,-1,0,4
14:52:03:402831,2,-1,-2,-1,-2,-1,0,4
14:52:03:403577,2,-1,-1,-2,0,-2,1,7
14:52:03:409576,2,0,-3,-4,-4,-3,0,3
14:52:03:417762,2,0,-3,-4,-4,-3,0,3
14:52:03:418537,-4,-1,-1,1,-1,3,16,-2
14:52:03:432047,3,-2,-2,-1,0,1,8,0
14:52:03:440304,3,-2,-2,-1,0,1,8,0
14:52:03:441116,-2,-4,-2,-2,-7,-6,-9,-7
14:52:03:447069,-4,-1,-1,1,-3,-4,-7,-5
14:52:03:462526,-4,-1,-1,1,-3,-4,-7,-5
14:52:03:470219,-1,-1,-2,-1,-2,0,0,-6
14:52:03:471024,0,-2,-2,-3,-5,-4,9,0
14:52:03:477791,0,-2,-2,-3,-5,-4,9,0
14:52:03:478552,8,-1,1,0,3,0,1,-6
14:52:03:492040,-3,-1,-3,-2,-3,-3,0,1
14:52:03:500291,-3,-1,-3,-2,-3,-3,0,1
14:52:03:501091,2,1,-2,-2,2,-2,-6,-1
14:52:03:507037,-5,-2,2,0,1,-3,-10,3
14:52:03:522769,-5,-2,2,0,1,-3,-10,3
14:52:03:523534,-4,-1,0,0,0,-1,-4,0
14:52:03:529547,-1,1,1,1,0,1,2,-4
14:52:03:537794,-1,1,1,1,0,1,2,-4
14:52:03:538571,1,-2,-2,-5,-2,-3,-3,11
14:52:03:560943,1,0,-1,-1,-2,-3,-11,-2
14:52:03:561686,1,0,-1,-1,-2,-3,-11,-2
14:52:03:562511,-2,-1,0,0,-1,0,-6,-2
14:52:03:567008,0,1,0,1,6,1,-4,3
14:52:03:582736,0,1,0,1,6,1,-4,3
14:52:03:583519,-3,-1,-2,-1,-4,-5,-7,-4
14:52:03:589566,0,-2,0,0,-6,-3,-7,-2
14:52:03:605296,0,-2,0,0,-6,-3,-7,-2
14:52:03:606088,-2,0,0,1,3,6,4,-8
14:52:03:612067,0,-2,-1,-1,-3,0,1,-3
14:52:03:620260,0,-2,-1,-1,-3,0,1,-3
14:52:03:621028,-1,-2,-4,0,-1,-2,-8,1
14:52:03:627075,-1,0,-1,-1,1,0,-3,0
14:52:03:642811,-1,0,-1,-1,1,0,-3,0
14:52:03:643602,-3,1,1,0,1,1,2,-4
14:52:03:649556,-1,-1,-2,-3,-1,0,6,0
14:52:03:657728,-1,-1,-2,-3,-1,0,6,0
14:52:03:658522,2,0,-1,-2,-2,-5,-2,-5
14:52:03:672058,-2,-4,-1,0,-3,0,6,1
14:52:03:680242,-2,-4,-1,0,-3,0,6,1
14:52:03:681048,-1,1,-1,0,-2,-2,-1,0
14:52:03:687037,-1,0,-1,-1,-3,-6,-9,-5
14:52:03:702814,-1,0,-1,-1,-3,-6,-9,-5
14:52:03:703591,-3,-2,0,-1,3,3,2,0
14:52:03:709555,-5,-3,-3,-2,-3,3,9,-2
14:52:03:717745,-5,-3,-3,-2,-3,3,9,-2
14:52:03:718531,5,0,0,-3,-7,-3,-6,0
14:52:03:732019,1,0,1,0,1,1,2,0
14:52:03:740956,1,0,1,0,1,1,2,0
14:52:03:741736,-7,-2,-1,-3,-3,-9,-5,-5
14:52:03:747077,-1,-4,0,0,-1,-6,-11,-5
14:52:03:762778,-1,-4,0,0,-1,-6,-11,-5
14:52:03:763583,-3,-2,-2,0,-3,0,6,5
14:52:03:769557,-4,-2,0,1,4,6,-1,2
14:52:03:777806,-4,-2,0,1,4,6,-1,2
14:52:03:778592,-2,-1,-1,-3,-1,-5,-4,-2
14:52:03:792040,0,0,-2,-2,2,3,3,0
14:52:03:800270,0,0,-2,-2,2,3,3,0
14:52:03:801084,5,-1,-1,-1,1,2,12,11
14:52:03:807060,1,0,0,-1,-4,-1,0,1
14:52:03:822795,1,0,0,-1,-4,-1,0,1
14:52:03:823569,0,-1,1,2,2,2,-5,1
14:52:03:829573,-2,-3,-4,-2,-1,-2,1,-2
14:52:03:837784,-2,-3,-4,-2,-1,-2,1,-2
14:52:03:838641,0,-1,-2,-1,-2,-2,-7,1
14:52:03:852076,-2,0,-2,-3,-1,-2,-1,-6
14:52:03:860329,-2,0,-2,-3,-1,-2,-1,-6
14:52:03:861102,0,-2,-2,-1,-1,2,12,-6
14:52:03:874533,2,0,0,-1,-2,-1,1,2
14:52:03:882766,2,0,0,-1,-2,-1,1,2
14:52:03:883570,-5,-2,-4,-2,-1,-3,-11,-8
14:52:03:889578,2,3,-1,0,0,2,3,2
14:52:03:897120,2,3,-1,0,0,2,3,2
14:52:03:904543,-3,-1,-1,1,-1,0,10,1
14:52:03:912047,5,-1,-1,-1,-3,-4,4,4
14:52:03:920301,5,-1,-1,-1,-3,-4,4,4
14:52:03:921077,-2,0,-1,1,2,-1,-7,-5
14:52:03:934573,-5,0,1,0,-1,-3,-9,-1
14:52:03:942769,-5,0,1,0,-1,-3,-9,-1
14:52:03:943576,0,1,0,-2,-2,-2,-1,1
14:52:03:949538,-1,-3,-2,-2,-1,2,-2,-7
14:52:03:957137,-1,-3,-2,-2,-1,2,-2,-7
14:52:03:964563,0,-1,1,-2,0,0,-7,-3
14:52:03:972109,1,0,-1,1,1,-2,2,4
14:52:03:980238,1,0,-1,1,1,-2,2,4
14:52:03:981028,-1,-1,-2,-2,-3,-1,2,-2
14:52:03:994539,-2,-2,-2,-2,-4,-2,2,2
14:52:04:2810,-2,-2,-2,-2,-4,-2,2,2
14:52:04:3590,-1,1,-1,0,-1,0,-5,-3
14:52:04:9562,5,1,-1,-1,1,0,-2,1
14:52:04:17093,5,1,-1,-1,1,0,-2,1
14:52:04:24560,1,1,-1,-3,-3,-3,-2,1
14:52:04:32063,-8,-12,6,1,-3,0,2,-2
14:52:04:40248,-8,-12,6,1,-3,0,2,-2
14:52:04:41054,-12,-9,0,0,4,1,-2,-2
14:52:04:54551,2,-5,-2,-3,-4,-5,-6,-2
14:52:04:62732,2,-5,-2,-3,-4,-5,-6,-2
14:52:04:63531,2,2,0,-1,-4,-4,-1,-1
14:52:04:69584,3,4,-1,0,3,0,-9,-2
14:52:04:77105,3,4,-1,0,3,0,-9,-2
14:52:04:84533,1,-1,-3,-2,-1,1,-10,0
14:52:04:92008,2,5,-1,-1,-1,0,3,-7
14:52:04:100264,2,5,-1,-1,-1,0,3,-7
14:52:04:101055,-3,-3,-1,-1,-2,3,5,1
14:52:04:114564,-5,0,0,0,-1,3,9,2
14:52:04:122752,-5,0,0,0,-1,3,9,2
14:52:04:123587,1,0,-1,-1,-4,-2,8,1
14:52:04:129544,-1,1,-2,0,2,-5,-19,-1
14:52:04:137127,-1,1,-2,0,2,-5,-19,-1
14:52:04:144578,-1,-5,-2,-3,-2,-2,-6,-5
14:52:04:152027,-8,-3,-2,-2,-4,-3,6,-3
14:52:04:160302,-8,-3,-2,-2,-4,-3,6,-3
14:52:04:161061,2,0,-1,0,3,6,13,1
14:52:04:174517,-2,-1,-3,0,0,0,1,1
14:52:04:182768,-2,-1,-3,0,0,0,1,1
14:52:04:183566,-3,0,-3,-1,-2,-3,3,-3
14:52:04:189564,2,0,-1,-1,-4,1,3,-1
14:52:04:197123,2,0,-1,-1,-4,1,3,-1
14:52:04:204545,4,1,0,-2,1,-2,-1,3
14:52:04:212055,1,6,-1,-2,0,-1,-10,1
14:52:04:220332,1,6,-1,-2,0,-1,-10,1
14:52:04:221117,-3,-4,-1,0,-3,-5,-9,-6
14:52:04:234549,-1,-1,-2,-3,-2,-5,-2,-1
14:52:04:242796,-1,-1,-2,-3,-2,-5,-2,-1
14:52:04:243573,-2,0,0,-1,-2,1,-1,-1
14:52:04:249535,-6,-4,0,0,-1,1,2,-1
14:52:04:257129,-6,-4,0,0,-1,1,2,-1
14:52:04:264582,3,0,-1,-3,1,-1,-2,-2
14:52:04:272082,-3,-3,0,-1,0,1,1,-3
14:52:04:280244,-3,-3,0,-1,0,1,1,-3
14:52:04:281039,1,2,-4,-4,-1,0,9,1
14:52:04:294554,-3,-1,1,1,-1,-3,-2,3
14:52:04:302810,-3,-1,1,1,-1,-3,-2,3
14:52:04:303599,0,1,0,0,1,1,-12,-2
14:52:04:309569,0,-2,0,-1,-3,-3,-1,-2
14:52:04:317095,0,-2,0,-1,-3,-3,-1,-2
14:52:04:324592,0,3,0,0,-1,-2,-4,0
14:52:04:332082,4,0,0,2,3,2,-5,0
14:52:04:340254,4,0,0,2,3,2,-5,0
14:52:04:341045,-2,-3,-3,1,0,-2,-1,-4
14:52:04:354558,-5,-2,-1,0,-4,-1,2,-8
14:52:04:362745,-5,-2,-1,0,-4,-1,2,-8
14:52:04:363518,-6,-6,-1,2,0,0,9,3
14:52:04:369585,0,-3,-3,-2,1,2,-1,3
14:52:04:377124,0,-3,-3,-2,1,2,-1,3
14:52:04:392704,2,4,0,-2,-3,-3,-3,0
14:52:04:393526,-1,-7,-1,0,2,1,-4,-2
14:52:04:400261,-1,-7,-1,0,2,1,-4,-2
14:52:04:401038,-2,-12,0,-2,0,1,-7,-4
14:52:04:414585,2,3,0,-1,-5,-2,-3,1
14:52:04:422809,2,3,0,-1,-5,-2,-3,1
14:52:04:423627,3,-6,-2,0,0,-1,-5,-4
14:52:04:429579,-3,2,-1,0,4,3,-3,-1
14:52:04:437102,-3,2,-1,0,4,3,-3,-1
14:52:04:444556,-3,0,-1,-1,1,-2,-2,0
14:52:04:452076,1,-3,3,-2,0,1,-1,2
14:52:04:460254,1,-3,3,-2,0,1,-1,2
14:52:04:461045,0,3,0,-1,-3,-2,-5,3
14:52:04:474571,0,0,2,-2,-4,-3,-7,-4
14:52:04:482768,0,0,2,-2,-4,-3,-7,-4
14:52:04:483573,4,1,-2,-3,-2,0,-2,-2
14:52:04:489555,-3,-8,-1,-2,-3,-1,3,2
14:52:04:497089,-3,-8,-1,-2,-3,-1,3,2
14:52:04:504512,-1,0,1,-2,-3,-1,0,1
14:52:04:512054,0,1,-1,-2,-1,-1,0,4
14:52:04:520256,0,1,-1,-2,-1,-1,0,4
14:52:04:521073,-1,3,-1,-2,-6,-2,2,-2
14:52:04:534606,0,0,-2,2,2,1,-4,-2
14:52:04:542740,0,0,-2,2,2,1,-4,-2
14:52:04:543582,-5,-10,-1,0,0,-2,1,-1
14:52:04:549524,0,1,-1,-1,-1,0,5,1
14:52:04:557091,0,1,-1,-1,-1,0,5,1
14:52:04:564554,-3,1,4,2,4,-2,-6,-1
14:52:04:572049,2,-5,-2,1,-2,3,-3,-2
14:52:04:580253,2,-5,-2,1,-2,3,-3,-2
14:52:04:581046,-12,-7,-5,-2,-12,-8,-5,-1
14:52:04:594519,1,2,-1,-3,1,-2,-9,-4
14:52:04:602803,1,2,-1,-3,1,-2,-9,-4
14:52:04:603603,3,2,-1,-1,-1,-2,-6,-3
14:52:04:609579,-2,2,2,-3,-2,-3,2,-3
14:52:04:617140,-2,2,2,-3,-2,-3,2,-3
14:52:04:624545,-1,0,-1,-1,0,4,9,0
14:52:04:632044,4,4,-2,1,3,1,4,1
14:52:04:640297,4,4,-2,1,3,1,4,1
14:52:04:641085,-2,2,-2,-2,-1,-3,-3,-6
14:52:04:654561,-2,1,-3,0,1,3,-1,1
14:52:04:662772,-2,1,-3,0,1,3,-1,1
14:52:04:663579,-2,1,-1,0,3,1,0,-4
14:52:04:669538,-4,-1,-1,4,-1,-3,1,-1
14:52:04:677134,-4,-1,-1,4,-1,-3,1,-1
14:52:04:684606,4,4,1,-3,-3,0,-1,2
14:52:04:692073,-5,-2,-1,-5,-3,-2,2,-2
14:52:04:700271,-5,-2,-1,-5,-3,-2,2,-2
14:52:04:701058,-4,-14,-4,2,1,1,4,1
14:52:04:714559,6,10,-4,-10,-8,-5,-3,1
14:52:04:722725,6,10,-4,-10,-8,-5,-3,1
14:52:04:723525,-3,-5,-3,-5,-3,1,13,2
14:52:04:729591,-5,-7,-10,7,1,0,0,-3
14:52:04:737089,-5,-7,-10,7,1,0,0,-3
14:52:04:744592,-5,5,2,-1,-4,0,-5,-2
14:52:04:752105,6,-4,-16,-12,-9,-5,-3,-6
14:52:04:760258,6,-4,-16,-12,-9,-5,-3,-6
14:52:04:761052,4,-2,3,10,7,-1,-3,2
14:52:04:774591,-4,-3,11,17,-3,-3,-1,2
14:52:04:782787,-4,-3,11,17,-3,-3,-1,2
14:52:04:783512,-1,-11,0,-10,-1,-1,-6,-2
14:52:04:789597,-1,-5,-1,-1,-3,0,0,-2
14:52:04:797097,-1,-5,-1,-1,-3,0,0,-2
14:52:04:804506,5,-1,1,3,-2,0,0,2
14:52:04:812051,0,-5,1,6,0,-3,-7,-7
14:52:04:819612,0,-5,1,6,0,-3,-7,-7
14:52:04:827037,6,-2,6,-8,1,0,0,5
14:52:04:834555,-9,-17,-4,-9,1,-2,2,-1
14:52:04:842799,-9,-17,-4,-9,1,-2,2,-1
14:52:04:843604,1,0,-5,-7,-4,0,2,2
14:52:04:857758,3,14,2,13,12,-1,-1,1
14:52:04:858594,3,14,2,13,12,-1,-1,1
14:52:04:864586,2,-9,-5,16,10,1,-3,-1
14:52:04:872052,-12,7,6,-9,-5,2,0,5
14:52:04:879632,-12,7,6,-9,-5,2,0,5
14:52:04:887040,6,16,11,9,-4,-5,-7,-8
14:52:04:894555,0,32,3,22,-4,-5,-2,-1
14:52:04:902759,0,32,3,22,-4,-5,-2,-1
14:52:04:903605,-2,-13,0,7,1,2,0,0
14:52:04:917751,12,-5,15,-13,-10,-3,0,2
14:52:04:918600,12,-5,15,-13,-10,-3,0,2
14:52:04:924549,-6,17,-7,-6,-4,0,0,-2
14:52:04:932079,8,0,-9,-19,-5,0,2,0
14:52:04:939614,8,0,-9,-19,-5,0,2,0
14:52:04:947084,-8,-4,-3,-15,-5,-2,-1,-5
14:52:04:954555,-14,-5,0,-4,1,1,2,1
14:52:04:962730,-14,-5,0,-4,1,1,2,1
14:52:04:963532,-4,-2,-10,0,0,0,-6,-1
14:52:04:977694,-3,-4,-9,-8,-2,-3,-3,-2
14:52:04:978540,-3,-4,-9,-8,-2,-3,-3,-2
14:52:04:984572,-2,-4,0,9,0,-2,0,-2
14:52:04:992046,-10,-21,2,4,6,3,-2,-3
14:52:04:999615,-10,-21,2,4,6,3,-2,-3
14:52:05:7075,-5,-1,-8,-6,-13,-6,-2,-3
14:52:05:23393,1,15,16,15,4,1,2,1
14:52:05:24191,1,15,16,15,4,1,2,1
14:52:05:25004,12,11,-1,-12,-3,-2,-3,-1
14:52:05:38244,-2,-8,-5,7,-4,0,-2,0
14:52:05:39044,-2,-8,-5,7,-4,0,-2,0
14:52:05:44545,-7,-7,-15,3,3,1,0,3
14:52:05:52055,4,8,-5,-1,-5,-5,1,0
14:52:05:59638,4,8,-5,-1,-5,-5,1,0
14:52:05:67060,-22,-11,-5,-19,0,2,-1,-4
14:52:05:83441,-2,-2,-9,-8,2,1,3,-1
14:52:05:84242,-2,-2,-9,-8,2,1,3,-1
14:52:05:85044,7,-10,-17,-11,-4,-5,-3,-2
14:52:05:97744,4,4,-6,-5,-6,0,-2,-1
14:52:05:98566,4,4,-6,-5,-6,0,-2,-1
14:52:05:104555,-2,12,23,9,2,0,2,2
14:52:05:112051,8,-15,-11,-15,-8,-3,2,1
14:52:05:119667,8,-15,-11,-15,-8,-3,2,1
14:52:05:127054,-2,12,1,3,2,-2,-1,1
14:52:05:134573,-16,1,7,19,8,3,1,2
14:52:05:143238,-16,1,7,19,8,3,1,2
14:52:05:149597,1,-9,-1,-2,2,-2,-2,-2
14:52:05:157758,5,-4,-2,-12,-2,-2,-2,-1
14:52:05:158585,5,-4,-2,-12,-2,-2,-2,-1
14:52:05:164535,-6,-1,10,12,-1,2,2,1
14:52:05:172049,-7,-11,9,24,5,-2,-3,-1
14:52:05:179639,-7,-11,9,24,5,-2,-3,-1
14:52:05:187028,-11,28,27,16,0,-2,0,0
14:52:05:194550,-12,-30,-16,-4,3,-1,-4,-7
14:52:05:202735,-12,-30,-16,-4,3,-1,-4,-7
14:52:05:203579,3,-8,-3,0,2,0,2,5
14:52:05:217752,0,13,-11,-12,-1,-1,-5,-4
14:52:05:218567,0,13,-11,-12,-1,-1,-5,-4
14:52:05:224502,9,-10,0,-4,2,0,1,4
14:52:05:232022,10,-2,7,-26,-10,-4,2,2
14:52:05:239587,10,-2,7,-26,-10,-4,2,2
14:52:05:247080,4,6,-14,-6,-8,-3,-6,-9
14:52:05:263412,-1,22,18,3,-2,-2,-1,-3
14:52:05:264214,-1,22,18,3,-2,-2,-1,-3
14:52:05:265013,-1,-28,25,6,-3,2,0,-1
14:52:05:277746,-2,0,11,-16,-10,1,1,2
14:52:05:278547,-2,0,11,-16,-10,1,1,2
14:52:05:284552,11,12,-13,-24,-2,-3,-5,-7
14:52:05:292089,7,-18,-12,6,9,3,1,0
14:52:05:299619,7,-18,-12,6,9,3,1,0
14:52:05:307048,-9,-22,-2,-10,-5,-4,1,0
14:52:05:314550,11,25,12,13,6,-3,-5,-4
14:52:05:322802,11,25,12,13,6,-3,-5,-4
14:52:05:323580,-12,-11,3,-9,0,0,1,-1
14:52:05:337756,-7,8,-3,11,9,2,2,-1
14:52:05:338583,-7,8,-3,11,9,2,2,-1
14:52:05:344533,3,11,0,15,7,1,-1,1
14:52:05:352049,0,-11,-14,-2,-11,-5,-4,1
14:52:05:359615,0,-11,-14,-2,-11,-5,-4,1
14:52:05:367054,11,1,-2,12,-2,1,0,3
14:52:05:374561,4,10,-27,2,6,-1,-5,-4
14:52:05:382804,4,10,-27,2,6,-1,-5,-4
14:52:05:383613,7,43,-23,0,0,1,-2,-2
14:52:05:397769,4,-5,-3,-37,-12,-1,1,-1
14:52:05:398592,4,-5,-3,-37,-12,-1,1,-1
14:52:05:404550,-8,-4,36,-5,-3,2,2,1
14:52:05:412069,-10,-6,-21,-17,-4,-2,-2,-1
14:52:05:419634,-10,-6,-21,-17,-4,-2,-2,-1
14:52:05:427053,-9,-14,3,-4,4,2,0,-1
14:52:05:434546,-17,2,5,31,3,0,-2,-7
14:52:05:442754,-17,2,5,31,3,0,-2,-7
14:52:05:443579,-1,2,-18,-17,-6,-4,-5,-2
14:52:05:457789,9,12,11,-15,2,4,-3,0
14:52:05:458594,9,12,11,-15,2,4,-3,0
14:52:05:464586,0,-12,-7,12,-3,-4,-2,0
14:52:05:472091,-3,-6,9,25,10,-1,-1,1
14:52:05:479601,-3,-6,9,25,10,-1,-1,1
14:52:05:487079,-4,23,-20,-19,-12,-4,-6,-4
14:52:05:494608,1,-7,-40,-42,-5,-4,-2,-1
14:52:05:502756,1,-7,-40,-42,-5,-4,-2,-1
14:52:05:503525,-12,-22,-15,-11,1,3,8,6
14:52:05:517722,1,14,16,8,2,-2,-8,-9
14:52:05:518543,1,14,16,8,2,-2,-8,-9
14:52:05:524620,3,47,19,-7,0,-3,-1,-1
14:52:05:532122,0,-14,11,-2,-2,0,3,3
14:52:05:539606,0,-14,11,-2,-2,0,3,3
14:52:05:547039,-8,8,-3,0,-4,-2,-1,-6
14:52:05:554518,-2,0,-4,-6,-2,0,2,0
14:52:05:562786,-2,0,-4,-6,-2,0,2,0
14:52:05:563539,1,3,7,19,0,-1,-2,-1
14:52:05:577726,-20,-41,-16,-8,-7,-2,-2,-3
14:52:05:578555,-20,-41,-16,-8,-7,-2,-2,-3
14:52:05:584554,-2,-26,-15,-3,-2,-1,-3,-1
14:52:05:592058,8,49,24,35,-6,-2,2,1
14:52:05:599627,8,49,24,35,-6,-2,2,1
14:52:05:607024,8,-11,-1,12,1,-3,-3,1
14:52:05:614530,10,9,13,12,-1,0,3,3
14:52:05:622779,10,9,13,12,-1,0,3,3
14:52:05:623584,11,3,-3,-21,0,0,0,-1
14:52:05:637775,-1,-4,-8,15,2,-1,-1,0
14:52:05:638560,-1,-4,-8,15,2,-1,-1,0
14:52:05:644506,0,-11,-22,8,0,-3,-3,-1
14:52:05:652050,6,5,78,20,6,0,-1,-2
14:52:05:659608,6,5,78,20,6,0,-1,-2
14:52:05:667067,-1,-9,-63,-68,-14,-7,-5,-6
14:52:05:674523,14,-5,12,-1,0,0,-2,-1
14:52:05:682780,14,-5,12,-1,0,0,-2,-1
14:52:05:683618,-24,1,28,42,5,5,5,1
14:52:05:697774,1,-19,5,-17,-6,-2,-2,0
14:52:05:698616,1,-19,5,-17,-6,-2,-2,0
14:52:05:704565,-3,-18,14,18,6,3,-1,-1
14:52:05:712076,6,-38,-38,-12,0,-2,0,1
14:52:05:719677,6,-38,-38,-12,0,-2,0,1
14:52:05:727075,-8,-17,-15,-33,-10,-3,-1,0
14:52:05:734613,-1,18,-25,-4,15,3,1,-1
14:52:05:742744,-1,18,-25,-4,15,3,1,-1
14:52:05:743568,6,-9,31,16,8,1,0,0
14:52:05:757773,-16,-6,-3,-4,-8,-2,-4,-3
14:52:05:758602,-16,-6,-3,-4,-8,-2,-4,-3
14:52:05:764578,3,14,15,34,11,4,3,2
14:52:05:780236,-7,0,23,10,0,-1,-2,-2
14:52:05:781102,-7,0,23,10,0,-1,-2,-2
14:52:05:787043,13,0,-28,-19,-12,-4,-3,1
14:52:05:794581,15,14,-17,6,4,-1,1,3
14:52:05:802164,15,14,-17,6,4,-1,1,3
14:52:05:809569,1,-17,9,9,1,1,3,1
14:52:05:818120,-8,2,-4,-6,-5,-1,-1,-2
14:52:05:825230,-8,2,-4,-6,-5,-1,-1,-2
14:52:05:826041,-3,-8,0,7,5,0,-1,-2
14:52:05:840209,-7,16,-38,-31,-8,-4,-2,1
14:52:05:841016,-7,16,-38,-31,-8,-4,-2,1
14:52:05:847063,-8,13,-1,-5,-4,-2,-3,-1
14:52:05:854547,0,8,8,-14,-7,-3,-1,-2
14:52:05:862086,0,8,8,-14,-7,-3,-1,-2
14:52:05:869604,3,7,33,15,6,1,-1,-1
14:52:05:877755,-9,-8,-22,5,-2,-4,-2,-2
14:52:05:878537,-9,-8,-22,5,-2,-4,-2,-2
14:52:05:884541,3,-11,8,3,-7,-5,-4,-4
14:52:05:900245,-2,-9,2,6,-1,-1,-1,-2
14:52:05:901047,-2,-9,2,6,-1,-1,-1,-2
14:52:05:907056,12,10,14,3,5,2,1,1
14:52:05:914585,-22,20,2,-5,-2,0,-3,-3
14:52:05:922102,-22,20,2,-5,-2,0,-3,-3
14:52:05:929526,-3,-14,-20,-16,-2,-1,-1,0
14:52:05:937767,28,4,4,-9,-1,1,-1,3
14:52:05:938581,28,4,4,-9,-1,1,-1,3
14:52:05:944574,-3,12,0,-36,-9,-3,-4,-2
14:52:05:960228,0,-24,-13,5,4,2,1,-1
14:52:05:961118,0,-24,-13,5,4,2,1,-1
14:52:05:967023,-8,-23,4,14,1,-1,-1,-2
14:52:05:974509,0,4,24,-19,-9,-4,0,-1
14:52:05:982105,0,4,24,-19,-9,-4,0,-1
14:52:05:989515,-7,-1,-5,-7,2,-1,0,-1
14:52:05:997757,-7,-19,-15,3,-3,-4,-3,-1
14:52:05:998576,-7,-19,-15,3,-3,-4,-3,-1
14:52:06:4558,-8,7,19,26,4,-2,-2,-3
14:52:06:20255,14,-31,16,16,8,0,0,3
14:52:06:21074,14,-31,16,16,8,0,0,3
14:52:06:27012,8,1,-34,-3,-1,1,-1,-1
14:52:06:34552,-6,1,25,12,-9,-6,-5,-5
14:52:06:42128,-6,1,25,12,-9,-6,-5,-5
14:52:06:49571,-3,22,13,20,5,1,0,-1
14:52:06:57711,24,8,-22,-11,1,3,4,4
14:52:06:58524,24,8,-22,-11,1,3,4,4
14:52:06:64558,-20,-21,-7,-17,-7,-4,-4,-5
14:52:06:80274,-7,15,-1,2,-12,-5,-4,-5
14:52:06:81067,-7,15,-1,2,-12,-5,-4,-5
14:52:06:87043,1,19,-42,-31,-6,-2,-1,-2
14:52:06:94557,0,0,20,17,12,7,2,-1
14:52:06:102073,0,0,20,17,12,7,2,-1
14:52:06:109625,5,7,-7,24,8,3,1,0
14:52:06:117817,-11,-49,-80,-31,-2,-4,-3,-3
14:52:06:118582,-11,-49,-80,-31,-2,-4,-3,-3
14:52:06:124637,-27,21,41,23,-4,1,-1,-1
14:52:06:140211,-21,1,-15,-25,5,2,0,1
14:52:06:141032,-21,1,-15,-25,5,2,0,1
14:52:06:147084,5,-2,20,-2,-8,-5,-2,-2
14:52:06:154546,-9,20,15,-15,-12,-3,-1,-3
14:52:06:162110,-9,20,15,-15,-12,-3,-1,-3
14:52:06:169500,14,0,-7,-4,-5,-1,-2,0
14:52:06:177753,-4,2,15,13,9,-2,0,-2
14:52:06:178547,-4,2,15,13,9,-2,0,-2
14:52:06:184548,-1,-12,7,4,-3,-5,-3,-3
14:52:06:200227,4,0,-13,-1,6,2,-2,2
14:52:06:201042,4,0,-13,-1,6,2,-2,2
14:52:06:207034,9,-24,-9,-8,-3,-3,-2,-1
14:52:06:214508,0,6,2,-4,-5,-3,-3,-4
14:52:06:222093,0,6,2,-4,-5,-3,-3,-4
14:52:06:229564,1,7,-3,-6,2,1,1,0
14:52:06:237729,4,14,17,22,6,2,-1,0
14:52:06:238567,4,14,17,22,6,2,-1,0
14:52:06:244525,4,-16,-33,-19,-3,-2,-1,0
14:52:06:260237,-3,6,20,10,4,-1,0,-2
14:52:06:261072,-3,6,20,10,4,-1,0,-2
14:52:06:267026,1,0,-19,-15,-5,-2,-1,3
14:52:06:274544,-5,10,-7,-8,-8,-1,1,2
14:52:06:282114,-5,10,-7,-8,-8,-1,1,2
14:52:06:289521,-13,15,36,39,2,1,-1,1
14:52:06:297751,5,11,28,10,-4,1,2,3
14:52:06:298594,5,11,28,10,-4,1,2,3
14:52:06:304568,-5,-22,3,-9,0,0,-1,-4
14:52:06:320257,-8,-17,5,2,10,1,-1,-4
14:52:06:321061,-8,-17,5,2,10,1,-1,-4
14:52:06:327092,6,24,-15,9,-8,-3,-2,-2
14:52:06:334533,-17,-16,11,-3,-5,0,-1,-3
14:52:06:342109,-17,-16,11,-3,-5,0,-1,-3
14:52:06:349568,-10,-13,3,-5,-7,-5,-3,-3
14:52:06:357721,20,-2,-36,-24,-12,-5,-5,-1
14:52:06:358530,20,-2,-36,-24,-12,-5,-5,-1
14:52:06:364552,7,5,13,4,4,1,2,0
14:52:06:380258,-8,-6,-55,-12,-4,-4,-2,-5
14:52:06:381071,-8,-6,-55,-12,-4,-4,-2,-5
14:52:06:387071,-18,3,19,13,6,1,2,-1
14:52:06:394535,4,23,25,21,1,0,-1,-2
14:52:06:402071,4,23,25,21,1,0,-1,-2
14:52:06:409559,8,14,-2,-4,-4,-3,-3,-1
14:52:06:417777,-2,-2,9,-1,3,1,1,1
14:52:06:418540,-2,-2,9,-1,3,1,1,1
14:52:06:424517,11,-2,-3,10,6,0,0,3
14:52:06:440255,-3,0,-25,-5,-1,-2,1,-3
14:52:06:441053,-3,0,-25,-5,-1,-2,1,-3
14:52:06:447074,7,1,-46,-24,-2,1,0,0
14:52:06:454576,5,-4,-3,5,-1,-3,-3,0
14:52:06:462093,5,-4,-3,5,-1,-3,-3,0
14:52:06:469542,0,-4,21,-2,6,3,0,-1
14:52:06:477740,16,-3,17,4,-4,-1,-2,2
14:52:06:478580,16,-3,17,4,-4,-1,-2,2
14:52:06:484560,8,-4,-3,-18,-8,-4,-3,-2
14:52:06:500280,-3,-1,-6,-33,-9,-1,-2,1
14:52:06:501083,-3,-1,-6,-33,-9,-1,-2,1
14:52:06:507026,-14,-26,-9,-19,1,1,0,1
14:52:06:514510,-3,-31,-12,-4,-11,-5,-5,-4
14:52:06:522088,-3,-31,-12,-4,-11,-5,-5,-4
14:52:06:529529,1,19,32,7,-5,1,0,0
14:52:06:537782,1,19,32,7,-5,1,0,0
14:52:06:538577,-3,6,17,13,1,-1,-1,0
14:52:06:544530,-4,-10,-24,3,2,1,-2,0
14:52:06:560274,-4,-10,-24,3,2,1,-2,0
14:52:06:561071,-7,3,0,1,0,1,1,-1
14:52:06:567039,-19,2,-12,-14,-4,-5,-2,-1
14:52:06:582745,-19,2,-12,-14,-4,-5,-2,-1
14:52:06:583591,1,0,2,0,2,-3,-2,0
14:52:06:589515,7,2,16,0,-2,2,0,-3
14:52:06:597760,7,2,16,0,-2,2,0,-3
14:52:06:598557,-19,4,6,5,3,0,2,0
14:52:06:604548,-2,-29,-18,-8,-5,-4,-2,-3
14:52:06:620299,-2,-29,-18,-8,-5,-4,-2,-3
14:52:06:621068,4,0,-34,14,3,2,3,1
14:52:06:627067,0,6,-4,-1,7,0,-2,0
14:52:06:642767,0,6,-4,-1,7,0,-2,0
14:52:06:643582,-6,-2,8,18,7,1,-1,0
14:52:06:658367,0,3,12,15,3,-1,0,-1
14:52:06:659213,0,3,12,15,3,-1,0,-1
14:52:06:660010,5,2,-1,-1,-1,1,2,1
14:52:06:664566,4,-9,20,14,0,-1,0,1
14:52:06:680289,4,-9,20,14,0,-1,0,1
14:52:06:681077,-11,-27,3,-7,-3,-3,-3,-2
14:52:06:687063,-15,-6,7,-6,-1,0,-1,-2
14:52:06:702774,-15,-6,7,-6,-1,0,-1,-2
14:52:06:703599,4,23,10,-4,-9,-4,-3,-1
14:52:06:709559,8,7,-4,-3,2,0,-1,2
14:52:06:717797,8,7,-4,-3,2,0,-1,2
14:52:06:718574,0,0,3,-7,2,-3,-3,-3
14:52:06:732078,-19,-3,-8,6,0,0,0,-2
14:52:06:740298,-19,-3,-8,6,0,0,0,-2
14:52:06:741103,-7,-3,9,-14,-2,2,2,-1
14:52:06:747057,20,-1,-13,-9,6,-2,0,2
14:52:06:762807,20,-1,-13,-9,6,-2,0,2
14:52:06:763582,-5,-2,3,-1,-4,-2,-2,-1
14:52:06:769569,6,-5,7,2,0,-1,0,-2
14:52:06:777768,6,-5,7,2,0,-1,0,-2
14:52:06:778578,-11,-7,-1,-5,-9,-6,-3,-3
14:52:06:792062,2,11,-7,3,9,-1,-2,0
14:52:06:800258,2,11,-7,3,9,-1,-2,0
14:52:06:801096,6,-18,-32,-6,7,2,0,1
14:52:06:807043,-16,2,-8,2,-11,-4,-3,-2
14:52:06:822743,-16,2,-8,2,-11,-4,-3,-2
14:52:06:823543,-10,-53,-5,2,5,0,0,-3
14:52:06:829528,13,0,-19,-13,-4,-3,0,-1
14:52:06:845249,13,0,-19,-13,-4,-3,0,-1
14:52:06:846061,4,6,1,-4,-6,-1,-2,-1
14:52:06:860946,-2,-18,-16,-7,-4,2,0,-1
14:52:06:861724,-2,-18,-16,-7,-4,2,0,-1
14:52:06:862500,-4,-7,-11,-20,8,1,-1,0
14:52:06:867066,-2,-8,-21,15,-1,-3,1,0
14:52:06:890970,-2,-8,-21,15,-1,-3,1,0
14:52:06:891778,7,1,-6,-17,-7,-4,-1,-1
14:52:06:892550,-2,-10,-16,-26,-8,-3,-3,-2
14:52:06:897785,-2,-10,-16,-26,-8,-3,-3,-2
14:52:06:898570,1,17,5,14,-2,-2,-4,-1
14:52:06:912066,12,22,20,13,2,-1,1,-1
14:52:06:920269,12,22,20,13,2,-1,1,-1
14:52:06:921085,5,10,5,1,15,2,1,0
14:52:06:927035,0,2,4,6,-5,-5,-3,0
14:52:06:942762,0,2,4,6,-5,-5,-3,0
14:52:06:943543,-6,-1,-19,9,-5,2,-1,0
14:52:06:958453,-17,-5,18,-19,-11,-3,-5,-2
14:52:06:959212,-17,-5,18,-19,-11,-3,-5,-2
14:52:06:960041,14,3,-24,-8,-9,-6,-1,-1
14:52:06:972065,-15,24,30,27,13,-2,2,-1
14:52:06:980246,-15,24,30,27,13,-2,2,-1
14:52:06:981038,-13,4,3,23,10,-2,1,-3
14:52:06:987024,0,-70,-29,-21,-4,-2,-2,1
14:52:07:2766,0,-70,-29,-21,-4,-2,-2,1
14:52:07:3531,10,21,6,8,-3,2,-1,3
14:52:07:9582,-2,-2,-22,-14,-2,-1,-1,-2
14:52:07:17737,-2,-2,-22,-14,-2,-1,-1,-2
14:52:07:18509,-1,14,27,7,-1,1,0,0
14:52:07:32067,3,11,-3,26,5,0,-2,-1
14:52:07:40228,3,11,-3,26,5,0,-2,-1
14:52:07:41022,6,11,22,21,-4,-3,-1,-2
14:52:07:47084,4,16,31,15,-3,1,0,-1
14:52:07:62821,4,16,31,15,-3,1,0,-1
14:52:07:63593,-13,-26,-5,-12,-4,-2,0,0
14:52:07:69569,5,10,2,1,-2,2,1,1
14:52:07:77747,5,10,2,1,-2,2,1,1
14:52:07:78524,0,-11,11,5,-3,-3,-2,-3
14:52:07:92072,0,11,-16,-18,-1,0,-2,-1
14:52:07:100222,0,11,-16,-18,-1,0,-2,-1
14:52:07:101034,-3,-24,-3,6,-8,-2,-3,-4
14:52:07:107116,3,-5,8,-1,0,1,-1,0
14:52:07:122777,3,-5,8,-1,0,1,-1,0
14:52:07:123598,-8,-49,-23,0,7,2,0,0
14:52:07:129572,15,-6,-35,-41,-11,-3,-2,-3
14:52:07:137728,15,-6,-35,-41,-11,-3,-2,-3
14:52:07:138540,-5,26,22,1,2,1,1,0
14:52:07:152031,6,3,-33,-12,-2,-2,-2,-1
14:52:07:160269,6,3,-33,-12,-2,-2,-2,-1
14:52:07:161101,7,18,-9,2,-3,1,0,-1
14:52:07:167055,-5,11,15,6,5,2,0,-2
14:52:07:182794,-5,11,15,6,5,2,0,-2
14:52:07:183541,1,14,6,5,1,1,-1,2
14:52:07:189521,-6,8,5,-4,-9,-2,1,1
14:52:07:197772,-6,8,5,-4,-9,-2,1,1
14:52:07:198596,1,-34,-33,-43,-12,-3,-2,-4
14:52:07:212060,-3,13,27,13,11,3,0,-2
14:52:07:220307,-3,13,27,13,11,3,0,-2
14:52:07:221087,2,21,13,-2,-3,-2,0,-1
14:52:07:227063,-17,-8,15,15,12,4,2,2
14:52:07:242798,-17,-8,15,15,12,4,2,2
14:52:07:243538,-5,1,-7,-6,-1,-2,-3,0
14:52:07:249577,3,0,18,8,-10,-3,-1,-1
14:52:07:257810,3,0,18,8,-10,-3,-1,-1
14:52:07:258584,-2,5,-3,-14,-1,-1,-2,-1
14:52:07:272073,2,-30,-22,-11,-13,-3,-4,-4
14:52:07:280278,2,-30,-22,-11,-13,-3,-4,-4
14:52:07:281060,5,6,16,18,-2,-3,-3,-3
14:52:07:287115,-5,-5,5,-5,-4,-4,-2,-3
14:52:07:302741,-5,-5,5,-5,-4,-4,-2,-3
14:52:07:303581,5,2,11,1,-11,-2,0,1
14:52:07:309519,-18,14,3,4,-1,-4,-2,-2
14:52:07:317780,-18,14,3,4,-1,-4,-2,-2
14:52:07:318567,-5,3,-9,-13,-3,-2,-2,0
14:52:07:332009,9,-12,-12,-6,-1,-2,-2,0
14:52:07:340262,9,-12,-12,-6,-1,-2,-2,0
14:52:07:341056,-2,-7,2,13,-3,-1,-2,-3
14:52:07:347047,-3,-40,-26,-23,-2,-1,-2,-1
14:52:07:362746,-3,-40,-26,-23,-2,-1,-2,-1
14:52:07:363596,2,0,-15,3,2,0,1,-1
14:52:07:369530,0,21,9,6,3,-3,-1,-1
14:52:07:377757,0,21,9,6,3,-3,-1,-1
14:52:07:378563,-8,1,-1,-15,7,2,-3,-1
14:52:07:392072,10,13,7,18,-4,-2,0,0
14:52:07:400248,10,13,7,18,-4,-2,0,0
14:52:07:401085,-14,13,15,6,5,0,0,2
14:52:07:407010,2,16,-6,-5,-5,-3,-1,-2
14:52:07:422761,2,16,-6,-5,-5,-3,-1,-2
14:52:07:423586,-6,2,13,8,-3,-2,0,-3
14:52:07:429594,3,-31,-16,9,2,0,-1,1
14:52:07:437745,3,-31,-16,9,2,0,-1,1
14:52:07:438561,0,-3,1,-2,1,-3,-2,-3
14:52:07:452091,9,6,-2,3,7,3,1,1
14:52:07:460254,9,6,-2,3,7,3,1,1
14:52:07:461038,3,4,-3,-7,-6,-4,-2,-1
14:52:07:467081,3,4,-3,-28,-4,-1,-2,0
14:52:07:482736,3,4,-3,-28,-4,-1,-2,0
14:52:07:483525,1,-11,-24,-6,5,1,-1,-3
14:52:07:489594,4,-4,4,1,-1,0,1,0
14:52:07:497788,4,-4,4,1,-1,0,1,0
14:52:07:498547,8,-2,12,6,14,2,-2,-2
14:52:07:512072,-7,14,5,6,0,0,-2,-3
14:52:07:520270,-7,14,5,6,0,0,-2,-3
14:52:07:521063,-2,-1,-10,2,-6,0,1,-1
14:52:07:527097,-4,-1,9,6,-5,-4,-1,-2
14:52:07:542805,-4,-1,9,6,-5,-4,-1,-2
14:52:07:543615,4,9,0,-3,-1,-3,-1,1
14:52:07:549567,-15,2,3,-22,-6,1,1,0
14:52:07:557774,-15,2,3,-22,-6,1,1,0
14:52:07:558571,0,-1,-2,3,-6,-4,-3,-2
14:52:07:572060,-28,-23,-5,13,1,-2,0,0
14:52:07:580238,-28,-23,-5,13,1,-2,0,0
14:52:07:581054,-2,8,2,-19,-10,-5,-4,-2
14:52:07:587098,6,12,4,-5,-1,0,-2,-2
14:52:07:602793,6,12,4,-5,-1,0,-2,-2
14:52:07:603607,-9,15,-5,9,2,0,1,0
14:52:07:609564,7,8,1,21,1,-1,-4,-3
14:52:07:617730,7,8,1,21,1,-1,-4,-3
14:52:07:618537,5,5,-15,-10,-1,1,-2,1
14:52:07:632037,4,19,9,15,-2,-2,-1,-2
14:52:07:640283,4,19,9,15,-2,-2,-1,-2
14:52:07:641100,0,-2,-3,-3,-2,0,0,1
14:52:07:654521,-4,-7,2,-7,-2,-1,0,0
14:52:07:662776,-4,-7,2,-7,-2,-1,0,0
14:52:07:663543,13,2,9,-5,0,0,0,1
14:52:07:669547,-4,-7,8,-4,-1,0,-2,-3
14:52:07:677132,-4,-7,8,-4,-1,0,-2,-3
14:52:07:684555,-10,-13,-15,-9,6,3,-1,-1
14:52:07:692052,2,-8,-9,-25,3,0,1,1
14:52:07:700225,2,-8,-9,-25,3,0,1,1
14:52:07:701055,2,-5,8,9,4,-2,2,-3
14:52:07:723397,-1,-7,-7,9,6,1,-2,1
14:52:07:724214,-1,-7,-7,9,6,1,-2,1
14:52:07:725047,0,-5,0,0,-6,-2,1,2
14:52:07:729561,6,-7,3,9,-1,1,-1,-1
14:52:07:737136,6,-7,3,9,-1,1,-1,-1
14:52:07:744565,3,3,-3,-2,-13,-3,2,2
14:52:07:752052,-1,5,-3,-4,-4,-2,-4,-2
14:52:07:760055,-1,5,-3,-4,-4,-2,-4,-2
14:52:07:767098,-9,-28,2,-1,-4,-3,-6,-1
14:52:07:774577,-6,26,0,-1,1,1,5,4
14:52:07:782728,-6,26,0,-1,1,1,5,4
14:52:07:783510,-2,14,24,15,2,0,-2,-3
14:52:07:789636,-5,-7,-3,-9,-3,-4,-1,-3
14:52:07:797073,-5,-7,-3,-9,-3,-4,-1,-3
14:52:07:804517,-8,-4,1,-5,-5,3,0,-2
14:52:07:812019,5,16,-7,-4,-1,-1,-4,-2
14:52:07:820271,5,16,-7,-4,-1,-1,-4,-2
14:52:07:821072,-4,-7,-3,-1,-3,-3,-2,-2
14:52:07:834616,-22,-8,4,4,-4,-3,-5,-1
14:52:07:842774,-22,-8,4,4,-4,-3,-5,-1
14:52:07:843519,12,12,-6,-14,0,-1,-4,-4
14:52:07:849531,4,-4,7,0,0,-1,4,2
14:52:07:857132,4,-4,7,0,0,-1,4,2
14:52:07:864529,1,-11,-13,5,6,1,0,-2
14:52:07:872062,5,-7,3,1,3,2,2,2
14:52:07:880286,5,-7,3,1,3,2,2,2
14:52:07:881067,-2,0,16,7,0,-4,-6,-2
14:52:07:894587,1,2,1,-17,-7,1,-1,-3
14:52:07:902780,1,2,1,-17,-7,1,-1,-3
14:52:07:903591,-8,-13,-6,-6,-2,-2,5,3
14:52:07:909557,0,4,2,6,-6,-6,-11,-9
14:52:07:917123,0,4,2,6,-6,-6,-11,-9
14:52:07:924551,7,7,-2,8,-4,2,0,0
14:52:07:932040,4,-10,-10,1,0,-5,-1,0
14:52:07:940304,4,-10,-10,1,0,-5,-1,0
14:52:07:941103,-12,0,-5,2,1,-1,-4,0
14:52:07:954565,-15,0,-8,-10,-2,0,-1,-2
14:52:07:962808,-15,0,-8,-10,-2,0,-1,-2
14:52:07:963587,2,2,-19,-10,-4,-7,-2,9
14:52:07:977784,5,-2,-2,-8,-7,-6,-1,-2
14:52:07:978565,5,-2,-2,-8,-7,-6,-1,-2
14:52:07:984539,12,-9,-2,-2,1,3,2,0
14:52:07:992025,1,-6,-20,-7,0,2,7,0
14:52:08:298,1,-6,-20,-7,0,2,7,0
14:52:08:1072,6,2,5,-7,-2,8,12,9
14:52:08:14551,0,4,11,15,1,-5,-11,1
14:52:08:22758,0,4,11,15,1,-5,-11,1
14:52:08:23574,-6,11,-16,-5,-5,-3,-2,-6
14:52:08:29556,6,-28,-5,4,0,3,16,2
14:52:08:37110,6,-28,-5,4,0,3,16,2
14:52:08:44540,0,-2,12,1,-10,-6,-5,2
14:52:08:52049,-4,-2,-8,9,7,1,2,-7
14:52:08:60270,-4,-2,-8,9,7,1,2,-7
14:52:08:61089,-3,-6,8,0,6,-5,-5,-5
14:52:08:74527,-29,-12,-2,10,1,-1,9,5
14:52:08:82769,-29,-12,-2,10,1,-1,9,5
14:52:08:83544,-3,11,-1,2,1,0,-6,-7
14:52:08:89564,8,-6,-8,7,2,5,4,6
14:52:08:97135,8,-6,-8,7,2,5,4,6
14:52:08:104543,-8,16,11,-2,2,1,-3,-1
14:52:08:112076,6,6,6,-7,-8,-4,1,-3
14:52:08:120227,6,6,6,-7,-8,-4,1,-3
14:52:08:121066,-8,-5,0,-2,2,7,4,2
14:52:08:134564,-13,-6,2,-4,3,1,-13,-8
14:52:08:142774,-13,-6,2,-4,3,1,-13,-8
14:52:08:143642,-7,5,-2,-1,-3,0,-4,-8
14:52:08:149575,7,1,0,-6,-6,0,-7,0
14:52:08:157081,7,1,0,-6,-6,0,-7,0
14:52:08:164617,1,-13,-10,0,-2,-5,-4,-6
14:52:08:172083,15,-10,-9,-8,-3,-2,-13,-8
14:52:08:180275,15,-10,-9,-8,-3,-2,-13,-8
14:52:08:181075,-4,-8,-5,-2,-1,-1,0,4
14:52:08:194612,10,2,3,3,-1,-4,-10,-4
14:52:08:210949,10,2,3,3,-1,-4,-10,-4
14:52:08:211724,2,-9,0,1,1,2,13,3
14:52:08:212551,-24,-24,-5,-3,-2,-4,1,-5
14:52:08:217157,-24,-24,-5,-3,-2,-4,1,-5
14:52:08:224570,-4,8,3,3,2,3,1,-33
14:52:08:232042,12,5,3,-2,-3,-6,-12,-3
14:52:08:240228,12,5,3,-2,-3,-6,-12,-3
14:52:08:241046,-8,-5,7,2,4,-1,16,8
14:52:08:254547,-6,20,8,-4,-8,0,16,-2
14:52:08:262807,-6,20,8,-4,-8,0,16,-2
14:52:08:263599,18,3,-5,-3,-1,-4,-14,2
14:52:08:269550,8,-4,-9,-2,1,1,0,3
14:52:08:285284,8,-4,-9,-2,1,1,0,3
14:52:08:286080,2,-26,-20,-4,-4,-10,-29,-1
14:52:08:292067,0,7,6,5,6,-1,-5,6
14:52:08:300270,0,7,6,5,6,-1,-5,6
14:52:08:301116,-13,-4,-2,0,-1,5,-5,9
14:52:08:314552,4,-2,-7,-2,-5,3,23,11
14:52:08:330977,4,-2,-7,-2,-5,3,23,11
14:52:08:331714,17,9,3,-1,-1,0,6,6
14:52:08:332537,9,4,8,-1,0,-2,-19,-8
14:52:08:337135,9,4,8,-1,0,-2,-19,-8
14:52:08:344544,-7,-18,-12,-3,-4,-1,3,-8
14:52:08:352080,6,0,1,-1,0,0,1,-1
14:52:08:360282,6,0,1,-1,0,0,1,-1
14:52:08:361099,-6,-18,6,5,8,6,6,-5
14:52:08:374542,-8,-4,-5,-3,-2,-6,-18,-1
14:52:08:382770,-8,-4,-5,-3,-2,-6,-18,-1
14:52:08:383606,3,1,-13,-2,-6,-2,-1,9
14:52:08:389605,7,0,0,-1,1,3,1,5
14:52:08:397146,7,0,0,-1,1,3,1,5
14:52:08:404602,8,10,3,-1,-1,5,23,4
14:52:08:412058,0,10,1,0,-3,-4,-11,-5
14:52:08:420236,0,10,1,0,-3,-4,-11,-5
14:52:08:421030,-1,-15,-6,-3,2,0,0,4
14:52:08:434550,-5,15,5,1,1,5,10,-15
14:52:08:442803,-5,15,5,1,1,5,10,-15
14:52:08:443596,-4,4,6,-5,-7,-15,-15,0
14:52:08:449563,-8,-14,4,2,6,1,-11,8
14:52:08:457122,-8,-14,4,2,6,1,-11,8
14:52:08:464597,-9,7,-1,1,-4,-3,10,-2
14:52:08:472070,-3,3,-2,-5,-5,-2,6,1
14:52:08:480260,-3,3,-2,-5,-5,-2,6,1
14:52:08:481070,2,1,-8,-2,1,1,-3,-4
14:52:08:494558,5,-3,-2,0,-1,1,-1,0
14:52:08:502760,5,-3,-2,0,-1,1,-1,0
14:52:08:503581,-14,9,4,2,2,1,-7,9
14:52:08:509607,-10,-4,-8,0,0,-9,-19,3
14:52:08:517107,-10,-4,-8,0,0,-9,-19,3
14:52:08:524520,13,-5,-18,-6,-8,-2,8,0
14:52:08:532039,-15,-16,-8,-6,-4,-1,-3,-12
14:52:08:540260,-15,-16,-8,-6,-4,-1,-3,-12
14:52:08:541056,-2,-5,5,-1,-2,-2,-10,-8
14:52:08:563391,-1,5,-1,0,-3,-1,16,9
14:52:08:564209,-1,5,-1,0,-3,-1,16,9
14:52:08:565000,-23,8,10,2,0,3,-9,-4
14:52:08:569547,2,5,2,0,3,2,-5,0
14:52:08:577095,2,5,2,0,3,2,-5,0
14:52:08:584533,6,30,7,0,-5,-9,-9,-2
14:52:08:600236,-5,-5,-7,-2,-1,3,23,7
14:52:08:601051,-5,-5,-7,-2,-1,3,23,7
14:52:08:607088,3,2,-8,-1,-5,-1,5,-3
14:52:08:614591,4,-13,-7,-2,0,-3,-10,2
14:52:08:622731,4,-13,-7,-2,0,-3,-10,2
14:52:08:623582,-18,-7,7,-2,-4,-6,-8,-37
14:52:08:637701,11,-1,4,0,2,5,0,-4
14:52:08:638508,11,-1,4,0,2,5,0,-4
14:52:08:644581,5,-6,-5,0,1,-6,-11,7
14:52:08:652050,-1,5,3,1,-2,-3,6,-1
14:52:08:659600,-1,5,3,1,-2,-3,6,-1
14:52:08:667042,5,3,1,0,2,3,-5,9
14:52:08:674573,15,6,-7,-3,-4,-6,-5,15
14:52:08:682770,15,6,-7,-3,-4,-6,-5,15
14:52:08:683525,8,-3,6,1,4,0,-18,-4
14:52:08:705984,-7,-7,0,-2,-3,1,2,-4
14:52:08:706764,-7,-7,0,-2,-3,1,2,-4
14:52:08:707577,-15,-1,-1,-2,-2,0,-14,-2
14:52:08:712070,4,3,7,1,0,1,0,-9
14:52:08:719646,4,3,7,1,0,1,0,-9
14:52:08:727061,-11,-4,-2,-2,1,-1,0,0
14:52:08:734552,-3,-19,-8,-2,-3,-3,-8,4
14:52:08:750277,-3,-19,-8,-2,-3,-3,-8,4
14:52:08:751100,1,3,1,1,-3,-3,-4,-7
14:52:08:757713,4,-1,4,-1,-1,-3,-13,-6
14:52:08:758599,4,-1,4,-1,-1,-3,-13,-6
14:52:08:764617,8,-7,-5,-1,0,-1,-1,11
14:52:08:772116,-4,4,4,2,4,-2,-6,-21
14:52:08:779590,-4,4,4,2,4,-2,-6,-21
14:52:08:795258,2,-3,-4,0,-1,-4,27,-3
14:52:08:796042,-2,-4,7,-1,-3,4,22,6
14:52:08:802756,-2,-4,7,-1,-3,4,22,6
14:52:08:803580,15,8,3,-1,0,3,2,3
14:52:08:817771,-41,-22,-7,-5,-4,-6,-2,7
14:52:08:818607,-41,-22,-7,-5,-4,-6,-2,7
14:52:08:824574,5,-4,-4,2,3,9,23,11
14:52:08:832096,9,10,4,0,0,-2,-5,-2
14:52:08:839622,9,10,4,0,0,-2,-5,-2
14:52:08:847095,-13,-9,-3,-4,-5,-10,-16,-21
14:52:08:854590,-2,31,10,1,2,1,-6,3
14:52:08:862763,-2,31,10,1,2,1,-6,3
14:52:08:863528,3,22,12,-1,0,0,-9,2
14:52:08:877736,-18,-3,-6,-1,-9,-8,0,-12
14:52:08:878558,-18,-3,-6,-1,-9,-8,0,-12
14:52:08:884601,-14,0,3,-1,4,11,29,-3
14:52:08:892084,20,-13,-3,-1,0,-1,2,-1
14:52:08:899620,20,-13,-3,-1,0,-1,2,-1
14:52:08:907057,7,-14,-6,-3,-3,-2,7,6
14:52:08:914520,1,4,-7,-1,-1,0,6,-8
14:52:08:922765,1,4,-7,-1,-1,0,6,-8
14:52:08:923526,-16,-10,-2,-3,-4,-8,-14,-3
14:52:08:937742,8,5,3,1,3,5,-16,7
14:52:08:938590,8,5,3,1,3,5,-16,7
14:52:08:944540,8,-7,-7,0,-1,-3,-9,-3
14:52:08:952073,-5,-4,6,-1,2,-8,-12,5
14:52:08:959611,-5,-4,6,-1,2,-8,-12,5
14:52:08:967064,4,-2,-4,0,0,0,4,6
14:52:08:974536,35,-13,-11,-1,2,7,13,7
14:52:08:990268,35,-13,-11,-1,2,7,13,7
14:52:08:991075,-19,-5,-2,1,0,0,-13,-10
14:52:08:997747,-10,14,0,1,-2,-3,-19,-22
14:52:08:998604,-10,14,0,1,-2,-3,-19,-22
14:52:09:4549,10,4,-8,-1,-2,3,20,7
14:52:09:12061,-6,4,2,-1,2,0,-8,3
14:52:09:19663,-6,4,2,-1,2,0,-8,3
14:52:09:27057,-3,-3,1,-3,-9,-6,-16,-11
14:52:09:34560,12,17,-5,1,5,3,3,-7
14:52:09:42801,12,17,-5,1,5,3,3,-7
14:52:09:43604,14,-4,-9,-1,-2,-2,-3,-2
14:52:09:57800,16,-10,-3,-5,-8,-4,0,10
14:52:09:58603,16,-10,-3,-5,-8,-4,0,10
14:52:09:64549,-3,-7,-3,-4,0,6,15,2
14:52:09:72076,-14,-6,-3,-2,0,-1,5,-3
14:52:09:79678,-14,-6,-3,-2,0,-1,5,-3
14:52:09:87045,0,-12,-2,-1,-1,-3,3,1
14:52:09:94560,-5,-8,-9,-1,-4,-3,-4,2
14:52:09:102768,-5,-8,-9,-1,-4,-3,-4,2
14:52:09:103518,-6,0,1,-1,0,-3,-11,-1
14:52:09:117757,-16,-10,1,-1,1,1,6,-4
14:52:09:118546,-16,-10,1,-1,1,1,6,-4
14:52:09:124549,-4,3,0,0,0,-8,-21,-2
14:52:09:132064,-4,18,-1,0,-1,1,-2,-2
14:52:09:139601,-4,18,-1,0,-1,1,-2,-2
14:52:09:147090,-6,5,5,0,-3,1,-8,-34
14:52:09:154549,-26,-6,0,-2,-2,-5,9,-7
14:52:09:162724,-26,-6,0,-2,-2,-5,9,-7
14:52:09:163533,-4,11,0,-1,0,-1,2,17
14:52:09:177728,-2,-6,-3,0,0,-2,-7,-5
14:52:09:178555,-2,-6,-3,0,0,-2,-7,-5
14:52:09:184594,-9,3,-3,-2,0,-3,3,-2
14:52:09:192090,7,-5,2,2,2,5,8,4
14:52:09:199659,7,-5,2,2,2,5,8,4
14:52:09:207061,15,7,3,1,0,-8,-19,8
14:52:09:214547,5,1,1,-2,-6,-6,9,10
14:52:09:222762,5,1,1,-2,-6,-6,9,10
14:52:09:223616,8,-4,4,-1,5,8,17,8
14:52:09:237749,1,1,0,-1,-1,-4,-9,-2
14:52:09:238591,1,1,0,-1,-1,-4,-9,-2
14:52:09:244543,-4,-8,-5,-2,-2,-3,5,11
14:52:09:252027,0,1,4,0,0,4,16,-2
14:52:09:259615,0,1,4,0,0,4,16,-2
14:52:09:267027,-13,-1,2,0,2,2,11,1
14:52:09:274554,4,8,-1,-2,-5,-1,14,-21
14:52:09:282773,4,8,-1,-2,-5,-1,14,-21
14:52:09:283598,6,-3,-4,-2,-1,-3,-7,-4
14:52:09:297741,1,-3,-2,-3,0,0,-12,2
14:52:09:298572,1,-3,-2,-3,0,0,-12,2
14:52:09:304528,-2,3,0,-1,-4,-2,-4,-22
14:52:09:312050,6,-1,2,-2,-4,-4,-6,11
14:52:09:319597,6,-1,2,-2,-4,-4,-6,11
14:52:09:327111,-1,1,-1,-1,1,5,9,17
14:52:09:334585,-12,-8,-5,-4,-2,-5,-24,-33
14:52:09:342771,-12,-8,-5,-4,-2,-5,-24,-33
14:52:09:343578,-2,-1,-3,1,-8,-4,-2,-15
14:52:09:357769,9,-6,-3,-1,1,4,3,22
14:52:09:358608,9,-6,-3,-1,1,4,3,22
14:52:09:364610,-1,-17,-3,-2,-1,-1,-2,-3
14:52:09:372052,-1,7,7,1,-1,2,9,11
14:52:09:379606,-1,7,7,1,-1,2,9,11
14:52:09:387099,8,9,1,0,1,1,-1,15
14:52:09:394564,-19,-8,-4,-1,-3,0,-6,-1
14:52:09:402773,-19,-8,-4,-1,-3,0,-6,-1
14:52:09:403516,-1,-1,3,1,0,2,6,2
14:52:09:417711,4,2,-4,4,-1,-12,-27,5
14:52:09:418527,4,2,-4,4,-1,-12,-27,5
14:52:09:424581,-7,3,-4,-2,-1,-3,-6,-3
14:52:09:432090,1,0,-2,0,3,4,7,15
14:52:09:439575,1,0,-2,0,3,4,7,15
14:52:09:447097,25,26,0,-2,-5,-4,-7,6
14:52:09:454572,-7,2,0,-3,-8,-2,10,8
14:52:09:462769,-7,2,0,-3,-8,-2,10,8
14:52:09:463582,-3,-3,-3,-1,10,8,4,-1
14:52:09:477739,-8,-9,-3,-2,-3,-5,-9,-4
14:52:09:478582,-8,-9,-3,-2,-3,-5,-9,-4
14:52:09:484525,-9,-9,3,2,-4,-3,0,-5
14:52:09:492059,-3,-5,-1,-1,0,-1,1,-12
14:52:09:499646,-3,-5,-1,-1,0,-1,1,-12
14:52:09:507049,2,1,-3,1,5,6,-2,4
14:52:09:514526,8,1,-5,-1,-1,-1,9,-10
14:52:09:522814,8,1,-5,-1,-1,-1,9,-10
14:52:09:523592,-8,-12,5,0,-3,-3,5,7
14:52:09:537758,23,-7,-2,-1,1,7,6,-1
14:52:09:538546,23,-7,-2,-1,1,7,6,-1
14:52:09:544526,-2,2,1,-3,-4,-4,-4,-7
14:52:09:560277,-6,6,2,-2,-2,-1,1,-3
14:52:09:561050,-6,6,2,-2,-2,-1,1,-3
14:52:09:567008,1,-2,-3,-3,-4,0,-1,-5
14:52:09:574575,-5,6,4,1,0,5,5,-9
14:52:09:582094,-5,6,4,1,0,5,5,-9
14:52:09:589558,-6,-1,-2,-1,1,-3,-12,-4
14:52:09:597795,16,-1,3,-1,-3,0,-1,-6
14:52:09:598579,16,-1,3,-1,-3,0,-1,-6
14:52:09:604539,-7,0,11,7,-2,-4,-6,-10
14:52:09:620241,-4,-3,-3,2,2,0,-2,-1
14:52:09:621050,-4,-3,-3,2,2,0,-2,-1
14:52:09:627055,2,13,-9,-1,1,4,-5,-8
14:52:09:634543,-26,-8,-4,0,-2,-7,-2,-23
14:52:09:642116,-26,-8,-4,0,-2,-7,-2,-23
14:52:09:649549,-8,1,2,-5,-6,0,8,2
14:52:09:657800,-5,9,-2,-1,0,2,5,4
14:52:09:658604,-5,9,-2,-1,0,2,5,4
14:52:09:664576,-2,-12,-7,-1,0,-4,0,-3
14:52:09:680275,10,-1,-4,-1,0,-6,-8,5
14:52:09:681089,10,-1,-4,-1,0,-6,-8,5
14:52:09:687071,-3,-9,-15,-21,-3,0,-2,-1
14:52:09:694552,-5,-8,8,1,-2,0,1,2
14:52:09:702140,-5,-8,8,1,-2,0,1,2
14:52:09:718425,2,-10,-4,1,-3,-5,2,-4
14:52:09:719204,2,-2,-2,-5,1,0,-7,-7
14:52:09:720017,2,-2,-2,-5,1,0,-7,-7
14:52:09:724555,-3,13,1,2,-1,-4,-4,1
14:52:09:740259,3,-4,-5,0,-1,-2,1,8
14:52:09:741085,3,-4,-5,0,-1,-2,1,8
14:52:09:747073,0,2,4,0,-1,-1,-1,8
14:52:09:754543,-11,-9,-5,-3,-1,-1,-3,-2
14:52:09:762155,-11,-9,-5,-3,-1,-1,-3,-2
14:52:09:769564,11,7,4,4,-3,-3,-4,5
14:52:09:777805,1,3,0,1,2,0,-2,4
14:52:09:778626,1,3,0,1,2,0,-2,4
14:52:09:784585,5,-1,8,2,1,-1,5,2
14:52:09:800263,-3,-26,-16,-8,-1,0,1,0
14:52:09:801087,-3,-26,-16,-8,-1,0,1,0
14:52:09:807061,-23,-11,-4,-1,-1,0,-8,-7
14:52:09:814521,0,12,7,1,-1,0,0,-3
14:52:09:822101,0,12,7,1,-1,0,0,-3
14:52:09:829547,6,-10,-6,7,0,-1,4,2
14:52:09:837697,-8,-20,0,3,-1,-2,-3,4
14:52:09:838518,-8,-20,0,3,-1,-2,-3,4
14:52:09:844592,-2,-1,-9,-3,-1,3,0,-2
14:52:09:860261,4,8,-5,-4,-3,-1,0,-1
14:52:09:861106,4,8,-5,-4,-3,-1,0,-1
14:52:09:867057,1,4,3,1,2,1,-1,-3
14:52:09:874565,-6,5,5,-1,0,-2,-4,-14
14:52:09:882101,-6,5,5,-1,0,-2,-4,-14
14:52:09:889565,1,2,1,-3,-3,-5,-4,-10
14:52:09:897725,3,-1,-5,0,1,-4,-2,1
14:52:09:898548,3,-1,-5,0,1,-4,-2,1
14:52:09:904568,-1,3,3,1,-1,-2,-3,1
14:52:09:920240,-3,10,8,4,1,1,-1,4
14:52:09:921053,-3,10,8,4,1,1,-1,4
14:52:09:927076,4,-9,-14,-5,0,0,-6,8
14:52:09:942804,-11,-2,0,-2,-2,-1,-6,2
14:52:09:943597,-11,-2,0,-2,-2,-1,-6,2
14:52:09:949600,2,7,6,-2,-3,-4,-1,3
14:52:09:957717,5,-2,-2,0,-2,-3,-5,0
14:52:09:958561,5,-2,-2,0,-2,-3,-5,0
14:52:09:964586,-1,-17,1,-2,0,0,2,13
14:52:09:980266,5,6,-2,-1,0,-1,5,5
14:52:09:981101,5,6,-2,-1,0,-1,5,5
14:52:09:995224,-6,2,1,-3,-2,0,7,-4
14:52:09:996025,-8,4,4,-4,-2,3,13,1
14:52:10:2136,-8,4,4,-4,-2,3,13,1
14:52:10:9570,3,-3,8,0,-2,-1,1,-9
14:52:10:17766,6,14,1,-3,0,-1,-8,-3
14:52:10:18590,6,14,1,-3,0,-1,-8,-3
14:52:10:24605,8,-7,-10,-3,-3,-1,4,1
14:52:10:40276,3,-4,-3,-1,-2,1,-1,3
14:52:10:41093,3,-4,-3,-1,-2,1,-1,3
14:52:10:47053,-9,-15,-2,2,2,0,-2,1
14:52:10:54570,4,-1,-4,-1,-1,2,2,6
14:52:10:62135,4,-1,-4,-1,-1,2,2,6
14:52:10:69585,-21,-9,-19,-1,-1,3,5,-2
14:52:10:77731,-5,-24,-10,-3,-2,-5,-6,-4
14:52:10:78543,-5,-24,-10,-3,-2,-5,-6,-4
14:52:10:84573,7,7,2,-4,1,-1,1,-4
14:52:10:100248,-2,-12,5,5,0,0,-1,-1
14:52:10:101056,-2,-12,5,5,0,0,-1,-1
14:52:10:107078,1,-7,-16,-16,-1,-2,-8,0
14:52:10:114564,4,13,3,-2,-5,-3,0,-2
14:52:10:122071,4,13,3,-2,-5,-3,0,-2
14:52:10:129565,-6,4,7,1,-1,-5,-7,-5
14:52:10:137736,-3,2,-3,-2,1,-4,-6,-2
14:52:10:138579,-3,2,-3,-2,1,-4,-6,-2
14:52:10:144506,5,5,3,3,-1,-2,0,0
14:52:10:160251,-3,0,0,0,0,0,3,2
14:52:10:161057,-3,0,0,0,0,0,3,2
14:52:10:167038,9,6,3,4,-1,-1,0,10
14:52:10:174593,-3,5,-13,-21,-3,-3,-2,-1
14:52:10:182090,-3,5,-13,-21,-3,-3,-2,-1
14:52:10:189510,0,3,2,1,0,0,-3,-4
14:52:10:197753,-6,3,2,3,-3,-3,-1,-4
14:52:10:198562,-6,3,2,3,-3,-3,-1,-4
14:52:10:204544,7,-1,0,0,-1,-2,-1,-5
14:52:10:220271,-3,-16,-15,0,0,1,-3,-15
14:52:10:221069,-3,-16,-15,0,0,1,-3,-15
14:52:10:227034,3,-12,3,2,-2,-1,-1,-2
14:52:10:234527,3,11,2,0,-1,0,-4,1
14:52:10:242104,3,11,2,0,-1,0,-4,1
14:52:10:249556,1,13,6,-1,-3,-2,2,-3
14:52:10:257804,-4,-1,5,4,-1,0,11,1
14:52:10:258627,-4,-1,5,4,-1,0,11,1
14:52:10:272065,-9,2,0,-1,-2,0,2,-3
14:52:10:280271,1,2,3,1,-1,-1,-2,1
14:52:10:281075,1,2,3,1,-1,-1,-2,1
14:52:10:287088,-1,-6,-1,-1,0,-3,-6,-1
14:52:10:294556,3,-1,-1,1,1,0,-3,1
14:52:10:302138,3,-1,-1,1,1,0,-3,1
14:52:10:309577,-6,-4,-6,-2,-1,0,0,-1
14:52:10:317738,-8,6,6,-1,-3,-1,1,2
14:52:10:318557,-8,6,6,-1,-3,-1,1,2
14:52:10:324593,0,2,1,-1,-2,1,1,0
14:52:10:340271,0,-1,0,-2,-1,1,20,2
14:52:10:341080,0,-1,0,-2,-1,1,20,2
14:52:10:347039,0,9,3,1,-2,-3,-2,-4
14:52:10:354529,0,-6,-4,-5,-3,-2,-7,-2
14:52:10:362120,0,-6,-4,-5,-3,-2,-7,-2
14:52:10:369567,1,-2,-1,-2,0,-1,-4,-3
14:52:10:377728,1,9,1,1,-1,-3,-8,-5
14:52:10:378545,1,9,1,1,-1,-3,-8,-5
14:52:10:384567,0,-2,-3,1,-2,-3,-1,-1
14:52:10:400225,-4,3,1,-1,-1,-1,-3,1
14:52:10:401041,-4,3,1,-1,-1,-1,-3,1
14:52:10:407096,-2,-2,-3,-1,1,2,0,2
14:52:10:414567,6,3,0,-1,-1,-1,-6,1
14:52:10:422072,6,3,0,-1,-1,-1,-6,1
14:52:10:429584,-4,-6,-5,-2,-2,-2,-5,-2
14:52:10:437721,0,-3,2,2,-1,-1,-2,6
14:52:10:438590,0,-3,2,2,-1,-1,-2,6
14:52:10:444517,-2,-2,-7,-9,-1,-2,-7,-2
14:52:10:468441,-5,-7,-1,0,-2,0,6,-3
14:52:10:469248,-5,-7,-1,0,-2,0,6,-3
14:52:10:470075,2,-3,0,-1,-2,-1,-3,6
14:52:10:482799,2,-3,0,-1,-2,-1,-3,6
14:52:10:483597,1,-9,3,4,0,-1,-4,1
14:52:10:489554,-4,0,-1,0,1,3,9,5
14:52:10:497804,-4,0,-1,0,1,3,9,5
14:52:10:498586,-4,-4,3,-3,-2,-2,-7,-8
14:52:10:520946,-2,-3,-3,1,-1,-1,-3,-2
14:52:10:521742,-2,-3,-3,1,-1,-1,-3,-2
14:52:10:522515,-3,-21,-7,-1,-1,-2,14,0
14:52:10:526999,0,-7,0,2,1,2,5,-4
14:52:10:542777,0,-7,0,2,1,2,5,-4
14:52:10:543544,-1,-6,-8,-3,-2,-2,-4,1
14:52:10:549520,1,-4,-2,0,-3,2,4,-2
14:52:10:557749,1,-4,-2,0,-3,2,4,-2
14:52:10:558567,-1,6,-3,-3,0,0,-7,-3
14:52:10:572074,-5,4,3,0,0,-4,-7,11
14:52:10:580253,-5,4,3,0,0,-4,-7,11
14:52:10:581043,0,4,5,0,-1,0,-9,2
14:52:10:587072,1,2,0,0,-1,-1,-2,0
14:52:10:602815,1,2,0,0,-1,-1,-2,0
14:52:10:603537,1,-16,-1,-1,-3,-2,-11,-7
14:52:10:609588,-1,1,-1,-2,-3,-5,-6,-4
14:52:10:617765,-1,1,-1,-2,-3,-5,-6,-4
14:52:10:618541,1,3,-4,-1,2,-4,-8,-4
14:52:10:632069,-2,-4,-3,-3,-3,2,11,-6
14:52:10:640307,-2,-4,-3,-3,-3,2,11,-6
14:52:10:641062,1,17,7,2,2,1,1,5
14:52:10:647082,4,4,0,1,0,1,-8,-8
14:52:10:662846,4,4,0,1,0,1,-8,-8
14:52:10:663630,1,-1,-7,-2,0,2,5,9
14:52:10:669585,2,-4,-3,-1,-1,0,-5,2
14:52:10:677803,2,-4,-3,-1,-1,0,-5,2
14:52:10:678545,2,-1,-2,-2,-1,-2,-5,1
14:52:10:692059,-3,-1,-2,-2,-2,-5,-2,-3
14:52:10:700243,-3,-1,-2,-2,-2,-5,-2,-3
14:52:10:701057,3,6,-3,-1,-1,-3,-3,0
14:52:10:707067,2,6,3,-1,-1,-3,1,-4
14:52:10:722788,2,6,3,-1,-1,-3,1,-4
14:52:10:723627,0,-19,-2,-1,1,-2,-10,-8
14:52:10:729557,-3,-1,3,-1,-2,-1,-10,-1
14:52:10:737603,-3,-1,3,-1,-2,-1,-10,-1
14:52:10:744580,-3,-3,-2,-1,-3,-1,7,-2
14:52:10:752112,3,-3,0,-1,-1,2,9,1
14:52:10:760293,3,-3,0,-1,-1,2,9,1
14:52:10:761045,-10,3,8,-1,-4,1,-2,-21
14:52:10:774570,0,17,4,-1,0,-1,4,3
14:52:10:782756,0,17,4,-1,0,-1,4,3
14:52:10:783575,-6,-3,-3,1,-1,0,7,4
14:52:10:789577,0,-6,-6,-1,0,6,3,0
14:52:10:797776,0,-6,-6,-1,0,6,3,0
14:52:10:798571,0,-3,-4,-1,-3,-1,7,4
14:52:10:820896,-1,-10,-6,-1,0,-3,-5,2
14:52:10:821723,-1,-10,-6,-1,0,-3,-5,2
14:52:10:822577,5,-2,-4,0,-2,-5,-8,-8
14:52:10:834552,-5,-6,-2,-1,2,-4,-14,-3
14:52:10:842757,-5,-6,-2,-1,2,-4,-14,-3
14:52:10:843633,-1,1,-11,-1,-1,2,9,1
14:52:10:849599,2,-4,-3,0,0,1,-3,-6
14:52:10:857781,2,-4,-3,0,0,1,-3,-6
14:52:10:858567,-1,5,4,0,1,-3,-7,0
14:52:10:872047,2,-6,-1,-2,-3,-4,-12,5
14:52:10:880280,2,-6,-1,-2,-3,-4,-12,5
14:52:10:881072,1,-12,-3,-3,-3,-5,-1,2
14:52:10:887086,-3,-6,-1,0,-1,-4,-5,5
14:52:10:902772,-3,-6,-1,0,-1,-4,-5,5
14:52:10:903605,-3,-11,-1,0,-2,-2,0,-2
14:52:10:909542,-2,-1,0,-1,-2,2,7,-1
14:52:10:917817,-2,-1,0,-1,-2,2,7,-1
14:52:10:918578,5,14,4,-1,1,0,-7,0
14:52:10:932045,-5,-8,-8,-3,-4,-7,4,-7
14:52:10:940255,-5,-8,-8,-3,-4,-7,4,-7
14:52:10:941100,-2,4,1,-2,0,0,-5,7
14:52:10:947061,-4,6,2,0,-1,1,13,0
14:52:10:962761,-4,6,2,0,-1,1,13,0
14:52:10:963524,0,5,0,0,0,1,-6,0
14:52:10:969572,-8,-4,-1,-1,2,-1,-7,-4
14:52:10:977768,-8,-4,-1,-1,2,-1,-7,-4
14:52:10:978611,-4,4,3,-1,0,3,11,0
14:52:10:992095,-1,10,1,-4,-2,-7,-4,-3
14:52:11:8500,-1,10,1,-4,-2,-7,-4,-3
14:52:11:9269,-2,-1,-2,-3,-1,0,-12,-5
14:52:11:10078,6,1,0,-1,0,5,7,5
14:52:11:22818,6,1,0,-1,0,5,7,5
14:52:11:23572,-6,-14,-4,1,-1,1,2,-5
14:52:11:29559,-3,0,-10,-1,-2,-1,-7,-4
14:52:11:37740,-3,0,-10,-1,-2,-1,-7,-4
14:52:11:38530,-4,2,0,-1,1,3,4,-29
14:52:11:52067,-3,-5,0,-3,-6,-5,-10,4
14:52:11:60297,-3,-5,0,-3,-6,-5,-10,4
14:52:11:61069,-1,2,-1,0,2,0,5,-2
14:52:11:67043,-1,-3,2,-1,-2,3,8,3
14:52:11:82798,-1,-3,2,-1,-2,3,8,3
14:52:11:83628,-8,-2,-1,-4,-4,-3,-11,7
14:52:11:89545,-2,3,0,0,3,5,13,0
14:52:11:97780,-2,3,0,0,3,5,13,0
14:52:11:98583,3,0,-5,-1,-2,-2,0,4
14:52:11:112033,-2,0,2,0,3,1,5,-4
14:52:11:120285,-2,0,2,0,3,1,5,-4
14:52:11:121067,-3,-1,-1,-1,1,-3,-7,-2
14:52:11:127054,-2,-2,-1,0,-1,0,3,1
14:52:11:142507,-2,-2,-1,0,-1,0,3,1
14:52:11:150223,2,6,0,-1,-2,-1,3,7
14:52:11:150989,-2,-4,-1,-2,-2,-4,0,4
14:52:11:157778,-2,-4,-1,-2,-2,-4,0,4
14:52:11:158568,-1,-10,-1,-1,-2,2,3,-1
14:52:11:172031,2,1,-2,1,2,1,-11,-3
14:52:11:180324,2,1,-2,1,2,1,-11,-3
14:52:11:181089,0,11,2,0,0,2,3,1
14:52:11:187082,6,-4,-1,-1,-2,0,-10,-1
14:52:11:202765,6,-4,-1,-1,-2,0,-10,-1
14:52:11:203611,-3,-1,-8,-2,-5,-3,-1,-2
14:52:11:209558,-3,-1,1,0,-2,-4,-16,-4
14:52:11:217785,-3,-1,1,0,-2,-4,-16,-4
14:52:11:218554,2,-2,0,-1,0,-10,-10,4
14:52:11:232065,-2,0,0,1,1,-2,16,3
14:52:11:240269,-2,0,0,1,1,-2,16,3
14:52:11:241099,-2,1,1,1,2,1,-13,10
14:52:11:254596,2,6,-2,-3,-12,-9,-5,-2
14:52:11:262761,2,6,-2,-3,-12,-9,-5,-2
14:52:11:263576,-9,-8,7,-1,5,5,11,-5
14:52:11:269554,-7,3,-7,-4,-3,1,6,-5
14:52:11:277510,-7,3,-7,-4,-3,1,6,-5
14:52:11:284548,1,5,-1,-3,-6,-9,4,1
14:52:11:292030,-1,8,0,0,3,2,2,-2
14:52:11:300287,-1,8,0,0,3,2,2,-2
14:52:11:301075,1,-5,-1,0,1,1,-1,-2
14:52:11:307057,0,0,6,2,3,1,-11,-3
14:52:11:330924,0,0,6,2,3,1,-11,-3
14:52:11:331703,2,0,-2,-2,-4,-3,6,0
14:52:11:332487,-1,-3,1,-2,-6,1,-6,1
14:52:11:345315,-1,-3,1,-2,-6,1,-6,1
14:52:11:346125,-8,-5,-3,-1,-2,5,-2,-1
14:52:11:352086,-2,-15,-15,-3,0,-1,4,-4
14:52:11:360223,-2,-15,-15,-3,0,-1,4,-4
14:52:11:361041,4,-1,0,0,1,-1,-6,7
14:52:11:367127,0,-4,1,1,-1,-4,1,-9
14:52:11:382813,0,-4,1,1,-1,-4,1,-9
14:52:11:383611,-3,7,5,-2,4,-1,-17,-8
14:52:11:389547,0,-1,3,-2,-5,-9,-12,-1
14:52:11:397757,0,-1,3,-2,-5,-9,-12,-1
14:52:11:398544,7,4,1,0,5,0,12,2
14:52:11:412084,-4,-5,6,-1,1,1,15,-4
14:52:11:420300,-4,-5,6,-1,1,1,15,-4
14:52:11:421113,0,-6,-3,-2,-6,-7,-12,-2
14:52:11:427050,-1,-3,-3,-1,2,2,-10,-2
14:52:11:442784,-1,-3,-3,-1,2,2,-10,-2
14:52:11:443579,-2,-5,-15,-3,-4,0,-7,-6
14:52:11:449591,-5,-19,-4,0,-1,-1,3,1
14:52:11:457149,-5,-19,-4,0,-1,-1,3,1
14:52:11:464571,-5,-4,-3,-4,-6,-2,0,-12
14:52:11:472066,3,4,2,0,6,2,-1,0
14:52:11:480245,3,4,2,0,6,2,-1,0
14:52:11:481061,6,1,3,0,-1,-1,8,3
14:52:11:494580,-2,6,2,-3,-3,-4,-13,1
14:52:11:502747,-2,6,2,-3,-3,-4,-13,1
14:52:11:503520,-18,5,-1,-1,-1,-1,2,-2
14:52:11:509558,1,6,-5,-2,-1,-4,-8,-4
14:52:11:517110,1,6,-5,-2,-1,-4,-8,-4
14:52:11:524552,1,-3,-4,0,0,0,-2,5
14:52:11:532098,-1,-4,1,0,-2,4,8,5
14:52:11:540273,-1,-4,1,0,-2,4,8,5
14:52:11:541061,2,-5,0,-1,0,4,13,0
14:52:11:554567,1,-5,-2,2,1,-3,-1,-8
14:52:11:562742,1,-5,-2,2,1,-3,-1,-8
14:52:11:563606,4,-1,-1,-2,-5,-3,-5,1
14:52:11:569600,5,5,0,1,-2,3,20,12
14:52:11:577109,5,5,0,1,-2,3,20,12
14:52:11:584557,6,-16,0,1,1,2,2,3
14:52:11:592054,-10,-9,-6,-3,-6,-1,1,-6
14:52:11:600269,-10,-9,-6,-3,-6,-1,1,-6
14:52:11:601079,8,12,0,3,2,-1,10,3
14:52:11:623379,4,3,-8,0,0,-7,-14,-5
14:52:11:624203,4,3,-8,0,0,-7,-14,-5
14:52:11:624995,-4,5,-5,-3,-5,-3,25,1
14:52:11:629586,-6,-12,5,-1,2,0,-6,0
14:52:11:637129,-6,-12,5,-1,2,0,-6,0
14:52:11:644565,4,-2,8,-4,-4,-3,-10,1
14:52:11:652136,-1,8,7,1,2,5,9,-1
14:52:11:660265,-1,8,7,1,2,5,9,-1
14:52:11:661054,-3,16,6,2,-3,0,7,5
14:52:11:674551,-2,2,-2,-3,0,-2,-15,2
14:52:11:682748,-2,2,-2,-3,0,-2,-15,2
14:52:11:683532,-3,1,0,-1,3,-2,-2,-8
14:52:11:689564,-9,-4,1,-2,-5,0,23,-6
14:52:11:697134,-9,-4,1,-2,-5,0,23,-6
14:52:11:704540,6,-2,-3,1,2,-3,-20,0
14:52:11:712040,2,2,1,-1,-2,0,-9,-2
14:52:11:720270,2,2,1,-1,-2,0,-9,-2
14:52:11:721103,-1,-8,-19,-3,-3,-4,2,0
14:52:11:734536,1,-5,-4,-2,-4,-4,-1,4
14:52:11:742756,1,-5,-4,-2,-4,-4,-1,4
14:52:11:743574,3,6,4,3,5,0,-11,2
14:52:11:749527,-6,-13,-5,-4,0,-2,-8,-15
14:52:11:757139,-6,-13,-5,-4,0,-2,-8,-15
14:52:11:764564,2,-5,-2,-2,-3,0,2,-6
14:52:11:772035,0,-8,0,1,-1,-3,-15,-10
14:52:11:780296,0,-8,0,1,-1,-3,-15,-10
14:52:11:781098,0,-2,0,-1,5,0,1,3
14:52:11:794545,-4,7,2,-1,-2,-2,1,5
14:52:11:802796,-4,7,2,-1,-2,-2,1,5
14:52:11:803570,-6,-5,-1,-2,0,1,-20,-5
14:52:11:809547,2,-6,3,-2,-2,1,1,4
14:52:11:817107,2,-6,3,-2,-2,1,1,4
14:52:11:824574,-14,1,3,-1,-8,-4,5,-2
14:52:11:832079,-2,11,-2,3,3,1,11,4
14:52:11:840240,-2,11,-2,3,3,1,11,4
14:52:11:841024,1,-11,-3,-2,-1,4,1,-8
14:52:11:854530,3,10,5,-4,-3,3,-2,1
14:52:11:862792,3,10,5,-4,-3,3,-2,1
14:52:11:863623,0,-5,0,0,-7,1,11,-3
14:52:11:869579,-2,-9,-1,1,4,0,-2,0
14:52:11:877102,-2,-9,-1,1,4,0,-2,0
14:52:11:884558,-1,-3,9,0,3,-1,-11,-2
14:52:11:892080,1,11,5,-2,-2,-1,3,-1
14:52:11:900241,1,11,5,-2,-2,-1,3,-1
14:52:11:901098,-3,-5,-8,-1,3,2,16,-2
14:52:11:914596,4,-18,-6,-2,1,3,14,4
14:52:11:922762,4,-18,-6,-2,1,3,14,4
14:52:11:923512,0,16,4,-2,-2,-4,-7,-2
14:52:11:929577,-6,11,-2,-3,-6,-6,9,-3
14:52:11:937099,-6,11,-2,-3,-6,-6,9,-3
14:52:11:944523,-5,-4,7,1,0,-4,0,-1
14:52:11:952000,-3,-4,-6,5,2,0,-15,-1
14:52:11:960297,-3,-4,-6,5,2,0,-15,-1
14:52:11:961059,-5,11,-6,-1,-4,-9,-8,-7
14:52:11:974583,2,8,-1,-7,0,2,-9,0
14:52:11:982750,2,8,-1,-7,0,2,-9,0
14:52:11:983544,7,-4,-6,-5,-6,-1,1,10
14:52:11:989556,0,4,1,1,0,-1,-12,-6
14:52:11:997150,0,4,1,1,0,-1,-12,-6
14:52:12:4576,-7,-24,-9,-4,-1,0,-3,-4
14:52:12:12057,1,1,-2,-1,-2,-2,-1,8
14:52:12:20282,1,1,-2,-1,-2,-2,-1,8
14:52:12:21067,-1,11,-5,1,2,1,-2,-3
14:52:12:34541,0,2,3,-1,-3,-2,16,3
14:52:12:42801,0,2,3,-1,-3,-2,16,3
14:52:12:43585,5,9,0,-1,-2,3,11,-2
14:52:12:49547,5,1,-3,-1,-2,-4,4,2
14:52:12:57155,5,1,-3,-1,-2,-4,4,2
14:52:12:72720,1,8,6,2,4,2,-3,5
14:52:12:73531,-2,-5,13,4,-3,-4,-5,-10
14:52:12:80263,-2,-5,13,4,-3,-4,-5,-10
14:52:12:81058,-10,-8,0,1,-1,-1,-7,1
14:52:12:94619,-5,1,-7,-2,3,-2,-3,-4
14:52:12:102782,-5,1,-7,-2,3,-2,-3,-4
14:52:12:103566,-16,-1,5,-1,-3,-4,-12,-18
14:52:12:109541,0,9,-2,2,-2,1,-3,-3
14:52:12:117132,0,9,-2,2,-2,1,-3,-3
14:52:12:124590,2,-18,-7,-2,-3,-3,1,4
14:52:12:132033,3,7,8,-5,-1,-4,-6,-3
14:52:12:140292,3,7,8,-5,-1,-4,-6,-3
14:52:12:141081,-14,-12,9,-5,-4,-4,-2,0
14:52:12:154546,-11,-18,-13,-19,-1,2,0,0
14:52:12:162757,-11,-18,-13,-19,-1,2,0,0
14:52:12:163576,3,-4,-2,1,1,2,0,2
14:52:12:169559,-7,5,-4,6,0,-1,-1,-1
14:52:12:177126,-7,5,-4,6,0,-1,-1,-1
14:52:12:184563,9,7,4,0,-4,-2,-5,9
14:52:12:192079,12,-3,-10,1,-1,-3,-5,-4
14:52:12:200300,12,-3,-10,1,-1,-3,-5,-4
14:52:12:201093,7,3,-9,9,2,1,0,1
14:52:12:214553,8,-16,-8,0,-1,-1,3,3
14:52:12:222804,8,-16,-8,0,-1,-1,3,3
14:52:12:223605,-3,-8,1,0,-3,1,2,-4
14:52:12:229550,-6,-27,-7,0,2,0,-2,-1
14:52:12:237152,-6,-27,-7,0,2,0,-2,-1
14:52:12:244588,7,-6,-7,0,-1,-2,-1,5
14:52:12:252073,-6,10,9,5,-3,-2,-3,-6
14:52:12:260267,-6,10,9,5,-3,-2,-3,-6
14:52:12:261054,0,8,1,2,2,-1,3,0
14:52:12:274597,-5,8,-5,-4,2,-1,0,-1
14:52:12:282829,-5,8,-5,-4,2,-1,0,-1
14:52:12:283601,-8,-12,-9,-11,-7,1,4,1
14:52:12:297780,-15,-3,-22,-13,-2,-5,-2,0
14:52:12:298593,-15,-3,-22,-13,-2,-5,-2,0
14:52:12:304607,0,-4,-5,-4,1,-1,-2,-2
14:52:12:312052,12,16,9,-12,-9,-2,-1,3
14:52:12:320309,12,16,9,-12,-9,-2,-1,3
14:52:12:321111,0,2,-1,-8,5,2,1,1
14:52:12:334568,-7,4,7,8,1,2,-3,-2
14:52:12:342789,-7,4,7,8,1,2,-3,-2
14:52:12:343588,-3,-33,-15,5,6,0,-6,-10
14:52:12:349587,1,2,-9,-10,-2,-3,-1,0
14:52:12:357132,1,2,-9,-10,-2,-3,-1,0
14:52:12:364590,1,22,2,-13,-6,0,0,0
14:52:12:372071,-10,-4,5,10,0,0,-3,-3
14:52:12:380274,-10,-4,5,10,0,0,-3,-3
14:52:12:381050,-23,5,11,8,9,0,5,6
14:52:12:394543,13,-20,9,10,-4,-3,-3,-4
14:52:12:402748,13,-20,9,10,-4,-3,-3,-4
14:52:12:403523,5,8,6,3,1,-5,-4,0
14:52:12:417801,8,-7,-3,18,10,1,3,6
14:52:12:418601,8,-7,-3,18,10,1,3,6
14:52:12:424547,-8,0,-3,1,-5,-2,-2,-3
14:52:12:440238,1,7,14,2,-3,2,2,4
14:52:12:441084,1,7,14,2,-3,2,2,4
14:52:12:447063,12,18,-12,-8,-8,-3,-4,-3
14:52:12:454559,-5,-8,2,-15,-6,-4,-2,-1
14:52:12:462811,-5,-8,2,-15,-6,-4,-2,-1
14:52:12:463632,1,2,-5,-35,-16,-1,-4,-11
14:52:12:477786,1,3,-3,-4,5,0,0,-2
14:52:12:478579,1,3,-3,-4,5,0,0,-2
14:52:12:484549,-1,-7,-10,3,3,-5,-3,1
14:52:12:492036,3,-8,-16,0,-4,0,0,0
14:52:12:499623,3,-8,-16,0,-4,0,0,0
14:52:12:507074,8,13,15,14,-3,-3,-3,-1
14:52:12:514571,-17,-40,-5,5,3,-1,-1,-3
14:52:12:522766,-17,-40,-5,5,3,-1,-1,-3
14:52:12:523535,-11,-5,-13,-9,-1,0,-3,1
14:52:12:537793,4,31,13,-10,4,0,-2,-1
14:52:12:538618,4,31,13,-10,4,0,-2,-1
14:52:12:544605,0,5,4,12,3,3,1,-6
14:52:12:552115,1,-10,-2,-2,-3,2,2,0
14:52:12:559613,1,-10,-2,-2,-3,2,2,0
14:52:12:567083,1,14,16,-8,0,4,6,4
14:52:12:574590,0,24,-3,-14,-12,-4,-5,-2
14:52:12:582792,0,24,-3,-14,-12,-4,-5,-2
14:52:12:583575,-7,-30,-4,11,6,-2,-3,-2
14:52:12:597788,-14,6,8,9,1,1,3,-3
14:52:12:598557,-14,6,8,9,1,1,3,-3
14:52:12:604585,-2,-6,-25,-15,-9,-2,3,1
14:52:12:612075,8,4,10,19,5,-4,-4,-3
14:52:12:619610,8,4,10,19,5,-4,-4,-3
14:52:12:627023,-4,-56,-13,0,-4,0,-1,-3
14:52:12:634520,8,-1,-6,2,-1,0,-5,-6
14:52:12:642800,8,-1,-6,2,-1,0,-5,-6
14:52:12:643580,9,23,19,-1,-2,-2,0,6
14:52:12:657777,4,0,9,9,6,4,5,4
14:52:12:658569,4,0,9,9,6,4,5,4
14:52:12:664550,0,-7,9,7,0,-3,2,3
14:52:12:672012,11,-29,-4,2,-1,0,3,0
14:52:12:679582,11,-29,-4,2,-1,0,3,0
14:52:12:687050,-8,19,10,11,-1,-2,-2,-3
14:52:12:694556,-2,20,12,3,-1,-1,-7,-7
14:52:12:702768,-2,20,12,3,-1,-1,-7,-7
14:52:12:703590,-9,-16,2,-23,-6,1,0,-2
14:52:12:717764,-19,-4,-1,14,6,-1,1,1
14:52:12:718563,-19,-4,-1,14,6,-1,1,1
14:52:12:724566,2,8,-6,13,1,-3,-5,-2
14:52:12:732064,-2,-16,-40,-52,-14,-4,-3,-2
14:52:12:739619,-2,-16,-40,-52,-14,-4,-3,-2
14:52:12:747063,-5,-18,-8,-24,-5,0,1,3
14:52:12:754563,4,-20,-23,1,-5,1,1,2
14:52:12:762797,4,-20,-23,1,-5,1,1,2
14:52:12:763581,-9,3,-4,12,-1,-3,-2,-1
14:52:12:777750,-5,6,8,9,-4,-3,1,-1
14:52:12:778597,-5,6,8,9,-4,-3,1,-1
14:52:12:784541,4,8,2,5,1,-1,-3,-1
14:52:12:792037,10,18,17,2,-4,-4,-5,-3
14:52:12:799620,10,18,17,2,-4,-4,-5,-3
14:52:12:807060,8,11,9,14,7,1,2,-1
14:52:12:814590,3,9,12,12,7,1,0,0
14:52:12:822753,3,9,12,12,7,1,0,0
14:52:12:823533,19,11,-11,-19,-9,-2,0,2
14:52:12:837788,-11,-7,37,33,-2,-2,-2,-2
14:52:12:838577,-11,-7,37,33,-2,-2,-2,-2
14:52:12:844623,11,2,-18,-14,5,1,3,3
14:52:12:852126,-6,6,-6,0,-1,-3,0,-4
14:52:12:859631,-6,6,-6,0,-1,-3,0,-4
14:52:12:867083,1,-11,10,23,-1,0,-1,-2
14:52:12:874578,-3,5,-2,5,3,1,-1,0
14:52:12:882756,-3,5,-2,5,3,1,-1,0
14:52:12:883609,-3,-4,16,1,2,-3,-7,-7
14:52:12:897737,-2,-12,-16,-11,-2,-1,-3,-5
14:52:12:898535,-2,-12,-16,-11,-2,-1,-3,-5
14:52:12:904581,4,2,2,4,-1,2,0,-2
14:52:12:912089,-15,-9,0,-12,-10,-1,-2,-1
14:52:12:919647,-15,-9,0,-12,-10,-1,-2,-1
14:52:12:927042,-18,8,-13,-16,1,-1,0,-1
14:52:12:934546,8,20,-33,-22,-9,-2,-2,0
14:52:12:942783,8,20,-33,-22,-9,-2,-2,0
14:52:12:943566,-4,13,6,-10,-5,-4,-2,-1
14:52:12:958239,5,3,-16,10,2,-1,0,-1
14:52:12:959031,5,3,-16,10,2,-1,0,-1
14:52:12:964555,3,10,-2,5,2,-1,-1,-3
14:52:12:972030,16,6,12,0,9,0,1,3
14:52:12:979628,16,6,12,0,9,0,1,3
14:52:12:987081,-3,-13,-23,0,-2,0,0,0
14:52:12:994567,4,5,-1,-14,-5,-2,-1,-2
14:52:13:2780,4,5,-1,-14,-5,-2,-1,-2
14:52:13:3573,1,-15,2,-10,-9,-1,-2,1
14:52:13:17784,9,-7,-5,-6,2,0,0,0
14:52:13:18606,9,-7,-5,-6,2,0,0,0
14:52:13:24598,-5,12,3,11,4,0,0,-2
14:52:13:32073,-1,-2,0,-4,-3,0,2,2
14:52:13:39625,-1,-2,0,-4,-3,0,2,2
14:52:13:47035,-3,-6,20,29,2,0,0,-3
14:52:13:54564,-24,-10,22,3,-4,-2,-5,-5
14:52:13:62765,-24,-10,22,3,-4,-2,-5,-5
14:52:13:63609,-17,-1,16,-1,-4,1,-1,-2
14:52:13:77757,-3,-4,-17,-20,-5,2,1,1
14:52:13:78604,-3,-4,-17,-20,-5,2,1,1
14:52:13:84571,4,5,-7,-7,-3,-1,-3,-4
14:52:13:92047,-10,-8,-19,-3,1,0,-1,-3
14:52:13:99648,-10,-8,-19,-3,1,0,-1,-3
14:52:13:107109,5,6,-8,10,1,-3,1,4
14:52:13:114568,2,9,6,6,3,-2,-2,1
14:52:13:122752,2,9,6,6,3,-2,-2,1
14:52:13:123524,-1,-18,-19,15,9,0,0,2
14:52:13:137776,-20,-75,0,12,0,-3,-2,-2
14:52:13:138606,-20,-75,0,12,0,-3,-2,-2
14:52:13:144601,11,9,10,8,-7,0,-1,0
14:52:13:152082,-12,7,0,-2,0,0,-1,-4
14:52:13:159593,-12,7,0,-2,0,0,-1,-4
14:52:13:167058,-5,-20,-20,-15,-5,-5,-5,-5
14:52:13:174563,18,17,17,9,0,-1,0,2
14:52:13:182760,18,17,17,9,0,-1,0,2
14:52:13:183594,2,-9,2,-5,3,0,1,-2
14:52:13:197735,1,15,9,11,-5,-2,0,4
14:52:13:198598,1,15,9,11,-5,-2,0,4
14:52:13:204610,10,-22,-9,4,4,1,1,1
14:52:13:212085,4,-2,-10,-14,-7,-2,-1,1
14:52:13:219642,4,-2,-10,-14,-7,-2,-1,1
14:52:13:227041,-6,29,-5,-26,-8,-2,-2,-5
14:52:13:234570,3,-4,-26,-13,-5,-1,0,0
14:52:13:242777,3,-4,-26,-13,-5,-1,0,0
14:52:13:243578,-22,-2,-1,10,-2,-2,-3,-2
14:52:13:257720,9,25,16,-18,5,-3,-2,1
14:52:13:258611,9,25,16,-18,5,-3,-2,1
14:52:13:264523,6,4,15,1,-1,-5,-4,-1
14:52:13:272051,3,5,-1,-8,9,1,0,-2
14:52:13:279619,3,5,-1,-8,9,1,0,-2
14:52:13:287085,2,11,2,15,9,1,0,1
14:52:13:294524,1,-5,-17,-8,-7,-2,-3,-5
14:52:13:302788,1,-5,-17,-8,-7,-2,-3,-5
14:52:13:303568,-8,0,4,-8,-7,-2,-1,-1
14:52:13:317513,-4,5,8,-1,1,2,2,1
14:52:13:325284,-4,5,8,-1,1,2,2,1
14:52:13:326078,5,-2,-10,4,-1,0,0,-1
14:52:13:340245,-3,-12,-24,-14,-7,-2,-2,0
14:52:13:341070,-3,-12,-24,-14,-7,-2,-2,0
14:52:13:347029,7,-9,4,-9,-1,-2,-1,3
14:52:13:354536,3,8,2,16,4,1,1,1
14:52:13:362122,3,8,2,16,4,1,1,1
14:52:13:369551,-18,8,9,-6,0,1,-3,-7
14:52:13:377754,-14,-18,-14,-21,-4,0,-1,-2
14:52:13:378596,-14,-18,-14,-21,-4,0,-1,-2
14:52:13:384546,17,-3,11,-9,-7,-3,-2,1
14:52:13:400267,-2,-3,20,22,0,-1,-1,0
14:52:13:401058,-2,-3,20,22,0,-1,-1,0
14:52:13:407038,-9,-4,-6,-2,-3,-3,-2,-2
14:52:13:414575,6,-4,-21,-14,3,1,-1,-1
14:52:13:422164,6,-4,-21,-14,3,1,-1,-1
14:52:13:429552,6,-6,-5,2,2,-2,-4,-3
14:52:13:437721,-4,30,0,-12,-8,-6,-3,-4
14:52:13:438545,-4,30,0,-12,-8,-6,-3,-4
14:52:13:444601,-3,4,-12,-11,1,2,0,-3
14:52:13:460267,0,-11,11,9,-2,-1,-2,-6
14:52:13:461102,0,-11,11,9,-2,-1,-2,-6
14:52:13:467085,-2,-7,-17,0,-2,-1,0,3
14:52:13:474556,-7,6,6,0,-11,-2,2,3
14:52:13:482148,-7,6,6,0,-11,-2,2,3
14:52:13:489605,-7,-13,-6,-22,-7,0,4,0
14:52:13:497488,6,1,-4,-7,-5,-1,-6,-2
14:52:13:505267,6,1,-4,-7,-5,-1,-6,-2
14:52:13:506042,-3,-8,0,14,10,-2,-3,-8
14:52:13:520235,3,-11,-9,2,9,-2,-4,-4
14:52:13:521030,3,-11,-9,2,9,-2,-4,-4
14:52:13:527113,3,-2,7,3,-4,-1,5,-1
14:52:13:534593,0,24,5,3,0,-1,-4,-3
14:52:13:542073,0,24,5,3,0,-1,-4,-3
14:52:13:549575,-1,-23,-28,-5,11,2,1,0
14:52:13:557755,-3,-8,-7,4,-7,-3,1,2
14:52:13:558590,-3,-8,-7,4,-7,-3,1,2
14:52:13:564543,6,1,3,9,-3,-2,-7,-2
14:52:13:580231,-3,-6,-10,-8,3,0,1,1
14:52:13:581081,-3,-6,-10,-8,3,0,1,1
14:52:13:587104,-8,1,1,0,1,0,-1,-1
14:52:13:594611,0,-4,5,-2,-3,2,7,3
14:52:13:602079,0,-4,5,-2,-3,2,7,3
14:52:13:609576,6,-4,10,7,7,2,-4,-1
14:52:13:617777,-8,3,22,9,1,-2,-2,-3
14:52:13:618613,-8,3,22,9,1,-2,-2,-3
14:52:13:624556,1,9,8,8,-6,-2,0,0
14:52:13:640279,0,-4,5,18,2,-2,-1,0
14:52:13:641081,0,-4,5,18,2,-2,-1,0
14:52:13:647068,-6,-3,-22,-42,-15,-3,-2,1
14:52:13:654538,5,-2,17,7,-2,1,1,2
14:52:13:662136,5,-2,17,7,-2,1,1,2
14:52:13:669565,3,2,8,8,2,-2,1,4
14:52:13:677752,-14,-11,-17,-13,-2,1,0,-3
14:52:13:678615,-14,-11,-17,-13,-2,1,0,-3
14:52:13:684563,2,23,-12,-13,-5,-1,1,1
14:52:13:700262,6,31,20,-3,-1,-2,-1,-3
14:52:13:701093,6,31,20,-3,-1,-2,-1,-3
14:52:13:707064,2,10,-7,-13,-5,-1,-1,1
14:52:13:714561,-21,-15,-16,3,1,-2,-2,-1
14:52:13:722154,-21,-15,-16,3,1,-2,-2,-1
14:52:13:729571,-2,-2,-1,-19,0,0,-2,-4
14:52:13:737698,5,5,5,3,0,-1,0,0
14:52:13:738521,5,5,5,3,0,-1,0,0
14:52:13:744576,0,20,15,18,-5,-3,-5,-4
14:52:13:760312,6,0,0,12,9,3,-2,0
14:52:13:761104,6,0,0,12,9,3,-2,0
14:52:13:767073,7,0,-24,-25,-7,-3,-1,-2
14:52:13:774568,21,-1,-1,-13,-13,-3,-1,0
14:52:13:782139,21,-1,-1,-13,-13,-3,-1,0
14:52:13:789579,-10,-16,2,-8,3,0,-1,-1
14:52:13:797735,-5,-13,-2,-5,-5,-5,-2,-1
14:52:13:798558,-5,-13,-2,-5,-5,-5,-2,-1
14:52:13:804584,-10,-10,3,10,-3,-2,1,-1
14:52:13:820192,-1,-28,-24,-4,1,-2,-3,-2
14:52:13:821034,-1,-28,-24,-4,1,-2,-3,-2
14:52:13:827114,0,8,-5,9,0,0,0,0
14:52:13:834612,0,3,13,3,1,-1,-5,-7
14:52:13:842079,0,3,13,3,1,-1,-5,-7
14:52:13:849581,-1,8,16,10,1,0,1,1
14:52:13:857742,-7,15,3,13,-1,-3,-2,-3
14:52:13:858578,-7,15,3,13,-1,-3,-2,-3
14:52:13:864548,-3,11,21,12,0,-1,1,1
14:52:13:880271,4,5,-7,24,13,0,-3,-1
14:52:13:881058,4,5,-7,24,13,0,-3,-1
14:52:13:887032,-5,-12,-13,-10,-3,-2,-2,-1
14:52:13:894601,-7,-7,-5,3,0,0,1,2
14:52:13:902102,-7,-7,-5,3,0,0,1,2
14:52:13:909564,3,-14,-6,22,0,-2,-3,-3
14:52:13:917798,-1,0,1,14,4,0,0,0
14:52:13:918588,-1,0,1,14,4,0,0,0
14:52:13:924565,0,-4,13,4,3,1,2,3
14:52:13:940234,-27,12,-9,-32,-6,3,1,-4
14:52:13:941073,-27,12,-9,-32,-6,3,1,-4
14:52:13:947037,-2,-15,-22,-3,-1,1,0,-1
14:52:13:954526,13,-2,-36,-46,-5,1,1,0
14:52:13:962110,13,-2,-36,-46,-5,1,1,0
14:52:13:969540,8,16,11,1,-5,-1,0,1
14:52:13:985912,-2,-36,-7,-11,-8,-1,-1,-1
14:52:13:986752,-2,-36,-7,-11,-8,-1,-1,-1
14:52:13:987528,1,1,1,-11,11,-1,-7,-7
14:52:14:271,-4,-7,9,2,-7,-4,-3,-2
14:52:14:1064,-4,-7,9,2,-7,-4,-3,-2
14:52:14:7037,0,-20,6,2,-2,-1,-2,-2
14:52:14:14538,5,23,33,18,10,1,-2,2
14:52:14:22123,5,23,33,18,10,1,-2,2
14:52:14:29566,-6,15,1,-6,0,1,-1,0
14:52:14:37771,0,-3,6,12,-2,-1,-1,2
14:52:14:38583,0,-3,6,12,-2,-1,-1,2
14:52:14:44568,-21,6,2,0,-4,-1,-1,-1
14:52:14:60302,13,2,-19,-24,-7,-3,0,0
14:52:14:61091,13,2,-19,-24,-7,-3,0,0
14:52:14:67037,6,4,-11,-2,-11,-5,-3,-4
14:52:14:74552,-12,-16,0,-1,-5,-1,-1,-3
14:52:14:82109,-12,-16,0,-1,-5,-1,-1,-3
14:52:14:89563,1,-9,-3,-13,-8,-1,0,0
14:52:14:97787,-3,5,11,15,-2,0,0,-1
14:52:14:98579,-3,5,11,15,-2,0,0,-1
14:52:14:104596,-7,9,20,18,4,1,-1,1
14:52:14:120275,3,-3,-7,-11,-1,-3,-4,-1
14:52:14:121087,3,-3,-7,-11,-1,-3,-4,-1
14:52:14:127067,3,9,-1,-3,3,1,-2,0
14:52:14:134578,-4,11,-2,6,-1,1,3,0
14:52:14:142133,-4,11,-2,6,-1,1,3,0
14:52:14:149565,5,-3,-16,-15,-2,-1,-1,-1
14:52:14:157725,5,-7,18,17,-1,1,2,2
14:52:14:158555,5,-7,18,17,-1,1,2,2
14:52:14:164586,0,-14,-9,12,6,-1,0,-1
14:52:14:180270,0,5,6,6,6,-1,-1,1
14:52:14:181119,0,5,6,6,6,-1,-1,1
14:52:14:187063,-3,-37,0,2,2,1,1,1
14:52:14:194562,5,3,-6,4,3,-3,-3,-4
14:52:14:202088,5,3,-6,4,3,-3,-3,-4
14:52:14:209574,-4,-7,-4,-6,-3,-2,-1,-2
14:52:14:217747,-1,12,6,-4,-13,0,-1,-2
14:52:14:218567,-1,12,6,-4,-13,0,-1,-2
14:52:14:224540,1,10,8,8,-1,-4,-4,-4
14:52:14:240231,-9,-17,-15,0,0,-2,-1,-1
14:52:14:241084,-9,-17,-15,0,0,-2,-1,-1
14:52:14:247079,6,9,0,-10,-5,-3,1,0
14:52:14:254612,0,-6,9,-7,5,1,0,-3
14:52:14:262120,0,-6,9,-7,5,1,0,-3
14:52:14:269568,-4,-6,-8,-8,-2,-3,-2,-3
14:52:14:277770,-4,-16,4,-1,-2,-1,-1,-2
14:52:14:278577,-4,-16,4,-1,-2,-1,-1,-2
14:52:14:292108,6,25,-1,13,2,0,1,-1
14:52:14:300239,-4,-3,12,7,0,-1,-1,0
14:52:14:301079,-4,-3,12,7,0,-1,-1,0
14:52:14:307024,-4,-9,12,-1,0,0,-3,0
14:52:14:322768,2,-16,-12,-1,-1,0,-1,1
14:52:14:323584,2,-16,-12,-1,-1,0,-1,1
14:52:14:329588,-5,-10,3,7,-1,0,4,0
14:52:14:337765,-7,-3,-6,-19,-6,-4,-3,-3
14:52:14:338565,-7,-3,-6,-19,-6,-4,-3,-3
14:52:14:352079,2,5,14,2,-2,-1,-4,-1
14:52:14:360284,5,13,3,5,0,0,-4,-1
14:52:14:361078,5,13,3,5,0,0,-4,-1
14:52:14:367119,1,15,10,-6,0,-1,-1,0
14:52:14:382718,-4,8,-9,-22,-5,-2,-3,0
14:52:14:383595,-4,8,-9,-22,-5,-2,-3,0
14:52:14:389573,-3,-8,-4,3,-4,-4,-1,-2
14:52:14:397753,0,-2,-14,0,3,1,4,3
14:52:14:398572,0,-2,-14,0,3,1,4,3
14:52:14:412076,-3,10,4,-2,-1,-1,0,1
14:52:14:428444,-3,10,4,-2,-1,-1,0,1
14:52:14:429257,4,14,-1,-10,-2,0,0,-1
14:52:14:430074,8,-15,-9,-43,-19,-4,0,-2
14:52:14:442759,8,-15,-9,-43,-19,-4,0,-2
14:52:14:443613,2,-12,-2,12,12,3,-1,-1
14:52:14:449539,-2,-11,-6,16,7,0,1,-1
14:52:14:457808,-2,-11,-6,16,7,0,1,-1
14:52:14:458596,-2,-8,-10,3,-7,-4,-2,-1
14:52:14:472079,-5,-10,-21,-1,-3,-2,-2,-1
14:52:14:480294,-5,-10,-21,-1,-3,-2,-2,-1
14:52:14:481095,-8,-21,-10,21,9,1,2,-3
14:52:14:487044,0,11,2,0,5,-1,-1,-1
14:52:14:502771,0,11,2,0,5,-1,-1,-1
14:52:14:503541,-1,10,-8,-24,-1,-3,0,-2
14:52:14:509559,8,2,-16,-9,4,2,1,1
14:52:14:517776,8,2,-16,-9,4,2,1,1
14:52:14:518567,-15,12,7,5,0,-2,-2,-3
14:52:14:532052,7,2,4,0,-3,-3,-4,-2
14:52:14:540289,7,2,4,0,-3,-3,-4,-2
14:52:14:541057,0,0,-7,-2,-1,0,0,0
14:52:14:547041,-3,6,11,8,1,0,1,1
14:52:14:562774,-3,6,11,8,1,0,1,1
14:52:14:563542,4,-12,-2,-5,-3,-2,-1,-1
14:52:14:569542,1,-3,-11,-3,-4,1,0,1
14:52:14:577798,1,-3,-11,-3,-4,1,0,1
14:52:14:578601,-2,5,-10,14,-9,-5,-7,-4
14:52:14:592118,-8,-1,9,11,-6,-3,-4,-4
14:52:14:600279,-8,-1,9,11,-6,-3,-4,-4
14:52:14:601048,3,7,-3,-5,-1,-2,1,0
14:52:14:607040,-7,10,10,6,7,1,-1,0
14:52:14:622750,-7,10,10,6,7,1,-1,0
14:52:14:623544,3,-1,9,17,1,-1,-1,-3
14:52:14:629593,4,10,2,-6,0,0,2,0
14:52:14:637797,4,10,2,-6,0,0,2,0
14:52:14:638591,0,-6,-15,-16,-3,0,-3,0
14:52:14:652073,1,-22,-9,5,2,0,-1,0
14:52:14:660276,1,-22,-9,5,2,0,-1,0
14:52:14:661044,0,-6,-8,-7,-3,0,0,2
14:52:14:667079,-6,-2,-16,-13,-3,2,0,0
14:52:14:682791,-6,-2,-16,-13,-3,2,0,0
14:52:14:683536,-2,-3,4,-2,-5,-4,-4,-2
14:52:14:689616,-4,-7,-1,3,1,0,-3,-1
14:52:14:697782,-4,-7,-1,3,1,0,-3,-1
14:52:14:698602,-6,4,1,-4,-3,0,-3,-3
14:52:14:712077,2,6,-3,-10,-5,0,1,1
14:52:14:720274,2,6,-3,-10,-5,0,1,1
14:52:14:721059,1,-19,-8,7,0,-3,-3,-2
14:52:14:727095,-6,-16,-3,13,-4,-3,-2,-4
14:52:14:742798,-6,-16,-3,13,-4,-3,-2,-4
14:52:14:743577,9,14,-1,-5,1,1,1,1
14:52:14:749577,-8,-9,-5,-18,-4,-2,-1,-1
14:52:14:757735,-8,-9,-5,-18,-4,-2,-1,-1
14:52:14:758536,-17,-9,9,10,2,0,0,-1
14:52:14:772113,-3,-6,-3,-9,0,0,2,1
14:52:14:780304,-3,-6,-3,-9,0,0,2,1
14:52:14:781085,4,3,14,2,-3,-3,-2,1
14:52:14:787089,-1,15,-3,-5,-4,-2,-3,-2
14:52:14:802820,-1,15,-3,-5,-4,-2,-3,-2
14:52:14:803603,4,19,6,-18,-13,0,1,0
14:52:14:809577,-2,1,4,-4,-2,-2,-1,1
14:52:14:817800,-2,1,4,-4,-2,-2,-1,1
14:52:14:818624,2,16,16,8,-2,-2,-4,-3
14:52:14:832057,2,-10,0,7,-4,0,1,2
14:52:14:840297,2,-10,0,7,-4,0,1,2
14:52:14:841081,4,-6,-3,-7,0,-1,1,1
14:52:14:847057,-14,-9,-6,18,8,-4,-5,-8
14:52:14:862793,-14,-9,-6,18,8,-4,-5,-8
14:52:14:863584,1,-5,-10,-5,1,-1,1,0
14:52:14:869569,2,-15,6,-13,-9,-4,0,0
14:52:14:877790,2,-15,6,-13,-9,-4,0,0
14:52:14:878601,-7,-3,-4,2,1,0,0,-3
14:52:14:892042,-5,11,-9,6,0,-1,-6,-3
14:52:14:900296,-5,11,-9,6,0,-1,-6,-3
14:52:14:901107,1,0,7,6,0,1,5,3
14:52:14:907080,3,0,-1,-2,8,1,-3,-2
14:52:14:922787,3,0,-1,-2,8,1,-3,-2
14:52:14:923562,0,-17,-21,-3,7,1,0,2
14:52:14:929570,4,3,0,6,-1,-1,0,2
14:52:14:937793,4,3,0,6,-1,-1,0,2
14:52:14:938595,-3,-1,-8,-10,2,1,-1,-1
14:52:14:952055,8,5,5,2,-2,-2,1,2
14:52:14:960279,8,5,5,2,-2,-2,1,2
14:52:14:961105,-2,10,6,7,2,-1,0,2
14:52:14:967072,0,-16,-7,6,1,0,2,0
14:52:14:990920,0,-16,-7,6,1,0,2,0
14:52:14:991712,-11,-20,-16,-11,-7,-3,-4,-4
14:52:14:992507,-3,-8,0,-7,3,2,2,1
14:52:14:997756,-3,-8,0,-7,3,2,2,1
14:52:14:998556,5,2,11,5,-1,-4,-1,-4
14:52:15:12106,-2,-9,-2,3,-3,1,-1,-3
14:52:15:20256,-2,-9,-2,3,-3,1,-1,-3
14:52:15:21064,2,1,1,5,-1,1,-1,2
14:52:15:27100,-2,11,2,-11,-2,-1,-4,-4
14:52:15:42794,-2,11,2,-11,-2,-1,-4,-4
14:52:15:43593,0,4,10,1,-1,0,-2,-1
14:52:15:49609,-3,-3,-7,10,-2,0,-2,-3
14:52:15:57780,-3,-3,-7,10,-2,0,-2,-3
14:52:15:58556,-3,-3,-2,-5,1,3,2,1
14:52:15:72071,0,8,13,3,-3,-2,-2,1
14:52:15:80300,0,8,13,3,-3,-2,-2,1
14:52:15:81096,4,-1,-4,-2,-4,-1,-1,0
14:52:15:87097,4,9,4,-5,-9,-3,-7,0
14:52:15:102808,4,9,4,-5,-9,-3,-7,0
14:52:15:103592,7,10,6,-15,-7,-3,-4,0
14:52:15:109607,1,4,-8,-2,-4,-3,0,2
14:52:15:117803,1,4,-8,-2,-4,-3,0,2
14:52:15:118608,-6,-26,-15,1,0,-2,1,-2
14:52:15:132529,-4,-5,0,-3,3,0,3,0
14:52:15:140307,-4,-5,0,-3,3,0,3,0
14:52:15:141094,-2,-5,3,-16,-5,-2,1,0
14:52:15:147089,16,7,3,-5,-3,-3,-3,-1
14:52:15:162770,16,7,3,-5,-3,-3,-3,-1
14:52:15:163600,-13,2,9,1,-11,-4,1,-5
14:52:15:169539,-1,6,-3,-7,-1,2,3,-1
14:52:15:177794,-1,6,-3,-7,-1,2,3,-1
14:52:15:178588,-1,-10,-3,1,-1,0,4,2
14:52:15:192043,-3,-6,2,1,-6,-5,-5,-1
14:52:15:200298,-3,-6,2,1,-6,-5,-5,-1
14:52:15:201074,-4,-3,5,-15,-4,0,-1,-3
14:52:15:207059,-12,-37,-25,0,6,4,-3,1
14:52:15:222780,-12,-37,-25,0,6,4,-3,1
14:52:15:223599,2,10,-8,16,5,0,0,0
14:52:15:229580,-1,-3,-2,-4,1,1,3,1
14:52:15:237143,-1,-3,-2,-4,1,1,3,1
14:52:15:244603,1,4,2,1,-2,-4,-6,-1
14:52:15:252068,-1,8,-3,0,2,2,3,-2
14:52:15:260315,-1,8,-3,0,2,2,3,-2
14:52:15:261105,3,4,-7,-2,1,1,8,0
14:52:15:274568,3,9,6,6,3,-4,10,0
14:52:15:282784,3,9,6,6,3,-4,10,0
14:52:15:283592,-9,5,4,0,-3,-2,-9,-1
14:52:15:289616,-3,-20,-6,-18,-6,0,-7,-7
14:52:15:297146,-3,-20,-6,-18,-6,0,-7,-7
14:52:15:304594,-6,8,6,9,4,-1,-3,1
14:52:15:312113,2,27,9,8,-6,-5,2,2
14:52:15:320258,2,27,9,8,-6,-5,2,2
14:52:15:321049,2,-43,-5,-10,-2,-1,-1,-5
14:52:15:334563,-5,3,-4,5,3,-2,-11,-2
14:52:15:342751,-5,3,-4,5,3,-2,-11,-2
14:52:15:343583,3,9,2,-2,-5,4,19,5
14:52:15:349602,2,-7,-3,-3,2,2,13,3
14:52:15:357121,2,-7,-3,-3,2,2,13,3
14:52:15:364631,-1,-10,-29,-5,4,1,-9,5
14:52:15:372121,-20,14,10,-1,-2,1,-1,0
14:52:15:380243,-20,14,10,-1,-2,1,-1,0
14:52:15:381062,-8,-7,8,1,-1,-6,-9,-7
14:52:15:394569,-5,0,2,4,1,3,2,0
14:52:15:402780,-5,0,2,4,1,3,2,0
14:52:15:403541,2,7,5,0,4,1,0,-6
14:52:15:409586,2,-3,-1,-1,-1,-4,-1,-1
14:52:15:417090,2,-3,-1,-1,-1,-4,-1,-1
14:52:15:424541,2,15,0,0,-3,-7,-8,-1
14:52:15:432138,10,-10,-6,1,-1,0,-4,-5
14:52:15:440276,10,-10,-6,1,-1,0,-4,-5
14:52:15:441062,-4,3,7,0,0,0,4,-9
14:52:15:454594,-1,-11,-4,-3,-3,0,1,-3
14:52:15:470905,-1,-11,-4,-3,-3,0,1,-3
14:52:15:471695,-5,-11,-3,-1,1,4,10,5
14:52:15:472516,-2,8,3,12,5,2,-2,0
14:52:15:477115,-2,8,3,12,5,2,-2,0
14:52:15:484536,-2,3,0,3,2,-2,-6,3
14:52:15:492066,0,-29,-18,-1,-4,-8,-17,-1
14:52:15:500277,0,-29,-18,-1,-4,-8,-17,-1
14:52:15:501063,13,16,10,6,1,-1,-9,-4
14:52:15:514592,-2,17,18,-5,-1,-3,1,0
14:52:15:522746,-2,17,18,-5,-1,-3,1,0
14:52:15:523599,-10,-11,-6,-5,-5,1,-2,-3
14:52:15:529552,5,10,4,-7,-3,-8,-7,2
14:52:15:537115,5,10,4,-7,-3,-8,-7,2
14:52:15:544559,9,1,-3,-2,-2,-1,2,-2
14:52:15:552071,8,10,4,-1,2,8,14,4
14:52:15:560294,8,10,4,-1,2,8,14,4
14:52:15:561061,-4,-18,-28,-3,-2,-1,-6,-3
14:52:15:574523,-7,-19,-14,-3,-5,-3,-1,-4
14:52:15:582792,-7,-19,-14,-3,-5,-3,-1,-4
14:52:15:583575,-2,-2,5,1,5,1,-4,-1
14:52:15:589584,1,-5,-6,0,6,7,-1,4
14:52:15:597140,1,-5,-6,0,6,7,-1,4
14:52:15:604593,10,2,16,-3,-7,-5,2,4
14:52:15:612070,-18,-14,-9,-3,4,-3,-8,-11
14:52:15:620305,-18,-14,-9,-3,4,-3,-8,-11
14:52:15:621097,0,2,7,-3,-1,-1,6,-9
14:52:15:634556,-3,-3,-1,-1,1,1,6,4
14:52:15:642781,-3,-3,-1,-1,1,1,6,4
14:52:15:643625,-33,3,-6,1,-1,-2,-7,4
14:52:15:657746,3,-4,-3,-3,-3,0,-1,-2
14:52:15:658569,3,-4,-3,-3,-3,0,-1,-2
14:52:15:664574,0,-2,-2,1,-1,-3,-11,-5
14:52:15:672039,0,16,11,-3,-6,-8,-8,7
14:52:15:680273,0,16,11,-3,-6,-8,-8,7
14:52:15:681069,10,15,1,0,0,-2,-5,5
14:52:15:694545,9,9,14,2,-3,-8,-6,0
14:52:15:702818,9,9,14,2,-3,-8,-6,0
14:52:15:703608,-3,-2,-1,-1,2,1,-9,-9
14:52:15:709576,11,-5,-6,-2,-5,2,4,-4
14:52:15:717132,11,-5,-6,-2,-5,2,4,-4
14:52:15:724601,0,-4,3,2,0,-5,-5,-6
14:52:15:732100,1,-3,-7,-4,-3,0,7,2
14:52:15:740331,1,-3,-7,-4,-3,0,7,2
14:52:15:741106,10,-2,-4,-2,1,4,4,13
14:52:15:754543,1,2,-1,0,1,-4,-11,6
14:52:15:762559,1,2,-1,0,1,-4,-11,6
14:52:15:770228,-13,-2,-1,-3,-4,-2,10,5
14:52:15:771040,5,-4,-1,2,12,7,16,-2
14:52:15:777149,5,-4,-1,2,12,7,16,-2
14:52:15:784585,7,0,-10,-3,-5,-2,-13,-13
14:52:15:792076,-22,-2,-5,-1,-5,-5,-4,-15
14:52:15:800256,-22,-2,-5,-1,-5,-5,-4,-15
14:52:15:801048,-9,14,7,-3,-1,-6,-5,-6
14:52:15:823410,2,6,1,-2,-1,1,3,-5
14:52:15:824241,2,6,1,-2,-1,1,3,-5
14:52:15:825036,9,-19,-3,-1,-1,5,9,2
14:52:15:829591,-11,2,0,-2,-1,-3,2,-2
14:52:15:837143,-11,2,0,-2,-1,-3,2,-2
14:52:15:844577,-7,-5,-4,-3,-5,-6,9,4
14:52:15:852055,7,-3,-7,0,-4,-2,-10,0
14:52:15:860310,7,-3,-7,0,-4,-2,-10,0
14:52:15:861089,-1,-7,-10,1,4,4,4,8
14:52:15:874580,-11,1,0,-2,-1,-1,-16,0
14:52:15:890949,-11,1,0,-2,-1,-1,-16,0
14:52:15:891703,-1,-3,5,1,-3,-3,0,5
14:52:15:892540,15,0,0,-1,-5,3,5,16
14:52:15:897130,15,0,0,-1,-5,3,5,16
14:52:15:904589,-1,-9,-3,0,3,-3,-1,-2
14:52:15:912062,8,3,3,-3,-10,-5,4,-1
14:52:15:920282,8,3,3,-3,-10,-5,4,-1
14:52:15:921098,8,6,2,-1,-1,-2,-4,-8
14:52:15:934525,-6,-8,1,4,5,8,11,-2
14:52:15:942820,-6,-8,1,4,5,8,11,-2
14:52:15:943588,-11,5,4,-4,-2,3,17,16
14:52:15:949547,1,-8,-6,-5,-4,-6,-6,-7
14:52:15:957140,1,-8,-6,-5,-4,-6,-6,-7
14:52:15:964595,12,12,-1,2,4,8,2,-3
14:52:15:972112,-9,-10,-1,-2,-3,-4,-11,-4
14:52:15:980270,-9,-10,-1,-2,-3,-4,-11,-4
14:52:15:981044,6,-8,-4,-2,-6,-10,11,3
14:52:15:994560,-8,-6,-3,-1,8,2,-2,-13
14:52:16:2599,-8,-6,-3,-1,8,2,-2,-13
14:52:16:10241,4,-2,-5,1,-2,0,-4,1
14:52:16:11032,-4,6,-2,0,-1,-5,-21,-2
14:52:16:17098,-4,6,-2,0,-1,-5,-21,-2
14:52:16:24600,6,-7,1,-1,-2,-5,-22,-2
14:52:16:32074,-5,3,-2,-2,-4,-4,-8,-2
14:52:16:40296,-5,3,-2,-2,-4,-4,-8,-2
14:52:16:41047,-10,-13,-3,1,6,6,-12,-10
14:52:16:54616,-3,-11,-8,-5,-4,-2,12,12
14:52:16:62771,-3,-11,-8,-5,-4,-2,12,12
14:52:16:63588,3,4,-1,-3,-7,-1,8,5
14:52:16:69590,9,1,1,2,3,9,19,2
14:52:16:77146,9,1,1,2,3,9,19,2
14:52:16:84537,5,-5,1,-3,2,4,5,-1
14:52:16:92036,5,4,2,-2,-6,-6,-9,-2
14:52:16:100301,5,4,2,-2,-6,-6,-9,-2
14:52:16:101063,-10,10,1,1,0,3,-10,2
14:52:16:114622,-18,-4,-1,1,3,1,-13,7
14:52:16:122799,-18,-4,-1,1,3,1,-13,7
14:52:16:123577,9,5,-2,-1,-7,-2,21,-3
14:52:16:129534,-3,-2,-4,0,2,1,-10,-6
14:52:16:137164,-3,-2,-4,0,2,1,-10,-6
14:52:16:144566,3,0,-1,-2,-2,-7,-18,-4
14:52:16:152083,12,7,12,3,7,3,-1,7
14:52:16:160326,12,7,12,3,7,3,-1,7
14:52:16:161083,-3,-2,-3,-3,-1,-5,0,-1
14:52:16:174540,15,1,-1,-1,-5,-3,-2,3
14:52:16:182808,15,1,-1,-1,-5,-3,-2,3
14:52:16:183578,-2,7,-2,-2,-1,-1,2,2
14:52:16:197751,-17,-11,-2,-4,-1,1,10,-1
14:52:16:198577,-17,-11,-2,-4,-1,1,10,-1
14:52:16:204525,-10,-6,-9,-1,2,1,-10,-5
14:52:16:212053,4,8,11,-1,-7,-6,-12,-8
14:52:16:219683,4,8,11,-1,-7,-6,-12,-8
14:52:16:227049,5,3,0,1,2,2,11,-3
14:52:16:234582,10,-4,-3,0,2,0,3,10
14:52:16:242796,10,-4,-3,0,2,0,3,10
14:52:16:243617,6,-1,0,-1,-7,-4,0,10
14:52:16:257803,-2,2,-2,0,-2,-4,-3,-7
14:52:16:258585,-2,2,-2,0,-2,-4,-3,-7
14:52:16:264572,-2,-8,-5,-2,0,2,7,-7
14:52:16:272083,14,-5,-2,1,1,5,8,1
14:52:16:279634,14,-5,-2,1,1,5,8,1
14:52:16:287129,-4,4,6,-1,-4,-6,-15,-8
14:52:16:294552,-8,3,-1,-2,-3,-4,1,4
14:52:16:302779,-8,3,-1,-2,-3,-4,1,4
14:52:16:303603,-3,6,4,3,1,0,-22,-2
14:52:16:317748,-5,-4,-3,-2,-4,-3,8,-19
14:52:16:318621,-5,-4,-3,-2,-4,-3,8,-19
14:52:16:324628,6,4,-1,-2,2,0,2,10
14:52:16:332071,5,8,-2,-1,0,3,4,10
14:52:16:339633,5,8,-2,-1,0,3,4,10
14:52:16:347089,-14,-5,1,-2,-3,-2,4,-5
14:52:16:354570,-8,-1,3,0,-1,-2,3,-1
14:52:16:362735,-8,-1,3,0,-1,-2,3,-1
14:52:16:363528,-12,-1,-9,-2,0,-6,-8,-7
14:52:16:377713,4,5,1,-2,-4,-6,-3,6
14:52:16:378560,4,5,1,-2,-4,-6,-3,6
14:52:16:384585,-25,-8,-1,2,3,4,3,-36
14:52:16:392096,-21,-3,-4,-1,-4,-1,-2,-11
14:52:16:399602,-21,-3,-4,-1,-4,-1,-2,-11
14:52:16:407111,14,-1,-3,-2,-3,-4,-10,7
14:52:16:414575,-2,-1,-3,-3,-1,1,0,-3
14:52:16:422778,-2,-1,-3,-3,-1,1,0,-3
14:52:16:423575,10,-1,-2,-2,-3,-3,1,-4
14:52:16:437728,16,-3,6,2,3,1,-17,-1
14:52:16:438542,16,-3,6,2,3,1,-17,-1
14:52:16:444568,-5,-13,-2,0,-2,-1,14,-5
14:52:16:452127,8,9,5,0,-1,-1,-6,0
14:52:16:459644,8,9,5,0,-1,-1,-6,0
14:52:16:467046,0,2,0,-3,-6,2,7,12
14:52:16:474539,-4,2,-3,-1,3,2,4,-5
14:52:16:482796,-4,2,-3,-1,3,2,4,-5
14:52:16:483587,-7,-8,-3,-2,-2,0,-2,1
14:52:16:497745,1,1,-2,-1,-1,-3,-4,3
14:52:16:498614,1,1,-2,-1,-1,-3,-4,3
14:52:16:504544,0,2,7,0,-6,-5,-4,3
14:52:16:512032,-2,-8,-1,-1,1,3,11,5
14:52:16:519634,-2,-8,-1,-1,1,3,11,5
14:52:16:527060,-9,16,4,0,2,-1,3,4
14:52:16:534574,0,-7,-8,-3,-6,-9,-16,1
14:52:16:542832,0,-7,-8,-3,-6,-9,-16,1
14:52:16:543613,24,-7,-11,-3,-2,-2,-5,11
14:52:16:557766,-9,-4,-2,0,1,0,-7,6
14:52:16:558580,-9,-4,-2,0,1,0,-7,6
14:52:16:564577,-7,1,2,0,1,1,6,-2
14:52:16:572068,17,-8,-7,-2,-2,1,13,-13
14:52:16:579658,17,-8,-7,-2,-2,1,13,-13
14:52:16:587102,-4,4,2,1,2,1,-2,0
14:52:16:594581,-6,-7,-2,0,0,1,11,-16
14:52:16:602819,-6,-7,-2,0,0,1,11,-16
14:52:16:603632,6,3,1,0,1,-4,-7,7
14:52:16:617772,-2,-2,-4,-3,-6,4,24,12
14:52:16:618607,-2,-2,-4,-3,-6,4,24,12
14:52:16:624551,-1,-4,-3,0,1,-1,-10,-4
14:52:16:632064,4,0,1,0,-3,-5,-2,-10
14:52:16:639632,4,0,1,0,-3,-5,-2,-10
14:52:16:647109,-12,-8,-3,-1,3,3,8,-1
14:52:16:654572,-27,5,2,-1,3,1,-12,2
14:52:16:662752,-27,5,2,-1,3,1,-12,2
14:52:16:663539,7,6,3,-2,-6,-13,-30,6
14:52:16:677735,-3,1,-4,1,1,2,15,-4
14:52:16:678578,-3,1,-4,1,1,2,15,-4
14:52:16:684596,-5,-3,-4,-1,-6,-4,1,4
14:52:16:692113,2,3,-2,-1,-2,-1,-12,2
14:52:16:699629,2,3,-2,-1,-2,-1,-12,2
14:52:16:707113,-1,-18,-3,0,3,8,9,-13
14:52:16:714639,11,-3,-4,-2,-2,0,-10,-8
14:52:16:722789,11,-3,-4,-2,-2,0,-10,-8
14:52:16:723573,10,4,0,-3,-3,-3,8,13
14:52:16:737740,7,-4,2,0,0,1,-3,10
14:52:16:738548,7,-4,2,0,0,1,-3,10
14:52:16:744565,-10,7,4,1,0,-4,-14,-9
14:52:16:752104,-14,6,3,0,0,0,-7,-28
14:52:16:759609,-14,6,3,0,0,0,-7,-28
14:52:16:767057,-17,2,6,1,0,6,12,-1
14:52:16:774525,-11,-4,1,-1,-5,-6,-3,6
14:52:16:782766,-11,-4,1,-1,-5,-6,-3,6
14:52:16:783607,0,-1,-2,-2,2,0,-5,-24
14:52:16:797741,0,-5,-2,0,-3,-4,-5,-1
14:52:16:798630,0,-5,-2,0,-3,-4,-5,-1
14:52:16:804576,27,3,-3,-2,-5,-6,-8,1
14:52:16:812062,0,0,-1,0,1,-1,-9,-6
14:52:16:819613,0,0,-1,0,1,-1,-9,-6
14:52:16:827065,-6,-3,-3,-3,-3,-2,-4,-13
14:52:16:834571,14,2,2,-1,-2,-2,4,11
14:52:16:842825,14,2,2,-1,-2,-2,4,11
14:52:16:843615,-6,-12,-7,-1,2,3,4,1
14:52:16:857773,-6,12,4,-3,-3,-2,0,5
14:52:16:858618,-6,12,4,-3,-3,-2,0,5
14:52:16:864561,4,1,1,-1,0,3,11,4
14:52:16:872069,-33,-6,-2,-1,-4,0,1,1
14:52:16:879649,-33,-6,-2,-1,-4,0,1,1
14:52:16:887066,25,-1,1,-1,0,-3,-5,0
14:52:16:894573,2,3,-1,-1,-1,0,-2,-1
14:52:16:902829,2,3,-1,-1,-1,0,-2,-1
14:52:16:903597,-5,-2,-6,1,-1,-1,-2,8
14:52:16:917757,6,-2,-7,-2,0,-2,-1,16
14:52:16:918614,6,-2,-7,-2,0,-2,-1,16
14:52:16:924586,-3,7,3,-1,-3,-1,13,1
14:52:16:932054,-9,9,-2,-1,4,3,-3,-11
14:52:16:939651,-9,9,-2,-1,4,3,-3,-11
14:52:16:947073,-8,0,2,-1,2,0,-1,-10
14:52:16:954547,-5,-23,-5,-2,-3,-2,-8,-9
14:52:16:962767,-5,-23,-5,-2,-3,-2,-8,-9
14:52:16:963571,-7,2,-1,1,1,-1,6,3
14:52:16:977702,1,-14,-8,-2,0,-5,-2,2
14:52:16:978545,1,-14,-8,-2,0,-5,-2,2
14:52:16:984652,-13,9,0,-1,-2,-2,0,1
14:52:16:992081,7,1,2,-1,-4,7,35,6
14:52:16:999609,7,1,2,-1,-4,7,35,6
14:52:17:7072,-5,-5,-3,-1,2,2,-9,-5
14:52:17:14563,4,2,1,-1,-1,-4,-9,-3
14:52:17:22769,4,2,1,-1,-1,-4,-9,-3
14:52:17:23588,1,-2,1,-1,-3,-3,-4,-2
14:52:17:37742,-17,-4,0,-1,-3,-5,-12,-4
14:52:17:38571,-17,-4,0,-1,-3,-5,-12,-4
14:52:17:44522,-11,1,-2,1,6,3,-9,6
14:52:17:52104,4,2,0,-2,2,1,-3,-20
14:52:17:59621,4,2,0,-2,2,1,-3,-20
14:52:17:67031,-2,0,-10,-5,-4,-3,10,14
14:52:17:74570,-1,-6,-4,-2,-4,1,11,-2
14:52:17:82778,-1,-6,-4,-2,-4,1,11,-2
14:52:17:83623,0,-12,-2,-1,-1,-1,-10,-10
14:52:17:97768,3,10,1,0,3,4,-1,1
14:52:17:98616,3,10,1,0,3,4,-1,1
14:52:17:104558,0,-3,0,-1,-3,-2,-9,-6
14:52:17:112068,6,6,7,1,0,-2,-12,7
14:52:17:119644,6,6,7,1,0,-2,-12,7
14:52:17:127082,0,-4,-1,-1,-1,0,3,-9
14:52:17:134573,-21,-5,-3,-1,-1,-4,-12,-5
14:52:17:142171,-21,-5,-3,-1,-1,-4,-12,-5
14:52:17:149590,0,-2,4,-3,-2,0,0,-2
14:52:17:157760,4,1,-7,-1,-7,-3,3,-1
14:52:17:158537,4,1,-7,-1,-7,-3,3,-1
14:52:17:164567,-3,4,5,2,5,3,7,1
14:52:17:180274,4,1,3,0,1,1,8,1
14:52:17:181092,4,1,3,0,1,1,8,1
14:52:17:187059,2,-9,-2,-1,-2,-1,0,0
14:52:17:194608,2,-4,-7,-1,0,-3,-3,-2
14:52:17:202134,2,-4,-7,-1,0,-3,-3,-2
14:52:17:209586,4,-5,-2,-2,-2,-1,3,-1
14:52:17:217757,0,-1,2,1,-3,-4,-3,-4
14:52:17:218561,0,-1,2,1,-3,-4,-3,-4
14:52:17:224609,4,0,-2,-1,-1,-2,0,-1
14:52:17:240251,6,-3,-7,-3,0,-5,-10,-4
14:52:17:241067,6,-3,-7,-3,0,-5,-10,-4
14:52:17:247103,-2,3,-3,0,-3,-3,-4,1
14:52:17:254570,5,-4,2,-2,-2,-1,0,0
14:52:17:262123,5,-4,2,-2,-2,-1,0,0
14:52:17:269549,-6,4,-1,-3,-1,-4,-10,-7
14:52:17:277748,-1,-3,-3,-1,4,1,5,1
14:52:17:278609,-1,-3,-3,-1,4,1,5,1
14:52:17:284522,-4,-13,-7,-2,-3,0,4,-2
14:52:17:300276,2,-1,3,-1,-1,-1,0,-1
14:52:17:301059,2,-1,3,-1,-1,-1,0,-1
14:52:17:307067,-2,2,6,1,2,2,-4,-1
14:52:17:314544,3,6,-2,0,-1,1,-7,9
14:52:17:322112,3,6,-2,0,-1,1,-7,9
14:52:17:329539,1,-10,-2,-3,-4,-3,-2,6
14:52:17:337765,-1,1,4,1,-2,0,-1,4
14:52:17:338598,-1,1,4,1,-2,0,-1,4
14:52:17:344581,-17,-1,-2,-1,-2,-1,-13,-7
14:52:17:360263,-1,-6,-1,-1,0,0,3,3
14:52:17:361084,-1,-6,-1,-1,0,0,3,3
14:52:17:367097,3,-2,-8,-2,-2,-4,-1,-3
14:52:17:374558,-5,-2,-5,-2,0,1,9,-11
14:52:17:382170,-5,-2,-5,-2,0,1,9,-11
14:52:17:398435,-1,-7,3,3,4,3,3,6
14:52:17:399227,-1,3,-8,-3,-2,-2,-5,1
14:52:17:400046,-1,3,-8,-3,-2,-2,-5,1
14:52:17:404564,2,5,4,-2,-2,0,4,-2
14:52:17:420260,7,-5,2,-2,-3,-3,-5,-4
14:52:17:421091,7,-5,2,-2,-3,-3,-5,-4
14:52:17:427078,-10,-3,-12,-1,0,0,-3,-6
14:52:17:434547,4,-2,2,-2,-1,-2,-3,3
14:52:17:442123,4,-2,2,-2,-1,-2,-3,3
14:52:17:449542,5,4,1,-2,-3,-1,6,5
14:52:17:457794,-4,-20,-3,0,0,0,-1,1
14:52:17:458582,-4,-20,-3,0,0,0,-1,1
14:52:17:464577,-2,7,7,0,0,-3,-4,-2
14:52:17:480247,-4,5,3,0,-1,0,-3,-2
14:52:17:481084,-4,5,3,0,-1,0,-3,-2
14:52:17:487051,3,-1,-1,-1,0,-3,-3,2
14:52:17:494549,-1,9,1,0,0,4,14,-1
14:52:17:502131,-1,9,1,0,0,4,14,-1
14:52:17:509569,0,6,-1,-1,-3,-3,-1,-8
14:52:17:517783,-4,-2,-4,-1,-3,-1,-1,0
14:52:17:518600,-4,-2,-4,-1,-3,-1,-1,0
14:52:17:524584,-1,-10,-1,-1,0,-1,-5,8
14:52:17:540277,0,-7,-2,0,-1,-1,7,2
14:52:17:541085,0,-7,-2,0,-1,-1,7,2
14:52:17:547094,-1,5,2,0,-4,-6,-12,-8
14:52:17:554573,-1,1,2,0,1,-1,-5,-3
14:52:17:562156,-1,1,2,0,1,-1,-5,-3
14:52:17:569579,-1,1,0,0,-2,0,3,0
14:52:17:577715,-1,2,-1,-2,-1,-2,-2,-1
14:52:17:578538,-1,2,-1,-2,-1,-2,-2,-1
14:52:17:584608,0,-3,0,-1,0,2,-7,-4
14:52:17:600279,-3,-1,-2,0,-1,-2,-9,-3
14:52:17:601123,-3,-1,-2,0,-1,-2,-9,-3
14:52:17:607056,-3,-4,-3,-1,-1,2,11,-6
14:52:17:614558,9,15,3,-3,-4,-4,-10,-10
14:52:17:622096,9,15,3,-3,-4,-4,-10,-10
14:52:17:629608,-1,0,-4,-3,1,3,-1,2
14:52:17:637770,-2,-2,1,1,-1,-1,-5,3
14:52:17:638570,-2,-2,1,1,-1,-1,-5,3
14:52:17:644550,3,-3,0,-6,-1,-4,-1,-1
14:52:17:660243,-5,-3,-1,-1,1,-2,0,6
14:52:17:661064,-5,-3,-1,-1,1,-2,0,6
14:52:17:667139,2,-5,-5,0,-2,-3,3,4
14:52:17:674582,-4,-4,0,0,0,2,12,-2
14:52:17:682149,-4,-4,0,0,0,2,12,-2
14:52:17:689557,-4,4,-4,-3,-2,-6,-11,-22
14:52:17:697761,-2,-10,-10,-6,-2,-2,17,2
14:52:17:698578,-2,-10,-10,-6,-2,-2,17,2
14:52:17:704544,7,1,3,2,1,1,3,3
14:52:17:720269,-4,4,0,-1,3,2,-9,-6
14:52:17:721062,-4,4,0,-1,3,2,-9,-6
14:52:17:735240,3,3,0,-2,-5,-3,-4,3
14:52:17:736041,-3,0,-4,2,-3,-3,-7,-4
14:52:17:742087,-3,0,-4,2,-3,-3,-7,-4
14:52:17:749593,-7,3,-2,0,1,1,-1,0
14:52:17:757751,-6,2,4,4,-2,1,10,-1
14:52:17:758586,-6,2,4,4,-2,1,10,-1
14:52:17:764527,-8,-6,-3,-3,-1,-1,0,-1
14:52:17:780267,2,2,5,-3,0,2,-1,7
14:52:17:781075,2,2,5,-3,0,2,-1,7
14:52:17:787148,-22,-3,-1,-3,-4,-1,-2,0
14:52:17:794624,0,5,8,0,2,-1,-3,0
14:52:17:802122,0,5,8,0,2,-1,-3,0
14:52:17:818409,6,-11,6,3,0,0,-2,4
14:52:17:819192,-4,-5,-3,-3,-7,-5,-9,-1
14:52:17:820046,-4,-5,-3,-3,-7,-5,-9,-1
14:52:17:824599,5,-5,-1,0,2,3,3,-1
14:52:17:840257,-4,-5,-5,-4,-1,-4,-4,-4
14:52:17:841065,-4,-5,-5,-4,-1,-4,-4,-4
14:52:17:847095,-2,4,0,3,-3,-5,-4,0
14:52:17:854581,-2,-4,-1,1,1,-1,-8,-5
14:52:17:862119,-2,-4,-1,1,1,-1,-8,-5
14:52:17:869599,4,4,0,-1,-2,4,25,7
14:52:17:877791,-1,-4,-5,-4,0,-2,8,2
14:52:17:878569,-1,-4,-5,-4,0,-2,8,2
14:52:17:884555,0,-4,-7,-2,-1,-3,-11,-5
14:52:17:900268,3,-2,-4,0,-1,-5,-6,0
14:52:17:901074,3,-2,-4,0,-1,-5,-6,0
14:52:17:907048,-2,0,-3,-1,2,2,-1,1
14:52:17:914607,-5,-2,0,1,-1,0,0,-8
14:52:17:922132,-5,-2,0,1,-1,0,0,-8
14:52:17:929562,3,-1,-8,-12,-3,-1,1,7
14:52:17:937766,2,0,-1,-3,1,-5,-14,-2
14:52:17:938609,2,0,-1,-3,1,-5,-14,-2
14:52:17:944549,2,3,4,2,-1,2,22,0
14:52:17:960260,-1,0,0,-4,-8,-2,-11,-1
14:52:17:961085,-1,0,0,-4,-8,-2,-11,-1
14:52:17:967054,-2,-17,-2,3,4,2,-8,-4
14:52:17:974577,3,-6,-5,0,1,1,2,0
14:52:17:982143,3,-6,-5,0,1,1,2,0
14:52:17:989535,0,4,3,-1,-3,-3,-7,-13
14:52:17:997784,-5,-15,-2,-2,-2,1,1,-2
14:52:17:998585,-5,-15,-2,-2,-2,1,1,-2
14:52:18:4598,-4,2,-3,0,0,-8,-14,-2
14:52:18:20253,1,7,0,0,0,-1,0,-1
14:52:18:21099,1,7,0,0,0,-1,0,-1
14:52:18:35210,2,1,0,0,-2,-1,-7,1
14:52:18:36070,-3,3,0,1,-1,2,6,3
14:52:18:42103,-3,3,0,1,-1,2,6,3
14:52:18:49570,-2,1,1,0,-1,-2,4,0
14:52:18:57755,0,0,-1,-1,0,1,3,4
14:52:18:58611,0,0,-1,-1,0,1,3,4
14:52:18:64549,3,-1,-2,0,-1,-2,-10,2
14:52:18:80272,-1,-21,-2,1,-1,0,1,1
14:52:18:81078,-1,-21,-2,1,-1,0,1,1
14:52:18:87044,-3,5,3,2,-4,-2,-9,-4
14:52:18:102747,-2,6,6,-1,-4,-3,4,-5
14:52:18:103587,-2,6,6,-1,-4,-3,4,-5
14:52:18:109554,1,-1,-1,7,5,4,0,0
14:52:18:117761,0,11,-1,-2,-2,-4,-15,-13
14:52:18:118579,0,11,-1,-2,-2,-4,-15,-13
14:52:18:132063,0,7,4,2,-2,-4,3,2
14:52:18:140290,1,0,-1,-2,2,3,0,12
14:52:18:141059,1,0,-1,-2,2,3,0,12
14:52:18:147055,-5,1,-7,-5,2,2,-1,6
14:52:18:162729,3,-3,-2,0,0,0,2,-2
14:52:18:163574,3,-3,-2,0,0,0,2,-2
14:52:18:169633,0,2,-2,-5,-6,-4,0,-1
14:52:18:177758,-4,-3,0,1,-1,2,-6,2
14:52:18:178588,-4,-3,0,1,-1,2,-6,2
14:52:18:192071,-4,-7,3,0,0,-2,-5,-8
14:52:18:200218,0,-9,-6,-3,-4,-2,5,-2
14:52:18:201091,0,-9,-6,-3,-4,-2,5,-2
14:52:18:207052,0,-4,2,-2,-4,-2,-6,-3
14:52:18:222725,-2,7,0,-2,3,2,5,6
14:52:18:223556,-2,7,0,-2,3,2,5,6
14:52:18:229563,-1,-7,-3,-1,-2,1,7,4
14:52:18:237788,-4,8,1,0,-2,-8,-16,-7
14:52:18:238559,-4,8,1,0,-2,-8,-16,-7
14:52:18:252092,3,-2,-3,-1,0,1,4,-3
14:52:18:260208,-2,-6,-5,-2,-2,-1,6,-1
14:52:18:261029,-2,-6,-5,-2,-2,-1,6,-1
14:52:18:267056,-7,-5,-2,-4,-2,-3,-4,-3
14:52:18:282806,-1,-1,-1,0,0,-1,-6,-3
14:52:18:283628,-1,-1,-1,0,0,-1,-6,-3
14:52:18:289598,-3,0,1,-1,-2,0,-8,-6
14:52:18:297733,1,2,-1,-1,2,1,-7,-6
14:52:18:298550,1,2,-1,-1,2,1,-7,-6
14:52:18:312093,4,5,2,0,-3,0,5,3
14:52:18:320279,-5,1,-6,-2,-3,0,-3,-18
14:52:18:321108,-5,1,-6,-2,-3,0,-3,-18
14:52:18:327095,2,4,-5,-2,0,1,-2,-3
14:52:18:342820,-3,-2,2,-1,-1,-1,7,3
14:52:18:343590,-3,-2,2,-1,-1,-1,7,3
14:52:18:349591,-3,-4,-5,-3,-1,0,2,-4
14:52:18:357727,-2,2,3,-1,-1,-2,20,9
14:52:18:358566,-2,2,3,-1,-1,-2,20,9
14:52:18:372045,-8,-10,-7,-1,-1,2,10,-2
14:52:18:380302,-8,-10,-7,-1,-1,2,10,-2
14:52:18:381100,-15,-5,1,-2,1,0,-8,-8
14:52:18:387085,0,-1,1,1,0,-3,1,0
14:52:18:402792,0,-1,1,1,0,-3,1,0
14:52:18:403603,0,-2,-2,0,-1,-2,-1,-13
14:52:18:409549,3,13,4,-1,-1,4,3,-1
14:52:18:417142,3,13,4,-1,-1,4,3,-1
14:52:18:424554,8,2,2,0,-1,-1,5,13
14:52:18:432071,-2,-3,-2,0,0,-3,-8,-5
14:52:18:440244,-2,-3,-2,0,0,-3,-8,-5
14:52:18:441041,3,14,2,0,-3,-4,-2,1
14:52:18:447068,-10,2,-6,-2,-1,1,10,2
14:52:18:462825,-10,2,-6,-2,-1,1,10,2
14:52:18:463620,-3,-7,-11,-3,-1,7,23,0
14:52:18:469584,5,-4,13,1,0,-3,-12,-6
14:52:18:477095,5,-4,13,1,0,-3,-12,-6
14:52:18:484585,-1,-1,-1,-1,0,6,20,2
14:52:18:492079,-1,-5,-2,-1,1,-3,-15,-1
14:52:18:500259,-1,-5,-2,-1,1,-3,-15,-1
14:52:18:501063,5,-2,0,0,-1,-6,-27,-1
14:52:18:507084,1,29,5,2,0,-1,-2,4
14:52:18:522777,1,29,5,2,0,-1,-2,4
14:52:18:523603,-2,0,-3,-3,-2,-2,-2,-1
14:52:18:529573,2,-9,-4,0,1,-4,-2,3
14:52:18:537130,2,-9,-4,0,1,-4,-2,3
14:52:18:544559,0,-4,-1,-1,-3,-4,-10,0
14:52:18:552093,1,-3,-7,-1,1,2,10,4
14:52:18:560309,1,-3,-7,-1,1,2,10,4
14:52:18:561091,-5,-2,-2,1,-3,-4,-4,-15
14:52:18:567085,-1,-2,0,-2,0,-1,6,-1
14:52:18:582775,-1,-2,0,-2,0,-1,6,-1
14:52:18:583591,1,4,6,0,4,1,-5,5
14:52:18:589550,-3,-11,-5,-1,-2,-1,0,-2
14:52:18:597100,-3,-11,-5,-1,-2,-1,0,-2
14:52:18:604574,-5,6,-2,-1,-3,-2,-15,-9
14:52:18:612094,-2,-8,-7,-5,-8,-6,-5,1
14:52:18:620322,-2,-8,-7,-5,-8,-6,-5,1
14:52:18:621119,8,7,5,0,4,7,3,2
14:52:18:627078,6,0,2,-1,-2,-4,-5,0
14:52:18:642790,6,0,2,-1,-2,-4,-5,0
14:52:18:643575,-1,-6,-4,-2,-6,-6,5,3
14:52:18:649551,-1,4,2,4,9,8,14,4
14:52:18:657136,-1,4,2,4,9,8,14,4
14:52:18:664561,2,-7,-1,-1,1,-1,-15,4
14:52:18:672084,-3,4,2,-3,-6,-8,-10,-3
14:52:18:680322,-3,4,2,-3,-6,-8,-10,-3
14:52:18:681104,-4,-6,-3,0,0,-1,-5,3
14:52:18:687145,0,-3,-7,-2,3,4,8,-9
14:52:18:702816,0,-3,-7,-2,3,4,8,-9
14:52:18:703638,4,-1,2,-1,0,0,1,2
14:52:18:709559,-1,-4,1,-2,-3,-1,0,5
14:52:18:717149,-1,-4,1,-2,-3,-1,0,5
14:52:18:724587,-3,10,1,-2,-2,-4,2,-2
14:52:18:732097,-2,3,-7,-2,-2,0,-12,-6
14:52:18:740275,-2,3,-7,-2,-2,0,-12,-6
14:52:18:741094,-2,-9,-5,-2,-2,-3,4,-7
14:52:18:747089,-1,3,8,-2,-2,-8,-19,-3
14:52:18:762845,-1,3,8,-2,-2,-8,-19,-3
14:52:18:763644,-8,-8,-7,0,1,8,12,1
14:52:18:769572,-9,-9,1,-2,-4,-4,-3,-6
14:52:18:777078,-9,-9,1,-2,-4,-4,-3,-6
14:52:18:784580,-3,-4,-5,-1,1,-2,-3,-13
14:52:18:792110,2,1,4,1,3,1,0,-1
14:52:18:800266,2,1,4,1,3,1,0,-1
14:52:18:801131,2,-1,2,-4,-5,-9,0,3
14:52:18:807062,-2,-9,-6,-1,0,0,4,4
14:52:18:822564,-2,-9,-6,-1,0,0,4,4
14:52:18:837748,1,16,1,1,2,1,4,4
14:52:18:838517,0,-1,-4,-2,-3,2,9,2
14:52:18:845312,0,-1,-4,-2,-3,2,9,2
14:52:18:846098,-9,-3,2,-2,0,-3,-6,8
14:52:18:852060,8,-1,-3,1,2,0,-10,0
14:52:18:860257,8,-1,-3,1,2,0,-10,0
14:52:18:861040,6,-7,-4,-1,-2,1,-1,3
14:52:18:867060,-3,-11,-9,-2,-3,0,0,-2
14:52:18:882735,-3,-11,-9,-2,-3,0,0,-2
14:52:18:883589,0,-7,-2,-1,1,1,-12,-4
14:52:18:889589,6,-4,-1,-2,0,0,-4,3
14:52:18:897099,6,-4,-1,-2,0,0,-4,3
14:52:18:904589,-5,-11,2,0,1,2,2,-6
14:52:18:912082,-4,12,0,0,-3,-1,1,-1
14:52:18:920301,-4,12,0,0,-3,-1,1,-1
14:52:18:921079,3,2,4,-1,-2,-6,-1,-2
14:52:18:927104,-1,25,-4,-1,-1,-3,-9,-1
14:52:18:942773,-1,25,-4,-1,-1,-3,-9,-1
14:52:18:943586,1,4,-1,-3,0,1,19,10
14:52:18:949591,-9,-14,1,0,0,0,-2,-6
14:52:18:957118,-9,-14,1,0,0,0,-2,-6
14:52:18:972786,6,3,0,0,0,-3,-7,0
14:52:18:973560,3,6,6,-1,-1,1,11,2
14:52:18:980276,3,6,6,-1,-1,1,11,2
14:52:18:981087,0,-3,3,0,-2,1,-3,-1
14:52:18:987107,-6,-7,-12,-2,-3,-4,-2,-5
14:52:19:2757,-6,-7,-12,-2,-3,-4,-2,-5
14:52:19:3535,4,-2,-2,1,2,-4,6,-2
14:52:19:9610,-5,-12,4,1,0,-4,-11,-3
14:52:19:17148,-5,-12,4,1,0,-4,-11,-3
14:52:19:24528,-8,-11,-3,-3,-4,0,3,-5
14:52:19:32080,7,3,7,-1,-4,-6,-9,-1
14:52:19:40288,7,3,7,-1,-4,-6,-9,-1
14:52:19:41069,-8,20,6,2,-2,-2,-9,1
14:52:19:54600,3,7,9,0,1,3,5,2
14:52:19:62777,3,7,9,0,1,3,5,2
14:52:19:63609,1,6,-1,-1,-3,-1,-5,1
14:52:19:69532,-3,-2,-3,-2,0,-4,5,0
14:52:19:77145,-3,-2,-3,-2,0,-4,5,0
14:52:19:84573,0,-11,-7,0,1,3,1,5
14:52:19:92108,6,-8,-8,-2,-2,-1,2,1
14:52:19:100290,6,-8,-8,-2,-2,-1,2,1
14:52:19:101070,-8,4,-2,-2,-1,-6,-15,-8
14:52:19:115073,-6,-7,5,-3,-6,-4,2,-3
14:52:19:122809,-6,-7,5,-3,-6,-4,2,-3
14:52:19:123619,7,-3,1,1,4,2,10,11
14:52:19:129582,-4,-2,-10,-3,-2,2,7,-2
14:52:19:137157,-4,-2,-10,-3,-2,2,7,-2
14:52:19:152703,2,7,-6,0,-1,-2,-3,-4
14:52:19:153515,-1,-11,-11,3,4,6,-1,-1
14:52:19:160280,-1,-11,-11,3,4,6,-1,-1
14:52:19:161070,-2,9,-1,-3,-4,-2,3,-4
14:52:19:174530,-3,-17,-10,-4,-2,-5,-6,-11
14:52:19:182783,-3,-17,-10,-4,-2,-5,-6,-11
14:52:19:183605,-1,-7,2,-2,-1,-3,-6,-4
14:52:19:189530,-5,1,0,-1,-6,3,11,-2
14:52:19:205283,-5,1,0,-1,-6,3,11,-2
14:52:19:206053,1,-8,-7,-2,-2,0,6,-4
14:52:19:212091,8,-14,3,0,4,3,-8,3
14:52:19:220278,8,-14,3,0,4,3,-8,3
14:52:19:221075,-1,1,-1,-2,-3,-5,-2,-4
14:52:19:234593,-2,10,8,0,-3,-3,-1,1
14:52:19:242779,-2,10,8,0,-3,-3,-1,1
14:52:19:243574,0,7,12,-13,13,0,-3,-1
14:52:19:249558,2,3,-2,-1,2,1,4,10
14:52:19:257123,2,3,-2,-1,2,1,4,10
14:52:19:264577,-5,-4,5,10,-5,-2,-5,-6
14:52:19:272060,-4,3,2,-1,0,0,1,-3
14:52:19:280301,-4,3,2,-1,0,0,1,-3
14:52:19:281097,-4,-8,-6,0,-2,0,1,-6
14:52:19:294535,-11,1,-7,1,-4,-3,2,-1
14:52:19:302769,-11,1,-7,1,-4,-3,2,-1
14:52:19:303578,0,-14,-5,0,0,2,-8,-4
14:52:19:309555,3,-4,4,-1,-1,-2,-2,4
14:52:19:317121,3,-4,4,-1,-1,-2,-2,4
14:52:19:324569,6,-2,2,1,-1,0,-5,3
14:52:19:332070,1,13,-4,-6,5,-1,-9,-11
14:52:19:340087,1,13,-4,-6,5,-1,-9,-11
14:52:19:347062,-15,-9,-14,-6,-4,-3,-2,-1
14:52:19:354565,3,-5,-10,8,-1,-3,-5,-6
14:52:19:362742,3,-5,-10,8,-1,-3,-5,-6
14:52:19:363605,4,6,2,-1,-2,1,-10,4
14:52:19:369590,0,-2,10,2,1,0,-3,-1
14:52:19:377107,0,-2,10,2,1,0,-3,-1
14:52:19:384552,-1,-5,1,1,-2,1,-4,2
14:52:19:392111,3,0,11,-3,-3,-2,12,8
14:52:19:400283,3,0,11,-3,-3,-2,12,8
14:52:19:401095,-1,-6,11,2,1,0,4,-1
14:52:19:414602,-7,-3,-3,-4,-3,1,3,5
14:52:19:422752,-7,-3,-3,-4,-3,1,3,5
14:52:19:423537,4,-5,-8,2,0,-2,-4,-9
14:52:19:429614,0,3,-7,-2,0,1,-16,-3
14:52:19:445253,0,3,-7,-2,0,1,-16,-3
14:52:19:446057,2,-7,0,1,0,1,6,-1
14:52:19:452125,3,5,1,-3,-1,-2,-6,-1
14:52:19:460295,3,5,1,-3,-1,-2,-6,-1
14:52:19:461048,0,10,5,-1,0,1,3,4
14:52:19:474569,-7,-6,-1,5,-3,-4,-10,-15
14:52:19:482739,-7,-6,-1,5,-3,-4,-10,-15
14:52:19:483610,-4,2,8,-1,3,0,1,-8
14:52:19:489592,-12,-8,0,1,-1,-1,1,-6
14:52:19:497096,-12,-8,0,1,-1,-1,1,-6
14:52:19:504568,-3,25,-4,-3,-6,-3,-4,3
14:52:19:512109,0,7,4,-2,3,-1,7,0
14:52:19:520280,0,7,4,-2,3,-1,7,0
14:52:19:521071,-1,-22,-15,-7,-3,-2,1,-1
14:52:19:534620,0,5,3,-1,-4,2,7,3
14:52:19:542782,0,5,3,-1,-4,2,7,3
14:52:19:543566,1,-1,-23,2,2,-2,-1,-1
14:52:19:549632,-1,4,-1,-6,-4,1,1,8
14:52:19:557160,-1,4,-1,-6,-4,1,1,8
14:52:19:564558,-3,-8,10,-5,0,-2,3,4
14:52:19:572107,-2,-30,1,5,6,1,0,2
14:52:19:580326,-2,-30,1,5,6,1,0,2
14:52:19:581089,1,4,-6,-12,-3,0,-2,1
14:52:19:594609,-4,11,11,0,-2,0,4,7
14:52:19:602795,-4,11,11,0,-2,0,4,7
14:52:19:603593,6,-16,0,12,4,-2,-7,-10
14:52:19:609537,4,-2,-9,-6,-8,-3,-4,-6
14:52:19:617107,4,-2,-9,-6,-8,-3,-4,-6
14:52:19:624569,2,16,-2,3,-3,-1,0,5
14:52:19:632068,1,9,-6,0,5,0,3,2
14:52:19:640288,1,9,-6,0,5,0,3,2
14:52:19:641090,-7,-23,-18,-1,-5,-2,-8,-14
14:52:19:654546,-5,-7,-6,-19,-5,-3,-9,-7
14:52:19:662803,-5,-7,-6,-19,-5,-3,-9,-7
14:52:19:663591,-13,5,15,7,-6,0,4,1
14:52:19:669592,7,23,15,-22,-9,-4,2,0
14:52:19:685285,7,23,15,-22,-9,-4,2,0
14:52:19:686108,8,2,4,-11,-5,-2,-2,3
14:52:19:692082,6,17,-5,14,1,-2,0,6
14:52:19:700299,6,17,-5,14,1,-2,0,6
14:52:19:701074,0,-6,-2,-1,-7,-4,-4,-5
14:52:19:714573,-15,7,-8,-4,3,-1,-4,-3
14:52:19:722778,-15,7,-8,-4,3,-1,-4,-3
14:52:19:723639,2,-10,8,6,6,2,8,11
14:52:19:729571,3,-5,-8,-10,0,1,1,0
14:52:19:753477,3,-5,-8,-10,0,1,1,0
14:52:19:754282,-2,-31,2,-17,-6,-3,0,-1
14:52:19:755094,3,0,-5,14,2,4,1,-4
14:52:19:760250,3,0,-5,14,2,4,1,-4
14:52:19:761068,0,26,-15,-13,6,2,3,2
14:52:19:774593,10,2,8,9,-1,-3,-3,1
14:52:19:790964,10,2,8,9,-1,-3,-3,1
14:52:19:791751,-3,3,-2,-1,-2,-1,-4,-10
14:52:19:792569,-7,9,16,19,15,0,4,0
14:52:19:797144,-7,9,16,19,15,0,4,0
14:52:19:804569,-5,-6,10,25,15,3,2,2
14:52:19:812077,-7,-15,-1,6,-9,-2,-3,-5
14:52:19:820281,-7,-15,-1,6,-9,-2,-3,-5
14:52:19:821087,-3,3,-20,-15,3,1,-2,0
14:52:19:835097,-2,-4,2,-19,-14,-4,-5,-4
14:52:19:842797,-2,-4,2,-19,-14,-4,-5,-4
14:52:19:843597,8,1,9,20,2,-3,-1,-2
14:52:19:857777,11,2,-38,-26,0,1,-1,0
14:52:19:858594,11,2,-38,-26,0,1,-1,0
14:52:19:864582,-8,7,14,1,-7,-4,-2,1
14:52:19:872065,-2,-32,0,-2,-2,-3,-1,-3
14:52:19:880310,-2,-32,0,-2,-2,-3,-1,-3
14:52:19:881104,8,19,-26,4,-2,-5,-5,-2
14:52:19:894556,-7,-10,-15,8,2,7,2,-3
14:52:19:902822,-7,-10,-15,8,2,7,2,-3
14:52:19:903583,0,10,18,6,-6,-1,2,3
14:52:19:909558,3,5,6,13,5,1,0,4
14:52:19:925288,3,5,6,13,5,1,0,4
14:52:19:926090,3,15,16,9,0,2,0,4
14:52:19:932056,-8,-14,-9,-9,-8,-5,-2,-3
14:52:19:940303,-8,-14,-9,-9,-8,-5,-2,-3
14:52:19:941083,1,8,11,-34,-10,-2,0,3
14:52:19:954542,-3,1,27,16,4,-1,-3,-7
14:52:19:963399,-3,1,27,16,4,-1,-3,-7
14:52:19:964220,-30,-20,-3,6,-7,-4,-4,-4
14:52:19:977777,-5,12,6,2,-2,-3,3,5
14:52:19:978595,-5,12,6,2,-2,-3,3,5
14:52:19:984571,-8,0,-16,-31,-8,-2,-1,-3
14:52:19:992093,9,22,25,25,6,1,-1,3
14:52:19:999599,9,22,25,25,6,1,-1,3
14:52:20:7056,6,-10,6,7,3,1,1,-3
14:52:20:14587,6,21,-17,-14,-1,-1,-1,0
14:52:20:22787,6,21,-17,-14,-1,-1,-1,0
14:52:20:23603,0,5,4,12,11,-1,-2,-7
14:52:20:37798,-24,22,18,-22,-13,-3,-3,-1
14:52:20:38588,-24,22,18,-22,-13,-3,-3,-1
14:52:20:44573,4,-10,-4,12,-1,0,1,1
14:52:20:52076,-6,-20,-31,13,-2,-2,-2,-5
14:52:20:59706,-6,-20,-31,13,-2,-2,-2,-5
14:52:20:67077,3,14,14,3,-5,0,0,2
14:52:20:74595,8,-4,7,5,4,1,1,1
14:52:20:82788,8,-4,7,5,4,1,1,1
14:52:20:83542,4,-7,7,12,7,-3,-3,-8
14:52:20:97118,2,-5,13,-10,4,0,-1,-1
14:52:20:105358,2,-5,13,-10,4,0,-1,-1
14:52:20:106126,3,-13,-4,-5,3,0,-2,-2
14:52:20:112125,-23,-7,-2,2,1,-1,-2,-7
14:52:20:119627,-23,-7,-2,2,1,-1,-2,-7
14:52:20:127150,-2,18,-4,-27,-8,1,-1,-1
14:52:20:134593,8,-5,-15,-14,-13,-2,1,3
14:52:20:142765,8,-5,-15,-14,-13,-2,1,3
14:52:20:143580,-7,-23,-2,-16,-7,-1,-3,-3
14:52:20:157077,7,9,-5,-4,2,-1,-3,-5
14:52:20:165237,7,9,-5,-4,2,-1,-3,-5
14:52:20:166056,6,-10,-6,20,9,0,-2,-1
14:52:20:172116,-10,-27,1,-6,-6,-3,0,3
14:52:20:179602,-10,-27,1,-6,-6,-3,0,3
14:52:20:187100,8,-5,-23,-11,-7,1,-3,2
14:52:20:194574,4,1,-17,-2,0,-2,-2,-1
14:52:20:202769,4,1,-17,-2,0,-2,-2,-1
14:52:20:203545,-6,7,-10,4,-7,-8,-3,-1
14:52:20:217750,7,17,16,-7,-2,0,1,5
14:52:20:218587,7,17,16,-7,-2,0,1,5
14:52:20:224576,-14,3,3,10,1,0,3,5
14:52:20:232089,-8,7,-21,-10,3,0,3,-1
14:52:20:239600,-8,7,-21,-10,3,0,3,-1
14:52:20:247083,6,-5,-5,-15,-6,-1,-3,-2
14:52:20:263380,-13,-3,12,20,1,-1,-3,-4
14:52:20:264245,-13,-3,12,20,1,-1,-3,-4
14:52:20:265065,-2,-13,19,13,4,-1,-1,1
14:52:20:277092,8,-15,12,7,-3,-3,-5,-2
14:52:20:285261,8,-15,12,7,-3,-3,-5,-2
14:52:20:286083,9,13,14,10,3,4,-3,-11
14:52:20:292107,-3,-3,8,5,4,1,-1,-3
14:52:20:299617,-3,-3,8,5,4,1,-1,-3
14:52:20:307092,7,9,-1,-1,-4,0,7,8
14:52:20:314544,7,-1,-14,-6,4,0,0,-1
14:52:20:322785,7,-1,-14,-6,4,0,0,-1
14:52:20:323614,-15,9,-14,5,3,-1,-2,-6
14:52:20:337098,-4,-9,-5,-2,-4,-4,-1,-2
14:52:20:345269,-4,-9,-5,-2,-4,-4,-1,-2
14:52:20:346093,5,-13,-25,18,7,-1,5,3
14:52:20:352090,-7,-11,11,-17,-9,0,-4,-8
14:52:20:359634,-7,-11,11,-17,-9,0,-4,-8
14:52:20:367103,-24,-10,-12,-25,-5,-2,-6,-4
14:52:20:374558,-1,3,9,14,3,0,-2,1
14:52:20:382824,-1,3,9,14,3,0,-2,1
14:52:20:383624,7,-5,14,-18,-4,0,2,4
14:52:20:397089,-4,6,-10,-12,-3,0,-1,-4
14:52:20:405317,-4,6,-10,-12,-3,0,-1,-4
14:52:20:406088,6,6,-1,-8,-3,-3,0,2
14:52:20:412123,4,0,16,11,2,-2,-1,-1
14:52:20:419650,4,0,16,11,2,-2,-1,-1
14:52:20:427084,-15,-30,-51,-17,-2,-2,-8,-14
14:52:20:434564,-3,-4,-6,4,-2,-2,-3,-8
14:52:20:442792,-3,-4,-6,4,-2,-2,-3,-8
14:52:20:443613,12,18,17,5,-11,-6,-1,3
14:52:20:457093,11,-16,-6,1,7,2,0,1
14:52:20:465312,11,-16,-6,1,7,2,0,1
14:52:20:466094,-9,0,18,7,4,1,-1,0
14:52:20:472077,1,-6,-15,-7,0,-1,-1,1
14:52:20:479678,1,-6,-15,-7,0,-1,-1,1
14:52:20:487080,7,2,2,13,-1,0,0,2
14:52:20:494626,-19,-1,-1,-17,-6,-2,-1,0
14:52:20:502740,-19,-1,-1,-17,-6,-2,-1,0
14:52:20:503530,5,-5,7,2,-6,1,4,10
14:52:20:517808,-4,0,-18,-11,-4,-1,1,1
14:52:20:518612,-4,0,-18,-11,-4,-1,1,1
14:52:20:524615,-6,8,12,1,4,1,-2,-2
14:52:20:532084,6,-25,-15,-2,-7,-3,-3,1
14:52:20:539629,6,-25,-15,-2,-7,-3,-3,1
14:52:20:547132,2,-1,3,-3,2,0,-1,-3
14:52:20:554590,-2,-8,-8,8,-4,-3,-5,-5
14:52:20:562770,-2,-8,-8,8,-4,-3,-5,-5
14:52:20:563575,-3,5,0,-10,-3,3,-3,-3
14:52:20:577069,5,-4,8,5,0,-1,4,3
14:52:20:585283,5,-4,8,5,0,-1,4,3
14:52:20:586069,-35,2,-11,-37,-17,-5,-1,2
14:52:20:592092,-2,13,5,-8,0,2,2,3
14:52:20:599593,-2,13,5,-8,0,2,2,3
14:52:20:607100,5,15,30,16,6,0,1,0
14:52:20:614542,2,2,9,17,7,-2,-1,1
14:52:20:622772,2,2,9,17,7,-2,-1,1
14:52:20:623594,4,-5,-16,4,11,1,1,-1
14:52:20:637111,5,5,3,11,5,-1,0,0
14:52:20:645283,5,5,3,11,5,-1,0,0
14:52:20:646076,7,-21,-27,-19,-3,-2,-1,-3
14:52:20:652083,3,-29,-5,-7,-4,0,1,6
14:52:20:659619,3,-29,-5,-7,-4,0,1,6
14:52:20:667087,0,1,-1,17,0,-2,-8,-11
14:52:20:674563,1,8,-17,-14,0,1,-1,-1
14:52:20:682819,1,8,-17,-14,0,1,-1,-1
14:52:20:683595,0,-14,-14,8,2,-2,1,0
14:52:20:697101,-4,-4,14,22,11,0,-4,-3
14:52:20:705290,-4,-4,14,22,11,0,-4,-3
14:52:20:706093,1,24,11,6,0,0,-1,-1
14:52:20:712100,4,-4,1,4,-15,-6,-1,-4
14:52:20:719631,4,-4,1,4,-15,-6,-1,-4
14:52:20:727119,-8,-12,-25,-9,-3,1,2,3
14:52:20:734554,1,20,1,-6,-5,-4,-2,-1
14:52:20:742821,1,20,1,-6,-5,-4,-2,-1
14:52:20:743589,11,16,16,14,-1,-1,0,3
14:52:20:765895,-2,-13,-9,1,4,0,-6,-4
14:52:20:766753,-2,-13,-9,1,4,0,-6,-4
14:52:20:767577,1,-10,7,-10,-3,-3,-2,2
14:52:20:772129,-21,-4,10,7,4,2,3,1
14:52:20:779635,-21,-4,10,7,4,2,3,1
14:52:20:787113,-4,-8,2,12,7,3,1,-4
14:52:20:794562,-1,3,-18,-25,-3,0,-1,-2
14:52:20:802823,-1,3,-18,-25,-3,0,-1,-2
14:52:20:803620,4,-5,-19,-12,1,-2,0,-1
14:52:20:818257,-11,3,18,8,1,1,1,-1
14:52:20:819073,-11,3,18,8,1,1,1,-1
14:52:20:824556,0,-11,20,12,12,-2,-2,-4
14:52:20:832068,7,9,-14,-18,-9,-3,-1,0
14:52:20:839635,7,9,-14,-18,-9,-3,-1,0
14:52:20:847081,-7,12,6,-8,-15,-2,-3,-2
14:52:20:854580,0,4,1,4,1,0,-3,0
14:52:20:862801,0,4,1,4,1,0,-3,0
14:52:20:863626,1,-9,-20,-17,-3,0,0,-1
14:52:20:877105,10,9,5,0,-3,1,2,0
14:52:20:885326,10,9,5,0,-3,1,2,0
14:52:20:886092,-4,-30,-8,0,0,-1,-1,-3
14:52:20:892107,-1,-5,-23,-7,-2,-4,-3,-1
14:52:20:899668,-1,-5,-23,-7,-2,-4,-3,-1
14:52:20:907084,2,19,-22,-45,-15,-3,-2,-2
14:52:20:914573,3,1,6,12,-5,-1,0,2
14:52:20:922102,3,1,6,12,-5,-1,0,2
14:52:20:929588,2,-6,11,16,-3,-2,-2,1
14:52:20:937075,-6,10,-9,-7,-7,-3,-5,-2
14:52:20:945247,-6,10,-9,-7,-7,-3,-5,-2
14:52:20:946052,-2,-12,-15,6,1,1,1,0
14:52:20:960228,3,-3,14,12,5,2,1,1
14:52:20:961081,3,-3,14,12,5,2,1,1
14:52:20:967115,-4,-16,9,13,6,0,-1,-1
14:52:20:974571,-3,30,17,-2,4,-1,-1,-1
14:52:20:982103,-3,30,17,-2,4,-1,-1,-1
14:52:20:989566,-16,12,19,10,6,1,0,0
14:52:20:997755,4,-19,0,-10,-11,-3,-3,-3
14:52:20:998593,4,-19,0,-10,-11,-3,-3,-3
14:52:21:4552,3,2,13,-2,-3,-3,-1,-3
14:52:21:20285,1,6,2,17,5,3,2,0
14:52:21:21088,1,6,2,17,5,3,2,0
14:52:21:27088,9,30,-2,-16,-6,-2,-1,0
14:52:21:34507,-5,6,0,3,4,-4,-6,-4
14:52:21:42150,-5,6,0,3,4,-4,-6,-4
14:52:21:49583,7,2,-3,2,-8,-1,2,2
14:52:21:57085,-7,-55,-23,3,4,0,1,-2
14:52:21:65284,-7,-55,-23,3,4,0,1,-2
14:52:21:66090,5,-8,-25,-22,0,2,0,2
14:52:21:80273,8,3,4,0,-7,-4,-3,-4
14:52:21:81100,8,3,4,0,-7,-4,-3,-4
14:52:21:87120,13,-17,4,9,5,0,2,-1
