Time,EMG1,EMG2,EMG3,EMG4,EMG5,EMG6,EMG7,EMG8
22:18:16:139609,-2,-3,-1,-2,-1,-1,-2,-1
22:18:16:147371,-2,-3,-1,-2,-1,-1,-2,-1
22:18:16:148187,-2,-2,-2,0,-2,-1,-1,2
22:18:16:154169,-2,-1,-1,-1,1,0,1,-1
22:18:16:169868,-2,-1,-1,-1,1,0,1,-1
22:18:16:170692,1,-1,-1,-1,-3,-1,2,-1
22:18:16:176649,-2,-2,0,-2,0,1,0,-3
22:18:16:184924,-2,-2,0,-2,0,1,0,-3
22:18:16:185717,0,1,-6,-1,-1,0,-2,-2
22:18:16:199200,-1,-1,0,-2,0,0,-1,-1
22:18:16:207388,-1,-1,0,-2,0,0,-1,-1
22:18:16:208203,-2,-1,0,3,0,0,0,-2
22:18:16:214141,0,-3,-2,-4,-3,-3,-1,0
22:18:16:229888,0,-3,-2,-4,-3,-3,-1,0
22:18:16:230665,1,5,-5,-5,-2,-1,0,1
22:18:16:236675,-3,-2,0,0,0,-3,-2,-1
22:18:16:252397,-3,-2,0,0,0,-3,-2,-1
22:18:16:253164,-1,0,2,0,-2,-2,-3,-1
22:18:16:259182,0,0,-1,-2,-3,0,-2,-1
22:18:16:267386,0,0,-1,-2,-3,0,-2,-1
22:18:16:268208,-1,-3,0,-2,-1,1,-1,-1
22:18:16:281694,-1,-3,-2,-1,0,-1,-1,-1
22:18:16:289873,-1,-3,-2,-1,0,-1,-1,-1
22:18:16:290684,-1,-2,0,-2,-1,1,-1,-1
22:18:16:296704,-2,-4,-7,-1,-1,0,0,-1
22:18:16:304881,-2,-4,-7,-1,-1,0,0,-1
22:18:16:305683,-3,-3,-2,-2,1,-1,-2,-2
22:18:16:319198,1,0,2,0,-1,-2,-2,-1
22:18:16:327375,1,0,2,0,-1,-2,-2,-1
22:18:16:328173,1,-1,0,-2,-1,0,-2,0
22:18:16:334205,-1,-3,0,0,0,1,1,-1
22:18:16:349934,-1,-3,0,0,0,1,1,-1
22:18:16:350727,-1,0,3,0,-1,-2,0,-2
22:18:16:356716,2,0,-1,0,0,-1,0,0
22:18:16:364193,2,0,-1,0,0,-1,0,0
22:18:16:371725,-2,-3,-3,0,0,-2,0,0
22:18:16:379190,0,0,1,0,-1,0,0,-1
22:18:16:387389,0,0,1,0,-1,0,0,-1
22:18:16:388229,-1,0,-1,0,0,0,0,0
22:18:16:401684,0,1,0,-1,-2,-1,-2,0
22:18:16:418144,0,1,0,-1,-2,-1,-2,0
22:18:16:418864,-1,-4,-1,0,-1,0,-1,-1
22:18:16:419684,-1,0,-2,-1,0,-3,-2,0
22:18:16:424214,-1,0,-2,-1,0,-3,-2,0
22:18:16:431714,-1,-3,0,1,-2,-2,-2,-3
22:18:16:448053,-1,-2,1,0,1,-3,-1,-2
22:18:16:448899,-1,-2,1,0,1,-3,-1,-2
22:18:16:449682,-1,1,-3,-1,0,-2,0,1
22:18:16:461685,-2,-2,-1,-1,0,0,0,-1
22:18:16:469907,-2,-2,-1,-1,0,0,0,-1
22:18:16:470690,-2,-1,-1,-1,-2,-1,-1,-1
22:18:16:476680,-2,-1,-1,-1,-1,0,0,-1
22:18:16:484259,-2,-1,-1,-1,-1,0,0,-1
22:18:16:491715,1,-1,-1,-1,0,1,-2,0
22:18:16:499206,1,-1,0,0,-2,0,-1,-1
22:18:16:507380,1,-1,0,0,-2,0,-1,-1
22:18:16:508188,-2,-2,-1,-3,-2,-1,0,-3
22:18:16:530555,-2,-1,0,-1,-2,0,-2,0
22:18:16:531371,-2,-1,0,-1,-2,0,-2,0
22:18:16:532172,0,0,0,0,-2,-3,-1,-1
22:18:16:536664,1,0,-1,2,2,-2,1,-1
22:18:16:544254,1,0,-1,2,2,-2,1,-1
22:18:16:559843,-1,-1,-2,-6,-2,-1,-1,-2
22:18:16:560627,-3,0,-2,0,0,0,-1,0
22:18:16:567391,-3,0,-2,0,0,0,-1,0
22:18:16:568182,0,-1,1,1,-3,-3,0,0
22:18:16:581667,0,1,-5,-4,5,1,-2,-1
22:18:16:589909,0,1,-5,-4,5,1,-2,-1
22:18:16:590705,-3,-3,-3,0,5,4,0,-3
22:18:16:596680,0,0,1,2,0,-2,-1,-1
22:18:16:604261,0,0,1,2,0,-2,-1,-1
22:18:16:611680,1,-1,-2,-4,-2,-1,-2,0
22:18:16:619190,-2,-3,0,2,-5,-2,0,-1
22:18:16:627473,-2,-3,0,2,-5,-2,0,-1
22:18:16:628229,-2,-2,-1,-4,-3,-1,-3,0
22:18:16:641717,-3,-3,-2,-7,-2,1,1,0
22:18:16:649900,-3,-3,-2,-7,-2,1,1,0
22:18:16:650734,1,0,-3,2,4,-1,-1,-1
22:18:16:656684,-1,-1,-2,-12,-5,-2,-3,-2
22:18:16:664274,-1,-1,-2,-12,-5,-2,-3,-2
22:18:16:671711,0,2,-3,-4,-4,-4,-1,0
22:18:16:679184,-3,-9,-5,0,-7,-3,-2,-2
22:18:16:694916,-3,-9,-5,0,-7,-3,-2,-2
22:18:16:695708,-3,-1,9,12,3,-1,-3,-2
22:18:16:701688,-1,-1,-8,0,-8,-6,-3,-2
22:18:16:709927,-1,-1,-8,0,-8,-6,-3,-2
22:18:16:710732,-5,2,8,2,3,1,1,-2
22:18:16:724873,2,7,20,4,10,2,0,-1
22:18:16:725718,2,7,20,4,10,2,0,-1
22:18:16:731678,-4,-11,-10,-2,-9,-4,-4,-3
22:18:16:739162,-2,-5,-20,-4,2,3,0,1
22:18:16:747422,-2,-5,-20,-4,2,3,0,1
22:18:16:748221,3,6,8,-13,0,1,0,1
22:18:16:762160,0,5,18,10,1,-3,-1,0
22:18:16:769910,0,5,18,10,1,-3,-1,0
22:18:16:770730,-6,-6,-28,3,5,7,2,-1
22:18:16:776675,2,-2,8,-1,-4,-4,-1,-1
22:18:16:784215,2,-2,8,-1,-4,-4,-1,-1
22:18:16:791702,2,-3,-8,-3,-5,-3,-2,1
22:18:16:799210,-2,1,13,2,0,0,1,-2
22:18:16:807383,-2,1,13,2,0,0,1,-2
22:18:16:808179,0,1,6,-12,-7,-3,1,-1
22:18:16:821679,-2,-4,-11,4,-1,-2,-2,-2
22:18:16:829863,-2,-4,-11,4,-1,-2,-2,-2
22:18:16:830664,-2,-3,5,7,-1,-2,-2,-1
22:18:16:836708,-2,-1,-15,-4,3,2,1,0
22:18:16:844195,-2,-1,-15,-4,3,2,1,0
22:18:16:859854,-1,3,5,-3,-1,-4,-3,-1
22:18:16:860652,3,5,1,0,-5,0,0,2
22:18:16:867369,3,5,1,0,-5,0,0,2
22:18:16:868174,0,1,11,6,1,0,2,-2
22:18:16:890529,0,3,-5,11,1,-2,-1,0
22:18:16:891347,0,3,-5,11,1,-2,-1,0
22:18:16:892193,-1,-3,-4,-3,2,-1,-2,-4
22:18:16:904865,-5,-12,-3,-13,-6,-1,-3,-3
22:18:16:905695,-5,-12,-3,-13,-6,-1,-3,-3
22:18:16:911662,1,4,-12,-15,-10,-2,-1,1
22:18:16:919154,-5,-11,-4,-2,-1,-4,-4,-4
22:18:16:927377,-5,-11,-4,-2,-1,-4,-4,-4
22:18:16:928193,-4,-5,-8,2,8,1,-1,-1
22:18:16:941695,-1,0,-8,-10,-8,-3,0,-2
22:18:16:949869,-1,0,-8,-10,-8,-3,0,-2
22:18:16:950692,3,7,5,6,1,1,2,2
22:18:16:956671,1,1,4,1,-2,2,1,7
22:18:16:964216,1,1,4,1,-2,2,1,7
22:18:16:971715,-2,0,1,-11,-8,-1,-2,-9
22:18:16:979193,0,0,0,4,5,1,1,-1
22:18:16:987391,0,0,0,4,5,1,1,-1
22:18:16:988198,1,-3,-2,2,7,5,5,3
22:18:17:1636,-2,-4,-9,-10,-4,-2,-1,0
22:18:17:9936,-2,-4,-9,-10,-4,-2,-1,0
22:18:17:10730,0,3,6,-2,1,-3,-1,-1
22:18:17:16690,4,8,9,-3,1,4,1,1
22:18:17:24270,4,8,9,-3,1,4,1,1
22:18:17:31679,-1,1,1,3,0,-3,-5,-2
22:18:17:39184,-4,-4,-3,4,1,-1,-1,-9
22:18:17:48056,-4,-4,-3,4,1,-1,-1,-9
22:18:17:48874,-4,-6,-11,5,-6,-5,-2,-1
22:18:17:70534,3,1,3,2,3,0,-1,9
22:18:17:71366,3,1,3,2,3,0,-1,9
22:18:17:72156,2,5,10,-3,2,2,1,1
22:18:17:76644,-3,2,0,-3,-5,-4,-2,-10
22:18:17:84224,-3,2,0,-3,-5,-4,-2,-10
22:18:17:91711,-2,-11,-8,9,-3,-4,-2,7
22:18:17:99187,-3,1,-2,-11,-1,-1,-1,-9
22:18:17:107408,-3,1,-2,-11,-1,-1,-1,-9
22:18:17:108182,-1,-5,-10,-4,-4,-2,-3,-4
22:18:17:121646,0,-2,-4,6,0,1,2,1
22:18:17:138051,0,-2,-4,6,0,1,2,1
22:18:17:138847,-1,-1,-2,-3,0,1,-1,-2
22:18:17:139649,-1,0,3,1,1,2,-2,-1
22:18:17:144230,-1,0,3,1,1,2,-2,-1
22:18:17:151678,0,-1,-2,-1,-2,-5,-4,10
22:18:17:159155,-6,-3,-1,1,2,1,-4,-25
22:18:17:167432,-6,-3,-1,1,2,1,-4,-25
22:18:17:168176,2,-4,7,-6,-6,-1,-10,10
22:18:17:181656,0,0,0,-1,0,1,6,6
22:18:17:189886,0,0,0,-1,0,1,6,6
22:18:17:190693,28,7,7,3,1,2,-4,7
22:18:17:196684,1,3,-1,-1,3,2,6,14
22:18:17:204241,1,3,-1,-1,3,2,6,14
22:18:17:211690,-13,-12,3,2,0,4,26,-8
22:18:17:219177,-7,-1,7,2,-4,-9,-29,-26
22:18:17:227416,-7,-1,7,2,-4,-9,-29,-26
22:18:17:228212,4,1,0,-4,-2,-1,3,17
22:18:17:250527,1,-2,-3,-4,-2,-3,5,17
22:18:17:251355,1,-2,-3,-4,-2,-3,5,17
22:18:17:252181,-9,0,0,-3,-5,-3,-4,-20
22:18:17:256666,-3,-9,-12,-8,-8,-7,-2,8
22:18:17:264223,-3,-9,-12,-8,-8,-7,-2,8
22:18:17:271687,-10,-1,-11,-9,1,1,-6,-15
22:18:17:279215,2,-7,-1,1,2,1,1,-1
22:18:17:287429,2,-7,-1,1,2,1,1,-1
22:18:17:288263,-4,-2,-2,0,-2,-4,-4,0
22:18:17:301685,4,2,2,8,-2,-2,1,0
22:18:17:317382,4,2,2,8,-2,-2,1,0
22:18:17:318189,1,4,-2,-8,-7,-1,-2,-1
22:18:17:333005,-2,-3,-6,-3,-2,-3,-1,-3
22:18:17:333833,-2,-3,-6,-3,-2,-3,-1,-3
22:18:17:334650,-4,-2,1,6,3,0,-2,-5
22:18:17:347416,-3,-2,0,1,3,1,0,1
22:18:17:348230,-3,-2,0,1,3,1,0,1
22:18:17:354172,-3,-3,-3,-2,2,-1,-2,-4
22:18:17:370594,2,2,2,-1,-1,0,1,2
22:18:17:371384,2,2,2,-1,-1,0,1,2
22:18:17:372180,-2,-1,-3,-1,-4,0,-1,-2
22:18:17:384895,1,2,2,-2,0,-1,1,-2
22:18:17:385698,1,2,2,-2,0,-1,1,-2
22:18:17:391717,-2,1,1,3,-2,-1,-2,-4
22:18:17:399174,-3,-1,-3,-2,0,0,-1,0
22:18:17:406755,-3,-1,-3,-2,0,0,-1,0
22:18:17:414173,2,4,-2,2,1,0,-2,-1
22:18:17:421699,-1,0,-3,1,-2,-1,-2,-1
22:18:17:429903,-1,0,-3,1,-2,-1,-2,-1
22:18:17:430678,-2,-1,0,-1,-2,-3,-1,-1
22:18:17:444895,-2,-1,1,-4,-3,0,1,-1
22:18:17:445748,-2,-1,1,-4,-3,0,1,-1
22:18:17:451689,-2,-2,0,-1,2,-1,-1,-2
22:18:17:459212,-1,0,0,-2,0,-2,-2,-2
22:18:17:466766,-1,0,0,-2,0,-2,-2,-2
22:18:17:474232,0,-2,-1,-2,0,0,-1,1
22:18:17:481688,-2,1,0,-2,-1,-1,-1,-2
22:18:17:497426,-2,1,0,-2,-1,-1,-1,-2
22:18:17:498206,0,-3,0,1,1,-2,0,-1
22:18:17:504864,-1,0,-1,-5,-3,0,-1,-1
22:18:17:505678,-1,0,-1,-5,-3,0,-1,-1
22:18:17:511723,-2,-2,1,-1,1,1,1,-2
22:18:17:519217,0,-1,-2,-1,-2,-2,-1,-1
22:18:17:526712,0,-1,-2,-1,-2,-2,-1,-1
22:18:17:534161,0,0,-1,1,0,-2,-2,-1
22:18:17:541721,0,-2,-2,-1,0,0,0,-1
22:18:17:549910,0,-2,-2,-1,0,0,0,-1
22:18:17:550672,0,-1,-1,-1,-1,-1,-3,-2
22:18:17:564862,0,-1,-2,-1,-1,-1,-2,-1
22:18:17:565668,0,-1,-2,-1,-1,-1,-2,-1
22:18:17:579855,1,-1,-1,-1,-3,-1,0,-2
22:18:17:580665,-2,-2,-2,-1,0,-1,0,0
22:18:17:586703,-2,-2,-2,-1,0,-1,0,0
22:18:17:594219,-3,0,-1,-1,-1,-1,-1,-2
22:18:17:618040,1,-2,-1,0,0,-1,0,-1
22:18:17:618864,1,-2,-1,0,0,-1,0,-1
22:18:17:619671,-1,-2,-2,-1,-3,-1,-2,-1
22:18:17:633034,-2,-2,-4,0,0,-2,0,-1
22:18:17:633884,-2,-2,-4,0,0,-2,0,-1
22:18:17:634685,0,0,-3,0,-1,0,0,-1
22:18:17:647363,1,1,0,-1,-1,1,-1,0
22:18:17:648180,1,1,0,-1,-1,1,-1,0
22:18:17:654177,-3,1,-1,-2,0,-2,-1,-1
22:18:17:661672,-2,-2,1,0,-1,0,-1,-2
22:18:17:669904,-2,-2,1,0,-1,0,-1,-2
22:18:17:670726,-1,-3,-3,-6,-4,-2,-2,-1
22:18:17:684864,-1,-3,-3,-1,1,-2,-3,-1
22:18:17:685690,-1,-3,-3,-1,1,-2,-3,-1
22:18:17:699874,0,0,1,-1,0,-3,-1,-2
22:18:17:700675,-2,-2,-1,-4,-1,-1,-1,-1
22:18:17:706733,-2,-2,-1,-4,-1,-1,-1,-1
22:18:17:714154,-2,-1,-1,0,0,0,-2,-1
22:18:17:721655,1,1,1,-5,-1,-1,0,0
22:18:17:737371,1,1,1,-5,-1,-1,0,0
22:18:17:738330,-1,0,-1,5,0,-1,-1,0
22:18:17:744867,2,0,1,1,0,-1,0,-1
22:18:17:745695,2,0,1,1,0,-1,0,-1
22:18:17:751665,-1,-3,-2,-3,-2,-3,-4,-3
22:18:17:759162,0,-1,-2,-1,-1,0,0,1
22:18:17:766742,0,-1,-2,-1,-1,0,0,1
22:18:17:774171,-2,-1,-5,-3,2,0,-1,0
22:18:17:781684,-2,0,6,-2,-2,-1,-1,-2
22:18:17:789921,-2,0,6,-2,-2,-1,-1,-2
22:18:17:790726,0,0,3,-13,-2,0,9,1
22:18:17:804910,-1,-5,-2,3,-7,-7,-10,-2
22:18:17:805701,-1,-5,-2,3,-7,-7,-10,-2
22:18:17:811646,-1,3,10,7,5,5,4,-1
22:18:17:819168,-4,-5,0,-8,-4,1,0,0
22:18:17:826757,-4,-5,0,-8,-4,1,0,0
22:18:17:834219,4,8,39,11,-1,-1,-2,0
22:18:17:841695,-3,-21,-16,4,2,-5,-2,0
22:18:17:849914,-3,-21,-16,4,2,-5,-2,0
22:18:17:850731,-5,-17,-39,-18,-4,2,8,1
22:18:17:864916,2,19,9,0,-2,-4,-7,-2
22:18:17:865724,2,19,9,0,-2,-4,-7,-2
22:18:17:879851,-3,-10,11,0,-1,3,0,-1
22:18:17:880626,-1,10,5,26,9,6,4,2
22:18:17:886754,-1,10,5,26,9,6,4,2
22:18:17:894186,-6,-15,-31,-7,-5,-3,-7,-3
22:18:17:901712,9,0,22,-22,1,3,9,-1
22:18:17:910965,9,0,22,-22,1,3,9,-1
22:18:17:916721,6,20,23,19,3,-2,-2,2
22:18:17:924837,7,6,-10,1,-4,-3,1,2
22:18:17:925697,7,6,-10,1,-4,-3,1,2
22:18:17:931724,3,7,-15,-12,-3,0,-1,6
22:18:17:939220,9,6,5,-20,-9,-5,-9,-6
22:18:17:946730,9,6,5,-20,-9,-5,-9,-6
22:18:17:954191,11,-12,-37,-4,-4,-5,-5,-5
22:18:17:961739,-3,-14,-5,-3,-3,-2,0,3
22:18:17:969654,-3,-14,-5,-3,-3,-2,0,3
22:18:17:976644,28,21,42,2,-2,-3,-3,-12
22:18:17:984925,5,-10,-41,-17,1,5,2,1
22:18:17:985737,5,-10,-41,-17,1,5,2,1
22:18:17:991674,-7,-14,-6,6,1,-5,-6,1
22:18:17:999168,-3,-1,-19,17,5,3,1,-6
22:18:18:23060,-3,-1,-19,17,5,3,1,-6
22:18:18:23856,-36,-1,8,16,2,1,0,-1
22:18:18:24657,-25,-8,-19,0,-2,1,8,-6
22:18:18:29902,-25,-8,-19,0,-2,1,8,-6
22:18:18:30688,18,6,-10,-9,-2,-4,0,4
22:18:18:44866,-7,13,41,14,3,3,2,2
22:18:18:45685,-7,13,41,14,3,3,2,2
22:18:18:51669,-2,-3,12,4,3,6,1,-1
22:18:18:59164,6,-4,-16,7,0,-2,6,5
22:18:18:66732,6,-4,-16,7,0,-2,6,5
22:18:18:74181,2,-1,-2,-2,-3,-4,-2,11
22:18:18:81666,6,-12,14,-16,-2,-3,-11,-1
22:18:18:89902,6,-12,14,-16,-2,-3,-11,-1
22:18:18:90741,-25,-21,1,9,-1,-3,-4,-9
22:18:18:104900,-29,7,5,8,1,1,2,-2
22:18:18:105692,-29,7,5,8,1,1,2,-2
22:18:18:111675,-3,6,-1,-14,-4,-1,-5,10
22:18:18:127370,-5,-16,-31,4,2,-2,0,-3
22:18:18:128188,-5,-16,-31,4,2,-2,0,-3
22:18:18:134176,28,11,-20,-17,-1,0,-1,-4
22:18:18:141660,-8,24,20,4,-6,-6,-6,-12
22:18:18:149924,-8,24,20,4,-6,-6,-6,-12
22:18:18:150709,7,4,-6,-7,-1,-4,-19,-5
22:18:18:164866,-17,-8,-16,-18,-6,-4,-6,-8
22:18:18:165705,-17,-8,-16,-18,-6,-4,-6,-8
22:18:18:179866,-21,1,5,0,0,1,1,-14
22:18:18:180657,11,15,26,25,8,2,2,5
22:18:18:186745,11,15,26,25,8,2,2,5
22:18:18:194209,-10,16,-8,9,7,7,8,4
22:18:18:201712,32,-4,-2,-43,-6,-3,0,10
22:18:18:209928,32,-4,-2,-43,-6,-3,0,10
22:18:18:210694,2,-6,8,-5,-6,-4,-1,1
22:18:18:224853,-29,-42,-2,8,2,-1,-4,-4
22:18:18:225702,-29,-42,-2,8,2,-1,-4,-4
22:18:18:231648,-13,-9,-26,-20,-5,0,5,-1
22:18:18:239263,-23,-48,-82,-54,-19,-10,-9,-4
22:18:18:246725,-23,-48,-82,-54,-19,-10,-9,-4
22:18:18:254176,-2,-11,31,12,-6,-3,-1,-3
22:18:18:261675,27,18,32,-1,-8,-7,-9,8
22:18:18:269279,27,18,32,-1,-8,-7,-9,8
22:18:18:276661,10,-44,-76,-28,-5,-5,-10,-7
22:18:18:284940,31,0,5,5,0,0,-1,3
22:18:18:285702,31,0,5,5,0,0,-1,3
22:18:18:291724,-37,17,33,20,6,0,-1,6
22:18:18:307391,44,23,6,-2,-3,-3,-4,1
22:18:18:308204,44,23,6,-2,-3,-3,-4,1
22:18:18:314172,5,-34,-12,7,1,-1,2,2
22:18:18:321673,-4,27,23,11,3,2,6,2
22:18:18:329249,-4,27,23,11,3,2,6,2
22:18:18:336695,-9,-6,8,-3,-1,-3,-1,-19
22:18:18:344847,-1,25,23,32,4,1,-3,-2
22:18:18:345679,-1,25,23,32,4,1,-3,-2
22:18:18:351691,13,6,-6,10,1,4,11,9
22:18:18:367406,2,26,64,31,7,4,-7,-1
22:18:18:368215,2,26,64,31,7,4,-7,-1
22:18:18:374198,-15,-19,-46,-13,-9,-6,-7,3
22:18:18:381707,-19,10,-9,-9,0,3,8,-4
22:18:18:389276,-19,10,-9,-9,0,3,8,-4
22:18:18:396697,53,13,30,-2,0,2,9,0
22:18:18:413046,-11,-31,-7,3,-2,-2,1,-8
22:18:18:413885,-11,-31,-7,3,-2,-2,1,-8
22:18:18:414708,21,1,-27,4,-2,-3,3,16
22:18:18:427400,-12,-13,-33,-4,-1,-1,-1,8
22:18:18:428223,-12,-13,-33,-4,-1,-1,-1,8
22:18:18:434161,-10,-9,15,6,1,-3,1,-6
22:18:18:441699,-15,-27,-20,-44,-7,1,-2,6
22:18:18:449276,-15,-27,-20,-44,-7,1,-2,6
22:18:18:465551,-34,13,20,-8,2,4,-4,-7
22:18:18:466367,4,12,-2,-2,-1,-3,4,12
22:18:18:467210,4,12,-2,-2,-1,-3,4,12
22:18:18:471667,46,74,22,3,-5,-5,-19,5
22:18:18:487372,29,-31,-22,2,2,-2,-10,-8
22:18:18:488200,29,-31,-22,2,2,-2,-10,-8
22:18:18:494193,-20,-9,10,6,4,1,0,-5
22:18:18:501683,-15,10,-17,3,4,4,10,-5
22:18:18:509264,-15,10,-17,3,4,4,10,-5
22:18:18:516674,7,-5,0,10,4,1,1,7
22:18:18:549375,-17,-3,-4,2,-2,-2,-1,3
22:18:18:550206,-17,-3,-4,2,-2,-2,-1,3
22:18:18:550989,4,-29,-16,-7,-5,-2,24,12
22:18:18:551834,11,14,21,1,-5,-5,-8,-10
22:18:18:554892,11,14,21,1,-5,-5,-8,-10
22:18:18:555653,-19,-6,27,1,-3,0,-6,-10
22:18:18:561698,-11,-14,11,-1,1,1,2,2
22:18:18:569233,-11,-14,11,-1,1,1,2,2
22:18:18:576663,-8,-1,18,5,3,2,3,-7
22:18:18:584867,4,-5,-6,4,1,-2,-4,-6
22:18:18:585703,4,-5,-6,4,1,-2,-4,-6
22:18:18:591670,-4,2,-14,-9,-3,-5,-8,3
22:18:18:607359,-10,10,1,-3,-3,-3,0,-3
22:18:18:608198,-10,10,1,-3,-3,-3,0,-3
22:18:18:614160,-14,-2,-19,-14,-2,0,0,2
22:18:18:621657,0,4,4,4,1,0,6,-5
22:18:18:629255,0,4,4,4,1,0,6,-5
22:18:18:636672,-7,-5,-3,-1,-3,-4,-10,-9
22:18:18:644903,3,3,0,-3,-1,-1,6,1
22:18:18:645756,3,3,0,-3,-1,-1,6,1
22:18:18:651672,28,-2,-8,-4,-4,-4,-24,-13
22:18:18:667390,10,3,-5,1,-3,-4,-6,3
22:18:18:668236,10,3,-5,1,-3,-4,-6,3
22:18:18:674173,2,3,4,2,3,4,10,3
22:18:18:681673,-5,-2,4,2,0,3,2,-3
22:18:18:689245,-5,-2,4,2,0,3,2,-3
22:18:18:696662,-8,2,4,4,0,4,9,2
22:18:18:704907,-7,2,0,1,-1,-4,-19,-4
22:18:18:705728,-7,2,0,1,-1,-4,-19,-4
22:18:18:711695,-11,-2,4,1,2,0,-3,-3
22:18:18:727403,3,-2,-3,-3,-1,-5,-11,-3
22:18:18:728221,3,-2,-3,-3,-1,-5,-11,-3
22:18:18:734178,-5,-1,-2,-5,-15,-12,-5,1
22:18:18:741677,-5,-2,-2,-2,3,8,-11,-12
22:18:18:749258,-5,-2,-2,-2,3,8,-11,-12
22:18:18:756710,-5,2,0,5,12,18,27,5
22:18:18:764825,-8,-3,-2,-3,-6,-2,-5,-25
22:18:18:765674,-8,-3,-2,-3,-6,-2,-5,-25
22:18:18:771698,-2,-4,-5,-4,-5,-15,-11,-2
22:18:18:787161,0,-2,-4,-7,-12,-24,-4,-4
22:18:18:794941,0,-2,-4,-7,-12,-24,-4,-4
22:18:18:795945,-2,5,2,5,3,4,6,-16
22:18:18:801709,5,-5,2,6,13,18,14,74
22:18:18:809217,5,-5,2,6,13,18,14,74
22:18:18:816725,-5,-3,-3,-5,-9,-17,-18,-1
22:18:18:824886,0,1,-1,-5,-9,0,4,-13
22:18:18:825703,0,1,-1,-5,-9,0,4,-13
22:18:18:831663,-1,0,0,-2,3,5,-4,-5
22:18:18:856039,-2,-1,-2,2,5,3,6,2
22:18:18:856850,-2,-1,-2,2,5,3,6,2
22:18:18:857637,-3,1,0,-1,1,1,4,-7
22:18:18:861694,-1,0,0,1,-1,-2,1,-3
22:18:18:869275,-1,0,0,1,-1,-2,1,-3
22:18:18:876722,0,-1,-2,-2,-3,5,2,6
22:18:18:884876,-2,-1,-2,-1,-1,-2,1,-11
22:18:18:885659,-2,-1,-2,-1,-1,-2,1,-11
22:18:18:891684,0,-2,-2,-1,1,-2,0,7
22:18:18:907415,-2,0,1,0,-2,-1,-1,-10
22:18:18:908224,-2,0,1,0,-2,-1,-1,-10
22:18:18:914229,0,0,0,0,1,-1,-2,2
22:18:18:921683,-1,0,-1,-1,-2,0,4,-2
22:18:18:929198,-1,0,-1,-1,-2,0,4,-2
22:18:18:936709,0,-1,-3,0,-2,-1,-5,-2
22:18:18:944879,-1,-1,-1,1,1,1,1,0
22:18:18:945714,-1,-1,-1,1,1,1,1,0
22:18:18:951669,-3,-3,-3,-2,-3,-3,-4,-3
22:18:18:967366,-1,1,-4,-3,-3,-3,0,-2
22:18:18:968186,-1,1,-4,-3,-3,-3,0,-2
22:18:18:974186,-2,-2,1,4,0,6,4,0
22:18:18:981689,0,0,-2,0,1,-2,0,-4
22:18:18:989234,0,0,-2,0,1,-2,0,-4
22:18:18:996674,-1,-2,-4,-6,-7,-10,-9,-4
22:18:19:4904,-2,-1,1,0,5,5,2,-1
22:18:19:5699,-2,-1,1,0,5,5,2,-1
22:18:19:11685,0,-1,-1,-1,-1,6,0,-1
22:18:19:27368,-2,-2,-1,-1,1,-1,-4,-2
22:18:19:28198,-2,-2,-1,-1,1,-1,-4,-2
22:18:19:34184,-1,0,-1,-3,-3,-3,-5,0
22:18:19:41663,-3,-2,-1,0,-1,-2,-1,-2
22:18:19:49224,-3,-2,-1,0,-1,-2,-1,-2
22:18:19:56695,-3,-2,-1,-3,-5,5,7,-2
22:18:19:65954,0,0,1,0,3,2,-1,0
22:18:19:72393,0,0,1,0,3,2,-1,0
22:18:19:73237,-2,-3,0,-1,-1,-13,-2,0
22:18:19:87415,-1,-1,-2,-5,-9,-16,-4,-3
22:18:19:88199,-1,-1,-2,-5,-9,-16,-4,-3
22:18:19:94200,-3,0,-1,0,10,8,-1,-1
22:18:19:101706,-1,0,-1,3,4,7,1,-2
22:18:19:109252,-1,0,-1,3,4,7,1,-2
22:18:19:117397,1,2,0,2,2,3,1,1
22:18:19:124890,-1,0,0,0,2,6,0,0
22:18:19:125713,-1,0,0,0,2,6,0,0
22:18:19:131708,-1,0,-1,-3,-8,-12,-6,0
22:18:19:147434,-1,-2,1,3,12,9,2,0
22:18:19:148249,-1,-2,1,3,12,9,2,0
22:18:19:154183,0,0,-1,2,-2,-5,-8,-3
22:18:19:161691,2,3,8,0,-13,-3,3,2
22:18:19:169264,2,3,8,0,-13,-3,3,2
22:18:19:176717,-5,-3,25,1,0,-3,-4,-5
22:18:19:184224,-2,-2,-8,-16,-4,-4,0,-2
22:18:19:191713,-2,-2,-8,-16,-4,-4,0,-2
22:18:19:199205,3,7,6,21,4,2,2,2
22:18:19:207369,-3,-3,-71,-55,-18,-16,-5,-2
22:18:19:208204,-3,-3,-71,-55,-18,-16,-5,-2
22:18:19:214158,-3,-11,-19,-45,-10,-5,3,-1
22:18:19:229862,4,7,41,53,13,3,3,4
22:18:19:230669,4,7,41,53,13,3,3,4
22:18:19:236711,1,5,22,26,-4,-2,0,0
22:18:19:244214,-3,-10,-20,-4,5,7,1,-3
22:18:19:251733,-3,-10,-20,-4,5,7,1,-3
22:18:19:259176,4,1,-2,-1,6,2,0,2
22:18:19:267353,0,2,20,2,-22,-13,-7,-4
22:18:19:268229,0,2,20,2,-22,-13,-7,-4
22:18:19:274179,0,-1,-18,-16,3,7,1,2
22:18:19:289848,-4,1,11,13,-7,-6,1,-2
22:18:19:290709,-4,1,11,13,-7,-6,1,-2
22:18:19:296659,6,8,-9,-16,-11,-3,0,3
22:18:19:304178,-5,-2,5,-6,4,6,1,-3
22:18:19:311741,-5,-2,5,-6,4,6,1,-3
22:18:19:319198,13,3,-8,8,6,1,3,12
22:18:19:327401,-8,-13,1,1,2,7,-1,-31
22:18:19:328226,-8,-13,1,1,2,7,-1,-31
22:18:19:334194,-44,-19,-12,-16,-4,7,-2,4
22:18:19:349622,29,25,1,-7,-5,-8,-1,18
22:18:19:357430,29,25,1,-7,-5,-8,-1,18
22:18:19:358211,17,60,14,36,-4,-7,4,22
22:18:19:364208,-41,-31,-6,-4,7,-4,-18,-42
22:18:19:371782,-41,-31,-6,-4,7,-4,-18,-42
22:18:19:379186,7,6,-2,9,14,6,7,13
22:18:19:387440,7,6,-2,9,14,6,7,13
22:18:19:388221,-27,-6,58,35,-24,-12,8,15
22:18:19:394238,17,1,-14,-3,-21,-19,-19,-22
22:18:19:409928,17,1,-14,-3,-21,-19,-19,-22
22:18:19:410738,52,4,-19,3,-9,-3,-7,7
22:18:19:416707,23,20,35,42,52,36,36,42
22:18:19:432413,23,20,35,42,52,36,36,42
22:18:19:433201,9,53,-10,-26,-19,4,18,36
22:18:19:439189,-91,-100,-27,-23,-17,-29,-60,-128
22:18:19:447411,-91,-100,-27,-23,-17,-29,-60,-128
22:18:19:448244,-9,1,28,16,14,14,27,52
22:18:19:454186,-10,-2,7,-25,1,18,26,35
22:18:19:469923,-10,-2,7,-25,1,18,26,35
22:18:19:470730,-6,-4,-38,-11,7,-2,-12,-14
22:18:19:476695,44,19,-14,-6,-13,-6,-1,12
22:18:19:492409,44,19,-14,-6,-13,-6,-1,12
22:18:19:493195,2,-13,6,4,-1,-7,-6,0
22:18:19:499262,-18,-18,-9,-11,-3,-10,-4,-12
22:18:19:507420,-18,-18,-9,-11,-3,-10,-4,-12
22:18:19:508212,20,1,-12,-3,10,5,-3,-2
22:18:19:514189,25,17,14,3,-2,1,0,22
22:18:19:529929,25,17,14,3,-2,1,0,22
22:18:19:530911,-8,-10,-11,-11,1,-2,-4,-14
22:18:19:536693,0,-1,4,2,-4,-9,40,0
22:18:19:552381,0,-1,4,2,-4,-9,40,0
22:18:19:553222,10,-11,-7,-8,2,2,3,-21
22:18:19:559201,7,-6,-8,1,0,-1,-25,-14
22:18:19:567155,7,-6,-8,1,0,-1,-25,-14
22:18:19:574847,-40,-8,3,-6,-4,-6,-11,-4
22:18:19:575656,22,2,-5,-5,-2,1,3,8
22:18:19:589891,22,2,-5,-5,-2,1,3,8
22:18:19:590710,-16,-4,1,-1,1,-3,-11,-7
22:18:19:596655,-8,-10,-5,-3,-4,-6,-10,-4
22:18:19:612398,-8,-10,-5,-3,-4,-6,-10,-4
22:18:19:613187,6,3,-7,-2,6,6,9,1
22:18:19:619247,-11,3,13,4,-3,-3,-12,-5
22:18:19:627408,-11,3,13,4,-3,-3,-12,-5
22:18:19:628210,4,6,-10,-10,-2,0,-3,-2
22:18:19:641741,-4,-1,7,2,-2,0,-3,-2
22:18:19:649905,-4,-1,7,2,-2,0,-3,-2
22:18:19:650686,-7,-1,-2,-5,-1,-2,-4,-5
22:18:19:656708,-6,2,-9,3,1,0,2,-2
22:18:19:672198,-6,2,-9,3,1,0,2,-2
22:18:19:679648,9,-6,0,-9,-7,-5,-5,0
22:18:19:688046,11,-2,-21,-10,0,2,1,16
22:18:19:688873,11,-2,-21,-10,0,2,1,16
22:18:19:689651,-14,-2,17,16,1,-2,-2,-5
22:18:19:694232,19,-2,7,-6,1,4,1,3
22:18:19:709900,19,-2,7,-6,1,4,1,3
22:18:19:710693,2,-6,3,2,-5,-2,0,-4
22:18:19:716736,-14,-3,4,11,2,0,-1,3
22:18:19:732434,-14,-3,4,11,2,0,-1,3
22:18:19:733304,16,7,-14,-13,-1,-1,0,7
22:18:19:748062,6,6,-23,-11,-5,-3,-5,-8
22:18:19:748891,6,6,-23,-11,-5,-3,-5,-8
22:18:19:749713,-17,-1,-5,10,19,17,14,2
22:18:19:754189,-8,0,15,19,3,0,-1,-6
22:18:19:769905,-8,0,15,19,3,0,-1,-6
22:18:19:770721,18,18,7,15,-2,-6,1,2
22:18:19:776695,-17,-44,-87,-27,-4,-3,-2,-8
22:18:19:792415,-17,-44,-87,-27,-4,-3,-2,-8
22:18:19:793217,-2,-5,12,-3,2,-2,-9,-4
22:18:19:808093,-17,24,40,12,0,-2,-2,-15
22:18:19:808863,-17,24,40,12,0,-2,-2,-15
22:18:19:809655,-2,-7,-15,-2,-6,-6,-3,1
22:18:19:814174,-11,1,3,-12,-2,0,0,1
22:18:19:829894,-11,1,3,-12,-2,0,0,1
22:18:19:830702,14,4,18,20,-3,-5,-1,-5
22:18:19:836728,-2,7,20,4,4,4,1,3
22:18:19:852352,-2,7,20,4,4,4,1,3
22:18:19:853212,-11,-31,-96,-38,-14,-9,-10,-4
22:18:19:859251,2,5,7,-1,-3,-3,-3,1
22:18:19:867428,2,5,7,-1,-3,-3,-3,1
22:18:19:868183,0,3,16,-2,1,1,-2,1
22:18:19:874229,2,-1,6,1,-9,-6,-4,-1
22:18:19:889883,2,-1,6,1,-9,-6,-4,-1
22:18:19:890696,-7,-4,5,0,2,0,-1,-1
22:18:19:896722,3,3,21,11,-1,-4,-2,-2
22:18:19:912403,3,3,21,11,-1,-4,-2,-2
22:18:19:913232,-4,-2,16,8,5,4,0,1
22:18:19:919201,3,-2,-10,-9,-2,0,-1,0
22:18:19:927422,3,-2,-10,-9,-2,0,-1,0
22:18:19:928206,2,3,15,8,2,-2,0,1
22:18:19:934221,-2,-2,-5,-7,7,2,-1,-1
22:18:19:949915,-2,-2,-5,-7,7,2,-1,-1
22:18:19:950749,0,-1,1,-6,6,7,2,1
22:18:19:956725,-3,-4,-7,-1,3,1,0,-1
22:18:19:972438,-3,-4,-7,-1,3,1,0,-1
22:18:19:973223,0,1,1,-9,-2,2,-2,-2
22:18:19:979189,2,-2,6,7,1,2,2,1
22:18:19:987438,2,-2,6,7,1,2,2,1
22:18:19:988223,-3,-4,-9,-5,-3,-4,-2,-1
22:18:19:994229,0,0,10,3,-5,-8,-5,-2
22:18:20:9940,0,0,10,3,-5,-8,-5,-2
22:18:20:10753,0,7,13,5,8,4,4,3
22:18:20:16703,-5,-5,-21,-11,-11,-7,-7,-4
22:18:20:32436,-5,-5,-21,-11,-11,-7,-7,-4
22:18:20:33178,-4,-3,-3,0,-2,-5,-5,-3
22:18:20:39209,-2,-2,4,1,-2,-2,2,0
22:18:20:47427,-2,-2,4,1,-2,-2,2,0
22:18:20:48222,-2,0,3,-1,-4,0,2,-2
22:18:20:54224,-2,-3,-1,-4,-2,0,-4,3
22:18:20:70440,-2,-3,-1,-4,-2,0,-4,3
22:18:20:71200,1,1,3,2,1,0,7,6
22:18:20:84168,0,2,-2,-1,3,6,-3,-1
22:18:20:92427,0,2,-2,-1,3,6,-3,-1
22:18:20:93219,-1,0,2,0,-3,-2,-10,-1
22:18:20:99252,2,3,8,0,1,3,16,9
22:18:20:107421,2,3,8,0,1,3,16,9
22:18:20:108224,-3,-3,-5,-7,-8,-8,-12,-7
22:18:20:114201,3,4,22,21,6,3,8,-4
22:18:20:129929,3,4,22,21,6,3,8,-4
22:18:20:130704,-5,-7,-7,-9,-7,-2,4,-5
22:18:20:136694,-5,0,0,-1,-2,-2,-8,-3
22:18:20:152391,-5,0,0,-1,-2,-2,-8,-3
22:18:20:153212,-5,-4,-25,-24,-1,1,2,-4
22:18:20:159180,-9,-13,-31,5,1,1,2,-5
22:18:20:167420,-9,-13,-31,5,1,1,2,-5
22:18:20:168204,-3,5,9,-13,-2,-2,-2,-1
22:18:20:181683,-2,-2,1,-9,-12,-6,-4,0
22:18:20:189908,-2,-2,1,-9,-12,-6,-4,0
22:18:20:190702,9,-1,4,13,2,-3,-5,-6
22:18:20:196674,3,3,-5,3,1,0,-2,-1
22:18:20:212414,3,3,-5,3,1,0,-2,-1
22:18:20:213182,2,12,37,17,1,-3,-2,-1
22:18:20:219166,-2,4,-4,-23,-8,-4,-3,-3
22:18:20:227806,-2,4,-4,-23,-8,-4,-3,-3
22:18:20:234184,-3,-13,-7,-9,-2,-2,2,-1
22:18:20:241693,0,-3,-4,-4,-6,-4,-2,-1
22:18:20:249920,0,-3,-4,-4,-6,-4,-2,-1
22:18:20:250732,-2,-2,3,30,-2,-4,-3,-1
22:18:20:256711,0,-7,3,-12,-7,-5,-4,-4
22:18:20:272394,0,-7,3,-12,-7,-5,-4,-4
22:18:20:273215,-3,-3,-19,-5,-4,-3,-4,0
22:18:20:279176,2,2,4,3,4,0,-2,0
22:18:20:287457,2,2,4,3,4,0,-2,0
22:18:20:288237,-2,-3,-7,-8,-2,-2,8,2
22:18:20:301710,3,1,8,2,5,2,-1,2
22:18:20:309916,3,1,8,2,5,2,-1,2
22:18:20:310712,3,1,-34,-9,1,4,1,2
22:18:20:316660,1,1,-4,0,2,2,3,0
22:18:20:332414,1,1,-4,0,2,2,3,0
22:18:20:333221,-2,-1,21,-5,3,4,1,1
22:18:20:339195,-2,-1,-6,7,12,3,-2,-1
22:18:20:347441,-2,-1,-6,7,12,3,-2,-1
22:18:20:348220,-1,-1,-9,-1,-1,-6,-8,-2
22:18:20:361731,-6,-20,-2,-12,-10,-6,-3,-4
22:18:20:369879,-6,-20,-2,-12,-10,-6,-3,-4
22:18:20:370706,-1,1,10,10,2,0,-3,-4
22:18:20:376690,1,0,-5,0,-3,-5,-3,-1
22:18:20:392375,1,0,-5,0,-3,-5,-3,-1
22:18:20:393166,3,4,-1,-13,-1,1,0,-1
22:18:20:399186,-1,-3,-3,-6,0,3,3,1
22:18:20:407432,-1,-3,-3,-6,0,3,3,1
22:18:20:408231,0,4,11,11,5,1,0,2
22:18:20:421717,0,1,-4,-9,-7,0,-2,0
22:18:20:429905,0,1,-4,-9,-7,0,-2,0
22:18:20:430680,-2,-6,-7,-16,-7,1,0,0
22:18:20:436664,0,3,13,8,-1,-2,-3,-1
22:18:20:452377,0,3,13,8,-1,-2,-3,-1
22:18:20:453201,-1,0,-4,2,-1,-1,0,0
22:18:20:459223,2,2,-1,-1,3,-1,-2,1
22:18:20:467404,2,2,-1,-1,3,-1,-2,1
22:18:20:468208,-1,0,-2,3,1,3,-1,1
22:18:20:481702,0,0,2,2,-2,-1,-2,-1
22:18:20:489882,0,0,2,2,-2,-1,-2,-1
22:18:20:490706,0,-1,-5,-5,-2,0,2,0
22:18:20:496732,-2,-8,-10,-8,-3,1,1,-1
22:18:20:512869,-2,-8,-10,-8,-3,1,1,-1
22:18:20:513638,1,5,20,9,1,-1,-1,-1
22:18:20:519198,2,7,11,10,3,-2,-2,0
22:18:20:527384,2,7,11,10,3,-2,-2,0
22:18:20:528187,-3,-8,-10,1,1,2,2,0
22:18:20:541719,2,1,1,-5,1,3,0,1
22:18:20:549917,2,1,1,-5,1,3,0,1
22:18:20:550693,-6,-6,-15,-3,-6,-7,-8,-5
22:18:20:556741,2,2,3,10,2,3,2,2
22:18:20:572460,2,2,3,10,2,3,2,2
22:18:20:573222,0,-2,-1,3,2,-2,-1,-1
22:18:20:579215,-5,-6,-9,-9,-5,-3,-3,-2
22:18:20:587390,-5,-6,-9,-9,-5,-3,-3,-2
22:18:20:588198,-1,-4,5,9,-8,-4,-3,-1
22:18:20:601714,0,-2,-21,-2,-1,1,4,1
22:18:20:609943,0,-2,-21,-2,-1,1,4,1
22:18:20:610765,-5,-7,-8,-8,-7,-3,-3,-3
22:18:20:624189,-1,1,-15,-3,-2,-2,-2,-1
22:18:20:632432,-1,1,-15,-3,-2,-2,-2,-1
22:18:20:633237,1,3,7,0,3,-1,1,-1
22:18:20:639228,0,5,20,8,-4,-2,-4,-4
22:18:20:647429,0,5,20,8,-4,-2,-4,-4
22:18:20:648236,-4,-9,-28,-15,-8,-7,-5,-4
22:18:20:661678,-2,-6,2,8,3,-3,-1,-3
22:18:20:669937,-2,-6,2,8,3,-3,-1,-3
22:18:20:670719,3,8,17,17,5,0,1,2
22:18:20:676723,0,-2,5,-4,1,-3,-1,-2
22:18:20:692382,0,-2,5,-4,1,-3,-1,-2
22:18:20:693233,-2,-4,-4,-3,1,1,2,-1
22:18:20:699163,-1,0,6,2,3,1,0,0
22:18:20:707449,-1,0,6,2,3,1,0,0
22:18:20:708243,5,6,13,-9,-2,-1,0,2
22:18:20:721689,-5,-8,-9,-10,-1,1,1,-1
22:18:20:729907,-5,-8,-9,-10,-1,1,1,-1
22:18:20:730720,0,2,5,-2,-2,0,-2,1
22:18:20:736692,-4,-5,-23,-15,-8,-7,-5,-3
22:18:20:752426,-4,-5,-23,-15,-8,-7,-5,-3
22:18:20:753232,4,6,32,3,3,3,0,2
22:18:20:759180,-3,2,-2,-9,-1,4,3,-1
22:18:20:767409,-3,2,-2,-9,-1,4,3,-1
22:18:20:768258,-2,1,9,18,1,-4,0,-1
22:18:20:781658,2,2,4,5,1,-1,1,0
22:18:20:789948,2,2,4,5,1,-1,1,0
22:18:20:790720,-2,2,-1,1,3,2,1,-4
22:18:20:796677,-2,1,4,-1,-4,-3,-3,0
22:18:20:812413,-2,1,4,-1,-4,-3,-3,0
22:18:20:813191,-2,-9,-12,1,0,2,0,-2
22:18:20:828057,-2,-4,-3,0,-2,0,-2,-2
22:18:20:828859,-2,-4,-3,0,-2,0,-2,-2
22:18:20:829673,-1,-1,-8,-6,5,0,-2,-1
22:18:20:841737,1,0,5,11,-1,-1,-6,-1
22:18:20:849940,1,0,5,11,-1,-1,-6,-1
22:18:20:850762,0,-2,-1,-6,-7,-2,-2,0
22:18:20:856708,-1,-2,3,5,3,0,2,-1
22:18:20:872463,-1,-2,3,5,3,0,2,-1
22:18:20:873237,-1,3,14,2,0,-2,-2,-1
22:18:20:879206,-2,-7,-28,-10,-5,-3,-4,-1
22:18:20:887414,-2,-7,-28,-10,-5,-3,-4,-1
22:18:20:888170,-2,-6,-6,-3,-2,-2,-1,-2
22:18:20:901736,-1,0,7,0,1,-2,0,-1
22:18:20:909967,-1,0,7,0,1,-2,0,-1
22:18:20:910724,-2,-3,-7,-2,-5,-3,-2,-1
22:18:20:916697,1,1,4,-1,1,1,1,-6
22:18:20:932408,1,1,4,-1,1,1,1,-6
22:18:20:933214,0,1,-10,-10,-1,1,0,-7
22:18:20:939216,0,0,-3,-10,-6,-3,0,6
22:18:20:947438,0,0,-3,-10,-6,-3,0,6
22:18:20:948232,-3,-5,-13,-2,1,-3,-2,1
22:18:20:961678,-3,-4,6,7,3,1,-3,-11
22:18:20:969946,-3,-4,6,7,3,1,-3,-11
22:18:20:970734,0,0,-2,0,-1,1,-2,-1
22:18:20:976705,-3,-8,-1,-6,-3,-2,-2,-3
22:18:20:992434,-3,-8,-1,-6,-3,-2,-2,-3
22:18:20:993235,0,0,-5,-10,-2,-1,0,-4
22:18:20:999181,3,9,5,7,3,-3,-1,3
22:18:21:7444,3,9,5,7,3,-3,-1,3
22:18:21:8303,-1,-3,-4,-8,-2,1,1,1
22:18:21:21695,8,6,10,4,20,19,6,6
22:18:21:29906,8,6,10,4,20,19,6,6
22:18:21:30726,2,5,-6,1,-2,2,-1,34
22:18:21:36691,-5,1,-1,1,-8,-9,-2,1
22:18:21:52394,-5,1,-1,1,-8,-9,-2,1
22:18:21:53223,-4,-2,-5,8,-4,-6,-1,-12
22:18:21:59156,-4,-3,0,-5,-5,-5,-3,-1
22:18:21:67189,-4,-3,0,-5,-5,-5,-3,-1
22:18:21:74179,-2,-2,-7,0,-2,-3,-7,-11
22:18:21:81694,-1,0,-12,-6,-2,0,2,-3
22:18:21:89931,-1,0,-12,-6,-2,0,2,-3
22:18:21:90715,1,-1,8,1,1,-2,-3,-14
22:18:21:104183,-2,-4,-4,-2,-6,-4,-1,1
22:18:21:112420,-2,-4,-4,-2,-6,-4,-1,1
22:18:21:113209,1,-4,-20,-13,3,3,2,-5
22:18:21:127444,0,-6,2,1,-5,-6,-3,-1
22:18:21:128224,0,-6,2,1,-5,-6,-3,-1
22:18:21:134190,-1,1,10,6,2,2,0,-2
22:18:21:141688,1,2,2,6,-2,-3,0,2
22:18:21:149920,1,2,2,6,-2,-3,0,2
22:18:21:150714,1,1,12,11,5,0,1,5
22:18:21:164181,0,-5,-10,-14,-6,0,-2,-4
22:18:21:172410,0,-5,-10,-14,-6,0,-2,-4
22:18:21:173234,-1,0,-2,-2,-1,0,0,2
22:18:21:187416,0,5,-9,-4,6,-2,-4,-3
22:18:21:188192,0,5,-9,-4,6,-2,-4,-3
22:18:21:194172,-2,-5,-4,-5,-3,-1,-1,-1
22:18:21:201696,-2,-2,0,-1,-7,-1,1,0
22:18:21:209916,-2,-2,0,-1,-7,-1,1,0
22:18:21:210717,-2,0,-2,-4,-3,-4,-1,-2
22:18:21:224182,0,-2,-6,-5,-1,0,2,1
22:18:21:232393,0,-2,-6,-5,-1,0,2,1
22:18:21:233197,1,5,7,4,-2,-2,0,0
22:18:21:239180,-3,1,1,5,2,-1,1,-1
22:18:21:246760,-3,1,1,5,2,-1,1,-1
22:18:21:254249,0,0,2,-8,-5,0,2,1
22:18:21:261676,-1,-3,-2,6,2,0,-3,-2
22:18:21:269966,-1,-3,-2,6,2,0,-3,-2
22:18:21:270724,-2,-3,1,-1,-1,-2,1,-1
22:18:21:284219,-3,-1,0,-5,-3,-3,-2,-9
22:18:21:292388,-3,-1,0,-5,-3,-3,-2,-9
22:18:21:293220,0,1,-2,-4,-3,-2,-1,0
22:18:21:299210,0,1,6,-3,-4,-2,0,0
22:18:21:306777,0,1,6,-3,-4,-2,0,0
22:18:21:314235,-1,-4,0,2,-1,0,0,1
22:18:21:321719,-2,-1,3,4,0,-3,-2,11
22:18:21:329931,-2,-1,3,4,0,-3,-2,11
22:18:21:330681,-1,-2,0,-2,0,0,-1,3
22:18:21:344209,-1,-3,-4,-2,-1,1,2,-15
22:18:21:352438,-1,-3,-4,-2,-1,1,2,-15
22:18:21:353211,-4,-4,-5,3,-1,-2,6,4
22:18:21:359252,0,3,3,2,1,1,0,2
22:18:21:366752,0,3,3,2,1,1,0,2
22:18:21:374246,-4,-8,3,1,-1,-1,-7,-11
22:18:21:381734,-2,-7,-4,-3,0,-1,1,-14
22:18:21:389914,-2,-7,-4,-3,0,-1,1,-14
22:18:21:390685,-1,-1,-7,-3,-1,-3,-8,8
22:18:21:404228,0,1,6,7,-1,-3,-5,-2
22:18:21:412368,0,1,6,7,-1,-3,-5,-2
22:18:21:413184,2,1,-1,3,4,0,3,-2
22:18:21:419235,-4,-6,-11,-7,-7,0,-2,-3
22:18:21:426766,-4,-6,-11,-7,-7,0,-2,-3
22:18:21:434188,-2,1,0,-2,-3,-2,-1,0
22:18:21:441683,2,5,1,5,6,2,1,7
22:18:21:449928,2,5,1,5,6,2,1,7
22:18:21:450681,0,-1,0,-4,2,0,-2,-3
22:18:21:464209,-3,2,20,-1,-1,-4,1,2
22:18:21:472819,-3,2,20,-1,-1,-4,1,2
22:18:21:479848,0,2,-24,-6,-3,-2,-2,-4
22:18:21:480630,-8,-45,-49,-9,-1,1,-2,1
22:18:21:486776,-8,-45,-49,-9,-1,1,-2,1
22:18:21:494194,0,1,6,1,-5,-4,1,30
22:18:21:501693,3,16,14,1,1,-2,0,6
22:18:21:509944,3,16,14,1,1,-2,0,6
22:18:21:510732,-2,-6,-8,-1,1,2,-5,7
22:18:21:524197,2,8,8,0,-1,-3,-1,-8
22:18:21:532417,2,8,8,0,-1,-3,-1,-8
22:18:21:533210,-1,8,16,4,2,0,-3,-23
22:18:21:539187,-4,-26,-18,-4,-2,-1,-2,5
22:18:21:546760,-4,-26,-18,-4,-2,-1,-2,5
22:18:21:554224,-2,-7,-4,-2,-2,0,-4,0
22:18:21:561685,1,9,6,2,0,-4,1,-3
22:18:21:569955,1,9,6,2,0,-4,1,-3
22:18:21:570720,1,3,3,4,5,1,2,-5
22:18:21:593041,0,10,4,-4,0,0,-2,-3
22:18:21:593877,0,10,4,-4,0,0,-2,-3
22:18:21:594676,1,12,16,0,-5,-3,1,-2
22:18:21:599208,-4,-7,2,0,-2,0,-4,-1
22:18:21:606801,-4,-7,2,0,-2,0,-4,-1
22:18:21:614187,0,1,-1,-6,-4,-3,2,-5
22:18:21:621911,2,3,4,0,-3,-2,-1,2
22:18:21:629932,2,3,4,0,-3,-2,-1,2
22:18:21:630739,2,4,-3,3,4,2,4,-4
22:18:21:644197,0,5,5,4,2,1,2,29
22:18:21:652402,0,5,5,4,2,1,2,29
22:18:21:653213,-2,0,-4,-4,-5,-5,-6,-6
22:18:21:667393,0,5,-4,0,3,4,-1,-9
22:18:21:668226,0,5,-4,0,3,4,-1,-9
22:18:21:674178,3,-7,-3,-4,-1,3,-1,1
22:18:21:681693,-3,-24,-23,-19,-8,-4,-2,-7
22:18:21:689917,-3,-24,-23,-19,-8,-4,-2,-7
22:18:21:690729,-5,0,0,3,2,2,2,7
22:18:21:704240,0,10,6,3,-2,-3,5,1
22:18:21:712393,0,10,6,3,-2,-3,5,1
22:18:21:713218,1,0,25,8,0,-2,-3,-5
22:18:21:719193,3,16,0,2,1,1,-7,6
22:18:21:726761,3,16,0,2,1,1,-7,6
22:18:21:734231,-3,-25,-25,-4,-4,-2,17,36
22:18:21:741720,-2,1,-3,-1,-1,2,-2,-23
22:18:21:749978,-2,1,-3,-1,-1,2,-2,-23
22:18:21:750748,-1,15,12,3,9,7,-10,-12
22:18:21:764219,-1,1,18,-2,-8,-10,-2,59
22:18:21:772394,-1,1,18,-2,-8,-10,-2,59
22:18:21:773231,-2,-1,5,-6,-6,-5,-5,-35
22:18:21:779196,-1,-1,2,-2,-1,-3,15,68
22:18:21:794909,-1,-1,2,-2,-1,-3,15,68
22:18:21:795709,12,-1,20,-1,-2,-2,-7,-10
22:18:21:801677,-9,-2,3,5,3,2,-7,-7
22:18:21:809905,-9,-2,3,5,3,2,-7,-7
22:18:21:810718,-3,-9,-23,-6,0,1,-5,-11
22:18:21:824202,10,-13,-37,-4,-5,-3,-6,-31
22:18:21:832421,10,-13,-37,-4,-5,-3,-6,-31
22:18:21:833217,-5,1,-1,4,1,-1,-5,-7
22:18:21:839179,7,22,23,2,3,2,6,-9
22:18:21:846781,7,22,23,2,3,2,6,-9
22:18:21:854191,-2,-8,-9,-5,-6,-3,-6,-11
22:18:21:861736,-3,-4,5,7,-3,-6,-3,-21
22:18:21:877428,-3,-4,5,7,-3,-6,-3,-21
22:18:21:878216,-5,4,1,0,0,0,3,11
22:18:21:884182,0,-6,4,-4,0,2,-6,-24
22:18:21:892425,0,-6,4,-4,0,2,-6,-24
22:18:21:893264,-2,3,-8,2,1,-3,1,-6
22:18:21:899197,-1,3,3,0,1,-2,-5,-5
22:18:21:906798,-1,3,3,0,1,-2,-5,-5
22:18:21:914221,-8,-30,-4,-9,-6,-5,-5,-46
22:18:21:921724,-4,0,9,3,1,3,-1,-33
22:18:21:929946,-4,0,9,3,1,3,-1,-33
22:18:21:930747,3,16,-14,0,0,0,1,-2
22:18:21:944211,-7,4,21,1,-1,-1,-1,-3
22:18:21:952441,-7,4,21,1,-1,-1,-1,-3
22:18:21:953246,-2,0,7,-3,-1,1,-1,1
22:18:21:959225,3,10,-4,-6,0,1,1,12
22:18:21:966729,3,10,-4,-6,0,1,1,12
22:18:21:974221,6,7,-21,-3,-2,-1,-1,23
22:18:21:981729,-1,-7,0,5,1,3,4,-10
22:18:21:989903,-1,-7,0,5,1,3,4,-10
22:18:21:990692,-2,-6,-13,-3,-3,-1,1,19
22:18:22:4286,-4,-13,-22,-8,-3,-3,-4,-13
22:18:22:12389,-4,-13,-22,-8,-3,-3,-4,-13
22:18:22:13180,1,10,13,3,-1,-1,-1,19
22:18:22:19212,0,-4,-16,2,-2,1,-1,1
22:18:22:26749,0,-4,-16,2,-2,1,-1,1
22:18:22:34215,-1,0,21,2,4,-4,-2,-10
22:18:22:41724,-2,-1,-8,-2,2,1,-3,-34
22:18:22:49285,-2,-1,-8,-2,2,1,-3,-34
22:18:22:56699,-7,-15,11,5,-4,-1,-1,3
22:18:22:64907,1,4,-13,-1,0,-2,7,0
22:18:22:65729,1,4,-13,-1,0,-2,7,0
22:18:22:71701,1,7,-5,2,-1,-1,2,7
22:18:22:87402,0,4,14,2,-1,0,-6,-7
22:18:22:88200,0,4,14,2,-1,0,-6,-7
22:18:22:94212,-6,-4,-5,-6,0,0,3,-10
22:18:22:101734,-3,-3,5,1,-1,-3,-4,-3
22:18:22:109281,-3,-3,5,1,-1,-3,-4,-3
22:18:22:116710,2,-1,1,-1,-1,1,26,72
22:18:22:124952,1,1,-4,-6,-3,0,-16,27
22:18:22:125732,1,1,-4,-6,-3,0,-16,27
22:18:22:131725,-2,-5,-7,-1,-2,-3,-15,-26
22:18:22:147386,-10,-5,-5,1,4,0,2,-1
22:18:22:148249,-10,-5,-5,1,4,0,2,-1
22:18:22:154200,-6,11,-2,0,2,1,0,-4
22:18:22:161695,10,0,-3,-4,-5,-2,0,0
22:18:22:169283,10,0,-3,-4,-5,-2,0,0
22:18:22:176723,3,-13,-13,2,0,0,0,13
22:18:22:184903,10,35,4,1,1,1,3,5
22:18:22:185685,10,35,4,1,1,1,3,5
22:18:22:191720,-19,-37,-1,-5,-2,-2,-4,6
22:18:22:207430,40,38,-18,0,4,6,10,-2
22:18:22:208241,40,38,-18,0,4,6,10,-2
22:18:22:214200,1,12,-16,-4,0,-3,-4,-27
22:18:22:221722,-13,-4,-5,-1,-2,-3,7,-5
22:18:22:229270,-13,-4,-5,-1,-2,-3,7,-5
22:18:22:236722,19,17,9,5,1,0,-10,-4
22:18:22:244223,-24,-33,7,-5,-5,-3,-2,-1
22:18:22:252414,-24,-33,7,-5,-5,-3,-2,-1
22:18:22:253196,-9,14,4,-1,-1,-1,0,-7
22:18:22:267393,-7,-37,32,5,0,-2,-3,2
22:18:22:268204,-7,-37,32,5,0,-2,-3,2
22:18:22:274223,11,8,1,-2,-2,2,1,-6
22:18:22:281728,-4,-5,-24,-6,-2,0,-2,4
22:18:22:289280,-4,-5,-24,-6,-2,0,-2,4
22:18:22:296690,0,-5,-16,-7,-4,-3,-6,16
22:18:22:304230,-5,-11,9,-2,-3,-1,-1,-1
22:18:22:312405,-5,-11,9,-2,-3,-1,-1,-1
22:18:22:313226,0,10,-3,-5,2,4,4,-12
22:18:22:327412,2,12,4,-1,-1,-2,-2,1
22:18:22:328208,2,12,4,-1,-1,-2,-2,1
22:18:22:334189,-8,-9,-4,-2,-3,-7,-7,-9
22:18:22:341728,2,-3,-3,0,-1,-1,-2,-4
22:18:22:349264,2,-3,-3,0,-1,-1,-2,-4
22:18:22:356712,-17,-24,-2,1,-2,-1,3,0
22:18:22:364203,-7,-19,0,-1,-3,-1,-5,-1
22:18:22:372404,-7,-19,0,-1,-3,-1,-5,-1
22:18:22:373225,-1,1,9,1,-2,2,9,-5
22:18:22:387423,5,2,-5,-2,-3,-2,-5,3
22:18:22:388219,5,2,-5,-2,-3,-2,-5,3
22:18:22:394209,5,2,13,1,-1,1,-4,-4
22:18:22:401704,-5,1,5,-2,2,-1,3,-1
22:18:22:409268,-5,1,5,-2,2,-1,3,-1
22:18:22:416675,-7,3,4,-2,-1,-1,0,-2
22:18:22:424221,-1,-7,3,0,-1,-2,8,2
22:18:22:432460,-1,-7,3,0,-1,-2,8,2
22:18:22:433253,9,16,6,4,4,3,-1,13
22:18:22:447417,-17,-10,3,0,-1,0,-4,-19
22:18:22:448243,-17,-10,3,0,-1,0,-4,-19
22:18:22:454205,15,4,-2,-2,-2,-1,0,-3
22:18:22:461704,-20,-32,-5,-4,-3,-5,-3,1
22:18:22:469276,-20,-32,-5,-4,-3,-5,-3,1
22:18:22:476708,-5,-14,-6,-5,-4,-6,-7,-5
22:18:22:484899,10,22,4,1,1,0,0,1
22:18:22:485674,10,22,4,1,1,0,0,1
22:18:22:491755,1,-2,-1,1,0,-1,-2,-3
22:18:22:507455,-7,2,-8,-5,-2,-2,0,2
22:18:22:508231,-7,2,-8,-5,-2,-2,0,2
22:18:22:514266,-7,1,0,-3,-1,-1,0,-8
22:18:22:521707,3,9,7,4,0,0,1,3
22:18:22:529271,3,9,7,4,0,0,1,3
22:18:22:536742,-3,6,-6,-2,-4,-2,-2,-4
22:18:22:544899,12,0,-10,-2,-1,1,2,2
22:18:22:545706,12,0,-10,-2,-1,1,2,2
22:18:22:551689,-18,-27,7,-3,-1,-2,-4,-6
22:18:22:567385,13,-8,11,4,0,-3,4,-2
22:18:22:568201,13,-8,11,4,0,-3,4,-2
22:18:22:574233,-3,16,23,4,4,1,1,3
22:18:22:581719,-2,4,-4,-2,-1,0,-4,-2
22:18:22:589266,-2,4,-4,-2,-1,0,-4,-2
22:18:22:596675,3,3,-10,-3,-4,0,2,-1
22:18:22:604904,7,1,-9,-2,-3,-3,-1,-2
22:18:22:605712,7,1,-9,-2,-3,-3,-1,-2
22:18:22:611711,5,-27,-1,-1,5,0,-6,-1
22:18:22:627393,-27,0,0,1,-2,-1,-3,-2
22:18:22:628253,-27,0,0,1,-2,-1,-3,-2
22:18:22:634197,3,-1,-12,1,-2,-2,0,2
22:18:22:641703,1,0,3,-1,4,-1,-3,1
22:18:22:649275,1,0,3,-1,4,-1,-3,1
22:18:22:656707,-13,11,-34,-1,-2,2,2,3
22:18:22:664906,-7,-17,-8,-6,-4,-5,-5,-5
22:18:22:665724,-7,-17,-8,-6,-4,-5,-5,-5
22:18:22:671690,11,6,11,1,-1,-3,0,-1
22:18:22:687391,-4,12,-11,0,3,2,-2,-3
22:18:22:688200,-4,12,-11,0,3,2,-2,-3
22:18:22:694196,7,-6,6,1,-3,-2,-3,0
22:18:22:701702,11,3,-2,-4,-3,-1,0,2
22:18:22:709263,11,3,-2,-4,-3,-1,0,2
22:18:22:716712,1,-3,-21,7,1,1,5,-2
22:18:22:724915,-7,-7,-6,-4,-1,0,-3,-2
22:18:22:725758,-7,-7,-6,-4,-1,0,-3,-2
22:18:22:731706,5,20,8,-3,-1,-1,-9,-3
22:18:22:747413,2,5,2,-1,2,2,4,13
22:18:22:748250,2,5,2,-1,2,2,4,13
22:18:22:754205,1,17,9,-1,2,3,5,4
22:18:22:761695,2,2,4,-1,-2,-1,-1,-5
22:18:22:769312,2,2,4,-1,-2,-1,-1,-5
22:18:22:776719,1,-9,2,-2,-2,-1,1,-3
22:18:22:784912,-6,5,-5,0,-1,-1,-5,1
22:18:22:785740,-6,5,-5,0,-1,-1,-5,1
22:18:22:791763,-9,-3,10,-3,-2,-3,-7,-8
22:18:22:807443,3,-21,-20,-3,-3,-3,-1,-2
22:18:22:808240,3,-21,-20,-3,-3,-3,-1,-2
22:18:22:814234,-5,-2,2,-3,-2,-2,-4,-1
22:18:22:821717,1,15,3,-1,-1,-1,-1,-3
22:18:22:829238,1,15,3,-1,-1,-1,-1,-3
22:18:22:836738,-6,-4,4,-3,-1,1,18,2
22:18:22:844880,2,1,10,0,-1,-1,-8,-14
22:18:22:845702,2,1,10,0,-1,-1,-8,-14
22:18:22:851692,2,-8,-7,-3,0,2,4,-2
22:18:22:867372,-4,8,10,2,-2,2,2,6
22:18:22:868180,-4,8,10,2,-2,2,2,6
22:18:22:874219,-5,-11,9,0,-4,-4,-6,-3
22:18:22:881731,-5,0,-9,0,1,-2,-7,-8
22:18:22:889239,-5,0,-9,0,1,-2,-7,-8
22:18:22:896713,3,-4,-1,-1,1,-1,-5,3
22:18:22:904907,20,8,-8,-2,-1,0,5,3
22:18:22:905729,20,8,-8,-2,-1,0,5,3
22:18:22:911705,7,1,-15,1,0,-1,-6,-3
22:18:22:927378,-5,-18,-2,-5,-2,-2,2,-1
22:18:22:928231,-5,-18,-2,-5,-2,-2,2,-1
22:18:22:934205,2,8,-6,-2,-3,0,3,2
22:18:22:941711,-3,-12,13,1,3,2,1,4
22:18:22:949257,-3,-12,13,1,3,2,1,4
22:18:22:956677,-4,-1,2,-1,-3,-3,-6,-5
22:18:22:964901,-7,-5,0,-2,-3,-4,-1,-3
22:18:22:965744,-7,-5,0,-2,-3,-4,-1,-3
22:18:22:971721,-12,32,8,-3,-5,-4,-7,-14
22:18:22:987431,-4,-2,1,3,1,1,3,0
22:18:22:988237,-4,-2,1,3,1,1,3,0
22:18:22:994232,0,-15,-9,-3,1,-2,-1,4
22:18:23:9878,-3,12,-8,-5,-2,1,2,0
22:18:23:10743,-3,12,-8,-5,-2,1,2,0
22:18:23:16673,-5,-8,-4,-2,-2,-3,-6,-3
22:18:23:24913,7,-5,-8,3,2,-1,4,1
22:18:23:25714,7,-5,-8,3,2,-1,4,1
22:18:23:39232,4,-5,9,2,-2,1,0,-1
22:18:23:47406,-12,-18,-2,-2,-2,0,-1,-4
22:18:23:48221,-12,-18,-2,-2,-2,0,-1,-4
22:18:23:54200,4,-7,2,-1,0,1,0,2
22:18:23:69935,-2,-5,3,-1,3,3,1,0
22:18:23:70701,-2,-5,3,-1,3,3,1,0
22:18:23:76686,-5,-3,-14,-7,-3,-2,-2,-5
22:18:23:84900,-1,4,-1,1,1,-3,-11,4
22:18:23:85727,-1,4,-1,1,1,-3,-11,4
22:18:23:99235,2,-3,15,4,1,1,3,5
22:18:23:107414,-5,4,-5,-3,-5,-4,-4,-2
22:18:23:108216,-5,4,-5,-3,-5,-4,-4,-2
22:18:23:114218,0,0,-3,1,3,1,0,-2
22:18:23:129927,1,14,10,1,2,-1,1,-1
22:18:23:130710,1,14,10,1,2,-1,1,-1
22:18:23:136751,-10,10,-8,0,0,-2,-4,-18
22:18:23:144901,27,17,2,2,-1,-1,-3,7
22:18:23:145697,27,17,2,2,-1,-1,-3,7
22:18:23:159219,11,-2,-4,0,0,1,0,20
22:18:23:167396,1,-1,20,0,-3,-3,3,-4
22:18:23:168208,1,-1,20,0,-3,-3,3,-4
22:18:23:174251,-6,-2,18,2,3,4,5,1
22:18:23:189921,-22,-15,-17,-3,-3,0,3,-14
22:18:23:190711,-22,-15,-17,-3,-3,0,3,-14
22:18:23:196746,-8,-3,11,0,-1,-2,0,-7
22:18:23:204874,15,8,3,-2,0,0,-5,10
22:18:23:205723,15,8,3,-2,0,0,-5,10
22:18:23:219209,0,0,0,0,-1,-1,-2,-7
22:18:23:227382,-6,-1,1,0,-3,-4,-8,-6
22:18:23:228292,-6,-1,1,0,-3,-4,-8,-6
22:18:23:234235,13,-27,-24,-10,-6,-3,-1,9
22:18:23:249942,-1,-9,2,1,1,-2,-7,-4
22:18:23:250764,-1,-9,2,1,1,-2,-7,-4
22:18:23:256711,-5,-1,-3,2,1,1,0,0
22:18:23:264892,9,-4,-12,-2,-1,1,6,9
22:18:23:265708,9,-4,-12,-2,-1,1,6,9
22:18:23:279212,2,5,-14,-4,-2,-3,-3,0
22:18:23:288117,4,2,0,0,-1,-1,-1,3
22:18:23:288904,4,2,0,0,-1,-1,-1,3
22:18:23:294224,7,2,-7,2,0,1,2,5
22:18:23:309915,0,18,6,-3,-6,-2,-4,-1
22:18:23:310727,0,18,6,-3,-6,-2,-4,-1
22:18:23:316712,-9,2,-5,-3,-4,-3,-14,-6
22:18:23:324941,-8,-30,-2,1,2,-1,6,-3
22:18:23:325759,-8,-30,-2,1,2,-1,6,-3
22:18:23:339228,-9,-2,-12,-5,0,3,6,-6
22:18:23:347398,1,-10,-2,-2,-1,2,0,-2
22:18:23:348240,1,-10,-2,-2,-1,2,0,-2
22:18:23:354205,7,1,2,2,-1,-5,-1,2
22:18:23:369958,7,1,2,2,-1,-5,-1,2
22:18:23:370719,1,-2,-3,-1,-1,-1,-3,4
22:18:23:376742,15,2,5,-1,-2,-2,-8,-3
22:18:23:392426,15,2,5,-1,-2,-2,-8,-3
22:18:23:393273,-2,8,1,1,-1,-1,0,-1
22:18:23:399238,0,-4,11,1,0,1,2,-1
22:18:23:407456,0,-4,11,1,0,1,2,-1
22:18:23:408214,-14,-1,4,0,2,0,-1,-4
22:18:23:414190,-10,-4,7,4,-2,-3,1,-3
22:18:23:429926,-10,-4,7,4,-2,-3,1,-3
22:18:23:430749,3,1,-6,4,-2,-2,-1,-1
22:18:23:436681,-10,2,-9,-12,0,4,2,0
22:18:23:452420,-10,2,-9,-12,0,4,2,0
22:18:23:453206,-8,13,-10,-10,-3,-4,-2,-6
22:18:23:459234,12,36,18,7,-1,-2,-1,3
22:18:23:467416,12,36,18,7,-1,-2,-1,3
22:18:23:468237,-2,22,9,-1,0,1,-1,-3
22:18:23:474230,-5,-1,-6,-4,-2,-2,-2,0
22:18:23:489912,-5,-1,-6,-4,-2,-2,-2,0
22:18:23:490710,8,9,-2,2,-1,-2,0,0
22:18:23:496698,-6,-4,-6,-2,-1,-2,-1,-2
22:18:23:512433,-6,-4,-6,-2,-1,-2,-1,-2
22:18:23:513198,-5,-2,-11,-1,-1,0,0,2
22:18:23:519277,5,-13,-13,-1,-1,0,-1,-1
22:18:23:527427,5,-13,-13,-1,-1,0,-1,-1
22:18:23:528224,-23,-29,-4,-5,-4,-4,-4,-8
22:18:23:534238,-14,-19,-25,-4,-3,-2,0,-1
22:18:23:549936,-14,-19,-25,-4,-3,-2,0,-1
22:18:23:550690,2,8,-22,-6,-2,-3,0,-1
22:18:23:564206,-8,6,17,1,-2,-2,-3,-5
22:18:23:572395,-8,6,17,1,-2,-2,-3,-5
22:18:23:573211,4,11,6,2,-2,0,-2,0
22:18:23:579229,13,-34,-1,-3,-3,-2,-1,9
22:18:23:587452,13,-34,-1,-3,-3,-2,-1,9
22:18:23:588217,-10,-11,8,0,-1,-1,-3,-8
22:18:23:594236,12,23,3,3,1,-1,-1,1
22:18:23:609925,12,23,3,3,1,-1,-1,1
22:18:23:610714,27,2,10,2,0,-2,0,5
22:18:23:616725,-12,-21,-5,-4,-2,-4,-4,-8
22:18:23:632470,-12,-21,-5,-4,-2,-4,-4,-8
22:18:23:633259,-5,13,6,0,-1,2,3,-11
22:18:23:639223,-11,-16,-2,0,-2,-3,-2,-4
22:18:23:647416,-11,-16,-2,0,-2,-3,-2,-4
22:18:23:648216,8,2,-2,-1,0,-2,-3,5
22:18:23:654272,-5,13,-6,1,0,1,1,0
22:18:23:669946,-5,13,-6,1,0,1,1,0
22:18:23:670749,-9,-18,-4,-3,-3,-4,-12,5
22:18:23:676731,7,3,-3,-6,-1,-1,0,1
22:18:23:692439,7,3,-3,-6,-1,-1,0,1
22:18:23:693223,1,-2,-2,2,1,1,3,1
22:18:23:699225,-15,-16,-2,0,-1,1,1,-6
22:18:23:707469,-15,-16,-2,0,-1,1,1,-6
22:18:23:708268,0,-9,-3,-3,-2,-1,1,-3
22:18:23:714219,9,16,15,6,2,1,2,1
22:18:23:729958,9,16,15,6,2,1,2,1
22:18:23:730745,-9,-17,3,-4,-4,-3,-6,-7
22:18:23:736712,-12,-4,-6,-5,-2,-1,-1,-3
22:18:23:752456,-12,-4,-6,-5,-2,-1,-1,-3
22:18:23:753237,-6,3,-1,3,2,3,3,1
22:18:23:759219,-10,-17,5,3,0,-3,-2,-2
22:18:23:767463,-10,-17,5,3,0,-3,-2,-2
22:18:23:768243,-2,-18,-7,-5,-4,-3,1,0
22:18:23:774214,9,23,17,2,0,-2,0,2
22:18:23:789979,9,23,17,2,0,-2,0,2
22:18:23:790763,3,14,-26,-1,0,-1,-2,1
22:18:23:796722,8,-19,-22,-8,-5,-2,-3,-2
22:18:23:812433,8,-19,-22,-8,-5,-2,-3,-2
22:18:23:813235,-1,-23,-15,-3,0,-1,1,-4
22:18:23:819241,-3,12,-6,1,1,0,-4,-2
22:18:23:827485,-3,12,-6,1,1,0,-4,-2
22:18:23:828246,11,24,9,3,2,3,-2,5
22:18:23:834241,-6,-6,3,-1,-3,-1,-5,-3
22:18:23:849916,-6,-6,3,-1,-3,-1,-5,-3
22:18:23:850743,-14,-6,7,-2,-2,-2,-2,4
22:18:23:856698,1,16,14,0,0,1,3,1
22:18:23:872433,1,16,14,0,0,1,3,1
22:18:23:873217,-7,-31,-12,0,1,0,3,1
22:18:23:879222,8,30,4,-1,-4,-4,-9,-3
22:18:23:887445,8,30,4,-1,-4,-4,-9,-3
22:18:23:888229,13,11,-4,3,2,1,2,4
22:18:23:894257,0,-9,-11,-2,-3,0,4,6
22:18:23:909934,0,-9,-11,-2,-3,0,4,6
22:18:23:910742,0,5,-6,-4,-4,-2,-1,1
22:18:23:916692,-17,-28,7,0,-1,0,-5,-4
22:18:23:932424,-17,-28,7,0,-1,0,-5,-4
22:18:23:933222,-1,4,12,-3,-3,-2,-5,-4
22:18:23:939229,1,8,1,2,2,0,-17,-8
22:18:23:947432,1,8,1,2,2,0,-17,-8
22:18:23:948246,-13,-3,23,-2,-4,-1,4,-2
22:18:23:961781,-5,-1,-10,1,3,1,8,3
22:18:23:970317,-5,-1,-10,1,3,1,8,3
22:18:23:977358,-3,23,1,1,1,-1,-1,-9
22:18:23:978221,5,-1,9,0,-2,-1,5,1
22:18:23:992404,5,-1,9,0,-2,-1,5,1
22:18:23:993204,-9,-6,-13,-2,0,0,0,-4
22:18:23:999268,-5,-20,-5,-8,-4,-3,-2,-4
22:18:24:7414,-5,-20,-5,-8,-4,-3,-2,-4
22:18:24:8218,11,-8,5,-2,-1,-2,-5,1
22:18:24:21730,-11,-3,-6,1,0,-2,2,1
22:18:24:29899,-11,-3,-6,1,0,-2,2,1
22:18:24:30708,4,20,-19,-1,1,-1,-4,0
22:18:24:36763,6,-1,-4,1,0,2,6,3
22:18:24:44278,6,-1,-4,1,0,2,6,3
22:18:24:51695,-3,6,-12,0,-2,-2,-1,0
22:18:24:59223,8,-18,-13,-4,-7,-6,-6,-4
22:18:24:67437,8,-18,-13,-4,-7,-6,-6,-4
22:18:24:68243,3,-5,5,-1,2,2,1,1
22:18:24:90568,2,9,-2,2,4,3,1,1
22:18:24:91351,2,9,-2,2,4,3,1,1
22:18:24:92235,-18,-32,14,1,-5,-4,-4,-6
22:18:24:96728,-4,34,6,-2,-1,-1,-2,2
22:18:24:104256,-4,34,6,-2,-1,-1,-2,2
22:18:24:111723,11,-3,7,-1,1,2,1,3
22:18:24:119252,4,-6,10,-1,-2,-3,0,0
22:18:24:127428,4,-6,10,-1,-2,-3,0,0
22:18:24:128232,-5,-33,1,-2,-5,-5,-2,-4
22:18:24:141747,-9,-10,-18,0,-4,-1,0,-1
22:18:24:149933,-9,-10,-18,0,-4,-1,0,-1
22:18:24:150707,6,14,-1,3,1,-1,-1,2
22:18:24:156706,10,6,6,0,3,3,2,1
22:18:24:164302,10,6,6,0,3,3,2,1
22:18:24:171691,-4,-9,-21,-3,-2,-1,0,0
22:18:24:179221,8,7,-18,-1,-1,-2,0,1
22:18:24:187423,8,7,-18,-1,-1,-2,0,1
22:18:24:188252,7,3,0,1,1,1,1,0
22:18:24:210560,13,22,24,3,2,1,5,3
22:18:24:211380,13,22,24,3,2,1,5,3
22:18:24:212228,-9,-15,-11,-5,-5,-4,-6,-5
22:18:24:216773,-3,-6,9,-2,-4,-3,-3,-4
22:18:24:232458,-3,-6,9,-2,-4,-3,-3,-4
22:18:24:233252,12,27,14,4,4,4,2,6
22:18:24:239223,3,18,28,1,-1,-4,-2,3
22:18:24:247411,3,18,28,1,-1,-4,-2,3
22:18:24:248219,2,-25,18,1,-2,-2,1,0
22:18:24:261722,-30,21,2,-2,-1,0,-1,-5
22:18:24:269955,-30,21,2,-2,-1,0,-1,-5
22:18:24:270730,-1,4,15,-2,-1,1,2,2
22:18:24:276738,8,-30,-9,0,2,0,2,2
22:18:24:284249,8,-30,-9,0,2,0,2,2
22:18:24:291761,-27,7,-13,-2,2,1,-1,-2
22:18:24:299265,18,-26,-31,-4,-5,-2,-4,1
22:18:24:307456,18,-26,-31,-4,-5,-2,-4,1
22:18:24:308287,5,-6,-22,-3,-1,0,1,-5
22:18:24:321739,-5,-18,-16,-6,-3,-3,-1,2
22:18:24:329911,-5,-18,-16,-6,-3,-3,-1,2
22:18:24:330723,-1,-6,5,-2,-4,-6,2,-3
22:18:24:336772,-11,-6,-1,1,1,2,-11,-11
22:18:24:344261,-11,-6,-1,1,1,2,-11,-11
22:18:24:351731,-7,7,-2,0,-2,-3,-3,-7
22:18:24:359234,-4,-2,-4,1,1,2,1,1
22:18:24:367436,-4,-2,-4,1,1,2,1,1
22:18:24:368210,11,20,4,-1,-1,-4,-4,3
22:18:24:381749,-11,-12,-2,-3,-4,-3,-1,-2
22:18:24:389938,-11,-12,-2,-3,-4,-3,-1,-2
22:18:24:390706,6,-5,-11,-5,-3,-2,-6,-2
22:18:24:404896,-19,1,7,-3,-2,0,-2,-6
22:18:24:405730,-19,1,7,-3,-2,0,-2,-6
22:18:24:411753,-1,18,-15,-1,0,0,2,1
22:18:24:419279,9,10,15,2,0,-1,2,0
22:18:24:427466,9,10,15,2,0,-1,2,0
22:18:24:428217,-4,4,-5,-1,-1,0,-2,-1
22:18:24:441724,1,7,5,-1,0,-2,0,-7
22:18:24:449952,1,7,5,-1,0,-2,0,-7
22:18:24:450738,-4,-23,5,-3,-1,0,-3,-2
22:18:24:456767,8,-12,-8,0,3,-1,-1,1
22:18:24:464271,8,-12,-8,0,3,-1,-1,1
22:18:24:471721,-1,-7,-22,-4,-2,-2,-1,-1
22:18:24:479217,-4,-15,2,-1,-1,0,1,2
22:18:24:487426,-4,-15,2,-1,-1,0,1,2
22:18:24:488273,16,-9,-21,-1,2,-1,0,1
22:18:24:501753,6,-5,-5,-5,-5,-2,-3,-2
22:18:24:509928,6,-5,-5,-5,-5,-2,-3,-2
22:18:24:510723,-4,18,14,-5,-3,-3,-2,-1
22:18:24:516694,15,16,4,2,-2,-1,0,3
22:18:24:524312,15,16,4,2,-2,-1,0,3
22:18:24:531707,-9,8,30,7,1,2,1,2
22:18:24:539240,-11,-3,-12,-3,-3,-4,-2,-7
22:18:24:547462,-11,-3,-12,-3,-3,-4,-2,-7
22:18:24:548252,4,9,-10,3,2,3,1,3
22:18:24:570553,-1,-6,-31,-9,-2,-2,-1,6
22:18:24:571383,-1,-6,-31,-9,-2,-2,-1,6
22:18:24:572227,-1,-1,-12,-1,-1,0,-3,-2
22:18:24:576771,-11,-13,-5,-2,-2,-1,1,-5
22:18:24:584262,-11,-13,-5,-2,-2,-1,1,-5
22:18:24:591715,-3,-15,-7,-2,-1,1,-2,-3
22:18:24:599229,6,27,-6,3,4,1,1,1
22:18:24:607487,6,27,-6,3,4,1,1,1
22:18:24:608276,0,-5,-8,-3,-3,-3,-1,-1
22:18:24:621782,-8,-1,15,2,2,2,1,-1
22:18:24:638081,-8,-1,15,2,2,2,1,-1
22:18:24:638882,12,6,1,1,-2,-3,-1,2
22:18:24:639671,7,18,5,3,0,1,0,3
22:18:24:644267,7,18,5,3,0,1,0,3
22:18:24:651701,-13,10,13,1,0,-1,2,-11
22:18:24:659252,-26,-52,1,-6,-6,-5,-5,-9
22:18:24:674923,-26,-52,1,-6,-6,-5,-5,-9
22:18:24:675817,-2,-5,9,-1,-1,2,0,-2
22:18:24:681735,5,-16,-15,-4,-4,-6,-4,-4
22:18:24:689895,5,-16,-15,-4,-4,-6,-4,-4
22:18:24:690721,-45,-7,5,0,-1,-1,-1,-12
22:18:24:696756,12,19,11,1,0,0,0,7
22:18:24:704254,12,19,11,1,0,0,0,7
22:18:24:711698,-2,13,19,-3,-2,-3,-3,2
22:18:24:719217,0,-4,4,-1,-1,0,-2,-4
22:18:24:727468,0,-4,4,-1,-1,0,-2,-4
22:18:24:728255,9,2,-15,-7,-1,0,3,6
22:18:24:741708,-7,15,-2,-1,-1,3,2,-3
22:18:24:749939,-7,15,-2,-1,-1,3,2,-3
22:18:24:750748,-5,4,6,1,-1,-2,-5,-10
22:18:24:756693,-7,10,-3,2,1,-2,-2,-2
22:18:24:764302,-7,10,-3,2,1,-2,-2,-2
22:18:24:771712,13,2,-6,-3,0,-1,-11,3
22:18:24:779229,-2,-3,10,0,0,1,4,2
22:18:24:787450,-2,-3,10,0,0,1,4,2
22:18:24:788243,9,-8,17,1,-2,-1,6,3
22:18:24:801729,1,-1,6,1,0,-2,-8,0
22:18:24:809937,1,-1,6,1,0,-2,-8,0
22:18:24:810749,8,-3,-32,0,-1,-1,0,-2
22:18:24:816717,6,3,-2,-1,-1,0,3,2
22:18:24:824307,6,3,-2,-1,-1,0,3,2
22:18:24:831758,4,-6,-6,-1,-1,-2,-7,-3
22:18:24:839240,3,8,-12,-2,1,0,1,-4
22:18:24:847465,3,8,-12,-2,1,0,1,-4
22:18:24:848268,0,-16,12,-3,-2,1,0,2
22:18:24:861714,0,-5,5,2,-1,-2,-2,-1
22:18:24:869967,0,-5,5,2,-1,-2,-2,-1
22:18:24:870761,-57,-18,-20,-4,-2,-3,-3,-18
22:18:24:884937,-4,5,6,-2,-3,-1,2,0
22:18:24:885769,-4,5,6,-2,-3,-1,2,0
22:18:24:899896,16,-13,-12,0,-1,0,1,6
22:18:24:900651,-5,-5,-9,-2,-1,-1,0,-4
22:18:24:906758,-5,-5,-9,-2,-1,-1,0,-4
22:18:24:922358,6,2,49,0,-4,-3,-3,0
22:18:24:923226,12,-17,-60,-6,-2,-2,-2,3
22:18:24:929921,12,-17,-60,-6,-2,-2,-2,3
22:18:24:930716,8,13,22,2,-3,-3,-2,-1
22:18:24:953089,-14,-23,-1,-4,0,-2,-1,-12
22:18:24:953930,-14,-23,-1,-4,0,-2,-1,-12
22:18:24:954712,6,11,-14,1,2,3,2,3
22:18:24:959233,1,29,43,9,7,7,3,0
22:18:24:966741,1,29,43,9,7,7,3,0
22:18:24:974237,11,1,-15,-2,-1,-2,1,0
22:18:24:981730,-17,-18,1,-2,-4,-5,-5,-2
22:18:24:989903,-17,-18,1,-2,-4,-5,-5,-2
22:18:24:990728,11,19,-8,3,3,3,2,7
22:18:25:4914,-4,-9,-2,0,0,-1,-2,-1
22:18:25:5720,-4,-9,-2,0,0,-1,-2,-1
22:18:25:11740,-12,-14,5,-2,-3,-5,-1,-3
22:18:25:19231,7,16,15,2,0,1,-1,3
22:18:25:26760,7,16,15,2,0,1,-1,3
22:18:25:34223,-17,-11,-20,-6,-5,-2,-4,-5
22:18:25:41675,-14,-21,-37,-5,1,2,0,2
22:18:25:49920,-14,-21,-37,-5,1,2,0,2
22:18:25:50714,18,-11,33,-2,-4,-3,-4,11
22:18:25:64913,-3,10,-3,-5,-5,-1,2,0
22:18:25:65719,-3,10,-3,-5,-5,-1,2,0
22:18:25:71689,-3,-13,-12,2,1,-2,-4,-4
22:18:25:79222,5,6,19,1,-2,-3,-3,-4
22:18:25:86757,5,6,19,1,-2,-3,-3,-4
22:18:25:94216,5,2,-29,-4,-1,0,2,0
22:18:25:101736,-3,0,-6,-1,0,-2,-1,-6
22:18:25:109950,-3,0,-6,-1,0,-2,-1,-6
22:18:25:110746,-3,3,13,2,2,0,-2,-2
22:18:25:124915,3,-24,13,0,0,-1,-2,-1
22:18:25:125741,3,-24,13,0,0,-1,-2,-1
22:18:25:131704,-4,21,-12,-1,2,1,1,-1
22:18:25:139248,9,-4,5,0,-4,-4,-4,-2
22:18:25:146796,9,-4,5,0,-4,-4,-4,-2
22:18:25:154260,9,16,2,-2,-2,-1,0,1
22:18:25:161699,-26,-39,-21,-6,-3,-3,-2,-4
22:18:25:169965,-26,-39,-21,-6,-3,-3,-2,-4
22:18:25:170743,-3,1,5,-1,-1,0,-1,0
22:18:25:184933,10,37,0,0,2,1,1,2
22:18:25:185751,10,37,0,0,2,1,1,2
22:18:25:199890,-3,-30,15,6,3,2,1,-3
22:18:25:200680,7,4,18,-2,-5,-4,-1,1
22:18:25:206792,7,4,18,-2,-5,-4,-1,1
22:18:25:214257,-6,9,-14,-8,-5,-1,-4,-6
22:18:25:221721,9,27,9,0,4,4,-2,3
22:18:25:229958,9,27,9,0,4,4,-2,3
22:18:25:230736,0,2,8,3,-4,-4,-1,-3
22:18:25:244913,-10,8,-6,1,-3,0,0,1
22:18:25:245755,-10,8,-6,1,-3,0,0,1
22:18:25:251731,-1,-10,-12,1,1,-2,-1,0
22:18:25:259252,15,-9,8,3,-2,-1,-1,2
22:18:25:266780,15,-9,8,3,-2,-1,-1,2
22:18:25:274247,1,-2,-8,-1,1,1,0,-3
22:18:25:281730,-4,2,11,2,-1,1,2,2
22:18:25:289988,-4,2,11,2,-1,1,2,2
22:18:25:290766,-1,-20,-11,-4,-4,-2,-3,-1
22:18:25:304970,4,-3,6,2,-4,-4,-2,-3
22:18:25:305766,4,-3,6,2,-4,-4,-2,-3
22:18:25:311755,-1,-7,13,-2,0,3,2,-3
22:18:25:319235,-7,8,3,0,-2,-3,-5,-1
22:18:25:326810,-7,8,3,0,-2,-3,-5,-1
22:18:25:334242,0,-13,-42,-15,-3,3,4,0
22:18:25:350591,-15,-27,-14,-10,-1,1,3,-1
22:18:25:351411,-15,-27,-14,-10,-1,1,3,-1
22:18:25:352223,-25,-14,9,3,-3,-5,-5,-5
22:18:25:364906,9,-6,-38,3,0,-2,-2,-2
22:18:25:365760,9,-6,-38,3,0,-2,-2,-2
22:18:25:371726,1,20,14,4,0,-4,-3,0
22:18:25:379252,6,12,10,-5,1,-1,-1,1
22:18:25:386782,6,12,10,-5,1,-1,-1,1
22:18:25:394227,3,-14,-27,-8,-4,-6,-1,-1
22:18:25:401779,26,41,26,9,4,2,0,0
22:18:25:409900,26,41,26,9,4,2,0,0
22:18:25:410708,-26,-50,-8,0,-4,-2,-3,-7
22:18:25:424941,-1,-44,23,-5,-7,-5,-2,-3
22:18:25:425767,-1,-44,23,-5,-7,-5,-2,-3
22:18:25:431763,-1,-15,9,-2,1,2,2,2
22:18:25:439252,-1,6,-2,-5,-3,-1,-3,0
22:18:25:446767,-1,6,-2,-5,-3,-1,-3,0
22:18:25:454261,5,13,-3,4,1,-1,-2,-1
22:18:25:461749,-15,-15,-11,2,0,0,0,-2
22:18:25:469922,-15,-15,-11,2,0,0,0,-2
22:18:25:470719,12,15,15,0,-3,-1,0,1
22:18:25:484253,-15,2,-18,2,1,-2,-3,-5
22:18:25:492422,-15,2,-18,2,1,-2,-3,-5
22:18:25:493218,0,32,11,5,4,2,0,3
22:18:25:499282,1,9,-13,-1,-1,0,2,3
22:18:25:506797,1,9,-13,-1,-1,0,2,3
22:18:25:514234,12,13,0,-3,1,2,2,3
22:18:25:521747,-10,-10,-5,-2,-2,0,-2,-4
22:18:25:529929,-10,-10,-5,-2,-2,0,-2,-4
22:18:25:530738,6,6,-6,1,-2,-3,-2,-1
22:18:25:544922,-4,-42,-11,-16,-6,0,-1,-4
22:18:25:545743,-4,-42,-11,-16,-6,0,-1,-4
22:18:25:551699,-3,10,6,-3,2,0,0,1
22:18:25:559248,-7,0,3,7,1,1,-1,-3
22:18:25:566785,-7,0,3,7,1,1,-1,-3
22:18:25:574245,12,12,8,8,-2,-3,-1,2
22:18:25:581706,4,11,6,-1,2,0,-2,0
22:18:25:589932,4,11,6,-1,2,0,-2,0
22:18:25:590743,-8,25,8,-7,-3,0,-1,-4
22:18:25:604925,3,-13,-10,-5,-3,-3,-3,0
22:18:25:605761,3,-13,-10,-5,-3,-3,-3,0
22:18:25:611722,3,-13,-1,1,-2,-2,-3,-4
22:18:25:619232,-2,15,15,9,0,2,3,-1
22:18:25:626789,-2,15,15,9,0,2,3,-1
22:18:25:634229,-8,-20,-3,-5,-1,1,-1,-2
22:18:25:641715,2,-1,4,-3,0,-3,-2,-4
22:18:25:649984,2,-1,4,-3,0,-3,-2,-4
22:18:25:650798,4,29,15,-8,-5,-1,0,4
22:18:25:664893,-13,12,-2,-2,3,1,0,2
22:18:25:665768,-13,12,-2,-2,3,1,0,2
22:18:25:671719,2,-9,-20,-1,-1,-2,-2,1
22:18:25:679248,-4,14,7,-2,-5,-2,-3,-4
22:18:25:686806,-4,14,7,-2,-5,-2,-3,-4
22:18:25:694247,-9,-13,-5,-4,-3,0,0,-6
22:18:25:701774,10,35,-1,4,-1,-2,-1,-1
22:18:25:709917,10,35,-1,4,-1,-2,-1,-1
22:18:25:710692,5,-8,-4,-4,-3,-2,1,0
22:18:25:724946,-3,-27,6,-1,-1,-5,-1,-5
22:18:25:725772,-3,-27,6,-1,-1,-5,-1,-5
22:18:25:731760,-6,-9,-9,4,4,3,0,-1
22:18:25:739235,-2,-16,-25,-3,-3,-1,1,2
22:18:25:746724,-2,-16,-25,-3,-3,-1,1,2
22:18:25:754245,-3,2,-17,-1,-4,-1,-2,0
22:18:25:761733,3,-15,-26,-6,-2,0,-1,-2
22:18:25:769912,3,-15,-26,-6,-2,0,-1,-2
22:18:25:770703,-3,3,-15,1,2,0,0,2
22:18:25:784898,1,-8,15,7,3,-1,-1,1
22:18:25:785734,1,-8,15,7,3,-1,-1,1
22:18:25:791749,9,29,13,7,2,1,1,2
22:18:25:799250,11,19,-12,-17,-10,-1,1,2
22:18:25:806804,11,19,-12,-17,-10,-1,1,2
22:18:25:814258,-4,-26,8,4,1,-1,-2,-2
22:18:25:821708,-7,-13,-13,-11,-2,1,-4,-4
22:18:25:829286,-7,-13,-13,-11,-2,1,-4,-4
22:18:25:836713,5,24,7,3,0,1,0,1
22:18:25:844915,10,4,30,8,-1,0,1,-3
22:18:25:845763,10,4,30,8,-1,0,1,-3
22:18:25:851727,-9,-1,20,7,-1,-5,-1,-2
22:18:25:867444,1,5,18,5,-1,-2,-2,-1
22:18:25:868246,1,5,18,5,-1,-2,-2,-1
22:18:25:874266,1,-37,-2,2,-1,-2,-3,-3
22:18:25:881738,4,12,2,0,-5,-5,-3,0
22:18:25:889296,4,12,2,0,-5,-5,-3,0
22:18:25:896713,-14,-11,-16,-6,0,-1,-1,1
22:18:25:904955,0,9,0,-2,7,1,0,1
22:18:25:905777,0,9,0,-2,7,1,0,1
22:18:25:911750,-4,-50,-3,-10,4,4,0,-3
22:18:25:927415,5,28,-9,6,0,-3,-1,2
22:18:25:928229,5,28,-9,6,0,-3,-1,2
22:18:25:934247,-7,-2,-38,-5,0,-2,-2,-2
22:18:25:941717,1,29,25,9,5,4,2,2
22:18:25:949298,1,29,25,9,5,4,2,2
22:18:25:956746,-1,-1,21,-2,-5,1,2,-1
22:18:25:964896,-6,-20,-22,-6,-8,-2,-4,-2
22:18:25:965730,-6,-20,-22,-6,-8,-2,-4,-2
22:18:25:971746,-2,2,27,5,-1,-2,-1,-1
22:18:25:987443,-5,-11,-3,-2,1,0,-3,-3
22:18:25:988281,-5,-11,-3,-2,1,0,-3,-3
22:18:25:994256,-7,6,-4,-1,-2,-1,-2,2
22:18:26:1746,2,-10,-16,1,-2,-2,-2,-2
22:18:26:9241,2,-10,-16,1,-2,-2,-2,-2
22:18:26:16750,7,20,-4,-19,-9,-3,-3,-2
22:18:26:24908,-11,-59,-24,-5,-1,-4,-1,-2
22:18:26:25721,-11,-59,-24,-5,-1,-4,-1,-2
22:18:26:31698,3,-6,3,3,0,-1,-2,-2
22:18:26:47383,8,-1,7,1,1,-1,0,-2
22:18:26:48240,8,-1,7,1,1,-1,0,-2
22:18:26:54243,7,1,-27,5,1,1,1,3
22:18:26:61760,-12,-5,32,0,-1,1,1,2
22:18:26:69276,-12,-5,32,0,-1,1,1,2
22:18:26:76694,7,34,23,0,-4,-6,-2,-2
22:18:26:84923,11,28,-12,-5,-1,1,2,5
22:18:26:85750,11,28,-12,-5,-1,1,2,5
22:18:26:91724,-3,-9,-8,-7,-3,-4,-2,-1
22:18:26:107421,-4,7,3,1,-6,-4,-6,-8
22:18:26:108252,-4,7,3,1,-6,-4,-6,-8
22:18:26:114254,-4,-35,-35,3,-1,-1,-5,-1
22:18:26:121714,-7,-16,12,-7,-4,-1,0,0
22:18:26:129270,-7,-16,12,-7,-4,-1,0,0
22:18:26:136733,-2,1,-11,-5,-3,-1,-1,-4
22:18:26:144925,8,-6,-44,4,1,-2,0,-1
22:18:26:145746,8,-6,-44,4,1,-2,0,-1
22:18:26:151733,-20,-6,12,-5,-1,-1,-4,-1
22:18:26:175570,6,15,-8,-6,-2,-2,1,0
22:18:26:176384,6,15,-8,-6,-2,-2,1,0
22:18:26:177267,12,20,-17,4,5,0,-1,-4
22:18:26:181755,0,56,45,10,3,1,0,3
22:18:26:189293,0,56,45,10,3,1,0,3
22:18:26:196701,-5,-17,-12,-10,-4,-1,2,0
22:18:26:204930,1,-11,-11,1,1,-1,-3,0
22:18:26:205753,1,-11,-11,1,1,-1,-3,0
22:18:26:211733,-16,-14,14,-1,0,0,0,-3
22:18:26:227404,-1,-5,10,4,3,1,0,-2
22:18:26:228235,-1,-5,10,4,3,1,0,-2
22:18:26:234267,15,25,16,4,1,0,0,1
22:18:26:241706,-16,-9,19,4,5,2,0,-4
22:18:26:249287,-16,-9,19,4,5,2,0,-4
22:18:26:256709,9,14,18,12,2,-1,-2,1
22:18:26:264919,0,0,4,0,-1,-2,-6,-1
22:18:26:265738,0,0,4,0,-1,-2,-6,-1
22:18:26:271753,-6,14,55,6,4,1,0,-1
22:18:26:287418,5,-34,5,7,3,0,-2,0
22:18:26:288241,5,-34,5,7,3,0,-2,0
22:18:26:302408,2,-1,-16,-4,-1,0,0,0
22:18:26:303260,0,-10,-6,-10,-7,-4,-2,0
22:18:26:309305,0,-10,-6,-10,-7,-4,-2,0
22:18:26:316720,1,4,-15,-4,-4,-1,-3,0
22:18:26:324945,-6,0,-19,-1,-6,-5,0,-5
22:18:26:325753,-6,0,-19,-1,-6,-5,0,-5
22:18:26:331748,1,3,21,-2,-3,-1,1,1
22:18:26:347449,-3,-4,-12,6,4,0,0,-2
22:18:26:348273,-3,-4,-12,6,4,0,0,-2
22:18:26:354263,3,-13,-6,0,-1,0,0,-2
22:18:26:361718,1,3,-6,-9,-3,-3,-1,3
22:18:26:369264,1,3,-6,-9,-3,-3,-1,3
22:18:26:376729,0,2,-12,-7,-4,-3,-3,-3
22:18:26:384924,5,58,13,-11,-4,-2,-2,-1
22:18:26:385731,5,58,13,-11,-4,-2,-2,-1
22:18:26:391744,-5,-53,-10,-1,0,-2,-1,0
22:18:26:407431,-3,-33,-32,-14,-5,-1,-1,-1
22:18:26:408244,-3,-33,-32,-14,-5,-1,-1,-1
22:18:26:414267,0,8,-12,-13,1,1,-1,-3
22:18:26:421740,5,18,13,3,-1,-1,-2,1
22:18:26:429318,5,18,13,3,-1,-1,-2,1
22:18:26:436730,2,-1,15,9,3,1,2,0
22:18:26:453112,-7,-31,15,9,5,6,2,1
22:18:26:453896,-7,-31,15,9,5,6,2,1
22:18:26:454720,-14,-39,-21,-15,-7,-1,-3,-3
22:18:26:467429,3,6,6,-7,-5,-2,-2,0
22:18:26:468249,3,6,6,-7,-5,-2,-2,0
22:18:26:474277,0,-13,1,7,0,-3,-1,1
22:18:26:481720,-4,-9,-39,-11,-3,-1,-3,-1
22:18:26:489292,-4,-9,-39,-11,-3,-1,-3,-1
22:18:26:496726,-1,22,-8,1,-3,-2,0,-1
22:18:26:504630,-4,-29,-7,5,3,-1,1,-2
22:18:26:512437,-4,-29,-7,5,3,-1,1,-2
22:18:26:513246,-1,1,-12,9,-1,-3,-3,-2
22:18:26:527419,3,10,3,0,7,5,0,1
22:18:26:528247,3,10,3,0,7,5,0,1
22:18:26:534237,-9,0,-6,0,0,0,0,-2
22:18:26:541747,-2,4,4,4,1,1,1,0
22:18:26:549303,-2,4,4,4,1,1,1,0
22:18:26:556733,8,30,11,9,0,0,-1,2
22:18:26:564878,8,-1,0,3,-3,-3,0,-2
22:18:26:565723,8,-1,0,3,-3,-3,0,-2
22:18:26:571737,0,-1,6,0,3,0,-2,-3
22:18:26:587450,-2,-9,-42,3,2,3,4,4
22:18:26:588269,-2,-9,-42,3,2,3,4,4
22:18:26:594265,3,39,43,-7,-4,-1,-3,-2
22:18:26:601732,-4,20,32,0,-2,0,0,1
22:18:26:617627,-4,20,32,0,-2,0,0,1
22:18:26:618261,-12,-55,-5,-8,-7,-5,-2,0
22:18:26:624943,-6,-4,13,2,2,0,-2,-9
22:18:26:625796,-6,-4,13,2,2,0,-2,-9
22:18:26:631734,12,40,8,7,-2,-1,0,4
22:18:26:647451,-7,-2,-4,3,-7,-5,-5,-5
22:18:26:648267,-7,-2,-4,3,-7,-5,-5,-5
22:18:26:654258,-12,-17,-9,-1,-2,-2,0,-1
22:18:26:661734,-1,-12,16,-1,1,2,1,4
22:18:26:669316,-1,-12,16,-1,1,2,1,4
22:18:26:676756,-3,0,-34,-4,-1,0,0,-1
22:18:26:684281,6,25,-2,5,-1,-3,-5,-4
22:18:26:692398,6,25,-2,5,-1,-3,-5,-4
22:18:26:693267,1,-3,-9,-7,-1,-1,-1,-3
22:18:26:707502,10,-1,-34,-8,-2,-3,1,3
22:18:26:708314,10,-1,-34,-8,-2,-3,1,3
22:18:26:714252,1,2,20,-7,-2,-1,-2,-2
22:18:26:721738,-3,-3,9,-6,-5,-1,-3,-4
22:18:26:729288,-3,-3,9,-6,-5,-1,-3,-4
22:18:26:736830,2,13,-41,4,3,3,0,1
22:18:26:744285,-10,-17,-18,-11,-3,-3,-2,-3
22:18:26:752430,-10,-17,-18,-11,-3,-3,-2,-3
22:18:26:753268,19,35,20,8,4,-2,-2,3
22:18:26:767427,0,7,-15,4,-7,-6,-4,-3
22:18:26:768290,0,7,-15,4,-7,-6,-4,-3
22:18:26:774260,-11,-13,13,-1,-2,2,2,-4
22:18:26:789968,-6,-19,-32,-14,-1,2,0,-3
22:18:26:790792,-6,-19,-32,-14,-1,2,0,-3
22:18:26:796715,6,47,6,-5,-3,-5,-4,0
22:18:26:804258,-17,-43,30,-6,2,2,-2,-8
22:18:26:811758,-17,-43,30,-6,2,2,-2,-8
22:18:26:819271,5,-5,-4,2,-2,0,0,3
22:18:26:827412,7,23,19,12,3,0,2,4
22:18:26:828267,7,23,19,12,3,0,2,4
22:18:26:834265,-3,-30,16,0,-2,-4,-3,-3
22:18:26:849928,-8,2,15,3,2,1,2,0
22:18:26:850729,-8,2,15,3,2,1,2,0
22:18:26:856768,5,2,-9,-9,0,1,2,-3
22:18:26:864268,6,9,1,-10,-7,-3,-2,2
22:18:26:871766,6,9,1,-10,-7,-3,-2,2
22:18:26:879261,-6,-19,-12,-4,-2,1,0,-2
22:18:26:887454,2,-8,-9,-4,-5,-4,-2,2
22:18:26:888281,2,-8,-9,-4,-5,-4,-2,2
22:18:26:894251,-2,-8,-6,9,5,1,-1,-3
22:18:26:909913,10,32,17,4,2,1,-1,2
22:18:26:910715,10,32,17,4,2,1,-1,2
22:18:26:916716,11,14,17,0,-2,-2,-2,1
22:18:26:924236,-6,-6,-2,0,1,-2,-1,0
22:18:26:931781,-6,-6,-2,0,1,-2,-1,0
22:18:26:939240,-5,-7,25,5,-4,-4,-5,-3
22:18:26:947441,-4,4,25,-7,-5,-2,-2,-1
22:18:26:948256,-4,4,25,-7,-5,-2,-2,-1
22:18:26:954238,-14,-2,8,-4,-1,1,2,-3
22:18:26:969933,10,5,-14,-8,-4,1,1,0
22:18:26:970758,10,5,-14,-8,-4,1,1,0
22:18:26:976724,-9,1,1,3,1,-2,-3,-3
22:18:26:984249,0,41,17,5,2,0,-2,-2
22:18:26:991788,0,41,17,5,2,0,-2,-2
22:18:26:999257,-7,-36,-31,2,4,0,-1,-1
22:18:27:7462,0,-17,-22,4,0,-3,-4,-3
22:18:27:8293,0,-17,-22,4,0,-3,-4,-3
22:18:27:14245,5,-4,6,2,3,1,1,0
22:18:27:29930,-22,-44,1,1,1,-1,-4,-6
22:18:27:30761,-22,-44,1,1,1,-1,-4,-6
22:18:27:44848,-14,-9,5,2,-1,-2,-2,-3
22:18:27:45679,6,9,50,2,-6,-2,0,-3
22:18:27:51800,6,9,50,2,-6,-2,0,-3
22:18:27:59246,2,-33,-31,-16,-6,-2,-1,1
22:18:27:67414,-4,-37,-40,-6,0,0,-1,-1
22:18:27:68242,-4,-37,-40,-6,0,0,-1,-1
22:18:27:74264,8,32,-2,-3,1,-1,0,0
22:18:27:89937,4,14,-28,5,8,5,2,0
22:18:27:90759,4,14,-28,5,8,5,2,0
22:18:27:96715,-6,15,8,4,-4,0,0,-2
22:18:27:104287,8,30,-7,6,2,-3,-2,-2
22:18:27:111802,8,30,-7,6,2,-3,-2,-2
22:18:27:119294,8,6,-12,-5,-5,-3,0,2
22:18:27:127457,-3,-13,-19,-12,1,-3,0,-3
22:18:27:128297,-3,-13,-19,-12,1,-3,0,-3
22:18:27:134262,-2,-16,-23,-3,-1,-1,-1,2
22:18:27:149955,6,16,0,16,7,0,2,1
22:18:27:150753,6,16,0,16,7,0,2,1
22:18:27:156736,-6,-25,-16,-1,-5,-3,-3,-2
22:18:27:172431,-24,-44,-24,-11,-6,0,-3,-3
22:18:27:173309,-24,-44,-24,-11,-6,0,-3,-3
22:18:27:179256,1,1,-1,23,6,-1,-1,0
22:18:27:187439,4,-16,-24,-13,-6,-2,0,3
22:18:27:188254,4,-16,-24,-13,-6,-2,0,3
22:18:27:194245,-3,-17,-9,-1,3,1,0,-2
22:18:27:209929,10,13,-15,2,-1,-3,-2,-3
22:18:27:210753,10,13,-15,2,-1,-3,-2,-3
22:18:27:216708,9,21,-7,3,-2,1,4,5
22:18:27:224281,0,-5,22,-11,-1,-1,-3,-5
22:18:27:231785,0,-5,22,-11,-1,-1,-3,-5
22:18:27:239255,-7,-38,8,-3,-2,-3,-4,-8
22:18:27:247397,1,19,-12,-3,-4,1,1,1
22:18:27:248247,1,19,-12,-3,-4,1,1,1
22:18:27:254273,1,19,24,-6,4,1,-3,1
22:18:27:269957,-7,-8,3,-25,-5,2,1,1
22:18:27:270755,-7,-8,3,-25,-5,2,1,1
22:18:27:276754,-14,3,-18,-7,-8,-2,0,-2
22:18:27:284261,-2,14,6,7,-3,-4,-2,-3
22:18:27:291828,-2,14,6,7,-3,-4,-2,-3
22:18:27:299286,7,16,-3,-7,-5,-3,-6,0
22:18:27:307420,-7,-23,12,3,-4,0,2,2
22:18:27:308260,-7,-23,12,3,-4,0,2,2
22:18:27:314264,-7,-3,7,-9,-2,-1,-3,-4
22:18:27:329946,5,-1,1,-1,-1,-3,-1,-1
22:18:27:330705,5,-1,1,-1,-1,-3,-1,-1
22:18:27:336764,13,17,14,4,7,6,6,3
22:18:27:352444,13,17,14,4,7,6,6,3
22:18:27:353255,-14,-2,14,6,4,-2,0,-2
22:18:27:359278,4,31,-1,-25,-12,-4,-1,-3
22:18:27:367441,4,31,-1,-25,-12,-4,-1,-3
22:18:27:368266,-3,-5,4,8,-1,0,-7,1
22:18:27:374297,-4,-3,-12,3,-1,-3,-4,-4
22:18:27:389989,-4,-3,-12,3,-1,-3,-4,-4
22:18:27:390817,-4,13,0,0,2,-2,-2,-3
22:18:27:396760,3,15,18,8,2,0,1,0
22:18:27:412487,3,15,18,8,2,0,1,0
22:18:27:413279,6,0,-6,-7,1,3,-2,0
22:18:27:419270,0,-6,-12,-3,0,2,4,1
22:18:27:427484,0,-6,-12,-3,0,2,4,1
22:18:27:428275,0,0,2,-7,-8,-4,5,3
22:18:27:434273,-2,-9,-2,1,0,-2,-1,-6
22:18:27:450460,-2,-9,-2,1,0,-2,-1,-6
22:18:27:451273,-2,11,5,7,-4,-6,-15,-3
22:18:27:456752,2,7,7,2,-1,-1,0,3
22:18:27:472432,2,7,7,2,-1,-1,0,3
22:18:27:473261,-6,-16,0,8,6,2,4,0
22:18:27:479265,-4,0,-12,-4,-3,-1,0,-2
22:18:27:487452,-4,0,-12,-4,-3,-1,0,-2
22:18:27:488263,-1,7,-10,-18,-7,-3,-4,0
22:18:27:494274,-2,1,12,-3,-7,-8,-7,-5
22:18:27:509943,-2,1,12,-3,-7,-8,-7,-5
22:18:27:510776,-1,-4,-1,17,12,4,3,-2
22:18:27:516717,2,39,21,5,4,-1,0,5
22:18:27:532441,2,39,21,5,4,-1,0,5
22:18:27:533257,-1,4,-13,6,4,5,3,-1
22:18:27:539290,-6,-24,-21,4,3,4,5,0
22:18:27:547453,-6,-24,-21,4,3,4,5,0
22:18:27:548254,7,-7,19,-10,-6,-4,-1,-2
22:18:27:561750,2,-2,-15,-3,-1,1,-1,2
22:18:27:569979,2,-2,-15,-3,-1,1,-1,2
22:18:27:570747,3,-3,-10,8,3,-1,2,1
22:18:27:576717,-7,-7,10,0,1,-1,-1,-1
22:18:27:592456,-7,-7,10,0,1,-1,-1,-1
22:18:27:593267,6,19,-1,2,-5,-2,0,4
22:18:27:599288,5,-8,2,-6,-1,1,0,-1
22:18:27:607429,5,-8,2,-6,-1,1,0,-1
22:18:27:608263,-2,45,20,2,-3,-4,-7,-8
22:18:27:614268,-5,-10,-3,3,1,0,0,0
22:18:27:629967,-5,-10,-3,3,1,0,0,0
22:18:27:630742,1,-45,-35,-31,-9,-3,-4,-7
22:18:27:636734,-8,1,-15,-16,-3,0,-1,0
22:18:27:652424,-8,1,-15,-16,-3,0,-1,0
22:18:27:653261,-7,-2,37,10,-1,-3,-2,0
22:18:27:659290,-14,-8,65,1,4,-1,-5,-4
22:18:27:667201,-14,-8,65,1,4,-1,-5,-4
22:18:27:674868,12,35,-1,-2,-4,-3,0,1
22:18:27:675702,5,15,-10,3,-3,-2,-1,3
22:18:27:689925,5,15,-10,3,-3,-2,-1,3
22:18:27:690769,-9,-14,-9,-8,-4,0,-3,-1
22:18:27:696697,-2,12,-21,3,2,2,7,-2
22:18:27:712598,-2,12,-21,3,2,2,7,-2
22:18:27:713266,-4,-54,-17,6,-3,-1,0,-4
22:18:27:719292,1,-45,13,1,-2,-5,-5,-2
22:18:27:727448,1,-45,13,1,-2,-5,-5,-2
22:18:27:728290,9,20,22,-7,-2,0,0,3
22:18:27:741772,1,21,-5,14,9,-3,-5,-3
22:18:27:749978,1,21,-5,14,9,-3,-5,-3
22:18:27:750720,-29,-17,-50,2,3,0,1,-7
22:18:27:756748,1,9,-17,-10,-3,1,0,1
22:18:27:772476,1,9,-17,-10,-3,1,0,1
22:18:27:773273,6,-18,-53,-16,-2,-2,-3,-1
22:18:27:779268,-8,-6,8,11,0,0,0,-1
22:18:27:787425,-8,-6,8,11,0,0,0,-1
22:18:27:788250,4,8,50,17,0,1,3,3
22:18:27:801729,0,-21,-10,-2,-4,-6,-3,-5
22:18:27:809966,0,-21,-10,-2,-4,-6,-3,-5
22:18:27:810783,-6,3,6,3,-5,-5,-2,0
22:18:27:816745,-4,-4,0,-12,-10,0,3,1
22:18:27:832463,-4,-4,0,-12,-10,0,3,1
22:18:27:833299,7,-8,30,2,-1,-2,-4,1
22:18:27:839283,3,61,-6,4,-6,-2,-4,-3
22:18:27:847435,3,61,-6,4,-6,-2,-4,-3
22:18:27:848272,2,-4,5,4,2,4,6,4
22:18:27:861728,-1,-23,-13,8,4,0,3,0
22:18:27:869981,-1,-23,-13,8,4,0,3,0
22:18:27:870771,9,31,42,-14,-10,-2,-2,-1
22:18:27:876754,-14,-31,-16,-22,-5,2,-3,-4
22:18:27:892468,-14,-31,-16,-22,-5,2,-3,-4
22:18:27:893300,2,-7,-10,-6,-1,-2,-2,-3
22:18:27:899291,-9,-14,16,5,2,-1,0,-7
22:18:27:907486,-9,-14,16,5,2,-1,0,-7
22:18:27:908269,-3,42,-28,-3,-3,-2,4,12
22:18:27:921734,14,37,-32,-2,-5,-4,-10,-6
22:18:27:929993,14,37,-32,-2,-5,-4,-10,-6
22:18:27:930766,2,-23,-17,0,-1,-4,-6,-8
22:18:27:936753,-4,-1,13,12,7,0,0,1
22:18:27:952442,-4,-1,13,12,7,0,0,1
22:18:27:953274,-1,5,20,-12,-9,-2,-2,-3
22:18:27:959298,2,-40,2,-10,-4,-4,-4,0
22:18:27:967475,2,-40,2,-10,-4,-4,-4,0
22:18:27:968259,-9,-1,5,17,10,4,3,1
22:18:27:982199,7,0,1,1,5,1,-3,0
22:18:27:989964,7,0,1,1,5,1,-3,0
22:18:27:990739,-6,-36,-19,8,15,4,1,0
22:18:27:996754,-1,-42,-7,1,0,1,2,2
22:18:28:12488,-1,-42,-7,1,0,1,2,2
22:18:28:13259,-4,6,-11,-7,0,2,5,-4
22:18:28:19294,-1,14,13,-8,-1,1,-2,-12
22:18:28:27481,-1,14,13,-8,-1,1,-2,-12
22:18:28:28277,-2,-45,-36,-4,-5,-6,-9,-12
22:18:28:41748,23,33,27,-13,-11,-6,-4,1
22:18:28:49964,23,33,27,-13,-11,-6,-4,1
22:18:28:50737,-20,21,10,-2,-1,0,9,3
22:18:28:56718,-19,-8,-29,-16,-8,1,3,-11
22:18:28:72425,-19,-8,-29,-16,-8,1,3,-11
22:18:28:73266,15,3,8,3,3,1,3,4
22:18:28:79206,1,2,17,13,6,-1,-3,0
22:18:28:87445,1,2,17,13,6,-1,-3,0
22:18:28:88275,28,53,38,1,-3,-3,-3,6
22:18:28:101778,-30,-24,15,0,-6,-2,2,13
22:18:28:109935,-30,-24,15,0,-6,-2,2,13
22:18:28:110754,10,7,-5,11,-2,-1,7,1
22:18:28:116711,8,-38,-39,-9,-2,-4,-8,-7
22:18:28:132422,8,-38,-39,-9,-2,-4,-8,-7
22:18:28:133250,-4,-5,25,7,1,5,4,10
22:18:28:139272,14,7,-3,-8,-3,-1,-1,6
22:18:28:147438,14,7,-3,-8,-3,-1,-1,6
22:18:28:148261,10,46,6,-19,-3,5,7,-7
22:18:28:161760,-23,-23,12,13,2,-3,-8,0
22:18:28:169926,-23,-23,12,13,2,-3,-8,0
22:18:28:170745,-25,-48,-29,-12,-10,-4,0,-11
22:18:28:176775,14,59,5,11,1,-1,1,-1
22:18:28:192428,14,59,5,11,1,-1,1,-1
22:18:28:193275,-34,-24,-21,3,3,0,-12,25
22:18:28:199284,-12,-28,7,7,12,7,8,5
22:18:28:207431,-12,-28,7,7,12,7,8,5
22:18:28:208274,18,32,-13,-10,-2,-1,-2,-5
22:18:28:221749,-13,-10,-22,-4,0,-4,-10,-10
22:18:28:229960,-13,-10,-22,-4,0,-4,-10,-10
22:18:28:230756,3,2,79,13,0,-2,-5,-5
22:18:28:236742,12,25,6,-2,-11,-4,1,-4
22:18:28:252465,12,25,6,-2,-11,-4,1,-4
22:18:28:253295,-16,-33,-31,0,-7,-7,-13,-7
22:18:28:259259,19,21,-17,-23,-4,1,9,1
22:18:28:267923,19,21,-17,-23,-4,1,9,1
22:18:28:282409,14,15,5,2,1,1,-1,-4
22:18:28:283285,0,8,21,-6,-5,-4,4,1
22:18:28:289981,0,8,21,-6,-5,-4,4,1
22:18:28:290730,-16,-51,-21,17,4,-7,-13,-11
22:18:28:296774,2,30,3,0,-4,0,-4,-3
22:18:28:312903,2,30,3,0,-4,0,-4,-3
22:18:28:313686,-6,-45,-16,-30,4,6,5,-3
22:18:28:319276,8,20,28,22,9,2,4,5
22:18:28:334972,8,20,28,22,9,2,4,5
22:18:28:336026,-22,12,-34,5,-3,-4,2,-9
22:18:28:341785,-8,-29,-21,9,8,3,-5,-1
22:18:28:349938,-8,-29,-21,9,8,3,-5,-1
22:18:28:350708,16,15,-2,10,6,3,3,4
22:18:28:356757,-7,-39,5,6,-1,0,4,4
22:18:28:372472,-7,-39,5,6,-1,0,4,4
22:18:28:373290,-8,0,-48,-3,-3,-5,-1,-2
22:18:28:379286,-15,-9,-16,-24,-2,3,-2,-2
22:18:28:394964,-15,-9,-16,-24,-2,3,-2,-2
22:18:28:395765,-30,-4,10,-39,-10,3,1,-1
22:18:28:401736,4,7,-22,-1,-6,-4,-2,-2
22:18:28:410009,4,7,-22,-1,-6,-4,-2,-2
22:18:28:410777,25,29,12,26,3,-3,0,4
22:18:28:424284,-5,-12,-4,-15,-5,-3,-10,3
22:18:28:432490,-5,-12,-4,-15,-5,-3,-10,3
22:18:28:433292,10,-1,-8,0,-4,-3,-6,-2
22:18:28:448071,14,19,35,19,-1,0,-4,-10
22:18:28:448931,14,19,35,19,-1,0,-4,-10
22:18:28:449719,21,-1,7,-25,-9,-1,3,8
22:18:28:461748,-13,0,16,-1,-6,-1,2,0
22:18:28:469932,-13,0,16,-1,-6,-1,2,0
22:18:28:470747,-1,-50,-9,2,-3,-5,-7,-8
22:18:28:476731,20,3,18,13,-3,-5,5,8
22:18:28:492433,20,3,18,13,-3,-5,5,8
22:18:28:493297,7,12,-2,-23,4,5,2,-2
22:18:28:499278,-8,9,-10,-21,-6,1,2,5
22:18:28:507456,-8,9,-10,-21,-6,1,2,5
22:18:28:508253,-13,15,41,24,6,-1,-9,-4
22:18:28:521777,6,2,17,15,7,-3,-7,-5
22:18:28:529939,6,2,17,15,7,-3,-7,-5
22:18:28:530730,-1,-2,2,-5,-4,-1,-1,-1
22:18:28:536751,1,-26,-52,-6,-4,-4,-1,-8
22:18:28:552431,1,-26,-52,-6,-4,-4,-1,-8
22:18:28:553289,2,18,72,-10,-18,-10,-3,3
22:18:28:559260,-19,-38,-21,-6,-3,-3,0,-8
22:18:28:567431,-19,-38,-21,-6,-3,-3,0,-8
22:18:28:568277,-17,6,-16,12,9,5,2,-1
22:18:28:590617,-15,13,6,-7,-4,-3,-7,4
22:18:28:591433,-15,13,6,-7,-4,-3,-7,4
22:18:28:592354,11,39,53,-6,-4,-1,-3,-10
22:18:28:596736,9,11,0,9,8,3,3,7
22:18:28:612480,9,11,0,9,8,3,3,7
22:18:28:613467,-19,-52,-20,22,9,-3,-4,-11
22:18:28:619315,2,-30,-2,-7,-5,-3,0,1
22:18:28:627457,2,-30,-2,-7,-5,-3,0,1
22:18:28:628317,5,-29,-52,8,0,0,0,-1
22:18:28:641732,0,1,-5,-15,1,3,1,3
22:18:28:649992,0,1,-5,-15,1,3,1,3
22:18:28:650782,0,-30,-8,17,1,-2,1,5
22:18:28:656747,8,17,-1,6,2,-2,-2,-4
22:18:28:672457,8,17,-1,6,2,-2,-2,-4
22:18:28:673280,0,5,-5,-12,-8,-6,-4,-3
22:18:28:679279,-21,-22,6,-8,-2,2,-4,-9
22:18:28:686802,-21,-22,6,-8,-2,2,-4,-9
22:18:28:694288,10,25,-15,19,9,4,10,11
22:18:28:701752,-14,29,26,-9,-6,-2,-3,-7
22:18:28:709982,-14,29,26,-9,-6,-2,-3,-7
22:18:28:710773,4,20,-10,-8,0,-1,-3,-2
22:18:28:724302,6,6,15,12,11,7,6,8
22:18:28:732443,6,6,15,12,11,7,6,8
22:18:28:733246,-23,-2,19,-5,3,5,4,-2
22:18:28:739273,1,-36,-58,-24,-17,-5,-4,-7
22:18:28:746812,1,-36,-58,-24,-17,-5,-4,-7
22:18:28:754287,16,24,45,5,-2,-4,-4,3
22:18:28:761757,-11,26,9,10,0,0,2,3
22:18:28:769943,-11,26,9,10,0,0,2,3
22:18:28:770758,-2,-3,-41,0,-6,-5,-11,-6
22:18:28:784282,26,20,-10,5,-2,-2,2,5
22:18:28:792475,26,20,-10,5,-2,-2,2,5
22:18:28:793292,-23,-10,-48,-40,-11,-1,3,2
22:18:28:799284,15,35,5,7,2,-2,-2,16
22:18:28:806766,15,35,5,7,2,-2,-2,16
22:18:28:814285,18,16,-3,14,4,1,-2,-2
22:18:28:821770,7,-19,5,10,3,-5,0,-2
22:18:28:829941,7,-19,5,10,3,-5,0,-2
22:18:28:830733,0,-21,-11,-11,7,6,4,-6
22:18:28:844363,-3,-13,-1,4,-1,-2,-7,-7
22:18:28:852432,-3,-13,-1,4,-1,-2,-7,-7
22:18:28:853282,-7,-12,15,0,-3,-5,0,-2
22:18:28:859321,1,22,-1,-2,-1,-1,-1,-7
22:18:28:866798,1,22,-1,-2,-1,-1,-1,-7
22:18:28:874215,13,11,-7,-5,4,3,3,10
22:18:28:881718,-41,-77,3,6,-6,-8,-4,-9
22:18:28:889942,-41,-77,3,6,-6,-8,-4,-9
22:18:28:890777,0,22,16,12,1,-5,-3,0
22:18:28:904293,-4,26,-6,-7,4,3,2,-11
22:18:28:912464,-4,26,-6,-7,4,3,2,-11
22:18:28:913286,21,-3,-3,7,4,1,2,9
22:18:28:919203,-8,-13,-16,0,7,4,-1,-1
22:18:28:926796,-8,-13,-16,0,7,4,-1,-1
22:18:28:934306,9,24,8,17,-2,3,0,-3
22:18:28:941732,3,14,-19,1,1,2,-1,1
22:18:28:949981,3,14,-19,1,1,2,-1,1
22:18:28:950755,-23,-33,35,-10,-4,-1,-3,-2
22:18:28:964214,9,-31,-3,-5,3,-1,-2,0
22:18:28:972447,9,-31,-3,-5,3,-1,-2,0
22:18:28:973290,-6,-9,10,-4,-2,-3,2,1
22:18:28:979290,-7,28,-3,-24,-12,-4,-2,-3
22:18:28:986816,-7,28,-3,-24,-12,-4,-2,-3
22:18:28:994290,4,-15,7,22,13,5,3,0
22:18:29:1745,0,-24,-5,5,1,-2,-9,-3
22:18:29:9959,0,-24,-5,5,1,-2,-9,-3
22:18:29:10756,-3,13,-16,-7,-6,0,2,-3
22:18:29:24288,-20,-43,10,2,-2,0,4,-8
22:18:29:32447,-20,-43,10,2,-2,0,4,-8
22:18:29:33310,4,12,-13,-16,-11,-2,2,-3
22:18:29:39285,18,15,21,-12,-5,2,5,11
22:18:29:46833,18,15,21,-12,-5,2,5,11
22:18:29:54306,-6,-34,17,-2,-3,-7,-8,-10
22:18:29:61722,19,-4,-8,9,-4,-5,-2,4
22:18:29:69953,19,-4,-8,9,-4,-5,-2,4
22:18:29:70752,1,-11,-3,23,4,1,2,-5
22:18:29:84298,19,17,-23,-35,-9,2,-1,-6
22:18:29:92471,19,17,-23,-35,-9,2,-1,-6
22:18:29:93280,2,13,-8,-22,-9,-3,-2,4
22:18:29:99276,-6,-23,4,26,9,-1,-2,2
22:18:29:114959,-6,-23,4,26,9,-1,-2,2
22:18:29:115775,-8,3,-22,-25,-12,-7,-5,-3
22:18:29:121767,13,18,10,27,1,-3,-6,3
22:18:29:129910,13,18,10,27,1,-3,-6,3
22:18:29:130728,7,-3,-39,-8,-7,-7,-10,-13
22:18:29:144280,4,31,29,33,1,0,5,10
22:18:29:152463,4,31,29,33,1,0,5,10
22:18:29:153290,-18,-30,-3,-23,-6,4,-1,4
22:18:29:159287,-14,11,-3,1,2,0,0,-10
22:18:29:166774,-14,11,-3,1,2,0,0,-10
22:18:29:174308,-10,-24,5,6,-1,-2,-2,0
22:18:29:181793,-17,-1,31,-4,-3,-3,3,-9
22:18:29:189951,-17,-1,31,-4,-3,-3,3,-9
22:18:29:190719,17,37,29,1,0,3,4,-1
22:18:29:204291,-11,14,-10,-41,-18,-5,-1,3
22:18:29:212403,-11,14,-10,-41,-18,-5,-1,3
22:18:29:213272,-1,17,-16,0,-5,-2,-4,-1
22:18:29:219285,-8,-21,-22,-8,1,-1,-3,-2
22:18:29:226782,-8,-21,-22,-8,1,-1,-3,-2
22:18:29:234226,-7,-20,-2,27,6,1,-2,1
22:18:29:241768,-3,-30,-54,-79,-24,-2,1,-5
22:18:29:249942,-3,-30,-54,-79,-24,-2,1,-5
22:18:29:250749,6,15,4,-6,4,2,1,0
22:18:29:264299,10,2,-16,34,8,-2,0,-2
22:18:29:272442,10,2,-16,34,8,-2,0,-2
22:18:29:273272,-10,-15,5,-9,-2,-5,-4,-5
22:18:29:279214,-3,-4,-2,21,8,1,-9,-3
22:18:29:286783,-3,-4,-2,21,8,1,-9,-3
22:18:29:294221,1,3,1,5,3,0,1,1
22:18:29:301700,8,-14,8,-4,14,4,2,-1
22:18:29:309972,8,-14,8,-4,14,4,2,-1
22:18:29:310783,3,34,7,-6,3,3,5,4
22:18:29:324217,-4,23,26,15,0,-4,-8,-4
22:18:29:332463,-4,23,26,15,0,-4,-8,-4
22:18:29:333308,2,23,28,-16,-12,-5,-5,-4
22:18:29:339233,-3,11,-16,-18,-7,-2,1,0
22:18:29:346772,-3,11,-16,-18,-7,-2,1,0
22:18:29:354294,-2,-30,-25,10,3,-4,-5,-3
22:18:29:361759,5,11,20,11,1,-1,-3,-4
22:18:29:369990,5,11,20,11,1,-1,-3,-4
22:18:29:370788,-28,-28,-1,-9,-11,-8,-7,13
22:18:29:384233,-3,-27,-4,18,9,5,6,7
22:18:29:392480,-3,-27,-4,18,9,5,6,7
22:18:29:393268,16,34,27,15,4,3,2,0
22:18:29:399300,-6,-8,-18,-29,-9,-1,5,0
22:18:29:406827,-6,-8,-18,-29,-9,-1,5,0
22:18:29:414288,-3,-7,-16,-8,-5,0,1,-3
22:18:29:421750,13,-12,-1,-1,3,4,0,0
22:18:29:430011,13,-12,-1,-1,3,4,0,0
22:18:29:430750,1,-5,7,-5,0,-1,-3,-3
22:18:29:444310,12,47,44,26,3,-4,-3,-7
22:18:29:452487,12,47,44,26,3,-4,-3,-7
22:18:29:453302,7,0,2,12,5,2,10,7
22:18:29:459479,-25,-27,-11,-30,-10,-4,-7,-4
22:18:29:466758,-25,-27,-11,-30,-10,-4,-7,-4
22:18:29:474295,3,-6,-12,15,7,0,0,-4
22:18:29:481790,-6,-18,-19,-19,-5,3,4,1
22:18:29:489984,-6,-18,-19,-19,-5,3,4,1
22:18:29:490731,-7,-32,2,8,6,-1,1,-2
22:18:29:504281,-28,-17,-22,15,3,-1,-5,-6
22:18:29:512419,-28,-17,-22,15,3,-1,-5,-6
22:18:29:513327,0,9,-11,-13,-2,-2,-8,-3
22:18:29:519295,5,-4,-34,-9,1,2,0,2
22:18:29:526787,5,-4,-34,-9,1,2,0,2
22:18:29:534219,-5,-6,-10,12,-9,-2,2,11
22:18:29:541734,14,18,-14,3,-7,-5,-1,3
22:18:29:549954,14,18,-14,3,-7,-5,-1,3
22:18:29:550768,-28,10,13,12,6,1,-3,-8
22:18:29:564294,8,7,7,5,1,-1,-1,1
22:18:29:572444,8,7,7,5,1,-1,-1,1
22:18:29:573284,9,14,-7,-7,5,2,1,-3
22:18:29:579210,8,-4,-5,3,-3,-3,-1,-2
22:18:29:586793,8,-4,-5,3,-3,-3,-1,-2
22:18:29:594283,-29,-56,-13,-10,8,0,-4,-5
22:18:29:601707,-7,-11,0,-8,-3,-2,-3,-7
22:18:29:610100,-7,-11,0,-8,-3,-2,-3,-7
22:18:29:610753,16,16,-7,8,1,3,1,-21
22:18:29:624240,-12,-17,-6,-11,1,5,2,-1
22:18:29:632447,-12,-17,-6,-11,1,5,2,-1
22:18:29:633295,0,-1,1,-26,-12,-3,1,-5
22:18:29:647410,4,-17,-28,23,-5,-6,-7,0
22:18:29:648298,4,-17,-28,23,-5,-6,-7,0
22:18:29:654205,-10,-11,21,-13,1,0,5,1
22:18:29:661706,7,23,61,8,4,-1,5,9
22:18:29:669300,7,23,61,8,4,-1,5,9
22:18:29:676725,-2,17,-17,4,-5,-2,-6,2
22:18:29:684223,12,33,41,0,0,-4,0,5
22:18:29:692468,12,33,41,0,0,-4,0,5
22:18:29:693295,11,21,26,-1,-1,0,-3,-1
22:18:29:707443,16,9,-11,6,1,2,-2,-5
22:18:29:708275,16,9,-11,6,1,2,-2,-5
22:18:29:714287,-5,-29,-59,2,11,4,2,2
22:18:29:721724,6,32,8,-9,-1,3,1,8
22:18:29:729310,6,32,8,-9,-1,3,1,8
22:18:29:736761,10,-8,9,-7,-10,-3,-3,-1
22:18:29:744300,4,5,5,-12,2,-1,-3,0
22:18:29:752457,4,5,5,-12,2,-1,-3,0
22:18:29:753304,-12,-17,-22,-3,-3,-2,2,1
22:18:29:767440,-21,-2,37,-16,8,1,0,-12
22:18:29:768286,-21,-2,37,-16,8,1,0,-12
22:18:29:774307,29,33,0,3,8,2,-1,9
22:18:29:781724,-36,-27,0,15,0,1,-5,-18
22:18:29:789312,-36,-27,0,15,0,1,-5,-18
22:18:29:796768,14,27,20,0,-5,-3,2,1
22:18:29:804299,11,25,-17,19,4,-3,2,-5
22:18:29:812444,11,25,-17,19,4,-3,2,-5
22:18:29:813319,-4,-11,-14,7,-1,-3,-5,2
22:18:29:827467,-15,-36,-22,-12,3,2,-1,-2
22:18:29:828300,-15,-36,-22,-12,3,2,-1,-2
22:18:29:834302,-6,14,-3,2,1,-3,-1,1
22:18:29:841724,6,0,-10,16,2,2,-3,-6
22:18:29:849318,6,0,-10,16,2,2,-3,-6
22:18:29:856804,8,0,-3,-11,-9,-5,-6,-6
22:18:29:864322,-6,-41,-6,-20,-12,-4,-4,-1
22:18:29:872455,-6,-41,-6,-20,-12,-4,-4,-1
22:18:29:873284,-2,-3,21,7,-3,-2,-4,-4
22:18:29:887427,-10,-9,0,-5,-5,-5,-1,-1
22:18:29:888301,-10,-9,0,-5,-5,-5,-1,-1
22:18:29:894542,8,9,23,-5,3,1,-3,7
22:18:29:901772,4,-8,-6,-5,-1,-2,-1,4
22:18:29:909300,4,-8,-6,-5,-1,-2,-1,4
22:18:29:916728,-36,-52,-21,-9,-7,-5,-5,-15
22:18:29:924252,8,1,-31,2,4,3,4,8
22:18:29:932452,8,1,-31,2,4,3,4,8
22:18:29:933294,5,30,30,-3,0,0,0,-4
22:18:29:947472,0,-1,29,17,1,-5,-1,-1
22:18:29:948292,0,-1,29,17,1,-5,-1,-1
22:18:29:954221,-5,-11,8,-12,-8,-2,3,1
22:18:29:961736,6,-10,-33,-1,6,0,1,-2
22:18:29:969325,6,-10,-33,-1,6,0,1,-2
22:18:29:976746,-9,-31,-1,2,0,0,1,-4
22:18:29:984214,1,7,-3,6,1,0,2,-8
22:18:29:992475,1,7,-3,6,1,0,2,-8
22:18:29:993274,-10,5,3,9,-3,-4,-5,-3
22:18:30:7482,11,27,47,8,1,0,5,7
22:18:30:8289,11,27,47,8,1,0,5,7
22:18:30:14255,-5,13,19,-8,-4,-1,3,4
22:18:30:21721,-23,11,16,5,-5,-4,-7,0
22:18:30:29328,-23,11,16,5,-5,-4,-7,0
22:18:30:36754,-16,-64,-26,-8,6,3,-6,-6
22:18:30:44289,6,31,-11,-5,-2,-5,-6,2
22:18:30:52521,6,31,-11,-5,-2,-5,-6,2
22:18:30:53302,5,17,-10,16,4,-3,-7,-11
22:18:30:67454,-19,-31,-7,-10,1,9,10,-7
22:18:30:68298,-19,-31,-7,-10,1,9,10,-7
22:18:30:74304,22,28,-7,-7,-6,-3,-2,1
22:18:30:81760,23,32,12,5,-7,-5,2,9
22:18:30:89345,23,32,12,5,-7,-5,2,9
22:18:30:96768,6,22,-36,0,-2,-2,3,3
22:18:30:104307,4,-5,-21,-7,-1,-4,1,-4
22:18:30:112446,4,-5,-21,-7,-1,-4,1,-4
22:18:30:113320,21,6,-4,9,1,0,8,11
22:18:30:127480,-2,-13,8,-5,-3,0,1,16
22:18:30:128298,-2,-13,8,-5,-3,0,1,16
22:18:30:134307,0,-22,27,11,-2,0,-1,4
22:18:30:141754,2,5,16,-14,-8,-3,-2,-3
22:18:30:149303,2,5,16,-14,-8,-3,-2,-3
22:18:30:156787,8,43,-3,-7,-4,0,-2,7
22:18:30:164302,-9,-9,-37,2,2,-1,5,-13
22:18:30:172476,-9,-9,-37,2,2,-1,5,-13
22:18:30:173283,-12,-5,24,0,-2,-1,-3,4
22:18:30:187452,11,4,4,0,2,-1,-2,4
22:18:30:188295,11,4,4,0,2,-1,-2,4
22:18:30:194302,-11,-57,-64,-23,-2,3,0,-15
22:18:30:201780,6,9,2,-4,-4,0,7,5
22:18:30:209313,6,9,2,-4,-4,0,7,5
22:18:30:224953,-6,-24,-4,3,-2,-11,-34,-20
22:18:30:225712,-9,-30,-19,-1,0,3,4,1
22:18:30:232454,-9,-30,-19,-1,0,3,4,1
22:18:30:233294,14,36,-1,8,1,3,10,20
22:18:30:247391,8,3,5,-4,-2,-2,-13,0
22:18:30:248312,8,3,5,-4,-2,-2,-13,0
22:18:30:254286,-10,-9,21,1,2,5,16,-7
22:18:30:261789,-1,-1,-16,-2,-4,-5,-12,-4
22:18:30:269318,-1,-1,-16,-2,-4,-5,-12,-4
22:18:30:276727,0,16,5,1,-1,-1,7,9
22:18:30:284303,-11,-1,-9,-5,0,0,8,-15
22:18:30:292458,-11,-1,-9,-5,0,0,8,-15
22:18:30:293468,-10,-5,8,7,0,-5,-3,-8
22:18:30:307416,2,-12,7,0,0,2,-6,-3
22:18:30:308288,2,-12,7,0,0,2,-6,-3
22:18:30:314227,-21,4,14,10,2,1,8,-4
22:18:30:321770,18,34,0,-16,-5,-5,-7,6
22:18:30:329306,18,34,0,-16,-5,-5,-7,6
22:18:30:336726,-3,1,12,2,1,-1,-13,-5
22:18:30:344245,3,-6,6,8,0,4,4,31
22:18:30:352461,3,-6,6,8,0,4,4,31
22:18:30:353285,19,14,-22,-4,2,-1,8,8
22:18:30:367431,-10,-33,-39,-11,-7,-3,-7,-11
22:18:30:368320,-10,-33,-39,-11,-7,-3,-7,-11
22:18:30:374233,10,31,-7,-5,-1,2,5,-2
22:18:30:381750,-10,0,2,0,-3,-3,3,-20
22:18:30:389339,-10,0,2,0,-3,-3,3,-20
22:18:30:396760,23,5,29,2,1,-1,4,-6
22:18:30:404233,-5,1,11,7,-2,0,9,-2
22:18:30:412490,-5,1,11,7,-2,0,9,-2
22:18:30:413292,-14,1,1,-14,-11,-4,-11,5
22:18:30:427474,-6,8,-11,-5,0,0,-1,-8
22:18:30:428315,-6,8,-11,-5,0,0,-1,-8
22:18:30:434309,13,-12,-8,-6,-2,-3,-4,5
22:18:30:441738,-9,1,5,2,-3,-3,-7,1
22:18:30:449289,-9,1,5,2,-3,-3,-7,1
22:18:30:456780,-12,-21,-20,-6,-5,-4,-1,8
22:18:30:464315,-14,2,29,12,5,3,-6,-7
22:18:30:472449,-14,2,29,12,5,3,-6,-7
22:18:30:473324,-8,8,26,11,2,2,7,-13
22:18:30:487487,9,0,-5,1,2,1,13,12
22:18:30:488391,9,0,-5,1,2,1,13,12
22:18:30:494307,7,-2,-14,-10,2,-1,-19,2
22:18:30:501766,-23,-51,1,0,-4,-6,-8,-4
22:18:30:509295,-23,-51,1,0,-4,-6,-8,-4
22:18:30:516775,7,-2,-10,2,8,5,14,-1
22:18:30:524311,-12,-12,-14,-6,0,-4,-18,-6
22:18:30:531792,-12,-12,-14,-6,0,-4,-18,-6
22:18:30:539337,-11,-10,-16,-6,-6,0,-11,-13
22:18:30:547448,17,-11,26,1,-2,0,0,1
22:18:30:548292,17,-11,26,1,-2,0,0,1
22:18:30:554317,-13,-27,15,-5,-5,-4,-3,-19
22:18:30:569936,11,33,-23,-8,1,-1,5,5
22:18:30:570739,11,33,-23,-8,1,-1,5,5
22:18:30:576724,-6,-12,-12,-15,-4,2,-2,7
22:18:30:584291,9,4,-6,-3,-2,-2,-9,6
22:18:30:591786,9,4,-6,-3,-2,-2,-9,6
22:18:30:599231,-5,-22,-18,-6,-3,1,8,2
22:18:30:607493,-12,26,27,-8,-8,-5,-16,0
22:18:30:608284,-12,26,27,-8,-8,-5,-16,0
22:18:30:614261,8,-7,-12,-1,-2,-1,2,-2
22:18:30:629937,1,6,6,2,5,5,5,-6
22:18:30:630732,1,6,6,2,5,5,5,-6
22:18:30:636725,5,-2,8,5,0,-5,-15,0
22:18:30:644239,-1,11,-37,-4,-2,0,-6,15
22:18:30:651797,-1,11,-37,-4,-2,0,-6,15
22:18:30:659256,6,10,2,11,4,5,24,10
22:18:30:667483,4,-19,1,-1,3,2,-1,7
22:18:30:668300,4,-19,1,-1,3,2,-1,7
22:18:30:674323,-32,-48,14,1,-3,-5,-10,-2
22:18:30:689968,-16,-60,-12,-5,-4,-1,9,-11
22:18:30:690779,-16,-60,-12,-5,-4,-1,9,-11
22:18:30:696754,-20,23,20,3,0,-1,-13,-7
22:18:30:704247,14,13,-5,3,3,-1,3,-7
22:18:30:711811,14,13,-5,3,3,-1,3,-7
22:18:30:719308,-5,7,2,3,1,0,3,-17
22:18:30:727415,-13,7,-28,-7,-9,-3,-5,-12
22:18:30:728312,-13,7,-28,-7,-9,-3,-5,-12
22:18:30:734333,7,-8,-6,-6,-2,1,-2,6
22:18:30:749980,17,10,31,10,1,-1,6,8
22:18:30:750789,17,10,31,10,1,-1,6,8
22:18:30:756765,0,3,-17,-10,-1,-1,-5,6
22:18:30:764329,2,44,-9,3,-2,-8,-24,-17
22:18:30:771765,2,44,-9,3,-2,-8,-24,-17
22:18:30:779316,12,23,2,4,0,-1,6,7
22:18:30:787433,6,19,9,0,-4,-1,-5,-3
22:18:30:788288,6,19,9,0,-4,-1,-5,-3
22:18:30:794350,7,25,7,5,1,1,9,2
22:18:30:809924,4,-33,11,3,-1,0,7,-4
22:18:30:810740,4,-33,11,3,-1,0,7,-4
22:18:30:816763,6,27,1,7,-3,-4,-3,5
22:18:30:824314,-33,1,-23,-1,0,-2,4,1
22:18:30:831811,-33,1,-23,-1,0,-2,4,1
22:18:30:839212,-4,-17,-9,-8,-4,-7,-9,-6
22:18:30:847467,-11,-15,5,6,1,-2,-7,3
22:18:30:848333,-11,-15,5,6,1,-2,-7,3
22:18:30:854252,0,7,-12,-3,6,2,-6,-2
22:18:30:869951,11,0,15,0,1,2,-2,13
22:18:30:870759,11,0,15,0,1,2,-2,13
22:18:30:876776,0,-25,14,1,0,2,0,2
22:18:30:884322,4,-10,-23,-4,-2,0,11,1
22:18:30:891800,4,-10,-23,-4,-2,0,11,1
22:18:30:899248,-6,19,6,8,6,-3,-2,-6
22:18:30:907495,-15,-20,-5,4,3,3,2,-6
22:18:30:908289,-15,-20,-5,4,3,3,2,-6
22:18:30:914245,1,8,7,-16,-5,3,5,3
22:18:30:929965,9,10,-21,-16,-8,-3,-3,1
22:18:30:930769,9,10,-21,-16,-8,-3,-3,1
22:18:30:936745,9,3,16,19,9,-1,-6,-10
22:18:30:944249,-21,-2,20,13,4,-1,3,-8
22:18:30:951829,-21,-2,20,13,4,-1,3,-8
22:18:30:959260,-3,5,-19,-14,-8,-2,-7,-7
22:18:30:967472,0,-34,8,-9,-8,-3,-1,-2
22:18:30:968298,0,-34,8,-9,-8,-3,-1,-2
22:18:30:974328,-3,-16,-14,-8,-7,-5,-2,2
22:18:30:989967,3,5,24,12,2,-4,0,4
22:18:30:990796,3,5,24,12,2,-4,0,4
22:18:30:996738,-9,-17,-31,-2,-2,0,12,3
22:18:31:4252,-3,9,-3,6,-2,-6,-5,-17
22:18:31:11822,-3,9,-3,6,-2,-6,-5,-17
22:18:31:19316,-5,-37,-25,-20,1,7,3,5
22:18:31:27443,11,18,3,0,0,1,8,2
22:18:31:28331,11,18,3,0,0,1,8,2
22:18:31:34333,-16,-26,-9,0,0,-8,-11,-7
22:18:31:49978,19,-4,27,-2,-2,0,-1,4
22:18:31:50781,19,-4,27,-2,-2,0,-1,4
22:18:31:56766,3,24,-15,7,-1,-6,-16,-1
22:18:31:64324,0,-3,-1,-3,-6,-3,-6,-5
22:18:31:71768,0,-3,-1,-3,-6,-3,-6,-5
22:18:31:79325,-12,11,32,14,1,3,5,5
22:18:31:87425,-6,19,9,-7,1,3,-3,1
22:18:31:88303,-6,19,9,-7,1,3,-3,1
22:18:31:94222,12,-5,-5,12,-1,-1,0,3
22:18:31:109935,-7,-4,-20,0,5,3,8,5
22:18:31:110757,-7,-4,-20,0,5,3,8,5
22:18:31:116770,-11,-8,-2,-6,-2,-3,-7,-16
22:18:31:124920,4,41,-5,-4,-1,2,11,2
22:18:31:131778,4,41,-5,-4,-1,2,11,2
22:18:31:139223,2,-13,0,6,-1,2,7,3
22:18:31:147443,-27,-69,-52,8,0,-6,-12,-9
22:18:31:148306,-27,-69,-52,8,0,-6,-12,-9
22:18:31:154231,8,3,-27,-41,-20,-5,1,-4
22:18:31:169947,-6,-13,-12,-2,1,1,-7,-5
22:18:31:170768,-6,-13,-12,-2,1,1,-7,-5
22:18:31:176717,-11,-5,-5,-12,0,1,-10,-3
22:18:31:184196,21,26,30,-13,-8,-2,-3,-10
22:18:31:191787,21,26,30,-13,-8,-2,-3,-10
22:18:31:199272,-3,-23,10,9,2,-2,3,9
22:18:31:207481,2,6,-19,5,1,-2,-7,-2
22:18:31:208345,2,6,-19,5,1,-2,-7,-2
22:18:31:214220,-9,11,-7,-19,-13,-7,-1,0
22:18:31:229971,11,62,6,-7,-10,-4,4,9
22:18:31:230757,11,62,6,-7,-10,-4,4,9
22:18:31:244902,15,17,36,13,4,0,-3,-1
22:18:31:245696,-2,-7,-17,-20,-5,2,1,1
22:18:31:251808,-2,-7,-17,-20,-5,2,1,1
22:18:31:259223,-12,-19,2,4,3,1,2,-3
22:18:31:267451,-2,6,32,14,11,2,11,18
22:18:31:268293,-2,6,32,14,11,2,11,18
22:18:31:274262,-10,14,12,3,-2,-1,-3,9
22:18:31:289944,-4,2,40,8,0,-4,-5,-5
22:18:31:290774,-4,2,40,8,0,-4,-5,-5
22:18:31:296740,-4,-11,-16,-2,0,1,7,-4
22:18:31:304253,1,-17,-26,-12,-3,0,6,-3
22:18:31:311820,1,-17,-26,-12,-3,0,6,-3
22:18:31:319241,6,-38,36,27,8,2,1,-5
22:18:31:327507,6,-38,36,27,8,2,1,-5
22:18:31:328346,-3,8,5,-5,-2,-2,-7,-6
22:18:31:334378,17,3,-30,1,1,-2,-9,-4
22:18:31:349977,17,3,-30,1,1,-2,-9,-4
22:18:31:350773,1,-22,29,0,-8,-4,2,5
22:18:31:356773,-13,10,-63,-39,-2,3,5,-8
22:18:31:372484,-13,10,-63,-39,-2,3,5,-8
22:18:31:373299,11,15,-14,-9,-4,3,-4,-6
22:18:31:379265,5,-2,20,11,-1,1,12,-2
22:18:31:387481,5,-2,20,11,-1,1,12,-2
22:18:31:388305,-5,-40,-30,3,4,1,-13,2
22:18:31:394256,-28,-4,15,3,-7,-7,-8,-5
22:18:31:409971,-28,-4,15,3,-7,-7,-8,-5
22:18:31:410755,-2,-12,-6,-1,1,2,-1,0
22:18:31:416832,7,31,1,5,1,-3,-1,2
22:18:31:432448,7,31,1,5,1,-3,-1,2
22:18:31:433338,-1,6,14,6,3,3,9,0
22:18:31:439245,-23,2,19,6,1,-1,-6,1
22:18:31:447455,-23,2,19,6,1,-1,-6,1
22:18:31:448319,-1,11,-15,1,0,-1,-9,-9
22:18:31:454261,46,42,-35,9,8,3,2,3
22:18:31:469997,46,42,-35,9,8,3,2,3
22:18:31:470795,-5,-18,-33,-2,0,0,2,4
22:18:31:476774,17,13,11,3,-2,-6,-4,0
22:18:31:492448,17,13,11,3,-2,-6,-4,0
22:18:31:493318,1,-7,11,-9,-5,-2,-11,4
22:18:31:499321,1,19,19,4,1,0,-14,-2
22:18:31:507468,1,19,19,4,1,0,-14,-2
22:18:31:508312,-13,-38,-20,-7,-3,-5,-5,-12
22:18:31:521746,2,-3,15,1,-2,3,15,5
22:18:31:529971,2,-3,15,1,-2,3,15,5
22:18:31:530799,12,33,11,7,6,3,-12,-2
22:18:31:536738,-25,-63,-46,-3,0,0,3,-12
22:18:31:552437,-25,-63,-46,-3,0,0,3,-12
22:18:31:553309,6,8,7,-1,-3,-4,6,-2
22:18:31:568091,4,25,25,3,2,3,10,12
22:18:31:568940,4,25,25,3,2,3,10,12
22:18:31:569718,-6,7,20,0,-1,-1,14,-11
22:18:31:581738,13,19,17,-4,-6,-4,-20,-6
22:18:31:590001,13,19,17,-4,-6,-4,-20,-6
22:18:31:590777,19,13,5,4,2,1,11,9
22:18:31:596763,-15,-15,11,0,1,1,0,1
22:18:31:612552,-15,-15,11,0,1,1,0,1
22:18:31:613309,5,15,24,3,-1,-2,-14,-14
22:18:31:619225,0,10,15,-4,-6,-2,7,6
22:18:31:627492,0,10,15,-4,-6,-2,7,6
22:18:31:628296,4,-18,-9,5,5,4,23,0
22:18:31:641771,-1,-24,-16,-3,-2,1,-9,-13
22:18:31:649965,-1,-24,-16,-3,-2,1,-9,-13
22:18:31:650805,-8,11,-7,1,0,1,13,14
22:18:31:656742,15,2,-48,-4,-1,-2,-2,-10
22:18:31:672471,15,2,-48,-4,-1,-2,-2,-10
22:18:31:673301,-16,-31,-26,-8,-1,-4,-13,-3
22:18:31:679257,-7,-9,5,-8,-4,-3,5,1
22:18:31:687481,-7,-9,5,-8,-4,-3,5,1
22:18:31:688311,-4,24,0,5,5,3,-1,1
22:18:31:701756,-4,-12,-8,-1,-8,-9,5,-20
22:18:31:709986,-4,-12,-8,-1,-8,-9,5,-20
22:18:31:710792,0,2,5,-2,-1,3,14,8
22:18:31:724217,5,5,19,-1,-1,-1,-17,5
22:18:31:732475,5,5,19,-1,-1,-1,-17,5
22:18:31:733310,-5,8,21,2,-3,-6,-40,6
22:18:31:739233,-9,20,30,2,-1,-3,-4,4
22:18:31:747480,-9,20,30,2,-1,-3,-4,4
22:18:31:748317,20,23,-15,0,-1,5,9,-11
22:18:31:761789,-2,0,-4,-8,-6,-1,3,-14
22:18:31:769970,-2,0,-4,-8,-6,-1,3,-14
22:18:31:770758,-15,-43,-8,-8,-5,-4,3,1
22:18:31:776766,-1,-4,-38,3,5,-2,-5,9
22:18:31:792941,-1,-4,-38,3,5,-2,-5,9
22:18:31:793733,-14,-1,-45,-24,-12,-8,-19,-5
22:18:31:799219,-12,-4,22,4,5,6,15,8
22:18:31:807492,-12,-4,22,4,5,6,15,8
22:18:31:808309,1,-10,-7,7,2,-6,-10,-3
22:18:31:821780,17,-1,-30,-10,1,10,19,29
22:18:31:829954,17,-1,-30,-10,1,10,19,29
22:18:31:830768,6,13,-34,-5,-2,-1,4,-6
22:18:31:836721,-10,-7,15,6,-3,-8,-24,-7
22:18:31:852452,-10,-7,15,6,-3,-8,-24,-7
22:18:31:853328,1,-22,-13,0,-1,3,9,11
22:18:31:859334,1,22,-3,-6,-6,-3,17,2
22:18:31:867461,1,22,-3,-6,-6,-3,17,2
22:18:31:868692,-8,-11,6,8,-1,-5,-14,-3
22:18:31:881785,8,8,-2,-5,1,6,9,1
22:18:31:889966,8,8,-2,-5,1,6,9,1
22:18:31:890769,-18,-25,4,-3,-2,2,-2,4
22:18:31:896732,-1,-15,-9,0,3,-1,-22,0
22:18:31:912461,-1,-15,-9,0,3,-1,-22,0
22:18:31:913326,3,9,39,1,-10,-7,3,-4
22:18:31:919318,2,3,22,-2,-2,-3,-4,-3
22:18:31:927460,2,3,22,-2,-2,-3,-4,-3
22:18:31:928317,-6,1,32,-4,-2,-9,-16,-9
22:18:31:941766,5,6,-3,-2,-5,-1,-4,-6
22:18:31:958151,5,6,-3,-2,-5,-1,-4,-6
22:18:31:958959,-11,33,65,8,0,3,11,3
22:18:31:959765,-13,3,-9,2,-5,-5,12,9
22:18:31:972471,-13,3,-9,2,-5,-5,12,9
22:18:31:973320,2,-9,-5,8,10,7,-3,-4
22:18:31:979257,11,-8,-29,-2,-2,-5,-1,2
22:18:31:987516,11,-8,-29,-2,-2,-5,-1,2
22:18:31:988329,-17,-21,-24,-11,-7,-6,-10,-7
22:18:32:2246,-3,-3,12,4,4,8,7,5
22:18:32:9968,-3,-3,12,4,4,8,7,5
22:18:32:10756,13,-1,-19,-15,-1,3,3,2
22:18:32:16727,-4,-14,-11,-2,-4,-1,-4,-12
22:18:32:32492,-4,-14,-11,-2,-4,-1,-4,-12
22:18:32:33333,-11,-29,0,0,1,0,11,-4
22:18:32:39273,-1,-10,-32,-4,1,-3,-24,-26
22:18:32:47512,-1,-10,-32,-4,1,-3,-24,-26
22:18:32:48339,19,36,23,4,-4,-2,3,1
22:18:32:61744,6,19,22,6,5,3,5,3
22:18:32:69978,6,19,22,6,5,3,5,3
22:18:32:70789,8,3,-25,-1,3,2,13,-1
22:18:32:76756,8,-1,6,7,-1,-3,-3,-2
22:18:32:92463,8,-1,6,7,-1,-3,-3,-2
22:18:32:93321,-2,-19,-20,-4,-4,2,15,2
22:18:32:99222,-14,-24,10,-1,-3,-8,-5,-9
22:18:32:107482,-14,-24,10,-1,-3,-8,-5,-9
22:18:32:108317,-9,-6,8,6,0,-3,-10,2
22:18:32:121715,-7,2,25,-3,3,4,8,-3
22:18:32:129973,-7,2,25,-3,3,4,8,-3
22:18:32:130771,-13,-25,-19,-6,-4,-4,1,-6
22:18:32:136761,-9,10,-15,-3,-3,-2,-8,3
22:18:32:152467,-9,10,-15,-3,-3,-2,-8,3
22:18:32:153339,5,8,-36,-10,-5,-6,-9,-1
22:18:32:159215,2,-39,-5,0,0,-2,-11,1
22:18:32:167469,2,-39,-5,0,0,-2,-11,1
22:18:32:168309,16,8,24,5,-4,-1,-3,6
22:18:32:181779,5,30,42,14,4,0,-3,14
22:18:32:189954,5,30,42,14,4,0,-3,14
22:18:32:190757,4,5,40,1,-3,-1,-15,-1
22:18:32:196716,-19,11,-20,-5,4,6,12,1
22:18:32:212466,-19,11,-20,-5,4,6,12,1
22:18:32:213321,-6,1,7,-1,1,-6,-3,-6
22:18:32:235377,12,20,2,-5,-3,1,12,8
22:18:32:236206,12,20,2,-5,-3,1,12,8
22:18:32:242438,-26,-17,-20,-6,0,1,11,-21
22:18:32:243235,-3,-25,-10,-7,0,-1,-7,5
22:18:32:249988,-3,-25,-10,-7,0,-1,-7,5
22:18:32:250815,9,-2,-34,-3,-3,-6,-9,6
22:18:32:256778,-4,4,-6,-11,3,3,2,-5
22:18:32:272487,-4,4,-6,-11,3,3,2,-5
22:18:32:273334,-4,-3,9,4,1,1,-3,-6
22:18:32:279271,3,-31,8,2,-5,-8,-16,-6
22:18:32:287486,3,-31,8,2,-5,-8,-16,-6
22:18:32:288318,-6,-4,17,-1,1,6,3,-3
22:18:32:301752,3,3,12,1,-1,2,8,4
22:18:32:309995,3,3,12,1,-1,2,8,4
22:18:32:310815,11,7,29,-1,-2,-5,-8,22
22:18:32:316781,-2,-22,-3,-11,-5,0,-1,-4
22:18:32:332481,-2,-22,-3,-11,-5,0,-1,-4
22:18:32:333344,2,3,-54,0,3,4,-6,-1
22:18:32:339260,1,-1,5,4,-2,-2,-4,0
22:18:32:347491,1,-1,5,4,-2,-2,-4,0
22:18:32:348337,-1,-11,1,12,-3,1,13,3
22:18:32:361779,5,20,-2,4,-1,0,10,-2
22:18:32:370008,5,20,-2,4,-1,0,10,-2
22:18:32:370779,-16,-5,8,-6,1,1,4,-6
22:18:32:376754,17,16,15,-4,-5,-5,-8,-7
22:18:32:400617,17,16,15,-4,-5,-5,-8,-7
22:18:32:401425,4,20,29,0,0,3,2,-3
22:18:32:402230,-1,21,10,18,5,-1,3,2
22:18:32:407468,-1,21,10,18,5,-1,3,2
22:18:32:408361,-7,21,6,0,7,0,-10,2
22:18:32:421791,5,-3,8,8,-3,-2,1,-6
22:18:32:429947,5,-3,8,8,-3,-2,1,-6
22:18:32:430774,15,-1,4,-2,3,3,9,5
22:18:32:436809,-17,-2,-44,-11,-8,-7,-17,-10
22:18:32:452444,-17,-2,-44,-11,-8,-7,-17,-10
22:18:32:453315,-10,-13,-23,2,1,1,5,15
22:18:32:459340,-3,-12,-16,-6,-2,0,-5,1
22:18:32:466779,-3,-12,-16,-6,-2,0,-5,1
22:18:32:474266,4,7,-5,-7,-2,1,-4,-7
22:18:32:481723,-3,35,37,-10,-2,4,12,5
22:18:32:489960,-3,35,37,-10,-2,4,12,5
22:18:32:490789,19,-5,-2,-2,-3,-6,-6,-3
22:18:32:504372,-14,-34,-13,-1,-7,-7,-3,-7
22:18:32:512476,-14,-34,-13,-1,-7,-7,-3,-7
22:18:32:513335,6,-10,0,4,-3,-1,14,11
22:18:32:519220,7,31,-11,-5,2,-1,-2,-3
22:18:32:526798,7,31,-11,-5,2,-1,-2,-3
22:18:32:534266,7,23,-3,4,-2,0,5,-8
22:18:32:541729,-3,7,-4,-7,-4,-5,-12,-2
22:18:32:550005,-3,7,-4,-7,-4,-5,-12,-2
22:18:32:550764,0,13,19,-5,3,0,-13,-3
22:18:32:564714,-5,-29,2,11,5,7,8,-3
22:18:32:572475,-5,-29,2,11,5,7,8,-3
22:18:32:573323,-3,-6,-18,7,-1,-2,0,3
22:18:32:579266,-10,-17,-28,-4,4,5,21,6
22:18:32:586834,-10,-17,-28,-4,4,5,21,6
22:18:32:594260,-3,17,14,1,2,-7,-14,-6
22:18:32:601796,29,13,-6,-1,2,0,4,3
22:18:32:610429,29,13,-6,-1,2,0,4,3
22:18:32:616791,-21,-20,-9,2,-1,-2,4,-4
22:18:32:624281,4,37,40,8,2,-2,5,-6
22:18:32:632425,4,37,40,8,2,-2,5,-6
22:18:32:633241,-12,-62,-16,-10,-4,1,3,-10
22:18:32:639335,-8,-28,-6,-2,-4,-1,-20,5
22:18:32:646791,-8,-28,-6,-2,-4,-1,-20,5
22:18:32:654239,17,-3,-8,-6,0,-1,-11,-7
22:18:32:661770,0,-9,-33,-13,-8,-5,-7,0
22:18:32:669974,0,-9,-33,-13,-8,-5,-7,0
22:18:32:670788,-5,32,3,-5,-15,-9,-12,-1
22:18:32:684348,1,2,16,-8,1,-1,-2,2
22:18:32:692481,1,2,16,-8,1,-1,-2,2
22:18:32:693343,-6,2,-19,-12,-4,-4,2,-6
22:18:32:699241,-15,0,7,9,-3,-2,-6,5
22:18:32:706818,-15,0,7,9,-3,-2,-6,5
22:18:32:714240,-11,15,26,0,-3,-6,-4,1
22:18:32:721745,-5,-27,-12,-6,-6,-2,2,12
22:18:32:729973,-5,-27,-12,-6,-6,-2,2,12
22:18:32:730778,18,7,19,7,1,3,5,9
22:18:32:744278,-2,-5,-10,-1,-3,-6,-7,-13
22:18:32:752464,-2,-5,-10,-1,-3,-6,-7,-13
22:18:32:753326,-21,-56,-19,4,-3,-3,-10,-11
22:18:32:759228,13,34,5,13,16,12,23,8
22:18:32:766798,13,34,5,13,16,12,23,8
22:18:32:774247,-1,8,12,3,2,0,-3,-7
22:18:32:781762,15,12,-42,-14,-1,-1,-1,0
22:18:32:789986,15,12,-42,-14,-1,-1,-1,0
22:18:32:790810,4,15,-8,-2,-3,-3,4,2
22:18:32:804252,-9,-30,6,8,-1,-2,-1,12
22:18:32:812537,-9,-30,6,8,-1,-2,-1,12
22:18:32:813316,4,19,25,5,5,0,-10,3
22:18:32:819283,-11,-39,-54,-4,-4,-2,-8,-10
22:18:32:843140,-11,-39,-54,-4,-4,-2,-8,-10
22:18:32:843940,5,16,22,-6,1,5,17,3
22:18:32:844723,-14,-6,45,1,-2,1,-6,-7
22:18:32:849974,-14,-6,45,1,-2,1,-6,-7
22:18:32:850820,-4,10,-17,2,-6,-8,-15,-4
22:18:32:864368,3,-2,19,-7,-9,-4,4,-12
22:18:32:872472,3,-2,19,-7,-9,-4,4,-12
22:18:32:873344,-25,-31,38,10,0,3,6,-1
22:18:32:879269,1,-13,-6,1,1,0,3,-9
22:18:32:886827,1,-13,-6,1,1,0,3,-9
22:18:32:894273,18,31,-13,-2,2,6,14,10
22:18:32:901750,3,31,55,5,-3,-5,-9,-11
22:18:32:910027,3,31,55,5,-3,-5,-9,-11
22:18:32:910790,0,-26,-17,1,3,-2,-10,1
22:18:32:924225,7,-16,-60,-17,-5,2,5,3
22:18:32:932488,7,-16,-60,-17,-5,2,5,3
22:18:32:933331,-6,-6,9,-8,-6,2,0,7
22:18:32:947438,1,3,18,13,7,5,3,6
22:18:32:948329,1,3,18,13,7,5,3,6
22:18:32:954261,4,6,9,11,4,-2,-11,3
22:18:32:961745,-7,-3,35,-3,-5,-4,1,-3
22:18:32:969964,-7,-3,35,-3,-5,-4,1,-3
22:18:32:970777,3,18,-10,-3,1,2,6,-4
22:18:32:984366,-8,3,3,0,1,-6,-28,-6
22:18:32:992954,-8,3,3,0,1,-6,-28,-6
22:18:32:999926,4,-27,-24,-9,-4,-2,-3,22
22:18:33:714,-13,-21,-64,-3,-2,4,16,-3
22:18:33:6856,-13,-21,-64,-3,-2,4,16,-3
22:18:33:14305,-1,20,4,3,-3,-9,-8,-15
22:18:33:21746,-2,13,7,4,2,5,0,7
22:18:33:30014,-2,13,7,4,2,5,0,7
22:18:33:30809,2,-27,4,-14,-8,-5,-14,-15
22:18:33:44227,12,14,-17,-3,5,7,18,21
22:18:33:52470,12,14,-17,-3,5,7,18,21
22:18:33:53321,-8,-21,-7,-1,1,-1,12,-3
22:18:33:59317,-2,-12,11,-2,-3,-3,-20,12
22:18:33:66875,-2,-12,11,-2,-3,-3,-20,12
22:18:33:74300,0,21,-22,4,6,1,8,-4
22:18:33:81758,-23,-28,10,4,0,-2,12,-17
22:18:33:89976,-23,-28,10,4,0,-2,12,-17
22:18:33:90844,5,2,8,-1,-3,1,7,-8
22:18:33:113128,7,3,-6,0,-5,-8,1,-4
22:18:33:113935,7,3,-6,0,-5,-8,1,-4
22:18:33:114733,2,-17,-34,-1,4,8,5,-9
22:18:33:119246,0,20,15,-5,-5,-4,-3,0
22:18:33:126843,0,20,15,-5,-5,-4,-3,0
22:18:33:134268,-11,-4,-19,-9,-3,-2,8,3
22:18:33:141767,22,57,10,4,4,-5,-21,-6
22:18:33:150016,22,57,10,4,4,-5,-21,-6
22:18:33:150790,-1,-12,0,1,4,7,1,3
22:18:33:173111,4,-12,-3,-4,-2,-1,4,-10
22:18:33:173953,4,-12,-3,-4,-2,-1,4,-10
22:18:33:174742,-12,31,19,16,4,0,-2,-5
22:18:33:179228,-19,-11,-14,-1,-6,-6,-7,-6
22:18:33:186819,-19,-11,-14,-1,-6,-6,-7,-6
22:18:33:194251,-2,-12,-11,-11,-4,1,11,1
22:18:33:201753,-4,-7,18,0,-3,-5,-10,-22
22:18:33:210010,-4,-7,18,0,-3,-5,-10,-22
22:18:33:210766,16,1,14,4,1,6,14,12
22:18:33:224244,12,29,-8,-1,2,4,0,-15
22:18:33:232474,12,29,-8,-1,2,4,0,-15
22:18:33:233345,-1,13,17,5,12,7,18,4
22:18:33:239265,-14,9,2,-4,-2,-1,-11,5
22:18:33:246833,-14,9,2,-4,-2,-1,-11,5
22:18:33:254283,-1,3,-30,-7,-13,-12,-5,-14
22:18:33:261773,-7,-10,-13,-3,0,1,29,7
22:18:33:270003,-7,-10,-13,-3,0,1,29,7
22:18:33:270774,8,-7,8,3,5,5,-4,1
22:18:33:284247,-10,-17,-16,-1,-1,-6,-8,-1
22:18:33:292521,-10,-17,-16,-1,-1,-6,-8,-1
22:18:33:293335,12,29,-20,-9,-3,-1,-10,-3
22:18:33:299260,14,-16,-15,-5,0,-5,-25,-19
22:18:33:306851,14,-16,-15,-5,0,-5,-25,-19
22:18:33:314268,-16,-19,-23,2,-8,-9,-18,15
22:18:33:321761,11,-6,-4,-10,-9,2,8,27
22:18:33:329964,11,-6,-4,-10,-9,2,8,27
22:18:33:330759,-3,-26,-1,-2,0,-3,-9,0
22:18:33:344266,-1,9,0,5,2,-3,-2,-6
22:18:33:352547,-1,9,0,5,2,-3,-2,-6
22:18:33:353346,-8,-11,2,-8,-4,-4,-14,-4
22:18:33:359268,9,14,53,7,2,-3,-18,-2
22:18:33:366815,9,14,53,7,2,-3,-18,-2
22:18:33:374364,11,11,9,10,2,3,8,14
22:18:33:390635,12,29,14,-4,-1,3,9,11
22:18:33:391463,12,29,14,-4,-1,3,9,11
22:18:33:392323,-6,42,25,-3,-2,-4,3,4
22:18:33:404241,-15,-39,28,-1,-4,-1,-2,-15
22:18:33:412468,-15,-39,28,-1,-4,-1,-2,-15
22:18:33:413314,-2,-15,-14,2,-7,0,-5,-6
22:18:33:427470,-1,-7,-31,6,9,10,17,4
22:18:33:428320,-1,-7,-31,6,9,10,17,4
22:18:33:434246,-33,-51,-8,-10,-15,-13,5,-13
22:18:33:441762,-2,-40,-27,-3,0,-3,-20,7
22:18:33:449340,-2,-40,-27,-3,0,-3,-20,7
22:18:33:456771,14,7,5,-9,-1,1,-7,-10
22:18:33:464272,-4,-3,8,0,0,5,5,-8
22:18:33:472535,-4,-3,8,0,0,5,5,-8
22:18:33:473363,4,-11,13,-7,-3,-9,-4,-5
22:18:33:487462,-3,-2,-36,-7,-8,-6,2,-6
22:18:33:488341,-3,-2,-36,-7,-8,-6,2,-6
22:18:33:494268,2,-16,-7,6,2,-1,-12,-6
22:18:33:501761,-24,-5,-16,-6,1,-2,10,8
22:18:33:509337,-24,-5,-16,-6,1,-2,10,8
22:18:33:516790,-28,-41,6,2,3,-3,-35,-30
22:18:33:524267,14,17,-6,-5,-5,-5,-7,20
22:18:33:532442,14,17,-6,-5,-5,-5,-7,20
22:18:33:533258,21,14,-4,0,-3,-1,14,21
22:18:33:547489,-22,-21,-8,0,1,4,5,-12
22:18:33:548366,-22,-21,-8,0,1,4,5,-12
22:18:33:554287,-9,5,33,3,-1,3,14,-5
22:18:33:561798,8,21,23,6,5,3,17,-2
22:18:33:569356,8,21,23,6,5,3,17,-2
22:18:33:576788,5,13,-8,2,8,3,-8,-6
22:18:33:584333,-8,-37,-5,-9,-11,-16,-20,6
22:18:33:592475,-8,-37,-5,-9,-11,-16,-20,6
22:18:33:593355,16,15,-4,-1,0,-2,0,1
22:18:33:607456,11,16,-28,-2,-1,-3,-8,1
22:18:33:608328,11,16,-28,-2,-1,-3,-8,1
22:18:33:614340,-17,7,3,7,6,12,11,19
22:18:33:621803,-7,5,-20,-9,-4,2,2,2
22:18:33:629358,-7,5,-20,-9,-4,2,2,2
22:18:33:636753,7,6,-4,7,4,0,-9,16
22:18:33:644251,3,7,12,-1,3,-1,-10,-8
22:18:33:652476,3,7,12,-1,3,-1,-10,-8
22:18:33:653337,2,-11,-10,-3,-5,-5,-6,-8
22:18:33:667945,10,10,8,4,3,9,36,8
22:18:33:668754,10,10,8,4,3,9,36,8
22:18:33:674261,-6,-5,2,-5,2,7,11,-11
22:18:33:681746,5,5,28,4,-5,-9,-25,-3
22:18:33:689375,5,5,28,4,-5,-9,-25,-3
22:18:33:696754,6,28,8,5,1,1,13,0
22:18:33:704245,-2,4,6,0,2,3,1,-13
22:18:33:728824,-2,4,6,0,2,3,1,-13
22:18:33:729603,4,6,17,-4,-11,-15,-7,-7
22:18:33:730464,11,-27,-9,1,11,9,2,9
22:18:33:731261,11,-27,-9,1,11,9,2,9
22:18:33:734354,4,7,-13,-2,-4,-5,-15,2
22:18:33:741788,-6,10,3,-6,-5,-7,-6,0
22:18:33:749352,-6,10,3,-6,-5,-7,-6,0
22:18:33:756752,2,-19,-29,-3,12,13,0,-4
22:18:33:764235,5,11,-30,2,-1,-3,-14,-5
22:18:33:772488,5,11,-30,2,-1,-3,-14,-5
22:18:33:773389,-16,1,5,-8,-12,-9,-10,2
22:18:33:787456,-9,-10,-1,0,-1,-2,-4,-4
22:18:33:788345,-9,-10,-1,0,-1,-2,-4,-4
22:18:33:794292,-8,-48,0,-3,2,2,-7,16
22:18:33:801775,-3,6,10,0,-7,-5,-8,0
22:18:33:809337,-3,6,10,0,-7,-5,-8,0
22:18:33:816738,-3,8,1,-11,-2,2,5,-6
22:18:33:833123,0,-1,-2,2,1,-6,-9,6
22:18:33:833949,0,-1,-2,2,1,-6,-9,6
22:18:33:834740,0,7,-10,0,-2,-5,6,-10
22:18:33:847449,1,4,12,13,8,10,20,-9
22:18:33:848346,1,4,12,13,8,10,20,-9
22:18:33:854345,-11,-7,3,-3,-4,-1,-2,-8
22:18:33:861813,-23,-11,19,3,0,-1,-2,-11
22:18:33:869361,-23,-11,19,3,0,-1,-2,-11
22:18:33:876725,9,-12,-13,-9,1,0,-4,-3
22:18:33:884258,-1,-10,6,-7,-5,-3,-1,-3
22:18:33:892482,-1,-10,6,-7,-5,-3,-1,-3
22:18:33:893357,0,-9,-10,8,2,1,-8,-8
22:18:33:907443,-5,-17,-34,-5,0,-3,0,-11
22:18:33:908341,-5,-17,-34,-5,0,-3,0,-11
22:18:33:914252,14,33,4,-3,-4,-8,-11,7
22:18:33:921767,-2,22,11,0,-3,-2,4,3
22:18:33:929354,-2,22,11,0,-3,-2,4,3
22:18:33:936781,-6,-8,-20,-4,-2,2,1,-5
22:18:33:944238,6,0,12,4,1,1,2,0
22:18:33:952522,6,0,12,4,1,1,2,0
22:18:33:953360,10,4,9,-5,-8,0,4,-5
22:18:33:967476,6,18,19,0,3,4,-2,-3
22:18:33:968347,6,18,19,0,3,4,-2,-3
22:18:33:974262,3,10,31,2,-3,-5,-16,-11
22:18:33:981753,4,2,26,-1,-1,-2,-1,-3
22:18:33:989376,4,2,26,-1,-1,-2,-1,-3
22:18:33:996820,0,-20,-26,-3,-3,-1,7,4
22:18:34:4286,3,11,10,2,0,0,-4,0
22:18:34:12584,3,11,10,2,0,0,-4,0
22:18:34:13373,-7,20,5,-1,0,-1,0,1
22:18:34:27478,9,6,-7,-10,-4,-3,5,18
22:18:34:28319,9,6,-7,-10,-4,-3,5,18
22:18:34:34288,-11,5,26,4,-1,-6,5,-3
22:18:34:41821,-23,-29,12,-5,-4,-2,-1,-9
22:18:34:49359,-23,-29,12,-5,-4,-2,-1,-9
22:18:34:56784,11,8,-12,-6,-2,1,4,9
22:18:34:64306,9,14,-23,-1,-8,-3,10,2
22:18:34:72462,9,14,-23,-1,-8,-3,10,2
22:18:34:73257,-20,-39,-17,2,3,1,4,-9
22:18:34:87438,-5,-24,12,7,0,1,-2,-7
22:18:34:88277,-5,-24,12,7,0,1,-2,-7
22:18:34:94334,-6,-2,-20,0,-6,-4,13,-8
22:18:34:101779,15,27,7,-4,-3,0,-4,0
22:18:34:109356,15,27,7,-4,-3,0,-4,0
22:18:34:116810,-10,-15,-9,-8,5,2,-2,5
22:18:34:124388,3,12,-6,2,2,3,12,10
22:18:34:132524,3,12,-6,2,2,3,12,10
22:18:34:133345,12,33,37,15,0,-4,-13,3
22:18:34:147507,1,5,-8,3,-1,-4,-5,5
22:18:34:148249,1,5,-8,3,-1,-4,-5,5
22:18:34:154258,5,-8,-30,-6,0,1,4,1
22:18:34:161835,-9,-12,-9,4,1,-6,-16,-12
22:18:34:169356,-9,-12,-9,4,1,-6,-16,-12
22:18:34:176762,18,39,14,2,3,3,-1,-6
22:18:34:184266,-17,-2,-66,8,4,0,-4,2
22:18:34:192527,-17,-2,-66,8,4,0,-4,2
22:18:34:193353,7,-8,8,-5,-6,-2,-6,-2
22:18:34:207463,-4,-15,12,-12,-8,-5,0,0
22:18:34:208357,-4,-15,12,-12,-8,-5,0,0
22:18:34:214294,-20,-21,6,2,-3,-4,-7,-8
22:18:34:221788,-5,-25,2,-3,-5,-3,2,-3
22:18:34:229356,-5,-25,2,-3,-5,-3,2,-3
22:18:34:236746,-8,-9,13,6,-2,1,-2,8
22:18:34:244260,9,39,4,-9,2,3,11,1
22:18:34:252539,9,39,4,-9,2,3,11,1
22:18:34:253355,-18,27,9,-5,-3,-3,3,-4
22:18:34:267488,1,-20,-3,-4,0,-1,7,2
22:18:34:268358,1,-20,-3,-4,0,-1,7,2
22:18:34:274259,14,25,1,6,1,3,-9,-5
22:18:34:281773,10,-2,-14,-11,-9,-4,-2,3
22:18:34:289375,10,-2,-14,-11,-9,-4,-2,3
22:18:34:296802,3,-9,-15,-4,3,2,15,10
22:18:34:304281,2,10,-3,-2,0,-3,-18,4
22:18:34:312493,2,10,-3,-2,0,-3,-18,4
22:18:34:313327,-9,-38,-10,1,1,-2,-11,1
22:18:34:327516,-8,-11,-15,-10,-10,-3,3,-9
22:18:34:328362,-8,-11,-15,-10,-10,-3,3,-9
22:18:34:334290,24,69,46,12,8,5,4,9
22:18:34:341775,-10,-13,-11,0,2,-2,-11,-5
22:18:34:349366,-10,-13,-11,0,2,-2,-11,-5
22:18:34:356803,-4,-5,-3,-8,3,3,19,-2
22:18:34:364269,4,10,7,2,2,1,-1,-16
22:18:34:371821,4,10,7,2,2,1,-1,-16
22:18:34:379370,-3,-12,1,9,2,-2,3,4
22:18:34:387483,-8,3,-19,-25,-4,-1,6,-1
22:18:34:388352,-8,3,-19,-25,-4,-1,6,-1
22:18:34:394240,-10,-32,-26,-1,0,-2,-10,-7
22:18:34:409960,-11,-45,-2,4,-2,-4,-2,-10
22:18:34:410771,-11,-45,-2,4,-2,-4,-2,-10
22:18:34:416826,-7,-3,1,-4,-6,1,-3,2
22:18:34:424348,6,-27,-30,2,3,0,-1,17
22:18:34:431822,6,-27,-30,2,3,0,-1,17
22:18:34:439263,-19,0,-40,-10,-7,-7,-15,-9
22:18:34:447470,-15,-23,9,9,6,7,5,-5
22:18:34:448335,-15,-23,9,9,6,7,5,-5
22:18:34:454264,14,-6,-6,-6,-1,-4,-3,1
22:18:34:469969,-6,19,35,5,-5,-5,-13,-5
22:18:34:470769,-6,19,35,5,-5,-5,-13,-5
22:18:34:476758,-15,-14,6,7,7,5,20,-11
22:18:34:484267,23,14,-12,-2,-6,-4,19,6
22:18:34:491877,23,14,-12,-2,-6,-4,19,6
22:18:34:499271,3,-1,-4,-6,-1,-1,-10,-2
22:18:34:507489,15,21,22,-2,-1,6,10,9
22:18:34:508345,15,21,22,-2,-1,6,10,9
22:18:34:514290,-1,-19,-24,0,-3,-2,-10,-1
22:18:34:529998,-17,-17,7,-5,-1,2,-4,-5
22:18:34:530798,-17,-17,7,-5,-1,2,-4,-5
22:18:34:536764,0,-3,-17,-1,-3,-4,-3,2
22:18:34:544259,-10,12,4,17,2,-1,-12,1
22:18:34:551843,-10,12,4,17,2,-1,-12,1
22:18:34:559295,-24,-45,-18,-11,-10,-6,-11,-25
22:18:34:567431,17,22,22,3,-2,-1,5,-5
22:18:34:568258,17,22,22,3,-2,-1,5,-5
22:18:34:574299,20,28,34,-4,2,-1,4,8
22:18:34:590031,8,-5,6,0,1,2,6,-6
22:18:34:590814,8,-5,6,0,1,2,6,-6
22:18:34:596803,15,33,28,-4,-4,-3,-3,-13
22:18:34:604298,1,-13,-17,6,7,2,-4,14
22:18:34:612088,1,-13,-17,6,7,2,-4,14
22:18:34:619305,5,3,10,-1,-7,-5,-1,9
22:18:34:627435,4,11,8,-3,2,-3,11,-3
22:18:34:628279,4,11,8,-3,2,-3,11,-3
22:18:34:634369,8,7,16,5,4,4,2,6
22:18:34:649953,-26,14,-5,-8,-5,-9,-3,-6
22:18:34:650749,-26,14,-5,-8,-5,-9,-3,-6
22:18:34:656798,6,-13,-6,-2,4,-1,4,37
22:18:34:664289,16,22,21,3,2,1,-10,-9
22:18:34:671810,16,22,21,3,2,1,-10,-9
22:18:34:679354,-18,-16,-6,1,1,2,14,-9
22:18:34:687468,1,-41,5,-3,-6,-4,-6,-15
22:18:34:688345,1,-41,5,-3,-6,-4,-6,-15
22:18:34:694272,5,-4,-18,0,-1,1,5,-6
22:18:34:709968,-5,-21,7,-1,-1,-2,-5,-3
22:18:34:710773,-5,-21,7,-1,-1,-2,-5,-3
22:18:34:716730,-14,0,3,3,-4,3,1,-3
22:18:34:724347,10,10,-10,0,-7,-1,-6,16
22:18:34:731801,10,10,-10,0,-7,-1,-6,16
22:18:34:739291,-11,42,-6,2,3,0,0,6
22:18:34:747468,-11,-3,-22,-12,-4,-6,-16,-5
22:18:34:748366,-11,-3,-22,-12,-4,-6,-16,-5
22:18:34:754276,7,-29,54,-11,-4,-1,-3,-9
22:18:34:769939,-5,14,17,5,9,8,-3,6
22:18:34:770812,-5,14,17,5,9,8,-3,6
22:18:34:776751,6,-7,0,5,-2,-5,-1,2
22:18:34:784241,-1,-16,-45,-4,-1,-3,-14,8
22:18:34:791844,-1,-16,-45,-4,-1,-3,-14,8
22:18:34:799270,-12,-6,-12,0,0,3,22,17
22:18:34:807526,13,48,7,-1,-4,3,17,-7
22:18:34:808408,13,48,7,-1,-4,3,17,-7
22:18:34:814326,-20,-40,-39,-11,-4,-5,-3,-2
22:18:34:829984,-7,20,18,5,-2,-3,-7,-3
22:18:34:830817,-7,20,18,5,-2,-3,-7,-3
22:18:34:836775,-6,-11,4,-4,-8,-3,-13,-4
22:18:34:844274,-24,-31,12,9,7,3,-1,-1
22:18:34:851853,-24,-31,12,9,7,3,-1,-1
22:18:34:859307,-5,-22,4,5,-5,-8,-6,-15
22:18:34:867443,7,-9,-15,-12,-9,-5,5,-2
22:18:34:868273,7,-9,-15,-12,-9,-5,5,-2
22:18:34:874288,8,24,-10,-3,2,3,-2,27
22:18:34:889992,-17,3,-11,-5,0,2,23,4
22:18:34:890807,-17,3,-11,-5,0,2,23,4
22:18:34:896793,11,25,27,5,-4,-5,-15,-9
22:18:34:904280,17,23,8,1,-1,-3,-3,-6
22:18:34:911809,17,23,8,1,-1,-3,-3,-6
22:18:34:919282,-3,4,-6,-4,5,5,7,-8
22:18:34:927453,3,-24,-8,-1,-2,-5,-29,-11
22:18:34:928276,3,-24,-8,-1,-2,-5,-29,-11
22:18:34:934299,-2,4,-20,0,-3,-7,-16,-29
22:18:34:949945,-4,-15,2,-5,-2,-1,-2,12
22:18:34:950771,-4,-15,2,-5,-2,-1,-2,12
22:18:34:956816,15,18,-8,-3,2,2,-5,-6
22:18:34:964287,2,10,4,-1,-5,-1,5,-3
22:18:34:971846,2,10,4,-1,-5,-1,5,-3
22:18:34:979261,3,3,6,5,-1,-3,-14,-1
22:18:34:987467,19,7,-18,1,2,1,2,4
22:18:34:988357,19,7,-18,1,2,1,2,4
22:18:34:994255,-5,-15,-16,1,0,8,21,7
22:18:35:9956,-8,8,24,2,-2,-8,-17,3
22:18:35:10775,-8,8,24,2,-2,-8,-17,3
22:18:35:16750,-1,2,1,3,-3,-1,-1,1
22:18:35:24292,-9,-13,-34,-9,-3,-1,3,-12
22:18:35:31823,-9,-13,-34,-9,-3,-1,3,-12
22:18:35:39281,-11,-19,-26,-2,-2,-2,-20,-1
22:18:35:47463,-10,-33,14,-5,-2,2,13,12
22:18:35:48341,-10,-33,14,-5,-2,2,13,12
22:18:35:54281,-2,18,20,-3,-1,-1,8,0
22:18:35:69948,-18,-42,-19,-4,0,-2,-8,3
22:18:35:70810,-18,-42,-19,-4,0,-2,-8,3
22:18:35:76760,5,-7,10,0,0,-1,9,0
22:18:35:84246,-5,22,28,-6,1,6,9,-8
22:18:35:91877,-5,22,28,-6,1,6,9,-8
22:18:35:99287,-1,-14,50,1,-3,-3,-17,-3
22:18:35:107515,1,-12,-3,1,7,3,6,-3
22:18:35:108399,1,-12,-3,1,7,3,6,-3
22:18:35:114335,10,17,-18,3,7,2,10,-1
22:18:35:129955,-5,-15,9,6,-4,-6,0,-12
22:18:35:130777,-5,-15,9,6,-4,-6,0,-12
22:18:35:136753,2,17,10,3,-1,1,-1,19
22:18:35:144269,-2,-10,-25,-9,-8,-5,-5,-1
22:18:35:151840,-2,-10,-25,-9,-8,-5,-5,-1
22:18:35:159273,2,8,-13,-7,-3,-3,8,-4
22:18:35:167446,17,29,7,0,2,-3,-4,-4
22:18:35:168267,17,29,7,0,2,-3,-4,-4
22:18:35:174310,3,-12,0,3,1,1,4,5
22:18:35:190005,-6,-3,0,-2,1,0,3,1
22:18:35:190819,-6,-3,0,-2,1,0,3,1
22:18:35:197014,19,21,-24,3,6,0,-6,13
22:18:35:204250,-1,21,27,8,-2,0,-8,11
22:18:35:211810,-1,21,27,8,-2,0,-8,11
22:18:35:219306,-18,-44,-15,2,-5,-5,-12,-14
22:18:35:227454,-6,-26,-9,-6,1,-1,-5,-5
22:18:35:228265,-6,-26,-9,-6,1,-1,-5,-5
22:18:35:234250,2,31,2,-5,-5,-8,-13,-14
22:18:35:249958,-12,-24,-4,5,-3,2,5,9
22:18:35:250776,-12,-24,-4,5,-3,2,5,9
22:18:35:256797,-11,-32,8,2,-2,0,10,8
22:18:35:264292,12,32,22,9,-1,-3,3,7
22:18:35:271840,12,32,22,9,-1,-3,3,7
22:18:35:279248,-5,9,-8,-14,-5,1,7,0
22:18:35:287461,-9,12,34,6,0,1,1,-8
22:18:35:288368,-9,12,34,6,0,1,1,-8
22:18:35:294259,-20,4,-19,-14,-1,-4,-3,-4
22:18:35:309986,-20,4,-19,-14,-1,-4,-3,-4
22:18:35:310784,9,-21,-28,-9,-3,-5,-14,-13
22:18:35:316739,5,-5,15,6,1,1,-6,-11
22:18:35:332483,5,-5,15,6,1,1,-6,-11
22:18:35:333269,3,29,-8,-1,2,-2,-7,11
22:18:35:339290,9,46,-25,-9,-8,-4,-1,5
22:18:35:347471,9,46,-25,-9,-8,-4,-1,5
22:18:35:348278,-6,9,-7,1,-1,1,9,-10
22:18:35:361813,14,-11,8,-11,-11,-1,1,-5
22:18:35:369981,14,-11,8,-11,-11,-1,1,-5
22:18:35:370760,-8,6,-23,-11,-3,0,6,4
22:18:35:376813,1,-14,-27,7,3,-3,-9,-8
22:18:35:392728,1,-14,-27,7,3,-3,-9,-8
22:18:35:393277,6,-9,4,6,2,2,3,3
22:18:35:399473,-4,-8,56,6,-1,-3,-2,-11
22:18:35:407492,-4,-8,56,6,-1,-3,-2,-11
22:18:35:408280,2,2,-19,6,3,4,3,-7
22:18:35:421788,5,-34,-38,-3,-1,-3,-2,4
22:18:35:429983,5,-34,-38,-3,-1,-3,-2,4
22:18:35:430807,-19,1,8,-1,-1,0,19,0
22:18:35:436802,9,17,16,10,4,4,-1,13
22:18:35:452541,9,17,16,10,4,4,-1,13
22:18:35:453373,2,-5,-42,-6,-5,-1,-8,-1
22:18:35:459301,-9,-2,-2,-1,2,3,11,-3
22:18:35:467485,-9,-2,-2,-1,2,3,11,-3
22:18:35:468265,8,16,0,-1,2,-3,-16,-5
22:18:35:481800,-17,-10,-9,-7,7,6,-2,-21
22:18:35:490032,-17,-10,-9,-7,7,6,-2,-21
22:18:35:490828,16,17,31,9,-2,-5,-17,-7
22:18:35:496805,-10,-20,0,-10,-8,-6,-12,4
22:18:35:512485,-10,-20,0,-10,-8,-6,-12,4
22:18:35:513370,17,11,22,7,3,2,-3,1
22:18:35:519275,-5,12,21,8,2,3,5,-3
22:18:35:527540,-5,12,21,8,2,3,5,-3
22:18:35:528584,-1,-14,-26,-15,-5,-4,-4,3
22:18:35:541773,0,15,3,0,2,-1,-3,-1
22:18:35:550012,0,15,3,0,2,-1,-3,-1
22:18:35:550812,-4,-15,-7,-4,0,2,-3,5
22:18:35:556799,7,-15,-35,-6,-4,-5,-1,11
22:18:35:572522,7,-15,-35,-6,-4,-5,-1,11
22:18:35:573398,4,27,10,-5,-10,-2,3,4
22:18:35:579284,-1,-6,-23,-5,2,-3,13,-3
22:18:35:587518,-1,-6,-23,-5,2,-3,13,-3
22:18:35:588386,9,36,4,-8,-1,-3,10,1
22:18:35:601788,-1,19,19,2,-2,-1,0,0
22:18:35:610001,-1,19,19,2,-2,-1,0,0
22:18:35:610782,0,-14,37,11,6,1,-4,-1
22:18:35:616773,11,-5,10,-3,-5,-1,6,4
22:18:35:632540,11,-5,10,-3,-5,-1,6,4
22:18:35:633346,0,-5,-13,-3,-3,-5,2,-5
22:18:35:639297,-10,-57,-11,5,6,1,-8,-6
22:18:35:647487,-10,-57,-11,5,6,1,-8,-6
22:18:35:648346,-6,-9,-23,6,-1,2,-3,0
22:18:35:661765,9,37,21,5,4,3,4,5
22:18:35:670039,9,37,21,5,4,3,4,5
22:18:35:670821,-4,-15,-28,-24,-11,0,7,-4
22:18:35:676781,-18,-10,-10,-3,0,-3,-15,-16
22:18:35:692460,-18,-10,-10,-3,0,-3,-15,-16
22:18:35:693381,0,-12,-11,-3,2,4,10,16
22:18:35:699241,-4,16,19,3,-6,0,0,-4
22:18:35:707522,-4,16,19,3,-6,0,0,-4
22:18:35:708348,7,9,15,5,0,-1,10,-4
22:18:35:721831,-1,-7,-16,-6,0,0,-4,-4
22:18:35:729969,-1,-7,-16,-6,0,0,-4,-4
22:18:35:730786,-8,-30,3,0,-4,-5,-6,-2
22:18:35:736742,3,9,-8,-1,7,2,-5,7
22:18:35:752484,3,9,-8,-1,7,2,-5,7
22:18:35:753284,-4,-26,12,10,4,0,-4,-3
22:18:35:759239,-13,-20,-2,0,-6,-9,-14,-6
22:18:35:767259,-13,-20,-2,0,-6,-9,-14,-6
22:18:35:774276,-3,16,46,1,-1,-5,-12,-5
22:18:35:781754,1,10,9,5,-9,-2,6,0
22:18:35:790018,1,10,9,5,-9,-2,6,0
22:18:35:790810,-23,-4,-23,-2,2,3,-2,-2
22:18:35:796761,4,1,11,1,2,-1,2,16
22:18:35:812474,4,1,11,1,2,-1,2,16
22:18:35:813388,7,13,-11,2,4,2,7,-13
22:18:35:819252,-20,-18,-24,-2,-1,3,-6,-7
22:18:35:827504,-20,-18,-24,-2,-1,3,-6,-7
22:18:35:828363,3,5,-21,-9,-4,-1,-10,4
22:18:35:841748,15,29,12,3,-1,3,18,8
22:18:35:849989,15,29,12,3,-1,3,18,8
22:18:35:850815,9,27,10,10,2,4,12,15
22:18:35:856752,-2,15,2,-12,-7,-2,3,2
22:18:35:872561,-2,15,2,-12,-7,-2,3,2
22:18:35:873303,-3,-17,0,13,-2,-5,-12,-9
22:18:35:879247,12,21,-4,-3,-1,-1,-12,1
22:18:35:887515,12,21,-4,-3,-1,-1,-12,1
22:18:35:888357,-7,-4,20,0,-7,-4,-8,-9
22:18:35:901800,2,-1,-14,-10,-4,-3,-5,-9
22:18:35:909969,2,-1,-14,-10,-4,-3,-5,-9
22:18:35:910804,-10,-17,-14,-4,3,2,5,-4
22:18:35:916733,6,-18,-22,6,7,4,11,8
22:18:35:932463,6,-18,-22,6,7,4,11,8
22:18:35:933300,1,13,-10,-24,-5,-1,-1,5
22:18:35:939297,-27,-12,-6,4,3,-1,14,-11
22:18:35:947509,-27,-12,-6,4,3,-1,14,-11
22:18:35:948303,-15,-67,-21,-2,0,0,1,-9
22:18:35:961811,-14,4,39,-2,-3,-2,-8,-1
22:18:35:970022,-14,4,39,-2,-3,-2,-8,-1
22:18:35:970802,3,13,25,-2,-4,-5,-3,-5
22:18:35:976769,15,25,15,1,1,2,5,6
22:18:35:992552,15,25,15,1,1,2,5,6
22:18:35:993347,-38,-42,-25,2,3,-2,-17,9
22:18:35:999309,1,-7,3,0,-2,-2,-5,1
22:18:36:7551,1,-7,3,0,-2,-2,-5,1
22:18:36:8291,2,16,18,5,4,1,3,-4
22:18:36:21814,-1,-14,-17,-5,-1,-5,-10,-12
22:18:36:29972,-1,-14,-17,-5,-1,-5,-10,-12
22:18:36:30779,10,44,7,4,7,0,-5,-3
22:18:36:36812,21,13,16,3,0,4,15,4
22:18:36:52551,21,13,16,3,0,4,15,4
22:18:36:53371,16,70,12,-3,-7,-8,-11,7
22:18:36:59297,-10,4,12,3,-1,-2,-7,-11
22:18:36:67481,-10,4,12,3,-1,-2,-7,-11
22:18:36:68301,8,-28,-42,-9,-2,0,-4,-7
22:18:36:81793,9,-36,-11,14,-5,-4,-9,2
22:18:36:89997,9,-36,-11,14,-5,-4,-9,2
22:18:36:90758,11,7,16,2,2,2,5,1
22:18:36:96818,-7,-4,-59,-17,-2,-5,-3,-3
22:18:36:112526,-7,-4,-59,-17,-2,-5,-3,-3
22:18:36:113369,6,-11,-25,-3,-8,-2,7,0
22:18:36:119283,3,0,4,8,5,0,-6,-5
22:18:36:127453,3,0,4,8,5,0,-6,-5
22:18:36:128240,5,5,6,-9,-4,-1,1,4
22:18:36:141808,0,4,10,-3,0,0,4,6
22:18:36:150052,0,4,10,-3,0,0,4,6
22:18:36:150829,-23,-5,30,10,5,4,4,-2
22:18:36:156812,9,0,-7,-1,-14,-5,-3,6
22:18:36:172571,9,0,-7,-1,-14,-5,-3,6
22:18:36:173378,-30,-27,-11,-11,-1,-2,-5,-10
22:18:36:179277,-10,14,15,-3,1,1,8,6
22:18:36:187517,-10,14,15,-3,1,1,8,6
22:18:36:188351,-3,10,-2,4,1,-1,-3,-9
22:18:36:201750,-6,-37,-24,-7,-6,-8,-12,-7
22:18:36:210006,-6,-37,-24,-7,-6,-8,-12,-7
22:18:36:210803,7,-7,-18,-5,-2,0,-4,17
22:18:36:216770,0,-3,14,-7,0,3,-8,-9
22:18:36:232537,0,-3,14,-7,0,3,-8,-9
22:18:36:233355,15,-8,-20,2,-3,-7,-12,10
22:18:36:239262,3,12,-35,4,1,-2,-1,4
22:18:36:246854,3,12,-35,4,1,-2,-1,4
22:18:36:254282,-14,-25,-6,-5,-3,0,19,-3
22:18:36:261796,-7,8,0,-8,-2,0,16,-28
22:18:36:270047,-7,8,0,-8,-2,0,16,-28
22:18:36:270823,2,-22,-36,-1,1,0,-7,10
22:18:36:284317,5,-4,13,0,0,-1,-13,-19
22:18:36:292552,5,-4,13,0,0,-1,-13,-19
22:18:36:293412,2,10,35,2,-5,-2,7,-15
22:18:36:299279,-1,13,5,3,-1,-1,9,15
22:18:36:306831,-1,13,5,3,-1,-1,9,15
22:18:36:314298,-5,-1,15,5,2,2,3,-5
22:18:36:321798,-4,-4,-4,7,0,0,-5,5
22:18:36:329961,-4,-4,-4,7,0,0,-5,5
22:18:36:330791,8,3,13,-6,0,-2,-2,17
22:18:36:344280,-2,-11,4,0,2,2,-2,3
22:18:36:352540,-2,-11,4,0,2,2,-2,3
22:18:36:353355,5,18,-4,1,2,-1,3,-11
22:18:36:359331,-4,-14,-6,-2,-5,-5,6,5
22:18:36:366832,-4,-14,-6,-2,-5,-5,6,5
22:18:36:374265,0,0,11,2,1,5,6,-10
22:18:36:381816,-4,-30,-14,0,3,2,0,-9
22:18:36:390001,-4,-30,-14,0,3,2,0,-9
22:18:36:390779,-2,15,5,6,1,1,1,32
22:18:36:404295,-2,-3,14,-4,-4,-2,1,11
22:18:36:412483,-2,-3,14,-4,-4,-2,1,11
22:18:36:413298,0,7,-11,-1,-4,-4,-5,-6
22:18:36:419523,15,23,-7,0,2,0,9,12
22:18:36:426839,15,23,-7,0,2,0,9,12
22:18:36:434330,-11,-10,1,7,4,2,-11,-8
22:18:36:441764,-12,-7,-7,-1,0,2,-17,-9
22:18:36:450001,-12,-7,-7,-1,0,2,-17,-9
22:18:36:450841,3,-8,-4,1,1,-3,-4,-3
22:18:36:464266,-21,-22,-29,-14,-6,-6,3,-6
22:18:36:472526,-21,-22,-29,-14,-6,-6,3,-6
22:18:36:473294,1,-15,-15,-7,-3,-2,-8,-14
22:18:36:479266,4,22,11,1,-3,-2,-4,-11
22:18:36:486862,4,22,11,1,-3,-2,-4,-11
22:18:36:494296,-8,-11,-8,-4,2,5,2,-6
22:18:36:501768,9,8,9,0,-1,-1,-4,4
22:18:36:510013,9,8,9,0,-1,-1,-4,4
22:18:36:510807,-20,-2,-10,-10,-6,1,1,-7
22:18:36:524271,-1,8,15,-2,-5,-1,-7,-15
22:18:36:532544,-1,8,15,-2,-5,-1,-7,-15
22:18:36:533378,2,14,14,2,-3,-6,4,-13
22:18:36:539300,5,-23,-3,2,5,0,11,-10
22:18:36:546864,5,-23,-3,2,5,0,11,-10
22:18:36:554310,7,-2,-7,-1,-3,-1,5,13
22:18:36:561773,6,22,30,8,9,12,11,8
22:18:36:570013,6,22,30,8,9,12,11,8
22:18:36:570840,0,-20,-35,-6,-5,-5,9,9
22:18:36:584290,6,5,-4,-1,1,-1,-19,4
22:18:36:592550,6,5,-4,-1,1,-1,-19,4
22:18:36:593399,15,5,18,3,-2,-2,-9,-14
22:18:36:599285,-15,-6,3,-4,-2,-6,4,2
22:18:36:606808,-15,-6,3,-4,-2,-6,4,2
22:18:36:614283,7,7,-8,-3,-8,-6,-6,1
22:18:36:621807,-1,6,7,1,6,11,22,3
22:18:36:629957,-1,6,7,1,6,11,22,3
22:18:36:630780,-7,-7,6,-3,-3,-5,5,9
22:18:36:644286,5,-6,-6,1,-4,-5,4,18
22:18:36:652468,5,-6,-6,1,-4,-5,4,18
22:18:36:653267,-9,-22,-9,-7,-2,-7,-15,-16
22:18:36:659271,-2,1,11,2,-2,-3,-4,-10
22:18:36:666833,-2,1,11,2,-2,-3,-4,-10
22:18:36:674263,3,21,6,4,4,1,-1,-3
22:18:36:681841,-1,-7,-29,-7,-2,3,-4,2
22:18:36:690010,-1,-7,-29,-7,-2,3,-4,2
22:18:36:690795,4,12,2,-3,-3,1,-16,-14
22:18:36:704307,-4,-5,3,0,-3,-7,-13,20
22:18:36:712476,-4,-5,3,0,-3,-7,-13,20
22:18:36:713288,-4,12,7,3,3,6,3,10
22:18:36:719284,-23,-4,-4,0,-2,-2,17,-9
22:18:36:726844,-23,-4,-4,0,-2,-2,17,-9
22:18:36:734257,-10,-12,12,-4,-1,-5,0,8
22:18:36:741766,11,12,17,-1,3,7,-2,-2
22:18:36:749991,11,12,17,-1,3,7,-2,-2
22:18:36:750830,-10,-3,3,1,-7,-4,-8,-6
22:18:36:764337,-2,-20,-21,-4,1,1,-12,-10
22:18:36:772557,-2,-20,-21,-4,1,1,-12,-10
22:18:36:773300,4,-3,6,2,2,-1,-3,-22
22:18:36:779289,2,14,11,-1,-8,-10,-3,-6
22:18:36:786869,2,14,11,-1,-8,-10,-3,-6
22:18:36:794311,-17,-9,-1,5,3,7,30,18
22:18:36:801794,-2,-19,-9,-1,-1,-3,-14,-3
22:18:36:810056,-2,-19,-9,-1,-1,-3,-14,-3
22:18:36:810801,-23,5,-9,-4,-4,-3,5,-13
22:18:36:824287,3,3,1,0,-1,-5,2,7
22:18:36:832520,3,3,1,0,-1,-5,2,7
22:18:36:833398,3,-5,-3,-3,-2,-8,-15,13
22:18:36:839269,2,6,9,0,2,0,-13,8
22:18:36:846856,2,6,9,0,2,0,-13,8
22:18:36:854290,14,-1,1,3,3,2,0,4
22:18:36:861808,9,0,-28,-9,-7,-4,-4,-14
22:18:36:869996,9,0,-28,-9,-7,-4,-4,-14
22:18:36:870877,4,12,0,0,2,2,1,1
22:18:36:884263,4,5,8,1,1,4,8,-2
22:18:36:892541,4,5,8,1,1,4,8,-2
22:18:36:893390,-8,-18,-7,0,-1,-1,3,-15
22:18:36:899289,-14,-20,1,-1,2,-5,-5,7
22:18:36:906839,-14,-20,1,-1,2,-5,-5,7
22:18:36:914286,-7,-15,0,0,3,1,1,3
22:18:36:921796,-10,2,-1,-1,-5,1,2,-10
22:18:36:930013,-10,2,-1,-1,-5,1,2,-10
22:18:36:930781,-2,-1,-10,-1,1,-4,-9,13
22:18:36:944294,-10,-8,-16,-3,-2,-1,-3,-16
22:18:36:952460,-10,-8,-16,-3,-2,-1,-3,-16
22:18:36:953292,17,4,14,0,-5,6,-12,16
22:18:36:959295,5,3,3,0,-2,-5,6,23
22:18:36:966825,5,3,3,0,-2,-5,6,23
22:18:36:974262,-3,2,-8,-4,-8,-14,-15,-5
22:18:36:981872,-25,-10,-8,-2,4,2,5,-14
22:18:36:989988,-25,-10,-8,-2,4,2,5,-14
22:18:36:990777,2,10,-1,-2,0,7,21,-14
22:18:37:4310,3,-1,3,2,-2,0,-5,20
22:18:37:12474,3,-1,3,2,-2,0,-5,20
22:18:37:13290,3,8,19,0,-7,-5,16,-12
22:18:37:19253,-3,4,-1,4,11,12,10,-8
22:18:37:26828,-3,4,-1,4,11,12,10,-8
22:18:37:34260,3,-1,-17,-4,-3,-5,-9,4
22:18:37:50613,8,0,-1,-6,-10,-8,-15,-5
22:18:37:51437,8,0,-1,-6,-10,-8,-15,-5
22:18:37:52233,15,3,-1,2,12,11,-2,-6
22:18:37:64290,4,6,-2,1,2,0,-8,7
22:18:37:72467,4,6,-2,1,2,0,-8,7
22:18:37:73278,-7,0,2,-3,-2,0,8,-9
22:18:37:79275,10,-1,3,-1,-3,-3,2,-5
22:18:37:86815,10,-1,3,-1,-3,-3,2,-5
22:18:37:94267,-13,-16,-4,-3,1,-1,-3,-14
22:18:37:101730,-6,4,1,-5,-6,-2,8,19
22:18:37:110006,-6,4,1,-5,-6,-2,8,19
22:18:37:110807,-1,-18,-4,-2,-1,-2,-27,9
22:18:37:124323,8,13,2,0,-2,-4,-20,7
22:18:37:132565,8,13,2,0,-2,-4,-20,7
22:18:37:133305,20,-1,-1,1,-1,2,6,19
22:18:37:139264,-1,-9,-2,-2,-4,-8,-27,-19
22:18:37:146850,-1,-9,-2,-2,-4,-8,-27,-19
22:18:37:154287,-13,8,6,1,0,-8,-15,-2
22:18:37:161779,-5,-5,-12,-1,0,2,-4,3
22:18:37:170007,-5,-5,-12,-1,0,2,-4,3
22:18:37:170806,-8,-9,-6,-2,1,3,6,-9
22:18:37:184294,-3,-2,3,1,1,-1,7,-5
22:18:37:192570,-3,-2,3,1,1,-1,7,-5
22:18:37:193304,4,19,-4,-2,-3,-7,-18,6
22:18:37:207495,-8,-18,-2,-1,-2,1,0,6
22:18:37:208331,-8,-18,-2,-1,-2,1,0,6
22:18:37:214277,9,11,4,-2,-6,-6,12,-6
22:18:37:221775,-31,-25,0,1,0,3,-8,3
22:18:37:229412,-31,-25,0,1,0,3,-8,3
22:18:37:236802,-1,9,-4,-5,1,-8,-13,9
22:18:37:244292,-7,9,-3,-1,-2,1,32,15
22:18:37:252490,-7,9,-3,-1,-2,1,32,15
22:18:37:253383,-7,-2,-9,-3,-2,-3,-1,-1
22:18:37:267497,19,2,1,-3,-4,-8,-16,-40
22:18:37:268370,19,2,1,-3,-4,-8,-16,-40
22:18:37:274277,14,21,7,1,3,8,7,-19
