Time,EMG1,EMG2,EMG3,EMG4,EMG5,EMG6,EMG7,EMG8
21:51:06:911458,-1,2,0,-1,-5,0,-4,0
21:51:06:912294,-7,2,-2,-5,-2,-2,-2,-2
21:51:06:918744,-1,3,11,1,-3,-5,3,0
21:51:06:933930,-1,3,11,1,-3,-5,3,0
21:51:06:934774,-29,-3,12,1,1,0,0,-3
21:51:06:940791,1,-6,-24,-10,1,2,-6,-1
21:51:06:948941,1,-6,-24,-10,1,2,-6,-1
21:51:06:949732,9,9,23,10,14,4,6,-2
21:51:06:963270,13,1,2,4,-1,-1,10,-6
21:51:06:971468,13,1,2,4,-1,-1,10,-6
21:51:06:972273,1,3,-14,-2,-5,4,8,8
21:51:06:978241,-1,-7,-44,-8,-20,7,-26,17
21:51:06:993921,-1,-7,-44,-8,-20,7,-26,17
21:51:06:994724,-6,-5,9,-1,-15,9,11,-2
21:51:07:792,-27,-4,12,6,32,2,-2,-6
21:51:07:8952,-27,-4,12,6,32,2,-2,-6
21:51:07:9748,-5,4,19,10,8,-5,-29,5
21:51:07:23297,-38,1,7,0,-17,-8,10,-9
21:51:07:31465,-38,1,7,0,-17,-8,10,-9
21:51:07:32244,63,8,1,-9,-1,-2,12,8
21:51:07:38311,-13,2,2,-2,1,-2,-1,-35
21:51:07:53992,-13,2,2,-2,1,-2,-1,-35
21:51:07:54779,6,-3,-19,-4,-3,0,-9,-8
21:51:07:60771,6,12,14,4,1,0,-1,-8
21:51:07:68946,6,12,14,4,1,0,-1,-8
21:51:07:69727,16,-6,12,-10,-7,-9,-9,14
21:51:07:83290,1,-13,-10,-6,-3,-4,2,-10
21:51:07:91416,1,-13,-10,-6,-3,-4,2,-10
21:51:07:92214,-89,-8,-16,-1,0,-1,3,-20
21:51:07:98236,2,1,18,7,6,-1,2,20
21:51:07:113979,2,1,18,7,6,-1,2,20
21:51:07:114763,-15,-3,-7,3,2,0,-2,-7
21:51:07:120768,24,2,-11,-5,2,1,-1,15
21:51:07:128946,24,2,-11,-5,2,1,-1,15
21:51:07:129737,25,-1,-7,0,-5,-4,-5,13
21:51:07:143275,23,-2,4,-1,-3,1,7,4
21:51:07:151483,23,-2,4,-1,-3,1,7,4
21:51:07:152254,-1,0,-3,0,-4,0,-2,7
21:51:07:158259,12,1,-8,-1,-4,1,-1,15
21:51:07:165804,12,1,-8,-1,-4,1,-1,15
21:51:07:173260,18,-4,16,3,0,-3,-4,-14
21:51:07:180794,-2,2,2,6,2,1,4,5
21:51:07:188795,-2,2,2,6,2,1,4,5
21:51:07:195733,-4,-5,-31,-5,2,-2,-1,4
21:51:07:203270,8,-6,4,4,0,-1,-3,13
21:51:07:211445,8,-6,4,4,0,-1,-3,13
21:51:07:212251,-3,0,-4,-5,-3,-2,0,-17
21:51:07:218235,-7,1,-7,-4,-7,-6,1,0
21:51:07:225798,-7,1,-7,-4,-7,-6,1,0
21:51:07:233221,1,-7,-10,-12,-6,-4,-4,-17
21:51:07:240744,6,-2,4,-2,-1,0,0,-4
21:51:07:248984,6,-2,4,-2,-1,0,0,-4
21:51:07:249779,-48,2,3,-2,-6,-8,-6,-41
21:51:07:263236,-12,-4,-12,-3,-1,-2,-11,-7
21:51:07:271455,-12,-4,-12,-3,-1,-2,-11,-7
21:51:07:272255,10,-1,-2,0,0,0,1,14
21:51:07:278224,-8,7,12,0,0,-2,-1,-8
21:51:07:285804,-8,7,12,0,0,-2,-1,-8
21:51:07:293269,20,3,-9,-2,2,3,-3,-7
21:51:07:300752,-3,-3,-3,-2,-4,-1,-7,0
21:51:07:308971,-3,-3,-3,-2,-4,-1,-7,0
21:51:07:309713,-9,-1,5,1,0,1,6,13
21:51:07:323250,-6,-9,-3,-5,-3,-4,16,-36
21:51:07:331492,-6,-9,-3,-5,-3,-4,16,-36
21:51:07:332274,-11,-8,11,-2,-2,-4,-8,3
21:51:07:338278,-8,4,5,0,-1,1,-1,15
21:51:07:345754,-8,4,5,0,-1,1,-1,15
21:51:07:353266,-10,-7,-8,-5,-5,-3,12,-3
21:51:07:360754,-11,-1,0,-1,2,1,-11,-7
21:51:07:368965,-11,-1,0,-1,2,1,-11,-7
21:51:07:369798,2,8,3,1,0,3,-11,2
21:51:07:383275,15,1,2,-1,-1,-3,-2,12
21:51:07:399648,15,1,2,-1,-1,-3,-2,12
21:51:07:400401,18,0,-5,1,1,-1,11,11
21:51:07:401303,-24,-2,2,-2,-2,-1,-3,14
21:51:07:414008,-24,-2,2,-2,-2,-1,-3,14
21:51:07:414750,-30,-6,-4,-1,0,0,-2,-6
21:51:07:420717,10,-3,-5,-2,-2,-1,-2,18
21:51:07:428971,10,-3,-5,-2,-2,-1,-2,18
21:51:07:429782,-2,5,-5,1,2,-3,-11,4
21:51:07:443203,3,-1,1,0,1,2,0,0
21:51:07:451456,3,-1,1,0,1,2,0,0
21:51:07:452242,-3,-3,-6,0,-3,-3,-6,-29
21:51:07:458231,11,5,-3,1,-1,-1,-4,-5
21:51:07:465802,11,5,-3,1,-1,-1,-4,-5
21:51:07:473245,8,3,5,0,1,-1,-3,8
21:51:07:480758,-35,-8,-2,-4,-3,-2,-2,-25
21:51:07:488965,-35,-8,-2,-4,-3,-2,-2,-25
21:51:07:489755,24,-4,-1,-1,-1,1,19,34
21:51:07:503242,27,3,2,-2,1,2,2,1
21:51:07:511427,27,3,2,-2,1,2,2,1
21:51:07:512252,-7,-10,-4,-1,-2,-2,-8,-7
21:51:07:518250,-3,-3,0,1,1,3,-6,2
21:51:07:525791,-3,-3,0,1,1,3,-6,2
21:51:07:541397,10,2,4,0,-1,-1,-11,12
21:51:07:542186,6,1,-1,-1,-3,-5,-10,3
21:51:07:548960,6,1,-1,-1,-3,-5,-10,3
21:51:07:549767,-4,2,1,-1,-2,-2,1,1
21:51:07:572096,-7,-4,-2,0,0,-1,-2,1
21:51:07:572914,-7,-4,-2,0,0,-1,-2,1
21:51:07:573714,33,1,1,-2,-1,2,13,-1
21:51:07:578253,-27,-3,-1,-2,0,1,14,-16
21:51:07:585793,-27,-3,-1,-2,0,1,14,-16
21:51:07:593255,6,1,-2,-2,-1,-2,-3,-2
21:51:07:600748,1,-2,-3,-2,-1,-2,-5,-9
21:51:07:608947,1,-2,-3,-2,-1,-2,-5,-9
21:51:07:609746,-15,1,-2,-1,-1,-2,-7,0
21:51:07:623261,-4,-2,-1,-1,-1,-6,-6,-31
21:51:07:631458,-4,-2,-1,-1,-1,-6,-6,-31
21:51:07:632268,11,1,0,1,1,-2,-5,23
21:51:07:646440,8,-1,-1,-1,2,4,9,13
21:51:07:647247,8,-1,-1,-1,2,4,9,13
21:51:07:653257,-25,-5,0,0,-2,-3,-1,-9
21:51:07:660731,12,3,3,2,0,-1,4,-5
21:51:07:668961,12,3,3,2,0,-1,4,-5
21:51:07:669758,-20,-1,-1,1,0,-1,0,-1
21:51:07:692139,-14,-4,-5,-2,-3,-3,-1,20
21:51:07:692967,-14,-4,-5,-2,-3,-3,-1,20
21:51:07:693751,12,-1,0,0,0,-1,6,6
21:51:07:698278,2,0,-3,-2,0,-1,-11,23
21:51:07:705811,2,0,-3,-2,0,-1,-11,23
21:51:07:713253,7,0,-3,0,0,-2,-10,-12
21:51:07:720771,-2,-3,-2,-2,0,2,17,-16
21:51:07:728967,-2,-3,-2,-2,0,2,17,-16
21:51:07:729734,-3,-17,-5,-5,-1,2,7,-14
21:51:07:743298,-11,-2,0,-2,-4,-4,-9,-23
21:51:07:751491,-11,-2,0,-2,-4,-4,-9,-23
21:51:07:752231,-21,-1,2,1,2,1,-4,0
21:51:07:758271,1,-2,-1,-2,-4,-2,-2,1
21:51:07:765771,1,-2,-1,-2,-4,-2,-2,1
21:51:07:773271,34,3,-1,-2,0,0,-1,1
21:51:07:780695,26,3,0,2,-1,-1,-4,1
21:51:07:788957,26,3,0,2,-1,-1,-4,1
21:51:07:789755,22,3,-2,-1,-1,1,7,3
21:51:07:803684,2,-2,-2,-2,-3,-1,0,-25
21:51:07:811441,2,-2,-2,-2,-3,-1,0,-25
21:51:07:812233,-15,0,-2,0,-3,1,-3,-2
21:51:07:818204,23,0,-1,0,1,-2,-22,11
21:51:07:833924,23,0,-1,0,1,-2,-22,11
21:51:07:834720,-34,-3,-5,-3,-5,-4,9,-22
21:51:07:840764,-10,-2,-1,0,-2,-2,-5,11
21:51:07:848975,-10,-2,-1,0,-2,-2,-5,11
21:51:07:849753,27,-2,-1,-2,0,-1,0,-13
21:51:07:863295,-16,-2,-1,-3,0,-1,7,-6
21:51:07:871476,-16,-2,-1,-3,0,-1,7,-6
21:51:07:872215,-4,-2,-1,0,-1,0,-3,24
21:51:07:878267,-19,-1,-3,-2,-2,0,10,11
21:51:07:885807,-19,-1,-3,-2,-2,0,10,11
21:51:07:893249,-6,0,2,1,-2,0,-13,-19
21:51:07:900711,-18,0,0,1,1,1,7,8
21:51:07:908952,-18,0,0,1,1,1,7,8
21:51:07:909726,11,3,-2,-1,1,1,-1,3
21:51:07:923271,-3,3,0,1,0,3,14,3
21:51:07:931470,-3,3,0,1,0,3,14,3
21:51:07:932245,1,3,-2,1,0,-2,-7,8
21:51:07:946413,-4,-3,0,-2,-1,-2,-10,-17
21:51:07:947260,-4,-3,0,-2,-1,-2,-10,-17
21:51:07:953190,-13,-2,-1,-2,-2,1,10,-2
21:51:07:968922,9,0,-5,-3,-6,-8,-13,6
21:51:07:969745,9,0,-5,-3,-6,-8,-13,6
21:51:07:975742,-1,1,2,-2,-1,-2,7,8
21:51:07:983287,-14,-4,1,-1,-1,-1,-3,-10
21:51:07:991443,-14,-4,1,-1,-1,-1,-3,-10
21:51:07:992276,23,2,0,0,-1,-2,5,2
21:51:08:6428,6,-1,-6,-3,-1,-3,-4,21
21:51:08:7225,6,-1,-6,-3,-1,-3,-4,21
21:51:08:13265,-29,-5,-4,0,-1,0,-5,-10
21:51:08:20796,-1,-1,1,1,0,2,1,3
21:51:08:28283,-1,-1,1,1,0,2,1,3
21:51:08:35720,-2,-2,-3,-2,-4,-2,-5,-1
21:51:08:43225,8,-1,-1,-1,-2,-5,-12,-21
21:51:08:51481,8,-1,-1,-1,-2,-5,-12,-21
21:51:08:52266,1,0,1,-1,0,-2,-7,8
21:51:08:66434,30,1,2,2,-2,2,2,-11
21:51:08:67261,30,1,2,2,-2,2,2,-11
21:51:08:81439,2,0,-3,-1,0,-2,-13,6
21:51:08:82259,-7,-4,-3,0,1,1,-1,-8
21:51:08:88278,-7,-4,-3,0,1,1,-1,-8
21:51:08:95706,-5,-3,0,-2,0,1,7,0
21:51:08:103216,4,3,1,1,0,0,-2,5
21:51:08:111431,4,3,1,1,0,0,-2,5
21:51:08:112253,0,1,-1,1,-1,-1,-4,2
21:51:08:126911,2,-3,-6,-3,1,4,-5,9
21:51:08:127760,2,-3,-6,-3,1,4,-5,9
21:51:08:133221,5,4,0,1,0,0,-3,-13
21:51:08:140752,1,-3,1,-1,0,-1,-4,7
21:51:08:148293,1,-3,1,-1,0,-1,-4,7
21:51:08:155720,2,-1,0,-1,-2,1,5,-4
21:51:08:163254,6,1,2,-1,1,2,9,-4
21:51:08:171464,6,1,2,-1,1,2,9,-4
21:51:08:172245,-13,-2,-2,-1,-5,-3,-8,-11
21:51:08:186469,-3,-4,-2,-4,-2,-3,-5,-9
21:51:08:187261,-3,-4,-2,-4,-2,-3,-5,-9
21:51:08:193234,4,-2,-1,-1,-1,-1,2,-3
21:51:08:200735,3,0,1,1,-2,0,-1,1
21:51:08:208341,3,0,1,1,-2,0,-1,1
21:51:08:215736,12,-1,-1,-1,-1,2,6,10
21:51:08:223217,11,-3,1,0,-2,-1,-6,-10
21:51:08:231442,11,-3,1,0,-2,-1,-6,-10
21:51:08:232254,-19,-7,-2,-2,0,-1,1,-30
21:51:08:246420,-1,0,-2,-1,0,0,4,8
21:51:08:247253,-1,0,-2,-1,0,0,4,8
21:51:08:253279,-8,-1,-4,-1,0,0,-2,6
21:51:08:260734,-8,2,-2,-2,-3,-3,3,1
21:51:08:268333,-8,2,-2,-2,-3,-3,3,1
21:51:08:275770,17,2,-2,0,-1,-1,-4,6
21:51:08:283232,-22,-3,-6,-2,-1,-1,2,-1
21:51:08:291258,-22,-3,-6,-2,-1,-1,2,-1
21:51:08:298270,-1,0,0,-2,0,1,0,11
21:51:08:305790,-10,0,7,1,-2,-1,0,-4
21:51:08:313999,-10,0,7,1,-2,-1,0,-4
21:51:08:314721,-17,-3,0,0,-1,-1,0,-4
21:51:08:320744,-3,0,-1,1,1,0,-3,3
21:51:08:328273,-3,0,-1,1,1,0,-3,3
21:51:08:335721,1,0,2,-1,0,-4,0,-1
21:51:08:343210,3,0,1,-2,-2,-1,0,1
21:51:08:351451,3,0,1,-2,-2,-1,0,1
21:51:08:352263,-13,-3,0,-2,-3,0,-2,-3
21:51:08:365772,-6,-2,-1,-2,1,-2,1,-3
21:51:08:373971,-6,-2,-1,-2,1,-2,1,-3
21:51:08:374764,2,-3,-2,-2,0,-2,-3,-2
21:51:08:380714,-5,-3,-10,0,-1,-1,1,-1
21:51:08:388263,-5,-3,-10,0,-1,-1,1,-1
21:51:08:395762,16,-4,0,-3,-1,-3,0,-9
21:51:08:403243,22,1,-2,-2,-4,-2,-3,18
21:51:08:411487,22,1,-2,-2,-4,-2,-3,18
21:51:08:412276,-12,6,6,0,1,1,1,-2
21:51:08:425720,-1,-3,-2,1,0,-3,0,-3
21:51:08:434029,-1,-3,-2,1,0,-3,0,-3
21:51:08:434756,4,5,-1,2,-1,-1,0,2
21:51:08:440743,-2,-5,-3,-2,0,0,-1,-2
21:51:08:448316,-2,-5,-3,-2,0,0,-1,-2
21:51:08:455754,-6,-7,-3,-1,-1,1,-1,-2
21:51:08:463236,-2,2,-6,0,-1,0,-2,-4
21:51:08:471513,-2,2,-6,0,-1,0,-2,-4
21:51:08:472264,-41,-4,-9,-1,1,-1,-3,0
21:51:08:485712,2,-1,-3,-2,0,-2,0,-3
21:51:08:493966,2,-1,-3,-2,0,-2,0,-3
21:51:08:494765,8,0,-3,-1,-2,-3,-4,3
21:51:08:500743,1,-5,-6,-1,-2,-1,-1,-1
21:51:08:508301,1,-5,-6,-1,-2,-1,-1,-1
21:51:08:515773,5,6,2,-3,-3,-2,-1,0
21:51:08:523285,9,-3,8,0,1,3,5,2
21:51:08:531434,9,-3,8,0,1,3,5,2
21:51:08:532209,6,-1,6,0,1,2,2,1
21:51:08:545747,-5,-3,0,-1,-4,-3,-4,-2
21:51:08:553911,-5,-3,0,-1,-4,-3,-4,-2
21:51:08:554732,-1,-19,-15,-4,-4,-2,0,-2
21:51:08:560764,-6,-10,-5,-4,-4,-4,-3,-5
21:51:08:568275,-6,-10,-5,-4,-4,-4,-3,-5
21:51:08:575782,10,10,2,1,0,-1,0,1
21:51:08:583279,-3,3,4,3,-1,-1,-4,-5
21:51:08:591437,-3,3,4,3,-1,-1,-4,-5
21:51:08:592262,0,-3,-8,-5,-6,-10,-13,-2
21:51:08:614605,-5,-2,-6,-2,3,3,1,-2
21:51:08:615456,-5,-2,-6,-2,3,3,1,-2
21:51:08:616235,-19,7,9,0,1,0,-2,-4
21:51:08:620745,-1,3,0,0,-2,0,-1,-2
21:51:08:628287,-1,3,0,0,-2,0,-1,-2
21:51:08:635757,6,8,4,-2,-1,-1,1,1
21:51:08:643285,-3,2,5,1,2,1,2,-2
21:51:08:651449,-3,2,5,1,2,1,2,-2
21:51:08:652228,4,2,-3,0,0,2,2,-1
21:51:08:665738,0,2,-1,-1,-1,-3,0,0
21:51:08:673939,0,2,-1,-1,-1,-3,0,0
21:51:08:674739,4,1,-1,-1,-3,-1,0,0
21:51:08:680757,-5,-11,2,-3,-1,1,-3,-5
21:51:08:688273,-5,-11,2,-3,-1,1,-3,-5
21:51:08:695710,4,1,16,3,3,2,4,-1
21:51:08:703238,-4,2,-8,-5,-5,-7,-3,-2
21:51:08:711450,-4,2,-8,-5,-5,-7,-3,-2
21:51:08:712274,3,-3,-5,-1,1,0,-2,0
21:51:08:725818,0,13,16,3,4,2,1,1
21:51:08:733941,0,13,16,3,4,2,1,1
21:51:08:734738,-1,-4,-4,2,2,3,6,-1
21:51:08:740737,4,12,10,-1,-3,-2,-7,1
21:51:08:756441,4,12,10,-1,-3,-2,-7,1
21:51:08:757255,-1,-7,-33,-13,-6,-5,-3,-4
21:51:08:763278,-9,-27,-72,-26,-4,5,6,-2
21:51:08:771445,-9,-27,-72,-26,-4,5,6,-2
21:51:08:772242,3,-3,-9,-8,-8,-9,-3,0
21:51:08:785745,9,10,18,12,2,-1,2,5
21:51:08:802135,9,10,18,12,2,-1,2,5
21:51:08:802917,-1,5,-12,2,0,2,1,-1
21:51:08:803726,0,1,10,0,-6,-6,-8,-2
21:51:08:808328,0,1,10,0,-6,-6,-8,-2
21:51:08:823927,3,11,6,2,2,5,1,0
21:51:08:824696,-2,-5,-11,-16,-9,-6,-1,-6
21:51:08:831459,-2,-5,-11,-16,-9,-6,-1,-6
21:51:08:832252,-2,-4,9,1,-4,-4,-13,-2
21:51:08:854552,3,1,18,14,9,7,6,2
21:51:08:855395,3,1,18,14,9,7,6,2
21:51:08:856209,-1,-5,4,1,1,-1,-7,-1
21:51:08:877158,-2,-4,4,2,-4,-8,-20,-8
21:51:08:877937,-2,-4,4,2,-4,-8,-20,-8
21:51:08:878725,-1,-2,0,3,5,5,-4,-5
21:51:08:883266,0,-6,-4,-5,-4,-6,-10,0
21:51:08:890864,0,-6,-4,-5,-4,-6,-10,0
21:51:08:898280,-4,-14,-18,-17,-10,-7,-15,-4
21:51:08:905735,-10,-13,-19,-6,6,18,28,1
21:51:08:913922,-10,-13,-19,-6,6,18,28,1
21:51:08:914729,7,6,17,10,2,3,12,5
21:51:08:928985,-2,3,2,0,-4,-7,-4,-1
21:51:08:929807,-2,3,2,0,-4,-7,-4,-1
21:51:08:935764,-3,-4,-2,-3,0,-2,-2,2
21:51:08:943238,-1,-2,-4,3,-1,-3,-5,0
21:51:08:950785,-1,-2,-4,3,-1,-3,-5,0
21:51:08:958274,2,2,9,2,1,1,5,1
21:51:08:965771,0,3,6,3,1,1,3,0
21:51:08:973947,0,3,6,3,1,1,3,0
21:51:08:974726,-5,-7,-5,-2,-3,-5,0,-2
21:51:08:988927,2,7,5,0,0,-1,-1,-1
21:51:08:989735,2,7,5,0,0,-1,-1,-1
21:51:08:995767,-7,0,1,0,-3,-4,-2,-4
21:51:09:3316,-1,0,0,0,-3,-5,-10,-2
21:51:09:10786,-1,0,0,0,-3,-5,-10,-2
21:51:09:18239,2,1,5,0,-2,2,4,1
21:51:09:25704,-2,1,7,0,-3,-3,-2,2
21:51:09:33941,-2,1,7,0,-3,-3,-2,2
21:51:09:34754,-2,-2,1,-1,-2,1,2,0
21:51:09:48929,2,-3,2,2,-1,0,-1,-1
21:51:09:49807,2,-3,2,2,-1,0,-1,-1
21:51:09:55725,-2,3,-1,1,3,-1,1,0
21:51:09:63247,-3,-6,-6,2,0,0,0,-1
21:51:09:70798,-3,-6,-6,2,0,0,0,-1
21:51:09:78261,-2,-18,-11,-8,-3,1,-1,-2
21:51:09:85732,0,0,1,2,-3,-3,-1,-1
21:51:09:93961,0,0,1,2,-3,-3,-1,-1
21:51:09:94753,-2,2,1,0,-1,-3,1,-1
21:51:09:109430,-2,1,-1,-5,2,0,-3,1
21:51:09:110238,-2,1,-1,-5,2,0,-3,1
21:51:09:115768,0,4,0,0,-1,-1,-2,1
21:51:09:123231,-1,-2,3,0,-1,-4,3,1
21:51:09:130794,-1,-2,3,0,-1,-4,3,1
21:51:09:138263,-1,-4,-6,3,4,5,1,-2
21:51:09:145764,-9,0,0,1,0,0,-3,-2
21:51:09:153980,-9,0,0,1,0,0,-3,-2
21:51:09:154783,-2,2,4,0,-2,-1,0,-1
21:51:09:168941,1,-4,-6,-4,-3,0,-1,0
21:51:09:169792,1,-4,-6,-4,-3,0,-1,0
21:51:09:175787,-2,1,0,2,0,-3,-3,0
21:51:09:183259,5,2,1,-1,-2,1,3,0
21:51:09:190820,5,2,1,-1,-2,1,3,0
21:51:09:198227,-4,-6,-6,0,0,0,-1,0
21:51:09:205729,-2,-1,-2,0,-4,-4,-1,-10
21:51:09:213936,-2,-1,-2,0,-4,-4,-1,-10
21:51:09:214734,-4,-1,0,-4,-1,-2,-6,0
21:51:09:228964,-1,-1,-3,2,0,-2,-1,4
21:51:09:229785,-1,-1,-3,2,0,-2,-1,4
21:51:09:235758,3,0,-1,-1,-5,-3,1,-1
21:51:09:243232,-3,-1,0,-2,-1,0,0,0
21:51:09:250760,-3,-1,0,-2,-1,0,0,0
21:51:09:258256,-2,-1,-1,0,-1,0,0,-4
21:51:09:265791,1,2,0,0,1,2,1,-2
21:51:09:273955,1,2,0,0,1,2,1,-2
21:51:09:274733,3,-1,0,1,-1,-1,0,0
21:51:09:288940,-2,0,-2,-1,-3,-1,0,-2
21:51:09:289750,-2,0,-2,-1,-3,-1,0,-2
21:51:09:295764,0,1,0,-1,-2,1,0,1
21:51:09:303335,1,-1,-1,-1,0,-1,-2,-2
21:51:09:310795,1,-1,-1,-1,0,-1,-2,-2
21:51:09:318255,-2,0,-1,1,0,-1,0,-2
21:51:09:325752,1,0,-1,-1,-2,-1,0,1
21:51:09:333952,1,0,-1,-1,-2,-1,0,1
21:51:09:334768,-3,-3,-1,-1,-2,-1,-1,-1
21:51:09:348922,-1,-2,-3,-4,0,0,-1,0
21:51:09:349733,-1,-2,-3,-4,0,0,-1,0
21:51:09:355728,-1,-2,0,-2,0,-3,-3,-3
21:51:09:363239,-1,0,1,-3,-1,-1,-2,-1
21:51:09:370800,-1,0,1,-3,-1,-1,-2,-1
21:51:09:378239,2,-2,1,-1,3,0,-6,-2
21:51:09:385732,0,-2,-1,-1,-2,-2,-1,-3
21:51:09:393995,0,-2,-1,-1,-2,-2,-1,-3
21:51:09:394767,0,0,0,-2,-3,-3,-1,0
21:51:09:408962,-1,-1,1,-1,-3,-2,-1,-1
21:51:09:409796,-1,-1,1,-1,-3,-2,-1,-1
21:51:09:415778,-1,1,-2,3,2,1,0,0
21:51:09:423246,0,-1,-1,-3,0,-2,-1,-1
21:51:09:430833,0,-1,-1,-3,0,-2,-1,-1
21:51:09:438246,-1,-2,0,0,2,1,0,-1
21:51:09:445763,-1,-1,0,-3,-3,-4,-4,-1
21:51:09:453981,-1,-1,0,-3,-3,-4,-4,-1
21:51:09:454787,0,-1,-1,0,-3,-6,-1,-1
21:51:09:477113,-1,0,-3,1,-2,-2,-1,-1
21:51:09:477929,-1,0,-3,1,-2,-2,-1,-1
21:51:09:478728,-1,0,-1,-3,3,3,1,0
21:51:09:483235,-1,-1,2,5,4,5,2,-1
21:51:09:498946,-1,-1,2,5,4,5,2,-1
21:51:09:499732,-2,-3,-2,-2,-5,-4,1,-1
21:51:09:505767,-2,-1,-4,1,-4,-5,-4,-3
21:51:09:513946,-2,-1,-4,1,-4,-5,-4,-3
21:51:09:514736,-2,-2,-4,-5,-1,-3,-3,-2
21:51:09:528966,0,0,-3,-7,1,4,0,-1
21:51:09:529768,0,0,-3,-7,1,4,0,-1
21:51:09:543922,0,1,2,6,9,8,1,1
21:51:09:544715,-2,0,0,3,-5,-10,-5,-1
21:51:09:550789,-2,0,0,3,-5,-10,-5,-1
21:51:09:558275,-2,-1,-3,-7,-5,2,-1,-2
21:51:09:565794,-1,-2,-1,-3,8,8,4,1
21:51:09:573960,-1,-2,-1,-3,8,8,4,1
21:51:09:574743,1,0,1,3,0,-4,-1,0
21:51:09:597184,-2,-1,0,-1,-7,-5,-3,-3
21:51:09:597961,-2,-1,0,-1,-7,-5,-3,-3
21:51:09:598745,-3,-4,-3,-4,-9,-1,-1,-3
21:51:09:603254,-1,-1,0,-2,0,2,1,0
21:51:09:610853,-1,-1,0,-2,0,2,1,0
21:51:09:618259,-2,0,-1,1,0,-1,0,0
21:51:09:625769,-2,-2,-1,3,1,1,0,-1
21:51:09:633933,-2,-2,-1,3,1,1,0,-1
21:51:09:634753,0,-1,-1,-4,3,1,-3,-2
21:51:09:648887,1,2,3,2,-7,-2,0,1
21:51:09:649732,1,2,3,2,-7,-2,0,1
21:51:09:655771,1,-1,-1,2,6,6,2,0
21:51:09:663254,-2,-2,-7,-5,-3,-5,-4,-1
21:51:09:670772,-2,-2,-7,-5,-3,-5,-4,-1
21:51:09:678257,1,0,0,4,3,-4,-3,-1
21:51:09:685752,-1,-2,-4,0,-1,-2,-1,-1
21:51:09:693968,-1,-2,-4,0,-1,-2,-1,-1
21:51:09:694766,-5,-7,-7,-8,-5,-4,-3,-2
21:51:09:708944,1,-4,-1,0,3,0,1,2
21:51:09:709726,1,-4,-1,0,3,0,1,2
21:51:09:715710,0,6,-5,5,6,7,4,-1
21:51:09:723318,-4,-6,-1,-2,6,1,-3,-4
21:51:09:739418,-4,-6,-1,-2,6,1,-3,-4
21:51:09:746418,-3,-6,-1,-10,-16,-7,-3,-1
21:51:09:747197,6,18,16,13,7,5,0,3
21:51:09:753929,6,18,16,13,7,5,0,3
21:51:09:754746,3,2,-3,6,4,9,3,5
21:51:09:768911,7,25,21,9,0,-9,-2,0
21:51:09:769785,7,25,21,9,0,-9,-2,0
21:51:09:775751,0,14,25,-6,-10,-11,-6,-5
21:51:09:783282,-5,-6,-13,-13,-12,-9,-5,-6
21:51:09:790800,-5,-6,-13,-13,-12,-9,-5,-6
21:51:09:798213,-1,-3,3,1,-2,-7,9,-7
21:51:09:805735,-7,-11,-10,-3,-2,-2,-1,15
21:51:09:813950,-7,-11,-10,-3,-2,-2,-1,15
21:51:09:814742,-2,-7,-16,-8,2,-2,-4,18
21:51:09:828958,-1,-7,-2,0,3,8,3,-1
21:51:09:829773,-1,-7,-2,0,3,8,3,-1
21:51:09:835728,1,1,-4,1,-4,-4,-1,7
21:51:09:851448,-1,-2,-2,-4,-3,-1,-2,-3
21:51:09:852224,-1,-2,-2,-4,-3,-1,-2,-3
21:51:09:858280,-4,1,7,12,12,11,7,-9
21:51:09:865775,-2,-7,-6,-5,-2,-2,-2,-8
21:51:09:873301,-2,-7,-6,-5,-2,-2,-2,-8
21:51:09:880717,-3,-6,-9,-9,-7,-8,-9,-6
21:51:09:888914,-1,-4,-4,0,1,3,1,3
21:51:09:889761,-1,-4,-4,0,1,3,1,3
21:51:09:895763,0,0,4,0,-4,-4,-2,-1
21:51:09:911421,1,-3,-3,-4,-4,0,-1,-5
21:51:09:912270,1,-3,-3,-4,-4,0,-1,-5
21:51:09:918254,0,-1,-4,-4,-3,0,-2,-4
21:51:09:925768,-2,-4,-2,1,2,2,0,-4
21:51:09:933295,-2,-4,-2,1,2,2,0,-4
21:51:09:940734,-2,-2,-2,-1,-5,-5,-3,-1
21:51:09:948937,-3,-3,-1,-1,-5,-3,-4,-2
21:51:09:949750,-3,-3,-1,-1,-5,-3,-4,-2
21:51:09:955751,0,-2,-1,0,-1,0,-1,0
21:51:09:971454,0,-2,-1,0,-1,0,-1,-1
21:51:09:972289,0,-2,-1,0,-1,0,-1,-1
21:51:09:978241,0,0,-2,-2,-3,-2,-1,-4
21:51:09:985753,0,-1,-3,0,2,2,1,0
21:51:09:993321,0,-1,-3,0,2,2,1,0
21:51:10:760,0,-3,0,0,0,-1,-3,0
21:51:10:8961,-1,-1,-3,-3,-4,-6,-3,-1
21:51:10:9814,-1,-1,-3,-3,-4,-6,-3,-1
21:51:10:15775,-1,-3,-2,3,-1,1,-1,-2
21:51:10:31494,-1,-2,-1,-3,0,0,1,-1
21:51:10:32271,-1,-2,-1,-3,0,0,1,-1
21:51:10:38288,0,1,0,-1,-2,-1,-2,0
21:51:10:45744,-4,0,-1,-3,2,1,1,-3
21:51:10:53360,-4,0,-1,-3,2,1,1,-3
21:51:10:60747,-1,2,2,0,-3,-4,-1,-3
21:51:10:68933,0,2,-1,-3,0,3,0,0
21:51:10:69752,0,2,-1,-3,0,3,0,0
21:51:10:75783,-1,-2,-5,-2,1,3,2,-2
21:51:10:91502,2,14,2,-2,-7,-7,-4,-1
21:51:10:92309,2,14,2,-2,-7,-7,-4,-1
21:51:10:98275,-5,-31,-12,-2,2,-1,-2,-2
21:51:10:105778,-3,-14,-6,1,-5,-3,0,-2
21:51:10:113295,-3,-14,-6,1,-5,-3,0,-2
21:51:10:120802,0,16,7,-2,1,1,1,-1
21:51:10:128957,-1,1,2,0,-3,-1,-4,0
21:51:10:129743,-1,1,2,0,-3,-1,-4,0
21:51:10:135744,2,12,12,3,-5,-6,-4,-2
21:51:10:151453,0,-1,2,-3,4,-2,-3,-1
21:51:10:152248,0,-1,2,-3,4,-2,-3,-1
21:51:10:158311,0,3,6,2,5,3,1,-1
21:51:10:165789,-1,-1,-5,-2,0,2,-1,-1
21:51:10:173311,-1,-1,-5,-2,0,2,-1,-1
21:51:10:180727,0,-3,-2,4,1,-4,-2,-1
21:51:10:188948,2,2,3,4,2,-4,0,-1
21:51:10:189789,2,2,3,4,2,-4,0,-1
21:51:10:195739,-3,-2,-7,-2,-5,0,0,-1
21:51:10:211447,-6,-15,-2,-2,-4,-2,-2,-2
21:51:10:212248,-6,-15,-2,-2,-4,-2,-2,-2
21:51:10:218232,0,-3,-5,0,1,1,1,-1
21:51:10:233940,0,-1,-5,-4,-3,0,-3,-1
21:51:10:234767,0,-1,-5,-4,-3,0,-3,-1
21:51:10:240791,-3,7,4,-3,-2,-4,-4,-1
21:51:10:248953,-3,7,4,-3,-2,-4,-4,-1
21:51:10:249743,0,-8,-7,0,1,-1,1,0
21:51:10:255736,-1,2,-1,0,-1,3,2,1
21:51:10:271433,-1,2,-1,0,-1,3,2,1
21:51:10:272264,2,5,0,2,4,2,0,0
21:51:10:278321,0,-1,-1,0,-1,-2,-2,0
21:51:10:293924,0,-1,-1,0,-1,-2,-2,0
21:51:10:294713,-3,-1,4,1,-2,-2,0,-2
21:51:10:300801,1,-4,-6,-3,-2,-1,-1,-2
21:51:10:308957,1,-4,-6,-3,-2,-1,-1,-2
21:51:10:309732,1,7,-2,-1,0,-1,-1,-1
21:51:10:315715,1,-1,-5,-3,-1,-3,-2,1
21:51:10:331450,1,-1,-5,-3,-1,-3,-2,1
21:51:10:332227,-3,13,8,-4,-3,-2,-1,-2
21:51:10:338291,-2,-7,0,-3,0,-3,-2,-1
21:51:10:354029,-2,-7,0,-3,0,-3,-2,-1
21:51:10:354801,0,0,2,2,1,2,-1,2
21:51:10:360784,0,-3,0,-3,-2,0,-2,-1
21:51:10:368979,0,-3,0,-3,-2,0,-2,-1
21:51:10:369779,-4,-5,-6,-1,-1,-3,-2,-1
21:51:10:375795,-2,-6,2,0,-3,-3,-4,-1
21:51:10:391488,-2,-6,2,0,-3,-3,-4,-1
21:51:10:392256,-6,-32,-19,-8,-3,-1,-3,-6
21:51:10:398262,-3,-7,-7,2,-1,-1,-2,0
21:51:10:414006,-3,-7,-7,2,-1,-1,-2,0
21:51:10:414789,3,5,-3,-5,-1,0,0,2
21:51:10:420765,-3,0,17,1,2,-1,-1,-2
21:51:10:428945,-3,0,17,1,2,-1,-1,-2
21:51:10:429719,0,0,6,4,-1,2,2,-1
21:51:10:435773,1,6,-1,-3,0,3,6,-1
21:51:10:451497,1,6,-1,-3,0,3,6,-1
21:51:10:452289,2,5,9,5,1,-3,-1,1
21:51:10:458268,-4,-13,-22,-12,-3,-3,-4,-2
21:51:10:473967,-4,-13,-22,-12,-3,-3,-4,-2
21:51:10:474789,-1,0,7,1,2,3,1,-1
21:51:10:480748,1,4,3,4,-2,-1,0,0
21:51:10:488974,1,4,3,4,-2,-1,0,0
21:51:10:489764,-1,1,3,-2,-2,-5,-6,-1
21:51:10:495799,0,3,-1,2,-4,1,0,-1
21:51:10:511491,0,3,-1,2,-4,1,0,-1
21:51:10:512300,-4,2,4,8,10,13,6,-2
21:51:10:518256,-1,-2,-4,0,-6,-6,-5,-2
21:51:10:533987,-1,-2,-4,0,-6,-6,-5,-2
21:51:10:534798,1,0,-5,-5,-9,-9,-5,-1
21:51:10:540728,-1,2,-1,0,3,1,1,1
21:51:10:548988,-1,2,-1,0,3,1,1,1
21:51:10:549801,0,1,-8,-4,2,1,2,-1
21:51:10:555764,-1,3,5,-2,-9,-8,0,-2
21:51:10:571462,-1,3,5,-2,-9,-8,0,-2
21:51:10:572280,0,-3,-12,-1,4,2,-1,-1
21:51:10:578219,0,-1,-6,0,0,-4,-2,1
21:51:10:593982,0,-1,-6,0,0,-4,-2,1
21:51:10:594772,-2,-7,-13,-2,-9,-7,-1,-3
21:51:10:600714,0,-1,6,4,8,9,1,-1
21:51:10:608946,0,-1,6,4,8,9,1,-1
21:51:10:609766,1,-2,-13,-5,-3,-8,-4,1
21:51:10:615715,-1,-2,1,-3,-4,-4,-1,-2
21:51:10:631473,-1,-2,1,-3,-4,-4,-1,-2
21:51:10:632269,-2,3,11,3,5,4,0,0
21:51:10:638227,-1,0,-1,4,7,0,5,1
21:51:10:653949,-1,0,-1,4,7,0,5,1
21:51:10:654773,-1,0,11,3,-6,0,-3,-3
21:51:10:660712,-3,-6,-10,-8,-2,-2,-5,-2
21:51:10:668978,-3,-6,-10,-8,-2,-2,-5,-2
21:51:10:669767,-4,-4,0,-1,0,2,0,0
21:51:10:675739,1,2,2,-1,-2,2,-2,1
21:51:10:691468,1,2,2,-1,-2,2,-2,1
21:51:10:692237,0,1,-4,-1,-5,-4,0,-1
21:51:10:698226,1,1,7,1,-1,5,4,2
21:51:10:713927,1,1,7,1,-1,5,4,2
21:51:10:714729,1,1,1,1,5,2,1,0
21:51:10:720752,-1,1,5,-4,-5,-8,-7,-5
21:51:10:728984,-1,1,5,-4,-5,-8,-7,-5
21:51:10:729762,-2,-3,3,-5,-1,-3,-4,-3
21:51:10:735709,0,-2,1,-3,2,1,1,-1
21:51:10:751543,0,-2,1,-3,2,1,1,-1
21:51:10:752250,-1,-4,-7,-3,-4,-3,-5,-2
21:51:10:758324,-3,-2,-9,-5,-4,1,-1,-3
21:51:10:773959,-3,-2,-9,-5,-4,1,-1,-3
21:51:10:774738,0,0,-7,-4,0,-2,-4,-1
21:51:10:780789,-4,-7,-11,-1,3,5,10,0
21:51:10:788942,-4,-7,-11,-1,3,5,10,0
21:51:10:789758,-1,3,4,3,-3,-2,-2,0
21:51:10:803264,-2,-2,-10,0,0,0,-6,-3
21:51:10:811473,-2,-2,-10,0,0,0,-6,-3
21:51:10:812219,2,1,3,5,2,0,0,-4
21:51:10:818256,8,1,2,-3,-1,-4,-6,-14
21:51:10:834013,8,1,2,-3,-1,-4,-6,-14
21:51:10:834784,1,0,-12,-6,-3,-2,0,3
21:51:10:840751,-5,-6,-17,-7,-5,-3,-1,5
21:51:10:848959,-5,-6,-17,-7,-5,-3,-1,5
21:51:10:849738,1,6,4,-1,0,2,2,-1
21:51:10:863252,-2,4,20,14,-2,0,-3,2
21:51:10:871475,-2,4,20,14,-2,0,-3,2
21:51:10:872261,-7,-7,2,1,-3,-4,0,0
21:51:10:878273,-3,-9,-1,-4,-2,-2,-3,-2
21:51:10:893999,-3,-9,-1,-4,-2,-2,-3,-2
21:51:10:894771,-3,-3,-5,-3,-1,2,0,-4
21:51:10:900764,1,1,-1,-1,0,-3,-1,1
21:51:10:908960,1,1,-1,-1,0,-3,-1,1
21:51:10:909720,-4,-20,-9,-7,-5,-5,-1,-4
21:51:10:923235,-4,-6,2,3,3,3,2,2
21:51:10:931481,-4,-6,2,3,3,3,2,2
21:51:10:932296,-1,0,9,3,-1,-1,2,5
21:51:10:938240,5,1,0,-1,-4,-4,-2,2
21:51:10:953986,5,1,0,-1,-4,-4,-2,2
21:51:10:954802,-3,9,5,1,1,1,-1,6
21:51:10:960728,-12,1,-8,-7,-4,-4,-6,-7
21:51:10:969001,-12,1,-8,-7,-4,-4,-6,-7
21:51:10:969764,0,-3,1,1,3,1,2,-3
21:51:10:983231,1,-6,-13,-7,-3,-2,0,-2
21:51:10:991461,1,-6,-13,-7,-3,-2,0,-2
21:51:10:992274,-4,-5,-22,-6,-3,-4,-2,-8
21:51:10:998259,1,-8,11,0,0,-1,-4,1
21:51:11:13987,1,-8,11,0,0,-1,-4,1
21:51:11:14790,3,11,7,-1,-1,-1,0,0
21:51:11:20760,-1,-5,-12,-1,-4,-1,1,3
21:51:11:28996,-1,-5,-12,-1,-4,-1,1,3
21:51:11:29809,-2,-9,-2,-7,-2,0,-2,-5
21:51:11:43210,-3,3,13,5,0,1,0,-4
21:51:11:51476,-3,3,13,5,0,1,0,-4
21:51:11:52265,1,4,-3,-3,-3,-1,-3,1
21:51:11:58241,-1,-8,-20,0,0,2,1,-1
21:51:11:74001,-1,-8,-20,0,0,2,1,-1
21:51:11:74766,-1,3,20,2,-5,-3,-1,-3
21:51:11:80744,1,3,-2,-2,1,1,-3,-1
21:51:11:88988,1,3,-2,-2,1,1,-3,-1
21:51:11:89737,-1,-2,12,5,0,-3,-12,-1
21:51:11:103217,0,3,-4,-3,2,1,3,9
21:51:11:111507,0,3,-4,-3,2,1,3,9
21:51:11:112263,2,20,1,-1,2,0,-1,2
21:51:11:118263,-1,-1,-10,0,-1,-3,-1,-3
21:51:11:133952,-1,-1,-10,0,-1,-3,-1,-3
21:51:11:134782,1,-3,0,1,1,0,0,-2
21:51:11:140715,-1,7,5,-2,-2,-1,1,0
21:51:11:148969,-1,7,5,-2,-2,-1,1,0
21:51:11:149759,-3,-5,-11,-4,-4,0,1,-3
21:51:11:163299,1,1,14,2,1,-4,-5,0
21:51:11:171475,1,1,14,2,1,-4,-5,0
21:51:11:172277,1,-4,-10,-6,-2,-2,2,0
21:51:11:178244,-6,-11,-13,-9,-1,-4,-4,-7
21:51:11:193947,-6,-11,-13,-9,-1,-4,-4,-7
21:51:11:194720,-3,-2,-5,-3,-1,-1,2,-2
21:51:11:200839,-1,2,7,0,-1,-2,-1,-4
21:51:11:208947,-1,2,7,0,-1,-2,-1,-4
21:51:11:209765,-1,-6,1,1,0,0,0,1
21:51:11:223250,-5,8,-1,-6,-4,-2,-10,-22
21:51:11:231478,-5,8,-1,-6,-4,-2,-10,-22
21:51:11:232239,-5,-3,-3,0,-1,1,1,-15
21:51:11:238295,3,4,6,7,1,1,4,5
21:51:11:253955,3,4,6,7,1,1,4,5
21:51:11:254731,-1,1,7,-1,-5,-6,-5,3
21:51:11:260761,2,-12,3,0,-6,-3,-4,-2
21:51:11:268933,2,-12,3,0,-6,-3,-4,-2
21:51:11:269722,0,5,7,3,4,-1,5,8
21:51:11:283278,1,6,4,1,5,5,3,5
21:51:11:291463,1,6,4,1,5,5,3,5
21:51:11:292240,0,-4,-5,-3,-2,-3,-3,-3
21:51:11:298280,-3,-12,-7,-5,-1,-3,-1,2
21:51:11:314012,-3,-12,-7,-5,-1,-3,-1,2
21:51:11:314789,-2,-1,4,-1,-1,-3,-3,-2
21:51:11:320774,0,5,2,-1,1,1,2,3
21:51:11:328971,0,5,2,-1,1,1,2,3
21:51:11:329755,1,-5,-19,-1,-4,-3,-2,2
21:51:11:343292,-4,-11,-8,-2,-9,-7,-3,-6
21:51:11:351774,-4,-11,-8,-2,-9,-7,-3,-6
21:51:11:352285,0,-4,-13,-2,4,4,-4,-4
21:51:11:358262,0,9,6,0,-3,-2,0,1
21:51:11:373979,0,9,6,0,-3,-2,0,1
21:51:11:374780,-3,-3,3,-3,-5,-4,-1,-2
21:51:11:380777,1,4,-7,-3,1,1,1,0
21:51:11:388930,1,4,-7,-3,1,1,1,0
21:51:11:389780,-2,-4,6,1,6,-3,0,1
21:51:11:403279,2,3,3,1,5,5,2,1
21:51:11:411494,2,3,3,1,5,5,2,1
21:51:11:412307,2,1,-5,0,0,5,5,2
21:51:11:418267,-2,0,-1,-3,-7,-9,-7,-2
21:51:11:433961,-2,0,-1,-3,-7,-9,-7,-2
21:51:11:434752,-3,-1,5,1,5,4,0,-4
21:51:11:440730,0,4,1,8,5,4,4,3
21:51:11:448959,0,4,1,8,5,4,4,3
21:51:11:449793,1,-2,2,-3,-7,-5,-5,1
21:51:11:463241,-1,-3,-3,-3,-1,0,-1,0
21:51:11:471467,-1,-3,-3,-3,-1,0,-1,0
21:51:11:472289,-1,-1,-2,1,-2,-1,1,-2
21:51:11:478259,-1,0,0,-3,-1,1,-2,-1
21:51:11:493994,-1,0,0,-3,-1,1,-2,-1
21:51:11:494759,0,-1,-1,-2,-4,0,0,-1
21:51:11:500735,-3,-1,-2,0,0,-3,-2,-1
21:51:11:508964,-3,-1,-2,0,0,-3,-2,-1
21:51:11:509792,-2,-3,-12,-5,-4,-1,0,0
21:51:11:523215,-2,-2,2,-2,-3,-2,-2,1
21:51:11:531463,-2,-2,2,-2,-3,-2,-2,1
21:51:11:532239,-1,-2,-5,-5,-4,1,-1,-1
21:51:11:538247,0,3,10,7,0,0,-1,0
21:51:11:553937,0,3,10,7,0,0,-1,0
21:51:11:554736,-2,-3,-16,-3,-2,-2,-1,-2
21:51:11:560703,-4,-5,-12,-4,-2,-2,2,-1
21:51:11:568973,-4,-5,-12,-4,-2,-2,2,-1
21:51:11:569774,-3,-1,4,-3,-1,-1,-1,-2
21:51:11:583246,-1,-1,5,0,0,0,-1,-2
21:51:11:591442,-1,-1,5,0,0,0,-1,-2
21:51:11:592259,-1,2,1,-3,0,-1,-3,-1
21:51:11:598229,4,1,-3,-2,2,4,3,1
21:51:11:614176,4,1,-3,-2,2,4,3,1
21:51:11:621365,1,-4,-6,0,-1,0,-1,-1
21:51:11:622206,0,1,1,2,0,-3,-1,0
21:51:11:628982,0,1,1,2,0,-3,-1,0
21:51:11:629789,1,5,15,-4,0,0,-3,1
21:51:11:643282,-2,-4,1,-7,-5,-3,-3,-4
21:51:11:651461,-2,-4,1,-7,-5,-3,-3,-4
21:51:11:652242,-3,1,18,8,-3,-6,-2,-2
21:51:11:658223,-1,0,-5,1,3,1,0,-3
21:51:11:673949,-1,0,-5,1,3,1,0,-3
21:51:11:674755,1,-1,5,1,2,3,1,0
21:51:11:680776,0,1,-9,-1,-3,-2,-4,-1
21:51:11:688976,0,1,-9,-1,-3,-2,-4,-1
21:51:11:689727,-3,-2,4,-3,-5,-3,1,-2
21:51:11:703276,1,3,0,-2,2,3,5,2
21:51:11:711455,1,3,0,-2,2,3,5,2
21:51:11:712247,-3,-4,-15,0,6,4,0,0
21:51:11:718290,3,10,1,-3,-4,-4,-4,3
21:51:11:733980,3,10,1,-3,-4,-4,-4,3
21:51:11:734720,-1,14,9,-3,-2,-4,-4,-2
21:51:11:740774,-6,-15,-24,-4,-1,-2,0,-3
21:51:11:756485,-6,-15,-24,-4,-1,-2,0,-3
21:51:11:757299,-14,-3,-11,0,-2,-4,-7,-12
21:51:11:763238,-19,4,16,5,0,1,-1,-5
21:51:11:771457,-19,4,16,5,0,1,-1,-5
21:51:11:772276,10,6,13,9,3,1,2,21
21:51:11:785756,-2,0,18,1,-3,-1,-3,-8
21:51:11:794013,-2,0,18,1,-3,-1,-3,-8
21:51:11:794783,-2,3,-7,4,-1,-1,-1,-4
21:51:11:800757,-2,5,-6,-14,-1,-2,0,4
21:51:11:808278,-2,5,-6,-14,-1,-2,0,4
21:51:11:815791,6,1,16,2,0,1,2,-1
21:51:11:823283,7,-14,-50,-3,0,2,0,-1
21:51:11:831446,7,-14,-50,-3,0,2,0,-1
21:51:11:832251,3,-22,-13,1,1,-1,-2,-3
21:51:11:845807,-2,-4,15,2,-2,-4,-3,-1
21:51:11:853984,-2,-4,15,2,-2,-4,-3,-1
21:51:11:854752,0,11,-12,-8,-3,1,0,1
21:51:11:860757,0,0,14,6,-3,-2,-4,0
21:51:11:868293,0,0,14,6,-3,-2,-4,0
21:51:11:875698,-2,-9,0,-1,-3,-1,-1,-2
21:51:11:883234,5,1,0,3,1,0,1,-2
21:51:11:891449,5,1,0,3,1,0,1,-2
21:51:11:892246,-4,-5,-7,-2,1,2,5,-4
21:51:11:905783,-3,-6,-10,-4,-3,-1,-2,0
21:51:11:914019,-3,-6,-10,-4,-3,-1,-2,0
21:51:11:914747,-1,-3,-5,-5,-4,-2,-2,1
21:51:11:920768,0,5,6,4,3,1,0,-2
21:51:11:928288,0,5,6,4,3,1,0,-2
21:51:11:935795,0,-3,-1,-2,-1,-1,-1,-2
21:51:11:943226,1,6,4,4,-3,-3,-3,0
21:51:11:951493,1,6,4,4,-3,-3,-3,0
21:51:11:952267,-3,-1,8,-8,-1,0,-2,-3
21:51:11:965748,0,0,-2,-6,-4,-4,-2,0
21:51:11:973975,0,0,-2,-6,-4,-4,-2,0
21:51:11:974754,-2,1,-3,1,1,2,4,1
21:51:11:980774,-1,-8,-4,-2,2,1,0,-4
21:51:11:988325,-1,-8,-4,-2,2,1,0,-4
21:51:11:995776,-3,2,-1,-2,-6,-3,-3,-1
21:51:12:3235,-1,-1,-3,-2,-4,2,-3,0
21:51:12:11485,-1,-1,-3,-2,-4,2,-3,0
21:51:12:12273,-3,-4,-1,3,-3,-4,-2,-5
21:51:12:26435,1,1,0,0,1,0,0,1
21:51:12:27295,1,1,0,0,1,0,0,1
21:51:12:33242,-2,-3,-3,-4,2,-2,-2,-3
21:51:12:40758,-2,-4,-1,-2,0,1,-1,1
21:51:12:48321,-2,-4,-1,-2,0,1,-1,1
21:51:12:55802,0,-1,-3,0,-1,-1,-3,-3
21:51:12:63277,0,-2,-2,-5,-6,-7,-3,0
21:51:12:71486,0,-2,-2,-5,-6,-7,-3,0
21:51:12:72255,1,1,2,2,0,-1,-2,1
21:51:12:86450,-1,-2,2,3,4,0,-1,-1
21:51:12:87255,-1,-2,2,3,4,0,-1,-1
21:51:12:93272,-1,-5,-6,-1,-2,-6,-3,-2
21:51:12:100794,-1,-2,-1,1,1,5,3,-1
21:51:12:108285,-1,-2,-1,1,1,5,3,-1
21:51:12:115771,3,1,2,4,6,4,0,0
21:51:12:123296,-4,-2,3,1,-4,-7,-3,-1
21:51:12:131442,-4,-2,3,1,-4,-7,-3,-1
21:51:12:132246,0,-1,-2,-1,-3,-2,-1,2
21:51:12:145779,2,4,5,-4,-2,2,-1,-1
21:51:12:153970,2,4,5,-4,-2,2,-1,-1
21:51:12:154732,1,1,-1,-2,-1,1,1,0
21:51:12:160784,-1,-3,2,-2,-3,-4,0,-1
21:51:12:168314,-1,-3,2,-2,-3,-4,0,-1
21:51:12:175739,3,17,11,-13,-4,-3,-3,1
21:51:12:183225,-17,-46,-13,-8,-4,-4,-6,-6
21:51:12:191455,-17,-46,-13,-8,-4,-4,-6,-6
21:51:12:192273,0,-5,-6,3,-4,-2,-1,2
21:51:12:205784,4,9,2,3,-3,1,3,3
21:51:12:213973,4,9,2,3,-3,1,3,3
21:51:12:214753,-7,-12,-13,-1,-3,-5,-3,-3
21:51:12:220716,3,3,-5,4,2,0,-1,-1
21:51:12:228324,3,3,-5,4,2,0,-1,-1
21:51:12:235745,-2,-1,-8,0,0,0,-3,2
21:51:12:243261,-4,4,-4,-2,1,1,-2,-3
21:51:12:251491,-4,4,-4,-2,1,1,-2,-3
21:51:12:252273,-1,0,-6,-6,-1,-2,-4,-4
21:51:12:266446,2,2,-3,-4,-1,2,2,12
21:51:12:267263,2,2,-3,-4,-1,2,2,12
21:51:12:273260,-14,0,10,9,1,0,5,-23
21:51:12:280771,4,11,8,-6,-3,-1,8,7
21:51:12:288345,4,11,8,-6,-3,-1,8,7
21:51:12:295751,-4,-15,-15,-3,-2,2,3,7
21:51:12:303278,-2,-1,5,2,-2,-1,-11,-14
21:51:12:311495,-2,-1,5,2,-2,-1,-11,-14
21:51:12:312285,-2,5,-1,-5,-7,-8,-5,-3
21:51:12:326467,2,1,-6,-3,-4,-7,-7,-5
21:51:12:327297,2,1,-6,-3,-4,-7,-7,-5
21:51:12:333259,0,-20,-6,-1,-2,0,-5,-3
21:51:12:340740,-7,-9,-7,4,3,-2,5,-3
21:51:12:348346,-7,-9,-7,4,3,-2,5,-3
21:51:12:355778,3,23,18,2,0,0,-28,-25
21:51:12:363244,-3,-30,-10,-4,-2,2,3,2
21:51:12:371482,-3,-30,-10,-4,-2,2,3,2
21:51:12:372252,1,-2,0,0,1,0,-9,-18
21:51:12:386447,-16,12,-1,-2,-3,-3,-23,2
21:51:12:387263,-16,12,-1,-2,-3,-3,-23,2
21:51:12:393287,0,-3,-11,1,6,7,14,9
21:51:12:400764,6,-8,-2,0,0,-2,7,9
21:51:12:408285,6,-8,-2,0,0,-2,7,9
21:51:12:415791,0,6,9,4,1,-2,3,6
21:51:12:423306,0,2,-12,-8,2,3,0,-4
21:51:12:431497,0,2,-12,-8,2,3,0,-4
21:51:12:432291,4,-1,2,5,3,0,14,8
21:51:12:446431,3,17,11,6,1,-2,-5,-18
21:51:12:447266,3,17,11,6,1,-2,-5,-18
21:51:12:453224,-5,-9,-4,-3,-4,1,1,16
21:51:12:460773,3,3,2,-5,-3,-2,9,13
21:51:12:468316,3,3,2,-5,-3,-2,9,13
21:51:12:475735,9,8,1,-2,0,-2,0,33
21:51:12:483222,-6,-11,-11,-6,-3,0,11,-8
21:51:12:491497,-6,-11,-11,-6,-3,0,11,-8
21:51:12:492299,-5,-10,8,-3,-6,0,2,10
21:51:12:506470,-6,-18,-21,3,1,-6,-12,-3
21:51:12:507296,-6,-18,-21,3,1,-6,-12,-3
21:51:12:513228,1,-6,5,-1,-1,-1,0,-21
21:51:12:520767,7,7,11,4,-2,0,2,2
21:51:12:528299,7,7,11,4,-2,0,2,2
21:51:12:535735,-7,3,-9,-4,-2,-4,-12,-14
21:51:12:543234,-26,29,9,-4,-1,0,10,26
21:51:12:551482,-26,29,9,-4,-1,0,10,26
21:51:12:552304,-18,7,11,1,0,-1,-5,-35
21:51:12:566453,27,23,11,4,0,-2,-1,-4
21:51:12:567293,27,23,11,4,0,-2,-1,-4
21:51:12:573289,-4,-11,-8,-12,-2,1,3,2
21:51:12:580751,1,-6,-2,-4,-1,4,3,13
21:51:12:596471,1,-6,-2,-4,-1,4,3,13
21:51:12:597415,2,-9,-9,-9,-6,-3,-2,-1
21:51:12:603248,13,5,5,-2,-3,1,-3,-9
21:51:12:611480,13,5,5,-2,-3,1,-3,-9
21:51:12:612265,59,-3,1,-2,-3,-1,7,22
21:51:12:625717,21,-13,-17,-11,2,3,-1,-9
21:51:12:633947,21,-13,-17,-11,2,3,-1,-9
21:51:12:634763,-14,15,4,-11,-2,-2,1,4
21:51:12:640735,3,24,19,13,1,-1,-2,-5
21:51:12:648308,3,24,19,13,1,-1,-2,-5
21:51:12:655738,3,9,-9,-3,0,-1,0,2
21:51:12:663254,-26,-5,10,-2,-6,-3,-7,-1
21:51:12:670807,-26,-5,10,-2,-6,-3,-7,-1
21:51:12:678242,18,-12,-8,-4,-3,-2,-5,-4
21:51:12:685765,-7,-11,-37,5,0,-2,6,-2
21:51:12:693955,-7,-11,-37,5,0,-2,6,-2
21:51:12:694723,-3,21,21,5,6,1,2,1
21:51:12:708982,0,10,1,-29,-6,-3,-2,-4
21:51:12:709763,0,10,1,-29,-6,-3,-2,-4
21:51:12:715765,-9,0,-11,21,7,5,6,-3
21:51:12:723268,3,-14,8,9,0,0,0,-8
21:51:12:730801,3,-14,8,9,0,0,0,-8
21:51:12:738285,-27,-18,-16,2,-6,-6,0,0
21:51:12:745778,20,-13,-12,10,3,4,5,-6
21:51:12:753955,20,-13,-12,10,3,4,5,-6
21:51:12:754748,18,-13,8,2,2,1,-1,3
21:51:12:768899,-20,-6,-19,-7,-4,-5,-9,-10
21:51:12:769780,-20,-6,-19,-7,-4,-5,-9,-10
21:51:12:775782,8,14,2,-6,-1,-2,6,4
21:51:12:783272,-28,-36,-29,-8,0,-3,-6,-10
21:51:12:790787,-28,-36,-29,-8,0,-3,-6,-10
21:51:12:798223,-9,-5,-16,-4,-4,-7,-4,-4
21:51:12:806427,-15,6,14,10,2,-2,-2,3
21:51:12:807245,-15,6,14,10,2,-2,-2,3
21:51:12:813243,0,-3,-13,1,0,-4,-7,6
21:51:12:829004,-12,-4,-1,12,-2,-4,-8,-5
21:51:12:829724,-12,-4,-1,12,-2,-4,-8,-5
21:51:12:835748,-7,13,-2,-17,-3,0,6,5
21:51:12:843220,18,33,31,13,9,5,1,23
21:51:12:850821,18,33,31,13,9,5,1,23
21:51:12:858224,-5,-46,5,-3,-5,-1,-6,-3
21:51:12:866457,-43,-2,4,-17,-10,-8,-2,-11
21:51:12:867259,-43,-2,4,-17,-10,-8,-2,-11
21:51:12:873266,-7,6,7,7,2,-1,-13,8
21:51:12:888962,26,30,49,9,0,-1,-3,5
21:51:12:889792,26,30,49,9,0,-1,-3,5
21:51:12:895745,6,13,14,-3,-3,1,1,-15
21:51:12:903228,-9,-43,-25,-7,-12,-10,-7,-7
21:51:12:910832,-9,-43,-25,-7,-12,-10,-7,-7
21:51:12:918253,25,15,11,17,14,13,7,14
21:51:12:926503,-13,-18,-8,-3,-2,-6,-3,2
21:51:12:927285,-13,-18,-8,-3,-2,-6,-3,2
21:51:12:933276,-15,-13,-1,-3,-9,-7,-28,-9
21:51:12:948999,-22,-22,-3,3,8,8,-5,-23
21:51:12:949805,-22,-22,-3,3,8,8,-5,-23
21:51:12:955788,-8,4,-1,-7,-8,-7,5,-19
21:51:12:963242,40,20,9,-8,-4,0,-6,3
21:51:12:970813,40,20,9,-8,-4,0,-6,3
21:51:12:978273,-28,27,25,14,1,-6,-5,-1
21:51:12:986421,14,5,3,4,-2,-1,12,-5
21:51:12:987247,14,5,3,4,-2,-1,12,-5
21:51:12:993288,17,-28,-31,-9,-3,1,4,11
21:51:13:8962,38,16,4,15,12,8,4,8
21:51:13:9819,38,16,4,15,12,8,4,8
21:51:13:15816,-14,-12,-19,1,2,4,9,-14
21:51:13:23255,12,8,-19,-10,-6,-1,23,14
21:51:13:30793,12,8,-19,-10,-6,-1,23,14
21:51:13:38293,-3,40,-3,2,0,0,7,-8
21:51:13:46444,1,9,2,-14,-7,-5,-7,0
21:51:13:47276,1,9,2,-14,-7,-5,-7,0
21:51:13:53248,-38,-54,-11,-9,-3,-3,-26,-11
21:51:13:68919,-19,17,15,-3,-5,-5,2,17
21:51:13:69735,-19,17,15,-3,-5,-5,2,17
21:51:13:75757,35,23,3,-5,-5,-5,-9,19
21:51:13:83276,-39,1,-6,-2,5,5,-9,-18
21:51:13:90787,-39,1,-6,-2,5,5,-9,-18
21:51:13:98216,-1,8,14,4,4,-1,2,17
21:51:13:105727,-9,8,-5,-3,-1,0,9,-14
21:51:13:113957,-9,8,-5,-3,-1,0,9,-14
21:51:13:114749,-20,9,15,12,2,2,12,0
21:51:13:128928,-11,-41,-34,-8,-7,-11,-27,10
21:51:13:129762,-11,-41,-34,-8,-7,-11,-27,10
21:51:13:135749,-5,-12,-20,-2,0,1,-7,-11
21:51:13:143238,-9,-42,-5,4,5,4,-12,-24
21:51:13:150807,-9,-42,-5,4,5,4,-12,-24
21:51:13:158263,14,14,-11,-17,-8,-7,6,17
21:51:13:165783,-27,54,-12,-3,-10,-9,5,-3
21:51:13:173965,-27,54,-12,-3,-10,-9,5,-3
21:51:13:174779,10,-14,7,9,8,10,1,15
21:51:13:188934,-6,-12,-17,-14,-3,5,19,12
21:51:13:189746,-6,-12,-17,-14,-3,5,19,12
21:51:13:195748,-1,37,35,5,0,-7,-6,-7
21:51:13:203244,67,23,16,3,1,2,-7,0
21:51:13:210821,67,23,16,3,1,2,-7,0
21:51:13:218264,-7,-8,-42,-13,0,5,6,-28
21:51:13:225760,9,-25,18,12,3,3,4,-3
21:51:13:233998,9,-25,18,12,3,3,4,-3
21:51:13:234777,-3,-26,-20,-4,-7,-9,-2,-7
21:51:13:248953,-7,-8,-14,-2,2,-4,-8,5
21:51:13:249778,-7,-8,-14,-2,2,-4,-8,5
21:51:13:255766,-5,36,-14,3,-5,0,17,11
21:51:13:263246,16,11,-12,-4,2,8,-1,-5
21:51:13:270815,16,11,-12,-4,2,8,-1,-5
21:51:13:278277,21,39,30,-18,-4,-6,-5,-3
21:51:13:286433,-15,-49,5,-1,-1,-1,11,19
21:51:13:287234,-15,-49,5,-1,-1,-1,11,19
21:51:13:293274,-23,-18,-28,-10,0,2,8,3
21:51:13:308991,-12,14,42,3,6,6,8,-4
21:51:13:309759,-12,14,42,3,6,6,8,-4
21:51:13:315777,26,-39,0,19,0,-13,-25,-21
21:51:13:323280,28,-45,-25,1,-6,0,9,33
21:51:13:330793,28,-45,-25,1,-6,0,9,33
21:51:13:338272,15,-30,0,19,1,1,-2,-14
21:51:13:345791,-54,-3,6,7,-4,-1,4,-6
21:51:13:353955,-54,-3,6,7,-4,-1,4,-6
21:51:13:354750,6,-23,1,0,1,0,-7,29
21:51:13:368908,3,2,-14,10,9,-11,-6,-8
21:51:13:369775,3,2,-14,10,9,-11,-6,-8
21:51:13:375797,-9,2,-25,-20,-6,4,0,-2
21:51:13:383279,-2,-49,22,-8,-1,-5,-19,-15
21:51:13:390784,-2,-49,22,-8,-1,-5,-19,-15
21:51:13:398234,14,16,38,18,2,5,8,-9
21:51:13:406454,-8,-31,-58,-11,-4,-2,-2,-23
21:51:13:407286,-8,-31,-58,-11,-4,-2,-2,-23
21:51:13:413276,-24,-14,-11,7,5,7,17,19
21:51:13:428974,12,18,-1,0,4,6,-4,-13
21:51:13:429753,12,18,-1,0,4,6,-4,-13
21:51:13:435739,3,-67,-28,-26,-16,-17,-20,-20
21:51:13:443243,11,18,-17,11,-8,-8,-6,-9
21:51:13:450833,11,18,-17,11,-8,-8,-6,-9
21:51:13:458243,-39,-76,-28,-10,1,1,0,9
21:51:13:466467,-10,13,6,6,4,3,-18,-1
21:51:13:467278,-10,13,6,6,4,3,-18,-1
21:51:13:473249,-8,13,5,-7,-3,-6,0,-7
21:51:13:488967,14,51,27,2,-4,-2,-10,26
21:51:13:489766,14,51,27,2,-4,-2,-10,26
21:51:13:495763,12,46,28,15,16,15,-5,-21
21:51:13:503272,27,-3,16,10,6,-1,4,0
21:51:13:510825,27,-3,16,10,6,-1,4,0
21:51:13:518249,5,44,17,-22,-21,-11,8,11
21:51:13:525733,11,4,35,2,0,-5,-8,1
21:51:13:534015,11,4,35,2,0,-5,-8,1
21:51:13:534797,16,37,-2,8,3,4,17,3
21:51:13:548985,1,32,7,-9,-8,-10,8,16
21:51:13:549781,1,32,7,-9,-8,-10,8,16
21:51:13:555759,15,-2,7,10,4,6,-21,5
21:51:13:563225,-21,8,17,0,-4,-3,4,5
21:51:13:570840,-21,8,17,0,-4,-3,4,5
21:51:13:578249,10,1,-9,-14,3,5,3,8
21:51:13:585747,42,5,13,-4,3,4,-4,-4
21:51:13:593940,42,5,13,-4,3,4,-4,-4
21:51:13:594730,-34,11,-20,-11,-6,-3,-10,-14
21:51:13:609002,-3,5,-19,-7,-8,3,2,2
21:51:13:609798,-3,5,-19,-7,-8,3,2,2
21:51:13:615785,39,11,-10,-4,-4,-4,-8,-22
21:51:13:631501,1,17,-20,-22,4,9,10,-13
21:51:13:632272,1,17,-20,-22,4,9,10,-13
21:51:13:638256,-19,-22,24,11,-6,-9,-26,-13
21:51:13:645756,13,11,25,18,4,1,5,7
21:51:13:653329,13,11,25,18,4,1,5,7
21:51:13:660801,-7,-20,-8,7,4,2,9,-2
21:51:13:668898,-10,16,-8,-11,-18,-22,-12,7
21:51:13:669766,-10,16,-8,-11,-18,-22,-12,7
21:51:13:675827,1,30,32,3,0,3,25,9
21:51:13:691445,-47,-87,-84,-18,-4,-3,-5,-13
21:51:13:692240,-47,-87,-84,-18,-4,-3,-5,-13
21:51:13:698281,11,0,-3,2,-1,-3,-23,4
21:51:13:705771,-32,17,19,7,3,1,13,-36
21:51:13:713290,-32,17,19,7,3,1,13,-36
21:51:13:720809,-51,-28,-16,-11,-4,-5,2,-10
21:51:13:728943,4,2,8,12,10,9,-6,8
21:51:13:729771,4,2,8,12,10,9,-6,8
21:51:13:735742,32,3,10,-4,8,2,-6,14
21:51:13:751423,-15,-38,-4,-40,-17,-11,-1,-24
21:51:13:752233,-15,-38,-4,-40,-17,-11,-1,-24
21:51:13:758213,10,8,-17,-22,-7,-6,9,10
21:51:13:765778,-5,-16,-5,19,1,5,-7,-3
21:51:13:773325,-5,-16,-5,19,1,5,-7,-3
21:51:13:780736,-11,11,32,19,12,13,20,2
21:51:13:788938,11,-15,-19,0,-7,-1,-4,9
21:51:13:789767,11,-15,-19,0,-7,-1,-4,9
21:51:13:795722,-22,12,5,11,-5,-9,4,1
21:51:13:811467,9,-21,-14,2,-1,-4,-4,-8
21:51:13:812257,9,-21,-14,2,-1,-4,-4,-8
21:51:13:818253,7,38,-4,2,3,2,-12,6
21:51:13:825711,14,62,-10,7,2,-1,0,26
21:51:13:833302,14,62,-10,7,2,-1,0,26
21:51:13:840750,4,-15,17,8,3,7,16,-6
21:51:13:848969,-2,4,7,-7,-3,-5,2,18
21:51:13:849791,-2,4,7,-7,-3,-5,2,18
21:51:13:855760,-25,-34,-46,9,-3,-1,1,4
21:51:13:871440,-5,-22,11,6,4,1,13,-2
21:51:13:872287,-5,-22,11,6,4,1,13,-2
21:51:13:886408,-10,-19,-23,-18,-12,-9,-17,0
21:51:13:887180,17,12,-2,-6,-5,2,-6,-14
21:51:13:893305,17,12,-2,-6,-5,2,-6,-14
21:51:13:900766,0,5,19,6,12,2,-5,-7
21:51:13:909005,5,-10,14,-10,-7,-5,-2,-5
21:51:13:909804,5,-10,14,-10,-7,-5,-2,-5
21:51:13:915747,-14,12,29,1,-4,-1,9,9
21:51:13:931488,20,17,15,11,16,13,10,7
21:51:13:932264,20,17,15,11,16,13,10,7
21:51:13:938243,26,50,-10,9,2,-6,6,31
21:51:13:945790,-12,-15,-8,16,1,-2,0,-10
21:51:13:953321,-12,-15,-8,16,1,-2,0,-10
21:51:13:960742,-25,-19,-33,-14,-6,-2,-19,-21
21:51:13:968997,35,20,12,-5,-4,-5,-4,26
21:51:13:969771,35,20,12,-5,-4,-5,-4,26
21:51:13:975796,-34,-47,7,3,-5,1,10,-21
21:51:13:991478,7,42,-10,-37,-5,3,8,-5
21:51:13:992266,7,42,-10,-37,-5,3,8,-5
21:51:13:998240,17,-7,19,3,-10,-14,-13,-8
21:51:14:5783,-24,11,14,-4,1,8,-1,-9
21:51:14:13348,-24,11,14,-4,1,8,-1,-9
21:51:14:20821,7,29,14,7,3,1,3,-4
21:51:14:28929,6,2,-4,9,-7,-7,-14,6
21:51:14:29731,6,2,-4,9,-7,-7,-14,6
21:51:14:35756,-29,-19,-29,7,2,-1,-11,-6
21:51:14:51428,-7,-24,-33,-11,-7,-1,-10,-1
21:51:14:52255,-7,-24,-33,-11,-7,-1,-10,-1
21:51:14:58268,32,3,-9,-2,0,-2,-2,3
21:51:14:65776,14,43,-22,2,8,10,20,-6
21:51:14:73301,14,43,-22,2,8,10,20,-6
21:51:14:80795,4,-43,24,-8,-1,-1,-3,14
21:51:14:88980,24,19,-4,14,6,-4,-6,1
21:51:14:89767,24,19,-4,14,6,-4,-6,1
21:51:14:95728,-15,73,36,-16,4,10,14,13
21:51:14:111437,13,-11,21,4,-7,-15,-15,6
21:51:14:112411,13,-11,21,4,-7,-15,-15,6
21:51:14:118256,-14,-5,-13,-4,-8,-8,-2,-11
21:51:14:125774,-34,-11,19,6,2,4,7,-17
21:51:14:133317,-34,-11,19,6,2,4,7,-17
21:51:14:140736,18,-17,-10,4,6,3,26,3
21:51:14:148956,-46,-38,-28,-13,-5,-5,-22,14
21:51:14:149748,-46,-38,-28,-13,-5,-5,-22,14
21:51:14:155740,28,41,-5,-3,5,3,15,14
21:51:14:171466,-27,-47,-26,10,-4,-4,-13,-32
21:51:14:172246,-27,-47,-26,10,-4,-4,-13,-32
21:51:14:178208,-8,-49,-37,17,10,11,-5,6
21:51:14:193968,-8,-49,-37,17,10,11,-5,6
21:51:14:194748,-24,23,6,-14,-15,-6,-4,-32
21:51:14:200709,4,-3,15,8,1,1,-3,3
21:51:14:208953,4,-3,15,8,1,1,-3,3
21:51:14:209754,1,-20,44,16,10,6,18,19
21:51:14:215705,10,7,-7,-15,-16,-7,6,-5
21:51:14:231458,10,7,-7,-15,-16,-7,6,-5
21:51:14:232293,30,17,16,0,2,4,11,31
21:51:14:238247,19,-8,29,-18,-7,-8,-1,3
21:51:14:253958,19,-8,29,-18,-7,-8,-1,3
21:51:14:254734,-18,-33,-44,3,12,12,0,6
21:51:14:260773,-30,-42,-9,-1,8,6,-7,-36
21:51:14:268966,-30,-42,-9,-1,8,6,-7,-36
21:51:14:269782,7,33,-1,-12,-12,-8,-3,-10
21:51:14:275722,1,7,-28,10,1,-3,-16,-7
21:51:14:291473,1,7,-28,10,1,-3,-16,-7
21:51:14:292250,-1,-18,-22,-10,-5,-3,5,4
21:51:14:298286,28,31,6,-1,-8,-6,-14,8
21:51:14:313925,28,31,6,-1,-8,-6,-14,8
21:51:14:314750,15,22,37,16,0,-9,-37,-18
21:51:14:320785,10,46,16,-6,-3,2,-5,27
21:51:14:328978,10,46,16,-6,-3,2,-5,27
21:51:14:329753,10,-21,0,-12,-8,3,10,-11
21:51:14:335778,-23,-25,-14,5,12,6,-2,7
21:51:14:351430,-23,-25,-14,5,12,6,-2,7
21:51:14:352236,0,-16,18,0,-2,-2,-31,4
21:51:14:358303,-4,-34,11,9,1,-3,11,12
21:51:14:373994,-4,-34,11,9,1,-3,11,12
21:51:14:374788,-49,-17,-55,-26,6,-2,-17,-54
21:51:14:380732,-5,28,6,-6,-11,-3,-3,-9
21:51:14:388920,-5,28,6,-6,-11,-3,-3,-9
21:51:14:389737,27,2,14,1,-5,-8,10,19
21:51:14:395800,6,-16,33,4,8,6,-14,6
21:51:14:411476,6,-16,33,4,8,6,-14,6
21:51:14:412285,5,7,-12,8,6,3,32,-2
21:51:14:418273,-12,-41,-41,-4,-11,-13,-10,-20
21:51:14:433988,-12,-41,-41,-4,-11,-13,-10,-20
21:51:14:434839,-47,-26,18,-12,-9,-5,-12,-5
21:51:14:440736,-24,14,15,-1,-3,-2,-9,-20
21:51:14:448992,-24,14,15,-1,-3,-2,-9,-20
21:51:14:449768,32,45,13,3,7,2,-2,-7
21:51:14:455770,-56,-51,-29,-13,-16,-8,23,-11
21:51:14:471457,-56,-51,-29,-13,-16,-8,23,-11
21:51:14:472280,12,3,37,-3,-2,-1,23,29
21:51:14:478253,20,3,-9,-5,-5,-7,-5,-3
21:51:14:493982,20,3,-9,-5,-5,-7,-5,-3
21:51:14:494772,19,12,2,21,14,12,20,20
21:51:14:500761,10,49,-10,5,5,-4,-7,-10
21:51:14:508989,10,49,-10,5,5,-4,-7,-10
21:51:14:509805,-34,-12,-5,-11,-6,1,6,11
21:51:14:515754,0,-46,-12,-6,3,4,-24,0
21:51:14:531461,0,-46,-12,-6,3,4,-24,0
21:51:14:532254,14,-2,6,2,-7,-20,-33,-25
21:51:14:538231,3,10,-24,-6,5,12,8,3
21:51:14:553962,3,10,-24,-6,5,12,8,3
21:51:14:554756,-15,-14,0,4,-4,-1,5,-10
21:51:14:560756,26,0,-14,-5,-9,-4,-5,-18
21:51:14:569021,26,0,-14,-5,-9,-4,-5,-18
21:51:14:569777,4,16,53,29,20,15,8,27
21:51:14:583245,-30,14,39,14,-3,-3,14,-17
21:51:14:591481,-30,14,39,14,-3,-3,14,-17
21:51:14:592284,-33,-10,6,-23,-11,-8,-15,-1
21:51:14:598260,42,-4,-7,-4,-11,-9,-16,10
21:51:14:613952,42,-4,-7,-4,-11,-9,-16,10
21:51:14:614771,32,-37,-69,6,7,1,-7,29
21:51:14:620715,-22,-13,-4,-9,-17,-15,-2,-4
21:51:14:629014,-22,-13,-4,-9,-17,-15,-2,-4
21:51:14:629797,3,-12,-13,-2,12,26,74,19
21:51:14:643285,-14,96,21,-3,-13,4,-1,9
21:51:14:651470,-14,96,21,-3,-13,4,-1,9
21:51:14:652254,26,10,14,17,3,3,-10,14
21:51:14:658250,0,-11,19,12,7,5,20,2
21:51:14:673959,0,-11,19,12,7,5,20,2
21:51:14:674774,-8,-64,-82,-24,-9,-10,-16,-17
21:51:14:680800,6,-33,-31,-42,-11,-14,-45,3
21:51:14:688974,6,-33,-31,-42,-11,-14,-45,3
21:51:14:689780,2,15,16,9,16,15,5,3
21:51:14:703296,22,-8,34,15,15,8,15,2
21:51:14:711451,22,-8,34,15,15,8,15,2
21:51:14:712220,5,66,7,-17,-22,-20,-16,-19
21:51:14:725779,2,-13,-24,8,2,-14,-42,-51
21:51:14:733975,2,-13,-24,8,2,-14,-42,-51
21:51:14:734754,-5,21,-23,-2,-1,-9,-22,-22
21:51:14:740783,-29,-62,-42,-13,2,9,34,19
21:51:14:748956,-29,-62,-42,-13,2,9,34,19
21:51:14:749796,-1,25,41,6,10,4,11,5
21:51:14:763280,11,29,-21,-15,-4,-1,6,10
21:51:14:771456,11,29,-21,-15,-4,-1,6,10
21:51:14:772258,-17,35,42,24,6,9,14,30
21:51:14:778274,-20,-12,26,21,4,-3,-12,-37
21:51:14:793937,-20,-12,26,21,4,-3,-12,-37
21:51:14:794735,-17,-21,-3,-30,-31,-18,-11,-17
21:51:14:800790,21,-24,21,-5,9,3,6,23
21:51:14:808958,21,-24,21,-5,9,3,6,23
21:51:14:809743,-11,-21,-6,22,11,5,-11,-32
21:51:14:823241,18,-48,-47,7,4,3,6,-9
21:51:14:831441,18,-48,-47,7,4,3,6,-9
21:51:14:832239,-20,-8,-13,-11,-15,-12,-13,-5
21:51:14:838301,-35,66,-40,-25,-12,-3,-16,-16
21:51:14:853972,-35,66,-40,-25,-12,-3,-16,-16
21:51:14:854812,-11,-41,-22,1,-9,-1,9,-18
21:51:14:860786,9,35,32,27,-3,-1,-1,19
21:51:14:869003,9,35,32,27,-3,-1,-1,19
21:51:14:869756,-23,29,-3,-3,4,-2,-5,13
21:51:14:883262,15,4,38,8,14,19,21,21
21:51:14:891503,15,4,38,8,14,19,21,21
21:51:14:892305,15,35,-12,13,3,-3,-4,11
21:51:14:898270,-22,34,29,-1,-2,-3,-7,-3
21:51:14:914002,-22,34,29,-1,-2,-3,-7,-3
21:51:14:914805,42,-35,-15,-8,-8,-6,0,18
21:51:14:920745,-36,-33,-22,-9,-3,-1,-9,33
21:51:14:929032,-36,-33,-22,-9,-3,-1,-9,33
21:51:14:929780,25,-62,-22,-9,-8,-11,-25,-46
21:51:14:943242,5,-29,-10,17,6,8,-13,-12
21:51:14:951468,5,-29,-10,17,6,8,-13,-12
21:51:14:952303,14,-28,-32,-3,-2,-1,-11,-20
21:51:14:958245,7,-4,-16,-18,-16,-9,7,-27
21:51:14:974028,7,-4,-16,-18,-16,-9,7,-27
21:51:14:974757,-9,46,57,23,28,28,15,-10
21:51:14:980762,2,-15,27,-9,-2,-5,-1,8
21:51:14:988986,2,-15,27,-9,-2,-5,-1,8
21:51:14:989808,-29,-12,7,-5,-14,-17,-9,-20
21:51:15:12209,1,-14,15,-11,-8,-10,2,33
21:51:15:12949,1,-14,15,-11,-8,-10,2,33
21:51:15:13729,19,22,42,30,18,3,10,14
21:51:15:18247,5,8,12,9,9,-1,16,-18
21:51:15:33979,5,8,12,9,9,-1,16,-18
21:51:15:34788,-36,-28,-3,-15,-14,-14,-4,3
21:51:15:40760,2,-42,-5,0,0,-13,6,-18
21:51:15:48964,2,-42,-5,0,0,-13,6,-18
21:51:15:49788,7,1,-35,-8,-8,-5,1,15
21:51:15:63300,9,-7,-7,-10,-12,-6,-10,-14
21:51:15:71455,9,-7,-7,-10,-12,-6,-10,-14
21:51:15:72229,0,32,-4,-6,-5,4,-10,-6
21:51:15:78231,6,25,-5,11,14,5,14,31
21:51:15:93926,6,25,-5,11,14,5,14,31
21:51:15:94742,-17,-12,-5,-5,-3,8,11,-1
21:51:15:100767,-11,10,-15,-2,-6,-8,5,-13
21:51:15:108949,-11,10,-15,-2,-6,-8,5,-13
21:51:15:109777,8,32,0,0,8,10,-10,0
21:51:15:123293,30,52,0,6,-4,-2,3,10
21:51:15:131474,30,52,0,6,-4,-2,3,10
21:51:15:132257,13,9,38,-3,-4,-16,-29,-12
21:51:15:138280,-16,9,-6,4,5,10,1,9
21:51:15:153952,-16,9,-6,4,5,10,1,9
21:51:15:154760,-36,-10,44,5,12,7,15,-14
21:51:15:160800,12,16,-8,-9,-4,-5,1,-10
21:51:15:168985,12,16,-8,-9,-4,-5,1,-10
21:51:15:169765,13,25,-9,3,-2,-2,-1,3
21:51:15:183275,8,27,-11,13,10,14,1,-18
21:51:15:191440,8,27,-11,13,10,14,1,-18
21:51:15:192261,-3,10,-5,-11,-11,-11,-8,10
21:51:15:198270,-13,-16,33,2,-3,-2,-10,-23
21:51:15:214023,-13,-16,33,2,-3,-2,-10,-23
21:51:15:214804,7,3,-7,-3,1,-1,-3,-10
21:51:15:220774,15,19,3,21,13,6,2,24
21:51:15:229002,15,19,3,21,13,6,2,24
21:51:15:229758,-3,-2,5,-20,-23,-13,-7,8
21:51:15:243279,-7,59,-5,-26,-6,-4,-15,-3
21:51:15:251474,-7,59,-5,-26,-6,-4,-15,-3
21:51:15:252296,12,-12,1,19,6,7,13,5
21:51:15:258253,-13,-48,4,-4,-8,-2,21,28
21:51:15:273997,-13,-48,4,-4,-8,-2,21,28
21:51:15:274779,-18,32,2,-3,4,-2,4,-7
21:51:15:289602,25,39,39,-4,-7,-2,27,-6
21:51:15:290448,25,39,39,-4,-7,-2,27,-6
21:51:15:291262,13,-84,-18,3,4,14,46,9
21:51:15:303238,-2,-56,-31,9,4,-2,-6,3
21:51:15:311470,-2,-56,-31,9,4,-2,-6,3
21:51:15:312288,-2,-11,4,-1,2,9,10,24
21:51:15:318222,-2,-34,-9,-2,-7,0,-17,-13
21:51:15:334001,-2,-34,-9,-2,-7,0,-17,-13
21:51:15:334781,-40,-45,-63,-10,-2,-2,9,7
21:51:15:340720,-27,20,24,-6,-3,-4,-21,-14
21:51:15:348995,-27,20,24,-6,-3,-4,-21,-14
21:51:15:349780,44,-38,7,-16,-8,0,-12,13
21:51:15:363315,14,-64,-91,-29,0,-8,-15,-16
21:51:15:379603,14,-64,-91,-29,0,-8,-15,-16
21:51:15:380380,4,44,-17,-34,-10,-6,11,1
21:51:15:381205,-38,-76,-11,15,-3,-3,7,-2
21:51:15:393999,-38,-76,-11,15,-3,-3,7,-2
21:51:15:394823,2,-68,-33,1,4,6,7,-7
21:51:15:400746,15,4,2,-3,5,6,17,1
21:51:15:416474,15,4,2,-3,5,6,17,1
21:51:15:417278,-3,15,6,6,-3,-1,-15,0
21:51:15:423268,21,13,-15,0,-8,-15,-10,-17
21:51:15:431500,21,13,-15,0,-8,-15,-10,-17
21:51:15:432295,-34,4,-29,-25,-8,-3,-12,-9
21:51:15:438256,3,-53,6,-3,-9,-6,-42,3
21:51:15:453989,3,-53,6,-3,-9,-6,-42,3
21:51:15:454767,17,14,-8,-18,-2,2,-12,1
21:51:15:460775,4,-9,36,3,5,7,23,21
21:51:15:469390,4,-9,36,3,5,7,23,21
21:51:15:475781,-23,26,13,22,5,-1,-14,-7
21:51:15:483266,-8,-14,5,5,-10,-9,-7,-1
21:51:15:491423,-8,-14,5,5,-10,-9,-7,-1
21:51:15:492245,-31,52,58,-3,-6,-3,6,16
21:51:15:498296,28,93,71,31,17,8,22,-1
21:51:15:514008,28,93,71,31,17,8,22,-1
21:51:15:514804,37,31,40,5,-4,-6,2,3
21:51:15:520769,-21,43,-23,1,4,10,-2,-3
21:51:15:528313,-21,43,-23,1,4,10,-2,-3
21:51:15:535789,-8,-34,14,14,-15,-14,-19,-32
21:51:15:543295,-9,-41,-34,0,7,12,9,-19
21:51:15:551499,-9,-41,-34,0,7,12,9,-19
21:51:15:552252,17,-10,-4,2,-2,-5,-29,-9
21:51:15:565762,-15,17,13,-4,-3,4,0,-8
21:51:15:573965,-15,17,13,-4,-3,4,0,-8
21:51:15:574761,-9,-43,-11,1,-4,-19,13,15
21:51:15:580810,-24,25,-16,-17,-1,2,-13,-9
21:51:15:588276,-24,25,-16,-17,-1,2,-13,-9
21:51:15:595743,10,29,-2,5,6,0,-1,-21
21:51:15:603231,-24,-20,-8,-10,-8,7,-16,21
21:51:15:611495,-24,-20,-8,-10,-8,7,-16,21
21:51:15:612281,-11,-59,-70,-20,-6,-3,-13,6
21:51:15:625827,12,46,34,15,8,2,1,5
21:51:15:633968,12,46,34,15,8,2,1,5
21:51:15:634747,22,43,15,-5,3,5,9,11
21:51:15:640760,25,-2,23,5,0,4,6,16
21:51:15:648305,25,-2,23,5,0,4,6,16
21:51:15:655767,-22,-17,-23,-1,-1,-6,-30,-2
21:51:15:663257,1,-69,-67,-20,-6,-4,4,-21
21:51:15:671496,1,-69,-67,-20,-6,-4,4,-21
21:51:15:672305,-1,-14,-20,-6,1,3,23,15
21:51:15:685788,-20,-25,21,8,4,-12,-10,3
21:51:15:693979,-20,-25,21,8,4,-12,-10,3
21:51:15:694786,9,-4,-8,12,13,14,6,-18
21:51:15:700740,28,4,1,6,-4,-7,-22,-5
21:51:15:708335,28,4,1,6,-4,-7,-22,-5
21:51:15:715781,0,51,5,-2,-4,-5,1,2
21:51:15:723250,-36,23,47,10,16,3,-15,-45
21:51:15:731483,-36,23,47,10,16,3,-15,-45
21:51:15:732273,1,35,4,11,0,3,13,34
21:51:15:745743,3,24,13,2,-6,-10,-4,9
21:51:15:754003,3,24,13,2,-6,-10,-4,9
21:51:15:754795,6,54,7,5,-2,3,19,-39
21:51:15:760823,20,5,-6,-13,-14,1,29,10
21:51:15:768337,20,5,-6,-13,-14,1,29,10
21:51:15:783951,3,-26,20,4,1,-1,-35,-26
21:51:15:784711,4,-30,-15,-1,13,-2,-1,51
21:51:15:791482,4,-30,-15,-1,13,-2,-1,51
21:51:15:792260,-48,-48,0,-1,1,-8,-14,-26
21:51:15:805747,-12,-9,-51,-17,-14,-11,12,12
21:51:15:813973,-12,-9,-51,-17,-14,-11,12,12
21:51:15:814761,0,-45,19,-6,-3,-18,-40,4
21:51:15:820753,7,-15,-49,-11,-13,-14,0,27
21:51:15:828330,7,-15,-49,-11,-13,-14,0,27
21:51:15:835772,40,38,35,-12,12,22,20,-6
21:51:15:843262,-5,-2,14,3,-6,2,-3,-15
21:51:15:851509,-5,-2,14,3,-6,2,-3,-15
21:51:15:852307,25,24,23,26,2,3,9,33
21:51:15:865721,10,24,41,3,-7,-4,30,-19
21:51:15:873984,10,24,41,3,-7,-4,30,-19
21:51:15:874767,-3,-1,-30,-2,4,-14,0,-21
21:51:15:888980,-27,45,12,-15,1,2,3,7
21:51:15:889785,-27,45,12,-15,1,2,3,7
21:51:15:895744,49,11,-6,0,-19,0,19,20
21:51:15:903268,0,-65,18,24,9,14,11,-1
21:51:15:911506,0,-65,18,24,9,14,11,-1
21:51:15:912267,-32,-6,23,2,14,19,17,9
21:51:15:925782,26,46,44,-1,-13,-28,-40,8
21:51:15:933971,26,46,44,-1,-13,-28,-40,8
21:51:15:934767,-31,-37,-64,-21,-5,4,4,-4
21:51:15:940751,-9,-50,-14,-7,3,3,0,-7
21:51:15:948375,-9,-50,-14,-7,3,3,0,-7
21:51:15:955765,3,-5,22,21,4,2,22,-14
21:51:15:963274,15,-59,-36,-21,3,7,-19,-17
21:51:15:971431,15,-59,-36,-21,3,7,-19,-17
21:51:15:972221,-10,-35,-13,-24,-6,10,20,3
21:51:15:985747,8,-22,0,14,1,-1,14,30
21:51:15:993995,8,-22,0,14,1,-1,14,30
21:51:15:994810,-43,-20,52,19,3,0,8,-11
21:51:16:784,-5,5,-56,-7,-3,7,-12,2
21:51:16:8259,-5,5,-56,-7,-3,7,-12,2
21:51:16:15778,57,66,55,16,-9,-26,-22,33
21:51:16:23292,-30,-45,-15,-10,-9,0,4,-20
21:51:16:31430,-30,-45,-15,-10,-9,0,4,-20
21:51:16:32270,-42,-13,-35,-8,-1,3,9,-7
21:51:16:45782,3,64,55,16,19,13,27,9
21:51:16:53974,3,64,55,16,19,13,27,9
21:51:16:54741,-34,5,-11,-4,-6,-21,-27,-28
21:51:16:60822,11,13,-33,-13,-16,-14,11,-7
21:51:16:68304,11,13,-33,-13,-16,-14,11,-7
21:51:16:75741,31,13,-33,-12,12,23,19,42
21:51:16:83327,-27,-19,-1,-4,-13,-12,-11,-6
21:51:16:91476,-27,-19,-1,-4,-13,-12,-11,-6
21:51:16:92252,8,-104,-24,-1,5,5,-17,-10
21:51:16:114607,4,27,13,27,25,3,-6,-13
21:51:16:115404,4,27,13,27,25,3,-6,-13
21:51:16:116215,3,15,2,-5,-13,-9,-7,-30
21:51:16:120777,21,-1,8,-9,0,-3,3,-4
21:51:16:128306,21,-1,8,-9,0,-3,3,-4
21:51:16:135823,-4,-29,-9,-7,3,13,-33,-13
21:51:16:143318,5,2,-32,-7,-7,-13,-25,3
21:51:16:151482,5,2,-32,-7,-7,-13,-25,3
21:51:16:152248,-14,15,-18,-11,-18,-5,-40,-6
21:51:16:166245,0,-3,21,13,8,12,11,31
21:51:16:173957,0,-3,21,13,8,12,11,31
21:51:16:174775,-35,40,-40,-16,-8,5,30,2
21:51:16:180809,-13,32,-17,-21,-8,-7,-25,-18
21:51:16:188317,-13,32,-17,-21,-8,-7,-25,-18
21:51:16:195719,42,26,31,15,2,-6,9,28
21:51:16:203225,20,0,26,3,0,7,-29,30
21:51:16:211496,20,0,26,3,0,7,-29,30
21:51:16:212261,-6,-62,-38,-15,-2,-11,7,5
21:51:16:225792,7,-45,-2,-10,-23,-15,-28,-30
21:51:16:233965,7,-45,-2,-10,-23,-15,-28,-30
21:51:16:234753,16,-2,5,-5,16,5,38,-5
21:51:16:240756,-30,20,-7,-13,14,23,0,-3
21:51:16:248339,-30,20,-7,-13,14,23,0,-3
21:51:16:255746,12,6,0,8,-7,-1,-11,-7
21:51:16:263243,1,16,0,9,10,10,13,15
21:51:16:271492,1,16,0,9,10,10,13,15
21:51:16:272279,-6,23,28,9,-2,-9,-17,5
21:51:16:285796,-51,-45,17,28,23,24,49,-50
21:51:16:293982,-51,-45,17,28,23,24,49,-50
21:51:16:294746,18,32,-19,3,-14,-6,-7,-8
21:51:16:300773,29,29,-11,-3,9,2,-1,7
21:51:16:308324,29,29,-11,-3,9,2,-1,7
21:51:16:315761,-13,41,40,-8,-11,-2,-10,28
21:51:16:323236,-6,-46,14,12,0,-4,6,-29
21:51:16:331518,-6,-46,14,12,0,-4,6,-29
21:51:16:332271,-64,16,-49,-34,-8,-5,-22,-26
21:51:16:345733,28,62,8,0,-26,-12,22,23
21:51:16:353964,28,62,8,0,-26,-12,22,23
21:51:16:354834,11,2,37,13,9,-2,8,-23
21:51:16:361020,-6,40,-51,5,24,24,6,-44
21:51:16:368348,-6,40,-51,5,24,24,6,-44
21:51:16:375772,4,-76,-38,-19,-24,-27,-30,-7
21:51:16:383273,22,-14,13,-7,-24,-24,-32,35
21:51:16:391487,22,-14,13,-7,-24,-24,-32,35
21:51:16:392238,18,-45,33,33,20,23,22,8
21:51:16:405775,-28,-55,-12,-15,-2,-10,-51,-4
21:51:16:414012,-28,-55,-12,-15,-2,-10,-51,-4
21:51:16:414787,14,13,9,-13,-14,-21,-23,30
21:51:16:420793,-11,20,14,-6,-11,3,21,-1
21:51:16:428293,-11,20,14,-6,-11,3,21,-1
21:51:16:443935,-9,0,-6,10,-3,-14,-48,-37
21:51:16:444992,-15,-20,-23,-10,-6,-16,-9,-26
21:51:16:451449,-15,-20,-23,-10,-6,-16,-9,-26
21:51:16:452258,0,-22,-30,-14,-2,11,51,22
21:51:16:465795,14,31,53,5,-2,-9,-10,-8
21:51:16:473997,14,31,53,5,-2,-9,-10,-8
21:51:16:474806,12,-2,31,23,32,12,8,-16
21:51:16:488974,-34,-16,-42,-25,-11,0,-16,-5
21:51:16:489779,-34,-16,-42,-25,-11,0,-16,-5
21:51:16:495744,12,5,-30,-3,-3,-2,4,35
21:51:16:503253,6,8,73,19,8,17,51,40
21:51:16:510849,6,8,73,19,8,17,51,40
21:51:16:518291,0,-22,22,1,7,19,31,34
21:51:16:525762,21,-10,-6,-11,-19,-21,-27,20
21:51:16:534010,21,-10,-6,-11,-19,-21,-27,20
21:51:16:534725,2,47,5,-13,2,10,7,-10
21:51:16:548936,44,51,9,6,11,11,-5,-20
21:51:16:549732,44,51,9,6,11,11,-5,-20
21:51:16:555758,7,21,-33,-6,-16,-15,21,9
21:51:16:563256,-3,-44,-39,-11,-3,2,2,12
21:51:16:570783,-3,-44,-39,-11,-3,2,2,12
21:51:16:578301,-3,31,63,24,25,9,-1,-44
21:51:16:585761,-16,-42,-83,-19,-20,-4,27,2
21:51:16:593932,-16,-42,-83,-19,-20,-4,27,2
21:51:16:594752,28,-19,5,-2,-8,-10,22,16
21:51:16:616175,-12,44,41,13,7,10,-26,-26
21:51:16:624636,-12,44,41,13,7,10,-26,-26
21:51:16:625441,-4,51,39,0,-10,-11,-41,1
21:51:16:626271,-17,-1,-25,-7,3,-9,-22,-16
21:51:16:630807,-17,-1,-25,-7,3,-9,-22,-16
21:51:16:638271,-8,-12,-50,-10,9,13,-7,-13
21:51:16:645757,29,10,38,0,-10,-17,60,18
21:51:16:653963,29,10,38,0,-10,-17,60,18
21:51:16:654753,-1,43,8,-2,-15,-5,-10,-21
21:51:16:668945,-27,2,-4,11,-1,0,16,8
21:51:16:669764,-27,2,-4,11,-1,0,16,8
21:51:16:675774,-5,-9,4,-3,0,10,-7,4
21:51:16:683297,16,38,53,5,10,-12,-2,0
21:51:16:690827,16,38,53,5,10,-12,-2,0
21:51:16:698308,-3,-22,7,18,6,17,17,-2
21:51:16:705765,15,-69,-103,-18,6,7,19,20
21:51:16:721439,15,-69,-103,-18,6,7,19,20
21:51:16:722230,-36,-1,17,-7,-3,-9,-14,-17
21:51:16:728957,40,42,25,11,6,9,12,18
21:51:16:729775,40,42,25,11,6,9,12,18
21:51:16:735752,2,8,-6,-4,-7,-13,-22,-8
21:51:16:743216,-27,26,47,1,1,0,-36,-13
21:51:16:750817,-27,26,47,1,1,0,-36,-13
21:51:16:758246,-4,2,3,24,0,0,11,5
21:51:16:774632,18,27,26,26,29,17,52,0
21:51:16:775423,18,27,26,26,29,17,52,0
21:51:16:776224,-5,-58,-34,-8,-2,-12,8,-21
21:51:16:788922,-46,-33,-33,6,-15,-13,-48,-46
21:51:16:789758,-46,-33,-33,6,-15,-13,-48,-46
21:51:16:795768,6,-27,-69,-13,-14,-12,-1,15
21:51:16:803278,-35,-52,-14,-2,-14,-5,-12,-19
21:51:16:810814,-35,-52,-14,-2,-14,-5,-12,-19
21:51:16:818258,11,28,-9,10,28,23,12,-2
21:51:16:825753,-7,-25,6,-12,-20,-21,-20,-4
21:51:16:833988,-7,-25,6,-12,-20,-21,-20,-4
21:51:16:834756,-5,-1,-1,-14,-8,-9,-20,4
21:51:16:848946,9,-13,-18,-5,14,-4,-12,-13
21:51:16:849759,9,-13,-18,-5,14,-4,-12,-13
21:51:16:855806,14,38,32,5,4,5,6,5
21:51:16:863267,-1,-17,26,11,-19,-9,-5,3
21:51:16:870829,-1,-17,26,11,-19,-9,-5,3
21:51:16:878249,-1,-3,72,14,18,17,-41,-28
21:51:16:885754,12,54,-15,-10,0,-5,29,18
21:51:16:894004,12,54,-15,-10,0,-5,29,18
21:51:16:894781,-26,-56,15,4,-23,-27,2,3
21:51:16:909004,-14,26,-11,-6,6,23,12,-10
21:51:16:909752,-14,26,-11,-6,6,23,12,-10
21:51:16:915839,-5,-12,13,7,1,-2,-3,-17
21:51:16:923233,-40,-29,-29,-6,1,2,-13,22
21:51:16:930840,-40,-29,-29,-6,1,2,-13,22
21:51:16:938307,17,31,13,7,1,4,47,27
21:51:16:954637,-12,-27,38,24,14,6,-18,-10
21:51:16:955458,-12,-27,38,24,14,6,-18,-10
21:51:16:956263,-43,-10,-22,-18,-17,-14,-30,-5
21:51:16:968949,12,-28,-23,14,8,10,-11,-1
21:51:16:969791,12,-28,-23,14,8,10,-11,-1
21:51:16:975784,8,-8,42,16,9,0,-9,-5
21:51:16:983274,29,46,17,-31,-18,-13,-4,-2
21:51:16:990838,29,46,17,-31,-18,-13,-4,-2
21:51:16:998248,-22,-18,-30,-21,1,2,-12,12
21:51:17:5756,45,-9,-25,11,20,17,40,23
21:51:17:13999,45,-9,-25,11,20,17,40,23
21:51:17:14793,19,32,35,10,-8,-5,24,-29
21:51:17:29005,-15,9,-20,-21,-17,-29,-39,2
21:51:17:29791,-15,9,-20,-21,-17,-29,-39,2
21:51:17:35754,-31,-23,-49,-5,0,-1,-19,-5
21:51:17:43242,-29,-68,-38,-22,-8,11,-13,-28
21:51:17:50849,-29,-68,-38,-22,-8,11,-13,-28
21:51:17:58274,-15,-1,19,3,9,-1,9,3
21:51:17:65766,-5,13,-27,-40,-15,-6,25,10
21:51:17:73984,-5,13,-27,-40,-15,-6,25,10
21:51:17:74775,29,2,-25,-9,5,23,11,26
21:51:17:89014,16,-2,55,20,12,8,7,14
21:51:17:89809,16,-2,55,20,12,8,7,14
21:51:17:95800,19,-15,-38,-7,-3,-8,-31,-1
21:51:17:103270,-24,0,-48,3,-4,-4,-23,-9
21:51:17:110776,-24,0,-48,3,-4,-4,-23,-9
21:51:17:118291,-30,14,8,2,7,-3,-8,2
21:51:17:125763,27,42,7,-2,-15,-1,1,6
21:51:17:134009,27,42,7,-2,-15,-1,1,6
21:51:17:134783,-18,-13,-27,-7,-10,-3,-13,-9
21:51:17:148914,36,54,79,11,5,0,18,2
21:51:17:149753,36,54,79,11,5,0,18,2
21:51:17:155774,-6,-59,-58,-21,-11,-3,13,-19
21:51:17:163278,-32,-82,-50,-21,-20,-27,-30,-19
21:51:17:170811,-32,-82,-50,-21,-20,-27,-30,-19
21:51:17:178227,22,15,-6,15,16,22,20,14
21:51:17:185758,-17,-8,-8,-2,-8,0,25,2
21:51:17:193980,-17,-8,-8,-2,-8,0,25,2
21:51:17:194763,23,-59,-25,5,3,-7,4,22
21:51:17:208953,19,-13,-20,-4,-10,-12,4,23
21:51:17:209788,19,-13,-20,-4,-10,-12,4,23
21:51:17:215725,-27,-21,29,10,14,13,11,3
21:51:17:231421,15,34,42,12,3,-10,-10,44
21:51:17:232283,15,34,42,12,3,-10,-10,44
21:51:17:238269,-21,16,39,-17,-34,-26,-26,-13
21:51:17:245786,10,12,34,18,26,23,-31,-27
21:51:17:253995,10,12,34,18,26,23,-31,-27
21:51:17:254781,40,18,-18,-4,-4,-1,7,29
21:51:17:268919,0,-67,-75,-10,-19,-24,11,-32
21:51:17:269749,0,-67,-75,-10,-19,-24,11,-32
21:51:17:275802,-2,16,15,2,1,4,17,-10
21:51:17:283273,-33,23,28,2,2,13,-7,-10
21:51:17:290805,-33,23,28,2,2,13,-7,-10
21:51:17:298220,16,11,15,5,-2,4,20,49
21:51:17:305722,-33,11,-5,4,17,10,8,-45
21:51:17:314008,-33,11,-5,4,17,10,8,-45
21:51:17:314815,2,1,38,1,-5,-7,-3,-8
21:51:17:328974,10,23,9,7,7,-5,15,33
21:51:17:329782,10,23,9,7,7,-5,15,33
21:51:17:335720,17,7,-1,-17,-7,12,43,-1
21:51:17:343197,-2,-44,-52,-26,-23,-18,-19,9
21:51:17:350797,-2,-44,-52,-26,-23,-18,-19,9
21:51:17:358263,-22,-10,-18,2,17,-3,-9,-7
21:51:17:365747,-5,-21,81,11,12,20,4,12
21:51:17:373967,-5,-21,81,11,12,20,4,12
21:51:17:374791,11,-12,-12,-13,-29,-22,-5,-19
21:51:17:397117,-3,-11,27,20,13,5,-14,-7
21:51:17:397936,-3,-11,27,20,13,5,-14,-7
21:51:17:398723,-29,2,-41,-14,-2,13,15,-16
21:51:17:411431,19,54,35,10,-17,-3,21,3
21:51:17:412282,19,54,35,10,-17,-3,21,3
21:51:17:418263,-2,16,20,20,31,7,40,33
21:51:17:425769,-17,-25,-60,-17,-3,7,21,-8
21:51:17:433294,-17,-25,-60,-17,-3,7,21,-8
21:51:17:449568,45,36,18,-4,2,-18,-25,-4
21:51:17:450389,24,-2,-5,2,19,10,-14,13
21:51:17:451223,24,-2,-5,2,19,10,-14,13
21:51:17:455810,13,-5,21,7,-15,-13,0,12
21:51:17:471474,14,15,4,3,-10,-11,-40,-26
21:51:17:472283,14,15,4,3,-10,-11,-40,-26
21:51:17:478306,-20,0,12,12,11,1,-28,9
21:51:17:485772,-13,0,-6,-13,-16,-9,19,-3
21:51:17:493304,-13,0,-6,-13,-16,-9,19,-3
21:51:17:500779,33,10,-30,-19,-19,-20,-22,-8
21:51:17:508948,-32,-44,-32,1,14,21,-11,-16
21:51:17:509744,-32,-44,-32,1,14,21,-11,-16
21:51:17:515755,12,-2,-9,2,11,10,-10,-1
21:51:17:531417,18,11,-17,-17,-10,-12,11,12
21:51:17:532226,18,11,-17,-17,-10,-12,11,12
21:51:17:538300,-24,-28,6,3,12,2,11,12
21:51:17:545797,26,93,34,16,2,-6,-13,3
21:51:17:553307,26,93,34,16,2,-6,-13,3
21:51:17:560742,-16,-43,-13,-29,-31,-16,-13,-40
21:51:17:568941,-25,-13,11,1,8,9,14,24
21:51:17:569779,-25,-13,11,1,8,9,14,24
21:51:17:575747,-2,15,-18,-4,7,14,-30,-20
21:51:17:591462,26,19,-18,-13,-13,-9,16,-23
21:51:17:592315,26,19,-18,-13,-13,-9,16,-23
21:51:17:598240,-7,19,-2,20,3,0,-8,14
21:51:17:605763,7,6,2,17,10,-10,-38,8
21:51:17:613285,7,6,2,17,10,-10,-38,8
21:51:17:620764,-13,14,-16,-3,-1,0,11,-5
21:51:17:628957,20,6,6,-10,-3,-6,9,19
21:51:17:629780,20,6,6,-10,-3,-6,9,19
21:51:17:635788,0,-3,-23,-9,-11,-3,-13,11
21:51:17:651459,-13,5,22,11,9,15,-8,-18
21:51:17:652283,-13,5,22,11,9,15,-8,-18
21:51:17:658237,-10,1,-43,1,-2,-9,-9,-14
21:51:17:665774,-25,-55,24,7,1,-3,-17,-5
21:51:17:673313,-25,-55,24,7,1,-3,-17,-5
21:51:17:680793,-11,-5,28,11,0,3,10,-11
21:51:17:689017,1,-11,-17,-1,0,2,11,-19
21:51:17:689819,1,-11,-17,-1,0,2,11,-19
21:51:17:695765,1,-1,-20,-11,-5,-7,-8,-5
21:51:17:711495,15,29,-7,-14,-7,-1,6,6
21:51:17:712276,15,29,-7,-14,-7,-1,6,6
21:51:17:718266,6,-33,12,-3,-8,3,25,-8
21:51:17:725771,-2,-8,-23,-1,16,15,19,7
21:51:17:733350,-2,-8,-23,-1,16,15,19,7
21:51:17:740751,-14,-60,9,-7,3,10,-4,4
21:51:17:748928,13,-9,-36,1,-4,-7,-7,-14
21:51:17:749748,13,-9,-36,1,-4,-7,-7,-14
21:51:17:755805,25,-22,-51,-12,-9,-6,20,20
21:51:17:771464,-14,12,23,9,5,3,3,28
21:51:17:772300,-14,12,23,9,5,3,3,28
21:51:17:778299,9,7,13,4,4,-1,3,-7
21:51:17:785777,-1,-1,23,6,0,-5,1,9
21:51:17:793326,-1,-1,23,6,0,-5,1,9
21:51:17:800773,-11,24,11,20,16,20,47,-6
21:51:17:808930,-85,-72,-23,-28,-22,-15,17,7
21:51:17:809747,-85,-72,-23,-28,-22,-15,17,7
21:51:17:815739,33,5,26,-12,-3,6,-11,6
21:51:17:831424,-10,26,21,6,-1,-3,9,-1
21:51:17:832253,-10,26,21,6,-1,-3,9,-1
21:51:17:838294,11,60,19,11,-2,-3,-10,-9
21:51:17:845806,11,15,6,2,1,14,-9,17
21:51:17:853362,11,15,6,2,1,14,-9,17
21:51:17:860761,-5,32,55,21,11,11,-14,9
21:51:17:869000,37,45,-26,-13,-26,-17,-29,-7
21:51:17:869778,37,45,-26,-13,-26,-17,-29,-7
21:51:17:875759,12,-44,-42,-26,12,6,-10,-3
21:51:17:891446,-3,-37,-6,-18,-11,-8,-21,0
21:51:17:892283,-3,-37,-6,-18,-11,-8,-21,0
21:51:17:898223,-2,-2,-15,8,18,-7,-35,-17
21:51:17:905746,7,12,10,4,-7,0,-2,-18
21:51:17:913305,7,12,10,4,-7,0,-2,-18
21:51:17:920771,-39,50,9,-7,0,6,-4,-12
21:51:17:928968,-30,-1,14,-5,0,0,26,1
21:51:17:929783,-30,-1,14,-5,0,0,26,1
21:51:17:935763,-8,33,11,1,-11,-28,-44,-10
21:51:17:951450,18,-56,-71,-14,0,-8,-24,-14
21:51:17:952295,18,-56,-71,-14,0,-8,-24,-14
21:51:17:958256,-13,-20,30,4,-1,-2,17,9
21:51:17:965776,-6,-25,11,-4,8,8,0,-20
21:51:17:973311,-6,-25,11,-4,8,8,0,-20
21:51:17:980791,10,-39,3,-10,-25,-8,-19,3
21:51:17:988985,-3,17,23,12,1,-4,11,-6
21:51:17:989795,-3,17,23,12,1,-4,11,-6
21:51:17:995771,-9,-99,-10,8,12,7,7,25
21:51:18:11468,4,-12,-1,-2,-9,-15,-5,-6
21:51:18:12265,4,-12,-1,-2,-9,-15,-5,-6
21:51:18:18240,-15,-7,-26,-2,0,13,19,-11
21:51:18:25748,-28,3,17,11,3,-4,-26,12
21:51:18:33421,-28,3,17,11,3,-4,-26,12
21:51:18:40791,-37,-50,-26,4,-11,-16,-32,-33
21:51:18:48930,17,41,26,-8,18,16,-9,8
21:51:18:49774,17,41,26,-8,18,16,-9,8
21:51:18:55786,17,62,54,-1,8,2,16,29
21:51:18:71488,41,48,13,5,11,21,9,-9
21:51:18:72294,41,48,13,5,11,21,9,-9
21:51:18:78275,21,25,-1,-6,4,-1,4,-3
21:51:18:85773,-13,-4,10,-10,-21,-14,21,17
21:51:18:93315,-13,-4,10,-10,-21,-14,21,17
21:51:18:109562,7,24,-17,11,5,6,9,-6
21:51:18:110398,16,-3,-27,6,12,4,30,5
21:51:18:111219,16,-3,-27,6,12,4,30,5
21:51:18:115783,6,15,58,2,-15,-10,-5,-8
21:51:18:131494,-5,53,36,15,8,11,8,11
21:51:18:132308,-5,53,36,15,8,11,8,11
21:51:18:138251,4,-35,-50,-20,-14,-7,14,37
21:51:18:153976,4,-35,-50,-20,-14,-7,14,37
21:51:18:154791,-29,-41,-11,0,1,-15,-34,-7
21:51:18:160778,-16,-30,-30,-5,-2,0,-41,-12
21:51:18:169017,-16,-30,-30,-5,-2,0,-41,-12
21:51:18:169842,-25,-11,-11,-2,-17,-26,-46,-20
21:51:18:175756,-6,8,-13,-9,2,14,25,-7
21:51:18:191479,-6,8,-13,-9,2,14,25,-7
21:51:18:192299,14,-16,-66,-10,0,-6,-22,-53
21:51:18:198239,-19,-4,-8,-21,-27,-27,-21,-24
21:51:18:214004,-19,-4,-8,-21,-27,-27,-21,-24
21:51:18:214771,34,40,23,19,28,18,65,16
21:51:18:220777,-11,-18,-49,9,0,6,23,21
21:51:18:228993,-11,-18,-49,9,0,6,23,21
21:51:18:229768,-1,-45,-41,-23,-23,-8,15,-7
21:51:18:235781,22,13,1,28,18,11,4,-1
21:51:18:251503,22,13,1,28,18,11,4,-1
21:51:18:252297,1,0,-5,-5,-5,-1,48,30
21:51:18:258294,9,25,18,20,21,23,-14,-13
21:51:18:273989,9,25,18,20,21,23,-14,-13
21:51:18:274815,-68,3,0,-12,-5,-22,-37,-6
21:51:18:280753,-74,-79,-29,-25,-26,-12,-11,-29
21:51:18:289015,-74,-79,-29,-25,-26,-12,-11,-29
21:51:18:289766,31,-16,13,19,27,22,21,14
21:51:18:295771,36,15,4,1,19,15,15,18
21:51:18:311478,36,15,4,1,19,15,15,18
21:51:18:312274,7,-5,17,-26,-13,-11,-16,-43
21:51:18:318237,15,13,9,3,-7,-15,-1,-4
21:51:18:333994,15,13,9,3,-7,-15,-1,-4
21:51:18:334758,15,-16,5,19,13,13,-27,9
21:51:18:340778,24,-18,14,7,5,-10,-14,-20
21:51:18:349002,24,-18,14,7,5,-10,-14,-20
21:51:18:349787,10,-59,-2,0,-10,13,63,32
21:51:18:363268,29,39,23,-8,-9,1,22,24
21:51:18:371466,29,39,23,-8,-9,1,22,24
21:51:18:372284,-6,51,-3,-16,1,3,-21,-24
21:51:18:378233,12,104,47,0,10,5,31,-1
21:51:18:393980,12,104,47,0,10,5,31,-1
21:51:18:394787,13,-1,-40,-10,-19,2,10,31
21:51:18:400743,-7,-32,-11,7,11,7,-11,32
21:51:18:408957,-7,-32,-11,7,11,7,-11,32
21:51:18:409808,-14,11,32,14,-3,-17,-19,-7
21:51:18:423284,-16,-6,-10,-14,-14,-21,6,10
21:51:18:431468,-16,-6,-10,-14,-14,-21,6,10
21:51:18:432253,-13,-16,-7,6,17,11,-41,-17
21:51:18:438245,-6,-40,-83,-41,-20,-9,-11,1
21:51:18:453957,-6,-40,-83,-41,-20,-9,-11,1
21:51:18:454753,-3,18,21,22,-3,-4,19,1
21:51:18:460794,-10,27,47,29,11,-2,36,27
21:51:18:468965,-10,27,47,29,11,-2,36,27
21:51:18:469760,-39,-39,-39,-9,-10,-5,-15,-4
21:51:18:483284,0,23,9,-6,-3,6,0,-4
21:51:18:491449,0,23,9,-6,-3,6,0,-4
21:51:18:492263,-31,13,-18,-3,-9,-10,1,-8
21:51:18:498293,-4,-17,-28,2,4,2,-34,-43
21:51:18:513960,-4,-17,-28,2,4,2,-34,-43
21:51:18:514747,6,-18,17,21,27,14,26,-32
21:51:18:520777,-12,21,22,-11,-20,-16,-13,-10
21:51:18:528936,-12,21,22,-11,-20,-16,-13,-10
21:51:18:529750,37,-15,10,-13,-7,-3,-4,20
21:51:18:543262,-6,23,-11,-13,2,1,8,-19
21:51:18:551441,-6,23,-11,-13,2,1,8,-19
21:51:18:552245,18,20,4,5,-2,-6,15,20
21:51:18:558298,23,34,-6,5,5,-4,-2,11
21:51:18:574009,23,34,-6,5,5,-4,-2,11
21:51:18:574787,7,-20,-18,-13,-11,4,-1,-9
21:51:18:580781,-25,-52,-8,13,18,19,12,-10
21:51:18:588941,-25,-52,-8,13,18,19,12,-10
21:51:18:589736,-5,-19,-1,-7,-8,-13,-25,-3
21:51:18:603289,13,-39,1,-2,-2,9,11,0
21:51:18:619641,13,-39,1,-2,-2,9,11,0
21:51:18:620429,-66,29,46,11,-1,-4,-14,-18
21:51:18:621277,25,-44,-4,-2,3,4,1,29
21:51:18:633994,25,-44,-4,-2,3,4,1,29
21:51:18:634788,-9,-1,-19,-6,-11,-9,-45,-21
21:51:18:640753,-17,24,-6,-4,-9,-9,-38,-14
21:51:18:648992,-17,24,-6,-4,-9,-9,-38,-14
21:51:18:649802,8,-21,-33,-9,5,13,7,40
21:51:18:663266,-4,-4,-9,4,-2,-2,-2,-5
21:51:18:671491,-4,-4,-9,4,-2,-2,-2,-5
21:51:18:672288,-4,13,46,22,19,10,16,4
21:51:18:678251,13,-47,17,-1,-19,-11,-18,-2
21:51:18:693990,13,-47,17,-1,-19,-11,-18,-2
21:51:18:694746,-7,-59,-38,0,8,5,-26,-23
21:51:18:700751,-21,-67,43,4,-7,-12,7,19
21:51:18:708993,-21,-67,43,4,-7,-12,7,19
21:51:18:709810,33,-10,-34,-25,-10,-2,6,3
21:51:18:723238,20,22,0,17,9,13,-42,-23
21:51:18:731479,20,22,0,17,9,13,-42,-23
21:51:18:732288,3,-25,-9,6,1,-6,2,15
21:51:18:738248,2,43,9,1,4,13,41,16
21:51:18:754031,2,43,9,1,4,13,41,16
21:51:18:754761,34,61,14,-7,9,-7,-6,6
21:51:18:760762,-26,-2,-31,-11,-19,-4,48,-35
21:51:18:768997,-26,-2,-31,-11,-19,-4,48,-35
21:51:18:769784,-9,-8,-56,-13,-12,8,6,-18
21:51:18:783253,23,21,28,15,12,12,1,10
21:51:18:791475,23,21,28,15,12,12,1,10
21:51:18:792287,12,18,24,2,3,7,11,28
21:51:18:798260,9,69,-28,-7,2,-6,-3,-7
21:51:18:813984,9,69,-28,-7,2,-6,-3,-7
21:51:18:814755,-14,13,37,-8,-21,-1,21,15
21:51:18:820790,-1,-36,29,6,7,-12,-23,-20
21:51:18:836434,-1,-36,29,6,7,-12,-23,-20
21:51:18:837225,13,-44,31,14,12,10,43,0
21:51:18:843265,-28,10,6,-1,-12,-11,-12,2
21:51:18:851458,-28,10,6,-1,-12,-11,-12,2
21:51:18:852264,-31,-5,-10,-13,-9,-14,-23,9
21:51:18:858287,-49,-62,-63,-20,0,-9,-46,-18
21:51:18:873925,-49,-62,-63,-20,0,-9,-46,-18
21:51:18:874727,4,49,-11,-7,-23,-24,-15,-20
21:51:18:880789,14,71,17,-8,10,-1,0,25
21:51:18:888987,14,71,17,-8,10,-1,0,25
21:51:18:889769,-21,-14,25,5,14,6,-22,-25
21:51:18:903277,2,5,-15,-16,-29,-4,7,3
21:51:18:911468,2,5,-15,-16,-29,-4,7,3
21:51:18:912242,23,-9,45,33,13,9,7,28
21:51:18:918263,-70,-28,-18,-12,-5,6,16,-12
21:51:18:934002,-70,-28,-18,-12,-5,6,16,-12
21:51:18:934802,23,-7,-28,6,6,-5,-5,-7
21:51:18:940781,10,-7,-9,5,-5,-9,-8,-5
21:51:18:948951,10,-7,-9,5,-5,-9,-8,-5
21:51:18:949756,-16,14,16,-3,-19,-7,-7,-12
21:51:18:963273,62,31,7,5,15,14,7,28
21:51:18:971441,62,31,7,5,15,14,7,28
21:51:18:972216,4,-66,-91,-25,4,14,17,22
21:51:18:978255,-18,-17,29,-9,-24,-19,-35,-28
21:51:18:994007,-18,-17,29,-9,-24,-19,-35,-28
21:51:18:994800,-6,-5,-10,-10,2,-7,16,-32
21:51:19:768,24,-1,-39,1,5,9,20,-21
21:51:19:9260,24,-1,-39,1,5,9,20,-21
21:51:19:9759,-31,52,29,-16,-18,-6,-16,-9
21:51:19:23282,7,-18,27,4,22,23,23,0
21:51:19:31499,7,-18,27,4,22,23,23,0
21:51:19:32280,8,20,-24,-4,9,0,-12,-5
21:51:19:38305,-48,-39,-12,-17,-28,-19,8,-9
21:51:19:53996,-48,-39,-12,-17,-28,-19,8,-9
21:51:19:54785,17,79,6,-2,14,9,13,12
21:51:19:60744,33,-15,20,-24,-12,-10,9,7
21:51:19:68991,33,-15,20,-24,-12,-10,9,7
21:51:19:69788,-13,-28,16,36,11,8,15,-12
21:51:19:83250,5,6,19,0,9,-5,0,10
21:51:19:91455,5,6,19,0,9,-5,0,10
21:51:19:92277,-6,-30,-30,-34,-26,-17,-11,-15
21:51:19:98247,-10,21,10,8,0,-13,-17,-4
21:51:19:114003,-10,21,10,8,0,-13,-17,-4
21:51:19:114808,-13,-5,14,-11,-4,2,-2,-5
21:51:19:120779,25,30,0,28,-1,8,3,27
21:51:19:129023,25,30,0,28,-1,8,3,27
21:51:19:129806,10,13,17,21,15,6,-16,-23
21:51:19:143256,10,-10,-22,-11,-15,-16,18,10
21:51:19:151471,10,-10,-22,-11,-15,-16,18,10
21:51:19:152284,-14,-56,-12,-16,0,-2,3,-25
21:51:19:158262,-12,-9,-28,8,16,16,6,9
21:51:19:173997,-12,-9,-28,8,16,16,6,9
21:51:19:174799,2,19,-3,-5,-14,-19,29,-14
21:51:19:180765,-8,14,39,20,-4,-5,-15,0
21:51:19:189026,-8,14,39,20,-4,-5,-15,0
21:51:19:189822,7,-3,48,15,4,-9,13,46
21:51:19:203245,-26,-43,-3,7,9,0,-21,-2
21:51:19:211492,-26,-43,-3,7,9,0,-21,-2
21:51:19:212275,28,45,23,1,-4,4,-3,43
21:51:19:218245,-4,-57,-30,-12,-10,-16,-32,-35
21:51:19:234012,-4,-57,-30,-12,-10,-16,-32,-35
21:51:19:234788,20,34,10,15,18,17,17,2
21:51:19:240762,-32,-40,1,-2,-15,-11,-17,-27
21:51:19:248976,-32,-40,1,-2,-15,-11,-17,-27
21:51:19:249755,-3,-14,-16,5,1,6,-3,14
21:51:19:263300,27,-10,8,3,-5,-16,22,-3
21:51:19:271482,27,-10,8,3,-5,-16,22,-3
21:51:19:272248,-3,-39,3,4,-5,19,8,1
21:51:19:278261,14,30,3,-17,-11,-12,-7,9
21:51:19:293963,14,30,3,-17,-11,-12,-7,9
21:51:19:294777,33,-3,-17,0,3,1,-27,11
21:51:19:300826,1,19,-38,-14,-10,2,5,5
21:51:19:308295,1,19,-38,-14,-10,2,5,5
21:51:19:315743,-29,-56,-22,16,15,-3,-42,-30
21:51:19:323241,-1,41,12,-1,1,-1,-6,18
21:51:19:331482,-1,41,12,-1,1,-1,-6,18
21:51:19:332239,-9,-31,-7,-5,4,0,6,1
21:51:19:345799,8,13,6,27,22,24,-2,-6
21:51:19:353979,8,13,6,27,22,24,-2,-6
21:51:19:354765,-22,26,1,-20,-18,-21,-11,-3
21:51:19:360754,-17,0,52,34,28,24,-22,5
21:51:19:368327,-17,0,52,34,28,24,-22,5
21:51:19:375787,-8,-32,-7,-8,-20,-11,-17,-26
21:51:19:383256,34,16,25,-1,-1,-1,10,-9
21:51:19:391477,34,16,25,-1,-1,-1,10,-9
21:51:19:392291,2,114,93,27,8,9,17,-4
21:51:19:405762,-1,-45,-67,-30,-14,-8,3,1
21:51:19:413997,-1,-45,-67,-30,-14,-8,3,1
21:51:19:414794,-29,-39,-26,-13,0,-11,-28,11
21:51:19:420747,7,-14,-17,3,2,-7,11,16
21:51:19:428326,7,-14,-17,3,2,-7,11,16
21:51:19:435767,-25,2,-33,15,-3,6,-32,-30
21:51:19:443267,-10,69,-3,-16,8,1,-12,20
21:51:19:451504,-10,69,-3,-16,8,1,-12,20
21:51:19:452304,22,-54,-46,-24,-5,-7,-1,-2
21:51:19:465764,-2,32,41,-27,-18,-8,10,-4
21:51:19:474025,-2,32,41,-27,-18,-8,10,-4
21:51:19:474815,-23,-59,-21,-17,23,8,-9,-2
21:51:19:480763,-40,37,0,12,-17,-4,40,12
21:51:19:488378,-40,37,0,12,-17,-4,40,12
21:51:19:495777,6,11,-52,-46,-15,-14,38,-20
21:51:19:503320,-8,-27,34,8,6,6,8,14
21:51:19:511465,-8,-27,34,8,6,6,8,14
21:51:19:512253,-8,0,40,11,-11,-21,6,-34
21:51:19:525769,5,-16,16,16,33,20,32,-8
21:51:19:534400,5,-16,16,16,33,20,32,-8
21:51:19:541459,27,63,22,10,-15,-4,27,33
21:51:19:542252,-29,-55,-9,-2,-13,-14,1,-31
21:51:19:548303,-29,-55,-9,-2,-13,-14,1,-31
21:51:19:555739,29,19,-2,-10,8,2,-10,8
21:51:19:563260,3,-18,-88,-16,-16,-28,-62,16
21:51:19:571506,3,-18,-88,-16,-16,-28,-62,16
21:51:19:572274,5,-2,-15,-17,-28,3,20,-12
21:51:19:585783,0,48,27,20,23,27,-30,-15
21:51:19:593948,0,48,27,20,23,27,-30,-15
21:51:19:594766,-11,-15,5,3,0,-18,24,7
21:51:19:600723,-12,-24,37,7,1,10,-23,-13
21:51:19:608302,-12,-24,37,7,1,10,-23,-13
21:51:19:615770,-6,55,-42,-19,-11,-3,-48,15
21:51:19:623256,-8,-3,10,-1,-20,-37,-53,-16
21:51:19:631490,-8,-3,10,-1,-20,-37,-53,-16
21:51:19:632252,4,-35,20,25,19,9,3,14
21:51:19:645730,-22,-21,13,-10,-14,-12,27,-17
21:51:19:653979,-22,-21,13,-10,-14,-12,27,-17
21:51:19:654751,-8,-9,29,21,25,22,26,-18
21:51:19:660775,14,-21,-3,-7,-11,-1,16,-8
21:51:19:668335,14,-21,-3,-7,-11,-1,16,-8
21:51:19:675752,21,-40,6,5,4,13,-11,30
21:51:19:683250,-2,73,46,8,-11,-5,31,-18
21:51:19:691480,-2,73,46,8,-11,-5,31,-18
21:51:19:692285,3,6,-8,3,11,17,34,19
21:51:19:705736,18,55,-36,-44,15,4,-11,2
21:51:19:713995,18,55,-36,-44,15,4,-11,2
21:51:19:714769,5,4,16,-11,-33,-20,-31,-16
21:51:19:720751,42,-41,4,25,23,5,-18,19
21:51:19:728327,42,-41,4,25,23,5,-18,19
21:51:19:735789,-21,-31,-18,-4,-1,-12,-33,-29
21:51:19:743287,9,-20,-75,-7,-30,-11,-17,39
21:51:19:751450,9,-20,-75,-7,-30,-11,-17,39
21:51:19:752227,-23,-16,17,12,12,6,19,3
21:51:19:765763,6,-90,-74,-6,14,-14,-20,-8
21:51:19:774001,6,-90,-74,-6,14,-14,-20,-8
21:51:19:774795,9,33,-24,-17,-15,4,13,-22
21:51:19:780772,12,29,19,13,-2,12,46,-35
21:51:19:788303,12,29,19,13,-2,12,46,-35
21:51:19:795805,33,31,11,2,10,12,-22,39
21:51:19:803244,-49,-44,-21,2,-7,-6,4,-17
21:51:19:811437,-49,-44,-21,2,-7,-6,4,-17
21:51:19:812240,6,10,7,6,-4,-10,-26,5
21:51:19:825792,3,36,20,6,6,6,5,10
21:51:19:833955,3,36,20,6,6,6,5,10
21:51:19:834763,-15,-40,-32,-7,-2,-9,6,6
21:51:19:840762,20,4,31,8,8,7,57,19
21:51:19:848295,20,4,31,8,8,7,57,19
21:51:19:863919,22,-7,2,4,-3,-8,7,34
21:51:19:864750,-2,-24,-17,-14,-11,-16,-62,-38
21:51:19:871447,-2,-24,-17,-14,-11,-16,-62,-38
21:51:19:872242,-20,-43,-25,18,13,6,11,5
21:51:19:885790,-8,-24,10,-2,13,13,8,20
21:51:19:894020,-8,-24,10,-2,13,13,8,20
21:51:19:894805,6,21,-69,-43,-32,-30,-16,-14
21:51:19:900805,-7,24,4,5,8,35,10,-14
21:51:19:908270,-7,24,4,5,8,35,10,-14
21:51:19:915803,12,5,109,28,9,-18,-23,-41
21:51:19:923262,0,36,20,-4,-11,-3,-12,54
21:51:19:931456,0,36,20,-4,-11,-3,-12,54
21:51:19:932269,16,30,2,7,17,22,8,-27
21:51:19:945782,-11,-87,-31,-8,-2,5,-25,-28
21:51:19:953960,-11,-87,-31,-8,-2,5,-25,-28
21:51:19:954776,1,20,27,-20,-35,-13,-18,10
21:51:19:960794,-7,-2,30,21,7,-6,23,-6
21:51:19:968314,-7,-2,30,21,7,-6,23,-6
21:51:19:975747,-54,-10,-15,0,5,8,-4,-69
21:51:19:983253,-3,12,37,7,-13,-4,-17,-5
21:51:19:991477,-3,12,37,7,-13,-4,-17,-5
21:51:19:992253,3,35,36,3,19,27,1,-4
21:51:20:5785,4,68,45,8,7,-8,-5,9
21:51:20:13984,4,68,45,8,7,-8,-5,9
21:51:20:14776,15,65,1,-6,8,11,0,32
21:51:20:20742,-7,-44,-35,-15,0,8,4,-19
21:51:20:28296,-7,-44,-35,-15,0,8,4,-19
21:51:20:35753,-43,-53,10,9,-18,-22,-27,-44
21:51:20:43254,-17,-13,-84,-23,22,31,63,20
21:51:20:51508,-17,-13,-84,-23,22,31,63,20
21:51:20:52277,6,-53,-39,-12,-13,-15,14,55
21:51:20:65776,-1,11,-5,11,10,13,-16,-12
21:51:20:73997,-1,11,-5,11,10,13,-16,-12
21:51:20:74784,-18,-18,-46,8,-11,-25,-6,0
21:51:20:80794,12,-11,-32,-6,-5,-11,-32,-12
21:51:20:96488,12,-11,-32,-6,-5,-11,-32,-12
21:51:20:97270,15,-3,15,3,4,5,29,29
21:51:20:103289,12,-4,59,-7,-10,-5,6,30
21:51:20:111499,12,-4,59,-7,-10,-5,6,30
21:51:20:112256,-25,-17,-2,-9,-5,-3,-27,-31
21:51:20:125749,-62,-38,-34,-9,-6,-13,48,2
21:51:20:134030,-62,-38,-34,-9,-6,-13,48,2
21:51:20:134785,14,-87,-35,-10,8,11,43,13
21:51:20:140758,36,-24,6,12,5,5,-8,0
21:51:20:148342,36,-24,6,12,5,5,-8,0
21:51:20:155759,17,-17,46,6,13,7,-67,-20
21:51:20:163271,9,12,13,9,-1,14,-9,25
21:51:20:171521,9,12,13,9,-1,14,-9,25
21:51:20:172288,30,49,40,25,11,7,4,46
21:51:20:185809,6,88,47,-9,-18,-9,-22,11
21:51:20:194009,6,88,47,-9,-18,-9,-22,11
21:51:20:194816,-6,28,-41,-10,-15,3,14,-6
21:51:20:200763,14,0,-29,-17,4,8,37,-10
21:51:20:208370,14,0,-29,-17,4,8,37,-10
21:51:20:215801,2,19,7,7,11,-5,19,-5
21:51:20:223323,16,-25,-46,-38,-24,-18,-20,0
21:51:20:231438,16,-25,-46,-38,-24,-18,-20,0
21:51:20:232264,-24,-43,-15,7,4,-4,-2,6
21:51:20:245756,-14,23,2,15,16,2,-15,-10
21:51:20:254050,-14,23,2,15,16,2,-15,-10
21:51:20:254799,-21,4,-36,-19,-30,-11,-22,-25
21:51:20:268988,0,-1,16,10,-1,-9,22,-7
21:51:20:269810,0,-1,16,10,-1,-9,22,-7
21:51:20:275758,-8,21,-47,-48,-21,-20,-3,-20
21:51:20:283282,12,3,10,-12,-7,1,18,14
21:51:20:290821,12,3,10,-12,-7,1,18,14
21:51:20:298302,13,-13,-32,18,32,31,31,37
21:51:20:305785,-12,-9,-22,-18,-20,-16,8,-3
21:51:20:313988,-12,-9,-22,-18,-20,-16,8,-3
21:51:20:314756,10,22,39,-3,-12,-14,-27,-10
21:51:20:328932,8,45,28,21,13,12,-11,-7
21:51:20:329744,8,45,28,21,13,12,-11,-7
21:51:20:335770,-10,8,-33,2,6,12,30,19
21:51:20:343266,7,-14,12,-4,-11,-23,-32,-16
21:51:20:350792,7,-14,12,-4,-11,-23,-32,-16
21:51:20:358242,23,-23,26,3,-8,-13,21,55
21:51:20:365803,13,50,19,11,18,11,-8,7
21:51:20:373956,13,50,19,11,18,11,-8,7
21:51:20:374778,15,27,33,-6,-22,-24,-35,5
21:51:20:388934,-7,6,10,10,17,19,-5,-25
21:51:20:389775,-7,6,10,10,17,19,-5,-25
21:51:20:395752,-8,-50,-52,-13,-13,-14,-32,-31
21:51:20:403314,13,-28,-42,-6,10,0,-7,21
21:51:20:410821,13,-28,-42,-6,10,0,-7,21
21:51:20:418259,-13,-50,-29,-12,-14,-9,12,-10
21:51:20:425749,-12,7,-27,-26,-9,-2,1,10
21:51:20:433980,-12,7,-27,-26,-9,-2,1,10
21:51:20:434766,-5,11,74,26,15,17,6,-31
21:51:20:448962,-18,-6,7,10,-2,-9,5,10
21:51:20:449785,-18,-6,7,10,-2,-9,5,10
21:51:20:455768,-33,12,2,0,7,9,16,15
21:51:20:463232,27,-61,-39,3,-8,-6,-6,-19
21:51:20:470815,27,-61,-39,3,-8,-6,-6,-19
21:51:20:478252,-5,-5,13,14,20,18,29,19
21:51:20:485780,9,-7,3,6,-12,-18,-9,-12
21:51:20:493987,9,-7,3,6,-12,-18,-9,-12
21:51:20:494794,23,54,30,7,5,8,30,19
21:51:20:508974,-21,28,49,-2,-10,-16,-21,-12
21:51:20:509760,-21,28,49,-2,-10,-16,-21,-12
21:51:20:515774,-7,-73,-38,-14,-1,-11,-65,13
21:51:20:523278,15,4,-16,16,10,13,74,32
21:51:20:530867,15,4,-16,16,10,13,74,32
21:51:20:538243,-14,67,42,1,-10,-5,-9,-35
21:51:20:545762,-20,-56,-19,-5,-7,-1,-22,-4
21:51:20:554046,-20,-56,-19,-5,-7,-1,-22,-4
21:51:20:554818,13,27,8,24,32,27,-5,-5
21:51:20:569000,0,30,3,-9,-18,-5,-1,-10
21:51:20:569812,0,30,3,-9,-18,-5,-1,-10
21:51:20:575800,-2,-18,-2,-5,-8,-12,-1,-29
21:51:20:583285,14,-24,-6,1,10,7,-7,5
21:51:20:590839,14,-24,-6,1,10,7,-7,5
21:51:20:598297,-22,34,25,-5,-7,-7,13,12
21:51:20:605793,-7,75,71,11,12,-5,6,-1
21:51:20:613993,-7,75,71,11,12,-5,6,-1
21:51:20:614765,-10,-14,-52,-32,-15,-7,-34,-31
21:51:20:628963,-7,-46,-11,-7,-15,-9,-8,-3
21:51:20:629750,-7,-46,-11,-7,-15,-9,-8,-3
21:51:20:635789,25,37,41,6,5,-1,11,28
21:51:20:643276,-6,-54,-16,1,4,-4,-31,-33
21:51:20:650794,-6,-54,-16,1,4,-4,-31,-33
21:51:20:658271,-29,-30,5,-11,3,8,35,-9
21:51:20:665802,-4,-29,-59,-23,-4,-5,5,1
21:51:20:673964,-4,-29,-59,-23,-4,-5,5,1
21:51:20:674782,26,-23,34,16,0,-3,-5,24
21:51:20:688961,-9,-40,13,5,5,5,-15,-8
21:51:20:689768,-9,-40,13,5,5,5,-15,-8
21:51:20:695740,42,11,-48,-1,1,0,12,-4
21:51:20:703244,-18,-57,-39,-4,-1,-1,6,2
21:51:20:710821,-18,-57,-39,-4,-1,-1,6,2
21:51:20:718237,-3,13,14,10,-6,-14,-6,-21
21:51:20:725741,4,28,-25,-4,11,-1,-5,8
21:51:20:734031,4,28,-25,-4,11,-1,-5,8
21:51:20:734809,7,-49,-3,-8,-5,-12,-29,25
21:51:20:748965,-4,-39,0,-10,5,9,1,-8
21:51:20:749770,-4,-39,0,-10,5,9,1,-8
21:51:20:755760,2,41,-25,-7,-2,6,-2,-20
21:51:20:763274,-4,2,28,10,0,1,-6,25
21:51:20:770853,-4,2,28,10,0,1,-6,25
21:51:20:778272,13,-11,-38,-47,-30,-16,9,26
21:51:20:785761,6,26,33,23,32,16,0,-1
21:51:20:794026,6,26,33,23,32,16,0,-1
21:51:20:794795,-26,1,23,31,5,6,19,3
21:51:20:808967,-30,-3,1,4,-6,-2,-39,-18
21:51:20:809779,-30,-3,1,4,-6,-2,-39,-18
21:51:20:815760,13,-1,-27,5,3,8,-7,-26
21:51:20:823262,52,46,21,0,3,6,-21,36
21:51:20:830868,52,46,21,0,3,6,-21,36
21:51:20:838299,-5,15,4,7,-16,-15,-18,7
21:51:20:845795,0,12,-19,-12,-16,-2,14,-18
21:51:20:853973,0,12,-19,-12,-16,-2,14,-18
21:51:20:854780,-7,0,16,4,16,16,38,31
21:51:20:868998,21,35,5,5,-13,-8,41,2
21:51:20:869834,21,35,5,5,-13,-8,41,2
21:51:20:875779,-17,-17,17,13,1,-8,-17,4
21:51:20:883278,-24,-66,1,-19,-3,5,-25,-11
21:51:20:890841,-24,-66,1,-19,-3,5,-25,-11
21:51:20:898330,-9,11,38,3,5,0,-52,-11
21:51:20:905842,-14,21,23,6,5,9,33,22
21:51:20:913959,-14,21,23,6,5,9,33,22
21:51:20:914769,6,-18,-73,-15,-7,-9,-35,-17
21:51:20:928965,16,-12,-17,1,5,4,22,-47
21:51:20:929753,16,-12,-17,1,5,4,22,-47
21:51:20:935786,18,43,26,5,5,1,-1,2
21:51:20:943289,-6,19,-10,-6,-11,-16,-23,-15
21:51:20:950815,-6,19,-10,-6,-11,-16,-23,-15
21:51:20:958238,11,-5,-5,-2,9,20,33,-7
21:51:20:965796,-4,16,-34,-11,-6,-7,-8,25
21:51:20:973956,-4,16,-34,-11,-6,-7,-8,25
21:51:20:974779,-51,-59,-32,5,6,-7,-27,-18
21:51:20:988931,29,108,39,8,-10,-6,34,31
21:51:20:989766,29,108,39,8,-10,-6,34,31
21:51:20:995992,-1,-12,5,-13,-13,-6,23,3
21:51:21:3249,23,81,23,15,8,16,21,4
21:51:21:10829,23,81,23,15,8,16,21,4
21:51:21:18273,-32,-19,2,-10,0,4,-2,0
21:51:21:25749,10,-25,32,-14,-8,-4,-17,5
21:51:21:34000,10,-25,32,-14,-8,-4,-17,5
21:51:21:34799,-5,-14,-1,0,1,-14,-8,-12
21:51:21:48738,25,-26,-58,-9,-11,-13,19,-23
21:51:21:56474,25,-26,-58,-9,-11,-13,19,-23
21:51:21:57284,-24,-19,-50,-16,-5,-2,15,-27
21:51:21:63256,-19,-56,-12,-6,-4,-5,-11,21
21:51:21:70840,-19,-56,-12,-6,-4,-5,-11,21
21:51:21:78291,31,54,62,24,12,11,6,33
21:51:21:85780,-13,33,-10,11,10,8,14,-22
21:51:21:94034,-13,33,-10,11,10,8,14,-22
21:51:21:94788,-21,15,31,7,-1,12,36,4
21:51:21:108953,-8,15,51,-1,-9,-18,-43,-30
21:51:21:109768,-8,15,51,-1,-9,-18,-43,-30
21:51:21:115764,6,-9,-4,-15,-19,-8,30,28
21:51:21:123303,-43,-16,-36,-9,2,13,37,24
21:51:21:130828,-43,-16,-36,-9,2,13,37,24
21:51:21:138294,11,-16,-16,-5,1,-10,-14,0
21:51:21:145777,-22,-21,16,6,7,-9,-19,-8
21:51:21:153947,-22,-21,16,6,7,-9,-19,-8
21:51:21:154777,7,26,-39,-22,1,3,-12,-14
21:51:21:169033,-13,-63,-14,3,12,-3,-18,30
21:51:21:169831,-13,-63,-14,3,12,-3,-18,30
21:51:21:175817,0,-39,11,25,2,8,4,5
21:51:21:183275,-45,20,5,1,-8,2,-11,-33
21:51:21:190802,-45,20,5,1,-8,2,-11,-33
21:51:21:198294,17,11,18,41,15,7,1,0
21:51:21:205814,24,-12,-11,-1,-9,8,51,19
21:51:21:213302,24,-12,-11,-1,-9,8,51,19
21:51:21:220765,-9,-11,-38,-3,4,-6,-17,1
21:51:21:228946,10,12,7,-6,-15,-17,-6,20
21:51:21:229806,10,12,7,-6,-15,-17,-6,20
21:51:21:235770,27,2,49,1,1,12,7,16
21:51:21:251466,-11,-35,-25,-21,-6,5,-2,-26
21:51:21:252270,-11,-35,-25,-21,-6,5,-2,-26
21:51:21:258234,-5,11,37,2,-9,-7,2,-21
21:51:21:265743,-14,40,20,2,9,1,-24,1
21:51:21:273334,-14,40,20,2,9,1,-24,1
21:51:21:280732,-15,-45,-23,-9,-10,-15,-26,-35
21:51:21:288957,2,7,18,15,13,3,-20,-1
21:51:21:289788,2,7,18,15,13,3,-20,-1
21:51:21:295794,1,14,-21,-29,-18,-5,-12,-6
21:51:21:311460,5,-6,-32,-8,-5,-8,11,6
21:51:21:312271,5,-6,-32,-8,-5,-8,11,6
21:51:21:318235,-7,-36,18,15,1,-23,-25,-8
21:51:21:325730,36,-19,30,-7,4,5,33,5
21:51:21:333319,36,-19,30,-7,4,5,33,5
21:51:21:340769,-1,-23,-34,-18,-14,-13,2,4
21:51:21:348980,-41,-12,-11,9,-3,14,-15,-45
21:51:21:349791,-41,-12,-11,9,-3,14,-15,-45
21:51:21:355749,13,85,4,-5,-8,-12,-29,-13
21:51:21:371474,22,24,19,30,32,23,-30,-13
21:51:21:372308,22,24,19,30,32,23,-30,-13
21:51:21:378320,21,-5,5,-3,28,31,38,-10
21:51:21:385796,49,26,-52,-35,-49,-40,-35,30
21:51:21:393355,49,26,-52,-35,-49,-40,-35,30
21:51:21:400759,8,19,-4,-20,12,10,-6,1
21:51:21:408922,-7,24,16,4,4,7,12,6
21:51:21:409781,-7,24,16,4,4,7,12,6
21:51:21:415792,9,-10,3,9,-9,13,2,-20
21:51:21:431487,10,8,-6,15,22,-2,-21,4
21:51:21:432341,10,8,-6,15,22,-2,-21,4
21:51:21:438302,-8,-7,9,-6,-21,-19,-33,-39
21:51:21:445805,13,14,25,11,15,18,24,14
21:51:21:453336,13,14,25,11,15,18,24,14
21:51:21:460823,-13,1,-37,-27,-22,-16,-4,30
21:51:21:468966,-7,-64,-48,-11,11,7,-6,-25
21:51:21:469769,-7,-64,-48,-11,11,7,-6,-25
21:51:21:475744,22,-26,-10,-8,-7,-7,9,21
21:51:21:491443,-7,-8,-12,-10,-20,-13,-13,20
21:51:21:492260,-7,-8,-12,-10,-20,-13,-13,20
21:51:21:498300,-5,-50,-46,-16,1,12,0,-39
21:51:21:505814,4,-31,-22,-2,7,-6,78,0
21:51:21:513335,4,-31,-22,-2,7,-6,78,0
21:51:21:520752,-29,8,15,-4,-8,-22,-3,7
21:51:21:528945,-48,-16,0,-6,-3,-5,-26,-20
21:51:21:529792,-48,-16,0,-6,-3,-5,-26,-20
21:51:21:535762,22,-57,-54,4,7,2,23,6
21:51:21:551456,27,68,36,18,-5,-16,-26,-13
21:51:21:552246,27,68,36,18,-5,-16,-26,-13
21:51:21:558261,31,25,-34,-13,-23,-31,-51,-3
21:51:21:565754,29,29,26,12,17,20,-7,-15
21:51:21:573353,29,29,26,12,17,20,-7,-15
21:51:21:580793,-14,71,72,15,23,28,15,10
21:51:21:588972,-38,-59,-12,-21,-40,-18,-2,0
21:51:21:589772,-38,-59,-12,-21,-40,-18,-2,0
21:51:21:595778,-14,-10,33,4,8,21,22,-35
21:51:21:611459,-57,-32,-21,-12,-3,-23,-40,-25
21:51:21:612295,-57,-32,-21,-12,-3,-23,-40,-25
21:51:21:618237,-22,29,34,6,-9,-10,-17,-2
21:51:21:625762,6,15,63,20,13,22,-17,13
21:51:21:633354,6,15,63,20,13,22,-17,13
21:51:21:640761,19,20,29,29,8,6,-27,20
21:51:21:648984,-32,32,20,-4,-17,-13,12,0
21:51:21:649810,-32,32,20,-4,-17,-13,12,0
21:51:21:655787,7,-16,-28,-3,-3,-3,16,22
21:51:21:671500,10,-32,-23,9,19,7,23,1
21:51:21:672277,10,-32,-23,9,19,7,23,1
21:51:21:678264,7,-46,-13,-21,0,2,4,-2
21:51:21:685830,2,-31,-32,-11,-10,-3,13,20
21:51:21:693361,2,-31,-32,-11,-10,-3,13,20
21:51:21:709689,2,-27,-67,-17,0,-7,-26,-22
21:51:21:710437,33,19,40,1,-2,10,8,6
21:51:21:711247,33,19,40,1,-2,10,8,6
21:51:21:715764,-8,-11,7,0,0,-4,5,8
21:51:21:731505,12,31,-55,-24,-2,-1,-19,-5
21:51:21:732298,12,31,-55,-24,-2,-1,-19,-5
21:51:21:738269,-20,6,34,27,23,13,-2,-21
21:51:21:745771,4,-23,10,-9,-15,-13,-30,-15
21:51:21:761481,4,-23,10,-9,-15,-13,-30,-15
21:51:21:762275,-10,-49,-28,-14,-19,-18,-1,13
21:51:21:769009,8,28,-3,-2,14,11,10,-15
21:51:21:769802,8,28,-3,-2,14,11,10,-15
21:51:21:775770,-38,19,21,33,3,11,32,6
21:51:21:791471,37,42,12,11,11,3,31,31
21:51:21:792290,37,42,12,11,11,3,31,31
21:51:21:798287,-26,4,25,-2,-17,-22,13,-3
21:51:21:805766,-40,-44,13,-14,-18,2,-19,-31
21:51:21:813361,-40,-44,13,-14,-18,2,-19,-31
21:51:21:820780,3,8,10,4,12,20,29,19
21:51:21:828991,-17,-55,7,-5,-7,-11,-24,-23
21:51:21:829828,-17,-55,7,-5,-7,-11,-24,-23
21:51:21:835769,20,16,19,0,-4,-7,-13,9
21:51:21:851475,-53,-55,8,-7,-8,-5,5,15
21:51:21:852320,-53,-55,8,-7,-8,-5,5,15
21:51:21:858287,12,109,16,-2,-8,-4,-8,-9
21:51:21:865794,0,-69,-47,-18,-2,8,35,43
21:51:21:881483,0,-69,-47,-18,-2,8,35,43
21:51:21:882277,-53,-45,-5,-22,-1,2,27,32
21:51:21:888957,-1,24,-23,2,4,9,-5,-22
21:51:21:889793,-1,24,-23,2,4,9,-5,-22
21:51:21:895771,41,-45,-64,-11,12,-1,3,-7
21:51:21:911477,-12,-18,-5,20,6,6,63,12
21:51:21:912283,-12,-18,-5,20,6,6,63,12
21:51:21:918362,21,-21,-27,3,-6,-5,-23,-17
21:51:21:925794,15,59,25,-8,-22,-35,-21,-7
21:51:21:933343,15,59,25,-8,-22,-35,-21,-7
21:51:21:940782,6,-13,-6,4,16,18,3,2
21:51:21:948936,11,0,8,5,-3,-14,-19,-46
21:51:21:949749,11,0,8,5,-3,-14,-19,-46
21:51:21:955766,4,23,31,0,15,18,27,15
21:51:21:971491,5,27,-34,-30,-17,2,-8,-12
21:51:21:972287,5,27,-34,-30,-17,2,-8,-12
21:51:21:978298,18,15,20,20,-7,-6,-9,-11
21:51:21:985815,28,42,59,42,39,8,-9,-14
21:51:21:993319,28,42,59,42,39,8,-9,-14
21:51:22:799,1,84,12,-14,-15,-5,8,16
21:51:22:8983,-7,-36,-62,-29,-12,7,6,19
21:51:22:9783,-7,-36,-62,-29,-12,7,6,19
21:51:22:15753,-14,-15,40,11,3,-1,22,26
21:51:22:31462,-17,3,33,13,29,32,2,-5
21:51:22:32290,-17,3,33,13,29,32,2,-5
21:51:22:38293,-21,18,3,16,-1,-25,-33,-43
21:51:22:45802,0,-80,-74,-10,-21,-12,-16,2
21:51:22:53312,0,-80,-74,-10,-21,-12,-16,2
21:51:22:60741,6,-15,11,-9,-15,3,17,7
21:51:22:68971,27,-14,-12,-12,11,16,-6,-13
21:51:22:69801,27,-14,-12,-12,11,16,-6,-13
21:51:22:75750,-26,-37,-15,-9,-4,-23,-43,-34
21:51:22:91479,-26,-37,-15,-9,-4,-23,-43,-34
21:51:22:92251,-10,40,64,27,-9,-9,-3,19
21:51:22:98252,-57,37,-37,-7,2,3,9,-2
21:51:22:113982,-57,37,-37,-7,2,3,9,-2
21:51:22:114784,16,27,39,21,3,-1,22,-12
21:51:22:120805,-6,54,-1,9,19,29,58,31
21:51:22:129022,-6,54,-1,9,19,29,58,31
21:51:22:129782,-17,-4,-50,-9,-10,-12,-4,-8
21:51:22:135756,0,12,-3,-19,-18,-6,-18,1
21:51:22:151491,0,12,-3,-19,-18,-6,-18,1
21:51:22:152286,-13,19,41,10,14,14,7,1
21:51:22:158329,52,3,10,13,3,-3,13,3
21:51:22:173995,52,3,10,13,3,-3,13,3
21:51:22:174721,-18,-15,45,3,-17,-31,-34,-2
21:51:22:180765,-12,-64,-23,10,-8,-14,10,-29
21:51:22:188965,-12,-64,-23,10,-8,-14,10,-29
21:51:22:189778,5,-38,-13,-20,-18,-9,-6,-2
21:51:22:203278,-31,-46,16,9,1,-9,-58,18
21:51:22:211452,-31,-46,16,9,1,-9,-58,18
21:51:22:212241,3,14,1,-9,-13,-7,14,29
21:51:22:218307,15,-45,-26,-14,8,23,30,-26
21:51:22:233999,15,-45,-26,-14,8,23,30,-26
21:51:22:234787,-23,-6,15,-10,-21,-18,-38,-9
21:51:22:240783,5,0,-20,-3,16,12,-24,-15
21:51:22:248992,5,0,-20,-3,16,12,-24,-15
21:51:22:249748,-32,0,8,35,19,13,34,14
21:51:22:263302,12,-70,-53,-39,-12,9,0,19
21:51:22:271516,12,-70,-53,-39,-12,9,0,19
21:51:22:272318,10,17,-27,-3,-10,3,26,33
21:51:22:278277,10,-2,10,32,12,14,10,27
21:51:22:294023,10,-2,10,32,12,14,10,27
21:51:22:294786,2,14,-12,-15,-8,-13,-34,-20
21:51:22:300791,61,78,7,-21,-8,4,25,31
21:51:22:309659,61,78,7,-21,-8,4,25,31
21:51:22:310449,-5,-33,-8,-19,-5,-9,5,-12
21:51:22:323274,13,-10,23,24,12,-3,1,-8
21:51:22:331508,13,-10,23,24,12,-3,1,-8
21:51:22:332318,5,52,17,11,6,0,-12,25
21:51:22:338337,-54,27,7,-15,-16,-8,-18,-18
21:51:22:353999,-54,27,7,-15,-16,-8,-18,-18
21:51:22:354838,11,-23,-19,3,6,-1,-16,-16
21:51:22:360790,-98,-40,27,15,10,5,-27,-54
21:51:22:369054,-98,-40,27,15,10,5,-27,-54
21:51:22:369820,25,49,-4,1,3,14,1,13
21:51:22:383247,25,20,26,2,-4,-29,-9,35
21:51:22:391474,25,20,26,2,-4,-29,-9,35
21:51:22:392299,10,23,-76,-26,6,24,33,29
21:51:22:398264,6,-9,-21,-23,-36,-32,-23,-68
21:51:22:414011,6,-9,-21,-23,-36,-32,-23,-68
21:51:22:414802,-9,-36,-20,-4,6,0,0,12
21:51:22:420750,44,-6,12,12,20,20,39,59
21:51:22:429022,44,-6,12,12,20,20,39,59
21:51:22:429814,27,-11,3,-10,-13,-3,33,-18
21:51:22:443244,-6,-26,17,16,-2,-2,-21,-19
21:51:22:451484,-6,-26,17,16,-2,-2,-21,-19
21:51:22:452264,-22,43,13,-16,-2,-6,-33,-30
21:51:22:458242,7,4,3,-3,8,6,-2,-12
21:51:22:473988,7,4,3,-3,8,6,-2,-12
21:51:22:474764,11,-37,53,39,27,25,-27,-28
21:51:22:480735,4,41,30,-2,-3,0,-10,16
21:51:22:488989,4,41,30,-2,-3,0,-10,16
21:51:22:489799,-29,-30,-75,-37,-32,-28,-22,-50
21:51:22:503245,31,9,-26,12,5,6,-14,50
21:51:22:511501,31,9,-26,12,5,6,-14,50
21:51:22:512264,28,-17,1,22,18,2,-5,0
21:51:22:518244,-23,-55,-38,-10,-22,-15,-13,-32
21:51:22:533952,-23,-55,-38,-10,-22,-15,-13,-32
21:51:22:534757,-35,-21,55,-9,7,2,30,15
21:51:22:540739,33,75,-9,-10,-2,3,48,15
21:51:22:548973,33,75,-9,-10,-2,3,48,15
21:51:22:549778,-15,-46,-30,2,-13,-15,18,28
21:51:22:563316,-8,-13,-20,-5,16,-3,1,-14
21:51:22:571494,-8,-13,-20,-5,16,-3,1,-14
21:51:22:572254,-10,52,-3,14,21,19,24,-25
21:51:22:578286,-9,-15,7,-10,-17,-17,-24,-18
21:51:22:593965,-9,-15,7,-10,-17,-17,-24,-18
21:51:22:594770,-12,-62,50,18,19,8,-10,33
21:51:22:600772,-27,-5,4,13,1,-2,6,-48
21:51:22:608998,-27,-5,4,13,1,-2,6,-48
21:51:22:609767,19,-11,-33,-51,-24,-12,28,48
21:51:22:623311,13,9,23,12,21,19,34,16
21:51:22:631466,13,9,23,12,21,19,34,16
21:51:22:632286,-36,53,74,21,-7,0,-6,-29
21:51:22:638226,-12,-55,-42,-7,1,15,-25,12
21:51:22:653972,-12,-55,-42,-7,1,15,-25,12
21:51:22:654762,35,-19,10,0,-2,0,-13,-5
21:51:22:660815,10,57,-11,-11,8,16,15,-48
21:51:22:668973,10,57,-11,-11,8,16,15,-48
21:51:22:669780,10,-97,-55,17,3,1,-19,-11
21:51:22:683289,4,-16,-3,-5,-11,-12,16,23
21:51:22:691468,4,-16,-3,-5,-11,-12,16,23
21:51:22:692253,-10,54,58,4,-8,-6,-24,-38
21:51:22:698278,-15,8,9,-29,-17,-25,-12,0
21:51:22:714028,-15,8,9,-29,-17,-25,-12,0
21:51:22:714831,17,70,-8,-2,-3,13,35,8
21:51:22:720779,22,10,17,-18,1,2,-5,-10
21:51:22:728988,22,10,17,-18,1,2,-5,-10
21:51:22:729773,3,-26,-59,-5,15,10,-5,23
21:51:22:743336,-13,0,51,9,-27,-19,9,13
21:51:22:751514,-13,0,51,9,-27,-19,9,13
21:51:22:752304,33,9,-31,9,11,-1,0,20
21:51:22:758274,-11,7,-2,-11,-10,-10,-33,-12
21:51:22:773982,-11,7,-2,-11,-10,-10,-33,-12
21:51:22:774800,-13,40,20,-17,-3,-8,-21,-25
21:51:22:780781,10,23,17,-5,4,7,-40,8
21:51:22:788971,10,23,17,-5,4,7,-40,8
21:51:22:789742,50,42,13,12,11,-14,-43,-5
21:51:22:803257,-5,-34,-19,6,8,5,13,14
21:51:22:811508,-5,-34,-19,6,8,5,13,14
21:51:22:812285,0,-35,-26,-24,-4,3,-13,-3
21:51:22:818326,-9,7,-7,5,-2,-14,-5,-13
21:51:22:834010,-9,7,-7,5,-2,-14,-5,-13
21:51:22:834804,5,-28,-28,3,-15,7,54,-11
21:51:22:840769,-20,-8,-26,-9,13,18,49,25
21:51:22:849037,-20,-8,-26,-9,13,18,49,25
21:51:22:849810,-9,12,-3,2,-18,-14,-29,-28
21:51:22:863253,-39,-23,21,37,21,16,-44,-26
21:51:22:871495,-39,-23,21,37,21,16,-44,-26
21:51:22:872290,11,-28,-13,-15,-23,-32,-41,-4
21:51:22:878316,9,-45,18,8,-4,7,26,50
21:51:22:893990,9,-45,18,8,-4,7,26,50
21:51:22:894780,-31,-30,12,26,9,5,7,-6
21:51:22:900766,-8,-1,24,-6,-10,-5,-47,-23
21:51:22:908997,-8,-1,24,-6,-10,-5,-47,-23
21:51:22:909856,-12,-43,-26,24,18,7,51,20
21:51:22:923251,2,-49,-22,21,19,1,9,-10
21:51:22:931480,2,-49,-22,21,19,1,9,-10
21:51:22:932271,-15,31,1,-26,-13,0,1,14
21:51:22:938252,34,-20,-54,-25,-25,-22,-3,-2
21:51:22:953987,34,-20,-54,-25,-25,-22,-3,-2
21:51:22:954780,2,24,4,-8,20,14,1,-5
21:51:22:960753,-9,22,31,8,2,-8,29,57
21:51:22:969006,-9,22,31,8,2,-8,29,57
21:51:22:969772,-23,-33,-4,-2,-26,-38,-47,-22
21:51:22:983266,22,30,7,25,32,26,64,-38
21:51:22:991499,22,30,7,25,32,26,64,-38
21:51:22:992287,0,120,53,14,7,17,41,21
21:51:22:998283,-5,-26,-60,-21,-34,-13,-14,3
21:51:23:13964,-5,-26,-60,-21,-34,-13,-14,3
21:51:23:14778,-6,-18,-24,-1,23,5,27,-28
21:51:23:20776,13,21,9,7,-13,-12,-9,1
21:51:23:29006,13,21,9,7,-13,-12,-9,1
21:51:23:29795,-13,-46,10,11,3,18,-28,-29
21:51:23:43334,-6,-50,-14,-2,4,3,21,34
21:51:23:52572,-6,-50,-14,-2,4,3,21,34
21:51:23:58948,-67,14,60,13,-26,-32,11,54
21:51:23:59705,31,39,31,13,20,22,14,20
21:51:23:73979,31,39,31,13,20,22,14,20
21:51:23:74755,31,2,17,-2,-4,2,-12,9
21:51:23:80796,3,62,40,-3,4,12,-18,-4
21:51:23:88322,3,62,40,-3,4,12,-18,-4
21:51:23:95767,-17,-4,2,0,0,-24,-54,4
21:51:23:103239,45,13,-4,-4,-9,-9,-4,-26
21:51:23:111484,45,13,-4,-4,-9,-9,-4,-26
21:51:23:112282,-29,-9,-17,-3,5,11,-15,-8
21:51:23:134639,-23,-84,-70,-19,1,-11,-28,8
21:51:23:135413,-23,-84,-70,-19,1,-11,-28,8
21:51:23:136218,48,60,45,-17,-19,-6,13,8
21:51:23:140787,-9,20,42,-3,5,1,0,-4
21:51:23:148344,-9,20,42,-3,5,1,0,-4
21:51:23:155742,47,-26,-1,17,13,2,-2,-2
21:51:23:163224,-8,17,2,9,-10,7,23,4
21:51:23:171507,-8,17,2,9,-10,7,23,4
21:51:23:172291,21,21,0,-16,-3,-9,-11,11
21:51:23:194701,-32,-68,-75,-36,-19,-18,-31,-3
21:51:23:195438,-32,-68,-75,-36,-19,-18,-31,-3
21:51:23:196216,32,0,12,28,21,21,16,-15
21:51:23:200804,-10,57,25,-7,14,22,25,6
21:51:23:208316,-10,57,25,-7,14,22,25,6
21:51:23:215741,-41,-48,-17,-13,-9,-6,25,24
21:51:23:223239,-38,-24,-39,-24,-16,-11,-12,-29
21:51:23:231458,-38,-24,-39,-24,-16,-11,-12,-29
21:51:23:232267,3,-3,-56,-38,-14,3,9,29
21:51:23:245779,1,-41,34,1,-28,-27,-10,8
21:51:23:254008,1,-41,34,1,-28,-27,-10,8
21:51:23:254774,-7,-31,-22,25,25,20,3,-34
21:51:23:260767,22,-70,-81,-1,-2,-18,-19,-46
21:51:23:268306,22,-70,-81,-1,-2,-18,-19,-46
21:51:23:275759,-2,30,3,-15,-13,1,17,-14
21:51:23:283258,-8,-45,-40,-13,16,11,15,7
21:51:23:291497,-8,-45,-40,-13,16,11,15,7
21:51:23:292266,-12,45,14,-3,0,-1,17,10
21:51:23:305789,31,52,93,6,-8,6,-49,-9
21:51:23:313993,31,52,93,6,-8,6,-49,-9
21:51:23:314808,-73,-82,-11,5,14,24,-38,-19
21:51:23:320772,-14,26,-6,-17,-1,-18,-16,-11
21:51:23:336484,-14,26,-6,-17,-1,-18,-16,-11
21:51:23:337259,54,20,36,-1,-14,-27,-35,-34
21:51:23:343252,24,-61,-6,36,28,35,85,62
21:51:23:351505,24,-61,-6,36,28,35,85,62
21:51:23:352281,8,-21,-14,-17,-12,-1,40,9
21:51:23:365803,-51,-19,-24,-20,-20,-20,-12,-52
21:51:23:373994,-51,-19,-24,-20,-20,-20,-12,-52
21:51:23:374746,1,-2,10,2,-9,9,39,38
21:51:23:380724,-34,55,28,21,31,5,-1,23
21:51:23:388329,-34,55,28,21,31,5,-1,23
21:51:23:395776,5,38,44,13,-18,-16,13,-1
21:51:23:403261,56,22,7,16,24,35,-26,4
21:51:23:411489,56,22,7,16,24,35,-26,4
21:51:23:412272,-5,-21,-60,-16,-1,-8,-21,-8
21:51:23:425753,13,-23,-27,-41,-43,-21,3,17
21:51:23:434035,13,-23,-27,-41,-43,-21,3,17
21:51:23:434809,-12,-68,-29,-9,9,15,-7,0
21:51:23:440747,-22,-17,-24,10,-1,-2,-14,24
21:51:23:448345,-22,-17,-24,10,-1,-2,-14,24
21:51:23:455746,-17,-38,-42,-21,-16,-29,-48,-24
21:51:23:463284,5,8,44,15,0,2,-2,3
21:51:23:471474,5,8,44,15,0,2,-2,3
21:51:23:472301,-12,50,7,8,18,5,-18,-5
21:51:23:485808,0,42,29,-10,-18,0,23,-5
21:51:23:494034,0,42,29,-10,-18,0,23,-5
21:51:23:494834,7,45,2,13,10,-3,-21,5
21:51:23:500769,-12,47,-2,-25,-27,-38,-50,-21
21:51:23:508357,-12,47,-2,-25,-27,-38,-50,-21
21:51:23:515805,43,0,12,2,-9,-12,18,11
21:51:23:523269,-12,36,47,32,20,13,-4,-10
21:51:23:531448,-12,36,47,32,20,13,-4,-10
21:51:23:532265,9,-22,16,0,14,12,5,22
21:51:23:545762,12,-59,-21,-3,5,16,15,-34
21:51:23:554004,12,-59,-21,-3,5,16,15,-34
21:51:23:554809,-13,-31,-8,-5,-28,-21,-2,27
21:51:23:560781,-20,-1,21,2,12,8,-2,-5
21:51:23:568288,-20,-1,21,2,12,8,-2,-5
21:51:23:575813,6,-21,-52,-36,-32,-5,8,-20
21:51:23:583302,-21,-33,-38,12,43,18,6,9
21:51:23:591484,-21,-33,-38,12,43,18,6,9
21:51:23:592258,-4,50,25,7,9,0,-11,-3
21:51:23:605798,51,7,19,2,-42,-43,-77,-37
21:51:23:613981,51,7,19,2,-42,-43,-77,-37
21:51:23:614756,-88,-65,4,6,23,27,39,-20
21:51:23:620809,17,42,-37,-14,2,-4,9,28
21:51:23:628323,17,42,-37,-14,2,-4,9,28
21:51:23:635739,21,68,36,12,15,4,4,-16
21:51:23:643247,0,3,35,21,0,4,25,-8
21:51:23:651478,0,3,35,21,0,4,25,-8
21:51:23:652299,33,4,-6,-4,-10,-9,-4,24
21:51:23:665819,-6,-29,-34,-3,0,0,18,6
21:51:23:674673,-6,-29,-34,-3,0,0,18,6
21:51:23:675502,-3,-47,-8,22,19,8,53,0
21:51:23:680739,-59,-15,9,39,-10,1,31,9
21:51:23:688321,-59,-15,9,39,-10,1,31,9
21:51:23:695781,-1,-41,-79,-26,5,12,-5,7
21:51:23:703270,14,18,9,7,9,14,-21,20
21:51:23:711491,14,18,9,7,9,14,-21,20
21:51:23:712263,36,33,17,-2,-39,-55,-73,43
21:51:23:725739,12,16,36,4,32,25,-21,-7
21:51:23:734009,12,16,36,4,32,25,-21,-7
21:51:23:734783,-38,-73,26,4,-12,4,21,-14
21:51:23:740763,10,-14,14,-18,4,6,0,-6
21:51:23:748353,10,-14,14,-18,4,6,0,-6
21:51:23:755775,6,84,81,4,10,-8,-5,22
21:51:23:763277,-10,-8,7,-21,-28,-1,29,-33
21:51:23:771508,-10,-8,7,-21,-28,-1,29,-33
21:51:23:772304,-35,-16,-20,7,4,-5,-1,7
21:51:23:794631,10,-37,-102,-23,-14,-1,72,32
21:51:23:795441,10,-37,-102,-23,-14,-1,72,32
21:51:23:796255,27,-14,-9,-7,-14,-8,-52,-34
21:51:23:800781,-19,-13,23,6,4,-21,-48,3
21:51:23:808306,-19,-13,23,6,4,-21,-48,3
21:51:23:815801,-7,-8,-43,-9,-5,5,38,-5
21:51:23:823293,4,66,-4,-1,-11,-16,2,-12
21:51:23:831497,4,66,-4,-1,-11,-16,2,-12
21:51:23:832321,36,92,42,-37,39,43,-6,-5
21:51:23:845767,-10,69,-9,-29,-22,-14,-35,-2
21:51:23:854039,-10,69,-9,-29,-22,-14,-35,-2
21:51:23:854777,51,22,59,38,-4,-4,-35,8
21:51:23:860748,-15,-56,-18,4,12,1,-26,28
21:51:23:868357,-15,-56,-18,4,12,1,-26,28
21:51:23:875780,-45,-79,-20,1,-1,6,-9,37
21:51:23:892140,14,-44,15,-5,-17,-6,-16,-21
21:51:23:892952,14,-44,15,-5,-17,-6,-16,-21
21:51:23:893750,-15,-54,-14,6,-11,-25,0,-28
21:51:23:905736,32,13,37,28,25,-2,-43,-23
21:51:23:914021,32,13,37,28,25,-2,-43,-23
21:51:23:914783,-26,-72,-66,-19,-26,-6,26,-74
21:51:23:920734,20,36,52,-16,-26,-15,46,22
21:51:23:928313,20,36,52,-16,-26,-15,46,22
21:51:23:935781,30,12,-71,-1,5,14,10,44
21:51:23:943266,-33,-23,-49,19,11,28,17,-30
21:51:23:958970,-33,-23,-49,19,11,28,17,-30
21:51:23:959791,-14,-20,-7,14,-4,3,43,11
21:51:23:965769,-1,-33,-9,-6,7,5,35,11
21:51:23:973990,-1,-33,-9,-6,7,5,35,11
21:51:23:974790,-10,84,0,-18,15,12,-11,-13
21:51:23:980788,-16,-22,-9,-18,2,19,25,24
21:51:23:988349,-16,-22,-9,-18,2,19,25,24
21:51:23:995766,5,21,27,3,7,-10,-15,-14
21:51:24:3289,-25,81,52,12,-1,-11,60,-8
21:51:24:11459,-25,81,52,12,-1,-11,60,-8
21:51:24:12277,-5,13,44,31,30,14,-39,-3
21:51:24:25789,-18,6,45,19,-9,-9,2,-29
21:51:24:34015,-18,6,45,19,-9,-9,2,-29
21:51:24:34788,21,-14,2,-17,-14,-11,4,-2
21:51:24:49021,5,4,52,22,13,5,-23,0
21:51:24:49808,5,4,52,22,13,5,-23,0
21:51:24:63936,-54,-67,-36,-6,-26,-19,-1,-86
21:51:24:64696,-5,41,-24,-17,-19,-24,7,0
21:51:24:70818,-5,41,-24,-17,-19,-24,7,0
21:51:24:78286,34,11,27,22,29,23,12,25
21:51:24:85787,-1,-88,-85,-13,-4,-11,-30,-22
21:51:24:94042,-1,-88,-85,-13,-4,-11,-30,-22
21:51:24:94780,11,-21,-24,-13,-11,-3,3,19
21:51:24:108992,27,-21,-40,-9,9,17,-29,19
21:51:24:109815,27,-21,-40,-9,9,17,-29,19
21:51:24:115776,-11,-37,-16,-13,1,3,-19,-4
21:51:24:123283,0,-4,13,9,-20,-11,75,46
21:51:24:130860,0,-4,13,9,-20,-11,75,46
21:51:24:138295,-15,29,-28,-10,-25,-9,26,8
21:51:24:145784,11,70,14,19,14,5,-1,4
21:51:24:153968,11,70,14,19,14,5,-1,4
21:51:24:154756,-15,-59,-76,-51,-19,-11,-10,12
21:51:24:169399,3,-34,32,7,5,-3,-25,16
21:51:24:170256,3,-34,32,7,5,-3,-25,16
21:51:24:175765,30,19,33,16,-1,2,-28,-19
21:51:24:183292,-41,-66,15,-2,18,20,-5,-5
21:51:24:190801,-41,-66,15,-2,18,20,-5,-5
21:51:24:198309,6,101,-31,-17,-8,-4,9,-3
21:51:24:205805,-16,0,17,6,-3,-16,-38,-35
21:51:24:213986,-16,0,17,6,-3,-16,-38,-35
21:51:24:214774,-9,-7,2,20,29,4,31,-7
21:51:24:228995,-38,-1,-42,-28,-22,-22,-26,-37
21:51:24:229767,-38,-1,-42,-28,-22,-22,-26,-37
21:51:24:235798,10,-15,95,10,-1,4,-1,12
21:51:24:243297,39,10,18,9,3,3,55,6
21:51:24:250785,39,10,18,9,3,3,55,6
21:51:24:258243,12,21,-10,16,31,16,25,5
21:51:24:265748,-7,-89,-41,-41,-27,-16,-47,-4
21:51:24:273962,-7,-89,-41,-41,-27,-16,-47,-4
21:51:24:274772,21,-25,-15,-28,-19,-6,-29,6
21:51:24:288955,-3,-10,-21,10,2,5,28,-8
21:51:24:289778,-3,-10,-21,10,2,5,28,-8
21:51:24:295769,-37,-44,-13,-16,-20,-22,-27,-29
21:51:24:303248,13,10,-70,-6,18,10,-36,-19
21:51:24:311099,13,10,-70,-6,18,10,-36,-19
21:51:24:318250,26,11,27,19,2,25,63,19
21:51:24:325772,-11,-36,-55,-10,1,2,-30,1
21:51:24:334038,-11,-36,-55,-10,1,2,-30,1
21:51:24:334792,-10,1,27,5,-17,-20,-5,8
21:51:24:348981,-12,24,55,-1,16,13,-12,10
21:51:24:349814,-12,24,55,-1,16,13,-12,10
21:51:24:355748,-19,26,42,10,-7,-15,24,19
21:51:24:363251,-23,-40,-31,-25,-31,-22,-46,-16
21:51:24:370812,-23,-40,-31,-25,-31,-22,-46,-16
21:51:24:378285,17,49,49,15,31,5,-30,7
21:51:24:385792,61,62,26,6,-17,-8,-15,7
21:51:24:394029,61,62,26,6,-17,-8,-15,7
21:51:24:394811,-33,-99,-102,-20,-4,-17,-7,1
21:51:24:408971,0,-12,-6,0,4,11,-4,-8
21:51:24:409838,0,-12,-6,0,4,11,-4,-8
21:51:24:415773,25,16,-21,6,2,5,-5,24
21:51:24:423303,-36,-6,-30,16,26,23,27,-11
21:51:24:430884,-36,-6,-30,16,26,23,27,-11
21:51:24:446498,-2,-20,-19,-6,-7,-15,-7,-38
21:51:24:447237,27,41,0,-2,6,9,21,17
21:51:24:454012,27,41,0,-2,6,9,21,17
21:51:24:454802,-17,-8,78,4,-12,-1,-1,-28
21:51:24:469065,17,13,0,-7,-18,-19,-1,6
21:51:24:469853,17,13,0,-7,-18,-19,-1,6
21:51:24:475783,-7,78,10,15,4,6,11,12
21:51:24:491499,2,51,48,11,17,19,30,14
21:51:24:492300,2,51,48,11,17,19,30,14
21:51:24:498280,-18,-10,2,6,-6,-14,-25,-38
21:51:24:505777,-1,25,-52,-13,-10,-19,-1,7
21:51:24:514010,-1,25,-52,-13,-10,-19,-1,7
21:51:24:514777,6,-46,-27,-26,-9,-1,-17,-20
21:51:24:529629,9,-4,-6,-22,-2,18,41,17
21:51:24:530438,9,-4,-6,-22,-2,18,41,17
21:51:24:535791,-3,0,-35,0,4,-7,-15,7
21:51:24:543278,-2,-25,15,14,1,-17,-41,-6
21:51:24:550832,-2,-25,15,14,1,-17,-41,-6
21:51:24:558308,7,6,-76,-13,-13,-7,-4,-2
21:51:24:565769,15,-101,-11,-3,-14,-11,-31,-38
21:51:24:573995,15,-101,-11,-3,-14,-11,-31,-38
21:51:24:574810,-16,24,-21,7,21,34,15,2
21:51:24:589044,48,79,6,7,-12,-19,-6,26
21:51:24:589823,48,79,6,7,-12,-19,-6,26
21:51:24:595776,-7,-1,7,4,5,7,39,23
21:51:24:603258,-6,3,12,5,-4,-5,0,1
21:51:24:610867,-6,3,12,5,-4,-5,0,1
21:51:24:618291,12,76,43,6,3,9,38,41
21:51:24:625770,8,-48,-6,-4,-18,-10,-18,-4
21:51:24:634004,8,-48,-6,-4,-18,-10,-18,-4
21:51:24:634777,10,-74,27,8,25,19,9,15
21:51:24:648932,-51,-39,12,-5,-4,-3,19,23
21:51:24:649752,-51,-39,12,-5,-4,-3,19,23
21:51:24:655765,-26,56,-14,-15,-21,-21,-19,-22
21:51:24:663299,-13,52,82,25,26,13,4,-13
21:51:24:670805,-13,52,82,25,26,13,4,-13
21:51:24:678257,17,-73,-4,-1,-23,-25,-26,4
21:51:24:685871,-26,-8,7,-9,-11,10,5,-1
21:51:24:693982,-26,-8,7,-9,-11,10,5,-1
21:51:24:694765,26,29,50,35,32,23,26,-15
21:51:24:708966,7,-47,-66,-32,-22,-13,-11,-11
21:51:24:709799,7,-47,-66,-32,-22,-13,-11,-11
21:51:24:723961,-15,18,9,2,-5,-12,-21,-5
21:51:24:724754,10,46,3,-6,-1,-3,32,12
21:51:24:730803,10,46,3,-6,-1,-3,32,12
21:51:24:738306,-15,-3,13,-7,5,7,-20,-14
21:51:24:745821,7,-9,-36,-6,-3,6,19,-6
21:51:24:753990,7,-9,-36,-6,-3,6,19,-6
21:51:24:754799,29,1,7,0,-5,1,0,-9
21:51:24:769466,-25,-8,-8,5,7,-1,-22,-33
21:51:24:770273,-25,-8,-8,5,7,-1,-22,-33
21:51:24:775796,33,-20,9,8,11,13,-12,-14
21:51:24:783315,-5,-90,-100,-15,-14,-9,-20,-28
21:51:24:790812,-5,-90,-100,-15,-14,-9,-20,-28
21:51:24:798290,-20,-1,40,20,19,0,-25,2
21:51:24:805761,-1,49,29,-15,4,3,-3,18
21:51:24:813989,-1,49,29,-15,4,3,-3,18
21:51:24:814775,5,-45,-32,-30,-20,-19,-34,-16
21:51:24:828968,10,19,58,28,13,2,25,22
21:51:24:829779,10,19,58,28,13,2,25,22
21:51:24:835781,-29,-100,-48,-33,-17,-9,-11,-6
21:51:24:843269,11,19,58,13,-4,-11,-19,8
21:51:24:850831,11,19,58,13,-4,-11,-19,8
21:51:24:858263,-9,30,-51,-4,-1,-2,19,-24
21:51:24:865788,11,-14,9,27,14,12,-22,-8
21:51:24:873987,11,-14,9,27,14,12,-22,-8
21:51:24:874801,10,-19,-10,-16,-28,-14,2,15
21:51:24:888971,-3,12,-29,-12,14,17,35,3
21:51:24:889816,-3,12,-29,-12,14,17,35,3
21:51:24:895797,4,55,59,20,20,11,10,11
21:51:24:903260,-43,18,39,-6,-13,-7,-24,-21
21:51:24:910832,-43,18,39,-6,-13,-7,-24,-21
21:51:24:918273,12,28,-18,3,-3,5,-3,24
21:51:24:925773,-6,20,21,16,1,17,7,-5
21:51:24:941510,-6,20,21,16,1,17,7,-5
21:51:24:942281,7,-14,9,-4,14,-7,-8,-1
21:51:24:948978,-3,-31,-55,-14,-13,-20,10,10
21:51:24:949803,-3,-31,-55,-14,-13,-20,10,10
21:51:24:955778,2,14,22,-8,-13,8,-26,18
21:51:24:963254,41,22,52,26,20,10,-43,-15
21:51:24:970853,41,22,52,26,20,10,-43,-15
21:51:24:978295,-12,4,-21,-20,-24,-9,22,-7
21:51:24:985795,-47,-80,1,-15,-13,0,17,7
21:51:24:993325,-47,-80,1,-15,-13,0,17,7
21:51:25:816,5,23,73,32,12,3,13,17
21:51:25:8945,47,23,-75,-1,1,-19,2,12
21:51:25:9776,47,23,-75,-1,1,-19,2,12
21:51:25:15742,3,-95,-61,-34,-22,-26,24,34
21:51:25:31447,-5,8,16,-2,3,7,-1,7
21:51:25:32296,-5,8,16,-2,3,7,-1,7
21:51:25:38309,33,49,25,25,16,17,46,4
21:51:25:45805,5,18,44,19,14,7,20,34
21:51:25:53308,5,18,44,19,14,7,20,34
21:51:25:60773,-40,-39,-32,-45,-24,-12,-23,-9
21:51:25:68970,-55,-65,-16,-14,2,9,2,-15
21:51:25:69765,-55,-65,-16,-14,2,9,2,-15
21:51:25:75770,-19,17,9,15,1,5,-5,1
21:51:25:91465,-39,-25,4,-15,-32,-34,-10,-29
21:51:25:92270,-39,-25,4,-15,-32,-34,-10,-29
21:51:25:98284,-33,-38,-82,-30,18,-5,18,-3
21:51:25:105766,23,16,-50,-23,-6,-5,-28,-11
21:51:25:113310,23,16,-50,-23,-6,-5,-28,-11
21:51:25:120757,49,49,43,11,-3,-4,-7,26
21:51:25:128994,23,-10,-3,5,-4,-1,-4,-38
21:51:25:129827,23,-10,-3,5,-4,-1,-4,-38
21:51:25:135769,-28,-65,-28,-36,-22,-1,-37,-25
21:51:25:151483,27,16,22,5,-5,2,-9,8
21:51:25:152290,27,16,22,5,-5,2,-9,8
21:51:25:158291,-2,24,32,47,13,16,-5,10
21:51:25:165794,-17,-54,-19,-13,-6,-7,8,-19
21:51:25:173361,-17,-54,-19,-13,-6,-7,8,-19
21:51:25:180748,1,14,-6,1,10,10,-14,-17
21:51:25:188992,41,38,40,10,1,-6,20,13
21:51:25:189816,41,38,40,10,1,-6,20,13
21:51:25:195781,4,9,16,19,7,13,44,15
21:51:25:211471,16,-19,-29,-7,-5,-1,8,40
21:51:25:212317,16,-19,-29,-7,-5,-1,8,40
21:51:25:218298,14,-27,15,15,1,1,-18,-38
21:51:25:225791,7,-1,-9,4,12,6,33,24
21:51:25:233322,7,-1,-9,4,12,6,33,24
21:51:25:240790,-25,-18,-41,0,-13,-14,3,7
21:51:25:248940,-22,13,-36,5,24,-7,-42,-13
21:51:25:249752,-22,13,-36,5,24,-7,-42,-13
21:51:25:255795,15,65,9,5,-3,-4,30,19
21:51:25:271498,-1,52,54,10,-6,22,38,38
21:51:25:272304,-1,52,54,10,-6,22,38,38
21:51:25:278268,-21,-84,-27,-24,-11,12,-39,-27
21:51:25:285786,17,-5,7,-10,-7,-22,-70,-70
21:51:25:293321,17,-5,7,-10,-7,-22,-70,-70
21:51:25:300823,0,-17,-3,-3,-1,5,15,-33
21:51:25:308954,-15,-17,-21,-28,14,13,43,20
21:51:25:309779,-15,-17,-21,-28,14,13,43,20
21:51:25:323281,17,39,1,15,-6,-22,-10,2
21:51:25:331625,-5,26,45,16,-11,-2,11,-23
21:51:25:332290,-5,26,45,16,-11,-2,11,-23
21:51:25:338317,-33,8,14,19,27,-19,-46,-9
21:51:25:345845,-5,-25,-19,-6,-3,-1,-18,23
21:51:25:353351,-5,-25,-19,-6,-3,-1,-18,23
21:51:25:360767,-3,45,16,-3,-25,-15,8,31
21:51:25:369018,-78,-45,-54,5,19,12,11,-12
21:51:25:369794,-78,-45,-54,5,19,12,11,-12
21:51:25:375751,8,4,10,-2,-7,-11,8,-15
21:51:25:391462,45,20,22,18,28,19,-1,17
21:51:25:392285,45,20,22,18,28,19,-1,17
21:51:25:398288,-11,-22,20,-5,-14,-23,-20,-31
21:51:25:405781,15,3,-42,6,-22,-3,-7,-1
21:51:25:413418,15,3,-42,6,-22,-3,-7,-1
21:51:25:420750,13,31,31,7,13,8,21,14
21:51:25:428985,9,-33,35,-5,-16,-6,-4,-14
21:51:25:429820,9,-33,35,-5,-16,-6,-4,-14
21:51:25:435786,-13,8,-16,-8,-3,-3,-13,-32
21:51:25:451475,-13,36,-3,0,-5,-1,-12,-19
21:51:25:452313,-13,36,-3,0,-5,-1,-12,-19
21:51:25:458273,39,-30,-33,-10,13,14,4,19
21:51:25:465767,-2,76,27,7,-9,-9,16,-5
21:51:25:473353,-2,76,27,7,-9,-9,16,-5
21:51:25:480768,7,-17,-15,11,7,13,6,-4
21:51:25:488997,-2,18,7,-22,7,8,28,11
21:51:25:489818,-2,18,7,-22,7,8,28,11
21:51:25:495861,48,10,34,2,-8,-6,-3,23
21:51:25:511528,-22,5,23,6,7,3,-2,-26
21:51:25:512296,-22,5,23,6,7,3,-2,-26
21:51:25:518277,-7,16,-41,-12,10,14,-25,-33
21:51:25:525783,27,40,52,18,1,-3,-45,-15
21:51:25:533338,27,40,52,18,1,-3,-45,-15
21:51:25:540794,0,18,21,-1,10,23,33,13
21:51:25:548944,-17,-53,-24,-28,-15,-24,-4,15
21:51:25:549770,-17,-53,-24,-28,-15,-24,-4,15
21:51:25:555777,-26,-56,-68,-14,-4,-3,21,20
21:51:25:571471,-5,19,37,-14,-15,12,68,56
21:51:25:572241,-5,19,37,-14,-15,12,68,56
21:51:25:578286,13,3,4,-8,-5,-12,13,15
21:51:25:585762,44,-10,-1,16,4,14,2,9
21:51:25:601486,44,-10,-1,16,4,14,2,9
21:51:25:602302,-30,12,-16,5,-8,-5,-39,-4
21:51:25:608941,-4,-52,-40,-32,-21,-22,-63,-5
21:51:25:609759,-4,-52,-40,-32,-21,-22,-63,-5
21:51:25:615782,-40,36,25,-7,10,17,12,-19
21:51:25:631504,0,-67,-42,9,6,-13,-30,-12
21:51:25:632291,0,-67,-42,9,6,-13,-30,-12
21:51:25:638283,-13,0,38,2,-11,0,-33,1
21:51:25:645769,-27,4,-40,-12,10,12,41,5
21:51:25:653321,-27,4,-40,-12,10,12,41,5
21:51:25:660809,-34,6,-12,9,11,10,-13,-7
21:51:25:668941,28,-2,9,15,2,-23,-41,-23
21:51:25:669778,28,-2,9,15,2,-23,-41,-23
21:51:25:675740,-12,4,20,-2,1,14,69,2
21:51:25:691423,-18,41,24,0,0,9,36,15
21:51:25:692259,-18,41,24,0,0,9,36,15
21:51:25:698260,40,30,11,1,-10,-18,-22,10
21:51:25:705788,-66,-48,-26,-2,3,-14,-29,-30
21:51:25:713345,-66,-48,-26,-2,3,-14,-29,-30
21:51:25:720757,16,12,13,-27,-21,-9,19,2
21:51:25:729368,17,64,87,18,-4,-1,-30,-23
21:51:25:736471,17,64,87,18,-4,-1,-30,-23
21:51:25:737277,19,-60,-46,3,8,-18,-23,-37
21:51:25:751419,3,-49,28,14,-3,-1,-12,-4
21:51:25:752264,3,-49,28,14,-3,-1,-12,-4
21:51:25:758288,-10,27,16,-11,-1,-3,13,28
21:51:25:765736,20,17,-38,2,23,25,48,33
21:51:25:773313,20,17,-38,2,23,25,48,33
21:51:25:780772,6,-18,-30,5,-6,3,-23,18
21:51:25:788967,-26,8,-13,-29,-28,-24,22,13
21:51:25:789795,-26,8,-13,-29,-28,-24,22,13
21:51:25:795785,51,15,42,24,30,18,10,8
21:51:25:811480,15,-18,-31,-22,-5,-12,-27,17
21:51:25:812280,15,-18,-31,-22,-5,-12,-27,17
21:51:25:818313,-27,-4,16,26,21,23,2,-13
21:51:25:825801,2,29,-7,1,-13,-21,-41,-2
21:51:25:833342,2,29,-7,1,-13,-21,-41,-2
21:51:25:840755,-13,-16,-2,-8,-24,-12,43,-7
21:51:25:848986,-10,-39,-69,-24,-10,-16,-15,-12
21:51:25:849801,-10,-39,-69,-24,-10,-16,-15,-12
21:51:25:855785,-56,-34,5,9,10,-7,-38,-64
21:51:25:879611,19,-8,7,15,16,10,-3,14
21:51:25:880450,19,-8,7,15,16,10,-3,14
21:51:25:881303,27,25,45,-4,-14,-6,9,13
21:51:25:885763,-30,-62,-46,-23,-6,9,30,4
21:51:25:893331,-30,-62,-46,-23,-6,9,30,4
21:51:25:900778,6,-10,0,-16,7,-3,-52,34
21:51:25:908972,13,32,53,18,17,19,45,-15
21:51:25:909812,13,32,53,18,17,19,45,-15
21:51:25:915775,41,4,-28,-2,-20,-19,-5,-8
21:51:25:931483,-33,-36,-17,19,18,16,-19,-26
21:51:25:932299,-33,-36,-17,19,18,16,-19,-26
21:51:25:938275,-25,-22,-49,-12,-12,-8,7,-13
21:51:25:953990,19,51,2,-5,3,4,6,30
21:51:25:954815,19,51,2,-5,3,4,6,30
21:51:25:960754,1,-32,7,1,-9,-19,-23,34
21:51:25:968970,10,-57,-42,-14,3,19,0,-8
21:51:25:969785,10,-57,-42,-14,3,19,0,-8
21:51:25:983267,-2,-31,-47,8,9,9,-32,-21
21:51:25:991484,-14,90,21,-17,-12,-9,10,-17
21:51:25:992277,-14,90,21,-17,-12,-9,10,-17
21:51:25:998266,1,117,27,-14,-11,12,45,-7
21:51:26:13939,-5,-42,-5,15,17,10,-16,5
21:51:26:14756,-5,-42,-5,15,17,10,-16,5
21:51:26:20738,-6,-45,-63,-40,-13,-9,-12,-30
21:51:26:28979,-26,-15,-18,0,-4,-14,-30,-14
21:51:26:29767,-26,-15,-18,0,-4,-14,-30,-14
21:51:26:43316,-29,-34,-13,2,-3,-11,7,8
21:51:26:51507,-29,-34,-13,2,-3,-11,7,8
21:51:26:52272,-3,1,0,-7,0,8,20,-25
21:51:26:58276,-8,-70,-23,-4,8,15,0,-9
21:51:26:73966,-8,-70,-23,-4,8,15,0,-9
21:51:26:74751,1,50,31,11,2,-2,17,21
21:51:26:80785,35,47,36,29,24,8,4,0
21:51:26:88968,35,47,36,29,24,8,4,0
21:51:26:89781,10,-13,24,-2,-3,-7,-54,-1
21:51:26:103310,-15,7,49,1,-13,1,0,-17
21:51:26:111477,-15,7,49,1,-13,1,0,-17
21:51:26:112256,9,-1,-35,5,-14,-3,14,-8
21:51:26:118349,-3,42,44,13,7,4,1,-12
21:51:26:133923,-3,42,44,13,7,4,1,-12
21:51:26:134762,7,-3,-12,-15,-13,-14,2,5
21:51:26:157127,-3,-68,-28,2,3,7,-3,8
21:51:26:157975,-3,-68,-28,2,3,7,-3,8
21:51:26:158756,-11,-11,1,7,-2,-3,10,-22
21:51:26:163268,-45,-18,-69,-25,-4,-5,24,12
21:51:26:171478,-45,-18,-69,-25,-4,-5,24,12
21:51:26:172297,-7,-42,-15,2,8,14,-24,16
21:51:26:178293,12,9,31,19,-13,-21,25,22
21:51:26:194037,12,9,31,19,-13,-21,25,22
21:51:26:194816,17,56,20,2,1,0,3,-4
21:51:26:200792,-31,-51,-73,-46,-16,-3,-67,-9
21:51:26:208998,-31,-51,-73,-46,-16,-3,-67,-9
21:51:26:209804,-4,27,-15,-1,0,-15,9,-24
21:51:26:223295,43,1,-33,-17,-11,1,24,32
21:51:26:231494,43,1,-33,-17,-11,1,24,32
21:51:26:232271,30,28,44,-7,3,-8,-28,31
21:51:26:245740,5,86,48,22,5,-4,12,-17
21:51:26:253992,5,86,48,22,5,-4,12,-17
21:51:26:254804,-23,-64,-55,-25,-17,-13,-6,-33
21:51:26:260764,-1,-58,-37,-36,0,-1,-7,2
21:51:26:268998,-1,-58,-37,-36,0,-1,-7,2
21:51:26:269805,-22,4,38,19,-6,1,-3,-4
21:51:26:283309,-21,15,76,17,19,11,5,-1
21:51:26:291502,-21,15,76,17,19,11,5,-1
21:51:26:292280,41,29,9,3,1,-14,-8,20
21:51:26:298277,-4,-73,-80,-8,-12,-7,16,-16
21:51:26:314725,-4,-73,-80,-8,-12,-7,16,-16
21:51:26:315499,41,87,19,30,-2,-7,15,16
21:51:26:320760,17,19,-14,12,0,7,26,-1
21:51:26:336479,17,19,-14,12,0,7,26,-1
21:51:26:337283,23,-6,25,13,3,21,7,19
21:51:26:343302,22,113,28,32,19,6,-34,9
21:51:26:351479,22,113,28,32,19,6,-34,9
21:51:26:352277,-6,-40,-17,-12,-15,-3,3,-19
21:51:26:358308,-6,-21,-24,-13,-11,-3,29,12
21:51:26:373986,-6,-21,-24,-13,-11,-3,29,12
21:51:26:374756,-5,-88,-30,0,26,17,27,26
21:51:26:380812,-2,32,14,-6,-36,-23,-18,-5
21:51:26:388990,-2,32,14,-6,-36,-23,-18,-5
21:51:26:389796,-24,-77,3,11,7,14,13,-3
21:51:26:403296,-2,42,46,-9,5,6,12,27
21:51:26:411478,-2,42,46,-9,5,6,12,27
21:51:26:412270,-17,41,17,4,8,0,-12,-11
21:51:26:418279,39,34,57,9,-4,-7,-5,4
21:51:26:434005,39,34,57,9,-4,-7,-5,4
21:51:26:434805,-55,-62,-45,-15,-2,16,27,11
21:51:26:440824,-5,-12,51,43,32,22,2,8
21:51:26:448983,-5,-12,51,43,32,22,2,8
21:51:26:449767,14,57,33,-13,-36,-26,-7,3
21:51:26:463300,-8,-85,-19,-9,0,-17,-44,-34
21:51:26:471476,-8,-85,-19,-9,0,-17,-44,-34
21:51:26:472261,-67,-41,-76,-35,1,9,-12,-14
21:51:26:478316,2,-6,5,-11,-25,-15,-8,-3
21:51:26:494022,2,-6,5,-11,-25,-15,-8,-3
21:51:26:494825,39,59,73,14,19,24,32,22
21:51:26:500790,-26,8,-28,17,7,7,3,-18
21:51:26:508978,-26,8,-28,17,7,7,3,-18
21:51:26:509763,33,-18,-27,0,-2,-12,4,4
21:51:26:523289,11,-34,-18,-5,14,16,-17,-29
21:51:26:531449,11,-34,-18,-5,14,16,-17,-29
21:51:26:532251,60,62,33,5,-9,-8,-22,-5
21:51:26:538318,-15,-91,-28,1,-7,-9,11,17
21:51:26:554023,-15,-91,-28,1,-7,-9,11,17
21:51:26:554808,12,1,8,-24,6,6,-10,-5
21:51:26:560790,4,37,14,5,-2,-6,-9,5
21:51:26:568952,4,37,14,5,-2,-6,-9,5
21:51:26:569777,5,-9,-5,12,4,-7,-6,-1
21:51:26:583292,-1,21,52,-13,-7,-4,15,-44
21:51:26:591516,-1,21,52,-13,-7,-4,15,-44
21:51:26:592288,-12,-50,12,8,-5,-5,-19,-15
21:51:26:598258,-9,-28,-28,-7,-12,-6,-4,-9
21:51:26:614011,-9,-28,-28,-7,-12,-6,-4,-9
21:51:26:614791,19,43,39,37,24,19,12,6
21:51:26:620769,27,16,15,11,22,19,-7,28
21:51:26:629005,27,16,15,11,22,19,-7,28
21:51:26:629823,-21,-7,-4,-17,-31,-9,-29,-26
21:51:26:643272,7,62,11,6,11,21,50,11
21:51:26:651484,7,62,11,6,11,21,50,11
21:51:26:652277,-11,-32,0,-14,-22,-29,31,25
21:51:26:665747,12,51,-8,5,23,8,-39,-3
21:51:26:674047,12,51,-8,5,23,8,-39,-3
21:51:26:674848,-32,-16,-18,-10,-13,-14,-38,-21
21:51:26:680774,-25,-43,-54,-17,-12,-37,5,9
21:51:26:689003,-25,-43,-54,-17,-12,-37,5,9
21:51:26:689809,-45,-68,-55,-11,0,5,-13,-35
21:51:26:712123,-6,0,-3,-6,-7,7,-32,10
21:51:26:712973,-6,0,-3,-6,-7,7,-32,10
21:51:26:713776,-37,-47,-103,-24,5,15,-8,-17
21:51:26:718276,9,25,24,7,-12,-20,27,1
21:51:26:734033,9,25,24,7,-12,-20,27,1
21:51:26:734808,8,73,15,-4,-24,-4,28,0
21:51:26:740806,-55,4,-43,-20,25,15,-10,-41
21:51:26:749005,-55,4,-43,-20,25,15,-10,-41
21:51:26:749773,39,24,72,27,32,23,52,37
21:51:26:763286,-11,-1,3,-4,-6,0,-41,-16
21:51:26:771510,-11,-1,3,-4,-6,0,-41,-16
21:51:26:772285,-28,-24,-11,-2,-10,-20,-29,-3
21:51:26:778298,-21,-49,-3,-1,-19,-7,-18,-27
21:51:26:793961,-21,-49,-3,-1,-19,-7,-18,-27
21:51:26:794796,78,60,2,5,17,2,-36,25
21:51:26:800802,-3,-22,15,-15,-40,-35,-13,4
21:51:26:808972,-3,-22,15,-15,-40,-35,-13,4
21:51:26:809765,-4,7,53,8,9,16,39,32
21:51:26:823249,28,-22,-11,-29,17,18,2,28
21:51:26:839678,28,-22,-11,-29,17,18,2,28
21:51:26:840446,-59,-3,11,-15,-26,-26,-30,-65
21:51:26:841260,48,100,71,38,12,16,25,75
21:51:26:854008,48,100,71,38,12,16,25,75
21:51:26:854829,5,13,-27,-1,1,-17,-1,20
21:51:26:860729,-15,-47,23,17,-14,-17,2,-42
21:51:26:869027,-15,-47,23,17,-14,-17,2,-42
21:51:26:869790,1,-69,-82,-30,2,13,1,-2
21:51:26:883274,21,-63,-26,-11,20,33,12,7
21:51:26:891502,21,-63,-26,-11,20,33,12,7
21:51:26:892302,3,-76,-43,15,2,-3,-10,-2
21:51:26:905814,47,-17,-3,3,-16,-17,24,29
21:51:26:914005,47,-17,-3,3,-16,-17,24,29
21:51:26:914937,25,23,22,1,15,-1,-4,2
21:51:26:920807,-13,36,-3,-2,-10,-4,-29,-3
21:51:26:937658,-13,36,-3,-2,-10,-4,-29,-3
21:51:26:943888,-25,4,82,15,-3,8,61,11
21:51:26:944740,-26,26,-20,-4,16,20,39,9
21:51:26:951497,-26,26,-20,-4,16,20,39,9
21:51:26:952306,10,66,-10,1,-1,2,-14,-15
21:51:26:965813,-34,50,-3,-6,-3,-8,-5,-2
21:51:26:974004,-34,50,-3,-6,-3,-8,-5,-2
21:51:26:974775,21,-43,50,8,-14,-1,2,13
21:51:26:988958,13,-11,29,13,18,0,-7,7
21:51:26:989816,13,-11,29,13,18,0,-7,7
21:51:26:995806,-15,-46,-32,-2,-9,-11,-27,-48
21:51:27:12168,-25,10,58,-3,-8,-4,22,-41
21:51:27:12983,-25,10,58,-3,-8,-4,22,-41
21:51:27:13805,18,-14,24,8,-9,-14,-20,19
21:51:27:34641,3,-43,-33,5,-1,4,10,14
21:51:27:35444,3,-43,-33,5,-1,4,10,14
21:51:27:36260,4,11,17,10,-9,-10,1,0
21:51:27:40737,-7,-60,-42,-14,4,7,20,-29
21:51:27:48328,-7,-60,-42,-14,4,7,20,-29
21:51:27:55773,-12,17,-39,-27,-27,-33,-26,-10
21:51:27:63335,24,35,11,2,8,9,-30,14
21:51:27:71507,24,35,11,2,8,9,-30,14
