Time,EMG1,EMG2,EMG3,EMG4,EMG5,EMG6,EMG7,EMG8
15:28:10:765191,0,-2,0,-5,-1,-1,0,1
15:28:10:765994,0,-2,0,-5,-1,-1,0,1
15:28:10:771981,-3,3,-1,2,-1,0,-1,-1
15:28:10:780150,1,4,2,0,-1,-1,0,-3
15:28:10:780959,1,4,2,0,-1,-1,0,-3
15:28:10:787004,-2,-4,3,2,3,1,-2,0
15:28:10:802642,-1,-6,-4,-6,-1,-2,-1,-1
15:28:10:803446,-1,-6,-4,-6,-1,-2,-1,-1
15:28:10:825845,-2,-6,-14,-2,-1,-1,-3,-1
15:28:10:826641,-1,-4,1,0,-1,2,0,1
15:28:10:827448,-1,-4,1,0,-1,2,0,1
15:28:10:831976,1,-3,-4,-8,-3,-2,1,-4
15:28:10:840201,-1,-1,-5,2,-1,-3,-2,0
15:28:10:841014,-1,-1,-5,2,-1,-3,-2,0
15:28:10:847011,-3,2,7,3,-1,-1,1,0
15:28:10:862677,-1,-2,-3,-1,0,0,-1,-3
15:28:10:863474,-1,-2,-3,-1,0,0,-1,-3
15:28:10:869488,1,0,-3,-3,2,-2,-2,-2
15:28:10:877645,0,3,6,2,2,5,1,0
15:28:10:878476,0,3,6,2,2,5,1,0
15:28:10:891926,-3,-5,-8,-6,-3,-1,-1,0
15:28:10:900153,1,-2,1,1,-4,-2,-1,-1
15:28:10:901010,1,-2,1,1,-4,-2,-1,-1
15:28:10:906970,0,3,5,3,-4,0,-1,-4
15:28:10:922663,1,-1,0,-2,-1,-1,1,-5
15:28:10:923466,1,-1,0,-2,-1,-1,1,-5
15:28:10:929438,-2,-1,3,3,-1,-3,-2,0
15:28:10:937667,-1,-4,-1,0,0,-1,-1,-2
15:28:10:938495,-1,-4,-1,0,0,-1,-1,-2
15:28:10:952024,-3,2,-5,-1,0,-2,-1,-1
15:28:10:960156,-2,-3,-3,-2,1,0,-2,-2
15:28:10:960971,-2,-3,-3,-2,1,0,-2,-2
15:28:10:966931,1,-1,1,-1,0,2,-1,-3
15:28:10:982683,-1,1,-4,-1,-3,-2,-1,-1
15:28:10:983466,-1,1,-4,-1,-3,-2,-1,-1
15:28:10:989497,1,-1,1,-5,-2,1,-3,-1
15:28:11:5174,1,-1,1,-5,-2,1,-3,-1
15:28:11:5966,1,3,0,-1,-1,-3,0,0
15:28:11:11993,-1,-4,-3,0,-1,-3,-5,1
15:28:11:20189,-1,-4,-3,0,-1,-3,-5,1
15:28:11:20969,-2,0,3,-4,0,-2,-1,1
15:28:11:26950,-2,-1,-5,-2,-4,1,-1,-2
15:28:11:42676,-2,-1,-5,-2,-4,1,-1,-2
15:28:11:43451,-2,1,-1,-1,-3,-2,-3,1
15:28:11:49502,-1,-4,0,0,2,-1,-1,-1
15:28:11:73364,-1,-4,0,0,2,-1,-1,-1
15:28:11:74189,-1,-3,-2,-1,2,0,-3,1
15:28:11:74957,-3,-5,2,-1,-6,-4,-1,-2
15:28:11:80229,-3,-5,2,-1,-6,-4,-1,-2
15:28:11:81002,0,-2,-6,-6,-4,-2,-1,-2
15:28:11:86981,0,-1,-3,-3,0,0,1,3
15:28:11:102713,0,-1,-3,-3,0,0,1,3
15:28:11:103468,1,-1,1,3,1,-1,-2,0
15:28:11:109474,-2,3,-9,0,-4,-1,0,-1
15:28:11:125185,-2,3,-9,0,-4,-1,0,-1
15:28:11:125961,-1,-2,0,-3,-1,-2,1,1
15:28:11:131947,0,1,6,3,2,0,-1,-1
15:28:11:140200,0,1,6,3,2,0,-1,-1
15:28:11:141003,-1,-3,-3,-1,0,-3,-2,-3
15:28:11:146994,1,1,-1,-2,-1,-2,-3,-3
15:28:11:162678,1,1,-1,-2,-1,-2,-3,-3
15:28:11:163490,2,2,4,0,1,0,-4,-3
15:28:11:169490,1,2,3,4,1,0,-2,-2
15:28:11:185161,1,2,3,4,1,0,-2,-2
15:28:11:186006,-4,-5,-5,-3,-1,-1,0,-4
15:28:11:191950,-2,3,2,-2,1,1,-2,1
15:28:11:200169,-2,3,2,-2,1,1,-2,1
15:28:11:200978,-1,-2,-3,-4,-2,-1,0,1
15:28:11:206975,-1,-4,-3,-5,-1,0,1,-2
15:28:11:222700,-1,-4,-3,-5,-1,0,1,-2
15:28:11:223481,-3,1,-2,2,0,-1,-2,2
15:28:11:229438,3,-2,3,0,-1,-2,0,1
15:28:11:245182,3,-2,3,0,-1,-2,0,1
15:28:11:245985,-2,1,-3,-3,-2,1,0,-1
15:28:11:251996,-1,-2,0,2,0,-3,-1,2
15:28:11:260172,-1,-2,0,2,0,-3,-1,2
15:28:11:260969,-2,-3,-2,1,0,2,0,0
15:28:11:266945,0,0,0,-2,-2,-1,0,-1
15:28:11:282678,0,0,0,-2,-2,-1,0,-1
15:28:11:283461,3,-1,-5,-4,-1,-3,0,0
15:28:11:289432,-4,-4,-4,-1,1,1,0,-2
15:28:11:305173,-4,-4,-4,-1,1,1,0,-2
15:28:11:305971,1,3,7,2,1,0,-2,-1
15:28:11:312004,-5,-8,-16,-13,-5,-1,-3,-2
15:28:11:320176,-5,-8,-16,-13,-5,-1,-3,-2
15:28:11:320974,-3,-5,-4,0,-4,-2,-1,-5
15:28:11:326954,1,2,2,0,-1,0,1,0
15:28:11:342700,1,2,2,0,-1,0,1,0
15:28:11:343446,0,-1,-3,-3,-2,-1,-2,0
15:28:11:349530,-1,-1,2,-1,-1,-3,-3,-2
15:28:11:365246,-1,-1,2,-1,-1,-3,-3,-2
15:28:11:366058,-2,-2,2,1,-3,-12,-1,-1
15:28:11:372033,3,-3,0,1,-1,-12,1,-1
15:28:11:380189,3,-3,0,1,-1,-12,1,-1
15:28:11:380978,-1,4,0,-3,1,13,-3,-2
15:28:11:386993,-2,-1,2,1,-2,9,0,-2
15:28:11:402744,-2,-1,2,1,-2,9,0,-2
15:28:11:403499,1,1,2,2,0,4,4,0
15:28:11:409515,0,1,-2,-6,-1,-1,2,0
15:28:11:425191,0,1,-2,-6,-1,-1,2,0
15:28:11:426000,-3,0,3,-1,1,-6,-4,-3
15:28:11:432003,-1,-5,-4,-4,-4,-3,-4,-4
15:28:11:440141,-1,-5,-4,-4,-4,-3,-4,-4
15:28:11:440958,1,-2,1,0,-2,-2,1,-2
15:28:11:447010,-1,1,1,3,0,-1,-3,0
15:28:11:462725,-1,1,1,3,0,-1,-3,0
15:28:11:463511,-2,0,5,-2,0,0,-2,0
15:28:11:469484,1,0,-2,0,-1,1,-1,0
15:28:11:476991,1,0,-2,0,-1,1,-1,0
15:28:11:484519,-2,2,-4,-1,-3,1,-1,-1
15:28:11:492002,-3,2,0,3,2,1,-3,-1
15:28:11:500178,-3,2,0,3,2,1,-3,-1
15:28:11:500996,0,-4,-3,-1,-1,-2,0,-2
15:28:11:506992,2,1,3,0,2,-1,-2,-4
15:28:11:522669,2,1,3,0,2,-1,-2,-4
15:28:11:523492,1,-2,-1,-4,-1,-1,-2,-1
15:28:11:529508,-4,-3,-3,0,0,-1,0,2
15:28:11:545186,-4,-3,-3,0,0,-1,0,2
15:28:11:546017,-2,-2,-2,-1,-5,-4,0,-1
15:28:11:551974,-1,-2,-1,-2,-2,-1,-1,0
15:28:11:560192,-1,-2,-1,-2,-2,-1,-1,0
15:28:11:560988,2,-3,2,1,1,-4,-2,-2
15:28:11:574507,-2,-8,-11,-10,-3,0,0,-1
15:28:11:582718,-2,-8,-11,-10,-3,0,0,-1
15:28:11:583490,0,3,-5,4,-1,-1,1,1
15:28:11:589471,-1,-2,4,2,1,0,0,-1
15:28:11:596998,-1,-2,4,2,1,0,0,-1
15:28:11:604502,-2,2,0,-2,-4,0,-2,0
15:28:11:612008,0,0,0,3,1,-1,2,-1
15:28:11:620197,0,0,0,3,1,-1,2,-1
15:28:11:620975,0,-1,-1,-1,-3,0,-2,-2
15:28:11:634494,-1,-2,-3,-2,0,-1,-3,-1
15:28:11:642683,-1,-2,-3,-2,0,-1,-3,-1
15:28:11:643459,1,-2,0,0,-1,-1,-3,0
15:28:11:649496,1,4,6,4,0,-1,-1,-2
15:28:11:657038,1,4,6,4,0,-1,-1,-2
15:28:11:664493,-1,0,-4,-3,-1,1,0,-1
15:28:11:671985,-1,1,2,2,0,0,-3,-2
15:28:11:680198,-1,1,2,2,0,0,-3,-2
15:28:11:681008,-1,-3,0,-3,1,0,-1,-1
15:28:11:694518,-4,-6,-9,-7,-6,-2,1,-4
15:28:11:702704,-4,-6,-9,-7,-6,-2,1,-4
15:28:11:703444,-3,-6,-8,-2,-1,0,0,-2
15:28:11:709454,-2,0,0,-3,0,-2,-1,-1
15:28:11:717011,-2,0,0,-3,0,-2,-1,-1
15:28:11:732660,1,-2,1,0,1,-3,0,2
15:28:11:733468,3,0,3,2,-1,1,-2,0
15:28:11:740175,3,0,3,2,-1,1,-2,0
15:28:11:740965,-5,0,1,-1,0,1,-4,-4
15:28:11:754507,1,1,7,-1,-1,-2,-1,1
15:28:11:762708,1,1,7,-1,-1,-2,-1,1
15:28:11:763446,-12,0,1,-2,-1,-2,-1,-3
15:28:11:769522,3,2,3,2,-1,-1,-1,3
15:28:11:777014,3,2,3,2,-1,-1,-1,3
15:28:11:784470,7,0,0,0,-1,-1,-1,1
15:28:11:791941,3,-4,-5,-5,0,-1,0,3
15:28:11:800187,3,-4,-5,-5,0,-1,0,3
15:28:11:800991,1,-3,-5,-3,-3,-3,-1,3
15:28:11:814515,3,-2,-4,-1,2,-2,-2,0
15:28:11:822705,3,-2,-4,-1,2,-2,-2,0
15:28:11:823441,-4,-8,-7,-6,-3,-1,-1,-3
15:28:11:829478,-5,-2,-2,-1,-2,-2,-2,-2
15:28:11:837016,-5,-2,-2,-1,-2,-2,-2,-2
15:28:11:844472,0,1,0,-1,0,1,1,-3
15:28:11:851979,-2,-2,-3,-3,-2,2,0,-1
15:28:11:860195,-2,-2,-3,-3,-2,2,0,-1
15:28:11:860995,1,-1,2,-1,1,-4,-2,-1
15:28:11:874463,-1,6,2,7,-1,-2,1,-4
15:28:11:882722,-1,6,2,7,-1,-2,1,-4
15:28:11:883599,-1,2,0,-2,-2,-1,0,1
15:28:11:889467,-3,-6,-2,-7,-3,1,-1,-2
15:28:11:897056,-3,-6,-2,-7,-3,1,-1,-2
15:28:11:904484,3,3,0,1,-2,1,-3,1
15:28:11:911979,-17,-1,-2,-3,1,-2,-2,-10
15:28:11:920221,-17,-1,-2,-3,1,-2,-2,-10
15:28:11:921014,-26,-2,-1,0,-1,-2,-1,-4
15:28:11:934495,1,0,-1,-3,-3,-1,-2,1
15:28:11:942732,1,0,-1,-3,-3,-1,-2,1
15:28:11:943482,-6,-4,-5,-3,-3,-2,2,-2
15:28:11:949469,0,0,-3,-2,-2,1,-2,1
15:28:11:957059,0,0,-3,-2,-2,1,-2,1
15:28:11:964502,11,1,-3,1,-1,0,-2,3
15:28:11:971994,-2,-3,-5,-1,0,-3,3,0
15:28:11:987704,-2,-3,-5,-1,0,-3,3,0
15:28:11:988496,6,-5,1,3,0,-2,-2,-3
15:28:11:994484,16,-2,1,-2,-2,-1,1,-1
15:28:12:2726,16,-2,1,-2,-2,-1,1,-1
15:28:12:3500,4,3,4,0,4,1,2,0
15:28:12:9482,-7,-3,4,-2,-2,-2,-8,1
15:28:12:17025,-7,-3,4,-2,-2,-2,-8,1
15:28:12:24528,-12,-3,1,-2,0,2,2,-1
15:28:12:32008,-8,3,-1,-1,-1,0,0,-5
15:28:12:40201,-8,3,-1,-1,-1,0,0,-5
15:28:12:40987,12,-2,-3,-1,-1,-2,-3,-3
15:28:12:54502,1,-1,2,3,-2,-3,1,4
15:28:12:62639,1,-1,2,3,-2,-3,1,4
15:28:12:63441,-10,-1,3,-4,-1,3,-4,-4
15:28:12:69491,1,-3,0,-1,-3,-4,-1,-3
15:28:12:77041,1,-3,0,-1,-3,-4,-1,-3
15:28:12:84484,1,-5,-8,-2,-5,-4,-2,-3
15:28:12:91945,-11,-3,1,4,0,3,-1,-15
15:28:12:100172,-11,-3,1,4,0,3,-1,-15
15:28:12:100983,2,0,-2,-5,-1,1,5,1
15:28:12:114479,8,-3,-2,-1,-1,-3,-1,2
15:28:12:122709,8,-3,-2,-1,-1,-3,-1,2
15:28:12:123454,-9,-3,-2,-4,-2,-3,-3,-6
15:28:12:129456,-3,-2,2,-4,-1,3,4,6
15:28:12:145219,-3,-2,2,-4,-1,3,4,6
15:28:12:145979,8,-4,2,8,0,-2,0,4
15:28:12:152017,5,0,-10,1,2,4,1,-3
15:28:12:160194,5,0,-10,1,2,4,1,-3
15:28:12:160975,3,4,1,-8,-3,-1,-1,-2
15:28:12:174482,-8,-1,0,-3,0,-3,-1,8
15:28:12:182686,-8,-1,0,-3,0,-3,-1,8
15:28:12:183452,-18,4,1,4,0,1,3,0
15:28:12:189479,-2,10,0,-7,-3,-2,-3,-1
15:28:12:205166,-2,10,0,-7,-3,-2,-3,-1
15:28:12:205974,-8,-4,-9,3,0,-3,-7,9
15:28:12:212037,-5,0,-3,-5,-1,0,-1,-2
15:28:12:220188,-5,0,-3,-5,-1,0,-1,-2
15:28:12:220988,10,0,-4,3,-2,-2,-7,-7
15:28:12:234485,3,1,1,1,-1,-5,-4,4
15:28:12:242659,3,1,1,1,-1,-5,-4,4
15:28:12:243481,4,1,2,-5,0,8,-4,-7
15:28:12:249502,-3,1,6,4,3,15,-1,-3
15:28:12:257040,-3,1,6,4,3,15,-1,-3
15:28:12:264471,-3,0,-5,-3,-2,19,4,2
15:28:12:271954,13,-3,-7,2,-5,-7,11,0
15:28:12:280193,13,-3,-7,2,-5,-7,11,0
15:28:12:280985,-14,-4,-5,-2,-1,-11,-1,-8
15:28:12:294517,6,-5,4,0,0,-20,7,6
15:28:12:302675,6,-5,4,0,0,-20,7,6
15:28:12:303471,15,-1,2,0,0,-12,1,-6
15:28:12:309451,-8,-4,-3,-7,-1,-1,-9,-18
15:28:12:317019,-8,-4,-3,-7,-1,-1,-9,-18
15:28:12:324464,-9,-3,-2,-1,-3,-1,-1,-4
15:28:12:331949,-4,-3,-6,1,0,2,-10,0
15:28:12:340212,-4,-3,-6,1,0,2,-10,0
15:28:12:341003,20,-4,0,-7,-2,1,6,57
15:28:12:354474,-11,0,0,4,-1,-1,-11,-16
15:28:12:362668,-11,0,0,4,-1,-1,-11,-16
15:28:12:363501,-34,3,4,1,3,-3,-6,-39
15:28:12:369452,10,-5,1,1,-3,3,-2,19
15:28:12:377037,10,-5,1,1,-3,3,-2,19
15:28:12:384495,12,-2,5,6,-1,-2,-1,0
15:28:12:391990,12,4,0,-8,-1,0,2,46
15:28:12:400198,12,4,0,-8,-1,0,2,46
15:28:12:401013,-11,-1,-1,-3,-3,0,1,-45
15:28:12:423327,2,-2,-5,2,0,0,1,-19
15:28:12:424137,2,-2,-5,2,0,0,1,-19
15:28:12:424941,4,0,-4,-1,-2,2,-3,1
15:28:12:429455,24,1,-2,-2,1,2,7,62
15:28:12:437033,24,1,-2,-2,1,2,7,62
15:28:12:444478,-3,-2,-3,-3,0,-2,-7,-21
15:28:12:451956,-4,-4,-3,-2,0,1,-1,-9
15:28:12:460219,-4,-4,-3,-2,0,1,-1,-9
15:28:12:461008,4,-7,0,-1,-4,-5,-10,1
15:28:12:474464,-27,-4,-1,-3,-2,-3,-4,-69
15:28:12:482707,-27,-4,-1,-3,-2,-3,-4,-69
15:28:12:483493,11,3,-1,-7,-1,-1,-4,42
15:28:12:489486,11,-4,0,2,-2,-10,3,4
15:28:12:497034,11,-4,0,2,-2,-10,3,4
15:28:12:504483,-1,2,2,-2,2,-4,4,-7
15:28:12:520186,-13,1,-1,0,2,11,8,3
15:28:12:521009,-13,1,-1,0,2,11,8,3
15:28:12:526974,4,-3,-2,-3,2,-1,-1,33
15:28:12:534473,-15,-7,-1,-2,-2,-2,-5,-41
15:28:12:542712,-15,-7,-1,-2,-2,-2,-5,-41
15:28:12:543525,22,0,0,0,-3,5,16,53
15:28:12:557689,0,5,-1,-4,-2,2,6,-8
15:28:12:558506,0,5,-1,-4,-2,2,6,-8
15:28:12:564472,-12,0,1,-1,0,-5,11,1
15:28:12:571976,-16,0,-3,-1,-4,-4,0,24
15:28:12:579587,-16,0,-3,-1,-4,-4,0,24
15:28:12:586986,1,-1,-2,4,-1,-4,-10,-14
15:28:12:594497,4,1,-1,-2,0,-1,5,22
15:28:12:602653,4,1,-1,-2,0,-1,5,22
15:28:12:603464,-3,-1,0,1,0,1,-1,-25
15:28:12:625830,25,2,2,4,3,9,-1,-2
15:28:12:626660,25,2,2,4,3,9,-1,-2
15:28:12:627457,10,0,-4,-2,-4,-3,-7,13
15:28:12:631975,3,-5,-1,1,-1,-3,1,-6
15:28:12:639541,3,-5,-1,1,-1,-3,1,-6
15:28:12:647010,-2,-1,3,3,-1,-6,3,-17
15:28:12:654540,-19,-2,2,0,-2,-8,-11,-27
15:28:12:662703,-19,-2,2,0,-2,-8,-11,-27
15:28:12:663496,2,-3,-4,-4,-3,3,3,39
15:28:12:677687,29,0,-2,-1,1,-2,-3,1
15:28:12:678500,29,0,-2,-1,1,-2,-3,1
15:28:12:684483,-9,-2,-1,-2,-1,1,-6,-33
15:28:12:691996,5,1,1,-2,-2,2,-11,-12
15:28:12:699584,5,1,1,-2,-2,2,-11,-12
15:28:12:706959,-9,0,0,1,-2,2,-7,-38
15:28:12:714493,-13,-2,-3,-3,-1,-3,-1,-9
15:28:12:722683,-13,-2,-3,-3,-1,-3,-1,-9
15:28:12:723439,2,-3,-1,-1,1,0,12,8
15:28:12:737685,-2,3,0,0,-4,-2,-4,10
15:28:12:738519,-2,3,0,0,-4,-2,-4,10
15:28:12:744496,-3,-4,0,2,-1,1,5,-18
15:28:12:751982,-4,-3,-4,-3,-2,2,13,24
15:28:12:759525,-4,-3,-4,-3,-2,2,13,24
15:28:12:767028,-7,0,1,0,4,-1,-7,-4
15:28:12:774514,-4,-1,-3,-2,0,-2,-2,-15
15:28:12:782707,-4,-1,-3,-2,0,-2,-2,-15
15:28:12:783508,9,3,0,-1,2,-1,-1,20
15:28:12:797677,-11,2,-1,-3,-1,0,-12,18
15:28:12:798499,-11,2,-1,-3,-1,0,-12,18
15:28:12:804516,-1,-4,-3,2,2,-3,-9,-20
15:28:12:812013,-3,-5,-2,-3,0,0,1,-12
15:28:12:819515,-3,-5,-2,-3,0,0,1,-12
15:28:12:826983,1,0,-2,-2,-3,-2,3,1
15:28:12:834475,-9,-2,2,3,-2,-1,-3,-1
15:28:12:842663,-9,-2,2,3,-2,-1,-3,-1
15:28:12:843464,-5,-1,-4,-6,2,0,5,-2
15:28:12:857678,-2,1,-2,-4,1,-2,2,15
15:28:12:858473,-2,1,-2,-4,1,-2,2,15
15:28:12:864460,-5,-5,0,-1,-2,-1,5,-47
15:28:12:871994,-3,-1,-1,2,-2,0,3,-9
15:28:12:879538,-3,-1,-1,2,-2,0,3,-9
15:28:12:886981,0,-2,2,1,-1,-4,-3,18
15:28:12:894441,10,0,0,0,-2,-2,4,17
15:28:12:902704,10,0,0,0,-2,-2,4,17
15:28:12:903499,-5,1,-3,-3,1,1,-7,-14
15:28:12:917669,32,-2,2,-4,-1,-2,-4,-8
15:28:12:918513,32,-2,2,-4,-1,-2,-4,-8
15:28:12:924461,-4,0,-1,0,-2,-3,-1,11
15:28:12:931960,2,1,-1,0,0,-2,-1,1
15:28:12:939520,2,1,-1,0,0,-2,-1,1
15:28:12:946990,0,2,-2,-1,-4,-2,-9,11
15:28:12:954472,-6,-1,3,-2,0,-1,0,6
15:28:12:962721,-6,-1,3,-2,0,-1,0,6
15:28:12:963482,-11,0,-1,-5,0,0,12,21
15:28:12:977681,-8,-4,-5,-1,-1,-2,-4,-15
15:28:12:978525,-8,-4,-5,-1,-1,-2,-4,-15
15:28:12:984494,5,0,1,0,-2,-1,-11,-39
15:28:12:991975,-6,-3,-1,-2,-4,0,11,-7
15:28:12:999620,-6,-3,-1,-2,-4,0,11,-7
15:28:13:7022,11,0,-1,-4,1,1,1,36
15:28:13:14484,-8,-1,-1,-2,1,-3,-4,-9
15:28:13:22681,-8,-1,-1,-2,1,-3,-4,-9
15:28:13:23452,-5,-3,-1,2,-3,1,0,-4
15:28:13:37645,-6,-2,0,-2,1,0,2,19
15:28:13:38471,-6,-2,0,-2,1,0,2,19
15:28:13:44488,-4,-3,-2,3,-4,-2,-3,14
15:28:13:51965,-2,-1,2,0,-2,-1,-3,-4
15:28:13:67701,-2,-1,2,0,-2,-1,-3,-4
15:28:13:68507,-5,-1,0,-1,-2,-3,0,-2
15:28:13:74478,0,0,-3,-2,-1,1,2,4
15:28:13:82712,0,0,-3,-2,-1,1,2,4
15:28:13:83517,-2,-1,1,-6,0,0,1,8
15:28:13:97686,-6,2,-2,-1,1,1,-18,-23
15:28:13:98504,-6,2,-2,-1,1,1,-18,-23
15:28:13:104477,-3,-6,-1,0,-1,-3,-9,-31
15:28:13:111990,-7,-5,-2,0,-6,-3,0,7
15:28:13:119607,-7,-5,-2,0,-6,-3,0,7
15:28:13:126961,8,-3,-2,2,1,-2,-1,-3
15:28:13:134494,1,1,0,0,0,-1,-2,-6
15:28:13:142482,1,1,0,0,0,-1,-2,-6
15:28:13:158271,1,0,-2,-4,0,1,6,5
15:28:13:159126,-2,1,-1,0,1,-2,2,-6
15:28:13:159934,-2,1,-1,0,1,-2,2,-6
15:28:13:164484,-4,-2,0,-1,-3,-3,-5,2
15:28:13:171995,-19,-5,-2,-1,-2,-1,-6,-9
15:28:13:179588,-19,-5,-2,-1,-2,-1,-6,-9
15:28:13:186982,2,-4,0,-2,-2,1,-3,-2
15:28:13:194478,10,-3,-1,-1,-3,-3,1,10
15:28:13:202682,10,-3,-1,-1,-3,-3,1,10
15:28:13:203487,1,0,-3,-2,-1,0,5,24
15:28:13:217662,2,-3,2,-4,2,0,-3,-3
15:28:13:218461,2,-3,2,-4,2,0,-3,-3
15:28:13:224556,-1,-4,0,3,-1,-6,-5,-7
15:28:13:231975,-15,-5,-4,-2,-3,-1,2,-14
15:28:13:239491,-15,-5,-4,-2,-3,-1,2,-14
15:28:13:246983,5,4,-1,-3,1,-3,-1,10
15:28:13:254431,-2,-2,-2,1,2,-1,-3,-23
15:28:13:262719,-2,-2,-2,1,2,-1,-3,-23
15:28:13:263481,-3,-1,-2,-2,-2,1,0,-5
15:28:13:277673,5,1,-2,-3,1,3,-2,-8
15:28:13:278486,5,1,-2,-3,1,3,-2,-8
15:28:13:284464,2,-2,-3,-4,0,-2,-4,2
15:28:13:291973,5,0,-1,1,-4,-3,15,37
15:28:13:299523,5,0,-1,1,-4,-3,15,37
15:28:13:306972,-6,-2,-4,-3,-3,2,-1,-7
15:28:13:314479,-3,0,1,-3,1,-1,3,11
15:28:13:322685,-3,0,1,-3,1,-1,3,11
15:28:13:323490,2,-4,-4,0,-2,-1,-6,-19
15:28:13:345840,3,1,-1,-1,-3,-1,0,2
15:28:13:346632,3,1,-1,-1,-3,-1,0,2
15:28:13:347415,-1,1,2,-2,-2,0,1,21
15:28:13:352029,8,-2,0,2,-3,2,-4,-7
15:28:13:359536,8,-2,0,2,-3,2,-4,-7
15:28:13:366973,-12,-3,-1,-4,1,-2,3,-17
15:28:13:374468,5,3,-3,-4,-1,-1,1,29
15:28:13:382735,5,3,-3,-4,-1,-1,1,29
15:28:13:383489,-18,-3,0,4,-1,-1,-8,1
15:28:13:397665,-3,-1,0,-2,2,-1,-6,-20
15:28:13:398530,-3,-1,0,-2,2,-1,-6,-20
15:28:13:404463,3,0,1,0,0,0,4,-16
15:28:13:411961,-7,-3,-5,-3,-2,-2,-4,-15
15:28:13:419537,-7,-3,-5,-3,-2,-2,-4,-15
15:28:13:435147,-3,0,-1,0,-3,-2,-1,-20
15:28:13:435908,-1,1,-2,-2,-2,-3,-2,-12
15:28:13:442695,-1,1,-2,-2,-2,-3,-2,-12
15:28:13:443472,5,-1,0,-2,1,0,1,7
15:28:13:457655,2,-1,-3,2,-1,-2,1,2
15:28:13:458489,2,-1,-3,2,-1,-2,1,2
15:28:13:464440,9,1,2,1,1,0,3,4
15:28:13:480156,-5,0,1,-4,-2,2,-4,-19
15:28:13:480961,-5,0,1,-4,-2,2,-4,-19
15:28:13:487001,5,-2,-2,-1,-1,-1,3,-14
15:28:13:494479,4,-3,-1,2,0,1,1,0
15:28:13:502023,4,-3,-1,2,0,1,1,0
15:28:13:509460,-1,0,1,0,-3,-3,-2,-7
15:28:13:517683,-10,-5,3,-3,-2,-3,-2,-22
15:28:13:518502,-10,-5,3,-3,-2,-3,-2,-22
15:28:13:524455,0,-1,-3,1,1,-3,0,10
15:28:13:540176,0,-1,1,-1,-1,0,1,14
15:28:13:540991,0,-1,1,-1,-1,0,1,14
15:28:13:546969,-6,-1,-1,0,-1,-5,-2,10
15:28:13:554439,0,-1,0,3,-2,-3,5,7
15:28:13:562051,0,-1,0,3,-2,-3,5,7
15:28:13:569471,1,2,-3,-1,0,-3,1,4
15:28:13:577680,-5,-3,0,-1,-2,-2,-3,-7
15:28:13:578523,-5,-3,0,-1,-2,-2,-3,-7
15:28:13:584473,7,0,-2,-3,-1,2,-1,-6
15:28:13:600186,1,0,-5,-1,-2,0,0,6
15:28:13:600974,1,0,-5,-1,-2,0,0,6
15:28:13:606962,-6,-3,-2,-4,-2,2,1,15
15:28:13:614460,-2,1,-1,3,2,2,-6,1
15:28:13:622064,-2,1,-1,3,2,2,-6,1
15:28:13:629520,0,-1,1,-5,0,-1,0,9
15:28:13:637723,12,-1,0,-2,-1,-3,-3,-2
15:28:13:638523,12,-1,0,-2,-1,-3,-3,-2
15:28:13:644486,-3,-3,-1,0,0,1,-3,0
15:28:13:660186,1,-1,1,0,1,-3,-4,3
15:28:13:661032,1,-1,1,0,1,-3,-4,3
15:28:13:666988,2,-1,-1,-1,-2,-1,4,-10
15:28:13:674471,-6,2,-1,-1,-3,-2,2,-9
15:28:13:682060,-6,2,-1,-1,-3,-2,2,-9
15:28:13:689486,-3,-1,-2,-2,-2,2,-3,9
15:28:13:697636,2,-1,0,-3,-2,2,5,33
15:28:13:698470,2,-1,0,-3,-2,2,5,33
15:28:13:711974,-5,0,2,-1,-4,-2,-3,-8
15:28:13:720223,6,-1,-1,-3,1,1,1,6
15:28:13:721025,6,-1,-1,-3,1,1,1,6
15:28:13:727029,-11,0,-2,0,-2,0,-8,-14
15:28:13:734504,3,-5,0,-2,0,-1,-2,-16
15:28:13:742009,3,-5,0,-2,0,-1,-2,-16
15:28:13:749506,2,0,1,-3,0,-2,-4,-28
15:28:13:757657,-4,-3,-3,-1,1,-2,0,-2
15:28:13:758485,-4,-3,-3,-1,1,-2,0,-2
15:28:13:764446,-1,1,-1,1,1,0,1,9
15:28:13:780134,-12,-2,-4,-3,-1,-2,0,-8
15:28:13:780993,-12,-2,-4,-3,-1,-2,0,-8
15:28:13:787001,0,0,-1,1,-1,0,1,5
15:28:13:794514,1,-2,0,1,-1,-1,2,-4
15:28:13:802057,1,-2,0,1,-1,-1,2,-4
15:28:13:809470,-14,-3,-2,1,-2,-4,-8,-1
15:28:13:817710,-8,-3,-3,-3,-3,-1,-1,-11
15:28:13:818466,-8,-3,-3,-3,-3,-1,-1,-11
15:28:13:824490,12,0,-3,-3,1,-2,2,17
15:28:13:840160,-2,1,-1,-1,0,-4,-5,0
15:28:13:841003,-2,1,-1,-1,0,-4,-5,0
15:28:13:846930,2,2,0,-3,-1,0,-2,12
15:28:13:854481,-2,2,1,-1,-1,0,-1,28
15:28:13:862062,-2,2,1,-1,-1,0,-1,28
15:28:13:869493,10,-1,-1,0,-1,-4,-3,12
15:28:13:877698,5,2,0,0,0,1,-2,-3
15:28:13:878516,5,2,0,0,0,1,-2,-3
15:28:13:884483,-6,-3,-2,0,-2,3,0,-5
15:28:13:900168,1,-2,0,0,-4,-2,-4,-11
15:28:13:901002,1,-2,0,0,-4,-2,-4,-11
15:28:13:906982,-2,0,-1,0,0,0,0,-12
15:28:13:914480,1,-2,-1,-2,-1,-3,10,-10
15:28:13:922030,1,-2,-1,-2,-1,-3,10,-10
15:28:13:929482,4,-2,-1,-1,-2,-1,-4,-13
15:28:13:937687,-1,1,0,-2,1,-2,-4,15
15:28:13:938532,-1,1,0,-2,1,-2,-4,15
15:28:13:944492,-3,-2,0,-4,0,0,3,2
15:28:13:960216,1,-1,2,-1,0,0,-2,-4
15:28:13:961030,1,-1,2,-1,0,0,-2,-4
15:28:13:966975,2,-2,-1,-1,0,-2,3,10
15:28:13:990855,-6,0,0,-3,1,-3,-4,7
15:28:13:991639,-6,0,0,-3,1,-3,-4,7
15:28:13:992450,-2,-2,0,1,-1,1,-3,-6
15:28:13:997683,-14,-3,0,1,-3,-2,-2,-9
15:28:13:998496,-14,-3,0,1,-3,-2,-2,-9
15:28:14:4462,8,-1,-2,-4,-3,-3,4,2
15:28:14:20175,3,1,-5,-3,-3,2,1,10
15:28:14:20983,3,1,-5,-3,-3,2,1,10
15:28:14:26949,-7,-1,3,-1,-1,-1,-2,-17
15:28:14:34433,2,0,0,-4,1,2,6,3
15:28:14:42072,2,0,0,-4,1,2,6,3
15:28:14:49510,-4,-4,1,1,-1,-2,-1,-15
15:28:14:57673,-3,-2,0,3,0,-1,-5,-13
15:28:14:58534,-3,-2,0,3,0,-1,-5,-13
15:28:14:64481,-1,0,-3,-1,-2,-2,-5,2
15:28:14:80224,9,-1,0,-4,-2,1,-12,-3
15:28:14:80990,9,-1,0,-4,-2,1,-12,-3
15:28:14:86972,-5,0,-1,-1,0,-3,-6,-15
15:28:14:94471,-1,1,-3,-3,0,-4,-4,1
15:28:14:102046,-1,1,-3,-3,0,-4,-4,1
15:28:14:109461,2,-1,0,1,-3,0,6,-2
15:28:14:117416,-3,0,0,-1,0,0,-3,-13
15:28:14:125205,-3,0,0,-1,0,0,-3,-13
15:28:14:126023,-5,-3,1,0,1,0,2,-8
15:28:14:140166,-3,-1,-3,-1,1,-4,1,-5
15:28:14:141007,-3,-1,-3,-1,1,-4,1,-5
15:28:14:146950,13,3,-1,-2,-1,1,0,10
15:28:14:154462,-2,-4,-1,-2,-6,-3,2,3
15:28:14:162038,-2,-4,-1,-2,-6,-3,2,3
15:28:14:169538,2,1,-1,0,0,1,-3,4
15:28:14:177652,0,-1,-3,2,1,-2,-7,-1
15:28:14:178484,0,-1,-3,2,1,-2,-7,-1
15:28:14:184510,-3,-1,-2,-1,-3,-3,3,33
15:28:14:200212,-7,-3,-2,-1,2,-3,-1,-19
15:28:14:201032,-7,-3,-2,-1,2,-3,-1,-19
15:28:14:207001,-1,-4,-3,-1,1,-4,-4,11
15:28:14:214507,2,3,2,-1,0,1,3,16
15:28:14:222044,2,3,2,-1,0,1,3,16
15:28:14:229512,-4,-1,-3,-5,-4,0,-1,5
15:28:14:237658,6,1,0,0,-2,2,0,27
15:28:14:238500,6,1,0,0,-2,2,0,27
15:28:14:244421,-1,-1,-1,0,3,0,2,-5
15:28:14:268363,-2,-3,-1,-5,-1,0,-9,-19
15:28:14:269168,-2,-3,-1,-5,-1,0,-9,-19
15:28:14:269982,-7,0,-2,-3,0,-4,-2,-13
15:28:14:274479,10,0,-2,-2,-1,-4,2,-4
15:28:14:282053,10,0,-2,-2,-1,-4,2,-4
15:28:14:289526,-3,0,-4,-2,0,0,-1,-14
15:28:14:297645,-3,-2,-1,-1,-2,0,0,-4
15:28:14:298480,-3,-2,-1,-1,-2,0,0,-4
15:28:14:304518,3,0,3,1,-1,-2,0,16
15:28:14:320181,-4,-1,-1,3,0,2,1,0
15:28:14:321018,-4,-1,-1,3,0,2,1,0
15:28:14:327053,-6,1,-2,-3,-3,2,0,6
15:28:14:334502,3,-1,0,3,-3,-1,-7,-1
15:28:14:342016,3,-1,0,3,-3,-1,-7,-1
15:28:14:349544,0,-1,-1,-2,-3,1,1,2
15:28:14:357408,-3,-3,-1,-1,0,-2,-1,-4
15:28:14:365193,-3,-3,-1,-1,0,-2,-1,-4
15:28:14:365971,-3,-4,1,1,-2,-2,-4,-30
15:28:14:380160,10,-4,-2,0,1,-2,-1,0
15:28:14:380967,10,-4,-2,0,1,-2,-1,0
15:28:14:387006,6,3,-1,-1,-1,-2,-2,5
15:28:14:394519,-7,0,0,-4,1,-3,6,-1
15:28:14:402049,-7,0,0,-4,1,-3,6,-1
15:28:14:409450,1,-2,-3,0,-1,0,-1,-7
15:28:14:417683,3,-1,-4,1,-1,1,4,27
15:28:14:418492,3,-1,-4,1,-1,1,4,27
15:28:14:432012,-2,1,0,-2,-2,0,-2,12
15:28:14:440179,-5,-1,-2,1,-6,1,-3,-17
15:28:14:440977,-5,-1,-2,1,-6,1,-3,-17
15:28:14:454506,1,-4,1,0,1,-4,-5,-8
15:28:14:462678,-2,0,-1,-1,-1,-2,-1,-8
15:28:14:463483,-2,0,-1,-1,-1,-2,-1,-8
15:28:14:469494,-15,-7,-2,-1,-2,-3,0,-13
15:28:14:477655,-8,-4,2,-1,-2,-1,-6,-6
15:28:14:478513,-8,-4,2,-1,-2,-1,-6,-6
15:28:14:492021,2,0,1,-2,-1,-1,1,4
15:28:14:500174,2,0,1,-2,-1,-1,1,4
15:28:14:500985,-6,-1,-1,0,-2,-2,0,-10
15:28:14:506945,-4,1,-3,0,-1,0,-1,-6
15:28:14:522673,-4,1,-3,0,-1,0,-1,-6
15:28:14:523473,0,-1,-2,0,0,1,4,2
15:28:14:529512,-1,-3,-2,0,-3,-4,0,11
15:28:14:537658,-1,-3,-2,0,-3,-4,0,11
15:28:14:538466,-6,0,-3,-3,-5,0,1,-9
15:28:14:552002,0,1,-1,1,0,2,-2,-13
15:28:14:568345,0,1,-1,1,0,2,-2,-13
15:28:14:569177,-15,-3,-2,-5,0,-1,-1,1
15:28:14:569978,8,1,-1,0,1,1,0,8
15:28:14:582709,8,1,-1,0,1,1,0,8
15:28:14:583498,6,-2,-2,-1,-2,1,1,3
15:28:14:589485,-3,-3,-1,-3,-2,0,-3,-1
15:28:14:597709,-3,-3,-1,-3,-2,0,-3,-1
15:28:14:598525,1,-1,1,0,-2,-3,0,-6
15:28:14:611975,0,-2,0,1,2,-1,-1,-1
15:28:14:620206,0,-2,0,1,2,-1,-1,-1
15:28:14:620995,0,0,0,-2,-1,2,-4,1
15:28:14:626986,-4,-2,0,0,-5,1,-2,-5
15:28:14:642688,-4,-2,0,0,-5,1,-2,-5
15:28:14:643519,-1,2,1,3,1,-3,4,11
15:28:14:649451,-2,-1,-1,1,0,-1,-4,-15
15:28:14:657718,-2,-1,-1,1,0,-1,-4,-15
15:28:14:658501,-14,0,1,0,0,-3,-1,-2
15:28:14:671958,-5,-1,0,-2,-1,-2,-3,-14
15:28:14:680187,-5,-1,0,-2,-1,-2,-3,-14
15:28:14:680995,3,0,-1,-3,1,-3,-2,10
15:28:14:686958,3,0,-1,-2,2,0,5,3
15:28:14:702686,3,0,-1,-2,2,0,5,3
15:28:14:703451,12,-1,0,-3,-3,1,-2,14
15:28:14:709458,-4,1,-2,-2,-1,-1,1,14
15:28:14:717685,-4,1,-2,-2,-1,-1,1,14
15:28:14:718499,4,1,-4,-5,0,-1,3,3
15:28:14:731992,-6,-4,-2,-4,0,-1,-2,-5
15:28:14:740180,-6,-4,-2,-4,0,-1,-2,-5
15:28:14:740979,1,-2,-2,1,-2,0,-3,1
15:28:14:746959,-27,-1,0,-3,0,0,1,-11
15:28:14:762690,-27,-1,0,-3,0,0,1,-11
15:28:14:763482,-2,-3,0,-1,-1,0,-7,-19
15:28:14:769498,6,-1,0,4,0,-2,-1,8
15:28:14:785167,6,-1,0,4,0,-2,-1,8
15:28:14:785966,-5,-1,-1,-3,1,-1,7,9
15:28:14:792036,5,-2,-2,0,1,-5,-5,0
15:28:14:800194,5,-2,-2,0,1,-5,-5,0
15:28:14:800970,0,-3,-2,2,-3,-3,-1,-16
15:28:14:807015,5,1,-2,-8,-3,-1,1,10
15:28:14:822669,5,1,-2,-8,-3,-1,1,10
15:28:14:823467,3,-2,-2,0,-3,-3,-1,-4
15:28:14:829524,5,1,-2,-2,2,0,0,-1
15:28:14:845226,5,1,-2,-2,2,0,0,-1
15:28:14:846012,-6,0,-2,-1,2,1,-4,-9
15:28:14:851993,1,0,-1,-1,-2,0,1,2
15:28:14:860158,1,0,-1,-1,-2,0,1,2
15:28:14:860983,-1,-3,-1,2,-5,-3,-4,1
15:28:14:867011,0,-3,-4,1,-5,1,-2,3
15:28:14:882746,0,-3,-4,1,-5,1,-2,3
15:28:14:883587,-3,1,-1,-1,0,0,0,-2
15:28:14:889493,3,-1,4,0,1,-1,-2,5
15:28:14:897645,3,-1,4,0,1,-1,-2,5
15:28:14:898469,-11,-1,-1,-1,2,-1,-2,-16
15:28:14:911991,-1,-1,0,-1,0,-3,0,-10
15:28:14:920211,-1,-1,0,-1,0,-3,0,-10
15:28:14:921012,5,-3,0,0,2,-3,-1,-3
15:28:14:926985,-1,-3,-3,0,-1,1,4,1
15:28:14:942704,-1,-3,-3,0,-1,1,4,1
15:28:14:943477,1,2,0,-5,-1,0,-3,4
15:28:14:949494,4,1,2,1,-3,-1,1,-2
15:28:14:957715,4,1,2,1,-3,-1,1,-2
15:28:14:958555,-8,-1,-1,-2,-2,1,3,-16
15:28:14:972019,-1,1,-3,-2,-1,-2,3,-2
15:28:14:980202,-1,1,-3,-2,-1,-2,3,-2
15:28:14:980993,4,-1,0,1,-4,-2,-4,1
15:28:14:987002,-2,-2,-3,-2,-3,1,-6,-4
15:28:15:2704,-2,-2,-3,-2,-3,1,-6,-4
15:28:15:3479,1,1,-5,0,-1,1,1,4
15:28:15:9492,1,-1,0,1,-3,0,-2,-1
15:28:15:17742,1,-1,0,1,-3,0,-2,-1
15:28:15:18534,4,-3,0,-1,-2,-1,0,2
15:28:15:31966,-5,-2,-1,0,0,-3,-2,-19
15:28:15:40196,-5,-2,-1,0,0,-3,-2,-19
15:28:15:40991,0,-1,1,-3,-1,-2,-6,0
15:28:15:46979,-3,-2,2,0,0,0,-4,-5
15:28:15:63178,-3,-2,2,0,0,0,-4,-5
15:28:15:63960,-2,1,-3,-1,-2,-2,1,1
15:28:15:69454,1,-1,-3,0,0,-1,2,13
15:28:15:77704,1,-1,-3,0,0,-1,2,13
15:28:15:78512,0,1,-2,-5,1,-3,-1,6
15:28:15:100823,4,-3,1,-2,-1,-3,4,0
15:28:15:101646,4,-3,1,-2,-1,-3,4,0
15:28:15:102465,0,0,0,0,1,-1,1,9
15:28:15:107007,-3,-1,-3,0,0,-1,-4,-6
15:28:15:123138,-3,-1,-3,0,0,-1,-4,-6
15:28:15:123930,0,-3,0,-1,-3,0,1,-9
15:28:15:129512,-1,-1,-2,-3,-1,-2,2,3
15:28:15:137723,-1,-1,-2,-3,-1,-2,2,3
15:28:15:138487,4,-3,-1,0,-3,-1,-6,4
15:28:15:151983,9,0,-1,1,-2,0,-6,-9
15:28:15:160154,9,0,-1,1,-2,0,-6,-9
15:28:15:160975,-3,-3,-2,0,-3,0,-2,-18
15:28:15:174488,4,-2,-2,-2,-2,-2,-3,3
15:28:15:182718,4,-2,-2,-2,-2,-2,-3,3
15:28:15:183514,-9,0,0,0,-1,0,-2,-8
15:28:15:189496,-3,0,-1,-1,2,-2,-2,2
15:28:15:197671,-3,0,-1,-1,2,-2,-2,2
15:28:15:198470,-3,-1,0,-1,-1,-3,2,9
15:28:15:212469,-3,3,0,-5,-1,1,2,18
15:28:15:220199,-3,3,0,-5,-1,1,2,18
15:28:15:221020,6,1,-1,0,-1,2,6,6
15:28:15:226987,-1,-5,-4,-2,-2,0,-5,-23
15:28:15:242715,-1,-5,-4,-2,-2,0,-5,-23
15:28:15:243502,1,-2,-3,-2,-1,-2,0,1
15:28:15:249482,0,-2,0,-1,1,3,3,-2
15:28:15:257718,0,-2,0,-1,1,3,3,-2
15:28:15:258531,-4,-3,-1,-4,2,-3,-3,-4
15:28:15:272032,3,-1,-1,0,-2,-3,2,7
15:28:15:288341,3,-1,-1,0,-2,-3,2,7
15:28:15:289181,4,-1,2,0,0,-1,3,3
15:28:15:289950,-6,-2,0,-3,-1,0,-5,-8
15:28:15:302716,-6,-2,0,-3,-1,0,-5,-8
15:28:15:303461,2,2,-1,-2,-1,2,0,1
15:28:15:309445,-3,-1,0,-3,0,-2,-1,0
15:28:15:317700,-3,-1,0,-3,0,-2,-1,0
15:28:15:318510,-8,-1,-1,-2,2,-4,-5,-4
15:28:15:340794,10,0,-4,-1,-3,-1,1,11
15:28:15:341634,10,0,-4,-1,-3,-1,1,11
15:28:15:342417,0,1,-3,-2,0,2,-2,-12
15:28:15:346988,-9,-1,-2,-1,0,-2,-1,-13
15:28:15:362714,-9,-1,-2,-1,0,-2,-1,-13
15:28:15:363523,-3,-3,2,2,-3,0,-1,10
15:28:15:377685,-7,-2,0,0,0,0,-4,1
15:28:15:378517,-7,-2,0,0,0,0,-4,1
15:28:15:384483,1,0,0,-2,0,-2,-6,-2
15:28:15:391996,0,0,1,0,-2,0,0,2
15:28:15:400225,0,0,1,0,-2,0,0,2
15:28:15:401002,9,1,1,-1,-3,-3,0,3
15:28:15:414455,-5,-1,0,-2,-1,-2,-3,-4
15:28:15:422727,-5,-1,0,-2,-1,-2,-3,-4
15:28:15:423490,0,-1,0,-1,-3,-1,0,0
15:28:15:429507,-1,3,1,0,-1,-3,-1,0
15:28:15:437073,-1,3,1,0,-1,-3,-1,0
15:28:15:461522,-1,0,-1,-3,-2,-1,2,4
15:28:15:462286,-1,0,-1,2,1,-1,-1,-3
15:28:15:463150,-1,0,-1,2,1,-1,-1,-3
15:28:15:463943,0,0,-1,-2,-2,-1,0,9
15:28:15:474481,1,1,-1,-4,0,1,-2,9
15:28:15:490880,1,1,-1,-4,0,1,-2,9
15:28:15:491688,-9,-4,0,1,-1,-1,0,-7
15:28:15:492463,-15,-3,-1,0,-2,0,-1,-1
15:28:15:497002,-15,-3,-1,0,-2,0,-1,-1
15:28:15:504514,-5,-2,-3,-2,-1,0,1,-3
15:28:15:520862,5,-2,-3,0,0,1,1,-1
15:28:15:521678,5,-2,-3,0,0,1,1,-1
15:28:15:522482,-9,-1,-1,2,-3,-2,-5,-14
15:28:15:534487,1,0,-3,-4,-3,-3,-1,-3
15:28:15:542715,1,0,-3,-4,-3,-3,-1,-3
15:28:15:543498,7,0,-3,-1,-2,0,-2,4
15:28:15:549487,1,1,-2,-3,-1,-2,-2,5
15:28:15:557067,1,1,-2,-3,-1,-2,-2,5
15:28:15:564494,1,-1,-1,-3,1,-2,0,-1
15:28:15:572012,-4,-2,0,-1,-1,-1,-2,-3
15:28:15:580171,-4,-2,0,-1,-1,-1,-2,-3
15:28:15:580961,-7,-1,1,-2,1,2,-3,-3
15:28:15:594497,1,-2,-1,3,-1,-3,-4,1
15:28:15:602738,1,-2,-1,3,-1,-3,-4,1
15:28:15:603527,0,0,-2,0,-3,-1,0,0
15:28:15:617708,-15,-1,1,2,-2,-2,-3,-4
15:28:15:618513,-15,-1,1,2,-2,-2,-3,-4
15:28:15:624590,1,-2,-1,-2,0,1,-7,-3
15:28:15:631990,0,1,-2,-1,-1,-1,1,-11
15:28:15:640169,0,1,-2,-1,-1,-1,1,-11
15:28:15:640993,-3,0,0,1,-3,-1,6,-9
15:28:15:654511,1,-4,-2,0,1,1,-4,-12
15:28:15:662714,1,-4,-2,0,1,1,-4,-12
15:28:15:663503,-1,-2,-1,-4,-1,0,1,6
15:28:15:669498,2,-2,-3,-3,-2,1,3,2
15:28:15:677031,2,-2,-3,-3,-2,1,3,2
15:28:15:684511,5,-1,0,2,1,-1,-1,8
15:28:15:691988,0,-1,-3,-1,0,2,-4,1
15:28:15:700185,0,-1,-3,-1,0,2,-4,1
15:28:15:700995,0,-1,-2,1,-2,-3,0,1
15:28:15:714484,3,0,6,-3,0,0,2,0
15:28:15:730879,3,0,6,-3,0,0,2,0
15:28:15:731659,11,-1,0,0,-1,-2,-2,-2
15:28:15:732480,-2,1,-2,-3,-1,0,-3,6
15:28:15:737074,-2,1,-2,-3,-1,0,-3,6
15:28:15:744480,0,-2,1,-3,-2,-2,0,-4
15:28:15:752013,2,-1,-1,-2,0,-1,2,-2
15:28:15:760175,2,-1,-1,-2,0,-1,2,-2
15:28:15:760965,3,-3,-3,-1,1,-1,-2,10
15:28:15:774484,-4,-2,-1,0,-3,-3,-1,-5
15:28:15:782727,-4,-2,-1,0,-3,-3,-1,-5
15:28:15:783501,-4,-2,-1,-2,-1,-1,-2,-2
15:28:15:789489,1,-1,0,2,0,-2,-1,3
15:28:15:797036,1,-1,0,2,0,-2,-1,3
15:28:15:804521,-1,1,-3,-1,-1,-2,1,5
15:28:15:811991,-5,-1,1,-1,-3,4,2,-4
15:28:15:820151,-5,-1,1,-1,-3,4,2,-4
15:28:15:820984,-4,-2,-4,1,-1,-1,-1,-6
15:28:15:834494,3,-4,-4,-1,0,-3,2,2
15:28:15:842721,3,-4,-4,-1,0,-3,2,2
15:28:15:843479,-6,0,-1,-3,-2,-4,-4,-5
15:28:15:849522,1,0,0,-1,0,-1,-5,-12
15:28:15:857036,1,0,0,-1,0,-1,-5,-12
15:28:15:864483,6,1,0,-2,-3,0,-1,5
15:28:15:871993,-2,1,-4,-1,-3,-5,-1,1
15:28:15:880252,-2,1,-4,-1,-3,-5,-1,1
15:28:15:880979,2,1,0,0,0,0,-3,11
15:28:15:894527,1,-1,-1,-1,0,-4,-2,6
15:28:15:902681,1,-1,-1,-1,0,-4,-2,6
15:28:15:903493,-5,-4,-1,-2,0,-1,-3,-7
15:28:15:909466,3,-2,0,-2,-2,-3,2,9
15:28:15:917041,3,-2,0,-2,-2,-3,2,9
15:28:15:932668,-19,-3,-4,-1,0,0,1,-3
15:28:15:933449,-5,0,0,-3,-2,0,1,5
15:28:15:940187,-5,0,0,-3,-2,0,1,5
15:28:15:941004,4,-1,-1,-1,-1,-2,0,-2
15:28:15:954493,-4,-2,-1,2,-2,-2,-3,-9
15:28:15:962673,-4,-2,-1,2,-2,-2,-3,-9
15:28:15:963473,-8,-2,-2,-3,2,2,-2,-20
15:28:15:969513,4,-1,-1,-1,-1,1,-2,-1
15:28:15:977014,4,-1,-1,-1,-1,1,-2,-1
15:28:15:984459,5,-2,-4,0,-3,-1,0,3
15:28:15:992004,-7,0,2,-1,2,-2,1,-6
15:28:16:7665,-7,0,2,-1,2,-2,1,-6
15:28:16:8466,-1,0,-1,-1,-2,-1,-4,-2
15:28:16:14474,2,-2,-2,0,-6,-1,-2,3
15:28:16:22698,2,-2,-2,0,-6,-1,-2,3
15:28:16:23493,2,-1,-2,-2,2,1,2,3
15:28:16:29508,-14,0,0,1,-1,-3,-1,-8
15:28:16:37042,-14,0,0,1,-1,-3,-1,-8
15:28:16:44459,0,-1,1,0,1,-2,-1,-4
15:28:16:51966,2,0,0,-1,2,-1,-1,-4
15:28:16:59935,2,0,0,-1,2,-1,-1,-4
15:28:16:66955,-4,-1,-1,-2,-2,0,0,-3
15:28:16:74452,3,-1,1,0,-4,-3,-6,3
15:28:16:82735,3,-1,1,0,-4,-3,-6,3
15:28:16:83513,7,0,-1,-1,-1,-1,-4,5
15:28:16:89489,2,-1,-1,-4,-2,-1,-3,0
15:28:16:97072,2,-1,-1,-4,-2,-1,-3,0
15:28:16:104515,-3,1,1,2,0,-2,0,-3
15:28:16:111998,-3,0,-4,0,0,0,0,0
15:28:16:120213,-3,0,-4,0,0,0,0,0
15:28:16:120948,1,1,2,-3,0,0,-2,1
15:28:16:134513,5,-3,-1,1,0,2,1,9
15:28:16:142701,5,-3,-1,1,0,2,1,9
15:28:16:143467,-5,-2,-3,0,-3,1,0,-16
15:28:16:149514,-4,-2,1,-4,-1,-1,0,-8
15:28:16:157033,-4,-2,1,-4,-1,-1,0,-8
15:28:16:172650,4,-2,-1,-2,-1,-1,0,8
15:28:16:173462,0,-2,-4,0,0,0,-6,-13
15:28:16:180206,0,-2,-4,0,0,0,-6,-13
15:28:16:180964,3,1,0,0,-2,-2,-4,6
15:28:16:194492,-2,-1,-1,2,0,0,1,3
15:28:16:210834,-2,-1,-1,2,0,0,1,3
15:28:16:211662,3,-3,-1,-3,-1,-3,-1,3
15:28:16:212454,-3,0,-1,-2,-4,-3,2,1
15:28:16:217067,-3,0,-1,-2,-4,-3,2,1
15:28:16:224505,-3,-3,0,-1,-1,-1,3,-4
15:28:16:232008,1,-3,-3,1,-2,2,-5,-5
15:28:16:240231,1,-3,-3,1,-2,2,-5,-5
15:28:16:241030,-6,0,-2,-1,-1,-2,2,-1
15:28:16:254470,0,-2,0,-1,-1,1,4,-1
15:28:16:262727,0,-2,0,-1,-1,1,4,-1
15:28:16:263506,-3,-3,-1,0,0,1,-4,-3
15:28:16:269474,2,-2,-3,-5,1,-4,1,6
15:28:16:285201,2,-2,-3,-5,1,-4,1,6
15:28:16:285981,0,0,0,-1,-1,-2,-5,-10
15:28:16:291955,-4,-3,0,-2,0,0,-3,-12
15:28:16:299536,-4,-3,0,-2,0,0,-3,-12
15:28:16:315192,0,-1,-3,-2,-1,-1,-1,8
15:28:16:315947,7,3,0,-1,1,-2,2,8
15:28:16:322727,7,3,0,-1,1,-2,2,8
15:28:16:323486,-1,-2,1,-2,-3,-1,-2,-10
15:28:16:337682,-6,0,-1,-1,0,-2,-2,-1
15:28:16:338500,-6,0,-1,-1,0,-2,-2,-1
15:28:16:344473,-1,0,-2,-1,-2,-3,-1,5
15:28:16:351970,2,0,1,-2,-2,0,-2,1
15:28:16:359586,2,0,1,-2,-2,0,-2,1
15:28:16:375179,-2,3,-2,0,2,-2,-2,1
15:28:16:375960,0,-1,-1,0,0,-1,0,5
15:28:16:382695,0,-1,-1,0,0,-1,0,5
15:28:16:383469,7,2,-2,-2,0,2,5,12
15:28:16:397657,3,-2,0,-4,0,-3,-5,5
15:28:16:398481,3,-2,0,-4,0,-3,-5,5
15:28:16:404554,-1,-2,-1,0,0,0,-1,-4
15:28:16:412042,1,-2,1,-1,-1,0,-2,5
15:28:16:427674,1,-2,1,-1,-1,0,-2,5
15:28:16:428467,-3,-3,-2,-2,-1,-4,5,-1
15:28:16:434500,0,0,-2,1,0,-2,1,5
15:28:16:442677,0,0,-2,1,0,-2,1,5
15:28:16:443474,-4,-4,0,-1,0,2,1,10
15:28:16:457660,1,-2,-2,-3,-1,0,-5,-7
15:28:16:458481,1,-2,-2,-3,-1,0,-5,-7
15:28:16:464494,-8,-4,1,0,-4,-1,-3,-11
15:28:16:472002,-4,-2,-3,-2,-3,0,-2,-2
15:28:16:479516,-4,-2,-3,-2,-3,0,-2,-2
15:28:16:486982,-5,-3,0,-2,0,-3,-4,-9
15:28:16:494426,-3,-2,-3,-1,1,-2,2,-1
15:28:16:502726,-3,-2,-3,-1,1,-2,2,-1
15:28:16:503487,-4,-1,-2,-2,0,0,-4,-6
15:28:16:517668,-3,-2,-2,-3,-3,-4,-3,2
15:28:16:518514,-3,-2,-2,-3,-3,-4,-3,2
15:28:16:524457,3,0,-2,2,-1,-1,-3,-2
15:28:16:540167,1,1,-3,-2,0,-1,4,8
15:28:16:540955,1,1,-3,-2,0,-1,4,8
15:28:16:546994,0,1,0,2,-1,-2,0,-1
15:28:16:563314,-2,1,-1,-1,2,1,2,-5
15:28:16:564175,-2,1,-1,-1,2,1,2,-5
15:28:16:564956,-4,-3,-4,-5,-1,-1,0,-1
15:28:16:577692,3,-1,2,-3,-1,1,7,13
15:28:16:578523,3,-1,2,-3,-1,1,7,13
15:28:16:592623,2,1,0,-1,-3,-2,0,8
15:28:16:593439,-6,-2,5,-1,0,-2,2,-12
15:28:16:599535,-6,-2,5,-1,0,-2,2,-12
15:28:16:606995,5,-1,-4,-1,-1,0,-1,-1
15:28:16:614455,-5,-2,-5,-2,-1,-2,-5,-9
15:28:16:630230,-5,-2,-5,-2,-1,-2,-5,-9
15:28:16:631022,1,-1,1,-2,1,0,-1,2
15:28:16:637673,1,-2,-1,3,0,2,-2,-7
15:28:16:638514,1,-2,-1,3,0,2,-2,-7
15:28:16:652666,-1,-2,-2,-1,0,-2,1,-1
15:28:16:653434,-4,1,-2,-2,-3,-3,-13,-15
15:28:16:659535,-4,1,-2,-2,-3,-3,-13,-15
15:28:16:666970,-2,2,1,0,0,-2,0,0
15:28:16:674483,-1,-1,-1,-2,-1,-1,2,3
15:28:16:682709,-1,-1,-1,-2,-1,-1,2,3
15:28:16:683505,2,-1,0,-2,-1,-3,-5,-7
15:28:16:705817,1,-4,-3,3,-2,1,-1,2
15:28:16:706658,1,-4,-3,3,-2,1,-1,2
15:28:16:707426,-2,0,1,-3,-3,-1,0,-2
15:28:16:712008,0,0,-2,0,-4,-1,-1,-5
15:28:16:719528,0,0,-2,0,-4,-1,-1,-5
15:28:16:726955,-13,-5,-2,0,-4,-1,-2,-11
15:28:16:734552,-2,1,-1,0,0,-1,5,1
15:28:16:742693,-2,1,-1,0,0,-1,5,1
15:28:16:743482,2,-2,0,-2,0,-1,2,6
15:28:16:757696,-3,-2,0,1,-1,0,-2,-9
15:28:16:758544,-3,-2,0,1,-1,0,-2,-9
15:28:16:764474,0,-1,0,-1,0,-3,-5,-4
15:28:16:771982,2,-1,1,-2,0,-1,-1,3
15:28:16:779531,2,-1,1,-2,0,-1,-1,3
15:28:16:795186,1,-2,-3,0,0,1,1,-3
15:28:16:795979,3,0,0,0,-1,3,0,9
15:28:16:802693,3,0,0,0,-1,3,0,9
15:28:16:803490,-2,-1,-1,-2,-2,-1,3,4
15:28:16:818183,0,0,-1,-1,-1,-2,4,-2
15:28:16:818935,0,0,-1,-1,-1,-2,4,-2
15:28:16:824511,-6,-1,-1,0,0,1,-1,-9
15:28:16:840225,-5,1,0,0,-3,-2,-7,-11
15:28:16:841002,-5,1,0,0,-3,-2,-7,-11
15:28:16:846999,5,-2,-1,-3,1,-1,-1,12
15:28:16:854492,-8,-2,2,-4,-2,-2,-1,-17
15:28:16:870210,-8,-2,2,-4,-2,-2,-1,-17
15:28:16:871012,-5,1,-3,2,-2,-1,-5,-6
15:28:16:877711,3,-2,-2,-1,1,-3,-1,3
15:28:16:878513,3,-2,-2,-1,1,-3,-1,3
15:28:16:884542,4,-2,2,-2,-2,-2,-6,1
15:28:16:892010,3,2,-4,-3,-2,-1,-2,6
15:28:16:899508,3,2,-4,-3,-2,-1,-2,6
15:28:16:907024,-1,-3,-1,-1,-1,1,-3,3
15:28:16:914538,-1,-2,0,1,0,1,0,-6
15:28:16:930238,-1,-2,0,1,0,1,0,-6
15:28:16:931029,-3,1,1,1,1,0,2,2
15:28:16:937669,-1,-3,-2,1,-1,-2,-2,4
15:28:16:938469,-1,-3,-2,1,-1,-2,-2,4
15:28:16:944502,-2,-2,0,-1,-3,-2,4,-2
15:28:16:952006,-1,0,0,-3,0,2,3,4
15:28:16:959507,-1,0,0,-3,0,2,3,4
15:28:16:966949,-1,0,-1,2,1,-4,-3,-4
15:28:16:983341,0,-2,-3,-6,0,-2,0,8
15:28:16:984179,0,-2,-3,-6,0,-2,0,8
15:28:16:984946,2,-2,-1,-1,-1,1,-1,12
15:28:16:997685,4,-2,0,1,-1,0,1,-2
15:28:16:998485,4,-2,0,1,-1,0,1,-2
15:28:17:4526,-11,-3,-3,-2,-3,-1,-2,-29
15:28:17:12022,0,-2,0,-3,-3,-2,-2,-1
15:28:17:19479,0,-2,0,-3,-3,-2,-2,-1
15:28:17:27006,5,1,-1,-2,2,0,3,6
15:28:17:34509,-3,-3,0,0,1,-1,-1,-6
15:28:17:42689,-3,-3,0,0,1,-1,-1,-6
15:28:17:43472,2,-3,-4,-2,-2,-1,3,9
15:28:17:57661,-4,-2,-2,2,-3,0,0,3
15:28:17:58481,-4,-2,-2,2,-3,0,0,3
15:28:17:64534,-3,-2,-1,-2,-3,0,-3,-4
15:28:17:72025,-1,-2,-1,-2,0,0,-1,-6
15:28:17:95932,-1,-2,-1,-2,0,0,-1,-6
15:28:17:96681,-1,-1,-1,-3,-1,-2,-2,-9
15:28:17:97471,-3,1,-2,-4,-1,-1,0,-6
15:28:17:102712,-3,1,-2,-4,-1,-1,0,-6
15:28:17:103526,3,-1,1,-2,2,-1,2,4
15:28:17:118201,-9,-1,0,-2,-2,-3,-2,-16
15:28:17:118967,-9,-1,0,-2,-2,-3,-2,-16
15:28:17:124489,-3,-1,-2,-4,0,3,2,-6
15:28:17:132013,1,0,-2,-1,-2,0,-5,3
15:28:17:147754,1,0,-2,-1,-2,0,-5,3
15:28:17:148497,1,-2,-2,1,-1,0,2,7
15:28:17:154519,5,-2,0,3,-2,-1,4,8
15:28:17:162699,5,-2,0,3,-2,-1,4,8
15:28:17:163538,-1,-1,-2,1,1,-1,0,8
15:28:17:177670,-4,-2,0,-1,-2,-1,-7,-6
15:28:17:178489,-4,-2,0,-1,-2,-1,-7,-6
15:28:17:184495,1,-1,-3,-1,-4,-2,-2,5
15:28:17:191978,-7,-5,-3,-3,-2,-1,-2,-4
15:28:17:207713,-7,-5,-3,-3,-2,-1,-2,-4
15:28:17:208504,0,0,0,-1,-1,-3,-3,-8
15:28:17:214492,3,0,0,-2,-2,-2,3,5
15:28:17:222711,3,0,0,-2,-2,-2,3,5
15:28:17:223495,-3,0,1,2,-2,-3,-2,1
15:28:17:237724,1,-3,-1,-1,-1,1,-1,6
15:28:17:238517,1,-3,-1,-1,-1,1,-1,6
15:28:17:244475,-1,-3,-2,-1,-1,1,0,-7
15:28:17:260636,1,1,-1,1,0,0,2,2
15:28:17:261459,1,1,-1,1,0,0,2,2
15:28:17:266971,1,1,0,1,-2,0,0,1
15:28:17:274448,-5,0,-4,-4,0,0,-2,-5
15:28:17:282082,-5,0,-4,-4,0,0,-2,-5
15:28:17:289495,1,2,1,1,2,-1,-4,-1
15:28:17:297661,0,-2,-2,-1,-2,0,-2,4
15:28:17:298492,0,-2,-2,-1,-2,0,-2,4
15:28:17:304474,-2,-1,-3,-2,0,-1,-11,-8
15:28:17:320190,-2,0,1,0,-2,-1,0,-5
15:28:17:321006,-2,0,1,0,-2,-1,0,-5
15:28:17:326991,1,-1,-1,-1,-2,-2,3,9
15:28:17:334480,-1,-2,-1,-2,-2,-1,-1,2
15:28:17:342077,-1,-2,-1,-2,-2,-1,-1,2
15:28:17:349481,-2,0,-1,-3,-4,-1,-2,-2
15:28:17:357701,0,2,-1,0,-2,-2,1,2
15:28:17:358512,0,2,-1,0,-2,-2,1,2
15:28:17:371985,0,-1,0,-3,0,0,5,5
15:28:17:380196,-1,-2,-3,-4,2,-2,-2,-2
15:28:17:381001,-1,-2,-3,-4,2,-2,-2,-2
15:28:17:395193,0,0,0,-4,-1,0,-3,1
15:28:17:395936,5,2,-2,0,4,-1,1,14
15:28:17:402049,5,2,-2,0,4,-1,1,14
15:28:17:409481,-5,0,0,0,-1,-1,-3,-15
15:28:17:425864,2,-2,1,-1,0,-2,-3,-4
15:28:17:426665,2,-2,1,-1,0,-2,-3,-4
15:28:17:427463,-4,-2,-2,-3,-1,-2,-3,-6
15:28:17:440181,-3,-1,3,-1,-3,0,-1,1
15:28:17:440975,-3,-1,3,-1,-3,0,-1,1
15:28:17:446948,0,-1,1,-3,-2,0,1,1
15:28:17:454513,-1,-3,-3,-4,0,0,-3,4
15:28:17:462030,-1,-3,-3,-4,0,0,-3,4
15:28:17:469453,1,-2,1,1,1,0,-1,4
15:28:17:485821,1,-1,-1,-3,-2,-1,-4,-1
15:28:17:486665,1,-1,-1,-3,-2,-1,-4,-1
15:28:17:487436,-2,2,-3,-2,-2,0,-2,-11
15:28:17:500199,-1,-1,-1,3,0,-1,-2,-2
15:28:17:500997,-1,-1,-1,3,0,-1,-2,-2
15:28:17:507011,2,-2,-1,-2,-3,0,1,4
15:28:17:514510,-5,1,-2,-4,-2,-3,-2,-12
15:28:17:522003,-5,1,-2,-4,-2,-3,-2,-12
15:28:17:538355,2,-3,-2,2,1,-3,-1,8
15:28:17:539165,1,1,1,0,-1,0,1,5
15:28:17:539944,1,1,1,0,-1,0,1,5
15:28:17:544507,-1,-1,-1,-2,-4,-3,1,-5
15:28:17:560190,-1,0,-2,-2,-2,0,3,3
15:28:17:560965,-1,0,-2,-2,-2,0,3,3
15:28:17:567024,-6,-1,-1,0,2,1,-2,-7
15:28:17:574484,-3,-2,0,0,-1,-2,-3,-2
15:28:17:582005,-3,-2,0,0,-1,-2,-3,-2
15:28:17:598323,-1,-2,1,-2,-1,-3,-3,-3
15:28:17:599192,-4,0,1,1,0,1,4,-14
15:28:17:599892,-4,0,1,1,0,1,4,-14
15:28:17:604518,-1,0,-3,0,1,1,-1,2
15:28:17:620234,2,-1,-3,-5,-2,1,1,16
15:28:17:621026,2,-1,-3,-5,-2,1,1,16
15:28:17:627013,1,-1,1,1,-3,0,-5,5
15:28:17:634482,-5,-2,0,-2,0,-1,-4,-6
15:28:17:642064,-5,-2,0,-2,0,-1,-4,-6
15:28:17:649528,1,0,-3,-4,-3,0,2,6
15:28:17:657664,-3,-2,-2,3,-2,-4,-2,-3
15:28:17:658473,-3,-2,-2,3,-2,-4,-2,-3
15:28:17:664525,1,-4,1,0,-2,-1,0,-2
15:28:17:680188,2,2,-2,0,2,-1,1,1
15:28:17:680986,2,2,-2,0,2,-1,1,1
15:28:17:687018,1,-3,-2,-3,-1,-2,-1,6
15:28:17:694532,-1,-5,0,-1,-1,-1,-3,-1
15:28:17:702008,-1,-5,0,-1,-1,-1,-3,-1
15:28:17:709500,-3,0,1,0,1,0,-1,-8
15:28:17:717671,-2,1,-1,1,-1,0,-4,4
15:28:17:718524,-2,1,-1,1,-1,0,-4,4
15:28:17:724464,3,1,-5,-2,-2,-1,1,10
15:28:17:740185,1,-2,0,-2,0,-6,3,-1
15:28:17:740995,1,-2,0,-2,0,-6,3,-1
15:28:17:747032,4,0,0,0,0,-2,0,5
15:28:17:762680,-3,-3,-1,-2,-2,-1,-3,-7
15:28:17:763468,-3,-3,-1,-2,-2,-1,-3,-7
15:28:17:769516,0,0,-3,-4,0,0,2,6
15:28:17:777695,-2,-3,2,-2,-5,-2,0,-12
15:28:17:778484,-2,-3,2,-2,-5,-2,0,-12
15:28:17:784476,-4,1,0,1,-2,-2,1,-4
15:28:17:800197,2,-3,-1,-2,-1,2,-6,2
15:28:17:800994,2,-3,-1,-2,-1,2,-6,2
15:28:17:807022,-4,-2,-1,-1,-2,-2,-2,11
15:28:17:814509,-3,1,-2,0,0,-2,-1,4
15:28:17:822019,-3,1,-2,0,0,-2,-1,4
15:28:17:829448,1,0,0,0,-1,-1,-1,-8
15:28:17:837689,4,-3,-3,1,-1,-1,2,0
15:28:17:838521,4,-3,-3,1,-1,-1,2,0
15:28:17:844504,-9,-1,1,-1,-1,-3,-2,-5
15:28:17:860193,-3,-1,-3,-2,-1,-3,-2,-5
15:28:17:860979,-3,-1,-3,-2,-1,-3,-2,-5
15:28:17:866979,0,0,0,-3,-1,3,-1,-3
15:28:17:874465,1,-1,-1,-1,1,0,-1,4
15:28:17:882035,1,-1,-1,-1,1,0,-1,4
15:28:17:889507,1,1,1,2,-2,-2,3,-5
15:28:17:897695,-1,-1,0,0,1,-1,3,-4
15:28:17:898517,-1,-1,0,0,1,-1,3,-4
15:28:17:904500,-2,-3,1,1,-2,0,-3,-6
15:28:17:920239,-1,-1,-1,-2,-1,0,0,3
15:28:17:921015,-1,-1,-1,-2,-1,0,0,3
15:28:17:926999,-1,-2,-1,-2,-1,-3,0,-6
15:28:17:934464,-2,-2,-1,-1,1,0,2,-1
15:28:17:942034,-2,-2,-1,-1,1,0,2,-1
15:28:17:949498,1,-2,0,-2,-2,2,-3,4
15:28:17:957694,-7,-2,1,-2,1,-1,-4,-10
15:28:17:958524,-7,-2,1,-2,1,-1,-4,-10
15:28:17:964469,-4,-1,-3,-1,-2,-2,-1,-8
15:28:17:980223,-2,-2,-1,-1,-4,-3,-3,-7
15:28:17:981005,-2,-2,-1,-1,-4,-3,-3,-7
15:28:17:986985,0,-2,-5,1,-1,-2,-1,-2
15:28:17:994475,-5,0,0,3,1,-2,-2,-7
15:28:18:2061,-5,0,0,3,1,-2,-2,-7
15:28:18:9512,0,0,0,-5,2,-3,-1,4
15:28:18:17661,4,-1,1,1,-2,-1,1,6
15:28:18:18460,4,-1,1,1,-2,-1,1,6
15:28:18:24516,-1,0,-1,0,-2,0,0,3
15:28:18:40220,-1,0,-1,0,-2,0,0,3
15:28:18:41066,-6,0,-3,-1,-1,0,1,-7
15:28:18:47013,2,-1,-1,-2,-3,-1,0,-5
15:28:18:70878,2,-1,-1,-2,-3,-1,0,-5
15:28:18:71670,10,-2,-4,-2,-3,1,2,8
15:28:18:72480,-4,-1,1,0,-1,-1,-3,-10
15:28:18:77719,-4,-1,1,0,-1,-1,-3,-10
15:28:18:78505,1,1,-2,-1,-2,-2,-5,0
15:28:18:84513,0,0,-1,-3,0,-1,0,11
15:28:18:100213,0,0,-1,-3,0,-1,0,11
15:28:18:101022,0,-2,2,-1,-2,-3,-1,4
15:28:18:106996,-4,-5,-2,1,0,-2,-5,-9
15:28:18:122746,-4,-5,-2,1,0,-2,-5,-9
15:28:18:123463,-3,-1,-2,-5,1,0,-1,-7
15:28:18:129455,-3,1,-2,2,1,-2,-4,-7
15:28:18:137724,-3,1,-2,2,1,-2,-4,-7
15:28:18:138506,0,0,-1,-1,-4,1,0,8
15:28:18:144507,0,-3,-4,1,-2,-2,-1,1
15:28:18:160209,0,-3,-4,1,-2,-2,-1,1
15:28:18:160983,-1,-2,2,-1,-1,-1,-4,-5
15:28:18:166982,-3,-2,-2,-6,0,0,0,3
15:28:18:182684,-3,-2,-2,-6,0,0,0,3
15:28:18:183483,-2,-2,-2,2,-2,-1,3,-2
15:28:18:189512,-2,-2,1,-1,-2,-1,1,-8
15:28:18:198387,-2,-2,1,-1,-2,-1,1,-8
15:28:18:199224,-6,-2,1,-5,2,1,-2,-9
15:28:18:212023,-1,1,0,-1,-1,-1,1,1
15:28:18:220199,-1,1,0,-1,-1,-1,1,1
15:28:18:221001,-1,0,-3,-1,-1,-2,2,1
15:28:18:226946,-1,0,0,-3,-1,-1,-5,-9
15:28:18:242701,-1,0,0,-3,-1,-1,-5,-9
15:28:18:243480,6,4,-2,-3,-1,-1,-1,3
15:28:18:249552,-3,0,-2,0,2,-1,-3,-5
15:28:18:257692,-3,0,-2,0,2,-1,-3,-5
15:28:18:258499,0,0,-1,0,-1,-1,-2,1
15:28:18:271996,-2,0,-1,-3,0,1,-7,-1
15:28:18:280203,-2,0,-1,-3,0,1,-7,-1
15:28:18:280996,0,-3,-1,1,-2,0,-3,-2
15:28:18:287021,1,2,-1,-1,-2,-1,2,0
15:28:18:302668,1,2,-1,-1,-2,-1,2,0
15:28:18:303469,-4,0,1,-1,-1,-1,-3,-1
15:28:18:318376,1,-1,-2,-2,-3,0,-2,2
15:28:18:319208,1,-1,-2,-2,-3,0,-2,2
15:28:18:319987,1,2,1,-1,-1,-2,-2,12
15:28:18:340880,2,-2,-1,-2,-3,-1,1,9
15:28:18:341664,2,-2,-1,-2,-3,-1,1,9
15:28:18:342459,-4,-1,-3,-3,-1,-1,-2,-8
15:28:18:346974,-4,-3,-1,-2,0,0,-1,4
15:28:18:370903,-4,-3,-1,-2,0,0,-1,4
15:28:18:371693,0,-2,-3,-2,0,0,0,-2
15:28:18:372506,2,0,-1,-1,-1,-3,1,8
15:28:18:377677,2,0,-1,-1,-1,-3,1,8
15:28:18:378494,0,0,0,0,-2,2,-1,2
15:28:18:391991,1,-1,-2,-1,-3,-3,-1,-1
15:28:18:400224,1,-1,-2,-1,-3,-3,-1,-1
15:28:18:401015,-4,-1,1,-1,-1,-4,-3,-2
15:28:18:407008,0,-1,-1,0,-1,2,1,-2
15:28:18:422714,0,-1,-1,0,-1,2,1,-2
15:28:18:423487,3,-1,-4,-5,-2,1,-3,6
15:28:18:429559,-1,2,0,1,-1,0,1,-4
15:28:18:437743,-1,2,0,1,-1,0,1,-4
15:28:18:438566,-1,-2,-4,1,-1,1,1,1
15:28:18:451986,0,-1,-1,-1,2,-2,-4,0
15:28:18:460254,0,-1,-1,-1,2,-2,-4,0
15:28:18:461008,-5,-3,-2,0,-3,-1,1,-5
15:28:18:467015,-5,-3,-2,-4,0,-4,1,6
15:28:18:482723,-5,-3,-2,-4,0,-4,1,6
15:28:18:483516,5,3,3,-1,-3,-2,4,15
15:28:18:489501,0,-2,-1,-2,-4,1,2,0
15:28:18:497731,0,-2,-1,-2,-4,1,2,0
15:28:18:498508,-1,-3,-2,1,-2,0,-4,-6
15:28:18:511971,2,-1,1,-1,-3,1,0,-5
15:28:18:520222,2,-1,1,-1,-3,1,0,-5
15:28:18:521034,-4,-3,-1,1,-1,-3,-3,-19
15:28:18:526993,0,-2,-2,-1,0,-1,0,-8
15:28:18:542691,0,-2,-2,-1,0,-1,0,-8
15:28:18:543521,-4,0,-1,-3,-3,-1,-4,-15
15:28:18:549477,0,-3,-2,0,0,0,2,-6
15:28:18:557720,0,-3,-2,0,0,0,2,-6
15:28:18:558507,-2,-3,0,-1,-2,-2,-2,3
15:28:18:571955,1,2,0,-1,-2,-1,1,1
15:28:18:580202,1,2,0,-1,-2,-1,1,1
15:28:18:581001,-5,-3,0,0,0,0,-2,-17
15:28:18:594519,-3,0,-3,-1,-2,-1,-1,2
15:28:18:602712,-3,0,-3,-1,-2,-1,-1,2
15:28:18:603465,2,-1,-1,-1,2,0,-1,4
15:28:18:609447,-2,-3,-2,3,1,0,-3,-7
15:28:18:617722,-2,-3,-2,3,1,0,-3,-7
15:28:18:618506,-4,-2,-1,-3,1,-3,-3,0
15:28:18:632033,0,-2,2,-1,-2,1,3,5
15:28:18:640206,0,-2,2,-1,-2,1,3,5
15:28:18:640993,-3,-2,-2,2,0,-1,-3,-5
15:28:18:646981,-1,1,1,-3,1,1,-3,-1
15:28:18:662676,-1,1,1,-3,1,1,-3,-1
15:28:18:663494,0,-2,4,-1,-2,-1,2,13
15:28:18:669526,-1,-1,-4,0,-3,-2,-2,-1
15:28:18:677707,-1,-1,-4,0,-3,-2,-2,-1
15:28:18:678477,6,1,-6,-4,-2,1,2,6
15:28:18:691996,-2,-1,-4,0,-1,-1,-3,-6
15:28:18:700209,-2,-1,-4,0,-1,-1,-3,-6
15:28:18:701022,0,0,-2,-3,-4,-3,0,-2
15:28:18:706967,1,0,-1,-1,-1,-2,3,2
15:28:18:722682,1,0,-1,-1,-1,-2,3,2
15:28:18:723485,0,-3,1,-1,-1,-1,-3,-8
15:28:18:729534,-4,-1,-1,-3,-2,-2,-4,6
15:28:18:737725,-4,-1,-1,-3,-2,-2,-4,6
15:28:18:738515,1,-1,-2,1,-1,1,-1,2
15:28:18:752007,2,-2,-2,1,-1,1,-2,0
15:28:18:760231,2,-2,-2,1,-1,1,-2,0
15:28:18:760976,-2,0,-1,-4,0,-3,1,2
15:28:18:767039,-3,0,-1,-4,-3,-3,-1,0
15:28:18:782741,-3,0,-1,-4,-3,-3,-1,0
15:28:18:783532,1,0,-3,0,-1,-2,-1,2
15:28:18:789493,2,-3,1,-2,-3,-2,-3,-1
15:28:18:797654,2,-3,1,-2,-3,-2,-3,-1
15:28:18:798492,-1,-2,0,-1,1,0,0,6
15:28:18:812093,-3,-3,0,-1,0,0,0,3
15:28:18:820239,-3,-3,0,-1,0,0,0,3
15:28:18:821033,-2,0,-1,-3,-2,0,-1,-6
15:28:18:827019,0,-2,-2,-1,-1,-3,0,1
15:28:18:842833,0,-2,-2,-1,-1,-3,0,1
15:28:18:843515,-2,0,-1,-2,2,0,0,1
15:28:18:849498,2,-3,2,0,-1,-1,-2,-8
15:28:18:857685,2,-3,2,0,-1,-1,-2,-8
15:28:18:858448,-4,0,-1,1,-5,0,0,-7
15:28:18:872068,1,-2,-1,0,2,1,-2,2
15:28:18:880253,1,-2,-1,0,2,1,-2,2
15:28:18:881029,-4,2,-2,-4,-2,0,-1,-1
15:28:18:887033,-1,5,3,-2,-3,0,1,11
15:28:18:902725,-1,5,3,-2,-3,0,1,11
15:28:18:903505,5,0,0,2,0,-1,-1,9
15:28:18:909497,3,11,13,-1,-4,-5,0,3
15:28:18:917739,3,11,13,-1,-4,-5,0,3
15:28:18:918513,-6,2,11,0,-22,5,-4,-9
15:28:18:931980,-2,-6,-6,-14,-8,1,2,-6
15:28:18:940223,-2,-6,-6,-14,-8,1,2,-6
15:28:18:941018,3,2,4,8,-3,-9,-2,-4
15:28:18:946997,-3,-7,-8,-12,-6,-6,-2,-6
15:28:18:962716,-3,-7,-8,-12,-6,-6,-2,-6
15:28:18:963518,-2,-3,10,-7,2,2,0,-3
15:28:18:969474,0,-2,3,13,7,-1,1,-4
15:28:18:977731,0,-2,3,13,7,-1,1,-4
15:28:18:978508,-3,-7,-4,2,5,-1,1,-6
15:28:18:991988,-3,1,1,-20,3,6,0,-5
15:28:18:999960,-3,1,1,-20,3,6,0,-5
15:28:19:15200,-3,1,0,7,16,-5,-4,0
15:28:19:15987,-2,-1,0,47,-6,-2,-2,-5
15:28:19:22685,-2,-1,0,47,-6,-2,-2,-5
15:28:19:23476,3,-8,-16,5,-4,3,3,1
15:28:19:29474,-2,2,-12,-32,-1,2,-3,-1
15:28:19:37708,-2,2,-12,-32,-1,2,-3,-1
15:28:19:38541,-4,-1,-8,-12,-5,-4,0,-1
15:28:19:52046,1,5,3,-3,-6,-5,-1,-1
15:28:19:60223,1,5,3,-3,-6,-5,-1,-1
15:28:19:61011,1,0,3,-5,12,6,0,-4
15:28:19:66993,-3,-4,-6,-1,7,-4,-1,-5
15:28:19:82707,-3,-4,-6,-1,7,-4,-1,-5
15:28:19:83489,0,-5,1,-12,-13,-4,-3,-1
15:28:19:89487,-3,-11,-13,2,-1,2,1,-1
15:28:19:97706,-3,-11,-13,2,-1,2,1,-1
15:28:19:98499,1,-1,-4,-28,-1,-2,-2,0
15:28:19:112045,-3,-4,-12,9,3,0,-2,-3
15:28:19:120214,-3,-4,-12,9,3,0,-2,-3
15:28:19:121020,1,-3,-5,3,-1,1,1,1
15:28:19:134507,0,-2,-4,-32,-3,0,0,-1
15:28:19:142703,0,-2,-4,-32,-3,0,0,-1
15:28:19:143508,-3,6,5,18,9,0,-3,0
15:28:19:149559,-4,-9,-18,-1,-6,-2,-1,-3
15:28:19:157051,-4,-9,-18,-1,-6,-2,-1,-3
15:28:19:164487,1,-4,-5,-8,-4,-3,0,-1
15:28:19:171994,-3,5,6,10,3,-1,-3,1
15:28:19:180204,-3,5,6,10,3,-1,-3,1
15:28:19:181016,-2,-3,3,7,-4,-4,-2,-2
15:28:19:194517,-1,-7,14,3,2,-2,-1,-3
15:28:19:202708,-1,-7,14,3,2,-2,-1,-3
15:28:19:203485,2,9,-1,4,2,1,3,-1
15:28:19:209495,-4,-2,-4,1,-6,-6,-1,-1
15:28:19:217075,-4,-2,-4,1,-6,-6,-1,-1
15:28:19:232680,2,3,-2,1,2,-2,-2,0
15:28:19:233514,0,-5,5,5,-1,0,0,-1
15:28:19:240226,0,-5,5,5,-1,0,0,-1
15:28:19:241008,-2,-12,-25,-6,-1,-1,1,0
15:28:19:254496,1,-2,12,10,4,3,-2,-2
15:28:19:262683,1,-2,12,10,4,3,-2,-2
15:28:19:263489,-1,2,26,22,-3,-1,-1,-1
15:28:19:269549,0,9,5,5,0,1,1,0
15:28:19:277012,0,9,5,5,0,1,1,0
15:28:19:284478,-1,2,2,-2,1,2,-2,0
15:28:19:291986,1,6,-2,-4,-5,0,1,-1
15:28:19:300216,1,6,-2,-4,-5,0,1,-1
15:28:19:301010,1,-7,5,-3,-4,-5,-3,-5
15:28:19:314534,-2,2,2,-4,-2,-1,-4,-1
15:28:19:322718,-2,2,2,-4,-2,-1,-4,-1
15:28:19:323477,-5,1,-4,-5,-5,2,1,0
15:28:19:329495,1,-7,-4,-12,7,2,2,0
15:28:19:337078,1,-7,-4,-12,7,2,2,0
15:28:19:344482,0,2,-6,1,10,-4,-3,-3
15:28:19:351984,-3,1,-9,1,-3,-4,0,-3
15:28:19:360241,-3,1,-9,1,-3,-4,0,-3
15:28:19:361038,-2,-3,-15,-9,-3,-1,2,2
15:28:19:374477,0,-8,-16,-8,4,-1,1,1
15:28:19:382714,0,-8,-16,-8,4,-1,1,1
15:28:19:383529,-3,3,-2,-2,-5,-3,-2,-3
15:28:19:389503,-1,-1,8,1,-3,-1,-2,-1
15:28:19:397057,-1,-1,8,1,-3,-1,-2,-1
15:28:19:404501,-1,-2,2,4,0,0,-3,-1
15:28:19:412007,-5,1,1,8,0,-2,-3,-1
15:28:19:420243,-5,1,1,8,0,-2,-3,-1
15:28:19:421007,-4,1,-3,-7,-4,-2,-1,-4
15:28:19:434476,2,-5,0,3,-1,-3,-2,1
15:28:19:442741,2,-5,0,3,-1,-3,-2,1
15:28:19:443502,-1,-4,-1,0,10,2,4,4
15:28:19:449510,2,-2,9,4,1,1,-2,-4
15:28:19:457070,2,-2,9,4,1,1,-2,-4
15:28:19:464519,1,-1,-8,-13,-8,-3,-2,-1
15:28:19:472013,-4,-7,-2,-9,0,0,1,2
15:28:19:480293,-4,-7,-2,-9,0,0,1,2
15:28:19:480967,-4,0,7,5,-2,0,2,-2
15:28:19:494494,0,0,0,0,1,0,-4,1
15:28:19:502689,0,0,0,0,1,0,-4,1
15:28:19:503463,-2,-5,-3,-1,1,0,2,-3
15:28:19:509577,1,3,-10,-5,-5,1,3,2
15:28:19:517060,1,3,-10,-5,-5,1,3,2
15:28:19:532696,0,1,-1,5,-1,-1,-3,0
15:28:19:533482,-4,-6,-7,-1,-3,-3,0,-6
15:28:19:540259,-4,-6,-7,-1,-3,-3,0,-6
15:28:19:541035,-3,-12,-5,-18,-9,1,1,-4
15:28:19:563119,2,5,0,-6,-4,2,2,-1
15:28:19:563928,2,5,0,-6,-4,2,2,-1
15:28:19:570125,0,1,6,7,2,-2,-4,-1
15:28:19:570969,-2,-7,3,0,-3,-4,0,-1
15:28:19:577055,-2,-7,3,0,-3,-4,0,-1
15:28:19:584473,0,2,-2,3,0,0,1,0
15:28:19:591997,3,9,1,-1,0,0,-2,-1
15:28:19:600258,3,9,1,-1,0,0,-2,-1
15:28:19:601032,-10,-4,-2,-5,-2,-5,-4,-1
15:28:19:614493,0,5,3,0,-5,-4,-3,1
15:28:19:622711,0,5,3,0,-5,-4,-3,1
15:28:19:623500,1,3,-2,-1,-5,0,-1,-1
15:28:19:629465,1,3,2,0,2,-2,-1,-1
15:28:19:637082,1,3,2,0,2,-2,-1,-1
15:28:19:644496,-5,-7,-4,3,5,1,-2,-1
15:28:19:652036,1,7,-1,13,-3,-2,0,-1
15:28:19:660226,1,7,-1,13,-3,-2,0,-1
15:28:19:661003,4,3,2,-1,1,3,2,2
15:28:19:674487,-6,0,1,-6,1,0,-2,0
15:28:19:683174,-6,0,1,-6,1,0,-2,0
15:28:19:690198,-4,-11,0,0,-3,-2,-4,-3
15:28:19:690958,0,4,-1,-2,-2,-2,-2,-1
15:28:19:697033,0,4,-1,-2,-2,-2,-2,-1
15:28:19:704522,3,0,-3,2,5,-2,-1,2
15:28:19:712015,0,-7,2,-1,-1,-4,-5,-5
15:28:19:720216,0,-7,2,-1,-1,-4,-5,-5
15:28:19:720994,2,-1,-1,9,0,-5,5,-1
15:28:19:734513,5,-2,0,-6,1,3,10,-1
15:28:19:750891,5,-2,0,-6,1,3,10,-1
15:28:19:751687,-19,-17,-5,-4,3,3,8,-1
15:28:19:752489,0,6,2,-6,-5,-2,5,0
15:28:19:757048,0,6,2,-6,-5,-2,5,0
15:28:19:764513,10,9,4,-1,1,2,1,2
15:28:19:772010,-4,-6,-4,2,-1,1,-9,-5
15:28:19:780207,-4,-6,-4,2,-1,1,-9,-5
15:28:19:780992,-1,7,0,-3,-2,-2,-6,1
15:28:19:804021,-2,-1,-2,-5,-2,1,-17,-1
15:28:19:804842,-2,-1,-2,-5,-2,1,-17,-1
15:28:19:805629,2,-3,1,-5,-1,5,-13,1
15:28:19:809506,0,-3,1,1,3,0,0,1
15:28:19:817070,0,-3,1,1,3,0,0,1
15:28:19:824544,-13,-15,-8,2,-7,-5,-1,-6
15:28:19:831989,-3,11,-1,2,3,-1,-20,3
15:28:19:840236,-3,11,-1,2,3,-1,-20,3
15:28:19:841054,10,8,1,-4,-3,0,29,1
15:28:19:863353,-1,-11,-1,-1,1,-3,21,-1
15:28:19:864209,-1,-11,-1,-1,1,-3,21,-1
15:28:19:864980,8,15,2,-2,2,2,-19,1
15:28:19:869470,-78,21,0,1,-2,2,-7,-2
15:28:19:877093,-78,21,0,1,-2,2,-7,-2
15:28:19:884510,64,1,-6,-2,-1,-4,19,-1
15:28:19:891979,7,-6,-3,-1,-2,-5,-1,-3
15:28:19:900266,7,-6,-3,-1,-2,-5,-1,-3
15:28:19:901041,-16,6,-2,1,-6,1,-19,-6
15:28:19:914970,126,1,0,-7,-1,-2,-7,-2
15:28:19:922716,126,1,0,-7,-1,-2,-7,-2
15:28:19:923527,-20,-5,1,-6,-1,-2,2,-9
15:28:19:929475,-119,-6,-1,4,-2,-3,-3,-1
15:28:19:937074,-119,-6,-1,4,-2,-3,-3,-1
15:28:19:944500,-30,-10,3,-2,-6,-1,-11,3
15:28:19:952003,46,-11,-3,-2,-2,2,3,-1
15:28:19:960245,46,-11,-3,-2,-2,2,3,-1
15:28:19:960978,2,-8,-4,-1,1,-5,-6,-4
15:28:19:974499,3,-6,1,-1,3,0,-2,-2
15:28:19:982743,3,-6,1,-1,3,0,-2,-2
15:28:19:983514,0,-2,-1,-3,5,4,1,0
15:28:19:989513,-16,-14,-3,-2,-4,-3,0,-1
15:28:19:997043,-16,-14,-3,-2,-4,-3,0,-1
15:28:20:4519,1,12,1,-2,-2,-4,-6,1
15:28:20:12015,-3,-15,1,1,0,2,4,-1
15:28:20:20230,-3,-15,1,1,0,2,4,-1
15:28:20:21013,-5,3,-1,0,-4,-1,-6,2
15:28:20:34506,49,10,1,-1,-1,-2,-5,-3
15:28:20:42681,49,10,1,-1,-1,-2,-5,-3
15:28:20:43480,-20,-6,-5,0,2,-3,-4,2
15:28:20:49505,-46,-2,-5,-4,-1,-2,6,2
15:28:20:57033,-46,-2,-5,-4,-1,-2,6,2
15:28:20:64489,-9,-27,2,6,5,-2,0,-5
15:28:20:80869,4,-13,1,-1,0,1,3,2
15:28:20:81640,4,-13,1,-1,0,1,3,2
15:28:20:82443,0,17,5,5,3,1,3,-2
15:28:20:94514,1,-2,-7,0,-6,-3,-9,-3
15:28:20:102692,1,-2,-7,0,-6,-3,-9,-3
15:28:20:103449,-6,10,-1,-1,-4,-2,-8,0
15:28:20:118099,0,18,1,-3,-1,2,-10,-7
15:28:20:118945,0,18,1,-3,-1,2,-10,-7
15:28:20:124492,6,1,0,0,-2,-1,-5,1
15:28:20:132025,-15,-5,-5,-7,-6,-5,6,0
15:28:20:139572,-15,-5,-5,-7,-6,-5,6,0
15:28:20:147012,4,-10,1,-3,0,1,4,-1
15:28:20:154495,-2,-4,-1,3,0,-1,4,0
15:28:20:162674,-2,-4,-1,3,0,-1,4,0
15:28:20:163450,5,2,-4,0,-9,-5,7,3
15:28:20:177671,0,-15,-3,3,-4,-3,-1,-2
15:28:20:178464,0,-15,-3,3,-4,-3,-1,-2
15:28:20:192677,-2,10,-3,-5,-3,-1,1,-4
15:28:20:193439,-1,8,3,-2,2,0,11,6
15:28:20:199574,-1,8,3,-2,2,0,11,6
15:28:20:207032,-6,-6,-4,-3,-4,-2,13,-2
15:28:20:214511,-11,11,-2,-2,2,1,6,-2
15:28:20:222730,-11,11,-2,-2,2,1,6,-2
15:28:20:223500,-1,-2,-5,-4,-7,-4,-5,-3
15:28:20:237711,5,-2,-1,0,-2,0,-7,-1
15:28:20:238505,5,-2,-1,0,-2,0,-7,-1
15:28:20:244521,-7,0,2,2,2,1,-9,-7
15:28:20:252009,-7,-2,2,-4,1,-2,-5,-1
15:28:20:259499,-7,-2,2,-4,1,-2,-5,-1
15:28:20:267013,1,-5,-2,-2,1,3,-5,-2
15:28:20:274501,7,14,3,3,2,0,2,3
15:28:20:282684,7,14,3,3,2,0,2,3
15:28:20:283502,0,4,-3,-3,-4,-1,-2,-2
15:28:20:305860,4,0,-1,-3,-5,-4,4,0
15:28:20:306701,4,0,-1,-3,-5,-4,4,0
15:28:20:307507,10,0,2,1,4,0,9,7
15:28:20:311974,7,-4,-2,-4,3,3,3,-7
15:28:20:319589,7,-4,-2,-4,3,3,3,-7
15:28:20:327018,-3,2,-1,-2,-4,-4,0,1
15:28:20:334514,-7,-1,-2,-2,-2,-2,-10,-2
15:28:20:342679,-7,-1,-2,-2,-2,-2,-10,-2
15:28:20:343489,4,-8,0,0,1,0,4,5
15:28:20:358143,-6,-22,-4,5,4,2,-1,0
15:28:20:358954,-6,-22,-4,5,4,2,-1,0
15:28:20:364523,-1,2,-2,-1,-3,1,0,-2
15:28:20:372025,-6,3,-1,-1,-2,-1,-2,1
15:28:20:379608,-6,3,-1,-1,-2,-1,-2,1
15:28:20:386970,-2,9,0,-1,-2,-4,-2,-2
15:28:20:394492,3,6,-3,-1,1,3,5,0
15:28:20:402671,3,6,-3,-1,1,3,5,0
15:28:20:403481,4,3,-1,-2,-3,-4,-4,-5
15:28:20:418152,2,-3,0,1,-4,2,21,-3
15:28:20:418949,2,-3,0,1,-4,2,21,-3
15:28:20:424461,2,4,0,-1,0,-1,-10,-3
15:28:20:432012,1,3,-1,-2,2,0,-13,-13
15:28:20:439520,1,3,-1,-2,2,0,-13,-13
15:28:20:446992,-10,-1,-3,2,-3,0,9,-7
15:28:20:454457,-1,1,-1,-3,0,0,0,7
15:28:20:462737,-1,1,-1,-3,0,0,0,7
15:28:20:463472,-9,-27,-3,-2,-1,-4,-10,-6
15:28:20:477695,-7,-17,0,-2,2,0,5,-7
15:28:20:478495,-7,-17,0,-2,2,0,5,-7
15:28:20:484485,11,-1,0,-2,3,0,3,11
15:28:20:491969,2,2,-3,1,-6,-1,-13,-4
15:28:20:499618,2,2,-3,1,-6,-1,-13,-4
15:28:20:506975,-3,12,0,-1,0,3,5,-3
15:28:20:514492,-14,-36,-4,-2,-3,-4,-3,7
15:28:20:522732,-14,-36,-4,-2,-3,-4,-3,7
15:28:20:523525,-11,-17,-2,-3,1,4,-6,-1
15:28:20:537724,-4,-7,-5,-4,-5,-2,14,2
15:28:20:538519,-4,-7,-5,-4,-5,-2,14,2
15:28:20:544500,-13,5,2,0,0,-2,0,9
15:28:20:552039,2,10,3,-3,-1,-3,-11,-6
15:28:20:559581,2,10,3,-3,-1,-3,-11,-6
15:28:20:566980,6,9,-4,1,-3,-2,0,5
15:28:20:574471,-2,-3,-1,4,1,-1,-7,-5
15:28:20:582685,-2,-3,-1,4,1,-1,-7,-5
15:28:20:583455,1,11,-2,-1,-1,0,-6,7
15:28:20:597741,6,10,-1,-3,-3,-4,-3,11
15:28:20:598556,6,10,-1,-3,-3,-4,-3,11
15:28:20:604510,-2,-2,-2,0,1,3,-12,3
15:28:20:611989,2,-11,-1,-1,-1,-4,-3,-8
15:28:20:619613,2,-11,-1,-1,-1,-4,-3,-8
15:28:20:627027,4,-14,-1,0,-1,-3,1,-11
15:28:20:634537,-3,-9,-3,1,0,3,4,0
15:28:20:642699,-3,-9,-3,1,0,3,4,0
15:28:20:643466,9,5,-2,-3,1,0,3,-7
15:28:20:657675,13,2,2,-3,-1,3,23,5
15:28:20:658494,13,2,2,-3,-1,3,23,5
15:28:20:664539,-4,8,-1,-1,-3,-2,0,-20
15:28:20:672027,-3,8,2,-4,1,0,-6,-3
15:28:20:679532,-3,8,2,-4,1,0,-6,-3
15:28:20:695227,-10,-8,2,-1,-3,0,-2,-9
15:28:20:695961,-9,-26,-1,1,-1,-1,-3,7
15:28:20:702670,-9,-26,-1,1,-1,-1,-3,7
15:28:20:703464,2,0,1,2,5,2,-1,6
15:28:20:717711,6,12,-1,1,2,-1,-9,5
15:28:20:718520,6,12,-1,1,2,-1,-9,5
15:28:20:724531,2,-12,-2,5,-2,-4,-7,-7
15:28:20:732041,4,16,1,2,-1,-1,4,12
15:28:20:739516,4,16,1,2,-1,-1,4,12
15:28:20:747024,1,15,-3,-2,-2,-1,5,6
15:28:20:754526,-3,12,-5,-4,-4,-3,-11,-14
15:28:20:762729,-3,12,-5,-4,-4,-3,-11,-14
15:28:20:763483,6,-11,-1,0,4,1,-9,-2
15:28:20:777661,-1,18,0,-3,-1,-6,6,-22
15:28:20:778513,-1,18,0,-3,-1,-6,6,-22
15:28:20:784519,-9,-11,-3,-4,0,-2,2,8
15:28:20:799931,0,-2,-3,-3,0,1,4,8
15:28:20:807721,0,-2,-3,-3,0,1,4,8
15:28:20:808565,2,2,3,1,-3,-4,1,-2
15:28:20:814489,2,15,-4,0,-3,5,9,3
15:28:20:822703,2,15,-4,0,-3,5,9,3
15:28:20:823465,-3,-5,0,0,1,2,-8,-19
15:28:20:837730,-5,-1,0,-1,1,-3,-7,-1
15:28:20:838523,-5,-1,0,-1,1,-3,-7,-1
15:28:20:844518,15,14,-1,-4,-5,-4,5,3
15:28:20:860240,3,-1,-1,1,0,-1,-20,-8
15:28:20:861038,3,-1,-1,1,0,-1,-20,-8
15:28:20:866987,0,9,3,-1,-2,-1,6,2
15:28:20:874489,0,5,0,-3,-4,-4,4,9
15:28:20:882678,0,5,0,-3,-4,-4,4,9
15:28:20:883485,4,2,-1,2,-3,0,4,-8
15:28:20:897727,-3,-15,-1,-1,3,3,7,-5
15:28:20:898549,-3,-15,-1,-1,3,3,7,-5
15:28:20:904497,-5,7,-1,-1,1,0,8,5
15:28:20:912016,-11,-1,-1,-4,-2,-2,0,6
15:28:20:919528,-11,-1,-1,-4,-2,-2,0,6
15:28:20:927028,-10,3,-1,-4,2,-1,5,-4
15:28:20:934537,-6,-13,2,-1,-1,-2,-10,-4
15:28:20:942705,-6,-13,2,-1,-1,-2,-10,-4
15:28:20:943492,-9,-18,-3,-2,0,1,1,1
15:28:20:957675,10,7,-3,0,-1,-3,-4,-17
15:28:20:958489,10,7,-3,0,-1,-3,-4,-17
15:28:20:972648,-4,-21,-3,-2,0,0,-3,6
15:28:20:973454,3,6,-1,0,-2,2,2,5
15:28:20:979597,3,6,-1,0,-2,2,2,5
15:28:20:987024,4,0,-5,-4,-5,-5,-11,-4
15:28:20:994489,0,5,1,-3,-3,-4,-9,-2
15:28:21:2673,0,5,1,-3,-3,-4,-9,-2
15:28:21:3482,-5,-2,-3,0,-4,-4,-1,-7
15:28:21:17734,0,-5,3,2,1,-1,2,-6
15:28:21:18553,0,-5,3,2,1,-1,2,-6
15:28:21:24523,-4,-15,2,-1,-1,1,-7,3
15:28:21:31992,0,20,0,-2,-2,0,6,-10
15:28:21:39536,0,20,0,-2,-2,0,6,-10
15:28:21:47014,0,-1,0,-3,2,-2,3,8
15:28:21:54536,-15,-27,-5,-1,-1,0,-1,6
15:28:21:62023,-15,-27,-5,-1,-1,0,-1,6
15:28:21:78079,-3,-2,0,-5,-1,0,11,-4
15:28:21:85825,2,9,0,0,-3,-4,-7,1
15:28:21:86663,2,9,0,0,-3,-4,-7,1
15:28:21:87460,0,7,-2,2,-1,-1,-10,-3
15:28:21:100271,1,-5,-2,-3,0,1,-5,7
15:28:21:100971,1,-5,-2,-3,0,1,-5,7
15:28:21:107019,-1,-9,-1,-1,-2,1,2,6
15:28:21:114544,4,-21,-3,1,0,-1,0,0
15:28:21:122029,4,-21,-3,1,0,-1,0,0
15:28:21:129541,7,8,1,-1,-1,-2,-4,-7
15:28:21:137666,-6,-15,0,-2,-7,-3,3,0
15:28:21:138516,-6,-15,0,-2,-7,-3,3,0
15:28:21:144501,0,3,-1,-2,2,-2,-2,5
15:28:21:160229,0,15,1,-2,3,4,-2,6
15:28:21:161015,0,15,1,-2,3,4,-2,6
15:28:21:166987,-8,-8,-3,2,-4,-3,1,3
15:28:21:174553,11,25,1,0,-3,-1,7,11
15:28:21:182066,11,25,1,0,-3,-1,7,11
15:28:21:189464,0,8,-5,1,-3,-1,-11,-8
15:28:21:197686,-2,-16,-1,-1,1,-2,-4,-16
15:28:21:198532,-2,-16,-1,-1,1,-2,-4,-16
15:28:21:204510,11,1,-1,0,-2,0,11,4
15:28:21:220227,-5,1,-5,-5,-3,-6,-2,-4
15:28:21:221039,-5,1,-5,-5,-3,-6,-2,-4
15:28:21:226984,2,20,-4,0,4,0,3,6
15:28:21:234469,7,15,0,-1,0,2,3,15
15:28:21:242059,7,15,0,-1,0,2,3,15
15:28:21:249512,-12,-6,-2,-3,0,0,-4,5
15:28:21:257704,-1,4,-1,1,0,-1,1,-7
15:28:21:258530,-1,4,-1,1,0,-1,1,-7
15:28:21:264483,-9,-21,4,-5,-1,1,-1,-7
15:28:21:280243,-8,5,0,0,-1,0,-4,4
15:28:21:280998,-8,5,0,0,-1,0,-4,4
15:28:21:287007,-4,-8,-2,-1,0,-3,-10,1
15:28:21:294522,3,2,2,1,-1,-2,-4,-3
15:28:21:310230,3,2,2,1,-1,-2,-4,-3
15:28:21:311029,-2,3,-1,2,0,-1,-3,-22
15:28:21:317718,-5,-36,-7,-2,-3,-3,-13,-7
15:28:21:318512,-5,-36,-7,-2,-3,-3,-13,-7
15:28:21:324470,3,-13,1,-4,-3,-2,2,8
15:28:21:340216,-3,-5,-5,1,-2,-1,7,9
15:28:21:341029,-3,-5,-5,1,-2,-1,7,9
15:28:21:346976,4,20,2,1,2,-1,-2,7
15:28:21:354477,3,6,1,-6,-2,-4,-11,2
15:28:21:362069,3,6,1,-6,-2,-4,-11,2
15:28:21:369477,-1,11,0,-1,-1,5,-1,2
15:28:21:377718,-6,-11,-5,3,-2,-2,-11,-15
15:28:21:378531,-6,-11,-5,3,-2,-2,-11,-15
15:28:21:384492,-3,0,0,3,-3,0,-5,-7
15:28:21:400221,4,11,0,-3,0,5,3,9
15:28:21:401041,4,11,0,-3,0,5,3,9
15:28:21:406975,7,6,-4,-5,-6,-4,5,4
15:28:21:422694,-1,-16,-1,2,0,-3,15,-5
15:28:21:423498,-1,-16,-1,2,0,-3,15,-5
15:28:21:429496,-1,8,-1,2,-1,-2,-1,-19
15:28:21:437744,-2,15,-3,-2,1,3,5,0
15:28:21:438549,-2,15,-3,-2,1,3,5,0
15:28:21:444485,1,4,0,-3,-1,-3,-10,-1
15:28:21:460232,7,-1,1,1,-1,1,-4,3
15:28:21:461005,7,-1,1,1,-1,1,-4,3
15:28:21:466994,-8,-15,0,-1,-7,-1,-1,-15
15:28:21:474488,0,-15,-2,1,-1,-1,-9,-3
15:28:21:482092,0,-15,-2,1,-1,-1,-9,-3
15:28:21:489489,2,16,-1,-1,4,2,-13,-4
15:28:21:497672,-3,12,1,0,1,-4,-6,-2
15:28:21:498494,-3,12,1,0,1,-4,-6,-2
15:28:21:504508,1,-10,-1,-4,-4,-1,-5,-6
15:28:21:520276,1,-4,0,0,-1,-3,-10,0
15:28:21:521063,1,-4,0,0,-1,-3,-10,0
15:28:21:534504,-1,10,-1,-1,-1,1,5,7
15:28:21:542721,-8,2,0,-1,-1,-3,10,1
15:28:21:543525,-8,2,0,-1,-1,-3,10,1
15:28:21:549524,-5,-8,-1,-1,0,-2,-1,4
15:28:21:557729,-1,-2,1,-1,-2,-2,-1,-12
15:28:21:558531,-1,-2,1,-1,-2,-2,-1,-12
15:28:21:564526,0,-10,-2,0,-3,-4,-1,-3
15:28:21:580704,-6,-2,-3,3,1,6,13,-7
15:28:21:581485,-6,-2,-3,3,1,6,13,-7
15:28:21:587017,0,-1,0,-4,-2,-1,5,-3
15:28:21:594510,4,4,2,-3,0,-2,0,7
15:28:21:602072,4,4,2,-3,0,-2,0,7
15:28:21:609475,-9,-10,-1,1,2,0,3,6
15:28:21:617661,-9,-10,-1,1,2,0,3,6
15:28:21:618478,-2,-10,-1,-1,-1,1,6,6
15:28:21:624524,-1,-23,-3,1,2,-1,-4,7
15:28:21:648358,-1,-23,-3,1,2,-1,-4,7
15:28:21:649188,1,8,1,-2,-3,-4,-18,-2
15:28:21:649962,2,0,-1,0,-3,-3,-10,3
15:28:21:662690,2,0,-1,0,-3,-3,-10,3
15:28:21:663476,-2,-5,-2,-5,-3,-2,-6,-1
15:28:21:669455,6,5,-6,-4,0,-1,-5,9
15:28:21:677731,6,5,-6,-4,0,-1,-5,9
15:28:21:678506,-8,4,1,0,1,-2,-5,-44
15:28:21:684465,8,-8,-5,0,-3,3,9,8
15:28:21:700278,8,-8,-5,0,-3,3,9,8
15:28:21:701016,0,9,-2,-3,4,2,0,3
15:28:21:706969,-6,-12,-1,1,-4,-3,-13,-9
15:28:21:722713,-6,-12,-1,1,-4,-3,-13,-9
15:28:21:723484,-2,-7,0,0,2,-2,-1,2
15:28:21:729474,-3,-14,-1,-1,1,-1,1,2
15:28:21:737716,-3,-14,-1,-1,1,-1,1,2
15:28:21:738516,-1,-4,-3,-2,-5,-4,-15,2
15:28:21:744487,-12,5,0,0,-1,-1,7,-15
15:28:21:760264,-12,5,0,0,-1,-1,7,-15
15:28:21:761007,-5,-21,-2,1,0,-1,2,3
15:28:21:766994,-7,-2,1,-2,-1,-4,-5,-9
15:28:21:782688,-7,-2,1,-2,-1,-4,-5,-9
15:28:21:783497,4,4,1,-1,0,4,4,9
15:28:21:789537,3,-3,0,-1,1,1,9,4
15:28:21:797717,3,-3,0,-1,1,1,9,4
15:28:21:798488,-1,-11,-1,-3,-3,-4,1,-15
15:28:21:804462,0,-14,-2,2,-2,1,1,0
15:28:21:820210,0,-14,-2,2,-2,1,1,0
15:28:21:820970,5,3,-1,-2,-3,-4,7,15
15:28:21:827001,-6,30,4,-9,1,-1,-5,1
15:28:21:842729,-6,30,4,-9,1,-1,-5,1
15:28:21:843514,10,-5,-5,-3,-2,1,13,17
15:28:21:849473,11,4,0,3,-2,-2,-2,21
15:28:21:857671,11,4,0,3,-2,-2,-2,21
15:28:21:858466,-1,11,-1,-2,-3,1,-9,4
15:28:21:864536,-14,-20,-1,2,-1,1,1,-13
15:28:21:880216,-14,-20,-1,2,-1,1,1,-13
15:28:21:880953,-4,-6,-3,-2,0,-1,17,15
15:28:21:887002,0,2,0,-2,0,-1,-8,-5
15:28:21:902739,0,2,0,-2,0,-1,-8,-5
15:28:21:903513,-10,-6,-1,0,-3,-2,-7,-12
15:28:21:909511,8,10,-1,-5,1,2,12,13
15:28:21:917682,8,10,-1,-5,1,2,12,13
15:28:21:918481,-3,6,0,1,3,2,-3,-7
15:28:21:924546,-4,-9,-3,-2,-4,-4,1,1
15:28:21:940266,-4,-9,-3,-2,-4,-4,1,1
15:28:21:941034,-5,-1,0,0,-1,0,-7,-8
15:28:21:946992,-8,-4,-1,3,-2,0,4,-1
15:28:21:962731,-8,-4,-1,3,-2,0,4,-1
15:28:21:963504,-10,-5,-3,-5,-1,-4,2,-15
15:28:21:969500,-7,0,-3,-2,-2,-3,7,2
15:28:21:977730,-7,0,-3,-2,-2,-3,7,2
15:28:21:978545,0,0,0,1,0,-4,-6,-2
15:28:21:984498,13,5,2,-1,3,2,-1,1
15:28:22:224,13,5,2,-1,3,2,-1,1
15:28:22:1027,-5,13,-1,-2,-4,-2,-3,-2
15:28:22:7005,-2,2,0,-2,0,2,0,-5
15:28:22:22722,-2,2,0,-2,0,2,0,-5
15:28:22:23509,8,-4,-5,0,-3,0,-1,10
15:28:22:38374,6,-17,0,3,-1,-3,-8,-1
15:28:22:39230,6,-17,0,3,-1,-3,-8,-1
15:28:22:40008,4,6,4,0,2,4,2,2
15:28:22:52056,6,11,-3,3,5,2,-3,3
15:28:22:60219,6,11,-3,3,5,2,-3,3
15:28:22:61019,-3,11,-1,-1,3,-1,-1,8
15:28:22:66968,2,-4,-2,-9,-9,-6,-15,-20
15:28:22:82703,2,-4,-2,-9,-9,-6,-15,-20
15:28:22:83511,-3,-9,0,-2,-3,-1,3,-14
15:28:22:89557,-18,-5,-3,-1,-4,-2,-6,-7
15:28:22:97699,-18,-5,-3,-1,-4,-2,-6,-7
15:28:22:98481,2,5,2,-2,-3,-2,-4,-7
15:28:22:112017,1,-27,-5,-2,10,4,5,5
15:28:22:120258,1,-27,-5,-2,10,4,5,5
15:28:22:121011,-11,-45,-1,12,3,0,-1,4
15:28:22:127015,0,5,0,8,-3,0,2,10
15:28:22:143782,0,5,0,8,-3,0,2,10
15:28:22:150232,-4,-11,-2,-15,-3,-3,-3,2
15:28:22:150972,-9,11,-7,10,6,-7,3,-8
15:28:22:157727,-9,11,-7,10,6,-7,3,-8
15:28:22:158516,5,16,2,7,-6,-1,-6,-8
15:28:22:172019,3,20,2,-10,-10,-1,1,-2
15:28:22:180252,3,20,2,-10,-10,-1,1,-2
15:28:22:180990,0,-12,-4,-5,3,1,-2,-6
15:28:22:187039,1,-1,4,8,1,1,5,11
15:28:22:202787,1,-1,4,8,1,1,5,11
15:28:22:203541,6,4,-2,-6,3,-1,1,11
15:28:22:209502,-2,-19,1,1,-7,1,1,8
15:28:22:217681,-2,-19,1,1,-7,1,1,8
15:28:22:218500,-3,8,3,6,-1,-1,-2,-28
15:28:22:232038,3,-4,0,-6,-2,-2,-3,-5
15:28:22:240240,3,-4,0,-6,-2,-2,-3,-5
15:28:22:240962,-1,2,-4,-6,-1,-3,-2,5
15:28:22:247012,-4,5,-1,1,5,-2,-6,-11
15:28:22:262754,-4,5,-1,1,5,-2,-6,-11
15:28:22:263521,9,24,1,0,-3,0,1,1
15:28:22:269493,17,-9,-4,-11,-5,-1,1,16
15:28:22:277744,17,-9,-4,-11,-5,-1,1,16
15:28:22:278484,-1,10,-2,2,0,3,-8,-6
15:28:22:292023,-3,16,-5,-5,-2,1,5,5
15:28:22:300240,-3,16,-5,-5,-2,1,5,5
15:28:22:301037,0,-1,-3,2,0,-1,7,5
15:28:22:307006,-3,-5,2,-2,1,1,-5,-4
15:28:22:314541,-3,-5,2,-2,1,1,-5,-4
15:28:22:322030,-8,-9,-4,-3,-4,-1,-3,-7
15:28:22:329548,6,1,-4,-9,-3,-2,0,-5
15:28:22:337681,6,1,-4,-9,-3,-2,0,-5
15:28:22:338483,-4,-16,-4,-7,-2,0,5,9
15:28:22:352003,0,-4,6,-5,-4,-3,9,9
15:28:22:360284,0,-4,6,-5,-4,-3,9,9
15:28:22:360977,0,9,6,5,-2,-7,1,4
15:28:22:367031,-5,14,0,-4,1,1,2,-17
15:28:22:374533,-5,14,0,-4,1,1,2,-17
15:28:22:381997,1,-1,2,-20,5,1,3,1
15:28:22:389481,-1,-2,1,-2,-7,-1,1,-6
15:28:22:397711,-1,-2,1,-2,-7,-1,1,-6
15:28:22:398482,-1,1,2,4,-3,-1,-10,-6
15:28:22:412005,-3,5,-2,2,1,1,-10,2
15:28:22:420241,-3,5,-2,2,1,1,-10,2
15:28:22:421011,-8,-14,-7,1,-4,-2,-3,-11
15:28:22:426994,-3,14,-3,7,0,-4,4,-16
15:28:22:434553,-3,14,-3,7,0,-4,4,-16
15:28:22:441982,-1,5,-6,2,2,3,-11,3
15:28:22:449491,-6,-5,2,-3,2,0,-7,-8
15:28:22:457712,-6,-5,2,-3,2,0,-7,-8
15:28:22:458519,0,3,0,-2,-5,-6,0,-3
15:28:22:480830,-7,2,-4,0,-2,0,-4,-17
15:28:22:481657,-7,2,-4,0,-2,0,-4,-17
15:28:22:482440,2,-36,0,1,4,1,7,6
15:28:22:487040,-1,-14,-1,3,12,-1,1,3
15:28:22:494530,-1,-14,-1,3,12,-1,1,3
15:28:22:502000,-6,-6,1,-5,-3,2,4,-11
15:28:22:509485,-4,-5,1,-5,-4,-2,-2,-4
15:28:22:517721,-4,-5,1,-5,-4,-2,-2,-4
15:28:22:518496,5,12,-2,-2,1,1,0,8
15:28:22:532036,4,-17,-5,-3,-6,-1,-2,19
15:28:22:540241,4,-17,-5,-3,-6,-1,-2,19
15:28:22:541005,-12,1,-11,12,-2,1,-5,-31
15:28:22:547011,-5,3,-2,-7,-6,-1,-1,-9
15:28:22:554579,-5,3,-2,-7,-6,-1,-1,-9
15:28:22:561982,7,18,3,12,3,-1,3,12
15:28:22:569486,-2,-5,-4,-1,-4,-5,-5,4
15:28:22:577733,-2,-5,-4,-1,-4,-5,-5,4
15:28:22:578528,-7,-1,-3,-9,-7,-8,-1,5
15:28:22:592004,7,5,2,21,13,1,6,2
15:28:22:600240,7,5,2,21,13,1,6,2
15:28:22:601025,-11,-5,3,-5,-6,-2,-4,-11
15:28:22:606998,7,15,5,4,8,4,0,0
15:28:22:614545,7,15,5,4,8,4,0,0
15:28:22:622016,13,10,2,1,-2,2,0,-5
15:28:22:629506,-11,-5,-6,-8,-8,-2,-6,-4
15:28:22:638150,-11,-5,-6,-8,-8,-2,-6,-4
15:28:22:644515,3,-6,1,-6,-6,-1,2,-3
15:28:22:652006,-7,-27,-4,8,4,3,1,15
15:28:22:660246,-7,-27,-4,8,4,3,1,15
15:28:22:660971,-16,-9,1,-4,-5,-3,-2,-5
15:28:22:667014,-10,-19,-3,-11,-9,-6,0,-16
15:28:22:674561,-10,-19,-3,-11,-9,-6,0,-16
15:28:22:681993,14,-3,1,-3,5,2,8,11
15:28:22:689457,-7,-6,2,-5,-1,-1,-8,10
15:28:22:697724,-7,-6,2,-5,-1,-1,-8,10
15:28:22:698513,-3,1,-3,0,2,-3,-14,-5
15:28:22:712025,5,14,-3,1,-3,1,12,-2
15:28:22:720270,5,14,-3,1,-3,1,12,-2
15:28:22:720986,11,30,-3,-6,-1,2,4,10
15:28:22:726976,7,14,0,-2,3,-1,-6,5
15:28:22:734537,7,14,0,-2,3,-1,-6,5
15:28:22:741995,-14,-10,2,3,-1,-4,-16,9
15:28:22:749483,-1,5,-2,-5,-2,-1,7,-3
15:28:22:757727,-1,5,-2,-5,-2,-1,7,-3
15:28:22:758520,-6,5,-11,-7,-6,-3,14,-13
15:28:22:771991,2,-2,2,-1,-5,-1,-2,7
15:28:22:780243,2,-2,2,-1,-5,-1,-2,7
15:28:22:781025,4,-9,0,1,2,1,6,-3
15:28:22:787001,0,-18,-2,-6,0,-3,-8,-20
15:28:22:802695,0,-18,-2,-6,0,-3,-8,-20
15:28:22:803513,6,11,2,2,0,0,-9,0
15:28:22:809480,10,13,4,-2,-3,-1,-5,14
15:28:22:817703,10,13,4,-2,-3,-1,-5,14
15:28:22:818514,1,-12,5,-7,-6,-3,11,9
15:28:22:832042,-3,0,-3,-7,13,0,3,7
15:28:22:840248,-3,0,-3,-7,13,0,3,7
15:28:22:841000,-3,-4,2,-2,0,1,0,2
15:28:22:846981,-8,-3,-5,3,-1,-3,2,-23
15:28:22:862700,-8,-3,-5,3,-1,-3,2,-23
15:28:22:863499,2,3,-3,1,3,0,-13,3
15:28:22:869541,2,4,-1,-1,-1,0,-4,7
15:28:22:877714,2,4,-1,-1,-1,0,-4,7
15:28:22:878510,1,-22,-6,0,0,-2,-8,-8
15:28:22:892040,2,-3,4,-2,-5,3,2,-5
15:28:22:900237,2,-3,4,-2,-5,3,2,-5
15:28:22:900986,-3,-1,2,4,4,2,12,10
15:28:22:907039,-5,1,-3,5,-11,-6,-21,-7
15:28:22:922676,-5,1,-3,5,-11,-6,-21,-7
15:28:22:923493,0,18,4,5,8,3,-1,-2
15:28:22:929496,-1,-7,-2,4,0,-1,17,-5
15:28:22:937070,-1,-7,-2,4,0,-1,17,-5
15:28:22:944493,-5,4,-1,-1,-5,-2,-13,-1
15:28:22:952011,-2,-4,-2,-4,-3,-5,-7,27
15:28:22:960275,-2,-4,-2,-4,-3,-5,-7,27
15:28:22:961017,-3,1,0,-3,-1,0,2,4
15:28:22:975250,6,4,-8,-6,-1,1,3,-8
15:28:22:976005,6,4,-8,-6,-1,1,3,-8
15:28:22:982010,0,-10,-6,0,-3,-2,12,-4
15:28:22:989479,5,7,4,0,-1,2,3,13
15:28:22:997060,5,7,4,0,-1,2,3,13
15:28:23:4494,-19,-12,-1,4,-2,1,-15,-20
15:28:23:12008,-10,6,-4,1,0,-4,-15,-31
15:28:23:20267,-10,6,-4,1,0,-4,-15,-31
15:28:23:21011,11,5,7,-6,-4,-1,11,5
15:28:23:35271,0,-10,2,5,-3,-1,-8,-10
15:28:23:36017,0,-10,2,5,-3,-1,-8,-10
15:28:23:42002,2,4,0,1,0,-3,3,20
15:28:23:49484,-1,-17,-4,-3,-3,-1,0,6
15:28:23:57057,-1,-17,-4,-3,-3,-1,0,6
15:28:23:64539,7,2,-3,-6,0,-1,3,12
15:28:23:71999,0,12,1,-3,0,1,-4,-2
15:28:23:80274,0,12,1,-3,0,1,-4,-2
15:28:23:81051,-3,-16,-8,-7,-3,-4,-14,-16
15:28:23:95259,0,3,1,-2,-3,0,1,-5
15:28:23:96031,0,3,1,-2,-3,0,1,-5
15:28:23:102005,2,-5,-1,2,4,1,-6,-7
15:28:23:109497,2,3,-1,1,1,2,4,4
15:28:23:117069,2,3,-1,1,1,2,4,4
15:28:23:124528,-2,-4,-1,4,-1,0,-1,-11
15:28:23:132034,1,6,-1,0,-3,-4,0,11
15:28:23:140252,1,6,-1,0,-3,-4,0,11
15:28:23:140995,1,5,-5,2,0,-2,-5,6
15:28:23:155189,-10,-29,-6,-7,-3,0,8,-8
15:28:23:155992,-10,-29,-6,-7,-3,0,8,-8
15:28:23:162026,0,-3,-4,-6,-5,0,6,-2
15:28:23:169527,-7,21,-6,-8,-3,-3,-9,-25
15:28:23:185258,-7,21,-6,-8,-3,-3,-9,-25
15:28:23:186050,-3,-1,1,-9,-3,-3,-1,3
15:28:23:191994,9,-1,0,2,0,-1,6,16
15:28:23:200248,9,-1,0,2,0,-1,6,16
15:28:23:201026,0,3,-1,1,-1,1,7,6
15:28:23:215246,-2,2,9,-5,0,0,-3,-11
15:28:23:216082,-2,2,9,-5,0,0,-3,-11
15:28:23:222024,5,-8,-3,1,-1,-1,-7,9
15:28:23:229501,3,-1,-2,1,-2,2,-8,-5
15:28:23:237116,3,-1,-2,1,-2,2,-8,-5
15:28:23:244539,9,-11,-3,-5,3,-1,4,8
15:28:23:260890,-10,-1,-1,15,6,0,0,21
15:28:23:261713,-10,-1,-1,15,6,0,0,21
15:28:23:262502,-5,11,2,-6,-2,0,-2,-3
15:28:23:275255,-4,-16,-8,-7,1,-2,2,-9
15:28:23:276064,-4,-16,-8,-7,1,-2,2,-9
15:28:23:282010,-4,8,8,-2,-4,0,2,-1
15:28:23:289488,2,10,1,-6,3,3,-2,4
15:28:23:297070,2,10,1,-6,3,3,-2,4
15:28:23:304533,-2,3,6,3,-1,-1,-5,-13
15:28:23:312022,6,15,-4,-3,0,0,5,7
15:28:23:320250,6,15,-4,-3,0,0,5,7
15:28:23:320950,-10,18,-6,10,2,-4,-5,-4
15:28:23:335257,-5,-6,-3,-2,-22,-2,-6,-2
15:28:23:336066,-5,-6,-3,-2,-22,-2,-6,-2
15:28:23:342058,-3,1,-1,-4,-13,-3,-4,-18
15:28:23:349535,3,3,0,-17,-6,-4,-4,-14
15:28:23:357068,3,3,0,-17,-6,-4,-4,-14
15:28:23:364536,-11,-7,-2,-3,11,8,7,11
15:28:23:372021,2,-8,9,14,-5,1,-1,12
15:28:23:380292,2,-8,9,14,-5,1,-1,12
15:28:23:380986,-3,3,-3,2,-6,-4,-2,-7
15:28:23:395172,-4,-22,-10,-17,11,3,5,-1
15:28:23:395993,-4,-22,-10,-17,11,3,5,-1
15:28:23:402005,9,-3,-4,-8,-13,0,1,1
15:28:23:409507,-1,-23,-5,7,-2,-2,2,1
15:28:23:417036,-1,-23,-5,7,-2,-2,2,1
15:28:23:424496,3,-12,-15,-14,-2,-4,-2,-6
15:28:23:432023,-1,-42,-10,12,3,-6,-1,-7
15:28:23:440270,-1,-42,-10,12,3,-6,-1,-7
15:28:23:441023,-4,2,5,34,13,-2,-1,5
15:28:23:455194,-6,18,6,-4,16,2,3,-1
15:28:23:456022,-6,18,6,-4,16,2,3,-1
15:28:23:461975,5,-2,5,8,-1,-1,0,1
15:28:23:469542,-1,1,-11,-9,-6,-2,-3,14
15:28:23:477050,-1,1,-11,-9,-6,-2,-3,14
15:28:23:484493,5,-20,-4,-19,-9,2,2,16
15:28:23:491996,9,33,-2,1,3,1,0,2
15:28:23:500255,9,33,-2,1,3,1,0,2
15:28:23:501017,-8,-21,-8,-6,3,-1,-4,11
15:28:23:515260,1,17,17,-6,-7,-4,0,0
15:28:23:516008,1,17,17,-6,-7,-4,0,0
15:28:23:522000,-2,23,-1,-11,3,0,-3,-39
15:28:23:537728,-15,-1,-3,-11,-8,0,0,-20
15:28:23:538544,-15,-1,-3,-11,-8,0,0,-20
15:28:23:544462,1,-8,-4,-7,-1,1,-1,9
15:28:23:552010,-2,-1,-5,1,2,-4,-6,-24
15:28:23:560287,-2,-1,-5,1,2,-4,-6,-24
15:28:23:561019,-4,4,-4,-26,-1,1,-1,-5
15:28:23:575278,-11,-26,4,12,-3,0,-1,4
15:28:23:576044,-11,-26,4,12,-3,0,-1,4
15:28:23:581995,-13,1,1,1,8,-5,-3,-5
15:28:23:589469,12,33,-7,-7,-8,1,2,15
15:28:23:597046,12,33,-7,-7,-8,1,2,15
15:28:23:604568,5,27,15,13,-2,3,0,18
15:28:23:611991,15,4,6,19,17,2,-3,2
15:28:23:620263,15,4,6,19,17,2,-3,2
15:28:23:621006,2,-12,-2,7,-1,-3,-2,-6
15:28:23:635586,-2,-14,-7,-7,4,-2,1,6
15:28:23:642748,-2,-14,-7,-7,4,-2,1,6
15:28:23:643492,-2,19,6,23,17,0,-5,-13
15:28:23:649491,-4,5,8,-7,-4,-2,-6,-24
15:28:23:657064,-4,5,8,-7,-4,-2,-6,-24
15:28:23:664482,-14,-15,-10,0,-15,-6,0,-30
15:28:23:672018,-4,-25,-2,0,2,-1,1,7
15:28:23:680256,-4,-25,-2,0,2,-1,1,7
15:28:23:681085,9,7,0,-5,-1,1,-1,9
15:28:23:695237,-9,-15,-14,-5,3,-1,0,0
15:28:23:696039,-9,-15,-14,-5,3,-1,0,0
15:28:23:701990,6,-26,-8,1,-5,-3,-5,-13
15:28:23:709494,6,14,7,-6,-12,0,-4,-10
15:28:23:717068,6,14,7,-6,-12,0,-4,-10
15:28:23:724537,-3,-5,-6,-1,-7,-4,1,-8
15:28:23:732043,-3,3,-4,-4,-7,-4,2,2
15:28:23:740240,-3,3,-4,-4,-7,-4,2,2
15:28:23:740981,-2,8,3,-9,0,-1,3,7
15:28:23:755167,-7,-21,3,10,0,0,0,5
15:28:23:756060,-7,-21,3,10,0,0,0,5
15:28:23:762021,-1,14,0,8,0,4,-2,7
15:28:23:769549,0,18,-2,-4,6,1,-1,7
15:28:23:777038,0,18,-2,-4,6,1,-1,7
15:28:23:784520,0,-28,-8,9,5,-1,2,6
15:28:23:792048,4,3,10,4,-6,-3,-2,1
15:28:23:800274,4,3,10,4,-6,-3,-2,1
15:28:23:800995,-7,-4,14,-8,-11,-4,-1,-3
15:28:23:815193,-5,-22,-8,-8,1,0,2,7
15:28:23:816000,-5,-22,-8,-8,1,0,2,7
15:28:23:821987,-3,-17,6,9,10,2,-1,18
15:28:23:829557,7,16,-1,3,-5,0,0,-2
15:28:23:845192,7,16,-1,3,-5,0,0,-2
15:28:23:846007,1,12,-2,-4,-5,-2,0,-2
15:28:23:852046,5,1,5,5,5,-2,0,6
15:28:23:860287,5,1,5,5,5,-2,0,6
15:28:23:861023,2,2,7,-7,-6,0,-3,-5
15:28:23:875181,-16,-2,-1,-1,-6,-3,0,-4
15:28:23:876000,-16,-2,-1,-1,-6,-3,0,-4
15:28:23:882034,4,2,4,-9,2,-2,-3,-4
15:28:23:897729,-3,8,-15,-10,-9,-2,-1,-1
15:28:23:898561,-3,8,-15,-10,-9,-2,-1,-1
15:28:23:904537,1,0,-4,-12,-5,-4,0,5
15:28:23:920272,2,4,4,5,2,-1,-4,-9
15:28:23:921043,2,4,4,5,2,-1,-4,-9
15:28:23:927014,3,-4,-13,1,-6,-1,0,3
15:28:23:935188,6,11,6,16,2,-1,-2,6
15:28:23:936005,6,11,6,16,2,-1,-2,6
15:28:23:942041,-3,-14,-7,-1,-4,-2,-2,-1
15:28:23:957745,-3,-7,2,-5,4,3,2,-2
15:28:23:958568,-3,-7,2,-5,4,3,2,-2
15:28:23:972668,-8,7,6,-4,-4,-2,-2,-15
15:28:23:973451,-4,-11,7,-1,0,0,-2,-1
15:28:23:979576,-4,-11,7,-1,0,0,-2,-1
15:28:23:987025,-1,-6,4,13,0,-2,-4,-1
15:28:23:995235,1,7,-3,-2,7,-1,-1,-4
15:28:23:996051,1,7,-3,-2,7,-1,-1,-4
15:28:24:2005,-7,-21,-2,-7,-3,-2,-2,-3
15:28:24:17688,7,14,5,-4,0,1,-4,6
15:28:24:18510,7,14,5,-4,0,1,-4,6
15:28:24:24499,0,2,-4,3,-1,-1,1,13
15:28:24:31987,-13,-23,-7,-11,-6,-2,-4,-21
15:28:24:39595,-13,-23,-7,-11,-6,-2,-4,-21
15:28:24:47037,2,10,3,-1,3,4,-2,-1
15:28:24:55172,2,7,-7,-14,-6,-1,-1,0
15:28:24:55997,2,7,-7,-14,-6,-1,-1,0
15:28:24:62027,-1,-2,-16,-19,4,2,2,0
15:28:24:77721,3,7,-6,3,2,3,-2,-3
15:28:24:78566,3,7,-6,3,2,3,-2,-3
15:28:24:84496,-2,-3,-25,1,-2,-3,1,6
15:28:24:92015,-6,-1,-3,14,15,-1,-3,0
15:28:24:99591,-6,-1,-3,14,15,-1,-3,0
15:28:24:107032,4,5,1,14,3,1,1,6
15:28:24:115180,5,15,5,4,-3,-2,-2,1
15:28:24:116008,5,15,5,4,-3,-2,-2,1
15:28:24:122018,-2,-14,-2,-30,-2,2,-5,-3
15:28:24:137668,-8,-14,13,-13,-3,1,3,1
15:28:24:138496,-8,-14,13,-13,-3,1,3,1
15:28:24:144533,-4,-4,1,9,-7,-2,-2,-7
15:28:24:152037,4,8,4,12,8,-2,2,2
15:28:24:159513,4,8,4,12,8,-2,2,2
15:28:24:167053,1,-1,-11,-9,3,0,0,4
15:28:24:175244,-4,-11,1,5,-4,-2,-1,-3
15:28:24:175937,-4,-11,1,5,-4,-2,-1,-3
15:28:24:189522,-2,5,5,-1,3,1,-3,2
15:28:24:197693,-10,-11,-8,-5,-8,-3,-1,-3
15:28:24:198491,-10,-11,-8,-5,-8,-3,-1,-3
15:28:24:204489,2,2,1,1,-5,1,5,1
15:28:24:211988,-4,0,-7,3,-4,-2,-4,2
15:28:24:219593,-4,0,-7,3,-4,-2,-4,2
15:28:24:226978,3,-1,2,2,-6,-5,2,-1
15:28:24:235852,-8,-35,-3,-13,-5,-2,0,-18
15:28:24:236668,-8,-35,-3,-13,-5,-2,0,-18
15:28:24:242005,8,24,-3,-6,-7,-4,-3,-11
15:28:24:257695,8,27,10,3,7,3,3,8
15:28:24:258522,8,27,10,3,7,3,3,8
15:28:24:264501,-3,11,6,3,3,-3,-1,-9
15:28:24:271979,-3,-7,-2,4,-7,-4,0,0
15:28:24:279584,-3,-7,-2,4,-7,-4,0,0
15:28:24:287014,-6,-1,-6,1,8,1,-1,4
15:28:24:295287,5,7,3,5,-6,1,-1,4
15:28:24:296065,5,7,3,5,-6,1,-1,4
15:28:24:302019,-4,-20,4,-15,4,0,-6,-18
15:28:24:317703,-5,-2,-25,-3,-7,-2,-4,0
15:28:24:318531,-5,-2,-25,-3,-7,-2,-4,0
15:28:24:324508,-2,11,3,-13,1,-1,-2,-2
15:28:24:332003,7,-7,1,-22,-6,-4,2,8
15:28:24:339607,7,-7,1,-22,-6,-4,2,8
15:28:24:355876,-5,-33,9,9,7,-3,-1,0
15:28:24:356695,-1,17,6,-1,0,-4,-3,0
15:28:24:357482,-1,17,6,-1,0,-4,-3,0
15:28:24:362009,0,22,4,15,1,1,1,-15
15:28:24:377706,5,2,-3,-1,-4,2,2,12
15:28:24:378522,5,2,-3,-1,-4,2,2,12
15:28:24:384486,-15,-1,-9,5,-7,-2,0,-9
15:28:24:391980,-1,2,4,-16,-4,1,-3,-5
15:28:24:399596,-1,2,4,-16,-4,1,-3,-5
15:28:24:415876,5,-3,6,-6,-3,-1,0,10
15:28:24:416659,-4,-14,-2,4,0,-1,0,0
15:28:24:417504,-4,-14,-2,4,0,-1,0,0
15:28:24:421979,6,-38,-21,-15,-7,1,1,12
15:28:24:437688,4,8,6,-2,-12,-4,-2,8
15:28:24:438503,4,8,6,-2,-12,-4,-2,8
15:28:24:444471,-5,4,6,-5,10,-1,-1,-1
15:28:24:451959,2,7,-1,0,13,-1,0,-6
15:28:24:467697,2,7,-1,0,13,-1,0,-6
15:28:24:468503,19,17,7,3,-8,-1,-1,3
15:28:24:475180,3,0,16,16,1,0,2,-3
15:28:24:476026,3,0,16,16,1,0,2,-3
15:28:24:481984,-3,6,8,-2,-4,-2,-3,-1
15:28:24:497693,-11,-38,-1,-5,-7,-2,-3,-19
15:28:24:498528,-11,-38,-1,-5,-7,-2,-3,-19
15:28:24:504536,-6,6,-8,3,-5,-4,-4,6
15:28:24:528435,1,7,-16,-11,8,1,0,0
15:28:24:529246,1,7,-16,-11,8,1,0,0
15:28:24:530016,-7,0,0,13,8,2,-5,0
15:28:24:535245,-22,-9,-6,4,-5,-3,0,-1
15:28:24:536050,-22,-9,-6,4,-5,-3,0,-1
15:28:24:542031,-4,4,4,1,-5,-4,-1,0
15:28:24:557700,7,6,14,15,11,-1,-5,-19
15:28:24:558519,7,6,14,15,11,-1,-5,-19
15:28:24:564512,-3,6,-10,-3,-12,0,1,-19
15:28:24:572011,2,2,-2,-10,-10,-1,1,2
15:28:24:579618,2,2,-2,-10,-10,-1,1,2
15:28:24:586998,3,-3,-6,-1,-2,-2,-1,-2
15:28:24:595183,2,-6,-7,0,1,-1,-3,0
15:28:24:596021,2,-6,-7,0,1,-1,-3,0
15:28:24:602056,-13,-10,-3,-7,-4,-2,-2,2
15:28:24:617739,4,0,-6,-3,-5,2,0,4
15:28:24:618551,4,0,-6,-3,-5,2,0,4
15:28:24:624511,9,13,0,-6,8,2,1,4
15:28:24:632018,0,1,-1,6,-6,-1,1,10
15:28:24:639532,0,1,-1,6,-6,-1,1,10
15:28:24:647037,1,4,-3,-4,-2,-3,2,13
15:28:24:655198,-8,-7,-4,10,-2,-1,-1,4
15:28:24:656008,-8,-7,-4,10,-2,-1,-1,4
15:28:24:661986,-8,-8,2,-15,9,1,3,-1
15:28:24:677720,-2,6,-7,-11,-8,-1,-5,-2
15:28:24:678496,-2,6,-7,-11,-8,-1,-5,-2
15:28:24:684523,3,4,-19,-8,-8,1,1,-7
15:28:24:692042,-2,1,-4,7,9,0,-2,-12
15:28:24:699515,-2,1,-4,7,9,0,-2,-12
15:28:24:707003,2,-5,-1,-7,-1,-1,4,12
15:28:24:715291,3,12,-3,-5,1,0,-1,3
15:28:24:716013,3,12,-3,-5,1,0,-1,3
15:28:24:721979,-7,-8,9,5,5,-1,-4,-1
15:28:24:737675,-9,-10,-8,8,13,1,-2,-9
15:28:24:738494,-9,-10,-8,8,13,1,-2,-9
15:28:24:744479,10,20,10,14,7,0,-2,-6
15:28:24:751963,12,5,-1,-1,-2,-1,1,8
15:28:24:759542,12,5,-1,-1,-2,-1,1,8
15:28:24:767009,-1,9,3,3,-6,0,0,-5
15:28:24:774503,0,-7,-4,-4,-1,-4,0,-24
15:28:24:782749,0,-7,-4,-4,-1,-4,0,-24
15:28:24:783521,-6,-8,-1,-2,-9,-4,-4,-11
15:28:24:797691,6,6,3,-6,-8,-2,2,9
15:28:24:798511,6,6,3,-6,-8,-2,2,9
15:28:24:804501,-6,-6,-5,-5,4,1,-1,-6
15:28:24:811995,-5,3,6,-7,-3,-1,-2,2
15:28:24:819587,-5,3,6,-7,-3,-1,-2,2
15:28:24:827012,1,-7,9,10,0,-2,1,9
15:28:24:835281,-9,-27,1,-1,-5,-4,-1,4
15:28:24:836063,-9,-27,1,-1,-5,-4,-1,4
15:28:24:849482,-3,-23,2,-6,5,3,-5,-6
15:28:24:857718,-4,-5,-8,-21,-4,2,2,12
15:28:24:858517,-4,-5,-8,-21,-4,2,2,12
15:28:24:864491,2,5,0,0,-10,-4,2,-2
15:28:24:880243,3,3,9,-1,-1,1,-2,2
15:28:24:881011,3,3,9,-1,-1,1,-2,2
15:28:24:886998,7,-11,-3,12,10,2,4,9
15:28:24:895271,-17,0,6,-3,-7,-5,-5,-13
15:28:24:896042,-17,0,6,-3,-7,-5,-5,-13
15:28:24:909519,-11,-8,-6,5,2,-1,-1,2
15:28:24:917718,5,24,4,5,1,0,2,-7
15:28:24:918523,5,24,4,5,1,0,2,-7
15:28:24:924514,4,7,-5,-14,-11,-3,-2,5
15:28:24:940172,-6,-13,-26,-14,8,1,-3,-7
15:28:24:941021,-6,-13,-26,-14,8,1,-3,-7
15:28:24:946994,6,-8,7,3,-6,-6,-3,-3
15:28:24:955267,2,-3,-4,14,-3,-2,0,7
15:28:24:956037,2,-3,-4,14,-3,-2,0,7
15:28:24:969505,-2,-19,-43,-20,-13,-2,-2,4
15:28:24:977701,1,9,4,9,-4,-3,1,-11
15:28:24:978549,1,9,4,9,-4,-3,1,-11
15:28:24:984471,-4,-7,-5,7,-2,-1,-1,-1
15:28:25:193,-7,20,-1,0,3,2,1,3
15:28:25:1000,-7,20,-1,0,3,2,1,3
15:28:25:6979,-13,3,14,3,-7,-4,-4,-17
15:28:25:15260,6,-1,-19,-9,-11,-4,1,5
15:28:25:16018,6,-1,-19,-9,-11,-4,1,5
15:28:25:29542,7,18,7,-16,1,-1,0,-5
15:28:25:37695,0,-30,12,-11,15,4,-1,7
15:28:25:38504,0,-30,12,-11,15,4,-1,7
15:28:25:44475,-1,0,5,5,1,0,-1,0
15:28:25:60186,5,4,7,-1,-2,0,-1,5
15:28:25:61025,5,4,7,-1,-2,0,-1,5
15:28:25:67019,-2,2,1,13,2,2,-3,-25
15:28:25:75163,-5,-10,-3,4,2,-2,-1,8
15:28:25:76038,-5,-10,-3,4,2,-2,-1,8
15:28:25:89545,-11,-22,0,0,-8,-5,-4,7
15:28:25:97689,2,-10,12,-16,-13,-3,0,-16
15:28:25:98492,2,-10,12,-16,-13,-3,0,-16
15:28:25:104545,2,21,-27,8,14,2,0,0
15:28:25:120200,5,0,6,-4,-11,-1,1,12
15:28:25:121017,5,0,6,-4,-11,-1,1,12
15:28:25:127063,-7,-19,-3,-7,-2,5,0,4
15:28:25:135211,-7,22,10,12,-6,-4,0,-5
15:28:25:136008,-7,22,10,12,-6,-4,0,-5
15:28:25:149572,2,-57,-2,-6,4,4,8,14
15:28:25:157706,2,-57,-2,-6,4,4,8,14
15:28:25:158514,-7,-14,-11,-4,-9,-3,-5,-4
15:28:25:164562,6,24,17,-4,-10,-4,1,9
15:28:25:180273,6,24,17,-4,-10,-4,1,9
15:28:25:181071,9,0,16,21,10,-2,-6,-4
15:28:25:187016,-1,3,32,-2,-10,-3,-4,-1
15:28:25:194565,-1,3,32,-2,-10,-3,-4,-1
15:28:25:202061,6,20,-30,-19,0,1,1,-5
15:28:25:209542,-3,46,10,-3,10,-1,-3,-3
15:28:25:217745,-3,46,10,-3,10,-1,-3,-3
15:28:25:218495,-1,2,8,-11,6,0,-2,15
15:28:25:224497,4,-7,-7,4,5,-3,0,-13
15:28:25:240199,4,-7,-7,4,5,-3,0,-13
15:28:25:241024,-6,-6,-7,-18,4,2,1,-2
15:28:25:247053,8,11,12,5,-8,-2,1,6
15:28:25:254552,8,11,12,5,-8,-2,1,6
15:28:25:262011,-2,-6,-2,6,1,0,2,-2
15:28:25:278357,2,-11,-18,-8,12,2,-7,-12
15:28:25:279176,2,-11,-18,-8,12,2,-7,-12
15:28:25:279962,3,1,-4,6,0,-1,-1,-13
15:28:25:284550,0,22,-2,5,-11,0,0,-8
15:28:25:300278,0,22,-2,5,-11,0,0,-8
15:28:25:301067,-1,-37,2,6,4,-1,0,-1
15:28:25:307024,-7,-3,-14,-5,8,0,0,6
15:28:25:314564,-7,-3,-14,-5,8,0,0,6
15:28:25:322051,-4,19,-3,-2,-1,4,-3,-7
15:28:25:329565,-4,3,6,14,-7,-3,-1,7
15:28:25:337726,-4,3,6,14,-7,-3,-1,7
15:28:25:338528,2,13,9,2,7,-2,2,6
15:28:25:344502,0,3,-18,-10,-10,-2,-2,3
15:28:25:360186,0,3,-18,-10,-10,-2,-2,3
15:28:25:361036,0,-10,-18,6,-2,-1,2,17
15:28:25:367032,6,8,14,-10,5,-1,3,1
15:28:25:374549,6,8,14,-10,5,-1,3,1
15:28:25:390178,-2,-25,6,-3,0,-3,-2,3
15:28:25:391021,-7,5,-15,2,-2,-2,-5,-10
15:28:25:397696,-7,5,-15,2,-2,-2,-5,-10
15:28:25:398521,4,-5,0,4,1,0,-8,-5
15:28:25:404541,-5,-6,-4,0,-2,1,2,15
15:28:25:420204,-5,-6,-4,0,-2,1,2,15
15:28:25:420990,-4,5,12,5,-3,0,0,7
15:28:25:427033,-4,6,0,-12,-13,-3,-3,-9
15:28:25:434555,-4,6,0,-12,-13,-3,-3,-9
15:28:25:442007,5,-1,-11,-2,-5,-4,-2,-10
15:28:25:449555,-2,-12,0,-5,1,-1,-1,-4
15:28:25:457707,-2,-12,0,-5,1,-1,-1,-4
15:28:25:458500,1,11,10,2,0,-3,-2,-9
15:28:25:464497,7,-35,-5,0,-1,-2,-1,-3
15:28:25:480204,7,-35,-5,0,-1,-2,-1,-3
15:28:25:481030,-1,2,-2,3,-1,3,0,2
15:28:25:487072,-7,-20,-7,-10,15,0,-1,7
15:28:25:494560,-7,-20,-7,-10,15,0,-1,7
15:28:25:502000,-8,0,-12,-7,-18,-2,0,-11
15:28:25:509505,10,10,5,1,12,1,0,1
15:28:25:517720,10,10,5,1,12,1,0,1
15:28:25:518570,-1,15,-5,-14,-2,-4,-2,-2
15:28:25:524497,4,4,6,-13,-14,-1,1,5
15:28:25:540286,4,4,6,-13,-14,-1,1,5
15:28:25:541039,-1,11,1,-10,-9,-2,-3,-8
15:28:25:547005,6,6,9,7,16,1,1,4
15:28:25:554580,6,6,9,7,16,1,1,4
15:28:25:562003,3,16,-4,-2,7,-2,-2,-10
15:28:25:569512,-10,-5,3,7,-10,-1,-1,1
15:28:25:577750,-10,-5,3,7,-10,-1,-1,1
15:28:25:578545,-1,1,8,1,7,1,-1,-10
15:28:25:584530,-9,10,1,-3,-5,-2,-1,-8
15:28:25:600288,-9,10,1,-3,-5,-2,-1,-8
15:28:25:601005,-4,-29,0,11,31,7,3,8
15:28:25:607009,-4,-2,-5,7,-3,-1,0,-2
15:28:25:614584,-4,-2,-5,7,-3,-1,0,-2
15:28:25:622018,-2,0,5,2,-11,-1,-4,2
15:28:25:629545,2,-3,-12,-4,-3,-2,-1,9
15:28:25:637767,2,-3,-12,-4,-3,-2,-1,9
15:28:25:638547,5,1,-19,10,-13,-4,-2,0
15:28:25:644543,-3,-7,1,-2,13,2,0,-9
15:28:25:660290,-3,-7,1,-2,13,2,0,-9
15:28:25:661065,-1,3,-33,9,4,0,1,6
15:28:25:667026,-4,-7,7,7,3,0,0,-2
15:28:25:674507,-4,-7,7,7,3,0,0,-2
15:28:25:682032,0,0,8,16,9,2,1,3
15:28:25:689521,7,14,-6,-13,-1,-3,-1,-3
15:28:25:697705,7,14,-6,-13,-1,-3,-1,-3
15:28:25:698526,-2,5,10,-7,-11,-2,-2,-5
15:28:25:704541,-3,-2,-6,5,23,-2,-4,0
15:28:25:720203,-3,-2,-6,5,23,-2,-4,0
15:28:25:720990,4,1,18,3,12,0,0,9
15:28:25:727034,-3,5,6,4,-3,1,-2,-2
15:28:25:734536,-3,5,6,4,-3,1,-2,-2
15:28:25:750169,-11,-10,11,1,-9,-5,-3,0
15:28:25:751022,-8,-1,1,-30,-20,-4,-2,-1
15:28:25:757704,-8,-1,1,-30,-20,-4,-2,-1
15:28:25:758531,-3,-6,-7,-6,-4,-3,-3,-15
15:28:25:764559,3,8,-2,1,-5,1,0,1
15:28:25:788397,3,8,-2,1,-5,1,0,1
15:28:25:789282,-8,-13,-9,-8,-11,0,0,4
15:28:25:789948,-4,-6,12,4,3,1,-4,-7
15:28:25:802758,-4,-6,12,4,3,1,-4,-7
15:28:25:803534,-11,-17,5,3,10,0,-4,2
15:28:25:809501,-2,-20,5,7,3,0,-2,-7
15:28:25:817755,-2,-20,5,7,3,0,-2,-7
15:28:25:818539,3,12,18,-7,0,1,-1,-4
15:28:25:831979,2,11,0,12,3,-1,0,-11
15:28:25:840304,2,11,0,12,3,-1,0,-11
15:28:25:841051,-2,-3,-5,-7,-10,-1,-1,-8
15:28:25:847023,5,4,-15,7,-6,-4,-2,0
15:28:25:854576,5,4,-15,7,-6,-4,-2,0
15:28:25:862024,-3,2,-9,3,10,1,1,3
15:28:25:869519,-5,-1,-2,-4,-3,-1,-3,4
15:28:25:877692,-5,-1,-2,-4,-3,-1,-3,4
15:28:25:878471,1,-2,-3,-7,-3,-3,-2,-4
15:28:25:899953,-3,-2,14,3,-17,-2,1,4
15:28:25:916585,-3,-2,14,3,-17,-2,1,4
15:28:25:917402,-2,-25,-5,-9,-9,-2,2,0
15:28:25:918271,4,12,0,-15,3,0,1,8
15:28:25:919006,4,12,0,-15,3,0,1,8
15:28:25:921999,-10,15,-6,-10,-17,-2,-4,7
15:28:25:929475,0,-11,-21,-13,4,-2,0,7
15:28:25:937726,0,-11,-21,-13,4,-2,0,7
15:28:25:938517,20,6,4,-11,12,1,0,3
15:28:25:952500,-15,-11,2,-4,-4,1,-2,-17
15:28:25:968414,-15,-11,2,-4,-4,1,-2,-17
15:28:25:969261,1,0,-3,9,-9,-3,2,0
15:28:25:970023,2,-9,-8,3,-4,2,0,-1
15:28:25:974553,2,-9,-8,3,-4,2,0,-1
15:28:25:982012,-3,-16,11,8,9,-1,-4,-14
15:28:25:989538,0,-7,-11,-2,-6,-1,-2,1
15:28:25:997699,0,-7,-11,-2,-6,-1,-2,1
15:28:25:998540,3,9,10,-5,-5,-2,1,-5
15:28:26:20889,-3,21,-4,-7,-7,-3,-4,-2
15:28:26:21736,-3,21,-4,-7,-7,-3,-4,-2
15:28:26:22510,-2,41,-3,-10,1,0,-2,-13
15:28:26:27031,6,15,5,7,9,0,0,-5
15:28:26:34603,6,15,5,7,9,0,0,-5
15:28:26:42019,-4,-22,-17,-5,1,-1,-2,-13
15:28:26:49539,3,-4,2,3,-2,-2,1,3
15:28:26:65953,3,-4,2,3,-2,-2,1,3
15:28:26:66683,0,15,-5,-11,-1,-1,0,10
15:28:26:80869,2,-9,8,6,1,1,-3,5
15:28:26:81702,2,-9,8,6,1,1,-3,5
15:28:26:82517,-11,-14,4,0,17,1,-1,7
15:28:26:87052,7,9,10,-3,-5,-4,0,2
15:28:26:94626,7,9,10,-3,-5,-4,0,2
15:28:26:102035,-1,-22,-20,-12,-8,0,2,13
15:28:26:118370,-3,-8,-24,-9,-7,-3,-2,0
15:28:26:119258,-3,-8,-24,-9,-7,-3,-2,0
15:28:26:119956,8,3,-1,-6,7,1,2,-2
15:28:26:132465,1,3,7,10,16,6,3,3
15:28:26:140647,1,3,7,10,16,6,3,3
15:28:26:147711,-22,-15,-1,8,-8,1,-5,-1
15:28:26:148482,-8,-1,-10,16,-6,-4,-1,-7
15:28:26:154602,-8,-1,-10,16,-6,-4,-1,-7
15:28:26:162048,3,-5,-2,17,-8,-6,1,4
15:28:26:169548,-3,-9,-8,-4,-5,-5,1,-1
15:28:26:185277,-3,-9,-8,-4,-5,-5,1,-1
15:28:26:186073,6,1,-1,0,16,3,3,-6
15:28:26:192007,0,-3,-9,-2,-6,-1,-3,-1
15:28:26:200281,0,-3,-9,-2,-6,-1,-3,-1
15:28:26:201043,5,-7,-12,-8,-20,-6,-3,-8
15:28:26:207024,-7,-15,4,-3,5,2,2,12
15:28:26:214551,-7,-15,4,-3,5,2,2,12
15:28:26:222030,-10,-21,-14,8,-4,-2,-1,6
15:28:26:229529,-4,-6,-2,-8,0,-2,-4,-12
15:28:26:245275,-4,-6,-2,-8,0,-2,-4,-12
15:28:26:246026,-2,2,14,-1,7,-1,1,-3
15:28:26:252017,-2,1,4,3,5,0,1,6
15:28:26:260206,-2,1,4,3,5,0,1,6
15:28:26:261018,3,-3,-1,-25,-1,1,-1,1
15:28:26:267045,1,8,0,-9,-6,1,-2,-2
15:28:26:274547,1,8,0,-9,-6,1,-2,-2
15:28:26:282004,-6,13,10,17,-2,-3,-1,2
15:28:26:298347,2,-15,1,-1,-9,-7,-1,-5
15:28:26:299190,2,-15,1,-1,-9,-7,-1,-5
15:28:26:299976,1,-8,-5,1,-2,2,-4,-4
15:28:26:312034,-2,9,6,12,5,1,-4,-1
15:28:26:320273,-2,9,6,12,5,1,-4,-1
15:28:26:321068,8,9,5,1,10,0,-1,1
15:28:26:327035,2,6,-3,14,-2,-1,-2,-2
15:28:26:334562,2,6,-3,14,-2,-1,-2,-2
15:28:26:342090,-9,-5,10,1,4,3,0,-2
15:28:26:349539,5,2,-1,3,-2,-1,0,6
15:28:26:357709,5,2,-1,3,-2,-1,0,6
15:28:26:358523,2,4,-9,9,-9,-1,1,0
15:28:26:372038,-6,5,1,-4,-12,-3,-1,-12
15:28:26:380233,-6,5,1,-4,-12,-3,-1,-12
15:28:26:381138,-1,-7,3,0,-5,-2,-1,-14
15:28:26:395191,3,0,-11,-1,2,0,5,6
15:28:26:395981,3,0,-11,-1,2,0,5,6
15:28:26:410197,0,-1,-13,0,-11,-6,-1,0
15:28:26:410964,-9,12,8,-6,1,3,-4,-3
15:28:26:417747,-9,12,8,-6,1,3,-4,-3
15:28:26:418549,4,10,-3,-4,-2,1,2,10
15:28:26:432010,-3,-11,-7,-6,-12,-4,-6,-8
15:28:26:440295,-3,-11,-7,-6,-12,-4,-6,-8
15:28:26:441059,11,8,6,-6,-3,1,0,7
15:28:26:447009,-9,-20,-3,-12,-1,-2,-4,-16
15:28:26:462724,-9,-20,-3,-12,-1,-2,-4,-16
15:28:26:463530,-4,-14,2,-2,1,-2,0,2
15:28:26:469488,1,-37,3,4,20,0,2,1
15:28:26:477774,1,-37,3,4,20,0,2,1
15:28:26:478545,-20,-34,-3,1,-11,-3,-3,0
15:28:26:492006,-15,-11,-3,-5,-4,-2,-4,2
15:28:26:500307,-15,-11,-3,-5,-4,-2,-4,2
15:28:26:501056,3,2,0,-18,-6,1,0,6
15:28:26:507020,13,22,-3,12,0,-1,-2,4
15:28:26:514605,13,22,-3,12,0,-1,-2,4
15:28:26:522022,6,20,-4,4,-10,-2,-2,-7
15:28:26:529551,9,16,5,-5,7,0,3,-5
15:28:26:537735,9,16,5,-5,7,0,3,-5
15:28:26:538484,-2,11,-1,0,-3,-4,-4,-3
15:28:26:560864,4,-6,8,-12,-9,0,0,14
15:28:26:561687,4,-6,8,-12,-9,0,0,14
15:28:26:562486,-2,-17,6,8,9,1,-5,-4
15:28:26:575240,-4,7,0,-1,-5,-2,2,1
15:28:26:576011,-4,7,0,-1,-5,-2,2,1
15:28:26:582010,-2,20,5,10,6,-2,-1,-2
15:28:26:589506,5,8,-11,6,-4,0,-2,4
15:28:26:597736,5,8,-11,6,-4,0,-2,4
15:28:26:598524,9,8,-4,5,8,-2,-2,0
15:28:26:612007,-8,-11,-7,7,4,1,0,-7
15:28:26:620313,-8,-11,-7,7,4,1,0,-7
15:28:26:621039,4,5,-4,-5,10,-3,-4,-9
15:28:26:627024,4,14,12,-2,2,0,0,3
15:28:26:634572,4,14,12,-2,2,0,0,3
15:28:26:642015,-6,-3,4,-3,3,-2,-3,-4
15:28:26:649531,2,-7,-9,-7,-9,-3,-3,3
15:28:26:657758,2,-7,-9,-7,-9,-3,-3,3
15:28:26:658572,-6,-4,-6,-11,-17,-1,-1,-8
15:28:26:672007,-4,-30,3,-2,20,5,1,2
15:28:26:680288,-4,-30,3,-2,20,5,1,2
15:28:26:681061,-7,-24,-11,0,-7,-1,-2,-3
15:28:26:687008,-1,4,0,4,-2,-2,-3,-9
15:28:26:694582,-1,4,0,4,-2,-2,-3,-9
15:28:26:702017,4,13,2,-1,0,-3,1,-6
15:28:26:709540,-4,-26,8,-6,-2,-2,0,-1
15:28:26:717701,-4,-26,8,-6,-2,-2,0,-1
15:28:26:718515,10,7,-2,8,6,1,4,14
15:28:26:732024,-5,3,9,13,12,-1,-4,-6
15:28:26:740280,-5,3,9,13,12,-1,-4,-6
15:28:26:741060,0,-10,-13,4,7,1,0,2
15:28:26:755280,4,15,-9,-5,4,4,-1,5
15:28:26:756045,4,15,-9,-5,4,4,-1,5
15:28:26:762004,-12,-19,7,2,1,-4,-3,-5
15:28:26:769510,-6,-37,-17,-3,-13,-3,-3,-6
15:28:26:777088,-6,-37,-17,-3,-13,-3,-3,-6
15:28:26:784540,2,6,4,-12,-19,-2,0,4
15:28:26:792039,2,11,4,-6,4,-1,-2,-8
15:28:26:800224,2,11,4,-6,4,-1,-2,-8
15:28:26:800997,-11,-9,0,10,0,-2,1,-4
15:28:26:815185,11,28,0,6,-8,-5,1,5
15:28:26:816019,11,28,0,6,-8,-5,1,5
15:28:26:822054,1,-14,1,1,-2,3,-1,8
15:28:26:837742,-6,-4,-1,-8,-5,-5,-4,-4
15:28:26:838538,-6,-4,-1,-8,-5,-5,-4,-4
15:28:26:844521,5,8,0,-10,-4,0,1,9
15:28:26:852028,-2,5,2,-5,-7,-3,0,-7
15:28:26:860304,-2,5,2,-5,-7,-3,0,-7
15:28:26:861063,12,6,-3,-6,7,3,2,-1
15:28:26:875299,-10,14,0,12,9,1,-1,3
15:28:26:876061,-10,14,0,12,9,1,-1,3
15:28:26:882058,-1,11,-5,-5,-2,0,0,1
15:28:26:889517,-1,-8,7,0,-1,-2,0,5
15:28:26:897112,-1,-8,7,0,-1,-2,0,5
15:28:26:904549,1,-4,5,5,1,-2,-4,-8
15:28:26:912065,9,-4,-9,-11,-2,0,-3,-7
15:28:26:920213,9,-4,-9,-11,-2,0,-3,-7
15:28:26:921009,-6,5,2,-4,-10,0,0,-2
15:28:26:934930,-2,10,5,2,-4,-1,0,-16
15:28:26:942717,-2,10,5,2,-4,-1,0,-16
15:28:26:943491,0,0,2,-1,-1,-2,0,1
15:28:26:949548,-2,0,5,3,-4,-3,-1,5
15:28:26:957066,-2,0,5,3,-4,-3,-1,5
15:28:26:964488,2,-6,-13,3,-1,-3,-3,-7
15:28:26:972046,-3,10,3,-10,-9,-2,-1,3
15:28:26:980209,-3,10,3,-10,-9,-2,-1,3
15:28:26:981024,-5,5,-9,-18,0,-3,-1,-5
15:28:26:995206,-10,-16,-2,-6,0,-1,0,-1
15:28:26:996030,-10,-16,-2,-6,0,-1,0,-1
15:28:27:1974,-4,-29,-19,-15,-5,-6,-4,-9
15:28:27:9538,8,-8,-4,-9,-5,1,5,10
15:28:27:17064,8,-8,-4,-9,-5,1,5,10
15:28:27:24524,-7,-14,0,6,1,-3,-2,-4
15:28:27:31993,-5,-16,-6,-3,-1,-5,-8,-5
15:28:27:40303,-5,-16,-6,-3,-1,-5,-8,-5
15:28:27:41042,-2,25,7,18,10,6,4,11
15:28:27:54971,18,22,2,1,0,-1,4,13
15:28:27:62710,18,22,2,1,0,-1,4,13
15:28:27:63516,-3,11,3,1,-8,-4,-2,2
15:28:27:69512,3,-16,-16,3,-1,-2,-1,-17
15:28:27:77098,3,-16,-16,3,-1,-2,-1,-17
15:28:27:84537,-3,14,6,-4,-7,-2,-1,-5
15:28:27:92007,-5,-5,-8,-13,0,1,-2,6
15:28:27:100303,-5,-5,-8,-13,0,1,-2,6
15:28:27:101064,3,6,4,-12,-10,-1,0,7
15:28:27:115727,-6,12,7,-2,-8,-3,-3,-7
15:28:27:116510,-6,12,7,-2,-8,-3,-3,-7
15:28:27:122013,4,2,-6,-4,20,4,2,-6
15:28:27:129542,-2,-14,5,3,1,0,-2,1
15:28:27:137097,-2,-14,5,3,1,0,-2,1
15:28:27:144549,5,0,9,6,-10,-6,0,4
15:28:27:151985,-6,-12,2,-6,-7,2,-1,-11
15:28:27:160240,-6,-12,2,-6,-7,2,-1,-11
15:28:27:161024,-4,-17,-14,-16,11,4,2,2
15:28:27:175315,1,-3,-4,3,-2,-5,2,5
15:28:27:176077,1,-3,-4,3,-2,-5,2,5
15:28:27:182048,-2,20,14,6,17,3,-4,-12
15:28:27:189557,-7,-1,1,6,-1,0,-1,5
15:28:27:197070,-7,-1,1,6,-1,0,-1,5
15:28:27:204563,1,-35,-5,12,15,-2,2,6
15:28:27:212042,-3,17,2,3,5,1,-2,3
15:28:27:220222,-3,17,2,3,5,1,-2,3
15:28:27:221037,-3,-12,8,-1,-14,-1,-1,9
15:28:27:235180,-2,7,11,11,-8,-3,-2,1
15:28:27:236020,-2,7,11,11,-8,-3,-2,1
15:28:27:242090,7,13,-7,-20,-12,-2,-4,-2
15:28:27:249532,3,5,-5,-5,7,-2,-2,1
15:28:27:257066,3,5,-5,-5,7,-2,-2,1
15:28:27:264489,-3,12,-2,7,-5,-1,-4,0
15:28:27:272003,0,5,-1,8,2,-2,0,-1
15:28:27:280220,0,5,-1,8,2,-2,0,-1
15:28:27:281038,0,2,0,-12,-5,-1,0,-6
15:28:27:295180,-4,13,1,-6,-10,2,-3,-5
15:28:27:296040,-4,13,1,-6,-10,2,-3,-5
15:28:27:302006,3,5,-2,3,-7,-3,-2,2
15:28:27:309479,-2,-6,-4,-10,-5,-2,-2,-4
15:28:27:317062,-2,-6,-4,-10,-5,-2,-2,-4
15:28:27:332696,-8,6,3,4,-2,-2,-2,-7
15:28:27:333507,-8,-18,-13,-10,-2,1,-5,-12
15:28:27:340217,-8,-18,-13,-10,-2,1,-5,-12
15:28:27:341032,-10,-39,-15,1,-2,0,0,-15
15:28:27:355176,6,-5,3,-10,11,2,1,7
15:28:27:355992,6,-5,3,-10,11,2,1,7
15:28:27:362035,2,-1,7,-4,2,-1,2,4
15:28:27:369520,4,4,6,5,15,0,2,0
15:28:27:377047,4,4,6,5,15,0,2,0
15:28:27:392706,-7,-22,4,10,0,0,0,2
15:28:27:393528,3,5,-1,-2,2,2,2,2
15:28:27:400239,3,5,-1,-2,2,2,2,2
15:28:27:401027,-6,-7,-4,-2,-2,0,-2,4
15:28:27:415234,-7,-10,5,9,0,-3,-1,-3
15:28:27:416017,-7,-10,5,9,0,-3,-1,-3
15:28:27:422038,21,-14,-2,-3,-4,-1,5,11
15:28:27:429566,-6,1,4,6,6,-1,-3,-11
15:28:27:437054,-6,1,4,6,6,-1,-3,-11
15:28:27:452724,0,9,4,-17,9,3,-1,-2
15:28:27:453460,5,4,-9,-7,-2,-3,-2,-1
15:28:27:460227,5,4,-9,-7,-2,-3,-2,-1
15:28:27:461011,3,-28,-1,-6,-6,-3,-2,6
15:28:27:475317,1,23,1,4,-7,-1,-3,-4
15:28:27:476070,1,23,1,4,-7,-1,-3,-4
15:28:27:482059,-14,17,0,4,-5,-2,0,-5
15:28:27:489515,-8,7,8,-7,-6,0,-1,-17
15:28:27:497071,-8,7,8,-7,-6,0,-1,-17
15:28:27:504546,7,13,10,12,5,1,-7,1
15:28:27:512042,1,-13,-17,-1,-2,-3,-1,7
15:28:27:520211,1,-13,-17,-1,-2,-3,-1,7
15:28:27:521022,-13,12,-4,6,1,-3,-2,-15
15:28:27:535181,9,9,6,-8,0,3,3,15
15:28:27:535998,9,9,6,-8,0,3,3,15
15:28:27:542033,-3,-6,-10,5,-5,-4,-2,-10
15:28:27:549538,-12,-8,-6,-7,-2,-2,1,-4
15:28:27:557083,-12,-8,-6,-7,-2,-2,1,-4
15:28:27:564492,-4,5,7,0,-2,-1,-1,6
15:28:27:571990,1,-5,-7,-5,-1,0,1,11
15:28:27:580202,1,-5,-7,-5,-1,0,1,11
15:28:27:581025,-3,17,-1,-2,-6,-3,-3,-10
15:28:27:595193,-5,-3,8,3,1,-3,-2,6
15:28:27:596020,-5,-3,8,3,1,-3,-2,6
15:28:27:602008,4,-23,-2,-9,14,3,3,10
15:28:27:609509,4,-46,11,-4,0,-1,-5,-13
15:28:27:617063,4,-46,11,-4,0,-1,-5,-13
15:28:27:624524,-12,-1,-3,3,-4,-2,-10,-33
15:28:27:632000,-2,9,-13,5,-3,0,4,-3
15:28:27:640313,-2,9,-13,5,-3,0,4,-3
15:28:27:641049,6,9,-1,8,22,2,4,8
15:28:27:655236,9,23,-9,7,-9,-3,-4,-1
15:28:27:656053,9,23,-9,7,-9,-3,-4,-1
15:28:27:662023,6,8,-25,-6,-17,-1,1,5
15:28:27:669570,4,8,11,9,5,-3,2,2
15:28:27:677092,4,8,11,9,5,-3,2,2
15:28:27:684523,-4,-1,2,3,-6,0,-3,0
15:28:27:692025,-6,-75,-15,-8,-10,-2,-1,-15
15:28:27:699649,-6,-75,-15,-8,-10,-2,-1,-15
15:28:27:707038,18,11,-4,-12,-2,-3,3,18
15:28:27:715180,4,32,6,-9,-6,1,8,21
15:28:27:715995,4,32,6,-9,-6,1,8,21
15:28:27:722040,0,-2,-9,-4,1,-1,-3,-7
15:28:27:737797,5,-1,4,-7,4,-1,-3,-5
15:28:27:738560,5,-1,4,-7,4,-1,-3,-5
15:28:27:744529,-7,17,-4,17,-6,-2,-1,-5
15:28:27:752015,-13,-9,-4,-1,-2,1,2,3
15:28:27:759522,-13,-9,-4,-1,-2,1,2,3
15:28:27:767024,-11,-13,16,4,-3,-4,-6,-25
15:28:27:775169,-9,4,-11,-1,-2,0,0,14
15:28:27:776037,-9,4,-11,-1,-2,0,0,14
15:28:27:782068,-8,2,17,-4,-1,3,0,-2
15:28:27:797669,0,35,-4,-4,6,0,-4,-8
15:28:27:798477,0,35,-4,-4,6,0,-4,-8
15:28:27:804525,6,-8,1,6,-9,-3,-2,9
15:28:27:812022,6,-3,-4,-1,3,-1,-2,2
15:28:27:819515,6,-3,-4,-1,3,-1,-2,2
15:28:27:826971,3,-2,-20,-9,2,-2,2,-1
15:28:27:835183,-7,7,13,3,-6,-5,-5,-16
15:28:27:836025,-7,7,13,3,-6,-5,-5,-16
15:28:27:841954,-16,-32,-16,-11,-3,0,-13,-15
15:28:27:857699,1,3,4,6,7,1,-3,-8
15:28:27:858504,1,3,4,6,7,1,-3,-8
15:28:27:864508,15,8,-4,-6,-2,1,4,0
15:28:27:872021,5,0,-4,-10,-8,0,3,4
15:28:27:879603,5,0,-4,-10,-8,0,3,4
15:28:27:887023,-1,-17,4,-6,7,0,11,5
15:28:27:895190,-1,-5,-22,-2,-14,-6,1,-3
15:28:27:896055,-1,-5,-22,-2,-14,-6,1,-3
15:28:27:902030,13,17,6,-20,-2,1,1,2
15:28:27:917717,-6,-1,15,10,-1,0,-3,-4
15:28:27:918550,-6,-1,15,10,-1,0,-3,-4
15:28:27:924537,-6,5,-5,1,2,0,-2,-11
15:28:27:932014,-7,-4,-4,-1,-4,-1,-3,5
15:28:27:939600,-7,-4,-4,-1,-4,-1,-3,5
15:28:27:947049,0,7,5,9,-3,-3,-8,11
15:28:27:955307,9,10,-8,1,3,-3,1,1
15:28:27:956074,9,10,-8,1,3,-3,1,1
15:28:27:962009,8,15,-15,-2,-6,-2,3,5
15:28:27:977727,-13,7,0,-1,3,3,-3,-4
15:28:27:978544,-13,7,0,-1,3,3,-3,-4
15:28:27:984521,0,-3,6,25,10,-1,-1,-3
15:28:27:992026,5,-6,-3,-12,7,1,3,0
15:28:27:999623,5,-6,-3,-12,7,1,3,0
15:28:28:7061,-4,-5,-17,6,-6,0,-7,9
15:28:28:15209,6,3,12,0,-3,-2,-1,-4
15:28:28:16010,6,3,12,0,-3,-2,-1,-4
15:28:28:22067,-14,-81,12,-3,-6,-1,2,-4
15:28:28:37749,-10,-5,-10,1,-3,0,-7,-5
15:28:28:38561,-10,-5,-10,1,-3,0,-7,-5
15:28:28:44541,7,35,7,-6,-2,1,5,6
15:28:28:52042,3,-16,10,-3,-6,-1,-3,-6
15:28:28:59528,3,-16,10,-3,-6,-1,-3,-6
15:28:28:67044,5,23,4,-18,6,-3,-2,4
15:28:28:75222,8,44,-1,-6,9,-2,1,2
15:28:28:76031,8,44,-1,-6,9,-2,1,2
15:28:28:81994,-2,23,-1,-10,-7,-2,1,2
15:28:28:97716,1,9,6,1,1,-2,-4,-8
15:28:28:98518,1,9,6,1,1,-2,-4,-8
15:28:28:104543,-25,-7,-6,2,-2,-2,-6,-45
15:28:28:112040,5,-8,-8,0,0,0,1,6
15:28:28:119534,5,-8,-8,0,0,0,1,6
15:28:28:127012,0,-9,-6,-20,6,0,6,10
15:28:28:135230,-11,-28,0,1,5,1,-4,-6
15:28:28:136058,-11,-28,0,1,5,1,-4,-6
15:28:28:142010,-8,6,2,-3,-5,5,1,11
15:28:28:157714,-5,-30,-1,-6,-8,-3,-1,-8
15:28:28:158520,-5,-30,-1,-6,-8,-3,-1,-8
15:28:28:164490,2,-9,5,-5,6,1,1,-1
15:28:28:171991,0,4,2,-5,-10,-4,-1,-1
15:28:28:179591,0,4,2,-5,-10,-4,-1,-1
15:28:28:187003,6,-4,11,-13,3,-2,-1,2
15:28:28:195236,1,3,-6,-2,-2,-2,1,-6
15:28:28:196055,1,3,-6,-2,-2,-2,1,-6
15:28:28:202057,-1,-2,1,9,-6,-1,-1,9
15:28:28:217723,-32,-47,-8,2,1,-1,0,-8
15:28:28:218526,-32,-47,-8,2,1,-1,0,-8
15:28:28:224524,-4,5,3,23,3,-3,-1,2
15:28:28:231975,7,13,4,7,0,2,2,11
15:28:28:239597,7,13,4,7,0,2,2,11
15:28:28:247004,0,-1,-5,-9,-5,-1,-1,8
15:28:28:255313,2,-17,-22,2,-1,-1,-3,3
15:28:28:256062,2,-17,-22,2,-1,-1,-3,3
15:28:28:262046,3,-6,-23,9,-7,-3,-1,2
15:28:28:278208,1,8,2,-7,-2,2,-1,-5
15:28:28:279012,1,8,2,-7,-2,2,-1,-5
15:28:28:284513,0,-9,-6,0,0,-5,2,0
15:28:28:292027,-14,-36,-7,4,2,3,-4,-3
15:28:28:299613,-14,-36,-7,4,2,3,-4,-3
15:28:28:307016,-10,4,11,6,-4,-3,-3,-5
15:28:28:315190,2,25,0,-15,-12,-4,1,3
15:28:28:316028,2,25,0,-15,-12,-4,1,3
15:28:28:322040,2,-18,-13,-7,-5,0,4,1
15:28:28:337752,10,11,-13,-4,0,2,2,14
15:28:28:338586,10,11,-13,-4,0,2,2,14
15:28:28:344502,1,20,-3,0,-6,-1,-9,-14
15:28:28:352100,-2,16,5,-1,-1,-1,-2,-3
15:28:28:359532,-2,16,5,-1,-1,-1,-2,-3
15:28:28:367052,-14,-1,7,0,0,-3,-2,2
15:28:28:375207,-4,-3,6,10,-1,0,1,7
15:28:28:376042,-4,-3,6,10,-1,0,1,7
15:28:28:382001,1,-9,-1,-10,-1,-2,1,0
15:28:28:397685,0,-7,4,18,14,3,-1,-4
15:28:28:398539,0,-7,4,18,14,3,-1,-4
15:28:28:404550,10,-1,14,5,0,-2,0,1
15:28:28:412068,8,14,3,-4,-2,-4,-2,-1
15:28:28:419597,8,14,3,-4,-2,-4,-2,-1
15:28:28:427038,0,11,6,3,2,0,0,-2
15:28:28:435215,5,-5,-1,-3,-4,-3,5,3
15:28:28:436034,5,-5,-1,-3,-4,-3,5,3
15:28:28:442019,-1,7,1,-4,-4,0,1,14
15:28:28:457737,3,-8,-4,-3,-3,-4,-20,-7
15:28:28:458505,3,-8,-4,-3,-3,-4,-20,-7
15:28:28:464503,5,17,-4,-1,5,3,3,-8
15:28:28:472045,-2,7,0,-5,0,-2,8,3
15:28:28:479611,-2,7,0,-5,0,-2,8,3
15:28:28:487028,1,0,-3,3,5,0,-7,-4
15:28:28:495217,4,0,0,-4,-9,-3,2,-4
15:28:28:496035,4,0,0,-4,-9,-3,2,-4
15:28:28:502010,-8,-6,-4,-1,1,-1,3,-6
15:28:28:517726,-8,-14,7,-1,1,-5,-8,-10
15:28:28:518546,-8,-14,7,-1,1,-5,-8,-10
15:28:28:524498,-5,-22,-3,3,-1,0,-6,-12
15:28:28:540217,12,12,-1,1,4,1,-1,4
15:28:28:541018,12,12,-1,1,4,1,-1,4
15:28:28:547014,-15,11,-3,3,0,-4,-2,9
15:28:28:555226,-6,-5,-2,14,12,1,-6,-1
15:28:28:556051,-6,-5,-2,14,12,1,-6,-1
15:28:28:561993,3,3,-2,2,-5,-5,1,5
15:28:28:577719,-7,-3,-3,-1,-2,2,0,4
15:28:28:578526,-7,-3,-3,-1,-2,2,0,4
15:28:28:584524,2,-16,-1,-4,-3,1,-3,-26
15:28:28:591993,-4,-18,16,3,-3,-1,6,7
15:28:28:599592,-4,-18,16,3,-3,-1,6,7
15:28:28:607003,-2,-12,2,-3,-3,-1,-2,8
15:28:28:615242,2,-3,-5,-10,-4,0,6,-7
15:28:28:616052,2,-3,-5,-10,-4,0,6,-7
15:28:28:629499,15,-1,-4,-6,-3,2,-2,6
15:28:28:637734,5,14,-5,-3,-8,-4,-3,-1
15:28:28:638562,5,14,-5,-3,-8,-4,-3,-1
15:28:28:644517,-7,-9,-5,-9,5,3,-6,1
15:28:28:660218,5,18,-2,-4,-2,-1,5,0
15:28:28:661040,5,18,-2,-4,-2,-1,5,0
15:28:28:666994,6,8,0,5,-1,-6,4,1
15:28:28:675223,-16,-8,-13,-14,-2,3,0,10
15:28:28:676056,-16,-8,-13,-14,-2,3,0,10
15:28:28:689500,-12,-15,-2,-5,2,1,0,2
15:28:28:697705,1,6,-4,-1,0,2,21,-2
15:28:28:698537,1,6,-4,-1,0,2,21,-2
15:28:28:704496,7,10,0,-3,-3,-5,1,5
15:28:28:720247,7,10,0,-3,-3,-5,1,5
15:28:28:721018,3,4,-19,2,3,-1,-16,-8
15:28:28:727004,6,13,4,0,-6,-4,-13,-6
15:28:28:735648,6,13,4,0,-6,-4,-13,-6
15:28:28:742016,-1,3,3,-2,-2,0,-4,-12
15:28:28:749510,6,12,-5,-10,11,5,2,9
15:28:28:757739,6,12,-5,-10,11,5,2,9
15:28:28:758541,-10,-19,8,3,3,4,1,2
15:28:28:764528,-9,-25,2,-10,-9,3,6,-2
15:28:28:780260,-9,-25,2,-10,-9,3,6,-2
15:28:28:781058,-2,-9,6,-2,-2,-1,-1,-1
15:28:28:787011,-5,-14,2,12,4,-3,-3,4
15:28:28:795298,-5,-14,2,12,4,-3,-3,4
15:28:28:796055,5,5,-2,0,-6,-6,-14,-11
15:28:28:809497,-3,-5,12,-1,-5,1,5,11
15:28:28:817746,-3,-5,12,-1,-5,1,5,11
15:28:28:818546,-7,-5,2,2,0,-4,-10,7
15:28:28:824525,-4,3,-2,3,6,-1,-1,-8
15:28:28:840223,-4,3,-2,3,6,-1,-1,-8
15:28:28:840996,-5,19,2,-1,0,0,4,-11
15:28:28:846974,-11,-33,-9,2,-3,-1,-2,-7
15:28:28:855246,-11,-33,-9,2,-3,-1,-2,-7
15:28:28:856075,2,10,-1,-13,0,-5,-5,-4
15:28:28:869503,-4,1,0,-1,-2,-3,5,-10
15:28:28:877730,-4,1,0,-1,-2,-3,5,-10
15:28:28:878502,5,6,-2,12,16,2,6,8
15:28:28:884497,-4,-17,-4,-7,-5,-1,-5,3
15:28:28:900229,-4,-17,-4,-7,-5,-1,-5,3
15:28:28:901034,-5,-6,-10,-1,-6,-1,4,-5
15:28:28:906996,3,22,-2,-12,-1,-2,-8,-11
15:28:28:915239,3,22,-2,-12,-1,-2,-8,-11
15:28:28:916016,5,-3,-2,-1,1,-2,3,4
15:28:28:929556,4,25,13,1,1,-3,0,-6
15:28:28:937740,4,25,13,1,1,-3,0,-6
15:28:28:938527,3,-20,1,0,-1,2,2,10
15:28:28:944506,-28,-48,-8,9,-6,-2,6,-11
15:28:28:960217,-28,-48,-8,9,-6,-2,6,-11
15:28:28:961027,0,-1,1,-3,-7,-3,0,-3
15:28:28:967061,10,6,-3,5,-3,2,1,10
15:28:28:975229,10,6,-3,5,-3,2,1,10
15:28:28:976025,1,8,2,-10,-5,1,12,-6
15:28:28:989554,-5,-9,-6,-3,0,-2,-3,-3
15:28:28:997726,-5,-9,-6,-3,0,-2,-3,-3
15:28:28:998522,10,-2,-4,2,-5,-1,-2,11
15:28:29:12040,-6,20,-2,-1,0,2,0,1
15:28:29:20231,-6,20,-2,-1,0,2,0,1
15:28:29:20996,-7,-19,0,1,6,-2,0,-7
15:28:29:27034,9,-1,7,3,-4,-1,-2,0
15:28:29:35213,9,-1,7,3,-4,-1,-2,0
15:28:29:36009,-6,5,2,-2,0,-1,-11,-1
15:28:29:49540,12,16,-2,-1,1,0,-5,8
15:28:29:57716,12,16,-2,-1,1,0,-5,8
15:28:29:58499,2,0,-1,4,-1,-2,-7,-3
15:28:29:64561,10,16,-1,4,-6,-2,0,-1
15:28:29:80302,10,16,-1,4,-6,-2,0,-1
15:28:29:81063,3,2,-2,3,7,1,2,-5
15:28:29:87022,0,-40,-2,-3,-2,-2,5,-1
15:28:29:95221,0,-40,-2,-3,-2,-2,5,-1
15:28:29:96021,-10,-19,-1,-6,-3,-2,-3,-1
15:28:29:109978,3,14,-3,4,-4,-2,-3,-23
15:28:29:118395,3,14,-3,4,-4,-2,-3,-23
15:28:29:119195,3,11,-4,-7,-3,-4,-6,-1
15:28:29:124527,0,-11,4,-7,3,-2,2,5
15:28:29:140300,0,-11,4,-7,3,-2,2,5
15:28:29:140966,4,17,6,-6,5,-1,-4,-10
15:28:29:147044,1,3,0,3,-6,-3,-7,-1
15:28:29:155355,1,3,0,3,-6,-3,-7,-1
15:28:29:156062,-6,4,-2,4,-2,2,2,-22
15:28:29:169515,-11,7,0,-8,0,1,4,-5
15:28:29:177756,-11,7,0,-8,0,1,4,-5
15:28:29:178528,-10,-11,-2,1,-7,-4,-4,1
15:28:29:184562,3,12,-5,-4,-4,0,1,-3
15:28:29:200262,3,12,-5,-4,-4,0,1,-3
15:28:29:201043,3,-12,0,1,2,-3,-1,12
15:28:29:207016,-5,-4,1,-5,5,3,12,4
15:28:29:215301,-5,-4,1,-5,5,3,12,4
15:28:29:216066,-5,3,6,8,-2,-4,-3,3
15:28:29:229513,6,13,-20,2,-5,-2,-5,2
15:28:29:237708,6,13,-20,2,-5,-2,-5,2
15:28:29:238543,8,11,-2,-4,-3,0,1,8
15:28:29:244493,-4,2,-1,-3,0,-2,-5,4
15:28:29:260249,-4,2,-1,-3,0,-2,-5,4
15:28:29:261042,8,-10,-2,-5,-4,0,0,-2
15:28:29:267007,-16,-2,-12,-3,1,2,0,2
15:28:29:275232,-16,-2,-12,-3,1,2,0,2
15:28:29:276065,-5,15,-1,-3,0,3,3,-4
15:28:29:289520,3,7,4,-17,0,-1,-5,-3
15:28:29:297739,3,7,4,-17,0,-1,-5,-3
15:28:29:298528,-2,-8,-3,-25,12,4,3,-1
15:28:29:304494,5,-1,7,8,2,-2,-1,8
15:28:29:320229,5,-1,7,8,2,-2,-1,8
15:28:29:321031,-12,-21,-2,2,-11,-2,1,9
15:28:29:327004,10,-7,-1,2,0,-3,2,12
15:28:29:335238,10,-7,-1,2,0,-3,2,12
15:28:29:336030,-1,15,3,6,8,0,-2,-8
15:28:29:349555,-9,0,0,4,-3,-2,-3,-7
15:28:29:357714,-9,0,0,4,-3,-2,-3,-7
15:28:29:358538,12,-12,-1,-4,15,4,2,2
15:28:29:364518,6,-11,-4,-3,-5,-1,-5,-13
15:28:29:388419,6,-11,-4,-3,-5,-1,-5,-13
15:28:29:389221,-2,6,2,4,-11,-3,-3,-2
15:28:29:390033,-3,11,6,-2,-6,-3,-6,-8
15:28:29:394535,-3,11,6,-2,-6,-3,-6,-8
15:28:29:402046,-10,-15,1,2,12,0,-2,-15
15:28:29:409545,-6,8,-1,1,6,1,0,-1
15:28:29:417543,-6,8,-1,1,6,1,0,-1
15:28:29:425158,-8,-5,-4,-1,-8,-4,-1,7
15:28:29:425971,-1,-9,-2,5,2,-3,-4,-10
15:28:29:440244,-1,-9,-2,5,2,-3,-4,-10
15:28:29:441043,5,-20,3,0,-11,-5,0,4
15:28:29:447037,2,14,4,-1,-1,0,2,9
15:28:29:455224,2,14,4,-1,-1,0,2,9
15:28:29:456043,1,-1,-8,9,-10,-3,-4,8
15:28:29:469536,-7,4,4,4,5,3,4,3
15:28:29:477731,-7,4,4,4,5,3,4,3
15:28:29:478496,0,-2,-4,-1,-6,0,-4,-10
15:28:29:484535,-4,-16,-5,-12,-8,-6,-4,-11
15:28:29:500367,-4,-16,-5,-12,-8,-6,-4,-11
15:28:29:501071,4,14,-8,-7,-3,-3,0,0
15:28:29:507041,0,-20,-12,-8,-6,-2,1,3
15:28:29:515216,0,-20,-12,-8,-6,-2,1,3
15:28:29:516019,1,18,-1,-1,-6,-2,0,2
15:28:29:529526,-3,9,6,1,-6,1,-1,-6
15:28:29:537706,-3,9,6,1,-6,1,-1,-6
15:28:29:538500,-3,1,-9,6,-13,-2,-2,1
15:28:29:544535,10,14,9,-19,18,5,5,4
15:28:29:560331,10,14,9,-19,18,5,5,4
15:28:29:561020,-13,-15,13,1,6,0,-4,-11
15:28:29:567055,6,12,1,8,-5,3,-4,6
15:28:29:574633,6,12,1,8,-5,3,-4,6
15:28:29:582044,-2,1,-3,-5,-4,-4,-2,2
15:28:29:589524,-6,-23,-1,4,2,0,0,5
15:28:29:597735,-6,-23,-1,4,2,0,0,5
15:28:29:598546,-10,-10,-8,-4,3,-3,-4,-8
15:28:29:612055,0,-18,0,7,2,-6,6,2
15:28:29:620246,0,-18,0,7,2,-6,6,2
15:28:29:621027,7,14,7,-2,0,-1,1,9
15:28:29:627063,4,1,-5,5,-8,-2,1,4
15:28:29:634569,4,1,-5,5,-8,-2,1,4
15:28:29:642004,2,-16,0,-7,21,1,2,0
15:28:29:649535,-2,4,-3,-1,-3,1,-7,-15
15:28:29:665218,-2,4,-3,-1,-3,1,-7,-15
15:28:29:666014,6,24,-5,7,-1,1,-6,3
15:28:29:672050,-3,2,-4,6,0,-2,-4,-8
15:28:29:680189,-3,2,-4,6,0,-2,-4,-8
15:28:29:681037,-1,-16,-1,-10,-6,2,2,-8
15:28:29:687108,-5,13,5,1,-4,-4,-2,3
15:28:29:694560,-5,13,5,1,-4,-4,-2,3
15:28:29:702016,2,-5,-2,2,-3,0,4,8
15:28:29:709552,-2,0,-2,-9,-4,-2,-1,0
15:28:29:717510,-2,0,-2,-9,-4,-2,-1,0
15:28:29:724509,-1,-2,-2,-2,18,3,-1,-4
15:28:29:732033,6,-1,-2,5,5,0,1,-1
15:28:29:740237,6,-1,-2,5,5,0,1,-1
15:28:29:741064,2,-13,-3,6,-11,-3,-2,3
15:28:29:747005,-5,-9,1,3,-1,-3,-1,-3
15:28:29:754585,-5,-9,1,3,-1,-3,-1,-3
15:28:29:762043,3,4,4,-5,-5,0,2,5
15:28:29:769546,-1,-12,-2,-5,-8,-2,11,-5
15:28:29:777714,-1,-12,-2,-5,-8,-2,11,-5
15:28:29:778510,-7,10,-2,-7,-7,-1,-5,-3
15:28:29:792022,-7,-2,-9,-2,0,-2,0,0
15:28:29:800326,-7,-2,-9,-2,0,-2,0,0
15:28:29:801076,-5,6,1,3,-11,-4,3,10
15:28:29:807060,1,-3,-1,-4,-4,1,-5,5
15:28:29:814562,1,-3,-1,-4,-4,1,-5,5
15:28:29:822040,1,5,-4,-1,0,-1,4,0
15:28:29:829562,-7,-7,-16,-2,4,1,1,-1
15:28:29:837740,-7,-7,-16,-2,4,1,1,-1
15:28:29:838529,2,-1,4,5,3,-3,-7,1
15:28:29:852046,3,37,6,-17,2,-2,5,-2
15:28:29:860205,3,37,6,-17,2,-2,5,-2
15:28:29:861025,-15,-2,-6,-3,1,2,-4,-2
15:28:29:867067,7,-1,2,4,1,0,-5,0
15:28:29:874567,7,-1,2,4,1,0,-5,0
15:28:29:881964,1,5,6,-3,-2,-1,-9,-21
15:28:29:889475,-6,-24,2,10,-6,-2,-8,-7
15:28:29:897735,-6,-24,2,10,-6,-2,-8,-7
15:28:29:898514,6,-9,-7,-4,-7,0,-9,-4
15:28:29:912071,2,8,4,3,3,-3,-9,-3
15:28:29:920210,2,8,4,3,3,-3,-9,-3
15:28:29:921048,-18,19,-1,6,-4,-5,5,-7
15:28:29:926977,-7,-6,-3,-14,3,3,-2,6
15:28:29:934566,-7,-6,-3,-14,3,3,-2,6
15:28:29:942006,-1,0,1,0,0,-1,3,-6
15:28:29:949508,-4,-9,2,2,-3,0,-3,-5
15:28:29:957769,-4,-9,2,2,-3,0,-3,-5
15:28:29:958587,-5,-41,-12,2,-2,-1,3,1
15:28:29:971988,-1,6,10,1,1,2,12,-14
15:28:29:980264,-1,6,10,1,1,2,12,-14
15:28:29:981026,7,3,2,0,-5,-2,8,0
15:28:29:987010,-3,10,-10,-7,2,0,-10,0
15:28:29:994587,-3,10,-10,-7,2,0,-10,0
15:28:30:2015,9,17,-2,-2,-1,0,-4,8
15:28:30:9491,7,14,-7,-2,0,-3,-6,16
15:28:30:17761,7,14,-7,-2,0,-3,-6,16
15:28:30:18554,0,-17,0,0,1,0,-8,0
15:28:30:32013,4,0,6,0,-3,-3,0,4
15:28:30:40233,4,0,6,0,-3,-3,0,4
15:28:30:41043,2,5,2,-3,2,0,7,18
15:28:30:47006,1,-18,-3,1,-1,-3,-3,1
15:28:30:54587,1,-18,-3,1,-1,-3,-3,1
15:28:30:62036,-1,7,-1,-3,1,0,-1,-5
15:28:30:69529,-2,-8,-3,2,-5,-1,-4,-4
15:28:30:77728,-2,-8,-3,2,-5,-1,-4,-4
15:28:30:78508,-2,-3,4,-3,-3,-3,4,-5
15:28:30:92022,3,-20,0,1,-1,2,15,5
15:28:30:100325,3,-20,0,1,-1,2,15,5
15:28:30:101069,-2,-20,-2,-5,-3,0,-4,-1
15:28:30:107054,5,-5,0,1,-2,1,5,-4
15:28:30:114524,5,-5,0,1,-2,1,5,-4
15:28:30:122041,0,4,1,6,5,-5,1,-3
15:28:30:129554,-3,3,0,4,-1,-2,-6,-3
15:28:30:137705,-3,3,0,4,-1,-2,-6,-3
15:28:30:138526,0,22,-2,0,-5,-3,-3,9
15:28:30:152047,-6,-41,4,2,-6,-1,-3,4
15:28:30:160220,-6,-41,4,2,-6,-1,-3,4
15:28:30:160998,-1,-5,-2,-9,2,1,0,-5
15:28:30:167069,7,18,3,-2,0,0,2,-4
15:28:30:174561,7,18,3,-2,0,0,2,-4
15:28:30:181983,-1,-20,-6,-1,2,-1,-4,-6
15:28:30:189511,-2,-3,-6,-8,-1,-1,-7,-5
15:28:30:197729,-2,-3,-6,-8,-1,-1,-7,-5
15:28:30:198549,-3,-4,-2,-1,11,6,2,-3
15:28:30:212058,1,23,0,-5,4,0,-7,-7
15:28:30:220241,1,23,0,-5,4,0,-7,-7
15:28:30:221062,-2,-11,2,0,-9,-2,-5,-10
15:28:30:226987,12,19,8,7,7,-2,3,-1
15:28:30:242711,12,19,8,7,7,-2,3,-1
15:28:30:243492,0,2,1,-9,1,-1,-3,1
15:28:30:249568,-10,5,-6,-2,-1,0,15,8
15:28:30:257722,-10,5,-6,-2,-1,0,15,8
15:28:30:258541,0,9,2,6,-5,2,3,1
15:28:30:272063,-2,-6,-5,0,-5,-3,-11,-5
15:28:30:280231,-2,-6,-5,0,-5,-3,-11,-5
15:28:30:280999,-3,6,-10,-2,-3,-3,-3,-1
15:28:30:287059,-6,-18,-1,3,7,1,-1,-6
15:28:30:302761,-6,-18,-1,3,7,1,-1,-6
15:28:30:303542,9,21,6,-6,-2,1,3,3
15:28:30:309554,0,9,-3,-2,-9,-2,-3,-1
15:28:30:317729,0,9,-3,-2,-9,-2,-3,-1
15:28:30:318544,4,-6,3,0,-6,-2,2,2
15:28:30:340891,2,-3,2,-5,1,1,0,5
15:28:30:341699,2,-3,2,-5,1,1,0,5
15:28:30:342548,-12,-14,-6,-15,-1,0,-5,-4
15:28:30:355199,5,14,0,-8,-2,-2,-6,-6
15:28:30:356078,5,14,0,-8,-2,-2,-6,-6
15:28:30:362038,-3,-6,-4,-3,0,-2,7,-8
15:28:30:369514,-4,-25,-9,2,-3,-2,4,13
15:28:30:377738,-4,-25,-9,2,-3,-2,4,13
15:28:30:378554,4,-2,-7,1,4,-1,-4,2
15:28:30:392033,-7,-10,-5,-4,-4,-1,-8,-6
15:28:30:400254,-7,-10,-5,-4,-4,-1,-8,-6
15:28:30:401071,2,1,-7,3,-3,-3,-3,-3
15:28:30:407052,3,-11,-2,-1,-3,-3,-2,-1
15:28:30:414598,3,-11,-2,-1,-3,-3,-2,-1
15:28:30:422042,-5,-12,2,-11,-4,1,-1,0
15:28:30:429517,-1,-14,1,5,-7,-4,0,-6
15:28:30:437795,-1,-14,1,5,-7,-4,0,-6
15:28:30:438559,2,6,5,5,2,-1,0,3
15:28:30:452055,-5,8,4,-3,0,0,2,1
15:28:30:468444,-5,8,4,-3,0,0,2,1
15:28:30:469196,-16,-17,-2,5,3,-1,-3,0
15:28:30:470019,-4,3,-5,9,3,-1,-7,-4
15:28:30:474630,-4,3,-5,9,3,-1,-7,-4
15:28:30:482040,-1,-20,5,3,-3,-4,-8,-9
15:28:30:489529,6,12,-1,1,3,-1,-6,-1
15:28:30:497782,6,12,-1,1,3,-1,-6,-1
15:28:30:498561,-8,5,-3,4,1,1,1,-6
15:28:30:520853,0,24,8,-7,0,-1,1,3
15:28:30:521702,0,24,8,-7,0,-1,1,3
15:28:30:522513,-2,23,6,-3,0,-2,1,2
15:28:30:535221,-1,14,-3,-10,-4,1,3,-3
15:28:30:536036,-1,14,-3,-10,-4,1,3,-3
15:28:30:542043,13,4,7,1,0,1,1,11
15:28:30:549523,-9,-41,-3,2,4,-1,-6,-4
15:28:30:557113,-9,-41,-3,2,4,-1,-6,-4
15:28:30:564529,0,0,-4,2,3,2,0,0
15:28:30:580905,-1,-17,0,7,-5,-3,2,0
15:28:30:581726,-1,-17,0,7,-5,-3,2,0
15:28:30:582482,11,9,-7,-3,-4,-1,4,0
15:28:30:595186,-10,10,-3,-5,0,-2,-1,-13
15:28:30:596014,-10,10,-3,-5,0,-2,-1,-13
15:28:30:602036,-3,-15,4,0,1,-3,-1,-2
15:28:30:609556,9,4,0,-1,0,2,5,1
15:28:30:617077,9,4,0,-1,0,2,5,1
15:28:30:624497,-1,6,-6,1,3,2,-6,-6
15:28:30:631980,-6,-22,-1,-3,-5,-3,-3,5
15:28:30:640261,-6,-22,-1,-3,-5,-3,-3,5
15:28:30:641069,11,-28,-10,3,2,-1,-1,1
15:28:30:655216,1,24,-5,-8,1,1,2,1
15:28:30:656051,1,24,-5,-8,1,1,2,1
15:28:30:662000,-11,11,-8,2,2,-1,-5,0
15:28:30:669504,0,13,-4,-4,9,-1,-3,1
15:28:30:677073,0,13,-4,-4,9,-1,-3,1
15:28:30:684528,-16,-13,-1,-4,-2,1,-6,-7
15:28:30:692064,7,8,-8,-2,-5,-3,1,-5
15:28:30:700245,7,8,-8,-2,-5,-3,1,-5
15:28:30:701051,-2,3,6,6,-2,0,-3,-6
15:28:30:715221,1,-7,-4,-34,-6,3,-2,4
15:28:30:716060,1,-7,-4,-34,-6,3,-2,4
15:28:30:722010,-14,5,-10,-8,-11,-5,0,3
15:28:30:729520,-4,6,3,12,2,-1,-3,-6
15:28:30:737113,-4,6,3,12,2,-1,-3,-6
15:28:30:744531,9,-2,6,-6,-2,0,0,7
15:28:30:752062,-3,-8,-3,19,4,1,1,6
15:28:30:760241,-3,-8,-3,19,4,1,1,6
15:28:30:761074,11,18,9,18,10,1,0,-2
15:28:30:775233,6,11,4,-2,3,1,-2,-4
15:28:30:776085,6,11,4,-2,3,1,-2,-4
15:28:30:782024,3,-23,-6,-3,-6,0,0,1
15:28:30:789527,-8,-20,6,6,-8,-4,-3,-8
15:28:30:805255,-8,-20,6,6,-8,-4,-3,-8
15:28:30:806045,-9,-9,-13,-6,-7,-2,0,-3
15:28:30:812023,2,-4,11,2,-2,-3,4,5
15:28:30:820257,2,-4,11,2,-2,-3,4,5
15:28:30:821058,-1,11,2,5,8,-2,-1,0
15:28:30:835265,3,1,-3,4,6,0,1,2
15:28:30:836069,3,1,-3,4,6,0,1,2
15:28:30:842015,-6,-23,-6,-12,-9,-3,0,-1
15:28:30:849552,1,0,5,-2,-3,-1,-1,-8
15:28:30:857130,1,0,5,-2,-3,-1,-1,-8
15:28:30:872691,0,7,-7,-2,2,-4,-4,-3
15:28:30:873498,2,-15,2,-23,-3,-2,-3,2
15:28:30:880267,2,-15,2,-23,-3,-2,-3,2
15:28:30:881051,17,40,11,8,4,0,0,-1
15:28:30:895250,-6,8,-18,-11,-1,4,-4,2
15:28:30:896047,-6,8,-18,-11,-1,4,-4,2
15:28:30:902002,-7,7,6,5,0,0,2,2
15:28:30:909510,4,-3,-1,-3,-2,-2,0,-2
15:28:30:917117,4,-3,-1,-3,-2,-2,0,-2
15:28:30:924527,5,2,9,-13,-11,-2,-1,-4
15:28:30:932027,-17,-15,4,-9,-11,-2,-1,-2
15:28:30:940203,-17,-15,4,-9,-11,-2,-1,-2
15:28:30:941042,2,8,-3,3,-1,-1,-2,-12
15:28:30:955249,1,-13,-6,5,-3,-3,-1,3
15:28:30:956065,1,-13,-6,5,-3,-3,-1,3
15:28:30:970171,-2,-3,2,-2,0,0,5,3
15:28:30:970984,6,8,-3,8,6,-3,-1,-7
15:28:30:985219,6,8,-3,8,6,-3,-1,-7
15:28:30:986020,2,-21,-4,2,-4,-3,-4,4
15:28:30:992010,-9,7,8,2,3,0,0,0
15:28:31:234,-9,7,8,2,3,0,0,0
15:28:31:1039,-2,-26,2,0,1,-2,1,1
15:28:31:15218,-2,-24,-1,2,-7,-4,-1,0
15:28:31:16017,-2,-24,-1,2,-7,-4,-1,0
15:28:31:21995,-3,9,1,0,-2,0,-1,-1
15:28:31:29490,-9,1,-7,0,1,0,-3,-6
15:28:31:37073,-9,1,-7,0,1,0,-3,-6
15:28:31:44500,-1,8,-2,-4,1,1,-8,0
15:28:31:51994,2,-10,-7,6,5,0,0,1
15:28:31:60260,2,-10,-7,6,5,0,0,1
15:28:31:61049,1,-1,-9,-15,-4,-1,3,3
15:28:31:75884,4,14,-6,-5,-3,-2,0,3
15:28:31:76704,4,14,-6,-5,-3,-2,0,3
15:28:31:82034,-2,-1,-6,-6,-7,-2,0,-4
15:28:31:89505,3,2,1,-21,-1,0,1,2
15:28:31:97085,3,2,1,-21,-1,0,1,2
15:28:31:104562,7,-3,4,4,2,2,-2,-1
15:28:31:112053,-3,2,-5,8,-3,-3,-2,-6
15:28:31:120239,-3,2,-5,8,-3,-3,-2,-6
15:28:31:121048,1,-20,2,2,3,0,0,-2
15:28:31:135727,6,-2,5,8,5,0,-1,4
15:28:31:136524,6,-2,5,8,5,0,-1,4
15:28:31:142013,-1,-17,-8,-1,2,-1,3,3
15:28:31:149542,-8,-16,5,2,1,1,0,-5
15:28:31:157117,-8,-16,5,2,1,1,0,-5
15:28:31:164529,-8,16,7,-4,-3,0,1,3
15:28:31:172036,2,-4,-10,1,-7,0,-2,0
15:28:31:180188,2,-4,-10,1,-7,0,-2,0
15:28:31:181011,-1,18,-4,-5,-3,-4,-5,3
15:28:31:195240,-2,8,-1,4,-3,0,3,2
15:28:31:196095,-2,8,-1,4,-3,0,3,2
15:28:31:202039,-6,16,-2,-4,2,-1,4,-6
15:28:31:209514,2,-14,-3,5,1,-3,0,7
15:28:31:225276,2,-14,-3,5,1,-3,0,7
15:28:31:226047,-2,-9,1,0,1,2,4,-8
15:28:31:232049,11,19,3,-4,-2,-3,-3,7
15:28:31:247730,11,19,3,-4,-2,-3,-3,7
15:28:31:248540,-7,-34,0,3,-2,0,-6,1
15:28:31:255215,-11,-5,-5,-4,2,0,-2,0
15:28:31:256049,-11,-5,-5,-4,2,0,-2,0
15:28:31:262015,-11,-6,-5,3,-3,-5,-4,-14
15:28:31:269504,0,15,-1,-3,-2,-3,2,-9
15:28:31:277130,0,15,-1,-3,-2,-3,2,-9
15:28:31:284530,2,8,3,-2,-1,-1,6,0
15:28:31:292057,2,-13,-4,-10,-7,-1,-1,-10
15:28:31:300187,2,-13,-4,-10,-7,-1,-1,-10
15:28:31:301013,6,9,0,1,7,3,-2,4
15:28:31:315267,-3,14,6,2,4,2,1,2
15:28:31:316062,-3,14,6,2,4,2,1,2
15:28:31:322044,-3,-2,-1,0,-1,-2,-4,-1
15:28:31:329529,-6,-24,1,4,-6,-2,-1,-1
15:28:31:337063,-6,-24,1,4,-6,-2,-1,-1
15:28:31:344558,3,-2,-5,0,-2,0,7,-1
15:28:31:352055,6,18,-1,2,1,-1,-16,-6
15:28:31:360241,6,18,-1,2,1,-1,-16,-6
15:28:31:361021,3,1,1,-1,-1,-2,-8,-4
15:28:31:375234,3,1,1,-2,0,-1,6,23
15:28:31:376035,3,1,1,-2,0,-1,6,23
15:28:31:382056,-7,-14,-1,-14,-3,0,-8,-4
15:28:31:389554,-6,11,1,-9,2,-3,-2,-8
15:28:31:397050,-6,11,1,-9,2,-3,-2,-8
15:28:31:412744,-3,6,3,1,-5,-2,-1,-3
15:28:31:413504,0,2,1,1,-3,-2,-2,-16
15:28:31:420209,0,2,1,1,-3,-2,-2,-16
15:28:31:421021,1,-2,6,-3,1,3,15,-3
15:28:31:435269,1,3,2,0,-1,-1,-2,-2
15:28:31:436111,1,3,2,0,-1,-1,-2,-2
15:28:31:442038,0,16,9,4,3,-1,-4,-1
15:28:31:449532,-22,-31,-6,1,0,2,5,-5
15:28:31:457069,-22,-31,-6,1,0,2,5,-5
15:28:31:464583,-2,3,-3,5,2,1,-3,-10
15:28:31:472063,2,17,0,6,-1,0,-3,-9
15:28:31:479534,2,17,0,6,-1,0,-3,-9
15:28:31:486985,-4,0,-1,-4,-2,-2,-2,7
15:28:31:495227,3,-11,-4,-6,3,-1,-5,-17
15:28:31:496039,3,-11,-4,-6,3,-1,-5,-17
15:28:31:501998,2,11,-2,-1,0,0,-10,-6
15:28:31:525919,-17,-10,4,3,-2,0,-10,1
15:28:31:526764,-17,-10,4,3,-2,0,-10,1
15:28:31:527594,-8,-40,-6,3,-7,-4,-8,0
15:28:31:532027,3,12,-3,-13,0,-7,11,17
15:28:31:539582,3,12,-3,-13,0,-7,11,17
15:28:31:547090,-1,11,-6,2,1,-3,-6,5
15:28:31:555226,6,15,-4,7,3,1,-3,3
15:28:31:556036,6,15,-4,7,3,1,-3,3
15:28:31:561989,-2,14,-4,-11,-3,-2,-4,-2
15:28:31:577709,1,8,3,-1,-7,2,0,-3
15:28:31:578511,1,8,3,-1,-7,2,0,-3
15:28:31:584561,-2,0,-2,0,-3,0,-2,0
15:28:31:592059,-8,7,1,-1,-5,-3,-7,-17
15:28:31:599543,-8,7,1,-1,-5,-3,-7,-17
15:28:31:607018,2,-12,2,-2,-5,0,17,6
15:28:31:615229,7,-6,9,2,2,4,-3,-5
15:28:31:616051,7,-6,9,2,2,4,-3,-5
15:28:31:622050,1,5,-1,0,7,1,0,1
15:28:31:638203,-7,-28,-6,4,2,0,1,12
15:28:31:639018,-7,-28,-6,4,2,0,1,12
15:28:31:644516,2,4,-4,2,-4,-2,2,5
15:28:31:652026,4,-9,-22,-5,-11,1,5,8
15:28:31:659638,4,-9,-22,-5,-11,1,5,8
15:28:31:667052,2,-28,-5,6,-6,-1,-2,-11
15:28:31:675229,-1,-5,4,-5,-5,1,2,3
15:28:31:676063,-1,-5,4,-5,-5,1,2,3
15:28:31:682036,5,8,2,-1,1,-2,1,4
15:28:31:697741,-2,2,-1,-1,1,-5,2,7
15:28:31:698559,-2,2,-1,-1,1,-5,2,7
15:28:31:704540,-6,-4,-7,1,-1,0,-1,3
15:28:31:712016,-2,-27,-6,4,1,-4,-9,-8
15:28:31:719604,-2,-27,-6,4,1,-4,-9,-8
15:28:31:727024,4,6,1,-10,6,-2,4,3
15:28:31:735204,-3,-15,1,10,1,-3,-1,-9
15:28:31:736026,-3,-15,1,10,1,-3,-1,-9
15:28:31:742026,-2,0,-3,4,-1,-1,-5,-6
15:28:31:757733,12,39,13,-3,0,1,1,-2
15:28:31:758567,12,39,13,-3,0,1,1,-2
15:28:31:764534,-5,7,4,11,7,1,-5,-4
15:28:31:772029,2,3,-14,-5,0,1,3,5
15:28:31:779631,2,3,-14,-5,0,1,3,5
15:28:31:787101,-19,-25,-3,-2,-5,-1,1,4
15:28:31:795227,2,0,-6,5,6,2,0,2
15:28:31:796036,2,0,-6,5,6,2,0,2
15:28:31:802054,16,7,-6,-7,-3,-2,2,3
15:28:31:817701,4,12,-5,-3,-4,-1,2,4
15:28:31:818518,4,12,-5,-3,-4,-1,2,4
15:28:31:824552,-10,-16,-1,0,-2,0,-2,-5
15:28:31:832038,1,7,3,1,6,-2,1,0
15:28:31:839585,1,7,3,1,6,-2,1,0
15:28:31:847008,-4,1,-10,-5,-6,1,-3,-2
15:28:31:855219,-4,2,5,1,-2,0,0,6
15:28:31:856042,-4,2,5,1,-2,0,0,6
15:28:31:862012,-1,17,23,-7,2,-2,-3,-8
15:28:31:877754,-6,-23,-1,-8,-10,-3,0,1
15:28:31:878566,-6,-23,-1,-8,-10,-3,0,1
15:28:31:884523,5,16,0,-12,6,-4,0,0
15:28:31:892062,2,-5,-2,-2,7,2,1,-1
15:28:31:899602,2,-5,-2,-2,7,2,1,-1
15:28:31:907014,-6,-21,3,-3,-7,-1,-3,-8
15:28:31:915246,-5,11,-5,-37,-9,-1,-4,-5
15:28:31:916079,-5,11,-5,-37,-9,-1,-4,-5
15:28:31:922007,2,5,-6,6,0,-2,-1,1
15:28:31:937740,3,3,15,10,-9,-3,-3,5
15:28:31:938558,3,3,15,10,-9,-3,-3,5
15:28:31:944504,7,-4,-4,-10,-16,-4,-1,3
15:28:31:952023,4,16,0,-2,5,0,-3,-3
15:28:31:959575,4,16,0,-2,5,0,-3,-3
15:28:31:966993,-7,-4,-1,12,11,3,1,3
15:28:31:975247,4,2,6,29,8,-1,-1,-9
15:28:31:976065,4,2,6,29,8,-1,-1,-9
15:28:31:982028,14,-15,-1,-12,-2,-4,2,1
15:28:31:997731,-3,-23,0,-9,-6,0,0,1
15:28:31:998552,-3,-23,0,-9,-6,0,0,1
15:28:32:4542,2,-6,-10,9,8,5,-3,-1
15:28:32:12007,7,10,2,6,-6,-5,-2,-4
15:28:32:19594,7,10,2,6,-6,-5,-2,-4
15:28:32:27051,-1,7,-7,-8,-6,2,-1,4
15:28:32:35196,-9,-1,6,6,0,-1,-3,-8
15:28:32:36018,-9,-1,6,6,0,-1,-3,-8
15:28:32:42046,-5,-12,-15,15,1,-3,0,0
15:28:32:57737,-13,-43,-3,-8,1,-4,-3,-3
15:28:32:58559,-13,-43,-3,-8,1,-4,-3,-3
15:28:32:64540,0,25,14,20,1,-2,-3,1
15:28:32:80227,2,1,1,-10,-4,0,0,-1
15:28:32:81048,2,1,1,-10,-4,0,0,-1
15:28:32:87109,0,-20,-6,-12,1,-1,0,-1
15:28:32:95260,-7,11,1,0,0,-1,-4,-1
15:28:32:96072,-7,11,1,0,0,-1,-4,-1
15:28:32:102067,-7,25,25,-4,-1,-2,-3,-6
15:28:32:117750,10,15,-7,7,3,-5,1,3
15:28:32:118572,10,15,-7,7,3,-5,1,3
15:28:32:124570,11,24,7,-5,1,-1,0,1
15:28:32:132040,-7,0,-9,-32,-8,0,-4,-15
15:28:32:139633,-7,0,-9,-32,-8,0,-4,-15
15:28:32:147043,-2,2,-6,-10,-8,-2,-2,-1
15:28:32:155178,-10,-6,0,3,-2,0,2,6
15:28:32:156035,-10,-6,0,3,-2,0,2,6
15:28:32:162048,0,-12,-7,5,-4,-3,-1,0
15:28:32:177747,-2,3,-3,0,-1,-1,-2,2
15:28:32:178534,-2,3,-3,0,-1,-1,-2,2
15:28:32:184536,-10,0,-6,-1,-1,2,0,3
15:28:32:192022,9,-2,-5,2,1,1,-2,3
15:28:32:199589,9,-2,-5,2,1,1,-2,3
15:28:32:207042,2,-8,-6,-2,3,-1,-3,-6
15:28:32:215225,-1,-2,-13,-5,-7,-2,-1,4
15:28:32:216056,-1,-2,-13,-5,-7,-2,-1,4
15:28:32:222043,-18,-12,-7,-8,3,1,1,-8
15:28:32:237697,-14,-43,8,6,0,-1,-4,0
15:28:32:238549,-14,-43,8,6,0,-1,-4,0
15:28:32:244586,3,-4,-3,8,0,1,1,1
15:28:32:252036,-2,25,-1,-11,-9,0,3,4
15:28:32:259599,-2,25,-1,-11,-9,0,3,4
15:28:32:267003,-7,9,0,-1,-2,0,-3,2
15:28:32:275237,8,6,-4,-5,-2,0,-1,1
15:28:32:276043,8,6,-4,-5,-2,0,-1,1
15:28:32:282019,11,22,2,1,-4,0,0,2
15:28:32:297776,11,22,2,1,-4,0,0,2
