Time,EMG1,EMG2,EMG3,EMG4,EMG5,EMG6,EMG7,EMG8
14:49:10:986642,-3,-2,-3,2,0,-8,3,0
14:49:10:987100,-3,0,-5,-1,7,-10,-2,-2
14:49:10:993108,4,2,12,12,23,10,-4,-7
14:49:11:620,4,2,12,12,23,10,-4,-7
14:49:11:8089,-1,-8,1,-10,-4,1,-3,2
14:49:11:15602,9,1,5,-5,-2,-2,-2,-21
14:49:11:23789,9,1,5,-5,-2,-2,-2,-21
14:49:11:24586,-1,2,-6,-1,2,4,1,15
14:49:11:38093,3,3,0,0,-1,-2,-2,2
14:49:11:46270,3,3,0,0,-1,-2,-2,2
14:49:11:47070,8,-1,-10,-5,3,-5,-8,-5
14:49:11:53088,-2,-2,-27,-5,9,24,1,6
14:49:11:60631,-2,-2,-27,-5,9,24,1,6
14:49:11:68074,4,2,-4,2,-6,-3,-2,-4
14:49:11:75558,1,-2,15,2,5,-6,-2,-5
14:49:11:83790,1,-2,15,2,5,-6,-2,-5
14:49:11:84595,0,1,-9,1,8,6,3,2
14:49:11:98145,5,0,15,-1,-15,-1,-4,10
14:49:11:106264,5,0,15,-1,-15,-1,-4,10
14:49:11:107079,-14,0,10,8,5,5,-9,-7
14:49:11:113071,-8,-3,-28,-3,-12,-6,-6,8
14:49:11:120658,-8,-3,-28,-3,-12,-6,-6,8
14:49:11:128100,1,3,-1,-7,-4,7,3,0
14:49:11:135575,-5,-2,-21,-1,-7,-5,-2,0
14:49:11:143817,-5,-2,-21,-1,-7,-5,-2,0
14:49:11:144634,10,-5,-16,1,-12,-7,-5,3
14:49:11:166987,-6,-2,10,-5,-14,-7,-9,-8
14:49:11:167784,-6,-2,10,-5,-14,-7,-9,-8
14:49:11:168557,-3,1,6,-5,-10,-7,3,3
14:49:11:173094,5,-5,-2,-2,18,-8,1,-9
14:49:11:180624,5,-5,-2,-2,18,-8,1,-9
14:49:11:188051,8,-2,12,-2,0,9,-13,-16
14:49:11:195558,7,1,18,5,2,-8,1,-8
14:49:11:203807,7,1,18,5,2,-8,1,-8
14:49:11:204593,-12,-7,-7,-2,2,-4,2,8
14:49:11:218144,-2,0,-7,-8,-13,-7,-19,-3
14:49:11:226270,-2,0,-7,-8,-13,-7,-19,-3
14:49:11:227126,-23,-2,-5,1,4,6,6,8
14:49:11:233037,-2,-3,2,-9,-3,-7,1,-2
14:49:11:240665,-2,-3,2,-9,-3,-7,1,-2
14:49:11:248069,4,1,-18,-4,-1,20,1,-1
14:49:11:255540,2,-2,-21,-7,-9,-6,1,2
14:49:11:263842,2,-2,-21,-7,-9,-6,1,2
14:49:11:264622,2,3,-18,0,-2,-10,4,1
14:49:11:278036,6,-4,-1,-1,-3,12,-3,-13
14:49:11:286336,6,-4,-1,-1,-3,12,-3,-13
14:49:11:287081,1,1,11,0,-14,-8,3,4
14:49:11:293093,-11,-5,16,3,0,8,1,-5
14:49:11:300741,-11,-5,16,3,0,8,1,-5
14:49:11:308100,1,-5,15,5,2,2,-9,-10
14:49:11:315588,4,-1,8,5,8,6,8,21
14:49:11:323820,4,-1,8,5,8,6,8,21
14:49:11:324619,-18,-6,3,2,-4,-5,-1,-18
14:49:11:338112,-2,1,-2,4,2,8,2,0
14:49:11:346318,-2,1,-2,4,2,8,2,0
14:49:11:347110,1,-3,-21,-4,-10,-11,2,-5
14:49:11:353105,6,4,0,-8,-19,-2,2,4
14:49:11:360632,6,4,0,-8,-19,-2,2,4
14:49:11:368120,2,2,15,9,13,3,-11,-10
14:49:11:375603,-1,-1,4,1,6,-6,0,-7
14:49:11:383829,-1,-1,4,1,6,-6,0,-7
14:49:11:384572,1,-4,-16,-9,4,3,1,9
14:49:11:398098,-8,-1,6,-3,-1,-6,-3,-6
14:49:11:406260,-8,-1,6,-3,-1,-6,-3,-6
14:49:11:407071,2,1,2,-2,-6,-1,0,-5
14:49:11:413117,-3,3,-3,-5,-6,-3,3,3
14:49:11:420620,-3,3,-3,-5,-6,-3,3,3
14:49:11:428086,1,3,2,-1,-2,-15,-3,8
14:49:11:435605,0,4,4,-4,2,-5,7,8
14:49:11:443765,0,4,4,-4,2,-5,7,8
14:49:11:444597,-1,-2,2,12,-1,-1,-1,3
14:49:11:458130,-6,-1,5,4,2,13,5,5
14:49:11:466303,-6,-1,5,4,2,13,5,5
14:49:11:467088,-3,0,23,3,-1,1,1,-7
14:49:11:473113,1,-1,-8,1,-11,-3,-8,-7
14:49:11:480606,1,-1,-8,1,-11,-3,-8,-7
14:49:11:488095,5,-1,0,-4,4,-2,-1,2
14:49:11:495551,10,-3,-1,0,17,2,-3,-6
14:49:11:503807,10,-3,-1,0,17,2,-3,-6
14:49:11:504581,0,4,-10,-8,-3,-2,6,0
14:49:11:518095,-14,0,-6,-3,1,-9,-4,5
14:49:11:526258,-14,0,-6,-3,1,-9,-4,5
14:49:11:527075,1,2,1,-11,8,26,2,3
14:49:11:533048,2,3,12,2,-4,1,1,-5
14:49:11:540648,2,3,12,2,-4,1,1,-5
14:49:11:548075,0,1,-6,-9,-21,-8,-3,-13
14:49:11:555570,-2,2,3,3,0,10,-3,-6
14:49:11:563831,-2,2,3,3,0,10,-3,-6
14:49:11:564634,-3,-9,-12,5,11,9,-1,-5
14:49:11:578070,18,-6,-4,-5,-5,-14,3,-4
14:49:11:586359,18,-6,-4,-5,-5,-14,3,-4
14:49:11:587123,4,-2,-35,-5,3,-15,-3,7
14:49:11:593087,-19,-8,5,0,-2,7,-4,1
14:49:11:600648,-19,-8,5,0,-2,7,-4,1
14:49:11:608097,6,-5,6,-2,1,2,-1,-11
14:49:11:615616,-4,1,-9,-9,-14,-6,2,-1
14:49:11:623803,-4,1,-9,-9,-14,-6,2,-1
14:49:11:624611,-3,1,15,3,-8,-9,1,11
14:49:11:638123,7,6,9,9,30,13,-5,3
14:49:11:646363,7,6,9,9,30,13,-5,3
14:49:11:647113,2,2,-5,-2,-3,-6,-7,11
14:49:11:653076,13,0,-3,0,9,12,-5,-4
14:49:11:660599,13,0,-3,0,9,12,-5,-4
14:49:11:668134,1,2,-1,-2,-14,-12,-7,-3
14:49:11:675617,-10,-7,6,9,-4,-8,-3,13
14:49:11:683822,-10,-7,6,9,-4,-8,-3,13
14:49:11:684551,-4,6,0,-3,-6,-4,2,-7
14:49:11:698058,-11,-5,8,-4,-9,-6,-4,-5
14:49:11:706256,-11,-5,8,-4,-9,-6,-4,-5
14:49:11:707076,-5,-4,1,-1,15,10,3,5
14:49:11:713120,-9,-1,-6,1,-4,-5,2,-5
14:49:11:720619,-9,-1,-6,1,-4,-5,2,-5
14:49:11:728068,-8,-4,1,2,12,0,-1,2
14:49:11:735613,-7,-1,-4,0,-12,-11,-7,-1
14:49:11:743834,-7,-1,-4,0,-12,-11,-7,-1
14:49:11:744592,9,2,-12,-6,-4,5,12,-4
14:49:11:758105,-6,-3,-15,-1,-11,-14,-2,-21
14:49:11:766294,-6,-3,-15,-1,-11,-14,-2,-21
14:49:11:767067,-3,-4,13,-1,5,13,1,8
14:49:11:781235,7,-1,-7,-8,-8,21,2,7
14:49:11:782049,7,-1,-7,-8,-8,21,2,7
14:49:11:788087,-1,-1,8,1,-18,-2,2,-9
14:49:11:795593,10,-3,10,-11,-8,6,0,0
14:49:11:803119,10,-3,10,-11,-8,6,0,0
14:49:11:810532,-3,-3,3,2,6,-3,-2,4
14:49:11:818045,-16,0,-2,-13,-7,-13,-4,-3
14:49:11:826258,-16,0,-2,-13,-7,-13,-4,-3
14:49:11:827120,1,-3,-3,-1,-10,4,-6,-18
14:49:11:841313,-16,0,-31,-1,7,-15,-3,-18
14:49:11:842103,-16,0,-31,-1,7,-15,-3,-18
14:49:11:848062,-6,-7,-12,-4,23,5,-3,6
14:49:11:855545,2,0,-9,-4,5,-1,6,16
14:49:11:863177,2,0,-9,-4,5,-1,6,16
14:49:11:870577,-1,-2,13,6,-13,-1,-6,-10
14:49:11:878043,7,0,19,3,6,-6,0,-6
14:49:11:886335,7,0,19,3,6,-6,0,-6
14:49:11:887126,-4,0,-2,4,18,3,9,2
14:49:11:901315,9,-8,-3,-2,17,15,1,-9
14:49:11:902123,9,-8,-3,-2,17,15,1,-9
14:49:11:908080,-4,0,-8,-5,27,-1,2,1
14:49:11:915609,-2,-2,-6,1,-9,-14,-11,5
14:49:11:923182,-2,-2,-6,1,-9,-14,-11,5
14:49:11:930546,12,2,3,0,-15,-5,-8,-4
14:49:11:938139,-1,-4,9,5,-13,-6,-14,20
14:49:11:946330,-1,-4,9,5,-13,-6,-14,20
14:49:11:947136,-9,-2,-3,-3,-11,-9,-5,-2
14:49:11:961288,3,-1,1,0,-10,0,-1,2
14:49:11:962134,3,-1,1,0,-10,0,-1,2
14:49:11:968119,-2,-2,-15,-6,-4,-9,-6,1
14:49:11:975588,-4,-2,0,-2,6,-11,-3,-8
14:49:11:983162,-4,-2,0,-2,6,-11,-3,-8
14:49:11:990626,-1,3,16,15,3,17,15,-2
14:49:11:998065,0,6,4,2,-13,0,4,-13
14:49:12:6255,0,6,4,2,-13,0,4,-13
14:49:12:7041,-1,-1,8,5,7,-14,-5,-20
14:49:12:21302,2,2,1,-1,-11,-17,4,8
14:49:12:22129,2,2,1,-1,-11,-17,4,8
14:49:12:28097,4,-3,-17,-6,8,-9,8,0
14:49:12:35571,-5,2,2,3,1,10,2,-8
14:49:12:43112,-5,2,2,3,1,10,2,-8
14:49:12:50628,-5,-1,-11,1,17,-6,-11,6
14:49:12:58101,10,-2,11,3,32,11,11,0
14:49:12:66327,10,-2,11,3,32,11,11,0
14:49:12:67096,-5,-2,9,-4,-16,6,-8,2
14:49:12:81238,-9,3,6,1,-6,7,-12,5
14:49:12:82090,-9,3,6,1,-6,7,-12,5
14:49:12:88131,6,0,-13,-4,-26,-11,-11,-3
14:49:12:95624,-1,1,-3,-1,5,-3,-10,1
14:49:12:103151,-1,1,-3,-1,5,-3,-10,1
14:49:12:110576,-4,-4,3,-4,-12,-6,-3,0
14:49:12:118076,-6,0,-16,-7,5,20,12,3
14:49:12:126257,-6,0,-16,-7,5,20,12,3
14:49:12:127099,3,-1,-17,-2,-6,11,6,-7
14:49:12:141310,-3,-9,-11,-8,-5,-26,12,-8
14:49:12:142094,-3,-9,-11,-8,-5,-26,12,-8
14:49:12:148081,-7,2,20,6,2,7,13,-9
14:49:12:155534,3,2,-11,-6,4,1,-6,-2
14:49:12:163161,3,2,-11,-6,4,1,-6,-2
14:49:12:170570,-3,-1,2,-11,0,-6,-5,-8
14:49:12:178037,1,-3,-6,-4,-5,4,2,-1
14:49:12:186299,1,-3,-6,-4,-5,4,2,-1
14:49:12:187085,0,0,20,11,10,20,-6,12
14:49:12:201287,0,-2,-20,-3,-8,-1,-4,0
14:49:12:202079,0,-2,-20,-3,-8,-1,-4,0
14:49:12:208058,-1,-2,-4,-9,-8,-21,3,3
14:49:12:215568,6,-1,-3,3,3,13,16,7
14:49:12:223134,6,-1,-3,3,3,13,16,7
14:49:12:230552,1,-1,-21,-2,-5,0,-3,4
14:49:12:238111,-4,0,14,0,-3,1,-16,-13
14:49:12:246302,-4,0,14,0,-3,1,-16,-13
14:49:12:247108,4,-2,-7,-3,-15,-4,-2,7
14:49:12:261317,3,1,2,3,-15,-12,2,6
14:49:12:262112,3,1,2,3,-15,-12,2,6
14:49:12:268077,-3,0,-17,-6,10,8,-3,-5
14:49:12:275600,-4,2,1,-3,1,6,-8,3
14:49:12:283139,-4,2,1,-3,1,6,-8,3
14:49:12:290631,3,6,16,2,1,-7,-9,-1
14:49:12:298085,-1,0,6,8,11,-7,-2,1
14:49:12:307352,-1,0,6,8,11,-7,-2,1
14:49:12:313109,-8,-4,-2,-1,-12,-9,-5,7
14:49:12:321261,-1,3,1,0,21,-25,-12,-2
14:49:12:322081,-1,3,1,0,21,-25,-12,-2
14:49:12:328024,1,1,4,0,21,10,10,-1
14:49:12:335584,-1,0,-11,-5,-14,-1,-3,-9
14:49:12:343106,-1,0,-11,-5,-14,-1,-3,-9
14:49:12:350565,2,-1,3,-2,13,0,4,-3
14:49:12:358050,4,2,6,2,3,4,-2,4
14:49:12:366351,4,2,6,2,3,4,-2,4
14:49:12:367106,2,-2,-9,-2,-13,10,5,6
14:49:12:381264,-1,-4,-3,-5,-16,5,8,-1
14:49:12:382100,-1,-4,-3,-5,-16,5,8,-1
14:49:12:388136,1,-2,-4,-4,-11,0,-2,0
14:49:12:395584,-8,-2,2,-4,-24,8,1,-3
14:49:12:403154,-8,-2,2,-4,-24,8,1,-3
14:49:12:410593,-5,0,-1,-5,11,-12,-5,-7
14:49:12:418096,-14,-1,-4,-1,5,6,10,4
14:49:12:433770,-14,-1,-4,-1,5,6,10,4
14:49:12:434570,-1,-2,0,2,-10,-13,-6,1
14:49:12:441314,5,-1,4,-1,20,-5,-3,-1
14:49:12:442151,5,-1,4,-1,20,-5,-3,-1
14:49:12:448056,-5,-2,1,-3,-16,-14,-8,-5
14:49:12:455556,2,0,-11,0,-16,-7,-4,-3
14:49:12:463180,2,0,-11,0,-16,-7,-4,-3
14:49:12:470587,3,1,-1,2,6,3,4,5
14:49:12:478093,0,2,10,3,4,-14,-15,-2
14:49:12:486347,0,2,10,3,4,-14,-15,-2
14:49:12:487054,-5,-6,-6,-1,14,23,23,7
14:49:12:501271,0,-3,0,-5,-8,-8,22,-6
14:49:12:502073,0,-3,0,-5,-8,-8,22,-6
14:49:12:508057,0,-2,2,2,-8,-8,0,-6
14:49:12:515631,-7,-5,-3,2,10,30,-8,-3
14:49:12:523114,-7,-5,-3,2,10,30,-8,-3
14:49:12:530583,-2,-4,-4,-2,3,0,-14,-6
14:49:12:538146,12,-3,-1,-5,8,5,2,9
14:49:12:546328,12,-3,-1,-5,8,5,2,9
14:49:12:547077,-8,2,18,3,-5,10,-8,-15
14:49:12:561296,-8,2,7,6,-9,-14,-6,-2
14:49:12:562130,-8,2,7,6,-9,-14,-6,-2
14:49:12:568141,5,3,-8,-8,7,3,0,9
14:49:12:575609,-4,-2,-3,-1,7,4,0,-11
14:49:12:591317,-4,-2,-3,-1,7,4,0,-11
14:49:12:592087,-2,-2,-1,0,-15,9,4,9
14:49:12:598074,2,-3,-6,-2,4,8,-5,-10
14:49:12:606262,2,-3,-6,-2,4,8,-5,-10
14:49:12:607078,21,-2,-4,1,23,-23,-12,-13
14:49:12:621283,1,-1,3,-4,4,9,19,12
14:49:12:622057,1,-1,3,-4,4,9,19,12
14:49:12:628085,-9,1,3,2,4,11,5,-4
14:49:12:635644,-3,2,-7,-4,-6,-18,8,-4
14:49:12:643142,-3,2,-7,-4,-6,-18,8,-4
14:49:12:650654,-6,-4,-13,6,27,4,3,-2
14:49:12:658161,-4,-3,-6,-4,-11,-9,-7,1
14:49:12:666286,-4,-3,-6,-4,-11,-9,-7,1
14:49:12:667145,-2,1,3,-5,-14,9,24,5
14:49:12:681263,3,2,2,11,21,24,-7,12
14:49:12:682083,3,2,2,11,21,24,-7,12
14:49:12:688139,-3,-6,-5,-4,-37,-20,6,-16
14:49:12:695648,13,-4,-2,-3,2,-18,-39,-9
14:49:12:711368,13,-4,-2,-3,2,-18,-39,-9
14:49:12:712195,-8,-2,8,-3,4,2,-14,-8
14:49:12:718110,0,5,2,-3,-10,-8,2,1
14:49:12:725598,0,5,2,-3,-10,-8,2,1
14:49:12:733149,-4,1,4,-6,-4,-7,-20,4
14:49:12:741332,-3,-2,0,-1,-4,0,2,4
14:49:12:742131,-3,-2,0,-1,-4,0,2,4
14:49:12:748077,3,3,12,3,-9,6,0,-1
14:49:12:763804,-5,-1,-22,0,5,1,6,-4
14:49:12:764583,-5,-1,-22,0,5,1,6,-4
14:49:12:770560,-2,-2,0,-1,1,-15,-5,-4
14:49:12:778100,-6,-6,8,-4,0,8,3,4
14:49:12:785645,-6,-6,8,-4,0,8,3,4
14:49:12:793062,2,5,-3,-12,-44,-37,-17,4
14:49:12:809459,-4,-2,13,14,21,25,24,16
14:49:12:810245,-4,-2,13,14,21,25,24,16
14:49:12:811045,3,1,-6,7,9,-2,-12,1
14:49:12:823725,-3,-1,-4,-7,-17,10,5,2
14:49:12:824579,-3,-1,-4,-7,-17,10,5,2
14:49:12:830579,-4,-4,12,4,5,-2,-4,5
14:49:12:838134,-6,-2,6,8,43,6,8,-10
14:49:12:845631,-6,-2,6,8,43,6,8,-10
14:49:12:853071,-4,-3,0,-3,5,13,-1,-16
14:49:12:869462,-1,-5,5,-3,-13,-20,-13,-8
14:49:12:870273,-1,-5,5,-3,-13,-20,-13,-8
14:49:12:871068,0,-3,-6,-5,-5,-11,4,9
14:49:12:883806,0,4,-15,-6,21,14,-8,-9
14:49:12:884604,0,4,-15,-6,21,14,-8,-9
14:49:12:890592,-3,-1,-7,-2,-5,3,-3,4
14:49:12:898106,1,0,4,1,-21,-13,2,-9
14:49:12:905604,1,0,4,1,-21,-13,2,-9
14:49:12:913165,5,-6,-8,1,14,15,6,24
14:49:12:921241,-1,0,4,1,-23,-28,-30,1
14:49:12:922078,-1,0,4,1,-23,-28,-30,1
14:49:12:928050,-2,2,-7,-2,-17,-5,-7,-12
14:49:12:943775,5,-2,-1,-7,-16,-8,-5,-7
14:49:12:944622,5,-2,-1,-7,-16,-8,-5,-7
14:49:12:950619,-11,-1,12,6,8,-2,4,11
14:49:12:958079,-5,0,1,-4,-6,-2,5,-21
14:49:12:965636,-5,0,1,-4,-6,-2,5,-21
14:49:12:973055,0,-3,4,0,6,2,-1,-2
14:49:12:981646,-5,-1,-7,-7,-21,-10,3,10
14:49:12:988790,-5,-1,-7,-7,-21,-10,3,10
14:49:12:989562,3,5,-9,5,22,18,7,-17
14:49:13:3762,4,1,-7,-4,4,10,-1,15
14:49:13:4576,4,1,-7,-4,4,10,-1,15
14:49:13:10556,-1,0,0,-2,-42,-22,-17,-17
14:49:13:18046,-2,-3,-3,8,16,-5,13,7
14:49:13:25654,-2,-3,-3,8,16,-5,13,7
14:49:13:33048,1,2,-16,-4,0,12,4,2
14:49:13:41296,-10,-7,4,-2,-15,-17,-28,-12
14:49:13:42126,-10,-7,4,-2,-15,-17,-28,-12
14:49:13:48078,8,0,-27,-7,4,-3,4,-2
14:49:13:63804,-3,-6,-15,2,9,10,9,1
14:49:13:64619,-3,-6,-15,2,9,10,9,1
14:49:13:70578,-4,2,11,0,5,0,-2,2
14:49:13:78017,-2,3,-12,-2,-19,-11,1,-3
14:49:13:85683,-2,3,-12,-2,-19,-11,1,-3
14:49:13:93081,2,0,9,5,37,26,6,2
14:49:13:101313,-5,-2,-18,-16,7,3,-3,-3
14:49:13:102097,-5,-2,-18,-16,7,3,-3,-3
14:49:13:108085,-9,-5,-17,-5,-17,-31,-3,-5
14:49:13:123798,6,1,6,2,26,11,0,7
14:49:13:124624,6,1,6,2,26,11,0,7
14:49:13:130568,5,-9,-2,-3,-1,2,5,2
14:49:13:146285,10,0,7,-2,-11,-7,1,-4
14:49:13:147131,10,0,7,-2,-11,-7,1,-4
14:49:13:153064,3,-2,13,4,5,13,0,1
14:49:13:161324,6,3,21,16,-11,-22,0,0
14:49:13:162178,6,3,21,16,-11,-22,0,0
14:49:13:168111,-10,-3,11,9,14,-2,2,-1
14:49:13:183797,-5,-3,8,0,-6,-2,1,-4
14:49:13:184603,-5,-3,8,0,-6,-2,1,-4
14:49:13:190570,0,6,-24,-6,-11,-3,-16,-3
14:49:13:198034,3,2,14,6,0,-3,-5,5
14:49:13:205610,3,2,14,6,0,-3,-5,5
14:49:13:213112,-6,-4,-8,-17,-7,-16,-9,10
14:49:13:221702,-6,1,2,1,22,20,1,-8
14:49:13:228819,-6,1,2,1,22,20,1,-8
14:49:13:229603,-5,-7,8,2,12,10,-1,-2
14:49:13:243798,6,2,-7,3,3,-6,-5,2
14:49:13:244615,6,2,-7,3,3,-6,-5,2
14:49:13:250574,1,-4,7,3,-10,-8,-2,-3
14:49:13:258065,-11,2,-8,-6,-5,22,-1,-15
14:49:13:265673,-11,2,-8,-6,-5,22,-1,-15
14:49:13:273089,0,1,1,0,-9,-7,2,0
14:49:13:281231,2,-2,4,-13,-8,-8,6,8
14:49:13:282062,2,-2,4,-13,-8,-8,6,8
14:49:13:288116,-9,6,15,3,-32,-9,0,-1
14:49:13:303740,-3,-7,-6,5,31,40,11,1
14:49:13:304565,-3,-7,-6,5,31,40,11,1
14:49:13:310575,1,2,0,0,5,0,15,5
14:49:13:326302,-1,-5,-16,-5,-27,-34,-25,-8
14:49:13:327148,-1,-5,-16,-5,-27,-34,-25,-8
14:49:13:341972,-2,0,5,3,10,-5,-1,-6
14:49:13:342745,4,-1,-13,-5,16,-1,5,-9
14:49:13:343558,4,-1,-13,-5,16,-1,5,-9
14:49:13:348076,6,-1,6,-20,-5,-8,3,21
14:49:13:363831,-11,-2,-7,-2,-39,-39,-2,-4
14:49:13:364573,-11,-2,-7,-2,-39,-39,-2,-4
14:49:13:370564,2,-1,10,6,38,10,-2,-11
14:49:13:386333,2,-1,10,6,38,10,-2,-11
14:49:13:387054,3,1,-1,0,-19,3,6,3
14:49:13:393075,0,2,36,10,2,14,0,-8
14:49:13:401299,0,2,36,10,2,14,0,-8
14:49:13:402091,-5,2,6,-14,-14,-14,-8,-7
14:49:13:408049,0,0,-18,-15,-1,9,-11,-3
14:49:13:424262,0,0,-18,-15,-1,9,-11,-3
14:49:13:425038,2,-3,18,9,18,28,4,-4
14:49:13:430519,6,0,-18,0,-5,-3,4,10
14:49:13:446298,6,0,-18,0,-5,-3,4,10
14:49:13:447071,-1,-2,-12,-5,1,-3,-3,-9
14:49:13:453057,-2,0,-3,-1,-7,4,0,1
14:49:13:461283,-2,0,-3,-1,-7,4,0,1
14:49:13:462126,-16,-5,42,0,-8,3,5,11
14:49:13:468072,-4,-5,-4,-2,-6,-5,-6,4
14:49:13:483823,-4,-5,-4,-2,-6,-5,-6,4
14:49:13:484606,2,4,-1,5,9,-12,-1,-8
14:49:13:490590,-1,-8,-50,3,13,6,4,-4
14:49:13:506290,-1,-8,-50,3,13,6,4,-4
14:49:13:507074,2,1,8,-2,-15,-5,-2,7
14:49:13:513135,3,3,-20,14,24,3,3,4
14:49:13:521277,3,3,-20,14,24,3,3,4
14:49:13:522084,18,-3,-3,1,-3,-21,-22,-1
14:49:13:528100,5,-3,30,3,-7,3,12,-7
14:49:13:544332,5,-3,30,3,-7,3,12,-7
14:49:13:545070,-8,-4,-31,-7,29,8,-8,6
14:49:13:550637,-1,-6,-4,-9,4,9,-7,-5
14:49:13:566275,-1,-6,-4,-9,4,9,-7,-5
14:49:13:567099,0,-1,-6,-6,-18,-9,5,-2
14:49:13:573104,14,-1,0,-7,-32,-6,-2,-4
14:49:13:581244,14,-1,0,-7,-32,-6,-2,-4
14:49:13:582055,-6,1,-9,16,24,16,-13,-11
14:49:13:588095,-13,6,5,1,-20,7,10,3
14:49:13:603790,-13,6,5,1,-20,7,10,3
14:49:13:604587,2,-2,10,6,-19,-20,-2,-1
14:49:13:610630,-22,-7,5,0,6,-17,-16,6
14:49:13:626351,-22,-7,5,0,6,-17,-16,6
14:49:13:627149,-7,2,-7,-13,47,64,12,1
14:49:13:633085,9,-1,2,-6,-3,15,5,-12
14:49:13:641294,9,-1,2,-6,-3,15,5,-12
14:49:13:642068,5,-5,0,5,-17,-15,6,10
14:49:13:655544,-7,2,-24,4,6,-21,-10,1
14:49:13:663881,-7,2,-24,4,6,-21,-10,1
14:49:13:664635,2,2,17,-1,-15,-10,4,2
14:49:13:670592,0,1,-14,2,7,6,-2,-8
14:49:13:686302,0,1,-14,2,7,6,-2,-8
14:49:13:687097,-11,-2,-50,-17,-16,-22,-20,8
14:49:13:693086,11,-2,-2,-4,-24,10,15,9
14:49:13:701274,11,-2,-2,-4,-24,10,15,9
14:49:13:702026,3,2,7,6,7,37,11,0
14:49:13:715616,-1,3,-11,-7,-11,2,9,-13
14:49:13:723825,-1,3,-11,-7,-11,2,9,-13
14:49:13:724611,4,-6,12,6,-24,-12,1,-4
14:49:13:730562,-10,-6,25,3,-18,-5,-3,-2
14:49:13:746333,-10,-6,25,3,-18,-5,-3,-2
14:49:13:747123,-1,-3,-60,-2,-13,-12,-6,6
14:49:13:753104,-3,4,22,9,1,26,-3,-2
14:49:13:761376,-3,4,22,9,1,26,-3,-2
14:49:13:762104,0,5,35,4,5,-3,6,0
14:49:13:775594,8,0,49,-2,18,-28,-6,0
14:49:13:783790,8,0,49,-2,18,-28,-6,0
14:49:13:784635,-1,-11,26,4,-2,-12,1,-5
14:49:13:790609,-2,3,19,2,28,37,-1,9
14:49:13:806284,-2,3,19,2,28,37,-1,9
14:49:13:807066,-6,0,-1,-3,-5,23,2,5
14:49:13:821941,2,-7,-25,-9,-36,-31,0,2
14:49:13:822749,2,-7,-25,-9,-36,-31,0,2
14:49:13:823596,3,3,-6,0,5,-18,2,14
14:49:13:835619,-10,1,-7,-2,3,-14,-7,-8
14:49:13:843804,-10,1,-7,-2,3,-14,-7,-8
14:49:13:844605,4,1,12,-5,10,0,-4,-10
14:49:13:850664,0,-6,-31,-7,-10,-23,1,1
14:49:13:866337,0,-6,-31,-7,-10,-23,1,1
14:49:13:867090,-4,0,-7,5,33,22,6,-10
14:49:13:873096,-4,-3,-14,-2,-18,-21,-8,-5
14:49:13:881232,-4,-3,-14,-2,-18,-21,-8,-5
14:49:13:882049,-1,-2,-18,-2,23,36,6,-6
14:49:13:895603,-3,-2,-16,5,-7,11,-9,0
14:49:13:903769,-3,-2,-16,5,-7,11,-9,0
14:49:13:904543,-6,-6,17,-7,-24,-24,5,3
14:49:13:910613,-3,-3,-34,-9,8,-22,-16,3
14:49:13:926331,-3,-3,-34,-9,8,-22,-16,3
14:49:13:927112,4,8,11,7,29,49,18,14
14:49:13:941980,-1,1,12,-1,35,-1,6,2
14:49:13:942781,-1,1,12,-1,35,-1,6,2
14:49:13:943605,1,-5,-6,-1,-5,-10,-6,-14
14:49:13:955529,0,2,13,-2,-29,-22,-21,-3
14:49:13:963874,0,2,13,-2,-29,-22,-21,-3
14:49:13:964582,-6,-2,5,-4,-67,-21,21,-2
14:49:13:970599,-8,3,9,1,6,9,14,-10
14:49:13:986332,-8,3,9,1,6,9,14,-10
14:49:13:987082,1,0,-10,-3,-4,-20,-24,-4
14:49:13:993070,15,-1,21,5,27,-10,6,5
14:49:14:1319,15,-1,21,5,27,-10,6,5
14:49:14:2091,-14,-10,-1,-6,-3,-12,-7,-12
14:49:14:15632,-4,-2,11,-2,35,11,-6,1
14:49:14:23845,-4,-2,11,-2,35,11,-6,1
14:49:14:24626,8,6,0,-3,1,-8,-2,0
14:49:14:30539,-1,-4,-22,1,7,18,11,-3
14:49:14:46318,-1,-4,-22,1,7,18,11,-3
14:49:14:47145,0,3,-14,-4,-4,8,-9,0
14:49:14:53078,-7,-3,-2,-4,-20,-2,0,6
14:49:14:61319,-7,-3,-2,-4,-20,-2,0,6
14:49:14:62112,-8,-9,3,2,8,-8,-16,-6
14:49:14:75643,6,-5,-1,-6,-20,-13,9,2
14:49:14:83827,6,-5,-1,-6,-20,-13,9,2
14:49:14:84577,-1,3,17,-1,30,5,6,-3
14:49:14:90609,-10,2,20,5,-24,-23,-7,-6
14:49:14:106238,-10,2,20,5,-24,-23,-7,-6
14:49:14:107063,3,1,6,1,-6,-4,21,-7
14:49:14:113115,1,-2,20,-6,-9,3,0,-7
14:49:14:121266,1,-2,20,-6,-9,3,0,-7
14:49:14:122098,7,2,2,-1,-1,-11,-11,6
14:49:14:135609,-1,-2,-19,0,-13,10,-3,-7
14:49:14:143820,-1,-2,-19,0,-13,10,-3,-7
14:49:14:144543,-4,0,-7,-2,6,-11,3,-1
14:49:14:150583,3,2,-12,-4,3,17,-5,-2
14:49:14:166308,3,2,-12,-4,3,17,-5,-2
14:49:14:167054,2,2,-8,-8,-2,1,-16,-2
14:49:14:173103,-8,-3,-7,1,8,15,34,0
14:49:14:181237,-8,-3,-7,1,8,15,34,0
14:49:14:182053,4,-6,-2,-6,-8,1,-7,-8
14:49:14:195626,3,-2,0,-8,21,-4,-14,-3
14:49:14:203797,3,-2,0,-8,21,-4,-14,-3
14:49:14:204573,-16,-2,6,7,-6,0,-5,4
14:49:14:218115,-8,3,3,-6,-7,4,-2,-5
14:49:14:226337,-8,3,3,-6,-7,4,-2,-5
14:49:14:227140,-5,-6,-2,1,0,-13,-5,-2
14:49:14:233120,4,0,-15,7,14,14,-1,1
14:49:14:241303,4,0,-15,7,14,14,-1,1
14:49:14:242094,4,-1,-22,-11,-18,-3,3,6
14:49:14:255562,8,-4,6,-8,-6,-12,-5,1
14:49:14:263771,8,-4,6,-8,-6,-12,-5,1
14:49:14:264565,6,-4,9,6,5,9,2,7
14:49:14:270600,-3,5,9,-3,-20,-9,-2,1
14:49:14:286352,-3,5,9,-3,-20,-9,-2,1
14:49:14:287095,-4,6,-8,9,-7,13,16,-8
14:49:14:293072,0,4,0,4,-4,-7,-12,-3
14:49:14:301250,0,4,0,4,-4,-7,-12,-3
14:49:14:302077,-21,-9,8,-3,-15,-1,-8,-2
14:49:14:315612,-6,-6,-32,0,20,3,7,-12
14:49:14:323787,-6,-6,-32,0,20,3,7,-12
14:49:14:324633,10,6,-2,1,2,-9,-7,1
14:49:14:338865,2,-1,-3,0,-6,2,-3,4
14:49:14:339647,2,-1,-3,0,-6,2,-3,4
14:49:14:345565,2,-3,-11,3,1,0,2,3
14:49:14:353073,3,0,12,0,-5,6,-3,-10
14:49:14:361342,3,0,12,0,-5,6,-3,-10
14:49:14:362132,1,2,-7,-3,5,7,6,6
14:49:14:376030,-5,3,10,0,-16,-14,0,6
14:49:14:383813,-5,3,10,0,-16,-14,0,6
14:49:14:384599,-2,-1,6,-1,5,-2,-5,2
14:49:14:390582,-1,-5,15,7,11,19,15,4
14:49:14:398137,-1,-5,15,7,11,19,15,4
14:49:14:405573,-7,-2,3,-4,-6,-7,-5,-5
14:49:14:413121,-3,1,-15,7,38,34,11,7
14:49:14:421273,-3,1,-15,7,38,34,11,7
14:49:14:422077,2,2,2,-2,-12,-14,-14,-10
14:49:14:435623,-1,-3,-4,-7,-10,-12,-12,0
14:49:14:443821,-1,-3,-4,-7,-10,-12,-12,0
14:49:14:444638,-4,-3,-16,-3,0,-14,-2,4
14:49:14:450577,2,-2,-11,-3,21,1,1,2
14:49:14:458082,2,-2,-11,-3,21,1,1,2
14:49:14:465621,2,0,10,0,12,3,3,-3
14:49:14:473112,1,-7,-16,-4,-22,-25,-11,-12
14:49:14:481244,1,-7,-16,-4,-22,-25,-11,-12
14:49:14:482034,3,6,3,-2,-1,21,4,-15
14:49:14:495585,-1,0,1,2,22,35,1,1
14:49:14:503744,-1,0,1,2,22,35,1,1
14:49:14:504583,-1,-10,-56,-12,-29,-11,12,7
14:49:14:510633,-3,-2,8,-3,-30,-23,-10,-6
14:49:14:518109,-3,-2,8,-3,-30,-23,-10,-6
14:49:14:525598,3,0,13,3,15,-9,-3,-5
14:49:14:533076,4,-3,-3,-2,-38,-13,-3,-1
14:49:14:541257,4,-3,-3,-2,-38,-13,-3,-1
14:49:14:542056,0,5,20,4,16,-6,-5,0
14:49:14:555573,-5,0,-2,-9,-2,-6,6,-1
14:49:14:563855,-5,0,-2,-9,-2,-6,6,-1
14:49:14:564599,-3,-2,5,0,7,1,-10,-2
14:49:14:570575,2,4,-13,3,3,-12,-4,-4
14:49:14:586273,2,4,-13,3,3,-12,-4,-4
14:49:14:587034,1,-6,-1,-5,1,2,21,0
14:49:14:593095,4,-2,-39,-2,15,42,9,7
14:49:14:600605,4,-2,-39,-2,15,42,9,7
14:49:14:608048,-6,-1,15,-2,-24,8,-13,-6
14:49:14:615636,0,1,14,4,20,-10,-4,-3
14:49:14:623776,0,1,14,4,20,-10,-4,-3
14:49:14:624595,-3,1,-4,-8,-12,-7,1,4
14:49:14:638814,-1,-1,4,0,6,-14,-10,-2
14:49:14:639579,-1,-1,4,0,6,-14,-10,-2
14:49:14:653774,1,0,3,-3,-8,-5,0,0
14:49:14:654598,-4,-5,4,0,-8,-7,-10,-1
14:49:14:660619,-4,-5,4,0,-8,-7,-10,-1
14:49:14:668090,-1,0,-3,-1,8,1,-4,4
14:49:14:675595,-4,2,13,3,36,9,-3,-2
14:49:14:683820,-4,2,13,3,36,9,-3,-2
14:49:14:684589,0,0,-16,-5,7,7,-2,0
14:49:14:698741,-7,-4,18,-2,-11,-19,-4,-4
14:49:14:699569,-7,-4,18,-2,-11,-19,-4,-4
14:49:14:705592,2,-4,9,10,3,-10,-2,6
14:49:14:713112,-4,-1,1,0,3,9,0,-22
14:49:14:720628,-4,-1,1,0,3,9,0,-22
14:49:14:728033,2,2,-4,2,24,16,-3,-4
14:49:14:735622,5,2,4,-3,-25,-7,1,7
14:49:14:743824,5,2,4,-3,-25,-7,1,7
14:49:14:744606,-5,-6,-4,-7,-21,8,-3,-6
14:49:14:758730,-1,-2,-4,1,-6,-7,-6,2
14:49:14:759580,-1,-2,-4,1,-6,-7,-6,2
14:49:14:773801,0,-1,-9,1,0,-13,-6,-2
14:49:14:774582,-2,-1,-5,-1,-15,6,6,4
14:49:14:780573,-2,-1,-5,-1,-15,6,6,4
14:49:14:788159,2,0,10,-2,6,0,5,2
14:49:14:795600,2,-4,-35,-13,-20,-23,-8,2
14:49:14:803792,2,-4,-35,-13,-20,-23,-8,2
14:49:14:804574,-1,3,1,-4,15,11,3,-2
14:49:14:818106,-3,0,8,2,10,3,7,2
14:49:14:826278,-3,0,8,2,10,3,7,2
14:49:14:827068,0,0,-6,-3,-3,-6,-1,-1
14:49:14:833105,-6,-4,3,4,8,7,20,-2
14:49:14:840677,-6,-4,3,4,8,7,20,-2
14:49:14:848034,3,-1,5,0,-9,-15,-8,-5
14:49:14:855572,2,-4,-3,-2,3,13,-2,-3
14:49:14:863809,2,-4,-3,-2,3,13,-2,-3
14:49:14:864594,-6,-3,-3,3,-5,6,0,-2
14:49:14:878794,-2,0,0,-5,-21,-7,-5,-2
14:49:14:879580,-2,0,0,-5,-21,-7,-5,-2
14:49:14:893790,1,0,14,7,3,1,3,0
14:49:14:894596,1,5,12,6,43,15,1,1
14:49:14:900596,1,5,12,6,43,15,1,1
14:49:14:908040,-6,-3,-8,-8,-3,-5,0,2
14:49:14:915590,-1,-4,-5,-8,-18,-22,-7,-2
14:49:14:931254,-1,-4,-5,-8,-18,-22,-7,-2
14:49:14:932033,-1,2,-1,2,4,3,4,-3
14:49:14:938773,1,-2,-5,-2,-7,-9,-5,-1
14:49:14:939606,1,-2,-5,-2,-7,-9,-5,-1
14:49:14:945581,3,-1,5,6,5,11,16,-4
14:49:14:953091,-5,2,-1,0,-4,-9,-2,1
14:49:14:960656,-5,2,-1,0,-4,-9,-2,1
14:49:14:968088,-1,-3,17,0,-7,-9,-6,-2
14:49:14:984474,2,1,-5,0,-17,9,-4,1
14:49:14:985268,2,1,-5,0,-17,9,-4,1
14:49:14:986046,-1,-4,-12,-5,-4,2,-1,-4
14:49:14:998778,3,-2,0,0,-9,-9,-4,-3
14:49:14:999557,3,-2,0,0,-9,-9,-4,-3
14:49:15:5591,9,4,6,3,-4,5,-4,3
14:49:15:13124,0,-2,2,5,5,12,2,5
14:49:15:20614,0,-2,2,5,5,12,2,5
14:49:15:28025,1,1,-6,-5,-1,-20,-5,-6
14:49:15:35621,1,-1,3,-1,13,-3,1,11
14:49:15:51303,1,-1,3,-1,13,-3,1,11
14:49:15:52077,-4,-2,-7,0,5,13,-2,2
14:49:15:58780,-3,-3,2,-3,-9,-14,-13,-8
14:49:15:59571,-3,-3,2,-3,-9,-14,-13,-8
14:49:15:65607,-2,2,-3,0,-13,7,7,6
14:49:15:73095,-1,6,1,1,1,-6,5,18
14:49:15:88832,-1,6,1,1,1,-6,5,18
14:49:15:89585,0,-11,-7,-3,0,-5,-8,-17
14:49:15:95622,-3,2,4,2,1,-2,-3,-4
14:49:15:103807,-3,2,4,2,1,-2,-3,-4
14:49:15:104625,-4,0,-10,-6,-14,-21,-3,0
14:49:15:118809,3,-1,-16,-6,7,-8,2,-8
14:49:15:119595,3,-1,-16,-6,7,-8,2,-8
14:49:15:125648,-2,-2,-4,4,15,9,3,5
14:49:15:133063,-5,-4,-4,-8,-14,3,-1,-1
14:49:15:140632,-5,-4,-4,-8,-14,3,-1,-1
14:49:15:148071,0,-2,-1,-2,-4,-6,-7,3
14:49:15:155565,-1,-2,2,-1,-11,7,2,-1
14:49:15:163822,-1,-2,2,-1,-11,7,2,-1
14:49:15:164626,-1,2,7,-1,6,8,-3,0
14:49:15:178747,-3,-1,0,-1,-16,-32,5,-5
14:49:15:179562,-3,-1,0,-1,-16,-32,5,-5
14:49:15:185659,-9,-1,0,3,26,19,9,13
14:49:15:193085,-11,-9,8,2,-11,2,-8,-8
14:49:15:208823,-11,-9,8,2,-11,2,-8,-8
14:49:15:209657,-6,-2,-8,-8,-17,-12,-1,-7
14:49:15:215692,4,3,-3,-2,14,2,-3,-8
14:49:15:223825,4,3,-3,-2,14,2,-3,-8
14:49:15:224611,2,-1,-6,-1,1,-5,-4,3
14:49:15:238137,5,-1,-4,-3,8,2,-1,15
14:49:15:246281,5,-1,-4,-3,8,2,-1,15
14:49:15:247078,2,4,0,-1,-20,-11,-3,-6
14:49:15:253113,-2,-2,0,-6,-20,-18,-2,-6
14:49:15:260607,-2,-2,0,-6,-20,-18,-2,-6
14:49:15:268074,-2,-7,4,0,15,10,-3,0
14:49:15:275548,-1,-3,1,2,2,10,3,7
14:49:15:283748,-1,-3,1,2,2,10,3,7
14:49:15:284571,2,-3,5,-1,-3,-8,1,-8
14:49:15:298766,2,4,1,-6,17,17,-7,-6
14:49:15:299611,2,4,1,-6,17,17,-7,-6
14:49:15:305578,-5,1,0,4,-2,13,-4,10
14:49:15:313105,-2,1,-5,-1,-14,-5,2,-7
14:49:15:328768,-2,1,-5,-1,-14,-5,2,-7
14:49:15:329552,0,-3,5,-2,10,-20,-8,-1
14:49:15:335623,-1,-2,3,3,16,12,3,-6
14:49:15:343822,-1,-2,3,3,16,12,3,-6
14:49:15:344609,0,1,-2,-4,-8,3,1,3
14:49:15:358763,-3,-5,-4,-5,0,0,-3,4
14:49:15:359568,-3,-5,-4,-5,0,0,-3,4
14:49:15:365598,1,0,-4,0,-6,-9,2,1
14:49:15:373128,-9,-3,-6,-3,-17,-3,-1,-5
14:49:15:380614,-9,-3,-6,-3,-17,-3,-1,-5
14:49:15:388091,-1,-1,-4,-3,-10,11,11,2
14:49:15:395581,3,5,12,7,8,1,-1,3
14:49:15:403770,3,5,12,7,8,1,-1,3
14:49:15:404604,-1,-3,-6,-2,-4,-11,-6,-11
14:49:15:418767,-2,-3,0,1,-12,-9,1,3
14:49:15:419568,-2,-3,0,1,-12,-9,1,3
14:49:15:425575,2,3,-14,5,34,15,1,-9
14:49:15:433030,-1,-4,-5,-6,1,-9,-5,-2
14:49:15:448795,-1,-4,-5,-6,1,-9,-5,-2
14:49:15:449590,-3,-3,4,0,-12,-4,-5,-12
14:49:15:455579,0,1,-5,4,27,36,4,-4
14:49:15:463807,0,1,-5,4,27,36,4,-4
14:49:15:464578,-1,2,4,-2,-22,-5,-6,0
14:49:15:478776,5,-2,-10,-11,-10,-10,-4,11
14:49:15:479577,5,-2,-10,-11,-10,-10,-4,11
14:49:15:485608,2,2,0,4,15,0,0,5
14:49:15:493067,-2,0,-3,-3,-3,-3,-4,-13
14:49:15:500645,-2,0,-3,-3,-3,-3,-4,-13
14:49:15:508036,-5,-10,3,-8,-15,-17,-3,19
14:49:15:515590,-10,-5,-2,6,23,21,4,20
14:49:15:523583,-10,-5,-2,6,23,21,4,20
14:49:15:530549,-4,-5,4,-3,-5,-9,-3,-7
14:49:15:538869,0,1,10,4,-10,-4,4,-15
14:49:15:539694,0,1,10,4,-10,-4,4,-15
14:49:15:545593,-2,6,-1,0,-1,19,0,-9
14:49:15:569434,4,-4,-3,-4,-18,-11,-2,-2
14:49:15:570281,4,-4,-3,-4,-18,-11,-2,-2
14:49:15:571049,-2,-11,-6,-1,3,-4,7,15
14:49:15:575598,1,3,1,-1,-13,-18,-12,-14
14:49:15:583115,1,3,1,-1,-13,-18,-12,-14
14:49:15:590637,-2,-3,-5,-2,2,-2,4,10
14:49:15:598081,4,-13,-3,3,8,7,11,32
14:49:15:606313,4,-13,-3,3,8,7,11,32
14:49:15:607098,4,5,1,-1,-9,-9,-10,-8
14:49:15:621313,-4,-7,-2,-1,-18,-4,-6,8
14:49:15:622094,-4,-7,-2,-1,-18,-4,-6,8
14:49:15:628054,2,4,-5,2,-6,5,3,-5
14:49:15:635593,1,17,2,-2,10,-3,0,-32
14:49:15:643148,1,17,2,-2,10,-3,0,-32
14:49:15:650625,0,-3,-1,-5,2,18,-1,-18
14:49:15:658104,-5,9,-6,1,4,3,-1,-11
14:49:15:666294,-5,9,-6,1,4,3,-1,-11
14:49:15:667077,0,4,-2,3,-1,-7,4,13
14:49:15:681293,5,-4,6,2,14,-2,-10,-76
14:49:15:682113,5,-4,6,2,14,-2,-10,-76
14:49:15:688067,-3,-9,-2,-3,-7,-12,-14,-12
14:49:15:695599,-31,-6,-1,-5,-11,-9,-10,8
14:49:15:703118,-31,-6,-1,-5,-11,-9,-10,8
14:49:15:710563,-4,6,4,-1,6,1,2,4
14:49:15:718112,8,-4,-7,2,16,13,6,15
14:49:15:726242,8,-4,-7,2,16,13,6,15
14:49:15:727053,-3,-14,-2,-1,5,-10,2,21
14:49:15:741257,8,-7,2,-2,-11,3,0,9
14:49:15:742038,8,-7,2,-2,-11,3,0,9
14:49:15:748060,-4,1,-4,-2,-2,4,2,-17
14:49:15:755560,-6,2,-3,2,8,-3,-7,-4
14:49:15:763156,-6,2,-3,2,8,-3,-7,-4
14:49:15:770618,-8,-4,-4,1,3,17,-1,-14
14:49:15:778093,-1,0,-8,-1,-14,-17,-5,-6
14:49:15:786288,-1,0,-8,-1,-14,-17,-5,-6
14:49:15:787133,11,8,2,0,21,-11,1,-14
14:49:15:801282,-6,-1,-5,1,15,7,5,5
14:49:15:802100,-6,-1,-5,1,15,7,5,5
14:49:15:808054,0,-11,-2,-2,-6,-10,-2,2
14:49:15:815596,13,5,2,3,10,-5,4,6
14:49:15:823168,13,5,2,3,10,-5,4,6
14:49:15:830573,2,3,3,-6,-17,0,-2,12
14:49:15:838068,4,-3,5,-4,1,1,-4,22
14:49:15:846317,4,-3,5,-4,1,1,-4,22
14:49:15:847099,0,2,-2,1,-15,-12,7,11
14:49:15:861295,-11,1,2,-2,-13,3,-2,22
14:49:15:862106,-11,1,2,-2,-13,3,-2,22
14:49:15:868067,-2,5,0,3,24,3,-2,-12
14:49:15:875606,-1,4,-4,-4,-3,-6,3,-1
14:49:15:883124,-1,4,-4,-4,-3,-6,3,-1
14:49:15:890606,-4,-5,-4,-6,-18,-1,-1,-12
14:49:15:898753,-10,-10,-5,-2,11,1,-2,5
14:49:15:899602,-10,-10,-5,-2,11,1,-2,5
14:49:15:905548,-5,-1,-2,-3,3,6,-1,4
14:49:15:921773,2,-5,-9,-6,-16,-3,-2,-10
14:49:15:922599,2,-5,-9,-6,-16,-3,-2,-10
14:49:15:928074,-4,-2,0,1,4,-14,-7,-3
14:49:15:935636,5,7,-7,-3,-27,4,2,21
14:49:15:943179,5,7,-7,-3,-27,4,2,21
14:49:15:950590,10,5,5,4,4,13,12,8
14:49:15:958724,3,-2,4,-2,-9,-12,-3,-12
14:49:15:959592,3,-2,4,-2,-9,-12,-3,-12
14:49:15:965614,-2,-1,-6,-1,1,0,-14,2
14:49:15:981249,-4,-9,-12,-4,1,0,5,-18
14:49:15:982028,-4,-9,-12,-4,1,0,5,-18
14:49:15:988105,11,1,1,-1,-1,-6,-8,-19
14:49:15:995607,2,1,2,6,9,8,-4,10
14:49:16:3133,2,1,2,6,9,8,-4,10
14:49:16:10551,-2,4,-5,0,8,16,17,-9
14:49:16:18761,-4,5,-25,-8,-7,-2,3,4
14:49:16:19577,-4,5,-25,-8,-7,-2,3,4
14:49:16:25589,22,1,0,8,-10,10,2,0
14:49:16:41298,0,-5,4,1,11,-2,-3,-5
14:49:16:42091,0,-5,4,1,11,-2,-3,-5
14:49:16:48116,-5,0,-7,-13,-15,-6,-18,1
14:49:16:55580,-3,-16,17,8,0,-7,-5,-6
14:49:16:63151,-3,-16,17,8,0,-7,-5,-6
14:49:16:70608,-9,4,20,-11,-3,-8,-4,1
14:49:16:78073,14,27,41,5,0,9,15,-4
14:49:16:86305,14,27,41,5,0,9,15,-4
14:49:16:87042,-23,-2,-9,-3,-2,4,2,2
14:49:16:101296,6,-1,-1,-4,3,2,-6,0
14:49:16:102094,6,-1,-1,-4,3,2,-6,0
14:49:16:108055,-1,-16,8,3,2,3,1,-1
14:49:16:115606,-16,39,6,-2,-5,-18,-14,-10
14:49:16:123147,-16,39,6,-2,-5,-18,-14,-10
14:49:16:130570,0,0,12,-8,-20,-14,-11,-2
14:49:16:138860,0,-20,0,6,31,19,-2,-4
14:49:16:139627,0,-20,0,6,31,19,-2,-4
14:49:16:145622,-1,5,4,0,0,-3,2,-2
14:49:16:161328,-1,-2,23,-6,-16,-8,-1,-5
14:49:16:162076,-1,-2,23,-6,-16,-8,-1,-5
14:49:16:168064,4,1,-1,-1,9,4,-3,6
14:49:16:175585,1,-5,0,-9,-2,-2,4,3
14:49:16:183148,1,-5,0,-9,-2,-2,4,3
14:49:16:199450,0,-8,-3,-4,-6,-7,-2,3
14:49:16:200301,-5,-9,-9,2,-1,-6,-9,-7
14:49:16:201123,-5,-9,-9,2,-1,-6,-9,-7
14:49:16:205582,1,6,-16,2,6,-7,-5,1
14:49:16:221278,-1,-6,11,1,-9,2,8,-1
14:49:16:222087,-1,-6,11,1,-9,2,8,-1
14:49:16:228091,-6,3,28,6,17,2,-1,2
14:49:16:235629,6,7,-1,6,-4,-6,-1,2
14:49:16:243161,6,7,-1,6,-4,-6,-1,2
14:49:16:250578,-1,-4,-7,-3,-17,-13,-6,9
14:49:16:258791,-3,5,9,12,11,12,8,-1
14:49:16:259603,-3,5,9,12,11,12,8,-1
14:49:16:265566,-6,9,-1,-9,-10,-3,1,-8
14:49:16:281300,-7,-19,-41,-11,-16,-9,-9,1
14:49:16:282109,-7,-19,-41,-11,-16,-9,-9,1
14:49:16:288082,3,-8,-3,5,12,7,9,-7
14:49:16:295594,0,-7,-12,-2,-7,-4,-13,-24
14:49:16:303161,0,-7,-12,-2,-7,-4,-13,-24
14:49:16:310597,1,-5,-35,-12,1,-3,-11,-29
14:49:16:318737,10,-7,-22,-2,-3,-1,2,-2
14:49:16:319619,10,-7,-22,-2,-3,-1,2,-2
14:49:16:325562,-22,-17,-8,1,-1,-5,-5,-18
14:49:16:341363,2,0,8,2,16,0,-3,5
14:49:16:342156,2,0,8,2,16,0,-3,5
14:49:16:348108,3,-5,-3,8,1,8,12,14
14:49:16:355571,-4,-9,-12,-9,15,-4,-6,0
14:49:16:363192,-4,-9,-12,-9,15,-4,-6,0
14:49:16:370594,0,8,-5,3,-9,-6,-6,9
14:49:16:378728,-2,15,11,-8,-11,1,0,6
14:49:16:379587,-2,15,11,-8,-11,1,0,6
14:49:16:385627,5,-6,-21,-2,5,-1,0,2
14:49:16:401284,-4,2,-5,-9,-25,-7,1,-1
14:49:16:402060,-4,2,-5,-9,-25,-7,1,-1
14:49:16:408059,-1,-1,25,15,24,5,6,12
14:49:16:415600,0,-2,-1,-6,-5,-6,9,12
14:49:16:423137,0,-2,-1,-6,-5,-6,9,12
14:49:16:430563,7,-13,-47,-7,-1,-4,1,2
14:49:16:446937,-4,-2,9,2,1,0,-1,-4
14:49:16:447722,-4,-2,9,2,1,0,-1,-4
14:49:16:448571,-8,12,15,-9,-7,-2,-3,10
14:49:16:461267,0,-2,-26,7,-7,-5,-2,-7
14:49:16:462053,0,-2,-26,7,-7,-5,-2,-7
14:49:16:468070,3,6,16,11,11,15,5,-3
14:49:16:475584,-6,-3,18,4,16,7,3,-3
14:49:16:483121,-6,-3,18,4,16,7,3,-3
14:49:16:490652,-2,-11,-22,-6,23,12,7,9
14:49:16:498821,-1,-5,-6,1,-11,-3,-7,-3
14:49:16:499626,-1,-5,-6,1,-11,-3,-7,-3
14:49:16:513139,-1,5,29,8,-27,-14,-11,-13
14:49:16:521254,1,-4,-14,-3,2,-6,0,2
14:49:16:522123,1,-4,-14,-3,2,-6,0,2
14:49:16:528025,0,5,2,-10,-6,-9,-2,-3
14:49:16:543802,0,-4,4,-6,0,0,-6,-13
14:49:16:544705,0,-4,4,-6,0,0,-6,-13
14:49:16:550653,5,-1,2,21,43,16,-7,2
14:49:16:558743,1,-8,16,0,-10,5,15,15
14:49:16:559610,1,-8,16,0,-10,5,15,15
14:49:16:573112,4,-1,-33,-16,-34,-11,-3,-3
14:49:16:581223,3,-15,-11,3,1,-3,-1,10
14:49:16:582023,3,-15,-11,3,1,-3,-1,10
14:49:16:588068,-4,2,1,-1,-6,-2,3,1
14:49:16:603811,3,28,1,2,6,1,-1,-7
14:49:16:604622,3,28,1,2,6,1,-1,-7
14:49:16:610580,-1,-7,-5,-6,-6,-2,-5,2
14:49:16:618723,1,-1,12,2,-16,-4,-2,17
14:49:16:619582,1,-1,12,2,-16,-4,-2,17
14:49:16:633044,-3,15,8,4,30,4,0,-18
14:49:16:641237,1,-2,5,-8,-12,-5,-5,-4
14:49:16:642075,1,-2,5,-8,-12,-5,-5,-4
14:49:16:648070,-1,-5,9,-12,-3,-8,-1,1
14:49:16:663802,-4,-1,-12,-4,-2,8,6,-11
14:49:16:664607,-4,-1,-12,-4,-2,8,6,-11
14:49:16:670586,-5,3,26,9,-10,0,3,14
14:49:16:678702,-6,-5,8,-3,-7,-5,-10,-5
14:49:16:679616,-6,-5,8,-3,-7,-5,-10,-5
14:49:16:693091,2,-9,-25,-3,-15,-20,-3,15
14:49:16:701290,2,-9,-25,-3,-15,-20,-3,15
14:49:16:702138,-5,5,7,10,51,9,11,20
14:49:16:708068,-7,0,-11,-10,18,9,-4,-6
14:49:16:723818,-7,0,-11,-10,18,9,-4,-6
14:49:16:724608,5,2,-16,0,-6,8,1,-4
14:49:16:730566,2,-11,25,2,-19,-10,-2,-5
14:49:16:738813,2,-11,25,2,-19,-10,-2,-5
14:49:16:739603,-6,14,25,-11,-4,-6,-3,2
14:49:16:753102,2,3,0,-2,-14,1,-5,7
14:49:16:761288,2,3,0,-2,-14,1,-5,7
14:49:16:762103,-5,-16,8,1,0,-8,-6,7
14:49:16:768071,4,2,-6,-7,-12,3,3,6
14:49:16:783811,4,2,-6,-7,-12,3,3,6
14:49:16:784648,0,0,7,8,12,1,0,1
14:49:16:790650,7,7,4,12,25,8,7,5
14:49:16:798828,7,7,4,12,25,8,7,5
14:49:16:799657,-10,-17,-8,-11,-7,-3,-6,-11
14:49:16:813137,-3,-9,12,-13,-14,-10,-1,-5
14:49:16:821320,-3,-9,12,-13,-14,-10,-1,-5
14:49:16:822117,-7,0,-5,3,3,2,-6,-7
14:49:16:828086,-3,-4,-3,5,-2,-1,-2,-10
14:49:16:843823,-3,-4,-3,5,-2,-1,-2,-10
14:49:16:844636,6,2,-16,-8,-1,-1,-2,-6
14:49:16:850611,-8,-8,2,-5,-14,-2,1,-10
14:49:16:858816,-8,-8,2,-5,-14,-2,1,-10
14:49:16:859592,8,15,10,9,11,2,-3,-6
14:49:16:873060,-10,-12,-25,2,10,-1,-9,-7
14:49:16:881270,-10,-12,-25,2,10,-1,-9,-7
14:49:16:882095,-4,-5,-31,-10,-18,-10,-9,17
14:49:16:888087,-22,-10,-7,0,8,5,0,-4
14:49:16:903811,-22,-10,-7,0,8,5,0,-4
14:49:16:904607,0,5,18,-10,-5,-2,4,9
14:49:16:910599,4,3,-38,-7,-7,-3,-2,-4
14:49:16:918779,4,3,-38,-7,-7,-3,-2,-4
14:49:16:919596,1,13,7,-1,-3,1,0,-16
14:49:16:933075,5,10,10,-5,-13,-3,-1,-16
14:49:16:941308,5,10,10,-5,-13,-3,-1,-16
14:49:16:942078,5,-16,-38,6,-2,2,0,-5
14:49:16:948048,3,-2,21,8,24,4,-6,5
14:49:16:963816,3,-2,21,8,24,4,-6,5
14:49:16:965235,4,0,0,3,-12,7,3,-9
14:49:16:970613,4,11,-8,6,-23,-5,1,-4
14:49:16:986320,4,11,-8,6,-23,-5,1,-4
14:49:16:987072,1,9,61,6,9,-9,-2,11
14:49:16:993106,10,2,21,0,7,-1,-3,10
14:49:17:1291,10,2,21,0,7,-1,-3,10
14:49:17:2045,-2,-6,-43,-1,0,-1,-4,-7
14:49:17:8058,0,7,-1,0,-1,-2,1,0
14:49:17:23802,0,7,-1,0,-1,-2,1,0
14:49:17:24595,-10,2,-7,-2,5,1,3,-7
14:49:17:30547,-5,-9,-6,-4,-15,-7,-5,-16
14:49:17:38856,-5,-9,-6,-4,-15,-7,-5,-16
14:49:17:39604,-4,-33,-21,-3,-1,0,5,6
14:49:17:53116,-12,1,-5,-8,17,9,-9,-34
14:49:17:61281,-12,1,-5,-8,17,9,-9,-34
14:49:17:62034,4,5,-3,0,-5,-2,-5,9
14:49:17:68095,6,0,14,4,10,0,5,7
14:49:17:83848,6,0,14,4,10,0,5,7
14:49:17:84591,-10,6,-12,-4,-4,-3,-1,-6
14:49:17:90636,3,10,-4,-3,-5,-3,0,10
14:49:17:98776,3,10,-4,-3,-5,-3,0,10
14:49:17:99569,3,-5,-29,-7,-8,-5,-2,-10
14:49:17:113109,0,-17,-7,-11,1,-2,6,16
14:49:17:121257,0,-17,-7,-11,1,-2,6,16
14:49:17:122036,-3,-5,7,-7,7,1,-8,-30
14:49:17:128069,-5,-6,2,2,-15,-6,-9,11
14:49:17:143820,-5,-6,2,2,-15,-6,-9,11
14:49:17:144622,0,-3,-9,9,27,8,0,4
14:49:17:150612,2,8,4,-1,-5,-3,5,0
14:49:17:158748,2,8,4,-1,-5,-3,5,0
14:49:17:159605,1,-5,-4,2,-17,-8,-2,0
14:49:17:173080,4,-1,16,4,13,10,4,4
14:49:17:181262,4,-1,16,4,13,10,4,4
14:49:17:182087,-2,-7,1,-1,-3,-1,-1,-1
14:49:17:188058,-7,-13,-1,-6,-15,-8,-3,-12
14:49:17:203833,-7,-13,-1,-6,-15,-8,-3,-12
14:49:17:204622,-3,-6,7,-10,-8,-3,0,4
14:49:17:210594,-1,-1,-30,5,9,6,3,-13
14:49:17:218761,-1,-1,-30,5,9,6,3,-13
14:49:17:219612,1,9,-8,-4,3,0,0,2
14:49:17:233071,7,5,19,3,-6,-2,-3,-8
14:49:17:241327,7,5,19,3,-6,-2,-3,-8
14:49:17:242115,2,6,11,-3,-5,5,0,-4
14:49:17:248029,-1,5,-9,3,9,-3,-5,0
14:49:17:263834,-1,5,-9,3,9,-3,-5,0
14:49:17:264594,2,10,14,0,-4,-2,0,4
14:49:17:270615,-2,-4,-11,-8,-16,-6,-1,2
14:49:17:278181,-2,-4,-11,-8,-16,-6,-1,2
14:49:17:285588,-3,8,1,5,14,3,-5,13
14:49:17:293097,-8,-10,-22,-16,17,1,-3,-6
14:49:17:301329,-8,-10,-22,-16,17,1,-3,-6
14:49:17:302135,-2,5,15,1,-5,-4,3,-1
14:49:17:308076,1,6,42,8,-2,-2,2,0
14:49:17:323809,1,6,42,8,-2,-2,2,0
14:49:17:324608,-3,-11,20,5,-6,-4,0,8
14:49:17:330574,-5,-6,-7,8,-3,-3,4,5
14:49:17:338805,-5,-6,-7,8,-3,-3,4,5
14:49:17:339607,-3,14,19,2,-1,0,2,-5
14:49:17:353103,11,0,-12,-3,-8,-3,-6,3
14:49:17:361313,11,0,-12,-3,-8,-3,-6,3
14:49:17:362120,10,-9,-19,-4,-5,-4,-3,-7
14:49:17:368040,-3,0,16,3,21,8,2,6
14:49:17:383796,-3,0,16,3,21,8,2,6
14:49:17:384587,-1,-2,-2,0,-1,-5,-2,6
14:49:17:390635,-4,3,9,-5,-36,-6,-8,1
14:49:17:398802,-4,3,9,-5,-36,-6,-8,1
14:49:17:399621,-2,-8,-37,-3,3,0,3,6
14:49:17:413056,3,-1,-22,-6,-4,-3,0,-9
14:49:17:421301,3,-1,-22,-6,-4,-3,0,-9
14:49:17:422064,-9,-11,26,-1,0,0,-7,-20
14:49:17:428059,0,-3,-3,-3,-5,-3,-1,-6
14:49:17:443793,0,-3,-3,-3,-5,-3,-1,-6
14:49:17:444598,3,-3,4,-2,5,0,4,4
14:49:17:450598,-7,4,38,10,-8,1,-4,4
14:49:17:458143,-7,4,38,10,-8,1,-4,4
14:49:17:465599,0,-4,-36,-2,16,3,5,2
14:49:17:473083,7,-5,-19,-8,-7,-7,-1,1
14:49:17:481303,7,-5,-19,-8,-7,-7,-1,1
14:49:17:482100,0,-8,-11,6,-1,-5,-3,-3
14:49:17:495595,-7,6,-13,3,-15,-1,5,11
14:49:17:503831,-7,6,-13,3,-15,-1,5,11
14:49:17:504601,1,5,2,1,4,6,-5,-8
14:49:17:510598,-1,0,-2,-7,-12,-10,-5,13
14:49:17:518182,-1,0,-2,-7,-12,-10,-5,13
14:49:17:525612,-5,-3,-3,-5,-7,-2,-4,-17
14:49:17:533069,-1,-9,-6,-1,5,1,1,-14
14:49:17:541326,-1,-9,-6,-1,5,1,1,-14
14:49:17:542088,-3,-10,1,-7,-4,-3,1,11
14:49:17:555595,-1,-3,13,4,19,6,0,-5
14:49:17:563820,-1,-3,13,4,19,6,0,-5
14:49:17:564621,2,4,-16,-2,2,-4,-1,-6
14:49:17:570614,-3,-2,4,-1,-3,-6,0,28
14:49:17:578116,-3,-2,4,-1,-3,-6,0,28
14:49:17:585650,2,-5,-19,-3,5,0,1,1
14:49:17:593124,-10,5,-9,2,23,5,-2,-6
14:49:17:601311,-10,5,-9,2,23,5,-2,-6
14:49:17:602089,-10,10,21,-2,-21,-7,3,24
14:49:17:615629,-3,-5,-24,-1,-2,0,-7,-6
14:49:17:623805,-3,-5,-24,-1,-2,0,-7,-6
14:49:17:624615,1,0,6,2,1,1,-1,-7
14:49:17:630570,-1,12,17,-5,-6,-4,-6,-5
14:49:17:638171,-1,12,17,-5,-6,-4,-6,-5
14:49:17:645614,4,1,8,0,-5,3,-8,-2
14:49:17:653079,2,0,6,4,13,3,-4,-3
14:49:17:661279,2,0,6,4,13,3,-4,-3
14:49:17:662093,-4,1,-1,-16,-14,-7,-5,4
14:49:17:675652,-7,-11,3,-5,-22,-2,3,14
14:49:17:683766,-7,-11,3,-5,-22,-2,3,14
14:49:17:684598,4,1,-4,8,25,1,0,-1
14:49:17:690629,3,3,-4,-6,-17,-12,5,-11
14:49:17:698114,3,3,-4,-6,-17,-12,5,-11
14:49:17:705590,0,-1,-3,-9,-5,5,1,-8
14:49:17:713065,1,-2,-15,-2,-2,0,2,-4
14:49:17:721317,1,-2,-15,-2,-2,0,2,-4
14:49:17:722088,0,1,11,5,12,3,0,-9
14:49:17:735626,4,-12,-1,3,5,3,1,-14
14:49:17:743809,4,-12,-1,3,5,3,1,-14
14:49:17:744618,-5,-10,-9,-4,-18,-7,3,-6
14:49:17:750622,-8,-5,12,9,29,8,-1,-17
14:49:17:758106,-8,-5,12,9,29,8,-1,-17
14:49:17:765591,0,-2,4,1,-7,-3,-1,-9
14:49:17:773088,1,11,22,7,4,-2,0,0
14:49:17:781306,1,11,22,7,4,-2,0,0
14:49:17:782156,-5,9,8,9,7,4,0,-3
14:49:17:795613,2,1,-22,-4,-8,-1,-2,5
14:49:17:803802,2,1,-22,-4,-8,-1,-2,5
14:49:17:804599,2,-12,-8,-8,-14,-7,-5,-1
14:49:17:810633,1,-6,-2,-2,-9,1,1,-4
14:49:17:818203,1,-6,-2,-2,-9,1,1,-4
14:49:17:825600,1,3,-8,5,14,8,3,4
14:49:17:833041,-1,-4,-5,-9,-16,-7,-6,1
14:49:17:841246,-1,-4,-5,-9,-16,-7,-6,1
14:49:17:842065,-1,3,17,2,8,16,-3,3
14:49:17:855565,1,0,12,-7,-2,8,1,-5
14:49:17:863790,1,0,12,-7,-2,8,1,-5
14:49:17:864611,0,-5,15,-13,-21,-14,3,3
14:49:17:870578,0,4,9,-1,9,0,-2,1
14:49:17:878088,0,4,9,-1,9,0,-2,1
14:49:17:885622,-1,-5,-6,0,3,-1,3,3
14:49:17:893116,1,-3,-17,0,2,-7,-5,25
14:49:17:901325,1,-3,-17,0,2,-7,-5,25
14:49:17:902036,-1,-1,-30,-1,-5,-4,-7,-6
14:49:17:915606,-5,0,-15,-4,-9,0,0,-11
14:49:17:924238,-5,0,-15,-4,-9,0,0,-11
14:49:17:931166,-1,-12,-48,0,0,-3,-3,13
14:49:17:931979,-11,-11,-74,-13,-4,-9,-6,0
14:49:17:938124,-11,-11,-74,-13,-4,-9,-6,0
14:49:17:945609,-1,12,30,3,-8,-1,1,3
14:49:17:953058,4,3,23,8,14,0,5,4
14:49:17:961261,4,3,23,8,14,0,5,4
14:49:17:962105,-1,-1,12,4,5,-3,2,-1
14:49:17:975607,1,3,25,-3,-13,-1,0,1
14:49:17:983780,1,3,25,-3,-13,-1,0,1
14:49:17:984593,1,3,24,0,-6,1,7,-4
14:49:17:990626,-1,-6,-25,-3,19,6,4,2
14:49:17:998144,-1,-6,-25,-3,19,6,4,2
14:49:18:5593,-5,5,7,-3,-13,-8,-3,-19
14:49:18:13087,-3,26,1,4,9,-2,-1,-2
14:49:18:21326,-3,26,1,4,9,-2,-1,-2
14:49:18:22106,2,1,-6,-4,5,2,-2,-4
14:49:18:35591,2,14,25,3,-1,0,-1,-6
14:49:18:43805,2,14,25,3,-1,0,-1,-6
14:49:18:44641,1,0,-8,-1,-7,-4,-3,2
14:49:18:50632,-1,-12,-8,1,-7,0,-1,1
14:49:18:58145,-1,-12,-8,1,-7,0,-1,1
14:49:18:65652,-4,-7,-3,-3,0,-1,-2,2
14:49:18:73137,2,-10,11,1,-3,-6,-2,-5
14:49:18:81287,2,-10,11,1,-3,-6,-2,-5
14:49:18:82112,0,8,13,3,8,3,-4,25
14:49:18:95607,-6,-9,20,-2,-22,-4,1,7
14:49:18:103842,-6,-9,20,-2,-22,-4,1,7
14:49:18:104624,-5,-13,8,2,4,-2,-1,17
14:49:18:110618,-1,-3,14,-2,-10,-2,-4,-8
14:49:18:118182,-1,-3,14,-2,-10,-2,-4,-8
14:49:18:125639,0,5,17,-6,-8,-2,-2,-13
14:49:18:133080,0,-6,-24,-5,-1,2,0,-2
14:49:18:141319,0,-6,-24,-5,-1,2,0,-2
14:49:18:142099,0,-11,-23,-3,5,1,-1,-6
14:49:18:155594,-1,-1,-4,-1,4,0,-4,-4
14:49:18:163775,-1,-1,-4,-1,4,0,-4,-4
14:49:18:164579,1,2,-27,2,-13,-3,-1,6
14:49:18:170615,3,2,17,2,-4,-2,-5,12
14:49:18:178092,3,2,17,2,-4,-2,-5,12
14:49:18:185625,1,11,0,10,44,18,4,-3
14:49:18:193121,-7,-9,1,-4,3,0,-1,-7
14:49:18:201312,-7,-9,1,-4,3,0,-1,-7
14:49:18:202095,-4,-3,-2,0,-27,-11,-5,-6
14:49:18:215662,0,4,-9,-2,3,1,1,-4
14:49:18:223795,0,4,-9,-2,3,1,1,-4
14:49:18:224617,0,-4,-5,4,1,-3,1,-6
14:49:18:230575,-2,-4,7,3,1,-1,-1,-2
14:49:18:238152,-2,-4,7,3,1,-1,-1,-2
14:49:18:245610,0,-17,-14,-7,-5,-4,1,9
14:49:18:253064,-1,18,-16,2,12,-1,-7,13
14:49:18:261279,-1,18,-16,2,12,-1,-7,13
14:49:18:262094,-2,1,14,-8,-11,-5,-2,-5
14:49:18:275588,-1,-2,2,2,7,-2,6,-12
14:49:18:283769,-1,-2,2,2,7,-2,6,-12
14:49:18:284577,3,21,5,-5,18,3,-2,-3
14:49:18:290633,3,-1,40,4,-7,1,5,1
14:49:18:298145,3,-1,40,4,-7,1,5,1
14:49:18:305640,-2,-8,-10,1,-3,-4,1,-3
14:49:18:313108,0,-6,-20,-7,-7,-3,-2,-3
14:49:18:321338,0,-6,-20,-7,-7,-3,-2,-3
14:49:18:322114,-2,-6,7,-5,-2,0,-2,-1
14:49:18:335654,-2,-14,-14,-7,-11,-4,1,2
14:49:18:343822,-2,-14,-14,-7,-11,-4,1,2
14:49:18:344642,-3,-3,-12,3,-4,-4,-4,-15
14:49:18:350632,0,15,5,4,34,12,-6,-19
14:49:18:358144,0,15,5,4,34,12,-6,-19
14:49:18:365610,-1,4,-1,-10,-20,-14,-3,-4
14:49:18:373082,-3,-3,-4,3,4,1,0,-3
14:49:18:380632,-3,-3,-4,3,4,1,0,-3
14:49:18:388117,-2,-4,7,1,-11,-6,-3,-9
14:49:18:395595,-3,-11,-17,-2,-9,-4,-2,2
14:49:18:403780,-3,-11,-17,-2,-9,-4,-2,2
14:49:18:404618,-3,-36,-15,0,9,6,2,-4
14:49:18:418734,-2,-7,16,3,-5,0,2,2
14:49:18:419632,-2,-7,16,3,-5,0,2,2
14:49:18:425624,4,4,-5,-13,-36,-16,-5,0
14:49:18:433102,2,7,-6,14,42,36,5,-16
14:49:18:440618,2,7,-6,14,42,36,5,-16
14:49:18:448116,-1,2,-4,2,9,4,-1,-9
14:49:18:455586,-8,5,-5,-1,-3,-20,-4,11
14:49:18:463777,-8,5,-5,-1,-3,-20,-4,11
14:49:18:464584,-1,5,8,-4,3,0,0,0
14:49:18:478761,0,-8,-17,-7,-14,-3,-1,5
14:49:18:479607,0,-8,-17,-7,-14,-3,-1,5
14:49:18:485563,-1,10,39,1,4,-2,-1,6
14:49:18:493104,0,-9,-12,9,2,-3,-2,-2
14:49:18:500618,0,-9,-12,9,2,-3,-2,-2
14:49:18:508025,1,-5,5,6,17,5,2,2
14:49:18:515653,3,-3,-7,-17,-10,-5,0,-1
14:49:18:523798,3,-3,-7,-17,-10,-5,0,-1
14:49:18:524604,0,2,3,12,7,15,-1,-5
14:49:18:538832,-4,-3,2,-2,-3,0,0,-13
14:49:18:539617,-4,-3,2,-2,-3,0,0,-13
14:49:18:545614,1,2,-10,-12,-14,-15,-11,1
14:49:18:553057,1,4,10,-1,-14,-4,1,3
14:49:18:568758,1,4,10,-1,-14,-4,1,3
14:49:18:569592,-3,2,6,2,4,1,2,-1
14:49:18:575548,1,-4,-10,-7,-5,-2,2,1
14:49:18:583778,1,-4,-10,-7,-5,-2,2,1
14:49:18:584558,0,6,-6,-6,-6,-1,0,5
14:49:18:598753,-1,2,6,6,8,-3,-2,-4
14:49:18:599593,-1,2,6,6,8,-3,-2,-4
14:49:18:605572,-4,-1,-10,-2,2,2,3,10
14:49:18:613067,-1,-6,5,-4,-20,-9,1,-3
14:49:18:620610,-1,-6,5,-4,-20,-9,1,-3
14:49:18:628067,0,-1,-33,9,26,5,0,5
14:49:18:635611,-1,1,-4,-7,-14,-5,-5,1
14:49:18:643781,-1,1,-4,-7,-14,-5,-5,1
14:49:18:644596,-3,-2,15,-5,-8,-1,2,-5
14:49:18:658737,1,1,-4,-5,-4,-3,-2,-1
14:49:18:659681,1,1,-4,-5,-4,-3,-2,-1
14:49:18:665637,-2,-8,-6,0,-9,-10,-5,4
14:49:18:673058,-1,0,6,3,-1,2,-3,-3
14:49:18:680603,-1,0,6,3,-1,2,-3,-3
14:49:18:688138,-3,-2,15,-7,-9,-3,1,-5
14:49:18:695610,0,-3,-3,0,2,-2,-2,4
14:49:18:703822,0,-3,-3,0,2,-2,-2,4
14:49:18:704636,-3,-7,-17,2,2,3,5,-5
14:49:18:718806,-1,9,3,-12,-8,-3,-8,-9
14:49:18:719637,-1,9,3,-12,-8,-3,-8,-9
14:49:18:725633,-1,12,22,14,7,1,-1,-5
14:49:18:733066,1,8,-45,-1,13,5,6,-5
14:49:18:740659,1,8,-45,-1,13,5,6,-5
14:49:18:748069,3,-1,-11,-6,-10,-7,-6,-2
14:49:18:755579,-1,-5,3,1,9,0,-2,-5
14:49:18:763769,-1,-5,3,1,9,0,-2,-5
14:49:18:764592,1,2,0,-1,-4,3,0,0
14:49:18:778800,-2,-6,22,-3,-16,-5,-2,2
14:49:18:779605,-2,-6,22,-3,-16,-5,-2,2
14:49:18:785606,-2,-7,-14,5,6,1,3,-5
14:49:18:793091,-2,-1,2,-4,-2,-4,-4,0
14:49:18:800625,-2,-1,2,-4,-2,-4,-4,0
14:49:18:808075,-1,8,9,-7,-3,0,-1,3
14:49:18:815621,0,-5,5,6,4,-1,0,0
14:49:18:823764,0,-5,5,6,4,-1,0,0
14:49:18:824616,-3,-17,-10,-3,-9,-1,-4,-1
14:49:18:838768,-1,-5,-3,6,15,4,2,-2
14:49:18:839622,-1,-5,-3,6,15,4,2,-2
14:49:18:845590,5,1,6,-8,-4,-5,-4,-21
14:49:18:853117,1,-2,5,2,-7,3,1,-3
14:49:18:860648,1,-2,5,2,-7,3,1,-3
14:49:18:868093,-6,-1,-5,5,17,4,-3,-20
14:49:18:875530,-2,-7,0,-6,-15,-12,0,35
14:49:18:883792,-2,-7,0,-6,-15,-12,0,35
14:49:18:884632,-2,-4,2,-4,-4,-4,-5,3
14:49:18:898778,-1,9,3,-11,-4,-1,3,0
14:49:18:899622,-1,9,3,-11,-4,-1,3,0
14:49:18:905581,-8,-7,-8,-2,6,2,3,6
14:49:18:913086,-1,4,-6,-6,0,-1,-3,-2
14:49:18:920621,-1,4,-6,-6,0,-1,-3,-2
14:49:18:928058,-1,6,18,11,-3,-4,-7,-2
14:49:18:935643,0,-9,8,13,30,15,18,-6
14:49:18:943789,0,-9,8,13,30,15,18,-6
14:49:18:944598,1,-14,-2,-15,2,-4,1,10
14:49:18:958778,-3,-1,-17,-6,-13,-9,-14,-6
14:49:18:959622,-3,-1,-17,-6,-13,-9,-14,-6
14:49:18:965608,5,13,8,3,-7,1,7,17
14:49:18:973075,0,8,-20,2,1,-4,-9,-5
14:49:18:980618,0,8,-20,2,1,-4,-9,-5
14:49:18:988111,1,-4,-44,2,1,1,0,7
14:49:18:995594,-5,-12,-12,-15,-19,-9,0,-3
14:49:19:3819,-5,-12,-12,-15,-19,-9,0,-3
14:49:19:4593,3,8,7,-6,23,7,7,-2
14:49:19:18769,-3,-4,-10,9,22,8,-9,-3
14:49:19:19643,-3,-4,-10,9,22,8,-9,-3
14:49:19:25604,1,-10,8,-8,-17,-2,-2,-5
14:49:19:33066,-3,-23,-34,-6,-12,-12,-6,4
14:49:19:40666,-3,-23,-34,-6,-12,-12,-6,4
14:49:19:48055,-3,-10,-2,2,-6,-2,1,-1
14:49:19:55593,0,19,31,6,-6,0,1,4
14:49:19:63755,0,19,31,6,-6,0,1,4
14:49:19:64597,-2,-1,7,0,1,-2,3,20
14:49:19:78808,-4,-5,35,1,-3,0,-1,-5
14:49:19:79652,-4,-5,35,1,-3,0,-1,-5
14:49:19:85642,-3,-31,-31,2,-9,-8,-4,-6
14:49:19:93076,4,7,11,1,17,9,1,-3
14:49:19:100603,4,7,11,1,17,9,1,-3
14:49:19:108082,0,1,34,2,-10,2,-6,-3
14:49:19:115651,0,-11,-1,-7,-22,-4,1,-6
14:49:19:123777,0,-11,-1,-7,-22,-4,1,-6
14:49:19:124614,1,15,5,3,22,8,8,-11
14:49:19:138866,-2,3,-1,-4,-5,-5,-12,-15
14:49:19:139647,-2,3,-1,-4,-5,-5,-12,-15
14:49:19:145634,-2,9,-25,0,-3,-3,-7,-5
14:49:19:153098,1,0,-13,-3,-6,-5,6,5
14:49:19:160624,1,0,-13,-3,-6,-5,6,5
14:49:19:168007,2,10,-2,12,15,7,12,8
14:49:19:175540,-1,11,-12,1,-7,-3,-9,-12
14:49:19:183773,-1,11,-12,1,-7,-3,-9,-12
14:49:19:184562,2,6,-2,-1,8,0,-4,-5
14:49:19:198727,-2,0,16,1,14,4,-1,0
14:49:19:199584,-2,0,16,1,14,4,-1,0
14:49:19:205528,-16,-5,6,0,-15,-5,-5,2
14:49:19:213064,-2,10,-25,-12,-4,0,-9,0
14:49:19:220595,-2,10,-25,-12,-4,0,-9,0
14:49:19:228088,-2,-9,2,-3,-4,-1,-6,9
14:49:19:235658,1,7,15,-2,-4,-7,2,11
14:49:19:243832,1,7,15,-2,-4,-7,2,11
14:49:19:244616,1,-2,-3,-18,-17,-6,-6,-9
14:49:19:258780,-3,-1,7,7,21,13,10,29
14:49:19:259605,-3,-1,7,7,21,13,10,29
14:49:19:265656,0,1,-31,-14,-9,-1,-3,-5
14:49:19:273094,-3,-15,-23,-7,-20,-3,0,-15
14:49:19:280614,-3,-15,-23,-7,-20,-3,0,-15
14:49:19:288082,4,6,36,0,0,-4,0,-4
14:49:19:295626,3,-7,-10,5,1,-3,-2,-5
14:49:19:303836,3,-7,-10,5,1,-3,-2,-5
14:49:19:304604,1,-15,-3,3,2,-2,-10,-5
14:49:19:318786,1,-7,-4,2,4,2,3,-2
14:49:19:319609,1,-7,-4,2,4,2,3,-2
14:49:19:325606,1,5,9,-3,-4,-4,-1,0
14:49:19:341326,2,6,3,6,12,4,-4,10
14:49:19:342114,2,6,3,6,12,4,-4,10
14:49:19:348086,-3,-3,-14,-9,-7,-1,-7,-13
14:49:19:355624,-2,0,-11,7,1,-4,3,-20
14:49:19:371363,-2,0,-11,7,1,-4,3,-20
14:49:19:372118,-7,5,7,1,10,2,3,3
14:49:19:378764,-3,-1,-1,-7,-9,-4,-32,-14
14:49:19:379623,-3,-1,-1,-7,-9,-4,-32,-14
14:49:19:385644,2,-4,-19,6,-3,0,-2,-7
14:49:19:401322,4,-3,8,-2,-6,-4,15,4
14:49:19:402102,4,-3,8,-2,-6,-4,15,4
14:49:19:408050,-1,-3,-36,2,14,0,-11,0
14:49:19:415643,-1,-9,7,-3,2,2,3,6
14:49:19:423186,-1,-9,7,-3,2,2,3,6
14:49:19:430599,0,4,24,4,-14,-5,4,5
14:49:19:438862,-7,-10,-7,3,4,1,0,-9
14:49:19:439648,-7,-10,-7,3,4,1,0,-9
14:49:19:445671,0,3,9,-2,-5,-4,4,3
14:49:19:461340,-3,-4,23,-2,-8,2,-3,-1
14:49:19:462131,-3,-4,23,-2,-8,2,-3,-1
14:49:19:468073,1,3,-6,-3,33,6,25,-10
14:49:19:475624,-3,-1,-2,-5,-13,-7,-3,2
14:49:19:483160,-3,-1,-2,-5,-13,-7,-3,2
14:49:19:490681,0,1,7,-9,-18,1,0,2
14:49:19:498743,-2,-18,-16,-2,0,-3,6,-8
14:49:19:499617,-2,-18,-16,-2,0,-3,6,-8
14:49:19:505625,5,-11,-6,-2,-7,-5,-11,-1
14:49:19:521308,3,1,6,0,1,1,-7,7
14:49:19:522095,3,1,6,0,1,1,-7,7
14:49:19:528093,0,-4,-14,2,-1,-4,0,-3
14:49:19:535641,3,12,-3,3,3,1,10,21
14:49:19:543114,3,12,-3,3,3,1,10,21
14:49:19:550640,6,-1,-4,0,-8,-3,-2,-23
14:49:19:558773,-4,2,7,17,10,1,-9,6
14:49:19:559619,-4,2,7,17,10,1,-9,6
14:49:19:565534,-7,-2,14,9,7,1,2,9
14:49:19:581235,2,8,4,-11,6,3,18,-3
14:49:19:582042,2,8,4,-11,6,3,18,-3
14:49:19:588150,-3,-7,1,2,-3,-1,0,0
14:49:19:595639,-2,13,27,-3,-8,-3,0,-7
14:49:19:603123,-2,13,27,-3,-8,-3,0,-7
14:49:19:610566,-3,14,-1,-4,-3,0,7,-10
14:49:19:618757,-3,5,-2,-2,-3,-3,-9,-2
14:49:19:619617,-3,5,-2,-2,-3,-3,-9,-2
14:49:19:625631,-1,6,-7,-2,-1,1,0,7
14:49:19:641307,2,0,-12,-12,5,0,13,1
14:49:19:642118,2,0,-12,-12,5,0,13,1
14:49:19:648037,-6,-1,19,11,-7,-4,1,4
14:49:19:655507,-15,1,14,4,25,7,-9,-8
14:49:19:663173,-15,1,14,4,25,7,-9,-8
14:49:19:670656,-6,-9,-31,-9,-13,-7,-13,12
14:49:19:678785,5,2,11,-3,5,1,-11,-3
14:49:19:679620,5,2,11,-3,5,1,-11,-3
14:49:19:685643,-4,11,27,0,2,-1,1,6
14:49:19:701310,1,-11,-22,-5,-14,-8,0,-4
14:49:19:702085,1,-11,-22,-5,-14,-8,0,-4
14:49:19:708053,6,1,4,-4,8,7,0,1
14:49:19:715618,2,-7,-12,-2,2,-2,5,1
14:49:19:723185,2,-7,-12,-2,2,-2,5,1
14:49:19:730585,0,0,-1,1,-20,-8,-5,4
14:49:19:738828,9,-1,11,7,11,-1,11,-2
14:49:19:739615,9,-1,11,7,11,-1,11,-2
14:49:19:745600,3,-4,-26,-6,-3,-3,-9,-6
14:49:19:761335,7,4,-17,-7,-14,-2,-5,7
14:49:19:762133,7,4,-17,-7,-14,-2,-5,7
14:49:19:768070,-1,-6,-17,5,1,-2,-5,-1
14:49:19:775614,-2,4,-7,-1,-2,3,2,-5
14:49:19:783144,-2,4,-7,-1,-2,3,2,-5
14:49:19:790642,-3,-7,-41,-7,5,2,-8,6
14:49:19:798738,-6,-9,7,10,-17,-12,-8,-7
14:49:19:799605,-6,-9,7,10,-17,-12,-8,-7
14:49:19:805608,0,-1,13,3,30,12,-6,-9
14:49:19:821302,-2,-4,9,6,13,6,4,0
14:49:19:822088,-2,-4,9,6,13,6,4,0
14:49:19:828108,-2,-14,12,-7,-19,-6,10,21
14:49:19:835641,-10,-21,13,0,-11,-8,-12,-10
14:49:19:843145,-10,-21,13,0,-11,-8,-12,-10
14:49:19:850676,0,15,16,3,-1,-3,0,-5
14:49:19:858792,1,-5,-22,-10,-11,-3,-1,2
14:49:19:859623,1,-5,-22,-10,-11,-3,-1,2
14:49:19:865535,-4,-8,5,-6,1,4,3,-6
14:49:19:881227,1,8,7,-7,2,3,17,-5
14:49:19:882060,1,8,7,-7,2,3,17,-5
14:49:19:888168,-5,-2,6,-1,-1,-6,-18,-17
14:49:19:895624,-1,1,-5,-5,-2,-2,-14,-2
14:49:19:903135,-1,1,-5,-5,-2,-2,-14,-2
14:49:19:910533,-1,6,4,0,-7,-5,-7,-6
14:49:19:918511,-4,-5,-29,-1,-4,-3,-6,-3
14:49:19:926295,-4,-5,-29,-1,-4,-3,-6,-3
14:49:19:927070,-3,3,2,9,-14,-6,-1,-4
14:49:19:941311,-3,-5,-23,0,25,3,1,16
14:49:19:942073,-3,-5,-23,0,25,3,1,16
14:49:19:948054,10,-3,2,-2,3,-3,2,-3
14:49:19:955529,8,11,7,-6,-16,-9,-5,-1
14:49:19:963138,8,11,7,-6,-16,-9,-5,-1
14:49:19:970647,-2,-3,2,-4,-3,1,9,-1
14:49:19:978780,4,6,7,-4,-2,-4,-4,-5
14:49:19:979609,4,6,7,-4,-2,-4,-4,-5
14:49:19:985614,-5,-15,13,-2,-5,-2,3,-11
14:49:20:1299,-9,-3,24,3,2,1,-3,-6
14:49:20:2082,-9,-3,24,3,2,1,-3,-6
14:49:20:8057,0,-8,-8,-5,-5,-1,8,19
14:49:20:15648,1,-3,6,17,-1,2,-4,-21
14:49:20:23152,1,-3,6,17,-1,2,-4,-21
14:49:20:30624,2,10,5,9,20,3,0,2
14:49:20:38801,-3,1,-44,-16,-22,-5,-7,1
14:49:20:39696,-3,1,-44,-16,-22,-5,-7,1
14:49:20:45637,-1,1,1,-1,8,3,-21,-6
14:49:20:61363,-1,1,1,-1,8,3,-21,-6
14:49:20:62115,-3,14,6,-5,-11,-6,-12,-7
14:49:20:68102,-3,15,-1,-5,-3,1,4,0
14:49:20:83799,-3,15,-1,-5,-3,1,4,0
14:49:20:84637,6,-2,-5,-6,-4,0,3,14
14:49:20:90662,0,-1,8,14,1,4,-3,-1
14:49:20:98813,0,-1,8,14,1,4,-3,-1
14:49:20:99631,-2,-12,-9,-2,0,1,20,-1
14:49:20:105598,1,-8,-19,6,14,1,8,-3
14:49:20:121331,1,-8,-19,6,14,1,8,-3
14:49:20:122068,-3,-4,-17,-6,-5,-1,8,-3
14:49:20:128080,1,6,7,-11,-11,-6,-1,-3
14:49:20:143827,1,6,7,-11,-11,-6,-1,-3
14:49:20:144634,5,-5,27,9,11,5,-2,8
14:49:20:150623,1,-7,-42,-17,-13,0,8,-7
14:49:20:158797,1,-7,-42,-17,-13,0,8,-7
14:49:20:159618,0,-3,1,-4,10,-4,-6,5
14:49:20:165617,0,-4,13,0,6,0,-1,3
14:49:20:181290,0,-4,13,0,6,0,-1,3
14:49:20:182116,-4,-3,24,-7,-8,0,-1,-1
14:49:20:188123,1,22,6,-6,2,-1,0,3
14:49:20:203784,1,22,6,-6,2,-1,0,3
14:49:20:204604,-4,-5,-10,1,0,-3,-9,2
14:49:20:210528,3,-10,12,-1,-19,-3,34,14
14:49:20:218783,3,-10,12,-1,-19,-3,34,14
14:49:20:219571,-5,-8,5,8,0,1,1,5
14:49:20:225639,-10,4,34,3,5,-1,-4,4
14:49:20:241307,-10,4,34,3,5,-1,-4,4
14:49:20:242110,1,-3,-10,1,-14,-4,-17,-9
14:49:20:248026,-5,-6,-17,2,24,6,-5,-7
14:49:20:263773,-5,-6,-17,2,24,6,-5,-7
14:49:20:264596,-2,9,9,-9,19,11,10,3
14:49:20:270572,-1,12,-16,-3,-15,-8,-12,-8
14:49:20:278754,-1,12,-16,-3,-15,-8,-12,-8
14:49:20:279623,8,-8,1,4,-5,-5,13,0
14:49:20:293125,-3,-21,-11,-1,-11,-3,3,-5
14:49:20:301308,-3,-21,-11,-1,-11,-3,3,-5
14:49:20:302030,-8,2,1,3,10,0,-6,-1
14:49:20:308016,4,-3,6,-2,-7,-5,-13,25
14:49:20:323809,4,-3,6,-2,-7,-5,-13,25
14:49:20:324631,-4,-6,-19,7,-19,-3,2,-2
14:49:20:330567,4,-6,-24,-2,-1,2,-3,-8
14:49:20:338827,4,-6,-24,-2,-1,2,-3,-8
14:49:20:339637,-2,-10,-20,-1,-1,1,4,5
14:49:20:353135,-6,-20,18,1,-2,-2,-12,-7
14:49:20:361316,-6,-20,18,1,-2,-2,-12,-7
14:49:20:362085,31,9,25,7,-6,-2,-2,0
14:49:20:368050,-5,-4,18,-2,10,5,1,-5
14:49:20:383749,-5,-4,18,-2,10,5,1,-5
14:49:20:384596,-7,-6,-22,5,5,-4,-7,-7
14:49:20:390675,5,4,-10,-11,-9,-7,-3,8
14:49:20:398769,5,4,-10,-11,-9,-7,-3,8
14:49:20:399633,-6,5,13,-2,-1,6,9,-2
14:49:20:413087,9,6,-28,3,13,6,-2,-9
14:49:20:421268,9,6,-28,3,13,6,-2,-9
14:49:20:422056,-5,9,19,-7,-1,-1,7,0
14:49:20:428089,-18,7,-18,2,-7,-6,-1,24
14:49:20:443828,-18,7,-18,2,-7,-6,-1,24
14:49:20:444639,-5,1,0,-3,-4,-2,-1,-28
14:49:20:450613,6,1,26,12,1,4,-16,-9
14:49:20:458739,6,1,26,12,1,4,-16,-9
14:49:20:459627,-1,-15,6,-9,1,1,3,5
14:49:20:473065,2,-6,11,2,1,-3,6,-3
14:49:20:481274,2,-6,11,2,1,-3,6,-3
14:49:20:482086,-4,-5,-39,-20,-5,-8,-9,3
14:49:20:488097,5,6,10,-9,5,2,5,-10
14:49:20:503799,5,6,10,-9,5,2,5,-10
14:49:20:504601,-4,4,38,15,6,2,2,14
14:49:20:510607,-5,14,-22,-7,-10,-7,5,-33
14:49:20:518752,-5,14,-22,-7,-10,-7,5,-33
14:49:20:519604,-12,5,3,-4,-16,-10,-10,-8
14:49:20:533071,6,-3,22,11,5,10,18,9
14:49:20:541317,6,-3,22,11,5,10,18,9
14:49:20:542087,2,0,0,0,2,-1,-17,7
14:49:20:548060,1,-6,-54,-7,-6,-5,-11,-1
14:49:20:563803,1,-6,-54,-7,-6,-5,-11,-1
14:49:20:564604,-5,-4,-49,1,0,1,-1,5
14:49:20:570612,-4,-10,-4,-10,6,1,-2,-3
14:49:20:578809,-4,-10,-4,-10,6,1,-2,-3
14:49:20:579647,14,-7,14,-5,-3,-2,10,9
14:49:20:593058,-4,-3,-5,-16,-11,-6,-11,-25
14:49:20:601318,-4,-3,-5,-16,-11,-6,-11,-25
14:49:20:602067,14,-5,12,14,6,0,-8,0
14:49:20:608051,-8,-8,12,-7,0,-2,-2,35
14:49:20:623788,-8,-8,12,-7,0,-2,-2,35
14:49:20:624619,-3,7,26,10,12,0,-11,2
14:49:20:630516,1,9,11,16,-8,-1,-5,-12
14:49:20:638875,1,9,11,16,-8,-1,-5,-12
14:49:20:639590,-5,-5,-28,-4,4,0,6,21
14:49:20:653067,-8,3,2,-10,-3,-5,-13,8
14:49:20:661254,-8,3,2,-10,-3,-5,-13,8
14:49:20:662098,-4,6,13,0,-5,2,4,-10
14:49:20:668076,-3,-3,6,7,-15,-6,3,6
14:49:20:683776,-3,-3,6,7,-15,-6,3,6
14:49:20:684650,-16,2,5,-7,1,-1,-6,-23
14:49:20:690593,8,10,7,8,3,1,4,-7
14:49:20:698786,8,10,7,8,3,1,4,-7
14:49:20:699607,13,-12,9,-6,-6,-1,2,-22
14:49:20:721902,6,-5,24,0,-5,-4,5,-19
14:49:20:722698,6,-5,24,0,-5,-4,5,-19
14:49:20:723510,15,4,-12,2,17,8,2,10
14:49:20:728086,2,-10,2,3,6,0,5,19
14:49:20:743830,2,-10,2,3,6,0,5,19
14:49:20:744618,1,-15,-21,-7,-7,-5,-6,-6
14:49:20:750623,-16,-20,-28,-4,2,-4,-4,-7
14:49:20:758736,-16,-20,-28,-4,2,-4,-4,-7
14:49:20:759584,-16,0,-20,-16,-12,-2,8,-3
14:49:20:773094,-1,1,-1,6,4,1,4,-3
14:49:20:781241,-1,1,-1,6,4,1,4,-3
14:49:20:782038,-4,2,-33,-4,-5,1,-1,-2
14:49:20:788085,2,14,-11,1,-9,4,8,2
14:49:20:803823,2,14,-11,1,-9,4,8,2
14:49:20:804631,-15,10,32,5,3,1,2,2
14:49:20:810603,-4,11,-12,-9,-4,-5,-9,-5
14:49:20:818765,-4,11,-12,-9,-4,-5,-9,-5
14:49:20:819629,-5,-12,0,-10,-9,-5,-4,4
14:49:20:833048,1,3,2,-3,2,-1,-8,-19
14:49:20:841318,1,3,2,-3,2,-1,-8,-19
14:49:20:842050,-16,-8,0,-8,-11,-5,-12,2
14:49:20:848080,-8,3,18,9,5,8,8,-2
14:49:20:863831,-8,3,18,9,5,8,8,-2
14:49:20:864639,9,-6,-4,12,33,2,8,39
14:49:20:870654,1,-6,-26,-25,-9,-10,-10,5
14:49:20:878830,1,-6,-26,-25,-9,-10,-10,5
14:49:20:879663,7,-9,-5,-2,-12,-3,-7,-8
14:49:20:893055,6,-11,28,10,-3,0,7,0
14:49:20:901341,6,-11,28,10,-3,0,7,0
14:49:20:902102,3,24,26,4,-2,-4,0,-13
14:49:20:908077,-2,2,4,1,1,-2,-4,-6
14:49:20:923816,-2,2,4,1,1,-2,-4,-6
14:49:20:924639,1,6,3,-1,-6,-1,5,7
14:49:20:930543,-1,-5,-25,3,8,3,3,1
14:49:20:938861,-1,-5,-25,3,8,3,3,1
14:49:20:939599,0,1,-34,0,11,6,-1,-17
14:49:20:953031,1,-3,7,-1,7,-3,-9,33
14:49:20:961276,1,-3,7,-1,7,-3,-9,33
14:49:20:962105,-10,6,4,-6,-9,-6,-9,-4
14:49:20:968050,0,7,-7,-5,7,4,6,4
14:49:20:983774,0,7,-7,-5,7,4,6,4
14:49:20:984613,3,4,25,18,-4,-4,6,-5
14:49:20:990536,-4,-11,-3,10,-3,-1,-7,-12
14:49:20:998740,-4,-11,-3,10,-3,-1,-7,-12
14:49:20:999639,-2,1,-8,-12,-9,-4,-4,-10
14:49:21:13069,8,-6,-21,-6,-9,-7,-13,1
14:49:21:21250,8,-6,-21,-6,-9,-7,-13,1
14:49:21:22064,-13,-14,-8,2,17,4,2,-2
14:49:21:35660,14,1,13,-2,2,-2,2,-4
14:49:21:43812,14,1,13,-2,2,-2,2,-4
14:49:21:44644,6,-2,-21,2,2,1,15,-10
14:49:21:50591,-4,5,9,0,-7,-7,-1,-3
14:49:21:58758,-4,5,9,0,-7,-7,-1,-3
14:49:21:59658,1,-6,-11,4,-4,-7,-15,-11
14:49:21:73120,-3,2,20,10,42,14,15,16
14:49:21:81266,-3,2,20,10,42,14,15,16
14:49:21:82050,-3,10,17,-17,-19,-7,-2,10
14:49:21:88083,1,5,8,15,-18,2,7,7
14:49:21:103758,1,5,8,15,-18,2,7,7
14:49:21:104632,0,-9,-10,-7,-4,0,-5,17
14:49:21:110627,-3,-2,24,-9,-7,-7,0,-3
14:49:21:118756,-3,-2,24,-9,-7,-7,0,-3
14:49:21:119586,-16,-1,16,9,-2,-1,-1,0
14:49:21:133080,-5,-4,7,-3,-4,-5,-14,-17
14:49:21:141275,-5,-4,7,-3,-4,-5,-14,-17
14:49:21:142087,-2,1,4,-7,3,0,-2,-13
14:49:21:148103,-2,-1,8,3,-7,-1,1,-11
14:49:21:163778,-2,-1,8,3,-7,-1,1,-11
14:49:21:164598,0,-5,-3,6,32,10,-1,-10
14:49:21:170624,4,-8,-21,-3,7,2,-1,-5
14:49:21:178775,4,-8,-21,-3,7,2,-1,-5
14:49:21:179636,3,-11,-8,-5,-28,-8,3,25
14:49:21:193135,1,0,-27,-26,-8,-4,1,-8
14:49:21:201292,1,0,-27,-26,-8,-4,1,-8
14:49:21:202056,5,6,-25,3,4,1,-1,-12
14:49:21:208066,-9,10,-9,2,-5,-1,-1,-3
14:49:21:223833,-9,10,-9,2,-5,-1,-1,-3
14:49:21:224603,1,-4,2,-9,-14,-3,-2,-6
14:49:21:230576,-6,-15,-40,-5,25,3,7,-22
14:49:21:238089,-6,-15,-40,-5,25,3,7,-22
14:49:21:245644,6,1,11,-1,-8,-5,-8,7
14:49:21:253090,-2,1,31,-4,-16,-7,2,43
14:49:21:261286,-2,1,31,-4,-16,-7,2,43
14:49:21:262079,-4,-6,-18,-1,12,6,-7,-41
14:49:21:275603,2,1,3,2,-2,1,-4,-14
14:49:21:283748,2,1,3,2,-2,1,-4,-14
14:49:21:284589,2,4,24,7,-19,-2,12,12
14:49:21:290633,-5,-2,5,5,25,2,-4,12
14:49:21:298083,-5,-2,5,5,25,2,-4,12
14:49:21:305565,-3,-3,16,-12,-10,-10,-4,-29
14:49:21:313108,3,-2,1,4,-21,-2,-8,-9
14:49:21:321307,3,-2,1,4,-21,-2,-8,-9
14:49:21:322092,0,8,11,9,33,3,-5,-13
14:49:21:335663,-6,4,-1,-8,-10,-4,-3,4
14:49:21:343806,-6,4,-1,-8,-10,-4,-3,4
14:49:21:344640,2,1,11,4,-2,0,-13,5
14:49:21:350539,2,1,-13,7,-4,1,3,0
14:49:21:358114,2,1,-13,7,-4,1,3,0
14:49:21:365567,-8,-10,-3,-1,-8,-2,10,5
14:49:21:373062,-4,7,33,-4,-12,-6,-11,-28
14:49:21:381304,-4,7,33,-4,-12,-6,-11,-28
14:49:21:382054,1,2,-19,4,10,4,-1,13
14:49:21:396241,-1,-4,-12,-7,-1,-5,1,-1
14:49:21:397083,-1,-4,-12,-7,-1,-5,1,-1
14:49:21:403083,2,14,21,-5,0,2,-3,-5
14:49:21:410556,3,-5,-34,-5,-3,-3,-2,4
14:49:21:418144,3,-5,-34,-5,-3,-3,-2,4
14:49:21:425609,2,-2,2,1,-14,-5,-3,7
14:49:21:433039,2,-6,6,6,21,10,-9,21
14:49:21:441321,2,-6,6,6,21,10,-9,21
14:49:21:442073,-9,-21,-15,-2,28,6,8,9
14:49:21:456298,-7,5,20,1,-19,-8,0,-4
14:49:21:457098,-7,5,20,1,-19,-8,0,-4
14:49:21:463083,-5,-2,-4,-2,-15,-6,-5,21
14:49:21:470632,-2,-5,-1,4,12,10,4,1
14:49:21:478146,-2,-5,-1,4,12,10,4,1
14:49:21:485653,1,7,14,-6,-9,-3,0,-2
14:49:21:493097,3,3,1,4,-5,-4,3,-1
14:49:21:501269,3,3,1,4,-5,-4,3,-1
14:49:21:502046,0,3,-20,-4,-11,-1,10,25
14:49:21:516286,-3,-5,1,-1,-4,4,-3,-2
14:49:21:517051,-3,-5,1,-1,-4,4,-3,-2
14:49:21:523074,9,-3,-4,-2,-7,-6,3,19
14:49:21:530601,3,8,-9,-2,1,9,6,1
14:49:21:538083,3,8,-9,-2,1,9,6,1
14:49:21:545644,1,-5,-17,7,7,-1,0,-16
14:49:21:553086,2,-2,-22,4,-4,-6,-9,-8
14:49:21:561249,2,-2,-22,4,-4,-6,-9,-8
14:49:21:562098,-4,-3,7,-14,-2,-4,-8,-13
14:49:21:575642,-6,-4,-21,-7,-8,-8,-3,-6
14:49:21:583562,-6,-4,-21,-7,-8,-8,-3,-6
14:49:21:591287,-2,-4,-3,2,6,2,-6,-8
14:49:21:592073,-2,4,9,-3,-6,-3,6,-24
14:49:21:598114,-2,4,9,-3,-6,-3,6,-24
14:49:21:605552,-9,3,11,5,-6,-1,-1,-3
14:49:21:613097,-2,3,24,-5,31,9,0,-6
14:49:21:621294,-2,3,24,-5,31,9,0,-6
14:49:21:622052,0,-19,15,-5,-19,4,-7,-31
14:49:21:636258,-5,-7,17,-5,9,3,6,8
14:49:21:637053,-5,-7,17,-5,9,3,6,8
14:49:21:643061,-6,3,-3,-5,-2,-6,-6,7
14:49:21:650555,1,-1,-11,-4,-15,-6,-2,-5
14:49:21:658115,1,-1,-11,-4,-15,-6,-2,-5
14:49:21:665589,5,3,-12,10,3,-1,9,12
14:49:21:673063,-3,-7,5,-1,-1,-4,2,-4
14:49:21:681242,-3,-7,5,-1,-1,-4,2,-4
14:49:21:682085,-13,-1,-1,0,-6,-2,3,-16
14:49:21:696271,-1,-12,-10,5,12,0,-3,1
14:49:21:697108,-1,-12,-10,5,12,0,-3,1
14:49:21:703042,3,4,-11,-4,19,-2,-7,-19
14:49:21:710551,-3,5,2,-9,-19,-4,2,12
14:49:21:718125,-3,5,2,-9,-19,-4,2,12
14:49:21:725634,5,11,-22,16,33,11,2,-7
14:49:21:733036,-2,-2,-20,-8,-16,-10,-11,-10
14:49:21:741397,-2,-2,-20,-8,-16,-10,-11,-10
14:49:21:742127,3,0,16,2,-8,-5,0,6
14:49:21:756256,1,-6,-26,-4,-7,-2,-9,7
14:49:21:757079,1,-6,-26,-4,-7,-2,-9,7
14:49:21:763083,0,1,10,-2,-5,-3,-8,3
14:49:21:770644,0,4,3,9,-8,-7,4,10
14:49:21:778162,0,4,3,9,-8,-7,4,10
14:49:21:785645,0,-1,5,5,12,8,17,10
14:49:21:793091,8,15,11,1,6,-3,1,-9
14:49:21:801298,8,15,11,1,6,-3,1,-9
14:49:21:802057,-1,2,29,0,-11,-9,-4,-3
14:49:21:816252,0,-13,12,-4,-3,4,-2,-1
14:49:21:817057,0,-13,12,-4,-3,4,-2,-1
14:49:21:823125,-1,0,-33,-14,-14,-3,-3,11
14:49:21:830622,2,16,-2,0,3,0,-1,-6
14:49:21:838145,2,16,-2,0,3,0,-1,-6
14:49:21:845660,-1,-3,-6,0,-1,2,2,-13
14:49:21:853112,-5,-1,-3,-10,-9,-3,0,16
14:49:21:868831,-5,-1,-3,-10,-9,-3,0,16
14:49:21:869651,-2,-7,-6,9,10,2,4,0
14:49:21:875633,1,2,-8,-2,4,2,0,-33
14:49:21:883747,1,2,-8,-2,4,2,0,-33
14:49:21:884659,-3,-2,-4,-8,-31,-9,-7,-5
14:49:21:890682,3,-1,-16,15,8,8,4,-2
14:49:21:898094,3,-1,-16,15,8,8,4,-2
14:49:21:905529,1,0,11,-2,1,0,-4,-5
14:49:21:913051,0,-17,21,-4,-7,-1,-7,14
14:49:21:921279,0,-17,21,-4,-7,-1,-7,14
14:49:21:922076,-4,-3,-27,-6,-7,-6,-6,6
14:49:21:936286,-4,-4,-22,-5,-2,-3,4,0
14:49:21:937078,-4,-4,-22,-5,-2,-3,4,0
14:49:21:943084,3,-5,-10,-4,12,3,1,1
14:49:21:950581,-4,3,7,-7,-20,-7,-7,-10
14:49:21:958101,-4,3,7,-7,-20,-7,-7,-10
14:49:21:965596,0,2,3,7,31,0,5,3
14:49:21:973074,-5,-7,3,-3,-14,-6,-11,0
14:49:21:981271,-5,-7,3,-3,-14,-6,-11,0
14:49:21:982067,4,0,2,6,30,17,14,-9
14:49:21:996285,-1,-2,5,-4,-8,-4,4,2
14:49:21:997064,-1,-2,5,-4,-8,-4,4,2
14:49:22:3078,2,2,7,-9,-22,-8,-5,22
14:49:22:10562,-3,0,-8,1,4,-2,-6,0
14:49:22:18139,-3,0,-8,1,4,-2,-6,0
14:49:22:25579,3,8,-3,0,-1,-2,-3,5
14:49:22:33034,8,2,6,0,8,2,2,-1
14:49:22:41323,8,2,6,0,8,2,2,-1
14:49:22:42098,-5,-6,10,-4,-17,-5,-10,-12
14:49:22:56293,-3,1,12,13,29,9,10,5
14:49:22:57104,-3,1,12,13,29,9,10,5
14:49:22:63109,-4,-11,-7,-4,-18,-8,-14,-2
14:49:22:70581,3,2,4,-1,14,7,13,11
14:49:22:78160,3,2,4,-1,14,7,13,11
14:49:22:85674,-5,-5,-1,-5,-20,-4,6,-3
14:49:22:93101,-6,-7,-9,3,-7,-5,-11,-6
14:49:22:108812,-6,-7,-9,3,-7,-5,-11,-6
14:49:22:109628,7,-5,5,-3,-2,-4,3,21
14:49:22:116235,-1,-1,4,1,8,4,-4,18
14:49:22:117091,-1,-1,4,1,8,4,-4,18
14:49:22:123112,7,4,15,0,-6,-1,2,-6
14:49:22:130603,-3,-2,-30,-7,4,-1,0,-1
14:49:22:138145,-3,-2,-30,-7,4,-1,0,-1
14:49:22:145636,-3,-6,-61,-6,6,-1,-4,1
14:49:22:153088,-4,-5,-9,-3,-11,-9,-11,-8
14:49:22:160616,-4,-5,-9,-3,-11,-9,-11,-8
14:49:22:168062,-6,3,27,0,-2,5,13,-10
14:49:22:175554,2,0,-1,2,9,3,2,-5
14:49:22:183772,2,0,-1,2,9,3,2,-5
14:49:22:184598,-1,4,15,5,-14,-12,-7,23
14:49:22:198724,1,0,-3,1,3,-3,-3,4
14:49:22:199663,1,0,-3,1,3,-3,-3,4
14:49:22:205537,-1,-6,-21,-9,5,2,-4,-23
14:49:22:213103,-3,-5,-1,-3,-1,-1,3,-7
14:49:22:220636,-3,-5,-1,-3,-1,-1,3,-7
14:49:22:228061,4,9,15,-4,6,6,-2,1
14:49:22:236323,-4,4,13,-2,-9,0,3,-9
14:49:22:237081,-4,4,13,-2,-9,0,3,-9
14:49:22:243077,-1,0,4,4,5,4,-5,-4
14:49:22:258728,-1,-6,7,-2,-8,-1,6,4
14:49:22:259635,-1,-6,7,-2,-8,-1,6,4
14:49:22:265557,-5,-2,7,1,-7,-6,-1,-5
14:49:22:273032,-3,-5,-13,3,19,3,1,-8
14:49:22:280629,-3,-5,-13,3,19,3,1,-8
14:49:22:288074,-6,-9,0,-2,-10,2,1,-7
14:49:22:296250,11,3,-1,-5,3,2,1,11
14:49:22:297068,11,3,-1,-5,3,2,1,11
14:49:22:303073,-3,-4,-10,-10,-10,-6,-5,-1
14:49:22:318816,2,-2,-12,7,-11,-5,-3,-7
14:49:22:319632,2,-2,-12,7,-11,-5,-3,-7
14:49:22:325586,0,2,9,1,-2,-2,2,1
14:49:22:333093,-3,1,-1,-8,-5,-1,-5,-2
14:49:22:340696,-3,1,-1,-8,-5,-1,-5,-2
14:49:22:348107,-1,-5,-10,1,7,-1,1,-6
14:49:22:356215,-8,0,3,4,-17,-7,-5,1
14:49:22:357041,-8,0,3,4,-17,-7,-5,1
14:49:22:363068,-3,-2,8,1,14,-3,-6,-8
14:49:22:378783,2,2,12,-1,22,8,11,-7
14:49:22:379666,2,2,12,-1,22,8,11,-7
14:49:22:385641,1,-7,-1,-6,9,1,-5,17
14:49:22:393058,5,5,2,3,-16,-1,-8,-14
14:49:22:400660,5,5,2,3,-16,-1,-8,-14
14:49:22:408016,0,1,10,3,-6,-1,1,-5
14:49:22:416257,-2,2,5,-4,0,-6,-4,4
14:49:22:417090,-2,2,5,-4,0,-6,-4,4
14:49:22:423047,-3,3,-27,-13,-2,2,2,2
14:49:22:438782,2,1,-2,5,-1,-6,-1,-1
14:49:22:439633,2,1,-2,5,-1,-6,-1,-1
14:49:22:445532,-1,2,3,0,-2,0,-1,1
14:49:22:453028,-2,1,-4,-1,28,10,-6,-1
14:49:22:460652,-2,1,-4,-1,28,10,-6,-1
14:49:22:468070,1,0,11,6,-6,5,10,15
14:49:22:475533,-2,3,-6,-3,-15,-2,-6,13
14:49:22:483791,-2,3,-6,-3,-15,-2,-6,13
14:49:22:484645,4,13,-12,7,2,1,-13,-11
14:49:22:498781,-4,-4,-10,-3,-11,-4,-2,17
14:49:22:499616,-4,-4,-10,-3,-11,-4,-2,17
14:49:22:505562,-6,-6,4,0,-4,-5,1,-4
14:49:22:513050,-7,-14,-8,-7,-6,-1,-2,-4
14:49:22:520674,-7,-14,-8,-7,-6,-1,-2,-4
14:49:22:528095,1,4,15,12,-5,-4,0,-4
14:49:22:536315,8,-2,5,-4,13,5,12,-3
14:49:22:537063,8,-2,5,-4,13,5,12,-3
14:49:22:543047,-5,-3,6,2,-9,-5,-8,-6
14:49:22:558783,1,-2,13,9,2,1,2,-7
14:49:22:559653,1,-2,13,9,2,1,2,-7
14:49:22:565544,-1,-6,-15,-4,12,8,8,4
14:49:22:573072,-7,2,3,-14,-18,-17,-18,1
14:49:22:580611,-7,2,3,-14,-18,-17,-18,1
14:49:22:588112,-2,-8,0,-5,-8,1,4,1
14:49:22:596225,-2,0,11,-3,-6,-4,-5,-7
14:49:22:597034,-2,0,11,-3,-6,-4,-5,-7
14:49:22:603096,2,-7,-11,-5,-5,-4,-1,-1
14:49:22:618813,-7,-14,-17,1,3,-1,1,-4
14:49:22:619648,-7,-14,-17,1,3,-1,1,-4
14:49:22:625636,3,-6,-3,1,0,-3,-1,6
14:49:22:633051,-2,0,2,-1,-5,-3,4,10
14:49:22:640694,-2,0,2,-1,-5,-3,4,10
14:49:22:648095,-6,-4,-16,6,2,-1,2,-17
14:49:22:664473,3,13,9,9,10,8,0,-14
14:49:22:665301,3,13,9,9,10,8,0,-14
14:49:22:666083,1,2,5,-14,-17,-8,-3,0
14:49:22:678812,-1,-4,-13,-6,-2,-4,2,-1
14:49:22:679665,-1,-4,-13,-6,-2,-4,2,-1
14:49:22:685564,2,3,4,-8,-2,-2,-2,0
14:49:22:693067,2,-6,-30,-1,3,1,0,-1
14:49:22:700650,2,-6,-30,-1,3,1,0,-1
14:49:22:708106,-8,-1,-4,5,4,5,0,-8
14:49:22:716266,-7,3,15,-4,-18,-11,-5,-9
14:49:22:717061,-7,3,15,-4,-18,-11,-5,-9
14:49:22:723081,2,4,7,0,26,6,-5,-12
14:49:22:738520,-1,-6,-3,-8,-6,-4,-9,-7
14:49:22:746321,-1,-6,-3,-8,-6,-4,-9,-7
14:49:22:747121,-6,-6,-9,7,21,11,11,2
14:49:22:753087,3,2,-15,-4,-8,0,7,6
14:49:22:760625,3,2,-15,-4,-8,0,7,6
14:49:22:768085,3,-1,8,-7,-17,-11,-9,-2
14:49:22:775632,-7,8,11,3,9,4,3,2
14:49:22:783759,-7,8,11,3,9,4,3,2
14:49:22:784603,9,-1,-8,-3,-1,-3,-6,9
14:49:22:798728,3,5,1,-3,-13,-9,-7,-6
14:49:22:799647,3,5,1,-3,-13,-9,-7,-6
14:49:22:805608,3,1,4,-1,13,5,3,2
14:49:22:813078,-2,-6,-8,-2,-5,-1,0,5
14:49:22:820654,-2,-6,-8,-2,-5,-1,0,5
14:49:22:828029,-6,4,-4,7,3,1,5,18
14:49:22:836314,0,-5,-7,2,10,8,-5,-1
14:49:22:837064,0,-5,-7,2,10,8,-5,-1
14:49:22:843077,0,1,11,-3,-10,-8,-4,-4
14:49:22:858740,-1,0,3,-3,-5,-3,1,-3
14:49:22:859638,-1,0,3,-3,-5,-3,1,-3
14:49:22:865559,-4,-3,-7,3,2,1,1,-15
14:49:22:873063,2,-6,-26,-6,-2,-4,-10,-16
14:49:22:880621,2,-6,-26,-6,-2,-4,-10,-16
14:49:22:888118,-8,-2,-5,-2,-14,-8,-2,-13
14:49:22:896288,1,-5,23,6,25,13,8,6
14:49:22:897077,1,-5,23,6,25,13,8,6
14:49:22:903054,3,-7,1,-2,3,0,0,4
14:49:22:918793,-2,-4,-4,-2,-16,-4,0,-2
14:49:22:919640,-2,-4,-4,-2,-16,-4,0,-2
14:49:22:925549,1,9,19,-2,-2,-5,-5,-10
14:49:22:933052,-1,3,-12,-5,-1,-7,-4,6
14:49:22:940669,-1,3,-12,-5,-1,-7,-4,6
14:49:22:948148,2,-6,-23,1,4,4,4,6
14:49:22:956270,-2,-1,16,-4,-2,-1,2,-3
14:49:22:957091,-2,-1,16,-4,-2,-1,2,-3
14:49:22:963064,-1,-2,-21,-5,-10,-9,-6,2
14:49:22:978791,2,-4,12,5,-12,7,4,2
14:49:22:979648,2,-4,12,5,-12,7,4,2
14:49:22:985568,-3,0,0,2,3,2,-8,-9
14:49:22:993046,-4,-2,-3,-4,7,1,0,0
14:49:23:635,-4,-2,-3,-4,7,1,0,0
14:49:23:8069,-2,-5,-5,-5,-11,-9,-1,-2
14:49:23:16253,0,2,2,2,1,-4,-11,0
14:49:23:17033,0,2,2,2,1,-4,-11,0
14:49:23:23101,-4,-11,4,-1,2,2,-3,2
14:49:23:38786,-1,2,4,-1,2,0,1,-4
14:49:23:39562,-1,2,4,-1,2,0,1,-4
14:49:23:45661,1,2,-5,-3,-7,0,-1,12
14:49:23:53065,-3,2,-25,-4,4,-5,-4,1
14:49:23:60654,-3,2,-25,-4,4,-5,-4,1
14:49:23:68130,-2,4,16,-1,-6,0,1,-6
14:49:23:75652,3,1,-1,-4,1,2,6,-2
14:49:23:83779,3,1,-1,-4,1,2,6,-2
14:49:23:84595,-2,-3,-11,3,23,6,0,-9
14:49:23:98748,-2,-5,9,-7,-13,-6,1,-13
14:49:23:99654,-2,-5,9,-7,-13,-6,1,-13
14:49:23:105623,2,-4,1,3,-7,-2,2,17
14:49:23:121271,2,1,0,10,0,-3,-4,-1
14:49:23:122090,2,1,0,10,0,-3,-4,-1
14:49:23:136928,0,6,2,0,4,3,3,3
14:49:23:137782,-3,-4,29,-4,-2,0,0,2
14:49:23:138647,-3,-4,29,-4,-2,0,0,2
14:49:23:150569,1,-1,9,4,-2,-3,-2,10
14:49:23:158757,-4,-4,-7,-3,-8,-6,-3,-5
14:49:23:159643,-4,-4,-7,-3,-8,-6,-3,-5
14:49:23:165591,-2,4,17,-1,7,5,1,-22
14:49:23:181232,4,4,-9,-2,3,-4,-5,8
14:49:23:182059,4,4,-9,-2,3,-4,-5,8
14:49:23:188058,-2,-7,2,0,-1,2,6,2
14:49:23:196288,-8,9,-2,8,26,8,-3,-10
14:49:23:197088,-8,9,-2,8,26,8,-3,-10
14:49:23:219411,-3,-4,-16,-9,-21,-11,-7,3
14:49:23:220194,3,4,11,1,-2,-1,4,11
14:49:23:221021,3,4,11,1,-2,-1,4,11
14:49:23:225629,-2,3,-6,-2,0,0,3,1
14:49:23:241215,0,4,14,-2,-9,-2,0,0
14:49:23:242066,0,4,14,-2,-9,-2,0,0
14:49:23:256917,-1,-16,1,-8,-7,-4,-3,3
14:49:23:257695,4,6,2,-4,-1,-1,1,-9
14:49:23:258602,4,6,2,-4,-1,-1,1,-9
14:49:23:270557,-2,8,3,2,12,0,-7,-14
14:49:23:278748,-1,-9,-38,7,7,5,4,12
14:49:23:279676,-1,-9,-38,7,7,5,4,12
14:49:23:285568,-1,-3,-22,-3,-7,-5,-4,-1
14:49:23:301292,-3,-11,-38,-8,-5,-1,-2,-4
14:49:23:302088,-3,-11,-38,-8,-5,-1,-2,-4
14:49:23:308047,-1,1,9,2,-3,0,1,3
14:49:23:316295,-4,-13,-22,1,-5,-2,-1,-11
14:49:23:317093,-4,-13,-22,1,-5,-2,-1,-11
14:49:23:330543,-3,6,2,1,4,4,1,-4
14:49:23:338815,-3,-3,16,-8,-28,-17,-15,-30
14:49:23:339645,-3,-3,16,-8,-28,-17,-15,-30
14:49:23:345574,6,3,-5,20,42,43,6,7
14:49:23:361277,0,14,6,-6,-11,0,8,14
14:49:23:362138,0,14,6,-6,-11,0,8,14
14:49:23:368081,-4,4,14,-4,-38,-19,-9,-7
14:49:23:375543,1,-6,13,0,4,-1,-1,7
14:49:23:383108,1,-6,13,0,4,-1,-1,7
14:49:23:390602,-3,-3,-9,-9,0,-10,-2,-2
14:49:23:398816,-3,-3,-9,-9,0,-10,-2,-2
14:49:23:399650,0,-1,9,2,4,-1,-1,-3
14:49:23:413080,1,-3,-4,-5,2,-3,6,5
14:49:23:421318,1,-3,-4,-5,2,-3,6,5
14:49:23:422071,-3,0,7,9,1,6,2,5
14:49:23:428075,5,-5,-16,3,-2,-2,-4,-5
14:49:23:435651,5,-5,-16,3,-2,-2,-4,-5
14:49:23:443097,-3,-3,22,-4,-7,-3,-6,-4
14:49:23:450602,-2,-2,5,2,-13,-30,-2,2
14:49:23:458760,-2,-2,5,2,-13,-30,-2,2
14:49:23:459570,-6,2,21,7,47,16,0,1
14:49:23:465595,-1,-6,-22,-14,-22,-11,-2,-4
14:49:23:481267,-1,-6,-22,-14,-22,-11,-2,-4
14:49:23:482075,1,-8,-5,-8,-10,-4,2,3
14:49:23:488137,-2,7,-9,-4,0,-1,-5,-5
14:49:23:496238,-2,7,-9,-4,0,-1,-5,-5
14:49:23:497080,1,-2,-7,1,-2,3,-1,3
14:49:23:510564,-2,-2,6,0,3,6,-2,-6
14:49:23:518801,-2,-2,6,0,3,6,-2,-6
14:49:23:519632,0,1,-3,10,0,-4,1,16
14:49:23:532998,-3,-1,0,-15,-7,0,-4,-4
14:49:23:541313,-3,-1,0,-15,-7,0,-4,-4
14:49:23:542103,-4,2,-11,3,-7,-8,-6,-12
14:49:23:548070,3,11,14,6,37,18,16,12
14:49:23:556278,3,11,14,6,37,18,16,12
14:49:23:557069,-5,-9,-9,-11,-6,-4,-2,14
14:49:23:570572,-3,-15,6,-4,-12,-7,-8,-5
14:49:23:578788,-3,-15,6,-4,-12,-7,-8,-5
14:49:23:579662,3,9,-22,0,5,3,4,-6
14:49:23:585586,0,-3,4,1,-6,-2,-2,6
14:49:23:601316,0,-3,4,1,-6,-2,-2,6
14:49:23:602077,1,4,-9,-2,-6,-3,-6,-5
14:49:23:608037,-5,-2,-26,-1,1,-1,-4,-14
14:49:23:616326,-5,-2,-26,-1,1,-1,-4,-14
14:49:23:617065,2,-2,1,-16,-12,-3,0,-20
14:49:23:630507,5,1,13,1,-9,-4,-4,16
14:49:23:638789,5,1,13,1,-9,-4,-4,16
14:49:23:639645,2,-7,15,-3,13,3,1,-2
14:49:23:653116,0,-2,7,-7,-4,-8,-2,-7
14:49:23:661337,0,-2,7,-7,-4,-8,-2,-7
14:49:23:662074,1,4,23,5,7,7,4,3
14:49:23:668080,-7,-1,-9,-1,-6,0,1,-1
14:49:23:675706,-7,-1,-9,-1,-6,0,1,-1
14:49:23:691310,-8,0,9,0,-5,-8,-2,2
14:49:23:692090,-1,-16,-2,0,1,3,-1,1
14:49:23:698786,-1,-16,-2,0,1,3,-1,1
14:49:23:699660,2,-6,-35,-8,-7,1,-6,0
14:49:23:705519,0,8,22,6,4,2,3,-5
14:49:23:721287,0,8,22,6,4,2,3,-5
14:49:23:722049,-3,-6,-10,8,0,-10,-13,-15
14:49:23:728094,0,-4,-35,0,-11,-4,0,18
14:49:23:736270,0,-4,-35,0,-11,-4,0,18
14:49:23:737038,2,-14,-10,-3,1,7,3,8
14:49:23:750574,-4,4,23,1,-2,-1,-2,0
14:49:23:758736,-4,4,23,1,-2,-1,-2,0
14:49:23:759663,-1,5,0,0,0,-2,2,5
14:49:23:765550,-1,-10,7,0,0,0,-5,-8
14:49:23:781251,-1,-10,7,0,0,0,-5,-8
14:49:23:782041,2,12,28,1,1,0,-4,-1
14:49:23:788114,-2,7,5,-3,3,-3,-6,-10
14:49:23:796274,-2,7,5,-3,3,-3,-6,-10
14:49:23:797069,4,-2,10,-1,-5,1,15,27
14:49:23:810581,0,3,-33,1,11,0,-5,-7
14:49:23:818745,0,3,-33,1,11,0,-5,-7
14:49:23:819653,-6,-4,12,-2,-24,-5,0,9
14:49:23:825677,-1,12,11,6,12,6,-4,7
14:49:23:841351,-1,12,11,6,12,6,-4,7
14:49:23:842157,1,-4,-21,-5,-9,-4,-3,-3
14:49:23:848086,2,-1,3,1,0,1,0,-8
14:49:23:856234,2,-1,3,1,0,1,0,-8
14:49:23:857059,-3,1,-13,-2,5,-1,2,-6
14:49:23:870637,-3,-1,7,1,-2,-2,1,-3
14:49:23:878780,-3,-1,7,1,-2,-2,1,-3
14:49:23:879585,-3,-7,1,6,3,0,15,-2
14:49:23:885594,0,-5,8,1,9,6,5,-2
14:49:23:901330,0,-5,8,1,9,6,5,-2
14:49:23:902154,4,5,-2,-5,-7,-1,-7,-6
14:49:23:908062,-5,-20,-9,-5,-10,-5,-2,-4
14:49:23:916256,-5,-20,-9,-5,-10,-5,-2,-4
14:49:23:917058,-10,3,-2,-1,2,-2,0,-3
14:49:23:930539,0,2,2,-2,-3,-2,-1,-2
14:49:23:938851,0,2,2,-2,-3,-2,-1,-2
14:49:23:939636,2,-10,-4,-4,-1,0,-4,-3
14:49:23:945577,-3,7,3,-3,-7,-3,-3,-2
14:49:23:969442,-3,7,3,-3,-7,-3,-3,-2
14:49:23:970210,-4,1,0,-1,4,6,29,-2
14:49:23:971006,0,1,-21,-8,9,-5,3,4
14:49:23:983736,0,1,-21,-8,9,-5,3,4
14:49:23:984618,2,-2,13,13,14,-4,-25,-7
14:49:23:990672,3,-2,-23,4,-10,-2,1,2
14:49:23:998795,3,-2,-23,4,-10,-2,1,2
14:49:23:999614,-1,-3,-11,-8,-5,3,-5,-2
14:49:24:5503,-1,4,19,2,2,-4,-6,-3
14:49:24:21086,-1,4,19,2,2,-4,-6,-3
14:49:24:28704,-1,1,-2,0,-2,0,0,1
14:49:24:29495,-8,-1,-1,-4,-2,-1,0,-1
14:49:24:36302,-8,-1,-1,-4,-2,-1,0,-1
14:49:24:37042,5,-3,23,0,-4,-6,-19,-1
14:49:24:50640,-3,-4,-11,-8,-4,0,-1,0
14:49:24:58789,-3,-4,-11,-8,-4,0,-1,0
14:49:24:59650,4,5,-28,-2,-4,-3,-2,0
14:49:24:73090,-5,-1,10,5,3,3,1,-5
14:49:24:81253,-5,-1,10,5,3,3,1,-5
14:49:24:82065,-19,-6,20,3,-2,-7,-18,-7
14:49:24:88137,3,-2,0,-1,-9,0,3,-1
14:49:24:103840,3,-2,0,-1,-9,0,3,-1
14:49:24:104678,-2,-6,-16,2,7,-5,-7,-3
14:49:24:110583,1,-7,6,-2,-8,0,-9,2
14:49:24:118800,1,-7,6,-2,-8,0,-9,2
14:49:24:119575,-3,-3,-6,-5,-9,7,6,5
14:49:24:133044,2,4,2,4,1,-2,1,-5
14:49:24:141269,2,4,2,4,1,-2,1,-5
14:49:24:142063,5,3,5,1,0,-1,5,-2
14:49:24:148092,-3,4,6,-2,-2,-2,0,8
14:49:24:155654,-3,4,6,-2,-2,-2,0,8
14:49:24:163171,-5,-6,-16,-4,0,-2,-6,-2
14:49:24:170684,-7,-4,-14,0,3,2,0,-3
14:49:24:178792,-7,-4,-14,0,3,2,0,-3
14:49:24:179679,4,1,2,1,-5,0,5,-1
14:49:24:193086,-2,-4,17,2,2,-2,-6,-1
14:49:24:201286,-2,-4,17,2,2,-2,-6,-1
14:49:24:202096,7,9,27,2,-1,0,6,-1
14:49:24:208101,1,-7,-26,0,0,2,1,-2
14:49:24:215704,1,-7,-26,0,0,2,1,-2
14:49:24:223066,-1,4,26,1,2,2,0,0
14:49:24:230514,-3,5,7,-2,-3,0,0,-2
14:49:24:238811,-3,5,7,-2,-3,0,0,-2
14:49:24:239690,-4,-9,-19,-3,1,-4,-3,-2
14:49:24:253112,5,4,-1,0,2,-5,-4,0
14:49:24:261313,5,4,-1,0,2,-5,-4,0
14:49:24:262113,6,5,-5,-2,3,2,6,9
14:49:24:268065,4,-4,-8,-6,-5,0,8,4
14:49:24:275663,4,-4,-8,-6,-5,0,8,4
14:49:24:283046,-5,1,2,2,4,0,3,-3
14:49:24:290568,1,-2,14,2,1,-1,-1,-3
14:49:24:298866,1,-2,14,2,1,-1,-1,-3
14:49:24:299663,-1,-6,-14,-3,-5,-2,-3,-4
14:49:24:313070,-3,2,-3,-11,-11,-4,-1,-3
14:49:24:321316,-3,2,-3,-11,-11,-4,-1,-3
14:49:24:322110,0,4,8,6,2,-3,-1,0
14:49:24:328063,7,-12,-7,4,22,4,-1,-1
14:49:24:335689,7,-12,-7,4,22,4,-1,-1
14:49:24:343075,-14,-9,-18,-13,-13,-5,1,-11
14:49:24:350588,-3,13,22,8,-6,0,-16,-7
14:49:24:358853,-3,13,22,8,-6,0,-16,-7
14:49:24:359667,3,5,0,0,2,8,-6,7
14:49:24:373071,-3,-6,5,-3,-4,1,-6,-3
14:49:24:381291,-3,-6,5,-3,-4,1,-6,-3
14:49:24:382083,-1,-7,-8,-3,-1,0,4,-1
14:49:24:388091,7,7,-5,-5,-3,-6,-1,1
14:49:24:395666,7,7,-5,-5,-3,-6,-1,1
14:49:24:403080,3,5,6,3,1,-1,3,-1
14:49:24:410618,1,-1,2,0,3,2,6,1
14:49:24:418722,1,-1,2,0,3,2,6,1
14:49:24:419536,1,6,20,5,-1,-3,-6,-2
14:49:24:433080,-20,-6,5,5,4,-4,-1,-3
14:49:24:441306,-20,-6,5,5,4,-4,-1,-3
14:49:24:442050,1,-2,-7,5,2,6,-6,-2
14:49:24:448056,-3,0,-14,-1,11,-5,-3,-13
14:49:24:455622,-3,0,-14,-1,11,-5,-3,-13
14:49:24:463032,-8,-10,-13,-11,-8,1,-11,-3
14:49:24:470652,8,2,-36,-3,-9,-6,-14,5
14:49:24:478785,8,2,-36,-3,-9,-6,-14,5
14:49:24:479672,-2,-1,-14,-5,-2,4,14,3
14:49:24:493099,2,2,14,-6,-5,16,23,5
14:49:24:501295,2,2,14,-6,-5,16,23,5
14:49:24:502115,5,-9,-20,1,-2,-3,-4,1
14:49:24:508112,-2,3,20,-2,-3,-5,0,-3
14:49:24:515677,-2,3,20,-2,-3,-5,0,-3
14:49:24:523073,-8,0,-29,-13,-2,-5,1,-5
14:49:24:530510,-4,2,1,-9,-9,-4,1,3
14:49:24:538836,-4,2,1,-9,-9,-4,1,3
14:49:24:539684,2,1,49,7,13,1,4,1
14:49:24:553106,12,6,13,-10,-2,-5,-18,7
14:49:24:561320,12,6,13,-10,-2,-5,-18,7
14:49:24:562108,-3,-1,-3,-5,-3,39,46,9
14:49:24:568085,1,0,-41,-2,-3,3,-2,-5
14:49:24:583751,1,0,-41,-2,-3,3,-2,-5
14:49:24:584548,9,-5,-80,-11,-7,-25,-28,-7
14:49:24:590545,-6,-3,-33,14,4,-3,0,2
14:49:24:598818,-6,-3,-33,14,4,-3,0,2
14:49:24:599647,11,-1,-33,-4,0,-1,4,0
14:49:24:613147,-4,1,69,-6,-13,-7,-8,-6
14:49:24:621272,-4,1,69,-6,-13,-7,-8,-6
14:49:24:622067,5,-13,23,15,11,-2,-2,0
14:49:24:628045,0,7,-24,0,-3,-14,-17,-3
14:49:24:635668,0,7,-24,0,-3,-14,-17,-3
14:49:24:643099,0,20,61,2,-2,2,6,-1
14:49:24:650596,-2,-9,56,5,6,27,18,-3
14:49:24:658810,-2,-9,56,5,6,27,18,-3
14:49:24:659717,-5,5,31,-2,-5,-14,-23,-10
14:49:24:673093,7,-2,-11,-4,-4,-4,7,2
14:49:24:681308,7,-2,-11,-4,-4,-4,7,2
14:49:24:682092,-9,-12,-46,0,6,-5,-7,-3
14:49:24:688111,-4,1,-10,3,1,-1,-5,0
14:49:24:695707,-4,1,-10,3,1,-1,-5,0
14:49:24:703083,-9,-24,10,-8,-9,-5,-3,-1
14:49:24:710578,-4,-7,-36,-1,3,-1,2,-3
14:49:24:718837,-4,-7,-36,-1,3,-1,2,-3
14:49:24:719675,1,2,16,0,-1,-1,-1,2
14:49:24:733034,-1,-5,-10,0,-1,-3,1,-1
14:49:24:741344,-1,-5,-10,0,-1,-3,1,-1
14:49:24:742106,-2,4,-8,6,2,-4,-3,-1
14:49:24:748030,-4,4,6,-3,4,-5,-1,-1
14:49:24:755665,-4,4,6,-3,4,-5,-1,-1
14:49:24:763095,3,11,9,2,-1,0,7,3
14:49:24:770583,-1,-3,9,3,-5,-2,6,-2
14:49:24:778780,-1,-3,9,3,-5,-2,6,-2
14:49:24:779586,-5,-23,20,-9,-6,-5,-12,-4
14:49:24:793079,0,-4,-14,-4,1,-2,-3,0
14:49:24:801339,0,-4,-14,-4,1,-2,-3,0
14:49:24:802090,-3,0,-2,-5,-4,0,-1,-3
14:49:24:808064,-2,-13,4,0,-5,-3,-2,-3
14:49:24:815602,-2,-13,4,0,-5,-3,-2,-3
14:49:24:823092,-2,6,12,-5,6,-1,0,-1
14:49:24:830563,-1,5,-4,7,5,1,0,-1
14:49:24:846316,-1,5,-4,7,5,1,0,-1
14:49:24:847078,-2,6,-2,-9,-10,-7,-2,1
14:49:24:853070,0,-3,8,-3,-2,1,0,2
14:49:24:861258,0,-3,8,-3,-2,1,0,2
14:49:24:862057,-1,-6,-37,-4,0,-2,-2,-2
14:49:24:868071,-4,0,12,-4,-4,-3,-3,-1
14:49:24:875660,-4,0,12,-4,-4,-3,-3,-1
14:49:24:883021,-6,7,0,9,4,1,-1,-1
14:49:24:890597,3,-2,-1,-6,-2,-1,-2,-8
14:49:24:898799,3,-2,-1,-6,-2,-1,-2,-8
14:49:24:899665,-1,1,-1,-3,-5,-3,-1,-1
14:49:24:913124,-2,2,-5,-4,-3,1,0,4
14:49:24:921278,-2,2,-5,-4,-3,1,0,4
14:49:24:922077,6,-1,-9,10,7,5,1,0
14:49:24:928012,-1,1,-6,1,3,-1,-1,-1
14:49:24:935703,-1,1,-6,1,3,-1,-1,-1
14:49:24:943069,-1,0,-9,-5,-5,-4,-4,3
14:49:24:950550,3,-7,-18,-2,-4,-2,-1,-1
14:49:24:958761,3,-7,-18,-2,-4,-2,-1,-1
14:49:24:959636,-5,3,7,-5,-10,0,-1,1
14:49:24:973049,-11,-1,-1,-5,3,1,0,-3
14:49:24:981288,-11,-1,-1,-5,3,1,0,-3
14:49:24:982036,-4,-7,-11,-10,-3,-4,-5,2
14:49:24:988059,-2,-1,-7,3,-2,-2,4,-2
14:49:24:995647,-2,-1,-7,3,-2,-2,4,-2
14:49:25:3049,-8,3,12,0,2,0,2,0
14:49:25:10558,0,-1,0,-5,-4,-3,-1,-3
14:49:25:18172,0,-1,0,-5,-4,-3,-1,-3
14:49:25:25547,0,5,0,5,-2,-2,1,-9
14:49:25:33094,6,3,2,-6,-4,-3,-4,6
14:49:25:41287,6,3,2,-6,-4,-3,-4,6
14:49:25:42060,4,-4,-19,16,16,2,0,-1
14:49:25:56289,1,-3,-4,-1,0,-2,-1,-3
14:49:25:57120,1,-3,-4,-1,0,-2,-1,-3
14:49:25:63110,-1,0,8,-2,-8,-3,-1,2
14:49:25:70589,2,2,-7,4,-1,2,2,6
14:49:25:78091,2,2,-7,4,-1,2,2,6
14:49:25:85602,-3,4,10,1,15,3,-1,-3
14:49:25:93112,-9,-1,2,-4,-5,-1,0,1
14:49:25:101279,-9,-1,2,-4,-5,-1,0,1
14:49:25:102106,7,-3,-6,-4,-11,-7,-5,-1
14:49:25:116268,2,-8,-28,-5,3,-3,1,-1
14:49:25:117096,2,-8,-28,-5,3,-3,1,-1
14:49:25:139481,-4,-3,-10,-5,-5,-2,2,1
14:49:25:140240,5,-3,-4,1,-5,-6,-5,-6
14:49:25:141060,5,-3,-4,1,-5,-6,-5,-6
14:49:25:145559,2,1,17,-4,10,2,-1,1
14:49:25:153038,-4,-2,7,6,3,2,1,-3
14:49:25:161284,-4,-2,7,6,3,2,1,-3
14:49:25:162114,-3,-4,-23,-2,-15,-8,-6,-1
14:49:25:176256,-17,-7,-33,-5,2,0,-4,-7
14:49:25:177098,-17,-7,-33,-5,2,0,-4,-7
14:49:25:183047,-3,4,-7,7,2,2,1,-2
14:49:25:190616,7,0,26,6,-1,1,5,10
14:49:25:198201,7,0,26,6,-1,1,5,10
14:49:25:205542,-1,1,22,4,-2,-3,-2,-3
14:49:25:213088,6,7,19,7,11,3,1,-2
14:49:25:221324,6,7,19,7,11,3,1,-2
14:49:25:222116,-1,-1,9,-9,-2,0,0,-2
14:49:25:236319,-2,-5,-29,-12,-7,-1,-2,-1
14:49:25:237098,-2,-5,-29,-12,-7,-1,-2,-1
14:49:25:243042,-1,-2,-2,-1,-4,0,-4,-2
14:49:25:250571,-3,4,3,0,-3,-2,-3,-1
14:49:25:258171,-3,4,3,0,-3,-2,-3,-1
14:49:25:265595,-10,-22,-64,-18,-9,-5,-5,-5
14:49:25:273115,-3,-6,4,-1,-2,-1,-1,-2
14:49:25:281220,-3,-6,4,-1,-2,-1,-1,-2
14:49:25:282052,17,6,8,-2,1,2,9,4
14:49:25:296231,0,-2,-27,-14,-7,-5,-4,-23
14:49:25:297015,0,-2,-27,-14,-7,-5,-4,-23
14:49:25:303099,4,11,4,6,6,3,-6,-6
14:49:25:310616,4,2,1,4,-10,1,11,24
14:49:25:318135,4,2,1,4,-10,1,11,24
14:49:25:325646,-8,0,-2,-6,-20,-7,-11,-18
14:49:25:333066,0,-7,-42,-2,3,4,-12,-11
14:49:25:341334,0,-7,-42,-2,3,4,-12,-11
14:49:25:342109,-2,1,12,5,3,1,1,6
14:49:25:356212,1,-26,12,-6,-11,-10,-8,3
14:49:25:357043,1,-26,12,-6,-11,-10,-8,3
14:49:25:371270,1,4,26,4,3,0,5,0
14:49:25:372097,5,1,21,-2,2,2,11,9
14:49:25:378111,5,1,21,-2,2,2,11,9
14:49:25:385617,-2,-10,-35,-8,1,0,-4,3
14:49:25:393114,-3,7,7,10,4,-1,1,-1
14:49:25:401312,-3,7,7,10,4,-1,1,-1
14:49:25:402080,1,13,36,11,7,4,-3,4
14:49:25:416247,-4,-8,-36,-5,0,-7,-5,-2
14:49:25:417038,-4,-8,-36,-5,0,-7,-5,-2
14:49:25:423084,-7,-17,10,4,-4,-10,0,2
14:49:25:430581,-4,-30,-8,3,10,3,-3,-1
14:49:25:438196,-4,-30,-8,3,10,3,-3,-1
14:49:25:445564,3,18,-11,-7,-4,-4,-1,2
14:49:25:453061,0,15,24,0,0,0,1,-4
14:49:25:461298,0,15,24,0,0,0,1,-4
14:49:25:462139,-15,-11,23,-1,-2,-1,-3,-12
14:49:25:476255,-5,15,-6,-8,-4,-4,-10,-3
14:49:25:477093,-5,15,-6,-8,-4,-4,-10,-3
14:49:25:491291,0,-5,-15,-3,-6,-1,4,1
14:49:25:492081,0,4,18,-2,-1,0,-6,-4
14:49:25:498085,0,4,18,-2,-1,0,-6,-4
14:49:25:505595,21,5,-3,-6,-2,-4,-2,3
14:49:25:513073,4,9,19,11,1,-1,-1,0
14:49:25:537728,4,9,19,11,1,-1,-1,0
14:49:25:538468,-4,-11,-1,-14,-7,1,-2,-1
14:49:25:539293,-5,5,-9,-7,-13,-5,1,-4
14:49:25:540092,-5,5,-9,-7,-13,-5,1,-4
14:49:25:543089,-4,-11,1,4,3,2,-1,0
14:49:25:550602,-3,17,22,-1,4,0,0,4
14:49:25:558136,-3,17,22,-1,4,0,0,4
14:49:25:565652,-11,-23,6,-6,-4,-5,-1,-3
14:49:25:573090,24,1,-46,4,7,-9,-1,7
14:49:25:581256,24,1,-46,4,7,-9,-1,7
14:49:25:582043,6,10,-6,-1,4,4,5,-2
14:49:25:596244,-26,-13,16,0,-4,1,-3,-5
14:49:25:597041,-26,-13,16,0,-4,1,-3,-5
14:49:25:611241,-12,3,-19,1,-2,0,6,9
14:49:25:612046,3,4,13,7,3,-1,-2,0
14:49:25:618111,3,4,13,7,3,-1,-2,0
14:49:25:625564,2,9,7,7,4,0,-1,4
14:49:25:633061,-7,0,25,-6,-10,-3,3,1
14:49:25:648798,-7,0,25,-6,-10,-3,3,1
14:49:25:649657,0,-22,-28,-3,2,2,1,-6
14:49:25:656233,12,-6,1,-4,-2,3,-3,-10
14:49:25:657055,12,-6,1,-4,-2,3,-3,-10
14:49:25:663136,6,9,20,4,1,-4,-6,7
14:49:25:670590,0,9,4,3,7,5,2,6
14:49:25:678106,0,9,4,3,7,5,2,6
14:49:25:685623,-18,3,-2,1,0,-2,-9,-12
14:49:25:693078,-6,-6,-1,-7,-4,-1,2,-1
14:49:25:701311,-6,-6,-1,-7,-4,-1,2,-1
14:49:25:702096,0,33,25,17,3,0,0,3
14:49:25:716247,-10,-51,5,4,2,2,-1,-14
14:49:25:717033,-10,-51,5,4,2,2,-1,-14
14:49:25:723094,0,28,12,-3,-2,-1,0,0
14:49:25:730561,3,-18,-33,-10,-8,-6,-4,2
14:49:25:738130,3,-18,-33,-10,-8,-6,-4,2
14:49:25:745535,0,-24,12,-7,-11,0,5,-3
14:49:25:753058,24,24,65,27,12,2,4,-3
14:49:25:768778,24,24,65,27,12,2,4,-3
14:49:25:769575,-2,-11,12,-9,-9,-9,-9,-5
14:49:25:776253,0,1,-31,-3,-5,3,-1,-3
14:49:25:777094,0,1,-31,-3,-5,3,-1,-3
14:49:25:783027,21,11,8,2,5,5,4,13
14:49:25:790608,-18,-15,-23,-7,-3,-5,-7,20
14:49:25:798126,-18,-15,-23,-7,-3,-5,-7,20
14:49:25:805553,-14,-26,-46,-10,-2,-3,-9,-9
14:49:25:813042,25,46,12,3,3,3,6,19
14:49:25:821286,25,46,12,3,3,3,6,19
14:49:25:822075,0,-15,44,9,-9,-4,-6,-24
14:49:25:836703,-13,-12,-24,9,3,1,0,-28
14:49:25:843755,-13,-12,-24,9,3,1,0,-28
14:49:25:844652,17,21,-10,-3,5,1,1,-2
14:49:25:850559,4,18,14,-6,-4,6,-4,-15
14:49:25:858097,4,18,14,-6,-4,6,-4,-15
14:49:25:865557,-3,-6,-10,-12,11,3,5,5
14:49:25:873058,-4,6,65,12,-3,-4,6,1
14:49:25:888868,-4,6,65,12,-3,-4,6,1
14:49:25:889682,-5,4,-34,-6,-10,-1,-1,3
14:49:25:896256,-5,9,7,-3,4,-2,0,3
14:49:25:897097,-5,9,7,-3,4,-2,0,3
14:49:25:903077,-8,34,21,10,3,1,4,15
14:49:25:910529,14,-14,-35,-10,-11,-6,-16,-16
14:49:25:926280,14,-14,-35,-10,-11,-6,-16,-16
14:49:25:927079,24,-5,-7,3,4,-2,0,3
14:49:25:933060,0,-8,5,-5,-2,3,12,18
14:49:25:941298,0,-8,5,-5,-2,3,12,18
14:49:25:942137,3,-1,8,-1,-6,7,-1,1
14:49:25:956261,-5,-8,14,-4,-5,-4,-9,-7
14:49:25:957072,-5,-8,14,-4,-5,-4,-9,-7
14:49:25:963129,-21,-6,-1,3,0,-3,-4,-1
14:49:25:978794,-13,6,-8,-8,-4,-4,0,5
14:49:25:979657,-13,6,-8,-8,-4,-4,0,5
14:49:25:985545,-23,3,-2,-11,0,1,3,-6
14:49:25:993043,1,-7,10,12,7,-2,2,-1
14:49:26:8777,1,-7,10,12,7,-2,2,-1
14:49:26:9557,17,-1,-30,-6,-3,-4,2,1
14:49:26:16265,-13,3,-3,0,3,6,6,2
14:49:26:17064,-13,3,-3,0,3,6,6,2
14:49:26:23066,-1,-18,-30,-3,11,-9,-8,-6
14:49:26:38793,-8,2,-15,-4,-19,-6,-4,-3
14:49:26:39712,-8,2,-15,-4,-19,-6,-4,-3
14:49:26:45571,-3,-5,24,6,11,2,-2,-1
14:49:26:53064,3,-5,-5,-12,7,3,0,-6
14:49:26:60686,3,-5,-5,-12,7,3,0,-6
14:49:26:68048,-9,20,21,-5,-12,-12,-9,1
14:49:26:76289,0,8,-7,-19,4,-5,-5,-4
14:49:26:77138,0,8,-7,-19,4,-5,-5,-4
14:49:26:83035,6,-6,12,4,22,8,4,0
14:49:26:98771,-1,2,28,5,-4,0,3,7
14:49:26:99669,-1,2,28,5,-4,0,3,7
14:49:26:105549,17,2,33,12,-4,-4,1,-2
14:49:26:113072,2,-1,-18,-1,-3,-3,2,4
14:49:26:120685,2,-1,-18,-1,-3,-3,2,4
14:49:26:128077,1,-11,-13,-2,-8,2,7,1
14:49:26:136211,-8,-10,1,-4,-9,-9,-10,-5
14:49:26:137036,-8,-10,1,-4,-9,-9,-10,-5
14:49:26:143069,-6,-7,-18,9,20,3,-3,-3
14:49:26:158780,-3,-15,-13,5,4,4,3,4
14:49:26:159681,-3,-15,-13,5,4,4,3,4
14:49:26:165586,-7,-2,-8,-6,-14,-3,2,0
14:49:26:173068,-13,-3,-30,7,21,9,-4,-8
14:49:26:180630,-13,-3,-30,7,21,9,-4,-8
14:49:26:188112,-25,-27,-26,-10,-2,-6,-4,-5
14:49:26:196216,7,-1,-19,-4,-14,-10,0,1
14:49:26:197042,7,-1,-19,-4,-14,-10,0,1
14:49:26:203044,6,16,8,4,-3,-3,-3,-3
14:49:26:218754,-1,-6,-55,-11,9,2,4,0
14:49:26:219565,-1,-6,-55,-11,9,2,4,0
14:49:26:225628,4,-7,-4,-10,-21,-3,7,4
14:49:26:233117,11,7,-22,4,-5,-3,-3,-2
14:49:26:248804,11,7,-22,4,-5,-3,-3,-2
14:49:26:249663,-17,3,-22,3,19,5,-4,-5
14:49:26:256233,-17,-3,0,-9,-8,-12,0,-8
14:49:26:257069,-17,-3,0,-9,-8,-12,0,-8
14:49:26:263076,8,0,-44,-11,-13,-4,0,-5
14:49:26:278768,2,1,64,13,-1,9,-3,-2
14:49:26:279645,2,1,64,13,-1,9,-3,-2
14:49:26:285569,2,-3,27,1,-14,-4,-13,-1
14:49:26:293091,1,11,-14,-6,-8,-6,-3,-2
14:49:26:300593,1,11,-14,-6,-8,-6,-3,-2
14:49:26:308070,5,4,-4,0,4,5,-3,1
14:49:26:316229,-4,-3,12,2,3,2,-10,22
14:49:26:317087,-4,-3,12,2,3,2,-10,22
14:49:26:323035,1,-3,-9,-5,-6,-8,-8,-1
14:49:26:338808,4,5,1,-1,-2,1,5,-5
14:49:26:339539,4,5,1,-1,-2,1,5,-5
14:49:26:345596,-20,-18,-16,4,4,0,-3,-3
14:49:26:353103,0,4,6,6,-4,-2,1,-1
14:49:26:360614,0,4,6,6,-4,-2,1,-1
14:49:26:368052,12,2,-1,3,-14,-6,-1,-2
14:49:26:376246,-4,-13,-28,-23,7,11,0,-1
14:49:26:377072,-4,-13,-28,-23,7,11,0,-1
14:49:26:383009,1,3,-30,-9,-10,7,-5,-2
14:49:26:406925,0,-3,28,3,-9,-6,1,-11
14:49:26:407705,0,-3,28,3,-9,-6,1,-11
14:49:26:408515,10,7,31,0,2,-4,0,-3
14:49:26:413079,8,-2,-9,-1,-12,-5,-1,-2
14:49:26:420626,8,-2,-9,-1,-12,-5,-1,-2
14:49:26:428100,-2,6,14,7,28,10,7,4
14:49:26:436274,-11,-4,16,0,5,0,1,-11
14:49:26:437035,-11,-4,16,0,5,0,1,-11
14:49:26:443048,-4,1,38,-2,-16,-9,1,1
14:49:26:458752,-6,-2,-62,-3,-7,-4,1,7
14:49:26:459592,-6,-2,-62,-3,-7,-4,1,7
14:49:26:465552,-3,-4,-13,-11,0,4,7,-5
14:49:26:481205,-8,4,9,4,-6,-9,5,8
14:49:26:482040,-8,4,9,4,-6,-9,5,8
14:49:26:488105,-11,-13,39,2,-5,1,11,6
14:49:26:496248,10,4,37,6,1,-1,-3,-1
14:49:26:497051,10,4,37,6,1,-1,-3,-1
14:49:26:503043,11,-21,-29,-11,4,-1,-1,-7
14:49:26:519160,-10,0,-77,-7,3,1,-7,-15
14:49:26:526245,-10,0,-77,-7,3,1,-7,-15
14:49:26:527089,0,5,2,7,-3,0,-3,0
14:49:26:533125,3,-6,-1,6,3,4,0,8
14:49:26:540633,3,-6,-1,6,3,4,0,8
14:49:26:548053,-1,1,-33,8,10,2,-1,-1
14:49:26:556250,-2,-7,13,-3,10,-2,-1,-2
14:49:26:557082,-2,-7,13,-3,10,-2,-1,-2
14:49:26:563116,9,-1,6,-3,3,-6,8,10
14:49:26:578770,-1,-5,-1,-8,0,6,-3,-2
14:49:26:579581,-1,-5,-1,-8,0,6,-3,-2
14:49:26:585558,-5,8,-8,1,7,-2,-9,-4
14:49:26:593071,-5,5,16,-1,-3,-5,-1,-2
14:49:26:600703,-5,5,16,-1,-3,-5,-1,-2
14:49:26:608038,-19,2,-1,3,-17,-16,-11,-13
14:49:26:616272,-3,1,15,0,-1,1,1,-16
14:49:26:617102,-3,1,15,0,-1,1,1,-16
14:49:26:623078,-3,-4,0,-9,4,3,-2,3
14:49:26:638816,6,7,15,2,-6,-6,4,10
14:49:26:639677,6,7,15,2,-6,-6,4,10
14:49:26:645552,4,-12,-5,-1,5,2,10,5
14:49:26:653056,-8,-7,-19,-15,-8,-4,-8,-7
14:49:26:660675,-8,-7,-19,-15,-8,-4,-8,-7
14:49:26:668103,5,1,5,2,-2,4,-11,-7
14:49:26:676260,1,-3,13,8,6,-5,-2,3
14:49:26:677051,1,-3,13,8,6,-5,-2,3
14:49:26:683073,-4,1,-9,-19,-19,3,2,0
14:49:26:698804,11,4,22,3,27,17,0,-2
14:49:26:699684,11,4,22,3,27,17,0,-2
14:49:26:705575,12,-23,-2,-2,-10,-10,-7,-8
14:49:26:713100,2,2,9,-3,-11,-10,-5,6
14:49:26:720692,2,2,9,-3,-11,-10,-5,6
14:49:26:728069,-11,-6,-11,3,-3,1,11,5
14:49:26:736278,-11,-6,-11,3,-3,1,11,5
14:49:26:737040,13,0,7,2,6,3,-17,-1
14:49:26:743108,0,17,10,-3,-2,-5,-15,-6
14:49:26:758748,0,17,10,-3,-2,-5,-15,-6
14:49:26:759561,1,17,48,5,-6,-1,6,12
14:49:26:765615,-20,28,23,6,3,2,-3,-13
14:49:26:781256,-20,28,23,6,3,2,-3,-13
14:49:26:782076,-8,1,6,-4,-17,-8,1,-10
14:49:26:788108,12,2,32,6,-2,2,7,11
14:49:26:796233,12,2,32,6,-2,2,7,11
14:49:26:797035,3,-3,-24,-27,-14,15,2,-4
14:49:26:803091,5,-4,-22,-1,-3,5,4,4
14:49:26:818826,5,-4,-22,-1,-3,5,4,4
14:49:26:819657,2,-21,18,9,-1,-9,-11,3
14:49:26:825568,-5,4,-53,-7,-8,-4,17,13
14:49:26:841339,-5,4,-53,-7,-8,-4,17,13
14:49:26:842128,-6,-5,-35,-3,10,1,1,-9
14:49:26:848065,-18,-11,12,-6,-9,-10,-5,-8
14:49:26:856267,-18,-11,12,-6,-9,-10,-5,-8
14:49:26:857073,-1,-7,-27,-4,-3,-4,-10,-11
14:49:26:863041,2,-8,-23,25,6,4,-1,-16
14:49:26:878825,2,-8,-23,25,6,4,-1,-16
14:49:26:879676,1,1,1,7,6,-5,-1,4
14:49:26:885608,9,8,24,-3,-7,1,-1,9
14:49:26:901300,9,8,24,-3,-7,1,-1,9
14:49:26:902077,-4,-3,-29,1,20,-3,-8,-12
14:49:26:908052,-5,17,-2,-6,12,2,-9,-17
14:49:26:916343,-5,17,-2,-6,12,2,-9,-17
14:49:26:917093,9,27,43,-6,-14,-5,26,19
14:49:26:930520,11,-16,29,2,25,2,-9,11
14:49:26:938811,11,-16,29,2,25,2,-9,11
14:49:26:939717,-13,1,-20,-7,7,7,8,6
14:49:26:945523,-5,-11,16,-19,-12,-2,7,9
14:49:26:961326,-5,-11,16,-19,-12,-2,7,9
14:49:26:962104,1,-16,-33,-1,-20,-12,-14,-10
14:49:26:968056,-12,-6,11,1,-25,-10,-10,-11
14:49:26:976297,-12,-6,11,1,-25,-10,-10,-11
14:49:26:977087,-6,-6,-25,-2,5,4,10,-5
14:49:26:999410,5,4,-14,7,9,-5,-9,4
14:49:27:230,5,4,-14,7,9,-5,-9,4
14:49:27:1046,-5,-1,-13,-12,19,17,15,-5
14:49:27:5566,3,9,17,-5,0,-1,-6,-6
14:49:27:21299,3,9,17,-5,0,-1,-6,-6
14:49:27:22077,6,0,15,17,-25,-15,-15,-7
14:49:27:28110,3,13,-7,19,18,8,1,9
14:49:27:36254,3,13,-7,19,18,8,1,9
14:49:27:37050,-1,-3,-29,-10,-12,-8,-7,-1
14:49:27:50547,10,-13,-21,8,2,11,16,-1
14:49:27:58728,10,-13,-21,8,2,11,16,-1
14:49:27:59541,-9,-4,-48,10,34,7,-1,-15
14:49:27:65593,-7,-1,-36,-23,-16,-17,-3,-8
14:49:27:81309,-7,-1,-36,-23,-16,-17,-3,-8
14:49:27:82080,2,-1,25,-2,-13,4,2,4
14:49:27:88074,-1,-8,8,-9,-3,-3,-6,2
14:49:27:96244,-1,-8,8,-9,-3,-3,-6,2
14:49:27:97021,5,2,21,5,-5,0,33,19
14:49:27:119434,-13,0,36,6,2,-2,28,7
14:49:27:120208,-13,0,36,6,2,-2,28,7
14:49:27:121033,-1,-17,9,-10,-2,-11,-18,-5
14:49:27:125552,-6,-5,-49,32,6,8,-11,6
14:49:27:141362,-6,-5,-49,32,6,8,-11,6
14:49:27:142066,-3,2,13,-2,13,3,-3,19
14:49:27:148035,0,1,28,2,4,-4,-9,-12
14:49:27:156249,0,1,28,2,4,-4,-9,-12
14:49:27:157071,0,8,30,1,4,-2,3,-1
14:49:27:170542,0,-11,-26,-16,-15,-9,0,-9
14:49:27:179187,0,-11,-26,-16,-15,-9,0,-9
14:49:27:186227,1,2,24,1,-8,-10,-27,-11
14:49:27:187016,-3,-8,-17,-16,-11,1,10,-3
14:49:27:201277,-3,-8,-17,-16,-11,1,10,-3
14:49:27:202082,-3,5,-38,3,15,4,-26,-1
14:49:27:208050,5,7,8,7,-7,-6,-3,8
14:49:27:216313,5,7,8,7,-7,-6,-3,8
14:49:27:217071,-7,-10,13,9,-5,-2,2,-9
14:49:27:239447,4,-4,-20,-13,-8,-4,-4,2
14:49:27:240228,4,-4,-20,-13,-8,-4,-4,2
14:49:27:241017,5,8,60,5,-17,1,0,-1
14:49:27:245562,-3,15,-11,-9,11,11,16,-1
14:49:27:261368,-3,15,-11,-9,11,11,16,-1
14:49:27:262156,0,-3,-19,-2,0,-2,14,1
14:49:27:276912,0,9,35,5,-4,-11,-26,-5
14:49:27:277751,0,9,35,5,-4,-11,-26,-5
14:49:27:278575,-6,-10,-21,-12,-2,5,20,3
14:49:27:290629,25,4,-10,8,-8,-3,-3,-1
14:49:27:298761,25,4,-10,8,-8,-3,-3,-1
14:49:27:299550,-4,-1,40,13,-11,-3,-11,9
14:49:27:313087,5,-12,39,-13,-14,6,-3,2
14:49:27:321273,5,-12,39,-13,-14,6,-3,2
14:49:27:322112,1,1,-14,-13,31,14,2,-13
14:49:27:328002,-13,2,26,2,16,-2,-4,4
14:49:27:336278,-13,2,26,2,16,-2,-4,4
14:49:27:337051,0,-2,12,12,-9,-8,0,4
14:49:27:359399,-11,3,-3,2,1,7,25,5
14:49:27:360214,-11,3,-3,2,1,7,25,5
14:49:27:361033,0,0,-54,-7,-13,-5,15,4
14:49:27:365603,-6,-10,-18,22,8,-9,-17,-10
14:49:27:381292,-6,-10,-18,22,8,-9,-17,-10
14:49:27:382081,-4,6,-46,-5,3,-7,-9,-7
14:49:27:396917,-8,9,-31,-17,-16,-6,-4,-2
14:49:27:397729,-8,9,-31,-17,-16,-6,-4,-2
14:49:27:398537,7,-27,9,1,40,10,-7,-5
14:49:27:410514,1,-3,25,5,4,-4,0,-1
14:49:27:418753,1,-3,25,5,4,-4,0,-1
14:49:27:419536,-2,-5,-3,2,-32,6,-13,-8
14:49:27:432997,3,-8,-31,-3,6,8,4,-3
14:49:27:441313,3,-8,-31,-3,6,8,4,-3
14:49:27:442065,0,-4,1,2,-2,-1,-2,0
14:49:27:448048,-6,-8,14,-6,-9,-9,-21,10
14:49:27:456237,-6,-8,14,-6,-9,-9,-21,10
14:49:27:457062,2,13,8,4,5,-5,20,6
14:49:27:470510,1,-5,17,-8,-20,3,3,-17
14:49:27:478745,1,-5,17,-8,-20,3,3,-17
14:49:27:479556,5,5,-8,-10,0,-1,-10,6
14:49:27:485564,-4,-11,-20,-5,-6,-6,-2,-6
14:49:27:501284,-4,-11,-20,-5,-6,-6,-2,-6
14:49:27:502063,-7,-1,-43,-20,-15,2,11,-3
14:49:27:516891,0,-1,-37,10,23,16,0,3
14:49:27:517708,0,-1,-37,10,23,16,0,3
14:49:27:518521,-29,5,-17,1,3,-4,-3,-5
14:49:27:530530,6,5,10,-2,1,0,35,6
14:49:27:538754,6,5,10,-2,1,0,35,6
14:49:27:539596,14,-8,13,4,14,-2,0,-10
14:49:27:553029,-8,1,12,2,8,-5,-32,-13
14:49:27:561314,-8,1,12,2,8,-5,-32,-13
14:49:27:562142,-1,-4,35,18,-38,-13,-7,8
14:49:27:568089,4,-3,-4,-6,29,16,3,-9
14:49:27:576294,4,-3,-4,-6,29,16,3,-9
14:49:27:577066,5,6,45,18,14,-4,-5,3
14:49:27:590643,-5,-15,-60,2,11,-16,-21,5
14:49:27:598747,-5,-15,-60,2,11,-16,-21,5
14:49:27:599576,-11,6,-40,-9,-5,-4,-22,-8
14:49:27:605574,-12,20,14,-12,4,2,6,1
14:49:27:621335,-12,20,14,-12,4,2,6,1
14:49:27:622103,1,-6,8,-15,-28,-9,3,-1
14:49:27:636929,3,-4,-3,9,-17,5,3,-6
14:49:27:637760,3,-4,-3,9,-17,5,3,-6
14:49:27:638536,1,4,13,8,-1,6,10,-12
14:49:27:650558,8,10,-8,0,-5,-5,7,-7
14:49:27:658788,8,10,-8,0,-5,-5,7,-7
14:49:27:659605,7,-10,-3,-12,-8,-11,-8,4
14:49:27:673069,17,8,22,-16,-13,2,6,15
14:49:27:681224,17,8,22,-16,-13,2,6,15
14:49:27:682073,-8,-3,-2,-20,-11,2,-5,1
14:49:27:688054,-8,4,23,15,2,-9,-8,1
14:49:27:696327,-8,4,23,15,2,-9,-8,1
14:49:27:697086,-1,-13,-12,7,3,-10,-9,-10
14:49:27:710583,6,0,-6,-5,-12,1,18,2
14:49:27:718780,6,0,-6,-5,-12,1,18,2
14:49:27:719617,3,10,-8,-1,20,14,12,12
14:49:27:725561,-4,-2,7,-16,2,-1,0,2
14:49:27:741280,-4,-2,7,-16,2,-1,0,2
14:49:27:742091,2,0,-3,10,-24,-4,-1,-10
14:49:27:748065,-2,-8,8,-1,2,5,8,11
14:49:27:756264,-2,-8,8,-1,2,5,8,11
14:49:27:757087,-1,4,-1,3,-3,-7,-10,-7
14:49:27:770627,-4,-6,15,-2,8,2,-1,-6
14:49:27:778795,-4,-6,15,-2,8,2,-1,-6
14:49:27:779559,-4,-7,-10,-5,-7,3,-16,-4
14:49:27:793118,1,-8,7,-8,-11,2,9,0
14:49:27:801272,1,-8,7,-8,-11,2,9,0
14:49:27:802052,10,6,24,-5,11,6,-15,-10
14:49:27:808069,-7,6,-37,1,-5,-5,10,-5
14:49:27:816277,-7,6,-37,1,-5,-5,10,-5
14:49:27:817067,-6,6,40,2,24,6,10,-3
14:49:27:831023,-16,-24,-41,28,4,0,-19,-9
14:49:27:838779,-16,-24,-41,28,4,0,-19,-9
14:49:27:839584,-4,-12,-24,-3,-16,-10,-4,-6
14:49:27:853039,2,3,-9,-15,4,-4,7,18
14:49:27:861315,2,3,-9,-15,4,-4,7,18
14:49:27:862135,1,-8,-11,-12,-4,5,16,8
14:49:27:868123,-1,4,4,15,37,14,12,7
14:49:27:875582,-1,4,4,15,37,14,12,7
14:49:27:883045,-1,-4,0,1,-7,-6,18,-3
14:49:27:890641,4,3,5,2,-23,0,-5,5
14:49:27:898773,4,3,5,2,-23,0,-5,5
14:49:27:899572,10,6,-12,-11,-4,1,-11,-1
14:49:27:913596,-9,-9,38,-8,-6,-11,-19,-10
14:49:27:921279,-9,-9,38,-8,-6,-11,-19,-10
14:49:27:922071,-5,5,-7,-9,-9,0,1,8
14:49:27:928101,-3,0,-92,-21,8,1,-6,-1
14:49:27:935622,-3,0,-92,-21,8,1,-6,-1
14:49:27:951279,-1,-2,-15,5,13,0,-5,5
14:49:27:952008,3,10,35,-2,-31,-18,-12,-6
14:49:27:958747,3,10,35,-2,-31,-18,-12,-6
14:49:27:959559,8,4,0,3,11,4,2,-6
14:49:27:973179,3,-7,16,-7,-7,2,16,-14
14:49:27:981326,3,-7,16,-7,-7,2,16,-14
14:49:27:982109,10,6,23,10,-12,7,-6,5
14:49:27:988088,-3,-5,41,12,5,-3,-22,-4
14:49:27:995612,-3,-5,41,12,5,-3,-22,-4
14:49:28:3061,-6,2,16,1,-17,-4,5,-1
14:49:28:10559,-6,-19,-56,11,22,8,-6,-6
14:49:28:18760,-6,-19,-56,11,22,8,-6,-6
14:49:28:19554,-5,1,8,14,8,-4,5,-11
14:49:28:33051,-8,-6,-24,-5,3,-1,-4,1
14:49:28:41270,-8,-6,-24,-5,3,-1,-4,1
14:49:28:42083,-13,-6,-27,-13,1,-7,-2,7
14:49:28:48040,14,27,-23,-1,11,9,1,-6
14:49:28:55565,14,27,-23,-1,11,9,1,-6
14:49:28:63047,6,0,-25,5,13,4,10,5
14:49:28:70533,-1,0,29,9,4,-10,-4,3
14:49:28:78765,-1,0,29,9,4,-10,-4,3
14:49:28:79602,-1,-3,-13,-8,-11,7,-15,1
14:49:28:93128,2,-11,-18,-16,-25,-1,2,-1
14:49:28:109452,2,-11,-18,-16,-25,-1,2,-1
14:49:28:110226,5,-14,22,0,0,-8,-8,-2
14:49:28:111026,4,13,1,-12,18,2,-18,6
14:49:28:115630,4,13,1,-12,18,2,-18,6
14:49:28:123086,-8,-4,15,-14,-5,-17,15,1
14:49:28:130542,-1,-1,41,14,26,-8,-2,0
14:49:28:138806,-1,-1,41,14,26,-8,-2,0
14:49:28:139588,-26,0,8,-9,-8,4,-6,-7
14:49:28:153099,2,-5,0,-17,-22,3,4,-11
14:49:28:161251,2,-5,0,-17,-22,3,4,-11
14:49:28:162033,0,0,26,33,20,-3,1,-4
14:49:28:168035,-6,2,-10,-8,-14,3,-2,9
14:49:28:175607,-6,2,-10,-8,-14,3,-2,9
14:49:28:191294,1,-5,-32,-10,13,15,23,4
14:49:28:192050,-5,-2,21,7,-9,-1,24,-7
14:49:28:198755,-5,-2,21,7,-9,-1,24,-7
14:49:28:199541,6,1,5,-12,-13,-5,-6,3
14:49:28:213082,-1,-12,6,-2,-9,-8,-15,-4
14:49:28:229466,-1,-12,6,-2,-9,-8,-15,-4
14:49:28:230216,-8,-10,30,13,-4,11,1,3
14:49:28:231033,-8,-30,-26,-13,-14,-6,-6,-2
14:49:28:235691,-8,-30,-26,-13,-14,-6,-6,-2
14:49:28:251240,3,1,-3,15,-1,0,-15,-3
14:49:28:252005,2,4,7,6,24,-3,-20,8
14:49:28:258775,2,4,7,6,24,-3,-20,8
14:49:28:259575,2,1,-16,-9,4,-10,2,0
14:49:28:273048,-15,-11,13,3,0,12,-2,3
14:49:28:281253,-15,-11,13,3,0,12,-2,3
14:49:28:282039,-6,13,0,-18,-7,-8,-14,-14
14:49:28:288078,7,9,4,11,4,6,20,-7
14:49:28:295701,7,9,4,11,4,6,20,-7
14:49:28:303043,3,-3,-3,-20,-26,-18,4,4
14:49:28:310549,0,5,9,-15,8,11,7,11
14:49:28:318763,0,5,9,-15,8,11,7,11
14:49:28:319552,3,6,5,-3,13,0,-22,-2
14:49:28:333067,-2,9,9,4,-19,-8,-12,-12
14:49:28:349403,-2,9,9,4,-19,-8,-12,-12
14:49:28:350222,2,-2,-20,8,31,-4,-17,17
14:49:28:351063,10,13,-16,0,-4,-8,-2,-1
14:49:28:355597,10,13,-16,0,-4,-8,-2,-1
14:49:28:363107,17,-3,-33,7,-4,-1,-10,-25
14:49:28:370577,5,-6,-9,-8,17,-6,-16,-9
14:49:28:379191,5,-6,-9,-8,17,-6,-16,-9
14:49:28:385575,0,5,22,18,-8,7,11,3
14:49:28:393050,-3,3,-6,15,14,9,-5,-6
14:49:28:401228,-3,3,-6,15,14,9,-5,-6
14:49:28:402031,-10,-10,-11,-1,3,7,31,12
14:49:28:408069,-8,6,23,11,-18,-7,-2,2
14:49:28:415595,-8,6,23,11,-18,-7,-2,2
14:49:28:423032,-3,3,-19,-11,-16,-19,-6,3
14:49:28:430562,3,-17,-9,-27,22,3,16,-2
14:49:28:438805,3,-17,-9,-27,22,3,16,-2
14:49:28:439593,2,-3,24,-4,16,8,8,6
14:49:28:453096,2,5,17,-5,-10,-8,1,8
14:49:28:469495,2,5,17,-5,-10,-8,1,8
14:49:28:470241,-7,-12,23,-6,-26,-14,8,2
14:49:28:471040,1,-1,-25,-3,6,8,-21,-5
14:49:28:475570,1,-1,-25,-3,6,8,-21,-5
14:49:28:483091,-2,4,13,1,-17,-4,-9,-23
14:49:28:490633,-2,-4,10,9,-14,-11,7,2
14:49:28:506273,-2,-4,10,9,-14,-11,7,2
14:49:28:507088,4,0,-27,-2,23,14,12,3
14:49:28:513739,1,-8,-1,3,-20,-8,21,6
14:49:28:514554,1,-8,-1,3,-20,-8,21,6
14:49:28:520599,-6,-1,-1,0,-4,-1,-14,-1
14:49:28:528091,7,7,10,6,15,-5,13,-15
14:49:28:535653,7,7,10,6,15,-5,13,-15
14:49:28:543079,2,13,36,-7,-2,-4,-14,14
14:49:28:550603,-2,0,34,2,-25,-9,-8,4
14:49:28:558735,-2,0,34,2,-25,-9,-8,4
14:49:28:559614,-7,-1,11,-8,16,6,-4,-3
14:49:28:573748,-10,-5,8,-1,1,4,-3,5
14:49:28:574562,-10,-5,8,-1,1,4,-3,5
14:49:28:580497,5,5,-19,-6,-8,2,5,3
14:49:28:588073,13,3,-14,-3,2,-3,-8,11
14:49:28:595615,13,3,-14,-3,2,-3,-8,11
14:49:28:603036,-2,-3,-5,-1,33,15,-12,-11
14:49:28:610534,-1,0,-24,-4,-25,-11,-8,8
14:49:28:626284,-1,0,-24,-4,-25,-11,-8,8
14:49:28:627071,-3,-21,-47,-3,-3,-6,13,4
14:49:28:633721,-5,-1,8,16,18,11,7,-13
14:49:28:634551,-5,-1,8,16,18,11,7,-13
14:49:28:640575,-3,-4,2,28,-12,-1,-16,-8
14:49:28:648037,-2,-5,-23,19,1,3,-13,-2
14:49:28:655598,-2,-5,-23,19,1,3,-13,-2
14:49:28:663111,-12,3,-22,2,-7,-3,4,-7
14:49:28:670524,9,14,-10,-12,-13,-5,0,-5
14:49:28:678155,9,14,-10,-12,-13,-5,0,-5
14:49:28:685620,8,-2,11,9,16,4,-2,4
14:49:28:694201,-9,-1,-26,-20,-14,-6,32,-2
14:49:28:701336,-9,-1,-26,-20,-14,-6,32,-2
14:49:28:702131,-6,-1,14,-2,-4,-7,-8,-7
14:49:28:708047,8,2,49,13,23,-1,-25,-13
14:49:28:715606,8,2,49,13,23,-1,-25,-13
14:49:28:723110,1,0,33,-14,-13,-7,9,9
14:49:28:730576,-9,-16,-12,-32,-18,4,2,4
14:49:28:739510,-9,-16,-12,-32,-18,4,2,4
14:49:28:740335,1,-2,0,-6,-8,-2,-26,-11
14:49:28:753768,-3,4,-34,-9,-20,-3,-14,11
14:49:28:754546,-3,4,-34,-9,-20,-3,-14,11
14:49:28:760551,0,5,-14,-8,25,24,20,-3
14:49:28:768111,-6,-4,21,-2,12,-4,5,-6
14:49:28:783761,-6,-4,21,-2,12,-4,5,-6
14:49:28:784648,-1,9,18,5,-29,-21,-30,-5
14:49:28:790546,-7,-3,-10,2,1,4,-5,-2
14:49:28:798071,-7,-3,-10,2,1,4,-5,-2
14:49:28:805603,-10,-11,-51,-28,-5,-3,-6,-5
14:49:28:813730,3,1,-2,-8,-8,-16,-6,-16
14:49:28:814533,3,1,-2,-8,-8,-16,-6,-16
14:49:28:820520,2,-7,-9,15,10,4,-2,6
14:49:28:836257,7,0,-39,10,-2,5,8,16
14:49:28:837023,7,0,-39,10,-2,5,8,16
14:49:28:843064,-2,2,-10,-1,8,9,18,-5
14:49:28:850586,8,1,29,-3,-10,-9,-20,-14
14:49:28:858086,8,1,29,-3,-10,-9,-20,-14
14:49:28:865542,1,6,34,-2,-14,-8,-3,2
14:49:28:873757,0,7,0,12,26,31,9,-2
14:49:28:874571,0,7,0,12,26,31,9,-2
14:49:28:880535,1,9,-5,9,4,2,3,-4
14:49:28:904395,-7,2,0,7,-5,-15,-18,-15
14:49:28:905204,-7,2,0,7,-5,-15,-18,-15
14:49:28:905973,8,-1,-4,-4,-19,-14,12,9
14:49:28:910583,8,-12,3,0,32,24,8,13
14:49:28:918109,8,-12,3,0,32,24,8,13
14:49:28:925592,-3,-6,-14,-5,-22,-14,-16,-14
14:49:28:933736,0,4,-2,3,0,-3,33,6
14:49:28:934563,0,4,-2,3,0,-3,33,6
14:49:28:940605,2,4,6,-8,8,3,10,-2
14:49:28:956227,-10,-4,-7,-10,-8,-9,-5,-8
14:49:28:957020,-10,-4,-7,-10,-8,-9,-5,-8
14:49:28:963065,-5,-6,14,17,8,-7,6,5
14:49:28:970652,-8,-3,18,9,19,1,-4,-7
14:49:28:978106,-8,-3,18,9,19,1,-4,-7
14:49:28:985557,-3,-14,-13,-13,-12,4,25,6
14:49:28:993763,11,12,8,-7,-30,-15,-22,12
14:49:28:994561,11,12,8,-7,-30,-15,-22,12
14:49:29:549,0,-4,64,26,26,20,-7,12
14:49:29:24420,3,-19,-21,-19,8,11,10,-16
14:49:29:25240,3,-19,-21,-19,8,11,10,-16
14:49:29:26059,1,12,3,-5,-32,-2,-21,-7
14:49:29:30566,-8,4,-12,-3,2,2,-15,-16
14:49:29:38091,-8,4,-12,-3,2,2,-15,-16
14:49:29:45557,-5,-8,0,-15,-18,-5,10,-3
14:49:29:61953,-3,-3,23,-2,-22,-14,2,10
14:49:29:62754,-3,-3,23,-2,-22,-14,2,10
14:49:29:63495,4,-2,-59,10,16,-2,1,-6
14:49:29:76268,-3,-7,37,9,-14,-12,9,9
14:49:29:77120,-3,-7,37,9,-14,-12,9,9
14:49:29:83072,-12,17,19,-4,8,-6,-16,-7
14:49:29:90636,-6,2,-4,7,44,6,20,10
14:49:29:98086,-6,2,-4,7,44,6,20,10
14:49:29:105611,-4,-7,-13,-16,5,5,-2,-7
14:49:29:113763,-4,4,27,-18,-20,0,-3,7
14:49:29:114562,-4,4,27,-18,-20,0,-3,7
14:49:29:120555,-1,13,-12,3,22,-10,15,10
14:49:29:136266,1,5,-42,-16,-19,-6,0,-6
14:49:29:137060,1,5,-42,-16,-19,-6,0,-6
14:49:29:143091,8,-7,28,6,-16,10,6,-1
14:49:29:150608,-12,-10,0,5,15,5,-6,-6
14:49:29:158107,-12,-10,0,5,15,5,-6,-6
14:49:29:165572,9,-2,-65,1,-33,-5,6,-7
14:49:29:181888,2,-10,-79,-7,7,10,-18,-2
14:49:29:182727,2,-10,-79,-7,7,10,-18,-2
14:49:29:183495,-11,-7,-7,-3,-8,3,-8,0
14:49:29:196323,1,3,-12,8,-25,-16,2,-6
14:49:29:197085,1,3,-12,8,-25,-16,2,-6
14:49:29:203074,3,-6,6,-6,6,3,13,-12
14:49:29:210585,-5,-14,58,13,3,-6,-15,-19
14:49:29:218106,-5,-14,58,13,3,-6,-15,-19
14:49:29:225585,1,-4,3,-4,-9,-35,-14,5
14:49:29:233769,-5,15,27,5,3,-1,-1,2
14:49:29:234540,-5,15,27,5,3,-1,-1,2
14:49:29:240551,5,-1,7,0,33,13,9,9
14:49:29:256201,-5,0,-11,-12,-15,-4,10,15
14:49:29:257032,-5,0,-11,-12,-15,-4,10,15
14:49:29:263151,-1,-4,-6,10,10,1,-3,9
14:49:29:270614,-8,-7,30,2,-5,5,10,-11
14:49:29:278103,-8,-7,30,2,-5,5,10,-11
14:49:29:285617,-3,1,12,-15,-21,-21,-6,-2
14:49:29:301926,4,0,2,18,36,7,24,9
14:49:29:302777,4,0,2,18,36,7,24,9
14:49:29:303562,-21,-4,-4,-12,8,9,10,6
14:49:29:316537,-5,-2,2,-15,-26,-5,-23,9
14:49:29:317126,-5,-2,2,-15,-26,-5,-23,9
14:49:29:323146,-1,4,15,27,31,17,-6,16
14:49:29:338816,12,-10,-37,-4,-6,-1,-7,-3
14:49:29:339662,12,-10,-37,-4,-6,-1,-7,-3
14:49:29:345591,-5,-2,-16,18,-11,-14,-3,-3
14:49:29:361993,1,-5,-2,4,-2,1,35,0
14:49:29:362737,1,-5,-2,4,-2,1,35,0
14:49:29:363611,5,-5,25,1,25,5,3,-10
14:49:29:376311,2,2,-17,4,-9,-5,5,-1
14:49:29:377111,2,2,-17,4,-9,-5,5,-1
14:49:29:383072,12,3,-9,2,9,17,27,7
14:49:29:390649,-7,10,9,2,26,7,-1,-6
14:49:29:398181,-7,10,9,2,26,7,-1,-6
14:49:29:405552,3,1,27,-9,-19,-16,-42,-13
14:49:29:413785,6,6,-5,6,9,0,-12,6
14:49:29:414692,6,6,-5,6,9,0,-12,6
14:49:29:420564,-17,3,19,10,-21,-2,-21,-26
14:49:29:436323,-4,-11,-16,-17,6,1,-14,12
14:49:29:437082,-4,-11,-16,-17,6,1,-14,12
14:49:29:443091,0,-8,-2,-9,-1,5,-6,-1
14:49:29:458789,-6,-4,-7,-14,-11,-16,-9,-7
14:49:29:459588,-6,-4,-7,-14,-11,-16,-9,-7
14:49:29:465563,0,4,-10,13,12,-2,-11,-2
14:49:29:473821,-11,-9,-61,-18,-8,-6,-7,-8
14:49:29:474570,-11,-9,-61,-18,-8,-6,-7,-8
14:49:29:480526,7,-2,14,-1,-31,7,44,12
14:49:29:496266,8,4,-8,8,-9,24,5,-2
14:49:29:497053,8,4,-8,8,-9,24,5,-2
14:49:29:503042,0,-6,-56,-9,25,13,-3,-6
14:49:29:510505,7,8,10,-8,-12,-26,-11,-9
14:49:29:518150,7,8,10,-8,-12,-26,-11,-9
14:49:29:534429,-2,6,15,0,29,12,-18,2
14:49:29:535279,-12,6,18,16,-31,-9,-6,-11
14:49:29:536099,-12,6,18,16,-31,-9,-6,-11
14:49:29:540564,5,-2,-31,-27,-5,2,13,1
14:49:29:556217,5,2,5,-9,20,2,10,-3
14:49:29:557050,5,2,5,-9,20,2,10,-3
14:49:29:563060,-7,-8,-10,-26,-31,-13,-21,1
14:49:29:578799,6,3,22,14,20,5,1,2
14:49:29:579621,6,3,22,14,20,5,1,2
14:49:29:585590,0,-2,-8,-6,19,-4,-16,-7
14:49:29:593754,5,8,55,-2,-11,12,18,3
14:49:29:594588,5,8,55,-2,-11,12,18,3
14:49:29:600565,-3,-6,4,24,-3,-13,4,-5
14:49:29:616295,-5,-11,-12,-19,2,-5,13,24
14:49:29:617084,-5,-11,-12,-19,2,-5,13,24
14:49:29:623061,-6,-1,11,8,10,11,31,9
14:49:29:630525,7,0,-9,-3,-3,4,12,12
14:49:29:638132,7,0,-9,-3,-3,4,12,12
14:49:29:645571,-14,0,-7,10,-20,-5,-3,-9
14:49:29:653782,-9,-2,-8,12,4,7,-16,-21
14:49:29:654580,-9,-2,-8,12,4,7,-16,-21
14:49:29:660520,8,5,-11,-6,-17,-7,2,2
14:49:29:676237,-3,-2,-1,-10,-6,-5,-22,-12
14:49:29:677088,-3,-2,-1,-10,-6,-5,-22,-12
14:49:29:683027,-1,-8,-24,3,3,4,-13,0
14:49:29:698730,3,-12,-26,-8,23,13,5,-5
14:49:29:699553,3,-12,-26,-8,23,13,5,-5
14:49:29:705503,-4,-7,32,-9,-9,-12,-20,3
14:49:29:713772,-10,-3,-7,0,-19,-8,23,1
14:49:29:714578,-10,-3,-7,0,-19,-8,23,1
14:49:29:720530,-20,-14,-3,-6,-12,1,10,10
14:49:29:736734,0,5,21,-2,-25,-36,-19,-17
14:49:29:737542,0,5,21,-2,-25,-36,-19,-17
14:49:29:743049,14,23,42,-1,16,14,32,-2
14:49:29:758771,1,-12,9,5,-20,-7,-26,8
14:49:29:759568,1,-12,9,5,-20,-7,-26,8
14:49:29:765595,8,-7,26,-3,42,1,-2,4
14:49:29:773739,-1,17,10,3,-10,-9,-7,-2
14:49:29:774561,-1,17,10,3,-10,-9,-7,-2
14:49:29:788113,0,-7,-35,9,27,24,4,9
14:49:29:796238,-18,3,16,-4,18,5,16,-11
14:49:29:797029,-18,3,16,-4,18,5,16,-11
14:49:29:803050,-12,0,-45,-17,-47,-27,-18,-2
14:49:29:818745,7,1,6,19,20,14,23,20
14:49:29:819596,7,1,6,19,20,14,23,20
14:49:29:825578,4,-2,-20,-26,-16,-15,-8,-11
14:49:29:833765,0,-3,-14,-1,3,-2,-18,6
14:49:29:834552,0,-3,-14,-1,3,-2,-18,6
14:49:29:856953,8,7,20,4,-25,-2,6,2
14:49:29:857752,3,-1,-25,0,5,14,-5,-9
14:49:29:858573,3,-1,-25,0,5,14,-5,-9
14:49:29:863134,-1,3,10,4,2,-10,6,-6
14:49:29:878799,-13,5,38,8,26,15,5,-8
14:49:29:879604,-13,5,38,8,26,15,5,-8
14:49:29:885565,15,8,61,13,18,0,-2,-17
14:49:29:893810,4,-2,-36,-9,-20,-15,5,9
14:49:29:894618,4,-2,-36,-9,-20,-15,5,9
14:49:29:916927,-11,8,15,34,25,4,6,-15
14:49:29:917732,3,-3,2,-2,-12,-8,-14,-2
14:49:29:918549,3,-3,2,-2,-12,-8,-14,-2
14:49:29:923029,0,-3,-25,-3,-16,-5,-23,-1
14:49:29:938739,9,4,8,-9,5,6,3,7
14:49:29:939545,9,4,8,-9,5,6,3,7
14:49:29:945632,-3,-11,-15,-7,0,0,15,8
14:49:29:953768,-9,-5,-21,-26,-10,3,4,2
14:49:29:954629,-9,-5,-21,-26,-10,3,4,2
14:49:29:976938,-11,-7,-14,3,4,-9,-10,-4
14:49:29:977735,-6,-6,-4,-6,18,1,12,-4
14:49:29:978615,-6,-6,-4,-6,18,1,12,-4
14:49:29:983062,-3,-6,-10,-3,-26,19,-5,7
14:49:29:998792,7,3,3,15,7,6,0,4
14:49:29:999605,7,3,3,15,7,6,0,4
14:49:30:14448,7,-9,4,-24,-32,-36,-3,14
14:49:30:15247,-16,-3,1,10,27,7,-13,-13
14:49:30:16050,-16,-3,1,10,27,7,-13,-13
14:49:30:28111,6,6,58,8,3,9,-4,-14
14:49:30:36248,0,-4,15,17,-17,-11,-9,-6
14:49:30:37043,0,-4,15,17,-17,-11,-9,-6
14:49:30:43037,4,6,-25,-35,12,19,21,14
14:49:30:58776,7,10,-8,-23,-9,-4,21,2
14:49:30:59605,7,10,-8,-23,-9,-4,21,2
14:49:30:65600,0,-8,-26,3,-4,7,1,-6
14:49:30:81231,0,-8,-26,3,-4,7,1,-6
14:49:30:82012,9,-4,-53,-14,-12,1,20,24
14:49:30:88074,-7,-6,16,25,6,12,-22,-7
14:49:30:96253,-7,-6,16,25,6,12,-22,-7
14:49:30:97057,-9,-9,14,2,7,-10,5,-5
14:49:30:103008,2,4,-2,-6,-13,-18,-31,-5
14:49:30:118743,2,4,-2,-6,-13,-18,-31,-5
14:49:30:119525,3,7,3,-13,-16,-1,-18,-9
14:49:30:133777,0,4,10,13,8,-8,-1,0
14:49:30:134592,0,4,10,13,8,-8,-1,0
14:49:30:140606,-4,-4,5,-15,22,12,1,-7
14:49:30:148085,-17,-2,11,6,7,3,10,13
14:49:30:156215,-17,-2,11,6,7,3,10,13
14:49:30:157001,-11,4,30,26,-3,-13,-11,0
14:49:30:163044,1,6,-13,-4,-6,-12,1,-5
14:49:30:178802,1,6,-13,-4,-6,-12,1,-5
14:49:30:179559,3,-10,32,21,21,13,-5,-3
14:49:30:185620,0,-1,-62,-9,-6,-14,-14,-7
14:49:30:193088,0,-1,-62,-9,-6,-14,-14,-7
14:49:30:200588,14,10,19,6,-11,-14,-1,-16
14:49:30:208067,2,1,8,-1,1,-7,30,11
14:49:30:216236,2,1,8,-1,1,-7,30,11
14:49:30:217093,-4,-11,-9,1,-34,-21,-5,-3
14:49:30:223018,-4,2,-13,-9,32,28,-13,22
14:49:30:238821,-4,2,-13,-9,32,28,-13,22
14:49:30:239579,1,-16,16,34,0,-3,-7,7
14:49:30:253738,9,-10,-75,-46,4,16,48,-1
14:49:30:254555,9,-10,-75,-46,4,16,48,-1
14:49:30:260570,-2,0,-36,5,9,-1,0,-2
14:49:30:268083,4,-6,37,10,-3,-10,-16,-7
14:49:30:276242,4,-6,37,10,-3,-10,-16,-7
14:49:30:277045,-3,1,-8,-19,-8,1,-18,-3
14:49:30:283063,-4,-9,-12,1,-4,-4,0,-6
14:49:30:298813,-4,-9,-12,1,-4,-4,0,-6
14:49:30:299587,-5,-9,-42,4,-19,0,-24,-10
14:49:30:305576,-3,-2,19,-25,-31,2,9,8
14:49:30:313093,-3,-2,19,-25,-31,2,9,8
14:49:30:320605,1,0,10,-5,4,3,22,20
14:49:30:328081,-20,8,32,4,-9,-11,-2,-22
14:49:30:336310,-20,8,32,4,-9,-11,-2,-22
14:49:30:337080,-8,1,1,-7,1,0,-13,2
14:49:30:342990,9,-1,11,-3,-4,-10,22,-12
14:49:30:358804,9,-1,11,-3,-4,-10,22,-12
14:49:30:359600,2,6,-53,-15,1,-1,5,-4
14:49:30:373757,4,20,-33,48,9,0,-7,-2
14:49:30:374530,4,20,-33,48,9,0,-7,-2
14:49:30:380546,4,15,36,-13,-6,-1,4,2
14:49:30:388119,-3,-2,13,17,4,6,-4,3
14:49:30:396247,-3,-2,13,17,4,6,-4,3
14:49:30:397084,5,-9,-5,-17,-7,6,11,-11
14:49:30:403032,0,0,61,16,7,1,-27,-9
14:49:30:418768,0,0,61,16,7,1,-27,-9
14:49:30:419553,3,19,21,-18,-3,7,-6,6
14:49:30:425585,-4,-27,-51,-34,-33,-29,-10,-6
14:49:30:433743,-4,-27,-51,-34,-33,-29,-10,-6
14:49:30:434582,-1,5,-23,-4,36,6,-25,-6
14:49:30:448067,-15,-2,-41,-14,15,2,-30,-5
14:49:30:456213,-15,-2,-41,-14,15,2,-30,-5
14:49:30:457007,-8,-7,-21,6,-8,4,12,0
14:49:30:463135,0,13,-24,9,-5,1,16,-2
14:49:30:478809,0,13,-24,9,-5,1,16,-2
14:49:30:479604,0,-2,2,-9,-2,-3,-21,4
14:49:30:494453,7,-4,-13,20,18,17,8,13
14:49:30:495270,7,-4,-13,20,18,17,8,13
14:49:30:496086,1,-7,-16,5,-17,-18,8,1
14:49:30:508022,1,-10,9,6,5,0,-8,-8
14:49:30:516288,1,-10,9,6,5,0,-8,-8
14:49:30:517081,5,-10,-8,-2,11,10,21,3
14:49:30:530505,0,2,26,-8,10,6,6,9
14:49:30:538822,0,2,26,-8,10,6,6,9
14:49:30:539622,-3,0,21,6,-18,-2,-30,-21
14:49:30:545548,5,10,26,8,-3,-13,-43,-2
14:49:30:553794,5,10,26,8,-3,-13,-43,-2
14:49:30:554552,-10,-11,-70,-11,-6,-23,-7,13
14:49:30:568065,-1,6,27,-5,-5,1,-2,-4
14:49:30:576265,-1,6,27,-5,-5,1,-2,-4
14:49:30:577055,-7,-13,5,-7,-8,-5,10,-7
14:49:30:583048,2,-4,-20,-35,1,2,-21,-19
14:49:30:598758,2,-4,-20,-35,1,2,-21,-19
14:49:30:599583,11,5,22,5,6,-1,-9,4
14:49:30:605531,1,-9,53,-17,-17,-9,7,9
14:49:30:613792,1,-9,53,-17,-17,-9,7,9
14:49:30:614546,3,-5,19,23,12,9,40,7
14:49:30:628033,-8,-15,-8,2,-9,9,21,-2
14:49:30:636318,-8,-15,-8,2,-9,9,21,-2
14:49:30:637036,-4,2,5,14,9,4,-11,0
14:49:30:650674,-17,2,-18,-1,-31,-23,11,1
14:49:30:658770,-17,2,-18,-1,-31,-23,11,1
14:49:30:659625,4,-3,6,19,45,28,-14,-4
14:49:30:665601,6,4,13,6,-2,-5,-7,4
14:49:30:673138,6,4,13,6,-2,-5,-7,4
14:49:30:680542,0,15,32,-8,-6,-2,6,-6
14:49:30:688046,7,-4,-17,-5,17,11,11,9
14:49:30:696279,7,-4,-17,-5,17,11,11,9
14:49:30:697053,-14,-5,17,14,-24,-10,-8,-11
14:49:30:710519,-5,2,14,23,5,8,32,5
14:49:30:718794,-5,2,14,23,5,8,32,5
14:49:30:719611,0,-2,23,-11,-5,1,-16,-3
14:49:30:725554,-2,0,-28,-1,1,-8,-45,-18
14:49:30:741284,-2,0,-28,-1,1,-8,-45,-18
14:49:30:742072,3,-13,9,-1,29,8,29,11
14:49:30:748006,7,24,18,-5,12,7,0,19
14:49:30:756238,7,24,18,-5,12,7,0,19
14:49:30:757049,-5,4,-47,-13,-18,-19,-47,-4
14:49:30:771022,4,-2,9,-15,0,6,31,-8
14:49:30:778761,4,-2,9,-15,0,6,31,-8
14:49:30:779569,-1,-5,6,-4,-11,-10,1,-3
14:49:30:785576,-7,-10,7,-7,0,-9,-45,-17
14:49:30:793168,-7,-10,7,-7,0,-9,-45,-17
14:49:30:800599,4,-5,-15,-1,9,-1,-5,1
14:49:30:808023,-1,-2,-13,-6,-34,-7,18,12
14:49:30:816326,-1,-2,-13,-6,-34,-7,18,12
14:49:30:817099,-9,5,18,-4,-16,-5,3,4
14:49:30:830520,-4,6,-23,-2,9,-1,3,-13
14:49:30:838830,-4,6,-23,-2,9,-1,3,-13
14:49:30:839618,-3,-6,-16,-12,-18,-4,-9,-17
14:49:30:845594,0,-9,22,-3,16,30,-11,2
14:49:30:853109,0,-9,22,-3,16,30,-11,2
14:49:30:861716,-1,2,-78,-2,-12,0,-3,-9
14:49:30:868070,4,-3,-24,-6,-14,-14,1,-4
14:49:30:876313,4,-3,-24,-6,-14,-14,1,-4
14:49:30:877126,-18,9,18,12,17,5,28,33
14:49:30:890634,-15,-16,-30,-18,-19,-16,-12,-7
14:49:30:898792,-15,-16,-30,-18,-19,-16,-12,-7
14:49:30:899556,12,-10,-5,-2,2,-7,41,-6
14:49:30:905520,3,2,27,-5,16,12,21,0
14:49:30:913179,3,2,27,-5,16,12,21,0
14:49:30:928736,7,8,21,-3,-17,-5,-13,2
14:49:30:929543,-17,10,35,29,15,0,-9,-14
14:49:30:936329,-17,10,35,29,15,0,-9,-14
14:49:30:937072,1,1,8,-6,-2,-3,-28,-12
14:49:30:950578,10,-4,-9,14,-13,-2,33,8
14:49:30:958778,10,-4,-9,14,-13,-2,33,8
14:49:30:959633,-5,2,-25,15,10,-6,-40,-25
14:49:30:965559,-12,-7,2,8,15,-1,46,8
14:49:30:973130,-12,-7,2,8,15,-1,46,8
14:49:30:980547,4,1,-25,-4,-11,-5,-10,-4
14:49:30:988119,0,-1,3,1,-7,-3,-19,-1
14:49:30:996250,0,-1,3,1,-7,-3,-19,-1
14:49:30:997046,0,-13,24,2,-15,-9,43,21
14:49:31:10561,5,-1,-1,-18,25,15,-5,-3
14:49:31:26936,5,-1,-1,-18,25,15,-5,-3
14:49:31:27696,-5,-4,-13,-8,-4,7,-4,-3
14:49:31:28498,8,-3,-14,7,15,18,-6,-7
14:49:31:33148,8,-3,-14,7,15,18,-6,-7
14:49:31:48734,0,-1,24,10,-19,-7,-1,-2
14:49:31:49492,-3,-18,-45,-19,-4,-16,-18,-3
14:49:31:56246,-3,-18,-45,-19,-4,-16,-18,-3
14:49:31:57041,-3,0,-24,-24,-1,-11,-4,0
14:49:31:70604,10,-3,2,-3,1,0,-40,-3
14:49:31:78765,10,-3,2,-3,1,0,-40,-3
14:49:31:79565,1,-7,25,-1,0,12,-14,-7
14:49:31:85540,-5,4,8,14,5,6,5,-4
14:49:31:93101,-5,4,8,14,5,6,5,-4
14:49:31:100562,2,8,32,14,8,4,-9,-8
14:49:31:108046,0,2,-20,7,10,-1,-1,-3
14:49:31:116298,0,2,-20,7,10,-1,-1,-3
14:49:31:117074,-8,7,9,-17,-8,-5,2,-3
14:49:31:130512,0,-4,10,-3,4,-20,-35,-18
14:49:31:138883,0,-4,10,-3,4,-20,-35,-18
14:49:31:139602,13,13,18,2,13,19,-5,7
14:49:31:145559,-3,14,21,-16,-29,-8,19,1
14:49:31:153133,-3,14,21,-16,-29,-8,19,1
14:49:31:160548,-1,0,-4,3,-15,-6,-8,-1
14:49:31:168082,8,-9,-12,-7,8,3,5,3
14:49:31:176305,8,-9,-12,-7,8,3,5,3
14:49:31:177116,1,-5,-33,-28,15,12,-4,-15
14:49:31:190591,3,-8,-27,15,-37,-11,9,6
14:49:31:198766,3,-8,-27,15,-37,-11,9,6
14:49:31:199597,6,-4,-9,-1,-10,2,22,18
14:49:31:205545,15,-2,-16,2,-10,-23,-4,3
14:49:31:213191,15,-2,-16,2,-10,-23,-4,3
14:49:31:220613,-6,-4,-26,7,23,-1,10,19
14:49:31:228122,-5,14,-7,-6,10,4,8,21
14:49:31:236291,-5,14,-7,-6,10,4,8,21
14:49:31:237037,-2,-4,2,-5,-6,-13,3,3
14:49:31:250557,-9,-3,37,29,5,3,-25,-8
14:49:31:258815,-9,-3,37,29,5,3,-25,-8
14:49:31:259622,-9,-3,45,30,-2,-17,13,-8
14:49:31:265570,-1,-6,14,-4,-1,6,17,20
14:49:31:273107,-1,-6,14,-4,-1,6,17,20
14:49:31:280579,-1,2,6,-14,-16,-7,-16,-4
14:49:31:288102,-4,0,12,9,10,7,-21,-8
14:49:31:296258,-4,0,12,9,10,7,-21,-8
14:49:31:297017,-2,-7,-41,-7,8,6,7,-3
14:49:31:310612,-5,-15,-33,-10,-9,8,12,1
14:49:31:327005,-5,-15,-33,-10,-9,8,12,1
14:49:31:327753,-3,8,1,-10,2,-2,2,-1
14:49:31:328559,2,18,-6,-13,-31,-6,-3,-3
14:49:31:333135,2,18,-6,-13,-31,-6,-3,-3
14:49:31:340579,3,-6,25,10,30,34,-25,6
14:49:31:348056,2,5,17,9,-4,-7,13,-11
14:49:31:356249,2,5,17,9,-4,-7,13,-11
14:49:31:357063,-10,-4,-7,4,13,7,-4,5
14:49:31:370583,-3,-2,36,1,-11,-1,-5,0
14:49:31:378751,-3,-2,36,1,-11,-1,-5,0
14:49:31:379540,7,-13,4,2,-12,-9,45,3
14:49:31:385575,-12,-13,-22,-8,-12,-7,14,5
14:49:31:393095,-12,-13,-22,-8,-12,-7,14,5
14:49:31:400583,1,6,-36,-31,-3,2,-24,-10
14:49:31:408060,1,8,18,-5,20,4,-10,-4
14:49:31:416257,1,8,18,-5,20,4,-10,-4
14:49:31:417034,-4,14,-8,-9,-7,-3,3,6
14:49:31:430582,-6,3,6,6,-5,-4,-8,3
14:49:31:446988,-6,3,6,6,-5,-4,-8,3
14:49:31:447763,3,7,29,32,19,5,-7,-2
14:49:31:448565,11,-10,-12,-16,4,-15,-5,-5
14:49:31:453147,11,-10,-12,-16,4,-15,-5,-5
14:49:31:460548,6,11,28,1,28,15,15,0
14:49:31:468104,-6,-22,-89,-32,-13,-19,2,-7
14:49:31:476250,-6,-22,-89,-32,-13,-19,2,-7
14:49:31:477060,-9,3,12,9,-23,-15,-9,-8
14:49:31:490623,2,-2,23,3,-5,0,-26,-10
14:49:31:498714,2,-2,23,3,-5,0,-26,-10
14:49:31:499519,1,-31,-70,23,15,-1,-13,-3
14:49:31:505567,-9,4,-47,-9,-10,-7,-19,-3
14:49:31:513082,-9,4,-47,-9,-10,-7,-19,-3
14:49:31:520538,-5,-8,20,0,-20,1,-11,-5
14:49:31:528089,-9,6,1,8,10,19,-6,-5
14:49:31:536295,-9,6,1,8,10,19,-6,-5
14:49:31:537056,-2,-2,-14,-23,-18,-8,69,13
14:49:31:550595,1,14,7,0,8,8,20,-12
14:49:31:566883,1,14,7,0,8,8,20,-12
14:49:31:567714,-5,11,11,-12,-14,-14,4,-7
14:49:31:568472,0,0,76,11,5,1,-11,3
14:49:31:573070,0,0,76,11,5,1,-11,3
14:49:31:580552,6,-20,-12,-12,6,-3,-15,1
14:49:31:588140,5,11,-12,19,20,2,9,13
14:49:31:596280,5,11,-12,19,20,2,9,13
14:49:31:597056,-16,5,-39,-23,-15,-12,-9,-8
14:49:31:610573,-7,-21,-8,4,22,7,1,2
14:49:31:618761,-7,-21,-8,4,22,7,1,2
14:49:31:619587,1,-4,57,12,6,23,-18,-7
14:49:31:633716,2,15,44,-3,-15,-2,1,8
14:49:31:634551,2,15,44,-3,-15,-2,1,8
14:49:31:640582,6,1,37,0,-20,-11,16,-2
14:49:31:648097,6,2,5,15,-13,-4,12,15
14:49:31:655558,6,2,5,15,-13,-4,12,15
14:49:31:663048,2,-7,6,-11,3,-1,-36,8
14:49:31:670572,-1,14,-33,-12,-24,0,-21,6
14:49:31:678768,-1,14,-33,-12,-24,0,-21,6
14:49:31:679576,3,-2,-32,7,1,-4,10,-20
14:49:31:694207,-14,-21,-12,8,25,-3,-15,-8
14:49:31:701289,-14,-21,-12,8,25,-3,-15,-8
14:49:31:702052,-6,12,66,10,-2,1,-16,-11
14:49:31:708069,18,-3,-6,21,0,30,-5,-13
14:49:31:723743,18,-3,-6,21,0,30,-5,-13
14:49:31:724534,3,-3,-12,-5,0,-3,9,5
14:49:31:730545,-1,-9,-35,-35,-17,-21,44,13
14:49:31:738808,-1,-9,-35,-35,-17,-21,44,13
14:49:31:739667,-5,-3,-12,-5,-1,-6,-13,8
14:49:31:753748,-6,-1,16,12,21,10,6,-12
14:49:31:754567,-6,-1,16,12,21,10,6,-12
14:49:31:760598,1,4,26,5,8,-4,-7,-2
14:49:31:768078,-5,-7,30,-3,-17,-21,-19,-5
14:49:31:775599,-5,-7,30,-3,-17,-21,-19,-5
14:49:31:783001,-2,-10,-40,-6,1,-7,-8,12
14:49:31:790594,-11,-2,6,11,10,4,-8,-19
14:49:31:798742,-11,-2,6,11,10,4,-8,-19
14:49:31:799540,-6,2,-8,-13,-13,-5,-4,8
14:49:31:813742,3,4,27,5,1,-20,20,4
14:49:31:814542,3,4,27,5,1,-20,20,4
14:49:31:820547,-4,-1,-11,-1,6,7,11,10
14:49:31:828041,-8,-20,-14,4,37,29,-20,-2
14:49:31:843782,-8,-20,-14,4,37,29,-20,-2
14:49:31:844568,7,-7,-34,-11,-14,-1,1,-6
14:49:31:850606,4,8,-7,-14,-28,-28,-12,-17
14:49:31:858737,4,8,-7,-14,-28,-28,-12,-17
14:49:31:859547,5,12,-21,-25,9,17,-6,-19
14:49:31:873731,-7,4,-31,-3,-3,8,-30,2
14:49:31:874548,-7,4,-31,-3,-3,8,-30,2
14:49:31:880503,5,5,58,-3,-8,-9,14,-7
14:49:31:888093,11,9,-3,-12,10,2,30,12
14:49:31:895649,11,9,-3,-12,10,2,30,12
14:49:31:903073,-4,-11,18,22,-16,-5,-4,-3
14:49:31:910508,-10,3,-6,24,17,-2,-1,5
14:49:31:918785,-10,3,-6,24,17,-2,-1,5
14:49:31:919588,-7,7,-10,7,-1,-14,2,-5
14:49:31:933714,3,13,-44,2,-13,12,-10,-3
