Time,EMG1,EMG2,EMG3,EMG4,EMG5,EMG6,EMG7,EMG8
16:28:56:25962,3,0,-1,-1,-1,-3,-4,-13
16:28:56:26836,3,0,-1,-1,-1,-3,-4,-13
16:28:56:32881,3,-1,-2,-1,-1,-1,0,4
16:28:56:40339,-5,-1,-2,0,0,0,-1,-14
16:28:56:47856,-5,-1,-2,0,0,0,-1,-14
16:28:56:55342,3,0,-1,-1,0,-1,-3,2
16:28:56:62849,-7,3,-2,-2,-3,0,-1,-15
16:28:56:70978,-7,3,-2,-2,-3,0,-1,-15
16:28:56:71839,-4,-4,-1,0,0,-2,-1,-11
16:28:56:85981,5,-2,0,1,-1,1,8,5
16:28:56:86822,5,-2,0,1,-1,1,8,5
16:28:56:92842,-12,0,-1,-2,-1,-1,-2,-1
16:28:56:100360,-1,-2,-3,-3,-2,-3,-5,1
16:28:56:107867,-1,-2,-3,-3,-2,-3,-5,1
16:28:56:115349,-12,-1,0,-1,-2,0,6,2
16:28:56:122821,6,-3,-3,0,-1,-1,-2,3
16:28:56:131083,6,-3,-3,0,-1,-1,-2,3
16:28:56:131822,-9,-2,-1,-1,0,0,-5,-3
16:28:56:145960,-2,10,-5,-5,-4,-3,3,4
16:28:56:146845,-2,10,-5,-5,-4,-3,3,4
16:28:56:152849,7,-4,-3,-3,-3,-3,-4,-8
16:28:56:160336,-3,-7,-1,2,1,0,-2,-3
16:28:56:167838,-3,-7,-1,2,1,0,-2,-3
16:28:56:175324,4,2,2,0,1,1,1,10
16:28:56:182804,-4,2,0,-3,-2,-3,-2,6
16:28:56:191133,-4,2,0,-3,-2,-3,-2,6
16:28:56:191822,-24,-6,-2,-3,-2,-4,-4,-22
16:28:56:214051,1,-4,-2,2,-1,-2,-2,-5
16:28:56:214964,1,-4,-2,2,-1,-2,-2,-5
16:28:56:215841,15,0,-4,-1,1,-1,0,16
16:28:56:220335,-3,-4,4,-1,1,-1,-3,-11
16:28:56:227839,-3,-4,4,-1,1,-1,-3,-11
16:28:56:235336,-2,-5,-2,-1,0,0,-4,5
16:28:56:242829,-6,-4,1,0,0,-1,0,17
16:28:56:250314,-6,-4,1,0,0,-1,0,17
16:28:56:257843,14,1,1,2,0,-1,2,3
16:28:56:265971,0,1,-1,1,-2,-1,-5,-6
16:28:56:266821,0,1,-1,1,-2,-1,-5,-6
16:28:56:272848,-3,1,-1,-1,-5,-2,-3,-3
16:28:56:288453,14,-2,-2,-4,0,-1,2,14
16:28:56:289350,14,-2,-2,-4,0,-1,2,14
16:28:56:295324,20,2,0,0,0,1,-1,4
16:28:56:302857,0,0,-3,1,-1,-1,0,1
16:28:56:310360,0,0,-3,1,-1,-1,0,1
16:28:56:317824,-28,0,-1,-1,-1,1,6,0
16:28:56:325987,8,-3,0,-2,-2,-2,-5,-12
16:28:56:326837,8,-3,0,-2,-2,-2,-5,-12
16:28:56:332855,2,1,0,0,0,-1,-1,2
16:28:56:348459,-11,-1,-1,-1,0,1,0,-11
16:28:56:349337,-11,-1,-1,-1,0,1,0,-11
16:28:56:355322,-8,-2,0,-1,-2,-1,-4,-9
16:28:56:362839,12,3,1,0,-2,0,2,5
16:28:56:370321,12,3,1,0,-2,0,2,5
16:28:56:377827,8,4,-1,1,1,-1,-1,-2
16:28:56:385961,-2,-1,-3,-1,-1,0,1,1
16:28:56:386860,-2,-1,-3,-1,-1,0,1,1
16:28:56:392854,10,3,1,-2,0,-1,0,-3
16:28:56:408445,2,-2,1,0,0,-2,-3,-4
16:28:56:409332,2,-2,1,0,0,-2,-3,-4
16:28:56:415308,15,0,-5,-1,-3,-3,-7,-12
16:28:56:422835,-11,-3,-1,0,-3,-2,-5,-4
16:28:56:430334,-11,-3,-1,0,-3,-2,-5,-4
16:28:56:437843,2,-4,-2,-2,-2,-3,2,8
16:28:56:445970,2,3,0,-1,1,-1,0,-21
16:28:56:446842,2,3,0,-1,1,-1,0,-21
16:28:56:452850,-4,0,-3,-2,-2,-1,-4,-3
16:28:56:468494,-4,0,2,-2,0,0,-2,-3
16:28:56:469369,-4,0,2,-2,0,0,-2,-3
16:28:56:475318,20,-1,1,-1,-3,-3,0,2
16:28:56:482825,-1,-4,-4,-3,-2,-2,2,15
16:28:56:490307,-1,-4,-4,-3,-2,-2,2,15
16:28:56:497857,-7,-2,-3,-1,-1,1,1,7
16:28:56:505959,3,-3,-2,-1,-2,-2,-4,14
16:28:56:506837,3,-3,-2,-1,-2,-2,-4,14
16:28:56:512809,-1,-1,0,0,-1,0,-5,-21
16:28:56:528466,1,0,0,-1,-2,1,-1,-6
16:28:56:529336,1,0,0,-1,-2,1,-1,-6
16:28:56:535315,-12,1,-1,1,0,-1,-2,3
16:28:56:542842,-8,0,-1,-1,-2,-2,3,3
16:28:56:550357,-8,0,-1,-1,-2,-2,3,3
16:28:56:557854,-12,-3,-2,-2,-1,1,4,-15
16:28:56:566092,6,-2,-1,-2,0,-2,-1,-1
16:28:56:566805,6,-2,-1,-2,0,-2,-1,-1
16:28:56:572810,13,-2,-1,0,-2,-3,-4,8
16:28:56:588439,-40,-3,-1,1,-2,1,1,-11
16:28:56:589308,-40,-3,-1,1,-2,1,1,-11
16:28:56:595366,-4,1,1,0,-1,-2,1,2
16:28:56:610948,5,2,1,-3,0,0,-1,0
16:28:56:611883,5,2,1,-3,0,0,-1,0
16:28:56:617837,-5,-1,1,-2,0,1,-1,8
16:28:56:625964,9,1,1,-1,0,-1,3,-14
16:28:56:626837,9,1,1,-1,0,-1,3,-14
16:28:56:632836,-8,-4,-2,-2,-1,-1,3,-7
16:28:56:648456,-2,-1,-4,-1,-2,-3,-2,0
16:28:56:649366,-2,-1,-4,-1,-2,-3,-2,0
16:28:56:655368,-4,-5,-1,-2,0,-1,0,-2
16:28:56:662840,14,-3,-2,0,-2,-1,-4,6
16:28:56:670330,14,-3,-2,0,-2,-1,-4,6
16:28:56:677830,-37,-6,0,-1,-1,-2,-2,0
16:28:56:686012,7,-2,-2,-1,2,-1,2,4
16:28:56:686872,7,-2,-2,-1,2,-1,2,4
16:28:56:692879,-3,1,-3,-1,-3,-1,-1,0
16:28:56:716725,-4,-2,-1,-2,-2,-2,-3,0
16:28:56:717495,-4,-2,-1,-2,-2,-2,-3,0
16:28:56:718361,12,2,-1,-2,-2,0,-2,1
16:28:56:722857,0,-2,-1,1,-1,0,-2,3
16:28:56:730357,0,-2,-1,1,-1,0,-2,3
16:28:56:737862,0,3,1,-2,0,-1,-1,-1
16:28:56:745950,-3,0,1,-1,-2,0,0,5
16:28:56:746871,-3,0,1,-1,-2,0,0,5
16:28:56:752861,-1,-2,-2,1,-1,-1,-3,-9
16:28:56:768970,-20,-2,0,0,0,-1,-6,-26
16:28:56:769707,-20,-2,0,0,0,-1,-6,-26
16:28:56:775329,-2,0,-1,-1,-1,1,-3,1
16:28:56:782853,-15,0,0,-1,1,0,1,3
16:28:56:790335,-15,0,0,-1,1,0,1,3
16:28:56:797831,2,-1,0,0,-3,-2,3,0
16:28:56:805967,10,2,0,0,0,2,1,-10
16:28:56:806818,10,2,0,0,0,2,1,-10
16:28:56:812832,9,-1,0,-2,0,-2,1,10
16:28:56:828488,5,-3,-3,-1,0,-1,-1,5
16:28:56:829320,5,-3,-3,-1,0,-1,-1,5
16:28:56:835352,0,-2,-1,-1,0,-2,-2,-4
16:28:56:842832,2,1,-1,-1,-1,-3,-1,-1
16:28:56:850343,2,1,-1,-1,-1,-3,-1,-1
16:28:56:857859,-3,-2,0,-3,0,-2,3,0
16:28:56:865940,18,-1,-2,-2,-1,0,-2,-2
16:28:56:866833,18,-1,-2,-2,-1,0,-2,-2
16:28:56:880386,-7,-2,-2,2,0,1,-2,-5
16:28:56:888467,-8,-1,-2,-1,1,-2,0,4
16:28:56:889337,-8,-1,-2,-1,1,-2,0,4
16:28:56:895365,-5,-2,-1,-1,-1,1,-1,-6
16:28:56:902883,1,0,-1,0,-2,-2,-3,-8
16:28:56:910364,1,0,-1,0,-2,-2,-3,-8
16:28:56:917855,-3,1,-3,-1,1,-1,1,-6
16:28:56:926006,5,-2,-1,-1,-3,-2,-2,3
16:28:56:926826,5,-2,-1,-1,-3,-2,-2,3
16:28:56:932855,12,-1,0,-1,-1,-1,1,1
16:28:56:948441,-14,-1,-2,0,-1,-2,4,2
16:28:56:949313,-14,-1,-2,0,-1,-2,4,2
16:28:56:955318,2,0,-1,0,0,0,-2,2
16:28:56:962846,-6,-1,-1,-1,-3,-2,-3,3
16:28:56:970345,-6,-1,-1,-1,-3,-2,-3,3
16:28:56:977826,-2,-3,-5,-4,-5,-4,-5,-1
16:28:56:985953,-2,4,0,-2,-2,1,-1,1
16:28:56:986849,-2,4,0,-2,-2,1,-1,1
16:28:56:992828,-9,-1,-1,-2,-1,0,-1,-2
16:28:57:8475,4,-3,-2,-1,0,0,-2,-7
16:28:57:9330,4,-3,-2,-1,0,0,-2,-7
16:28:57:15329,13,-1,0,-2,-1,-1,-1,4
16:28:57:30952,13,-1,0,-2,-1,-1,-1,4
16:28:57:31854,8,0,-1,-1,-2,0,0,2
16:28:57:46580,0,-7,-3,-2,-2,-2,2,16
16:28:57:47474,0,-7,-3,-2,-2,-2,2,16
16:28:57:48324,-10,-2,-2,-2,-1,-2,-2,6
16:28:57:52826,-5,-2,-1,1,-2,-3,-1,2
16:28:57:68454,-5,-2,-1,1,-2,-3,-1,2
16:28:57:69318,-9,-1,-1,-1,-1,0,1,-1
16:28:57:75332,-14,-1,-1,-1,2,3,-3,-44
16:28:57:90989,-14,-1,-1,-1,2,3,-3,-44
16:28:57:91825,-6,0,-2,-1,-1,-2,-3,-11
16:28:57:97833,-2,2,-1,0,-4,-1,1,10
16:28:57:106005,-2,2,-1,0,-4,-1,1,10
16:28:57:106851,0,-2,-3,0,3,3,-2,-3
16:28:57:112759,-6,0,0,0,-1,-1,-1,3
16:28:57:128512,-6,0,0,0,-1,-1,-1,3
16:28:57:129336,7,0,-1,-1,0,-2,1,5
16:28:57:135375,-10,0,1,1,-1,-5,-1,7
16:28:57:151118,-10,0,1,1,-1,-5,-1,7
16:28:57:151861,-3,-2,-2,-2,0,2,1,-1
16:28:57:157899,4,4,4,-1,3,0,-1,3
16:28:57:165986,4,4,4,-1,3,0,-1,3
16:28:57:166855,-1,-15,-2,-3,-1,-2,-3,0
16:28:57:172854,5,-7,-7,-2,-3,0,-2,0
16:28:57:188600,5,-7,-7,-2,-3,0,-2,0
16:28:57:189366,4,19,13,2,0,-2,0,-3
16:28:57:195398,4,11,15,1,2,0,-1,-3
16:28:57:219241,4,11,15,1,2,0,-1,-3
16:28:57:220026,-1,3,7,-6,0,0,-2,3
16:28:57:220879,1,6,6,-11,-13,-2,-3,-2
16:28:57:225980,1,6,6,-11,-13,-2,-3,-2
16:28:57:226861,1,-11,-26,5,4,1,0,-2
16:28:57:240379,1,-1,0,13,4,1,-2,-3
16:28:57:248493,1,-1,0,13,4,1,-2,-3
16:28:57:249374,0,0,-12,7,-1,-3,-3,-4
16:28:57:255352,-1,0,-5,-9,-1,0,0,-1
16:28:57:271006,-1,0,-5,-9,-1,0,0,-1
16:28:57:271861,-1,18,-9,7,1,-2,-2,0
16:28:57:277721,2,-5,-11,-3,0,1,-1,1
16:28:57:285999,2,-5,-11,-3,0,1,-1,1
16:28:57:286845,0,4,20,5,-1,0,0,1
16:28:57:300380,1,-12,-5,-5,-2,-2,-2,-2
16:28:57:308469,1,-12,-5,-5,-2,-2,-2,-2
16:28:57:309339,-1,-8,3,-10,-5,-2,0,-1
16:28:57:315360,1,10,1,4,1,-3,0,-3
16:28:57:330988,1,10,1,4,1,-3,0,-3
16:28:57:331844,-5,-18,28,-9,-7,-2,-4,1
16:28:57:337728,-6,-12,-19,3,0,-2,-3,-1
16:28:57:345985,-6,-12,-19,3,0,-2,-3,-1
16:28:57:346850,-1,9,-2,5,6,-1,-2,-1
16:28:57:360357,-1,-5,-13,-62,-21,2,0,-2
16:28:57:368470,-1,-5,-13,-62,-21,2,0,-2
16:28:57:369349,3,1,-5,5,-1,1,0,0
16:28:57:375380,1,-3,-5,18,4,-2,0,-2
16:28:57:390980,1,-3,-5,18,4,-2,0,-2
16:28:57:391833,4,16,4,6,4,1,1,-1
16:28:57:406586,4,22,16,4,2,1,0,2
16:28:57:407435,4,22,16,4,2,1,0,2
16:28:57:408320,-4,-5,9,2,-2,-2,2,-3
16:28:57:420331,-6,-39,20,11,1,-2,1,1
16:28:57:428586,-6,-39,20,11,1,-2,1,1
16:28:57:429325,2,-7,-11,-12,-7,-2,-3,-2
16:28:57:442828,2,20,-23,7,6,0,-1,0
16:28:57:451024,2,20,-23,7,6,0,-1,0
16:28:57:451867,-4,-34,10,-7,-6,-2,-2,-1
16:28:57:457841,-1,4,20,9,0,-1,0,-2
16:28:57:466766,-1,4,20,9,0,-1,0,-2
16:28:57:467483,-5,4,12,-3,-2,-2,-3,-3
16:28:57:480382,-9,-23,9,-1,-6,-4,-4,-2
16:28:57:488491,-9,-23,9,-1,-6,-4,-4,-2
16:28:57:489358,-4,-21,4,1,-1,0,2,0
16:28:57:495335,-3,25,-16,-3,-3,-1,-1,4
16:28:57:510958,-3,25,-16,-3,-3,-1,-1,4
16:28:57:511851,-13,-57,-10,-12,-4,-3,-1,-8
16:28:57:517834,9,-12,-27,1,-5,-5,-1,4
16:28:57:525961,9,-12,-27,1,-5,-5,-1,4
16:28:57:526828,4,22,-3,-1,-1,2,2,2
16:28:57:540714,3,36,28,-8,1,1,-6,1
16:28:57:548464,3,36,28,-8,1,1,-6,1
16:28:57:549336,-11,-62,-72,-2,-4,-4,-4,0
16:28:57:555335,-2,9,13,-7,4,2,2,2
16:28:57:570987,-2,9,13,-7,4,2,2,2
16:28:57:571851,5,28,1,22,-2,-2,-3,5
16:28:57:577744,-6,-42,-41,2,1,-1,-1,-5
16:28:57:601598,-6,-42,-41,2,1,-1,-1,-5
16:28:57:602481,3,9,0,4,3,1,-1,4
16:28:57:603360,2,-10,20,15,0,0,0,-3
16:28:57:608505,2,-10,20,15,0,0,0,-3
16:28:57:609346,3,28,5,-2,3,-1,1,-1
16:28:57:615333,-5,-5,-11,-97,-28,-1,0,-1
16:28:57:631141,-5,-5,-11,-97,-28,-1,0,-1
16:28:57:631858,-4,8,-16,12,1,-4,0,-1
16:28:57:637863,-1,2,5,26,7,-1,-2,-4
16:28:57:645995,-1,2,5,26,7,-1,-2,-4
16:28:57:646864,3,16,2,-23,-2,-1,1,-3
16:28:57:669248,0,0,20,32,-3,-3,-2,-3
16:28:57:669992,0,0,20,32,-3,-3,-2,-3
16:28:57:670892,0,5,-13,-21,2,1,1,-2
16:28:57:675572,-5,-7,-26,-16,-3,-2,3,-2
16:28:57:690997,-5,-7,-26,-16,-3,-2,3,-2
16:28:57:691869,1,6,28,12,-7,-3,-1,-1
16:28:57:697879,-1,-3,9,13,8,-1,-3,-3
16:28:57:705964,-1,-3,9,13,8,-1,-3,-3
16:28:57:706859,-1,0,-17,8,-1,0,-4,-1
16:28:57:720356,1,10,9,32,9,1,-5,-2
16:28:57:728505,1,10,9,32,9,1,-5,-2
16:28:57:729372,2,4,11,-4,-2,0,-3,1
16:28:57:735344,1,-1,-9,-8,-3,0,1,-2
16:28:57:751021,1,-1,-9,-8,-3,0,1,-2
16:28:57:751885,1,6,2,-26,-6,-3,-3,-2
16:28:57:757748,0,1,-6,23,8,-1,-9,-2
16:28:57:766017,0,1,-6,23,8,-1,-9,-2
16:28:57:766863,-1,1,6,6,5,5,-2,6
16:28:57:780349,-1,8,1,28,3,-4,-4,1
16:28:57:788481,-1,8,1,28,3,-4,-4,1
16:28:57:789351,-4,-10,5,-6,-10,1,2,-2
16:28:57:802853,-3,-12,-44,-101,-21,0,0,-2
16:28:57:810958,-3,-12,-44,-101,-21,0,0,-2
16:28:57:811827,-1,3,-4,17,0,-1,1,-1
16:28:57:817820,0,0,11,33,6,-1,3,-2
16:28:57:825955,0,0,11,33,6,-1,3,-2
16:28:57:826827,0,3,5,-10,2,3,1,-1
16:28:57:840361,2,21,9,8,1,0,1,-2
16:28:57:848451,2,21,9,8,1,0,1,-2
16:28:57:849392,-2,7,19,16,-2,-6,-4,-4
16:28:57:855345,-2,-4,5,-3,-3,-1,1,2
16:28:57:870984,-2,-4,5,-3,-3,-1,1,2
16:28:57:871851,1,0,-7,-9,-6,-2,1,-2
16:28:57:877890,-3,-1,4,25,19,5,1,-2
16:28:57:885980,-3,-1,4,25,19,5,1,-2
16:28:57:886852,0,6,10,2,1,-6,-3,-2
16:28:57:900350,-1,-2,5,-51,-14,-1,1,1
16:28:57:908469,-1,-2,5,-51,-14,-1,1,1
16:28:57:909385,-4,-3,-9,-5,2,-1,-3,-1
16:28:57:915346,-1,-4,3,36,-1,-3,-2,-3
16:28:57:931087,-1,-4,3,36,-1,-3,-2,-3
16:28:57:931872,0,-6,-9,3,-2,-1,-1,-2
16:28:57:937887,-2,-2,3,-12,-3,-2,-2,-2
16:28:57:946002,-2,-2,3,-12,-3,-2,-2,-2
16:28:57:946881,-4,-11,-9,3,-2,-1,-2,-1
16:28:57:960339,-1,-7,-13,3,1,1,0,-1
16:28:57:968611,-1,-7,-13,3,1,1,0,-1
16:28:57:969356,0,5,-1,16,5,0,1,-1
16:28:57:975339,-1,-3,16,-15,-8,-1,1,1
16:28:57:990739,-1,-3,16,-15,-8,-1,1,1
16:28:57:998482,0,-3,-7,4,7,0,0,-3
16:28:57:999373,-1,-9,-6,23,12,-1,-2,-4
16:28:58:5998,-1,-9,-6,23,12,-1,-2,-4
16:28:58:6726,-2,3,-1,10,-2,-2,-2,0
16:28:58:20374,-2,0,-3,11,-4,-5,-2,-2
16:28:58:28498,-2,0,-3,11,-4,-5,-2,-2
16:28:58:29352,-1,-2,4,-37,-18,1,0,0
16:28:58:42859,-1,-4,-8,-8,4,1,0,-1
16:28:58:50991,-1,-4,-8,-8,4,1,0,-1
16:28:58:51872,-2,0,2,-5,-2,-1,3,-3
16:28:58:66627,-2,-14,0,-3,0,-7,-12,-6
16:28:58:67469,-2,-14,0,-3,0,-7,-12,-6
16:28:58:68332,4,-4,1,18,6,2,0,0
16:28:58:80355,0,11,1,14,-12,-3,5,3
16:28:58:88480,0,11,1,14,-12,-3,5,3
16:28:58:89340,-2,2,-2,-6,6,0,1,3
16:28:58:95375,2,3,-5,-25,-10,1,0,0
16:28:58:111539,2,3,-5,-25,-10,1,0,0
16:28:58:112354,-1,2,0,7,-4,-4,-3,-1
16:28:58:126620,1,2,2,-3,10,4,-4,1
16:28:58:127480,1,2,2,-3,10,4,-4,1
16:28:58:128353,1,-1,-2,-7,2,-2,-1,-3
16:28:58:140352,-3,-1,-1,-3,-8,-3,0,0
16:28:58:155997,-3,-1,-1,-3,-8,-3,0,0
16:28:58:156892,0,-4,-3,-27,-2,1,-3,0
16:28:58:162863,0,-2,-1,20,3,-2,0,-1
16:28:58:171003,0,-2,-1,20,3,-2,0,-1
16:28:58:171904,-1,9,6,11,1,0,-2,0
16:28:58:185990,-1,-2,4,9,5,-1,1,-1
16:28:58:186923,-1,-2,4,9,5,-1,1,-1
16:28:58:192862,-1,-2,4,4,0,-1,0,-2
16:28:58:200415,-1,1,-3,-13,-5,1,0,0
16:28:58:208607,-1,1,-3,-13,-5,1,0,0
16:28:58:209405,-3,0,-7,9,3,0,-2,-2
16:28:58:222859,0,-3,-3,1,-6,-6,-2,-2
16:28:58:230985,0,-3,-3,1,-6,-6,-2,-2
16:28:58:231861,-1,-1,-3,0,8,3,1,1
16:28:58:237898,0,0,0,2,-4,-3,-2,0
16:28:58:245367,0,0,0,2,-4,-3,-2,0
16:28:58:252851,0,-6,-1,7,-12,-3,2,-1
16:28:58:260355,0,-3,-4,-2,1,1,1,0
16:28:58:268493,0,-3,-4,-2,1,1,1,0
16:28:58:269351,-2,-4,-4,-3,-7,-4,1,-3
16:28:58:282860,-1,-4,-2,-4,0,1,-3,-1
16:28:58:291009,-1,-4,-2,-4,0,1,-3,-1
16:28:58:291860,6,-4,1,-2,-2,0,-11,-4
16:28:58:297866,5,-1,-14,-1,-4,-2,3,0
16:28:58:305338,5,-1,-14,-1,-4,-2,3,0
16:28:58:312849,10,3,7,-6,1,0,9,-10
16:28:58:320349,-1,-3,-16,-2,0,-1,-1,7
16:28:58:328499,-1,-3,-16,-2,0,-1,-1,7
16:28:58:329345,-4,-4,-2,-11,-3,-5,-8,1
16:28:58:342896,-2,0,7,1,8,7,1,-6
16:28:58:350982,-2,0,7,1,8,7,1,-6
16:28:58:351851,-5,-3,-9,-6,-1,-4,2,7
16:28:58:357869,-3,2,1,1,-4,-3,-1,2
16:28:58:365358,-3,2,1,1,-4,-3,-1,2
16:28:58:372732,-5,-1,3,-3,-2,-1,11,7
16:28:58:380334,0,-2,2,-3,-2,-3,-3,-2
16:28:58:388460,0,-2,2,-3,-2,-3,-3,-2
16:28:58:389345,-6,2,-3,-8,-2,-4,-2,1
16:28:58:402845,-1,-1,3,5,7,4,2,0
16:28:58:410961,-1,-1,3,5,7,4,2,0
16:28:58:411833,-3,0,-3,0,-3,1,4,0
16:28:58:417724,6,-2,1,-1,-9,-6,-2,-3
16:28:58:425345,6,-2,1,-1,-9,-6,-2,-3
16:28:58:432854,-3,-2,-3,-4,-1,-5,-6,-5
16:28:58:440375,-5,-1,3,2,19,4,1,1
16:28:58:448473,-5,-1,3,2,19,4,1,1
16:28:58:449398,2,-4,-1,2,10,1,-7,-3
16:28:58:462726,2,3,-2,-1,-6,-3,-5,-1
16:28:58:479126,2,3,-2,-1,-6,-3,-5,-1
16:28:58:479999,10,-2,-2,2,-6,-1,6,1
16:28:58:480723,2,0,2,-4,0,0,0,-4
16:28:58:485350,2,0,2,-4,0,0,0,-4
16:28:58:501004,-6,-2,2,-1,-1,0,1,1
16:28:58:501851,6,0,8,-1,-5,-3,-3,-4
16:28:58:508468,6,0,8,-1,-5,-3,-3,-4
16:28:58:509338,4,0,0,0,7,3,-4,0
16:28:58:523352,4,-6,-1,6,4,3,2,15
16:28:58:531008,4,-6,-1,6,4,3,2,15
16:28:58:531825,18,5,-30,-9,-6,-7,2,4
16:28:58:537861,-23,-2,-6,-6,-3,3,0,1
16:28:58:545368,-23,-2,-6,-6,-3,3,0,1
16:28:58:552830,-13,16,4,24,-3,1,-4,-3
16:28:58:560362,10,-10,-5,-7,-1,-4,-3,-6
16:28:58:568471,10,-10,-5,-7,-1,-4,-3,-6
16:28:58:569361,3,-6,-9,-13,-4,-5,-7,-8
16:28:58:583362,-10,-1,26,11,-4,-2,-7,-6
16:28:58:591035,-10,-1,26,11,-4,-2,-7,-6
16:28:58:591891,-3,-2,20,7,2,1,-14,6
16:28:58:597865,-6,5,-15,-1,4,3,3,-9
16:28:58:605365,-6,5,-15,-1,4,3,3,-9
16:28:58:612727,-9,-1,-24,-47,-16,1,-2,-5
16:28:58:620348,1,-18,12,-54,-10,-1,0,-2
16:28:58:628506,1,-18,12,-54,-10,-1,0,-2
16:28:58:629340,4,5,7,6,4,8,-6,-2
16:28:58:642867,15,15,12,23,7,1,11,11
16:28:58:651005,15,15,12,23,7,1,11,11
16:28:58:651860,-6,-43,17,7,-7,-6,0,1
16:28:58:657735,-5,-11,-23,-9,-1,-1,-4,-1
16:28:58:665362,-5,-11,-23,-9,-1,-1,-4,-1
16:28:58:672739,4,40,11,10,0,-2,-1,-13
16:28:58:680403,-4,4,-13,-2,-7,-4,-2,-2
16:28:58:688511,-4,4,-13,-2,-7,-4,-2,-2
16:28:58:689368,0,-11,3,-2,-4,0,-1,0
16:28:58:702740,-4,1,-10,10,-3,-2,-6,1
16:28:58:710972,-4,1,-10,10,-3,-2,-6,1
16:28:58:711867,-7,-9,-4,20,5,-4,6,1
16:28:58:717866,3,4,-7,13,11,-3,-1,-5
16:28:58:725371,3,4,-7,13,11,-3,-1,-5
16:28:58:740984,-1,-3,-1,12,1,-1,1,4
16:28:58:741716,3,8,79,30,-2,-3,-4,-7
16:28:58:748476,3,8,79,30,-2,-3,-4,-7
16:28:58:749356,-14,-16,3,7,7,1,1,5
16:28:58:762757,0,32,4,14,-1,-1,3,10
16:28:58:770999,0,32,4,14,-1,-1,3,10
16:28:58:771872,10,8,3,-2,8,3,11,4
16:28:58:777763,-7,-4,-11,-2,2,1,-2,-15
16:28:58:785337,-7,-4,-11,-2,2,1,-2,-15
16:28:58:792887,0,-6,-24,-8,-4,-2,-10,-7
16:28:58:800364,-3,-9,-30,-84,-21,-1,2,5
16:28:58:808477,-3,-9,-30,-84,-21,-1,2,5
16:28:58:809344,1,-8,-23,19,4,-3,0,-1
16:28:58:831630,1,10,14,7,-9,-5,-2,4
16:28:58:832511,1,10,14,7,-9,-5,-2,4
16:28:58:833365,-1,0,14,-29,-7,-2,-2,-6
16:28:58:837766,-7,-23,-3,26,3,-5,-4,-8
16:28:58:845376,-7,-23,-3,26,3,-5,-4,-8
16:28:58:860980,14,5,8,-5,-7,-7,-2,-1
16:28:58:861861,-9,-5,-7,-21,-5,0,1,3
16:28:58:868529,-9,-5,-7,-21,-5,0,1,3
16:28:58:869345,-16,-9,0,-7,-1,4,6,-2
16:28:58:882872,4,-5,-4,9,-2,-4,-3,-15
16:28:58:890988,4,-5,-4,9,-2,-4,-3,-15
16:28:58:891872,1,3,-11,-21,-10,2,21,5
16:28:58:897903,-2,-3,-17,13,10,6,2,7
16:28:58:905368,-2,-3,-17,13,10,6,2,7
16:28:58:912736,-6,5,10,-21,-6,-2,-6,-11
16:28:58:929111,-1,-11,-23,27,16,5,-2,2
16:28:58:929962,-1,-11,-23,27,16,5,-2,2
16:28:58:930731,0,15,12,42,12,-2,-6,2
16:28:58:942840,0,9,-9,26,-3,-12,-8,-2
16:28:58:951010,0,9,-9,26,-3,-12,-8,-2
16:28:58:951848,-11,-11,14,15,-1,-5,-6,5
16:28:58:965963,14,6,-15,-8,0,1,0,7
16:28:58:966872,14,6,-15,-8,0,1,0,7
16:28:58:972873,-11,-13,11,-12,-2,2,-11,5
16:28:58:980419,5,-13,-5,-20,-4,1,1,11
16:28:58:988511,5,-13,-5,-20,-4,1,1,11
16:28:58:989372,2,3,-8,-9,-2,1,-10,-10
16:28:59:2850,-6,-9,1,21,4,1,-3,-5
16:28:59:10969,-6,-9,1,21,4,1,-3,-5
16:28:59:11849,-1,-1,-8,16,7,-1,1,-5
16:28:59:17854,-3,4,8,-11,-3,-1,-5,1
16:28:59:33497,-3,4,8,-11,-3,-1,-5,1
16:28:59:34351,1,-3,-7,-16,-7,0,-7,-4
16:28:59:40379,-6,-3,9,-6,-1,1,-4,-7
16:28:59:48503,-6,-3,9,-6,-1,1,-4,-7
16:28:59:49365,-2,6,-7,-8,-1,-5,-11,-10
16:28:59:62857,0,-2,-21,-17,-9,-5,12,3
16:28:59:70992,0,-2,-21,-17,-9,-5,12,3
16:28:59:71837,4,24,7,-12,-2,2,14,36
16:28:59:77876,-13,13,25,1,-2,-5,-28,-33
16:28:59:85440,-13,13,25,1,-2,-5,-28,-33
16:28:59:92907,-1,-3,-18,-5,-3,-2,41,18
16:28:59:100343,-11,-7,-2,-5,-3,-3,-30,-15
16:28:59:107862,-11,-7,-2,-5,-3,-3,-30,-15
16:28:59:115358,5,1,-2,6,13,6,8,-22
16:28:59:122850,-3,-16,-19,24,2,-4,39,2
16:28:59:138493,-3,-16,-19,24,2,-4,39,2
16:28:59:139344,-3,-9,1,-5,-8,-8,-13,-11
16:28:59:145978,-7,4,11,-7,-1,3,-6,12
16:28:59:146852,-7,4,11,-7,-1,3,-6,12
16:28:59:152724,1,-2,12,7,2,5,47,-19
16:28:59:160330,-5,-6,5,0,-3,-4,20,4
16:28:59:167864,-5,-6,5,0,-3,-4,20,4
16:28:59:175358,-15,-21,-39,-15,-8,-10,-69,6
16:28:59:182711,-42,1,-5,-11,-4,3,24,42
16:28:59:190963,-42,1,-5,-11,-4,3,24,42
16:28:59:191847,-7,-22,17,14,4,1,-25,3
16:28:59:205977,15,11,-16,-9,0,5,-6,-50
16:28:59:206881,15,11,-16,-9,0,5,-6,-50
16:28:59:212743,0,10,-14,7,3,2,3,-15
16:28:59:220366,8,-4,-36,-18,-5,5,76,8
16:28:59:227910,8,-4,-36,-18,-5,5,76,8
16:28:59:235360,16,29,8,5,0,-4,35,78
16:28:59:242723,38,25,8,-30,-12,-9,-29,-1
16:28:59:251036,38,25,8,-30,-12,-9,-29,-1
16:28:59:251897,-2,11,17,-14,-1,4,-8,-38
16:28:59:266000,-11,-11,30,10,2,-3,-14,-2
16:28:59:266870,-11,-11,30,10,2,-3,-14,-2
16:28:59:272882,3,-3,-8,11,12,6,-28,22
16:28:59:280385,6,-3,-24,-19,-3,-2,63,14
16:28:59:287886,6,-3,-24,-19,-3,-2,63,14
16:28:59:295361,-8,-21,-19,-17,-11,-4,-2,-19
16:28:59:311628,-15,5,44,15,6,-4,-36,-41
16:28:59:312488,-15,5,44,15,6,-4,-36,-41
16:28:59:313342,7,1,13,-2,-3,0,33,48
16:28:59:325981,-10,15,-26,11,3,3,-18,13
16:28:59:326864,-10,15,-26,11,3,3,-18,13
16:28:59:332760,-11,-18,-5,-8,-1,0,-28,-24
16:28:59:340361,-21,-14,-16,14,3,-1,-17,2
16:28:59:347856,-21,-14,-16,14,3,-1,-17,2
16:28:59:355356,-5,5,10,-17,1,3,28,24
16:28:59:362740,16,-22,-28,-15,-8,0,-13,14
16:28:59:370983,16,-22,-28,-15,-8,0,-13,14
16:28:59:371867,20,-6,-10,-7,-3,-5,-45,-1
16:28:59:385991,-3,2,24,6,1,4,-21,5
16:28:59:386851,-3,2,24,6,1,4,-21,5
16:28:59:392736,-8,-7,5,9,-4,-3,4,8
16:28:59:400364,1,-21,-20,-12,-2,1,1,-21
16:28:59:416014,1,-21,-20,-12,-2,1,1,-21
16:28:59:416864,19,3,12,11,-3,-7,-39,-55
16:28:59:422775,-5,24,-8,-10,-2,-2,-29,58
16:28:59:430999,-5,24,-8,-10,-2,-2,-29,58
16:28:59:431865,-13,-24,8,15,-4,-3,-4,-58
16:28:59:445988,18,-11,17,15,3,-4,-1,-23
16:28:59:446861,18,-11,17,15,3,-4,-1,-23
16:28:59:452745,-20,7,-3,-4,0,-1,3,-20
16:28:59:460995,5,4,-7,-71,-24,2,6,20
16:28:59:467866,5,4,-7,-71,-24,2,6,20
16:28:59:475365,9,-5,-28,15,4,1,19,10
16:28:59:482879,1,-7,23,19,11,1,1,-11
16:28:59:490980,1,-7,23,19,11,1,1,-11
16:28:59:491858,-34,14,27,7,6,2,3,-11
16:28:59:505997,16,16,-5,-33,-2,-7,-4,-12
16:28:59:506887,16,16,-5,-33,-2,-7,-4,-12
16:28:59:512880,0,-30,-27,1,-5,-1,8,-4
16:28:59:520358,9,11,4,48,6,-3,-9,-15
16:28:59:527861,9,11,4,48,6,-3,-9,-15
16:28:59:535356,0,-11,2,0,-13,-5,0,-1
16:28:59:551642,2,-28,-18,-10,-10,-8,-10,-9
16:28:59:552518,2,-28,-18,-10,-10,-8,-10,-9
16:28:59:553364,24,15,-30,-12,9,6,-1,19
16:28:59:565988,-4,6,22,35,9,2,3,2
16:28:59:566877,-4,6,22,35,9,2,3,2
16:28:59:572740,1,11,-19,-24,8,4,9,2
16:28:59:588503,-14,-10,-10,2,4,2,4,20
16:28:59:589356,-14,-10,-10,2,4,2,4,20
16:28:59:595372,-1,-11,-50,-11,1,1,-5,8
16:28:59:602749,-30,-38,-27,-8,-10,-6,-8,-7
16:28:59:610979,-30,-38,-27,-8,-10,-6,-8,-7
16:28:59:611854,14,19,10,30,3,0,22,58
16:28:59:625983,17,19,10,-14,4,2,-5,-7
16:28:59:626853,17,19,10,-14,4,2,-5,-7
16:28:59:632753,-17,-16,15,-12,-9,-9,-17,-21
16:28:59:640362,2,-40,22,25,-3,-4,-6,-36
16:28:59:647877,2,-40,22,25,-3,-4,-6,-36
16:28:59:655356,-2,3,-6,-20,-7,-1,-1,-28
16:28:59:662743,5,2,-16,21,-1,-4,0,-20
16:28:59:670986,5,2,-16,21,-1,-4,0,-20
16:28:59:671872,1,14,11,-34,-19,-5,4,-7
16:28:59:686023,11,24,25,11,1,0,-6,16
16:28:59:686864,11,24,25,11,1,0,-6,16
16:28:59:692751,0,16,23,15,5,2,-15,-6
16:28:59:700375,-9,-3,9,-4,-7,-3,-16,-9
16:28:59:715996,-9,-3,9,-4,-7,-3,-16,-9
16:28:59:716867,-10,-81,-25,14,9,1,-16,15
16:28:59:722742,-6,11,-12,-21,12,6,6,17
16:28:59:730985,-6,11,-12,-21,12,6,6,17
16:28:59:731851,-13,6,19,14,-4,-9,33,47
16:28:59:746002,-11,2,3,-7,-6,-5,-1,2
16:28:59:746851,-11,2,3,-7,-6,-5,-1,2
16:28:59:760983,14,44,44,19,14,10,7,-12
16:28:59:761708,-5,-23,-48,-15,-9,-3,10,28
16:28:59:767879,-5,-23,-48,-15,-9,-3,10,28
16:28:59:775355,-13,1,11,11,2,5,-2,8
16:28:59:782759,8,10,23,1,-11,-3,-12,-17
16:28:59:791124,8,10,23,1,-11,-3,-12,-17
16:28:59:791883,6,18,1,11,-1,-7,-18,10
16:28:59:805986,-5,12,0,19,19,8,14,-32
16:28:59:806894,-5,12,0,19,19,8,14,-32
16:28:59:812746,16,42,1,-6,-10,-9,-4,-52
16:28:59:820369,1,3,19,4,-7,-2,11,-31
16:28:59:827849,1,3,19,4,-7,-2,11,-31
16:28:59:835367,10,-5,-7,17,5,-2,-23,-80
16:28:59:851604,-2,-28,-26,-38,0,0,9,-6
16:28:59:852516,-2,-28,-26,-38,0,0,9,-6
16:28:59:853374,2,-20,-8,-6,2,5,64,34
16:28:59:866545,2,6,11,6,-7,0,77,-1
16:28:59:867367,2,6,11,6,-7,0,77,-1
16:28:59:872744,-3,5,10,7,-9,-4,-48,-18
16:28:59:880394,-13,-2,2,-15,-5,-3,-63,-32
16:28:59:887882,-13,-2,2,-15,-5,-3,-63,-32
16:28:59:895371,-3,-33,-13,-5,-7,-4,-2,-16
16:28:59:902736,5,-8,-15,2,-2,-4,-7,48
16:28:59:911013,5,-8,-15,2,-2,-4,-7,48
16:28:59:911856,-13,-15,-42,-68,-18,-5,-21,32
16:28:59:926015,18,12,40,14,13,15,31,73
16:28:59:926893,18,12,40,14,13,15,31,73
16:28:59:932724,-11,-8,19,12,-3,1,19,21
16:28:59:940354,4,5,-27,-1,-5,-7,6,42
16:28:59:947869,4,5,-27,-1,-5,-7,6,42
16:28:59:955370,10,9,1,2,4,6,48,-2
16:28:59:962743,-27,-12,-9,-8,-13,3,56,-27
16:28:59:970976,-27,-12,-9,-8,-13,3,56,-27
16:28:59:971848,-5,4,-15,-18,-7,-6,-36,-13
16:28:59:985978,-1,10,-9,-31,0,-6,-80,-30
16:28:59:986854,-1,10,-9,-31,0,-6,-80,-30
16:28:59:992775,-22,11,35,23,4,-2,0,22
16:29:00:348,6,-15,-20,4,7,-6,-65,9
16:29:00:7882,6,-15,-20,4,7,-6,-65,9
16:29:00:15365,10,-4,-6,3,3,0,9,15
16:29:00:22860,3,25,24,22,18,-4,-14,10
16:29:00:38492,3,25,24,22,18,-4,-14,10
16:29:00:39354,-9,8,-11,2,-4,-7,-50,12
16:29:00:46009,5,-12,22,9,-1,1,-10,-61
16:29:00:46885,5,-12,22,9,-1,1,-10,-61
16:29:00:52895,8,-3,-3,-12,-6,-1,3,-8
16:29:00:68495,1,12,15,12,1,2,-1,7
16:29:00:69384,1,12,15,12,1,2,-1,7
16:29:00:75394,-5,-14,-9,-2,8,5,11,-9
16:29:00:82738,3,8,1,-20,-10,-3,23,8
16:29:00:90418,3,8,1,-20,-10,-3,23,8
16:29:00:97884,11,6,-21,-3,-5,2,6,-28
16:29:00:106011,-16,-6,-7,4,-1,-4,-43,-10
16:29:00:106728,-16,-6,-7,4,-1,-4,-43,-10
16:29:00:112902,9,-27,0,10,-2,-5,-16,15
16:29:00:128560,-5,19,16,-11,-8,-1,7,-1
16:29:00:129402,-5,19,16,-11,-8,-1,7,-1
16:29:00:143540,14,5,28,-29,-3,3,14,6
16:29:00:144267,-11,-24,-5,-8,-3,0,3,-33
16:29:00:150377,-11,-24,-5,-8,-3,0,3,-33
16:29:00:157899,1,3,-9,-14,-14,-9,10,0
16:29:00:165999,21,13,6,8,16,8,9,13
16:29:00:166745,21,13,6,8,16,8,9,13
16:29:00:172867,-11,-5,-3,-9,-5,-2,-8,-17
16:29:00:188533,3,6,10,16,-5,-5,15,-1
16:29:00:189338,3,6,10,16,-5,-5,15,-1
16:29:00:195379,-10,18,32,11,9,3,-25,-37
16:29:00:202747,-7,-10,-7,-3,-3,0,-13,-12
16:29:00:210353,-7,-10,-7,-3,-3,0,-13,-12
16:29:00:217858,-4,-16,-13,-14,-4,-3,-12,-4
16:29:00:226010,6,5,-12,3,-5,-1,29,31
16:29:00:226726,6,5,-12,3,-5,-1,29,31
16:29:00:232865,-12,-22,-1,4,-1,0,-1,-17
16:29:00:248467,5,2,-7,-28,2,1,4,-6
16:29:00:249417,5,2,-7,-28,2,1,4,-6
16:29:00:255385,-4,-21,13,-13,-4,1,21,-25
16:29:00:262854,0,20,17,23,-5,-6,-24,-22
16:29:00:270387,0,20,17,23,-5,-6,-24,-22
16:29:00:277858,8,-17,-1,16,-3,-4,-5,-14
16:29:00:285977,1,-13,-9,18,6,3,-16,3
16:29:00:286872,1,-13,-9,18,6,3,-16,3
16:29:00:292756,2,-4,-37,4,-2,0,8,15
16:29:00:316593,2,3,-1,6,-2,1,18,-2
16:29:00:317489,2,3,-1,6,-2,1,18,-2
16:29:00:318376,5,6,-3,15,3,1,-28,8
16:29:00:322874,-7,-8,-8,2,6,1,19,54
16:29:00:330427,-7,-8,-8,2,6,1,19,54
16:29:00:337852,-11,31,-1,-16,-13,-5,-22,41
16:29:00:346020,3,-9,-2,1,2,1,10,48
16:29:00:346866,3,-9,-2,1,2,1,10,48
16:29:00:360374,1,-5,15,-3,9,6,8,-49
16:29:00:368505,-10,-17,7,-13,-9,-6,-7,-22
16:29:00:369356,-10,-17,7,-13,-9,-6,-7,-22
16:29:00:375361,-24,20,3,7,14,4,-4,-11
16:29:00:382899,-1,13,-5,-30,-8,-2,12,-12
16:29:00:398994,-1,13,-5,-30,-8,-2,12,-12
16:29:00:406653,5,4,-7,15,10,1,9,12
16:29:00:407519,-13,6,-17,-5,-5,-6,-17,-17
16:29:00:408392,-13,6,-17,-5,-5,-6,-17,-17
16:29:00:420363,17,37,12,25,4,-2,37,3
16:29:00:428543,10,-9,1,-6,-10,-4,-9,-2
16:29:00:429370,10,-9,1,-6,-10,-4,-9,-2
16:29:00:435391,7,-3,-4,-11,-4,-2,8,16
16:29:00:442905,0,24,1,6,-1,2,-4,-46
16:29:00:450378,0,24,1,6,-1,2,-4,-46
16:29:00:457873,-2,9,16,4,-10,-2,16,-37
16:29:00:466030,6,2,-7,13,15,7,7,11
16:29:00:466888,6,2,-7,13,15,7,7,11
16:29:00:472753,-13,12,-5,-17,2,-2,-3,-37
16:29:00:488488,11,7,18,6,-10,3,8,28
16:29:00:489352,11,7,18,6,-10,3,8,28
16:29:00:495391,0,-17,-49,-5,-6,-4,-20,23
16:29:00:510988,-3,2,-17,-63,-27,6,-26,0
16:29:00:511769,-3,2,-17,-63,-27,6,-26,0
16:29:00:517896,-15,-9,12,-4,-1,5,5,17
16:29:00:526038,-5,-17,-2,21,-4,-10,-20,-42
16:29:00:526881,-5,-17,-2,21,-4,-10,-20,-42
16:29:00:532772,6,-31,0,-8,-8,-7,-5,18
16:29:00:548507,-3,-21,-28,4,2,0,30,10
16:29:00:549355,-3,-21,-28,4,2,0,30,10
16:29:00:555383,11,6,24,6,2,-4,-11,22
16:29:00:562852,-7,8,-3,8,1,-3,28,-29
16:29:00:570383,-7,8,-3,8,1,-3,28,-29
16:29:00:577771,-3,1,15,1,18,2,8,74
16:29:00:594105,0,6,3,0,9,-1,15,-61
16:29:00:595011,0,6,3,0,9,-1,15,-61
16:29:00:595773,-1,13,-9,-2,-11,1,12,-67
16:29:00:608498,-2,-17,-29,-1,-7,-8,22,49
16:29:00:609409,-2,-17,-29,-1,-7,-8,22,49
16:29:00:615380,6,-5,-28,-34,-6,-1,-7,-2
16:29:00:622873,-2,-5,2,-8,-11,0,5,-6
16:29:00:630380,-2,-5,2,-8,-11,0,5,-6
16:29:00:637869,-8,9,21,-12,3,7,-7,39
16:29:00:646030,-10,-6,-4,10,6,9,-14,-13
16:29:00:646887,-10,-6,-4,10,6,9,-14,-13
16:29:00:652744,-4,-13,6,16,-11,-10,-7,-22
16:29:00:668502,-5,-14,11,0,1,-7,-30,-21
16:29:00:669390,-5,-14,11,0,1,-7,-30,-21
16:29:00:675396,2,-12,-17,16,13,7,8,54
16:29:00:682917,5,1,47,21,11,4,-1,18
16:29:00:698523,5,1,47,21,11,4,-1,18
16:29:00:699397,-25,-56,-33,-21,-9,-4,-8,70
16:29:00:705797,-4,-51,6,26,13,3,-3,12
16:29:00:713507,-4,-51,6,26,13,3,-3,12
16:29:00:714382,2,17,33,-28,-9,0,-2,-47
16:29:00:728502,-3,-11,-6,-24,-14,-10,-28,39
16:29:00:729345,-3,-11,-6,-24,-14,-10,-28,39
16:29:00:735410,-12,4,0,21,5,1,-9,-20
16:29:00:742894,6,35,7,5,3,2,-9,-1
16:29:00:750409,6,35,7,5,3,2,-9,-1
16:29:00:757821,6,22,-1,8,-9,-6,-10,-13
16:29:00:766045,-8,33,30,17,8,0,-9,-22
16:29:00:766916,-8,33,30,17,8,0,-9,-22
16:29:00:772777,10,-9,-52,-15,-13,-7,-3,33
16:29:00:788512,-5,14,-6,-3,18,1,10,21
16:29:00:789415,-5,14,-6,-3,18,1,10,21
16:29:00:795278,1,-32,-8,33,2,-3,9,-32
16:29:00:802893,10,20,-8,-17,-16,-8,-4,13
16:29:00:810396,10,20,-8,-17,-16,-8,-4,13
16:29:00:817774,10,5,-7,-37,-9,-3,-2,8
16:29:00:826020,8,10,-7,2,7,10,-8,-25
16:29:00:826886,8,10,-7,2,7,10,-8,-25
16:29:00:832750,-21,10,20,3,-3,0,-19,-49
16:29:00:848529,-10,-28,7,-7,-3,-5,0,-5
16:29:00:849414,-10,-28,7,-7,-3,-5,0,-5
16:29:00:855398,-1,30,16,19,20,6,7,16
16:29:00:871009,-3,-15,-22,-10,-15,-6,14,-9
16:29:00:871907,-3,-15,-22,-10,-15,-6,14,-9
16:29:00:877755,6,21,-5,0,1,-2,2,13
16:29:00:886012,-6,-7,-18,-22,-5,-3,-1,13
16:29:00:886884,-6,-7,-18,-22,-5,-3,-1,13
16:29:00:900388,1,9,8,6,3,0,-4,-14
16:29:00:908489,2,2,21,-47,-18,0,3,6
16:29:00:909383,2,2,21,-47,-18,0,3,6
16:29:00:915382,0,-52,-4,6,4,0,-2,5
16:29:00:931006,-4,8,1,23,-2,-2,3,-11
16:29:00:931720,-4,8,1,23,-2,-2,3,-11
16:29:00:937881,-18,15,-5,1,4,-4,4,23
16:29:00:946009,-17,3,-16,-3,10,1,-14,12
16:29:00:946859,-17,3,-16,-3,10,1,-14,12
16:29:00:952728,3,-16,-19,1,-4,-4,-13,5
16:29:00:968522,6,12,3,2,-1,0,-5,-18
16:29:00:969391,6,12,3,2,-1,0,-5,-18
16:29:00:975383,10,12,7,10,2,1,4,-7
16:29:00:991117,14,-17,-12,5,2,-3,0,-23
16:29:00:991771,14,-17,-12,5,2,-3,0,-23
16:29:00:997874,-7,23,-7,6,-11,-3,-7,-52
16:29:01:6017,1,1,0,12,7,4,5,0
16:29:01:6784,1,1,0,12,7,4,5,0
16:29:01:20399,9,-19,24,30,10,1,-3,2
16:29:01:28510,9,-19,24,30,10,1,-3,2
16:29:01:29375,-13,-13,2,-6,-10,-8,-4,2
16:29:01:35391,3,8,1,-6,1,-1,-15,-20
16:29:01:51014,3,8,1,-6,1,-1,-15,-20
16:29:01:51889,-9,9,-10,8,6,1,-11,30
16:29:01:57782,-11,18,8,1,-5,-5,-2,-27
16:29:01:65999,-11,18,8,1,-5,-5,-2,-27
16:29:01:66743,4,-12,-8,-18,-8,-4,4,-3
16:29:01:80379,-3,5,11,-7,-2,3,33,28
16:29:01:88491,-3,5,11,-7,-2,3,33,28
16:29:01:89402,-5,-27,5,-12,-5,1,24,-5
16:29:01:95372,5,-10,-11,-3,-4,-2,-5,39
16:29:01:110996,5,-10,-11,-3,-4,-2,-5,39
16:29:01:111874,-3,-3,-8,2,-2,-2,-5,15
16:29:01:117774,1,-12,-8,-18,-3,1,4,-3
16:29:01:126009,1,-12,-8,-18,-3,1,4,-3
16:29:01:126871,3,-9,-1,-2,-3,0,38,9
16:29:01:149138,6,28,-20,-4,-4,-4,-1,-13
16:29:01:150005,6,28,-20,-4,-4,-4,-1,-13
16:29:01:150753,4,8,2,-10,11,1,-17,-1
16:29:01:162884,-13,3,7,4,-7,-2,0,6
16:29:01:171001,-13,3,7,4,-7,-2,0,6
16:29:01:171910,0,-4,24,21,-8,-6,0,20
16:29:01:177758,20,0,26,-3,-1,-4,-12,-1
16:29:01:185996,20,0,26,-3,-1,-4,-12,-1
16:29:01:186873,-2,-17,-5,-2,17,5,-7,-2
16:29:01:200373,-2,9,7,-21,-7,0,2,-14
16:29:01:208497,-2,9,7,-21,-7,0,2,-14
16:29:01:209368,-3,-10,-12,13,4,2,8,-9
16:29:01:215389,-2,-7,-2,11,10,3,5,-2
16:29:01:230986,-2,-7,-2,11,10,3,5,-2
16:29:01:231726,5,-2,0,13,-10,-6,-22,-1
16:29:01:237758,-4,-1,-7,0,4,0,3,-13
16:29:01:245995,-4,-1,-7,0,4,0,3,-13
16:29:01:246859,4,17,-28,-14,-9,-6,-6,-17
16:29:01:260366,3,0,-10,-65,-12,1,-5,4
16:29:01:268508,3,0,-10,-65,-12,1,-5,4
16:29:01:269369,1,-5,-6,1,6,4,-2,6
16:29:01:275256,2,-7,-11,17,-7,-7,0,9
16:29:01:291086,2,-7,-11,17,-7,-7,0,9
16:29:01:291775,-21,24,23,-11,3,2,12,26
16:29:01:297889,11,-9,11,13,3,0,-12,82
16:29:01:306039,11,-9,11,13,3,0,-12,82
16:29:01:306740,4,10,10,18,-3,-3,-17,-2
16:29:01:320374,-2,-51,-6,5,6,3,5,-23
16:29:01:328500,-2,-51,-6,5,6,3,5,-23
16:29:01:329375,1,-14,-14,-19,-9,-5,-4,-7
16:29:01:335375,5,11,-16,23,-8,4,1,-24
16:29:01:350995,5,11,-16,23,-8,4,1,-24
16:29:01:351858,-7,-3,22,17,-1,-4,-3,-18
16:29:01:357787,0,20,30,-26,-12,-6,-4,-6
16:29:01:366029,0,20,30,-26,-12,-6,-4,-6
16:29:01:366734,2,12,11,7,-2,-1,4,7
16:29:01:380382,-12,-4,14,12,12,6,-7,-11
16:29:01:388532,-12,-4,14,12,12,6,-7,-11
16:29:01:389388,13,-6,-13,-5,1,-2,17,37
16:29:01:395398,-7,-11,-30,4,-9,-6,-10,-22
16:29:01:410991,-7,-11,-30,4,-9,-6,-10,-22
16:29:01:411869,0,-1,-23,13,9,4,-14,-8
16:29:01:417743,0,0,-2,-13,-4,0,7,3
16:29:01:425995,0,0,-2,-13,-4,0,7,3
16:29:01:426740,3,-4,-11,13,-3,-3,-2,-13
16:29:01:440380,-3,-4,-19,2,2,-1,-3,-17
16:29:01:448522,-3,-4,-19,2,2,-1,-3,-17
16:29:01:449373,-7,-18,21,-13,0,-2,-3,-17
16:29:01:455405,2,17,18,-1,-1,-6,-15,10
16:29:01:471022,2,17,18,-1,-1,-6,-15,10
16:29:01:471865,4,1,0,-4,0,5,-4,-3
16:29:01:477775,4,-7,5,-1,-3,-8,-5,3
16:29:01:485986,4,-7,5,-1,-3,-8,-5,3
16:29:01:486861,-21,-7,13,3,13,3,13,-15
16:29:01:500364,-10,14,2,5,1,2,-4,-27
16:29:01:508495,-10,14,2,5,1,2,-4,-27
16:29:01:509352,-8,28,-1,-24,-23,-7,-3,2
16:29:01:515367,-3,-16,1,-5,8,5,8,8
16:29:01:531017,-3,-16,1,-5,8,5,8,8
16:29:01:531864,-4,-3,-3,12,12,6,64,33
16:29:01:537745,6,5,8,-3,-12,-8,18,17
16:29:01:546001,6,5,8,-3,-12,-8,18,17
16:29:01:546874,2,-7,-9,-6,-2,0,-9,-79
16:29:01:560380,0,-2,-13,3,-2,0,-2,-51
16:29:01:568518,0,-2,-13,3,-2,0,-2,-51
16:29:01:569374,14,-20,-11,-10,-2,-7,37,52
16:29:01:575368,-2,17,6,15,13,5,-29,-15
16:29:01:591011,-2,17,6,15,13,5,-29,-15
16:29:01:591851,4,20,-2,14,-5,-8,-26,18
16:29:01:597730,4,8,-36,-57,-10,2,21,23
16:29:01:605981,4,8,-36,-57,-10,2,21,23
16:29:01:606847,9,-7,-18,-2,6,6,-14,-14
16:29:01:620247,-12,-12,-17,21,7,-2,-9,-13
16:29:01:628501,-12,-12,-17,21,7,-2,-9,-13
16:29:01:629360,3,1,6,3,-13,-8,-24,-13
16:29:01:635413,-1,7,22,1,7,7,7,-34
16:29:01:659167,-1,7,22,1,7,7,7,-34
16:29:01:660010,-26,-27,8,0,-9,-3,-11,-26
16:29:01:660734,0,3,16,-2,-8,-3,-7,-24
16:29:01:666027,0,3,16,-2,-8,-3,-7,-24
16:29:01:666762,-4,0,-2,2,2,10,26,59
16:29:01:680367,-8,-14,-5,11,3,-6,1,72
16:29:01:688502,-8,-14,-5,11,3,-6,1,72
16:29:01:689428,1,-9,7,4,-13,-12,-31,-13
16:29:01:695382,1,5,23,-22,2,3,14,19
16:29:01:711756,1,5,23,-22,2,3,14,19
16:29:01:712500,1,8,-7,1,-9,-5,-7,-9
16:29:01:717775,3,7,-3,16,12,4,-5,-10
16:29:01:726029,3,7,-3,16,12,4,-5,-10
16:29:01:726769,1,-1,10,-2,-2,-1,-14,-30
16:29:01:740398,-10,-4,0,-4,0,-2,3,-14
16:29:01:748529,-10,-4,0,-4,0,-2,3,-14
16:29:01:749366,11,5,-9,-2,7,2,-13,16
16:29:01:755365,4,-10,-10,-2,-14,-6,-4,14
16:29:01:779114,4,-10,-10,-2,-14,-6,-4,14
16:29:01:779995,-12,12,10,-6,2,-1,17,-26
16:29:01:780730,-5,-1,2,8,-4,2,-15,-93
16:29:01:785756,-5,-1,2,8,-4,2,-15,-93
16:29:01:792733,-1,-3,-8,-6,4,8,40,27
16:29:01:800364,9,3,-28,1,-3,-7,-7,28
16:29:01:808486,9,3,-28,1,-3,-7,-7,28
16:29:01:809363,-26,-16,-10,-5,-3,-6,-43,-61
16:29:01:815400,-7,-17,-17,-15,-3,0,-2,47
16:29:01:831014,-7,-17,-17,-15,-3,0,-2,47
16:29:01:831871,11,4,-8,-7,6,5,-8,36
16:29:01:837767,0,-7,15,6,0,-6,-58,-7
16:29:01:846016,0,-7,15,6,0,-6,-58,-7
16:29:01:846886,11,28,32,2,3,-3,-11,-33
16:29:01:860769,0,-1,-8,-2,-6,0,-27,-34
16:29:01:868523,0,-1,-8,-2,-6,0,-27,-34
16:29:01:869425,-16,-24,1,-3,-6,-7,-32,44
16:29:01:875385,-2,12,10,5,8,2,33,18
16:29:01:891111,-2,12,10,5,8,2,33,18
16:29:01:891763,-5,12,-19,-5,3,0,-23,-20
16:29:01:897760,2,2,-10,2,-8,-7,-15,-61
16:29:01:906030,2,2,-10,2,-8,-7,-15,-61
16:29:01:906883,10,-4,1,6,16,10,36,-20
16:29:01:920293,13,3,7,13,3,-4,31,-2
16:29:01:928502,13,3,7,13,3,-4,31,-2
16:29:01:929402,2,-15,-16,-6,-12,2,47,-6
16:29:01:942888,-32,-27,-7,-12,-2,-6,9,75
16:29:01:951033,-32,-27,-7,-12,-2,-6,9,75
16:29:01:951754,15,9,-3,3,7,-1,-14,33
16:29:01:957767,-1,-11,-5,7,2,2,-6,-28
16:29:01:965386,-1,-11,-5,7,2,2,-6,-28
16:29:01:972754,-17,-6,32,0,-7,-4,-28,-98
16:29:01:980379,3,4,7,2,-3,0,-6,-29
16:29:01:996010,3,4,7,2,-3,0,-6,-29
16:29:01:996770,-3,3,7,11,4,9,11,3
16:29:02:2777,-9,-12,-10,-3,-4,-3,9,26
16:29:02:11015,-9,-12,-10,-3,-4,-3,9,26
16:29:02:11873,9,-20,2,-1,-1,-5,-21,12
16:29:02:17760,11,23,7,-4,-10,-4,16,75
16:29:02:33526,11,23,7,-4,-10,-4,16,75
16:29:02:34385,17,-3,-4,-23,-5,-1,-4,24
16:29:02:40270,5,-1,-6,4,-2,-6,33,9
16:29:02:48508,5,-1,-6,4,-2,-6,33,9
16:29:02:49365,4,8,-23,12,1,-7,-18,30
16:29:02:62760,-3,6,17,-18,0,-3,2,-5
16:29:02:71038,-3,6,17,-18,0,-3,2,-5
16:29:02:71759,-8,-7,-23,3,-8,-2,0,1
16:29:02:77766,16,-15,-8,-5,-7,0,-7,-23
16:29:02:85379,16,-15,-8,-5,-7,0,-7,-23
16:29:02:92774,-2,-17,-49,-15,-6,0,-18,-29
16:29:02:100380,-10,-11,-10,5,8,9,25,-8
16:29:02:108507,-10,-11,-10,5,8,9,25,-8
16:29:02:109375,-3,15,20,2,4,1,9,-12
16:29:02:122781,4,17,7,2,7,5,36,-17
16:29:02:139150,4,17,7,2,7,5,36,-17
16:29:02:139995,-12,-6,0,-2,-4,0,4,1
16:29:02:140766,0,4,10,5,2,1,-4,9
16:29:02:145418,0,4,10,5,2,1,-4,9
16:29:02:152764,5,11,7,-6,8,1,2,22
16:29:02:160274,6,-13,-22,-14,-10,-7,-10,8
16:29:02:168562,6,-13,-22,-14,-10,-7,-10,8
16:29:02:169408,-7,-9,-20,-6,0,-1,25,58
16:29:02:182800,-8,-1,1,6,-4,-5,-5,-36
16:29:02:191024,-8,-1,1,6,-4,-5,-5,-36
16:29:02:191768,3,-7,32,10,7,0,-10,11
16:29:02:197771,4,17,-6,-1,-5,-2,-17,27
16:29:02:205389,4,17,-6,-1,-5,-2,-17,27
16:29:02:212771,-10,-1,-16,-7,-5,-1,7,-19
16:29:02:220407,-6,1,10,5,2,-4,-42,-17
16:29:02:228521,-6,1,10,5,2,-4,-42,-17
16:29:02:229412,-3,2,-8,5,12,3,19,-25
16:29:02:242762,11,-20,-11,-7,-4,1,13,-54
16:29:02:259127,11,-20,-11,-7,-4,1,13,-54
16:29:02:260004,5,-5,-22,-5,-13,-7,-10,12
16:29:02:260768,-23,-17,5,-6,9,5,-19,-19
16:29:02:273509,-23,-17,5,-6,9,5,-19,-19
16:29:02:274384,-29,-7,7,-7,-8,3,34,39
16:29:02:280381,-8,-7,4,12,3,6,0,-13
16:29:02:288540,-8,-7,4,12,3,6,0,-13
16:29:02:289396,15,24,35,1,-5,-3,4,-37
16:29:02:302768,0,-7,8,-11,-8,-4,-3,23
16:29:02:311532,0,-7,8,-11,-8,-4,-3,23
16:29:02:318417,5,3,4,-33,1,3,-6,-3
16:29:02:319275,-1,-4,-7,6,-12,-6,-3,-4
16:29:02:333557,-1,-4,-7,6,-12,-6,-3,-4
16:29:02:334387,-2,-5,-20,21,-1,-5,-8,-8
16:29:02:340371,3,14,-8,0,5,-4,4,81
16:29:02:348533,3,14,-8,0,5,-4,4,81
16:29:02:349379,-2,-26,9,10,-2,-4,-15,5
16:29:02:362786,0,23,14,6,-9,0,1,-8
16:29:02:379344,0,23,14,6,-9,0,1,-8
16:29:02:380022,1,7,4,-4,2,-2,-16,1
16:29:02:380744,9,-2,-10,-3,-11,-6,14,58
16:29:02:385412,9,-2,-10,-3,-11,-6,14,58
16:29:02:392793,-8,9,7,16,12,1,22,-11
16:29:02:400377,-23,-6,17,4,7,2,0,-26
16:29:02:408497,-23,-6,17,4,7,2,0,-26
16:29:02:409397,5,-14,-19,1,-3,0,13,4
16:29:02:422770,9,-7,-3,-5,1,-1,-2,-13
16:29:02:431013,9,-7,-3,-5,1,-1,-2,-13
16:29:02:431860,4,11,14,2,-10,-5,-31,15
16:29:02:437755,0,5,-9,6,6,10,4,-18
16:29:02:453535,0,5,-9,6,6,10,4,-18
16:29:02:454377,3,16,15,0,-7,-5,-11,-6
16:29:02:460406,5,28,1,-2,-7,-6,-12,9
16:29:02:468506,5,28,1,-2,-7,-6,-12,9
16:29:02:469378,3,-16,-17,-14,6,2,-9,78
16:29:02:482773,4,-21,-9,19,1,-2,0,24
16:29:02:491008,4,-21,-9,19,1,-2,0,24
16:29:02:491901,-9,-28,6,-4,-5,-7,-32,-68
16:29:02:497757,1,12,2,-1,10,7,0,16
16:29:02:505382,1,12,2,-1,10,7,0,16
16:29:02:521017,8,19,0,11,0,-1,-10,-29
16:29:02:521763,1,-18,0,-10,7,3,7,-11
16:29:02:528521,1,-18,0,-10,7,3,7,-11
16:29:02:529390,-9,0,17,0,-4,-7,6,-13
16:29:02:543283,7,3,-11,-17,2,4,0,-8
16:29:02:551027,7,3,-11,-17,2,4,0,-8
16:29:02:551891,-2,-6,0,-2,0,-3,6,2
16:29:02:557788,-9,3,-9,4,-6,-9,-11,-16
16:29:02:565386,-9,3,-9,4,-6,-9,-11,-16
16:29:02:572761,1,17,15,5,6,3,9,0
16:29:02:580418,-4,-22,23,1,-6,-3,2,-9
16:29:02:589030,-4,-22,23,1,-6,-3,2,-9
16:29:02:595386,-6,-6,11,11,16,3,2,-11
16:29:02:602901,-8,21,2,0,1,0,-2,4
16:29:02:611021,-8,21,2,0,1,0,-2,4
16:29:02:611769,0,-22,-60,-27,-18,-6,-2,19
16:29:02:625993,17,2,8,-5,14,6,-3,-27
16:29:02:626735,17,2,8,-5,14,6,-3,-27
16:29:02:632806,2,23,11,13,2,1,-4,-13
16:29:02:640282,-7,2,-3,-24,-12,-2,0,2
16:29:02:648531,-7,2,-3,-24,-12,-2,0,2
16:29:02:649382,2,26,15,-7,-11,-3,7,-19
16:29:02:662798,-4,-8,-2,9,-3,-3,27,-23
16:29:02:671026,-4,-8,-2,9,-3,-3,27,-23
16:29:02:671792,1,5,2,11,9,3,2,23
16:29:02:677764,1,3,-21,-4,-11,-7,-7,2
16:29:02:685411,1,3,-21,-4,-11,-7,-7,2
16:29:02:701022,-8,-22,2,3,1,0,2,-2
16:29:02:701763,7,-5,4,-5,-10,-5,-6,18
16:29:02:708523,7,-5,4,-5,-10,-5,-6,18
16:29:02:709416,-12,-9,-5,-19,-5,3,-7,-23
16:29:02:722774,-4,1,-2,-3,4,7,2,18
16:29:02:730996,-4,1,-2,-3,4,7,2,18
16:29:02:731781,-2,21,-17,9,-2,2,0,-12
16:29:02:737756,-14,-30,-23,-10,-9,-6,-5,-19
16:29:02:745382,-14,-30,-23,-10,-9,-6,-5,-19
16:29:02:769938,1,-9,9,-7,-6,-1,-5,9
16:29:02:770625,3,21,9,7,9,2,-10,1
16:29:02:771526,3,21,9,7,9,2,-10,1
16:29:02:772253,0,-11,-19,-20,-6,1,3,7
16:29:02:782743,-6,8,8,15,5,2,4,3
16:29:02:799138,-6,8,8,15,5,2,4,3
16:29:02:800005,-2,-7,-21,13,3,-1,-1,-12
16:29:02:800762,18,6,-18,-15,-5,-7,-29,-22
16:29:02:805396,18,6,-18,-15,-5,-7,-29,-22
16:29:02:812763,8,-4,5,6,-1,-4,-21,36
16:29:02:820290,6,3,8,-5,8,4,1,7
16:29:02:828538,6,3,8,-5,8,4,1,7
16:29:02:829394,-5,-14,-2,-2,-7,-8,9,-1
16:29:02:842950,-13,-12,-1,-2,0,-1,-6,-7
16:29:02:851019,-13,-12,-1,-2,0,-1,-6,-7
16:29:02:851753,1,15,16,2,11,3,-8,-6
16:29:02:857786,-7,-2,0,4,-4,2,9,-3
16:29:02:873516,-7,-2,0,4,-4,2,9,-3
16:29:02:874404,-4,-13,-21,3,-6,-7,3,-12
16:29:02:880261,0,-4,-16,3,-6,-2,6,6
16:29:02:887893,0,-4,-16,3,-6,-2,6,6
16:29:02:903531,15,8,21,7,-6,-1,1,0
16:29:02:904409,-8,9,2,5,7,1,9,11
16:29:02:911029,-8,9,2,5,7,1,9,11
16:29:02:911778,-4,10,4,3,-2,-4,3,-3
16:29:02:926058,10,-20,11,-2,5,-3,-1,-2
16:29:02:926762,10,-20,11,-2,5,-3,-1,-2
16:29:02:932942,-4,-2,-6,-2,3,3,2,-10
16:29:02:940382,-2,-8,0,5,2,0,-4,-6
16:29:02:947909,-2,-8,0,5,2,0,-4,-6
16:29:02:955264,4,14,16,-6,-7,-4,1,10
16:29:02:962791,-4,0,12,-1,-3,3,16,27
16:29:02:971019,-4,0,12,-1,-3,3,16,27
16:29:02:971766,-3,1,2,-6,2,-1,12,30
16:29:02:986026,2,-3,-2,-5,-4,-4,4,-10
16:29:02:986755,2,-3,-2,-5,-4,-4,4,-10
16:29:02:992798,-9,-10,-19,-10,-3,1,-1,-30
16:29:03:8515,4,28,4,1,1,-4,-4,5
16:29:03:9380,4,28,4,1,1,-4,-4,5
16:29:03:15301,2,-4,-1,-11,-4,-3,-3,-12
16:29:03:31643,-3,-2,-4,-20,2,4,-5,-1
16:29:03:32513,-3,-2,-4,-20,2,4,-5,-1
16:29:03:33261,-6,13,6,5,-5,-4,-7,-4
16:29:03:46030,-2,18,-1,-1,3,-1,-4,-10
16:29:03:46893,-2,18,-1,-1,3,-1,-4,-10
16:29:03:52774,0,-12,-9,-8,1,1,0,6
16:29:03:60396,-8,-6,-7,7,5,-2,-12,-10
16:29:03:67820,-8,-6,-7,7,5,-2,-12,-10
16:29:03:75402,-3,-2,-3,-4,-9,-6,-8,15
16:29:03:82804,1,-3,5,1,-6,-3,1,49
16:29:03:91009,1,-3,5,1,-6,-3,1,49
16:29:03:91742,6,-20,19,1,-2,2,2,-7
16:29:03:106026,-5,-14,6,0,-8,-4,-4,-24
16:29:03:106768,-5,-14,6,0,-8,-4,-4,-24
16:29:03:112786,-2,6,-7,1,3,4,1,-21
16:29:03:120380,1,-6,0,0,-6,-2,35,77
16:29:03:127909,1,-6,0,0,-6,-2,35,77
16:29:03:143519,-4,6,-8,-5,-3,0,2,38
16:29:03:144379,-15,6,5,0,1,-1,-2,-28
16:29:03:151013,-15,6,5,0,1,-1,-2,-28
16:29:03:151763,2,-9,17,-7,-9,1,-9,-10
16:29:03:166014,8,2,2,0,-1,-1,-8,-3
16:29:03:166770,8,2,2,0,-1,-1,-8,-3
16:29:03:172793,1,-1,2,24,0,-4,-6,-26
16:29:03:180395,-1,-8,-19,-2,4,4,-1,-21
16:29:03:187930,-1,-8,-19,-2,4,4,-1,-21
16:29:03:195260,-8,-3,-3,-8,-13,-6,16,6
16:29:03:202779,1,-3,-13,-8,3,-3,-3,73
16:29:03:211016,1,-3,-13,-8,3,-3,-3,73
16:29:03:211752,6,-2,-6,-4,6,6,13,-5
16:29:03:226002,2,-41,-30,-3,-6,-5,-10,-50
16:29:03:226799,2,-41,-30,-3,-6,-5,-10,-50
16:29:03:232769,-2,2,-8,-8,-3,0,-5,-23
16:29:03:240316,-10,1,3,2,-2,0,-8,-39
16:29:03:247927,-10,1,3,2,-2,0,-8,-39
16:29:03:255269,0,-5,-14,-5,-2,-5,-9,-17
16:29:03:262764,3,3,-2,-2,2,1,-23,-23
16:29:03:271031,3,3,-2,-2,2,1,-23,-23
16:29:03:271802,7,20,16,7,3,-2,-22,29
16:29:03:286050,-3,0,-6,-11,-6,-1,5,-40
16:29:03:286774,-3,0,-6,-11,-6,-1,5,-40
16:29:03:292801,-9,-21,-21,2,5,0,22,-2
16:29:03:300290,9,-2,-2,2,9,2,16,29
16:29:03:307913,9,-2,-2,2,9,2,16,29
16:29:03:315439,5,-5,2,-7,-11,1,84,56
16:29:03:322775,0,30,29,-2,-9,1,73,3
16:29:03:331081,0,30,29,-2,-9,1,73,3
16:29:03:331895,-10,6,-9,-4,2,-6,-37,-24
16:29:03:354168,-26,-6,32,15,6,-2,-38,-18
16:29:03:355069,-26,-6,32,15,6,-2,-38,-18
16:29:03:355772,2,-2,9,-3,-1,0,-15,-14
16:29:03:360277,3,11,-6,8,-2,-2,-23,-5
16:29:03:367945,3,11,-6,8,-2,-2,-23,-5
16:29:03:375274,-3,-12,0,13,10,9,2,-2
16:29:03:382778,3,15,-5,-5,-9,-6,0,-62
16:29:03:391064,3,15,-5,-5,-9,-6,0,-62
16:29:03:391897,8,-7,5,-4,-3,0,3,23
16:29:03:406029,1,30,12,8,-1,2,13,-28
16:29:03:406898,1,30,12,8,-1,2,13,-28
16:29:03:412779,-14,10,-4,4,6,-2,-18,-5
16:29:03:420388,-2,-19,-6,-10,-4,-1,-10,10
16:29:03:428506,-2,-19,-6,-10,-4,-1,-10,10
16:29:03:435383,23,-2,-3,-8,0,-3,2,22
16:29:03:442791,6,9,8,4,-3,-2,-19,15
16:29:03:458551,6,9,8,4,-3,-2,-19,15
16:29:03:459417,-7,-13,1,1,3,3,4,25
16:29:03:466018,3,-12,-12,-5,-5,-2,11,-12
16:29:03:466888,3,-12,-12,-5,-5,-2,11,-12
16:29:03:472788,-8,-20,7,4,7,1,2,-30
16:29:03:480387,6,-4,-10,0,-3,-10,1,28
16:29:03:487929,6,-4,-10,0,-3,-10,1,28
16:29:03:495393,-5,-25,-82,-11,-5,-4,-44,-37
16:29:03:502749,15,-7,-8,-1,6,1,-12,36
16:29:03:511017,15,-7,-8,-1,6,1,-12,36
16:29:03:511776,-8,18,10,0,-1,-2,0,20
16:29:03:526417,6,-1,-2,2,-5,-3,-9,4
16:29:03:527261,6,-1,-2,2,-5,-3,-9,4
16:29:03:532775,7,4,-13,-27,-11,-1,-18,8
16:29:03:548524,1,1,11,2,13,4,-8,-9
16:29:03:549385,1,1,11,2,13,4,-8,-9
16:29:03:555419,-3,2,-2,2,-9,-5,-1,-15
16:29:03:562747,-6,-20,-13,-19,-16,-5,-4,9
16:29:03:571003,-6,-20,-13,-19,-16,-5,-4,9
16:29:03:571812,-11,-7,15,1,0,-1,16,-5
16:29:03:594168,-2,-1,-3,5,-1,-1,-9,-17
16:29:03:595003,-2,-1,-3,5,-1,-1,-9,-17
16:29:03:595759,10,16,29,11,11,4,0,4
16:29:03:616645,-17,-20,-12,-5,-3,-1,-9,-29
16:29:03:617383,-17,-20,-12,-5,-3,-1,-9,-29
16:29:03:618240,-11,-23,8,4,-3,-4,0,-31
16:29:03:622757,-8,-9,-16,-14,-22,1,-7,-21
16:29:03:631002,-8,-9,-16,-14,-22,1,-7,-21
16:29:03:631759,2,10,1,-5,8,4,4,-3
16:29:03:646011,0,2,4,-6,-9,-7,53,38
16:29:03:646757,0,2,4,-6,-9,-7,53,38
16:29:03:661041,-5,19,16,2,4,4,-3,37
16:29:03:661745,1,9,3,7,-1,2,-10,19
16:29:03:667905,1,9,3,7,-1,2,-10,19
16:29:03:675401,2,0,4,0,7,-2,-2,-8
16:29:03:682781,0,-7,7,17,6,0,-8,-1
16:29:03:690992,0,-7,7,17,6,0,-8,-1
16:29:03:691756,-14,0,-7,3,-7,-5,-14,-9
16:29:03:706021,6,1,-4,-7,-10,-1,-3,-13
16:29:03:706751,6,1,-4,-7,-10,-1,-3,-13
16:29:03:720926,-3,-1,-13,-10,7,3,56,20
16:29:03:721762,-1,5,3,-3,1,-3,-17,-9
16:29:03:736029,-1,5,3,-3,1,-3,-17,-9
16:29:03:736788,-14,3,5,3,-9,-7,-22,39
16:29:03:742801,-12,-10,3,0,2,-4,-25,31
16:29:03:751041,-12,-10,3,0,2,-4,-25,31
16:29:03:751772,9,1,-10,-7,-3,3,30,-25
16:29:03:766058,-5,14,13,1,6,9,-3,22
16:29:03:766785,-5,14,13,1,6,9,-3,22
16:29:03:772782,1,-3,22,8,2,1,-5,-30
16:29:03:780288,-4,0,-3,-3,-8,-5,-6,-11
16:29:03:787994,-4,0,-3,-3,-8,-5,-6,-11
16:29:03:795410,10,2,12,24,22,4,-4,-4
16:29:03:802784,-12,-6,20,7,-2,-10,-9,-37
16:29:03:811074,-12,-6,20,7,-2,-10,-9,-37
16:29:03:811924,-1,-8,-4,-10,-16,-7,-20,7
16:29:03:826682,26,-3,-21,-5,5,3,23,33
16:29:03:827526,26,-3,-21,-5,5,3,23,33
16:29:03:832772,-15,-1,-23,-7,-9,-8,-47,-42
16:29:03:848529,1,-1,-9,-9,0,-4,-6,61
16:29:03:849397,1,-1,-9,-9,0,-4,-6,61
16:29:03:855272,17,23,-1,4,-3,0,29,-7
16:29:03:862807,-14,-18,-2,-1,3,3,-33,16
16:29:03:870430,-14,-18,-2,-1,3,3,-33,16
16:29:03:894814,5,-26,-25,-6,-5,-2,-16,12
16:29:03:895666,-5,-6,-10,5,12,4,7,-29
16:29:03:896410,-5,-6,-10,5,12,4,7,-29
16:29:03:897290,2,-7,-25,-3,-7,-4,0,-28
16:29:03:908533,7,3,-1,10,8,0,14,-7
16:29:03:909410,7,3,-1,10,8,0,14,-7
16:29:03:915410,-5,4,10,-31,-18,-8,-1,7
16:29:03:922808,8,14,12,-1,12,10,55,21
16:29:03:930400,8,14,12,-1,12,10,55,21
16:29:03:937794,-2,20,11,1,-6,-9,-49,-29
16:29:03:946021,-20,-6,-9,-6,-6,-5,-36,-120
16:29:03:946765,-20,-6,-9,-6,-6,-5,-36,-120
16:29:03:952780,32,7,20,7,8,5,16,-9
16:29:03:968527,2,12,-15,2,-1,5,43,-1
16:29:03:969396,2,12,-15,2,-1,5,43,-1
16:29:03:975290,-4,-19,-3,-5,-4,-4,-16,4
16:29:03:982758,9,-12,-5,0,1,1,14,20
16:29:03:998571,9,-12,-5,0,1,1,14,20
16:29:03:999427,-17,-1,15,3,-6,-3,17,4
16:29:04:6063,-7,6,2,-2,5,1,3,18
16:29:04:6792,-7,6,2,-2,5,1,3,18
16:29:04:12812,2,-8,1,1,-2,1,-16,8
16:29:04:28520,-11,3,16,2,-15,-8,-30,-35
16:29:04:29405,-11,3,16,2,-15,-8,-30,-35
16:29:04:35259,8,-2,-14,-9,3,6,17,18
16:29:04:42759,7,5,-19,-10,-4,-4,-12,27
16:29:04:50403,7,5,-19,-10,-4,-4,-12,27
16:29:04:66648,-19,-3,6,6,5,4,33,3
16:29:04:67424,14,3,5,-1,-4,-6,-4,2
16:29:04:68269,14,3,5,-1,-4,-6,-4,2
16:29:04:72764,0,0,32,11,19,10,19,20
16:29:04:88584,-7,8,-19,6,8,-4,-9,28
16:29:04:89265,-7,8,-19,6,8,-4,-9,28
16:29:04:95492,-10,-8,-6,-1,-5,-5,-12,25
16:29:04:102844,-8,-3,13,1,-8,-1,23,-19
16:29:04:110436,-8,-3,13,1,-8,-1,23,-19
16:29:04:117767,0,7,-15,1,0,-3,-13,10
16:29:04:126022,-12,-11,-12,-1,-2,4,56,16
16:29:04:126785,-12,-11,-12,-1,-2,4,56,16
16:29:04:132771,-20,-6,-6,-7,-1,2,-29,29
16:29:04:148583,2,-6,19,2,-2,-2,-14,23
16:29:04:149430,2,-6,19,2,-2,-2,-14,23
16:29:04:155265,17,-14,-12,-6,-9,-1,1,-5
16:29:04:171028,-9,-16,3,-9,-4,-1,-19,-19
16:29:04:171773,-9,-16,3,-9,-4,-1,-19,-19
16:29:04:177833,8,0,5,-10,-14,-5,-6,-21
16:29:04:186062,0,6,11,4,4,4,10,13
16:29:04:186819,0,6,11,4,4,4,10,13
16:29:04:192802,-9,-24,-17,0,-3,-4,3,-31
16:29:04:208301,20,-6,0,-9,-8,-6,47,3
16:29:04:216031,20,-6,0,-9,-8,-6,47,3
16:29:04:216795,-6,22,17,8,2,7,40,-18
16:29:04:222796,-24,-5,-9,-3,2,0,-16,-18
16:29:04:230429,-24,-5,-9,-3,2,0,-16,-18
16:29:04:237833,-2,6,-9,13,1,4,-1,-15
16:29:04:254166,0,-8,-16,-5,1,1,-9,-6
16:29:04:254908,0,-8,-16,-5,1,1,-9,-6
16:29:04:255792,-9,1,-6,4,-8,-9,-17,22
16:29:04:276666,-5,3,-10,-7,-1,-3,-31,-23
16:29:04:277573,-5,3,-10,-7,-1,-3,-31,-23
16:29:04:278434,5,2,11,3,2,2,4,-54
16:29:04:282797,0,6,29,2,-3,0,32,17
16:29:04:290404,0,6,29,2,-3,0,32,17
16:29:04:297791,4,-21,0,3,7,4,8,-12
16:29:04:306070,-8,-5,-2,2,0,-1,-14,-6
16:29:04:306798,-8,-5,-2,2,0,-1,-14,-6
16:29:04:312827,19,14,-11,-6,-1,2,36,36
16:29:04:328521,8,9,-5,-2,-4,0,-16,21
16:29:04:329388,8,9,-5,-2,-4,0,-16,21
16:29:04:343403,5,16,11,9,-3,-6,-7,12
16:29:04:344274,-7,-11,-13,-1,5,2,-42,-51
16:29:04:350427,-7,-11,-13,-1,5,2,-42,-51
16:29:04:357809,-14,-8,-1,-1,3,-1,7,5
16:29:04:366082,1,4,-10,-8,-7,-7,-40,34
16:29:04:366891,1,4,-10,-8,-7,-7,-40,34
16:29:04:372775,-5,10,-14,4,9,0,-35,-25
16:29:04:388554,-2,2,15,-2,1,-4,-24,-75
16:29:04:389397,-2,2,15,-2,1,-4,-24,-75
16:29:04:395278,20,17,6,-6,-7,-5,-17,18
16:29:04:402801,-10,1,-5,1,-3,-2,45,-44
16:29:04:410391,-10,1,-5,1,-3,-2,45,-44
16:29:04:417788,-15,13,6,-4,10,2,48,-27
16:29:04:426017,6,-5,-10,-9,-5,1,-9,-18
16:29:04:426814,6,-5,-10,-9,-5,1,-9,-18
16:29:04:432811,-1,-9,5,-1,3,-4,-13,-7
16:29:04:448893,2,-2,-30,-27,-7,-2,13,12
16:29:04:449809,2,-2,-30,-27,-7,-2,13,12
16:29:04:455402,-9,-1,-7,-4,0,-1,-15,20
16:29:04:462800,7,-4,1,13,4,-3,-12,83
16:29:04:470421,7,-4,1,13,4,-3,-12,83
16:29:04:477765,14,-6,19,0,-7,-1,1,36
16:29:04:486068,21,4,-8,2,-6,2,12,-6
16:29:04:486894,21,4,-8,2,-6,2,12,-6
16:29:04:492812,-13,-14,-11,5,3,1,12,28
16:29:04:508527,-5,4,-6,0,6,2,47,100
16:29:04:509257,-5,4,-6,0,6,2,47,100
16:29:04:515416,-11,-12,-9,-12,-10,-4,-27,-33
16:29:04:522773,-5,-25,4,4,-3,-7,-30,-15
16:29:04:530443,-5,-25,4,4,-3,-7,-30,-15
16:29:04:537775,0,11,-5,-1,7,-1,-27,11
16:29:04:554197,-4,-1,-6,7,-6,-4,-10,-22
16:29:04:554894,-4,-1,-6,7,-6,-4,-10,-22
16:29:04:555768,0,-2,3,5,-1,1,-26,-114
16:29:04:568536,-3,9,24,10,0,0,-42,-35
16:29:04:569408,-3,9,24,10,0,0,-42,-35
16:29:04:575454,-6,-11,-4,-6,-5,-1,-8,-16
16:29:04:582786,-3,7,0,2,5,-1,-1,-6
16:29:04:590438,-3,7,0,2,5,-1,-1,-6
16:29:04:597796,1,-3,-2,-1,-5,-1,0,25
16:29:04:606040,5,-1,0,1,2,2,6,8
16:29:04:606788,5,-1,0,1,2,2,6,8
16:29:04:612803,-8,-16,-4,6,-6,-7,10,11
16:29:04:628558,1,8,5,1,14,6,34,-44
16:29:04:629343,1,8,5,1,14,6,34,-44
16:29:04:635434,-19,-4,2,-3,-10,-4,23,23
16:29:04:642801,-16,-1,4,-5,-3,-6,-10,-28
16:29:04:650426,-16,-1,4,-5,-3,-6,-10,-28
16:29:04:657786,12,26,-3,-13,1,-3,-19,51
16:29:04:666031,3,-1,9,-1,-8,-6,-8,-3
16:29:04:666776,3,-1,9,-1,-8,-6,-8,-3
16:29:04:672783,12,-1,2,-6,9,4,8,-2
16:29:04:688523,3,-12,-2,-9,-3,-4,-10,15
16:29:04:689410,3,-12,-2,-9,-3,-4,-10,15
16:29:04:695312,-4,-10,-3,1,-9,1,25,-3
16:29:04:702770,-6,-11,-1,-5,1,6,48,25
16:29:04:710406,-6,-11,-1,-5,1,6,48,25
16:29:04:726696,0,-13,-14,-3,-6,-5,-9,-29
16:29:04:727412,6,22,-1,2,-1,-4,-17,-24
16:29:04:728273,6,22,-1,2,-1,-4,-17,-24
16:29:04:732774,7,-4,4,6,7,0,-13,-2
16:29:04:748532,3,-11,-2,2,-5,-1,-13,16
16:29:04:749276,3,-11,-2,2,-5,-1,-13,16
16:29:04:755414,-9,-17,-26,1,11,-1,-4,-4
16:29:04:770913,2,3,-15,-5,-9,-3,-4,-6
16:29:04:771789,2,3,-15,-5,-9,-3,-4,-6
16:29:04:777781,20,3,-16,-15,-1,4,4,-46
16:29:04:786047,6,0,-7,1,-3,-4,-12,-6
16:29:04:786790,6,0,-7,1,-3,-4,-12,-6
16:29:04:800400,-3,-2,10,-22,-8,-2,0,5
16:29:04:808552,-19,-1,3,-1,6,2,32,-3
16:29:04:809305,-19,-1,3,-1,6,2,32,-3
16:29:04:815404,11,-8,15,5,-5,-2,-1,18
16:29:04:831422,-6,-2,-21,-5,4,6,0,-10
16:29:04:832300,-6,-2,-21,-5,4,6,0,-10
16:29:04:837813,-7,23,25,0,0,4,2,7
16:29:04:845931,-12,4,3,22,-6,-2,-15,-5
16:29:04:846792,-12,4,3,22,-6,-2,-15,-5
16:29:04:860285,-6,6,11,1,3,1,-5,10
16:29:04:868522,4,-4,19,2,-5,-2,-8,3
16:29:04:869391,4,-4,19,2,-5,-2,-8,3
16:29:04:875434,-8,27,13,1,-2,-2,2,12
16:29:04:891030,-1,-6,-16,0,10,1,-7,-4
16:29:04:891808,-1,-6,-16,0,10,1,-7,-4
16:29:04:897791,-4,-18,3,7,13,3,7,32
16:29:04:906052,13,9,7,-1,-3,-6,-20,-6
16:29:04:906919,13,9,7,-1,-3,-6,-20,-6
16:29:04:920280,1,4,-40,5,2,3,-4,42
16:29:04:928528,-6,-11,8,-8,-9,-1,4,17
16:29:04:929425,-6,-11,8,-8,-9,-1,4,17
16:29:04:951644,9,18,11,14,10,2,2,-15
16:29:04:952436,0,3,22,-1,10,5,-3,13
16:29:04:953291,0,3,22,-1,10,5,-3,13
16:29:04:957773,4,-3,0,10,-14,-9,0,-6
16:29:04:966030,-6,-11,-3,-13,-1,-2,-3,-7
16:29:04:966776,-6,-11,-3,-13,-1,-2,-3,-7
16:29:04:980391,0,8,11,2,0,-3,-5,-8
16:29:04:988536,1,-8,0,6,-1,-3,18,20
16:29:04:989400,1,-8,0,6,-1,-3,18,20
16:29:05:2800,2,-4,-10,-18,-17,-10,-4,53
16:29:05:11033,2,-4,-10,-18,-17,-10,-4,53
16:29:05:11786,-22,4,-5,-9,10,7,19,-16
16:29:05:17788,-8,-23,-29,-9,-3,-3,-9,-13
16:29:05:26080,-8,-23,-29,-9,-3,-3,-9,-13
16:29:05:26832,12,3,-1,2,-21,-8,-15,5
16:29:05:40432,-1,5,9,-7,-2,-1,0,-24
16:29:05:48535,-1,5,9,-7,-2,-1,0,-24
16:29:05:49292,22,7,-7,24,4,1,0,8
16:29:05:55442,-2,1,8,-25,-6,1,0,-13
16:29:05:71118,-2,1,8,-25,-6,1,0,-13
16:29:05:71918,1,-3,-7,-10,-12,-5,8,32
16:29:05:77788,-7,-2,-28,3,4,1,-7,-31
16:29:05:86047,-7,-2,-28,3,4,1,-7,-31
16:29:05:86784,-6,2,10,6,0,-4,2,-33
16:29:05:109160,6,-5,-2,6,8,-2,0,60
16:29:05:110032,6,-5,-2,6,8,-2,0,60
16:29:05:110767,1,-20,-6,-12,-8,-1,-22,0
16:29:05:115300,-1,2,13,20,3,-1,5,-5
16:29:05:131521,-1,2,13,20,3,-1,5,-5
16:29:05:132285,-3,-15,-13,14,12,3,4,11
16:29:05:137790,3,12,12,-4,-3,-1,9,37
16:29:05:153536,3,12,12,-4,-3,-1,9,37
16:29:05:154407,-3,1,-10,-15,-13,7,2,-2
16:29:05:160328,-9,-8,-21,1,-4,-2,4,-5
16:29:05:168540,-9,-8,-21,1,-4,-2,4,-5
16:29:05:169453,-6,11,0,-11,-8,-9,4,89
16:29:05:182782,-11,-1,15,-3,-1,-2,9,-23
16:29:05:191030,-11,-1,15,-3,-1,-2,9,-23
16:29:05:191775,-3,-1,3,1,7,9,3,-55
16:29:05:197798,3,-8,3,1,-7,-3,-5,-20
16:29:05:206429,3,-8,3,1,-7,-3,-5,-20
16:29:05:220922,3,9,6,10,7,7,-6,-24
16:29:05:221831,3,1,-35,-4,-6,-1,-27,4
16:29:05:228541,3,1,-35,-4,-6,-1,-27,4
16:29:05:229411,5,-3,-7,-10,-17,-11,14,-11
16:29:05:235309,-6,-15,1,11,24,6,-20,-46
16:29:05:250811,-6,-15,1,11,24,6,-20,-46
16:29:05:258421,-15,18,15,-4,3,-5,-13,34
16:29:05:259312,12,18,16,3,-7,6,61,15
16:29:05:266437,12,18,16,3,-7,6,61,15
16:29:05:281031,2,-14,17,-6,9,1,-17,21
16:29:05:281774,-15,-8,1,1,-5,-5,23,2
16:29:05:288546,-15,-8,1,1,-5,-5,23,2
16:29:05:289290,3,-14,-1,-3,-1,-6,-34,5
16:29:05:295293,2,-6,10,3,-3,-3,-18,-7
16:29:05:311030,2,-6,10,3,-3,-3,-18,-7
16:29:05:311780,7,5,-21,-27,-6,-4,-9,-54
16:29:05:317827,9,-7,12,-7,19,8,-5,-1
16:29:05:326069,9,-7,12,-7,19,8,-5,-1
16:29:05:326813,-12,-14,-22,3,0,-2,-12,-37
16:29:05:340394,0,1,-24,1,-9,-4,-6,-7
16:29:05:348568,0,1,-24,1,-9,-4,-6,-7
16:29:05:349288,4,8,12,-3,2,3,22,-3
16:29:05:355297,-4,-16,-28,-2,-11,-5,-29,32
16:29:05:371122,-4,-16,-28,-2,-11,-5,-29,32
16:29:05:371813,2,-10,-23,-3,-6,-4,6,52
16:29:05:386669,-2,-7,-5,-12,2,1,-51,39
16:29:05:387540,-2,-7,-5,-12,2,1,-51,39
16:29:05:388417,4,-13,-14,3,-7,-8,-30,-4
16:29:05:400315,-7,-17,4,3,-8,-6,-32,-54
16:29:05:408607,-7,-17,4,3,-8,-6,-32,-54
16:29:05:409445,-2,9,10,4,-2,-3,-1,65
16:29:05:415283,-5,2,-3,10,4,2,19,-26
16:29:05:431083,-5,2,-3,10,4,2,19,-26
16:29:05:431794,-5,16,7,11,7,-1,-5,-45
16:29:05:437824,-1,6,-19,-6,-7,-2,12,2
16:29:05:453567,-1,6,-19,-6,-7,-2,12,2
16:29:05:454422,1,-12,5,-5,3,13,36,-6
16:29:05:469206,-18,7,2,-15,-12,-9,12,65
16:29:05:469945,-18,7,2,-15,-12,-9,12,65
16:29:05:470808,-6,2,-18,-12,-9,-7,-23,-10
16:29:05:475416,1,1,7,-7,3,8,16,-28
16:29:05:491088,1,1,7,-7,3,8,16,-28
16:29:05:491826,7,-3,-12,21,2,-1,30,22
16:29:05:497793,1,8,0,-5,-12,-7,-14,-30
16:29:05:506061,1,8,0,-5,-12,-7,-14,-30
16:29:05:506797,5,12,18,1,23,7,14,-43
16:29:05:520323,5,-22,-38,-6,-11,-10,18,29
16:29:05:536695,5,-22,-38,-6,-11,-10,18,29
16:29:05:537581,-5,-4,10,13,14,13,-2,69
16:29:05:538308,1,-1,7,-3,2,0,-14,-10
16:29:05:550857,1,-1,7,-3,2,0,-14,-10
16:29:05:558439,-2,-3,12,1,-18,-11,-15,-13
16:29:05:559306,7,16,18,10,5,6,31,-28
16:29:05:566078,7,16,18,10,5,6,31,-28
16:29:05:566839,-7,-7,1,17,9,4,-17,-47
16:29:05:580326,-5,-7,-2,-2,-8,-6,-8,-10
16:29:05:588613,-5,-7,-2,-2,-8,-6,-8,-10
16:29:05:589471,0,7,1,-7,-3,-4,-15,14
16:29:05:595320,6,-20,18,12,5,0,13,2
16:29:05:611030,6,-20,18,12,5,0,13,2
16:29:05:611829,-6,0,2,-6,3,-1,0,-28
16:29:05:617804,-2,17,1,1,5,-1,-21,-37
16:29:05:626056,-2,17,1,1,5,-1,-21,-37
16:29:05:626809,1,11,-1,-12,-10,-6,3,-11
16:29:05:640493,-3,4,-7,-31,-8,-2,-7,6
16:29:05:648564,-3,4,-7,-31,-8,-2,-7,6
16:29:05:649447,10,7,7,-20,-5,-5,1,-4
16:29:05:662859,0,11,-11,-5,1,1,-6,42
16:29:05:671429,0,11,-11,-5,1,1,-6,42
16:29:05:678442,-14,-2,-5,0,-3,0,-35,5
16:29:05:679297,13,-8,-7,15,4,0,25,26
16:29:05:686052,13,-8,-7,15,4,0,25,26
16:29:05:686832,-1,-29,-14,-3,-9,-4,1,5
16:29:05:700436,-5,0,13,8,1,-3,9,19
16:29:05:708542,-5,0,13,8,1,-3,9,19
16:29:05:709398,12,3,9,5,-6,4,20,10
16:29:05:722770,5,0,11,5,2,-2,-1,-2
16:29:05:731018,5,0,11,5,2,-2,-1,-2
16:29:05:731776,-28,7,-15,-2,-1,1,-1,-26
16:29:05:737825,-5,-22,14,-7,2,-3,-35,1
16:29:05:745404,-5,-22,14,-7,2,-3,-35,1
16:29:05:752784,11,9,4,14,3,-4,13,5
16:29:05:769151,-6,0,12,6,6,3,-1,-2
16:29:05:769901,-6,0,12,6,6,3,-1,-2
16:29:05:770837,-14,-45,-25,-6,1,-1,2,-18
16:29:05:782770,9,19,17,4,-4,-4,9,-33
16:29:05:791096,9,19,17,4,-4,-4,9,-33
16:29:05:791806,18,24,29,7,-3,-1,0,74
16:29:05:797766,-15,-5,30,-4,-3,2,-6,-10
16:29:05:805453,-15,-5,30,-4,-3,2,-6,-10
16:29:05:812834,40,10,-20,-9,3,-2,10,-15
16:29:05:829765,-2,21,-42,-31,-16,-7,-4,-20
16:29:05:830675,-2,21,-42,-31,-16,-7,-4,-20
16:29:05:831450,-10,-7,11,2,3,1,26,21
16:29:05:842786,5,-11,-13,22,0,0,-10,-11
16:29:05:851093,5,-11,-13,22,0,0,-10,-11
16:29:05:851818,-6,-20,-30,-23,-7,-7,-24,-51
16:29:05:857769,-32,-18,-22,9,0,-1,24,22
16:29:05:865427,-32,-18,-22,9,0,-1,24,22
16:29:05:872782,4,12,-6,-13,-2,3,-11,-48
16:29:05:880404,13,13,-24,10,-4,-6,-14,-19
16:29:05:888533,13,13,-24,10,-4,-6,-14,-19
16:29:05:889330,-18,8,-8,-46,-1,4,7,9
16:29:05:902784,5,2,36,6,5,5,-5,1
16:29:05:911038,5,2,36,6,5,5,-5,1
16:29:05:911782,5,-5,-1,28,-9,-4,-3,-13
16:29:05:917829,-12,10,45,15,8,1,4,-14
16:29:05:925407,-12,10,45,15,8,1,4,-14
16:29:05:932777,-21,-20,-39,-4,-9,-7,-6,-19
16:29:05:940279,-4,-2,-36,-1,-1,-1,-11,10
16:29:05:956097,-4,-2,-36,-1,-1,-1,-11,10
16:29:05:956819,-3,-5,2,12,3,0,-6,-14
16:29:05:962788,-11,-9,-18,-9,0,1,0,-9
16:29:05:971157,-11,-9,-18,-9,0,1,0,-9
16:29:05:971775,1,22,-3,-7,-1,-2,-18,-1
16:29:05:977782,7,-5,-8,-5,0,3,3,-12
16:29:05:985474,7,-5,-8,-5,0,3,3,-12
16:29:05:992824,-3,-6,-20,-18,-3,-5,8,-33
16:29:06:283,15,-1,27,9,-1,2,1,-13
16:29:06:8586,15,-1,27,9,-1,2,1,-13
16:29:06:9409,-2,21,44,7,1,-5,-1,-14
16:29:06:22819,14,2,6,2,16,1,-7,19
16:29:06:31097,14,2,6,2,16,1,-7,19
16:29:06:31820,3,20,33,10,4,1,-3,32
16:29:06:37808,-11,1,-1,-10,-4,-2,3,-31
16:29:06:45432,-11,1,-1,-10,-4,-2,3,-31
16:29:06:52808,-4,5,3,7,-1,2,-14,2
16:29:06:60301,-5,-14,-21,1,-4,2,-2,-12
16:29:06:68536,-5,-14,-21,1,-4,2,-2,-12
16:29:06:69282,-12,-4,21,7,-9,-3,-10,22
16:29:06:82791,2,18,21,14,18,0,-12,-21
16:29:06:91104,2,18,21,14,18,0,-12,-21
16:29:06:91802,9,-5,4,33,12,-2,-28,3
16:29:06:97814,-3,-14,-3,-28,-20,-7,-10,-21
16:29:06:105435,-3,-14,-3,-28,-20,-7,-10,-21
16:29:06:112792,-6,-3,1,3,0,-1,9,9
16:29:06:120303,-6,-8,-29,-8,-11,-7,3,-34
16:29:06:128591,-6,-8,-29,-8,-11,-7,3,-34
16:29:06:129320,-16,-7,-11,4,1,5,40,-29
16:29:06:142823,4,5,-11,-6,-9,1,-15,57
16:29:06:150841,4,5,-11,-6,-9,1,-15,57
16:29:06:158472,1,-22,-18,-12,-3,0,14,4
16:29:06:159321,1,20,4,-10,-4,-3,15,47
16:29:06:165472,1,20,4,-10,-4,-3,15,47
16:29:06:172806,1,-9,1,-6,5,6,78,20
16:29:06:180409,28,-7,-13,-13,-2,2,47,-26
16:29:06:188596,28,-7,-13,-13,-2,2,47,-26
16:29:06:189466,10,-7,-9,-30,3,5,28,2
16:29:06:202841,2,-6,-8,3,-5,-8,-17,31
16:29:06:211415,2,-6,-8,3,-5,-8,-17,31
16:29:06:218449,1,4,-4,3,10,3,-55,17
16:29:06:219304,2,-25,4,3,-4,-1,-28,-39
16:29:06:225412,2,-25,4,3,-4,-1,-28,-39
16:29:06:232818,3,30,-8,6,0,0,4,12
16:29:06:240320,-18,3,-4,5,-4,-7,-45,61
16:29:06:248552,-18,3,-4,5,-4,-7,-45,61
16:29:06:249427,-1,-9,4,-3,1,-6,3,-14
16:29:06:262790,-13,23,13,-8,-7,3,13,69
16:29:06:271096,-13,23,13,-8,-7,3,13,69
16:29:06:271791,-7,-14,9,-1,-2,-2,8,62
16:29:06:277788,-2,-3,5,4,-6,-10,41,-35
16:29:06:285441,-2,-3,5,4,-6,-10,41,-35
16:29:06:292830,30,-4,-2,6,-3,-2,-12,-29
16:29:06:300361,5,-5,4,-5,2,1,-30,-9
16:29:06:308599,5,-5,4,-5,2,1,-30,-9
16:29:06:309451,10,-1,22,5,-1,1,12,-59
16:29:06:322811,22,-7,21,7,7,2,-43,19
16:29:06:331094,22,-7,21,7,7,2,-43,19
16:29:06:331832,-3,1,4,2,1,-4,-26,-79
16:29:06:337810,-24,9,-41,-22,-3,-3,19,-70
16:29:06:345434,-24,9,-41,-22,-3,-3,19,-70
16:29:06:352813,-18,8,-2,-5,-3,2,-10,-4
16:29:06:360280,-9,27,31,11,5,-1,2,54
16:29:06:368558,-9,27,31,11,5,-1,2,54
16:29:06:369345,-9,-6,-29,-1,-14,-11,-27,-24
16:29:06:391667,12,20,4,2,20,4,30,20
16:29:06:392568,12,20,4,2,20,4,30,20
16:29:06:393294,12,3,-18,-2,-5,-4,-15,62
16:29:06:397795,-3,9,0,2,-5,0,11,-55
16:29:06:405437,-3,9,0,2,-5,0,11,-55
16:29:06:412792,-13,-4,-5,10,-8,-3,0,3
16:29:06:420308,13,-5,-11,1,10,10,-12,67
16:29:06:428567,13,-5,-11,1,10,10,-12,67
16:29:06:429439,-18,-23,17,-8,-9,-4,20,8
16:29:06:442833,5,-21,-10,-3,-8,0,14,4
16:29:06:451076,5,-21,-10,-3,-8,0,14,4
16:29:06:451821,-3,-40,19,-6,5,10,22,40
16:29:06:457825,-27,-26,-28,-9,-5,-7,-13,-65
16:29:06:465426,-27,-26,-28,-9,-5,-7,-13,-65
16:29:06:472823,20,21,-5,5,10,7,28,-25
16:29:06:480333,-15,-20,26,8,-1,2,7,-27
16:29:06:496077,-15,-20,26,8,-1,2,7,-27
16:29:06:496821,-1,2,-10,-7,-5,-1,-8,9
16:29:06:503094,-4,-3,-6,-4,-1,-5,16,47
16:29:06:511076,-4,-3,-6,-4,-1,-5,16,47
16:29:06:511820,7,1,-18,-11,8,1,-10,-2
16:29:06:517847,-3,-13,2,-1,3,2,0,-40
16:29:06:525463,-3,-13,2,-1,3,2,0,-40
16:29:06:532835,-13,16,17,10,-1,0,-5,-1
16:29:06:540452,10,-11,7,-11,-6,-5,15,-17
16:29:06:548566,10,-11,7,-11,-6,-5,15,-17
16:29:06:549331,13,-7,-15,1,2,-4,-13,18
16:29:06:562813,-6,3,10,6,-2,-1,-2,-9
16:29:06:579201,-6,3,10,6,-2,-1,-2,-9
16:29:06:580065,-6,16,-4,-7,-11,-9,-43,-72
16:29:06:580807,7,7,1,9,12,8,25,27
16:29:06:585313,7,7,1,9,12,8,25,27
16:29:06:600959,-7,13,24,3,-4,-4,0,6
16:29:06:601829,-22,-6,25,10,4,6,5,16
16:29:06:608575,-22,-6,25,10,4,6,5,16
16:29:06:609428,10,-23,5,8,3,0,-22,-41
16:29:06:622828,20,14,-1,-11,-7,-7,4,-33
16:29:06:631089,20,14,-1,-11,-7,-7,4,-33
16:29:06:631784,14,11,-6,-2,1,2,-13,-14
16:29:06:637855,-7,-11,-22,-2,9,8,3,-7
16:29:06:645429,-7,-11,-22,-2,9,8,3,-7
16:29:06:652842,0,-14,-5,5,-5,1,41,26
16:29:06:660325,-13,26,15,17,-4,0,-19,-13
16:29:06:667784,-13,26,15,17,-4,0,-19,-13
16:29:06:675333,-15,-10,-32,-7,-1,-4,-5,17
16:29:06:682825,-15,5,-11,-5,-12,-3,1,-45
16:29:06:691086,-15,5,-11,-5,-12,-3,1,-45
16:29:06:691816,7,6,10,-4,-7,-8,-22,19
16:29:06:705695,1,-35,-9,-6,7,-7,-32,86
16:29:06:713626,1,-35,-9,-6,7,-7,-32,86
16:29:06:714357,-4,-10,7,3,6,0,2,39
16:29:06:720493,29,3,-19,-17,-10,-9,-6,17
16:29:06:736062,29,3,-19,-17,-10,-9,-6,17
16:29:06:736806,-15,-2,-4,-9,-6,-2,1,7
16:29:06:742813,-19,-13,-30,-5,-10,-3,-32,39
16:29:06:751102,-19,-13,-30,-5,-10,-3,-32,39
16:29:06:751850,-20,-7,5,4,9,1,-30,-102
16:29:06:774187,-2,24,37,6,6,7,8,-60
16:29:06:775081,-2,24,37,6,6,7,8,-60
16:29:06:775806,-8,1,-21,-4,-15,-2,1,23
16:29:06:780309,9,8,7,7,-2,-3,2,-23
16:29:06:787940,9,8,7,7,-2,-3,2,-23
16:29:06:795314,10,-11,-5,3,12,3,8,20
16:29:06:802826,16,-12,-41,-14,-11,-6,6,2
16:29:06:810945,16,-12,-41,-14,-11,-6,6,2
16:29:06:811803,-2,-11,1,-9,-4,0,8,8
16:29:06:826044,9,-11,-13,-5,9,1,-4,9
16:29:06:826797,9,-11,-13,-5,9,1,-4,9
16:29:06:832829,-15,-5,-5,-1,-14,6,9,40
16:29:06:840318,-6,16,4,-3,-2,1,19,-10
16:29:06:856071,-6,16,4,-3,-2,1,19,-10
16:29:06:856800,2,17,13,5,-9,-10,-23,-50
16:29:06:862828,0,-2,16,12,1,-1,-16,-14
16:29:06:871674,0,-2,16,12,1,-1,-16,-14
16:29:06:872418,-9,-7,13,1,11,0,-1,-2
16:29:06:886048,-1,-22,-15,0,-3,-2,-1,0
16:29:06:886815,-1,-22,-15,0,-3,-2,-1,0
16:29:06:892809,20,-2,52,8,0,0,2,17
16:29:06:900300,-21,-26,-27,-12,-9,-1,-24,15
16:29:06:907960,-21,-26,-27,-12,-9,-1,-24,15
16:29:06:915280,8,0,-16,4,13,7,3,-44
16:29:06:922794,13,28,17,1,-6,-1,-19,-30
16:29:06:931106,13,28,17,1,-6,-1,-19,-30
16:29:06:931820,-2,24,-3,-7,-5,-10,-27,-10
16:29:06:946076,-8,-11,2,-6,2,-3,8,49
16:29:06:946816,-8,-11,2,-6,2,-3,8,49
16:29:06:952848,3,-1,1,0,-5,-3,22,66
16:29:06:960399,-3,-4,7,7,0,-4,9,-6
16:29:06:967857,-3,-4,7,7,0,-4,9,-6
16:29:06:975339,-12,3,-11,-15,-7,4,-11,9
16:29:06:982815,-11,-23,-25,1,-5,3,9,-12
16:29:06:991079,-11,-23,-25,1,-5,3,9,-12
16:29:06:991811,-1,26,-16,0,0,1,23,26
16:29:07:5928,1,7,5,4,-4,-1,16,-3
16:29:07:6828,1,7,5,4,-4,-1,16,-3
16:29:07:12795,0,-23,-22,2,9,0,3,-6
16:29:07:20298,5,-2,12,1,-1,-5,9,-13
16:29:07:27799,5,-2,12,1,-1,-5,9,-13
16:29:07:35303,4,8,-4,-3,6,-3,-8,-29
16:29:07:51702,-13,6,0,2,-1,-3,-9,4
16:29:07:52437,-13,6,0,2,-1,-3,-9,4
16:29:07:53294,0,-20,-2,-9,-5,2,35,-6
16:29:07:66061,-3,12,23,7,10,5,21,-38
16:29:07:66807,-3,12,23,7,10,5,21,-38
16:29:07:72794,7,13,16,4,4,5,29,19
16:29:07:80337,7,-1,11,-2,-2,2,-10,5
16:29:07:87809,7,-1,11,-2,-2,2,-10,5
16:29:07:95319,1,-11,-3,4,4,-1,-13,3
16:29:07:102828,-11,3,6,2,4,3,-2,7
16:29:07:111038,-11,3,6,2,4,3,-2,7
16:29:07:111792,-5,3,7,-7,-4,-2,-9,-12
16:29:07:125913,28,-8,-12,-4,-11,-2,58,-23
16:29:07:126846,28,-8,-12,-4,-11,-2,58,-23
16:29:07:132822,-5,6,-3,5,8,1,37,22
16:29:07:140301,-11,8,11,0,-4,-8,-15,-27
16:29:07:147814,-11,8,11,0,-4,-8,-15,-27
16:29:07:155335,1,1,-1,1,-6,-9,-31,1
16:29:07:162823,-10,1,-9,-11,-4,-1,-21,5
16:29:07:171075,-10,1,-9,-11,-4,-1,-21,5
16:29:07:171809,-3,9,15,5,-4,-4,-19,-12
16:29:07:185931,5,13,-6,-4,1,-2,-18,11
16:29:07:186802,5,13,-6,-4,1,-2,-18,11
16:29:07:192802,-12,-59,4,3,10,9,44,11
16:29:07:200293,22,2,-21,-18,-11,-7,-30,-16
16:29:07:207798,22,2,-21,-18,-11,-7,-30,-16
16:29:07:223420,-8,-5,-1,2,-7,1,-12,32
16:29:07:224283,-5,-6,2,8,5,4,-5,68
16:29:07:231041,-5,-6,2,8,5,4,-5,68
16:29:07:231799,-7,7,-10,-5,-9,-4,3,58
16:29:07:245938,-3,13,-6,-9,-8,-9,-12,-29
16:29:07:246781,-3,13,-6,-9,-8,-9,-12,-29
16:29:07:252806,-7,3,-4,1,13,4,1,-21
16:29:07:260311,-5,3,13,7,0,-2,-27,-35
16:29:07:267817,-5,3,13,7,0,-2,-27,-35
16:29:07:275298,5,13,-17,1,7,1,0,5
16:29:07:282813,1,1,4,4,-4,-2,-3,2
16:29:07:291101,1,1,4,4,-4,-2,-3,2
16:29:07:291825,13,10,-11,-9,-4,-1,8,5
16:29:07:305965,-1,34,-1,8,-3,-1,34,-2
16:29:07:306828,-1,34,-1,8,-3,-1,34,-2
16:29:07:329198,5,-19,-13,-9,-12,-8,-14,-38
16:29:07:329939,-3,-2,-17,-21,3,2,5,21
16:29:07:330845,-3,-2,-17,-21,3,2,5,21
16:29:07:335301,5,2,11,3,0,-1,-15,-25
16:29:07:342802,0,2,14,5,-1,2,-17,36
16:29:07:351099,0,2,14,5,-1,2,-17,36
16:29:07:351807,-27,8,1,-10,-12,-7,18,-8
16:29:07:365928,-6,0,-9,10,8,5,-13,-28
16:29:07:366778,-6,0,-9,10,8,5,-13,-28
16:29:07:372798,-9,4,23,4,5,-1,-13,3
16:29:07:380305,-5,-20,-10,-3,2,0,23,6
16:29:07:396083,-5,-20,-10,-3,2,0,23,6
16:29:07:396810,8,-2,-22,-2,-9,-6,-58,-16
16:29:07:402804,4,-7,3,8,-1,-1,4,4
16:29:07:411100,4,-7,3,8,-1,-1,4,4
16:29:07:411809,2,1,-22,-9,4,0,-3,-3
16:29:07:426067,9,-2,6,8,-7,1,36,-2
16:29:07:426801,9,-2,6,8,-7,1,36,-2
16:29:07:432821,-9,-3,19,18,-6,-8,-8,32
16:29:07:448626,2,-9,-21,-55,-10,-1,-2,-11
16:29:07:449475,2,-9,-21,-55,-10,-1,-2,-11
16:29:07:455292,7,16,15,2,6,1,9,-31
16:29:07:462845,-5,4,-2,8,4,-5,-49,-74
16:29:07:471137,-5,4,-2,8,4,-5,-49,-74
16:29:07:471836,10,-6,-16,-2,1,6,13,-47
16:29:07:502346,-1,5,9,7,8,5,-20,-24
16:29:07:503113,-1,5,9,7,8,5,-20,-24
16:29:07:503937,2,-2,-4,1,-11,-5,-2,0
16:29:07:504689,-15,-13,17,-4,3,-2,13,14
16:29:07:507814,-15,-13,17,-4,3,-2,13,14
16:29:07:515317,10,-10,-24,0,2,4,7,15
16:29:07:522817,-15,0,-1,7,3,-2,2,17
16:29:07:531446,-15,0,-1,7,3,-2,2,17
16:29:07:537807,-8,16,5,-5,-8,-3,4,10
16:29:07:546071,-19,-5,0,4,5,5,-17,0
16:29:07:546817,-19,-5,0,4,5,5,-17,0
16:29:07:552868,-9,6,6,-14,-8,-7,-5,-15
16:29:07:560338,-10,-9,-3,-9,-6,-7,27,-8
16:29:07:567844,-10,-9,-3,-9,-6,-7,27,-8
16:29:07:575329,29,2,15,5,3,-1,-23,11
16:29:07:592082,14,-2,-2,9,-9,-11,-17,23
16:29:07:598541,14,-2,-2,9,-9,-11,-17,23
16:29:07:599321,-9,-5,-8,-16,-1,5,9,-1
16:29:07:606059,2,-22,-25,-5,-7,-4,10,2
16:29:07:606801,2,-22,-25,-5,-7,-4,10,2
16:29:07:620313,-11,-17,2,-4,-14,-2,21,-8
16:29:07:628587,-1,13,18,5,5,2,21,17
16:29:07:629461,-1,13,18,5,5,2,21,17
16:29:07:635322,4,5,-3,-4,-2,-3,18,-16
16:29:07:642829,-1,-18,-14,-9,4,2,13,-19
16:29:07:658574,-1,-18,-14,-9,4,2,13,-19
16:29:07:659317,-16,-3,-14,-10,0,0,-6,-1
16:29:07:674247,6,-6,-10,-1,-6,2,-11,31
16:29:07:675010,6,-6,-10,-1,-6,2,-11,31
16:29:07:675849,-2,-4,7,13,8,-4,33,100
16:29:07:688458,-2,-8,15,25,4,-1,-9,25
16:29:07:689334,-2,-8,15,25,4,-1,-9,25
16:29:07:695305,-4,8,5,-1,-6,-8,-33,-31
16:29:07:702816,0,-8,-6,7,8,3,12,-5
16:29:07:718470,0,-8,-6,7,8,3,12,-5
16:29:07:719321,-18,-8,-6,-2,-4,-1,6,29
16:29:07:725945,2,2,8,-8,-1,1,-9,-30
16:29:07:726836,2,2,8,-8,-1,1,-9,-30
16:29:07:732813,5,12,8,3,5,0,-40,15
16:29:07:756796,2,6,-38,-8,-12,-8,-15,-1
16:29:07:757595,2,6,-38,-8,-12,-8,-15,-1
16:29:07:758318,-30,19,19,0,4,7,1,-75
16:29:07:762820,23,0,-7,2,6,11,11,-47
16:29:07:778591,23,0,-7,2,6,11,11,-47
16:29:07:779305,-6,7,11,6,-3,0,-41,-42
16:29:07:786079,-9,18,-6,-5,-2,-3,4,1
16:29:07:786781,-9,18,-6,-5,-2,-3,4,1
16:29:07:792803,14,-10,9,8,1,0,9,9
16:29:07:808540,6,-1,1,-4,-4,-6,-4,8
16:29:07:809451,6,-1,1,-4,-4,-6,-4,8
16:29:07:815316,2,13,-10,-2,-2,-4,32,13
16:29:07:822787,6,-18,3,-6,-5,-3,2,15
16:29:07:830464,6,-18,3,-6,-5,-3,2,15
16:29:07:837794,13,15,-1,7,1,-2,-2,18
16:29:07:845956,14,-6,13,4,0,-6,-29,-75
16:29:07:846796,14,-6,13,4,0,-6,-29,-75
16:29:07:852792,27,10,26,6,5,8,24,12
16:29:07:868569,-7,3,14,-5,-1,-2,-9,12
16:29:07:869494,-7,3,14,-5,-1,-2,-9,12
16:29:07:875304,-3,-13,3,-38,-12,-3,-10,-7
16:29:07:882849,-17,0,24,-2,0,4,15,9
16:29:07:890325,-17,0,24,-2,0,4,15,9
16:29:07:897833,-9,17,-17,0,-4,-6,-6,0
16:29:07:905935,-9,25,1,-14,-8,-4,-2,12
16:29:07:906826,-9,25,1,-14,-8,-4,-2,12
16:29:07:912839,9,12,7,10,6,1,-12,-8
16:29:07:928444,11,10,-9,-4,-3,-3,2,0
16:29:07:929330,11,10,-9,-4,-3,-3,2,0
16:29:07:935332,-9,-39,-2,11,4,-5,2,0
16:29:07:951100,-14,-18,9,-12,-1,4,0,32
16:29:07:951838,-14,-18,9,-12,-1,4,0,32
16:29:07:966446,-5,-19,-9,-13,-14,-8,-8,-22
16:29:07:967164,6,7,9,3,-6,0,1,12
16:29:07:981192,6,7,9,3,-6,0,1,12
16:29:07:981813,-8,-13,-24,6,6,2,-5,7
16:29:07:988608,-6,-29,-3,29,3,-3,1,-1
16:29:07:989326,-6,-29,-3,29,3,-3,1,-1
16:29:07:995318,-3,-26,-9,7,2,1,-1,-50
16:29:08:2918,2,14,-4,15,0,-2,-6,-47
16:29:08:10451,2,14,-4,15,0,-2,-6,-47
16:29:08:17821,25,15,9,-19,-5,-4,-14,1
16:29:08:41714,-3,9,5,0,7,1,14,35
16:29:08:42496,-3,9,5,0,7,1,14,35
16:29:08:43290,7,-4,-42,1,-8,-4,-5,2
16:29:08:56667,-19,-4,10,-2,-4,-1,-16,25
16:29:08:57421,-19,-4,10,-2,-4,-1,-16,25
16:29:08:58318,2,16,9,4,-5,-4,-13,35
16:29:08:62817,-10,-10,-23,-8,-2,2,-5,4
16:29:08:70431,-10,-10,-23,-8,-2,2,-5,4
16:29:08:77815,-20,-9,0,-7,0,2,-10,53
16:29:08:85938,20,5,-9,-2,10,3,-1,-1
16:29:08:86799,20,5,-9,-2,10,3,-1,-1
16:29:08:92813,-3,-21,-20,13,1,1,4,-22
16:29:08:108443,-9,-12,4,15,-3,-5,15,6
16:29:08:109295,-9,-12,4,15,-3,-5,15,6
16:29:08:115311,-1,16,7,-9,-8,1,12,-6
16:29:08:122811,11,-16,-32,-5,1,-4,7,5
16:29:08:130434,11,-16,-32,-5,1,-4,7,5
16:29:08:155573,-8,13,13,3,0,-1,-17,-11
16:29:08:156306,15,0,2,0,1,0,60,64
16:29:08:157214,15,0,2,0,1,0,60,64
16:29:08:157942,12,-10,12,-2,9,5,-6,0
16:29:08:168586,-9,23,8,-1,1,-2,-22,-26
16:29:08:169452,-9,23,8,-1,1,-2,-22,-26
16:29:08:175303,5,-10,-16,-23,-3,0,11,9
16:29:08:182811,-6,-11,-15,-5,-8,-3,-10,-15
16:29:08:190311,-6,-11,-15,-5,-8,-3,-10,-15
16:29:08:197835,-10,-13,16,33,9,-3,-9,-4
16:29:08:205952,-5,-28,-18,-34,-12,1,-7,-5
16:29:08:206829,-5,-28,-18,-34,-12,1,-7,-5
16:29:08:212824,-13,-33,13,-8,7,5,10,-11
16:29:08:228440,19,12,18,-3,-4,-2,32,-18
16:29:08:229317,19,12,18,-3,-4,-2,32,-18
16:29:08:235328,5,12,-4,1,-2,-6,17,2
16:29:08:250950,-7,-9,-4,-2,13,9,14,-12
16:29:08:251815,-7,-9,-4,-2,13,9,14,-12
16:29:08:257842,-8,-2,23,-3,-9,-5,3,3
16:29:08:265952,-5,-25,-38,-19,-6,3,-19,3
16:29:08:266836,-5,-25,-38,-19,-6,3,-19,3
16:29:08:272829,0,5,-28,-7,3,2,-26,-31
16:29:08:288447,11,30,28,9,-8,-7,-23,5
16:29:08:289320,11,30,28,9,-8,-7,-23,5
16:29:08:295332,-3,-12,-2,3,-10,-4,1,-9
16:29:08:302833,-7,0,3,0,12,4,-2,14
16:29:08:310365,-7,0,3,0,12,4,-2,14
16:29:08:317810,3,5,8,9,0,0,-15,5
16:29:08:325953,-6,11,-2,-1,-3,-5,-16,-9
16:29:08:326787,-6,11,-2,-1,-3,-5,-16,-9
16:29:08:332818,5,7,9,-4,-7,-7,3,55
16:29:08:348435,4,12,18,8,3,-1,9,45
16:29:08:349297,4,12,18,8,3,-1,9,45
16:29:08:355329,11,5,-18,-5,0,4,-1,-16
16:29:08:362852,12,45,29,0,-6,-4,-4,-22
16:29:08:370484,12,45,29,0,-6,-4,-4,-22
16:29:08:377826,27,-2,4,-2,12,1,-6,-5
16:29:08:385941,-9,-17,-19,7,-2,-1,13,-27
16:29:08:386803,-9,-17,-19,7,-2,-1,13,-27
16:29:08:392823,-9,25,7,15,-7,-4,8,-12
16:29:08:417057,-9,-25,6,4,-2,-1,-13,-4
16:29:08:440440,-9,-25,6,4,-2,-1,-13,-4
16:29:08:441303,-17,-15,4,9,0,-3,7,-17
16:29:08:442077,-7,2,1,-3,-12,4,-14,17
16:29:08:442940,-7,2,1,-3,-12,4,-14,17
16:29:08:446711,-3,6,-5,-3,5,4,1,-10
16:29:08:447448,-2,-25,-14,-1,6,-4,13,14
16:29:08:448326,-2,-25,-14,-1,6,-4,13,14
16:29:08:452820,-9,-6,-15,-12,-4,-2,0,-13
16:29:08:468440,-3,-7,-5,-9,5,0,6,-47
16:29:08:469301,-3,-7,-5,-9,5,0,6,-47
16:29:08:483435,-7,24,-5,-19,-4,-5,-7,28
16:29:08:484294,-5,0,3,11,-3,-3,-13,-36
16:29:08:490445,-5,0,3,11,-3,-3,-13,-36
16:29:08:497829,-2,14,-10,1,6,2,8,1
16:29:08:506059,4,12,-6,-6,-3,-4,-6,23
16:29:08:506809,4,12,-6,-6,-3,-4,-6,23
16:29:08:512809,-11,-5,-33,-8,-8,-8,3,11
16:29:08:536618,-7,-16,-19,12,-2,-2,-3,-18
16:29:08:537442,-7,-16,-19,12,-2,-2,-3,-18
16:29:08:538309,19,-1,32,-10,5,16,2,-4
16:29:08:542813,-2,-3,-37,-42,-9,-3,-7,21
16:29:08:550313,-2,-3,-37,-42,-9,-3,-7,21
16:29:08:557813,6,-17,-12,-1,-6,-6,14,10
16:29:08:565940,15,11,24,15,12,10,1,4
16:29:08:566821,15,11,24,15,12,10,1,4
16:29:08:580349,-9,-14,12,8,1,-3,-20,-6
16:29:08:588464,-26,37,-14,-2,-9,-6,-15,-27
16:29:08:589335,-26,37,-14,-2,-9,-6,-15,-27
16:29:08:595342,-5,11,-16,-10,0,1,6,-31
16:29:08:610954,-1,6,20,7,3,-1,14,18
16:29:08:611846,-1,6,20,7,3,-1,14,18
16:29:08:617828,-8,12,-34,2,-3,-3,46,15
16:29:08:625984,9,-21,-13,0,0,1,13,-10
16:29:08:626829,9,-21,-13,0,0,1,13,-10
16:29:08:640370,1,-15,28,1,-10,-9,-23,-62
16:29:08:648208,5,-9,8,6,11,4,-28,14
16:29:08:655975,5,-9,8,6,11,4,-28,14
16:29:08:656839,-5,-7,-3,-1,2,-1,-4,9
16:29:08:670970,-9,-5,4,-4,-12,-7,-17,-3
16:29:08:671826,-9,-5,4,-4,-12,-7,-17,-3
16:29:08:677850,-8,-4,50,-12,1,6,-3,15
16:29:08:685947,-1,-34,8,14,-1,0,-3,-16
16:29:08:686872,-1,-34,8,14,-1,0,-3,-16
16:29:08:700329,4,-11,-22,7,-3,-2,7,-6
16:29:08:708964,-2,3,-24,-3,4,4,5,33
16:29:08:715972,-2,3,-24,-3,4,4,5,33
16:29:08:716845,-8,12,16,6,0,1,-9,-13
16:29:08:731084,-1,19,7,-2,-5,-7,3,-11
16:29:08:731851,-1,19,7,-2,-5,-7,3,-11
16:29:08:737804,7,-23,2,-8,17,2,-8,-1
16:29:08:745954,-13,7,33,21,11,0,0,-10
16:29:08:746818,-13,7,33,21,11,0,0,-10
16:29:08:760334,2,9,19,11,-7,2,10,86
16:29:08:768456,14,0,-9,-10,-6,-4,-24,10
16:29:08:769313,14,0,-9,-10,-6,-4,-24,10
16:29:08:775334,-9,5,-9,-2,3,-7,8,-20
16:29:08:791108,-10,-32,8,-4,-3,1,13,-28
16:29:08:791816,-10,-32,8,-4,-3,1,13,-28
16:29:08:797820,0,0,-3,-12,-4,-1,33,-12
16:29:08:813215,9,58,24,-3,-11,-1,21,-11
16:29:08:821068,9,58,24,-3,-11,-1,21,-11
16:29:08:821810,-11,-66,-9,0,-3,-1,-31,-53
16:29:08:828589,-4,-6,-16,-5,-7,-5,-13,14
16:29:08:829325,-4,-6,-16,-5,-7,-5,-13,14
16:29:08:835300,-14,31,-20,-12,3,3,-2,13
16:29:08:850953,1,-19,-24,0,-3,-5,1,-18
16:29:08:851816,1,-19,-24,0,-3,-5,1,-18
16:29:08:866699,3,1,-17,-6,-9,0,-7,-1
16:29:08:867454,-4,13,-10,8,6,1,0,-28
16:29:08:868331,-4,13,-10,8,6,1,0,-28
16:29:08:889078,19,-12,5,10,-5,3,-1,6
16:29:08:889956,19,3,-48,-6,-7,-8,-23,35
16:29:08:890817,19,3,-48,-6,-7,-8,-23,35
16:29:08:895340,11,30,-11,-3,-7,-4,-7,-2
16:29:08:919226,-9,0,-9,-9,3,2,16,11
16:29:08:919964,-9,0,-9,-9,3,2,16,11
16:29:08:920825,5,25,-18,-1,-3,3,5,31
16:29:08:933432,4,-8,26,-1,1,-1,-29,24
16:29:08:934316,4,-8,26,-1,1,-1,-29,24
16:29:08:940305,-7,-9,-11,3,-9,-9,-6,-8
16:29:08:948448,-10,-20,-35,-10,-1,6,4,8
16:29:08:949316,-10,-20,-35,-10,-1,6,4,8
16:29:08:955328,-1,5,34,16,9,5,27,-25
16:29:08:970968,-1,5,34,16,9,5,27,-25
16:29:08:971817,2,14,30,7,12,-1,40,50
16:29:08:977871,6,-2,-6,-2,-1,-5,-34,-15
16:29:08:993495,6,-2,-6,-2,-1,-5,-34,-15
16:29:08:994326,-6,-10,27,-6,-11,-4,8,-20
16:29:09:321,-13,26,26,8,15,4,-13,-1
16:29:09:8442,-13,26,26,8,15,4,-13,-1
16:29:09:9372,-3,15,7,-5,-9,-10,-27,-31
16:29:09:15343,0,-9,-33,-8,-4,-3,-26,-32
16:29:09:30945,0,-9,-33,-8,-4,-3,-26,-32
16:29:09:31812,16,-15,-14,5,10,7,-6,-9
16:29:09:37829,0,-22,-24,-5,5,4,-30,-4
16:29:09:53588,0,-22,-24,-5,5,4,-30,-4
16:29:09:54445,-5,-18,6,-3,-11,-7,23,108
16:29:09:60319,-10,-31,-15,-3,-6,-6,-15,83
16:29:09:68447,-10,-31,-15,-3,-6,-6,-15,83
16:29:09:69311,-17,20,19,-5,-6,1,16,-20
16:29:09:75341,-14,-9,-27,-5,3,4,21,-15
16:29:09:99873,-14,-9,-27,-5,3,4,21,-15
16:29:09:105983,-3,-7,12,0,0,3,-42,-50
16:29:09:106806,3,24,28,5,-9,1,-3,-65
16:29:09:113579,3,24,28,5,-9,1,-3,-65
16:29:09:114434,-18,6,-22,-1,-6,-8,-9,-52
16:29:09:120344,0,-33,-35,-10,-1,3,28,-8
16:29:09:136687,0,-33,-35,-10,-1,3,28,-8
16:29:09:137442,-4,-21,10,-7,3,0,-13,-26
16:29:09:138316,-5,29,23,3,-7,-7,-3,-17
16:29:09:151098,-5,29,23,3,-7,-7,-3,-17
16:29:09:151810,5,-3,-28,-9,-2,0,-4,0
16:29:09:157815,16,-9,-2,6,-4,-3,-9,0
16:29:09:173455,16,-9,-2,6,-4,-3,-9,0
16:29:09:174305,-7,18,-15,7,4,2,-20,2
16:29:09:180354,-5,33,19,18,8,-1,1,18
16:29:09:188595,-5,33,19,18,8,-1,1,18
16:29:09:189335,-3,-34,-17,-15,-17,3,13,-18
16:29:09:211587,0,-17,-5,-6,-6,-8,-30,59
16:29:09:212462,0,-17,-5,-6,-6,-8,-30,59
16:29:09:213328,9,16,21,5,8,6,21,3
16:29:09:217831,-21,-47,8,-10,-3,-3,7,-22
16:29:09:233630,-21,-47,8,-10,-3,-3,7,-22
16:29:09:234479,-3,3,-17,-1,-3,-6,-19,26
16:29:09:240346,2,0,-12,-2,17,1,-14,3
16:29:09:248467,2,0,-12,-2,17,1,-14,3
16:29:09:249318,-1,-48,21,5,-1,-3,3,-56
16:29:09:255351,14,39,12,2,-7,-7,17,-19
16:29:09:271448,14,39,12,2,-7,-7,17,-19
16:29:09:272315,1,10,8,14,10,8,2,-20
16:29:09:277821,-5,-24,-16,2,-2,2,17,20
16:29:09:293593,-5,-24,-16,2,-2,2,17,20
16:29:09:294350,-3,11,26,0,-8,-9,7,-4
16:29:09:317368,-12,17,15,-1,6,4,-22,-1
16:29:09:318234,-12,17,15,-1,6,4,-22,-1
16:29:09:318953,18,-3,1,-5,-1,-3,25,65
16:29:09:319826,36,6,8,-6,-7,-3,7,2
16:29:09:330956,36,6,8,-6,-7,-3,7,2
16:29:09:331816,8,32,10,-6,0,-6,-11,4
16:29:09:337852,-14,11,47,16,1,3,20,6
16:29:09:353477,-14,11,47,16,1,3,20,6
16:29:09:354346,-2,-4,7,-9,7,2,6,0
16:29:09:360357,-1,-45,-11,-3,0,-1,-10,-11
16:29:09:368479,-1,-45,-11,-3,0,-1,-10,-11
16:29:09:369315,-9,17,-18,6,-12,-8,-15,-29
16:29:09:375339,6,2,-6,1,9,10,33,54
16:29:09:390967,6,2,-6,1,9,10,33,54
16:29:09:391835,17,-15,-10,-6,-2,-1,4,16
16:29:09:397839,-1,-17,-30,-7,-9,-6,6,-28
16:29:09:413950,-1,-17,-30,-7,-9,-6,6,-28
16:29:09:414697,-18,6,-6,3,3,-2,-19,-5
16:29:09:420356,1,-4,8,-3,5,1,1,5
16:29:09:428476,1,-4,8,-3,5,1,1,5
16:29:09:429335,-5,-21,-2,0,1,1,-5,-7
16:29:09:435332,-4,53,4,-2,-13,-12,-51,19
16:29:09:459208,-4,53,4,-2,-13,-12,-51,19
16:29:09:459957,-2,13,8,-3,-15,1,-13,-6
16:29:09:460817,-30,-29,-57,-6,6,8,0,-1
16:29:09:481849,-30,-29,-57,-6,6,8,0,-1
16:29:09:482486,1,10,7,-3,-5,2,19,29
16:29:09:483341,13,39,57,15,13,6,14,-26
16:29:09:488454,13,39,57,15,13,6,14,-26
16:29:09:489339,-8,3,-14,-11,-4,1,15,5
16:29:09:495358,3,8,11,-11,-15,-6,7,-2
16:29:09:511004,3,8,11,-11,-15,-6,7,-2
16:29:09:511838,-1,1,0,9,8,5,-7,-13
16:29:09:525331,16,17,-4,-21,-7,0,-5,-35
16:29:09:533469,16,17,-4,-21,-7,0,-5,-35
16:29:09:534331,5,-1,26,9,14,6,-6,-25
16:29:09:540325,-15,-6,8,1,-18,-4,18,-6
16:29:09:548457,-15,-6,8,1,-18,-4,18,-6
16:29:09:549317,-10,7,-14,5,8,0,0,-2
16:29:09:562823,0,16,-13,-8,-7,-10,-27,-4
16:29:09:570941,0,16,-13,-8,-7,-10,-27,-4
16:29:09:571812,7,1,16,-15,4,6,15,25
16:29:09:585324,-1,-7,-17,-27,-12,-3,6,-1
16:29:09:593566,-1,-7,-17,-27,-12,-3,6,-1
16:29:09:594476,-6,-24,-9,7,-9,-6,3,5
16:29:09:600354,16,47,26,12,10,1,13,13
16:29:09:608440,16,47,26,12,10,1,13,13
16:29:09:609308,11,-40,6,-5,-2,-6,3,-4
16:29:09:622858,1,-29,-30,9,0,-3,-5,8
16:29:09:631074,1,-29,-30,9,0,-3,-5,8
16:29:09:631812,-2,29,6,-1,-1,-5,-22,12
16:29:09:637852,4,-1,19,1,-3,-1,12,11
16:29:09:645312,4,-1,19,1,-3,-1,12,11
16:29:09:652815,-9,-9,-11,4,4,-4,3,-11
16:29:09:660314,-1,-18,9,2,-4,-5,0,1
16:29:09:668461,-1,-18,9,2,-4,-5,0,1
16:29:09:669321,20,-5,-8,7,12,6,3,-7
16:29:09:682857,12,-13,-8,10,-4,-3,-13,-8
16:29:09:699236,12,-13,-8,10,-4,-3,-13,-8
16:29:09:699937,-12,-23,-19,-15,-7,-3,10,-6
16:29:09:700810,-16,-27,12,-3,3,5,5,-21
16:29:09:705466,-16,-27,12,-3,3,5,5,-21
16:29:09:712847,-14,11,3,-1,-9,-3,1,-1
16:29:09:729179,-17,40,-13,-9,6,2,43,32
16:29:09:729940,-17,40,-13,-9,6,2,43,32
16:29:09:730815,-10,19,14,3,0,1,-2,41
16:29:09:742840,-4,-21,-3,9,2,-2,-10,0
16:29:09:751107,-4,-21,-3,9,2,-2,-10,0
16:29:09:751845,10,10,12,-19,-9,-4,0,0
16:29:09:757806,-3,-6,19,19,16,5,-16,-8
16:29:09:765449,-3,-6,19,19,16,5,-16,-8
16:29:09:772809,1,-15,-40,-16,-5,-3,-10,-34
16:29:09:780300,6,-17,-7,-10,-10,-4,29,-4
16:29:09:788602,6,-17,-7,-10,-10,-4,29,-4
16:29:09:789337,-11,-36,23,9,4,5,63,13
16:29:09:802838,-6,-13,-32,-8,1,1,-14,-9
16:29:09:811073,-6,-13,-32,-8,1,1,-14,-9
16:29:09:811819,-7,-17,4,4,-6,-3,-25,-26
16:29:09:817803,-1,0,5,4,-2,-2,-6,2
16:29:09:825307,-1,0,5,4,-2,-2,-6,2
16:29:09:840959,15,-5,-21,-2,8,7,-2,8
16:29:09:841690,5,59,4,-6,-8,-8,-16,2
16:29:09:848561,5,59,4,-6,-8,-8,-16,2
16:29:09:849302,3,-1,-15,7,-1,2,-12,28
16:29:09:862858,25,-18,-10,8,3,-2,-3,-20
16:29:09:871111,25,-18,-10,8,3,-2,-3,-20
16:29:09:871840,0,17,2,0,-1,-7,-14,4
16:29:09:877823,-5,-13,17,-2,8,2,15,15
16:29:09:885508,-5,-13,17,-2,8,2,15,15
16:29:09:892823,-1,-21,-32,5,0,-5,-17,-14
16:29:09:900324,4,-23,-22,-14,2,-1,-20,-23
16:29:09:908457,4,-23,-22,-14,2,-1,-20,-23
16:29:09:909363,-3,-40,4,-3,-7,0,6,6
16:29:09:922872,-31,-5,-14,-13,-4,-3,-5,-29
16:29:09:931100,-31,-5,-14,-13,-4,-3,-5,-29
16:29:09:931827,8,25,10,3,-1,4,26,-27
16:29:09:937864,-9,-1,-26,0,3,0,-13,13
16:29:09:945337,-9,-1,-26,0,3,0,-13,13
16:29:09:952864,3,36,11,2,-2,-2,14,-31
16:29:09:960368,-8,-42,-38,-2,-6,-5,-10,11
16:29:09:968464,-8,-42,-38,-2,-6,-5,-10,11
16:29:09:969344,-8,3,-11,9,-6,-3,-11,13
16:29:09:991744,9,36,30,10,11,3,3,0
16:29:09:992510,9,36,30,10,11,3,3,0
16:29:09:993364,-5,-13,-15,-15,1,-3,-7,5
16:29:09:997835,-2,-34,1,-3,-9,-4,4,6
16:29:10:5501,-2,-34,1,-3,-9,-4,4,6
16:29:10:12842,30,10,-4,2,4,-2,-16,-3
16:29:10:20354,-20,-6,7,-5,-3,-4,-14,5
16:29:10:28469,-20,-6,7,-5,-3,-4,-14,5
16:29:10:29337,-9,20,6,-6,-7,-2,-13,-13
16:29:10:42872,-36,-68,-27,0,-2,4,12,-36
16:29:10:51088,-36,-68,-27,0,-2,4,12,-36
16:29:10:51898,-1,18,26,2,1,-4,-10,27
16:29:10:57868,3,22,39,16,8,4,-2,19
16:29:10:65354,3,22,39,16,8,4,-2,19
16:29:10:72838,-12,-31,-10,-4,-7,-6,3,-7
16:29:10:89097,16,75,35,20,-1,3,4,2
16:29:10:89969,16,75,35,20,-1,3,4,2
16:29:10:90754,-8,-7,5,0,13,7,-6,1
16:29:10:102844,19,0,-2,-8,-9,-2,25,-2
16:29:10:111102,19,0,-2,-8,-9,-2,25,-2
16:29:10:111835,-4,7,-8,1,-2,-5,-28,30
16:29:10:117839,20,-8,0,-7,5,3,-16,17
16:29:10:125482,20,-8,0,-7,5,3,-16,17
16:29:10:132887,1,19,-47,-9,-4,2,-4,-12
16:29:10:140340,-2,4,25,0,-2,-2,7,3
16:29:10:148465,-2,4,25,0,-2,-2,7,3
16:29:10:149313,7,-3,25,4,0,1,4,-3
16:29:10:162814,-12,-25,-9,5,9,4,5,-56
16:29:10:170957,-12,-25,-9,5,9,4,5,-56
16:29:10:171853,-1,-12,24,-2,-8,-6,9,-8
16:29:10:177817,-12,-25,-38,0,-6,1,-6,9
16:29:10:185342,-12,-25,-38,0,-6,1,-6,9
16:29:10:192833,-11,-19,17,4,2,4,12,-17
16:29:10:200346,9,3,7,-17,-16,-10,6,2
16:29:10:208471,9,3,7,-17,-16,-10,6,2
16:29:10:209338,-14,-51,-29,1,6,6,13,-1
16:29:10:222860,-11,-29,14,1,0,1,2,28
16:29:10:230941,-11,-29,14,1,0,1,2,28
16:29:10:231834,-3,17,22,-1,-3,-2,4,0
16:29:10:237852,10,27,13,1,10,-1,-27,4
16:29:10:245364,10,27,13,1,10,-1,-27,4
16:29:10:260954,8,22,14,-5,-3,-4,-23,22
16:29:10:261845,20,18,-5,-8,-8,-2,17,-25
16:29:10:268459,20,18,-5,-8,-8,-2,17,-25
16:29:10:269322,-3,12,-2,8,6,1,17,-39
16:29:10:282831,-4,-19,-6,-18,-9,-8,-4,9
16:29:10:290970,-4,-19,-6,-18,-9,-8,-4,9
16:29:10:291831,-1,-2,-31,8,8,2,4,9
16:29:10:297855,-10,0,-3,7,9,-1,-13,0
16:29:10:305328,-10,0,-3,7,9,-1,-13,0
16:29:10:320983,8,4,2,-3,-2,0,0,17
16:29:10:321832,-8,-13,-45,-12,-8,1,4,9
16:29:10:328489,-8,-13,-45,-12,-8,1,4,9
16:29:10:329357,13,-20,-20,-3,-8,-3,38,-8
16:29:10:342838,-27,-4,-4,-4,-5,-3,5,26
16:29:10:351119,-27,-4,-4,-4,-5,-3,5,26
16:29:10:351838,0,-14,13,-2,-3,-3,-12,-17
16:29:10:357851,-1,6,4,-1,-11,-5,-14,-2
16:29:10:365329,-1,6,4,-1,-11,-5,-14,-2
16:29:10:372861,1,2,10,14,21,7,-3,22
16:29:10:380393,10,48,9,9,6,0,-4,-9
16:29:10:396102,10,48,9,9,6,0,-4,-9
16:29:10:396856,2,-13,-12,-22,-19,-10,-15,-17
16:29:10:402840,22,-12,7,-10,0,0,0,40
16:29:10:410989,22,-12,7,-10,0,0,0,40
16:29:10:411840,-4,-3,18,2,1,0,-5,-4
16:29:10:417846,-10,-65,22,1,-3,0,3,-4
16:29:10:425332,-10,-65,22,1,-3,0,3,-4
16:29:10:432875,-1,-8,3,-5,-18,-8,-27,-1
16:29:10:440340,4,-15,-2,16,23,12,21,-36
16:29:10:448464,4,-15,-2,16,23,12,21,-36
16:29:10:449314,-13,1,-6,-5,-2,0,-2,-11
16:29:10:462859,-24,50,23,-1,-11,-10,-7,-6
16:29:10:470959,-24,50,23,-1,-11,-10,-7,-6
16:29:10:471873,-21,-67,0,1,13,7,14,58
16:29:10:485965,2,-36,-19,9,2,-3,-8,-4
16:29:10:486831,2,-36,-19,9,2,-3,-8,-4
16:29:10:492879,10,-1,-48,-14,-9,-4,-7,-6
16:29:10:500326,2,3,-19,-30,-6,-6,-8,-3
16:29:10:507883,2,3,-19,-30,-6,-6,-8,-3
16:29:10:515361,4,8,-7,17,3,-1,7,-16
16:29:10:522833,8,23,-9,-4,-4,1,-8,14
16:29:10:531005,8,23,-9,-4,-4,1,-8,14
16:29:10:531853,7,18,7,-1,11,-3,-4,-59
16:29:10:545968,11,-22,-6,5,-6,-4,11,-16
16:29:10:546850,11,-22,-6,5,-6,-4,11,-16
16:29:10:552839,-10,-14,-29,-1,5,6,29,-2
16:29:10:560331,8,2,1,6,-2,-4,-14,-8
16:29:10:567846,8,2,1,6,-2,-4,-14,-8
16:29:10:575364,2,4,-4,-16,1,0,-10,4
16:29:10:582849,-9,-14,-13,7,0,1,0,7
16:29:10:591119,-9,-14,-13,7,0,1,0,7
16:29:10:591868,9,22,25,2,-6,-3,-5,32
16:29:10:605998,2,-35,-18,1,-4,-4,-5,-14
16:29:10:606856,2,-35,-18,1,-4,-4,-5,-14
16:29:10:612860,-28,40,26,3,-9,-4,-12,-8
16:29:10:620395,-2,13,-16,0,1,1,3,5
16:29:10:627843,-2,13,-16,0,1,1,3,5
16:29:10:635364,-6,12,-19,4,2,0,1,13
16:29:10:642864,-4,14,29,6,22,6,0,0
16:29:10:651111,-4,14,29,6,22,6,0,0
16:29:10:651863,5,20,15,13,0,0,-6,-11
16:29:10:674268,9,35,2,-15,-13,-3,-9,-2
16:29:10:674996,9,35,2,-15,-13,-3,-9,-2
16:29:10:675838,-2,-14,1,-8,-1,-2,-4,-15
16:29:10:680372,-13,3,7,3,-3,-1,3,-9
16:29:10:687867,-13,3,7,3,-3,-1,3,-9
16:29:10:703454,-6,2,11,-4,-12,-1,0,21
16:29:10:704209,9,-5,-7,13,-4,3,-6,24
16:29:10:710944,9,-5,-7,13,-4,3,-6,24
16:29:10:711882,22,-6,-25,-7,-2,-1,13,5
16:29:10:725979,-7,9,6,-8,-17,-6,-15,-16
16:29:10:726829,-7,9,6,-8,-17,-6,-15,-16
16:29:10:732842,-4,43,19,-5,10,6,-5,-15
16:29:10:740343,-21,-2,3,-2,-11,-6,10,-2
16:29:10:747850,-21,-2,3,-2,-11,-6,10,-2
16:29:10:755338,-10,-10,3,18,14,5,11,4
16:29:10:762831,-6,-33,-14,-16,4,0,4,16
16:29:10:778458,-6,-33,-14,-16,4,0,4,16
16:29:10:779348,5,-20,-2,-2,-5,-8,-13,1
16:29:10:794113,7,-12,-7,2,18,3,6,43
16:29:10:794954,7,-12,-7,2,18,3,6,43
16:29:10:795826,0,-37,-11,-16,-6,0,9,16
16:29:10:808499,-31,3,-18,-9,1,2,3,-25
16:29:10:809326,-31,3,-18,-9,1,2,3,-25
16:29:10:815340,27,-16,-3,-10,-12,-7,-12,17
16:29:10:822865,3,-11,-29,-13,-1,-1,-11,5
16:29:10:830956,3,-11,-29,-13,-1,-1,-11,5
16:29:10:831830,-16,-27,-1,7,-2,0,2,-20
16:29:10:845955,15,21,-9,8,-3,-4,-7,-25
16:29:10:846827,15,21,-9,8,-3,-4,-7,-25
16:29:10:852837,1,12,18,-10,-4,3,16,-44
16:29:10:860333,-20,-3,0,-28,-10,3,-1,-23
16:29:10:867830,-20,-3,0,-28,-10,3,-1,-23
16:29:10:875334,-23,-30,26,10,-3,-5,-18,8
16:29:10:882831,14,-7,-17,-18,8,6,-12,-5
16:29:10:890979,14,-7,-17,-18,8,6,-12,-5
16:29:10:891832,-2,-11,-9,-1,-11,2,2,-16
16:29:10:905956,9,-5,11,9,-14,-4,13,16
16:29:10:906839,9,-5,11,9,-14,-4,13,16
16:29:10:912722,-3,-10,-20,-7,0,-1,-5,12
16:29:10:920336,6,9,29,10,-3,-4,-8,14
16:29:10:927836,6,9,29,10,-3,-4,-8,14
16:29:10:935352,-14,8,1,12,0,-5,5,2
16:29:10:942832,10,8,12,4,2,4,10,-7
16:29:10:950954,10,8,12,4,2,4,10,-7
16:29:10:951840,-7,0,-28,-31,-20,-1,-2,-4
16:29:10:965972,31,2,8,16,15,1,-6,-23
16:29:10:966858,31,2,8,16,15,1,-6,-23
16:29:10:980986,5,-20,-38,-1,6,-3,-5,18
16:29:10:981886,-6,1,-9,-12,-8,-3,-2,-26
16:29:10:987837,-6,1,-9,-12,-8,-3,-2,-26
16:29:10:995339,1,61,23,8,4,-2,4,-18
16:29:11:2832,-11,16,14,18,15,3,6,7
16:29:11:11010,-11,16,14,18,15,3,6,7
16:29:11:11835,-9,21,16,-6,-1,-1,-11,18
16:29:11:25999,22,16,9,2,-14,-2,14,-7
16:29:11:26858,22,16,9,2,-14,-2,14,-7
16:29:11:32732,2,-8,0,34,33,8,44,7
16:29:11:40344,-7,-22,3,-20,-1,-2,-4,13
16:29:11:47849,-7,-22,3,-20,-1,-2,-4,13
16:29:11:55401,9,0,10,-9,-12,-3,-18,-17
16:29:11:62866,-9,32,33,3,2,4,-4,5
16:29:11:70943,-9,32,33,3,2,4,-4,5
16:29:11:71856,-3,-18,20,-3,3,0,-8,-34
16:29:11:85971,-15,-20,-20,-14,-9,-2,-8,-11
16:29:11:86843,-15,-20,-20,-14,-9,-2,-8,-11
16:29:11:92880,9,24,10,8,-11,-5,-7,22
16:29:11:100261,-12,-9,-13,0,14,2,2,-2
16:29:11:107870,-12,-9,-13,0,14,2,2,-2
16:29:11:115374,4,-19,-6,-6,-6,-1,3,14
16:29:11:122858,-15,4,7,9,14,1,-1,4
16:29:11:131076,-15,4,7,9,14,1,-1,4
16:29:11:131830,9,-2,13,4,-2,-3,-17,-1
16:29:11:145992,-4,6,37,7,-2,1,13,-5
16:29:11:146884,-4,6,37,7,-2,1,13,-5
16:29:11:152862,-1,6,-18,4,-7,-1,-18,-2
16:29:11:160398,-3,-86,3,7,-5,-8,-21,10
16:29:11:167857,-3,-86,3,7,-5,-8,-21,10
16:29:11:175391,2,-3,10,7,16,8,-4,-14
16:29:11:182905,27,3,8,17,-8,-7,-6,-7
16:29:11:190978,27,3,8,17,-8,-7,-6,-7
16:29:11:191837,-5,-73,-47,-22,-7,-5,0,17
16:29:11:205941,13,29,2,3,-12,-5,-3,7
16:29:11:206859,13,29,2,3,-12,-5,-3,7
16:29:11:212823,11,8,-25,-8,14,5,21,-11
16:29:11:220319,-4,-4,-12,2,-3,4,33,-3
16:29:11:227816,-4,-4,-12,2,-3,4,33,-3
16:29:11:235332,-3,3,-6,-3,-8,-7,-8,-23
16:29:11:242827,-10,3,-22,-5,14,6,-1,17
16:29:11:250978,-10,3,-22,-5,14,6,-1,17
16:29:11:251849,-1,19,15,11,-3,-3,-16,17
16:29:11:266000,-9,-14,-32,-1,-5,-2,-8,11
16:29:11:266827,-9,-14,-32,-1,-5,-2,-8,11
16:29:11:272853,-11,-18,20,-3,-2,0,-6,8
16:29:11:280366,15,-13,15,-3,6,5,-7,-43
16:29:11:296135,15,-13,15,-3,6,5,-7,-43
16:29:11:296871,-4,15,-5,-10,-14,-7,-28,3
16:29:11:302865,2,78,-8,0,6,6,4,-2
16:29:11:310968,2,78,-8,0,6,6,4,-2
16:29:11:311892,-12,20,6,3,2,1,4,-9
16:29:11:326003,-4,28,-9,-39,-14,-5,0,2
16:29:11:326858,-4,28,-9,-39,-14,-5,0,2
16:29:11:332849,-4,28,-13,-21,-12,1,13,11
16:29:11:340368,0,8,8,4,-5,-9,-22,-9
16:29:11:347850,0,8,8,4,-5,-9,-22,-9
16:29:11:372374,0,-3,0,9,13,-2,-23,60
16:29:11:373102,5,-4,-15,-2,-13,-12,-46,-28
16:29:11:373945,5,-4,-15,-2,-13,-12,-46,-28
16:29:11:374719,-3,-6,-14,11,8,3,23,-37
16:29:11:385950,7,19,14,10,9,3,-5,0
16:29:11:386887,7,19,14,10,9,3,-5,0
16:29:11:400375,-3,-9,17,0,3,2,11,-2
16:29:11:408475,-6,14,19,3,-7,-6,2,4
16:29:11:409355,-6,14,19,3,-7,-6,2,4
16:29:11:415361,11,-49,-9,-6,11,5,-10,-15
16:29:11:422878,-19,-18,4,-1,-7,-2,23,-14
16:29:11:430357,-19,-18,4,-1,-7,-2,23,-14
16:29:11:437737,1,5,17,-24,-19,-5,-10,-49
16:29:11:445985,-8,-82,-28,8,0,1,18,5
16:29:11:446844,-8,-82,-28,8,0,1,18,5
16:29:11:452865,-8,-1,-6,-12,-8,-4,17,15
16:29:11:468486,-4,1,9,4,4,2,-14,11
16:29:11:469354,-4,1,9,4,4,2,-14,11
16:29:11:475384,30,8,-9,12,2,0,-13,12
16:29:11:482879,0,-32,-12,-2,-3,-10,-8,8
16:29:11:490366,0,-32,-12,-2,-3,-10,-8,8
16:29:11:497877,-3,14,4,-4,-5,3,15,-7
16:29:11:505998,5,76,20,2,4,0,-15,-41
16:29:11:506843,5,76,20,2,4,0,-15,-41
16:29:11:512850,-5,-15,21,13,-3,-5,-21,-1
16:29:11:528497,6,-24,-19,-7,-8,-3,-7,24
16:29:11:529366,6,-24,-19,-7,-8,-3,-7,24
16:29:11:535359,-1,4,3,8,-7,-4,-6,-5
16:29:11:542866,-7,-16,5,9,13,10,-13,-67
16:29:11:550499,-7,-16,5,9,13,10,-13,-67
16:29:11:557867,-10,-18,-9,-2,-6,-2,-3,3
16:29:11:574259,10,-18,-28,-3,-5,-2,6,7
16:29:11:575009,10,-18,-28,-3,-5,-2,6,7
16:29:11:575840,1,-44,0,-3,-4,-5,-57,-29
16:29:11:588489,-5,-18,19,3,17,7,36,46
16:29:11:589325,-5,-18,19,3,17,7,36,46
16:29:11:603474,16,22,24,3,-14,-9,14,3
16:29:11:604337,-7,-1,-2,-13,-12,-5,25,19
16:29:11:610400,-7,-1,-2,-13,-12,-5,25,19
16:29:11:617715,10,23,-13,-4,12,2,3,-19
16:29:11:625975,-2,4,23,0,-4,-1,-21,12
16:29:11:626850,-2,4,23,0,-4,-1,-21,12
16:29:11:632848,-16,7,-21,3,4,4,0,12
16:29:11:648496,22,6,-11,-19,-14,-6,-10,17
16:29:11:649339,22,6,-11,-19,-14,-6,-10,17
16:29:11:655354,-27,-13,-3,0,1,0,86,62
16:29:11:662728,-42,17,20,7,0,-2,3,14
16:29:11:670353,-42,17,20,7,0,-2,3,14
16:29:11:677835,3,20,16,7,4,1,-17,-26
16:29:11:685974,21,-1,-14,-1,-9,-5,34,9
16:29:11:686837,21,-1,-14,-1,-9,-5,34,9
16:29:11:692853,3,-3,-12,3,5,0,-16,-24
16:29:11:708463,5,-6,-26,4,12,9,-4,-29
16:29:11:709334,5,-6,-26,4,12,9,-4,-29
16:29:11:715379,6,7,9,0,-5,-3,-3,19
16:29:11:722868,12,-49,-14,-12,-4,-2,-6,-7
16:29:11:730348,12,-49,-14,-12,-4,-2,-6,-7
16:29:11:737847,0,-24,-47,-7,-7,-5,12,9
16:29:11:745989,-15,-15,-1,0,7,-4,-3,11
16:29:11:746849,-15,-15,-1,0,7,-4,-3,11
16:29:11:752836,3,41,19,-5,13,8,-4,-1
16:29:11:768483,-17,28,15,4,-9,-5,-1,-1
16:29:11:769378,-17,28,15,4,-9,-5,-1,-1
16:29:11:783511,-8,-32,-7,-5,-10,-2,14,6
16:29:11:784262,0,19,-22,-10,8,1,1,8
16:29:11:790369,0,19,-22,-10,8,1,1,8
16:29:11:797869,-3,7,-19,-28,-1,-5,0,-5
16:29:11:805982,12,-16,-23,1,3,-7,-62,-25
16:29:11:806860,12,-16,-23,1,3,-7,-62,-25
16:29:11:812914,-10,-20,-17,-4,-6,6,12,18
16:29:11:828474,-17,-2,44,1,-7,2,1,5
16:29:11:829340,-17,-2,44,1,-7,2,1,5
16:29:11:835345,-19,-33,9,13,-5,-4,0,-11
16:29:11:842844,19,-1,15,7,20,7,13,-20
16:29:11:850471,19,-1,15,7,20,7,13,-20
16:29:11:857845,-3,6,-1,9,-4,-6,-19,4
16:29:11:865981,21,-10,-32,-2,-9,-6,-26,12
16:29:11:866839,21,-10,-32,-2,-9,-6,-26,12
16:29:11:872829,1,10,5,10,11,5,-12,-14
16:29:11:888476,2,15,-10,-8,-4,6,10,-7
16:29:11:889364,2,15,-10,-8,-4,6,10,-7
16:29:11:903502,7,-2,-3,-5,0,-2,-1,-13
16:29:11:904246,-40,19,18,-6,-10,-5,5,6
16:29:11:910362,-40,19,18,-6,-10,-5,5,6
16:29:11:917844,6,-3,-1,-7,-6,-3,15,28
16:29:11:925970,-11,11,-4,2,-2,-5,5,10
16:29:11:926859,-11,11,-4,2,-2,-5,5,10
16:29:11:932843,-7,-22,-12,-1,-1,-2,-2,-3
16:29:11:948477,9,-2,10,10,-1,-1,-13,5
16:29:11:949341,9,-2,10,10,-1,-1,-13,5
16:29:11:955384,2,-1,27,15,10,1,6,-4
16:29:11:962849,3,-10,24,-2,3,3,28,9
16:29:11:970362,3,-10,24,-2,3,3,28,9
16:29:11:977847,8,33,-7,-10,-7,-4,11,-9
16:29:11:994230,11,-20,3,6,7,2,10,-34
16:29:11:994993,11,-20,3,6,7,2,10,-34
16:29:11:995840,-4,-4,-2,-3,-8,-6,-18,-5
16:29:12:8491,-4,-5,-48,-38,-12,1,9,6
16:29:12:9362,-4,-5,-48,-38,-12,1,9,6
16:29:12:15363,1,-7,-4,-1,-1,-2,-15,-14
16:29:12:22862,9,24,8,10,2,4,-11,15
16:29:12:30334,9,24,8,10,2,4,-11,15
16:29:12:37842,-19,-12,41,-4,-6,-2,0,5
16:29:12:45983,-15,43,-35,-7,-1,-4,-1,-10
16:29:12:46842,-15,43,-35,-7,-1,-4,-1,-10
16:29:12:60366,-3,-26,-4,21,6,5,-4,-2
16:29:12:68510,2,-23,14,15,-2,-4,5,-30
16:29:12:69356,2,-23,14,15,-2,-4,5,-30
16:29:12:75361,17,28,-15,0,-6,-5,-7,-16
16:29:12:82851,-23,34,29,3,-2,-2,32,0
16:29:12:90483,-23,34,29,3,-2,-2,32,0
16:29:12:97860,-3,1,-20,-7,-1,0,-13,-7
16:29:12:105359,22,-26,-26,-5,2,0,-5,12
16:29:12:113513,22,-26,-26,-5,2,0,-5,12
16:29:12:114340,-7,6,11,-1,-2,-3,-1,-11
16:29:12:128470,-3,-5,8,6,5,0,0,8
16:29:12:129342,-3,-5,8,6,5,0,0,8
16:29:12:135346,15,5,0,-18,-12,4,0,23
16:29:12:142843,3,23,-9,-20,-32,-9,-15,11
16:29:12:150364,3,23,-9,-20,-32,-9,-15,11
16:29:12:165997,-11,-43,-62,-2,-1,-3,-11,-2
16:29:12:166719,-27,-11,4,-1,-12,-4,-18,-6
16:29:12:180972,-27,-11,4,-1,-12,-4,-18,-6
16:29:12:181839,-5,9,12,-6,16,7,16,-23
16:29:12:188480,12,-20,2,1,1,-3,-7,5
16:29:12:189370,12,-20,2,1,1,-3,-7,5
16:29:12:195354,-7,3,31,5,14,4,-6,10
16:29:12:202852,-15,-4,14,10,3,1,2,-33
16:29:12:210364,-15,-4,14,10,3,1,2,-33
16:29:12:217866,2,-11,-2,-11,-4,-5,11,9
16:29:12:225371,-12,-14,-2,7,6,-2,-26,-1
16:29:12:233478,-12,-14,-2,7,6,-2,-26,-1
16:29:12:234335,-18,-2,-32,7,12,3,-3,0
16:29:12:248481,6,-13,8,-9,-7,-7,0,-6
16:29:12:249350,6,-13,8,-9,-7,-7,0,-6
16:29:12:255388,2,39,20,13,5,5,12,10
16:29:12:270979,-8,15,-14,-3,0,0,-2,14
16:29:12:271844,-8,15,-14,-3,0,0,-2,14
16:29:12:277909,3,13,-3,-8,-12,-4,0,6
16:29:12:285407,-6,-14,-15,3,11,3,10,-5
16:29:12:293497,-6,-14,-15,3,11,3,10,-5
16:29:12:294379,6,22,-16,-6,-2,-4,-18,7
16:29:12:308469,7,-24,22,-4,3,3,-10,7
16:29:12:309381,7,-24,22,-4,3,3,-10,7
16:29:12:315348,39,-32,20,-8,2,-3,-19,-15
16:29:12:322852,15,-13,8,1,-4,-8,-1,-1
16:29:12:338483,15,-13,8,1,-4,-8,-1,-1
16:29:12:339405,-10,-26,-35,-13,-8,-5,3,8
16:29:12:345341,-3,-12,-1,5,9,6,11,-2
16:29:12:352821,-3,-12,-1,5,9,6,11,-2
16:29:12:360322,2,-22,-27,12,-4,-3,13,10
16:29:12:368488,12,-1,2,-6,-6,0,-27,20
16:29:12:369350,12,-1,2,-6,-6,0,-27,20
16:29:12:375373,-17,2,12,1,-6,-6,-22,-16
16:29:12:391019,17,-3,3,9,-4,4,42,15
16:29:12:391846,17,-3,3,9,-4,4,42,15
16:29:12:405986,3,-10,-2,4,-3,1,9,-2
16:29:12:406731,-16,-8,-15,5,-6,-8,-11,-11
16:29:12:412858,-16,-8,-15,5,-6,-8,-11,-11
16:29:12:420356,-3,18,24,-1,-7,2,-3,-20
16:29:12:428488,-13,-3,-14,-21,-12,6,16,0
16:29:12:429361,-13,-3,-14,-21,-12,6,16,0
16:29:12:442872,-7,-42,-8,-17,-9,-9,-4,5
16:29:12:459091,3,11,-11,-13,-1,3,8,-19
16:29:12:460025,3,11,-11,-13,-1,3,8,-19
16:29:12:460748,-21,16,10,5,2,3,5,-4
16:29:12:473515,-12,-1,-22,2,0,-3,9,32
16:29:12:474366,-12,-1,-22,2,0,-3,9,32
16:29:12:480268,4,10,1,-6,2,0,54,-10
16:29:12:488502,30,8,-4,-1,0,-3,-6,-2
16:29:12:489361,30,8,-4,-1,0,-3,-6,-2
16:29:12:495252,13,6,-14,13,14,6,-14,11
16:29:12:511468,-9,-9,-14,-7,-10,-7,-7,-10
16:29:12:512208,-9,-9,-14,-7,-10,-7,-7,-10
16:29:12:517881,-22,-32,16,8,0,2,-4,-41
16:29:12:525410,12,-2,29,17,3,-2,-6,2
16:29:12:532888,12,-2,29,17,3,-2,-6,2
16:29:12:540284,13,35,12,-23,-16,0,-5,3
16:29:12:548489,-6,3,7,5,4,-3,2,15
16:29:12:549359,-6,3,7,5,4,-3,2,15
16:29:12:555250,1,0,1,0,10,1,-10,16
16:29:12:570753,-5,18,-45,-2,0,-1,-4,-5
16:29:12:578519,-5,18,-45,-2,0,-1,-4,-5
16:29:12:579355,-2,4,-14,-3,-7,1,37,-2
16:29:12:585214,-8,7,10,1,2,-1,-18,-3
16:29:12:592884,-8,7,10,1,2,-1,-18,-3
16:29:12:600333,2,-14,0,-3,-5,-6,-23,4
16:29:12:616605,-4,-7,12,6,5,0,-4,-20
16:29:12:617456,-4,-7,12,6,5,0,-4,-20
16:29:12:618362,-5,43,-7,15,2,-7,-8,9
16:29:12:631015,-3,-16,1,-6,21,3,1,4
16:29:12:631876,-3,-16,1,-6,21,3,1,4
16:29:12:637786,2,14,35,22,7,-2,-5,0
16:29:12:645240,0,-12,10,-21,-11,0,19,-4
16:29:12:652890,0,-12,10,-21,-11,0,19,-4
16:29:12:660245,-3,-8,-6,7,13,-3,21,7
16:29:12:668510,4,-3,10,10,-8,-4,-3,-55
16:29:12:669353,4,-3,10,10,-8,-4,-3,-55
16:29:12:675364,-9,-15,-8,-18,-6,1,-20,1
16:29:12:691004,-8,9,32,2,-4,-6,-3,-20
16:29:12:691868,-8,9,32,2,-4,-6,-3,-20
16:29:12:697722,-15,31,7,-7,-6,1,-2,-16
16:29:12:705222,-5,-2,-15,-6,2,1,-17,6
16:29:12:712850,-5,-2,-15,-6,2,1,-17,6
16:29:12:720382,13,35,4,1,1,1,-6,6
16:29:12:729608,2,-2,4,10,0,-4,-8,5
16:29:12:735981,2,-2,4,10,0,-4,-8,5
16:29:12:736850,6,28,-31,-21,-6,-3,-4,-11
16:29:12:750991,-8,-17,-8,17,19,5,1,5
16:29:12:751847,-8,-17,-8,17,19,5,1,5
16:29:12:757873,9,-24,15,7,-20,-11,-5,5
16:29:12:765229,-3,14,-5,-6,0,10,22,-33
16:29:12:772854,-3,14,-5,-6,0,10,22,-33
16:29:12:789097,-9,5,13,-7,6,0,-10,-16
16:29:12:789993,-1,-18,-2,4,-8,-9,-9,-10
16:29:12:790862,-1,-18,-2,4,-8,-9,-9,-10
16:29:12:795361,-9,-85,43,14,3,2,-3,9
16:29:12:810979,-6,20,9,-6,-6,-4,8,38
16:29:12:811850,-6,20,9,-6,-6,-4,8,38
16:29:12:817726,-1,-5,-18,10,7,3,-12,-22
16:29:12:825240,3,-39,-10,3,-1,-4,-4,37
16:29:12:832880,3,-39,-10,3,-1,-4,-4,37
16:29:12:840359,1,-36,-25,-7,-13,-4,-16,-20
16:29:12:848500,-3,7,-30,-21,-15,-3,-5,-24
16:29:12:849352,-3,7,-30,-21,-15,-3,-5,-24
16:29:12:855355,-2,8,-2,1,11,6,3,3
16:29:12:871005,18,2,0,8,11,7,-5,55
16:29:12:871864,18,2,0,8,11,7,-5,55
16:29:12:877851,-19,-15,-7,-10,-14,-11,-8,41
16:29:12:885352,23,47,-2,-1,-3,-2,15,21
16:29:12:892852,23,47,-2,-1,-3,-2,15,21
16:29:12:900398,-5,1,-7,-15,-7,-2,2,-1
16:29:12:908484,-4,22,-12,-70,-24,-4,-3,-14
16:29:12:909353,-4,22,-12,-70,-24,-4,-3,-14
16:29:12:915355,4,2,3,9,25,17,6,11
16:29:12:931002,-10,-18,-7,14,-2,-2,-3,-19
16:29:12:931852,-10,-18,-7,14,-2,-2,-3,-19
16:29:12:937852,10,6,1,-15,-11,-12,-28,-40
16:29:12:954250,10,6,1,-15,-11,-12,-28,-40
16:29:12:954985,-12,0,11,15,18,6,-39,-35
16:29:12:960357,5,16,2,7,-1,-2,-2,-30
16:29:12:968474,5,16,2,7,-1,-2,-2,-30
16:29:12:969374,-14,-35,-8,7,-4,0,21,0
16:29:12:982853,1,-29,-27,-11,-3,2,18,-1
16:29:12:999109,1,-29,-27,-11,-3,2,18,-1
16:29:12:999998,1,-3,-1,-11,1,-6,7,-2
16:29:13:726,-3,13,7,1,3,6,14,20
16:29:13:14793,-3,13,7,1,3,6,14,20
16:29:13:15471,3,-15,10,13,5,6,-4,0
16:29:13:20355,-2,7,7,-2,-23,-14,-3,-21
16:29:13:28497,-2,7,7,-2,-23,-14,-3,-21
16:29:13:29364,4,-6,-6,3,-1,-6,9,34
16:29:13:35228,12,-65,-7,1,-8,-5,6,21
16:29:13:50985,12,-65,-7,1,-8,-5,6,21
16:29:13:51853,1,15,26,-3,-1,-2,-23,36
16:29:13:65355,12,14,5,8,4,-3,-42,7
16:29:13:73485,12,14,5,8,4,-3,-42,7
16:29:13:74353,-5,16,17,-3,-8,-6,-8,-8
16:29:13:80382,8,26,40,25,31,14,16,20
16:29:13:88479,8,26,40,25,31,14,16,20
16:29:13:89365,-6,-2,-8,-10,-2,2,12,5
16:29:13:95378,-4,1,-24,-6,-1,-1,16,20
16:29:13:111007,-4,1,-24,-6,-1,-1,16,20
16:29:13:111880,-1,39,1,11,-2,-3,-8,-14
16:29:13:117855,-2,4,-9,-12,-9,-8,-8,40
16:29:13:133528,-2,4,-9,-12,-9,-8,-8,40
16:29:13:134360,8,17,-8,4,2,2,20,-19
16:29:13:140366,-10,-4,18,3,-11,-2,-8,-29
16:29:13:148503,-10,-4,18,3,-11,-2,-8,-29
16:29:13:149389,-11,-27,6,14,9,8,-10,-17
16:29:13:155361,-10,-31,-42,-9,-10,-3,12,-15
16:29:13:171488,-10,-31,-42,-9,-10,-3,12,-15
16:29:13:172235,-9,-53,3,3,22,6,1,3
16:29:13:177852,4,-27,4,5,3,-2,28,-9
16:29:13:201729,4,-27,4,5,3,-2,28,-9
16:29:13:202468,-6,-4,-9,3,-22,-16,-14,34
16:29:13:203388,-17,-18,-12,-28,15,10,16,-22
16:29:13:208507,-17,-18,-12,-28,15,10,16,-22
16:29:13:209345,-4,-14,-14,-2,-5,-1,10,-7
16:29:13:222748,-1,-16,1,-6,-17,-8,-11,4
16:29:13:230969,-1,-16,1,-6,-17,-8,-11,4
16:29:13:231852,-14,-23,6,-8,18,5,-17,-13
16:29:13:237727,9,30,30,2,-7,-4,-6,-2
16:29:13:253489,9,30,30,2,-7,-4,-6,-2
16:29:13:254350,6,-17,-32,-15,-5,5,-7,-14
16:29:13:260249,-3,20,20,13,8,-1,-12,-18
16:29:13:268476,-3,20,20,13,8,-1,-12,-18
16:29:13:269344,7,56,-11,10,-3,-3,-5,13
16:29:13:275274,-7,-19,2,0,5,5,2,2
16:29:13:291018,-7,-19,2,0,5,5,2,2
16:29:13:291852,-5,-19,-7,-10,-13,-4,7,-21
16:29:13:297728,9,46,-24,12,1,1,-3,-18
16:29:13:313486,9,46,-24,12,1,1,-3,-18
16:29:13:314351,10,-1,2,11,-3,0,13,42
16:29:13:320361,5,-2,21,5,-1,3,12,0
16:29:13:328492,5,-2,21,5,-1,3,12,0
16:29:13:329361,5,6,8,-7,3,4,12,-14
16:29:13:343256,14,12,-8,-7,-2,1,-4,6
16:29:13:351000,14,12,-8,-7,-2,1,-4,6
16:29:13:351834,11,-24,21,-1,-13,-8,-6,-17
16:29:13:357848,-7,-17,-40,10,14,3,1,20
16:29:13:374254,-7,-17,-40,10,14,3,1,20
16:29:13:375038,-8,2,13,10,0,-4,-18,-35
16:29:13:380386,6,40,6,-5,-5,2,22,18
16:29:13:388494,6,40,6,-5,-5,2,22,18
16:29:13:389378,-1,3,22,9,3,7,26,5
16:29:13:411761,-11,-18,18,1,-7,-5,-9,-41
16:29:13:412503,-11,-18,18,1,-7,-5,-9,-41
16:29:13:413387,7,-1,-10,-1,18,-2,-12,17
16:29:13:417854,-16,-3,24,8,6,-1,-4,-9
16:29:13:450541,-16,-3,24,8,6,-1,-4,-9
16:29:13:451406,-1,27,-6,-17,-17,-3,12,8
16:29:13:452122,2,-37,-3,-19,-6,-5,28,20
16:29:13:452992,2,-37,-3,-19,-6,-5,28,20
16:29:13:455389,2,4,-23,-14,-1,-6,-12,-9
16:29:13:462874,-17,-21,27,11,3,7,-21,-25
16:29:13:471032,-17,-21,27,11,3,7,-21,-25
16:29:13:471875,0,-4,22,13,3,-1,-12,-4
16:29:13:477881,0,5,-7,-11,-8,-3,-19,-10
16:29:13:493511,0,5,-7,-11,-8,-3,-19,-10
16:29:13:494244,-9,15,9,-1,4,3,-13,-3
16:29:13:500373,-3,7,4,-6,-9,-4,-4,27
16:29:13:508498,-3,7,4,-6,-9,-4,-4,27
16:29:13:509370,-9,-24,-9,2,-6,0,19,19
16:29:13:522878,9,2,-63,-7,4,-1,25,11
16:29:13:531022,9,2,-63,-7,4,-1,25,11
16:29:13:531776,-11,18,0,-6,-14,-11,-10,1
16:29:13:537872,14,0,-9,-12,-10,1,-4,16
16:29:13:553535,14,0,-9,-12,-10,1,-4,16
16:29:13:554408,-1,-5,-20,3,-4,0,-2,-9
16:29:13:560394,14,6,-8,-2,-10,-10,-13,-6
16:29:13:568537,14,6,-8,-2,-10,-10,-13,-6
16:29:13:569262,-7,-19,-4,2,14,5,9,-24
16:29:13:582876,2,23,-9,7,1,-1,-4,0
16:29:13:590999,2,23,-9,7,1,-1,-4,0
16:29:13:591877,-12,-19,35,-1,1,2,2,-20
16:29:13:605250,-3,-20,-59,-26,-8,-3,-10,-25
16:29:13:613278,-3,-20,-59,-26,-8,-3,-10,-25
16:29:13:621009,14,30,-25,6,10,0,-3,-6
16:29:13:621760,4,0,10,-41,-1,6,-3,-10
16:29:13:628514,4,0,10,-41,-1,6,-3,-10
16:29:13:629384,-2,25,-6,1,-5,2,-4,4
16:29:13:643292,-18,4,5,22,5,4,26,-21
16:29:13:651012,-18,4,5,22,5,4,26,-21
16:29:13:651877,4,-6,0,-3,-7,-4,-22,-10
16:29:13:657877,0,-10,23,10,-2,1,9,42
16:29:13:673501,0,-10,23,10,-2,1,9,42
16:29:13:674412,3,-3,23,11,8,9,-1,-17
16:29:13:680266,-1,9,-13,1,-5,-6,-15,-8
16:29:13:688515,-1,9,-13,1,-5,-6,-15,-8
16:29:13:689379,4,45,-14,0,-6,1,0,-4
16:29:13:702791,6,-11,18,20,13,-1,-4,30
16:29:13:711015,6,-11,18,20,13,-1,-4,30
16:29:13:711918,-26,-30,-30,-40,-26,-15,-6,-2
16:29:13:717768,-1,17,11,-5,11,-1,-16,-7
16:29:13:733489,-1,17,11,-5,11,-1,-16,-7
16:29:13:734387,-15,-18,21,4,0,-4,-2,-5
16:29:13:740263,-6,-5,3,23,6,1,8,-18
16:29:13:756031,-6,-5,3,23,6,1,8,-18
16:29:13:756879,-7,-51,-27,-1,-5,-6,16,18
16:29:13:762755,4,33,38,5,0,-5,22,-25
16:29:13:770990,4,33,38,5,0,-5,22,-25
16:29:13:771872,11,23,17,16,9,5,6,-17
16:29:13:777789,-11,-68,-1,3,-3,1,-23,17
16:29:13:794003,-11,-68,-1,3,-3,1,-23,17
16:29:13:794758,-2,5,32,2,0,2,7,14
16:29:13:800280,-20,29,40,-7,-6,-2,-3,-14
16:29:13:808511,-20,29,40,-7,-6,-2,-3,-14
16:29:13:809389,5,-20,-6,-5,5,-3,-2,-17
16:29:13:831768,-2,-50,-28,-20,3,2,19,-25
16:29:13:832510,-2,-50,-28,-20,3,2,19,-25
16:29:13:833355,-15,-3,-2,2,-3,-2,22,7
16:29:13:837873,1,-1,-22,-16,-7,-3,-4,-7
16:29:13:854279,1,-1,-22,-16,-7,-3,-4,-7
16:29:13:855067,28,-3,2,-13,7,-2,-17,-19
16:29:13:860362,5,35,16,14,0,-4,-22,-9
16:29:13:868463,5,35,16,14,0,-4,-22,-9
16:29:13:869217,-1,22,-4,-6,-7,-1,5,10
16:29:13:882751,18,77,16,5,11,3,-7,25
16:29:13:899140,18,77,16,5,11,3,-7,25
16:29:13:900041,17,-14,-17,13,2,-2,3,-21
16:29:13:900748,-11,-11,-8,-6,-16,-8,-11,8
16:29:13:913534,-11,-11,-8,-6,-16,-8,-11,8
16:29:13:914376,-1,-25,-26,-2,9,7,5,19
16:29:13:936609,16,-16,-42,4,-11,-3,3,5
16:29:13:937541,16,-16,-42,4,-11,-3,3,5
16:29:13:938405,4,4,-19,6,-2,-7,-10,9
16:29:13:942910,-9,9,9,8,14,4,20,-3
16:29:13:950984,-9,9,9,8,14,4,20,-3
16:29:13:951736,-9,-12,29,3,-6,-8,-38,3
16:29:13:974148,-20,10,15,9,8,7,-14,19
16:29:13:975015,-20,10,15,9,8,7,-14,19
16:29:13:975772,-12,-4,7,-5,2,3,3,40
16:29:13:980260,4,-41,3,3,-2,-2,6,93
16:29:13:988512,4,-41,3,3,-2,-2,6,93
16:29:13:989374,19,31,-27,-16,3,3,-6,-6
16:29:14:3266,8,22,2,-18,-16,-6,4,-26
16:29:14:11021,8,22,2,-18,-16,-6,4,-26
16:29:14:11891,6,-49,9,-11,-5,-2,7,6
16:29:14:17779,-4,-16,-28,1,1,-2,-7,-10
16:29:14:34519,-4,-16,-28,1,1,-2,-7,-10
16:29:14:35266,6,-22,-4,-2,-17,0,2,25
16:29:14:40267,-2,-18,4,-4,-1,2,-7,-4
16:29:14:48520,-2,-18,4,-4,-1,2,-7,-4
16:29:14:49392,-10,-4,51,17,-8,2,10,-9
16:29:14:71630,2,-28,-15,-5,-5,-4,-4,-22
16:29:14:72500,2,-28,-15,-5,-5,-4,-4,-22
16:29:14:73251,-6,-11,-18,-6,-5,-4,-18,-50
16:29:14:77889,-5,11,6,6,8,9,22,-33
16:29:14:93532,-5,11,6,6,8,9,22,-33
16:29:14:94355,-7,4,12,-9,-12,-2,7,-12
16:29:14:100444,-8,-22,4,4,11,3,-11,16
16:29:14:108595,-8,-22,4,4,11,3,-11,16
16:29:14:109285,0,30,5,-3,-1,-6,-6,10
16:29:14:122896,4,6,5,-37,-17,-4,1,-2
16:29:14:131081,4,6,5,-37,-17,-4,1,-2
16:29:14:131878,4,3,-47,-19,-7,-6,-3,25
16:29:14:137930,-16,59,3,25,9,1,-1,-12
16:29:14:153551,-16,59,3,25,9,1,-1,-12
16:29:14:154400,-2,-35,-12,-10,3,1,1,-52
16:29:14:160293,-14,-2,2,0,4,-8,-19,-28
16:29:14:176027,-14,-2,2,0,4,-8,-19,-28
16:29:14:176934,0,30,4,10,0,5,23,2
16:29:14:182761,6,12,-7,-17,-20,-5,20,6
16:29:14:199912,6,12,-7,-17,-20,-5,20,6
16:29:14:200805,5,-11,-10,8,-4,-4,-1,8
16:29:14:201504,4,13,1,-3,16,3,-11,-11
16:29:14:213506,4,13,1,-3,16,3,-11,-11
16:29:14:214400,4,7,0,8,-7,-3,20,36
16:29:14:220400,15,-22,1,10,4,4,0,91
16:29:14:228521,15,-22,1,10,4,4,0,91
16:29:14:229388,2,6,5,-9,6,1,-11,-18
16:29:14:242864,2,-12,-5,4,-20,-7,-10,-19
16:29:14:250978,2,-12,-5,4,-20,-7,-10,-19
16:29:14:251875,-3,-2,-12,15,14,6,6,39
16:29:14:265377,-6,-10,1,16,4,1,0,-3
16:29:14:281755,-6,-10,1,16,4,1,0,-3
16:29:14:282515,-4,8,7,-15,-6,-2,-12,-21
16:29:14:283359,-1,1,4,1,-11,-11,-7,-16
16:29:14:287868,-1,1,4,1,-11,-11,-7,-16
16:29:14:295369,-8,-11,-36,-6,16,8,19,-10
16:29:14:319113,13,13,-15,-14,-5,-2,7,5
16:29:14:319976,13,13,-15,-14,-5,-2,7,5
16:29:14:320719,-14,-7,18,3,9,-4,-15,20
16:29:14:325255,-24,-14,-4,-8,2,0,-2,23
16:29:14:333519,-24,-14,-4,-8,2,0,-2,23
16:29:14:334383,11,-1,29,13,-6,-6,-16,-3
16:29:14:348505,-12,-2,3,-49,-12,3,-20,-43
16:29:14:349378,-12,-2,3,-49,-12,3,-20,-43
16:29:14:355247,-11,-29,3,5,5,-2,-1,-4
16:29:14:362767,8,-22,-15,6,-4,-7,7,-13
16:29:14:386768,8,-22,-15,6,-4,-7,7,-13
16:29:14:387512,7,-1,0,0,4,2,-2,-2
16:29:14:388363,-4,-18,-4,4,11,5,31,-10
16:29:14:393499,-4,-18,-4,4,11,5,31,-10
16:29:14:394250,-6,4,1,9,-3,-3,-1,-30
16:29:14:400346,5,2,13,12,1,-5,-23,-37
16:29:14:407854,5,2,13,12,1,-5,-23,-37
16:29:14:415257,7,29,1,-8,-4,2,9,5
16:29:14:422738,-1,9,32,-12,-3,-4,-4,-7
16:29:14:431015,-1,9,32,-12,-3,-4,-4,-7
16:29:14:431846,1,-18,17,13,5,1,1,-18
16:29:14:462397,18,23,-2,3,-5,-8,-2,41
16:29:14:463160,18,23,-2,3,-5,-8,-2,41
16:29:14:463971,10,10,20,0,-2,0,2,19
16:29:14:464713,21,-9,-21,-12,-5,-2,3,1
16:29:14:484872,21,-9,-21,-12,-5,-2,3,1
16:29:14:485595,-12,9,4,3,-4,0,-7,1
16:29:14:486483,-5,11,-7,7,10,6,0,70
16:29:14:490988,-5,11,-7,7,10,6,0,70
16:29:14:491924,-7,-5,-21,-6,-8,-6,-19,-26
16:29:14:505362,17,-18,-8,2,-11,-8,-20,32
16:29:14:521732,17,-18,-8,2,-11,-8,-20,32
16:29:14:522494,-14,12,-12,4,19,7,9,19
16:29:14:523349,-10,0,-13,-4,1,5,4,-29
16:29:14:527855,-10,0,-13,-4,1,5,4,-29
16:29:14:535438,8,19,-9,-9,-12,-5,1,9
16:29:14:551648,-12,-13,-1,8,9,3,-17,-16
16:29:14:552500,-12,-13,-1,8,9,3,-17,-16
16:29:14:553385,-2,5,0,0,-12,-7,-17,-51
16:29:14:565327,-20,1,-28,-3,0,1,-9,-39
16:29:14:573512,-20,1,-28,-3,0,1,-9,-39
16:29:14:574386,-3,-13,-35,-14,-2,-1,-8,-19
16:29:14:580279,-17,-20,8,5,-9,-5,-4,-55
16:29:14:587900,-17,-20,8,5,-9,-5,-4,-55
16:29:14:595454,-2,-6,5,4,13,7,12,23
16:29:14:602888,0,-12,41,-1,-9,-2,26,-1
16:29:14:611040,0,-12,41,-1,-9,-2,26,-1
16:29:14:611780,-6,-33,28,9,0,0,9,24
16:29:14:625303,22,-2,-15,4,5,2,1,13
16:29:14:633541,22,-2,-15,4,5,2,1,13
16:29:14:634365,5,4,-16,-9,-7,0,9,85
16:29:14:656654,-14,-5,0,2,-3,0,38,5
16:29:14:657498,-14,-5,0,2,-3,0,38,5
16:29:14:658225,3,-7,-21,-5,1,-2,13,-9
16:29:14:662747,6,49,50,9,-1,3,-15,15
16:29:14:671027,6,49,50,9,-1,3,-15,15
16:29:14:671886,-10,12,-2,-36,-22,-8,-11,-40
16:29:14:685364,4,-5,-7,-28,-6,-2,0,-13
16:29:14:693529,4,-5,-7,-28,-6,-2,0,-13
16:29:14:694409,8,6,-8,9,10,4,20,-2
16:29:14:700259,8,26,-3,7,-1,-2,8,-39
16:29:14:707922,8,26,-3,7,-1,-2,8,-39
16:29:14:715249,2,-19,-9,4,3,1,19,-1
16:29:14:731612,-19,2,-2,9,4,-2,-16,-21
16:29:14:732489,-19,2,-2,9,4,-2,-16,-21
16:29:14:733271,-6,-3,-2,-2,-5,4,-33,-44
16:29:14:762983,-8,-27,3,9,1,-4,-13,45
16:29:14:763756,-8,-27,3,9,1,-4,-13,45
16:29:14:764649,11,4,-25,-3,1,-1,23,104
16:29:14:768491,23,4,11,-11,0,-2,-7,-17
16:29:14:769444,23,4,11,-11,0,-2,-7,-17
16:29:14:775298,18,7,34,-1,5,-2,15,-69
16:29:14:782770,8,-17,-30,-34,-9,-2,-15,-17
16:29:14:791098,8,-17,-30,-34,-9,-2,-15,-17
16:29:14:791893,-17,-20,-9,-6,-2,-4,-20,-8
16:29:14:805282,-24,-16,15,30,17,5,28,57
16:29:14:813509,-24,-16,15,30,17,5,28,57
16:29:14:814442,2,25,-6,0,-3,-3,-22,11
16:29:14:820296,2,-10,-25,6,-2,-2,-16,8
16:29:14:827892,2,-10,-25,6,-2,-2,-16,8
16:29:14:835400,-18,-1,22,5,-5,-6,1,13
16:29:14:842913,-15,-5,-11,0,14,12,42,-9
16:29:14:851024,-15,-5,-11,0,14,12,42,-9
16:29:14:851780,7,9,-2,-12,-13,-2,5,-20
16:29:14:865274,-2,16,-15,8,-11,-8,1,26
16:29:14:873486,-2,16,-15,8,-11,-8,1,26
16:29:14:874378,3,0,25,1,-4,-5,-31,-35
16:29:14:880366,-11,-14,29,3,0,-5,-29,-55
16:29:14:887921,-11,-14,29,3,0,-5,-29,-55
16:29:14:903521,3,-24,-11,-8,1,6,56,92
16:29:14:904224,0,-24,6,-7,-9,-4,98,17
16:29:14:911011,0,-24,6,-7,-9,-4,98,17
16:29:14:911868,-21,-23,-16,3,-3,-10,-64,-39
16:29:14:942241,1,7,20,-3,19,9,-38,-4
16:29:14:943125,1,7,20,-3,19,9,-38,-4
16:29:14:943850,-6,13,5,3,-7,-4,7,43
16:29:14:944724,21,11,-13,2,-7,-1,-72,-33
16:29:14:947858,21,11,-13,2,-7,-1,-72,-33
16:29:14:955244,-2,21,-20,1,5,-1,-20,52
16:29:14:962857,4,-20,-24,0,-13,-7,-24,-24
16:29:14:970976,4,-20,-24,0,-13,-7,-24,-24
16:29:14:971862,-13,3,20,14,3,1,-24,-28
16:29:14:985354,12,-2,-9,-12,2,-4,76,35
16:29:14:993519,12,-2,-9,-12,2,-4,76,35
16:29:14:994225,22,28,20,12,11,6,23,6
16:29:15:8486,-22,-31,-7,13,12,0,-41,-18
16:29:15:9226,-22,-31,-7,13,12,0,-41,-18
16:29:15:15389,7,-12,-28,-1,-7,-1,23,-16
16:29:15:22856,0,40,-3,-7,-15,-5,21,107
16:29:15:38479,0,40,-3,-7,-15,-5,21,107
16:29:15:39373,6,-78,-23,-5,6,2,-26,0
16:29:15:45239,2,-6,-38,-2,-6,-3,-10,-16
16:29:15:53499,2,-6,-38,-2,-6,-3,-10,-16
16:29:15:54256,-10,28,29,-19,-7,2,-34,-63
16:29:15:60350,9,-4,-7,-2,-14,-2,-18,-8
16:29:15:75980,9,-4,-7,-2,-14,-2,-18,-8
16:29:15:76846,5,-5,-4,13,7,-1,11,-24
16:29:15:82895,-5,28,22,-7,6,2,-27,-22
16:29:15:90998,-5,28,22,-7,6,2,-27,-22
16:29:15:91774,-14,3,-3,-8,2,-5,-1,-18
16:29:15:105250,9,8,7,8,0,-2,-16,-30
16:29:15:113492,9,8,7,8,0,-2,-16,-30
16:29:15:114376,28,-12,-23,8,11,8,46,44
16:29:15:120354,-16,-7,-4,1,-1,4,36,-29
16:29:15:127868,-16,-7,-4,1,-1,4,36,-29
16:29:15:143505,-15,-1,8,11,-11,-9,-11,42
16:29:15:144240,3,4,-7,-3,-2,5,0,21
16:29:15:158243,3,4,-7,-3,-2,5,0,21
16:29:15:165998,-10,2,14,-3,-11,1,42,1
16:29:15:166739,-2,13,-9,-17,-4,-5,-2,-35
16:29:15:181614,-2,13,-9,-17,-4,-5,-2,-35
16:29:15:182531,-5,20,22,-5,-6,-5,-33,9
16:29:15:183240,-4,8,-12,-6,-1,1,-19,13
16:29:15:187850,-4,8,-12,-6,-1,1,-19,13
16:29:15:195231,12,12,-11,-6,-1,-3,-49,-12
16:29:15:219110,-16,-5,31,0,5,0,-10,-5
16:29:15:219987,-16,-5,31,0,5,0,-10,-5
16:29:15:220870,-13,-5,-10,0,4,-3,-20,4
16:29:15:225363,8,5,11,11,1,3,10,-21
16:29:15:233480,8,5,11,11,1,3,10,-21
16:29:15:234226,-12,-19,6,5,-6,-2,19,-24
16:29:15:248899,-11,-8,7,-21,4,4,6,-13
16:29:15:249766,-11,-8,7,-21,4,4,6,-13
16:29:15:255428,1,13,0,10,2,0,32,-19
16:29:15:262883,-5,-28,-11,6,-5,-1,-7,9
16:29:15:270381,-5,-28,-11,6,-5,-1,-7,9
16:29:15:285991,-2,21,4,5,12,8,-1,-16
16:29:15:286734,16,4,16,7,-4,-4,14,109
16:29:15:293526,16,4,16,7,-4,-4,14,109
16:29:15:294377,-8,-12,-4,-6,-5,-6,4,-52
16:29:15:316625,5,-19,-36,-6,1,3,-19,-21
16:29:15:317500,5,-19,-36,-6,1,3,-19,-21
16:29:15:318241,32,-15,-18,2,-5,-3,-11,-17
16:29:15:322757,0,11,-7,-1,-13,-12,2,-37
16:29:15:330379,0,11,-7,-1,-13,-12,2,-37
16:29:15:337751,-16,6,7,-15,-3,11,29,-53
16:29:15:345270,-19,15,37,22,0,-1,-17,-44
16:29:15:353529,-19,15,37,22,0,-1,-17,-44
16:29:15:354399,-5,-15,-14,-28,-10,-7,3,8
16:29:15:368488,-4,14,17,-33,-3,0,-9,-15
16:29:15:369358,-4,14,17,-33,-3,0,-9,-15
16:29:15:375253,-1,4,18,18,24,4,-5,24
16:29:15:382755,4,0,-11,-8,-2,-6,-2,-8
16:29:15:390362,4,0,-11,-8,-2,-6,-2,-8
16:29:15:397751,-13,31,5,-7,-7,-2,-15,-38
16:29:15:405252,5,-5,-2,6,2,-2,16,20
16:29:15:421011,5,-5,-2,6,2,-2,16,20
16:29:15:421874,13,7,-4,12,5,3,10,-13
16:29:15:428498,-15,-26,-43,-9,-2,4,-4,20
16:29:15:429356,-15,-26,-43,-9,-2,4,-4,20
16:29:15:435379,3,-2,5,2,-3,-5,6,37
16:29:15:442757,18,-15,-14,17,16,-2,27,44
16:29:15:450378,18,-15,-14,17,16,-2,27,44
16:29:15:457861,0,-29,-4,-18,-2,-2,-10,56
16:29:15:465369,6,19,1,12,3,3,36,51
16:29:15:473485,6,19,1,12,3,3,36,51
16:29:15:474238,-9,-11,-16,-5,-4,-2,-6,-12
16:29:15:488487,-5,-6,17,2,0,-4,-14,-21
16:29:15:489230,-5,-6,17,2,0,-4,-14,-21
16:29:15:495364,2,-1,2,7,7,-1,20,1
16:29:15:502911,-18,-35,-32,-4,-4,-4,-22,-35
16:29:15:510410,-18,-35,-32,-4,-4,-4,-22,-35
16:29:15:526026,0,-5,3,1,-18,-5,-28,-3
16:29:15:526749,6,19,20,12,7,2,10,4
16:29:15:533540,6,19,20,12,7,2,10,4
16:29:15:534249,-17,-1,-10,9,11,-1,-5,58
16:29:15:548509,2,-17,3,0,-7,0,-19,-20
16:29:15:549362,2,-17,3,0,-7,0,-19,-20
16:29:15:571677,-8,-29,7,2,-1,3,-5,-9
16:29:15:572547,-3,-2,1,-3,-14,-3,-11,-18
16:29:15:573281,-3,-2,1,-3,-14,-3,-11,-18
16:29:15:577788,3,-15,-26,-14,-4,4,70,-22
16:29:15:601677,10,10,14,6,-5,-6,52,34
16:29:15:602550,10,10,14,6,-5,-6,52,34
16:29:15:603416,-1,-1,-26,-6,-4,-4,-23,-10
16:29:15:608529,2,-7,-9,-18,-5,-6,-20,4
16:29:15:609365,2,-7,-9,-18,-5,-6,-20,4
16:29:15:615396,-3,-1,-18,5,3,-1,-3,8
16:29:15:622963,9,2,-3,-2,1,3,3,8
16:29:15:630374,9,2,-3,-2,1,3,3,8
16:29:15:637746,1,-59,-16,-3,-4,-1,-12,-15
16:29:15:645233,-19,-40,29,17,17,4,3,-59
16:29:15:653530,-19,-40,29,17,17,4,3,-59
16:29:15:654388,-4,-14,-1,-3,-11,-3,16,-30
16:29:15:668505,4,29,4,-1,-7,1,3,-31
16:29:15:669262,4,29,4,-1,-7,1,3,-31
16:29:15:675252,12,46,21,-2,10,6,-8,-27
16:29:15:682738,-19,43,33,4,-10,-13,-42,-24
16:29:15:698508,-19,43,33,4,-10,-13,-42,-24
16:29:15:699243,26,29,25,3,-5,2,-22,18
16:29:15:705424,-26,-26,0,1,6,5,-23,21
16:29:15:713529,-26,-26,0,1,6,5,-23,21
16:29:15:714363,-4,5,8,-7,-10,-6,-8,-2
16:29:15:728522,13,-11,-3,-6,-2,1,-9,-1
16:29:15:729248,13,-11,-3,-6,-2,1,-9,-1
16:29:15:735257,-3,17,6,-11,-14,-9,18,8
16:29:15:742893,6,4,-41,-9,3,3,26,58
16:29:15:750393,6,4,-41,-9,3,3,26,58
16:29:15:766027,20,20,16,-2,1,-6,-1,36
16:29:15:766765,4,11,8,-3,-10,-1,-15,-58
16:29:15:773525,4,11,8,-3,-10,-1,-15,-58
16:29:15:774270,-8,26,-38,-1,-2,1,12,-22
16:29:15:788505,-16,0,-20,-7,3,3,7,2
16:29:15:789249,-16,0,-20,-7,3,3,7,2
16:29:15:795377,-15,-3,-3,21,8,-5,3,16
16:29:15:802892,16,11,-11,2,-3,10,14,-7
16:29:15:810406,16,11,-11,2,-3,10,14,-7
16:29:15:826017,4,-2,13,13,4,5,-13,-6
16:29:15:826767,10,2,1,-8,-8,-11,-20,20
16:29:15:841008,10,2,1,-8,-8,-11,-20,20
16:29:15:841865,0,-35,-12,-9,-4,-3,-16,1
16:29:15:848505,10,29,20,3,6,-2,-11,14
16:29:15:849372,10,29,20,3,6,-2,-11,14
16:29:15:855246,-3,-12,-31,-2,-1,-6,-14,11
16:29:15:871021,-3,-6,-26,-1,7,2,-21,-53
16:29:15:871882,-3,-6,-26,-1,7,2,-21,-53
16:29:15:877766,-3,3,9,-16,-10,-2,-15,-26
16:29:15:885298,-8,-24,-24,4,0,-1,14,-25
16:29:15:893506,-8,-24,-24,4,0,-1,14,-25
16:29:15:894373,-4,9,-3,-6,9,5,11,4
16:29:15:908514,2,9,4,-2,-6,-4,18,-1
16:29:15:909386,2,9,4,-2,-6,-4,18,-1
16:29:15:915253,-7,-5,5,-11,-6,5,1,19
16:29:15:922753,-9,-22,-21,1,0,-1,39,-3
16:29:15:930392,-9,-22,-21,1,0,-1,39,-3
16:29:15:937786,3,2,24,1,-7,-6,-27,5
16:29:15:945306,-4,-14,17,-2,-4,3,-17,-40
16:29:15:953500,-4,-14,17,-2,-4,3,-17,-40
16:29:15:954255,-2,-20,-14,4,2,0,-8,-32
16:29:15:968553,0,6,18,5,10,0,-2,15
16:29:15:969406,0,6,18,5,10,0,-2,15
16:29:15:975314,-10,-17,13,16,4,0,-13,-48
16:29:15:982784,16,18,4,-19,-8,-4,-10,2
16:29:15:990408,16,18,4,-19,-8,-4,-10,2
16:29:15:997880,11,17,-6,3,24,4,48,56
16:29:16:5379,3,-3,10,5,-1,-5,-8,45
16:29:16:13507,3,-3,10,5,-1,-5,-8,45
16:29:16:14288,-11,-3,-3,-5,-14,-6,-29,41
16:29:16:28546,-8,-1,11,-3,-5,-7,8,3
16:29:16:29289,-8,-1,11,-3,-5,-7,8,3
16:29:16:43551,-7,5,-43,-29,-10,4,2,-44
16:29:16:44293,5,-7,-2,2,-1,0,5,7
16:29:16:50393,5,-7,-2,2,-1,0,5,7
16:29:16:57789,-12,-4,22,-3,-7,0,18,32
16:29:16:65260,-5,-5,-9,-34,-4,5,13,-9
16:29:16:81024,-5,-5,-9,-34,-4,5,13,-9
16:29:16:81914,7,31,55,14,15,9,13,15
16:29:16:88526,-3,-29,22,5,-10,-6,-4,14
16:29:16:89269,-3,-29,22,5,-10,-6,-4,14
16:29:16:103558,3,3,1,-18,-11,-6,-7,-26
16:29:16:104277,-6,-3,0,4,10,2,-6,-27
16:29:16:110411,-6,-3,0,4,10,2,-6,-27
16:29:16:117809,-10,25,15,17,13,2,-12,44
16:29:16:125270,2,-22,-50,-3,-10,-6,-10,16
16:29:16:132908,2,-22,-50,-3,-10,-6,-10,16
16:29:16:149181,-21,4,2,6,-8,0,-4,37
16:29:16:150053,-15,11,-8,11,3,1,1,38
16:29:16:150791,-15,11,-8,11,3,1,1,38
16:29:16:155309,-12,-20,-25,-4,-14,-5,-6,-38
16:29:16:171097,-7,-1,-3,16,2,3,-1,8
16:29:16:171902,-7,-1,-3,16,2,3,-1,8
16:29:16:186035,6,-6,-8,7,0,-1,4,-24
16:29:16:186822,-6,27,22,7,-5,-9,3,2
16:29:16:192926,-6,27,22,7,-5,-9,3,2
16:29:16:209175,16,1,3,-1,6,5,41,25
16:29:16:210079,-14,7,36,15,4,0,-11,30
16:29:16:210816,-14,7,36,15,4,0,-11,30
16:29:16:222775,-9,-27,-42,-18,-8,-8,-25,-63
16:29:16:231004,15,23,19,-8,7,6,11,-18
16:29:16:231770,15,23,19,-8,7,6,11,-18
16:29:16:237794,-9,-41,26,-1,-2,-3,-11,0
16:29:16:253520,4,4,-2,-10,-16,-6,-21,-17
16:29:16:254266,4,4,-2,-10,-16,-6,-21,-17
16:29:16:260386,6,19,7,13,16,9,38,31
16:29:16:268502,-4,-20,-13,-5,-6,-3,17,73
16:29:16:269237,-4,-20,-13,-5,-6,-3,17,73
16:29:16:275382,1,4,-23,-44,-21,-8,-14,-9
16:29:16:291095,21,-7,-16,9,18,4,-32,-30
16:29:16:291797,21,-7,-16,9,18,4,-32,-30
16:29:16:297789,-2,2,16,14,-2,-10,-33,-13
16:29:16:305295,-17,33,22,0,2,7,-19,-28
16:29:16:312894,-17,33,22,0,2,7,-19,-28
16:29:16:320395,0,9,12,3,6,2,51,12
16:29:16:328524,7,-1,0,1,-12,4,41,57
16:29:16:329246,7,-1,0,1,-12,4,41,57
16:29:16:335283,1,13,-12,-4,0,2,19,3
16:29:16:359142,-2,-6,-17,-16,-5,-10,3,36
16:29:16:360002,-2,-6,-17,-16,-5,-10,3,36
16:29:16:360779,-7,-7,-10,16,1,3,-18,-21
16:29:16:365276,-3,-23,-25,-5,2,-5,-22,-68
16:29:16:372888,-3,-23,-25,-5,2,-5,-22,-68
16:29:16:380406,9,13,7,5,-6,-4,6,37
16:29:16:388510,7,13,0,-3,-7,-1,5,-14
16:29:16:389269,7,13,0,-3,-7,-1,5,-14
16:29:16:395255,-3,6,9,14,4,-2,-16,52
16:29:16:411071,0,-3,13,1,4,3,13,20
16:29:16:411755,0,-3,13,1,4,3,13,20
16:29:16:434180,3,-4,3,1,-3,2,3,24
16:29:16:435007,-9,-8,-18,11,4,1,15,-42
16:29:16:435768,-9,-8,-18,11,4,1,15,-42
16:29:16:440286,1,-5,-9,2,-8,-7,-36,-44
16:29:16:448523,-2,-15,15,2,3,0,-24,1
16:29:16:449389,-2,-15,15,2,3,0,-24,1
16:29:16:455346,-11,-9,15,2,14,13,6,21
16:29:16:471032,-3,10,29,6,5,2,-13,17
16:29:16:471910,-3,10,29,6,5,2,-13,17
16:29:16:477838,15,-20,-9,1,-14,-14,-6,-24
16:29:16:485297,3,-4,-8,-51,-12,-1,-6,-4
16:29:16:492884,3,-4,-8,-51,-12,-1,-6,-4
16:29:16:509139,0,-2,-19,-1,1,0,5,-22
16:29:16:510031,-12,-21,-29,7,-9,-10,-8,2
16:29:16:510759,-12,-21,-29,7,-9,-10,-8,2
16:29:16:515284,6,7,2,-4,1,-2,-14,-27
16:29:16:531506,1,7,-1,6,20,13,72,-23
16:29:16:532276,1,7,-1,6,20,13,72,-23
16:29:16:537786,-12,-13,34,9,5,1,-14,-27
16:29:16:545251,5,10,18,0,-6,-7,-12,17
16:29:16:552872,5,10,18,0,-6,-7,-12,17
16:29:16:569156,11,20,0,-26,-13,0,2,-29
16:29:16:570039,10,-6,-17,-4,-4,4,-12,-25
16:29:16:570776,10,-6,-17,-4,-4,4,-12,-25
16:29:16:582925,-24,-6,-23,12,8,3,1,14
