Time,EMG1,EMG2,EMG3,EMG4,EMG5,EMG6,EMG7,EMG8
18:25:50:25336,-6,-6,4,2,3,4,-8,-18
18:25:50:33565,-6,-6,4,2,3,4,-8,-18
18:25:50:34364,1,7,-1,-2,-2,-1,-1,-13
18:25:50:40347,6,6,2,0,-1,0,13,3
18:25:50:56085,6,6,2,0,-1,0,13,3
18:25:50:56841,-16,13,1,2,0,-13,-81,-3
18:25:50:62855,-5,-22,-14,-4,-1,-1,10,4
18:25:50:71079,-5,-22,-14,-4,-1,-1,10,4
18:25:50:71876,6,-6,-3,-2,-3,-5,7,-9
18:25:50:85346,0,-2,-1,0,-1,-4,-12,-13
18:25:50:93585,0,-2,-1,0,-1,-4,-12,-13
18:25:50:94347,9,-4,-4,-3,1,5,44,27
18:25:50:100328,14,3,0,-3,-3,-4,-2,7
18:25:50:116058,14,3,0,-3,-3,-4,-2,7
18:25:50:116852,-7,26,8,2,-1,-9,-101,-50
18:25:50:122862,9,2,1,1,-1,2,8,13
18:25:50:131099,9,2,1,1,-1,2,8,13
18:25:50:131863,14,-6,-2,-2,-6,-4,-34,11
18:25:50:145337,-3,8,3,1,-1,-1,-13,-7
18:25:50:153544,-3,8,3,1,-1,-1,-13,-7
18:25:50:154354,2,2,0,0,1,5,24,22
18:25:50:160333,6,-5,-2,-1,0,12,102,19
18:25:50:176042,6,-5,-2,-1,0,12,102,19
18:25:50:176834,-1,-8,0,-1,-1,-1,31,-1
18:25:50:182845,-19,1,-1,0,-4,2,22,-37
18:25:50:191073,-19,1,-1,0,-4,2,22,-37
18:25:50:191821,7,-3,-3,-4,-2,-4,-11,5
18:25:50:205311,-2,-13,-7,-2,1,-2,-7,2
18:25:50:213519,-2,-13,-7,-2,1,-2,-7,2
18:25:50:214334,-4,-9,0,-1,-3,-8,-47,-22
18:25:50:220320,-5,7,0,-1,-3,0,-6,6
18:25:50:236059,-5,7,0,-1,-3,0,-6,6
18:25:50:236833,-36,-6,0,1,1,9,83,-39
18:25:50:242900,-5,4,1,-2,0,-5,-26,9
18:25:50:251030,-5,4,1,-2,0,-5,-26,9
18:25:50:251834,10,-8,-5,-3,-3,-6,-16,45
18:25:50:265373,2,-3,-1,-2,-1,-8,-52,-22
18:25:50:273289,2,-3,-1,-2,-1,-8,-52,-22
18:25:50:281007,22,9,-1,-1,0,4,38,1
18:25:50:281831,3,2,0,-3,1,0,-6,43
18:25:50:296031,3,2,0,-3,1,0,-6,43
18:25:50:296871,-15,3,7,-1,-3,-8,-31,-13
18:25:50:302835,-9,4,9,5,0,2,27,-18
18:25:50:311035,-9,4,9,5,0,2,27,-18
18:25:50:311846,-1,-7,-4,0,0,5,36,19
18:25:50:325356,-4,26,1,4,1,-3,-19,9
18:25:50:333537,-4,26,1,4,1,-3,-19,9
18:25:50:334304,-1,3,2,0,-1,3,16,15
18:25:50:340315,-5,-17,-5,-2,0,4,28,6
18:25:50:356005,-5,-17,-5,-2,0,4,28,6
18:25:50:356863,10,3,-1,2,0,-5,-28,-32
18:25:50:362843,19,-24,-5,-3,-1,-6,-9,23
18:25:50:371029,19,-24,-5,-3,-1,-6,-9,23
18:25:50:371853,1,-4,-3,-1,-1,-3,-19,-11
18:25:50:385346,-1,-3,1,-3,-2,-3,-21,2
18:25:50:393532,-1,-3,1,-3,-2,-3,-21,2
18:25:50:394315,-7,-2,-3,-4,-2,-1,1,-84
18:25:50:400367,-1,7,3,2,-2,-9,-69,-1
18:25:50:416005,-1,7,3,2,-2,-9,-69,-1
18:25:50:416851,-7,-1,-5,-3,-5,-4,-34,13
18:25:50:422854,1,0,-4,-3,-4,-4,-13,-5
18:25:50:431007,1,0,-4,-3,-4,-4,-13,-5
18:25:50:431858,4,-5,3,-1,-2,0,5,37
18:25:50:445367,-15,18,3,0,0,-10,-65,-20
18:25:50:453535,-15,18,3,0,0,-10,-65,-20
18:25:50:454290,-1,-1,-1,0,3,2,10,33
18:25:50:460336,5,-3,-7,-5,-6,-1,12,-66
18:25:50:476065,5,-3,-7,-5,-6,-1,12,-66
18:25:50:476868,-9,2,0,-2,-1,2,19,-2
18:25:50:482843,1,-17,-5,1,1,0,6,11
18:25:50:490363,1,-17,-5,1,1,0,6,11
18:25:50:497890,-8,-4,-2,3,1,-3,-30,-12
18:25:50:505326,3,-7,-7,-2,-2,3,31,18
18:25:50:521061,3,-7,-7,-2,-2,3,31,18
18:25:50:521853,-2,-1,1,2,2,2,9,10
18:25:50:527843,29,7,3,-1,1,0,-13,22
18:25:50:536010,29,7,3,-1,1,0,-13,22
18:25:50:536861,-2,-2,-1,0,0,3,34,19
18:25:50:542857,-32,4,4,0,1,4,30,-47
18:25:50:550370,-32,4,4,0,1,4,30,-47
18:25:50:557867,6,-5,-4,-5,-5,-5,-30,10
18:25:50:565358,-1,-9,-3,-3,-2,1,14,22
18:25:50:573524,-1,-9,-3,-3,-2,1,14,22
18:25:50:574319,-8,15,0,0,1,-1,-21,3
18:25:50:587889,-5,-13,-2,0,-1,0,15,1
18:25:50:596065,-5,-13,-2,0,-1,0,15,1
18:25:50:596860,-2,-1,3,2,1,1,-5,-21
18:25:50:602874,12,3,2,1,0,1,21,8
18:25:50:610413,12,3,2,1,0,1,21,8
18:25:50:617883,-11,-8,-3,-5,-3,-7,-51,11
18:25:50:625340,-13,-3,-5,-2,-2,-3,-22,-31
18:25:50:633533,-13,-3,-5,-2,-2,-3,-22,-31
18:25:50:634347,0,-3,-1,0,-1,-3,11,9
18:25:50:647883,-6,3,0,-2,-2,-10,-32,31
18:25:50:656036,-6,3,0,-2,-2,-10,-32,31
18:25:50:656854,3,-3,-3,-2,-2,-5,-8,-14
18:25:50:662855,6,1,-1,-2,-1,4,33,1
18:25:50:670381,6,1,-1,-2,-1,4,33,1
18:25:50:677851,6,-6,8,-2,-1,3,30,0
18:25:50:685295,-5,2,11,-1,-1,4,14,0
18:25:50:693558,-5,2,11,-1,-1,4,14,0
18:25:50:694374,-4,-2,-4,1,-4,-13,-62,-12
18:25:50:707883,-2,-1,-2,0,-1,-1,-1,-6
18:25:50:716060,-2,-1,-2,0,-1,-1,-1,-6
18:25:50:716859,6,0,-7,1,1,11,70,9
18:25:50:722845,2,0,-12,-3,-2,0,-3,2
18:25:50:730397,2,0,-12,-3,-2,0,-3,2
18:25:50:737876,-1,-4,-1,-2,-5,-6,-14,-7
18:25:50:745343,-2,-2,-12,23,6,4,11,-1
18:25:50:753493,-2,-2,-12,23,6,4,11,-1
18:25:50:754292,1,23,-5,-6,6,23,105,17
18:25:50:767906,3,-1,-11,-10,-7,-8,24,-2
18:25:50:776096,3,-1,-11,-10,-7,-8,24,-2
18:25:50:776872,4,-4,4,-15,-7,6,10,2
18:25:50:782900,0,0,-1,-19,-10,-12,-42,4
18:25:50:790377,0,0,-1,-19,-10,-12,-42,4
18:25:50:797869,3,4,3,10,16,16,-34,-4
18:25:50:805340,-8,-3,5,-3,-11,-16,-86,-18
18:25:50:813502,-8,-3,5,-3,-11,-16,-86,-18
18:25:50:814308,1,-1,22,57,24,25,48,-3
18:25:50:827887,-10,-19,-20,-35,-2,6,17,-7
18:25:50:836018,-10,-19,-20,-35,-2,6,17,-7
18:25:50:836851,-2,-1,-9,-22,-27,-41,-89,-14
18:25:50:842870,4,11,18,16,4,8,34,11
18:25:50:850363,4,11,18,16,4,8,34,11
18:25:50:857848,0,-8,1,0,2,-6,7,-1
18:25:50:865311,0,0,-4,-5,-9,-8,9,5
18:25:50:873537,0,0,-4,-5,-9,-8,9,5
18:25:50:874334,0,-3,-7,-5,-3,-1,26,7
18:25:50:887875,-2,-1,2,2,3,1,-11,-2
18:25:50:896053,-2,-1,2,2,3,1,-11,-2
18:25:50:896855,-3,-4,-5,-8,-2,-3,-13,-6
18:25:50:902863,-1,0,4,7,3,-2,-1,-2
18:25:50:910395,-1,0,4,7,3,-2,-1,-2
18:25:50:917889,-4,-7,-7,-15,-12,-10,26,-9
18:25:50:925298,1,2,2,6,2,2,12,1
18:25:50:933566,1,2,2,6,2,2,12,1
18:25:50:934348,0,-2,-3,0,5,3,4,2
18:25:50:947883,1,2,4,12,12,13,36,6
18:25:50:956029,1,2,4,12,12,13,36,6
18:25:50:956840,-2,-5,-4,-13,-13,-10,-19,-4
18:25:50:962870,2,1,-3,-1,1,2,11,0
18:25:50:970377,2,1,-3,-1,1,2,11,0
18:25:50:977874,1,1,-2,-3,1,-1,-9,-4
18:25:50:985317,-1,-3,0,-7,-7,-3,4,-2
18:25:50:993570,-1,-3,0,-7,-7,-3,4,-2
18:25:50:994365,-17,2,1,7,12,6,5,-2
18:25:51:7850,-20,-2,-3,0,-4,-6,-32,-17
18:25:51:16034,-20,-2,-3,0,-4,-6,-32,-17
18:25:51:16868,1,-5,-8,-7,-8,-6,-4,-4
18:25:51:22881,-4,0,2,6,7,8,3,3
18:25:51:30428,-4,0,2,6,7,8,3,3
18:25:51:37864,-1,-1,-5,-3,-5,-6,-5,0
18:25:51:45344,5,-3,-15,-8,-5,-4,7,2
18:25:51:61052,5,-3,-15,-8,-5,-4,7,2
18:25:51:61852,8,3,14,11,1,0,-2,2
18:25:51:67857,10,4,-1,6,2,-1,2,23
18:25:51:76117,10,4,-1,6,2,-1,2,23
18:25:51:76853,-1,0,14,-2,-2,-3,-32,-47
18:25:51:82865,1,-4,-10,-5,-3,-4,-1,3
18:25:51:90336,1,-4,-10,-5,-3,-4,-1,3
18:25:51:97888,10,-3,-7,1,1,3,13,17
18:25:51:105340,18,3,14,-4,-2,0,-1,3
18:25:51:113491,18,3,14,-4,-2,0,-1,3
18:25:51:114345,12,-9,-12,-10,-3,-1,-28,33
18:25:51:127897,-6,-1,-1,1,2,-2,3,12
18:25:51:136039,-6,-1,-1,1,2,-2,3,12
18:25:51:136844,12,3,-1,3,0,3,31,-2
18:25:51:142871,-13,0,4,-5,-3,0,-5,-4
18:25:51:150363,-13,0,4,-5,-3,0,-5,-4
18:25:51:157871,-5,2,-13,18,5,3,11,-8
18:25:51:165313,1,-2,7,-14,-8,-4,-3,-19
18:25:51:173537,1,-2,7,-14,-8,-4,-3,-19
18:25:51:174332,-10,-1,4,-2,-5,-3,-9,12
18:25:51:187888,-1,0,6,2,4,4,2,-6
18:25:51:196046,-1,0,6,2,4,4,2,-6
18:25:51:196859,-31,1,4,0,-2,-3,-7,2
18:25:51:202869,-1,1,-5,10,1,1,7,-7
18:25:51:210385,-1,1,-5,10,1,1,7,-7
18:25:51:217850,4,0,5,-12,0,2,-1,-28
18:25:51:225302,-5,-3,-3,-5,0,-3,-6,4
18:25:51:233555,-5,-3,-3,-5,0,-3,-6,4
18:25:51:234353,1,-4,-14,-7,-3,-1,1,4
18:25:51:247779,-2,1,4,11,0,-5,-6,-51
18:25:51:256060,-2,1,4,11,0,-5,-6,-51
18:25:51:256861,-10,-20,-56,-69,-19,-10,6,13
18:25:51:262886,5,3,10,8,0,0,0,11
18:25:51:270392,5,3,10,8,0,0,0,11
18:25:51:277906,-1,11,29,30,7,-1,1,-3
18:25:51:285320,-1,0,0,12,4,6,4,5
18:25:51:293568,-1,0,0,12,4,6,4,5
18:25:51:294361,-12,-2,0,15,0,2,38,-9
18:25:51:307874,-12,-1,3,-14,-1,4,23,0
18:25:51:316065,-12,-1,3,-14,-1,4,23,0
18:25:51:316858,5,4,35,1,-1,0,1,4
18:25:51:322872,-7,-6,11,4,2,-3,2,-1
18:25:51:330406,-7,-6,11,4,2,-3,2,-1
18:25:51:337892,4,-4,-5,-21,-5,-4,-10,-3
18:25:51:345370,8,1,7,-3,-3,-2,-10,-17
18:25:51:352867,8,1,7,-3,-3,-2,-10,-17
18:25:51:360367,7,8,14,30,8,4,-12,3
18:25:51:367869,-1,-6,-22,-14,-7,-4,-4,9
18:25:51:375997,-1,-6,-22,-14,-7,-4,-4,9
18:25:51:376842,1,2,-2,4,1,1,-5,-6
18:25:51:382780,-3,-8,-25,-10,-4,0,-6,3
18:25:51:390375,-3,-8,-25,-10,-4,0,-6,3
18:25:51:397885,0,-1,-15,-10,0,-1,-5,9
18:25:51:405321,22,4,8,7,0,-2,-6,11
18:25:51:413543,22,4,8,7,0,-2,-6,11
18:25:51:414351,1,-6,-2,-1,-5,-4,-3,-3
18:25:51:427801,-1,-1,2,-2,-2,0,-7,1
18:25:51:436076,-1,-1,2,-2,-2,0,-7,1
18:25:51:436857,2,-1,-3,-1,-4,-10,-33,-6
18:25:51:451043,-9,-7,-31,-18,-4,-2,-5,3
18:25:51:451884,-9,-7,-31,-18,-4,-2,-5,3
18:25:51:457896,-1,-4,-5,-8,0,9,5,1
18:25:51:465328,-5,1,5,1,-1,-1,1,3
18:25:51:472854,-5,1,5,1,-1,-1,1,3
18:25:51:480341,-4,-8,-15,2,-1,-3,1,1
18:25:51:487876,-4,5,12,1,2,1,29,3
18:25:51:496051,-4,5,12,1,2,1,29,3
18:25:51:496873,4,-1,2,2,-3,-5,12,-33
18:25:51:510996,-3,-1,3,5,0,2,20,3
18:25:51:511873,-3,-1,3,5,0,2,20,3
18:25:51:517876,-3,1,0,0,0,6,41,26
18:25:51:525351,-3,-2,0,1,-2,-3,-23,-14
18:25:51:532900,-3,-2,0,1,-2,-3,-23,-14
18:25:51:540357,-3,1,2,1,-1,0,-11,-16
18:25:51:547869,6,23,2,-2,-1,-3,-14,-1
18:25:51:563519,6,23,2,-2,-1,-3,-14,-1
18:25:51:564313,7,-4,-4,1,0,-6,-15,-26
18:25:51:571024,2,-8,-5,0,-2,-3,5,1
18:25:51:571887,2,-8,-5,0,-2,-3,5,1
18:25:51:577834,3,9,8,4,3,3,-8,11
18:25:51:585305,4,-3,0,-1,2,1,-3,3
18:25:51:592919,4,-3,0,-1,2,1,-3,3
18:25:51:600355,-4,-3,0,0,-1,-1,-4,29
18:25:51:607844,-20,-9,-9,-1,-4,-3,-8,-19
18:25:51:616047,-20,-9,-9,-1,-4,-3,-8,-19
18:25:51:616866,3,-1,-1,0,-1,-2,-1,5
18:25:51:631041,0,-5,-5,-1,-2,-1,-7,2
18:25:51:631861,0,-5,-5,-1,-2,-1,-7,2
18:25:51:637861,0,-1,3,-1,-3,2,-7,10
18:25:51:645354,0,-2,13,2,-1,-1,-7,2
18:25:51:652871,0,-2,13,2,-1,-1,-7,2
18:25:51:660375,1,1,-3,-7,-1,-5,3,16
18:25:51:667865,4,7,15,4,3,2,3,3
18:25:51:676043,4,7,15,4,3,2,3,3
18:25:51:676861,-5,-5,-6,-5,-3,-3,-4,-10
18:25:51:690999,-32,-4,5,-6,-3,-3,-4,7
18:25:51:691862,-32,-4,5,-6,-3,-3,-4,7
18:25:51:697859,5,1,1,3,-1,-4,-4,-31
18:25:51:705343,8,-2,-4,1,0,2,4,7
18:25:51:712848,8,-2,-4,1,0,2,4,7
18:25:51:720287,-11,-7,-13,0,2,2,1,2
18:25:51:727769,7,-1,0,1,-1,-4,-2,-4
18:25:51:736027,7,-1,0,1,-1,-4,-2,-4
18:25:51:736877,-4,3,2,2,2,4,0,-3
18:25:51:751021,18,-4,1,-1,-4,1,-5,-4
18:25:51:751893,18,-4,1,-1,-4,1,-5,-4
18:25:51:757883,1,7,20,2,-3,-7,-37,1
18:25:51:765292,-1,3,6,0,1,3,11,5
18:25:51:772881,-1,3,6,0,1,3,11,5
18:25:51:780324,-6,-9,2,-1,-2,1,17,-11
18:25:51:787895,8,20,12,0,1,1,-2,6
18:25:51:796058,8,20,12,0,1,1,-2,6
18:25:51:796867,-14,-1,6,0,1,0,2,-15
18:25:51:811032,-12,-19,-21,-5,-4,-4,-3,-29
18:25:51:811882,-12,-19,-21,-5,-4,-4,-3,-29
18:25:51:817922,-12,-2,-14,-3,-1,0,1,3
18:25:51:825334,1,0,16,2,0,0,2,-9
18:25:51:832875,1,0,16,2,0,0,2,-9
18:25:51:840320,3,-8,-20,-2,-3,-2,-1,-18
18:25:51:847869,-2,1,-13,-1,2,-1,1,9
18:25:51:856069,-2,1,-13,-1,2,-1,1,9
18:25:51:856847,8,8,2,-1,-2,0,6,6
18:25:51:871042,-1,12,1,1,1,-2,-7,-9
18:25:51:871871,-1,12,1,1,1,-2,-7,-9
18:25:51:877885,11,0,1,0,-1,-2,3,47
18:25:51:885323,7,-2,3,-4,-5,-6,-6,-13
18:25:51:892881,7,-2,3,-4,-5,-6,-6,-13
18:25:51:900353,-12,-11,-18,-4,-1,-2,-3,-24
18:25:51:907865,3,-4,14,6,2,3,5,30
18:25:51:916006,3,-4,14,6,2,3,5,30
18:25:51:916857,-13,-2,25,4,0,-2,-5,-33
18:25:51:931061,3,-7,-12,-3,-1,5,16,49
18:25:51:931874,3,-7,-12,-3,-1,5,16,49
18:25:51:937869,-13,-13,13,1,-5,-15,-30,-2
18:25:51:945345,-1,-18,-27,-4,-1,-3,-1,14
18:25:51:952875,-1,-18,-27,-4,-1,-3,-1,14
18:25:51:968501,23,10,-4,-3,0,0,3,13
18:25:51:969281,26,21,-9,0,-2,1,5,30
18:25:51:976014,26,21,-9,0,-2,1,5,30
18:25:51:976873,-20,8,8,1,1,5,26,39
18:25:51:991060,-6,-36,8,-1,-1,-4,-1,42
18:25:51:991902,-6,-36,8,-1,-1,-4,-1,42
18:25:51:997910,14,-6,-12,-1,-1,5,12,26
18:25:52:5359,1,27,6,1,-2,-3,-7,-35
18:25:52:12887,1,27,6,1,-2,-3,-7,-35
18:25:52:20357,8,-6,-8,-2,1,3,6,3
18:25:52:27880,-3,5,4,0,-3,-5,-9,-41
18:25:52:36056,-3,5,4,0,-3,-5,-9,-41
18:25:52:36867,-23,0,-2,-3,-2,0,-5,-7
18:25:52:51007,-11,-18,-8,-2,0,-1,-1,-10
18:25:52:51888,-11,-18,-8,-2,0,-1,-1,-10
18:25:52:57889,27,2,20,2,-4,-4,-5,2
18:25:52:65334,-19,-59,1,-5,-1,-3,-5,-16
18:25:52:72869,-19,-59,1,-5,-1,-3,-5,-16
18:25:52:80293,13,-13,7,2,2,1,2,6
18:25:52:87774,7,5,3,6,2,2,-2,-1
18:25:52:96031,7,5,3,6,2,2,-2,-1
18:25:52:96859,24,23,-18,-2,-1,-1,-2,1
18:25:52:111025,-61,-22,-8,-5,-4,-2,-3,-23
18:25:52:111885,-61,-22,-8,-5,-4,-2,-3,-23
18:25:52:117829,34,23,0,1,-2,-4,-3,2
18:25:52:125299,-5,-8,-12,1,-2,1,-1,4
18:25:52:132887,-5,-8,-12,1,-2,1,-1,4
18:25:52:140325,-14,-4,3,0,-3,-4,-4,-10
18:25:52:147889,10,20,-1,-3,0,2,3,-1
18:25:52:156081,10,20,-1,-3,0,2,3,-1
18:25:52:156890,6,6,-49,-13,-6,-2,-4,-3
18:25:52:171044,-9,-15,-16,-11,-1,-5,-6,-13
18:25:52:171920,-9,-15,-16,-11,-1,-5,-6,-13
18:25:52:177884,-19,-7,6,1,0,-4,-5,-8
18:25:52:185270,25,13,7,0,1,3,1,-18
18:25:52:192929,25,13,7,0,1,3,1,-18
18:25:52:200315,11,11,8,3,6,3,3,5
18:25:52:207906,-33,3,4,-2,-1,-3,-2,-1
18:25:52:216032,-33,3,4,-2,-1,-3,-2,-1
18:25:52:216867,-103,-3,2,-3,-2,-4,-11,-35
18:25:52:231033,7,29,-11,-12,-4,-5,-5,0
18:25:52:231873,7,29,-11,-12,-4,-5,-5,0
18:25:52:237888,8,-16,23,-3,-2,-1,4,11
18:25:52:245323,-3,0,8,-3,-4,-2,-2,2
18:25:52:252883,-3,0,8,-3,-4,-2,-2,2
18:25:52:260360,22,7,25,7,2,-1,0,3
18:25:52:267856,18,33,-14,5,2,6,3,3
18:25:52:276072,18,33,-14,5,2,6,3,3
18:25:52:276876,44,35,6,3,3,5,7,8
18:25:52:291055,7,3,0,3,-1,-2,0,12
18:25:52:291887,7,3,0,3,-1,-2,0,12
18:25:52:297860,-12,-12,-28,-5,-2,-3,-12,-17
18:25:52:305362,0,3,23,-1,-4,-4,-4,-7
18:25:52:312876,0,3,23,-1,-4,-4,-4,-7
18:25:52:328504,7,22,-17,-2,-2,-1,3,1
18:25:52:329282,14,-15,-19,2,-2,-1,2,15
18:25:52:336016,14,-15,-19,2,-2,-1,2,15
18:25:52:336876,-26,-38,-8,-4,-4,-4,-10,-10
18:25:52:351057,-29,-2,0,7,3,1,-4,-13
18:25:52:351866,-29,-2,0,7,3,1,-4,-13
18:25:52:357865,-22,35,-13,-4,2,2,0,-2
18:25:52:373530,-8,-30,13,-2,0,-3,-5,-3
18:25:52:374325,-8,-30,13,-2,0,-3,-5,-3
18:25:52:380353,-3,-19,31,8,3,1,2,4
18:25:52:387867,-29,-27,-25,-3,-2,0,14,-8
18:25:52:395382,-29,-27,-25,-3,-2,0,14,-8
18:25:52:402884,-5,2,-7,-2,-2,-4,-13,-6
18:25:52:411012,29,37,-10,-1,1,2,-4,-49
18:25:52:411887,29,37,-10,-1,1,2,-4,-49
18:25:52:417908,18,-7,3,6,1,2,8,5
18:25:52:433551,39,13,7,3,2,1,0,36
18:25:52:434364,39,13,7,3,2,1,0,36
18:25:52:448492,-11,-5,-3,-9,-5,-3,-7,-43
18:25:52:449293,-6,-16,6,-1,-2,-3,-1,16
18:25:52:455379,-6,-16,6,-1,-2,-3,-1,16
18:25:52:462894,-3,-24,-3,-6,-1,-2,11,36
18:25:52:471093,10,-20,-7,-10,-2,0,3,3
18:25:52:471898,10,-20,-7,-10,-2,0,3,3
18:25:52:477881,39,18,6,0,0,3,-1,-20
18:25:52:493529,33,26,0,0,-1,-2,-6,4
18:25:52:494376,33,26,0,0,-1,-2,-6,4
18:25:52:500322,-3,-27,16,3,-1,2,1,12
18:25:52:507894,-13,4,8,6,0,0,2,-41
18:25:52:515415,-13,4,8,6,0,0,2,-41
18:25:52:522901,-41,-23,-5,-7,-2,-2,7,-50
18:25:52:531021,-7,0,-9,-13,-3,0,-6,-4
18:25:52:531870,-7,0,-9,-13,-3,0,-6,-4
18:25:52:537864,19,-1,-8,-8,-2,1,4,26
18:25:52:553490,-23,-1,0,10,2,-4,-8,16
18:25:52:554334,-23,-1,0,10,2,-4,-8,16
18:25:52:560338,12,4,-9,-5,-4,-2,-3,23
18:25:52:567891,12,1,5,-3,-1,2,5,16
18:25:52:575345,12,1,5,-3,-1,2,5,16
18:25:52:582875,-47,-36,8,3,-1,-4,-6,8
18:25:52:590996,-52,-72,-4,-1,-5,-1,-2,15
18:25:52:591909,-52,-72,-4,-1,-5,-1,-2,15
18:25:52:614218,-50,-4,5,-6,-3,-3,-4,9
18:25:52:615011,30,10,17,0,2,1,2,27
18:25:52:615876,30,10,17,0,2,1,2,27
18:25:52:620345,7,15,4,0,-1,-4,-16,12
18:25:52:627913,-35,-12,-13,-2,-2,-4,-12,-41
18:25:52:635391,-35,-12,-13,-2,-2,-4,-12,-41
18:25:52:642870,16,-17,22,-6,2,2,7,-2
18:25:52:650987,57,47,-7,1,-1,1,3,8
18:25:52:651853,57,47,-7,1,-1,1,3,8
18:25:52:665351,-7,-41,-8,7,-4,-5,5,-2
18:25:52:673492,4,24,20,7,-1,0,10,25
18:25:52:674329,4,24,20,7,-1,0,10,25
18:25:52:680361,52,28,-18,0,0,-3,-11,15
18:25:52:687865,-20,-11,-16,-6,-2,-3,-10,-15
18:25:52:695343,-20,-11,-16,-6,-2,-3,-10,-15
18:25:52:702907,-8,-17,-27,-4,0,-3,-6,-13
18:25:52:711061,15,9,4,-10,-4,-1,2,-8
18:25:52:711874,15,9,4,-10,-4,-1,2,-8
18:25:52:717806,30,14,-28,-3,-6,-4,-4,-5
18:25:52:733480,-56,-62,6,11,0,-1,0,9
18:25:52:734322,-56,-62,6,11,0,-1,0,9
18:25:52:740304,17,31,-4,-3,-2,2,1,5
18:25:52:747895,11,23,-2,-1,-3,-4,-22,-30
18:25:52:755406,11,23,-2,-1,-3,-4,-22,-30
18:25:52:762808,-17,-10,5,3,0,2,4,-6
18:25:52:779180,14,16,-20,-6,-1,0,3,3
18:25:52:780032,14,16,-20,-6,-1,0,3,3
18:25:52:780876,-88,-39,-16,-5,-4,-3,14,-42
18:25:52:793511,16,17,13,3,-1,-5,-17,-9
18:25:52:794312,16,17,13,3,-1,-5,-17,-9
18:25:52:800373,33,21,3,1,0,3,10,20
18:25:52:807893,-26,-39,2,4,-1,2,12,-4
18:25:52:815378,-26,-39,2,4,-1,2,12,-4
18:25:52:822829,5,19,20,2,3,0,-5,0
18:25:52:831057,33,61,-4,1,-2,-6,-8,0
18:25:52:831916,33,61,-4,1,-2,-6,-8,0
18:25:52:837905,-1,-7,6,6,-1,1,-4,-7
18:25:52:853520,42,30,6,-4,1,7,28,10
18:25:52:854367,42,30,6,-4,1,7,28,10
18:25:52:860306,-19,-18,-6,3,-1,-3,-1,-3
18:25:52:867805,43,16,3,8,1,0,1,4
18:25:52:875376,43,16,3,8,1,0,1,4
18:25:52:882873,16,2,9,-5,0,-3,-7,-26
18:25:52:891028,-6,-26,-45,-1,0,-1,0,-6
18:25:52:891876,-6,-26,-45,-1,0,-1,0,-6
18:25:52:897881,-13,30,12,1,-1,-2,-3,8
18:25:52:913512,-23,9,-26,-4,-6,-7,-12,2
18:25:52:914330,-23,9,-26,-4,-6,-7,-12,2
18:25:52:920342,13,-11,-18,-13,-2,1,0,31
18:25:52:927816,-1,5,9,-6,0,2,2,7
18:25:52:935386,-1,5,9,-6,0,2,2,7
18:25:52:942890,6,-10,8,-4,-1,-1,5,23
18:25:52:951057,-34,-52,12,-13,-2,1,-5,-17
18:25:52:951879,-34,-52,12,-13,-2,1,-5,-17
18:25:52:957891,3,-2,-19,-2,4,3,-2,0
18:25:52:973525,-15,-8,31,11,1,1,4,2
18:25:52:974354,-15,-8,31,11,1,1,4,2
18:25:52:980331,77,39,-7,5,0,3,2,-5
18:25:52:987891,1,-1,11,4,1,-1,-1,2
18:25:52:995436,1,-1,11,4,1,-1,-1,2
18:25:53:2876,-53,-15,-20,-16,-6,0,-4,-5
18:25:53:11024,-47,-21,-54,-18,-10,-7,-7,-3
18:25:53:11881,-47,-21,-54,-18,-10,-7,-7,-3
18:25:53:17862,-34,-34,17,13,1,-2,-2,-16
18:25:53:33489,-4,-8,4,-2,2,1,19,-28
18:25:53:34291,-4,-8,4,-2,2,1,19,-28
18:25:53:40332,33,27,21,0,0,1,0,-3
18:25:53:47882,-15,-31,9,13,1,-1,6,19
18:25:53:55386,-15,-31,9,13,1,-1,6,19
18:25:53:62874,40,1,26,4,-1,-1,-2,-15
18:25:53:71006,23,43,17,3,2,1,-4,18
18:25:53:71852,23,43,17,3,2,1,-4,18
18:25:53:77787,-7,-7,-9,7,3,-2,-4,-1
18:25:53:93551,14,0,2,-7,-2,-4,-13,13
18:25:53:94333,14,0,2,-7,-2,-4,-13,13
18:25:53:100329,1,-10,-7,-5,-6,-5,-2,-1
18:25:53:107916,4,-18,-17,-12,-4,-2,-24,7
18:25:53:115398,4,-18,-17,-12,-4,-2,-24,7
18:25:53:122816,-6,38,-5,3,2,3,0,13
18:25:53:131047,27,32,17,5,4,2,5,-2
18:25:53:131879,27,32,17,5,4,2,5,-2
18:25:53:137884,2,-20,-23,-5,-5,-7,-12,-37
18:25:53:153509,-23,8,-1,-7,-5,-3,2,-15
18:25:53:154350,-23,8,-1,-7,-5,-3,2,-15
18:25:53:160319,-41,-32,4,2,1,0,6,33
18:25:53:167810,-12,4,2,2,0,-5,-10,-41
18:25:53:175369,-12,4,2,2,0,-5,-10,-41
18:25:53:191687,-43,-3,-8,11,0,0,-27,2
18:25:53:192465,-3,18,21,-9,-3,0,-1,20
18:25:53:193310,-3,18,21,-9,-3,0,-1,20
18:25:53:197828,15,4,-22,-14,2,-1,6,-1
18:25:53:213519,-41,-38,-18,1,-3,-5,-1,-5
18:25:53:214314,-41,-38,-18,1,-3,-5,-1,-5
18:25:53:220328,68,67,13,1,-4,-2,10,6
18:25:53:227882,4,-17,-4,-5,-1,1,3,-10
18:25:53:235401,4,-17,-4,-5,-1,1,3,-10
18:25:53:242841,-10,4,-2,-1,-2,-2,-25,-30
18:25:53:251035,0,-14,-2,0,0,-1,8,6
18:25:53:251942,0,-14,-2,0,0,-1,8,6
18:25:53:257913,-8,-8,-25,-4,-3,-4,4,0
18:25:53:273499,8,-8,-6,7,1,3,0,9
18:25:53:274383,8,-8,-6,7,1,3,0,9
18:25:53:280304,-39,-21,-5,0,-1,-1,8,26
18:25:53:287811,-14,-13,-7,7,-3,-2,2,8
18:25:53:295368,-14,-13,-7,7,-3,-2,2,8
18:25:53:302807,29,12,25,8,1,2,2,18
18:25:53:311071,31,2,6,-4,-1,0,-26,-26
18:25:53:311893,31,2,6,-4,-1,0,-26,-26
18:25:53:325317,23,-18,-2,-5,-1,0,4,-11
18:25:53:333544,-1,23,5,0,-1,-4,-12,15
18:25:53:334343,-1,23,5,0,-1,-4,-12,15
18:25:53:340346,-24,-11,-25,-12,-5,-2,10,-4
18:25:53:356068,-15,5,15,3,1,0,14,-4
18:25:53:356879,-15,5,15,3,1,0,14,-4
18:25:53:362790,8,37,4,-2,-2,2,3,0
18:25:53:371082,8,37,4,-2,-2,2,3,0
18:25:53:371886,-4,17,-23,-3,-2,-1,-1,10
18:25:53:385347,-25,-63,0,0,0,-3,-26,18
18:25:53:393532,-25,-63,0,0,0,-3,-26,18
18:25:53:394361,29,35,4,2,-2,-4,3,25
18:25:53:400312,14,11,-13,-2,3,3,13,10
18:25:53:424912,14,11,-13,-2,3,3,13,10
18:25:53:425692,45,10,2,8,3,3,6,18
18:25:53:426497,7,2,6,-5,-4,-3,-4,-21
18:25:53:431030,7,2,6,-5,-4,-3,-4,-21
18:25:53:431881,2,0,-14,-6,2,0,9,-10
18:25:53:445342,33,27,11,-1,-2,1,8,9
18:25:53:453516,33,27,11,-1,-2,1,8,9
18:25:53:454338,8,-6,0,-4,-5,-3,-1,-39
18:25:53:460395,5,-12,8,3,-1,0,15,31
18:25:53:476064,5,-12,8,3,-1,0,15,31
18:25:53:476856,-9,33,-10,-10,-4,-6,-8,-21
18:25:53:482895,33,42,20,3,-1,-2,9,-6
18:25:53:491008,33,42,20,3,-1,-2,9,-6
18:25:53:491886,-17,-1,36,8,0,-4,-5,5
18:25:53:505319,18,16,11,4,1,1,1,-38
18:25:53:513558,18,16,11,4,1,1,1,-38
18:25:53:514381,-6,-28,2,-2,-1,-2,-7,-8
18:25:53:520336,-2,18,17,12,1,-1,-3,-2
18:25:53:536070,-2,18,17,12,1,-1,-3,-2
18:25:53:536883,7,5,3,5,0,4,8,-28
18:25:53:542888,-75,-84,0,-1,1,-4,-11,4
18:25:53:551018,-75,-84,0,-1,1,-4,-11,4
18:25:53:551873,-21,-46,-10,-11,-4,-3,0,15
18:25:53:565308,-10,16,-21,-12,-4,-2,-7,-15
18:25:53:573558,-10,16,-21,-12,-4,-2,-7,-15
18:25:53:574341,1,-16,-19,-3,1,3,-5,-42
18:25:53:580352,7,-10,-10,-2,0,-1,0,-10
18:25:53:596067,7,-10,-10,-2,0,-1,0,-10
18:25:53:596874,52,41,23,-5,-1,0,7,11
18:25:53:602827,-13,-1,-7,4,1,-1,-6,-19
18:25:53:611097,-13,-1,-7,4,1,-1,-6,-19
18:25:53:611880,-45,-45,-18,-3,-2,-2,-5,16
18:25:53:625323,-7,45,1,4,1,-2,-8,-21
18:25:53:641685,-7,45,1,4,1,-2,-8,-21
18:25:53:642512,-28,-73,9,-3,0,1,3,40
18:25:53:643293,-16,13,-9,-8,-8,-2,2,12
18:25:53:656029,-16,13,-9,-8,-8,-2,2,12
18:25:53:656877,-1,7,12,6,2,-1,0,-4
18:25:53:662809,26,20,10,-1,2,2,6,25
18:25:53:671037,26,20,10,-1,2,2,6,25
18:25:53:671881,5,11,-6,4,1,0,-17,1
18:25:53:685350,10,-11,-10,-12,0,1,-2,-11
18:25:53:693548,10,-11,-10,-12,0,1,-2,-11
18:25:53:694361,1,13,-12,-8,-5,-5,3,-1
18:25:53:707922,-19,-21,6,-2,-4,-4,-1,4
18:25:53:716033,-19,-21,6,-2,-4,-4,-1,4
18:25:53:716875,25,59,-7,15,5,2,-3,19
18:25:53:722815,-14,-21,3,-5,-1,-2,-2,33
18:25:53:731044,-14,-21,3,-5,-1,-2,-2,33
18:25:53:731913,15,68,0,-4,-5,-4,-4,0
18:25:53:745331,-29,-33,0,-1,0,-4,-2,-13
18:25:53:753517,-29,-33,0,-1,0,-4,-2,-13
18:25:53:754339,-6,11,10,3,0,0,1,-14
18:25:53:760367,42,-21,24,4,1,2,-12,-1
18:25:53:776027,42,-21,24,4,1,2,-12,-1
18:25:53:776901,-33,-33,2,-7,-2,1,12,-19
18:25:53:782874,-19,-9,-31,-1,-2,2,11,2
18:25:53:791045,-19,-9,-31,-1,-2,2,11,2
18:25:53:791933,11,-20,-8,-1,3,6,19,13
18:25:53:805347,-17,14,4,5,-1,-6,-22,-25
18:25:53:813511,-17,14,4,5,-1,-6,-22,-25
18:25:53:814318,7,12,49,6,2,1,8,8
18:25:53:820355,6,10,-17,0,-1,5,12,8
18:25:53:836080,6,10,-17,0,-1,5,12,8
18:25:53:836893,-5,-30,-15,-4,-2,-8,-24,6
18:25:53:842883,-15,-1,-5,0,-2,-10,-8,-15
18:25:53:851026,-15,-1,-5,0,-2,-10,-8,-15
18:25:53:851896,0,3,8,3,-1,6,18,-2
18:25:53:865379,22,-13,-12,-4,-1,7,37,13
18:25:53:873595,22,-13,-12,-4,-1,7,37,13
18:25:53:874365,-31,-31,3,10,6,1,-17,-7
18:25:53:880349,-15,-49,7,2,0,-1,-1,-3
18:25:53:896069,-15,-49,7,2,0,-1,-1,-3
18:25:53:896878,10,14,-6,-3,-2,-7,-18,0
18:25:53:902907,2,9,-4,2,-3,-7,-20,-2
18:25:53:911030,2,9,-4,2,-3,-7,-20,-2
18:25:53:911878,-15,-39,-21,-7,-5,-2,8,1
18:25:53:925353,-79,18,-1,-8,-3,-3,-15,-28
18:25:53:933573,-79,18,-1,-8,-3,-3,-15,-28
18:25:53:934360,26,-7,31,2,-1,2,18,8
18:25:53:940344,-2,-31,9,-13,-7,-5,-8,-27
18:25:53:956074,-2,-31,9,-13,-7,-5,-8,-27
18:25:53:956920,-33,7,-27,0,0,-2,-5,-21
18:25:53:962925,9,9,-5,-1,2,2,4,4
18:25:53:971121,9,9,-5,-1,2,2,4,4
18:25:53:971879,38,84,-10,-11,-1,-6,-7,4
18:25:53:985347,2,7,-68,-14,-3,-3,-2,7
18:25:54:1693,2,7,-68,-14,-3,-3,-2,7
18:25:54:2517,-5,-3,16,1,0,2,1,1
18:25:54:3302,8,-55,27,-7,-6,-4,-2,16
18:25:54:16037,8,-55,27,-7,-6,-4,-2,16
18:25:54:16904,-37,-1,-7,4,4,4,-5,-12
18:25:54:22896,51,35,-6,5,3,3,3,15
18:25:54:31047,51,35,-6,5,3,3,3,15
18:25:54:31877,-2,-41,-49,-17,-6,-3,-1,-13
18:25:54:45354,18,4,-9,16,3,-2,-4,-7
18:25:54:53531,18,4,-9,16,3,-2,-4,-7
18:25:54:54326,6,-1,-3,-10,-6,-4,-2,8
18:25:54:60327,-10,12,4,-3,0,0,-1,-2
18:25:54:76008,-10,12,4,-3,0,0,-1,-2
18:25:54:76902,35,-9,23,7,-3,-4,-2,19
18:25:54:82880,-33,-54,0,-8,-5,-2,-1,-1
18:25:54:91010,-33,-54,0,-8,-5,-2,-1,-1
18:25:54:91865,-25,-8,0,10,0,-2,-2,8
18:25:54:105349,23,33,-29,-3,4,5,5,-4
18:25:54:113527,23,33,-29,-3,4,5,5,-4
18:25:54:114305,22,13,2,-6,1,0,4,20
18:25:54:120391,-20,4,32,-2,2,2,-2,5
18:25:54:136055,-20,4,32,-2,2,2,-2,5
18:25:54:136880,15,42,-56,-2,-2,0,2,4
18:25:54:142889,-35,-47,42,16,4,2,2,-13
18:25:54:150382,-35,-47,42,16,4,2,2,-13
18:25:54:157932,-33,-25,7,-10,-2,2,2,-17
18:25:54:165335,19,59,-15,0,-7,-10,-11,5
18:25:54:173524,19,59,-15,0,-7,-10,-11,5
18:25:54:174326,19,6,13,0,-3,-2,-3,0
18:25:54:180330,7,-12,-13,7,1,1,4,4
18:25:54:196020,7,-12,-13,7,1,1,4,4
18:25:54:196883,-9,-30,0,-15,-1,0,0,-4
18:25:54:202917,-31,-7,-33,-8,-2,-1,-4,-1
18:25:54:211051,-31,-7,-33,-8,-2,-1,-4,-1
18:25:54:211947,-6,-28,-19,5,-3,-2,-1,-13
18:25:54:225349,10,-23,26,7,7,4,4,5
18:25:54:233519,10,-23,26,7,7,4,4,5
18:25:54:234332,5,11,19,-5,-3,-4,-4,-42
18:25:54:240284,11,29,1,-3,-5,-3,-6,-28
18:25:54:256026,11,29,1,-3,-5,-3,-6,-28
18:25:54:256876,0,5,8,4,-6,-3,-6,13
18:25:54:262880,8,-16,21,0,-1,-1,3,5
18:25:54:270373,8,-16,21,0,-1,-1,3,5
18:25:54:277795,-71,-36,-28,-1,-1,-5,-14,-13
18:25:54:285309,-20,16,-9,0,0,0,2,13
18:25:54:293560,-20,16,-9,0,0,0,2,13
18:25:54:294332,12,20,24,12,6,3,3,14
18:25:54:307878,-11,8,2,3,-1,-2,-1,-65
18:25:54:316009,-11,8,2,3,-1,-2,-1,-65
18:25:54:316868,10,72,15,-5,0,3,5,1
18:25:54:322787,33,-8,38,0,0,1,3,22
18:25:54:330352,33,-8,38,0,0,1,3,22
18:25:54:337810,14,27,15,-11,-6,-2,1,-3
18:25:54:345320,-12,1,-2,6,-4,-2,-2,18
18:25:54:353534,-12,1,-2,6,-4,-2,-2,18
18:25:54:354345,5,-32,-25,-3,-2,0,2,4
18:25:54:368278,6,38,23,1,-2,-2,-3,-13
18:25:54:376041,6,38,23,1,-2,-2,-3,-13
18:25:54:376913,-7,-77,3,9,9,10,9,2
18:25:54:382835,6,12,14,-2,1,2,1,22
18:25:54:390399,6,12,14,-2,1,2,1,22
18:25:54:397820,28,29,-40,2,-5,-7,-6,-1
18:25:54:405321,-10,44,-9,-7,0,-1,0,7
18:25:54:413556,-10,44,-9,-7,0,-1,0,7
18:25:54:414360,-25,2,0,-3,-2,0,-5,-49
18:25:54:427832,51,40,-13,-4,-2,0,1,15
18:25:54:436045,51,40,-13,-4,-2,0,1,15
18:25:54:436902,-18,-41,-30,4,0,-4,-6,0
18:25:54:442837,-15,-43,54,6,-1,-1,0,-5
18:25:54:458568,-15,-43,54,6,-1,-1,0,-5
18:25:54:459327,28,67,24,-5,1,-1,5,25
18:25:54:474160,28,-31,-22,-6,-2,-5,-3,1
18:25:54:474986,28,-31,-22,-6,-2,-5,-3,1
18:25:54:475883,-9,-24,25,12,4,1,3,8
18:25:54:487900,0,-34,-27,2,-6,-3,-3,-1
18:25:54:496033,0,-34,-27,2,-6,-3,-3,-1
18:25:54:496908,13,10,-9,-10,-2,-3,-6,-10
18:25:54:502889,8,8,-32,1,1,1,-6,2
18:25:54:510363,8,8,-32,1,1,1,-6,2
18:25:54:517838,-1,14,-24,-2,-5,-3,-2,9
18:25:54:525294,0,18,9,-9,-2,-4,-4,-8
18:25:54:533551,0,18,9,-9,-2,-4,-4,-8
18:25:54:534358,11,51,7,2,-1,-4,0,5
18:25:54:547823,-100,-93,-32,-24,-6,-7,-10,-28
18:25:54:564166,-100,-93,-32,-24,-6,-7,-10,-28
18:25:54:564965,20,-31,6,1,-3,-1,-1,25
18:25:54:565784,1,2,14,6,0,2,3,23
18:25:54:570353,1,2,14,6,0,2,3,23
18:25:54:577891,-2,-57,9,-6,-8,-5,-8,0
18:25:54:585338,36,21,1,-5,-8,-1,-3,-11
18:25:54:593527,36,21,1,-5,-8,-1,-3,-11
18:25:54:594350,14,24,-4,-4,-1,2,10,1
18:25:54:607899,-82,-28,-6,-5,0,0,3,-26
18:25:54:616033,-82,-28,-6,-5,0,0,3,-26
18:25:54:616882,-5,-60,-6,-1,0,1,3,-10
18:25:54:622905,22,11,-5,0,-1,-2,3,26
18:25:54:630369,22,11,-5,0,-1,-2,3,26
18:25:54:637820,-10,38,18,2,0,0,39,6
18:25:54:645327,15,38,31,4,1,0,5,-2
18:25:54:653559,15,38,31,4,1,0,5,-2
18:25:54:654337,-3,2,6,10,2,8,19,3
18:25:54:667824,10,41,29,8,-2,-3,-9,4
18:25:54:676017,10,41,29,8,-2,-3,-9,4
18:25:54:676884,-5,8,13,7,2,-3,-13,7
18:25:54:682786,-15,-58,-18,1,1,-1,-9,6
18:25:54:690364,-15,-58,-18,1,1,-1,-9,6
18:25:54:697827,25,3,-32,-12,-5,-3,-15,-24
18:25:54:705326,16,45,-28,-5,-2,2,8,4
18:25:54:713559,16,45,-28,-5,-2,2,8,4
18:25:54:714368,17,24,-10,-6,-5,-3,-14,-3
18:25:54:727820,-11,8,31,8,5,9,38,10
18:25:54:736089,-11,8,31,8,5,9,38,10
18:25:54:736896,2,4,-3,1,-2,-4,-26,3
18:25:54:742831,-25,-37,-16,2,-8,-15,-75,-30
18:25:54:750400,-25,-37,-16,2,-8,-15,-75,-30
18:25:54:757935,-26,-55,-3,-9,-2,-1,3,-21
18:25:54:765366,28,10,5,4,2,5,22,8
18:25:54:773522,28,10,5,4,2,5,22,8
18:25:54:774325,-26,-6,4,0,-1,-1,-2,0
18:25:54:787854,30,1,29,-1,0,4,17,16
18:25:54:796072,30,1,29,-1,0,4,17,16
18:25:54:797271,-19,-39,4,-7,2,4,16,9
18:25:54:802918,-5,18,-13,-3,-1,-4,-1,4
18:25:54:810358,-5,18,-13,-3,-1,-4,-1,4
18:25:54:817911,-16,-5,-5,3,-6,0,10,-7
18:25:54:825342,11,-52,-21,-3,-3,-12,-73,-21
18:25:54:833503,11,-52,-21,-3,-3,-12,-73,-21
18:25:54:834328,9,14,1,1,0,-11,-56,-18
18:25:54:847820,17,6,4,2,0,1,5,-5
18:25:54:856014,17,6,4,2,0,1,5,-5
18:25:54:856883,7,-2,2,1,-5,3,6,19
18:25:54:862902,2,-5,-24,-9,1,4,28,21
18:25:54:870405,2,-5,-24,-9,1,4,28,21
18:25:54:877812,8,3,39,4,2,-4,11,15
18:25:54:885339,9,-15,-11,-1,0,-1,10,-4
18:25:54:893522,9,-15,-11,-1,0,-1,10,-4
18:25:54:894333,-1,-44,-12,5,0,11,54,28
18:25:54:907914,-14,0,-1,0,0,3,10,-6
18:25:54:924218,-14,0,-1,0,0,3,10,-6
18:25:54:925033,53,3,1,-6,-5,-4,-15,-10
18:25:54:925902,-10,10,5,-1,-3,1,-1,2
18:25:54:930358,-10,10,5,-1,-3,1,-1,2
18:25:54:937895,-50,-44,-22,-13,-6,-5,-11,-50
18:25:54:945341,6,-8,-17,-2,1,9,48,17
18:25:54:953533,6,-8,-17,-2,1,9,48,17
18:25:54:954376,16,41,5,-1,3,7,32,-6
18:25:54:967913,-12,-21,23,2,-4,-17,-89,-28
18:25:54:976029,-12,-21,23,2,-4,-17,-89,-28
18:25:54:976886,-21,8,37,2,2,-5,5,-17
18:25:54:982897,81,50,2,2,0,6,37,31
18:25:54:990375,81,50,2,2,0,6,37,31
18:25:54:997811,-23,-44,1,-4,-4,-9,-67,0
18:25:55:5294,14,17,8,-6,-4,-20,-47,-19
18:25:55:13602,14,17,8,-6,-4,-20,-47,-19
18:25:55:14354,-4,68,-28,2,2,6,32,-23
18:25:55:27847,-20,3,3,9,1,10,43,10
18:25:55:36053,-20,3,3,9,1,10,43,10
18:25:55:36922,5,27,-20,-1,2,-2,-19,26
18:25:55:42838,-36,-42,43,6,1,0,6,-11
18:25:55:50356,-36,-42,43,6,1,0,6,-11
18:25:55:57838,26,28,35,5,3,-4,-32,16
18:25:55:65347,-16,13,-53,-17,-5,5,31,23
18:25:55:73545,-16,13,-53,-17,-5,5,31,23
18:25:55:74371,4,-25,-5,-4,-3,-1,5,10
18:25:55:87840,24,9,0,15,4,2,-2,5
18:25:55:96032,24,9,0,15,4,2,-2,5
18:25:55:96895,13,43,-9,-4,-7,-1,31,14
18:25:55:102880,6,34,-18,-20,-8,-8,-5,-23
18:25:55:110394,6,34,-18,-20,-8,-8,-5,-23
18:25:55:117821,-17,-8,-15,5,1,7,8,3
18:25:55:125338,-7,-13,9,-4,-4,2,-1,-3
18:25:55:133585,-7,-13,9,-4,-4,2,-1,-3
18:25:55:134355,-48,-86,-1,6,0,2,-5,-1
18:25:55:147847,-27,-38,23,-2,0,-7,-14,-4
18:25:55:156035,-27,-38,23,-2,0,-7,-14,-4
18:25:55:156875,38,66,34,-3,-2,2,-1,3
18:25:55:162825,-4,26,-1,3,1,-1,4,1
18:25:55:170396,-4,26,-1,3,1,-1,4,1
18:25:55:177897,-6,-77,19,-7,-4,-8,-1,-14
18:25:55:185363,-20,-35,-27,-8,-10,-7,-13,-1
18:25:55:201046,-20,-35,-27,-8,-10,-7,-13,-1
18:25:55:201898,-28,6,-13,-9,-6,-7,-6,-7
18:25:55:207865,19,-46,-12,7,4,2,6,0
18:25:55:216019,19,-46,-12,7,4,2,6,0
18:25:55:216794,-19,-13,-14,-1,3,6,8,10
18:25:55:231077,24,42,-10,3,1,-2,-34,-7
18:25:55:231919,24,42,-10,3,1,-2,-34,-7
18:25:55:237838,58,17,19,4,0,1,-8,9
18:25:55:245344,0,59,40,10,2,10,31,14
18:25:55:252913,0,59,40,10,2,10,31,14
18:25:55:260355,35,30,-14,1,-1,-4,-26,-22
18:25:55:267890,-3,36,-6,-5,1,-17,-97,-30
18:25:55:276020,-3,36,-6,-5,1,-17,-97,-30
18:25:55:276873,-8,12,15,-2,-2,-1,22,11
18:25:55:291015,2,-4,-18,-13,1,8,40,12
18:25:55:291904,2,-4,-18,-13,1,8,40,12
18:25:55:297915,-9,-23,-35,-9,-3,-1,9,5
18:25:55:305334,-2,-3,12,8,3,7,35,-2
18:25:55:312909,-2,-3,12,8,3,7,35,-2
18:25:55:320305,-35,-29,-38,-10,-1,1,-14,-24
18:25:55:327829,4,-49,-12,-5,-1,-1,-1,-5
18:25:55:336029,4,-49,-12,-5,-1,-1,-1,-5
18:25:55:336902,-17,-7,-45,1,-1,-2,0,-12
18:25:55:350981,2,78,7,-6,-1,0,18,-3
18:25:55:351880,2,78,7,-6,-1,0,18,-3
18:25:55:357805,-54,-93,-8,1,-1,1,14,0
18:25:55:365298,-24,-46,-19,-7,-5,-2,23,0
18:25:55:372898,-24,-46,-19,-7,-5,-2,23,0
18:25:55:380284,26,38,24,6,2,0,-3,0
18:25:55:387772,7,-10,-1,-3,-4,-3,7,29
18:25:55:396038,7,-10,-1,-3,-4,-3,7,29
18:25:55:396919,26,-12,40,4,1,-6,-58,-1
18:25:55:411033,-61,-11,-24,0,-7,-7,17,-1
18:25:55:411912,-61,-11,-24,0,-7,-7,17,-1
18:25:55:417795,13,76,-16,-3,2,6,26,19
18:25:55:425290,-81,-84,20,4,7,-1,-36,-18
18:25:55:432905,-81,-84,20,4,7,-1,-36,-18
18:25:55:440325,9,33,18,9,1,-4,-1,22
18:25:55:447824,39,22,-7,-5,-4,-6,-13,-1
18:25:55:456063,39,22,-7,-5,-4,-6,-13,-1
18:25:55:456900,-2,14,33,1,1,0,4,-10
18:25:55:471026,21,-2,-8,4,1,0,-16,-35
18:25:55:471900,21,-2,-8,4,1,0,-16,-35
18:25:55:477813,11,0,1,-2,-4,-6,-4,-6
18:25:55:485313,-8,7,17,0,1,-1,8,-4
18:25:55:492906,-8,7,17,0,1,-1,8,-4
18:25:55:500353,-7,31,-47,-5,-5,-12,-43,-43
18:25:55:507814,37,9,-3,1,0,7,22,7
18:25:55:516015,37,9,-3,1,0,7,22,7
18:25:55:516797,-12,-101,-8,-7,-2,7,51,24
18:25:55:531055,7,18,21,-4,-4,0,-1,2
18:25:55:531923,7,18,21,-4,-4,0,-1,2
18:25:55:537832,9,24,-29,-9,-2,0,1,9
18:25:55:545324,-4,-61,-8,1,0,0,-4,1
18:25:55:552921,-4,-61,-8,1,0,0,-4,1
18:25:55:560354,-3,11,20,2,-3,-1,-1,-8
18:25:55:567907,21,13,-4,-1,-2,4,-3,8
18:25:55:576025,21,13,-4,-1,-2,4,-3,8
18:25:55:576907,-30,27,-6,-2,-2,-3,-7,-36
18:25:55:591021,-7,26,-5,0,0,1,-10,-1
18:25:55:591918,-7,26,-5,0,0,1,-10,-1
18:25:55:597910,6,-42,-23,-1,5,7,28,9
18:25:55:605359,-20,-14,-8,2,-2,-2,1,-4
18:25:55:612926,-20,-14,-8,2,-2,-2,1,-4
18:25:55:620302,9,13,-12,-4,-1,-4,-11,3
18:25:55:627835,37,6,9,9,3,10,23,2
18:25:55:636059,37,6,9,9,3,10,23,2
18:25:55:636921,0,-28,26,1,-6,-12,-55,-31
18:25:55:651027,19,61,1,-2,1,1,7,10
18:25:55:651894,19,61,1,-2,1,1,7,10
18:25:55:657806,5,7,10,-1,-3,-3,-6,12
18:25:55:665327,-44,-53,-22,-7,-3,-5,-3,-7
18:25:55:672927,-44,-53,-22,-7,-3,-5,-3,-7
18:25:55:680315,3,5,2,1,1,-13,-89,-29
18:25:55:687821,16,17,1,-3,-3,-3,10,15
18:25:55:696049,16,17,1,-3,-3,-3,10,15
18:25:55:696902,-13,-12,12,0,1,6,16,10
18:25:55:711037,-11,-10,13,4,-2,-7,-53,-21
18:25:55:711945,-11,-10,13,4,-2,-7,-53,-21
18:25:55:717810,11,-7,4,2,1,9,54,14
18:25:55:725352,-6,17,-4,-6,-3,-6,10,-13
18:25:55:732903,-6,17,-4,-6,-3,-6,10,-13
18:25:55:740329,-13,-26,3,1,-2,3,21,13
18:25:55:747828,38,6,20,2,3,7,35,21
18:25:55:756072,38,6,20,2,3,7,35,21
18:25:55:756905,-7,-13,1,1,-1,-1,-2,-25
18:25:55:771040,6,-9,15,-1,-2,-3,-2,2
18:25:55:771892,6,-9,15,-1,-2,-3,-2,2
18:25:55:777834,34,25,12,3,-2,3,24,17
18:25:55:785316,-3,-9,-4,9,5,1,-11,-10
18:25:55:792928,-3,-9,-4,9,5,1,-11,-10
18:25:55:800332,-40,-37,-12,-10,-2,-1,2,6
18:25:55:807839,19,34,-12,-15,-6,-3,-7,5
18:25:55:816005,19,34,-12,-15,-6,-3,-7,5
18:25:55:816793,5,-5,-18,-9,-2,-3,-9,2
18:25:55:831081,-15,-18,5,-5,-2,-8,3,16
18:25:55:831899,-15,-18,5,-5,-2,-8,3,16
18:25:55:837832,-13,16,7,-4,0,-1,12,20
18:25:55:845338,-12,-41,-2,-4,-3,0,-4,-13
18:25:55:852906,-12,-41,-2,-4,-3,0,-4,-13
18:25:55:860355,-24,-19,-10,1,0,0,7,-18
18:25:55:867908,-13,-65,4,4,4,2,-1,-4
18:25:55:876082,-13,-65,4,4,4,2,-1,-4
18:25:55:876925,-17,-23,3,-1,-5,-5,11,-2
18:25:55:891011,-54,-9,11,-1,-4,-2,3,-7
18:25:55:891906,-54,-9,11,-1,-4,-2,3,-7
18:25:55:897893,11,60,23,-2,-2,0,0,20
18:25:55:905352,0,8,-1,-1,-1,0,4,18
18:25:55:912905,0,8,-1,-1,-1,0,4,18
18:25:55:920303,3,-31,-14,4,1,-1,4,-1
18:25:55:927799,4,37,-5,0,2,8,14,9
18:25:55:936061,4,37,-5,0,2,8,14,9
18:25:55:936907,1,-30,-14,1,-1,5,28,6
18:25:55:951039,15,-8,-23,-2,-4,-11,-30,-25
18:25:55:951918,15,-8,-23,-2,-4,-11,-30,-25
18:25:55:957814,-14,6,13,-1,-2,-1,-5,-5
18:25:55:965300,-1,12,-11,-1,0,5,21,8
18:25:55:972909,-1,12,-11,-1,0,5,21,8
18:25:55:980303,20,4,-16,-2,-3,0,-2,-1
18:25:55:987812,1,-4,-3,1,-1,-3,-8,-5
18:25:55:996073,1,-4,-3,1,-1,-3,-8,-5
18:25:55:996920,-19,-27,-37,-11,-3,-3,-20,-2
18:25:56:11060,12,-5,-39,-2,-3,-3,2,9
18:25:56:11910,12,-5,-39,-2,-3,-3,2,9
18:25:56:17816,9,-9,-8,1,2,-3,-5,-5
18:25:56:25303,-33,-15,-6,-15,-7,-2,-5,-10
18:25:56:32902,-33,-15,-6,-15,-7,-2,-5,-10
18:25:56:40338,-18,-86,13,5,-1,0,-11,-15
18:25:56:47832,-2,4,-2,2,-4,-18,-97,-38
18:25:56:56060,-2,4,-2,2,-4,-18,-97,-38
18:25:56:56903,-7,24,12,0,-1,-6,-31,-9
18:25:56:71058,9,3,4,1,-1,4,24,-9
18:25:56:71943,9,3,4,1,-1,4,24,-9
18:25:56:77870,22,49,19,-1,2,2,20,19
18:25:56:85335,-3,-12,-30,-4,-4,-2,4,12
18:25:56:92944,-3,-12,-30,-4,-4,-2,4,12
18:25:56:100362,-17,3,-13,-1,0,0,13,-2
18:25:56:107867,-18,2,15,-2,0,-20,-87,-47
18:25:56:116004,-18,2,15,-2,0,-20,-87,-47
18:25:56:116928,-19,-9,-40,-3,-2,-4,-2,-8
18:25:56:131451,14,22,22,9,8,13,52,22
18:25:56:132272,14,22,22,9,8,13,52,22
18:25:56:137947,8,29,24,2,-3,-2,-12,0
18:25:56:145377,6,1,4,-3,-1,4,27,16
18:25:56:152975,6,1,4,-3,-1,4,27,16
18:25:56:160305,34,-36,20,-2,-4,-2,-18,-32
18:25:56:167919,0,6,23,-1,2,6,21,0
18:25:56:175373,0,6,23,-1,2,6,21,0
18:25:56:182837,26,6,-15,4,2,0,-16,0
18:25:56:191032,-50,-91,-12,-5,-4,3,2,-17
18:25:56:191912,-50,-91,-12,-5,-4,3,2,-17
18:25:56:197845,17,33,13,-2,-5,-2,4,22
18:25:56:213499,8,32,1,0,-1,0,23,17
18:25:56:214357,8,32,1,0,-1,0,23,17
18:25:56:220280,-20,-24,40,-4,-3,-2,2,-6
18:25:56:227816,21,6,2,0,-2,4,25,9
18:25:56:235396,21,6,2,0,-2,4,25,9
18:25:56:242827,-12,23,2,-5,0,1,9,-10
18:25:56:251035,-24,-27,18,4,0,-3,-15,-1
18:25:56:251935,-24,-27,18,4,0,-3,-15,-1
18:25:56:257840,-52,-69,-15,-13,-9,-10,-7,-16
18:25:56:273546,21,16,-26,-4,-3,-4,-9,7
18:25:56:274351,21,16,-26,-4,-3,-4,-9,7
18:25:56:280313,19,19,5,2,-1,4,14,10
18:25:56:287846,27,39,-8,2,0,-7,-34,-33
18:25:56:295423,27,39,-8,2,0,-7,-34,-33
18:25:56:302860,4,20,-15,3,0,0,-13,20
18:25:56:310985,-36,-24,-33,-5,-1,2,15,15
18:25:56:311854,-36,-24,-33,-5,-1,2,15,15
18:25:56:317838,-2,26,2,3,2,2,1,-2
18:25:56:333541,10,-17,4,-3,-2,-3,2,-17
18:25:56:334343,10,-17,4,-3,-2,-3,2,-17
18:25:56:340352,14,13,-2,2,1,0,7,4
18:25:56:347839,6,-4,3,3,-2,2,9,3
18:25:56:355415,6,-4,3,3,-2,2,9,3
18:25:56:371663,9,-16,9,-1,-3,-10,-65,-50
18:25:56:372453,0,19,-2,-4,-1,-2,-7,4
18:25:56:373265,0,19,-2,-4,-1,-2,-7,4
18:25:56:377841,-10,-30,-5,-3,-3,-1,19,13
18:25:56:393546,-38,-43,-44,-7,-5,-1,18,19
18:25:56:394351,-38,-43,-44,-7,-5,-1,18,19
18:25:56:400348,-8,0,-34,-4,2,2,22,-2
18:25:56:407854,24,1,10,-1,0,-3,-9,10
18:25:56:415422,24,1,10,-1,0,-3,-9,10
18:25:56:422840,-43,-4,-10,3,2,-1,6,8
18:25:56:431009,-31,-1,-16,-6,-4,-1,2,-12
18:25:56:431826,-31,-1,-16,-6,-4,-1,2,-12
18:25:56:437923,17,41,12,4,2,3,9,-4
18:25:56:453497,28,14,-6,-2,-2,2,-1,-2
18:25:56:454305,28,14,-6,-2,-2,2,-1,-2
18:25:56:460333,1,-11,-10,-7,-4,-2,6,6
18:25:56:467816,30,15,8,-5,-3,-1,19,15
18:25:56:475358,30,15,8,-5,-3,-1,19,15
18:25:56:482960,-39,-18,-18,0,-6,-13,-18,-4
18:25:56:491002,4,11,10,2,3,1,-3,-7
18:25:56:491906,4,11,10,2,3,1,-3,-7
18:25:56:497785,22,34,-10,-1,2,-4,-4,-1
18:25:56:513549,-1,-40,43,16,8,6,10,17
18:25:56:514330,-1,-40,43,16,8,6,10,17
18:25:56:520358,-16,1,9,-8,-5,2,12,-18
18:25:56:527916,22,5,0,-3,-1,-1,-10,21
18:25:56:535377,22,5,0,-3,-1,-1,-10,21
18:25:56:542848,7,14,19,6,-1,-2,-30,7
18:25:56:551068,-5,49,16,-3,0,-6,-45,-24
18:25:56:551975,-5,49,16,-3,0,-6,-45,-24
18:25:56:557822,14,18,5,6,6,4,36,-4
18:25:56:573558,10,1,10,8,5,6,24,15
18:25:56:574327,10,1,10,8,5,6,24,15
18:25:56:580302,-20,-24,-3,-5,1,2,0,1
18:25:56:587833,-11,-7,-46,-4,-2,-1,13,-31
18:25:56:595408,-11,-7,-46,-4,-2,-1,13,-31
18:25:56:602807,20,-6,-12,-4,-1,2,-1,11
18:25:56:611054,-3,77,4,-1,-2,3,17,-17
18:25:56:611951,-3,77,4,-1,-2,3,17,-17
18:25:56:617850,13,-17,-23,-2,-1,0,10,-3
18:25:56:633519,-9,-12,14,-2,-4,-1,-1,-14
18:25:56:634365,-9,-12,14,-2,-4,-1,-1,-14
18:25:56:640299,8,12,-16,-2,2,3,6,2
18:25:56:647803,20,-25,4,4,-1,-7,-8,-4
18:25:56:655393,20,-25,4,4,-1,-7,-8,-4
18:25:56:662857,12,65,61,21,8,2,1,30
18:25:56:671024,-40,-69,-3,-7,-5,2,8,8
18:25:56:671908,-40,-69,-3,-7,-5,2,8,8
18:25:56:677847,4,-10,-13,-8,-2,0,-26,0
18:25:56:693548,0,21,35,2,-1,-9,-42,4
18:25:56:694369,0,21,35,2,-1,-9,-42,4
18:25:56:700348,32,-29,18,3,1,4,20,1
18:25:56:707824,-21,-18,-13,-7,1,-1,1,-17
18:25:56:715346,-21,-18,-13,-7,1,-1,1,-17
18:25:56:722842,15,11,17,-5,-5,-5,2,7
18:25:56:731009,16,14,-7,-2,-3,-2,3,13
18:25:56:731919,16,14,-7,-2,-3,-2,3,13
18:25:56:737921,7,24,-20,-3,-1,2,1,0
18:25:56:753522,-14,-5,-11,-3,-3,-15,-34,-8
18:25:56:754303,-14,-5,-11,-3,-3,-15,-34,-8
18:25:56:760334,1,-3,-23,-11,-7,-4,-2,2
18:25:56:767832,-34,-64,26,8,6,10,32,11
18:25:56:783571,-34,-64,26,8,6,10,32,11
18:25:56:784372,-7,-11,2,-9,-7,-5,-14,-3
18:25:56:792100,2,-17,-19,-3,-3,-3,-6,-16
18:25:56:798595,2,-17,-19,-3,-3,-3,-6,-16
18:25:56:799356,-20,-14,-18,-1,0,-2,-11,17
18:25:56:813553,19,6,0,2,-1,1,14,17
18:25:56:814344,19,6,0,2,-1,1,14,17
18:25:56:828495,17,113,14,0,-4,-1,-16,17
18:25:56:829262,1,-7,-8,-3,-3,0,-2,2
18:25:56:835397,1,-7,-8,-3,-3,0,-2,2
18:25:56:842842,-6,-40,14,8,1,0,11,1
18:25:56:851088,-12,16,-9,-11,-1,-1,-4,-10
18:25:56:851912,-12,16,-9,-11,-1,-1,-4,-10
18:25:56:857838,-12,-37,14,-1,-1,-3,-5,-22
18:25:56:873550,17,38,0,5,3,2,5,5
18:25:56:874349,17,38,0,5,3,2,5,5
18:25:56:888470,-24,-19,-14,-2,-1,-1,-2,-20
18:25:56:889261,10,21,-8,-2,-2,-6,-18,10
18:25:56:903519,10,21,-8,-2,-2,-6,-18,10
18:25:56:904344,-7,-65,-16,1,2,3,18,-8
18:25:56:911012,-3,-1,12,5,1,12,21,19
18:25:56:911930,-3,-1,12,5,1,12,21,19
18:25:56:917816,9,11,9,-1,-3,-3,-17,-10
18:25:56:933491,1,-9,-19,-1,-2,-1,-9,-15
18:25:56:934342,1,-9,-19,-1,-2,-1,-9,-15
18:25:56:940383,-6,7,1,-4,-3,-1,14,-6
18:25:56:947859,-12,10,16,0,-3,-3,2,-7
18:25:56:963505,-12,10,16,0,-3,-3,2,-7
18:25:56:964299,-3,-51,22,7,2,-3,-11,-8
18:25:56:971069,-7,-17,8,0,1,-3,-6,-7
18:25:56:971933,-7,-17,8,0,1,-3,-6,-7
18:25:56:977816,0,7,-3,-1,1,5,1,9
18:25:56:993496,-10,-16,-7,-5,-3,-2,-24,-25
18:25:56:994313,-10,-16,-7,-5,-3,-2,-24,-25
18:25:57:361,-6,7,-5,-2,0,4,68,-2
18:25:57:7847,18,-33,6,-1,1,0,24,29
18:25:57:15406,18,-33,6,-1,1,0,24,29
18:25:57:22793,0,-36,-21,-3,-2,0,4,-7
18:25:57:31013,-4,-12,15,11,6,-3,-6,-14
18:25:57:31910,-4,-12,15,11,6,-3,-6,-14
18:25:57:37813,-93,-60,-23,-10,-5,-5,-11,-3
18:25:57:53558,8,18,-2,-2,-2,-2,-12,6
18:25:57:54355,8,18,-2,-2,-2,-2,-12,6
18:25:57:60317,29,52,17,6,1,-4,-26,-26
18:25:57:67830,0,23,26,-1,-2,5,10,11
18:25:57:75366,0,23,26,-1,-2,5,10,11
18:25:57:82803,-12,2,-1,-1,0,-4,-13,1
18:25:57:106702,32,19,0,-7,-3,1,7,11
18:25:57:107574,32,19,0,-7,-3,1,7,11
18:25:57:108336,30,11,7,5,0,1,-13,20
18:25:57:113501,3,36,-45,-6,-6,-3,-2,13
18:25:57:114306,3,36,-45,-6,-6,-3,-2,13
18:25:57:120350,31,68,24,-1,0,2,13,17
18:25:57:136056,17,11,3,-2,0,-2,-3,8
18:25:57:136912,17,11,3,-2,0,-2,-3,8
18:25:57:142866,2,-3,-35,-6,-9,-8,0,2
18:25:57:150990,-4,-27,2,-4,-4,-5,-5,-1
18:25:57:151847,-4,-27,2,-4,-4,-5,-5,-1
18:25:57:165340,10,6,19,9,2,0,-6,3
18:25:57:174586,-7,-37,-17,-17,-6,-1,0,-3
18:25:57:181063,-7,-37,-17,-17,-6,-1,0,-3
18:25:57:181908,-15,-13,-19,-7,-1,-3,-12,-18
18:25:57:196514,-2,5,-4,12,1,-3,2,-10
18:25:57:197368,-2,5,-4,12,1,-3,2,-10
18:25:57:202877,18,14,18,1,1,1,-3,15
18:25:57:211007,-8,-22,-7,3,3,1,-3,-8
18:25:57:211820,-8,-22,-7,3,3,1,-3,-8
18:25:57:225332,-34,16,-15,-3,-1,1,0,-8
18:25:57:233583,0,-8,-13,1,-1,-1,-5,-14
18:25:57:234346,0,-8,-13,1,-1,-1,-5,-14
18:25:57:240360,9,-44,-39,-6,-5,-3,-4,0
18:25:57:256059,-16,3,-2,-3,-3,0,3,-9
18:25:57:256900,-16,3,-2,-3,-3,0,3,-9
18:25:57:271676,2,-14,-29,-8,-3,-5,-9,2
18:25:57:272426,23,14,1,5,2,2,3,14
18:25:57:286016,23,14,1,5,2,2,3,14
18:25:57:286816,-9,-1,14,2,0,-1,-5,-11
18:25:57:293529,7,7,18,-1,-2,1,4,4
18:25:57:294333,7,7,18,-1,-2,1,4,4
18:25:57:300326,-2,-40,-53,-11,1,3,1,-9
18:25:57:316028,-2,-40,-53,-11,1,3,1,-9
18:25:57:316900,-31,-28,-34,-6,-6,-7,-10,-15
18:25:57:322775,-20,14,2,4,2,0,-1,-21
18:25:57:331466,-20,14,2,4,2,0,-1,-21
18:25:57:337795,-33,-18,14,3,-1,-3,-4,-6
18:25:57:345309,36,40,31,7,6,3,3,17
18:25:57:353562,36,40,31,7,6,3,3,17
18:25:57:354357,-26,14,2,-4,-1,0,-3,-8
18:25:57:360324,-22,-8,2,3,-1,-1,-2,-11
18:25:57:384170,-22,-8,2,3,-1,-1,-2,-11
18:25:57:384997,11,-11,16,-11,-3,-4,-4,-5
18:25:57:385811,-20,-3,-8,-2,-4,-4,-3,1
18:25:57:391018,-20,-3,-8,-2,-4,-4,-3,1
18:25:57:391831,29,13,-2,3,2,1,2,-13
18:25:57:405388,-9,-18,19,-6,-5,-5,-3,-6
18:25:57:413529,-9,-18,19,-6,-5,-5,-3,-6
18:25:57:414313,-1,3,8,0,-1,-2,0,7
18:25:57:420360,26,4,-1,5,-1,1,3,-7
18:25:57:436086,26,4,-1,5,-1,1,3,-7
18:25:57:436934,-10,-25,-15,-3,-4,-3,-2,5
18:25:57:442842,8,-19,-5,-7,-6,-4,-1,8
18:25:57:459049,8,-19,-5,-7,-6,-4,-1,8
18:25:57:459834,18,19,-22,4,4,5,2,0
18:25:57:465327,-48,-47,5,-9,-6,-6,-11,-43
18:25:57:473570,-48,-47,5,-9,-6,-6,-11,-43
18:25:57:474346,-39,-37,-12,-7,-4,-2,-1,17
18:25:57:487816,22,30,-2,0,-1,1,5,22
18:25:57:496037,22,30,-2,0,-1,1,5,22
18:25:57:496919,23,35,57,15,2,3,5,9
18:25:57:502806,4,6,4,1,0,-1,-2,5
18:25:57:511073,4,6,4,1,0,-1,-2,5
18:25:57:511931,-2,-12,-20,2,3,3,3,-13
18:25:57:525320,-11,15,-16,3,2,-1,-4,-9
18:25:57:533583,-11,15,-16,3,2,-1,-4,-9
18:25:57:534348,-6,8,-5,-3,-6,-7,-6,0
18:25:57:547808,20,-2,0,-2,-1,2,4,16
18:25:57:556050,20,-2,0,-2,-1,2,4,16
18:25:57:556916,19,-23,7,-1,0,2,1,-2
18:25:57:562823,1,-2,-8,-4,-3,-1,-1,0
18:25:57:571090,1,-2,-8,-4,-3,-1,-1,0
18:25:57:571906,-1,-2,30,5,-4,-3,-2,-4
18:25:57:585324,19,12,5,3,1,-1,1,16
18:25:57:593546,19,12,5,3,1,-1,1,16
18:25:57:594365,-11,26,-10,-2,2,3,-2,-7
18:25:57:607799,-1,-11,-22,4,0,-2,-2,9
18:25:57:616069,-1,-11,-22,4,0,-2,-2,9
18:25:57:616917,15,-2,22,2,4,1,3,-1
18:25:57:631680,0,26,-12,-3,-2,-1,-1,4
18:25:57:632515,0,26,-12,-3,-2,-1,-1,4
18:25:57:633332,5,5,19,-1,-2,-1,1,6
18:25:57:645321,-14,-3,8,-5,-3,2,1,-2
18:25:57:653546,-14,-3,8,-5,-3,2,1,-2
18:25:57:654329,13,21,-31,-3,-1,-2,-4,-4
18:25:57:660359,-13,1,23,4,1,0,-2,3
18:25:57:676020,-13,1,23,4,1,0,-2,3
18:25:57:676825,-22,-29,-7,-5,-1,-1,-3,-3
18:25:57:682838,-12,-19,23,0,-2,-1,-3,-8
18:25:57:691049,-12,-19,23,0,-2,-1,-3,-8
18:25:57:691842,-47,-52,-30,-2,-3,-7,-24,-13
18:25:57:705367,34,21,12,7,0,-1,1,0
18:25:57:713532,34,21,12,7,0,-1,1,0
18:25:57:714329,22,42,4,-1,0,-1,6,10
18:25:57:720341,0,-70,-35,-11,-5,-1,1,0
18:25:57:736086,0,-70,-35,-11,-5,-1,1,0
18:25:57:736918,-7,1,-5,0,-1,0,0,-11
18:25:57:742853,-13,-22,39,5,-1,-3,-3,-6
18:25:57:758570,-13,-22,39,5,-1,-3,-3,-6
18:25:57:759368,-31,-25,-24,-7,-7,-7,-6,-9
18:25:57:765323,-15,-4,17,-1,1,0,2,-5
18:25:57:773585,-15,-4,17,-1,1,0,2,-5
18:25:57:774390,34,36,15,3,0,2,9,10
18:25:57:780366,8,25,19,3,2,1,0,-9
18:25:57:796039,8,25,19,3,2,1,0,-9
18:25:57:796931,42,18,9,1,1,3,1,9
18:25:57:802812,-22,-26,7,-9,-3,-4,-2,3
18:25:57:811025,-22,-26,7,-9,-3,-4,-2,3
18:25:57:811865,8,-7,8,-2,2,0,0,2
18:25:57:825326,17,9,-41,-3,-3,0,2,9
18:25:57:833604,17,9,-41,-3,-3,0,2,9
18:25:57:834366,-39,-53,-28,-8,-6,-3,-3,-4
18:25:57:840356,8,24,-11,3,-1,-2,1,16
18:25:57:856055,8,24,-11,3,-1,-2,1,16
18:25:57:856941,31,20,19,0,1,2,3,9
18:25:57:862822,11,3,27,5,-1,-1,-2,1
18:25:57:871079,11,3,27,5,-1,-1,-2,1
18:25:57:871930,2,28,1,-8,-4,-6,-4,-4
18:25:57:885354,1,3,-29,-10,-5,-3,-3,-12
18:25:57:893557,1,3,-29,-10,-5,-3,-3,-12
18:25:57:894384,-4,17,-18,3,-1,-1,2,1
18:25:57:900338,10,28,-10,1,1,1,1,-14
18:25:57:916090,10,28,-10,1,1,1,1,-14
18:25:57:916934,-41,-55,-11,-7,-5,-7,-11,-34
18:25:57:922854,-21,-62,4,-3,-2,-1,-3,-1
18:25:57:931080,-21,-62,4,-3,-2,-1,-3,-1
18:25:57:931922,-25,1,6,5,3,1,0,-9
18:25:57:945341,13,13,4,2,0,1,1,0
18:25:57:953542,13,13,4,2,0,1,1,0
18:25:57:954361,-17,-23,-43,-5,-5,0,0,6
18:25:57:960316,11,18,0,-2,-1,-2,-2,7
18:25:57:976050,11,18,0,-2,-1,-2,-2,7
18:25:57:976944,-7,42,11,-5,-2,-3,0,8
18:25:57:982810,-15,-64,5,-1,1,-2,-2,-6
18:25:57:991081,-15,-64,5,-1,1,-2,-2,-6
18:25:57:991924,22,7,0,1,-3,0,-1,-1
18:25:58:5335,-10,5,-2,-1,-2,-1,3,-3
18:25:58:13534,-10,5,-2,-1,-2,-1,3,-3
18:25:58:14351,-6,-33,-6,0,-2,-1,6,-3
18:25:58:20302,7,11,-19,-3,0,-2,-4,1
18:25:58:36040,7,11,-19,-3,0,-2,-4,1
18:25:58:36846,35,29,6,4,0,1,4,10
18:25:58:42825,-24,81,32,8,2,-1,-2,-24
18:25:58:58528,-24,81,32,8,2,-1,-2,-24
18:25:58:59344,4,27,-36,0,1,-2,-4,0
18:25:58:65363,-12,-32,-8,-1,-1,1,3,9
18:25:58:73545,-12,-32,-8,-1,-1,1,3,9
18:25:58:74336,18,2,22,6,1,3,8,9
18:25:58:87852,6,-1,-20,-2,-1,-3,-11,18
18:25:58:96041,6,-1,-20,-2,-1,-3,-11,18
18:25:58:96835,-13,-35,-13,-4,-1,-3,-1,1
18:25:58:102800,17,26,45,8,0,1,6,0
18:25:58:110369,17,26,45,8,0,1,6,0
18:25:58:117824,-5,29,52,5,3,1,-4,-2
18:25:58:125309,-21,-7,-32,0,-5,-6,-8,-37
18:25:58:133565,-21,-7,-32,0,-5,-6,-8,-37
18:25:58:134353,8,-18,-39,1,5,5,10,2
18:25:58:147839,-5,-28,-1,-1,-2,-3,-8,8
18:25:58:156044,-5,-28,-1,-1,-2,-3,-8,8
18:25:58:156839,0,14,-5,-1,-3,-5,-6,-11
18:25:58:162814,7,-51,-10,1,1,0,-3,1
18:25:58:170404,7,-51,-10,1,1,0,-3,1
18:25:58:177840,15,11,23,0,0,-3,0,14
18:25:58:185324,9,-10,2,-8,-4,-2,-4,-11
18:25:58:193554,9,-10,2,-8,-4,-2,-4,-11
18:25:58:194357,-4,-3,45,7,1,0,-8,-20
18:25:58:207834,-5,0,8,-3,0,0,3,15
18:25:58:216070,-5,0,8,-3,0,0,3,15
18:25:58:216943,-2,20,-19,-6,-1,-1,2,3
18:25:58:222831,0,11,8,3,0,1,11,14
18:25:58:230391,0,11,8,3,0,1,11,14
18:25:58:237827,3,-7,12,-4,-3,-4,-4,-1
18:25:58:254209,8,-67,-53,-9,-9,-9,-10,-6
18:25:58:255024,8,-67,-53,-9,-9,-9,-10,-6
18:25:58:255825,-12,-4,3,-3,-1,1,2,-2
18:25:58:276694,4,17,17,4,1,3,0,-3
18:25:58:277475,4,17,17,4,1,3,0,-3
18:25:58:278296,-2,-22,-8,-6,-1,-1,-1,7
18:25:58:282864,3,5,2,-3,0,1,1,-5
18:25:58:290364,3,5,2,-3,0,1,1,-5
18:25:58:297844,-2,-4,-21,-9,-1,0,-2,4
18:25:58:305352,-22,-38,24,3,2,0,-4,-13
18:25:58:313511,-22,-38,24,3,2,0,-4,-13
18:25:58:314343,-3,-24,-13,-9,-5,-5,-3,0
18:25:58:327862,6,13,-7,-3,1,1,0,5
18:25:58:336077,6,13,-7,-3,1,1,0,5
18:25:58:336850,-8,-17,-3,8,1,-1,-1,9
18:25:58:342823,1,47,-13,-7,-1,2,1,5
18:25:58:350391,1,47,-13,-7,-1,2,1,5
18:25:58:357829,-2,8,10,1,-3,-1,0,1
18:25:58:365329,-3,12,-26,-4,-1,-2,-4,-2
18:25:58:373557,-3,12,-26,-4,-1,-2,-4,-2
18:25:58:374356,3,1,0,0,-1,1,1,-3
18:25:58:387812,8,-1,15,-2,0,-2,-2,-6
18:25:58:396062,8,-1,15,-2,0,-2,-2,-6
18:25:58:396922,-18,-19,-22,11,3,0,-2,-17
18:25:58:402836,12,27,24,-2,2,1,2,6
18:25:58:410396,12,27,24,-2,2,1,2,6
18:25:58:417828,1,-8,-5,-7,-7,-3,-1,-1
18:25:58:425341,8,21,18,3,-1,0,3,1
18:25:58:433570,8,21,18,3,-1,0,3,1
18:25:58:434364,29,26,4,-1,-3,-1,-2,3
18:25:58:456671,-5,3,21,0,-4,-3,-5,-3
18:25:58:457496,-5,3,21,0,-4,-3,-5,-3
18:25:58:458304,-14,-41,3,-4,-2,-2,-3,-4
18:25:58:462818,-17,-32,-32,0,-2,-2,2,-12
18:25:58:470381,-17,-32,-32,0,-2,-2,2,-12
18:25:58:477834,5,10,15,-4,-1,0,-1,-9
18:25:58:485312,-3,-1,-24,-3,-3,-4,-3,-4
18:25:58:493584,-3,-1,-24,-3,-3,-4,-3,-4
18:25:58:494364,22,106,6,-2,0,0,3,14
18:25:58:516689,-5,0,2,0,3,2,0,-1
18:25:58:517532,-5,0,2,0,3,2,0,-1
18:25:58:518332,1,-14,-5,-4,-2,-2,0,5
18:25:58:522818,14,16,-4,-6,-5,-1,4,8
18:25:58:530394,14,16,-4,-6,-5,-1,4,8
18:25:58:537794,-8,-19,0,-1,1,-1,4,-24
18:25:58:554180,-8,-39,-12,-6,-4,-5,-9,-16
18:25:58:555021,-8,-39,-12,-6,-4,-5,-9,-16
18:25:58:555806,15,5,-10,-1,-1,-1,-2,3
18:25:58:567896,-48,-24,13,-3,-3,-3,-4,-3
18:25:58:576055,-48,-24,13,-3,-3,-3,-4,-3
18:25:58:576824,-5,-1,-9,-5,-3,-5,-3,5
18:25:58:582860,16,36,9,9,1,2,2,7
18:25:58:590381,16,36,9,9,1,2,2,7
18:25:58:597804,-8,-2,0,-5,-4,-4,-4,1
18:25:58:605302,7,45,36,4,2,3,4,3
18:25:58:613532,7,45,36,4,2,3,4,3
18:25:58:614350,2,3,3,-1,-2,-3,-10,1
18:25:58:627828,-38,-26,-9,6,2,-1,1,-3
18:25:58:636070,-38,-26,-9,6,2,-1,1,-3
18:25:58:636843,-44,-25,-3,6,3,1,0,2
18:25:58:642815,22,-3,7,-3,-2,-1,3,15
18:25:58:650396,22,-3,7,-3,-2,-1,3,15
18:25:58:657824,5,-10,9,4,3,-1,0,8
18:25:58:665353,-19,-33,-14,-6,-1,-1,0,-6
18:25:58:673553,-19,-33,-14,-6,-1,-1,0,-6
18:25:58:674345,-2,-19,12,2,-1,-3,-2,-4
18:25:58:687811,9,-9,-34,-10,-2,-2,0,6
18:25:58:696090,9,-9,-34,-10,-2,-2,0,6
18:25:58:696931,4,46,-17,-1,-2,3,1,10
18:25:58:702844,10,-36,6,4,0,0,0,-1
18:25:58:710437,10,-36,6,4,0,0,0,-1
18:25:58:717872,-17,-41,-10,3,1,3,7,6
18:25:58:725337,-29,-6,7,1,-3,-3,-2,2
18:25:58:733514,-29,-6,7,1,-3,-3,-2,2
18:25:58:734317,33,40,16,0,-3,-2,-5,-12
18:25:58:747848,22,13,6,-1,-1,-4,3,-10
18:25:58:756055,22,13,6,-1,-1,-4,3,-10
18:25:58:756933,-5,-46,-25,-3,-1,-2,-20,-3
18:25:58:762857,26,29,1,5,2,3,8,15
18:25:58:770409,26,29,1,5,2,3,8,15
18:25:58:777856,-2,-6,5,4,0,0,2,-16
18:25:58:785333,-12,-32,-43,-8,-3,-5,-8,-7
18:25:58:793536,-12,-32,-43,-8,-3,-5,-8,-7
18:25:58:794315,3,-5,-10,-3,0,0,8,9
18:25:58:807855,-31,-8,24,3,0,-2,-7,-9
18:25:58:816019,-31,-8,24,3,0,-2,-7,-9
18:25:58:816851,-31,-5,-11,-5,0,0,1,-8
18:25:58:822851,22,43,-4,-2,-2,-1,2,2
18:25:58:830362,22,43,-4,-2,-2,-1,2,2
18:25:58:837812,7,20,-16,-1,0,-1,-9,-10
18:25:58:845368,9,13,9,1,-1,-1,-3,-3
18:25:58:853545,9,13,9,1,-1,-1,-3,-3
18:25:58:854336,1,-16,-12,-1,-1,1,14,2
18:25:58:867863,3,-26,-1,2,-4,0,-4,5
18:25:58:876051,3,-26,-1,2,-4,0,-4,5
18:25:58:876859,17,8,6,1,1,-1,-3,-5
18:25:58:882806,0,5,13,-2,1,-1,-3,-7
18:25:58:890392,0,5,13,-2,1,-1,-3,-7
18:25:58:897850,-4,-3,20,9,1,-2,-1,1
18:25:58:905329,-2,-4,11,1,-1,-1,-2,0
18:25:58:913560,-2,-4,11,1,-1,-1,-2,0
18:25:58:914363,-4,-16,-5,-2,-4,0,1,6
18:25:58:927807,-27,-51,-18,-10,-6,-6,-28,-22
18:25:58:936053,-27,-51,-18,-10,-6,-6,-28,-22
18:25:58:936842,15,-2,-1,-4,-2,-1,6,19
18:25:58:942814,1,-19,9,4,1,1,-2,13
18:25:58:950397,1,-19,9,4,1,1,-2,13
18:25:58:957847,-12,0,4,-3,-3,-1,1,-6
18:25:58:965333,10,3,-16,-4,1,3,6,3
18:25:58:973567,10,3,-16,-4,1,3,6,3
18:25:58:974360,-9,5,5,1,-1,-4,-5,-4
18:25:58:987838,21,54,32,6,-1,-1,3,8
18:25:58:996097,21,54,32,6,-1,-1,3,8
18:25:58:996906,10,-42,42,0,-2,-1,1,-1
18:25:59:11031,-29,11,-3,1,-1,-2,2,-27
18:25:59:11833,-29,11,-3,1,-1,-2,2,-27
18:25:59:17809,-32,-39,0,-7,-3,-4,12,0
18:25:59:25338,15,-8,-3,-1,-3,1,7,8
18:25:59:32945,15,-8,-3,-1,-3,1,7,8
18:25:59:40349,8,18,-22,-6,-5,-2,-5,0
18:25:59:47869,-2,13,-28,-17,-3,-2,1,-1
18:25:59:56042,-2,13,-28,-17,-3,-2,1,-1
18:25:59:56918,16,24,2,-1,-2,0,-5,-22
18:25:59:71039,-2,-9,32,2,-1,-2,-11,-3
18:25:59:71947,-2,-9,32,2,-1,-2,-11,-3
18:25:59:77833,-23,-4,-2,4,-3,-5,-9,-4
18:25:59:85364,-3,-68,1,1,2,3,2,4
18:25:59:92947,-3,-68,1,1,2,3,2,4
18:25:59:100366,12,38,5,0,0,3,4,1
18:25:59:107860,0,-12,-10,2,-1,-3,19,11
18:25:59:116016,0,-12,-10,2,-1,-3,19,11
18:25:59:116824,-30,-30,-13,-1,4,1,-1,-33
18:25:59:131045,-2,5,-27,-9,-3,-2,0,3
18:25:59:131951,-2,5,-27,-9,-3,-2,0,3
18:25:59:137849,2,-4,-16,-4,-5,-3,-2,8
18:25:59:145346,11,28,1,4,2,-1,-3,-7
18:25:59:152873,11,28,1,4,2,-1,-3,-7
18:25:59:160371,-13,-63,-28,-6,-5,-5,-22,8
18:25:59:167880,26,41,13,7,4,4,1,10
18:25:59:176049,26,41,13,7,4,4,1,10
18:25:59:176855,-2,1,2,9,2,-3,-15,-8
18:25:59:191008,18,59,-8,2,-1,3,18,17
18:25:59:191845,18,59,-8,2,-1,3,18,17
18:25:59:197863,24,11,3,-8,-2,2,9,5
18:25:59:205378,6,19,-15,-4,-3,-4,-2,1
18:25:59:212968,6,19,-15,-4,-3,-4,-2,1
18:25:59:220370,-25,33,-5,-3,2,1,2,-11
18:25:59:227854,-9,-14,-35,-3,-1,-2,-5,3
18:25:59:236022,-9,-14,-35,-3,-1,-2,-5,3
18:25:59:236830,12,19,-1,3,3,-2,-6,3
18:25:59:251015,4,17,31,2,0,0,3,-5
18:25:59:251855,4,17,31,2,0,0,3,-5
18:25:59:257823,3,1,17,0,2,3,10,15
18:25:59:265337,0,-13,7,3,1,1,-3,7
18:25:59:272962,0,-13,7,3,1,1,-3,7
18:25:59:280335,6,-4,13,-1,-1,-2,-10,-5
18:25:59:287838,-21,-57,23,-5,-2,-4,-11,-10
18:25:59:296040,-21,-57,23,-5,-2,-4,-11,-10
18:25:59:296962,-12,0,7,1,-2,-1,11,-5
18:25:59:311027,-43,-63,-13,-15,-4,-3,-6,-32
18:25:59:311946,-43,-63,-13,-15,-4,-3,-6,-32
18:25:59:317831,7,9,-8,-5,-2,1,4,5
18:25:59:325331,-24,34,32,12,5,1,-1,3
18:25:59:332944,-24,34,32,12,5,1,-1,3
18:25:59:340343,26,25,-7,-2,-5,-3,-1,-10
18:25:59:347836,-27,-41,-12,-3,-6,-4,-13,-10
18:25:59:356070,-27,-41,-12,-3,-6,-4,-13,-10
18:25:59:356959,10,-5,-4,-6,-1,-1,-8,2
18:25:59:371067,3,0,-12,-6,-5,-3,-3,-6
18:25:59:371934,3,0,-12,-6,-5,-3,-3,-6
18:25:59:377843,14,20,16,-6,-4,-1,0,11
18:25:59:385350,12,-12,-21,-2,-3,0,-4,-14
18:25:59:392961,12,-12,-21,-2,-3,0,-4,-14
18:25:59:400377,-11,20,-30,2,3,1,-2,-2
18:25:59:407857,11,26,8,-2,-1,-6,-18,8
18:25:59:416008,11,26,8,-2,-1,-6,-18,8
18:25:59:416822,-25,-34,27,-2,-2,3,14,6
18:25:59:431074,-39,-13,-4,-12,-3,1,3,-17
18:25:59:431938,-39,-13,-4,-12,-3,1,3,-17
18:25:59:437831,-16,-11,-7,-1,-1,-3,-5,-9
18:25:59:445345,9,-47,-50,0,-2,-3,-1,12
18:25:59:452874,9,-47,-50,0,-2,-3,-1,12
18:25:59:460358,-3,-26,-7,-3,-2,-2,-7,-27
18:25:59:467879,33,42,8,4,2,-1,4,11
18:25:59:476049,33,42,8,4,2,-1,4,11
18:25:59:476846,11,-4,-2,4,-4,-4,-2,4
18:25:59:491053,9,23,14,7,5,2,-1,1
18:25:59:491863,9,23,14,7,5,2,-1,1
18:25:59:497787,13,16,7,-5,-4,-5,-5,8
18:25:59:505396,-13,-14,-5,-2,-2,-2,11,2
18:25:59:512872,-13,-14,-5,-2,-2,-2,11,2
18:25:59:520325,0,-10,-24,-1,-2,-2,1,5
18:25:59:527834,29,20,3,3,1,1,-3,0
18:25:59:536078,29,20,3,3,1,1,-3,0
18:25:59:536867,0,35,-19,1,-1,1,-3,-7
18:25:59:551035,11,23,17,4,3,1,-13,-1
18:25:59:551848,11,23,17,4,3,1,-13,-1
18:25:59:557803,-45,-59,-4,-1,-2,-4,0,-3
18:25:59:565315,-17,-24,-13,-6,-2,-3,0,-6
18:25:59:572960,-17,-24,-13,-6,-2,-3,0,-6
18:25:59:580303,-17,-14,24,9,5,4,11,7
18:25:59:587822,-32,-45,12,-3,-3,-3,-3,-33
18:25:59:603592,-32,-45,12,-3,-3,-3,-3,-33
18:25:59:604350,3,-4,28,0,0,-3,-15,1
18:25:59:611038,26,27,27,1,0,-1,-28,-1
18:25:59:611930,26,27,27,1,0,-1,-28,-1
18:25:59:617814,11,7,-12,-2,0,1,-2,4
18:25:59:625298,3,-5,-13,-1,-1,1,18,15
18:25:59:632930,3,-5,-13,-1,-1,1,18,15
18:25:59:640372,8,-1,-5,-1,0,0,4,4
18:25:59:647854,0,13,-6,-1,-1,0,13,15
18:25:59:656073,0,13,-6,-1,-1,0,13,15
18:25:59:656924,-1,-12,-7,-8,-2,2,19,13
18:25:59:671081,14,15,8,4,2,3,11,5
18:25:59:671951,14,15,8,4,2,3,11,5
18:25:59:677844,-32,-42,-15,-4,-4,-6,-10,-12
18:25:59:685333,8,12,-7,-5,-3,-3,-5,2
18:25:59:692946,8,12,-7,-5,-3,-3,-5,2
18:25:59:700338,14,-7,18,2,3,2,4,4
18:25:59:707853,1,24,27,2,3,1,4,3
18:25:59:716019,1,24,27,2,3,1,4,3
18:25:59:716807,-2,-5,17,-3,-4,-3,7,-2
18:25:59:731014,3,-34,-3,-4,-3,-1,-6,2
18:25:59:731819,3,-34,-3,-4,-3,-1,-6,2
18:25:59:737830,22,33,-21,0,0,1,2,-21
18:25:59:745334,0,-33,-6,-6,-7,-4,-5,-23
18:25:59:752867,0,-33,-6,-6,-7,-4,-5,-23
18:25:59:760311,-4,-5,-3,5,-1,-1,-13,-23
18:25:59:767885,13,18,-13,4,-2,-2,3,5
18:25:59:776057,13,18,-13,4,-2,-2,3,5
18:25:59:776843,24,21,2,-1,-2,-4,-8,9
18:25:59:791019,-8,3,-1,3,0,-4,3,0
18:25:59:791850,-8,3,-1,3,0,-4,3,0
18:25:59:797774,-18,-24,-11,-7,-2,-3,-16,5
18:25:59:805364,23,66,7,0,2,6,10,27
18:25:59:812866,23,66,7,0,2,6,10,27
18:25:59:820336,-25,-11,-19,-4,-3,-3,-2,-13
18:25:59:827813,-26,-9,17,7,-1,1,-2,-11
18:25:59:836038,-26,-9,17,7,-1,1,-2,-11
18:25:59:836864,7,33,20,-1,2,5,4,14
18:25:59:851086,-8,-25,-11,0,-1,-3,-3,-18
18:25:59:851862,-8,-25,-11,0,-1,-3,-3,-18
18:25:59:857828,4,-11,-9,-8,-4,-1,-1,5
18:25:59:865329,-8,14,7,-5,-6,-4,4,2
18:25:59:872951,-8,14,7,-5,-6,-4,4,2
18:25:59:880327,-2,22,-4,2,1,1,0,-16
18:25:59:887818,-28,6,6,5,0,1,-4,4
18:25:59:896060,-28,6,6,5,0,1,-4,4
18:25:59:896950,2,-9,-10,-3,-3,-1,0,12
18:25:59:911031,30,48,1,0,1,-2,-15,2
18:25:59:911948,30,48,1,0,1,-2,-15,2
18:25:59:917833,4,-4,7,8,3,-1,5,1
18:25:59:925332,-22,-44,-22,0,2,0,-4,-20
18:25:59:932949,-22,-44,-22,0,2,0,-4,-20
18:25:59:940353,5,2,3,0,-1,0,0,9
18:25:59:947831,27,-6,-9,-2,-2,1,1,7
18:25:59:955392,27,-6,-9,-2,-2,1,1,7
18:25:59:962838,-74,-59,-46,-12,-6,-5,-9,-22
18:25:59:970990,12,-13,-3,-1,-4,-3,-2,8
18:25:59:971844,12,-13,-3,-1,-4,-3,-2,8
18:25:59:977848,34,28,16,7,3,1,0,12
18:25:59:993501,-4,-9,-8,-3,-1,-4,1,-3
18:25:59:994332,-4,-9,-8,-3,-1,-4,1,-3
18:26:00:347,17,19,3,-5,-3,-2,9,0
18:26:00:7864,-14,-8,-8,-5,-3,-1,-1,-2
18:26:00:15425,-14,-8,-8,-5,-3,-1,-1,-2
18:26:00:22860,-20,-50,1,3,-1,-3,-12,-7
18:26:00:31022,3,-47,22,2,2,3,10,23
18:26:00:31850,3,-47,22,2,2,3,10,23
18:26:00:37856,-47,-28,-31,-7,-5,-6,-10,-2
18:26:00:53525,5,28,-8,5,4,0,-4,-6
18:26:00:54332,5,28,-8,5,4,0,-4,-6
18:26:00:60291,22,-25,9,3,2,3,8,3
18:26:00:67886,4,-13,-26,-15,-8,-2,-1,-3
18:26:00:75357,4,-13,-26,-15,-8,-2,-1,-3
18:26:00:82853,5,-5,4,2,1,-4,-25,-6
18:26:00:99186,-21,-2,15,9,1,0,-1,-21
18:26:00:100023,-21,-2,15,9,1,0,-1,-21
18:26:00:100816,35,18,8,2,0,2,14,8
18:26:00:113521,-35,-13,-16,-3,-3,-6,-18,-28
18:26:00:114306,-35,-13,-16,-3,-3,-6,-18,-28
18:26:00:120380,4,-18,-12,1,0,1,4,-7
18:26:00:127848,13,9,-21,-3,-2,2,8,7
18:26:00:135382,13,9,-21,-3,-2,2,8,7
18:26:00:142802,19,75,-5,7,2,-3,-35,-3
18:26:00:150759,4,-9,3,-5,-3,-2,0,3
18:26:00:158544,4,-9,3,-5,-3,-2,0,3
18:26:00:159349,-1,-5,9,3,0,-2,4,10
18:26:00:173545,26,17,4,-6,0,3,-2,9
18:26:00:174351,26,17,4,-6,0,3,-2,9
18:26:00:180324,8,54,-16,-11,-3,-1,4,-4
18:26:00:196008,0,1,7,-1,0,-2,10,16
18:26:00:196891,0,1,7,-1,0,-2,10,16
18:26:00:202850,-10,-12,41,-2,-2,-1,1,8
18:26:00:211040,-19,-26,-26,-11,-6,-3,2,7
18:26:00:211866,-19,-26,-26,-11,-6,-3,2,7
18:26:00:217807,-7,-7,4,-1,0,0,2,-1
18:26:00:233507,-24,-15,15,8,2,1,-1,-5
18:26:00:234308,-24,-15,15,8,2,1,-1,-5
18:26:00:240349,-9,4,-20,-4,0,1,5,0
18:26:00:247870,-2,5,2,4,-1,0,-1,3
18:26:00:255382,-2,5,2,4,-1,0,-1,3
18:26:00:262831,-34,-64,-33,-4,-4,-3,1,1
18:26:00:271070,10,14,-10,-2,-1,-3,-9,-46
18:26:00:271827,10,14,-10,-2,-1,-3,-9,-46
18:26:00:277834,11,6,12,-2,-1,1,4,7
18:26:00:293280,-1,-33,19,4,1,-1,19,16
18:26:00:301068,-1,-33,19,4,1,-1,19,16
18:26:00:301851,-13,-23,-3,2,2,2,4,-9
18:26:00:307828,27,50,5,9,4,4,3,16
18:26:00:315407,27,50,5,9,4,4,3,16
18:26:00:322816,3,34,18,-11,-11,-4,1,2
18:26:00:331064,-1,-17,-6,-13,-4,-4,-10,-5
18:26:00:331949,-1,-17,-6,-13,-4,-4,-10,-5
18:26:00:337855,10,10,0,-1,-6,-4,-4,-10
18:26:00:353528,2,14,6,0,-1,-2,-13,2
18:26:00:354364,2,14,6,0,-1,-2,-13,2
18:26:00:368485,3,1,20,2,1,4,13,-11
18:26:00:369268,15,-1,-14,-5,-3,1,7,9
18:26:00:375371,15,-1,-14,-5,-3,1,7,9
18:26:00:382826,-15,-20,-57,-7,-3,-5,-8,-8
18:26:00:391062,-7,12,8,3,3,0,-4,-17
18:26:00:391941,-7,12,8,3,3,0,-4,-17
18:26:00:397829,10,77,-8,-4,2,-2,0,-2
18:26:00:413539,-11,-21,11,-3,-7,-6,-8,1
18:26:00:414357,-11,-21,11,-3,-7,-6,-8,1
18:26:00:420337,4,-22,17,4,2,0,-2,0
18:26:00:427805,-43,-62,-25,-13,-7,-3,-10,-6
18:26:00:435405,-43,-62,-25,-13,-7,-3,-10,-6
18:26:00:442836,1,22,26,8,5,1,6,-9
18:26:00:451078,24,4,66,3,2,3,-1,11
18:26:00:451968,24,4,66,3,2,3,-1,11
18:26:00:457863,9,-31,10,1,-1,0,1,1
18:26:00:473984,17,22,-24,1,-2,1,6,-3
18:26:00:474786,17,22,-24,1,-2,1,6,-3
18:26:00:480384,2,21,-3,0,-5,-3,-4,10
18:26:00:487835,-25,0,-22,0,-2,-3,15,-5
18:26:00:495396,-25,0,-22,0,-2,-3,15,-5
18:26:00:502868,-11,-54,15,1,-3,0,8,9
18:26:00:511000,20,35,-11,-10,0,1,2,10
18:26:00:511818,20,35,-11,-10,0,1,2,10
18:26:00:517884,11,3,-7,-3,-2,-2,-7,2
18:26:00:534664,-29,-47,21,3,-3,-4,-7,2
18:26:00:541016,-29,-47,21,3,-3,-4,-7,2
18:26:00:541853,13,19,-3,-3,0,0,0,8
18:26:00:547901,10,52,-13,3,-3,-4,4,-1
18:26:00:555412,10,52,-13,3,-3,-4,4,-1
18:26:00:562830,0,1,-10,2,6,3,7,-1
18:26:00:571012,6,-5,-13,-2,1,-3,4,-10
18:26:00:571842,6,-5,-13,-2,1,-3,4,-10
18:26:00:577832,-1,13,-8,-2,-4,-5,-14,-4
18:26:00:593501,18,7,-4,-2,-1,0,-13,0
18:26:00:594362,18,7,-4,-2,-1,0,-13,0
18:26:00:600302,21,20,-12,-1,0,-1,-2,-8
18:26:00:607801,-27,-44,11,-1,5,5,3,8
18:26:00:615353,-27,-44,11,-1,5,5,3,8
18:26:00:622855,-3,4,7,-12,-7,-5,-8,-2
18:26:00:631036,11,-2,2,6,1,2,-3,-3
18:26:00:631880,11,-2,2,6,1,2,-3,-3
18:26:00:637844,-14,-19,17,8,1,1,2,-10
18:26:00:653529,19,8,-8,-2,-2,-1,3,1
18:26:00:654355,19,8,-8,-2,-2,-1,3,1
18:26:00:660337,-8,-11,21,4,-2,-2,-8,11
18:26:00:667808,-19,16,12,2,-2,-6,-2,-8
18:26:00:675404,-19,16,12,2,-2,-6,-2,-8
18:26:00:682837,21,19,-28,-5,-3,-2,1,-6
18:26:00:691070,36,89,22,5,-1,4,6,13
18:26:00:691968,36,89,22,5,-1,4,6,13
18:26:00:697835,-26,-43,22,4,4,0,3,3
18:26:00:713551,4,-50,-8,-1,-1,2,-1,-27
18:26:00:714390,4,-50,-8,-1,-1,2,-1,-27
18:26:00:720357,-16,3,-36,-5,-2,-1,-8,-16
18:26:00:727859,-3,5,24,0,-1,-1,-6,12
18:26:00:735416,-3,5,24,0,-1,-1,-6,12
18:26:00:742847,0,19,-26,-3,1,0,11,3
18:26:00:751006,-21,-18,-7,-1,1,-1,-8,-3
18:26:00:751826,-21,-18,-7,-1,1,-1,-8,-3
18:26:00:757877,-7,-6,13,1,2,-2,-2,6
18:26:00:773560,-30,-2,1,-4,-5,-2,2,1
18:26:00:774370,-30,-2,1,-4,-5,-2,2,1
18:26:00:780321,-12,43,14,3,3,4,3,18
18:26:00:787840,4,-16,1,2,-1,-3,0,9
18:26:00:795420,4,-16,1,2,-1,-3,0,9
18:26:00:802866,-40,-41,-9,0,-2,1,5,-3
18:26:00:811009,-2,14,-1,1,-2,0,14,17
18:26:00:811842,-2,14,-1,1,-2,0,14,17
18:26:00:817816,50,46,-1,-3,-3,0,1,12
18:26:00:833515,-13,-19,-9,-2,-1,-1,-3,-11
18:26:00:834343,-13,-19,-9,-2,-1,-1,-3,-11
18:26:00:840362,5,-18,-49,-8,-3,-4,1,-5
18:26:00:856057,9,7,3,-3,4,-1,-13,-13
18:26:00:856951,9,7,3,-3,4,-1,-13,-13
18:26:00:862850,4,4,19,-1,-5,-4,-8,-7
18:26:00:871000,-35,-58,-17,1,1,-2,-6,-33
18:26:00:871836,-35,-58,-17,1,1,-2,-6,-33
18:26:00:877849,-14,-18,10,-7,-4,1,7,-8
18:26:00:893579,30,-8,-27,-1,-5,-6,-3,7
18:26:00:894384,30,-8,-27,-1,-5,-6,-3,7
18:26:00:900358,2,2,2,1,-2,-2,-3,-11
18:26:00:916058,-7,-15,1,-1,-1,0,0,9
18:26:00:916946,-7,-15,1,-1,-1,0,0,9
18:26:00:922850,-36,-5,7,-1,-4,0,-1,5
18:26:00:930999,5,30,-2,-3,-3,-1,2,4
18:26:00:931838,5,30,-2,-3,-3,-1,2,4
18:26:00:945348,6,-6,8,17,9,5,-4,-2
18:26:00:953576,8,12,13,-2,-3,-3,-2,4
18:26:00:954379,8,12,13,-2,-3,-3,-2,4
18:26:00:960330,11,-4,-3,5,-4,-6,1,3
18:26:00:976022,9,9,28,-1,0,2,-3,4
18:26:00:976862,9,9,28,-1,0,2,-3,4
18:26:00:982829,17,17,2,1,-3,0,-7,-2
18:26:00:991054,4,65,-6,-2,-3,-3,-2,-9
18:26:00:991942,4,65,-6,-2,-3,-3,-2,-9
18:26:01:5315,-12,-18,-6,-6,0,0,-5,1
18:26:01:13537,15,-10,-36,-6,0,-3,-3,6
18:26:01:14351,15,-10,-36,-6,0,-3,-3,6
18:26:01:20344,4,-7,9,2,3,3,5,-9
18:26:01:36022,-15,-40,34,1,-1,-3,-2,-8
18:26:01:36847,-15,-40,34,1,-1,-3,-2,-8
18:26:01:42861,3,-6,1,2,-3,-3,-5,2
18:26:01:51025,23,-3,-8,1,0,1,-3,11
18:26:01:51862,23,-3,-8,1,0,1,-3,11
18:26:01:65311,-15,-74,12,-10,-3,-3,3,-6
18:26:01:73533,-13,-5,-19,1,-4,2,19,3
18:26:01:74337,-13,-5,-19,1,-4,2,19,3
18:26:01:80366,21,-15,-5,-3,-1,-2,-9,4
18:26:01:96048,-12,-21,3,-4,-1,-6,-5,-6
18:26:01:96850,-12,-21,3,-4,-1,-6,-5,-6
18:26:01:102795,8,32,1,7,-1,-3,-3,3
18:26:01:111034,8,16,-37,-1,-5,-3,-4,3
18:26:01:111873,8,16,-37,-1,-5,-3,-4,3
18:26:01:125340,-17,5,8,-8,-5,-1,1,3
18:26:01:133554,0,6,-1,-2,-2,-2,-10,-11
18:26:01:134372,0,6,-1,-2,-2,-2,-10,-11
18:26:01:140339,12,37,17,-3,-1,4,16,15
18:26:01:156027,11,6,18,0,4,3,6,14
18:26:01:156825,11,6,18,0,4,3,6,14
18:26:01:162830,-29,-46,-21,-1,2,-1,-1,-12
18:26:01:171028,-1,11,24,-9,-2,0,-4,-6
18:26:01:171856,-1,11,24,-9,-2,0,-4,-6
18:26:01:185351,-51,-20,-4,-9,-5,-4,-7,-5
18:26:01:193521,-7,5,-4,4,5,2,-25,-5
18:26:01:194360,-7,5,-4,4,5,2,-25,-5
18:26:01:200311,18,-41,-24,1,-1,2,12,24
18:26:01:224244,-20,-42,12,1,-2,0,6,-4
18:26:01:225032,-20,-42,12,1,-2,0,6,-4
18:26:01:225826,41,18,-34,-7,-5,-4,-11,-2
18:26:01:231001,6,4,-16,-9,-4,-1,-8,-6
18:26:01:231825,6,4,-16,-9,-4,-1,-8,-6
18:26:01:245329,-15,-31,17,0,0,0,5,-15
18:26:01:253519,-26,-41,-32,-7,-5,-7,1,-9
18:26:01:254371,-26,-41,-32,-7,-5,-7,1,-9
18:26:01:260342,-33,-23,-5,-4,-2,-4,-15,-38
18:26:01:276103,-33,-23,-5,-4,-2,-4,-15,-38
18:26:01:276856,-1,-9,-20,-7,-4,2,2,11
18:26:01:282865,10,23,14,13,4,0,1,-16
18:26:01:298558,10,23,14,13,4,0,1,-16
18:26:01:299373,-1,-6,0,-9,-5,-2,-3,-20
18:26:01:305344,12,24,4,-6,-1,-1,-2,6
18:26:01:313587,12,24,4,-6,-1,-1,-2,6
18:26:01:314351,27,27,12,7,1,3,11,11
18:26:01:320403,19,51,-14,0,-1,-3,-10,11
18:26:01:336106,19,51,-14,0,-1,-3,-10,11
18:26:01:336892,10,15,7,5,0,-3,-10,-17
18:26:01:342849,-17,-11,-3,1,-1,1,-4,4
18:26:01:358572,-17,-11,-3,1,-1,1,-4,4
18:26:01:359342,10,47,-25,-5,-1,3,1,6
18:26:01:365340,18,3,-23,3,-1,0,-8,-5
18:26:01:373594,18,3,-23,3,-1,0,-8,-5
18:26:01:374353,-3,-22,26,12,5,-2,-14,-16
18:26:01:380362,-18,-16,0,0,4,1,3,-2
18:26:01:396048,-18,-16,0,0,4,1,3,-2
18:26:01:396864,21,31,-7,3,1,0,13,23
18:26:01:402850,-12,-33,30,-15,-6,-4,-4,-1
18:26:01:418533,-12,-33,30,-15,-6,-4,-4,-1
18:26:01:419335,-15,-16,2,-9,-2,-3,2,0
18:26:01:425304,18,39,19,5,2,1,14,-22
18:26:01:433549,18,39,19,5,2,1,14,-22
18:26:01:434347,-8,-5,4,3,3,2,9,-9
18:26:01:440317,14,68,-24,3,-5,-1,-1,20
18:26:01:456037,14,68,-24,3,-5,-1,-1,20
18:26:01:456844,-31,-2,19,7,-2,-4,-12,-13
18:26:01:462813,9,-7,7,2,-1,1,6,11
18:26:01:478554,9,-7,7,2,-1,1,6,11
18:26:01:479337,4,-18,14,-1,-4,-4,1,6
18:26:01:485364,0,11,-7,-3,-1,-1,-12,4
18:26:01:501701,0,11,-7,-3,-1,-1,-12,4
18:26:01:502474,1,40,-5,-3,-2,2,2,0
18:26:01:503256,0,-34,-4,-3,0,2,11,-2
18:26:01:516073,0,-34,-4,-3,0,2,11,-2
18:26:01:516867,-2,-24,3,-4,-1,0,0,1
18:26:01:522819,-20,12,-6,-1,-1,-6,-27,-1
18:26:01:538543,-20,12,-6,-1,-1,-6,-27,-1
18:26:01:539338,14,-13,-12,-6,-7,-2,5,12
18:26:01:545333,-6,-27,19,-5,-1,0,8,-1
18:26:01:553563,-6,-27,19,-5,-1,0,8,-1
18:26:01:554376,-5,-6,8,2,1,3,17,24
18:26:01:560347,4,-48,-3,-3,-2,-1,-1,-21
18:26:01:576062,4,-48,-3,-3,-2,-1,-1,-21
18:26:01:576867,-12,15,31,4,1,1,9,2
18:26:01:582868,10,7,-21,6,3,1,-8,-18
18:26:01:598534,10,7,-21,6,3,1,-8,-18
18:26:01:599351,13,-18,-5,6,0,-2,-3,-2
18:26:01:605317,0,7,37,2,-2,-2,-1,15
18:26:01:613584,0,7,37,2,-2,-2,-1,15
18:26:01:614338,-8,-8,-31,-13,-6,-9,-13,-5
18:26:01:620356,13,17,0,3,1,1,10,8
18:26:01:636064,13,17,0,3,1,1,10,8
18:26:01:636861,-17,-89,-18,-1,-1,-1,-9,1
18:26:01:642888,-18,-15,-3,-4,-5,-2,-7,-7
18:26:01:658549,-18,-15,-3,-4,-5,-2,-7,-7
18:26:01:659347,2,-21,-13,1,-1,1,21,-10
18:26:01:665304,-16,-39,5,-5,-4,-1,1,1
18:26:01:673594,-16,-39,5,-5,-4,-1,1,1
18:26:01:674370,-8,82,3,1,-1,3,5,8
18:26:01:680347,-10,-3,-14,-5,-2,-6,-12,-11
18:26:01:696073,-10,-3,-14,-5,-2,-6,-12,-11
18:26:01:696839,4,10,6,2,2,-1,-6,-2
18:26:01:702833,35,13,16,1,5,3,-4,3
18:26:01:718530,35,13,16,1,5,3,-4,3
18:26:01:719340,-2,-42,25,2,-5,-4,-8,-7
18:26:01:725327,5,30,-24,5,4,4,28,3
18:26:01:733540,5,30,-24,5,4,4,28,3
18:26:01:734362,-22,-47,-20,-3,-2,-4,-7,-12
18:26:01:740334,9,0,-17,-8,-2,-1,8,28
18:26:01:756035,9,0,-17,-8,-2,-1,8,28
18:26:01:756841,15,22,11,2,1,0,-6,0
18:26:01:762808,-4,23,4,2,0,-1,-6,-3
18:26:01:778988,-4,23,4,2,0,-1,-6,-3
18:26:01:779801,16,-15,-5,0,6,4,-19,17
18:26:01:785361,-10,31,24,8,0,0,11,4
18:26:01:793516,-10,31,24,8,0,0,11,4
18:26:01:794340,-4,-5,3,-2,-1,-1,6,2
18:26:01:800326,-6,-19,-16,-1,-3,-1,5,-10
18:26:01:816053,-6,-19,-16,-1,-3,-1,5,-10
18:26:01:816829,-11,-72,-3,-2,-2,-4,-4,-13
18:26:01:822865,-40,-11,3,-3,-1,-5,-5,-36
18:26:01:838520,-40,-11,3,-3,-1,-5,-5,-36
18:26:01:839344,12,15,-5,-1,-1,-2,-4,-2
18:26:01:845363,31,5,-3,-3,-4,-1,-4,-2
18:26:01:853573,31,5,-3,-3,-4,-1,-4,-2
18:26:01:854329,-4,8,-11,5,2,0,-13,-15
18:26:01:867839,0,9,3,-3,-3,-4,-12,13
18:26:01:876034,0,9,3,-3,-3,-4,-12,13
18:26:01:876838,-32,-35,-21,-8,-5,2,9,-8
18:26:01:882875,0,-4,7,-5,-2,-3,-6,7
18:26:01:898561,0,-4,7,-5,-2,-3,-6,7
18:26:01:899386,-24,2,-17,-7,-4,-6,-10,-2
18:26:01:905349,2,-18,-21,-4,-3,-2,-7,0
18:26:01:913527,2,-18,-21,-4,-3,-2,-7,0
18:26:01:914341,-12,-41,-3,2,3,-2,-13,0
18:26:01:927857,20,27,10,0,0,3,4,-4
18:26:01:936065,20,27,10,0,0,3,4,-4
18:26:01:936879,1,10,-8,-4,0,1,5,6
18:26:01:942872,9,-21,-11,1,1,3,10,8
18:26:01:950379,9,-21,-11,1,1,3,10,8
18:26:01:957873,10,68,66,7,-4,-2,-1,-3
18:26:01:965368,4,10,-22,-19,-3,-4,-7,3
18:26:01:973553,4,10,-22,-19,-3,-4,-7,3
18:26:01:974325,37,22,19,4,1,-2,3,1
18:26:01:987859,-23,-19,-13,1,-4,-1,3,-1
18:26:01:996048,-23,-19,-13,1,-4,-1,3,-1
18:26:01:996824,6,28,-18,-3,-2,-1,-7,7
18:26:02:2879,-14,-53,-17,-8,-6,-4,-7,-2
18:26:02:10376,-14,-53,-17,-8,-6,-4,-7,-2
18:26:02:17827,-5,-2,6,3,1,2,1,-9
18:26:02:34177,-2,2,23,6,-1,-3,11,5
18:26:02:34986,-2,2,23,6,-1,-3,11,5
18:26:02:35816,-2,46,71,10,8,7,12,3
18:26:02:47877,-4,-5,17,6,0,-1,-5,-1
18:26:02:56034,-4,-5,17,6,0,-1,-5,-1
18:26:02:56814,14,9,3,-8,-6,-5,4,4
18:26:02:62869,7,-7,20,8,3,-1,-26,-55
18:26:02:70353,7,-7,20,8,3,-1,-26,-55
18:26:02:77868,9,-24,-32,-6,0,-1,5,-24
18:26:02:85384,18,30,-10,-6,-1,0,9,14
18:26:02:93543,18,30,-10,-6,-1,0,9,14
18:26:02:94338,-12,-22,-9,0,-2,-1,-3,2
18:26:02:107830,-12,4,43,0,1,0,-5,2
18:26:02:116053,-12,4,43,0,1,0,-5,2
18:26:02:116830,19,31,31,-1,-3,-1,-5,11
18:26:02:122901,3,13,-3,-3,-2,-1,1,1
18:26:02:130383,3,13,-3,-3,-2,-1,1,1
18:26:02:137853,0,-18,-8,1,0,-4,-10,0
18:26:02:145324,7,6,-29,-9,-2,-3,-6,15
18:26:02:153962,7,6,-29,-9,-2,-3,-6,15
18:26:02:160322,-37,41,-38,-12,-5,-2,0,-22
18:26:02:167820,-13,0,3,10,4,4,11,6
18:26:02:176073,-13,0,3,10,4,4,11,6
18:26:02:176911,2,3,-5,1,2,-2,-9,0
18:26:02:182849,3,27,-4,-2,-1,-1,-3,-51
18:26:02:190448,3,27,-4,-2,-1,-1,-3,-51
18:26:02:197882,-3,-1,2,1,0,-2,0,2
18:26:02:205371,9,20,0,-1,0,-3,-29,20
18:26:02:213524,9,20,0,-1,0,-3,-29,20
18:26:02:214347,-14,-35,-25,-2,0,1,9,9
18:26:02:227872,3,-19,25,2,1,1,10,8
18:26:02:236074,3,-19,25,2,1,1,10,8
18:26:02:236828,-21,-36,-15,-12,-9,-5,-7,1
18:26:02:242870,-8,21,-9,1,-2,-2,2,-9
18:26:02:250378,-8,21,-9,1,-2,-2,2,-9
18:26:02:257803,27,4,-4,-4,1,3,6,26
18:26:02:265362,-28,-9,-3,-5,-2,-5,-7,-4
18:26:02:273553,-28,-9,-3,-5,-2,-5,-7,-4
18:26:02:274325,5,-13,-5,2,-3,-2,-3,-11
18:26:02:287854,-10,-40,-10,-7,-3,-1,-27,2
18:26:02:296059,-10,-40,-10,-7,-3,-1,-27,2
18:26:02:296847,6,4,18,1,-2,-2,-13,-6
18:26:02:302870,-28,-33,-17,1,0,-1,18,-5
18:26:02:310366,-28,-33,-17,1,0,-1,18,-5
18:26:02:317825,-10,-27,-12,-3,0,-1,3,-9
18:26:02:325323,16,-1,-8,-2,-1,1,9,10
18:26:02:333547,16,-1,-8,-2,-1,1,9,10
18:26:02:334368,-1,-10,-37,2,-7,-5,3,-6
18:26:02:347860,-1,-10,12,0,-1,-2,0,11
18:26:02:356050,-1,-10,12,0,-1,-2,0,11
18:26:02:356869,7,17,-12,-2,-2,-1,5,2
18:26:02:362833,5,41,9,3,-3,-2,1,16
18:26:02:370377,5,41,9,3,-3,-2,1,16
18:26:02:377850,20,19,8,3,4,1,1,8
18:26:02:385330,13,-18,-30,-11,0,2,6,-19
18:26:02:393574,13,-18,-30,-11,0,2,6,-19
18:26:02:394360,-16,-26,7,4,1,0,-6,-15
18:26:02:407821,-22,-1,-20,-3,-2,1,-7,0
18:26:02:416049,-22,-1,-20,-3,-2,1,-7,0
18:26:02:416856,-18,-14,-1,-4,0,2,6,2
18:26:02:422819,-68,-65,-16,-3,-2,-1,11,-14
18:26:02:438559,-68,-65,-16,-3,-2,-1,11,-14
18:26:02:439339,-8,-16,-6,1,-1,-2,6,0
18:26:02:445319,12,-5,21,0,1,1,0,-5
18:26:02:453535,12,-5,21,0,1,1,0,-5
18:26:02:454387,-8,40,-28,-10,-8,-11,-29,-22
18:26:02:467823,17,24,-26,0,0,1,-8,11
18:26:02:476064,17,24,-26,0,0,1,-8,11
18:26:02:476854,27,35,-5,-3,-3,-1,5,1
18:26:02:482831,22,82,21,-8,-1,3,8,16
18:26:02:490407,22,82,21,-8,-1,3,8,16
18:26:02:497869,-28,-56,-3,3,0,3,7,-5
18:26:02:505367,13,18,28,17,2,-1,5,14
18:26:02:513560,13,18,28,17,2,-1,5,14
18:26:02:514365,-1,22,15,1,-1,1,0,-38
18:26:02:527815,4,-15,-3,0,-2,-1,2,2
18:26:02:544230,4,-15,-3,0,-2,-1,2,2
18:26:02:545014,-22,-16,11,-2,-4,-5,-21,-12
18:26:02:545798,-2,-7,3,-1,-3,-2,-1,-7
18:26:02:550377,-2,-7,3,-1,-3,-2,-1,-7
18:26:02:557837,19,-40,-18,-7,-1,0,14,16
18:26:02:565331,-15,-17,-16,-9,-4,-1,-11,-7
18:26:02:573583,-15,-17,-16,-9,-4,-1,-11,-7
18:26:02:574371,-7,-22,7,2,2,-6,9,8
18:26:02:587838,13,30,-12,6,1,2,7,12
18:26:02:596049,13,30,-12,6,1,2,7,12
18:26:02:596850,20,52,2,7,1,2,16,-10
18:26:02:611015,18,10,20,2,-2,-3,-1,-2
18:26:02:611861,18,10,20,2,-2,-3,-1,-2
18:26:02:617809,-11,21,-3,-4,-1,4,1,2
18:26:02:625328,-17,-90,-11,-6,0,-2,-22,-8
18:26:02:633561,-17,-90,-11,-6,0,-2,-22,-8
18:26:02:634358,-62,-47,26,0,1,2,-6,2
18:26:02:647884,-2,-35,4,4,3,0,-1,-1
18:26:02:656081,-2,-35,4,4,3,0,-1,-1
18:26:02:656850,17,7,-17,-2,1,0,12,9
18:26:02:662890,10,54,4,4,-1,-2,-6,-19
18:26:02:670443,10,54,4,4,-1,-2,-6,-19
18:26:02:677830,18,-80,-14,-8,-1,0,-17,20
18:26:02:685334,3,0,-12,-1,-4,-1,-15,1
18:26:02:693561,3,0,-12,-1,-4,-1,-15,1
18:26:02:694347,-13,-3,-20,-6,-3,-1,7,5
18:26:02:716688,-19,-52,18,-8,-5,-6,-18,-14
18:26:02:717492,-19,-52,18,-8,-5,-6,-18,-14
18:26:02:718317,-9,-22,20,7,3,-1,7,11
18:26:02:722806,2,-1,-35,7,9,8,30,11
18:26:02:730393,2,-1,-35,7,9,8,30,11
18:26:02:737823,6,-5,-5,-15,-4,-5,-3,-5
18:26:02:745341,7,-14,29,7,1,-2,-3,11
18:26:02:753548,7,-14,29,7,1,-2,-3,11
18:26:02:754364,19,53,42,12,1,-6,-46,0
18:26:02:767793,11,22,-4,-3,-1,1,7,2
18:26:02:776078,11,22,-4,-3,-1,1,7,2
18:26:02:776857,0,-2,-7,-8,-7,-3,-2,-11
18:26:02:782832,-22,-96,30,0,-8,-5,-5,-18
18:26:02:790382,-22,-96,30,0,-8,-5,-5,-18
18:26:02:797836,3,4,8,5,2,5,12,-6
18:26:02:805329,-7,-20,-8,-4,-1,-2,10,12
18:26:02:812892,-7,-20,-8,-4,-1,-2,10,12
18:26:02:820345,15,16,15,2,0,-1,1,11
18:26:02:827865,-2,46,-8,-4,-3,-4,-2,-2
18:26:02:836035,-2,46,-8,-4,-3,-4,-2,-2
18:26:02:836837,-2,12,-30,-6,-3,-1,3,12
18:26:02:851050,18,33,-10,0,1,-4,-4,0
18:26:02:851871,18,33,-10,0,1,-4,-4,0
18:26:02:866011,5,16,8,4,1,2,3,-5
18:26:02:866801,13,57,2,-1,-1,3,23,11
18:26:02:872924,13,57,2,-1,-1,3,23,11
18:26:02:888473,-6,-35,24,1,0,0,-8,-1
18:26:02:889284,11,-14,8,10,0,-3,-49,-30
18:26:02:896101,11,-14,8,10,0,-3,-49,-30
18:26:02:896877,-39,-15,-61,-10,-7,-8,-19,-20
18:26:02:911055,-19,-15,12,-5,-2,-4,1,3
18:26:02:911848,-19,-15,12,-5,-2,-4,1,3
18:26:02:917834,12,-13,1,-6,1,3,0,-2
18:26:02:925328,35,36,-7,1,-1,6,44,14
18:26:02:932890,35,36,-7,1,-1,6,44,14
18:26:02:940337,-19,-22,8,4,2,5,29,8
18:26:02:947827,-42,-32,-1,-4,-1,5,12,-33
18:26:02:956051,-42,-32,-1,-4,-1,5,12,-33
18:26:02:956882,18,6,7,2,0,1,20,6
18:26:02:971039,-1,61,28,-2,0,2,-16,-3
18:26:02:971868,-1,61,28,-2,0,2,-16,-3
18:26:02:977846,17,11,14,10,1,-5,-3,6
18:26:02:985337,19,6,-29,-3,0,3,31,13
18:26:02:992908,19,6,-29,-3,0,3,31,13
18:26:03:330,9,22,1,6,0,-3,-4,-1
18:26:03:7826,-12,-20,-8,-7,-2,-1,-5,0
18:26:03:16098,-12,-20,-8,-7,-2,-1,-5,0
18:26:03:16894,-21,-40,-15,-8,-2,-3,3,4
18:26:03:31060,-7,-43,-15,-6,0,-2,21,18
18:26:03:31892,-7,-43,-15,-6,0,-2,21,18
18:26:03:37853,11,28,-10,0,-1,-10,-85,-16
18:26:03:45329,-47,-1,-31,0,-5,-7,-8,3
18:26:03:52988,-47,-1,-31,0,-5,-7,-8,3
18:26:03:60361,-1,0,9,-3,-2,-1,15,4
18:26:03:67873,38,41,17,-15,-5,-3,-10,3
18:26:03:76052,38,41,17,-15,-5,-3,-10,3
18:26:03:76833,-15,-36,-29,-11,-6,0,16,-5
18:26:03:91031,-12,-29,3,9,3,-4,-14,-11
18:26:03:91844,-12,-29,3,9,3,-4,-14,-11
18:26:03:97884,24,50,-18,-1,0,1,14,28
18:26:03:105359,9,-16,0,-3,-2,-2,-20,-12
18:26:03:112880,9,-16,0,-3,-2,-2,-20,-12
18:26:03:120355,11,25,29,6,1,-5,-42,-19
18:26:03:127862,2,20,2,2,-3,-8,-52,-9
18:26:03:136028,2,20,2,2,-3,-8,-52,-9
18:26:03:136854,-12,-63,17,-2,0,9,41,8
18:26:03:150984,14,7,26,6,2,5,15,-6
18:26:03:151823,14,7,26,6,2,5,15,-6
18:26:03:165994,16,0,5,5,2,1,-10,-4
18:26:03:166785,-3,9,-18,-1,2,1,9,-10
18:26:03:172905,-3,9,-18,-1,2,1,9,-10
18:26:03:180383,0,30,-33,-4,-1,-3,-11,-6
18:26:03:187874,10,-7,1,1,-3,-13,-47,8
18:26:03:196068,10,-7,1,1,-3,-13,-47,8
18:26:03:196828,-7,3,13,3,2,5,21,4
18:26:03:211017,-4,-48,-28,-4,-4,-7,-7,0
18:26:03:211836,-4,-48,-28,-4,-4,-7,-7,0
18:26:03:217867,-14,-3,12,4,3,6,19,-5
18:26:03:225367,-14,-22,4,-3,-1,8,43,22
18:26:03:232876,-14,-22,4,-3,-1,8,43,22
18:26:03:240369,36,32,13,5,-4,-3,-7,17
18:26:03:247866,46,71,9,-8,-2,0,17,10
18:26:03:256091,46,71,9,-8,-2,0,17,10
18:26:03:256856,11,45,16,-12,-4,-3,-8,3
18:26:03:271028,-8,-8,-19,-5,-6,-5,-9,-1
18:26:03:271832,-8,-8,-19,-5,-6,-5,-9,-1
18:26:03:277813,6,7,12,8,1,0,-2,1
18:26:03:285355,3,15,9,4,0,1,9,6
18:26:03:292886,3,15,9,4,0,1,9,6
18:26:03:300324,-52,-41,-15,-6,-3,-2,0,-12
18:26:03:307795,-21,-19,-4,7,1,-2,-10,-3
18:26:03:316056,-21,-19,-4,7,1,-2,-10,-3
18:26:03:316844,13,-41,-43,-14,-9,-6,-1,-41
18:26:03:331049,-15,-7,-1,3,4,4,-1,3
18:26:03:331883,-15,-7,-1,3,4,4,-1,3
18:26:03:337870,-10,4,-19,-6,-3,-6,-43,-11
18:26:03:353523,-7,10,5,6,2,-2,-3,15
18:26:03:354336,-7,10,5,6,2,-2,-3,15
18:26:03:360315,-4,-16,15,11,4,1,25,7
18:26:03:367809,33,34,-15,-11,-4,6,18,8
18:26:03:376108,33,34,-15,-11,-4,6,18,8
18:26:03:376867,-22,6,-28,-3,-2,-2,2,-3
18:26:03:391034,-9,-28,-16,-8,0,1,9,-14
18:26:03:391859,-9,-28,-16,-8,0,1,9,-14
18:26:03:397812,-5,-16,19,9,0,0,-24,-14
18:26:03:405320,-6,-61,-26,-3,-3,-2,2,-15
18:26:03:412870,-6,-61,-26,-3,-3,-2,2,-15
18:26:03:420366,-12,-16,3,4,3,12,29,22
18:26:03:427863,2,-2,-17,-5,-1,-3,-4,22
18:26:03:436062,2,-2,-17,-5,-1,-3,-4,22
18:26:03:436854,38,14,12,-5,0,0,11,-13
18:26:03:451039,-36,-41,20,3,3,-1,-43,-9
18:26:03:451834,-36,-41,20,3,3,-1,-43,-9
18:26:03:457837,7,27,16,1,-1,-1,5,8
18:26:03:465334,19,25,2,2,-7,-5,-1,-13
18:26:03:472931,19,25,2,2,-7,-5,-1,-13
18:26:03:480357,13,57,-21,-8,-6,-4,5,15
18:26:03:487829,-3,21,18,3,0,-2,-15,-2
18:26:03:496099,-3,21,18,3,0,-2,-15,-2
18:26:03:496884,8,-18,3,-3,0,-1,-17,2
18:26:03:511043,37,71,12,2,0,1,13,10
18:26:03:511881,37,71,12,2,0,1,13,10
18:26:03:517824,10,-7,-4,-2,0,-9,-44,-11
18:26:03:525339,-5,-41,10,1,2,3,28,-14
18:26:03:532915,-5,-41,10,1,2,3,28,-14
18:26:03:540360,-13,20,-16,-12,-6,1,23,6
18:26:03:547835,19,-1,11,0,-1,-3,-3,-26
18:26:03:556008,19,-1,11,0,-1,-3,-3,-26
18:26:03:556831,-1,-6,24,5,-1,-4,-19,10
18:26:03:571055,16,53,0,1,1,-1,-13,11
18:26:03:571888,16,53,0,1,1,-1,-13,11
18:26:03:577881,-13,-34,-19,0,-2,2,13,11
18:26:03:585327,-30,-23,-17,-1,-2,-1,4,3
18:26:03:592863,-30,-23,-17,-1,-2,-1,4,3
18:26:03:600355,20,33,-31,0,2,1,-2,0
18:26:03:607863,13,64,-6,2,1,-1,19,-39
18:26:03:616042,13,64,-6,2,1,-1,19,-39
18:26:03:616842,-10,-41,18,3,2,-1,10,-29
18:26:03:631031,-36,-2,1,-5,-1,-6,-30,-4
18:26:03:631851,-36,-2,1,-5,-1,-6,-30,-4
18:26:03:637861,-9,-8,1,3,3,5,-10,8
18:26:03:645346,-2,-50,-11,-5,-5,2,10,7
18:26:03:652916,-2,-50,-11,-5,-5,2,10,7
18:26:03:660357,0,23,20,5,-5,-8,-14,-6
18:26:03:667820,-30,3,-2,-3,-6,-1,2,4
18:26:03:676054,-30,3,-2,-3,-6,-1,2,4
18:26:03:676865,-29,-44,5,-3,1,3,20,-62
18:26:03:691066,-20,-89,4,2,-2,-4,-50,34
18:26:03:691866,-20,-89,4,2,-2,-4,-50,34
18:26:03:697817,-14,-16,-24,-13,-6,0,11,27
18:26:03:705303,4,-14,38,7,2,5,31,7
18:26:03:721050,4,-14,38,7,2,5,31,7
18:26:03:721838,13,26,2,8,2,-2,-18,9
18:26:03:727872,-24,-10,-13,-11,-3,-3,14,0
18:26:03:735390,-24,-10,-13,-11,-3,-3,14,0
18:26:03:742817,-11,19,13,1,-2,-1,13,-12
18:26:03:751436,25,26,10,8,3,3,37,3
18:26:03:758518,25,26,10,8,3,3,37,3
18:26:03:759349,-20,-30,-7,-7,0,-2,-22,14
18:26:03:773514,-5,-13,-29,-6,-4,-5,-14,-43
18:26:03:774369,-5,-13,-29,-6,-4,-5,-14,-43
18:26:03:780319,17,5,7,-1,1,1,21,-34
18:26:03:787803,11,0,16,13,4,1,-13,-22
18:26:03:795395,11,0,16,13,4,1,-13,-22
18:26:03:802819,-6,31,34,9,7,6,11,1
18:26:03:811041,-21,-52,-21,-11,-4,0,4,11
18:26:03:811863,-21,-52,-21,-11,-4,0,4,11
18:26:03:825320,9,-14,-24,-9,-8,-15,-61,17
18:26:03:833555,-17,14,-7,-6,-2,-2,25,-15
18:26:03:834359,-17,14,-7,-6,-2,-2,25,-15
18:26:03:840335,-12,-42,11,-4,-2,-5,-38,-4
18:26:03:847855,10,1,7,-1,-1,-7,-65,-22
18:26:03:855410,10,1,7,-1,-1,-7,-65,-22
18:26:03:862821,24,16,-13,-6,-4,-2,28,15
18:26:03:871056,-5,-37,4,-4,-3,9,52,27
18:26:03:871894,-5,-37,4,-4,-3,9,52,27
18:26:03:877861,-8,-7,-46,0,2,4,9,-6
18:26:03:893555,49,58,5,0,0,-7,-30,-5
18:26:03:894370,49,58,5,0,0,-7,-30,-5
18:26:03:900342,28,7,37,15,3,4,8,1
18:26:03:907829,-11,25,-4,-1,-4,-2,9,-9
18:26:03:915363,-11,25,-4,-1,-4,-2,9,-9
18:26:03:922837,8,5,-3,-3,-3,-3,-13,-18
18:26:03:931025,32,12,23,2,0,-3,-30,6
18:26:03:931828,32,12,23,2,0,-3,-30,6
18:26:03:937866,-3,-5,-5,-4,-2,5,30,22
18:26:03:953516,-22,-12,41,3,2,2,16,15
18:26:03:954346,-22,-12,41,3,2,2,16,15
18:26:03:960352,4,-8,-16,-9,-4,-2,9,7
18:26:03:967858,7,-19,-38,0,-1,-2,-1,7
18:26:03:975424,7,-19,-38,0,-1,-2,-1,7
18:26:03:982829,4,2,12,0,0,2,1,21
18:26:03:991040,-19,-17,-18,-6,-6,-23,-103,-26
18:26:03:991858,-19,-17,-18,-6,-6,-23,-103,-26
18:26:03:997821,-5,10,-13,-5,2,-1,3,24
18:26:04:13536,17,0,16,1,1,7,40,34
18:26:04:14322,17,0,16,1,1,7,40,34
18:26:04:20381,-1,-27,7,6,1,0,6,1
18:26:04:27863,-23,8,21,8,3,7,19,2
18:26:04:35398,-23,8,21,8,3,7,19,2
18:26:04:42820,19,-2,31,-5,-3,-1,11,10
18:26:04:51035,-12,-18,-39,-7,-3,0,5,3
18:26:04:51860,-12,-18,-39,-7,-3,0,5,3
18:26:04:57838,1,1,11,3,-1,0,-22,10
18:26:04:73554,21,2,25,1,-1,2,15,5
18:26:04:74358,21,2,25,1,-1,2,15,5
18:26:04:80324,-16,21,-35,-10,-3,0,15,-12
18:26:04:87819,-13,-17,11,2,2,10,43,16
18:26:04:95398,-13,-17,11,2,2,10,43,16
18:26:04:102841,-25,-53,3,0,-4,-4,-16,-32
18:26:04:111066,-10,-79,-17,-9,-3,-8,-16,-15
18:26:04:111874,-10,-79,-17,-9,-3,-8,-16,-15
18:26:04:117844,-25,-32,19,4,-1,7,29,-18
18:26:04:133555,-23,17,-12,-3,-1,2,6,-9
18:26:04:134354,-23,17,-12,-3,-1,2,6,-9
18:26:04:140344,16,4,-1,-16,-6,-6,-21,-2
18:26:04:147843,15,65,3,-6,-4,-5,-33,-20
18:26:04:155439,15,65,3,-6,-4,-5,-33,-20
18:26:04:162841,-19,23,-3,6,2,3,17,-5
18:26:04:171025,6,9,-8,-4,-2,-9,-20,-19
18:26:04:171859,6,9,-8,-4,-2,-9,-20,-19
18:26:04:177870,7,-23,38,11,3,2,5,-8
18:26:04:193620,6,-16,-42,-9,-4,3,26,4
18:26:04:194379,6,-16,-42,-9,-4,3,26,4
18:26:04:208503,14,-37,-11,-7,-1,-1,10,16
18:26:04:209277,-7,1,6,-2,-1,0,8,14
18:26:04:215397,-7,1,6,-2,-1,0,8,14
18:26:04:222846,-38,51,2,3,-2,-10,-42,-24
18:26:04:231063,-39,-24,-26,-9,0,5,21,-11
18:26:04:231885,-39,-24,-26,-9,0,5,21,-11
18:26:04:237859,15,-14,-19,-3,1,-1,-9,18
18:26:04:253547,-35,50,21,1,-2,-2,9,15
18:26:04:254398,-35,50,21,1,-2,-2,9,15
18:26:04:260348,-15,-19,-4,0,-2,-5,-9,-20
18:26:04:276042,18,-33,19,7,2,-1,2,17
18:26:04:276860,18,-33,19,7,2,-1,2,17
18:26:04:282822,15,34,-19,-6,-5,-9,-28,-5
18:26:04:291045,13,64,18,12,6,12,51,23
18:26:04:291891,13,64,18,12,6,12,51,23
18:26:04:297847,-20,-26,-14,-14,-6,2,63,14
18:26:04:313527,-10,-46,9,-3,-2,-7,-33,-8
18:26:04:314373,-10,-46,9,-3,-2,-7,-33,-8
18:26:04:320308,-11,19,-12,-1,3,1,1,9
18:26:04:327794,34,23,-30,-9,-2,1,-1,17
18:26:04:335380,34,23,-30,-9,-2,1,-1,17
18:26:04:342835,-27,-30,-15,7,-4,-4,0,31
18:26:04:351059,17,12,-1,-2,0,5,18,-2
18:26:04:351900,17,12,-1,-2,0,5,18,-2
18:26:04:357896,12,-18,20,4,1,-3,-20,-60
18:26:04:373546,37,18,5,1,0,-3,-19,-1
18:26:04:374387,37,18,5,1,0,-3,-19,-1
18:26:04:380336,-21,-27,-37,1,-1,1,-16,2
18:26:04:387852,-2,-35,0,3,-3,-3,-2,-40
18:26:04:395410,-2,-35,0,3,-3,-3,-2,-40
18:26:04:402846,-5,10,9,-4,-1,0,9,23
18:26:04:411019,-14,-49,22,4,0,3,9,-12
18:26:04:411852,-14,-49,22,4,0,3,9,-12
18:26:04:417861,26,18,12,0,0,-5,-39,-28
18:26:04:433575,21,-1,9,8,2,1,-15,10
18:26:04:434415,21,-1,9,8,2,1,-15,10
18:26:04:440382,30,12,-24,-9,-5,-3,3,3
18:26:04:447878,-24,-12,-19,-2,6,5,15,-23
18:26:04:455363,-24,-12,-19,-2,6,5,15,-23
18:26:04:462871,33,17,0,4,1,-1,-30,13
18:26:04:471042,-40,-34,43,15,0,0,-32,2
18:26:04:471839,-40,-34,43,15,0,0,-32,2
18:26:04:477829,24,20,25,6,0,3,7,-2
18:26:04:493548,-11,14,-16,-6,-4,-5,-2,3
18:26:04:494350,-11,14,-16,-6,-4,-5,-2,3
18:26:04:500370,-33,-63,46,9,4,2,4,19
18:26:04:507866,26,22,-6,2,-1,-3,-3,20
18:26:04:515362,26,22,-6,2,-1,-3,-3,20
18:26:04:522823,21,12,-6,7,4,5,-6,1
18:26:04:531047,-1,36,-4,-7,-4,0,-1,1
18:26:04:531878,-1,36,-4,-7,-4,0,-1,1
18:26:04:537809,-61,-26,6,-8,-3,-8,-7,-50
18:26:04:553493,-2,-13,-40,-9,-3,-8,-11,-3
18:26:04:554355,-2,-13,-40,-9,-3,-8,-11,-3
18:26:04:560340,-28,-55,-27,-12,-6,2,44,14
18:26:04:567800,8,-11,-17,-3,-2,-1,4,8
18:26:04:575388,8,-11,-17,-3,-2,-1,4,8
18:26:04:582810,-2,-65,-9,-4,-3,-2,-5,-1
18:26:04:591058,-5,4,30,7,1,-6,-50,7
18:26:04:591877,-5,4,30,7,1,-6,-50,7
18:26:04:597847,7,71,-27,-9,-3,1,14,-2
18:26:04:613556,-37,-44,-24,-6,-4,-5,-6,1
18:26:04:614377,-37,-44,-24,-6,-4,-5,-6,1
18:26:04:620321,-13,10,25,8,3,1,-17,3
18:26:04:627815,4,-3,2,-8,2,-3,0,-37
18:26:04:635405,4,-3,2,-8,2,-3,0,-37
18:26:04:642864,27,41,1,-1,3,3,19,26
18:26:04:659245,-59,-12,-9,-7,-6,-4,-4,-46
18:26:04:660020,-59,-12,-9,-7,-6,-4,-4,-46
18:26:04:660822,22,24,-4,8,2,0,-7,-8
18:26:04:673506,31,-23,54,2,0,2,15,4
18:26:04:674346,31,-23,54,2,0,2,15,4
18:26:04:680317,2,39,18,0,-3,-3,16,7
18:26:04:696027,20,-14,-9,2,-3,-3,7,12
18:26:04:696832,20,-14,-9,2,-3,-3,7,12
18:26:04:702876,-17,-10,43,9,0,-1,-3,-32
18:26:04:711009,30,44,9,-4,-5,-9,-44,-21
18:26:04:711858,30,44,9,-4,-5,-9,-44,-21
18:26:04:725376,14,10,-21,0,-4,-1,15,12
18:26:04:733514,10,-27,-2,-3,2,4,36,23
18:26:04:734349,10,-27,-2,-3,2,4,36,23
18:26:04:740323,-5,-25,-29,-2,-1,-5,-24,-29
18:26:04:764241,-2,3,-9,3,0,-1,-4,-21
18:26:04:765049,-2,3,-9,3,0,-1,-4,-21
18:26:04:765841,-7,24,21,4,3,5,-2,-42
18:26:04:771021,30,41,-25,3,1,3,6,-10
18:26:04:771856,30,41,-25,3,1,3,6,-10
18:26:04:785374,7,12,7,1,-2,1,-15,19
18:26:04:793569,-15,10,-3,1,0,-7,-48,-24
18:26:04:794399,-15,10,-3,1,0,-7,-48,-24
18:26:04:800371,-2,-2,-11,-7,-4,-3,20,21
18:26:04:816037,-19,-26,-19,1,-3,1,41,-2
18:26:04:816887,-19,-26,-19,1,-3,1,41,-2
18:26:04:831687,-17,-54,-27,-4,0,1,8,-21
18:26:04:832516,8,-47,6,-2,-3,0,15,18
18:26:04:833364,8,-47,6,-2,-3,0,15,18
18:26:04:845324,19,28,3,-3,-4,-6,-18,14
18:26:04:853501,6,12,-4,-1,4,6,8,-2
18:26:04:854330,6,12,-4,-1,4,6,8,-2
18:26:04:860345,-50,-40,-3,-2,-3,-2,-22,-7
18:26:04:876028,-19,16,10,-2,-1,-4,-24,21
18:26:04:876818,-19,16,10,-2,-1,-4,-24,21
18:26:04:882830,2,-31,0,-4,-5,-5,-8,12
18:26:04:891037,-23,1,-7,-2,-3,1,1,6
18:26:04:891882,-23,1,-7,-2,-3,1,1,6
18:26:04:905385,23,27,11,0,2,-1,14,22
18:26:04:913524,8,-39,-7,1,4,1,-31,3
18:26:04:914336,8,-39,-7,1,4,1,-31,3
18:26:04:920323,-11,-33,20,-4,5,7,37,16
18:26:04:936050,8,11,15,-14,-7,-5,-2,12
18:26:04:936841,8,11,15,-14,-7,-5,-2,12
18:26:04:942904,28,23,8,10,2,0,-6,-5
18:26:04:951000,-57,-63,5,1,-5,-8,-8,-42
18:26:04:951843,-57,-63,5,1,-5,-8,-8,-42
18:26:04:965344,18,30,4,-5,-4,-10,-50,-14
18:26:04:973528,20,99,-4,-10,-7,-1,14,18
18:26:04:974354,20,99,-4,-10,-7,-1,14,18
18:26:04:980385,-7,-1,-4,7,3,7,63,6
18:26:04:995986,24,48,-75,-13,-6,-10,-33,4
18:26:04:996802,24,48,-75,-13,-6,-10,-33,4
18:26:05:2875,-27,-4,-18,-18,-10,-4,-11,12
18:26:05:11032,27,21,-3,-4,-5,0,18,2
18:26:05:11855,27,21,-3,-4,-5,0,18,2
18:26:05:25369,-3,-40,-5,-4,-4,-5,-13,-60
18:26:05:33932,-12,-32,15,4,1,4,24,3
18:26:05:41054,-12,-32,15,4,1,4,24,3
18:26:05:41814,19,2,4,8,2,6,18,33
18:26:05:56069,10,3,2,-2,3,8,23,6
18:26:05:56891,10,3,2,-2,3,8,23,6
18:26:05:62855,-33,28,-20,-9,-5,-3,9,6
18:26:05:78570,0,-7,20,3,-2,-1,9,14
18:26:05:79360,0,-7,20,3,-2,-1,9,14
18:26:05:85354,13,27,3,3,2,-6,-40,-25
18:26:05:93489,-4,-24,-8,2,1,-8,-53,-21
18:26:05:94328,-4,-24,-8,2,1,-8,-53,-21
18:26:05:100325,42,51,-17,-3,-1,-3,-8,16
18:26:05:116044,-11,-11,10,1,1,0,3,-4
18:26:05:116888,-11,-11,10,1,1,0,3,-4
18:26:05:122846,-53,-54,-4,-1,-7,-2,11,1
18:26:05:131040,-6,-17,-26,-8,-2,1,17,0
18:26:05:131898,-6,-17,-26,-8,-2,1,17,0
18:26:05:145319,25,-12,8,4,2,3,17,11
18:26:05:153573,-21,-8,17,8,1,1,6,32
18:26:05:154370,-21,-8,17,8,1,1,6,32
18:26:05:160382,3,25,1,-4,1,-2,-14,-16
18:26:05:176036,-6,21,23,7,10,6,-17,-14
18:26:05:176851,-6,21,23,7,10,6,-17,-14
18:26:05:182864,10,-18,-1,0,1,-13,-105,-15
18:26:05:190347,13,4,-1,1,-3,1,27,15
18:26:05:197889,13,4,-1,1,-3,1,27,15
18:26:05:214218,14,2,7,1,5,1,4,10
18:26:05:215025,-4,-31,-8,-3,-3,-7,-50,-13
18:26:05:215847,-4,-31,-8,-3,-3,-7,-50,-13
18:26:05:220341,52,30,-1,-3,0,6,37,31
18:26:05:236053,52,30,-1,-3,0,6,37,31
18:26:05:236846,-8,-70,-30,-4,-5,-5,-16,-34
18:26:05:242837,-25,-25,23,5,1,2,-14,-48
18:26:05:258528,-25,-25,23,5,1,2,-14,-48
18:26:05:259343,13,43,-1,5,4,1,7,8
18:26:05:265327,11,-62,-22,-12,-10,-7,19,4
18:26:05:273540,11,-62,-22,-12,-10,-7,19,4
18:26:05:274369,-11,-8,-5,1,0,-2,-23,-9
18:26:05:280333,-10,-4,-17,-5,-1,-1,12,21
18:26:05:296047,-10,-4,-17,-5,-1,-1,12,21
18:26:05:296830,4,16,13,-3,-4,-1,38,2
18:26:05:302823,-27,17,-24,-8,-2,3,47,1
18:26:05:319062,-27,17,-24,-8,-2,3,47,1
18:26:05:319805,20,31,19,-8,-2,0,22,6
18:26:05:325370,-41,7,13,7,4,-5,-16,-7
18:26:05:333532,-41,7,13,7,4,-5,-16,-7
18:26:05:334337,-15,-13,9,-4,-2,0,-21,8
18:26:05:340330,15,-6,16,4,-1,2,-2,6
18:26:05:356066,15,-6,16,4,-1,2,-2,6
18:26:05:356825,5,32,2,2,0,4,20,5
18:26:05:362809,-22,-10,10,2,2,1,-17,18
18:26:05:378515,-22,-10,10,2,2,1,-17,18
18:26:05:379319,0,14,-8,-1,-1,-8,-51,-17
18:26:05:385374,-7,62,-14,0,-3,3,15,31
18:26:05:393544,-7,62,-14,0,-3,3,15,31
18:26:05:394334,-5,-13,-13,2,-2,4,53,27
18:26:05:400313,-10,-35,-10,3,-3,0,7,-8
18:26:05:416041,-10,-35,-10,3,-3,0,7,-8
18:26:05:416810,4,7,-7,-4,-7,-1,7,2
18:26:05:422871,-8,-62,34,0,2,0,24,-5
18:26:05:438593,-8,-62,34,0,2,0,24,-5
18:26:05:439365,3,-13,-18,2,1,2,22,-34
18:26:05:445355,11,-4,2,-5,-6,-13,-84,-4
18:26:05:453507,11,-4,2,-5,-6,-13,-84,-4
18:26:05:454327,-5,-62,14,5,1,-4,-56,-43
18:26:05:460370,41,27,-12,-1,8,3,32,-4
18:26:05:476041,41,27,-12,-1,8,3,32,-4
18:26:05:476827,9,33,2,4,5,6,5,10
18:26:05:482862,-11,-7,-1,-3,-7,1,9,-16
18:26:05:498592,-11,-7,-1,-3,-7,1,9,-16
18:26:05:499374,28,35,9,9,-1,0,34,26
18:26:05:505358,5,18,4,-5,-2,4,43,-3
18:26:05:513582,5,18,4,-5,-2,4,43,-3
18:26:05:514371,-46,-74,-7,-1,-2,-4,-29,-60
18:26:05:520346,-9,2,2,-3,-1,-4,-16,-36
18:26:05:544216,-9,2,2,-3,-1,-4,-16,-36
18:26:05:545024,4,1,-14,-1,0,-2,12,27
18:26:05:545816,-3,1,-25,-6,-3,-1,-1,12
18:26:05:558534,-3,1,-25,-6,-3,-1,-1,12
18:26:05:559338,-26,5,-8,-3,-6,-2,36,-6
18:26:05:565349,20,14,5,-5,-4,3,17,7
18:26:05:573592,20,14,5,-5,-4,3,17,7
18:26:05:574351,19,54,25,-1,-1,-3,19,15
18:26:05:580344,17,61,-6,0,2,2,7,24
18:26:05:596509,17,61,-6,0,2,2,7,24
18:26:05:597308,23,11,2,-1,1,2,1,10
18:26:05:602823,-21,-49,13,2,0,-6,-17,0
18:26:05:618551,-21,-49,13,2,0,-6,-17,0
18:26:05:619351,26,19,5,-6,-2,2,14,12
18:26:05:625373,7,-28,17,9,7,8,37,15
18:26:05:633569,7,-28,17,9,7,8,37,15
18:26:05:634351,7,-2,1,6,-1,2,2,28
18:26:05:647847,-25,-54,37,4,2,4,6,-6
18:26:05:656033,-25,-54,37,4,2,4,6,-6
18:26:05:656853,-21,-33,0,-5,-2,-4,-11,13
18:26:05:662820,27,32,-17,0,-6,-7,-15,-21
18:26:05:678532,27,32,-17,0,-6,-7,-15,-21
18:26:05:679326,-37,-48,-25,-4,-3,1,8,-14
18:26:05:685355,14,21,3,-3,-3,-5,-64,-30
18:26:05:693538,14,21,3,-3,-3,-5,-64,-30
18:26:05:694346,-3,0,-1,1,-4,1,17,14
18:26:05:707853,-11,-32,-25,-12,-2,2,19,8
18:26:05:716039,-11,-32,-25,-12,-2,2,19,8
18:26:05:716820,-67,-59,-27,-11,-5,-10,-27,-23
18:26:05:722857,-11,-27,-11,4,-1,-4,-21,16
18:26:05:738584,-11,-27,-11,4,-1,-4,-21,16
18:26:05:739354,-18,10,-11,-11,1,-2,-4,-7
18:26:05:745356,3,7,7,4,3,8,66,18
18:26:05:753561,3,7,7,4,3,8,66,18
18:26:05:754307,47,44,18,9,2,-1,-6,17
18:26:05:767884,7,7,-13,-7,-4,3,25,5
18:26:05:776102,7,7,-13,-7,-4,3,25,5
18:26:05:776875,15,14,33,11,6,4,-7,21
18:26:05:782845,-26,27,-11,-5,-3,-5,-41,-25
18:26:05:798585,-26,27,-11,-5,-3,-5,-41,-25
18:26:05:799374,-44,-48,-13,-6,-5,-6,-19,-10
18:26:05:805357,8,18,-4,4,0,-1,-4,-5
18:26:05:813565,8,18,-4,4,0,-1,-4,-5
18:26:05:814367,52,37,-6,-5,-8,-3,-14,-7
18:26:05:827820,-32,2,24,3,-1,-7,-25,-38
18:26:05:836102,-32,2,24,3,-1,-7,-25,-38
18:26:05:836902,-41,-37,19,4,-1,1,-9,-6
18:26:05:842856,16,-4,-24,-8,-5,-4,37,14
18:26:05:858574,16,-4,-24,-8,-5,-4,37,14
18:26:05:859383,9,20,13,1,4,10,66,-12
18:26:05:865317,-4,11,9,2,2,1,13,-6
18:26:05:873596,-4,11,9,2,2,1,13,-6
18:26:05:874377,31,-16,-29,-17,-9,-4,1,-15
18:26:05:887876,-27,30,2,-3,-5,-5,-19,-3
18:26:05:896065,-27,30,2,-3,-5,-5,-19,-3
18:26:05:896874,-24,-11,-12,0,6,-6,-21,-49
18:26:05:902854,-11,-24,9,4,5,6,3,7
18:26:05:918576,-11,-24,9,4,5,6,3,7
18:26:05:919336,25,53,3,2,-3,-5,-11,22
18:26:05:925372,21,15,3,1,-1,-1,-2,14
18:26:05:933565,21,15,3,1,-1,-1,-2,14
18:26:05:934368,9,1,-43,-5,-2,-1,15,-9
18:26:05:947847,-21,-18,9,4,-2,3,13,8
18:26:05:956066,-21,-18,9,4,-2,3,13,8
18:26:05:956862,-1,24,18,8,0,-3,-32,21
18:26:05:962839,15,-23,-15,2,2,-5,-29,-8
18:26:05:978569,15,-23,-15,2,2,-5,-29,-8
18:26:05:979353,-15,-38,17,-7,-3,-1,8,-3
18:26:05:985348,8,-1,23,-2,-1,2,7,24
18:26:05:993566,8,-1,23,-2,-1,2,7,24
18:26:05:994352,-11,1,-11,-13,-5,3,9,21
18:26:06:7815,-7,-21,-18,-8,-5,-5,-18,-11
18:26:06:16066,-7,-21,-18,-8,-5,-5,-18,-11
18:26:06:16852,-1,26,30,10,0,-1,10,10
18:26:06:22826,7,-11,-21,-8,-4,3,4,5
18:26:06:38542,7,-11,-21,-8,-4,3,4,5
18:26:06:39349,-11,44,4,3,3,0,-8,-4
18:26:06:45313,25,12,-5,-1,0,-3,-12,-24
18:26:06:53562,25,12,-5,-1,0,-3,-12,-24
18:26:06:54353,41,-49,13,-3,0,-2,2,2
18:26:06:67857,-8,-18,-66,-9,-6,-11,-25,-21
18:26:06:76029,-8,-18,-66,-9,-6,-11,-25,-21
18:26:06:76848,23,-22,9,0,3,6,15,6
18:26:06:82799,-1,-9,-1,0,-1,0,18,4
18:26:06:98556,-1,-9,-1,0,-1,0,18,4
18:26:06:99337,-21,38,35,14,4,6,-9,-39
18:26:06:105363,-2,-12,-11,-11,-5,-3,4,8
18:26:06:113540,-2,-12,-11,-11,-5,-3,4,8
18:26:06:114362,-79,-54,-22,-1,-6,-7,-5,-15
18:26:06:127873,-4,-2,20,4,-1,-6,-36,-9
18:26:06:136049,-4,-2,20,4,-1,-6,-36,-9
18:26:06:136824,42,7,8,-6,-2,-2,-12,25
18:26:06:142805,15,-12,-63,-7,0,4,26,11
18:26:06:158520,15,-12,-63,-7,0,4,26,11
18:26:06:159331,-10,-34,4,16,5,3,-7,-3
18:26:06:165366,5,-3,15,9,3,3,15,-1
18:26:06:173540,5,-3,15,9,3,3,15,-1
18:26:06:174353,-12,-15,-19,-7,-2,-12,-55,-14
18:26:06:187863,-33,-4,31,8,2,-5,-48,8
18:26:06:196050,-33,-4,31,8,2,-5,-48,8
18:26:06:196828,0,-7,-16,-7,-5,-6,-5,19
18:26:06:202872,17,24,25,-5,-2,3,20,0
18:26:06:218568,17,24,25,-5,-2,3,20,0
18:26:06:219356,24,18,47,9,3,1,20,13
18:26:06:225349,-12,-59,-19,-1,-3,-4,10,1
18:26:06:233546,-12,-59,-19,-1,-3,-4,10,1
18:26:06:234330,24,-3,-1,-3,-2,3,-9,5
18:26:06:247872,9,8,14,-5,-3,-1,-3,-20
18:26:06:256027,9,8,14,-5,-3,-1,-3,-20
18:26:06:256837,-20,64,13,-5,-1,-1,-19,17
18:26:06:262863,-10,43,1,5,0,4,10,17
18:26:06:278608,-10,43,1,5,0,4,10,17
18:26:06:279395,-69,-64,-21,-3,-6,-4,20,-10
18:26:06:285323,0,-10,3,-3,1,-4,7,-9
18:26:06:293565,0,-10,3,-3,1,-4,7,-9
18:26:06:294330,36,29,-16,-2,5,-2,-50,-1
18:26:06:307835,20,5,6,15,-1,0,-12,-12
18:26:06:316080,20,5,6,15,-1,0,-12,-12
18:26:06:316896,2,-12,-8,-10,-7,-1,18,-14
18:26:06:322866,-7,-26,8,-13,-2,-6,-28,-2
18:26:06:338567,-7,-26,8,-13,-2,-6,-28,-2
18:26:06:339353,13,30,-6,-2,-3,-4,4,-2
18:26:06:345355,12,-27,-17,-7,-5,-2,18,-13
18:26:06:353586,12,-27,-17,-7,-5,-2,18,-13
18:26:06:354361,16,49,9,2,-2,6,70,19
18:26:06:367852,-2,5,18,-3,1,6,30,3
18:26:06:376060,-2,5,18,-3,1,6,30,3
18:26:06:376856,1,-16,-24,-8,-2,-1,11,17
18:26:06:382829,-2,31,10,2,-3,-8,-46,-19
18:26:06:398570,-2,31,10,2,-3,-8,-46,-19
18:26:06:399356,-5,-28,4,0,0,-4,-18,6
18:26:06:405339,-10,7,-16,-9,-5,-6,-30,-4
18:26:06:413540,-10,7,-16,-9,-5,-6,-30,-4
18:26:06:414359,20,-1,-29,-5,2,-5,-23,-13
18:26:06:427844,-6,-77,15,5,4,3,2,19
18:26:06:436076,-6,-77,15,5,4,3,2,19
18:26:06:436854,-32,-67,-21,-2,0,-2,-5,-40
18:26:06:442830,-3,51,-5,4,-2,-6,5,20
18:26:06:458577,-3,51,-5,4,-2,-6,5,20
18:26:06:459362,20,-31,-1,-16,-6,-4,-5,13
18:26:06:465363,-15,-35,9,-2,1,-5,-78,-24
18:26:06:473562,-15,-35,9,-2,1,-5,-78,-24
18:26:06:474340,-7,13,2,2,-1,-1,21,-4
18:26:06:487818,3,27,-20,-2,1,8,57,8
18:26:06:496051,3,27,-20,-2,1,8,57,8
18:26:06:496856,13,27,1,2,0,1,-1,-28
18:26:06:502873,15,64,28,8,-2,-7,-6,-3
18:26:06:518528,15,64,28,8,-2,-7,-6,-3
18:26:06:519336,-19,-21,-16,5,-1,5,41,5
18:26:06:525317,-40,-49,54,5,-1,0,32,-5
18:26:06:533567,-40,-49,54,5,-1,0,32,-5
18:26:06:534353,-3,41,20,1,-4,2,12,11
18:26:06:547886,21,7,-31,-10,1,3,13,-13
18:26:06:556043,21,7,-31,-10,1,3,13,-13
18:26:06:556843,0,-37,-2,4,3,-2,7,20
18:26:06:562797,2,2,10,5,2,-7,-35,2
18:26:06:578545,2,2,10,5,2,-7,-35,2
18:26:06:579321,7,-2,11,6,0,0,-9,-37
18:26:06:585301,-5,-8,-29,-13,-6,-1,3,-6
18:26:06:592900,-5,-8,-29,-13,-6,-1,3,-6
18:26:06:600311,22,38,2,3,1,3,22,30
18:26:06:607810,-17,-29,-22,-2,-2,3,28,15
18:26:06:616052,-17,-29,-22,-2,-2,3,28,15
18:26:06:616851,-39,-60,-40,-13,-3,-4,-24,-14
18:26:06:630355,-4,16,-2,3,1,-7,-47,4
18:26:06:638526,-4,16,-2,3,1,-7,-47,4
18:26:06:639352,13,18,6,2,-2,-12,-83,-26
18:26:06:645306,-10,-24,-4,-1,-3,2,30,-7
18:26:06:652879,-10,-24,-4,-1,-3,2,30,-7
18:26:06:660323,-12,-26,-8,-5,-6,0,3,2
18:26:06:667834,46,56,9,1,1,-4,-6,14
18:26:06:676077,46,56,9,1,1,-4,-6,14
18:26:06:676858,-10,7,11,-5,3,5,11,-11
18:26:06:690393,-5,59,-10,-5,-4,-10,-48,-17
18:26:06:698556,-5,59,-10,-5,-4,-10,-48,-17
18:26:06:699334,8,11,-1,-1,-4,-5,-28,15
18:26:06:705357,-15,-15,2,0,2,6,14,11
18:26:06:712920,-15,-15,2,0,2,6,14,11
18:26:06:720340,8,9,36,7,4,5,20,9
18:26:06:727847,8,21,-37,-27,-4,-2,13,1
18:26:06:736033,8,21,-37,-27,-4,-2,13,1
18:26:06:736828,24,35,-6,0,4,-9,-25,8
18:26:06:759204,5,17,10,11,1,-2,-32,-46
18:26:06:760012,5,17,10,11,1,-2,-32,-46
18:26:06:760831,-31,-18,-29,-7,-6,0,18,-14
18:26:06:765330,-7,-24,-28,-2,-3,-6,-34,11
18:26:06:772922,-7,-24,-28,-2,-3,-6,-34,11
18:26:06:780345,22,27,11,6,-1,-2,-3,-14
18:26:06:787846,-9,-1,-2,-3,-1,3,11,7
18:26:06:796067,-9,-1,-2,-3,-1,3,11,7
18:26:06:796893,-2,-26,5,-4,-4,6,19,5
18:26:06:810313,10,32,-12,-6,-6,2,29,-3
18:26:06:818559,10,32,-12,-6,-6,2,29,-3
18:26:06:819360,-4,18,-1,11,0,-1,-6,2
18:26:06:825327,7,-29,5,6,6,7,45,-21
18:26:06:832948,7,-29,5,6,6,7,45,-21
18:26:06:840335,-17,-57,-9,-15,-8,-7,11,-7
18:26:06:847852,23,31,-21,2,1,2,-18,6
18:26:06:856023,23,31,-21,2,1,2,-18,6
18:26:06:856827,1,-9,-33,-3,-6,0,20,12
18:26:06:879209,-13,-24,30,7,1,-3,-4,-7
18:26:06:880025,-13,-24,30,7,1,-3,-4,-7
18:26:06:880865,-19,-39,30,10,4,2,-19,-8
18:26:06:885343,-28,-7,1,-2,-1,2,7,25
18:26:06:892892,-28,-7,1,-2,-1,2,7,25
18:26:06:900334,-24,7,2,-3,0,-2,-17,-2
18:26:06:907838,-42,17,-4,-6,1,-2,-7,-53
18:26:06:916118,-42,17,-4,-6,1,-2,-7,-53
18:26:06:916883,20,38,21,7,-4,-3,-12,-24
18:26:06:930362,-12,-20,11,6,0,-2,-27,1
18:26:06:938567,-12,-20,11,6,0,-2,-27,1
18:26:06:939347,-5,-2,9,-3,-1,2,15,13
18:26:06:945356,16,-18,32,0,-3,0,-1,-32
18:26:06:952939,16,-18,32,0,-3,0,-1,-32
18:26:06:960370,11,14,-11,-5,4,-1,-43,-25
18:26:06:967880,46,16,-9,-5,1,-2,19,42
18:26:06:976046,46,16,-9,-5,1,-2,19,42
18:26:06:976830,41,62,-15,-4,3,0,32,7
18:26:06:990328,-6,-49,11,7,-1,-2,-10,-29
18:26:06:998559,-6,-49,11,7,-1,-2,-10,-29
18:26:06:999375,-3,-5,8,0,0,-3,-5,11
18:26:07:5386,5,14,-3,3,1,7,38,40
18:26:07:12892,5,14,-3,3,1,7,38,40
18:26:07:20396,5,23,4,-12,2,14,49,11
18:26:07:27872,-15,-25,-18,-1,-6,-2,17,7
18:26:07:36045,-15,-25,-18,-1,-6,-2,17,7
18:26:07:36844,-9,-43,-7,1,-4,0,0,-6
18:26:07:50364,12,9,20,9,2,0,6,14
18:26:07:58533,12,9,20,9,2,0,6,14
18:26:07:59330,-36,-61,-17,0,-4,-5,16,13
18:26:07:65384,38,-5,-12,-10,-2,0,13,2
18:26:07:72901,38,-5,-12,-10,-2,0,13,2
18:26:07:80308,12,-13,9,1,0,-4,-17,-16
18:26:07:87830,-19,-26,21,0,5,0,-7,18
18:26:07:96057,-19,-26,21,0,5,0,-7,18
18:26:07:96882,-6,4,-23,-4,-2,-4,-25,-16
18:26:07:110353,-1,-4,-8,-2,-5,-11,-66,2
18:26:07:118557,-1,-4,-8,-2,-5,-11,-66,2
18:26:07:119339,28,-57,53,10,4,-3,-36,9
18:26:07:125310,-1,-1,6,6,2,1,17,16
18:26:07:132899,-1,-1,6,6,2,1,17,16
18:26:07:140348,9,-13,-22,-5,-4,-9,-31,3
18:26:07:147835,-7,41,24,-1,0,2,6,-11
18:26:07:156066,-7,41,24,-1,0,2,6,-11
18:26:07:156864,-27,-16,0,-2,1,4,32,13
18:26:07:170320,-2,6,30,-6,-7,-4,-14,1
18:26:07:178570,-2,6,30,-6,-7,-4,-14,1
18:26:07:179370,-8,47,0,-6,-3,-4,-9,10
18:26:07:185329,-1,-34,-33,2,-3,-9,-45,-19
18:26:07:192893,-1,-34,-33,2,-3,-9,-45,-19
18:26:07:200372,-68,-2,2,-2,-3,-5,12,10
18:26:07:207828,18,74,18,2,2,3,14,14
18:26:07:216087,18,74,18,2,2,3,14,14
18:26:07:216905,25,34,14,-6,-2,0,-6,-1
18:26:07:230352,12,-2,0,-9,-5,2,17,16
18:26:07:238576,12,-2,0,-9,-5,2,17,16
18:26:07:239377,22,72,-23,3,2,11,25,-17
18:26:07:245345,6,-21,-23,6,0,3,19,-25
18:26:07:252878,6,-21,-23,6,0,3,19,-25
18:26:07:260365,-1,13,-18,-6,0,-8,-61,-43
18:26:07:267872,-14,24,1,7,2,-2,7,18
18:26:07:276031,-14,24,1,7,2,-2,7,18
18:26:07:276842,1,-98,-11,0,1,1,7,7
18:26:07:290321,-54,-26,-8,-15,-4,-3,15,-16
18:26:07:298512,-54,-26,-8,-15,-4,-3,15,-16
18:26:07:299329,-22,-42,30,9,3,-6,-8,-3
18:26:07:305377,21,-13,-10,-9,-2,-3,8,14
18:26:07:312889,21,-13,-10,-9,-2,-3,8,14
18:26:07:320317,8,62,24,7,8,3,-14,-14
18:26:07:327888,-34,-34,-53,-9,-3,-5,-51,3
18:26:07:336076,-34,-34,-53,-9,-3,-5,-51,3
18:26:07:336850,10,-12,-8,-2,-6,-5,-5,7
18:26:07:350358,-38,-66,-23,-5,-3,3,3,-12
18:26:07:358542,-38,-66,-23,-5,-3,3,3,-12
18:26:07:359348,26,-3,-3,4,-5,4,33,26
18:26:07:365367,-2,-1,-5,-29,-15,-7,-1,-8
18:26:07:372916,-2,-1,-5,-29,-15,-7,-1,-8
18:26:07:380332,22,63,-4,-6,-2,2,29,1
18:26:07:387826,18,16,9,11,3,-5,-11,-15
18:26:07:396050,18,16,9,11,3,-5,-11,-15
18:26:07:396891,8,15,-3,-4,-3,-2,-1,3
18:26:07:410381,43,48,21,8,2,4,26,12
18:26:07:418549,43,48,21,8,2,4,26,12
18:26:07:419345,-37,-30,-19,-10,-4,-4,-26,5
18:26:07:425335,-15,-17,15,5,3,1,9,-7
18:26:07:432901,-15,-17,15,5,3,1,9,-7
18:26:07:440344,-4,8,-37,-1,0,5,68,7
18:26:07:447824,-37,1,-13,2,0,2,36,-17
18:26:07:456074,-37,1,-13,2,0,2,36,-17
18:26:07:456880,-4,-26,3,3,3,9,51,51
18:26:07:470335,12,4,29,17,8,7,14,32
18:26:07:478542,12,4,29,17,8,7,14,32
18:26:07:479342,10,65,10,5,0,1,17,1
18:26:07:485322,16,8,-12,-22,-4,-2,-5,-3
18:26:07:492903,16,8,-12,-22,-4,-2,-5,-3
18:26:07:508498,19,-4,-1,-2,0,-17,-127,-30
18:26:07:509290,-13,-40,0,4,1,-1,6,4
18:26:07:516082,-13,-40,0,4,1,-1,6,4
18:26:07:516893,-3,0,5,4,-2,-2,10,-7
18:26:07:530337,-25,-85,27,7,3,-11,-75,-15
18:26:07:538593,-25,-85,27,7,3,-11,-75,-15
18:26:07:539394,26,38,16,-7,-9,1,12,7
18:26:07:553534,42,36,-15,3,0,9,58,21
18:26:07:554378,42,36,-15,3,0,9,58,21
18:26:07:560337,23,10,32,6,1,-4,-32,-18
18:26:07:567826,1,-10,-18,5,0,-4,-14,-15
18:26:07:583590,1,-10,-18,5,0,-4,-14,-15
18:26:07:584363,-20,-32,-13,0,-4,-3,18,-25
18:26:07:590319,1,15,-13,-3,0,-1,-3,-2
18:26:07:598556,1,15,-13,-3,0,-1,-3,-2
18:26:07:599334,-10,-24,-27,-20,-3,2,20,32
18:26:07:613539,-12,15,7,-1,-3,-2,-11,2
18:26:07:614339,-12,15,7,-1,-3,-2,-11,2
18:26:07:620332,1,27,-8,-4,4,12,65,8
18:26:07:627885,16,10,-4,-6,-4,-6,-9,-20
18:26:07:635383,16,10,-4,-6,-4,-6,-9,-20
18:26:07:642829,-57,-8,7,0,0,-1,-1,-5
18:26:07:650311,-10,4,24,-1,2,1,-21,-30
18:26:07:658530,-10,4,24,-1,2,1,-21,-30
18:26:07:659371,2,-2,-27,-14,-6,-4,-1,5
18:26:07:673528,-4,-6,20,3,-3,5,23,15
18:26:07:674356,-4,-6,20,3,-3,5,23,15
18:26:07:680346,3,-76,-27,-7,-7,-9,-35,-40
18:26:07:687842,4,1,8,4,-2,-5,-10,12
18:26:07:695421,4,1,8,4,-2,-5,-10,12
18:26:07:702876,-13,-37,2,0,2,-3,-12,15
18:26:07:710323,-35,-31,7,1,-2,-8,-22,-16
18:26:07:718562,-35,-31,7,1,-2,-8,-22,-16
18:26:07:719367,-5,-2,-3,0,3,-8,-27,-14
18:26:07:733570,11,-6,-8,-9,-6,2,14,-6
18:26:07:734380,11,-6,-8,-9,-6,2,14,-6
18:26:07:740350,16,-9,6,4,-1,6,3,53
18:26:07:747835,9,12,-12,-6,-2,-1,-14,7
18:26:07:755403,9,12,-12,-6,-2,-1,-14,7
18:26:07:762848,-10,-66,-11,-3,-8,-1,29,-11
18:26:07:770336,-6,4,9,7,1,6,43,5
18:26:07:778546,-6,4,9,7,1,6,43,5
18:26:07:779301,12,2,37,11,12,8,28,5
18:26:07:793301,23,24,-9,-4,-4,-10,-53,-15
18:26:07:801083,23,24,-9,-4,-4,-10,-53,-15
18:26:07:801890,-21,19,-8,-1,-8,-14,-89,-30
18:26:07:807873,-35,-2,-44,-17,-2,-2,3,18
18:26:07:815386,-35,-2,-44,-17,-2,-2,3,18
18:26:07:822914,7,-30,59,15,5,5,23,27
18:26:07:830356,29,0,0,18,5,2,10,36
18:26:07:838569,29,0,0,18,5,2,10,36
18:26:07:839342,-6,13,-35,0,-1,-3,-31,-2
18:26:07:853558,-16,-66,17,6,-2,1,5,-4
18:26:07:854368,-16,-66,17,6,-2,1,5,-4
18:26:07:860371,-1,28,-7,0,0,1,13,1
18:26:07:867877,8,45,-30,-9,-3,-1,21,-1
18:26:07:875377,8,45,-30,-9,-3,-1,21,-1
18:26:07:882877,63,64,59,3,3,3,18,-24
18:26:07:890292,-2,-12,-8,5,2,5,25,-7
18:26:07:898561,-2,-12,-8,5,2,5,25,-7
18:26:07:899341,-15,-18,22,4,-2,-2,5,15
18:26:07:913533,-6,1,5,1,6,2,-8,-39
18:26:07:914325,-6,1,5,1,6,2,-8,-39
18:26:07:920319,-8,19,-20,-5,-1,1,2,3
18:26:07:927869,9,33,-21,-3,-6,-2,0,22
18:26:07:935397,9,33,-21,-3,-6,-2,0,22
18:26:07:942804,0,10,-41,1,-2,1,33,-5
18:26:07:950320,30,3,4,-4,-4,-7,-2,1
18:26:07:958551,30,3,4,-4,-4,-7,-2,1
18:26:07:959375,12,-14,-21,0,-1,-8,-45,15
18:26:07:973569,-26,-46,-7,-10,-14,-9,-63,4
18:26:07:974453,-26,-46,-7,-10,-14,-9,-63,4
18:26:07:980361,-20,-1,14,-2,0,0,14,6
18:26:07:987824,-10,21,16,-1,2,-3,-8,-23
18:26:07:995385,-10,21,16,-1,2,-3,-8,-23
18:26:08:2818,15,-7,-9,-1,1,2,-2,-22
18:26:08:10320,-10,-24,30,7,5,9,36,16
18:26:08:18563,-10,-24,30,7,5,9,36,16
18:26:08:19370,-4,-18,14,0,-5,-10,-9,-4
18:26:08:33557,17,5,-4,-11,-2,6,36,1
18:26:08:34383,17,5,-4,-11,-2,6,36,1
18:26:08:40361,7,-22,13,-2,-3,-7,-57,-15
18:26:08:47824,21,21,14,3,-2,0,6,0
18:26:08:55415,21,21,14,3,-2,0,6,0
18:26:08:62863,-44,-43,-14,-6,-1,7,36,2
18:26:08:70388,-28,-75,-19,3,-3,-5,-27,-10
18:26:08:78505,-28,-75,-19,3,-3,-5,-27,-10
18:26:08:79332,21,11,-19,-10,-4,-7,-58,-4
18:26:08:93570,-11,21,4,0,-2,-9,-10,-32
18:26:08:94390,-11,21,4,0,-2,-9,-10,-32
18:26:08:100340,-4,22,5,-8,-4,1,5,-6
18:26:08:107857,-3,11,29,-1,1,-3,4,15
18:26:08:115368,-3,11,29,-1,1,-3,4,15
18:26:08:122870,-14,10,-16,-6,-5,-2,-2,12
18:26:08:130361,-47,-7,-8,-1,2,-9,-57,20
18:26:08:138532,-47,-7,-8,-1,2,-9,-57,20
18:26:08:139343,-6,-16,-44,-4,-2,2,23,-3
18:26:08:153510,8,-19,-11,-16,-4,0,19,22
18:26:08:154327,8,-19,-11,-16,-4,0,19,22
18:26:08:160381,-1,28,2,11,2,0,8,-13
18:26:08:167842,26,46,-10,-5,-1,-1,-5,-1
18:26:08:175378,26,46,-10,-5,-1,-1,-5,-1
18:26:08:182822,-7,-17,4,1,2,2,25,-7
18:26:08:190286,21,30,-39,-1,-5,-1,17,-2
18:26:08:198549,21,30,-39,-1,-5,-1,17,-2
18:26:08:199351,20,18,22,5,3,1,-3,31
18:26:08:213522,1,-9,-7,-22,-9,-4,-9,4
18:26:08:214335,1,-9,-7,-22,-9,-4,-9,4
18:26:08:220343,-24,9,-1,-5,-4,0,19,-27
18:26:08:227834,12,7,12,8,5,17,64,-2
18:26:08:235390,12,7,12,8,5,17,64,-2
18:26:08:242844,29,11,4,-6,-2,-4,-17,-1
18:26:08:250313,-17,33,42,6,-1,-7,-33,-55
18:26:08:258550,-17,33,42,6,-1,-7,-33,-55
18:26:08:259363,16,26,-4,13,1,3,3,0
18:26:08:273561,-16,-29,-18,20,10,6,12,2
18:26:08:274359,-16,-29,-18,20,10,6,12,2
18:26:08:280350,-3,-33,-12,-2,4,-1,-10,-7
18:26:08:287856,6,27,15,15,6,6,0,6
18:26:08:295401,6,27,15,15,6,6,0,6
18:26:08:302837,-63,-41,8,-2,0,4,13,-31
18:26:08:310348,11,12,-20,-4,-6,-5,2,12
18:26:08:318604,11,12,-20,-4,-6,-5,2,12
18:26:08:319352,-4,-53,-7,-6,-6,-6,-15,-14
18:26:08:333563,-13,-27,-21,-15,-7,-10,-28,-16
18:26:08:334391,-13,-27,-21,-15,-7,-10,-28,-16
18:26:08:340386,3,16,17,-1,-3,2,23,12
18:26:08:347857,21,-21,-3,2,7,7,28,16
18:26:08:355458,21,-21,-3,2,7,7,28,16
18:26:08:362880,-2,-25,10,-19,-9,-7,-36,2
18:26:08:370369,28,19,10,-1,-2,1,-6,17
18:26:08:378567,28,19,10,-1,-2,1,-6,17
18:26:08:379329,-26,-37,-27,-3,-8,1,42,7
18:26:08:393578,28,19,12,5,2,3,-25,31
18:26:08:394409,28,19,12,5,2,3,-25,31
18:26:08:400359,16,9,28,7,-1,1,10,8
18:26:08:407873,2,-4,16,4,-1,-2,-28,-13
18:26:08:415393,2,-4,16,4,-1,-2,-28,-13
18:26:08:422881,33,31,11,-4,4,1,7,7
18:26:08:430359,-6,12,-12,2,0,-3,9,-13
18:26:08:438938,-6,12,-12,2,0,-3,9,-13
18:26:08:445326,16,39,11,-2,1,-7,-21,13
18:26:08:453530,-16,16,-15,1,0,-1,14,-15
18:26:08:454337,-16,16,-15,1,0,-1,14,-15
18:26:08:460335,5,-27,12,6,2,-5,-1,12
18:26:08:467826,-66,-54,-51,-8,-4,-3,9,14
18:26:08:475430,-66,-54,-51,-8,-4,-3,9,14
18:26:08:482861,-16,-17,-16,-11,0,1,-11,-4
18:26:08:490340,4,-10,-1,-4,-4,-13,-27,13
18:26:08:497957,4,-10,-1,-4,-4,-13,-27,13
18:26:08:505377,-22,-7,-31,6,-1,2,-2,2
18:26:08:513507,5,17,1,-4,1,1,6,-24
18:26:08:514335,5,17,1,-4,1,1,6,-24
18:26:08:520363,21,26,12,3,-1,-7,-17,5
18:26:08:536061,-30,-34,-31,-11,-6,-8,-37,-14
18:26:08:536863,-30,-34,-31,-11,-6,-8,-37,-14
18:26:08:542860,27,39,-5,3,1,2,11,10
18:26:08:550363,21,33,11,0,-3,2,24,24
18:26:08:557845,21,33,11,0,-3,2,24,24
18:26:08:565379,0,-4,15,7,3,-2,-22,-20
18:26:08:573490,1,-1,45,7,1,2,23,-2
18:26:08:574363,1,-1,45,7,1,2,23,-2
18:26:08:580375,12,-28,3,1,-1,4,33,5
18:26:08:596040,-7,-20,11,-1,-1,2,-11,-20
18:26:08:596813,-7,-20,11,-1,-1,2,-11,-20
18:26:08:602879,-16,-9,-7,0,4,7,16,9
18:26:08:610350,-1,-45,-83,-12,-7,-8,-3,-3
18:26:08:617878,-1,-45,-83,-12,-7,-8,-3,-3
18:26:08:625294,-32,16,-35,-33,-8,-6,-15,-9
18:26:08:633551,-14,4,31,-2,0,1,-4,-13
18:26:08:634351,-14,4,31,-2,0,1,-4,-13
18:26:08:640345,-27,30,19,9,6,4,6,4
18:26:08:656054,10,-52,-2,1,-1,1,17,-11
18:26:08:656854,10,-52,-2,1,-1,1,17,-11
18:26:08:662800,4,1,-2,-9,-5,1,15,13
18:26:08:670315,-1,16,21,2,-1,0,-3,-25
18:26:08:677922,-1,16,21,2,-1,0,-3,-25
18:26:08:685342,4,-34,5,5,-3,-5,3,-20
18:26:08:693587,2,20,11,-2,-3,-12,-70,-18
18:26:08:694391,2,20,11,-2,-3,-12,-70,-18
18:26:08:700357,23,36,10,-9,-3,2,-17,-9
18:26:08:716055,-32,2,3,7,9,6,28,32
18:26:08:716865,-32,2,3,7,9,6,28,32
18:26:08:722847,-10,-10,-3,9,-1,-1,21,0
18:26:08:730340,17,1,-13,-7,-1,0,-4,18
18:26:08:737937,17,1,-13,-7,-1,0,-4,18
18:26:08:745337,5,-19,-24,6,3,1,11,-9
18:26:08:753551,18,32,31,10,5,2,-1,4
18:26:08:754389,18,32,31,10,5,2,-1,4
18:26:08:760363,5,-9,-29,-18,-12,-4,4,-8
18:26:08:776053,8,-22,12,8,-1,5,38,-6
18:26:08:776852,8,-22,12,8,-1,5,38,-6
18:26:08:782849,-3,18,8,7,-4,-5,0,14
18:26:08:790348,-15,-23,-2,-8,-3,-10,-18,7
18:26:08:797907,-15,-23,-2,-8,-3,-10,-18,7
18:26:08:805354,15,-17,3,1,1,-2,-35,0
18:26:08:813503,14,7,5,-4,-3,-2,-8,-35
18:26:08:814322,14,7,5,-4,-3,-2,-8,-35
18:26:08:820335,-9,36,8,-10,-1,1,-1,-36
18:26:08:836112,-21,-27,-16,-12,-7,-3,-11,6
18:26:08:836882,-21,-27,-16,-12,-7,-3,-11,6
18:26:08:842879,-10,-1,23,23,6,-1,19,-21
18:26:08:850392,18,18,17,-5,-2,1,-9,16
18:26:08:857840,18,18,17,-5,-2,1,-9,16
18:26:08:865363,7,-5,-6,0,-1,-2,6,18
18:26:08:873524,16,-3,0,6,-1,3,37,-20
18:26:08:874347,16,-3,0,6,-1,3,37,-20
18:26:08:880318,10,-34,-8,-9,0,4,-18,9
18:26:08:896042,33,63,0,-4,-6,2,6,13
18:26:08:896829,33,63,0,-4,-6,2,6,13
18:26:08:902836,-49,-79,19,6,2,-1,-20,2
18:26:08:910347,-32,-32,-28,5,-3,-8,-34,-8
18:26:08:917928,-32,-32,-28,5,-3,-8,-34,-8
18:26:08:925331,-19,1,-24,-19,-9,-11,-27,-6
18:26:08:933548,-11,-29,-2,-9,2,11,61,-1
18:26:08:934361,-11,-29,-2,-9,2,11,61,-1
18:26:08:940372,-10,-6,-31,0,-1,-8,-17,4
18:26:08:956065,-21,-18,4,-1,1,-4,17,6
18:26:08:956872,-21,-18,4,-1,1,-4,17,6
18:26:08:962828,18,17,16,-2,-7,3,36,-1
18:26:08:970305,-12,-5,22,3,-2,-6,-13,4
18:26:08:977888,-12,-5,22,3,-2,-6,-13,4
18:26:08:985329,-59,-24,16,2,4,-1,-16,-4
18:26:08:993530,3,42,-26,-6,-3,-4,-13,-11
18:26:08:994389,3,42,-26,-6,-3,-4,-13,-11
18:26:09:329,14,-1,-21,-6,-1,-9,-30,-39
18:26:09:16048,-21,-15,-29,-11,-2,2,-23,-4
18:26:09:16863,-21,-15,-29,-11,-2,2,-23,-4
18:26:09:22891,24,6,39,6,0,3,32,27
18:26:09:30336,3,-15,-6,-24,-6,-5,-56,-23
18:26:09:37916,3,-15,-6,-24,-6,-5,-56,-23
18:26:09:45344,8,-2,3,-2,0,-1,-15,13
18:26:09:53548,-14,-7,24,6,-4,-11,-25,14
18:26:09:54372,-14,-7,24,6,-4,-11,-25,14
18:26:09:60364,6,41,-59,-6,2,1,0,-4
18:26:09:76067,-15,10,-19,-16,-4,-1,17,36
18:26:09:76875,-15,10,-19,-16,-4,-1,17,36
18:26:09:82833,7,-9,3,9,-2,-6,-45,-19
18:26:09:90340,4,-15,26,14,7,4,33,17
18:26:09:97904,4,-15,26,14,7,4,33,17
18:26:09:105376,-9,-37,-6,4,4,-5,-29,-27
18:26:09:121727,56,11,-29,0,0,1,13,8
18:26:09:122538,56,11,-29,0,0,1,13,8
18:26:09:123328,-15,46,26,-3,2,3,8,11
18:26:09:136042,-1,-13,-14,6,1,2,12,-4
18:26:09:136877,-1,-13,-14,6,1,2,12,-4
18:26:09:142850,19,13,2,4,0,-4,-45,24
18:26:09:150339,24,21,23,16,5,11,57,11
18:26:09:157942,24,21,23,16,5,11,57,11
18:26:09:165367,-65,-36,-31,-8,-4,-3,7,-10
18:26:09:173585,-65,-36,-31,-8,-4,-3,7,-10
18:26:09:174409,-36,-25,8,12,0,2,-3,-7
18:26:09:180363,15,-8,-29,-13,-4,0,16,-6
18:26:09:196091,15,-8,-29,-13,-4,0,16,-6
18:26:09:196893,6,-38,-10,4,-1,0,17,-4
18:26:09:210330,59,55,5,3,1,-5,-83,8
18:26:09:218573,59,55,5,3,1,-5,-83,8
18:26:09:219339,-13,-2,-28,-20,-5,-7,-27,-45
18:26:09:225342,14,-2,3,6,-5,-2,27,-4
18:26:09:233577,14,-2,3,6,-5,-2,27,-4
18:26:09:234380,39,54,12,11,5,10,19,6
18:26:09:240338,-27,-98,-42,-25,-10,-8,11,-22
18:26:09:256062,-27,-98,-42,-25,-10,-8,11,-22
18:26:09:256846,-6,-15,7,-20,-5,-6,-9,-16
18:26:09:262834,14,20,4,3,1,0,45,35
18:26:09:278596,14,20,4,3,1,0,45,35
18:26:09:279381,28,38,7,6,-3,-9,-36,6
18:26:09:285348,-31,-3,24,3,-1,4,22,13
18:26:09:293596,-31,-3,24,3,-1,4,22,13
18:26:09:294363,-9,22,-15,-1,5,2,-8,16
18:26:09:300338,-27,-26,27,8,2,-1,-6,-9
18:26:09:316073,-27,-26,27,8,2,-1,-6,-9
18:26:09:316856,-20,-45,-2,9,3,3,16,-7
18:26:09:322829,-2,-1,-3,-27,-8,5,28,0
18:26:09:338547,-2,-1,-3,-27,-8,5,28,0
18:26:09:339358,4,15,20,1,-1,3,-11,23
18:26:09:345291,-39,-4,16,17,6,1,-11,-21
18:26:09:353592,-39,-4,16,17,6,1,-11,-21
18:26:09:354362,-25,-9,4,-1,-1,-5,-10,-13
18:26:09:360347,45,21,4,0,2,8,63,-14
18:26:09:376061,45,21,4,0,2,8,63,-14
18:26:09:376866,-4,-16,-22,-8,0,1,29,-2
18:26:09:382809,19,16,-9,5,3,-6,-33,32
18:26:09:398552,19,16,-9,5,3,-6,-33,32
18:26:09:399335,-42,-56,-36,-27,-12,-13,-9,-38
18:26:09:405382,37,-9,-11,-6,-4,1,3,-21
18:26:09:413556,37,-9,-11,-6,-4,1,3,-21
18:26:09:414367,21,12,0,13,7,4,-10,14
18:26:09:427898,15,19,5,15,5,-1,-18,3
18:26:09:436047,15,19,5,15,5,-1,-18,3
18:26:09:436848,9,20,44,9,1,2,9,8
18:26:09:442842,4,1,13,-10,-2,5,16,-13
18:26:09:458569,4,1,13,-10,-2,5,16,-13
18:26:09:459313,35,5,-9,-4,-3,-3,14,32
18:26:09:465384,-43,10,5,0,-2,-3,8,6
18:26:09:473553,-43,10,5,0,-2,-3,8,6
18:26:09:474372,18,13,18,5,6,-4,-16,-6
18:26:09:487898,15,47,-16,-16,-5,-7,-13,26
18:26:09:496061,15,47,-16,-16,-5,-7,-13,26
18:26:09:496843,-6,30,-7,6,-3,-4,-19,-6
18:26:09:502852,-9,-33,17,10,-5,0,41,-29
18:26:09:518532,-9,-33,17,10,-5,0,41,-29
18:26:09:519318,-1,9,10,6,0,-1,-16,4
18:26:09:525354,-21,-6,12,-1,0,2,9,-11
18:26:09:533548,-21,-6,12,-1,0,2,9,-11
18:26:09:534334,23,5,28,9,3,4,11,0
18:26:09:547855,8,-23,3,0,-2,-8,-30,-25
18:26:09:556057,8,-23,3,0,-2,-8,-30,-25
18:26:09:556832,-10,-15,-53,-20,-10,-3,-29,-23
18:26:09:562859,-2,12,-8,12,0,-6,-67,8
18:26:09:578579,-2,12,-8,12,0,-6,-67,8
18:26:09:579392,-13,-16,3,-7,-5,0,20,-5
18:26:09:585345,9,30,20,-5,0,3,22,33
18:26:09:593526,9,30,20,-5,0,3,22,33
18:26:09:594342,-8,6,31,-1,-1,-3,-13,-21
18:26:09:607858,-32,-59,-22,-1,-4,3,15,-33
18:26:09:616086,-32,-59,-22,-1,-4,3,15,-33
18:26:09:616880,-51,11,28,12,9,4,-11,-5
18:26:09:622872,27,42,23,-13,-7,-4,-10,22
18:26:09:638571,27,42,23,-13,-7,-4,-10,22
18:26:09:639385,3,-23,-6,-10,-7,-3,-29,-11
18:26:09:645327,-6,-69,-9,-1,-4,-6,-65,-10
18:26:09:653612,-6,-69,-9,-1,-4,-6,-65,-10
18:26:09:654372,11,54,-18,1,-2,-5,-2,30
18:26:09:667833,45,-29,-48,6,7,9,31,-24
18:26:09:676071,45,-29,-48,6,7,9,31,-24
18:26:09:676878,22,-65,-73,-8,-8,-6,3,22
18:26:09:682833,-79,-55,-12,-11,0,-6,26,-19
18:26:09:698572,-79,-55,-12,-11,0,-6,26,-19
18:26:09:699349,22,13,4,-6,2,0,-17,-8
18:26:09:705346,9,14,0,6,0,-3,5,-12
18:26:09:713550,9,14,0,6,0,-3,5,-12
18:26:09:714390,-2,-4,28,-2,-3,6,44,6
18:26:09:727846,-29,1,9,4,4,7,9,-56
18:26:09:736090,-29,1,9,4,4,7,9,-56
18:26:09:736858,10,-11,9,0,-2,2,31,-11
18:26:09:742850,-70,-37,-15,-5,-7,-4,-1,34
18:26:09:758577,-70,-37,-15,-5,-7,-4,-1,34
18:26:09:759355,-69,-24,31,20,13,3,8,-22
18:26:09:765353,36,28,17,16,10,3,10,28
18:26:09:773572,36,28,17,16,10,3,10,28
18:26:09:774386,2,12,2,-8,-5,2,32,48
18:26:09:787839,41,33,3,0,2,3,14,32
18:26:09:796060,41,33,3,0,2,3,14,32
18:26:09:796854,19,24,7,-6,-3,0,-4,10
18:26:09:802850,24,16,16,4,-7,1,3,21
18:26:09:818553,24,16,16,4,-7,1,3,21
18:26:09:819364,-62,-59,-17,-19,-8,-14,-28,-2
18:26:09:825322,-20,31,4,1,-1,-7,-75,13
18:26:09:833602,-20,31,4,1,-1,-7,-75,13
18:26:09:834363,-21,5,-10,8,3,0,4,-22
18:26:09:847876,31,-42,24,-3,2,5,28,-14
18:26:09:856062,31,-42,24,-3,2,5,28,-14
18:26:09:856839,62,-4,-17,-8,-8,-1,1,8
18:26:09:862837,-17,-40,-36,-28,-7,-5,1,20
18:26:09:878574,-17,-40,-36,-28,-7,-5,1,20
18:26:09:879322,-23,8,9,5,4,4,16,-22
18:26:09:885317,19,24,-38,1,-3,-9,-54,-64
18:26:09:893557,19,24,-38,1,-3,-9,-54,-64
18:26:09:894353,-33,-7,-1,3,0,3,3,1
18:26:09:907878,4,-14,-42,2,6,6,14,24
18:26:09:916062,4,-14,-42,2,6,6,14,24
18:26:09:916837,18,10,21,12,2,-2,-32,-7
18:26:09:922831,-5,-23,20,-1,-3,-1,13,23
18:26:09:938557,-5,-23,20,-1,-3,-1,13,23
18:26:09:939342,23,10,16,10,1,6,16,4
18:26:09:945355,28,23,0,9,0,-6,2,-23
18:26:09:953549,28,23,0,9,0,-6,2,-23
18:26:09:954345,25,1,-2,-6,-5,-5,1,21
18:26:09:967885,-35,-25,-3,-7,-6,2,17,-21
18:26:09:976061,-35,-25,-3,-7,-6,2,17,-21
18:26:09:976840,5,66,-12,-3,-5,-9,-24,13
18:26:09:982866,2,16,34,1,4,0,2,29
18:26:09:998513,2,16,34,1,4,0,2,29
18:26:09:999341,17,-20,31,-1,0,0,-3,1
18:26:10:5386,-3,17,16,1,-1,1,3,7
18:26:10:13534,-3,17,16,1,-1,1,3,7
18:26:10:14323,7,-20,14,10,1,-4,-15,0
18:26:10:27852,12,-11,23,1,-1,4,50,18
18:26:10:36047,12,-11,23,1,-1,4,50,18
18:26:10:36821,-21,-48,-43,-6,4,-4,-22,-27
18:26:10:42866,-29,24,-8,-4,-2,-5,-4,-3
18:26:10:58578,-29,24,-8,-4,-2,-5,-4,-3
18:26:10:59386,2,-24,14,0,-3,1,4,-42
18:26:10:65368,27,12,-16,-13,-6,-1,-14,-2
18:26:10:73506,27,12,-16,-13,-6,-1,-14,-2
18:26:10:74358,17,28,-5,9,0,1,-4,-41
18:26:10:87836,-5,0,-5,1,-5,-9,-23,-80
18:26:10:96054,-5,0,-5,1,-5,-9,-23,-80
18:26:10:96813,-37,52,52,5,3,0,-20,23
18:26:10:102845,8,-5,-11,-12,-2,-4,-23,22
18:26:10:118581,8,-5,-11,-12,-2,-4,-23,22
18:26:10:119366,10,-18,-1,1,-1,4,45,-2
18:26:10:125385,-26,-9,5,1,-1,-4,-38,3
18:26:10:133570,-26,-9,5,1,-1,-4,-38,3
18:26:10:134394,-13,-8,21,-2,0,0,27,24
18:26:10:147859,-5,-9,-1,8,1,3,2,-28
18:26:10:156088,-5,-9,-1,8,1,3,2,-28
18:26:10:156912,-82,-43,-43,-18,-5,-5,-14,-11
18:26:10:162871,12,6,13,7,2,3,8,9
18:26:10:178601,12,6,13,7,2,3,8,9
18:26:10:179367,29,7,-2,-3,-2,0,4,19
18:26:10:185349,-3,29,11,0,-2,1,3,23
18:26:10:193565,-3,29,11,0,-2,1,3,23
18:26:10:194367,11,3,-26,2,-3,-5,-64,-16
18:26:10:208310,29,-8,-6,-10,0,-4,-13,21
18:26:10:216073,29,-8,-6,-10,0,-4,-13,21
18:26:10:216852,3,-64,-19,-17,-10,-6,4,-6
18:26:10:222847,10,-18,14,5,-2,2,24,-50
18:26:10:238547,10,-18,14,5,-2,2,24,-50
18:26:10:239360,-16,-42,-28,1,-5,-18,-84,-9
18:26:10:245341,18,3,-15,0,-3,-12,-45,1
18:26:10:253553,18,3,-15,0,-3,-12,-45,1
18:26:10:254336,29,33,-5,-2,1,19,75,18
18:26:10:267815,5,-9,-6,4,3,8,61,24
18:26:10:276045,5,-9,-6,4,3,8,61,24
18:26:10:276868,-6,30,13,-9,-4,4,37,0
18:26:10:282812,-16,-6,5,-6,1,-2,-23,5
18:26:10:298546,-16,-6,5,-6,1,-2,-23,5
18:26:10:299362,-16,8,23,-1,1,0,-15,2
18:26:10:305326,24,10,5,2,-4,-5,-5,2
18:26:10:313584,24,10,5,2,-4,-5,-5,2
18:26:10:314377,-34,5,20,6,2,5,6,-1
18:26:10:327818,-11,21,37,7,-3,2,-13,32
18:26:10:336074,-11,21,37,7,-3,2,-13,32
18:26:10:336840,17,-22,-33,-8,-6,-2,29,-35
18:26:10:342817,27,23,-11,6,5,12,28,20
18:26:10:358548,27,23,-11,6,5,12,28,20
18:26:10:359387,16,26,-16,1,-1,-10,-30,-6
18:26:10:365326,10,83,-17,-19,-3,2,43,13
18:26:10:372889,10,83,-17,-19,-3,2,43,13
18:26:10:380339,9,13,-37,2,-3,-5,0,-5
18:26:10:387841,-94,-57,13,7,0,-9,-19,-26
18:26:10:396082,-94,-57,13,7,0,-9,-19,-26
18:26:10:396879,33,29,-15,-9,0,-7,-11,14
18:26:10:410343,9,-8,1,-4,-1,-1,5,4
18:26:10:418560,9,-8,1,-4,-1,-1,5,4
18:26:10:419371,-26,-30,33,19,10,4,-33,-25
18:26:10:425320,-15,-37,-22,-13,-8,-6,-10,-23
18:26:10:432908,-15,-37,-22,-13,-8,-6,-10,-23
18:26:10:440362,3,-12,42,10,5,5,28,32
18:26:10:447848,4,-6,-15,5,2,8,38,-7
18:26:10:456102,4,-6,-15,5,2,8,38,-7
18:26:10:456872,-45,44,-30,-25,-5,-3,-16,-46
18:26:10:470317,-4,-15,-9,-3,-1,-4,-4,6
18:26:10:478602,-4,-15,-9,-3,-1,-4,-4,6
18:26:10:479356,63,21,7,10,5,-1,-16,41
18:26:10:485392,10,-1,-17,10,2,6,39,4
18:26:10:492953,10,-1,-17,10,2,6,39,4
18:26:10:500357,32,0,25,4,0,2,11,9
18:26:10:507841,-16,3,9,7,0,3,-5,23
18:26:10:516046,-16,3,9,7,0,3,-5,23
18:26:10:516809,-7,-26,-26,-4,-3,-2,27,54
18:26:10:530831,-21,51,35,-3,-1,-7,-36,-10
18:26:10:538583,-21,51,35,-3,-1,-7,-36,-10
18:26:10:539386,-24,-5,-27,-2,-2,7,25,8
18:26:10:545355,37,0,-8,-13,-1,0,-11,-13
18:26:10:552890,37,0,-8,-13,-1,0,-11,-13
18:26:10:560386,-6,44,-23,-7,1,-2,-14,-6
18:26:10:576676,-24,-43,-12,-4,-5,-5,5,-1
18:26:10:577497,-24,-43,-12,-4,-5,-5,5,-1
18:26:10:578283,-23,-4,3,-1,-7,-11,-48,-26
18:26:10:590340,-15,-25,-48,-22,-5,-4,-5,-4
18:26:10:598583,-15,-25,-48,-22,-5,-4,-5,-4
18:26:10:599379,4,-13,-15,-19,-3,-2,1,-8
18:26:10:605353,-9,-41,-7,-4,-4,-7,-14,-4
18:26:10:612929,-9,-41,-7,-4,-4,-7,-14,-4
