Time,EMG1,EMG2,EMG3,EMG4,EMG5,EMG6,EMG7,EMG8
14:14:09:187625,-9,-1,9,6,-14,-2,-37,-37
14:14:09:188436,-9,-1,9,6,-14,-2,-37,-37
14:14:09:189247,1,-1,-9,2,5,-24,2,8
14:14:09:210107,2,1,-17,-1,-4,-9,0,0
14:14:09:210887,2,1,-17,-1,-4,-9,0,0
14:14:09:211681,4,1,3,-8,-14,8,-4,16
14:14:09:216324,-3,-10,5,-8,-5,2,2,6
14:14:09:223794,-3,-10,5,-8,-5,2,2,6
14:14:09:239479,-2,-8,-12,-8,19,6,2,3
14:14:09:240255,-6,-12,-17,10,4,-1,8,2
14:14:09:247040,-6,-12,-17,10,4,-1,8,2
14:14:09:247736,-2,-7,-16,-12,-17,10,-8,-2
14:14:09:270131,-3,1,0,3,4,4,4,5
14:14:09:270916,-3,1,0,3,4,4,4,5
14:14:09:271741,-3,3,0,9,1,-5,1,-4
14:14:09:276283,1,3,5,6,5,14,11,0
14:14:09:283963,1,3,5,6,5,14,11,0
14:14:09:291283,7,13,22,7,18,27,-3,0
14:14:09:298773,0,7,6,13,-3,-6,-7,1
14:14:09:306947,0,7,6,13,-3,-6,-7,1
14:14:09:307718,-3,-9,-9,-2,-34,-28,5,3
14:14:09:322018,4,7,13,-16,2,6,9,6
14:14:09:322785,4,7,13,-16,2,6,9,6
14:14:09:328777,-1,-1,-8,-3,8,4,-2,4
14:14:09:336366,-3,-10,2,16,12,11,6,-4
14:14:09:343869,-3,-10,2,16,12,11,6,-4
14:14:09:351361,1,2,-3,8,-8,-8,-7,-3
14:14:09:359449,1,0,6,-1,5,-2,-1,-1
14:14:09:360250,1,0,6,-1,5,-2,-1,-1
14:14:09:366411,-5,-6,-4,-17,-22,13,-15,-11
14:14:09:381948,-1,4,11,3,24,33,12,-9
14:14:09:382752,-1,4,11,3,24,33,12,-9
14:14:09:388780,-1,1,3,7,3,9,0,0
14:14:09:396279,0,-1,-8,-4,-17,-19,-10,-5
14:14:09:403787,0,-1,-8,-4,-17,-19,-10,-5
14:14:09:411285,-4,2,-3,6,14,-7,-8,2
14:14:09:419528,-3,-2,-6,-13,-10,-7,0,3
14:14:09:420226,-3,-2,-6,-13,-10,-7,0,3
14:14:09:426214,-1,-1,4,14,14,-8,-15,0
14:14:09:441945,-2,0,-7,-3,-7,-17,4,10
14:14:09:442733,-2,0,-7,-3,-7,-17,4,10
14:14:09:448766,-1,1,-4,-17,-11,-12,-1,10
14:14:09:464467,-2,-7,-10,1,4,28,4,-4
14:14:09:465250,-2,-7,-10,1,4,28,4,-4
14:14:09:471293,0,1,8,12,41,8,11,7
14:14:09:487646,0,0,-8,-1,-5,-4,7,8
14:14:09:488458,0,0,-8,-1,-5,-4,7,8
14:14:09:489243,-3,-2,-5,-23,-24,-10,-5,-8
14:14:09:502075,0,1,9,15,12,-9,-11,-10
14:14:09:502769,0,1,9,15,12,-9,-11,-10
14:14:09:517063,0,1,-2,1,5,3,7,0
14:14:09:517748,-2,2,0,-10,-10,-8,-7,0
14:14:09:523812,-2,2,0,-10,-10,-8,-7,0
14:14:09:531279,-3,-1,3,-4,-11,2,1,-9
14:14:09:540534,4,0,1,-9,10,13,23,5
14:14:09:547139,4,0,1,-9,10,13,23,5
14:14:09:547813,0,0,7,1,-9,-8,-3,-4
14:14:09:561984,-3,-3,4,0,6,-9,-12,0
14:14:09:562765,-3,-3,4,0,6,-9,-12,0
14:14:09:576890,0,-2,-3,5,-12,0,1,-6
14:14:09:577693,0,-2,4,19,5,2,15,10
14:14:09:583913,0,-2,4,19,5,2,15,10
14:14:09:591263,0,-8,-13,-20,1,0,9,9
14:14:09:599565,1,-3,-11,4,9,17,-2,-10
14:14:09:600298,1,-3,-11,4,9,17,-2,-10
14:14:09:606258,-3,3,1,2,-7,-10,-7,-4
14:14:09:621979,-1,6,-3,-3,7,1,-8,-4
14:14:09:622774,-1,6,-3,-3,7,1,-8,-4
14:14:09:628735,2,0,4,10,-2,5,-8,-5
14:14:09:636315,-1,-4,3,-4,-14,-2,-3,-1
14:14:09:643845,-1,-4,3,-4,-14,-2,-3,-1
14:14:09:651326,-3,1,1,7,14,-13,8,-4
14:14:09:659505,-2,3,5,9,1,3,2,20
14:14:09:660268,-2,3,5,9,1,3,2,20
14:14:09:666367,0,-3,-8,-4,1,22,9,-1
14:14:09:682003,2,-11,-12,-5,26,-1,-9,1
14:14:09:682796,2,-11,-12,-5,26,-1,-9,1
14:14:09:688809,-2,0,-7,4,8,5,-7,1
14:14:09:696294,-4,0,-5,2,-27,-23,-16,-8
14:14:09:703828,-4,0,-5,2,-27,-23,-16,-8
14:14:09:711349,0,3,4,-7,-13,-3,-2,-1
14:14:09:719530,-3,-3,-1,-3,-3,11,-5,-18
14:14:09:720338,-3,-3,-1,-3,-3,11,-5,-18
14:14:09:726294,2,-1,-1,-1,-23,-27,6,8
14:14:09:741955,5,1,-2,14,21,29,12,2
14:14:09:742812,5,1,-2,14,21,29,12,2
14:14:09:748805,-2,-5,3,-12,-6,0,-3,3
14:14:09:764543,-3,0,5,-12,-28,-22,-9,-4
14:14:09:765289,-3,0,5,-12,-28,-22,-9,-4
14:14:09:771289,0,-2,2,12,21,19,1,2
14:14:09:779451,-3,-3,-7,-19,-14,-18,0,-1
14:14:09:780325,-3,-3,-7,-19,-14,-18,0,-1
14:14:09:794254,1,-2,-3,-14,-27,-14,-7,-10
14:14:09:802132,-1,-2,-11,-3,-2,5,-16,-6
14:14:09:802820,-1,-2,-11,-3,-2,5,-16,-6
14:14:09:808768,0,1,5,6,41,13,-2,0
14:14:09:824942,-4,0,3,-6,3,-8,3,-1
14:14:09:825807,-4,0,3,-6,3,-8,3,-1
14:14:09:831375,-3,0,-2,-12,-21,-11,-6,-7
14:14:09:839556,2,-2,2,5,-3,-3,1,9
14:14:09:840389,2,-2,2,5,-3,-3,1,9
14:14:09:854357,3,-8,-8,10,4,17,12,7
14:14:09:862036,5,7,4,-8,-8,4,7,8
14:14:09:862797,5,7,4,-8,-8,4,7,8
14:14:09:868901,-7,2,1,-5,-13,-15,1,0
14:14:09:885094,-4,-1,3,2,4,-10,-15,-9
14:14:09:885770,-4,-1,3,2,4,-10,-15,-9
14:14:09:891300,-3,0,-10,-12,0,14,1,8
14:14:09:899558,-2,-5,6,11,-10,-16,-8,-2
14:14:09:900280,-2,-5,6,11,-10,-16,-8,-2
14:14:09:913845,-5,-6,-3,4,14,0,-7,-10
14:14:09:922027,-1,2,0,22,31,13,13,5
14:14:09:922748,-1,2,0,22,31,13,13,5
14:14:09:928740,-1,3,-1,-3,-2,10,-14,-8
14:14:09:944467,-2,-3,-8,-17,19,-5,-1,-6
14:14:09:945267,-2,-3,-8,-17,19,-5,-1,-6
14:14:09:951368,3,-2,-1,7,11,7,7,-4
14:14:09:959470,2,10,23,4,-17,6,8,2
14:14:09:960304,2,10,23,4,-17,6,8,2
14:14:09:973764,0,-1,-3,-16,-17,-21,-2,10
14:14:09:982014,0,-1,-3,-16,-17,-21,-2,10
14:14:09:982763,-5,-8,-11,-6,-14,2,-9,-10
14:14:09:988843,-3,-5,-3,-3,-8,-13,3,-7
14:14:10:4549,-3,-5,-3,-3,-8,-13,3,-7
14:14:10:5303,5,4,3,5,38,19,35,7
14:14:10:11236,-5,-6,-12,-1,-3,-12,-20,-10
14:14:10:19555,-5,-6,-12,-1,-3,-12,-20,-10
14:14:10:20272,3,2,8,-3,-16,22,11,9
14:14:10:42600,1,2,5,-1,-6,-17,-4,1
14:14:10:43418,1,2,5,-1,-6,-17,-4,1
14:14:10:44212,-5,-3,-9,-11,-17,-19,-14,-10
14:14:10:48858,-2,-2,1,5,19,3,4,-5
14:14:10:72691,-2,-2,1,5,19,3,4,-5
14:14:10:73509,-2,-5,-2,-7,-11,-8,-1,-9
14:14:10:74327,-4,0,-7,6,-6,-2,1,0
14:14:10:79530,-4,0,-7,6,-6,-2,1,0
14:14:10:80368,-5,-2,-9,-5,-6,-21,-18,-4
14:14:10:102710,-5,-6,-7,7,-8,-6,-5,2
14:14:10:103404,-5,-6,-7,7,-8,-6,-5,2
14:14:10:104284,-4,3,0,-4,4,5,-8,2
14:14:10:108715,0,1,8,-14,-39,-11,-5,0
14:14:10:124517,0,1,8,-14,-39,-11,-5,0
14:14:10:125214,2,1,4,4,-13,18,7,-3
14:14:10:131318,5,-2,8,7,-5,-7,6,3
14:14:10:139521,5,-2,8,7,-5,-7,6,3
14:14:10:140271,2,-7,-14,-28,-22,-20,7,10
14:14:10:153798,3,-2,-2,8,8,-5,-6,-7
14:14:10:162048,3,-2,-2,8,8,-5,-6,-7
14:14:10:162742,2,4,10,19,11,12,2,5
14:14:10:168877,-4,-2,-5,-5,0,-1,-8,-1
14:14:10:184609,-4,-2,-5,-5,0,-1,-8,-1
14:14:10:185342,-7,-6,-7,-16,-4,-23,-7,-12
14:14:10:191307,1,-1,3,15,7,-1,0,13
14:14:10:199565,1,-1,3,15,7,-1,0,13
14:14:10:200226,3,-1,8,-3,-7,-22,-17,3
14:14:10:213878,4,8,5,3,54,47,36,10
14:14:10:222034,4,8,5,3,54,47,36,10
14:14:10:222780,2,-2,0,1,-3,7,13,14
14:14:10:228805,-3,-6,-3,-12,-29,-4,-5,-5
14:14:10:244502,-3,-6,-3,-12,-29,-4,-5,-5
14:14:10:245259,-4,0,1,15,17,0,-4,-10
14:14:10:251413,-2,0,2,-15,-1,-4,-1,-5
14:14:10:259416,-2,0,2,-15,-1,-4,-1,-5
14:14:10:260211,-2,-3,-14,-9,-11,-8,-10,-2
14:14:10:273801,3,2,3,12,10,11,2,7
14:14:10:290180,3,2,3,12,10,11,2,7
14:14:10:290942,3,0,-1,-7,18,-11,1,3
14:14:10:291729,-1,1,-2,3,19,0,5,8
14:14:10:304517,-1,1,-2,3,19,0,5,8
14:14:10:305289,-2,-3,-5,6,3,12,23,0
14:14:10:320189,-4,-5,-8,-14,-29,-29,-4,-5
14:14:10:320924,-4,-5,-8,-14,-29,-29,-4,-5
14:14:10:321708,0,-1,-6,1,6,-4,-16,-10
14:14:10:333860,-4,3,5,9,18,13,-1,-8
14:14:10:350250,-4,3,5,9,18,13,-1,-8
14:14:10:350968,-5,-5,-10,-16,-19,11,-17,-7
14:14:10:351751,-3,-4,-8,0,-12,-15,-16,-3
14:14:10:364507,-3,-4,-8,0,-12,-15,-16,-3
14:14:10:365310,-1,0,15,-1,-23,3,3,-6
14:14:10:371345,3,-2,-4,8,8,15,-3,-3
14:14:10:379565,3,-2,-4,8,8,15,-3,-3
14:14:10:380302,-2,-3,-7,2,-3,5,-7,-1
14:14:10:393748,-3,-1,3,-6,-3,-27,-8,-6
14:14:10:410124,-3,-1,3,-6,-3,-27,-8,-6
14:14:10:410921,0,-5,-1,-6,15,20,3,13
14:14:10:411728,1,3,-6,-11,12,13,-3,-3
14:14:10:424515,1,3,-6,-11,12,13,-3,-3
14:14:10:425267,-1,7,3,-3,-19,-5,2,-1
14:14:10:439177,-1,1,-3,6,8,2,-5,-4
14:14:10:447107,-1,1,-3,6,8,2,-5,-4
14:14:10:447803,-3,-8,-3,-4,-1,-7,1,0
14:14:10:453775,-1,1,6,-5,-19,-3,4,4
14:14:10:462083,-1,1,6,-5,-19,-3,4,4
14:14:10:462822,-2,5,2,3,0,-9,-2,-1
14:14:10:468907,-4,-5,-9,23,30,16,0,-1
14:14:10:484553,-4,-5,-9,23,30,16,0,-1
14:14:10:485323,0,-4,-5,10,-7,-13,-3,-8
14:14:10:491270,2,2,5,-3,6,2,-7,-4
14:14:10:499559,2,2,5,-3,6,2,-7,-4
14:14:10:500258,-2,-3,-6,7,24,23,6,-2
14:14:10:513874,0,-3,7,4,1,1,2,6
14:14:10:522008,0,-3,7,4,1,1,2,6
14:14:10:522800,-3,-4,-3,9,-10,-14,-2,-6
14:14:10:528827,-2,9,19,-17,-18,7,-7,-7
14:14:10:544514,-2,9,19,-17,-18,7,-7,-7
14:14:10:545299,1,0,0,-11,7,-5,7,5
14:14:10:551303,3,-3,-3,-3,-15,-27,5,-2
14:14:10:567058,3,-3,-3,-3,-15,-27,5,-2
14:14:10:567803,3,5,3,12,5,9,12,9
14:14:10:573761,-5,-2,-5,-18,-17,3,-1,3
14:14:10:581998,-5,-2,-5,-18,-17,3,-1,3
14:14:10:582804,-7,-6,-1,-1,1,-27,-14,-1
14:14:10:596252,1,-8,-6,-13,2,-8,6,-8
14:14:10:604517,1,-8,-6,-13,2,-8,6,-8
14:14:10:605298,-3,1,-2,17,3,0,-7,-7
14:14:10:611277,-3,-2,-3,2,-6,8,4,-8
14:14:10:619585,-3,-2,-3,2,-6,8,4,-8
14:14:10:620300,3,8,7,-4,3,28,2,-4
14:14:10:633828,-1,-3,-12,22,-11,-2,-5,-1
14:14:10:641980,-1,-3,-12,22,-11,-2,-5,-1
14:14:10:642767,-1,-1,3,-2,-8,-18,-19,-3
14:14:10:656265,-1,2,-3,-17,-8,9,-8,-3
14:14:10:664569,-1,2,-3,-17,-8,9,-8,-3
14:14:10:665318,-2,-4,-8,-21,-21,-17,-7,3
14:14:10:671309,0,-4,-4,-10,8,1,5,7
14:14:10:686998,0,-4,-4,-10,8,1,5,7
14:14:10:687780,2,-4,-5,-12,2,-5,7,0
14:14:10:693735,2,6,2,2,-1,0,17,6
14:14:10:702073,2,6,2,2,-1,0,17,6
14:14:10:702755,-6,-4,-3,5,3,5,-5,-10
14:14:10:716390,-4,-11,-4,-8,-12,-6,-16,-12
14:14:10:724513,-4,-11,-4,-8,-12,-6,-16,-12
14:14:10:725285,1,-4,-5,-3,3,-2,4,2
14:14:10:731299,-3,1,1,5,12,31,9,-3
14:14:10:738838,-3,1,1,5,12,31,9,-3
14:14:10:746357,0,4,8,-2,-2,-3,0,-4
14:14:10:753829,-3,-4,1,16,-9,-10,-10,-5
14:14:10:761997,-3,-4,1,16,-9,-10,-10,-5
14:14:10:762756,0,3,-2,-11,1,23,13,-3
14:14:10:776227,-2,0,1,-18,-14,-20,-1,0
14:14:10:784587,-2,0,1,-18,-14,-20,-1,0
14:14:10:785286,-2,0,-4,2,-8,2,-15,-2
14:14:10:791269,-1,1,0,5,2,-15,-1,-2
14:14:10:798867,-1,1,0,5,2,-15,-1,-2
14:14:10:806261,-4,-6,-1,-6,-16,-29,-7,0
14:14:10:813877,1,-2,-6,-9,-2,-7,-2,5
14:14:10:822056,1,-2,-6,-9,-2,-7,-2,5
14:14:10:822825,-1,-2,0,10,2,22,8,3
14:14:10:836376,-4,-3,-2,1,-3,0,-7,4
14:14:10:844549,-4,-3,-2,1,-3,0,-7,4
14:14:10:845263,-1,0,1,6,9,-6,-12,2
14:14:10:851320,0,2,2,19,-4,-7,-12,0
14:14:10:858836,0,2,2,19,-4,-7,-12,0
14:14:10:874463,1,-3,0,-3,-14,-20,1,-2
14:14:10:875207,4,4,4,-4,9,-2,11,22
14:14:10:882040,4,4,4,-4,9,-2,11,22
14:14:10:882805,3,-5,3,6,6,15,-1,5
14:14:10:905137,0,-4,-4,-6,0,8,10,-5
14:14:10:905915,0,-4,-4,-6,0,8,10,-5
14:14:10:906744,-1,1,-3,-10,10,-9,-9,9
14:14:10:911275,-1,-3,-10,-26,-9,-15,-13,-7
14:14:10:918953,-1,-3,-10,-26,-9,-15,-13,-7
14:14:10:934447,-2,-1,-7,2,3,1,3,-7
14:14:10:935229,-1,-1,-4,14,9,-6,-4,-2
14:14:10:941959,-1,-1,-4,14,9,-6,-4,-2
14:14:10:942758,-8,-4,-17,-9,-14,-27,-13,-6
14:14:10:965192,3,-2,-10,3,7,9,-4,0
14:14:10:965928,3,-2,-10,3,7,9,-4,0
14:14:10:966827,4,3,4,8,2,24,25,4
14:14:10:971370,0,-2,2,-18,-15,3,2,-8
14:14:10:978771,0,-2,2,-18,-15,3,2,-8
14:14:10:994444,-4,2,6,-7,-21,-7,8,-11
14:14:10:995252,1,4,13,5,0,21,28,8
14:14:11:2186,1,4,13,5,0,21,28,8
14:14:11:2806,-2,-1,-2,3,6,3,3,-4
14:14:11:16398,-4,-4,-3,10,4,-5,-1,-5
14:14:11:24545,-4,-4,-3,10,4,-5,-1,-5
14:14:11:25271,3,4,8,10,12,14,4,0
14:14:11:31412,-3,-1,1,-13,-1,-2,-4,-4
14:14:11:38911,-3,-1,1,-13,-1,-2,-4,-4
14:14:11:46361,-2,-4,0,5,11,-2,-8,-9
14:14:11:53773,-3,-2,-10,0,-6,-11,-10,-10
14:14:11:62027,-3,-2,-10,0,-6,-11,-10,-10
14:14:11:62806,-5,-4,-9,-10,-7,6,-2,-1
14:14:11:76275,-1,-4,-4,0,-13,-2,7,1
14:14:11:84626,-1,-4,-4,0,-13,-2,7,1
14:14:11:85322,6,5,-4,2,5,7,0,6
14:14:11:91291,-3,-4,-1,16,31,0,7,7
14:14:11:98809,-3,-4,-1,16,31,0,7,7
14:14:11:106324,-2,-5,4,2,0,-12,-1,-1
14:14:11:113895,-2,-1,-2,6,-2,32,4,0
14:14:11:122089,-2,-1,-2,6,-2,32,4,0
14:14:11:122876,-1,1,-1,-7,7,-5,-17,-4
14:14:11:136412,-2,-3,-5,-8,-9,-33,-17,-3
14:14:11:144303,-2,-3,-5,-8,-9,-33,-17,-3
14:14:11:152136,-2,-3,-2,-3,-16,8,7,-5
14:14:11:152741,1,2,0,3,14,12,13,1
14:14:11:158815,1,2,0,3,14,12,13,1
14:14:11:166286,1,1,2,-11,-6,-13,-10,1
14:14:11:182690,3,4,7,-2,2,3,0,5
14:14:11:183471,3,4,7,-2,2,3,0,5
14:14:11:184307,-3,-2,-4,3,6,-17,4,1
14:14:11:196491,2,2,5,3,11,0,20,11
14:14:11:212643,2,2,5,3,11,0,20,11
14:14:11:213508,-1,0,-1,-17,-34,-11,-16,-8
14:14:11:214291,0,2,2,0,14,11,-18,1
14:14:11:218926,0,2,2,0,14,11,-18,1
14:14:11:226332,2,-2,-5,-2,6,16,21,9
14:14:11:242644,-3,-7,-10,-12,-9,-1,-8,-6
14:14:11:243474,-3,-7,-10,-12,-9,-1,-8,-6
14:14:11:244253,2,3,-2,2,-11,11,-8,12
14:14:11:256284,-6,-4,5,-11,-15,-14,-14,-1
14:14:11:264585,-6,-4,5,-11,-15,-14,-14,-1
14:14:11:265294,-7,-3,4,8,22,-9,4,-10
14:14:11:271300,3,5,1,13,17,24,6,-5
14:14:11:278890,3,5,1,13,17,24,6,-5
14:14:11:286367,-2,-1,-4,-13,-10,-15,-5,3
14:14:11:293816,-2,-1,8,10,-3,-34,8,-11
14:14:11:302125,-2,-1,8,10,-3,-34,8,-11
14:14:11:302785,1,-2,0,-6,-19,-10,8,-7
14:14:11:316334,-2,-3,-4,-5,-11,-1,-16,-5
14:14:11:324494,-2,-3,-4,-5,-11,-1,-16,-5
14:14:11:325263,-5,-5,-1,7,10,18,1,-4
14:14:11:331315,2,-1,-7,9,0,1,23,7
14:14:11:338866,2,-1,-7,9,0,1,23,7
14:14:11:346302,-1,2,8,-5,-7,-11,1,0
14:14:11:353780,-4,0,3,-9,-17,-13,-16,-8
14:14:11:361965,-4,0,3,-9,-17,-13,-16,-8
14:14:11:362761,3,-2,2,16,28,25,6,1
14:14:11:376275,-2,-4,1,-8,-11,-6,-14,-10
14:14:11:384550,-2,-4,1,-8,-11,-6,-14,-10
14:14:11:385346,-1,-4,-3,10,13,1,-3,-1
14:14:11:391364,-5,-2,-13,-2,0,10,9,4
14:14:11:398902,-5,-2,-13,-2,0,10,9,4
14:14:11:406320,-3,-4,0,8,0,-17,2,0
14:14:11:413916,1,1,0,9,-10,-16,-4,-7
14:14:11:422053,1,1,0,9,-10,-16,-4,-7
14:14:11:422736,3,5,4,4,4,9,1,-2
14:14:11:436410,2,-2,-6,-23,11,19,-5,12
14:14:11:444563,2,-2,-6,-23,11,19,-5,12
14:14:11:445253,-2,-2,3,12,16,8,-10,-2
14:14:11:451405,-2,-4,-6,-7,-7,-12,-19,-6
14:14:11:458785,-2,-4,-6,-7,-7,-12,-19,-6
14:14:11:466358,-2,3,7,-11,-12,13,13,6
14:14:11:473782,1,1,-2,1,-7,-7,-6,-2
14:14:11:482067,1,1,-2,1,-7,-7,-6,-2
14:14:11:482789,-2,1,8,-1,-13,-9,-7,-7
14:14:11:496287,0,2,11,18,24,35,18,6
14:14:11:504485,0,2,11,18,24,35,18,6
14:14:11:505317,-3,-3,-3,26,6,-31,-10,-9
14:14:11:511266,3,4,5,3,0,-9,2,-3
14:14:11:518976,3,4,5,3,0,-9,2,-3
14:14:11:526299,-7,-9,-18,-16,3,9,-1,7
14:14:11:533862,-3,-6,-4,-4,-10,7,-5,-2
14:14:11:541980,-3,-6,-4,-4,-10,7,-5,-2
14:14:11:542755,1,-3,-4,-13,5,8,1,0
14:14:11:556289,-5,-2,-6,-7,-9,0,-11,-2
14:14:11:564568,-5,-2,-6,-7,-9,0,-11,-2
14:14:11:565332,0,0,4,2,-14,9,0,-5
14:14:11:571278,1,3,3,-9,-15,-14,-2,-4
14:14:11:578884,1,3,3,-9,-15,-14,-2,-4
14:14:11:586375,1,-3,-6,8,25,5,1,1
14:14:11:602694,-2,-2,0,-1,-21,-18,-7,-6
14:14:11:603451,-2,-2,0,-1,-21,-18,-7,-6
14:14:11:604247,-2,0,-1,27,-1,4,-3,1
14:14:11:616351,-10,-16,-21,-14,13,1,-2,-1
14:14:11:632694,-10,-16,-21,-14,13,1,-2,-1
14:14:11:633412,0,-4,-11,-16,-9,-5,-3,0
14:14:11:634228,4,6,6,17,16,-10,-1,-3
14:14:11:638821,4,6,6,17,16,-10,-1,-3
14:14:11:646303,0,-1,2,-9,-18,-16,3,3
14:14:11:670192,-3,-2,-3,-27,-28,-8,-9,-8
14:14:11:670949,-3,-2,-3,-27,-28,-8,-9,-8
14:14:11:671787,1,-2,-8,-2,18,21,27,2
14:14:11:676257,0,2,0,-10,-4,6,2,-1
14:14:11:684549,0,2,0,-10,-4,6,2,-1
14:14:11:685313,-1,0,-3,-33,-25,-13,-17,-7
14:14:11:700009,0,1,7,17,19,3,11,4
14:14:11:700759,0,1,7,17,19,3,11,4
14:14:11:706257,-2,-6,-1,33,28,-16,-5,-1
14:14:11:713868,2,14,-1,4,-6,-3,-4,-1
14:14:11:721381,2,14,-1,4,-6,-3,-4,-1
14:14:11:728835,-1,7,12,-10,-18,6,-2,0
14:14:11:736413,-3,-6,-4,25,24,-8,-2,-2
14:14:11:744536,-3,-6,-4,25,24,-8,-2,-2
14:14:11:745344,-5,-4,-13,-33,-26,-16,-12,-1
14:14:11:759225,1,-4,2,-16,-15,13,1,2
14:14:11:767066,1,-4,2,-16,-15,13,1,2
14:14:11:767796,-3,-3,1,27,17,-13,-14,-6
14:14:11:773824,1,-6,-4,49,30,-13,3,-2
14:14:11:781359,1,-6,-4,49,30,-13,3,-2
14:14:11:797096,-1,-1,-5,-24,-27,10,4,-1
14:14:11:797763,3,7,11,5,-21,8,4,3
14:14:11:804490,3,7,11,5,-21,8,4,3
14:14:11:805317,-1,10,7,11,17,-10,-4,-1
14:14:11:819617,-9,-10,-5,-41,-35,-32,-21,-5
14:14:11:820323,-9,-10,-5,-41,-35,-32,-21,-5
14:14:11:826315,8,5,2,4,8,20,13,8
14:14:11:833889,0,2,4,27,21,1,-6,-2
14:14:11:841367,0,2,4,27,21,1,-6,-2
14:14:11:848888,0,-6,-1,-9,-10,-5,-1,-2
14:14:11:856297,0,-1,-2,3,5,12,10,4
14:14:11:864533,0,-1,-2,3,5,12,10,4
14:14:11:865256,-4,-2,3,8,-7,0,1,1
14:14:11:879511,-3,0,-9,-12,-12,-5,9,1
14:14:11:880312,-3,0,-9,-12,-12,-5,9,1
14:14:11:886392,0,0,-3,10,6,4,-2,0
14:14:11:893784,-2,-5,-4,-11,3,0,4,0
14:14:11:901409,-2,-5,-4,-11,3,0,4,0
14:14:11:908780,-1,-2,-4,-11,-4,-15,-11,-7
14:14:11:916433,0,-7,-4,3,10,7,0,-12
14:14:11:924540,0,-7,-4,3,10,7,0,-12
14:14:11:925244,0,-2,4,-4,-12,17,6,-8
14:14:11:939484,-2,2,4,-7,-13,-24,-37,-3
14:14:11:940280,-2,2,4,-7,-13,-24,-37,-3
14:14:11:946287,-2,2,3,-11,-2,17,-1,5
14:14:11:953748,1,0,-3,-18,-10,21,33,9
14:14:11:961364,1,0,-3,-18,-10,21,33,9
14:14:11:968911,-2,-1,-2,-4,-16,-28,-12,-3
14:14:11:976253,0,-2,-3,-19,-15,-19,-26,-9
14:14:11:984610,0,-2,-3,-19,-15,-19,-26,-9
14:14:11:985345,1,-1,2,-3,10,0,-6,-1
14:14:11:999600,-4,-7,-4,-9,-18,-22,0,-1
14:14:12:313,-4,-7,-4,-9,-18,-22,0,-1
14:14:12:6254,3,0,-6,0,14,-3,-2,0
14:14:12:13878,-3,0,-1,6,11,6,-1,-2
14:14:12:21358,-3,0,-1,6,11,6,-1,-2
14:14:12:28819,0,-2,-4,-6,-5,13,6,-4
14:14:12:36353,-4,-2,-4,-14,-15,-2,14,-12
14:14:12:44521,-4,-2,-4,-14,-15,-2,14,-12
14:14:12:45281,-2,-3,2,17,12,-32,-9,1
14:14:12:59961,3,6,0,8,20,7,-32,3
14:14:12:60778,3,6,0,8,20,7,-32,3
14:14:12:66345,1,-1,-5,-3,-8,24,30,4
14:14:12:73804,-1,-4,-2,9,1,-1,5,4
14:14:12:81398,-1,-4,-2,9,1,-1,5,4
14:14:12:88807,-3,-3,-3,-19,-11,-10,-10,-4
14:14:12:96308,4,1,-1,8,16,23,12,0
14:14:12:104498,4,1,-1,8,16,23,12,0
14:14:12:105233,-4,0,0,-2,-13,-18,-18,-9
14:14:12:119580,-1,4,0,9,24,14,10,1
14:14:12:120330,-1,4,0,9,24,14,10,1
14:14:12:126280,4,1,3,1,3,16,9,5
14:14:12:133932,0,0,2,6,11,-6,-2,3
14:14:12:141376,0,0,2,6,11,-6,-2,3
14:14:12:148797,-3,-2,-6,-2,2,-5,-7,-5
14:14:12:156292,-2,-3,-2,-3,10,11,-13,1
14:14:12:164538,-2,-3,-2,-3,10,11,-13,1
14:14:12:165244,-1,2,2,6,19,4,11,2
14:14:12:179458,-3,-3,2,-6,-7,7,33,0
14:14:12:180246,-3,-3,2,-6,-7,7,33,0
14:14:12:186423,-5,-5,-9,-9,-13,-26,-31,-12
14:14:12:193792,4,3,3,11,7,10,8,6
14:14:12:201424,4,3,3,11,7,10,8,6
14:14:12:208780,-2,-2,-4,-1,-9,-1,10,3
14:14:12:216466,1,0,-2,-18,-24,-4,-2,-6
14:14:12:224541,1,0,-2,-18,-24,-4,-2,-6
14:14:12:225263,-2,-4,-4,4,18,5,8,7
14:14:12:240177,-2,1,0,11,3,5,-5,2
14:14:12:240977,-2,1,0,11,3,5,-5,2
14:14:12:246300,-1,-4,-4,-12,-27,-10,-9,-7
14:14:12:253784,-1,-3,-4,-5,5,-8,0,-3
14:14:12:261325,-1,-3,-4,-5,5,-8,0,-3
14:14:12:276970,0,4,4,8,45,17,1,1
14:14:12:277723,-2,-3,3,-8,-16,-15,-20,-5
14:14:12:284594,-2,-3,3,-8,-16,-15,-20,-5
14:14:12:285321,-2,-5,0,-3,-9,-13,-15,-2
14:14:12:307676,0,-4,-8,-4,-9,-6,7,1
14:14:12:308446,0,-4,-8,-4,-9,-6,7,1
14:14:12:309246,0,1,-3,-9,-15,21,0,0
14:14:12:313869,0,-1,9,7,17,1,0,2
14:14:12:321421,0,-1,9,7,17,1,0,2
14:14:12:328815,1,3,2,-5,8,0,-3,-3
14:14:12:336355,-6,0,-1,-10,-9,-15,-7,-2
14:14:12:352096,-6,0,-1,-10,-9,-15,-7,-2
14:14:12:352794,-1,0,-4,-16,-5,2,3,1
14:14:12:359465,-1,-2,2,4,0,-11,-2,-5
14:14:12:360301,-1,-2,2,4,0,-11,-2,-5
14:14:12:366357,-4,-2,-1,5,-2,-5,-2,-7
14:14:12:381995,3,-1,3,-2,27,1,2,-6
14:14:12:382797,3,-1,3,-2,27,1,2,-6
14:14:12:388799,1,-3,-7,-5,-5,-10,1,-1
14:14:12:396316,-5,-3,-10,-6,-17,-17,-7,0
14:14:12:404537,-5,-3,-10,-6,-17,-17,-7,0
14:14:12:405310,0,3,5,16,16,17,11,5
14:14:12:419589,-1,-3,-2,3,-9,10,7,1
14:14:12:420292,-1,-3,-2,3,-9,10,7,1
14:14:12:426267,0,-2,-1,-6,-9,-10,1,-1
14:14:12:433909,-3,-3,1,4,0,-9,-18,-4
14:14:12:441370,-3,-3,1,4,0,-9,-18,-4
14:14:12:448824,-5,-3,-3,-10,-17,18,17,2
14:14:12:456275,1,2,-3,0,-9,-14,-4,7
14:14:12:464557,1,2,-3,0,-9,-14,-4,7
14:14:12:465285,2,0,1,0,-14,-18,-7,1
14:14:12:479449,-4,2,-3,-1,-5,8,3,-9
14:14:12:480280,-4,2,-3,-1,-5,8,3,-9
14:14:12:486361,-3,-2,-4,-7,-9,-7,-11,-3
14:14:12:493780,-2,-6,-1,-7,-4,5,1,2
14:14:12:501394,-2,-6,-1,-7,-4,5,1,2
14:14:12:508795,-2,-2,-6,5,8,5,7,-3
14:14:12:525105,5,1,3,23,13,12,0,2
14:14:12:525933,5,1,3,23,13,12,0,2
14:14:12:526724,0,0,0,0,-7,-9,1,0
14:14:12:539541,-2,-4,-5,-10,6,-8,4,0
14:14:12:540333,-2,-4,-5,-10,6,-8,4,0
14:14:12:554465,2,3,5,6,13,-3,-20,-3
14:14:12:555213,2,-3,-5,-10,-23,-8,-12,-9
14:14:12:561355,2,-3,-5,-10,-23,-8,-12,-9
14:14:12:568880,0,-1,6,11,7,6,2,8
14:14:12:576289,-6,-2,-3,-1,3,11,9,-1
14:14:12:584594,-6,-2,-3,-1,3,11,9,-1
14:14:12:585280,2,1,-3,6,-2,-3,6,-1
14:14:12:600040,-2,3,3,-7,-10,-12,-13,-2
14:14:12:600760,-2,3,3,-7,-10,-12,-13,-2
14:14:12:606282,0,-5,-2,-5,-11,-10,-12,-4
14:14:12:622057,0,4,0,-3,9,12,1,1
14:14:12:622829,0,4,0,-3,9,12,1,1
14:14:12:628826,-3,-5,1,14,29,27,11,1
14:14:12:636345,0,-1,0,-16,-8,1,7,2
14:14:12:643857,0,-1,0,-16,-8,1,7,2
14:14:12:651391,-3,-1,-2,0,-12,-21,-1,-5
14:14:12:659422,-2,-2,-1,2,-1,5,0,0
14:14:12:660204,-2,-2,-1,2,-1,5,0,0
14:14:12:666335,0,-2,-5,-1,3,-3,-1,0
14:14:12:682017,1,0,-4,0,-4,0,0,-3
14:14:12:682815,1,0,-4,0,-4,0,0,-3
14:14:12:688835,-5,1,-1,0,0,2,4,-2
14:14:12:696367,-2,-1,-6,-7,-1,-5,-1,-1
14:14:12:703935,-2,-1,-6,-7,-1,-5,-1,-1
14:14:12:711296,1,0,-1,-5,-1,-5,-2,-2
14:14:12:719497,-1,-4,5,2,5,5,4,3
14:14:12:720292,-1,-4,5,2,5,5,4,3
14:14:12:726294,-2,-6,-3,-16,-18,-17,-7,-2
14:14:12:741981,1,-5,1,18,13,-1,4,-2
14:14:12:742791,1,-5,1,18,13,-1,4,-2
14:14:12:748804,-2,1,-2,-5,-4,5,-1,1
14:14:12:756283,-3,-1,1,-11,-3,-5,-3,2
14:14:12:772047,-3,-1,1,-11,-3,-5,-3,2
14:14:12:772817,-1,1,-4,-3,0,0,0,-3
14:14:12:779509,-1,0,-1,-1,2,6,2,-3
14:14:12:780233,-1,0,-1,-1,2,6,2,-3
14:14:12:786344,-1,-1,3,-7,8,8,13,0
14:14:12:802046,-1,-3,-3,-8,-12,-5,-6,0
14:14:12:802791,-1,-3,-3,-8,-12,-5,-6,0
14:14:12:808771,2,-2,1,32,31,6,0,3
14:14:12:816337,1,5,-4,1,0,-1,-2,3
14:14:12:823836,1,5,-4,1,0,-1,-2,3
14:14:12:831341,-4,0,-9,0,-9,-13,-7,-2
14:14:12:839513,0,6,-4,4,-3,2,2,0
14:14:12:840331,0,6,-4,4,-3,2,2,0
14:14:12:846274,0,-3,-2,4,9,-4,0,-1
14:14:12:862013,-3,0,4,-6,-1,3,0,-3
14:14:12:862778,-3,0,4,-6,-1,3,0,-3
14:14:12:868856,-1,-4,-3,-12,-9,-5,-6,-6
14:14:12:876275,-1,-5,-1,-2,-10,-4,-3,0
14:14:12:883893,-1,-5,-1,-2,-10,-4,-3,0
14:14:12:891256,1,-1,-1,-13,-9,3,-2,2
14:14:12:899549,-4,-1,-1,2,-2,-6,0,-4
14:14:12:900288,-4,-1,-1,2,-2,-6,0,-4
14:14:12:906302,-1,0,-1,-4,-8,-2,-2,-3
14:14:12:921985,-1,-4,-11,-6,-5,-2,-2,-1
14:14:12:922788,-1,-4,-11,-6,-5,-2,-2,-1
14:14:12:928777,-1,-1,10,-6,1,9,3,1
14:14:12:936395,5,0,3,3,-2,-6,-5,-1
14:14:12:943822,5,0,3,3,-2,-6,-5,-1
14:14:12:951378,0,4,15,4,-4,-4,-2,-2
14:14:12:959489,1,10,0,6,8,4,-1,1
14:14:12:960293,1,10,0,6,8,4,-1,1
14:14:12:966365,-5,-4,-4,5,0,7,-1,0
14:14:12:982016,0,4,5,-5,-12,-15,-8,-3
14:14:12:982786,0,4,5,-5,-12,-15,-8,-3
14:14:12:988792,2,3,1,-3,-4,-3,1,-1
14:14:12:996319,-2,-6,-7,-6,-2,1,3,-3
14:14:13:3875,-2,-6,-7,-6,-2,1,3,-3
14:14:13:11297,0,-4,-7,1,-2,1,-2,-2
14:14:13:19625,-5,-6,-8,1,10,4,0,-2
14:14:13:20320,-5,-6,-8,1,10,4,0,-2
14:14:13:26302,0,3,2,0,-6,-4,-5,-3
14:14:13:41993,0,-1,9,13,6,10,0,0
14:14:13:42824,0,-1,9,13,6,10,0,0
14:14:13:48867,-1,3,-10,-13,-21,-8,-1,-1
14:14:13:56286,-3,-5,0,0,-8,0,2,2
14:14:13:63978,-3,-5,0,0,-8,0,2,2
14:14:13:71335,0,3,2,-3,3,-4,-5,-1
14:14:13:79527,-2,-5,1,-1,3,-6,0,0
14:14:13:80269,-2,-5,1,-1,3,-6,0,0
14:14:13:86374,1,0,22,-10,-14,-2,-2,0
14:14:13:102064,-1,3,-1,-8,3,-8,-2,0
14:14:13:102782,-1,3,-1,-8,3,-8,-2,0
14:14:13:108737,-2,1,20,26,24,21,15,1
14:14:13:116398,-5,-17,-20,-32,-27,-13,-9,-9
14:14:13:123825,-5,-17,-20,-32,-27,-13,-9,-9
14:14:13:131351,-2,-3,9,14,19,5,-5,2
14:14:13:139510,-6,0,21,39,3,-4,-5,0
14:14:13:140332,-6,0,21,39,3,-4,-5,0
14:14:13:146361,2,-3,-10,-6,-2,-7,-1,-1
14:14:13:161954,3,1,-6,-15,-11,-6,-3,2
14:14:13:162720,3,1,-6,-15,-11,-6,-3,2
14:14:13:168915,-1,1,-16,15,-5,0,-1,-3
14:14:13:176278,1,4,-18,9,-3,7,1,1
14:14:13:183905,1,4,-18,9,-3,7,1,1
14:14:13:191252,-6,-12,-45,-55,-21,-4,-3,-6
14:14:13:199610,3,5,17,-16,8,10,7,3
14:14:13:200293,3,5,17,-16,8,10,7,3
14:14:13:206292,4,5,9,-10,1,-12,-13,-2
14:14:13:222009,-3,2,13,-9,-5,-8,0,-15
14:14:13:222793,-3,2,13,-9,-5,-8,0,-15
14:14:13:228791,2,-10,-44,-29,-5,-3,-12,-2
14:14:13:236397,3,-6,9,6,5,-9,-18,-3
14:14:13:243842,3,-6,9,6,5,-9,-18,-3
14:14:13:251337,0,5,37,32,8,5,36,3
14:14:13:259460,-3,-3,-8,2,0,9,10,1
14:14:13:260258,-3,-3,-8,2,0,9,10,1
14:14:13:266340,-5,-1,16,9,6,0,-18,0
14:14:13:282083,-5,-1,16,9,6,0,-18,0
14:14:13:282751,-1,5,6,6,18,19,16,5
14:14:13:288790,-1,0,-12,-2,1,-8,-8,-3
14:14:13:304487,-1,0,-12,-2,1,-8,-8,-3
14:14:13:305282,-2,-5,18,9,-6,-9,-7,-6
14:14:13:311261,3,-4,3,14,-5,-6,-2,-1
14:14:13:319572,3,-4,3,14,-5,-6,-2,-1
14:14:13:320266,0,-1,-16,-20,-1,3,-2,4
14:14:13:326251,-6,1,4,5,2,1,2,0
14:14:13:341993,-6,1,4,5,2,1,2,0
14:14:13:342767,0,-2,-6,3,5,0,6,6
14:14:13:348821,8,3,-6,19,7,3,-27,5
14:14:13:364541,8,3,-6,19,7,3,-27,5
14:14:13:365258,-1,-1,-12,-3,-6,-10,-4,-5
14:14:13:371366,-6,-4,6,-5,-12,-1,5,-1
14:14:13:379534,-6,-4,6,-5,-12,-1,5,-1
14:14:13:380336,-6,0,3,-14,-13,-7,-11,0
14:14:13:386366,-1,-4,-11,-5,13,6,6,1
14:14:13:402277,-1,-4,-11,-5,13,6,6,1
14:14:13:402781,-1,-2,-7,-2,-2,0,3,0
14:14:13:408757,-2,0,0,-3,3,-1,8,-1
14:14:13:424559,-2,0,0,-3,3,-1,8,-1
14:14:13:425288,2,-4,-4,4,4,-5,-1,-2
14:14:13:431376,-2,1,1,0,3,10,9,1
14:14:13:439533,-2,1,1,0,3,10,9,1
14:14:13:440348,-3,-2,-3,3,2,8,-16,-5
14:14:13:446292,3,7,3,-13,-9,-2,24,2
14:14:13:461988,3,7,3,-13,-9,-2,24,2
14:14:13:462745,2,0,-1,7,6,0,-2,0
14:14:13:468943,1,0,3,-2,-15,-15,-22,-5
14:14:13:484550,1,0,3,-2,-15,-15,-22,-5
14:14:13:485275,-1,0,-5,-1,-8,7,58,7
14:14:13:491271,-3,-5,-1,4,7,4,16,2
14:14:13:499549,-3,-5,-1,4,7,4,16,2
14:14:13:500281,-1,-4,-2,-15,-10,-10,-14,-1
14:14:13:506326,-2,-4,0,-8,-1,-1,-10,-3
14:14:13:522053,-2,-4,0,-8,-1,-1,-10,-3
14:14:13:522817,-4,-1,-1,6,19,0,-10,-3
14:14:13:528808,-2,-1,-2,3,5,1,-8,-2
14:14:13:544509,-2,-1,-2,3,5,1,-8,-2
14:14:13:545325,1,4,1,-6,-8,0,2,0
14:14:13:551339,0,-1,-2,8,-3,2,3,-2
14:14:13:559446,0,-1,-2,8,-3,2,3,-2
14:14:13:560239,-1,1,-4,-1,-6,-12,-14,-9
14:14:13:573788,-2,2,-3,-5,-2,5,-12,-2
14:14:13:582070,-2,2,-3,-5,-2,5,-12,-2
14:14:13:582799,-3,-6,-1,6,3,4,1,3
14:14:13:588795,-1,-4,-2,-5,-7,-3,2,1
14:14:13:604540,-1,-4,-2,-5,-7,-3,2,1
14:14:13:605272,3,1,1,5,9,0,0,6
14:14:13:611305,-1,3,-5,-2,2,-6,10,1
14:14:13:619623,-1,3,-5,-2,2,-6,10,1
14:14:13:620311,0,-3,1,-2,-5,-1,-9,-6
14:14:13:633905,0,3,0,-1,-9,-15,-22,-3
14:14:13:641995,0,3,0,-1,-9,-15,-22,-3
14:14:13:642794,-6,-7,-3,-6,-15,-19,0,-5
14:14:13:648788,-4,-9,-1,0,1,-6,-10,-8
14:14:13:664613,-4,-9,-1,0,1,-6,-10,-8
14:14:13:665306,3,9,-1,-4,-3,-17,20,0
14:14:13:671331,0,-5,-2,-2,-3,43,30,1
14:14:13:679571,0,-5,-2,-2,-3,43,30,1
14:14:13:680368,5,9,3,7,-14,3,-32,1
14:14:13:693780,-6,1,-2,4,9,16,1,2
14:14:13:702079,-6,1,-2,4,9,16,1,2
14:14:13:702753,-5,-7,-9,-8,-9,-4,1,-7
14:14:13:708745,3,6,3,1,4,-7,-4,-11
14:14:13:724575,3,6,3,1,4,-7,-4,-11
14:14:13:725295,-3,-2,2,6,7,-3,6,2
14:14:13:731350,-4,4,-1,-5,-14,-13,-10,1
14:14:13:739553,-4,4,-1,-5,-14,-13,-10,1
14:14:13:740319,-5,-6,-3,-4,2,8,-7,-2
14:14:13:753840,2,-3,-3,14,1,-3,4,0
14:14:13:762031,2,-3,-3,14,1,-3,4,0
14:14:13:762771,2,1,1,-3,3,11,-7,0
14:14:13:768860,-1,-10,-1,-10,16,-23,22,9
14:14:13:784539,-1,-10,-1,-10,16,-23,22,9
14:14:13:785343,2,1,0,3,24,18,11,2
14:14:13:791294,-4,0,-6,-4,-7,-6,-5,-6
14:14:13:799563,-4,0,-6,-4,-7,-6,-5,-6
14:14:13:800304,-2,-3,-1,2,-1,2,6,-3
14:14:13:813884,1,-2,-5,-2,-9,-10,-11,-2
14:14:13:822036,1,-2,-5,-2,-9,-10,-11,-2
14:14:13:822794,-3,-4,-5,-4,-5,2,-17,-4
14:14:13:828797,-4,0,1,2,-1,0,7,2
14:14:13:844531,-4,0,1,2,-1,0,7,2
14:14:13:845257,1,0,0,-1,1,-4,-6,-1
14:14:13:851342,0,-5,-1,-4,-5,-2,-14,-3
14:14:13:859507,0,-5,-1,-4,-5,-2,-14,-3
14:14:13:860295,1,-2,-1,8,14,9,-1,-2
14:14:13:873838,-2,3,-3,-6,-11,-5,0,-5
14:14:13:882047,-2,3,-3,-6,-11,-5,0,-5
14:14:13:882778,1,-3,0,-6,-5,-13,-10,0
14:14:13:888810,-1,4,3,2,7,6,6,0
14:14:13:904498,-1,4,3,2,7,6,6,0
14:14:13:905243,-2,2,3,-6,-5,-14,-18,-3
14:14:13:911336,0,-4,-3,-2,0,5,-7,2
14:14:13:919552,0,-4,-3,-2,0,5,-7,2
14:14:13:920303,2,-5,-2,0,-4,9,-8,2
14:14:13:933908,0,-4,-1,-1,-4,-2,2,-4
14:14:13:941954,0,-4,-1,-1,-4,-2,2,-4
14:14:13:942725,1,-4,-3,-2,-2,15,24,0
14:14:13:948798,-1,3,-3,-7,-5,0,-16,-2
14:14:13:964492,-1,3,-3,-7,-5,0,-16,-2
14:14:13:965224,-2,-1,1,6,7,-1,6,-1
14:14:13:971315,-3,1,0,-2,-2,-3,-5,-1
14:14:13:987027,-3,1,0,-2,-2,-3,-5,-1
14:14:13:987819,-2,-2,-3,4,-3,0,11,1
14:14:13:993806,-1,-3,3,-5,-8,-11,-7,1
14:14:14:2044,-1,-3,3,-5,-8,-11,-7,1
14:14:14:2756,-1,1,0,4,2,0,12,-1
14:14:14:8752,2,-1,-3,-4,0,-15,-5,-3
14:14:14:24515,2,-1,-3,-4,0,-15,-5,-3
14:14:14:25308,-6,1,1,-5,-20,-14,-24,-5
14:14:14:31331,3,-2,1,2,12,10,10,5
14:14:14:39422,3,-2,1,2,12,10,10,5
14:14:14:40264,-5,-3,3,3,12,7,-11,-2
14:14:14:53802,-1,-2,-4,14,8,5,-3,-8
14:14:14:62029,-1,-2,-4,14,8,5,-3,-8
14:14:14:62826,2,-1,-6,-5,-10,-14,-10,0
14:14:14:68858,-2,-3,5,-4,9,9,7,0
14:14:14:84556,-2,-3,5,-4,9,9,7,0
14:14:14:85368,-3,0,-1,-10,-13,-2,4,1
14:14:14:91274,-2,1,-4,1,-6,-8,2,6
14:14:14:99495,-2,1,-4,1,-6,-8,2,6
14:14:14:100294,1,-1,-4,-1,3,-8,4,-2
14:14:14:113906,3,0,-2,3,-7,-4,1,-5
14:14:14:122024,3,0,-2,3,-7,-4,1,-5
14:14:14:122762,1,1,1,-1,4,1,-6,-1
14:14:14:128792,-1,-2,-4,-8,-8,-8,-5,0
14:14:14:144542,-1,-2,-4,-8,-8,-8,-5,0
14:14:14:145279,0,-5,-4,-2,0,-2,2,-2
14:14:14:151346,-3,-2,1,-1,4,4,-13,-1
14:14:14:159480,-3,-2,1,-1,4,4,-13,-1
14:14:14:160278,-2,-2,-2,-2,7,8,11,-1
14:14:14:173825,-1,-2,-3,-1,0,1,-8,-6
14:14:14:182077,-1,-2,-3,-1,0,1,-8,-6
14:14:14:182757,1,-1,-3,-9,-6,-2,-6,3
14:14:14:188795,-3,3,0,2,2,-9,-11,-2
14:14:14:196382,-3,3,0,2,2,-9,-11,-2
14:14:14:203763,-4,-3,2,5,2,3,-15,-3
14:14:14:211282,-1,-2,1,2,2,1,3,-2
14:14:14:219565,-1,-2,1,2,2,1,3,-2
14:14:14:220300,-1,0,-1,-1,-5,-8,-9,-4
14:14:14:233886,-1,-2,0,4,7,10,12,3
14:14:14:242001,-1,-2,0,4,7,10,12,3
14:14:14:242825,0,3,2,-1,2,-5,12,0
14:14:14:248802,0,-1,-2,-7,-7,-13,1,-4
14:14:14:264596,0,-1,-2,-7,-7,-13,1,-4
14:14:14:265336,0,-2,-4,-7,-9,-3,-26,-6
14:14:14:271319,-1,-2,-3,-3,-1,-2,-11,-2
14:14:14:279573,-1,-2,-3,-3,-1,-2,-11,-2
14:14:14:280372,-2,1,1,3,-5,-5,13,-6
14:14:14:293788,-3,-2,-4,-7,-8,-1,8,1
14:14:14:302101,-3,-2,-4,-7,-8,-1,8,1
14:14:14:302810,0,-3,-4,3,7,8,4,4
14:14:14:308737,-2,-4,-1,2,-2,0,-2,-3
14:14:14:316424,-2,-4,-1,2,-2,0,-2,-3
14:14:14:323788,-3,0,3,1,-2,-6,4,4
14:14:14:331389,-1,-1,-2,-3,-4,-3,4,3
14:14:14:339506,-1,-1,-2,-3,-4,-3,4,3
14:14:14:340282,1,-3,-1,2,-3,-3,5,2
14:14:14:353839,2,2,0,1,-9,-5,-1,-5
14:14:14:362047,2,2,0,1,-9,-5,-1,-5
14:14:14:362832,-1,-1,-1,-5,-5,0,9,-1
14:14:14:368946,0,-5,-1,-9,-6,0,-19,2
14:14:14:376298,0,-5,-1,-9,-6,0,-19,2
14:14:14:383934,-4,0,-2,-3,5,1,5,-7
14:14:14:391341,0,1,0,2,4,2,14,4
14:14:14:399545,0,1,0,2,4,2,14,4
14:14:14:400334,1,-3,-4,5,11,7,-5,-3
14:14:14:413879,-3,0,-3,0,-1,-10,1,-9
14:14:14:421985,-3,0,-3,0,-1,-10,1,-9
14:14:14:422758,-2,1,-2,4,-2,0,3,2
14:14:14:428847,-3,-2,2,-1,1,0,7,1
14:14:14:436398,-3,-2,2,-1,1,0,7,1
14:14:14:443770,2,-2,0,-8,0,2,-6,0
14:14:14:451318,-2,0,0,0,2,0,-5,-3
14:14:14:459455,-2,0,0,0,2,0,-5,-3
14:14:14:460264,1,1,5,2,0,3,9,5
14:14:14:473839,1,-2,-8,-6,-8,-8,-22,-2
14:14:14:482080,1,-2,-8,-6,-8,-8,-22,-2
14:14:14:482763,-1,-2,0,4,5,10,21,11
14:14:14:488797,-2,-3,-2,1,5,-5,-16,0
14:14:14:496372,-2,-3,-2,1,5,-5,-16,0
14:14:14:503817,-2,-5,-2,-6,-2,-1,-26,-10
14:14:14:511259,3,-1,5,-5,-7,2,4,2
14:14:14:518941,3,-1,5,-5,-7,2,4,2
14:14:14:526271,-2,0,-1,3,0,1,-1,-1
14:14:14:533859,-5,0,-4,-6,-4,-3,2,-3
14:14:14:541998,-5,0,-4,-6,-4,-3,2,-3
14:14:14:542817,-3,-1,-3,-3,0,-3,3,-3
14:14:14:557016,3,0,0,5,0,2,10,-1
14:14:14:557823,3,0,0,5,0,2,10,-1
14:14:14:563846,0,2,1,-3,-5,-9,12,2
14:14:14:571302,-2,-4,2,1,3,6,4,-5
14:14:14:578895,-2,-4,2,1,3,6,4,-5
14:14:14:586332,-1,-3,-2,-5,-6,-3,-9,-5
14:14:14:593753,0,0,0,7,10,12,14,4
14:14:14:602037,0,0,0,7,10,12,14,4
14:14:14:602744,-2,2,-4,-9,-11,-12,-15,-5
14:14:14:617055,2,1,1,-1,1,0,-4,-3
14:14:14:617815,2,1,1,-1,1,0,-4,-3
14:14:14:623793,1,-2,-5,0,-3,0,15,3
14:14:14:631327,-6,-3,-4,-1,6,-2,-2,1
14:14:14:638867,-6,-3,-4,-1,6,-2,-2,1
14:14:14:646328,-1,-2,2,2,0,4,1,-1
14:14:14:653848,2,0,2,-4,-10,-9,-13,-3
14:14:14:661982,2,0,2,-4,-10,-9,-13,-3
14:14:14:662771,0,-1,3,4,5,4,-3,-2
14:14:14:676994,-3,3,-1,1,-4,-3,10,-4
14:14:14:677749,-3,3,-1,1,-4,-3,10,-4
14:14:14:683902,2,-1,-3,-2,-3,3,2,2
14:14:14:691319,1,-3,-1,0,0,-3,-15,0
14:14:14:698834,1,-3,-1,0,0,-3,-15,0
14:14:14:706296,-1,2,2,1,5,8,-3,0
14:14:14:713876,-5,0,0,2,3,-2,4,2
14:14:14:721999,-5,0,0,2,3,-2,4,2
14:14:14:722796,-2,-5,-5,-4,-5,-6,-8,-6
14:14:14:737003,-1,-2,-6,-2,-2,7,12,1
14:14:14:737803,-1,-2,-6,-2,-2,7,12,1
14:14:14:743765,-3,0,2,9,6,-1,-22,0
14:14:14:751344,-2,0,1,0,6,7,9,2
14:14:14:758822,-2,0,1,0,6,7,9,2
14:14:14:766324,-4,2,0,-4,-2,9,9,0
14:14:14:773785,-1,-1,1,-4,-2,-5,-12,-4
14:14:14:782024,-1,-1,1,-4,-2,-5,-12,-4
14:14:14:782766,3,-1,-2,-3,3,-3,3,-1
14:14:14:797089,2,-1,-5,-7,-7,-12,-25,-8
14:14:14:797777,2,-1,-5,-7,-7,-12,-25,-8
14:14:14:803779,-1,-2,-1,3,1,0,16,-4
14:14:14:811241,-5,-3,2,1,-2,-3,-8,-8
14:14:14:818945,-5,-3,2,1,-2,-3,-8,-8
14:14:14:826308,1,1,-1,-3,-1,-6,0,0
14:14:14:833856,1,2,-1,-4,-4,-5,5,-5
14:14:14:841920,1,2,-1,-4,-4,-5,5,-5
14:14:14:842737,-1,-1,-2,-6,-4,-4,23,-3
14:14:14:856973,0,0,1,-3,-8,-4,-2,1
14:14:14:857827,0,0,1,-3,-8,-4,-2,1
14:14:14:863848,0,-5,-1,0,-12,-7,-20,3
14:14:14:879515,0,-4,0,4,5,5,-4,-1
14:14:14:880322,0,-4,0,4,5,5,-4,-1
14:14:14:886336,-2,0,0,-5,1,0,-17,-8
14:14:14:893807,1,1,-1,0,-1,-1,-4,3
14:14:14:902117,1,1,-1,0,-1,-1,-4,3
14:14:14:902817,0,2,-3,0,-1,-9,-12,0
14:14:14:917044,-1,-1,0,-3,1,-3,1,-1
14:14:14:917822,-1,-1,0,-3,1,-3,1,-1
14:14:14:923759,-2,-3,-1,-3,-6,2,3,-1
14:14:14:931341,-1,-2,0,1,7,8,14,1
14:14:14:938902,-1,-2,0,1,7,8,14,1
14:14:14:946316,-3,-1,0,4,4,4,-7,1
14:14:14:953809,2,-2,-6,-3,-9,-1,-9,0
14:14:14:962026,2,-2,-6,-3,-9,-1,-9,0
14:14:14:962820,-2,-1,0,-1,2,-1,-8,-2
14:14:14:976969,-5,-4,-1,0,3,4,17,3
14:14:14:977786,-5,-4,-1,0,3,4,17,3
14:14:14:983879,-1,-2,3,3,5,6,14,1
14:14:14:991281,-2,1,-6,1,-3,1,2,-2
14:14:14:998888,-2,1,-6,1,-3,1,2,-2
14:14:15:14484,3,2,0,-2,-3,-6,-10,-4
14:14:15:15198,-1,1,1,1,2,-1,-3,2
14:14:15:22046,-1,1,1,1,2,-1,-3,2
14:14:15:22805,-4,-1,-3,-3,3,-3,-5,0
14:14:15:37019,2,-3,0,1,-5,0,-6,-2
14:14:15:37804,2,-3,0,1,-5,0,-6,-2
14:14:15:43780,0,-1,-4,-5,-6,-8,-3,-3
14:14:15:51369,-3,-2,-4,-7,-6,-3,2,1
14:14:15:58865,-3,-2,-4,-7,-6,-3,2,1
14:14:15:66332,1,-1,-2,1,-5,-7,-17,2
14:14:15:73780,2,-3,3,2,-8,-6,3,0
14:14:15:82003,2,-3,3,2,-8,-6,3,0
14:14:15:82756,-3,-1,0,-3,-2,2,-5,-6
14:14:15:97061,-3,-3,-2,-2,4,2,-9,-6
14:14:15:97796,-3,-3,-2,-2,4,2,-9,-6
14:14:15:103817,1,-1,1,-2,-1,2,3,1
14:14:15:111273,-3,2,-3,3,5,0,10,-3
14:14:15:118968,-3,2,-3,3,5,0,10,-3
14:14:15:126282,-5,-3,2,3,11,7,19,3
14:14:15:133897,-2,0,-5,-3,-4,-4,3,1
14:14:15:141950,-2,0,-5,-3,-4,-4,3,1
14:14:15:142728,4,-2,-1,-1,-3,-1,-11,1
14:14:15:156963,2,-2,1,3,3,4,16,0
14:14:15:157771,2,-2,1,3,3,4,16,0
14:14:15:163884,1,-1,-5,-6,-9,-5,-1,-2
14:14:15:171279,-2,0,-3,-3,0,6,-19,-2
14:14:15:178793,-2,0,-3,-3,0,6,-19,-2
14:14:15:186350,-3,-3,-4,-1,-5,-3,-9,-2
14:14:15:193796,-3,0,0,-2,-3,-5,-6,1
14:14:15:202073,-3,0,0,-2,-3,-5,-6,1
14:14:15:202798,-4,-1,2,8,12,7,7,3
14:14:15:217031,-1,-3,0,-4,-6,-12,-5,-8
14:14:15:217762,-1,-3,0,-4,-6,-12,-5,-8
14:14:15:223780,-1,1,-2,-1,-8,-6,15,0
14:14:15:231266,0,1,-3,-2,5,7,9,2
14:14:15:238803,0,1,-3,-2,5,7,9,2
14:14:15:246307,0,-4,4,-2,-1,-1,1,-3
14:14:15:253823,0,-3,-2,2,0,5,14,4
14:14:15:261998,0,-3,-2,2,0,5,14,4
14:14:15:262794,1,-2,-2,-2,-1,6,4,4
14:14:15:276962,0,-2,-4,-4,0,-5,-8,3
14:14:15:277820,0,-2,-4,-4,0,-5,-8,3
14:14:15:283876,-2,0,-5,-1,-3,-3,11,1
14:14:15:291265,-2,1,1,-1,-1,-3,-4,-2
14:14:15:298807,-2,1,1,-1,-1,-3,-4,-2
14:14:15:306317,-2,2,2,-3,0,-6,-9,-6
14:14:15:313851,-2,-4,1,0,0,7,-7,-1
14:14:15:322029,-2,-4,1,0,0,7,-7,-1
14:14:15:322797,-1,-2,-2,-5,-3,-5,-12,-2
14:14:15:336997,0,-1,0,-2,-3,-2,-10,-2
14:14:15:337795,0,-1,0,-2,-3,-2,-10,-2
14:14:15:343769,-2,-3,-4,-3,0,3,38,8
14:14:15:351376,-3,2,-3,-2,-2,1,6,-1
14:14:15:358825,-3,2,-3,-2,-2,1,6,-1
14:14:15:366326,1,-1,0,0,-1,-5,-23,-8
14:14:15:373778,1,1,0,-2,-1,-4,3,1
14:14:15:381954,1,1,0,-2,-1,-4,3,1
14:14:15:382779,-3,-3,-2,-3,-6,-9,-8,-7
14:14:15:397052,1,-2,1,0,-1,-4,-21,-3
14:14:15:397764,1,-2,1,0,-1,-4,-21,-3
14:14:15:403791,-1,3,1,-1,-6,-3,-19,-5
14:14:15:411357,-3,-3,-4,1,-1,1,9,2
14:14:15:418951,-3,-3,-4,1,-1,1,9,2
14:14:15:426295,-1,-4,-3,2,7,4,-16,-4
14:14:15:433839,1,-2,5,-3,-3,-8,8,-3
14:14:15:441328,1,-2,5,-3,-3,-8,8,-3
14:14:15:448798,-1,1,-5,-4,-5,-4,-10,-2
14:14:15:456960,-2,-3,-1,-1,-5,-1,-4,-1
14:14:15:457793,-2,-3,-1,-1,-5,-1,-4,-1
14:14:15:463889,1,2,-2,1,-1,2,26,1
14:14:15:479525,-2,-1,-3,-5,0,-8,-21,-8
14:14:15:480239,-2,-1,-3,-5,0,-8,-21,-8
14:14:15:486312,-2,-4,3,1,3,-3,9,4
14:14:15:493777,-1,-1,2,2,0,1,-30,-2
14:14:15:501430,-1,-1,2,2,0,1,-30,-2
14:14:15:508763,0,0,-2,2,0,-4,4,3
14:14:15:517096,0,1,-2,-1,-2,-1,-11,-5
14:14:15:517845,0,1,-2,-1,-2,-1,-11,-5
14:14:15:523828,0,3,-3,-6,-6,1,0,-6
14:14:15:539505,-3,-2,-1,-3,-5,3,12,5
14:14:15:540324,-3,-2,-1,-3,-5,3,12,5
14:14:15:546311,-1,-3,4,-2,0,1,1,3
14:14:15:553825,0,0,0,-4,-4,-9,14,2
14:14:15:561333,0,0,0,-4,-4,-9,14,2
14:14:15:568879,0,-2,-7,-3,1,-2,-7,-4
14:14:15:577009,-4,-2,-7,0,1,-6,-13,-9
14:14:15:577777,-4,-2,-7,0,1,-6,-13,-9
14:14:15:583891,0,0,2,1,-5,-1,-7,0
14:14:15:599558,2,1,0,-1,7,0,15,6
14:14:15:600278,2,1,0,-1,7,0,15,6
14:14:15:606327,0,-1,-2,-1,0,3,-1,1
14:14:15:613915,0,-1,3,-1,-2,1,-8,-6
14:14:15:621391,0,-1,3,-1,-2,1,-8,-6
14:14:15:628815,-2,-1,-1,1,4,9,6,-1
14:14:15:636979,-3,-1,-2,2,3,0,10,-1
14:14:15:637773,-3,-1,-2,2,3,0,10,-1
14:14:15:643816,-4,-1,-3,-4,-9,-5,2,-5
14:14:15:659463,-5,-3,0,2,-1,7,14,-9
14:14:15:660240,-5,-3,0,2,-1,7,14,-9
14:14:15:666343,0,0,2,-3,-1,-9,6,-3
14:14:15:682119,-1,-1,3,0,-2,-4,-15,1
14:14:15:682837,-1,-1,3,0,-2,-4,-15,1
14:14:15:688822,-3,-1,-3,-4,1,-2,-10,3
14:14:15:697041,0,-3,-6,-2,0,7,5,1
14:14:15:697768,0,-3,-6,-2,0,7,5,1
14:14:15:703800,0,-1,-1,3,1,-1,-13,-3
14:14:15:719529,-3,-1,0,-3,-4,-6,-18,-2
14:14:15:720312,-3,-1,0,-3,-4,-6,-18,-2
14:14:15:726272,-2,-4,-1,-2,-4,0,15,-3
14:14:15:733851,-2,2,-5,-2,-5,-5,4,0
14:14:15:741341,-2,2,-5,-2,-5,-5,4,0
14:14:15:748802,1,-1,-3,-4,1,-5,-3,-4
14:14:15:756976,0,-5,5,6,12,14,6,-1
14:14:15:757804,0,-5,5,6,12,14,6,-1
14:14:15:763856,-1,-2,3,1,2,7,9,4
14:14:15:779434,-4,-3,-3,-1,-5,-1,-2,2
14:14:15:780245,-4,-3,-3,-1,-5,-1,-2,2
14:14:15:786366,-2,3,-2,0,0,-7,-15,0
14:14:15:793777,0,2,1,1,1,-8,-9,-1
14:14:15:801419,0,2,1,1,1,-8,-9,-1
14:14:15:808779,1,-2,0,0,-2,4,5,1
14:14:15:817037,-1,0,-4,1,-3,3,4,0
14:14:15:817795,-1,0,-4,1,-3,3,4,0
14:14:15:823777,-1,0,-1,-2,3,1,-2,0
14:14:15:839427,0,-4,-2,-7,-4,-11,1,2
14:14:15:840258,0,-4,-2,-7,-4,-11,1,2
14:14:15:846275,-2,-5,-8,-1,-1,-2,1,-1
14:14:15:853817,-1,0,4,-2,0,4,-14,-1
14:14:15:861330,-1,0,4,-2,0,4,-14,-1
14:14:15:868911,-3,0,2,1,-1,2,-8,-4
14:14:15:876963,-2,-1,-1,2,4,4,27,0
14:14:15:877827,-2,-1,-1,2,4,4,27,0
14:14:15:883926,3,0,-1,1,6,2,1,-2
14:14:15:899483,5,-1,-2,-1,-3,-8,-9,-6
14:14:15:900271,5,-1,-2,-1,-3,-8,-9,-6
14:14:15:906257,1,-1,0,-1,-7,-4,15,5
14:14:15:913888,-1,0,2,0,1,4,10,9
14:14:15:921371,-1,0,2,0,1,4,10,9
14:14:15:928837,-4,0,-3,2,4,10,23,3
14:14:15:937066,0,-2,-2,2,-2,-7,0,-6
14:14:15:937827,0,-2,-2,2,-2,-7,0,-6
14:14:15:943779,-2,-1,0,-4,-11,-14,-27,-8
14:14:15:959451,-1,3,0,-6,-1,1,3,0
14:14:15:960281,-1,3,0,-6,-1,1,3,0
14:14:15:966322,-1,-1,0,-1,-4,-4,-22,-6
14:14:15:973805,-2,-4,-5,-6,-5,1,-10,-1
14:14:15:981406,-2,-4,-5,-6,-5,1,-10,-1
14:14:15:988842,0,-3,1,-2,0,-2,-11,-3
14:14:15:997037,0,-1,0,2,6,4,7,0
14:14:15:997759,0,-1,0,2,6,4,7,0
14:14:16:3810,-3,-2,0,-3,-2,-3,10,-4
14:14:16:19549,-1,2,0,3,7,7,-3,3
14:14:16:20298,-1,2,0,3,7,7,-3,3
14:14:16:26272,0,0,-3,1,-3,-3,-16,-5
14:14:16:33908,1,1,-3,1,-7,-4,10,-6
14:14:16:41358,1,1,-3,1,-7,-4,10,-6
14:14:16:48809,-2,-5,3,-3,-2,-1,-3,0
14:14:16:56979,-1,-3,-1,-1,-2,-1,3,4
14:14:16:57787,-1,-3,-1,-1,-2,-1,3,4
14:14:16:63851,0,-1,-1,-3,-6,-2,3,-1
14:14:16:79494,-4,-2,-3,-2,-2,-3,-6,-2
14:14:16:80250,-4,-2,-3,-2,-2,-3,-6,-2
14:14:16:86330,-2,1,-3,-2,1,-6,-8,-4
14:14:16:93777,1,-4,-5,3,2,-1,-6,-6
14:14:16:101353,1,-4,-5,3,2,-1,-6,-6
14:14:16:108744,-1,-2,2,-3,1,1,17,4
14:14:16:117111,-2,1,1,-5,-9,-8,-16,-6
14:14:16:117819,-2,1,1,-5,-9,-8,-16,-6
14:14:16:123801,0,-1,-2,11,6,12,8,5
14:14:16:139496,0,-3,0,-4,-5,-2,-1,3
14:14:16:140302,0,-3,0,-4,-5,-2,-1,3
14:14:16:146266,-1,1,2,-2,2,4,3,-2
14:14:16:153845,-2,0,-1,1,0,-1,-7,-6
14:14:16:161321,-2,0,-1,1,0,-1,-7,-6
14:14:16:168848,1,-2,-3,-2,3,-1,-2,3
14:14:16:176981,-1,-3,-2,-2,-4,-9,3,1
14:14:16:177799,-1,-3,-2,-2,-4,-9,3,1
14:14:16:183898,-2,2,0,2,-7,-4,2,-2
14:14:16:199548,-1,0,2,1,0,10,1,-4
14:14:16:200329,-1,0,2,1,0,10,1,-4
14:14:16:206292,-3,-4,0,1,5,-4,-4,-4
14:14:16:213941,-2,0,-4,-4,2,-7,-4,-3
14:14:16:221420,-2,0,-4,-4,2,-7,-4,-3
14:14:16:228855,0,-1,-3,-4,-4,-8,-7,3
14:14:16:237050,1,0,2,1,-7,3,1,0
14:14:16:237813,1,0,2,1,-7,3,1,0
14:14:16:243756,-1,-3,-5,-1,-2,3,-22,-3
14:14:16:259451,-1,-1,-3,-5,2,-1,-7,1
14:14:16:260291,-1,-1,-3,-5,2,-1,-7,1
14:14:16:266382,2,-1,0,0,4,1,5,1
14:14:16:273859,-4,-4,1,-1,-2,-2,3,2
14:14:16:281368,-4,-4,1,-1,-2,-2,3,2
14:14:16:288813,-3,-1,-2,-2,-2,-3,1,-1
14:14:16:297099,2,-2,-3,-1,-1,0,7,-3
14:14:16:297772,2,-2,-3,-1,-1,0,7,-3
14:14:16:303811,0,2,1,-2,-2,-5,-3,5
14:14:16:319559,-3,1,-1,2,1,6,7,0
14:14:16:320315,-3,1,-1,2,1,6,7,0
14:14:16:326286,-4,-1,2,5,5,12,16,1
14:14:16:333901,-2,-6,-3,-7,-4,-10,-17,-3
14:14:16:341309,-2,-6,-3,-7,-4,-10,-17,-3
14:14:16:348858,0,0,-4,-5,-1,-1,11,-2
14:14:16:356971,-2,1,-1,3,6,9,-17,-6
14:14:16:357784,-2,1,-1,3,6,9,-17,-6
14:14:16:363860,-5,-1,0,-4,2,-2,1,-5
14:14:16:379473,1,-1,0,1,-9,-14,-11,0
14:14:16:380298,1,-1,0,1,-9,-14,-11,0
14:14:16:386406,-1,-3,1,2,1,-1,-3,-3
14:14:16:402117,-4,0,-1,-3,-6,4,14,1
14:14:16:402861,-4,0,-1,-3,-6,4,14,1
14:14:16:408776,0,1,-5,2,-2,-3,-8,-4
14:14:16:417055,4,-1,0,-3,4,-3,-12,4
14:14:16:417838,4,-1,0,-3,4,-3,-12,4
14:14:16:431370,2,-3,1,-6,-3,-5,15,4
14:14:16:439469,-1,0,0,-2,-5,-3,14,3
14:14:16:440280,-1,0,0,-2,-5,-3,14,3
14:14:16:446321,-2,0,-4,1,0,4,-7,1
14:14:16:462034,0,0,-3,0,-1,5,1,-3
14:14:16:462835,0,0,-3,0,-1,5,1,-3
14:14:16:468906,2,-3,-1,2,-2,-2,-3,-2
14:14:16:484539,-2,-3,1,2,1,-1,13,2
14:14:16:485277,-2,-3,1,2,1,-1,13,2
14:14:16:491242,0,-2,3,-3,-5,-6,-4,-5
14:14:16:499497,-1,2,4,0,5,3,14,3
14:14:16:500294,-1,2,4,0,5,3,14,3
14:14:16:506282,2,3,-3,-2,-4,-2,-4,-2
14:14:16:522016,0,-2,-2,-2,0,3,40,-2
14:14:16:522790,0,-2,-2,-2,0,3,40,-2
14:14:16:528804,-5,-6,-5,1,7,7,10,-1
14:14:16:544470,-1,-2,-4,-1,-4,-1,-22,-3
14:14:16:545274,-1,-2,-4,-1,-4,-1,-22,-3
14:14:16:551357,-1,0,-2,-5,-13,-4,-1,-3
14:14:16:559458,-3,-2,1,3,4,-3,-4,-2
14:14:16:560258,-3,-2,1,3,4,-3,-4,-2
14:14:16:566341,-2,0,1,-1,4,-6,-11,1
14:14:16:582064,-2,0,1,-1,4,-6,-11,1
14:14:16:582759,0,1,1,-2,0,-4,-13,0
14:14:16:588783,-2,-1,-4,2,0,1,-1,1
14:14:16:597158,-2,-1,-4,2,0,1,-1,1
14:14:16:597805,1,0,-3,-2,-4,-2,14,0
14:14:16:611242,0,-1,2,-2,-5,-2,-7,-3
14:14:16:619607,0,-1,2,-2,-5,-2,-7,-3
14:14:16:620285,-2,-2,-4,0,-6,-3,-19,-7
14:14:16:626226,-1,-2,-1,1,4,2,-8,1
14:14:16:641979,-1,-2,-1,1,4,2,-8,1
14:14:16:642815,-3,-4,-5,-5,-3,-8,-14,-5
14:14:16:648878,2,-2,1,0,2,7,4,6
14:14:16:656993,2,-2,1,0,2,7,4,6
14:14:16:657796,0,2,1,-1,2,-1,1,-1
14:14:16:671333,-1,-1,-4,1,-4,-3,-3,-4
14:14:16:679497,-1,-1,-4,1,-4,-3,-3,-4
14:14:16:680300,-1,-3,-2,-1,0,7,-6,-9
14:14:16:686316,-4,-3,1,-4,-4,-9,-7,-3
14:14:16:702084,-4,-3,1,-4,-4,-9,-7,-3
14:14:16:702763,-1,-1,4,3,7,1,10,3
14:14:16:708767,-3,-1,-4,-2,-4,-8,-6,1
14:14:16:717141,-3,-1,-4,-2,-4,-8,-6,1
14:14:16:717798,1,3,0,-7,-10,-9,-13,1
14:14:16:731357,0,-2,-1,-4,-4,2,-2,-3
14:14:16:739497,0,-2,-1,-4,-4,2,-2,-3
14:14:16:740294,1,-1,0,3,1,3,11,2
14:14:16:746272,-2,0,0,0,1,-3,1,-5
14:14:16:762022,-2,0,0,0,1,-3,1,-5
14:14:16:762782,-3,-3,-4,-4,-2,-4,-10,0
14:14:16:768843,0,-1,-1,1,2,8,6,3
14:14:16:776954,0,-1,-1,1,2,8,6,3
14:14:16:777770,0,0,4,-1,2,5,-1,2
14:14:16:791327,-1,-1,-1,0,-4,-1,-6,-5
14:14:16:799519,-1,-1,-1,0,-4,-1,-6,-5
14:14:16:800299,-1,-1,-5,-3,-3,-6,-6,0
14:14:16:806317,-1,-2,2,3,4,1,-8,-9
14:14:16:821951,-1,-2,2,3,4,1,-8,-9
14:14:16:822802,-3,-4,-2,-1,0,4,16,1
14:14:16:828818,-3,1,-3,-3,-3,-6,12,2
14:14:16:837004,-3,1,-3,-3,-3,-6,12,2
14:14:16:837795,-2,-2,-1,7,16,13,3,0
14:14:16:851332,-1,2,-3,-5,-3,-7,-17,-2
14:14:16:859435,-1,2,-3,-5,-3,-7,-17,-2
14:14:16:860234,1,1,-5,-1,-10,-6,-17,2
14:14:16:866363,1,-2,-1,-4,-4,0,-4,0
14:14:16:881996,1,-2,-1,-4,-4,0,-4,0
14:14:16:882797,-3,-4,1,-4,-4,1,2,-1
14:14:16:888850,-3,-5,-1,0,2,-4,10,1
14:14:16:897095,-3,-5,-1,0,2,-4,10,1
14:14:16:897786,0,-1,-1,-1,1,6,6,3
14:14:16:911334,-2,-1,1,2,0,3,-2,1
14:14:16:919613,-2,-1,1,2,0,3,-2,1
14:14:16:920346,0,1,0,0,-8,-8,-12,-6
14:14:16:926266,0,-3,2,-1,1,4,0,1
14:14:16:942037,0,-3,2,-1,1,4,0,1
14:14:16:942792,1,-3,-1,3,3,3,17,2
14:14:16:948845,-2,0,-1,1,1,-4,3,-4
14:14:16:956971,-2,0,-1,1,1,-4,3,-4
14:14:16:957826,-4,-2,-1,-7,-6,-11,-13,-7
14:14:16:971341,-4,1,-2,-4,-3,1,1,-2
14:14:16:979554,-4,1,-2,-4,-3,1,1,-2
14:14:16:980327,-1,-4,-2,0,0,-5,-5,-1
14:14:16:986343,-4,0,-2,5,4,9,7,-3
14:14:17:2065,-4,0,-2,5,4,9,7,-3
14:14:17:2784,2,0,2,2,-3,-2,-3,-4
14:14:17:8756,1,-4,-4,-3,-2,-5,-4,0
14:14:17:17112,1,-4,-4,-3,-2,-5,-4,0
14:14:17:17806,-1,-4,-4,-3,2,6,-12,-5
14:14:17:31357,0,-1,0,-1,-7,-2,-12,0
14:14:17:39524,0,-1,0,-1,-7,-2,-12,0
14:14:17:40277,-3,-1,2,0,2,0,5,1
14:14:17:46310,0,-1,-1,-4,-5,-4,-4,-1
14:14:17:62027,0,-1,-1,-4,-5,-4,-4,-1
14:14:17:62756,2,4,2,5,3,4,23,4
14:14:17:68907,2,0,-1,1,-1,3,6,1
14:14:17:76979,2,0,-1,1,-1,3,6,1
14:14:17:77749,-1,-2,1,1,-5,-7,-10,-3
14:14:17:91265,-2,-1,-4,0,0,-1,-5,1
14:14:17:99591,-2,-1,-4,0,0,-1,-5,1
14:14:17:100308,-2,0,-4,-1,1,0,7,1
14:14:17:106306,1,1,0,-5,1,-7,-10,-1
14:14:17:122023,1,1,0,-5,1,-7,-10,-1
14:14:17:122800,0,-1,-1,-6,-3,-5,-10,-2
14:14:17:128842,-3,-1,-2,2,-1,8,2,3
14:14:17:137040,-3,-1,-2,2,-1,8,2,3
14:14:17:137824,-3,4,-1,-1,-6,-2,-2,-1
14:14:17:151364,-1,-5,-4,-4,5,3,6,0
14:14:17:159485,-1,-5,-4,-4,5,3,6,0
14:14:17:160278,0,-5,-2,-2,4,3,-3,0
14:14:17:166291,2,-1,0,0,5,-5,-1,0
14:14:17:182084,2,-1,0,0,5,-5,-1,0
14:14:17:182796,-2,-1,-2,-2,-2,-2,12,2
14:14:17:188903,1,3,1,-2,-6,-8,-4,-5
14:14:17:197128,1,3,1,-2,-6,-8,-4,-5
14:14:17:197765,-1,-1,0,2,1,7,12,6
14:14:17:211287,-2,-3,-3,-2,0,0,7,0
14:14:17:219521,-2,-3,-3,-2,0,0,7,0
14:14:17:220234,-2,0,-1,-1,-6,-6,-2,1
14:14:17:226224,-1,-2,1,1,-2,-7,-4,1
14:14:17:241979,-1,-2,1,1,-2,-7,-4,1
14:14:17:242765,1,-1,-5,-1,6,-1,-9,-2
14:14:17:248851,0,1,-1,-2,-6,-4,-4,-3
14:14:17:257066,0,1,-1,-2,-6,-4,-4,-3
14:14:17:257831,-2,0,1,-5,-4,-10,-4,-5
14:14:17:271359,-2,-3,-1,-5,4,0,1,-1
14:14:17:279521,-2,-3,-1,-5,4,0,1,-1
14:14:17:280274,0,-4,-1,1,4,5,-6,-5
14:14:17:286313,-2,0,0,0,-8,-1,10,0
14:14:17:302046,-2,0,0,0,-8,-1,10,0
14:14:17:302809,-3,0,-3,-2,-4,-2,-17,0
14:14:17:308758,-2,-2,0,3,4,3,-9,-1
14:14:17:317055,-2,-2,0,3,4,3,-9,-1
14:14:17:317813,0,-1,-1,-1,1,-6,2,-3
14:14:17:331350,-1,-2,1,2,2,4,7,0
14:14:17:339500,-1,-2,1,2,2,4,7,0
14:14:17:340267,-3,-5,0,-4,-8,-1,-11,-1
14:14:17:353808,-1,-1,-3,-1,1,0,3,-1
14:14:17:361974,-1,-1,-3,-1,1,0,3,-1
14:14:17:362769,1,1,-5,-2,-6,-6,4,1
14:14:17:368898,0,1,-2,0,0,-2,-2,-3
14:14:17:376324,0,1,-2,0,0,-2,-2,-3
14:14:17:383937,1,1,2,5,8,-2,-17,-4
14:14:17:391339,-2,1,-3,1,-5,-1,14,0
14:14:17:399594,-2,1,-3,1,-5,-1,14,0
14:14:17:400294,-2,-2,2,-6,-8,-3,3,-7
14:14:17:413862,-1,-2,3,-3,1,0,-16,0
14:14:17:421971,-1,-2,3,-3,1,0,-16,0
14:14:17:422794,-1,-1,-4,1,-1,6,14,3
14:14:17:428867,0,-1,0,-2,-1,-2,4,1
14:14:17:436402,0,-1,0,-2,-1,-2,4,1
14:14:17:443801,-1,-3,0,2,6,8,19,2
14:14:17:451315,-3,0,-2,-3,-2,-2,-6,-2
14:14:17:459483,-3,0,-2,-3,-2,-2,-6,-2
14:14:17:460281,-3,-1,-1,1,-1,-5,-13,-2
14:14:17:473820,0,-1,1,-4,-8,-5,-1,0
14:14:17:481960,0,-1,1,-4,-8,-5,-1,0
14:14:17:482792,0,-3,-3,-4,-9,-9,-4,-4
14:14:17:488866,-2,-3,1,1,1,2,0,-2
14:14:17:496350,-2,-3,1,1,1,2,0,-2
14:14:17:503890,0,0,-4,-1,-2,-10,-12,-1
14:14:17:511242,1,0,-2,-2,1,0,3,0
14:14:17:519567,1,0,-2,-2,1,0,3,0
14:14:17:520323,-1,-3,3,-3,-1,5,4,-2
14:14:17:533885,-2,-1,-2,2,3,8,3,-2
14:14:17:542014,-2,-1,-2,2,3,8,3,-2
14:14:17:542756,-3,4,0,0,4,1,5,-1
14:14:17:548810,-2,-6,0,-1,-6,-10,-17,-2
14:14:17:556320,-2,-6,0,-1,-6,-10,-17,-2
14:14:17:563894,-4,-4,-7,-2,-1,-5,-11,-7
14:14:17:571287,0,2,-4,-1,-2,-6,-5,-4
14:14:17:579489,0,2,-4,-1,-2,-6,-5,-4
14:14:17:580246,-2,-1,0,-3,-4,-6,-8,0
14:14:17:593812,-1,1,0,0,-3,5,0,-1
14:14:17:602100,-1,1,0,0,-3,5,0,-1
14:14:17:602793,1,-1,-1,-1,1,2,3,0
14:14:17:608791,1,-1,2,0,1,5,6,3
14:14:17:616458,1,-1,2,0,1,5,6,3
14:14:17:623837,0,1,0,-6,-2,-5,2,-1
14:14:17:631327,0,-2,0,2,2,2,-2,-2
14:14:17:639489,0,-2,0,2,2,2,-2,-2
14:14:17:640280,-3,-3,-3,-1,3,0,5,-2
14:14:17:654280,0,-1,-3,-2,2,-1,11,3
14:14:17:662032,0,-1,-3,-2,2,-1,11,3
14:14:17:662811,1,0,2,0,-4,0,6,-1
14:14:17:668869,-1,-1,-1,-2,1,1,6,-3
14:14:17:676296,-1,-1,-1,-2,1,1,6,-3
14:14:17:683889,2,3,0,-1,0,1,-7,0
14:14:17:691313,2,-2,-2,-2,-6,-4,2,-2
14:14:17:699514,2,-2,-2,-2,-6,-4,2,-2
14:14:17:700247,-4,-3,-3,4,3,13,17,2
14:14:17:713914,-2,-2,-3,-1,-6,-7,-9,-4
14:14:17:721985,-2,-2,-3,-1,-6,-7,-9,-4
14:14:17:722803,1,-1,4,2,1,-3,-1,2
14:14:17:728829,-1,-4,2,1,8,8,0,3
14:14:17:736413,-1,-4,2,1,8,8,0,3
14:14:17:743793,2,0,1,1,-6,1,-5,1
14:14:17:751343,-1,-1,-4,-6,1,-7,-14,-2
14:14:17:759483,-1,-1,-4,-6,1,-7,-14,-2
14:14:17:760239,-4,-1,-3,-2,1,-8,-18,-4
14:14:17:773830,0,-2,-1,0,-3,2,-4,-4
14:14:17:781992,0,-2,-1,0,-3,2,-4,-4
14:14:17:782794,0,1,-2,-6,-2,-7,-12,-4
14:14:17:788837,-3,0,0,1,2,-5,1,2
14:14:17:796356,-3,0,0,1,2,-5,1,2
14:14:17:803855,0,-3,-5,-3,-1,-2,0,-3
14:14:17:811243,0,2,-1,-3,-2,2,6,1
14:14:17:819596,0,2,-1,-3,-2,2,6,1
14:14:17:820261,-2,-2,0,-1,-3,0,1,0
14:14:17:833884,-2,1,-2,1,-1,3,13,0
14:14:17:841980,-2,1,-2,1,-1,3,13,0
14:14:17:842776,3,0,1,1,-5,-3,3,-2
14:14:17:848850,-1,-3,-2,-1,-5,-7,-8,-8
14:14:17:856322,-1,-3,-2,-1,-5,-7,-8,-8
14:14:17:863924,-3,-2,-2,-3,1,2,29,1
14:14:17:871300,-3,-3,-2,-1,-3,-5,-11,-3
14:14:17:879537,-3,-3,-2,-1,-3,-5,-11,-3
14:14:17:880311,2,1,-1,-5,-8,-7,-19,-5
14:14:17:893815,0,2,-2,-2,-1,0,-4,-4
14:14:17:902138,0,2,-2,-2,-1,0,-4,-4
14:14:17:902861,-1,-3,-2,-1,3,5,5,5
14:14:17:908807,-1,0,0,2,1,7,6,3
14:14:17:916432,-1,0,0,2,1,7,6,3
14:14:17:931983,-2,-2,-3,7,7,2,-1,2
14:14:17:932813,0,-1,-3,-5,-4,-8,-7,0
14:14:17:939554,0,-1,-3,-5,-4,-8,-7,0
14:14:17:940329,-2,-1,-1,-2,-4,1,-3,-2
14:14:17:953894,-3,1,0,-2,2,3,5,-1
14:14:17:962045,-3,1,0,-2,2,3,5,-1
14:14:17:962831,-2,-2,1,-6,-5,-3,-3,-4
14:14:17:968917,1,-2,1,-5,-5,-3,1,-1
14:14:17:976326,1,-2,1,-5,-5,-3,1,-1
14:14:17:983881,-1,0,0,1,2,1,2,2
14:14:17:991309,2,0,-1,2,-1,-3,1,2
14:14:17:999627,2,0,-1,2,-1,-3,1,2
14:14:18:340,2,0,-3,6,1,-5,-11,-4
14:14:18:13875,-4,0,2,6,11,18,12,5
14:14:18:22056,-4,0,2,6,11,18,12,5
14:14:18:22821,-5,-1,-5,-8,-4,-13,-2,-5
14:14:18:28847,1,-4,-5,-1,-1,-6,-6,-3
14:14:18:36498,1,-4,-5,-1,-1,-6,-6,-3
14:14:18:43808,-3,-2,2,0,-2,-3,2,-1
14:14:18:51413,-2,-4,-1,1,-6,-5,-11,0
14:14:18:59471,-2,-4,-1,1,-6,-5,-11,0
14:14:18:60254,-1,-2,-1,0,-4,3,1,0
14:14:18:73848,0,-1,-1,-8,-5,-5,-4,-2
14:14:18:81988,0,-1,-1,-8,-5,-5,-4,-2
14:14:18:82912,4,-3,1,4,8,15,13,7
14:14:18:88822,-2,1,0,-1,1,-6,1,0
14:14:18:96336,-2,1,0,-1,1,-6,1,0
14:14:18:103854,-1,-1,0,-1,-1,-5,-8,-2
14:14:18:111266,-1,-4,-5,-3,-5,-7,2,1
14:14:18:119558,-1,-4,-5,-3,-5,-7,2,1
14:14:18:120265,-1,2,1,2,0,6,7,2
14:14:18:133935,-1,-3,-1,-5,-7,-9,2,-7
14:14:18:141951,-1,-3,-1,-5,-7,-9,2,-7
14:14:18:142951,-1,1,0,-1,-4,-2,-4,1
14:14:18:148851,-2,2,3,4,2,-5,-31,-4
14:14:18:156314,-2,2,3,4,2,-5,-31,-4
14:14:18:163921,0,2,-4,-6,2,-5,1,-3
14:14:18:171328,-1,-2,-1,1,-1,-5,-7,-3
14:14:18:179539,-1,-2,-1,1,-1,-5,-7,-3
14:14:18:180302,-1,-4,-1,1,-6,1,2,0
14:14:18:193817,-1,-2,-1,-1,1,2,5,-1
14:14:18:202081,-1,-2,-1,-1,1,2,5,-1
14:14:18:202782,-2,-2,-2,-2,3,1,-3,-1
14:14:18:208786,-2,0,-1,-1,0,0,7,5
14:14:18:216357,-2,0,-1,-1,0,0,7,5
14:14:18:223796,-1,-2,4,-2,0,-2,-9,0
14:14:18:231315,0,0,-2,-5,-3,-1,2,-2
14:14:18:239531,0,0,-2,-5,-3,-1,2,-2
14:14:18:240280,-2,-2,-2,-7,-8,-9,-40,-10
14:14:18:253835,-2,-2,0,1,1,12,6,7
14:14:18:262012,-2,-2,0,1,1,12,6,7
14:14:18:262809,1,-2,-3,-1,-7,-10,-15,-2
14:14:18:268912,-1,-2,-3,0,0,2,-1,-5
14:14:18:276316,-1,-2,-3,0,0,2,-1,-5
14:14:18:283876,-2,-2,-4,-4,-4,1,6,-3
14:14:18:291302,-2,2,1,-2,2,3,-1,2
14:14:18:298887,-2,2,1,-2,2,3,-1,2
14:14:18:306313,0,-2,-4,-4,-3,-10,4,2
14:14:18:313852,0,-1,-3,3,-5,-11,-10,-4
14:14:18:321983,0,-1,-3,3,-5,-11,-10,-4
14:14:18:322790,-4,1,4,7,11,15,22,2
14:14:18:345148,-1,-2,-2,-5,-4,-4,8,-1
14:14:18:345970,-1,-2,-2,-5,-4,-4,8,-1
14:14:18:346790,1,2,1,-2,-2,-5,-5,-5
14:14:18:351358,1,-2,-1,-1,-4,-4,-8,-7
14:14:18:358806,1,-2,-1,-1,-4,-4,-8,-7
14:14:18:366345,-3,-5,-2,5,6,8,0,6
14:14:18:373837,0,-2,2,2,-1,-3,3,-1
14:14:18:382007,0,-2,2,2,-1,-3,3,-1
14:14:18:382903,1,-1,0,1,3,1,3,0
14:14:18:397099,-4,-3,-1,-2,0,1,7,-5
14:14:18:397778,-4,-3,-1,-2,0,1,7,-5
14:14:18:403833,-3,-2,-3,-5,-1,2,7,-6
14:14:18:411512,-1,1,0,-1,-2,5,8,2
14:14:18:418946,-1,1,0,-1,-2,5,8,2
14:14:18:426304,0,-1,-3,-1,-2,-5,0,1
14:14:18:433898,-2,-1,-2,0,0,-5,-3,1
14:14:18:441953,-2,-1,-2,0,0,-5,-3,1
14:14:18:442798,0,-1,3,-3,-1,-8,4,-1
14:14:18:456969,2,-3,-1,0,5,5,10,4
14:14:18:457819,2,-3,-1,0,5,5,10,4
14:14:18:463867,2,1,-3,-3,-10,0,9,2
14:14:18:471333,-2,-1,-2,1,-1,3,-5,-2
14:14:18:486992,-2,-1,-2,1,-1,3,-5,-2
14:14:18:487805,-5,2,0,-4,-2,-9,-20,-2
14:14:18:493785,0,0,-5,-5,-2,-6,-11,1
14:14:18:502035,0,0,-5,-5,-2,-6,-11,1
14:14:18:502779,2,-2,2,-1,-2,-6,-7,-5
14:14:18:517028,-2,-2,-1,-4,-4,0,-7,-6
14:14:18:517837,-2,-2,-1,-4,-4,0,-7,-6
14:14:18:523780,-2,-1,0,-1,-1,1,-2,-4
14:14:18:531375,0,0,-1,0,-3,-5,-3,-1
14:14:18:538860,0,0,-1,0,-3,-5,-3,-1
14:14:18:546338,-2,-3,-2,4,2,6,8,4
14:14:18:553837,0,0,-2,1,2,1,4,-1
14:14:18:561972,0,0,-2,1,2,1,4,-1
14:14:18:562797,-1,1,-4,1,6,4,0,-3
14:14:18:576946,0,0,-2,-2,-2,-1,-11,-5
14:14:18:577785,0,0,-2,-2,-2,-1,-11,-5
14:14:18:583893,-3,3,-2,-2,2,0,3,-3
14:14:18:591285,-1,-1,2,0,0,-1,1,-3
14:14:18:598829,-1,-1,2,0,0,-1,1,-3
14:14:18:606301,-1,-2,0,0,-1,1,-11,-2
14:14:18:613826,1,-2,1,3,2,6,15,3
14:14:18:622008,1,-2,1,3,2,6,15,3
14:14:18:622795,-3,-3,0,-8,-5,-8,-1,-2
14:14:18:637003,0,-2,1,6,7,4,6,4
14:14:18:637827,0,-2,1,6,7,4,6,4
14:14:18:643829,0,-2,-3,-3,-1,0,4,1
14:14:18:651363,-4,-1,-1,-3,0,0,-5,-5
14:14:18:658833,-4,-1,-1,-3,0,0,-5,-5
14:14:18:666313,-1,0,1,-5,-7,-3,-6,0
14:14:18:673866,-2,-4,0,1,-1,-4,-11,-6
14:14:18:682076,-2,-4,0,1,-1,-4,-11,-6
14:14:18:682794,-2,-3,0,6,2,3,5,0
14:14:18:705141,-2,-2,-8,-5,-9,-9,-4,-4
14:14:18:705907,-2,-2,-8,-5,-9,-9,-4,-4
14:14:18:706783,-2,-2,-2,0,1,2,2,-1
14:14:18:711248,0,-3,2,0,1,0,-18,1
14:14:18:718915,0,-3,2,0,1,0,-18,1
14:14:18:726266,4,1,-4,2,2,-1,0,-1
14:14:18:733887,-1,3,2,-5,-1,-8,-4,0
14:14:18:742058,-1,3,2,-5,-1,-8,-4,0
14:14:18:742802,-4,-2,1,1,3,7,-3,-2
14:14:18:756988,-1,-3,-1,-4,-4,-3,-8,-4
14:14:18:757827,-1,-3,-1,-4,-4,-3,-8,-4
14:14:18:763878,1,-2,-4,-2,-3,-3,-8,-8
14:14:18:771258,-1,0,-1,2,-5,0,6,2
14:14:18:778867,-1,0,-1,2,-5,0,6,2
14:14:18:786342,-1,-2,-3,-2,-6,-8,-4,2
14:14:18:793794,-2,-1,0,-1,4,-1,7,2
14:14:18:802087,-2,-1,0,-1,4,-1,7,2
14:14:18:802789,-3,-1,-2,-1,-1,1,1,0
14:14:18:817088,-2,-3,-1,-2,-3,-4,-2,-3
14:14:18:817862,-2,-3,-1,-2,-3,-4,-2,-3
14:14:18:823832,0,-3,0,-1,6,7,8,2
14:14:18:831349,0,0,1,-4,-1,1,7,1
14:14:18:838879,0,0,1,-4,-1,1,7,1
14:14:18:846312,-2,-1,-4,5,-3,-1,-1,-1
14:14:18:853837,-1,-1,-2,3,-6,2,0,0
14:14:18:861925,-1,-1,-2,3,-6,2,0,0
14:14:18:862785,0,-1,-2,-7,-5,-6,-4,-3
14:14:18:876977,-2,1,-3,-1,1,2,-8,-2
14:14:18:877789,-2,1,-3,-1,1,2,-8,-2
14:14:18:883891,-1,0,1,2,-1,-1,-12,-1
14:14:18:891291,0,-1,1,-5,-2,-3,2,-2
14:14:18:898940,0,-1,1,-5,-2,-3,2,-2
14:14:18:906305,0,-4,2,0,3,0,4,-4
14:14:18:913887,0,0,0,0,0,-1,8,0
14:14:18:921988,0,0,0,0,0,-1,8,0
14:14:18:922791,-3,1,-3,-7,-3,-3,2,4
14:14:18:936962,-4,0,-3,2,1,-3,-3,0
14:14:18:937799,-4,0,-3,2,1,-3,-3,0
14:14:18:943887,-1,0,-3,-4,-1,-4,0,0
14:14:18:951410,0,0,0,0,0,1,-4,-3
14:14:18:958793,0,0,0,0,0,1,-4,-3
14:14:18:966292,2,-2,2,-4,-2,-3,-4,0
14:14:18:973767,-1,-3,-1,2,1,6,-2,-1
14:14:18:982127,-1,-3,-1,2,1,6,-2,-1
14:14:18:982810,-2,0,-5,0,-11,-7,-2,-6
14:14:18:997101,-2,-2,-4,-1,2,4,-2,0
14:14:18:997790,-2,-2,-4,-1,2,4,-2,0
14:14:19:3756,0,-1,-1,-3,0,1,-8,-2
14:14:19:11250,1,-1,-3,-6,-7,-1,13,2
14:14:19:18922,1,-1,-3,-6,-7,-1,13,2
14:14:19:26275,0,1,4,4,4,-2,0,1
14:14:19:33911,-1,-1,1,-1,2,-1,-5,2
14:14:19:41991,-1,-1,1,-1,2,-1,-5,2
14:14:19:42797,-2,-2,-2,-2,-6,-6,16,-1
14:14:19:57036,0,0,-4,-2,-6,2,0,-1
14:14:19:57765,0,0,-4,-2,-6,2,0,-1
14:14:19:63943,-1,0,-2,-3,-2,-5,-10,-3
14:14:19:71276,0,-2,0,0,2,-1,-5,0
14:14:19:78862,0,-2,0,0,2,-1,-5,0
14:14:19:86334,-2,-2,-1,-1,-1,5,-4,0
14:14:19:93783,1,0,0,3,0,-6,-3,-3
14:14:19:102046,1,0,0,3,0,-6,-3,-3
14:14:19:102800,2,1,0,0,5,6,7,1
14:14:19:117068,-2,0,-1,-4,-5,0,6,2
14:14:19:117864,-2,0,-1,-4,-5,0,6,2
14:14:19:123805,-1,-1,-5,3,5,13,3,-1
14:14:19:131302,-2,-2,-2,-1,-2,-9,-9,-7
14:14:19:138857,-2,-2,-2,-1,-2,-9,-9,-7
14:14:19:146310,-3,-2,0,0,-8,-10,2,-4
14:14:19:153792,0,-1,4,0,-1,6,1,2
14:14:19:161915,0,-1,4,0,-1,6,1,2
14:14:19:162825,-1,0,-21,-1,-3,-6,-8,-2
14:14:19:176987,-2,-2,-7,0,-1,0,2,-2
14:14:19:177796,-2,-2,-7,0,-1,0,2,-2
14:14:19:183921,-2,-4,10,-1,-4,2,-1,4
14:14:19:191314,-1,-1,3,3,0,-5,-4,1
14:14:19:198806,-1,-1,3,3,0,-5,-4,1
14:14:19:206306,-4,0,3,-1,5,-7,0,1
14:14:19:213871,1,0,2,4,13,10,11,4
14:14:19:221312,1,0,2,4,13,10,11,4
14:14:19:228734,-1,3,2,-3,-9,-2,11,-4
14:14:19:236955,2,1,1,-1,-7,-6,-5,-4
14:14:19:237776,2,1,1,-1,-7,-6,-5,-4
14:14:19:243807,1,1,1,-5,-3,-3,-16,-3
14:14:19:259452,-6,-2,0,-1,0,10,0,0
14:14:19:260268,-6,-2,0,-1,0,10,0,0
14:14:19:266357,-1,-4,0,2,2,-2,-6,-2
14:14:19:273778,1,0,-2,-7,-7,-14,-11,-1
14:14:19:281334,1,0,-2,-7,-7,-14,-11,-1
14:14:19:288873,-1,1,-2,-6,-3,-3,-4,-4
14:14:19:297121,-4,-1,-5,-2,-6,0,-5,-3
14:14:19:297774,-4,-1,-5,-2,-6,0,-5,-3
14:14:19:303854,-5,-3,3,5,3,1,-1,0
14:14:19:319522,-1,-3,1,-6,-2,-4,-1,-5
14:14:19:320279,-1,-3,1,-6,-2,-4,-1,-5
14:14:19:326245,1,1,0,2,-2,2,5,2
14:14:19:333850,0,3,2,-2,-7,-2,-3,-1
14:14:19:341283,0,3,2,-2,-7,-2,-3,-1
14:14:19:348825,2,-2,-5,1,3,-2,10,0
14:14:19:356997,1,-1,-2,-4,-5,-12,-6,-2
14:14:19:357801,1,-1,-2,-4,-5,-12,-6,-2
14:14:19:363901,-6,-4,1,0,-2,-3,-18,-5
14:14:19:379483,-1,-3,-4,-4,-1,-1,12,-4
14:14:19:380299,-1,-3,-4,-4,-1,-1,12,-4
14:14:19:386312,2,2,-5,-2,-4,1,-1,0
14:14:19:393802,-4,-1,0,3,3,4,-6,0
14:14:19:401364,-4,-1,0,3,3,4,-6,0
14:14:19:408780,-3,-3,1,0,-5,1,-2,-2
14:14:19:417032,-2,0,0,0,2,4,8,3
14:14:19:417816,-2,0,0,0,2,4,8,3
14:14:19:423811,-1,-1,0,-5,2,-1,1,0
14:14:19:439509,1,-1,-1,0,3,-4,-4,-4
14:14:19:440302,1,-1,-1,0,3,-4,-4,-4
14:14:19:446366,0,-1,1,2,8,-1,1,0
14:14:19:453872,0,-1,-1,-3,-3,-6,-4,-1
14:14:19:461300,0,-1,-1,-3,-3,-6,-4,-1
14:14:19:468919,-3,-2,-2,-2,-6,-1,1,1
14:14:19:476970,0,1,-2,-2,-3,6,-2,-1
14:14:19:477797,0,1,-2,-2,-3,6,-2,-1
14:14:19:483836,0,-1,-4,-1,6,-1,-7,-1
14:14:19:499496,0,-3,-3,2,-4,-1,1,-4
14:14:19:500249,0,-3,-3,2,-4,-1,1,-4
14:14:19:506319,-1,-2,1,3,-4,9,12,5
14:14:19:513916,3,-1,-1,-4,-4,-6,11,4
14:14:19:521347,3,-1,-1,-4,-4,-6,11,4
14:14:19:528763,1,0,-1,2,7,2,3,0
14:14:19:536954,-8,-3,-3,2,2,-1,8,-2
14:14:19:537815,-8,-3,-3,2,2,-1,8,-2
14:14:19:543787,-3,-1,3,5,4,7,11,1
14:14:19:559422,-1,-1,-4,1,0,-4,-8,-6
14:14:19:560237,-1,-1,-4,1,0,-4,-8,-6
14:14:19:566332,3,1,-1,-7,-12,-6,14,0
14:14:19:581961,0,-2,0,3,0,0,8,1
14:14:19:582807,0,-2,0,3,0,0,8,1
14:14:19:588779,-1,-2,1,2,-1,-1,-9,-5
14:14:19:597126,2,3,1,-3,-1,3,9,3
14:14:19:597785,2,3,1,-3,-1,3,9,3
14:14:19:603772,-2,-5,-5,-4,-5,-5,-6,0
14:14:19:619537,-3,-3,1,3,3,1,-9,-4
14:14:19:620258,-3,-3,1,3,3,1,-9,-4
14:14:19:626236,-3,2,0,-5,-2,-7,-14,-5
14:14:19:633940,3,0,-1,-1,0,3,-5,-1
14:14:19:641340,3,0,-1,-1,0,3,-5,-1
14:14:19:648767,0,-2,-4,-2,-2,2,-4,-1
14:14:19:665158,-4,-1,-2,4,-2,-1,-3,1
14:14:19:665917,-4,-1,-2,4,-2,-1,-3,1
14:14:19:666780,-2,1,1,-1,3,-3,-15,-3
14:14:19:679453,0,-1,-1,-1,-4,0,-6,-1
14:14:19:680265,0,-1,-1,-1,-4,0,-6,-1
14:14:19:686334,-2,0,-2,-1,-5,-4,-6,-2
14:14:19:693804,-1,1,0,2,7,5,22,8
14:14:19:701353,-1,1,0,2,7,5,22,8
14:14:19:708758,-1,0,-1,1,2,2,2,4
14:14:19:717137,-2,0,1,-3,-6,-5,-22,-5
14:14:19:717810,-2,0,1,-3,-6,-5,-22,-5
14:14:19:723777,3,1,-3,-5,0,-7,3,-1
14:14:19:739466,-1,-4,-5,-2,3,5,-13,-3
14:14:19:740311,-1,-4,-5,-2,3,5,-13,-3
14:14:19:746292,-3,-3,0,3,-1,2,8,-1
14:14:19:753778,-1,-4,1,0,1,1,-1,-3
14:14:19:761337,-1,-4,1,0,1,1,-1,-3
14:14:19:768967,0,-2,-4,-2,-2,0,-2,-1
14:14:19:776989,-2,-1,3,-6,-6,0,1,-2
14:14:19:777816,-2,-1,3,-6,-6,0,1,-2
14:14:19:783910,2,-2,-2,-8,-8,2,3,0
14:14:19:799479,0,-1,-5,-2,-4,-10,1,-2
14:14:19:800246,0,-1,-5,-2,-4,-10,1,-2
14:14:19:806285,-4,-2,-1,-5,-2,-9,-9,-5
14:14:19:813880,-5,1,-5,1,0,1,-3,-2
14:14:19:821340,-5,1,-5,1,0,1,-3,-2
14:14:19:828812,-2,-5,1,3,-1,2,12,-2
14:14:19:836986,-1,-3,4,-2,-2,-6,-4,-3
14:14:19:837763,-1,-3,4,-2,-2,-6,-4,-3
14:14:19:843795,0,-2,-1,-2,9,8,1,2
14:14:19:859472,-1,2,-7,-2,-1,-1,-3,-4
14:14:19:860261,-1,2,-7,-2,-1,-1,-3,-4
14:14:19:873793,-1,2,-3,-7,-9,-5,4,-5
14:14:19:882072,-1,2,-3,-7,-9,-5,4,-5
14:14:19:882792,0,-2,0,1,7,3,3,1
14:14:19:888885,-3,1,-2,0,-4,-4,6,2
14:14:19:897093,-3,1,-2,0,-4,-4,6,2
14:14:19:897818,-1,-3,-1,-3,-9,-2,2,0
14:14:19:903878,-1,1,3,2,0,-2,-5,0
14:14:19:919561,-1,1,3,2,0,-2,-5,0
14:14:19:920282,-2,-1,-1,0,5,3,3,2
14:14:19:926268,0,-4,3,-2,-2,-1,6,-4
14:14:19:941956,0,-4,3,-2,-2,-1,6,-4
14:14:19:942778,1,0,-4,-3,0,1,10,1
14:14:19:948824,1,2,-2,1,1,-3,-10,-2
14:14:19:957053,1,2,-2,1,1,-3,-10,-2
14:14:19:957818,-3,-3,-4,-4,-5,-8,-7,-1
14:14:19:963889,-1,-2,-1,8,4,7,1,3
14:14:19:979462,-1,-2,-1,8,4,7,1,3
14:14:19:980287,0,-1,1,-1,-2,2,-3,1
14:14:19:986314,-1,-2,-4,-5,-1,-3,-14,-3
14:14:20:2106,-1,-2,-4,-5,-1,-3,-14,-3
14:14:20:2797,2,-1,-2,1,10,0,-7,-3
14:14:20:8740,-1,-5,-2,2,1,-1,1,-6
14:14:20:17070,-1,-5,-2,2,1,-1,1,-6
14:14:20:17841,-2,-1,2,2,-2,-3,-4,0
14:14:20:23746,-1,0,1,-2,0,-1,-13,0
14:14:20:39489,-1,0,1,-2,0,-1,-13,0
14:14:20:40251,-2,2,1,2,1,4,0,-1
14:14:20:46237,0,1,-4,-1,-4,-8,2,-1
14:14:20:62009,0,1,-4,-1,-4,-8,2,-1
14:14:20:62776,-1,-3,-1,-1,2,-3,-12,2
14:14:20:68887,-3,0,-1,1,2,0,1,1
14:14:20:76963,-3,0,-1,1,2,0,1,1
14:14:20:77770,1,1,-6,-5,-5,-9,2,-3
14:14:20:83910,1,-4,-1,2,-3,1,0,-3
14:14:20:99474,1,-4,-1,2,-3,1,0,-3
14:14:20:100266,0,-3,3,-3,-2,-2,5,-5
14:14:20:106271,-1,-1,1,3,-1,6,2,1
14:14:20:122019,-1,-1,1,3,-1,6,2,1
14:14:20:122833,-1,-3,2,2,6,6,6,4
14:14:20:128816,-2,-2,0,1,2,-2,-11,-3
14:14:20:137076,-2,-2,0,1,2,-2,-11,-3
14:14:20:137824,-4,0,-1,-5,-6,-3,4,-3
14:14:20:143751,2,1,-2,-5,2,1,7,0
14:14:20:159527,2,1,-2,-5,2,1,7,0
14:14:20:160296,-1,1,-4,-1,-2,-5,-9,-3
14:14:20:166360,-1,0,-4,-5,-8,-10,-9,2
14:14:20:182140,-1,0,-4,-5,-8,-10,-9,2
14:14:20:182825,2,-1,-1,2,-3,0,-3,0
14:14:20:188847,-1,0,1,-2,5,1,5,-1
14:14:20:197115,-1,0,1,-2,5,1,5,-1
14:14:20:197854,-1,1,0,0,-1,2,4,0
14:14:20:211304,-2,-4,-5,-2,-5,-3,0,2
14:14:20:219579,-2,-4,-5,-2,-5,-3,0,2
14:14:20:220299,-2,-3,-2,-2,-2,2,-1,2
14:14:20:226236,1,-4,-2,-4,-1,1,-6,-4
14:14:20:241981,1,-4,-2,-4,-1,1,-6,-4
14:14:20:242779,0,2,1,0,-2,-7,-5,0
14:14:20:248841,-1,-1,-1,-1,0,-2,-14,-4
14:14:20:256989,-1,-1,-1,-1,0,-2,-14,-4
14:14:20:257882,-3,-4,-2,-2,2,3,-1,-5
14:14:20:271328,0,2,-4,0,-4,-4,-4,0
14:14:20:287719,0,2,-4,0,-4,-4,-4,0
14:14:20:288525,-1,-1,-1,0,1,-1,-5,0
14:14:20:289233,-1,1,2,-1,-3,-4,4,-2
14:14:20:302082,-1,1,2,-1,-3,-4,4,-2
14:14:20:302778,-1,1,0,-3,-3,-2,4,1
14:14:20:308702,-1,-2,-2,0,-3,2,3,1
14:14:20:317054,-1,-2,-2,0,-3,2,3,1
14:14:20:317794,-2,-1,-6,1,-4,-5,-4,-4
14:14:20:331335,0,1,-1,3,2,1,5,-1
14:14:20:339518,0,1,-1,3,2,1,5,-1
14:14:20:340306,-1,0,1,-1,1,2,-4,-3
14:14:20:346261,-2,-1,1,-2,1,3,3,0
14:14:20:362045,-2,-1,1,-2,1,3,3,0
14:14:20:362825,-2,-6,-1,4,-3,4,4,0
14:14:20:368938,-1,-6,0,-1,1,1,5,3
14:14:20:376965,-1,-6,0,-1,1,1,5,3
14:14:20:377800,1,1,1,-2,-2,-8,-3,-1
14:14:20:391332,-2,0,-3,0,-2,1,30,1
14:14:20:399549,-2,0,-3,0,-2,1,30,1
14:14:20:400327,-1,-2,-2,-1,1,1,-3,-5
14:14:20:406270,-4,0,1,-2,1,-1,-6,-6
14:14:20:422001,-4,0,1,-2,1,-1,-6,-6
14:14:20:422825,-1,-1,-2,0,1,-3,-10,2
14:14:20:428855,-2,0,0,-2,-3,-2,-13,-2
14:14:20:437022,-2,0,0,-2,-3,-2,-13,-2
14:14:20:437831,0,-3,-1,-2,-4,-3,-3,3
14:14:20:451307,0,-2,0,0,0,-1,1,-1
14:14:20:459458,0,-2,0,0,0,-1,1,-1
14:14:20:460253,-1,-1,-2,-5,-3,-2,2,-6
14:14:20:466399,2,2,1,-3,-2,-2,-2,-2
14:14:20:482011,2,2,1,-3,-2,-2,-2,-2
14:14:20:482781,0,-1,-2,-1,-4,-1,0,1
14:14:20:488859,-2,-2,2,-5,1,-2,-4,-1
14:14:20:497067,-2,-2,2,-5,1,-2,-4,-1
14:14:20:497805,-1,1,0,-1,4,-4,5,-1
14:14:20:511316,-1,-2,-3,0,0,0,-7,0
14:14:20:519543,-1,-2,-3,0,0,0,-7,0
14:14:20:520254,0,0,-7,-1,-3,-2,-1,0
14:14:20:526310,-3,-1,-2,2,-4,1,0,2
14:14:20:533908,-3,-1,-2,2,-4,1,0,2
14:14:20:541297,1,1,0,-2,-1,4,-4,-3
14:14:20:548821,1,3,17,1,2,0,-2,-1
14:14:20:557002,1,3,17,1,2,0,-2,-1
14:14:20:557836,-1,-3,0,-3,1,0,-1,-1
14:14:20:571307,-16,-13,12,2,-3,-3,-1,-2
14:14:20:579494,-16,-13,12,2,-3,-3,-1,-2
14:14:20:580296,2,0,-11,-6,-3,-3,-2,-1
14:14:20:586343,9,2,-11,-1,5,-2,1,3
14:14:20:602012,9,2,-11,-1,5,-2,1,3
14:14:20:602813,-5,-4,6,3,-2,3,1,-1
14:14:20:617705,2,-2,-4,4,-4,1,-2,-3
14:14:20:618436,2,-2,-4,4,-4,1,-2,-3
14:14:20:619200,1,-1,-5,-3,-3,0,3,0
14:14:20:631373,-16,-3,-5,-10,0,1,9,-3
14:14:20:639537,-16,-3,-5,-10,0,1,9,-3
14:14:20:640299,-2,-1,0,-1,-2,-3,-4,0
14:14:20:646291,4,0,-1,-3,0,-8,-8,-1
14:14:20:662012,4,0,-1,-3,0,-8,-8,-1
14:14:20:662778,-4,0,5,1,3,3,3,0
14:14:20:668907,3,7,12,4,-5,-1,-1,1
14:14:20:677011,3,7,12,4,-5,-1,-1,1
14:14:20:677812,0,1,6,-4,-3,-2,-3,-1
14:14:20:691269,1,0,-1,3,1,4,2,2
14:14:20:699539,1,0,-1,3,1,4,2,2
14:14:20:700353,0,-6,-8,-2,5,3,10,2
14:14:20:706293,-3,-7,-14,1,-3,-5,-4,-5
14:14:20:722051,-3,-7,-14,1,-3,-5,-4,-5
14:14:20:722882,0,-10,-8,-3,-3,-2,19,4
14:14:20:728764,16,9,-6,2,5,3,21,6
14:14:20:737061,16,9,-6,2,5,3,21,6
14:14:20:737844,-6,10,5,-4,-1,-4,-8,-7
14:14:20:751328,-4,0,5,4,0,5,-2,-3
14:14:20:759481,-4,0,5,4,0,5,-2,-3
14:14:20:760268,-2,-5,2,1,1,-2,-1,-1
14:14:20:766300,-5,-1,-10,-2,2,-4,-11,-2
14:14:20:782057,-5,-1,-10,-2,2,-4,-11,-2
14:14:20:782788,2,-7,-4,-5,-2,1,-8,-5
14:14:20:788758,-1,-1,-2,-11,-5,-6,-3,-1
14:14:20:797114,-1,-1,-2,-11,-5,-6,-3,-1
14:14:20:797806,-4,-3,-7,-4,-3,-4,-7,0
14:14:20:811241,0,-6,-4,-3,0,3,-5,-1
14:14:20:819543,0,-6,-4,-3,0,3,-5,-1
14:14:20:820241,3,7,7,4,-3,-1,-5,-1
14:14:20:826224,2,0,9,-5,-7,-3,-3,-1
14:14:20:841986,2,0,9,-5,-7,-3,-3,-1
14:14:20:842799,-3,1,-10,-2,-4,-5,0,2
14:14:20:848741,-15,-1,-17,1,1,3,2,-5
14:14:20:856999,-15,-1,-17,1,1,3,2,-5
14:14:20:857822,-2,-4,-10,0,3,-2,2,12
14:14:20:871345,3,5,24,14,-4,-6,-3,-1
14:14:20:879520,3,5,24,14,-4,-6,-3,-1
14:14:20:880251,-2,-1,7,-3,-2,2,-7,-9
14:14:20:886318,0,-3,-21,-12,4,-2,-4,2
14:14:20:902011,0,-3,-21,-12,4,-2,-4,2
14:14:20:902825,5,0,-6,-2,-8,5,-14,-4
14:14:20:908832,3,-5,7,9,16,0,35,12
14:14:20:917079,3,-5,7,9,16,0,35,12
14:14:20:917855,-37,0,8,10,12,10,33,-15
14:14:20:931358,0,-4,-5,-10,-15,-5,-16,-18
14:14:20:939464,0,-4,-5,-10,-15,-5,-16,-18
14:14:20:940295,-3,0,-1,4,-1,-13,8,5
14:14:20:946260,5,-1,-3,-1,2,7,10,20
14:14:20:961973,5,-1,-3,-1,2,7,10,20
14:14:20:962815,0,7,1,-6,-6,-3,-14,-3
14:14:20:977574,-8,-23,-6,-9,-17,-16,-14,-14
14:14:20:978400,-8,-23,-6,-9,-17,-16,-14,-14
14:14:20:979190,3,-27,4,10,36,18,3,2
14:14:20:991282,5,11,-7,6,-11,-3,-14,1
14:14:20:999578,5,11,-7,6,-11,-3,-14,1
14:14:21:264,11,19,52,28,27,-3,-3,-4
14:14:21:6290,-8,2,4,22,24,-2,-11,-9
14:14:21:22028,-8,2,4,22,24,-2,-11,-9
14:14:21:22815,0,-3,-39,-11,-23,-9,-5,-1
14:14:21:28815,0,-5,-5,-18,-8,1,1,3
14:14:21:37033,0,-5,-5,-18,-8,1,1,3
14:14:21:37830,-2,-17,-7,-4,-9,1,-8,-2
14:14:21:51393,-3,-10,-11,-8,-8,0,0,-2
14:14:21:59476,-3,-10,-11,-8,-8,0,0,-2
14:14:21:60264,-6,-15,13,2,-13,-4,-9,-10
14:14:21:66325,7,16,4,4,6,5,12,-1
14:14:21:82035,7,16,4,4,6,5,12,-1
14:14:21:82830,-1,1,-13,-5,-2,-5,16,-7
14:14:21:88776,-2,-5,7,1,-2,-2,-4,-6
14:14:21:97151,-2,-5,7,1,-2,-2,-4,-6
14:14:21:97838,-12,-8,-23,-38,-77,-51,38,-8
14:14:21:111297,7,-8,21,30,81,79,4,19
14:14:21:119592,7,-8,21,30,81,79,4,19
14:14:21:120291,-1,-1,-5,-1,7,10,-38,-18
14:14:21:133907,-4,17,-8,-24,-58,-45,-2,-4
14:14:21:141977,-4,17,-8,-24,-58,-45,-2,-4
14:14:21:142810,6,2,-6,36,50,17,-1,6
14:14:21:148755,-1,1,-3,-14,-23,-12,-17,-1
14:14:21:156345,-1,1,-3,-14,-23,-12,-17,-1
14:14:21:163806,6,12,7,-4,-7,-4,-5,9
14:14:21:171241,-7,-9,-6,7,30,25,-1,-18
14:14:21:179522,-7,-9,-6,7,30,25,-1,-18
14:14:21:180305,3,6,-2,-5,-8,-10,-7,8
14:14:21:193745,0,3,-3,-12,-22,-3,-3,3
14:14:21:202099,0,3,-3,-12,-22,-3,-3,3
14:14:21:202797,4,4,1,-8,-10,-4,-10,7
14:14:21:208718,2,4,14,3,3,-21,-28,-20
14:14:21:216414,2,4,14,3,3,-21,-28,-20
14:14:21:223874,2,-1,-6,-4,9,9,-11,-4
14:14:21:231323,-3,1,-9,-16,-32,-17,-16,1
14:14:21:239457,-3,1,-9,-16,-32,-17,-16,1
14:14:21:240249,4,7,18,22,65,30,21,4
14:14:21:262644,6,7,-7,5,33,-2,-1,3
14:14:21:263431,6,7,-7,5,33,-2,-1,3
14:14:21:264226,1,5,7,13,1,3,-2,3
14:14:21:268793,-10,-17,1,8,-11,-16,5,-4
14:14:21:276324,-10,-17,1,8,-11,-16,5,-4
14:14:21:283844,-1,0,-9,3,12,8,-7,1
14:14:21:291321,-1,0,0,-8,-16,-3,-1,3
14:14:21:299529,-1,0,0,-8,-16,-3,-1,3
14:14:21:300325,0,-4,-3,-4,-9,1,0,-1
14:14:21:313896,10,10,-4,-6,-3,2,8,3
14:14:21:321993,10,10,-4,-6,-3,2,8,3
14:14:21:322863,-11,-20,-6,-13,-12,-11,-11,-19
14:14:21:328794,-7,-2,-6,-7,7,15,2,6
14:14:21:336428,-7,-2,-6,-7,7,15,2,6
14:14:21:343825,2,11,13,-1,-14,0,-6,0
14:14:21:351375,-4,-5,-16,6,3,-7,0,-8
14:14:21:359428,-4,-5,-16,6,3,-7,0,-8
14:14:21:360208,0,-5,-9,-19,-12,-2,-4,6
14:14:21:373765,3,5,15,5,20,5,0,3
14:14:21:382080,3,5,15,5,20,5,0,3
14:14:21:382881,-4,-5,22,-13,-10,5,6,2
14:14:21:388860,-2,-5,-12,-22,-7,-4,-2,-1
14:14:21:396320,-2,-5,-12,-22,-7,-4,-2,-1
14:14:21:403845,1,2,-11,-7,-13,-12,1,-2
14:14:21:411277,-4,-3,2,-12,-21,-11,-1,-1
14:14:21:419569,-4,-3,2,-12,-21,-11,-1,-1
14:14:21:420314,2,7,3,5,0,-6,-3,-1
14:14:21:433864,-5,-10,-6,14,-5,6,7,-2
14:14:21:441938,-5,-10,-6,14,-5,6,7,-2
14:14:21:442817,-3,-9,-12,-12,-11,-3,-4,-6
14:14:21:448877,1,3,24,5,1,-15,-2,-6
14:14:21:456356,1,3,24,5,1,-15,-2,-6
14:14:21:463851,-1,-16,-3,-2,0,5,5,13
14:14:21:471270,-8,-10,-10,-10,-4,-6,36,37
14:14:21:479526,-8,-10,-10,-10,-4,-6,36,37
14:14:21:480269,-21,6,2,8,11,12,81,-5
14:14:21:493824,-5,-10,-3,8,-1,2,-2,-8
14:14:21:502087,-5,-10,-3,8,-1,2,-2,-8
14:14:21:502809,-1,-3,-19,-19,-19,-11,-25,-4
14:14:21:508705,8,8,9,4,6,10,2,-4
14:14:21:516393,8,8,9,4,6,10,2,-4
14:14:21:523852,3,9,12,57,31,-1,-22,-8
14:14:21:531379,-3,1,-2,11,13,8,-20,-8
14:14:21:539517,-3,1,-2,11,13,8,-20,-8
14:14:21:540320,0,14,-4,-12,-11,-2,-12,-14
14:14:21:553763,-1,0,-9,13,8,-8,-18,-21
14:14:21:562015,-1,0,-9,13,8,-8,-18,-21
14:14:21:562819,5,-2,-5,-8,-13,-21,-44,-10
14:14:21:568848,-3,0,2,-7,4,21,5,46
14:14:21:576344,-3,0,2,-7,4,21,5,46
14:14:21:583821,12,-1,0,-8,-4,-15,-7,20
14:14:21:591298,-4,-3,-3,-11,-17,-7,-13,-33
14:14:21:599552,-4,-3,-3,-11,-17,-7,-13,-33
14:14:21:600318,8,4,11,13,29,28,6,10
14:14:21:613917,-2,-5,-27,-14,-9,-10,-5,-9
14:14:21:622001,-2,-5,-27,-14,-9,-10,-5,-9
14:14:21:622838,-5,-2,6,9,18,-2,2,-10
14:14:21:628774,5,20,22,-2,-5,-5,2,5
14:14:21:636414,5,20,22,-2,-5,-5,2,5
14:14:21:643841,-4,-6,-5,0,-10,7,4,4
14:14:21:651399,-2,-10,-13,2,-5,-6,0,-2
14:14:21:659460,-2,-10,-13,2,-5,-6,0,-2
14:14:21:660227,-6,3,-1,-18,-23,-12,-23,-25
14:14:21:673818,-5,3,11,19,18,29,10,-16
14:14:21:682134,-5,3,11,19,18,29,10,-16
14:14:21:682833,1,-5,-7,-14,-6,3,38,34
14:14:21:688865,-3,-2,7,-4,-14,-29,-10,-4
14:14:21:696339,-3,-2,7,-4,-14,-29,-10,-4
14:14:21:703853,9,6,-6,-4,4,2,-4,18
14:14:21:711300,1,-3,9,-5,-4,6,9,8
14:14:21:719525,1,-3,9,-5,-4,6,9,8
14:14:21:720295,-3,-12,-21,-18,-22,-15,-10,-9
14:14:21:733940,9,-16,-31,-5,1,-5,1,2
14:14:21:741916,9,-16,-31,-5,1,-5,1,2
14:14:21:742793,-2,4,-3,-9,-12,1,-15,-9
14:14:21:765200,4,2,-3,-3,5,0,19,-1
14:14:21:765958,4,2,-3,-3,5,0,19,-1
14:14:21:766839,-39,-13,-1,-14,-5,-6,4,3
14:14:21:771277,10,-2,4,0,-9,-5,-17,-6
14:14:21:795121,10,-2,4,0,-9,-5,-17,-6
14:14:21:795906,13,2,11,29,19,17,-2,-6
14:14:21:796741,-5,-6,5,-12,-7,-13,-6,3
14:14:21:802055,-5,-6,5,-12,-7,-13,-6,3
14:14:21:802792,6,2,-3,2,-19,26,-3,-7
14:14:21:808709,19,13,-1,36,49,52,17,34
14:14:21:816360,19,13,-1,36,49,52,17,34
14:14:21:823782,0,-6,5,22,39,20,-11,-3
14:14:21:840144,-17,-28,-94,-28,-47,-11,-5,-16
14:14:21:840961,-17,-28,-94,-28,-47,-11,-5,-16
14:14:21:841797,10,10,16,5,-13,-1,13,7
14:14:21:853872,-8,3,4,-8,0,-10,-5,-3
14:14:21:870181,-8,3,4,-8,0,-10,-5,-3
14:14:21:870949,-5,-11,-9,-18,-8,-25,-7,-19
14:14:21:871822,3,5,37,3,-2,0,4,3
14:14:21:876273,3,5,37,3,-2,0,4,3
14:14:21:883986,4,-5,-10,-25,-3,-12,-1,3
14:14:21:891313,23,4,7,-8,-5,-10,-3,-5
14:14:21:899508,23,4,7,-8,-5,-10,-3,-5
14:14:21:900317,10,11,0,7,-3,-13,5,3
14:14:21:913934,-9,4,14,10,3,-5,7,-6
14:14:21:921995,-9,4,14,10,3,-5,7,-6
14:14:21:922824,-11,0,0,-12,-8,3,3,-4
14:14:21:928892,-7,-2,11,-22,-28,-15,-22,-6
14:14:21:936413,-7,-2,11,-22,-28,-15,-22,-6
14:14:21:943731,4,1,-1,-3,-4,-2,8,3
14:14:21:951293,-7,-2,-6,-17,-11,0,4,2
14:14:21:959459,-7,-2,-6,-17,-11,0,4,2
14:14:21:960248,-4,-12,-10,-12,-21,-16,-10,-2
14:14:21:973861,-9,-1,2,7,3,-10,-16,-17
14:14:21:982003,-9,-1,2,7,3,-10,-16,-17
14:14:21:982864,1,0,5,60,72,48,32,16
14:14:21:988752,-6,0,-9,-19,-2,-6,-6,-2
14:14:21:996363,-6,0,-9,-19,-2,-6,-6,-2
14:14:22:3802,-7,-3,-2,20,-10,-14,0,-6
14:14:22:11250,-1,-4,-3,11,5,7,2,-7
14:14:22:19560,-1,-4,-3,11,5,7,2,-7
14:14:22:20320,-8,-10,-8,-8,-8,-10,-16,-15
14:14:22:33845,-4,-3,8,14,7,-11,-7,1
14:14:22:41982,-4,-3,8,14,7,-11,-7,1
14:14:22:42815,-1,1,-5,-7,-10,-2,14,5
14:14:22:48794,-2,-2,-10,-12,10,2,-5,-2
14:14:22:56334,-2,-2,-10,-12,10,2,-5,-2
14:14:22:63866,-2,-5,-23,-13,7,-6,-9,-1
14:14:22:71316,0,1,6,-7,0,5,9,4
14:14:22:78905,0,1,6,-7,0,5,9,4
14:14:22:86412,4,-1,0,13,-5,-12,-8,-8
14:14:22:93860,-2,-2,-5,21,1,6,-6,0
14:14:22:102056,-2,-2,-5,21,1,6,-6,0
14:14:22:102802,-1,7,13,-1,-9,9,4,-6
14:14:22:117060,-2,-3,0,-14,-10,-21,-4,20
14:14:22:117873,-2,-3,0,-14,-10,-21,-4,20
14:14:22:123846,6,4,0,12,23,31,16,21
14:14:22:131389,1,3,5,-11,-16,-12,11,6
14:14:22:138906,1,3,5,-11,-16,-12,11,6
14:14:22:146330,0,3,2,-19,-7,-13,-3,0
14:14:22:154492,-6,-2,-4,26,14,4,-11,-10
14:14:22:155293,-6,-2,-4,26,14,4,-11,-10
14:14:22:161282,-4,1,-16,-17,-8,-10,-7,-10
14:14:22:176995,1,1,4,-4,-18,-3,7,-10
14:14:22:177820,1,1,4,-4,-18,-3,7,-10
14:14:22:183974,-3,-11,14,-15,-18,-14,-11,-6
14:14:22:191320,0,-10,3,0,13,1,3,-5
14:14:22:198909,0,-10,3,0,13,1,3,-5
14:14:22:206311,2,2,19,6,12,-4,15,13
14:14:22:214603,-3,-2,8,9,-7,6,-3,-8
14:14:22:215301,-3,-2,8,9,-7,6,-3,-8
14:14:22:221265,-5,-1,-12,-8,-31,-36,-24,-16
14:14:22:237016,2,7,-6,6,12,9,9,10
14:14:22:237843,2,7,-6,6,12,9,9,10
14:14:22:243704,0,3,8,12,16,-6,-6,10
14:14:22:251300,-7,-10,-2,17,18,12,3,-3
14:14:22:258817,-7,-10,-2,17,18,12,3,-3
14:14:22:266322,-1,-5,4,-8,6,24,4,-2
14:14:22:274485,-2,1,-27,-17,-10,-6,-6,-7
14:14:22:275262,-2,1,-27,-17,-10,-6,-6,-7
14:14:22:281343,-3,-4,-4,-10,-14,-5,3,-2
14:14:22:297123,0,5,22,11,5,0,-3,-1
14:14:22:297792,0,5,22,11,5,0,-3,-1
14:14:22:303735,0,-3,-10,-30,-22,-11,-12,-8
14:14:22:311289,-5,-3,-1,-10,-25,-13,-9,-14
14:14:22:318914,-5,-3,-1,-10,-25,-13,-9,-14
14:14:22:326268,-3,-1,2,8,-5,12,0,-2
14:14:22:334264,1,-1,3,4,-9,4,-8,6
14:14:22:341912,1,-1,3,4,-9,4,-8,6
14:14:22:342719,1,-2,-26,-7,1,-6,8,14
14:14:22:357051,-2,-4,-6,20,37,23,12,2
14:14:22:357851,-2,-4,-6,20,37,23,12,2
14:14:22:363812,3,9,17,28,44,15,-1,5
14:14:22:371305,-5,-13,-1,-21,-18,-15,-8,-4
14:14:22:378866,-5,-13,-1,-21,-18,-15,-8,-4
14:14:22:386418,-1,-4,-8,-9,-11,-2,-6,-6
14:14:22:394434,1,13,4,1,12,16,-4,-4
14:14:22:395344,1,13,4,1,12,16,-4,-4
14:14:22:401321,-12,-3,8,2,-6,-15,18,-27
14:14:22:416981,2,-2,3,9,11,18,-14,2
14:14:22:417715,2,-2,3,9,11,18,-14,2
14:14:22:423846,0,-4,-3,-2,-34,-11,-13,-4
14:14:22:431347,-2,-2,1,24,34,9,13,1
14:14:22:438895,-2,-2,1,24,34,9,13,1
14:14:22:446324,3,0,4,-4,0,16,2,2
14:14:22:454452,1,7,8,-18,-45,-36,-23,-18
14:14:22:455290,1,7,8,-18,-45,-36,-23,-18
14:14:22:461231,0,-6,-19,0,6,-3,0,-2
14:14:22:476934,-2,9,2,-12,-2,-6,4,0
14:14:22:477841,-2,9,2,-12,-2,-6,4,0
14:14:22:483818,2,6,8,4,10,10,-3,7
14:14:22:491308,1,-2,2,-9,-3,1,8,6
14:14:22:498876,1,-2,2,-9,-3,1,8,6
14:14:22:506255,-7,-2,8,4,-7,-4,9,-3
14:14:22:514558,5,1,-4,-3,-10,2,5,13
14:14:22:515255,5,1,-4,-3,-10,2,5,13
14:14:22:521282,0,-2,3,-15,-19,-10,-33,13
14:14:22:536996,2,-6,-1,-4,13,17,1,6
14:14:22:537849,2,-6,-1,-4,13,17,1,6
14:14:22:543731,1,-3,1,21,6,-14,8,3
14:14:22:551280,-7,-9,-5,7,3,-9,-22,-17
14:14:22:558865,-7,-9,-5,7,3,-9,-22,-17
14:14:22:566305,7,7,37,-10,-10,-6,5,-18
14:14:22:574505,1,-5,-27,0,4,14,8,-2
14:14:22:575268,1,-5,-27,0,4,14,8,-2
14:14:22:581312,10,12,38,0,4,0,-17,-6
14:14:22:597072,3,2,-13,-13,-3,-17,11,12
14:14:22:597828,3,2,-13,-13,-3,-17,11,12
14:14:22:603802,5,-2,-5,-1,-4,2,11,17
14:14:22:611310,-9,2,7,1,-9,2,-10,-22
14:14:22:619024,-9,2,7,1,-9,2,-10,-22
14:14:22:626252,1,5,-21,-7,0,4,7,-4
14:14:22:634536,8,-8,-16,4,-9,11,16,8
14:14:22:635292,8,-8,-16,4,-9,11,16,8
14:14:22:648803,-12,-3,-1,9,11,23,-11,-5
14:14:22:656988,2,25,31,0,3,-11,-20,6
14:14:22:657832,2,25,31,0,3,-11,-20,6
14:14:22:663838,10,3,32,-5,0,-2,-5,25
14:14:22:671283,-22,-20,-13,-3,2,-4,-6,-33
14:14:22:678865,-22,-20,-13,-3,2,-4,-6,-33
14:14:22:686372,-26,-11,-3,8,10,0,-4,-11
14:14:22:694463,14,10,-6,-11,-9,-20,-5,0
14:14:22:695236,14,10,-6,-11,-9,-20,-5,0
14:14:22:701425,2,-5,-22,-4,-7,18,10,2
14:14:22:717012,-3,3,10,0,-8,0,2,-1
14:14:22:717809,-3,3,10,0,-8,0,2,-1
14:14:22:723816,-1,0,10,31,12,-20,18,-2
14:14:22:731375,5,1,8,11,14,10,15,12
14:14:22:738868,5,1,8,11,14,10,15,12
14:14:22:746253,-3,-7,-28,-32,-38,-4,-10,-9
14:14:22:754456,-3,-3,14,-1,-4,-5,-4,7
14:14:22:755281,-3,-3,14,-1,-4,-5,-4,7
14:14:22:761246,-8,-1,-10,-8,10,-3,-13,-6
14:14:22:776944,3,-4,-9,-14,-6,-5,-4,0
14:14:22:777814,3,-4,-9,-14,-6,-5,-4,0
14:14:22:783766,-17,-17,-31,-13,7,6,-2,-27
14:14:22:791301,-6,1,-8,-4,-11,-16,3,3
14:14:22:798861,-6,1,-8,-4,-11,-16,3,3
14:14:22:806269,1,-11,2,-8,-4,-12,2,-1
14:14:22:814547,-3,-8,0,17,6,-5,8,1
14:14:22:815325,-3,-8,0,17,6,-5,8,1
14:14:22:821289,-3,2,-10,21,16,14,3,2
14:14:22:836983,-1,-4,-21,-48,-8,8,9,-2
14:14:22:837838,-1,-4,-21,-48,-8,8,9,-2
14:14:22:843717,10,5,-4,-7,-6,-4,-5,6
14:14:22:851330,0,3,10,9,11,-6,-5,-3
14:14:22:858818,0,3,10,9,11,-6,-5,-3
14:14:22:866332,4,3,1,4,-15,-8,-6,2
14:14:22:874501,-5,4,9,5,-23,-20,-13,-15
14:14:22:875274,-5,4,9,5,-23,-20,-13,-15
14:14:22:881318,2,4,2,10,-5,0,0,4
14:14:22:897033,-2,-4,3,-3,0,1,5,0
14:14:22:897808,-2,-4,3,-3,0,1,5,0
14:14:22:903775,3,1,0,-3,8,1,7,4
14:14:22:911277,-1,-5,-4,13,-10,-6,-3,-2
14:14:22:918964,-1,-5,-4,13,-10,-6,-3,-2
14:14:22:926255,-2,-1,-11,19,48,-14,6,-2
14:14:22:934526,3,3,6,22,29,7,1,4
14:14:22:935303,3,3,6,22,29,7,1,4
14:14:22:941300,2,-1,-3,-14,-15,-4,-8,1
14:14:22:957012,-1,-1,-2,-17,19,6,6,5
14:14:22:957841,-1,-1,-2,-17,19,6,6,5
14:14:22:963967,-2,0,-1,24,35,7,2,-7
14:14:22:971304,-6,0,1,-35,-53,1,-25,-10
14:14:22:978827,-6,0,1,-35,-53,1,-25,-10
14:14:22:986379,1,-1,7,4,17,25,12,14
14:14:22:994470,0,-1,-2,8,17,-2,0,0
14:14:22:995290,0,-1,-2,8,17,-2,0,0
14:14:23:1341,-4,0,-7,-25,-43,-16,-14,-11
14:14:23:17086,0,2,7,2,8,10,-3,4
14:14:23:17787,0,2,7,2,8,10,-3,4
14:14:23:23859,-3,-3,-7,-5,-17,-16,-10,-7
14:14:23:39523,2,-3,16,16,5,-7,-1,-2
14:14:23:40304,2,-3,16,16,5,-7,-1,-2
14:14:23:46250,1,-3,-7,-12,0,14,-10,0
14:14:23:54477,0,-2,-2,25,16,12,12,6
14:14:23:55280,0,-2,-2,25,16,12,12,6
14:14:23:68879,-4,-2,-1,-8,-23,-18,-8,-5
14:14:23:76926,-4,-9,-20,-1,-3,0,20,-7
14:14:23:77775,-4,-9,-20,-1,-3,0,20,-7
14:14:23:83883,-3,-5,2,-11,-16,-15,5,16
14:14:23:99507,-2,-1,-6,-5,-14,-47,-9,-2
14:14:23:100304,-2,-1,-6,-5,-14,-47,-9,-2
14:14:23:106299,3,8,15,-1,8,18,-1,-8
14:14:23:114472,2,3,-29,-12,-9,10,-1,5
14:14:23:115267,2,3,-29,-12,-9,10,-1,5
14:14:23:128806,-6,-12,-35,-21,-12,-16,-5,-3
14:14:23:137029,-4,-5,-9,-15,-9,-4,2,-5
14:14:23:137853,-4,-5,-9,-15,-9,-4,2,-5
14:14:23:143772,0,1,13,-10,2,13,6,-6
14:14:23:159516,0,1,13,-10,2,13,6,-6
14:14:23:160258,-3,-5,2,-15,-21,-5,-26,-8
14:14:23:166351,4,9,21,17,33,16,13,6
14:14:23:174535,4,9,21,17,33,16,13,6
14:14:23:175283,5,11,23,13,11,5,5,16
14:14:23:188763,-2,-17,-41,1,0,0,12,-2
14:14:23:205181,-2,-17,-41,1,0,0,12,-2
14:14:23:205970,-3,3,-11,-15,-10,22,7,0
14:14:23:206757,-4,-3,-16,8,1,-14,-7,-5
14:14:23:219577,-4,-3,-16,8,1,-14,-7,-5
14:14:23:220293,-7,-14,-12,1,-8,-3,5,-5
14:14:23:226287,-1,4,3,-15,-8,-4,-1,-1
14:14:23:234561,-1,4,3,-15,-8,-4,-1,-1
14:14:23:235270,4,6,6,3,29,23,-3,-1
14:14:23:248802,14,-5,-11,-5,-10,-9,-19,0
14:14:23:257017,14,-5,-11,-5,-10,-9,-19,0
14:14:23:257861,2,7,15,4,-21,-11,-12,-4
14:14:23:263951,-13,1,7,9,6,-25,-12,-9
14:14:23:279546,-13,1,7,9,6,-25,-12,-9
14:14:23:280317,2,-10,-8,-21,-2,8,18,9
14:14:23:286393,-16,0,-21,-14,-18,14,-9,-2
14:14:23:302120,-16,0,-21,-14,-18,14,-9,-2
14:14:23:302887,-2,2,1,39,11,-11,2,8
14:14:23:308810,-2,-3,18,-12,-27,-15,-9,-8
14:14:23:316992,-2,-3,18,-12,-27,-15,-9,-8
14:14:23:317895,0,-5,1,22,14,1,5,-2
14:14:23:323839,11,17,20,14,16,3,7,2
14:14:23:339483,11,17,20,14,16,3,7,2
14:14:23:340223,-7,-3,6,-5,-5,-2,-16,-8
14:14:23:346292,1,10,6,8,12,-2,3,5
14:14:23:362050,1,10,6,8,12,-2,3,5
14:14:23:362807,-4,-10,-11,-6,11,6,11,12
14:14:23:368859,8,13,17,2,-15,10,5,7
14:14:23:376927,8,13,17,2,-15,10,5,7
14:14:23:377726,3,5,6,-6,-3,3,3,-6
14:14:23:383836,0,-8,11,-6,-8,-17,-7,-4
14:14:23:399539,0,-8,11,-6,-8,-17,-7,-4
14:14:23:400303,1,4,-4,-10,-3,-19,-8,-3
14:14:23:406283,4,13,-4,-11,-10,3,-8,-2
14:14:23:413959,4,13,-4,-11,-10,3,-8,-2
14:14:23:421341,-6,-17,-32,-9,10,-3,6,0
14:14:23:428775,-7,-4,11,-6,-17,-14,-4,0
14:14:23:436961,-7,-4,11,-6,-17,-14,-4,0
14:14:23:437815,5,8,1,10,31,29,-8,0
14:14:23:443724,-3,-8,-7,-5,7,-10,-3,-5
14:14:23:459453,-3,-8,-7,-5,7,-10,-3,-5
14:14:23:460233,-5,4,2,-11,-15,4,-10,-11
14:14:23:466392,5,-13,-39,-16,15,5,-1,-4
14:14:23:474251,5,-13,-39,-16,15,5,-1,-4
14:14:23:481268,-8,-31,-10,10,-3,2,-4,-3
14:14:23:488778,-3,3,15,27,7,6,7,-1
14:14:23:497077,-3,3,15,27,7,6,7,-1
14:14:23:497803,2,4,-7,13,5,-2,-1,-5
14:14:23:503764,-10,-21,-9,-17,-20,-13,7,-2
14:14:23:519534,-10,-21,-9,-17,-20,-13,7,-2
14:14:23:520312,6,9,15,3,-11,2,-3,2
14:14:23:526225,0,-5,6,-2,6,15,1,3
14:14:23:534678,0,-5,6,-2,6,15,1,3
14:14:23:535287,-12,-16,-16,-20,-25,-22,-11,-5
14:14:23:548812,0,7,1,17,18,11,-5,0
14:14:23:556972,0,7,1,17,18,11,-5,0
14:14:23:557755,7,20,-4,-26,-16,-1,12,8
14:14:23:563864,-10,-15,-8,5,-39,-17,-13,-4
14:14:23:579507,-10,-15,-8,5,-39,-17,-13,-4
14:14:23:580327,6,13,18,18,4,32,7,-7
14:14:23:586393,6,20,1,7,30,27,34,4
14:14:23:594504,6,20,1,7,30,27,34,4
14:14:23:595294,0,14,13,-8,-7,-39,-3,-2
14:14:23:608788,-8,-17,-22,-16,-13,-11,-11,-5
14:14:23:617061,-8,-17,-22,-16,-13,-11,-11,-5
14:14:23:617828,1,0,7,3,12,0,0,-2
14:14:23:623824,0,-2,-30,-11,-1,-10,-5,3
14:14:23:639477,0,-2,-30,-11,-1,-10,-5,3
14:14:23:640257,0,-8,4,-5,-26,-20,-10,-4
14:14:23:646301,1,1,2,7,11,28,9,1
14:14:23:653904,1,1,2,7,11,28,9,1
14:14:23:661257,0,-6,9,-7,-26,-3,-2,-1
14:14:23:668851,0,-1,25,2,-3,13,9,-3
14:14:23:676959,0,-1,25,2,-3,13,9,-3
14:14:23:677822,-9,-16,-38,-21,-8,2,-1,-2
14:14:23:683850,1,-2,-4,28,30,8,-4,-3
14:14:23:699486,1,-2,-4,28,30,8,-4,-3
14:14:23:700316,-3,-1,13,27,11,4,0,-2
14:14:23:706278,-2,-4,-3,-2,10,-2,-7,0
14:14:23:714576,-2,-4,-3,-2,10,-2,-7,0
14:14:23:715268,-2,2,7,-2,6,13,5,1
14:14:23:729242,-1,12,25,10,10,8,10,4
14:14:23:736995,-1,12,25,10,10,8,10,4
14:14:23:737853,1,-8,9,0,8,13,-7,-3
14:14:23:743734,-4,-10,-29,-21,-22,-22,-7,-3
14:14:23:759461,-4,-10,-29,-21,-22,-22,-7,-3
14:14:23:760209,1,3,-4,9,18,-10,-3,-3
14:14:23:766329,-5,0,16,5,12,-5,-13,-2
14:14:23:774493,-5,0,16,5,12,-5,-13,-2
14:14:23:775237,5,13,-13,-12,10,28,0,2
14:14:23:788804,-17,-6,-4,-12,-14,-27,-21,-9
14:14:23:797068,-17,-6,-4,-12,-14,-27,-21,-9
14:14:23:797735,-2,0,-27,1,4,11,6,3
14:14:23:803796,6,-1,-14,6,-5,15,-5,-6
14:14:23:819570,6,-1,-14,6,-5,15,-5,-6
14:14:23:820303,-11,-17,-30,-12,-33,-25,-10,-4
14:14:23:826251,5,-7,-2,-16,-36,-18,-2,3
14:14:23:834556,5,-7,-2,-16,-36,-18,-2,3
14:14:23:835262,6,4,12,12,5,-5,3,8
14:14:23:848817,3,10,49,5,12,15,4,1
14:14:23:856964,3,10,49,5,12,15,4,1
14:14:23:857761,-4,-1,12,-4,-11,4,6,-4
14:14:23:863851,0,0,-9,-5,-7,-7,1,-11
14:14:23:879560,0,0,-9,-5,-7,-7,1,-11
14:14:23:880291,-4,-10,-19,-5,25,12,-3,-6
14:14:23:886422,6,5,3,2,-1,2,5,5
14:14:23:894452,6,5,3,2,-1,2,5,5
14:14:23:895198,-2,-2,12,-8,-30,-31,-11,0
14:14:23:908753,1,-7,-32,-12,21,10,7,2
14:14:23:917114,1,-7,-32,-12,21,10,7,2
14:14:23:917868,1,-4,-23,-4,13,14,16,-2
14:14:23:923771,1,-1,-8,-19,-21,-3,9,1
14:14:23:939482,1,-1,-8,-19,-21,-3,9,1
14:14:23:940284,3,7,28,-1,26,-7,-5,-4
14:14:23:946313,2,0,7,4,26,7,-5,6
14:14:23:953877,2,0,7,4,26,7,-5,6
14:14:23:961290,2,1,-8,-5,-7,10,8,6
14:14:23:968884,-5,3,16,5,1,-5,-8,-2
14:14:23:976948,-5,3,16,5,1,-5,-8,-2
14:14:23:977739,0,1,8,-1,-11,-3,-1,4
14:14:23:991332,0,0,-5,1,9,-1,-4,-2
14:14:23:999584,0,0,-5,1,9,-1,-4,-2
14:14:24:278,-4,-10,-14,-3,-30,-29,-1,-6
14:14:24:6288,2,5,9,7,-17,-20,-15,0
14:14:24:13941,2,5,9,7,-17,-20,-15,0
14:14:24:21340,0,-1,6,10,22,5,-17,2
14:14:24:28840,2,-2,10,15,6,14,4,8
14:14:24:36989,2,-2,10,15,6,14,4,8
14:14:24:37773,2,5,15,3,-32,-18,-5,-2
14:14:24:51365,-3,-2,-22,2,1,-3,-1,-3
14:14:24:59470,-3,-2,-22,2,1,-3,-1,-3
14:14:24:60221,0,-2,-1,-12,-16,-10,-6,-4
14:14:24:66360,-2,-6,-2,-7,-20,1,4,1
14:14:24:73880,-2,-6,-2,-7,-20,1,4,1
14:14:24:81301,-6,-4,-2,0,3,-9,-5,-3
14:14:24:88772,-2,0,12,3,-7,-9,8,-1
14:14:24:97122,-2,0,12,3,-7,-9,8,-1
14:14:24:97853,0,-1,-4,9,23,21,5,11
14:14:24:111335,-3,-10,-21,-31,-6,-9,0,-9
14:14:24:119572,-3,-10,-21,-31,-6,-9,0,-9
14:14:24:120277,0,3,7,9,22,-3,-5,-5
14:14:24:126230,-5,4,11,18,-10,0,-6,-6
14:14:24:133913,-5,4,11,18,-10,0,-6,-6
14:14:24:141313,-5,-3,-2,-3,-10,12,44,-6
14:14:24:148748,1,-1,-1,10,25,-15,7,2
14:14:24:157051,1,-1,-1,10,25,-15,7,2
14:14:24:157862,-2,2,8,-1,2,1,-18,-5
14:14:24:171273,-1,0,-7,-4,-9,17,-3,-1
14:14:24:179475,-1,0,-7,-4,-9,17,-3,-1
14:14:24:180265,-5,-7,-6,-19,-4,-7,-16,-12
14:14:24:186290,3,0,20,5,13,13,11,4
14:14:24:193842,3,0,20,5,13,13,11,4
14:14:24:201292,0,-7,-3,-3,-3,-5,-1,7
14:14:24:208740,-1,2,-1,1,-3,-4,-1,2
14:14:24:217172,-1,2,-1,1,-3,-4,-1,2
14:14:24:217903,2,10,19,12,-5,-1,0,1
14:14:24:231322,-2,1,-1,-8,-6,-19,-11,-6
14:14:24:239524,-2,1,-1,-8,-6,-19,-11,-6
14:14:24:240294,5,2,3,6,5,4,-7,5
14:14:24:246356,-5,-7,-13,-23,-28,0,2,-6
14:14:24:253888,-5,-7,-13,-23,-28,0,2,-6
14:14:24:261327,0,2,11,5,4,-1,-2,1
14:14:24:268898,0,0,6,14,7,7,-3,2
14:14:24:276959,0,0,6,14,7,7,-3,2
14:14:24:277723,-5,-5,-22,-15,-9,-9,-11,-7
14:14:24:291314,4,-1,-5,16,5,-9,-36,2
14:14:24:299533,4,-1,-5,16,5,-9,-36,2
14:14:24:300248,2,-4,-4,-6,1,-4,18,9
14:14:24:306283,-3,-13,3,13,51,36,15,3
14:14:24:313922,-3,-13,3,13,51,36,15,3
14:14:24:321285,0,0,-1,-11,-10,-17,0,-3
14:14:24:328790,-7,1,-2,-14,-21,-10,-8,-7
14:14:24:337001,-7,1,-2,-14,-21,-10,-8,-7
14:14:24:337834,-7,0,-12,8,29,17,4,-2
14:14:24:351316,1,2,-3,3,4,11,3,-1
14:14:24:359463,1,2,-3,3,4,11,3,-1
14:14:24:360222,3,-3,-6,-13,-15,-2,-6,4
14:14:24:366342,-4,-3,-26,-20,-23,-20,-5,-3
14:14:24:373868,-4,-3,-26,-20,-23,-20,-5,-3
14:14:24:381259,-2,-4,-1,6,-5,9,6,-5
14:14:24:388773,-3,-6,0,-16,-21,-25,17,-2
14:14:24:397129,-3,-6,0,-16,-21,-25,17,-2
14:14:24:397827,2,5,4,0,5,12,7,4
14:14:24:411324,-1,-5,-7,1,-8,12,-4,-2
14:14:24:419557,-1,-5,-7,1,-8,12,-4,-2
14:14:24:420301,3,6,11,16,-3,-19,-9,2
14:14:24:426259,0,2,10,-12,6,-12,-9,-6
14:14:24:433890,0,2,10,-12,6,-12,-9,-6
14:14:24:449425,-4,-6,8,-16,-10,9,-13,-1
14:14:24:450171,-2,-3,-7,-11,-4,7,2,-1
14:14:24:456966,-2,-3,-7,-11,-4,7,2,-1
14:14:24:457828,-2,-2,1,8,16,-4,0,-6
14:14:24:471296,-2,-5,-1,-9,-2,-11,-4,-3
14:14:24:479493,-2,-5,-1,-9,-2,-11,-4,-3
14:14:24:480254,0,3,-1,0,0,4,-6,-3
14:14:24:486287,1,5,11,-12,-28,-7,4,-1
14:14:24:493837,1,5,11,-12,-28,-7,4,-1
14:14:24:501343,2,-2,-6,16,9,-8,-11,-1
14:14:24:508730,4,9,5,27,27,17,0,8
14:14:24:517053,4,9,5,27,27,17,0,8
14:14:24:517876,-5,-5,-9,-18,-8,-7,-3,-4
14:14:24:531271,0,0,-1,-14,-6,2,7,3
14:14:24:539513,0,0,-1,-14,-6,2,7,3
14:14:24:540263,-1,3,-2,11,7,5,-1,-2
14:14:24:546303,-1,-4,-1,10,4,-6,-4,-5
14:14:24:553908,-1,-4,-1,10,4,-6,-4,-5
14:14:24:561272,-4,1,7,2,2,-8,-5,-5
14:14:24:568830,2,7,10,24,24,6,10,7
14:14:24:576974,2,7,10,24,24,6,10,7
14:14:24:577836,-2,-3,-16,11,5,11,7,1
14:14:24:591281,0,-2,-13,-5,-10,5,-11,0
14:14:24:599473,0,-2,-13,-5,-10,5,-11,0
14:14:24:600264,-1,-5,20,11,3,13,8,-2
14:14:24:606256,-4,-3,2,14,3,-1,-2,-5
14:14:24:613940,-4,-3,2,14,3,-1,-2,-5
14:14:24:621324,-1,2,9,-3,7,3,-7,-3
14:14:24:628787,1,5,3,2,27,12,7,4
14:14:24:637024,1,5,3,2,27,12,7,4
14:14:24:637777,-6,-17,-12,0,18,-3,4,0
14:14:24:651307,-3,-6,-22,-1,-10,-13,-8,-6
14:14:24:659475,-3,-6,-22,-1,-10,-13,-8,-6
14:14:24:660272,3,0,-7,11,1,-4,2,1
14:14:24:666315,-4,-7,-13,-20,-21,-14,-1,-4
14:14:24:673862,-4,-7,-13,-20,-21,-14,-1,-4
14:14:24:681350,2,6,-5,-25,-33,-21,-5,-1
14:14:24:688814,-6,-2,-7,-6,-5,11,3,-5
14:14:24:697095,-6,-2,-7,-6,-5,11,3,-5
14:14:24:697761,-1,5,7,-8,-25,11,2,-1
14:14:24:711286,7,4,15,8,-9,-8,13,4
14:14:24:719521,7,4,15,8,-9,-8,13,4
14:14:24:720260,0,1,11,-4,-5,4,6,0
14:14:24:726262,-1,-4,6,9,-2,-10,-16,-4
14:14:24:733970,-1,-4,6,9,-2,-10,-16,-4
14:14:24:741229,2,2,-5,-2,-10,-12,3,4
14:14:24:748766,-6,-6,0,13,22,6,1,-5
14:14:24:756992,-6,-6,0,13,22,6,1,-5
14:14:24:757827,-4,6,-3,-13,-10,-17,-13,-15
14:14:24:771715,-1,3,-11,-16,-11,13,10,-1
14:14:24:779498,-1,3,-11,-16,-11,13,10,-1
14:14:24:780221,-2,-6,-11,-14,7,9,-2,14
14:14:24:786272,0,-6,-15,-6,13,-9,0,1
14:14:24:793844,0,-6,-15,-6,13,-9,0,1
14:14:24:801293,2,5,8,6,44,14,7,2
14:14:24:808727,5,12,20,6,-7,-1,1,5
14:14:24:817053,5,12,20,6,-7,-1,1,5
14:14:24:817846,-5,-16,-23,-6,-7,-16,-11,-8
14:14:24:831272,-4,-2,-3,0,2,5,-1,-15
14:14:24:839511,-4,-2,-3,0,2,5,-1,-15
14:14:24:840279,-3,-2,-1,-4,-10,-2,5,18
14:14:24:846288,1,2,5,-2,-18,-31,-15,-16
14:14:24:853874,1,2,5,-2,-18,-31,-15,-16
14:14:24:861236,-2,2,-5,-1,5,8,5,-10
14:14:24:868810,-2,-2,-2,-10,4,6,-10,0
14:14:24:876996,-2,-2,-2,-10,4,6,-10,0
14:14:24:877834,-3,-4,8,-3,2,-4,26,7
14:14:24:891256,4,3,-5,-3,9,26,14,7
14:14:24:899473,4,3,-5,-3,9,26,14,7
14:14:24:900239,-3,-11,-7,2,-34,-8,-13,-12
14:14:24:914515,3,2,1,-4,-15,-10,7,13
14:14:24:915264,3,2,1,-4,-15,-10,7,13
14:14:24:921258,0,3,-16,3,-3,-10,-16,-7
14:14:24:928765,-1,1,-2,8,8,-5,-9,1
14:14:24:936381,-1,1,-2,8,8,-5,-9,1
14:14:24:943747,-2,3,14,-2,5,23,-7,-19
14:14:24:951312,-5,-4,-6,-1,-22,-8,-18,-5
14:14:24:959508,-5,-4,-6,-1,-22,-8,-18,-5
14:14:24:960283,1,-5,3,0,22,15,18,11
14:14:24:974477,-5,-6,-8,-20,1,-14,-3,-4
14:14:24:975250,-5,-6,-8,-20,1,-14,-3,-4
14:14:24:981386,0,-1,-9,-25,-23,7,1,1
14:14:24:988790,-6,-12,-3,-26,-27,1,1,3
14:14:24:996376,-6,-12,-3,-26,-27,1,1,3
14:14:25:3809,1,2,-7,1,-18,-35,-12,-2
14:14:25:11256,3,6,10,12,34,12,4,0
14:14:25:19520,3,6,10,12,34,12,4,0
14:14:25:20230,2,-1,2,-1,5,4,0,3
14:14:25:34592,1,5,7,10,3,-3,-3,-3
14:14:25:35287,1,5,7,10,3,-3,-3,-3
14:14:25:41269,-2,-1,-5,14,37,1,-8,-4
14:14:25:48856,-3,-4,1,-3,8,1,-17,-29
14:14:25:56300,-3,-4,1,-3,8,1,-17,-29
14:14:25:63924,-3,8,15,7,-7,2,25,4
14:14:25:71304,-3,0,2,17,0,5,18,7
14:14:25:79486,-3,0,2,17,0,5,18,7
14:14:25:80252,2,6,17,14,-11,-11,-22,-7
14:14:25:94461,4,-1,-4,10,-9,-1,4,4
14:14:25:95251,4,-1,-4,10,-9,-1,4,4
14:14:25:101298,4,12,16,12,-17,-3,6,-2
14:14:25:108759,-6,-13,-15,-3,-18,-11,-13,1
14:14:25:116359,-6,-13,-15,-3,-18,-11,-13,1
14:14:25:123707,-6,-10,-28,-22,-12,-9,-16,-16
14:14:25:131283,8,0,14,0,7,9,44,77
14:14:25:139485,8,0,14,0,7,9,44,77
14:14:25:140283,0,-1,4,10,27,12,10,6
14:14:25:154453,-1,2,7,1,-14,-6,23,15
14:14:25:155281,-1,2,7,1,-14,-6,23,15
14:14:25:161255,2,1,-5,1,9,-14,2,18
14:14:25:168780,2,5,-4,-13,7,-7,-28,-26
14:14:25:176306,2,5,-4,-13,7,-7,-28,-26
14:14:25:183840,-6,6,1,-5,-12,-10,-9,-8
14:14:25:191243,-5,-2,-2,-26,-34,-9,-7,-15
14:14:25:199522,-5,-2,-2,-26,-34,-9,-7,-15
14:14:25:200306,-7,-25,-49,-27,2,1,-11,-9
14:14:25:214546,2,0,8,10,7,18,-8,-1
14:14:25:215294,2,0,8,10,7,18,-8,-1
14:14:25:221254,3,-1,10,11,17,12,-1,-5
14:14:25:228760,-9,-18,-21,-19,-3,-8,-16,-3
14:14:25:236387,-9,-18,-21,-19,-3,-8,-16,-3
14:14:25:243758,1,11,43,15,5,-22,-28,15
14:14:25:251308,2,1,-10,12,23,21,1,2
14:14:25:259506,2,1,-10,12,23,21,1,2
14:14:25:260298,1,11,-6,-13,-9,18,-2,3
14:14:25:274473,-8,-9,2,10,9,-4,-4,-15
14:14:25:275281,-8,-9,2,10,9,-4,-4,-15
14:14:25:281302,1,-9,0,55,19,16,11,-3
14:14:25:288760,2,12,12,-2,7,-1,-1,-9
14:14:25:296407,2,12,12,-2,7,-1,-1,-9
14:14:25:303813,-2,0,14,8,-13,0,-6,-11
14:14:25:311273,3,5,4,2,1,10,5,6
14:14:25:319569,3,5,4,2,1,10,5,6
14:14:25:320212,-2,-3,39,-9,-8,-9,10,-6
14:14:25:334528,-3,-6,-12,-12,-28,-15,-5,5
14:14:25:335239,-3,-6,-12,-12,-28,-15,-5,5
14:14:25:341314,3,12,-5,-1,1,25,8,0
14:14:25:348880,1,2,3,-19,-10,1,-8,-16
14:14:25:364597,1,2,3,-19,-10,1,-8,-16
14:14:25:365335,1,-10,-13,-20,-14,-22,4,6
14:14:25:371276,-5,-2,3,-6,-17,-41,-11,-8
14:14:25:379464,-5,-2,3,-6,-17,-41,-11,-8
14:14:25:380272,3,-6,-18,8,5,9,6,6
14:14:25:394504,4,-2,-5,7,-6,1,-4,-6
14:14:25:395279,4,-2,-5,7,-6,1,-4,-6
14:14:25:401340,-4,0,-2,-15,-12,5,33,5
14:14:25:408755,-2,0,4,15,39,31,5,8
14:14:25:416279,-2,0,4,15,39,31,5,8
14:14:25:423843,8,-5,11,8,-8,-1,27,52
14:14:25:440157,1,3,-29,10,33,8,-2,-7
14:14:25:440957,1,3,-29,10,33,8,-2,-7
14:14:25:441748,-6,-5,-18,-14,-6,-9,-19,-22
14:14:25:454491,-2,-3,1,-9,-26,-17,-5,-2
14:14:25:455289,-2,-3,1,-9,-26,-17,-5,-2
14:14:25:461244,-6,-14,-39,-39,-18,-17,-12,-12
14:14:25:468879,0,5,15,11,13,10,2,-3
14:14:25:476327,0,5,15,11,13,10,2,-3
14:14:25:483849,-5,0,13,11,0,-18,-15,-10
14:14:25:491249,-5,-11,-10,-11,-22,-12,-5,-15
14:14:25:499446,-5,-11,-10,-11,-22,-12,-5,-15
14:14:25:500232,3,11,20,19,40,-2,-6,-5
14:14:25:514606,2,-7,3,-2,7,15,13,-2
14:14:25:515282,2,-7,3,-2,7,15,13,-2
14:14:25:521246,-8,-19,-24,-15,-8,-2,-9,-18
14:14:25:528797,2,9,15,14,-10,-13,1,11
14:14:25:536375,2,9,15,14,-10,-13,1,11
14:14:25:543775,-2,-3,9,10,6,-2,-9,-4
14:14:25:551330,0,4,-10,1,1,-4,-5,-5
14:14:25:559458,0,4,-10,1,1,-4,-5,-5
14:14:25:560238,2,2,-8,-30,-22,-4,-10,1
14:14:25:574448,-6,-14,-5,4,-5,-9,0,1
14:14:25:575225,-6,-14,-5,4,-5,-9,0,1
14:14:25:581371,-6,0,-3,4,8,8,-11,-10
14:14:25:588798,0,-10,-12,-4,-8,4,0,0
14:14:25:596344,0,-10,-12,-4,-8,4,0,0
14:14:25:603787,0,-2,-25,-2,-11,5,-4,9
14:14:25:611271,-1,0,-6,7,4,-17,-4,7
14:14:25:619536,-1,0,-6,7,4,-17,-4,7
14:14:25:620273,-4,-5,-11,-18,2,10,9,-7
14:14:25:634539,-4,2,-2,10,14,5,-14,-11
14:14:25:635314,-4,2,-2,10,14,5,-14,-11
14:14:25:641232,3,10,7,1,-1,3,-5,6
14:14:25:648796,2,-1,22,-8,-24,9,-2,0
14:14:25:656361,2,-1,22,-8,-24,9,-2,0
14:14:25:663933,-4,-5,9,11,16,13,29,4
14:14:25:671266,-2,-4,4,-2,-17,4,3,1
14:14:25:679524,-2,-4,4,-2,-17,4,3,1
14:14:25:680355,-3,-2,-3,-9,-36,-19,-16,-3
14:14:25:702669,-1,7,9,24,21,9,6,1
14:14:25:703391,-1,7,9,24,21,9,6,1
14:14:25:704246,-4,-10,-2,5,6,-14,-2,-13
14:14:25:708752,-3,-11,-25,-4,20,2,1,-8
14:14:25:716364,-3,-11,-25,-4,20,2,1,-8
14:14:25:723755,3,7,2,-9,-21,-26,-1,-7
14:14:25:731269,3,11,22,8,0,-1,-1,6
14:14:25:739469,3,11,22,8,0,-1,-1,6
14:14:25:740273,0,-3,-15,-1,-11,-7,-23,0
14:14:25:754457,0,0,-10,-23,3,2,4,27
14:14:25:755261,0,0,-10,-23,3,2,4,27
14:14:25:761251,3,-9,19,-7,-19,1,-7,-4
14:14:25:768806,-6,-1,19,6,9,4,-5,-20
14:14:25:776280,-6,-1,19,6,9,4,-5,-20
14:14:25:783813,-4,6,18,-33,-14,-7,0,6
14:14:25:791238,1,0,-3,8,-1,3,11,1
14:14:25:799543,1,0,-3,8,-1,3,11,1
14:14:25:800276,1,6,-4,8,5,11,10,-3
14:14:25:814586,4,9,5,-10,-6,-11,-7,-2
14:14:25:815276,4,9,5,-10,-6,-11,-7,-2
14:14:25:821303,0,-2,-12,7,16,-2,-2,5
14:14:25:828792,-1,1,4,4,26,-2,12,-8
14:14:25:836394,-1,1,4,4,26,-2,12,-8
14:14:25:843767,1,6,-4,6,11,-4,19,-11
14:14:25:851342,-8,-17,-10,-21,-30,-15,-19,-49
14:14:25:858868,-8,-17,-10,-21,-30,-15,-19,-49
14:14:25:866407,3,-6,0,-19,19,16,-2,0
14:14:25:874489,-2,-9,-16,20,7,20,2,-9
14:14:25:875262,-2,-9,-16,20,7,20,2,-9
14:14:25:881363,-6,-3,7,11,-10,-14,-7,9
14:14:25:897091,-2,-8,-4,-12,-15,-31,-11,3
14:14:25:897748,-2,-8,-4,-12,-15,-31,-11,3
14:14:25:903825,3,4,-7,3,14,20,6,14
14:14:25:911310,-3,-4,-26,-5,-25,-7,-20,-22
14:14:25:918915,-3,-4,-26,-5,-25,-7,-20,-22
14:14:25:926220,-3,-7,-17,6,10,20,-1,-16
14:14:25:934497,-1,-5,-8,-13,8,-24,6,24
14:14:25:935310,-1,-5,-8,-13,8,-24,6,24
14:14:25:941268,0,0,-1,7,-18,-1,-12,10
14:14:25:956981,-1,1,13,4,-5,10,3,9
14:14:25:957799,-1,1,13,4,-5,10,3,9
14:14:25:963914,-1,-4,15,23,38,26,16,9
14:14:25:971298,3,5,12,-28,-19,-7,-6,4
14:14:25:978905,3,5,12,-28,-19,-7,-6,4
14:14:25:986386,0,5,8,0,-2,0,-8,-2
14:14:25:994456,2,1,2,-4,4,11,1,28
14:14:25:995293,2,1,2,-4,4,11,1,28
14:14:26:1379,-3,-2,0,-16,-37,-35,-5,-2
14:14:26:17016,3,23,13,18,18,22,16,11
14:14:26:17772,3,23,13,18,18,22,16,11
14:14:26:23771,-2,-8,10,24,5,15,28,1
14:14:26:31290,3,-1,-14,-24,8,22,4,1
14:14:26:38903,3,-1,-14,-24,8,22,4,1
14:14:26:46269,-4,1,13,-11,-26,-24,-18,-5
14:14:26:54476,0,-3,-6,-10,-15,-22,3,8
14:14:26:55302,0,-3,-6,-10,-15,-22,3,8
14:14:26:61278,-1,-14,-33,-28,12,7,6,-3
14:14:26:77000,-5,-1,-1,-2,1,-10,-8,-24
14:14:26:77856,-5,-1,-1,-2,1,-10,-8,-24
14:14:26:83794,-4,3,-5,-9,21,-18,-5,-2
14:14:26:91248,1,-2,0,-8,-20,15,-13,-26
14:14:26:98933,1,-2,0,-8,-20,15,-13,-26
14:14:26:106282,5,5,8,24,9,13,-9,2
14:14:26:114476,-1,-1,0,-3,15,15,2,-2
14:14:26:115217,-1,-1,0,-3,15,15,2,-2
14:14:26:121280,-5,-2,-1,-4,0,2,-22,-21
14:14:26:136998,3,5,8,7,-12,-3,19,20
14:14:26:137853,3,5,8,7,-12,-3,19,20
14:14:26:143771,-3,-10,-11,2,-1,-13,-5,-5
14:14:26:151345,-3,0,4,15,6,-10,-6,-3
14:14:26:158803,-3,0,4,15,6,-10,-6,-3
14:14:26:166389,5,3,0,32,31,17,11,3
14:14:26:174483,-3,-2,-8,5,8,-12,-5,24
14:14:26:175234,-3,-2,-8,5,8,-12,-5,24
14:14:26:181325,-2,2,-5,8,-12,1,-2,2
14:14:26:197049,-4,4,-2,12,31,38,10,-11
14:14:26:197743,-4,4,-2,12,31,38,10,-11
14:14:26:203845,0,3,-8,-18,-18,-6,2,7
14:14:26:211262,-4,-8,-6,-13,2,-14,-4,-3
14:14:26:218902,-4,-8,-6,-13,2,-14,-4,-3
14:14:26:226242,1,-2,1,5,30,17,7,2
14:14:26:234522,-2,-3,-7,0,-30,-29,-9,-11
14:14:26:235263,-2,-3,-7,0,-30,-29,-9,-11
14:14:26:241253,-4,4,0,-10,-4,-4,5,-21
14:14:26:257458,4,-2,-1,19,2,11,31,41
14:14:26:258233,4,-2,-1,19,2,11,31,41
14:14:26:263895,-2,0,4,-6,-9,-11,-2,-8
14:14:26:271332,-1,-4,-12,-12,-6,-7,-12,-20
14:14:26:278859,-1,-4,-12,-12,-6,-7,-12,-20
14:14:26:286349,0,4,-7,-11,-22,-7,-5,2
14:14:26:294512,-1,-5,-13,-20,-1,-13,-4,-5
14:14:26:295274,-1,-5,-13,-20,-1,-13,-4,-5
14:14:26:301362,-3,-5,-12,-40,-10,1,0,-4
14:14:26:317003,6,6,0,3,32,45,7,4
14:14:26:317754,6,6,0,3,32,45,7,4
14:14:26:323733,1,1,1,15,9,2,6,1
14:14:26:331300,0,-1,4,-11,-31,-33,-16,-15
14:14:26:338905,0,-1,4,-11,-31,-33,-16,-15
14:14:26:346281,-2,-5,-20,-11,-2,-2,0,9
14:14:26:354497,-6,-2,6,13,-17,-1,-10,-7
14:14:26:355281,-6,-2,6,13,-17,-1,-10,-7
14:14:26:361271,2,3,11,17,12,12,7,-2
14:14:26:376982,-2,-6,-6,-18,-15,-10,3,0
14:14:26:377839,-2,-6,-6,-18,-15,-10,3,0
14:14:26:383825,-2,-7,6,6,0,19,3,2
14:14:26:391245,-3,1,-5,-6,-4,-20,-4,-3
14:14:26:398878,-3,1,-5,-6,-4,-20,-4,-3
14:14:26:406298,-3,1,10,-11,2,-27,-22,-5
14:14:26:414499,0,1,15,5,26,0,-15,-4
14:14:26:415246,0,1,15,5,26,0,-15,-4
14:14:26:421299,3,2,7,6,-8,10,0,6
14:14:26:436995,-3,8,7,-1,2,-9,-3,-34
14:14:26:437888,-3,8,7,-1,2,-9,-3,-34
14:14:26:443775,1,-8,-16,1,-10,-20,-3,9
14:14:26:459530,1,-8,-16,1,-10,-20,-3,9
14:14:26:460281,1,5,8,4,-16,15,12,2
14:14:26:466360,-3,-6,-20,-15,-32,-25,-9,-9
14:14:26:474511,-3,-6,-20,-15,-32,-25,-9,-9
14:14:26:475285,1,0,4,19,18,16,10,9
14:14:26:481352,-5,-7,-6,-16,-29,-31,-12,1
14:14:26:497125,-5,-7,-6,-16,-29,-31,-12,1
14:14:26:497875,-1,-1,-4,-12,29,-18,-9,3
14:14:26:503808,4,8,24,15,16,8,7,-2
14:14:26:519552,4,8,24,15,16,8,7,-2
14:14:26:520307,-3,-13,-15,-5,-9,0,-5,-3
14:14:26:526233,-4,6,2,8,9,11,-8,3
14:14:26:534597,-4,6,2,8,9,11,-8,3
14:14:26:535289,-4,-4,-11,-2,-26,-14,-8,5
14:14:26:541257,3,0,3,5,10,27,12,-3
14:14:26:556996,3,0,3,5,10,27,12,-3
14:14:26:557855,3,7,7,6,9,-2,-1,6
14:14:26:563845,-2,6,-1,3,-1,6,4,-5
14:14:26:579563,-2,6,-1,3,-1,6,4,-5
14:14:26:580292,1,-4,-1,-2,-11,-21,-6,0
14:14:26:586311,3,-7,7,-9,27,43,18,7
14:14:26:594481,3,-7,7,-9,27,43,18,7
14:14:26:595256,2,3,12,8,11,10,-8,5
14:14:26:601344,-6,-8,-14,5,0,-6,7,-17
14:14:26:617080,-6,-8,-14,5,0,-6,7,-17
14:14:26:617793,-2,-1,-5,6,4,21,0,2
14:14:26:623754,4,8,11,4,9,-5,-18,4
14:14:26:639502,4,8,11,4,9,-5,-18,4
14:14:26:640258,0,-2,-4,7,-4,-17,9,-4
14:14:26:646250,-2,-3,-14,-7,-24,-14,-1,13
14:14:26:654514,-2,-3,-14,-7,-24,-14,-1,13
14:14:26:655276,-1,-2,-8,-12,-10,20,-2,3
14:14:26:661237,-1,4,8,-1,-7,-22,6,-3
14:14:26:676972,-1,4,8,-1,-7,-22,6,-3
14:14:26:677725,-3,-6,-16,-9,-13,-12,-2,-6
14:14:26:683826,-2,-5,-4,3,-16,12,-2,-10
14:14:26:699443,-2,-5,-4,3,-16,12,-2,-10
14:14:26:700231,-1,5,15,11,10,6,4,6
14:14:26:706232,-7,-14,-29,-13,7,-3,-8,-2
14:14:26:714541,-7,-14,-29,-13,7,-3,-8,-2
14:14:26:715271,0,4,13,0,-9,-16,-7,-1
14:14:26:721237,-1,2,7,10,5,-33,-11,-16
14:14:26:736984,-1,2,7,10,5,-33,-11,-16
14:14:26:737801,-3,-5,-10,-20,-30,-18,5,0
14:14:26:751339,6,9,20,26,9,-9,7,2
14:14:26:759468,6,9,20,26,9,-9,7,2
14:14:26:760194,-1,-1,-1,8,6,10,-1,-4
14:14:26:766282,-2,3,7,-2,-4,23,-4,4
14:14:26:774473,-2,3,7,-2,-4,23,-4,4
14:14:26:775226,-1,-14,-3,2,3,-10,3,-3
14:14:26:781272,2,0,8,-7,2,-5,-10,-21
14:14:26:797061,2,0,8,-7,2,-5,-10,-21
14:14:26:797714,-1,-6,-11,3,3,-15,-5,-6
14:14:26:803815,2,-4,0,-5,-14,-3,-11,13
14:14:26:819556,2,-4,0,-5,-14,-3,-11,13
14:14:26:820220,0,9,-6,5,45,37,18,6
14:14:26:826273,-6,-6,-2,-18,-21,-7,-4,-2
14:14:26:834534,-6,-6,-2,-18,-21,-7,-4,-2
14:14:26:835226,-3,-2,19,55,30,-5,-9,-7
14:14:26:848778,1,2,2,10,1,3,5,4
14:14:26:857009,1,2,2,10,1,3,5,4
14:14:26:857761,-2,-7,-6,-14,-19,-8,-19,-3
14:14:26:863883,-2,1,8,1,4,-14,22,11
14:14:26:879541,-2,1,8,1,4,-14,22,11
14:14:26:880319,1,3,3,-17,-14,1,5,-3
14:14:26:886370,-7,-2,-5,-3,-1,3,-32,-10
14:14:26:894468,-7,-2,-5,-3,-1,3,-32,-10
14:14:26:895242,3,3,-2,-8,1,11,3,0
14:14:26:908771,1,-2,-17,6,-27,-10,-9,-3
14:14:26:917120,1,-2,-17,6,-27,-10,-9,-3
14:14:26:917912,-1,2,1,-13,-19,11,1,-1
14:14:26:923780,-1,5,6,-8,7,-1,-2,8
14:14:26:939505,-1,5,6,-8,7,-1,-2,8
14:14:26:940300,-2,-6,-8,-20,-13,-28,0,0
14:14:26:946302,1,-1,0,14,3,-5,4,-2
14:14:26:954533,1,-1,0,14,3,-5,4,-2
14:14:26:955305,-3,-1,-3,13,8,13,-10,-2
14:14:26:968846,-3,-5,-1,-7,5,12,13,6
14:14:26:976969,-3,-5,-1,-7,5,12,13,6
14:14:26:977779,1,1,-7,-2,0,-22,-14,-30
14:14:26:983863,0,1,-16,-21,-10,-11,-6,-6
14:14:26:991368,0,1,-16,-21,-10,-11,-6,-6
14:14:26:998793,-5,0,2,11,25,-12,2,-3
14:14:27:6297,-1,-2,-3,-13,8,1,-2,-3
14:14:27:14504,-1,-2,-3,-13,8,1,-2,-3
14:14:27:15252,-1,-2,4,5,4,5,11,10
14:14:27:28837,1,0,23,1,0,3,4,2
14:14:27:37024,1,0,23,1,0,3,4,2
14:14:27:37775,-2,-4,-17,-13,-33,-28,-4,6
14:14:27:43797,1,2,6,22,14,23,5,9
14:14:27:51419,1,2,6,22,14,23,5,9
14:14:27:58725,2,3,12,-5,4,-1,-4,-7
14:14:27:66373,-4,-12,-20,-22,-27,-12,5,-6
14:14:27:74492,-4,-12,-20,-22,-27,-12,5,-6
14:14:27:75238,0,4,-10,6,15,37,20,2
14:14:27:88775,-3,-5,-13,11,52,14,-28,3
14:14:27:97038,-3,-5,-13,11,52,14,-28,3
14:14:27:97713,1,-6,9,-4,6,26,-3,1
14:14:27:103791,2,6,16,-6,10,15,6,2
14:14:27:111331,2,6,16,-6,10,15,6,2
14:14:27:118865,-9,-17,-26,-10,-21,-18,-12,-8
14:14:27:126203,-1,0,11,-1,-30,-34,-2,-1
14:14:27:134567,-1,0,11,-1,-30,-34,-2,-1
14:14:27:135280,5,12,14,11,17,11,10,11
14:14:27:148781,-2,-2,-23,-13,-13,-21,0,-7
14:14:27:156986,-2,-2,-23,-13,-13,-21,0,-7
14:14:27:157733,-3,0,13,10,-9,-6,-4,8
14:14:27:163858,-2,-1,-1,17,35,12,6,-7
14:14:27:171315,-2,-1,-1,17,35,12,6,-7
14:14:27:178778,-8,-7,-12,-23,-18,-20,-13,-4
14:14:27:186319,0,-1,-10,1,-9,6,11,-23
14:14:27:194487,0,-1,-10,1,-9,6,11,-23
14:14:27:195257,-1,-2,3,-18,-15,-17,-24,-3
14:14:27:208730,1,-13,-36,-2,-1,-3,-9,-5
14:14:27:217043,1,-13,-36,-2,-1,-3,-9,-5
14:14:27:217768,-1,2,-7,-5,-5,5,10,4
14:14:27:231973,3,-5,6,7,-8,15,13,12
14:14:27:232773,3,-5,6,7,-8,15,13,12
14:14:27:247020,0,-4,7,3,-8,-1,-9,0
14:14:27:247754,-9,-14,-14,-31,-5,-9,-6,-3
14:14:27:254502,-9,-14,-14,-31,-5,-9,-6,-3
14:14:27:255284,7,12,14,1,4,-3,6,1
14:14:27:268830,-3,-4,-11,-2,-3,-2,-9,7
14:14:27:276956,-3,-4,-11,-2,-3,-2,-9,7
14:14:27:277725,3,1,5,-11,8,8,13,3
14:14:27:283819,0,7,11,-4,2,2,3,6
14:14:27:291304,0,7,11,-4,2,2,3,6
14:14:27:298822,-2,0,5,4,5,-5,-4,-4
14:14:27:306259,2,4,2,-2,-39,-14,-2,6
14:14:27:314550,2,4,2,-2,-39,-14,-2,6
14:14:27:315291,1,1,5,14,22,64,14,1
14:14:27:328799,0,4,-2,-5,-15,-20,-31,-6
14:14:27:337025,0,4,-2,-5,-15,-20,-31,-6
14:14:27:337745,-6,-8,-16,1,3,1,8,21
14:14:27:343718,-3,-6,18,7,-10,20,-3,-4
14:14:27:351384,-3,-6,18,7,-10,20,-3,-4
14:14:27:358708,-1,-7,-20,-4,-6,-19,-13,-7
14:14:27:366279,-6,-7,-10,4,5,-6,8,-7
14:14:27:374477,-6,-7,-10,4,5,-6,8,-7
14:14:27:375281,1,0,-28,0,6,-2,1,0
14:14:27:388740,-1,4,8,13,-10,5,3,0
14:14:27:397042,-1,4,8,13,-10,5,3,0
14:14:27:397746,-7,-4,-13,-11,-13,-37,3,-7
14:14:27:403765,4,-2,13,9,31,17,10,8
14:14:27:411309,4,-2,13,9,31,17,10,8
14:14:27:418934,3,3,0,1,-1,11,-10,-8
14:14:27:426243,-4,-6,-25,-21,-13,-36,-7,-5
14:14:27:434602,-4,-6,-25,-21,-13,-36,-7,-5
14:14:27:435315,4,5,8,-4,-11,-13,4,7
14:14:27:448770,-1,-5,-3,4,40,34,19,8
14:14:27:457021,-1,-5,-3,4,40,34,19,8
14:14:27:457774,-4,-7,14,9,1,-19,-26,-13
14:14:27:463863,1,3,-19,-26,-17,-2,24,24
14:14:27:471364,1,3,-19,-26,-17,-2,24,24
14:14:27:478797,3,-3,14,5,6,42,2,0
14:14:27:486343,4,7,-5,-3,11,27,1,-7
14:14:27:494491,4,7,-5,-3,11,27,1,-7
14:14:27:495213,5,13,-14,-6,-5,-14,14,64
14:14:27:508754,-5,-1,23,25,27,22,8,2
14:14:27:517149,-5,-1,23,25,27,22,8,2
14:14:27:517726,0,1,7,4,4,3,-7,-30
14:14:27:523788,4,5,-6,-12,-6,-24,-5,-1
14:14:27:531346,4,5,-6,-12,-6,-24,-5,-1
14:14:27:538745,-3,-5,-6,-11,0,-4,-6,-12
14:14:27:546268,-2,2,1,15,-7,-7,-14,-12
14:14:27:554493,-2,2,1,15,-7,-7,-14,-12
14:14:27:555273,-2,3,-11,-5,2,22,18,-1
14:14:27:568924,2,5,8,-3,-6,12,6,-9
14:14:27:576958,2,5,8,-3,-6,12,6,-9
14:14:27:577730,-5,-6,-9,-9,4,0,-1,0
14:14:27:583833,-5,-6,2,-6,-23,6,-11,10
14:14:27:591302,-5,-6,2,-6,-23,6,-11,10
14:14:27:598789,0,-1,6,9,-20,6,-7,-14
14:14:27:606250,2,10,10,7,21,2,-2,-1
14:14:27:614597,2,10,10,7,21,2,-2,-1
14:14:27:615323,-1,-7,-2,10,5,-10,-4,-3
14:14:27:628728,-3,-6,-11,-9,-2,-11,-14,-12
14:14:27:636994,-3,-6,-11,-9,-2,-11,-14,-12
14:14:27:637795,-5,-10,-8,-21,-26,-17,-1,-4
14:14:27:643712,-1,-5,1,10,4,-5,3,-2
14:14:27:651380,-1,-5,1,10,4,-5,3,-2
14:14:27:658726,0,4,1,1,-6,-25,-4,-3
14:14:27:666315,0,-8,-8,-4,-33,-23,-8,-10
14:14:27:674525,0,-8,-8,-4,-33,-23,-8,-10
14:14:27:675269,-3,-4,5,6,-4,3,-6,16
14:14:27:688772,3,2,8,20,33,-22,-2,3
14:14:27:697135,3,2,8,20,33,-22,-2,3
14:14:27:697792,-5,-5,-2,-8,-5,-13,-8,-11
14:14:27:703771,-7,-7,-8,-13,-10,-13,-14,8
14:14:27:711330,-7,-7,-8,-13,-10,-13,-14,8
14:14:27:718869,3,9,13,9,17,26,7,1
14:14:27:726261,2,0,-18,1,26,3,1,-4
14:14:27:734559,2,0,-18,1,26,3,1,-4
14:14:27:735280,1,4,10,-2,-13,0,2,-4
14:14:27:748787,-4,0,14,4,13,11,1,-6
14:14:27:756998,-4,0,14,4,13,11,1,-6
14:14:27:757784,1,-1,-22,-5,11,24,17,1
14:14:27:771989,0,8,-3,-25,-30,-8,-15,-5
14:14:27:772793,0,8,-3,-25,-30,-8,-15,-5
14:14:27:778778,-1,-2,9,9,1,34,36,-5
14:14:27:786396,1,-2,-1,-2,20,23,-11,0
14:14:27:793880,1,-2,-1,-2,20,23,-11,0
14:14:27:801402,-2,4,14,3,-6,-10,-24,0
14:14:27:808747,-5,-5,9,0,-17,-19,-5,-19
14:14:27:817034,-5,-5,9,0,-17,-19,-5,-19
14:14:27:817747,-2,-2,6,8,-1,-61,-17,-10
14:14:27:832027,-4,-8,13,40,24,25,16,-3
14:14:27:832721,-4,-8,13,40,24,25,16,-3
14:14:27:838810,0,-4,-10,2,33,33,5,-1
14:14:27:846315,1,2,-6,-13,-26,-43,-7,-3
14:14:27:861997,1,2,-6,-13,-26,-43,-7,-3
14:14:27:862720,-5,-14,-20,-6,-2,-28,13,-10
14:14:27:868848,-3,-5,-5,-7,10,17,28,8
14:14:27:876992,-3,-5,-5,-7,10,17,28,8
14:14:27:877833,5,2,-13,-12,-8,6,-13,3
14:14:27:891929,3,7,-2,-9,-18,-19,2,20
14:14:27:892773,3,7,-2,-9,-18,-19,2,20
14:14:27:898757,-6,-3,2,-6,-5,-37,-15,-5
14:14:27:906260,1,-1,-5,4,-11,-1,-5,6
14:14:27:922015,1,-1,-5,4,-11,-1,-5,6
14:14:27:922792,-1,-2,2,-17,-27,-10,-13,-6
14:14:27:928765,0,3,2,7,8,31,20,-2
14:14:27:936990,0,3,2,7,8,31,20,-2
14:14:27:937780,0,-1,1,-3,8,17,5,1
14:14:27:952085,-9,-2,-3,-20,6,19,-19,-14
14:14:27:952760,-9,-2,-3,-20,6,19,-19,-14
14:14:27:958715,-4,5,12,3,-6,4,-11,0
14:14:27:966279,-3,-19,-32,2,-3,-36,30,4
14:14:27:973908,-3,-19,-32,2,-3,-36,30,4
14:14:27:981291,3,1,-4,4,15,-12,8,17
14:14:27:988790,2,4,-2,7,-16,-22,-12,-17
14:14:27:997108,2,4,-2,7,-16,-22,-12,-17
14:14:27:997886,1,-1,-1,-3,-24,7,-11,-6
14:14:28:11988,-1,1,16,-9,-16,-5,-5,6
14:14:28:12775,-1,1,16,-9,-16,-5,-5,6
14:14:28:18822,-4,1,5,-3,0,-10,-5,-14
14:14:28:26253,1,8,20,-3,-6,3,4,5
14:14:28:33934,1,8,20,-3,-6,3,4,5
14:14:28:41293,-4,-7,-13,-2,8,-14,5,-6
14:14:28:57666,4,6,0,13,33,15,9,0
14:14:28:58457,4,6,0,13,33,15,9,0
14:14:28:59213,-5,-1,8,-8,-13,2,-24,-12
14:14:28:72015,-3,1,-4,6,8,25,-9,-2
14:14:28:72784,-3,1,-4,6,8,25,-9,-2
14:14:28:78787,1,4,2,16,3,3,16,2
14:14:28:86345,-2,-1,3,-9,-15,-3,-8,8
14:14:28:93857,-2,-1,3,-9,-15,-3,-8,8
14:14:28:101328,2,2,12,30,-1,9,2,15
14:14:28:108736,0,-1,-1,10,-3,18,2,-4
14:14:28:117001,0,-1,-1,10,-3,18,2,-4
14:14:28:117756,-2,-5,-4,-20,3,1,1,-6
14:14:28:132136,2,-3,-5,-14,11,8,0,-2
14:14:28:132848,2,-3,-5,-14,11,8,0,-2
14:14:28:138797,4,2,-11,-5,7,38,2,17
14:14:28:146282,-1,-2,1,-11,15,1,-1,2
14:14:28:153808,-1,-2,1,-11,15,1,-1,2
14:14:28:161304,2,0,-2,2,12,8,18,29
14:14:28:168914,-10,-4,-7,-2,-19,-51,-9,-62
14:14:28:177001,-10,-4,-7,-2,-19,-51,-9,-62
14:14:28:177725,-3,-14,-21,-22,6,10,12,0
14:14:28:191708,2,3,-2,-10,0,-25,-10,-2
14:14:28:199483,2,3,-2,-10,0,-25,-10,-2
14:14:28:200285,-1,2,3,-22,-69,-48,0,-7
14:14:28:206309,5,3,8,5,4,35,10,16
14:14:28:213890,5,3,8,5,4,35,10,16
14:14:28:221278,-5,-1,2,-10,-19,-10,-18,-6
14:14:28:228798,-2,-2,9,13,-15,-15,-9,5
14:14:28:236975,-2,-2,9,13,-15,-15,-9,5
14:14:28:237701,2,6,8,21,6,0,10,-21
14:14:28:252066,-1,-1,5,-8,-1,-45,3,8
14:14:28:252793,-1,-1,5,-8,-1,-45,3,8
14:14:28:258714,2,8,-2,-4,18,42,-17,-6
14:14:28:266370,2,3,2,16,12,34,13,9
14:14:28:273849,2,3,2,16,12,34,13,9
14:14:28:281309,-3,-3,-2,18,25,0,4,-1
14:14:28:288760,-4,-6,-10,-10,-22,-18,-4,2
14:14:28:297095,-4,-6,-10,-10,-22,-18,-4,2
14:14:28:297763,0,-4,1,1,10,-3,-5,0
14:14:28:311972,-5,-3,-15,-14,-35,-8,-10,-8
14:14:28:312767,-5,-3,-15,-14,-35,-8,-10,-8
14:14:28:318866,-6,-13,-2,18,11,-21,0,21
14:14:28:326227,6,8,14,8,27,23,-2,10
14:14:28:333904,6,8,14,8,27,23,-2,10
14:14:28:341253,-2,2,-5,-11,-21,-43,-24,-21
14:14:28:348774,1,-1,4,2,-4,-1,-2,8
14:14:28:356968,1,-1,4,2,-4,-1,-2,8
14:14:28:357765,2,-3,1,-7,4,11,-2,-3
14:14:28:371948,-2,-3,4,-19,-37,-44,-2,5
14:14:28:372751,-2,-3,4,-19,-37,-44,-2,5
14:14:28:378749,3,-1,0,8,17,8,13,24
14:14:28:386338,-6,2,-4,-5,33,-17,-24,-10
14:14:28:393902,-6,2,-4,-5,33,-17,-24,-10
14:14:28:401331,-3,0,-4,-9,-14,36,14,-4
14:14:28:408763,4,2,7,16,8,15,7,-1
14:14:28:416960,4,2,7,16,8,15,7,-1
14:14:28:417722,4,5,4,-8,3,-18,0,1
14:14:28:432095,-1,5,15,8,0,17,13,-2
14:14:28:432763,-1,5,15,8,0,17,13,-2
14:14:28:438759,-6,-2,-5,-1,-20,-1,5,-19
14:14:28:446255,1,-11,-10,-2,-12,28,13,18
14:14:28:453782,1,-11,-10,-2,-12,28,13,18
14:14:28:461321,0,0,5,13,-9,-4,-4,-1
14:14:28:468850,-3,-5,-13,-28,-26,3,-11,-15
14:14:28:476932,-3,-5,-13,-28,-26,3,-11,-15
14:14:28:477704,-2,-8,-12,12,13,-4,-28,5
14:14:28:491919,-5,-6,-12,-3,-3,13,-11,-14
14:14:28:492729,-5,-6,-12,-3,-3,13,-11,-14
14:14:28:498819,2,0,-1,-11,3,-14,-22,-9
14:14:28:506378,-1,-8,-11,-10,-7,8,12,47
14:14:28:513901,-1,-8,-11,-10,-7,8,12,47
14:14:28:521264,0,2,5,5,47,53,16,-3
14:14:28:528787,-3,-1,4,3,7,34,15,-16
14:14:28:536989,-3,-1,4,3,7,34,15,-16
14:14:28:537814,0,0,-12,-20,-30,-8,-1,8
14:14:28:551996,-3,-18,-11,1,9,4,-7,-5
14:14:28:552744,-3,-18,-11,1,9,4,-7,-5
14:14:28:558687,0,8,31,-2,-19,-26,0,-13
14:14:28:566313,2,6,8,12,11,22,-11,-13
14:14:28:573826,2,6,8,12,11,22,-11,-13
14:14:28:581303,-2,3,10,16,24,28,20,3
14:14:28:588784,-4,-5,-12,-4,-7,-11,-11,-10
14:14:28:597145,-4,-5,-12,-4,-7,-11,-11,-10
14:14:28:597801,-3,4,-4,-1,-12,2,-14,-9
14:14:28:611974,0,2,-10,-12,7,-21,2,-10
14:14:28:612759,0,2,-10,-12,7,-21,2,-10
14:14:28:618819,-3,-4,-2,-12,1,1,1,-1
14:14:28:626220,-3,-6,1,27,23,-7,-5,-5
14:14:28:633935,-3,-6,1,27,23,-7,-5,-5
14:14:28:641300,-2,6,-4,-9,-22,-25,3,6
14:14:28:648768,3,7,-44,1,11,-4,-10,1
14:14:28:656986,3,7,-44,1,11,-4,-10,1
14:14:28:657770,-3,-9,-16,4,-2,-31,-1,-6
14:14:28:671987,3,11,31,0,-2,-13,-7,0
14:14:28:672788,3,11,31,0,-2,-13,-7,0
14:14:28:678794,5,-3,-9,-7,-1,-2,13,11
14:14:28:694448,-8,-2,4,-10,-20,-27,4,-22
14:14:28:695280,-8,-2,4,-10,-20,-27,4,-22
14:14:28:701335,5,-2,7,-9,-9,18,-4,22
14:14:28:708710,0,-1,0,-18,0,-22,-5,1
14:14:28:716394,0,-1,0,-18,0,-22,-5,1
14:14:28:723790,-3,0,-4,1,0,-2,6,-12
14:14:28:731936,-3,-4,-2,3,-21,8,-1,-5
14:14:28:732801,-3,-4,-2,3,-21,8,-1,-5
14:14:28:738785,-3,-6,-21,-36,-19,-19,-14,-8
14:14:28:754495,0,-3,-1,-5,-17,-3,-7,7
14:14:28:755276,0,-3,-1,-5,-17,-3,-7,7
14:14:28:761264,-5,-6,11,25,15,1,1,-6
14:14:28:768900,4,1,-3,1,5,-2,-5,-2
14:14:28:776334,4,1,-3,1,5,-2,-5,-2
14:14:28:783893,1,5,1,5,24,-12,-24,-23
14:14:28:791924,-11,-8,-5,5,-5,-19,1,-17
14:14:28:792718,-11,-8,-5,5,-5,-19,1,-17
14:14:28:798812,6,7,20,30,9,25,16,4
14:14:28:814571,1,2,-2,-8,-5,16,0,0
14:14:28:815256,1,2,-2,-8,-5,16,0,0
14:14:28:821298,-4,-10,-10,-6,-11,-9,0,6
14:14:28:828814,-1,5,-9,-15,-35,-16,-10,11
14:14:28:836332,-1,5,-9,-15,-35,-16,-10,11
14:14:28:843777,-4,0,1,-8,15,0,-3,-1
14:14:28:852047,-1,-4,5,-3,13,-21,-21,-8
14:14:28:852750,-1,-4,5,-3,13,-21,-21,-8
14:14:28:858684,-3,-1,12,6,11,22,22,14
14:14:28:874461,1,-3,-14,-18,-8,-8,-3,11
14:14:28:875238,1,-3,-14,-18,-8,-8,-3,11
14:14:28:881320,0,-6,-13,-2,-1,19,26,-1
14:14:28:888832,2,-3,10,15,10,22,32,28
14:14:28:896302,2,-3,10,15,10,22,32,28
14:14:28:903759,-2,6,-5,2,1,11,10,-4
14:14:28:911994,-2,7,22,4,3,4,-9,-15
14:14:28:912764,-2,7,22,4,3,4,-9,-15
14:14:28:918828,-4,-8,-12,15,-11,5,-2,0
14:14:28:934497,1,0,13,32,35,26,17,14
14:14:28:935230,1,0,13,32,35,26,17,14
14:14:28:941197,3,3,4,10,-7,-3,-11,-7
14:14:28:948818,-3,-6,-2,-1,14,2,6,-4
14:14:28:956334,-3,-6,-2,-1,14,2,6,-4
14:14:28:963873,-5,1,9,-12,0,-17,0,-8
14:14:28:971996,0,-2,-7,-10,-14,-12,-1,2
14:14:28:972816,0,-2,-7,-10,-14,-12,-1,2
14:14:28:978756,-6,-7,-9,-11,-34,-15,-39,-11
14:14:28:994485,5,5,-6,1,6,9,9,-6
14:14:28:995310,5,5,-6,1,6,9,9,-6
14:14:29:1364,2,7,8,6,19,13,6,2
14:14:29:8716,-1,3,1,1,10,15,-2,4
14:14:29:16335,-1,3,1,1,10,15,-2,4
14:14:29:23784,-1,-2,-9,3,23,3,-9,-11
14:14:29:31980,4,4,-1,4,-15,5,11,0
14:14:29:32748,4,4,-1,4,-15,5,11,0
14:14:29:38812,1,-4,-19,-22,-32,-13,-11,-10
14:14:29:54501,8,-5,12,1,-17,-13,4,53
14:14:29:55288,8,-5,12,1,-17,-13,4,53
14:14:29:61251,3,-6,-5,-4,-1,-13,4,11
14:14:29:68847,-5,7,9,8,-2,-47,-25,-25
14:14:29:76312,-5,7,9,8,-2,-47,-25,-25
14:14:29:83821,-5,-5,-9,-2,-10,-30,-4,-4
14:14:29:91892,5,17,29,21,-3,11,-2,-4
14:14:29:92714,5,17,29,21,-3,11,-2,-4
14:14:29:98807,-2,-4,2,-6,0,-3,2,-4
14:14:29:114526,-7,-8,-16,-15,-9,-7,-8,-6
14:14:29:115218,-7,-8,-16,-15,-9,-7,-8,-6
14:14:29:121293,-4,-10,-2,-16,-31,36,2,-2
14:14:29:128818,-3,-7,-10,-11,-3,-10,-7,3
14:14:29:136374,-3,-7,-10,-11,-3,-10,-7,3
14:14:29:143774,0,0,21,-1,10,-3,22,18
14:14:29:152051,-9,-3,-6,-6,-7,-16,5,-40
14:14:29:152832,-9,-3,-6,-6,-7,-16,5,-40
14:14:29:158692,2,7,3,3,4,0,0,9
14:14:29:174448,-1,1,3,-6,5,34,-3,-1
14:14:29:175228,-1,1,3,-6,5,34,-3,-1
14:14:29:181294,-1,1,4,6,35,-1,7,-5
14:14:29:188840,-7,-10,-10,-26,12,0,-13,-15
14:14:29:196292,-7,-10,-10,-26,12,0,-13,-15
14:14:29:203761,-4,-4,-12,-19,-4,-8,-19,-16
14:14:29:212036,0,-7,-1,-1,-5,12,-2,17
14:14:29:212803,0,-7,-1,-1,-5,12,-2,17
14:14:29:218901,3,-1,9,13,-11,-16,-5,12
14:14:29:234500,3,-1,-3,6,-23,-37,15,8
14:14:29:235248,3,-1,-3,6,-23,-37,15,8
14:14:29:241263,-5,2,2,5,-30,-39,2,-37
14:14:29:248843,1,-5,-8,4,-37,15,25,15
14:14:29:256342,1,-5,-8,4,-37,15,25,15
14:14:29:263834,5,3,-16,-12,-4,-7,4,12
14:14:29:272010,-2,7,5,-4,13,-20,-29,-22
14:14:29:272800,-2,7,5,-4,13,-20,-29,-22
14:14:29:278750,-2,1,14,12,-2,13,-20,6
14:14:29:294457,-6,-17,-16,3,55,-17,-9,-13
14:14:29:295251,-6,-17,-16,3,55,-17,-9,-13
14:14:29:301260,2,6,-13,4,11,-3,-1,4
14:14:29:308713,-4,-4,5,-1,-6,-9,0,-7
14:14:29:316373,-4,-4,5,-1,-6,-9,0,-7
14:14:29:323792,-1,-4,9,8,-17,15,17,5
14:14:29:332015,1,5,2,1,-4,27,3,-2
14:14:29:332762,1,5,2,1,-4,27,3,-2
14:14:29:338792,-4,-2,-17,-18,-23,3,-22,-7
14:14:29:354519,2,4,6,16,17,1,35,10
14:14:29:355312,2,4,6,16,17,1,35,10
14:14:29:361301,0,0,3,8,23,44,10,-4
14:14:29:368918,-6,-10,-16,-16,-48,4,1,-4
14:14:29:376251,-6,-10,-16,-16,-48,4,1,-4
14:14:29:383866,4,10,-24,16,76,39,27,4
14:14:29:391922,4,4,-15,0,2,-4,-23,2
14:14:29:392757,4,4,-15,0,2,-4,-23,2
14:14:29:398835,-7,-8,-1,-22,-31,-28,-28,-3
14:14:29:414518,-3,-3,14,-8,-2,-12,4,0
14:14:29:415233,-3,-3,14,-8,-2,-12,4,0
14:14:29:421245,-4,1,-4,-21,-7,-15,2,-1
14:14:29:428797,-2,2,13,12,0,-9,-11,-2
14:14:29:436384,-2,2,13,12,0,-9,-11,-2
14:14:29:443709,3,3,30,26,26,-3,10,4
14:14:29:452040,-2,-17,-42,-28,9,25,1,-5
14:14:29:452765,-2,-17,-42,-28,9,25,1,-5
14:14:29:458730,-6,-10,-10,-2,-20,-19,-18,-11
14:14:29:474478,8,10,3,15,9,36,6,12
14:14:29:475254,8,10,3,15,9,36,6,12
14:14:29:481305,3,-10,-13,-5,-15,-14,11,4
14:14:29:488759,-9,-9,7,-4,-5,-31,-5,-20
14:14:29:496351,-9,-9,7,-4,-5,-31,-5,-20
14:14:29:503779,9,7,13,13,30,14,16,20
14:14:29:512027,-2,-2,2,-6,2,20,-15,-1
14:14:29:512785,-2,-2,2,-6,2,20,-15,-1
14:14:29:518868,-7,-9,-13,-10,-11,2,-5,29
14:14:29:534578,-2,-1,-2,0,7,5,-13,-8
14:14:29:535319,-2,-1,-2,0,7,5,-13,-8
14:14:29:541240,-1,-4,12,9,9,13,-6,-26
14:14:29:548849,-3,2,-5,-8,-26,-7,4,2
14:14:29:556323,-3,2,-5,-8,-26,-7,4,2
14:14:29:563823,-20,-11,-19,-7,4,7,-2,-17
14:14:29:572003,7,-9,-43,-2,-9,-26,-13,-7
14:14:29:572789,7,-9,-43,-2,-9,-26,-13,-7
14:14:29:586332,5,1,3,-9,-21,-28,-19,-4
14:14:29:594476,5,13,22,12,16,17,13,17
14:14:29:595307,5,13,22,12,16,17,13,17
14:14:29:601328,2,-7,-15,-9,-17,-12,-11,22
14:14:29:608715,1,-14,23,-3,9,-9,6,-1
14:14:29:616412,1,-14,23,-3,9,-9,6,-1
14:14:29:623777,-2,4,14,-10,-20,-23,7,-15
14:14:29:631952,-2,3,3,14,4,26,5,-1
14:14:29:632744,-2,3,3,14,4,26,5,-1
14:14:29:646275,2,-4,-12,-3,5,-1,2,0
14:14:29:654486,-2,0,8,-3,-5,-19,-12,-1
14:14:29:655301,-2,0,8,-3,-5,-19,-12,-1
14:14:29:661313,-2,3,-2,-2,17,10,5,13
14:14:29:676950,-3,8,15,-1,9,13,-14,-9
14:14:29:677765,-3,8,15,-1,9,13,-14,-9
14:14:29:683778,5,6,16,13,24,-5,4,-9
14:14:29:691968,-2,-6,-14,-11,-8,-6,12,10
14:14:29:692771,-2,-6,-14,-11,-8,-6,12,10
14:14:29:706259,-3,6,28,12,-17,-9,-7,-11
14:14:29:714537,2,3,-6,50,6,-27,1,-5
14:14:29:715261,2,3,-6,50,6,-27,1,-5
14:14:29:721254,0,13,19,12,1,14,0,-6
14:14:29:736975,-2,0,3,-15,-10,-15,-9,-2
14:14:29:737746,-2,0,3,-15,-10,-15,-9,-2
14:14:29:743724,-2,-10,-15,-12,-7,-19,7,3
14:14:29:752043,-2,-10,-15,-12,-7,-19,7,3
14:14:29:752792,3,8,-3,1,-1,19,8,-2
14:14:29:766290,-4,-6,-32,-13,-3,-5,-34,-10
14:14:29:774511,-4,-6,-32,-13,-3,-5,-34,-10
14:14:29:775278,-8,-4,-5,0,-5,-41,13,-10
14:14:29:781282,6,3,-11,18,34,2,10,2
14:14:29:797061,6,3,-11,18,34,2,10,2
14:14:29:797753,2,1,15,-2,-27,19,-19,1
14:14:29:803750,0,-4,-2,2,-30,-24,6,-12
14:14:29:811986,0,-4,-2,2,-30,-24,6,-12
14:14:29:812753,3,0,-3,-10,-1,12,12,14
14:14:29:826258,-6,-2,-2,-7,-17,0,-15,-6
14:14:29:834552,-6,-2,-2,-7,-17,0,-15,-6
14:14:29:835274,-2,-1,-3,21,13,10,13,1
14:14:29:841255,4,12,24,-1,0,9,9,31
14:14:29:857372,4,12,24,-1,0,9,9,31
14:14:29:864525,0,-4,-5,-23,-10,0,-14,-4
14:14:29:865173,-3,-7,-12,-3,1,-2,-23,-21
14:14:29:872008,-3,-7,-12,-3,1,-2,-23,-21
14:14:29:872806,-11,-5,-14,-20,-25,72,-5,-5
14:14:29:886369,5,8,16,21,25,54,9,12
14:14:29:894492,5,8,16,21,25,54,9,12
14:14:29:895255,-3,1,11,-22,9,-5,-15,1
14:14:29:901347,-10,-13,-3,-19,3,-8,0,-20
14:14:29:917011,-10,-13,-3,-19,3,-8,0,-20
14:14:29:917758,2,1,10,10,-6,-30,7,-3
14:14:29:923731,4,-3,-7,3,-25,-32,13,7
14:14:29:932071,4,-3,-7,3,-25,-32,13,7
14:14:29:932802,-5,-3,4,0,0,-1,-21,-17
14:14:29:946337,-2,4,25,-5,-13,4,-23,-9
14:14:29:954474,-2,4,25,-5,-13,4,-23,-9
14:14:29:955272,5,8,26,10,32,6,-14,-9
14:14:29:961224,-2,5,7,-2,17,-7,28,11
14:14:29:976933,-2,5,7,-2,17,-7,28,11
14:14:29:977709,0,0,2,7,19,20,7,-3
14:14:29:983826,-3,-7,-32,-19,3,10,-4,0
14:14:29:991930,-3,-7,-32,-19,3,10,-4,0
14:14:29:992803,1,2,10,-5,18,-18,5,9
14:14:30:6284,2,-2,-14,-5,-26,20,3,1
14:14:30:14539,2,-2,-14,-5,-26,20,3,1
14:14:30:15203,-1,3,-8,-8,-10,-2,34,-3
14:14:30:21296,-11,-18,-40,-26,-15,-28,0,1
14:14:30:37012,-11,-18,-40,-26,-15,-28,0,1
14:14:30:37719,-19,-13,-23,-17,6,0,42,0
14:14:30:43776,-5,9,7,-4,21,-4,13,0
14:14:30:52027,-5,9,7,-4,21,-4,13,0
14:14:30:52744,1,-6,-20,-39,-29,-64,-14,2
14:14:30:66315,8,12,52,12,-1,14,-9,-2
14:14:30:74483,8,12,52,12,-1,14,-9,-2
14:14:30:75207,10,6,-4,23,30,40,-7,2
14:14:30:81385,-2,-14,-21,-23,-3,3,-14,-3
14:14:30:97129,-2,-14,-21,-23,-3,3,-14,-3
14:14:30:97769,5,3,18,18,8,-5,-3,12
14:14:30:103833,2,-2,8,3,0,6,-4,-22
14:14:30:112007,2,-2,8,3,0,6,-4,-22
14:14:30:112741,1,-5,-9,17,12,-3,-7,24
14:14:30:126249,10,12,28,5,-14,-12,20,48
14:14:30:142614,10,12,28,5,-14,-12,20,48
14:14:30:143399,-6,-12,-50,-16,-29,-8,-22,-4
14:14:30:144212,2,-15,-1,23,48,-14,-7,15
14:14:30:156934,2,-15,-1,23,48,-14,-7,15
14:14:30:157771,17,12,4,7,8,14,-1,7
14:14:30:163860,-4,-5,-29,-19,-37,-13,-12,-7
14:14:30:171991,-4,-5,-29,-19,-37,-13,-12,-7
14:14:30:172776,-5,-14,15,-7,0,11,3,-13
14:14:30:186346,-2,4,-6,-7,-8,-9,-2,-15
14:14:30:194461,-2,4,-6,-7,-8,-9,-2,-15
14:14:30:195237,-7,6,17,13,23,-15,-8,-12
14:14:30:201283,3,4,5,15,24,27,31,9
14:14:30:217012,3,4,5,15,24,27,31,9
14:14:30:217769,-25,-8,4,-22,-53,-21,-22,-86
14:14:30:223690,-10,-7,-21,5,-9,21,2,-18
14:14:30:232088,-10,-7,-21,5,-9,21,2,-18
14:14:30:232769,-7,-11,-13,13,-8,-10,-11,-3
14:14:30:246348,-5,-3,35,11,-4,-80,-14,-3
14:14:30:254490,-5,-3,35,11,-4,-80,-14,-3
