Time,EMG1,EMG2,EMG3,EMG4,EMG5,EMG6,EMG7,EMG8
14:15:15:40682,-4,-5,-9,-6,-5,0,-2,-4
14:15:15:41454,0,2,2,-16,-4,-6,-2,-1
14:15:15:55623,-3,-5,2,7,-1,-5,1,-3
14:15:15:56397,-3,-5,2,7,-1,-5,1,-3
14:15:15:62394,-2,-2,-4,-5,-8,-1,-3,-1
14:15:15:70092,1,5,4,1,-2,1,1,1
14:15:15:77467,1,5,4,1,-2,1,1,1
14:15:15:84989,0,-3,1,-4,6,1,1,-4
14:15:15:92379,-3,4,2,-2,-6,0,-2,-2
14:15:15:100661,-3,4,2,-2,-6,0,-2,-2
14:15:15:101436,1,-3,-1,24,14,-1,1,0
14:15:15:115694,0,1,1,7,-6,-2,-2,3
14:15:15:116381,0,1,1,7,-6,-2,-2,3
14:15:15:122412,-2,2,0,-6,6,-1,0,-4
14:15:15:129911,-3,-5,-12,-27,-9,-7,-3,-3
14:15:15:137581,-3,-5,-12,-27,-9,-7,-3,-3
14:15:15:144877,1,-2,0,-17,-13,0,-2,2
14:15:15:152497,-2,-3,1,-1,3,4,-3,-1
14:15:15:160639,-2,-3,1,-1,3,4,-3,-1
14:15:15:161395,-3,0,-2,0,-4,-4,3,1
14:15:15:175580,1,0,3,0,8,0,0,-1
14:15:15:176407,1,0,3,0,8,0,0,-1
14:15:15:182458,0,0,-4,-3,-1,0,-2,-3
14:15:15:189897,-2,-2,-2,8,14,3,-2,1
14:15:15:197561,-2,-2,-2,8,14,3,-2,1
14:15:15:204949,-3,-2,-3,-8,-5,1,0,2
14:15:15:212422,0,0,4,12,-5,4,4,-2
14:15:15:220697,0,0,4,12,-5,4,4,-2
14:15:15:221504,1,0,-2,15,9,0,-5,-1
14:15:15:235741,-3,0,-2,3,9,1,-3,0
14:15:15:236457,-3,0,-2,3,9,1,-3,0
14:15:15:242389,3,1,3,0,4,-5,0,0
14:15:15:249915,-3,-3,1,-4,-9,-5,1,1
14:15:15:257522,-3,-3,1,-4,-9,-5,1,1
14:15:15:264980,-4,-2,-4,0,2,2,-1,-5
14:15:15:272463,2,0,-4,-17,-1,-1,-3,-2
14:15:15:280729,2,0,-4,-17,-1,-1,-3,-2
14:15:15:281392,-2,-1,0,9,-3,4,1,0
14:15:15:295554,0,1,-3,13,8,-2,-3,0
14:15:15:296424,0,1,-3,13,8,-2,-3,0
14:15:15:302538,2,-3,-6,-14,-15,-2,-3,0
14:15:15:309921,-1,4,4,0,-16,-2,-1,0
14:15:15:317531,-1,4,4,0,-16,-2,-1,0
14:15:15:324932,-2,2,5,-1,16,0,1,-1
14:15:15:332497,1,1,-4,-12,-3,-4,-1,0
14:15:15:340638,1,1,-4,-12,-3,-4,-1,0
14:15:15:341394,-2,-3,-2,-17,-15,2,0,1
14:15:15:355589,1,0,5,-9,-6,-5,-4,0
14:15:15:356444,1,0,5,-9,-6,-5,-4,0
14:15:15:362398,-2,0,1,-4,-14,-10,-1,-3
14:15:15:369963,-3,-6,-4,-1,-2,0,1,-4
14:15:15:377437,-3,-6,-4,-1,-2,0,1,-4
14:15:15:384973,-1,-3,-4,-6,10,6,-1,-1
14:15:15:393080,-1,1,-3,-17,-6,2,0,1
14:15:15:393925,-1,1,-3,-17,-6,2,0,1
14:15:15:399908,-4,-5,-10,3,15,0,0,2
14:15:15:415658,1,-5,-7,-18,-8,-5,-5,-4
14:15:15:416408,1,-5,-7,-18,-8,-5,-5,-4
14:15:15:422439,-4,-6,-1,0,-6,-4,-5,-6
14:15:15:429932,-1,-5,1,-1,-4,2,-3,0
14:15:15:445625,-1,-5,1,-1,-4,2,-3,0
14:15:15:446428,2,2,-1,0,9,0,-2,3
14:15:15:453166,-5,-4,-3,-3,-11,-6,3,-6
14:15:15:453881,-5,-4,-3,-3,-11,-6,3,-6
14:15:15:459872,-1,2,3,24,7,-4,-5,1
14:15:15:475577,-2,0,-8,8,28,5,2,-1
14:15:15:476378,-2,0,-8,8,28,5,2,-1
14:15:15:482413,3,2,0,-9,-12,-1,-2,-7
14:15:15:489894,2,1,9,23,12,2,1,6
14:15:15:497583,2,1,9,23,12,2,1,6
14:15:15:504886,1,-2,1,20,16,4,5,0
14:15:15:513169,1,7,5,-7,-14,-2,0,3
14:15:15:513898,1,7,5,-7,-14,-2,0,3
14:15:15:519991,-2,-1,1,-18,-20,0,-2,-1
14:15:15:535686,0,-2,-5,2,8,-1,-5,-3
14:15:15:536408,0,-2,-5,2,8,-1,-5,-3
14:15:15:542353,-7,-6,-4,-6,11,0,3,-1
14:15:15:549902,-1,-5,-5,-10,-7,-7,1,-2
14:15:15:557471,-1,-5,-5,-10,-7,-7,1,-2
14:15:15:564946,0,-1,-1,3,-6,-1,-3,-1
14:15:15:573084,-5,-4,-9,-7,-5,0,-4,-1
14:15:15:573891,-5,-4,-9,-7,-5,0,-4,-1
14:15:15:579900,-1,0,-1,-13,-18,-4,-3,1
14:15:15:595676,-1,3,9,-2,-9,-1,0,-4
14:15:15:596427,-1,3,9,-2,-9,-1,0,-4
14:15:15:602514,-3,-5,-8,-14,-6,-5,-2,-3
14:15:15:609867,-2,-4,-4,10,11,1,1,1
14:15:15:617472,-2,-4,-4,10,11,1,1,1
14:15:15:624911,4,6,16,-1,-10,-4,0,2
14:15:15:633090,-2,-8,-14,-3,9,-2,0,-2
14:15:15:633836,-2,-8,-14,-3,9,-2,0,-2
14:15:15:639959,-3,-1,-1,-3,-13,-5,-3,-3
14:15:15:655606,0,1,1,28,23,5,-1,-3
14:15:15:656448,0,1,1,28,23,5,-1,-3
14:15:15:662426,0,-4,-7,-2,-4,-2,-1,0
14:15:15:670009,1,5,1,0,-2,1,-2,-1
14:15:15:677459,1,5,1,0,-2,1,-2,-1
14:15:15:684973,-1,2,2,6,2,2,-1,-2
14:15:15:693074,-2,-3,0,-8,-14,-5,-5,-1
14:15:15:693887,-2,-3,0,-8,-14,-5,-5,-1
14:15:15:699950,-2,1,4,15,12,6,1,0
14:15:15:715655,0,4,3,-14,-12,-3,2,-3
14:15:15:716419,0,4,3,-14,-12,-3,2,-3
14:15:15:722429,0,-3,-3,-3,-2,0,-1,1
14:15:15:729962,-2,-3,-3,-2,-9,-1,-2,1
14:15:15:737488,-2,-3,-3,-2,-9,-1,-2,1
14:15:15:744876,-3,-4,-3,11,13,-1,-2,-4
14:15:15:753167,0,-5,-4,11,-1,-3,2,-2
14:15:15:753918,0,-5,-4,11,-1,-3,2,-2
14:15:15:759896,-6,-1,0,-3,-6,-2,-3,-1
14:15:15:775627,-5,0,-4,2,7,1,0,-1
14:15:15:776386,-5,0,-4,2,7,1,0,-1
14:15:15:782462,4,-2,-4,13,24,4,4,2
14:15:15:789899,0,2,8,14,9,2,-3,-1
14:15:15:797572,0,2,8,14,9,2,-3,-1
14:15:15:804942,1,3,0,-16,-14,-4,0,-1
14:15:15:813187,1,-4,-1,-20,-15,-5,-1,0
14:15:15:814185,1,-4,-1,-20,-15,-5,-1,0
14:15:15:819993,-2,-4,-7,-8,-6,-3,-2,-1
14:15:15:835689,-9,-2,-3,-6,-7,-2,-3,-4
14:15:15:836453,-9,-2,-3,-6,-7,-2,-3,-4
14:15:15:842358,-3,-2,-3,-11,7,1,1,-3
14:15:15:858101,2,3,1,-9,2,-5,-4,1
14:15:15:858950,2,3,1,-9,2,-5,-4,1
14:15:15:864951,0,-3,6,16,-1,-3,-3,-1
14:15:15:873182,3,4,4,7,11,3,4,0
14:15:15:873964,3,4,4,7,11,3,4,0
14:15:15:879902,-4,0,-8,-17,-20,-7,-4,-3
14:15:15:895603,1,-1,0,-7,-6,-3,-4,0
14:15:15:896479,1,-1,0,-7,-6,-3,-4,0
14:15:15:902496,4,-4,-5,-12,-15,-2,4,1
14:15:15:909889,-2,-8,-10,-1,1,0,-3,-2
14:15:15:917500,-2,-8,-10,-1,1,0,-3,-2
14:15:15:924930,-4,5,3,-12,-9,-3,-2,-5
14:15:15:933165,-4,0,0,-3,8,3,-1,-1
14:15:15:933955,-4,0,0,-3,8,3,-1,-1
14:15:15:947544,2,-2,4,-1,5,4,-2,1
14:15:15:955704,4,4,2,3,6,4,0,3
14:15:15:956486,4,4,2,3,6,4,0,3
14:15:15:962392,0,-3,-7,-1,4,1,-2,4
14:15:15:978078,-4,-7,-3,-10,-15,-4,0,-5
14:15:15:978876,-4,-7,-3,-10,-15,-4,0,-5
14:15:15:985004,-3,-1,2,3,9,1,4,-4
14:15:15:992851,-1,-1,-4,11,-5,-3,-2,-1
14:15:16:31,-1,-1,-4,11,-5,-3,-2,-1
14:15:16:7444,-3,-2,-3,1,-3,-1,-4,3
14:15:16:15656,-2,-1,-6,-6,2,-3,4,1
14:15:16:16432,-2,-1,-6,-6,2,-3,4,1
14:15:16:22451,2,0,6,25,9,0,-1,-2
14:15:16:38160,3,-1,2,-9,-5,3,3,2
14:15:16:38954,3,-1,2,-9,-5,3,3,2
14:15:16:44871,-3,-3,-3,-10,-8,-1,-2,-4
14:15:16:53180,-2,-6,-2,-5,-14,-4,-1,-3
14:15:16:53887,-2,-6,-2,-5,-14,-4,-1,-3
14:15:16:67428,0,5,2,-7,-4,-5,-2,3
14:15:16:75611,-3,2,-5,-19,-3,1,-1,-2
14:15:16:76403,-3,2,-5,-19,-3,1,-1,-2
14:15:16:82488,-2,-3,1,5,3,-2,-2,-5
14:15:16:98181,0,-7,6,21,4,1,-5,-2
14:15:16:98901,0,-7,6,21,4,1,-5,-2
14:15:16:104943,-1,-4,-12,-5,2,-2,3,1
14:15:16:113185,-4,0,-7,-24,1,0,-2,-1
14:15:16:113994,-4,0,-7,-24,1,0,-2,-1
14:15:16:127374,-2,1,3,7,1,-3,-2,-4
14:15:16:135686,-1,-1,-1,-3,-15,-5,-4,0
14:15:16:136413,-1,-1,-1,-3,-15,-5,-4,0
14:15:16:142336,-1,-1,2,-6,1,3,-3,-1
14:15:16:158123,-3,-4,-4,14,12,2,-6,-1
14:15:16:158880,-3,-4,-4,14,12,2,-6,-1
14:15:16:164959,1,-5,-1,-8,-3,4,0,-1
14:15:16:173140,-1,-1,-7,9,6,-7,4,0
14:15:16:173974,-1,-1,-7,9,6,-7,4,0
14:15:16:187415,-2,2,2,9,-16,-10,-1,-2
14:15:16:195638,-2,1,4,5,12,0,0,-1
14:15:16:196465,-2,1,4,5,12,0,0,-1
14:15:16:202494,-1,-1,-1,-9,-7,0,-6,-2
14:15:16:218176,3,3,10,5,-8,2,-3,-2
14:15:16:218913,3,3,10,5,-8,2,-3,-2
14:15:16:224875,1,1,3,-3,-5,2,2,-2
14:15:16:233099,-2,-2,-1,-5,-13,-4,0,-2
14:15:16:233881,-2,-2,-1,-5,-13,-4,0,-2
14:15:16:247471,5,2,2,-2,2,-7,-3,0
14:15:16:255612,1,1,-6,-4,6,3,-2,1
14:15:16:256435,1,1,-6,-4,6,3,-2,1
14:15:16:262412,-6,-4,-2,2,12,6,-1,0
14:15:16:278057,-2,-6,-2,-11,-13,-4,-4,-3
14:15:16:278882,-2,-6,-2,-11,-13,-4,-4,-3
14:15:16:284955,-3,-2,-5,5,10,0,1,-1
14:15:16:293088,-1,-2,-2,-2,7,3,4,1
14:15:16:293883,-1,-2,-2,-2,7,3,4,1
14:15:16:307454,-2,-1,-1,-14,-11,-1,-2,1
14:15:16:315637,1,3,8,-6,-2,-1,-1,1
14:15:16:316397,1,3,8,-6,-2,-1,-1,1
14:15:16:322386,-1,4,2,6,-4,-2,2,-1
14:15:16:338085,1,-2,-1,15,13,-1,4,-5
14:15:16:338876,1,-2,-1,15,13,-1,4,-5
14:15:16:344927,1,-5,-4,3,-8,-1,-5,1
14:15:16:360586,1,-5,-4,3,-8,-1,-5,1
14:15:16:361396,2,0,6,-2,-5,-2,-4,-2
14:15:16:367483,1,2,-2,0,7,-3,0,-2
14:15:16:375611,1,2,-2,0,7,-3,0,-2
14:15:16:376360,-1,-1,-1,7,3,2,-2,-1
14:15:16:382471,-2,1,-4,-8,0,-2,0,1
14:15:16:398165,-2,1,-4,-8,0,-2,0,1
14:15:16:398879,-5,-5,1,18,4,0,1,-1
14:15:16:404957,2,1,6,6,-6,0,5,-1
14:15:16:420673,2,1,6,6,-6,0,5,-1
14:15:16:421413,3,7,-1,-10,-17,-6,-5,2
14:15:16:427394,1,-1,2,-11,6,-1,-5,-1
14:15:16:435700,1,-1,2,-11,6,-1,-5,-1
14:15:16:436362,-4,-1,0,-7,-9,-2,-2,0
14:15:16:442389,-4,-3,-3,-8,-2,6,2,-4
14:15:16:458158,-4,-3,-3,-8,-2,6,2,-4
14:15:16:458922,2,-2,-2,3,-3,0,1,0
14:15:16:464965,-3,-3,-4,31,9,0,-4,-4
14:15:16:480727,-3,-3,-4,31,9,0,-4,-4
14:15:16:481422,-2,-1,-6,2,12,-1,0,0
14:15:16:487388,-1,-1,-2,0,-4,-8,-1,-2
14:15:16:495579,-1,-1,-2,0,-4,-8,-1,-2
14:15:16:496376,2,3,6,-20,-27,-13,-5,0
14:15:16:502526,-3,-3,-8,-8,-2,-1,2,4
14:15:16:518162,-3,-3,-8,-8,-2,-1,2,4
14:15:16:518901,-2,1,-7,-12,-12,0,1,-2
14:15:16:524907,-1,-3,1,-13,0,2,0,-1
14:15:16:540635,-1,-3,1,-13,0,2,0,-1
14:15:16:541400,0,-5,-2,-4,-2,3,2,1
14:15:16:547501,-2,-4,-8,-5,-9,-7,-5,-4
14:15:16:555639,-2,-4,-8,-5,-9,-7,-5,-4
14:15:16:556429,-5,-1,-1,4,4,0,0,-1
14:15:16:562410,-1,3,8,-20,-9,0,-1,0
14:15:16:578141,-1,3,8,-20,-9,0,-1,0
14:15:16:578871,-3,-4,-3,-9,1,-4,-4,-6
14:15:16:584932,2,-1,2,25,5,4,6,0
14:15:16:600655,2,-1,2,25,5,4,6,0
14:15:16:601423,2,3,1,-24,-13,-1,3,1
14:15:16:607402,1,2,-2,-1,-8,-2,-4,-1
14:15:16:615656,1,2,-2,-1,-8,-2,-4,-1
14:15:16:616385,-4,-6,-5,7,1,3,2,2
14:15:16:622412,-8,-6,-3,2,-1,-3,-4,1
14:15:16:638134,-8,-6,-3,2,-1,-3,-4,1
14:15:16:638932,0,-4,-3,10,2,-1,-4,-4
14:15:16:644876,-1,-2,-3,0,0,-3,-4,-3
14:15:16:660578,-1,-2,-3,0,0,-3,-4,-3
14:15:16:661369,-4,-4,-9,-6,-12,-11,-3,-7
14:15:16:667394,0,0,5,-4,-8,-11,-2,0
14:15:16:675619,0,0,5,-4,-8,-11,-2,0
14:15:16:676383,-1,0,-5,-3,8,11,-5,-13
14:15:16:682446,0,-3,-11,-9,4,2,1,0
14:15:16:698197,0,-3,-11,-9,4,2,1,0
14:15:16:698903,2,3,6,12,6,-9,-2,-7
14:15:16:704896,1,3,-3,-1,11,9,0,6
14:15:16:712481,1,3,-3,-1,11,9,0,6
14:15:16:719996,-2,-2,1,9,8,4,8,6
14:15:16:727380,-4,-3,3,-4,0,5,19,-15
14:15:16:735736,-4,-3,3,-4,0,5,19,-15
14:15:16:736466,-4,-2,10,-2,0,-10,8,16
14:15:16:742348,2,3,-11,3,8,4,-28,0
14:15:16:758163,2,3,-11,3,8,4,-28,0
14:15:16:758879,4,6,6,14,14,10,5,7
14:15:16:765003,-4,-3,16,11,-5,-12,-12,-8
14:15:16:772497,-4,-3,16,11,-5,-12,-12,-8
14:15:16:779905,3,0,5,-8,7,8,7,5
14:15:16:787401,0,-1,-1,3,-3,-1,16,9
14:15:16:795568,0,-1,-1,3,-3,-1,16,9
14:15:16:796364,2,6,1,-13,-20,-19,-66,-9
14:15:16:802476,-1,-4,-1,-5,9,12,6,5
14:15:16:818201,-1,-4,-1,-5,9,12,6,5
14:15:16:818957,4,0,-5,-11,7,10,2,-3
14:15:16:824917,0,1,-5,8,13,-10,0,1
14:15:16:840658,0,1,-5,8,13,-10,0,1
14:15:16:841430,-4,-8,-13,7,15,-3,7,-4
14:15:16:847470,-1,0,15,-13,-21,-10,-13,-7
14:15:16:855659,-1,0,15,-13,-21,-10,-13,-7
14:15:16:856452,-7,-5,-6,22,14,2,34,-4
14:15:16:862428,-4,-9,-46,-12,-10,9,-3,-5
14:15:16:878137,-4,-9,-46,-12,-10,9,-3,-5
14:15:16:878907,2,0,-6,2,12,10,70,23
14:15:16:885015,-3,1,1,3,-10,2,-16,-1
14:15:16:900736,-3,1,1,3,-10,2,-16,-1
14:15:16:901471,3,1,5,-4,1,9,-26,24
14:15:16:907415,7,10,28,17,6,-8,-21,6
14:15:16:915718,7,10,28,17,6,-8,-21,6
14:15:16:916385,-7,-3,22,-3,-3,-19,-10,-16
14:15:16:929899,-6,-2,-11,-19,-23,-10,-9,-1
14:15:16:938181,-6,-2,-11,-19,-23,-10,-9,-1
14:15:16:938930,6,27,29,24,23,6,-1,-11
14:15:16:944945,-16,-14,1,-3,-5,19,33,-16
14:15:16:960609,-16,-14,1,-3,-5,19,33,-16
14:15:16:961417,-3,3,-3,-9,-16,-5,-16,-2
14:15:16:967429,1,4,4,10,8,14,34,9
14:15:16:975637,1,4,4,10,8,14,34,9
14:15:16:976379,1,-19,-20,0,6,4,-10,-8
14:15:16:989884,-10,-19,-10,-35,-14,-18,15,-5
14:15:16:998222,-10,-19,-10,-35,-14,-18,15,-5
14:15:16:998938,-1,-4,-8,2,-16,-3,3,-5
14:15:17:4912,2,2,16,-2,1,-2,-9,-1
14:15:17:20638,2,2,16,-2,1,-2,-9,-1
14:15:17:21389,0,4,26,-4,-13,-24,-37,-10
14:15:17:27360,12,18,18,27,29,10,1,6
14:15:17:35641,12,18,18,27,29,10,1,6
14:15:17:36395,-4,8,10,24,2,17,-1,-2
14:15:17:49953,-6,-22,-23,-1,2,-15,-17,-4
14:15:17:58097,-6,-22,-23,-1,2,-15,-17,-4
14:15:17:58879,-8,-23,-23,-38,-21,-16,-9,-6
14:15:17:64939,-3,6,-3,-2,-8,15,-7,5
14:15:17:72460,-3,6,-3,-2,-8,15,-7,5
14:15:17:79938,14,4,-10,3,18,11,42,20
14:15:17:87409,8,-14,-21,-19,-18,-9,8,10
14:15:17:95616,8,-14,-21,-19,-18,-9,8,10
14:15:17:96402,-2,1,5,11,5,12,-8,-16
14:15:17:109862,0,1,-11,-11,-9,-21,-16,-5
14:15:17:118201,0,1,-11,-11,-9,-21,-16,-5
14:15:17:118896,-9,-7,-20,-23,-9,-4,-4,-4
14:15:17:124873,1,14,13,-3,-14,-10,-20,-7
14:15:17:132462,1,14,13,-3,-14,-10,-20,-7
14:15:17:139914,-5,2,-16,8,9,4,2,-9
14:15:17:147535,2,5,12,12,21,1,11,2
14:15:17:155590,2,5,12,12,21,1,11,2
14:15:17:156382,-8,-16,-3,0,-41,-26,-8,-2
14:15:17:169997,10,-2,7,42,66,36,13,-3
14:15:17:178143,10,-2,7,42,66,36,13,-3
14:15:17:178959,-5,15,4,-2,-10,0,15,12
14:15:17:184938,-7,12,19,-12,-28,-22,-4,-1
14:15:17:192396,-7,12,19,-12,-28,-22,-4,-1
14:15:17:199914,3,2,28,0,11,-5,-19,-6
14:15:17:207395,3,-12,29,3,-7,8,9,0
14:15:17:215657,3,-12,29,3,-7,8,9,0
14:15:17:216348,-10,-9,-39,-12,-11,8,-3,-1
14:15:17:229938,-6,0,-21,7,-6,20,23,-6
14:15:17:238150,-6,0,-21,7,-6,20,23,-6
14:15:17:238979,4,0,-1,1,4,-13,-3,3
14:15:17:244976,-6,-14,14,-8,-26,-25,-13,-3
14:15:17:252583,-6,-14,14,-8,-26,-25,-13,-3
14:15:17:259858,6,1,-42,0,3,6,-14,-5
14:15:17:267420,-2,8,33,9,-3,-3,-7,0
14:15:17:275609,-2,8,33,9,-3,-3,-7,0
14:15:17:276399,-4,-12,-6,-17,-26,-11,-13,-4
14:15:17:290004,-1,8,13,16,15,3,2,-6
14:15:17:298234,-1,8,13,16,15,3,2,-6
14:15:17:298878,-6,-27,-80,-36,-18,-30,-5,-7
14:15:17:304938,0,-3,-28,-35,-8,-7,6,3
14:15:17:312530,0,-3,-28,-35,-8,-7,6,3
14:15:17:320013,0,-16,28,4,-6,-2,1,6
14:15:17:327411,-6,0,-33,12,13,-7,-20,-5
14:15:17:335720,-6,0,-33,12,13,-7,-20,-5
14:15:17:336415,13,38,65,15,19,23,21,8
14:15:17:349893,-19,4,7,-11,2,-11,6,-8
14:15:17:358135,-19,4,7,-11,2,-11,6,-8
14:15:17:358899,-2,-4,16,18,22,25,0,-1
14:15:17:364956,-5,-33,-54,-29,-12,12,-8,-2
14:15:17:372494,-5,-33,-54,-29,-12,12,-8,-2
14:15:17:379929,-9,-1,-13,-21,-23,-14,-6,-5
14:15:17:387457,6,-2,-21,12,17,6,1,3
14:15:17:395709,6,-2,-21,12,17,6,1,3
14:15:17:396400,9,3,15,8,-13,2,7,-1
14:15:17:409923,-11,2,6,6,-2,-2,6,-13
14:15:17:418221,-11,2,6,6,-2,-2,6,-13
14:15:17:418950,-6,20,42,20,36,23,6,8
14:15:17:424925,-41,-21,-17,-14,-10,-24,-51,3
14:15:17:432523,-41,-21,-17,-14,-10,-24,-51,3
14:15:17:439902,-5,2,-1,0,-6,0,-16,0
14:15:17:447503,19,16,23,-5,-12,5,4,3
14:15:17:455563,19,16,23,-5,-12,5,4,3
14:15:17:456451,-22,-30,-52,-24,-32,-15,-2,-4
14:15:17:469993,22,5,-14,22,15,13,7,6
14:15:17:478102,22,5,-14,22,15,13,7,6
14:15:17:478946,14,12,-4,-6,-2,9,-2,-4
14:15:17:484966,10,1,-23,-4,21,18,14,4
14:15:17:492404,10,1,-23,-4,21,18,14,4
14:15:17:499926,80,16,12,-13,-27,-24,-96,10
14:15:17:507425,4,3,22,26,11,-4,20,1
14:15:17:515658,4,3,22,26,11,-4,20,1
14:15:17:516400,-50,-16,-32,-36,-12,-19,-34,-10
14:15:17:529896,-4,0,6,-18,-6,-15,-14,-2
14:15:17:538088,-4,0,6,-18,-6,-15,-14,-2
14:15:17:538899,11,12,58,94,72,23,42,-1
14:15:17:544931,-14,-9,-17,-9,-20,1,8,-7
14:15:17:552479,-14,-9,-17,-9,-20,1,8,-7
14:15:17:559852,-17,-12,-32,-4,29,0,14,-3
14:15:17:567461,14,17,-25,10,16,6,-15,7
14:15:17:575589,14,17,-25,10,16,6,-15,7
14:15:17:576397,-5,-1,4,-10,-20,-1,17,0
14:15:17:589964,1,3,-2,-20,-19,-6,-8,-4
14:15:17:598192,1,3,-2,-20,-19,-6,-8,-4
14:15:17:598939,9,11,26,7,3,13,27,-6
14:15:17:604902,13,-7,-12,-19,-25,-11,-6,-6
14:15:17:612480,13,-7,-12,-19,-25,-11,-6,-6
14:15:17:619955,-2,-12,-20,-27,1,-5,-6,-4
14:15:17:627378,10,4,26,42,17,-9,58,5
14:15:17:635661,10,4,26,42,17,-9,58,5
14:15:17:636433,-8,1,20,46,26,4,11,3
14:15:17:649894,-31,-8,6,-13,-12,-1,-28,-3
14:15:17:658123,-31,-8,6,-13,-12,-1,-28,-3
14:15:17:658893,-28,-17,-70,-28,-19,-1,6,-17
14:15:17:664993,5,-10,-8,-3,-10,-8,-16,3
14:15:17:672490,5,-10,-8,-3,-10,-8,-16,3
14:15:17:679936,7,0,11,-4,9,3,-1,0
14:15:17:687487,5,-12,-44,-19,-4,10,2,-1
14:15:17:695633,5,-12,-44,-19,-4,10,2,-1
14:15:17:696385,-12,0,7,-2,-23,0,6,-2
14:15:17:709883,6,12,45,-13,-8,-15,-14,1
14:15:17:718275,6,12,45,-13,-8,-15,-14,1
14:15:17:718910,4,10,11,28,36,19,-2,-3
14:15:17:724934,-16,-11,1,-6,-12,1,-26,-18
14:15:17:732584,-16,-11,1,-6,-12,1,-26,-18
14:15:17:739964,11,-3,3,-5,-14,-22,17,-3
14:15:17:747564,-2,1,8,10,10,7,-8,2
14:15:17:755691,-2,1,8,10,10,7,-8,2
14:15:17:756454,11,7,13,-4,1,-21,-14,5
14:15:17:770017,6,2,19,23,-1,-1,9,2
14:15:17:778145,6,2,19,23,-1,-1,9,2
14:15:17:778957,7,-2,1,-9,-10,3,6,1
14:15:17:784999,-13,5,6,-2,3,0,-10,-4
14:15:17:792391,-13,5,6,-2,3,0,-10,-4
14:15:17:799976,15,-2,-1,-11,-2,0,10,13
14:15:17:807429,-26,-7,7,3,10,2,-36,-7
14:15:17:815700,-26,-7,7,3,10,2,-36,-7
14:15:17:816374,-2,-7,-2,-2,-10,4,51,-5
14:15:17:829907,20,4,0,0,-3,-2,1,-2
14:15:17:838153,20,4,0,0,-3,-2,1,-2
14:15:17:838911,-14,-1,6,17,11,24,-19,4
14:15:17:853148,8,6,4,16,18,0,2,8
14:15:17:853884,8,6,4,16,18,0,2,8
14:15:17:859872,-6,-1,12,4,-30,-23,-11,-3
14:15:17:867455,-3,2,0,-6,3,3,11,0
14:15:17:874931,-3,2,0,-6,3,3,11,0
14:15:17:882412,-11,-19,-14,-21,-13,-9,-8,-4
14:15:17:889964,-12,-14,-5,-7,0,8,9,-2
14:15:17:898216,-12,-14,-5,-7,0,8,9,-2
14:15:17:898948,6,14,-4,-6,-4,-4,-12,3
14:15:17:913103,44,8,6,1,2,0,8,9
14:15:17:913887,44,8,6,1,2,0,8,9
14:15:17:919975,5,4,1,0,9,9,60,6
14:15:17:927342,11,12,-2,-1,-3,5,43,8
14:15:17:943074,11,12,-2,-1,-3,5,43,8
14:15:17:943844,-6,7,1,-1,-4,12,-21,6
14:15:17:949921,-8,1,-7,-6,-3,-12,-2,-4
14:15:17:958087,-8,1,-7,-6,-3,-12,-2,-4
14:15:17:958905,-16,-2,-10,-4,1,-3,-12,-9
14:15:17:973124,-17,-10,-4,10,6,-2,-7,-5
14:15:17:973891,-17,-10,-4,10,6,-2,-7,-5
14:15:17:979909,-2,2,-2,4,37,7,-10,-4
14:15:17:987419,-5,0,-1,-16,-10,-2,-21,0
14:15:17:994933,-5,0,-1,-16,-10,-2,-21,0
14:15:18:2516,19,2,11,-10,-15,-5,-8,-6
14:15:18:9843,-8,-1,12,6,18,7,14,7
14:15:18:18154,-8,-1,12,6,18,7,14,7
14:15:18:18896,-20,-12,6,2,-11,-10,13,5
14:15:18:33096,-10,8,1,3,-8,-2,-14,-13
14:15:18:33886,-10,8,1,3,-8,-2,-14,-13
14:15:18:39904,4,-1,-7,-1,3,-6,-25,6
14:15:18:47459,0,1,-6,-16,-9,-8,0,-2
14:15:18:54965,0,1,-6,-16,-9,-8,0,-2
14:15:18:62458,-1,0,-8,-11,-6,-3,12,-8
14:15:18:69980,0,-9,-12,3,7,12,5,-6
14:15:18:78100,0,-9,-12,3,7,12,5,-6
14:15:18:78946,-8,-4,2,-3,-7,-7,-8,-4
14:15:18:93068,-19,-3,14,7,-5,-10,21,4
14:15:18:93902,-19,-3,14,7,-5,-10,21,4
14:15:18:99938,-38,-8,-43,-31,-6,-7,4,-15
14:15:18:107424,-43,-9,1,-3,-5,5,-4,-23
14:15:18:115039,-43,-9,1,-3,-5,5,-4,-23
14:15:18:122430,-1,0,4,-9,-3,1,-21,-24
14:15:18:129894,18,5,-8,0,-5,-12,-24,10
14:15:18:138139,18,5,-8,0,-5,-12,-24,10
14:15:18:138915,-15,-1,21,5,-13,-3,-14,2
14:15:18:153177,30,-9,4,-8,-3,-4,-13,4
14:15:18:153912,30,-9,4,-8,-3,-4,-13,4
14:15:18:159907,19,5,12,32,-16,15,3,10
14:15:18:167495,-6,7,-10,-1,21,6,-2,-1
14:15:18:175037,-6,7,-10,-1,21,6,-2,-1
14:15:18:182463,4,7,10,-15,-9,-21,-6,7
14:15:18:189947,12,2,10,-2,-5,-1,1,-2
14:15:18:198179,12,2,10,-2,-5,-1,1,-2
14:15:18:198886,-6,-22,-3,5,4,-1,-3,-2
14:15:18:213153,11,-29,-52,-14,-10,-3,1,-5
14:15:18:213960,11,-29,-52,-14,-10,-3,1,-5
14:15:18:220007,-60,-48,-54,-28,-8,-2,-11,-23
14:15:18:227394,-51,-1,37,-6,-12,-8,-54,17
14:15:18:235065,-51,-1,37,-6,-12,-8,-54,17
14:15:18:250597,-6,18,11,22,22,2,-16,5
14:15:18:251381,5,-7,6,13,-5,-2,-4,-7
14:15:18:258066,5,-7,6,13,-5,-2,-4,-7
14:15:18:258858,16,13,3,-14,-12,-12,-2,12
14:15:18:273551,28,34,36,11,30,18,31,12
14:15:18:274369,28,34,36,11,30,18,31,12
14:15:18:279945,36,-6,5,12,24,13,19,8
14:15:18:287403,-7,12,4,4,-8,-9,27,-11
14:15:18:294970,-7,12,4,4,-8,-9,27,-11
14:15:18:302454,23,-3,12,-1,-14,-4,8,3
14:15:18:309914,39,-49,-61,-10,-10,3,54,6
14:15:18:318168,39,-49,-61,-10,-10,3,54,6
14:15:18:318885,29,54,85,25,6,4,-4,23
14:15:18:333062,9,8,-19,-17,-6,-8,-21,-3
14:15:18:333919,9,8,-19,-17,-6,-8,-21,-3
14:15:18:339939,-26,-6,-23,7,7,5,9,-12
14:15:18:347533,-13,5,25,1,-11,1,-14,-5
14:15:18:354960,-13,5,25,1,-11,1,-14,-5
14:15:18:362388,-5,-5,32,7,-29,-29,-19,-5
14:15:18:369947,-3,9,10,13,20,13,11,4
14:15:18:378124,-3,9,10,13,20,13,11,4
14:15:18:378877,2,-2,-25,-21,-3,-1,1,-5
14:15:18:393069,0,-3,-3,-8,-18,-5,-6,-4
14:15:18:393867,0,-3,-3,-8,-18,-5,-6,-4
14:15:18:399947,0,-3,-53,-5,-2,0,-5,0
14:15:18:407401,-20,1,9,-6,2,3,-2,-5
14:15:18:415051,-20,1,9,-6,2,3,-2,-5
14:15:18:422420,1,0,3,1,7,1,-2,-5
14:15:18:429949,90,41,68,16,3,-11,-41,40
14:15:18:438163,90,41,68,16,3,-11,-41,40
14:15:18:438959,-67,13,59,2,5,4,27,0
14:15:18:453179,-27,-6,-10,4,-4,-3,0,-1
14:15:18:453945,-27,-6,-10,4,-4,-3,0,-1
14:15:18:459878,5,-80,-106,-50,-9,-8,-15,-13
14:15:18:467421,-18,-14,-25,-10,-28,-15,-2,-13
14:15:18:474990,-18,-14,-25,-10,-28,-15,-2,-13
14:15:18:482537,5,27,37,12,48,41,24,5
14:15:18:489902,-9,-14,-32,-15,-15,-13,0,-13
14:15:18:498240,-9,-14,-32,-15,-15,-13,0,-13
14:15:18:498926,12,6,-5,-26,-11,-5,-13,0
14:15:18:513156,0,12,21,1,14,9,9,-1
14:15:18:513954,0,12,21,1,14,9,9,-1
14:15:18:520006,9,-6,26,10,-10,-9,-9,5
14:15:18:527385,-28,-5,1,-9,-6,-6,1,-12
14:15:18:535025,-28,-5,1,-9,-6,-6,1,-12
14:15:18:542404,13,-17,-26,20,4,1,-2,-5
14:15:18:549912,48,-18,-33,-23,-3,-3,-11,38
14:15:18:558099,48,-18,-33,-23,-3,-3,-11,38
14:15:18:558863,67,6,2,19,7,4,44,13
14:15:18:573084,-20,-28,-67,-36,3,3,-2,-17
14:15:18:573864,-20,-28,-67,-36,3,3,-2,-17
14:15:18:579921,-4,12,17,11,-5,-2,-14,-5
14:15:18:587442,-16,11,17,-3,-19,-12,4,-4
14:15:18:595006,-16,11,17,-3,-19,-12,4,-4
14:15:18:602480,-13,5,11,34,16,17,-15,-6
14:15:18:609911,-23,-3,2,21,16,11,4,-10
14:15:18:618203,-23,-3,2,21,16,11,4,-10
14:15:18:618919,-6,-1,-36,-18,1,8,0,0
14:15:18:633070,-2,-4,-9,1,-8,-11,-1,-7
14:15:18:633954,-2,-4,-9,1,-8,-11,-1,-7
14:15:18:639973,-7,16,40,17,-4,-17,-2,5
14:15:18:647557,-5,6,26,5,0,1,0,-8
14:15:18:654976,-5,6,26,5,0,1,0,-8
14:15:18:662412,-12,-7,-18,-14,6,2,-7,-4
14:15:18:669981,0,6,16,19,14,4,-1,-1
14:15:18:678109,0,6,16,19,14,4,-1,-1
14:15:18:678913,-7,-5,-19,-32,-25,-16,-13,-5
14:15:18:693074,-3,1,-3,16,25,18,5,-5
14:15:18:693867,-3,1,-3,16,25,18,5,-5
14:15:18:699891,-3,3,-4,-1,-5,9,4,0
14:15:18:715627,-9,-7,-12,-29,-12,-11,-11,-2
14:15:18:716409,-9,-7,-12,-29,-12,-11,-11,-2
14:15:18:722386,-4,4,8,-1,-10,-2,-5,-5
14:15:18:729891,23,18,11,17,-3,0,20,-9
14:15:18:738148,23,18,11,17,-3,0,20,-9
14:15:18:738900,-2,-5,0,-4,-4,-12,-9,-6
14:15:18:753182,-1,-17,-13,5,19,5,0,-4
14:15:18:753897,-1,-17,-13,5,19,5,0,-4
14:15:18:759894,3,56,18,9,3,-4,3,-1
14:15:18:775577,-13,-3,-2,-3,-1,0,-5,-2
14:15:18:776361,-13,-3,-2,-3,-1,0,-5,-2
14:15:18:782500,3,-27,-2,3,-1,7,-1,7
14:15:18:789958,-2,-25,-5,-28,-38,-11,-9,1
14:15:18:797592,-2,-25,-5,-28,-38,-11,-9,1
14:15:18:804888,-7,-11,-9,2,3,1,1,0
14:15:18:813084,-8,-10,15,15,3,5,1,-1
14:15:18:813908,-8,-10,15,15,3,5,1,-1
14:15:18:819930,1,3,6,3,-1,-5,1,0
14:15:18:835670,-21,3,2,7,-8,-10,-10,-6
14:15:18:836415,-21,3,2,7,-8,-10,-10,-6
14:15:18:842351,-2,-2,-1,22,26,25,8,-1
14:15:18:849898,10,15,4,4,4,10,5,3
14:15:18:857455,10,15,4,4,4,10,5,3
14:15:18:864963,-17,-50,-9,-29,-18,-15,-10,-6
14:15:18:873160,5,15,4,3,3,-7,-3,0
14:15:18:873910,5,15,4,3,3,-7,-3,0
14:15:18:879925,5,19,8,-9,-3,-3,-3,2
14:15:18:895593,-5,-11,3,17,11,-9,-2,1
14:15:18:896383,-5,-11,3,17,11,-9,-2,1
14:15:18:902503,3,4,-2,16,32,4,4,1
14:15:18:909908,-2,5,-7,-10,-7,3,3,-3
14:15:18:917560,-2,5,-7,-10,-7,3,3,-3
14:15:18:924922,-4,-8,-7,-10,-20,-8,-7,-3
14:15:18:933130,4,11,-6,-1,-3,3,-4,5
14:15:18:933895,4,11,-6,-1,-3,3,-4,5
14:15:18:939894,-5,-8,-16,-14,-10,-9,-4,-4
14:15:18:955661,-2,-6,3,-13,-17,-8,-1,0
14:15:18:956464,-2,-6,3,-13,-17,-8,-1,0
14:15:18:962414,7,23,15,5,1,-2,2,2
14:15:18:970007,-2,-11,-8,-6,-7,-2,1,0
14:15:18:977450,-2,-11,-8,-6,-7,-2,1,0
14:15:18:985035,-5,-17,1,-1,-6,-4,-5,-4
14:15:18:993046,-6,-3,8,-7,4,11,7,-6
14:15:18:993841,-6,-3,8,-7,4,11,7,-6
14:15:18:999912,-1,12,-1,19,42,12,-3,0
14:15:19:15633,5,2,-31,0,6,-3,-9,-4
14:15:19:16367,5,2,-31,0,6,-3,-9,-4
14:15:19:22472,-6,-6,-10,-9,-15,-5,4,-6
14:15:19:29942,-3,-5,-10,5,7,-3,-13,-20
14:15:19:37480,-3,-5,-10,5,7,-3,-13,-20
14:15:19:44922,-50,3,2,5,-1,2,9,10
14:15:19:53227,-15,-19,1,5,-2,-4,-1,2
14:15:19:53902,-15,-19,1,5,-2,-4,-1,2
14:15:19:59844,3,-28,15,-13,-21,-16,-15,-11
14:15:19:75588,11,25,25,8,9,5,3,9
14:15:19:76341,11,25,25,8,9,5,3,9
14:15:19:82472,6,-10,-19,-10,-13,-2,-6,-3
14:15:19:89955,-14,-29,-38,-26,-9,-6,0,-9
14:15:19:97541,-14,-29,-38,-26,-9,-6,0,-9
14:15:19:104915,-1,-24,-5,-5,-3,-4,3,5
14:15:19:113176,4,22,26,23,12,10,-2,-3
14:15:19:113926,4,22,26,23,12,10,-2,-3
14:15:19:119979,1,20,10,-7,-10,-5,24,-4
14:15:19:135674,3,-2,13,-9,-21,0,6,13
14:15:19:136397,3,-2,13,-9,-21,0,6,13
14:15:19:142335,15,11,-1,2,6,5,-6,-6
14:15:19:149894,-5,7,2,-3,2,-9,-2,-9
14:15:19:157459,-5,7,2,-3,2,-9,-2,-9
14:15:19:164980,6,6,3,3,8,15,-3,6
14:15:19:173129,-1,-13,3,-6,-10,-7,-2,1
14:15:19:173955,-1,-13,3,-6,-10,-7,-2,1
14:15:19:179910,4,9,11,9,0,-10,-1,-2
14:15:19:195591,5,0,10,-6,12,-2,6,13
14:15:19:196424,5,0,10,-6,12,-2,6,13
14:15:19:202468,-1,-5,-8,0,-17,-6,-14,0
14:15:19:218164,-8,-7,-17,-5,5,9,-2,-10
14:15:19:218949,-8,-7,-17,-5,5,9,-2,-10
14:15:19:224901,-14,23,36,11,4,-1,9,7
14:15:19:233149,0,13,-3,2,-2,-1,1,1
14:15:19:233968,0,13,-3,2,-2,-1,1,1
14:15:19:239906,10,13,16,7,7,8,-8,0
14:15:19:255643,1,6,13,-8,-7,-11,-5,1
14:15:19:256433,1,6,13,-8,-7,-11,-5,1
14:15:19:262433,4,-20,-15,-6,-11,-13,-1,-5
14:15:19:270017,6,9,17,7,13,6,0,1
14:15:19:277498,6,9,17,7,13,6,0,1
14:15:19:284974,-2,2,-16,-20,-8,2,-6,-10
14:15:19:293064,7,14,12,24,4,-6,1,0
14:15:19:293900,7,14,12,24,4,-6,1,0
14:15:19:299914,7,-17,-8,-12,3,4,3,5
14:15:19:315680,-2,-2,-24,-2,-13,-2,-2,6
14:15:19:316463,-2,-2,-24,-2,-13,-2,-2,6
14:15:19:330677,-4,-6,-34,-8,-1,-6,-7,-12
14:15:19:331348,-1,-5,-5,8,2,-6,-4,1
14:15:19:337486,-1,-5,-5,8,2,-6,-4,1
14:15:19:344937,-2,-2,-9,-10,1,10,-9,-5
14:15:19:353208,-6,-6,-7,-3,0,11,3,-9
14:15:19:353909,-6,-6,-7,-3,0,11,3,-9
14:15:19:359891,3,12,9,19,4,-11,-3,2
14:15:19:375633,-2,-5,-13,-19,-12,-7,1,-7
14:15:19:376426,-2,-5,-13,-19,-12,-7,1,-7
14:15:19:382411,-1,0,1,2,1,-5,-5,-1
14:15:19:389908,-3,4,17,17,17,8,-2,2
14:15:19:397575,-3,4,17,17,17,8,-2,2
14:15:19:404927,-4,-2,6,1,-3,-10,-2,2
14:15:19:413108,-4,0,-5,-13,-8,-1,1,2
14:15:19:413911,-4,0,-5,-13,-8,-1,1,2
14:15:19:420000,4,-6,0,-7,-4,-2,9,3
14:15:19:435728,-2,-7,-19,-9,-9,-11,-8,-3
14:15:19:436472,-2,-7,-19,-9,-9,-11,-8,-3
14:15:19:442419,-6,-14,-3,3,-3,2,2,-2
14:15:19:449914,1,-10,-21,3,9,-3,1,2
14:15:19:457487,1,-10,-21,3,9,-3,1,2
14:15:19:465024,3,2,-15,-5,-9,-1,-3,-2
14:15:19:473105,-6,5,6,-4,2,-1,-8,1
14:15:19:473901,-6,5,6,-4,2,-1,-8,1
14:15:19:479918,-1,3,11,5,-1,5,13,-4
14:15:19:496080,3,-7,-9,-4,-10,-5,-4,-9
14:15:19:496864,3,-7,-9,-4,-10,-5,-4,-9
14:15:19:502546,-4,-2,-17,-12,5,-1,-6,11
14:15:19:509920,0,5,28,11,-7,-4,7,6
14:15:19:517485,0,5,28,11,-7,-4,7,6
14:15:19:524904,0,12,11,7,3,-8,-3,-4
14:15:19:533125,-1,-8,-3,-9,-5,-9,-2,3
14:15:19:533932,-1,-8,-3,-9,-5,-9,-2,3
14:15:19:539870,0,-6,2,14,16,13,-1,-8
14:15:19:555632,-3,-9,4,1,-4,0,-4,-4
14:15:19:556427,-3,-9,4,1,-4,0,-4,-4
14:15:19:562378,-3,0,-9,-14,-16,-12,-8,1
14:15:19:569944,2,-5,3,1,0,2,-1,0
14:15:19:577435,2,-5,3,1,0,2,-1,0
14:15:19:584964,3,-11,-4,7,-2,14,2,-1
14:15:19:593088,0,-7,1,-5,4,-8,1,-5
14:15:19:593873,0,-7,1,-5,4,-8,1,-5
14:15:19:599940,0,3,-3,-11,-10,-5,-5,-12
14:15:19:615751,-2,11,2,-1,-1,5,7,-2
14:15:19:616414,-2,11,2,-1,-1,5,7,-2
14:15:19:622445,-3,12,14,10,26,15,11,-2
14:15:19:629914,-5,-14,-10,-9,-14,-2,-8,-2
14:15:19:637537,-5,-14,-10,-9,-14,-2,-8,-2
14:15:19:644890,-3,-1,-13,9,4,-4,-6,1
14:15:19:653193,-3,-1,-13,9,4,-4,-6,1
14:15:19:653935,8,4,-1,-15,0,-11,-9,-5
14:15:19:659875,1,0,21,-7,-7,-6,2,0
14:15:19:675612,1,0,21,-7,-7,-6,2,0
14:15:19:676409,0,10,-1,9,6,1,4,3
14:15:19:682453,-1,-3,-9,-9,-3,-1,-5,1
14:15:19:698230,-1,-3,-9,-9,-3,-1,-5,1
14:15:19:698902,-1,4,-2,-1,13,13,1,-1
14:15:19:704913,-1,-6,-7,-14,-15,7,-1,5
14:15:19:713156,-1,-6,-7,-14,-15,7,-1,5
14:15:19:713949,-2,2,-10,-7,-9,2,0,-2
14:15:19:727378,-1,-3,-3,-4,2,2,5,-1
14:15:19:735708,-1,-3,-3,-4,2,2,5,-1
14:15:19:736426,-1,-4,-7,-1,-3,2,-3,-3
14:15:19:742370,0,-2,-13,3,-7,-16,-7,-1
14:15:19:758146,0,-2,-13,3,-7,-16,-7,-1
14:15:19:758890,0,4,10,16,14,9,-1,5
14:15:19:773759,-1,-13,29,3,0,2,5,-2
14:15:19:774575,-1,-13,29,3,0,2,5,-2
14:15:19:775369,-3,6,-6,-18,-17,-8,11,1
14:15:19:787490,1,8,0,0,-2,-2,-9,3
14:15:19:795639,1,8,0,0,-2,-2,-9,3
14:15:19:796428,-3,-8,6,4,-11,-16,-14,-4
14:15:19:802515,1,8,5,12,4,3,20,-1
14:15:19:818195,1,8,5,12,4,3,20,-1
14:15:19:818873,4,-4,-5,6,22,21,10,8
14:15:19:824960,-2,-7,-22,-12,-13,-12,-16,-1
14:15:19:833170,-2,-7,-22,-12,-13,-12,-16,-1
14:15:19:833911,-3,-4,-8,-1,-9,-7,0,-1
14:15:19:847533,-3,2,-1,-12,-9,-9,-7,-3
14:15:19:855634,-3,2,-1,-12,-9,-9,-7,-3
14:15:19:856418,-2,0,-27,0,1,-4,-1,-4
14:15:19:862416,1,4,13,3,0,-1,-1,-4
14:15:19:886392,1,4,13,3,0,-1,-1,-4
14:15:19:887115,-3,-5,10,5,12,4,-11,-6
14:15:19:887938,-1,0,0,-2,-1,0,11,-1
14:15:19:893091,-1,0,0,-2,-1,0,11,-1
14:15:19:893893,-4,-14,-22,-24,-10,-2,15,2
14:15:19:907387,1,-2,-8,1,22,9,4,3
14:15:19:915661,1,-2,-8,1,22,9,4,3
14:15:19:916391,-1,1,9,8,-9,7,-7,-2
14:15:19:922396,-2,-5,-26,-9,-3,-8,-9,-7
14:15:19:938146,-2,-5,-26,-9,-3,-8,-9,-7
14:15:19:938888,1,4,12,9,11,-3,-3,1
14:15:19:944872,1,2,26,7,-1,-1,-6,4
14:15:19:953247,1,2,26,7,-1,-1,-6,4
14:15:19:953894,0,-1,2,0,-10,-5,-9,1
14:15:19:967429,-1,5,-10,-9,-4,3,3,1
14:15:19:975572,-1,5,-10,-9,-4,3,3,1
14:15:19:976383,3,8,20,13,21,16,10,-8
14:15:19:982429,-1,-5,6,5,-2,2,1,8
14:15:19:998200,-1,-5,6,5,-2,2,1,8
14:15:19:998917,-3,-7,-7,-6,-16,-14,-10,0
14:15:20:4911,0,-18,-25,4,5,6,3,-3
14:15:20:13124,0,-18,-25,4,5,6,3,-3
14:15:20:13882,3,-3,-3,-4,-1,-6,1,1
14:15:20:27432,0,2,-42,8,10,0,3,5
14:15:20:35629,0,2,-42,8,10,0,3,5
14:15:20:36373,-4,-6,-4,-7,1,7,-1,-2
14:15:20:42342,-10,-12,-34,-18,-9,-1,-2,-9
14:15:20:58119,-10,-12,-34,-18,-9,-1,-2,-9
14:15:20:58870,-4,2,-4,-16,-9,-22,0,4
14:15:20:64997,3,10,47,12,-3,-9,0,-4
14:15:20:73147,3,10,47,12,-3,-9,0,-4
14:15:20:73917,0,-7,-23,12,5,0,-3,-6
14:15:20:87520,-1,-1,21,-3,-8,-5,-9,-2
14:15:20:95621,-1,-1,21,-3,-8,-5,-9,-2
14:15:20:96390,2,3,-15,8,7,8,-1,-1
14:15:20:102482,-1,-4,-4,3,-14,-4,-5,-6
14:15:20:118241,-1,-4,-4,3,-14,-4,-5,-6
14:15:20:118912,0,0,4,32,11,9,3,0
14:15:20:124953,1,-1,-24,-17,-13,-12,-4,0
14:15:20:133129,1,-1,-24,-17,-13,-12,-4,0
14:15:20:133888,2,5,14,8,-4,-17,0,4
14:15:20:147564,-4,4,-5,33,25,6,6,0
14:15:20:163897,-4,4,-5,33,25,6,6,0
14:15:20:164605,-1,7,13,4,-1,-2,-2,-2
14:15:20:165398,-4,-7,-2,-23,-12,-11,-8,-9
14:15:20:178110,-4,-7,-2,-23,-12,-11,-8,-9
14:15:20:178896,3,11,41,-9,0,10,11,5
14:15:20:184997,1,5,10,11,5,1,4,2
14:15:20:193157,1,5,10,11,5,1,4,2
14:15:20:193888,3,8,30,3,1,-10,-9,-5
14:15:20:207384,0,7,23,14,7,3,0,5
14:15:20:215671,0,7,23,14,7,3,0,5
14:15:20:216382,-4,-2,1,-6,-3,7,-2,4
14:15:20:222442,-2,-2,24,-8,-12,-1,-2,-8
14:15:20:238110,-2,-2,24,-8,-12,-1,-2,-8
14:15:20:238922,-1,0,21,-3,-12,-1,2,-6
14:15:20:244877,-3,-1,-8,-12,4,-16,-6,-1
14:15:20:253200,-3,-1,-8,-12,4,-16,-6,-1
14:15:20:253930,6,13,29,8,14,14,9,1
14:15:20:267414,3,1,11,10,-7,-3,1,2
14:15:20:275594,3,1,11,10,-7,-3,1,2
14:15:20:276400,-1,-9,-51,-17,12,12,7,1
14:15:20:282459,6,21,56,26,15,7,5,3
14:15:20:298207,6,21,56,26,15,7,5,3
14:15:20:298906,-3,-4,58,-19,-24,-9,-10,-5
14:15:20:304925,-5,-8,1,-3,2,5,3,-1
14:15:20:313095,-5,-8,1,-3,2,5,3,-1
14:15:20:313868,-4,-7,5,-3,6,7,-8,-2
14:15:20:327461,3,4,10,-8,12,17,5,6
14:15:20:335649,3,4,10,-8,12,17,5,6
14:15:20:336354,0,6,6,-4,-5,5,6,2
14:15:20:342346,-2,-7,-21,-6,-11,-1,-4,-3
14:15:20:358135,-2,-7,-21,-6,-11,-1,-4,-3
14:15:20:358875,-4,0,-56,-6,-8,-11,-7,-4
14:15:20:364971,-8,-9,7,-8,-11,-13,-2,-2
14:15:20:373149,-8,-9,7,-8,-11,-13,-2,-2
14:15:20:373863,1,10,-15,3,-14,-10,-3,3
14:15:20:387478,-1,-19,-56,-15,17,4,0,-5
14:15:20:395625,-1,-19,-56,-15,17,4,0,-5
14:15:20:396347,-2,-13,-21,1,11,6,0,-2
14:15:20:402472,-5,-17,-67,-29,-28,-16,-13,-10
14:15:20:418196,-5,-17,-67,-29,-28,-16,-13,-10
14:15:20:418917,1,-10,-4,9,-6,-6,3,-3
14:15:20:424900,0,14,19,0,-2,-5,-4,3
14:15:20:432890,0,14,19,0,-2,-5,-4,3
14:15:20:439910,-5,-7,27,9,-3,-3,4,3
14:15:20:447486,2,6,23,15,2,1,2,0
14:15:20:455587,2,6,23,15,2,1,2,0
14:15:20:456356,-1,-1,-17,-13,3,-4,-8,-4
14:15:20:462407,-11,-40,-83,-15,-9,-6,-7,-4
14:15:20:478125,-11,-40,-83,-15,-9,-6,-7,-4
14:15:20:478861,1,6,7,1,5,0,3,-1
14:15:20:484988,3,14,21,12,-8,14,-5,-1
14:15:20:493094,3,14,21,12,-8,14,-5,-1
14:15:20:493895,-6,-13,-12,1,-5,-24,-7,-6
14:15:20:507450,-6,-7,-2,-17,7,-1,-3,-4
14:15:20:515639,-6,-7,-2,-17,7,-1,-3,-4
14:15:20:516369,-2,4,-11,-15,-1,6,-4,-11
14:15:20:522391,3,8,26,-14,-9,-5,5,-2
14:15:20:538118,3,8,26,-14,-9,-5,5,-2
14:15:20:538880,-1,-8,-11,-10,-15,-9,-7,-3
14:15:20:544914,-2,-3,7,-8,-16,1,-5,-1
14:15:20:553196,-2,-3,7,-8,-16,1,-5,-1
14:15:20:553904,-2,-7,-11,5,2,-9,-8,-5
14:15:20:567538,3,13,20,24,9,5,1,4
14:15:20:575569,3,13,20,24,9,5,1,4
14:15:20:576382,0,-4,-15,1,-2,7,5,2
14:15:20:582415,-6,-11,-16,-14,1,-3,4,-6
14:15:20:598177,-6,-11,-16,-14,1,-3,4,-6
14:15:20:598895,3,12,2,-7,-3,-4,-5,0
14:15:20:604972,1,-4,5,6,1,2,10,5
14:15:20:613119,1,-4,5,6,1,2,10,5
14:15:20:613903,-2,2,22,7,8,5,2,2
14:15:20:627417,-7,-3,11,-17,-3,-12,-19,-12
14:15:20:635689,-7,-3,11,-17,-3,-12,-19,-12
14:15:20:636412,-3,-6,-10,-4,-2,4,7,3
14:15:20:642388,5,10,9,3,0,1,-3,3
14:15:20:658188,5,10,9,3,0,1,-3,3
14:15:20:658918,0,0,-22,-19,-8,2,-3,1
14:15:20:665003,3,1,7,6,-3,-5,-1,1
14:15:20:672481,3,1,7,6,-3,-5,-1,1
14:15:20:679969,15,3,7,19,1,8,1,8
14:15:20:687488,-1,5,-2,19,25,-1,7,2
14:15:20:695602,-1,5,-2,19,25,-1,7,2
14:15:20:696381,-3,12,2,-25,-35,-15,-10,-7
14:15:20:709890,-5,-6,1,5,8,29,10,4
14:15:20:718170,-5,-6,1,5,8,29,10,4
14:15:20:718892,-7,-12,-8,11,20,5,10,-1
14:15:20:724930,-11,-2,-19,-32,-13,-14,-5,1
14:15:20:732524,-11,-2,-19,-32,-13,-14,-5,1
14:15:20:739913,-3,1,-18,-12,-5,-4,-5,-13
14:15:20:747591,1,-22,-31,8,-3,1,7,-1
14:15:20:755638,1,-22,-31,8,-3,1,7,-1
14:15:20:756432,-11,5,-5,-11,-10,-10,-12,-9
14:15:20:769997,-7,10,49,20,14,8,0,4
14:15:20:778098,-7,10,49,20,14,8,0,4
14:15:20:778866,-8,-5,-11,5,4,2,-1,-3
14:15:20:784922,2,2,3,-13,-19,-16,-9,-3
14:15:20:792433,2,2,3,-13,-19,-16,-9,-3
14:15:20:799886,4,-3,14,11,13,3,4,7
14:15:20:807394,7,-7,-3,-5,-7,-2,-2,-3
14:15:20:815701,7,-7,-3,-5,-7,-2,-2,-3
14:15:20:816434,-3,22,-1,1,22,4,5,2
14:15:20:829918,2,5,-20,2,-3,-3,2,-1
14:15:20:838141,2,5,-20,2,-3,-3,2,-1
14:15:20:838935,-15,-35,-33,10,3,-6,-2,-11
14:15:20:844895,3,14,13,5,3,7,-2,2
14:15:20:852586,3,14,13,5,3,7,-2,2
14:15:20:859899,3,11,41,8,-4,-2,3,0
14:15:20:867523,4,7,29,12,-1,-7,-5,-4
14:15:20:875615,4,7,29,12,-1,-7,-5,-4
14:15:20:876374,-2,-9,-28,-7,-6,0,-2,5
14:15:20:889911,2,-27,3,2,9,-7,-5,0
14:15:20:898252,2,-27,3,2,9,-7,-5,0
14:15:20:898941,-10,5,51,-7,-12,-8,-2,-15
14:15:20:904936,4,3,-41,-9,-5,0,6,-7
14:15:20:912427,4,3,-41,-9,-5,0,6,-7
14:15:20:919989,17,14,-7,-11,-5,-1,-4,9
14:15:20:927387,8,4,11,9,8,-1,-12,-18
14:15:20:935720,8,4,11,9,8,-1,-12,-18
14:15:20:936393,2,11,15,-18,6,4,7,-8
14:15:20:949931,-17,-25,18,-14,-9,-4,-5,-1
14:15:20:958082,-17,-25,18,-14,-9,-4,-5,-1
14:15:20:958903,2,-1,-12,13,-3,-5,-8,7
14:15:20:964981,9,25,17,10,2,10,14,5
14:15:20:972429,9,25,17,10,2,10,14,5
14:15:20:979856,-8,-19,-18,8,-2,-2,-3,2
14:15:20:987456,14,22,6,-2,1,5,-1,9
14:15:20:995632,14,22,6,-2,1,5,-1,9
14:15:20:996420,-11,-3,31,34,9,1,-10,-16
14:15:21:9910,-7,-7,-9,-6,-3,-1,-1,6
14:15:21:18168,-7,-7,-9,-6,-3,-1,-1,6
14:15:21:18892,-1,-17,-17,-27,-1,4,12,1
14:15:21:24868,0,3,-9,6,-2,-9,-1,3
14:15:21:32542,0,3,-9,6,-2,-9,-1,3
14:15:21:39886,6,7,2,9,12,-8,-7,-12
14:15:21:47513,-21,-26,-20,16,9,4,2,-5
14:15:21:55659,-21,-26,-20,16,9,4,2,-5
14:15:21:56413,15,26,2,-10,2,9,11,6
14:15:21:69932,4,-12,-33,-15,-16,-14,-4,-7
14:15:21:78117,4,-12,-33,-15,-16,-14,-4,-7
14:15:21:78907,1,-21,-1,-17,-8,-7,-7,5
14:15:21:84992,-3,27,2,-2,-14,3,10,-6
14:15:21:92420,-3,27,2,-2,-14,3,10,-6
14:15:21:99896,-2,-4,2,3,5,6,5,-8
14:15:21:107375,-14,-17,-35,-23,8,0,-8,1
14:15:21:115715,-14,-17,-35,-23,8,0,-8,1
14:15:21:116394,-16,-27,-5,6,-5,-2,-6,1
14:15:21:129897,-13,-18,4,-14,8,1,-2,-3
14:15:21:138140,-13,-18,4,-14,8,1,-2,-3
14:15:21:138949,13,8,-9,3,26,12,6,10
14:15:21:144901,27,26,25,5,-18,0,-8,1
14:15:21:152573,27,26,25,5,-18,0,-8,1
14:15:21:168119,-15,-8,-1,12,-12,-14,-11,-7
14:15:21:168813,0,22,26,12,-2,-3,4,6
14:15:21:175592,0,22,26,12,-2,-3,4,6
14:15:21:176394,-4,-5,-4,11,6,-5,-5,-1
14:15:21:189964,-8,-24,-23,-28,-8,-13,15,-6
14:15:21:198180,-8,-24,-23,-28,-8,-13,15,-6
14:15:21:198879,39,17,45,10,-16,3,7,7
14:15:21:204880,-3,2,-3,15,20,5,-7,-5
14:15:21:212480,-3,2,-3,15,20,5,-7,-5
14:15:21:219935,-1,-2,-8,2,5,17,11,-4
14:15:21:227391,10,46,8,-29,-43,-28,-26,-7
14:15:21:235663,10,46,8,-29,-43,-28,-26,-7
14:15:21:236351,-34,-42,-32,-1,47,36,3,-1
14:15:21:249911,-16,-10,-8,1,6,22,10,6
14:15:21:258170,-16,-10,-8,1,6,22,10,6
14:15:21:258936,4,19,11,-10,-29,-23,-12,3
14:15:21:273108,11,12,4,3,7,-4,-6,1
14:15:21:273923,11,12,4,3,7,-4,-6,1
14:15:21:279935,-6,-9,-31,7,-12,-11,0,1
14:15:21:287436,11,-14,-2,16,6,3,12,3
14:15:21:295614,11,-14,-2,16,6,3,12,3
14:15:21:296419,1,-17,-10,-13,5,-5,16,-16
14:15:21:309865,18,0,21,6,-7,-17,0,-2
14:15:21:318144,18,0,21,6,-7,-17,0,-2
14:15:21:318956,-1,15,12,-10,-25,-8,-7,-1
14:15:21:324886,-1,-11,-13,6,13,18,3,-5
14:15:21:332502,-1,-11,-13,6,13,18,3,-5
14:15:21:339903,-4,0,-24,-57,-26,-14,-15,-1
14:15:21:347515,-12,-8,36,21,14,3,0,0
14:15:21:355609,-12,-8,36,21,14,3,0,0
14:15:21:356371,-7,10,-15,-37,-29,-8,0,4
14:15:21:370002,-10,-13,-30,-15,2,12,-4,-5
14:15:21:378130,-10,-13,-30,-15,2,12,-4,-5
14:15:21:378887,2,-7,0,-5,-9,-10,-1,1
14:15:21:384985,-6,-32,6,13,17,1,5,-4
14:15:21:392364,-6,-32,6,13,17,1,5,-4
14:15:21:399955,11,14,46,11,6,-3,5,6
14:15:21:407403,-17,-10,-43,-19,-20,2,-4,-5
14:15:21:415624,-17,-10,-43,-19,-20,2,-4,-5
14:15:21:416434,-6,-20,-15,8,-15,-20,-21,-19
14:15:21:429936,-5,2,1,20,18,14,4,4
14:15:21:438118,-5,2,1,20,18,14,4,4
14:15:21:438884,-8,10,5,32,1,-15,-6,-3
14:15:21:444900,6,-19,7,3,18,2,-2,13
14:15:21:452505,6,-19,7,3,18,2,-2,13
14:15:21:459854,4,-7,9,17,11,16,-2,10
14:15:21:467448,-1,16,-34,-4,-2,-24,-1,2
14:15:21:475599,-1,16,-34,-4,-2,-24,-1,2
14:15:21:476372,-2,-21,-44,-22,8,4,3,6
14:15:21:489933,0,1,1,-10,6,17,-4,-7
14:15:21:498195,0,1,1,-10,6,17,-4,-7
14:15:21:498886,1,-9,-22,11,8,7,7,1
14:15:21:504904,0,4,4,-1,-24,-24,-5,0
14:15:21:512459,0,4,4,-1,-24,-24,-5,0
14:15:21:519927,-2,4,25,23,-16,-4,25,18
14:15:21:527370,6,-16,22,29,-10,15,17,3
14:15:21:535683,6,-16,22,29,-10,15,17,3
14:15:21:536436,-14,-29,11,-17,-24,-31,-11,-15
14:15:21:549851,3,22,4,-16,-2,13,-5,-9
14:15:21:558131,3,22,4,-16,-2,13,-5,-9
14:15:21:558940,11,16,-13,5,12,29,-4,-5
14:15:21:564996,-3,-7,-44,-25,-11,-9,-9,-7
14:15:21:572494,-3,-7,-44,-25,-11,-9,-9,-7
14:15:21:579947,1,11,7,-9,6,5,-1,4
14:15:21:587473,2,9,9,-7,-20,-21,-11,0
14:15:21:595663,2,9,9,-7,-20,-21,-11,0
14:15:21:596420,-12,-9,-18,4,16,-3,-9,-6
14:15:21:610362,-9,-11,5,-15,-4,-4,-2,14
14:15:21:618206,-9,-11,5,-15,-4,-4,-2,14
14:15:21:618959,7,-24,10,10,4,15,14,16
14:15:21:633113,-7,21,1,-20,0,1,2,-4
14:15:21:633943,-7,21,1,-20,0,1,2,-4
14:15:21:639882,-16,-31,-4,16,-11,-18,-17,-12
14:15:21:647524,1,4,13,10,-16,-4,-5,-6
14:15:21:654997,1,4,13,10,-16,-4,-5,-6
14:15:21:662423,11,28,2,6,23,35,14,8
14:15:21:669959,12,24,13,33,5,-9,15,5
14:15:21:678139,12,24,13,33,5,-9,15,5
14:15:21:678927,6,24,21,-23,-30,-14,-11,2
14:15:21:693098,6,22,16,5,8,6,9,4
14:15:21:693902,6,22,16,5,8,6,9,4
14:15:21:699898,-2,2,6,-28,-17,-8,-5,0
14:15:21:707406,-6,-19,8,5,-11,-5,-7,-4
14:15:21:715080,-6,-19,8,5,-11,-5,-7,-4
14:15:21:722437,-4,14,0,-15,-1,-11,-14,4
14:15:21:729911,-1,-7,10,8,29,26,19,6
14:15:21:738138,-1,-7,10,8,29,26,19,6
14:15:21:738867,10,-5,-25,25,29,4,7,0
14:15:21:753189,-11,-15,-19,-10,-31,-36,-23,-17
14:15:21:753907,-11,-15,-19,-10,-31,-36,-23,-17
14:15:21:759898,1,18,8,-20,-9,1,-15,-16
14:15:21:767447,-1,-17,-6,-6,6,4,-35,-15
14:15:21:774921,-1,-17,-6,-6,6,4,-35,-15
14:15:21:782544,5,14,29,4,7,0,-8,-26
14:15:21:789967,-8,-27,-2,19,5,1,3,31
14:15:21:798206,-8,-27,-2,19,5,1,3,31
14:15:21:798912,-2,9,-5,0,-2,-9,3,8
14:15:21:813129,0,-6,-29,-19,-16,5,0,-4
14:15:21:813925,0,-6,-29,-19,-16,5,0,-4
14:15:21:828069,-2,3,-2,2,4,8,14,-1
14:15:21:828842,-14,-14,-7,-20,20,-6,6,-2
14:15:21:843141,-14,-14,-7,-20,20,-6,6,-2
14:15:21:843899,2,2,29,29,-2,-3,0,16
14:15:21:849900,5,9,8,3,-6,-3,-7,-3
14:15:21:865652,5,9,8,3,-6,-3,-7,-3
14:15:21:866378,2,-27,-33,-13,10,-8,4,4
14:15:21:873100,7,4,-10,-7,8,8,-2,15
14:15:21:873905,7,4,-10,-7,8,8,-2,15
14:15:21:879900,-3,-14,-20,16,-21,-11,-15,-8
14:15:21:887439,0,20,11,13,47,22,12,-6
14:15:21:895037,0,20,11,13,47,22,12,-6
14:15:21:902446,-4,-2,1,16,9,10,7,4
14:15:21:909847,-4,5,7,-16,-37,-26,-11,-10
14:15:21:918168,-4,5,7,-16,-37,-26,-11,-10
14:15:21:918975,1,11,17,-14,-9,4,7,-6
14:15:21:933148,2,-9,-16,-3,-1,-5,1,0
14:15:21:933986,2,-9,-16,-3,-1,-5,1,0
14:15:21:939892,-6,8,3,-6,-7,-4,-17,-4
14:15:21:947574,-2,-10,-22,-14,-26,3,-8,-3
14:15:21:954992,-2,-10,-22,-14,-26,3,-8,-3
14:15:21:962476,-3,-10,3,8,11,62,11,8
14:15:21:969976,-3,-2,-23,-3,-13,9,1,-9
14:15:21:978082,-3,-2,-23,-3,-13,9,1,-9
14:15:21:978837,-9,-16,-36,-7,-2,-18,2,10
14:15:21:993062,4,-1,-28,30,4,3,0,-3
14:15:21:993888,4,-1,-28,30,4,3,0,-3
14:15:21:999959,-4,-2,-15,-15,-18,-13,-9,10
14:15:22:7387,-10,-11,-2,2,-8,-34,5,1
14:15:22:15023,-10,-11,-2,2,-8,-34,5,1
14:15:22:22398,7,-11,2,6,12,-7,5,3
14:15:22:30671,0,2,6,1,11,-17,-10,-10
14:15:22:31377,0,2,6,1,11,-17,-10,-10
14:15:22:37384,0,-10,20,-28,7,2,6,-13
14:15:22:53176,7,5,21,9,22,49,13,9
14:15:22:53884,7,5,21,9,22,49,13,9
14:15:22:59845,5,18,23,4,6,-14,-11,-3
14:15:22:67411,-1,27,27,15,-2,6,-2,-16
14:15:22:74936,-1,27,27,15,-2,6,-2,-16
14:15:22:82498,-20,-6,2,-9,-28,-18,-15,-26
14:15:22:98805,3,-3,-2,-13,0,3,-16,12
14:15:22:99539,3,-3,-2,-13,0,3,-16,12
14:15:22:100345,-2,-6,-15,6,11,-26,5,2
14:15:22:121326,5,0,22,14,23,20,11,5
14:15:22:122116,5,0,22,14,23,20,11,5
14:15:22:122900,2,8,-26,18,10,-19,-5,-3
14:15:22:127350,0,-6,-68,15,82,13,10,3
14:15:22:143114,0,-6,-68,15,82,13,10,3
14:15:22:143885,-2,-5,-22,7,36,21,5,0
14:15:22:149941,-15,-14,2,-33,-55,-43,-11,-11
14:15:22:158133,-15,-14,2,-33,-55,-43,-11,-11
14:15:22:158925,6,10,-16,-23,-23,-8,-4,-8
14:15:22:173144,-4,-16,-6,-7,4,5,22,0
14:15:22:173916,-4,-16,-6,-7,4,5,22,0
14:15:22:179880,-3,2,28,-3,18,50,13,14
14:15:22:187408,4,14,30,0,8,2,1,-2
14:15:22:194965,4,14,30,0,8,2,1,-2
14:15:22:202526,-4,-3,3,-2,6,29,-15,-4
14:15:22:210546,-1,-3,28,-4,-13,-22,-18,-10
14:15:22:211355,-1,-3,28,-4,-13,-22,-18,-10
14:15:22:217463,1,13,10,-22,-25,-16,-15,-17
14:15:22:233066,1,-8,4,5,-12,33,27,1
14:15:22:233875,1,-8,4,5,-12,33,27,1
14:15:22:239915,8,-3,3,29,12,1,29,0
14:15:22:247545,-2,2,-10,-18,-34,-46,35,12
14:15:22:254939,-2,2,-10,-18,-34,-46,35,12
14:15:22:262422,-5,-11,-2,-21,-55,-54,7,4
14:15:22:270645,-1,11,-7,-5,-29,5,-35,12
14:15:22:271414,-1,11,-7,-5,-29,5,-35,12
14:15:22:277374,-2,-5,12,-1,2,13,-5,44
14:15:22:293054,-2,-20,-16,1,13,6,-11,5
14:15:22:293867,-2,-20,-16,1,13,6,-11,5
14:15:22:299910,-1,6,31,31,32,18,-10,-16
14:15:22:307440,-6,4,10,5,17,-5,-16,-22
14:15:22:315073,-6,4,10,5,17,-5,-16,-22
14:15:22:322415,5,-2,3,20,51,35,11,-2
14:15:22:330740,-6,0,1,-27,-27,-12,-24,-26
14:15:22:331426,-6,0,1,-27,-27,-12,-24,-26
14:15:22:337500,4,8,19,-8,9,-24,13,2
14:15:22:353203,0,-13,-11,8,9,1,-31,-4
14:15:22:353941,0,-13,-11,8,9,1,-31,-4
14:15:22:359847,3,-3,-36,-38,-51,-23,-10,-3
14:15:22:367471,5,12,17,17,18,13,-13,9
14:15:22:374988,5,12,17,17,18,13,-13,9
14:15:22:382461,1,18,-2,-17,-27,-11,-7,-35
14:15:22:390630,1,17,-15,8,8,11,16,-3
14:15:22:391449,1,17,-15,8,8,11,16,-3
14:15:22:397526,-4,-3,-9,13,4,-27,-4,-7
14:15:22:421262,-9,-9,-10,-5,10,-56,7,-12
14:15:22:422085,-9,-9,-10,-5,10,-56,7,-12
14:15:22:422902,9,1,-18,23,19,51,9,10
14:15:22:427419,2,-6,2,-18,-44,-13,-6,6
14:15:22:443087,2,-6,2,-18,-44,-13,-6,6
14:15:22:443851,0,14,-16,3,28,-4,63,34
14:15:22:449946,-3,-15,-23,-6,7,28,16,11
14:15:22:465682,-3,-15,-23,-6,7,28,16,11
14:15:22:466403,-14,-28,-20,-37,-60,-19,-36,-35
14:15:22:473075,17,28,39,36,46,42,39,37
14:15:22:473861,17,28,39,36,46,42,39,37
14:15:22:479913,-3,-25,-11,-21,-28,4,-14,-3
14:15:22:487440,-12,-3,-2,-11,-27,-23,-5,-20
14:15:22:494896,-12,-3,-2,-11,-27,-23,-5,-20
14:15:22:502417,10,16,-5,13,6,-2,38,34
14:15:22:510537,7,-15,-7,-8,0,9,-25,-25
14:15:22:511366,7,-15,-7,-8,0,9,-25,-25
14:15:22:517423,2,1,24,30,38,9,36,24
14:15:22:533067,-1,10,2,2,19,24,-8,3
14:15:22:533927,-1,10,2,2,19,24,-8,3
14:15:22:539889,-9,5,-1,-32,-59,-21,-44,-25
14:15:22:547484,2,-10,8,12,-10,39,21,5
14:15:22:555033,2,-10,8,12,-10,39,21,5
14:15:22:562418,-9,-14,0,11,11,18,-7,-2
14:15:22:570613,-15,-6,-8,-29,-42,-39,-17,-14
14:15:22:571408,-15,-6,-8,-29,-42,-39,-17,-14
14:15:22:584924,-6,-16,-34,-5,5,-5,-22,-1
14:15:22:593116,-6,5,3,18,5,-16,4,-3
14:15:22:593892,-6,5,3,18,5,-16,4,-3
14:15:22:599887,2,21,8,-5,-10,0,-8,12
14:15:22:615633,-7,-21,-28,25,48,14,13,8
14:15:22:616383,-7,-21,-28,25,48,14,13,8
14:15:22:622392,-6,-3,-30,-14,1,-10,-18,-18
14:15:22:630669,-4,-19,18,3,-31,-81,-9,3
14:15:22:631418,-4,-19,18,3,-31,-81,-9,3
14:15:22:644942,-1,7,32,42,35,-33,29,-1
14:15:22:653173,13,26,9,-23,-43,-26,2,-1
14:15:22:653910,13,26,9,-23,-43,-26,2,-1
14:15:22:659882,18,-3,-6,-9,-18,0,-18,27
14:15:22:675608,0,0,2,1,-13,-6,4,29
14:15:22:676386,0,0,2,1,-13,-6,4,29
14:15:22:682488,12,35,20,11,2,6,-6,-13
14:15:22:689947,-10,-24,-7,6,21,17,-24,-33
14:15:22:697537,-10,-24,-7,6,21,17,-24,-33
14:15:22:704903,-3,-14,11,-14,-36,-8,-6,-11
14:15:22:712875,11,30,34,6,37,57,22,1
14:15:22:720649,11,30,34,6,37,57,22,1
14:15:22:721378,-13,-13,1,-8,-23,-55,-44,-17
14:15:22:743724,-1,22,13,19,24,-86,55,9
14:15:22:744511,-1,22,13,19,24,-86,55,9
14:15:22:745327,21,35,50,38,25,64,23,20
14:15:22:749949,-11,-12,-29,-33,-46,12,-53,-2
14:15:22:765704,-11,-12,-29,-33,-46,12,-53,-2
14:15:22:766413,-4,-22,-25,-9,9,-5,65,12
14:15:22:773092,11,-10,10,-13,0,10,-11,-3
14:15:22:773892,11,-10,10,-13,0,10,-11,-3
14:15:22:779976,-17,-12,-12,-8,-11,4,-24,-17
14:15:22:795582,2,15,-4,2,-8,11,-3,-6
14:15:22:796385,2,15,-4,2,-8,11,-3,-6
14:15:22:802479,-5,4,19,-15,-10,11,-8,-16
14:15:22:809858,-15,-31,-64,-32,-35,-19,-11,-7
14:15:22:817487,-15,-31,-64,-32,-35,-19,-11,-7
14:15:22:824949,1,-8,-4,-19,-58,-54,5,-13
14:15:22:833085,8,3,-3,11,10,-18,-22,16
14:15:22:833869,8,3,-3,11,10,-18,-22,16
14:15:22:839878,-5,-4,-6,-6,28,32,-4,-3
14:15:22:855616,-4,-8,0,-33,-44,-25,-24,-19
14:15:22:856382,-4,-8,0,-33,-44,-25,-24,-19
14:15:22:862374,0,-2,0,28,97,64,1,1
14:15:22:870009,5,0,4,22,33,25,18,0
14:15:22:877439,5,0,4,22,33,25,18,0
14:15:22:884987,-7,-2,-17,-9,-19,-18,-13,-7
14:15:22:893066,4,9,29,18,8,11,-8,-13
14:15:22:893900,4,9,29,18,8,11,-8,-13
14:15:22:899908,8,-13,-25,10,19,-4,2,0
14:15:22:915587,2,20,25,26,-6,-2,4,-6
14:15:22:916383,2,20,25,26,-6,-2,4,-6
14:15:22:922417,-15,-17,-8,-20,-1,24,-9,-5
14:15:22:929949,10,14,13,-13,27,39,36,14
14:15:22:937523,10,14,13,-13,27,39,36,14
14:15:22:944873,0,2,25,-17,-25,3,-17,38
14:15:22:953199,-2,-13,-3,-6,-7,-6,15,-3
14:15:22:953913,-2,-13,-3,-6,-7,-6,15,-3
14:15:22:959851,-1,13,-5,-14,-27,-45,-4,-20
14:15:22:975629,-1,13,-5,-14,-27,-45,-4,-20
14:15:22:976393,-13,2,-11,-5,6,-6,-20,4
14:15:22:982487,0,-2,-9,11,19,10,9,1
14:15:22:998195,0,-2,-9,11,19,10,9,1
14:15:22:998931,-6,-3,-17,-24,25,42,-1,-10
14:15:23:4897,9,4,-4,-11,-4,-14,-4,-3
14:15:23:13131,9,4,-4,-11,-4,-14,-4,-3
14:15:23:13895,1,13,23,1,-21,5,16,5
14:15:23:19960,1,-6,15,-11,-5,-11,-9,-21
14:15:23:43748,1,-6,15,-11,-5,-11,-9,-21
14:15:23:44520,-9,-7,-4,-9,-24,-13,-28,-10
14:15:23:45329,-4,-2,1,26,10,-21,-22,-37
14:15:23:58077,-4,-2,1,26,10,-21,-22,-37
14:15:23:58878,4,-12,-17,-2,28,22,4,15
14:15:23:65024,-1,16,1,-2,8,34,4,7
14:15:23:73108,-1,16,1,-2,8,34,4,7
14:15:23:73867,8,3,-15,6,-26,-41,-1,-1
14:15:23:79960,-4,-10,-15,-5,-22,-12,-8,-7
14:15:23:95588,-4,-10,-15,-5,-22,-12,-8,-7
14:15:23:96344,5,-1,-7,-1,10,0,24,22
14:15:23:102517,-6,-5,-34,-16,-18,-25,-14,1
14:15:23:118189,-6,-5,-34,-16,-18,-25,-14,1
14:15:23:118911,-4,1,-19,6,34,-5,-2,-31
14:15:23:124905,-3,-9,-13,-2,-47,-21,18,0
14:15:23:133074,-3,-9,-13,-2,-47,-21,18,0
14:15:23:133901,-10,13,59,2,-14,19,-18,-9
14:15:23:139947,-2,-8,0,-2,9,21,13,16
14:15:23:155670,-2,-8,0,-2,9,21,13,16
14:15:23:156450,-4,-26,-16,-21,-35,0,19,7
14:15:23:162406,7,13,53,41,32,32,21,31
14:15:23:178113,7,13,53,41,32,32,21,31
14:15:23:178914,-3,-10,-20,-6,0,-13,15,22
14:15:23:184996,4,-9,-16,8,33,1,-7,-23
14:15:23:193091,4,-9,-16,8,33,1,-7,-23
14:15:23:193835,-6,-4,-7,-14,-23,-5,-1,3
14:15:23:199914,4,11,-5,-1,34,19,-8,2
14:15:23:216104,4,11,-5,-1,34,19,-8,2
14:15:23:216841,-2,-9,-22,-6,8,-33,-36,-13
14:15:23:222411,1,-2,6,14,27,10,6,2
14:15:23:238140,1,-2,6,14,27,10,6,2
14:15:23:238928,-6,-8,-3,-7,-42,-33,-33,-32
14:15:23:244871,5,6,-27,-21,-37,-9,-21,-24
14:15:23:253252,5,6,-27,-21,-37,-9,-21,-24
14:15:23:253935,-18,-3,9,28,-12,5,0,-4
14:15:23:259886,-6,7,26,-10,-7,17,22,28
14:15:23:275649,-6,7,26,-10,-7,17,22,28
14:15:23:276404,14,12,23,-10,-1,31,11,10
14:15:23:282403,-8,7,-5,12,-4,-23,-8,-8
14:15:23:298198,-8,7,-5,12,-4,-23,-8,-8
14:15:23:298899,4,1,-9,-3,23,8,-1,7
14:15:23:304919,3,-5,-9,-18,-8,-7,18,42
14:15:23:321323,3,-5,-9,-18,-8,-7,18,42
14:15:23:322055,-9,2,-6,-5,38,-1,-22,-5
14:15:23:322895,-2,2,4,-14,-23,9,-2,7
14:15:23:335638,-2,2,4,-14,-23,9,-2,7
14:15:23:336403,5,7,14,11,24,51,28,24
14:15:23:342393,-11,9,15,5,8,3,-6,-45
14:15:23:358115,-11,9,15,5,8,3,-6,-45
14:15:23:358929,1,10,1,36,29,6,-14,-10
14:15:23:364980,-2,-3,-2,-7,-22,-24,2,-7
14:15:23:373110,-2,-3,-2,-7,-22,-24,2,-7
14:15:23:373904,-5,-22,-9,-18,-6,3,11,-6
14:15:23:379976,-1,-7,25,1,-32,-32,-25,-4
14:15:23:395593,-1,-7,25,1,-32,-32,-25,-4
14:15:23:396375,0,-1,1,10,-5,-7,18,-6
14:15:23:402481,-4,-6,-18,-9,0,2,-3,-16
14:15:23:418244,-4,-6,-18,-9,0,2,-3,-16
14:15:23:418955,-16,-14,2,0,-1,-12,58,-9
14:15:23:424903,-5,-1,3,-13,31,23,7,1
14:15:23:433137,-5,-1,3,-13,31,23,7,1
14:15:23:433899,7,16,-4,-48,-79,-56,1,-10
14:15:23:439928,6,8,-27,29,31,6,-9,11
14:15:23:455691,6,8,-27,29,31,6,-9,11
14:15:23:456436,0,-4,19,-4,17,16,-18,-4
14:15:23:462397,0,-4,1,7,-20,-26,-5,4
14:15:23:470025,0,-4,1,7,-20,-26,-5,4
14:15:23:477400,9,7,-14,6,-7,-13,-11,7
14:15:23:493727,-2,-18,-16,-9,-13,11,-12,-7
14:15:23:494525,-2,-18,-16,-9,-13,11,-12,-7
14:15:23:495314,5,-1,4,10,26,23,9,35
14:15:23:499889,-7,-18,-10,-13,-9,13,8,-6
14:15:23:515686,-7,-18,-10,-13,-9,13,8,-6
14:15:23:516404,7,-3,13,1,-15,13,-29,5
14:15:23:522429,-6,3,-5,-7,2,-23,-19,-9
14:15:23:529999,-6,3,-5,-7,2,-23,-19,-9
14:15:23:537383,-6,2,-8,1,10,6,-13,-15
14:15:23:544889,-5,-24,19,-4,-38,-20,0,-1
14:15:23:553189,-5,-24,19,-4,-38,-20,0,-1
14:15:23:553893,2,-9,-16,23,62,21,13,15
14:15:23:576287,1,17,27,29,-17,-34,7,6
14:15:23:577041,1,17,27,29,-17,-34,7,6
14:15:23:577849,-6,16,8,9,-38,-18,-18,-44
14:15:23:582411,10,-4,-42,3,4,16,23,9
14:15:23:598228,10,-4,-42,3,4,16,23,9
14:15:23:598911,-1,1,-6,-15,-25,-30,-29,-15
14:15:23:604862,-12,3,5,4,7,-2,39,-31
14:15:23:613109,-12,3,5,4,7,-2,39,-31
14:15:23:613925,-4,2,24,16,26,20,33,13
14:15:23:627361,-2,6,-9,-19,-45,-17,-21,22
14:15:23:635666,-2,6,-9,-19,-45,-17,-21,22
14:15:23:636365,-3,-18,-35,10,4,2,0,23
14:15:23:642328,-1,5,-8,-7,28,33,-16,-8
14:15:23:658099,-1,5,-8,-7,28,33,-16,-8
14:15:23:658874,9,0,-13,-5,-6,-8,-7,2
14:15:23:664951,3,6,11,4,17,26,16,4
14:15:23:673119,3,6,11,4,17,26,16,4
14:15:23:673899,-1,1,-8,7,8,6,11,4
14:15:23:687385,3,22,30,-6,23,28,5,-2
14:15:23:695591,3,22,30,-6,23,28,5,-2
14:15:23:696372,-2,-4,0,-21,-18,-6,9,14
14:15:23:702436,-1,-14,4,-8,-12,-27,-33,-23
14:15:23:709926,-1,-14,4,-8,-12,-27,-33,-23
14:15:23:717425,-4,-23,-49,2,17,-5,25,17
14:15:23:724907,-12,0,-7,6,11,5,-13,-26
14:15:23:733163,-12,0,-7,6,11,5,-13,-26
14:15:23:733946,20,19,19,7,-16,-6,-13,11
14:15:23:747457,-6,-16,-10,8,19,-43,-1,12
14:15:23:755655,-6,-16,-10,8,19,-43,-1,12
14:15:23:756388,-3,-2,18,3,-18,-2,-2,0
14:15:23:762420,-4,-7,-14,-12,-1,21,-6,-1
14:15:23:770059,-4,-7,-14,-12,-1,21,-6,-1
14:15:23:777440,-3,8,-12,8,-3,3,-1,-2
14:15:23:785030,8,-12,-22,9,22,9,19,14
14:15:23:793060,8,-12,-22,9,22,9,19,14
14:15:23:793851,-5,-1,-6,-7,-17,5,-13,-29
14:15:23:807399,6,2,-2,-1,1,-1,43,50
14:15:23:815676,6,2,-2,-1,1,-1,43,50
14:15:23:816391,-2,3,19,-14,-11,18,-42,-37
14:15:23:830661,-4,-3,-3,9,27,25,1,-12
14:15:23:831459,-4,-3,-3,9,27,25,1,-12
14:15:23:837495,-7,5,-3,4,18,16,8,5
14:15:23:853860,3,1,13,-9,-17,-21,-8,7
14:15:23:854608,3,1,13,-9,-17,-21,-8,7
14:15:23:855411,-9,-11,-31,7,-6,-16,-10,-10
14:15:23:867423,-6,-3,1,-21,-47,-9,-5,-13
14:15:23:875583,-6,-3,1,-21,-47,-9,-5,-13
14:15:23:876364,-1,-4,9,-10,-23,-18,9,13
14:15:23:882446,-2,26,32,-1,8,24,-14,2
14:15:23:889955,-2,26,32,-1,8,24,-14,2
14:15:23:897512,-2,-12,-9,-7,5,-10,-2,-20
14:15:23:904913,1,-22,-11,3,-25,-24,-24,-1
14:15:23:913099,1,-22,-11,3,-25,-24,-24,-1
14:15:23:913941,7,15,58,14,9,-12,-4,0
14:15:23:927377,-10,-14,4,-23,-19,10,-37,-19
14:15:23:935677,-10,-14,4,-23,-19,10,-37,-19
14:15:23:936354,-7,-23,19,-12,11,44,9,9
14:15:23:942353,4,-7,-11,-24,-20,-18,-11,-13
14:15:23:949969,4,-7,-11,-24,-20,-18,-11,-13
14:15:23:957439,-3,-4,-8,-4,13,3,10,-4
14:15:23:964988,1,0,-26,-13,2,-8,6,4
14:15:23:973178,1,0,-26,-13,2,-8,6,4
14:15:23:973937,-4,-1,-8,14,8,-11,-9,6
14:15:23:987450,-6,-15,1,4,-31,-55,30,-9
14:15:23:995587,-6,-15,1,4,-31,-55,30,-9
14:15:23:996423,22,2,-11,-6,-16,9,16,25
14:15:24:2490,12,18,12,31,18,10,-2,-5
14:15:24:9980,12,18,12,31,18,10,-2,-5
14:15:24:17501,-15,-7,5,6,-3,-40,-9,19
14:15:24:24929,1,10,2,34,35,12,1,5
14:15:24:33076,1,10,2,34,35,12,1,5
14:15:24:33869,-4,2,25,-2,5,15,-8,-19
14:15:24:47522,-7,6,-12,-10,11,15,5,7
14:15:24:63777,-7,6,-12,-10,11,15,5,7
14:15:24:64614,-5,-12,-24,-22,-11,-13,-14,-15
14:15:24:65386,9,19,27,19,29,-3,9,4
14:15:24:70044,9,19,27,19,29,-3,9,4
14:15:24:85641,0,0,-9,-7,-25,0,-3,-4
14:15:24:86358,0,6,-12,0,-39,-26,0,8
14:15:24:93081,0,6,-12,0,-39,-26,0,8
14:15:24:93913,-4,7,11,17,1,19,14,26
14:15:24:107859,-2,-2,24,-11,30,43,-26,-19
14:15:24:115654,-2,-2,24,-11,30,43,-26,-19
14:15:24:116381,6,-4,-13,5,78,-17,7,-2
14:15:24:130748,-1,5,2,1,4,-3,-7,3
14:15:24:131388,-1,5,2,1,4,-3,-7,3
14:15:24:137416,10,15,-10,-27,-37,-35,-37,-13
14:15:24:144905,12,-8,-26,5,44,19,15,19
14:15:24:153169,12,-8,-26,5,44,19,15,19
14:15:24:153916,2,26,59,13,-22,-2,5,-11
14:15:24:167488,-7,-4,0,4,-23,-30,-7,-9
14:15:24:175601,-7,-4,0,4,-23,-30,-7,-9
14:15:24:176368,-7,-12,-8,-14,-7,-25,12,-1
14:15:24:182360,2,4,12,39,48,35,18,3
14:15:24:189989,2,4,12,39,48,35,18,3
14:15:24:197484,-2,5,-11,-2,18,16,-21,-21
14:15:24:204901,-23,-37,-42,-9,-23,-40,4,-8
14:15:24:213107,-23,-37,-42,-9,-23,-40,4,-8
14:15:24:213913,-6,-17,-26,-14,-14,-20,0,-21
14:15:24:227363,5,10,34,23,24,52,87,28
14:15:24:235757,5,10,34,23,24,52,87,28
14:15:24:236473,-1,-9,10,-6,-13,6,-8,11
14:15:24:242329,-4,-13,4,0,-18,-6,-24,-4
14:15:24:249979,-4,-13,4,0,-18,-6,-24,-4
14:15:24:257406,-6,2,2,-10,-4,7,28,11
14:15:24:264962,-4,-12,0,4,-9,0,-31,-8
14:15:24:273159,-4,-12,0,4,-9,0,-31,-8
14:15:24:273941,0,12,17,11,-7,-10,-28,-19
14:15:24:287436,-2,6,-13,-22,-24,-28,-17,-7
14:15:24:295592,-2,6,-13,-22,-24,-28,-17,-7
14:15:24:296388,-1,11,11,-4,12,14,18,23
14:15:24:302465,17,-10,-7,-17,-22,4,17,18
14:15:24:309933,17,-10,-7,-17,-22,4,17,18
14:15:24:317456,-27,6,-8,-11,0,8,41,-18
14:15:24:324907,0,8,-19,-7,39,24,10,-4
14:15:24:340644,0,8,-19,-7,39,24,10,-4
14:15:24:341402,10,-20,-17,-18,-22,5,-18,17
14:15:24:347512,-4,8,3,-9,-20,-13,-12,-10
14:15:24:363769,-4,8,3,-9,-20,-13,-12,-10
14:15:24:364521,-1,-5,-19,-12,5,-21,-7,-2
14:15:24:365359,-2,3,-2,-12,-10,-4,-16,-10
14:15:24:370021,-2,3,-2,-12,-10,-4,-16,-10
14:15:24:385620,-7,-15,3,0,14,12,-19,-14
14:15:24:386308,15,3,-14,-10,16,18,9,9
14:15:24:393086,15,3,-14,-10,16,18,9,9
14:15:24:393876,1,-22,-20,10,6,1,17,11
14:15:24:407838,-12,3,1,1,-2,1,-28,6
14:15:24:415645,-12,3,1,1,-2,1,-28,6
14:15:24:416371,-13,-6,-1,-7,-16,13,-26,-11
14:15:24:422379,-4,-1,-13,0,-6,9,-9,-11
14:15:24:429958,-4,-1,-13,0,-6,9,-9,-11
14:15:24:437466,4,12,-17,-4,17,5,11,5
14:15:24:444876,-2,-16,-8,-31,3,-15,2,-2
14:15:24:452528,-2,-16,-8,-31,3,-15,2,-2
14:15:24:459876,1,-28,-20,9,-4,4,13,0
14:15:24:467407,-6,8,18,18,-13,-32,-12,-8
14:15:24:475589,-6,8,18,18,-13,-32,-12,-8
14:15:24:476402,8,3,-21,-4,10,-5,-17,-1
14:15:24:490594,-9,-25,8,10,26,14,-1,-5
14:15:24:491416,-9,-25,8,10,26,14,-1,-5
14:15:24:497499,-2,12,16,7,-3,12,-6,-3
14:15:24:504916,5,12,-22,-12,37,12,1,11
14:15:24:512487,5,12,-22,-12,37,12,1,11
14:15:24:520001,4,-11,21,14,4,25,16,-4
14:15:24:527363,0,-11,18,3,-12,-16,0,21
14:15:24:535611,0,-11,18,3,-12,-16,0,21
14:15:24:536372,-4,16,7,-16,-22,4,-23,-7
14:15:24:550666,13,26,30,19,-15,0,6,-2
14:15:24:551453,13,26,30,19,-15,0,6,-2
14:15:24:557400,4,9,1,4,-51,-24,-7,-14
14:15:24:564989,8,12,-5,7,22,-1,4,-8
14:15:24:572438,8,12,-5,7,22,-1,4,-8
14:15:24:579955,2,0,-8,3,-9,0,-2,-17
14:15:24:587436,-6,5,-1,-2,-23,-10,-21,-21
14:15:24:595613,-6,5,-1,-2,-23,-10,-21,-21
14:15:24:596354,-4,3,4,8,-8,-43,-9,9
14:15:24:618821,-2,8,-6,-12,-11,-7,-2,-7
14:15:24:619551,-2,8,-6,-12,-11,-7,-2,-7
14:15:24:620370,3,-7,16,-2,10,1,7,5
14:15:24:624875,-3,-14,-18,15,-15,0,14,-6
14:15:24:640603,-3,-14,-18,15,-15,0,14,-6
14:15:24:641370,12,11,-6,1,18,-6,19,14
14:15:24:647497,-21,-38,-30,-31,-7,33,-5,-18
14:15:24:663097,-21,-38,-30,-31,-7,33,-5,-18
14:15:24:663920,8,11,18,10,31,15,9,32
14:15:24:670646,-3,-18,-24,12,19,0,-3,3
14:15:24:671395,-3,-18,-24,12,19,0,-3,3
14:15:24:677371,-13,6,-6,-6,-12,-9,-4,-15
14:15:24:685036,-8,22,44,22,-11,-54,-19,-18
14:15:24:692431,-8,22,44,22,-11,-54,-19,-18
14:15:24:699892,3,23,10,2,21,14,9,-7
14:15:24:707393,0,4,11,-52,-30,-12,-5,-2
14:15:24:715704,0,4,11,-52,-30,-12,-5,-2
14:15:24:716407,-4,-11,-33,-15,-6,4,-12,5
14:15:24:730675,2,3,17,46,49,12,31,17
14:15:24:731466,2,3,17,46,49,12,31,17
14:15:24:737421,3,-9,10,-13,-25,-2,-26,7
14:15:24:744876,5,-2,-2,-12,-15,-9,-46,-6
14:15:24:752597,5,-2,-2,-12,-15,-9,-46,-6
14:15:24:759879,-9,-13,-6,6,53,7,0,-25
14:15:24:767488,6,10,20,-10,4,23,15,39
14:15:24:775593,6,10,20,-10,4,23,15,39
14:15:24:776343,-1,-8,-13,-17,-19,-7,5,8
14:15:24:790597,-2,-9,3,6,-14,8,10,-14
14:15:24:791396,-2,-9,3,6,-14,8,10,-14
14:15:24:797540,-6,-7,-10,-36,-57,-31,-2,-9
14:15:24:804932,9,9,-8,24,43,22,-11,15
14:15:24:812462,9,9,-8,24,43,22,-11,15
14:15:24:819973,-3,-7,25,20,9,5,1,2
14:15:24:827387,5,-19,-27,-18,-22,-27,-30,0
14:15:24:835642,5,-19,-27,-18,-22,-27,-30,0
14:15:24:836376,-20,0,-23,-19,23,55,4,-6
14:15:24:850608,-17,-17,-23,-7,-17,-38,-18,-31
14:15:24:851360,-17,-17,-23,-7,-17,-38,-18,-31
14:15:24:857358,6,-7,-7,7,1,14,10,2
14:15:24:872834,-7,-2,-8,9,-27,-53,0,-6
14:15:24:880593,-7,-2,-8,9,-27,-53,0,-6
14:15:24:881376,1,11,2,21,-15,-22,5,-2
14:15:24:896314,10,20,6,7,-13,6,9,12
14:15:24:897113,10,20,6,7,-13,6,9,12
14:15:24:897895,-7,5,-12,-12,-18,25,-6,-27
14:15:24:918812,-1,14,13,0,-5,-13,23,10
14:15:24:919538,-1,14,13,0,-5,-13,23,10
14:15:24:920358,-4,-7,-18,-7,18,39,52,22
14:15:24:924854,-7,-5,13,-36,-36,-22,-1,-21
14:15:24:932478,-7,-5,13,-36,-36,-22,-1,-21
14:15:24:939931,7,10,15,23,-23,-16,-8,-2
14:15:24:947544,4,-4,20,20,24,23,-6,1
14:15:24:955630,4,-4,20,20,24,23,-6,1
14:15:24:956440,-5,-16,6,-16,8,-39,-10,10
14:15:24:970687,3,8,29,-1,29,78,6,10
14:15:24:971397,3,8,29,-1,29,78,6,10
14:15:24:977370,16,17,13,12,4,48,0,-14
14:15:24:984970,-8,-13,-32,-12,29,14,-4,-5
14:15:24:992449,-8,-13,-32,-12,29,14,-4,-5
14:15:24:999908,2,7,-14,44,-6,-29,-64,-47
14:15:25:7420,2,-37,-32,-1,-28,8,19,10
14:15:25:15639,2,-37,-32,-1,-28,8,19,10
14:15:25:16372,-11,-7,-2,-6,-17,-46,-22,-26
14:15:25:30733,-9,-16,-3,-10,21,1,15,19
14:15:25:31454,-9,-16,-3,-10,21,1,15,19
14:15:25:37452,4,1,21,-9,14,-11,-2,21
14:15:25:44879,-3,2,-10,-8,-20,-26,4,-9
14:15:25:52503,-3,2,-10,-8,-20,-26,4,-9
14:15:25:59895,-9,1,-18,-12,-1,-44,1,13
14:15:25:67502,0,15,28,8,-3,52,6,-5
14:15:25:75682,0,15,28,8,-3,52,6,-5
14:15:25:76373,-10,0,0,19,50,8,8,21
14:15:25:90598,9,4,-24,-20,-25,-38,-19,2
14:15:25:91393,9,4,-24,-20,-25,-38,-19,2
14:15:25:97529,19,17,5,-14,-22,-35,2,11
14:15:25:104939,-1,4,16,16,-6,-1,-17,-13
14:15:25:112434,-1,4,16,16,-6,-1,-17,-13
14:15:25:128083,12,-6,-28,3,-1,-5,4,26
14:15:25:128841,12,19,0,-10,17,23,5,8
14:15:25:135698,12,19,0,-10,17,23,5,8
14:15:25:136381,0,-1,5,10,-1,30,10,5
14:15:25:150628,-7,25,-1,4,-40,-26,0,-8
14:15:25:151392,-7,25,-1,4,-40,-26,0,-8
14:15:25:157431,-14,-9,26,-5,-12,-9,-10,-23
14:15:25:165013,6,-9,12,3,10,17,-6,-9
14:15:25:172432,6,-9,12,3,10,17,-6,-9
14:15:25:179862,-4,-8,-11,15,56,21,9,-15
14:15:25:187439,-11,-10,-6,11,5,6,-14,1
14:15:25:195621,-11,-10,-6,11,5,6,-14,1
14:15:25:196402,-1,-12,-1,-18,-32,20,-44,-1
14:15:25:210570,-1,-9,-13,-21,-33,-33,8,-16
14:15:25:211372,-1,-9,-13,-21,-33,-33,8,-16
14:15:25:217459,-6,10,10,-5,-2,-13,22,-27
14:15:25:224900,-9,-20,-15,0,28,5,-2,-2
14:15:25:232529,-9,-20,-15,0,28,5,-2,-2
14:15:25:239910,3,13,6,0,-14,-3,-2,6
14:15:25:247465,1,-2,-17,14,31,26,18,37
14:15:25:255642,1,-2,-17,14,31,26,18,37
14:15:25:256408,6,9,-12,-19,-23,-4,0,18
14:15:25:270624,-1,5,-20,-25,11,-1,-6,-10
14:15:25:271410,-1,5,-20,-25,11,-1,-6,-10
14:15:25:277340,-2,-14,-30,-7,-1,-11,15,12
14:15:25:284978,-3,0,13,4,-6,-22,-4,-13
14:15:25:292420,-3,0,13,4,-6,-22,-4,-13
14:15:25:299922,-18,-21,9,8,29,13,-9,-34
14:15:25:307418,-5,-5,-19,-19,-8,-43,-29,-31
14:15:25:315673,-5,-5,-19,-19,-8,-43,-29,-31
14:15:25:316443,-3,12,12,-4,-8,4,3,-8
14:15:25:330685,3,8,40,21,2,5,31,8
14:15:25:331419,3,8,40,21,2,5,31,8
14:15:25:337422,0,0,-4,-4,-31,-12,0,-1
14:15:25:344895,-1,12,9,-15,-12,-76,-2,11
14:15:25:352562,-1,12,9,-15,-12,-76,-2,11
14:15:25:359896,8,5,21,-5,-17,13,15,19
14:15:25:367480,7,-3,-1,8,-23,8,-40,-11
14:15:25:375594,7,-3,-1,8,-23,8,-40,-11
14:15:25:376353,-8,-16,-15,5,7,44,33,26
14:15:25:390573,10,-2,12,16,-7,49,5,11
14:15:25:391367,10,-2,12,16,-7,49,5,11
14:15:25:397485,11,2,-13,11,-10,-24,-34,9
14:15:25:413121,-5,1,-21,-13,3,-9,-2,5
14:15:25:413941,-5,1,-21,-13,3,-9,-2,5
14:15:25:420003,-3,-8,2,-32,-1,13,-13,-17
14:15:25:427400,-3,7,8,7,-18,23,7,-19
14:15:25:435022,-3,7,8,7,-18,23,7,-19
14:15:25:442368,-9,-15,-30,2,8,-32,6,-3
14:15:25:450663,-1,-6,19,10,50,37,36,0
14:15:25:451406,-1,-6,19,10,50,37,36,0
14:15:25:457432,-18,-12,-4,5,-13,-73,-4,-18
14:15:25:473087,9,11,-41,-12,11,-16,19,30
14:15:25:473875,9,11,-41,-12,11,-16,19,30
14:15:25:479947,4,-13,2,-5,13,40,-42,-1
14:15:25:487456,-3,-11,23,11,-10,-33,0,29
14:15:25:494925,-3,-11,23,11,-10,-33,0,29
14:15:25:502482,-3,-1,-15,10,30,16,2,-3
14:15:25:510537,-5,-18,-41,-23,-45,9,2,-1
14:15:25:511356,-5,-18,-41,-23,-45,9,2,-1
14:15:25:517464,7,7,7,9,-54,-24,11,21
14:15:25:533089,-6,-8,12,3,0,-15,9,-7
14:15:25:533874,-6,-8,12,3,0,-15,9,-7
14:15:25:539955,3,-1,14,-9,5,-2,3,-7
14:15:25:547519,-7,-1,-7,-18,-4,6,-28,-19
14:15:25:555002,-7,-1,-7,-18,-4,6,-28,-19
14:15:25:562364,-6,-2,-2,-19,13,2,-6,-10
14:15:25:570655,-2,11,1,17,29,27,13,2
14:15:25:571370,-2,11,1,17,29,27,13,2
14:15:25:577345,5,-17,-39,-19,-2,14,4,15
14:15:25:593056,-9,5,31,0,-4,-25,-22,-57
14:15:25:593841,-9,5,31,0,-4,-25,-22,-57
14:15:25:599881,-15,7,26,20,22,-3,-15,0
14:15:25:607399,-7,-44,-52,-3,17,13,-2,-2
14:15:25:615013,-7,-44,-52,-3,17,13,-2,-2
14:15:25:622362,-3,11,34,15,25,30,28,2
14:15:25:630689,-3,0,9,-28,-19,14,-15,-6
14:15:25:631429,-3,0,9,-28,-19,14,-15,-6
14:15:25:637407,10,-3,-7,-2,-22,-38,10,12
14:15:25:653171,1,8,6,-5,-28,-27,-21,-1
14:15:25:653943,1,8,6,-5,-28,-27,-21,-1
14:15:25:659872,1,17,7,-13,-16,27,13,2
14:15:25:667396,5,11,21,28,58,13,-9,17
14:15:25:683141,5,11,21,28,58,13,-9,17
14:15:25:683964,-1,3,3,16,25,-6,2,-28
14:15:25:690593,-4,-5,21,1,-22,4,2,0
14:15:25:691424,-4,-5,21,1,-22,4,2,0
14:15:25:697531,-3,6,28,3,-12,-7,-5,17
14:15:25:713122,2,20,9,-3,-19,17,26,4
14:15:25:713899,2,20,9,-3,-19,17,26,4
14:15:25:719957,9,2,9,5,-35,-44,0,-2
14:15:25:727361,8,6,-6,24,26,3,-5,1
14:15:25:735020,8,6,-6,24,26,3,-5,1
14:15:25:742403,0,0,4,12,5,15,-8,-6
14:15:25:750688,-3,-31,-48,-11,3,-5,2,-1
14:15:25:751403,-3,-31,-48,-11,3,-5,2,-1
14:15:25:757431,-2,-12,-4,17,60,4,24,38
14:15:25:773123,0,9,-5,-7,-35,-45,29,16
14:15:25:773915,0,9,-5,-7,-35,-45,29,16
14:15:25:779918,-18,-8,4,-12,5,21,-24,-20
14:15:25:787474,-1,1,-12,-43,-15,-20,-11,-7
14:15:25:794956,-1,1,-12,-43,-15,-20,-11,-7
14:15:25:802476,5,0,2,-11,-21,3,11,2
14:15:25:810551,10,2,-12,15,-4,4,-7,-10
14:15:25:811354,10,2,-12,15,-4,4,-7,-10
14:15:25:817466,0,-1,-9,-19,-22,6,-3,-8
14:15:25:833067,-8,-17,-21,-30,14,-1,-2,-2
14:15:25:833840,-8,-17,-21,-30,14,-1,-2,-2
14:15:25:839928,0,8,-3,5,-7,-10,-24,-7
14:15:25:847521,-9,-12,-16,5,-11,27,4,3
14:15:25:854951,-9,-12,-16,5,-11,27,4,3
14:15:25:862442,-2,-9,-9,3,7,51,5,-8
14:15:25:870641,9,3,1,-16,2,-31,-13,7
14:15:25:871377,9,3,1,-16,2,-31,-13,7
14:15:25:877343,5,-11,-22,-1,24,28,-4,-18
14:15:25:893039,-5,2,18,16,13,32,6,5
14:15:25:893867,-5,2,18,16,13,32,6,5
14:15:25:899943,13,24,20,4,-41,-44,-6,-5
14:15:25:907430,-8,-3,9,6,17,18,-10,10
14:15:25:915036,-8,-3,9,6,17,18,-10,10
14:15:25:922430,13,2,-10,13,42,24,13,-7
14:15:25:930738,-2,-2,-4,39,-2,-20,-8,-8
14:15:25:931447,-2,-2,-4,39,-2,-20,-8,-8
14:15:25:937446,-7,0,4,4,-8,-1,-10,-2
14:15:25:953136,5,21,31,-6,-5,-9,-24,4
14:15:25:953907,5,21,31,-6,-5,-9,-24,4
14:15:25:959835,-13,-12,-16,-2,53,51,-5,5
14:15:25:967505,-3,11,-14,23,41,18,2,-19
14:15:25:974961,-3,11,-14,23,41,18,2,-19
14:15:25:982410,-3,-8,-5,-12,32,-16,9,30
14:15:25:990586,-9,-9,0,-7,-49,-32,-29,-38
14:15:25:991386,-9,-9,0,-7,-49,-32,-29,-38
14:15:25:997457,-9,-6,-12,-8,-49,-42,-4,-19
14:15:26:13108,1,14,7,5,16,3,22,14
14:15:26:13875,1,14,7,5,16,3,22,14
14:15:26:19924,-3,0,-15,-2,-24,-29,-1,-5
14:15:26:27351,3,2,37,-8,-15,24,35,5
14:15:26:35065,3,2,37,-8,-15,24,35,5
14:15:26:42373,3,-4,-10,1,-19,-4,7,8
14:15:26:50619,-2,2,-10,-19,-47,-41,-20,3
14:15:26:51424,-2,2,-10,-19,-47,-41,-20,3
14:15:26:57416,6,6,-8,35,-6,-68,38,26
14:15:26:73137,11,-9,4,-16,-9,-1,-7,6
14:15:26:73929,11,-9,4,-16,-9,-1,-7,6
14:15:26:79948,-4,1,16,-21,-39,3,-23,-10
14:15:26:87444,-4,-6,-7,0,45,45,32,43
14:15:26:94982,-4,-6,-7,0,45,45,32,43
14:15:26:102489,1,0,-24,-19,2,2,-11,3
14:15:26:110586,8,-2,2,6,34,43,1,-10
14:15:26:111384,8,-2,2,6,34,43,1,-10
14:15:26:117478,-7,-2,12,-18,-15,-5,-31,-27
14:15:26:133100,-6,-4,-6,-6,-28,-5,-1,-9
14:15:26:133866,-6,-4,-6,-6,-28,-5,-1,-9
14:15:26:139910,-5,-9,-7,2,6,-2,-5,-2
14:15:26:147494,0,-3,11,1,55,38,7,0
14:15:26:154979,0,-3,11,1,55,38,7,0
14:15:26:162382,5,6,-34,-9,12,0,2,-1
14:15:26:170675,-10,-5,8,12,-20,-53,3,8
14:15:26:171433,-10,-5,8,12,-20,-53,3,8
14:15:26:177395,0,2,24,0,8,10,-4,2
14:15:26:193097,2,-4,-32,-8,21,11,25,10
14:15:26:193888,2,-4,-32,-8,21,11,25,10
14:15:26:199876,-22,13,1,-3,-47,-58,-6,-4
14:15:26:207441,2,-1,15,16,15,32,-25,-18
14:15:26:215084,2,-1,15,16,15,32,-25,-18
14:15:26:222402,14,14,9,-14,5,32,-1,8
14:15:26:230691,3,2,-18,-15,-53,-55,-11,-9
14:15:26:231465,3,2,-18,-15,-53,-55,-11,-9
14:15:26:237423,3,-9,8,-15,-7,13,-5,1
14:15:26:253172,-1,-8,-40,-15,0,-1,1,11
14:15:26:253908,-1,-8,-40,-15,0,-1,1,11
14:15:26:259835,-7,-8,-12,12,-2,13,2,-12
14:15:26:267430,13,-12,8,-6,2,-51,-25,-18
14:15:26:274966,13,-12,8,-6,2,-51,-25,-18
14:15:26:282448,15,-16,-2,13,16,59,59,11
14:15:26:290660,15,-16,-2,13,16,59,59,11
14:15:26:291427,-4,-5,-13,8,11,-33,-27,-11
14:15:26:297495,-3,-5,15,22,-3,-32,-18,-9
14:15:26:313094,-3,-5,15,22,-3,-32,-18,-9
14:15:26:313953,-1,-11,-9,-14,-11,1,8,-9
14:15:26:319924,8,1,-16,-12,-40,-9,0,17
14:15:26:335681,8,1,-16,-12,-40,-9,0,17
14:15:26:336400,-7,10,18,-20,-51,-8,-7,-4
14:15:26:342332,-7,11,4,2,36,2,-6,-8
14:15:26:350628,-7,11,4,2,36,2,-6,-8
14:15:26:351440,2,20,28,16,15,25,15,-3
14:15:26:364955,-3,-1,-27,-4,5,-99,-31,-2
14:15:26:373117,-3,-1,-27,-4,5,-99,-31,-2
14:15:26:373878,-12,-8,-2,20,-13,6,29,11
14:15:26:379870,0,4,12,6,10,12,4,3
14:15:26:395599,0,4,12,6,10,12,4,3
14:15:26:396367,-3,8,-27,-13,-14,-11,-17,-7
14:15:26:402455,10,0,12,0,12,4,10,-6
14:15:26:410592,10,0,12,0,12,4,10,-6
14:15:26:411379,-7,-5,7,-14,0,-24,-25,-14
14:15:26:424865,-11,-2,3,20,33,39,-10,-13
14:15:26:433097,-11,-2,3,20,33,39,-10,-13
14:15:26:433888,-10,-18,-38,-13,-4,11,1,-12
14:15:26:439880,-3,7,17,14,-9,-7,8,-1
14:15:26:455576,-3,7,17,14,-9,-7,8,-1
14:15:26:456367,10,18,20,-3,-7,-5,-6,5
14:15:26:462382,-2,-8,-38,-6,-16,15,27,2
14:15:26:470681,-2,-8,-38,-6,-16,15,27,2
14:15:26:471392,-5,1,14,22,26,43,-6,1
14:15:26:484996,0,2,24,-15,-11,23,-2,-4
14:15:26:493077,0,2,24,-15,-11,23,-2,-4
14:15:26:493859,-4,-5,1,2,-13,-13,5,-10
14:15:26:499907,-7,-20,10,-2,15,-90,-66,4
14:15:26:515613,-7,-20,10,-2,15,-90,-66,4
14:15:26:516373,-21,-20,-4,10,15,-39,11,-4
14:15:26:522427,6,12,1,-10,28,19,2,-23
14:15:26:531394,6,12,1,-10,28,19,2,-23
14:15:26:532076,4,15,0,6,-4,2,-11,10
14:15:26:544902,-12,-26,-12,37,11,28,-2,8
14:15:26:553151,-12,-26,-12,37,11,28,-2,8
14:15:26:553898,-4,10,24,0,48,22,13,-7
14:15:26:559881,12,5,-28,-9,-10,-2,1,6
14:15:26:575573,12,5,-28,-9,-10,-2,1,6
14:15:26:576345,-2,-10,6,-34,8,63,8,3
14:15:26:582477,-3,-1,6,-1,10,-6,9,-2
14:15:26:590598,-3,-1,6,-1,10,-6,9,-2
14:15:26:591397,1,-13,-15,-4,-20,-25,-7,15
14:15:26:604935,-3,3,3,18,-4,40,-10,8
14:15:26:613056,-3,3,3,18,-4,40,-10,8
14:15:26:613836,-7,1,12,-4,-27,29,9,11
14:15:26:619989,-3,-3,-24,21,-27,-23,-22,-9
14:15:26:635703,-3,-3,-24,21,-27,-23,-22,-9
14:15:26:636392,7,0,-5,-3,-20,-46,-23,9
14:15:26:642344,-3,-3,3,-34,23,17,23,7
14:15:26:650634,-3,-3,3,-34,23,17,23,7
14:15:26:651378,1,-4,-8,-26,-12,1,0,-20
14:15:26:664959,-10,-5,14,-6,-8,-14,15,0
14:15:26:673157,-10,-5,14,-6,-8,-14,15,0
14:15:26:673922,3,2,-16,6,-59,-59,-3,-3
14:15:26:679926,0,-20,-29,1,11,37,15,5
14:15:26:695652,0,-20,-29,1,11,37,15,5
14:15:26:696457,1,6,-5,16,28,13,8,6
14:15:26:702493,-15,3,20,-3,16,-25,8,-10
14:15:26:710570,-15,3,20,-3,16,-25,8,-10
14:15:26:711336,7,-5,-2,-7,-8,-11,-23,23
14:15:26:724951,9,-2,5,1,-12,7,1,7
14:15:26:733179,9,-2,5,1,-12,7,1,7
14:15:26:733912,-1,2,9,17,-8,-46,-4,-14
14:15:26:739919,3,9,-8,-38,-31,-52,-20,-8
14:15:26:755668,3,9,-8,-38,-31,-52,-20,-8
14:15:26:756396,6,16,7,11,52,34,18,5
14:15:26:771318,6,6,33,-16,-45,20,11,-5
14:15:26:772105,6,6,33,-16,-45,20,11,-5
14:15:26:772849,-8,-15,6,8,5,-15,-3,-12
14:15:26:793703,-8,-2,-13,-20,-12,11,-7,5
14:15:26:794513,-8,-2,-13,-20,-12,11,-7,5
14:15:26:795322,-6,-15,-25,-2,-23,-22,-16,-11
14:15:26:799886,8,7,0,18,11,7,25,48
14:15:26:824286,8,7,0,18,11,7,25,48
14:15:26:825091,16,6,26,16,-2,55,33,15
14:15:26:825821,-5,8,3,17,7,5,-43,-35
14:15:26:830744,-5,8,3,17,7,5,-43,-35
14:15:26:831430,-1,-2,-7,24,7,25,-1,2
14:15:26:844878,6,-1,0,-2,-7,-3,-15,8
14:15:26:853231,6,-1,0,-2,-7,-3,-15,8
14:15:26:853945,-6,-5,-34,-14,-10,59,6,-24
14:15:26:859852,-2,-1,8,11,-1,48,7,-3
14:15:26:875625,-2,-1,8,11,-1,48,7,-3
14:15:26:876368,-8,-7,-9,-30,-27,9,-3,-8
14:15:26:882436,1,2,-15,-24,-2,4,13,-8
14:15:26:890659,1,2,-15,-24,-2,4,13,-8
14:15:26:891449,10,3,11,-8,-27,-68,-29,2
14:15:26:904885,30,-11,-9,1,-24,-18,-1,4
14:15:26:913136,30,-11,-9,1,-24,-18,-1,4
14:15:26:913882,-1,15,12,-4,39,-7,-17,-10
14:15:26:919978,-17,-9,23,9,-21,-12,-7,-1
14:15:26:935648,-17,-9,23,9,-21,-12,-7,-1
14:15:26:936474,-7,5,-28,-14,0,2,25,5
14:15:26:942348,-9,-3,1,-17,25,-39,-13,-14
14:15:26:950669,-9,-3,1,-17,25,-39,-13,-14
14:15:26:951411,-11,-3,5,31,39,6,-10,6
14:15:26:964932,-10,-10,-16,-2,0,4,-6,-11
14:15:26:973127,-10,-10,-16,-2,0,4,-6,-11
14:15:26:973902,2,-1,6,-2,-26,9,56,-3
14:15:26:979897,2,14,-1,25,30,-22,14,7
14:15:26:995581,2,14,-1,25,30,-22,14,7
14:15:26:996392,23,22,-4,-3,-16,-5,12,3
14:15:27:2440,-7,-17,-28,-9,66,-17,10,17
14:15:27:10588,-7,-17,-28,-9,66,-17,10,17
14:15:27:11362,2,0,36,8,1,-32,-30,30
14:15:27:24905,14,19,15,-6,15,76,0,2
14:15:27:33073,14,19,15,-6,15,76,0,2
14:15:27:33902,-8,1,26,5,58,57,9,-3
14:15:27:47502,-5,-7,-26,-25,-51,-21,0,-15
14:15:27:55578,-5,-7,-26,-25,-51,-21,0,-15
14:15:27:56343,1,-5,-10,-33,-34,4,-6,-9
14:15:27:71200,-9,1,-6,-18,-21,-55,-2,-10
14:15:27:72022,-9,1,-6,-18,-21,-55,-2,-10
14:15:27:72832,-1,-6,-11,-12,-68,-39,-25,14
14:15:27:84921,15,3,18,29,17,9,9,23
14:15:27:101315,15,3,18,29,17,9,9,23
14:15:27:102004,7,-15,11,13,44,-32,-21,-20
14:15:27:102903,-9,4,22,22,-15,10,-28,-38
14:15:27:115596,-9,4,22,22,-15,10,-28,-38
14:15:27:116373,4,6,-3,-8,-21,-6,5,-2
14:15:27:122361,-10,-12,3,-32,-12,37,-4,-26
14:15:27:130665,-10,-12,3,-32,-12,37,-4,-26
14:15:27:131402,-2,4,-2,6,-19,-1,6,-2
14:15:27:144907,-9,-14,-14,-19,3,-13,-6,3
14:15:27:153165,-9,-14,-14,-19,3,-13,-6,3
14:15:27:153885,-6,-3,-10,-5,4,-41,-29,-8
14:15:27:159824,2,28,43,11,5,12,15,3
14:15:27:175619,2,28,43,11,5,12,15,3
14:15:27:176344,-2,-7,-14,8,7,23,-18,2
14:15:27:182463,16,-7,-15,12,13,20,49,44
14:15:27:190578,16,-7,-15,12,13,20,49,44
14:15:27:191388,4,13,21,26,42,32,10,-24
14:15:27:204935,-10,-26,-19,2,-6,-15,-11,-20
14:15:27:213092,-10,-26,-19,2,-6,-15,-11,-20
14:15:27:213855,-15,-15,-7,-1,-33,22,-6,-17
14:15:27:219991,-10,-12,-44,9,27,-5,-14,-8
14:15:27:235625,-10,-12,-44,9,27,-5,-14,-8
14:15:27:236429,-11,-20,11,-6,32,11,15,-5
14:15:27:242369,-6,-10,-3,19,13,19,-9,6
14:15:27:250640,-6,-10,-3,19,13,19,-9,6
14:15:27:251416,-18,5,-4,-4,-23,-7,-34,-6
14:15:27:265024,5,12,35,13,2,20,-18,-11
14:15:27:273113,5,12,35,13,2,20,-18,-11
14:15:27:273915,-6,11,-9,22,80,-45,33,24
14:15:27:279956,-3,1,-26,-16,-24,-12,18,52
14:15:27:295652,-3,1,-26,-16,-24,-12,18,52
14:15:27:296422,-2,-12,-44,-20,-5,8,-12,2
14:15:27:302489,2,-1,2,0,36,17,13,-14
14:15:27:309866,2,-1,2,0,36,17,13,-14
14:15:27:317470,-10,-2,15,4,-34,1,7,0
14:15:27:324934,-7,14,22,14,13,-33,-14,-15
14:15:27:333124,-7,14,22,14,13,-33,-14,-15
14:15:27:333898,18,2,10,12,32,-15,14,19
14:15:27:347564,-2,-7,-5,-15,11,33,-13,-17
14:15:27:355636,-2,-7,-5,-15,11,33,-13,-17
14:15:27:356422,-14,-2,24,13,32,17,20,3
14:15:27:362460,9,1,10,-10,-23,-26,23,29
14:15:27:370025,9,1,10,-10,-23,-26,23,29
14:15:27:377363,1,-16,-45,-43,-81,-63,-2,-11
14:15:27:384933,-10,7,14,12,-45,-10,-7,-42
14:15:27:393074,-10,7,14,12,-45,-10,-7,-42
14:15:27:393888,0,1,-40,-30,4,41,-2,-7
14:15:27:407460,6,4,-11,-17,-41,37,-3,-4
14:15:27:415635,6,4,-11,-17,-41,37,-3,-4
14:15:27:416403,7,-2,47,62,5,-5,-4,-9
14:15:27:422380,-5,-23,-31,-8,28,8,-17,-2
14:15:27:429965,-5,-23,-31,-8,28,8,-17,-2
14:15:27:437447,1,-3,13,-27,-20,20,-6,29
14:15:27:444901,3,2,11,8,-18,-37,5,8
14:15:27:453201,3,2,11,8,-18,-37,5,8
14:15:27:453914,0,4,-19,-5,-34,12,-8,-17
14:15:27:467436,-9,-2,-12,-10,-16,-13,-9,5
14:15:27:475636,-9,-2,-12,-10,-16,-13,-9,5
14:15:27:476365,-23,4,13,22,58,15,-1,7
14:15:27:482469,4,21,-4,1,-5,-7,10,-2
14:15:27:490004,4,21,-4,1,-5,-7,10,-2
14:15:27:497507,3,-18,13,-59,-108,-31,-3,8
14:15:27:504914,0,-5,9,20,20,-34,-14,-6
14:15:27:513140,0,-5,9,20,20,-34,-14,-6
14:15:27:514004,2,3,-12,41,15,-18,-10,-11
14:15:27:527371,-10,-23,-17,-15,6,11,8,-7
14:15:27:535700,-10,-23,-17,-15,6,11,8,-7
14:15:27:536447,0,-4,-20,-15,-53,-65,3,-20
14:15:27:542356,36,21,54,12,24,-3,-6,30
14:15:27:549971,36,21,54,12,24,-3,-6,30
14:15:27:557405,-2,5,14,5,66,60,9,2
14:15:27:573797,-10,-5,-42,-34,-2,-2,5,-47
14:15:27:574558,-10,-5,-42,-34,-2,-2,5,-47
14:15:27:575417,17,7,-2,12,33,44,8,9
14:15:27:587355,-8,-11,-8,-43,-38,69,-6,5
14:15:27:595623,-8,-11,-8,-43,-38,69,-6,5
14:15:27:596397,0,6,6,18,-12,72,13,-14
14:15:27:602505,12,3,-7,0,-7,-32,10,23
14:15:27:609968,12,3,-7,0,-7,-32,10,23
14:15:27:617423,3,9,-3,-33,-19,-15,-45,-2
14:15:27:624902,-1,12,-47,20,-3,7,10,-7
14:15:27:633076,-1,12,-47,20,-3,7,10,-7
14:15:27:633842,-3,5,39,1,-5,-29,-4,-3
14:15:27:647477,-6,-5,15,-8,-3,-8,-12,-12
14:15:27:655622,-6,-5,15,-8,-3,-8,-12,-12
14:15:27:656425,7,-17,-53,2,49,-1,-27,31
14:15:27:662380,-12,11,24,14,8,-55,-22,-10
14:15:27:670026,-12,11,24,14,8,-55,-22,-10
14:15:27:677403,12,4,25,10,-1,-62,5,-18
14:15:27:684932,8,-9,7,-10,-33,33,21,17
14:15:27:693056,8,-9,7,-10,-33,33,21,17
14:15:27:693867,2,11,-10,-23,2,-5,-5,-5
14:15:27:707395,-21,-26,-12,26,-8,12,-10,-17
14:15:27:715605,-21,-26,-12,26,-8,12,-10,-17
14:15:27:716384,10,13,5,-6,-24,12,16,10
14:15:27:722433,3,-3,-9,-7,13,7,1,7
14:15:27:729897,3,-3,-9,-7,13,7,1,7
14:15:27:737398,-3,-7,-9,18,13,32,5,1
14:15:27:744902,9,-4,-36,-15,-3,48,-19,-8
14:15:27:753142,9,-4,-36,-15,-3,48,-19,-8
14:15:27:753919,2,-1,-16,11,49,10,21,-15
14:15:27:767500,9,6,3,18,67,-52,-36,10
14:15:27:775603,9,6,3,18,67,-52,-36,10
14:15:27:776341,-16,-14,-19,-11,-11,15,10,7
14:15:27:782482,1,-18,5,3,-34,-20,14,10
14:15:27:789988,1,-18,5,3,-34,-20,14,10
14:15:27:797505,-17,-22,-45,-23,-17,-23,-17,-17
14:15:27:804886,8,10,-3,-19,-41,-19,-13,-5
14:15:27:813145,8,10,-3,-19,-41,-19,-13,-5
14:15:27:813953,1,9,0,12,33,18,3,-14
14:15:27:827371,-15,11,41,2,-14,-7,3,-6
14:15:27:835641,-15,11,41,2,-14,-7,3,-6
14:15:27:836405,2,-1,10,-19,-12,49,37,30
14:15:27:842374,-5,12,14,20,12,39,7,8
14:15:27:849943,-5,12,14,20,12,39,7,8
14:15:27:857400,-13,0,4,-12,-23,-11,-11,3
14:15:27:864980,-21,-13,-29,-5,5,3,15,-11
14:15:27:873145,-21,-13,-29,-5,5,3,15,-11
14:15:27:873920,13,2,-7,23,-34,-18,-4,8
14:15:27:887394,1,8,17,11,-9,10,-18,-42
14:15:27:903827,1,8,17,11,-9,10,-18,-42
14:15:27:904563,-13,-20,27,0,3,-9,-19,-9
14:15:27:905345,-13,7,17,11,47,17,40,4
14:15:27:909883,-13,7,17,11,47,17,40,4
14:15:27:917426,6,19,24,-12,20,11,10,-3
14:15:27:924881,6,5,5,-17,6,-32,-16,-18
14:15:27:933154,6,5,5,-17,6,-32,-16,-18
14:15:27:933907,2,11,-15,43,-15,-22,-10,-14
14:15:27:947549,23,10,8,1,-9,9,14,25
14:15:27:955621,23,10,8,1,-9,9,14,25
14:15:27:956424,-2,-15,-15,-5,-20,15,-11,-12
14:15:27:970648,12,10,1,-3,-34,5,6,13
14:15:27:971400,12,10,1,-3,-34,5,6,13
14:15:27:977340,1,5,-3,11,44,36,6,11
14:15:27:984980,-6,-24,8,-16,-19,-87,-21,-9
14:15:27:993052,-6,-24,8,-16,-19,-87,-21,-9
14:15:27:993858,9,-1,7,-5,-23,3,41,18
14:15:28:7453,-9,3,-38,-1,-16,14,-7,30
14:15:28:15624,-9,3,-38,-1,-16,14,-7,30
14:15:28:16380,5,-17,4,8,3,-15,-21,-39
14:15:28:22380,-1,0,32,18,15,12,12,8
14:15:28:29998,-1,0,32,18,15,12,12,8
14:15:28:37418,4,3,-22,-14,-3,-21,-1,-4
14:15:28:44861,-5,-11,-21,-17,11,18,-4,-8
14:15:28:53217,-5,-11,-21,-17,11,18,-4,-8
14:15:28:53966,-4,-7,22,8,3,-11,-16,2
14:15:28:67398,-9,-5,27,-4,-3,-51,7,-2
14:15:28:75644,-9,-5,27,-4,-3,-51,7,-2
14:15:28:76392,-3,19,-6,-18,40,-30,-1,-6
14:15:28:82396,8,-2,2,19,49,-23,7,15
14:15:28:90000,8,-2,2,19,49,-23,7,15
14:15:28:97572,11,16,16,-9,1,-59,3,16
14:15:28:104921,-5,-19,-9,-17,-3,23,-1,0
14:15:28:113155,-5,-19,-9,-17,-3,23,-1,0
14:15:28:113925,-22,-11,6,0,0,11,63,15
14:15:28:127391,-7,-3,-16,1,-11,-30,13,-3
14:15:28:135674,-7,-3,-16,1,-11,-30,13,-3
14:15:28:136419,4,-8,-27,-23,-107,-15,-19,3
14:15:28:142345,-2,-11,3,19,-3,43,-7,-11
14:15:28:149989,-2,-11,3,19,-3,43,-7,-11
14:15:28:157427,3,0,-31,18,23,35,-12,-11
14:15:28:164967,1,19,-9,-31,-17,5,1,-9
14:15:28:173099,1,19,-9,-31,-17,5,1,-9
14:15:28:173882,1,2,21,23,9,25,-10,10
14:15:28:187446,-20,-2,-5,-22,-15,41,-22,-17
14:15:28:195544,-20,-2,-5,-22,-15,41,-22,-17
14:15:28:196343,-9,-6,-16,-5,76,-8,8,4
14:15:28:202493,-9,-4,-8,7,1,-55,-6,-16
14:15:28:209897,-9,-4,-8,7,1,-55,-6,-16
14:15:28:217443,-18,-1,20,-13,-3,-21,-18,-58
14:15:28:224931,16,8,11,7,-2,19,-6,18
14:15:28:233113,16,8,11,7,-2,19,-6,18
14:15:28:233831,-10,-5,11,-19,-9,14,-22,-6
14:15:28:247523,-4,3,16,4,-30,-8,-12,-16
14:15:28:255621,-4,3,16,4,-30,-8,-12,-16
14:15:28:256395,-8,-14,-8,-33,-30,-37,19,2
14:15:28:270589,8,-3,5,46,54,14,12,14
14:15:28:271383,8,-3,5,46,54,14,12,14
14:15:28:277377,1,4,9,13,-35,-24,-9,6
14:15:28:284949,2,14,-1,-7,-11,7,-3,-7
14:15:28:292383,2,14,-1,-7,-11,7,-3,-7
14:15:28:299855,-5,1,-11,2,17,-37,-5,5
14:15:28:307421,6,15,10,-4,-4,-6,-3,-20
14:15:28:315617,6,15,10,-4,-4,-6,-3,-20
14:15:28:316342,-21,-3,11,25,4,-9,-9,23
14:15:28:330663,-5,-5,-5,-3,-12,26,9,10
14:15:28:331340,-5,-5,-5,-3,-12,26,9,10
14:15:28:337417,-3,0,-29,-9,-29,46,7,-11
14:15:28:344854,-2,12,-14,-8,45,-20,-21,-9
14:15:28:352483,-2,12,-14,-8,45,-20,-21,-9
14:15:28:359817,0,-8,-10,-7,33,-5,-14,1
14:15:28:367457,3,-23,9,13,-19,-40,9,0
14:15:28:375611,3,-23,9,13,-19,-40,9,0
14:15:28:376365,6,1,5,17,-3,5,0,-4
14:15:28:390576,-1,5,43,-18,-35,-7,1,8
14:15:28:391421,-1,5,43,-18,-35,-7,1,8
14:15:28:397543,5,14,22,1,8,22,-11,2
14:15:28:404894,-1,4,-22,-4,-22,-9,-11,-3
14:15:28:412418,-1,4,-22,-4,-22,-9,-11,-3
14:15:28:419971,21,10,20,7,-3,-34,27,22
14:15:28:427384,5,-5,-45,-7,19,-11,-1,0
14:15:28:435703,5,-5,-45,-7,19,-11,-1,0
14:15:28:436395,-12,-7,-8,-21,-20,26,11,-25
14:15:28:450700,-3,-26,0,-20,-11,20,-5,16
14:15:28:451430,-3,-26,0,-20,-11,20,-5,16
14:15:28:457388,7,5,10,15,6,50,1,-1
14:15:28:465011,-3,6,-12,16,10,35,6,-8
14:15:28:472512,-3,6,-12,16,10,35,6,-8
14:15:28:479981,2,-7,-9,-28,-11,-46,-12,1
14:15:28:487468,1,-1,6,-2,-1,-19,5,3
14:15:28:495559,1,-1,6,-2,-1,-19,5,3
14:15:28:496346,-10,-24,-74,-23,0,2,-3,-4
14:15:28:510608,-8,-20,2,-17,13,12,-7,-22
14:15:28:511413,-8,-20,2,-17,13,12,-7,-22
14:15:28:517406,11,-3,10,0,1,56,-7,-26
14:15:28:524896,12,17,-8,17,-3,0,26,36
14:15:28:532463,12,17,-8,17,-3,0,26,36
14:15:28:539947,-15,-6,-4,11,5,13,-3,9
14:15:28:547525,-5,-8,-22,-7,-15,1,-2,-26
14:15:28:555603,-5,-8,-22,-7,-15,1,-2,-26
14:15:28:556381,9,-2,41,24,-3,-27,8,-6
14:15:28:570630,-5,-17,-40,8,-2,-10,9,8
14:15:28:571388,-5,-17,-40,8,-2,-10,9,8
14:15:28:577393,6,1,-1,-34,2,-18,-18,-8
14:15:28:585005,-1,5,39,5,9,-23,-17,-27
14:15:28:592408,-1,5,39,5,9,-23,-17,-27
14:15:28:599894,-10,5,-6,-16,-5,2,5,15
14:15:28:608058,-6,8,6,13,-6,8,6,2
14:15:28:608891,-6,8,6,13,-6,8,6,2
14:15:28:615041,2,4,22,1,-30,-64,-23,-4
14:15:28:630585,39,43,29,28,63,80,-2,19
14:15:28:631365,39,43,29,28,63,80,-2,19
14:15:28:637385,-17,-31,-32,-11,-26,3,-2,-10
14:15:28:644838,-3,-8,0,-13,-9,-12,7,-8
14:15:28:652531,-3,-8,0,-13,-9,-12,7,-8
14:15:28:659840,-1,1,-17,-18,-3,-2,-12,3
14:15:28:668192,-1,0,0,25,-12,-3,14,9
14:15:28:668883,-1,0,0,25,-12,-3,14,9
14:15:28:674886,4,-19,-31,16,-7,2,14,7
14:15:28:690603,-5,-19,-20,-9,-23,-4,13,29
14:15:28:691408,-5,-19,-20,-9,-23,-4,13,29
14:15:28:697522,2,3,25,34,-16,-16,2,-13
14:15:28:704874,-1,-6,-16,3,-26,4,0,-25
14:15:28:712459,-1,-6,-16,3,-26,4,0,-25
14:15:28:719974,3,18,42,4,-31,16,10,18
14:15:28:728038,-6,-9,-19,-34,-9,7,-1,-22
14:15:28:728837,-6,-9,-19,-34,-9,7,-1,-22
14:15:28:735018,1,5,7,-18,22,39,-15,-8
14:15:28:750664,-11,-11,-20,1,19,-11,-7,-21
14:15:28:751426,-11,-11,-20,1,19,-11,-7,-21
14:15:28:765559,1,-8,-13,9,33,-46,13,0
14:15:28:766338,-11,-2,2,-3,13,16,-62,-21
14:15:28:772462,-11,-2,2,-3,13,16,-62,-21
14:15:28:779860,5,9,-10,-10,-23,-2,0,0
14:15:28:788155,2,2,8,-14,-18,-4,8,20
14:15:28:788926,2,2,8,-14,-18,-4,8,20
14:15:28:794887,-14,-13,-3,0,4,-17,10,-6
14:15:28:810627,-4,-8,22,-3,-9,-12,6,15
14:15:28:811369,-4,-8,22,-3,-9,-12,6,15
14:15:28:817391,10,21,6,0,37,-14,-19,8
14:15:28:824873,0,16,39,3,30,-12,10,7
14:15:28:832488,0,16,39,3,30,-12,10,7
14:15:28:839884,-10,-5,-17,-10,-39,-5,-22,-6
14:15:28:847624,10,17,2,25,22,36,8,6
14:15:28:855647,10,17,2,25,22,36,8,6
14:15:28:856435,7,7,23,27,53,55,19,4
14:15:28:870651,-16,-30,-59,-16,-11,-30,-3,-9
14:15:28:871420,-16,-30,-59,-16,-11,-30,-3,-9
14:15:28:877372,2,-3,7,-5,-14,7,-22,56
14:15:28:884976,-7,4,13,5,15,25,18,3
14:15:28:892476,-7,4,13,5,15,25,18,3
14:15:28:899943,9,15,-11,6,20,31,1,-1
14:15:28:907442,-12,-3,-14,-18,-5,-25,2,10
14:15:28:915629,-12,-3,-14,-18,-5,-25,2,10
14:15:28:916387,-1,-1,-9,26,-35,-14,16,-1
14:15:28:930657,5,8,4,-5,-53,-3,1,-12
14:15:28:931347,5,8,4,-5,-53,-3,1,-12
14:15:28:937467,10,21,-11,11,28,-8,-5,-10
14:15:28:944880,-4,3,4,-16,-14,-32,-17,-2
14:15:28:952515,-4,3,4,-16,-14,-32,-17,-2
14:15:28:959806,-9,-16,14,9,30,18,2,-4
14:15:28:967485,4,9,-5,-6,8,-19,-14,4
14:15:28:975610,4,9,-5,-6,8,-19,-14,4
14:15:28:976336,4,-11,-15,-9,-22,-12,1,-8
14:15:28:990577,5,-12,3,4,7,-27,6,1
14:15:28:991388,5,-12,3,4,7,-27,6,1
14:15:28:997498,-13,-9,4,-14,-30,8,8,10
14:15:29:4905,14,8,-15,-5,15,-20,28,-11
14:15:29:12473,14,8,-15,-5,15,-20,28,-11
14:15:29:20004,-17,-12,-4,3,-22,-3,-19,-23
14:15:29:28067,2,2,27,15,-15,1,12,18
14:15:29:28929,2,2,27,15,-15,1,12,18
14:15:29:42354,0,-9,-2,-36,26,48,15,10
14:15:29:50611,-19,-33,-24,2,-30,10,-19,-13
14:15:29:51389,-19,-33,-24,2,-30,10,-19,-13
14:15:29:57380,-5,1,-1,7,15,-2,-1,-10
14:15:29:64979,0,-20,-8,-12,13,-17,-3,3
14:15:29:72512,0,-20,-8,-12,13,-17,-3,3
14:15:29:79885,3,4,12,-13,-12,-15,-19,-27
14:15:29:88116,2,17,-3,14,33,11,-1,-16
14:15:29:88935,2,17,-3,14,33,11,-1,-16
14:15:29:94896,1,21,37,15,16,22,31,3
14:15:29:110608,-3,15,19,-13,-30,4,-30,1
14:15:29:111380,-3,15,19,-13,-30,4,-30,1
14:15:29:117421,-10,-12,-17,-13,-5,7,-13,-17
14:15:29:124875,9,4,7,4,11,12,-15,5
14:15:29:132511,9,4,7,4,11,12,-15,5
14:15:29:139932,7,3,-4,-15,-7,-1,-6,5
14:15:29:148122,-5,4,7,8,-12,-7,-4,-3
14:15:29:148846,-5,4,7,8,-12,-7,-4,-3
14:15:29:154912,-4,-14,-16,-11,-2,-22,-4,-4
14:15:29:170710,1,-6,25,-7,12,-11,10,8
14:15:29:171433,1,-6,25,-7,12,-11,10,8
14:15:29:177452,4,5,-23,-13,-23,-33,6,8
14:15:29:193108,-1,5,-16,20,1,60,33,64
14:15:29:193912,-1,5,-16,20,1,60,33,64
14:15:29:199897,10,-2,2,26,41,14,22,40
14:15:29:208104,-15,-17,-11,-3,-1,-12,-17,-12
14:15:29:208929,-15,-17,-11,-3,-1,-12,-17,-12
14:15:29:222380,-5,2,-31,-4,1,-19,-10,0
14:15:29:230742,-5,8,-10,4,-1,5,-8,-18
14:15:29:231400,-5,8,-10,4,-1,5,-8,-18
14:15:29:237416,-2,12,42,16,-5,-18,0,-2
14:15:29:253097,-3,-6,18,4,31,18,3,-17
14:15:29:253893,-3,-6,18,4,31,18,3,-17
14:15:29:259826,-3,6,3,-9,-19,-22,2,-4
14:15:29:268131,11,-9,-10,-11,-5,-1,-23,-4
14:15:29:268921,11,-9,-10,-11,-5,-1,-23,-4
14:15:29:282440,19,16,69,25,62,4,16,-1
14:15:29:290597,7,10,-8,-31,-26,-41,-11,-16
14:15:29:291418,7,10,-8,-31,-26,-41,-11,-16
14:15:29:297459,-16,-6,-32,-28,-26,8,-11,-21
14:15:29:313107,-6,-1,-25,3,3,22,17,5
14:15:29:313857,-6,-1,-25,3,3,22,17,5
14:15:29:319952,3,-8,16,-9,5,-17,7,2
14:15:29:328074,5,-15,-4,-5,-18,-35,-7,-12
14:15:29:328869,5,-15,-4,-5,-18,-35,-7,-12
14:15:29:342360,-10,-17,-36,-5,3,19,-4,1
14:15:29:350670,-2,2,38,30,28,14,-8,2
14:15:29:351411,-2,2,38,30,28,14,-8,2
14:15:29:357369,-5,-18,-17,23,-41,0,2,-7
14:15:29:373093,7,5,-10,6,27,6,-2,17
14:15:29:373896,7,5,-10,6,27,6,-2,17
14:15:29:379896,5,14,0,-11,-12,-28,-17,15
14:15:29:388095,-8,1,5,8,3,5,21,6
14:15:29:388855,-8,1,5,8,3,5,21,6
14:15:29:402528,-11,-6,-3,-20,-10,5,-13,-3
14:15:29:410594,0,13,13,-12,-8,-12,-8,-7
14:15:29:411366,0,13,13,-12,-8,-12,-8,-7
14:15:29:417432,-9,-12,-7,-5,5,9,2,-1
14:15:29:433072,-2,-9,-3,22,7,0,16,-11
14:15:29:433901,-2,-9,-3,22,7,0,16,-11
14:15:29:439843,7,18,35,12,14,7,-13,-12
14:15:29:448145,-4,-9,1,-27,-30,0,8,11
14:15:29:448900,-4,-9,1,-27,-30,0,8,11
14:15:29:462377,13,5,-9,-10,4,-1,18,23
14:15:29:470639,5,1,15,9,8,-1,4,7
14:15:29:471383,5,1,15,9,8,-1,4,7
14:15:29:477307,-1,-1,-12,24,9,7,-8,-14
14:15:29:493011,4,1,-49,-9,-25,-11,-22,1
14:15:29:493820,4,1,-49,-9,-25,-11,-22,1
14:15:29:499888,-1,-2,17,5,-19,-2,10,23
14:15:29:508103,-10,-16,5,2,12,10,4,-8
14:15:29:508894,-10,-16,5,2,12,10,4,-8
14:15:29:522419,-4,4,-17,-3,3,-8,26,-13
14:15:29:530581,-8,-25,-24,-23,-7,0,-8,-8
14:15:29:531356,-8,-25,-24,-23,-7,0,-8,-8
14:15:29:537474,-4,18,23,-7,-5,4,-27,-35
14:15:29:553145,-13,4,-24,-24,-9,-1,-25,-34
14:15:29:553876,-13,4,-24,-24,-9,-1,-25,-34
14:15:29:559877,-5,-20,-16,-16,16,5,-24,-10
14:15:29:568099,-5,-9,14,17,13,26,5,3
14:15:29:568914,-5,-9,14,17,13,26,5,3
14:15:29:582411,8,13,27,22,52,40,8,17
14:15:29:590589,8,13,27,22,52,40,8,17
14:15:29:591359,-23,-14,-8,0,-5,-12,-7,-12
14:15:29:597498,1,7,-6,-14,-32,-30,4,-1
14:15:29:613114,1,7,-6,-14,-32,-30,4,-1
14:15:29:613886,6,14,-19,-17,-21,-4,19,23
14:15:29:619953,-5,-38,-41,-22,-16,-16,-15,2
14:15:29:635727,-5,-38,-41,-22,-16,-16,-15,2
14:15:29:636405,-2,-3,21,12,26,22,-1,-10
14:15:29:642335,6,1,-5,-14,-14,-18,2,18
14:15:29:650672,6,1,-5,-14,-14,-18,2,18
14:15:29:651424,20,24,21,-9,-13,-62,8,5
14:15:29:657423,-7,4,5,-6,5,1,6,-6
14:15:29:673134,-7,4,5,-6,5,1,6,-6
14:15:29:673948,-1,-1,9,3,-7,14,1,7
14:15:29:679892,-2,-4,-33,2,1,11,-11,-10
14:15:29:695606,-2,-4,-33,2,1,11,-11,-10
14:15:29:696401,1,-8,-27,4,-1,-18,-54,-14
14:15:29:702429,-10,-9,1,-3,-19,-4,22,-5
14:15:29:710584,-10,-9,1,-3,-19,-4,22,-5
14:15:29:711385,8,1,21,3,-10,5,10,-8
14:15:29:717462,-15,-10,13,-20,5,4,-16,7
14:15:29:733131,-15,-10,13,-20,5,4,-16,7
14:15:29:733907,6,8,22,9,74,5,24,13
14:15:29:739867,2,5,-13,8,4,-49,-23,-24
14:15:29:755613,2,5,-13,8,4,-49,-23,-24
14:15:29:756337,1,-2,-2,-29,-55,2,4,0
14:15:29:762405,-3,5,13,8,2,22,-16,-24
14:15:29:770645,-3,5,13,8,2,22,-16,-24
14:15:29:771421,-1,4,-5,-11,-14,-18,-10,-11
14:15:29:777341,2,-20,-1,-1,8,39,25,21
14:15:29:793081,2,-20,-1,-1,8,39,25,21
14:15:29:793844,9,-6,-17,-24,-3,12,-2,-1
14:15:29:799880,-6,12,8,20,11,31,-6,-15
14:15:29:815620,-6,12,8,20,11,31,-6,-15
14:15:29:816373,-8,-21,10,-1,0,28,13,-4
14:15:29:822411,-9,-17,-46,13,22,-8,-57,-11
14:15:29:830709,-9,-17,-46,13,22,-8,-57,-11
14:15:29:831411,9,14,-2,25,49,6,-1,17
14:15:29:837405,-9,-14,-1,10,-31,-22,6,16
14:15:29:853199,-9,-14,-1,10,-31,-22,6,16
14:15:29:853959,-4,0,-30,-18,-33,-9,-5,28
14:15:29:859818,1,13,16,-1,-16,-17,14,11
14:15:29:875602,1,13,16,-1,-16,-17,14,11
14:15:29:876375,-15,4,-18,-19,-9,-14,7,-4
14:15:29:882394,9,11,-24,-9,-8,13,33,-3
14:15:29:890634,9,11,-24,-9,-8,13,33,-3
14:15:29:891432,-3,-2,-30,0,24,-6,-17,-29
14:15:29:897514,8,12,28,3,-8,-1,2,2
14:15:29:913106,8,12,28,3,-8,-1,2,2
14:15:29:913905,-3,-5,37,3,-27,8,-2,-19
14:15:29:919919,0,0,30,21,13,-8,-11,-3
14:15:29:935727,0,0,30,21,13,-8,-11,-3
14:15:29:936487,-9,5,9,37,-5,-16,-5,12
14:15:29:942413,-14,-4,12,-25,-16,0,-5,-12
14:15:29:950630,-14,-4,12,-25,-16,0,-5,-12
14:15:29:951396,-9,-7,6,12,20,13,7,-16
14:15:29:957332,0,-9,-9,13,17,3,3,-3
14:15:29:973079,0,-9,-9,13,17,3,3,-3
14:15:29:973869,-2,-3,22,-11,-18,4,11,15
14:15:29:979885,0,4,-36,-23,-11,-12,8,-6
14:15:29:987425,0,4,-36,-23,-11,-12,8,-6
14:15:29:994858,5,-4,-9,0,-20,-10,-8,4
14:15:30:2437,4,-6,-3,-12,-7,-9,-21,-18
14:15:30:10559,4,-6,-3,-12,-7,-9,-21,-18
14:15:30:11374,-3,5,-15,5,23,37,-24,1
14:15:30:17408,15,-6,-12,0,65,60,13,28
14:15:30:33065,15,-6,-12,0,65,60,13,28
14:15:30:33879,2,-16,7,6,14,-14,17,-51
14:15:30:39839,-2,-6,-11,5,-28,-6,-8,-4
14:15:30:55630,-2,-6,-11,5,-28,-6,-8,-4
14:15:30:56398,6,15,5,-24,-44,-25,-14,-3
14:15:30:62347,-4,1,3,3,-13,-27,4,-6
14:15:30:70662,-4,1,3,3,-13,-27,4,-6
14:15:30:71392,0,-2,15,10,-7,-1,1,18
14:15:30:77361,5,-10,1,2,7,-8,6,33
14:15:30:93081,5,-10,1,2,7,-8,6,33
14:15:30:93833,9,-7,-4,3,15,-7,0,-7
14:15:30:99879,-8,-8,-1,-8,-6,6,12,-15
14:15:30:115637,-8,-8,-1,-8,-6,6,12,-15
14:15:30:116374,10,17,23,0,-1,-12,4,13
14:15:30:122464,5,17,29,9,21,37,23,5
14:15:30:130708,5,17,29,9,21,37,23,5
14:15:30:131407,-9,9,-16,16,-3,17,-7,14
14:15:30:144892,3,-5,0,-17,13,1,-15,13
14:15:30:153188,3,-5,0,-17,13,1,-15,13
14:15:30:153895,-12,-24,-25,-14,-15,-27,-18,23
14:15:30:159855,4,-2,21,-1,-4,-59,-15,-19
14:15:30:175600,4,-2,21,-1,-4,-59,-15,-19
14:15:30:176398,-12,5,22,-6,3,-16,20,-8
14:15:30:182447,-3,5,34,-8,-14,24,2,-24
14:15:30:190620,-3,5,34,-8,-14,24,2,-24
14:15:30:191390,0,-9,16,11,-34,-6,-2,-11
14:15:30:204896,4,4,-30,4,2,-59,-21,-11
14:15:30:213042,4,4,-30,4,2,-59,-21,-11
14:15:30:213837,10,15,-1,-13,9,-1,14,72
14:15:30:220003,-11,2,-9,4,-22,32,19,4
14:15:30:235688,-11,2,-9,4,-22,32,19,4
14:15:30:236442,2,2,-29,6,37,38,12,-25
14:15:30:242373,-14,-4,-6,-15,-7,-43,-20,7
14:15:30:250602,-14,-4,-6,-15,-7,-43,-20,7
14:15:30:251373,-12,-9,-2,-6,-19,-19,-27,-10
14:15:30:265049,3,12,42,14,-14,12,4,5
14:15:30:273129,3,12,42,14,-14,12,4,5
14:15:30:273929,3,1,-10,-19,-30,-13,-2,3
14:15:30:279935,8,1,-12,3,6,18,7,2
14:15:30:295636,8,1,-12,3,6,18,7,2
14:15:30:296404,2,10,14,16,13,10,5,-20
14:15:30:302449,17,5,4,-11,5,6,0,-1
14:15:30:310653,17,5,4,-11,5,6,0,-1
14:15:30:311413,-9,2,-17,-2,19,14,15,-24
14:15:30:324908,-17,-11,-12,1,-17,2,23,-24
14:15:30:333103,-17,-11,-12,1,-17,2,23,-24
14:15:30:333931,6,13,42,15,14,4,18,-5
14:15:30:339869,-1,-11,-30,-6,-7,-18,15,15
14:15:30:347471,-1,-11,-30,-6,-7,-18,15,15
14:15:30:354921,-6,-3,-27,11,4,-11,-16,-43
14:15:30:362402,4,18,-23,18,-21,5,-15,0
14:15:30:370632,4,18,-23,18,-21,5,-15,0
14:15:30:371353,-4,2,-7,-5,23,-1,-14,5
14:15:30:384978,4,-1,-28,-5,6,4,-18,-15
14:15:30:393039,4,-1,-28,-5,6,4,-18,-15
14:15:30:393870,-5,-12,6,-4,-4,2,7,13
14:15:30:399919,-9,-3,24,11,-2,27,-2,-2
14:15:30:407388,-9,-3,24,11,-2,27,-2,-2
14:15:30:414966,11,-1,-2,0,26,-11,4,33
14:15:30:422397,0,-15,-2,10,27,-15,10,9
14:15:30:430678,0,-15,-2,10,27,-15,10,9
14:15:30:431373,3,-7,-19,-10,-34,3,-14,0
14:15:30:444895,3,0,12,-9,-18,15,-5,18
14:15:30:453125,3,0,12,-9,-18,15,-5,18
14:15:30:453837,3,9,23,-26,-22,-27,-5,3
14:15:30:459862,-21,-31,9,-1,-14,-9,4,5
14:15:30:467449,-21,-31,9,-1,-14,-9,4,5
14:15:30:474849,8,6,-12,-3,2,36,-10,-4
14:15:30:482404,19,26,14,12,34,27,-34,-11
14:15:30:490593,19,26,14,12,34,27,-34,-11
14:15:30:491368,-5,-11,-15,1,-8,14,1,-1
14:15:30:504844,-16,-12,-57,-18,-13,-31,-20,-31
14:15:30:513063,-16,-12,-57,-18,-13,-31,-20,-31
14:15:30:513874,-5,-3,12,15,23,12,4,2
14:15:30:519884,1,16,50,38,-48,-32,4,13
14:15:30:527409,1,16,50,38,-48,-32,4,13
14:15:30:534953,-17,-19,10,22,16,4,12,-13
14:15:30:542328,-2,-10,-1,1,6,8,1,5
14:15:30:550669,-2,-10,-1,1,6,8,1,5
14:15:30:551369,3,1,-9,-23,3,9,10,-6
14:15:30:564903,15,26,20,6,50,36,20,8
14:15:30:573143,15,26,20,6,50,36,20,8
14:15:30:573872,-8,-7,-1,-10,-10,-17,-37,-30
14:15:30:579871,28,-1,8,-14,-15,-22,-5,30
14:15:30:587463,28,-1,8,-14,-15,-22,-5,30
14:15:30:594878,13,3,5,6,-6,12,11,29
14:15:30:602449,-5,-11,-77,-29,-18,-27,-3,-18
14:15:30:610544,-5,-11,-77,-29,-18,-27,-3,-18
14:15:30:611351,-10,6,12,-8,-16,-16,-11,-19
14:15:30:624860,-4,-11,9,2,9,8,11,3
14:15:30:633085,-4,-11,9,2,9,8,11,3
14:15:30:633896,-1,13,-17,-23,-21,-14,-1,7
14:15:30:639887,5,-3,7,17,53,67,8,4
14:15:30:647556,5,-3,7,17,53,67,8,4
14:15:30:654950,3,13,38,-3,-16,-2,17,45
14:15:30:662422,-14,-11,-4,-14,-12,-32,50,0
14:15:30:670641,-14,-11,-4,-14,-12,-32,50,0
14:15:30:671350,-12,-16,-20,8,-7,-4,-17,-23
14:15:30:684962,-15,-4,12,-13,-18,-12,-38,12
14:15:30:693021,-15,-4,12,-13,-18,-12,-38,12
14:15:30:693822,2,3,19,16,18,14,14,-1
14:15:30:699881,-6,9,0,-16,6,-2,-7,-21
14:15:30:707458,-6,9,0,-16,6,-2,-7,-21
14:15:30:714994,-4,-24,-34,-24,2,-6,-22,-10
14:15:30:722380,3,-1,1,-8,8,15,3,-7
14:15:30:730706,3,-1,1,-8,8,15,3,-7
14:15:30:731412,-3,21,24,4,-27,-15,-11,-34
14:15:30:744954,9,13,30,45,41,15,4,2
14:15:30:753162,9,13,30,45,41,15,4,2
14:15:30:753895,-11,-7,2,6,6,-2,-3,-14
14:15:30:759803,-12,-2,-1,10,-19,-28,-9,-27
14:15:30:767510,-12,-2,-1,10,-19,-28,-9,-27
14:15:30:774874,4,1,-5,-27,10,-9,8,13
14:15:30:782431,1,-3,-14,-9,-10,9,6,-7
14:15:30:790600,1,-3,-14,-9,-10,9,6,-7
14:15:30:791393,-3,-8,-19,20,2,0,12,10
14:15:30:804909,-3,-1,-5,12,-27,-27,17,33
14:15:30:813128,-3,-1,-5,12,-27,-27,17,33
14:15:30:813870,19,13,-18,0,-6,-9,-5,25
14:15:30:819877,-8,-9,-7,-9,15,13,27,9
14:15:30:827397,-8,-9,-7,-9,15,13,27,9
14:15:30:834951,-3,-27,4,8,-17,-13,2,-12
14:15:30:842352,-6,-3,10,-24,-10,-28,-35,-23
14:15:30:850670,-6,-3,10,-24,-10,-28,-35,-23
14:15:30:851470,3,10,18,20,59,29,-20,-10
14:15:30:864951,-3,4,-9,-3,9,-3,-15,16
14:15:30:873155,-3,4,-9,-3,9,-3,-15,16
14:15:30:873908,-8,-16,-56,8,13,-21,17,-27
14:15:30:879869,24,2,-26,-2,-10,-8,-36,4
14:15:30:887478,24,2,-26,-2,-10,-8,-36,4
14:15:30:894885,14,19,31,-6,23,27,5,4
14:15:30:902455,-1,7,-15,-26,-33,-7,-8,6
14:15:30:910569,-1,7,-15,-26,-33,-7,-8,6
14:15:30:911342,3,16,42,14,13,29,4,15
14:15:30:924927,-1,-4,-4,-18,-23,1,-2,-3
14:15:30:933148,-1,-4,-4,-18,-23,1,-2,-3
14:15:30:933934,-1,-9,1,-11,-25,-27,11,18
14:15:30:939879,-14,-37,9,5,19,3,-1,-12
14:15:30:947514,-14,-37,9,5,19,3,-1,-12
14:15:30:954912,10,-12,-36,-1,10,-1,4,17
14:15:30:962391,10,5,16,-9,-12,3,12,12
14:15:30:970641,10,5,16,-9,-12,3,12,12
14:15:30:971383,6,11,54,-1,-14,-8,-14,23
14:15:30:984986,-11,-1,3,14,10,-26,26,-10
14:15:30:993023,-11,-1,3,14,10,-26,26,-10
14:15:30:993842,-17,5,-18,-15,-17,6,5,-19
14:15:30:999914,10,9,-26,9,6,12,-1,-17
14:15:31:7383,10,9,-26,9,6,12,-1,-17
14:15:31:14974,-19,-6,-29,-14,-6,-23,-5,-5
14:15:31:22356,-1,7,12,-13,14,12,-2,-1
14:15:31:30645,-1,7,12,-13,14,12,-2,-1
14:15:31:31406,-12,-18,-17,3,5,-17,-19,-31
14:15:31:44908,-8,6,22,15,-23,-8,-6,1
14:15:31:53159,-8,6,22,15,-23,-8,-6,1
14:15:31:53854,6,3,3,-10,-26,-1,4,-3
14:15:31:59819,-15,-21,-6,6,-5,7,-10,-33
14:15:31:75622,-15,-21,-6,6,-5,7,-10,-33
14:15:31:76344,3,-2,12,-21,11,-9,0,-10
14:15:31:82383,2,6,-20,-12,-20,2,-47,-6
14:15:31:89940,2,6,-20,-12,-20,2,-47,-6
14:15:31:97356,-5,10,8,9,8,24,-5,15
14:15:31:104869,6,5,16,12,53,52,29,17
14:15:31:113125,6,5,16,12,53,52,29,17
14:15:31:113855,5,-19,-21,18,27,32,-1,16
14:15:31:128046,-7,-19,-15,-18,-19,-10,5,-7
14:15:31:128907,-7,-19,-15,-18,-19,-10,5,-7
14:15:31:134978,-5,-6,-5,-21,-35,-18,-3,-11
14:15:31:142358,5,3,10,-9,-10,-11,4,4
14:15:31:149983,5,3,10,-9,-10,-11,4,4
14:15:31:157412,8,6,40,1,8,-22,-9,-1
14:15:31:164993,-2,8,-21,-28,-35,-18,3,5
14:15:31:173134,-2,8,-21,-28,-35,-18,3,5
14:15:31:173941,8,22,-10,17,-34,13,10,-13
14:15:31:188087,-3,-20,22,14,3,-11,6,29
14:15:31:188931,-3,-20,22,14,3,-11,6,29
14:15:31:194900,-36,-41,-39,6,-7,-39,-16,-10
14:15:31:202438,20,25,12,12,11,1,-4,-4
14:15:31:209942,20,25,12,12,11,1,-4,-4
14:15:31:217381,3,5,-3,11,6,8,2,8
14:15:31:224898,-11,-1,1,-16,3,9,10,-14
14:15:31:233049,-11,-1,1,-16,3,9,10,-14
14:15:31:233841,3,-2,-17,-2,11,19,10,6
14:15:31:248166,-10,8,-11,26,13,2,-6,-19
14:15:31:248885,-10,8,-11,26,13,2,-6,-19
14:15:31:254915,-2,-12,6,12,6,6,0,-8
14:15:31:262398,5,-2,-12,-25,9,-2,-9,0
14:15:31:269983,5,-2,-12,-25,9,-2,-9,0
14:15:31:277391,18,14,16,-2,-9,-32,-12,-3
14:15:31:284986,-1,6,38,36,7,-17,5,21
14:15:31:293064,-1,6,38,36,7,-17,5,21
14:15:31:293863,19,4,3,-7,17,29,21,6
14:15:31:308112,6,-6,-27,-23,-3,-11,-3,-1
14:15:31:308873,6,-6,-27,-23,-3,-11,-3,-1
14:15:31:315008,0,5,-37,-22,-35,-52,-51,-30
14:15:31:322453,-23,-16,-2,-3,-2,3,7,-14
14:15:31:329917,-23,-16,-2,-3,-2,3,7,-14
14:15:31:337422,-15,-21,-14,-16,17,28,4,-25
14:15:31:344873,-6,3,7,4,34,10,-2,-13
14:15:31:353160,-6,3,7,4,34,10,-2,-13
14:15:31:353902,8,-13,-12,-7,19,-8,8,10
14:15:31:376200,-1,-8,-11,-16,-37,6,1,-2
14:15:31:377021,-1,-8,-11,-16,-37,6,1,-2
14:15:31:377787,-16,-3,8,-9,-15,2,3,-25
14:15:31:382431,1,-9,-29,8,1,-1,-4,5
14:15:31:389903,1,-9,-29,8,1,-1,-4,5
14:15:31:397535,-5,-1,8,-16,-4,-25,-1,15
14:15:31:404936,19,-1,10,23,42,34,22,4
14:15:31:413116,19,-1,10,23,42,34,22,4
14:15:31:413854,4,11,1,5,-13,8,-5,36
14:15:31:428075,5,17,26,-8,-20,-32,-9,30
14:15:31:428865,5,17,26,-8,-20,-32,-9,30
14:15:31:435027,-1,4,24,16,-1,20,13,23
14:15:31:442375,0,-2,-2,-1,-6,0,10,37
14:15:31:449906,0,-2,-2,-1,-6,0,10,37
14:15:31:457370,-11,-10,5,-18,7,14,-6,0
14:15:31:464905,5,4,12,14,-17,-28,-16,-36
14:15:31:473080,5,4,12,14,-17,-28,-16,-36
14:15:31:473910,8,22,66,-21,-35,2,29,-1
14:15:31:488115,-7,-4,-51,-8,8,2,-18,-16
14:15:31:488889,-7,-4,-51,-8,8,2,-18,-16
14:15:31:494876,-8,-7,-39,-3,-61,-28,-4,-7
14:15:31:502457,4,14,25,42,-15,13,16,1
14:15:31:509898,4,14,25,42,-15,13,16,1
14:15:31:517427,-2,0,-17,-9,11,18,-2,2
14:15:31:524881,-15,-20,-36,-18,-14,-5,-13,18
14:15:31:533142,-15,-20,-36,-18,-14,-5,-13,18
14:15:31:533925,7,8,16,19,33,35,-35,-23
14:15:31:548158,7,6,6,0,29,15,-23,23
14:15:31:548917,7,6,6,0,29,15,-23,23
14:15:31:554924,-27,1,6,-5,-9,-7,-28,-20
14:15:31:562358,-4,-20,21,-19,-16,-36,-13,-29
14:15:31:570064,-4,-20,21,-19,-16,-36,-13,-29
14:15:31:577360,1,-5,-12,37,10,-16,12,27
14:15:31:585000,-7,-1,-20,12,1,13,23,7
14:15:31:593096,-7,-1,-20,12,1,13,23,7
14:15:31:593881,16,-19,-5,17,-8,-7,-2,-21
14:15:31:608113,-2,8,30,-14,-4,-3,-11,-26
14:15:31:608941,-2,8,30,-14,-4,-3,-11,-26
14:15:31:614993,3,-2,-16,20,32,11,10,20
14:15:31:622435,-7,-8,15,-4,2,12,-5,-9
14:15:31:630011,-7,-8,15,-4,2,12,-5,-9
14:15:31:637444,-21,3,6,-6,-18,-34,15,12
14:15:31:644884,7,19,1,-20,-22,-2,19,-13
14:15:31:653199,7,19,1,-20,-22,-2,19,-13
14:15:31:653916,-5,3,-29,-10,15,18,-5,-25
14:15:31:668146,-13,-18,-16,-17,-34,-29,-15,-13
14:15:31:668812,-13,-18,-16,-17,-34,-29,-15,-13
14:15:31:674875,8,5,25,-11,26,21,10,17
14:15:31:682456,6,3,15,-22,-25,-23,-6,20
14:15:31:689961,6,3,15,-22,-25,-23,-6,20
14:15:31:697507,4,5,-17,14,21,-13,28,24
14:15:31:704941,-4,4,-4,24,18,6,10,-4
14:15:31:713123,-4,4,-4,24,18,6,10,-4
14:15:31:713904,-1,-9,-38,12,0,-3,-5,-9
14:15:31:728066,-22,-25,-25,3,0,-6,-11,-23
14:15:31:728843,-22,-25,-25,3,0,-6,-11,-23
14:15:31:734920,31,19,24,26,-5,3,-1,-3
14:15:31:742324,2,7,-11,-15,8,8,-5,-4
14:15:31:749916,2,7,-11,-15,8,8,-5,-4
14:15:31:757345,-9,-11,-5,-6,-5,0,-2,-8
14:15:31:765008,6,9,-21,2,20,30,21,18
14:15:31:773136,6,9,-21,2,20,30,21,18
14:15:31:773935,-8,-4,-7,-1,22,15,15,9
14:15:31:788110,9,3,-1,0,-30,14,-8,-9
14:15:31:788853,9,3,-1,0,-30,14,-8,-9
14:15:31:794833,0,-8,-14,-11,9,22,12,10
14:15:31:802470,6,-3,-6,-23,-8,-8,-41,-23
14:15:31:809910,6,-3,-6,-23,-8,-8,-41,-23
14:15:31:817393,5,-3,29,-32,-39,-45,-32,-9
14:15:31:824880,-6,-9,11,7,24,13,-22,-2
14:15:31:833107,-6,-9,11,7,24,13,-22,-2
14:15:31:833940,-4,0,-12,-11,1,-22,-10,-2
14:15:31:848146,-9,-11,-10,-2,-16,-2,-16,-12
14:15:31:848887,-9,-11,-10,-2,-16,-2,-16,-12
14:15:31:854875,3,3,10,27,17,19,11,-7
14:15:31:862361,6,22,6,-8,3,-22,-13,-8
14:15:31:870017,6,22,6,-8,3,-22,-13,-8
14:15:31:877372,7,-6,2,12,35,-18,3,0
14:15:31:884961,-10,-23,4,1,-12,-19,28,1
14:15:31:893032,-10,-23,4,1,-12,-19,28,1
14:15:31:893809,7,3,-4,-21,-32,-8,-40,-35
14:15:31:908100,27,-2,11,5,1,-8,-24,39
14:15:31:908897,27,-2,11,5,1,-8,-24,39
14:15:31:915028,1,-4,-12,11,-10,1,-20,14
14:15:31:922413,-11,-5,-10,6,7,2,19,-8
14:15:31:929896,-11,-5,-10,6,7,2,19,-8
14:15:31:937468,-10,-5,-7,-4,-4,23,19,6
14:15:31:944877,-3,14,10,2,-4,-4,22,5
14:15:31:953189,-3,14,10,2,-4,-4,22,5
14:15:31:953898,-4,9,21,13,-18,-2,-6,-4
14:15:31:968095,-13,-27,-4,10,10,9,8,6
14:15:31:968845,-13,-27,-4,10,10,9,8,6
14:15:31:974881,6,30,32,-1,-28,-13,22,14
14:15:31:982442,-3,-3,-19,1,1,8,22,-7
14:15:31:989930,-3,-3,-19,1,1,8,22,-7
14:15:31:997395,-12,-26,-9,-2,6,-5,17,20
14:15:32:4818,-10,-12,-11,-10,-7,17,5,4
14:15:32:13116,-10,-12,-11,-10,-7,17,5,4
14:15:32:13889,-3,1,-6,-9,5,10,-2,-16
14:15:32:28059,6,-15,16,10,11,2,-13,-17
14:15:32:28849,6,-15,16,10,11,2,-13,-17
14:15:32:34977,-11,-15,-20,-22,3,-5,18,-9
14:15:32:50631,-5,1,-35,-14,-4,-4,-38,-3
14:15:32:51407,-5,1,-35,-14,-4,-4,-38,-3
14:15:32:57421,-7,0,0,12,-18,-24,-13,-5
14:15:32:65005,10,27,6,4,4,6,6,38
14:15:32:72463,10,27,6,4,4,6,6,38
14:15:32:79913,6,0,25,-7,-3,-1,-13,19
14:15:32:88129,-10,7,37,29,46,23,12,0
14:15:32:88882,-10,7,37,29,46,23,12,0
14:15:32:94891,2,-23,2,-21,31,21,12,-12
14:15:32:110577,9,1,-13,-12,-16,-13,6,-4
14:15:32:111399,9,1,-13,-12,-16,-13,6,-4
14:15:32:117388,0,2,-4,-21,-23,4,0,10
14:15:32:124869,0,8,10,-5,-15,-27,-1,-18
14:15:32:132486,0,8,10,-5,-15,-27,-1,-18
14:15:32:139895,7,5,1,14,5,7,-6,-21
14:15:32:148181,-1,-25,8,2,-21,12,-1,10
14:15:32:148917,-1,-25,8,2,-21,12,-1,10
14:15:32:154889,15,10,6,12,42,41,30,17
14:15:32:170650,2,6,-36,-22,-32,-25,10,26
14:15:32:171432,2,6,-36,-22,-32,-25,10,26
14:15:32:177342,2,7,24,30,-10,-4,-12,-3
14:15:32:184970,-3,-9,-7,2,2,-11,-2,-16
14:15:32:192421,-3,-9,-7,2,2,-11,-2,-16
14:15:32:199964,-11,3,-41,-24,-4,-9,4,-9
14:15:32:208171,-5,8,-4,-9,0,-5,4,15
14:15:32:208928,-5,8,-4,-9,0,-5,4,15
14:15:32:214978,-11,4,-2,-14,-15,-7,-46,-35
14:15:32:230671,1,7,-4,-7,11,-43,2,3
14:15:32:231384,1,7,-4,-7,11,-43,2,3
14:15:32:237447,9,3,18,-12,-38,-17,12,32
14:15:32:244861,4,1,7,10,21,18,24,17
14:15:32:252511,4,1,7,10,21,18,24,17
14:15:32:259887,4,-4,-20,8,-1,-46,-22,-36
14:15:32:268134,-3,0,-12,11,40,6,-8,-20
14:15:32:268913,-3,0,-12,11,40,6,-8,-20
14:15:32:274908,6,-14,-17,-2,-2,13,-9,-13
14:15:32:290564,-29,13,15,-7,-28,-16,-51,-4
14:15:32:291367,-29,13,15,-7,-28,-16,-51,-4
14:15:32:297572,-11,-4,12,15,-6,14,21,1
14:15:32:304945,-2,-10,8,-11,-8,16,-9,-48
14:15:32:312421,-2,-10,8,-11,-8,16,-9,-48
14:15:32:319979,-7,-1,25,2,25,11,19,-1
14:15:32:328090,10,-11,-15,40,-3,6,25,24
14:15:32:328851,10,-11,-15,40,-3,6,25,24
14:15:32:334960,-9,2,1,-20,-17,1,16,-9
14:15:32:350593,-17,-8,22,15,2,3,-10,-7
14:15:32:351378,-17,-8,22,15,2,3,-10,-7
14:15:32:357377,5,-19,-21,-19,-10,12,6,22
14:15:32:364971,6,17,27,-1,-11,16,-2,43
14:15:32:372462,6,17,27,-1,-11,16,-2,43
14:15:32:379918,2,7,19,-12,-10,21,-15,1
14:15:32:396238,23,8,-4,7,18,2,4,6
14:15:32:397013,23,8,-4,7,18,2,4,6
14:15:32:397840,-12,-19,-50,29,7,-14,-5,6
14:15:32:410526,-3,-3,-52,20,-10,-25,-1,-26
14:15:32:411321,-3,-3,-52,20,-10,-25,-1,-26
14:15:32:417440,-7,-6,25,14,9,-15,-24,-11
14:15:32:424893,-17,-16,18,-9,-17,-2,17,-19
14:15:32:432434,-17,-16,18,-9,-17,-2,17,-19
14:15:32:439867,15,6,-19,-22,-63,-56,-16,7
14:15:32:448165,22,8,5,16,70,61,56,71
14:15:32:448914,22,8,5,16,70,61,56,71
14:15:32:454902,-31,10,35,0,12,-18,0,-19
14:15:32:470593,2,-2,-3,-53,-44,-35,-31,-40
14:15:32:471415,2,-2,-3,-53,-44,-35,-31,-40
14:15:32:477374,-5,6,-24,-53,-6,19,1,8
14:15:32:484936,-3,-17,-5,1,11,14,-7,-17
14:15:32:492404,-3,-17,-5,1,11,14,-7,-17
14:15:32:499876,-4,-1,-11,9,-6,-14,-7,-2
14:15:32:508084,-7,-12,-1,-20,-9,1,2,-12
14:15:32:508905,-7,-12,-1,-20,-9,1,2,-12
14:15:32:514960,-7,-1,0,20,26,24,-5,-34
14:15:32:530609,1,12,-1,13,-16,-24,-53,-17
14:15:32:531352,1,12,-1,13,-16,-24,-53,-17
14:15:32:537465,-3,-5,-26,10,19,60,7,5
14:15:32:544871,25,29,-1,23,41,39,10,9
14:15:32:552544,25,29,-1,23,41,39,10,9
14:15:32:559849,-13,-14,-17,-24,-22,-14,-10,0
14:15:32:568181,-18,-8,-37,-23,-40,-27,-1,-13
14:15:32:568929,-18,-8,-37,-23,-40,-27,-1,-13
14:15:32:574925,23,3,45,0,-16,-10,5,17
14:15:32:590579,-1,6,18,-4,11,1,11,-5
14:15:32:591409,-1,6,18,-4,11,1,11,-5
14:15:32:597392,0,1,-6,16,9,-14,3,39
14:15:32:604870,-6,-7,10,-23,-34,-26,-7,-20
14:15:32:612460,-6,-7,10,-23,-34,-26,-7,-20
14:15:32:619990,3,0,4,15,23,2,-21,-19
14:15:32:628041,3,0,17,36,96,51,-23,4
14:15:32:628837,3,0,17,36,96,51,-23,4
14:15:32:635036,-6,-11,-18,-3,43,-15,22,6
14:15:32:650635,-20,-11,5,-21,-13,-6,-14,5
14:15:32:651385,-20,-11,5,-21,-13,-6,-14,5
14:15:32:657363,12,20,40,11,-5,0,-10,6
14:15:32:664965,5,2,-5,14,10,-4,6,-5
14:15:32:672380,5,2,-5,14,10,-4,6,-5
14:15:32:679885,-4,2,-22,-15,-30,-13,12,2
14:15:32:688038,-20,3,-23,10,10,-10,-14,-47
14:15:32:688849,-20,3,-23,10,10,-10,-14,-47
14:15:32:694824,9,11,9,18,40,1,9,3
14:15:32:710532,-4,6,-15,-47,-46,-26,-9,0
14:15:32:711316,-4,6,-15,-47,-46,-26,-9,0
14:15:32:717469,-2,-9,-17,2,14,24,-3,-18
14:15:32:724981,7,3,37,25,9,15,11,28
14:15:32:732506,7,3,37,25,9,15,11,28
14:15:32:739885,1,-12,8,-19,-4,13,-2,2
14:15:32:748202,2,-13,-22,-20,-36,-21,2,-3
14:15:32:748880,2,-13,-22,-20,-36,-21,2,-3
14:15:32:754917,-2,14,28,11,-18,-9,-3,-8
14:15:32:770577,0,-18,-10,13,-24,4,2,15
14:15:32:771370,0,-18,-10,13,-24,4,2,15
14:15:32:777335,-11,-4,-6,-1,13,-23,-30,-6
14:15:32:784922,-17,4,0,-8,-25,3,56,3
14:15:32:792403,-17,4,0,-8,-25,3,56,3
14:15:32:799850,-12,-8,-29,3,-27,-5,10,-21
14:15:32:808151,15,16,-29,-11,-5,-42,-16,9
14:15:32:808949,15,16,-29,-11,-5,-42,-16,9
14:15:32:815010,11,-7,-36,-1,11,25,5,5
14:15:32:830697,10,-9,-13,-17,-9,16,10,-1
14:15:32:831410,10,-9,-13,-17,-9,16,10,-1
14:15:32:837424,9,-2,-5,-5,-9,-21,-5,3
14:15:32:844850,-2,12,50,1,-13,-30,-4,3
14:15:32:852584,-2,12,50,1,-13,-30,-4,3
14:15:32:859846,-1,15,16,37,19,16,6,-8
14:15:32:868197,-7,18,52,10,14,12,2,-4
14:15:32:868909,-7,18,52,10,14,12,2,-4
14:15:32:874942,-2,1,-3,-18,-7,-13,5,32
14:15:32:890622,8,-4,-1,-12,-6,24,5,21
14:15:32:891422,8,-4,-1,-12,-6,24,5,21
14:15:32:897519,-10,-6,8,-5,28,-28,15,19
14:15:32:913131,-10,-6,8,-5,28,-28,15,19
14:15:32:913858,-9,-17,8,11,11,-15,15,2
14:15:32:919967,-6,3,8,12,-24,1,-18,-29
14:15:32:928118,-6,3,8,12,-24,1,-18,-29
14:15:32:928884,-2,-27,-29,19,21,20,-8,-20
14:15:32:934970,-3,17,11,-4,-21,-11,-4,-8
14:15:32:950656,-3,17,11,-4,-21,-11,-4,-8
14:15:32:951370,7,3,18,-14,11,4,-4,6
14:15:32:957345,-6,-22,-15,-24,14,24,11,6
14:15:32:973119,-6,-22,-15,-24,14,24,11,6
14:15:32:973898,-2,2,-14,24,-2,-18,-10,-9
14:15:32:979926,18,-2,-30,-37,-14,-13,-14,3
14:15:32:988159,18,-2,-30,-37,-14,-13,-14,3
14:15:32:988891,24,4,-6,-8,7,14,25,88
14:15:33:2458,2,-3,2,12,-12,-12,-15,13
14:15:33:10622,2,-3,2,12,-12,-12,-15,13
14:15:33:11401,-7,6,-4,3,-36,-18,-18,-26
14:15:33:17484,6,-24,-12,19,7,-8,-24,-11
14:15:33:33089,6,-24,-12,19,7,-8,-24,-11
14:15:33:33885,-7,-5,-3,14,17,27,-12,-19
14:15:33:39865,-14,3,-3,-30,-17,-7,-12,-21
14:15:33:48195,-14,3,-3,-30,-17,-7,-12,-21
14:15:33:48865,4,-2,-20,-17,-33,-19,-9,5
14:15:33:62397,3,9,40,1,13,13,7,8
14:15:33:70624,3,9,40,1,13,13,7,8
14:15:33:71389,-1,28,41,13,13,12,-5,-10
14:15:33:77374,4,-8,-25,4,11,6,20,0
14:15:33:93059,4,-8,-25,4,11,6,20,0
14:15:33:93844,-3,-7,-20,-25,-11,-18,-22,-46
14:15:33:99866,-22,9,28,18,5,21,66,8
14:15:33:108092,-22,9,28,18,5,21,66,8
14:15:33:108888,-10,0,-25,-32,-17,16,18,7
14:15:33:122433,1,0,-39,-10,-31,-59,-29,-8
14:15:33:130761,1,0,-39,-10,-31,-59,-29,-8
14:15:33:131384,8,-21,24,9,8,11,20,8
14:15:33:137433,2,-2,25,11,-10,-9,-13,-4
14:15:33:153150,2,-2,25,11,-10,-9,-13,-4
14:15:33:153862,-5,-19,-8,-8,1,9,-8,-15
14:15:33:159850,1,14,27,14,-37,0,-2,-1
14:15:33:168196,1,14,27,14,-37,0,-2,-1
14:15:33:168921,-14,0,-16,0,31,19,1,7
14:15:33:182435,0,10,-3,-31,-5,-26,-17,-10
14:15:33:190601,0,10,-3,-31,-5,-26,-17,-10
14:15:33:191376,-7,-4,-9,11,-4,-71,-62,-18
14:15:33:204902,-7,-1,-19,3,-15,-37,9,3
14:15:33:213039,-7,-1,-19,3,-15,-37,9,3
14:15:33:213859,-27,-25,-25,-13,4,-6,-7,-35
14:15:33:219999,9,-6,-31,29,2,52,-8,-15
14:15:33:228060,9,-6,-31,29,2,52,-8,-15
14:15:33:228861,15,29,17,10,-1,11,23,1
14:15:33:242382,-1,-11,12,-23,-19,8,9,13
14:15:33:250631,-1,-11,12,-23,-19,8,9,13
14:15:33:251360,13,0,-6,-14,-31,-2,-5,6
14:15:33:257391,-2,0,17,-1,13,-15,8,4
14:15:33:273157,-2,0,17,-1,13,-15,8,4
14:15:33:273938,-1,12,19,2,39,21,17,36
14:15:33:279895,7,-8,-9,-13,11,18,2,2
14:15:33:288094,7,-8,-9,-13,11,18,2,2
14:15:33:288867,0,-13,5,33,17,10,2,-4
14:15:33:302436,-14,-1,-9,8,22,63,16,0
14:15:33:310631,-14,-1,-9,8,22,63,16,0
14:15:33:311411,-10,5,32,0,-7,-31,6,-16
14:15:33:317420,6,-22,-13,0,10,1,2,11
14:15:33:333116,6,-22,-13,0,10,1,2,11
14:15:33:333869,20,-7,0,-22,-11,32,25,24
14:15:33:339880,-5,-7,-4,29,14,29,-4,2
14:15:33:348157,-5,-7,-4,29,14,29,-4,2
14:15:33:348892,-16,-5,-11,-9,-45,-30,-21,-38
14:15:33:362390,10,30,25,-4,2,23,0,1
14:15:33:370660,10,30,25,-4,2,23,0,1
14:15:33:371437,-18,-9,-26,6,54,-38,6,14
14:15:33:377359,-10,3,4,-12,-20,-50,-10,-20
14:15:33:393079,-10,3,4,-12,-20,-50,-10,-20
14:15:33:393865,1,-1,-5,3,2,31,-2,14
14:15:33:399905,8,-1,0,24,6,30,11,31
14:15:33:408121,8,-1,0,24,6,30,11,31
14:15:33:408924,-13,3,-8,-3,-44,8,-7,-19
14:15:33:422385,-3,-5,18,0,2,-5,-7,-11
14:15:33:430615,-3,-5,18,0,2,-5,-7,-11
14:15:33:431353,-8,19,82,20,12,8,8,-1
14:15:33:437416,-16,-14,-26,-11,-37,-55,-18,-19
14:15:33:453118,-16,-14,-26,-11,-37,-55,-18,-19
14:15:33:453870,9,-23,-12,15,12,16,-9,18
14:15:33:459831,25,-18,-21,28,105,73,28,43
14:15:33:468201,25,-18,-21,28,105,73,28,43
14:15:33:468892,2,4,-5,-27,-17,-23,-13,-4
14:15:33:482433,-11,-7,-16,-22,-8,30,0,-10
14:15:33:490593,-11,-7,-16,-22,-8,30,0,-10
14:15:33:491398,2,3,-13,-36,-4,0,-6,-9
14:15:33:497507,6,5,4,-26,5,24,-3,-7
14:15:33:513072,6,5,4,-26,5,24,-3,-7
14:15:33:513894,0,11,6,24,0,11,26,16
14:15:33:519949,-7,-3,2,24,-3,-21,-6,-8
14:15:33:528122,-7,-3,2,24,-3,-21,-6,-8
14:15:33:528871,-6,-7,-27,-30,-6,-29,-20,-30
14:15:33:542408,10,14,-3,-6,-35,-38,-4,35
14:15:33:550686,10,14,-3,-6,-35,-38,-4,35
14:15:33:551429,12,5,-26,-2,-32,-6,12,15
14:15:33:557386,-5,-4,-2,-5,-4,-7,-8,-26
14:15:33:573134,-5,-4,-2,-5,-4,-7,-8,-26
14:15:33:573887,-8,-13,18,-21,-1,-6,-10,-24
14:15:33:579855,6,8,-17,-8,13,-7,5,1
14:15:33:588090,6,8,-17,-8,13,-7,5,1
14:15:33:588854,-10,3,22,25,37,4,10,6
14:15:33:602475,-10,7,20,9,3,-16,8,1
14:15:33:610571,-10,7,20,9,3,-16,8,1
14:15:33:611339,10,-14,-24,-29,-68,-99,-24,1
14:15:33:617471,-8,-2,-8,18,47,52,1,16
14:15:33:633124,-8,-2,-8,18,47,52,1,16
14:15:33:633843,-14,-3,-28,32,38,24,-7,-18
14:15:33:639878,-2,-3,-26,-16,-13,-8,-16,-14
14:15:33:648297,-2,-3,-26,-16,-13,-8,-16,-14
14:15:33:648896,25,24,31,14,14,16,0,9
14:15:33:662441,-5,5,36,5,5,12,-5,-18
14:15:33:670632,-5,5,36,5,5,12,-5,-18
14:15:33:671380,4,1,-6,0,-1,14,-6,-3
14:15:33:677400,-14,-23,-34,-21,14,-93,-16,-23
14:15:33:693035,-14,-23,-34,-21,14,-93,-16,-23
14:15:33:693852,20,18,10,11,65,13,33,15
14:15:33:699924,22,-1,29,-7,6,15,10,16
14:15:33:708098,22,-1,29,-7,6,15,10,16
14:15:33:708843,-7,-17,-33,-10,-20,-6,-22,44
14:15:33:722401,6,11,-5,-19,-37,23,60,10
14:15:33:730740,6,11,-5,-19,-37,23,60,10
14:15:33:731370,6,-17,1,-5,-24,23,-2,-21
14:15:33:737485,-3,-4,-1,-1,-37,-33,-35,5
14:15:33:753243,-3,-4,-1,-1,-37,-33,-35,5
14:15:33:753945,-9,9,11,8,-19,13,19,-7
14:15:33:759843,1,-8,-2,-16,-22,-4,-13,-9
14:15:33:768188,1,-8,-2,-16,-22,-4,-13,-9
14:15:33:768867,3,6,7,-19,3,-9,4,32
14:15:33:782395,-10,-2,-26,-7,-6,-10,6,-15
14:15:33:790597,-10,-2,-26,-7,-6,-10,6,-15
14:15:33:791418,0,14,-13,-10,18,58,-18,-10
14:15:33:797511,-16,-7,20,18,72,-18,29,15
14:15:33:813078,-16,-7,20,18,72,-18,29,15
14:15:33:813846,-1,-34,-2,11,-5,13,8,-25
14:15:33:819971,6,-15,-18,-46,0,5,-21,-21
14:15:33:828052,6,-15,-18,-46,0,5,-21,-21
14:15:33:828832,1,21,17,-16,24,-10,-26,-6
14:15:33:842410,-16,-22,-4,31,-16,-12,-5,-6
14:15:33:850695,-16,-22,-4,31,-16,-12,-5,-6
14:15:33:851402,-14,-13,-19,-3,-11,29,14,-1
14:15:33:857413,11,16,11,3,6,28,-11,1
14:15:33:873134,11,16,11,3,6,28,-11,1
14:15:33:873890,-1,2,-39,3,-30,-14,-3,0
14:15:33:879878,-12,26,43,13,-16,9,7,17
14:15:33:888146,-12,26,43,13,-16,9,7,17
14:15:33:888920,9,7,-22,10,33,-94,-4,-1
14:15:33:902492,-1,4,-14,11,17,36,-6,-14
14:15:33:910597,-1,4,-14,11,17,36,-6,-14
14:15:33:911357,-3,-10,-3,-23,-32,5,-5,7
14:15:33:924934,0,-20,-32,-6,-18,-52,-29,-6
14:15:33:933125,0,-20,-32,-6,-18,-52,-29,-6
14:15:33:933913,-6,3,-13,40,7,2,-13,-5
14:15:33:939908,-10,-26,2,12,-22,14,-8,-1
14:15:33:947610,-10,-26,2,12,-22,14,-8,-1
14:15:33:954935,-6,-16,22,8,-9,-21,2,-24
14:15:33:962404,6,14,8,8,5,0,9,-1
14:15:33:970655,6,14,8,8,5,0,9,-1
14:15:33:971468,0,-2,-8,-29,-20,-26,-8,-2
14:15:33:984940,-2,6,10,2,10,1,6,15
14:15:33:993087,-2,6,10,2,10,1,6,15
14:15:33:993871,25,3,20,-10,-45,-3,-1,12
14:15:33:999946,24,6,-7,6,-19,-3,20,-28
14:15:34:7521,24,6,-7,6,-19,-3,20,-28
14:15:34:15021,-15,18,16,25,21,38,17,-6
14:15:34:22449,-14,2,25,-16,-16,-11,18,-20
14:15:34:30627,-14,2,25,-16,-16,-11,18,-20
14:15:34:31371,0,2,-13,4,42,40,14,-18
14:15:34:44879,-3,6,2,-8,-25,-26,-26,-37
14:15:34:53163,-3,6,2,-8,-25,-26,-26,-37
14:15:34:53879,-4,-21,-4,-12,-16,-7,-10,1
14:15:34:59840,-1,-15,-23,-24,9,-34,-7,7
14:15:34:67507,-1,-15,-23,-24,9,-34,-7,7
14:15:34:74895,-13,12,5,7,20,15,8,-4
14:15:34:82404,9,8,-11,-23,4,17,1,18
14:15:34:90616,9,8,-11,-23,4,17,1,18
14:15:34:91360,4,-5,-14,-6,-1,5,1,-36
14:15:34:104908,-12,-12,-18,-16,-10,-8,-16,-2
14:15:34:113111,-12,-12,-18,-16,-10,-8,-16,-2
14:15:34:113910,6,-6,58,1,15,-33,-19,7
14:15:34:120030,-3,9,2,25,22,4,24,23
14:15:34:127401,-3,9,2,25,22,4,24,23
14:15:34:135021,0,11,2,1,-13,8,4,0
14:15:34:142392,-4,4,5,-20,-16,-51,-17,-5
14:15:34:150638,-4,4,5,-20,-16,-51,-17,-5
14:15:34:151420,-2,-15,-40,-14,7,-2,-11,6
14:15:34:165001,-15,-9,-19,-6,22,48,3,-3
14:15:34:173115,-15,-9,-19,-6,22,48,3,-3
14:15:34:173884,5,9,6,-11,-1,-3,1,-26
14:15:34:179878,4,0,30,-7,5,6,12,19
14:15:34:187522,4,0,30,-7,5,6,12,19
14:15:34:194891,-10,-5,7,30,9,16,11,-1
14:15:34:202435,22,3,-15,-3,-36,13,-25,-13
14:15:34:210582,22,3,-15,-3,-36,13,-25,-13
14:15:34:211346,-7,-11,12,-7,22,-3,5,-9
14:15:34:225395,12,32,35,22,-36,-49,14,12
14:15:34:233128,12,32,35,22,-36,-49,14,12
14:15:34:233862,6,12,12,20,-29,3,5,17
14:15:34:248137,6,-9,-9,-9,-22,47,5,18
14:15:34:248896,6,-9,-9,-9,-22,47,5,18
14:15:34:254899,-9,-4,-19,-11,-40,-11,-29,28
14:15:34:262377,12,6,1,10,23,22,-8,8
14:15:34:270694,12,6,1,10,23,22,-8,8
14:15:34:271446,-1,8,29,-6,16,12,-36,-31
14:15:34:284967,-20,-28,6,5,20,-35,-6,14
14:15:34:293093,-20,-28,6,5,20,-35,-6,14
14:15:34:293884,-7,-10,4,-37,-18,-1,18,4
14:15:34:299823,-23,-16,-10,9,10,-7,-7,-19
14:15:34:307415,-23,-16,-10,9,10,-7,-7,-19
14:15:34:314987,0,10,-11,23,46,10,24,12
14:15:34:322422,6,4,0,9,10,25,-11,-10
14:15:34:330630,6,4,0,9,10,25,-11,-10
14:15:34:331400,5,4,11,7,5,-101,-12,-1
14:15:34:344855,9,13,8,9,38,0,28,9
14:15:34:353185,9,13,8,9,38,0,28,9
14:15:34:353934,-6,-16,-9,-13,-42,-3,-3,-12
14:15:34:359838,-1,7,-13,-2,-24,-9,-34,11
14:15:34:367475,-1,7,-13,-2,-24,-9,-34,11
14:15:34:374893,12,-4,-29,5,20,23,-20,8
14:15:34:382406,-4,-24,-31,-20,-23,-12,1,0
14:15:34:390593,-4,-24,-31,-20,-23,-12,1,0
14:15:34:391380,2,-3,-19,2,11,-1,8,10
14:15:34:404902,-13,-21,-38,-3,11,2,-12,-18
14:15:34:413093,-13,-21,-38,-3,11,2,-12,-18
14:15:34:413801,3,-6,0,26,28,-12,15,-1
14:15:34:419963,-5,14,23,-3,-1,7,1,-10
14:15:34:427425,-5,14,23,-3,-1,7,1,-10
14:15:34:434940,8,-17,-12,-22,5,39,7,26
14:15:34:442395,16,3,16,1,-28,-7,17,-5
14:15:34:458097,16,3,16,1,-28,-7,17,-5
14:15:34:458864,22,16,10,28,13,10,19,13
14:15:34:464955,14,-6,-63,-39,-39,-2,-41,-7
14:15:34:481329,14,-6,-63,-39,-39,-2,-41,-7
14:15:34:482080,-10,-16,-23,-9,-13,5,-5,11
14:15:34:482873,2,14,18,2,6,0,30,7
14:15:34:487419,2,14,18,2,6,0,30,7
14:15:34:503089,-13,-6,-36,-5,-8,14,3,-9
14:15:34:503805,-6,-2,11,20,17,-5,-1,-5
14:15:34:510583,-6,-2,11,20,17,-5,-1,-5
14:15:34:511371,-21,7,39,-21,-25,2,-1,-6
14:15:34:524887,-1,13,4,-17,50,-35,-18,-27
14:15:34:533082,-1,13,4,-17,50,-35,-18,-27
14:15:34:533960,1,-1,-5,6,0,38,6,-39
14:15:34:539885,10,-7,-2,7,-20,6,47,9
14:15:34:547597,10,-7,-2,7,-20,6,47,9
14:15:34:554899,6,-4,10,-16,-5,-25,-23,-5
14:15:34:562404,-30,-47,-15,-13,-36,-5,-44,23
14:15:34:570636,-30,-47,-15,-13,-36,-5,-44,23
14:15:34:571380,-5,-3,18,38,14,10,7,17
14:15:34:584990,-5,-5,-3,6,35,30,10,-18
14:15:34:593076,-5,-5,-3,6,35,30,10,-18
14:15:34:593852,-22,8,-23,-22,-30,-36,-2,-5
14:15:34:599912,-10,14,30,16,19,46,0,-24
14:15:34:607456,-10,14,30,16,19,46,0,-24
14:15:34:615017,24,24,42,25,33,28,6,9
14:15:34:622435,12,17,14,-24,-56,-23,-16,20
14:15:34:630712,12,17,14,-24,-56,-23,-16,20
14:15:34:631396,0,3,-17,-12,-9,-34,70,18
14:15:34:644904,7,37,6,18,20,-3,10,9
14:15:34:653155,7,37,6,18,20,-3,10,9
14:15:34:653917,-16,-53,-14,-35,-17,-16,-33,2
14:15:34:659853,-3,4,29,-3,-1,13,1,-9
14:15:34:667480,-3,4,29,-3,-1,13,1,-9
14:15:34:674897,27,7,-19,-16,3,11,-7,6
14:15:34:682455,1,-22,-1,6,-1,-20,-11,24
14:15:34:690604,1,-22,-1,6,-1,-20,-11,24
14:15:34:691393,-3,4,15,-7,1,23,-25,-15
14:15:34:713747,-6,11,19,7,30,-27,0,-7
14:15:34:714487,-6,11,19,7,30,-27,0,-7
14:15:34:715344,-18,-4,-27,2,5,-29,14,2
14:15:34:719964,-7,-6,18,-2,4,44,28,22
14:15:34:735635,-7,-6,18,-2,4,44,28,22
14:15:34:736396,-10,11,-16,-8,-11,8,-57,-15
14:15:34:742389,14,-13,-58,5,-10,-18,-2,-3
14:15:34:750610,14,-13,-58,5,-10,-18,-2,-3
14:15:34:751391,3,9,-1,22,-11,-15,-15,6
14:15:34:764930,-25,-16,4,4,10,14,-7,-13
14:15:34:773112,-25,-16,4,4,10,14,-7,-13
14:15:34:773881,-11,-29,-18,-10,-32,-20,-4,-29
14:15:34:779901,-14,-32,-28,-14,5,47,-6,-26
14:15:34:787407,-14,-32,-28,-14,5,47,-6,-26
14:15:34:794882,6,3,31,28,51,6,-6,14
14:15:34:802422,40,28,81,5,6,40,5,35
14:15:34:810551,40,28,81,5,6,40,5,35
14:15:34:811333,7,7,45,-13,-28,2,-2,2
14:15:34:824903,-16,7,3,-18,-64,-61,-6,-31
14:15:34:833075,-16,7,3,-18,-64,-61,-6,-31
14:15:34:833828,-3,-1,33,10,-8,4,19,33
14:15:34:839870,-27,9,-25,0,45,21,5,-16
14:15:34:847571,-27,9,-25,0,45,21,5,-16
14:15:34:854899,-9,7,-16,-3,-23,23,32,7
14:15:34:870603,-9,8,23,-7,-32,-29,-40,-26
14:15:34:871376,-9,8,23,-7,-32,-29,-40,-26
14:15:34:877413,11,-2,-2,6,18,-7,-1,21
14:15:34:884933,-7,6,-4,10,10,-50,23,15
14:15:34:893047,-7,6,-4,10,10,-50,23,15
14:15:34:893839,-7,8,-16,9,-5,24,2,-31
14:15:34:908041,5,-33,14,2,-54,-6,1,18
14:15:34:908843,5,-33,14,2,-54,-6,1,18
14:15:34:914983,9,-1,-8,-44,-71,-27,5,8
14:15:34:922411,4,-1,-8,7,36,-9,9,-6
14:15:34:929933,4,-1,-8,7,36,-9,9,-6
14:15:34:937422,-13,-28,19,-21,-22,-4,-16,-24
14:15:34:944828,19,-2,-31,-13,-47,-36,-23,4
14:15:34:953168,19,-2,-31,-13,-47,-36,-23,4
14:15:34:953934,23,6,-40,-1,61,10,-11,-32
14:15:34:968103,6,4,28,9,28,23,18,20
14:15:34:968845,6,4,28,9,28,23,18,20
14:15:34:974866,-22,-1,11,19,6,17,17,2
14:15:34:982454,-20,14,27,13,6,17,-6,3
14:15:34:989945,-20,14,27,13,6,17,-6,3
14:15:34:997510,-2,20,-7,8,4,12,8,-1
14:15:35:4845,-12,-20,-24,-1,-47,34,3,-15
14:15:35:13118,-12,-20,-24,-1,-47,34,3,-15
14:15:35:13896,6,20,19,42,26,28,8,13
14:15:35:28077,21,12,-8,-14,-17,-6,-19,-34
14:15:35:28853,21,12,-8,-14,-17,-6,-19,-34
14:15:35:34959,26,-13,-16,-11,-40,-53,1,93
14:15:35:42414,7,5,-11,16,45,42,57,33
14:15:35:58152,7,5,-11,16,45,42,57,33
14:15:35:58897,-1,-8,-5,-19,-11,-38,-29,-27
14:15:35:64952,8,2,-43,-18,-7,-20,-32,-17
14:15:35:73106,8,2,-43,-18,-7,-20,-32,-17
14:15:35:73879,15,3,16,6,0,35,18,24
14:15:35:88072,-14,6,2,26,-9,-16,-3,-10
14:15:35:88872,-14,6,2,26,-9,-16,-3,-10
14:15:35:94827,-15,-10,-42,-45,35,-5,-8,-35
14:15:35:102479,-7,4,14,-9,30,-15,-14,-2
14:15:35:109916,-7,4,14,-9,30,-15,-14,-2
14:15:35:117417,-10,-20,-6,5,20,-17,11,-10
14:15:35:124846,-14,-10,-24,-5,27,39,-65,-75
14:15:35:133118,-14,-10,-24,-5,27,39,-65,-75
14:15:35:133916,-6,26,23,48,42,-3,8,5
14:15:35:148160,-38,-9,27,-3,-26,-10,17,-10
14:15:35:148955,-38,-9,27,-3,-26,-10,17,-10
14:15:35:154899,-22,-27,-37,-3,-15,-9,-8,-38
14:15:35:162398,17,9,-4,-13,-53,-40,-16,13
14:15:35:170018,17,9,-4,-13,-53,-40,-16,13
14:15:35:177376,6,-4,-2,-21,-18,-24,-14,-6
14:15:35:184924,0,-11,21,28,12,17,20,15
14:15:35:193115,0,-11,21,28,12,17,20,15
14:15:35:193913,0,12,24,19,-28,23,-3,7
14:15:35:208120,5,-3,-1,-28,-30,-25,15,-9
14:15:35:208904,5,-3,-1,-28,-30,-25,15,-9
14:15:35:215009,16,21,28,35,37,45,-21,2
14:15:35:222428,15,-8,-27,15,16,-29,25,15
14:15:35:229890,15,-8,-27,15,16,-29,25,15
14:15:35:237404,1,9,-12,-7,-13,-15,-3,4
