Time,EMG1,EMG2,EMG3,EMG4,EMG5,EMG6,EMG7,EMG8
14:15:51:136626,-6,-3,-2,-12,-21,11,-6,0
14:15:51:144091,-6,-3,-2,-12,-21,11,-6,0
14:15:51:151559,-1,-1,-2,-5,9,15,14,-3
14:15:51:159704,3,-1,-7,-25,-24,-13,5,1
14:15:51:160498,3,-1,-7,-25,-24,-13,5,1
14:15:51:166580,-2,1,-5,-8,-1,-5,-1,-4
14:15:51:182259,-2,0,2,7,-11,-21,-13,-7
14:15:51:182996,-2,0,2,7,-11,-21,-13,-7
14:15:51:189053,0,0,3,1,11,1,6,-2
14:15:51:196555,-1,-6,-5,4,28,5,13,2
14:15:51:204153,-1,-6,-5,4,28,5,13,2
14:15:51:211564,0,-1,-2,-6,4,-14,-13,-6
14:15:51:219772,5,8,4,-6,0,-2,0,-3
14:15:51:220493,5,8,4,-6,0,-2,0,-3
14:15:51:226482,-6,-3,-6,-3,2,2,-20,-4
14:15:51:242229,-4,-4,-3,0,-11,-7,-8,-5
14:15:51:242999,-4,-4,-3,0,-11,-7,-8,-5
14:15:51:249008,-1,-2,-1,24,-10,10,2,0
14:15:51:256634,6,3,-2,28,32,29,18,4
14:15:51:264094,6,3,-2,28,32,29,18,4
14:15:51:271515,2,-1,-1,-14,-18,-17,-8,6
14:15:51:279743,-7,-6,-1,-7,-16,-29,-17,0
14:15:51:280555,-7,-6,-1,-7,-16,-29,-17,0
14:15:51:286627,-2,-5,-8,-8,-3,1,8,3
14:15:51:302310,1,2,1,6,25,26,-13,0
14:15:51:303047,1,2,1,6,25,26,-13,0
14:15:51:309041,3,-1,3,6,-9,-9,2,-10
14:15:51:316573,-2,-1,-1,-33,5,22,-17,-6
14:15:51:324094,-2,-1,-1,-33,5,22,-17,-6
14:15:51:331561,4,1,6,-19,12,-7,-3,8
14:15:51:339703,-2,0,1,35,17,-17,-2,4
14:15:51:340527,-2,0,1,35,17,-17,-2,4
14:15:51:346567,-2,-2,-10,-30,-31,-17,-1,-8
14:15:51:362231,-4,-8,-4,-15,-16,-2,-2,-1
14:15:51:363060,-4,-8,-4,-15,-16,-2,-2,-1
14:15:51:369059,-1,1,-4,8,-2,-6,1,7
14:15:51:376506,-1,-6,-5,16,19,5,-2,-11
14:15:51:384130,-1,-6,-5,16,19,5,-2,-11
14:15:51:391564,2,0,0,25,17,6,-10,5
14:15:51:399703,0,8,10,5,-8,-9,18,10
14:15:51:400498,0,8,10,5,-8,-9,18,10
14:15:51:406570,-2,-1,-1,2,14,14,-7,-10
14:15:51:422278,-2,-3,2,14,-6,0,3,-5
14:15:51:423058,-2,-3,2,14,-6,0,3,-5
14:15:51:429041,-2,-1,2,-1,9,-2,0,-1
14:15:51:436629,-2,-2,-3,-30,-45,-13,1,-5
14:15:51:444115,-2,-2,-3,-30,-45,-13,1,-5
14:15:51:451585,-1,-5,-8,-43,-34,-9,-7,1
14:15:51:459679,2,1,-2,0,-26,-14,5,-1
14:15:51:460493,2,1,-2,0,-26,-14,5,-1
14:15:51:474062,1,2,-3,18,3,-27,-4,0
14:15:51:482234,2,2,1,-8,22,12,-2,4
14:15:51:483009,2,2,1,-8,22,12,-2,4
14:15:51:489050,-6,-5,4,21,5,11,6,-7
14:15:51:504775,-1,-2,-3,20,25,-16,6,8
14:15:51:505545,-1,-2,-3,20,25,-16,6,8
14:15:51:511507,-4,0,-6,-14,-1,-13,-10,0
14:15:51:519737,-1,0,-1,-44,-28,-20,4,1
14:15:51:520526,-1,0,-1,-44,-28,-20,4,1
14:15:51:534117,4,4,11,12,34,29,35,12
14:15:51:542274,-1,-2,2,7,-25,-10,0,-2
14:15:51:543037,-1,-2,2,7,-25,-10,0,-2
14:15:51:549090,-4,1,-2,25,13,1,0,-4
14:15:51:564822,-3,0,2,11,13,7,4,10
14:15:51:565552,-3,0,2,11,13,7,4,10
14:15:51:571581,-3,-7,-7,5,-20,-18,-7,-3
14:15:51:579729,-1,-2,-1,23,10,20,2,-5
14:15:51:580524,-1,-2,-1,23,10,20,2,-5
14:15:51:594014,2,-1,1,-1,-10,-8,11,1
14:15:51:602307,2,3,-4,-4,1,11,-25,-1
14:15:51:603090,2,3,-4,-4,1,11,-25,-1
14:15:51:609047,0,-1,5,8,20,-9,-30,-13
14:15:51:624814,-6,-3,1,14,6,-1,-1,-8
14:15:51:625549,-6,-3,1,14,6,-1,-1,-8
14:15:51:631609,-4,-1,8,-11,-30,-8,-10,-1
14:15:51:639788,-1,3,-1,-13,-5,-8,-6,1
14:15:51:640564,-1,3,-1,-13,-5,-8,-6,1
14:15:51:654122,-4,-2,1,9,-9,12,16,-1
14:15:51:662241,2,-4,-3,3,-7,-7,-2,0
14:15:51:663101,2,-4,-3,3,-7,-7,-2,0
14:15:51:669083,-1,-2,-1,14,19,26,-5,1
14:15:51:684782,0,-5,-1,-1,-2,0,-4,-3
14:15:51:685536,0,-5,-1,-1,-2,0,-4,-3
14:15:51:691530,-3,2,-4,3,-39,-6,-4,-2
14:15:51:699807,2,2,-6,-37,4,22,16,-2
14:15:51:700598,2,2,-6,-37,4,22,16,-2
14:15:51:714044,-3,-4,-1,-22,1,3,-6,-4
14:15:51:722214,-7,-8,-6,3,-5,-17,10,1
14:15:51:723058,-7,-8,-6,3,-5,-17,10,1
14:15:51:729009,0,1,-1,-23,-6,-2,-2,-1
14:15:51:745180,-2,1,2,4,19,4,-11,5
14:15:51:745970,-2,1,2,4,19,4,-11,5
14:15:51:751553,3,5,4,2,0,4,-5,1
14:15:51:759725,3,-3,1,11,-2,11,19,-2
14:15:51:760544,3,-3,1,11,-2,11,19,-2
14:15:51:774045,3,-4,0,19,34,-16,-10,6
14:15:51:782319,-6,1,-6,-6,2,-11,-23,-14
14:15:51:783061,-6,1,-6,-6,2,-11,-23,-14
14:15:51:789071,2,4,2,-22,-3,5,8,3
14:15:51:804753,-3,-1,0,11,-5,-4,-14,0
14:15:51:805531,-3,-1,0,11,-5,-4,-14,0
14:15:51:811537,-1,-2,-5,-36,-45,-10,1,-8
14:15:51:819741,0,-1,-2,4,-3,10,-4,-3
14:15:51:820500,0,-1,-2,4,-3,10,-4,-3
14:15:51:834096,-1,3,-2,10,15,9,12,1
14:15:51:842244,-1,0,-5,-14,-6,-16,16,10
14:15:51:842998,-1,0,-5,-14,-6,-16,16,10
14:15:51:849024,-2,5,4,14,18,17,17,2
14:15:51:864808,-2,5,4,14,18,17,17,2
14:15:51:865500,-1,-4,-1,-8,-13,-16,4,-9
14:15:51:871570,1,-4,-5,-37,-19,-1,-9,1
14:15:51:887322,1,-4,-5,-37,-19,-1,-9,1
14:15:51:888015,-2,2,0,-6,12,25,-4,-8
14:15:51:894016,-3,-4,-2,13,-5,-6,-7,-4
14:15:51:902348,-3,-4,-2,13,-5,-6,-7,-4
14:15:51:903057,2,1,3,9,-13,2,11,3
14:15:51:909067,-2,-2,0,9,-4,10,-6,-1
14:15:51:924742,-2,-2,0,9,-4,10,-6,-1
14:15:51:925520,-1,0,-4,-11,1,-10,-21,-8
14:15:51:931673,1,0,1,35,23,-2,11,5
14:15:51:947313,1,0,1,35,23,-2,11,5
14:15:51:948053,-1,-5,-4,-3,-13,-11,3,-6
14:15:51:954135,-2,-7,-10,-19,0,-7,-12,1
14:15:51:962250,-2,-7,-10,-19,0,-7,-12,1
14:15:51:962974,3,0,7,-9,-2,15,24,0
14:15:51:969110,-1,-2,3,9,-11,-19,0,-6
14:15:51:984852,-1,-2,3,9,-11,-19,0,-6
14:15:51:985535,-4,-3,-4,1,-5,-35,-1,0
14:15:51:991553,0,0,-5,-3,21,12,-6,0
14:15:52:7267,0,0,-5,-3,21,12,-6,0
14:15:52:8033,-1,0,0,-9,0,9,4,4
14:15:52:22891,-3,-3,4,9,-26,-15,-2,2
14:15:52:23687,-3,-3,4,9,-26,-15,-2,2
14:15:52:24524,1,-1,1,15,4,-2,-1,11
14:15:52:29030,-1,-3,0,-5,-9,-7,7,-2
14:15:52:44730,-1,-3,0,-5,-9,-7,7,-2
14:15:52:45511,2,0,3,26,2,11,-16,8
14:15:52:51561,-2,-5,-8,-16,-8,-14,-25,-7
14:15:52:75394,-2,-5,-8,-16,-8,-14,-25,-7
14:15:52:76128,0,-3,-2,4,-1,4,0,-4
14:15:52:76999,-4,0,-3,-7,12,7,-4,-12
14:15:52:82306,-4,0,-3,-7,12,7,-4,-12
14:15:52:83069,-5,1,-5,-18,-14,-32,-12,-4
14:15:52:89106,1,5,-2,-11,37,19,26,1
14:15:52:104745,1,5,-2,-11,37,19,26,1
14:15:52:105527,-1,2,2,22,30,19,-24,-3
14:15:52:111533,-1,-2,-4,-1,-5,-16,-15,2
14:15:52:127278,-1,-2,-4,-1,-5,-16,-15,2
14:15:52:128018,1,1,-1,-18,-21,8,2,4
14:15:52:134138,-5,-3,2,9,-20,2,-2,-7
14:15:52:142247,-5,-3,2,9,-20,2,-2,-7
14:15:52:142972,0,-3,-2,7,5,-1,-4,-4
14:15:52:149103,0,0,5,-10,-9,-1,22,7
14:15:52:164911,0,0,5,-10,-9,-1,22,7
14:15:52:165573,-4,-2,-2,5,27,1,-2,-2
14:15:52:171583,1,-3,-2,-9,-1,22,-14,2
14:15:52:187302,1,-3,-2,-9,-1,22,-14,2
14:15:52:188068,-2,1,-1,4,-11,-26,-15,-10
14:15:52:194011,-5,0,-3,9,27,1,-20,-5
14:15:52:202377,-5,0,-3,9,27,1,-20,-5
14:15:52:203063,1,-2,-2,-15,-15,-10,5,-2
14:15:52:209069,0,1,-4,-15,-27,-6,7,-1
14:15:52:224771,0,1,-4,-15,-27,-6,7,-1
14:15:52:225540,-3,-5,-1,-26,-17,-2,9,4
14:15:52:231591,1,-4,-2,-2,14,3,8,-1
14:15:52:239131,1,-4,-2,-2,14,3,8,-1
14:15:52:246596,-4,-8,-6,3,24,12,18,-9
14:15:52:254106,0,1,-4,5,-12,-16,-25,-5
14:15:52:262261,0,1,-4,5,-12,-16,-25,-5
14:15:52:262997,-3,1,-5,-21,-14,6,-7,2
14:15:52:269090,2,0,0,-13,-1,-19,9,3
14:15:52:284849,2,0,0,-13,-1,-19,9,3
14:15:52:285561,2,0,-2,-29,-3,4,12,2
14:15:52:291576,0,3,4,18,27,3,5,0
14:15:52:299121,0,3,4,18,27,3,5,0
14:15:52:306554,-6,1,0,27,6,5,17,7
14:15:52:314131,1,-6,-2,8,1,15,12,2
14:15:52:322266,1,-6,-2,8,1,15,12,2
14:15:52:323054,1,2,-1,2,-22,0,-4,-1
14:15:52:328974,0,-2,2,15,-3,15,18,5
14:15:52:352991,0,-2,2,15,-3,15,18,5
14:15:52:353713,-1,-2,-2,4,6,4,-8,-6
14:15:52:354518,0,-1,0,22,48,17,5,6
14:15:52:359108,0,-1,0,22,48,17,5,6
14:15:52:366568,-1,2,4,24,20,-21,-18,-11
14:15:52:374053,-4,-2,-5,-19,-20,-12,-6,-1
14:15:52:382323,-4,-2,-5,-19,-20,-12,-6,-1
14:15:52:383014,2,0,-3,17,1,-10,-2,2
14:15:52:389054,1,0,-2,-30,-36,-14,0,-4
14:15:52:404693,1,0,-2,-30,-36,-14,0,-4
14:15:52:405512,-2,-1,-4,4,15,17,5,-4
14:15:52:411544,-3,-2,-2,-11,20,4,-3,-2
14:15:52:419146,-3,-2,-2,-11,20,4,-3,-2
14:15:52:426483,0,-4,-4,-21,-21,-11,3,3
14:15:52:434073,-2,0,-3,49,26,-1,-3,3
14:15:52:442237,-2,0,-3,49,26,-1,-3,3
14:15:52:442999,-5,0,1,1,-5,2,2,-13
14:15:52:465536,5,4,3,-11,-40,-18,-1,-3
14:15:52:466215,5,4,3,-11,-40,-18,-1,-3
14:15:52:467102,0,-2,3,-14,-15,7,-5,6
14:15:52:471598,-5,-1,1,12,22,6,0,4
14:15:52:487367,-5,-1,1,12,22,6,0,4
14:15:52:488079,-2,1,1,-3,7,3,-9,-4
14:15:52:493996,-4,-2,-4,-14,-13,-20,-25,-10
14:15:52:502363,-4,-2,-4,-14,-13,-20,-25,-10
14:15:52:503103,-1,-6,-2,14,-18,-18,0,-3
14:15:52:516560,-3,-2,0,-4,-14,9,-4,7
14:15:52:524781,-3,-2,0,-4,-14,9,-4,7
14:15:52:525586,-1,1,0,-14,-17,-25,-1,-2
14:15:52:531587,5,4,1,-31,-25,1,-26,-7
14:15:52:539109,5,4,1,-31,-25,1,-26,-7
14:15:52:546567,2,0,3,-1,24,19,30,3
14:15:52:554125,-1,-3,-10,-16,-35,-4,1,5
14:15:52:562250,-1,-3,-10,-16,-35,-4,1,5
14:15:52:563016,4,4,6,7,16,3,-1,5
14:15:52:576491,-2,-1,-4,-6,-5,4,6,-4
14:15:52:584864,-2,-1,-4,-6,-5,4,6,-4
14:15:52:585537,-6,-3,-6,-6,-4,-7,-8,-7
14:15:52:591583,-2,0,-1,5,14,-20,-7,0
14:15:52:599114,-2,0,-1,5,14,-20,-7,0
14:15:52:614806,6,5,7,5,33,36,2,8
14:15:52:615499,-2,-4,0,3,-5,4,43,7
14:15:52:622948,-2,-4,0,3,-5,4,43,7
14:15:52:623693,-2,0,0,11,-29,-15,11,2
14:15:52:636648,-4,-3,-4,16,8,6,-20,-8
14:15:52:644758,-4,-3,-4,16,8,6,-20,-8
14:15:52:645545,-9,-2,-3,-4,-13,-10,-25,-15
14:15:52:651619,-2,2,4,8,18,7,5,-8
14:15:52:659105,-2,2,4,8,18,7,5,-8
14:15:52:666562,-6,-11,-3,5,-20,-20,-2,-2
14:15:52:674065,4,-2,1,-18,20,4,3,0
14:15:52:682257,4,-2,1,-18,20,4,3,0
14:15:52:682988,4,0,1,-12,8,1,-8,17
14:15:52:696562,0,-3,-2,-6,-19,-14,13,5
14:15:52:704712,0,-3,-2,-6,-19,-14,13,5
14:15:52:705517,-1,0,-7,-13,7,3,7,-4
14:15:52:711575,-3,2,-4,-28,-9,2,8,2
14:15:52:719092,-3,2,-4,-28,-9,2,8,2
14:15:52:726502,5,6,2,24,56,19,10,-4
14:15:52:734088,-2,-2,6,13,-8,-19,11,-4
14:15:52:742246,-2,-2,6,13,-8,-19,11,-4
14:15:52:743011,3,0,1,2,-11,-3,-11,4
14:15:52:756580,-5,0,-2,-3,-5,-2,2,-3
14:15:52:764853,-5,0,-2,-3,-5,-2,2,-3
14:15:52:765542,-1,0,-2,5,4,8,-17,-2
14:15:52:771561,2,-2,2,16,4,-6,-2,5
14:15:52:779117,2,-2,2,16,4,-6,-2,5
14:15:52:786654,-5,-2,-2,-28,-29,-12,-10,-8
14:15:52:793977,4,3,2,12,16,11,-9,-6
14:15:52:802355,4,3,2,12,16,11,-9,-6
14:15:52:803080,1,1,8,27,1,0,1,5
14:15:52:816555,-5,0,1,10,-4,-16,-23,-13
14:15:52:824766,-5,0,1,10,-4,-16,-23,-13
14:15:52:825594,-4,-3,-6,-14,-24,-25,14,-3
14:15:52:831618,2,1,1,-2,11,13,14,2
14:15:52:839068,2,1,1,-2,11,13,14,2
14:15:52:846506,-2,-2,-2,23,33,35,3,4
14:15:52:854117,-1,-2,-6,-6,4,3,-8,6
14:15:52:862291,-1,-2,-6,-6,4,3,-8,6
14:15:52:863060,5,3,3,-2,3,15,19,25
14:15:52:876497,1,-1,-1,-5,-12,-6,-20,-8
14:15:52:884584,1,-1,-1,-5,-12,-6,-20,-8
14:15:52:892189,-1,0,-1,1,0,-4,24,-9
14:15:52:892969,3,-3,-2,-3,-23,-9,0,4
14:15:52:899167,3,-3,-2,-3,-23,-9,0,4
14:15:52:906542,-5,0,-6,-5,23,8,-9,-3
14:15:52:914083,-3,-1,-2,23,16,0,4,-2
14:15:52:922348,-3,-1,-2,23,16,0,4,-2
14:15:52:923082,-3,-7,-9,-6,6,-11,-14,-9
14:15:52:945411,-8,-3,-3,0,-6,4,9,0
14:15:52:946219,-8,-3,-3,0,-6,4,9,0
14:15:52:947030,0,2,5,9,29,22,-1,-5
14:15:52:951657,5,4,6,-8,8,4,0,10
14:15:52:959114,5,4,6,-8,8,4,0,10
14:15:52:966558,3,-4,0,-41,-37,-20,11,4
14:15:52:974045,0,1,2,-26,-14,7,0,-6
14:15:52:982345,0,1,2,-26,-14,7,0,-6
14:15:52:983078,-1,1,-6,-18,-6,-2,-4,-5
14:15:52:996571,-2,-1,-3,-9,-19,-14,-5,-1
14:15:53:4787,-2,-1,-3,-9,-19,-14,-5,-1
14:15:53:5532,0,-3,-3,-20,-12,-23,-21,-7
14:15:53:11485,2,-4,3,27,36,7,-3,1
14:15:53:19153,2,-4,3,27,36,7,-3,1
14:15:53:26500,-2,0,-4,25,17,19,5,1
14:15:53:34064,-5,-3,-5,38,5,18,-8,-7
14:15:53:42204,-5,-3,-5,38,5,18,-8,-7
14:15:53:42983,-10,-8,-10,-13,-18,-22,-4,-7
14:15:53:56541,2,-2,-5,-24,-21,-11,-13,1
14:15:53:64841,2,-2,-5,-24,-21,-11,-13,1
14:15:53:65574,1,-1,1,9,-21,2,7,8
14:15:53:71506,-2,2,-1,3,14,-13,-9,2
14:15:53:79104,-2,2,-1,3,14,-13,-9,2
14:15:53:86623,0,1,1,-5,-22,-7,-4,8
14:15:53:94018,2,-1,-4,-3,6,14,4,-2
14:15:53:102289,2,-1,-4,-3,6,14,4,-2
14:15:53:103009,-2,-4,-13,14,6,5,-9,-19
14:15:53:116528,-2,-6,1,42,35,0,-4,-5
14:15:53:124726,-2,-6,1,42,35,0,-4,-5
14:15:53:125537,-5,-6,2,10,1,12,-6,1
14:15:53:131616,2,-1,-5,-12,-9,-4,17,2
14:15:53:139091,2,-1,-5,-12,-9,-4,17,2
14:15:53:146531,-8,-3,-1,-1,-27,-25,-9,-18
14:15:53:162833,-1,5,15,6,18,16,23,11
14:15:53:163661,-1,5,15,6,18,16,23,11
14:15:53:164488,4,8,16,-4,3,-11,-19,-21
14:15:53:176499,-1,0,-6,-25,-35,-4,0,-9
14:15:53:184835,-1,0,-6,-25,-35,-4,0,-9
14:15:53:185640,6,-3,-1,4,-4,2,-1,7
14:15:53:191519,-5,0,4,31,-16,-27,-17,-4
14:15:53:199159,-5,0,4,31,-16,-27,-17,-4
14:15:53:206591,-1,2,0,-21,-6,7,-3,5
14:15:53:214082,-2,-7,-8,-21,-3,8,-1,-5
14:15:53:222267,-2,-7,-8,-21,-3,8,-1,-5
14:15:53:223043,2,-5,-2,9,-10,-27,-37,1
14:15:53:236646,1,-3,-1,-32,-3,33,35,5
14:15:53:244702,1,-3,-1,-32,-3,33,35,5
14:15:53:245505,3,-1,-1,6,26,25,47,25
14:15:53:251622,-5,0,-6,-48,-48,-21,-9,-10
14:15:53:259077,-5,0,-6,-48,-48,-21,-9,-10
14:15:53:266545,-6,-1,-2,11,-17,0,44,0
14:15:53:274043,0,3,2,74,55,21,10,5
14:15:53:282342,0,3,2,74,55,21,10,5
14:15:53:283070,11,10,-8,-17,25,42,18,1
14:15:53:296613,-4,-8,-5,-21,-33,-35,-30,-3
14:15:53:304807,-4,-8,-5,-21,-33,-35,-30,-3
14:15:53:305496,-6,-2,12,9,-6,-31,-17,-7
14:15:53:311502,-4,0,-6,-9,-20,-24,26,0
14:15:53:319164,-4,0,-6,-9,-20,-24,26,0
14:15:53:326502,-1,-4,0,-10,6,17,-8,-5
14:15:53:334081,-4,-3,2,17,35,4,-24,-5
14:15:53:342291,-4,-3,2,17,35,4,-24,-5
14:15:53:343017,-1,0,-12,9,13,-2,-10,-1
14:15:53:356578,1,-3,-7,-16,-19,-21,-31,-5
14:15:53:364846,1,-3,-7,-16,-19,-21,-31,-5
14:15:53:365514,1,-1,7,-6,-9,-16,-25,3
14:15:53:379693,1,-1,3,-16,-3,8,-4,-5
14:15:53:380513,1,-1,3,-16,-3,8,-4,-5
14:15:53:386573,-6,1,-4,-8,-8,-32,-41,-13
14:15:53:393976,1,2,3,-18,-1,23,4,-3
14:15:53:409697,1,2,3,-18,-1,23,4,-3
14:15:53:410499,-5,-5,-8,-4,30,19,4,-3
14:15:53:416581,5,2,3,11,46,13,-1,-1
14:15:53:424754,5,2,3,11,46,13,-1,-1
14:15:53:425531,1,-4,-6,-6,-4,2,9,9
14:15:53:439738,1,0,-1,-1,-13,2,4,1
14:15:53:440494,1,0,-1,-1,-13,2,4,1
14:15:53:446587,-3,-5,-9,10,-12,-32,-14,-10
14:15:53:454122,0,-1,-6,-23,-20,-14,8,3
14:15:53:461557,0,-1,-6,-23,-20,-14,8,3
14:15:53:469036,-7,0,-5,-11,-13,20,19,5
14:15:53:476489,0,-2,9,7,3,-12,-10,2
14:15:53:484774,0,-2,9,7,3,-12,-10,2
14:15:53:485540,-2,-3,0,0,7,4,4,-4
14:15:53:499717,0,-2,-10,0,-8,6,5,2
14:15:53:500547,0,-2,-10,0,-8,6,5,2
14:15:53:506511,4,5,8,2,-3,9,-15,1
14:15:53:514032,-5,-3,-1,1,-10,-21,-12,-5
14:15:53:521623,-5,-3,-1,1,-10,-21,-12,-5
14:15:53:529041,-4,-4,-13,-13,-13,1,-17,-3
14:15:53:536653,1,0,3,11,8,20,12,7
14:15:53:544737,1,0,3,11,8,20,12,7
14:15:53:545510,1,-1,1,-3,-5,-5,-6,8
14:15:53:559737,-2,0,-3,-5,1,-3,-8,-8
14:15:53:560521,-2,0,-3,-5,1,-3,-8,-8
14:15:53:566582,4,1,11,11,9,13,17,2
14:15:53:574080,-5,1,8,2,-10,3,-7,1
14:15:53:581769,-5,1,8,2,-10,3,-7,1
14:15:53:589057,-4,-2,-5,-3,-6,-14,36,8
14:15:53:596535,-1,0,-2,-5,5,9,28,4
14:15:53:604799,-1,0,-2,-5,5,9,28,4
14:15:53:605593,-1,-2,5,5,-3,-14,-9,-4
14:15:53:619833,2,0,-5,-8,1,10,-2,-2
14:15:53:620594,2,0,-5,-8,1,10,-2,-2
14:15:53:626503,-2,-3,-2,1,-1,-6,-5,-2
14:15:53:634099,-3,-3,-4,-13,-6,-14,-22,-9
14:15:53:641652,-3,-3,-4,-13,-6,-14,-22,-9
14:15:53:649058,0,0,0,1,4,9,4,2
14:15:53:656572,-3,-5,-6,4,-5,-1,6,3
14:15:53:664806,-3,-5,-6,4,-5,-1,6,3
14:15:53:665521,-3,0,5,-2,5,-6,4,-8
14:15:53:679719,0,0,1,-2,-5,-3,-3,-3
14:15:53:680493,0,0,1,-2,-5,-3,-3,-3
14:15:53:686636,1,-1,0,3,-7,0,-6,-3
14:15:53:694010,2,0,0,1,4,1,1,6
14:15:53:701660,2,0,0,1,4,1,1,6
14:15:53:709079,2,0,-2,-3,-4,1,0,5
14:15:53:725390,-2,1,1,0,-4,-4,3,-3
14:15:53:726150,-2,1,1,0,-4,-4,3,-3
14:15:53:726943,-3,-2,-5,-6,-2,-8,-12,-3
14:15:53:739758,-4,-7,-13,-1,3,-6,-5,2
14:15:53:740626,-4,-7,-13,-1,3,-6,-5,2
14:15:53:746571,3,2,3,-3,-6,-2,-4,0
14:15:53:754089,-3,-3,8,-4,-9,-10,-10,-6
14:15:53:761603,-3,-3,8,-4,-9,-10,-10,-6
14:15:53:769123,-11,-2,-5,6,21,11,13,1
14:15:53:776494,7,4,20,2,6,4,4,-7
14:15:53:784797,7,4,20,2,6,4,4,-7
14:15:53:785530,2,-1,-5,-1,-2,3,3,4
14:15:53:799717,-2,0,2,1,4,0,4,2
14:15:53:800531,-2,0,2,1,4,0,4,2
14:15:53:806576,-10,-9,-6,-4,-8,-4,-13,-5
14:15:53:814106,-2,-1,-8,0,-1,-3,4,-3
14:15:53:821567,-2,-1,-8,0,-1,-3,4,-3
14:15:53:829016,2,1,19,-2,-2,-3,-2,-4
14:15:53:836648,3,-3,-15,-3,-1,-1,-4,1
14:15:53:844717,3,-3,-15,-3,-1,-1,-4,1
14:15:53:845495,1,7,10,6,-1,2,-4,-1
14:15:53:859700,0,-4,-8,-3,7,3,-1,-6
14:15:53:860526,0,-4,-8,-3,7,3,-1,-6
14:15:53:866526,2,-3,-5,-13,-15,-9,-4,-5
14:15:53:874074,-3,2,6,27,15,6,0,2
14:15:53:881674,-3,2,6,27,15,6,0,2
14:15:53:889045,1,-4,-2,0,-4,-6,-4,-2
14:15:53:896564,-5,2,-9,4,-19,-10,-11,1
14:15:53:904743,-5,2,-9,4,-19,-10,-11,1
14:15:53:905560,0,1,-8,2,5,8,4,1
14:15:53:919776,-2,-5,-4,-5,-3,-3,-4,-3
14:15:53:920566,-2,-5,-4,-5,-3,-3,-4,-3
14:15:53:926490,-4,-6,-16,-28,-37,-18,-5,-1
14:15:53:934084,0,-5,-3,-8,-1,7,-2,2
14:15:53:941600,0,-5,-3,-8,-1,7,-2,2
14:15:53:949049,2,3,2,-30,-23,-14,-9,-7
14:15:53:956571,-3,3,5,2,17,24,8,0
14:15:53:964801,-3,3,5,2,17,24,8,0
14:15:53:965514,0,1,4,5,38,26,4,6
14:15:53:979763,-2,-1,3,-4,-3,-19,-12,0
14:15:53:980555,-2,-1,3,-4,-3,-19,-12,0
14:15:53:986658,-1,-1,0,-11,-23,-13,0,-1
14:15:53:994019,-2,2,1,12,14,7,18,8
14:15:54:1687,-2,2,1,12,14,7,18,8
14:15:54:9031,-1,-2,-10,-5,0,2,-2,0
14:15:54:16551,-1,-2,-2,-6,-27,-19,-14,-9
14:15:54:24729,-1,-2,-2,-6,-27,-19,-14,-9
14:15:54:25558,2,2,1,21,24,15,9,1
14:15:54:39764,-1,-3,-7,-8,-10,-2,-11,-2
14:15:54:40578,-1,-3,-7,-8,-10,-2,-11,-2
14:15:54:46539,-3,-5,-6,19,19,0,-11,-8
14:15:54:54072,-4,-5,-5,12,28,14,4,-6
14:15:54:61601,-4,-5,-5,12,28,14,4,-6
14:15:54:69141,-7,-9,-38,-18,4,0,-8,-13
14:15:54:76496,0,-1,-6,-18,-43,-43,14,5
14:15:54:84808,0,-1,-6,-18,-43,-43,14,5
14:15:54:85561,3,-4,11,15,16,17,50,28
14:15:54:99674,0,5,3,14,13,-3,-6,2
14:15:54:100570,0,5,3,14,13,-3,-6,2
14:15:54:106587,2,0,10,-6,-19,-11,-15,-9
14:15:54:114031,-2,2,1,-11,-28,-19,-16,-6
14:15:54:121596,-2,2,1,-11,-28,-19,-16,-6
14:15:54:129016,-1,4,0,-4,-4,3,-13,-4
14:15:54:136602,0,-4,-10,-23,17,1,10,0
14:15:54:144724,0,-4,-10,-23,17,1,10,0
14:15:54:145492,-4,-3,-1,-15,-44,-3,-26,-13
14:15:54:159708,-4,-2,6,8,-9,8,-4,-9
14:15:54:160482,-4,-2,6,8,-9,8,-4,-9
14:15:54:166509,3,2,19,27,-5,6,0,10
14:15:54:174018,1,-2,2,15,10,12,11,4
14:15:54:181696,1,-2,2,15,10,12,11,4
14:15:54:189033,-1,0,-5,-14,-23,-14,9,0
14:15:54:196569,-3,-1,0,-6,15,13,-3,2
14:15:54:204759,-3,-1,0,-6,15,13,-3,2
14:15:54:205536,-4,0,4,13,38,18,12,-4
14:15:54:219814,3,1,0,-10,-25,-20,-6,-4
14:15:54:220554,3,1,0,-10,-25,-20,-6,-4
14:15:54:226510,-1,0,-14,-28,-3,-13,-10,-4
14:15:54:234060,1,0,3,-7,10,9,-5,-3
14:15:54:241556,1,0,3,-7,10,9,-5,-3
14:15:54:249114,-4,-6,-3,7,19,2,10,2
14:15:54:256575,-3,-7,-14,-17,-9,-32,-23,-2
14:15:54:264903,-3,-7,-14,-17,-9,-32,-23,-2
14:15:54:265558,1,-4,0,-12,2,28,15,1
14:15:54:279798,-2,4,11,-6,-13,18,77,11
14:15:54:280580,-2,4,11,-6,-13,18,77,11
14:15:54:286655,-1,2,1,11,-15,-25,-13,-8
14:15:54:294029,-1,-5,0,14,-4,-21,-39,-8
14:15:54:301667,-1,-5,0,14,-4,-21,-39,-8
14:15:54:309008,-6,-1,-6,28,35,31,9,-2
14:15:54:316540,6,6,9,26,44,24,2,5
14:15:54:324063,6,6,9,26,44,24,2,5
14:15:54:331657,0,-2,13,13,-12,-19,-22,-7
14:15:54:339775,-5,-2,0,-9,-17,26,5,3
14:15:54:340573,-5,-2,0,-9,-17,26,5,3
14:15:54:346566,0,0,1,-11,-7,-30,8,-1
14:15:54:362716,-9,-9,-19,-7,-9,-3,-32,-13
14:15:54:363496,-9,-9,-19,-7,-9,-3,-32,-13
14:15:54:369095,3,6,5,8,13,9,-15,1
14:15:54:376487,4,-1,-2,4,2,1,-31,13
14:15:54:384142,4,-1,-2,4,2,1,-31,13
14:15:54:391567,2,1,0,-1,-7,-16,20,4
14:15:54:399801,1,5,8,-12,-18,-9,2,-7
14:15:54:400538,1,5,8,-12,-18,-9,2,-7
14:15:54:406545,0,-9,-15,-7,-32,-16,-10,0
14:15:54:422247,-3,0,-6,2,32,52,16,1
14:15:54:423057,-3,0,-6,2,32,52,16,1
14:15:54:428973,-2,4,42,7,17,-7,-26,-8
14:15:54:436587,2,0,-7,-14,7,-9,14,-2
14:15:54:444072,2,0,-7,-14,7,-9,14,-2
14:15:54:451579,-3,-5,-17,-11,7,3,14,2
14:15:54:459743,-6,-5,-3,-4,-15,-20,-8,-1
14:15:54:460544,-6,-5,-3,-4,-15,-20,-8,-1
14:15:54:466555,0,1,-5,-1,6,1,12,2
14:15:54:482360,1,-3,-11,10,-5,-13,-20,-9
14:15:54:482988,1,-3,-11,10,-5,-13,-20,-9
14:15:54:489035,-4,-14,-39,-10,-35,-17,-17,0
14:15:54:496553,3,5,8,3,50,15,7,4
14:15:54:504083,3,5,8,3,50,15,7,4
14:15:54:511522,1,4,15,4,-4,9,-7,-4
14:15:54:519820,-3,-5,1,7,-16,-23,4,-2
14:15:54:520570,-3,-5,1,7,-16,-23,4,-2
14:15:54:526496,3,3,-4,4,8,6,4,6
14:15:54:542251,-1,0,6,4,1,10,14,6
14:15:54:543021,-1,0,6,4,1,10,14,6
14:15:54:549031,0,3,3,-9,-6,-5,-7,-5
14:15:54:556545,-1,7,6,-10,-25,-9,-5,-3
14:15:54:564086,-1,7,6,-10,-25,-9,-5,-3
14:15:54:571557,0,-7,-5,-2,24,27,9,6
14:15:54:579704,-1,-1,-4,4,-2,-15,-6,-4
14:15:54:580498,-1,-1,-4,4,-2,-15,-6,-4
14:15:54:586627,-5,-12,-14,-1,8,-1,4,-6
14:15:54:602366,-3,0,16,-1,-16,-3,1,-8
14:15:54:603107,-3,0,16,-1,-16,-3,1,-8
14:15:54:617239,-2,4,18,2,-13,-11,-7,0
14:15:54:617974,-2,-1,4,-20,-14,-14,-4,1
14:15:54:624127,-2,-1,4,-20,-14,-14,-4,1
14:15:54:631645,-1,5,15,15,13,12,-4,-8
14:15:54:639773,-7,-9,-11,-5,-12,2,13,-1
14:15:54:640579,-7,-9,-11,-5,-12,2,13,-1
14:15:54:646536,-2,12,14,0,7,-2,-14,-7
14:15:54:670428,0,-3,-51,0,10,-2,-10,-7
14:15:54:671200,0,-3,-51,0,10,-2,-10,-7
14:15:54:672010,-1,-5,2,-14,-2,-1,12,-1
14:15:54:676506,0,-4,-1,13,21,12,9,4
14:15:54:684156,0,-4,-1,13,21,12,9,4
14:15:54:691562,-1,3,18,-8,-15,-8,-8,1
14:15:54:699805,-5,-9,-13,-24,-5,5,-4,-1
14:15:54:700535,-5,-9,-13,-24,-5,5,-4,-1
14:15:54:706559,3,0,-10,8,16,21,14,5
14:15:54:722247,-2,-1,-12,7,-6,-8,-8,-5
14:15:54:723040,-2,-1,-12,7,-6,-8,-8,-5
14:15:54:728981,-3,-1,-21,1,-13,-9,-7,1
14:15:54:736607,6,5,18,7,14,4,10,1
14:15:54:744077,6,5,18,7,14,4,10,1
14:15:54:751626,-6,-4,-12,-9,-9,-14,-1,-4
14:15:54:759717,1,-9,-8,-3,13,6,12,9
14:15:54:760521,1,-9,-8,-3,13,6,12,9
14:15:54:766578,-1,-6,-20,-1,4,1,-8,1
14:15:54:782356,-3,-2,-1,-11,-18,-10,-12,-7
14:15:54:783033,-3,-2,-1,-11,-18,-10,-12,-7
14:15:54:789058,2,0,11,6,15,26,65,15
14:15:54:796567,0,-1,-15,8,1,8,-18,-6
14:15:54:804130,0,-1,-15,8,1,8,-18,-6
14:15:54:811529,-4,-4,-6,-20,-53,-21,-21,-6
14:15:54:819754,4,4,15,26,21,31,13,9
14:15:54:820530,4,4,15,26,21,31,13,9
14:15:54:826507,5,3,3,-4,8,-5,3,0
14:15:54:842253,-3,6,30,-9,-24,-12,-21,-9
14:15:54:843021,-3,6,30,-9,-24,-12,-21,-9
14:15:54:849062,-3,-2,-13,-11,-35,-30,-13,-2
14:15:54:856549,-3,-2,10,7,15,6,0,-2
14:15:54:864082,-3,-2,10,7,15,6,0,-2
14:15:54:871575,-2,-9,3,-1,1,-6,0,-4
14:15:54:879740,1,0,10,-2,-4,-6,5,-6
14:15:54:880532,1,0,10,-2,-4,-6,5,-6
14:15:54:886605,-4,1,8,1,-6,-3,-37,-9
14:15:54:902267,-2,2,6,4,-6,7,8,3
14:15:54:902992,-2,2,6,4,-6,7,8,3
14:15:54:909031,2,5,16,22,31,-2,4,4
14:15:54:916527,-6,-12,-16,-4,3,-1,-9,-9
14:15:54:924081,-6,-12,-16,-4,3,-1,-9,-9
14:15:54:931633,-3,-3,-40,7,1,-2,-3,-4
14:15:54:939751,0,1,-12,-6,-13,-7,10,4
14:15:54:940538,0,1,-12,-6,-13,-7,10,4
14:15:54:946571,-4,-7,-6,-2,24,-1,6,0
14:15:54:962227,2,-5,-20,-5,7,1,12,5
14:15:54:963004,2,-5,-20,-5,7,1,12,5
14:15:54:969087,2,0,-7,2,12,4,16,-7
14:15:54:976510,-5,2,-4,-26,-28,-20,4,-1
14:15:54:984116,-5,2,-4,-26,-28,-20,4,-1
14:15:54:991547,-4,-9,-5,-5,-11,-14,-17,-5
14:15:54:999790,2,-4,-24,-3,-17,-6,-9,-5
14:15:55:573,2,-4,-24,-3,-17,-6,-9,-5
14:15:55:14024,1,-2,2,-2,0,20,-2,5
14:15:55:22223,4,4,18,-10,-8,-7,1,-1
14:15:55:23022,4,4,18,-10,-8,-7,1,-1
14:15:55:28992,0,6,62,6,17,16,-2,2
14:15:55:36619,-2,3,8,3,-6,-4,-2,1
14:15:55:44088,-2,3,8,3,-6,-4,-2,1
14:15:55:51621,-8,-5,15,2,-10,7,-6,-2
14:15:55:59661,-1,1,9,13,-2,-27,-38,-1
14:15:55:60487,-1,1,9,13,-2,-27,-38,-1
14:15:55:66579,9,7,-3,1,17,24,13,8
14:15:55:82361,-7,-4,-2,5,-10,12,-11,-5
14:15:55:83034,-7,-4,-2,5,-10,12,-11,-5
14:15:55:89052,-2,-3,-22,17,49,-7,8,3
14:15:55:96547,-2,-11,-9,4,41,40,13,3
14:15:55:104149,-2,-11,-9,4,41,40,13,3
14:15:55:111517,-5,-7,-17,-25,-40,-18,-3,-6
14:15:55:119778,6,11,24,0,-6,-24,-9,-6
14:15:55:120551,6,11,24,0,-6,-24,-9,-6
14:15:55:126493,3,0,-7,-11,-19,-1,-3,0
14:15:55:142211,-3,-2,10,-6,-7,-1,3,-1
14:15:55:142961,-3,-2,10,-6,-7,-1,3,-1
14:15:55:149100,-1,1,9,3,-11,-3,-17,-3
14:15:55:156568,-3,-3,-28,-15,-4,-5,13,12
14:15:55:164060,-3,-3,-28,-15,-4,-5,13,12
14:15:55:171549,-3,2,-14,-5,-9,-5,-14,2
14:15:55:179744,-3,2,-14,-5,-9,-5,-14,2
14:15:55:180484,21,0,-8,-4,-12,-22,-26,-1
14:15:55:186629,3,1,11,0,9,21,11,4
14:15:55:202329,3,1,11,0,9,21,11,4
14:15:55:203041,5,10,12,-1,-1,1,-4,-4
14:15:55:208980,-11,-5,4,-7,-5,-53,-6,-12
14:15:55:224741,-11,-5,4,-7,-5,-53,-6,-12
14:15:55:225517,-10,-11,-7,6,15,-1,10,-4
14:15:55:231633,-3,6,7,0,5,15,2,-6
14:15:55:239727,-3,6,7,0,5,15,2,-6
14:15:55:240527,-3,2,7,10,27,3,-9,-1
14:15:55:254103,6,4,-12,-21,-40,-10,-13,1
14:15:55:262214,6,4,-12,-21,-40,-10,-13,1
14:15:55:262958,-9,5,7,6,-7,21,2,-1
14:15:55:269115,7,12,30,13,-2,-3,1,2
14:15:55:284847,7,12,30,13,-2,-3,1,2
14:15:55:285578,-6,-12,-46,-13,-14,-12,-1,0
14:15:55:291554,-3,-4,-9,-1,7,15,16,3
14:15:55:299748,-3,-4,-9,-1,7,15,16,3
14:15:55:300521,1,-6,-11,-13,-16,-8,-11,-5
14:15:55:314078,-4,0,6,-1,42,33,6,-2
14:15:55:322297,-4,0,6,-1,42,33,6,-2
14:15:55:323023,-5,0,23,10,17,14,19,-3
14:15:55:329043,6,-6,-9,20,12,-3,2,-2
14:15:55:345175,6,-6,-9,20,12,-3,2,-2
14:15:55:352294,0,-5,-13,-15,2,3,6,2
14:15:55:353004,-1,0,-10,-7,-13,-10,-4,0
14:15:55:359688,-1,0,-10,-7,-13,-10,-4,0
14:15:55:360513,1,6,41,6,-10,-12,-7,-2
14:15:55:374065,-3,-8,-17,-2,-9,-6,-11,-6
14:15:55:382367,-3,-8,-17,-2,-9,-6,-11,-6
14:15:55:383075,-1,8,16,3,2,14,8,5
14:15:55:389100,-3,-2,11,4,-4,-10,-6,0
14:15:55:404803,-3,-2,11,4,-4,-10,-6,0
14:15:55:405571,0,-3,2,5,16,15,3,-1
14:15:55:411515,-3,-15,-76,-17,-20,-15,-9,-4
14:15:55:419890,-3,-15,-76,-17,-20,-15,-9,-4
14:15:55:420618,-3,0,-13,-15,-29,-29,-18,-8
14:15:55:434109,2,1,8,22,29,31,-3,-4
14:15:55:442268,2,1,8,22,29,31,-3,-4
14:15:55:443039,-2,0,-9,-7,-18,-7,-23,-11
14:15:55:449088,-6,4,36,6,7,2,1,1
14:15:55:464814,-6,4,36,6,7,2,1,1
14:15:55:465569,3,3,17,13,10,6,3,6
14:15:55:471594,4,-1,1,-6,-16,-11,-5,-3
14:15:55:479747,4,-1,1,-6,-16,-11,-5,-3
14:15:55:480602,-3,-3,14,22,9,-7,1,-3
14:15:55:493965,-3,1,3,-5,-2,3,12,2
14:15:55:502341,-3,1,3,-5,-2,3,12,2
14:15:55:503019,-2,4,0,6,2,-16,-2,-1
14:15:55:509024,2,7,4,-8,-7,-2,1,0
14:15:55:524772,2,7,4,-8,-7,-2,1,0
14:15:55:525558,3,5,26,-17,-25,-16,1,0
14:15:55:531667,-1,4,17,-8,-4,6,-4,5
14:15:55:539769,-1,4,17,-8,-4,6,-4,5
14:15:55:540559,-1,-1,-2,-3,5,14,17,2
14:15:55:554117,-3,-7,-11,-7,-26,-23,1,2
14:15:55:562255,-3,-7,-11,-7,-26,-23,1,2
14:15:55:563028,-4,-12,-39,-4,18,2,4,3
14:15:55:569104,5,0,-7,-13,-13,-8,11,3
14:15:55:584857,5,0,-7,-13,-13,-8,11,3
14:15:55:585553,0,1,14,11,14,-5,9,-1
14:15:55:591553,2,-1,16,23,21,7,-5,-3
14:15:55:599759,2,-1,16,23,21,7,-5,-3
14:15:55:600559,-5,-15,-43,-14,-16,0,-9,-7
14:15:55:614112,-5,-10,-35,-10,-15,-15,-9,-2
14:15:55:622258,-5,-10,-35,-10,-15,-15,-9,-2
14:15:55:623058,1,4,-21,8,10,12,-4,-1
14:15:55:628972,-3,-13,-26,-3,7,1,11,-1
14:15:55:644728,-3,-13,-26,-3,7,1,11,-1
14:15:55:645517,3,-1,-1,8,24,16,6,3
14:15:55:651674,-3,2,4,-5,6,-2,-15,-4
14:15:55:659699,-3,2,4,-5,6,-2,-15,-4
14:15:55:660514,-10,2,38,-5,-13,7,1,-10
14:15:55:674113,-3,-3,-4,-17,-2,-1,-1,1
14:15:55:682256,-3,-3,-4,-17,-2,-1,-1,1
14:15:55:682976,0,-4,-39,-7,-10,-11,0,3
14:15:55:689046,-2,-10,-7,6,-5,0,-2,-3
14:15:55:704777,-2,-10,-7,6,-5,0,-2,-3
14:15:55:705515,4,8,7,-3,-11,1,14,5
14:15:55:711523,0,-6,-37,-1,0,-4,-2,-1
14:15:55:719809,0,-6,-37,-1,0,-4,-2,-1
14:15:55:720539,-3,-3,41,-7,-6,0,0,-2
14:15:55:734090,3,5,16,-1,-6,-3,-1,-4
14:15:55:742259,3,5,16,-1,-6,-3,-1,-4
14:15:55:742964,1,6,8,2,-12,-8,-8,1
14:15:55:749083,-4,5,5,6,12,2,-1,-2
14:15:55:764767,-4,5,5,6,12,2,-1,-2
14:15:55:765503,-6,-25,-47,-11,0,-7,5,-2
14:15:55:771507,-2,-6,-18,-6,0,18,-1,1
14:15:55:779715,-2,-6,-18,-6,0,18,-1,1
14:15:55:780533,2,9,67,2,-20,-4,-13,-1
14:15:55:794011,-3,1,14,-21,8,7,3,1
14:15:55:802247,-3,1,14,-21,8,7,3,1
14:15:55:803009,-1,5,4,-1,8,-27,-14,-5
14:15:55:809047,5,14,51,13,2,22,0,4
14:15:55:832904,5,14,51,13,2,22,0,4
14:15:55:833666,-7,-3,-44,20,11,13,12,1
14:15:55:834529,3,0,14,20,5,-1,4,0
14:15:55:839758,3,0,14,20,5,-1,4,0
14:15:55:840536,5,1,20,3,-3,8,15,1
14:15:55:854069,-7,-13,-24,-21,-8,-18,-16,-10
14:15:55:862287,-7,-13,-24,-21,-8,-18,-16,-10
14:15:55:863041,2,8,4,14,-21,-16,-20,-4
14:15:55:869157,-3,-11,-27,-8,-16,-5,21,2
14:15:55:884788,-3,-11,-27,-8,-16,-5,21,2
14:15:55:885557,-10,-18,-25,-30,-11,-5,9,-3
14:15:55:891540,-1,6,-8,14,16,-2,-5,2
14:15:55:899606,-1,6,-8,14,16,-2,-5,2
14:15:55:906539,1,-5,-44,-1,10,-4,-13,-6
14:15:55:914006,-9,-6,-4,5,-9,-28,-15,-7
14:15:55:922232,-9,-6,-4,5,-9,-28,-15,-7
14:15:55:923016,7,12,26,15,48,31,7,8
14:15:55:929024,5,-5,-5,1,-12,8,-4,-1
14:15:55:945197,5,-5,-5,1,-12,8,-4,-1
14:15:55:945978,-3,-8,32,6,-5,2,4,-5
14:15:55:951596,-7,0,11,-4,-12,-3,-8,-3
14:15:55:959738,-7,0,11,-4,-12,-3,-8,-3
14:15:55:960504,-3,-5,-33,-8,1,0,-3,3
14:15:55:974031,-2,-2,-1,-14,-2,-1,2,-1
14:15:55:982333,-2,-2,-1,-14,-2,-1,2,-1
14:15:55:983031,-3,-2,-9,12,7,6,4,0
14:15:55:989041,5,8,-5,3,-4,0,0,-5
14:15:56:4723,5,8,-5,3,-4,0,0,-5
14:15:56:5512,-4,-16,-18,-28,-28,-24,-13,-8
14:15:56:11515,6,5,17,25,33,30,4,6
14:15:56:19789,6,5,17,25,33,30,4,6
14:15:56:20582,1,1,-4,-1,-6,6,14,1
14:15:56:34147,-1,-1,-36,-1,-2,-7,-9,1
14:15:56:42239,-1,-1,-36,-1,-2,-7,-9,1
14:15:56:43005,-3,-10,-37,-2,-1,-16,-8,-5
14:15:56:49053,0,8,15,-5,-5,3,9,-2
14:15:56:64868,0,8,15,-5,-5,3,9,-2
14:15:56:65564,2,10,22,-24,-8,11,1,3
14:15:56:71610,-2,-15,-18,-17,-16,-11,-9,-2
14:15:56:79779,-2,-15,-18,-17,-16,-11,-9,-2
14:15:56:80555,-2,8,-10,11,-7,-5,-1,-1
14:15:56:94070,-3,-1,-1,-5,2,-11,2,-1
14:15:56:102303,-3,-1,-1,-5,2,-11,2,-1
14:15:56:102994,-1,-2,-2,6,-3,-17,-9,-5
14:15:56:108994,-1,3,17,10,1,0,7,5
14:15:56:124754,-1,3,17,10,1,0,7,5
14:15:56:125551,-1,1,12,6,2,3,-3,-1
14:15:56:131651,1,2,15,0,15,12,-3,0
14:15:56:139787,1,2,15,0,15,12,-3,0
14:15:56:140551,-4,-9,-6,-12,-9,-12,-3,-8
14:15:56:154158,1,0,-10,-14,-1,6,2,-4
14:15:56:162218,1,0,-10,-14,-1,6,2,-4
14:15:56:163054,-2,-14,-55,-2,2,-12,-15,-7
14:15:56:169165,-2,10,36,6,-12,0,8,2
14:15:56:184810,-2,10,36,6,-12,0,8,2
14:15:56:185540,0,11,39,23,12,-2,-14,2
14:15:56:191551,2,0,0,7,15,3,1,-2
14:15:56:199099,2,0,0,7,15,3,1,-2
14:15:56:206571,4,-2,-3,-10,6,11,4,6
14:15:56:214124,-3,2,-9,-6,-9,-8,-5,-5
14:15:56:222247,-3,2,-9,-6,-9,-8,-5,-5
14:15:56:223002,3,5,-1,-2,2,7,8,1
14:15:56:236615,-1,-17,-17,-2,-17,-17,-13,-2
14:15:56:244737,-1,-17,-17,-2,-17,-17,-13,-2
14:15:56:245500,-4,-1,27,-6,14,11,12,-1
14:15:56:251626,-3,0,-6,-1,4,6,0,-2
14:15:56:259112,-3,0,-6,-1,4,6,0,-2
14:15:56:266542,-2,-11,-40,-9,-19,-9,-4,-2
14:15:56:274041,-1,1,-16,1,3,-16,-1,4
14:15:56:282333,-1,1,-16,1,3,-16,-1,4
14:15:56:283047,2,10,10,-1,1,7,6,3
14:15:56:296550,-3,-4,-44,-6,-13,-7,-10,-3
14:15:56:304807,-3,-4,-44,-6,-13,-7,-10,-3
14:15:56:305583,6,9,20,10,22,9,7,4
14:15:56:311592,-2,7,24,9,0,2,7,-2
14:15:56:319189,-2,7,24,9,0,2,7,-2
14:15:56:326520,-9,-21,-17,-42,-28,-14,-16,-8
14:15:56:334137,-2,-7,18,4,9,10,-1,-2
14:15:56:342268,-2,-7,18,4,9,10,-1,-2
14:15:56:342993,3,10,44,17,2,1,5,5
14:15:56:356605,0,6,26,-10,-12,-6,-13,-3
14:15:56:364917,0,6,26,-10,-12,-6,-13,-3
14:15:56:365567,-1,-3,12,-7,-8,0,-3,-6
14:15:56:371608,0,6,25,-1,0,-8,-3,-8
14:15:56:379096,0,6,25,-1,0,-8,-3,-8
14:15:56:386633,-1,-4,-2,-18,-11,-3,-2,-2
14:15:56:394001,-1,-1,0,17,26,14,14,2
14:15:56:402356,-1,-1,0,17,26,14,14,2
14:15:56:402993,2,14,25,23,11,8,9,5
14:15:56:416585,-1,2,2,-4,-28,-7,-12,-4
14:15:56:424771,-1,2,2,-4,-28,-7,-12,-4
14:15:56:425553,0,8,25,3,8,6,-3,0
14:15:56:431654,9,9,83,14,8,-4,2,4
14:15:56:439076,9,9,83,14,8,-4,2,4
14:15:56:446577,2,11,54,26,4,8,-4,1
14:15:56:454070,-29,-61,-125,-53,8,6,22,-3
14:15:56:462260,-29,-61,-125,-53,8,6,22,-3
14:15:56:463025,18,40,40,34,19,1,14,8
14:15:56:476523,6,26,44,4,-29,-10,-6,-3
14:15:56:484786,6,26,44,4,-29,-10,-6,-3
14:15:56:485547,3,7,17,22,21,20,3,6
14:15:56:491589,5,1,-27,2,18,2,8,16
14:15:56:499113,5,1,-27,2,18,2,8,16
14:15:56:506583,2,-7,-43,0,-12,2,-3,-3
14:15:56:514080,-3,-12,-11,-16,-14,-5,-11,-8
14:15:56:522256,-3,-12,-11,-16,-14,-5,-11,-8
14:15:56:523008,-5,-7,15,-9,-4,-5,-4,-3
14:15:56:536640,1,14,33,-5,-10,-1,-4,-2
14:15:56:544744,1,14,33,-5,-10,-1,-4,-2
14:15:56:545510,-16,-35,-52,-4,-7,-31,-17,-12
14:15:56:551620,3,7,13,7,34,42,18,2
14:15:56:559106,3,7,13,7,34,42,18,2
14:15:56:566552,-13,-23,-45,-33,13,2,2,-2
14:15:56:574035,1,7,18,33,2,-4,-7,-1
14:15:56:582300,1,7,18,33,2,-4,-7,-1
14:15:56:583061,-2,1,32,1,-13,-1,7,-2
14:15:56:596593,2,-2,-24,-3,-1,-7,-6,-2
14:15:56:604768,2,-2,-24,-3,-1,-7,-6,-2
14:15:56:605530,4,8,11,2,-6,-5,-3,-2
14:15:56:611530,-2,-2,-22,16,-11,-11,-2,-2
14:15:56:619118,-2,-2,-22,16,-11,-11,-2,-2
14:15:56:626519,-6,-7,-40,-23,-9,-4,-5,-3
14:15:56:634071,1,-1,22,10,8,-9,-3,-1
14:15:56:642285,1,-1,22,10,8,-9,-3,-1
14:15:56:643019,0,-8,-27,-12,-10,-3,-2,-5
14:15:56:656607,-2,-15,-20,-25,-9,-22,-20,-3
14:15:56:664890,-2,-15,-20,-25,-9,-22,-20,-3
14:15:56:665590,-2,6,-25,-9,2,26,8,-1
14:15:56:671606,-2,-6,-28,3,-18,-14,-10,-5
14:15:56:679114,-2,-6,-28,3,-18,-14,-10,-5
14:15:56:686635,2,5,30,4,17,15,6,-2
14:15:56:693997,1,-2,-24,1,-7,0,-9,-2
14:15:56:702280,1,-2,-24,1,-7,0,-9,-2
14:15:56:702971,-4,-2,-19,-9,-10,-20,-2,2
14:15:56:716538,-2,9,69,4,1,-5,3,-1
14:15:56:724743,-2,9,69,4,1,-5,3,-1
14:15:56:725549,2,-4,-22,8,-4,0,-5,-2
14:15:56:731912,3,1,-26,-30,-15,2,3,-1
14:15:56:739076,3,1,-26,-30,-15,2,3,-1
14:15:56:754668,-1,-8,5,1,-18,-7,-6,-3
14:15:56:755540,-4,-1,-21,14,7,1,0,1
14:15:56:762244,-4,-1,-21,14,7,1,0,1
14:15:56:763036,-1,-9,3,18,-8,-14,-2,-7
14:15:56:776563,-9,-11,-13,0,-2,-24,10,-10
14:15:56:784802,-9,-11,-13,0,-2,-24,10,-10
14:15:56:785523,6,18,13,0,12,18,10,14
14:15:56:791541,2,1,-1,-24,-16,-3,-9,-6
14:15:56:799151,2,1,-1,-24,-16,-3,-9,-6
14:15:56:806563,1,-11,-38,2,-2,-7,5,-1
14:15:56:814053,0,-6,-40,-8,-7,1,-8,-6
14:15:56:822044,0,-6,-40,-8,-7,1,-8,-6
14:15:56:829065,-1,-4,-28,-9,5,7,-2,0
14:15:56:836589,-9,7,17,-3,2,3,2,10
14:15:56:844720,-9,7,17,-3,2,3,2,10
14:15:56:845528,-9,-27,-43,0,-1,-10,-8,-3
14:15:56:851631,11,15,-6,23,12,13,5,10
14:15:56:859073,11,15,-6,23,12,13,5,10
14:15:56:866585,-9,-5,19,-42,-51,-43,-24,-5
14:15:56:873997,4,-3,-51,20,57,62,23,8
14:15:56:882288,4,-3,-51,20,57,62,23,8
14:15:56:883008,16,-2,-2,3,-1,4,-9,6
14:15:56:896573,2,-7,13,3,-12,-22,-25,-16
14:15:56:904793,2,-7,13,3,-12,-22,-25,-16
14:15:56:905561,-3,8,0,-7,-9,-2,-5,1
14:15:56:911539,2,-3,22,-3,-7,-7,-4,-3
14:15:56:919189,2,-3,22,-3,-7,-7,-4,-3
14:15:56:926532,-5,5,-10,15,15,5,1,-1
14:15:56:934084,-16,-10,-29,-14,-6,2,2,-5
14:15:56:942301,-16,-10,-29,-14,-6,2,2,-5
14:15:56:943029,1,7,25,14,12,3,7,2
14:15:56:956544,-3,-13,-12,-5,-15,-15,-3,1
14:15:56:964828,-3,-13,-12,-5,-15,-15,-3,1
14:15:56:965522,-5,4,11,-15,-4,0,-2,-4
14:15:56:971568,-1,5,32,-3,-11,-31,-4,0
14:15:56:979115,-1,5,32,-3,-11,-31,-4,0
14:15:56:986616,-4,-15,-10,-4,7,18,5,-9
14:15:56:993995,8,5,2,6,-6,5,-2,6
14:15:57:2263,8,5,2,6,-6,5,-2,6
14:15:57:3044,6,9,17,-13,-3,-13,-10,-1
14:15:57:16568,-19,-9,8,3,-6,-3,0,-2
14:15:57:32934,-19,-9,8,3,-6,-3,0,-2
14:15:57:33681,-13,-13,-32,2,-3,0,-5,-11
14:15:57:34546,7,16,54,48,21,15,3,-7
14:15:57:39098,7,16,54,48,21,15,3,-7
14:15:57:46586,-2,-12,-60,25,10,0,3,-10
14:15:57:54090,7,-3,19,-16,1,-3,8,9
14:15:57:62261,7,-3,19,-16,1,-3,8,9
14:15:57:63053,-4,10,21,2,6,5,3,0
14:15:57:76556,10,13,11,-8,-6,-8,6,36
14:15:57:84829,10,13,11,-8,-6,-8,6,36
14:15:57:85525,9,17,46,27,29,5,10,15
14:15:57:91561,4,7,28,-5,9,7,7,-4
14:15:57:107250,4,7,28,-5,9,7,7,-4
14:15:57:108017,3,-2,10,-26,-22,-8,11,41
14:15:57:114035,-5,-10,-10,-9,-8,-4,-14,-9
14:15:57:122311,-5,-10,-10,-9,-8,-4,-14,-9
14:15:57:123056,-3,-21,-35,-14,-14,2,-9,-18
14:15:57:136663,-10,5,20,-15,-3,5,7,-13
14:15:57:144747,-10,5,20,-15,-3,5,7,-13
14:15:57:145529,0,24,29,-25,-2,-1,3,0
14:15:57:159696,-1,-7,-12,-4,-16,-2,1,-16
14:15:57:160526,-1,-7,-12,-4,-16,-2,1,-16
14:15:57:166620,8,11,21,14,11,3,-3,-14
14:15:57:174047,36,13,-2,-3,9,8,2,24
14:15:57:181634,36,13,-2,-3,9,8,2,24
14:15:57:189069,-14,-71,-16,-1,-1,-9,-29,-50
14:15:57:196596,-3,19,-15,-4,-1,-8,-8,11
14:15:57:204780,-3,19,-15,-4,-1,-8,-8,11
14:15:57:205555,-29,-17,29,-3,-11,-12,20,27
14:15:57:219830,-11,44,54,-11,-7,2,-1,2
14:15:57:220519,-11,44,54,-11,-7,2,-1,2
14:15:57:226543,-25,-8,-50,-10,-9,-10,-15,-22
14:15:57:234093,-15,-50,-42,-5,6,0,1,-15
14:15:57:241647,-15,-50,-42,-5,6,0,1,-15
14:15:57:249038,5,47,44,20,6,8,11,3
14:15:57:256559,53,33,-29,30,47,14,5,45
14:15:57:264806,53,33,-29,30,47,14,5,45
14:15:57:265510,9,-5,51,6,3,5,-5,-22
14:15:57:279700,-25,17,-78,-37,-33,-25,-19,-14
14:15:57:280523,-25,17,-78,-37,-33,-25,-19,-14
14:15:57:286613,46,-84,-59,4,23,17,15,57
14:15:57:294003,-11,-12,4,18,-12,-5,-3,-11
14:15:57:301605,-11,-12,4,18,-12,-5,-3,-11
14:15:57:309045,21,36,-7,6,-12,3,-7,25
14:15:57:316566,-10,-10,8,-19,-4,1,1,-32
14:15:57:324776,-10,-10,8,-19,-4,1,1,-32
14:15:57:325563,-7,18,35,10,4,2,8,-2
14:15:57:339730,-7,-10,36,5,-10,-2,-5,-10
14:15:57:340564,-7,-10,36,5,-10,-2,-5,-10
14:15:57:346576,-15,1,-65,-20,-2,-4,-8,-8
14:15:57:354132,-9,-16,18,12,-14,-8,0,0
14:15:57:361525,-9,-16,18,12,-14,-8,0,0
14:15:57:369103,-3,24,-16,-18,3,-4,7,13
14:15:57:376531,17,-15,-50,-13,-7,-6,-20,-73
14:15:57:384793,17,-15,-50,-13,-7,-6,-20,-73
14:15:57:385605,58,97,65,10,-11,-11,-15,-42
14:15:57:399733,-33,-24,7,8,13,9,4,17
14:15:57:400545,-33,-24,7,8,13,9,4,17
14:15:57:406608,-11,23,33,10,-17,-21,-4,20
14:15:57:414033,2,-15,4,23,28,7,14,4
14:15:57:421613,2,-15,4,23,28,7,14,4
14:15:57:429033,-17,-31,-34,-21,-6,2,0,8
14:15:57:436668,-9,-6,-29,10,-16,-30,-23,3
14:15:57:444733,-9,-6,-29,10,-16,-30,-23,3
14:15:57:445542,8,11,55,16,15,25,16,0
14:15:57:459707,-17,-22,-11,14,25,36,8,6
14:15:57:460527,-17,-22,-11,14,25,36,8,6
14:15:57:466577,-48,-128,-45,15,-18,-29,-24,-42
14:15:57:474006,-1,-1,19,10,25,-1,24,18
14:15:57:481684,-1,-1,19,10,25,-1,24,18
14:15:57:489080,-39,-54,-13,-16,5,5,-3,4
14:15:57:496613,7,6,3,-41,-39,-17,-5,4
14:15:57:504809,7,6,3,-41,-39,-17,-5,4
14:15:57:505560,18,20,9,-2,22,13,-3,7
14:15:57:519840,-11,-25,-8,-18,-15,3,0,-3
14:15:57:520570,-11,-25,-8,-18,-15,3,0,-3
14:15:57:526552,43,83,94,4,5,41,39,21
14:15:57:534133,10,36,1,37,65,45,23,5
14:15:57:541633,10,36,1,37,65,45,23,5
14:15:57:549084,-14,19,-11,-3,12,17,0,-4
14:15:57:556541,-9,31,-2,-6,-15,-20,-22,-34
14:15:57:564760,-9,31,-2,-6,-15,-20,-22,-34
14:15:57:565519,-2,11,-14,11,-9,-22,-9,7
14:15:57:587927,38,28,10,-41,-40,-22,-11,32
14:15:57:588709,38,28,10,-41,-40,-22,-11,32
14:15:57:589519,-5,-2,-45,-6,-10,-17,-7,-4
14:15:57:593981,-26,-62,7,14,20,20,1,-34
14:15:57:601647,-26,-62,7,14,20,20,1,-34
14:15:57:609033,-19,-39,7,13,2,-30,-2,-1
14:15:57:616561,4,36,12,13,-14,-16,-7,12
14:15:57:624780,4,36,12,13,-14,-16,-7,12
14:15:57:625564,-1,13,-47,-20,-24,-8,-8,-7
14:15:57:639757,33,15,-8,-13,-9,5,3,9
14:15:57:640530,33,15,-8,-13,-9,5,3,9
14:15:57:646567,27,77,10,-48,-20,-5,-11,-7
14:15:57:654142,-4,-84,9,1,-1,-5,20,30
14:15:57:661589,-4,-84,9,1,-1,-5,20,30
14:15:57:669062,-5,-31,9,10,7,3,11,-13
14:15:57:677170,-15,11,-16,-14,-12,-16,-24,-46
14:15:57:677993,-15,11,-16,-14,-12,-16,-24,-46
14:15:57:684102,1,10,18,19,36,-24,-10,13
14:15:57:699727,17,38,-24,-11,-8,-9,3,13
14:15:57:700531,17,38,-24,-11,-8,-9,3,13
14:15:57:706578,-10,-19,-11,31,-8,8,-4,-7
14:15:57:714044,-5,19,-26,8,12,1,-7,-4
14:15:57:721573,-5,19,-26,8,12,1,-7,-4
14:15:57:728992,-32,-6,-1,-14,-9,-2,-13,-22
14:15:57:736661,3,-14,8,0,8,28,18,9
14:15:57:744728,3,-14,8,0,8,28,18,9
14:15:57:745509,-5,-9,-65,-12,45,5,6,13
14:15:57:759652,-1,-21,-13,15,29,5,-3,5
14:15:57:760541,-1,-21,-13,15,29,5,-3,5
14:15:57:766535,4,-13,20,12,16,0,-11,-7
14:15:57:774071,6,12,7,-2,6,-4,9,18
14:15:57:781626,6,12,7,-2,6,-4,9,18
14:15:57:789053,-4,14,38,-6,-37,-15,-55,-19
14:15:57:796554,-15,-23,9,-24,-47,-12,-4,-23
14:15:57:804792,-15,-23,9,-24,-47,-12,-4,-23
14:15:57:805563,21,34,13,1,14,12,22,12
14:15:57:819765,19,34,25,-2,35,30,2,8
14:15:57:820549,19,34,25,-2,35,30,2,8
14:15:57:826506,3,-10,6,-12,-31,-3,-5,1
14:15:57:834042,-13,8,29,-19,-45,-19,2,-3
14:15:57:841586,-13,8,29,-19,-45,-19,2,-3
14:15:57:849060,-4,-19,-10,2,-2,-5,11,3
14:15:57:865455,-24,-43,-18,-13,-24,-10,-17,-35
14:15:57:866173,-24,-43,-18,-13,-24,-10,-17,-35
14:15:57:866967,-12,-50,6,9,19,33,11,9
14:15:57:887920,-2,-3,25,4,-45,-22,-8,21
14:15:57:888718,-2,-3,25,4,-45,-22,-8,21
14:15:57:889514,0,-17,-41,-10,-15,20,20,-1
14:15:57:894020,10,56,47,-3,17,24,26,30
14:15:57:901656,10,56,47,-3,17,24,26,30
14:15:57:909026,-2,17,20,2,-30,-33,-21,-32
14:15:57:917199,2,28,-42,5,-23,-28,-17,-19
14:15:57:918028,2,28,-42,5,-23,-28,-17,-19
14:15:57:923947,-2,1,22,10,10,16,22,-2
14:15:57:939667,28,41,-3,-26,-16,-12,-23,-18
14:15:57:940544,28,41,-3,-26,-16,-12,-23,-18
14:15:57:946601,-1,-2,-45,-41,1,-24,-8,7
14:15:57:954120,-5,-5,5,21,55,46,31,8
14:15:57:961580,-5,-5,5,21,55,46,31,8
14:15:57:969047,-5,-31,-9,-32,-46,-23,-9,-4
14:15:57:976459,-16,-30,-1,-24,-7,-26,-20,-13
14:15:57:984848,-16,-30,-1,-24,-7,-26,-20,-13
14:15:57:985567,4,1,-18,30,24,19,8,3
14:15:57:999757,-18,-56,-17,-16,-45,-39,-1,13
14:15:58:623,-18,-56,-17,-16,-45,-39,-1,13
14:15:58:6546,1,26,-18,-3,17,38,24,3
14:15:58:30416,-10,-17,25,23,37,45,23,18
14:15:58:31180,-10,-17,25,23,37,45,23,18
14:15:58:32064,-16,-9,1,3,6,15,-35,-75
14:15:58:36643,2,6,5,30,23,14,17,-3
14:15:58:44740,2,6,5,30,23,14,17,-3
14:15:58:45518,2,-35,-4,12,12,14,23,24
14:15:58:59757,-11,-27,-22,2,0,-31,-23,-18
14:15:58:60541,-11,-27,-22,2,0,-31,-23,-18
14:15:58:66564,9,25,1,-16,-21,-2,7,7
14:15:58:74042,13,-2,-31,13,31,-26,-3,6
14:15:58:81678,13,-2,-31,13,31,-26,-3,6
14:15:58:89034,9,30,13,-24,-20,29,18,4
14:15:58:96578,-8,-15,-20,-20,-30,13,-4,1
14:15:58:104074,-8,-15,-20,-20,-30,13,-4,1
14:15:58:111552,14,32,15,-5,-18,-50,-21,8
14:15:58:119522,-9,-21,-17,5,-1,-3,-17,6
14:15:58:127190,-9,-21,-17,5,-1,-3,-17,6
14:15:58:127997,-14,-7,12,-20,-9,12,-6,15
14:15:58:142221,-6,-14,-37,-13,10,1,7,4
14:15:58:142979,-6,-14,-37,-13,10,1,7,4
14:15:58:149060,9,6,17,23,37,9,9,0
14:15:58:156629,-2,-13,38,19,12,22,-5,-17
14:15:58:164098,-2,-13,38,19,12,22,-5,-17
14:15:58:171515,-16,-16,24,12,25,-10,-8,1
14:15:58:179739,-14,-3,-19,-10,-35,-27,-10,-4
14:15:58:180551,-14,-3,-19,-10,-35,-27,-10,-4
14:15:58:194042,3,12,-7,-35,-41,-34,-5,3
14:15:58:202313,7,18,25,13,10,7,-6,-13
14:15:58:203008,7,18,25,13,10,7,-6,-13
14:15:58:208978,2,-12,-25,-1,-3,-9,2,-5
14:15:58:217254,0,16,-2,-36,-21,0,-3,6
14:15:58:218023,0,16,-2,-36,-21,0,-3,6
14:15:58:231620,-9,-21,7,21,40,32,-4,-10
14:15:58:239744,-1,-2,8,-6,3,6,-8,-1
14:15:58:240560,-1,-2,8,-6,3,6,-8,-1
14:15:58:246532,1,6,-9,7,18,36,5,2
14:15:58:262228,-8,-1,5,-2,10,4,-2,-10
14:15:58:263028,-8,-1,5,-2,10,4,-2,-10
14:15:58:269106,-9,-13,4,12,-28,-57,2,-2
14:15:58:277180,6,18,0,-1,-15,-28,11,13
14:15:58:278014,6,18,0,-1,-15,-28,11,13
14:15:58:291597,2,-14,-11,16,12,22,2,10
14:15:58:307868,-3,23,8,2,-2,0,-7,-30
14:15:58:308640,-3,23,8,2,-2,0,-7,-30
14:15:58:309544,-3,-22,-20,9,23,-15,20,-8
14:15:58:322244,-8,-35,-20,8,-10,-18,-10,0
14:15:58:323050,-8,-35,-20,8,-10,-18,-10,0
14:15:58:329010,-8,-11,3,-31,-46,-60,-46,-2
14:15:58:337229,12,13,38,16,-11,13,18,1
14:15:58:337978,12,13,38,16,-11,13,18,1
14:15:58:351641,10,-6,-32,26,42,33,15,22
14:15:58:359716,-2,15,-24,-17,-20,0,-21,-12
14:15:58:360516,-2,15,-24,-17,-20,0,-21,-12
14:15:58:366568,6,46,51,21,3,4,12,10
14:15:58:382249,-4,-22,-17,2,11,4,-2,10
14:15:58:383057,-4,-22,-17,2,11,4,-2,10
14:15:58:389043,-6,4,-5,-32,-42,-35,-27,15
14:15:58:404752,10,3,16,11,24,13,12,4
14:15:58:405579,10,3,16,11,24,13,12,4
14:15:58:411548,-8,-20,-12,-22,-26,1,-7,-18
14:15:58:419799,-11,-7,-12,12,64,18,22,12
14:15:58:420546,-11,-7,-12,12,64,18,22,12
14:15:58:426529,3,25,22,36,44,8,3,-4
14:15:58:442260,-2,8,13,-2,-23,-28,-38,-6
14:15:58:443006,-2,8,13,-2,-23,-28,-38,-6
14:15:58:449068,-14,-22,-14,-40,-50,-18,1,-9
14:15:58:457254,22,36,8,17,27,42,13,12
14:15:58:458067,22,36,8,17,27,42,13,12
14:15:58:471989,-14,-25,-20,-17,-37,-16,-2,0
14:15:58:479793,-14,-25,-20,-17,-37,-16,-2,0
14:15:58:480562,-8,-34,-23,-19,-30,-37,11,17
14:15:58:486653,14,41,11,-15,8,10,-8,8
14:15:58:502318,14,41,11,-15,8,10,-8,8
14:15:58:503019,-8,7,7,11,-3,-1,11,-15
14:15:58:508984,-9,-19,-27,-10,-15,-12,-5,4
14:15:58:524756,-9,-19,-27,-10,-15,-12,-5,4
14:15:58:525624,7,11,-9,-24,-9,14,-8,-3
14:15:58:531622,1,-18,-9,9,73,62,16,-16
14:15:58:539778,1,-18,-9,9,73,62,16,-16
14:15:58:540576,-1,-15,-24,-18,-49,-25,-8,10
14:15:58:546508,9,-5,28,14,11,12,-6,-2
14:15:58:562231,9,-5,28,14,11,12,-6,-2
14:15:58:563029,-9,-25,19,1,-19,-34,5,-6
14:15:58:569002,5,15,-15,15,-2,-9,-12,-22
14:15:58:585299,5,15,-15,15,-2,-9,-12,-22
14:15:58:585961,2,32,19,4,18,2,3,-14
14:15:58:591533,0,3,21,23,6,-14,28,13
14:15:58:599746,0,3,21,23,6,-14,28,13
14:15:58:600531,7,14,8,28,51,-70,22,4
14:15:58:606494,3,-1,10,-6,-14,-5,-19,13
14:15:58:622251,3,-1,10,-6,-14,-5,-19,13
14:15:58:622984,-4,-1,-29,-13,-30,27,-8,-33
14:15:58:629056,3,-4,-35,-8,-16,-11,-13,-4
14:15:58:644783,3,-4,-35,-8,-16,-11,-13,-4
14:15:58:645521,2,13,1,-15,10,27,-11,17
14:15:58:651602,2,19,3,-24,-25,12,15,0
14:15:58:659686,2,19,3,-24,-25,12,15,0
14:15:58:660524,2,-17,-30,-26,5,29,-1,-9
14:15:58:666572,-2,2,-12,-22,-64,-75,-25,10
14:15:58:682712,-2,2,-12,-22,-64,-75,-25,10
14:15:58:683443,2,-13,24,19,56,70,22,14
14:15:58:689037,2,2,0,5,-31,11,-9,-8
14:15:58:704772,2,2,0,5,-31,11,-9,-8
14:15:58:705546,-15,-4,-31,-8,-69,-80,-11,-12
14:15:58:711543,-3,0,6,24,29,19,0,22
14:15:58:719769,-3,0,6,24,29,19,0,22
14:15:58:720533,-6,-12,-4,-5,-2,15,-15,15
14:15:58:726523,0,2,12,25,3,-25,8,-20
14:15:58:750406,0,2,12,25,3,-25,8,-20
14:15:58:751183,-8,2,-10,2,12,11,-18,-9
14:15:58:751991,10,10,-22,32,59,17,-3,-6
14:15:58:772939,10,10,-22,32,59,17,-3,-6
14:15:58:773753,7,-6,7,26,39,-5,5,-24
14:15:58:774595,-13,-28,15,-10,-13,-2,10,5
14:15:58:779724,-13,-28,15,-10,-13,-2,10,5
14:15:58:780565,1,3,-1,-5,-15,-25,-3,3
14:15:58:786675,0,4,29,11,74,21,13,14
14:15:58:802381,0,4,29,11,74,21,13,14
14:15:58:803100,-9,5,12,-6,1,7,-8,5
14:15:58:809051,-9,-17,-28,-5,3,-5,5,-15
14:15:58:824773,-9,-17,-28,-5,3,-5,5,-15
14:15:58:825545,-3,-2,9,-15,-23,-8,-9,-6
14:15:58:831692,-2,2,-10,-15,-9,24,4,1
14:15:58:839730,-2,2,-10,-15,-9,24,4,1
14:15:58:840602,1,-8,-4,-8,-6,-12,-17,-15
14:15:58:846574,2,-7,3,-10,0,21,0,-3
14:15:58:862224,2,-7,3,-10,0,21,0,-3
14:15:58:863075,-5,-13,-10,7,33,24,8,13
14:15:58:869079,-7,15,-10,-12,-33,-30,-10,-6
14:15:58:884848,-7,15,-10,-12,-33,-30,-10,-6
14:15:58:885538,7,1,14,8,-28,-12,-7,11
14:15:58:891594,-4,-4,-10,0,-20,-42,-2,-3
14:15:58:899770,-4,-4,-10,0,-20,-42,-2,-3
14:15:58:900554,1,-24,17,3,-3,-21,8,11
14:15:58:914045,1,4,-11,-25,-29,35,-7,-4
14:15:58:922315,1,4,-11,-25,-29,35,-7,-4
14:15:58:923063,6,25,10,20,21,34,18,6
14:15:58:929038,-6,-7,2,8,-16,-20,-20,-40
14:15:58:936700,-6,-7,2,8,-16,-20,-20,-40
14:15:58:944021,4,24,24,-5,-23,-2,8,22
14:15:58:951616,2,9,28,-6,-14,5,-5,-5
14:15:58:959663,2,9,28,-6,-14,5,-5,-5
14:15:58:960538,-2,-7,14,0,-10,-15,-10,0
14:15:58:966613,-2,-5,-10,15,18,15,23,13
14:15:58:982295,-2,-5,-10,15,18,15,23,13
14:15:58:983080,-4,-24,-22,6,-11,-3,2,1
14:15:58:989055,-2,-1,-5,1,-5,-56,2,10
14:15:58:996553,-2,-1,-5,1,-5,-56,2,10
14:15:59:4100,2,1,-1,7,15,-1,15,11
14:15:59:11552,-1,-14,12,-23,-19,-2,-20,1
14:15:59:19826,-1,-14,12,-23,-19,-2,-20,1
14:15:59:20559,7,9,-2,-9,5,22,-4,-29
14:15:59:34102,-7,-23,-62,13,27,-8,-11,0
14:15:59:42044,-7,-23,-62,13,27,-8,-11,0
14:15:59:49722,-10,-9,-21,-10,5,4,-11,-17
14:15:59:50398,8,3,10,2,8,-12,5,21
14:15:59:56615,8,3,10,2,8,-12,5,21
14:15:59:64068,8,22,-13,12,82,21,11,9
14:15:59:71526,4,24,32,3,4,37,5,16
14:15:59:79748,4,24,32,3,4,37,5,16
14:15:59:80549,-12,-3,10,-25,-55,-15,-8,-4
14:15:59:94011,3,9,-11,-19,-13,-4,-10,1
14:15:59:102307,3,9,-11,-19,-13,-4,-10,1
14:15:59:103062,5,5,-13,8,24,43,9,6
14:15:59:108998,-2,11,43,22,27,17,8,-4
14:15:59:116603,-2,11,43,22,27,17,8,-4
14:15:59:124037,4,14,7,0,-31,-50,-22,-6
14:15:59:131622,4,18,2,35,63,79,63,27
14:15:59:139778,4,18,2,35,63,79,63,27
14:15:59:140571,-20,-60,2,-13,-13,3,-10,-20
14:15:59:154082,-6,-16,-16,-27,-44,-52,-33,-31
14:15:59:162228,-6,-16,-16,-27,-44,-52,-33,-31
14:15:59:163050,11,36,15,8,-16,2,2,11
14:15:59:169173,-1,-10,-20,-6,17,10,4,-5
14:15:59:176569,-1,-10,-20,-6,17,10,4,-5
14:15:59:184057,-1,-7,22,17,-15,-8,-1,6
14:15:59:191586,12,14,-1,20,-3,-3,-17,14
14:15:59:199782,12,14,-1,20,-3,-3,-17,14
14:15:59:200550,-2,-9,-28,-8,-12,11,6,-6
14:15:59:214047,-7,-7,-2,-3,-19,-2,-1,19
14:15:59:222268,-7,-7,-2,-3,-19,-2,-1,19
14:15:59:223036,1,-15,8,-2,-14,-17,-13,3
14:15:59:237244,2,3,-8,-48,-22,5,-16,-25
14:15:59:238039,2,3,-8,-48,-22,5,-16,-25
14:15:59:243982,-7,12,-10,7,16,21,-2,-21
14:15:59:251644,3,0,15,32,47,9,16,1
14:15:59:259744,3,0,15,32,47,9,16,1
14:15:59:260561,-1,-14,-24,-23,-27,-47,-1,-2
14:15:59:274030,-5,-27,-2,-11,-20,1,-3,2
14:15:59:282253,-5,-27,-2,-11,-20,1,-3,2
14:15:59:283048,4,8,8,-22,-13,-3,-5,-8
14:15:59:289052,-11,-15,-29,-11,-16,-31,-8,-6
14:15:59:296606,-11,-15,-29,-11,-16,-31,-8,-6
14:15:59:304107,-8,1,-14,20,20,44,26,0
14:15:59:311550,-3,-1,14,1,19,8,8,-6
14:15:59:319797,-3,-1,14,1,19,8,8,-6
14:15:59:320624,-8,-15,-2,-6,20,-12,6,-9
14:15:59:334102,8,8,3,20,-6,11,0,-22
14:15:59:342264,8,8,3,20,-6,11,0,-22
14:15:59:343018,7,1,-10,-16,-18,-1,-8,11
14:15:59:349079,-4,11,10,-31,-23,-26,-13,-6
14:15:59:356598,-4,11,10,-31,-23,-26,-13,-6
14:15:59:364026,-7,-12,-4,0,-20,13,-6,3
14:15:59:371610,-3,-1,0,2,-2,6,-2,17
14:15:59:379679,-3,-1,0,2,-2,6,-2,17
14:15:59:380524,-3,-20,0,-29,-9,3,9,21
14:15:59:394006,4,0,-23,0,-21,-13,2,-5
14:15:59:402277,4,0,-23,0,-21,-13,2,-5
14:15:59:403027,4,28,-1,11,26,3,-8,-6
14:15:59:409049,-15,-19,-12,-11,34,12,5,-20
14:15:59:416601,-15,-19,-12,-11,34,12,5,-20
14:15:59:424001,0,5,-15,-5,61,57,7,9
14:15:59:431679,-4,-7,8,2,-11,-1,-16,-7
14:15:59:439742,-4,-7,8,2,-11,-1,-16,-7
14:15:59:440573,6,30,14,-2,-17,3,0,-8
14:15:59:454120,7,16,8,2,6,-9,25,36
14:15:59:462258,7,16,8,2,6,-9,25,36
14:15:59:462995,1,18,16,12,-12,-25,-7,17
14:15:59:469127,15,9,2,-13,-11,2,-11,-12
14:15:59:476525,15,9,2,-13,-11,2,-11,-12
14:15:59:484157,-4,-14,-10,-36,-50,-30,-16,-19
14:15:59:491537,-2,-5,17,33,16,41,4,10
14:15:59:499738,-2,-5,17,33,16,41,4,10
14:15:59:500621,0,-8,20,24,-10,15,6,1
14:15:59:514046,0,19,2,-10,-42,-47,-19,1
14:15:59:522271,0,19,2,-10,-42,-47,-19,1
14:15:59:523039,0,-16,-8,-8,-12,-8,1,2
14:15:59:529019,1,-11,18,3,5,11,-3,8
14:15:59:536679,1,-11,18,3,5,11,-3,8
14:15:59:544006,2,4,-3,-2,0,-15,-13,2
14:15:59:551670,-8,-26,12,-10,-2,-19,-6,6
14:15:59:559746,-8,-26,12,-10,-2,-19,-6,6
14:15:59:560569,-8,-16,4,21,25,-2,5,-10
14:15:59:574027,-2,-4,1,22,66,10,9,-7
14:15:59:582298,-2,-4,1,22,66,10,9,-7
14:15:59:583016,-9,-37,-6,2,15,2,1,-8
14:15:59:589020,-5,7,-1,-9,-35,-16,-15,-18
14:15:59:596594,-5,7,-1,-9,-35,-16,-15,-18
14:15:59:604076,3,17,1,9,13,-13,-6,-18
14:15:59:611554,-8,-13,-25,-51,-47,-6,-14,-12
14:15:59:619781,-8,-13,-25,-51,-47,-6,-14,-12
14:15:59:620515,5,15,39,14,59,59,35,25
14:15:59:634536,10,30,-6,0,13,16,2,-6
14:15:59:642283,10,30,-6,0,13,16,2,-6
14:15:59:643007,-7,6,1,2,-32,-14,-5,7
14:15:59:649099,7,10,-13,-21,-30,2,2,-15
14:15:59:656650,7,10,-13,-21,-30,2,2,-15
14:15:59:664089,3,21,6,14,-4,-30,4,-20
14:15:59:671591,-5,-12,-7,35,4,-8,-10,-6
14:15:59:679684,-5,-12,-7,35,4,-8,-10,-6
14:15:59:680588,-3,-3,-26,3,33,2,13,-4
14:15:59:694020,-1,-4,-3,5,9,-19,2,-26
14:15:59:702246,-1,-4,-3,5,9,-19,2,-26
14:15:59:702998,-10,-17,-6,-19,-37,-32,-32,-5
14:15:59:709021,9,6,16,7,13,29,11,12
14:15:59:716554,9,6,16,7,13,29,11,12
14:15:59:724063,-15,-35,-23,0,-51,-50,-25,-15
14:15:59:731655,0,-2,2,-2,19,51,9,4
14:15:59:739777,0,-2,2,-2,19,51,9,4
14:15:59:740580,12,13,2,-14,21,31,16,22
14:15:59:754100,-11,-20,-5,-11,-37,-66,-13,-8
14:15:59:762246,-11,-20,-5,-11,-37,-66,-13,-8
14:15:59:762991,-11,-9,-52,-14,-36,-12,-14,-10
14:15:59:769091,-9,5,21,12,-1,-18,0,9
14:15:59:776524,-9,5,21,12,-1,-18,0,9
14:15:59:784054,6,7,3,-14,-13,-21,-1,-9
14:15:59:791526,-3,7,-12,18,8,25,-7,2
14:15:59:799825,-3,7,-12,18,8,25,-7,2
14:15:59:800587,2,10,24,21,31,38,20,15
14:15:59:814119,0,9,-19,-26,-25,-15,2,8
14:15:59:822263,0,9,-19,-26,-25,-15,2,8
14:15:59:823040,0,-22,4,-43,-34,23,-28,-7
14:15:59:829004,3,17,30,3,32,20,4,-16
14:15:59:836676,3,17,30,3,32,20,4,-16
14:15:59:843980,0,1,-18,14,17,19,11,-2
14:15:59:851594,-9,-14,-17,-10,-13,-35,-15,8
14:15:59:859723,-9,-14,-17,-10,-13,-35,-15,8
14:15:59:860545,-3,-5,18,27,25,10,3,5
14:15:59:883024,1,-12,5,-1,-13,-26,4,5
14:15:59:883662,1,-12,5,-1,-13,-26,4,5
14:15:59:884488,12,36,2,9,54,-5,6,4
14:15:59:889053,6,1,-7,55,44,20,9,4
14:15:59:896585,6,1,-7,55,44,20,9,4
14:15:59:912209,-7,-8,1,-29,-44,-36,4,0
14:15:59:912966,-6,-4,-31,-27,-90,-11,8,-16
14:15:59:919794,-6,-4,-31,-27,-90,-11,8,-16
14:15:59:920542,3,-5,10,12,34,24,-5,-18
14:15:59:934104,-7,-14,-10,-4,-8,42,9,-13
14:15:59:942230,-7,-14,-10,-4,-8,42,9,-13
14:15:59:942969,12,-1,6,15,-20,12,15,28
14:15:59:949083,10,7,9,-10,3,-1,-10,-8
14:15:59:956592,10,7,9,-10,3,-1,-10,-8
14:15:59:964015,-16,9,5,8,-35,-58,-26,-16
14:15:59:971531,-1,8,15,17,56,36,17,20
14:15:59:979043,-1,8,15,17,56,36,17,20
14:15:59:986556,2,-18,7,8,-10,-18,-8,-4
14:15:59:993954,-2,-3,7,-21,1,-40,-4,11
14:16:00:2311,-2,-3,7,-21,1,-40,-4,11
14:16:00:3054,-4,7,0,-1,1,33,-3,7
14:16:00:17286,-11,-46,-8,-14,-1,25,7,8
14:16:00:18025,-11,-46,-8,-14,-1,25,7,8
14:16:00:23996,-9,10,4,19,16,2,-2,-12
14:16:00:31577,-9,0,-28,-17,-10,-18,-16,-20
14:16:00:39102,-9,0,-28,-17,-10,-18,-16,-20
14:16:00:46548,0,-26,-12,-2,22,-20,7,8
14:16:00:54118,0,-1,-3,10,-27,-17,-13,-7
14:16:00:62269,0,-1,-3,10,-27,-17,-13,-7
14:16:00:63042,-3,-1,-3,-11,9,4,5,-4
14:16:00:77669,10,18,11,5,20,22,27,23
14:16:00:78545,10,18,11,5,20,22,27,23
14:16:00:84065,-8,-14,-27,-3,-15,11,-12,-8
14:16:00:91495,-2,-18,-18,-11,-10,-20,-8,1
14:16:00:99139,-2,-18,-18,-11,-10,-20,-8,1
14:16:00:106608,-5,-20,5,4,6,-1,9,-3
14:16:00:114051,-1,-2,1,-4,13,19,-6,23
14:16:00:122230,-1,-2,1,-4,13,19,-6,23
14:16:00:122994,14,5,10,-14,2,-25,5,22
14:16:00:137298,9,1,-1,14,14,-8,7,-15
14:16:00:138066,9,1,-1,14,14,-8,7,-15
14:16:00:143991,2,19,-5,-13,-20,-13,-8,-8
14:16:00:159734,-8,-2,-2,18,66,45,4,-8
14:16:00:160554,-8,-2,-2,18,66,45,4,-8
14:16:00:166494,5,16,-5,-8,-3,6,-12,1
14:16:00:174018,-8,0,1,-32,-46,-29,-20,-13
14:16:00:189757,-8,0,1,-32,-46,-29,-20,-13
14:16:00:190540,-2,11,-3,-13,1,-16,-34,-26
14:16:00:197245,6,-18,6,-28,-12,-7,-13,-11
14:16:00:198018,6,-18,6,-28,-12,-7,-13,-11
14:16:00:204088,-8,-32,-20,4,-20,-49,-3,-5
14:16:00:211477,7,22,8,21,-1,-1,11,12
14:16:00:219114,7,22,8,21,-1,-1,11,12
14:16:00:226548,-10,1,-9,6,-9,2,2,11
14:16:00:234097,-16,-23,-2,20,33,-7,3,-3
14:16:00:242222,-16,-23,-2,20,33,-7,3,-3
14:16:00:242945,15,16,12,-14,-16,2,9,4
14:16:00:257170,-3,3,3,-37,-24,-1,-8,-4
14:16:00:258010,-3,3,3,-37,-24,-1,-8,-4
14:16:00:264016,6,15,10,21,2,3,12,-1
14:16:00:271610,-8,-4,-2,42,5,2,-3,-11
14:16:00:279066,-8,-4,-2,42,5,2,-3,-11
14:16:00:286704,-4,9,11,9,23,30,9,-3
14:16:00:294011,-4,-12,-15,-28,-15,-20,-21,-18
14:16:00:302332,-4,-12,-15,-28,-15,-20,-21,-18
14:16:00:303053,0,-3,-9,-5,4,19,-10,7
14:16:00:317214,4,3,3,13,43,16,33,17
14:16:00:318029,4,3,3,13,43,16,33,17
14:16:00:324030,-5,4,-5,-4,14,-2,-33,-38
14:16:00:331644,13,42,19,-34,-34,-12,-1,1
14:16:00:339070,13,42,19,-34,-34,-12,-1,1
14:16:00:346517,-5,-21,9,-1,-26,9,26,23
14:16:00:354099,-2,-20,7,8,11,7,-2,2
14:16:00:362243,-2,-20,7,8,11,7,-2,2
14:16:00:363030,4,-5,17,-8,-37,-22,-15,17
14:16:00:377189,-5,-12,-21,0,26,27,22,9
14:16:00:377977,-5,-12,-21,0,26,27,22,9
14:16:00:384055,-3,3,0,-22,-38,-24,-15,-31
14:16:00:391502,-4,1,3,16,-7,-21,16,8
14:16:00:399127,-4,1,3,16,-7,-21,16,8
14:16:00:406561,4,3,-11,34,39,29,7,19
14:16:00:414049,-9,3,-14,-2,-37,3,-24,-31
14:16:00:422279,-9,3,-14,-2,-37,3,-24,-31
14:16:00:423062,-7,-12,-7,22,26,-8,-4,-12
14:16:00:437324,1,8,26,29,24,9,-15,-15
14:16:00:438001,1,8,26,29,24,9,-15,-15
14:16:00:444004,-10,-18,-3,-12,6,4,21,13
14:16:00:451619,4,13,-4,-19,-25,-26,-3,1
14:16:00:467235,4,13,-4,-19,-25,-26,-3,1
14:16:00:468060,4,0,19,44,51,43,12,-5
14:16:00:473995,-2,-17,-9,-11,-17,0,15,21
14:16:00:482303,-2,-17,-9,-11,-17,0,15,21
14:16:00:483036,2,7,-10,-35,-40,-33,-21,1
14:16:00:497733,8,9,4,36,29,-19,-1,6
14:16:00:504734,8,9,4,36,29,-19,-1,6
14:16:00:505562,-4,5,1,-29,-8,-1,-16,-25
14:16:00:511479,1,14,-11,3,31,16,24,32
14:16:00:519153,1,14,-11,3,31,16,24,32
14:16:00:526479,5,5,-3,2,36,39,45,14
14:16:00:534070,0,-3,8,-13,-24,-1,-17,-15
14:16:00:542246,0,-3,8,-13,-24,-1,-17,-15
14:16:00:543015,-2,15,-34,-19,-13,-14,-25,12
14:16:00:557219,6,28,7,-9,-4,-8,-9,-5
14:16:00:558026,6,28,7,-9,-4,-8,-9,-5
14:16:00:564029,-7,2,9,-37,-15,-12,-15,-7
14:16:00:571517,1,-7,7,33,27,21,-1,-4
14:16:00:579108,1,-7,7,33,27,21,-1,-4
14:16:00:586670,-6,-15,12,3,1,9,10,9
14:16:00:593990,-2,-15,9,-40,-6,-2,-10,-15
14:16:00:602364,-2,-15,9,-40,-6,-2,-10,-15
14:16:00:603032,1,-12,-2,-2,-8,-11,-8,-9
14:16:00:617297,-7,-19,-23,-5,-36,-22,-20,-42
14:16:00:618033,-7,-19,-23,-5,-36,-22,-20,-42
14:16:00:624034,7,2,2,-2,-1,7,7,-4
14:16:00:631646,0,0,-5,-1,9,17,13,33
14:16:00:639114,0,0,-5,-1,9,17,13,33
14:16:00:646622,-13,-20,-18,4,-2,-13,-1,-25
14:16:00:654106,-7,21,20,11,0,-22,-11,-14
14:16:00:662240,-7,21,20,11,0,-22,-11,-14
14:16:00:662996,-3,-2,-3,17,15,1,10,1
14:16:00:677190,0,0,-18,-20,-22,1,-4,17
14:16:00:677991,0,0,-18,-20,-22,1,-4,17
14:16:00:684090,-15,15,-23,-2,-3,-3,-6,-43
14:16:00:691591,0,4,-19,-10,-32,-25,-6,17
14:16:00:699134,0,4,-19,-10,-32,-25,-6,17
14:16:00:706592,1,7,21,16,28,4,-1,5
14:16:00:714062,0,2,12,5,-5,-3,-2,-1
14:16:00:722226,0,2,12,5,-5,-3,-2,-1
14:16:00:723011,3,-10,-13,-14,4,26,9,18
14:16:00:745375,-5,-27,-24,-7,9,-4,-4,-3
14:16:00:746195,-5,-27,-24,-7,9,-4,-4,-3
14:16:00:747001,5,8,26,-22,-36,-17,-2,-6
14:16:00:751649,1,13,6,3,-12,-6,6,-6
14:16:00:759060,1,13,6,3,-12,-6,6,-6
14:16:00:766621,11,12,-16,-18,-20,-7,7,15
14:16:00:774064,-8,-24,-15,10,-22,-24,12,-10
14:16:00:782292,-8,-24,-15,10,-22,-24,12,-10
14:16:00:783033,14,10,7,20,9,5,25,40
14:16:00:797205,0,18,9,5,19,4,-16,-3
14:16:00:797993,0,18,9,5,19,4,-16,-3
14:16:00:804110,-14,-25,-20,-12,-43,-27,4,-12
14:16:00:811607,6,-1,2,21,24,9,9,11
14:16:00:819163,6,-1,2,21,24,9,9,11
14:16:00:826451,-10,-14,-23,-14,-19,-20,-30,4
14:16:00:834131,2,3,12,5,31,39,-6,-4
14:16:00:842254,2,3,12,5,31,39,-6,-4
14:16:00:842997,14,-1,-9,4,-9,5,-6,-2
14:16:00:857215,-5,-4,10,-6,0,-16,18,25
14:16:00:858044,-5,-4,10,-6,0,-16,18,25
14:16:00:864015,3,-33,-17,-4,2,-23,-2,16
14:16:00:871533,6,-3,-13,1,31,-14,-10,-9
14:16:00:879065,6,-3,-13,1,31,-14,-10,-9
14:16:00:886658,-2,29,3,-5,29,9,2,-9
14:16:00:893997,-13,0,3,-21,-5,35,0,-14
14:16:00:902352,-13,0,3,-21,-5,35,0,-14
14:16:00:903019,-4,-1,29,23,15,8,10,-6
14:16:00:917274,5,8,-19,-6,-28,-11,-8,-15
14:16:00:918061,5,8,-19,-6,-28,-11,-8,-15
14:16:00:924024,-3,16,17,12,18,25,-29,-13
14:16:00:939725,-9,-12,11,11,-9,-5,-6,-21
14:16:00:940601,-9,-12,11,11,-9,-5,-6,-21
14:16:00:946535,-9,-22,-2,9,-14,-8,-16,-7
14:16:00:954061,-3,-7,-11,5,-16,-22,-15,4
14:16:00:961564,-3,-7,-11,5,-16,-22,-15,4
14:16:00:969087,-2,2,19,31,14,-8,16,9
14:16:00:977183,9,-2,2,-6,-13,-10,6,4
14:16:00:978006,9,-2,2,-6,-13,-10,6,4
14:16:00:991539,-7,-15,-31,-11,9,12,2,-6
14:16:00:999760,-7,-12,3,-10,-21,-11,-10,-24
14:16:01:547,-7,-12,3,-10,-21,-11,-10,-24
14:16:01:6541,0,3,-18,-44,2,29,4,12
14:16:01:14079,8,20,1,5,36,47,21,0
14:16:01:21636,8,20,1,5,36,47,21,0
14:16:01:29002,-6,-35,-6,25,9,-11,4,-6
14:16:01:37304,-12,-33,-13,3,-14,-43,-5,6
14:16:01:38059,-12,-33,-13,3,-14,-43,-5,6
14:16:01:44018,8,14,2,4,-15,14,19,38
14:16:01:59711,2,7,11,-21,-11,-6,-32,-10
14:16:01:60552,2,7,11,-21,-11,-6,-32,-10
14:16:01:66628,-7,-2,-1,10,70,-17,32,-1
14:16:01:74059,-7,-10,-7,2,2,30,37,16
14:16:01:81683,-7,-10,-7,2,2,30,37,16
14:16:01:89076,9,20,16,-8,-17,3,-9,-7
14:16:01:97206,-7,2,-1,-18,-7,-15,-41,-18
14:16:01:97982,-7,2,-1,-18,-7,-15,-41,-18
14:16:01:104092,-14,8,28,9,-1,-2,-7,5
14:16:01:119798,-6,-25,19,-23,-47,-31,-12,5
14:16:01:120562,-6,-25,19,-23,-47,-31,-12,5
14:16:01:134765,9,0,12,15,39,50,-1,-15
14:16:01:135446,8,14,-8,13,52,53,25,15
14:16:01:141580,8,14,-8,13,52,53,25,15
14:16:01:149072,7,6,19,-11,-3,-21,-10,0
14:16:01:157237,5,12,-35,-20,10,-7,9,-7
14:16:01:158050,5,12,-35,-20,10,-7,9,-7
14:16:01:164067,3,-15,-5,-10,-26,-1,-8,-11
14:16:01:179717,9,18,2,4,-34,-16,20,21
14:16:01:180551,9,18,2,4,-34,-16,20,21
14:16:01:186559,1,10,-2,3,-21,-30,-18,10
14:16:01:194009,-11,-2,6,26,18,4,3,3
14:16:01:201659,-11,-2,6,26,18,4,3,3
14:16:01:209050,3,-20,-4,11,59,25,-11,-19
14:16:01:217212,8,14,5,21,2,-11,29,14
14:16:01:218004,8,14,5,21,2,-11,29,14
14:16:01:224048,-11,-8,-27,-1,-68,-53,-9,-10
14:16:01:239731,-5,-14,-3,-32,-14,18,-14,-7
14:16:01:240542,-5,-14,-3,-32,-14,18,-14,-7
14:16:01:246595,4,10,18,-2,-13,24,10,-18
14:16:01:254054,-2,-15,-20,4,-18,-32,-10,-6
14:16:01:261581,-2,-15,-20,4,-18,-32,-10,-6
14:16:01:269041,5,1,-10,7,37,35,2,7
14:16:01:277154,-9,-36,-8,-11,15,20,-12,-4
14:16:01:277988,-9,-36,-8,-11,15,20,-12,-4
14:16:01:283989,-21,-4,-5,-15,-38,-14,9,7
14:16:01:299713,22,18,-3,6,4,7,4,13
14:16:01:300555,22,18,-3,6,4,7,4,13
14:16:01:306603,-1,7,7,8,7,16,-15,-11
14:16:01:314033,-5,10,13,19,30,-20,1,0
14:16:01:321606,-5,10,13,19,30,-20,1,0
14:16:01:328983,-11,-10,-9,-8,-4,-13,-6,-10
14:16:01:337276,8,10,-10,0,19,2,-11,-1
14:16:01:338028,8,10,-10,0,19,2,-11,-1
14:16:01:343956,1,16,-7,-6,-10,-14,7,8
14:16:01:359682,13,8,16,-5,17,40,17,25
14:16:01:360569,13,8,16,-5,17,40,17,25
14:16:01:366485,15,36,-7,-3,2,-17,-1,12
14:16:01:374024,-14,3,-25,-23,-43,42,-22,-35
14:16:01:381762,-14,3,-25,-23,-43,42,-22,-35
14:16:01:389038,9,-20,15,23,0,22,39,-3
14:16:01:397261,19,9,-7,-14,-9,21,13,9
14:16:01:398057,19,9,-7,-14,-9,21,13,9
14:16:01:411533,-8,-16,-7,27,23,-17,-23,-18
14:16:01:419805,-3,4,20,30,-22,-51,-20,-14
14:16:01:420568,-3,4,20,30,-22,-51,-20,-14
14:16:01:426510,13,22,1,1,-6,19,19,29
14:16:01:433984,-17,-6,-8,-4,-1,11,-10,-24
14:16:01:441594,-17,-6,-8,-4,-1,11,-10,-24
14:16:01:449105,-5,-8,12,-14,7,-6,-9,-4
14:16:01:457218,-6,-2,26,-6,-13,-29,-25,-19
14:16:01:458002,-6,-2,26,-6,-13,-29,-25,-19
14:16:01:464035,-4,1,-19,-13,-12,2,6,0
14:16:01:479678,7,0,6,12,14,-7,9,7
14:16:01:480528,7,0,6,12,14,-7,9,7
14:16:01:486599,6,-4,-15,-13,-23,-41,-9,-1
14:16:01:493980,-7,-1,-10,-3,-2,22,16,13
14:16:01:501649,-7,-1,-10,-3,-2,22,16,13
14:16:01:508979,2,-7,8,-4,21,19,-3,11
14:16:01:525362,-17,-36,7,-8,-18,-17,-8,-25
14:16:01:526186,-17,-36,7,-8,-18,-17,-8,-25
14:16:01:526969,-17,-23,11,-28,-53,-32,-8,-2
14:16:01:547937,-2,4,-2,9,-12,16,3,18
14:16:01:548665,-2,4,-2,9,-12,16,3,18
14:16:01:549449,-7,6,37,2,-21,44,8,-3
14:16:01:554121,2,-10,-21,-10,30,11,-6,-3
14:16:01:561636,2,-10,-21,-10,30,11,-6,-3
14:16:01:569094,0,-2,-1,-2,-3,-13,-22,-38
14:16:01:577200,0,23,18,-7,-2,22,-35,-20
14:16:01:577995,0,23,18,-7,-2,22,-35,-20
14:16:01:584050,17,30,-15,-17,9,47,15,22
14:16:01:599858,-3,3,8,5,-28,-34,-25,-15
14:16:01:600559,-3,3,8,5,-28,-34,-25,-15
14:16:01:606527,-3,-3,-11,16,-3,-33,-16,-12
14:16:01:614060,1,-7,21,-9,1,9,9,20
14:16:01:621673,1,-7,21,-9,1,9,9,20
14:16:01:637922,-6,-7,14,10,41,-34,1,2
14:16:01:638726,1,13,-48,-13,-15,-33,-5,-25
14:16:01:639617,1,13,-48,-13,-15,-33,-5,-25
14:16:01:643995,-7,-16,14,-3,-42,-25,-16,13
14:16:01:659689,7,10,18,27,60,31,48,14
14:16:01:660530,7,10,18,27,60,31,48,14
14:16:01:666627,0,5,-15,-5,5,12,-3,-21
14:16:01:673980,-10,-4,-1,-5,-45,-42,-5,10
14:16:01:689710,-10,-4,-1,-5,-45,-42,-5,10
14:16:01:690543,-6,-34,-14,8,-2,-12,-20,-11
14:16:01:697171,6,-5,-5,1,25,-10,16,15
14:16:01:698008,6,-5,-5,1,25,-10,16,15
14:16:01:704048,7,16,-3,-29,-7,-27,39,18
14:16:01:719751,-3,1,10,9,-37,14,12,17
14:16:01:720529,-3,1,10,9,-37,14,12,17
14:16:01:726443,10,-8,8,31,30,52,5,2
14:16:01:733970,-7,-22,-35,-26,-20,-13,-8,-12
14:16:01:741599,-7,-22,-35,-26,-20,-13,-8,-12
14:16:01:749084,-5,-6,-17,-2,-22,-11,-10,-12
14:16:01:757238,-3,-14,-2,8,25,35,-15,-3
14:16:01:758012,-3,-14,-2,8,25,35,-15,-3
14:16:01:764015,2,1,-12,-11,7,-17,-10,7
14:16:01:779722,4,10,20,41,81,15,3,13
14:16:01:780541,4,10,20,41,81,15,3,13
14:16:01:786640,3,26,4,-9,-35,-14,-13,-13
14:16:01:802815,3,26,4,-9,-35,-14,-13,-13
14:16:01:803496,-2,-3,-1,-37,-17,-11,-34,-21
14:16:01:809007,-4,-16,10,34,61,30,8,-19
14:16:01:817306,-4,-16,10,34,61,30,8,-19
14:16:01:818059,2,5,-14,-11,3,-9,2,-14
14:16:01:823998,-21,-70,-17,-4,-6,36,-12,-19
14:16:01:839732,-21,-70,-17,-4,-6,36,-12,-19
14:16:01:840565,-7,-9,-3,-15,-2,-13,2,0
14:16:01:846515,10,42,8,8,10,-6,-7,25
14:16:01:862197,10,42,8,8,10,-6,-7,25
14:16:01:862998,1,-3,-9,8,-2,-9,4,19
14:16:01:869137,-10,-17,-28,-31,-32,-14,9,9
14:16:01:877215,-10,-17,-28,-31,-32,-14,9,9
14:16:01:877970,5,1,3,-5,-22,-20,10,9
14:16:01:891575,9,17,-16,-8,-12,-22,-3,-2
14:16:01:899816,9,17,-16,-8,-12,-22,-3,-2
14:16:01:900554,-4,-4,0,18,25,-14,11,6
14:16:01:906604,6,-7,1,-1,31,9,23,14
14:16:01:922224,6,-7,1,-1,31,9,23,14
14:16:01:923034,-6,-16,2,-13,-12,-1,-2,-10
14:16:01:929068,-17,1,1,-11,3,-7,-26,-28
14:16:01:937270,-17,1,1,-11,3,-7,-26,-28
14:16:01:938054,7,-1,9,-9,-8,14,-6,38
14:16:01:951590,-3,0,13,-5,-12,-10,-7,-4
14:16:01:959481,-3,0,13,-5,-12,-10,-7,-4
14:16:01:967234,0,0,18,11,-10,-9,-35,-31
14:16:01:968046,0,-13,-31,24,58,36,50,28
14:16:01:982324,0,-13,-31,24,58,36,50,28
14:16:01:983086,-9,-6,7,17,6,14,8,3
14:16:01:989051,1,2,38,-24,-49,-44,-28,-11
14:16:01:997232,1,2,38,-24,-49,-44,-28,-11
14:16:01:997984,-7,-5,-46,-13,-4,-36,8,-24
14:16:02:11523,2,29,7,-9,3,35,-1,4
14:16:02:19801,2,29,7,-9,3,35,-1,4
14:16:02:20547,-2,29,-6,8,2,10,2,-17
14:16:02:26475,2,7,4,7,-6,-30,37,40
14:16:02:42010,2,7,4,7,-6,-30,37,40
14:16:02:49701,-3,-38,-21,2,-16,11,5,6
14:16:02:50466,-4,2,9,19,-27,-28,-23,-12
14:16:02:57185,-4,2,9,19,-27,-28,-23,-12
14:16:02:57980,-1,-10,42,33,5,10,10,-8
14:16:02:71557,2,12,4,-54,-50,13,-1,-8
14:16:02:79762,2,12,4,-54,-50,13,-1,-8
14:16:02:80592,10,13,14,-10,-18,-6,-5,10
14:16:02:86585,5,12,19,25,-10,-12,-3,-21
14:16:02:102285,5,12,19,25,-10,-12,-3,-21
14:16:02:103067,-2,11,-20,-23,-23,9,-17,-10
14:16:02:109019,23,19,-2,32,38,38,60,29
14:16:02:117270,23,19,-2,32,38,38,60,29
14:16:02:118059,-4,-13,5,-12,-21,-2,-25,-9
14:16:02:131627,-8,-19,-53,-14,14,4,-32,-17
14:16:02:139768,-8,-19,-53,-14,14,4,-32,-17
14:16:02:140573,-3,33,13,10,-2,16,-28,-4
14:16:02:146511,-7,-26,8,-15,1,-21,-10,2
14:16:02:162229,-7,-26,8,-15,1,-21,-10,2
14:16:02:163038,12,3,-5,-2,10,2,0,-18
14:16:02:169068,-4,2,-39,-2,6,-7,-4,1
14:16:02:177232,-4,2,-39,-2,6,-7,-4,1
14:16:02:177999,-17,-6,-23,0,18,-50,20,8
14:16:02:191491,0,13,8,9,10,-10,-14,-6
14:16:02:199819,0,13,8,9,10,-10,-14,-6
14:16:02:200595,-9,-1,-24,13,46,-17,-1,-16
14:16:02:206540,-8,-14,-5,11,-35,-19,-18,-11
14:16:02:222249,-8,-14,-5,11,-35,-19,-18,-11
14:16:02:223003,7,6,19,6,-12,-1,5,16
14:16:02:229212,-3,-5,-2,-28,-16,24,23,25
14:16:02:244699,-3,-5,-2,-28,-16,24,23,25
14:16:02:245537,-5,-2,19,-6,14,5,15,2
14:16:02:251544,11,2,20,21,34,14,4,13
14:16:02:259697,11,2,20,21,34,14,4,13
14:16:02:260552,7,7,6,10,7,18,4,22
14:16:02:266499,-4,6,12,-22,-42,-38,14,-1
14:16:02:282264,-4,6,12,-22,-42,-38,14,-1
14:16:02:283030,9,7,6,5,-10,19,-2,-9
14:16:02:289009,-7,-6,0,-26,-26,-41,-40,-18
14:16:02:297995,-7,-6,0,-26,-26,-41,-40,-18
14:16:02:298684,4,8,3,13,22,17,-2,-1
14:16:02:311598,8,-11,25,25,44,38,63,38
14:16:02:327854,8,-11,25,25,44,38,63,38
14:16:02:328633,-1,21,35,-28,-25,8,1,14
14:16:02:329462,-15,-18,-20,-13,-23,-12,-27,-25
14:16:02:342290,-15,-18,-20,-13,-23,-12,-27,-25
14:16:02:343008,0,-26,-10,-11,-39,-42,14,27
14:16:02:349097,3,4,-11,-1,-16,-8,-5,10
14:16:02:357224,3,4,-11,-1,-16,-8,-5,10
14:16:02:357985,1,-6,14,-17,-11,35,39,1
14:16:02:371570,1,21,23,-15,-30,-7,-42,-8
14:16:02:379788,1,21,23,-15,-30,-7,-42,-8
14:16:02:380606,-1,-17,9,3,-12,-26,-20,-19
14:16:02:386615,7,11,12,23,39,24,0,-4
14:16:02:402374,7,11,12,23,39,24,0,-4
14:16:02:403074,-8,-1,4,17,39,7,11,2
14:16:02:417965,-5,-2,-40,-16,-5,-7,-44,-21
14:16:02:418721,-5,-2,-40,-16,-5,-7,-44,-21
14:16:02:419485,-4,-16,-43,-8,-17,-6,8,8
14:16:02:431605,0,4,-3,0,33,32,38,6
14:16:02:439707,0,4,-3,0,33,32,38,6
14:16:02:440598,8,7,-24,-25,-34,-31,-2,-19
14:16:02:446491,-14,-9,-3,-14,-32,5,4,-45
14:16:02:462262,-14,-9,-3,-14,-32,5,4,-45
14:16:02:463016,-1,-12,8,26,31,44,6,9
14:16:02:469047,3,-28,-18,-39,-39,-33,-5,22
14:16:02:477211,3,-28,-18,-39,-39,-33,-5,22
14:16:02:478005,-8,8,-12,-33,15,-11,-23,-4
14:16:02:491623,-2,-1,-10,15,17,23,5,-8
14:16:02:499786,-2,-1,-10,15,17,23,5,-8
14:16:02:500582,5,3,19,40,61,15,-8,-25
14:16:02:506516,-12,-18,-21,11,9,-7,6,-2
14:16:02:522228,-12,-18,-21,11,9,-7,6,-2
14:16:02:522998,3,7,0,3,-18,28,-23,-10
14:16:02:529050,5,9,11,53,41,24,-13,25
14:16:02:537266,5,9,11,53,41,24,-13,25
14:16:02:538003,-10,-7,-32,-10,42,45,5,8
14:16:02:551605,-14,0,1,16,18,16,11,11
14:16:02:559664,-14,0,1,16,18,16,11,11
14:16:02:560473,-16,-24,-11,-24,-68,-37,-12,-29
14:16:02:566467,1,10,-2,-22,-12,-18,-4,-20
14:16:02:582783,1,10,-2,-22,-12,-18,-4,-20
14:16:02:583482,12,-4,16,-2,-4,4,40,23
14:16:02:589051,9,11,46,-11,-24,-23,-13,0
14:16:02:597225,9,11,46,-11,-24,-23,-13,0
14:16:02:598005,-2,6,0,6,-16,-37,-22,-16
14:16:02:611527,-6,-5,-18,16,44,36,10,-9
14:16:02:619792,-6,-5,-18,16,44,36,10,-9
14:16:02:620528,-2,-1,-25,-19,-15,-12,-8,2
14:16:02:626497,-11,-24,-6,10,-4,-76,-21,-49
14:16:02:642243,-11,-24,-6,10,-4,-76,-21,-49
14:16:02:643006,-2,-8,-2,11,39,40,-9,4
14:16:02:649036,22,3,-7,-16,-17,0,-36,8
14:16:02:657204,22,3,-7,-16,-17,0,-36,8
14:16:02:657985,-14,-2,-5,-4,-22,-22,-6,-20
14:16:02:671542,-6,-2,-7,13,-4,-16,-5,-1
14:16:02:679778,-6,-2,-7,13,-4,-16,-5,-1
14:16:02:680596,6,38,15,-16,-14,4,-4,8
14:16:02:693970,4,1,-2,0,-7,9,21,14
14:16:02:702308,4,1,-2,0,-7,9,21,14
14:16:02:703020,-6,1,5,-27,-24,-21,7,2
14:16:02:709009,10,24,9,-37,10,44,32,33
14:16:02:717278,10,24,9,-37,10,44,32,33
14:16:02:717997,0,-12,16,31,72,-24,28,3
14:16:02:731573,-9,-39,-9,3,3,-5,-19,-3
14:16:02:739784,-9,-39,-9,3,3,-5,-19,-3
14:16:02:740599,19,14,-27,-12,-10,5,4,41
14:16:02:746547,-8,-8,20,0,-14,11,14,5
14:16:02:762252,-8,-8,20,0,-14,11,14,5
14:16:02:763022,5,10,25,26,-7,-3,-2,-8
14:16:02:769071,1,29,18,18,-4,4,-1,-7
14:16:02:777251,1,29,18,18,-4,4,-1,-7
14:16:02:778020,-9,-7,19,5,18,40,-6,-17
14:16:02:791494,1,-5,1,28,17,-9,42,33
14:16:02:799793,1,-5,1,28,17,-9,42,33
14:16:02:800548,10,15,-6,5,16,11,-2,57
14:16:02:806529,6,-21,11,-4,-16,-2,-6,-8
14:16:02:822238,6,-21,11,-4,-16,-2,-6,-8
14:16:02:823011,-1,-21,-16,-25,-39,-25,-10,4
14:16:02:828985,4,12,10,-34,-11,-19,22,16
14:16:02:836694,4,12,10,-34,-11,-19,22,16
14:16:02:844009,-8,-13,-25,-23,-1,14,3,-26
14:16:02:851640,-6,6,-18,-11,-12,-32,-24,-21
14:16:02:859744,-6,6,-18,-11,-12,-32,-24,-21
14:16:02:860572,-4,3,-5,-3,-15,-1,13,-1
14:16:02:874018,-10,-5,-3,-11,-14,-29,-17,-49
14:16:02:882267,-10,-5,-3,-11,-14,-29,-17,-49
14:16:02:883003,15,2,8,19,-2,6,-11,7
14:16:02:889049,8,5,-31,0,12,13,-23,2
14:16:02:896630,8,5,-31,0,12,13,-23,2
14:16:02:904093,-4,-2,-2,-16,-32,-4,7,10
14:16:02:911495,-8,2,-3,9,-19,18,-4,-14
14:16:02:919789,-8,2,-3,9,-19,18,-4,-14
14:16:02:920504,-10,-17,-26,23,38,-9,0,-48
14:16:02:934059,4,6,-19,-6,16,66,-16,-6
14:16:02:942210,4,6,-19,-6,16,66,-16,-6
14:16:02:942940,2,13,-20,19,-15,12,15,-8
14:16:02:949029,0,11,1,-6,-8,-13,-15,8
14:16:02:956596,0,11,1,-6,-8,-13,-15,8
14:16:02:972171,4,0,-6,6,13,-4,5,0
14:16:02:973010,4,-15,-13,-18,3,13,-3,20
14:16:02:979695,4,-15,-13,-18,3,13,-3,20
14:16:02:980499,-3,-12,25,7,34,14,1,28
14:16:02:993961,-16,-4,-19,-27,-55,-9,-11,-10
14:16:03:2320,-16,-4,-19,-27,-55,-9,-11,-10
14:16:03:3049,-1,30,45,13,26,-28,3,-1
14:16:03:9033,-15,-36,29,37,57,22,13,-14
14:16:03:16642,-15,-36,29,37,57,22,13,-14
14:16:03:24056,-8,-5,-8,-20,-31,-32,-28,-19
14:16:03:31592,-1,0,21,2,20,24,25,7
14:16:03:39695,-1,0,21,2,20,24,25,7
14:16:03:40567,-10,-16,3,-16,-35,-2,-13,-1
14:16:03:54106,0,13,-13,14,10,-6,-5,-2
14:16:03:62209,0,13,-13,14,10,-6,-5,-2
14:16:03:62993,-14,-3,-20,-1,-30,-24,-10,-25
14:16:03:69188,16,19,8,25,30,-1,22,13
14:16:03:84741,16,19,8,25,30,-1,22,13
14:16:03:85475,21,0,-14,-1,-22,3,-7,31
14:16:03:91515,2,23,23,18,-3,-73,5,43
14:16:03:99754,2,23,23,18,-3,-73,5,43
14:16:03:100494,-5,2,35,6,-5,-15,-27,-9
14:16:03:114042,-10,8,-41,-26,-30,48,0,-18
14:16:03:122220,-10,8,-41,-26,-30,48,0,-18
14:16:03:123005,9,9,29,18,57,41,46,21
14:16:03:129031,-5,-21,-16,-11,-22,5,-16,-22
14:16:03:136693,-5,-21,-16,-11,-22,5,-16,-22
14:16:03:143973,0,-7,-15,-13,-20,-23,-22,-26
14:16:03:151682,11,15,19,27,38,-7,21,30
14:16:03:159727,11,15,19,27,38,-7,21,30
14:16:03:160554,-10,-9,39,-10,2,-10,-2,-2
14:16:03:174039,2,-9,0,-44,-55,-23,-19,12
14:16:03:182239,2,-9,0,-44,-55,-23,-19,12
14:16:03:183012,-2,3,14,12,-9,23,13,-9
14:16:03:197224,-4,-17,-16,-1,-23,13,0,-43
14:16:03:197971,-4,-17,-16,-1,-23,13,0,-43
14:16:03:204055,0,-4,-12,-2,20,-2,57,39
14:16:03:211504,-8,3,-1,5,11,-6,16,-14
14:16:03:219776,-8,3,-1,5,11,-6,16,-14
14:16:03:220527,-11,-21,-20,-15,-31,-38,7,15
14:16:03:234152,4,1,10,-31,-9,-12,-11,9
14:16:03:250453,4,1,10,-31,-9,-12,-11,9
14:16:03:251221,-4,-14,-5,5,4,10,-34,-21
14:16:03:251994,-9,-21,4,-21,50,25,-4,-9
14:16:03:256627,-9,-21,4,-21,50,25,-4,-9
14:16:03:264044,0,5,-13,-5,-3,-30,-31,-14
14:16:03:271564,13,33,13,25,19,-35,23,31
14:16:03:279752,13,33,13,25,19,-35,23,31
14:16:03:280547,3,6,-2,-19,-9,-5,-5,-3
14:16:03:293984,-10,7,-15,4,7,-45,-28,-31
14:16:03:310391,-10,7,-15,4,7,-45,-28,-31
14:16:03:311161,-10,0,-19,-11,-6,8,-21,-27
14:16:03:311964,24,23,18,12,-16,23,66,2
14:16:03:316594,24,23,18,12,-16,23,66,2
14:16:03:324037,5,-16,-2,-15,-35,1,-7,8
14:16:03:331555,-3,-14,-16,13,17,11,-19,-5
14:16:03:339790,-3,-14,-16,13,17,11,-19,-5
14:16:03:340597,-2,-12,-21,9,-6,11,-4,-10
14:16:03:362827,-9,-19,6,34,-2,12,-7,-1
14:16:03:363678,-9,-19,6,34,-2,12,-7,-1
14:16:03:364519,-4,0,-21,-11,-18,28,-11,-1
14:16:03:369030,-1,-2,2,-30,-84,-15,-11,-36
14:16:03:376565,-1,-2,2,-30,-84,-15,-11,-36
14:16:03:384036,7,5,15,17,58,22,-2,4
14:16:03:391531,-11,-11,-4,12,-37,18,-7,13
14:16:03:399755,-11,-11,-4,12,-37,18,-7,13
14:16:03:400568,39,9,-32,-24,1,-9,25,47
14:16:03:414040,-14,-16,0,5,5,-31,-39,-1
14:16:03:422199,-14,-16,0,5,5,-31,-39,-1
14:16:03:422979,-10,-14,53,32,15,-13,-11,-16
14:16:03:429063,14,19,1,-31,-16,-10,-17,-19
14:16:03:436660,14,19,1,-31,-16,-10,-17,-19
14:16:03:444012,-9,25,6,25,-17,29,22,11
14:16:03:451565,4,21,37,9,-14,42,0,-6
14:16:03:459647,4,21,37,9,-14,42,0,-6
14:16:03:460458,0,-5,-38,7,2,-5,-6,-26
14:16:03:474534,-5,-24,-40,-2,22,9,-1,11
14:16:03:482295,-5,-24,-40,-2,22,9,-1,11
14:16:03:483048,-18,-20,-44,-34,-25,-8,-22,-21
14:16:03:488986,3,5,-30,11,28,10,6,19
14:16:03:496571,3,5,-30,11,28,10,6,19
14:16:03:504050,14,24,4,8,-1,-21,9,6
14:16:03:511527,-16,-36,0,-7,-25,-22,-18,-10
14:16:03:519790,-16,-36,0,-7,-25,-22,-18,-10
14:16:03:520508,-19,-19,-1,-31,-13,-27,-31,-13
14:16:03:534083,11,21,16,22,32,-2,29,53
14:16:03:542207,11,21,16,22,32,-2,29,53
14:16:03:542954,-14,-11,4,-12,-41,-81,-11,-19
14:16:03:549079,-9,0,14,10,22,-13,1,-24
14:16:03:556531,-9,0,14,10,22,-13,1,-24
14:16:03:564079,6,1,-3,4,-20,-2,30,-12
14:16:03:571564,14,27,33,-8,34,29,7,0
14:16:03:587255,14,27,33,-8,34,29,7,0
14:16:03:587962,-5,-3,37,-11,-4,-4,-4,7
14:16:03:594012,1,2,18,0,-11,-1,-5,1
14:16:03:602322,1,2,18,0,-11,-1,-5,1
14:16:03:602986,-7,8,18,11,14,24,-1,17
14:16:03:608974,3,-18,-20,3,-6,-29,14,14
14:16:03:616666,3,-18,-20,3,-6,-29,14,14
14:16:03:624056,3,-16,-35,-6,23,45,-13,-24
14:16:03:631559,8,-5,12,18,21,-12,4,36
14:16:03:639762,8,-5,12,18,21,-12,4,36
14:16:03:640596,19,-9,-10,-2,30,26,23,30
14:16:03:654030,-7,-28,-30,-16,17,21,-25,-37
14:16:03:662274,-7,-28,-30,-16,17,21,-25,-37
14:16:03:662993,-10,5,-39,2,-11,1,-11,7
14:16:03:669079,-8,-10,3,-16,20,-66,-21,-20
14:16:03:676583,-8,-10,3,-16,20,-66,-21,-20
14:16:03:684052,-4,-15,0,-7,1,-7,1,-14
14:16:03:691560,0,39,-21,-30,18,44,14,9
14:16:03:699806,0,39,-21,-30,18,44,14,9
14:16:03:700586,-11,-23,-13,15,22,-2,-4,-5
14:16:03:714061,-1,0,11,0,-27,2,-4,-6
14:16:03:722251,-1,0,11,0,-27,2,-4,-6
14:16:03:723024,1,5,3,-11,-17,3,7,10
14:16:03:728991,-11,-9,-32,-17,-91,-104,-12,-27
14:16:03:736736,-11,-9,-32,-17,-91,-104,-12,-27
14:16:03:744005,6,8,11,8,-53,-29,4,-44
14:16:03:751542,6,29,24,28,37,-28,19,-5
14:16:03:767261,6,29,24,28,37,-28,19,-5
14:16:03:768004,7,2,-2,7,49,10,-32,24
14:16:03:773992,-37,-64,-48,7,-12,4,-74,-26
14:16:03:782339,-37,-64,-48,7,-12,4,-74,-26
14:16:03:783049,2,11,10,9,40,36,15,2
14:16:03:797224,6,13,11,-12,0,12,-1,15
14:16:03:798038,6,13,11,-12,0,12,-1,15
14:16:03:804087,-13,-12,-4,-41,-21,-1,-5,4
14:16:03:811480,6,11,5,5,16,55,9,7
14:16:03:819184,6,11,5,5,16,55,9,7
14:16:03:826520,-7,1,-24,3,4,30,4,4
14:16:03:834057,-2,-8,-12,12,94,68,30,6
14:16:03:842201,-2,-8,-12,12,94,68,30,6
14:16:03:842937,10,16,36,26,38,-54,36,13
14:16:03:857305,21,-4,4,-15,-54,9,-2,-43
14:16:03:858074,21,-4,4,-15,-54,9,-2,-43
14:16:03:864060,-16,5,7,4,-43,34,-19,-34
14:16:03:871559,-16,20,22,-21,-12,-95,-6,-5
14:16:03:879049,-16,20,22,-21,-12,-95,-6,-5
14:16:03:886650,8,-11,-8,26,20,-36,13,18
14:16:03:894036,-4,-22,-4,-20,-3,61,9,-26
14:16:03:902309,-4,-22,-4,-20,-3,61,9,-26
14:16:03:903115,-11,-21,-2,-12,24,12,-8,12
14:16:03:917242,6,3,-14,-8,-20,1,-3,30
14:16:03:918044,6,3,-14,-8,-20,1,-3,30
14:16:03:924028,-13,3,6,-27,-21,23,3,-9
14:16:03:931630,1,16,67,60,90,73,48,26
14:16:03:939064,1,16,67,60,90,73,48,26
14:16:03:946490,19,14,35,23,18,51,3,23
14:16:03:954078,-20,-5,-47,-60,-99,-24,-35,-10
14:16:03:962206,-20,-5,-47,-60,-99,-24,-35,-10
14:16:03:963039,-5,2,-5,24,36,-7,-12,-5
14:16:03:977165,-1,6,-17,-1,9,5,16,-14
14:16:03:977965,-1,6,-17,-1,9,5,16,-14
14:16:03:992230,-2,7,15,20,-33,-25,-29,29
14:16:03:992939,-4,-1,4,19,55,-35,11,-16
14:16:03:999080,-4,-1,4,19,55,-35,11,-16
14:16:04:6557,-18,-14,15,16,17,14,11,-26
14:16:04:14048,3,-6,-13,-33,-57,-4,-11,-24
14:16:04:22228,3,-6,-13,-33,-57,-4,-11,-24
14:16:04:22976,-14,21,-12,-32,-2,-24,19,-26
14:16:04:37258,2,-17,-5,-1,10,13,35,39
14:16:04:37983,2,-17,-5,-1,10,13,35,39
14:16:04:43986,-11,11,24,23,12,15,4,-12
14:16:04:51642,2,12,29,9,-60,-75,-15,-5
14:16:04:59072,2,12,29,9,-60,-75,-15,-5
14:16:04:66517,8,-37,-14,-52,-23,17,10,23
14:16:04:74015,11,-1,16,30,64,97,7,29
14:16:04:82301,11,-1,16,30,64,97,7,29
14:16:04:83046,4,-2,37,-13,-20,-59,-29,-26
14:16:04:97214,-6,-8,-34,5,-6,4,-7,6
14:16:04:98052,-6,-8,-34,5,-6,4,-7,6
14:16:04:104077,13,9,-33,2,8,0,24,2
14:16:04:111454,1,-7,9,-21,-39,-28,-21,-6
14:16:04:119139,1,-7,9,-21,-39,-28,-21,-6
14:16:04:126479,-1,14,19,-2,-1,14,9,-3
14:16:04:134742,-2,-13,-25,13,-2,-65,10,-22
14:16:04:135588,-2,-13,-25,13,-2,-65,10,-22
14:16:04:141490,1,-19,-20,7,-27,1,-36,-3
14:16:04:157263,2,-9,22,11,37,108,-1,-3
14:16:04:158010,2,-9,22,11,37,108,-1,-3
14:16:04:164041,7,0,11,43,11,-2,19,25
14:16:04:171546,-5,-8,-7,-14,17,25,-15,-2
14:16:04:179077,-5,-8,-7,-14,17,25,-15,-2
14:16:04:186604,2,-1,-47,-35,-28,-20,-15,-4
14:16:04:194766,9,16,21,-3,-20,-64,3,2
14:16:04:195575,9,16,21,-3,-20,-64,3,2
14:16:04:201647,16,40,-6,-37,-18,26,6,58
14:16:04:217257,-23,2,-10,-4,-2,-8,-19,-26
14:16:04:218082,-23,2,-10,-4,-2,-8,-19,-26
14:16:04:232214,1,27,3,13,-15,-71,-24,-54
14:16:04:232921,16,3,14,2,13,49,29,29
14:16:04:239082,16,3,14,2,13,49,29,29
14:16:04:246501,-23,-1,16,1,4,37,-7,5
14:16:04:254713,-11,-26,-18,-28,-72,-62,-37,-47
14:16:04:255613,-11,-26,-18,-28,-72,-62,-37,-47
14:16:04:261492,2,-6,37,14,1,2,-3,-9
14:16:04:277184,10,28,51,47,20,31,8,21
14:16:04:278022,10,28,51,47,20,31,8,21
14:16:04:284005,-6,7,-21,-18,-19,-24,0,3
14:16:04:291518,-5,-19,-37,-29,-17,-4,-4,1
14:16:04:307240,-5,-19,-37,-29,-17,-4,-4,1
14:16:04:308014,14,5,21,30,35,-34,17,7
14:16:04:322887,1,5,-22,-16,-67,-31,-37,7
14:16:04:323693,1,5,-22,-16,-67,-31,-37,7
14:16:04:324476,-11,-29,-7,15,32,74,20,35
14:16:04:337269,-18,-12,-22,-23,-20,-17,-10,-10
14:16:04:338018,-18,-12,-22,-23,-20,-17,-10,-10
14:16:04:344002,5,-19,-6,-8,-24,-10,-11,-8
14:16:04:351637,-3,-24,-2,16,-19,-12,5,15
14:16:04:359061,-3,-24,-2,16,-19,-12,5,15
14:16:04:366467,8,7,-55,-1,22,11,-1,-24
14:16:04:374746,-8,4,6,-10,7,-1,10,-1
14:16:04:375640,-8,4,6,-10,7,-1,10,-1
14:16:04:381594,0,-22,4,-8,-19,29,-23,-11
14:16:04:397218,20,11,-4,25,69,56,52,62
14:16:04:398034,20,11,-4,25,69,56,52,62
14:16:04:404043,16,18,20,23,16,0,0,7
14:16:04:411463,-1,-10,-3,-27,-29,5,-83,-42
14:16:04:419145,-1,-10,-3,-27,-29,5,-83,-42
14:16:04:426500,-8,-7,-20,-10,14,10,-27,-25
14:16:04:434779,9,8,-2,0,20,-9,17,36
14:16:04:435687,9,8,-2,0,20,-9,17,36
14:16:04:441542,-8,-1,7,11,-4,-22,-7,-6
14:16:04:457251,-9,2,-10,-1,-38,-45,-5,-2
14:16:04:458007,-9,2,-10,-1,-38,-45,-5,-2
14:16:04:463988,-6,-17,47,2,29,26,33,6
14:16:04:471534,-3,-10,2,31,54,63,4,20
14:16:04:479036,-3,-10,2,31,54,63,4,20
14:16:04:486577,-3,16,-21,1,48,12,12,-12
14:16:04:493983,-16,-11,20,19,66,-3,11,-28
14:16:04:502142,-16,-11,20,19,66,-3,11,-28
14:16:04:508997,-17,-38,-22,-37,-37,-13,-9,-24
14:16:04:517274,-35,-38,13,5,15,4,-2,-54
14:16:04:518005,-35,-38,13,5,15,4,-2,-54
14:16:04:524042,-5,-14,-20,-8,-27,-22,-22,7
14:16:04:531669,9,0,-10,17,-36,-5,6,-4
14:16:04:539115,9,0,-10,17,-36,-5,6,-4
14:16:04:546522,16,26,20,12,17,49,-5,11
14:16:04:554742,-6,9,-31,-4,11,8,-26,-15
14:16:04:555610,-6,9,-31,-4,11,8,-26,-15
14:16:04:561472,17,8,-3,14,-16,-7,-1,23
14:16:04:577153,22,30,32,1,35,19,22,24
14:16:04:577980,22,30,32,1,35,19,22,24
14:16:04:584025,-25,-1,-13,-19,-53,-59,-31,-45
14:16:04:591526,22,4,9,-24,-29,-9,21,12
14:16:04:599149,22,4,9,-24,-29,-9,21,12
14:16:04:606492,1,14,-10,14,52,47,12,-9
14:16:04:614788,-9,6,-25,-20,-5,-40,-11,16
14:16:04:615591,-9,6,-25,-20,-5,-40,-11,16
14:16:04:621546,-9,-54,-24,-14,-46,-12,12,-6
14:16:04:637309,18,7,33,6,24,17,-7,-1
14:16:04:638001,18,7,33,6,24,17,-7,-1
14:16:04:643937,-10,20,-1,-11,-11,8,48,47
14:16:04:651571,0,-2,28,22,-46,-77,37,55
14:16:04:659058,0,-2,28,22,-46,-77,37,55
14:16:04:666554,22,9,14,15,40,34,4,44
14:16:04:674707,-4,7,-22,-34,-42,-15,-59,-48
14:16:04:675604,-4,7,-22,-34,-42,-15,-59,-48
14:16:04:681618,-8,-13,3,-7,58,-20,-3,-11
14:16:04:697258,6,32,24,1,0,63,16,41
14:16:04:698017,6,32,24,1,0,63,16,41
14:16:04:704070,16,7,19,-17,-30,-11,-1,-7
14:16:04:719783,2,3,-11,-16,-17,-38,33,-15
14:16:04:720587,2,3,-11,-16,-17,-38,33,-15
14:16:04:726454,-7,-12,-48,-29,-13,-27,35,-15
14:16:04:734767,1,-23,-1,-8,17,0,12,-12
14:16:04:735611,1,-23,-1,-8,17,0,12,-12
14:16:04:749039,-11,-4,19,8,-40,29,-1,3
14:16:04:757228,7,34,-2,25,55,-64,-6,-22
14:16:04:758000,7,34,-2,25,55,-64,-6,-22
14:16:04:764034,23,64,36,13,52,-34,23,12
14:16:04:779719,-17,-44,-11,-10,-23,22,-17,-7
14:16:04:780507,-17,-44,-11,-10,-23,22,-17,-7
14:16:04:786575,-5,11,17,-30,-46,-19,-20,-15
14:16:04:794706,11,-29,-15,15,12,25,50,-2
14:16:04:795613,11,-29,-15,15,12,25,50,-2
14:16:04:808972,4,-20,2,15,15,24,-1,16
14:16:04:817003,0,-15,-19,-37,-22,18,-37,1
14:16:04:824726,0,-15,-19,-37,-22,18,-37,1
14:16:04:825563,-1,13,17,-26,-76,-61,-14,7
14:16:04:839713,-6,-21,6,22,44,61,3,21
14:16:04:840519,-6,-21,6,22,44,61,3,21
14:16:04:846525,-11,-21,-8,-16,-7,-41,-20,-6
14:16:04:854710,19,22,-4,10,-39,33,26,11
14:16:04:855527,19,22,-4,10,-39,33,26,11
14:16:04:869119,-2,10,3,25,12,56,-31,-9
14:16:04:877221,-8,5,-15,-3,-7,-1,-35,-30
14:16:04:877971,-8,5,-15,-3,-7,-1,-35,-30
14:16:04:884048,-4,-69,-4,2,17,17,8,44
14:16:04:899806,0,18,-6,29,4,23,-16,-31
14:16:04:900483,0,18,-6,29,4,23,-16,-31
14:16:04:906549,-7,-12,-33,-7,-21,-9,17,-18
14:16:04:914772,-18,-11,20,-10,15,19,9,-6
14:16:04:915487,-18,-11,20,-10,15,19,9,-6
14:16:04:929051,16,35,-12,21,71,-1,0,-16
14:16:04:937336,0,44,-6,-34,-60,-24,-15,-8
14:16:04:938046,0,44,-6,-34,-60,-24,-15,-8
14:16:04:943987,-15,-12,-12,12,-116,-97,-14,-14
14:16:04:959675,-1,12,27,21,95,-8,-10,2
14:16:04:960450,-1,12,27,21,95,-8,-10,2
14:16:04:966554,-13,-12,-27,-6,55,51,4,-4
14:16:04:974714,-3,2,3,3,-28,-22,24,26
14:16:04:975493,-3,2,3,3,-28,-22,24,26
14:16:04:989513,0,18,-4,-11,10,8,-5,-7
14:16:04:997192,-14,-35,1,-52,-58,-74,-37,-9
14:16:04:998023,-14,-35,1,-52,-58,-74,-37,-9
14:16:05:4115,3,10,6,3,11,14,34,12
14:16:05:19838,14,6,0,0,9,39,11,8
14:16:05:20592,14,6,0,0,9,39,11,8
14:16:05:26472,-5,-6,-5,-5,-38,-5,-33,-23
14:16:05:34072,-8,8,5,-4,-18,-47,-21,-13
14:16:05:41550,-8,8,5,-4,-18,-47,-21,-13
14:16:05:49097,-2,0,0,22,45,55,5,-12
14:16:05:57206,-6,4,-19,-6,-23,-3,4,7
14:16:05:58010,-6,4,-19,-6,-23,-3,4,7
14:16:05:64030,-6,10,1,-4,6,-38,8,-7
14:16:05:79685,24,-16,-12,-7,2,16,-5,-7
14:16:05:80458,24,-16,-12,-7,2,16,-5,-7
14:16:05:86619,20,17,7,20,-6,-60,43,4
14:16:05:94677,-6,4,-3,17,69,-21,64,38
14:16:05:95515,-6,4,-3,17,69,-21,64,38
14:16:05:109067,-11,-6,-12,-35,-46,-11,-49,-15
14:16:05:117270,-11,-6,-12,-35,-46,-11,-49,-15
14:16:05:117987,-6,-26,-14,8,-4,24,1,8
14:16:05:124067,-1,10,-2,-30,-7,19,-2,5
14:16:05:139779,-1,10,-2,-30,-7,19,-2,5
14:16:05:140622,-2,-2,8,0,18,34,-11,-15
14:16:05:146547,0,-30,3,23,3,4,4,2
14:16:05:162270,0,-30,3,23,3,4,4,2
14:16:05:163001,-15,-3,-24,-41,-16,25,-36,-8
14:16:05:169047,19,5,23,24,68,71,-1,28
14:16:05:177168,19,5,23,24,68,71,-1,28
14:16:05:177946,1,-3,-7,36,8,20,6,10
14:16:05:184032,-22,4,4,-2,4,-60,-37,-41
14:16:05:199777,-22,4,4,-2,4,-60,-37,-41
14:16:05:200600,2,10,5,-18,-40,-20,30,35
14:16:05:206555,9,25,4,-18,30,-12,17,-18
14:16:05:222250,9,25,4,-18,30,-12,17,-18
14:16:05:223050,-4,-8,2,-1,2,-37,-18,-30
14:16:05:229028,5,-1,22,-11,-1,37,-21,14
14:16:05:237306,5,-1,22,-11,-1,37,-21,14
14:16:05:238033,-2,-22,-48,-37,-3,26,-7,-35
14:16:05:243986,-4,-1,-2,-2,3,49,3,9
14:16:05:259748,-4,-1,-2,-2,3,49,3,9
14:16:05:260576,4,13,47,29,63,5,1,15
14:16:05:266554,-38,-8,-53,-2,-2,-27,-1,-14
14:16:05:282313,-38,-8,-53,-2,-2,-27,-1,-14
14:16:05:283053,-19,-5,-15,11,-29,-56,-11,-39
14:16:05:289020,20,4,59,5,-26,0,4,22
14:16:05:297268,20,4,59,5,-26,0,4,22
14:16:05:298011,14,6,10,11,-2,-24,11,10
14:16:05:304077,10,-31,-48,-28,-31,-14,13,-8
14:16:05:319807,10,-31,-48,-28,-31,-14,13,-8
14:16:05:320581,-3,5,-12,-13,-19,23,1,-26
14:16:05:326447,-1,25,0,11,-49,-13,-10,12
14:16:05:342244,-1,25,0,11,-49,-13,-10,12
14:16:05:342967,-5,-3,36,16,9,31,0,19
14:16:05:349055,2,13,18,22,-28,-10,-7,-6
14:16:05:357201,2,13,18,22,-28,-10,-7,-6
14:16:05:358044,3,12,26,11,-17,-24,10,8
14:16:05:364054,7,11,42,5,5,-4,-11,-9
14:16:05:379742,7,11,42,5,5,-4,-11,-9
14:16:05:380486,-5,-15,-15,-17,-12,25,-29,-4
14:16:05:386588,16,-12,4,43,42,57,21,12
14:16:05:402323,16,-12,4,43,42,57,21,12
14:16:05:403048,-5,-4,-16,17,8,-16,-11,-4
14:16:05:408977,-21,-10,-14,-24,21,-84,-21,-2
14:16:05:417295,-21,-10,-14,-24,21,-84,-21,-2
14:16:05:418076,1,7,-4,9,-3,7,-3,-35
14:16:05:424012,-6,-23,-25,-18,-26,-17,-1,2
14:16:05:439762,-6,-23,-25,-18,-26,-17,-1,2
14:16:05:440486,9,14,-4,-18,6,16,-15,-16
14:16:05:446506,-18,-18,-11,-12,8,-28,12,-35
14:16:05:462213,-18,-18,-11,-12,8,-28,12,-35
14:16:05:463021,13,-4,15,25,20,1,6,9
14:16:05:469127,-12,-7,-19,-24,-14,36,-10,1
14:16:05:477202,-12,-7,-19,-24,-14,36,-10,1
14:16:05:477979,-17,-22,26,43,54,13,15,2
14:16:05:484043,-1,6,18,44,44,30,5,0
14:16:05:499757,-1,6,18,44,44,30,5,0
14:16:05:500512,0,1,-3,-30,-64,-13,-25,4
14:16:05:506521,10,4,9,8,24,23,12,-8
14:16:05:522222,10,4,9,8,24,23,12,-8
14:16:05:522995,-10,16,-10,15,35,-6,49,27
14:16:05:529020,-4,-16,-15,-7,-41,3,-18,0
14:16:05:537278,-4,-16,-15,-7,-41,3,-18,0
14:16:05:538001,-11,-33,-14,4,-15,-67,-39,-20
14:16:05:543922,-6,-3,17,-15,-9,1,5,29
14:16:05:559703,-6,-3,17,-15,-9,1,5,29
14:16:05:560489,1,20,19,-6,-16,32,15,-25
14:16:05:566671,-9,-16,-22,-20,-28,-14,-11,-14
14:16:05:582328,-9,-16,-22,-20,-28,-14,-11,-14
14:16:05:583033,-5,-26,-58,-30,-20,1,4,4
14:16:05:589030,4,-4,12,-24,-15,-21,0,8
14:16:05:597283,4,-4,12,-24,-15,-21,0,8
14:16:05:598008,4,0,-10,2,14,-19,-24,40
14:16:05:604054,8,-9,10,10,18,34,10,33
14:16:05:619858,8,-9,10,10,18,34,10,33
14:16:05:620635,8,13,-29,-34,-17,-16,-31,-17
14:16:05:626493,7,30,11,18,1,26,85,7
14:16:05:642275,7,30,11,18,1,26,85,7
14:16:05:642984,10,-12,8,-1,-38,-45,32,35
14:16:05:649057,-1,5,-7,12,14,-31,12,-1
14:16:05:657217,-1,5,-7,12,14,-31,12,-1
14:16:05:658008,12,8,-1,-15,-6,31,15,47
14:16:05:671511,-13,3,26,-13,-20,-24,-49,-36
14:16:05:679785,-13,3,26,-13,-20,-24,-49,-36
14:16:05:680603,-17,-20,4,10,32,-11,-5,-20
14:16:05:686668,1,-29,-65,10,6,45,-8,7
14:16:05:694019,1,-29,-65,10,6,45,-8,7
14:16:05:701574,-9,-24,51,-7,-9,-18,-7,-7
14:16:05:709030,15,6,-4,-18,-9,-12,-10,-2
14:16:05:717230,15,6,-4,-18,-9,-12,-10,-2
14:16:05:717994,7,-4,-14,11,12,53,10,3
14:16:05:731661,17,18,-9,2,-9,-1,5,-33
14:16:05:739751,17,18,-9,2,-9,-1,5,-33
14:16:05:740512,2,44,24,16,33,-36,33,-33
14:16:05:746547,2,-8,-15,16,-24,-17,15,19
14:16:05:754130,2,-8,-15,16,-24,-17,15,19
14:16:05:761467,-8,15,-26,29,11,47,-9,-30
14:16:05:769095,-14,5,-1,-24,-18,0,-17,0
14:16:05:777222,-14,5,-1,-24,-18,0,-17,0
14:16:05:777972,-2,11,-20,-43,-36,-21,-13,15
14:16:05:791538,8,2,16,35,28,-1,-12,16
14:16:05:799716,8,2,16,35,28,-1,-12,16
14:16:05:800459,-7,-6,-11,24,15,8,2,-12
14:16:05:806476,-15,-13,11,-30,-2,-31,-29,-46
14:16:05:814118,-15,-13,11,-30,-2,-31,-29,-46
14:16:05:821553,11,-10,-8,-18,-33,-16,18,40
14:16:05:829006,-11,-19,1,19,5,-21,7,-2
14:16:05:837313,-11,-19,1,19,5,-21,7,-2
14:16:05:838023,-17,-39,18,1,-57,-28,-10,-7
14:16:05:851577,14,30,31,5,56,44,31,4
14:16:05:859683,14,30,31,5,56,44,31,4
14:16:05:860473,1,0,5,-33,-34,16,-23,36
14:16:05:866528,9,16,5,-2,-12,13,-5,1
14:16:05:874105,9,16,5,-2,-12,13,-5,1
14:16:05:881605,-7,-5,-13,38,59,23,-4,-41
14:16:05:889007,-12,-14,-16,-32,-26,-11,-23,25
14:16:05:897238,-12,-14,-16,-32,-26,-11,-23,25
14:16:05:897987,15,8,18,2,17,9,-4,-5
14:16:05:911501,-13,-28,-14,-7,5,5,-9,-36
14:16:05:919835,-13,-28,-14,-7,5,5,-9,-36
14:16:05:920512,-14,9,-19,-36,-86,-96,36,-30
14:16:05:926473,6,6,-6,21,90,84,35,24
14:16:05:934146,6,6,-6,21,90,84,35,24
14:16:05:941555,-1,9,-24,-5,11,17,-40,6
14:16:05:949097,-15,-3,-32,-3,-56,-63,-7,-23
14:16:05:957206,-15,-3,-32,-3,-56,-63,-7,-23
14:16:05:957997,14,32,13,9,19,22,-17,-16
14:16:05:971532,9,25,11,-42,6,-13,-37,-7
14:16:05:979772,9,25,11,-42,6,-13,-37,-7
14:16:05:980631,-13,-7,-21,-16,12,-41,-18,-4
14:16:05:986603,12,7,11,8,0,26,55,32
14:16:05:993985,12,7,11,8,0,26,55,32
14:16:06:1608,0,-13,-6,19,20,26,-7,-5
14:16:06:9051,-5,5,4,13,-20,-32,-31,-2
14:16:06:17242,-5,5,4,13,-20,-32,-31,-2
14:16:06:18027,-14,-5,-20,-36,-57,-8,-41,2
14:16:06:31609,-1,-16,-3,69,27,38,14,1
14:16:06:39743,-1,-16,-3,69,27,38,14,1
14:16:06:40466,2,7,2,19,35,12,21,-8
14:16:06:46542,-19,-11,-6,-37,-7,4,-24,-29
14:16:06:54141,-19,-11,-6,-37,-7,4,-24,-29
14:16:06:61462,-2,-2,-1,-20,-12,20,73,16
14:16:06:69019,-14,-37,-73,-6,-21,-18,-9,-21
14:16:06:77189,-14,-37,-73,-6,-21,-18,-9,-21
14:16:06:77963,4,27,47,-17,6,2,-3,-5
14:16:06:91511,-5,-15,-14,13,20,0,-6,19
14:16:06:99777,-5,-15,-14,13,20,0,-6,19
14:16:06:100471,-14,-53,21,3,-2,52,-6,3
14:16:06:106511,3,-8,36,-8,22,-19,-7,19
14:16:06:114040,3,-8,36,-8,22,-19,-7,19
14:16:06:121519,23,33,24,27,5,9,-9,-5
14:16:06:128991,17,13,-1,8,-15,8,4,-14
14:16:06:137295,17,13,-1,8,-15,8,4,-14
14:16:06:138015,5,-13,-21,21,7,7,46,60
14:16:06:151590,-5,1,18,-36,-44,-37,-2,21
14:16:06:159736,-5,1,18,-36,-44,-37,-2,21
14:16:06:160514,-14,44,25,14,-9,-9,-28,-57
14:16:06:166559,5,33,20,-1,12,11,-13,-32
14:16:06:174102,5,33,20,-1,12,11,-13,-32
14:16:06:181565,-13,-19,-20,-15,17,13,-10,1
14:16:06:189013,-16,1,18,-7,-13,-6,14,-8
14:16:06:197287,-16,1,18,-7,-13,-6,14,-8
14:16:06:198007,19,-4,1,6,34,33,-6,-29
14:16:06:211486,19,22,11,1,34,16,8,56
14:16:06:219845,19,22,11,1,34,16,8,56
14:16:06:220529,-2,5,-6,7,21,64,31,6
14:16:06:226471,-11,-11,-36,-27,-62,-29,-30,-28
14:16:06:234118,-11,-11,-36,-27,-62,-29,-30,-28
14:16:06:241525,-2,-15,-16,-19,-7,-34,31,-2
14:16:06:249100,18,-5,-14,-8,-22,-78,-12,38
14:16:06:257217,18,-5,-14,-8,-22,-78,-12,38
14:16:06:257975,5,2,1,12,-27,-14,-10,17
14:16:06:271511,16,7,16,17,11,15,-24,-3
14:16:06:279771,16,7,16,17,11,15,-24,-3
14:16:06:280594,-2,9,-25,-6,-10,-74,-16,0
14:16:06:286576,-39,-22,-35,0,-30,-1,-12,-2
14:16:06:294007,-39,-22,-35,0,-30,-1,-12,-2
14:16:06:301653,-6,-16,-7,17,10,-3,-25,-16
14:16:06:309017,-1,-15,-11,-26,-8,4,-5,-32
14:16:06:317247,-1,-15,-11,-26,-8,4,-5,-32
14:16:06:317970,-5,-20,-36,8,-1,-7,-17,7
14:16:06:331659,-4,2,-8,-15,35,-2,55,-4
14:16:06:339751,-4,2,-8,-15,35,-2,55,-4
14:16:06:340462,6,-29,-7,4,20,14,3,10
14:16:06:346545,-2,10,45,-2,49,54,13,8
14:16:06:354137,-2,10,45,-2,49,54,13,8
14:16:06:361457,-4,2,21,-11,4,28,29,-26
14:16:06:369078,-2,-14,17,12,-1,-4,4,-3
14:16:06:377195,-2,-14,17,12,-1,-4,4,-3
14:16:06:377989,-1,-7,31,4,14,-5,31,-2
14:16:06:391570,13,17,-15,-6,-14,-15,-14,-14
14:16:06:399841,13,17,-15,-6,-14,-15,-14,-14
14:16:06:400488,-11,9,13,-20,-25,-20,-18,2
14:16:06:406494,2,5,-2,26,11,-7,-2,26
14:16:06:414074,2,5,-2,26,11,-7,-2,26
14:16:06:421521,3,26,-4,1,14,5,-18,16
14:16:06:429007,-14,-2,-3,2,-5,49,-1,-15
14:16:06:437338,-14,-2,-3,2,-5,49,-1,-15
14:16:06:438010,13,24,-5,-3,20,-27,-21,5
14:16:06:451574,-1,4,-3,-3,-29,-86,0,-23
14:16:06:459706,-1,4,-3,-3,-29,-86,0,-23
14:16:06:460495,-8,-11,5,21,5,-35,5,-2
14:16:06:474721,16,4,8,-14,-20,10,16,45
14:16:06:475505,16,4,8,-14,-20,10,16,45
14:16:06:481554,18,-12,-25,-9,-22,-17,1,12
14:16:06:489004,6,7,1,27,19,26,0,-18
14:16:06:497319,6,7,1,27,19,26,0,-18
14:16:06:498033,-20,6,27,4,9,23,-3,5
14:16:06:511556,-8,-18,11,5,-13,1,-11,0
14:16:06:519821,-8,-18,11,5,-13,1,-11,0
14:16:06:520509,5,-10,4,0,-34,-10,1,17
14:16:06:526430,-2,-39,-41,34,69,55,-1,-4
14:16:06:534082,-2,-39,-41,34,69,55,-1,-4
14:16:06:541537,-5,8,34,-2,-11,-89,0,-15
14:16:06:549034,11,20,28,12,-8,-29,27,6
14:16:06:557266,11,20,28,12,-8,-29,27,6
14:16:06:558022,2,-1,-14,-29,-25,16,-13,38
14:16:06:571512,-26,-9,-16,-16,-3,-10,-31,-78
14:16:06:579834,-26,-9,-16,-16,-3,-10,-31,-78
14:16:06:580523,-3,10,18,6,-19,16,-9,-6
14:16:06:586616,13,36,17,-19,-5,29,-28,-2
14:16:06:594058,13,36,17,-19,-5,29,-28,-2
14:16:06:601614,-16,-49,-63,5,17,17,-9,-7
14:16:06:608995,13,15,10,15,-7,-2,8,25
14:16:06:616665,13,15,10,15,-7,-2,8,25
14:16:06:624025,-2,-2,-15,15,28,36,16,2
14:16:06:631653,-27,-7,-6,3,13,-69,-13,-8
14:16:06:639737,-27,-7,-6,3,13,-69,-13,-8
14:16:06:640467,3,-8,-6,-18,65,21,35,16
14:16:06:654790,31,29,19,-2,-19,2,-9,-34
14:16:06:655636,31,29,19,-2,-19,2,-9,-34
14:16:06:661519,-24,-40,40,0,-39,-8,6,-15
14:16:06:669093,-11,-3,-48,-20,-16,-63,29,21
14:16:06:676520,-11,-3,-48,-20,-16,-63,29,21
14:16:06:684068,-8,14,3,-16,-5,21,-12,-28
14:16:06:691531,5,-6,21,-22,-18,47,-7,-7
14:16:06:699768,5,-6,21,-22,-18,47,-7,-7
14:16:06:700509,3,4,-22,-11,-24,-17,-5,-1
14:16:06:714810,-25,-85,-4,-38,-17,3,-2,1
14:16:06:715513,-25,-85,-4,-38,-17,3,-2,1
14:16:06:729762,3,16,8,15,-16,-38,-16,-3
14:16:06:730456,17,23,-3,6,38,1,0,30
14:16:06:736707,17,23,-3,6,38,1,0,30
14:16:06:743998,10,20,26,0,-24,-31,-38,-23
14:16:06:751587,-10,33,19,4,17,24,-5,4
14:16:06:759660,-10,33,19,4,17,24,-5,4
14:16:06:760506,15,47,-10,-15,-7,-94,-18,23
14:16:06:774695,-12,-10,-17,-41,-33,60,-4,-1
14:16:06:775492,-12,-10,-17,-41,-33,60,-4,-1
14:16:06:781579,18,16,-3,15,37,80,30,23
14:16:06:789038,-1,0,-26,12,-1,-2,-15,-3
14:16:06:796546,-1,0,-26,12,-1,-2,-15,-3
14:16:06:804083,4,-3,-37,26,40,21,13,13
14:16:06:820401,4,-2,6,14,-14,3,-6,-9
14:16:06:821143,4,-2,6,14,-14,3,-6,-9
14:16:06:821953,-4,-11,8,-44,-44,-65,-19,-12
14:16:06:834753,-1,-14,-3,24,-13,-5,3,14
14:16:06:835584,-1,-14,-3,24,-13,-5,3,14
14:16:06:841475,-17,-26,-29,-12,-23,-4,-2,-63
14:16:06:849010,22,13,12,-5,9,12,33,-2
14:16:06:856618,22,13,12,-5,9,12,33,-2
14:16:06:864055,5,-1,16,-18,2,-33,31,0
14:16:06:871501,-11,-7,7,9,-6,2,19,32
14:16:06:879716,-11,-7,7,9,-6,2,19,32
14:16:06:880484,-19,-44,-17,21,-30,11,-46,-23
14:16:06:894660,-12,4,29,-6,14,-26,-10,2
14:16:06:895469,-12,4,29,-6,14,-26,-10,2
14:16:06:901586,-36,-47,-19,-18,-44,30,-38,-19
14:16:06:908986,1,-6,-16,64,34,24,7,-14
14:16:06:916514,1,-6,-16,64,34,24,7,-14
14:16:06:923991,-3,22,8,26,78,54,2,6
14:16:06:931642,0,-1,-29,9,-36,-22,10,7
14:16:06:939662,0,-1,-29,9,-36,-22,10,7
14:16:06:940440,36,19,19,1,-12,3,4,50
14:16:06:954636,-21,3,23,-33,-55,-80,4,-16
14:16:06:955445,-21,3,23,-33,-55,-80,4,-16
14:16:06:961458,-4,1,34,6,-59,18,39,-8
14:16:06:969098,18,-14,-45,-26,-70,28,8,33
14:16:06:976536,18,-14,-45,-26,-70,28,8,33
14:16:06:984002,-13,-4,-13,-23,-1,10,5,-5
14:16:06:991455,19,8,15,9,48,8,19,28
14:16:07:7182,19,8,15,9,48,8,19,28
14:16:07:7957,7,-18,-9,47,36,22,1,37
14:16:07:14772,-39,-52,-94,-33,-5,3,-42,-21
14:16:07:15515,-39,-52,-94,-33,-5,3,-42,-21
14:16:07:21469,-15,2,-5,-29,19,-5,12,7
14:16:07:28952,5,17,10,16,21,-62,-8,-16
14:16:07:36688,5,17,10,16,21,-62,-8,-16
14:16:07:43980,-6,6,37,19,43,16,-3,-20
14:16:07:51646,-8,-8,2,-16,-1,-14,16,-6
14:16:07:59695,-8,-8,2,-16,-1,-14,16,-6
14:16:07:60498,9,21,-2,-44,-49,-67,-78,-35
14:16:07:74783,11,20,49,33,72,81,57,-12
14:16:07:75608,11,20,49,33,72,81,57,-12
14:16:07:81571,1,13,-6,-9,0,9,10,-18
14:16:07:89073,-20,5,11,-22,11,23,-36,2
14:16:07:96694,-20,5,11,-22,11,23,-36,2
14:16:07:104075,22,30,-58,-21,-13,27,16,-3
14:16:07:111492,3,4,4,-12,-18,-40,-2,5
14:16:07:119833,3,4,4,-12,-18,-40,-2,5
14:16:07:120619,1,7,59,6,-2,10,-20,-5
14:16:07:134774,-2,-12,-9,7,71,104,-21,-1
14:16:07:135553,-2,-12,-9,7,71,104,-21,-1
14:16:07:141515,4,7,26,3,43,66,29,-12
14:16:07:149045,3,-29,4,23,-23,-24,-46,-17
14:16:07:156634,3,-29,4,23,-23,-24,-46,-17
14:16:07:164044,-2,-18,2,-2,-39,-71,44,-26
14:16:07:171548,-17,-42,-64,-27,-50,-27,-3,8
14:16:07:179743,-17,-42,-64,-27,-50,-27,-3,8
14:16:07:180480,-52,-19,-14,-4,51,52,-18,-18
14:16:07:194644,22,16,-13,19,60,-29,16,-5
14:16:07:195481,22,16,-13,19,60,-29,16,-5
14:16:07:201661,8,4,-2,14,19,1,1,47
14:16:07:209045,-17,-9,20,10,25,5,-12,-11
14:16:07:216601,-17,-9,20,10,25,5,-12,-11
14:16:07:224068,4,16,-11,-24,-20,4,2,9
14:16:07:231636,11,5,19,12,-24,-9,-4,4
14:16:07:239754,11,5,19,12,-24,-9,-4,4
14:16:07:240470,21,9,-5,-17,-9,74,-14,10
14:16:07:254726,3,-2,-12,2,56,51,-14,28
14:16:07:255532,3,-2,-12,2,56,51,-14,28
14:16:07:261473,12,10,11,20,30,6,24,15
14:16:07:269082,-29,14,31,-13,-41,-20,-21,-45
14:16:07:276513,-29,14,31,-13,-41,-20,-21,-45
14:16:07:284041,6,-19,-30,-21,-31,-19,-38,2
14:16:07:291485,24,43,-2,10,2,-14,18,27
14:16:07:299704,24,43,-2,10,2,-14,18,27
14:16:07:300479,-1,-10,-4,16,-23,-40,-2,0
14:16:07:314795,-7,-17,-29,-39,-24,26,-13,24
14:16:07:315532,-7,-17,-29,-39,-24,26,-13,24
14:16:07:321494,15,10,21,66,93,-53,44,58
14:16:07:328999,28,4,-25,-1,-13,71,53,5
14:16:07:336594,28,4,-25,-1,-13,71,53,5
14:16:07:343979,-10,1,26,9,57,29,8,-31
14:16:07:351542,6,35,45,21,11,2,-8,19
14:16:07:359711,6,35,45,21,11,2,-8,19
14:16:07:360488,-4,-14,-8,-7,-30,-5,27,13
14:16:07:374713,-22,-49,28,-32,-47,-13,-5,-8
14:16:07:375527,-22,-49,28,-32,-47,-13,-5,-8
14:16:07:381578,-5,-7,-13,-24,-45,-39,-37,-1
14:16:07:389029,-4,18,32,3,-20,-58,-25,-48
14:16:07:396631,-4,18,32,3,-20,-58,-25,-48
14:16:07:404111,2,-12,-5,19,42,32,8,3
14:16:07:411498,16,10,-24,13,-10,-56,15,16
14:16:07:419802,16,10,-24,13,-10,-56,15,16
14:16:07:420695,-9,10,13,-17,-68,-58,-18,7
14:16:07:434755,-5,-5,41,28,21,6,44,-12
14:16:07:435566,-5,-5,41,28,21,6,44,-12
14:16:07:441516,-5,-22,-39,-21,-43,5,26,10
14:16:07:449092,-13,0,-4,-13,3,3,-15,-19
14:16:07:456674,-13,0,-4,-13,3,3,-15,-19
14:16:07:464075,-19,-4,-22,-8,-6,3,-20,-8
14:16:07:471522,-12,12,1,12,-1,25,-22,-18
14:16:07:479697,-12,12,1,12,-1,25,-22,-18
14:16:07:480479,-13,-13,-32,-17,38,-36,0,-7
14:16:07:494658,14,14,-3,33,53,20,9,-5
14:16:07:495457,14,14,-3,33,53,20,9,-5
14:16:07:501574,-20,-22,3,-6,-16,-6,-28,-10
14:16:07:508996,-11,-6,-5,2,-24,-22,22,13
14:16:07:516542,-11,-6,-5,2,-24,-22,22,13
14:16:07:524053,8,25,-3,9,-32,4,-16,-27
14:16:07:531597,1,-7,-29,-30,10,31,-38,-16
14:16:07:539717,1,-7,-29,-30,10,31,-38,-16
14:16:07:540455,25,24,67,0,27,47,45,31
14:16:07:554693,20,-18,-55,-52,-17,-28,-3,35
14:16:07:555498,20,-18,-55,-52,-17,-28,-3,35
14:16:07:561471,3,23,0,-12,-30,-1,-38,-7
14:16:07:577197,-28,-7,-22,-15,-82,-68,-51,-25
14:16:07:577979,-28,-7,-22,-15,-82,-68,-51,-25
14:16:07:584080,11,1,11,63,3,30,7,6
14:16:07:599748,11,11,17,15,25,36,-17,6
14:16:07:600629,11,11,17,15,25,36,-17,6
14:16:07:606516,-5,12,13,8,-5,-37,-61,-16
14:16:07:614794,-21,-29,20,20,5,-95,67,69
14:16:07:615501,-21,-29,20,20,5,-95,67,69
14:16:07:621542,-16,-32,-20,-3,-15,13,40,-14
14:16:07:637325,25,0,-16,-40,-32,5,-2,-17
14:16:07:638052,25,0,-16,-40,-32,5,-2,-17
14:16:07:643980,20,3,1,6,3,9,4,-6
14:16:07:651603,11,13,27,25,26,22,6,-11
14:16:07:659071,11,13,27,25,26,22,6,-11
14:16:07:666566,-8,3,3,4,15,-11,-22,1
14:16:07:674666,-2,-45,-26,17,59,36,-7,-3
14:16:07:675487,-2,-45,-26,17,59,36,-7,-3
14:16:07:681540,-13,-13,-31,19,8,-34,-8,2
14:16:07:697179,-1,32,28,-3,-41,-50,-9,-51
14:16:07:698010,-1,32,28,-3,-41,-50,-9,-51
14:16:07:704108,-20,-35,-2,-9,-10,3,-6,-3
14:16:07:711528,26,-21,-10,17,3,72,16,9
14:16:07:719119,26,-21,-10,17,3,72,16,9
14:16:07:726472,35,57,44,-2,-38,-70,-13,-20
14:16:07:734710,-11,-25,-1,-2,-7,-9,-10,6
14:16:07:735500,-11,-25,-1,-2,-7,-9,-10,6
14:16:07:741491,5,1,29,32,49,34,0,-8
14:16:07:757222,-11,11,-17,16,16,23,5,-3
14:16:07:758002,-11,11,-17,16,16,23,5,-3
14:16:07:764039,-4,27,11,-1,-38,44,-27,-3
14:16:07:771492,-15,-29,33,-11,-4,-42,-32,-14
14:16:07:779059,-15,-29,33,-11,-4,-42,-32,-14
14:16:07:786528,-38,-53,-42,-17,12,-47,5,-37
14:16:07:794688,-16,41,18,-3,21,82,47,4
14:16:07:795533,-16,41,18,-3,21,82,47,4
14:16:07:801570,11,-17,-19,-29,8,32,8,7
14:16:07:817221,8,-7,-21,-15,-47,-26,-31,-43
14:16:07:818012,8,-7,-21,-15,-47,-26,-31,-43
14:16:07:823989,-19,4,30,-6,7,20,14,-7
14:16:07:831531,2,19,-29,-60,-10,-11,-20,-16
14:16:07:839078,2,19,-29,-60,-10,-11,-20,-16
14:16:07:846566,13,-18,-63,-5,11,-11,11,26
14:16:07:854696,-3,19,28,15,20,-21,-6,-4
14:16:07:855551,-3,19,28,15,20,-21,-6,-4
14:16:07:861500,3,-4,-7,-14,-68,-31,-14,-37
14:16:07:877201,4,1,14,28,23,11,7,43
14:16:07:878029,4,1,14,28,23,11,7,43
14:16:07:884038,7,-16,-29,-12,7,24,-12,-27
14:16:07:891497,-20,3,8,-36,-30,53,13,-1
14:16:07:899126,-20,3,8,-36,-30,53,13,-1
14:16:07:906530,4,-15,8,12,27,77,42,119
14:16:07:914707,2,-13,2,-14,-17,-18,21,20
14:16:07:915485,2,-13,2,-14,-17,-18,21,20
14:16:07:921535,0,-31,0,24,-32,-46,11,-20
14:16:07:937282,15,22,17,33,6,-1,22,11
14:16:07:938026,15,22,17,33,6,-1,22,11
14:16:07:943985,-6,18,19,-38,-69,19,-12,-5
14:16:07:951610,-4,4,-30,-4,-8,29,11,-48
14:16:07:959001,-4,4,-30,-4,-8,29,11,-48
14:16:07:966523,13,26,21,18,93,52,42,17
14:16:07:974698,-17,-9,-16,-16,-18,-8,-12,-31
14:16:07:975494,-17,-9,-16,-16,-18,-8,-12,-31
14:16:07:981529,-19,11,9,-9,-14,-24,-15,-36
14:16:07:997193,3,-7,-35,23,21,-23,-1,27
14:16:07:997992,3,-7,-35,23,21,-23,-1,27
14:16:08:4102,24,22,7,-1,-1,-14,-14,12
14:16:08:11534,-15,-3,18,16,27,-73,12,-7
14:16:08:19162,-15,-3,18,16,27,-73,12,-7
14:16:08:26463,9,-2,30,36,40,-15,15,-1
14:16:08:34741,-12,-31,-19,-34,-18,36,29,35
14:16:08:35517,-12,-31,-19,-34,-18,36,29,35
14:16:08:41499,5,-3,7,0,-2,-1,55,60
14:16:08:57223,17,-3,10,40,-26,-89,7,10
14:16:08:58031,17,-3,10,40,-26,-89,7,10
14:16:08:63995,18,5,-14,-54,-69,-48,-39,1
14:16:08:71529,-1,23,38,-8,-35,-6,-45,-8
14:16:08:79083,-1,23,38,-8,-35,-6,-45,-8
14:16:08:86562,-17,-25,-9,7,21,3,-12,-42
14:16:08:94703,-10,-23,-38,-13,-3,20,-39,-14
14:16:08:95499,-10,-23,-38,-13,-3,20,-39,-14
14:16:08:101542,-15,-2,-31,-15,25,43,3,-6
14:16:08:117255,1,17,35,-24,-4,8,-45,-4
14:16:08:118043,1,17,35,-24,-4,8,-45,-4
14:16:08:124001,7,-8,-53,-19,65,97,20,-7
14:16:08:131608,8,10,26,22,48,-17,44,21
14:16:08:139110,8,10,26,22,48,-17,44,21
14:16:08:146518,-2,10,30,24,24,-2,-7,-79
14:16:08:154810,-7,-1,24,-18,-21,12,-21,1
14:16:08:155572,-7,-1,24,-18,-21,12,-21,1
14:16:08:161508,-17,-8,-58,6,-51,-25,-35,-7
14:16:08:177206,1,1,-24,-6,5,-17,-7,-11
14:16:08:177996,1,1,-24,-6,5,-17,-7,-11
14:16:08:184108,6,-6,23,-12,-29,-39,-32,9
14:16:08:191532,-7,-15,-19,3,18,49,11,16
14:16:08:199147,-7,-15,-19,3,18,49,11,16
14:16:08:206500,2,25,7,22,51,10,-12,8
14:16:08:214747,-4,-19,8,8,-12,29,0,78
14:16:08:215542,-4,-19,8,8,-12,29,0,78
14:16:08:221565,-11,-15,-25,2,-17,16,11,13
14:16:08:237256,8,-14,6,16,-10,-31,-3,-12
14:16:08:237992,8,-14,6,16,-10,-31,-3,-12
14:16:08:244052,7,27,56,4,-30,-40,-2,25
14:16:08:251604,4,23,22,0,29,55,6,-29
14:16:08:259035,4,23,22,0,29,55,6,-29
14:16:08:266562,-2,-4,-6,-7,6,-9,-2,-12
14:16:08:274744,0,13,-10,5,15,-9,-2,-8
14:16:08:275539,0,13,-10,5,15,-9,-2,-8
14:16:08:281585,-1,0,18,-14,-6,1,-3,-8
14:16:08:297208,-7,-5,-1,-11,-20,-50,-18,-16
14:16:08:297988,-7,-5,-1,-11,-20,-50,-18,-16
14:16:08:304127,1,-23,10,22,-12,-5,36,7
14:16:08:311526,6,-12,-18,9,2,85,7,13
14:16:08:319147,6,-12,-18,9,2,85,7,13
14:16:08:326487,-9,20,-14,22,76,22,51,-40
14:16:08:334713,-6,0,7,5,25,0,-19,-11
14:16:08:335513,-6,0,7,5,25,0,-19,-11
14:16:08:341504,3,-12,-6,-35,-26,-11,-23,1
14:16:08:357199,-5,11,13,-32,-39,-35,-12,-16
14:16:08:357994,-5,11,13,-32,-39,-35,-12,-16
14:16:08:364004,-4,5,19,63,59,19,25,1
14:16:08:371527,2,-32,-51,-30,-3,-103,-40,-10
14:16:08:379075,2,-32,-51,-30,-3,-103,-40,-10
14:16:08:386568,-11,-3,4,-3,40,55,45,-23
14:16:08:394685,-9,9,19,10,-9,-55,16,35
14:16:08:395523,-9,9,19,10,-9,-55,16,35
14:16:08:401549,21,-3,-24,-14,25,-9,-52,15
14:16:08:417256,15,25,-28,-21,-10,31,13,-4
14:16:08:418012,15,25,-28,-21,-10,31,13,-4
14:16:08:431642,-22,-1,-7,-26,-111,-59,-32,20
14:16:08:439728,-22,-1,-7,-26,-111,-59,-32,20
14:16:08:440463,8,3,-39,-31,-18,22,-3,-17
14:16:08:446533,-5,-11,-12,-7,-47,-62,11,25
14:16:08:454745,-5,-11,-12,-7,-47,-62,11,25
14:16:08:455518,-9,22,7,-6,-31,30,-23,-30
14:16:08:461448,0,-12,-12,4,-4,-12,-29,-38
14:16:08:477199,0,-12,-12,4,-4,-12,-29,-38
14:16:08:477955,43,20,45,28,42,-38,46,18
14:16:08:484047,-16,8,-53,-18,-1,-34,-16,-16
14:16:08:499787,-16,8,-53,-18,-1,-34,-16,-16
14:16:08:500475,-12,-27,7,39,43,20,-34,11
14:16:08:506451,6,-5,8,13,55,46,3,-2
14:16:08:514837,6,-5,8,13,55,46,3,-2
14:16:08:515538,-6,-19,15,-26,-35,22,28,-6
14:16:08:529052,1,15,13,-31,-38,-29,-25,7
14:16:08:537259,1,15,13,-31,-38,-29,-25,7
14:16:08:537982,-12,-11,-38,-5,1,4,42,0
14:16:08:543933,10,-2,12,-55,-20,-65,-47,15
14:16:08:559663,10,-2,12,-55,-20,-65,-47,15
14:16:08:560462,12,14,-45,14,77,82,42,59
14:16:08:566517,-21,-38,-13,37,4,72,70,24
14:16:08:574722,-21,-38,-13,37,4,72,70,24
14:16:08:575530,6,13,8,-13,-36,-21,-55,-56
14:16:08:598009,11,20,45,12,-1,0,-14,4
14:16:08:598694,11,20,45,12,-1,0,-14,4
14:16:08:599525,-16,3,5,23,15,6,4,-5
14:16:08:604076,-3,-1,6,4,-23,-19,-7,-11
14:16:08:619788,-3,-1,6,4,-23,-19,-7,-11
14:16:08:620498,-7,1,9,-18,6,-49,-18,-3
14:16:08:626433,-6,-2,-17,-25,78,-35,40,-2
14:16:08:634834,-6,-2,-17,-25,78,-35,40,-2
14:16:08:635576,11,-8,-6,11,-1,53,-1,-15
14:16:08:649070,4,11,-42,-14,-110,-72,84,-14
14:16:08:657237,4,11,-42,-14,-110,-72,84,-14
14:16:08:658049,-2,-3,21,10,-30,-88,-13,-20
14:16:08:664032,32,17,16,10,15,28,-23,49
14:16:08:679755,32,17,16,10,15,28,-23,49
14:16:08:680527,-11,9,67,36,-2,19,17,6
14:16:08:686565,6,28,7,-14,14,33,-29,14
14:16:08:694709,6,28,7,-14,14,33,-29,14
14:16:08:695489,-8,-16,-38,-14,-22,-4,-12,-11
14:16:08:708992,-13,-24,-3,-14,7,25,5,-4
14:16:08:717251,-13,-24,-3,-14,7,25,5,-4
14:16:08:718015,-1,-2,-6,-18,-7,8,-7,-4
14:16:08:723980,-5,-12,-33,14,18,32,-38,-45
14:16:08:739738,-5,-12,-33,14,18,32,-38,-45
14:16:08:740498,-9,-15,-7,-16,-88,-45,-28,0
14:16:08:746520,14,5,38,65,45,56,-41,21
14:16:08:754760,14,5,38,65,45,56,-41,21
14:16:08:755524,-8,13,-11,-7,46,77,5,-4
14:16:08:769094,-1,-45,-85,-23,-37,-18,67,28
14:16:08:777190,-1,-45,-85,-23,-37,-18,67,28
14:16:08:777965,8,2,12,-38,-1,58,-32,-7
14:16:08:783982,-11,4,30,71,44,13,-4,-19
14:16:08:799788,-11,4,30,71,44,13,-4,-19
14:16:08:800477,5,-11,-7,13,-12,-84,24,-17
14:16:08:806464,-5,2,44,-1,-9,-2,-25,-11
14:16:08:814800,-5,2,44,-1,-9,-2,-25,-11
14:16:08:815495,6,-5,-35,-14,-78,-7,12,16
14:16:08:829038,-12,0,54,19,8,36,8,6
14:16:08:837250,-12,0,54,19,8,36,8,6
14:16:08:837999,-17,-26,-12,2,-1,37,-20,6
14:16:08:843967,-7,7,-60,-47,-40,-59,-54,-24
14:16:08:859679,-7,7,-60,-47,-40,-59,-54,-24
14:16:08:860464,18,24,-9,15,20,32,8,8
14:16:08:866639,16,24,27,-17,10,35,15,12
14:16:08:874741,16,24,27,-17,10,35,15,12
14:16:08:875527,-4,-10,-30,-29,-33,-26,-12,-18
14:16:08:889077,-12,3,9,-16,-52,-20,-12,-2
14:16:08:897236,-12,3,9,-16,-52,-20,-12,-2
14:16:08:898009,4,8,-22,35,66,19,23,6
14:16:08:904139,-15,-13,-27,-42,-65,-55,-6,-54
14:16:08:919810,-15,-13,-27,-42,-65,-55,-6,-54
14:16:08:920549,-5,-6,48,21,14,-38,-7,5
14:16:08:926480,12,0,13,30,61,35,40,27
14:16:08:934750,12,0,13,30,61,35,40,27
14:16:08:935477,-6,11,35,-4,12,9,63,-6
14:16:08:949109,-1,-9,-5,-11,-24,-33,-10,-7
14:16:08:957225,-1,-9,-5,-11,-24,-33,-10,-7
14:16:08:957997,-6,-13,-13,12,-2,-9,3,1
14:16:08:964030,17,7,-3,26,77,41,23,37
14:16:08:979791,17,7,-3,26,77,41,23,37
14:16:08:980569,-4,-3,10,7,7,53,-14,-6
14:16:08:986618,1,17,36,-6,-39,-88,-8,0
14:16:08:994685,1,17,36,-6,-39,-88,-8,0
14:16:08:995535,0,-1,-25,-45,-48,-70,-28,-11
14:16:09:9035,-23,-8,-6,-25,-37,28,-36,-3
14:16:09:17261,-23,-8,-6,-25,-37,28,-36,-3
14:16:09:18059,-9,0,15,13,-6,8,-40,-49
14:16:09:24027,4,5,-15,17,19,-24,13,9
14:16:09:39767,4,5,-15,17,19,-24,13,9
14:16:09:40530,11,-3,-19,4,2,-7,-7,1
14:16:09:46509,-6,-10,-4,-7,-14,17,20,19
14:16:09:54716,-6,-10,-4,-7,-14,17,20,19
14:16:09:55462,-6,-7,8,-2,-18,-5,24,25
14:16:09:69055,10,1,10,-7,-8,26,-4,-4
14:16:09:77201,10,1,10,-7,-8,26,-4,-4
14:16:09:78027,-6,-9,-21,-17,16,-25,-2,15
14:16:09:84029,-3,13,21,34,58,29,-10,-15
14:16:09:99813,-3,13,21,34,58,29,-10,-15
14:16:09:100501,-2,-1,-14,4,-7,-22,-45,-10
14:16:09:106483,-1,-14,-36,-26,-41,-12,0,-10
14:16:09:114766,-1,-14,-36,-26,-41,-12,0,-10
14:16:09:115504,3,12,17,6,29,34,15,9
14:16:09:128969,3,1,17,26,85,71,-11,-33
14:16:09:137300,3,1,17,26,85,71,-11,-33
14:16:09:138008,-22,0,17,-8,48,53,11,-2
14:16:09:144001,-8,0,2,-13,9,-45,-19,-20
14:16:09:159716,-8,0,2,-13,9,-45,-19,-20
14:16:09:160491,6,-2,-23,-15,-5,4,18,2
14:16:09:166539,-1,-1,-1,50,13,-76,-7,6
14:16:09:174755,-1,-1,-1,50,13,-76,-7,6
14:16:09:175534,2,-3,36,20,-11,-5,-3,8
14:16:09:189018,-1,-9,-3,-36,-38,13,-21,-10
14:16:09:197257,-1,-9,-3,-36,-38,13,-21,-10
14:16:09:197970,8,1,-13,11,-1,-17,1,-7
14:16:09:204080,-4,2,42,6,-29,-21,-10,16
14:16:09:227838,-4,2,42,6,-29,-21,-10,16
14:16:09:228592,14,-9,-17,9,-19,-38,-8,-32
14:16:09:229413,-21,-12,-30,-20,36,7,60,19
14:16:09:234775,-21,-12,-30,-20,36,7,60,19
14:16:09:235477,-2,-1,-13,-22,23,47,-34,1
14:16:09:249114,15,5,18,-3,7,22,3,18
14:16:09:265469,15,5,18,-3,7,22,3,18
14:16:09:266171,-1,8,31,-7,-1,-16,-1,13
14:16:09:266949,-10,0,18,-49,-49,3,10,-8
14:16:09:279776,-10,0,18,-49,-49,3,10,-8
14:16:09:280532,0,-6,-4,22,7,8,5,-5
14:16:09:286540,6,-15,-30,17,-5,5,56,29
14:16:09:294710,6,-15,-30,17,-5,5,56,29
14:16:09:295503,-2,16,26,26,15,20,24,5
14:16:09:309006,4,7,6,-3,-9,6,-32,-10
14:16:09:317233,4,7,6,-3,-9,6,-32,-10
14:16:09:317969,-6,-1,2,-9,-20,-8,-18,-17
14:16:09:323997,11,4,-49,12,11,36,-19,12
14:16:09:339736,11,4,-49,12,11,36,-19,12
14:16:09:340511,3,20,66,14,5,-2,-7,0
14:16:09:346529,-7,-16,-37,-12,-13,-10,10,-10
14:16:09:354780,-7,-16,-37,-12,-13,-10,10,-10
14:16:09:355547,13,-23,-60,-27,-29,-31,-7,12
14:16:09:369030,-7,0,42,-2,-47,-29,-31,-15
14:16:09:377186,-7,0,42,-2,-47,-29,-31,-15
14:16:09:377980,-7,-9,-22,-4,39,26,-17,5
14:16:09:383988,-1,-3,-6,2,-38,-31,-12,-40
14:16:09:399792,-1,-3,-6,2,-38,-31,-12,-40
14:16:09:400488,1,21,57,32,21,-21,40,31
14:16:09:406503,0,5,14,-1,8,15,-32,-11
14:16:09:414797,0,5,14,-1,8,15,-32,-11
14:16:09:415494,-5,-1,-7,-18,-30,-24,17,-5
14:16:09:429421,6,-5,-22,-14,1,-22,13,24
14:16:09:437262,6,-5,-22,-14,1,-22,13,24
14:16:09:437989,-3,2,-18,14,3,7,-32,-6
14:16:09:451652,-6,2,2,-17,-6,27,0,-14
14:16:09:459650,-6,2,2,-17,-6,27,0,-14
14:16:09:460479,4,7,-5,-18,-4,-19,3,-9
14:16:09:466564,0,-12,-54,-32,-19,-7,-7,7
14:16:09:474043,0,-12,-54,-32,-19,-7,-7,7
14:16:09:481554,-10,-8,5,7,-9,2,37,-1
14:16:09:488988,6,2,-25,-23,47,27,28,7
14:16:09:504714,6,2,-25,-23,47,27,28,7
14:16:09:505510,-6,-7,-49,-43,-17,-4,-47,2
14:16:09:511509,-5,-1,33,-4,-15,-14,-48,25
14:16:09:519792,-5,-1,33,-4,-15,-14,-48,25
14:16:09:520498,-31,-8,30,35,7,9,12,14
14:16:09:526433,-1,7,13,22,-4,10,38,25
14:16:09:534117,-1,7,13,22,-4,10,38,25
14:16:09:541476,7,1,-23,6,-9,-13,-1,-4
14:16:09:549040,1,2,-3,0,5,-10,4,-7
14:16:09:557218,1,2,-3,0,5,-10,4,-7
14:16:09:558007,6,-1,-6,-1,-35,5,0,-15
14:16:09:571500,0,-7,-4,16,1,-7,3,-18
14:16:09:579692,0,-7,-4,16,1,-7,3,-18
14:16:09:580508,11,-3,4,4,43,38,3,0
14:16:09:586557,-13,-7,4,0,-24,-3,-15,-13
14:16:09:594043,-13,-7,4,0,-24,-3,-15,-13
