Time,EMG1,EMG2,EMG3,EMG4,EMG5,EMG6,EMG7,EMG8
14:16:19:363013,-1,-2,2,0,1,4,-1,-2
14:16:19:363776,-5,1,0,2,-3,-4,1,-1
14:16:19:370544,1,0,-2,-2,-3,-1,-1,7
14:16:19:371299,1,0,-2,-2,-3,-1,-1,7
14:16:19:377259,2,0,1,-2,-3,2,-2,6
14:16:19:392954,-1,-1,1,0,3,0,-1,-3
14:16:19:393759,-1,-1,1,0,3,0,-1,-3
14:16:19:399852,-3,-2,1,-5,-1,-4,-4,-3
14:16:19:407280,-3,-3,-2,-1,-3,2,1,-10
14:16:19:415001,-3,-3,-2,-1,-3,2,1,-10
14:16:19:422326,-7,0,-5,0,0,-3,-2,-24
14:16:19:430519,0,-3,-1,-2,-1,-4,-6,1
14:16:19:431338,0,-3,-1,-2,-1,-4,-6,1
14:16:19:437357,-3,-5,0,0,-3,3,2,9
14:16:19:453069,-1,1,-1,-3,-5,-2,0,5
14:16:19:453793,-1,1,-1,-3,-5,-2,0,5
14:16:19:459783,6,-1,-4,2,4,3,2,6
14:16:19:467312,-3,0,-3,-1,0,-1,2,-2
14:16:19:474866,-3,0,-3,-1,0,-1,2,-2
14:16:19:482408,3,0,2,-2,-3,-5,-5,3
14:16:19:490486,-1,1,0,1,-1,1,4,13
14:16:19:491333,-1,1,0,1,-1,1,4,13
14:16:19:497353,-9,-1,-2,1,-2,-1,-1,-24
14:16:19:513050,-2,0,-1,-3,0,2,-2,-16
14:16:19:513786,-2,0,-1,-3,0,2,-2,-16
14:16:19:519874,1,-2,0,-4,3,-7,-1,6
14:16:19:527299,-1,1,0,1,-2,-4,-6,-8
14:16:19:534934,-1,1,0,1,-2,-4,-6,-8
14:16:19:542376,1,-3,0,0,0,2,1,1
14:16:19:550517,0,-2,-1,0,0,1,1,11
14:16:19:551282,0,-2,-1,0,0,1,1,11
14:16:19:557317,3,4,-2,-2,0,4,0,3
14:16:19:573033,1,-4,0,-3,-4,-4,-3,14
14:16:19:573823,1,-4,0,-3,-4,-4,-3,14
14:16:19:579838,-8,-2,-4,1,-3,-5,-1,-17
14:16:19:587334,-2,0,1,-1,-4,-2,0,-16
14:16:19:594808,-2,0,1,-1,-4,-2,0,-16
14:16:19:602424,2,0,-5,-5,-3,-1,1,21
14:16:19:610498,2,0,-5,-5,-3,-1,1,21
14:16:19:611263,1,-3,-3,1,1,0,1,4
14:16:19:617268,-5,-1,6,-1,-1,-1,-1,-4
14:16:19:633015,-5,-1,6,-1,-1,-1,-1,-4
14:16:19:633752,-4,-1,-1,-3,0,-2,0,0
14:16:19:639845,2,-2,-3,3,1,0,4,0
14:16:19:655559,2,-2,-3,3,1,0,4,0
14:16:19:656325,-9,-2,-2,2,2,-4,-1,-19
14:16:19:662305,2,-3,0,-3,-4,1,2,18
14:16:19:670587,2,-3,0,-3,-4,1,2,18
14:16:19:671330,2,-1,0,-5,-6,-3,-4,0
14:16:19:684894,-1,1,-1,-1,-1,0,-4,-15
14:16:19:692934,-1,1,-1,-1,-1,0,-4,-15
14:16:19:693777,5,1,-5,-4,2,2,0,8
14:16:19:699884,2,-3,-2,-3,-5,4,1,3
14:16:19:715616,2,-3,-2,-3,-5,4,1,3
14:16:19:716291,-2,-2,-3,1,1,-6,-3,-1
14:16:19:722334,-12,0,-6,0,-2,-3,-8,-27
14:16:19:730520,-12,0,-6,0,-2,-3,-8,-27
14:16:19:731287,4,0,4,2,-2,3,3,-26
14:16:19:744793,0,-1,6,-1,0,-2,1,6
14:16:19:753123,0,-1,6,-1,0,-2,1,6
14:16:19:753830,2,-2,-2,-2,0,-2,0,2
14:16:19:759770,-5,-3,-2,-4,-3,-2,-4,-2
14:16:19:775532,-5,-3,-2,-4,-3,-2,-4,-2
14:16:19:776292,-4,-1,-1,0,-2,-4,-3,6
14:16:19:782336,-1,-4,0,0,7,1,2,-2
14:16:19:790535,-1,-4,0,0,7,1,2,-2
14:16:19:791311,6,1,1,2,1,3,-3,10
14:16:19:804824,2,0,0,0,-7,1,-9,12
14:16:19:813035,2,0,0,0,-7,1,-9,12
14:16:19:813822,2,-1,-2,-1,0,-5,4,14
14:16:19:819902,-1,-1,-1,0,4,-6,4,-7
14:16:19:835606,-1,-1,-1,0,4,-6,4,-7
14:16:19:836289,1,-2,-2,-5,0,1,-1,-1
14:16:19:842289,-1,-3,-4,-1,-4,0,-2,1
14:16:19:850532,-1,-3,-4,-1,-4,0,-2,1
14:16:19:851294,-2,0,-2,2,1,-1,-2,5
14:16:19:864845,0,1,-2,-3,-2,3,-2,-2
14:16:19:873035,0,1,-2,-3,-2,3,-2,-2
14:16:19:873817,-13,-1,-1,-1,-1,-5,-1,-17
14:16:19:879780,-1,0,0,-2,2,-10,-3,1
14:16:19:895486,-1,0,0,-2,2,-10,-3,1
14:16:19:896263,-4,-3,0,2,-3,2,1,-3
14:16:19:902359,1,-1,-2,-3,-1,0,0,2
14:16:19:910531,1,-1,-2,-3,-1,0,0,2
14:16:19:911294,-3,-2,-3,0,-2,2,-2,-2
14:16:19:924790,2,3,-1,-2,-4,-2,-1,4
14:16:19:933115,2,3,-1,-2,-4,-2,-1,4
14:16:19:933806,1,1,0,-4,-2,-4,-3,2
14:16:19:939782,2,-2,0,-1,1,-2,0,8
14:16:19:955539,2,-2,0,-1,1,-2,0,8
14:16:19:956311,-4,-3,0,0,-1,2,1,-6
14:16:19:962298,0,0,0,5,0,0,1,1
14:16:19:970583,0,0,0,5,0,0,1,1
14:16:19:971311,-1,-2,-3,0,-2,0,3,9
14:16:19:984901,-2,-3,-4,-3,1,-1,0,1
14:16:19:993000,-2,-3,-4,-3,1,-1,0,1
14:16:19:993761,0,1,-2,-1,3,-3,1,6
14:16:19:999873,0,-1,-5,-3,-1,-1,-9,-11
14:16:20:15627,0,-1,-5,-3,-1,-1,-9,-11
14:16:20:16296,-3,-1,-2,-6,-5,-1,-7,-4
14:16:20:22353,-1,-1,0,3,-1,2,-1,2
14:16:20:30490,-1,-1,0,3,-1,2,-1,2
14:16:20:31267,8,3,0,-2,-4,-2,0,-3
14:16:20:44832,-3,0,2,1,-2,-5,3,3
14:16:20:53102,-3,0,2,1,-2,-5,3,3
14:16:20:53764,-9,-1,2,-3,3,-5,0,-12
14:16:20:59776,2,-3,0,2,0,7,3,16
14:16:20:75513,2,-3,0,2,0,7,3,16
14:16:20:76274,4,-3,0,-1,-4,-1,-3,1
14:16:20:82391,-7,0,-3,-2,-4,-3,-3,-7
14:16:20:90530,-7,0,-3,-2,-4,-3,-3,-7
14:16:20:91323,-1,-3,-1,0,2,1,-2,-8
14:16:20:104838,2,-3,-1,-1,-1,-2,2,-5
14:16:20:113008,2,-3,-1,-1,-1,-2,2,-5
14:16:20:113786,-1,0,-4,-3,-3,-1,-6,-4
14:16:20:119871,-7,-3,-3,-1,2,0,-1,-27
14:16:20:135600,-7,-3,-3,-1,2,0,-1,-27
14:16:20:136331,4,-2,0,2,2,-4,0,2
14:16:20:142286,2,0,2,-4,-2,-4,-2,0
14:16:20:150504,2,0,2,-4,-2,-4,-2,0
14:16:20:151254,-1,0,2,0,-7,2,7,2
14:16:20:164939,0,-4,3,-5,-1,0,2,7
14:16:20:173029,0,-4,3,-5,-1,0,2,7
14:16:20:173787,-2,-1,-1,-1,2,0,2,4
14:16:20:179848,-3,-1,-9,-1,2,-3,-10,-8
14:16:20:195549,-3,-1,-9,-1,2,-3,-10,-8
14:16:20:196301,-1,-4,-2,-1,-1,2,0,12
14:16:20:202398,0,-1,3,1,-4,-5,4,-1
14:16:20:210491,0,-1,3,1,-4,-5,4,-1
14:16:20:211301,-5,-4,0,3,1,0,1,-9
14:16:20:224843,4,1,-4,-3,-3,0,-1,7
14:16:20:233190,4,1,-4,-3,-3,0,-1,7
14:16:20:233852,4,0,-1,-2,1,-1,-1,0
14:16:20:239874,-2,0,2,2,-1,3,2,1
14:16:20:255581,-2,0,2,2,-1,3,2,1
14:16:20:256294,1,1,-1,-3,-5,-3,-1,4
14:16:20:262322,-3,-1,-1,-4,-1,-4,-3,-9
14:16:20:270565,-3,-1,-1,-4,-1,-4,-3,-9
14:16:20:271315,-4,-1,1,-2,-1,-3,-10,-18
14:16:20:284827,1,0,0,-2,1,2,0,-2
14:16:20:293013,1,0,0,-2,1,2,0,-2
14:16:20:293790,2,-2,0,1,-5,2,5,12
14:16:20:299937,-2,-2,-2,3,-1,-1,-6,-3
14:16:20:315574,-2,-2,-2,3,-1,-1,-6,-3
14:16:20:316288,-5,-2,-6,-2,-2,-5,-4,-6
14:16:20:322311,-5,-1,1,1,0,2,1,-3
14:16:20:330555,-5,-1,1,1,0,2,1,-3
14:16:20:331360,-4,-3,0,-2,2,0,-4,-1
14:16:20:344770,4,-1,2,-1,-1,-2,1,7
14:16:20:353086,4,-1,2,-1,-1,-2,1,7
14:16:20:353848,4,-3,-1,-2,0,-1,-2,-27
14:16:20:359740,0,1,-3,-3,-2,0,0,2
14:16:20:375502,0,1,-3,-3,-2,0,0,2
14:16:20:376264,-1,3,-1,-1,0,1,3,14
14:16:20:382330,-4,-4,-2,-1,-4,-2,2,-16
14:16:20:390581,-4,-4,-2,-1,-4,-2,2,-16
14:16:20:391338,-1,-2,0,0,-2,5,1,-14
14:16:20:404838,-5,-2,-5,2,-2,-2,-7,8
14:16:20:413035,-5,-2,-5,2,-2,-2,-7,8
14:16:20:413793,-4,-2,1,2,0,-5,-5,6
14:16:20:419871,8,0,-3,-4,1,-5,3,10
14:16:20:435627,8,0,-3,-4,1,-5,3,10
14:16:20:436291,4,4,-1,2,3,-2,-4,9
14:16:20:442279,1,0,0,-2,-1,3,1,1
14:16:20:450529,1,0,0,-2,-1,3,1,1
14:16:20:451284,0,-3,-3,0,1,-2,-2,0
14:16:20:464949,-3,1,2,-4,-5,0,-4,-4
14:16:20:473035,-3,1,2,-4,-5,0,-4,-4
14:16:20:473790,0,2,1,-3,-5,-5,4,8
14:16:20:479816,-2,0,-1,-1,3,1,-1,-19
14:16:20:495482,-2,0,-1,-1,3,1,-1,-19
14:16:20:496313,-2,0,-4,-1,-1,-1,-5,0
14:16:20:502282,-5,0,-2,2,3,0,-2,3
14:16:20:510483,-5,0,-2,2,3,0,-2,3
14:16:20:511271,-7,-3,-2,-1,-7,-1,2,0
14:16:20:524851,2,-3,-3,1,0,-1,-3,5
14:16:20:533030,2,-3,-3,1,0,-1,-3,5
14:16:20:533814,-2,-3,0,-2,0,-4,-5,-6
14:16:20:539769,-2,-1,2,-1,1,3,5,3
14:16:20:555508,-2,-1,2,-1,1,3,5,3
14:16:20:556260,2,-3,-2,2,-1,2,1,12
14:16:20:562303,-2,2,-3,-1,1,-1,-3,-10
14:16:20:570602,-2,2,-3,-1,1,-1,-3,-10
14:16:20:571316,-2,2,-2,-4,-1,-1,2,-2
14:16:20:584857,-5,-4,-1,-1,-2,1,-1,-5
14:16:20:592975,-5,-4,-1,-1,-2,1,-1,-5
14:16:20:593742,0,2,1,-1,3,5,0,-13
14:16:20:599919,-1,-1,1,-5,-2,-4,-1,6
14:16:20:615609,-1,-1,1,-5,-2,-4,-1,6
14:16:20:616267,2,3,-2,1,1,-3,1,3
14:16:20:622359,-6,-4,-4,0,-6,-4,-6,-4
14:16:20:629867,-6,-4,-4,0,-6,-4,-6,-4
14:16:20:637370,-3,-3,0,-4,-5,-4,-7,-3
14:16:20:644827,5,1,-1,2,-3,-4,-2,9
14:16:20:653056,5,1,-1,2,-3,-4,-2,9
14:16:20:653766,-10,-1,-4,3,0,0,-1,-15
14:16:20:667300,7,-1,-1,0,0,4,7,4
14:16:20:675516,7,-1,-1,0,0,4,7,4
14:16:20:676283,-1,-4,-1,-2,-3,-4,1,-1
14:16:20:682366,-2,-3,-1,-3,0,0,-4,-1
14:16:20:689866,-2,-3,-1,-3,0,0,-4,-1
14:16:20:697268,0,-2,1,-1,-1,3,0,5
14:16:20:704811,1,1,5,-4,-3,-3,1,10
14:16:20:720596,1,1,5,-4,-3,-3,1,10
14:16:20:721248,0,4,-2,2,0,-2,4,7
14:16:20:727274,1,1,-2,-1,1,-1,-2,-1
14:16:20:735573,1,1,-2,-1,1,-1,-2,-1
14:16:20:736327,6,0,1,0,1,-1,-8,2
14:16:20:742285,-5,-3,-1,0,-4,0,-5,-5
14:16:20:749933,-5,-3,-1,0,-4,0,-5,-5
14:16:20:757298,-2,-5,-3,-3,-3,-4,2,3
14:16:20:764875,-4,-2,-3,-5,0,-2,0,-13
14:16:20:773089,-4,-2,-3,-5,0,-2,0,-13
14:16:20:773857,4,0,-1,-2,-1,4,3,4
14:16:20:787336,-4,-1,-3,1,-1,-8,-3,-11
14:16:20:795539,-4,-1,-3,1,-1,-8,-3,-11
14:16:20:796316,-5,-3,-3,3,2,0,-2,-2
14:16:20:802413,3,-1,3,-1,-2,2,-1,3
14:16:20:809824,3,-1,3,-1,-2,2,-1,3
14:16:20:817361,3,1,-1,-4,-4,0,4,-1
14:16:20:824795,3,2,-2,0,1,5,3,-6
14:16:20:833110,3,2,-2,0,1,5,3,-6
14:16:20:833822,2,-5,-3,0,-1,-5,-3,8
14:16:20:847312,-6,-2,-2,0,-2,-3,-4,-9
14:16:20:855525,-6,-2,-2,0,-2,-3,-4,-9
14:16:20:856331,-4,-2,1,-2,4,3,-4,-7
14:16:20:862244,-1,1,1,-4,2,-1,0,-3
14:16:20:869932,-1,1,1,-4,2,-1,0,-3
14:16:20:877309,-3,1,-1,-2,-4,-3,2,2
14:16:20:884914,-1,-2,0,2,0,-1,-2,3
14:16:20:892946,-1,-2,0,2,0,-1,-2,3
14:16:20:893757,6,3,-4,-2,-2,2,-2,-6
14:16:20:907314,3,-3,-2,-3,3,5,0,8
14:16:20:915593,3,-3,-2,-3,3,5,0,8
14:16:20:916254,-2,-2,-1,-2,-1,-4,-7,-15
14:16:20:922335,-2,-3,-4,-2,-5,-6,-1,1
14:16:20:929850,-2,-3,-4,-2,-5,-6,-1,1
14:16:20:937403,0,-2,1,-1,-4,-2,-2,4
14:16:20:944789,-2,0,2,0,0,-2,1,4
14:16:20:953078,-2,0,2,0,0,-2,1,4
14:16:20:953782,-5,-1,-5,0,1,1,0,-8
14:16:20:967301,1,-2,-4,2,-4,-2,0,-8
14:16:20:975495,1,-2,-4,2,-4,-2,0,-8
14:16:20:976263,2,-2,-2,-1,-3,2,2,-3
14:16:20:982417,-8,2,-2,-5,0,2,1,-11
14:16:20:989842,-8,2,-2,-5,0,2,1,-11
14:16:20:997306,-8,0,3,-2,0,-4,-9,-11
14:16:21:4797,-1,1,-1,1,0,-1,-4,-2
14:16:21:13003,-1,1,-1,1,0,-1,-4,-2
14:16:21:13796,-2,-3,2,-2,2,-1,2,3
14:16:21:27314,1,-2,-1,0,1,0,0,4
14:16:21:35563,1,-2,-1,0,1,0,0,4
14:16:21:36299,0,-1,-3,-1,-5,-3,-1,13
14:16:21:42277,-6,0,2,0,2,1,3,6
14:16:21:49995,-6,0,2,0,2,1,3,6
14:16:21:57292,2,-2,-2,-2,0,-4,1,13
14:16:21:64899,-4,-3,-1,-1,-7,0,-1,-10
14:16:21:73049,-4,-3,-1,-1,-7,0,-1,-10
14:16:21:73848,-4,1,0,-3,2,2,0,-11
14:16:21:87336,4,-1,0,-1,1,2,1,8
14:16:21:95511,4,-1,0,-1,1,2,1,8
14:16:21:96329,-6,-1,-2,1,-1,-5,-3,-14
14:16:21:102354,-1,1,0,-4,-1,-8,-1,-1
14:16:21:109818,-1,1,0,-4,-1,-8,-1,-1
14:16:21:117280,-1,-3,-3,-4,1,3,4,-2
14:16:21:124851,8,-1,-1,5,-2,-2,5,4
14:16:21:133103,8,-1,-1,5,-2,-2,5,4
14:16:21:133877,0,-1,-4,2,0,-1,-11,-18
14:16:21:147285,-1,1,-1,-2,-4,2,-1,5
14:16:21:155558,-1,1,-1,-2,-4,2,-1,5
14:16:21:156343,7,1,3,-3,-3,3,-12,5
14:16:21:162337,-3,1,1,-2,-6,-5,-33,-28
14:16:21:169967,-3,1,1,-2,-6,-5,-33,-28
14:16:21:177340,-3,-2,-6,1,-3,3,29,-31
14:16:21:184854,-2,-7,-4,-13,-25,1,-31,26
14:16:21:192954,-2,-7,-4,-13,-25,1,-31,26
14:16:21:193746,-1,0,4,-4,2,-2,-27,23
14:16:21:207314,4,5,2,-5,7,-10,9,12
14:16:21:215598,4,5,2,-5,7,-10,9,12
14:16:21:216299,1,-1,-4,25,51,41,11,3
14:16:21:222315,9,4,6,6,-3,-7,4,-10
14:16:21:229885,9,4,6,6,-3,-7,4,-10
14:16:21:237417,6,-4,-6,-14,-30,-27,-9,8
14:16:21:244791,-33,-14,-13,-5,5,-6,20,-89
14:16:21:253015,-33,-14,-13,-5,5,-6,20,-89
14:16:21:253809,-10,7,4,11,20,-8,54,29
14:16:21:267351,7,1,-11,-21,-26,1,-57,1
14:16:21:275510,7,1,-11,-21,-26,1,-57,1
14:16:21:276278,-3,-1,-12,-34,-41,-31,-13,2
14:16:21:282409,13,0,-2,47,108,102,33,23
14:16:21:289852,13,0,-2,47,108,102,33,23
14:16:21:297304,-4,4,5,-4,-9,-10,-41,-34
14:16:21:304827,-3,21,6,7,7,-7,15,12
14:16:21:313017,-3,21,6,7,7,-7,15,12
14:16:21:313753,0,-15,-6,-4,-1,-7,47,16
14:16:21:327291,-32,-32,-10,-26,-57,-17,-84,-26
14:16:21:335566,-32,-32,-10,-26,-57,-17,-84,-26
14:16:21:336292,17,3,28,28,7,18,87,72
14:16:21:342270,13,4,-5,15,-12,6,3,20
14:16:21:349897,13,4,-5,15,-12,6,3,20
14:16:21:357280,-12,-4,-26,-4,-9,26,-76,-31
14:16:21:364922,-7,-7,-11,19,33,6,65,-18
14:16:21:373068,-7,-7,-11,19,33,6,65,-18
14:16:21:373827,1,5,-9,-6,38,-2,7,-6
14:16:21:387322,13,10,11,-7,5,-18,2,33
14:16:21:395532,13,10,11,-7,5,-18,2,33
14:16:21:396277,-13,-5,2,-3,-11,23,44,-3
14:16:21:402350,-1,6,25,-25,-38,-26,3,4
14:16:21:409820,-1,6,25,-25,-38,-26,3,4
14:16:21:417333,-7,11,-32,-20,-10,-9,-74,-31
14:16:21:424789,6,-5,-1,36,21,63,105,31
14:16:21:440548,6,-5,-1,36,21,63,105,31
14:16:21:441338,5,2,35,2,40,-5,-8,5
14:16:21:447325,-3,0,37,-23,-14,-37,-57,-33
14:16:21:455574,-3,0,37,-23,-14,-37,-57,-33
14:16:21:456349,-21,-37,23,7,-6,-15,-1,-12
14:16:21:462299,-5,-4,-9,-14,-2,-26,-35,-13
14:16:21:469904,-5,-4,-9,-14,-2,-26,-35,-13
14:16:21:477347,13,12,-5,-6,-56,-109,-50,3
14:16:21:484890,6,6,-1,16,31,24,38,23
14:16:21:493020,6,6,-1,16,31,24,38,23
14:16:21:493750,7,6,6,7,-4,37,-35,-11
14:16:21:507323,-4,-1,-15,-17,-38,-43,-3,-2
14:16:21:515545,-4,-1,-15,-17,-38,-43,-3,-2
14:16:21:516265,0,-2,-4,-1,2,25,12,-2
14:16:21:522347,1,3,-3,-6,2,-11,-34,4
14:16:21:529855,1,3,-3,-6,2,-11,-34,4
14:16:21:537362,-6,-1,-4,-3,-2,23,-4,2
14:16:21:544744,2,3,-5,0,5,-4,-16,-2
14:16:21:553074,2,3,-5,0,5,-4,-16,-2
14:16:21:553803,-2,0,-10,-8,-22,-1,10,-2
14:16:21:567339,7,-4,-17,-5,-8,4,30,14
14:16:21:575479,7,-4,-17,-5,-8,4,30,14
14:16:21:576290,5,8,7,8,10,12,-19,1
14:16:21:590495,-6,-8,-13,-28,-32,-26,-82,-23
14:16:21:591262,-6,-8,-13,-28,-32,-26,-82,-23
14:16:21:597344,-5,-11,-21,-16,-1,13,-22,1
14:16:21:604901,-2,-1,6,18,13,6,10,6
14:16:21:620660,-2,-1,6,18,13,6,10,6
14:16:21:621356,-5,-10,-4,7,-4,-15,30,-16
14:16:21:627336,0,0,-11,-2,10,7,5,-30
14:16:21:635636,0,0,-11,-2,10,7,5,-30
14:16:21:636299,-1,1,7,17,1,-5,16,-3
14:16:21:650523,-4,-18,-19,-17,-24,-8,-27,0
14:16:21:651294,-4,-18,-19,-17,-24,-8,-27,0
14:16:21:657349,0,4,1,-11,10,11,26,-10
14:16:21:665033,22,10,26,20,26,14,49,25
14:16:21:672394,22,10,26,20,26,14,49,25
14:16:21:679850,-4,-10,-20,-28,-14,-9,-26,-6
14:16:21:687419,2,4,1,6,-4,6,28,4
14:16:21:695480,2,4,1,6,-4,6,28,4
14:16:21:696292,-3,4,10,7,-5,1,-28,1
14:16:21:710452,-6,1,0,-9,-10,-1,-2,3
14:16:21:711259,-6,1,0,-9,-10,-1,-2,3
14:16:21:717309,8,-2,-2,3,-4,-24,1,2
14:16:21:724852,-10,-6,-8,-3,2,-2,3,-3
14:16:21:732391,-10,-6,-8,-3,2,-2,3,-3
14:16:21:739768,-3,2,8,11,5,16,15,3
14:16:21:747273,-2,1,1,3,1,-1,-7,-1
14:16:21:755572,-2,1,1,3,1,-1,-7,-1
14:16:21:756338,-17,-7,-18,-3,2,-6,-4,3
14:16:21:770631,-4,-15,-16,1,1,-13,-6,-7
14:16:21:771303,-4,-15,-16,1,1,-13,-6,-7
14:16:21:777280,-2,-4,19,1,9,6,1,-5
14:16:21:784896,-55,-30,-29,-1,-1,-4,4,-5
14:16:21:792359,-55,-30,-29,-1,-1,-4,4,-5
14:16:21:799852,7,0,-11,-1,-4,4,-11,-3
14:16:21:807307,22,11,9,-3,-7,-3,0,10
14:16:21:815585,22,11,9,-3,-7,-3,0,10
14:16:21:816415,-16,-14,4,0,-10,-21,-25,-9
14:16:21:830514,30,19,6,3,2,-3,12,2
14:16:21:831315,30,19,6,3,2,-3,12,2
14:16:21:837376,7,1,-4,5,-3,1,10,3
14:16:21:844762,-7,-3,7,13,3,-7,-15,-4
14:16:21:852407,-7,-3,7,13,3,-7,-15,-4
14:16:21:859751,8,4,-14,-46,-12,-6,-1,5
14:16:21:867325,1,7,8,37,10,13,0,1
14:16:21:875471,1,7,8,37,10,13,0,1
14:16:21:876262,0,7,-18,3,-2,-2,6,3
14:16:21:890542,2,2,-15,-12,4,12,3,0
14:16:21:891347,2,2,-15,-12,4,12,3,0
14:16:21:897324,4,6,26,6,11,13,2,4
14:16:21:904771,-1,2,22,-4,-10,-11,-7,-3
14:16:21:912330,-1,2,22,-4,-10,-11,-7,-3
14:16:21:919907,8,-2,-5,-17,-8,0,6,2
14:16:21:927312,-13,-19,-20,-21,-11,-10,-5,-7
14:16:21:935576,-13,-19,-20,-21,-11,-10,-5,-7
14:16:21:936273,4,3,15,27,-8,-6,7,3
14:16:21:950465,3,8,-8,-18,-7,-1,-6,0
14:16:21:951264,3,8,-8,-18,-7,-1,-6,0
14:16:21:957331,2,1,-2,7,0,-5,-5,1
14:16:21:965018,-2,-1,2,-3,-9,2,5,1
14:16:21:972378,-2,-1,2,-3,-9,2,5,1
14:16:21:979882,-9,-1,3,3,5,1,2,-4
14:16:21:987477,-1,-5,10,-13,-5,-6,-2,0
14:16:21:995494,-1,-5,10,-13,-5,-6,-2,0
14:16:21:996292,5,6,-9,1,8,10,7,3
14:16:22:10478,0,1,3,4,-3,-5,-8,1
14:16:22:11281,0,1,3,4,-3,-5,-8,1
14:16:22:17289,-3,-16,-6,-1,-2,-1,2,3
14:16:22:24763,-1,4,4,-8,-20,-7,-4,-16
14:16:22:32387,-1,4,4,-8,-20,-7,-4,-16
14:16:22:39802,-8,-2,1,10,-15,-6,-1,-9
14:16:22:47260,2,0,7,-12,-7,-5,5,3
14:16:22:55549,2,0,7,-12,-7,-5,5,3
14:16:22:56306,1,-7,-7,34,61,5,1,1
14:16:22:70575,-11,-26,-20,1,14,0,-7,2
14:16:22:71273,-11,-26,-20,1,14,0,-7,2
14:16:22:77260,-6,-7,0,-45,-53,-17,-12,-1
14:16:22:84874,7,15,28,14,39,23,13,4
14:16:22:92357,7,15,28,14,39,23,13,4
14:16:22:99824,0,0,-14,-21,-9,-12,-7,-3
14:16:22:107300,-1,-6,-11,-6,-7,4,1,-2
14:16:22:115592,-1,-6,-11,-6,-7,4,1,-2
14:16:22:116322,1,10,10,11,9,6,4,-2
14:16:22:130527,-9,-2,-3,-3,-19,-13,-36,-15
14:16:22:131330,-9,-2,-3,-3,-19,-13,-36,-15
14:16:22:137388,5,6,-1,-3,0,4,16,24
14:16:22:144784,6,2,1,25,48,27,19,11
14:16:22:152447,6,2,1,25,48,27,19,11
14:16:22:159741,0,1,3,9,13,1,-16,-12
14:16:22:167350,-5,2,-6,-11,-10,-17,-14,-5
14:16:22:175518,-5,2,-6,-11,-10,-17,-14,-5
14:16:22:176296,-2,-12,6,5,27,13,7,-1
14:16:22:190558,0,1,-6,-5,17,19,27,3
14:16:22:191361,0,1,-6,-5,17,19,27,3
14:16:22:197329,-5,-4,4,-14,-42,-19,-10,-4
14:16:22:204847,-2,-4,-15,-12,-39,-23,-16,-12
14:16:22:212299,-2,-4,-15,-12,-39,-23,-16,-12
14:16:22:219901,-3,1,4,6,11,12,-1,-5
14:16:22:227293,-3,-4,-10,-22,-38,-28,-5,-2
14:16:22:235571,-3,-4,-10,-22,-38,-28,-5,-2
14:16:22:236289,0,4,6,16,16,5,-2,-2
14:16:22:250513,6,4,11,7,2,14,10,7
14:16:22:251280,6,4,11,7,2,14,10,7
14:16:22:257315,-4,-1,-14,-8,-14,1,-4,-3
14:16:22:264914,-4,-6,-5,-18,-19,-4,-5,1
14:16:22:272326,-4,-6,-5,-18,-19,-4,-5,1
14:16:22:279771,2,2,3,-2,-12,-2,0,-3
14:16:22:287358,1,2,9,11,6,-8,-10,3
14:16:22:295479,1,2,9,11,6,-8,-10,3
14:16:22:296299,-2,-3,-14,-5,18,-6,-9,-13
14:16:22:310451,0,3,9,9,5,-4,-2,-2
14:16:22:311237,0,3,9,9,5,-4,-2,-2
14:16:22:317278,0,2,0,-5,-8,2,-2,-4
14:16:22:332981,-4,-5,7,21,57,25,12,1
14:16:22:333758,-4,-5,7,21,57,25,12,1
14:16:22:339793,0,9,23,16,12,4,6,3
14:16:22:347335,-4,-3,-17,-20,-38,-27,-7,-4
14:16:22:355508,-4,-3,-17,-20,-38,-27,-7,-4
14:16:22:356257,-3,-3,-4,-10,-5,-5,-2,1
14:16:22:370536,-2,-2,7,0,-7,-2,-7,-5
14:16:22:371273,-2,-2,7,0,-7,-2,-7,-5
14:16:22:377288,-1,-1,-3,-7,-22,-7,8,2
14:16:22:393055,2,2,2,17,53,15,5,-1
14:16:22:393802,2,2,2,17,53,15,5,-1
14:16:22:399892,4,-3,-13,-13,-8,-3,22,50
14:16:22:407251,0,2,1,8,20,12,4,1
14:16:22:415532,0,2,1,8,20,12,4,1
14:16:22:416256,0,-2,-2,13,11,-1,-15,-16
14:16:22:430424,-2,-2,-8,-17,-33,-10,-4,1
14:16:22:431313,-2,-2,-8,-17,-33,-10,-4,1
14:16:22:437382,-6,-5,-11,-1,-24,-2,6,-8
14:16:22:444770,1,2,5,-6,-14,-7,-2,-6
14:16:22:452476,1,2,5,-6,-14,-7,-2,-6
14:16:22:459810,-4,-10,-8,-7,-11,-1,0,-5
14:16:22:467341,-2,0,17,25,-1,27,12,2
14:16:22:475506,-2,0,17,25,-1,27,12,2
14:16:22:476253,6,10,2,2,13,8,1,1
14:16:22:490484,1,-2,-8,-14,-14,-12,-11,0
14:16:22:491274,1,-2,-8,-14,-14,-12,-11,0
14:16:22:497374,-5,2,10,5,0,-7,-7,-9
14:16:22:504852,-5,-1,-3,-8,-7,-4,0,-2
14:16:22:512334,-5,-1,-3,-8,-7,-4,0,-2
14:16:22:519829,-8,-5,-3,-21,3,-6,-11,-13
14:16:22:527978,-6,-9,-4,-2,-10,-14,-15,-2
14:16:22:528776,-6,-9,-4,-2,-10,-14,-15,-2
14:16:22:551124,-2,2,-2,1,2,4,11,-17
14:16:22:551891,4,3,-8,6,14,9,4,0
14:16:22:552737,4,3,-8,6,14,9,4,0
14:16:22:557290,0,-1,19,-2,-33,-13,-7,8
14:16:22:573050,3,-4,-14,-9,12,-2,5,5
14:16:22:573841,3,-4,-14,-9,12,-2,5,5
14:16:22:579796,0,2,11,4,9,14,4,2
14:16:22:587993,0,3,2,9,-3,-8,-7,-5
14:16:22:588766,0,3,2,9,-3,-8,-7,-5
14:16:22:602379,3,-3,1,12,2,-2,-8,1
14:16:22:610496,7,2,0,-8,-5,3,22,9
14:16:22:611311,7,2,0,-8,-5,3,22,9
14:16:22:617299,4,6,4,13,14,-1,1,5
14:16:22:633104,-12,-10,-9,-14,-24,-13,-30,-16
14:16:22:633789,-12,-10,-9,-14,-24,-13,-30,-16
14:16:22:639814,-1,-4,-3,3,1,2,4,6
14:16:22:647330,-1,4,13,10,0,0,-1,-3
14:16:22:663038,-1,4,13,10,0,0,-1,-3
14:16:22:663838,3,-2,-23,-22,-6,-6,-9,-4
14:16:22:670591,-10,-8,-3,-16,-7,-14,3,-11
14:16:22:671336,-10,-8,-3,-16,-7,-14,3,-11
14:16:22:677285,-1,-4,4,2,12,13,16,10
14:16:22:693007,1,-5,-6,-6,-17,13,-9,-7
14:16:22:693786,1,-5,-6,-6,-17,13,-9,-7
14:16:22:699908,-7,2,7,3,1,-13,-4,-27
14:16:22:707263,3,-3,-8,0,24,16,9,6
14:16:22:715024,3,-3,-8,0,24,16,9,6
14:16:22:722327,-3,0,-6,-15,-8,-10,-20,-13
14:16:22:730475,5,3,1,6,-7,-3,10,23
14:16:22:731300,5,3,1,6,-7,-3,10,23
14:16:22:744827,-4,-6,-11,-6,-8,-6,-1,-7
14:16:22:753085,-5,-4,3,6,4,-3,2,3
14:16:22:753821,-5,-4,3,6,4,-3,2,3
14:16:22:759773,-9,-10,-10,-3,5,7,2,-5
14:16:22:767304,-17,-5,-16,-18,-16,2,23,1
14:16:22:774866,-17,-5,-16,-18,-16,2,23,1
14:16:22:782407,9,5,1,-1,-3,-2,-22,31
14:16:22:790534,3,-1,4,8,5,4,-8,-5
14:16:22:791338,3,-1,4,8,5,4,-8,-5
14:16:22:797396,-5,-1,4,2,-4,-4,-11,1
14:16:22:813044,1,7,12,14,-2,-10,8,-3
14:16:22:813758,1,7,12,14,-2,-10,8,-3
14:16:22:819885,10,3,-2,-4,3,-3,9,-2
14:16:22:827301,-3,-3,-8,-9,-7,7,2,-11
14:16:22:834970,-3,-3,-8,-9,-7,7,2,-11
14:16:22:842302,-11,-13,-44,-9,-2,0,4,18
14:16:22:850491,6,8,-4,4,39,7,-6,7
14:16:22:851362,6,8,-4,4,39,7,-6,7
14:16:22:857284,14,4,-3,-10,-11,-4,-1,-2
14:16:22:873027,-3,-2,-1,-4,-4,-17,-21,-9
14:16:22:873848,-3,-2,-1,-4,-4,-17,-21,-9
14:16:22:879797,-28,-4,9,6,-5,-3,-14,-27
14:16:22:887353,8,5,9,5,0,0,-3,-16
14:16:22:894829,8,5,9,5,0,0,-3,-16
14:16:22:902308,-25,-2,-13,-18,-4,-4,1,-6
14:16:22:910540,-29,-15,-11,-15,-12,-5,6,10
14:16:22:911275,-29,-15,-11,-15,-12,-5,6,10
14:16:22:917323,4,-12,6,5,23,15,14,0
14:16:22:933092,4,-12,6,5,23,15,14,0
14:16:22:933814,15,-1,-20,-4,-16,1,-16,-3
14:16:22:939806,13,16,27,14,0,9,1,-2
14:16:22:955518,13,16,27,14,0,9,1,-2
14:16:22:956277,-4,0,21,11,5,5,5,9
14:16:22:962297,4,-1,-15,-10,-5,0,-7,-12
14:16:22:970608,4,-1,-15,-10,-5,0,-7,-12
14:16:22:971294,2,-3,2,15,9,1,1,1
14:16:22:977226,10,1,14,13,1,-1,4,1
14:16:22:992985,10,1,14,13,1,-1,4,1
14:16:22:993768,-1,-2,-10,-10,-14,-14,-4,-4
14:16:22:999898,0,-2,9,3,5,5,5,3
14:16:23:16046,0,-2,9,3,5,5,5,3
14:16:23:22958,6,0,-11,-19,-6,-3,10,23
14:16:23:23758,-8,-1,11,-3,-11,-17,-20,19
14:16:23:30524,-8,-1,11,-3,-11,-17,-20,19
14:16:23:31317,9,4,-8,-5,-3,9,-14,-14
14:16:23:37344,-22,-7,-10,2,-11,-15,-2,-10
14:16:23:53074,-22,-7,-10,2,-11,-15,-2,-10
14:16:23:53803,-7,-6,9,6,8,0,-20,-29
14:16:23:59732,18,5,2,3,2,-10,20,9
14:16:23:75514,18,5,2,3,2,-10,20,9
14:16:23:76307,8,15,21,4,1,7,11,-9
14:16:23:82430,2,-8,-4,-2,-10,-6,-7,-4
14:16:23:90532,2,-8,-4,-2,-10,-6,-7,-4
14:16:23:91296,0,-2,-13,-17,11,9,5,19
14:16:23:97283,7,6,14,-20,-17,-2,-4,0
14:16:23:112962,7,6,14,-20,-17,-2,-4,0
14:16:23:113764,-6,-5,-7,3,1,-2,4,-1
14:16:23:119901,2,-2,-6,30,25,21,9,-7
14:16:23:143663,2,-2,-6,30,25,21,9,-7
14:16:23:144460,-1,0,19,16,-13,-36,1,3
14:16:23:145280,3,2,6,-5,-4,0,-4,0
14:16:23:150557,3,2,6,-5,-4,0,-4,0
14:16:23:151352,-2,-7,-14,-8,-18,1,3,7
14:16:23:157268,-3,-1,-5,14,16,5,0,-2
14:16:23:173458,-3,-1,-5,14,16,5,0,-2
14:16:23:180450,-3,5,27,-8,-10,-11,-17,-10
14:16:23:181267,0,-8,-44,-17,15,9,11,6
14:16:23:195516,0,-8,-44,-17,15,9,11,6
14:16:23:196309,0,-2,6,9,-3,5,8,2
14:16:23:202362,2,1,12,10,-6,0,0,0
14:16:23:210495,2,1,12,10,-6,0,0,0
14:16:23:211288,-8,-4,-3,-9,-8,-22,-18,-10
14:16:23:217335,-1,-3,6,-5,6,-4,2,-5
14:16:23:233014,-1,-3,6,-5,6,-4,2,-5
14:16:23:233791,-1,0,15,5,9,22,-9,-6
14:16:23:239790,-1,0,2,2,-24,-24,-5,5
14:16:23:255536,-1,0,2,2,-24,-24,-5,5
14:16:23:256308,3,5,-8,11,6,5,9,6
14:16:23:262269,-6,-5,-15,-25,-21,-10,-13,-9
14:16:23:270592,-6,-5,-15,-25,-21,-10,-13,-9
14:16:23:271356,-3,-7,-16,-2,6,-1,-5,-2
14:16:23:277264,-1,4,2,0,-2,-3,16,4
14:16:23:293015,-1,4,2,0,-2,-3,16,4
14:16:23:293768,3,0,-5,2,10,5,2,0
14:16:23:299889,-1,-2,4,-17,-13,-15,-6,-1
14:16:23:315596,-1,-2,4,-17,-13,-15,-6,-1
14:16:23:316283,0,-7,-22,-4,-4,3,7,-4
14:16:23:322299,9,19,11,-7,-8,-2,1,-1
14:16:23:330519,9,19,11,-7,-8,-2,1,-1
14:16:23:331330,-4,-2,-8,-12,-12,5,3,6
14:16:23:337368,0,0,8,5,27,19,8,0
14:16:23:353112,0,0,8,5,27,19,8,0
14:16:23:353777,-1,4,19,8,3,-15,-6,-1
14:16:23:359760,-1,0,8,13,3,-12,-5,-2
14:16:23:375490,-1,0,8,13,3,-12,-5,-2
14:16:23:376258,-4,-3,0,2,-1,-2,1,0
14:16:23:382426,-2,2,-9,2,1,4,-1,-5
14:16:23:390536,-2,2,-9,2,1,4,-1,-5
14:16:23:391337,1,-1,13,3,-3,-7,2,0
14:16:23:397303,1,-5,-1,5,-2,6,-4,0
14:16:23:413002,1,-5,-1,5,-2,6,-4,0
14:16:23:413820,-10,2,-7,-3,5,2,-6,-13
14:16:23:419831,-4,-8,-12,-10,-4,2,-16,-5
14:16:23:435585,-4,-8,-12,-10,-4,2,-16,-5
14:16:23:436301,0,-3,-3,3,9,-2,2,1
14:16:23:442308,1,6,17,10,-2,-7,-6,5
14:16:23:450491,1,6,17,10,-2,-7,-6,5
14:16:23:451310,-4,-3,-5,-15,-7,-8,-4,-1
14:16:23:457286,-4,-1,14,-11,-7,-1,-5,-5
14:16:23:473059,-4,-1,14,-11,-7,-1,-5,-5
14:16:23:473796,0,-6,-14,-7,-13,-17,-1,4
14:16:23:479834,0,0,-6,12,13,17,3,-1
14:16:23:495532,0,0,-6,12,13,17,3,-1
14:16:23:496356,1,5,7,-8,-10,0,4,2
14:16:23:502407,-6,-9,-5,-3,2,4,6,-12
14:16:23:510447,-6,-9,-5,-3,2,4,6,-12
14:16:23:511223,11,7,1,10,21,21,1,4
14:16:23:524789,-2,-8,-16,3,-7,6,9,1
14:16:23:533092,-2,-8,-16,3,-7,6,9,1
14:16:23:533776,-5,-3,0,0,-9,-8,-1,4
14:16:23:539858,2,-1,-6,0,13,16,-8,-1
14:16:23:547374,2,-1,-6,0,13,16,-8,-1
14:16:23:554889,3,8,8,-5,-15,1,-5,-3
14:16:23:562369,-2,-1,1,3,-9,-13,-9,-1
14:16:23:570599,-2,-1,1,3,-9,-13,-9,-1
14:16:23:571343,-5,-7,-1,-3,-1,18,6,-9
14:16:23:584895,0,-1,-17,-10,-1,-5,-6,-2
14:16:23:592963,0,-1,-17,-10,-1,-5,-6,-2
14:16:23:593777,4,5,2,4,22,14,2,5
14:16:23:599888,-6,-11,7,-4,-14,-9,-7,-8
14:16:23:615605,-6,-11,7,-4,-14,-9,-7,-8
14:16:23:616319,1,-2,-25,-7,-7,-3,3,0
14:16:23:622347,-3,-7,15,-3,5,0,-2,-3
14:16:23:630533,-3,-7,15,-3,5,0,-2,-3
14:16:23:631336,-2,-2,13,5,0,-3,-6,0
14:16:23:644818,11,6,2,-12,-12,-10,5,2
14:16:23:653063,11,6,2,-12,-12,-10,5,2
14:16:23:653755,2,-1,-4,6,-2,-4,-8,0
14:16:23:659756,-7,-3,2,14,15,1,1,0
14:16:23:675558,-7,-3,2,14,15,1,1,0
14:16:23:676286,-2,-4,-5,-5,-14,-20,-6,-1
14:16:23:682398,4,7,4,2,13,18,17,1
14:16:23:690529,4,7,4,2,13,18,17,1
14:16:23:691248,-4,-9,-31,-3,-4,-6,-4,-2
14:16:23:704847,-4,-10,-27,-15,-11,-27,-19,-3
14:16:23:713071,-4,-10,-27,-15,-11,-27,-19,-3
14:16:23:713831,-8,3,18,-4,3,2,6,-7
14:16:23:719852,1,2,-11,5,3,16,7,-3
14:16:23:727311,1,2,-11,5,3,16,7,-3
14:16:23:735090,0,-7,10,7,-1,-8,-6,-2
14:16:23:742316,-4,0,2,0,-8,-16,-9,2
14:16:23:750472,-4,0,2,0,-8,-16,-9,2
14:16:23:751303,2,5,-6,-2,-8,9,14,6
14:16:23:764936,-1,8,25,12,3,4,11,19
14:16:23:773038,-1,8,25,12,3,4,11,19
14:16:23:773785,2,-7,5,5,4,-9,-13,-19
14:16:23:779830,3,1,3,0,2,-4,22,13
14:16:23:787455,3,1,3,0,2,-4,22,13
14:16:23:794749,1,7,14,-3,-14,-12,12,9
14:16:23:802319,2,4,8,18,8,7,-12,-6
14:16:23:810498,2,4,8,18,8,7,-12,-6
14:16:23:811283,-2,-6,-22,-11,8,-2,-6,1
14:16:23:824840,-5,-1,-6,0,4,3,7,-7
14:16:23:833094,-5,-1,-6,0,4,3,7,-7
14:16:23:833783,-1,1,7,2,7,12,-9,-6
14:16:23:839803,0,3,-21,-20,-9,-5,-3,-13
14:16:23:847401,0,3,-21,-20,-9,-5,-3,-13
14:16:23:854826,0,-17,-16,0,-8,-10,15,12
14:16:23:862271,12,-10,-14,9,-5,-4,4,14
14:16:23:870598,12,-10,-14,9,-5,-4,4,14
14:16:23:871301,2,6,0,-13,-2,19,33,11
14:16:23:884816,-4,2,-1,-1,-6,8,-11,-10
14:16:23:893032,-4,2,-1,-1,-6,8,-11,-10
14:16:23:893754,-6,-5,-8,-5,7,-9,-12,-4
14:16:23:899824,-5,-7,-14,-9,-1,-1,-4,-8
14:16:23:907374,-5,-7,-14,-9,-1,-1,-4,-8
14:16:23:914944,1,7,2,6,-7,-9,-16,-10
14:16:23:922313,-4,-6,-2,-1,0,-11,-3,-3
14:16:23:930575,-4,-6,-2,-1,0,-11,-3,-3
14:16:23:931326,-4,1,9,0,3,19,-12,-15
14:16:23:944788,-4,3,10,7,-4,10,22,25
14:16:23:953053,-4,3,10,7,-4,10,22,25
14:16:23:953886,-1,3,-2,7,-4,-9,-11,-2
14:16:23:959734,-6,-12,-42,-22,-7,-1,-5,-16
14:16:23:967384,-6,-12,-42,-22,-7,-1,-5,-16
14:16:23:974828,-3,-11,-3,-2,-4,-16,-5,7
14:16:23:982367,0,9,2,-7,-2,-10,-10,-2
14:16:23:990528,0,9,2,-7,-2,-10,-10,-2
14:16:23:991285,0,3,-3,-4,-1,-10,-16,-8
14:16:24:4803,-3,1,-3,4,17,18,11,2
14:16:24:13047,-3,1,-3,4,17,18,11,2
14:16:24:13796,-1,6,13,-5,-8,-12,-4,3
14:16:24:19844,-1,-1,7,4,-8,-1,-3,8
14:16:24:27298,-1,-1,7,4,-8,-1,-3,8
14:16:24:34935,-7,-11,-7,4,4,31,10,-29
14:16:24:42321,2,3,15,6,-3,-14,-20,-19
14:16:24:50502,2,3,15,6,-3,-14,-20,-19
14:16:24:51274,3,-7,2,4,6,6,10,25
14:16:24:64975,4,1,4,-2,13,20,2,9
14:16:24:73027,4,1,4,-2,13,20,2,9
14:16:24:73763,-1,-3,0,-7,-8,-16,-3,5
14:16:24:79807,-2,3,24,13,-4,-1,-3,-5
14:16:24:87411,-2,3,24,13,-4,-1,-3,-5
14:16:24:94756,1,2,9,3,-5,-10,4,6
14:16:24:102365,2,-5,-2,5,-3,6,0,0
14:16:24:110484,2,-5,-2,5,-3,6,0,0
14:16:24:111298,-2,-1,-2,3,6,7,13,-5
14:16:24:124862,5,-6,-22,-22,-11,-28,-20,1
14:16:24:133002,5,-6,-22,-22,-11,-28,-20,1
14:16:24:133811,6,4,14,5,-1,-6,-2,6
14:16:24:139803,-2,0,1,-3,8,10,5,5
14:16:24:147398,-2,0,1,-3,8,10,5,5
14:16:24:154830,-8,1,-3,-1,-1,-4,2,-19
14:16:24:162294,7,10,21,16,12,5,26,0
14:16:24:170623,7,10,21,16,12,5,26,0
14:16:24:171355,-6,2,9,0,9,2,-9,4
14:16:24:184815,-8,-7,4,-8,-10,-16,-12,0
14:16:24:193001,-8,-7,4,-8,-10,-16,-12,0
14:16:24:193770,1,1,-12,-9,-4,-6,6,4
14:16:24:199854,-1,-10,9,-2,2,6,-2,-2
14:16:24:207396,-1,-10,9,-2,2,6,-2,-2
14:16:24:214953,-5,-9,-11,2,-4,-16,-10,-7
14:16:24:222285,1,4,6,-4,-11,-4,-3,-8
14:16:24:230539,1,4,6,-4,-11,-4,-3,-8
14:16:24:231305,7,5,-17,-5,10,27,10,7
14:16:24:244775,-7,-10,7,-7,-3,-7,-4,-2
14:16:24:253124,-7,-10,7,-7,-3,-7,-4,-2
14:16:24:253861,-8,2,-18,-10,-1,8,-19,-23
14:16:24:259737,-1,0,-8,-3,-6,5,-5,-1
14:16:24:267452,-1,0,-8,-3,-6,5,-5,-1
14:16:24:274864,4,3,16,4,15,16,4,7
14:16:24:282377,1,1,-5,0,-14,-21,-27,-6
14:16:24:290503,1,1,-5,0,-14,-21,-27,-6
14:16:24:291263,4,6,-2,1,-5,0,8,2
14:16:24:304838,0,3,-3,-3,9,14,14,6
14:16:24:312964,0,3,-3,-3,9,14,14,6
14:16:24:313740,2,-3,-12,0,-1,1,0,1
14:16:24:319874,-6,-4,-41,-14,-10,-3,-5,-7
14:16:24:327299,-6,-4,-41,-14,-10,-3,-5,-7
14:16:24:334940,1,-2,-12,17,10,1,7,6
14:16:24:342306,0,1,1,-2,0,-11,0,-4
14:16:24:350509,0,1,1,-2,0,-11,0,-4
14:16:24:351316,-1,-4,-12,1,-11,-14,-13,-6
14:16:24:364970,10,2,16,-2,-2,4,11,10
14:16:24:373019,10,2,16,-2,-2,4,11,10
14:16:24:373757,1,-9,-17,2,-9,-11,-11,-3
14:16:24:379787,-11,-17,-36,-25,1,3,-5,-9
14:16:24:387410,-11,-17,-36,-25,1,3,-5,-9
14:16:24:394755,4,0,19,4,10,15,8,-2
14:16:24:402384,13,7,-2,26,-3,-3,17,13
14:16:24:409803,13,7,-2,26,-3,-3,17,13
14:16:24:417275,-1,0,6,-1,2,-4,3,1
14:16:24:424849,-11,-12,-20,2,3,-2,-11,-15
14:16:24:433117,-11,-12,-20,2,3,-2,-11,-15
14:16:24:433841,-3,5,19,-10,-17,-2,-2,3
14:16:24:448171,-4,-6,4,14,1,-5,-5,2
14:16:24:448800,-4,-6,4,14,1,-5,-5,2
14:16:24:454807,-6,-14,-8,-17,-18,-9,-10,-6
14:16:24:462277,1,1,2,10,11,-10,-8,-3
14:16:24:469969,1,1,2,10,11,-10,-8,-3
14:16:24:477306,-1,13,57,1,-6,3,-3,2
14:16:24:484862,-3,0,-1,-42,-9,11,11,4
14:16:24:492991,-3,0,-1,-42,-9,11,11,4
14:16:24:493834,-2,-5,-26,3,11,4,-7,-5
14:16:24:508060,-4,0,-2,0,1,3,-3,-1
14:16:24:508847,-4,0,-2,0,1,3,-3,-1
14:16:24:515019,6,17,38,-2,-9,-6,-6,5
14:16:24:522284,4,11,31,14,13,3,1,1
14:16:24:529845,4,11,31,14,13,3,1,1
14:16:24:537382,-2,4,-35,-5,-3,-5,5,3
14:16:24:544803,-22,-4,-13,-5,-11,-6,-1,-17
14:16:24:553084,-22,-4,-13,-5,-11,-6,-1,-17
14:16:24:553794,-3,-12,-19,-4,9,1,3,0
14:16:24:568024,1,-3,2,-4,-1,-12,-6,-2
14:16:24:568782,1,-3,2,-4,-1,-12,-6,-2
14:16:24:574791,-3,2,22,14,-6,2,1,-7
14:16:24:582364,0,9,24,34,11,14,10,7
14:16:24:589844,0,9,24,34,11,14,10,7
14:16:24:597311,0,-2,40,-2,4,-6,0,1
14:16:24:604834,-2,-9,-41,-43,-17,1,-13,-10
14:16:24:612986,-2,-9,-41,-43,-17,1,-13,-10
14:16:24:613764,3,-6,-37,14,13,-9,8,3
14:16:24:627950,8,10,24,15,4,6,-4,2
14:16:24:628767,8,10,24,15,4,6,-4,2
14:16:24:634832,-8,-8,-16,-15,-7,-5,-11,-5
14:16:24:642319,7,7,2,15,12,9,7,9
14:16:24:649843,7,7,2,15,12,9,7,9
14:16:24:657293,-4,-11,-2,11,-5,-14,-24,-15
14:16:24:664879,9,12,-30,3,36,29,46,17
14:16:24:673050,9,12,-30,3,36,29,46,17
14:16:24:673826,0,5,8,-14,3,8,9,1
14:16:24:688054,-5,-17,1,-6,-19,-26,-20,-8
14:16:24:688820,-5,-17,1,-6,-19,-26,-20,-8
14:16:24:694745,0,3,-9,0,-7,-8,-3,-3
14:16:24:702334,-1,-13,-52,-13,-5,-10,-5,-2
14:16:24:709831,-1,-13,-52,-13,-5,-10,-5,-2
14:16:24:717286,-2,-2,-3,-21,-17,-4,-8,-2
14:16:24:724779,-2,-1,6,21,10,4,-1,-1
14:16:24:733072,-2,-1,6,21,10,4,-1,-1
14:16:24:733778,-3,-9,-29,-28,-2,14,3,0
14:16:24:748089,-6,-3,26,-11,3,2,7,-1
14:16:24:748805,-6,-3,26,-11,3,2,7,-1
14:16:24:754805,10,10,14,21,12,1,10,7
14:16:24:762295,-5,0,19,-14,-23,-20,-24,-14
14:16:24:769981,-5,0,19,-14,-23,-20,-24,-14
14:16:24:777246,-6,-5,9,-1,-3,2,1,2
14:16:24:784837,-5,-9,-29,0,-14,-38,-12,-7
14:16:24:792950,-5,-9,-29,0,-14,-38,-12,-7
14:16:24:793766,3,-2,-8,22,40,25,7,6
14:16:24:808013,-2,6,19,-13,2,7,3,-2
14:16:24:808853,-2,6,19,-13,2,7,3,-2
14:16:24:814964,-8,-15,-69,-1,-8,-2,6,-5
14:16:24:822296,-3,-13,-7,15,-17,-3,-6,-4
14:16:24:829827,-3,-13,-7,15,-17,-3,-6,-4
14:16:24:837429,-3,-20,-59,-49,-8,-8,-1,2
14:16:24:844796,0,5,-2,-5,0,1,-8,-1
14:16:24:853118,0,5,-2,-5,0,1,-8,-1
14:16:24:853760,3,8,27,27,8,5,1,4
14:16:24:868034,8,18,58,7,7,-2,2,5
14:16:24:868780,8,18,58,7,7,-2,2,5
14:16:24:874816,-3,-14,-7,6,2,14,8,-3
14:16:24:882442,-1,-2,-25,-5,0,11,0,-1
14:16:24:889831,-1,-2,-25,-5,0,11,0,-1
14:16:24:897265,1,10,37,4,-10,-14,-6,-5
14:16:24:904820,-3,-18,-9,-1,-10,-12,6,-1
14:16:24:913015,-3,-18,-9,-1,-10,-12,6,-1
14:16:24:913778,1,-4,16,0,-5,-6,-6,1
14:16:24:927955,-2,4,-5,-24,-6,-1,-9,-9
14:16:24:928735,-2,4,-5,-24,-6,-1,-9,-9
14:16:24:934776,-5,-5,-3,-8,-9,-13,-5,-5
14:16:24:942274,1,-1,-7,25,7,4,3,4
14:16:24:949864,1,-1,-7,25,7,4,3,4
14:16:24:957288,-1,12,44,3,15,25,7,1
14:16:24:964905,0,7,24,-4,-3,1,-6,-5
14:16:24:973006,0,7,24,-4,-3,1,-6,-5
14:16:24:973853,-1,-2,-28,-5,-12,-18,-6,-4
14:16:24:988062,-3,-2,9,9,8,14,12,8
14:16:24:988812,-3,-2,9,9,8,14,12,8
14:16:24:994768,0,11,28,7,-7,-6,1,-3
14:16:25:2411,-2,-6,-31,3,-3,-6,-4,-1
14:16:25:18119,-2,-6,-31,3,-3,-6,-4,-1
14:16:25:18754,1,9,65,-1,-1,-6,-6,-1
14:16:25:24776,-2,-4,3,-16,-5,-1,-3,1
14:16:25:33075,-2,-4,3,-16,-5,-1,-3,1
14:16:25:33828,-3,-18,-10,8,3,-5,-1,-2
14:16:25:48152,1,14,33,7,5,8,4,-2
14:16:25:48811,1,14,33,7,5,8,4,-2
14:16:25:54773,4,0,-16,1,-10,-3,-4,4
14:16:25:62306,-4,-7,-9,7,-1,-7,-1,5
14:16:25:69941,-4,-7,-9,7,-1,-7,-1,5
14:16:25:77277,-9,0,4,-5,0,-6,-4,-14
14:16:25:84874,-1,1,-17,-16,-1,2,4,1
14:16:25:93040,-1,1,-17,-16,-1,2,4,1
14:16:25:93792,1,7,16,-3,-2,3,1,-4
14:16:25:108031,-6,-21,-3,1,-6,-1,-2,-7
14:16:25:108826,-6,-21,-3,1,-6,-1,-2,-7
14:16:25:114992,2,7,-13,-1,0,-5,-2,6
14:16:25:122333,-2,-6,4,6,1,-6,-5,1
14:16:25:129899,-2,-6,4,6,1,-6,-5,1
14:16:25:137390,1,-4,-19,-19,-4,-16,-8,1
14:16:25:144814,2,8,6,0,6,13,0,-3
14:16:25:153104,2,8,6,0,6,13,0,-3
14:16:25:153804,-4,-1,-20,-6,-1,1,-1,-1
14:16:25:168028,-1,-3,9,-6,-8,-7,-3,12
14:16:25:168798,-1,-3,9,-6,-8,-7,-3,12
14:16:25:174769,-7,-5,-13,-3,-7,8,51,-3
14:16:25:182388,-2,-6,-30,-6,0,4,0,-4
14:16:25:189857,-2,-6,-30,-6,0,4,0,-4
14:16:25:197338,-1,0,-15,4,0,-7,-15,-1
14:16:25:204869,6,20,72,17,0,-3,0,-2
14:16:25:212968,6,20,72,17,0,-3,0,-2
14:16:25:213736,-3,-10,2,1,-4,-3,-12,-2
14:16:25:227942,1,8,-5,-6,3,-7,-10,-3
14:16:25:228753,1,8,-5,-6,3,-7,-10,-3
14:16:25:234894,1,1,9,-1,-2,0,-3,2
14:16:25:242334,-3,5,6,9,4,3,0,0
14:16:25:249852,-3,5,6,9,4,3,0,0
14:16:25:257295,5,-3,-5,-1,4,3,1,-1
14:16:25:264932,5,10,-1,9,18,-3,-3,-10
14:16:25:273034,5,10,-1,9,18,-3,-3,-10
14:16:25:273779,-4,-9,-8,8,12,2,-7,21
14:16:25:288007,21,10,-5,-20,-10,-12,-5,-2
14:16:25:288777,21,10,-5,-20,-10,-12,-5,-2
14:16:25:294764,-1,2,-13,-2,22,14,13,7
14:16:25:302421,-10,-3,-8,-3,-9,7,3,-33
14:16:25:309827,-10,-3,-8,-3,-9,7,3,-33
14:16:25:317292,-4,-7,11,0,-18,-9,-11,-10
14:16:25:324775,-1,2,53,-10,-6,-4,-4,8
14:16:25:333102,-1,2,53,-10,-6,-4,-4,8
14:16:25:333789,-1,-2,-7,-8,-9,-5,-5,-1
14:16:25:348120,0,4,-2,-4,-10,-5,-4,9
14:16:25:348831,0,4,-2,-4,-10,-5,-4,9
14:16:25:354817,1,6,-1,-1,0,0,-2,-12
14:16:25:370349,-3,-8,-16,5,3,5,3,1
14:16:25:377960,-3,-8,-16,5,3,5,3,1
14:16:25:378766,2,-5,-15,-12,-19,-12,-18,-4
14:16:25:384829,-29,-15,-54,-10,-6,1,3,-4
14:16:25:392382,-29,-15,-54,-10,-6,1,3,-4
14:16:25:399780,8,25,46,26,7,9,-2,-3
14:16:25:408017,3,18,-14,21,40,6,6,4
14:16:25:408808,3,18,-14,21,40,6,6,4
14:16:25:415011,-21,-36,-16,-12,-4,-11,-1,3
14:16:25:430478,-7,-41,5,2,-15,-2,1,-1
14:16:25:431334,-7,-41,5,2,-15,-2,1,-1
14:16:25:437365,8,-4,-1,-6,-5,1,-7,-16
14:16:25:444778,3,3,-12,-7,-7,-2,-4,5
14:16:25:452420,3,3,-12,-7,-7,-2,-4,5
14:16:25:459778,5,11,1,-4,-1,3,8,15
14:16:25:468080,-24,-57,-18,0,-12,-8,-4,-9
14:16:25:468803,-24,-57,-18,0,-12,-8,-4,-9
14:16:25:474785,7,32,5,-14,-8,-1,3,-1
14:16:25:490264,32,14,13,4,-17,-9,0,3
14:16:25:498150,32,14,13,4,-17,-9,0,3
14:16:25:498836,-1,-13,-16,-5,-1,5,-2,-4
14:16:25:504877,-1,-56,-22,5,15,17,5,10
14:16:25:512372,-1,-56,-22,5,15,17,5,10
14:16:25:519842,1,13,-26,2,-2,-7,-5,-7
14:16:25:528623,14,37,31,4,-7,-12,-9,0
14:16:25:529404,14,37,31,4,-7,-12,-9,0
14:16:25:534955,-10,-10,-9,6,7,13,6,-14
14:16:25:550522,7,16,-15,-6,1,-7,-4,-6
14:16:25:551346,7,16,-15,-6,1,-7,-4,-6
14:16:25:557276,-10,7,0,-1,-11,-1,0,2
14:16:25:565008,-5,-12,-22,-23,-16,-13,-11,-9
14:16:25:572364,-5,-12,-22,-23,-16,-13,-11,-9
14:16:25:579846,-4,-6,39,10,-3,1,0,5
14:16:25:588061,0,48,-8,2,7,1,1,-3
14:16:25:588813,0,48,-8,2,7,1,1,-3
14:16:25:594767,-21,-18,-4,-26,-5,2,1,-2
14:16:25:610468,2,10,14,28,25,16,0,4
14:16:25:611249,2,10,14,28,25,16,0,4
14:16:25:617319,5,0,-14,3,-22,-14,-14,-3
14:16:25:624849,8,16,-4,-26,-10,-1,3,3
14:16:25:632420,8,16,-4,-26,-10,-1,3,3
14:16:25:639791,-2,-22,-21,7,49,10,5,0
14:16:25:656144,-9,3,-18,10,0,-2,5,-13
14:16:25:656904,-9,3,-18,10,0,-2,5,-13
14:16:25:657753,-1,14,-3,-1,-13,-15,-5,-12
14:16:25:670529,-1,9,13,-12,2,12,10,13
14:16:25:671296,-1,9,13,-12,2,12,10,13
14:16:25:677324,1,-4,10,0,17,6,11,2
14:16:25:684841,-2,-25,-11,-16,-11,1,7,3
14:16:25:692336,-2,-25,-11,-16,-11,1,7,3
14:16:25:699780,5,13,9,-3,1,13,-2,2
14:16:25:708009,-7,-9,12,-1,-11,-22,-18,2
14:16:25:708805,-7,-9,12,-1,-11,-22,-18,2
14:16:25:714930,6,-15,16,14,5,13,7,-15
14:16:25:730493,13,15,12,-6,11,34,7,6
14:16:25:731304,13,15,12,-6,11,34,7,6
14:16:25:737368,-4,19,14,16,-7,-12,-6,0
14:16:25:744752,-7,-18,-16,-14,-5,-8,-2,-13
14:16:25:752371,-7,-18,-16,-14,-5,-8,-2,-13
14:16:25:759725,5,3,-3,-12,-36,-19,-6,2
14:16:25:768082,-14,1,2,11,14,-6,-8,-6
14:16:25:768842,-14,1,2,11,14,-6,-8,-6
14:16:25:774803,-1,-2,7,4,-18,-26,-7,1
14:16:25:790523,-12,-6,10,27,44,28,6,-3
14:16:25:791332,-12,-6,10,27,44,28,6,-3
14:16:25:797301,9,7,-6,8,30,15,0,14
14:16:25:804901,-1,15,4,-9,-30,-35,-16,1
14:16:25:812376,-1,15,4,-9,-30,-35,-16,1
14:16:25:819881,-6,-23,-17,-4,3,-5,-4,-7
14:16:25:827996,1,-4,28,-19,-24,3,7,8
14:16:25:828822,1,-4,28,-19,-24,3,7,8
14:16:25:834935,-1,-1,-8,-10,-2,-51,17,12
14:16:25:850647,-3,-15,-20,12,35,46,17,14
14:16:25:851342,-3,-15,-20,12,35,46,17,14
14:16:25:857322,-4,-16,5,-2,-32,9,-4,-12
14:16:25:864970,-6,5,-10,16,-1,-14,-7,-4
14:16:25:872380,-6,5,-10,16,-1,-14,-7,-4
14:16:25:879792,-8,-1,-10,-14,0,-3,-7,-6
14:16:25:887957,-3,-16,3,4,-24,-2,-9,-12
14:16:25:888779,-3,-16,3,4,-24,-2,-9,-12
14:16:25:894770,7,32,9,7,23,16,-20,4
14:16:25:910499,-12,-12,-31,-35,-12,-6,15,-8
14:16:25:911300,-12,-12,-31,-35,-12,-6,15,-8
14:16:25:917323,0,-18,-23,-23,-15,12,5,4
14:16:25:933021,4,-13,7,-4,12,-33,-3,-5
14:16:25:933767,4,-13,7,-4,12,-33,-3,-5
14:16:25:939807,3,13,-6,2,3,-8,5,3
14:16:25:948040,1,-6,-4,3,-29,-23,-8,7
14:16:25:948741,1,-6,-4,3,-29,-23,-8,7
14:16:25:954802,-6,3,11,-3,32,23,10,9
14:16:25:970579,3,12,-13,-2,10,-7,4,12
14:16:25:971354,3,12,-13,-2,10,-7,4,12
14:16:25:977294,-1,-9,6,-9,-22,15,3,-3
14:16:25:984862,3,28,14,8,-11,-1,-7,-4
14:16:25:992394,3,28,14,8,-11,-1,-7,-4
14:16:25:999851,-10,-31,3,-11,-7,-4,0,-6
14:16:26:8006,4,-11,10,6,35,10,-2,0
14:16:26:8827,4,-11,10,6,35,10,-2,0
14:16:26:14960,3,12,24,-9,-10,-17,-25,-10
14:16:26:30460,-7,-6,8,10,-30,2,-1,-11
14:16:26:31326,-7,-6,8,10,-30,2,-1,-11
14:16:26:37378,17,9,-19,-7,7,14,10,5
14:16:26:44802,-2,-28,-7,-28,-17,-5,7,0
14:16:26:52461,-2,-28,-7,-28,-17,-5,7,0
14:16:26:59807,-3,-9,15,9,-2,12,15,4
14:16:26:68034,-2,1,-2,-3,0,17,6,-2
14:16:26:68827,-2,1,-2,-3,0,17,6,-2
14:16:26:74793,-2,-2,5,8,2,-1,-5,2
14:16:26:90514,-2,-14,10,8,2,-11,-10,21
14:16:26:91310,-2,-14,10,8,2,-11,-10,21
14:16:26:97249,-10,0,-25,3,10,-18,-4,-12
14:16:26:104845,5,22,6,-10,36,72,4,-4
14:16:26:112335,5,22,6,-10,36,72,4,-4
14:16:26:119886,-2,-1,4,13,1,-38,-4,2
14:16:26:127971,-5,11,-24,-11,-36,-17,-15,-23
14:16:26:128797,-5,11,-24,-11,-36,-17,-15,-23
14:16:26:134873,6,12,5,-2,18,17,17,4
14:16:26:150472,-17,-33,10,-9,-15,-25,-7,-5
14:16:26:151275,-17,-33,10,-9,-15,-25,-7,-5
14:16:26:157287,-4,-19,-23,11,3,-6,-9,8
14:16:26:164959,7,2,-3,-3,26,0,12,8
14:16:26:172388,7,2,-3,-3,26,0,12,8
14:16:26:179783,-7,13,12,5,-12,11,0,-6
14:16:26:187996,-11,-17,7,13,3,-26,-20,-29
14:16:26:188799,-11,-17,7,13,3,-26,-20,-29
14:16:26:194757,-9,-32,-2,16,33,31,12,-5
14:16:26:210935,-2,13,8,-1,-3,-35,6,2
14:16:26:211744,-2,13,8,-1,-3,-35,6,2
14:16:26:217254,2,5,-17,-2,-20,-9,-6,-9
14:16:26:224825,7,17,-7,-17,-11,-6,-5,1
14:16:26:232488,7,17,-7,-17,-11,-6,-5,1
14:16:26:239849,12,14,-7,0,5,22,-17,2
14:16:26:248217,-10,9,-12,-8,-13,5,3,-19
14:16:26:248828,-10,9,-12,-8,-13,5,3,-19
14:16:26:254796,-4,12,14,-11,-19,-4,-3,-6
14:16:26:270616,-4,12,14,-11,-19,-4,-3,-6
14:16:26:271296,0,-12,9,12,-20,-6,-1,17
14:16:26:277287,2,9,11,-24,-15,-7,-6,2
14:16:26:293020,2,9,11,-24,-15,-7,-6,2
14:16:26:293781,11,11,4,12,33,18,6,9
14:16:26:299821,-12,-13,0,-8,-27,-26,-4,9
14:16:26:308075,-12,-13,0,-8,-27,-26,-4,9
14:16:26:308848,-4,-37,-22,10,1,2,6,-3
14:16:26:322315,-1,-16,-15,12,6,-13,-18,-37
14:16:26:330507,-1,-16,-15,12,6,-13,-18,-37
14:16:26:331290,1,5,1,-15,-3,9,-18,12
14:16:26:337362,5,-10,-14,8,-4,10,21,17
14:16:26:353107,5,-10,-14,8,-4,10,21,17
14:16:26:353836,-1,-13,-7,13,18,22,5,2
14:16:26:359741,3,7,17,6,2,-3,-11,7
14:16:26:368084,3,7,17,6,2,-3,-11,7
14:16:26:368870,-4,15,-14,-23,-35,-34,-11,-16
14:16:26:382413,-6,-5,5,-14,-12,10,5,-1
14:16:26:390528,-6,-5,5,-14,-12,10,5,-1
14:16:26:391265,8,23,10,-5,3,2,-7,-1
14:16:26:397299,2,10,11,6,13,-21,-1,-2
14:16:26:413010,2,10,11,6,13,-21,-1,-2
14:16:26:413748,5,16,-20,6,24,26,-1,3
14:16:26:419843,1,-12,-15,-11,14,9,17,-2
14:16:26:427985,1,-12,-15,-11,14,9,17,-2
14:16:26:428827,-8,-9,-2,2,-19,-14,-6,23
14:16:26:442286,-10,-15,-5,-1,-8,-25,3,-3
14:16:26:450475,-10,-15,-5,-1,-8,-25,3,-3
14:16:26:451328,3,22,8,7,8,-13,-2,-2
14:16:26:457293,-5,-23,-25,-3,-2,10,-22,-3
14:16:26:473011,-5,-23,-25,-3,-2,10,-22,-3
14:16:26:473772,-15,-21,-6,-14,-6,40,11,-11
14:16:26:488644,19,31,40,-2,52,53,24,22
14:16:26:489435,19,31,40,-2,52,53,24,22
14:16:26:490255,-9,-28,-17,-28,-33,-30,-34,-28
14:16:26:502423,-8,-8,-65,-27,-13,-16,-10,-5
14:16:26:510458,-8,-8,-65,-27,-13,-16,-10,-5
14:16:26:511234,14,39,38,19,12,3,4,-2
14:16:26:517347,4,-4,2,10,2,-11,-3,2
14:16:26:533044,4,-4,2,10,2,-11,-3,2
14:16:26:533793,-5,-4,-16,-1,-35,-14,6,7
14:16:26:539818,10,5,10,23,60,6,3,12
14:16:26:548145,10,5,10,23,60,6,3,12
14:16:26:548803,2,-11,25,7,19,-4,7,-6
14:16:26:562271,-6,8,-1,-11,-36,5,2,-23
14:16:26:570662,-6,8,-1,-11,-36,5,2,-23
14:16:26:571357,0,0,0,-4,3,-31,-5,23
14:16:26:577285,-7,-7,1,14,-4,-7,14,2
14:16:26:593032,-7,-7,1,14,-4,-7,14,2
14:16:26:593794,-12,-12,-26,-26,-27,-3,2,-8
14:16:26:599909,16,11,12,30,11,4,0,4
14:16:26:608107,16,11,12,30,11,4,0,4
14:16:26:608826,2,-17,-10,17,26,17,13,-22
14:16:26:622346,-2,6,-4,-31,-54,-37,-7,-21
14:16:26:630554,-2,6,-4,-31,-54,-37,-7,-21
14:16:26:631358,9,24,9,-6,-17,-10,-8,2
14:16:26:637355,-10,-27,-19,-16,-16,-7,-14,-10
14:16:26:653109,-10,-27,-19,-16,-16,-7,-14,-10
14:16:26:653858,-6,-22,-12,-1,-2,-10,5,-15
14:16:26:659754,-5,8,40,22,14,-8,3,2
14:16:26:668097,-5,8,40,22,14,-8,3,2
14:16:26:668777,6,-9,-5,9,22,22,11,19
14:16:26:682355,-1,-2,4,15,36,49,-3,5
14:16:26:690540,-1,-2,4,15,36,49,-3,5
14:16:26:691300,5,-1,20,19,21,21,-10,4
14:16:26:697326,-6,14,3,-3,-57,-60,-11,-24
14:16:26:713023,-6,14,3,-3,-57,-60,-11,-24
14:16:26:713787,-9,-11,-20,-11,-34,-6,-8,-1
14:16:26:719900,8,20,3,5,4,20,5,17
14:16:26:728030,8,20,3,5,4,20,5,17
14:16:26:728825,-9,-13,-20,-20,-27,-39,-26,-19
14:16:26:742323,-5,5,7,1,17,26,5,5
14:16:26:750552,-5,5,7,1,17,26,5,5
14:16:26:751288,-9,-14,-3,17,24,8,-1,-7
14:16:26:764969,4,10,-9,-4,16,32,-15,3
14:16:26:773043,4,10,-9,-4,16,32,-15,3
14:16:26:773838,3,15,26,11,0,25,23,5
14:16:26:779784,7,-8,19,11,-2,-8,5,11
14:16:26:788107,7,-8,19,11,-2,-8,5,11
14:16:26:788827,1,3,14,4,-35,-4,3,-3
14:16:26:802416,-9,4,25,-9,-21,-4,-7,-21
14:16:26:810483,-9,4,25,-9,-21,-4,-7,-21
14:16:26:811260,7,25,7,4,-4,-23,-2,-1
14:16:26:824821,-10,-13,-11,-17,-15,-4,-4,-6
14:16:26:833025,-10,-13,-11,-17,-15,-4,-4,-6
14:16:26:833742,-10,9,-1,-10,35,39,6,20
14:16:26:839815,1,1,-22,0,22,-20,17,9
14:16:26:848013,1,1,-22,0,22,-20,17,9
14:16:26:848766,3,4,-14,7,2,-30,-7,-12
14:16:26:862312,-9,-17,-23,7,-11,3,0,-1
14:16:26:870579,-9,-17,-23,7,-11,3,0,-1
14:16:26:871296,2,7,-39,-13,10,11,-5,21
14:16:26:877275,6,11,5,-7,-8,-7,-4,4
14:16:26:893020,6,11,5,-7,-8,-7,-4,4
14:16:26:893766,10,12,29,5,3,-15,-2,12
14:16:26:899860,-5,-19,-18,1,6,16,9,24
14:16:26:908044,-5,-19,-18,1,6,16,9,24
14:16:26:908843,-9,-23,2,-8,-5,0,-1,2
14:16:26:922337,0,6,2,-19,0,29,-4,-18
14:16:26:930509,0,6,2,-19,0,29,-4,-18
14:16:26:931262,7,-1,-4,-8,-25,-18,-4,-4
14:16:26:937380,-1,-2,1,-14,-16,-3,-10,-6
14:16:26:953072,-1,-2,1,-14,-16,-3,-10,-6
14:16:26:953801,-5,-8,-6,22,11,-49,0,-8
14:16:26:959754,4,3,-17,9,-5,-17,-3,12
14:16:26:968007,4,3,-17,9,-5,-17,-3,12
14:16:26:968734,1,10,29,24,17,20,5,-25
14:16:26:982369,8,2,-16,-27,2,-5,-4,4
14:16:26:990554,8,2,-16,-27,2,-5,-4,4
14:16:26:991337,-2,-7,2,-7,14,-15,-1,-12
14:16:26:997346,3,23,11,9,15,4,-4,-1
14:16:27:13037,3,23,11,9,15,4,-4,-1
14:16:27:13833,3,-7,-9,-19,-32,-12,-17,5
14:16:27:19922,-2,3,11,31,11,-6,-1,-7
14:16:27:27964,-2,3,11,31,11,-6,-1,-7
14:16:27:28766,-3,-8,-22,-9,-15,-5,-6,8
14:16:27:42290,-7,-21,-15,-3,-12,-14,-9,-14
14:16:27:50537,-7,-21,-15,-3,-12,-14,-9,-14
14:16:27:51291,7,2,-8,3,5,18,8,5
14:16:27:57313,-10,-23,10,10,-4,-21,3,-1
14:16:27:73049,-10,-23,10,10,-4,-21,3,-1
14:16:27:73809,2,7,5,-10,18,31,7,0
14:16:27:79808,-8,-6,-12,-25,-34,-18,-2,-16
14:16:27:88086,-8,-6,-12,-25,-34,-18,-2,-16
14:16:27:88813,4,8,7,12,27,24,-1,2
14:16:27:102372,-1,-9,-1,-6,0,11,-12,23
14:16:27:110498,-1,-9,-1,-6,0,11,-12,23
14:16:27:111262,3,1,3,-11,3,0,39,3
14:16:27:117293,-15,-6,-13,-17,-10,3,-17,-23
14:16:27:133044,-15,-6,-13,-17,-10,3,-17,-23
14:16:27:133754,-5,0,1,-12,-25,25,-12,4
14:16:27:139777,10,5,-4,27,13,-4,1,1
14:16:27:148095,10,5,-4,27,13,-4,1,1
14:16:27:148793,-7,-21,-12,20,34,4,1,-5
14:16:27:162242,-5,-21,-17,4,16,4,5,-4
14:16:27:170611,-5,-21,-17,4,16,4,5,-4
14:16:27:171279,3,17,34,-8,-21,-18,-9,-7
14:16:27:177262,10,7,42,5,7,-8,-3,41
14:16:27:192996,10,7,42,5,7,-8,-3,41
14:16:27:193767,3,6,4,-7,3,-2,10,24
14:16:27:199889,-1,11,-3,-15,-3,33,9,-8
14:16:27:208028,-1,11,-3,-15,-3,33,9,-8
14:16:27:208817,-4,-36,-2,22,18,2,-1,-18
14:16:27:222362,1,-7,8,29,5,23,34,-9
14:16:27:230542,1,-7,8,29,5,23,34,-9
14:16:27:231291,-1,7,-11,4,-6,3,2,-13
14:16:27:237352,-4,-14,2,4,-23,-25,-14,2
14:16:27:253080,-4,-14,2,4,-23,-25,-14,2
14:16:27:253728,-8,-10,-17,-17,-36,-24,-20,-8
14:16:27:259763,1,14,-10,-5,-6,-35,-5,7
14:16:27:267390,1,14,-10,-5,-6,-35,-5,7
14:16:27:274918,6,17,6,0,22,7,6,9
14:16:27:282440,5,19,-3,-25,-22,-20,0,-9
14:16:27:290529,5,19,-3,-25,-22,-20,0,-9
14:16:27:291356,-6,10,-10,-4,-14,-4,-13,11
14:16:27:304859,-7,1,-8,-7,28,15,7,-22
14:16:27:312992,-7,1,-8,-7,28,15,7,-22
14:16:27:313762,-13,-28,-11,0,-17,-28,-21,11
14:16:27:319855,-4,-5,-22,-29,-9,-4,-21,-13
14:16:27:327311,-4,-5,-22,-29,-9,-4,-21,-13
14:16:27:334901,-6,8,-9,-11,-34,39,14,-4
14:16:27:342322,4,32,19,1,-8,31,0,0
14:16:27:350521,4,32,19,1,-8,31,0,0
14:16:27:351307,-4,0,-2,-10,-16,-5,-7,-2
14:16:27:364895,-2,6,4,13,-2,-25,10,-2
14:16:27:373036,-2,6,4,13,-2,-25,10,-2
14:16:27:373827,2,-14,-9,14,13,-6,-17,-2
14:16:27:379827,4,-14,10,-2,16,13,14,25
14:16:27:387426,4,-14,10,-2,16,13,14,25
14:16:27:394756,15,3,-5,-4,3,-7,-9,-11
14:16:27:402364,-1,-8,-25,-7,-9,-16,-15,2
14:16:27:410421,-1,-8,-25,-7,-9,-16,-15,2
14:16:27:411256,-3,9,21,3,-3,6,15,0
14:16:27:424796,-2,-2,15,15,8,6,1,-8
14:16:27:433047,-2,-2,15,15,8,6,1,-8
14:16:27:433777,-3,-9,-1,3,15,7,-6,-14
14:16:27:439791,-6,-7,-7,3,2,19,-1,-2
14:16:27:447340,-6,-7,-7,3,2,19,-1,-2
14:16:27:454853,-13,-16,-2,14,20,6,9,-4
14:16:27:462303,8,-17,-2,2,10,-21,-9,7
14:16:27:470584,8,-17,-2,2,10,-21,-9,7
14:16:27:471250,15,7,-8,-10,7,1,0,27
14:16:27:484841,1,-3,0,-2,20,-73,-12,19
14:16:27:492770,1,-3,0,-2,20,-73,-12,19
14:16:27:500502,-3,4,11,8,7,15,12,-23
14:16:27:501285,-1,5,7,-22,-33,-27,-13,9
14:16:27:507282,-1,5,7,-22,-33,-27,-13,9
14:16:27:514985,-2,17,-5,-13,9,-3,-13,9
14:16:27:522331,-6,12,16,0,-8,6,7,-18
14:16:27:530282,-6,12,16,0,-8,6,7,-18
14:16:27:537389,-9,2,7,-27,-29,-42,-9,-9
14:16:27:544771,-1,-9,-2,17,29,5,22,1
14:16:27:553040,-1,-9,-2,17,29,5,22,1
14:16:27:553800,4,-2,3,-17,-57,-34,1,-2
14:16:27:559727,-1,-12,2,25,10,31,-14,-19
14:16:27:567394,-1,-12,2,25,10,31,-14,-19
14:16:27:574816,0,-1,6,-18,-8,2,4,-9
14:16:27:582395,-4,5,-1,-17,-16,4,70,-6
14:16:27:590474,-4,5,-1,-17,-16,4,70,-6
14:16:27:591261,-1,-8,-9,13,8,14,-3,23
14:16:27:604788,0,10,27,2,17,21,-29,3
14:16:27:613018,0,10,27,2,17,21,-29,3
14:16:27:613805,-5,-14,-12,14,12,-8,-12,-13
14:16:27:619860,0,-9,-19,3,32,16,-1,3
14:16:27:627339,0,-9,-19,3,32,16,-1,3
14:16:27:635004,3,17,11,18,28,17,5,-18
14:16:27:642337,0,1,14,0,-33,0,-16,5
14:16:27:650503,0,1,14,0,-33,0,-16,5
14:16:27:651327,-11,-4,4,7,-13,-30,-2,10
14:16:27:664929,7,10,4,-11,-21,0,3,0
14:16:27:673008,7,10,4,-11,-21,0,3,0
14:16:27:673784,-22,-16,-8,-15,-23,-16,-27,-7
14:16:27:679843,4,14,11,22,1,6,-1,32
14:16:27:687375,4,14,11,22,1,6,-1,32
14:16:27:694758,2,-5,8,6,-7,-8,7,-32
14:16:27:702425,5,4,-7,-7,-3,-36,-4,-12
14:16:27:710462,5,4,-7,-7,-3,-36,-4,-12
14:16:27:711273,12,32,19,-8,13,19,9,20
14:16:27:724853,-10,-34,-16,-22,-20,3,-26,-4
14:16:27:733035,-10,-34,-16,-22,-20,3,-26,-4
14:16:27:733766,3,-7,-11,5,6,10,1,-10
14:16:27:739817,-6,3,10,15,14,6,-3,-5
14:16:27:747363,-6,3,10,15,14,6,-3,-5
14:16:27:754796,-1,-14,-3,-8,-3,-16,0,10
14:16:27:762273,-6,-11,-27,-9,-9,-28,-13,-10
14:16:27:770381,-6,-11,-27,-9,-9,-28,-13,-10
14:16:27:777263,1,1,-3,16,3,34,23,1
14:16:27:784854,-18,-4,3,-6,6,9,2,-7
14:16:27:793007,-18,-4,3,-6,6,9,2,-7
14:16:27:793777,5,6,-12,-3,2,6,16,-5
14:16:27:799842,-1,-1,-32,-8,-26,9,-6,-13
14:16:27:807385,-1,-1,-32,-8,-26,9,-6,-13
14:16:27:815018,8,15,13,25,20,-36,-29,7
14:16:27:822289,5,11,7,1,50,30,25,-1
14:16:27:830520,5,11,7,1,50,30,25,-1
14:16:27:831329,0,11,3,-5,3,-4,11,-15
14:16:27:844805,-11,-40,-12,-32,-53,-54,-28,-26
14:16:27:853065,-11,-40,-12,-32,-53,-54,-28,-26
14:16:27:853814,1,14,-11,3,44,31,-4,2
14:16:27:859768,-1,16,-5,0,7,16,-22,-18
14:16:27:867365,-1,16,-5,0,7,16,-22,-18
14:16:27:874836,-10,-20,-15,-21,-15,-16,1,14
14:16:27:882417,12,1,-6,3,1,18,9,3
14:16:27:890536,12,1,-6,3,1,18,9,3
14:16:27:891301,-7,-6,20,-6,-27,-3,0,-15
14:16:27:904840,1,-8,-6,-1,-7,-27,17,21
14:16:27:913003,1,-8,-6,-1,-7,-27,17,21
14:16:27:913751,-3,-22,-8,-7,14,51,16,1
14:16:27:919927,-4,-3,-7,-22,-66,-27,-7,-6
14:16:27:927336,-4,-3,-7,-22,-66,-27,-7,-6
14:16:27:934903,1,-11,-9,11,-6,12,0,12
14:16:27:942254,6,3,-10,6,1,17,-2,-1
14:16:27:950488,6,3,-10,6,1,17,-2,-1
14:16:27:951291,-2,2,-6,-15,-11,-15,-2,6
14:16:27:964985,4,-6,14,-2,28,3,10,10
14:16:27:973022,4,-6,14,-2,28,3,10,10
14:16:27:973809,11,6,13,8,33,8,2,2
14:16:27:979801,-2,9,20,6,-9,-1,-10,-13
14:16:27:987437,-2,9,20,6,-9,-1,-10,-13
14:16:27:994756,-8,-8,-12,6,-3,16,32,7
14:16:28:2435,1,4,13,11,5,-2,-6,6
14:16:28:10510,1,4,13,11,5,-2,-6,6
14:16:28:11298,-3,-6,-3,-15,-22,-15,-17,2
14:16:28:24809,-2,-1,-13,-6,7,-4,6,11
14:16:28:33107,-2,-1,-13,-6,7,-4,6,11
14:16:28:33775,-3,11,-1,15,23,-24,8,-39
14:16:28:39822,-8,-21,-17,5,14,18,6,-13
14:16:28:47384,-8,-21,-17,5,14,18,6,-13
14:16:28:54834,2,-13,7,-7,-27,-10,-18,1
14:16:28:62290,-8,2,0,-9,-5,9,13,3
14:16:28:70580,-8,2,0,-9,-5,9,13,3
14:16:28:71308,4,8,3,-5,7,34,-28,3
14:16:28:84871,-2,4,8,7,-5,1,5,-8
14:16:28:92998,-2,4,8,7,-5,1,5,-8
14:16:28:93790,0,5,0,-1,2,8,29,7
14:16:28:99847,7,21,39,9,1,7,-30,-29
14:16:28:107347,7,21,39,9,1,7,-30,-29
14:16:28:114924,-12,-12,-11,-4,-1,13,11,26
14:16:28:122351,-1,4,-4,9,2,-7,-2,-1
14:16:28:130540,-1,4,-4,9,2,-7,-2,-1
14:16:28:131266,0,7,-10,-14,-22,-34,-20,-6
14:16:28:144787,-1,-14,-14,-19,-3,-13,-1,12
14:16:28:152999,-1,-14,-14,-19,-3,-13,-1,12
14:16:28:153785,-4,-1,-22,-11,-5,-14,-9,-12
14:16:28:159804,8,7,-2,2,11,19,-7,5
14:16:28:167298,8,7,-2,2,11,19,-7,5
14:16:28:174818,2,0,19,42,20,20,7,1
14:16:28:182419,-4,-4,-41,-19,-7,-5,-1,15
14:16:28:190521,-4,-4,-41,-19,-7,-5,-1,15
14:16:28:191289,0,1,8,9,-4,-14,-8,4
14:16:28:204791,12,13,-5,8,9,12,15,30
14:16:28:212989,12,13,-5,8,9,12,15,30
14:16:28:213781,-5,-1,-1,-15,9,10,-24,-39
14:16:28:227948,-14,-14,-2,2,-6,-42,-12,-26
14:16:28:228766,-14,-14,-2,2,-6,-42,-12,-26
14:16:28:234911,11,13,-10,-22,14,-1,18,28
14:16:28:242327,-3,-4,18,30,29,-71,20,6
14:16:28:249932,-3,-4,18,30,29,-71,20,6
14:16:28:257299,12,-5,-13,-6,-15,-8,-1,20
14:16:28:264935,-6,-18,7,-6,-22,-1,-57,-34
14:16:28:273045,-6,-18,7,-6,-22,-1,-57,-34
14:16:28:273815,1,2,5,6,6,-4,15,40
14:16:28:288043,10,21,11,-12,-7,26,-7,14
14:16:28:288795,10,21,11,-12,-7,26,-7,14
14:16:28:294780,-18,-17,-1,13,-9,9,-10,-19
14:16:28:302320,-5,-22,0,9,-6,4,8,-29
14:16:28:309830,-5,-22,0,9,-6,4,8,-29
14:16:28:317293,-2,0,-2,-8,11,8,1,-19
14:16:28:324813,1,7,4,5,11,23,15,-13
14:16:28:333108,1,7,4,5,11,23,15,-13
14:16:28:333778,-4,-11,10,-8,-25,-28,-13,-2
14:16:28:348078,-6,7,-25,-14,-3,17,12,11
14:16:28:348821,-6,7,-25,-14,-3,17,12,11
14:16:28:354813,-13,-15,1,7,3,-58,6,-11
14:16:28:362244,7,13,-13,6,-3,29,16,-2
14:16:28:369888,7,13,-13,6,-3,29,16,-2
14:16:28:377279,15,4,5,-4,14,22,-13,-13
14:16:28:384864,3,-20,-5,-3,30,11,6,-3
14:16:28:393012,3,-20,-5,-3,30,11,6,-3
14:16:28:393779,4,-5,1,-23,-5,-5,27,-11
14:16:28:408007,-9,2,12,-8,-21,-14,-23,-21
14:16:28:408817,-9,2,12,-8,-21,-14,-23,-21
14:16:28:414918,-6,0,-4,1,-13,-23,-20,-14
14:16:28:422297,1,-7,10,38,24,0,1,15
14:16:28:429869,1,-7,10,38,24,0,1,15
14:16:28:437399,-9,-1,-9,-22,-10,-16,-6,8
14:16:28:444770,-5,-5,-31,-5,1,-38,6,6
14:16:28:453023,-5,-5,-31,-5,1,-38,6,6
14:16:28:453778,7,24,23,6,7,25,0,17
14:16:28:468046,-1,3,16,-5,12,26,12,-19
14:16:28:468871,-1,3,16,-5,12,26,12,-19
14:16:28:474765,-6,-9,-12,-7,-26,-12,-21,-30
14:16:28:482390,-17,-20,0,-17,-12,2,7,4
14:16:28:489856,-17,-20,0,-17,-12,2,7,4
14:16:28:497332,2,1,3,23,32,28,11,-10
14:16:28:504804,-7,10,-14,0,3,-5,-21,3
14:16:28:513023,-7,10,-14,0,3,-5,-21,3
14:16:28:513783,-7,-1,-4,13,7,7,9,12
14:16:28:527949,8,-4,12,-9,-23,-19,-6,9
14:16:28:528761,8,-4,12,-9,-23,-19,-6,9
14:16:28:534877,-1,-5,-13,-2,-11,0,-11,-2
14:16:28:550445,4,-4,9,27,15,9,8,24
14:16:28:551260,4,-4,9,27,15,9,8,24
14:16:28:557301,0,-3,2,-23,-15,10,3,-4
14:16:28:564955,2,0,12,3,5,19,7,5
14:16:28:572981,2,0,12,3,5,19,7,5
14:16:28:573797,-4,-8,10,1,-22,2,1,2
14:16:28:588013,6,7,-19,-43,-14,-24,-12,20
14:16:28:588795,6,7,-19,-43,-14,-24,-12,20
14:16:28:594798,4,8,-8,6,21,-1,5,8
14:16:28:602397,12,-15,7,-12,-21,0,3,8
14:16:28:609781,12,-15,7,-12,-21,0,3,8
14:16:28:617262,2,-11,-17,-6,-17,-17,-18,5
14:16:28:624842,-13,-1,-28,5,-10,-7,-14,-5
14:16:28:633082,-13,-1,-28,5,-10,-7,-14,-5
14:16:28:633759,2,3,-11,-20,-3,-9,-4,0
14:16:28:648119,0,-3,4,1,11,39,13,5
14:16:28:648806,0,-3,4,1,11,39,13,5
14:16:28:654874,1,3,2,16,20,11,16,7
14:16:28:662302,-1,13,17,-25,-33,-10,-7,-4
14:16:28:669932,-1,13,17,-25,-33,-10,-7,-4
14:16:28:677256,-17,-6,9,2,1,-15,-14,-32
14:16:28:684858,-5,9,6,-8,11,38,18,4
14:16:28:692977,-5,9,6,-8,11,38,18,4
14:16:28:693769,2,4,-5,-11,-20,-35,-21,10
14:16:28:707989,-3,-9,-15,44,72,33,6,-24
14:16:28:708784,-3,-9,-15,44,72,33,6,-24
14:16:28:714961,3,-4,6,9,17,43,23,9
14:16:28:722290,1,0,-6,-6,7,-55,19,26
14:16:28:729885,1,0,-6,-6,7,-55,19,26
14:16:28:737361,0,12,22,9,-28,-24,-8,2
14:16:28:745491,0,13,14,-5,-27,-10,-11,-7
14:16:28:746277,0,13,14,-5,-27,-10,-11,-7
14:16:28:752395,12,4,15,-19,-14,-10,0,11
14:16:28:768046,-14,-12,8,-7,4,4,-15,-16
14:16:28:768807,-14,-12,8,-7,4,4,-15,-16
14:16:28:774827,3,-11,17,19,10,15,-17,-5
14:16:28:782366,-9,1,-13,15,29,31,29,5
14:16:28:789877,-9,1,-13,15,29,31,29,5
14:16:28:797315,0,-1,-8,-16,-11,-12,5,-1
14:16:28:805490,-7,-7,-6,-33,-62,-52,-28,-35
14:16:28:806283,-7,-7,-6,-33,-62,-52,-28,-35
14:16:28:812306,4,4,3,22,37,52,21,0
14:16:28:827987,4,-12,-8,-10,-17,-7,-13,-4
14:16:28:828800,4,-12,-8,-10,-17,-7,-13,-4
14:16:28:834944,8,-6,-7,-1,52,39,14,12
14:16:28:842293,-1,1,-7,3,9,-6,-6,-4
14:16:28:849894,-1,1,-7,3,9,-6,-6,-4
14:16:28:857319,-14,3,-10,-22,-26,-33,-16,-13
14:16:28:865575,3,-15,4,-2,-30,-13,2,14
14:16:28:866254,3,-15,4,-2,-30,-13,2,14
14:16:28:872277,3,6,-42,-5,-13,4,-1,-3
14:16:28:888054,0,7,4,7,-25,-6,-12,-1
14:16:28:888799,0,7,4,7,-25,-6,-12,-1
14:16:28:894798,-2,-11,-1,16,-16,-86,6,-7
14:16:28:902375,5,27,3,27,44,22,11,29
14:16:28:909790,5,27,3,27,44,22,11,29
14:16:28:917271,-1,4,-8,-16,-27,3,-47,-2
14:16:28:925479,-7,3,-4,-18,-20,-36,-17,7
14:16:28:926260,-7,3,-4,-18,-20,-36,-17,7
14:16:28:932321,-7,1,2,7,7,10,-10,-18
14:16:28:947968,-3,-34,-14,-12,12,8,-5,-11
14:16:28:948779,-3,-34,-14,-12,12,8,-5,-11
14:16:28:954769,2,14,26,14,21,24,7,4
14:16:28:962257,-2,-9,-32,-7,-9,4,8,-14
14:16:28:969903,-2,-9,-32,-7,-9,4,8,-14
14:16:28:977254,-6,-7,-9,-23,-14,33,2,-3
14:16:28:985581,-4,24,13,7,33,41,2,-9
14:16:28:986296,-4,24,13,7,33,41,2,-9
14:16:28:992249,20,-11,-17,9,35,44,30,39
14:16:29:8003,-13,-12,-2,0,-3,-19,-48,-94
14:16:29:8771,-13,-12,-2,0,-3,-19,-48,-94
14:16:29:14997,-35,0,14,-10,-24,-28,-45,0
14:16:29:22282,22,6,14,3,-4,-10,6,31
14:16:29:29818,22,6,14,3,-4,-10,6,31
14:16:29:37328,5,-18,0,0,-12,-27,3,2
14:16:29:45515,3,18,5,14,10,23,12,11
14:16:29:46272,3,18,5,14,10,23,12,11
14:16:29:52388,-14,-6,-6,51,36,33,30,3
14:16:29:68071,9,7,18,12,-20,15,24,-2
14:16:29:68809,9,7,18,12,-20,15,24,-2
14:16:29:74824,8,1,10,-6,6,-36,-15,-7
14:16:29:82395,2,1,-13,-19,-3,-30,-4,15
14:16:29:89868,2,1,-13,-19,-3,-30,-4,15
14:16:29:97285,15,5,6,-15,-24,-20,7,2
14:16:29:104794,-6,-12,-24,-15,-3,6,4,37
14:16:29:112968,-6,-12,-24,-15,-3,6,4,37
14:16:29:113751,3,-2,16,-2,1,4,28,6
14:16:29:127936,-7,-29,-46,-15,-19,-15,5,12
14:16:29:128743,-7,-29,-46,-15,-19,-15,5,12
14:16:29:134813,-3,7,-5,36,49,20,-15,-14
14:16:29:150470,-5,25,23,16,40,16,10,-38
14:16:29:151264,-5,25,23,16,40,16,10,-38
14:16:29:157309,3,-16,6,-18,-38,-19,26,14
14:16:29:164954,3,10,-5,-7,-27,-16,-71,-2
14:16:29:172386,3,10,-5,-7,-27,-16,-71,-2
14:16:29:179868,-4,4,-1,-24,-44,-39,-37,-8
14:16:29:188039,-25,-19,23,7,-14,1,9,-7
14:16:29:188808,-25,-19,23,7,-14,1,9,-7
14:16:29:194796,39,2,-8,-14,3,13,-51,-26
14:16:29:210440,1,-4,5,7,40,28,31,33
14:16:29:211255,1,-4,5,7,40,28,31,33
14:16:29:225473,7,3,-17,3,7,5,20,-4
14:16:29:226265,8,18,2,9,15,35,12,-10
14:16:29:232437,8,18,2,9,15,35,12,-10
14:16:29:239847,-3,23,8,-10,-10,-9,-7,-2
14:16:29:248078,-7,-2,1,-17,-2,-40,-2,-1
14:16:29:248781,-7,-2,1,-17,-2,-40,-2,-1
14:16:29:254858,-11,3,-6,-2,63,43,-8,-14
14:16:29:270592,7,-5,22,7,2,53,70,-3
14:16:29:271290,7,-5,22,7,2,53,70,-3
14:16:29:277277,-18,-20,-3,-6,5,19,57,21
14:16:29:284830,10,-8,-2,4,-28,-34,78,0
14:16:29:292378,10,-8,-2,4,-28,-34,78,0
14:16:29:299917,-19,1,6,3,-12,0,4,7
14:16:29:307998,11,-1,6,4,-3,0,-47,5
14:16:29:308778,11,-1,6,4,-3,0,-47,5
14:16:29:315023,-8,-21,-9,-12,-50,6,-14,-12
14:16:29:330449,7,-8,-3,14,21,7,-26,-3
14:16:29:331239,7,-8,-3,14,21,7,-26,-3
14:16:29:337372,-9,-5,-3,-5,31,-32,-41,-13
14:16:29:345469,-4,16,0,-5,78,31,20,5
14:16:29:346275,-4,16,0,-5,78,31,20,5
14:16:29:359809,-2,-12,-37,-3,-46,-25,-4,-15
14:16:29:368086,13,-7,-25,-17,-53,-62,-30,7
14:16:29:368805,13,-7,-25,-17,-53,-62,-30,7
14:16:29:374797,7,10,-2,14,8,26,54,11
14:16:29:390531,-7,-1,12,6,-41,-25,-20,8
14:16:29:391338,-7,-1,12,6,-41,-25,-20,8
14:16:29:397341,-6,-5,-1,2,-7,8,-8,-27
14:16:29:405443,-17,-9,0,6,15,24,67,-3
14:16:29:406298,-17,-9,0,6,15,24,67,-3
14:16:29:419847,9,13,8,-21,-73,-33,1,44
14:16:29:427989,5,6,12,10,-6,15,-45,-10
14:16:29:428800,5,6,12,10,-6,15,-45,-10
14:16:29:434903,-10,12,7,21,5,29,-2,1
14:16:29:450530,-6,-14,-15,6,25,42,-14,7
14:16:29:451320,-6,-14,-15,6,25,42,-14,7
14:16:29:457323,16,16,8,-16,-8,-31,-26,3
14:16:29:465557,-14,-26,-28,-20,7,-1,9,-4
14:16:29:466259,-14,-26,-28,-20,7,-1,9,-4
14:16:29:479880,0,-8,18,22,13,-3,-10,-18
14:16:29:488102,14,0,-3,-11,-44,-40,-41,10
14:16:29:488843,14,0,-3,-11,-44,-40,-41,10
14:16:29:502372,-29,-25,-11,-20,-4,36,17,35
14:16:29:510475,9,19,25,20,29,-35,-55,-4
14:16:29:511286,9,19,25,20,29,-35,-55,-4
14:16:29:517309,-29,3,5,-5,16,-8,-9,-46
14:16:29:525538,-23,1,6,-3,12,-3,-11,-11
14:16:29:526287,-23,1,6,-3,12,-3,-11,-11
14:16:29:539797,18,17,-4,-2,17,28,20,2
14:16:29:548120,6,-3,15,-14,-24,-4,-7,-16
14:16:29:548807,6,-3,15,-14,-24,-4,-7,-16
14:16:29:554822,-12,-10,-13,-16,-52,-101,6,-13
14:16:29:570585,-12,-10,-13,-16,-52,-101,6,-13
14:16:29:571382,25,42,36,43,63,92,67,38
14:16:29:577227,12,-13,-13,-7,-14,1,7,40
14:16:29:593022,12,-13,-13,-7,-14,1,7,40
14:16:29:593755,-20,-23,-38,-23,-37,-70,43,-31
14:16:29:599876,20,-42,-18,7,34,29,-26,-3
14:16:29:608044,20,-42,-18,7,34,29,-26,-3
14:16:29:608795,-9,5,-4,-25,-40,-16,-38,-5
14:16:29:614964,8,18,-1,-3,-10,-18,3,-3
14:16:29:630525,8,18,-1,-3,-10,-18,3,-3
14:16:29:631305,0,-13,-8,8,75,25,-4,1
14:16:29:637370,-9,3,-19,25,33,-1,-2,-10
14:16:29:653048,-9,3,-19,25,33,-1,-2,-10
14:16:29:653772,0,-2,-7,-25,-42,22,-14,-5
14:16:29:659752,-2,9,13,-4,17,73,4,-1
14:16:29:668059,-2,9,13,-4,17,73,4,-1
14:16:29:668804,-8,-16,10,8,-13,-33,20,-6
14:16:29:674803,3,12,36,5,-42,-27,-3,10
14:16:29:690530,3,12,36,5,-42,-27,-3,10
14:16:29:691284,-6,-2,-16,7,17,13,-13,41
14:16:29:697307,-7,-8,-6,8,29,15,13,-8
14:16:29:713020,-7,-8,-6,8,29,15,13,-8
14:16:29:713794,-21,-11,-17,11,-8,-12,25,-37
14:16:29:719868,-1,8,-17,-17,-11,-20,12,-12
14:16:29:727968,-1,8,-17,-17,-11,-20,12,-12
14:16:29:728766,-3,-10,-5,-2,-50,-71,-31,-5
14:16:29:742443,13,19,32,11,16,-8,-23,-8
14:16:29:750501,13,19,32,11,16,-8,-23,-8
14:16:29:751266,3,10,-3,-40,-90,-52,-8,-2
14:16:29:757327,19,12,10,18,-21,-41,0,14
14:16:29:773508,19,12,10,18,-21,-41,0,14
14:16:29:780555,-7,1,-30,-2,5,5,3,2
14:16:29:781272,-15,-21,5,13,15,9,1,17
14:16:29:788074,-15,-21,5,13,15,9,1,17
14:16:29:788824,11,26,17,-16,-23,-49,-23,4
14:16:29:794772,-18,-6,5,1,10,8,-40,-60
14:16:29:810452,-18,-6,5,1,10,8,-40,-60
14:16:29:811251,10,-19,-13,-17,-38,-30,-2,-32
14:16:29:817338,0,-7,5,5,42,35,19,-4
14:16:29:833068,0,-7,5,5,42,35,19,-4
14:16:29:833817,-14,2,11,-16,53,41,-11,-1
14:16:29:839809,-3,15,14,-9,-44,-32,-17,-13
14:16:29:848145,-3,15,14,-9,-44,-32,-17,-13
14:16:29:848744,21,-3,-12,25,51,36,17,17
14:16:29:854867,4,12,-2,-26,-5,44,-11,9
14:16:29:870632,4,12,-2,-26,-5,44,-11,9
14:16:29:871324,6,8,46,14,-3,33,-27,-23
14:16:29:877250,-28,-17,-9,-25,-30,92,37,-2
14:16:29:893000,-28,-17,-9,-25,-30,92,37,-2
14:16:29:893781,7,3,-9,32,60,21,10,0
14:16:29:899837,17,-3,-34,-22,-34,-47,27,-14
14:16:29:907970,17,-3,-34,-22,-34,-47,27,-14
14:16:29:908799,-26,-15,-6,-22,-24,-6,-6,-18
14:16:29:914949,9,-1,-22,4,-1,-20,-4,10
14:16:29:930532,9,-1,-22,4,-1,-20,-4,10
14:16:29:931296,0,-15,-21,-16,-38,-21,2,33
14:16:29:937359,-10,-7,1,44,28,-29,0,14
14:16:29:953109,-10,-7,1,44,28,-29,0,14
14:16:29:953802,-1,20,14,-10,-31,11,-2,-12
14:16:29:959769,-1,-29,-6,-2,2,-8,-13,12
14:16:29:968033,-1,-29,-6,-2,2,-8,-13,12
14:16:29:968825,3,-14,4,-25,-11,19,-5,4
14:16:29:974812,3,-5,25,21,45,-28,-3,-5
14:16:29:990521,3,-5,25,21,45,-28,-3,-5
14:16:29:991294,4,10,1,11,8,28,24,29
14:16:29:997295,7,4,-13,-17,4,-2,2,8
14:16:30:13040,7,4,-13,-17,4,-2,2,8
14:16:30:13814,-1,-4,-8,6,2,-9,-18,-9
14:16:30:19882,-6,18,-8,3,-30,-46,0,-25
14:16:30:28016,-6,18,-8,3,-30,-46,0,-25
14:16:30:28791,7,22,37,15,-4,-30,16,25
14:16:30:34936,-15,-4,-11,-11,17,-19,12,4
14:16:30:51233,-15,-4,-11,-11,17,-19,12,4
14:16:30:51995,14,7,11,33,24,30,21,25
14:16:30:57295,1,-19,-6,-28,-1,55,-10,13
14:16:30:73049,1,-19,-6,-28,-1,55,-10,13
14:16:30:73812,-18,-16,-10,-11,-6,-32,-28,-32
14:16:30:79799,20,4,-1,-3,-1,12,13,21
14:16:30:88072,20,4,-1,-3,-1,12,13,21
14:16:30:88847,10,-10,-10,-4,-5,-19,-12,-26
14:16:30:102359,-9,1,0,-16,-29,-9,3,-50
14:16:30:110486,-9,1,0,-16,-29,-9,3,-50
14:16:30:111277,12,-12,4,50,30,21,26,10
14:16:30:117291,0,-24,-3,24,25,15,-32,-21
14:16:30:124886,0,-24,-3,24,25,15,-32,-21
14:16:30:132413,-15,2,-1,-1,-9,8,-45,-29
14:16:30:139846,1,15,29,-5,-16,11,-2,21
14:16:30:147842,1,15,29,-5,-16,11,-2,21
14:16:30:154875,-17,-10,-21,-11,1,-42,-24,-14
14:16:30:162317,-12,20,14,-8,21,1,-4,24
14:16:30:170554,-12,20,14,-8,21,1,-4,24
14:16:30:171283,-3,-7,-9,-4,26,11,1,6
14:16:30:177307,1,-19,-7,7,-12,0,13,1
14:16:30:184867,1,-19,-7,7,-12,0,13,1
14:16:30:192275,12,9,6,10,29,92,20,14
14:16:30:199923,-16,-12,-34,-7,17,-19,-5,-7
14:16:30:208009,-16,-12,-34,-7,17,-19,-5,-7
14:16:30:208819,-10,-9,-30,-13,-2,-8,-16,-22
14:16:30:222357,15,7,11,7,-12,-3,36,36
14:16:30:230529,15,7,11,7,-12,-3,36,36
14:16:30:231266,11,2,21,4,6,-47,-65,-10
14:16:30:237346,0,9,4,8,0,-7,-43,-50
14:16:30:244825,0,9,4,8,0,-7,-43,-50
14:16:30:252350,12,17,11,-19,-36,-12,3,22
14:16:30:259773,3,-6,1,-20,22,10,10,21
14:16:30:268050,3,-6,1,-20,22,10,10,21
14:16:30:268780,-6,3,-7,10,-11,-7,-8,-6
14:16:30:282431,-5,7,-10,10,10,16,15,4
14:16:30:290532,-5,7,-10,10,10,16,15,4
14:16:30:291337,-16,-14,-6,-26,-23,-10,4,-2
14:16:30:297309,1,-6,-4,3,65,15,1,2
14:16:30:304883,1,-6,-4,3,65,15,1,2
14:16:30:312317,-17,-6,-30,-10,42,22,60,4
14:16:30:319918,0,-3,-8,-4,-55,-99,-54,-35
14:16:30:327992,0,-3,-8,-4,-55,-99,-54,-35
14:16:30:328831,26,20,17,10,-35,2,79,58
14:16:30:342279,2,18,14,22,-32,20,-8,-6
14:16:30:350498,2,18,14,22,-32,20,-8,-6
14:16:30:351307,-5,-18,7,-35,-111,-86,-23,-21
14:16:30:357303,-2,2,5,14,16,5,20,5
14:16:30:373027,-2,2,5,14,16,5,20,5
14:16:30:373823,-1,0,-3,21,45,37,-12,3
14:16:30:379799,2,2,-13,3,18,37,-14,7
14:16:30:388080,2,2,-13,3,18,37,-14,7
14:16:30:388773,-1,-2,64,-1,4,6,1,-5
14:16:30:402365,24,13,43,-5,-71,-21,5,17
14:16:30:410873,24,13,43,-5,-71,-21,5,17
14:16:30:417996,1,2,0,15,55,12,-2,-3
14:16:30:418760,-16,-9,3,-22,-14,-5,-13,0
14:16:30:424820,-16,-9,3,-22,-14,-5,-13,0
14:16:30:432383,-6,14,-6,-25,-9,15,-36,-20
14:16:30:439813,5,-2,-4,9,7,5,21,9
14:16:30:448110,5,-2,-4,9,7,5,21,9
14:16:30:448812,-17,-8,-28,14,6,28,-18,-58
14:16:30:462301,-3,-5,-6,-20,-23,-38,-12,-17
14:16:30:470577,-3,-5,-6,-20,-23,-38,-12,-17
14:16:30:471318,-10,-4,7,0,3,15,7,31
14:16:30:477285,0,-3,-23,-35,-79,-34,-8,1
14:16:30:484941,0,-3,-23,-35,-79,-34,-8,1
14:16:30:492264,6,10,-5,46,58,40,20,7
14:16:30:499874,-17,-37,-18,-11,5,22,-13,-2
14:16:30:508000,-17,-37,-18,-11,5,22,-13,-2
14:16:30:508806,-10,-4,1,-10,22,5,-2,-9
14:16:30:522311,-10,-10,-19,35,69,59,6,0
14:16:30:538686,-10,-10,-19,35,69,59,6,0
14:16:30:539446,7,-13,0,-3,-5,26,-12,1
14:16:30:540277,6,12,-1,2,40,-6,26,10
14:16:30:544825,6,12,-1,2,40,-6,26,10
14:16:30:552397,11,-11,4,9,0,31,35,30
14:16:30:559758,5,-23,-15,-29,-40,-31,-29,-2
14:16:30:568073,5,-23,-15,-29,-40,-31,-29,-2
14:16:30:568826,-5,-17,-1,-21,-5,-44,-9,23
14:16:30:582388,-27,-32,-27,2,25,64,6,1
14:16:30:590524,-27,-32,-27,2,25,64,6,1
14:16:30:591300,-11,13,-18,23,-21,4,-26,-13
14:16:30:597313,8,25,14,7,-18,93,44,-1
14:16:30:604876,8,25,14,7,-18,93,44,-1
14:16:30:612303,7,4,-6,0,-16,9,13,27
14:16:30:619906,-1,12,12,-14,-39,-22,-17,-17
14:16:30:627956,-1,12,12,-14,-39,-22,-17,-17
14:16:30:628753,-4,20,7,-24,-1,-33,-18,18
14:16:30:642300,12,-13,-8,-5,3,-30,-41,11
14:16:30:658690,12,-13,-8,-5,3,-30,-41,11
14:16:30:659518,-8,21,22,9,-1,-26,-13,-30
14:16:30:660248,-15,-17,-15,-16,-43,-114,-25,-25
14:16:30:664994,-15,-17,-15,-16,-43,-114,-25,-25
14:16:30:672318,9,-2,-19,-4,66,63,26,20
14:16:30:679860,22,19,-14,15,55,36,31,6
14:16:30:688048,22,19,-14,15,55,36,31,6
14:16:30:688786,3,-10,-27,-29,-40,-70,-19,-6
14:16:30:711137,-13,2,17,0,-38,-55,11,-10
14:16:30:711920,-13,2,17,0,-38,-55,11,-10
14:16:30:712806,-4,-5,9,21,5,30,6,3
14:16:30:717278,-15,-3,11,-8,15,-9,-19,-3
14:16:30:724849,-15,-3,11,-8,15,-9,-19,-3
14:16:30:732410,-1,-1,7,6,13,-35,8,-26
14:16:30:739841,-13,-4,-1,7,18,66,8,-10
14:16:30:748150,-13,-4,-1,7,18,66,8,-10
14:16:30:748805,10,-5,-19,-24,-28,-2,-8,6
14:16:30:762318,-2,13,10,27,37,23,-10,-11
14:16:30:771037,-2,13,10,27,37,23,-10,-11
14:16:30:777922,6,-19,-10,-22,-73,-72,-7,-14
14:16:30:778767,18,27,15,17,114,18,25,19
14:16:30:784915,18,27,15,17,114,18,25,19
14:16:30:792290,10,18,20,-3,-55,-16,8,-15
14:16:30:799862,8,7,-1,-12,-51,11,-34,3
14:16:30:815677,8,7,-1,-12,-51,11,-34,3
14:16:30:816314,8,7,3,4,10,23,-8,-8
14:16:30:822316,-8,1,-2,-19,-9,-25,-36,12
14:16:30:830474,-8,1,-2,-19,-9,-25,-36,12
14:16:30:831257,-18,2,6,17,10,-68,2,-33
14:16:30:837380,-12,-2,6,30,16,-8,3,-3
14:16:30:844797,-12,-2,6,30,16,-8,3,-3
14:16:30:852390,6,-4,-37,8,9,12,18,26
14:16:30:859767,2,-4,1,-17,-20,-108,32,0
14:16:30:868036,2,-4,1,-17,-20,-108,32,0
14:16:30:868779,-8,-27,-2,-31,-39,-2,-6,23
14:16:30:882429,2,5,13,3,-15,7,-17,26
14:16:30:898811,2,5,13,3,-15,7,-17,26
14:16:30:899481,-20,18,14,1,-1,-14,-13,-26
14:16:30:900260,21,11,-3,-11,-24,14,-3,16
14:16:30:904817,21,11,-3,-11,-24,14,-3,16
14:16:30:912319,3,-15,12,14,15,52,14,20
14:16:30:919880,-8,-10,-5,8,23,1,15,-12
14:16:30:935607,-8,-10,-5,8,23,1,15,-12
14:16:30:936307,8,20,2,1,53,36,-13,-2
14:16:30:942294,-10,-21,-21,13,6,25,3,-13
14:16:30:950454,-10,-21,-21,13,6,25,3,-13
14:16:30:951274,-11,-13,11,1,-12,-22,-18,4
14:16:30:957313,-6,-6,7,2,-17,-17,34,6
14:16:30:964936,-6,-6,7,2,-17,-17,34,6
14:16:30:972312,22,1,19,7,11,25,-8,15
14:16:30:988661,3,-18,9,-15,-23,-58,-6,8
14:16:30:989443,3,-18,9,-15,-23,-58,-6,8
14:16:30:990242,2,16,0,-2,12,-33,19,-22
14:16:31:2463,-3,-8,12,5,6,20,-35,-17
14:16:31:10506,-3,-8,12,5,6,20,-35,-17
14:16:31:11308,9,-8,-17,-25,-31,-14,-11,-8
14:16:31:17319,7,21,25,31,19,20,24,19
14:16:31:24842,7,21,25,31,19,20,24,19
14:16:31:32448,-1,-29,-16,-26,-3,23,1,6
14:16:31:39857,-2,-3,-39,8,15,23,-12,-31
14:16:31:55561,-2,-3,-39,8,15,23,-12,-31
14:16:31:56334,-20,-12,-13,-7,-47,31,38,21
14:16:31:62287,23,-3,10,-8,13,31,-19,-27
14:16:31:70559,23,-3,10,-8,13,31,-19,-27
14:16:31:71303,-18,-3,28,-11,-22,32,25,-7
14:16:31:85581,1,33,-21,-7,15,-62,-1,-2
14:16:31:86349,1,33,-21,-7,15,-62,-1,-2
14:16:31:92270,1,-22,-31,44,89,36,-9,-7
14:16:31:99861,-16,-11,-25,-82,-114,-102,-26,-22
14:16:31:107341,-16,-11,-25,-82,-114,-102,-26,-22
14:16:31:115010,42,36,47,89,99,60,39,42
14:16:31:122320,-14,-22,5,5,-21,103,-3,3
14:16:31:130501,-14,-22,5,5,-21,103,-3,3
14:16:31:131246,-24,-1,-21,-69,-81,-111,-52,-28
14:16:31:145446,-9,-9,14,-10,-11,10,15,6
14:16:31:146263,-9,-9,14,-10,-11,10,15,6
14:16:31:152414,5,-8,-16,29,109,36,-6,-7
14:16:31:159770,-3,4,-5,-1,57,24,11,21
14:16:31:175503,-3,4,-5,-1,57,24,11,21
14:16:31:176316,14,-18,-52,-34,-60,-49,11,7
14:16:31:182375,20,0,10,46,86,-9,4,50
14:16:31:190491,20,0,10,46,86,-9,4,50
14:16:31:191271,-17,-13,21,-4,-15,-62,-41,-20
14:16:31:205481,-28,-1,6,-23,-40,-44,-40,-31
14:16:31:206279,-28,-1,6,-23,-40,-44,-40,-31
14:16:31:212281,-10,8,-11,4,-9,21,12,-29
14:16:31:219922,-4,14,10,28,20,45,0,-24
14:16:31:227316,-4,14,10,28,20,45,0,-24
14:16:31:234904,-10,17,-4,-42,-16,72,11,-14
14:16:31:242344,17,13,6,18,38,-37,36,4
14:16:31:250481,17,13,6,18,38,-37,36,4
14:16:31:251270,-2,25,33,14,57,-117,-5,0
14:16:31:265546,-24,-19,24,-6,-26,23,39,23
14:16:31:266268,-24,-19,24,-6,-26,23,39,23
14:16:31:272351,-7,-18,10,-12,-28,-70,-48,-21
14:16:31:279831,-10,11,-28,19,13,-1,21,17
14:16:31:287441,-10,11,-28,19,13,-1,21,17
14:16:31:294825,-8,9,-23,-14,-45,37,-20,-4
14:16:31:302352,4,-22,0,-15,-56,-22,-32,3
14:16:31:310444,4,-22,0,-15,-56,-22,-32,3
14:16:31:311285,-3,-1,19,25,36,57,23,14
14:16:31:325479,-5,-12,-13,-23,-4,127,-5,-9
14:16:31:326243,-5,-12,-13,-23,-4,127,-5,-9
14:16:31:332325,9,19,7,26,-7,36,8,-5
14:16:31:339827,21,7,-4,1,-11,23,5,-2
14:16:31:347374,21,7,-4,1,-11,23,5,-2
14:16:31:354941,-16,-18,11,-19,-44,-48,27,-2
14:16:31:362259,9,9,-8,7,-2,-128,-16,-30
14:16:31:370568,9,9,-8,7,-2,-128,-16,-30
14:16:31:371293,15,-3,-3,13,-6,47,2,3
14:16:31:385516,-5,9,25,-10,-8,8,-27,-11
14:16:31:386302,-5,9,25,-10,-8,8,-27,-11
14:16:31:392256,-3,-27,-29,-3,-92,-85,-50,-11
14:16:31:399875,30,30,28,48,37,94,27,36
14:16:31:407362,30,30,28,48,37,94,27,36
14:16:31:415002,-26,-37,-35,-37,-33,21,-42,-16
14:16:31:422274,-3,-8,-3,-16,9,-49,3,32
14:16:31:430497,-3,-8,-3,-16,9,-49,3,32
14:16:31:431346,0,15,12,-24,11,30,18,3
14:16:31:445518,-22,-18,-13,-14,21,56,-23,-27
14:16:31:446275,-22,-18,-13,-14,21,56,-23,-27
14:16:31:452395,-4,19,-3,43,61,1,23,22
14:16:31:459797,-3,-19,-44,-42,-50,8,0,-36
14:16:31:467393,-3,-19,-44,-42,-50,8,0,-36
14:16:31:474826,-1,8,37,10,-7,-73,11,5
14:16:31:482391,-3,-22,-2,-9,-42,-128,-6,1
14:16:31:490501,-3,-22,-2,-9,-42,-128,-6,1
14:16:31:491304,8,-1,-5,0,47,86,-13,5
14:16:31:505447,14,15,-1,11,58,-8,20,-13
14:16:31:506245,14,15,-1,11,58,-8,20,-13
14:16:31:512317,14,5,-8,-18,-10,14,16,8
14:16:31:519908,-17,-7,-8,-5,-57,38,9,9
14:16:31:527296,-17,-7,-8,-5,-57,38,9,9
14:16:31:542951,-4,21,24,-3,-37,7,-1,-16
14:16:31:543767,17,-2,1,-26,-15,-7,11,26
14:16:31:550540,17,-2,1,-26,-15,-7,11,26
14:16:31:551320,17,7,7,5,22,-21,-26,-18
14:16:31:565619,-1,11,8,10,62,72,8,30
14:16:31:566279,-1,11,8,10,62,72,8,30
14:16:31:572319,-4,10,-24,-1,-14,-6,56,11
14:16:31:579833,2,3,-4,1,-57,-54,-34,-20
14:16:31:587368,2,3,-4,1,-57,-54,-34,-20
14:16:31:594827,-4,-11,-36,-25,-20,-11,6,-1
14:16:31:602363,-1,-11,3,18,-25,-9,-7,-21
14:16:31:610445,-1,-11,3,18,-25,-9,-7,-21
14:16:31:611269,10,7,6,-1,40,-20,-4,2
14:16:31:625490,12,10,7,-11,-16,38,-27,1
14:16:31:626297,12,10,7,-11,-16,38,-27,1
14:16:31:632376,-16,-12,-3,-25,3,15,-37,-49
14:16:31:639829,-16,-19,-1,6,27,-32,-13,15
14:16:31:647347,-16,-19,-1,6,27,-32,-13,15
14:16:31:654812,-6,-26,2,12,-1,-25,-60,11
14:16:31:662339,6,22,-10,3,16,10,12,-9
14:16:31:670559,6,22,-10,3,16,10,12,-9
14:16:31:671296,2,-6,27,18,-7,10,14,0
14:16:31:685542,6,-3,39,21,3,-6,32,6
14:16:31:686302,6,-3,39,21,3,-6,32,6
14:16:31:692278,-17,1,-4,-15,-17,12,-2,-9
14:16:31:699971,4,19,28,22,20,-15,-12,16
14:16:31:707317,4,19,28,22,20,-15,-12,16
14:16:31:714963,-10,4,-2,3,-5,9,10,5
14:16:31:722279,5,-13,-32,-21,-37,-37,-19,-20
14:16:31:730520,5,-13,-32,-21,-37,-37,-19,-20
14:16:31:731322,7,8,-2,-6,4,26,-3,4
14:16:31:745456,-21,-25,-56,-23,14,9,24,0
14:16:31:746273,-21,-25,-56,-23,14,9,24,0
14:16:31:752342,7,-16,-25,13,27,43,36,-4
14:16:31:759770,-10,-25,0,-22,-34,-31,-7,-12
14:16:31:767358,-10,-25,0,-22,-34,-31,-7,-12
14:16:31:774800,0,-32,-53,-18,-25,-38,6,19
14:16:31:782342,-3,6,0,-9,-14,-8,21,-6
14:16:31:790534,-3,6,0,-9,-14,-8,21,-6
14:16:31:791293,-5,6,24,15,26,11,-19,-4
14:16:31:805558,-10,14,8,20,24,11,16,4
14:16:31:806357,-10,14,8,20,24,11,16,4
14:16:31:812279,-1,9,17,5,-13,23,-4,13
14:16:31:819891,-23,1,9,3,-9,-6,-8,-24
14:16:31:827353,-23,1,9,3,-9,-6,-8,-24
14:16:31:834835,13,8,-8,-8,-22,-65,-19,-9
14:16:31:842256,-38,-6,-18,-3,54,74,-40,20
14:16:31:850448,-38,-6,-18,-3,54,74,-40,20
14:16:31:851247,-1,13,19,13,61,13,-10,-21
14:16:31:865564,21,23,11,-15,-16,-4,-12,-1
14:16:31:866291,21,23,11,-15,-16,-4,-12,-1
14:16:31:872330,-18,-9,-24,-21,-25,3,6,0
14:16:31:879803,-14,-29,-45,-1,5,8,16,-6
14:16:31:887383,-14,-29,-45,-1,5,8,16,-6
14:16:31:894809,-2,-2,-3,-3,-19,-4,16,3
14:16:31:902420,18,5,17,-5,-45,-36,0,13
14:16:31:910464,18,5,17,-5,-45,-36,0,13
14:16:31:911258,17,8,-11,21,-2,-11,8,22
14:16:31:925469,6,-9,9,-2,7,52,10,-24
14:16:31:926282,6,-9,9,-2,7,52,10,-24
14:16:31:932359,-11,-2,19,14,48,35,24,19
14:16:31:939844,-8,-1,6,8,4,-39,-41,-19
14:16:31:947351,-8,-1,6,8,4,-39,-41,-19
14:16:31:954819,-10,11,47,7,-22,0,-14,-40
14:16:31:962334,5,7,-16,-28,-16,13,6,6
14:16:31:970345,5,7,-16,-28,-16,13,6,6
14:16:31:977250,-2,-22,-5,-21,0,-7,0,-2
14:16:31:985527,5,-8,-10,-49,-21,-13,-13,3
14:16:31:986312,5,-8,-10,-49,-21,-13,-13,3
14:16:31:992243,16,0,-6,24,33,12,13,8
14:16:32:7991,-1,-7,-29,25,11,-5,19,-20
14:16:32:8813,-1,-7,-29,25,11,-5,19,-20
14:16:32:14998,-16,3,4,-7,-10,4,-7,2
14:16:32:22319,13,22,26,10,-37,-27,-6,6
14:16:32:29860,13,22,26,10,-37,-27,-6,6
14:16:32:37386,2,0,17,7,-4,33,2,4
14:16:32:53747,-9,-10,5,25,0,-10,0,-24
14:16:32:54513,-9,-10,5,25,0,-10,0,-24
14:16:32:55297,25,21,16,5,-18,-21,11,22
14:16:32:68032,2,19,9,2,18,-3,-29,-32
14:16:32:68885,2,19,9,2,18,-3,-29,-32
14:16:32:74773,6,-2,-13,-17,-10,-55,-7,16
14:16:32:82323,-4,3,-15,14,35,44,27,2
14:16:32:89823,-4,3,-15,14,35,44,27,2
14:16:32:97337,-7,-4,-11,-10,-9,-9,2,-14
14:16:32:105508,-7,-25,-3,6,-17,-39,-6,13
14:16:32:106325,-7,-25,-3,6,-17,-39,-6,13
14:16:32:112267,16,7,-26,9,-7,21,26,18
14:16:32:127956,-2,-25,-37,-13,30,23,9,17
14:16:32:128763,-2,-25,-37,-13,30,23,9,17
14:16:32:134937,-3,17,10,-23,-18,-32,-16,-13
14:16:32:142310,-4,-5,-11,-19,1,-30,-3,-32
14:16:32:149907,-4,-5,-11,-19,1,-30,-3,-32
14:16:32:157293,-10,-8,-10,12,18,23,-11,-27
14:16:32:165575,12,-4,26,25,50,49,9,12
14:16:32:166285,12,-4,26,25,50,49,9,12
14:16:32:172317,15,17,-3,-18,-61,-38,39,20
14:16:32:188078,-6,12,17,-1,-9,-19,29,37
14:16:32:188845,-6,12,17,-1,-9,-19,29,37
14:16:32:194785,-21,-26,-3,-7,-14,19,4,3
14:16:32:202366,-21,15,28,-7,-23,-7,-10,-4
14:16:32:209795,-21,15,28,-7,-23,-7,-10,-4
14:16:32:217320,-18,-34,-8,-25,4,-3,-17,-17
14:16:32:225468,8,-26,5,16,13,43,6,8
14:16:32:226287,8,-26,5,16,13,43,6,8
14:16:32:232378,-2,-4,11,17,24,-23,0,-3
14:16:32:248154,12,6,-6,-15,-61,-21,-5,20
14:16:32:248855,12,6,-6,-15,-61,-21,-5,20
14:16:32:254887,-4,-6,-16,5,21,32,-4,-11
14:16:32:262280,4,11,3,5,1,17,-14,-39
14:16:32:269871,4,11,3,5,1,17,-14,-39
14:16:32:277273,8,10,-9,14,29,-5,-34,50
14:16:32:285537,-13,-24,-2,3,-16,12,23,-29
14:16:32:286264,-13,-24,-2,3,-16,12,23,-29
14:16:32:292220,11,8,1,7,21,30,3,7
14:16:32:307977,2,6,-14,9,4,-25,-6,5
14:16:32:308824,2,6,-14,9,4,-25,-6,5
14:16:32:314981,-2,18,9,-12,-31,-43,-2,-3
14:16:32:322325,4,-16,-13,2,-7,8,3,21
14:16:32:329825,4,-16,-13,2,-7,8,3,21
14:16:32:337363,-2,-14,12,11,11,42,-8,-21
14:16:32:345466,-1,16,-10,10,25,14,1,-11
14:16:32:346243,-1,16,-10,10,25,14,1,-11
14:16:32:352359,-17,-28,-3,-24,-15,-5,-2,-24
14:16:32:367787,9,13,10,4,28,-8,-15,26
14:16:32:375469,9,13,10,4,28,-8,-15,26
14:16:32:376296,-7,-4,4,18,67,53,16,22
14:16:32:382370,12,12,-8,6,29,31,3,12
14:16:32:389874,12,12,-8,6,29,31,3,12
14:16:32:397284,-4,-3,-10,-9,-8,-14,-9,-8
14:16:32:405534,12,-5,22,-4,-2,17,-6,11
14:16:32:406312,12,-5,22,-4,-2,17,-6,11
14:16:32:412261,4,10,-3,7,-1,-22,30,44
14:16:32:427964,12,12,0,-17,-42,-18,32,-18
14:16:32:428782,12,12,0,-17,-42,-18,32,-18
14:16:32:434905,7,-9,-3,1,9,15,-8,-22
14:16:32:442277,-23,-22,-48,-43,-11,-20,-7,-29
14:16:32:449893,-23,-22,-48,-43,-11,-20,-7,-29
14:16:32:457263,0,-5,-19,-17,-51,-36,14,-26
14:16:32:465573,9,3,5,9,-8,-1,-17,-17
14:16:32:466279,9,3,5,9,-8,-1,-17,-17
14:16:32:472278,-4,-3,20,-12,-20,18,-8,4
14:16:32:487995,-12,14,25,-23,-56,-32,-11,7
14:16:32:488762,-12,14,25,-23,-56,-32,-11,7
14:16:32:494793,-10,-19,-23,21,45,50,5,-1
14:16:32:502336,7,19,3,31,43,-17,13,34
14:16:32:509822,7,19,3,31,43,-17,13,34
14:16:32:517277,0,-4,7,2,3,-12,-35,-24
14:16:32:525425,13,10,-6,10,-15,28,24,32
14:16:32:526239,13,10,-6,10,-15,28,24,32
14:16:32:532333,2,12,10,-11,-20,-30,-37,-8
14:16:32:548020,1,-11,-6,1,45,-7,14,12
14:16:32:548780,1,-11,-6,1,45,-7,14,12
14:16:32:554805,-1,-19,-10,-2,4,0,-37,-11
14:16:32:562271,-16,-39,12,7,-11,-2,-25,-17
14:16:32:569855,-16,-39,12,7,-11,-2,-25,-17
14:16:32:577329,15,52,-3,31,82,3,20,-15
14:16:32:585528,-6,-7,2,5,36,4,2,-2
14:16:32:586269,-6,-7,2,5,36,4,2,-2
14:16:32:592219,2,10,-3,-41,-70,-24,19,43
14:16:32:607937,0,11,5,-2,12,10,5,19
14:16:32:608780,0,11,5,-2,12,10,5,19
14:16:32:615011,11,8,17,2,-27,-10,22,-5
14:16:32:622281,-32,-27,-40,-22,-17,-17,-39,-25
14:16:32:629811,-32,-27,-40,-22,-17,-17,-39,-25
14:16:32:637453,3,0,-41,13,-5,-3,24,6
14:16:32:645215,-4,13,15,-9,-30,-17,6,5
14:16:32:653041,-4,13,15,-9,-30,-17,6,5
14:16:32:653820,4,-20,-20,11,-33,-37,-6,26
14:16:32:668001,6,8,4,-7,-18,-12,20,1
14:16:32:668849,6,8,4,-7,-18,-12,20,1
14:16:32:674728,-7,-17,5,-4,-18,0,38,49
14:16:32:682347,5,13,19,16,20,25,46,3
14:16:32:689887,5,13,19,16,20,25,46,3
14:16:32:697329,-25,-20,35,4,1,6,-14,-25
14:16:32:705552,16,10,8,8,4,4,-34,-10
14:16:32:706339,16,10,8,8,4,4,-34,-10
14:16:32:712278,-31,3,13,-4,-26,-12,-7,-1
14:16:32:727950,-30,-21,-31,-31,-10,1,-21,-48
14:16:32:728794,-30,-21,-31,-31,-10,1,-21,-48
14:16:32:734802,5,18,-12,-14,0,-29,20,8
14:16:32:742298,11,12,30,10,10,1,-14,-7
14:16:32:749893,11,12,30,10,10,1,-14,-7
14:16:32:757284,12,4,-50,-22,2,19,-19,5
14:16:32:765593,-11,-11,-19,-10,-13,-4,53,-57
14:16:32:766296,-11,-11,-19,-10,-13,-4,53,-57
14:16:32:772309,2,0,14,7,25,12,-9,6
14:16:32:788072,-9,15,6,-3,-26,-59,-11,17
14:16:32:788841,-9,15,6,-3,-26,-59,-11,17
14:16:32:794810,2,6,29,0,-13,10,-24,-61
14:16:32:802391,2,-15,29,24,8,41,-13,18
14:16:32:809817,2,-15,29,24,8,41,-13,18
14:16:32:817285,-6,-33,-36,-26,-5,-14,-10,-1
14:16:32:825465,14,42,34,-8,-7,-12,-17,4
14:16:32:826285,14,42,34,-8,-7,-12,-17,4
14:16:32:832348,-8,16,28,-6,-12,9,9,-21
14:16:32:848098,-15,-13,-11,4,-9,9,-40,-13
14:16:32:848790,-15,-13,-11,4,-9,9,-40,-13
14:16:32:854937,-8,20,8,-4,36,11,-2,-17
14:16:32:862301,24,0,-42,-3,11,94,-9,20
14:16:32:869960,24,0,-42,-3,11,94,-9,20
14:16:32:877275,19,17,15,11,-48,-20,-24,9
14:16:32:885554,19,17,15,11,-48,-20,-24,9
14:16:32:886256,2,18,33,9,21,6,4,6
14:16:32:892256,3,6,28,27,21,-23,3,15
14:16:32:907996,3,6,28,27,21,-23,3,15
14:16:32:908800,9,2,-10,12,26,-4,13,2
14:16:32:914983,-14,-17,29,1,-5,-8,8,-4
14:16:32:930496,-14,-17,29,1,-5,-8,8,-4
14:16:32:931272,-12,-17,2,-6,-9,-33,-11,-7
14:16:32:937379,7,-28,-38,-21,4,53,-6,-20
14:16:32:945456,7,-28,-38,-21,4,53,-6,-20
14:16:32:946229,22,24,12,-4,-11,-61,-1,34
14:16:32:959833,-5,-16,-16,9,8,20,26,20
14:16:32:968062,-5,-16,-16,9,8,20,26,20
14:16:32:968832,-5,-28,-2,-14,-12,1,28,-20
14:16:32:974853,4,11,7,12,-10,-20,14,-24
14:16:32:990555,4,11,7,12,-10,-20,14,-24
14:16:32:991341,-2,-17,-28,-30,-24,0,-1,-6
14:16:32:997325,10,-2,-20,-23,-11,-24,8,8
14:16:33:5484,10,-2,-20,-23,-11,-24,8,8
14:16:33:6259,2,6,27,15,45,70,21,16
14:16:33:19945,3,-9,-10,6,24,-20,-24,-10
14:16:33:27945,3,-9,-10,6,24,-20,-24,-10
14:16:33:28801,5,7,-12,10,-5,-33,2,10
14:16:33:34887,-4,1,19,9,18,24,12,-13
14:16:33:50559,-4,1,19,9,18,24,12,-13
14:16:33:51307,-21,-15,-6,2,-4,-56,-37,6
14:16:33:57267,27,29,31,6,-7,-19,-14,0
14:16:33:65615,27,29,31,6,-7,-19,-14,0
14:16:33:66299,-16,-15,13,-1,14,0,-35,-21
14:16:33:79868,-6,0,-4,-8,0,25,17,-4
14:16:33:88075,-6,0,-4,-8,0,25,17,-4
14:16:33:88860,0,-1,-50,-24,-21,7,21,-1
14:16:33:94815,-18,-32,-16,27,88,21,5,4
14:16:33:110496,-18,-32,-16,27,88,21,5,4
14:16:33:111257,8,3,29,-12,18,18,11,-20
14:16:33:117271,-7,-16,-30,-43,-54,2,-8,47
14:16:33:125494,-7,-16,-30,-43,-54,2,-8,47
14:16:33:126285,15,6,-33,12,7,11,16,7
14:16:33:139841,10,14,-6,-12,-14,4,-21,-25
14:16:33:148158,10,14,-6,-12,-14,4,-21,-25
14:16:33:148798,3,-13,-14,-4,4,-9,-5,8
14:16:33:154887,-14,-17,-18,7,-8,-34,-14,-19
14:16:33:170599,-14,-17,-18,7,-8,-34,-14,-19
14:16:33:171269,-4,0,19,-11,-31,-16,-10,0
14:16:33:177268,-5,14,26,42,66,49,11,-5
14:16:33:185640,-5,14,26,42,66,49,11,-5
14:16:33:186359,0,13,-24,-2,38,33,19,25
14:16:33:199836,-13,-8,-2,1,-38,-16,-46,-34
14:16:33:208019,-13,-8,-2,1,-38,-16,-46,-34
14:16:33:208780,-13,-25,11,16,-8,22,-19,-39
14:16:33:215002,16,-5,-17,-12,-28,-25,-37,-5
14:16:33:230508,16,-5,-17,-12,-28,-25,-37,-5
14:16:33:231366,-7,-2,14,5,4,-5,3,17
14:16:33:237377,-20,2,10,-26,-72,-29,-8,-24
14:16:33:245499,-20,2,10,-26,-72,-29,-8,-24
14:16:33:246245,-2,9,-7,6,-25,-2,0,-25
14:16:33:259769,12,15,30,28,37,28,17,36
14:16:33:268098,12,15,30,28,37,28,17,36
14:16:33:268858,-19,-12,-15,23,2,-20,-10,-5
14:16:33:274822,-8,-21,-69,-18,-15,-23,1,-2
14:16:33:290464,-8,-21,-69,-18,-15,-23,1,-2
14:16:33:291311,-10,-9,7,-15,-8,-6,0,-14
14:16:33:297256,-5,-1,2,-22,-3,3,14,-13
14:16:33:305580,-5,-1,2,-22,-3,3,14,-13
14:16:33:306294,8,24,-19,3,15,-18,-7,1
14:16:33:319909,-3,-1,26,24,50,20,20,14
14:16:33:327972,-3,-1,26,24,50,20,20,14
14:16:33:328796,6,2,6,-2,-10,-1,-22,-16
14:16:33:334839,6,-1,-29,-18,-19,-34,5,-22
14:16:33:350511,6,-1,-29,-18,-19,-34,5,-22
14:16:33:351324,-4,-12,8,-7,16,15,94,-27
14:16:33:357328,16,27,21,1,5,11,7,53
14:16:33:365548,16,27,21,1,5,11,7,53
14:16:33:366281,-8,-5,-33,0,9,-11,-13,16
14:16:33:379833,-4,1,-21,-15,-24,-6,-1,-11
14:16:33:388033,-4,1,-21,-15,-24,-6,-1,-11
14:16:33:388796,-11,2,-9,-19,-1,4,-3,37
14:16:33:394788,-10,-5,-4,7,-54,-51,-11,-15
14:16:33:410443,-10,-5,-4,7,-54,-51,-11,-15
14:16:33:411240,9,4,-11,-6,-2,38,2,36
14:16:33:417371,-3,4,-1,25,32,-11,-13,-29
14:16:33:425487,-3,4,-1,25,32,-11,-13,-29
14:16:33:426285,8,4,31,15,2,-6,29,42
14:16:33:439855,0,-25,-5,5,-37,12,39,2
14:16:33:448038,0,-25,-5,5,-37,12,39,2
14:16:33:448805,3,-10,9,-16,-16,-7,-11,-12
14:16:33:454933,-1,-29,22,-9,3,5,-33,5
14:16:33:470617,-1,-29,22,-9,3,5,-33,5
14:16:33:471335,-6,-16,-38,-17,-23,-27,-33,-7
14:16:33:477229,-3,-3,-25,-13,24,28,16,21
14:16:33:485539,-3,-3,-25,-13,24,28,16,21
14:16:33:486254,-4,0,37,43,-18,-20,-11,-10
14:16:33:499888,-6,4,16,-25,-11,-35,-4,-3
14:16:33:507958,-6,4,16,-25,-11,-35,-4,-3
14:16:33:508813,13,17,18,29,6,22,5,-5
14:16:33:515014,-9,-7,-5,2,-21,3,-18,-12
14:16:33:530529,-9,-7,-5,2,-21,3,-18,-12
14:16:33:531403,31,20,-4,-22,18,-35,-18,-9
14:16:33:537391,0,5,9,17,21,10,1,12
14:16:33:545488,0,5,9,17,21,10,1,12
14:16:33:546259,10,4,-13,-12,-11,-5,-17,9
14:16:33:559819,-31,0,-4,-22,-29,-14,1,-14
14:16:33:568087,-31,0,-4,-22,-29,-14,1,-14
14:16:33:568791,-10,8,13,-33,-46,-16,-12,-13
14:16:33:574823,7,1,10,13,8,-21,0,7
14:16:33:590547,7,1,10,13,8,-21,0,7
14:16:33:591331,1,-36,-34,5,2,-10,20,5
14:16:33:597284,-5,18,2,-18,-27,-37,2,4
14:16:33:605588,-5,18,2,-18,-27,-37,2,4
14:16:33:606325,-20,-15,10,44,12,33,30,-29
14:16:33:619846,13,10,22,2,15,19,24,23
14:16:33:627990,13,10,22,2,15,19,24,23
14:16:33:628771,0,-18,-45,-27,-11,-20,-21,-10
14:16:33:634942,3,9,-13,-9,18,21,-28,-6
14:16:33:650506,3,9,-13,-9,18,21,-28,-6
14:16:33:651287,-2,-3,33,38,39,27,11,26
14:16:33:657301,17,-4,0,19,15,13,-48,26
14:16:33:665615,17,-4,0,19,15,13,-48,26
14:16:33:666264,-15,11,-10,-31,1,75,-35,-44
14:16:33:679771,-8,18,22,30,34,46,41,32
14:16:33:688100,-8,18,22,30,34,46,41,32
14:16:33:688822,-7,0,-17,-14,8,19,6,31
14:16:33:694798,-11,-16,-41,-48,-61,-75,-4,0
14:16:33:710460,-11,-16,-41,-48,-61,-75,-4,0
14:16:33:711246,-2,40,55,-6,5,-37,-22,6
14:16:33:717238,9,-25,23,13,6,17,36,-6
14:16:33:725542,9,-25,23,13,6,17,36,-6
14:16:33:726283,1,-28,-1,2,-18,-49,-2,-32
14:16:33:739792,5,20,34,-8,5,12,-7,6
14:16:33:748121,5,20,34,-8,5,12,-7,6
14:16:33:748797,-2,-34,-64,14,-16,-25,-26,-19
14:16:33:762303,-30,-17,-10,6,-1,-7,19,-37
14:16:33:770552,-30,-17,-10,6,-1,-7,19,-37
14:16:33:771250,6,5,25,-28,73,13,28,39
14:16:33:777216,6,23,-13,9,7,17,-28,-33
14:16:33:785585,6,23,-13,9,7,17,-28,-33
14:16:33:786324,-9,28,29,13,-26,0,-50,-39
14:16:33:799909,4,1,24,3,25,23,-20,-11
14:16:33:808018,4,1,24,3,25,23,-20,-11
14:16:33:808836,14,17,-4,-5,-10,9,36,5
14:16:33:822267,5,7,2,33,27,26,50,12
14:16:33:830469,5,7,2,33,27,26,50,12
14:16:33:831282,-15,-12,-7,-2,9,5,-1,-25
14:16:33:837450,19,12,4,-11,9,5,-29,9
14:16:33:845468,19,12,4,-11,9,5,-29,9
14:16:33:846280,-8,1,-4,-13,56,-33,19,15
14:16:33:859808,-35,6,8,40,65,26,-65,-52
14:16:33:868048,-35,6,8,40,65,26,-65,-52
14:16:33:868854,-37,-2,19,-14,-48,-25,-2,-13
14:16:33:882404,4,29,9,13,-16,-4,18,-8
14:16:33:890475,4,29,9,13,-16,-4,18,-8
14:16:33:891250,-18,-39,-21,-24,-23,-39,0,7
14:16:33:897278,-25,-10,-15,17,-20,0,14,-3
14:16:33:904866,-25,-10,-15,17,-20,0,14,-3
14:16:33:912239,17,-21,-79,-35,-41,8,-4,20
14:16:33:919929,26,-23,-18,-7,-13,-15,-12,12
14:16:33:927971,26,-23,-18,-7,-13,-15,-12,12
14:16:33:928788,5,19,27,45,39,5,-26,-21
14:16:33:942347,1,-6,-39,-49,-7,-13,4,35
14:16:33:950506,1,-6,-39,-49,-7,-13,4,35
14:16:33:951293,8,-1,-19,-37,-61,-35,23,39
14:16:33:957268,4,-6,10,28,40,40,48,10
14:16:33:964942,4,-6,10,28,40,40,48,10
14:16:33:972288,-3,-7,-10,1,-14,5,-7,-27
14:16:33:979772,-15,-16,-20,-30,-19,-31,-20,0
14:16:33:988007,-15,-16,-20,-30,-19,-31,-20,0
14:16:33:988808,5,5,16,8,-3,11,10,19
14:16:34:2344,4,-33,-15,-3,-6,-3,3,3
14:16:34:10466,4,-33,-15,-3,-6,-3,3,3
14:16:34:11246,11,22,21,-6,4,14,-19,-25
14:16:34:17260,8,13,15,-8,-7,0,-3,-10
14:16:34:24820,8,13,15,-8,-7,0,-3,-10
14:16:34:32441,-3,-9,8,25,9,-16,9,-33
14:16:34:39790,13,-8,-29,-18,-43,-37,-5,24
14:16:34:48123,13,-8,-29,-18,-43,-37,-5,24
14:16:34:48830,5,11,-14,-5,-28,-15,-67,-13
14:16:34:62257,-15,-17,13,0,1,42,-14,-14
14:16:34:70579,-15,-17,13,0,1,42,-14,-14
14:16:34:71267,-7,-5,-11,7,-15,-35,3,19
14:16:34:77248,-8,-10,-21,-4,5,-12,-1,31
14:16:34:93022,-8,-10,-21,-4,5,-12,-1,31
14:16:34:93803,13,1,-1,41,37,35,16,5
14:16:34:99836,-3,15,21,-5,-13,-17,1,3
14:16:34:108057,-3,15,21,-5,-13,-17,1,3
14:16:34:108841,-7,-10,5,19,25,15,14,-15
14:16:34:122305,-4,2,6,1,3,0,0,-19
14:16:34:130485,-4,2,6,1,3,0,0,-19
14:16:34:131277,-33,-23,-3,-4,3,22,4,2
14:16:34:137348,14,16,2,-14,14,3,28,18
14:16:34:144834,14,16,2,-14,14,3,28,18
14:16:34:152364,-12,1,-60,-33,7,-1,-8,18
14:16:34:159776,-2,6,2,1,-11,-13,-3,-4
14:16:34:168070,-2,6,2,1,-11,-13,-3,-4
14:16:34:168844,23,18,39,22,22,22,51,39
14:16:34:182281,-8,-4,-14,-16,-5,10,-16,-21
14:16:34:190516,-8,-4,-14,-16,-5,10,-16,-21
14:16:34:191277,7,18,39,-4,-9,9,-11,0
14:16:34:197301,1,26,7,0,0,9,-17,-43
14:16:34:204892,1,26,7,0,0,9,-17,-43
14:16:34:212304,-13,-18,-9,-21,-14,-18,9,6
14:16:34:219984,5,5,-19,25,30,16,-23,5
14:16:34:227981,5,5,-19,25,30,16,-23,5
14:16:34:228820,15,12,13,-22,1,-13,0,-9
14:16:34:242323,-14,-8,-2,11,-13,-27,-12,5
14:16:34:250494,-14,-8,-2,11,-13,-27,-12,5
14:16:34:251295,5,-1,-2,17,8,15,-4,-19
14:16:34:257275,-7,-25,-15,-30,0,12,17,-4
14:16:34:264952,-7,-25,-15,-30,0,12,17,-4
14:16:34:272252,5,-17,10,-10,-27,4,17,9
14:16:34:279827,1,-2,-16,11,-19,-4,10,-21
14:16:34:288052,1,-2,-16,11,-19,-4,10,-21
14:16:34:288817,10,22,-30,-7,-54,-23,8,20
14:16:34:302418,12,-13,-6,-28,-10,16,31,6
14:16:34:318870,12,-13,-6,-28,-10,16,31,6
14:16:34:319524,-8,1,26,12,-2,17,-1,-28
14:16:34:320324,11,19,8,-27,-32,-45,-46,-10
14:16:34:324837,11,19,8,-27,-32,-45,-46,-10
14:16:34:332405,6,-4,-14,-7,10,39,-3,30
14:16:34:339844,-1,-4,7,-9,-2,-29,-5,5
14:16:34:348089,-1,-4,7,-9,-2,-29,-5,5
14:16:34:348813,-3,-13,-16,13,32,-1,-3,4
14:16:34:362287,-8,-12,-14,-4,-36,-39,-2,8
14:16:34:370576,-8,-12,-14,-4,-36,-39,-2,8
14:16:34:371275,-28,1,-9,-15,4,11,7,-20
14:16:34:377273,5,-24,20,24,11,13,14,16
14:16:34:384877,5,-24,20,24,11,13,14,16
14:16:34:392274,18,24,-8,18,7,-9,-4,3
14:16:34:399783,7,0,-10,1,14,-20,18,46
14:16:34:408013,7,0,-10,1,14,-20,18,46
14:16:34:408828,14,10,15,22,37,29,-14,20
14:16:34:422322,12,11,12,24,4,12,-51,-43
14:16:34:430497,12,11,12,24,4,12,-51,-43
14:16:34:431278,0,2,19,-22,-33,-25,48,-6
14:16:34:437307,-16,-17,7,10,-6,-9,38,37
14:16:34:444831,-16,-17,7,10,-6,-9,38,37
14:16:34:452341,5,9,38,19,-1,3,-30,-11
14:16:34:459711,-11,15,8,12,2,22,7,-14
14:16:34:467807,-11,15,8,12,2,22,7,-14
14:16:34:474783,10,-12,7,17,17,-9,4,-15
14:16:34:482417,-2,-18,-13,-12,-20,-8,-2,-12
14:16:34:490548,-2,-18,-13,-12,-20,-8,-2,-12
14:16:34:491339,-8,1,14,-6,-13,5,0,8
14:16:34:497324,1,0,14,-24,-15,-6,-1,-34
14:16:34:504950,1,0,14,-24,-15,-6,-1,-34
14:16:34:512297,-19,-2,-2,6,-1,9,-16,-32
14:16:34:519894,-7,-2,-7,6,17,28,21,14
14:16:34:527983,-7,-2,-7,6,17,28,21,14
14:16:34:528819,-16,-13,7,9,-5,-31,-52,-4
14:16:34:542321,-9,-6,20,10,28,4,12,45
14:16:34:550472,-9,-6,20,10,28,4,12,45
14:16:34:551345,-3,-8,-15,-21,2,-1,2,-1
14:16:34:557298,13,6,-4,13,13,7,-22,-22
14:16:34:565016,13,6,-4,13,13,7,-22,-22
14:16:34:572327,20,22,-4,-10,0,3,2,1
14:16:34:579828,3,1,-10,-10,-25,-9,-8,-8
14:16:34:595513,3,1,-10,-10,-25,-9,-8,-8
14:16:34:596303,1,9,-26,0,9,-3,-2,-8
14:16:34:602399,-12,-6,-16,24,17,7,7,-13
14:16:34:610421,-12,-6,-16,24,17,7,7,-13
14:16:34:611263,19,0,-8,-21,-14,9,-3,5
14:16:34:617301,-8,16,6,-11,-2,-3,10,-49
14:16:34:624860,-8,16,6,-11,-2,-3,10,-49
14:16:34:632331,20,-1,-39,-22,-8,-6,7,29
14:16:34:639768,20,30,20,20,1,31,-22,-2
14:16:34:648075,20,30,20,20,1,31,-22,-2
14:16:34:648797,-9,-17,-8,10,14,-15,-1,-11
14:16:34:662318,1,-6,11,11,3,-8,-27,6
14:16:34:670563,1,-6,11,11,3,-8,-27,6
14:16:34:671251,0,8,9,-10,-25,-38,-12,7
14:16:34:677221,-3,-1,0,-25,-6,26,20,8
14:16:34:684882,-3,-1,0,-25,-6,26,20,8
14:16:34:692272,-26,-23,21,2,-15,0,0,-13
14:16:34:699816,5,-8,-18,5,-1,-24,1,57
14:16:34:708366,5,-8,-18,5,-1,-24,1,57
14:16:34:714962,-4,-11,-17,14,20,-3,36,26
14:16:34:722301,6,-6,-1,-23,-19,21,10,2
14:16:34:730519,6,-6,-1,-23,-19,21,10,2
14:16:34:731295,26,39,59,8,-3,22,-3,38
14:16:34:737383,-35,-5,13,9,21,5,69,-7
14:16:34:744831,-35,-5,13,9,21,5,69,-7
14:16:34:752341,-23,-21,-24,-3,-6,-6,-33,-54
14:16:34:759811,3,-7,-38,-1,17,-10,3,-37
14:16:34:768014,3,-7,-38,-1,17,-10,3,-37
14:16:34:768824,-10,-5,27,39,9,21,3,-12
14:16:34:782407,-2,-5,11,15,-4,-45,-43,24
14:16:34:790468,-2,-5,11,15,-4,-45,-43,24
14:16:34:791226,12,-13,14,20,1,-2,15,37
14:16:34:797338,14,23,4,-6,8,-8,-10,7
14:16:34:804932,14,23,4,-6,8,-8,-10,7
14:16:34:812245,-18,-11,-39,-36,5,-3,-10,-21
14:16:34:819864,-4,4,-2,-36,-79,-9,-32,-29
14:16:34:827317,-4,4,-2,-36,-79,-9,-32,-29
14:16:34:834892,7,-12,-15,-11,22,20,-10,62
14:16:34:842275,-3,-12,-39,-19,-24,-2,10,-8
14:16:34:850571,-3,-12,-39,-19,-24,-2,10,-8
14:16:34:851342,-1,8,21,13,24,15,25,-11
14:16:34:865551,16,21,22,-1,-1,1,23,-2
14:16:34:866257,16,21,22,-1,-1,1,23,-2
14:16:34:872274,-6,2,-14,-34,-30,-9,0,-23
14:16:34:879756,-8,2,18,13,38,-2,-39,-17
14:16:34:887410,-8,2,18,13,38,-2,-39,-17
14:16:34:894732,-3,4,-33,9,-3,1,1,5
14:16:34:902295,-4,-5,5,-42,-29,-7,-3,11
14:16:34:910489,-4,-5,5,-42,-29,-7,-3,11
14:16:34:911271,-5,-12,-3,6,-12,-33,-10,-10
14:16:34:925516,2,-6,-10,19,42,9,4,18
14:16:34:926309,2,-6,-10,19,42,9,4,18
14:16:34:932376,10,3,10,-1,-4,10,-29,-74
14:16:34:939782,2,-2,-18,-8,36,23,1,-5
14:16:34:947347,2,-2,-18,-8,36,23,1,-5
14:16:34:954867,10,9,6,9,23,15,-5,25
14:16:34:962284,-7,-19,-8,14,23,-1,30,0
14:16:34:970608,-7,-19,-8,14,23,-1,30,0
14:16:34:971297,-14,4,-18,-8,-11,-12,-39,-31
14:16:34:985557,-22,-14,-18,-5,-6,11,-33,-2
14:16:34:986277,-22,-14,-18,-5,-6,11,-33,-2
14:16:34:992299,-3,-14,2,-20,-1,8,-3,10
14:16:34:999861,13,8,-1,46,18,7,8,25
14:16:35:7306,13,8,-1,46,18,7,8,25
14:16:35:14980,-5,0,-7,-3,-8,-18,7,22
14:16:35:22327,4,5,9,-2,-15,5,4,-1
14:16:35:30471,4,5,9,-2,-15,5,4,-1
14:16:35:31316,-20,-2,4,-13,-1,-22,6,-19
14:16:35:45448,-2,13,47,-7,8,-26,-14,-8
14:16:35:46266,-2,13,47,-7,8,-26,-14,-8
14:16:35:52367,14,-8,-8,-19,-38,-10,-1,-4
14:16:35:59813,0,-26,-21,-2,-29,8,21,5
14:16:35:67331,0,-26,-21,-2,-29,8,21,5
14:16:35:74805,-5,-1,7,57,20,-3,2,0
14:16:35:82348,8,-3,-31,-13,-1,-1,-16,-17
14:16:35:90515,8,-3,-31,-13,-1,-1,-16,-17
14:16:35:91299,-7,-16,-4,-4,-4,1,9,11
14:16:35:105498,-11,-9,-31,-5,4,-5,0,-23
14:16:35:106273,-11,-9,-31,-5,4,-5,0,-23
14:16:35:112274,12,13,2,13,20,0,7,26
14:16:35:119794,-2,-17,18,14,29,37,3,7
14:16:35:127270,-2,-17,18,14,29,37,3,7
14:16:35:134780,-11,-5,12,-26,-25,-19,2,-9
14:16:35:142265,10,14,20,2,10,-11,18,-2
14:16:35:150501,10,14,20,2,10,-11,18,-2
14:16:35:151271,-10,-2,-4,-4,1,-27,55,34
14:16:35:165540,-15,-6,-24,-15,0,12,21,-25
14:16:35:166275,-15,-6,-24,-15,0,12,21,-25
14:16:35:172299,-4,-1,-9,5,-31,-46,-41,-30
14:16:35:179758,14,10,5,8,10,23,-7,69
14:16:35:187449,14,10,5,8,10,23,-7,69
14:16:35:194767,-5,8,8,-12,-10,22,-6,-15
14:16:35:202376,3,-17,12,26,6,-14,-8,27
14:16:35:210500,3,-17,12,26,6,-14,-8,27
14:16:35:211290,13,14,11,-8,-8,8,3,15
14:16:35:225534,-15,-6,-23,4,-16,9,-18,-36
14:16:35:226318,-15,-6,-23,4,-16,9,-18,-36
14:16:35:232450,-8,1,-12,-29,8,-8,-13,-42
14:16:35:239788,-19,10,-4,-20,-8,-36,27,-44
14:16:35:247363,-19,10,-4,-20,-8,-36,27,-44
14:16:35:254962,13,8,34,-5,11,14,-7,1
14:16:35:262291,0,30,20,-27,-18,-22,-26,-17
14:16:35:270528,0,30,20,-27,-18,-22,-26,-17
14:16:35:271233,-2,-15,-40,-53,8,5,-13,7
14:16:35:285534,5,-9,-5,-9,0,31,56,17
14:16:35:286256,5,-9,-5,-9,0,31,56,17
14:16:35:292266,-8,-2,21,18,-7,21,6,-13
14:16:35:299936,-11,-4,5,-14,-63,-31,-54,-25
14:16:35:307319,-11,-4,5,-14,-63,-31,-54,-25
14:16:35:314976,13,9,35,27,15,-23,7,36
14:16:35:322295,4,0,3,-5,25,38,-8,-12
14:16:35:330499,4,0,3,-5,25,38,-8,-12
14:16:35:331291,1,7,-12,3,-14,9,-10,-2
14:16:35:345461,-10,-26,-19,3,-34,-50,-22,7
14:16:35:346307,-10,-26,-19,3,-34,-50,-22,7
14:16:35:352381,-1,21,13,23,46,21,28,3
14:16:35:359829,17,11,-28,-49,-7,59,-4,-5
14:16:35:367353,17,11,-28,-49,-7,59,-4,-5
14:16:35:374775,-5,-9,-30,6,3,35,-12,27
14:16:35:382414,8,13,16,30,20,-8,-22,-41
14:16:35:390533,8,13,16,30,20,-8,-22,-41
14:16:35:391276,1,-8,-6,-2,-10,-3,-29,-9
14:16:35:405497,1,-13,-9,8,-21,-17,15,79
14:16:35:406289,1,-13,-9,8,-21,-17,15,79
14:16:35:412248,-10,-16,-4,-10,-22,-23,-32,-17
14:16:35:427912,19,21,13,58,29,-16,-11,-12
14:16:35:428793,19,21,13,58,29,-16,-11,-12
14:16:35:434885,-8,-34,8,7,21,30,25,4
14:16:35:442950,-20,8,54,11,-12,-36,0,3
14:16:35:443797,-20,8,54,11,-12,-36,0,3
14:16:35:449841,-3,4,-46,4,-12,-13,4,-9
14:16:35:465575,-4,-9,8,7,-10,12,-9,-14
14:16:35:466300,-4,-9,8,7,-10,12,-9,-14
14:16:35:472287,-7,-7,-8,-23,-5,13,16,-42
14:16:35:479778,9,0,-10,-35,-18,17,23,22
14:16:35:487407,9,0,-10,-35,-18,17,23,22
14:16:35:494759,18,9,20,15,5,10,0,18
14:16:35:503019,11,-5,8,-18,-8,3,13,9
14:16:35:503812,11,-5,8,-18,-8,3,13,9
14:16:35:509740,-7,3,-36,-58,-1,-18,67,20
14:16:35:525475,-11,10,6,16,11,-5,14,8
14:16:35:526285,-11,10,6,16,11,-5,14,8
14:16:35:532385,-10,0,16,19,4,8,-6,-17
14:16:35:539742,1,-18,-27,-15,6,-29,-15,-26
14:16:35:547360,1,-18,-27,-15,6,-29,-15,-26
14:16:35:554838,15,14,5,29,44,10,5,-23
14:16:35:562983,-7,-6,3,21,6,-8,-10,-7
14:16:35:563824,-7,-6,3,21,6,-8,-10,-7
14:16:35:569861,10,12,36,3,-19,1,-15,35
14:16:35:585526,3,10,-6,-41,-6,-10,3,8
14:16:35:586289,3,10,-6,-41,-6,-10,3,8
14:16:35:592320,-16,-28,9,-11,-14,-13,-25,-27
14:16:35:599834,-8,-15,-12,-6,6,0,-19,-8
14:16:35:607351,-8,-15,-12,-6,6,0,-19,-8
14:16:35:615034,-8,-10,-6,39,53,57,26,-6
14:16:35:622959,-4,7,-30,-29,-18,13,-21,-14
14:16:35:623838,-4,7,-30,-29,-18,13,-21,-14
14:16:35:629846,-2,4,0,18,29,36,-15,-2
14:16:35:645491,-3,-15,17,29,38,14,-2,-10
14:16:35:646288,-3,-15,17,29,38,14,-2,-10
14:16:35:652365,3,7,9,-16,-37,-39,-18,53
14:16:35:659791,-5,4,29,-1,3,-11,-29,-61
14:16:35:667322,-5,4,29,-1,3,-11,-29,-61
14:16:35:674831,11,4,-17,-4,-22,-7,8,19
14:16:35:683015,10,-3,-13,16,34,8,21,34
14:16:35:683869,10,-3,-13,16,34,8,21,34
14:16:35:689760,6,12,-1,-16,-10,-11,7,-3
14:16:35:705500,-8,3,-3,1,-22,-13,-25,9
14:16:35:706238,-8,3,-3,1,-22,-13,-25,9
14:16:35:712322,-8,-3,-13,-27,-66,-31,-1,-28
14:16:35:719893,1,-3,10,27,25,25,25,-2
14:16:35:727303,1,-3,10,27,25,25,25,-2
14:16:35:734785,-3,-10,-23,4,0,-15,-10,-3
14:16:35:742967,-9,-13,-9,-5,13,7,-8,10
14:16:35:743808,-9,-13,-9,-5,13,7,-8,10
14:16:35:749775,-21,1,28,9,44,-3,-9,-19
14:16:35:765532,-2,-5,-29,-19,-7,15,40,48
14:16:35:766275,-2,-5,-29,-19,-7,15,40,48
14:16:35:772270,-5,-10,-7,-11,-30,-1,-4,-17
14:16:35:788005,3,22,60,36,7,-1,6,8
14:16:35:788811,3,22,60,36,7,-1,6,8
14:16:35:794823,10,21,25,-5,-11,-3,-12,1
14:16:35:803041,-3,-16,4,-1,-28,-17,1,-26
14:16:35:803871,-3,-16,4,-1,-28,-17,1,-26
14:16:35:817308,-3,-5,-14,-2,-29,-26,-27,-5
14:16:35:825449,11,15,29,7,9,24,33,27
14:16:35:826253,11,15,29,7,9,24,33,27
14:16:35:832381,-3,-6,-35,-34,3,18,13,-11
14:16:35:848073,3,-10,-43,-23,-24,-36,4,2
14:16:35:848812,3,-10,-43,-23,-24,-36,4,2
14:16:35:854913,21,23,41,28,9,10,32,21
14:16:35:862971,-19,0,7,-14,-21,-7,-10,-56
14:16:35:863828,-19,0,7,-14,-21,-7,-10,-56
14:16:35:877260,0,-21,-21,8,9,-8,-30,-19
14:16:35:885585,2,-7,-32,-14,-20,-13,-6,36
14:16:35:886275,2,-7,-32,-14,-20,-13,-6,36
14:16:35:892278,0,-3,15,5,-15,-5,36,3
14:16:35:908073,-1,8,0,18,27,17,-10,-13
14:16:35:908859,-1,8,0,18,27,17,-10,-13
14:16:35:914903,-8,-27,41,16,-8,-17,-2,-6
14:16:35:922317,-4,-4,8,26,23,2,11,9
14:16:35:929857,-4,-4,8,26,23,2,11,9
14:16:35:937373,-2,3,-16,-9,-32,-29,-27,-13
14:16:35:945446,12,4,-42,-28,-40,-41,26,45
14:16:35:946228,12,4,-42,-28,-40,-41,26,45
14:16:35:952312,1,7,-7,24,25,29,32,-3
14:16:35:968038,19,-17,-47,-19,-17,-25,-54,-16
14:16:35:968837,19,-17,-47,-19,-17,-25,-54,-16
14:16:35:974863,-2,-1,-8,7,31,-10,10,28
14:16:35:982413,-1,-4,-1,29,30,21,13,-15
14:16:35:989868,-1,-4,-1,29,30,21,13,-15
14:16:35:997277,-14,-7,-12,-16,-3,20,-12,-12
14:16:36:5529,3,9,6,-29,-5,0,21,15
14:16:36:6321,3,9,6,-29,-5,0,21,15
14:16:36:12282,3,9,22,-13,10,14,4,15
14:16:36:27998,-13,-13,-39,-23,-12,-46,-16,-17
14:16:36:28825,-13,-13,-39,-23,-12,-46,-16,-17
14:16:36:34822,13,34,33,12,-2,20,-1,21
