Time,EMG1,EMG2,EMG3,EMG4,EMG5,EMG6,EMG7,EMG8
14:16:45:563646,-4,-2,-4,-5,-17,-8,-6,-8
14:16:45:564430,-4,-2,-4,-5,-17,-8,-6,-8
14:16:45:570565,3,-5,-5,-11,-2,0,9,23
14:16:45:577927,-1,-4,-4,3,-2,2,-8,-9
14:16:45:585598,-1,-4,-4,3,-2,2,-8,-9
14:16:45:592981,-2,0,-2,11,4,-2,-3,0
14:16:45:601221,-1,0,6,5,3,0,4,-5
14:16:45:602006,-1,0,6,5,3,0,4,-5
14:16:45:608008,-5,-6,-4,-7,-7,-5,-15,-11
14:16:45:623691,-2,0,-3,26,10,2,0,-8
14:16:45:624481,-2,0,-3,26,10,2,0,-8
14:16:45:630485,-2,0,1,37,29,-6,7,3
14:16:45:638018,-1,0,-10,0,-8,-5,-4,0
14:16:45:645513,-1,0,-10,0,-8,-5,-4,0
14:16:45:653067,-2,-4,-2,-23,-21,-1,7,0
14:16:45:661136,-1,-2,8,2,2,2,7,-1
14:16:45:661903,-1,-2,8,2,2,2,7,-1
14:16:45:667956,-3,1,7,-12,-14,-2,-11,-10
14:16:45:683724,-4,-3,5,-17,-6,-4,-17,-15
14:16:45:684472,-4,-3,5,-17,-6,-4,-17,-15
14:16:45:690494,-2,-2,-4,-6,-9,-8,-13,0
14:16:45:706188,-2,-2,-4,-6,-9,-8,-13,0
14:16:45:706986,3,8,6,-1,-2,-3,-7,12
14:16:45:712963,1,2,3,5,-14,3,50,16
14:16:45:721261,1,2,3,5,-14,3,50,16
14:16:45:721970,0,1,2,6,-6,0,1,-5
14:16:45:727939,-1,0,1,-11,2,-9,-19,-23
14:16:45:743720,-1,0,1,-11,2,-9,-19,-23
14:16:45:744466,4,-2,-3,3,-7,-2,19,11
14:16:45:750463,1,0,-5,25,18,1,-6,6
14:16:45:766254,1,0,-5,25,18,1,-6,6
14:16:45:766952,-3,1,1,11,27,0,-27,-7
14:16:45:772944,-2,-7,-11,-2,45,26,-8,-10
14:16:45:781219,-2,-7,-11,-2,45,26,-8,-10
14:16:45:781988,2,-4,-8,-13,-34,-15,-11,3
14:16:45:788052,-3,3,-5,-14,-18,-6,-20,-17
14:16:45:803771,-3,3,-5,-14,-18,-6,-20,-17
14:16:45:804490,-2,1,-1,1,-3,-13,34,7
14:16:45:810404,-10,-10,-3,4,0,-4,0,-8
14:16:45:826153,-10,-10,-3,4,0,-4,0,-8
14:16:45:826923,0,-8,-12,8,-18,-19,-15,7
14:16:45:832992,-1,-1,11,44,10,7,-18,3
14:16:45:841191,-1,-1,11,44,10,7,-18,3
14:16:45:841965,1,6,0,51,74,39,11,-3
14:16:45:848069,2,-8,-10,-19,-7,-1,0,0
14:16:45:863713,2,-8,-10,-19,-7,-1,0,0
14:16:45:864465,2,-1,-3,-18,-14,-16,-11,-3
14:16:45:870534,1,6,0,8,3,-13,-2,6
14:16:45:886240,1,6,0,8,3,-13,-2,6
14:16:45:887027,-7,-4,-3,-26,-11,1,1,3
14:16:45:892930,1,0,0,-13,2,12,36,8
14:16:45:901219,1,0,0,-13,2,12,36,8
14:16:45:901947,-2,-5,-4,-5,35,-7,3,-4
14:16:45:907917,1,5,2,-3,15,22,8,-1
14:16:45:923687,1,5,2,-3,15,22,8,-1
14:16:45:924456,-5,-3,4,-23,-30,-9,-2,-3
14:16:45:930429,-3,0,0,-35,-37,-22,6,-4
14:16:45:946634,-3,0,0,-35,-37,-22,6,-4
14:16:45:947385,-3,-5,-4,-18,-29,-4,-1,-2
14:16:45:953022,-4,-6,-1,-4,-8,-4,-24,-3
14:16:45:961187,-4,-6,-1,-4,-8,-4,-24,-3
14:16:45:961937,-5,-5,-24,-15,-18,10,17,-2
14:16:45:975526,6,8,15,-8,-9,-21,1,2
14:16:45:983722,6,8,15,-8,-9,-21,1,2
14:16:45:984452,9,5,38,19,10,33,-5,-2
14:16:45:990453,-1,-1,-2,-6,3,0,-22,-5
14:16:46:6178,-1,-1,-2,-6,3,0,-22,-5
14:16:46:6944,-2,4,7,3,10,-5,-2,6
14:16:46:12987,-3,-10,-7,-3,-14,-11,-11,-1
14:16:46:21263,-3,-10,-7,-3,-14,-11,-11,-1
14:16:46:21985,0,2,-9,0,15,9,2,-3
14:16:46:35540,-5,0,-12,-27,-30,-16,-2,-1
14:16:46:43665,-5,0,-12,-27,-30,-16,-2,-1
14:16:46:44399,2,0,2,3,-7,8,-5,1
14:16:46:50491,0,0,5,3,12,11,16,1
14:16:46:66244,0,0,5,3,12,11,16,1
14:16:46:66960,-3,-2,9,9,8,-12,23,-10
14:16:46:72961,5,-1,-4,20,12,14,-5,4
14:16:46:81149,5,-1,-4,20,12,14,-5,4
14:16:46:81927,1,4,-1,-15,-24,-13,-26,-1
14:16:46:95481,2,13,30,14,10,-1,5,-1
14:16:46:103743,2,13,30,14,10,-1,5,-1
14:16:46:104400,-4,-5,10,-18,-11,0,-6,-4
14:16:46:110463,-3,-2,-10,17,-2,-6,-2,0
14:16:46:126197,-3,-2,-10,17,-2,-6,-2,0
14:16:46:126944,-1,-1,-9,-3,-6,8,-2,0
14:16:46:132991,-3,-5,-10,23,28,7,4,1
14:16:46:141123,-3,-5,-10,23,28,7,4,1
14:16:46:141913,-2,-3,-9,9,9,-2,-6,-1
14:16:46:155411,1,-2,-9,-27,-12,-4,16,6
14:16:46:163684,1,-2,-9,-27,-12,-4,16,6
14:16:46:164458,-2,-3,-3,-7,-3,-12,1,-2
14:16:46:170530,2,3,7,4,5,12,6,7
14:16:46:186223,2,3,7,4,5,12,6,7
14:16:46:187020,-1,3,7,-1,7,-2,-3,5
14:16:46:192986,-5,-11,-27,-14,-7,-4,-9,-14
14:16:46:201275,-5,-11,-27,-14,-7,-4,-9,-14
14:16:46:201979,-1,-9,-13,6,-2,-1,-8,-3
14:16:46:215514,2,2,-2,-6,-3,-1,0,2
14:16:46:223697,2,2,-2,-6,-3,-1,0,2
14:16:46:224512,-1,-2,-1,5,-3,2,-6,-5
14:16:46:230481,1,-1,2,-16,-20,-2,-1,-4
14:16:46:246227,1,-1,2,-16,-20,-2,-1,-4
14:16:46:246909,0,2,3,-1,16,17,16,4
14:16:46:252988,-3,0,-3,7,15,-13,-6,-4
14:16:46:261142,-3,0,-3,7,15,-13,-6,-4
14:16:46:261981,0,-4,-9,17,6,-15,0,5
14:16:46:275969,1,3,7,14,19,2,4,1
14:16:46:283683,1,3,7,14,19,2,4,1
14:16:46:284460,-3,-2,-9,-12,-12,-5,-2,-2
14:16:46:290440,-7,-4,6,-4,-9,-7,-22,-5
14:16:46:306233,-7,-4,6,-4,-9,-7,-22,-5
14:16:46:306981,-2,0,-2,-5,-14,0,-11,-2
14:16:46:312933,-1,-2,0,-1,4,-1,-18,-4
14:16:46:321310,-1,-2,0,-1,4,-1,-18,-4
14:16:46:321989,0,-2,6,5,5,20,21,-1
14:16:46:335573,3,1,2,15,6,6,18,8
14:16:46:343652,3,1,2,15,6,6,18,8
14:16:46:344426,0,2,-7,-15,-13,-1,-13,-10
14:16:46:350429,-8,-2,-6,0,19,-1,1,-5
14:16:46:366205,-8,-2,-6,0,19,-1,1,-5
14:16:46:366974,-1,2,7,11,21,20,4,2
14:16:46:372916,-4,-2,-3,-14,-44,-18,-7,-7
14:16:46:381203,-4,-2,-3,-14,-44,-18,-7,-7
14:16:46:381949,-1,-4,-7,-12,-5,-10,-15,1
14:16:46:395469,3,-3,-5,1,-1,-3,9,8
14:16:46:403785,3,-3,-5,1,-1,-3,9,8
14:16:46:404457,-4,-3,-3,3,-7,-6,1,-10
14:16:46:410380,3,-4,-5,1,2,2,1,9
14:16:46:426196,3,-4,-5,1,2,2,1,9
14:16:46:426928,-5,-3,-8,2,-4,-22,0,-4
14:16:46:433055,-7,-5,0,-12,-34,-22,-15,-11
14:16:46:441195,-7,-5,0,-12,-34,-22,-15,-11
14:16:46:441986,1,2,13,4,31,23,12,6
14:16:46:455526,2,2,2,-2,3,5,8,0
14:16:46:463680,2,2,2,-2,3,5,8,0
14:16:46:464454,0,-1,-2,-4,-26,-19,-8,0
14:16:46:470495,4,1,-4,4,2,17,28,11
14:16:46:486214,4,1,-4,4,2,17,28,11
14:16:46:486925,-2,-3,-11,-4,-1,5,1,1
14:16:46:493005,-2,-6,-8,-8,-8,-11,-15,-8
14:16:46:501157,-2,-6,-8,-8,-8,-11,-15,-8
14:16:46:501920,-1,0,2,4,-2,-7,0,1
14:16:46:515551,-7,-3,-15,-10,-13,-4,-9,-9
14:16:46:523715,-7,-3,-15,-10,-13,-4,-9,-9
14:16:46:524443,0,4,13,10,-1,-9,-3,-1
14:16:46:530532,3,0,12,-2,8,22,5,3
14:16:46:546269,3,0,12,-2,8,22,5,3
14:16:46:546992,-1,-3,-5,6,2,8,-3,0
14:16:46:553041,-2,1,3,-2,5,16,16,-3
14:16:46:561122,-2,1,3,-2,5,16,16,-3
14:16:46:561909,3,2,2,-6,-3,5,8,-3
14:16:46:575462,-4,-4,5,4,-1,-10,4,-12
14:16:46:583647,-4,-4,5,4,-1,-10,4,-12
14:16:46:584426,1,-1,-1,1,6,-3,27,12
14:16:46:590504,-3,-3,-4,-4,-8,-3,-13,1
14:16:46:606207,-3,-3,-4,-4,-8,-3,-13,1
14:16:46:607016,1,-1,-8,-2,5,-7,-11,-6
14:16:46:612934,-4,-1,18,-1,-1,5,-10,-1
14:16:46:621168,-4,-1,18,-1,-1,5,-10,-1
14:16:46:621912,0,-4,2,26,6,-17,-12,-4
14:16:46:635545,6,8,-1,-7,16,2,3,2
14:16:46:643662,6,8,-1,-7,16,2,3,2
14:16:46:644469,-1,-2,-8,-12,-14,-2,-17,0
14:16:46:650434,-1,1,-4,7,13,-2,-22,4
14:16:46:666257,-1,1,-4,7,13,-2,-22,4
14:16:46:666963,-4,-1,-1,-5,-7,7,14,6
14:16:46:672982,-2,-2,0,0,-7,2,-10,2
14:16:46:681185,-2,-2,0,0,-7,2,-10,2
14:16:46:681968,-3,-6,-5,-7,-1,-3,-8,-6
14:16:46:695450,0,-4,-1,-1,-4,-7,11,1
14:16:46:703757,0,-4,-1,-1,-4,-7,11,1
14:16:46:704450,-2,0,3,-3,-3,4,9,-3
14:16:46:710396,3,5,6,7,6,-10,-6,-3
14:16:46:726227,3,5,6,7,6,-10,-6,-3
14:16:46:726927,-1,-5,-1,-5,-8,-10,-9,7
14:16:46:733115,-3,-2,5,22,5,-9,-7,-2
14:16:46:741193,-3,-2,5,22,5,-9,-7,-2
14:16:46:741960,-3,2,-2,-9,11,13,3,-4
14:16:46:755446,-2,-2,-1,-5,-8,-11,-2,-2
14:16:46:763708,-2,-2,-1,-5,-8,-11,-2,-2
14:16:46:764460,-3,0,-1,-8,-11,-7,6,-7
14:16:46:770545,0,-2,-20,-14,-9,4,-6,1
14:16:46:786231,0,-2,-20,-14,-9,4,-6,1
14:16:46:786967,1,-1,-6,-3,-1,3,5,4
14:16:46:792895,-1,-3,-6,-9,-4,-1,-9,-9
14:16:46:801289,-1,-3,-6,-9,-4,-1,-9,-9
14:16:46:801952,-1,0,3,6,9,2,-1,-5
14:16:46:815491,-1,1,7,20,9,5,2,4
14:16:46:823693,-1,1,7,20,9,5,2,4
14:16:46:824474,0,-4,-6,-8,10,6,-15,1
14:16:46:830490,2,4,4,7,-2,5,3,3
14:16:46:846154,2,4,4,7,-2,5,3,3
14:16:46:846894,-1,-2,5,-25,-26,-18,-7,-5
14:16:46:853018,-1,-5,-10,-16,-1,4,7,-9
14:16:46:860490,-1,-5,-10,-16,-1,4,7,-9
14:16:46:868011,1,0,-4,3,2,-5,-1,2
14:16:46:875463,1,6,5,1,-4,-11,-1,3
14:16:46:883730,1,6,5,1,-4,-11,-1,3
14:16:46:884458,-2,4,7,2,0,3,7,9
14:16:46:897952,1,4,8,7,5,0,8,6
14:16:46:906217,1,4,8,7,5,0,8,6
14:16:46:906977,-2,0,-6,-1,-8,-8,-23,-16
14:16:46:912988,-3,-3,-4,1,7,24,17,2
14:16:46:920582,-3,-3,-4,1,7,24,17,2
14:16:46:927941,3,1,3,21,9,12,2,1
14:16:46:935536,-2,-7,0,-16,-19,-8,-10,-9
14:16:46:943656,-2,-7,0,-16,-19,-8,-10,-9
14:16:46:944450,-2,0,-4,15,8,7,7,1
14:16:46:958677,-3,-2,-8,-1,9,6,0,1
14:16:46:959526,-3,-2,-8,-1,9,6,0,1
14:16:46:965521,-2,-3,-8,-9,-12,-19,3,-4
14:16:46:972988,-1,-2,0,5,1,-7,-7,-4
14:16:46:980536,-1,-2,0,5,1,-7,-7,-4
14:16:46:988011,-2,-4,-8,-12,-6,-3,-4,6
14:16:46:995462,-4,-2,-3,-6,-10,3,-7,-7
14:16:47:3745,-4,-2,-3,-6,-10,3,-7,-7
14:16:47:4464,2,0,5,4,13,16,7,0
14:16:47:18016,0,1,1,0,-2,2,15,6
14:16:47:26207,0,1,1,0,-2,2,15,6
14:16:47:26952,-1,-1,4,2,-3,-17,-15,-2
14:16:47:33038,-3,-3,-16,-12,0,8,17,-3
14:16:47:40519,-3,-3,-16,-12,0,8,17,-3
14:16:47:48002,-4,1,1,-7,-4,-3,-4,-3
14:16:47:55501,-1,-6,-9,-22,-18,-13,-12,0
14:16:47:63644,-1,-6,-9,-22,-18,-13,-12,0
14:16:47:64404,-2,-3,2,-4,-2,3,3,-1
14:16:47:78629,3,-1,-8,19,21,-2,-2,-1
14:16:47:79427,3,-1,-8,19,21,-2,-2,-1
14:16:47:85574,-1,-3,0,2,-2,4,-2,-3
14:16:47:92988,2,6,20,-1,0,-2,-4,-3
14:16:47:100544,2,6,20,-1,0,-2,-4,-3
14:16:47:107949,-3,-6,-10,2,-2,6,-1,-5
14:16:47:115565,-4,-3,0,3,-1,-4,4,-3
14:16:47:123703,-4,-3,0,3,-1,-4,4,-3
14:16:47:124488,0,-4,-8,-5,-7,-18,-10,-8
14:16:47:138658,-4,-1,-7,-2,2,6,16,1
14:16:47:139480,-4,-1,-7,-2,2,6,16,1
14:16:47:145408,0,-1,-3,0,-1,-1,3,2
14:16:47:152985,3,1,4,2,-10,-13,-16,-2
14:16:47:160473,3,1,4,2,-10,-13,-16,-2
14:16:47:168034,0,1,4,-6,-10,-11,-5,-2
14:16:47:175433,-3,-1,-1,-15,-3,0,-3,3
14:16:47:183692,-3,-1,-1,-15,-3,0,-3,3
14:16:47:184479,-2,-5,-1,6,7,-2,-6,-5
14:16:47:198724,-1,-2,1,12,4,3,-5,2
14:16:47:199454,-1,-2,1,12,4,3,-5,2
14:16:47:205463,-3,-7,-13,-2,-4,3,4,3
14:16:47:212949,-1,-5,-5,-7,-10,-23,-9,-1
14:16:47:220598,-1,-5,-5,-7,-10,-23,-9,-1
14:16:47:227935,0,2,-1,-3,-12,5,2,-1
14:16:47:235500,-2,0,-2,0,12,16,8,-3
14:16:47:243650,-2,0,-2,0,12,16,8,-3
14:16:47:244464,-1,2,7,2,15,7,2,-3
14:16:47:258644,2,-3,0,1,-10,-10,1,-2
14:16:47:259462,2,-3,0,1,-10,-10,1,-2
14:16:47:265518,0,2,1,19,17,16,3,0
14:16:47:272946,-1,-6,-4,7,-1,9,-6,1
14:16:47:280548,-1,-6,-4,7,-1,9,-6,1
14:16:47:288016,-1,1,1,-12,-1,-8,-3,2
14:16:47:295455,-3,-3,-7,-6,-3,3,1,-3
14:16:47:303758,-3,-3,-7,-6,-3,3,1,-3
14:16:47:304451,2,-1,-6,-2,-3,-5,5,6
14:16:47:318013,1,1,5,-9,-11,-9,-15,-3
14:16:47:326212,1,1,5,-9,-11,-9,-15,-3
14:16:47:326974,-1,-2,-1,-2,4,10,9,-1
14:16:47:333013,-3,-3,7,3,-1,-14,-4,-3
14:16:47:340523,-3,-3,7,3,-1,-14,-4,-3
14:16:47:348000,1,-1,3,4,-3,23,15,4
14:16:47:355503,2,4,1,6,12,11,-2,3
14:16:47:363691,2,4,1,6,12,11,-2,3
14:16:47:364436,-5,-6,4,-10,-12,-16,-13,-4
14:16:47:377946,-1,0,5,-5,-3,-4,-1,-3
14:16:47:386176,-1,0,5,-5,-3,-4,-1,-3
14:16:47:386954,-2,-1,-2,-7,-3,-3,-3,-3
14:16:47:392982,0,1,-4,7,15,-6,5,-2
14:16:47:400468,0,1,-4,7,15,-6,5,-2
14:16:47:407961,-1,-1,7,9,3,1,-3,-3
14:16:47:415504,0,-2,-3,-7,-12,-14,-9,-2
14:16:47:423715,0,-2,-3,-7,-12,-14,-9,-2
14:16:47:424459,-1,-2,-14,4,25,9,5,0
14:16:47:438682,-2,2,4,7,-5,1,6,1
14:16:47:439473,-2,2,4,7,-5,1,6,1
14:16:47:445412,0,1,3,-1,-5,-10,-7,-2
14:16:47:453040,-1,-5,-8,1,-1,4,-2,0
14:16:47:460493,-1,-5,-8,1,-1,4,-2,0
14:16:47:467984,-2,-2,-9,-12,-16,-8,-4,-3
14:16:47:475474,-1,1,0,-3,3,14,2,-1
14:16:47:483770,-1,1,0,-3,3,14,2,-1
14:16:47:484475,-4,-5,-2,8,16,-7,0,-2
14:16:47:497952,-3,-1,0,-5,-6,-9,-4,2
14:16:47:506195,-3,-1,0,-5,-6,-9,-4,2
14:16:47:506994,3,3,7,19,5,11,5,5
14:16:47:512982,5,6,7,11,22,27,13,5
14:16:47:520602,5,6,7,11,22,27,13,5
14:16:47:527965,-2,1,2,-10,-15,-12,-6,-9
14:16:47:535544,-3,-2,2,-9,-22,-15,-8,-3
14:16:47:543611,-3,-2,2,-9,-22,-15,-8,-3
14:16:47:544434,-2,4,-2,0,2,3,5,4
14:16:47:557944,-5,-10,-21,1,-1,-6,-6,-3
14:16:47:566279,-5,-10,-21,1,-1,-6,-6,-3
14:16:47:566959,1,1,9,-9,-13,-6,-7,-6
14:16:47:572974,-2,2,8,-14,-10,-9,-5,-3
14:16:47:580569,-2,2,8,-14,-10,-9,-5,-3
14:16:47:588039,-2,-3,-3,2,15,11,6,0
14:16:47:595467,0,-1,-5,-10,-7,-12,-6,-8
14:16:47:603723,0,-1,-5,-10,-7,-12,-6,-8
14:16:47:604476,0,-2,-13,-15,-10,-11,-2,2
14:16:47:618052,0,0,4,5,2,7,3,3
14:16:47:626117,0,0,4,5,2,7,3,3
14:16:47:626893,-1,1,4,6,-8,-8,-6,0
14:16:47:633045,-2,1,3,-7,-1,1,1,-6
14:16:47:640510,-2,1,3,-7,-1,1,1,-6
14:16:47:648022,-2,-2,8,8,1,6,-2,-2
14:16:47:655524,-3,-1,0,16,5,-14,-3,-1
14:16:47:663664,-3,-1,0,16,5,-14,-3,-1
14:16:47:664421,1,-1,-2,-5,-3,1,4,1
14:16:47:677963,-1,-4,2,1,3,8,-2,-2
14:16:47:686184,-1,-4,2,1,3,8,-2,-2
14:16:47:686987,-4,-5,-13,-5,-5,-10,-2,1
14:16:47:692957,-4,-12,-36,0,1,6,5,4
14:16:47:700568,-4,-12,-36,0,1,6,5,4
14:16:47:707936,1,1,2,-6,-4,12,-3,-5
14:16:47:715499,3,9,22,7,-7,-7,0,-1
14:16:47:723677,3,9,22,7,-7,-7,0,-1
14:16:47:724465,1,0,11,6,9,10,3,2
14:16:47:738653,-2,0,6,0,1,-5,-6,-1
14:16:47:739455,-2,0,6,0,1,-5,-6,-1
14:16:47:745426,-1,2,3,-10,-17,-19,-10,-4
14:16:47:752985,-2,2,0,-7,1,8,3,-3
14:16:47:760481,-2,2,0,-7,1,8,3,-3
14:16:47:767954,-6,-12,-33,9,9,-1,2,-2
14:16:47:775439,-3,-10,-33,7,8,-1,-3,-1
14:16:47:783682,-3,-10,-33,7,8,-1,-3,-1
14:16:47:784446,1,0,4,-4,-4,8,-5,1
14:16:47:798789,5,6,16,4,19,18,11,4
14:16:47:799491,5,6,16,4,19,18,11,4
14:16:47:805472,-2,1,-2,-11,-12,-8,-9,-5
14:16:47:821255,-5,-2,5,-7,-10,0,8,-1
14:16:47:821959,-5,-2,5,-7,-10,0,8,-1
14:16:47:827924,2,4,10,0,2,-6,2,1
14:16:47:835535,1,8,14,-2,-11,-11,-3,-2
14:16:47:843040,1,8,14,-2,-11,-11,-3,-2
14:16:47:850462,-6,-2,12,-2,-5,-4,-7,0
14:16:47:858670,2,0,14,9,0,-3,-8,-1
14:16:47:859499,2,0,14,9,0,-3,-8,-1
14:16:47:865551,-1,-8,-10,5,10,2,2,-3
14:16:47:881188,-2,1,-2,-9,-6,9,-1,-2
14:16:47:881961,-2,1,-2,-9,-6,9,-1,-2
14:16:47:888069,2,6,8,0,-4,-3,2,-1
14:16:47:895439,-1,-5,-11,-2,3,6,2,-1
14:16:47:903130,-1,-5,-11,-2,3,6,2,-1
14:16:47:910426,0,2,-10,-3,-6,-13,0,3
14:16:47:918023,3,3,0,-2,-3,2,-2,1
14:16:47:926165,3,3,0,-2,-3,2,-2,1
14:16:47:926900,-2,-4,-9,-5,-5,-2,-11,-3
14:16:47:941162,-7,-20,-34,-10,-7,-10,4,-4
14:16:47:941997,-7,-20,-34,-10,-7,-10,4,-4
14:16:47:948024,0,1,0,-8,-5,-1,-1,-6
14:16:47:955510,6,5,9,-4,-3,-7,-1,5
14:16:47:962979,6,5,9,-4,-3,-7,-1,5
14:16:47:970552,-4,-2,-12,-9,-3,-12,1,-1
14:16:47:977949,0,-1,-11,7,20,1,0,2
14:16:47:986202,0,-1,-11,7,20,1,0,2
14:16:47:986963,-4,-7,-14,-6,-2,7,5,0
14:16:48:1190,-4,-3,-5,-6,-13,-17,-14,-3
14:16:48:1968,-4,-3,-5,-6,-13,-17,-14,-3
14:16:48:7986,-2,-7,-18,-1,-7,-6,-7,-2
14:16:48:15582,-3,-3,-5,-3,1,3,7,1
14:16:48:23017,-3,-3,-5,-3,1,3,7,1
14:16:48:30438,2,2,12,9,0,4,2,0
14:16:48:38634,-2,6,8,-6,-4,-1,-6,-6
14:16:48:39436,-2,6,8,-6,-4,-1,-6,-6
14:16:48:45446,-4,-3,-9,0,-1,-15,-4,-4
14:16:48:61126,-2,-3,10,-2,2,-2,-11,-5
14:16:48:61926,-2,-3,10,-2,2,-2,-11,-5
14:16:48:67975,3,7,13,-12,-10,-1,8,1
14:16:48:75450,0,-2,1,4,-5,6,4,-1
14:16:48:83117,0,-2,1,4,-5,6,4,-1
14:16:48:90462,-3,-1,-7,2,5,-1,0,1
14:16:48:98777,-3,-6,-33,-15,-12,-1,-10,-4
14:16:48:99465,-3,-6,-33,-15,-12,-1,-10,-4
14:16:48:105464,3,4,13,7,1,0,-7,0
14:16:48:121234,0,6,11,14,-1,5,1,-2
14:16:48:121977,0,6,11,14,-1,5,1,-2
14:16:48:127917,-1,-6,-4,-9,-9,17,-3,-1
14:16:48:135496,3,3,26,12,8,14,6,3
14:16:48:143053,3,3,26,12,8,14,6,3
14:16:48:150462,4,10,29,3,2,-2,4,2
14:16:48:158689,1,2,-2,7,9,-2,2,1
14:16:48:159514,1,2,-2,7,9,-2,2,1
14:16:48:165517,-1,3,-4,5,2,5,0,-1
14:16:48:181206,-2,4,20,4,1,-7,-2,-1
14:16:48:181955,-2,4,20,4,1,-7,-2,-1
14:16:48:188048,3,5,28,16,6,-2,-1,0
14:16:48:195429,-5,-16,-26,8,7,1,6,2
14:16:48:203086,-5,-16,-26,8,7,1,6,2
14:16:48:210435,0,-5,5,-3,7,2,2,-4
14:16:48:218031,0,0,-8,-1,-12,-15,-3,-5
14:16:48:226154,0,0,-8,-1,-12,-15,-3,-5
14:16:48:226897,-1,-1,-21,7,7,-5,10,5
14:16:48:241191,2,4,-5,-6,0,-3,6,4
14:16:48:241958,2,4,-5,-6,0,-3,6,4
14:16:48:248036,-1,-3,0,-3,5,11,2,-1
14:16:48:255473,-1,4,11,6,0,-9,-3,-2
14:16:48:262989,-1,4,11,6,0,-9,-3,-2
14:16:48:270586,0,-4,-22,-14,-12,-8,-2,6
14:16:48:277985,1,0,-8,-2,2,3,0,1
14:16:48:286236,1,0,-8,-2,2,3,0,1
14:16:48:286973,-1,-3,-21,7,-10,-1,-5,-3
14:16:48:301210,3,10,47,-1,7,12,-3,-1
14:16:48:301980,3,10,47,-1,7,12,-3,-1
14:16:48:307973,3,8,39,22,21,21,13,4
14:16:48:323708,-10,-12,-49,-41,-22,-18,-11,-9
14:16:48:324491,-10,-12,-49,-41,-22,-18,-11,-9
14:16:48:330533,-5,-1,28,0,2,1,-5,-7
14:16:48:338065,-3,-8,-3,2,-2,-1,1,-3
14:16:48:346139,-3,-8,-3,2,-2,-1,1,-3
14:16:48:346915,-2,-12,-26,-20,-12,-11,-5,-4
14:16:48:361554,-3,-3,13,-8,-3,1,-1,1
14:16:48:368762,-3,-3,13,-8,-3,1,-1,1
14:16:48:369474,-1,5,11,1,-1,-6,-7,-4
14:16:48:375475,2,-1,-4,2,-8,2,-4,2
14:16:48:383071,2,-1,-4,2,-8,2,-4,2
14:16:48:390490,-9,-14,-13,-11,3,-5,-4,-4
14:16:48:398014,-4,-1,-3,-21,-13,0,-1,-3
14:16:48:406165,-4,-1,-3,-21,-13,0,-1,-3
14:16:48:406959,-1,4,-1,3,-7,-8,-5,-1
14:16:48:421155,1,-1,2,-4,-8,-10,-4,-1
14:16:48:421979,1,-1,2,-4,-8,-10,-4,-1
14:16:48:427959,0,0,-5,1,1,-3,-3,0
14:16:48:435576,-3,-4,6,-5,4,6,3,0
14:16:48:442984,-3,-4,6,-5,4,6,3,0
14:16:48:450445,-1,-5,-13,-11,-7,-6,-4,-5
14:16:48:457940,3,3,3,7,7,2,3,3
14:16:48:466201,3,3,3,7,7,2,3,3
14:16:48:466956,-3,-11,-64,5,-4,-4,-3,-2
14:16:48:481140,0,1,13,1,-6,-5,0,-4
14:16:48:481953,0,1,13,1,-6,-5,0,-4
14:16:48:488019,-2,-10,-32,-17,0,0,1,1
14:16:48:495441,10,-9,-22,9,14,1,-2,1
14:16:48:503084,10,-9,-22,9,14,1,-2,1
14:16:48:510425,-7,-3,36,-20,-3,4,0,-2
14:16:48:517980,-2,10,45,26,10,3,-3,6
14:16:48:526164,-2,10,45,26,10,3,-3,6
14:16:48:526960,2,11,27,-47,-12,-7,-6,-15
14:16:48:541133,-17,-4,-7,-7,-2,-1,-11,-5
14:16:48:541943,-17,-4,-7,-7,-2,-1,-11,-5
14:16:48:548023,-30,-2,2,22,3,0,6,-10
14:16:48:555426,-1,-6,-22,7,7,8,69,27
14:16:48:563026,-1,-6,-22,7,7,8,69,27
14:16:48:570548,14,12,10,8,-1,1,-6,-1
14:16:48:577931,-13,-4,-13,-12,0,-2,-18,-19
14:16:48:586279,-13,-4,-13,-12,0,-2,-18,-19
14:16:48:586952,13,4,25,34,-6,-5,-1,5
14:16:48:601232,3,11,32,-6,8,26,-2,4
14:16:48:602011,3,11,32,-6,8,26,-2,4
14:16:48:607984,-2,-7,-12,9,9,2,-7,3
14:16:48:615545,-4,-25,-36,-16,-11,-14,-7,-8
14:16:48:623036,-4,-25,-36,-16,-11,-14,-7,-8
14:16:48:630498,-3,-8,9,5,-12,-3,3,3
14:16:48:638653,-5,2,-17,-7,-7,-10,-13,-7
14:16:48:639446,-5,2,-17,-7,-7,-10,-13,-7
14:16:48:645455,5,18,11,3,4,1,-2,-2
14:16:48:661139,8,12,-9,-1,-4,-6,-10,-3
14:16:48:661936,8,12,-9,-1,-4,-6,-10,-3
14:16:48:668045,-10,-5,0,-11,-5,2,11,0
14:16:48:675478,-2,-35,-31,3,-7,-7,-2,-3
14:16:48:683056,-2,-35,-31,3,-7,-7,-2,-3
14:16:48:690512,7,-12,-22,11,-1,-1,-7,1
14:16:48:698711,-1,8,9,-2,8,0,-1,-7
14:16:48:699490,-1,8,9,-2,8,0,-1,-7
14:16:48:705488,2,3,-2,-3,2,4,-2,1
14:16:48:721257,0,12,8,-8,-17,-11,-4,-1
14:16:48:721973,0,12,8,-8,-17,-11,-4,-1
14:16:48:727964,-16,-10,-9,-4,2,1,3,18
14:16:48:735593,-3,-12,-13,0,1,-7,-17,-25
14:16:48:742992,-3,-12,-13,0,1,-7,-17,-25
14:16:48:750459,6,12,-2,13,26,14,0,-17
14:16:48:758665,-13,-7,-24,1,6,6,18,8
14:16:48:759449,-13,-7,-24,1,6,6,18,8
14:16:48:772963,2,-5,-6,-18,-21,-16,2,-2
14:16:48:781148,5,6,30,26,34,9,-5,0
14:16:48:781959,5,6,30,26,34,9,-5,0
14:16:48:788016,7,19,54,6,9,6,5,6
14:16:48:803679,8,9,11,-22,-14,-5,-5,4
14:16:48:804419,8,9,11,-22,-14,-5,-5,4
14:16:48:810393,-2,-19,-21,-25,-13,1,-4,-1
14:16:48:818716,8,15,55,14,-3,0,-1,6
14:16:48:819422,8,15,55,14,-3,0,-1,6
14:16:48:833051,2,9,17,13,5,-4,3,0
14:16:48:841205,-22,9,0,-20,-7,-3,2,11
14:16:48:841971,-22,9,0,-20,-7,-3,2,11
14:16:48:847982,-11,-2,28,15,0,-6,1,1
14:16:48:863636,2,-5,-25,3,-12,2,-14,-17
14:16:48:864404,2,-5,-25,3,-12,2,-14,-17
14:16:48:870550,8,16,-10,0,19,-1,-13,1
14:16:48:878644,8,-19,2,23,27,25,9,-16
14:16:48:879421,8,-19,2,23,27,25,9,-16
14:16:48:893005,6,3,-6,2,26,7,0,0
14:16:48:901155,3,18,-5,7,13,-2,-5,14
14:16:48:901948,3,18,-5,7,13,-2,-5,14
14:16:48:907981,-16,-19,-2,-7,-14,-15,-16,-9
14:16:48:923633,4,9,5,-2,-9,-5,2,7
14:16:48:924438,4,9,5,-2,-9,-5,2,7
14:16:48:930456,-8,-17,1,4,-13,-16,-4,-4
14:16:48:938630,3,5,-6,-20,-3,-4,10,16
14:16:48:939438,3,5,-6,-20,-3,-4,10,16
14:16:48:953020,12,14,-2,-25,-4,8,13,2
14:16:48:961088,1,-8,-19,-29,-24,-6,-7,-5
14:16:48:961911,1,-8,-19,-29,-24,-6,-7,-5
14:16:48:968005,-7,-14,-39,28,-11,-2,0,-24
14:16:48:983685,-1,1,-1,-19,-37,-24,-28,-5
14:16:48:984477,-1,1,-1,-19,-37,-24,-28,-5
14:16:48:990481,-3,0,0,8,-12,-5,4,24
14:16:48:998681,-9,-26,-15,-3,30,25,11,15
14:16:48:999406,-9,-26,-15,-3,30,25,11,15
14:16:49:12932,0,-8,-4,-7,-19,-10,-8,-4
14:16:49:21309,0,-8,-4,-7,-19,-10,-8,-4
14:16:49:21988,2,-1,1,-1,-14,-17,1,-10
14:16:49:27937,10,16,-1,-16,32,23,10,6
14:16:49:43676,10,16,-1,-16,32,23,10,6
14:16:49:44479,5,-5,-6,3,-7,-10,-10,1
14:16:49:50426,4,3,14,8,-17,-11,3,22
14:16:49:66202,4,3,14,8,-17,-11,3,22
14:16:49:66931,-12,4,13,-3,-30,-12,-13,-58
14:16:49:72929,-8,-7,-4,-29,-11,6,-5,-7
14:16:49:81188,-8,-7,-4,-29,-11,6,-5,-7
14:16:49:81996,2,-7,2,28,59,15,28,36
14:16:49:88049,4,5,-32,-20,5,18,8,3
14:16:49:103770,4,5,-32,-20,5,18,8,3
14:16:49:104476,-3,-9,-12,-5,-32,-10,-6,-12
14:16:49:110409,2,0,-15,1,7,-16,-7,-3
14:16:49:126186,2,0,-15,1,7,-16,-7,-3
14:16:49:126938,-1,-9,-36,-6,-9,10,3,12
14:16:49:132991,-15,-9,-31,-4,6,-9,-16,-26
14:16:49:141188,-15,-9,-31,-4,6,-9,-16,-26
14:16:49:141960,-8,-22,25,20,30,6,-20,-7
14:16:49:147991,8,11,17,-3,-27,-2,-5,-3
14:16:49:163695,8,11,17,-3,-27,-2,-5,-3
14:16:49:164455,9,24,36,8,49,50,-5,16
14:16:49:170549,-13,-4,26,33,17,0,3,-21
14:16:49:186238,-13,-4,26,33,17,0,3,-21
14:16:49:186934,-2,7,-12,-12,-13,3,-10,-11
14:16:49:192949,-3,-15,-19,-42,-37,-14,5,29
14:16:49:201277,-3,-15,-19,-42,-37,-14,5,29
14:16:49:201974,-5,16,25,15,9,4,41,8
14:16:49:207943,2,10,3,6,-2,-10,-20,-7
14:16:49:223675,2,10,3,6,-2,-10,-20,-7
14:16:49:224453,-4,-28,11,-32,-51,-23,-8,-2
14:16:49:230423,9,-13,-11,1,-5,9,3,-15
14:16:49:246134,9,-13,-11,1,-5,9,3,-15
14:16:49:246911,0,-9,-21,-6,-9,-26,-9,-24
14:16:49:253012,-7,3,2,6,-6,0,7,22
14:16:49:261129,-7,3,2,6,-6,0,7,22
14:16:49:261923,5,6,-22,24,-4,-9,-4,4
14:16:49:268007,21,16,-4,7,36,-3,-2,10
14:16:49:283682,21,16,-4,7,36,-3,-2,10
14:16:49:284431,-2,-12,-6,-12,-9,4,21,-28
14:16:49:290422,1,-3,13,21,33,38,9,-14
14:16:49:306173,1,-3,13,21,33,38,9,-14
14:16:49:306922,-4,-6,-4,15,-3,-7,-15,19
14:16:49:312972,-10,-23,-20,-47,-38,-13,-1,16
14:16:49:321303,-10,-23,-20,-47,-38,-13,-1,16
14:16:49:322003,-6,-14,-6,-19,-8,10,6,13
14:16:49:327925,-2,22,12,16,0,-15,-9,0
14:16:49:343655,-2,22,12,16,0,-15,-9,0
14:16:49:344395,4,19,7,1,33,-5,8,20
14:16:49:350477,-8,-22,30,31,28,31,9,-7
14:16:49:366229,-8,-22,30,31,28,31,9,-7
14:16:49:366980,-6,-10,2,2,-6,-22,-26,-2
14:16:49:373029,-6,-5,-4,11,50,-2,5,-15
14:16:49:381179,-6,-5,-4,11,50,-2,5,-15
14:16:49:382003,2,11,-12,21,-11,-35,1,5
14:16:49:388104,-3,-4,-7,16,11,28,-9,0
14:16:49:403745,-3,-4,-7,16,11,28,-9,0
14:16:49:404444,10,3,-12,-26,-21,18,-5,1
14:16:49:410435,8,12,-18,-26,-33,-30,-8,-7
14:16:49:426249,8,12,-18,-26,-33,-30,-8,-7
14:16:49:426946,-8,6,-9,11,-11,10,-17,-41
14:16:49:433006,-3,-1,3,-13,-2,24,8,15
14:16:49:441200,-3,-1,3,-13,-2,24,8,15
14:16:49:441978,-9,-7,-31,-8,-13,21,-2,-30
14:16:49:448013,9,14,-4,4,10,5,19,10
14:16:49:463759,9,14,-4,4,10,5,19,10
14:16:49:464492,-3,4,19,-20,20,23,-1,3
14:16:49:470524,-22,-15,-21,-20,-21,-1,9,-1
14:16:49:486250,-22,-15,-21,-20,-21,-1,9,-1
14:16:49:486974,-2,-4,12,27,19,-5,-1,17
14:16:49:492961,-13,-35,-18,-13,-31,-30,-24,-54
14:16:49:501275,-13,-35,-18,-13,-31,-30,-24,-54
14:16:49:502048,1,6,-17,-15,-23,-20,-10,-3
14:16:49:508001,-1,11,8,-18,-39,-59,20,2
14:16:49:523697,-1,11,8,-18,-39,-59,20,2
14:16:49:524482,3,15,34,17,22,-11,9,13
14:16:49:530514,-1,-10,-3,-4,-23,8,-18,-3
14:16:49:538713,-1,-10,-3,-4,-23,8,-18,-3
14:16:49:539500,7,21,16,-2,-5,5,19,36
14:16:49:553022,-6,-2,1,-7,-25,-27,-20,-17
14:16:49:561198,-6,-2,1,-7,-25,-27,-20,-17
14:16:49:561955,0,-13,-26,-2,4,16,1,9
14:16:49:568018,2,4,-4,-10,53,45,12,-21
14:16:49:583729,2,4,-4,-10,53,45,12,-21
14:16:49:584421,1,-2,-14,-23,-28,-14,-25,-22
14:16:49:590517,5,10,29,20,-26,-13,-7,-8
14:16:49:598099,5,10,29,20,-26,-13,-7,-8
14:16:49:605510,1,-4,-6,1,-12,24,21,-10
14:16:49:612951,4,-4,-35,-19,10,-8,-12,16
14:16:49:621262,4,-4,-35,-19,10,-8,-12,16
14:16:49:621948,-8,0,26,14,6,-13,3,6
14:16:49:627943,6,1,10,-14,-6,3,4,32
14:16:49:643661,6,1,10,-14,-6,3,4,32
14:16:49:644448,-7,2,-1,9,37,-13,-4,-11
14:16:49:650470,5,-6,25,20,-10,7,6,10
14:16:49:666252,5,-6,25,20,-10,7,6,10
14:16:49:666958,-7,-12,-16,-19,-49,1,-11,-23
14:16:49:672975,11,15,5,15,49,86,11,6
14:16:49:681226,11,15,5,15,49,86,11,6
14:16:49:681989,-6,-11,-9,29,49,25,1,19
14:16:49:688016,2,-4,-18,9,-2,-10,18,47
14:16:49:703850,2,-4,-18,9,-2,-10,18,47
14:16:49:704509,-10,-15,-14,-21,-7,-20,-17,-9
14:16:49:710439,5,23,-1,13,11,0,-2,-14
14:16:49:726199,5,23,-1,13,11,0,-2,-14
14:16:49:726937,25,0,-27,-11,2,7,9,1
14:16:49:733017,0,8,5,-36,-31,-22,-13,-1
14:16:49:741194,0,8,5,-36,-31,-22,-13,-1
14:16:49:741987,-5,10,18,5,-6,-6,12,-4
14:16:49:755478,0,2,1,20,17,11,1,-13
14:16:49:763729,0,2,1,20,17,11,1,-13
14:16:49:764519,-1,2,22,-1,-21,-16,-1,13
14:16:49:770555,-17,-29,3,12,-1,-24,-7,7
14:16:49:778018,-17,-29,3,12,-1,-24,-7,7
14:16:49:785544,5,4,25,35,14,8,5,14
14:16:49:793022,-3,3,-2,-3,-4,-49,-12,-3
14:16:49:801307,-3,3,-2,-3,-4,-49,-12,-3
14:16:49:802035,8,6,-5,-9,28,9,25,32
14:16:49:815575,-7,6,0,-25,-29,0,-15,-8
14:16:49:823724,-7,6,0,-25,-29,0,-15,-8
14:16:49:824478,-6,-9,4,-9,17,-2,-16,-21
14:16:49:830474,-8,-4,-4,4,37,25,13,5
14:16:49:838100,-8,-4,-4,4,37,25,13,5
14:16:49:845486,0,6,16,-17,-27,-2,-24,-60
14:16:49:853058,11,0,6,9,-22,-5,1,-20
14:16:49:861170,11,0,6,9,-22,-5,1,-20
14:16:49:861956,-1,-5,-11,1,9,11,7,-11
14:16:49:875455,-3,-12,4,9,-2,14,-4,-4
14:16:49:883745,-3,-12,4,9,-2,14,-4,-4
14:16:49:884459,-2,-5,-20,-31,-29,-20,-10,-1
14:16:49:890498,-4,-2,-2,4,20,8,11,1
14:16:49:897995,-4,-2,-2,4,20,8,11,1
14:16:49:905469,-3,6,24,26,11,-26,-10,-9
14:16:49:913015,2,0,4,15,28,-26,16,-2
14:16:49:921261,2,0,4,15,28,-26,16,-2
14:16:49:921972,3,11,-12,21,-32,-25,-4,7
14:16:49:935551,4,4,31,25,-4,35,-19,-40
14:16:49:943631,4,4,31,25,-4,35,-19,-40
14:16:49:944396,-21,-13,1,-23,-33,-1,-10,-18
14:16:49:950431,-7,-6,-12,1,-24,-19,-6,0
14:16:49:958038,-7,-6,-12,1,-24,-19,-6,0
14:16:49:965489,16,19,41,4,-15,-14,1,20
14:16:49:972994,-9,-14,-11,-7,-4,-6,-14,-19
14:16:49:981177,-9,-14,-11,-7,-4,-6,-14,-19
14:16:49:981951,-3,-10,-21,0,24,12,6,4
14:16:49:995434,9,5,-13,-8,-3,-16,-7,2
14:16:50:3700,9,5,-13,-8,-3,-16,-7,2
14:16:50:4424,6,-1,-20,4,46,33,6,14
14:16:50:10375,-7,-20,2,-15,-33,7,-7,-4
14:16:50:18060,-7,-20,2,-15,-33,7,-7,-4
14:16:50:25458,6,3,3,5,25,28,11,14
14:16:50:33044,-6,14,-13,-10,33,-18,26,14
14:16:50:41220,-6,14,-13,-10,33,-18,26,14
14:16:50:41932,1,-5,-6,4,-5,-18,4,13
14:16:50:55394,-1,1,-2,11,6,-3,-14,-45
14:16:50:63690,-1,1,-2,11,6,-3,-14,-45
14:16:50:64436,-2,-1,-20,9,19,7,8,5
14:16:50:70537,-4,9,18,6,3,-25,4,28
14:16:50:78041,-4,9,18,6,3,-25,4,28
14:16:50:85549,-1,2,-12,1,-16,7,-7,-35
14:16:50:92947,-5,-21,-39,-16,-9,-18,-6,1
14:16:50:101114,-5,-21,-39,-16,-9,-18,-6,1
14:16:50:101956,1,0,11,1,-44,-54,-1,-1
14:16:50:115541,18,21,46,23,2,38,18,44
14:16:50:131898,18,21,46,23,2,38,18,44
14:16:50:132657,-7,-3,11,-19,-24,-15,-5,20
14:16:50:133443,-8,-2,7,-4,-27,-9,-21,-2
14:16:50:138056,-8,-2,7,-4,-27,-9,-21,-2
14:16:50:145435,4,2,-3,16,63,-12,14,-20
14:16:50:153069,0,4,5,-18,-12,-2,7,4
14:16:50:161218,0,4,5,-18,-12,-2,7,4
14:16:50:161961,-1,-2,-2,-18,-44,-18,-19,-13
14:16:50:175470,-1,-12,-21,11,41,-11,-4,-20
14:16:50:183742,-1,-12,-21,11,41,-11,-4,-20
14:16:50:184491,0,-1,1,5,2,-11,-1,27
14:16:50:190489,4,6,3,11,11,24,-9,19
14:16:50:198061,4,6,3,11,11,24,-9,19
14:16:50:205487,0,4,9,-2,40,1,-5,12
14:16:50:213002,-3,2,1,22,24,-8,46,2
14:16:50:221232,-3,2,1,22,24,-8,46,2
14:16:50:221947,-4,-10,12,-15,-40,-1,7,0
14:16:50:235491,-14,-19,-26,-42,-34,3,-19,-3
14:16:50:243665,-14,-19,-26,-42,-34,3,-19,-3
14:16:50:244466,-6,4,9,-7,-4,14,-19,-9
14:16:50:250445,12,6,12,-4,20,28,-5,-15
14:16:50:258002,12,6,12,-4,20,28,-5,-15
14:16:50:265569,-7,-10,-27,3,-34,24,3,7
14:16:50:272977,-4,-4,-11,8,6,-21,-10,-21
14:16:50:281203,-4,-4,-11,8,6,-21,-10,-21
14:16:50:281923,-8,-4,-11,-21,0,6,-23,-41
14:16:50:295475,-3,-8,-17,-16,-17,37,-3,-7
14:16:50:303739,-3,-8,-17,-16,-17,37,-3,-7
14:16:50:304465,-5,-22,-22,7,9,14,23,12
14:16:50:310467,0,7,9,6,12,-21,7,29
14:16:50:318039,0,7,9,6,12,-21,7,29
14:16:50:325458,2,8,-1,-9,-16,2,7,6
14:16:50:333018,-6,-2,-2,13,0,11,-1,0
14:16:50:341167,-6,-2,-2,13,0,11,-1,0
14:16:50:341948,3,-3,1,16,41,-5,3,7
14:16:50:355514,-3,14,12,-13,-15,9,6,-6
14:16:50:363671,-3,14,12,-13,-15,9,6,-6
14:16:50:364424,-7,-3,-5,-2,-37,-35,-1,-50
14:16:50:370506,-1,-4,-11,-3,-50,-61,-15,-1
14:16:50:377988,-1,-4,-11,-3,-50,-61,-15,-1
14:16:50:393631,20,22,14,23,22,42,-2,-4
14:16:50:394402,-5,-7,6,-1,-24,-31,-18,-3
14:16:50:401173,-5,-7,6,-1,-24,-31,-18,-3
14:16:50:401952,-4,-10,0,-14,17,-22,18,46
14:16:50:415524,-5,3,9,-15,0,-2,-4,-14
14:16:50:423650,-5,3,9,-15,0,-2,-4,-14
14:16:50:424460,-1,9,-17,-5,7,1,-16,1
14:16:50:430468,7,1,-2,56,34,-11,10,26
14:16:50:438010,7,1,-2,56,34,-11,10,26
14:16:50:445435,-4,-5,-5,-23,14,19,8,6
14:16:50:453076,-2,-3,-15,-10,3,4,-2,-17
14:16:50:461155,-2,-3,-15,-10,3,4,-2,-17
14:16:50:461975,-3,-11,-7,3,3,-9,-16,-34
14:16:50:475504,-3,-17,-20,-38,-28,56,-23,-33
14:16:50:483668,-3,-17,-20,-38,-28,56,-23,-33
14:16:50:484450,0,14,9,31,17,13,23,13
14:16:50:490415,-2,-4,-23,-15,-21,5,21,7
14:16:50:498061,-2,-4,-23,-15,-21,5,21,7
14:16:50:505416,-4,0,13,15,3,-8,5,-12
14:16:50:512946,4,18,32,2,-11,-5,-7,20
14:16:50:521648,4,18,32,2,-11,-5,-7,20
14:16:50:521947,0,-6,21,13,10,-18,-9,27
14:16:50:535483,7,1,10,-5,32,-20,-3,2
14:16:50:543625,7,1,10,-5,32,-20,-3,2
14:16:50:544422,-20,-21,-35,-8,-7,1,-22,-31
14:16:50:550445,-5,-8,-30,23,11,-26,-4,3
14:16:50:558032,-5,-8,-30,23,11,-26,-4,3
14:16:50:565523,1,6,-8,-20,-6,18,-5,3
14:16:50:572954,-13,-8,-8,-14,29,77,8,-18
14:16:50:581238,-13,-8,-8,-14,29,77,8,-18
14:16:50:581941,12,9,7,-24,-39,35,12,34
14:16:50:595438,6,12,4,7,14,-3,6,7
14:16:50:603860,6,12,4,7,14,-3,6,7
14:16:50:604500,-3,-10,-2,-28,-53,-54,-1,-29
14:16:50:610416,5,0,24,23,-1,16,0,1
14:16:50:618092,5,0,24,23,-1,16,0,1
14:16:50:625479,-7,12,21,-5,-7,5,-15,-47
14:16:50:633033,1,-10,-8,-9,-12,-42,6,21
14:16:50:640531,1,-10,-8,-9,-12,-42,6,21
14:16:50:648005,0,-10,-34,4,16,-5,-8,6
14:16:50:655484,0,-9,1,-10,7,6,5,24
14:16:50:663700,0,-9,1,-10,7,6,5,24
14:16:50:664457,8,-4,-6,-16,-61,-36,-6,4
14:16:50:678603,4,5,-7,8,11,7,-13,-15
14:16:50:679405,4,5,-7,8,11,7,-13,-15
14:16:50:685632,-5,-15,-16,52,50,51,21,12
14:16:50:692983,0,5,-3,-31,-38,-41,13,5
14:16:50:700489,0,5,-3,-31,-38,-41,13,5
14:16:50:707959,-7,6,20,5,-6,-16,-18,18
14:16:50:715492,0,-9,9,4,11,4,1,22
14:16:50:723694,0,-9,9,4,11,4,1,22
14:16:50:724453,4,6,10,-3,3,-2,2,12
14:16:50:738666,-3,2,31,6,1,-23,-7,13
14:16:50:739459,-3,2,31,6,1,-23,-7,13
14:16:50:745468,0,-2,16,4,32,-15,-1,-1
14:16:50:753033,1,-7,-19,2,17,49,17,14
14:16:50:760512,1,-7,-19,2,17,49,17,14
14:16:50:768041,5,-5,-33,-17,-24,-45,-19,2
14:16:50:775491,3,-5,-36,-27,-52,-37,-15,-8
14:16:50:783706,3,-5,-36,-27,-52,-37,-15,-8
14:16:50:784487,-2,4,17,-12,19,-13,10,1
14:16:50:798731,-4,-9,-10,18,13,-2,20,-5
14:16:50:799453,-4,-9,-10,18,13,-2,20,-5
14:16:50:805460,-3,-3,0,-4,-16,10,-8,-22
14:16:50:812976,-2,10,12,-16,-31,14,2,1
14:16:50:820575,-2,10,12,-16,-31,14,2,1
14:16:50:827948,-5,0,25,12,9,-14,6,21
14:16:50:835529,-5,1,20,-11,-9,-18,-15,-47
14:16:50:843665,-5,1,20,-11,-9,-18,-15,-47
14:16:50:844444,-1,4,18,-37,-11,51,-22,5
14:16:50:858702,9,11,14,5,41,54,8,-11
14:16:50:859482,9,11,14,5,41,54,8,-11
14:16:50:865607,14,8,-3,-11,3,30,9,-5
14:16:50:873001,-1,-10,-9,-20,0,-11,-2,18
14:16:50:880599,-1,-10,-9,-20,0,-11,-2,18
14:16:50:888058,-10,-4,-7,19,9,6,-6,-6
14:16:50:895431,-5,5,-8,7,-1,-32,-21,-7
14:16:50:903724,-5,5,-8,7,-1,-32,-21,-7
14:16:50:904427,0,-5,11,18,-15,-2,7,-29
14:16:50:918672,-3,0,20,82,48,-4,-6,-2
14:16:50:919450,-3,0,20,82,48,-4,-6,-2
14:16:50:925466,3,-5,-46,-14,-20,4,17,-5
14:16:50:932986,-8,-16,-18,-3,-52,-19,-11,-4
14:16:50:940505,-8,-16,-18,-3,-52,-19,-11,-4
14:16:50:947989,-1,-6,-8,7,20,16,-7,-3
14:16:50:955489,-5,2,2,-27,-37,-5,-21,-38
14:16:50:963701,-5,2,2,-27,-37,-5,-21,-38
14:16:50:964461,6,-11,9,4,14,-12,33,46
14:16:50:978624,-1,-3,1,-19,13,-40,7,4
14:16:50:979425,-1,-3,1,-19,13,-40,7,4
14:16:50:985617,-10,3,-10,12,-21,-5,-19,-12
14:16:50:993077,1,-3,-22,3,8,16,-9,-4
14:16:51:505,1,-3,-22,3,8,16,-9,-4
14:16:51:7985,-5,1,-13,-6,-12,-65,-9,4
14:16:51:15577,10,21,36,-15,-3,14,7,7
14:16:51:23696,10,21,36,-15,-3,14,7,7
14:16:51:24452,-2,0,-6,-11,50,77,9,4
14:16:51:38690,-9,0,-4,7,-36,14,-3,-9
14:16:51:39467,-9,0,-4,7,-36,14,-3,-9
14:16:51:45412,11,11,18,10,18,13,3,16
14:16:51:53052,-3,-3,3,-9,-6,23,1,11
14:16:51:60487,-3,-3,3,-9,-6,23,1,11
14:16:51:68010,-7,-1,-34,-32,-23,-20,-30,-53
14:16:51:75469,0,-8,-5,7,15,2,14,7
14:16:51:83700,0,-8,-5,7,15,2,14,7
14:16:51:84456,2,-1,-15,-2,29,-25,33,34
14:16:51:98734,-2,-1,-11,2,10,-14,11,25
14:16:51:99485,-2,-1,-11,2,10,-14,11,25
14:16:51:105463,-18,0,9,-16,-5,-3,-27,-31
14:16:51:112972,-3,-3,-6,7,39,11,-4,-12
14:16:51:120636,-3,-3,-6,7,39,11,-4,-12
14:16:51:127941,13,-6,6,14,-14,4,-9,4
14:16:51:135582,1,-2,-11,-38,-30,-14,-11,1
14:16:51:143688,1,-2,-11,-38,-30,-14,-11,1
14:16:51:144458,-8,-4,13,-7,-13,8,17,11
14:16:51:158730,3,-14,-7,-8,-4,13,16,25
14:16:51:159528,3,-14,-7,-8,-4,13,16,25
14:16:51:165560,3,7,-15,-37,-49,-27,-9,15
14:16:51:173004,-6,-8,0,7,12,1,-20,-11
14:16:51:180583,-6,-8,0,7,12,1,-20,-11
14:16:51:188074,2,0,-11,14,31,-1,7,-1
14:16:51:195485,-1,8,-20,-2,2,-47,-22,-4
14:16:51:203757,-1,8,-20,-2,2,-47,-22,-4
14:16:51:204461,4,3,38,32,-15,22,20,21
14:16:51:218697,-1,-15,-32,-5,-17,34,-2,-23
14:16:51:219424,-1,-15,-32,-5,-17,34,-2,-23
14:16:51:225450,-4,-9,-3,-8,-41,-20,-3,11
14:16:51:232999,-10,3,10,7,7,1,1,-6
14:16:51:240519,-10,3,10,7,7,1,1,-6
14:16:51:248055,-10,-6,-2,-6,-6,29,-12,-13
14:16:51:255508,-10,-21,5,21,46,4,-23,-49
14:16:51:263653,-10,-21,5,21,46,4,-23,-49
14:16:51:264451,5,1,-12,5,6,-5,-3,-7
14:16:51:278624,2,20,-5,-45,-34,-26,-6,22
14:16:51:279483,2,20,-5,-45,-34,-26,-6,22
14:16:51:293612,-1,-4,24,44,55,34,16,-15
14:16:51:294365,10,3,3,-5,-3,-31,4,-14
14:16:51:300538,10,3,3,-5,-3,-31,4,-14
14:16:51:307990,5,7,5,-21,-9,-9,-13,10
14:16:51:315556,-14,-2,11,20,-12,33,17,-5
14:16:51:323668,-14,-2,11,20,-12,33,17,-5
14:16:51:324447,-1,-13,11,8,25,-34,-6,9
14:16:51:338638,-2,-1,5,-9,-5,-7,-1,15
14:16:51:339458,-2,-1,5,-9,-5,-7,-1,15
14:16:51:345449,-11,1,-16,-4,-6,-9,-8,-16
14:16:51:353037,0,5,13,14,34,20,-11,-5
14:16:51:360447,0,5,13,14,34,20,-11,-5
14:16:51:368061,5,3,-4,-16,3,-16,-6,9
14:16:51:375508,0,1,6,12,-25,-19,-2,-13
14:16:51:383677,0,1,6,12,-25,-19,-2,-13
14:16:51:384448,-2,-2,8,-3,-37,-12,9,12
14:16:51:398737,-12,-7,-7,-27,-36,27,22,15
14:16:51:399430,-12,-7,-7,-27,-36,27,22,15
14:16:51:405440,8,3,3,-1,1,8,-2,-14
14:16:51:412956,12,14,-1,-1,-7,-29,-10,11
14:16:51:420586,12,14,-1,-1,-7,-29,-10,11
14:16:51:427970,-1,9,-11,-5,-14,-5,-12,-34
14:16:51:435503,2,-8,-8,-33,-12,-22,-26,-16
14:16:51:443639,2,-8,-8,-33,-12,-22,-26,-16
14:16:51:444414,-2,2,8,-14,-1,11,7,-4
14:16:51:458682,3,4,-16,7,6,-33,-4,7
14:16:51:459473,3,4,-16,7,6,-33,-4,7
14:16:51:465573,-3,-2,6,2,24,-7,-3,-5
14:16:51:472985,8,-4,8,0,44,9,25,18
14:16:51:480555,8,-4,8,0,44,9,25,18
14:16:51:488080,6,-1,-15,9,-11,1,-32,-65
14:16:51:495457,-5,-10,-21,3,12,-45,11,-22
14:16:51:503748,-5,-10,-21,3,12,-45,11,-22
14:16:51:504485,1,1,-4,-18,-21,-43,22,21
14:16:51:518708,-1,-9,-15,-6,15,40,-1,-5
14:16:51:519453,-1,-9,-15,-6,15,40,-1,-5
14:16:51:525433,-2,-18,-10,-1,38,22,2,12
14:16:51:532995,12,25,43,16,5,21,12,21
14:16:51:540503,12,25,43,16,5,21,12,21
14:16:51:548015,-8,0,-2,4,-26,1,-5,8
14:16:51:555445,-2,-5,-10,-4,0,8,-4,-2
14:16:51:563724,-2,-5,-10,-4,0,8,-4,-2
14:16:51:564486,-2,0,20,3,3,1,-3,6
14:16:51:578648,-7,-2,2,7,-11,27,0,-7
14:16:51:579456,-7,-2,2,7,-11,27,0,-7
14:16:51:585523,-4,-8,-11,24,41,7,-13,35
14:16:51:601184,7,-11,-25,-25,-36,-15,-4,-15
14:16:51:602019,7,-11,-25,-25,-36,-15,-4,-15
14:16:51:607979,-1,-3,-4,-14,-58,-21,-12,-13
14:16:51:615567,-4,-1,21,41,25,6,5,14
14:16:51:623063,-4,-1,21,41,25,6,5,14
14:16:51:630522,-4,-6,-25,8,5,20,12,2
14:16:51:638671,-4,-4,-12,-15,-13,9,-5,4
14:16:51:639450,-4,-4,-12,-15,-13,9,-5,4
14:16:51:645434,-4,-1,4,3,-5,-13,0,-5
14:16:51:661155,-6,7,2,-13,-14,-4,-11,-25
14:16:51:661936,-6,7,2,-13,-14,-4,-11,-25
14:16:51:668027,12,-3,-30,8,31,23,5,-17
14:16:51:675454,-9,-1,-10,3,6,-2,-13,6
14:16:51:682989,-9,-1,-10,3,6,-2,-13,6
14:16:51:690487,7,0,1,8,23,31,16,39
14:16:51:698676,2,4,5,7,-8,-26,24,28
14:16:51:699473,2,4,5,7,-8,-26,24,28
14:16:51:705443,-14,0,-6,-13,15,-1,-11,-29
14:16:51:721220,0,1,-5,-3,7,-21,-14,-15
14:16:51:722023,0,1,-5,-3,7,-21,-14,-15
14:16:51:727953,-2,-2,2,20,1,1,-4,-22
14:16:51:735597,3,9,17,5,3,6,6,-11
14:16:51:742962,3,9,17,5,3,6,6,-11
14:16:51:750463,-4,-4,-43,2,8,-6,-9,-5
14:16:51:758662,-5,-14,-14,-1,-28,2,-1,8
14:16:51:759445,-5,-14,-14,-1,-28,2,-1,8
14:16:51:765551,1,5,-4,-23,-21,8,5,0
14:16:51:781165,4,-3,-5,-3,17,6,-9,-20
14:16:51:782012,4,-3,-5,-3,17,6,-9,-20
14:16:51:788089,-12,-10,28,15,1,12,26,-1
14:16:51:795424,-8,-10,0,-3,-27,-21,3,-12
14:16:51:803127,-8,-10,0,-3,-27,-21,3,-12
14:16:51:810443,4,8,11,-4,0,1,7,12
14:16:51:818730,-7,-1,4,11,12,-44,1,11
14:16:51:819484,-7,-1,4,11,12,-44,1,11
14:16:51:825440,3,-1,9,-7,-16,-32,-19,-11
14:16:51:841171,10,1,-21,-35,-13,26,-9,1
14:16:51:841962,10,1,-21,-35,-13,26,-9,1
14:16:51:847994,-4,-5,20,-7,-14,-9,-1,33
14:16:51:855457,8,7,9,2,11,18,6,21
14:16:51:863015,8,7,9,2,11,18,6,21
14:16:51:870555,-5,-9,4,-14,-19,-2,-16,-27
14:16:51:878640,9,21,29,5,-12,-5,12,4
14:16:51:879454,9,21,29,5,-12,-5,12,4
14:16:51:885555,-1,5,24,-24,4,6,-2,-16
14:16:51:901185,-2,-16,-15,-6,-10,48,-5,-23
14:16:51:902008,-2,-16,-15,-6,-10,48,-5,-23
14:16:51:907965,15,18,-5,37,21,2,4,11
14:16:51:915513,-9,5,4,-6,0,15,3,14
14:16:51:923054,-9,5,4,-6,0,15,3,14
14:16:51:930528,-22,-29,-10,1,7,-16,44,-17
14:16:51:938647,-1,-9,-6,16,10,-9,-3,-50
14:16:51:939446,-1,-9,-6,16,10,-9,-3,-50
14:16:51:945435,4,11,-12,-13,-22,-22,-3,30
14:16:51:961159,-12,1,21,12,4,11,-5,-18
14:16:51:961950,-12,1,21,12,4,11,-5,-18
14:16:51:968031,-3,5,6,4,-16,-22,-19,-2
14:16:51:975478,2,1,11,6,47,11,6,12
14:16:51:983057,2,1,11,6,47,11,6,12
14:16:51:990506,2,2,7,-9,-8,47,2,20
14:16:51:998747,-5,-8,-31,-2,-37,-25,-6,17
14:16:51:999445,-5,-8,-31,-2,-37,-25,-6,17
14:16:52:5425,12,5,8,8,-2,3,-11,-9
14:16:52:21189,0,-10,-4,30,11,5,-2,1
14:16:52:21956,0,-10,-4,30,11,5,-2,1
14:16:52:27975,12,7,-31,-9,8,3,6,20
14:16:52:35568,-7,-11,-12,-33,-33,-33,-3,0
14:16:52:42973,-7,-11,-12,-33,-33,-33,-3,0
14:16:52:50438,-5,-6,16,7,-11,-4,-8,14
14:16:52:58666,6,10,8,-28,4,13,24,37
14:16:52:59469,6,10,8,-28,4,13,24,37
14:16:52:65945,-9,-19,-15,5,-13,-23,-3,-8
14:16:52:81145,-5,-1,5,-22,-37,18,-8,-15
14:16:52:81991,-5,-1,5,-22,-37,18,-8,-15
14:16:52:88053,1,11,13,22,28,-3,-8,-34
14:16:52:95449,3,0,4,2,-18,-18,-9,-8
14:16:52:103061,3,0,4,2,-18,-18,-9,-8
14:16:52:110410,-7,1,-4,-12,9,-16,-11,2
14:16:52:118725,-7,-2,6,29,32,-6,13,2
14:16:52:119456,-7,-2,6,29,32,-6,13,2
14:16:52:125414,-14,-14,-1,-4,5,14,6,-44
14:16:52:141197,-3,-14,12,-3,3,0,-7,2
14:16:52:141983,-3,-14,12,-3,3,0,-7,2
14:16:52:148001,3,8,-4,-13,-23,-13,5,16
14:16:52:155471,6,0,-6,4,-2,-7,5,10
14:16:52:163043,6,0,-6,4,-2,-7,5,10
14:16:52:170530,5,11,28,-27,-7,-1,-4,6
14:16:52:178683,9,11,10,0,-7,32,-1,2
14:16:52:179479,9,11,10,0,-7,32,-1,2
14:16:52:185546,-4,-2,-14,10,36,10,21,31
14:16:52:201160,7,12,17,5,8,1,7,-6
14:16:52:201991,7,12,17,5,8,1,7,-6
14:16:52:208006,-18,-11,-8,-12,-41,-16,-60,-16
14:16:52:215529,-32,-3,-12,-57,-2,-8,-36,-24
14:16:52:223053,-32,-3,-12,-57,-2,-8,-36,-24
14:16:52:230484,-4,-4,-20,2,-15,-21,-1,0
14:16:52:238654,15,14,31,52,5,11,12,7
14:16:52:239432,15,14,31,52,5,11,12,7
14:16:52:245456,-3,10,-8,25,66,-17,0,-10
14:16:52:261111,2,-17,-1,-27,-25,-65,-11,-10
14:16:52:261915,2,-17,-1,-27,-25,-65,-11,-10
14:16:52:268041,8,-4,-25,1,12,30,17,7
14:16:52:275444,8,12,-15,4,10,7,-19,-20
14:16:52:283057,8,12,-15,4,10,7,-19,-20
14:16:52:290481,-3,-4,11,-21,-29,-7,-16,-22
14:16:52:298734,-3,-10,-15,15,12,15,0,2
14:16:52:299445,-3,-10,-15,15,12,15,0,2
14:16:52:305425,-1,3,0,-12,5,15,14,8
14:16:52:321208,-9,0,-1,12,-10,-1,-21,-31
14:16:52:321966,-9,0,-1,12,-10,-1,-21,-31
14:16:52:327949,10,7,17,0,-3,-4,-9,0
14:16:52:343634,10,7,17,0,-3,-4,-9,0
14:16:52:344411,-3,-12,-22,-2,8,1,21,13
14:16:52:350461,-1,-10,2,6,7,40,56,1
14:16:52:358681,-1,-10,2,6,7,40,56,1
14:16:52:359457,-4,9,12,32,37,75,24,9
14:16:52:365567,3,15,26,7,-31,-2,-9,40
14:16:52:381124,3,15,26,7,-31,-2,-9,40
14:16:52:381961,9,-16,-4,4,-13,-10,13,12
14:16:52:388027,-4,12,22,13,3,-5,-10,-42
14:16:52:403803,-4,12,22,13,3,-5,-10,-42
14:16:52:404519,-7,-14,10,-7,-16,-13,-20,5
14:16:52:410406,1,-13,-38,-28,-1,-15,-3,0
14:16:52:418734,1,-13,-38,-28,-1,-15,-3,0
14:16:52:419471,2,7,0,-5,7,-21,-13,-3
14:16:52:425453,0,11,25,11,9,-3,-8,-3
14:16:52:441168,0,11,25,11,9,-3,-8,-3
14:16:52:442001,-2,-3,12,10,21,-9,-2,5
14:16:52:447999,0,-2,0,-8,-21,34,7,16
14:16:52:463669,0,-2,0,-8,-21,34,7,16
14:16:52:464496,-8,-1,-17,-6,27,67,52,20
14:16:52:470530,-1,-8,5,9,13,-1,6,-15
14:16:52:478591,-1,-8,5,9,13,-1,6,-15
14:16:52:479390,0,-1,-8,1,-16,-31,-15,-13
14:16:52:485524,-10,-10,-10,-25,-22,8,3,-7
14:16:52:501215,-10,-10,-10,-25,-22,8,3,-7
14:16:52:501956,-4,3,-3,-6,7,-19,-17,-3
14:16:52:508002,4,0,0,19,25,1,-2,19
14:16:52:523664,4,0,0,19,25,1,-2,19
14:16:52:524437,0,9,0,-19,-7,-10,-27,-27
14:16:52:530458,15,-7,8,-1,16,-13,-9,-13
14:16:52:538711,15,-7,8,-1,16,-13,-9,-13
14:16:52:539463,18,10,11,9,20,-5,0,19
14:16:52:553044,-1,-2,5,-4,-7,-27,-22,1
14:16:52:561182,-1,-2,5,-4,-7,-27,-22,1
14:16:52:561954,-4,-3,-11,4,-13,-16,16,1
14:16:52:568042,-21,-10,-6,8,-15,-28,0,-6
14:16:52:583707,-21,-10,-6,8,-15,-28,0,-6
14:16:52:584442,-6,-1,-12,-2,-2,-31,-15,3
14:16:52:590435,4,-1,-15,4,-4,10,16,0
14:16:52:598780,4,-1,-15,4,-4,10,16,0
14:16:52:599474,4,-3,-6,23,6,-69,17,17
14:16:52:612964,1,6,-3,19,1,14,-6,-3
14:16:52:621186,1,6,-3,19,1,14,-6,-3
14:16:52:621943,-6,-20,-25,-52,-53,-2,-11,-1
14:16:52:627942,-6,-6,-13,-6,4,4,21,2
14:16:52:643662,-6,-6,-13,-6,4,4,21,2
14:16:52:644440,4,9,22,14,17,12,-16,-37
14:16:52:650447,1,-10,-9,-25,-27,-7,-47,-12
14:16:52:658706,1,-10,-9,-25,-27,-7,-47,-12
14:16:52:659471,3,16,2,1,-5,4,-31,-3
14:16:52:672990,-1,-6,-42,-3,30,8,14,14
14:16:52:681141,-1,-6,-42,-3,30,8,14,14
14:16:52:681931,-11,-13,-13,-6,-12,8,3,-3
14:16:52:687997,2,2,24,-14,-11,2,-6,8
14:16:52:703708,2,2,24,-14,-11,2,-6,8
14:16:52:704404,-3,-6,16,6,35,48,24,9
14:16:52:710385,3,5,-12,-2,-11,5,-10,-13
14:16:52:718707,3,5,-12,-2,-11,5,-10,-13
14:16:52:719434,-13,-1,18,-4,-30,2,4,16
14:16:52:733065,-4,2,28,13,3,-4,-13,-16
14:16:52:741180,-4,2,28,13,3,-4,-13,-16
14:16:52:741958,5,7,-22,-37,6,-20,-8,0
14:16:52:747966,-3,2,4,36,18,5,-24,14
14:16:52:763669,-3,2,4,36,18,5,-24,14
14:16:52:764422,11,3,10,12,-13,41,-2,41
14:16:52:770557,-1,0,1,-11,-3,-5,17,-6
14:16:52:778651,-1,0,1,-11,-3,-5,17,-6
14:16:52:779405,-11,-3,-15,4,-16,-11,11,32
14:16:52:792989,-1,-2,32,4,2,-4,-4,18
14:16:52:801151,-1,-2,32,4,2,-4,-4,18
14:16:52:801965,-6,-13,-63,18,26,-11,3,-31
14:16:52:807992,4,1,-28,-17,16,17,17,-3
14:16:52:823613,4,1,-28,-17,16,17,17,-3
14:16:52:824441,-9,-9,7,-9,-46,-14,-17,-37
14:16:52:830496,-11,-16,-21,23,-5,-24,2,-57
14:16:52:838657,-11,-16,-21,23,-5,-24,2,-57
14:16:52:839416,17,1,18,15,33,8,26,12
14:16:52:853021,4,11,9,-7,-26,-20,-8,16
14:16:52:861126,4,11,9,-7,-26,-20,-8,16
14:16:52:861931,-2,-1,8,-12,-23,4,0,16
14:16:52:868051,24,-3,-1,-4,15,-8,-3,23
14:16:52:883720,24,-3,-1,-4,15,-8,-3,23
14:16:52:884479,15,6,-7,-31,0,1,-5,26
14:16:52:890469,-16,3,-12,1,-13,4,-14,-18
14:16:52:898760,-16,3,-12,1,-13,4,-14,-18
14:16:52:899434,2,5,14,-4,7,1,-1,-3
14:16:52:912977,-6,3,14,29,15,-3,9,2
14:16:52:921260,-6,3,14,29,15,-3,9,2
14:16:52:922009,-10,3,23,5,2,-4,2,-13
14:16:52:927962,-6,-2,6,-25,-26,-31,-14,0
14:16:52:943667,-6,-2,6,-25,-26,-31,-14,0
14:16:52:944467,-2,-1,0,4,-6,25,-7,-10
14:16:52:950482,10,6,-10,-19,-11,13,10,2
14:16:52:958696,10,6,-10,-19,-11,13,10,2
14:16:52:959503,6,-7,-13,-25,-5,28,12,13
14:16:52:973028,0,-6,-7,-18,-21,-7,1,32
14:16:52:981195,0,-6,-7,-18,-21,-7,1,32
14:16:52:982005,-19,-11,6,4,-28,-21,-9,-5
14:16:52:988081,-5,-3,-6,31,44,32,32,13
14:16:53:3773,-5,-3,-6,31,44,32,32,13
14:16:53:4477,-6,-8,5,5,35,-21,-31,11
14:16:53:10411,-4,1,4,-19,-26,-6,-12,-13
14:16:53:18775,-4,1,4,-19,-26,-6,-12,-13
14:16:53:19443,-6,2,-11,8,9,22,-15,-27
14:16:53:33052,3,4,9,38,45,24,8,-12
14:16:53:41202,3,4,9,38,45,24,8,-12
14:16:53:41966,-4,-5,-22,-35,43,-3,11,-13
14:16:53:47955,-10,-5,-9,-21,-24,-10,-6,-19
14:16:53:63632,-10,-5,-9,-21,-24,-10,-6,-19
14:16:53:64422,-9,-8,3,12,-26,-12,-9,-3
14:16:53:70474,6,13,0,-4,-4,-2,0,-1
14:16:53:78652,6,13,0,-4,-4,-2,0,-1
14:16:53:79438,-4,-1,-21,13,4,1,-3,-16
14:16:53:92988,-1,-10,5,1,-7,-15,17,5
14:16:53:101219,-1,-10,5,1,-7,-15,17,5
14:16:53:101944,2,-4,12,-9,-2,-3,-13,2
14:16:53:107977,3,5,15,29,33,-13,22,8
14:16:53:123668,3,5,15,29,33,-13,22,8
14:16:53:124440,9,14,22,8,18,10,12,-4
14:16:53:130462,-8,-13,-28,-45,-76,-33,-25,-12
14:16:53:138650,-8,-13,-28,-45,-76,-33,-25,-12
14:16:53:139487,-4,-7,-11,5,-34,15,-9,6
14:16:53:153013,3,-5,-20,12,27,23,16,14
14:16:53:161140,3,-5,-20,12,27,23,16,14
14:16:53:161924,-3,4,-12,-31,-2,8,0,-27
14:16:53:167983,12,0,13,-13,-17,-13,-26,-20
14:16:53:183675,12,0,13,-13,-17,-13,-26,-20
14:16:53:184424,16,-5,-4,8,1,-10,39,22
14:16:53:190447,-6,-7,-12,-20,-32,-11,-32,-26
14:16:53:198776,-6,-7,-12,-20,-32,-11,-32,-26
14:16:53:199409,10,25,28,10,5,-28,8,-14
14:16:53:212991,2,10,5,7,52,46,13,11
14:16:53:221206,2,10,5,7,52,46,13,11
14:16:53:221968,-2,-16,-31,13,4,-4,1,22
14:16:53:227948,-15,1,-6,-16,-20,-10,-14,-16
14:16:53:243643,-15,1,-6,-16,-20,-10,-14,-16
14:16:53:244436,8,6,3,-9,-5,-8,-3,-5
14:16:53:250536,1,1,-6,-30,-1,0,9,55
14:16:53:258667,1,1,-6,-30,-1,0,9,55
14:16:53:259445,-24,-16,7,26,7,-10,17,-17
14:16:53:273002,-18,-18,-14,-13,-54,-40,-8,4
14:16:53:281153,-18,-18,-14,-13,-54,-40,-8,4
14:16:53:282006,7,-2,16,9,4,2,-5,-8
14:16:53:288058,-5,8,-6,19,28,6,-13,-17
14:16:53:303744,-5,8,-6,19,28,6,-13,-17
14:16:53:304447,-9,6,10,9,3,-2,-27,-15
14:16:53:310466,11,1,14,-14,-4,1,7,14
14:16:53:318704,11,1,14,-14,-4,1,7,14
14:16:53:319423,4,15,8,-23,-38,-24,-12,-13
14:16:53:333070,-1,5,15,27,8,5,9,1
14:16:53:341169,-1,5,15,27,8,5,9,1
14:16:53:341981,10,14,16,1,8,12,8,18
14:16:53:347991,-7,7,3,-3,-3,-5,-21,-26
14:16:53:363675,-7,7,3,-3,-3,-5,-21,-26
14:16:53:364441,-4,-8,-4,19,32,27,-3,-9
14:16:53:370551,16,2,0,2,81,6,30,14
14:16:53:378638,16,2,0,2,81,6,30,14
14:16:53:379416,-13,-7,3,-1,-8,-34,-6,-15
14:16:53:393001,-5,-34,-36,-26,-22,-20,-40,-18
14:16:53:401307,-5,-34,-36,-26,-22,-20,-40,-18
14:16:53:401992,0,-2,-12,7,3,18,35,18
14:16:53:408016,4,-2,8,-17,-4,9,6,25
14:16:53:423673,4,-2,8,-17,-4,9,6,25
14:16:53:424458,-9,-24,-22,-16,-1,10,-3,15
14:16:53:430484,4,-4,3,15,-3,4,3,-5
14:16:53:438708,4,-4,3,15,-3,4,3,-5
14:16:53:439464,-1,6,6,-10,7,-17,-3,5
14:16:53:453069,-4,0,13,18,-24,-11,11,20
14:16:53:461200,-4,0,13,18,-24,-11,11,20
14:16:53:461939,4,2,-14,0,18,-20,12,-4
14:16:53:468026,3,13,4,21,6,18,23,-1
14:16:53:483747,3,13,4,21,6,18,23,-1
14:16:53:484501,7,2,17,-17,-50,-50,-42,-6
14:16:53:490474,-15,-7,-2,-4,6,-4,24,-23
14:16:53:498047,-15,-7,-2,-4,6,-4,24,-23
14:16:53:505492,-15,-17,-7,3,10,11,-4,-48
14:16:53:512984,11,12,8,-6,6,28,-4,11
14:16:53:521205,11,12,8,-6,6,28,-4,11
14:16:53:521954,7,20,1,13,-7,-5,-26,-16
14:16:53:535463,-3,3,5,9,9,0,-10,-14
14:16:53:543724,-3,3,5,9,9,0,-10,-14
14:16:53:544422,5,8,8,39,10,-9,9,13
14:16:53:550468,-7,-3,1,-12,-19,-2,-8,-10
14:16:53:557978,-7,-3,1,-12,-19,-2,-8,-10
14:16:53:565564,-2,-10,-33,-22,-50,29,4,30
14:16:53:573017,-7,-12,-25,5,42,14,20,-17
14:16:53:581138,-7,-12,-25,5,42,14,20,-17
14:16:53:581957,-1,-3,-6,-13,10,9,3,21
14:16:53:595431,20,7,6,5,-14,12,-10,33
14:16:53:603727,20,7,6,5,-14,12,-10,33
14:16:53:604438,-11,-15,-18,-11,-3,-1,-5,-10
14:16:53:610427,-15,-3,-7,-12,-24,-18,-9,-25
14:16:53:618037,-15,-3,-7,-12,-24,-18,-9,-25
14:16:53:625421,0,8,17,-32,-11,-20,-12,-36
14:16:53:632934,-5,-1,-2,13,-2,-1,5,-7
14:16:53:641143,-5,-1,-2,13,-2,-1,5,-7
14:16:53:641942,8,13,45,20,30,17,1,4
14:16:53:655482,2,6,6,-7,-7,-14,-9,14
14:16:53:663654,2,6,6,-7,-7,-14,-9,14
14:16:53:664423,3,1,3,5,9,25,30,24
14:16:53:670480,-3,-1,-13,11,19,15,-7,-10
14:16:53:678008,-3,-1,-13,11,19,15,-7,-10
14:16:53:685491,-10,-12,-17,23,19,-13,-9,-12
14:16:53:692976,-4,-1,17,7,-5,-4,-7,-16
14:16:53:701205,-4,-1,17,7,-5,-4,-7,-16
14:16:53:701947,1,6,2,-24,-32,-8,-16,27
14:16:53:715491,12,-11,5,-22,-25,-2,5,-23
14:16:53:723676,12,-11,5,-22,-25,-2,5,-23
14:16:53:724455,-8,-6,2,5,-12,-15,-10,-19
14:16:53:730456,-1,-21,-18,7,-19,8,17,19
14:16:53:738071,-1,-21,-18,7,-19,8,17,19
14:16:53:745430,2,-10,-38,-13,47,12,-3,2
14:16:53:753050,2,0,-10,-6,-13,-9,2,7
14:16:53:761207,2,0,-10,-6,-13,-9,2,7
14:16:53:761963,-6,-8,6,2,-14,-3,-22,0
14:16:53:775447,-3,-1,-9,-30,-42,-17,-6,5
14:16:53:783696,-3,-1,-9,-30,-42,-17,-6,5
14:16:53:784487,7,32,28,23,11,29,21,0
14:16:53:790452,-6,8,12,8,0,-29,-7,1
14:16:53:798044,-6,8,12,8,0,-29,-7,1
14:16:53:805468,-1,7,-20,-12,-14,-12,1,-19
14:16:53:813001,-10,-9,1,24,32,8,-9,8
14:16:53:821215,-10,-9,1,24,32,8,-9,8
14:16:53:821985,4,-11,-11,-6,-2,42,-2,15
14:16:53:836230,17,10,4,21,36,32,55,18
14:16:53:836950,17,10,4,21,36,32,55,18
14:16:53:842951,6,3,-3,3,-4,-6,-5,10
14:16:53:850474,-5,5,-19,-37,-5,-27,1,-12
14:16:53:858011,-5,5,-19,-37,-5,-27,1,-12
14:16:53:865579,-4,-6,21,-26,-13,-23,-16,-8
14:16:53:873010,7,13,-2,3,14,-7,-15,-3
14:16:53:881208,7,13,-2,3,14,-7,-15,-3
14:16:53:882004,-8,-7,-14,-1,13,-22,10,-11
14:16:53:896096,3,-6,4,13,19,8,-15,0
14:16:53:896980,3,-6,4,13,19,8,-15,0
14:16:53:903014,-15,-22,-17,-19,-32,6,6,-13
14:16:53:910435,-4,-4,-2,3,-11,-16,-27,-20
14:16:53:918072,-4,-4,-2,3,-11,-16,-27,-20
14:16:53:925543,-15,-7,6,17,14,14,25,-6
14:16:53:932968,-3,-3,-3,-29,-24,-54,-18,-35
14:16:53:941204,-3,-3,-3,-29,-24,-54,-18,-35
14:16:53:941985,-2,14,0,9,-21,-49,13,7
14:16:53:956154,15,11,17,21,13,34,14,16
14:16:53:956995,15,11,17,21,13,34,14,16
14:16:53:962973,-3,-2,-20,2,3,3,25,12
14:16:53:970470,-12,-6,-1,-9,-16,-17,-8,-11
14:16:53:977975,-12,-6,-1,-9,-16,-17,-8,-11
14:16:53:985517,5,-1,-21,-29,-14,-8,-14,21
14:16:53:992995,-1,-5,-10,-32,5,19,-11,-13
14:16:54:1233,-1,-5,-10,-32,5,19,-11,-13
14:16:54:2014,8,0,-13,-2,0,3,2,17
14:16:54:16185,-2,-2,-19,17,-4,3,-12,-4
14:16:54:16969,-2,-2,-19,17,-4,3,-12,-4
14:16:54:22990,8,0,0,-6,-23,-18,-14,-11
14:16:54:30489,-3,4,2,9,-5,10,-2,8
14:16:54:38078,-3,4,2,9,-5,10,-2,8
14:16:54:45445,-11,-8,0,3,-18,15,7,7
14:16:54:52999,-5,-6,6,10,12,7,5,-29
14:16:54:61193,-5,-6,6,10,12,7,5,-29
14:16:54:61927,9,9,24,-7,-5,-73,11,37
14:16:54:76143,-15,5,8,11,-2,9,50,19
14:16:54:76957,-15,5,8,11,-2,9,50,19
14:16:54:83050,-7,-11,0,9,16,42,5,-33
14:16:54:90413,-4,-10,6,21,10,-6,-2,-31
14:16:54:98004,-4,-10,6,21,10,-6,-2,-31
14:16:54:105482,10,20,19,17,-1,12,-17,-17
14:16:54:112952,-2,0,-6,-13,-14,13,-14,4
14:16:54:121208,-2,0,-6,-13,-14,13,-14,4
14:16:54:121976,-1,-8,-5,-5,-5,-21,-19,7
14:16:54:136171,3,9,12,17,48,34,-5,9
14:16:54:136962,3,9,12,17,48,34,-5,9
14:16:54:142982,7,-8,-21,-2,16,-4,-2,21
14:16:54:150440,9,-11,-11,-21,-30,-45,4,61
14:16:54:158028,9,-11,-11,-21,-30,-45,4,61
14:16:54:165600,-11,-22,-2,-7,-8,4,-9,-4
14:16:54:173036,-22,3,4,6,28,11,-1,-1
14:16:54:181160,-22,3,4,6,28,11,-1,-1
14:16:54:182013,8,10,0,-17,-9,-34,-16,-6
14:16:54:196130,2,2,3,-2,7,2,-6,-14
14:16:54:197001,2,2,3,-2,7,2,-6,-14
14:16:54:203048,3,-2,-12,-14,14,38,8,-7
14:16:54:210445,3,-3,-47,-26,-32,-10,-9,-7
14:16:54:218067,3,-3,-47,-26,-32,-10,-9,-7
14:16:54:225425,0,-1,-10,12,16,4,-6,-31
14:16:54:232992,-3,-5,19,-5,-3,-38,-13,-14
14:16:54:241197,-3,-5,19,-5,-3,-38,-13,-14
14:16:54:241990,3,1,38,26,8,-15,-7,-46
14:16:54:256175,-4,-3,-5,-17,-16,-2,-31,11
14:16:54:257020,-4,-3,-5,-17,-16,-2,-31,11
14:16:54:262966,-2,5,22,25,51,41,40,8
14:16:54:270494,-2,-12,-20,-22,-12,27,-14,-9
14:16:54:277983,-2,-12,-20,-22,-12,27,-14,-9
14:16:54:285571,-1,0,-15,-32,-17,14,-17,6
14:16:54:293027,16,13,14,16,5,12,15,22
14:16:54:301212,16,13,14,16,5,12,15,22
14:16:54:301998,-3,1,-14,-1,18,8,-2,0
14:16:54:316217,2,16,11,-8,-13,-7,-2,-3
14:16:54:316996,2,16,11,-8,-13,-7,-2,-3
14:16:54:322985,-4,8,11,7,-56,-30,-20,1
14:16:54:330463,17,7,51,44,54,1,33,13
14:16:54:338076,17,7,51,44,54,1,33,13
14:16:54:345430,-8,-10,5,-8,-22,-61,-22,-20
14:16:54:353060,10,-14,-12,-38,-26,-15,13,40
14:16:54:361163,10,-14,-12,-38,-26,-15,13,40
14:16:54:361933,-9,-5,17,-19,-34,-20,30,5
14:16:54:376185,10,1,-2,-14,-17,-3,-8,-1
14:16:54:376933,10,1,-2,-14,-17,-3,-8,-1
14:16:54:383020,0,-1,-30,-25,-6,33,-10,13
14:16:54:390471,-5,-14,-5,16,31,51,31,-6
14:16:54:398046,-5,-14,-5,16,31,51,31,-6
14:16:54:405484,7,2,10,57,34,26,14,0
14:16:54:413012,-3,-5,-3,8,12,-11,-25,-1
14:16:54:421221,-3,-5,-3,8,12,-11,-25,-1
14:16:54:421990,-1,2,-4,12,12,-23,-1,14
14:16:54:436206,-11,-10,-6,-5,-18,-22,0,-21
14:16:54:436970,-11,-10,-6,-5,-18,-22,0,-21
14:16:54:442980,6,-2,-15,-31,6,41,1,30
14:16:54:458702,0,5,-2,-16,18,6,-2,-22
14:16:54:459491,0,5,-2,-16,18,6,-2,-22
14:16:54:465572,4,-1,1,15,31,18,-6,-12
14:16:54:473029,-5,-2,2,24,36,29,43,8
14:16:54:480528,-5,-2,2,24,36,29,43,8
14:16:54:488073,-15,-7,-2,7,19,8,16,-6
14:16:54:496115,-12,14,2,-2,-16,8,-24,-9
14:16:54:497015,-12,14,2,-2,-16,8,-24,-9
14:16:54:503086,1,-7,8,13,9,6,-6,14
14:16:54:518679,4,-1,5,-3,15,-1,-18,-9
14:16:54:519456,4,-1,5,-3,15,-1,-18,-9
14:16:54:525506,-5,3,0,-21,4,28,-7,-15
14:16:54:533015,-7,-1,-8,-1,-29,9,-11,-4
14:16:54:540503,-7,-1,-8,-1,-29,9,-11,-4
14:16:54:548088,-8,1,-9,-9,13,-8,0,-17
14:16:54:556131,-10,-15,-37,-10,-14,-3,-10,-23
14:16:54:556962,-10,-15,-37,-10,-14,-3,-10,-23
14:16:54:562910,3,-7,-4,-22,-65,2,-26,-31
14:16:54:578618,2,-2,6,11,24,3,39,18
14:16:54:579418,2,-2,6,11,24,3,39,18
14:16:54:585493,0,15,15,1,-18,-33,13,-8
14:16:54:593003,-14,-19,-18,-18,-47,-38,-34,-12
14:16:54:600504,-14,-19,-18,-18,-47,-38,-34,-12
14:16:54:607929,16,-3,-5,-4,-4,-23,14,38
14:16:54:616172,-2,1,-17,3,-22,-11,2,6
14:16:54:616947,-2,1,-17,3,-22,-11,2,6
14:16:54:622967,-13,-20,11,23,53,19,-9,16
14:16:54:638662,-8,5,25,-2,3,4,-7,-42
14:16:54:639446,-8,5,25,-2,3,4,-7,-42
14:16:54:645403,18,1,29,-15,0,5,10,-7
14:16:54:652997,3,-4,10,7,-26,-16,7,-10
14:16:54:660452,3,-4,10,7,-26,-16,7,-10
14:16:54:668024,-4,16,-2,14,31,6,17,-15
14:16:54:676159,29,5,-25,-8,-11,-18,0,20
14:16:54:676935,29,5,-25,-8,-11,-18,0,20
14:16:54:683011,-6,-15,-36,24,15,-22,-7,21
14:16:54:698736,-3,10,32,10,-14,-2,-8,18
14:16:54:699417,-3,10,32,10,-14,-2,-8,18
14:16:54:705435,-24,-13,-2,13,-50,36,-2,-24
14:16:54:712972,1,-3,10,21,39,15,7,-18
14:16:54:720594,1,-3,10,21,39,15,7,-18
14:16:54:727978,11,5,-14,-22,-50,-19,-1,-4
14:16:54:736204,9,-1,1,0,15,22,3,33
14:16:54:736966,9,-1,1,0,15,22,3,33
14:16:54:750499,-9,-14,-7,-12,-8,-7,-22,-11
14:16:54:758658,-13,-4,-20,-8,-21,-20,-21,6
14:16:54:759492,-13,-4,-20,-8,-21,-20,-21,6
14:16:54:765478,4,18,32,-20,-30,-21,-13,30
14:16:54:773030,11,14,11,-3,-13,-15,2,8
14:16:54:780497,11,14,11,-3,-13,-15,2,8
14:16:54:788005,9,1,-8,-16,11,19,12,4
14:16:54:796098,-17,5,57,12,38,-18,0,-15
14:16:54:796942,-17,5,57,12,38,-18,0,-15
14:16:54:803053,-8,4,-24,-9,12,-20,-9,-12
14:16:54:818706,-16,-17,-41,-10,-11,8,-1,26
14:16:54:819435,-16,-17,-41,-10,-11,8,-1,26
14:16:54:825440,9,4,16,2,-23,-30,14,23
14:16:54:833041,9,-3,17,30,-11,0,29,15
14:16:54:840494,9,-3,17,30,-11,0,29,15
14:16:54:848025,-4,-5,-12,11,37,20,-35,-34
14:16:54:856160,8,2,-13,4,18,2,-12,1
14:16:54:856992,8,2,-13,4,18,2,-12,1
14:16:54:862904,-7,15,18,-7,8,18,7,-47
14:16:54:878627,-23,3,-8,-34,-25,8,1,-5
14:16:54:879421,-23,3,-8,-34,-25,8,1,-5
14:16:54:885493,2,-6,2,21,4,-5,-2,3
14:16:54:892988,-1,-10,5,-15,-22,-12,-17,-8
14:16:54:900523,-1,-10,5,-15,-22,-12,-17,-8
14:16:54:907960,-4,-1,1,10,8,-1,3,0
14:16:54:916215,2,0,-10,10,24,6,-7,-5
14:16:54:916943,2,0,-10,10,24,6,-7,-5
14:16:54:923013,-3,-10,-11,28,13,9,-2,-17
14:16:54:938693,-10,4,-6,-16,-14,-8,-6,-39
14:16:54:939451,-10,4,-6,-16,-14,-8,-6,-39
14:16:54:945418,4,-3,-11,-20,-16,-8,-6,13
14:16:54:953014,-3,-14,14,-23,-24,-18,-4,-6
14:16:54:960478,-3,-14,14,-23,-24,-18,-4,-6
14:16:54:968080,9,3,-9,-22,-1,15,11,20
14:16:54:975479,6,-1,1,30,47,34,14,42
14:16:54:983698,6,-1,1,30,47,34,14,42
14:16:54:984471,3,8,-5,5,-6,-1,11,37
14:16:54:998785,-5,-15,-10,-24,-18,-16,-5,-35
14:16:54:999458,-5,-15,-10,-24,-18,-16,-5,-35
14:16:55:5446,5,-1,-2,10,4,1,27,-23
14:16:55:12980,-9,-13,-14,-22,-7,0,-13,-32
14:16:55:20644,-9,-13,-14,-22,-7,0,-13,-32
14:16:55:27960,-15,-30,6,8,-3,-13,-12,11
14:16:55:35506,-17,-1,23,-4,31,12,9,-26
14:16:55:43615,-17,-1,23,-4,31,12,9,-26
14:16:55:44392,14,14,-2,-17,19,-24,7,41
14:16:55:58663,12,16,11,13,-13,9,-6,20
14:16:55:59474,12,16,11,13,-13,9,-6,20
14:16:55:65514,-3,1,-19,-24,-11,19,6,22
14:16:55:73014,14,0,-25,-19,-24,-25,-33,13
14:16:55:80516,14,0,-25,-19,-24,-25,-33,13
14:16:55:88045,10,-15,-41,6,13,13,0,-31
14:16:55:95438,1,-17,-2,-1,-13,-5,-1,0
14:16:55:103774,1,-17,-2,-1,-13,-5,-1,0
14:16:55:104468,-9,-2,-23,-1,-37,25,2,-42
14:16:55:118723,5,14,11,8,30,20,19,-15
14:16:55:119456,5,14,11,8,30,20,19,-15
14:16:55:125462,-5,6,14,-5,-29,-18,-24,-19
14:16:55:133015,2,8,-18,12,-19,-44,4,18
14:16:55:140500,2,8,-18,12,-19,-44,4,18
14:16:55:147973,-4,-2,16,-14,-10,-18,-2,-8
14:16:55:156193,-2,-7,13,21,-22,-3,-10,32
14:16:55:157010,-2,-7,13,21,-22,-3,-10,32
14:16:55:162936,1,4,-15,6,5,-15,-15,8
14:16:55:178614,-9,-7,-19,-39,-26,3,8,-5
14:16:55:179408,-9,-7,-19,-39,-26,3,8,-5
14:16:55:185537,-19,-4,30,18,36,12,2,26
14:16:55:192959,-8,3,-7,-6,-5,8,-15,-29
14:16:55:200570,-8,3,-7,-6,-5,8,-15,-29
14:16:55:207953,3,9,-3,-6,-16,-13,7,2
14:16:55:216183,11,5,14,-30,3,4,10,-4
14:16:55:216987,11,5,14,-30,3,4,10,-4
14:16:55:223045,-2,1,-11,-14,2,54,-64,-47
14:16:55:238679,-12,16,19,37,28,62,23,-11
14:16:55:239474,-12,16,19,37,28,62,23,-11
14:16:55:245406,7,-4,17,2,-2,3,12,40
14:16:55:253010,-9,-1,-1,-13,-28,-35,-10,-24
14:16:55:260457,-9,-1,-1,-13,-28,-35,-10,-24
14:16:55:268080,7,-3,-9,1,-4,-4,-1,-2
14:16:55:276140,4,-15,-9,-7,30,-12,-4,30
14:16:55:276957,4,-15,-9,-7,30,-12,-4,30
14:16:55:283066,-5,7,19,29,16,-32,0,-16
14:16:55:298723,11,14,-37,-11,-11,-5,-23,-39
14:16:55:299431,11,14,-37,-11,-11,-5,-23,-39
14:16:55:305466,1,6,-23,-10,0,-9,33,46
14:16:55:313001,-5,-13,8,27,12,19,18,-14
14:16:55:320605,-5,-13,8,27,12,19,18,-14
14:16:55:328004,5,-2,-5,0,11,-17,3,-16
14:16:55:336235,-2,-12,-16,12,-5,2,-8,18
14:16:55:336986,-2,-12,-16,12,-5,2,-8,18
14:16:55:342989,-5,-10,18,-13,-14,-4,-18,-7
14:16:55:358696,4,6,21,-2,2,16,14,8
14:16:55:359487,4,6,21,-2,2,16,14,8
14:16:55:365518,6,0,-29,-4,3,10,1,1
14:16:55:381201,-1,-2,-17,10,6,-7,-8,5
14:16:55:381952,-1,-2,-17,10,6,-7,-8,5
14:16:55:388045,-5,-14,13,-2,-11,-3,3,31
14:16:55:396143,18,13,5,-2,7,-12,-4,-2
14:16:55:396944,18,13,5,-2,7,-12,-4,-2
14:16:55:410414,-4,6,14,10,1,4,31,-3
14:16:55:418726,6,3,-5,-15,-7,-4,-2,4
14:16:55:419461,6,3,-5,-15,-7,-4,-2,4
14:16:55:425464,-8,7,8,-4,-5,-15,-10,-13
14:16:55:441196,4,1,-17,-38,-12,-7,6,10
14:16:55:442012,4,1,-17,-38,-12,-7,6,10
14:16:55:448000,4,14,7,4,35,13,-1,7
14:16:55:456155,-10,-16,0,4,7,-1,-6,-10
14:16:55:457003,-10,-16,0,4,7,-1,-6,-10
14:16:55:470502,-4,-10,16,-24,-33,1,-5,-12
14:16:55:478639,-12,-16,-3,21,-7,-13,-13,28
14:16:55:479484,-12,-16,-3,21,-7,-13,-13,28
14:16:55:485560,-17,-13,-7,14,24,27,6,-36
14:16:55:501189,-5,-6,3,23,39,16,6,3
14:16:55:501977,-5,-6,3,23,39,16,6,3
14:16:55:507911,4,-7,-13,-2,-19,-24,-7,9
14:16:55:516207,-2,3,22,-8,-29,-22,-9,1
14:16:55:516973,-2,3,22,-8,-29,-22,-9,1
14:16:55:530399,-10,9,0,11,-5,0,-8,-22
14:16:55:538673,2,-15,-28,-17,-14,-1,4,8
14:16:55:539449,2,-15,-28,-17,-14,-1,4,8
14:16:55:545428,-1,-2,9,-10,-40,-18,-11,3
14:16:55:561101,2,18,49,-15,-35,-4,-19,-13
14:16:55:561954,2,18,49,-15,-35,-4,-19,-13
14:16:55:567984,0,1,-5,2,-19,-31,9,-17
14:16:55:576194,0,-2,-3,19,13,29,41,17
14:16:55:576968,0,-2,-3,19,13,29,41,17
14:16:55:590484,-1,-14,-13,0,14,4,-36,-16
14:16:55:598725,15,-15,-22,8,13,-18,-4,-23
14:16:55:599437,15,-15,-22,8,13,-18,-4,-23
14:16:55:605424,-9,-11,-9,-39,-24,-12,20,22
14:16:55:621162,-9,7,48,41,23,3,-7,6
14:16:55:621974,-9,7,48,41,23,3,-7,6
14:16:55:627971,5,-9,3,17,23,23,0,4
14:16:55:635587,11,16,21,-17,7,-7,-6,7
14:16:55:643010,11,16,21,-17,7,-7,-6,7
14:16:55:650449,4,16,21,-12,9,10,-2,3
14:16:55:658659,4,16,21,-12,9,10,-2,3
14:16:55:659456,-15,-11,-12,9,-15,-18,-10,-4
14:16:55:665593,5,8,17,5,12,3,4,-17
14:16:55:681222,5,8,17,5,12,3,4,-17
14:16:55:682001,-2,9,-34,-35,-7,5,6,4
14:16:55:688060,17,0,8,14,24,-1,-12,4
14:16:55:703700,17,0,8,14,24,-1,-12,4
14:16:55:704424,8,23,0,4,-8,-24,-56,-29
14:16:55:710395,-16,-12,-19,4,14,18,-32,-27
14:16:55:718740,-16,-12,-19,4,14,18,-32,-27
14:16:55:719460,-11,-6,-6,-10,25,34,-9,-6
14:16:55:725407,-4,-5,-14,-6,-3,-9,-9,-19
14:16:55:741176,-4,-5,-14,-6,-3,-9,-9,-19
14:16:55:741987,6,-9,9,15,-10,-5,14,36
14:16:55:747932,7,8,16,69,68,28,41,34
14:16:55:755494,7,8,16,69,68,28,41,34
14:16:55:762945,10,2,-39,-13,1,5,23,68
14:16:55:770514,-1,-10,-23,0,-33,-26,0,26
14:16:55:778666,-1,-10,-23,0,-33,-26,0,26
14:16:55:779417,-9,-4,-12,-26,-15,-10,-10,-23
14:16:55:785585,5,0,-15,-11,-11,-5,22,18
14:16:55:801179,5,0,-15,-11,-11,-5,22,18
14:16:55:801999,4,13,22,10,-3,16,19,-26
14:16:55:807900,3,-1,-15,-22,-17,-12,-7,-24
14:16:55:816207,3,-1,-15,-22,-17,-12,-7,-24
14:16:55:816961,-3,3,11,33,7,8,15,-50
14:16:55:830455,-6,-1,-9,-23,-13,-5,-5,-11
14:16:55:838672,-6,-1,-9,-23,-13,-5,-5,-11
14:16:55:839442,-20,-11,1,-24,-8,-3,-4,-33
14:16:55:845432,-18,-14,-10,12,-18,-5,-5,-2
14:16:55:861144,-18,-14,-10,12,-18,-5,-5,-2
14:16:55:861957,21,3,-1,-2,-3,-28,-8,11
14:16:55:867972,-6,21,32,-17,-19,-7,-8,-29
14:16:55:876175,-6,21,32,-17,-19,-7,-8,-29
14:16:55:876949,1,-6,20,1,10,39,8,27
14:16:55:890503,-1,-7,-22,18,7,8,1,-12
14:16:55:898767,-1,-7,-22,18,7,8,1,-12
14:16:55:899412,-5,-11,-15,4,-5,-7,0,-10
14:16:55:905434,5,-3,-8,-22,-17,-11,3,57
14:16:55:921232,5,-3,-8,-22,-17,-11,3,57
14:16:55:921989,6,0,-38,17,32,3,4,24
14:16:55:927874,9,-8,11,11,9,4,4,67
14:16:55:936214,9,-8,11,11,9,4,4,67
14:16:55:936961,-18,-15,-8,-17,-43,-10,23,-7
14:16:55:950476,6,13,-2,-35,-21,9,-20,-81
14:16:55:958655,6,13,-2,-35,-21,9,-20,-81
14:16:55:959438,-2,-1,6,-20,-38,-23,-18,-7
14:16:55:965502,-4,-3,-4,-28,-18,-12,0,-48
14:16:55:981147,-4,-3,-4,-28,-18,-12,0,-48
14:16:55:982024,-15,-13,-11,-5,-2,-14,-18,-37
14:16:55:988066,-8,-12,7,21,25,11,-22,-2
14:16:55:996164,-8,-12,7,21,25,11,-22,-2
14:16:55:997010,15,-1,17,11,21,-2,0,41
14:16:56:10436,-19,-6,10,7,-2,3,1,27
14:16:56:18687,-19,-6,10,7,-2,3,1,27
14:16:56:19414,-7,19,-25,-20,6,8,3,-10
14:16:56:25478,1,-1,-16,-16,-7,1,-1,0
14:16:56:41155,1,-1,-16,-16,-7,1,-1,0
14:16:56:42027,13,8,-8,-39,-35,-24,-14,33
14:16:56:48020,-3,3,8,22,20,20,30,16
14:16:56:56152,-3,3,8,22,20,20,30,16
14:16:56:57012,-7,-8,-15,12,-37,-3,-5,-24
14:16:56:70516,18,13,23,12,-1,-15,12,3
14:16:56:78615,18,13,23,12,-1,-15,12,3
14:16:56:79379,2,-22,-10,16,19,20,10,-23
14:16:56:85597,14,15,-7,-17,-8,-11,-19,-29
14:16:56:101218,14,15,-7,-17,-8,-11,-19,-29
14:16:56:102030,-9,-3,-4,-7,-18,9,-2,-10
14:16:56:107988,-7,-11,-9,-22,-23,2,8,-5
14:16:56:116187,-7,-11,-9,-22,-23,2,8,-5
14:16:56:116998,2,2,13,-3,17,1,-13,25
14:16:56:130485,-10,11,3,24,13,-17,-12,-10
14:16:56:138706,-10,11,3,24,13,-17,-12,-10
14:16:56:139452,-4,-12,-4,20,28,5,-3,-12
14:16:56:145472,-9,-4,-2,-12,7,9,-2,5
14:16:56:161182,-9,-4,-2,-12,7,9,-2,5
14:16:56:161939,-1,1,1,12,3,-25,19,-10
14:16:56:168068,-4,-11,-40,-41,-10,-17,7,11
14:16:56:176811,-4,-11,-40,-41,-10,-17,7,11
14:16:56:177616,-6,-1,10,-9,-2,5,36,-41
14:16:56:190424,18,3,7,35,4,-3,-13,1
14:16:56:198746,18,3,7,35,4,-3,-13,1
14:16:56:199458,-18,-8,-7,-11,-21,-17,-17,5
14:16:56:205482,8,7,3,-6,0,-4,14,3
14:16:56:221213,8,7,3,-6,0,-4,14,3
14:16:56:221977,7,-6,7,-8,-12,-6,-1,-6
14:16:56:227914,-7,-6,32,45,11,0,-6,11
14:16:56:236243,-7,-6,32,45,11,0,-6,11
14:16:56:236956,4,16,6,-7,-6,5,-1,25
14:16:56:250424,-4,-14,-23,-10,-27,-14,-1,24
14:16:56:258680,-4,-14,-23,-10,-27,-14,-1,24
14:16:56:259468,-8,-2,1,15,21,13,-7,18
14:16:56:265513,-6,-1,-21,-16,-1,12,26,0
14:16:56:281177,-6,-1,-21,-16,-1,12,26,0
14:16:56:281957,10,5,7,-10,-7,-19,-7,4
14:16:56:288000,-9,1,12,-11,-8,-5,-4,6
14:16:56:296191,-9,1,12,-11,-8,-5,-4,6
14:16:56:296991,3,-5,-8,21,46,31,5,11
14:16:56:310434,13,10,11,17,2,12,6,-26
14:16:56:318763,13,10,11,17,2,12,6,-26
14:16:56:319430,-6,14,16,3,18,19,1,7
14:16:56:333043,-1,0,0,13,11,-2,1,19
14:16:56:341167,-1,0,0,13,11,-2,1,19
14:16:56:341992,-1,-2,3,-15,-22,-20,11,-24
14:16:56:347913,-2,-3,-8,3,11,-2,-30,-13
14:16:56:363617,-2,-3,-8,3,11,-2,-30,-13
14:16:56:364412,-5,2,7,19,34,0,-20,-12
14:16:56:370490,-6,0,10,-2,-24,0,-13,-11
14:16:56:378646,-6,0,10,-2,-24,0,-13,-11
14:16:56:379406,16,5,-1,11,1,20,13,46
14:16:56:393007,-4,0,21,-3,-11,-5,-1,16
14:16:56:401178,-4,0,21,-3,-11,-5,-1,16
14:16:56:402006,-7,-14,-17,-24,-38,-38,-17,-21
14:16:56:407951,-7,-5,22,-3,35,28,11,-8
14:16:56:415588,-7,-5,22,-3,35,28,11,-8
14:16:56:422936,5,3,2,-3,-9,-14,5,17
14:16:56:430424,-10,-2,-6,-7,16,-7,-2,9
14:16:56:438674,-10,-2,-6,-7,16,-7,-2,9
14:16:56:439465,-7,1,3,-16,-11,-1,-5,9
14:16:56:452992,-10,-12,-24,-2,-12,-32,-24,-16
14:16:56:461136,-10,-12,-24,-2,-12,-32,-24,-16
14:16:56:461946,10,12,26,12,-6,10,-31,-13
14:16:56:467994,-1,-11,-35,25,4,-17,15,15
14:16:56:475535,-1,-11,-35,25,4,-17,15,15
14:16:56:482992,-7,10,-1,2,-4,-32,-5,-6
14:16:56:490478,4,19,-4,-1,39,41,6,-30
14:16:56:498790,4,19,-4,-1,39,41,6,-30
14:16:56:499441,-4,-15,20,-5,5,-9,-2,-7
14:16:56:512910,-17,-23,7,-5,-12,-4,-6,-17
14:16:56:521239,-17,-23,7,-5,-12,-4,-6,-17
14:16:56:521994,-8,-3,-16,-9,15,18,0,14
14:16:56:527923,10,10,1,-7,-1,-10,30,0
14:16:56:535594,10,10,1,-7,-1,-10,30,0
14:16:56:543005,-17,-11,-33,-9,-4,-5,-14,-28
14:16:56:550447,7,8,-13,-22,-18,42,22,5
14:16:56:558658,7,8,-13,-22,-18,42,22,5
14:16:56:559414,14,11,23,9,-6,14,33,17
14:16:56:573026,5,4,0,4,16,-6,-32,-17
14:16:56:581176,5,4,0,4,16,-6,-32,-17
14:16:56:581960,-2,-8,-18,-19,-18,13,-12,7
14:16:56:588083,0,-11,1,42,36,16,-8,-9
14:16:56:595463,0,-11,1,42,36,16,-8,-9
14:16:56:603066,-15,-11,6,21,23,2,7,-12
14:16:56:610437,9,5,9,-18,-32,-42,-15,37
14:16:56:618705,9,5,9,-18,-32,-42,-15,37
14:16:56:619418,-15,-5,-23,-1,5,46,34,18
14:16:56:633058,5,6,14,-14,17,-3,-3,35
14:16:56:641152,5,6,14,-14,17,-3,-3,35
14:16:56:641986,9,0,1,21,40,11,20,12
14:16:56:648042,-8,4,12,22,-28,12,-16,-24
14:16:56:655510,-8,4,12,22,-28,12,-16,-24
14:16:56:662949,4,7,-10,21,21,0,-15,-15
14:16:56:670508,-1,-3,-5,-20,-18,-35,-18,2
14:16:56:678640,-1,-3,-5,-20,-18,-35,-18,2
14:16:56:679417,5,0,-11,-9,6,10,-2,-6
14:16:56:693044,-9,-8,-16,-29,-2,22,5,-3
14:16:56:701286,-9,-8,-16,-29,-2,22,5,-3
14:16:56:701995,-2,-2,-7,-5,-13,-32,-11,-2
14:16:56:707929,-8,-13,-11,-5,-22,-9,-4,-37
14:16:56:715544,-8,-13,-11,-5,-22,-9,-4,-37
14:16:56:722950,14,4,10,15,-2,-4,-10,0
14:16:56:730459,25,16,24,6,-8,1,-4,47
14:16:56:738685,25,16,24,6,-8,1,-4,47
14:16:56:739454,8,5,10,1,-55,-44,-2,31
14:16:56:752980,3,3,10,21,40,25,48,29
14:16:56:761166,3,3,10,21,40,25,48,29
14:16:56:761971,-10,-17,-20,-16,21,4,2,-8
14:16:56:767977,-5,-3,-10,-8,41,-23,-6,-14
14:16:56:775547,-5,-3,-10,-8,41,-23,-6,-14
14:16:56:782935,-5,-21,-15,10,-6,-9,-5,-20
14:16:56:790458,-14,-9,9,-10,-30,0,1,-1
14:16:56:798766,-14,-9,9,-10,-30,0,1,-1
14:16:56:799455,8,2,-18,-11,-8,-17,-12,11
14:16:56:812916,-11,-5,-18,-16,-32,-23,-14,-24
14:16:56:821247,-11,-5,-18,-16,-32,-23,-14,-24
14:16:56:822005,-12,-1,4,6,-16,-13,12,28
14:16:56:827927,-14,3,0,40,94,41,-7,-55
14:16:56:835595,-14,3,0,40,94,41,-7,-55
14:16:56:843017,-9,-3,-31,-35,-42,-36,-10,4
14:16:56:850472,0,-4,-8,-26,-36,7,3,-18
14:16:56:858628,0,-4,-8,-26,-36,7,3,-18
14:16:56:859419,6,8,18,4,4,25,6,19
14:16:56:872938,-15,-3,2,-25,-46,-10,-13,-65
14:16:56:881232,-15,-3,2,-25,-46,-10,-13,-65
14:16:56:882026,5,7,29,18,31,2,11,-20
14:16:56:888082,13,16,-4,-5,-14,9,7,32
14:16:56:895470,13,16,-4,-5,-14,9,7,32
14:16:56:903061,-13,-12,-21,-70,-13,9,-19,-40
14:16:56:910431,-1,-19,20,6,-2,3,10,32
14:16:56:918726,-1,-19,20,6,-2,3,10,32
14:16:56:919415,-23,-17,-34,3,11,-10,-10,-31
14:16:56:933023,-5,-13,-14,-13,-29,-4,17,27
14:16:56:941141,-5,-13,-14,-13,-29,-4,17,27
14:16:56:941998,-14,-7,7,2,1,-37,0,-17
14:16:56:948011,-9,-4,-4,43,36,10,2,-25
14:16:56:955503,-9,-4,-4,43,36,10,2,-25
14:16:56:962928,10,6,-5,8,0,5,0,-13
14:16:56:970524,-3,9,4,-23,6,-11,-15,8
14:16:56:978636,-3,9,4,-23,6,-11,-15,8
14:16:56:979430,3,5,6,3,2,25,5,10
14:16:56:993034,18,5,-4,-16,-20,0,4,12
14:16:57:1237,18,5,-4,-16,-20,0,4,12
14:16:57:2012,0,4,7,0,-27,-9,-15,11
14:16:57:7889,12,15,3,-3,5,-8,-6,-8
14:16:57:15590,12,15,3,-3,5,-8,-6,-8
14:16:57:22958,0,-2,6,-2,-21,-6,-1,20
14:16:57:30427,-4,-4,-7,50,10,20,2,-10
14:16:57:38696,-4,-4,-7,50,10,20,2,-10
14:16:57:39494,9,2,14,19,20,26,-3,-12
14:16:57:53017,12,2,-18,1,4,-2,5,30
14:16:57:61129,12,2,-18,1,4,-2,5,30
14:16:57:61976,0,7,30,4,15,19,13,0
14:16:57:68194,6,4,-21,-1,30,17,-40,-73
14:16:57:75508,6,4,-21,-1,30,17,-40,-73
14:16:57:82990,15,4,6,10,22,17,15,18
14:16:57:90421,1,-10,18,0,3,-8,-18,6
14:16:57:98765,1,-10,18,0,3,-8,-18,6
14:16:57:99464,3,-7,-21,-27,-27,-3,-20,-35
14:16:57:112942,-7,-14,-14,27,-14,-35,-6,63
14:16:57:121243,-7,-14,-14,27,-14,-35,-6,63
14:16:57:122016,-3,-7,4,5,12,10,16,15
14:16:57:127914,7,11,4,-25,-34,-11,7,28
14:16:57:135622,7,11,4,-25,-34,-11,7,28
14:16:57:143023,4,8,-8,-22,-17,-19,-22,-65
14:16:57:150518,-6,0,58,8,-1,2,25,2
14:16:57:158675,-6,0,58,8,-1,2,25,2
14:16:57:159467,-18,-4,-7,1,0,0,-10,-19
14:16:57:173050,-16,-10,-9,-5,-17,-21,3,14
14:16:57:181144,-16,-10,-9,-5,-17,-21,3,14
14:16:57:181980,11,2,-49,-2,1,-12,5,15
14:16:57:188091,9,10,-9,16,21,16,26,13
14:16:57:195475,9,10,-9,16,21,16,26,13
14:16:57:203123,3,11,21,38,22,-46,2,12
14:16:57:210429,-7,-7,-11,-9,2,-17,-14,-8
14:16:57:218765,-7,-7,-11,-9,2,-17,-14,-8
14:16:57:219419,17,17,28,15,-3,16,13,72
14:16:57:233027,9,-7,27,-20,-14,-10,7,-15
14:16:57:241147,9,-7,27,-20,-14,-10,7,-15
14:16:57:242006,-18,-12,5,-1,-7,-1,-6,-4
14:16:57:248077,2,-5,-25,-5,-27,-6,-43,15
14:16:57:255511,2,-5,-25,-5,-27,-6,-43,15
14:16:57:262912,-17,1,38,-2,0,-38,-6,-55
14:16:57:270588,-4,5,7,19,18,1,14,-38
14:16:57:278008,-4,5,7,19,18,1,14,-38
14:16:57:285534,-7,-22,-14,11,5,19,-12,-15
14:16:57:301865,10,9,-4,-24,-37,12,8,8
14:16:57:302586,10,9,-4,-24,-37,12,8,8
14:16:57:303407,10,-8,-16,-8,11,17,-9,17
14:16:57:316135,-3,1,24,-20,-24,0,24,11
14:16:57:316990,-3,1,24,-20,-24,0,24,11
14:16:57:323051,10,23,1,7,10,10,16,1
14:16:57:330510,-13,-8,-11,-12,11,-42,-31,-26
14:16:57:338104,-13,-8,-11,-12,11,-42,-31,-26
14:16:57:345422,-9,-8,-17,-21,-37,-31,5,58
14:16:57:352998,1,4,10,17,54,76,40,0
14:16:57:361132,1,4,10,17,54,76,40,0
14:16:57:361956,-23,-13,-8,4,-7,-10,-13,-2
14:16:57:376148,-2,-18,-28,-5,11,-2,-14,-2
14:16:57:376954,-2,-18,-28,-5,11,-2,-14,-2
14:16:57:382976,11,3,3,13,5,20,-8,-40
14:16:57:390437,-9,-15,7,-16,-30,-9,-1,17
14:16:57:398053,-9,-15,7,-16,-30,-9,-1,17
14:16:57:405467,-3,-7,13,-5,-8,3,-7,-50
14:16:57:412959,3,3,9,9,4,8,17,4
14:16:57:421256,3,3,9,9,4,8,17,4
14:16:57:422016,-2,0,-25,-15,-3,21,-16,-23
14:16:57:436249,-8,0,-10,-18,-16,-53,-37,5
14:16:57:436998,-8,0,-10,-18,-16,-53,-37,5
14:16:57:442940,0,6,29,35,67,35,4,-11
14:16:57:450468,-6,-2,-19,1,0,11,-48,-19
14:16:57:458040,-6,-2,-19,1,0,11,-48,-19
14:16:57:465547,-4,-20,-27,-43,-50,-33,23,15
14:16:57:472976,-1,6,17,26,-1,-21,11,-14
14:16:57:481193,-1,6,17,26,-1,-21,11,-14
14:16:57:482001,2,1,-20,-1,19,24,11,20
14:16:57:496153,-5,2,-15,-10,-6,-3,-2,-31
14:16:57:497008,-5,2,-15,-10,-6,-3,-2,-31
14:16:57:503044,5,11,3,7,45,18,9,6
14:16:57:510400,1,-11,-57,-26,-17,-26,2,7
14:16:57:518049,1,-11,-57,-26,-17,-26,2,7
14:16:57:525430,9,18,4,-16,-3,8,5,10
14:16:57:533037,-11,-15,-8,7,2,66,4,-1
14:16:57:541139,-11,-15,-8,7,2,66,4,-1
14:16:57:541987,0,-12,-32,-5,-35,-16,-12,40
14:16:57:556140,37,11,7,3,37,38,44,87
14:16:57:556990,37,11,7,3,37,38,44,87
14:16:57:563007,-13,-11,-9,-8,-4,-6,-22,-36
14:16:57:570548,-10,2,5,-1,-34,-59,-35,-24
14:16:57:577993,-10,2,5,-1,-34,-59,-35,-24
14:16:57:585524,12,2,27,-29,-14,4,43,13
14:16:57:593004,0,5,-7,-52,-13,-14,-6,-31
14:16:57:601208,0,5,-7,-52,-13,-14,-6,-31
14:16:57:601992,-12,-9,-12,0,-12,3,-29,-32
14:16:57:616190,7,10,34,11,-3,17,25,26
14:16:57:616970,7,10,34,11,-3,17,25,26
14:16:57:623026,-1,6,10,18,-8,23,-5,-4
14:16:57:630488,-13,-9,-19,31,2,-59,-14,-20
14:16:57:638090,-13,-9,-19,31,2,-59,-14,-20
14:16:57:645423,14,12,38,8,2,4,16,26
14:16:57:652965,25,8,24,-2,-5,36,-15,2
14:16:57:661177,25,8,24,-2,-5,36,-15,2
14:16:57:661998,5,7,-5,19,2,-14,-3,-49
14:16:57:676183,20,8,10,-14,13,15,10,31
14:16:57:677014,20,8,10,-14,13,15,10,31
14:16:57:682981,-5,-10,-9,5,31,-11,0,22
14:16:57:690428,-10,-5,-2,-1,-15,53,13,-21
14:16:57:698078,-10,-5,-2,-1,-15,53,13,-21
14:16:57:705491,0,5,34,18,9,-5,13,-5
14:16:57:712920,-19,3,16,-40,-10,10,-14,-2
14:16:57:721278,-19,3,16,-40,-10,10,-14,-2
14:16:57:722011,-17,-24,-35,0,11,-7,-11,7
14:16:57:736240,-11,0,16,10,12,1,4,-17
14:16:57:737031,-11,0,16,10,12,1,4,-17
14:16:57:742906,-6,-5,-43,-12,-11,-16,-4,15
14:16:57:750470,5,12,7,-12,-4,-22,5,-11
14:16:57:758045,5,12,7,-12,-4,-22,5,-11
14:16:57:765525,-5,-14,-29,-23,-18,-4,1,-13
14:16:57:772969,-7,-10,9,3,37,4,-5,12
14:16:57:781172,-7,-10,9,3,37,4,-5,12
14:16:57:781903,2,-1,9,20,58,14,14,29
14:16:57:796193,-19,-21,-21,37,35,-100,-52,-112
14:16:57:797028,-19,-21,-21,37,35,-100,-52,-112
14:16:57:803070,-4,11,45,6,-16,11,-7,17
14:16:57:810429,7,14,12,4,-18,-2,6,55
14:16:57:818070,7,14,12,4,-18,-2,6,55
14:16:57:825524,-17,-7,-14,-7,-35,-36,-40,-26
14:16:57:833094,-9,-1,-15,3,-18,14,-31,-81
14:16:57:841129,-9,-1,-15,3,-18,14,-31,-81
14:16:57:842055,8,-1,24,7,-4,-1,6,10
14:16:57:856173,-7,-9,-5,-13,-40,6,18,31
14:16:57:856994,-7,-9,-5,-13,-40,6,18,31
14:16:57:863038,-6,4,4,8,18,14,-4,-26
14:16:57:870592,6,-11,12,-6,42,20,13,-3
14:16:57:877999,6,-11,12,-6,42,20,13,-3
14:16:57:885506,4,-3,0,-3,-22,-3,5,2
14:16:57:893080,8,-8,-33,-10,-43,4,15,61
14:16:57:901169,8,-8,-33,-10,-43,4,15,61
14:16:57:902018,-17,-5,-38,-34,-13,0,3,-14
14:16:57:916156,-19,1,1,2,-1,13,4,-45
14:16:57:916962,-19,1,1,2,-1,13,4,-45
14:16:57:922907,22,8,-7,-8,-21,-11,27,64
14:16:57:930446,2,-7,-15,38,6,-4,7,31
14:16:57:938109,2,-7,-15,38,6,-4,7,31
14:16:57:945395,-2,-4,14,31,-3,-35,-2,-24
14:16:57:953011,-12,1,-2,-1,31,-11,-13,-20
14:16:57:961148,-12,1,-2,-1,31,-11,-13,-20
14:16:57:961972,2,0,4,-32,-32,-5,-13,2
14:16:57:976185,-1,0,-7,-32,-32,-10,18,13
14:16:57:976969,-1,0,-7,-32,-32,-10,18,13
14:16:57:982958,10,14,8,21,17,26,-5,-16
14:16:57:990457,8,11,16,-13,-24,4,-19,17
14:16:57:998025,8,11,16,-13,-24,4,-19,17
14:16:58:5484,15,11,50,30,31,14,-26,55
14:16:58:12937,-14,-9,-50,10,11,-28,22,4
14:16:58:21253,-14,-9,-50,10,11,-28,22,4
14:16:58:22018,-29,-3,5,-7,4,-3,-1,-39
14:16:58:36210,-3,-4,3,9,-1,39,-3,-11
14:16:58:37001,-3,-4,3,9,-1,39,-3,-11
14:16:58:42922,8,23,16,9,4,1,5,-26
14:16:58:50438,0,-11,-6,-15,16,-7,7,-8
14:16:58:58032,0,-11,-6,-15,16,-7,7,-8
14:16:58:65531,0,-18,-29,-12,16,-23,0,48
14:16:58:72951,20,17,-10,-4,-22,-6,-5,2
14:16:58:81163,20,17,-10,-4,-22,-6,-5,2
14:16:58:81993,-14,-3,-26,-14,-16,-19,13,-22
14:16:58:96204,6,1,-18,14,13,-8,-2,10
14:16:58:96996,6,1,-18,14,13,-8,-2,10
14:16:58:103050,3,-1,12,-9,-32,0,11,1
14:16:58:110395,0,-10,7,3,14,5,-15,9
14:16:58:118052,0,-10,7,3,14,5,-15,9
14:16:58:125512,1,-4,-9,-4,15,8,-5,-45
14:16:58:133053,-28,-19,-10,-10,-15,-63,-45,-58
14:16:58:141181,-28,-19,-10,-10,-15,-63,-45,-58
14:16:58:142023,13,-1,-20,-28,-9,2,9,20
14:16:58:156160,5,4,33,16,17,14,2,21
14:16:58:157038,5,4,33,16,17,14,2,21
14:16:58:163015,-13,-12,-2,-6,-28,-17,2,-7
14:16:58:170567,11,6,-4,1,22,78,21,20
14:16:58:178011,11,6,-4,1,22,78,21,20
14:16:58:185558,1,5,13,-4,0,10,-2,13
14:16:58:193125,2,3,10,17,31,17,24,-17
14:16:58:201227,2,3,10,17,31,17,24,-17
14:16:58:202020,0,-4,-2,4,29,40,-19,-17
14:16:58:216205,-3,13,37,-24,-36,15,16,6
14:16:58:217011,-3,13,37,-24,-36,15,16,6
14:16:58:222932,2,1,4,-5,-17,-8,-17,23
14:16:58:238648,11,12,0,28,38,-17,-8,15
14:16:58:239429,11,12,0,28,38,-17,-8,15
14:16:58:245453,-2,-11,-2,-5,6,15,4,-20
14:16:58:253081,-3,-4,-13,21,8,-16,0,-4
14:16:58:260430,-3,-4,-13,21,8,-16,0,-4
14:16:58:268000,0,19,26,33,56,32,10,0
14:16:58:276169,-6,-10,7,-14,19,89,3,-4
14:16:58:276985,-6,-10,7,-14,19,89,3,-4
14:16:58:282982,-7,-10,-5,-3,-24,-76,-51,-3
14:16:58:298690,-1,5,-7,7,5,-11,26,8
14:16:58:299427,-1,5,-7,7,5,-11,26,8
14:16:58:305438,-2,-1,-11,-11,-41,-18,-25,-68
14:16:58:312931,6,4,17,-9,-31,-36,-43,-8
14:16:58:320552,6,4,17,-9,-31,-36,-43,-8
14:16:58:327898,11,-4,-21,-8,1,-16,-19,-24
14:16:58:336194,-12,-2,-14,-10,25,14,6,-4
14:16:58:337024,-12,-2,-14,-10,25,14,6,-4
14:16:58:342883,6,4,22,4,7,-34,31,19
14:16:58:358634,0,-6,-18,-2,10,-21,0,7
14:16:58:359456,0,-6,-18,-2,10,-21,0,7
14:16:58:365483,-10,-5,5,-18,-16,15,8,16
14:16:58:372931,-4,-4,4,-6,-52,-51,-6,-9
14:16:58:380482,-4,-4,4,-6,-52,-51,-6,-9
14:16:58:388006,-10,-7,-18,-1,-21,59,10,-5
14:16:58:396170,-14,3,8,9,16,44,34,-49
14:16:58:397002,-14,3,8,9,16,44,34,-49
14:16:58:403021,3,-7,-4,1,3,8,-3,9
14:16:58:418717,-14,-14,-3,-25,-36,-35,-20,-11
14:16:58:419453,-14,-14,-3,-25,-36,-35,-20,-11
14:16:58:425437,2,15,7,14,25,-1,-4,-7
14:16:58:432990,1,-7,-23,2,-7,-7,-5,16
14:16:58:440543,1,-7,-23,2,-7,-7,-5,16
14:16:58:448325,-1,0,2,-35,-27,6,-7,27
14:16:58:456146,29,29,41,86,105,46,35,18
14:16:58:457046,29,29,41,86,105,46,35,18
14:16:58:463069,0,-6,-28,-5,-29,8,-36,1
14:16:58:478718,-21,-29,-46,-41,-56,-16,-14,15
14:16:58:479474,-21,-29,-46,-41,-56,-16,-14,15
14:16:58:485526,1,5,27,21,33,21,30,43
14:16:58:492971,3,1,28,-8,-18,-3,-16,-9
14:16:58:500490,3,1,28,-8,-18,-3,-16,-9
14:16:58:508048,-12,0,4,-1,8,-7,-5,-42
14:16:58:516208,4,1,-40,-35,-11,-22,28,18
14:16:58:517024,4,1,-40,-35,-11,-22,28,18
14:16:58:522944,-2,-9,-10,10,-2,-21,14,-2
14:16:58:538658,-5,-2,5,-11,-36,-60,-18,-11
14:16:58:539470,-5,-2,5,-11,-36,-60,-18,-11
14:16:58:545476,14,14,32,19,6,-21,0,9
14:16:58:553102,1,1,-15,-12,-11,-7,-16,-4
14:16:58:560444,1,1,-15,-12,-11,-7,-16,-4
14:16:58:567935,-7,-9,-20,-21,-10,15,17,-1
14:16:58:576151,-1,6,-6,-13,27,7,0,-31
14:16:58:576980,-1,6,-6,-13,27,7,0,-31
14:16:58:583014,-19,-19,-7,-5,-3,-13,2,-43
14:16:58:598738,4,-5,21,8,2,-28,-30,-1
14:16:58:599461,4,-5,21,8,2,-28,-30,-1
14:16:58:605447,-1,-6,-25,-3,6,-28,-21,-3
14:16:58:612937,6,15,16,1,9,19,15,8
14:16:58:620587,6,15,16,1,9,19,15,8
14:16:58:627888,1,-2,-1,8,-27,14,-16,9
14:16:58:636190,1,5,7,25,70,37,20,17
14:16:58:637031,1,5,7,25,70,37,20,17
14:16:58:642938,-3,-5,-9,-14,-23,-43,-3,0
14:16:58:658683,1,-6,-12,10,-31,-24,26,5
14:16:58:659458,1,-6,-12,10,-31,-24,26,5
14:16:58:665535,1,2,-27,-5,-9,31,-6,1
14:16:58:672937,-2,-10,16,-16,-55,-25,9,28
14:16:58:680514,-2,-10,16,-16,-55,-25,9,28
14:16:58:688022,-3,1,-7,11,-18,-40,9,5
14:16:58:696157,-1,6,2,8,-29,44,-15,-6
14:16:58:696976,-1,6,2,8,-29,44,-15,-6
14:16:58:702987,9,20,50,21,2,36,18,9
14:16:58:718714,0,4,13,9,-16,-20,18,0
14:16:58:719475,0,4,13,9,-16,-20,18,0
14:16:58:725427,0,5,26,27,35,13,9,0
14:16:58:732994,-1,-3,-8,-14,-4,-7,-19,-9
14:16:58:740557,-1,-3,-8,-14,-4,-7,-19,-9
14:16:58:747954,-12,-17,-78,-20,4,3,-14,-33
14:16:58:756163,-2,4,7,-48,-27,-2,-18,12
14:16:58:756933,-2,4,7,-48,-27,-2,-18,12
14:16:58:763027,1,0,34,5,21,-18,-8,-1
14:16:58:778605,-9,-4,20,42,0,-27,-1,-13
14:16:58:779361,-9,-4,20,42,0,-27,-1,-13
14:16:58:785560,6,-8,-4,7,-54,17,9,22
14:16:58:792960,8,-2,-47,6,0,24,-9,12
14:16:58:800515,8,-2,-47,6,0,24,-9,12
14:16:58:808057,0,2,35,13,-15,6,-2,-2
14:16:58:816187,-12,-15,-9,11,22,18,-12,-24
14:16:58:817004,-12,-15,-9,11,22,18,-12,-24
14:16:58:822963,0,-4,-10,-27,-23,2,34,21
14:16:58:838656,-2,4,6,9,20,-1,56,6
14:16:58:839461,-2,4,6,9,20,-1,56,6
14:16:58:845384,-13,-9,17,-21,10,-38,-11,13
14:16:58:853061,-7,-20,-28,-35,-16,17,-40,-18
14:16:58:860428,-7,-20,-28,-35,-16,17,-40,-18
14:16:58:867976,1,7,-28,44,127,104,30,12
14:16:58:876181,-2,3,90,23,-16,2,-18,-1
14:16:58:877012,-2,3,90,23,-16,2,-18,-1
14:16:58:883031,6,4,-2,-33,-49,-42,-23,22
14:16:58:898742,-11,-8,-38,-27,-21,-51,-11,-46
14:16:58:899437,-11,-8,-38,-27,-21,-51,-11,-46
14:16:58:905466,1,-5,-18,-21,7,-13,-7,-13
14:16:58:912894,21,27,-3,3,-16,-8,-16,-9
14:16:58:920565,21,27,-3,3,-16,-8,-16,-9
14:16:58:927890,-7,-9,-2,28,17,22,8,16
14:16:58:936277,-10,-11,1,-16,-13,17,41,36
14:16:58:937058,-10,-11,1,-16,-13,17,41,36
14:16:58:942991,16,23,29,19,36,13,61,48
14:16:58:958717,10,-7,-26,27,12,-15,-19,15
14:16:58:959502,10,-7,-26,27,12,-15,-19,15
14:16:58:965516,-25,-22,-61,-44,-42,-21,-37,-48
14:16:58:981227,-25,-22,-61,-44,-42,-21,-37,-48
14:16:58:982016,-12,1,-1,-32,8,2,-21,-10
14:16:58:988041,-8,-11,-19,2,9,-4,-5,-21
14:16:58:996138,-8,-11,-19,2,9,-4,-5,-21
14:16:58:997018,5,-5,-4,-16,-18,13,2,13
14:16:59:3069,-3,1,27,7,2,18,-20,-17
14:16:59:18749,-3,1,27,7,2,18,-20,-17
14:16:59:19413,3,-2,4,1,-7,32,-10,-7
14:16:59:25444,17,34,31,1,22,0,-1,-44
14:16:59:41198,17,34,31,1,22,0,-1,-44
14:16:59:42023,-14,-14,-16,22,39,11,0,16
14:16:59:47926,-5,-3,7,-43,-56,-32,-56,-16
14:16:59:56148,-5,-3,7,-43,-56,-32,-56,-16
14:16:59:57033,-1,1,-5,-15,-24,-12,9,-29
14:16:59:62979,-10,20,68,8,18,-14,1,-1
14:16:59:78644,-10,20,68,8,18,-14,1,-1
14:16:59:79429,-4,-24,-42,-30,16,-7,-8,15
14:16:59:85451,10,-3,-9,2,-27,-5,1,13
14:16:59:101163,10,-3,-9,2,-27,-5,1,13
14:16:59:101982,0,-9,-26,1,14,-87,-1,-14
14:16:59:107889,-4,-2,9,10,32,6,34,-3
14:16:59:116212,-4,-2,9,10,32,6,34,-3
14:16:59:116983,6,21,18,18,28,30,21,45
14:16:59:122937,19,0,-15,-14,-27,-12,-15,8
14:16:59:138640,19,0,-15,-14,-27,-12,-15,8
14:16:59:139459,-5,7,12,-11,7,39,47,2
14:16:59:145364,-19,-17,-23,-24,-48,23,-23,8
14:16:59:161113,-19,-17,-23,-24,-48,23,-23,8
14:16:59:161862,5,13,47,42,11,2,-28,-33
14:16:59:167982,7,11,2,-10,-2,-7,7,-10
14:16:59:176117,7,11,2,-10,-2,-7,7,-10
14:16:59:176980,-4,-13,23,-12,-44,-72,-14,-2
14:16:59:190476,5,-14,-21,2,-9,0,-8,28
14:16:59:198716,5,-14,-21,2,-9,0,-8,28
14:16:59:199448,-2,1,-8,-11,-16,16,-31,-13
14:16:59:205470,10,-1,-22,4,6,-49,2,8
14:16:59:221306,10,-1,-22,4,6,-49,2,8
14:16:59:222049,-10,7,-15,7,65,17,76,18
14:16:59:227925,-29,-40,1,10,13,-60,-58,2
14:16:59:236309,-29,-40,1,10,13,-60,-58,2
14:16:59:236940,3,4,5,22,-21,-2,-23,-10
14:16:59:250496,12,1,-19,-5,14,-4,13,-4
14:16:59:258657,12,1,-19,-5,14,-4,13,-4
14:16:59:259457,-2,-1,-20,-14,-11,11,-5,-3
14:16:59:265515,13,6,-12,0,11,48,-3,-11
14:16:59:281182,13,6,-12,0,11,48,-3,-11
14:16:59:282016,1,3,-12,-18,-41,20,13,9
14:16:59:288005,-1,-13,19,12,-6,7,-1,-1
14:16:59:296113,-1,-13,19,12,-6,7,-1,-1
14:16:59:296888,0,-4,32,1,-15,-22,10,38
14:16:59:310413,-1,8,38,14,37,7,16,21
14:16:59:318720,-1,8,38,14,37,7,16,21
14:16:59:319446,-12,-8,-15,10,2,27,-8,-48
14:16:59:325418,6,17,-10,-2,-4,-16,4,9
14:16:59:341161,6,17,-10,-2,-4,-16,4,9
14:16:59:342031,-20,-42,4,15,31,40,2,-15
14:16:59:347995,-14,9,-3,-16,2,18,-8,-19
14:16:59:356189,-14,9,-3,-16,2,18,-8,-19
14:16:59:357017,21,39,-1,2,-17,-34,-51,-1
14:16:59:370510,-3,-8,-25,-17,-47,-9,-36,-8
14:16:59:378662,-3,-8,-25,-17,-47,-9,-36,-8
14:16:59:379435,2,0,-4,25,14,-8,-25,-3
14:16:59:385520,5,10,8,9,10,-4,1,-24
14:16:59:401188,5,10,8,9,10,-4,1,-24
14:16:59:402040,1,0,-19,-14,-36,-39,-44,-8
14:16:59:407923,-11,1,-15,25,28,-13,32,25
14:16:59:416252,-11,1,-15,25,28,-13,32,25
14:16:59:417060,5,-11,38,5,41,28,-39,-18
14:16:59:430449,1,-2,0,-12,-43,-65,-10,-19
14:16:59:438702,1,-2,0,-12,-43,-65,-10,-19
14:16:59:439479,2,-2,24,8,9,13,7,4
14:16:59:445401,0,10,46,5,-10,18,32,7
14:16:59:461132,0,10,46,5,-10,18,32,7
14:16:59:462001,-6,4,-22,-6,-3,-3,7,18
14:16:59:467972,-6,-41,-36,16,11,12,32,33
14:16:59:476163,-6,-41,-36,16,11,12,32,33
14:16:59:477025,14,11,-4,-25,5,-37,-4,16
14:16:59:490412,-12,-6,-5,-42,5,32,-34,-6
14:16:59:498790,-12,-6,-5,-42,5,32,-34,-6
14:16:59:499452,8,14,7,-32,-52,-42,5,53
14:16:59:505432,3,12,-19,12,22,43,43,8
14:16:59:521230,3,12,-19,12,22,43,43,8
14:16:59:521940,-10,-20,10,-1,-42,-22,2,-6
14:16:59:527875,-1,1,43,-1,-2,-15,-24,-20
14:16:59:536222,-1,1,43,-1,-2,-15,-24,-20
14:16:59:536987,3,22,-35,5,18,16,59,-3
14:16:59:550537,-11,-3,-3,8,2,-1,1,-13
14:16:59:558676,-11,-3,-3,8,2,-1,1,-13
14:16:59:559459,-3,-27,-4,-19,28,26,29,-31
14:16:59:565575,-15,11,30,-1,7,-4,18,-18
14:16:59:581148,-15,11,30,-1,7,-4,18,-18
14:16:59:581940,-6,-6,0,-9,16,65,29,37
14:16:59:588116,11,-15,-1,-9,-26,-3,-35,-2
14:16:59:596160,11,-15,-1,-9,-26,-3,-35,-2
14:16:59:597053,4,10,-7,15,-7,-1,-29,-17
14:16:59:610466,14,31,-10,7,27,35,24,11
14:16:59:618692,14,31,-10,7,27,35,24,11
14:16:59:619432,-11,-17,-18,-6,-8,-4,-26,-16
14:16:59:625407,-3,-16,-16,12,-21,-3,-4,-4
14:16:59:641154,-3,-16,-16,12,-21,-3,-4,-4
14:16:59:641923,2,3,-14,-11,-7,0,1,14
14:16:59:647958,15,-15,-28,-1,12,6,17,-11
14:16:59:656149,15,-15,-28,-1,12,6,17,-11
14:16:59:656913,15,-6,-31,16,2,18,7,54
14:16:59:670525,-17,-6,-62,-69,-43,-34,-44,-46
14:16:59:678652,-17,-6,-62,-69,-43,-34,-44,-46
14:16:59:679384,-8,4,8,-15,-15,-23,9,3
14:16:59:685508,-11,9,23,39,30,42,-18,-6
14:16:59:701167,-11,9,23,39,30,42,-18,-6
14:16:59:701931,-10,1,35,17,3,3,16,0
14:16:59:707967,3,-4,-16,-20,-33,-18,-2,0
14:16:59:716220,3,-4,-16,-20,-33,-18,-2,0
14:16:59:716948,-13,-14,-28,-17,-10,-19,-9,-16
14:16:59:730491,-5,-4,13,-17,16,6,-3,-10
14:16:59:738665,-5,-4,13,-17,16,6,-3,-10
14:16:59:739463,1,-10,-37,-34,-26,-2,-23,-44
14:16:59:745441,17,-1,16,26,5,-6,19,47
14:16:59:761210,17,-1,16,26,5,-6,19,47
14:16:59:762018,-11,-5,-8,7,15,2,-6,-23
14:16:59:768067,-3,8,25,29,8,-9,2,-14
14:16:59:776177,-3,8,25,29,8,-9,2,-14
14:16:59:776941,5,3,-9,2,-3,11,0,-16
14:16:59:790559,-1,-3,5,15,42,12,6,-7
14:16:59:798781,-1,-3,5,15,42,12,6,-7
14:16:59:799466,4,11,13,-7,19,3,5,12
14:16:59:805495,5,0,-3,24,1,12,18,11
14:16:59:821676,5,0,-3,24,1,12,18,11
14:16:59:822448,-5,-16,2,37,-3,-43,-23,-7
14:16:59:827910,6,22,-12,-12,-16,-9,-5,27
14:16:59:836232,6,22,-12,-12,-16,-9,-5,27
14:16:59:837007,28,2,42,13,38,-2,52,57
14:16:59:850438,6,3,-5,-13,-6,-18,-43,2
14:16:59:858691,6,3,-5,-13,-6,-18,-43,2
14:16:59:859475,-6,-2,-7,4,-12,10,-25,-20
14:16:59:865526,3,-2,-21,-53,-44,4,7,-31
14:16:59:881190,3,-2,-21,-53,-44,4,7,-31
14:16:59:882008,-11,7,14,-3,-7,0,4,-7
14:16:59:888056,2,13,9,33,18,25,10,15
14:16:59:896166,2,13,9,33,18,25,10,15
14:16:59:897024,-9,-13,-8,2,5,-16,-8,-5
14:16:59:910436,-13,-11,-6,-18,-11,-37,15,-20
14:16:59:918717,-13,-11,-6,-18,-11,-37,15,-20
14:16:59:919425,-1,2,22,11,7,10,-13,-30
14:16:59:925411,-5,4,0,-1,0,-19,-35,-28
14:16:59:941207,-5,4,0,-1,0,-19,-35,-28
14:16:59:942017,24,0,-42,-19,2,9,11,20
14:16:59:947950,-12,-16,4,28,26,-14,-30,47
14:16:59:956179,-12,-16,4,28,26,-14,-30,47
14:16:59:957000,-12,-18,20,10,54,12,8,26
14:16:59:970505,10,15,0,2,44,42,40,30
14:16:59:978626,10,15,0,2,44,42,40,30
14:16:59:979432,4,14,5,-7,-14,1,-10,-3
14:16:59:985558,-15,-10,-23,-23,-34,-15,-2,-45
14:17:00:1124,-15,-10,-23,-23,-34,-15,-2,-45
14:17:00:1893,1,16,0,-19,-24,4,11,-23
14:17:00:7881,-1,14,8,6,-28,-15,12,7
14:17:00:16246,-1,14,8,6,-28,-15,12,7
14:17:00:17027,-8,-3,1,11,-1,-5,-54,-47
14:17:00:30494,-3,-10,2,-2,-8,6,18,31
14:17:00:38656,-3,-10,2,-2,-8,6,18,31
14:17:00:39431,1,1,-1,-1,-2,-16,2,8
14:17:00:45388,-3,-16,-12,15,-18,11,69,8
14:17:00:61121,-3,-16,-12,15,-18,11,69,8
14:17:00:61881,4,2,15,24,-6,16,38,24
14:17:00:68046,7,0,-11,-14,-9,-9,-5,12
14:17:00:76149,7,0,-11,-14,-9,-9,-5,12
14:17:00:76895,-17,-15,-41,3,3,-24,-3,-32
14:17:00:90488,0,-9,-18,-47,-29,-3,-23,-10
14:17:00:98723,0,-9,-18,-47,-29,-3,-23,-10
14:17:00:99400,18,18,25,-4,29,37,-10,16
14:17:00:112959,4,15,2,-10,4,-1,-7,-3
14:17:00:121217,4,15,2,-10,4,-1,-7,-3
14:17:00:121933,-18,-22,-8,-23,-6,-16,-20,-12
14:17:00:127939,2,1,31,24,18,-6,-3,-2
14:17:00:135509,2,1,31,24,18,-6,-3,-2
14:17:00:142921,-11,1,-23,-8,-28,-10,-7,11
14:17:00:150439,6,-5,-18,-14,-13,-19,-20,-25
14:17:00:158667,6,-5,-18,-14,-13,-19,-20,-25
14:17:00:159466,-17,8,31,24,-16,-7,2,-9
14:17:00:172993,-1,-1,4,10,10,47,23,8
14:17:00:181184,-1,-1,4,10,10,47,23,8
14:17:00:181913,9,8,-28,-15,0,11,16,-10
14:17:00:187946,-7,-44,-39,7,-2,-34,-13,10
14:17:00:195490,-7,-44,-39,7,-2,-34,-13,10
14:17:00:203014,-6,-2,26,11,23,-12,-31,-11
14:17:00:210413,28,-6,14,-3,-2,9,42,84
14:17:00:218755,28,-6,14,-3,-2,9,42,84
14:17:00:219490,2,-8,33,-1,-37,-36,-22,-7
14:17:00:232989,-7,6,6,-4,53,48,1,-33
14:17:00:241184,-7,6,6,-4,53,48,1,-33
14:17:00:242012,4,-6,-1,5,5,1,25,3
14:17:00:247976,-5,3,-2,19,7,-12,-6,-16
14:17:00:255545,-5,3,-2,19,7,-12,-6,-16
14:17:00:262939,4,6,-9,-9,1,3,-4,-11
14:17:00:270492,2,21,21,-3,-25,-35,-45,-21
14:17:00:278628,2,21,21,-3,-25,-35,-45,-21
14:17:00:279458,2,-7,49,21,-27,-7,23,61
14:17:00:292941,-4,1,26,16,9,10,10,-2
14:17:00:301155,-4,1,26,16,9,10,10,-2
14:17:00:302003,15,11,2,10,-23,10,42,16
14:17:00:307928,-10,3,-24,11,-29,52,13,-20
14:17:00:315611,-10,3,-24,11,-29,52,13,-20
14:17:00:322935,-16,-28,-20,18,61,26,-4,-3
14:17:00:330462,-16,1,2,-24,-18,-43,-26,17
14:17:00:338611,-16,1,2,-24,-18,-43,-26,17
14:17:00:339436,9,11,32,9,3,24,-7,2
14:17:00:352971,-17,-15,-14,-10,24,7,-14,-37
14:17:00:361135,-17,-15,-14,-10,24,7,-14,-37
14:17:00:361987,-1,2,-30,5,27,2,4,1
14:17:00:367918,13,-9,-40,5,1,-21,5,11
14:17:00:375463,13,-9,-40,5,1,-21,5,11
14:17:00:383024,-10,0,-16,-23,5,-46,4,-35
14:17:00:390482,-5,-17,11,0,-3,-34,0,31
14:17:00:398727,-5,-17,11,0,-3,-34,0,31
14:17:00:399405,7,-2,-57,-16,-40,-17,1,37
14:17:00:412957,10,-6,23,5,7,29,3,23
14:17:00:421224,10,-6,23,5,7,29,3,23
14:17:00:421933,-1,31,12,-5,6,4,11,1
14:17:00:427929,-14,-11,-16,-13,-4,-11,-2,0
14:17:00:435575,-14,-11,-16,-13,-4,-11,-2,0
14:17:00:442913,-5,-11,-6,-7,-13,-6,-22,-26
14:17:00:450423,6,10,57,20,8,12,-2,-18
14:17:00:458664,6,10,57,20,8,12,-2,-18
14:17:00:459438,11,2,-12,-49,-32,-15,-12,-6
14:17:00:473623,1,2,11,14,0,-16,-8,-28
14:17:00:474461,1,2,11,14,0,-16,-8,-28
14:17:00:480390,-14,-2,8,-19,-38,23,-32,-48
14:17:00:487985,14,6,17,20,14,-25,1,22
14:17:00:495481,14,6,17,20,14,-25,1,22
14:17:00:502993,-16,-9,-37,23,13,-61,19,11
14:17:00:510397,-1,21,14,-9,-40,5,14,-16
14:17:00:518709,-1,21,14,-9,-40,5,14,-16
14:17:00:519435,0,19,17,8,30,20,8,-1
14:17:00:533679,-1,10,-5,11,22,-21,-4,-28
14:17:00:534482,-1,10,-5,11,22,-21,-4,-28
14:17:00:540467,2,12,37,-19,22,24,9,9
14:17:00:547962,6,4,-3,-29,2,-22,-8,-3
14:17:00:555519,6,4,-3,-29,2,-22,-8,-3
14:17:00:562935,-7,-18,-11,16,-7,-12,-12,-5
14:17:00:570466,-10,-13,7,1,8,11,3,-2
14:17:00:578678,-10,-13,7,1,8,11,3,-2
14:17:00:579425,-5,4,21,13,62,-1,30,-36
14:17:00:593619,-5,-32,-24,-3,-2,-6,-6,-14
14:17:00:594405,-5,-32,-24,-3,-2,-6,-6,-14
14:17:00:600432,-7,-3,-15,-6,-31,9,2,0
14:17:00:607975,-15,-15,-12,-23,-9,9,-2,9
14:17:00:615574,-15,-15,-12,-23,-9,9,-2,9
14:17:00:622974,5,14,14,-24,-22,11,-14,18
14:17:00:630478,-11,-12,-9,-42,-10,22,-8,-10
14:17:00:638644,-11,-12,-9,-42,-10,22,-8,-10
14:17:00:639448,0,-9,5,25,9,49,3,3
14:17:00:653007,2,10,-9,14,9,12,-14,0
14:17:00:661192,2,10,-9,14,9,12,-14,0
14:17:00:662003,4,-11,4,-4,20,4,29,11
14:17:00:667981,2,0,4,8,-16,-33,-37,-12
14:17:00:675475,2,0,4,8,-16,-33,-37,-12
14:17:00:683038,12,-1,-22,-5,-14,5,-9,21
14:17:00:690454,-17,-8,-38,-19,-34,-5,4,20
14:17:00:698782,-17,-8,-38,-19,-34,-5,4,20
14:17:00:699426,-7,-20,35,18,4,-5,-3,5
14:17:00:713602,17,19,3,19,22,46,14,23
14:17:00:714392,17,19,3,19,22,46,14,23
14:17:00:720547,3,5,23,-15,7,-15,-18,-22
14:17:00:727967,-5,4,19,12,3,-18,-1,-10
14:17:00:735593,-5,4,19,12,3,-18,-1,-10
14:17:00:742934,-3,13,0,-20,-12,-1,-22,-36
14:17:00:750448,0,-4,31,18,8,-4,26,25
14:17:00:758655,0,-4,31,18,8,-4,26,25
14:17:00:759471,-15,-11,-47,-36,-6,0,-20,-4
14:17:00:773636,0,3,-32,-23,-24,-21,4,0
14:17:00:774490,0,3,-32,-23,-24,-21,4,0
14:17:00:780425,13,11,-2,47,0,-31,3,25
14:17:00:788024,5,-1,35,10,9,68,-7,9
14:17:00:795509,5,-1,35,10,9,68,-7,9
14:17:00:803048,2,-15,-30,10,20,6,-2,12
14:17:00:810427,10,6,0,10,8,4,-1,-33
14:17:00:818722,10,6,0,10,8,4,-1,-33
14:17:00:819447,4,-23,-5,10,6,14,3,-1
14:17:00:833719,-4,-6,-6,-55,-7,-9,-3,3
14:17:00:834444,-4,-6,-6,-55,-7,-9,-3,3
14:17:00:840452,6,11,20,8,31,7,5,36
14:17:00:847936,-10,10,0,14,-9,-18,-13,-59
14:17:00:855548,-10,10,0,14,-9,-18,-13,-59
14:17:00:862920,4,4,-42,-5,-21,0,20,14
14:17:00:870521,-10,-7,-20,24,5,-5,13,-2
14:17:00:878657,-10,-7,-20,24,5,-5,13,-2
14:17:00:879450,-17,0,43,-7,-36,2,0,-4
14:17:00:893619,-14,5,-27,-27,-51,-104,11,-18
14:17:00:894466,-14,5,-27,-27,-51,-104,11,-18
14:17:00:900513,20,20,18,1,-28,17,-17,1
14:17:00:907957,-11,-8,8,20,37,38,-32,-4
14:17:00:915623,-11,-8,8,20,37,38,-32,-4
14:17:00:922947,-6,-11,6,-29,-45,-43,2,20
14:17:00:930416,2,-5,-25,-18,-9,11,-5,-30
14:17:00:938628,2,-5,-25,-18,-9,11,-5,-30
14:17:00:939409,-15,-10,10,42,12,19,-22,-59
14:17:00:953025,6,5,-13,-7,6,-19,0,44
14:17:00:961132,6,5,-13,-7,6,-19,0,44
14:17:00:961979,9,4,-21,-9,19,-35,13,18
14:17:00:968030,3,-15,27,22,1,-14,-13,-7
14:17:00:975488,3,-15,27,22,1,-14,-13,-7
14:17:00:983026,8,6,7,0,-35,-1,-5,35
14:17:00:990505,8,15,26,8,-3,27,-24,-2
14:17:00:998753,8,15,26,8,-3,27,-24,-2
14:17:00:999447,-1,-4,-10,23,-6,-9,-16,-7
14:17:01:13635,10,-4,-18,-12,8,25,5,-4
14:17:01:14384,10,-4,-18,-12,8,25,5,-4
14:17:01:20560,-7,-1,6,24,16,6,1,-16
14:17:01:27945,-10,-3,-5,9,3,3,-2,-48
14:17:01:35554,-10,-3,-5,9,3,3,-2,-48
14:17:01:42933,2,-2,7,-1,27,-3,9,27
14:17:01:50414,2,2,-2,33,66,38,1,20
14:17:01:58064,2,2,-2,33,66,38,1,20
14:17:01:65525,5,0,-18,-17,7,-48,16,-39
14:17:01:73655,-3,-5,3,3,-9,19,37,29
14:17:01:74457,-3,-5,3,3,-9,19,37,29
14:17:01:80424,-9,-14,-41,-42,-6,25,-9,21
14:17:01:96114,3,-3,-29,-32,-46,-9,4,33
14:17:01:97001,3,-3,-29,-32,-46,-9,4,33
14:17:01:103014,-7,9,-12,-16,-9,10,-12,-36
14:17:01:110406,1,5,-1,-6,-16,-24,0,-3
14:17:01:118079,1,5,-1,-6,-16,-24,0,-3
14:17:01:125443,4,-1,20,5,27,8,29,7
14:17:01:133720,-3,12,16,12,46,18,-3,4
14:17:01:134467,-3,12,16,12,46,18,-3,4
14:17:01:140445,-11,-14,19,-41,-19,-8,-29,-53
14:17:01:156146,-8,2,33,-12,-22,-13,10,-9
14:17:01:157060,-8,2,33,-12,-22,-13,10,-9
14:17:01:162972,-16,4,6,20,14,-18,27,47
14:17:01:170537,36,7,39,-9,-21,-11,-16,18
14:17:01:178052,36,7,39,-9,-21,-11,-16,18
14:17:01:185540,-3,-28,-24,-11,-18,23,-22,-6
14:17:01:193570,-13,5,-2,-26,-36,-41,-1,1
14:17:01:194419,-13,5,-2,-26,-36,-41,-1,1
14:17:01:200457,5,18,8,-17,15,13,-5,-16
14:17:01:216186,-4,-3,-12,23,13,-18,-8,-32
14:17:01:216886,-4,-3,-12,23,13,-18,-8,-32
14:17:01:222938,-14,-6,-10,19,-4,-22,-6,-30
14:17:01:230450,4,-4,3,3,-11,-12,2,30
14:17:01:238040,4,-4,3,3,-11,-12,2,30
14:17:01:245450,-21,-23,2,-8,-37,-28,-47,-29
14:17:01:253031,-9,-17,-15,-3,-5,1,9,0
14:17:01:261137,-9,-17,-15,-3,-5,1,9,0
14:17:01:261915,-9,-1,27,-2,-30,30,-14,3
14:17:01:276143,-6,2,21,36,22,35,12,11
14:17:01:276911,-6,2,21,36,22,35,12,11
14:17:01:282998,9,9,1,21,35,4,20,2
14:17:01:290453,13,4,9,-22,26,31,13,62
14:17:01:298028,13,4,9,-22,26,31,13,62
14:17:01:305427,9,19,21,20,-4,-12,-16,-24
14:17:01:313649,-2,1,7,4,-11,-16,-11,-32
14:17:01:314459,-2,1,7,4,-11,-16,-11,-32
14:17:01:320504,-4,-14,-20,-28,2,-8,-3,-26
14:17:01:336197,1,-15,-9,9,-9,0,-48,-29
14:17:01:336949,1,-15,-9,9,-9,0,-48,-29
14:17:01:342878,-5,2,-15,14,2,46,-10,18
14:17:01:350445,-27,-11,19,-11,33,-3,-4,-41
14:17:01:358065,-27,-11,19,-11,33,-3,-4,-41
14:17:01:365500,13,5,-15,-2,6,26,12,15
14:17:01:373649,2,-11,-31,-19,22,-43,-11,11
14:17:01:374450,2,-11,-31,-19,22,-43,-11,11
14:17:01:380419,8,9,16,20,33,58,25,-9
14:17:01:396163,2,1,-16,-9,-40,-47,-13,-14
14:17:01:397056,2,1,-16,-9,-40,-47,-13,-14
14:17:01:403008,12,4,20,-2,-24,-16,22,59
14:17:01:410399,-27,16,1,-12,-6,6,-14,-27
14:17:01:418089,-27,16,1,-12,-6,6,-14,-27
14:17:01:425448,8,-20,-74,-9,-23,-32,32,-11
14:17:01:432982,-15,0,3,16,-11,17,12,-28
14:17:01:441235,-15,0,3,16,-11,17,12,-28
14:17:01:442073,-3,5,26,-13,12,-10,7,9
14:17:01:456215,7,-3,-13,15,17,26,13,3
14:17:01:457066,7,-3,-13,15,17,26,13,3
14:17:01:462917,0,-15,-27,-55,-54,-80,-32,-3
14:17:01:470763,8,9,14,19,2,30,7,25
14:17:01:478012,8,9,14,19,2,30,7,25
14:17:01:485507,0,5,-38,-5,-24,27,-8,-12
14:17:01:492965,-7,-1,-14,-25,-37,-17,29,-36
14:17:01:501183,-7,-1,-14,-25,-37,-17,29,-36
14:17:01:501974,-2,-9,4,17,-16,-5,-11,-5
14:17:01:516213,17,-9,-2,-23,-8,-2,9,47
14:17:01:516935,17,-9,-2,-23,-8,-2,9,47
14:17:01:522961,-13,9,-20,13,21,20,15,-25
14:17:01:530447,-3,-11,-5,24,2,-10,36,32
14:17:01:538036,-3,-11,-5,24,2,-10,36,32
14:17:01:545474,1,-21,-4,7,48,-4,4,21
14:17:01:553060,-5,-8,16,-11,-14,17,-13,-15
14:17:01:561115,-5,-8,16,-11,-14,17,-13,-15
14:17:01:561901,2,7,28,-1,-3,0,33,22
14:17:01:576153,25,-6,-33,-28,13,20,-6,35
14:17:01:576901,25,-6,-33,-28,13,20,-6,35
14:17:01:582960,6,0,34,3,-16,-9,-25,1
14:17:01:590492,5,20,3,13,8,3,-11,24
14:17:01:598021,5,20,3,13,8,3,-11,24
14:17:01:605430,-3,-6,-47,-12,-3,-27,-21,-3
14:17:01:613686,2,6,13,55,22,3,22,0
14:17:01:614441,2,6,13,55,22,3,22,0
14:17:01:620509,4,5,51,12,47,28,46,16
14:17:01:636232,2,13,11,-20,-24,-14,21,-15
14:17:01:636981,2,13,11,-20,-24,-14,21,-15
14:17:01:642919,-1,6,8,29,-2,-30,-22,18
14:17:01:650479,-15,-9,8,7,19,19,36,24
14:17:01:658055,-15,-9,8,7,19,19,36,24
14:17:01:665499,-13,-33,-4,-3,-4,3,24,16
14:17:01:673695,29,-1,-6,-19,-5,-12,-25,5
14:17:01:674460,29,-1,-6,-19,-5,-12,-25,5
14:17:01:680428,-14,8,-8,-19,-1,3,21,20
14:17:01:696143,-13,-12,-23,-39,11,28,-12,-24
14:17:01:697011,-13,-12,-23,-39,11,28,-12,-24
14:17:01:702978,0,5,7,30,80,37,-21,-31
14:17:01:710416,-2,4,-8,20,17,-18,-2,-13
14:17:01:718148,-2,4,-8,20,17,-18,-2,-13
14:17:01:725442,-9,-9,-6,-37,-25,-14,-11,-22
14:17:01:732959,-15,-10,-33,-25,-30,-4,-32,-29
14:17:01:741174,-15,-10,-33,-25,-30,-4,-32,-29
14:17:01:742021,20,21,14,2,-36,-76,-7,7
14:17:01:756149,-13,9,24,20,28,12,12,-84
14:17:01:757036,-13,9,24,20,28,12,12,-84
14:17:01:762939,3,7,-32,-5,14,13,-25,-36
14:17:01:770539,11,28,4,16,-16,-10,7,13
14:17:01:778023,11,28,4,16,-16,-10,7,13
14:17:01:785496,-13,5,36,-4,-11,24,0,6
14:17:01:792969,-10,-15,-14,-19,19,-26,-7,13
14:17:01:801197,-10,-15,-14,-19,19,-26,-7,13
14:17:01:801900,14,29,4,20,-18,9,-18,-7
14:17:01:816143,-7,-17,-12,-13,-34,4,-3,55
14:17:01:816887,-7,-17,-12,-13,-34,4,-3,55
14:17:01:822941,-4,-6,5,33,50,33,-5,5
14:17:01:830474,0,-22,-19,2,1,-46,-8,24
14:17:01:838019,0,-22,-19,2,1,-46,-8,24
14:17:01:845454,15,-17,-53,-7,16,23,13,26
14:17:01:853018,0,-19,15,4,-1,9,-34,-46
14:17:01:861124,0,-19,15,4,-1,9,-34,-46
14:17:01:861911,-12,1,3,2,4,-9,-12,-25
14:17:01:876136,4,4,-20,0,9,20,24,-7
14:17:01:876892,4,4,-20,0,9,20,24,-7
14:17:01:882919,0,-16,-11,-37,-27,-3,-14,2
14:17:01:890487,0,14,-1,14,-17,-21,-10,-17
14:17:01:897984,0,14,-1,14,-17,-21,-10,-17
14:17:01:905464,1,3,20,22,-1,-2,9,3
14:17:01:913691,-1,14,14,4,-5,4,6,8
14:17:01:914449,-1,14,14,4,-5,4,6,8
14:17:01:920482,-8,-6,11,-15,-19,-25,-4,8
14:17:01:936204,-7,-8,25,3,-12,15,-22,-10
14:17:01:936926,-7,-8,25,3,-12,15,-22,-10
14:17:01:942892,25,18,26,11,25,22,14,20
14:17:01:950427,-3,30,21,-13,-15,3,13,-25
14:17:01:958058,-3,30,21,-13,-15,3,13,-25
14:17:01:965515,-12,-13,-12,11,-12,-4,6,-52
14:17:01:973675,-6,-10,-41,-35,-27,-21,-41,-19
14:17:01:974442,-6,-10,-41,-35,-27,-21,-41,-19
14:17:01:980452,-2,14,-3,-75,-18,-19,40,12
14:17:01:996142,-11,-15,-11,-12,-39,-22,-31,5
14:17:01:996918,-11,-15,-11,-12,-39,-22,-31,5
14:17:02:3021,23,-1,-14,-11,-17,24,5,27
14:17:02:18730,-7,-4,-1,20,26,4,2,-19
14:17:02:19422,-7,-4,-1,20,26,4,2,-19
14:17:02:25403,-17,-7,-4,-8,-3,-9,-7,-19
14:17:02:33706,4,-35,-47,-5,-13,-10,-15,1
14:17:02:34453,4,-35,-47,-5,-13,-10,-15,1
14:17:02:47958,-28,-24,5,17,43,26,-20,-59
14:17:02:56160,-2,-6,-45,0,26,10,17,36
14:17:02:56955,-2,-6,-45,0,26,10,17,36
14:17:02:62901,-21,7,-44,-16,-31,-5,-22,-32
14:17:02:78650,1,22,30,3,30,1,22,18
14:17:02:79411,1,22,30,3,30,1,22,18
14:17:02:85509,-1,12,22,13,9,29,-40,-28
14:17:02:93608,12,13,25,5,-2,-3,-6,27
14:17:02:94462,12,13,25,5,-2,-3,-6,27
14:17:02:107992,-2,-18,23,18,-34,-59,-23,13
14:17:02:116143,1,21,24,17,14,-40,-11,6
14:17:02:116922,1,21,24,17,14,-40,-11,6
14:17:02:122941,12,13,25,31,44,37,10,19
14:17:02:138649,-9,-4,39,-7,-4,11,11,2
14:17:02:139473,-9,-4,39,-7,-4,11,11,2
14:17:02:145374,6,6,-48,-6,-32,-40,11,32
14:17:02:153036,-28,-26,-18,-16,18,13,12,-35
14:17:02:160441,-28,-26,-18,-16,18,13,12,-35
14:17:02:168004,-6,-8,-40,-51,2,27,-27,-35
14:17:02:176124,7,-1,-6,29,13,6,2,45
14:17:02:176904,7,-1,-6,29,13,6,2,45
14:17:02:183028,13,1,5,6,12,-8,31,33
14:17:02:198736,20,16,-22,7,-16,5,-7,14
14:17:02:199457,20,16,-22,7,-16,5,-7,14
14:17:02:205471,-14,-4,-1,27,6,-28,-10,-10
14:17:02:213636,-2,-4,-8,1,0,15,9,-44
14:17:02:214461,-2,-4,-8,1,0,15,9,-44
14:17:02:227893,-4,-20,-29,-43,-30,-37,-29,-9
14:17:02:236260,-1,1,29,3,23,22,10,-5
14:17:02:236976,-1,1,29,3,23,22,10,-5
14:17:02:242946,4,3,15,-1,-3,8,10,6
14:17:02:258668,20,17,-4,-13,-9,13,11,-1
14:17:02:259454,20,17,-4,-13,-9,13,11,-1
14:17:02:265521,-5,-17,3,13,-13,-1,25,60
14:17:02:273627,14,-10,-13,3,-26,-21,59,29
14:17:02:274438,14,-10,-13,3,-26,-21,59,29
14:17:02:288029,6,2,10,12,-3,15,5,-37
14:17:02:296128,6,2,10,12,-3,15,5,-37
14:17:02:296921,-17,5,22,18,4,-6,-6,36
14:17:02:303017,-9,6,2,-10,1,-2,-1,25
14:17:02:318702,-9,6,2,-10,1,-2,-1,25
14:17:02:319455,-3,-25,-13,-71,-33,-17,-24,-16
14:17:02:325445,-14,-48,-15,37,17,13,-2,8
14:17:02:333032,-14,-48,-15,37,17,13,-2,8
14:17:02:340467,-10,-16,-19,-7,0,-6,-10,-23
14:17:02:347962,12,31,0,-22,-27,-9,-6,-11
14:17:02:356199,12,31,0,-22,-27,-9,-6,-11
14:17:02:356942,2,-2,8,29,24,-7,10,16
14:17:02:362931,3,23,10,-3,-6,-22,-7,-20
14:17:02:378677,3,23,10,-3,-6,-22,-7,-20
14:17:02:379414,17,15,-15,-13,-11,20,-2,48
14:17:02:385498,23,9,-28,-22,-10,-47,-11,17
14:17:02:393631,23,9,-28,-22,-10,-47,-11,17
14:17:02:394444,-1,-1,10,45,41,-4,2,-50
14:17:02:407940,-12,1,35,25,38,57,45,7
14:17:02:416266,-12,1,35,25,38,57,45,7
14:17:02:416997,1,20,47,-20,-59,-12,-22,42
14:17:02:422952,15,5,29,-18,-16,-7,11,42
14:17:02:438707,15,5,29,-18,-16,-7,11,42
14:17:02:439475,-8,-4,0,3,16,-8,-12,-6
14:17:02:445398,-2,10,0,-13,-15,-9,-7,-10
14:17:02:453094,-2,10,0,-13,-15,-9,-7,-10
14:17:02:460409,-3,-7,23,18,34,35,10,-37
14:17:02:468013,6,5,12,9,-11,11,-14,12
14:17:02:476177,6,5,12,9,-11,11,-14,12
14:17:02:476915,-15,0,-24,-10,-13,-9,-31,-78
14:17:02:483024,4,-12,-26,-7,1,19,15,13
14:17:02:498802,4,-12,-26,-7,1,19,15,13
14:17:02:499420,2,-10,6,-8,6,44,17,1
14:17:02:505466,-4,-12,6,42,-16,-68,-36,-6
14:17:02:513683,-4,-12,6,42,-16,-68,-36,-6
14:17:02:514481,2,6,4,16,15,22,5,8
14:17:02:527887,-13,-6,-10,4,10,17,-7,-18
14:17:02:536271,-13,-6,-10,4,10,17,-7,-18
14:17:02:536975,0,-2,-25,-12,-21,-3,-15,8
14:17:02:542932,-9,3,2,-37,-8,-2,6,-19
14:17:02:558661,-9,3,2,-37,-8,-2,6,-19
14:17:02:559437,-12,3,4,-2,-13,-2,-20,-50
14:17:02:565525,-11,-32,-24,13,24,24,56,5
14:17:02:573015,-11,-32,-24,13,24,24,56,5
14:17:02:580409,28,8,-40,-5,-5,-11,9,27
14:17:02:588031,-12,1,-9,-30,0,-2,-18,-30
14:17:02:596135,-12,1,-9,-30,0,-2,-18,-30
14:17:02:596941,-8,-6,-16,-11,-25,-25,-22,-30
14:17:02:603019,-3,22,24,22,52,52,29,12
14:17:02:618717,-3,22,24,22,52,52,29,12
14:17:02:619413,-9,-13,-3,-29,9,-65,-36,-19
14:17:02:625425,21,6,13,18,-9,-7,-54,66
14:17:02:633139,21,6,13,18,-9,-7,-54,66
14:17:02:640438,12,14,70,7,9,18,31,32
14:17:02:647944,-3,11,-7,-6,-7,1,-6,-46
14:17:02:656209,-3,11,-7,-6,-7,1,-6,-46
14:17:02:657067,-18,-24,13,-26,6,-3,-7,-9
14:17:02:662960,8,-4,-15,-13,1,7,6,9
14:17:02:678625,8,-4,-15,-13,1,7,6,9
14:17:02:679464,1,8,-18,18,19,-8,18,14
14:17:02:685516,-4,-2,-2,-6,-15,1,-10,-11
14:17:02:693676,-4,-2,-2,-6,-15,1,-10,-11
14:17:02:694466,-25,1,48,12,-16,1,-32,-25
14:17:02:707957,-1,-26,-9,4,-14,12,65,42
14:17:02:716248,-1,-26,-9,4,-14,12,65,42
14:17:02:717048,-2,-6,-9,-1,-5,-31,47,30
14:17:02:722951,-6,15,12,15,-12,-15,13,-38
14:17:02:738669,-6,15,12,15,-12,-15,13,-38
14:17:02:739456,9,-6,-4,0,-19,-55,2,1
14:17:02:745416,5,15,28,4,22,-18,-32,-10
14:17:02:753126,5,15,28,4,22,-18,-32,-10
14:17:02:760471,-3,-16,-3,1,-8,32,-11,-4
14:17:02:768010,-7,-18,-15,-4,-7,-14,-16,-6
14:17:02:776156,-7,-18,-15,-4,-7,-14,-16,-6
14:17:02:776887,8,10,-6,1,1,3,7,29
14:17:02:783010,-2,0,-14,-6,-9,40,-1,-6
14:17:02:798806,-2,0,-14,-6,-9,40,-1,-6
14:17:02:799472,3,6,45,27,31,21,8,-8
14:17:02:805496,19,5,-8,6,25,14,-38,-4
14:17:02:813678,19,5,-8,6,25,14,-38,-4
14:17:02:814433,9,-4,-43,-11,-14,-4,-31,-7
14:17:02:827921,-9,0,-11,-4,-29,-56,74,50
14:17:02:836298,-9,0,-11,-4,-29,-56,74,50
14:17:02:837045,2,-2,6,10,-5,4,17,-26
14:17:02:842937,7,10,17,2,-50,-54,-63,-38
14:17:02:858697,7,10,17,2,-50,-54,-63,-38
14:17:02:859480,2,8,15,-7,32,13,1,21
14:17:02:865511,-8,-4,2,-15,12,-7,-4,-6
14:17:02:873709,-8,-4,2,-15,12,-7,-4,-6
14:17:02:874475,-5,8,19,21,10,2,-21,-6
14:17:02:888012,1,-7,-5,-1,16,22,20,19
14:17:02:896144,1,-7,-5,-1,16,22,20,19
14:17:02:896989,0,2,-26,16,-10,1,-6,-9
14:17:02:903026,-19,-17,22,1,7,3,-4,23
14:17:02:918758,-19,-17,22,1,7,3,-4,23
14:17:02:919428,20,30,-23,-25,-14,19,10,3
14:17:02:925424,-27,-2,-5,-7,-28,-25,14,-66
14:17:02:933729,-27,-2,-5,-7,-28,-25,14,-66
14:17:02:934425,-25,-3,0,-5,-9,10,5,6
14:17:02:947943,-12,-21,-18,3,-6,-19,-19,-35
14:17:02:956189,-12,-21,-18,3,-6,-19,-19,-35
14:17:02:956958,-3,-5,0,-7,11,11,10,-6
14:17:02:970497,-4,-16,2,26,15,1,-17,-9
14:17:02:978664,-4,-16,2,26,15,1,-17,-9
14:17:02:979421,-3,-13,-12,-13,-5,-1,35,20
14:17:02:985546,13,19,6,11,6,-2,4,2
14:17:02:993089,13,19,6,11,6,-2,4,2
14:17:03:513,-8,1,-18,-23,-18,26,-66,-29
14:17:03:7980,6,6,-1,-13,-23,-6,29,4
14:17:03:16269,6,6,-1,-13,-23,-6,29,4
14:17:03:16945,-10,-10,-36,-14,0,-2,-20,-16
14:17:03:30472,18,-8,-20,-18,-12,35,-35,-27
14:17:03:38696,18,-8,-20,-18,-12,35,-35,-27
14:17:03:39472,19,12,-9,14,1,4,-6,-10
14:17:03:45413,1,15,51,29,48,41,8,6
14:17:03:61156,1,15,51,29,48,41,8,6
14:17:03:61932,-4,-18,-9,-1,6,-8,10,10
14:17:03:67919,6,21,-5,-7,-16,10,-3,12
14:17:03:76220,6,21,-5,-7,-16,10,-3,12
14:17:03:76927,-5,-18,-8,-40,-13,-16,-3,6
14:17:03:90472,-5,-3,-14,3,-23,32,1,11
14:17:03:98756,-5,-3,-14,3,-23,32,1,11
14:17:03:99439,6,7,15,16,27,-12,8,60
14:17:03:105473,-1,-3,36,-13,5,4,-24,12
14:17:03:113040,-1,-3,36,-13,5,4,-24,12
14:17:03:120545,-5,7,32,-1,-7,15,-6,-48
14:17:03:127906,-3,-6,-17,-18,-9,-15,-28,-33
14:17:03:136281,-3,-6,-17,-18,-9,-15,-28,-33
14:17:03:137074,-2,-2,-21,-3,3,-21,25,4
14:17:03:150451,-1,6,-34,2,55,3,0,-24
14:17:03:158675,-1,6,-34,2,55,3,0,-24
14:17:03:159493,-9,-4,17,12,11,-4,-13,10
14:17:03:165532,-2,-10,-37,-7,-1,12,12,20
14:17:03:173083,-2,-10,-37,-7,-1,12,12,20
14:17:03:180478,2,3,14,6,-24,-14,-10,-10
14:17:03:188053,-4,0,9,-34,-21,-16,7,30
14:17:03:196174,-4,0,9,-34,-21,-16,7,30
14:17:03:196955,7,10,-7,-5,7,18,1,-7
14:17:03:210442,-6,1,-14,17,9,-10,15,9
14:17:03:218795,-6,1,-14,17,9,-10,15,9
14:17:03:219500,11,4,-18,15,5,3,-5,23
14:17:03:225462,-2,-3,11,-12,1,12,0,31
14:17:03:233052,-2,-3,11,-12,1,12,0,31
14:17:03:240477,-23,-9,-4,5,33,16,-25,-22
14:17:03:247984,-3,7,9,8,51,16,-16,12
14:17:03:256166,-3,7,9,8,51,16,-16,12
14:17:03:256924,-10,-17,-15,-7,-5,-15,-6,-6
14:17:03:270550,-7,-16,-37,-12,3,2,3,4
14:17:03:278619,-7,-16,-37,-12,3,2,3,4
14:17:03:279399,0,-14,-26,-32,-4,1,7,13
14:17:03:285548,3,1,34,0,-42,-24,2,-16
14:17:03:292998,3,1,34,0,-42,-24,2,-16
14:17:03:300484,9,10,28,-9,-31,-9,29,21
14:17:03:307913,5,-6,-9,21,27,3,0,-32
14:17:03:316217,5,-6,-9,21,27,3,0,-32
14:17:03:316935,6,1,-1,23,-11,-16,17,22
14:17:03:330484,11,7,-37,-13,-15,21,41,64
14:17:03:338668,11,7,-37,-13,-15,21,41,64
14:17:03:339408,14,-9,-30,-10,-25,-38,8,14
14:17:03:345387,-24,-9,14,-13,-61,-54,-29,-40
14:17:03:353138,-24,-9,14,-13,-61,-54,-29,-40
14:17:03:360391,22,17,52,21,23,-3,16,51
14:17:03:368005,-2,-12,20,-13,-21,-23,-7,-18
14:17:03:376173,-2,-12,20,-13,-21,-23,-7,-18
14:17:03:376915,1,0,-4,14,24,22,-4,-33
14:17:03:390425,11,4,6,-4,29,1,9,24
14:17:03:398751,11,4,6,-4,29,1,9,24
14:17:03:399421,-16,-11,-16,-21,-7,7,-18,-19
14:17:03:405437,-7,-2,11,-16,-30,-14,-13,-8
14:17:03:413091,-7,-2,11,-16,-30,-14,-13,-8
14:17:03:420488,-8,-6,-6,-15,7,13,-4,-47
14:17:03:427902,4,6,8,-27,-13,-11,-8,-1
14:17:03:436204,4,6,8,-27,-13,-11,-8,-1
14:17:03:436884,-24,-25,2,-12,-28,-3,-6,-35
14:17:03:450423,9,-1,-16,18,15,-3,-17,-24
14:17:03:458682,9,-1,-16,18,15,-3,-17,-24
14:17:03:459504,6,8,-14,-3,-1,17,7,4
14:17:03:465506,1,-3,11,-7,-28,0,3,6
14:17:03:473105,1,-3,11,-7,-28,0,3,6
14:17:03:480473,-5,2,3,-4,8,31,-26,-6
14:17:03:488048,0,-6,-6,2,82,25,-4,-23
14:17:03:496119,0,-6,-6,2,82,25,-4,-23
14:17:03:496879,3,-12,4,7,14,-13,18,17
14:17:03:510515,-13,8,12,11,-28,-24,-26,-25
14:17:03:518660,-13,8,12,11,-28,-24,-26,-25
14:17:03:519396,-4,9,4,3,23,-1,-12,-6
14:17:03:525440,-4,-1,9,59,-7,-37,9,-19
14:17:03:533048,-4,-1,9,59,-7,-37,9,-19
14:17:03:540404,2,11,-2,16,-30,-10,17,14
14:17:03:547971,-1,4,1,21,15,30,7,4
14:17:03:556145,-1,4,1,21,15,30,7,4
14:17:03:556915,2,6,1,-4,-10,3,20,14
14:17:03:570547,-2,9,-3,-11,-35,-24,-19,20
14:17:03:578614,-2,9,-3,-11,-35,-24,-19,20
14:17:03:579372,17,-4,14,17,-7,-10,11,41
14:17:03:585466,7,17,20,9,17,19,12,26
14:17:03:592996,7,17,20,9,17,19,12,26
14:17:03:600497,-14,8,3,18,-3,-7,-27,-42
14:17:03:607904,-2,0,-29,-43,3,-5,-9,-5
14:17:03:616193,-2,0,-29,-43,3,-5,-9,-5
14:17:03:616920,-6,1,-7,27,48,65,-4,-11
14:17:03:630397,-4,0,3,-16,13,36,-5,-11
14:17:03:638607,-4,0,3,-16,13,36,-5,-11
14:17:03:639415,0,-8,-15,-52,-37,-14,0,5
14:17:03:645396,1,-21,11,15,-39,-20,7,12
14:17:03:653025,1,-21,11,15,-39,-20,7,12
14:17:03:660425,-3,5,12,-22,-14,-14,13,16
14:17:03:667965,22,0,18,-3,-32,-41,1,-13
14:17:03:676219,22,0,18,-3,-32,-41,1,-13
14:17:03:676908,2,-20,-62,-2,16,-6,11,35
14:17:03:690447,-9,-2,25,9,7,-8,-8,13
14:17:03:698787,-9,-2,25,9,7,-8,-8,13
14:17:03:699436,0,-7,7,-9,5,-19,-1,29
14:17:03:705421,-5,16,-20,9,28,25,12,-32
14:17:03:713075,-5,16,-20,9,28,25,12,-32
14:17:03:720514,-10,-2,10,5,-10,-2,-44,-17
14:17:03:727888,6,1,-8,24,-18,-2,-29,20
14:17:03:736210,6,1,-8,24,-18,-2,-29,20
14:17:03:736941,-6,-13,-6,6,-5,1,-6,-24
14:17:03:750497,-14,-20,-21,-24,-1,3,28,7
14:17:03:758686,-14,-20,-21,-24,-1,3,28,7
14:17:03:759463,-2,2,8,-12,-18,-30,-18,-69
14:17:03:765508,-15,7,84,1,7,10,-20,-39
14:17:03:773008,-15,7,84,1,7,10,-20,-39
14:17:03:780455,10,2,0,-27,-35,-11,11,2
14:17:03:788048,12,4,-29,-18,3,35,18,10
14:17:03:796172,12,4,-29,-18,3,35,18,10
14:17:03:796972,3,7,32,25,19,-23,-9,-31
14:17:03:810472,-5,-8,-22,1,-5,-10,5,29
14:17:03:818695,-5,-8,-22,1,-5,-10,5,29
14:17:03:819389,28,10,-11,2,-27,-4,44,46
14:17:03:825413,3,-6,8,0,-7,34,-6,-18
14:17:03:833028,3,-6,8,0,-7,34,-6,-18
14:17:03:840451,20,4,8,16,-6,11,-29,-66
14:17:03:847938,-7,2,-22,1,4,-24,15,4
14:17:03:856169,-7,2,-22,1,4,-24,15,4
14:17:03:856935,-24,-3,5,1,0,-17,-18,36
14:17:03:870554,-8,-13,1,28,19,0,-16,-49
14:17:03:878621,-8,-13,1,28,19,0,-16,-49
14:17:03:879404,-7,-23,-42,-26,6,5,27,6
14:17:03:885490,-7,-3,-19,-6,-11,-16,1,32
14:17:03:892978,-7,-3,-19,-6,-11,-16,1,32
14:17:03:900570,-8,-19,-46,-8,-10,14,4,5
14:17:03:907933,-4,-9,-34,-43,-3,-17,-59,-22
14:17:03:915602,-4,-9,-34,-43,-3,-17,-59,-22
14:17:03:922986,-1,9,13,-9,44,37,50,44
14:17:03:930471,12,5,-19,6,14,4,11,51
14:17:03:938754,12,5,-19,6,14,4,11,51
14:17:03:939463,-20,-4,9,11,0,-26,-36,-57
14:17:03:953695,-12,-3,19,0,4,-18,-10,-17
14:17:03:954434,-12,-3,19,0,4,-18,-10,-17
14:17:03:960388,0,15,47,59,30,18,31,-6
14:17:03:967938,11,-4,8,15,17,5,3,-14
14:17:03:975501,11,-4,8,15,17,5,3,-14
14:17:03:982969,3,3,12,-13,-42,-49,-26,25
14:17:03:990428,-5,-6,-25,-19,-19,-19,2,1
14:17:03:998736,-5,-6,-25,-19,-19,-19,2,1
14:17:03:999387,11,8,20,26,24,24,-7,4
14:17:04:13636,-11,-13,-18,-18,-12,11,16,-20
14:17:04:14451,-11,-13,-18,-18,-12,11,16,-20
14:17:04:20474,-22,1,-31,-17,-9,2,-4,4
14:17:04:27917,6,6,26,30,32,14,17,7
14:17:04:35568,6,6,26,30,32,14,17,7
14:17:04:42973,12,-2,-5,-11,20,24,5,-2
14:17:04:50444,2,4,-15,-8,-12,-6,-13,-17
14:17:04:58640,2,4,-15,-8,-12,-6,-13,-17
14:17:04:59404,-6,6,20,-28,-18,-10,25,-12
14:17:04:73614,14,4,-15,-26,1,-1,43,50
14:17:04:74428,14,4,-15,-26,1,-1,43,50
14:17:04:80482,-5,4,-17,-24,-30,-79,25,3
14:17:04:88036,-14,-1,19,7,-8,2,-29,-35
14:17:04:95445,-14,-1,19,7,-8,2,-29,-35
14:17:04:102980,-17,-13,-14,-14,-22,35,-27,-18
14:17:04:110418,5,-6,1,-4,-14,-11,1,2
14:17:04:118679,5,-6,1,-4,-14,-11,1,2
14:17:04:119404,-6,-3,8,21,18,5,-12,13
14:17:04:133658,11,18,-9,-26,-1,2,-5,-15
14:17:04:134420,11,18,-9,-26,-1,2,-5,-15
14:17:04:140386,15,15,-21,22,12,19,-11,-11
14:17:04:147911,-4,-8,-15,8,-20,7,53,38
14:17:04:155460,-4,-8,-15,8,-20,7,53,38
14:17:04:162946,17,9,10,5,3,-48,-39,33
14:17:04:170535,0,-2,29,37,29,24,18,41
14:17:04:178663,0,-2,29,37,29,24,18,41
14:17:04:179408,0,-5,-12,-27,-4,-39,-35,-68
14:17:04:193606,-7,1,5,11,8,-16,-12,2
14:17:04:194433,-7,1,5,11,8,-16,-12,2
14:17:04:200403,-10,-4,27,3,-15,28,7,12
14:17:04:207937,-1,15,17,-35,-1,2,-14,-10
14:17:04:215558,-1,15,17,-35,-1,2,-14,-10
14:17:04:222963,-9,-22,-60,9,21,10,11,3
14:17:04:230443,-1,-12,27,-23,-28,12,-38,-38
14:17:04:238699,-1,-12,27,-23,-28,12,-38,-38
14:17:04:239492,2,23,34,-2,5,-8,11,-4
14:17:04:253731,-8,-10,-3,18,4,-24,-28,-16
14:17:04:254510,-8,-10,-3,18,4,-24,-28,-16
14:17:04:260439,-15,-8,9,5,-10,23,29,11
14:17:04:268047,-4,-6,-27,14,12,15,-1,-19
14:17:04:275531,-4,-6,-27,14,12,15,-1,-19
14:17:04:283038,1,-4,38,35,-2,11,5,25
14:17:04:290468,12,16,16,29,0,-35,-16,-41
14:17:04:298730,12,16,16,29,0,-35,-16,-41
14:17:04:299382,-12,-20,-17,-4,-22,23,18,7
14:17:04:313633,7,-2,-17,-5,35,36,-7,4
14:17:04:314453,7,-2,-17,-5,35,36,-7,4
14:17:04:320513,22,6,11,7,-9,-45,-26,89
14:17:04:327923,0,-7,-34,6,-3,8,10,28
14:17:04:335521,0,-7,-34,6,-3,8,10,28
14:17:04:342987,3,0,10,-45,8,10,36,-18
14:17:04:350487,-7,-12,-26,-29,-21,-16,28,16
14:17:04:358644,-7,-12,-26,-29,-21,-16,28,16
14:17:04:359430,3,17,73,-15,-4,10,23,-8
14:17:04:373631,-2,10,31,36,27,17,10,-21
14:17:04:374416,-2,10,31,36,27,17,10,-21
14:17:04:380463,4,-8,-37,0,-5,2,-18,-14
14:17:04:388021,-17,-22,10,-30,-12,-11,-9,-15
14:17:04:395450,-17,-22,10,-30,-12,-11,-9,-15
14:17:04:403017,2,3,-17,-3,34,13,-2,7
14:17:04:412819,1,0,19,31,17,3,4,51
14:17:04:418703,1,0,19,31,17,3,4,51
14:17:04:419429,-6,-13,-19,2,-4,-1,-13,4
14:17:04:433685,9,12,17,10,-13,-25,22,-1
14:17:04:434449,9,12,17,10,-13,-25,22,-1
14:17:04:440434,-8,-1,-7,29,-3,-18,-26,-41
14:17:04:448014,20,-4,-10,-25,-2,25,-45,-7
14:17:04:455504,20,-4,-10,-25,-2,25,-45,-7
14:17:04:462899,-6,-6,-56,-25,-13,-19,1,-7
14:17:04:470530,0,19,31,-11,-21,-10,5,-27
14:17:04:478656,0,19,31,-11,-21,-10,5,-27
14:17:04:479436,0,5,-19,-40,-37,6,-36,-19
14:17:04:493623,3,8,-7,18,45,21,3,-7
14:17:04:494445,3,8,-7,18,45,21,3,-7
14:17:04:500423,-11,-8,-7,-9,2,10,-4,-11
14:17:04:507944,-4,-17,-28,-23,-27,-23,48,44
14:17:04:515571,-4,-17,-28,-23,-27,-23,48,44
14:17:04:522961,17,-6,2,-11,0,-1,19,7
14:17:04:530424,-9,2,-39,-7,-12,-27,-42,16
14:17:04:538710,-9,2,-39,-7,-12,-27,-42,16
14:17:04:539482,-15,-16,-12,21,59,49,-16,-3
14:17:04:553754,0,6,38,27,-10,27,32,18
14:17:04:554470,0,6,38,27,-10,27,32,18
14:17:04:560398,4,14,9,12,5,8,15,-10
14:17:04:567990,-14,3,-22,-43,-36,2,-24,-14
14:17:04:575537,-14,3,-22,-43,-36,2,-24,-14
14:17:04:582989,10,0,-46,-22,-33,-28,15,6
14:17:04:590446,0,4,28,-11,7,-37,-1,-19
14:17:04:598733,0,4,28,-11,7,-37,-1,-19
14:17:04:599364,-7,-6,17,26,20,17,-13,12
14:17:04:613662,-4,-14,-18,-8,-17,-15,-33,-78
14:17:04:614447,-4,-14,-18,-8,-17,-15,-33,-78
14:17:04:620512,-18,4,10,-2,-22,-36,-22,-14
14:17:04:627917,-14,-9,-15,-1,38,39,49,19
14:17:04:635531,-14,-9,-15,-1,38,39,49,19
14:17:04:642976,-3,-5,-15,-22,-10,6,-4,-8
14:17:04:650419,1,6,-19,-15,-8,-8,7,-21
14:17:04:658647,1,6,-19,-15,-8,-8,7,-21
14:17:04:659423,2,3,19,-5,-9,-12,-8,-8
14:17:04:673628,8,0,17,29,16,1,9,17
14:17:04:674433,8,0,17,29,16,1,9,17
14:17:04:680446,5,2,31,59,58,15,16,6
14:17:04:688001,2,2,2,9,-2,-1,-7,34
14:17:04:695441,2,2,2,9,-2,-1,-7,34
14:17:04:702993,-5,-9,-39,-7,-15,25,-9,-15
14:17:04:710381,6,-10,-16,-24,-48,-58,-23,64
14:17:04:718707,6,-10,-16,-24,-48,-58,-23,64
14:17:04:719429,38,11,8,-8,-33,-3,7,58
14:17:04:733654,15,-7,-9,7,11,-18,-3,-19
14:17:04:734449,15,-7,-9,7,11,-18,-3,-19
14:17:04:740429,-7,-6,6,-18,-20,-13,-12,7
14:17:04:747924,-9,-23,8,15,-10,-17,-9,-37
14:17:04:755525,-9,-23,8,15,-10,-17,-9,-37
14:17:04:762935,-10,6,-47,-29,49,12,1,-46
14:17:04:770493,0,6,-13,7,14,22,3,-12
14:17:04:778630,0,6,-13,7,14,22,3,-12
14:17:04:779435,-9,-8,26,-1,-35,-26,-13,-5
14:17:04:793612,3,12,7,-23,-23,50,15,-14
14:17:04:794486,3,12,7,-23,-23,50,15,-14
14:17:04:800511,-1,-6,-20,10,8,5,-3,3
14:17:04:807978,-1,10,1,-1,-11,-5,-22,-31
14:17:04:815609,-1,10,1,-1,-11,-5,-22,-31
14:17:04:822937,-25,-28,-5,10,-23,-40,-5,-32
14:17:04:830449,-23,-3,0,18,7,46,-4,9
14:17:04:838037,-23,-3,0,18,7,46,-4,9
14:17:04:845418,2,17,31,-14,11,26,10,10
14:17:04:853388,-10,-19,-10,-12,-8,-11,-7,37
14:17:04:861110,-10,-19,-10,-12,-8,-11,-7,37
14:17:04:861889,3,-5,-16,0,-18,-30,3,9
14:17:04:876114,8,12,-4,-12,-10,1,-11,28
14:17:04:876889,8,12,-4,-12,-10,1,-11,28
14:17:04:882986,1,3,21,5,3,-10,17,-17
14:17:04:890456,1,1,4,-4,8,-15,-9,19
14:17:04:898027,1,1,4,-4,8,-15,-9,19
14:17:04:905469,-1,12,16,-12,18,-8,-4,-13
14:17:04:913629,-7,0,11,-2,10,9,11,-11
14:17:04:914452,-7,0,11,-2,10,9,11,-11
14:17:04:920498,6,9,1,3,1,14,-10,3
14:17:04:936192,-13,-24,-38,4,-5,3,1,-11
14:17:04:936935,-13,-24,-38,4,-5,3,1,-11
14:17:04:942941,-1,12,24,19,-18,-52,4,5
14:17:04:950433,-17,3,25,52,-9,-45,0,-54
14:17:04:957976,-17,3,25,52,-9,-45,0,-54
14:17:04:965565,-5,2,19,21,38,35,16,-25
14:17:04:973619,12,6,11,16,53,25,9,16
14:17:04:974448,12,6,11,16,53,25,9,16
14:17:04:980387,-8,-20,-30,-8,-11,-21,-9,20
14:17:04:996105,6,16,-9,0,13,-2,10,4
14:17:04:996943,6,16,-9,0,13,-2,10,4
14:17:05:2999,-3,5,33,-12,0,23,21,20
14:17:05:10386,-10,-24,2,1,-9,-23,7,30
14:17:05:18021,-10,-24,2,1,-9,-23,7,30
14:17:05:25413,13,2,4,11,5,30,5,7
14:17:05:33706,7,4,12,20,17,-12,-4,0
14:17:05:34452,7,4,12,20,17,-12,-4,0
14:17:05:40441,-1,-7,-3,16,31,26,0,-41
14:17:05:56150,8,-8,-11,-30,-23,-3,-16,-7
14:17:05:56936,8,-8,-11,-30,-23,-3,-16,-7
14:17:05:62928,0,3,-8,-37,-15,-10,-6,2
14:17:05:70489,-8,-8,-8,7,-6,-4,-16,-11
14:17:05:77957,-8,-8,-8,7,-6,-4,-16,-11
14:17:05:85478,-2,-5,-17,10,-31,5,-20,11
14:17:05:93639,12,19,-6,-4,-13,5,6,18
14:17:05:94436,12,19,-6,-4,-13,5,6,18
14:17:05:100484,-1,-12,-24,20,26,22,18,29
14:17:05:116266,0,-7,26,17,1,4,-4,9
14:17:05:116990,0,-7,26,17,1,4,-4,9
14:17:05:122960,2,10,30,24,-16,-14,-11,-2
14:17:05:130486,-3,-9,-53,-50,-38,1,-8,-8
14:17:05:138067,-3,-9,-53,-50,-38,1,-8,-8
14:17:05:145471,-4,-11,-25,5,16,15,-2,-4
14:17:05:153691,6,7,33,23,71,-6,-11,-13
14:17:05:154399,6,7,33,23,71,-6,-11,-13
14:17:05:160400,3,13,-19,-33,1,-20,-5,-2
14:17:05:176105,-5,-3,5,-7,-17,15,0,-22
14:17:05:176921,-5,-3,5,-7,-17,15,0,-22
14:17:05:183025,4,-1,-3,-49,-22,-2,-27,36
14:17:05:190439,0,-3,-14,-4,22,39,53,11
14:17:05:197981,0,-3,-14,-4,22,39,53,11
14:17:05:205481,-7,3,-12,-8,-25,-8,41,-11
14:17:05:213593,-11,1,31,-2,4,-11,0,38
14:17:05:214388,-11,1,31,-2,4,-11,0,38
14:17:05:220487,-2,-28,-35,5,6,-3,10,-1
14:17:05:236181,-3,-4,-34,-7,-22,-17,-10,4
14:17:05:236886,-3,-4,-34,-7,-22,-17,-10,4
14:17:05:242959,-2,0,-18,15,27,2,-8,-17
14:17:05:250512,3,20,39,13,-1,-14,-19,-15
14:17:05:257968,3,20,39,13,-1,-14,-19,-15
14:17:05:265566,3,3,30,29,-6,-17,13,-4
14:17:05:273653,-8,-22,-23,-23,-26,0,-17,-21
14:17:05:274424,-8,-22,-23,-23,-26,0,-17,-21
14:17:05:280439,17,0,47,3,-1,6,3,62
14:17:05:296140,11,5,-10,9,38,-8,45,22
14:17:05:296909,11,5,-10,9,38,-8,45,22
14:17:05:303065,-19,-12,-54,-33,-31,41,-17,-46
14:17:05:310357,-7,-7,-6,-13,-52,-34,22,-33
14:17:05:318027,-7,-7,-6,-13,-52,-34,22,-33
14:17:05:325428,3,9,18,56,51,25,-13,-6
14:17:05:333737,-3,-5,-11,18,23,11,-23,-6
14:17:05:334477,-3,-5,-11,18,23,11,-23,-6
14:17:05:340452,-6,-3,26,-7,-32,-25,-21,-20
14:17:05:356153,10,26,38,-10,-5,-2,-2,7
14:17:05:356950,10,26,38,-10,-5,-2,-2,7
14:17:05:371216,2,5,9,-19,-20,-26,-7,-14
14:17:05:371873,0,12,38,1,-18,28,-3,-4
14:17:05:377951,0,12,38,1,-18,28,-3,-4
14:17:05:385495,-8,-10,-28,-31,-8,-2,-3,6
14:17:05:393586,0,-1,-31,-9,14,-12,25,10
14:17:05:394403,0,-1,-31,-9,14,-12,25,10
14:17:05:400426,2,-2,13,1,20,-7,10,-9
14:17:05:416182,-8,-13,-18,-55,-32,-24,-38,-2
14:17:05:416962,-8,-13,-18,-55,-32,-24,-38,-2
14:17:05:422969,-5,-4,-10,-2,-1,5,12,-6
14:17:05:430438,-4,2,0,25,-6,9,9,20
14:17:05:438072,-4,2,0,25,-6,9,9,20
14:17:05:445433,6,18,19,0,5,17,-40,-33
14:17:05:453749,4,-7,4,18,32,-3,-3,-9
14:17:05:454456,4,-7,4,18,32,-3,-3,-9
14:17:05:460397,-5,-5,-4,-2,-14,-10,10,9
14:17:05:476170,4,10,10,12,51,30,28,1
14:17:05:476918,4,10,10,12,51,30,28,1
14:17:05:482983,-7,2,18,-7,-19,-16,6,-14
14:17:05:490476,-6,-16,-10,-43,-38,-29,-18,-7
14:17:05:498043,-6,-16,-10,-43,-38,-29,-18,-7
14:17:05:505522,-5,-8,6,-8,-8,-14,1,5
14:17:05:513610,0,-2,23,8,-22,20,-11,-1
14:17:05:514356,0,-2,23,8,-22,20,-11,-1
14:17:05:520547,-2,-10,-29,-29,4,-4,6,9
14:17:05:536241,-7,-2,-19,18,4,10,-28,-23
14:17:05:537014,-7,-2,-19,18,4,10,-28,-23
14:17:05:542929,-1,-12,-13,-2,-47,-16,-1,0
14:17:05:550439,2,-1,-45,-15,3,48,9,-5
14:17:05:558023,2,-1,-45,-15,3,48,9,-5
14:17:05:565596,-5,-1,-11,-28,11,-34,16,1
14:17:05:573589,-1,-8,-20,-17,-9,4,-2,0
14:17:05:574370,-1,-8,-20,-17,-9,4,-2,0
14:17:05:580391,7,1,-18,5,4,23,23,-18
14:17:05:596059,6,-7,2,13,46,-16,6,29
14:17:05:596854,6,-7,2,13,46,-16,6,29
14:17:05:603033,-3,6,26,5,-8,-7,-4,13
