Time,EMG1,EMG2,EMG3,EMG4,EMG5,EMG6,EMG7,EMG8
14:19:07:777421,-2,0,1,-2,-1,-1,-1,-1
14:19:07:778276,0,0,1,-2,0,-2,-1,-3
14:19:07:792385,-3,-2,0,-1,-4,-3,0,-2
14:19:07:793269,-3,-2,0,-1,-4,-3,0,-2
14:19:07:799267,1,0,1,0,-3,-1,-3,-1
14:19:07:806745,-2,1,-1,0,-2,-2,0,-1
14:19:07:822887,-2,1,-1,0,-2,-2,0,-1
14:19:07:830691,-1,-1,-1,-1,-1,-2,0,1
14:19:07:831297,0,-2,-1,-2,-1,-1,-1,0
14:19:07:832141,0,-2,-1,-2,-1,-1,-1,0
14:19:07:844263,1,0,-3,-1,0,1,-2,-1
14:19:07:852370,-1,0,-3,0,-2,0,-1,-2
14:19:07:853236,-1,0,-3,0,-2,0,-1,-2
14:19:07:867379,-1,0,-2,-1,0,0,-1,-2
14:19:07:868102,-1,0,0,-1,0,1,0,1
14:19:07:874258,-1,0,0,-1,0,1,0,1
14:19:07:881751,-4,-1,0,-1,-1,-3,-2,-2
14:19:07:889890,-1,-2,-1,0,-3,-1,-1,1
14:19:07:890759,-1,-2,-1,0,-3,-1,-1,1
14:19:07:896778,0,-1,-3,-2,-1,0,-1,0
14:19:07:912394,0,-2,-3,2,0,-1,-1,0
14:19:07:913266,0,-2,-3,2,0,-1,-1,0
14:19:07:919260,-3,-2,0,-2,-2,0,0,-1
14:19:07:926789,0,-2,-1,0,1,-1,-1,-3
14:19:07:934253,0,-2,-1,0,1,-1,-1,-3
14:19:07:941750,-1,-1,-1,-2,2,-1,-1,1
14:19:07:949867,1,0,1,-2,-2,-3,-1,-3
14:19:07:950747,1,0,1,-2,-2,-3,-1,-3
14:19:07:956745,1,0,0,0,-2,-3,-2,0
14:19:07:972361,0,0,-2,-1,-2,-2,0,1
14:19:07:973106,0,0,-2,-1,-2,-2,0,1
14:19:07:979274,0,0,-2,0,1,0,-1,-1
14:19:07:986752,0,0,-2,-1,0,0,-2,-3
14:19:07:994248,0,0,-2,-1,0,0,-2,-3
14:19:08:1741,0,-1,-2,2,-1,-1,-1,-1
14:19:08:9904,-3,-1,1,-2,0,-2,-2,0
14:19:08:10761,-3,-1,1,-2,0,-2,-2,0
14:19:08:16627,-2,-1,0,-1,-1,-1,-1,0
14:19:08:32378,-1,-2,1,-1,-1,-1,-1,-1
14:19:08:33232,-1,-2,1,-1,-1,-1,-1,-1
14:19:08:39139,0,-2,-2,0,-1,-1,-1,-1
14:19:08:46796,0,-2,-1,-2,-2,1,0,-1
14:19:08:54255,0,-2,-1,-2,-2,1,0,-1
14:19:08:61633,-3,-1,-1,-4,-1,-2,-1,-3
14:19:08:69881,1,-1,-2,0,-2,0,-3,-3
14:19:08:70745,1,-1,-2,0,-2,0,-3,-3
14:19:08:76620,0,-1,-2,0,-4,-1,0,0
14:19:08:92362,-2,-1,0,0,-1,0,-1,-1
14:19:08:93227,-2,-1,0,0,-1,0,-1,-1
14:19:08:99158,0,-1,0,-2,-2,-2,-1,-2
14:19:08:114894,-1,-3,-2,0,0,-2,-2,-1
14:19:08:115760,-1,-3,-2,0,0,-2,-2,-1
14:19:08:121620,0,-2,-2,0,1,0,0,-1
14:19:08:129928,-1,0,0,-2,-2,1,-1,-4
14:19:08:130797,-1,0,0,-2,-2,1,-1,-4
14:19:08:144286,-1,-2,-2,0,1,1,-3,-1
14:19:08:152397,0,0,-1,-1,0,-3,-3,0
14:19:08:153291,0,0,-1,-1,0,-3,-3,0
14:19:08:159131,-1,-1,-1,-3,-2,-1,-1,-2
14:19:08:174899,-3,-1,-2,-1,0,-2,-1,-1
14:19:08:175778,-3,-1,-2,-1,0,-2,-1,-1
14:19:08:181759,-2,1,1,0,0,-2,1,-1
14:19:08:189881,-1,0,0,-1,-1,1,-1,0
14:19:08:190756,-1,0,0,-1,-1,1,-1,0
14:19:08:204277,-1,0,0,-1,-2,-2,-3,0
14:19:08:212394,-1,-3,0,0,-1,0,-1,0
14:19:08:213291,-1,-3,0,0,-1,0,-1,0
14:19:08:219235,-1,-1,-2,-3,-2,-2,-1,-1
14:19:08:234874,0,-2,-2,0,0,-2,1,-2
14:19:08:235606,0,-2,-2,0,0,-2,1,-2
14:19:08:241762,-1,-1,-2,0,-2,0,0,0
14:19:08:249300,-2,-1,-2,-1,-2,-1,-3,0
14:19:08:256783,-2,-1,-2,-1,-2,-1,-3,0
14:19:08:264275,-1,0,-1,-1,0,-1,0,-3
14:19:08:272398,-1,-1,1,-3,0,-2,-2,1
14:19:08:273281,-1,-1,1,-3,0,-2,-2,1
14:19:08:279170,-2,-3,0,0,-1,-2,-1,0
14:19:08:303123,-1,-1,-2,-1,0,-1,-1,-2
14:19:08:303882,-1,-1,-2,-1,0,-1,-1,-2
14:19:08:304759,0,0,0,0,-3,-1,0,-1
14:19:08:309285,-2,-1,0,-1,-1,-1,0,-1
14:19:08:333757,-2,-1,0,-1,-1,-1,0,-1
14:19:08:334621,-1,-1,0,-1,-1,-1,-2,1
14:19:08:335355,-1,0,-1,-2,-1,-2,0,0
14:19:08:336232,-1,0,-1,-2,-1,-2,0,0
14:19:08:339112,-1,-2,-3,1,0,1,-2,-3
14:19:08:354873,-1,-1,0,-3,-1,-1,0,-1
14:19:08:355732,-1,-1,0,-3,-1,-1,0,-1
14:19:08:361663,0,1,-1,-1,1,-1,-1,0
14:19:08:369136,-1,1,0,-1,-1,-2,-2,-2
14:19:08:376764,-1,1,0,-1,-1,-2,-2,-2
14:19:08:384152,-1,-1,-2,-2,-3,1,1,-1
14:19:08:392377,0,-1,0,-1,-2,-2,0,-2
14:19:08:393262,0,-1,0,-1,-2,-2,0,-2
14:19:08:399247,-1,0,-1,-2,-2,-1,-3,-3
14:19:08:414896,-1,0,-1,-2,-2,-1,-3,-3
14:19:08:415806,-1,-1,-2,0,-1,-1,0,-1
14:19:08:421626,-1,-2,-1,1,0,-2,-1,0
14:19:08:437444,-1,-2,-1,1,0,-2,-1,0
14:19:08:438245,-1,-1,-2,-2,-1,-1,-1,1
14:19:08:444135,-2,-1,-1,-1,-1,-1,-1,-1
14:19:08:452360,-2,-1,-1,-1,-1,-1,-1,-1
14:19:08:453230,0,0,-3,0,-1,-1,-1,-1
14:19:08:459126,0,-2,0,-3,1,0,1,-2
14:19:08:474887,0,-2,0,-3,1,0,1,-2
14:19:08:475761,-2,-2,0,-1,-1,-2,-3,0
14:19:08:481656,0,-2,-1,0,1,-1,-1,-1
14:19:08:497399,0,-2,-1,0,1,-1,-1,-1
14:19:08:498298,1,1,-1,-2,0,-1,0,-2
14:19:08:504133,-1,-2,-3,-2,-3,-2,1,0
14:19:08:512414,-1,-2,-3,-2,-3,-2,1,0
14:19:08:513272,-1,-1,0,-1,1,0,0,-1
14:19:08:519154,0,1,1,0,-3,-2,-2,1
14:19:08:534979,0,1,1,0,-3,-2,-2,1
14:19:08:535821,-2,-2,0,-2,-4,-2,-2,-1
14:19:08:541646,-1,0,1,0,-2,-3,-3,-2
14:19:08:557378,-1,0,1,0,-2,-3,-3,-2
14:19:08:558266,-1,-2,-1,-2,-2,-2,-1,-2
14:19:08:564164,-2,-3,-2,-2,-1,0,-1,-1
14:19:08:572393,-2,-3,-2,-2,-1,0,-1,-1
14:19:08:573260,0,-1,-1,-3,-1,0,-2,-1
14:19:08:579215,-1,0,-1,-1,0,-2,-2,-1
14:19:08:594928,-1,0,-1,-1,0,-2,-2,-1
14:19:08:595768,0,0,-1,-1,-3,0,0,0
14:19:08:601672,1,-2,-1,0,-1,-2,0,-1
14:19:08:617423,1,-2,-1,0,-1,-2,0,-1
14:19:08:618266,-2,-2,-1,1,0,-1,-2,-2
14:19:08:624240,0,-3,-1,-2,0,-1,0,-3
14:19:08:632413,0,-3,-1,-2,0,-1,0,-3
14:19:08:633261,-2,-1,-2,0,-1,1,0,0
14:19:08:639135,-2,-2,0,-1,-1,-2,-2,-2
14:19:08:654908,-2,-2,0,-1,-1,-2,-2,-2
14:19:08:655740,0,-1,-1,0,-1,-3,-3,-2
14:19:08:661765,0,0,-1,-2,-3,-2,-3,-4
14:19:08:677416,0,0,-1,-2,-3,-2,-3,-4
14:19:08:678242,-1,-2,1,0,-3,-2,-1,0
14:19:08:684269,-1,0,-1,0,-1,-1,1,1
14:19:08:692390,-1,0,-1,0,-1,-1,1,1
14:19:08:693300,-2,0,-1,-2,-1,0,-1,-2
14:19:08:699264,0,-1,-1,-3,0,1,-1,0
14:19:08:714939,0,-1,-1,-3,0,1,-1,0
14:19:08:715664,-1,-1,-2,-2,-2,0,-3,1
14:19:08:721771,-1,-1,0,0,-1,-1,-1,-3
14:19:08:737439,-1,-1,0,0,-1,-1,-1,-3
14:19:08:738257,0,-1,0,-1,2,-3,0,0
14:19:08:744257,-1,1,-1,-1,-1,-2,-1,0
14:19:08:752386,-1,1,-1,-1,-1,-2,-1,0
14:19:08:753112,-1,-1,-1,0,-3,-2,0,-3
14:19:08:759304,-2,-1,-1,-1,-4,-1,0,0
14:19:08:774911,-2,-1,-1,-1,-4,-1,0,0
14:19:08:775781,-2,0,-1,0,0,0,-1,-1
14:19:08:781772,-1,-1,0,-2,0,-1,-3,-1
14:19:08:797448,-1,-1,0,-2,0,-1,-3,-1
14:19:08:798260,-1,-1,-2,-1,-1,-1,-1,-1
14:19:08:804239,-1,-2,1,1,0,1,-1,-2
14:19:08:812379,-1,-2,1,1,0,1,-1,-2
14:19:08:813269,-1,-2,-1,-1,0,-1,-2,-1
14:19:08:819256,-2,0,-3,0,-2,-1,0,0
14:19:08:834889,-2,0,-3,0,-2,-1,0,0
14:19:08:835738,-2,-2,0,-2,-2,-1,0,1
14:19:08:841764,-2,-1,0,-2,-2,-2,-1,0
14:19:08:857388,-2,-1,0,-2,-2,-2,-1,0
14:19:08:858245,0,1,1,-1,-1,1,-1,0
14:19:08:864197,0,-2,-2,-2,0,-1,-2,-1
14:19:08:881073,0,-2,-2,-2,0,-1,-2,-1
14:19:08:881757,-1,-2,-1,-2,0,-3,-1,-3
14:19:08:886628,1,-1,-3,1,-2,0,2,-1
14:19:08:894924,1,-1,-3,1,-2,0,2,-1
14:19:08:895803,0,-1,-2,0,-3,-1,-1,-1
14:19:08:901762,-1,0,0,-2,-1,-2,0,0
14:19:08:909292,-1,0,0,-2,-1,-2,0,0
14:19:08:916749,-2,0,-1,-1,-3,0,0,-1
14:19:08:924262,-3,-1,-1,-1,-1,-2,-1,-2
14:19:08:932405,-3,-1,-1,-1,-1,-2,-1,-2
14:19:08:933136,0,0,0,-1,-2,0,-3,-2
14:19:08:939249,-1,-2,-1,-2,-2,-1,-1,-2
14:19:08:954893,-1,-2,-1,-2,-2,-1,-1,-2
14:19:08:955744,1,-2,-1,-4,-2,1,1,0
14:19:08:961787,-1,-1,0,-2,0,-1,-1,-3
14:19:08:969274,-1,-1,0,-2,0,-1,-1,-3
14:19:08:976804,-1,0,-2,1,0,-1,-1,1
14:19:08:984256,0,-2,-1,-3,-2,1,-1,-2
14:19:08:992385,0,-2,-1,-3,-2,1,-1,-2
14:19:08:993263,1,0,0,-1,-1,-1,-1,-3
14:19:08:999179,-1,-2,-2,-1,-1,-3,-2,1
14:19:09:14899,-1,-2,-2,-1,-1,-3,-2,1
14:19:09:15627,-2,-1,-2,0,2,-1,0,0
14:19:09:21744,0,-1,0,-1,-4,-2,-2,0
14:19:09:29334,0,-1,0,-1,-4,-2,-2,0
14:19:09:36659,0,-1,-2,-1,-3,-2,-1,0
14:19:09:44119,-1,-1,0,-1,-2,1,-1,-1
14:19:09:52402,-1,-1,0,-1,-2,1,-1,-1
14:19:09:53286,-1,-1,-1,-1,-2,0,0,-1
14:19:09:66754,-1,-2,-1,2,0,-1,-1,-1
14:19:09:74896,-1,-2,-1,2,0,-1,-1,-1
14:19:09:75778,0,-1,-2,1,-1,0,-1,-2
14:19:09:89874,1,0,0,-2,-1,0,-2,1
14:19:09:90744,1,0,0,-2,-1,0,-2,1
14:19:09:96635,-3,-1,0,-1,-3,-1,-1,-3
14:19:09:113021,-1,0,-2,-1,-2,-2,-2,0
14:19:09:113936,-1,0,-2,-1,-2,-2,-2,0
14:19:09:114658,0,0,1,-1,-1,-2,-1,-2
14:19:09:126665,0,0,-2,-1,-2,0,-1,0
14:19:09:143137,0,0,-2,-1,-2,0,-1,0
14:19:09:143875,-1,-1,-2,-2,-1,-2,-1,0
14:19:09:144628,-1,-2,-3,-2,-1,-1,0,-2
14:19:09:149272,-1,-2,-3,-2,-1,-1,0,-2
14:19:09:156765,0,0,-1,-3,-3,0,-2,-1
14:19:09:164281,-1,2,1,1,0,-3,-1,-1
14:19:09:172408,-1,2,1,1,0,-3,-1,-1
14:19:09:173139,1,-1,-1,-2,-1,0,-1,1
14:19:09:186649,-1,-1,-3,0,-3,0,-1,-1
14:19:09:194900,-1,-1,-3,0,-3,0,-1,-1
14:19:09:195749,0,-2,0,0,0,-2,-3,-1
14:19:09:201750,0,-1,1,-2,0,-1,-1,-1
14:19:09:209268,0,-1,1,-2,0,-1,-1,-1
14:19:09:216747,-2,-2,-1,-1,0,0,-1,0
14:19:09:224259,-1,0,-3,-1,1,-2,-2,-1
14:19:09:232436,-1,0,-3,-1,1,-2,-2,-1
14:19:09:233292,-3,1,1,1,0,-2,0,-1
14:19:09:246830,-1,0,-1,0,0,0,-2,0
14:19:09:254872,-1,0,-1,0,0,0,-2,0
14:19:09:255647,-3,-3,-4,0,-4,-2,-1,-2
14:19:09:261772,-1,-1,0,-2,-2,-2,1,-1
14:19:09:269284,-1,-1,0,-2,-2,-2,1,-1
14:19:09:276638,-1,0,-2,-3,-2,-1,0,-1
14:19:09:284135,-3,-3,-1,-2,-2,-1,-2,-3
14:19:09:292395,-3,-3,-1,-2,-2,-1,-2,-3
14:19:09:293279,-3,-1,0,-1,0,0,-1,0
14:19:09:306779,-2,-1,1,0,-1,0,-1,-1
14:19:09:314913,-2,-1,1,0,-1,0,-1,-1
14:19:09:315792,0,-1,-1,-1,-2,-2,-2,0
14:19:09:321651,-1,-2,-2,-1,-1,-1,-1,-1
14:19:09:329296,-1,-2,-2,-1,-1,-1,-1,-1
14:19:09:336650,0,-1,-1,-2,1,-1,2,-3
14:19:09:344145,-1,-1,-1,-1,-4,-2,0,-1
14:19:09:352397,-1,-1,-1,-1,-4,-2,0,-1
14:19:09:353281,0,-1,-2,-2,0,0,-2,-1
14:19:09:366639,-2,0,-1,-1,-1,0,-2,-1
14:19:09:374899,-2,0,-1,-1,-1,0,-2,-1
14:19:09:375784,-3,-3,-1,-1,-1,-1,0,1
14:19:09:381676,-3,-2,-1,0,-1,0,-1,-1
14:19:09:397485,-3,-2,-1,0,-1,0,-1,-1
14:19:09:398270,-1,-1,-1,-1,-4,-2,-2,-1
14:19:09:404138,-1,-1,-1,-2,1,-2,-2,0
14:19:09:419897,-1,-1,-1,-2,1,-2,-2,0
14:19:09:420769,0,0,2,1,1,-1,-4,0
14:19:09:435528,0,-2,-1,-1,-3,-1,-2,-1
14:19:09:436375,0,-2,-1,-1,-3,-1,-2,-1
14:19:09:437126,0,-1,0,-1,0,0,0,-1
14:19:09:441659,-1,0,0,0,0,-1,-3,-2
14:19:09:457417,-1,0,0,0,0,-1,-3,-2
14:19:09:458185,-1,-3,-1,-1,0,-1,-2,-2
14:19:09:464378,0,0,-2,-1,-1,-2,-1,1
14:19:09:472276,0,0,-2,-1,-1,-2,-1,1
14:19:09:479214,-1,-2,0,-2,-1,-2,-1,-2
14:19:09:486792,-2,-2,0,-1,0,-1,0,-2
14:19:09:494930,-2,-2,0,-1,0,-1,0,-2
14:19:09:495791,0,0,-1,-1,-3,0,-2,0
14:19:09:501654,-1,0,-3,-2,0,-1,-1,0
14:19:09:509297,-1,0,-3,-2,0,-1,-1,0
14:19:09:516648,-1,-1,-2,-1,-1,-2,-3,-2
14:19:09:524164,0,-1,1,-1,-2,-1,-1,-1
14:19:09:532425,0,-1,1,-1,-2,-1,-1,-1
14:19:09:533254,-1,-1,-2,2,-1,-1,-1,1
14:19:09:546689,0,-1,-2,-2,0,-2,-1,1
14:19:09:554880,0,-1,-2,-2,0,-2,-1,1
14:19:09:555756,0,0,0,-3,-2,-1,-1,-3
14:19:09:561694,0,-1,0,1,-3,-1,0,0
14:19:09:569296,0,-1,0,1,-3,-1,0,0
14:19:09:576708,-1,-2,0,0,-1,-1,0,-1
14:19:09:584166,0,0,-1,1,-1,0,-3,1
14:19:09:592386,0,0,-1,1,-1,0,-3,1
14:19:09:593274,-2,-1,-2,-1,-3,-1,-1,-1
14:19:09:606654,-1,-3,0,-2,-2,-3,0,-1
14:19:09:614885,-1,-3,0,-2,-2,-3,0,-1
14:19:09:615748,-2,0,0,2,7,4,2,-1
14:19:09:621636,-1,1,-3,-1,-1,-3,-9,-3
14:19:09:629310,-1,1,-3,-1,-1,-3,-9,-3
14:19:09:636763,0,4,-1,0,-4,-2,0,-1
14:19:09:644291,1,-3,-1,-2,-6,0,4,-2
14:19:09:652407,1,-3,-1,-2,-6,0,4,-2
14:19:09:653140,-7,0,-1,0,-3,-7,-4,-3
14:19:09:675648,-2,-4,-3,-2,4,2,-10,-1
14:19:09:676388,-2,-4,-3,-2,4,2,-10,-1
14:19:09:677144,3,0,1,0,6,6,3,2
14:19:09:681648,-4,-3,-1,-5,-15,-11,-9,-6
14:19:09:697397,-4,-3,-1,-5,-15,-11,-9,-6
14:19:09:698277,-1,1,0,-1,-1,-1,2,-1
14:19:09:704172,-1,2,1,0,4,8,5,1
14:19:09:712391,-1,2,1,0,4,8,5,1
14:19:09:713258,2,1,-2,-2,-3,-4,-2,3
14:19:09:726646,-1,0,4,6,1,5,7,2
14:19:09:734890,-1,0,4,6,1,5,7,2
14:19:09:735751,-5,-4,-3,-2,-17,-6,-7,-4
14:19:09:741628,0,0,0,0,-1,15,4,0
14:19:09:757416,0,0,0,0,-1,15,4,0
14:19:09:758264,1,0,-2,-6,22,21,2,0
14:19:09:764159,1,4,-3,-11,-17,-14,-1,-3
14:19:09:772384,1,4,-3,-11,-17,-14,-1,-3
14:19:09:773279,-3,-4,-4,-10,-13,-8,-4,-3
14:19:09:786791,0,23,18,7,14,-5,0,3
14:19:09:794950,0,23,18,7,14,-5,0,3
14:19:09:795792,-5,-19,-11,-9,11,2,1,1
14:19:09:801645,-1,-4,-8,-6,2,-1,-2,-2
14:19:09:817422,-1,-4,-8,-6,2,-1,-2,-2
14:19:09:818152,1,5,12,12,9,-1,0,-4
14:19:09:824141,-3,-24,-5,-7,-1,-6,-2,-2
14:19:09:832410,-3,-24,-5,-7,-1,-6,-2,-2
14:19:09:833282,3,-3,-9,-16,-7,-7,-2,1
14:19:09:846828,0,7,-2,-12,-5,0,-3,0
14:19:09:854890,0,7,-2,-12,-5,0,-3,0
14:19:09:855635,0,2,12,8,-3,-7,-4,-1
14:19:09:861653,-4,-5,-3,-4,11,6,2,0
14:19:09:877400,-4,-5,-3,-4,11,6,2,0
14:19:09:878137,-1,5,0,16,-2,-3,-2,-3
14:19:09:884268,0,-5,-19,-44,-8,-2,-7,-3
14:19:09:892424,0,-5,-19,-44,-8,-2,-7,-3
14:19:09:893303,-3,8,31,46,4,3,4,3
14:19:09:906790,0,-2,1,15,3,-2,-6,-2
14:19:09:914892,0,-2,1,15,3,-2,-6,-2
14:19:09:915636,-3,-3,-7,-21,0,-4,-4,-1
14:19:09:921762,21,-2,-21,14,-4,-4,2,-2
14:19:09:937407,21,-2,-21,14,-4,-4,2,-2
14:19:09:938134,-41,-3,-6,-35,-12,-6,-1,-24
14:19:09:944276,0,1,13,5,3,0,-1,1
14:19:09:952381,0,1,13,5,3,0,-1,1
14:19:09:953130,4,1,5,-19,-9,-4,3,3
14:19:09:966777,-6,-7,4,9,-1,-6,1,-4
14:19:09:974889,-6,-7,4,9,-1,-6,1,-4
14:19:09:975633,23,4,-14,-25,-1,-2,-4,5
14:19:09:981779,3,16,21,5,2,3,1,6
14:19:09:997495,3,16,21,5,2,3,1,6
14:19:09:998291,0,-6,3,0,-8,-3,-5,-2
14:19:10:4269,-5,7,2,0,1,0,1,-2
14:19:10:11818,-5,7,2,0,1,0,1,-2
14:19:10:19282,15,7,9,26,0,1,0,3
14:19:10:26754,0,-8,-9,23,3,-1,-2,-4
14:19:10:34916,0,-8,-9,23,3,-1,-2,-4
14:19:10:35649,4,1,4,35,3,-1,-1,3
14:19:10:49283,-2,-7,-20,-23,-7,-1,-1,-2
14:19:10:57436,-2,-7,-20,-23,-7,-1,-1,-2
14:19:10:58152,3,8,3,-18,2,-1,-1,1
14:19:10:64340,1,-7,-28,-28,-8,-2,-4,-3
14:19:10:71774,1,-7,-28,-28,-8,-2,-4,-3
14:19:10:79148,-6,-13,-16,-10,-4,-1,-1,1
14:19:10:86672,2,7,40,29,0,-2,0,-1
14:19:10:94933,2,7,40,29,0,-2,0,-1
14:19:10:95813,-6,-18,-29,15,4,-1,-1,0
14:19:10:109297,-5,-2,-8,-10,-1,2,2,3
14:19:10:117409,-5,-2,-8,-10,-1,2,2,3
14:19:10:118288,2,7,4,3,-1,-4,-4,0
14:19:10:124136,-5,-4,-18,-49,-11,-4,-2,1
14:19:10:131762,-5,-4,-18,-49,-11,-4,-2,1
14:19:10:139127,5,6,-3,-3,-1,-1,-2,-1
14:19:10:146746,-5,-9,10,9,1,0,-1,-2
14:19:10:154934,-5,-9,10,9,1,0,-1,-2
14:19:10:155751,-2,0,-23,-6,-3,-2,-4,1
14:19:10:169180,-1,0,7,16,1,-1,-1,-2
14:19:10:177488,-1,0,7,16,1,-1,-1,-2
14:19:10:178302,-12,3,26,36,4,-1,-3,-4
14:19:10:184151,3,-10,-19,21,3,-1,4,-1
14:19:10:191786,3,-10,-19,21,3,-1,4,-1
14:19:10:199176,1,-4,-1,-18,-3,1,5,0
14:19:10:206643,-5,1,14,-5,0,-1,-3,0
14:19:10:214937,-5,1,14,-5,0,-1,-3,0
14:19:10:215849,-1,-6,-10,-27,-7,-3,-4,0
14:19:10:229158,2,4,-6,-6,3,3,0,1
14:19:10:237428,2,4,-6,-6,3,3,0,1
14:19:10:238265,1,2,2,2,-1,1,-1,-2
14:19:10:252415,-5,2,-8,-2,-4,-4,3,-1
14:19:10:253290,-5,2,-8,-2,-4,-4,3,-1
14:19:10:259168,0,2,3,4,3,1,3,0
14:19:10:266705,-3,1,3,1,-2,-2,1,-1
14:19:10:274888,-3,1,3,1,-2,-2,1,-1
14:19:10:275757,3,6,12,1,-4,-2,-3,2
14:19:10:289138,0,2,-1,3,-1,-3,-2,-3
14:19:10:297406,0,2,-1,3,-1,-3,-2,-3
14:19:10:298276,13,-2,-12,-22,-4,-1,0,-1
14:19:10:312419,-4,-17,-20,-5,-6,-5,-6,0
14:19:10:313310,-4,-17,-20,-5,-6,-5,-6,0
14:19:10:319143,-1,18,7,0,5,3,1,-4
14:19:10:335524,0,-4,5,1,-4,-1,-2,0
14:19:10:336401,0,-4,5,1,-4,-1,-2,0
14:19:10:337145,-2,-4,-10,-11,-6,-3,-1,3
14:19:10:349291,-6,6,7,7,0,0,-4,-3
14:19:10:358189,-6,6,7,7,0,0,-4,-3
14:19:10:358923,0,-6,4,9,-1,-1,-1,-2
14:19:10:364355,-1,-9,-4,0,5,4,2,-1
14:19:10:371775,-1,-9,-4,0,5,4,2,-1
14:19:10:379221,-2,-10,-7,-2,-1,-1,-2,0
14:19:10:386663,0,3,3,11,2,-4,-1,-1
14:19:10:394937,0,3,3,11,2,-4,-1,-1
14:19:10:395796,-1,1,0,-2,2,3,2,1
14:19:10:409297,5,4,23,-4,0,0,-1,0
14:19:10:417408,5,4,23,-4,0,0,-1,0
14:19:10:418271,-4,-1,-1,-2,-8,-6,-4,-2
14:19:10:424127,-2,-6,-1,-6,2,2,0,0
14:19:10:431796,-2,-6,-1,-6,2,2,0,0
14:19:10:439135,2,-2,-5,9,2,-3,-2,-2
14:19:10:446726,-1,2,-5,3,3,2,0,0
14:19:10:454884,-1,2,-5,3,3,2,0,0
14:19:10:455759,-1,-8,-21,-5,-1,0,0,1
14:19:10:469172,-3,2,-2,-1,-5,-3,-1,0
14:19:10:477428,-3,2,-2,-1,-5,-3,-1,0
14:19:10:478313,-2,-10,0,7,1,-2,-3,-3
14:19:10:484149,-1,-5,-1,1,-2,-2,-5,-3
14:19:10:491771,-1,-5,-1,1,-2,-2,-5,-3
14:19:10:499203,-13,-7,-38,-10,-3,1,0,-4
14:19:10:506685,-3,1,-4,-2,1,5,8,0
14:19:10:514927,-3,1,-4,-2,1,5,8,0
14:19:10:515810,-9,-14,0,-2,-1,1,-3,0
14:19:10:529933,0,6,-1,17,1,3,-1,0
14:19:10:530840,0,6,-1,17,1,3,-1,0
14:19:10:536668,3,8,11,0,-6,-2,-2,0
14:19:10:544181,-7,-9,-10,-9,-4,-3,-4,-6
14:19:10:551765,-7,-9,-10,-9,-4,-3,-4,-6
14:19:10:559290,2,2,14,-2,-3,-3,-2,0
14:19:10:566780,4,6,-5,-3,0,-5,-3,0
14:19:10:574931,4,6,-5,-3,0,-5,-3,0
14:19:10:575647,7,5,4,-2,-8,-5,1,1
14:19:10:589920,6,-16,-5,-2,-5,-6,-3,1
14:19:10:590689,6,-16,-5,-2,-5,-6,-3,1
14:19:10:596818,-18,-8,-17,-1,3,0,-2,-10
14:19:10:604266,-23,-1,7,-4,-4,-2,-2,-4
14:19:10:611804,-23,-1,7,-4,-4,-2,-2,-4
14:19:10:619162,9,-3,-9,1,0,1,2,-5
14:19:10:626786,9,4,-4,-4,-2,-1,2,-1
14:19:10:634912,9,4,-4,-4,-2,-1,2,-1
14:19:10:635774,1,4,10,1,3,0,-1,1
14:19:10:649892,1,2,3,0,1,2,-1,2
14:19:10:650628,1,2,3,0,1,2,-1,2
14:19:10:656668,-3,-3,19,-1,-2,-2,-4,0
14:19:10:664224,-2,5,5,3,2,0,0,-1
14:19:10:671764,-2,5,5,3,2,0,0,-1
14:19:10:679222,-3,1,3,-2,1,1,1,1
14:19:10:686646,-1,7,4,-1,-3,-5,-1,-2
14:19:10:694902,-1,7,4,-1,-3,-5,-1,-2
14:19:10:695780,0,6,11,2,1,1,-1,2
14:19:10:709908,5,4,-4,-1,-2,-1,-4,-5
14:19:10:710764,5,4,-4,-1,-2,-1,-4,-5
14:19:10:716658,2,-2,-1,-2,-2,-1,0,-3
14:19:10:724178,3,0,10,0,-2,-1,0,3
14:19:10:731780,3,0,10,0,-2,-1,0,3
14:19:10:739157,-3,3,-1,0,-4,2,4,2
14:19:10:746684,0,0,3,1,-1,-2,0,-2
14:19:10:754909,0,0,3,1,-1,-2,0,-2
14:19:10:755778,-11,-3,-19,-5,-2,-4,-4,-1
14:19:10:769904,1,3,0,-3,-2,-2,-1,-1
14:19:10:770761,1,3,0,-3,-2,-2,-1,-1
14:19:10:776697,6,-8,-3,4,2,-1,-2,1
14:19:10:792414,-1,0,6,-3,-2,-4,-3,0
14:19:10:793308,-1,0,6,-3,-2,-4,-3,0
14:19:10:799197,1,-1,4,1,1,0,3,-2
14:19:10:806669,-1,-14,-8,-2,-3,-1,2,-1
14:19:10:814911,-1,-14,-8,-2,-3,-1,2,-1
14:19:10:815793,5,10,-10,-1,-2,-2,-1,-2
14:19:10:829938,-1,12,4,1,3,4,0,-2
14:19:10:830828,-1,12,4,1,3,4,0,-2
14:19:10:836651,1,-5,3,-2,0,-3,-2,4
14:19:10:844159,5,3,-6,-1,0,-1,1,1
14:19:10:851829,5,3,-6,-1,0,-1,1,1
14:19:10:859159,3,-4,1,-3,-2,-3,-8,-4
14:19:10:866645,0,-3,2,-1,-3,-3,-3,-1
14:19:10:874930,0,-3,2,-1,-3,-3,-3,-1
14:19:10:875812,-10,-3,-1,-2,-1,0,1,0
14:19:10:889911,0,0,-2,-1,0,0,-3,0
14:19:10:890862,0,0,-2,-1,0,0,-3,0
14:19:10:896702,-4,1,4,2,4,4,3,0
14:19:10:904160,-4,12,-2,0,-1,-2,-6,-4
14:19:10:911787,-4,12,-2,0,-1,-2,-6,-4
14:19:10:919293,-10,3,4,-4,-4,-5,-6,-3
14:19:10:926674,1,-4,-3,-2,-2,1,9,6
14:19:10:934284,1,-4,-3,-2,-2,1,9,6
14:19:10:941800,8,0,-2,1,-1,-1,1,0
14:19:10:949906,0,-2,-4,-2,-4,-4,-3,1
14:19:10:950650,0,-2,-4,-2,-4,-4,-3,1
14:19:10:956651,-6,0,3,1,-1,-2,-2,-1
14:19:10:972420,-5,-32,-1,-2,0,-1,-2,0
14:19:10:973142,-5,-32,-1,-2,0,-1,-2,0
14:19:10:979321,4,1,-1,1,-1,0,4,-3
14:19:10:986790,-5,6,-3,-2,-3,-2,-10,-3
14:19:10:994269,-5,6,-3,-2,-3,-2,-10,-3
14:19:11:1668,5,-10,-1,-1,-1,-3,-8,-4
14:19:11:9928,-4,-4,-1,-1,-1,-1,-2,-1
14:19:11:10765,-4,-4,-1,-1,-1,-1,-2,-1
14:19:11:16668,-8,1,-4,-3,0,2,3,0
14:19:11:32432,-2,1,3,-1,-1,-1,4,-2
14:19:11:33270,-2,1,3,-1,-1,-1,4,-2
14:19:11:39135,-7,7,0,-2,-1,1,12,-2
14:19:11:46696,0,-17,-16,-2,1,-1,0,0
14:19:11:54285,0,-17,-16,-2,1,-1,0,0
14:19:11:61680,4,0,1,1,-1,-3,-4,-1
14:19:11:69904,2,-4,7,1,-7,0,-3,-1
14:19:11:70772,2,-4,7,1,-7,0,-3,-1
14:19:11:76655,-5,-1,-2,-2,-2,-5,-12,-1
14:19:11:92454,-8,-15,1,1,2,2,-1,-4
14:19:11:93309,-8,-15,1,1,2,2,-1,-4
14:19:11:99181,-6,6,3,-3,-5,-4,-3,-2
14:19:11:106719,-2,4,-6,-4,0,-3,-6,-5
14:19:11:114342,-2,4,-6,-4,0,-3,-6,-5
14:19:11:121650,4,6,0,0,-2,0,6,-1
14:19:11:129714,4,15,1,1,-1,-4,4,-1
14:19:11:137404,4,15,1,1,-1,-4,4,-1
14:19:11:138149,-3,-11,2,1,1,-1,1,2
14:19:11:152420,-11,-5,0,-2,-2,0,1,2
14:19:11:153274,-11,-5,0,-2,-2,0,1,2
14:19:11:159143,1,-7,-3,-1,0,0,-3,-2
14:19:11:166652,0,-1,-6,-2,-2,-3,-1,-2
14:19:11:174272,0,-1,-6,-2,-2,-3,-1,-2
14:19:11:181667,-6,-16,-3,-4,-7,-1,-1,1
14:19:11:189919,-1,-2,2,0,-1,0,12,-1
14:19:11:190671,-1,-2,2,0,-1,0,12,-1
14:19:11:196734,14,8,10,1,-1,-1,-5,-1
14:19:11:212484,1,-16,0,-2,-1,-3,1,0
14:19:11:213167,1,-16,0,-2,-1,-3,1,0
14:19:11:219268,0,-6,-1,1,0,-6,-9,-1
14:19:11:226701,0,4,0,1,5,3,-5,-3
14:19:11:234278,0,4,0,1,5,3,-5,-3
14:19:11:241665,-2,8,-1,-1,0,1,-5,1
14:19:11:249907,-5,-16,-2,-1,-2,-3,-5,-3
14:19:11:250677,-5,-16,-2,-1,-2,-3,-5,-3
14:19:11:256646,0,5,3,-2,-1,0,-2,-1
14:19:11:272400,0,8,0,-2,0,-2,-5,-2
14:19:11:273166,0,8,0,-2,0,-2,-5,-2
14:19:11:279214,-3,-11,-9,-1,-3,-2,4,-1
14:19:11:286659,3,4,3,1,-3,0,4,-2
14:19:11:294310,3,4,3,1,-3,0,4,-2
14:19:11:301680,-4,-9,-7,0,0,3,-5,-4
14:19:11:309927,-7,-9,-3,-2,1,-1,-4,1
14:19:11:310794,-7,-9,-3,-2,1,-1,-4,1
14:19:11:316660,-5,-2,-3,-2,-2,-2,-2,1
14:19:11:332457,-1,6,-2,-1,-4,-5,-3,-2
14:19:11:333319,-1,6,-2,-1,-4,-5,-3,-2
14:19:11:339156,14,6,0,0,-2,3,5,4
14:19:11:346702,3,19,3,-1,0,1,3,3
14:19:11:354265,3,19,3,-1,0,1,3,3
14:19:11:361713,-6,-5,-5,-1,1,1,4,-4
14:19:11:369932,1,-3,-1,-1,-1,2,1,-1
14:19:11:370787,1,-3,-1,-1,-1,2,1,-1
14:19:11:376678,-3,-6,2,-1,-2,-3,-4,-1
14:19:11:392415,-5,14,-1,-1,-1,-2,-1,-3
14:19:11:393281,-5,14,-1,-1,-1,-2,-1,-3
14:19:11:399177,-3,4,5,2,1,-1,3,1
14:19:11:406647,-2,-11,-9,-1,-2,1,-7,0
14:19:11:414337,-2,-11,-9,-1,-2,1,-7,0
14:19:11:421650,0,1,-1,-1,-1,1,15,0
14:19:11:429947,2,9,1,-2,0,-4,-5,0
14:19:11:430680,2,9,1,-2,0,-4,-5,0
14:19:11:436671,4,3,1,-2,-1,-3,-5,2
14:19:11:452440,11,24,5,0,-5,-1,7,-2
14:19:11:453309,11,24,5,0,-5,-1,7,-2
14:19:11:459155,3,5,-3,0,-1,-5,-15,-3
14:19:11:466681,-4,-6,1,1,0,-1,-12,-1
14:19:11:474301,-4,-6,1,1,0,-1,-12,-1
14:19:11:481786,2,5,-1,-1,-1,-3,-1,-1
14:19:11:489891,0,-7,0,-1,0,0,1,-1
14:19:11:490640,0,-7,0,-1,0,0,1,-1
14:19:11:496713,3,2,1,1,0,0,-6,-1
14:19:11:512431,2,-6,0,0,0,-3,0,-2
14:19:11:513156,2,-6,0,0,0,-3,0,-2
14:19:11:519291,-3,-33,-9,-4,-4,0,7,0
14:19:11:526683,-2,-14,-5,1,1,2,15,-2
14:19:11:534294,-2,-14,-5,1,1,2,15,-2
14:19:11:541674,-5,3,0,-1,1,-1,1,-4
14:19:11:549926,-12,-18,-4,-3,-5,-7,-18,-4
14:19:11:550680,-12,-18,-4,-3,-5,-7,-18,-4
14:19:11:556705,-2,8,0,1,2,3,-3,-2
14:19:11:572425,11,5,-3,-2,-3,0,0,1
14:19:11:573164,11,5,-3,-2,-3,0,0,1
14:19:11:579187,-5,-5,1,-2,-3,-4,0,-3
14:19:11:586651,-12,-7,1,-1,0,0,5,0
14:19:11:594314,-12,-7,1,-1,0,0,5,0
14:19:11:601695,1,-4,1,-1,-1,-4,-11,-1
14:19:11:609931,5,14,2,-1,-1,1,8,-4
14:19:11:610790,5,14,2,-1,-1,1,8,-4
14:19:11:616693,-15,5,2,-3,-5,-3,-1,-2
14:19:11:632478,4,20,9,3,6,3,-1,1
14:19:11:633291,4,20,9,3,6,3,-1,1
14:19:11:639160,4,-1,-2,0,-2,3,9,1
14:19:11:646686,-10,-2,-5,-4,-2,-2,-4,-2
14:19:11:654307,-10,-2,-5,-4,-2,-2,-4,-2
14:19:11:661707,1,5,-6,-1,0,-1,1,1
14:19:11:669897,-2,-2,-3,-3,-3,1,3,0
14:19:11:670656,-2,-2,-3,-3,-3,1,3,0
14:19:11:676667,0,-12,-5,-1,-1,5,21,-4
14:19:11:692420,1,-9,-1,-2,0,-4,-11,-2
14:19:11:693289,1,-9,-1,-2,0,-4,-11,-2
14:19:11:699169,-2,-1,2,-1,0,1,-2,0
14:19:11:706664,3,2,-5,-1,-4,-2,5,2
14:19:11:714333,3,2,-5,-1,-4,-2,5,2
14:19:11:721656,2,-2,4,0,1,-2,-5,-2
14:19:11:738035,-5,-21,-10,-3,-2,-5,-16,-4
14:19:11:738897,-5,-21,-10,-3,-2,-5,-16,-4
14:19:11:739669,0,10,-1,-1,2,1,2,-1
14:19:11:760569,6,6,3,-1,0,-1,-3,0
14:19:11:761441,6,6,3,-1,0,-1,-3,0
14:19:11:762155,0,-5,3,0,-1,0,-2,0
14:19:11:766823,2,-4,5,1,0,2,9,0
14:19:11:782439,2,-4,5,1,0,2,9,0
14:19:11:783182,3,1,-3,-3,-2,-2,-1,4
14:19:11:789903,0,5,3,-2,-1,-2,-1,-1
14:19:11:790657,0,5,3,-2,-1,-2,-1,-1
14:19:11:796750,-6,-9,-3,0,-1,-1,-8,-3
14:19:11:812495,-2,-4,1,-2,0,0,-11,-2
14:19:11:813269,-2,-4,1,-2,0,0,-11,-2
14:19:11:819280,-1,-7,-3,-1,-2,-3,1,-1
14:19:11:826802,2,0,-4,1,-4,2,1,3
14:19:11:834283,2,0,-4,1,-4,2,1,3
14:19:11:841685,2,2,1,1,0,-2,-11,-4
14:19:11:849907,0,8,4,1,-2,-3,1,-1
14:19:11:850806,0,8,4,1,-2,-3,1,-1
14:19:11:856670,-2,8,-1,-1,-4,-4,-5,-1
14:19:11:872405,-2,-5,-4,1,3,3,8,-1
14:19:11:873146,-2,-5,-4,1,3,3,8,-1
14:19:11:879201,-5,-2,0,-3,-1,-2,3,0
14:19:11:894954,-3,-3,-1,0,-4,-5,-7,-4
14:19:11:895695,-3,-3,-1,0,-4,-5,-7,-4
14:19:11:901657,-1,-1,-2,2,4,1,-8,2
14:19:11:909912,4,6,-1,0,0,-2,-9,2
14:19:11:910697,4,6,-1,0,0,-2,-9,2
14:19:11:924161,0,-5,-3,-2,-3,-3,0,-2
14:19:11:932439,1,7,0,-2,2,-1,6,-2
14:19:11:933148,1,7,0,-2,2,-1,6,-2
14:19:11:939162,2,1,-9,-2,-1,0,-15,-4
14:19:11:954924,1,-4,-6,-3,-4,-3,-2,0
14:19:11:955655,1,-4,-6,-3,-4,-3,-2,0
14:19:11:961829,-8,3,1,-2,-2,-3,5,-4
14:19:11:969940,-3,6,-1,2,4,2,2,-2
14:19:11:970710,-3,6,-1,2,4,2,2,-2
14:19:11:984170,5,7,2,-1,0,-4,-5,3
14:19:11:992416,-2,1,5,-3,-4,-3,-4,-1
14:19:11:993156,-2,1,5,-3,-4,-3,-4,-1
14:19:11:999317,-3,-6,-1,-1,-2,-1,2,-3
14:19:12:14935,-1,2,0,0,3,2,-2,-3
14:19:12:15715,-1,2,0,0,3,2,-2,-3
14:19:12:21684,5,1,0,-1,-4,-2,-2,-3
14:19:12:29983,-4,-11,-2,-2,-4,-3,3,0
14:19:12:30719,-4,-11,-2,-2,-4,-3,3,0
14:19:12:44219,-16,8,2,0,-1,0,-4,-5
14:19:12:52420,-3,-3,0,-3,-3,-2,1,-1
14:19:12:53154,-3,-3,0,-3,-3,-2,1,-1
14:19:12:59184,7,1,1,0,-2,1,9,1
14:19:12:74948,-3,-14,-18,-4,-3,-4,-5,-1
14:19:12:75807,-3,-14,-18,-4,-3,-4,-5,-1
14:19:12:81675,-1,-5,-3,-1,5,4,-4,-2
14:19:12:89915,-3,0,6,0,-2,0,7,-1
14:19:12:90646,-3,0,6,0,-2,0,7,-1
14:19:12:104168,-2,-2,-3,-2,-5,-2,11,1
14:19:12:112417,-2,-6,1,1,1,4,12,1
14:19:12:113317,-2,-6,1,1,1,4,12,1
14:19:12:119157,1,-3,4,0,-1,-3,1,1
14:19:12:134929,-2,-2,1,-2,-4,-2,-5,-3
14:19:12:135791,-2,-2,1,-2,-4,-2,-5,-3
14:19:12:141699,5,-4,-1,-1,-2,-2,-7,-1
14:19:12:149915,3,4,1,0,1,-3,-9,-2
14:19:12:150658,3,4,1,0,1,-3,-9,-2
14:19:12:164176,-4,-2,-1,-2,-5,-2,-4,1
14:19:12:172406,-5,2,1,1,4,5,14,-3
14:19:12:173331,-5,2,1,1,4,5,14,-3
14:19:12:179209,-7,-13,-4,-1,-3,-5,0,-1
14:19:12:194938,-5,-3,1,1,-1,-4,-2,-1
14:19:12:195881,-5,-3,1,1,-1,-4,-2,-1
14:19:12:201672,2,11,-2,-1,3,3,4,-1
14:19:12:209913,4,-4,0,-2,-3,-3,-10,-3
14:19:12:210780,4,-4,0,-2,-3,-3,-10,-3
14:19:12:224164,2,-4,-8,-3,-4,-1,-8,-2
14:19:12:232452,3,1,-2,-2,0,1,0,-2
14:19:12:233293,3,1,-2,-2,0,1,0,-2
14:19:12:239166,-4,4,1,-1,0,0,1,-3
14:19:12:254956,-4,5,-5,-1,0,1,1,2
14:19:12:255671,-4,5,-5,-1,0,1,1,2
14:19:12:261681,-1,2,2,-2,0,-2,-2,0
14:19:12:269933,4,4,3,-1,0,-2,-2,-3
14:19:12:270780,4,4,3,-1,0,-2,-2,-3
14:19:12:284170,0,-11,2,-1,0,5,20,4
14:19:12:292430,-1,-6,0,-2,-6,-6,-10,-3
14:19:12:293156,-1,-6,0,-2,-6,-6,-10,-3
14:19:12:299223,-6,-7,1,1,3,-3,-17,-4
14:19:12:314960,-2,0,-1,-1,0,0,1,-1
14:19:12:315685,-2,0,-1,-1,0,0,1,-1
14:19:12:321678,3,6,0,-2,-3,-2,-6,1
14:19:12:337418,3,6,0,-2,-3,-2,-6,1
14:19:12:338152,2,-4,-1,0,0,-3,-11,-1
14:19:12:344221,-2,-3,-3,-2,-2,-3,-1,-2
14:19:12:352418,-2,-3,-3,-2,-2,-3,-1,-2
14:19:12:353170,-7,-5,-4,-2,-5,0,19,1
14:19:12:359192,2,-5,0,2,2,0,-7,-1
14:19:12:374967,2,-5,0,2,2,0,-7,-1
14:19:12:375711,-3,-14,1,-1,-1,-1,-14,-3
14:19:12:389157,3,2,2,-2,-5,-3,-1,-3
14:19:12:397505,3,2,2,-2,-5,-3,-1,-3
14:19:12:398162,-1,-1,-3,-3,-2,0,-2,-1
14:19:12:404163,4,8,0,-1,2,0,7,2
14:19:12:412427,4,8,0,-1,2,0,7,2
14:19:12:413159,2,6,0,-1,-1,0,-4,2
14:19:12:419193,-5,-10,-4,-1,0,2,-4,-2
14:19:12:434918,-5,-10,-4,-1,0,2,-4,-2
14:19:12:435671,-4,-5,0,0,-2,-4,-3,-2
14:19:12:441674,-4,3,1,-1,-1,-2,4,1
14:19:12:457439,-4,3,1,-1,-1,-2,4,1
14:19:12:458170,-11,-8,-5,-1,-1,0,3,-2
14:19:12:464236,3,-3,-6,-2,0,-2,-2,0
14:19:12:472424,3,-3,-6,-2,0,-2,-2,0
14:19:12:473167,7,13,4,0,0,0,-2,-1
14:19:12:486693,-6,10,1,0,-1,-1,-1,-3
14:19:12:494934,-6,10,1,0,-1,-1,-1,-3
14:19:12:495685,-1,1,-2,-1,1,-2,-3,-2
14:19:12:509193,1,-2,-1,-1,-2,-5,-8,-4
14:19:12:517441,1,-2,-1,-1,-2,-5,-8,-4
14:19:12:518306,3,3,-2,0,-1,1,-5,0
14:19:12:524186,0,3,0,-2,-4,-3,-2,2
14:19:12:532442,0,3,0,-2,-4,-3,-2,2
14:19:12:533157,-3,-4,0,1,1,1,0,0
14:19:12:539189,-4,-4,3,0,1,-1,-2,-2
14:19:12:554932,-4,-4,3,0,1,-1,-2,-2
14:19:12:555687,2,-3,0,-2,-2,-3,-1,0
14:19:12:561681,1,-1,0,3,-3,0,-4,-1
14:19:12:577415,1,-1,0,3,-3,0,-4,-1
14:19:12:578292,0,0,0,-1,3,0,-1,1
14:19:12:584188,1,4,-2,-1,2,-1,-17,-5
14:19:12:592429,1,4,-2,-1,2,-1,-17,-5
14:19:12:593172,5,-1,-9,-2,-6,-3,-7,-4
14:19:12:599217,-17,-16,-8,-2,-3,-1,-2,1
14:19:12:614950,-17,-16,-8,-2,-3,-1,-2,1
14:19:12:615822,-3,1,0,-2,-4,-6,0,-3
14:19:12:621668,4,2,0,-1,-3,-2,6,-2
14:19:12:637458,4,2,0,-1,-3,-2,6,-2
14:19:12:638322,-3,-1,6,1,1,3,12,5
14:19:12:644199,0,-2,0,-2,-3,0,7,0
14:19:12:652419,0,-2,0,-2,-3,0,7,0
14:19:12:653295,3,3,1,0,1,1,6,2
14:19:12:666698,-2,-2,-4,-4,-2,0,2,1
14:19:12:674926,-2,-2,-4,-4,-2,0,2,1
14:19:12:675785,0,-2,-3,-1,1,2,13,1
14:19:12:681754,-4,-6,0,1,2,1,6,-2
14:19:12:697461,-4,-6,0,1,2,1,6,-2
14:19:12:698172,-7,-2,-1,-2,1,0,-5,-3
14:19:12:704171,5,8,1,-2,-4,1,6,3
14:19:12:712457,5,8,1,-2,-4,1,6,3
14:19:12:713319,-1,-16,0,-1,-2,-4,-13,-3
14:19:12:719177,10,3,4,0,0,-1,-5,1
14:19:12:734930,10,3,4,0,0,-1,-5,1
14:19:12:735820,0,4,4,0,-1,2,6,-2
14:19:12:741691,-2,-3,-2,-2,-2,-1,5,1
14:19:12:757445,-2,-3,-2,-2,-2,-1,5,1
14:19:12:758179,0,3,-2,-3,-3,-7,-8,-3
14:19:12:764224,-3,3,-1,3,2,3,3,-7
14:19:12:772436,-3,3,-1,3,2,3,3,-7
14:19:12:773314,-4,-8,-5,-1,-5,-1,-3,-1
14:19:12:779250,0,1,-1,-2,-3,-4,-5,-2
14:19:12:795009,0,1,-1,-2,-3,-4,-5,-2
14:19:12:795730,1,1,4,2,2,4,13,1
14:19:12:801664,5,-12,-2,-2,-2,-4,-3,4
14:19:12:817441,5,-12,-2,-2,-2,-4,-3,4
14:19:12:818170,2,2,6,-1,2,6,4,1
14:19:12:824174,-6,5,1,0,2,-2,-3,-3
14:19:12:832412,-6,5,1,0,2,-2,-3,-3
14:19:12:833150,-2,0,-2,-2,-3,-3,1,-1
14:19:12:846741,-4,-9,-4,1,-1,4,-4,-1
14:19:12:854922,-4,-9,-4,1,-1,4,-4,-1
14:19:12:855653,-2,-12,-5,-2,0,-5,-10,-2
14:19:12:861754,-2,7,7,-1,-3,-3,-2,-1
14:19:12:877442,-2,7,7,-1,-3,-3,-2,-1
14:19:12:878228,5,8,-2,-2,-3,-2,-4,0
14:19:12:884202,-12,-17,-5,-1,2,0,-5,-4
14:19:12:892422,-12,-17,-5,-1,2,0,-5,-4
14:19:12:893171,3,11,5,0,-1,-2,-4,-2
14:19:12:906684,6,6,1,-2,-2,0,1,-2
14:19:12:914962,6,6,1,-2,-2,0,1,-2
14:19:12:915730,-4,-12,-5,-2,-4,-3,-2,-1
14:19:12:921676,6,-4,-1,-1,1,-3,-3,-2
14:19:12:937426,6,-4,-1,-1,1,-3,-3,-2
14:19:12:938161,-4,0,-1,-2,-4,-1,-5,-2
14:19:12:944188,-6,-3,1,1,-4,-5,-2,-2
14:19:12:952410,-6,-3,1,1,-4,-5,-2,-2
14:19:12:953163,-8,0,-3,0,5,3,2,-3
14:19:12:966699,7,7,-5,-2,1,-1,0,-1
14:19:12:974952,7,7,-5,-2,1,-1,0,-1
14:19:12:975657,0,-13,-3,0,-3,-2,-4,2
14:19:12:981729,-6,6,1,1,0,0,4,-2
14:19:12:989296,-6,6,1,1,0,0,4,-2
14:19:12:996760,-4,-5,-7,-2,-2,-3,0,-2
14:19:13:4163,-1,1,-2,-2,-4,-2,-2,-1
14:19:13:12472,-1,1,-2,-2,-4,-2,-2,-1
14:19:13:13203,-4,4,-1,-1,-2,-2,-4,-1
14:19:13:26692,4,4,-3,0,5,1,1,1
14:19:13:34915,4,4,-3,0,5,1,1,1
14:19:13:35673,0,14,2,-1,-4,-2,-5,-1
14:19:13:41684,1,-1,0,-2,1,-2,-6,-2
14:19:13:49325,1,-1,0,-2,1,-2,-6,-2
14:19:13:56678,-4,-6,-4,-4,1,-1,1,-2
14:19:13:64208,-6,-1,2,2,-4,0,0,-2
14:19:13:72433,-6,-1,2,2,-4,0,0,-2
14:19:13:73338,7,4,-2,-19,3,2,-1,0
14:19:13:86689,5,3,-4,-3,-2,0,-1,-1
14:19:13:95001,5,3,-4,-3,-2,0,-1,-1
14:19:13:95723,1,10,6,6,-1,-2,-2,2
14:19:13:101688,-4,2,6,-1,-6,3,2,2
14:19:13:109312,-4,2,6,-1,-6,3,2,2
14:19:13:116689,2,-4,0,4,-3,-1,-3,-2
14:19:13:124162,0,2,-1,-2,-1,-2,0,-3
14:19:13:132450,0,2,-1,-2,-1,-2,0,-3
14:19:13:133186,-3,-5,-1,3,7,1,-1,-2
14:19:13:146752,3,-18,-4,-4,-6,-4,-1,1
14:19:13:154938,3,-18,-4,-4,-6,-4,-1,1
14:19:13:155784,-6,3,-5,0,-3,-7,-3,-2
14:19:13:161732,-3,-6,-7,1,4,2,-1,3
14:19:13:169180,-3,-6,-7,1,4,2,-1,3
14:19:13:176680,-1,4,3,2,-5,-5,-5,-1
14:19:13:184170,7,7,-10,-5,1,-1,-4,-1
14:19:13:192449,7,7,-10,-5,1,-1,-4,-1
14:19:13:193177,0,4,-4,2,-1,1,-5,-2
14:19:13:206711,-6,-7,-1,1,-5,-2,0,-1
14:19:13:214938,-6,-7,-1,1,-5,-2,0,-1
14:19:13:215692,10,11,-1,-4,-5,2,3,3
14:19:13:221695,-9,-5,6,8,-1,-11,-6,0
14:19:13:229315,-9,-5,6,8,-1,-11,-6,0
14:19:13:236709,-4,-2,3,4,11,8,10,0
14:19:13:244193,0,-3,-4,-7,-9,4,-2,-1
14:19:13:252446,0,-3,-4,-7,-9,4,-2,-1
14:19:13:253165,-4,-2,-2,-6,-9,-5,-2,-1
14:19:13:266693,1,-11,-1,4,3,-1,-1,-1
14:19:13:274970,1,-11,-1,4,3,-1,-1,-1
14:19:13:275714,3,2,2,3,-7,-3,-2,0
14:19:13:281707,-3,8,0,-4,-4,-2,-1,-2
14:19:13:289335,-3,8,0,-4,-4,-2,-1,-2
14:19:13:296748,-2,-10,-4,4,3,1,-2,-5
14:19:13:304181,8,5,-3,-2,-1,4,0,0
14:19:13:319939,8,5,-3,-2,-1,4,0,0
14:19:13:320672,-1,-9,-5,3,-2,-3,-2,2
14:19:13:326689,-5,-1,-15,-7,-1,-2,-3,-4
14:19:13:334942,-5,-1,-15,-7,-1,-2,-3,-4
14:19:13:335682,-1,-1,-2,-5,1,0,-4,-2
14:19:13:341706,-2,0,6,4,2,-1,0,0
14:19:13:349321,-2,0,6,4,2,-1,0,0
14:19:13:356676,10,-3,-3,-5,-3,0,1,-2
14:19:13:364244,0,6,1,0,0,-2,3,1
14:19:13:372425,0,6,1,0,0,-2,3,1
14:19:13:373347,-4,-1,-7,-5,2,3,0,-2
14:19:13:386684,3,6,-1,3,3,-2,-2,-1
14:19:13:394925,3,6,-1,3,3,-2,-2,-1
14:19:13:395682,-2,-6,2,2,1,0,1,0
14:19:13:401685,-4,-9,5,4,-2,-3,0,-2
14:19:13:409342,-4,-9,5,4,-2,-3,0,-2
14:19:13:416682,-4,5,0,-4,-7,-7,-4,-7
14:19:13:424169,-1,-16,2,0,0,3,-1,1
14:19:13:432493,-1,-16,2,0,0,3,-1,1
14:19:13:433180,1,-3,0,6,8,1,0,2
14:19:13:446742,-3,4,-4,-10,-3,-1,1,-2
14:19:13:454942,-3,4,-4,-10,-3,-1,1,-2
14:19:13:455816,-5,1,27,4,-4,-2,-2,-1
14:19:13:461748,-2,2,-1,-4,-9,-4,-2,-5
14:19:13:469190,-2,2,-1,-4,-9,-4,-2,-5
14:19:13:476684,11,-5,-4,5,-2,0,0,3
14:19:13:484160,-7,9,10,8,-2,-3,-2,0
14:19:13:492452,-7,9,10,8,-2,-3,-2,0
14:19:13:493193,-7,4,-7,1,-5,-5,-4,-1
14:19:13:506680,1,-9,-6,3,9,2,1,1
14:19:13:514957,1,-9,-6,3,9,2,1,1
14:19:13:515692,2,-12,-7,3,4,-1,-2,-1
14:19:13:521706,-5,0,5,2,-5,-5,-4,-2
14:19:13:529320,-5,0,5,2,-5,-5,-4,-2
14:19:13:536687,7,16,-8,-21,-3,-1,1,3
14:19:13:544188,-5,-21,-4,-2,4,4,0,1
14:19:13:552422,-5,-21,-4,-2,4,4,0,1
14:19:13:553168,-3,-4,10,-1,-4,-1,-2,-1
14:19:13:566700,0,9,-1,-23,0,-1,0,-3
14:19:13:574967,0,9,-1,-23,0,-1,0,-3
14:19:13:575717,-5,-6,-3,-4,2,2,0,-1
14:19:13:581680,-6,11,0,1,-5,-3,-3,-2
14:19:13:597415,-6,11,0,1,-5,-3,-3,-2
14:19:13:598158,4,21,5,-1,-4,3,1,-1
14:19:13:604179,-5,-5,-18,-4,-5,-3,-3,0
14:19:13:619937,-5,-5,-18,-4,-5,-3,-3,0
14:19:13:620671,-7,-9,2,0,-5,-5,0,-1
14:19:13:626707,6,-7,-9,-19,0,0,1,2
14:19:13:634931,6,-7,-9,-19,0,0,1,2
14:19:13:635682,-5,1,10,7,2,-3,-2,-2
14:19:13:641711,3,-11,9,20,15,-1,-3,-2
14:19:13:649324,3,-11,9,20,15,-1,-3,-2
14:19:13:656679,-2,13,-7,-2,3,2,-1,-1
14:19:13:664207,-2,8,1,0,-9,-2,-1,-2
14:19:13:672424,-2,8,1,0,-9,-2,-1,-2
14:19:13:673165,-3,-27,-7,3,7,-2,-4,-4
14:19:13:686679,6,0,10,8,-5,2,0,-1
14:19:13:694939,6,0,10,8,-5,2,0,-1
14:19:13:695715,-2,-7,4,4,0,1,0,1
14:19:13:701731,0,3,-6,4,2,-2,-3,-2
14:19:13:709365,0,3,-6,4,2,-2,-3,-2
14:19:13:716690,1,-3,-11,5,-7,1,1,0
14:19:13:724178,4,-7,-5,3,-1,-2,0,-1
14:19:13:732460,4,-7,-5,3,-1,-2,0,-1
14:19:13:733330,-1,6,-20,-13,-12,-6,-5,-5
14:19:13:746698,6,10,1,1,-9,-1,0,1
14:19:13:754940,6,10,1,1,-9,-1,0,1
14:19:13:755690,-6,-23,-1,11,16,4,0,-1
14:19:13:761728,-5,7,12,-6,3,1,1,-1
14:19:13:769317,-5,7,12,-6,3,1,1,-1
14:19:13:776702,-4,3,-3,-2,-14,-3,-2,-1
14:19:13:784195,-8,-10,2,-6,-5,0,0,-2
14:19:13:791697,-8,-10,2,-6,-5,0,0,-2
14:19:13:799237,1,6,10,-10,13,3,1,1
14:19:13:806688,5,8,-4,-20,-16,-6,-2,-3
14:19:13:814945,5,8,-4,-20,-16,-6,-2,-3
14:19:13:815683,-7,-11,1,3,-5,-3,-3,-2
14:19:13:829936,-9,-19,-12,-13,-1,-3,0,0
14:19:13:830682,-9,-19,-12,-13,-1,-3,0,0
14:19:13:836670,1,-12,-13,-7,-10,0,1,-1
14:19:13:844208,0,0,2,3,-6,-2,0,-1
14:19:13:851841,0,0,2,3,-6,-2,0,-1
14:19:13:859214,5,7,-4,0,1,-2,-2,-2
14:19:13:866679,1,-8,-5,-2,7,1,-1,-1
14:19:13:874955,1,-8,-5,-2,7,1,-1,-1
14:19:13:875704,1,-11,-4,5,7,0,0,0
14:19:13:889917,2,6,16,14,6,1,0,1
14:19:13:890690,2,6,16,14,6,1,0,1
14:19:13:896685,-4,2,6,-1,6,0,0,-3
14:19:13:913091,1,12,-7,14,9,1,0,1
14:19:13:913832,1,12,-7,14,9,1,0,1
14:19:13:919185,5,2,-7,-13,-5,-3,0,2
14:19:13:926713,-6,4,11,6,-10,-6,-5,-3
14:19:13:934951,-6,4,11,6,-10,-6,-5,-3
14:19:13:935676,-14,16,7,2,-12,-3,-1,-2
14:19:13:949951,1,-1,-15,-12,14,3,1,0
14:19:13:950712,1,-1,-15,-12,14,3,1,0
14:19:13:956675,-5,-3,18,-5,-9,-7,-6,1
14:19:13:964232,-8,3,6,8,-8,-4,-1,-1
14:19:13:971806,-8,3,6,8,-8,-4,-1,-1
14:19:13:979176,-2,-12,-22,-13,2,1,-2,-2
14:19:13:986681,3,-4,-3,2,1,-2,0,-1
14:19:13:994976,3,-4,-3,2,1,-2,0,-1
14:19:13:995717,-1,-5,11,8,0,0,-1,1
14:19:14:10348,10,-1,1,-4,2,-1,-3,-1
14:19:14:11286,10,-1,1,-4,2,-1,-3,-1
14:19:14:16685,-3,-10,-2,-8,-2,-1,-1,-3
14:19:14:24171,1,-13,-4,-5,-4,-2,1,1
14:19:14:31811,1,-13,-4,-5,-4,-2,1,1
14:19:14:39170,-7,14,7,-33,-15,-4,-2,-1
14:19:14:46714,-19,3,-3,-5,-7,-2,-3,-6
14:19:14:54935,-19,3,-3,-5,-7,-2,-3,-6
14:19:14:55808,23,21,7,5,-5,-3,-3,1
14:19:14:69929,0,0,3,10,8,3,1,1
14:19:14:70666,0,0,3,10,8,3,1,1
14:19:14:76726,-7,-23,-9,-4,4,0,-1,-1
14:19:14:84182,8,11,0,-5,-7,-1,2,0
14:19:14:91845,8,11,0,-5,-7,-1,2,0
14:19:14:99194,1,3,-3,-10,-4,0,1,-1
14:19:14:106679,2,-7,13,13,1,2,3,0
14:19:14:114938,2,-7,13,13,1,2,3,0
14:19:14:115692,1,-7,-11,6,-7,1,0,1
14:19:14:129847,-3,8,-10,-2,-3,-1,-3,-2
14:19:14:130753,-3,8,-10,-2,-3,-1,-3,-2
14:19:14:136698,-5,-1,-6,16,6,-1,-2,-3
14:19:14:144188,1,-10,-14,-26,14,0,-4,-1
14:19:14:151696,1,-10,-14,-26,14,0,-4,-1
14:19:14:159188,-7,-5,21,9,-6,-2,-1,-1
14:19:14:166686,0,-18,-10,3,-8,-1,-1,0
14:19:14:174963,0,-18,-10,3,-8,-1,-1,0
14:19:14:175733,-5,-3,8,-1,-3,2,2,1
14:19:14:189947,-6,7,-3,-13,-13,-1,-2,-2
14:19:14:190681,-6,7,-3,-13,-13,-1,-2,-2
14:19:14:196767,1,13,-5,1,-12,-5,-1,-1
14:19:14:204182,1,-5,5,6,-6,-1,1,-1
14:19:14:211867,1,-5,5,6,-6,-1,1,-1
14:19:14:219177,-2,-6,-20,-2,-2,-4,-3,-2
14:19:14:226725,5,8,-7,-21,2,-1,-3,1
14:19:14:234948,5,8,-7,-21,2,-1,-3,1
14:19:14:235698,-3,24,13,11,9,3,0,-3
14:19:14:249938,-8,-6,-6,-12,-12,-1,-1,-1
14:19:14:250680,-8,-6,-6,-12,-12,-1,-1,-1
14:19:14:256706,4,18,3,2,4,1,3,-1
14:19:14:264255,2,21,15,-3,5,0,-1,-1
14:19:14:271801,2,21,15,-3,5,0,-1,-1
14:19:14:279226,6,-10,-14,-16,3,-1,0,1
14:19:14:286721,-3,2,-13,-11,10,1,-1,-2
14:19:14:295073,-3,2,-13,-11,10,1,-1,-2
14:19:14:295724,0,-1,0,4,13,3,0,-1
14:19:14:310010,-5,-4,4,20,15,-2,-3,-2
14:19:14:310734,-5,-4,4,20,15,-2,-3,-2
14:19:14:316719,-11,-13,-11,10,1,-5,-4,-2
14:19:14:324181,0,-15,2,16,-6,-1,0,0
14:19:14:331830,0,-15,2,16,-6,-1,0,0
14:19:14:339224,3,-5,15,6,-8,-3,-1,0
14:19:14:346732,5,-6,3,3,-7,-6,-8,-2
14:19:14:354972,5,-6,3,3,-7,-6,-8,-2
14:19:14:355813,-1,3,-12,-44,0,0,0,-2
14:19:14:369949,-6,-3,-3,-1,-1,3,1,-1
14:19:14:370682,-6,-3,-3,-1,-1,3,1,-1
14:19:14:376712,4,11,6,3,-5,-2,0,-2
14:19:14:384201,12,9,-6,1,13,3,1,0
14:19:14:391699,12,9,-6,1,13,3,1,0
14:19:14:399191,5,-8,-7,1,-13,-7,-4,-4
14:19:14:406691,-6,-11,8,-2,-8,-2,1,-1
14:19:14:414951,-6,-11,8,-2,-8,-2,1,-1
14:19:14:415718,-1,10,24,13,5,-1,-1,0
14:19:14:429822,-2,-9,7,5,10,3,-2,-1
14:19:14:430676,-2,-9,7,5,10,3,-2,-1
14:19:14:436699,-5,-5,-8,10,-5,0,-2,0
14:19:14:444189,13,6,-5,-3,-4,-3,2,3
14:19:14:451681,13,6,-5,-3,-4,-3,2,3
14:19:14:459185,-10,-26,-20,-19,-4,-1,-1,-1
14:19:14:466709,-8,-12,-1,-4,-3,-2,-1,-2
14:19:14:474946,-8,-12,-1,-4,-3,-2,-1,-2
14:19:14:475680,7,6,-1,-13,-8,-1,0,-2
14:19:14:489183,-11,9,-8,7,8,0,0,-2
14:19:14:497532,-11,9,-8,7,8,0,0,-2
14:19:14:498211,-6,-2,7,27,-2,2,0,3
14:19:14:504179,-21,-18,-2,25,-6,-3,-1,-3
14:19:14:511787,-21,-18,-2,25,-6,-3,-1,-3
14:19:14:519192,-3,2,-16,6,2,1,-1,0
14:19:14:526701,-1,-6,3,-3,-19,-6,-4,-1
14:19:14:534951,-1,-6,3,-3,-19,-6,-4,-1
14:19:14:535683,-3,-13,0,-1,2,-2,-3,-2
14:19:14:549192,1,8,-1,-26,-8,-4,-2,2
14:19:14:557444,1,8,-1,-26,-8,-4,-2,2
14:19:14:558192,0,-37,-27,-17,-3,2,0,-1
14:19:14:564290,-3,1,0,5,2,0,-1,-3
14:19:14:571810,-3,1,0,5,2,0,-1,-3
14:19:14:579233,15,24,19,17,7,-2,-3,-2
14:19:14:586676,0,-9,-14,-8,-6,3,2,-2
14:19:14:594985,0,-9,-14,-8,-6,3,2,-2
14:19:14:595718,5,15,28,15,9,1,2,-2
14:19:14:609978,3,2,-1,-9,1,-4,-3,-2
14:19:14:610754,3,2,-1,-9,1,-4,-3,-2
14:19:14:616702,0,28,19,-3,-1,0,0,-2
14:19:14:624192,7,3,-11,12,-20,-3,0,1
14:19:14:631840,7,3,-11,12,-20,-3,0,1
14:19:14:639188,-15,-17,-14,-28,-5,-3,-1,0
14:19:14:646762,-1,6,-1,-5,1,-4,-2,-3
14:19:14:654931,-1,6,-1,-5,1,-4,-2,-3
14:19:14:655680,-4,-12,-45,9,8,2,-1,-1
14:19:14:669216,3,3,14,11,3,-3,0,1
14:19:14:677471,3,3,14,11,3,-3,0,1
14:19:14:678246,-11,-7,-4,-7,-3,-5,-2,1
14:19:14:684198,1,8,13,16,14,1,-1,-2
14:19:14:691697,1,8,13,16,14,1,-1,-2
14:19:14:699200,6,-4,-1,4,-2,-2,-4,-2
14:19:14:706691,2,-7,1,-21,-12,0,0,0
14:19:14:714949,2,-7,1,-21,-12,0,0,0
14:19:14:715696,3,-6,0,-5,8,1,1,-2
14:19:14:729192,-9,-1,3,-14,-3,-1,-4,-2
14:19:14:737446,-9,-1,3,-14,-3,-1,-4,-2
14:19:14:738189,-1,20,32,19,-7,2,1,3
14:19:14:752324,-2,-3,-14,-2,3,0,-1,-1
14:19:14:753188,-2,-3,-14,-2,3,0,-1,-1
14:19:14:759248,0,-3,6,-10,-6,-6,-2,-2
14:19:14:766702,-13,1,12,6,0,-3,-2,-2
14:19:14:774200,-13,1,12,6,0,-3,-2,-2
14:19:14:781690,-4,0,10,-2,-5,-2,2,-2
14:19:14:789177,7,5,0,-18,5,0,-2,-2
14:19:14:797492,7,5,0,-18,5,0,-2,-2
14:19:14:798211,-4,0,-13,-11,14,0,-3,-2
14:19:14:812362,-1,-4,10,17,4,2,0,0
14:19:14:813219,-1,-4,10,17,4,2,0,0
14:19:14:819222,3,-7,-9,-1,3,0,1,0
14:19:14:826698,-2,1,-20,-11,3,-4,-4,-3
14:19:14:834223,-2,1,-20,-11,3,-4,-4,-3
14:19:14:841706,1,3,6,22,0,-3,-4,0
14:19:14:849210,5,4,5,6,6,4,3,1
14:19:14:857455,5,4,5,6,6,4,3,1
14:19:14:858251,-5,2,6,8,-7,-3,-3,-1
14:19:14:872440,4,4,8,-7,-3,-1,0,1
14:19:14:873195,4,4,8,-7,-3,-1,0,1
14:19:14:879239,2,-1,-8,-12,-1,2,0,1
14:19:14:886721,1,5,0,-3,-1,0,-3,0
14:19:14:894336,1,5,0,-3,-1,0,-3,0
14:19:14:901703,-3,-31,-15,-5,-20,-6,-3,-2
14:19:14:909207,-2,6,4,3,-8,-1,2,0
14:19:14:917451,-2,6,4,3,-8,-1,2,0
14:19:14:918196,-10,-7,-2,-4,1,0,-1,-3
14:19:14:932453,2,-15,-6,-11,-17,-5,-1,0
14:19:14:933198,2,-15,-6,-11,-17,-5,-1,0
14:19:14:939213,-4,0,5,-3,-2,-2,-1,-2
14:19:14:946728,1,-4,-7,4,-13,-4,-1,-2
14:19:14:954323,1,-4,-7,4,-13,-4,-1,-2
14:19:14:961760,5,-4,-8,3,3,1,-1,-2
14:19:14:969207,-4,8,7,15,10,2,0,0
14:19:14:977491,-4,8,7,15,10,2,0,0
14:19:14:978240,6,4,-1,-26,-13,0,-1,2
14:19:14:992475,9,10,-1,6,1,-2,-2,1
14:19:14:993205,9,10,-1,6,1,-2,-2,1
14:19:14:999233,1,5,8,0,3,0,2,0
14:19:15:6730,-11,-13,-17,-11,-4,-3,1,-2
14:19:15:14379,-11,-13,-17,-11,-4,-3,1,-2
14:19:15:21697,-8,-15,-11,1,10,1,-5,-7
14:19:15:29300,3,-9,-7,5,4,0,-1,-4
14:19:15:37441,3,-9,-7,5,4,0,-1,-4
14:19:15:38194,-4,-13,-5,7,-2,-3,-1,-3
14:19:15:52842,-1,-3,-5,-7,-8,0,-2,-2
14:19:15:59988,-1,-3,-5,-7,-8,0,-2,-2
14:19:15:60722,0,10,-1,-3,-3,0,0,-1
14:19:15:66724,-3,12,6,8,-4,-4,-2,-3
14:19:15:74210,-3,12,6,8,-4,-4,-2,-3
14:19:15:81708,0,18,8,15,7,0,-1,-1
14:19:15:89179,-4,-4,-4,-27,-4,-1,-2,2
14:19:15:97498,-4,-4,-4,-27,-4,-1,-2,2
14:19:15:98188,3,10,-17,-11,6,-1,-1,-4
14:19:15:112481,-14,-14,-2,1,11,0,-1,-3
14:19:15:113207,-14,-14,-2,1,11,0,-1,-3
14:19:15:119211,3,10,14,-1,-4,0,3,1
14:19:15:126706,-1,3,10,18,-2,1,0,0
14:19:15:134206,-1,3,10,18,-2,1,0,0
14:19:15:141701,8,3,-3,-37,-3,3,0,2
14:19:15:149205,3,5,6,-2,0,-2,-3,-3
14:19:15:157455,3,5,6,-2,0,-2,-3,-3
14:19:15:158200,-5,-3,-7,5,-8,-2,0,-2
14:19:15:172451,6,5,-18,-10,4,-1,-1,3
14:19:15:173198,6,5,-18,-10,4,-1,-1,3
14:19:15:179218,-2,-7,19,20,-6,-3,-2,0
14:19:15:186696,1,10,11,15,-2,-3,-3,-4
14:19:15:194322,1,10,11,15,-2,-3,-3,-4
14:19:15:201704,-7,1,-3,-15,-8,-1,0,1
14:19:15:209189,-2,-5,3,-10,-3,1,1,2
14:19:15:217441,-2,-5,3,-10,-3,1,1,2
14:19:15:218199,-5,-8,-6,15,-4,-3,-2,-1
14:19:15:232464,-3,-14,-16,-5,-1,-1,-1,-1
14:19:15:233181,-3,-14,-16,-5,-1,-1,-1,-1
14:19:15:239203,3,3,10,7,11,2,-2,0
14:19:15:246735,-1,-8,4,2,1,-2,-3,-4
14:19:15:254305,-1,-8,4,2,1,-2,-3,-4
14:19:15:269838,8,5,3,-4,-3,-1,0,2
14:19:15:270690,-5,-3,-4,-22,-3,-2,0,-2
14:19:15:277505,-5,-3,-4,-22,-3,-2,0,-2
14:19:15:278225,-4,4,-1,-1,-4,-1,-2,-1
14:19:15:300339,2,-9,-13,25,8,1,0,-1
14:19:15:316197,2,-9,-13,25,8,1,0,-1
14:19:15:317055,-10,-6,-11,-3,4,-2,-2,-4
14:19:15:317819,-2,-10,-22,-9,12,3,0,-2
14:19:15:318690,-2,-10,-22,-9,12,3,0,-2
14:19:15:321689,0,-2,5,-2,3,-1,-2,1
14:19:15:329373,2,8,-7,-9,-15,-7,-5,0
14:19:15:337437,2,8,-7,-9,-15,-7,-5,0
14:19:15:338175,5,-4,-6,-1,-1,1,1,0
14:19:15:352334,-5,-10,5,-12,-11,0,0,-1
14:19:15:353197,-5,-10,5,-12,-11,0,0,-1
14:19:15:359188,-3,0,5,15,11,0,-1,-2
14:19:15:366695,-1,-3,-8,0,-4,-2,-2,1
14:19:15:374218,-1,-3,-8,0,-4,-2,-2,1
14:19:15:381721,-7,-5,-6,-1,-2,-3,0,-1
14:19:15:389185,-2,1,6,3,-5,0,-2,-2
14:19:15:397520,-2,1,6,3,-5,0,-2,-2
14:19:15:398230,12,2,-3,-8,-5,-2,-1,0
14:19:15:412371,-1,2,1,22,13,2,2,0
14:19:15:413217,-1,2,1,22,13,2,2,0
14:19:15:419221,3,7,-7,-32,-10,0,1,1
14:19:15:426692,0,-17,-4,-1,-6,-6,-2,-3
14:19:15:434383,0,-17,-4,-1,-6,-6,-2,-3
14:19:15:441699,-3,-13,0,22,-1,-3,-2,-5
14:19:15:449220,-4,11,1,-8,15,0,-2,-2
14:19:15:458595,-4,11,1,-8,15,0,-2,-2
14:19:15:464238,-3,-5,19,11,-13,-4,-3,-1
14:19:15:472436,-2,11,0,-2,0,-2,1,-1
14:19:15:473197,-2,11,0,-2,0,-2,1,-1
14:19:15:479238,4,5,-10,5,-7,-2,0,0
14:19:15:486704,3,0,-3,9,-4,-2,-4,-3
14:19:15:494332,3,0,-3,9,-4,-2,-4,-3
14:19:15:509841,-8,-3,-24,-12,-3,1,1,3
14:19:15:510704,-1,8,7,12,9,2,4,0
14:19:15:517439,-1,8,7,12,9,2,4,0
14:19:15:518188,2,-7,5,-3,10,2,0,0
14:19:15:532814,7,5,4,-5,1,-1,-1,0
14:19:15:533693,7,5,4,-5,1,-1,-1,0
14:19:15:539198,-7,-16,-17,-7,5,1,1,0
14:19:15:554959,12,19,13,5,-2,-3,-4,-1
14:19:15:555701,12,19,13,5,-2,-3,-4,-1
14:19:15:569832,1,-9,22,-1,-5,-3,-1,0
14:19:15:570691,-4,0,13,-9,-21,-2,-3,-3
14:19:15:577472,-4,0,13,-9,-21,-2,-3,-3
14:19:15:578214,-1,12,-8,-47,-7,-2,-3,0
14:19:15:592476,-14,-15,-10,-6,-6,-2,-2,0
14:19:15:593201,-14,-15,-10,-6,-6,-2,-2,0
14:19:15:599231,0,-9,7,21,9,2,2,-1
14:19:15:606698,0,-10,-12,-6,3,0,1,-1
14:19:15:614252,0,-10,-12,-6,3,0,1,-1
14:19:15:621710,-2,-2,-13,-3,7,1,-4,-1
14:19:15:629225,-3,4,10,8,1,-2,-3,-3
14:19:15:637441,-3,4,10,8,1,-2,-3,-3
14:19:15:638182,-4,3,-19,3,-5,0,-1,-2
14:19:15:652497,-3,0,2,-9,-4,-2,0,2
14:19:15:653217,-3,0,2,-9,-4,-2,0,2
14:19:15:659210,-9,-7,-16,13,-8,-4,0,-4
14:19:15:666697,9,5,17,6,-9,1,0,2
14:19:15:674335,9,5,17,6,-9,1,0,2
14:19:15:681721,0,1,20,1,4,2,0,0
14:19:15:689196,-2,-1,-15,-13,2,-1,-2,-3
14:19:15:696843,-2,-1,-15,-13,2,-1,-2,-3
14:19:15:704210,-1,30,21,15,3,-4,-2,-2
14:19:15:712352,8,13,11,12,5,-2,-2,-2
14:19:15:713218,8,13,11,12,5,-2,-2,-2
14:19:15:719209,0,-9,-10,-2,-3,-3,-5,-6
14:19:15:734958,-13,-10,-15,-10,-3,0,0,-2
14:19:15:735689,-13,-10,-15,-10,-3,0,0,-2
14:19:15:741700,-2,6,17,10,0,0,0,-1
14:19:15:749203,0,-13,-6,-5,0,0,-1,1
14:19:15:756696,0,-13,-6,-5,0,0,-1,1
14:19:15:764226,3,-4,-6,-16,-1,-1,0,0
14:19:15:772340,3,-5,-10,-9,-6,0,2,2
14:19:15:773201,3,-5,-10,-9,-6,0,2,2
14:19:15:779273,1,3,5,-13,-2,-4,-2,0
14:19:15:794878,5,4,2,-5,-6,1,-2,1
14:19:15:795718,5,4,2,-5,-6,1,-2,1
14:19:15:801712,-8,-43,-25,9,1,-2,-2,-1
14:19:15:809190,2,9,-2,-16,-7,-3,-3,-4
14:19:15:816713,2,9,-2,-16,-7,-3,-3,-4
14:19:15:824197,6,5,7,-1,10,0,3,1
14:19:15:832479,-1,-4,0,21,0,-1,-2,-1
14:19:15:833181,-1,-4,0,21,0,-1,-2,-1
14:19:15:846736,-2,-11,-4,-3,-9,-1,1,0
14:19:15:854828,-3,8,-4,-10,8,-1,0,-2
14:19:15:855683,-3,8,-4,-10,8,-1,0,-2
14:19:15:869823,1,6,11,16,-7,-1,-1,3
14:19:15:870695,-7,-10,-7,-32,-14,-4,-2,1
14:19:15:876738,-7,-10,-7,-32,-14,-4,-2,1
14:19:15:884216,10,18,16,-2,-4,-3,-1,0
14:19:15:892346,3,-4,8,4,-7,2,1,0
14:19:15:893201,3,-4,8,4,-7,2,1,0
14:19:15:899206,-6,0,-1,7,-3,-1,3,-1
14:19:15:914849,-5,-9,10,19,2,-5,-1,-3
14:19:15:915733,-5,-9,10,19,2,-5,-1,-3
14:19:15:921739,-1,3,3,-2,0,-1,-1,-1
14:19:15:929211,3,-2,0,6,6,1,-1,-2
14:19:15:936725,3,-2,0,6,6,1,-1,-2
14:19:15:944224,-2,-6,21,3,2,1,-1,-1
14:19:15:952446,-2,-37,-39,-6,-8,-3,-3,-1
14:19:15:953211,-2,-37,-39,-6,-8,-3,-3,-1
14:19:15:959213,-3,5,3,-40,-19,-4,-2,-2
14:19:15:974829,-1,3,7,0,5,1,-7,-2
14:19:15:975718,-1,3,7,0,5,1,-7,-2
14:19:15:981714,-4,-4,-21,0,19,2,-4,0
14:19:15:989200,-3,5,5,16,-2,-3,-2,-3
14:19:15:996741,-3,5,5,16,-2,-3,-2,-3
14:19:16:4203,0,9,-14,-13,-1,1,-3,-2
14:19:16:12503,-5,-2,19,5,8,0,1,0
14:19:16:13226,-5,-2,19,5,8,0,1,0
14:19:16:19214,3,12,12,4,-4,1,-2,-2
14:19:16:34959,-1,2,6,-9,1,0,13,1
14:19:16:35696,-1,2,6,-9,1,0,13,1
14:19:16:41715,-1,-3,7,9,0,1,1,0
14:19:16:49198,-2,1,0,8,2,1,4,2
14:19:16:56829,-2,1,0,8,2,1,4,2
14:19:16:64278,2,4,-2,25,4,-2,-1,-2
14:19:16:72442,4,-1,-8,-10,1,-3,-3,-1
14:19:16:73191,4,-1,-8,-10,1,-3,-3,-1
14:19:16:79255,8,2,-3,-3,-3,-1,6,-1
14:19:16:95024,-1,2,-34,-14,3,-1,-4,-1
14:19:16:95736,-1,2,-34,-14,3,-1,-4,-1
14:19:16:101722,-4,-5,2,1,-1,-4,-17,-5
14:19:16:117476,-2,0,8,0,-4,-1,-1,0
14:19:16:118218,-2,0,8,0,-4,-1,-1,0
14:19:16:124230,5,0,-16,-12,-17,-3,2,1
14:19:16:140606,2,3,-6,-19,-1,0,-1,1
14:19:16:141456,2,3,-6,-19,-1,0,-1,1
14:19:16:142204,-15,-15,-6,4,1,-2,-2,-4
14:19:16:155964,-1,13,13,0,-8,-1,8,-1
14:19:16:170613,-1,13,13,0,-8,-1,8,-1
14:19:16:171341,-2,-10,-11,-4,4,2,9,-1
14:19:16:172210,2,1,7,-7,-3,2,-13,-5
14:19:16:176765,2,1,7,-7,-3,2,-13,-5
14:19:16:184208,-3,16,16,1,4,-2,-3,-1
14:19:16:192469,4,13,14,8,-6,3,15,2
14:19:16:193200,4,13,14,8,-6,3,15,2
14:19:16:199239,-4,-5,-4,-5,-2,-1,-3,1
14:19:16:214840,-9,2,-4,8,-7,-8,-18,-5
14:19:16:215726,-9,2,-4,8,-7,-8,-18,-5
14:19:16:221710,2,-7,-12,1,-1,3,3,-2
14:19:16:237498,2,-7,-12,1,-1,3,3,-2
14:19:16:238243,2,-3,-11,3,-3,-2,3,1
14:19:16:244234,-7,6,21,5,-3,-4,-8,-3
14:19:16:252481,-7,6,21,5,-3,-4,-8,-3
14:19:16:253207,-9,-1,-13,-8,1,1,-7,-5
14:19:16:259245,5,-13,-12,-13,-1,3,4,1
14:19:16:274975,5,-13,-12,-13,-1,3,4,1
14:19:16:275726,1,1,2,3,0,-1,7,2
14:19:16:281719,-3,5,16,8,4,-2,-13,-5
14:19:16:297490,-3,5,16,8,4,-2,-13,-5
14:19:16:298257,3,-4,7,-1,6,2,1,0
14:19:16:304218,-7,2,-13,-5,-3,-3,-3,-2
14:19:16:312466,-7,2,-13,-5,-3,-3,-3,-2
14:19:16:313199,0,1,-2,0,1,1,1,0
14:19:16:319215,-2,-17,-10,-5,-3,-2,3,0
14:19:16:334853,-2,-17,-10,-5,-3,-2,3,0
14:19:16:335711,4,-3,-4,6,4,-2,-5,-3
14:19:16:341733,1,-7,-1,1,1,1,0,1
14:19:16:357494,1,-7,-1,1,1,1,0,1
14:19:16:358226,1,-6,5,0,-1,0,-2,1
14:19:16:364250,2,3,5,-1,-3,0,6,-1
14:19:16:372466,2,3,5,-1,-3,0,6,-1
14:19:16:373208,1,4,0,1,-2,-3,2,0
14:19:16:379217,0,3,-19,-15,-6,-3,-7,0
14:19:16:394985,0,3,-19,-15,-6,-3,-7,0
14:19:16:395733,-3,-21,-27,-5,-6,-3,-3,-2
14:19:16:401727,2,15,7,5,1,-2,5,2
14:19:16:417494,2,15,7,5,1,-2,5,2
14:19:16:418209,1,8,8,1,0,-3,-2,-1
14:19:16:424223,8,6,-6,-1,-2,4,21,1
14:19:16:432486,8,6,-6,-1,-2,4,21,1
14:19:16:433209,-5,-8,-3,3,2,2,-5,-4
14:19:16:439209,-6,-2,4,1,0,0,-8,-6
14:19:16:454959,-6,-2,4,1,0,0,-8,-6
14:19:16:455698,-6,-1,8,-6,-1,3,9,1
14:19:16:461717,-7,-31,-28,-9,-3,-2,-1,-3
14:19:16:477490,-7,-31,-28,-9,-3,-2,-1,-3
14:19:16:478238,1,-13,-12,-1,-3,-1,0,-3
14:19:16:484204,-1,0,6,-5,-1,-4,-7,-1
14:19:16:492480,-1,0,6,-5,-1,-4,-7,-1
14:19:16:493219,2,7,2,0,-2,-2,-3,0
14:19:16:499256,-11,-1,13,12,4,-1,2,-1
14:19:16:514978,-11,-1,13,12,4,-1,2,-1
14:19:16:515743,-4,-6,2,-5,3,-4,1,-3
14:19:16:521713,6,-6,-16,1,-4,-2,-17,-1
14:19:16:537489,6,-6,-16,1,-4,-2,-17,-1
14:19:16:538231,0,1,11,4,-4,-3,-3,0
14:19:16:544212,-1,-5,1,0,1,-3,-12,-1
14:19:16:552464,-1,-5,1,0,1,-3,-12,-1
14:19:16:553201,2,0,-6,0,-1,-3,-10,-3
14:19:16:559213,5,14,6,0,1,-1,-1,-1
14:19:16:574959,5,14,6,0,1,-1,-1,-1
14:19:16:575714,-6,9,11,-18,-8,0,-1,0
14:19:16:581721,-5,-5,-11,-2,-1,4,24,5
14:19:16:597526,-5,-5,-11,-2,-1,4,24,5
14:19:16:598220,-4,0,-24,-20,-3,-2,-15,-5
14:19:16:604208,0,6,-5,-3,0,0,2,0
14:19:16:612471,0,6,-5,-3,0,0,2,0
14:19:16:613203,-10,-16,-11,5,0,-1,-2,0
14:19:16:626742,3,-4,-7,-1,-3,-3,-9,-4
14:19:16:634951,3,-4,-7,-1,-3,-3,-9,-4
14:19:16:635695,2,0,1,2,-2,3,21,4
14:19:16:641723,-4,8,8,3,6,3,17,2
14:19:16:657465,-4,8,8,3,6,3,17,2
14:19:16:658241,6,-8,8,6,3,6,18,-1
14:19:16:664266,4,-4,-10,-21,-6,-1,0,0
14:19:16:672465,4,-4,-10,-21,-6,-1,0,0
14:19:16:673223,-3,-4,1,5,0,-6,-12,-5
14:19:16:686737,-7,8,23,4,-1,-1,-12,-4
14:19:16:694997,-7,8,23,4,-1,-1,-12,-4
14:19:16:695763,-6,-2,4,2,-4,-2,-6,-5
14:19:16:701699,2,11,19,-11,-5,-3,-5,-1
14:19:16:717494,2,11,19,-11,-5,-3,-5,-1
14:19:16:718226,-4,-9,15,5,1,0,-11,-2
14:19:16:724215,5,-9,-12,4,-1,-2,-3,3
14:19:16:732526,5,-9,-12,4,-1,-2,-3,3
14:19:16:733227,-9,-2,-8,0,-1,-2,0,-1
14:19:16:746778,1,-5,-24,2,-1,1,0,0
14:19:16:754968,1,-5,-24,2,-1,1,0,0
14:19:16:755705,0,1,1,2,3,0,0,2
14:19:16:761732,-4,8,19,7,-2,-3,-11,-3
14:19:16:777352,-4,8,19,7,-2,-3,-11,-3
14:19:16:778278,1,9,-2,2,-1,-2,-4,-1
14:19:16:784226,1,-7,3,2,-1,-3,-5,1
14:19:16:792483,1,-7,3,2,-1,-3,-5,1
14:19:16:793217,-2,0,-1,0,-2,-1,-1,0
14:19:16:806717,-8,2,-5,-1,-5,-8,-20,-6
14:19:16:814869,-8,2,-5,-1,-5,-8,-20,-6
14:19:16:815773,-2,-4,-2,-2,0,-2,-8,-1
14:19:16:821720,8,-3,7,1,1,0,8,0
14:19:16:837464,8,-3,7,1,1,0,8,0
14:19:16:838208,7,-2,0,-2,-6,-3,-4,0
14:19:16:844254,4,-6,-4,-2,2,4,8,1
14:19:16:852470,4,-6,-4,-2,2,4,8,1
14:19:16:853198,-4,-5,5,0,0,0,-3,-2
14:19:16:866710,3,3,3,1,0,-1,1,0
14:19:16:874852,3,3,3,1,0,-1,1,0
14:19:16:875721,5,10,3,-2,3,-3,-1,0
14:19:16:881728,-10,-6,-9,-3,0,-2,-9,0
14:19:16:897541,-10,-6,-9,-3,0,-2,-9,0
14:19:16:898218,2,11,0,-1,-3,-5,4,1
14:19:16:904213,-6,-24,3,0,0,-4,-17,-4
14:19:16:912338,-6,-24,3,0,0,-4,-17,-4
14:19:16:913279,5,-8,-1,0,-2,0,5,-1
14:19:16:926704,-12,-1,-5,-1,2,6,15,4
14:19:16:934968,-12,-1,-5,-1,2,6,15,4
14:19:16:935714,2,5,-2,-1,-2,-2,-3,1
14:19:16:941711,2,1,2,-2,-5,-5,10,0
14:19:16:957476,2,1,2,-2,-5,-5,10,0
14:19:16:958224,-2,2,-6,-1,2,4,2,1
14:19:16:964253,-1,-8,0,1,-2,2,23,-1
14:19:16:972475,-1,-8,0,1,-2,2,23,-1
14:19:16:973209,0,-3,-13,-2,-1,-1,6,-1
14:19:16:986715,0,2,2,2,2,4,-13,-3
14:19:16:994969,0,2,2,2,2,4,-13,-3
14:19:16:995726,-9,-3,2,1,2,-2,-5,-5
14:19:17:1725,5,4,-12,-3,-2,0,-4,5
14:19:17:17472,5,4,-12,-3,-2,0,-4,5
14:19:17:18214,-25,-7,-5,-2,-2,0,10,-2
14:19:17:24219,-4,-8,-6,-1,2,-4,-8,-4
14:19:17:32480,-4,-8,-6,-1,2,-4,-8,-4
14:19:17:33213,6,14,-1,0,-1,3,-1,-4
14:19:17:46770,1,4,0,-2,-2,1,5,-3
14:19:17:54983,1,4,0,-2,-2,1,5,-3
14:19:17:55709,1,-6,-3,-1,-2,-2,7,-2
14:19:17:61728,-9,11,15,-1,0,1,17,-1
14:19:17:77489,-9,11,15,-1,0,1,17,-1
14:19:17:78232,4,-5,3,-2,-2,-3,-11,-1
14:19:17:84213,15,0,-2,-1,-3,-5,-17,0
14:19:17:92481,15,0,-2,-1,-3,-5,-17,0
14:19:17:93199,1,-2,6,-4,-5,0,2,-2
14:19:17:115628,1,13,-1,0,3,0,9,3
14:19:17:116324,1,13,-1,0,3,0,9,3
14:19:17:117204,8,-10,-6,-3,1,-1,-16,-1
14:19:17:121743,-2,-1,5,-2,-6,-8,-13,-3
14:19:17:137354,-2,-1,5,-2,-6,-8,-13,-3
14:19:17:138218,-6,-2,-4,-1,4,-4,11,2
14:19:17:144220,-2,2,6,-1,-3,-6,-19,-4
14:19:17:159957,-2,2,6,-1,-3,-6,-19,-4
14:19:17:160710,2,2,2,0,-1,-1,1,8
14:19:17:166710,2,6,-1,-3,-6,-6,-12,-6
14:19:17:175356,2,6,-1,-3,-6,-6,-12,-6
14:19:17:182362,8,3,1,1,5,7,12,-2
14:19:17:183209,0,-10,7,1,1,3,7,1
14:19:17:197529,0,-10,7,1,1,3,7,1
14:19:17:198219,-8,-2,-7,-2,-4,-5,-10,-3
14:19:17:204201,-7,-7,-4,-1,-1,1,2,-4
14:19:17:212354,-7,-7,-4,-1,-1,1,2,-4
14:19:17:213194,-15,-4,-2,-3,-2,-1,8,-2
14:19:17:226719,-5,9,-3,-1,-2,-3,-1,3
14:19:17:234971,-5,9,-3,-1,-2,-3,-1,3
14:19:17:235720,-13,5,22,2,2,5,-9,-4
14:19:17:241755,3,1,1,-1,-3,0,11,0
14:19:17:257476,3,1,1,-1,-3,0,11,0
14:19:17:258236,-1,-1,2,1,0,2,9,-1
14:19:17:264248,4,-15,-9,1,6,2,-14,-5
14:19:17:272470,4,-15,-9,1,6,2,-14,-5
14:19:17:273223,2,6,4,1,-5,0,-7,1
14:19:17:286764,-5,-14,-30,-4,-1,-3,-6,-1
14:19:17:295030,-5,-14,-30,-4,-1,-3,-6,-1
14:19:17:295757,14,0,-4,0,-4,-5,-7,2
14:19:17:301729,-7,-4,-4,-3,2,3,6,10
14:19:17:317482,-7,-4,-4,-3,2,3,6,10
14:19:17:318220,-4,-9,-4,-2,-6,-5,6,-4
14:19:17:324203,-7,-10,7,0,-1,-1,-4,-5
14:19:17:332466,-7,-10,7,0,-1,-1,-4,-5
14:19:17:333217,-8,-1,-3,-2,-1,-2,-3,-4
14:19:17:347274,19,8,3,0,-4,-3,-11,-3
14:19:17:354974,19,8,3,0,-4,-3,-11,-3
14:19:17:355708,8,-7,-7,0,4,3,10,5
14:19:17:361753,4,8,-6,-1,-3,-2,16,2
14:19:17:377484,4,8,-6,-1,-3,-2,16,2
14:19:17:378238,-3,-7,-2,-6,-8,-5,20,0
14:19:17:384261,-15,3,4,-2,0,0,-4,-4
14:19:17:392470,-15,3,4,-2,0,0,-4,-4
14:19:17:393233,4,1,2,3,0,1,-16,-2
14:19:17:406774,-2,-8,-7,-5,-4,-4,-2,-4
14:19:17:414795,-2,-8,-7,-5,-4,-4,-2,-4
14:19:17:422347,15,4,1,2,1,4,3,5
14:19:17:423225,-27,0,0,1,-2,0,-10,-4
14:19:17:437477,-27,0,0,1,-2,0,-10,-4
14:19:17:438214,2,0,-4,-2,-1,-5,-22,-7
14:19:17:444231,-2,-10,4,2,-2,-2,7,2
14:19:17:452493,-2,-10,4,2,-2,-2,7,2
14:19:17:453205,0,1,-1,-2,0,6,11,0
14:19:17:466732,0,-2,-8,-3,-2,-2,-16,-4
14:19:17:474992,0,-2,-8,-3,-2,-2,-16,-4
14:19:17:475753,-5,-5,-8,-5,-5,-6,10,0
14:19:17:481758,8,-4,-4,0,1,2,9,3
14:19:17:497487,8,-4,-4,0,1,2,9,3
14:19:17:498248,-3,-4,-2,-1,4,4,1,-2
14:19:17:504212,12,-3,0,-1,-2,-7,-11,0
14:19:17:512247,12,-3,0,-1,-2,-7,-11,0
14:19:17:519282,-16,-10,-3,-3,-5,-5,-18,-15
14:19:17:526740,19,3,-18,-3,-1,1,0,1
14:19:17:534991,19,3,-18,-3,-1,1,0,1
14:19:17:535760,-4,4,-2,-1,-2,-7,-13,-2
14:19:17:541743,10,0,2,-3,-1,3,-1,-5
14:19:17:557479,10,0,2,-3,-1,3,-1,-5
14:19:17:558240,6,0,-2,-1,-1,-2,-3,4
14:19:17:564264,0,3,6,0,-1,-1,6,1
14:19:17:571703,0,3,6,0,-1,-1,6,1
14:19:17:579257,-2,4,5,1,3,3,-6,-1
14:19:17:586749,-3,0,3,-1,-1,-3,-10,-1
14:19:17:595023,-3,0,3,-1,-1,-3,-10,-1
14:19:17:595718,-6,-4,-1,0,-3,-3,9,3
14:19:17:609221,-6,6,12,-2,-2,1,7,-1
14:19:17:617505,-6,6,12,-2,-2,1,7,-1
14:19:17:618242,9,1,-3,1,-1,0,3,5
14:19:17:624216,-9,3,5,0,0,0,8,-1
14:19:17:631897,-9,3,5,0,0,0,8,-1
14:19:17:639218,2,3,-3,-3,-2,0,-4,-1
14:19:17:646768,-4,-3,-2,0,0,-1,-16,-6
14:19:17:654908,-4,-3,-2,0,0,-1,-16,-6
14:19:17:655741,-3,6,-9,-1,0,3,10,1
14:19:17:669306,-8,-7,-3,-1,0,1,2,1
14:19:17:677378,-8,-7,-3,-1,0,1,2,1
14:19:17:678285,0,2,6,1,2,-3,-20,-6
14:19:17:684229,-3,8,1,0,-3,-3,4,-2
14:19:17:691732,-3,8,1,0,-3,-3,4,-2
14:19:17:699229,0,-14,-20,-3,-2,-2,-3,-4
14:19:17:706736,-8,-4,-3,1,-2,-1,-6,-4
14:19:17:714995,-8,-4,-3,1,-2,-1,-6,-4
14:19:17:715745,-6,-2,4,1,-1,-1,-15,-6
14:19:17:729212,-1,2,-1,-1,1,3,2,1
14:19:17:737355,-1,2,-1,-1,1,3,2,1
14:19:17:738217,-1,0,1,-4,-8,-7,-15,-2
14:19:17:744226,5,-5,1,0,7,8,9,1
14:19:17:751725,5,-5,1,0,7,8,9,1
14:19:17:759245,2,-1,5,2,1,-1,-20,-4
14:19:17:766717,-1,-5,-3,-2,-4,-2,0,-2
14:19:17:774973,-1,-5,-3,-2,-4,-2,0,-2
14:19:17:775719,-1,13,0,-2,1,2,19,3
14:19:17:789221,0,5,-3,-3,-2,-1,-2,-1
14:19:17:797527,0,5,-3,-3,-2,-1,-2,-1
14:19:17:798233,-4,-3,-2,-2,-1,-2,-12,-5
14:19:17:804214,-7,-4,-9,-1,-2,1,7,1
14:19:17:811717,-7,-4,-9,-1,-2,1,7,1
14:19:17:819213,2,-1,2,-1,-2,-4,3,3
14:19:17:826734,0,-8,-5,-1,0,-4,-4,-3
14:19:17:834973,0,-8,-5,-1,0,-4,-4,-3
14:19:17:835707,2,-1,2,2,3,5,21,3
14:19:17:849226,-2,2,6,-1,-3,-5,-6,-3
14:19:17:857477,-2,2,6,-1,-3,-5,-6,-3
14:19:17:858221,1,-3,-3,-3,0,-5,-15,-1
14:19:17:864218,6,10,6,-1,-2,2,21,7
14:19:17:871704,6,10,6,-1,-2,2,21,7
14:19:17:879227,-8,-18,-1,-1,0,0,-2,-2
14:19:17:886712,3,-4,-2,-1,-2,-3,-8,1
14:19:17:894844,3,-4,-2,-1,-2,-3,-8,1
14:19:17:895721,-2,4,-2,-1,-3,-3,4,1
14:19:17:909222,-1,-7,-2,-2,-3,-2,-4,3
14:19:17:917479,-1,-7,-2,-2,-3,-2,-4,3
14:19:17:918219,1,5,5,-1,-3,-5,-6,-3
14:19:17:924217,4,6,7,0,0,-3,-5,0
14:19:17:931726,4,6,7,0,0,-3,-5,0
14:19:17:939260,-5,2,-1,-3,-3,0,6,0
14:19:17:946764,2,0,2,-1,0,3,7,2
14:19:17:954874,2,0,2,-1,0,3,7,2
14:19:17:955713,2,0,10,-1,-1,-3,1,5
14:19:17:969262,-6,-3,-5,-1,-2,-3,-9,-7
14:19:17:977365,-6,-3,-5,-1,-2,-3,-9,-7
14:19:17:978260,-3,-1,-9,-1,-2,-3,-6,-1
14:19:17:984213,-1,-6,-3,0,-1,0,-3,-3
14:19:18:6,-1,-6,-3,0,-1,0,-3,-3
14:19:18:716,-1,-7,-11,-4,-2,1,0,-3
14:19:18:6735,-6,2,-2,-1,0,-2,6,-2
14:19:18:22499,-6,2,-2,-1,0,-2,6,-2
14:19:18:23228,-4,1,1,2,2,3,-12,-6
14:19:18:29329,0,2,-14,-3,-4,-1,-4,-2
14:19:18:37481,0,2,-14,-3,-4,-1,-4,-2
14:19:18:38222,-4,5,1,-1,-4,-5,-11,-4
14:19:18:52488,1,6,5,-2,2,-2,5,-3
14:19:18:53225,1,6,5,-2,2,-2,5,-3
14:19:18:59282,3,0,-4,-1,-1,1,3,1
14:19:18:66735,1,-4,-2,-1,-1,-1,14,2
14:19:18:74882,1,-4,-2,-1,-1,-1,14,2
14:19:18:75737,-2,-3,2,0,1,-1,-9,-3
14:19:18:89222,4,-7,-7,-1,-2,-3,-11,2
14:19:18:97534,4,-7,-7,-1,-2,-3,-11,2
14:19:18:98241,-2,-3,5,-1,0,0,0,0
14:19:18:104248,-1,3,-2,0,-1,-1,-7,-1
14:19:18:111891,-1,3,-2,0,-1,-1,-7,-1
14:19:18:119229,3,4,0,-1,-5,-3,8,3
14:19:18:126761,-5,-3,3,1,1,1,1,-1
14:19:18:134870,-5,-3,3,1,1,1,1,-1
14:19:18:135729,3,-12,-2,-1,-1,-1,-7,-3
14:19:18:149226,-3,-7,1,-1,-4,-4,-9,-3
14:19:18:157353,-3,-7,1,-1,-4,-4,-9,-3
14:19:18:158275,1,-1,11,2,-3,-1,-2,-4
14:19:18:164321,-1,-5,-1,-3,-1,4,10,4
14:19:18:171733,-1,-5,-1,-3,-1,4,10,4
14:19:18:179298,-10,-2,-7,-2,-1,-5,4,0
14:19:18:186754,3,1,-3,-1,-1,0,-5,-3
14:19:18:195024,3,1,-3,-1,-1,0,-5,-3
14:19:18:195799,-1,0,3,-3,-6,-3,0,-2
14:19:18:209231,-5,-3,-5,-1,-2,-1,-2,-4
14:19:18:217338,-5,-3,-5,-1,-2,-1,-2,-4
14:19:18:218203,2,4,-3,2,3,1,3,0
14:19:18:224223,-4,0,3,-2,-2,-2,-9,-5
14:19:18:231716,-4,0,3,-2,-2,-2,-9,-5
14:19:18:239221,0,-10,-3,-2,0,5,13,4
14:19:18:246803,3,5,1,-1,-2,-5,-8,0
14:19:18:255052,3,5,1,-1,-2,-5,-8,0
14:19:18:255741,-4,-7,-8,-2,-3,-4,3,2
14:19:18:269269,2,-7,6,0,-1,2,1,1
14:19:18:277492,2,-7,6,0,-1,2,1,1
14:19:18:278223,2,3,5,-1,0,-1,-1,-1
14:19:18:284227,-4,-1,0,-1,0,-3,-2,-3
14:19:18:291735,-4,-1,0,-1,0,-3,-2,-3
14:19:18:299234,1,2,-1,0,0,1,0,-3
14:19:18:306743,-2,-2,0,1,2,1,-4,0
14:19:18:322467,-2,-2,0,1,2,1,-4,0
14:19:18:323229,1,4,1,-2,-4,-1,-4,-3
14:19:18:329229,0,-2,0,-1,-2,-1,-1,0
14:19:18:337474,0,-2,0,-1,-2,-1,-1,0
14:19:18:338217,-5,1,-1,1,1,-2,-6,-1
14:19:18:344233,2,6,-2,-2,-3,-1,-3,-3
14:19:18:359973,2,6,-2,-2,-3,-1,-3,-3
14:19:18:360750,4,2,-1,-1,-1,-2,-8,0
14:19:18:366737,1,-3,0,-1,-2,-3,-8,-6
14:19:18:390635,1,-3,0,-1,-2,-3,-8,-6
14:19:18:391483,2,2,4,1,-3,0,-8,0
14:19:18:392234,0,1,-5,-1,0,0,21,3
14:19:18:397381,0,1,-5,-1,0,0,21,3
14:19:18:398209,-3,0,1,-2,2,2,-4,0
14:19:18:404213,7,7,2,-1,-2,-3,7,4
14:19:18:411739,7,7,2,-1,-2,-3,7,4
14:19:18:419233,0,-10,-5,-2,0,-1,4,1
14:19:18:426740,-5,-6,-6,0,-1,-1,-12,-3
14:19:18:435001,-5,-6,-6,0,-1,-1,-12,-3
14:19:18:435769,-1,-2,-3,-2,-2,-2,4,-3
14:19:18:449307,1,3,-1,-2,-1,-1,-4,-2
14:19:18:457484,1,3,-1,-2,-1,-1,-4,-2
14:19:18:458236,0,-5,2,1,-2,-2,-5,-2
14:19:18:464304,-4,-8,-8,-2,-1,-1,4,1
14:19:18:471753,-4,-8,-8,-2,-1,-1,4,1
14:19:18:479248,2,4,-1,-4,-1,5,14,-2
14:19:18:486740,-2,-1,2,-1,-1,-4,-3,-3
14:19:18:495028,-2,-1,2,-1,-1,-4,-3,-3
14:19:18:495745,-2,1,-3,-1,1,-2,-2,-2
14:19:18:509236,-3,-3,-1,-3,-1,2,4,-1
14:19:18:517516,-3,-3,-1,-3,-1,2,4,-1
14:19:18:518221,-6,-2,0,0,-1,-3,-6,-4
14:19:18:532416,-3,-3,6,0,-5,-5,4,2
14:19:18:533224,-3,-3,6,0,-5,-5,4,2
14:19:18:539210,-2,-6,-6,0,-2,0,11,2
14:19:18:546759,-1,-3,-3,-1,-3,0,-13,-2
14:19:18:554251,-1,-3,-3,-1,-3,0,-13,-2
14:19:18:561735,1,1,-2,-1,-2,-3,-8,-1
14:19:18:569255,-6,-1,-1,0,-1,1,-3,-5
14:19:18:577525,-6,-1,-1,0,-1,1,-3,-5
14:19:18:578233,3,2,-2,-1,-1,-2,3,-1
14:19:18:592367,3,3,-2,-1,-1,-3,-8,-1
14:19:18:593222,3,3,-2,-1,-1,-3,-8,-1
14:19:18:607346,-5,-3,-3,-1,-2,1,7,2
14:19:18:608094,-2,1,0,-1,-1,-1,5,-1
14:19:18:614290,-2,1,0,-1,-1,-1,5,-1
14:19:18:621760,1,-2,-2,-1,-3,-5,-22,-4
14:19:18:629308,-3,-1,-4,-1,0,-3,2,-1
14:19:18:637475,-3,-1,-4,-1,0,-3,2,-1
14:19:18:638214,0,5,2,0,0,-1,0,-2
14:19:18:652376,0,2,2,0,-2,-2,4,-1
14:19:18:653223,0,2,2,0,-2,-2,4,-1
14:19:18:659248,0,-10,-6,-4,-1,-5,-17,-2
14:19:18:666754,1,-5,0,1,1,1,8,2
14:19:18:674248,1,-5,0,1,1,1,8,2
14:19:18:681752,4,-3,-3,0,0,5,20,7
14:19:18:689231,-2,-1,-1,-2,-2,-1,-5,-1
14:19:18:697523,-2,-1,-1,-2,-2,-1,-5,-1
14:19:18:698237,1,-1,-11,-2,-2,-2,4,0
14:19:18:712511,-4,-9,-1,-1,1,1,-1,-4
14:19:18:713286,-4,-9,-1,-1,1,1,-1,-4
14:19:18:719243,-2,2,0,0,0,3,11,-1
14:19:18:726740,-1,6,-1,-1,-3,-1,5,1
14:19:18:734247,-1,6,-1,-1,-3,-1,5,1
14:19:18:741758,-1,-3,3,-2,-2,-2,-8,-4
14:19:18:749221,-1,12,5,-3,-2,-2,-10,-2
14:19:18:757379,-1,12,5,-3,-2,-2,-10,-2
14:19:18:758248,2,4,5,0,1,0,3,0
14:19:18:772348,2,1,-7,-1,-1,-2,-11,-1
14:19:18:773215,2,1,-7,-1,-1,-2,-11,-1
14:19:18:779295,7,4,0,-2,-6,3,28,5
14:19:18:786753,0,-3,1,0,-1,-1,-8,-1
14:19:18:794241,0,-3,1,0,-1,-1,-8,-1
14:19:18:801739,-3,-2,6,1,3,-2,8,0
14:19:18:809281,-3,-13,1,-2,-1,2,3,0
14:19:18:817356,-3,-13,1,-2,-1,2,3,0
14:19:18:818214,-1,4,4,-1,-1,-5,-17,-2
14:19:18:832360,-3,6,-2,-2,-3,-5,-5,-3
14:19:18:833232,-3,6,-2,-2,-3,-5,-5,-3
14:19:18:839260,-3,-4,-1,3,2,-1,-6,-1
14:19:18:846789,2,-4,-3,2,-2,4,13,2
14:19:18:854267,2,-4,-3,2,-2,4,13,2
14:19:18:861797,-4,1,0,0,-2,-1,-4,-2
14:19:18:869236,-3,1,-3,-3,-1,-1,0,-1
14:19:18:877499,-3,1,-3,-3,-1,-1,0,-1
14:19:18:878274,-3,-2,1,2,3,1,-1,-5
14:19:18:892377,1,-1,-1,-4,-2,-2,-2,0
14:19:18:893290,1,-1,-1,-4,-2,-2,-2,0
14:19:18:899235,6,-3,-2,-4,-2,-2,-7,3
14:19:18:906724,-2,-7,-1,0,3,1,8,0
14:19:18:914290,-2,-7,-1,0,3,1,8,0
14:19:18:921781,-1,-6,-3,-2,-1,-2,-19,-4
14:19:18:929294,-2,-5,2,2,-2,-3,-8,0
14:19:18:937473,-2,-5,2,2,-2,-3,-8,0
14:19:18:938218,-3,-1,0,-2,-4,-1,-9,-5
14:19:18:952366,-1,1,-4,-1,1,1,-5,-3
14:19:18:953226,-1,1,-4,-1,1,1,-5,-3
14:19:18:959237,-4,0,-6,-1,-1,-2,-4,-2
14:19:18:966756,2,7,-2,3,-1,-3,5,0
14:19:18:974260,2,7,-2,3,-1,-3,5,0
14:19:18:981773,-3,-1,-2,1,-1,0,-3,-4
14:19:18:989221,1,1,5,-1,2,-4,-17,-2
14:19:18:997549,1,1,5,-1,2,-4,-17,-2
14:19:18:998238,-9,1,-3,-3,-2,-2,0,-3
14:19:19:12495,-4,-2,-2,-1,-5,-4,5,-3
14:19:19:13297,-4,-2,-2,-1,-5,-4,5,-3
14:19:19:19226,-2,-1,-3,0,3,3,8,3
14:19:19:26770,-2,-7,-6,-4,-3,-4,-10,-3
14:19:19:34241,-2,-7,-6,-4,-3,-4,-10,-3
14:19:19:41765,-3,3,-1,-4,-3,-4,7,5
14:19:19:49234,-6,0,-3,-2,0,2,7,-2
14:19:19:57382,-6,0,-3,-2,0,2,7,-2
14:19:19:58255,1,1,4,1,0,-2,-7,-2
14:19:19:72351,2,-1,0,0,-5,-3,-11,-1
14:19:19:73212,2,-1,0,0,-5,-3,-11,-1
14:19:19:79233,-2,-8,-6,-3,-3,-3,0,-1
14:19:19:86763,2,4,1,1,3,1,-7,-2
14:19:19:94230,2,4,1,1,3,1,-7,-2
14:19:19:101742,2,-4,-1,-1,-1,2,3,-1
14:19:19:109235,-1,-3,2,-1,-1,-1,0,-1
14:19:19:117362,-1,-3,2,-1,-1,-1,0,-1
14:19:19:118243,0,-2,0,1,-1,-3,-9,-4
14:19:19:132438,4,-2,-6,1,2,-1,-7,1
14:19:19:133234,4,-2,-6,1,2,-1,-7,1
14:19:19:139236,1,1,-5,-25,-6,-2,12,-2
14:19:19:146804,-3,-3,0,-1,1,3,12,-2
14:19:19:154269,-3,-3,0,-1,1,3,12,-2
14:19:19:161759,7,0,2,9,3,0,-4,-1
14:19:19:169227,-3,-10,4,-4,-2,-3,-3,-2
14:19:19:177487,-3,-10,4,-4,-2,-3,-3,-2
14:19:19:178235,0,3,3,4,1,1,0,0
14:19:19:192373,-1,-3,-1,-2,-4,-5,-7,-4
14:19:19:193235,-1,-3,-1,-2,-4,-5,-7,-4
14:19:19:199239,-1,3,1,3,4,1,-8,0
14:19:19:206741,1,2,0,-3,-1,4,19,4
14:19:19:214269,1,2,0,-3,-1,4,19,4
14:19:19:221743,-4,1,-1,0,-3,-4,-6,-4
14:19:19:229257,-3,-1,0,0,0,2,3,-2
14:19:19:237491,-3,-1,0,0,0,2,3,-2
14:19:19:238233,-5,-2,-11,4,1,-1,5,0
14:19:19:252374,0,0,-4,-1,-4,-4,-5,0
14:19:19:253225,0,0,-4,-1,-4,-4,-5,0
14:19:19:259258,0,4,2,-2,1,-1,-3,-1
14:19:19:266743,-3,-3,-2,-2,0,2,8,1
14:19:19:274238,-3,-3,-2,-2,0,2,8,1
14:19:19:281794,-2,-7,-1,-3,-7,-3,-9,0
14:19:19:289225,1,0,2,0,4,7,18,1
14:19:19:304973,1,0,2,0,4,7,18,1
14:19:19:305718,0,-3,-7,-1,-3,-2,0,-1
14:19:19:312518,-2,0,-1,-1,-1,-3,-7,0
14:19:19:313285,-2,0,-1,-1,-1,-3,-7,0
14:19:19:319226,-1,2,4,-1,-3,1,0,-1
14:19:19:326725,0,-2,-2,-1,0,-3,-4,0
14:19:19:334226,0,-2,-2,-1,0,-3,-4,0
14:19:19:341787,-3,-7,1,1,1,-2,-5,-4
14:19:19:349272,-1,2,6,0,-6,-6,-11,-4
14:19:19:357369,-1,2,6,0,-6,-6,-11,-4
14:19:19:358250,2,1,4,3,5,4,5,1
14:19:19:372370,3,1,-1,0,-4,-4,-10,-1
14:19:19:373271,3,1,-1,0,-4,-4,-10,-1
14:19:19:379277,-5,-3,-2,-2,-2,-5,-2,-2
14:19:19:386747,-1,0,1,1,5,3,-14,-4
14:19:19:394242,-1,0,1,1,5,3,-14,-4
14:19:19:401732,6,10,1,1,-1,1,8,2
14:19:19:409270,4,12,-3,-4,-4,-5,-1,0
14:19:19:417496,4,12,-3,-4,-4,-5,-1,0
14:19:19:418239,3,11,4,-3,1,0,-7,-1
14:19:19:432390,-17,-52,-9,-3,-5,-5,-6,-1
14:19:19:433236,-17,-52,-9,-3,-5,-5,-6,-1
14:19:19:447364,0,5,-1,-1,0,-1,-7,0
14:19:19:448248,7,18,-1,0,-5,-1,5,-1
14:19:19:454237,7,18,-1,0,-5,-1,5,-1
14:19:19:461797,-8,-15,-5,-3,-1,3,-2,-3
14:19:19:469300,-1,3,0,6,1,6,26,2
14:19:19:476739,-1,3,0,6,1,6,26,2
14:19:19:484250,2,6,-5,-1,-3,-4,-6,-4
14:19:19:492410,-2,-13,1,0,0,-1,-4,-2
14:19:19:493299,-2,-13,1,0,0,-1,-4,-2
14:19:19:499256,-8,-10,-3,-3,-3,0,20,1
14:19:19:514909,-7,-2,-3,0,4,-2,-9,-4
14:19:19:515768,-7,-2,-3,0,4,-2,-9,-4
14:19:19:529877,1,-7,-2,-2,6,3,-12,0
14:19:19:530733,2,-5,-1,-3,-5,-2,-24,-7
14:19:19:536757,2,-5,-1,-3,-5,-2,-24,-7
14:19:19:544256,-7,-22,-1,1,-6,-2,11,-1
14:19:19:552361,5,5,-7,-3,2,1,-2,1
14:19:19:553223,5,5,-7,-3,2,1,-2,1
14:19:19:559265,1,-1,3,-2,-6,-7,0,1
14:19:19:574889,-4,2,-1,-2,3,4,3,-2
14:19:19:575757,-4,2,-1,-2,3,4,3,-2
14:19:19:581752,0,9,3,-3,-6,-7,-7,-3
14:19:19:589231,-4,1,1,1,6,4,10,5
14:19:19:596785,-4,1,1,1,6,4,10,5
14:19:19:604226,1,0,-4,0,-5,-11,3,-4
14:19:19:612379,2,13,0,-1,-3,-4,-3,-1
14:19:19:613236,2,13,0,-1,-3,-4,-3,-1
14:19:19:619235,5,2,3,1,1,9,16,4
14:19:19:634862,3,7,-1,-3,-6,-4,14,1
14:19:19:635734,3,7,-1,-3,-6,-4,14,1
14:19:19:641758,4,5,-1,-1,2,-6,-30,-1
14:19:19:649251,3,10,4,1,2,6,-5,2
14:19:19:656746,3,10,4,1,2,6,-5,2
14:19:19:664282,-8,4,-1,0,-4,-3,-14,-2
14:19:19:680678,-1,-2,-1,0,-2,-4,-6,-2
14:19:19:681376,-1,-2,-1,0,-2,-4,-6,-2
14:19:19:682269,-2,-4,0,0,-1,0,-15,-5
14:19:19:694920,-7,-10,1,-2,-3,-5,-9,-7
14:19:19:695805,-7,-10,1,-2,-3,-5,-9,-7
14:19:19:701754,4,5,2,0,0,3,18,2
14:19:19:709270,0,-1,-5,-1,-4,2,11,0
14:19:19:716767,0,-1,-5,-1,-4,2,11,0
14:19:19:724235,-3,5,-4,-2,3,4,-2,1
14:19:19:732440,0,2,2,-5,-3,-6,-16,-2
14:19:19:733280,0,2,2,-5,-3,-6,-16,-2
14:19:19:739260,-2,-6,-4,2,-4,1,-2,-3
14:19:19:754862,-12,-11,-13,-3,4,0,2,0
14:19:19:755738,-12,-11,-13,-3,4,0,2,0
14:19:19:761782,1,-12,3,-2,1,-2,2,-1
14:19:19:769234,0,-6,-1,-1,0,1,10,-1
14:19:19:776783,0,-6,-1,-1,0,1,10,-1
14:19:19:784241,-5,-16,-6,-3,-3,2,3,-1
14:19:19:792503,0,10,8,-2,-10,-6,-2,-4
14:19:19:793267,0,10,8,-2,-10,-6,-2,-4
14:19:19:799261,0,6,2,1,-7,-3,7,2
14:19:19:814898,-19,-2,5,0,-3,0,-3,-5
14:19:19:815759,-19,-2,5,0,-3,0,-3,-5
14:19:19:821740,0,5,-1,-7,-3,5,2,-3
14:19:19:829306,7,17,4,0,-2,1,1,2
14:19:19:836766,7,17,4,0,-2,1,1,2
14:19:19:844253,-2,12,-7,-17,6,-4,-3,-5
14:19:19:852381,7,-21,-12,1,1,-2,-5,-4
14:19:19:853230,7,-21,-12,1,1,-2,-5,-4
14:19:19:859253,2,-2,7,7,-16,-4,6,3
14:19:19:875069,-2,-8,-4,0,2,1,4,-1
14:19:19:875773,-2,-8,-4,0,2,1,4,-1
14:19:19:881768,5,-1,-3,6,-2,0,2,1
14:19:19:889226,4,-1,1,0,2,-1,4,5
14:19:19:896794,4,-1,1,0,2,-1,4,5
14:19:19:904229,-6,-10,1,9,5,0,-5,-3
14:19:19:912418,7,8,1,-1,-1,-4,12,6
14:19:19:913298,7,8,1,-1,-1,-4,12,6
14:19:19:919253,0,20,-4,-13,-3,2,-5,0
14:19:19:935393,2,1,0,-4,0,-1,-14,-4
14:19:19:936248,2,1,0,-4,0,-1,-14,-4
14:19:19:941763,0,-12,-13,0,-5,-2,10,-3
14:19:19:957389,-2,6,10,15,-3,-6,-12,-5
14:19:19:958246,-2,6,10,15,-3,-6,-12,-5
14:19:19:964299,-2,-3,5,5,3,-7,-16,-3
14:19:19:972357,-5,-3,-4,4,11,6,9,-2
14:19:19:973286,-5,-3,-4,4,11,6,9,-2
14:19:19:979255,-3,-8,-3,1,5,5,6,0
14:19:19:994921,-4,-13,-10,-5,-5,0,-2,-4
14:19:19:995793,-4,-13,-10,-5,-5,0,-2,-4
14:19:20:1768,1,2,6,-7,3,-2,0,0
14:19:20:9277,3,23,16,-2,2,2,11,2
14:19:20:16760,3,23,16,-2,2,2,11,2
14:19:20:24278,-12,-2,7,0,3,-3,-2,-1
14:19:20:32430,-4,-6,-9,-15,-8,1,-1,-1
14:19:20:33258,-4,-6,-9,-15,-8,1,-1,-1
14:19:20:39255,5,-6,0,0,-13,-3,-4,-1
14:19:20:54894,2,-14,2,6,-3,0,-5,-2
14:19:20:55729,2,-14,2,6,-3,0,-5,-2
14:19:20:61760,7,-22,-15,-1,2,0,-3,-2
14:19:20:69278,-4,-5,2,4,-4,-10,-8,-2
14:19:20:76779,-4,-5,2,4,-4,-10,-8,-2
14:19:20:84229,-3,-14,5,16,31,7,3,-2
14:19:20:92377,-3,7,1,-25,-5,-5,2,1
14:19:20:93256,-3,7,1,-25,-5,-5,2,1
14:19:20:99255,-5,17,3,-3,-17,-7,-2,-2
14:19:20:114881,1,5,-8,-6,-4,-3,-3,-1
14:19:20:115765,1,5,-8,-6,-4,-3,-3,-1
14:19:20:121731,-2,2,8,-12,-6,-2,-7,-2
14:19:20:129316,1,4,7,13,-1,-2,-11,-2
14:19:20:136756,1,4,7,13,-1,-2,-11,-2
14:19:20:144290,-3,1,0,-4,-3,4,10,-4
14:19:20:152516,-3,1,0,-4,-3,4,10,-4
14:19:20:153264,-5,-4,-6,-6,-4,-3,1,-4
14:19:20:159282,8,0,-8,-2,-3,-4,-5,3
14:19:20:175016,8,0,-8,-2,-3,-4,-5,3
14:19:20:175754,3,-12,-9,18,14,3,0,0
14:19:20:181748,0,3,2,-6,-3,-2,-5,3
14:19:20:197529,0,3,2,-6,-3,-2,-5,3
14:19:20:198255,-3,-8,-2,4,-7,-8,-5,0
14:19:20:204231,-1,-1,9,14,2,1,3,-1
14:19:20:212493,-1,-1,9,14,2,1,3,-1
14:19:20:213263,-11,-5,-5,2,6,-1,-2,-3
14:19:20:219264,-13,-11,-7,4,7,5,1,1
14:19:20:235019,-13,-11,-7,4,7,5,1,1
14:19:20:235751,-3,3,-8,-5,-11,-3,-6,-1
14:19:20:241775,-3,3,-5,-25,-7,-1,-3,-2
14:19:20:257902,-3,3,-5,-25,-7,-1,-3,-2
14:19:20:258784,-3,-7,8,-8,-15,-2,-2,-1
14:19:20:264263,5,0,2,6,5,-4,-3,-3
14:19:20:272501,5,0,2,6,5,-4,-3,-3
14:19:20:273272,5,-5,-8,5,3,-1,5,2
14:19:20:279309,-5,-1,-15,-36,-20,-5,1,-2
14:19:20:294890,-5,-1,-15,-36,-20,-5,1,-2
14:19:20:295790,4,9,13,0,8,3,-1,2
14:19:20:301747,-8,-19,-17,-8,-8,-1,-1,-1
14:19:20:317387,-8,-19,-17,-8,-8,-1,-1,-1
14:19:20:318241,0,8,3,8,1,3,-2,-1
14:19:20:324260,2,-7,-25,-26,0,-3,0,-1
14:19:20:332396,2,-7,-25,-26,0,-3,0,-1
14:19:20:333232,0,-1,11,1,0,7,6,-1
14:19:20:339250,0,-1,10,23,4,0,-4,1
14:19:20:354905,0,-1,10,23,4,0,-4,1
14:19:20:355750,-2,-11,-8,-7,-3,-2,-1,0
14:19:20:361782,5,20,17,11,2,-1,2,4
14:19:20:377393,5,20,17,11,2,-1,2,4
14:19:20:378302,-4,4,-4,-23,0,5,-1,2
14:19:20:384254,-6,8,-8,-4,-7,-1,1,3
14:19:20:392370,-6,8,-8,-4,-7,-1,1,3
14:19:20:393258,7,-7,-11,-6,-8,-2,-1,-2
14:19:20:399263,3,19,0,6,-4,-3,-4,-5
14:19:20:414881,3,19,0,6,-4,-3,-4,-5
14:19:20:415767,11,22,12,10,20,3,2,2
14:19:20:421752,-3,0,-1,10,7,0,-2,-3
14:19:20:437373,-3,0,-1,10,7,0,-2,-3
14:19:20:438231,1,7,0,4,2,-2,0,-3
14:19:20:444267,9,16,22,9,-2,-3,3,3
14:19:20:452398,9,16,22,9,-2,-3,3,3
14:19:20:453236,-4,-5,-2,-4,-12,-2,-7,-4
14:19:20:466750,0,-2,6,-4,1,0,1,13
14:19:20:474892,0,-2,6,-4,1,0,1,13
14:19:20:475765,-9,-10,-4,-10,-11,-2,-3,12
14:19:20:481739,-12,-3,-1,3,3,-1,-7,-25
14:19:20:497375,-12,-3,-1,3,3,-1,-7,-25
14:19:20:498241,-7,-16,-5,-5,-7,1,5,0
14:19:20:504233,3,-17,-27,-34,-17,-5,-2,-5
14:19:20:512366,3,-17,-27,-34,-17,-5,-2,-5
14:19:20:513235,-1,4,5,4,-6,-3,-2,-6
14:19:20:526751,1,-12,-1,23,35,6,1,-6
14:19:20:534862,1,-12,-1,23,35,6,1,-6
14:19:20:535733,-15,-14,-14,-12,-6,-1,2,2
14:19:20:541748,-1,1,-5,-7,-7,-1,-4,-3
14:19:20:557497,-1,1,-5,-7,-7,-1,-4,-3
14:19:20:558246,10,8,-9,14,7,-1,2,0
14:19:20:564241,3,-5,1,-1,-6,-3,-1,10
14:19:20:572371,3,-5,1,-1,-6,-3,-1,10
14:19:20:573236,1,42,35,8,-5,0,-2,-8
14:19:20:586745,0,-18,-22,-20,-6,-3,-1,2
14:19:20:595032,0,-18,-22,-20,-6,-3,-1,2
14:19:20:595828,10,-11,-4,-18,18,4,-3,-12
14:19:20:601767,7,10,-5,-8,-7,2,3,5
14:19:20:617901,7,10,-5,-8,-7,2,3,5
14:19:20:624879,5,-5,-16,-4,-6,-5,-2,-11
14:19:20:625771,9,10,7,9,5,1,-3,-7
14:19:20:632435,9,10,7,9,5,1,-3,-7
14:19:20:633278,-7,-14,3,14,9,1,0,4
14:19:20:646850,-4,14,20,9,-3,0,-1,-3
14:19:20:655029,-4,14,20,9,-3,0,-1,-3
14:19:20:655751,-7,-2,15,-29,-14,-1,0,3
14:19:20:661823,0,4,11,21,-1,-3,0,4
14:19:20:677544,0,4,11,21,-1,-3,0,4
14:19:20:678258,4,7,-2,15,-4,-6,-3,-13
14:19:20:684307,-1,-17,-4,1,-13,-2,0,4
14:19:20:692511,-1,-17,-4,1,-13,-2,0,4
14:19:20:693293,-3,-9,6,7,2,-2,-3,-5
14:19:20:706758,0,4,-5,10,-5,-1,-1,-7
14:19:20:715039,0,4,-5,10,-5,-1,-1,-7
14:19:20:715787,-2,-12,0,14,-7,-3,-2,7
14:19:20:721778,-14,-25,-8,-2,-6,0,1,2
14:19:20:737381,-14,-25,-8,-2,-6,0,1,2
14:19:20:738239,4,-7,-3,20,-6,-3,0,10
14:19:20:744259,-5,26,0,-22,2,-4,-3,2
14:19:20:752498,-5,26,0,-22,2,-4,-3,2
14:19:20:753283,-5,17,-23,-6,2,-2,-4,-4
14:19:20:766759,8,8,-20,17,7,1,-2,-3
14:19:20:774882,8,8,-20,17,7,1,-2,-3
14:19:20:775773,4,-9,-35,1,0,2,-1,6
14:19:20:781788,-3,-1,-21,-10,-2,2,-1,-3
14:19:20:797398,-3,-1,-21,-10,-2,2,-1,-3
14:19:20:798284,1,0,14,36,6,0,-2,-3
14:19:20:804259,0,-26,-3,7,-3,2,-1,0
14:19:20:812400,0,-26,-3,7,-3,2,-1,0
14:19:20:813285,4,-3,13,5,5,2,1,3
14:19:20:826771,-14,13,39,10,0,-1,-2,-2
14:19:20:834890,-14,13,39,10,0,-1,-2,-2
14:19:20:835760,6,9,-3,-9,2,2,0,-1
14:19:20:849296,8,1,22,-11,-5,-1,1,3
14:19:20:857387,8,1,22,-11,-5,-1,1,3
14:19:20:858248,-12,-11,6,-31,-13,-6,-3,-5
14:19:20:864274,-3,-14,6,9,7,2,1,0
14:19:20:872369,-3,-14,6,9,7,2,1,0
14:19:20:873238,5,-13,6,-12,-4,-1,0,2
14:19:20:886806,-5,-4,-4,5,9,2,-2,-3
14:19:20:894947,-5,-4,-4,5,9,2,-2,-3
14:19:20:895763,-1,8,-11,-3,3,-5,1,2
14:19:20:901798,-15,-11,5,-16,16,1,1,0
14:19:20:917417,-15,-11,5,-16,16,1,1,0
14:19:20:918261,-7,11,1,-17,-14,0,-1,-3
14:19:20:924249,20,24,10,6,-18,-3,-1,-3
14:19:20:932419,20,24,10,6,-18,-3,-1,-3
14:19:20:933278,11,3,26,19,18,4,1,3
14:19:20:946766,-4,-6,-24,-32,-11,-5,-3,-1
14:19:20:954892,-4,-6,-24,-32,-11,-5,-3,-1
14:19:20:955751,6,5,-14,-11,-10,-4,0,-2
14:19:20:961811,-17,-7,-6,19,28,5,3,2
14:19:20:977398,-17,-7,-6,19,28,5,3,2
14:19:20:978248,-2,6,11,2,4,2,2,0
14:19:20:984266,-7,-1,-4,-15,-3,-5,-1,-5
14:19:20:992382,-7,-1,-4,-15,-3,-5,-1,-5
14:19:20:993280,-4,-3,-15,-1,-1,1,-2,-1
14:19:21:6757,-7,-1,-3,-12,-12,-4,-4,-5
14:19:21:14893,-7,-1,-3,-12,-12,-4,-4,-5
14:19:21:15772,-4,0,2,-1,-9,-5,-2,3
14:19:21:21786,0,-13,-7,-11,-12,-7,-1,0
14:19:21:37516,0,-13,-7,-11,-12,-7,-1,0
14:19:21:38252,-1,3,5,22,-1,-2,-1,-2
14:19:21:44269,4,9,-8,-12,-17,-5,-2,0
14:19:21:52398,4,9,-8,-12,-17,-5,-2,0
14:19:21:53270,-8,-20,0,-34,-12,-5,-2,-4
14:19:21:66769,19,42,20,11,-2,4,1,2
14:19:21:74888,19,42,20,11,-2,4,1,2
14:19:21:75793,-5,3,-1,5,1,-5,-6,-3
14:19:21:81790,-7,-7,0,14,6,1,1,-1
14:19:21:97543,-7,-7,0,14,6,1,1,-1
14:19:21:98253,0,-14,-17,-20,-10,-4,-3,-6
14:19:21:104251,2,-5,-8,-9,-1,-1,0,0
14:19:21:112393,2,-5,-8,-9,-1,-1,0,0
14:19:21:113301,-1,19,-11,-19,-4,-3,-2,0
14:19:21:126792,-5,-4,6,-46,-17,-2,-1,-3
14:19:21:135003,-5,-4,6,-46,-17,-2,-1,-3
14:19:21:135741,-3,-2,2,-30,-10,-3,-2,0
14:19:21:141812,2,12,21,22,0,-2,-4,-4
14:19:21:157379,2,12,21,22,0,-2,-4,-4
14:19:21:158243,-2,-1,-23,-16,14,3,-1,-1
14:19:21:164340,5,-16,-15,20,3,-3,-4,0
14:19:21:172498,5,-16,-15,20,3,-3,-4,0
14:19:21:173238,4,-22,4,26,3,2,-1,-2
14:19:21:186760,4,8,2,16,13,0,0,2
14:19:21:194940,4,8,2,16,13,0,0,2
14:19:21:195788,-8,3,6,-2,0,2,2,-1
14:19:21:201766,-2,-19,-16,7,2,3,1,-1
14:19:21:217395,-2,-19,-16,7,2,3,1,-1
14:19:21:218248,5,17,-1,15,20,3,1,0
14:19:21:224280,8,4,18,26,2,-2,0,0
14:19:21:232514,8,4,18,26,2,-2,0,0
14:19:21:233271,-6,-4,-22,-10,-5,1,-3,-6
14:19:21:246843,-1,-8,-4,-12,-1,-1,0,3
14:19:21:254881,-1,-8,-4,-12,-1,-1,0,3
14:19:21:255755,17,19,28,13,-3,-1,3,2
14:19:21:261825,-3,-13,-6,-21,-3,-1,2,0
14:19:21:277377,-3,-13,-6,-21,-3,-1,2,0
14:19:21:278276,-11,-11,6,13,0,-2,-1,0
14:19:21:284264,2,-6,5,2,-6,0,-2,-1
14:19:21:292396,2,-6,5,2,-6,0,-2,-1
14:19:21:293280,-1,-6,15,20,5,0,0,1
14:19:21:306761,3,3,-11,5,8,-1,0,-1
14:19:21:314915,3,3,-11,5,8,-1,0,-1
14:19:21:315774,1,-9,-20,-20,-8,-1,-3,-3
14:19:21:321755,-13,-23,-25,-33,-9,-6,-4,-5
14:19:21:337374,-13,-23,-25,-33,-9,-6,-4,-5
14:19:21:338286,-2,-6,-5,-5,6,3,1,5
14:19:21:344271,2,-5,-4,-2,3,2,0,-1
14:19:21:352383,2,-5,-4,-2,3,2,0,-1
14:19:21:353277,-4,-4,-1,-15,4,0,-1,-3
14:19:21:366784,-2,10,-8,-1,-6,-3,-3,0
14:19:21:374929,-2,10,-8,-1,-6,-3,-3,0
14:19:21:375763,3,-7,-3,5,-12,0,0,3
14:19:21:389292,-3,4,16,9,2,1,0,-3
14:19:21:406060,-3,4,16,9,2,1,0,-3
14:19:21:406910,7,19,10,46,6,-3,-1,-1
14:19:21:412432,-1,3,16,13,-13,-3,-3,0
14:19:21:413319,-1,3,16,13,-13,-3,-3,0
14:19:21:419268,-4,-6,-8,-10,14,4,1,-1
14:19:21:426779,-6,-1,23,16,4,1,-1,0
14:19:21:434895,-6,-1,23,16,4,1,-1,0
14:19:21:435753,-10,-7,-2,-32,-19,-3,-4,-1
14:19:21:449276,4,-7,-5,10,7,-1,3,-1
14:19:21:457395,4,-7,-5,10,7,-1,3,-1
14:19:21:458263,2,-3,-2,-9,1,0,0,1
14:19:21:464300,-21,-21,0,1,0,-1,-7,-5
14:19:21:471820,-21,-21,0,1,0,-1,-7,-5
14:19:21:479189,3,-1,-17,4,-12,-5,-2,-1
14:19:21:486757,3,4,-10,-7,-7,2,0,0
14:19:21:494922,3,4,-10,-7,-7,2,0,0
14:19:21:495797,-4,-1,-2,-4,-8,-1,0,-1
14:19:21:509306,3,18,-10,0,-1,-3,-3,-2
14:19:21:517417,3,18,-10,0,-1,-3,-3,-2
14:19:21:518286,0,3,-16,-29,5,-7,-5,-2
14:19:21:524163,0,-6,-2,-9,6,1,0,-4
14:19:21:531757,0,-6,-2,-9,6,1,0,-4
14:19:21:539254,-1,1,0,-5,-2,-2,0,-4
14:19:21:546832,16,-16,-11,-11,-6,-3,2,7
14:19:21:554880,16,-16,-11,-11,-6,-3,2,7
14:19:21:555750,-1,-12,3,17,3,0,-2,0
14:19:21:569145,4,9,24,-2,-8,0,0,0
14:19:21:577418,4,9,24,-2,-8,0,0,0
14:19:21:578283,-11,-9,0,15,7,-1,-2,-6
14:19:21:584270,-7,9,-6,-24,7,-1,-3,-2
14:19:21:591772,-7,9,-6,-24,7,-1,-3,-2
14:19:21:599271,-7,23,0,7,-6,2,2,2
14:19:21:606767,-2,-22,-6,3,12,2,0,2
14:19:21:615040,-2,-22,-6,3,12,2,0,2
14:19:21:615770,4,-24,-6,2,-5,-5,-1,0
14:19:21:629274,-12,11,-12,-21,3,0,-3,-2
14:19:21:637373,-12,11,-12,-21,3,0,-3,-2
14:19:21:638260,2,-2,15,5,-5,0,-1,-4
14:19:21:644328,-8,-30,-14,-6,-8,-5,-3,-3
14:19:21:651765,-8,-30,-14,-6,-8,-5,-3,-3
14:19:21:659284,7,9,15,0,9,2,-1,0
14:19:21:666761,-7,6,-6,18,3,-3,1,-3
14:19:21:674960,-7,6,-6,18,3,-3,1,-3
14:19:21:675809,-2,-3,2,-10,-4,-5,-3,5
14:19:21:689285,-1,-6,11,6,0,4,0,-1
14:19:21:697538,-1,-6,11,6,0,4,0,-1
14:19:21:698267,-3,7,-5,12,-4,0,-1,-3
14:19:21:704264,1,1,-2,5,-3,-5,-4,-1
14:19:21:711761,1,1,-2,5,-3,-5,-4,-1
14:19:21:719275,-4,-16,7,5,4,1,0,0
14:19:21:726756,0,11,0,0,-10,-3,-1,-1
14:19:21:734884,0,11,0,0,-10,-3,-1,-1
14:19:21:735752,1,-9,-15,-4,-9,0,0,-2
14:19:21:749304,8,19,-13,-3,-5,-2,2,4
14:19:21:757370,8,19,-13,-3,-5,-2,2,4
14:19:21:758256,3,38,37,5,3,-4,-1,-2
14:19:21:764265,-5,14,7,-6,-11,-4,-3,-4
14:19:21:771766,-5,14,7,-6,-11,-4,-3,-4
14:19:21:779188,5,23,-12,-17,-8,2,0,1
14:19:21:786790,3,5,16,19,1,-3,-2,-1
14:19:21:794910,3,5,16,19,1,-3,-2,-1
14:19:21:795793,-2,-14,-36,-31,7,0,-2,-2
14:19:21:809327,14,-4,-13,-1,8,3,0,0
14:19:21:817391,14,-4,-13,-1,8,3,0,0
14:19:21:818255,-6,-12,2,0,-10,-6,-3,-3
14:19:21:824130,-9,2,14,-4,-5,0,-1,-5
14:19:21:831757,-9,2,14,-4,-5,0,-1,-5
14:19:21:839291,-1,0,-5,-6,1,3,0,0
14:19:21:846798,-3,-10,4,12,3,1,2,-1
14:19:21:854878,-3,-10,4,12,3,1,2,-1
14:19:21:855767,-2,-13,-2,5,-11,-5,-2,-1
14:19:21:869291,-11,-3,-11,-17,8,0,-3,-3
14:19:21:877387,-11,-3,-11,-17,8,0,-3,-3
14:19:21:878287,-1,-2,-4,-7,-9,-5,-10,-8
14:19:21:884269,12,-7,10,19,-10,-3,0,2
14:19:21:891767,12,-7,10,19,-10,-3,0,2
14:19:21:899290,-1,15,27,26,9,0,0,2
14:19:21:906810,10,9,-5,-6,-2,0,-3,0
14:19:21:914911,10,9,-5,-6,-2,0,-3,0
14:19:21:915783,2,-18,-1,4,-5,-1,-2,0
14:19:21:938034,-9,-3,-5,-11,3,5,5,3
14:19:21:938885,-9,-3,-5,-11,3,5,5,3
14:19:21:939773,2,1,3,2,-2,0,5,0
14:19:21:944311,-12,19,18,-4,6,0,-5,-4
14:19:21:951760,-12,19,18,-4,6,0,-5,-4
14:19:21:959285,0,6,-15,2,11,-1,-1,-1
14:19:21:975532,-7,4,-9,4,-5,0,3,-1
14:19:21:976400,-7,4,-9,4,-5,0,3,-1
14:19:21:977295,0,6,-6,-17,0,-3,1,0
14:19:21:989290,2,-10,2,-14,-3,-3,-2,-4
14:19:21:997485,2,-10,2,-14,-3,-3,-2,-4
14:19:21:998282,-4,5,9,12,17,0,-1,2
14:19:22:4157,-3,-10,1,0,-2,0,-3,1
14:19:22:11776,-3,-10,1,0,-2,0,-3,1
14:19:22:19283,1,10,-1,5,21,2,1,0
14:19:22:26806,-8,-8,-4,7,4,-2,-2,-4
14:19:22:34898,-8,-8,-4,7,4,-2,-2,-4
14:19:22:35765,-4,18,34,19,0,-1,-4,-1
14:19:22:49178,3,-2,-6,4,2,-1,-1,-4
14:19:22:57406,3,-2,-6,4,2,-1,-1,-4
14:19:22:58263,-1,-10,0,-13,0,1,0,-2
14:19:22:64295,-11,-6,-5,7,-17,-4,-6,-3
14:19:22:71759,-11,-6,-5,7,-17,-4,-6,-3
14:19:22:79311,0,-26,-22,-14,0,0,2,-2
14:19:22:86775,11,3,-28,-4,0,0,-1,0
14:19:22:95056,11,3,-28,-4,0,0,-1,0
14:19:22:95780,-1,-28,-22,-8,-12,-4,-3,-3
14:19:22:109319,0,-4,-3,-2,3,-2,-8,0
14:19:22:117415,0,-4,-3,-2,3,-2,-8,0
14:19:22:118293,4,16,-13,4,-16,-3,-4,1
14:19:22:132462,-2,-4,0,3,0,-2,1,1
14:19:22:133299,-2,-4,0,3,0,-2,1,1
14:19:22:139280,-15,-32,-31,-12,12,2,-2,0
14:19:22:146807,1,-3,2,7,0,-1,-6,-5
14:19:22:154877,1,-3,2,7,0,-1,-6,-5
14:19:22:155750,-9,6,14,13,5,5,-3,-2
14:19:22:169151,6,1,8,-14,-4,-1,3,1
14:19:22:177419,6,1,8,-14,-4,-1,3,1
14:19:22:178310,2,6,18,-4,-13,-3,1,-3
14:19:22:184287,-5,-6,8,-14,-4,-4,1,0
14:19:22:191772,-5,-6,8,-14,-4,-4,1,0
14:19:22:199280,-8,-8,8,-1,-12,-1,1,0
14:19:22:206785,3,6,-3,-2,-10,-3,11,0
14:19:22:214909,3,6,-3,-2,-10,-3,11,0
14:19:22:215778,-11,-6,4,-1,-20,-4,-1,-2
14:19:22:229356,-5,-18,4,-28,-5,0,-2,-2
14:19:22:237383,-5,-18,4,-28,-5,0,-2,-2
14:19:22:238254,9,9,1,-13,0,-2,-3,-1
14:19:22:244295,-1,12,5,19,9,3,1,1
14:19:22:251790,-1,12,5,19,9,3,1,1
14:19:22:259269,0,-12,-1,0,3,-2,-6,-2
14:19:22:275723,-1,-3,0,-5,7,0,8,1
14:19:22:276437,-1,-3,0,-5,7,0,8,1
14:19:22:277296,3,13,-3,-2,-1,-2,0,-4
14:19:22:298035,7,5,-12,13,5,2,-3,0
14:19:22:298899,7,5,-12,13,5,2,-3,0
14:19:22:299756,0,-5,-5,20,36,7,0,0
14:19:22:320642,1,5,6,2,-8,-9,-10,-4
14:19:22:321385,1,5,6,2,-8,-9,-10,-4
14:19:22:322259,1,7,-4,-4,-5,-2,-6,-2
14:19:22:326787,0,-11,6,5,-3,2,3,4
14:19:22:334271,0,-11,6,5,-3,2,3,4
14:19:22:341796,2,-1,-4,6,-8,-6,-5,-1
14:19:22:349303,-9,8,-5,-15,-11,1,-3,-3
14:19:22:357407,-9,8,-5,-15,-11,1,-3,-3
14:19:22:358265,1,8,15,-6,-8,-3,1,0
14:19:22:372392,8,-4,-8,8,-1,2,3,0
14:19:22:373276,8,-4,-8,8,-1,2,3,0
14:19:22:379340,6,3,3,-19,-25,-4,0,0
14:19:22:386763,-5,-7,-9,-19,0,0,5,-1
14:19:22:394334,-5,-7,-9,-19,0,0,5,-1
14:19:22:401778,3,0,10,7,-2,2,-1,-3
14:19:22:409165,-10,1,-2,-6,-11,-4,-3,0
14:19:22:417389,-10,1,-2,-6,-11,-4,-3,0
14:19:22:418276,-14,-3,-5,-4,-5,-2,-2,0
14:19:22:432413,-2,5,-8,12,8,0,-4,-3
14:19:22:433288,-2,5,-8,12,8,0,-4,-3
14:19:22:439146,-3,0,0,-12,-14,-4,-2,-1
14:19:22:446830,-10,-32,6,9,0,-3,-3,-2
14:19:22:454264,-10,-32,6,9,0,-3,-3,-2
14:19:22:461817,6,-23,-21,8,-1,1,5,-1
14:19:22:478035,10,5,-16,4,2,1,0,2
14:19:22:478917,10,5,-16,4,2,1,0,2
14:19:22:479778,-3,4,-6,-3,13,-3,3,-2
14:19:22:500531,-3,-5,-1,3,-2,-1,-3,-3
14:19:22:501393,-3,-5,-1,3,-2,-1,-3,-3
14:19:22:502139,-2,-9,-5,12,-1,-4,1,0
14:19:22:506767,-2,13,-29,-6,-7,0,-1,-1
14:19:22:522409,-2,13,-29,-6,-7,0,-1,-1
14:19:22:523274,-4,-1,6,-5,10,2,-2,-2
14:19:22:529290,1,-5,-10,2,1,-4,-6,1
14:19:22:544942,1,-5,-10,2,1,-4,-6,1
14:19:22:545800,1,5,-16,5,7,3,3,2
14:19:22:552421,2,3,10,-11,8,-2,-2,-1
14:19:22:553311,2,3,10,-11,8,-2,-2,-1
14:19:22:567424,4,-2,7,-16,-10,-1,-4,0
14:19:22:568147,7,13,15,4,1,3,2,0
14:19:22:574304,7,13,15,4,1,3,2,0
14:19:22:581782,-2,2,-1,-20,-16,-4,-3,-3
14:19:22:589267,-2,6,3,-9,-7,-3,-2,1
14:19:22:597434,-2,6,3,-9,-7,-3,-2,1
14:19:22:598290,-1,-15,7,9,3,3,3,1
14:19:22:612481,1,-2,7,2,-10,-1,-6,-3
14:19:22:613329,1,-2,7,2,-10,-1,-6,-3
14:19:22:619274,6,23,13,6,1,-1,-5,2
14:19:22:626792,1,11,6,0,-5,2,14,2
14:19:22:634289,1,11,6,0,-5,2,14,2
14:19:22:641820,-1,5,-2,10,12,0,2,-1
14:19:22:658173,-2,-3,5,2,2,-2,-5,-2
14:19:22:658907,-2,-3,5,2,2,-2,-5,-2
14:19:22:659770,2,7,4,0,2,4,1,-1
14:19:22:672418,0,2,4,-1,0,-2,-6,-3
14:19:22:673315,0,2,4,-1,0,-2,-6,-3
14:19:22:679295,-6,-12,-6,7,9,-1,-14,-7
14:19:22:686796,2,8,-4,-4,-2,0,4,0
14:19:22:694306,2,8,-4,-4,-2,0,4,0
14:19:22:701774,1,4,-10,2,-4,-4,3,-1
14:19:22:709313,-5,-17,-3,2,17,2,-9,-4
14:19:22:717405,-5,-17,-3,2,17,2,-9,-4
14:19:22:718275,-9,-21,-2,-11,-4,-2,-3,-2
14:19:22:732417,2,7,7,1,-5,-3,-6,-4
14:19:22:733267,2,7,7,1,-5,-3,-6,-4
14:19:22:739278,-12,-7,-1,4,7,8,10,-2
14:19:22:746807,-14,-8,1,-7,-7,-5,-12,-2
14:19:22:754292,-14,-8,1,-7,-7,-5,-12,-2
14:19:22:761800,4,7,4,-5,-12,-9,-4,0
14:19:22:769298,2,-8,-3,1,-3,-2,1,0
14:19:22:777419,2,-8,-3,1,-3,-2,1,0
14:19:22:778285,1,-6,-11,2,2,-2,-6,-2
14:19:22:800524,9,-14,9,2,-1,-5,-4,1
14:19:22:801398,9,-14,9,2,-1,-5,-4,1
14:19:22:802270,6,-8,-5,2,-2,6,-1,-2
14:19:22:806774,1,9,-1,-1,-4,0,0,-2
14:19:22:814337,1,9,-1,-1,-4,0,0,-2
14:19:22:821791,-2,10,16,3,-4,-4,7,0
14:19:22:829320,1,3,10,-9,-4,4,29,7
14:19:22:837522,1,3,10,-9,-4,4,29,7
14:19:22:838261,0,-3,-3,-5,-7,-1,-5,0
14:19:22:852421,-4,-11,-14,-2,-10,-5,-7,-4
14:19:22:853279,-4,-11,-14,-2,-10,-5,-7,-4
14:19:22:859275,1,8,7,-1,-1,0,3,-4
14:19:22:866794,7,7,-7,6,13,1,-12,-2
14:19:22:874295,7,7,-7,6,13,1,-12,-2
14:19:22:889913,-7,-8,4,-9,0,-4,-7,-3
14:19:22:890784,-6,1,5,-4,-7,0,1,1
14:19:22:897419,-6,1,5,-4,-7,0,1,1
14:19:22:898280,0,1,-4,-2,-4,-6,1,3
14:19:22:912919,-2,-2,-3,1,6,4,-2,2
14:19:22:913791,-2,-2,-3,1,6,4,-2,2
14:19:22:919278,-5,-15,-28,-6,-7,-4,3,3
14:19:22:934890,4,-4,-4,3,1,-1,-2,-1
14:19:22:935760,4,-4,-4,3,1,-1,-2,-1
14:19:22:941784,-1,2,15,2,-5,-2,-12,-1
14:19:22:949171,-1,4,0,-18,-9,2,7,-1
14:19:22:957437,-1,4,0,-18,-9,2,7,-1
14:19:22:958300,1,0,-15,5,5,-3,-15,-5
14:19:22:972402,-13,4,8,2,-3,-3,-13,-8
14:19:22:973309,-13,4,8,2,-3,-3,-13,-8
14:19:22:979306,3,-14,-7,-1,-12,1,9,-1
14:19:22:986791,-6,-14,2,-1,7,-5,-9,-5
14:19:22:994313,-6,-14,2,-1,7,-5,-9,-5
14:19:23:9967,0,10,10,3,4,0,-5,3
14:19:23:10781,4,-2,-12,-3,-4,2,12,3
14:19:23:17410,4,-2,-12,-3,-4,2,12,3
14:19:23:18273,8,-7,11,-3,5,-3,-1,-2
14:19:23:32464,0,-8,-1,4,1,-2,2,2
14:19:23:33316,0,-8,-1,4,1,-2,2,2
14:19:23:39144,-2,1,-11,-7,-4,0,-5,-3
14:19:23:46794,-6,-7,-14,0,-4,-6,-4,-2
14:19:23:54301,-6,-7,-14,0,-4,-6,-4,-2
14:19:23:61810,-5,-14,-12,-4,-4,-3,-4,-1
14:19:23:69303,-1,12,6,0,-3,3,-9,-5
14:19:23:77437,-1,12,6,0,-3,3,-9,-5
14:19:23:78295,-2,8,-1,0,-1,0,8,-3
14:19:23:92410,5,4,-5,-2,-6,-6,-5,-1
14:19:23:93280,5,4,-5,-2,-6,-6,-5,-1
14:19:23:99289,-1,11,2,2,3,1,7,-1
14:19:23:106777,1,20,22,1,-5,-2,-14,-7
14:19:23:114294,1,20,22,1,-5,-2,-14,-7
14:19:23:121789,4,6,6,-3,-5,-2,8,-2
14:19:23:129292,4,7,3,2,8,3,0,1
14:19:23:137393,4,7,3,2,8,3,0,1
14:19:23:138261,-14,-20,-6,-3,-7,-7,0,-3
14:19:23:152420,5,-3,-6,-4,1,0,16,9
14:19:23:153300,5,-3,-6,-4,1,0,16,9
14:19:23:159279,3,-17,-9,-2,1,2,0,-2
14:19:23:166772,-4,-1,-6,-1,-1,-2,-10,0
14:19:23:174290,-4,-1,-6,-1,-1,-2,-10,0
14:19:23:181795,0,20,12,1,3,4,7,4
14:19:23:189283,-6,-4,-14,0,4,0,7,-1
14:19:23:197475,-6,-4,-14,0,4,0,7,-1
14:19:23:198312,-6,15,-1,-2,2,-5,-3,-5
14:19:23:212409,0,-2,-3,-3,-1,2,0,0
14:19:23:213346,0,-2,-3,-3,-1,2,0,0
14:19:23:219283,-1,-6,3,-1,-1,-1,-20,0
14:19:23:226785,6,2,5,-1,1,1,5,-3
14:19:23:234296,6,2,5,-1,1,1,5,-3
14:19:23:241778,1,-14,-2,-1,-1,0,-1,-1
14:19:23:249152,-14,-7,4,-2,-5,0,0,1
14:19:23:256763,-14,-7,4,-2,-5,0,0,1
14:19:23:264179,2,7,-21,-6,-2,-5,3,4
14:19:23:272401,4,-8,-4,1,0,1,2,1
14:19:23:273285,4,-8,-4,1,0,1,2,1
14:19:23:279235,2,6,2,2,-3,1,-12,-1
14:19:23:294954,-9,-22,-12,-4,-4,-6,-2,0
14:19:23:295814,-9,-22,-12,-4,-4,-6,-2,0
14:19:23:301774,-13,-4,-7,0,2,5,13,-3
14:19:23:309165,-5,-13,-1,-2,-7,-7,11,1
14:19:23:316774,-5,-13,-1,-2,-7,-7,11,1
14:19:23:324295,2,-3,2,2,8,8,5,-3
14:19:23:332412,5,7,1,-1,-3,1,-10,-4
14:19:23:333285,5,7,1,-1,-3,1,-10,-4
14:19:23:339278,8,12,5,-2,-5,-2,3,-2
14:19:23:354912,4,10,-14,-3,-3,-8,-9,-5
14:19:23:355788,4,10,-14,-3,-3,-8,-9,-5
14:19:23:361822,-4,-5,-4,-3,3,0,-15,-9
14:19:23:369296,-5,7,9,-1,-6,-7,-13,-2
14:19:23:376794,-5,7,9,-1,-6,-7,-13,-2
14:19:23:384290,4,4,16,3,2,2,0,-2
14:19:23:392411,14,-9,-8,0,3,2,-8,-1
14:19:23:393306,14,-9,-8,0,3,2,-8,-1
14:19:23:399277,1,-11,-15,-2,-6,-6,-4,6
14:19:23:414946,1,-1,3,1,2,1,7,4
14:19:23:415788,1,-1,3,1,2,1,7,4
14:19:23:421782,0,9,7,-3,-2,-1,7,2
14:19:23:429310,-3,-3,3,0,2,12,8,0
14:19:23:436814,-3,-3,3,0,2,12,8,0
14:19:23:444299,-12,-22,-14,-1,-2,-1,-3,-4
14:19:23:452410,-8,8,12,-2,-6,-10,-12,-3
14:19:23:453288,-8,8,12,-2,-6,-10,-12,-3
14:19:23:459162,8,-5,3,-2,2,7,15,-14
14:19:23:474932,-10,-12,-15,-6,-3,-3,-3,-1
14:19:23:475816,-10,-12,-15,-6,-3,-3,-3,-1
14:19:23:481798,-9,-2,11,0,-1,-3,-4,7
14:19:23:497465,2,-10,4,2,0,4,3,-7
14:19:23:498173,2,-10,4,2,0,4,3,-7
14:19:23:504292,-9,-4,4,0,-2,-5,-4,-3
14:19:23:520665,-1,6,1,-1,-1,3,-3,-1
14:19:23:521406,-1,6,1,-1,-1,3,-3,-1
14:19:23:522285,-7,6,2,0,-1,-3,-1,3
14:19:23:543063,-8,-24,-9,-2,0,-5,-3,-1
14:19:23:543939,-8,-24,-9,-2,0,-5,-3,-1
14:19:23:544833,19,9,9,1,-1,-6,-17,0
14:19:23:549180,3,5,16,0,-4,-1,-2,1
14:19:23:564952,3,5,16,0,-4,-1,-2,1
14:19:23:565787,-4,-11,-3,-2,-3,-3,-12,-3
14:19:23:572408,-3,3,1,-2,-4,-13,-4,8
14:19:23:573315,-3,3,1,-2,-4,-13,-4,8
14:19:23:579196,16,17,9,5,9,3,-15,2
14:19:23:594939,-12,-12,-1,-1,-4,-5,-1,-7
14:19:23:595805,-12,-12,-1,-1,-4,-5,-1,-7
14:19:23:601806,6,5,3,-1,-2,-3,1,2
14:19:23:609337,25,7,-3,0,1,0,-4,0
14:19:23:616780,25,7,-3,0,1,0,-4,0
14:19:23:624158,-5,-6,-15,-3,-2,-1,-2,2
14:19:23:632441,-13,6,-5,0,3,3,-14,-6
14:19:23:633321,-13,6,-5,0,3,3,-14,-6
14:19:23:639163,-2,-16,-12,-3,-6,-3,8,-2
14:19:23:654913,8,10,-14,-3,-6,-4,-4,2
14:19:23:655785,8,10,-14,-3,-6,-4,-4,2
14:19:23:661803,1,-7,-2,0,3,13,5,4
14:19:23:669143,-8,-9,6,-1,-1,4,32,6
14:19:23:676872,-8,-9,6,-1,-1,4,32,6
14:19:23:684175,-26,4,-2,-3,-7,-5,-5,-8
14:19:23:692432,-10,25,14,1,1,-3,-12,-22
14:19:23:693302,-10,25,14,1,1,-3,-12,-22
14:19:23:699286,3,3,4,0,0,1,12,-2
14:19:23:714914,-27,-11,-3,-1,1,-5,2,4
14:19:23:715768,-27,-11,-3,-1,1,-5,2,4
14:19:23:721787,-4,8,11,2,3,1,7,-1
14:19:23:729186,18,3,-5,-2,-2,-4,5,4
14:19:23:736794,18,3,-5,-2,-2,-4,5,4
14:19:23:744272,27,13,4,-5,-4,-8,-26,3
14:19:23:752428,1,0,-4,1,6,5,1,-4
14:19:23:753163,1,0,-4,1,6,5,1,-4
14:19:23:759300,-8,-13,1,0,0,-2,3,1
14:19:23:774911,-3,-9,-16,-2,1,4,13,-2
14:19:23:775792,-3,-9,-16,-2,1,4,13,-2
14:19:23:781826,-10,-2,-9,-3,-5,0,24,0
14:19:23:789282,6,-2,1,-4,0,7,24,8
14:19:23:796844,6,-2,1,-4,0,7,24,8
14:19:23:804282,5,-7,-4,-1,-5,-5,-5,-4
14:19:23:812473,3,-1,3,1,-2,4,-21,-4
14:19:23:813327,3,-1,3,1,-2,4,-21,-4
14:19:23:819146,9,-1,-6,-1,-4,-3,3,4
14:19:23:843064,4,-1,2,2,-2,-12,-50,-8
14:19:23:843912,4,-1,2,2,-2,-12,-50,-8
14:19:23:844810,2,-4,9,-1,0,0,-12,-1
14:19:23:849304,2,5,5,-1,-5,-4,-16,1
14:19:23:856774,2,5,5,-1,-5,-4,-16,1
14:19:23:864338,-3,4,-6,-2,0,-4,-13,-7
14:19:23:872395,3,-9,-7,-2,-3,1,10,4
14:19:23:873270,3,-9,-7,-2,-3,1,10,4
14:19:23:879311,-2,1,0,0,-1,-1,12,3
14:19:23:894953,-8,-3,-4,-2,1,-2,-4,-6
14:19:23:895841,-8,-3,-4,-2,1,-2,-4,-6
14:19:23:901783,-4,-9,-6,1,1,-5,-34,-5
14:19:23:909304,23,13,9,-2,-1,1,11,5
14:19:23:916803,23,13,9,-2,-1,1,11,5
14:19:23:924283,4,2,-5,-3,-2,-1,4,0
14:19:23:940559,-19,-5,2,0,-3,-1,10,-1
14:19:23:941404,-19,-5,2,0,-3,-1,10,-1
14:19:23:942176,-22,-5,-8,-3,-4,-2,4,-4
14:19:23:955527,4,2,1,2,2,2,9,-3
14:19:23:956400,4,2,1,2,2,2,9,-3
14:19:23:961826,-5,-3,-1,0,1,0,-3,0
14:19:23:969297,-9,-5,-5,-2,-3,-6,-17,-4
14:19:23:976815,-9,-5,-5,-2,-3,-6,-17,-4
14:19:23:984274,-1,-9,-17,-4,-3,-1,3,0
14:19:23:992431,1,2,-2,-1,3,2,7,1
14:19:23:993306,1,2,-2,-1,3,2,7,1
14:19:23:999160,0,-5,-2,-7,-1,-2,-12,-1
14:19:24:14923,0,-7,-8,-12,-3,1,15,1
14:19:24:15801,0,-7,-8,-12,-3,1,15,1
14:19:24:21788,1,-1,7,2,0,-2,9,0
14:19:24:37433,1,-1,7,2,0,-2,9,0
14:19:24:38166,13,-18,-4,1,4,14,59,6
14:19:24:44323,0,6,11,-1,-1,1,2,-2
14:19:24:52429,0,6,11,-1,-1,1,2,-2
14:19:24:53299,-6,4,2,0,-6,-9,-32,-12
14:19:24:59191,-4,-4,0,1,2,1,5,0
14:19:24:74911,-4,-4,0,1,2,1,5,0
14:19:24:75770,1,23,9,0,-5,-4,-26,-6
14:19:24:81785,3,5,3,1,-1,-6,-13,-8
14:19:24:97432,3,5,3,1,-1,-6,-13,-8
14:19:24:98318,-8,-8,2,0,-4,-4,-12,1
14:19:24:104266,-1,-6,-7,-3,-2,1,-4,-2
14:19:24:120665,-1,-6,-7,-3,-2,1,-4,-2
14:19:24:121396,-7,3,-1,0,1,-2,-2,0
14:19:24:122329,-3,-5,6,2,-2,-1,0,3
14:19:24:135298,-3,-5,6,2,-2,-1,0,3
14:19:24:142468,-20,-3,-1,5,1,-2,2,2
14:19:24:143227,-7,4,3,-3,0,1,11,-2
14:19:24:157426,-7,4,3,-3,0,1,11,-2
14:19:24:158347,4,-6,2,-1,1,-1,0,-1
14:19:24:164212,0,10,1,-1,-2,10,36,9
14:19:24:172436,0,10,1,-1,-2,10,36,9
14:19:24:173317,-6,-2,-4,-3,1,0,3,-1
14:19:24:179211,1,-5,-3,1,2,-1,-10,-1
14:19:24:195456,1,-5,-3,1,2,-1,-10,-1
14:19:24:196175,3,-4,-7,-2,-2,1,5,1
14:19:24:201801,-3,3,1,5,0,-1,1,-3
14:19:24:217926,-3,3,1,5,0,-1,1,-3
14:19:24:218798,6,-7,-3,1,0,5,32,5
14:19:24:224169,6,-5,-3,1,2,-1,-28,-8
14:19:24:232465,6,-5,-3,1,2,-1,-28,-8
14:19:24:233310,4,-1,-4,0,1,-4,-18,-2
14:19:24:246822,-7,-3,1,-1,-6,-1,9,-7
14:19:24:254935,-7,-3,1,-1,-6,-1,9,-7
14:19:24:255812,10,0,-7,-2,1,2,-6,-2
14:19:24:261832,-13,2,-3,-3,-1,-2,1,1
14:19:24:277505,-13,2,-3,-3,-1,-2,1,1
14:19:24:278395,20,1,-10,-4,-5,-1,16,3
14:19:24:284150,-1,7,-16,-1,3,-1,-2,1
14:19:24:292428,-1,7,-16,-1,3,-1,-2,1
14:19:24:293288,-6,4,0,2,0,0,-12,-8
14:19:24:306770,2,3,5,-2,-3,-8,-22,-4
14:19:24:314915,2,3,5,-2,-3,-8,-22,-4
14:19:24:315778,1,7,6,1,0,-4,-9,-2
14:19:24:321788,0,0,-5,-24,-2,0,-1,1
14:19:24:337424,0,0,-5,-24,-2,0,-1,1
14:19:24:338303,-8,-8,4,-4,-2,-5,-11,-3
14:19:24:344208,9,-2,2,7,2,0,-3,-1
14:19:24:352433,9,-2,2,7,2,0,-3,-1
14:19:24:353288,-3,4,2,-4,-5,-1,8,4
14:19:24:366786,-2,-5,-2,7,0,4,28,-1
14:19:24:374920,-2,-5,-2,7,0,4,28,-1
14:19:24:375872,-2,-1,-2,2,-2,-2,-5,1
14:19:24:381814,7,8,6,0,-3,-1,9,9
14:19:24:397509,7,8,6,0,-3,-1,9,9
14:19:24:398193,-3,-8,0,1,1,0,-1,-1
14:19:24:404287,3,2,-17,-12,-2,-3,-6,1
14:19:24:419934,3,2,-17,-12,-2,-3,-6,1
14:19:24:420788,-4,-2,-1,-1,-1,-1,-8,-3
14:19:24:426823,-4,3,12,10,0,2,12,-1
14:19:24:434922,-4,3,12,10,0,2,12,-1
14:19:24:435778,-2,9,6,-3,2,1,-3,-5
14:19:24:441806,-9,-3,2,-1,-3,2,30,4
14:19:24:457425,-9,-3,2,-1,-3,2,30,4
14:19:24:458164,-3,1,-2,-1,0,-2,-4,1
14:19:24:464345,-4,-8,-5,-1,0,-4,-6,-2
14:19:24:472422,-4,-8,-5,-1,0,-4,-6,-2
14:19:24:473301,-2,-1,-5,5,-1,-2,-3,-2
14:19:24:486801,0,0,-3,-6,-5,-2,-12,-2
14:19:24:494969,0,0,-3,-6,-5,-2,-12,-2
14:19:24:495823,-4,-10,2,7,0,1,1,-3
14:19:24:501810,-2,-6,9,1,-2,-2,-12,-6
14:19:24:517445,-2,-6,9,1,-2,-2,-12,-6
14:19:24:518290,0,1,-1,-7,-4,0,3,-3
14:19:24:524299,2,-8,-10,0,5,1,-19,-3
14:19:24:532445,2,-8,-10,0,5,1,-19,-3
14:19:24:533158,-1,0,1,4,-2,-1,-1,2
14:19:24:546837,5,6,0,4,-4,-5,-11,-3
14:19:24:554907,5,6,0,4,-4,-5,-11,-3
14:19:24:555800,2,0,0,-2,-4,-4,-3,1
14:19:24:561810,-1,-13,-8,-1,2,-2,-4,-3
14:19:24:577478,-1,-13,-8,-1,2,-2,-4,-3
14:19:24:578361,-5,1,1,0,-1,-1,0,-4
14:19:24:584192,2,12,17,-7,-1,-1,1,1
14:19:24:592453,2,12,17,-7,-1,-1,1,1
14:19:24:593340,-4,-7,-14,-2,-4,-5,-11,2
14:19:24:606805,-3,-3,0,7,2,4,0,-2
14:19:24:614962,-3,-3,0,7,2,4,0,-2
14:19:24:615810,2,1,2,-16,-4,-8,-31,-5
14:19:24:621799,-7,-11,-1,-2,-5,-3,-4,0
14:19:24:637448,-7,-11,-1,-2,-5,-3,-4,0
14:19:24:638295,-1,-11,-5,-2,-1,-1,-1,-4
14:19:24:644157,-1,-1,-4,1,2,4,6,0
14:19:24:652424,-1,-1,-4,1,2,4,6,0
14:19:24:653303,-8,-11,4,-3,-1,-1,1,0
14:19:24:666812,2,5,2,2,-1,-1,5,0
14:19:24:674949,2,5,2,2,-1,-1,5,0
14:19:24:675837,3,1,1,4,-1,0,-10,-2
14:19:24:681808,-1,-13,-6,-4,-2,-1,-6,-3
14:19:24:697496,-1,-13,-6,-4,-2,-1,-6,-3
14:19:24:698286,-3,8,8,8,6,4,10,0
14:19:24:704175,-1,2,-12,-3,-4,-7,-11,-3
14:19:24:712444,-1,2,-12,-3,-4,-7,-11,-3
14:19:24:713289,3,0,-5,0,0,1,4,1
14:19:24:726792,-1,3,3,0,0,-2,-3,-3
14:19:24:734910,-1,3,3,0,0,-2,-3,-3
14:19:24:735777,-4,-9,-1,-1,-1,-1,-1,-3
14:19:24:741797,-9,-1,0,-6,-3,-4,-5,-5
14:19:24:757436,-9,-1,0,-6,-3,-4,-5,-5
14:19:24:758300,-1,4,-1,-3,-2,2,7,2
14:19:24:764220,4,4,8,-5,-4,-2,-4,1
14:19:24:772440,4,4,8,-5,-4,-2,-4,1
14:19:24:773325,1,3,-2,1,1,-1,3,-2
14:19:24:786787,1,-9,-11,-4,-2,-2,1,3
14:19:24:794960,1,-9,-11,-4,-2,-2,1,3
14:19:24:795825,0,-20,-8,-3,-4,-2,3,-1
14:19:24:801793,-2,1,3,-18,-3,1,-10,2
14:19:24:817428,-2,1,3,-18,-3,1,-10,2
14:19:24:818287,0,-1,-3,-1,0,-1,-6,-4
14:19:24:824180,0,1,-11,1,0,0,2,-1
14:19:24:832459,0,1,-11,1,0,0,2,-1
14:19:24:833329,3,13,0,-12,-5,1,6,0
14:19:24:846838,-4,0,12,10,1,5,6,-3
14:19:24:854933,-4,0,12,10,1,5,6,-3
14:19:24:855791,5,6,1,4,-2,0,8,3
14:19:24:861805,-3,-8,-3,3,0,-2,2,1
14:19:24:877431,-3,-8,-3,3,0,-2,2,1
14:19:24:878222,-5,0,1,5,3,2,-3,-3
14:19:24:884296,3,11,3,2,-4,-2,9,0
14:19:24:892419,3,11,3,2,-4,-2,9,0
14:19:24:893294,-3,1,-2,-3,0,-4,-9,-3
14:19:24:906803,2,-19,-15,-5,-2,-1,5,2
14:19:24:914910,2,-19,-15,-5,-2,-1,5,2
14:19:24:915797,-3,-2,3,3,0,-2,1,1
14:19:24:921790,0,3,-8,-11,-2,-2,-1,4
14:19:24:937463,0,3,-8,-11,-2,-2,-1,4
14:19:24:938203,-7,-16,-15,-3,-2,-3,-1,-1
14:19:24:944318,2,12,4,5,0,0,3,1
14:19:24:952418,2,12,4,5,0,0,3,1
14:19:24:953175,-5,5,-6,-3,-1,1,-16,-5
14:19:24:975559,-11,-14,-3,0,-3,-1,2,1
14:19:24:976469,-11,-14,-3,0,-3,-1,2,1
14:19:24:977200,1,-3,5,3,1,4,18,4
14:19:24:981805,-3,11,10,8,2,0,-5,1
14:19:24:997462,-3,11,10,8,2,0,-5,1
14:19:24:998294,-3,-12,-27,-21,-3,-3,-5,-3
14:19:25:13101,1,2,2,2,-1,-2,3,-3
14:19:25:13929,1,2,2,2,-1,-2,3,-3
14:19:25:14826,3,13,5,6,-2,0,1,0
14:19:25:26859,1,4,4,0,1,-2,-19,-4
14:19:25:34927,1,4,4,0,1,-2,-19,-4
14:19:25:35803,-5,4,-5,-5,-1,-3,8,-1
14:19:25:41812,0,2,-8,10,-1,-3,-8,-3
14:19:25:57413,0,2,-8,10,-1,-3,-8,-3
14:19:25:58178,1,1,-5,-22,-5,-3,-15,-4
14:19:25:64348,1,-5,-2,-2,-2,-4,-6,-4
14:19:25:80002,1,-5,-2,-2,-2,-4,-6,-4
14:19:25:80846,6,0,3,8,0,0,-1,2
14:19:25:86815,-1,-10,-7,-11,-1,1,5,-2
14:19:25:94927,-1,-10,-7,-11,-1,1,5,-2
14:19:25:95835,-4,-4,5,3,-2,-4,-10,-2
14:19:25:101798,5,1,1,-1,2,5,12,4
14:19:25:117471,5,1,1,-1,2,5,12,4
14:19:25:118321,-5,-4,-9,3,-3,-3,6,-1
14:19:25:124314,-1,-7,-5,-24,-3,-3,2,1
14:19:25:132439,-1,-7,-5,-24,-3,-3,2,1
14:19:25:133157,1,1,7,5,-1,0,20,0
14:19:25:155559,-4,0,-2,6,-2,-1,-3,-1
14:19:25:156421,-4,0,-2,6,-2,-1,-3,-1
14:19:25:157161,4,0,-5,-6,0,2,0,1
14:19:25:169181,-1,4,10,4,-1,-2,7,4
14:19:25:177471,-1,4,10,4,-1,-2,7,4
14:19:25:178322,-4,0,8,4,-3,-1,-10,-4
14:19:25:184179,-2,-2,0,11,-1,-3,-15,-7
14:19:25:191802,-2,-2,0,11,-1,-3,-15,-7
14:19:25:199191,0,-1,9,1,-1,-1,-16,-2
14:19:25:206795,4,1,3,1,-3,-3,-17,0
14:19:25:214921,4,1,3,1,-3,-3,-17,0
14:19:25:215804,1,-1,3,-1,2,-1,4,2
14:19:25:229171,-2,-9,1,5,-1,2,2,1
14:19:25:237433,-2,-9,1,5,-1,2,2,1
14:19:25:238311,-4,-1,-1,-3,-1,-2,-8,-3
14:19:25:244208,0,-5,-10,-9,-2,-3,-2,-3
14:19:25:251801,0,-5,-10,-9,-2,-3,-2,-3
14:19:25:259293,5,-3,0,5,0,5,12,-1
14:19:25:266796,13,6,0,2,-1,-2,8,0
14:19:25:274953,13,6,0,2,-1,-2,8,0
14:19:25:275826,-2,0,0,6,0,-2,-2,-2
14:19:25:289165,-7,9,-6,5,0,0,7,-4
14:19:25:297505,-7,9,-6,5,0,0,7,-4
14:19:25:298342,-1,-10,-5,-1,-1,0,4,-1
14:19:25:304312,-4,1,-1,-7,-2,-1,-16,-6
14:19:25:319950,-4,1,-1,-7,-2,-1,-16,-6
14:19:25:320823,-2,0,-10,-5,-4,1,13,1
14:19:25:326833,6,3,6,5,1,3,1,0
14:19:25:334918,6,3,6,5,1,3,1,0
14:19:25:335784,2,-5,-2,0,1,-3,-6,4
14:19:25:349181,1,-2,0,-3,-2,1,-11,2
14:19:25:357422,1,-2,0,-3,-2,1,-11,2
14:19:25:358317,-5,3,4,-3,-1,-3,-14,-3
14:19:25:364233,-2,-6,-2,4,-2,-4,-12,-6
14:19:25:371796,-2,-6,-2,4,-2,-4,-12,-6
14:19:25:379379,-1,4,-11,-8,-4,-3,1,-2
14:19:25:386839,3,-2,6,-1,-1,2,29,2
14:19:25:394976,3,-2,6,-1,-1,2,29,2
14:19:25:395816,3,2,9,2,3,1,0,-3
14:19:25:409705,-1,0,6,-5,0,1,11,2
14:19:25:417431,-1,0,6,-5,0,1,11,2
14:19:25:418289,-3,-1,1,-2,-2,-3,-5,-3
14:19:25:432435,-2,-8,-1,2,-4,-6,3,3
14:19:25:433290,-2,-8,-1,2,-4,-6,3,3
14:19:25:439183,2,7,1,-1,-1,1,-9,2
14:19:25:446832,-4,-6,-4,2,-1,-4,-3,-2
14:19:25:454930,-4,-6,-4,2,-1,-4,-3,-2
14:19:25:455801,3,-2,1,0,-1,-3,4,-3
14:19:25:469180,-2,4,6,-2,3,2,3,-2
14:19:25:477471,-2,4,6,-2,3,2,3,-2
14:19:25:478347,9,13,8,1,0,-2,2,7
14:19:25:484194,-6,-4,-8,-2,0,-1,-3,-2
14:19:25:491814,-6,-4,-8,-2,0,-1,-3,-2
14:19:25:499304,-2,-3,6,-2,-2,-1,2,-1
14:19:25:506842,-7,3,-3,-6,2,3,15,-5
14:19:25:514968,-7,3,-3,-6,2,3,15,-5
14:19:25:515830,-6,-1,-2,4,-2,-2,0,-2
14:19:25:529224,-1,-2,-7,-1,0,-2,-15,-2
14:19:25:537438,-1,-2,-7,-1,0,-2,-15,-2
14:19:25:538178,5,-6,9,3,-1,-3,4,5
14:19:25:544292,4,-1,4,-3,0,4,26,6
14:19:25:551796,4,-1,4,-3,0,4,26,6
14:19:25:559313,-8,-14,-19,-3,2,1,5,-6
14:19:25:566849,-7,-5,-2,-3,-1,-3,-17,-8
14:19:25:574931,-7,-5,-2,-3,-1,-3,-17,-8
14:19:25:575805,-3,-1,-4,-4,-1,1,-1,-2
14:19:25:589287,2,5,-4,-1,3,0,-8,-3
14:19:25:597486,2,5,-4,-1,3,0,-8,-3
14:19:25:598181,-12,0,3,-1,-2,-2,-15,-2
14:19:25:604286,-1,9,1,0,-4,-2,-1,1
14:19:25:611893,-1,9,1,0,-4,-2,-1,1
14:19:25:619167,3,3,3,0,0,1,-12,0
14:19:25:626886,1,-3,0,0,-2,0,-13,-1
14:19:25:634932,1,-3,0,0,-2,0,-13,-1
14:19:25:635792,-4,-17,-6,-2,0,-1,1,-7
14:19:25:649312,-2,8,-2,-1,-1,-4,5,2
14:19:25:657446,-2,8,-2,-1,-1,-4,5,2
14:19:25:658315,-3,13,8,2,-5,-10,-14,-8
14:19:25:664296,2,-21,-4,-3,-5,-1,-4,-4
14:19:25:671810,2,-21,-4,-3,-5,-1,-4,-4
14:19:25:687295,-3,0,1,-2,2,2,3,0
14:19:25:688156,-1,-12,-1,-4,-4,-4,4,1
14:19:25:694970,-1,-12,-1,-4,-4,-4,4,1
14:19:25:695836,6,-5,0,-1,-1,-2,-4,-2
14:19:25:709363,3,16,0,1,-2,1,-10,-1
14:19:25:717430,3,16,0,1,-2,1,-10,-1
14:19:25:718300,-7,-3,-2,-3,-3,-2,1,-3
14:19:25:724192,-2,4,-1,1,-1,3,8,0
14:19:25:731815,-2,4,-1,1,-1,3,8,0
14:19:25:739174,2,2,-1,0,0,-1,4,0
14:19:25:746828,-4,-2,5,1,-1,-9,-30,-4
14:19:25:754942,-4,-2,5,1,-1,-9,-30,-4
14:19:25:755798,3,0,-5,-2,5,1,-17,-2
14:19:25:778118,-4,-2,-14,-7,-6,-7,4,4
14:19:25:778958,-4,-2,-14,-7,-6,-7,4,4
14:19:25:779858,0,15,-5,-3,0,5,2,-3
14:19:25:784186,-5,11,3,-4,-2,-1,0,-5
14:19:25:791818,-5,11,3,-4,-2,-1,0,-5
14:19:25:807320,6,12,7,7,1,3,7,3
14:19:25:808184,-7,-10,8,2,0,3,6,-7
14:19:25:814965,-7,-10,8,2,0,3,6,-7
14:19:25:815822,-7,-14,-14,1,-9,-7,7,0
14:19:25:829348,0,0,-3,1,4,3,-5,0
14:19:25:837448,0,0,-3,1,4,3,-5,0
14:19:25:838189,-2,2,1,-3,-4,-1,1,1
14:19:25:844341,-6,-8,-6,-2,-1,3,11,2
14:19:25:851833,-6,-8,-6,-2,-1,3,11,2
14:19:25:859217,-3,5,-4,-3,-1,-7,-3,2
14:19:25:866835,-4,12,4,2,0,0,6,0
14:19:25:874951,-4,12,4,2,0,0,6,0
14:19:25:875814,4,-8,0,-5,-4,-4,-1,0
14:19:25:889309,-7,-13,0,-1,-1,0,-8,-6
14:19:25:897455,-7,-13,0,-1,-1,0,-8,-6
14:19:25:898352,0,-7,-7,7,7,6,0,0
14:19:25:904175,0,8,0,0,-4,-2,3,-5
14:19:25:911841,0,8,0,0,-4,-2,3,-5
14:19:25:919223,0,4,7,4,1,0,5,-2
14:19:25:926833,2,0,-4,-4,-6,-10,-1,-1
14:19:25:934925,2,0,-4,-4,-6,-10,-1,-1
14:19:25:935796,-4,-9,-8,-7,1,-4,-42,-4
14:19:25:949216,1,4,-2,-2,-2,-8,-12,-1
14:19:25:957451,1,4,-2,-2,-2,-8,-12,-1
14:19:25:958301,0,-12,1,-2,2,2,-4,1
14:19:25:964230,6,-4,1,1,-2,0,-1,2
14:19:25:971816,6,-4,1,1,-2,0,-1,2
14:19:25:979237,3,7,-5,-5,-4,0,10,3
14:19:25:986834,-4,-2,-14,-25,-5,3,4,-2
14:19:25:994973,-4,-2,-14,-25,-5,3,4,-2
14:19:25:995843,-8,5,4,-1,-7,-1,8,-6
14:19:26:9214,-10,-4,3,3,1,0,-17,1
14:19:26:17454,-10,-4,3,3,1,0,-17,1
14:19:26:18316,-7,-10,0,4,-4,2,16,2
14:19:26:24191,1,-8,-1,4,12,6,6,2
14:19:26:31821,1,-8,-1,4,12,6,6,2
14:19:26:39300,-5,-15,-8,-18,0,-4,3,-1
14:19:26:46845,3,15,-9,-2,-6,-2,-1,0
14:19:26:54929,3,15,-9,-2,-6,-2,-1,0
14:19:26:55816,-3,8,-6,4,1,-5,-2,0
14:19:26:69185,4,-5,0,1,5,10,5,-1
14:19:26:85573,4,-5,0,1,5,10,5,-1
14:19:26:86437,-2,-18,-3,-3,-7,-1,3,0
14:19:26:87171,0,-5,-28,1,-9,-4,-6,-2
14:19:26:91818,0,-5,-28,1,-9,-4,-6,-2
14:19:26:107427,2,-8,0,-4,-3,3,12,2
14:19:26:108170,-4,-10,14,3,10,2,-4,-5
14:19:26:114371,-4,-10,14,3,10,2,-4,-5
14:19:26:121800,13,35,-2,0,-6,-4,-4,-2
14:19:26:129204,1,-10,-9,-14,-8,-3,-6,-1
14:19:26:137421,1,-10,-9,-14,-8,-3,-6,-1
14:19:26:138294,1,13,10,4,-4,-1,-5,-1
14:19:26:152430,-10,8,13,-3,-2,3,-25,-6
14:19:26:153296,-10,8,13,-3,-2,3,-25,-6
14:19:26:159216,-1,5,-3,-5,6,-2,0,-4
14:19:26:166800,1,5,-1,4,-4,-6,1,4
14:19:26:174295,1,5,-1,4,-4,-6,1,4
14:19:26:181818,-9,-13,1,-2,-5,-1,-2,-2
14:19:26:189188,3,9,5,9,-3,-3,3,1
14:19:26:197452,3,9,5,9,-3,-3,3,1
14:19:26:198189,-1,3,-3,-5,0,0,4,-2
14:19:26:212468,2,-23,6,-10,-6,3,8,0
14:19:26:213355,2,-23,6,-10,-6,3,8,0
14:19:26:219187,-13,-10,1,-2,1,-7,-16,-2
14:19:26:226813,4,7,16,14,3,-2,-4,-3
14:19:26:234331,4,7,16,14,3,-2,-4,-3
14:19:26:241817,3,-14,0,8,-1,1,0,-1
14:19:26:249342,4,12,4,9,10,-3,6,0
14:19:26:257430,4,12,4,9,10,-3,6,0
14:19:26:258191,1,-3,-2,11,6,4,0,-1
14:19:26:272429,-4,-13,-10,0,-6,1,21,4
14:19:26:273173,-4,-13,-10,0,-6,1,21,4
14:19:26:279342,6,-1,-22,4,-2,-5,1,-2
14:19:26:286818,0,-3,2,-6,2,-4,-6,-1
14:19:26:294340,0,-3,2,-6,2,-4,-6,-1
14:19:26:301807,-5,-3,21,-2,-5,-4,-2,2
14:19:26:309173,-10,-3,-25,-35,-22,-5,-3,-5
14:19:26:317436,-10,-3,-25,-35,-22,-5,-3,-5
14:19:26:318181,8,16,4,-23,-13,-1,-2,-3
14:19:26:332443,-5,-10,5,7,-5,0,6,2
14:19:26:333165,-5,-10,5,7,-5,0,6,2
14:19:26:339173,-4,-23,-18,-13,-7,1,0,-2
14:19:26:346741,3,-8,-6,9,7,-5,-5,-1
14:19:26:354321,3,-8,-6,9,7,-5,-5,-1
14:19:26:361847,0,11,18,17,-1,6,6,5
14:19:26:369190,2,20,-8,8,1,-6,-4,2
14:19:26:377480,2,20,-8,8,1,-6,-4,2
14:19:26:378364,1,17,15,13,0,2,1,-1
14:19:26:392458,-10,0,13,4,-12,-6,-4,-2
14:19:26:393339,-10,0,13,4,-12,-6,-4,-2
14:19:26:399187,3,22,14,14,9,4,0,-3
14:19:26:406798,2,-6,-12,-10,-2,-6,-1,-3
14:19:26:414343,2,-6,-12,-10,-2,-6,-1,-3
14:19:26:421835,-10,-36,-23,-11,1,-3,-4,-3
14:19:26:429207,8,5,-12,-3,-1,-2,-5,-4
14:19:26:437427,8,5,-12,-3,-1,-2,-5,-4
14:19:26:438296,5,12,-12,6,14,-3,-2,-5
14:19:26:452948,-3,-17,-1,11,15,4,-1,-2
14:19:26:453825,-3,-17,-1,11,15,4,-1,-2
14:19:26:459221,1,2,-3,-1,2,0,-1,-2
14:19:26:474940,0,6,30,4,5,3,0,0
14:19:26:475820,0,6,30,4,5,3,0,0
14:19:26:481815,-4,-16,21,-8,-20,-7,-3,0
14:19:26:498094,8,0,24,-11,7,2,0,1
14:19:26:498964,8,0,24,-11,7,2,0,1
14:19:26:499813,-2,2,3,7,-5,-7,-5,-7
14:19:26:520570,-7,-15,-1,-17,-15,1,1,1
14:19:26:521429,-7,-15,-1,-17,-15,1,1,1
14:19:26:522182,-2,-13,-2,3,0,2,-1,1
14:19:26:526837,-7,-5,-27,-8,0,-5,-1,-2
14:19:26:542453,-7,-5,-27,-8,0,-5,-1,-2
14:19:26:543347,-6,-3,-7,-28,-4,2,2,0
14:19:26:549275,1,-12,1,10,6,3,0,1
14:19:26:557449,1,-12,1,10,6,3,0,1
14:19:26:558322,-3,6,6,6,7,-5,-3,-3
14:19:26:572450,6,-30,4,13,8,9,4,3
14:19:26:573325,6,-30,4,13,8,9,4,3
14:19:26:579235,8,-3,-1,-1,1,3,0,6
14:19:26:586818,2,14,-8,-16,-11,-5,-3,-2
14:19:26:594372,2,14,-8,-16,-11,-5,-3,-2
14:19:26:601806,2,-8,-19,7,14,-1,-2,-1
14:19:26:609199,-4,10,13,12,10,4,-2,-2
14:19:26:617442,-4,10,13,12,10,4,-2,-2
14:19:26:618167,-4,10,-6,-32,-13,-1,-3,-3
14:19:26:632448,-4,1,1,-12,-3,-4,0,-4
14:19:26:633186,-4,1,1,-12,-3,-4,0,-4
14:19:26:639183,6,-4,17,34,4,-8,-2,-1
14:19:26:646865,-2,9,8,8,-3,-1,-1,-5
14:19:26:654320,-2,9,8,8,-3,-1,-1,-5
14:19:26:661840,-5,25,29,14,-7,-4,-1,0
14:19:26:669347,9,-8,-18,1,-1,0,-3,1
14:19:26:677471,9,-8,-18,1,-1,0,-3,1
14:19:26:678195,2,7,-1,14,10,1,-1,-2
14:19:26:692446,-3,-22,-17,5,10,2,-2,0
14:19:26:693197,-3,-22,-17,5,10,2,-2,0
14:19:26:699197,3,-19,-1,-1,-1,6,0,1
14:19:26:706810,-9,1,-27,-10,-6,-10,0,0
14:19:26:714369,-9,1,-27,-10,-6,-10,0,0
14:19:26:721699,-5,-13,10,24,19,7,4,0
14:19:26:729189,0,6,12,6,-5,-4,-2,-2
14:19:26:737449,0,6,12,6,-5,-4,-2,-2
14:19:26:738323,9,-5,-12,-15,12,2,1,4
14:19:26:752440,-10,-29,-41,-23,-6,-3,-2,-1
14:19:26:753178,-10,-29,-41,-23,-6,-3,-2,-1
14:19:26:759207,-22,4,-16,-22,-10,1,-1,-1
14:19:26:766702,6,6,4,-18,-10,-2,0,2
14:19:26:774314,6,6,4,-18,-10,-2,0,2
14:19:26:781865,11,8,-8,5,0,-1,-3,-2
14:19:26:789178,-5,14,22,17,-4,2,-2,-4
14:19:26:797509,-5,14,22,17,-4,2,-2,-4
14:19:26:798334,5,-4,-33,-49,4,6,1,-2
14:19:26:812488,-9,19,15,-3,5,0,-2,-5
14:19:26:813328,-9,19,15,-3,5,0,-2,-5
14:19:26:819205,-2,-23,20,7,-20,-11,-3,-1
14:19:26:826822,10,18,7,8,3,0,-2,-1
14:19:26:834324,10,18,7,8,3,0,-2,-1
14:19:26:841842,-10,-5,13,-26,-23,1,0,1
14:19:26:849180,-4,11,9,15,-1,-4,-1,1
14:19:26:857442,-4,11,9,15,-1,-4,-1,1
14:19:26:858196,-5,-4,-29,-11,-2,4,-1,-1
14:19:26:872450,3,3,-10,34,8,-1,1,0
14:19:26:873308,3,3,-10,34,8,-1,1,0
14:19:26:879242,4,-1,-5,-22,-9,-6,-1,0
14:19:26:886833,-6,-2,3,-12,-4,1,1,0
14:19:26:894330,-6,-2,3,-12,-4,1,1,0
14:19:26:901846,-1,1,-13,16,0,-6,-1,-5
14:19:26:909235,13,19,25,-4,-2,1,-2,-1
14:19:26:917447,13,19,25,-4,-2,1,-2,-1
14:19:26:918188,6,17,6,15,-3,-4,1,0
14:19:26:932471,8,-11,11,12,-2,1,-2,-1
14:19:26:933171,8,-11,11,12,-2,1,-2,-1
14:19:26:939318,-6,-3,-12,-31,-6,-5,-1,-1
14:19:26:946832,-11,-20,-1,10,9,2,-2,-2
14:19:26:954334,-11,-20,-1,10,9,2,-2,-2
14:19:26:961730,1,-4,-10,22,1,-2,-3,-2
14:19:26:969348,7,13,-33,1,4,-3,-1,-1
14:19:26:977507,7,13,-33,1,4,-3,-1,-1
14:19:26:978207,4,20,8,30,9,0,-1,-4
14:19:26:992438,2,1,-32,-16,-6,-2,-2,1
14:19:26:993191,2,1,-32,-16,-6,-2,-2,1
14:19:26:999185,-5,-16,-16,-17,-2,5,2,1
14:19:27:6690,-10,-4,9,-16,-16,0,-2,0
14:19:27:14345,-10,-4,9,-16,-16,0,-2,0
14:19:27:21845,-20,9,-20,37,14,3,-3,-3
14:19:27:29205,0,8,-15,-66,-1,-3,0,-2
14:19:27:37451,0,8,-15,-66,-1,-3,0,-2
14:19:27:38319,2,-8,13,-1,-6,-5,0,0
14:19:27:52942,1,10,24,32,10,-1,-3,-1
14:19:27:53840,1,10,24,32,10,-1,-3,-1
14:19:27:59175,1,-9,25,5,-10,-6,-4,-2
14:19:27:74958,1,-48,-34,-32,-7,5,2,3
14:19:27:75815,1,-48,-34,-32,-7,5,2,3
14:19:27:81696,-5,-6,11,4,0,-1,-2,-1
14:19:27:89190,2,10,24,29,-2,-2,0,0
14:19:27:96819,2,10,24,29,-2,-2,0,0
14:19:27:104199,-11,-17,-19,-44,-14,-4,-2,-4
14:19:27:112457,1,-19,-1,8,-4,-2,1,-1
14:19:27:113319,1,-19,-1,8,-4,-2,1,-1
14:19:27:119212,-3,14,16,-2,-4,3,-2,-4
14:19:27:135339,-12,-7,-3,-7,1,-3,-3,-4
14:19:27:142454,-12,-7,-3,-7,1,-3,-3,-4
14:19:27:143305,7,1,2,-2,1,0,0,-1
14:19:27:149212,3,-13,-14,-11,-4,0,0,-2
14:19:27:156840,3,-13,-14,-11,-4,0,0,-2
14:19:27:164207,-4,12,0,-14,4,3,1,2
14:19:27:172439,-10,29,19,-1,-6,-2,-1,-1
14:19:27:173190,-10,29,19,-1,-6,-2,-1,-1
14:19:27:179206,0,-10,-13,3,4,-2,-1,0
14:19:27:194944,-3,-5,1,10,0,-6,0,-4
14:19:27:195827,-3,-5,1,10,0,-6,0,-4
14:19:27:201833,9,12,-7,-12,-7,0,-2,0
14:19:27:209226,-2,3,5,6,14,-1,-3,-1
14:19:27:216826,-2,3,5,6,14,-1,-3,-1
14:19:27:224185,-2,-14,-7,-11,0,-1,1,2
14:19:27:232467,4,27,37,38,6,5,2,-1
14:19:27:233203,4,27,37,38,6,5,2,-1
14:19:27:239313,0,-6,10,-4,3,1,-3,3
14:19:27:254938,-13,-10,-4,-5,-4,-2,-2,-2
14:19:27:255819,-13,-10,-4,-5,-4,-2,-2,-2
14:19:27:261876,-1,6,18,16,-5,-2,-2,-2
14:19:27:269205,4,1,0,2,1,0,0,0
14:19:27:276850,4,1,0,2,1,0,0,0
14:19:27:284189,4,1,10,0,-2,-5,-3,-2
14:19:27:292488,1,-24,-12,-7,-9,-8,-4,0
14:19:27:293228,1,-24,-12,-7,-9,-8,-4,0
14:19:27:299226,1,-17,-14,9,17,3,1,-1
14:19:27:314972,0,17,-2,3,-5,-6,-5,-6
14:19:27:315835,0,17,-2,3,-5,-6,-5,-6
14:19:27:321723,-7,-19,-25,-5,0,-3,0,-1
14:19:27:329396,-8,-7,10,-6,-5,1,1,0
14:19:27:336843,-8,-7,10,-6,-5,1,1,0
14:19:27:344207,1,12,18,-3,1,0,2,0
14:19:27:352446,0,6,-9,9,-8,-1,-2,-2
14:19:27:353322,0,6,-9,9,-8,-1,-2,-2
14:19:27:359238,-6,-29,1,11,-18,-6,-2,-1
14:19:27:374941,7,-2,-25,-39,1,3,1,0
14:19:27:375809,7,-2,-25,-39,1,3,1,0
14:19:27:381731,-2,8,1,2,-6,-3,-1,-1
14:19:27:389191,-7,-21,-18,17,-3,0,0,-2
14:19:27:396878,-7,-21,-18,17,-3,0,0,-2
14:19:27:404196,5,10,-9,-8,0,3,2,2
14:19:27:412472,1,13,-15,-34,-6,-5,-3,-2
14:19:27:413333,1,13,-15,-34,-6,-5,-3,-2
14:19:27:419207,-1,2,-13,-33,9,-3,-1,-3
14:19:27:434958,7,-6,-11,-1,1,2,0,2
14:19:27:435837,7,-6,-11,-1,1,2,0,2
14:19:27:441826,2,8,1,19,-7,0,-1,-1
14:19:27:449226,-8,-1,4,-21,0,-2,-4,-3
14:19:27:456842,-8,-1,4,-21,0,-2,-4,-3
14:19:27:464248,0,2,8,12,-10,-2,-1,1
14:19:27:472446,5,-9,-5,-2,-8,-8,-2,0
14:19:27:473196,5,-9,-5,-2,-8,-8,-2,0
14:19:27:479196,3,-6,30,-3,5,4,-1,0
14:19:27:494996,-1,2,5,-7,0,1,-2,0
14:19:27:495855,-1,2,5,-7,0,1,-2,0
14:19:27:501825,-3,10,-6,8,-6,-5,-3,0
14:19:27:509190,-6,-3,6,12,-4,1,3,-1
14:19:27:516853,-6,-3,6,12,-4,1,3,-1
14:19:27:524206,1,-8,-1,-9,-3,0,0,-2
14:19:27:532430,0,21,20,12,2,0,0,2
14:19:27:533189,0,21,20,12,2,0,0,2
14:19:27:539197,-3,-7,-8,-20,-5,0,0,-3
14:19:27:554957,1,0,14,5,-4,-2,-2,-3
14:19:27:555828,1,0,14,5,-4,-2,-2,-3
14:19:27:561827,-2,-2,1,26,10,-1,0,0
14:19:27:569198,4,4,8,13,10,2,3,1
14:19:27:576830,4,4,8,13,10,2,3,1
14:19:27:584206,-6,2,-6,-28,-4,-3,-2,-2
14:19:27:592446,6,14,-14,-3,4,1,-1,-1
14:19:27:593195,6,14,-14,-3,4,1,-1,-1
14:19:27:599211,-4,-5,-9,-8,-10,-7,-4,-2
14:19:27:614965,-6,-22,-13,17,7,7,-1,0
14:19:27:615810,-6,-22,-13,17,7,7,-1,0
14:19:27:621704,-1,0,-14,30,5,3,0,-3
14:19:27:629200,1,-1,-11,7,10,-4,0,-2
14:19:27:636822,1,-1,-11,7,10,-4,0,-2
14:19:27:644197,-2,-11,-6,2,3,-3,-1,-1
14:19:27:652436,-1,-5,0,-2,-9,-4,-2,-2
14:19:27:653308,-1,-5,0,-2,-9,-4,-2,-2
14:19:27:659192,0,12,-1,6,0,-2,-1,0
14:19:27:683091,3,20,-20,-8,-1,1,0,2
14:19:27:683952,3,20,-20,-8,-1,1,0,2
14:19:27:684690,-6,5,11,-23,-4,-2,1,1
14:19:27:689176,-15,-14,23,26,-4,6,0,-3
14:19:27:696835,-15,-14,23,26,-4,6,0,-3
14:19:27:704203,5,10,8,7,27,2,-3,-3
14:19:27:712465,1,0,2,-34,-9,-7,0,2
14:19:27:713192,1,0,2,-34,-9,-7,0,2
14:19:27:719186,2,-4,-7,10,2,1,1,1
14:19:27:734960,7,-15,0,-4,-3,0,-1,1
14:19:27:735854,7,-15,0,-4,-3,0,-1,1
14:19:27:741748,6,4,5,-19,-6,-2,-2,-3
14:19:27:749234,-8,-1,-31,-39,-4,-2,-1,-3
14:19:27:756821,-8,-1,-31,-39,-4,-2,-1,-3
14:19:27:764221,-6,-20,6,23,7,1,0,-2
14:19:27:772446,1,-12,7,-3,2,-2,-3,-5
14:19:27:773336,1,-12,7,-3,2,-2,-3,-5
14:19:27:779223,-9,7,-9,-1,-7,0,4,1
14:19:27:794975,7,-18,-24,-11,3,4,0,-1
14:19:27:795883,7,-18,-24,-11,3,4,0,-1
14:19:27:801833,2,0,-3,5,0,-1,-3,-1
14:19:27:809209,4,15,19,38,-2,-5,-3,0
14:19:27:816864,4,15,19,38,-2,-5,-3,0
14:19:27:824195,0,1,13,-24,-12,-5,-2,0
14:19:27:832450,-4,5,4,9,5,-3,-2,-2
14:19:27:833311,-4,5,4,9,5,-3,-2,-2
14:19:27:839188,6,3,-18,-15,1,1,-1,2
14:19:27:854958,5,7,24,17,-4,-4,-2,-2
14:19:27:855818,5,7,24,17,-4,-4,-2,-2
14:19:27:861832,-2,-10,-1,-20,-3,-1,1,-1
14:19:27:869282,-5,4,-15,9,6,-3,-1,-1
14:19:27:876824,-5,4,-15,9,6,-3,-1,-1
14:19:27:884214,-3,-19,5,15,-4,1,1,1
14:19:27:892492,-3,-2,18,13,-9,-5,-3,1
14:19:27:893228,-3,-2,18,13,-9,-5,-3,1
14:19:27:899220,-7,-7,-34,-17,0,0,-3,-3
14:19:27:914972,0,-2,-10,0,0,0,1,-1
14:19:27:915861,0,-2,-10,0,0,0,1,-1
14:19:27:921821,-4,8,5,10,-1,0,-2,-2
14:19:27:929193,-5,-13,-27,-19,-9,-5,-2,-3
14:19:27:936830,-5,-13,-27,-19,-9,-5,-2,-3
14:19:27:944359,1,11,0,12,-12,0,-1,-3
14:19:27:952445,1,11,0,12,-12,0,-1,-3
14:19:27:953209,-4,5,6,-16,8,3,0,1
14:19:27:959195,2,14,-19,-8,-5,-6,-4,-1
14:19:27:974965,2,14,-19,-8,-5,-6,-4,-1
14:19:27:975840,-7,-2,-6,15,-7,0,-4,-5
14:19:27:981707,3,7,24,5,2,-3,-2,2
14:19:27:997480,3,7,24,5,2,-3,-2,2
14:19:27:998201,-5,-8,2,2,1,1,1,0
14:19:28:4201,5,3,9,-1,-8,5,2,2
14:19:28:19962,5,3,9,-1,-8,5,2,2
14:19:28:20701,5,-5,13,0,-4,0,0,4
14:19:28:26828,6,-8,2,2,0,-2,-2,-5
14:19:28:36104,6,-8,2,2,0,-2,-2,-5
14:19:28:42348,0,5,9,-9,-11,-5,-2,-1
14:19:28:43215,-1,-4,-16,4,9,2,-2,-2
14:19:28:57443,-1,-4,-16,4,9,2,-2,-2
14:19:28:58190,-2,0,-1,8,-2,-5,-1,-2
14:19:28:64239,-1,-5,11,-3,-2,-6,-1,-1
14:19:28:72469,-1,-5,11,-3,-2,-6,-1,-1
14:19:28:73202,3,-7,-3,-15,-4,0,1,2
14:19:28:86831,-3,7,8,7,-4,-1,-3,-2
14:19:28:95014,-3,7,8,7,-4,-1,-3,-2
14:19:28:95732,-9,1,15,15,22,1,0,-1
14:19:28:101858,4,10,11,13,9,-5,1,-2
14:19:28:117479,4,10,11,13,9,-5,1,-2
14:19:28:118348,-2,1,-17,-53,-10,-4,-3,-4
14:19:28:124210,-2,-17,-21,-7,-6,-2,-3,-2
14:19:28:132492,-2,-17,-21,-7,-6,-2,-3,-2
14:19:28:133188,-9,-36,-34,-12,-10,-3,-1,-2
14:19:28:146875,-5,-2,-6,6,-5,-2,-4,-2
14:19:28:154960,-5,-2,-6,6,-5,-2,-4,-2
14:19:28:155826,6,-3,-4,0,-1,3,-1,-3
14:19:28:161865,-5,1,12,22,5,0,-1,0
14:19:28:177485,-5,1,12,22,5,0,-1,0
14:19:28:178388,6,17,31,17,12,1,0,1
14:19:28:184200,-1,-2,-5,-17,-9,-1,-1,-3
14:19:28:192441,-1,-2,-5,-17,-9,-1,-1,-3
14:19:28:193323,3,2,6,11,3,1,2,1
14:19:28:206836,0,-5,-13,0,10,3,1,-1
14:19:28:214975,0,-5,-13,0,10,3,1,-1
14:19:28:215833,-7,3,-9,2,-11,-5,-3,1
14:19:28:221850,-7,14,27,17,7,2,-3,-3
14:19:28:237460,-7,14,27,17,7,2,-3,-3
14:19:28:238321,0,6,13,-2,1,1,1,1
14:19:28:244248,-5,-21,-17,-7,-5,-1,0,1
14:19:28:252460,-5,-21,-17,-7,-5,-1,0,1
14:19:28:253326,7,12,7,-10,-1,4,1,1
14:19:28:266731,1,-1,-4,-21,-8,-7,-4,-1
14:19:28:274952,1,-1,-4,-21,-8,-7,-4,-1
14:19:28:275818,-6,-10,-16,9,13,-3,4,-1
14:19:28:281894,-4,-4,-3,17,15,3,0,-2
14:19:28:297468,-4,-4,-3,17,15,3,0,-2
14:19:28:298218,-1,-14,-23,-6,8,1,-1,0
14:19:28:304193,7,2,1,-5,-11,-3,1,0
14:19:28:312463,7,2,1,-5,-11,-3,1,0
14:19:28:313397,-5,7,12,7,-5,-2,-4,-3
14:19:28:326737,-6,5,7,5,1,-1,1,0
14:19:28:334987,-6,5,7,5,1,-1,1,0
14:19:28:335838,-5,3,6,-4,-7,-4,-10,-4
14:19:28:341696,5,1,2,14,11,0,0,-1
14:19:28:357459,5,1,2,14,11,0,0,-1
14:19:28:358194,2,6,2,-2,-5,-3,-4,-2
14:19:28:364243,-2,-12,5,-14,-11,-3,1,0
14:19:28:380014,-2,-12,5,-14,-11,-3,1,0
14:19:28:380884,0,-12,-14,-2,-16,0,-2,-1
14:19:28:386722,2,0,1,28,12,2,4,2
14:19:28:403075,2,0,1,28,12,2,4,2
14:19:28:403945,-2,7,17,10,-2,-2,-2,-1
14:19:28:404686,2,-4,-15,0,-19,-5,-3,-2
14:19:28:425615,2,-4,-15,0,-19,-5,-3,-2
14:19:28:426479,0,8,7,19,5,-1,-2,2
14:19:28:427220,-9,-2,-3,-25,-11,-12,-7,-5
14:19:28:432461,-9,-2,-3,-25,-11,-12,-7,-5
14:19:28:433332,9,-5,-4,8,3,-3,-7,-3
14:19:28:446748,-1,-6,6,-5,-4,4,-5,1
14:19:28:454946,-1,-6,6,-5,-4,4,-5,1
14:19:28:455832,-4,-4,17,-2,-6,-4,3,-2
14:19:28:461933,-5,-3,8,4,9,1,-1,-2
14:19:28:477504,-5,-3,8,4,9,1,-1,-2
14:19:28:478237,-6,0,-13,-14,17,7,1,-1
14:19:28:484224,-1,10,6,3,-1,1,1,0
14:19:28:492451,-1,10,6,3,-1,1,1,0
14:19:28:493320,-2,4,-19,-18,-13,-4,7,-4
14:19:28:506712,0,5,7,-7,-5,-5,-1,-2
14:19:28:514968,0,5,7,-7,-5,-5,-1,-2
14:19:28:515833,11,6,5,-14,-4,-2,-7,2
14:19:28:521835,5,3,-2,-9,-8,0,-6,-3
14:19:28:537471,5,3,-2,-9,-8,0,-6,-3
14:19:28:538209,-5,-19,-3,-6,-8,-2,-3,-5
14:19:28:544226,0,-15,-18,-31,-6,-10,0,1
14:19:28:552238,0,-15,-18,-31,-6,-10,0,1
14:19:28:559249,-6,-14,-7,0,0,-1,8,1
14:19:28:566834,-3,-7,-6,9,12,3,5,2
14:19:28:574973,-3,-7,-6,9,12,3,5,2
14:19:28:575865,-6,-6,-6,11,-1,-4,-7,-4
14:19:28:581825,4,4,-18,-36,-7,-3,-4,2
14:19:28:598121,4,4,-18,-36,-7,-3,-4,2
14:19:28:598998,-1,2,-15,-1,-8,-2,6,2
14:19:28:604208,-8,-1,17,24,5,7,1,-1
14:19:28:612257,-8,-1,17,24,5,7,1,-1
14:19:28:627335,0,19,9,-1,4,5,9,-1
14:19:28:628219,2,1,1,8,-4,-7,3,-1
14:19:28:634957,2,1,1,8,-4,-7,3,-1
14:19:28:635832,4,-3,-4,-20,5,5,-9,-1
14:19:28:649205,1,-2,2,5,2,6,7,-1
14:19:28:657469,1,-2,2,5,2,6,7,-1
14:19:28:658203,-4,4,12,1,-2,-2,-8,-4
14:19:28:673082,-9,-19,2,-11,-14,-6,-8,-5
14:19:28:673977,-9,-19,2,-11,-14,-6,-8,-5
14:19:28:674718,-1,-9,2,-3,-3,-2,-3,1
14:19:28:686851,3,10,1,7,0,7,0,-1
14:19:28:695023,3,10,1,7,0,7,0,-1
14:19:28:695894,5,-12,1,-1,-12,-4,-4,-1
14:19:28:701748,2,-1,4,10,-3,-5,-1,-1
14:19:28:717479,2,-1,4,10,-3,-5,-1,-1
14:19:28:718219,0,7,-2,7,8,-2,-7,-1
14:19:28:724217,4,3,-3,-13,-1,4,5,-1
14:19:28:732467,4,3,-3,-13,-1,4,5,-1
14:19:28:733210,-7,-3,-6,-7,3,1,4,0
14:19:28:746899,-13,-2,-21,-13,0,5,-7,-1
14:19:28:754972,-13,-2,-21,-13,0,5,-7,-1
14:19:28:755832,6,-8,-3,-2,5,-1,-2,-1
14:19:28:761752,-1,-13,17,6,5,-4,-10,-3
14:19:28:777507,-1,-13,17,6,5,-4,-10,-3
14:19:28:778260,-6,3,8,-15,-10,-5,-6,-3
14:19:28:784226,6,21,6,-8,-3,-2,-3,-1
14:19:28:792473,6,21,6,-8,-3,-2,-3,-1
14:19:28:793236,-1,-14,1,20,6,-1,10,4
14:19:28:806831,-2,6,-33,-3,-5,-13,-1,-1
14:19:28:815010,-2,6,-33,-3,-5,-13,-1,-1
14:19:28:815848,-3,14,-5,3,3,-3,-3,-3
14:19:28:821826,-12,-4,-2,28,5,6,10,4
14:19:28:837475,-12,-4,-2,28,5,6,10,4
14:19:28:838220,11,16,7,6,-13,-2,0,1
14:19:28:844238,1,1,-7,2,3,-2,-7,-5
14:19:28:852459,1,1,-7,2,3,-2,-7,-5
14:19:28:853193,-10,-9,9,-4,-3,2,0,-2
14:19:28:866864,2,-5,-2,-16,-3,-3,-5,0
14:19:28:883100,2,-5,-2,-16,-3,-3,-5,0
14:19:28:883959,-6,-3,17,-2,0,-3,-12,-9
14:19:28:884836,2,4,11,7,-6,-4,-3,0
14:19:28:897506,2,4,11,7,-6,-4,-3,0
14:19:28:898204,1,-9,-10,1,7,0,-8,1
14:19:28:904196,5,4,3,-1,7,3,3,2
14:19:28:912462,5,4,3,-1,7,3,3,2
14:19:28:913194,0,0,-6,2,2,1,4,2
14:19:28:926712,5,2,11,8,1,-5,5,-1
14:19:28:934975,5,2,11,8,1,-5,5,-1
14:19:28:935844,5,-9,-17,-9,-1,5,18,3
14:19:28:949230,-4,-13,-4,-5,5,-1,-3,-4
14:19:28:957479,-4,-13,-4,-5,5,-1,-3,-4
14:19:28:958242,2,6,2,-5,-8,-3,2,-3
14:19:28:972464,-5,-20,-14,3,7,1,2,0
14:19:28:973188,-5,-20,-14,3,7,1,2,0
14:19:28:979248,2,9,-8,-5,-4,0,0,0
14:19:28:995617,-2,2,12,-11,-3,8,16,1
14:19:28:996383,-2,2,12,-11,-3,8,16,1
14:19:28:997236,-3,-2,4,9,0,-5,-3,2
14:19:29:18114,-5,-1,-8,-6,-5,2,17,8
14:19:29:18977,-5,-1,-8,-6,-5,2,17,8
14:19:29:19726,-2,3,20,9,-4,-1,1,-4
14:19:29:24224,2,1,-3,1,0,-2,-8,-5
14:19:29:39961,2,1,-3,1,0,-2,-8,-5
14:19:29:40851,-4,-13,-11,-11,-9,-6,-9,-2
14:19:29:46758,-4,3,2,-1,-8,-4,-10,-4
14:19:29:54977,-4,3,2,-1,-8,-4,-10,-4
14:19:29:55825,-4,-18,-13,-2,-3,-2,-10,-5
14:19:29:69224,3,-8,-14,-2,-5,-3,-4,1
14:19:29:77515,3,-8,-14,-2,-5,-3,-4,1
14:19:29:78272,8,9,1,-5,-3,-1,-1,1
14:19:29:84204,1,8,22,0,-2,-2,-4,-5
14:19:29:91858,1,8,22,0,-2,-2,-4,-5
14:19:29:99212,-3,0,-19,-15,-1,1,-10,-6
14:19:29:106735,-1,9,7,-4,-3,-2,11,-3
14:19:29:114996,-1,9,7,-4,-3,-2,11,-3
14:19:29:115834,6,6,-3,-13,0,8,39,9
14:19:29:129271,12,-5,-4,-3,-3,-5,-21,-1
14:19:29:137484,12,-5,-4,-3,-3,-5,-21,-1
14:19:29:138209,-2,9,8,12,3,-8,-21,-4
14:19:29:144205,0,2,-3,-3,0,-2,-35,-7
14:19:29:151851,0,2,-3,-3,0,-2,-35,-7
14:19:29:159220,3,2,-5,-1,-1,0,-1,-1
14:19:29:166840,-2,-6,-9,1,1,8,-5,1
14:19:29:175007,-2,-6,-9,1,1,8,-5,1
14:19:29:175746,-9,-4,2,0,-4,-3,4,1
14:19:29:189199,3,2,-15,-24,-8,-3,11,5
14:19:29:197485,3,2,-15,-24,-8,-3,11,5
14:19:29:198544,2,-5,20,6,10,5,3,1
14:19:29:204205,-7,16,16,3,-5,-8,11,4
14:19:29:211843,-7,16,16,3,-5,-8,11,4
