Time,EMG1,EMG2,EMG3,EMG4,EMG5,EMG6,EMG7,EMG8
17:58:00:828021,2,0,1,0,-3,0,-2,-1
17:58:00:828742,-1,0,-1,-1,-2,0,0,2
17:58:00:842991,0,1,-2,-3,1,-3,1,0
17:58:00:843853,0,1,-2,-3,1,-3,1,0
17:58:00:849735,-1,0,-1,0,-1,0,-2,-1
17:58:00:857217,-1,1,-1,-1,-2,-1,-3,-1
17:58:00:872980,-1,1,-1,-1,-2,-1,-3,-1
17:58:00:873795,1,1,-4,0,0,1,1,-1
17:58:00:879708,-2,-1,-2,-2,0,0,0,-1
17:58:00:887950,-2,-1,-2,-2,0,0,0,-1
17:58:00:888777,1,-1,0,-1,0,-1,1,-1
17:58:00:894737,0,-2,-3,0,0,-2,1,-1
17:58:00:902314,0,-2,-3,0,0,-2,1,-1
17:58:00:909784,-2,-1,-2,0,0,0,0,-1
17:58:00:917211,0,2,-2,-1,-3,-3,-2,-1
17:58:00:925496,0,2,-2,-1,-3,-3,-2,-1
17:58:00:926283,-2,1,-2,-3,-2,-2,0,-3
17:58:00:939748,-2,-1,1,-1,-1,-3,-3,0
17:58:00:947964,-2,-1,1,-1,-1,-3,-3,0
17:58:00:948781,-1,-4,1,-1,-1,-1,-2,-1
17:58:00:954774,-1,0,-2,-2,2,2,0,-1
17:58:00:962320,-1,0,-2,-2,2,2,0,-1
17:58:00:969794,-1,-2,1,-2,1,-1,-6,-2
17:58:00:977248,0,-2,1,-2,-3,-1,-3,1
17:58:00:985433,0,-2,1,-2,-3,-1,-3,1
17:58:00:986262,3,-2,-1,-2,-2,0,-1,-1
17:58:01:8595,-1,-4,-2,-1,1,-2,-1,-3
17:58:01:9410,-1,-4,-2,-1,1,-2,-1,-3
17:58:01:10206,-2,-1,0,-2,-33,0,0,-1
17:58:01:14735,1,-2,-3,0,-30,-1,-2,-3
17:58:01:22304,1,-2,-3,0,-30,-1,-2,-3
17:58:01:29752,0,-1,-3,0,13,-1,-1,-2
17:58:01:37264,-2,-2,-1,-1,19,-2,-2,0
17:58:01:52960,-2,-2,-1,-1,19,-2,-2,0
17:58:01:53774,1,-1,0,-3,17,-1,-3,-2
17:58:01:59731,-2,-2,-1,-1,10,1,-2,-2
17:58:01:67969,-2,-2,-1,-1,10,1,-2,-2
17:58:01:68826,-3,2,-3,1,2,-2,-2,-1
17:58:01:74762,0,0,-2,-1,3,-3,-2,-2
17:58:01:82304,0,0,-2,-1,3,-3,-2,-2
17:58:01:89763,-1,0,1,-3,2,-3,-1,0
17:58:01:97259,0,-1,-1,0,-3,2,-1,-1
17:58:01:105431,0,-1,-1,0,-3,2,-1,-1
17:58:01:106236,0,2,-1,-1,0,1,-3,-1
17:58:01:119758,-1,-4,0,0,-1,-2,1,2
17:58:01:127927,-1,-4,0,0,-1,-2,1,2
17:58:01:128747,-1,-1,-2,-1,-4,2,1,1
17:58:01:134753,-2,2,-1,1,-2,-2,0,-4
17:58:01:142267,-2,2,-1,1,-2,-2,0,-4
17:58:01:149781,-3,-1,1,-2,-2,-3,0,1
17:58:01:157269,-1,-2,0,-1,-1,-3,0,-1
17:58:01:165448,-1,-2,0,-1,-1,-3,0,-1
17:58:01:166250,-3,0,-3,-2,-2,-1,-1,-4
17:58:01:180401,0,2,2,-1,-1,-1,-2,-2
17:58:01:181244,0,2,2,-1,-1,-1,-2,-2
17:58:01:187277,0,0,0,-1,0,0,-2,-1
17:58:01:194766,1,1,-2,-2,-3,-1,-1,0
17:58:01:202282,1,1,-2,-2,-3,-1,-1,0
17:58:01:209820,2,-4,1,-2,-2,-1,0,-1
17:58:01:217227,-2,-3,0,-2,1,-1,1,2
17:58:01:225468,-2,-3,0,-2,1,-1,1,2
17:58:01:226232,-2,0,-1,1,-2,-2,-2,1
17:58:01:240455,-1,-1,-2,-1,-1,-2,-1,1
17:58:01:241245,-1,-1,-2,-1,-1,-2,-1,1
17:58:01:247217,-1,0,-1,2,-2,0,-1,-3
17:58:01:254724,0,2,-2,-4,-2,1,3,-2
17:58:01:262310,0,2,-2,-4,-2,1,3,-2
17:58:01:269734,-1,-2,0,0,1,-2,1,-2
17:58:01:286095,-1,1,-1,0,-5,-3,1,-4
17:58:01:286906,-1,1,-1,0,-5,-3,1,-4
17:58:01:287709,-1,-3,-1,-4,-4,1,-2,0
17:58:01:300447,0,0,-2,-2,0,0,0,0
17:58:01:301234,0,0,-2,-2,0,0,0,0
17:58:01:307204,-1,0,-4,-3,-1,-4,0,0
17:58:01:314690,-3,-1,0,0,-2,1,-2,1
17:58:01:322280,-3,-1,0,0,-2,1,-2,1
17:58:01:329712,-3,-1,-1,1,-2,2,-1,-1
17:58:01:337235,-2,-3,-3,-1,1,-2,-4,-1
17:58:01:345465,-2,-3,-3,-1,1,-2,-4,-1
17:58:01:346264,-1,-3,0,-1,0,-1,-1,0
17:58:01:360674,-1,-1,-4,-1,0,0,-4,-2
17:58:01:361260,-1,-1,-4,-1,0,0,-4,-2
17:58:01:367216,1,-3,0,-1,-3,-2,-1,-1
17:58:01:374738,-1,1,-1,0,-3,-2,1,-1
17:58:01:382310,-1,1,-1,0,-3,-2,1,-1
17:58:01:397897,-2,-2,-2,-1,-1,-2,-1,-2
17:58:01:398672,-2,1,1,-2,0,1,-3,-1
17:58:01:405452,-2,1,1,-2,0,1,-3,-1
17:58:01:406260,-2,-1,-2,0,-1,-1,-2,-1
17:58:01:420444,0,2,-4,-2,-3,-1,-1,1
17:58:01:421259,0,2,-4,-2,-3,-1,-1,1
17:58:01:427198,0,2,1,0,2,0,-3,0
17:58:01:434725,1,-5,1,-1,0,0,-1,0
17:58:01:442314,1,-5,1,-1,0,0,-1,0
17:58:01:449732,0,-1,-1,-1,1,-3,-2,-3
17:58:01:457248,-2,-2,-2,-1,3,-3,2,0
17:58:01:465561,-2,-2,-2,-1,3,-3,2,0
17:58:01:466271,-3,-1,-4,-1,-1,0,0,-1
17:58:01:480422,0,2,-3,-2,9,-1,0,0
17:58:01:481260,0,2,-3,-2,9,-1,0,0
17:58:01:487219,-1,1,0,-2,13,-1,-1,1
17:58:01:494717,-1,-1,1,-1,-2,0,-2,0
17:58:01:502319,-1,-1,1,-1,-2,0,-2,0
17:58:01:517906,0,-3,0,-2,-7,0,3,-1
17:58:01:518675,-2,-3,-1,-2,-11,2,-2,-2
17:58:01:525487,-2,-3,-1,-2,-11,2,-2,-2
17:58:01:526233,1,0,0,1,-6,-2,-3,-2
17:58:01:547653,0,-1,0,-1,0,0,0,0
17:58:01:556154,0,-1,0,-1,0,0,0,0
17:58:01:556894,-3,1,-2,-3,-1,1,-1,1
17:58:01:557689,0,-2,-1,-2,4,-2,-1,2
17:58:01:562255,0,-2,-1,-2,4,-2,-1,2
17:58:01:569833,-1,0,-1,0,-5,0,-1,-1
17:58:01:577300,-1,1,-2,-2,-2,0,0,-1
17:58:01:585490,-1,1,-2,-2,-2,0,0,-1
17:58:01:586239,1,1,-2,0,-6,-2,-1,-1
17:58:01:600460,-4,-1,0,2,-1,-2,-2,-3
17:58:01:601222,-4,-1,0,2,-1,-2,-2,-3
17:58:01:607224,-3,2,0,-2,2,0,1,-2
17:58:01:614748,1,0,0,-3,1,-1,-3,1
17:58:01:622291,1,0,0,-3,1,-1,-3,1
17:58:01:629831,-1,-3,-2,-2,0,0,2,1
17:58:01:646084,-1,-1,-2,0,-1,2,-1,-3
17:58:01:646894,-1,-1,-2,0,-1,2,-1,-3
17:58:01:647702,0,-2,0,-3,-3,-3,-1,0
17:58:01:660408,0,-2,-1,-3,-3,-2,-1,-3
17:58:01:661243,0,-2,-1,-3,-3,-2,-1,-3
17:58:01:667224,0,1,-1,-1,0,-1,0,-1
17:58:01:682930,-2,-2,-1,0,-4,-4,-1,-2
17:58:01:683707,-2,-2,-1,0,-4,-4,-1,-2
17:58:01:689746,-3,0,-1,-2,-4,-1,-1,-2
17:58:01:697262,-1,-1,0,-3,-2,-3,-1,1
17:58:01:705450,-1,-1,0,-3,-2,-3,-1,1
17:58:01:706217,0,-1,-2,-1,-2,-1,0,-2
17:58:01:719780,-2,0,1,-2,-1,0,2,-2
17:58:01:727951,-2,0,1,-2,-1,0,2,-2
17:58:01:728752,-1,-1,-2,0,0,0,-2,-1
17:58:01:734759,1,-2,-1,1,-2,-4,-1,1
17:58:01:742325,1,-2,-1,1,-2,-4,-1,1
17:58:01:749698,0,-2,-4,1,-1,0,-1,-3
17:58:01:766091,-1,-2,-2,-1,-2,-1,0,-1
17:58:01:766902,-1,-2,-2,-1,-2,-1,0,-1
17:58:01:767703,-1,-1,-1,-2,1,-1,-2,-1
17:58:01:779756,-3,0,-3,2,0,1,-1,-2
17:58:01:787979,-3,0,-3,2,0,1,-1,-2
17:58:01:788746,-1,-5,0,-5,1,-3,-1,3
17:58:01:802955,-2,-2,0,4,3,-3,2,-1
17:58:01:803767,-2,-2,0,4,3,-3,2,-1
17:58:01:809733,0,0,-1,5,-5,1,-4,-1
17:58:01:817229,-2,-1,-3,-4,-11,1,1,-1
17:58:01:824808,-2,-1,-3,-4,-11,1,1,-1
17:58:01:832261,-1,0,-2,-2,2,-4,-2,-2
17:58:01:839761,2,-1,2,0,9,1,-3,-2
17:58:01:847946,2,-1,2,0,9,1,-3,-2
17:58:01:848719,-2,2,-1,-3,4,-3,-1,-3
17:58:01:862963,0,-2,0,-5,2,2,-1,-1
17:58:01:863704,0,-2,0,-5,2,2,-1,-1
17:58:01:869782,-1,0,2,1,1,-1,0,0
17:58:01:877271,1,-1,2,1,0,-2,-3,-2
17:58:01:884773,1,-1,2,1,0,-2,-3,-2
17:58:01:892265,-1,1,-1,-7,-1,-2,0,-1
17:58:01:899766,-1,-2,-4,-4,1,-3,-1,0
17:58:01:907946,-1,-2,-4,-4,1,-3,-1,0
17:58:01:908745,-1,1,2,3,-2,0,0,0
17:58:01:922925,-2,1,-3,-6,-4,-1,-5,-1
17:58:01:923760,-2,1,-3,-6,-4,-1,-5,-1
17:58:01:929693,-1,-2,-2,-4,-5,-1,-1,3
17:58:01:937258,-1,2,-1,2,-3,-2,0,-1
17:58:01:952949,-1,2,-1,2,-3,-2,0,-1
17:58:01:953761,-1,-1,-2,-4,-2,-2,0,-4
17:58:01:959746,0,0,0,0,-1,-2,0,-2
17:58:01:967939,0,0,0,0,-1,-2,0,-2
17:58:01:968718,-1,-2,-3,-1,-5,-2,0,-1
17:58:01:982911,0,-1,-5,-3,-3,3,-1,-1
17:58:01:983731,0,-1,-5,-3,-3,3,-1,-1
17:58:01:989759,-2,-1,1,-1,0,-3,-1,-2
17:58:01:997259,-2,-2,-2,-1,-1,0,-1,2
17:58:02:4759,-2,-2,-2,-1,-1,0,-1,2
17:58:02:12271,-2,-1,-1,1,0,0,-3,0
17:58:02:19762,-1,-1,-1,-3,-2,0,0,-2
17:58:02:28191,-1,-1,-1,-3,-2,0,0,-2
17:58:02:28748,-1,-1,0,0,0,0,-2,0
17:58:02:42954,-1,-1,0,-4,-1,-1,-2,-2
17:58:02:43733,-1,-1,0,-4,-1,-1,-2,-2
17:58:02:49755,-1,-1,-1,0,-3,-1,-2,-2
17:58:02:57275,-1,3,1,3,-3,-5,-1,-1
17:58:02:64794,-1,3,1,3,-3,-5,-1,-1
17:58:02:72207,0,-2,-5,-3,-2,0,-1,-2
17:58:02:79700,-2,-1,0,-4,0,-1,-2,-1
17:58:02:87980,-2,-1,0,-4,0,-1,-2,-1
17:58:02:88798,-1,-6,-1,-1,0,-1,-2,-1
17:58:02:102995,0,-1,-1,3,2,0,2,-1
17:58:02:103741,0,-1,-1,3,2,0,2,-1
17:58:02:109722,-3,-1,0,-1,-2,-3,0,1
17:58:02:117225,1,-1,-1,-6,-2,-3,-1,-2
17:58:02:124780,1,-1,-1,-6,-2,-3,-1,-2
17:58:02:132257,-1,-1,-2,1,1,-1,1,0
17:58:02:139733,-3,2,-3,1,0,0,-2,-2
17:58:02:147982,-3,2,-3,1,0,0,-2,-2
17:58:02:148789,0,1,-2,-2,-1,0,0,-2
17:58:02:162944,-1,-3,-1,-1,0,1,1,-2
17:58:02:163733,-1,-3,-1,-1,0,1,1,-2
17:58:02:169726,0,0,-2,0,1,-2,-1,-2
17:58:02:177247,0,-2,1,6,-1,-2,-2,0
17:58:02:184804,0,-2,1,6,-1,-2,-2,0
17:58:02:192234,0,-2,0,3,-3,1,1,-3
17:58:02:199735,-5,-2,-1,-6,-4,-1,0,0
17:58:02:207914,-5,-2,-1,-6,-4,-1,0,0
17:58:02:208701,-2,2,-2,0,1,0,-4,-4
17:58:02:222665,-1,0,-1,-2,-1,0,0,-2
17:58:02:230451,-1,0,-1,-2,-1,0,0,-2
17:58:02:231270,-1,2,0,-3,-1,-1,2,1
17:58:02:237248,1,-1,-3,0,0,0,-2,-2
17:58:02:244750,1,-1,-3,0,0,0,-2,-2
17:58:02:252269,-2,-1,-1,-5,-3,-1,1,1
17:58:02:259811,1,-1,2,0,0,-1,1,2
17:58:02:267947,1,-1,2,0,0,-1,1,2
17:58:02:268720,0,-3,-2,-3,-2,1,-2,-1
17:58:02:282925,-2,1,-1,-2,-3,0,-1,-2
17:58:02:283744,-2,1,-1,-2,-3,0,-1,-2
17:58:02:289773,-1,-2,5,1,3,1,1,0
17:58:02:297275,2,3,2,3,-3,-2,-2,1
17:58:02:304782,2,3,2,3,-3,-2,-2,1
17:58:02:312228,0,6,-3,-1,-4,-2,-2,0
17:58:02:319764,-2,3,5,4,0,-2,0,-2
17:58:02:327923,-2,3,5,4,0,-2,0,-2
17:58:02:328754,-2,-11,-32,-8,-2,-2,-1,-3
17:58:02:342948,0,-3,0,1,-1,1,-3,-2
17:58:02:343735,0,-3,0,1,-1,1,-3,-2
17:58:02:349767,0,2,8,7,0,-4,1,-2
17:58:02:357217,-2,-2,-2,-6,-3,-3,-1,1
17:58:02:364801,-2,-2,-2,-6,-3,-3,-1,1
17:58:02:372204,3,3,-17,-10,-2,2,1,1
17:58:02:379707,2,2,6,-3,-5,-1,1,-1
17:58:02:387979,2,2,6,-3,-5,-1,1,-1
17:58:02:388779,0,6,6,-1,0,0,2,-2
17:58:02:402954,-3,-6,-9,-4,1,-2,-2,-1
17:58:02:403735,-3,-6,-9,-4,1,-2,-2,-1
17:58:02:409769,-2,-3,3,1,3,-1,-3,-2
17:58:02:417214,-3,-2,-3,2,0,-2,0,0
17:58:02:424805,-3,-2,-3,2,0,-2,0,0
17:58:02:432222,0,4,-1,-1,-1,-1,-2,1
17:58:02:439794,1,3,2,1,-1,-1,-3,0
17:58:02:447964,1,3,2,1,-1,-1,-3,0
17:58:02:448760,-4,-5,3,3,-4,-3,-3,-1
17:58:02:462939,-2,1,-8,-9,-2,0,-1,-3
17:58:02:463775,-2,1,-8,-9,-2,0,-1,-3
17:58:02:477939,0,-4,7,-5,-2,-2,0,0
17:58:02:478723,1,2,7,-3,0,-2,0,-1
17:58:02:484783,1,2,7,-3,0,-2,0,-1
17:58:02:492225,-1,0,3,2,-2,-3,0,-4
17:58:02:508574,-2,-5,-6,1,3,-2,-1,-1
17:58:02:509388,-2,-5,-6,1,3,-2,-1,-1
17:58:02:510182,-3,2,-26,-5,-2,1,-1,1
17:58:02:522936,-2,1,8,-1,-2,-1,-3,-1
17:58:02:523726,-2,1,8,-1,-2,-1,-3,-1
17:58:02:529766,-3,2,7,3,1,0,-2,0
17:58:02:537250,-1,-4,-2,-2,-1,-1,0,-1
17:58:02:544762,-1,-4,-2,-2,-1,-1,0,-1
17:58:02:560396,-1,0,22,1,1,0,-1,-1
17:58:02:561178,1,0,6,2,-1,2,-1,-1
17:58:02:567942,1,0,6,2,-1,2,-1,-1
17:58:02:568702,-1,-3,3,-4,-4,-2,0,1
17:58:02:582918,-1,1,-5,-1,-3,-2,-1,0
17:58:02:583720,-1,1,-5,-1,-3,-2,-1,0
17:58:02:589752,-1,1,-10,-2,-1,-2,0,0
17:58:02:597266,-2,-3,-2,-3,0,-3,1,-1
17:58:02:604771,-2,-3,-2,-3,0,-3,1,-1
17:58:02:612259,-1,-7,-2,-2,3,2,0,-2
17:58:02:620408,-1,2,-9,-3,2,0,-1,1
17:58:02:621258,-1,2,-9,-3,2,0,-1,1
17:58:02:634775,0,-2,-9,4,0,-3,-3,-4
17:58:02:642922,0,1,-10,-5,0,-2,-2,-3
17:58:02:643775,0,1,-10,-5,0,-2,-2,-3
17:58:02:649760,0,3,2,-8,-3,-1,0,0
17:58:02:657243,-3,-3,-31,-4,-2,1,0,0
17:58:02:664794,-3,-3,-31,-4,-2,1,0,0
17:58:02:672214,-2,-3,-3,3,0,0,-3,0
17:58:02:680463,1,-1,10,-3,-3,-1,-1,0
17:58:02:681269,1,-1,10,-3,-3,-1,-1,0
17:58:02:687243,-1,-1,3,-4,-5,-2,2,-1
17:58:02:702978,0,-2,25,0,-2,-1,-1,0
17:58:02:703742,0,-2,25,0,-2,-1,-1,0
17:58:02:709701,-2,2,11,3,-1,-1,-3,0
17:58:02:717220,1,3,-13,2,-1,-3,0,-1
17:58:02:724805,1,3,-13,2,-1,-3,0,-1
17:58:02:732235,-1,-6,-35,2,3,1,-1,-3
17:58:02:740459,-1,2,1,0,1,-2,-1,-2
17:58:02:741284,-1,2,1,0,1,-2,-1,-2
17:58:02:754725,1,1,6,-1,-3,-3,-2,-3
17:58:02:762942,-5,-5,-9,1,-4,0,-3,0
17:58:02:763740,-5,-5,-9,1,-4,0,-3,0
17:58:02:769714,-6,-9,-15,-13,-5,-2,0,-2
17:58:02:785911,0,-3,-5,-2,1,-1,1,0
17:58:02:786732,0,-3,-5,-2,1,-1,1,0
17:58:02:792208,-1,-2,-8,-2,-4,-2,-2,0
17:58:02:800429,1,0,-25,9,1,1,1,-2
17:58:02:801319,1,0,-25,9,1,1,1,-2
17:58:02:814713,-2,8,10,-4,2,-1,-3,0
17:58:02:822951,3,8,25,1,1,2,1,-2
17:58:02:823737,3,8,25,1,1,2,1,-2
17:58:02:829706,3,6,-4,3,-3,-7,0,-3
17:58:02:845461,-3,6,9,6,-4,-6,-1,1
17:58:02:846225,-3,6,9,6,-4,-6,-1,1
17:58:02:852333,-2,2,29,-5,3,26,2,2
17:58:02:860417,-2,-1,27,-4,-6,3,1,-4
17:58:02:861238,-2,-1,27,-4,-6,3,1,-4
17:58:02:874771,0,2,-3,0,-1,-6,1,-2
17:58:02:882925,-1,0,-14,-6,-3,-8,-4,1
17:58:02:883729,-1,0,-14,-6,-3,-8,-4,1
17:58:02:889699,-5,-16,-16,0,-5,-5,-2,-2
17:58:02:905461,-5,-16,-16,0,-5,-5,-2,-2
17:58:02:906223,-7,-12,11,-7,-5,-2,0,-2
17:58:02:912262,2,-2,-23,13,4,-2,-1,2
17:58:02:927925,2,-2,-23,13,4,-2,-1,2
17:58:02:928722,-4,-10,-9,-9,0,-1,-3,1
17:58:02:934860,-9,-19,-41,-8,-7,-9,-2,0
17:58:02:942794,-9,-19,-41,-8,-7,-9,-2,0
17:58:02:950376,-1,-8,-22,-10,-4,-7,1,0
17:58:02:951180,5,16,30,0,-1,1,2,-1
17:58:02:965424,5,16,30,0,-1,1,2,-1
17:58:02:966227,0,-2,-53,22,-2,5,-1,0
17:58:02:972238,0,6,15,-9,-2,-3,-1,0
17:58:02:987955,0,6,15,-9,-2,-3,-1,0
17:58:02:988777,0,5,42,-16,-2,-7,-2,-1
17:58:02:994715,3,8,-11,-6,1,0,-2,0
17:58:03:2917,3,8,-11,-6,1,0,-2,0
17:58:03:3719,-2,0,-17,10,13,5,1,-3
17:58:03:9754,-1,9,16,14,-2,-19,-8,3
17:58:03:25431,-1,9,16,14,-2,-19,-8,3
17:58:03:26211,0,1,21,8,-5,-6,-2,-2
17:58:03:32238,0,1,14,0,4,9,2,0
17:58:03:47955,0,1,14,0,4,9,2,0
17:58:03:48749,-4,2,-18,-32,-11,-9,1,3
17:58:03:54725,1,-9,26,15,4,-8,-2,-2
17:58:03:62927,1,-9,26,15,4,-8,-2,-2
17:58:03:63706,1,-3,3,2,6,7,-1,-4
17:58:03:69752,-3,-5,37,-4,-9,4,1,0
17:58:03:85478,-3,-5,37,-4,-9,4,1,0
17:58:03:86251,1,-3,13,10,-1,-3,1,1
17:58:03:92228,-5,0,2,8,-1,-3,-2,-4
17:58:03:107974,-5,0,2,8,-1,-3,-2,-4
17:58:03:108734,-15,-95,19,-77,-21,-8,-13,-50
17:58:03:114720,4,43,-37,21,12,24,11,22
17:58:03:122988,4,43,-37,21,12,24,11,22
17:58:03:123758,4,40,-17,53,7,3,-3,15
17:58:03:129744,-7,-20,-5,-13,7,2,-4,-6
17:58:03:145465,-7,-20,-5,-13,7,2,-4,-6
17:58:03:146280,5,5,-6,-6,-1,0,-1,2
17:58:03:152290,-2,-6,-10,-21,-9,6,3,-2
17:58:03:168044,-2,-6,-10,-21,-9,6,3,-2
17:58:03:168824,-1,-3,2,20,32,3,-18,-1
17:58:03:174759,-2,-10,4,14,13,75,-1,-11
17:58:03:182972,-2,-10,4,14,13,75,-1,-11
17:58:03:183743,-3,11,12,-1,-12,15,14,5
17:58:03:189731,7,-21,-8,-19,-12,-34,-2,-3
17:58:03:205447,7,-21,-8,-19,-12,-34,-2,-3
17:58:03:206251,5,12,9,22,7,6,-2,5
17:58:03:212232,-1,-4,14,-8,-5,-15,2,-4
17:58:03:227959,-1,-4,14,-8,-5,-15,2,-4
17:58:03:228728,-2,10,-26,1,-3,-18,1,0
17:58:03:234727,1,-7,-5,-13,-5,-10,-1,-3
17:58:03:242940,1,-7,-5,-13,-5,-10,-1,-3
17:58:03:243759,-7,-1,4,-1,-6,-1,2,0
17:58:03:249735,-2,11,-4,-9,1,-10,-5,0
17:58:03:265460,-2,11,-4,-9,1,-10,-5,0
17:58:03:266272,-2,2,-5,-24,-11,0,3,4
17:58:03:272205,-16,-1,5,12,-1,-18,-5,-6
17:58:03:287948,-16,-1,5,12,-1,-18,-5,-6
17:58:03:288727,10,2,5,2,-2,7,1,3
17:58:03:294709,-18,-7,-3,-7,-2,-10,-1,-5
17:58:03:302691,-18,-7,-3,-7,-2,-10,-1,-5
17:58:03:310402,21,3,-9,1,8,4,-5,0
17:58:03:311197,23,-5,9,-6,-8,5,0,-2
17:58:03:325449,23,-5,9,-6,-8,5,0,-2
17:58:03:326225,8,5,5,3,-5,-10,4,4
17:58:03:332203,-8,3,-9,15,1,-9,0,0
17:58:03:347937,-8,3,-9,15,1,-9,0,0
17:58:03:348711,0,8,2,-13,1,-3,1,0
17:58:03:354860,-7,3,-22,-24,-3,-5,-3,1
17:58:03:362961,-7,3,-22,-24,-3,-5,-3,1
17:58:03:363713,-18,-3,-18,-16,-10,-8,1,-1
17:58:03:369713,12,-2,6,18,19,8,1,6
17:58:03:385429,12,-2,6,18,19,8,1,6
17:58:03:386229,-4,9,2,2,-7,8,-4,-1
17:58:03:392206,-6,-5,-10,10,-9,4,-3,-4
17:58:03:407932,-6,-5,-10,10,-9,4,-3,-4
17:58:03:408703,4,-3,2,-5,10,2,-4,0
17:58:03:414728,1,0,7,-18,-11,-10,-2,0
17:58:03:422963,1,0,7,-18,-11,-10,-2,0
17:58:03:423746,-4,-3,-3,9,2,5,0,0
17:58:03:429705,0,0,3,0,-1,-6,-1,-1
17:58:03:445419,0,0,3,0,-1,-6,-1,-1
17:58:03:446226,-5,2,-13,23,5,8,2,0
17:58:03:452280,4,6,-17,-6,-9,-22,-7,1
17:58:03:467992,4,6,-17,-6,-9,-22,-7,1
17:58:03:468774,4,-7,3,-8,-2,-5,7,6
17:58:03:474730,-14,-3,1,10,6,9,0,-13
17:58:03:482920,-14,-3,1,10,6,9,0,-13
17:58:03:483827,5,-3,8,-10,3,9,-3,1
17:58:03:489749,15,4,-4,-12,2,-5,2,7
17:58:03:505892,15,4,-4,-12,2,-5,2,7
17:58:03:506680,-8,2,0,-1,-3,-6,-3,-4
17:58:03:512265,-1,-7,9,-5,0,4,1,2
17:58:03:527979,-1,-7,9,-5,0,4,1,2
17:58:03:528764,-3,7,2,26,9,-25,-11,0
17:58:03:534746,-3,-13,-1,-6,15,5,5,-1
17:58:03:542913,-3,-13,-1,-6,15,5,5,-1
17:58:03:543703,2,9,5,-3,-8,-32,-5,2
17:58:03:549745,-3,-6,-5,-7,-22,-22,-2,-6
17:58:03:565477,-3,-6,-5,-7,-22,-22,-2,-6
17:58:03:566254,-2,-2,7,-4,6,13,1,-4
17:58:03:572233,3,0,15,8,12,5,-6,-2
17:58:03:580233,3,0,15,8,12,5,-6,-2
17:58:03:587246,-12,-1,4,-9,-11,13,-1,-7
17:58:03:594748,2,-2,-11,-9,-10,14,4,2
17:58:03:602942,2,-2,-11,-9,-10,14,4,2
17:58:03:603733,3,-2,3,3,6,30,2,-1
17:58:03:609766,-4,10,2,15,-7,-14,-18,-4
17:58:03:625436,-4,10,2,15,-7,-14,-18,-4
17:58:03:626217,11,-6,-3,-8,-5,1,-1,2
17:58:03:632248,-10,-3,4,-1,-2,0,-7,-4
17:58:03:640441,-10,-3,4,-1,-2,0,-7,-4
17:58:03:641242,-16,-4,-4,0,-6,-23,6,-3
17:58:03:654749,33,4,-11,-30,-2,-1,1,12
17:58:03:662923,33,4,-11,-30,-2,-1,1,12
17:58:03:663705,-30,-3,11,26,-2,9,0,-19
17:58:03:669748,-15,-7,12,-6,-2,-10,-3,-9
17:58:03:685504,-15,-7,12,-6,-2,-10,-3,-9
17:58:03:686258,16,1,-4,-6,2,-4,-2,10
17:58:03:692230,8,-3,-2,5,0,4,3,1
17:58:03:699782,8,-3,-2,5,0,4,3,1
17:58:03:707256,-17,8,-20,-19,-1,-10,-2,-13
17:58:03:714740,-11,3,-45,-4,-3,2,2,1
17:58:03:722913,-11,3,-45,-4,-3,2,2,1
17:58:03:723726,37,-9,15,22,-5,21,3,20
17:58:03:737255,-20,1,17,11,-12,-9,-5,-10
17:58:03:745432,-20,1,17,11,-12,-9,-5,-10
17:58:03:746214,-19,-5,-2,-14,18,-9,-3,-6
17:58:03:752254,1,2,-13,8,-21,-1,3,7
17:58:03:759777,1,2,-13,8,-21,-1,3,7
17:58:03:767230,-17,-10,1,39,4,-10,-8,-23
17:58:03:774726,-33,-3,7,41,4,27,-2,-18
17:58:03:782952,-33,-3,7,41,4,27,-2,-18
17:58:03:783730,-13,7,-17,14,-1,6,-3,2
17:58:03:797273,17,7,13,3,-7,-26,-8,8
17:58:03:805454,17,7,13,3,-7,-26,-8,8
17:58:03:806268,-2,8,5,30,18,19,4,5
17:58:03:812205,12,-7,3,-18,-8,7,4,9
17:58:03:819816,12,-7,3,-18,-8,7,4,9
17:58:03:827248,13,7,-33,-55,0,-23,-4,8
17:58:03:843601,-9,1,-26,-40,4,-25,2,-3
17:58:03:844413,-9,1,-26,-40,4,-25,2,-3
17:58:03:845197,-6,-10,27,11,4,6,0,-3
17:58:03:857251,13,1,33,-13,-3,-10,1,1
17:58:03:865498,13,1,33,-13,-3,-10,1,1
17:58:03:866230,34,-6,-13,-10,-9,1,8,14
17:58:03:872205,10,-3,-16,17,27,-6,-3,-4
17:58:03:879798,10,-3,-16,17,27,-6,-3,-4
17:58:03:887219,-30,3,5,10,-20,-22,-4,-4
17:58:03:894700,2,11,16,-17,1,29,-2,-3
17:58:03:902952,2,11,16,-17,1,29,-2,-3
17:58:03:903765,11,-3,-1,-32,-10,26,0,-1
17:58:03:917303,-17,-5,9,-6,-2,17,2,-1
17:58:03:925466,-17,-5,9,-6,-2,17,2,-1
17:58:03:926230,-14,-9,6,35,13,-21,0,-12
17:58:03:932253,-7,8,-7,23,-15,-26,7,0
17:58:03:939798,-7,8,-7,23,-15,-26,7,0
17:58:03:947215,16,6,-3,3,9,44,1,8
17:58:03:954725,17,-12,-7,11,-4,-13,1,2
17:58:03:962966,17,-12,-7,11,-4,-13,1,2
17:58:03:963767,0,0,-22,-25,4,-15,-3,-4
17:58:03:977228,-2,-2,26,44,5,-3,-1,-2
17:58:03:985452,-2,-2,26,44,5,-3,-1,-2
17:58:03:986243,-15,-5,-30,-44,-21,0,-6,-1
17:58:03:992209,2,2,-14,4,24,-25,10,6
17:58:03:999801,2,2,-14,4,24,-25,10,6
17:58:04:7360,-9,3,-9,-37,-12,4,-1,0
17:58:04:14748,7,-2,10,-20,-2,-6,-4,-5
17:58:04:22920,7,-2,10,-20,-2,-6,-4,-5
17:58:04:23708,3,14,18,-15,-16,-36,2,5
17:58:04:37227,4,3,6,-16,-19,25,-4,4
17:58:04:45487,4,3,6,-16,-19,25,-4,4
17:58:04:46254,17,-7,-9,21,16,23,-1,9
17:58:04:60448,1,6,0,-10,-16,-4,-2,3
17:58:04:61316,1,6,0,-10,-16,-4,-2,3
17:58:04:67235,22,1,-24,-4,-1,-41,-1,0
17:58:04:74701,-30,1,-74,-12,9,15,-6,-8
17:58:04:90453,-30,1,-74,-12,9,15,-6,-8
17:58:04:91234,2,-3,4,-29,-8,4,2,-1
17:58:04:97220,-18,-5,6,-27,4,7,-1,-15
17:58:04:105497,-18,-5,6,-27,4,7,-1,-15
17:58:04:106267,-16,-2,-21,-50,-26,12,-3,-4
17:58:04:112215,11,-2,-11,-25,10,-23,-1,11
17:58:04:119798,11,-2,-11,-25,10,-23,-1,11
17:58:04:127274,20,-3,33,20,-8,-10,-3,2
17:58:04:143630,17,2,3,-1,22,-4,4,0
17:58:04:144438,17,2,3,-1,22,-4,4,0
17:58:04:145361,0,2,-25,-7,-14,-1,-1,-8
17:58:04:157242,-8,-7,42,75,46,30,-4,-9
17:58:04:165436,-8,-7,42,75,46,30,-4,-9
17:58:04:166233,2,-3,47,42,-13,-16,6,4
17:58:04:172212,8,6,-6,-5,-22,22,-2,5
17:58:04:179809,8,6,-6,-5,-22,22,-2,5
17:58:04:187247,-14,-1,-29,9,3,4,-1,-1
17:58:04:194719,23,1,2,16,9,-5,3,14
17:58:04:202983,23,1,2,16,9,-5,3,14
17:58:04:203759,-26,-4,-8,39,16,-10,-8,-8
17:58:04:217236,23,0,-7,-25,16,-10,0,9
17:58:04:225466,23,0,-7,-25,16,-10,0,9
17:58:04:226256,-4,-8,22,1,-3,-10,-8,-10
17:58:04:232226,-6,2,-13,-31,-24,-1,1,8
17:58:04:239794,-6,2,-13,-31,-24,-1,1,8
17:58:04:247265,19,-3,5,-29,31,-3,-7,-4
17:58:04:254752,7,-8,-1,3,-13,9,1,4
17:58:04:262922,7,-8,-1,3,-13,9,1,4
17:58:04:263720,-6,3,-4,-34,-31,15,2,-9
17:58:04:277239,17,-12,50,39,28,7,5,12
17:58:04:285479,17,-12,50,39,28,7,5,12
17:58:04:286262,-17,-7,22,43,9,24,-12,-31
17:58:04:292221,0,-4,-4,-60,-50,-22,-7,-16
17:58:04:299756,0,-4,-4,-60,-50,-22,-7,-16
17:58:04:307244,-1,10,-3,5,40,-20,8,13
17:58:04:314758,7,12,-69,-13,-18,-29,-3,1
17:58:04:322921,7,12,-69,-13,-18,-29,-3,1
17:58:04:323761,8,5,-23,-25,-21,-23,5,1
17:58:04:337274,9,7,8,54,11,7,1,0
17:58:04:345405,9,7,8,54,11,7,1,0
17:58:04:346195,0,-11,-19,-22,-18,-8,2,1
17:58:04:352254,-44,7,17,7,19,19,-5,-21
17:58:04:367930,-44,7,17,7,19,19,-5,-21
17:58:04:368716,13,-7,7,41,-23,13,-5,6
17:58:04:374766,-32,-9,6,6,11,13,-4,2
17:58:04:382955,-32,-9,6,6,11,13,-4,2
17:58:04:383726,3,-2,29,5,-41,-14,1,4
17:58:04:397273,-32,-1,-26,-33,11,-22,-1,-17
17:58:04:405422,-32,-1,-26,-33,11,-22,-1,-17
17:58:04:406208,9,-2,-4,-49,-8,3,0,14
17:58:04:412241,-1,-6,14,40,11,-3,-2,-5
17:58:04:419783,-1,-6,14,40,11,-3,-2,-5
17:58:04:427182,-24,1,-8,-27,20,-8,-3,-1
17:58:04:434744,23,-4,-3,0,-28,15,-6,0
17:58:04:442953,23,-4,-3,0,-28,15,-6,0
17:58:04:443735,8,-4,-16,25,26,-13,3,-7
17:58:04:457305,10,1,23,-17,-33,-17,5,5
17:58:04:465435,10,1,23,-17,-33,-17,5,5
17:58:04:466236,17,1,-3,9,-12,17,9,17
17:58:04:472178,-14,-2,-13,-25,-23,-7,-6,-6
17:58:04:479766,-14,-2,-13,-25,-23,-7,-6,-6
17:58:04:487222,-25,5,-3,-16,35,5,-1,-8
17:58:04:494703,1,5,-49,-43,-8,-9,1,7
17:58:04:502933,1,5,-49,-43,-8,-9,1,7
17:58:04:503734,-13,9,-3,-16,6,24,-5,-2
17:58:04:517304,-5,-12,40,25,66,37,-7,-7
17:58:04:525508,-5,-12,40,25,66,37,-7,-7
17:58:04:526292,8,4,7,-24,-25,11,2,8
17:58:04:532240,16,-11,-33,-27,-10,-12,3,17
17:58:04:539846,16,-11,-33,-27,-10,-12,3,17
17:58:04:547218,-5,1,-42,-8,7,2,-8,-11
17:58:04:554751,-45,4,20,51,-29,-18,-7,-20
17:58:04:562938,-45,4,20,51,-29,-18,-7,-20
17:58:04:563772,5,-1,-19,57,11,-37,0,8
17:58:04:577234,-6,-8,15,16,-4,-17,-2,-11
17:58:04:585457,-6,-8,15,16,-4,-17,-2,-11
17:58:04:586250,13,-2,38,29,-18,8,3,4
17:58:04:592266,-12,-2,-46,-55,-5,20,-8,-14
17:58:04:599808,-12,-2,-46,-55,-5,20,-8,-14
17:58:04:615389,20,0,21,0,20,26,0,8
17:58:04:616159,10,2,28,22,-24,8,-1,7
17:58:04:623018,10,2,28,22,-24,8,-1,7
17:58:04:623732,-3,-12,5,-9,-3,-27,-2,-8
17:58:04:637197,1,7,-31,-5,-3,16,6,-5
17:58:04:645450,1,7,-31,-5,-3,16,6,-5
17:58:04:646240,-17,-5,10,43,16,17,2,-6
17:58:04:660433,-7,-3,37,26,2,-12,-4,6
17:58:04:661243,-7,-3,37,26,2,-12,-4,6
17:58:04:667212,6,-2,-9,-59,12,-15,-2,-9
17:58:04:674702,-29,13,-11,-10,32,14,5,-5
17:58:04:682280,-29,13,-11,-10,32,14,5,-5
17:58:04:689736,-45,-13,9,-1,-25,25,-11,-8
17:58:04:697230,18,0,-25,-25,-18,-9,5,7
17:58:04:705464,18,0,-25,-25,-18,-9,5,7
17:58:04:706379,16,13,10,-5,-21,-6,1,2
17:58:04:720195,9,-8,33,14,-11,-11,-7,1
17:58:04:727942,9,-8,33,14,-11,-11,-7,1
17:58:04:728762,17,3,-23,-4,-3,-30,3,-2
17:58:04:734730,-5,1,1,7,8,58,4,0
17:58:04:742321,-5,1,1,7,8,58,4,0
17:58:04:749720,0,1,1,30,9,20,-2,-3
17:58:04:757241,-6,-10,8,46,26,-24,-1,-12
17:58:04:765492,-6,-10,8,46,26,-24,-1,-12
17:58:04:766286,-6,-5,-2,-2,-7,2,0,0
17:58:04:780465,16,4,-3,-41,7,2,2,12
17:58:04:781258,16,4,-3,-41,7,2,2,12
17:58:04:787254,-6,-11,19,14,1,-11,-6,-4
17:58:04:794737,9,-2,33,20,47,14,-9,-5
17:58:04:802303,9,-2,33,20,47,14,-9,-5
17:58:04:809777,-1,9,-2,-47,-74,-2,-4,-4
17:58:04:817346,-4,9,-26,-26,-3,11,6,14
17:58:04:832947,-4,9,-26,-26,-3,11,6,14
17:58:04:833738,11,10,12,-5,12,-2,-5,6
17:58:04:840470,1,-9,-6,-15,-6,-29,-1,-6
17:58:04:841277,1,-9,-6,-15,-6,-29,-1,-6
17:58:04:847266,-2,5,-39,-47,-24,-45,8,14
17:58:04:862923,-5,-12,23,40,-4,-9,1,-12
17:58:04:863747,-5,-12,23,40,-4,-9,1,-12
17:58:04:869743,-26,-15,14,21,8,-3,-4,-15
17:58:04:877213,-13,13,-29,-28,-35,-3,-4,0
17:58:04:885861,-13,13,-29,-28,-35,-3,-4,0
17:58:04:892234,14,2,-26,25,48,70,9,9
17:58:04:900388,9,-4,15,5,-10,-48,-11,-7
17:58:04:901210,9,-4,15,5,-10,-48,-11,-7
17:58:04:907255,12,0,-8,14,-15,-36,-7,-3
17:58:04:914759,-3,-5,3,22,27,4,3,5
17:58:04:922292,-3,-5,3,22,27,4,3,5
17:58:04:929682,6,3,22,1,20,20,4,-3
17:58:04:937193,-17,-4,-26,-17,-8,-4,-3,-1
17:58:04:945454,-17,-4,-26,-17,-8,-4,-3,-1
17:58:04:946233,-23,-5,13,22,30,17,3,-5
17:58:04:960499,15,3,18,-6,1,3,0,3
17:58:04:961278,15,3,18,-6,1,3,0,3
17:58:04:967254,8,2,-4,16,11,-4,-6,0
17:58:04:974703,-2,10,-12,-26,12,-29,4,-4
17:58:04:982291,-2,10,-12,-26,12,-29,4,-4
17:58:04:989731,-8,-8,25,6,-36,-25,-7,-1
17:58:04:997221,-12,-1,3,34,-3,42,4,1
17:58:05:5468,-12,-1,3,34,-3,42,4,1
17:58:05:6240,4,3,-9,-8,6,-5,3,2
17:58:05:20432,24,-1,-13,-7,3,-15,-6,4
17:58:05:21278,24,-1,-13,-7,3,-15,-6,4
17:58:05:27310,-35,-4,-16,-27,-13,-17,-6,-13
17:58:05:34713,-2,-10,-9,8,-20,7,-7,0
17:58:05:42410,-2,-10,-9,8,-20,7,-7,0
17:58:05:49721,-12,-6,5,15,18,26,-1,-9
17:58:05:57235,13,8,-21,13,-17,12,7,13
17:58:05:65440,13,8,-21,13,-17,12,7,13
17:58:05:66252,-17,-10,-17,14,3,-19,-5,-14
17:58:05:80434,-5,7,-28,-50,-36,-20,3,0
17:58:05:81231,-5,7,-28,-50,-36,-20,3,0
17:58:05:87222,10,6,-2,-10,27,26,4,9
17:58:05:94717,-19,-10,13,-16,-7,-38,-4,-3
17:58:05:102323,-19,-10,13,-16,-7,-38,-4,-3
17:58:05:109749,-16,-1,25,-9,16,0,0,1
17:58:05:117236,-9,-4,-22,-12,40,4,3,-11
17:58:05:125422,-9,-4,-22,-12,40,4,3,-11
17:58:05:126290,34,1,5,8,-23,16,8,5
17:58:05:140494,22,0,19,-19,-6,19,1,-2
17:58:05:141302,22,0,19,-19,-6,19,1,-2
17:58:05:147325,-7,8,-42,-29,10,2,0,-5
17:58:05:154767,10,-13,14,24,-42,10,-5,3
17:58:05:162256,10,-13,14,24,-42,10,-5,3
17:58:05:169850,18,-3,-5,-22,1,41,1,12
17:58:05:177241,7,3,8,8,11,-4,-4,0
17:58:05:185447,7,3,8,8,11,-4,-4,0
17:58:05:186232,-9,-11,10,4,-11,-10,-6,-20
17:58:05:200417,-7,-10,4,42,11,11,-3,-13
17:58:05:201216,-7,-10,4,42,11,11,-3,-13
17:58:05:207284,-8,2,12,14,-6,-61,2,1
17:58:05:214744,9,9,13,36,67,-16,3,-6
17:58:05:222291,9,9,13,36,67,-16,3,-6
17:58:05:229705,23,-4,4,-10,-19,-24,-3,2
17:58:05:237220,-30,11,21,12,-10,5,2,-10
17:58:05:245464,-30,11,21,12,-10,5,2,-10
17:58:05:246236,12,4,-20,-5,-4,8,-3,2
17:58:05:260439,29,1,-19,-29,-15,5,2,3
17:58:05:261267,29,1,-19,-29,-15,5,2,3
17:58:05:267218,-5,-4,0,-7,17,-1,3,10
17:58:05:274712,-17,-10,-24,-27,-53,-16,-5,-6
17:58:05:282274,-17,-10,-24,-27,-53,-16,-5,-6
17:58:05:289726,10,-4,32,37,5,9,-3,5
17:58:05:297265,-38,4,-36,-50,-11,48,-8,-7
17:58:05:305245,-38,4,-36,-50,-11,48,-8,-7
17:58:05:312349,13,-3,-7,-22,11,-6,-1,6
17:58:05:320510,-31,-14,19,-11,-13,13,-5,-4
17:58:05:321282,-31,-14,19,-11,-13,13,-5,-4
17:58:05:327270,8,4,-20,-10,-18,-3,-4,-2
17:58:05:334733,34,-12,18,26,19,-31,-2,0
17:58:05:342274,34,-12,18,26,19,-31,-2,0
17:58:05:349742,16,11,0,13,-5,18,4,8
17:58:05:357270,32,-7,-26,-34,-1,5,1,2
17:58:05:365468,32,-7,-26,-34,-1,5,1,2
17:58:05:366243,-24,1,4,10,-11,-38,-10,4
17:58:05:380415,6,5,15,-8,-24,-20,4,11
17:58:05:381206,6,5,15,-8,-24,-20,4,11
17:58:05:387266,-15,-2,9,22,38,-3,6,-8
17:58:05:394733,-9,16,-20,-10,4,16,3,4
17:58:05:402263,-9,16,-20,-10,4,16,3,4
17:58:05:409709,0,5,-9,11,-30,-15,-2,-3
17:58:05:417188,-49,11,5,8,9,19,-3,-7
17:58:05:425442,-49,11,5,8,9,19,-3,-7
17:58:05:426248,9,-2,-26,-34,-31,-13,0,-2
17:58:05:440411,0,-5,15,12,21,-3,1,-13
17:58:05:441222,0,-5,15,12,21,-3,1,-13
17:58:05:447221,11,6,27,4,-4,8,-8,-8
17:58:05:454701,7,-7,-5,-6,-6,28,-5,4
17:58:05:462290,7,-7,-5,-6,-6,28,-5,4
17:58:05:469743,4,0,-3,8,34,-1,-2,2
17:58:05:477295,-24,-1,-17,-9,-1,-10,-9,-10
17:58:05:485466,-24,-1,-17,-9,-1,-10,-9,-10
17:58:05:486257,-33,-5,-5,-33,34,11,3,-8
17:58:05:500436,7,-5,15,11,-5,-18,0,2
17:58:05:501272,7,-5,15,11,-5,-18,0,2
17:58:05:507237,14,5,5,7,9,16,1,7
17:58:05:514741,24,4,7,0,-23,-8,3,3
17:58:05:522318,24,4,7,0,-23,-8,3,3
17:58:05:529719,3,-4,35,30,6,1,3,-1
17:58:05:537239,17,-1,-9,-24,-17,-6,0,4
17:58:05:545453,17,-1,-9,-24,-17,-6,0,4
17:58:05:546296,-12,-4,-10,-16,-32,0,-11,-10
17:58:05:560458,-7,15,-17,-3,-9,-12,6,2
17:58:05:561278,-7,15,-17,-3,-9,-12,6,2
17:58:05:567219,-23,-1,-30,-30,24,23,-1,-24
17:58:05:582927,43,-13,1,-4,7,-2,-2,16
17:58:05:583747,43,-13,1,-4,7,-2,-2,16
17:58:05:589782,-24,-9,-1,9,-14,-15,-3,-1
17:58:05:597233,-15,0,18,-6,-5,-6,0,-6
17:58:05:604857,-15,0,18,-6,-5,-6,0,-6
17:58:05:612250,2,6,15,14,-21,0,-8,-2
17:58:05:620477,6,0,0,-15,0,1,-4,11
17:58:05:621291,6,0,0,-15,0,1,-4,11
17:58:05:627234,-11,-11,-5,16,33,-4,-3,-13
17:58:05:642940,29,1,26,31,8,0,0,-1
17:58:05:643748,29,1,26,31,8,0,0,-1
17:58:05:649722,8,11,3,-6,-56,4,3,11
17:58:05:657229,-25,3,5,13,8,13,1,-25
17:58:05:664796,-25,3,5,13,8,13,1,-25
17:58:05:672242,-11,-4,7,-3,-16,19,1,-8
17:58:05:680414,-29,2,-13,17,40,4,6,5
17:58:05:681222,-29,2,-13,17,40,4,6,5
17:58:05:687271,15,-4,2,-18,5,-6,0,2
17:58:05:702899,40,16,-33,-49,-19,13,2,18
17:58:05:703747,40,16,-33,-49,-19,13,2,18
17:58:05:709739,-33,1,-9,4,4,2,5,-5
17:58:05:717232,-35,7,-20,-4,113,-36,0,4
17:58:05:724754,-35,7,-20,-4,113,-36,0,4
17:58:05:732257,41,4,-4,11,-33,15,5,21
17:58:05:740407,-43,-19,-19,-9,-127,-4,-8,-25
17:58:05:741242,-43,-19,-19,-9,-127,-4,-8,-25
17:58:05:747200,-19,-14,-16,-17,-44,-26,-3,-14
17:58:05:762907,-10,3,18,32,-26,22,-3,2
17:58:05:763736,-10,3,18,32,-26,22,-3,2
17:58:05:769717,14,2,-2,0,-29,2,-8,0
17:58:05:777332,10,0,-37,-39,22,-1,-4,5
17:58:05:784805,10,0,-37,-39,22,-1,-4,5
17:58:05:792219,15,4,-5,-4,23,5,-4,13
17:58:05:800438,-17,-3,20,46,23,-9,-7,-8
17:58:05:801261,-17,-3,20,46,23,-9,-7,-8
17:58:05:807244,-15,-7,5,23,13,2,0,-6
17:58:05:822900,26,-2,8,27,-7,0,3,3
17:58:05:823752,26,-2,8,27,-7,0,3,3
17:58:05:837908,-26,-6,30,12,19,-7,-6,-15
17:58:05:838703,-3,-8,-2,4,-23,6,1,4
17:58:05:844767,-3,-8,-2,4,-23,6,1,4
17:58:05:852207,15,-3,-10,-17,-29,12,-3,1
17:58:05:860411,18,-11,8,-13,4,-11,-2,7
17:58:05:861249,18,-11,8,-13,4,-11,-2,7
17:58:05:867198,0,7,-33,-49,-6,2,3,16
17:58:05:882908,-41,-7,19,-4,-42,-18,3,-3
17:58:05:883738,-41,-7,19,-4,-42,-18,3,-3
17:58:05:889706,-2,2,-11,16,37,-16,8,-2
17:58:05:897257,25,4,8,-16,-27,12,1,2
17:58:05:904789,25,4,8,-16,-27,12,1,2
17:58:05:912206,34,3,1,14,27,31,9,17
17:58:05:920460,-38,4,-43,-35,19,-12,-5,-12
17:58:05:921265,-38,4,-43,-35,19,-12,-5,-12
17:58:05:927224,5,-10,11,-22,1,1,-2,-11
17:58:05:942920,58,-4,28,11,21,-10,3,12
17:58:05:943758,58,-4,28,11,21,-10,3,12
17:58:05:949702,1,3,0,-8,-13,11,-3,5
17:58:05:957216,-15,-6,14,43,19,7,5,-7
17:58:05:964782,-15,-6,14,43,19,7,5,-7
17:58:05:972290,29,5,25,31,19,-9,5,4
17:58:05:980467,-19,-5,9,-14,-23,25,-4,-21
17:58:05:981251,-19,-5,9,-14,-23,25,-4,-21
17:58:05:987259,-8,7,-1,11,-24,-14,-7,-9
17:58:06:3450,22,-1,6,11,44,-14,0,0
17:58:06:4232,22,-1,6,11,44,-14,0,0
17:58:06:9750,9,4,5,-9,3,-11,-3,7
17:58:06:17220,17,-1,-9,-2,-19,-9,-4,8
17:58:06:24813,17,-1,-9,-2,-19,-9,-4,8
17:58:06:32228,-50,-4,-14,-4,5,8,-1,-10
17:58:06:40375,-13,2,-19,-22,-15,-3,-3,-9
17:58:06:41223,-13,2,-19,-22,-15,-3,-3,-9
17:58:06:47265,-11,-5,2,-4,8,6,-7,1
17:58:06:62941,1,-1,9,10,53,6,7,17
17:58:06:63770,1,-1,9,10,53,6,7,17
17:58:06:69748,-24,-11,-7,8,46,-1,0,-6
17:58:06:77267,7,0,-19,-14,-39,-1,-3,5
17:58:06:84767,7,0,-19,-14,-39,-1,-3,5
17:58:06:92264,1,-13,-6,-17,-38,0,-3,-2
17:58:06:100424,-18,5,-1,17,-7,0,-4,2
17:58:06:101224,-18,5,-1,17,-7,0,-4,2
17:58:06:107208,18,5,-10,10,0,-17,1,4
17:58:06:122902,-27,-11,-10,-11,-9,-23,-11,-26
17:58:06:123733,-27,-11,-10,-11,-9,-23,-11,-26
17:58:06:129750,-5,7,27,10,-8,10,-4,-6
17:58:06:145465,-5,7,27,10,-8,10,-4,-6
17:58:06:146249,24,-1,-16,-9,-6,-9,-8,14
17:58:06:152244,-28,-4,-19,-21,-5,-27,-2,-14
17:58:06:160415,-28,-4,-19,-21,-5,-27,-2,-14
17:58:06:161218,-9,5,7,-21,-14,-16,6,3
17:58:06:167278,8,-1,2,7,3,2,5,-2
17:58:06:182958,8,-1,2,7,3,2,5,-2
17:58:06:183750,-8,-7,-7,-3,-10,-12,1,-1
17:58:06:189728,7,11,-1,-6,-13,6,-1,8
17:58:06:205463,7,11,-1,-6,-13,6,-1,8
17:58:06:206271,7,-1,8,23,3,11,1,5
17:58:06:212231,-5,-1,-9,-5,-20,-2,-2,-4
17:58:06:220527,-5,-1,-9,-5,-20,-2,-2,-4
17:58:06:221292,14,-3,7,2,33,9,0,-1
17:58:06:227274,0,3,-44,-30,9,-16,0,4
17:58:06:242967,0,3,-44,-30,9,-16,0,4
17:58:06:243759,13,3,2,6,-39,-25,3,-3
17:58:06:249746,23,1,23,21,31,1,1,13
17:58:06:265439,23,1,23,21,31,1,1,13
17:58:06:266255,-2,2,-15,-24,-11,-14,-10,-6
17:58:06:272201,-22,-6,-2,1,-32,-17,-5,-12
17:58:06:280459,-22,-6,-2,1,-32,-17,-5,-12
17:58:06:281259,-7,9,12,7,14,31,1,-1
17:58:06:287238,-11,-8,4,14,-3,-38,2,-9
17:58:06:302972,-11,-8,4,14,-3,-38,2,-9
17:58:06:303747,-2,-2,11,4,19,24,-2,-7
17:58:06:309716,7,-18,7,-11,16,-2,4,2
17:58:06:325459,7,-18,7,-11,16,-2,4,2
17:58:06:326326,-9,3,-8,-11,-12,1,-3,-6
17:58:06:332213,6,0,7,2,-11,10,1,0
17:58:06:340490,6,0,7,2,-11,10,1,0
17:58:06:341247,-3,-6,-3,13,6,9,4,3
17:58:06:347224,1,-7,-5,-21,-12,7,-4,0
17:58:06:362970,1,-7,-5,-21,-12,7,-4,0
17:58:06:363744,-2,-3,10,13,1,17,11,0
17:58:06:369732,1,-15,2,-14,5,55,3,-5
17:58:06:385434,1,-15,2,-14,5,55,3,-5
17:58:06:386227,-5,4,16,5,5,-17,-2,2
17:58:06:392298,9,5,-1,22,19,23,-3,4
17:58:06:400426,9,5,-1,22,19,23,-3,4
17:58:06:401251,-9,-16,-10,-15,-8,13,-6,-10
17:58:06:407208,-7,7,13,21,-1,10,-6,-2
17:58:06:422931,-7,7,13,21,-1,10,-6,-2
17:58:06:423747,5,0,-21,-11,-8,-21,-10,0
17:58:06:429709,-1,9,-2,3,-14,-28,-5,0
17:58:06:445452,-1,9,-2,3,-14,-28,-5,0
17:58:06:446225,-3,4,-2,1,-5,2,1,-5
17:58:06:452216,-1,6,0,-5,10,1,-4,2
17:58:06:460438,-1,6,0,-5,10,1,-4,2
17:58:06:461223,1,3,2,-1,-11,12,9,-1
17:58:06:467199,1,-12,-8,5,11,-4,7,1
17:58:06:482955,1,-12,-8,5,11,-4,7,1
17:58:06:483728,-1,6,6,5,-9,9,-7,6
17:58:06:489706,2,9,-6,-11,-28,-51,-8,1
17:58:06:505463,2,9,-6,-11,-28,-51,-8,1
17:58:06:506207,0,-9,3,29,40,-13,9,-3
17:58:06:512254,-1,-1,-8,-14,-13,30,5,0
17:58:06:520512,-1,-1,-8,-14,-13,30,5,0
17:58:06:521231,-1,0,2,-9,-22,23,2,-2
17:58:06:534743,0,3,1,7,3,-4,-7,-1
17:58:06:542940,0,3,1,7,3,-4,-7,-1
17:58:06:543733,-2,0,2,8,2,-1,-7,-3
17:58:06:549766,-1,1,7,-9,-11,-1,-4,-3
17:58:06:565420,-1,1,7,-9,-11,-1,-4,-3
17:58:06:566209,-4,-3,-5,-8,-7,-27,1,1
17:58:06:572224,-1,1,-4,3,-6,6,5,0
17:58:06:580426,-1,1,-4,3,-6,6,5,0
17:58:06:581222,3,-1,0,-9,3,-15,-4,5
17:58:06:594897,-7,4,-12,-8,-7,-7,-3,-2
17:58:06:602951,-7,4,-12,-8,-7,-7,-3,-2
17:58:06:603706,-5,-6,-9,-11,-4,3,2,0
17:58:06:609739,1,-5,3,6,10,9,4,-4
17:58:06:625475,1,-5,3,6,10,9,4,-4
17:58:06:626252,1,9,-1,5,-1,-16,-14,1
17:58:06:641120,1,-2,13,-7,-14,-14,-8,24
17:58:06:641902,1,-2,13,-7,-14,-14,-8,24
17:58:06:642710,-1,-2,4,-1,9,10,9,-8
17:58:06:655002,-4,0,-1,-3,0,-3,-1,0
17:58:06:662941,-4,0,-1,-3,0,-3,-1,0
17:58:06:663776,0,1,5,0,9,-21,-11,0
17:58:06:669728,3,-9,-1,-5,4,24,16,5
17:58:06:677274,3,-9,-1,-5,4,24,16,5
17:58:06:684875,-4,-2,-1,0,-8,-21,-5,2
17:58:06:692222,-5,-1,7,4,8,-15,-3,-1
17:58:06:707949,-5,-1,7,4,8,-15,-3,-1
17:58:06:708729,4,0,-4,-6,2,15,7,2
17:58:06:723586,-6,-3,4,-15,-10,-8,-5,-4
17:58:06:724375,-6,-3,4,-15,-10,-8,-5,-4
17:58:06:725220,4,-5,-7,-14,-26,-6,-1,1
17:58:06:737881,-1,-2,-5,9,21,9,-4,-14
17:58:06:738783,-1,-2,-5,9,21,9,-4,-14
17:58:06:744756,3,11,-4,-1,6,-2,-4,8
17:58:06:752296,-4,-5,-13,-29,-29,-53,-10,-11
17:58:06:761124,-4,-5,-13,-29,-29,-53,-10,-11
17:58:06:761918,-5,9,-2,10,31,26,8,-11
17:58:06:774779,3,11,7,15,-6,-24,8,-11
17:58:06:782930,3,11,7,15,-6,-24,8,-11
17:58:06:783725,1,-10,-3,-4,-16,-12,5,-5
17:58:06:797875,1,-6,-5,46,43,-3,-8,-9
17:58:06:798696,1,-6,-5,46,43,-3,-8,-9
17:58:06:804751,-2,4,13,-4,-18,-34,-11,3
17:58:06:812242,0,7,-15,-4,-17,20,-6,4
17:58:06:820440,0,7,-15,-4,-17,20,-6,4
17:58:06:821229,-5,-10,-21,-17,5,-2,-3,5
17:58:06:834755,-1,-4,9,-8,9,25,8,-3
17:58:06:842925,-1,-4,9,-8,9,25,8,-3
17:58:06:843709,-4,-1,-1,-13,-8,24,-19,-11
17:58:06:849715,-2,18,0,-2,-14,9,9,-2
17:58:06:857272,-2,18,0,-2,-14,9,9,-2
17:58:06:864724,-2,0,6,1,10,2,1,-5
17:58:06:872216,-4,-22,-4,-9,5,3,4,-3
17:58:06:880461,-4,-22,-4,-9,5,3,4,-3
17:58:06:881226,-3,-7,-8,9,-2,-3,-3,-2
17:58:06:894827,4,22,25,-3,-3,3,0,7
17:58:06:902967,4,22,25,-3,-3,3,0,7
17:58:06:903731,-6,-4,7,12,3,34,-6,2
17:58:06:909710,2,2,-3,-3,-7,-28,-12,3
17:58:06:917289,2,2,-3,-3,-7,-28,-12,3
17:58:06:924726,-4,-14,-8,8,-1,1,0,-9
17:58:06:932222,-13,3,-4,1,1,6,1,-1
17:58:06:941098,-13,3,-4,1,1,6,1,-1
17:58:06:941887,6,15,43,8,-2,-5,10,7
17:58:06:954696,-4,9,-17,-3,-8,-31,1,-14
17:58:06:962969,-4,9,-17,-3,-8,-31,1,-14
17:58:06:963729,2,3,10,2,-1,-1,-1,2
17:58:06:969717,3,7,13,7,3,3,1,8
17:58:06:985453,3,7,13,7,3,3,1,8
17:58:06:986229,6,5,8,-2,-2,-30,12,1
17:58:06:992210,-2,-18,-22,-13,-7,-13,-3,1
17:58:07:448,-2,-18,-22,-13,-7,-13,-3,1
17:58:07:1229,6,0,-13,-3,2,9,-6,20
17:58:07:14779,6,-22,6,-7,-6,3,-14,-43
17:58:07:22959,6,-22,6,-7,-6,3,-14,-43
17:58:07:23735,-16,17,-9,-1,-2,-11,-42,-59
17:58:07:29704,-7,0,1,-4,-6,-12,0,11
17:58:07:37281,-7,0,1,-4,-6,-12,0,11
17:58:07:44738,-7,-20,-40,-3,0,2,10,24
17:58:07:52221,24,-20,-21,-9,4,8,-1,4
17:58:07:60442,24,-20,-21,-9,4,8,-1,4
17:58:07:61254,9,-2,-3,1,-2,10,1,-9
17:58:07:74723,-10,5,-10,1,-5,-1,7,22
17:58:07:82954,-10,5,-10,1,-5,-1,7,22
17:58:07:83714,0,-3,7,1,-1,-21,10,4
17:58:07:89708,-8,2,-7,2,6,13,0,-16
17:58:07:105456,-8,2,-7,2,6,13,0,-16
17:58:07:106215,3,-2,-26,-5,-4,-8,14,11
17:58:07:112196,-1,3,-21,4,2,-17,-7,-20
17:58:07:120446,-1,3,-21,4,2,-17,-7,-20
17:58:07:121262,-13,1,5,-10,-1,24,14,8
17:58:07:134698,27,9,4,-4,-8,21,-1,18
17:58:07:142943,27,9,4,-4,-8,21,-1,18
17:58:07:143730,5,12,12,17,11,11,-28,-23
17:58:07:149727,15,-4,0,-24,-11,0,3,13
17:58:07:165429,15,-4,0,-24,-11,0,3,13
17:58:07:166215,-2,-9,8,-17,5,-9,-4,-5
17:58:07:172207,10,5,-2,19,6,-10,-3,3
17:58:07:180458,10,5,-2,19,6,-10,-3,3
17:58:07:181236,-4,-2,-6,1,-8,13,2,-8
17:58:07:195179,-31,-13,11,-9,-9,-1,-12,-14
17:58:07:202927,-31,-13,11,-9,-9,-1,-12,-14
17:58:07:203734,0,2,-16,-7,-7,13,-3,0
17:58:07:209684,19,4,8,7,15,-3,3,18
17:58:07:225445,19,4,8,7,15,-3,3,18
17:58:07:226209,-7,-19,-25,-37,-14,-15,6,9
17:58:07:232229,-7,19,41,31,25,12,2,1
17:58:07:240424,-7,19,41,31,25,12,2,1
17:58:07:241225,25,-10,9,1,-10,8,4,18
17:58:07:254742,-48,-24,-21,-18,-10,3,-9,-19
17:58:07:262967,-48,-24,-21,-18,-10,3,-9,-19
17:58:07:263710,10,17,25,20,8,3,4,2
17:58:07:269760,6,12,34,-8,8,11,-7,7
17:58:07:293600,6,12,34,-8,8,11,-7,7
17:58:07:294413,-35,-3,10,1,-7,-8,-13,-16
17:58:07:295189,-2,-5,-30,-15,-15,-21,10,7
17:58:07:300470,-2,-5,-30,-15,-15,-21,10,7
17:58:07:301296,-3,2,-8,0,-4,-18,3,-2
17:58:07:323591,-20,-1,-14,-11,-38,26,8,-4
17:58:07:324363,-20,-1,-14,-11,-38,26,8,-4
17:58:07:325187,19,5,31,17,21,-4,2,7
17:58:07:329694,-11,-6,1,6,-3,16,5,-8
17:58:07:353640,-11,-6,1,6,-3,16,5,-8
17:58:07:354431,-11,-1,-18,-20,0,16,0,-5
17:58:07:355230,11,5,0,16,4,-12,-9,-8
17:58:07:359809,11,5,0,16,4,-12,-9,-8
17:58:07:367272,-29,-15,-16,-2,4,5,8,-1
17:58:07:382656,21,8,-7,-4,16,0,-3,4
17:58:07:391117,21,8,-7,-4,16,0,-3,4
17:58:07:391896,1,0,10,12,3,-5,-11,-11
17:58:07:392713,12,-6,10,0,7,-26,-7,14
17:58:07:397251,12,-6,10,0,7,-26,-7,14
17:58:07:404738,12,3,1,-7,-6,5,11,-4
17:58:07:412254,-4,-7,-3,-13,-7,15,1,0
17:58:07:420430,-4,-7,-3,-13,-7,15,1,0
17:58:07:421236,-6,-1,-8,-8,-7,-1,-11,-7
17:58:07:434751,-8,0,12,14,18,0,10,5
17:58:07:442913,-8,0,12,14,18,0,10,5
17:58:07:443719,-7,2,6,12,-16,-35,-11,-15
17:58:07:449751,-5,-2,2,3,4,11,-6,-8
17:58:07:457303,-5,-2,2,3,4,11,-6,-8
17:58:07:464690,9,11,2,-2,2,8,10,14
17:58:07:472205,17,-6,11,-9,-15,1,-2,9
17:58:07:479761,17,-6,11,-9,-15,1,-2,9
17:58:07:487227,-2,-1,-29,-24,-5,-18,-9,-2
17:58:07:494729,25,3,-3,5,5,8,1,1
17:58:07:510441,25,3,-3,5,5,8,1,1
17:58:07:511243,-13,3,-14,-24,-12,3,1,5
17:58:07:517959,16,-4,0,11,20,1,-10,-2
17:58:07:518739,16,-4,0,11,20,1,-10,-2
17:58:07:524736,25,-1,14,20,6,-17,4,1
17:58:07:540413,3,5,7,36,-15,-38,-9,-7
17:58:07:541239,3,5,7,36,-15,-38,-9,-7
17:58:07:547193,-4,0,16,35,13,13,-2,0
17:58:07:554700,-22,1,-15,-18,-4,6,5,-1
17:58:07:562925,-22,1,-15,-18,-4,6,5,-1
17:58:07:563745,10,-4,-13,-34,-6,-12,5,2
17:58:07:577904,2,-2,3,-15,-7,35,20,4
17:58:07:578736,2,-2,3,-15,-7,35,20,4
17:58:07:584729,-48,-8,-4,6,-6,-10,-13,-16
17:58:07:600440,10,-4,8,-4,10,-30,6,-4
17:58:07:601207,10,-4,8,-4,10,-30,6,-4
17:58:07:607237,18,4,19,32,-2,-16,4,12
17:58:07:614750,4,1,-18,-29,-1,-6,6,-1
17:58:07:630488,4,1,-18,-29,-1,-6,6,-1
17:58:07:631273,-17,7,-14,-25,2,1,-3,-3
17:58:07:637902,8,0,4,-8,-10,-7,5,4
17:58:07:638726,8,0,4,-8,-10,-7,5,4
17:58:07:644739,16,1,-7,-11,-7,-4,1,7
17:58:07:652270,-23,-7,-12,-10,-2,-28,-9,-12
17:58:07:659838,-23,-7,-12,-10,-2,-28,-9,-12
17:58:07:667194,32,5,15,-2,-6,-9,2,4
17:58:07:674689,-3,-1,-9,-8,-25,-21,-8,-2
17:58:07:682963,-3,-1,-9,-8,-25,-21,-8,-2
17:58:07:683908,-1,-6,1,-2,11,26,2,-1
17:58:07:697916,-7,-3,-25,-19,9,22,2,-8
17:58:07:698819,-7,-3,-25,-19,9,22,2,-8
17:58:07:704694,-11,-3,2,5,-1,17,-3,-7
17:58:07:712220,9,-3,9,25,-2,7,-1,-4
17:58:07:719787,9,-3,9,25,-2,7,-1,-4
17:58:07:727220,-26,2,2,13,1,4,2,-7
17:58:07:734748,-9,7,-6,-14,2,11,0,10
17:58:07:742963,-9,7,-6,-14,2,11,0,10
17:58:07:743778,6,-5,11,6,2,10,2,4
17:58:07:758419,-14,4,6,18,3,12,3,-5
17:58:07:759217,-14,4,6,18,3,12,3,-5
17:58:07:764722,-4,-2,-10,-12,2,5,-2,-6
17:58:07:772248,-31,-2,-22,-15,-11,19,-11,-12
17:58:07:779802,-31,-2,-22,-15,-11,19,-11,-12
17:58:07:787258,-7,-3,-7,-3,-4,3,3,4
17:58:07:794712,-48,-10,0,6,-2,4,-8,-6
17:58:07:803004,-48,-10,0,6,-2,4,-8,-6
17:58:07:803780,0,0,-15,-10,-3,-14,3,5
17:58:07:817972,13,-5,5,-4,4,9,0,-1
17:58:07:818784,13,-5,5,-4,4,9,0,-1
17:58:07:824733,28,0,-6,0,0,1,1,0
17:58:07:832248,3,-1,8,4,-1,7,5,2
17:58:07:839821,3,-1,8,4,-1,7,5,2
17:58:07:847251,14,-1,7,2,11,49,-1,5
17:58:07:854772,8,-1,0,12,0,-24,-2,-4
17:58:07:862932,8,-1,0,12,0,-24,-2,-4
17:58:07:863723,-10,-14,-8,-9,-9,-12,1,3
17:58:07:877893,9,2,18,9,30,-6,-6,1
17:58:07:878711,9,2,18,9,30,-6,-6,1
17:58:07:884752,-18,-3,-2,-6,-15,-12,-4,-5
17:58:07:892245,2,-7,-11,-13,-16,0,-11,1
17:58:07:899786,2,-7,-11,-13,-16,0,-11,1
17:58:07:907274,-9,-10,-4,-10,-5,-1,-9,-2
17:58:07:914790,13,-3,-35,-37,-7,1,-1,4
17:58:07:922941,13,-3,-35,-37,-7,1,-1,4
17:58:07:923756,14,0,-6,1,3,18,4,2
17:58:07:946117,3,9,9,6,4,15,-8,-6
17:58:07:946925,3,9,9,6,4,15,-8,-6
17:58:07:947747,15,2,14,13,4,-23,-1,-4
17:58:07:952228,1,5,0,-11,-6,-10,1,6
17:58:07:959869,1,5,0,-11,-6,-10,1,6
17:58:07:975415,-6,10,-16,-19,-10,-5,7,4
17:58:07:976286,-12,4,-24,-6,9,-13,-3,0
17:58:07:983063,-12,4,-24,-6,9,-13,-3,0
17:58:07:983961,-1,-9,2,-5,-6,-8,-4,-7
17:58:07:997949,7,-1,0,11,-11,-3,-3,-6
17:58:07:998762,7,-1,0,11,-11,-3,-3,-6
17:58:08:4741,-12,-7,-1,-2,7,7,1,-2
17:58:08:12223,-7,2,-10,-2,4,8,4,1
17:58:08:19817,-7,2,-10,-2,4,8,4,1
17:58:08:27264,-3,4,10,9,-6,-4,2,4
17:58:08:34730,-38,-3,3,5,2,-19,-1,-7
17:58:08:42926,-38,-3,3,5,2,-19,-1,-7
17:58:08:43715,13,2,4,7,10,4,-2,4
17:58:08:57969,5,-7,18,27,-11,-14,-5,0
17:58:08:58760,5,-7,18,27,-11,-14,-5,0
17:58:08:64753,-32,2,-17,-36,1,-1,-3,-4
17:58:08:72240,3,1,1,-11,-4,-26,-3,3
17:58:08:79738,3,1,1,-11,-4,-26,-3,3
17:58:08:87253,3,-5,10,15,-5,1,3,-4
17:58:08:94748,-9,4,5,10,5,10,10,6
17:58:08:102940,-9,4,5,10,5,10,10,6
17:58:08:103721,4,-1,-9,10,6,-33,-11,-9
17:58:08:117909,10,-7,8,-20,1,13,6,4
17:58:08:118725,10,-7,8,-20,1,13,6,4
17:58:08:124761,-1,3,5,11,11,-7,-3,-2
17:58:08:132241,-3,-1,-8,-6,-13,-5,3,-4
17:58:08:139744,-3,-1,-8,-6,-13,-5,3,-4
17:58:08:147190,-1,-5,-7,4,6,13,-5,-1
17:58:08:163569,-4,-2,-17,-29,-1,-2,2,-5
17:58:08:164356,-4,-2,-17,-29,-1,-2,2,-5
17:58:08:165200,10,0,3,-7,-3,-12,2,6
17:58:08:177953,-19,2,1,9,7,15,-1,-4
17:58:08:178824,-19,2,1,9,7,15,-1,-4
17:58:08:192881,16,-3,2,-13,-9,8,-2,4
17:58:08:193673,2,-4,8,14,2,12,-3,-7
17:58:08:199810,2,-4,8,14,2,12,-3,-7
17:58:08:207229,-7,5,1,2,-5,23,11,0
17:58:08:223665,12,-7,16,18,2,-8,7,3
17:58:08:224400,12,-7,16,18,2,-8,7,3
17:58:08:225261,-18,1,-3,-4,-5,-27,-11,-19
17:58:08:237948,8,7,16,-12,-3,16,-2,2
17:58:08:238738,8,7,16,-12,-3,16,-2,2
17:58:08:244732,-1,3,-5,-10,-9,-27,-8,-2
17:58:08:252202,24,-5,4,3,-4,-6,-4,5
17:58:08:259778,24,-5,4,3,-4,-6,-4,5
17:58:08:267239,5,-7,-2,4,4,29,-1,5
17:58:08:274734,-24,5,-9,6,-9,-27,-5,-9
17:58:08:282966,-24,5,-9,6,-9,-27,-5,-9
17:58:08:283758,5,-2,20,14,-2,-3,4,5
17:58:08:306134,-11,-2,-11,2,8,14,2,4
17:58:08:307018,-11,-2,-11,2,8,14,2,4
17:58:08:307672,-24,-1,10,6,-10,13,-9,-8
17:58:08:312198,-30,5,5,13,9,-7,0,2
17:58:08:319857,-30,5,5,13,9,-7,0,2
17:58:08:335420,10,-3,-11,6,-6,12,3,8
17:58:08:336236,-21,-6,-5,3,17,-17,-4,-14
17:58:08:342943,-21,-6,-5,3,17,-17,-4,-14
17:58:08:343716,7,6,-7,9,-5,-4,5,3
17:58:08:357898,25,-5,-9,-23,-14,-20,-1,-3
17:58:08:358699,25,-5,-9,-23,-14,-20,-1,-3
17:58:08:364778,4,9,-6,-10,1,-33,0,9
17:58:08:380472,26,5,-6,-7,-7,-7,-8,-7
17:58:08:381283,26,5,-6,-7,-7,-7,-8,-7
17:58:08:387227,3,-5,2,3,5,-13,-2,4
17:58:08:394738,4,-1,-5,0,-13,-30,-8,0
17:58:08:403381,4,-1,-5,0,-13,-30,-8,0
17:58:08:409777,-19,-1,22,8,0,8,0,-5
17:58:08:417985,17,-1,11,12,9,23,9,0
17:58:08:418735,17,-1,11,12,9,23,9,0
17:58:08:424740,-4,4,7,17,-2,4,3,-9
17:58:08:440484,-13,-2,3,-3,-14,7,0,5
17:58:08:441258,-13,-2,3,-3,-14,7,0,5
17:58:08:447284,4,-2,-17,-19,2,11,1,2
17:58:08:454746,13,0,4,3,10,19,4,8
17:58:08:462281,13,0,4,3,10,19,4,8
17:58:08:469706,2,-3,-5,-11,-13,-11,2,1
17:58:08:477985,-33,-10,-3,-17,10,24,0,-14
17:58:08:478741,-33,-10,-3,-17,10,24,0,-14
17:58:08:484719,5,3,-3,6,-3,-32,-1,-3
17:58:08:500421,6,3,2,-6,-6,25,-1,3
17:58:08:501225,6,3,2,-6,-6,25,-1,3
17:58:08:507200,13,-5,-6,-10,10,1,3,-5
17:58:08:514720,8,4,-6,13,1,-9,-6,4
17:58:08:522280,8,4,-6,13,1,-9,-6,4
17:58:08:529714,2,3,10,5,-1,9,-3,1
17:58:08:537923,8,3,-12,7,6,21,-5,5
17:58:08:538741,8,3,-12,7,6,21,-5,5
17:58:08:544728,-13,1,8,14,-3,11,-2,-3
17:58:08:560423,-1,3,7,12,1,-5,-9,5
17:58:08:561228,-1,3,7,12,1,-5,-9,5
17:58:08:567228,-4,-9,-17,-17,-1,3,-10,-12
17:58:08:574722,5,-5,-8,1,-9,-1,1,0
17:58:08:582297,5,-5,-8,1,-9,-1,1,0
17:58:08:589715,1,-1,-4,-2,1,21,1,7
17:58:08:597921,14,0,4,-8,-2,-6,-5,-6
17:58:08:598696,14,0,4,-8,-2,-6,-5,-6
17:58:08:604798,-10,-8,-6,-13,4,-10,-7,-7
17:58:08:620462,-1,2,15,-1,1,7,10,3
17:58:08:621279,-1,2,15,-1,1,7,10,3
17:58:08:635406,-7,-6,-7,-3,-3,-9,-11,-7
17:58:08:636213,-6,-6,8,-2,-9,3,-4,-2
17:58:08:642289,-6,-6,8,-2,-9,3,-4,-2
17:58:08:649721,-5,-1,-1,-6,4,1,6,5
17:58:08:666170,0,-4,-5,28,4,-30,5,0
17:58:08:666889,0,-4,-5,28,4,-30,5,0
17:58:08:667703,-10,3,-9,2,4,6,0,-1
17:58:08:680420,-7,-6,-13,-5,-6,-39,-4,0
17:58:08:681225,-7,-6,-13,-5,-6,-39,-4,0
17:58:08:687245,16,-1,0,-20,15,12,-1,-3
17:58:08:694775,-9,-4,0,-3,0,-17,0,4
17:58:08:702255,-9,-4,0,-3,0,-17,0,4
17:58:08:709739,-12,2,12,5,-3,-11,4,4
17:58:08:717918,-4,3,3,-15,4,27,7,5
17:58:08:718765,-4,3,3,-15,4,27,7,5
17:58:08:724691,1,1,-11,-2,-13,-35,3,-1
17:58:08:740422,-20,1,-1,9,12,18,2,-9
17:58:08:741227,-20,1,-1,9,12,18,2,-9
17:58:08:747199,7,5,7,9,1,-12,12,0
17:58:08:754718,3,-1,-24,-23,-7,3,7,4
17:58:08:762280,3,-1,-24,-23,-7,3,7,4
17:58:08:769745,-12,-1,7,2,3,10,-13,-6
17:58:08:777941,0,-1,3,4,-7,-35,-6,0
17:58:08:778755,0,-1,3,4,-7,-35,-6,0
17:58:08:784808,7,-7,6,1,-3,19,-6,-4
17:58:08:800425,8,-1,0,-14,-11,-14,-6,-4
17:58:08:801274,8,-1,0,-14,-11,-14,-6,-4
17:58:08:807304,5,4,3,22,-2,7,-1,-2
17:58:08:814731,-4,0,-15,-14,1,-28,-3,-1
17:58:08:822304,-4,0,-15,-14,1,-28,-3,-1
17:58:08:829726,-4,-4,8,13,2,25,1,1
17:58:08:837905,11,3,-6,14,1,21,0,2
17:58:08:838749,11,3,-6,14,1,21,0,2
17:58:08:852267,-1,1,4,-1,1,-47,1,-1
17:58:08:860446,-1,-3,9,16,-6,5,12,1
17:58:08:861246,-1,-3,9,16,-6,5,12,1
17:58:08:867263,12,0,5,3,7,15,7,2
17:58:08:882941,8,-1,3,-7,-6,7,1,-1
17:58:08:883751,8,-1,3,-7,-6,7,1,-1
17:58:08:889709,-11,-5,-5,-26,-9,15,10,-2
17:58:08:897918,-14,2,14,38,3,4,1,-5
17:58:08:898789,-14,2,14,38,3,4,1,-5
17:58:08:904730,0,-5,-2,11,0,-7,-2,-5
17:58:08:920448,9,-3,7,4,3,-11,-2,5
17:58:08:921325,9,-3,7,4,3,-11,-2,5
17:58:08:927261,-14,0,-11,2,-7,-24,-15,-11
17:58:08:934713,0,1,0,-4,6,11,-7,-5
17:58:08:942322,0,1,0,-4,6,11,-7,-5
17:58:08:949764,23,-1,-12,-17,17,26,-4,3
17:58:08:957872,-4,-7,6,-7,5,21,-2,-9
17:58:08:958721,-4,-7,6,-7,5,21,-2,-9
17:58:08:964738,-2,2,-22,-25,-7,-4,4,8
17:58:08:980448,1,-3,-5,-11,2,15,4,-3
17:58:08:981269,1,-3,-5,-11,2,15,4,-3
17:58:08:987243,0,4,7,5,-10,-20,2,3
17:58:08:994757,5,3,-4,-6,-11,-16,-8,0
17:58:09:2315,5,3,-4,-6,-11,-16,-8,0
17:58:09:9728,4,-2,14,-1,-3,-26,1,3
17:58:09:17903,-9,4,3,9,1,16,-3,-10
17:58:09:18718,-9,4,3,9,1,16,-3,-10
17:58:09:24746,0,-9,-14,-14,-9,-10,-3,0
17:58:09:40398,-6,-8,-8,-14,-7,0,-1,-1
17:58:09:41208,-6,-8,-8,-14,-7,0,-1,-1
17:58:09:47263,0,-2,0,-3,-14,-1,-10,-7
17:58:09:54781,-19,1,-5,0,-6,-1,-3,-3
17:58:09:62256,-19,1,-5,0,-6,-1,-3,-3
17:58:09:69712,12,2,9,5,22,9,2,4
17:58:09:77906,14,3,-4,-6,-12,-15,-21,-1
17:58:09:78726,14,3,-4,-6,-12,-15,-21,-1
17:58:09:84789,-14,-4,-23,-29,-15,3,-2,1
17:58:09:100422,-40,1,6,-4,7,12,1,-1
17:58:09:101231,-40,1,6,-4,7,12,1,-1
17:58:09:107206,-6,9,-7,-2,-2,-1,3,2
17:58:09:114729,5,6,-27,-26,-3,-2,6,4
17:58:09:122287,5,6,-27,-26,-3,-2,6,4
17:58:09:129696,-13,-4,-2,16,12,18,0,5
17:58:09:137909,-16,-5,1,1,-1,5,3,-8
17:58:09:138735,-16,-5,1,1,-1,5,3,-8
17:58:09:144736,0,3,-10,-12,-17,-14,-6,0
17:58:09:160463,4,-6,-2,9,16,6,-2,-3
17:58:09:161249,4,-6,-2,9,16,6,-2,-3
17:58:09:167253,-2,-5,8,3,-3,18,1,-9
17:58:09:174704,35,4,-7,-12,-3,19,-1,6
17:58:09:182287,35,4,-7,-12,-3,19,-1,6
17:58:09:189732,5,-10,-3,17,8,22,3,-13
17:58:09:197945,6,-7,-3,-2,7,-5,-1,5
17:58:09:198747,6,-7,-3,-2,7,-5,-1,5
17:58:09:204719,6,8,2,8,1,-2,-3,2
17:58:09:220449,-14,-6,-1,-4,-11,-30,0,-5
17:58:09:221272,-14,-6,-1,-4,-11,-30,0,-5
17:58:09:227212,-6,-4,3,14,0,12,-1,1
17:58:09:234692,-5,4,3,10,0,-12,0,5
17:58:09:242368,-5,4,3,10,0,-12,0,5
17:58:09:249760,11,2,-3,1,1,17,5,9
17:58:09:257879,11,-2,12,-7,10,22,10,3
17:58:09:258696,11,-2,12,-7,10,22,10,3
17:58:09:264737,-14,-4,6,3,4,-8,-4,-16
17:58:09:280452,16,5,5,-4,-11,-43,-1,4
17:58:09:281248,16,5,5,-4,-11,-43,-1,4
17:58:09:287210,-2,-2,10,7,-7,-11,-11,-4
17:58:09:294723,7,-1,3,10,4,15,-8,2
17:58:09:302234,7,-1,3,10,4,15,-8,2
17:58:09:309721,14,-2,0,2,-7,6,0,4
17:58:09:317909,-3,-6,-9,-1,-3,-25,-6,-1
17:58:09:318723,-3,-6,-9,-1,-3,-25,-6,-1
17:58:09:324697,11,-7,-24,-50,-2,15,3,1
17:58:09:340391,2,-1,-4,-5,-10,5,-3,-3
17:58:09:341234,2,-1,-4,-5,-10,5,-3,-3
17:58:09:347271,-7,-1,-27,-33,-9,-28,8,8
17:58:09:354742,6,3,-4,-6,-2,-5,-9,-1
17:58:09:362281,6,3,-4,-6,-2,-5,-9,-1
17:58:09:369699,3,3,9,3,-10,-30,4,11
17:58:09:377918,10,1,0,-13,-4,-14,2,-4
17:58:09:378725,10,1,0,-13,-4,-14,2,-4
17:58:09:392260,-9,-5,-4,3,1,-13,-18,-2
17:58:09:400419,8,2,-1,-6,3,3,3,-3
17:58:09:401230,8,2,-1,-6,3,3,3,-3
17:58:09:407207,12,1,19,20,16,-11,-1,-6
17:58:09:422910,12,1,19,20,16,-11,-1,-6
17:58:09:423743,-4,0,17,21,4,-5,1,2
17:58:09:429775,-16,-6,10,0,-5,9,-3,-2
17:58:09:437689,-16,-6,10,0,-5,9,-3,-2
17:58:09:444722,-3,1,-5,-10,-3,15,2,-1
17:58:09:452216,-29,-5,0,1,0,-12,2,-1
17:58:09:460462,-29,-5,0,1,0,-12,2,-1
17:58:09:461270,0,4,-7,6,3,-2,10,11
17:58:09:467262,-7,6,3,17,6,23,-18,-13
17:58:09:482963,-7,6,3,17,6,23,-18,-13
17:58:09:483733,-19,-1,6,3,-9,9,-6,-5
17:58:09:489727,6,1,9,11,0,2,1,1
17:58:09:505426,6,1,9,11,0,2,1,1
17:58:09:506246,1,-7,-2,-7,-7,-33,-10,-13
17:58:09:512267,3,-1,-13,-6,-2,-6,18,2
17:58:09:520456,3,-1,-13,-6,-2,-6,18,2
17:58:09:521220,1,5,-3,4,-4,-12,-9,-1
17:58:09:527208,-1,-1,-17,-9,3,-4,-3,1
17:58:09:542922,-1,-1,-17,-9,3,-4,-3,1
17:58:09:543724,-20,-7,-3,-8,-2,23,2,-3
17:58:09:549804,-6,8,14,21,-1,19,-3,-7
17:58:09:557919,-6,8,14,21,-1,19,-3,-7
17:58:09:558711,-6,-1,-18,-4,0,-6,-1,4
17:58:09:572296,13,0,-7,-11,2,-11,3,1
17:58:09:580421,13,0,-7,-11,2,-11,3,1
17:58:09:581226,-16,-4,1,-4,-7,-1,-5,-15
17:58:09:587262,-15,-1,-4,13,11,4,10,2
17:58:09:602729,-15,-1,-4,13,11,4,10,2
17:58:09:610411,24,3,-8,8,17,-18,6,6
17:58:09:611203,2,-3,5,9,-12,3,-4,-3
17:58:09:617916,2,-3,5,9,-12,3,-4,-3
17:58:09:618744,8,-2,3,-4,-7,-20,-6,5
17:58:09:632250,-13,3,0,3,-2,-9,-9,-5
17:58:09:640429,-13,3,0,3,-2,-9,-9,-5
17:58:09:641242,12,5,19,23,-3,21,7,0
17:58:09:647332,5,3,11,-23,-3,-5,3,7
17:58:09:662927,5,3,11,-23,-3,-5,3,7
17:58:09:663703,-21,0,-14,-12,-6,9,0,-10
17:58:09:669729,-19,3,-1,-16,3,26,3,3
17:58:09:677916,-19,3,-1,-16,3,26,3,3
17:58:09:678712,-11,-5,-3,3,-1,-19,-2,6
17:58:09:692240,17,-1,-5,-15,-2,-16,-17,-8
17:58:09:700420,17,-1,-5,-15,-2,-16,-17,-8
17:58:09:701181,-23,-2,-5,-8,7,21,1,-10
17:58:09:707225,18,-2,15,0,-6,8,1,1
17:58:09:723373,18,-2,15,0,-6,8,1,1
17:58:09:724178,15,-2,-6,-4,7,-3,-9,3
17:58:09:729738,-8,-2,-10,12,0,-11,-5,7
17:58:09:737894,-8,-2,-10,12,0,-11,-5,7
17:58:09:738695,11,-4,2,-7,0,28,7,2
17:58:09:752234,-17,-3,-11,-4,-10,-4,-5,-6
17:58:09:760470,-17,-3,-11,-4,-10,-4,-5,-6
17:58:09:761233,-14,2,0,6,11,10,3,2
17:58:09:767246,1,-6,5,6,-3,-14,2,-5
17:58:09:782958,1,-6,5,6,-3,-14,2,-5
17:58:09:783759,24,-1,-16,-22,-2,-9,-4,0
17:58:09:789729,18,-1,-10,-21,0,1,-14,-1
17:58:09:797985,18,-1,-10,-21,0,1,-14,-1
17:58:09:798811,-3,-1,-4,-6,-8,-2,-5,7
17:58:09:812203,-7,1,5,15,-1,0,12,-2
17:58:09:820434,-7,1,5,15,-1,0,12,-2
17:58:09:821249,-7,0,21,15,-8,-6,5,-5
17:58:09:827234,-40,-1,-33,-27,-6,7,1,-6
17:58:09:843372,-40,-1,-33,-27,-6,7,1,-6
17:58:09:850386,-26,3,2,21,5,-3,-8,-8
17:58:09:851186,10,-3,-2,-3,2,16,4,4
17:58:09:857941,10,-3,-2,-3,2,16,4,4
17:58:09:858738,6,-1,-3,-21,2,-3,6,-1
17:58:09:872229,10,4,3,11,3,-6,2,0
17:58:09:880457,10,4,3,11,3,-6,2,0
17:58:09:881235,3,3,-15,-2,6,8,4,3
17:58:09:887198,6,-10,-10,-17,-4,-16,-5,0
17:58:09:903021,6,-10,-10,-17,-4,-16,-5,0
17:58:09:903734,24,4,5,-2,-7,-17,1,3
17:58:09:909706,17,-1,4,8,5,16,-8,0
17:58:09:917944,17,-1,4,8,5,16,-8,0
17:58:09:918824,-1,0,-1,17,-4,12,-3,-6
17:58:09:932186,-1,-8,16,45,3,-2,6,3
17:58:09:940507,-1,-8,16,45,3,-2,6,3
17:58:09:941231,-20,3,-7,-17,-7,-9,-9,-8
17:58:09:947228,8,2,-15,-18,-4,-2,2,2
17:58:09:962928,8,2,-15,-18,-4,-2,2,2
17:58:09:963724,-4,-9,-8,-16,-10,-11,-1,-5
17:58:09:969746,-1,4,12,-7,-2,10,9,4
17:58:09:977939,-1,4,12,-7,-2,10,9,4
17:58:09:978726,14,-6,10,24,10,12,2,-1
17:58:09:992200,-21,0,4,-7,-6,-9,-3,-4
17:58:10:512,-21,0,4,-7,-6,-9,-3,-4
17:58:10:1224,-25,4,-6,-29,-12,16,-5,0
17:58:10:7229,-8,1,-7,-1,7,-6,-7,-6
17:58:10:31161,-8,1,-7,-1,7,-6,-7,-6
17:58:10:31913,-22,-10,2,-2,4,5,0,0
17:58:10:32749,-7,-1,-6,-21,-1,35,-6,-2
17:58:10:37907,-7,-1,-6,-21,-1,35,-6,-2
17:58:10:38702,1,-4,13,18,7,-5,8,4
17:58:10:52221,16,-12,-3,8,2,-18,4,5
17:58:10:60460,16,-12,-3,8,2,-18,4,5
17:58:10:61238,1,0,7,33,5,-9,-6,2
17:58:10:67238,-18,4,24,15,5,-8,3,-5
17:58:10:82952,-18,4,24,15,5,-8,3,-5
17:58:10:83750,8,-1,3,-14,-8,-14,2,9
17:58:10:89689,10,4,4,7,-5,-21,-6,-1
17:58:10:97966,10,4,4,7,-5,-21,-6,-1
17:58:10:98749,8,-1,7,9,-1,-2,4,-2
17:58:10:112220,4,3,-5,8,0,-10,1,-2
17:58:10:120470,4,3,-5,8,0,-10,1,-2
17:58:10:121245,-6,-3,-10,-8,4,-8,-2,-1
17:58:10:127227,9,6,-7,4,-1,-3,4,5
17:58:10:142962,9,6,-7,4,-1,-3,4,5
17:58:10:143738,-1,0,-7,11,-3,0,0,1
17:58:10:149741,6,1,-1,-14,-2,4,0,2
17:58:10:165434,6,1,-1,-14,-2,4,0,2
17:58:10:166230,-3,1,-16,-37,-7,1,-7,-7
17:58:10:172222,11,-5,-12,-17,3,-6,-5,5
17:58:10:180439,11,-5,-12,-17,3,-6,-5,5
17:58:10:181241,-6,-9,2,-3,2,-4,-2,-3
17:58:10:187209,-19,-4,-2,8,-3,-1,3,-2
17:58:10:202953,-19,-4,-2,8,-3,-1,3,-2
17:58:10:203728,-2,-2,-7,-5,-6,12,-6,-6
17:58:10:209701,-14,6,10,1,-5,5,7,-1
17:58:10:217955,-14,6,10,1,-5,5,7,-1
17:58:10:218765,-9,0,2,4,1,-17,-9,-8
17:58:10:232203,-29,-9,-7,13,-1,0,-3,-3
17:58:10:240454,-29,-9,-7,13,-1,0,-3,-3
17:58:10:241228,18,4,-1,16,25,11,8,8
17:58:10:247203,10,-4,-6,-18,1,-5,-9,-4
17:58:10:262931,10,-4,-6,-18,1,-5,-9,-4
17:58:10:263733,-9,-1,2,-24,-30,10,-3,-9
17:58:10:269686,-5,2,20,34,15,1,2,1
17:58:10:277922,-5,2,20,34,15,1,2,1
17:58:10:278745,-16,1,-19,-30,-4,-17,8,5
17:58:10:292254,31,6,14,-6,-10,2,6,0
17:58:10:300423,31,6,14,-6,-10,2,6,0
17:58:10:301229,-5,-12,13,46,4,-7,3,-7
17:58:10:314751,-16,-3,-6,14,10,-1,-2,-8
17:58:10:323004,-16,-3,-6,14,10,-1,-2,-8
17:58:10:323734,31,5,5,27,6,8,5,8
17:58:10:329808,12,-3,6,-8,-15,-7,-2,2
17:58:10:337270,12,-3,6,-8,-15,-7,-2,2
17:58:10:344685,7,-1,10,-5,-10,1,3,-2
17:58:10:352189,-7,-4,-9,1,-16,-11,-6,-13
17:58:10:360472,-7,-4,-9,1,-16,-11,-6,-13
17:58:10:361246,0,15,4,-5,14,5,-4,4
17:58:10:374750,16,-11,4,-8,-12,-2,-2,3
17:58:10:382938,16,-11,4,-8,-12,-2,-2,3
17:58:10:383732,11,-1,-11,-3,14,-3,-8,-2
17:58:10:389733,-9,13,-35,-39,-10,-32,0,7
17:58:10:397277,-9,13,-35,-39,-10,-32,0,7
17:58:10:404695,-11,1,4,13,13,-13,-9,-9
17:58:10:412207,3,-2,-2,-5,33,24,5,1
17:58:10:420441,3,-2,-2,-5,33,24,5,1
17:58:10:421261,-12,1,-18,-13,0,14,9,7
17:58:10:434835,0,-3,20,55,-1,13,3,-5
17:58:10:442979,0,-3,20,55,-1,13,3,-5
17:58:10:443717,7,-3,3,-1,-13,-11,-4,-3
17:58:10:449733,-47,-9,10,-10,-12,7,-14,-12
17:58:10:457360,-47,-9,10,-10,-12,7,-14,-12
17:58:10:464731,-12,-5,3,-1,-14,-9,1,-2
17:58:10:472299,16,2,-4,-17,5,-21,0,-3
17:58:10:480408,16,2,-4,-17,5,-21,0,-3
17:58:10:481215,-5,-3,-16,-8,-2,9,1,5
17:58:10:494738,-2,-6,-19,-33,20,21,9,0
17:58:10:502976,-2,-6,-19,-33,20,21,9,0
17:58:10:503762,4,3,17,-2,-4,1,4,3
17:58:10:509726,30,0,-9,6,-19,-10,0,6
17:58:10:517247,30,0,-9,6,-19,-10,0,6
17:58:10:524725,6,-4,-6,2,6,0,-9,-6
17:58:10:532262,2,10,-8,13,4,-11,-4,1
17:58:10:540429,2,10,-8,13,4,-11,-4,1
17:58:10:541213,5,-8,-8,-21,-9,17,1,-1
17:58:10:554760,7,3,7,-12,-23,-7,-4,4
17:58:10:562909,7,3,7,-12,-23,-7,-4,4
17:58:10:563688,1,1,3,-2,5,-14,0,9
17:58:10:569752,-19,0,6,-3,-14,-13,-14,-8
17:58:10:577254,-19,0,6,-3,-14,-13,-14,-8
17:58:10:584708,-15,-1,-16,-5,31,1,1,-5
17:58:10:592260,-33,2,3,14,7,10,-3,-7
17:58:10:600440,-33,2,3,14,7,10,-3,-7
17:58:10:601244,18,0,-11,-50,-24,-27,4,-2
17:58:10:614773,15,3,11,-8,13,12,3,-7
17:58:10:622936,15,3,11,-8,13,12,3,-7
17:58:10:623716,-6,5,6,12,-5,6,-3,3
17:58:10:629721,3,-1,6,-18,-7,-17,-8,-3
17:58:10:637281,3,-1,6,-18,-7,-17,-8,-3
17:58:10:644715,-14,-5,17,48,-7,9,1,-5
17:58:10:652197,19,11,-18,-12,10,26,7,13
17:58:10:660512,19,11,-18,-12,10,26,7,13
17:58:10:661242,3,6,-16,-17,-28,-10,-7,3
17:58:10:674712,-15,-3,13,30,11,-15,-7,-4
17:58:10:682933,-15,-3,13,30,11,-15,-7,-4
17:58:10:683734,11,-3,14,7,14,37,14,6
17:58:10:689697,-13,-5,-10,7,-7,-17,-6,-8
17:58:10:697291,-13,-5,-10,7,-7,-17,-6,-8
17:58:10:704744,-17,-5,18,17,-2,-4,-12,-11
17:58:10:712222,-7,-1,-19,-14,28,-2,5,3
17:58:10:720448,-7,-1,-19,-14,28,-2,5,3
17:58:10:721267,30,1,4,4,0,0,-5,-8
17:58:10:734734,6,-1,23,9,-9,-3,4,1
17:58:10:742944,6,-1,23,9,-9,-3,4,1
17:58:10:743757,19,-2,20,13,18,8,6,5
17:58:10:749736,21,-4,-17,-13,0,34,3,6
17:58:10:757342,21,-4,-17,-13,0,34,3,6
17:58:10:764778,0,-1,-2,-37,-21,-5,-5,0
17:58:10:772253,15,-5,9,16,-5,6,-7,1
17:58:10:780428,15,-5,9,16,-5,6,-7,1
17:58:10:781231,-42,1,-28,-23,-4,-20,-4,-5
17:58:10:794732,-7,5,1,-8,-15,-7,-7,-6
17:58:10:803011,-7,5,1,-8,-15,-7,-7,-6
17:58:10:803767,22,-8,-17,-26,-5,-6,4,9
17:58:10:809725,13,4,-2,8,-6,-17,-8,-11
17:58:10:817244,13,4,-2,8,-6,-17,-8,-11
17:58:10:824745,-17,-6,-12,-14,5,-3,-1,-2
17:58:10:832251,-4,0,7,-5,-9,-11,-13,0
17:58:10:840476,-4,0,7,-5,-9,-11,-13,0
17:58:10:841221,-46,1,19,30,-7,1,-6,-7
17:58:10:854729,2,-6,-25,-29,48,10,6,1
17:58:10:862916,2,-6,-25,-29,48,10,6,1
17:58:10:863712,35,-1,-11,-21,8,1,0,4
17:58:10:869743,-74,2,-23,-7,-24,4,-1,-5
17:58:10:877288,-74,2,-23,-7,-24,4,-1,-5
17:58:10:884720,-17,-1,-3,15,10,-3,1,1
17:58:10:892211,7,3,-9,1,3,19,6,9
17:58:10:900439,7,3,-9,1,3,19,6,9
17:58:10:901238,7,0,1,26,-25,-22,-21,-23
17:58:10:914767,21,0,-12,-5,20,8,18,16
17:58:10:922921,21,0,-12,-5,20,8,18,16
17:58:10:923711,-37,-3,-13,0,-4,-5,1,-2
17:58:10:929682,29,-4,31,10,-10,-6,-5,-11
17:58:10:937320,29,-4,31,10,-10,-6,-5,-11
17:58:10:944702,41,1,25,-16,-1,8,13,14
17:58:10:952192,-15,9,-6,1,-43,-4,-8,0
17:58:10:960492,-15,9,-6,1,-43,-4,-8,0
17:58:10:961263,-97,-7,-9,-4,36,16,3,-13
17:58:10:974704,37,3,-4,-9,-5,3,10,19
17:58:10:982929,37,3,-4,-9,-5,3,10,19
17:58:10:983723,10,0,-20,9,-33,-23,-8,-8
17:58:10:989710,-34,-5,3,25,29,9,3,-2
17:58:10:997320,-34,-5,3,25,29,9,3,-2
17:58:11:4712,0,-3,2,-8,-4,6,-2,5
17:58:11:12214,-9,-10,22,49,-13,-9,-10,-19
17:58:11:20486,-9,-10,22,49,-13,-9,-10,-19
17:58:11:21259,37,12,9,11,27,22,10,20
17:58:11:34731,-4,-4,-1,-10,-31,-16,-7,-2
17:58:11:42947,-4,-4,-1,-10,-31,-16,-7,-2
17:58:11:43734,2,0,22,49,39,-11,-3,-10
17:58:11:49722,7,-6,8,-11,-3,9,-8,-2
17:58:11:57310,7,-6,8,-11,-3,9,-8,-2
17:58:11:64794,-25,-3,3,12,-14,-28,-16,-21
17:58:11:72225,0,-6,-2,-18,5,26,3,6
17:58:11:80423,0,-6,-2,-18,5,26,3,6
17:58:11:81226,-18,-4,25,37,8,12,0,-4
17:58:11:94715,-12,4,-11,-34,-10,-9,9,10
17:58:11:111167,-12,4,-11,-34,-10,-9,9,10
17:58:11:111906,-33,-4,-20,-15,-27,-10,-3,-3
17:58:11:112709,-6,-5,-4,-2,19,6,8,7
17:58:11:117353,-6,-5,-4,-2,19,6,8,7
17:58:11:124705,44,7,-17,-22,-25,-16,-1,-2
17:58:11:141075,-3,1,5,-2,2,-2,2,-5
17:58:11:141900,-3,1,5,-2,2,-2,2,-5
17:58:11:142730,36,3,-10,-26,-16,9,1,6
17:58:11:154748,5,-3,21,-6,-5,6,-8,-7
17:58:11:162942,5,-3,21,-6,-5,6,-8,-7
17:58:11:163735,25,-11,2,-2,11,10,-1,14
17:58:11:169696,-7,-9,-14,-6,7,-2,6,-9
17:58:11:177271,-7,-9,-14,-6,7,-2,6,-9
17:58:11:184727,-1,6,19,5,16,20,10,10
17:58:11:192219,-11,-8,-19,-7,-1,-20,-7,-14
17:58:11:200462,-11,-8,-19,-7,-1,-20,-7,-14
17:58:11:201231,16,-2,27,8,11,6,9,2
17:58:11:214700,-5,0,-9,-5,-1,-16,-9,-6
17:58:11:223026,-5,0,-9,-5,-1,-16,-9,-6
17:58:11:223739,22,9,-3,-2,-5,3,-5,1
17:58:11:229733,14,-3,-14,-11,9,-17,-2,-3
17:58:11:237333,14,-3,-14,-11,9,-17,-2,-3
17:58:11:244735,16,-1,-7,-11,0,3,14,13
17:58:11:252227,-21,-5,-18,9,-29,-2,-9,-14
17:58:11:259804,-21,-5,-18,9,-29,-2,-9,-14
17:58:11:267245,-13,2,-30,-12,-7,-3,-2,-3
17:58:11:274722,17,1,4,7,-9,-6,-1,6
17:58:11:282939,17,1,4,7,-9,-6,-1,6
17:58:11:283712,-21,-3,-22,-20,2,12,0,-9
17:58:11:297909,-15,-4,16,22,6,-10,-4,-8
17:58:11:298723,-15,-4,16,22,6,-10,-4,-8
17:58:11:304740,31,-7,5,-2,3,-12,0,7
17:58:11:312238,13,1,-19,-35,3,-4,3,7
17:58:11:319741,13,1,-19,-35,3,-4,3,7
17:58:11:327197,-28,14,-12,-22,-12,-17,-6,-1
17:58:11:334754,-4,19,18,26,13,15,4,14
17:58:11:342938,-4,19,18,26,13,15,4,14
17:58:11:343714,-21,7,-2,-7,-13,-3,-12,-8
17:58:11:357893,8,11,-34,-47,11,13,7,10
17:58:11:358710,8,11,-34,-47,11,13,7,10
17:58:11:364694,17,-1,4,-4,-11,9,5,4
17:58:11:372187,-24,4,-7,-12,47,13,-2,1
17:58:11:387912,-24,4,-7,-12,47,13,-2,1
17:58:11:388717,-19,-8,-1,-3,-7,-4,-7,-6
17:58:11:394754,11,-4,19,24,-9,2,6,11
17:58:11:402922,11,-4,19,24,-9,2,6,11
17:58:11:403714,-27,5,8,6,-26,-25,-22,-21
17:58:11:417908,6,3,30,38,1,18,6,4
17:58:11:418728,6,3,30,38,1,18,6,4
17:58:11:424764,-9,-7,-12,0,0,-1,2,-8
17:58:11:432260,23,-7,1,-36,-25,-28,-2,0
17:58:11:439809,23,-7,1,-36,-25,-28,-2,0
17:58:11:447208,-4,-11,-4,20,16,17,-14,-3
17:58:11:454737,15,7,-1,-24,-7,6,-7,1
17:58:11:462938,15,7,-1,-24,-7,6,-7,1
17:58:11:463723,1,-8,11,4,9,-10,7,2
17:58:11:477909,15,10,0,8,-19,-16,-1,8
17:58:11:478728,15,10,0,8,-19,-16,-1,8
17:58:11:484723,30,7,-7,-18,20,11,7,11
17:58:11:492249,-8,-16,9,19,5,-4,-4,-9
17:58:11:499787,-8,-16,9,19,5,-4,-4,-9
17:58:11:507235,-13,-1,7,14,-1,3,3,6
17:58:11:514728,-16,-6,-11,-11,-1,-8,-9,-11
17:58:11:522931,-16,-6,-11,-11,-1,-8,-9,-11
17:58:11:523750,-11,-4,-13,-29,-11,-2,-14,-1
17:58:11:537916,-46,4,3,36,0,-2,8,-10
17:58:11:538765,-46,4,3,36,0,-2,8,-10
17:58:11:544721,2,1,-11,7,3,-15,0,2
17:58:11:552235,1,-13,34,29,2,6,-2,-4
17:58:11:559786,1,-13,34,29,2,6,-2,-4
17:58:11:567239,-13,-5,-6,-9,2,-11,-1,-8
17:58:11:574715,18,4,-19,-6,1,7,5,6
17:58:11:582971,18,4,-19,-6,1,7,5,6
17:58:11:583730,21,-1,-6,-1,14,-4,-4,-8
17:58:11:597933,7,6,-15,22,8,3,2,8
17:58:11:598740,7,6,-15,22,8,3,2,8
17:58:11:604736,-7,-1,-5,16,7,-14,-4,-4
17:58:11:612247,13,-19,-5,-16,-7,8,0,-3
17:58:11:619798,13,-19,-5,-16,-7,8,0,-3
17:58:11:627238,-14,-1,3,12,-11,2,7,2
17:58:11:634734,-9,2,-9,-7,-16,8,-6,-10
17:58:11:642901,-9,2,-9,-7,-16,8,-6,-10
17:58:11:643701,31,-1,-4,-32,-9,0,8,7
17:58:11:657893,-18,-2,-9,3,6,-13,-10,-18
17:58:11:658688,-18,-2,-9,3,6,-13,-10,-18
17:58:11:664733,23,8,16,10,0,12,12,14
17:58:11:672245,-25,-1,-1,3,-34,-25,-12,1
17:58:11:679745,-25,-1,-1,3,-34,-25,-12,1
17:58:11:695395,9,6,3,17,-14,-4,-5,-1
17:58:11:696176,9,8,18,-14,-7,3,4,0
17:58:11:702963,9,8,18,-14,-7,3,4,0
17:58:11:703741,0,1,-3,-21,4,8,6,3
17:58:11:717916,5,1,-2,-12,10,7,-4,4
17:58:11:718795,5,1,-2,-12,10,7,-4,4
17:58:11:724730,7,11,21,1,-4,-12,-7,-8
17:58:11:732251,-35,-12,-11,-20,13,19,1,1
17:58:11:739803,-35,-12,-11,-20,13,19,1,1
17:58:11:747231,5,-3,0,0,-8,-7,-6,2
17:58:11:754721,-12,2,-6,-14,-14,-12,-14,-7
17:58:11:762922,-12,2,-6,-14,-14,-12,-14,-7
17:58:11:763785,-11,-7,10,-6,4,4,-6,-2
17:58:11:777920,-14,11,2,-3,9,-12,4,-3
17:58:11:778766,-14,11,2,-3,9,-12,4,-3
17:58:11:784750,-19,-8,-24,-12,-3,1,-9,-7
17:58:11:792221,42,-13,-7,-1,4,1,3,6
17:58:11:799761,42,-13,-7,-1,4,1,3,6
17:58:11:807324,-12,-2,3,-9,-3,-2,11,13
17:58:11:814772,-1,2,-19,-6,4,-16,11,-1
17:58:11:822986,-1,2,-19,-6,4,-16,11,-1
17:58:11:823780,-4,0,-22,-5,-6,-3,1,-3
17:58:11:837955,18,12,-11,-17,6,-4,7,0
17:58:11:838718,18,12,-11,-17,6,-4,7,0
17:58:11:844748,-7,-19,12,42,2,7,0,-16
17:58:11:852263,16,-9,30,49,12,12,5,6
17:58:11:859751,16,-9,30,49,12,12,5,6
17:58:11:867208,0,-1,-15,0,16,0,-11,-13
17:58:11:874689,-16,3,6,6,-10,-5,-15,-6
17:58:11:882974,-16,3,6,6,-10,-5,-15,-6
17:58:11:883741,1,-12,9,0,-7,14,4,5
17:58:11:897906,-19,1,-5,-13,2,-6,2,-1
17:58:11:898720,-19,1,-5,-13,2,-6,2,-1
17:58:11:904684,10,14,-36,-50,3,-21,-4,-3
17:58:11:912190,22,5,2,-16,-3,4,2,4
17:58:11:919793,22,5,2,-16,-3,4,2,4
17:58:11:927202,-23,-2,1,-7,-6,-5,-21,-8
17:58:11:934731,-29,0,20,8,-8,12,7,-5
17:58:11:942968,-29,0,20,8,-8,12,7,-5
17:58:11:943745,-17,8,15,6,8,5,-14,-5
17:58:11:958044,19,-9,-13,-10,-8,-5,-1,2
17:58:11:958747,19,-9,-13,-10,-8,-5,-1,2
17:58:11:972899,8,4,13,15,-2,-3,9,7
17:58:11:973669,-10,-3,20,19,7,-4,0,-7
17:58:11:979759,-10,-3,20,19,7,-4,0,-7
17:58:11:987232,6,13,-7,-16,-28,-14,-2,-1
17:58:11:994704,25,-2,-10,12,6,8,5,0
17:58:12:2950,25,-2,-10,12,6,8,5,0
17:58:12:3749,-1,1,3,7,-5,-8,7,-3
17:58:12:17914,16,17,-25,-11,3,-11,0,6
17:58:12:18737,16,17,-25,-11,3,-11,0,6
17:58:12:24717,5,-17,5,9,-3,0,2,8
17:58:12:32257,-20,-39,15,6,6,-2,-3,-15
17:58:12:39785,-20,-39,15,6,6,-2,-3,-15
17:58:12:47229,21,-5,-18,-25,1,17,11,13
17:58:12:54698,9,7,16,20,8,9,0,-5
17:58:12:62965,9,7,16,20,8,9,0,-5
17:58:12:63752,15,-7,3,-9,18,9,4,-3
17:58:12:77938,18,-14,-7,-22,-10,-4,-6,5
17:58:12:78750,18,-14,-7,-22,-10,-4,-6,5
17:58:12:84744,-33,6,0,10,-13,6,-1,-3
17:58:12:92209,-15,1,-2,4,-7,0,-11,-2
17:58:12:99826,-15,1,-2,4,-7,0,-11,-2
17:58:12:107213,7,-1,6,22,15,-4,-3,1
17:58:12:114752,10,-10,-35,-42,-14,-3,3,10
17:58:12:122918,10,-10,-35,-42,-14,-3,3,10
17:58:12:123689,0,3,11,34,-8,-2,0,-1
17:58:12:137970,-37,3,-7,-18,0,-2,-2,-10
17:58:12:138785,-37,3,-7,-18,0,-2,-2,-10
17:58:12:144717,14,-2,11,28,5,-6,0,1
17:58:12:152235,-12,8,7,25,7,2,-4,-5
17:58:12:159751,-12,8,7,25,7,2,-4,-5
17:58:12:167249,7,5,10,-4,-7,-8,-4,-15
17:58:12:174767,39,13,-13,-12,-1,6,5,2
17:58:12:182970,39,13,-13,-12,-1,6,5,2
17:58:12:183767,-1,12,-8,-31,20,5,10,7
17:58:12:197937,27,9,20,8,8,23,6,5
17:58:12:198771,27,9,20,8,8,23,6,5
17:58:12:204745,-6,-12,-6,-15,-17,-10,-14,-13
17:58:12:220393,4,-3,-10,-1,0,-10,-11,-2
17:58:12:221230,4,-3,-10,-1,0,-10,-11,-2
17:58:12:227247,23,9,-19,-18,3,6,-3,2
17:58:12:234755,1,2,3,1,-7,-9,1,7
17:58:12:242278,1,2,3,1,-7,-9,1,7
17:58:12:249765,-10,-26,0,9,8,9,11,-2
17:58:12:257911,-27,-1,-1,18,-8,-10,-3,-2
17:58:12:258720,-27,-1,-1,18,-8,-10,-3,-2
17:58:12:264701,-31,-7,-15,-4,-10,12,-10,-6
17:58:12:280392,-29,-25,-3,1,9,-3,2,1
17:58:12:281257,-29,-25,-3,1,9,-3,2,1
17:58:12:287261,-11,-6,-6,-6,-12,-13,-8,-12
17:58:12:294723,37,6,23,12,-1,-2,7,10
17:58:12:302268,37,6,23,12,-1,-2,7,10
17:58:12:309727,4,6,2,22,5,1,0,3
17:58:12:317922,-10,3,-4,-10,-9,-3,-4,5
17:58:12:318748,-10,3,-4,-10,-9,-3,-4,5
17:58:12:324717,12,10,-4,12,17,2,1,7
17:58:12:340422,2,14,-19,-20,-15,8,-9,-6
17:58:12:341227,2,14,-19,-20,-15,8,-9,-6
17:58:12:347208,38,4,3,-17,-5,-1,3,8
17:58:12:355407,34,-1,-2,-9,-1,-12,-5,-9
17:58:12:356251,34,-1,-2,-9,-1,-12,-5,-9
17:58:12:369701,2,-13,6,-2,4,12,18,9
17:58:12:377905,-57,-15,14,11,7,-2,-7,-19
17:58:12:378802,-57,-15,14,11,7,-2,-7,-19
17:58:12:384711,14,-17,3,-1,-7,-13,0,7
17:58:12:400537,-80,1,-8,-11,2,-8,1,-17
17:58:12:401205,-80,1,-8,-11,2,-8,1,-17
17:58:12:407267,-6,0,11,33,-7,-20,-8,3
17:58:12:415420,17,16,-3,16,0,-3,2,0
17:58:12:416217,17,16,-3,16,0,-3,2,0
17:58:12:429750,-6,-1,1,7,4,-1,-14,-17
17:58:12:437882,1,-16,-13,-11,1,1,13,3
17:58:12:438706,1,-16,-13,-11,1,1,13,3
17:58:12:444720,-29,11,-5,-6,-9,-2,-11,-13
17:58:12:460371,1,0,-7,-7,7,10,3,5
17:58:12:461222,1,0,-7,-7,7,10,3,5
17:58:12:467262,-29,21,-3,-10,5,6,0,-6
17:58:12:475407,2,4,-8,-27,-11,1,-4,8
17:58:12:476231,2,4,-8,-27,-11,1,-4,8
17:58:12:489771,-13,-2,-7,-7,10,5,-2,-8
17:58:12:497904,20,-1,-6,-7,-6,-1,-5,3
17:58:12:498747,20,-1,-6,-7,-6,-1,-5,3
17:58:12:504681,33,-14,15,4,-13,-2,2,-5
17:58:12:520407,-10,2,27,8,0,9,3,-1
17:58:12:521215,-10,2,27,8,0,9,3,-1
17:58:12:527231,-15,13,4,4,-6,-5,6,-2
17:58:12:535394,-17,14,-23,-15,-3,-5,-9,-5
17:58:12:536244,-17,14,-23,-15,-3,-5,-9,-5
17:58:12:549796,-31,2,-18,3,-13,-15,-14,-16
17:58:12:557904,27,1,-15,1,16,-1,5,11
17:58:12:558716,27,1,-15,1,16,-1,5,11
17:58:12:564761,-3,-7,-2,-9,-7,-25,-5,-9
17:58:12:580468,11,3,11,15,7,-7,-7,3
17:58:12:581250,11,3,11,15,7,-7,-7,3
17:58:12:587242,5,2,3,-3,-1,-3,2,13
17:58:12:595397,-36,-8,-1,17,-9,2,2,-10
17:58:12:596211,-36,-8,-1,17,-9,2,2,-10
17:58:12:609736,10,2,6,-16,2,15,5,5
17:58:12:617938,24,-20,-9,-6,-11,-8,-5,-8
17:58:12:618733,24,-20,-9,-6,-11,-8,-5,-8
17:58:12:624807,-4,7,14,6,21,12,3,4
17:58:12:640481,2,-11,3,4,-14,11,-22,-14
17:58:12:641240,2,-11,3,4,-14,11,-22,-14
17:58:12:647238,4,6,-13,-25,-10,-15,4,4
17:58:12:662897,9,3,11,20,4,-16,10,9
17:58:12:663709,9,3,11,20,4,-16,10,9
17:58:12:669697,-17,-14,-15,-28,-6,13,1,0
17:58:12:677944,7,6,21,0,26,9,7,0
17:58:12:678751,7,6,21,0,26,9,7,0
17:58:12:684731,-16,19,6,15,-10,1,-1,1
17:58:12:700435,-16,19,6,15,-10,1,-1,1
17:58:12:701246,-27,-6,-2,0,-14,-8,-6,-12
17:58:12:707207,-11,-12,-22,-29,17,8,9,11
17:58:12:722933,-11,-12,-22,-29,17,8,9,11
17:58:12:723731,-15,12,-19,-1,5,6,3,-1
17:58:12:729707,35,-7,-4,27,-4,-2,-6,-4
17:58:12:746079,35,-7,-4,27,-4,-2,-6,-4
17:58:12:746881,37,-6,2,-7,-3,-3,9,14
17:58:12:747710,12,-6,27,13,6,8,-8,-5
17:58:12:760417,12,-6,27,13,6,8,-8,-5
17:58:12:761228,22,8,16,11,-5,2,6,14
17:58:12:767242,9,-21,-16,-12,4,-15,-7,-3
17:58:12:782938,9,-21,-16,-12,4,-15,-7,-3
17:58:12:783709,-6,-7,-16,-28,-7,-7,-10,-2
17:58:12:789739,25,-5,1,-9,-8,-13,5,11
17:58:12:797905,25,-5,1,-9,-8,-13,5,11
17:58:12:798721,-33,-23,18,20,-1,-1,-2,-18
17:58:12:804740,-33,6,-6,-8,6,-1,7,2
17:58:12:820440,-33,6,-6,-8,6,-1,7,2
17:58:12:821207,15,10,-6,5,-11,-7,-7,3
17:58:12:827247,-20,15,-17,-20,-8,-2,-17,-17
17:58:12:842950,-20,15,-17,-20,-8,-2,-17,-17
17:58:12:843757,12,14,4,-10,6,4,3,4
17:58:12:849820,33,11,-1,-1,-7,-12,-19,-6
17:58:12:857908,33,11,-1,-1,-7,-12,-19,-6
17:58:12:858703,0,-11,-8,14,-4,-5,-3,-2
17:58:12:864802,21,9,15,3,8,3,10,10
17:58:12:880481,21,9,15,3,8,3,10,10
17:58:12:881246,-7,-9,-4,0,-6,-1,-3,-5
17:58:12:887262,-26,5,1,3,7,7,8,8
17:58:12:902982,-26,5,1,3,7,7,8,8
17:58:12:903736,33,-11,-22,-30,6,3,8,9
17:58:12:909701,1,-12,9,32,-5,-3,-5,-12
17:58:12:917985,1,-12,9,32,-5,-3,-5,-12
17:58:12:918748,-30,31,18,9,2,2,-1,1
17:58:12:924757,18,-11,-7,-2,-5,11,6,9
17:58:12:940464,18,-11,-7,-2,-5,11,6,9
17:58:12:941264,8,-9,-13,-8,3,11,-7,-24
17:58:12:947196,-25,-2,5,17,2,9,6,0
17:58:12:962961,-25,-2,5,17,2,9,6,0
17:58:12:963724,3,5,17,2,-13,-3,-11,1
17:58:12:969714,-22,-19,7,0,-5,-1,-6,-13
17:58:12:977961,-22,-19,7,0,-5,-1,-6,-13
17:58:12:978770,-34,0,-3,-8,-1,-9,2,1
17:58:12:984739,6,-5,-5,-22,-5,13,-5,-6
17:58:13:509,6,-5,-5,-22,-5,13,-5,-6
17:58:13:1261,9,9,-26,-27,-3,-3,7,-3
17:58:13:7203,26,0,6,-6,7,21,14,8
17:58:13:22955,26,0,6,-6,7,21,14,8
17:58:13:23705,25,-3,22,33,-9,-9,-5,-5
17:58:13:29690,-5,19,18,7,3,7,2,-4
17:58:13:37936,-5,19,18,7,3,7,2,-4
17:58:13:38757,-7,-1,3,2,1,2,-3,-2
17:58:13:44708,-40,-2,-4,5,-10,-17,-6,-6
17:58:13:60437,-40,-2,-4,5,-10,-17,-6,-6
17:58:13:61249,-46,1,-8,-25,8,3,2,6
17:58:13:67209,2,0,-15,0,-6,-2,-8,-5
17:58:13:82923,2,0,-15,0,-6,-2,-8,-5
17:58:13:83709,16,-4,-10,-18,-5,1,0,4
17:58:13:89688,0,-25,-9,7,3,-14,6,12
17:58:13:97935,0,-25,-9,7,3,-14,6,12
17:58:13:98726,-40,5,13,3,-21,-20,-11,-25
17:58:13:104713,-62,-20,-12,-3,19,-12,-8,3
17:58:13:120422,-62,-20,-12,-3,19,-12,-8,3
17:58:13:121214,-2,-11,-11,7,4,4,8,9
17:58:13:127178,33,-4,9,13,0,0,5,-3
17:58:13:142917,33,-4,9,13,0,0,5,-3
17:58:13:143715,-19,-1,10,12,8,4,-1,4
17:58:13:149685,34,-2,-5,-11,-8,3,4,8
17:58:13:157924,34,-2,-5,-11,-8,3,4,8
17:58:13:158729,9,-1,4,19,3,-5,9,10
17:58:13:172264,-37,-13,7,7,1,1,-1,-1
17:58:13:180415,-37,-13,7,7,1,1,-1,-1
17:58:13:181211,8,-18,-10,-14,-1,24,-5,9
17:58:13:187183,8,15,-8,-4,-9,-5,-10,-5
17:58:13:202997,8,15,-8,-4,-9,-5,-10,-5
17:58:13:203727,10,5,11,28,10,-5,0,4
17:58:13:209737,31,-32,-14,-2,-2,-4,-7,-5
17:58:13:217920,31,-32,-14,-2,-2,-4,-7,-5
17:58:13:218738,17,5,-16,-4,-8,-14,-8,-27
17:58:13:232251,18,15,4,6,-2,3,8,7
17:58:13:240489,18,15,4,6,-2,3,8,7
17:58:13:241271,34,-18,-7,-13,-3,-10,0,3
17:58:13:247242,-18,19,-10,-9,-5,-3,-2,-2
17:58:13:254752,-18,19,-10,-9,-5,-3,-2,-2
17:58:13:262199,-16,3,28,-2,5,-2,1,1
17:58:13:269723,18,-3,4,1,-4,-4,-15,6
17:58:13:277952,18,-3,4,1,-4,-4,-15,6
17:58:13:278722,-68,19,-17,-11,-2,-8,-9,-21
17:58:13:292182,1,0,5,8,11,11,10,5
17:58:13:300420,1,0,5,8,11,11,10,5
17:58:13:301240,19,10,-2,0,-9,-12,1,13
17:58:13:307207,-8,9,-5,-12,-6,-7,-3,-12
17:58:13:314771,-8,9,-5,-12,-6,-7,-3,-12
17:58:13:322185,29,-3,-5,11,20,22,7,17
17:58:13:329753,-14,-5,-9,-21,-5,19,7,2
17:58:13:337925,-14,-5,-9,-21,-5,19,7,2
17:58:13:338736,15,3,-3,6,-2,-5,-5,1
17:58:13:352204,-65,-4,-2,15,2,-5,-1,-12
17:58:13:360512,-65,-4,-2,15,2,-5,-1,-12
17:58:13:361321,3,-8,-3,-7,-7,0,2,11
17:58:13:367232,10,9,6,-4,-6,-9,1,-11
17:58:13:374820,10,9,6,-4,-6,-9,1,-11
17:58:13:382229,-13,3,0,-1,-2,-14,5,2
17:58:13:389711,-21,13,-8,8,-1,-17,1,8
17:58:13:397979,-21,13,-8,8,-1,-17,1,8
17:58:13:398748,3,4,-30,-36,-6,-3,-12,2
17:58:13:412239,-79,-14,-4,-6,2,5,-2,-27
17:58:13:420444,-79,-14,-4,-6,2,5,-2,-27
17:58:13:421229,-1,-26,16,9,-1,9,-2,1
17:58:13:427215,41,25,6,-13,-1,-10,0,3
17:58:13:434788,41,25,6,-13,-1,-10,0,3
17:58:13:442236,-10,7,-5,12,-1,11,3,3
17:58:13:449733,24,-2,-2,-3,-7,-8,2,0
17:58:13:457913,24,-2,-2,-3,-7,-8,2,0
17:58:13:458726,5,-27,-2,16,8,3,-5,-10
17:58:13:472213,35,-20,-9,-10,-5,-4,-22,-6
17:58:13:480407,35,-20,-9,-10,-5,-4,-22,-6
17:58:13:481202,14,4,-33,-40,-1,-14,-4,-3
17:58:13:487218,13,9,16,11,-3,25,1,0
17:58:13:494751,13,9,16,11,-3,25,1,0
17:58:13:502174,26,3,15,4,7,5,-8,3
17:58:13:509753,33,3,2,4,-6,5,6,17
17:58:13:517959,33,3,2,4,-6,5,6,17
17:58:13:518753,-63,-19,-1,-7,-7,-1,-1,-25
17:58:13:532249,-9,0,1,3,3,-10,4,6
17:58:13:540420,-9,0,1,3,3,-10,4,6
17:58:13:541203,19,22,5,-5,-5,-4,3,7
17:58:13:547190,18,-7,-9,-9,11,11,6,8
17:58:13:554766,18,-7,-9,-9,11,11,6,8
17:58:13:562238,8,-2,0,5,-4,-5,4,-4
17:58:13:569687,-17,3,6,8,1,9,-2,-4
17:58:13:577949,-17,3,6,8,1,9,-2,-4
17:58:13:578785,-3,-4,3,-8,3,35,3,0
17:58:13:592202,-8,2,-11,-11,-5,-19,-6,-7
17:58:13:608585,-8,2,-11,-11,-5,-19,-6,-7
17:58:13:609364,14,16,9,4,-8,-23,-10,2
17:58:13:610180,0,3,-9,-6,-6,-6,-8,3
17:58:13:614761,0,3,-9,-6,-6,-6,-8,3
17:58:13:622211,-20,-4,7,16,1,9,2,2
17:58:13:629703,25,-22,-3,2,-4,-18,-7,-6
17:58:13:637919,25,-22,-3,2,-4,-18,-7,-6
17:58:13:638732,18,9,15,33,6,-4,7,-4
17:58:13:652264,0,5,18,14,12,19,17,4
17:58:13:660434,0,5,18,14,12,19,17,4
17:58:13:661206,-24,-5,-6,-28,-2,-6,-5,-10
17:58:13:667208,15,-11,-14,3,2,10,-2,2
17:58:13:674783,15,-11,-14,3,2,10,-2,2
17:58:13:682220,-22,0,6,16,0,1,2,-5
17:58:13:689689,-18,-15,-3,-1,-1,0,0,2
17:58:13:697953,-18,-15,-3,-1,-1,0,0,2
17:58:13:698739,-18,-14,-5,1,3,0,8,7
17:58:13:712187,-53,9,-13,-6,-2,-24,-1,1
17:58:13:720422,-53,9,-13,-6,-2,-24,-1,1
17:58:13:721231,6,2,-8,-18,-7,-3,-3,-1
17:58:13:727180,28,1,10,-6,-1,13,-1,0
17:58:13:734773,28,1,10,-6,-1,13,-1,0
17:58:13:742242,9,-7,-5,-12,2,5,0,4
17:58:13:749730,-42,7,9,-6,-6,0,0,-2
17:58:13:757973,-42,7,9,-6,-6,0,0,-2
17:58:13:758773,22,4,2,-1,-1,-5,-1,4
17:58:13:772693,10,-3,-6,2,4,0,3,0
17:58:13:780477,10,-3,-6,2,4,0,3,0
17:58:13:781242,-10,-1,-2,9,0,2,1,3
17:58:13:787207,31,13,4,-11,-8,-1,-8,-5
17:58:13:794798,31,13,4,-11,-8,-1,-8,-5
17:58:13:802232,30,-4,-3,-13,-1,-4,-3,3
17:58:13:809725,-24,7,-5,-24,-4,-5,-9,-6
17:58:13:817914,-24,7,-5,-24,-4,-5,-9,-6
17:58:13:818699,3,7,21,-38,-7,7,-1,-3
17:58:13:832233,-69,-18,-8,5,4,-16,-4,-2
17:58:13:840451,-69,-18,-8,5,4,-16,-4,-2
17:58:13:841252,-15,4,2,23,-1,-10,-6,-3
17:58:13:847213,51,-2,-6,-11,1,11,8,4
17:58:13:854727,51,-2,-6,-11,1,11,8,4
17:58:13:862227,-24,2,-6,10,1,-3,-6,-10
17:58:13:869729,17,15,-15,-23,-4,1,8,12
17:58:13:877930,17,15,-15,-23,-4,1,8,12
17:58:13:878715,-60,4,-8,-5,1,11,1,-20
17:58:13:892204,19,-8,5,3,-3,1,2,0
17:58:13:900384,19,-8,5,3,-3,1,2,0
17:58:13:901213,42,-17,0,12,-8,-16,2,7
17:58:13:907260,37,-4,-8,-1,6,9,4,2
17:58:13:914747,37,-4,-8,-1,6,9,4,2
17:58:13:922190,-7,1,-19,-8,1,-19,-18,-9
17:58:13:929710,-11,-3,4,35,-8,-2,-1,0
17:58:13:937913,-11,-3,4,35,-8,-2,-1,0
17:58:13:938737,2,1,6,5,0,-11,5,-4
17:58:13:952259,16,-2,-12,-1,1,-11,1,-2
17:58:13:960399,16,-2,-12,-1,1,-11,1,-2
17:58:13:961208,-28,-13,6,11,3,5,11,1
17:58:13:967196,1,2,17,16,-7,5,-19,-18
17:58:13:974784,1,2,17,16,-7,5,-19,-18
17:58:13:982203,32,17,-15,-23,-5,-6,-15,-1
17:58:13:989715,-51,-3,5,-3,-4,-8,-7,-3
17:58:13:997950,-51,-3,5,-3,-4,-8,-7,-3
17:58:13:998733,11,14,-7,-12,-5,20,0,0
17:58:14:12228,31,-2,-6,-16,-1,-1,-12,-7
17:58:14:20493,31,-2,-6,-16,-1,-1,-12,-7
17:58:14:21251,-8,3,0,22,7,3,2,7
17:58:14:27314,-18,-18,10,-9,6,11,6,-2
17:58:14:34785,-18,-18,10,-9,6,11,6,-2
17:58:14:50358,12,13,-10,-5,0,-2,-5,4
17:58:14:51162,-32,13,8,9,8,-6,5,7
17:58:14:57287,-32,13,8,9,8,-6,5,7
17:58:14:64680,-7,-5,-22,-25,-6,-6,-8,6
17:58:14:72174,-38,-8,-10,-7,14,11,1,-13
17:58:14:80445,-38,-8,-10,-7,14,11,1,-13
17:58:14:81238,3,-9,16,11,0,-1,6,-3
17:58:14:87198,26,2,-10,-10,-2,-10,4,16
17:58:14:94810,26,2,-10,-10,-2,-10,4,16
17:58:14:102224,21,-20,2,-6,-4,-18,-7,2
17:58:14:109719,19,-1,6,2,5,2,5,1
17:58:14:117315,19,-1,6,2,5,2,5,1
17:58:14:124738,-26,3,24,27,-3,9,6,-5
17:58:14:132247,-9,2,0,12,0,-6,-10,-8
17:58:14:140427,-9,2,0,12,0,-6,-10,-8
17:58:14:141207,-14,-17,-4,-7,0,-17,-1,-5
17:58:14:155398,32,19,-7,0,-7,1,1,2
17:58:14:156226,32,19,-7,0,-7,1,1,2
17:58:14:162237,-6,32,9,-12,-4,-5,1,10
17:58:14:169751,23,15,1,4,1,-4,-1,6
17:58:14:177234,23,15,1,4,1,-4,-1,6
17:58:14:184677,27,-8,-12,-17,-6,4,-2,5
17:58:14:192257,-18,23,-3,-20,-6,1,3,-5
17:58:14:200481,-18,23,-3,-20,-6,1,3,-5
17:58:14:201314,-25,16,9,14,-3,8,1,-3
17:58:14:215400,32,-30,1,-4,-3,3,5,0
17:58:14:216210,32,-30,1,-4,-3,3,5,0
17:58:14:222198,-2,-19,-6,-4,-8,-4,8,-3
17:58:14:229741,-8,-8,10,-10,-4,-4,-7,1
17:58:14:237279,-8,-8,10,-10,-4,-4,-7,1
17:58:14:244673,-25,-5,-9,-12,-2,-2,-4,-2
17:58:14:261055,6,-20,-3,17,-1,-19,-8,-5
17:58:14:261887,6,-20,-3,17,-1,-19,-8,-5
17:58:14:262691,-3,-2,5,15,5,15,5,-7
17:58:14:275425,-15,12,-1,-20,-8,6,2,-3
17:58:14:276196,-15,12,-1,-20,-8,6,2,-3
17:58:14:290373,0,7,-10,5,0,9,-3,-12
17:58:14:291191,-3,7,0,10,-4,1,7,8
17:58:14:297355,-3,7,0,10,-4,1,7,8
17:58:14:304787,-14,9,2,8,2,-7,-9,-9
17:58:14:312214,-8,-3,-8,3,0,14,-15,-11
17:58:14:320446,-8,-3,-8,3,0,14,-15,-11
17:58:14:321247,10,2,7,-2,-7,-6,1,-4
17:58:14:335395,4,-4,-1,-8,7,4,11,7
17:58:14:336226,4,-4,-1,-8,7,4,11,7
17:58:14:342251,7,-6,-1,-9,-2,2,-11,-8
17:58:14:349750,22,3,6,12,1,-9,-2,-3
17:58:14:357257,22,3,6,12,1,-9,-2,-3
17:58:14:364704,28,-30,-6,3,5,-5,1,2
17:58:14:372249,-14,-1,-3,2,3,0,-7,-3
17:58:14:380423,-14,-1,-3,2,3,0,-7,-3
17:58:14:381208,6,-6,-14,-2,6,19,0,14
17:58:14:395394,-18,-14,-2,2,-3,-5,0,0
17:58:14:396217,-18,-14,-2,2,-3,-5,0,0
17:58:14:410406,15,13,6,-9,3,1,3,-2
17:58:14:411190,-40,3,-17,-25,-3,8,1,-7
17:58:14:417255,-40,3,-17,-25,-3,8,1,-7
17:58:14:424767,-9,8,-20,-13,1,-2,3,3
17:58:14:432275,5,-4,-2,-16,-5,-10,-12,-9
17:58:14:447905,5,-4,-2,-16,-5,-10,-12,-9
17:58:14:448700,19,-28,-1,6,-2,-10,-5,-4
17:58:14:455391,1,10,5,2,-8,-25,0,-4
17:58:14:456239,1,10,5,2,-8,-25,0,-4
17:58:14:462256,15,-14,-3,10,3,5,-8,-5
17:58:14:469747,2,-3,14,9,6,6,5,-1
17:58:14:477267,2,-3,14,9,6,6,5,-1
17:58:14:484702,-19,0,1,-2,-4,1,-4,-3
17:58:14:492198,-9,0,-19,2,3,3,2,1
17:58:14:500428,-9,0,-19,2,3,3,2,1
17:58:14:501243,3,17,10,19,-6,-7,-7,3
17:58:14:515390,2,7,-8,4,-15,-23,-14,-12
17:58:14:516218,2,7,-8,4,-15,-23,-14,-12
17:58:14:522195,9,1,6,-3,0,0,7,8
17:58:14:529690,15,0,5,6,3,5,3,9
17:58:14:537302,15,0,5,6,3,5,3,9
17:58:14:544687,-39,13,12,15,9,5,8,-1
17:58:14:552269,-27,-8,1,-3,-3,6,-5,-4
17:58:14:560440,-27,-8,1,-3,-3,6,-5,-4
17:58:14:561231,21,14,-1,-23,-6,-16,1,7
17:58:14:575433,12,-8,4,3,-6,4,5,-8
17:58:14:576238,12,-8,4,3,-6,4,5,-8
17:58:14:582193,-7,13,3,4,1,-5,-7,-11
17:58:14:589697,-11,-9,-1,-10,-3,2,3,9
17:58:14:605459,-11,-9,-1,-10,-3,2,3,9
17:58:14:606216,-22,0,-21,-33,-4,5,7,8
17:58:14:612204,20,-1,0,7,5,-6,-3,-2
17:58:14:620444,20,-1,0,7,5,-6,-3,-2
17:58:14:621250,13,-18,5,-21,-2,2,2,9
17:58:14:635423,19,-2,3,4,1,2,-3,6
17:58:14:636247,19,-2,3,4,1,2,-3,6
17:58:14:642174,41,-3,21,25,-6,13,-12,-3
17:58:14:649701,-10,11,-18,-16,3,-5,-3,7
17:58:14:657296,-10,11,-18,-16,3,-5,-3,7
17:58:14:664715,-6,0,-29,9,7,3,2,-1
17:58:14:672196,21,9,-6,-12,-1,0,5,6
17:58:14:680454,21,9,-6,-12,-1,0,5,6
17:58:14:681260,-27,5,8,4,-3,-10,5,-7
17:58:14:695441,5,8,3,0,-3,2,1,1
17:58:14:696237,5,8,3,0,-3,2,1,1
17:58:14:702232,-1,-4,-4,-16,-6,-6,-1,1
17:58:14:709711,-29,-14,-5,3,1,1,1,-2
17:58:14:717266,-29,-14,-5,3,1,1,1,-2
17:58:14:724736,27,14,-11,-16,-9,-3,-7,0
17:58:14:732212,3,-4,8,30,9,12,0,-5
17:58:14:740395,3,-4,8,30,9,12,0,-5
17:58:14:741237,36,-11,-7,2,5,1,0,-10
17:58:14:755451,6,-20,-4,-3,-4,0,2,-7
17:58:14:756262,6,-20,-4,-3,-4,0,2,-7
17:58:14:762246,-6,10,11,14,-2,-16,-3,-1
17:58:14:769728,-19,5,4,-5,-1,-17,-5,7
17:58:14:777299,-19,5,4,-5,-1,-17,-5,7
17:58:14:784729,-17,-19,-9,-15,4,4,3,-9
17:58:14:792235,17,-6,-8,-12,-8,-11,3,3
17:58:14:800413,17,-6,-8,-12,-8,-11,3,3
17:58:14:801236,-36,-4,3,20,-6,-14,-7,-2
17:58:14:815399,5,3,5,-8,-4,-20,0,-1
17:58:14:816200,5,3,5,-8,-4,-20,0,-1
17:58:14:822214,-8,8,0,0,-1,9,1,5
17:58:14:829737,4,-5,-1,2,1,35,-3,0
17:58:14:837326,4,-5,-1,2,1,35,-3,0
17:58:14:844728,9,-4,-1,9,1,-4,5,1
17:58:14:852250,-13,21,10,-1,-1,-9,-8,-6
17:58:14:860461,-13,21,10,-1,-1,-9,-8,-6
17:58:14:861217,19,-6,0,-5,4,11,-4,0
17:58:14:883615,-11,-19,-2,8,-4,-4,-6,-13
17:58:14:884396,-11,-19,-2,8,-4,-4,-6,-13
17:58:14:885209,-61,-8,-2,-3,-7,-4,-1,1
17:58:14:889721,3,9,-14,-5,0,-17,-2,1
17:58:14:897252,3,9,-14,-5,0,-17,-2,1
17:58:14:904748,-8,-6,-21,-19,1,-6,2,-4
17:58:14:912254,-11,8,7,6,0,10,7,4
17:58:14:920433,-11,8,7,6,0,10,7,4
17:58:14:921246,-2,11,12,2,1,2,0,-4
17:58:14:935383,-34,1,16,26,6,4,-1,-13
17:58:14:936215,-34,1,16,26,6,4,-1,-13
17:58:14:942230,14,-8,-15,-16,-7,5,3,0
17:58:14:949788,3,-7,-12,-11,1,2,-4,-4
17:58:14:957240,3,-7,-12,-11,1,2,-4,-4
17:58:14:964690,29,6,2,21,3,3,5,3
17:58:14:972305,-9,9,-2,13,9,-4,1,1
17:58:14:980432,-9,9,-2,13,9,-4,1,1
17:58:14:981214,14,2,9,-11,0,2,-5,-5
17:58:14:995401,-5,-20,-16,-20,-6,-1,-3,-10
17:58:14:996216,-5,-20,-16,-20,-6,-1,-3,-10
17:58:15:2206,-13,4,15,18,3,1,-6,-6
17:58:15:9705,-5,3,-5,-17,-4,-6,0,6
17:58:15:17266,-5,3,-5,-17,-4,-6,0,6
17:58:15:24678,10,-4,-11,2,-6,-3,4,14
17:58:15:32218,3,-8,-1,-5,0,0,3,6
17:58:15:39775,3,-8,-1,-5,0,0,3,6
17:58:15:47188,-6,-7,1,-14,3,-2,-2,-1
17:58:15:55404,22,-8,-7,-24,-3,14,10,5
17:58:15:56243,22,-8,-7,-24,-3,14,10,5
17:58:15:62243,1,2,-2,-18,-4,-6,0,-8
17:58:15:77914,15,14,2,-3,-6,-3,-2,-2
17:58:15:78728,15,14,2,-3,-6,-3,-2,-2
17:58:15:84779,16,6,11,7,1,-1,3,0
17:58:15:92210,-32,10,2,2,-7,-18,-8,-6
17:58:15:99798,-32,10,2,2,-7,-18,-8,-6
17:58:15:107244,-31,-19,-2,-1,-6,-3,-1,-1
17:58:15:115383,-8,-12,-14,-4,6,-2,-1,1
17:58:15:116180,-8,-12,-14,-4,6,-2,-1,1
17:58:15:122226,0,1,-5,-3,2,-4,-9,1
17:58:15:137917,8,-4,-35,-50,-6,-10,-6,2
17:58:15:138811,8,-4,-35,-50,-6,-10,-6,2
17:58:15:144724,-6,8,3,1,-3,-1,6,6
17:58:15:152212,10,6,-5,12,-13,-7,-2,-9
17:58:15:159724,10,6,-5,12,-13,-7,-2,-9
17:58:15:167231,-5,3,4,-7,-1,-6,4,6
17:58:15:175380,10,-19,12,13,0,8,2,4
17:58:15:176214,10,-19,12,13,0,8,2,4
17:58:15:182213,-40,8,10,3,-8,-6,-6,-12
17:58:15:197890,-4,4,18,1,2,18,7,2
17:58:15:198745,-4,4,18,1,2,18,7,2
17:58:15:204741,-10,-3,-9,27,5,-12,-10,-8
17:58:15:212218,2,4,17,1,5,8,-2,7
17:58:15:219851,2,4,17,1,5,8,-2,7
17:58:15:227187,20,-9,2,-4,-5,4,3,-5
17:58:15:235227,29,7,1,19,-4,-10,-4,-1
17:58:15:242909,29,7,1,19,-4,-10,-4,-1
17:58:15:243704,22,1,-19,-35,2,-10,6,9
17:58:15:257883,7,11,7,4,3,-3,-1,-4
17:58:15:258712,7,11,7,4,3,-3,-1,-4
17:58:15:272926,-13,-7,10,17,1,-1,-5,-5
17:58:15:273685,6,11,8,16,4,6,1,-2
17:58:15:279774,6,11,8,16,4,6,1,-2
17:58:15:287249,-10,-7,-7,8,1,-6,-11,0
17:58:15:295187,-12,-2,-3,-6,-1,8,-4,-3
17:58:15:302918,-12,-2,-3,-6,-1,8,-4,-3
17:58:15:303708,-4,-19,8,-15,-6,-4,-9,-19
17:58:15:317892,-29,-12,-18,6,-3,-2,-1,-1
17:58:15:318720,-29,-12,-18,6,-3,-2,-1,-1
17:58:15:324744,-14,4,-3,-7,1,12,0,-5
17:58:15:332284,-16,-4,20,8,-3,4,-2,-11
17:58:15:339750,-16,-4,20,8,-3,4,-2,-11
17:58:15:347195,0,4,3,8,3,9,8,1
17:58:15:355401,12,-7,-1,-7,3,7,7,3
17:58:15:356204,12,-7,-1,-7,3,7,7,3
17:58:15:362218,13,5,-1,-6,-6,1,-3,-12
17:58:15:377909,0,-10,-32,-7,-4,-5,-2,9
17:58:15:378720,0,-10,-32,-7,-4,-5,-2,9
17:58:15:384706,11,1,-4,1,5,2,3,11
17:58:15:392209,-7,8,4,0,-3,-26,-19,-11
17:58:15:399777,-7,8,4,0,-3,-26,-19,-11
17:58:15:407200,-25,2,-22,-13,-8,1,0,10
17:58:15:415424,-13,-1,18,12,-5,8,1,-2
17:58:15:416318,-13,-1,18,12,-5,8,1,-2
17:58:15:422191,24,12,-6,3,11,9,5,7
17:58:15:437908,-31,-6,-22,-14,-2,2,1,-16
17:58:15:438748,-31,-6,-22,-14,-2,2,1,-16
17:58:15:444712,4,10,-5,32,-6,-6,-1,5
17:58:15:452257,-4,-4,-10,-7,5,7,-2,0
17:58:15:459779,-4,-4,-10,-7,5,7,-2,0
17:58:15:467327,13,8,-18,-24,-2,-18,6,-1
17:58:15:475373,14,-2,-11,-6,-2,-15,0,7
17:58:15:476197,14,-2,-11,-6,-2,-15,0,7
17:58:15:482231,2,-20,-5,-9,-4,-1,-4,5
17:58:15:497927,0,-15,4,-4,-5,1,-1,0
17:58:15:498760,0,-15,4,-4,-5,1,-1,0
17:58:15:504733,-13,2,8,-6,9,6,-3,-15
17:58:15:512233,-6,11,2,2,6,0,2,5
17:58:15:519842,-6,11,2,2,6,0,2,5
17:58:15:527228,9,-7,17,7,-2,3,-6,3
17:58:15:535411,17,-1,13,20,-3,-9,2,3
17:58:15:536205,17,-1,13,20,-3,-9,2,3
17:58:15:549738,-11,-16,-18,-12,-2,7,-2,-8
17:58:15:557876,12,-16,0,11,-4,-10,-8,-1
17:58:15:558694,12,-16,0,11,-4,-10,-8,-1
17:58:15:564713,2,13,9,5,-5,10,-3,3
17:58:15:572242,-12,-10,14,7,1,7,10,0
17:58:15:579789,-12,-10,14,7,1,7,10,0
17:58:15:587240,-29,5,3,12,-9,-16,-11,-11
17:58:15:595388,7,14,5,19,8,11,0,2
17:58:15:596222,7,14,5,19,8,11,0,2
17:58:15:602185,10,-9,-9,-9,1,3,4,9
17:58:15:617867,3,5,-5,-15,-2,-4,-1,5
17:58:15:618707,3,5,-5,-15,-2,-4,-1,5
17:58:15:624723,23,-1,0,-7,-2,-7,-7,4
17:58:15:632232,12,29,6,7,2,6,3,0
17:58:15:639761,12,29,6,7,2,6,3,0
17:58:15:647181,13,2,8,-8,-1,2,2,5
17:58:15:655420,18,-10,-7,-21,-7,1,10,8
17:58:15:656217,18,-10,-7,-21,-7,1,10,8
17:58:15:662221,-12,15,-17,-36,-5,-3,2,-4
17:58:15:677919,11,-6,6,11,11,-5,-3,-1
17:58:15:678730,11,-6,6,11,11,-5,-3,-1
17:58:15:684736,6,-7,-16,-1,-2,-32,-9,-7
17:58:15:692175,-7,3,11,-23,-8,1,0,-1
17:58:15:699752,-7,3,11,-23,-8,1,0,-1
17:58:15:716069,11,4,18,4,3,24,10,1
17:58:15:716945,2,-7,2,13,1,4,2,1
17:58:15:717691,2,-7,2,13,1,4,2,1
17:58:15:722229,-33,0,-2,16,0,0,-8,-14
17:58:15:746042,-18,5,-12,-13,-1,7,2,1
17:58:15:746827,-18,5,-12,-13,-1,7,2,1
17:58:15:747656,6,2,1,4,-1,2,9,7
17:58:15:752220,18,14,3,-8,-2,-5,-6,0
17:58:15:759712,18,14,3,-8,-2,-5,-6,0
17:58:15:767229,11,-18,10,21,6,-4,-2,5
17:58:15:775412,-19,-13,-10,-1,-4,-2,2,-3
17:58:15:776282,-19,-13,-10,-1,-4,-2,2,-3
17:58:15:782195,-1,-3,14,31,-2,11,-5,2
17:58:15:797873,10,-9,5,4,10,20,6,-6
17:58:15:798704,10,-9,5,4,10,20,6,-6
17:58:15:804674,-18,6,-7,-16,1,-3,0,1
17:58:15:812237,-9,-11,1,9,-4,-8,-3,-3
17:58:15:819768,-9,-11,1,9,-4,-8,-3,-3
17:58:15:827180,15,-2,4,0,2,-2,3,-2
17:58:15:835420,-3,-2,-4,-1,-9,-9,-6,-9
17:58:15:836220,-3,-2,-4,-1,-9,-9,-6,-9
17:58:15:842181,25,-24,-7,-21,-4,-1,-3,-4
17:58:15:857919,5,0,1,4,-6,-12,-17,-8
17:58:15:858732,5,0,1,4,-6,-12,-17,-8
17:58:15:864685,1,-13,-25,-12,2,-3,2,3
17:58:15:872175,-7,-3,-5,10,1,-7,0,-4
17:58:15:879756,-7,-3,-5,10,1,-7,0,-4
17:58:15:887288,19,-3,-30,-16,-1,8,12,-2
17:58:15:895447,-21,11,-9,-23,-3,-6,-2,2
17:58:15:896248,-21,11,-9,-23,-3,-6,-2,2
17:58:15:902217,-46,6,3,2,3,8,0,0
17:58:15:917904,-15,-1,6,13,2,4,1,5
17:58:15:918724,-15,-1,6,13,2,4,1,5
17:58:15:924701,-19,-5,10,3,3,1,3,1
17:58:15:932217,-8,-3,3,-3,-8,5,-4,3
17:58:15:939789,-8,-3,3,-3,-8,5,-4,3
17:58:15:947208,-3,1,7,5,2,-5,-10,-1
17:58:15:955495,-3,1,7,5,2,-5,-10,-1
17:58:15:956300,-26,-11,-17,-11,0,4,1,-9
17:58:15:962229,-7,16,5,13,-15,-31,-14,-13
17:58:15:977920,-7,16,5,13,-15,-31,-14,-13
17:58:15:978750,-5,-7,-1,3,-1,0,0,8
17:58:15:984695,3,1,20,-5,-12,-4,-7,-5
17:58:16:423,3,1,20,-5,-12,-4,-7,-5
17:58:16:1220,8,-5,8,-17,1,6,-1,0
17:58:16:7203,-2,-6,6,9,5,2,1,-1
17:58:16:15446,-2,-6,6,9,5,2,1,-1
17:58:16:16243,-36,0,-6,-12,1,-6,1,-2
17:58:16:29702,-5,8,9,19,3,9,13,10
17:58:16:37942,-5,8,9,19,3,9,13,10
17:58:16:38748,10,11,-7,-17,-2,-2,-7,-3
17:58:16:44708,7,-4,-4,12,-4,-8,-14,-8
17:58:16:60461,7,-4,-4,12,-4,-8,-14,-8
17:58:16:61240,21,13,13,36,-5,-22,-6,0
17:58:16:67242,28,-14,-9,10,5,-1,2,3
17:58:16:75454,28,-14,-9,10,5,-1,2,3
17:58:16:76282,-2,0,-7,10,1,-6,3,-1
17:58:16:89783,18,7,-7,-4,7,5,3,15
17:58:16:97927,18,7,-7,-4,7,5,3,15
17:58:16:98709,-24,9,6,5,-11,1,-10,-6
17:58:16:104705,-10,-2,-8,-20,-2,8,2,-1
17:58:16:120420,-10,-2,-8,-20,-2,8,2,-1
17:58:16:121219,-1,3,-1,-23,5,14,5,1
17:58:16:127176,-2,9,-1,-9,-10,-19,-10,0
17:58:16:135463,-2,9,-1,-9,-10,-19,-10,0
17:58:16:136233,16,4,-15,-16,5,-4,2,1
17:58:16:149687,-7,13,1,-13,-2,8,-4,-8
17:58:16:157902,-7,13,1,-13,-2,8,-4,-8
17:58:16:158755,-12,-8,-5,2,2,16,7,-4
17:58:16:164685,-6,2,16,22,5,7,4,-10
17:58:16:180417,-6,2,16,22,5,7,4,-10
17:58:16:181215,18,-11,-3,-6,-4,-3,-4,3
17:58:16:187178,2,-5,3,-1,1,6,-1,1
17:58:16:195525,2,-5,3,-1,1,6,-1,1
17:58:16:196219,-5,-3,-9,-23,-2,-7,-5,-12
17:58:16:209783,-7,9,-12,-19,-2,-5,-7,3
17:58:16:217909,-7,9,-12,-19,-2,-5,-7,3
17:58:16:218734,-6,-1,6,19,4,0,-4,-2
17:58:16:224675,12,-5,13,-6,-2,-3,4,9
17:58:16:240432,12,-5,13,-6,-2,-3,4,9
17:58:16:241206,-14,-14,-3,-5,-5,10,4,0
17:58:16:247222,-14,-3,-5,-6,0,0,-1,-3
17:58:16:255423,-14,-3,-5,-6,0,0,-1,-3
17:58:16:256228,16,-5,-3,-1,7,15,-2,3
17:58:16:269741,-13,3,-8,-6,-3,-3,-5,-3
17:58:16:277907,-13,3,-8,-6,-3,-3,-5,-3
17:58:16:278680,36,3,5,-2,0,-4,10,10
17:58:16:284758,-2,-6,-2,-10,2,2,-5,-1
17:58:16:300435,-2,-6,-2,-10,2,2,-5,-1
17:58:16:301192,12,3,11,4,-5,-3,-1,1
17:58:16:307212,11,6,20,24,-1,-3,3,0
17:58:16:315420,11,6,20,24,-1,-3,3,0
17:58:16:316194,5,-1,18,8,6,-7,-7,-7
17:58:16:329745,-49,1,1,5,-4,1,7,-6
17:58:16:337924,-49,1,1,5,-4,1,7,-6
17:58:16:338706,1,-2,-4,9,-2,-6,-4,-3
17:58:16:344741,22,6,-12,-2,-6,-12,-11,3
17:58:16:360398,22,6,-12,-2,-6,-12,-11,3
17:58:16:361199,-40,13,3,-15,-1,-4,-1,-8
17:58:16:367240,-1,-10,-16,2,3,0,2,-2
17:58:16:375452,-1,-10,-16,2,3,0,2,-2
17:58:16:376186,14,-2,-6,10,1,-6,1,-6
17:58:16:389754,-25,0,-12,-9,-2,5,8,9
17:58:16:397965,-25,0,-12,-9,-2,5,8,9
17:58:16:398767,-26,-7,4,-2,-8,-6,-2,-8
17:58:16:404741,-1,2,14,11,0,-6,7,4
17:58:16:420927,-1,2,14,11,0,-6,7,4
17:58:16:421685,-25,-11,-4,1,-5,-6,-4,0
17:58:16:427202,-5,-10,0,-40,-7,-5,-7,-9
17:58:16:435480,-5,-10,0,-40,-7,-5,-7,-9
17:58:16:436260,12,-17,1,1,-5,-7,-6,-1
17:58:16:449724,-9,0,-11,4,7,6,-3,0
17:58:16:457968,-9,0,-11,4,7,6,-3,0
17:58:16:458713,-5,10,5,10,-5,-8,-3,-2
17:58:16:464715,11,-17,-6,-6,8,2,-3,-2
17:58:16:480470,11,-17,-6,-6,8,2,-3,-2
17:58:16:481237,3,20,0,0,-2,-11,8,13
17:58:16:487224,19,11,12,11,-5,-17,-14,-4
17:58:16:495428,19,11,12,11,-5,-17,-14,-4
17:58:16:496267,-9,-4,-11,-2,3,4,1,-2
17:58:16:509724,8,-10,5,5,-8,0,6,3
17:58:16:517987,8,-10,5,5,-8,0,6,3
17:58:16:518794,7,5,-2,-15,0,22,1,-4
17:58:16:524738,-2,-7,4,7,1,-6,0,9
17:58:16:548586,-2,-7,4,7,1,-6,0,9
17:58:16:549358,12,-1,-7,-9,3,-1,1,-3
17:58:16:550172,9,16,1,-3,0,5,2,-5
17:58:16:555422,9,16,1,-3,0,5,2,-5
17:58:16:556189,5,-4,4,5,-2,-3,-4,1
17:58:16:569819,13,0,-27,-23,-9,-13,-1,0
17:58:16:577948,13,0,-27,-23,-9,-13,-1,0
17:58:16:578702,-15,-2,-5,-9,0,7,3,3
17:58:16:584798,-44,-2,-5,-7,-5,-3,-2,-3
17:58:16:600409,-44,-2,-5,-7,-5,-3,-2,-3
17:58:16:601195,-3,1,3,6,8,7,0,3
17:58:16:607226,23,2,22,6,2,10,5,4
17:58:16:615408,23,2,22,6,2,10,5,4
17:58:16:616211,-9,-1,-6,-11,-9,-15,-3,-7
17:58:16:629701,16,-11,10,17,6,5,-5,-7
17:58:16:637924,16,-11,10,17,6,5,-5,-7
17:58:16:638754,11,4,15,1,-6,3,2,7
17:58:16:644746,-7,4,-7,-6,-5,-4,-5,-9
17:58:16:660464,-7,4,-7,-6,-5,-4,-5,-9
17:58:16:661296,-15,0,-4,-2,2,0,-3,5
17:58:16:667291,7,1,-11,-11,-4,2,4,-9
17:58:16:675429,7,1,-11,-11,-4,2,4,-9
17:58:16:676210,-7,-1,18,24,5,-7,-1,-4
17:58:16:689745,12,-1,0,-7,-1,6,1,0
17:58:16:697924,12,-1,0,-7,-1,6,1,0
17:58:16:698740,5,-2,-13,-8,-2,-5,-4,-2
17:58:16:704724,-45,-6,11,-3,-4,0,-2,-10
17:58:16:720459,-45,-6,11,-3,-4,0,-2,-10
17:58:16:721229,28,3,-1,-2,3,-13,-11,-2
17:58:16:727209,10,-10,-16,1,3,-2,-1,2
17:58:16:735522,10,-10,-16,1,3,-2,-1,2
17:58:16:736261,-14,2,-9,6,-9,4,-10,-11
17:58:16:749713,-4,8,-12,-6,8,10,4,3
17:58:16:758036,-4,8,-12,-6,8,10,4,3
17:58:16:758811,29,4,12,-17,-8,-3,1,2
17:58:16:764713,0,-3,11,26,1,-1,0,-5
17:58:16:780448,0,-3,11,26,1,-1,0,-5
17:58:16:781254,6,-1,5,13,-4,-21,-2,6
17:58:16:787280,1,14,6,9,-8,-15,-9,4
17:58:16:795450,1,14,6,9,-8,-15,-9,4
17:58:16:796240,-28,-21,3,29,5,11,4,-2
17:58:16:809730,-22,0,0,-7,-3,-3,-1,1
17:58:16:817958,-22,0,0,-7,-3,-3,-1,1
17:58:16:818731,25,-1,0,-18,-8,-16,-11,-3
17:58:16:824720,4,-8,-19,-9,-1,-5,-3,0
17:58:16:840451,4,-8,-19,-9,-1,-5,-3,0
17:58:16:841259,-9,5,-10,-2,4,9,5,2
17:58:16:847235,9,-2,15,-7,1,10,-1,-5
17:58:16:855441,9,-2,15,-7,1,10,-1,-5
17:58:16:856212,19,-8,-16,-2,9,8,8,6
17:58:16:869712,-12,-3,-3,12,-5,-13,-11,-10
17:58:16:877923,-12,-3,-3,12,-5,-13,-11,-10
17:58:16:878722,19,-2,4,-12,-2,9,10,5
17:58:16:884734,-33,1,8,-1,-10,1,-2,1
17:58:16:900416,-33,1,8,-1,-10,1,-2,1
17:58:16:901229,-30,3,-14,-6,4,-14,-4,2
17:58:16:907211,23,-16,6,0,3,-2,1,1
17:58:16:915458,23,-16,6,0,3,-2,1,1
17:58:16:916235,-21,-5,-12,0,-2,9,3,-3
17:58:16:929708,-4,-5,-2,7,-4,-5,2,1
17:58:16:937916,-4,-5,-2,7,-4,-5,2,1
17:58:16:938693,10,-3,8,-3,7,6,-3,-11
17:58:16:952247,4,-12,-2,-5,-5,7,3,3
17:58:16:960437,4,-12,-2,-5,-5,7,3,3
17:58:16:961204,0,14,-2,-7,-6,-6,-1,-2
17:58:16:967197,2,-10,-17,-10,4,5,5,2
17:58:16:974768,2,-10,-17,-10,4,5,5,2
17:58:16:982226,10,3,9,-5,-6,-11,-8,2
17:58:16:989667,23,9,-6,-2,0,-2,0,5
17:58:16:997955,23,9,-6,-2,0,-2,0,5
17:58:16:998741,-6,-8,-6,9,-2,7,3,-3
17:58:17:12198,-8,5,9,17,4,-6,-6,1
17:58:17:20408,-8,5,9,17,4,-6,-6,1
17:58:17:21214,12,-25,-10,-6,-2,0,-3,2
17:58:17:27182,-4,1,-5,11,3,6,9,4
17:58:17:34787,-4,1,-5,11,3,6,9,4
17:58:17:42210,11,9,-5,4,-6,-17,4,-3
17:58:17:49706,23,13,6,7,-2,-4,6,10
17:58:17:57956,23,13,6,7,-2,-4,6,10
17:58:17:58744,-39,-5,-17,2,1,3,-2,-4
17:58:17:72207,-4,1,-12,-20,-7,-4,3,-4
17:58:17:80453,-4,1,-12,-20,-7,-4,3,-4
17:58:17:81260,18,-3,-5,-27,2,9,3,8
17:58:17:87228,-31,-3,-4,-9,4,2,2,-6
17:58:17:94789,-31,-3,-4,-9,4,2,2,-6
17:58:17:102307,12,-5,28,18,-4,-10,-11,-1
17:58:17:109725,11,6,9,-17,1,0,-1,-7
17:58:17:117886,11,6,9,-17,1,0,-1,-7
17:58:17:118719,15,-20,4,16,-2,2,0,-1
17:58:17:132230,0,2,7,5,2,8,3,1
17:58:17:140449,0,2,7,5,2,8,3,1
17:58:17:141257,-3,20,-9,-11,-7,-17,-11,-17
17:58:17:147226,-13,-11,-9,4,0,-11,1,-3
17:58:17:154743,-13,-11,-9,4,0,-11,1,-3
17:58:17:162231,9,7,-10,-22,2,6,1,10
17:58:17:169811,-29,11,12,-20,-6,-3,-14,-13
17:58:17:177902,-29,11,12,-20,-6,-3,-14,-13
17:58:17:178692,-1,2,-22,-30,-4,4,7,7
17:58:17:192241,34,-14,-17,-4,6,6,0,-1
17:58:17:200398,34,-14,-17,-4,6,6,0,-1
17:58:17:201205,2,7,0,-7,0,7,-4,-2
17:58:17:207228,26,-8,-16,4,-5,-10,-13,4
17:58:17:214743,26,-8,-16,4,-5,-10,-13,4
17:58:17:222256,-16,5,5,8,3,6,3,-3
17:58:17:229709,-9,10,-21,-20,3,3,4,-2
17:58:17:237978,-9,10,-21,-20,3,3,4,-2
17:58:17:238736,-14,6,6,13,-2,-3,4,-9
17:58:17:252254,-56,5,5,-1,-2,-5,-5,1
17:58:17:260424,-56,5,5,-1,-2,-5,-5,1
17:58:17:261212,-7,-6,5,6,3,18,14,4
17:58:17:267219,42,5,-44,-48,-2,-3,5,11
17:58:17:274779,42,5,-44,-48,-2,-3,5,11
17:58:17:282225,-23,-8,-18,-12,2,-1,1,3
17:58:17:289689,-9,13,18,8,-6,-1,-1,-5
17:58:17:297935,-9,13,18,8,-6,-1,-1,-5
17:58:17:298742,1,4,0,6,-4,-17,-1,-13
17:58:17:312218,17,-6,13,24,7,4,2,10
17:58:17:320427,17,-6,13,24,7,4,2,10
17:58:17:321244,6,-14,-8,18,1,5,-3,0
17:58:17:327186,-2,-17,0,24,1,1,-1,-8
17:58:17:334771,-2,-17,0,24,1,1,-1,-8
17:58:17:342223,-28,0,2,5,-3,-4,-4,0
17:58:17:349752,11,-5,11,21,-4,-2,-6,-6
17:58:17:357952,11,-5,11,21,-4,-2,-6,-6
17:58:17:358740,36,2,6,5,1,-3,1,7
17:58:17:372200,23,-1,21,12,-5,-6,8,7
17:58:17:380452,23,-1,21,12,-5,-6,8,7
17:58:17:381233,6,5,2,-4,-1,-10,-13,-1
17:58:17:387207,16,-4,3,21,5,-8,-2,3
17:58:17:394809,16,-4,3,21,5,-8,-2,3
17:58:17:402299,17,-5,2,-12,7,21,7,6
17:58:17:409713,-9,-8,-3,0,-10,-6,-10,-8
17:58:17:417891,-9,-8,-3,0,-10,-6,-10,-8
17:58:17:418732,-32,-8,-3,2,-5,-12,-16,-16
17:58:17:432237,-41,5,-5,-20,-2,8,2,-2
17:58:17:440472,-41,5,-5,-20,-2,8,2,-2
17:58:17:441217,8,1,0,-4,1,1,5,-2
17:58:17:447235,-13,1,-8,-13,-4,-8,-2,-1
17:58:17:454748,-13,1,-8,-13,-4,-8,-2,-1
17:58:17:462257,3,1,1,2,2,-6,-2,1
17:58:17:469747,-9,-2,-4,-14,14,11,6,3
17:58:17:477919,-9,-2,-4,-14,14,11,6,3
17:58:17:478705,1,-14,-30,-28,-5,-8,-1,-10
17:58:17:492227,-4,-6,8,-17,-4,-2,-6,6
17:58:17:500413,-4,-6,8,-17,-4,-2,-6,6
17:58:17:501206,-1,4,18,14,-1,2,-5,-4
17:58:17:515383,10,7,4,10,1,7,-2,-8
17:58:17:516210,10,7,4,10,1,7,-2,-8
17:58:17:522267,2,5,19,8,-9,-1,-1,2
17:58:17:529721,4,-5,-16,-13,5,-8,-6,-9
17:58:17:537926,4,-5,-16,-13,5,-8,-6,-9
17:58:17:538808,-24,-15,-14,9,6,2,-1,-1
17:58:17:552226,0,-4,-23,-19,-8,4,4,4
17:58:17:560419,0,-4,-23,-19,-8,4,4,4
17:58:17:561229,-30,7,13,17,-4,-14,-3,3
17:58:17:567247,7,6,11,13,1,6,4,-5
17:58:17:574803,7,6,11,13,1,6,4,-5
17:58:17:582215,-3,-1,14,-12,-4,4,8,4
17:58:17:589690,-2,18,11,2,-4,-4,-9,-2
17:58:17:598102,-2,18,11,2,-4,-4,-9,-2
17:58:17:598738,22,1,20,-1,0,4,3,1
17:58:17:612239,3,0,-10,9,1,2,9,10
17:58:17:620453,3,0,-10,9,1,2,9,10
17:58:17:621222,-22,-4,-6,-3,3,-4,-6,6
17:58:17:635386,-35,5,20,7,-9,-23,-15,-10
17:58:17:636223,-35,5,20,7,-9,-23,-15,-10
17:58:17:642227,28,-2,-12,-23,-4,-1,-8,0
17:58:17:649758,-5,12,-4,3,4,10,2,-7
17:58:17:657912,-5,12,-4,3,4,10,2,-7
17:58:17:658717,-7,21,-13,-27,-9,-4,-2,-6
17:58:17:672237,3,-3,-1,-10,1,3,4,-5
17:58:17:680415,3,-3,-1,-10,1,3,4,-5
17:58:17:681220,13,-6,-4,10,4,-4,3,4
17:58:17:687245,12,-32,9,8,-4,5,2,1
17:58:17:694743,12,-32,9,8,-4,5,2,1
17:58:17:702178,-14,-4,2,4,-1,-4,-3,-4
17:58:17:709710,35,-2,-15,-5,-1,3,-3,0
17:58:17:717918,35,-2,-15,-5,-1,3,-3,0
17:58:17:718733,22,-15,-3,11,3,19,3,0
17:58:17:732265,-25,-1,-4,-11,-4,-11,-8,-18
17:58:17:740413,-25,-1,-4,-11,-4,-11,-8,-18
17:58:17:741217,2,12,2,7,-1,-4,-6,-6
17:58:17:747220,18,-7,-6,7,-1,-4,2,3
17:58:17:754774,18,-7,-6,7,-1,-4,2,3
17:58:17:762198,-28,-7,-23,-13,-6,3,8,5
17:58:17:769782,-16,0,-2,14,3,-5,-4,1
17:58:17:777961,-16,0,-2,14,3,-5,-4,1
17:58:17:778746,14,8,-5,-2,-1,5,4,2
17:58:17:792209,-26,11,9,-10,-1,1,1,2
17:58:17:800435,-26,11,9,-10,-1,1,1,2
17:58:17:801304,-3,9,6,12,1,-3,-8,-2
17:58:17:807185,14,-4,-5,-3,6,5,0,2
17:58:17:814780,14,-4,-5,-3,6,5,0,2
17:58:17:822229,-3,-1,-13,-6,5,-1,3,-4
17:58:17:829722,-28,2,-4,0,0,-3,2,5
17:58:17:837952,-28,2,-4,0,0,-3,2,5
17:58:17:838757,-10,5,11,-5,-2,-6,-5,-2
17:58:17:852261,0,-3,6,16,0,-7,-1,2
17:58:17:860447,0,-3,6,16,0,-7,-1,2
17:58:17:861235,-2,-6,20,19,-2,-11,0,1
17:58:17:867218,13,10,-26,-26,-7,4,0,7
17:58:17:874802,13,10,-26,-26,-7,4,0,7
17:58:17:882294,14,-13,-12,-9,-4,-6,-4,-6
17:58:17:889717,1,3,1,-11,1,8,2,-3
17:58:17:897237,1,3,1,-11,1,8,2,-3
17:58:17:904772,-6,7,6,-1,0,-9,-13,-13
17:58:17:912221,19,-22,-10,-26,1,7,2,10
17:58:17:920513,19,-22,-10,-26,1,7,2,10
17:58:17:921213,-25,-1,-10,-9,-3,-2,2,1
17:58:17:935457,8,0,7,23,0,-17,-16,-10
17:58:17:936213,8,0,7,23,0,-17,-16,-10
17:58:17:942246,21,-5,10,26,4,4,7,6
17:58:17:949736,-28,3,-7,-18,-9,-6,2,-17
17:58:17:957260,-28,3,-7,-18,-9,-6,2,-17
17:58:17:964686,-7,6,-6,-10,-3,12,2,2
17:58:17:972191,-4,-2,-10,-23,-4,-14,5,17
17:58:17:980416,-4,-2,-10,-23,-4,-14,5,17
17:58:17:981236,8,0,-6,5,2,6,-1,5
17:58:17:995391,-13,-10,-4,-1,-9,-3,-8,-14
17:58:17:996196,-13,-10,-4,-1,-9,-3,-8,-14
17:58:18:2221,-8,5,-4,4,1,11,8,5
17:58:18:9719,20,13,-7,-10,1,24,-2,-2
17:58:18:17305,20,13,-7,-10,1,24,-2,-2
17:58:18:24724,-29,3,4,3,2,-21,-13,-16
17:58:18:32203,-8,-17,3,13,3,10,2,-2
17:58:18:47932,-8,-17,3,13,3,10,2,-2
17:58:18:48732,16,-3,9,2,-6,-3,1,6
17:58:18:55399,26,5,24,29,1,-8,4,8
17:58:18:56248,26,5,24,29,1,-8,4,8
17:58:18:62214,3,-5,14,-19,-6,-2,-1,-2
17:58:18:69681,-22,25,-7,1,0,-8,-8,2
17:58:18:77269,-22,25,-7,1,0,-8,-8,2
17:58:18:84730,8,-3,-20,-8,-1,-2,1,2
17:58:18:92189,10,-4,12,-4,-1,8,1,-2
17:58:18:100477,10,-4,12,-4,-1,8,1,-2
17:58:18:101247,-4,-13,-18,-2,1,7,5,-6
17:58:18:115463,-11,-10,-1,8,4,-1,-5,0
17:58:18:116252,-11,-10,-1,8,4,-1,-5,0
17:58:18:122255,11,14,18,8,-2,-1,3,4
17:58:18:129744,-19,1,5,-3,0,2,2,-2
17:58:18:137287,-19,1,5,-3,0,2,2,-2
17:58:18:144722,-16,-1,-20,-19,0,1,2,0
17:58:18:152269,16,14,11,-1,-6,-23,-2,-1
17:58:18:160411,16,14,11,-1,-6,-23,-2,-1
17:58:18:161172,14,19,-4,-8,-5,5,2,1
17:58:18:175374,4,-5,-5,5,-5,-14,-11,-9
17:58:18:176173,4,-5,-5,5,-5,-14,-11,-9
17:58:18:182233,0,-4,-10,-25,-7,5,-3,-1
17:58:18:189809,11,-4,10,10,8,18,5,10
17:58:18:197280,11,-4,10,10,8,18,5,10
17:58:18:212871,-9,0,-14,-15,-8,-2,-9,-9
17:58:18:213689,-33,0,-10,9,5,2,-3,-10
17:58:18:227933,-33,0,-10,9,5,2,-3,-10
17:58:18:228778,-1,-23,-3,22,7,-3,-2,9
17:58:18:235444,-22,-3,17,5,-3,6,2,-16
17:58:18:236246,-22,-3,17,5,-3,6,2,-16
17:58:18:242213,6,2,-1,-5,-9,-19,-13,-3
17:58:18:257926,16,0,-3,-11,1,3,7,9
17:58:18:258768,16,0,-3,-11,1,3,7,9
17:58:18:264712,14,-23,2,13,5,2,-3,-5
17:58:18:272931,19,-5,12,0,-6,10,3,9
17:58:18:273755,19,-5,12,0,-6,10,3,9
17:58:18:287190,20,12,-8,-8,2,-1,-4,1
17:58:18:295437,10,3,2,9,-1,-1,0,4
17:58:18:296253,10,3,2,9,-1,-1,0,4
17:58:18:302220,-23,5,14,-7,-2,4,1,-4
17:58:18:309697,-3,-2,2,13,-5,-14,-7,2
17:58:18:317279,-3,-2,2,13,-5,-14,-7,2
17:58:18:324737,-30,-4,14,21,4,4,2,1
17:58:18:332868,-36,-10,-45,-22,2,-4,-4,-1
17:58:18:333701,-36,-10,-45,-22,2,-4,-4,-1
17:58:18:339721,3,7,-20,-24,-2,-8,8,7
17:58:18:355431,3,22,23,5,3,15,1,-10
17:58:18:356229,3,22,23,5,3,15,1,-10
17:58:18:362227,2,3,0,17,13,1,-1,1
17:58:18:369737,28,-10,-19,-23,-8,-2,8,2
17:58:18:377257,28,-10,-19,-23,-8,-2,8,2
17:58:18:384802,-19,2,4,-5,-6,6,-1,-10
17:58:18:392888,25,-12,1,37,10,-3,0,1
17:58:18:393715,25,-12,1,37,10,-3,0,1
17:58:18:399699,12,-11,3,-3,-8,3,-6,-6
17:58:18:415369,-50,-3,4,-20,-14,-5,-2,1
17:58:18:416191,-50,-3,4,-20,-14,-5,-2,1
17:58:18:422245,-8,-2,7,7,1,-5,1,-6
17:58:18:429733,-16,-4,7,7,-4,-2,-2,2
17:58:18:437278,-16,-4,7,7,-4,-2,-2,2
17:58:18:444670,11,0,7,4,-4,-7,3,6
17:58:18:452905,5,0,-36,-26,-4,-3,1,1
17:58:18:453717,5,0,-36,-26,-4,-3,1,1
17:58:18:459695,-2,-1,-4,15,3,1,3,1
17:58:18:475424,3,10,-4,-10,3,-5,-8,0
17:58:18:476219,3,10,-4,-10,3,-5,-8,0
17:58:18:482205,-9,-2,2,11,1,6,2,-2
17:58:18:489720,10,0,-22,-4,0,-4,-6,-8
17:58:18:505514,10,0,-22,-4,0,-4,-6,-8
17:58:18:506188,15,17,8,-3,-1,-7,-7,8
17:58:18:512909,4,-4,2,-3,-3,-1,0,0
17:58:18:513715,4,-4,2,-3,-3,-1,0,0
17:58:18:519717,-87,8,-7,-16,-6,-6,-10,-11
17:58:18:535468,1,3,21,-5,-1,4,-1,-1
17:58:18:536211,1,3,21,-5,-1,4,-1,-1
17:58:18:542194,1,9,-35,-45,-9,-6,-3,6
17:58:18:549683,-26,-9,-13,-11,-7,-7,-2,2
17:58:18:557262,-26,-9,-13,-11,-7,-7,-2,2
17:58:18:564699,29,-18,0,9,2,2,3,-6
17:58:18:572900,20,-7,-5,-1,0,6,5,-2
17:58:18:573779,20,-7,-5,-1,0,6,5,-2
17:58:18:579692,35,-5,0,6,-4,1,0,4
17:58:18:595433,-16,-1,15,18,0,-2,-5,-9
17:58:18:596215,-16,-1,15,18,0,-2,-5,-9
17:58:18:602282,-19,20,0,1,-5,-3,1,-5
17:58:18:609706,-7,-8,-3,-1,0,5,3,2
17:58:18:617297,-7,-8,-3,-1,0,5,3,2
17:58:18:624697,-1,0,3,4,8,0,3,-7
17:58:18:632211,-4,-10,0,-9,-10,-6,1,-3
17:58:18:640419,-4,-10,0,-9,-10,-6,1,-3
17:58:18:641240,17,-12,12,13,3,2,-3,2
17:58:18:655439,27,-5,6,-5,0,-6,1,8
17:58:18:656245,27,-5,6,-5,0,-6,1,8
17:58:18:662196,-14,-10,2,-1,-1,-2,0,-1
17:58:18:669710,-12,1,-25,-3,6,-1,-2,4
17:58:18:677322,-12,1,-25,-3,6,-1,-2,4
17:58:18:684730,34,-9,-2,-3,-1,7,-1,7
17:58:18:692197,10,6,-13,-8,1,4,2,6
17:58:18:700376,10,6,-13,-8,1,4,2,6
17:58:18:701188,3,-4,1,7,1,-5,-6,1
17:58:18:715440,-10,-1,-8,-15,1,3,-3,-11
17:58:18:716243,-10,-1,-8,-15,1,3,-3,-11
17:58:18:722230,-22,-2,6,10,-2,-7,-3,-3
17:58:18:729708,-1,3,-4,6,2,1,-1,-5
17:58:18:737273,-1,3,-4,6,2,1,-1,-5
17:58:18:744796,23,1,-23,-22,-4,-6,6,1
17:58:18:752246,5,-5,7,12,1,-8,1,-4
17:58:18:760202,5,-5,7,12,1,-8,1,-4
17:58:18:784227,7,-2,9,-5,0,1,9,-1
17:58:18:785043,-12,-3,-2,2,0,-1,-3,-4
17:58:18:785941,-12,-3,-2,2,0,-1,-3,-4
17:58:18:786688,-24,5,-7,5,2,-1,-8,-11
17:58:18:789695,8,9,5,-6,-6,-8,0,7
17:58:18:805441,8,9,5,-6,-6,-8,0,7
17:58:18:806218,7,-1,4,4,-2,3,-6,-1
17:58:18:812195,-5,-14,-20,-21,1,3,5,3
17:58:18:819787,-5,-14,-20,-21,1,3,5,3
17:58:18:827231,12,-4,5,-7,2,5,6,3
17:58:18:835430,29,5,12,17,-1,-6,-5,-3
17:58:18:836241,29,5,12,17,-1,-6,-5,-3
17:58:18:849720,-3,-10,4,17,4,0,-3,1
17:58:18:857893,-23,11,-27,-27,-3,13,3,-3
17:58:18:858725,-23,11,-27,-27,-3,13,3,-3
17:58:18:864694,-15,9,7,12,-3,-1,0,0
17:58:18:872197,10,3,13,-7,-2,-2,2,4
17:58:18:879904,10,3,13,-7,-2,-2,2,4
17:58:18:887233,0,-10,-6,0,-7,-14,-12,-14
17:58:18:895377,0,-3,6,-1,-1,-3,-2,4
17:58:18:896178,0,-3,6,-1,-1,-3,-2,4
17:58:18:902257,4,-7,3,-3,-6,-6,-6,0
17:58:18:917955,2,9,4,-1,-3,-3,1,-3
17:58:18:918745,2,9,4,-1,-3,-3,1,-3
17:58:18:924719,15,2,-7,-7,-3,-5,-2,3
17:58:18:932229,16,-6,12,28,3,7,8,5
17:58:18:939765,16,-6,12,28,3,7,8,5
17:58:18:947213,5,0,-1,-5,-4,6,8,1
17:58:18:955390,4,10,-7,-5,-3,5,0,-2
17:58:18:956291,4,10,-7,-5,-3,5,0,-2
17:58:18:962226,1,1,-6,-8,6,-1,1,-1
17:58:18:977891,-8,-22,7,10,6,5,-1,2
17:58:18:978679,-8,-22,7,10,6,5,-1,2
17:58:18:984766,-20,-13,8,1,-2,-4,-3,-1
17:58:18:992231,-2,18,-14,-16,-7,-3,-13,-11
17:58:18:999760,-2,18,-14,-16,-7,-3,-13,-11
17:58:19:7202,-10,-22,-2,1,-3,-5,-11,-4
17:58:19:15398,4,24,11,5,2,-1,-5,-1
17:58:19:16203,4,24,11,5,2,-1,-5,-1
17:58:19:22212,2,9,2,-7,5,12,6,5
17:58:19:46095,-10,-7,9,9,-4,-8,3,-11
17:58:19:46992,-10,-7,9,9,-4,-8,3,-11
17:58:19:47731,24,15,11,5,-6,-10,-3,6
17:58:19:52227,-55,-34,3,3,-6,-17,-12,-9
17:58:19:59719,-55,-34,3,3,-6,-17,-12,-9
17:58:19:67221,-7,-35,-11,-12,-6,-14,-4,-5
17:58:19:75393,24,1,2,9,-1,-19,-15,-3
17:58:19:76230,24,1,2,9,-1,-19,-15,-3
17:58:19:82223,-6,20,-26,-10,3,6,5,4
17:58:19:97891,-6,-13,-16,-12,0,-12,13,0
17:58:19:98715,-6,-13,-16,-12,0,-12,13,0
17:58:19:104739,-15,26,6,18,1,7,8,-1
17:58:19:112246,14,1,4,3,1,4,3,8
17:58:19:119774,14,1,4,3,1,4,3,8
17:58:19:127210,-14,-15,-21,-12,-3,6,3,-1
17:58:19:143574,15,8,1,3,0,5,7,3
17:58:19:144382,15,8,1,3,0,5,7,3
17:58:19:145198,-2,4,8,-11,-1,0,5,-2
17:58:19:157973,8,-3,-5,8,-3,-12,-8,10
17:58:19:158721,8,-3,-5,8,-3,-12,-8,10
17:58:19:164733,-16,6,-3,-13,1,-1,-3,2
17:58:19:172915,-7,-16,-2,7,-2,-1,0,-2
17:58:19:173707,-7,-16,-2,7,-2,-1,0,-2
17:58:19:187754,5,-17,8,5,0,-10,-7,-3
17:58:19:195384,-4,-8,-5,8,-1,17,0,-9
17:58:19:196183,-4,-8,-5,8,-1,17,0,-9
17:58:19:202315,4,24,10,9,0,-1,-4,-2
17:58:19:217952,4,24,10,9,0,-1,-4,-2
17:58:19:218751,-22,15,4,0,-5,7,0,-1
17:58:19:224739,-15,-5,-6,0,8,11,8,6
17:58:19:240445,-15,-5,-6,0,8,11,8,6
17:58:19:241244,6,-4,7,11,-2,3,-6,1
17:58:19:247209,-12,-2,4,15,6,10,-1,-7
17:58:19:255441,-12,-2,4,15,6,10,-1,-7
17:58:19:256255,-23,-22,-2,-8,8,6,1,-3
17:58:19:262255,32,8,2,6,0,6,-2,7
17:58:19:277927,32,8,2,6,0,6,-2,7
17:58:19:278746,12,25,16,4,2,2,1,-1
17:58:19:284696,5,-37,-5,26,7,-7,-1,-5
17:58:19:300445,5,-37,-5,26,7,-7,-1,-5
17:58:19:301206,20,3,-6,-17,1,-3,-5,0
17:58:19:307226,-4,7,16,-4,-8,-15,-6,-4
17:58:19:323612,-4,7,16,-4,-8,-15,-6,-4
17:58:19:324392,-8,-4,-2,-7,-2,-14,3,-2
17:58:19:325204,6,6,-19,-22,-10,-3,-8,-4
17:58:19:337921,6,6,-19,-22,-10,-3,-8,-4
17:58:19:338681,-17,7,-18,-28,-3,1,-3,-8
17:58:19:344676,-8,3,-20,-20,-1,-5,-2,0
17:58:19:360413,-8,3,-20,-20,-1,-5,-2,0
17:58:19:361210,2,5,11,8,-4,-10,-3,6
17:58:19:367229,2,5,-25,-50,-1,6,9,-1
17:58:19:375417,2,5,-25,-50,-1,6,9,-1
17:58:19:376222,3,8,7,5,4,-1,1,6
17:58:19:382207,-8,6,10,12,-1,-4,-4,-3
17:58:19:398184,-8,6,10,12,-1,-4,-4,-3
17:58:19:398681,11,-10,-13,2,2,-5,0,2
17:58:19:404731,-2,-5,6,-2,0,0,1,-2
17:58:19:420397,-2,-5,6,-2,0,0,1,-2
17:58:19:421200,7,7,6,22,-3,2,1,-6
17:58:19:427274,-12,-3,2,4,-4,-4,-11,-8
17:58:19:435419,-12,-3,2,4,-4,-4,-11,-8
17:58:19:436197,-2,-2,7,-5,-9,-2,-1,2
17:58:19:442200,-10,-4,4,2,4,-5,-1,-4
17:58:19:457877,-10,-4,4,2,4,-5,-1,-4
17:58:19:458695,12,-10,-18,-17,0,6,3,4
17:58:19:464747,11,-1,30,2,-3,0,-2,0
17:58:19:472235,11,-1,30,2,-3,0,-2,0
17:58:19:479703,11,-4,0,-5,-3,3,-6,1
17:58:19:487232,-3,-4,3,-14,-1,4,2,-3
17:58:19:495404,-3,-4,3,-14,-1,4,2,-3
17:58:19:496223,-9,0,-15,-6,-3,-3,-2,1
17:58:19:502219,9,2,-18,-11,2,12,-1,5
17:58:19:517921,9,2,-18,-11,2,12,-1,5
17:58:19:518698,-8,-4,7,13,9,-2,-3,-7
17:58:19:524748,5,13,15,5,0,-20,-3,0
17:58:19:532268,5,13,15,5,0,-20,-3,0
17:58:19:539770,7,-2,7,6,5,15,5,0
17:58:19:547205,0,8,-4,7,-5,3,1,-1
17:58:19:555443,0,8,-4,7,-5,3,1,-1
17:58:19:556223,-5,12,-27,-26,3,9,7,7
17:58:19:562206,10,-3,-7,-20,-9,-5,3,1
17:58:19:577920,10,-3,-7,-20,-9,-5,3,1
17:58:19:578722,-22,-5,9,11,-12,-13,-8,-14
17:58:19:584695,9,-9,-7,7,3,4,1,8
17:58:19:592338,9,-9,-7,7,3,4,1,8
17:58:19:599715,-5,0,-15,-14,-2,-4,-2,3
17:58:19:607204,-3,-15,0,23,1,-2,-5,0
17:58:19:615449,-3,-15,0,23,1,-2,-5,0
17:58:19:616250,-38,10,5,8,-3,-7,-7,-4
17:58:19:622192,7,-3,3,7,3,8,10,3
17:58:19:637956,7,-3,3,7,3,8,10,3
17:58:19:638725,12,-14,14,7,1,-14,-2,0
17:58:19:644703,-1,-21,0,-11,-5,3,5,4
17:58:19:652298,-1,-21,0,-11,-5,3,5,4
17:58:19:659691,9,-3,-3,-4,-12,-21,-14,-10
17:58:19:667217,3,6,-10,8,-2,-3,3,3
17:58:19:675292,3,6,-10,8,-2,-3,3,3
17:58:19:682873,-23,-12,3,3,-3,17,4,-4
17:58:19:683707,-4,14,8,9,-6,8,-8,-8
17:58:19:697944,-4,14,8,9,-6,8,-8,-8
17:58:19:698772,-4,-2,5,-9,0,16,1,3
17:58:19:704705,-18,2,-1,-2,-8,-6,2,-2
17:58:19:712235,-18,2,-1,-2,-8,-6,2,-2
17:58:19:719747,14,7,12,6,4,0,5,2
17:58:19:727240,13,-17,-1,2,-5,-13,-14,-1
17:58:19:735259,13,-17,-1,2,-5,-13,-14,-1
17:58:19:742830,-6,2,-16,-6,-2,-13,-9,-8
17:58:19:743648,-10,20,0,1,2,-10,-3,-1
17:58:19:757878,-10,20,0,1,2,-10,-3,-1
17:58:19:758700,9,-2,-1,-9,-2,11,10,5
17:58:19:764739,9,-8,-10,6,1,-5,5,1
17:58:19:772253,9,-8,-10,6,1,-5,5,1
17:58:19:779683,-29,-10,4,-12,1,2,1,-8
17:58:19:787211,-17,6,-15,-17,3,7,0,-3
17:58:19:795407,-17,6,-15,-17,3,7,0,-3
17:58:19:796220,18,-1,-1,-14,-1,-4,6,11
17:58:19:809738,-18,1,0,4,7,3,-2,-10
17:58:19:817916,-18,1,0,4,7,3,-2,-10
17:58:19:818699,18,0,14,12,0,-5,-7,-2
17:58:19:824703,7,1,-39,-36,2,3,5,4
17:58:19:832257,7,1,-39,-36,2,3,5,4
17:58:19:839712,17,3,1,19,-1,-7,-7,-3
17:58:19:847191,10,-3,11,14,0,-3,-4,-5
17:58:19:855517,10,-3,11,14,0,-3,-4,-5
17:58:19:856240,-3,9,-16,-17,1,1,2,-2
17:58:19:869702,-9,-1,6,2,3,-3,3,1
17:58:19:877917,-9,-1,6,2,3,-3,3,1
17:58:19:878728,-15,2,2,12,0,-8,-6,-4
17:58:19:884707,-18,2,18,-1,-10,-9,-3,1
17:58:19:892282,-18,2,18,-1,-10,-9,-3,1
17:58:19:899791,2,1,-4,-4,1,6,2,-1
17:58:19:907250,4,4,5,16,-5,0,-3,3
17:58:19:915463,4,4,5,16,-5,0,-3,3
17:58:19:916257,8,-8,-2,-13,-6,-4,9,6
17:58:19:929699,7,0,8,6,-1,6,1,-1
17:58:19:937962,7,0,8,6,-1,6,1,-1
17:58:19:938736,-20,-1,-16,5,2,-12,-5,-5
17:58:19:944708,-2,4,3,-4,6,8,7,5
17:58:19:952281,-2,4,3,-4,6,8,7,5
17:58:19:959776,3,0,-5,14,2,7,1,2
17:58:19:967230,-2,-2,-7,-8,-8,-12,3,1
17:58:19:975414,-2,-2,-7,-8,-8,-12,3,1
17:58:19:976197,-9,2,7,-5,6,8,-5,-1
17:58:19:990219,-1,-9,-1,-3,-1,1,0,1
17:58:19:997925,-1,-9,-1,-3,-1,1,0,1
17:58:19:998785,-2,-6,1,0,-5,-9,-7,-3
17:58:20:4714,17,1,-2,5,-4,-8,-17,-4
17:58:20:12260,17,1,-2,5,-4,-8,-17,-4
17:58:20:19834,14,-10,-21,-16,-1,-3,0,1
17:58:20:27229,-2,0,-5,9,0,-2,-10,-1
17:58:20:35425,-2,0,-5,9,0,-2,-10,-1
17:58:20:36185,5,-5,1,-5,-4,5,0,-1
17:58:20:49722,3,-3,-8,-13,-1,0,-3,-7
17:58:20:57953,3,-3,-8,-13,-1,0,-3,-7
17:58:20:58701,2,3,3,-6,1,3,-1,4
17:58:20:64734,-6,-2,-12,-20,0,-5,-6,-2
17:58:20:72221,-6,-2,-12,-20,0,-5,-6,-2
17:58:20:79670,-13,20,12,11,2,3,16,3
17:58:20:87198,10,-5,28,14,0,11,3,-3
17:58:20:95399,10,-5,28,14,0,11,3,-3
17:58:20:96203,20,1,-4,-6,-3,20,-2,-8
17:58:20:109781,-5,2,-12,-29,-5,7,9,7
17:58:20:117905,-5,2,-12,-29,-5,7,9,7
17:58:20:118780,19,1,12,15,6,-10,-1,3
17:58:20:124752,-15,7,-17,2,1,-10,-5,-8
17:58:20:132296,-15,7,-17,2,1,-10,-5,-8
17:58:20:139711,-2,9,5,25,11,1,-6,-5
17:58:20:147238,-30,-8,-6,-21,-2,-9,2,7
17:58:20:155461,-30,-8,-6,-21,-2,-9,2,7
17:58:20:156222,-18,3,13,18,-1,-6,-7,-3
17:58:20:169761,3,-7,11,6,2,2,5,-3
17:58:20:177925,3,-7,11,6,2,2,5,-3
17:58:20:178750,4,-11,5,-13,-4,1,1,-2
17:58:20:184715,1,-3,12,6,7,11,0,1
17:58:20:192284,1,-3,12,6,7,11,0,1
17:58:20:199732,-5,2,4,8,-6,-13,-14,-1
17:58:20:207277,-8,-2,-9,1,-1,-2,3,-2
17:58:20:215458,-8,-2,-9,1,-1,-2,3,-2
17:58:20:216262,-3,2,-9,-4,-6,7,-2,-3
17:58:20:229701,1,3,-20,-6,-2,3,0,-4
17:58:20:237978,1,3,-20,-6,-2,3,0,-4
17:58:20:238788,-9,-18,-12,-18,-13,-12,3,1
17:58:20:244709,3,7,4,15,1,0,2,5
17:58:20:252331,3,7,4,15,1,0,2,5
17:58:20:259735,2,8,2,18,8,12,11,2
17:58:20:267249,-4,-5,3,-4,-6,-6,-2,-13
17:58:20:275397,-4,-5,3,-4,-6,-6,-2,-13
17:58:20:276202,6,-6,-8,-3,5,-3,7,5
17:58:20:289731,5,-3,16,14,-5,-5,-1,-1
17:58:20:297948,5,-3,16,14,-5,-5,-1,-1
17:58:20:298768,1,-5,-13,-16,-1,4,5,0
17:58:20:304720,10,1,0,0,2,-12,-5,2
17:58:20:312243,10,1,0,0,2,-12,-5,2
17:58:20:319768,-3,4,0,9,-4,8,-5,-2
17:58:20:327252,1,0,-6,-7,-6,-23,-5,-3
17:58:20:335440,1,0,-6,-7,-6,-23,-5,-3
17:58:20:336206,-12,0,12,-4,0,-3,-6,-2
17:58:20:349726,-1,2,1,9,1,2,-5,2
17:58:20:357878,-1,2,1,9,1,2,-5,2
17:58:20:358707,2,0,5,-1,-8,-6,-2,-1
17:58:20:364754,-1,-2,3,-7,-3,7,9,4
17:58:20:372276,-1,-2,3,-7,-3,7,9,4
17:58:20:379693,6,-5,0,7,-4,-13,-9,-4
17:58:20:387228,-2,-1,-9,-21,2,13,1,2
17:58:20:395436,-2,-1,-9,-21,2,13,1,2
17:58:20:396211,-2,-2,0,5,2,-5,2,6
17:58:20:409758,-6,-5,-8,12,3,3,3,-12
17:58:20:417917,-6,-5,-8,12,3,3,3,-12
17:58:20:418713,-3,2,-19,-27,-8,-10,-6,0
17:58:20:424756,6,-3,-6,-6,-5,-4,-10,-6
17:58:20:440418,6,-3,-6,-6,-5,-4,-10,-6
17:58:20:441275,-14,-4,0,-3,2,11,3,-2
17:58:20:447261,1,-9,-11,-16,-4,11,7,0
17:58:20:455424,1,-9,-11,-16,-4,11,7,0
17:58:20:456201,6,2,-24,-33,-3,-2,-2,2
17:58:20:470153,-12,-5,8,5,-1,-16,0,1
17:58:20:477941,-12,-5,8,5,-1,-16,0,1
17:58:20:478725,9,-11,6,11,-1,1,0,-2
17:58:20:484684,-2,1,3,5,-5,-8,-9,-1
17:58:20:492273,-2,1,3,5,-5,-8,-9,-1
17:58:20:499685,-9,4,14,16,2,-3,-6,-9
17:58:20:507211,-4,-3,2,6,4,14,1,2
17:58:20:515428,-4,-3,2,6,4,14,1,2
17:58:20:516238,-1,-7,12,5,1,10,10,1
17:58:20:529722,-8,2,-2,29,3,-6,2,1
17:58:20:537899,-8,2,-2,29,3,-6,2,1
17:58:20:538703,-7,0,6,11,7,5,0,-1
17:58:20:544685,-4,-12,0,14,2,-8,-9,-7
17:58:20:552270,-4,-12,0,14,2,-8,-9,-7
17:58:20:559715,-5,-1,-7,0,-4,-13,-11,-11
17:58:20:567288,1,3,21,-5,1,8,-6,2
17:58:20:575440,1,3,21,-5,1,8,-6,2
17:58:20:576229,7,-2,-9,-3,3,-4,1,2
17:58:20:589714,8,12,-2,-9,-4,-8,-3,0
17:58:20:597939,8,12,-2,-9,-4,-8,-3,0
17:58:20:598752,0,4,-4,-10,-10,-12,-7,2
17:58:20:604685,13,-13,-7,-4,1,4,-3,0
17:58:20:612293,13,-13,-7,-4,1,4,-3,0
17:58:20:619712,8,-1,-2,-1,3,4,1,1
17:58:20:627214,-1,4,-6,-11,-3,4,0,-1
17:58:20:635403,-1,4,-6,-11,-3,4,0,-1
17:58:20:636206,-15,0,-8,-7,-2,-9,-2,-2
17:58:20:649778,-4,1,2,0,-2,3,5,-3
17:58:20:657948,-4,1,2,0,-2,3,5,-3
17:58:20:658740,-10,9,-15,-26,-3,-2,-3,-10
17:58:20:664719,-8,7,-3,3,2,-3,-3,6
17:58:20:672237,-8,7,-3,3,2,-3,-3,6
17:58:20:679731,-2,0,10,6,1,18,7,4
17:58:20:687220,-4,5,0,1,0,-7,1,-8
17:58:20:695395,-4,5,0,1,0,-7,1,-8
17:58:20:696210,0,-2,7,16,0,-11,-3,4
17:58:20:719160,8,-3,2,-2,-2,5,1,3
17:58:20:719866,8,-3,2,-2,-2,5,1,3
17:58:20:720681,-9,1,8,19,0,2,-4,7
17:58:20:732920,-1,-3,2,-5,-3,-5,-7,-7
17:58:20:733730,-1,-3,2,-5,-3,-5,-7,-7
17:58:20:739694,21,-5,-4,-8,-3,9,0,1
17:58:20:747224,-1,6,-16,-3,-2,-25,-7,1
17:58:20:754779,-1,6,-16,-3,-2,-25,-7,1
17:58:20:762224,1,4,-8,4,6,-2,-2,-8
17:58:20:769727,-2,-6,-5,-6,-1,18,1,0
17:58:20:777955,-2,-6,-5,-6,-1,18,1,0
17:58:20:778741,4,-3,-14,-27,1,11,14,3
17:58:20:792954,2,0,5,-7,-1,14,9,-1
17:58:20:793735,2,0,5,-7,-1,14,9,-1
17:58:20:799723,-24,8,3,-2,-7,-4,-2,3
17:58:20:807219,4,-1,2,-9,-4,16,-6,1
17:58:20:814880,4,-1,2,-9,-4,16,-6,1
17:58:20:822232,-4,-7,5,-5,-11,-5,-10,-7
17:58:20:829733,-5,-3,3,13,0,-10,-6,-2
17:58:20:837906,-5,-3,3,13,0,-10,-6,-2
17:58:20:838705,3,2,2,3,-3,9,0,0
17:58:20:852947,0,1,3,-1,1,3,-3,-7
17:58:20:853724,0,1,3,-1,1,3,-3,-7
17:58:20:859717,7,-15,-5,6,0,-2,-1,-2
17:58:20:867232,-2,-1,-3,-7,-4,1,7,3
17:58:20:874741,-2,-1,-3,-7,-4,1,7,3
17:58:20:882243,1,3,1,6,-4,-9,-2,-4
17:58:20:889722,-15,-10,5,4,3,-7,2,4
17:58:20:897911,-15,-10,5,4,3,-7,2,4
17:58:20:898711,6,-3,-5,-1,6,-3,0,-1
17:58:20:912880,-2,-4,-14,-20,-5,-7,2,-1
17:58:20:913713,-2,-4,-14,-20,-5,-7,2,-1
17:58:20:919737,-3,-3,-5,-1,-3,-9,-12,-9
17:58:20:927249,-7,2,-7,3,2,-2,-3,-8
17:58:20:934790,-7,2,-7,3,2,-2,-3,-8
17:58:20:942220,-6,-9,-2,1,-1,3,0,-2
17:58:20:949753,6,-2,-6,-2,-1,-10,-2,2
17:58:20:957921,6,-2,-6,-2,-1,-10,-2,2
17:58:20:958699,11,-2,1,-3,0,-3,2,0
17:58:20:972899,-3,-2,-1,-1,3,9,-1,-1
17:58:20:973697,-3,-2,-1,-1,3,9,-1,-1
17:58:20:979702,15,8,1,7,1,-2,3,7
17:58:20:995394,-5,14,15,-1,0,-10,-5,-5
17:58:20:996197,-5,14,15,-1,0,-10,-5,-5
17:58:21:2308,-3,7,-7,-10,1,3,-9,-1
17:58:21:9703,1,0,1,8,-2,0,-11,-4
17:58:21:17930,1,0,1,8,-2,0,-11,-4
17:58:21:18709,0,0,-11,-9,-4,-4,2,5
17:58:21:32963,-3,3,-1,4,1,0,5,0
17:58:21:33719,-3,3,-1,4,1,0,5,0
17:58:21:39692,-6,2,1,10,1,8,4,3
17:58:21:47225,-4,-3,1,-5,-3,-2,4,1
17:58:21:54757,-4,-3,1,-5,-3,-2,4,1
17:58:21:62458,-16,-3,0,-4,-5,-2,0,-8
17:58:21:69692,3,7,-2,0,0,-5,-2,6
17:58:21:77925,3,7,-2,0,0,-5,-2,6
17:58:21:78742,-4,-4,15,10,-3,-15,1,-3
17:58:21:101161,5,0,-5,-1,-2,-5,-1,1
17:58:21:101900,5,0,-5,-1,-2,-5,-1,1
17:58:21:102677,-3,9,4,11,1,-8,-5,-1
17:58:21:107222,3,-6,-2,2,1,11,3,2
17:58:21:114764,3,-6,-2,2,1,11,3,2
17:58:21:122298,3,-4,-1,-2,2,-3,-2,0
17:58:21:129685,-1,-4,-8,-16,-3,-1,-3,-4
17:58:21:137941,-1,-4,-8,-16,-3,-1,-3,-4
17:58:21:138696,7,-6,-6,-12,0,-2,6,-3
17:58:21:153015,-5,-1,0,6,-1,-8,3,-5
17:58:21:153711,-5,-1,0,6,-1,-8,3,-5
17:58:21:159690,3,-8,-15,-29,-5,-14,-5,5
17:58:21:167232,14,-9,7,3,2,4,7,9
17:58:21:174742,14,-9,7,3,2,4,7,9
17:58:21:182239,-7,0,8,8,5,19,3,-3
17:58:21:189703,-7,4,-3,0,-8,-11,2,0
17:58:21:197943,-7,4,-3,0,-8,-11,2,0
17:58:21:198722,2,6,-8,-16,-6,-7,-10,0
17:58:21:212902,8,-1,7,13,4,9,-1,0
17:58:21:213737,8,-1,7,13,4,9,-1,0
17:58:21:219692,-1,0,1,-6,-2,0,0,2
17:58:21:227210,-16,5,0,7,2,9,-4,-12
17:58:21:242917,-16,5,0,7,2,9,-4,-12
17:58:21:243731,2,1,-4,7,3,3,6,0
17:58:21:249694,4,-8,-12,-15,-5,-1,-5,2
17:58:21:257924,4,-8,-12,-15,-5,-1,-5,2
17:58:21:258758,-3,-1,2,-3,-2,-3,-1,1
17:58:21:272939,1,1,-5,1,-1,-24,-14,4
17:58:21:273734,1,1,-5,1,-1,-24,-14,4
17:58:21:279724,-1,-4,1,14,-2,22,0,-2
17:58:21:287220,-2,-13,14,-3,-5,6,6,-2
17:58:21:294799,-2,-13,14,-3,-5,6,6,-2
17:58:21:302266,-4,1,16,9,-4,-9,-3,-7
17:58:21:309693,-7,4,6,13,-3,-13,-11,-5
17:58:21:317941,-7,4,6,13,-3,-13,-11,-5
17:58:21:318736,2,-8,1,4,0,1,3,3
17:58:21:332993,6,3,-10,-14,-7,-17,-1,1
17:58:21:333737,6,3,-10,-14,-7,-17,-1,1
17:58:21:339729,-6,3,-21,-10,3,-15,-4,-4
17:58:21:347238,-6,-4,-10,-7,0,19,5,2
17:58:21:362960,-6,-4,-10,-7,0,19,5,2
17:58:21:363709,-4,0,4,1,4,-2,-4,-1
17:58:21:369685,1,4,-3,-2,3,-4,-10,-4
17:58:21:377926,1,4,-3,-2,3,-4,-10,-4
17:58:21:378723,-4,-1,7,12,-8,2,-2,0
17:58:21:392909,-8,-1,-6,8,8,13,7,0
17:58:21:393715,-8,-1,-6,8,8,13,7,0
17:58:21:399729,-1,-6,7,-8,-2,-1,0,-5
17:58:21:407221,6,4,1,-3,-1,7,0,1
17:58:21:414868,6,4,1,-3,-1,7,0,1
17:58:21:422230,-3,3,15,18,4,2,6,2
17:58:21:429707,1,4,3,-2,-6,-22,-2,-2
17:58:21:437923,1,4,3,-2,-6,-22,-2,-2
17:58:21:438733,5,0,5,-16,-1,14,6,0
17:58:21:452901,-1,1,5,21,1,-9,9,0
17:58:21:453758,-1,1,5,21,1,-9,9,0
17:58:21:459691,4,-4,-10,-1,0,-9,-3,4
17:58:21:467227,-2,-7,-5,-10,0,17,3,-4
17:58:21:474776,-2,-7,-5,-10,0,17,3,-4
17:58:21:482233,0,3,-2,-7,-4,-22,-16,-5
17:58:21:489716,-1,-2,6,7,-2,-4,-2,-2
17:58:21:497917,-1,-2,6,7,-2,-4,-2,-2
17:58:21:498689,-5,10,-8,-10,-6,4,1,1
17:58:21:512919,-7,5,-2,5,-1,-5,-10,-1
17:58:21:513746,-7,5,-2,5,-1,-5,-10,-1
17:58:21:519714,-14,-5,-26,-19,-1,-4,-3,-3
17:58:21:527225,10,-1,-2,-21,-6,10,1,0
17:58:21:542959,10,-1,-2,-21,-6,10,1,0
17:58:21:543716,6,2,11,31,10,6,6,1
17:58:21:549702,2,-5,-13,-17,4,-16,5,4
17:58:21:557937,2,-5,-13,-17,4,-16,5,4
17:58:21:558751,10,-2,11,15,0,2,11,9
17:58:21:572933,-5,-2,-1,15,-6,-8,-10,-4
17:58:21:573754,-5,-2,-1,15,-6,-8,-10,-4
17:58:21:579715,4,-1,-9,5,3,7,1,1
17:58:21:587297,4,4,0,-11,-3,13,1,4
17:58:21:594783,4,4,0,-11,-3,13,1,4
17:58:21:602245,-6,2,-7,-20,-6,1,-3,-4
17:58:21:609722,-1,-3,9,-4,0,-1,-3,-3
17:58:21:617921,-1,-3,9,-4,0,-1,-3,-3
17:58:21:618700,-6,6,5,-16,-9,-19,-3,-1
17:58:21:632901,1,3,-4,7,1,4,-1,2
17:58:21:633686,1,3,-4,7,1,4,-1,2
17:58:21:639725,1,8,-3,14,5,1,-11,-10
17:58:21:647255,4,2,-23,-22,-1,6,4,1
17:58:21:654726,4,2,-23,-22,-1,6,4,1
17:58:21:662230,-6,-4,-31,-42,-3,-8,0,-2
17:58:21:669726,-3,-1,-10,-5,6,-8,-9,-1
17:58:21:677255,-3,-1,-10,-5,6,-8,-9,-1
17:58:21:684656,-2,-4,10,-4,-10,-12,1,-1
17:58:21:692883,3,1,3,-3,-5,-8,-4,0
17:58:21:693704,3,1,3,-3,-5,-8,-4,0
17:58:21:699700,-8,-7,29,16,8,3,-9,-6
17:58:21:715386,-3,-6,3,12,-2,6,3,-7
17:58:21:716218,-3,-6,3,12,-2,6,3,-7
17:58:21:722215,3,-6,-1,16,-1,1,-1,-2
17:58:21:729682,0,-10,1,-4,-7,-19,6,3
17:58:21:737235,0,-10,1,-4,-7,-19,6,3
17:58:21:744708,12,0,-21,-34,3,10,9,4
