Time,EMG1,EMG2,EMG3,EMG4,EMG5,EMG6,EMG7,EMG8
20:45:42:380337,-2,0,-2,-22,-1,-1,-1,-7
20:45:42:381127,-2,0,-2,-22,-1,-1,-1,-7
20:45:42:387123,0,-3,1,16,4,-1,-1,-12
20:45:42:394601,-1,-3,-4,-10,-8,-1,-4,-2
20:45:42:402143,-1,-3,-4,-10,-8,-1,-4,-2
20:45:42:409611,0,1,3,8,4,2,1,2
20:45:42:417819,-2,1,-2,-16,-8,-2,-3,-18
20:45:42:418654,-2,1,-2,-16,-8,-2,-3,-18
20:45:42:424606,-3,0,-1,-8,1,1,0,5
20:45:42:440358,-2,-1,-3,9,-11,-2,-3,5
20:45:42:441137,-2,-1,-3,9,-11,-2,-3,5
20:45:42:447100,-2,-1,-3,-1,7,1,-1,2
20:45:42:454611,-1,0,-1,-7,3,0,-2,-2
20:45:42:462185,-1,0,-1,-7,3,0,-2,-2
20:45:42:469657,-4,-3,-2,21,-3,-4,-6,-12
20:45:42:477782,2,1,-1,-3,4,0,3,13
20:45:42:478603,2,1,-1,-3,4,0,3,13
20:45:42:484646,1,-2,1,-4,3,-1,0,3
20:45:42:500352,1,-1,-1,-9,-8,-2,0,4
20:45:42:501148,1,-1,-1,-9,-8,-2,0,4
20:45:42:507103,0,2,1,-5,5,-2,-1,0
20:45:42:514603,3,0,1,-3,8,1,-2,4
20:45:42:522146,3,0,1,-3,8,1,-2,4
20:45:42:529669,-1,-1,-1,-4,-4,0,0,3
20:45:42:537808,-4,-2,-5,1,-8,-6,-1,-1
20:45:42:538629,-4,-2,-5,1,-8,-6,-1,-1
20:45:42:544571,3,0,2,14,18,3,2,7
20:45:42:560284,-2,-2,-1,-12,-6,-1,0,-8
20:45:42:561093,-2,-2,-1,-12,-6,-1,0,-8
20:45:42:567147,-2,-1,-2,-12,-11,-3,-1,4
20:45:42:574659,-1,-2,-2,-20,-6,-3,-1,15
20:45:42:582161,-1,-2,-2,-20,-6,-3,-1,15
20:45:42:589613,-1,-3,2,3,10,1,0,-2
20:45:42:597846,-1,0,2,2,1,0,0,1
20:45:42:598617,-1,0,2,2,1,0,0,1
20:45:42:604584,1,1,-2,0,-11,-1,-1,-2
20:45:42:620291,0,0,1,3,2,1,0,-6
20:45:42:621094,0,0,1,3,2,1,0,-6
20:45:42:627082,-1,0,-4,-2,-4,-1,-2,-9
20:45:42:634589,0,0,1,0,2,1,-2,-7
20:45:42:642160,0,0,1,0,2,1,-2,-7
20:45:42:649575,-1,-1,-3,-5,-11,-6,0,8
20:45:42:657804,-1,-3,0,0,9,-1,-1,-2
20:45:42:658625,-1,-3,0,0,9,-1,-1,-2
20:45:42:664602,-2,-1,-2,-3,-1,-2,1,0
20:45:42:680321,0,-1,-1,10,-4,-2,-2,-2
20:45:42:681124,0,-1,-1,10,-4,-2,-2,-2
20:45:42:687082,-3,-4,-3,-11,-1,0,-2,-4
20:45:42:694571,-2,-2,-1,-3,-6,-3,-1,-4
20:45:42:702152,-2,-2,-1,-3,-6,-3,-1,-4
20:45:42:709662,-1,-1,-1,10,-1,0,-1,-3
20:45:42:717861,1,-1,0,12,4,1,-1,-4
20:45:42:718669,1,-1,0,12,4,1,-1,-4
20:45:42:724603,1,-2,-2,-8,-12,-4,-1,1
20:45:42:740299,-3,0,0,-3,4,2,-1,-3
20:45:42:741133,-3,0,0,-3,4,2,-1,-3
20:45:42:747107,-1,-1,0,-3,5,1,-1,-1
20:45:42:754618,-1,-1,-3,-8,-7,-4,-3,-4
20:45:42:762184,-1,-1,-3,-8,-7,-4,-3,-4
20:45:42:769594,-2,-4,-2,-11,-3,-3,-2,-3
20:45:42:777779,-1,-2,1,6,3,-1,0,-1
20:45:42:778624,-1,-2,1,6,3,-1,0,-1
20:45:42:784685,0,2,-1,0,2,-1,-1,0
20:45:42:800319,-2,-2,-1,-6,3,1,0,-3
20:45:42:801165,-2,-2,-1,-6,3,1,0,-3
20:45:42:807092,1,-2,4,29,-3,1,0,-2
20:45:42:814638,-1,0,-2,6,6,1,0,0
20:45:42:822162,-1,0,-2,6,6,1,0,0
20:45:42:829677,-2,2,-1,-6,-7,-4,-1,0
20:45:42:837791,-1,-3,1,11,-6,0,-2,-2
20:45:42:838604,-1,-3,1,11,-6,0,-2,-2
20:45:42:844593,-2,1,0,2,5,0,-1,0
20:45:42:860299,0,0,-2,-7,-7,-2,-1,-2
20:45:42:861097,0,0,-2,-7,-7,-2,-1,-2
20:45:42:867133,-3,0,-4,-24,-3,0,0,0
20:45:42:874679,-1,1,3,5,8,2,-1,-7
20:45:42:882131,-1,1,3,5,8,2,-1,-7
20:45:42:889626,-5,-1,-2,-11,-1,-1,-2,-6
20:45:42:897806,-1,-2,-3,-10,-3,-2,0,0
20:45:42:898634,-1,-2,-3,-10,-3,-2,0,0
20:45:42:904599,3,0,-3,-6,4,1,0,5
20:45:42:920303,-1,0,-2,5,-5,-2,-4,-3
20:45:42:921097,-1,0,-2,5,-5,-2,-4,-3
20:45:42:927095,-1,-2,2,4,0,1,1,-2
20:45:42:934618,0,2,4,15,-1,-1,1,0
20:45:42:942175,0,2,4,15,-1,-1,1,0
20:45:42:949592,-4,-7,-23,-87,-4,1,-1,-2
20:45:42:957812,1,2,-1,18,0,-2,-2,-1
20:45:42:958642,1,2,-1,18,0,-2,-2,-1
20:45:42:964628,-1,-1,9,40,-4,-3,-3,0
20:45:42:980308,0,2,0,-14,2,2,1,5
20:45:42:981126,0,2,0,-14,2,2,1,5
20:45:42:987067,4,1,1,9,4,0,1,2
20:45:42:994568,-2,-3,-1,9,0,-2,-2,-4
20:45:43:2173,-2,-3,-1,9,0,-2,-2,-4
20:45:43:9594,-4,-1,2,-1,-6,-2,0,1
20:45:43:17893,8,0,-1,-15,0,2,1,-2
20:45:43:18684,8,0,-1,-15,0,2,1,-2
20:45:43:24645,0,2,2,17,3,-1,-1,-1
20:45:43:40320,-5,-4,-6,-13,-3,-2,-3,-1
20:45:43:41130,-5,-4,-6,-13,-3,-2,-3,-1
20:45:43:47129,2,-2,3,36,1,0,-2,-4
20:45:43:54599,-14,-6,-11,-70,-9,-4,-2,-8
20:45:43:62226,-14,-6,-11,-70,-9,-4,-2,-8
20:45:43:69614,-3,2,3,14,10,2,0,-1
20:45:43:77786,1,-4,1,30,-3,-2,-2,2
20:45:43:78596,1,-4,1,30,-3,-2,-2,2
20:45:43:84626,-3,-2,-6,-4,-3,-2,0,-2
20:45:43:100264,-1,-1,2,10,-1,1,-3,0
20:45:43:101075,-1,-1,2,10,-1,1,-3,0
20:45:43:107124,2,2,0,-13,-6,0,0,0
20:45:43:114618,2,-3,-5,-4,1,-1,0,-1
20:45:43:130326,2,-3,-5,-4,1,-1,0,-1
20:45:43:131116,-3,0,3,7,-1,-1,-2,0
20:45:43:137860,-7,2,-4,-23,3,2,2,1
20:45:43:138629,-7,2,-4,-23,3,2,2,1
20:45:43:144646,2,10,2,2,-5,-4,1,1
20:45:43:160317,-4,-2,0,8,-2,-1,-2,-9
20:45:43:161159,-4,-2,0,8,-2,-1,-2,-9
20:45:43:167147,2,-4,-1,-7,0,-1,-1,-1
20:45:43:182847,2,-4,-1,-7,0,-1,-1,-1
20:45:43:183618,1,2,1,2,-1,0,-2,2
20:45:43:189647,0,-2,-2,-17,-5,-1,-4,-2
20:45:43:197830,0,-2,-2,-17,-5,-1,-4,-2
20:45:43:198658,0,0,3,14,4,-2,0,6
20:45:43:212115,-3,-3,-5,-5,3,1,0,-7
20:45:43:220339,-3,-3,-5,-5,3,1,0,-7
20:45:43:221116,1,-3,-1,10,-6,-2,0,1
20:45:43:227126,-4,-2,-2,-4,-2,-1,-2,-2
20:45:43:242827,-4,-2,-2,-4,-2,-1,-2,-2
20:45:43:243622,4,2,-1,-13,-5,-3,1,1
20:45:43:249633,-3,-5,-1,-10,-4,-3,-1,-2
20:45:43:257829,-3,-5,-1,-10,-4,-3,-1,-2
20:45:43:258617,-3,1,1,1,11,3,0,-1
20:45:43:272085,5,-1,-3,-5,-2,0,2,4
20:45:43:280341,5,-1,-3,-5,-2,0,2,4
20:45:43:281129,-5,-6,-3,3,-6,-4,-5,-7
20:45:43:287106,-5,-1,-2,3,-4,-2,-5,-4
20:45:43:302823,-5,-1,-2,3,-4,-2,-5,-4
20:45:43:303620,1,-1,-1,-2,-2,-1,1,7
20:45:43:309603,2,-1,-2,4,-1,1,2,6
20:45:43:317827,2,-1,-2,4,-1,1,2,6
20:45:43:318620,2,0,-2,-15,-4,-1,-1,-4
20:45:43:332113,-4,-4,-1,19,9,0,-6,-13
20:45:43:340333,-4,-4,-1,19,9,0,-6,-13
20:45:43:341149,1,0,1,1,3,0,0,6
20:45:43:354639,-1,-3,-1,-19,-4,-2,1,8
20:45:43:362834,-1,-3,-1,-19,-4,-2,1,8
20:45:43:363598,-1,-1,-2,2,-3,-4,0,-2
20:45:43:369595,-1,0,-3,3,1,-1,-2,-1
20:45:43:377852,-1,0,-3,3,1,-1,-2,-1
20:45:43:378638,-1,1,0,5,0,0,-1,-1
20:45:43:392149,1,-1,0,6,3,0,0,-4
20:45:43:401035,1,-1,0,6,3,0,0,-4
20:45:43:401821,-2,0,0,0,-3,0,-3,3
20:45:43:407078,-1,0,1,-3,2,-2,4,-1
20:45:43:422856,-1,0,1,-3,2,-2,4,-1
20:45:43:423604,-1,0,0,0,0,-4,-4,-6
20:45:43:429618,1,-3,-2,-12,-8,-1,3,6
20:45:43:437841,1,-3,-2,-12,-8,-1,3,6
20:45:43:438611,-2,-3,2,18,8,2,0,-4
20:45:43:452135,0,1,-3,3,1,1,-4,-7
20:45:43:460331,0,1,-3,3,1,1,-4,-7
20:45:43:461118,0,-1,-1,-10,-8,-2,-1,2
20:45:43:467119,-3,-1,-2,-6,-1,-1,-1,-3
20:45:43:482814,-3,-1,-2,-6,-1,-1,-1,-3
20:45:43:483632,-1,-2,-2,0,0,-1,1,0
20:45:43:489670,-1,0,0,-2,-3,-4,-1,-1
20:45:43:497839,-1,0,0,-2,-3,-4,-1,-1
20:45:43:498595,0,-2,0,7,1,-2,-3,-2
20:45:43:512122,-2,-1,0,7,2,0,-2,3
20:45:43:520292,-2,-1,0,7,2,0,-2,3
20:45:43:521109,-1,0,-2,-7,-5,-3,-2,-4
20:45:43:527187,0,11,-2,-7,-4,1,0,0
20:45:43:542900,0,11,-2,-7,-4,1,0,0
20:45:43:543675,1,-9,0,-1,-2,1,2,0
20:45:43:549624,-4,1,3,1,-3,0,-1,-3
20:45:43:557854,-4,1,3,1,-3,0,-1,-3
20:45:43:558614,-1,9,4,-3,-1,2,-1,0
20:45:43:572116,-1,13,-6,3,0,-2,-2,-3
20:45:43:580296,-1,13,-6,3,0,-2,-2,-3
20:45:43:581077,2,-4,8,1,1,-3,-3,0
20:45:43:587167,1,-9,-14,-15,-7,-3,-2,-1
20:45:43:602856,1,-9,-14,-15,-7,-3,-2,-1
20:45:43:603626,-4,-11,-12,15,0,8,2,-3
20:45:43:609668,0,-8,8,8,8,1,2,1
20:45:43:617837,0,-8,8,8,8,1,2,1
20:45:43:618579,5,-15,-12,-4,-7,-4,-3,-3
20:45:43:632124,-10,-71,-29,-9,6,8,-5,-4
20:45:43:640344,-10,-71,-29,-9,6,8,-5,-4
20:45:43:641135,-2,17,17,41,5,-8,-2,-1
20:45:43:647125,5,45,20,-8,-14,-5,0,-2
20:45:43:662857,5,45,20,-8,-14,-5,0,-2
20:45:43:663636,-2,5,3,-8,-1,-2,2,-1
20:45:43:669654,-8,-74,-20,-8,-5,-8,-4,-3
20:45:43:685379,-8,-74,-20,-8,-5,-8,-4,-3
20:45:43:686130,-2,-13,0,-22,-5,-1,0,-1
20:45:43:692096,4,58,26,52,10,-3,-8,-2
20:45:43:700342,4,58,26,52,10,-3,-8,-2
20:45:43:701128,-9,-32,-17,-6,11,15,6,0
20:45:43:707108,2,19,-3,-9,-7,2,8,2
20:45:43:722845,2,19,-3,-9,-7,2,8,2
20:45:43:723646,0,-17,-3,-24,-16,-11,-5,-5
20:45:43:729637,1,13,-5,11,-10,-5,-7,1
20:45:43:737868,1,13,-5,11,-10,-5,-7,1
20:45:43:738649,6,8,-14,-36,-4,2,1,1
20:45:43:752113,2,-10,-8,-32,3,3,6,10
20:45:43:760327,2,-10,-8,-32,3,3,6,10
20:45:43:761122,-11,1,4,18,5,-2,-13,-24
20:45:43:767135,2,6,10,21,11,0,2,1
20:45:43:782872,2,6,10,21,11,0,2,1
20:45:43:783662,4,13,1,10,5,0,0,6
20:45:43:789602,-4,-21,0,17,-3,-1,-4,-3
20:45:43:797854,-4,-21,0,17,-3,-1,-4,-3
20:45:43:798628,-3,12,-2,-2,3,-3,-3,-3
20:45:43:812112,0,11,6,-8,-6,0,-3,-3
20:45:43:820335,0,11,6,-8,-6,0,-3,-3
20:45:43:821152,2,6,5,19,8,-6,-5,3
20:45:43:827100,-3,6,2,-31,6,4,1,-4
20:45:43:842834,-3,6,2,-31,6,4,1,-4
20:45:43:843613,-4,-7,-8,-22,-12,-5,-4,0
20:45:43:849583,3,-9,6,52,5,-5,-5,-2
20:45:43:857853,3,-9,6,52,5,-5,-5,-2
20:45:43:858669,0,-8,-14,-75,-1,2,2,3
20:45:43:872087,-12,-33,-22,-75,5,9,0,-5
20:45:43:880329,-12,-33,-22,-75,5,9,0,-5
20:45:43:881118,1,-20,-3,79,8,-4,-1,-2
20:45:43:887117,3,-3,5,-1,-20,-12,-1,0
20:45:43:902845,3,-3,5,-1,-20,-12,-1,0
20:45:43:903608,0,10,8,4,7,9,4,2
20:45:43:909584,-2,9,0,-8,12,6,6,0
20:45:43:917835,-2,9,0,-8,12,6,6,0
20:45:43:918604,3,8,-9,3,-9,-5,2,3
20:45:43:932114,0,10,3,4,-14,-9,-6,-4
20:45:43:940324,0,10,3,4,-14,-9,-6,-4
20:45:43:941104,-2,-11,-50,-32,-15,-2,-2,-2
20:45:43:947111,2,7,32,13,6,-1,1,2
20:45:43:962801,2,7,32,13,6,-1,1,2
20:45:43:963599,-7,-1,-24,2,1,0,1,3
20:45:43:969635,17,10,24,15,-6,-1,-23,11
20:45:43:977821,17,10,24,15,-6,-1,-23,11
20:45:43:978616,-12,9,63,6,0,-10,-18,-48
20:45:43:992117,2,5,26,21,1,-1,1,0
20:45:44:295,2,5,26,21,1,-1,1,0
20:45:44:1096,-6,-6,22,9,-7,4,13,-6
20:45:44:7162,2,-1,-74,-23,1,-3,3,-4
20:45:44:22879,2,-1,-74,-23,1,-3,3,-4
20:45:44:23669,-2,5,20,12,2,8,12,7
20:45:44:29665,-1,-4,-29,-13,-8,-4,11,-34
20:45:44:37799,-1,-4,-29,-13,-8,-4,11,-34
20:45:44:38596,7,0,-19,-7,-3,2,-14,7
20:45:44:52133,-12,2,3,3,6,0,-3,20
20:45:44:60290,-12,2,3,3,6,0,-3,20
20:45:44:61072,15,7,15,-3,-2,-5,-2,-31
20:45:44:67111,-13,-2,-1,-1,1,5,-22,3
20:45:44:82866,-13,-2,-1,-1,1,5,-22,3
20:45:44:83626,0,2,-12,-24,-17,-8,-15,23
20:45:44:89620,-4,-8,-25,8,15,4,0,-3
20:45:44:97794,-4,-8,-25,8,15,4,0,-3
20:45:44:98570,1,0,-9,1,1,-2,4,5
20:45:44:112090,-2,0,10,-8,-10,-2,3,-1
20:45:44:120349,-2,0,10,-8,-10,-2,3,-1
20:45:44:121139,-2,3,-1,-28,-12,-1,1,3
20:45:44:127126,-3,-8,1,14,6,0,7,2
20:45:44:142836,-3,-8,1,14,6,0,7,2
20:45:44:143630,-3,-1,7,6,2,-2,-4,5
20:45:44:149604,12,6,11,-1,-3,3,14,6
20:45:44:157890,12,6,11,-1,-3,3,14,6
20:45:44:158622,0,-2,0,14,3,1,-2,7
20:45:44:172095,-6,-3,-9,-32,-11,-6,-2,-7
20:45:44:180350,-6,-3,-9,-32,-11,-6,-2,-7
20:45:44:181133,1,0,-1,-1,9,4,3,5
20:45:44:187109,-3,0,11,34,-3,-3,-2,0
20:45:44:202857,-3,0,11,34,-3,-3,-2,0
20:45:44:203639,-1,4,4,-6,7,1,4,-1
20:45:44:209624,-3,-4,-4,6,-5,-2,-2,-3
20:45:44:217172,-3,-4,-4,6,-5,-2,-2,-3
20:45:44:224630,-7,-1,-8,-2,-4,0,3,-1
20:45:44:232138,1,-1,-3,-16,0,0,-2,0
20:45:44:240282,1,-1,-3,-16,0,0,-2,0
20:45:44:241085,2,6,5,25,7,-3,0,3
20:45:44:254610,0,-5,-6,-18,-11,-5,-1,-3
20:45:44:263276,0,-5,-6,-18,-11,-5,-1,-3
20:45:44:270275,2,7,1,1,8,2,0,-1
20:45:44:271081,0,-13,-3,-11,-1,-2,0,-3
20:45:44:277144,0,-13,-3,-11,-1,-2,0,-3
20:45:44:284638,-4,-7,-3,-7,-6,-3,-2,-1
20:45:44:292119,0,1,4,11,1,-1,-1,-1
20:45:44:300289,0,1,4,11,1,-1,-1,-1
20:45:44:301118,-2,-10,-7,-5,-3,-2,-2,-2
20:45:44:314632,-2,8,0,-4,-8,-3,-11,-2
20:45:44:322810,-2,8,0,-4,-8,-3,-11,-2
20:45:44:323587,-1,1,2,6,8,1,-1,1
20:45:44:329615,-1,3,1,-14,-5,-3,-1,0
20:45:44:337166,-1,3,1,-14,-5,-3,-1,0
20:45:44:344556,0,-1,-2,10,-3,-2,1,0
20:45:44:352160,1,-3,-2,-1,0,-1,0,-1
20:45:44:360357,1,-3,-2,-1,0,-1,0,-1
20:45:44:361100,0,1,6,18,-1,-1,1,1
20:45:44:375083,1,0,3,9,10,3,2,-1
20:45:44:382862,1,0,3,9,10,3,2,-1
20:45:44:383614,0,-1,0,-14,-8,-2,-1,0
20:45:44:389601,-1,3,-2,0,-3,0,1,0
20:45:44:397169,-1,3,-2,0,-3,0,1,0
20:45:44:404622,-3,7,-3,2,-2,-1,0,1
20:45:44:421397,-5,3,0,-1,-1,-1,1,-2
20:45:44:422164,-5,3,0,-1,-1,-1,1,-2
20:45:44:427120,0,-3,-4,-16,-5,-1,0,-1
20:45:44:434579,-1,-1,2,1,6,2,0,0
20:45:44:442830,-1,-1,2,1,6,2,0,0
20:45:44:443604,-4,-4,-2,1,-1,1,0,-3
20:45:44:449599,0,11,2,2,-4,-1,-1,-2
20:45:44:465332,0,11,2,2,-4,-1,-1,-2
20:45:44:466114,1,-2,0,-8,-4,-3,-1,-2
20:45:44:480948,0,2,0,4,2,-1,0,-1
20:45:44:481765,0,2,0,4,2,-1,0,-1
20:45:44:482574,-2,-3,-2,0,3,-1,-1,-3
20:45:44:494680,-3,-5,-1,-2,-5,-3,2,0
20:45:44:502815,-3,-5,-1,-2,-5,-3,2,0
20:45:44:503607,-1,-4,-1,-16,0,2,-1,-1
20:45:44:509629,1,-4,-3,-1,-11,-3,-2,-1
20:45:44:517159,1,-4,-3,-1,-11,-3,-2,-1
20:45:44:524592,-1,-1,-1,16,31,7,0,1
20:45:44:532166,-3,-4,-1,-5,-2,-3,-2,-2
20:45:44:540365,-3,-4,-1,-5,-2,-3,-2,-2
20:45:44:541128,1,1,-2,5,-12,-4,-1,0
20:45:44:554625,-1,-3,0,5,5,2,3,1
20:45:44:562792,-1,-3,0,5,5,2,3,1
20:45:44:563612,-1,2,1,-4,-5,-3,-3,-1
20:45:44:569601,-2,-3,-2,3,3,1,-2,-1
20:45:44:577141,-2,-3,-2,3,3,1,-2,-1
20:45:44:584621,-1,-1,0,-1,-6,-1,-2,-1
20:45:44:592100,3,0,5,22,0,0,-1,0
20:45:44:600331,3,0,5,22,0,0,-1,0
20:45:44:601114,-2,-5,-2,-10,-7,-5,-1,-2
20:45:44:614573,0,-1,0,-6,3,-3,0,-1
20:45:44:622830,0,-1,0,-6,3,-3,0,-1
20:45:44:623620,-1,-1,-1,-1,-5,-1,-1,-1
20:45:44:629638,0,-4,-5,-25,-19,-4,-3,-1
20:45:44:637206,0,-4,-5,-25,-19,-4,-3,-1
20:45:44:644615,1,3,6,25,27,3,-4,-1
20:45:44:652117,6,0,-4,-15,-8,-6,-3,0
20:45:44:660320,6,0,-4,-15,-8,-6,-3,0
20:45:44:661135,-15,-6,-3,1,-12,-2,-2,-2
20:45:44:674673,-6,-3,-3,-2,-2,-1,0,-3
20:45:44:682840,-6,-3,-3,-2,-2,-1,0,-3
20:45:44:683604,10,1,-1,-3,-1,-1,0,1
20:45:44:689632,-6,-2,2,13,6,3,0,-6
20:45:44:697233,-6,-2,2,13,6,3,0,-6
20:45:44:704653,1,-3,-2,-8,-6,-3,-1,3
20:45:44:712108,-2,-2,0,2,3,1,-1,1
20:45:44:720311,-2,-2,0,2,3,1,-1,1
20:45:44:721100,-4,-2,0,-8,-7,-1,1,3
20:45:44:734598,0,3,-1,2,4,2,-2,-2
20:45:44:742849,0,3,-1,2,4,2,-2,-2
20:45:44:743662,-1,-6,-4,9,-5,-3,-1,-4
20:45:44:749635,-2,-1,-1,-1,-3,-5,-3,-2
20:45:44:757138,-2,-1,-1,-1,-3,-5,-3,-2
20:45:44:764615,1,1,-2,-34,2,7,5,-2
20:45:44:772146,0,-1,0,6,0,0,1,4
20:45:44:780296,0,-1,0,6,0,0,1,4
20:45:44:781079,1,1,1,4,-7,-2,2,-4
20:45:44:794634,0,0,1,2,2,1,2,-1
20:45:44:802822,0,0,1,2,2,1,2,-1
20:45:44:803596,-3,-3,-3,-3,-4,-3,-4,-2
20:45:44:809631,-1,-2,-2,-3,1,-1,-2,-2
20:45:44:817173,-1,-2,-2,-3,1,-1,-2,-2
20:45:44:824606,7,3,-2,0,-1,-1,-1,-1
20:45:44:832093,-11,-4,-1,-3,0,3,-3,-6
20:45:44:840330,-11,-4,-1,-3,0,3,-3,-6
20:45:44:841133,-2,1,1,6,0,0,1,-1
20:45:44:854631,3,1,-3,-6,-5,-5,0,1
20:45:44:862840,3,1,-3,-6,-5,-5,0,1
20:45:44:863603,-3,0,0,1,0,-2,-5,0
20:45:44:869621,0,-1,-2,-7,-3,1,0,-1
20:45:44:877828,0,-1,-2,-7,-3,1,0,-1
20:45:44:884611,0,0,-1,7,-2,0,-2,-3
20:45:44:892111,1,1,0,0,1,0,-1,1
20:45:44:900327,1,1,0,0,1,0,-1,1
20:45:44:901117,-1,-3,-3,-3,-9,-6,-3,-2
20:45:44:914600,0,-5,-13,-29,-2,-1,0,-2
20:45:44:922866,0,-5,-13,-29,-2,-1,0,-2
20:45:44:923600,-2,0,0,0,-1,-2,-2,0
20:45:44:929616,1,0,5,12,2,-1,-3,-1
20:45:44:937227,1,0,5,12,2,-1,-3,-1
20:45:44:944611,-1,0,-2,-2,1,0,-5,-3
20:45:44:952100,-1,-1,-1,8,3,0,-2,-1
20:45:44:960347,-1,-1,-1,8,3,0,-2,-1
20:45:44:961171,0,-3,-1,-4,-2,-1,6,-1
20:45:44:974622,-2,0,-4,-7,-10,-6,-1,-1
20:45:44:982837,-2,0,-4,-7,-10,-6,-1,-1
20:45:44:983625,-7,-2,7,34,18,9,2,-2
20:45:44:989605,2,0,-2,-4,2,-2,-7,-1
20:45:44:997179,2,0,-2,-4,2,-2,-7,-1
20:45:45:4657,7,0,-7,-17,-21,-10,-7,-4
20:45:45:12086,-6,-1,1,4,0,-2,-1,-2
20:45:45:20329,-6,-1,1,4,0,-2,-1,-2
20:45:45:21080,3,-1,0,-5,-2,-1,1,1
20:45:45:34605,1,1,0,1,2,0,-2,0
20:45:45:42859,1,1,0,1,2,0,-2,0
20:45:45:43669,-2,1,1,1,4,1,1,0
20:45:45:49654,-4,-4,1,-2,-4,0,2,-3
20:45:45:57149,-4,-4,1,-2,-4,0,2,-3
20:45:45:64633,-1,0,-1,3,5,-1,-2,1
20:45:45:72167,0,-2,1,2,1,2,4,0
20:45:45:79668,0,-2,1,2,1,2,4,0
20:45:45:87110,-2,-4,-4,-10,-3,-4,-4,-1
20:45:45:94588,1,-1,2,4,4,1,2,0
20:45:45:102845,1,-1,2,4,4,1,2,0
20:45:45:103605,-2,-2,-3,-3,-8,-4,-1,-1
20:45:45:109593,0,-1,-2,1,-1,2,5,0
20:45:45:117203,0,-1,-2,1,-1,2,5,0
20:45:45:124608,-1,2,1,-1,3,1,-2,-1
20:45:45:132127,-2,-2,0,-5,0,-4,-11,0
20:45:45:140345,-2,-2,0,-5,0,-4,-11,0
20:45:45:141143,-1,1,-1,-4,-5,-6,3,1
20:45:45:154579,-1,0,5,13,14,4,7,-1
20:45:45:162842,-1,0,5,13,14,4,7,-1
20:45:45:163612,0,-14,1,-2,-8,-3,-5,-3
20:45:45:177805,5,3,2,7,0,-2,-3,1
20:45:45:178615,5,3,2,7,0,-2,-3,1
20:45:45:184608,1,0,-9,-39,-3,1,1,0
20:45:45:192109,-1,-4,-2,2,-6,-3,-4,-2
20:45:45:199648,-1,-4,-2,2,-6,-3,-4,-2
20:45:45:207113,8,1,1,12,2,0,0,1
20:45:45:214598,-7,-3,-1,0,-4,-4,-2,-3
20:45:45:222836,-7,-3,-1,0,-4,-4,-2,-3
20:45:45:223633,-2,1,0,6,4,3,1,-1
20:45:45:237867,-2,-2,-2,-3,-7,-3,-1,0
20:45:45:238620,-2,-2,-2,-3,-7,-3,-1,0
20:45:45:244609,-4,-1,0,1,2,1,-2,-2
20:45:45:252247,3,0,-2,-11,-5,-3,1,1
20:45:45:267823,3,0,-2,-11,-5,-3,1,1
20:45:45:268626,-4,2,2,10,5,-1,-3,-1
20:45:45:274587,-1,-1,-3,-7,-4,-2,0,-3
20:45:45:283009,-1,-1,-3,-7,-4,-2,0,-3
20:45:45:283630,-4,1,-1,2,0,0,0,-1
20:45:45:297848,0,-2,-2,-2,0,0,1,-1
20:45:45:298621,0,-2,-2,-2,0,0,1,-1
20:45:45:304628,-2,-3,0,5,-3,0,1,-2
20:45:45:312133,-6,-4,-6,2,-5,-5,-4,-2
20:45:45:319696,-6,-4,-6,2,-5,-5,-4,-2
20:45:45:327093,-5,-3,-3,0,3,-2,-1,-3
20:45:45:334612,1,0,1,2,-2,0,0,0
20:45:45:342816,1,0,1,2,-2,0,0,0
20:45:45:343657,7,1,-2,-2,-3,-2,-2,1
20:45:45:357804,-7,-2,-2,-5,-3,-1,-1,-2
20:45:45:358655,-7,-2,-2,-5,-3,-1,-1,-2
20:45:45:364592,-5,-3,0,4,-2,0,-1,0
20:45:45:372107,3,3,-3,-7,-3,-2,-1,-1
20:45:45:379675,3,3,-3,-7,-3,-2,-1,-1
20:45:45:387117,0,4,-1,-1,4,1,1,2
20:45:45:394606,-1,-3,1,-5,4,0,-1,-2
20:45:45:402773,-1,-3,1,-5,4,0,-1,-2
20:45:45:403630,-2,-9,-6,-13,-8,-5,-2,0
20:45:45:417849,13,2,1,3,6,3,1,0
20:45:45:418636,13,2,1,3,6,3,1,0
20:45:45:424625,0,1,-2,-3,-1,0,0,-1
20:45:45:432128,-2,-3,-3,0,-6,-4,0,-1
20:45:45:439648,-2,-3,-3,0,-6,-4,0,-1
20:45:45:447133,-1,-1,0,3,8,-1,-3,-4
20:45:45:454639,-5,2,2,14,-1,0,-1,0
20:45:45:462799,-5,2,2,14,-1,0,-1,0
20:45:45:463590,0,0,1,13,1,-1,-3,-3
20:45:45:477784,-1,1,-3,-5,-7,-3,0,0
20:45:45:478598,-1,1,-3,-5,-7,-3,0,0
20:45:45:484645,9,-1,-2,1,-4,-2,-2,1
20:45:45:492147,-25,-4,2,1,1,-1,-1,2
20:45:45:499682,-25,-4,2,1,1,-1,-1,2
20:45:45:507108,-2,-32,-8,-5,0,-1,-2,0
20:45:45:514603,2,10,-3,-5,0,2,-1,0
20:45:45:522838,2,10,-3,-5,0,2,-1,0
20:45:45:523608,-4,-15,-15,2,-7,-3,-2,-2
20:45:45:545945,5,-3,6,40,2,0,1,-2
20:45:45:546767,5,-3,6,40,2,0,1,-2
20:45:45:547559,3,8,-4,-45,-5,1,0,1
20:45:45:552134,4,1,-1,-5,0,-2,-3,-4
20:45:45:559644,4,1,-1,-5,0,-2,-3,-4
20:45:45:567129,-4,6,8,4,-5,-2,0,-1
20:45:45:583437,2,-2,-3,-4,5,0,-2,0
20:45:45:584252,2,-2,-3,-4,5,0,-2,0
20:45:45:585112,1,8,4,-3,2,0,0,-1
20:45:45:597844,2,13,11,8,-1,1,0,-1
20:45:45:598640,2,13,11,8,-1,1,0,-1
20:45:45:604605,0,13,6,-8,-6,-2,-1,1
20:45:45:612100,-5,1,-4,2,-1,-1,-2,-2
20:45:45:619698,-5,1,-4,2,-1,-1,-2,-2
20:45:45:627157,4,13,-1,19,-4,-3,-2,-3
20:45:45:634640,3,-4,-7,-46,5,1,0,-3
20:45:45:642810,3,-4,-7,-46,5,1,0,-3
20:45:45:643621,-2,4,4,21,4,-2,-2,-3
20:45:45:657785,-7,-4,-1,1,-9,-3,1,0
20:45:45:658591,-7,-4,-1,1,-9,-3,1,0
20:45:45:664615,-5,10,-9,-53,-5,0,-3,1
20:45:45:672180,2,-2,-26,-72,-9,-1,-1,0
20:45:45:679625,2,-2,-26,-72,-9,-1,-1,0
20:45:45:687121,-18,-41,0,24,1,-4,-3,-2
20:45:45:694680,5,-46,2,6,-5,-4,-2,-1
20:45:45:702824,5,-46,2,6,-5,-4,-2,-1
20:45:45:703612,-1,-20,-21,-25,0,2,0,-1
20:45:45:717775,-6,-7,11,4,-3,-1,0,5
20:45:45:718616,-6,-7,11,4,-3,-1,0,5
20:45:45:724608,9,8,0,-1,6,3,1,-6
20:45:45:732123,6,18,-3,-3,-7,-2,5,7
20:45:45:739717,6,18,-3,-3,-7,-2,5,7
20:45:45:747130,-10,3,1,19,6,0,-8,0
20:45:45:754618,-5,-4,0,8,5,-1,-12,-10
20:45:45:762844,-5,-4,0,8,5,-1,-12,-10
20:45:45:763612,-3,-27,-5,-5,-8,-4,1,0
20:45:45:777807,3,-3,9,17,7,1,1,-6
20:45:45:778619,3,-3,9,17,7,1,1,-6
20:45:45:784577,-17,4,7,30,2,-3,-2,-5
20:45:45:792111,-11,8,-10,3,-3,0,-6,1
20:45:45:799856,-11,8,-10,3,-3,0,-6,1
20:45:45:807114,-5,8,-16,0,3,2,3,-4
20:45:45:814630,4,17,9,11,1,5,-8,5
20:45:45:822850,4,17,9,11,1,5,-8,5
20:45:45:823620,-7,-1,-1,20,-6,0,-11,0
20:45:45:837837,4,-16,1,8,5,-2,5,-6
20:45:45:838649,4,-16,1,8,5,-2,5,-6
20:45:45:844608,12,14,18,20,-5,0,-5,2
20:45:45:852091,3,-31,-26,-41,-3,-1,3,4
20:45:45:859722,3,-31,-26,-41,-3,-1,3,4
20:45:45:867102,3,-1,-16,-93,-16,-5,2,-9
20:45:45:874632,-9,8,5,-16,6,1,2,1
20:45:45:882775,-9,8,5,-16,6,1,2,1
20:45:45:883589,4,18,8,-8,-3,0,7,-5
20:45:45:897813,-4,-1,-9,7,-7,-4,-6,-4
20:45:45:898647,-4,-1,-9,7,-7,-4,-6,-4
20:45:45:904644,5,18,13,27,2,-3,-1,10
20:45:45:912118,-11,-7,-25,5,-4,-3,-8,-6
20:45:45:919672,-11,-7,-25,5,-4,-3,-8,-6
20:45:45:927173,20,-8,2,43,6,0,4,-1
20:45:45:934666,-6,10,-3,13,-2,-1,3,-2
20:45:45:942846,-6,10,-3,13,-2,-1,3,-2
20:45:45:943598,-7,26,8,6,6,1,-2,4
20:45:45:957796,2,-3,8,42,5,1,7,-3
20:45:45:958616,2,-3,8,42,5,1,7,-3
20:45:45:964669,-6,-43,7,11,-1,-3,-3,0
20:45:45:972146,11,5,17,45,2,-3,5,-2
20:45:45:979667,11,5,17,45,2,-3,5,-2
20:45:45:987128,0,-10,-9,-42,-2,-1,-2,-2
20:45:45:994613,-4,-4,10,7,0,-1,-3,1
20:45:46:2861,-4,-4,10,7,0,-1,-3,1
20:45:46:3617,5,18,-16,-6,-2,1,4,4
20:45:46:17820,-24,-17,4,7,-3,0,3,-5
20:45:46:18597,-24,-17,4,7,-3,0,3,-5
20:45:46:24583,1,59,22,10,2,1,5,4
20:45:46:32134,-5,1,-11,12,2,1,3,1
20:45:46:39651,-5,1,-11,12,2,1,3,1
20:45:46:47107,2,8,-17,-55,-3,3,-6,-18
20:45:46:54585,1,32,6,-25,-6,-4,2,5
20:45:46:62833,1,32,6,-25,-6,-4,2,5
20:45:46:63621,-1,-21,-8,-3,-3,-4,-19,1
20:45:46:78218,16,5,20,5,-4,-4,-21,7
20:45:46:85327,16,5,20,5,-4,-4,-21,7
20:45:46:86143,-16,-3,14,26,16,3,-5,3
20:45:46:92165,8,-9,-29,-17,-3,-3,3,-22
20:45:46:99647,8,-9,-29,-17,-3,-3,3,-22
20:45:46:107115,6,-3,19,31,3,1,3,-1
20:45:46:114589,-5,-15,12,-15,4,3,12,5
20:45:46:122365,-5,-15,12,-15,4,3,12,5
20:45:46:129639,-33,0,-21,8,-7,-2,-4,-24
20:45:46:137788,0,6,1,3,4,-4,-14,2
20:45:46:138612,0,6,1,3,4,-4,-14,2
20:45:46:144638,5,4,2,-1,1,-2,15,9
20:45:46:160325,5,-4,-1,23,1,2,-1,3
20:45:46:161153,5,-4,-1,23,1,2,-1,3
20:45:46:167108,2,-84,2,0,-17,-6,4,-17
20:45:46:174619,-5,-16,-32,-54,4,-2,16,5
20:45:46:182157,-5,-16,-32,-54,4,-2,16,5
20:45:46:189657,22,-75,-43,-14,-5,-5,3,-33
20:45:46:197823,11,16,15,-9,-5,-1,-3,2
20:45:46:198615,11,16,15,-9,-5,-1,-3,2
20:45:46:204885,-16,17,4,-35,-5,3,-13,6
20:45:46:220292,-3,-58,-12,41,-2,-6,-19,-11
20:45:46:221113,-3,-58,-12,41,-2,-6,-19,-11
20:45:46:227128,2,62,32,38,5,0,-57,11
20:45:46:234623,13,-7,-5,3,3,3,17,-17
20:45:46:242162,13,-7,-5,3,3,3,17,-17
20:45:46:249617,22,-3,-12,-35,-13,-4,24,21
20:45:46:257785,-9,27,7,-5,-14,-6,-8,1
20:45:46:258622,-9,27,7,-5,-14,-6,-8,1
20:45:46:264615,8,20,-7,24,5,-4,-8,9
20:45:46:280286,5,10,10,-31,-1,-3,4,13
20:45:46:281122,5,10,10,-31,-1,-3,4,13
20:45:46:287140,-7,29,22,-1,-7,-9,-21,0
20:45:46:294608,-100,-17,-4,4,-2,-10,-10,-35
20:45:46:302155,-100,-17,-4,4,-2,-10,-10,-35
20:45:46:309589,22,-10,-17,12,-8,-8,3,50
20:45:46:317800,28,82,12,-12,16,8,-22,1
20:45:46:318622,28,82,12,-12,16,8,-22,1
20:45:46:324628,-6,8,12,16,4,5,53,0
20:45:46:340292,14,-92,-75,-74,-30,-9,7,-13
20:45:46:341125,14,-92,-75,-74,-30,-9,7,-13
20:45:46:347147,-7,-13,23,47,10,2,26,18
20:45:46:354591,-3,6,25,31,-8,-7,-4,32
20:45:46:362168,-3,6,25,31,-8,-7,-4,32
20:45:46:369638,6,17,-5,-6,13,-4,-14,-72
20:45:46:377823,5,-69,-26,-23,4,1,-2,-20
20:45:46:378621,5,-69,-26,-23,4,1,-2,-20
20:45:46:384606,-27,23,2,8,-11,0,-6,12
20:45:46:400318,35,60,-22,-40,-6,-1,6,10
20:45:46:401141,35,60,-22,-40,-6,-1,6,10
20:45:46:407121,-31,50,-4,-29,10,3,-3,0
20:45:46:414599,-2,20,23,13,3,9,9,15
20:45:46:422176,-2,20,23,13,3,9,9,15
20:45:46:429603,-14,-33,-30,-74,-6,3,-29,-13
20:45:46:437790,3,-14,20,-14,0,0,4,-4
20:45:46:438603,3,-14,20,-14,0,0,4,-4
20:45:46:444630,-16,-89,13,52,-2,-3,3,5
20:45:46:460309,11,27,11,8,-4,12,10,-40
20:45:46:461153,11,27,11,8,-4,12,10,-40
20:45:46:467118,-12,42,24,-5,10,5,15,23
20:45:46:474603,-30,1,33,73,-10,-11,-20,-12
20:45:46:482143,-30,1,33,73,-10,-11,-20,-12
20:45:46:489645,-8,-21,32,20,1,2,7,-3
20:45:46:497780,-1,-9,25,37,2,-3,1,5
20:45:46:498599,-1,-9,25,37,2,-3,1,5
20:45:46:504606,7,31,-14,10,3,-1,9,21
20:45:46:520255,13,11,-32,-2,12,2,-8,0
20:45:46:521127,13,11,-32,-2,12,2,-8,0
20:45:46:527158,6,-28,-9,-5,0,-3,5,-9
20:45:46:534638,-46,-3,-35,36,10,4,1,12
20:45:46:542132,-46,-3,-35,36,10,4,1,12
20:45:46:549595,20,-18,-14,-46,-14,0,-1,0
20:45:46:557783,30,15,31,21,19,10,6,6
20:45:46:558613,30,15,31,21,19,10,6,6
20:45:46:564607,7,-12,-23,-2,-14,-9,-13,-15
20:45:46:580286,-3,98,9,-52,-8,3,6,17
20:45:46:581098,-3,98,9,-52,-8,3,6,17
20:45:46:587098,7,4,11,5,3,-1,2,-43
20:45:46:594604,17,-78,-20,-68,-17,-5,4,10
20:45:46:602168,17,-78,-20,-68,-17,-5,4,10
20:45:46:609611,-12,-23,-29,5,-1,-3,-27,6
20:45:46:617837,3,24,34,32,-8,-7,-6,10
20:45:46:618625,3,24,34,32,-8,-7,-6,10
20:45:46:624611,1,-14,0,-39,14,6,3,-2
20:45:46:640319,-7,-19,-19,4,-5,-5,8,2
20:45:46:641143,-7,-19,-19,4,-5,-5,8,2
20:45:46:647114,13,-2,9,12,-6,-2,-17,-7
20:45:46:654636,13,-8,29,116,4,-4,-8,-17
20:45:46:662179,13,-8,29,116,4,-4,-8,-17
20:45:46:669626,2,8,22,31,1,1,5,-13
20:45:46:677819,2,-26,-9,-16,6,3,-7,21
20:45:46:678647,2,-26,-9,-16,6,3,-7,21
20:45:46:684618,-2,-39,3,-15,6,-2,3,-61
20:45:46:700346,-16,13,-1,-18,5,1,-31,-19
20:45:46:701134,-16,13,-1,-18,5,1,-31,-19
20:45:46:707099,-17,-23,8,17,-13,0,40,53
20:45:46:714616,7,-31,-57,-80,-21,0,9,2
20:45:46:722196,7,-31,-57,-80,-21,0,9,2
20:45:46:729625,8,-110,-11,42,-19,-7,-18,8
20:45:46:737765,17,1,-12,-18,5,0,3,16
20:45:46:738601,17,1,-12,-18,5,0,3,16
20:45:46:744641,0,48,-5,-25,-10,-2,29,13
20:45:46:760353,-7,-11,0,42,-7,-4,-7,-15
20:45:46:761149,-7,-11,0,42,-7,-4,-7,-15
20:45:46:767121,29,41,20,-1,2,5,-21,38
20:45:46:774609,-9,9,19,-24,1,-3,-12,-29
20:45:46:782164,-9,9,19,-24,1,-3,-12,-29
20:45:46:789671,-13,0,-35,-43,4,2,10,19
20:45:46:797815,22,-25,-1,30,-4,-8,-4,-11
20:45:46:798597,22,-25,-1,30,-4,-8,-4,-11
20:45:46:804602,-25,-14,-9,118,1,-2,-7,-1
20:45:46:820284,12,-4,-30,-57,30,14,15,-4
20:45:46:821108,12,-4,-30,-57,30,14,15,-4
20:45:46:827140,13,70,7,-80,-21,-7,-3,-5
20:45:46:834620,-34,-8,13,17,17,7,8,2
20:45:46:842149,-34,-8,13,17,17,7,8,2
20:45:46:849606,4,18,-2,8,0,-2,18,-20
20:45:46:857807,10,4,-15,-10,-10,-2,-20,-25
20:45:46:858630,10,4,-15,-10,-10,-2,-20,-25
20:45:46:864611,-22,-5,-27,-41,29,11,-10,-23
20:45:46:880293,19,16,-5,13,-35,-13,12,17
20:45:46:881108,19,16,-5,13,-35,-13,12,17
20:45:46:887127,12,0,28,30,46,8,18,8
20:45:46:894610,-16,-20,-6,-1,5,-5,-7,-23
20:45:46:902218,-16,-20,-6,-1,5,-5,-7,-23
20:45:46:909582,-12,-35,-25,-96,-41,-13,-11,4
20:45:46:917840,-15,-51,24,-19,9,1,20,-1
20:45:46:918640,-15,-51,24,-19,9,1,20,-1
20:45:46:924619,-15,-83,-13,84,-3,-9,-24,-33
20:45:46:940290,-12,-9,20,-81,-18,1,-9,-7
20:45:46:941141,-12,-9,20,-81,-18,1,-9,-7
20:45:46:947135,-11,7,-9,-5,36,11,10,6
20:45:46:954584,-1,40,9,46,-8,-6,19,24
20:45:46:962214,-1,40,9,46,-8,-6,19,24
20:45:46:969622,11,17,27,-1,-13,2,7,13
20:45:46:977824,-3,-24,-8,22,-1,-3,-20,6
20:45:46:978625,-3,-24,-8,22,-1,-3,-20,6
20:45:46:984630,17,-55,-5,-10,-10,-4,-33,-16
20:45:47:366,37,25,13,33,-2,-9,-8,-2
20:45:47:1173,37,25,13,33,-2,-9,-8,-2
20:45:47:7108,10,-22,2,-31,-12,-3,-9,3
20:45:47:14621,-35,-3,0,-103,-8,6,6,-22
20:45:47:22235,-35,-3,0,-103,-8,6,6,-22
20:45:47:29652,6,44,8,2,-8,-3,9,-3
20:45:47:37765,-4,45,24,63,18,6,9,29
20:45:47:38599,-4,45,24,63,18,6,9,29
20:45:47:44612,-2,32,3,-24,-11,-7,6,2
20:45:47:60304,9,-13,17,41,23,5,-34,14
20:45:47:61109,9,-13,17,41,23,5,-34,14
20:45:47:67118,9,-22,15,15,-15,-11,-5,-20
20:45:47:82856,-27,-32,-53,-111,4,13,17,2
20:45:47:83628,-27,-32,-53,-111,4,13,17,2
20:45:47:89633,-12,71,-20,3,-2,-5,-7,-21
20:45:47:97760,-15,-24,-38,-54,-26,-10,-6,-3
20:45:47:98580,-15,-24,-38,-54,-26,-10,-6,-3
20:45:47:112113,11,-44,0,-14,24,13,10,27
20:45:47:120319,-2,29,13,46,-2,-5,-19,-18
20:45:47:121147,-2,29,13,46,-2,-5,-19,-18
20:45:47:127121,15,-12,-15,13,-18,-13,-6,26
20:45:47:142853,-3,-53,20,42,17,-1,1,-20
20:45:47:143638,-3,-53,20,42,17,-1,1,-20
20:45:47:149593,-6,34,-16,77,1,-2,-13,-1
20:45:47:165324,14,46,41,85,13,2,7,5
20:45:47:166107,14,46,41,85,13,2,7,5
20:45:47:172140,12,48,20,2,-1,-2,5,1
20:45:47:180309,4,4,-47,-74,0,4,10,2
20:45:47:181150,4,4,-47,-74,0,4,10,2
20:45:47:187124,-13,-8,-22,-22,-5,-6,3,1
20:45:47:202840,-13,-8,-22,-22,-5,-6,3,1
20:45:47:203610,4,-55,0,17,-16,-7,-9,5
20:45:47:209609,-28,-86,-43,-98,-10,5,-1,-8
20:45:47:217828,-28,-86,-43,-98,-10,5,-1,-8
20:45:47:218626,-5,17,-18,-82,-13,7,20,14
20:45:47:232161,5,-27,-15,42,14,5,-5,22
20:45:47:240373,5,-27,-15,42,14,5,-5,22
20:45:47:241136,-10,19,2,16,-9,-12,7,-19
20:45:47:247194,-4,42,15,-6,6,7,-6,-16
20:45:47:262871,-4,42,15,-6,6,7,-6,-16
20:45:47:263609,-15,-24,-43,-32,-13,-6,-13,1
20:45:47:269613,-23,-3,10,66,-4,0,9,-6
20:45:47:277864,-23,-3,10,66,-4,0,9,-6
20:45:47:278633,-3,25,20,22,1,4,-2,-6
20:45:47:292149,29,-1,4,10,-3,-14,-78,0
20:45:47:300325,29,-1,4,10,-3,-14,-78,0
20:45:47:301099,46,-13,7,31,3,-2,5,10
20:45:47:307122,-3,40,26,10,-5,-5,-15,-6
20:45:47:322851,-3,40,26,10,-5,-5,-15,-6
20:45:47:323622,29,54,24,44,7,1,0,16
20:45:47:329568,-41,6,-48,-21,-1,6,13,-13
20:45:47:337857,-41,6,-48,-21,-1,6,13,-13
20:45:47:338622,-7,-37,22,19,-6,4,17,12
20:45:47:352142,14,-1,-1,10,11,1,15,1
20:45:47:360296,14,-1,-1,10,11,1,15,1
20:45:47:361112,-5,10,7,25,-9,-10,-7,3
20:45:47:367135,1,-23,28,-36,-4,6,22,3
20:45:47:382829,1,-23,28,-36,-4,6,22,3
20:45:47:383598,0,-10,0,11,-4,-7,-3,-6
20:45:47:389632,-1,-35,7,20,11,-3,0,6
20:45:47:397836,-1,-35,7,20,11,-3,0,6
20:45:47:398623,-8,91,31,52,19,8,-3,-3
20:45:47:421016,-8,-5,6,71,13,0,19,9
20:45:47:421823,-8,-5,6,71,13,0,19,9
20:45:47:422633,9,-24,-53,-60,-16,-3,-9,-2
20:45:47:427099,14,13,-2,-30,7,6,7,-15
20:45:47:442822,14,13,-2,-30,7,6,7,-15
20:45:47:443663,-8,4,6,-4,-15,-9,-10,-26
20:45:47:449613,-14,-2,23,0,-11,-8,-15,-26
20:45:47:457853,-14,-2,23,0,-11,-8,-15,-26
20:45:47:458627,-7,7,11,-13,0,-5,-18,11
20:45:47:472127,15,79,6,-16,5,-2,-12,-10
20:45:47:480342,15,79,6,-16,5,-2,-12,-10
20:45:47:481132,0,-49,6,15,-2,-5,-3,-8
20:45:47:487134,35,32,7,4,2,4,10,21
20:45:47:502851,35,32,7,4,2,4,10,21
20:45:47:503610,-4,-62,-15,65,6,-2,3,-6
20:45:47:509619,15,-18,-3,-59,-15,0,15,8
20:45:47:517806,15,-18,-3,-59,-15,0,15,8
20:45:47:518638,13,30,24,39,15,-1,11,7
20:45:47:532114,-17,-29,-4,0,-13,-4,-32,-13
20:45:47:540313,-17,-29,-4,0,-13,-4,-32,-13
20:45:47:541096,-2,22,-21,-3,-1,3,14,-11
20:45:47:547107,-18,-10,-1,-57,-9,-2,-1,-5
20:45:47:562842,-18,-10,-1,-57,-9,-2,-1,-5
20:45:47:563622,0,58,3,-26,3,7,-30,-4
20:45:47:569583,-10,-28,-14,20,9,-7,-5,16
20:45:47:577814,-10,-28,-14,20,9,-7,-5,16
20:45:47:578630,-11,14,3,-6,0,-4,16,-2
20:45:47:592154,13,-9,28,89,5,2,13,2
20:45:47:600315,13,-9,28,89,5,2,13,2
20:45:47:601108,-1,11,11,14,1,4,-6,1
20:45:47:607115,-7,-28,-26,-22,-3,1,13,-9
20:45:47:622798,-7,-28,-26,-22,-3,1,13,-9
20:45:47:623619,1,-24,-7,-3,-1,-1,1,-8
20:45:47:629587,12,78,-16,28,-5,-5,-26,-11
20:45:47:637833,12,78,-16,28,-5,-5,-26,-11
20:45:47:638613,0,-39,-11,-31,6,8,21,17
20:45:47:652113,0,-17,-3,-19,-11,1,7,-12
20:45:47:660347,0,-17,-3,-19,-11,1,7,-12
20:45:47:661128,-11,-12,-5,-13,-13,-5,-6,-3
20:45:47:667138,-12,6,11,34,30,6,10,8
20:45:47:682820,-12,6,11,34,30,6,10,8
20:45:47:683583,12,-21,-35,-56,-7,-7,-3,5
20:45:47:689647,-4,22,5,36,10,-1,4,1
20:45:47:697834,-4,22,5,36,10,-1,4,1
20:45:47:698604,2,-28,28,46,10,-3,1,5
20:45:47:712127,-11,-3,1,-10,-3,1,6,-14
20:45:47:720315,-11,-3,1,-10,-3,1,6,-14
20:45:47:721116,-25,-18,-6,-18,0,0,-3,-2
20:45:47:727116,-39,-12,10,-7,-15,-14,-10,3
20:45:47:742844,-39,-12,10,-7,-15,-14,-10,3
20:45:47:743614,-2,-25,-15,-14,7,2,-7,-13
20:45:47:749627,7,-2,-9,-27,-15,-3,16,13
20:45:47:757808,7,-2,-9,-27,-15,-3,16,13
20:45:47:758577,4,-19,2,20,14,7,1,15
20:45:47:772137,13,-25,-4,33,8,2,-1,6
20:45:47:780315,13,-25,-4,33,8,2,-1,6
20:45:47:781129,2,19,10,12,-17,-7,-3,2
20:45:47:787130,-10,-17,-21,19,2,2,9,1
20:45:47:802908,-10,-17,-21,19,2,2,9,1
20:45:47:803628,2,-22,5,46,1,-7,-19,-17
20:45:47:809634,16,6,20,-20,-9,2,2,4
20:45:47:817860,16,6,20,-20,-9,2,2,4
20:45:47:818637,-12,-3,3,-18,2,2,16,-2
20:45:47:832115,9,-15,-4,-7,-8,-4,-16,-9
20:45:47:840343,9,-15,-4,-7,-8,-4,-16,-9
20:45:47:841139,-10,30,6,-15,2,6,-2,15
20:45:47:847111,-18,21,0,-1,-7,-3,10,-19
20:45:47:862850,-18,21,0,-1,-7,-3,10,-19
20:45:47:863683,3,-25,-21,-101,-11,2,-3,0
20:45:47:869582,9,64,10,-25,0,1,0,10
20:45:47:877807,9,64,10,-25,0,1,0,10
20:45:47:878573,6,10,4,30,-6,-2,-2,3
20:45:47:892138,-17,9,0,-18,0,-3,8,-10
20:45:47:900343,-17,9,0,-18,0,-3,8,-10
20:45:47:901149,0,12,0,6,-2,-1,-3,-13
20:45:47:907122,-1,-61,-18,8,1,-4,-13,-4
20:45:47:922860,-1,-61,-18,8,1,-4,-13,-4
20:45:47:923604,-6,2,10,22,-3,-4,2,0
20:45:47:929636,-5,-59,-11,-17,6,6,5,9
20:45:47:938504,-5,-59,-11,-17,6,6,5,9
20:45:47:939317,-6,0,-2,-26,-5,-4,-3,11
20:45:47:952127,10,-11,3,-3,-7,-1,-11,4
20:45:47:960309,10,-11,3,-3,-7,-1,-11,4
20:45:47:961124,-15,-24,-14,30,4,-2,13,-8
20:45:47:967120,-1,11,2,-9,-5,-2,-2,-9
20:45:47:982816,-1,11,2,-9,-5,-2,-2,-9
20:45:47:983609,8,22,14,17,-8,-2,-4,2
20:45:47:989612,1,-55,-40,-81,-17,-6,1,0
20:45:47:997825,1,-55,-40,-81,-17,-6,1,0
20:45:47:998634,-10,48,19,-2,16,6,7,1
20:45:48:12130,-12,-26,-17,-30,-8,-5,-9,-4
20:45:48:20353,-12,-26,-17,-30,-8,-5,-9,-4
20:45:48:21119,-2,-24,-13,3,-13,-6,1,-8
20:45:48:34576,-6,23,12,14,12,3,3,-2
20:45:48:42812,-6,23,12,14,12,3,3,-2
20:45:48:43632,0,3,3,-1,0,-3,-26,-7
20:45:48:49578,-10,-53,-13,54,7,-2,0,-5
20:45:48:57186,-10,-53,-13,54,7,-2,0,-5
20:45:48:64632,8,-30,5,-5,8,6,-1,-6
20:45:48:72136,10,20,7,53,-7,-3,0,13
20:45:48:80324,10,20,7,53,-7,-3,0,13
20:45:48:81154,6,-35,19,38,13,-1,-3,0
20:45:48:94627,-6,27,-48,8,-10,-3,4,6
20:45:48:102880,-6,27,-48,8,-10,-3,4,6
20:45:48:103621,1,-39,-2,-28,7,1,7,2
20:45:48:109611,22,45,30,0,-1,-3,-3,3
20:45:48:117210,22,45,30,0,-1,-3,-3,3
20:45:48:124588,0,6,-19,-13,-11,-7,4,2
20:45:48:132125,-15,-1,11,17,-1,-1,11,-29
20:45:48:140286,-15,-1,11,17,-1,-1,11,-29
20:45:48:141108,6,-18,-18,-22,-9,-8,-4,-1
20:45:48:154608,-36,19,17,-12,4,4,-5,3
20:45:48:162865,-36,19,17,-12,4,4,-5,3
20:45:48:163637,-18,12,-1,4,0,-2,-3,-14
20:45:48:169601,13,1,17,-5,5,5,11,14
20:45:48:177173,13,1,17,-5,5,5,11,14
20:45:48:184624,-7,20,26,67,9,-3,-6,-3
20:45:48:192159,4,-1,5,-35,-9,-5,1,1
20:45:48:200303,4,-1,5,-35,-9,-5,1,1
20:45:48:201112,31,11,2,-2,-4,-2,8,1
20:45:48:223476,-1,-41,-12,-5,2,0,-5,-16
20:45:48:224306,-1,-41,-12,-5,2,0,-5,-16
20:45:48:225119,0,-7,19,5,-3,0,-1,-1
20:45:48:229632,2,9,-12,-12,3,1,-6,3
20:45:48:237200,2,9,-12,-12,3,1,-6,3
20:45:48:244663,-29,-51,-56,-97,-19,-1,2,8
20:45:48:252143,5,-46,23,42,19,7,-2,5
20:45:48:260315,5,-46,23,42,19,7,-2,5
20:45:48:261124,-1,47,4,45,-8,-4,-2,7
20:45:48:274606,8,15,15,-26,-12,-3,-4,-1
20:45:48:282878,8,15,15,-26,-12,-3,-4,-1
20:45:48:283645,-1,-11,26,33,9,1,-3,-3
20:45:48:289626,-14,-23,-10,-41,-9,-3,3,0
20:45:48:297179,-14,-23,-10,-41,-9,-3,3,0
20:45:48:304627,1,-55,-41,-61,-5,1,2,5
20:45:48:312149,24,36,13,15,15,3,-2,-6
20:45:48:320327,24,36,13,15,15,3,-2,-6
20:45:48:321105,15,-17,-3,27,-2,-4,-4,-4
20:45:48:334640,6,29,6,-2,0,5,8,15
20:45:48:342792,6,29,6,-2,0,5,8,15
20:45:48:343580,-16,38,-8,21,12,4,-4,-19
20:45:48:349620,-5,0,-23,51,-12,-9,-10,-4
20:45:48:357156,-5,0,-23,51,-12,-9,-10,-4
20:45:48:364568,-11,16,12,-28,-6,-5,-3,1
20:45:48:372137,-8,-31,3,-6,8,3,-5,-1
20:45:48:380326,-8,-31,3,-6,8,3,-5,-1
20:45:48:381129,9,33,11,1,-8,-4,-8,7
20:45:48:394624,-16,17,-22,-56,-8,-2,-7,-2
20:45:48:402827,-16,17,-22,-56,-8,-2,-7,-2
20:45:48:403621,2,61,11,-6,3,0,-1,3
20:45:48:409593,12,7,4,24,5,4,2,-4
20:45:48:417169,12,7,4,24,5,4,2,-4
20:45:48:424620,-7,44,7,-7,-3,5,18,14
20:45:48:432113,0,14,6,3,17,0,0,3
20:45:48:440331,0,14,6,3,17,0,0,3
20:45:48:441151,-8,11,24,56,3,0,8,-2
20:45:48:454642,6,28,-24,20,-12,-5,-5,-4
20:45:48:462842,6,28,-24,20,-12,-5,-5,-4
20:45:48:463637,13,-2,-12,-11,6,1,-1,1
20:45:48:469613,-16,18,-1,0,-7,-3,-3,-2
20:45:48:477175,-16,18,-1,0,-7,-3,-3,-2
20:45:48:484623,-6,-12,-18,1,1,1,-8,-12
20:45:48:492168,21,-28,10,-4,-5,-6,9,7
20:45:48:500298,21,-28,10,-4,-5,-6,9,7
20:45:48:501125,10,-27,7,-20,-6,2,1,-7
20:45:48:514613,12,-3,16,-6,-6,4,4,5
20:45:48:522858,12,-3,16,-6,-6,4,4,5
20:45:48:523656,10,-15,-37,3,-1,-6,-18,-16
20:45:48:529609,-9,-13,9,37,-5,-2,2,2
20:45:48:537197,-9,-13,9,37,-5,-2,2,2
20:45:48:544639,22,-22,-19,-40,9,3,1,10
20:45:48:552132,-21,-4,27,47,-2,-5,-7,-4
20:45:48:560318,-21,-4,27,47,-2,-5,-7,-4
20:45:48:561111,-2,-19,-9,9,-20,-7,-2,-8
20:45:48:574598,6,22,2,-13,21,4,2,8
20:45:48:582800,6,22,2,-13,21,4,2,8
20:45:48:583595,-26,21,9,-9,-13,-7,3,-14
20:45:48:589650,-21,-10,-10,1,0,2,-9,-14
20:45:48:597152,-21,-10,-10,1,0,2,-9,-14
20:45:48:604575,-6,-16,-28,-22,-1,-5,12,10
20:45:48:612124,-13,-47,-26,-23,-20,-9,-16,-25
20:45:48:620309,-13,-47,-26,-23,-20,-9,-16,-25
20:45:48:621157,15,32,-12,-13,21,9,3,-10
20:45:48:634628,23,-16,24,83,-1,-11,1,8
20:45:48:642631,23,-16,24,83,-1,-11,1,8
20:45:48:650208,-6,42,6,17,-6,2,2,16
20:45:48:651024,-1,53,-11,-43,-6,1,-3,2
20:45:48:657149,-1,53,-11,-43,-6,1,-3,2
20:45:48:664572,-17,-7,22,6,-1,2,-3,11
20:45:48:672149,-31,-20,8,-6,3,9,16,2
20:45:48:680327,-31,-20,8,-6,3,9,16,2
20:45:48:681152,2,-10,14,-15,-3,-2,-6,-5
20:45:48:694614,-5,9,-22,-56,-7,-1,-7,-20
20:45:48:702810,-5,9,-22,-56,-7,-1,-7,-20
20:45:48:703628,11,-29,-2,1,3,-1,-7,0
20:45:48:709592,1,7,-8,-20,-6,-3,-12,11
20:45:48:717160,1,7,-8,-20,-6,-3,-12,11
20:45:48:724608,-24,-35,1,-29,0,0,12,5
20:45:48:732139,14,-15,-10,-8,-5,-8,-21,-3
20:45:48:740322,14,-15,-10,-8,-5,-8,-21,-3
20:45:48:741117,-8,-27,13,14,-14,-4,-3,-4
20:45:48:754602,22,66,23,-21,11,5,8,3
20:45:48:762848,22,66,23,-21,11,5,8,3
20:45:48:763612,4,15,-2,1,-10,-3,6,3
20:45:48:769604,2,-55,-16,-4,4,-2,-9,-20
20:45:48:777186,2,-55,-16,-4,4,-2,-9,-20
20:45:48:784634,1,18,-1,-16,-5,3,14,-3
20:45:48:792124,-6,-24,9,13,4,1,5,11
20:45:48:800287,-6,-24,9,13,4,1,5,11
20:45:48:801144,-13,-36,-20,-12,-1,-1,-11,-6
20:45:48:814615,-2,-7,0,-13,-5,2,8,13
20:45:48:822818,-2,-7,0,-13,-5,2,8,13
20:45:48:823605,2,61,16,8,10,1,-11,3
20:45:48:829586,-3,21,-12,4,1,8,8,-12
20:45:48:837171,-3,21,-12,4,1,8,8,-12
20:45:48:844656,0,-15,25,69,-4,-10,-14,11
20:45:48:852158,10,0,-9,13,17,7,6,-9
20:45:48:860301,10,0,-9,13,17,7,6,-9
20:45:48:861114,3,5,1,7,5,0,21,-20
20:45:48:874592,3,-8,14,25,-11,-4,8,-7
20:45:48:882790,3,-8,14,25,-11,-4,8,-7
20:45:48:883597,3,52,16,10,10,2,15,13
20:45:48:889659,-2,-16,-5,-5,-13,-10,-15,3
20:45:48:897133,-2,-16,-5,-5,-13,-10,-15,3
20:45:48:904621,0,-24,-34,-19,-4,1,-8,-3
20:45:48:912139,-16,-11,-10,1,-3,-3,0,0
20:45:48:920316,-16,-11,-10,1,-3,-3,0,0
20:45:48:921123,5,-57,-11,11,-6,-8,-12,-6
20:45:48:935150,17,-7,12,1,4,3,11,-4
20:45:48:942846,17,-7,12,1,4,3,11,-4
20:45:48:943606,-10,-15,-8,-3,-9,1,-6,0
20:45:48:957826,-9,13,-11,-54,5,2,-4,-2
20:45:48:958593,-9,13,-11,-54,5,2,-4,-2
20:45:48:964623,15,25,11,-14,-6,-1,28,5
20:45:48:980333,-1,5,9,8,-11,-2,-5,-1
20:45:48:981154,-1,5,9,8,-11,-2,-5,-1
20:45:48:987140,-56,-33,-9,2,5,-6,-16,-3
20:45:48:994616,9,15,-1,-5,7,-4,0,14
20:45:49:2796,9,15,-1,-5,7,-4,0,14
20:45:49:3595,22,11,-7,-2,3,2,-1,-10
20:45:49:18251,-18,-40,2,42,6,-1,-6,0
20:45:49:25513,-18,-40,2,42,6,-1,-6,0
20:45:49:26139,6,1,-11,-53,-12,-2,-9,1
20:45:49:32161,11,-10,-31,-24,7,3,0,-8
20:45:49:39616,11,-10,-31,-24,7,3,0,-8
20:45:49:47285,-5,-15,-4,-18,-2,1,5,-4
20:45:49:54633,-5,-50,-6,10,-4,-9,-40,-10
20:45:49:63926,-5,-50,-6,10,-4,-9,-40,-10
20:45:49:69588,-27,-13,0,11,-8,-1,-29,-20
20:45:49:77803,-14,-5,-19,-26,-6,3,11,10
20:45:49:78622,-14,-5,-19,-26,-6,3,11,10
20:45:49:84604,16,-25,0,-10,-2,-6,0,5
20:45:49:92153,21,6,12,28,6,2,-24,-12
20:45:49:99676,21,6,12,28,6,2,-24,-12
20:45:49:115277,6,62,7,9,2,1,21,6
20:45:49:116033,1,12,1,-4,-12,-4,-14,23
20:45:49:122851,1,12,1,-4,-12,-4,-14,23
20:45:49:123637,33,-2,10,54,19,5,-6,0
20:45:49:137822,26,96,7,12,0,0,12,4
20:45:49:138593,26,96,7,12,0,0,12,4
20:45:49:144629,-8,-25,-13,-42,-20,-4,-13,1
20:45:49:152165,4,-16,-2,24,19,4,19,2
20:45:49:159679,4,-16,-2,24,19,4,19,2
20:45:49:167161,-15,-19,4,24,0,0,10,4
20:45:49:174608,-8,-6,13,-40,-13,-6,4,-7
20:45:49:182859,-8,-6,13,-40,-13,-6,4,-7
20:45:49:183632,9,-19,-33,-8,5,4,-25,1
20:45:49:197865,-16,17,6,16,-1,-2,-18,-32
20:45:49:198626,-16,17,6,16,-1,-2,-18,-32
20:45:49:204616,6,3,11,-2,0,1,7,13
20:45:49:212123,8,-4,7,12,0,-5,15,-4
20:45:49:219731,8,-4,7,12,0,-5,15,-4
20:45:49:227132,-9,42,3,-70,-2,-3,-5,-10
20:45:49:234620,-7,-54,-10,7,-3,0,17,9
20:45:49:242838,-7,-54,-10,7,-3,0,17,9
20:45:49:243633,-29,-42,4,22,0,0,9,4
20:45:49:258306,1,63,23,1,-12,-2,-7,1
20:45:49:259121,1,63,23,1,-12,-2,-7,1
20:45:49:264631,17,21,1,10,-3,-2,-9,-10
20:45:49:272130,-20,-37,14,25,5,0,-9,-8
20:45:49:279693,-20,-37,14,25,5,0,-9,-8
20:45:49:287143,4,50,-6,-18,-3,-3,-12,9
20:45:49:303520,-29,-39,-18,-33,-11,-9,24,14
20:45:49:304275,-29,-39,-18,-33,-11,-9,24,14
20:45:49:305133,10,-21,3,14,15,-1,-12,-3
20:45:49:317812,-12,7,-17,-52,-13,-7,-12,-14
20:45:49:318610,-12,7,-17,-52,-13,-7,-12,-14
20:45:49:324581,-4,-7,-11,3,9,4,11,0
20:45:49:332139,7,-25,4,28,21,7,9,4
20:45:49:339687,7,-25,4,28,21,7,9,4
20:45:49:355241,29,19,5,10,-17,-4,-1,14
20:45:49:356112,-1,1,-1,16,8,2,1,15
20:45:49:362827,-1,1,-1,16,8,2,1,15
20:45:49:363654,-8,-17,-12,13,-4,-6,-8,-5
20:45:49:377807,-12,20,-1,16,7,1,46,-7
20:45:49:378611,-12,20,-1,16,7,1,46,-7
20:45:49:384619,9,-6,15,40,6,10,17,10
20:45:49:392121,1,-9,-19,-30,-5,-3,3,-17
20:45:49:399670,1,-9,-19,-30,-5,-3,3,-17
20:45:49:407132,-35,-55,-12,-61,-22,-11,0,-15
20:45:49:414590,5,-26,7,6,14,3,-22,14
20:45:49:422888,5,-26,7,6,14,3,-22,14
20:45:49:423619,-14,-27,3,41,2,-5,-19,-15
20:45:49:437842,0,10,-17,-7,-18,-6,-8,3
20:45:49:438631,0,10,-17,-7,-18,-6,-8,3
20:45:49:444607,-9,6,18,43,17,2,8,-2
20:45:49:452144,17,-12,27,38,10,2,-7,-5
20:45:49:459662,17,-12,27,38,10,2,-7,-5
20:45:49:467152,0,0,-11,-7,-5,-8,-14,1
20:45:49:474634,7,24,-1,-27,-8,-1,-19,1
20:45:49:482873,7,24,-1,-27,-8,-1,-19,1
20:45:49:483661,5,-44,-38,-30,10,0,-1,-4
20:45:49:497832,-2,20,-34,-8,-16,-8,-11,-1
20:45:49:498631,-2,20,-34,-8,-16,-8,-11,-1
20:45:49:504623,-4,-32,10,-1,2,5,3,-4
20:45:49:512131,-2,-10,-10,-14,-1,-1,5,0
20:45:49:519669,-2,-10,-10,-14,-1,-1,5,0
20:45:49:527158,-30,-17,-10,22,-12,-4,0,-5
20:45:49:534598,2,-37,-2,-53,-20,-5,-8,-1
20:45:49:542812,2,-37,-2,-53,-20,-5,-8,-1
20:45:49:543592,2,-7,5,-11,9,5,5,-3
20:45:49:557786,-19,-31,-26,7,4,1,5,5
20:45:49:558594,-19,-31,-26,7,4,1,5,5
20:45:49:564673,22,69,-8,21,-6,-4,-1,-1
20:45:49:572147,-6,55,18,-64,-14,-4,-2,4
20:45:49:579659,-6,55,18,-64,-14,-4,-2,4
20:45:49:587146,33,37,13,19,22,9,3,1
20:45:49:594653,-12,62,33,25,3,0,4,-2
20:45:49:602838,-12,62,33,25,3,0,4,-2
20:45:49:603588,-19,41,21,6,-14,-5,-6,-6
20:45:49:617852,-4,-15,3,43,9,4,20,-2
20:45:49:618616,-4,-15,3,43,9,4,20,-2
20:45:49:624596,13,-39,-14,24,26,13,11,7
20:45:49:632066,5,-29,-3,13,4,0,-5,-14
20:45:49:647808,5,-29,-3,13,4,0,-5,-14
20:45:49:648580,-5,42,1,-15,-15,-7,-11,5
20:45:49:654661,7,65,12,-26,-20,-7,-6,1
20:45:49:662793,7,65,12,-26,-20,-7,-6,1
20:45:49:663584,-5,-39,13,-5,22,9,6,14
20:45:49:677768,-2,-18,25,32,0,-3,-12,-7
20:45:49:678619,-2,-18,25,32,0,-3,-12,-7
20:45:49:684682,7,30,-10,-71,-25,-7,2,29
20:45:49:692140,-22,-51,-15,30,4,-3,0,-6
20:45:49:699666,-22,-51,-15,30,4,-3,0,-6
20:45:49:707172,-16,-69,12,24,13,1,-3,-13
20:45:49:714566,-10,-55,-7,-30,-9,-5,-10,0
20:45:49:722826,-10,-55,-7,-30,-9,-5,-10,0
20:45:49:723637,-6,4,17,-6,-18,-10,-17,-8
20:45:49:737807,13,6,9,-17,15,9,8,-5
20:45:49:738610,13,6,9,-17,15,9,8,-5
20:45:49:744575,7,7,-1,18,-8,-5,34,-10
20:45:49:752171,9,23,-9,17,-6,-5,-11,1
20:45:49:759680,9,23,-9,17,-6,-5,-11,1
20:45:49:767160,9,57,4,-15,5,2,18,3
20:45:49:774604,16,-12,-23,-25,-6,1,4,6
20:45:49:782843,16,-12,-23,-25,-6,1,4,6
20:45:49:783621,7,-10,-23,-30,-6,-4,-9,-27
20:45:49:797797,8,3,-18,-7,-5,2,-15,-5
20:45:49:798627,8,3,-18,-7,-5,2,-15,-5
20:45:49:804634,0,18,-4,-45,-11,-1,-10,-4
20:45:49:812162,7,8,13,20,12,3,-13,11
20:45:49:819702,7,8,13,20,12,3,-13,11
20:45:49:827184,-15,6,-6,13,-10,-8,-18,-33
20:45:49:834606,4,40,7,25,8,8,22,23
20:45:49:842864,4,40,7,25,8,8,22,23
20:45:49:843625,23,-63,2,41,5,-1,-7,9
20:45:49:857833,-1,-47,-12,-38,-8,-7,2,-8
20:45:49:858645,-1,-47,-12,-38,-8,-7,2,-8
20:45:49:864614,6,53,7,-28,13,11,9,13
20:45:49:872134,6,-10,14,6,10,0,-1,1
20:45:49:879691,6,-10,14,6,10,0,-1,1
20:45:49:887148,2,-16,15,-5,-1,-5,-7,-3
20:45:49:894606,-36,25,-25,-52,-16,-6,-1,-7
20:45:49:902182,-36,25,-25,-52,-16,-6,-1,-7
20:45:49:909653,2,15,3,7,-5,2,1,-6
20:45:49:917810,5,5,14,-47,-21,0,17,16
20:45:49:918607,5,5,14,-47,-21,0,17,16
20:45:49:924573,-29,-11,-16,14,2,-4,-20,-2
20:45:49:940262,-3,4,7,-11,1,0,-5,4
20:45:49:941129,-3,4,7,-11,1,0,-5,4
20:45:49:947159,4,-6,-5,-8,-4,0,1,7
20:45:49:954638,14,-5,0,38,2,3,9,-2
20:45:49:962173,14,-5,0,38,2,3,9,-2
20:45:49:969565,-18,11,11,49,4,-1,-4,-25
20:45:49:977834,7,-11,-13,-1,-2,2,5,1
20:45:49:978615,7,-11,-13,-1,-2,2,5,1
20:45:49:984621,5,26,-16,5,-2,-5,5,4
20:45:50:295,-1,45,21,16,2,0,-16,-10
20:45:50:1127,-1,45,21,16,2,0,-16,-10
20:45:50:7142,-7,29,19,15,2,-1,-2,9
20:45:50:14576,14,-6,-6,3,-3,-6,-13,-5
20:45:50:22128,14,-6,-6,3,-3,-6,-13,-5
20:45:50:29617,1,-17,-38,-31,-8,-5,-9,3
20:45:50:37823,-3,-15,-12,42,17,1,-9,6
20:45:50:38644,-3,-15,-12,42,17,1,-9,6
20:45:50:44586,9,-27,-2,-9,-8,4,90,35
20:45:50:60306,-45,-23,8,2,-1,1,-3,-8
20:45:50:61137,-45,-23,8,2,-1,1,-3,-8
20:45:50:67126,16,-75,-2,16,9,2,-7,2
20:45:50:74615,4,5,-21,-71,-9,2,24,2
20:45:50:82175,4,5,-21,-71,-9,2,24,2
20:45:50:89610,0,-12,-10,-23,-8,2,-18,-12
20:45:50:97811,6,16,-6,14,3,-4,-15,-7
20:45:50:98618,6,16,-6,14,3,-4,-15,-7
20:45:50:104622,8,-37,-13,-3,1,-5,-35,-36
20:45:50:120302,-17,-23,1,0,-8,-4,5,-1
20:45:50:121121,-17,-23,1,0,-8,-4,5,-1
20:45:50:127124,3,-12,12,16,5,3,-6,7
20:45:50:134591,-25,-14,3,13,11,-11,-27,-22
20:45:50:142169,-25,-14,3,13,11,-11,-27,-22
20:45:50:149621,-5,-6,-8,-60,-3,-1,-35,2
20:45:50:157772,-20,-39,-14,-14,-1,3,0,-14
20:45:50:158590,-20,-39,-14,-14,-1,3,0,-14
20:45:50:164634,-16,9,17,21,0,2,7,4
20:45:50:180322,18,43,23,21,12,0,3,-19
20:45:50:181149,18,43,23,21,12,0,3,-19
20:45:50:195297,1,51,-12,-4,-6,-5,12,4
20:45:50:196162,-18,2,15,28,-3,2,5,19
20:45:50:202197,-18,2,15,28,-3,2,5,19
20:45:50:209634,-9,-14,2,-8,0,-6,6,13
20:45:50:217828,23,0,-18,-3,-4,1,23,-13
20:45:50:218583,23,0,-18,-3,-4,1,23,-13
20:45:50:224636,10,41,14,-1,3,6,8,0
20:45:50:240717,11,-30,-2,39,-7,-2,4,-1
20:45:50:247852,11,-30,-2,39,-7,-2,4,-1
20:45:50:248647,-9,-1,21,-5,12,8,8,-8
20:45:50:254610,1,8,1,-25,-6,-3,-20,36
20:45:50:262159,1,8,1,-25,-6,-3,-20,36
20:45:50:278473,-22,28,-13,17,-2,-6,-31,-4
20:45:50:279278,-11,10,-16,-59,-13,-5,1,10
20:45:50:280140,-11,10,-16,-59,-13,-5,1,10
20:45:50:284616,-17,4,5,-15,-7,-2,2,1
20:45:50:300315,17,4,-5,38,3,1,14,-7
20:45:50:301130,17,4,-5,38,3,1,14,-7
20:45:50:307137,-27,15,-5,-10,-10,-4,-16,-12
20:45:50:314574,6,-9,-12,11,18,-2,6,15
20:45:50:322249,6,-9,-12,11,18,-2,6,15
20:45:50:329615,14,-19,-8,0,-2,3,0,-14
20:45:50:337816,-5,-14,10,27,-10,-4,-16,4
20:45:50:338576,-5,-14,10,27,-10,-4,-16,4
20:45:50:344635,12,-15,-46,-4,2,2,16,18
20:45:50:360320,10,-8,4,-11,-7,-7,-14,-34
20:45:50:361129,10,-8,4,-11,-7,-7,-14,-34
20:45:50:367162,15,-32,8,-12,-10,-1,-7,12
20:45:50:374625,6,43,9,9,1,-5,-18,28
20:45:50:382147,6,43,9,9,1,-5,-18,28
20:45:50:389674,-11,-12,-9,-37,2,2,-2,-37
20:45:50:397796,17,28,11,-8,-2,3,-1,-1
20:45:50:398599,17,28,11,-8,-2,3,-1,-1
20:45:50:404582,-12,38,15,44,-5,-6,19,22
20:45:50:420304,-4,6,5,-6,0,3,-17,2
20:45:50:421150,-4,6,5,-6,0,3,-17,2
20:45:50:427152,10,4,15,19,-6,-5,-36,-17
20:45:50:434687,-2,18,-5,19,-2,1,-10,-12
20:45:50:442169,-2,18,-5,19,-2,1,-10,-12
20:45:50:449567,11,20,3,27,15,4,15,8
20:45:50:473502,-8,-20,-2,-12,-6,-2,3,2
20:45:50:474321,-8,-20,-2,-12,-6,-2,3,2
20:45:50:475156,8,-15,-55,13,5,-4,4,-15
20:45:50:480276,-8,-20,3,1,5,-5,19,2
20:45:50:481138,-8,-20,3,1,5,-5,19,2
20:45:50:487151,4,-7,18,10,-8,-6,-11,9
20:45:50:494639,-9,-50,-7,-5,-4,0,0,-20
20:45:50:510364,-9,-50,-7,-5,-4,0,0,-20
20:45:50:511147,12,10,13,-21,-5,-1,19,4
20:45:50:518253,4,-25,8,-4,-2,-2,11,7
20:45:50:525331,4,-25,8,-4,-2,-2,11,7
20:45:50:526152,-32,-36,-38,-45,1,4,11,-7
20:45:50:540313,-18,10,-4,7,-7,-1,7,8
20:45:50:541147,-18,10,-4,7,-7,-1,7,8
20:45:50:555247,2,8,33,-5,-6,-5,3,-1
20:45:50:556051,12,22,-17,18,23,1,-8,-2
20:45:50:562193,12,22,-17,18,23,1,-8,-2
20:45:50:569617,-4,-40,27,15,-11,1,-20,-29
20:45:50:577802,32,2,-11,-24,-10,1,0,-3
20:45:50:578624,32,2,-11,-24,-10,1,0,-3
20:45:50:584634,0,19,9,3,3,-1,-9,11
20:45:50:600297,-8,50,14,25,1,0,14,0
20:45:50:601138,-8,50,14,25,1,0,14,0
20:45:50:607233,23,67,-39,-54,-4,-2,-1,-4
20:45:50:614622,8,-6,12,8,2,-6,-20,-6
20:45:50:622202,8,-6,12,8,2,-6,-20,-6
20:45:50:629624,-14,33,1,2,-6,-8,-3,-1
20:45:50:637780,3,-6,7,6,-1,2,1,-1
20:45:50:638599,3,-6,7,6,-1,2,1,-1
20:45:50:644652,-7,-47,-1,36,5,-4,-23,8
20:45:50:660771,-16,-2,5,-15,-9,-1,-7,-19
20:45:50:661577,-16,-2,5,-15,-9,-1,-7,-19
20:45:50:667154,18,26,-13,-2,-5,-3,17,5
20:45:50:674672,-9,-28,5,15,2,-1,-12,0
20:45:50:682189,-9,-28,5,15,2,-1,-12,0
20:45:50:689617,-16,-9,0,-33,-4,4,14,20
20:45:50:705918,-8,6,-13,1,-6,0,6,-1
20:45:50:706737,-8,6,-13,1,-6,0,6,-1
20:45:50:707560,2,-33,9,15,13,-1,1,-3
20:45:50:720321,3,-8,11,17,10,6,18,16
20:45:50:721142,3,-8,11,17,10,6,18,16
20:45:50:727336,0,-6,11,-14,-7,0,-5,4
20:45:50:734579,0,-40,-19,-13,-6,-1,-18,8
20:45:50:742187,0,-40,-19,-13,-6,-1,-18,8
20:45:50:749629,17,-3,-17,-21,-9,-13,-13,-12
20:45:50:757785,-23,11,-4,-21,5,2,-8,-19
20:45:50:758580,-23,11,-4,-21,5,2,-8,-19
20:45:50:764626,0,-8,15,-4,-11,-2,-5,-1
20:45:50:788485,-11,-36,-33,-9,-5,-5,4,-6
20:45:50:789306,-11,-36,-33,-9,-5,-5,4,-6
20:45:50:790127,11,1,13,-42,-7,3,9,1
20:45:50:794609,-9,23,-17,-77,11,5,8,-5
20:45:50:802169,-9,23,-17,-77,11,5,8,-5
20:45:50:809646,-22,30,1,23,-5,0,7,14
20:45:50:817802,6,6,7,25,2,-4,-4,-3
20:45:50:818618,6,6,7,25,2,-4,-4,-3
20:45:50:832155,-21,-5,3,16,10,4,-3,-3
20:45:50:848460,1,20,-44,12,-4,-5,12,-17
20:45:50:849276,1,20,-44,12,-4,-5,12,-17
20:45:50:850143,-9,-36,-9,-33,-8,-1,1,-26
20:45:50:862812,22,1,11,-13,-18,-5,-5,6
20:45:50:863610,22,1,11,-13,-18,-5,-5,6
20:45:50:869590,-9,12,3,-45,5,3,3,3
20:45:50:877820,6,37,27,0,1,2,7,6
20:45:50:878606,6,37,27,0,1,2,7,6
20:45:50:892165,11,-19,10,8,-5,-6,-7,-5
20:45:50:900303,-41,-8,7,-1,-3,-1,13,1
20:45:50:901148,-41,-8,7,-1,-3,-1,13,1
20:45:50:907072,10,-32,-29,21,-4,-3,14,3
20:45:50:922775,-7,-84,0,29,7,3,5,-7
20:45:50:923595,-7,-84,0,29,7,3,5,-7
20:45:50:938417,15,-24,15,33,1,0,3,6
20:45:50:939228,36,-22,-2,14,-4,-4,-23,4
20:45:50:940128,36,-22,-2,14,-4,-4,-23,4
20:45:50:952153,-3,65,46,15,14,6,7,12
20:45:50:960319,9,2,-18,-86,-8,-2,-1,12
20:45:50:961184,9,2,-18,-86,-8,-2,-1,12
20:45:50:967149,-21,-16,-24,8,-2,-3,-14,-2
20:45:50:982836,-7,70,35,8,5,1,2,3
20:45:50:983617,-7,70,35,8,5,1,2,3
20:45:50:989618,-14,31,0,21,1,-2,-17,23
20:45:50:997823,-15,-19,-12,33,-5,-7,-27,-25
20:45:50:998630,-15,-19,-12,33,-5,-7,-27,-25
20:45:51:12191,-13,-12,-26,47,18,1,-4,-9
20:45:51:20303,20,-16,12,17,5,2,14,9
20:45:51:21145,20,-16,12,17,5,2,14,9
20:45:51:27154,-9,-8,-5,-47,-18,-5,6,-16
20:45:51:42800,-11,-27,-3,12,-3,3,7,5
20:45:51:43615,-11,-27,-3,12,-3,3,7,5
20:45:51:49622,21,-35,-27,-40,0,5,-15,-3
20:45:51:65291,-34,6,-19,1,-1,-3,11,0
20:45:51:66144,-34,6,-19,1,-1,-3,11,0
20:45:51:72092,-22,-23,10,26,-10,-7,14,10
20:45:51:80298,15,-12,-1,-18,6,-2,-13,1
20:45:51:81141,15,-12,-1,-18,6,-2,-13,1
20:45:51:87165,26,49,13,0,-5,-3,10,-6
20:45:51:110944,-6,-2,6,-65,-19,-5,8,-2
20:45:51:111741,-6,-2,6,-65,-19,-5,8,-2
20:45:51:112631,-11,7,-5,-26,1,0,2,-4
20:45:51:117782,23,15,-5,39,7,0,-21,7
20:45:51:118591,23,15,-5,39,7,0,-21,7
20:45:51:132158,6,2,13,51,-9,-9,-18,-8
20:45:51:140268,7,3,15,20,21,6,6,0
20:45:51:141133,7,3,15,20,21,6,6,0
20:45:51:147162,-10,-73,-4,-4,-3,-4,-14,-15
20:45:51:170967,2,-22,-51,-20,-1,2,-3,-19
20:45:51:171792,2,-22,-51,-20,-1,2,-3,-19
20:45:51:172610,-6,6,-5,-15,13,2,-11,-26
20:45:51:177177,-6,6,-5,-15,13,2,-11,-26
20:45:51:184599,-6,-7,8,13,-8,-1,-1,6
20:45:51:192165,5,8,7,-18,-1,2,8,9
20:45:51:200316,5,8,7,-18,-1,2,8,9
20:45:51:201131,18,13,2,45,4,-1,7,10
20:45:51:207165,-9,25,-14,-30,-10,-4,-10,2
20:45:51:222855,-9,25,-14,-30,-10,-4,-10,2
20:45:51:223645,5,-22,-6,26,1,-6,8,2
20:45:51:229628,12,34,28,17,24,11,11,-5
20:45:51:237148,12,34,28,17,24,11,11,-5
20:45:51:244650,-31,-1,19,-40,1,-2,14,-7
20:45:51:252188,-15,-46,-15,-23,-10,-6,0,-5
20:45:51:260305,-15,-46,-15,-23,-10,-6,0,-5
20:45:51:261141,13,-5,21,-1,-6,3,10,15
20:45:51:267140,14,8,-53,11,-9,-6,-1,1
20:45:51:282782,14,8,-53,11,-9,-6,-1,1
20:45:51:283594,4,12,-7,17,3,-3,-11,-5
20:45:51:297863,4,7,-29,-67,-13,-2,-1,22
20:45:51:298642,4,7,-29,-67,-13,-2,-1,22
20:45:51:304636,-2,47,3,12,7,4,23,-12
20:45:51:312173,-9,23,32,32,14,0,1,5
20:45:51:320308,-9,23,32,32,14,0,1,5
20:45:51:321139,-30,-27,10,-45,-21,-9,-21,-16
20:45:51:327133,13,-19,3,14,-5,-1,41,8
20:45:51:343077,13,-19,3,14,-5,-1,41,8
20:45:51:343649,-12,-46,-18,-24,3,0,-16,-19
20:45:51:349598,16,-22,45,-3,0,3,7,-1
20:45:51:357158,16,-22,45,-3,0,3,7,-1
20:45:51:364629,7,23,6,16,-9,-5,4,11
20:45:51:372144,-19,-11,-6,-4,-3,-3,-3,3
20:45:51:380188,-19,-11,-6,-4,-3,-3,-3,3
20:45:51:387721,-7,95,-15,-55,-2,1,-11,2
20:45:51:388575,-7,-13,2,13,-4,-3,-12,-3
20:45:51:402801,-7,-13,2,13,-4,-3,-12,-3
20:45:51:403587,-8,3,13,-70,-18,-1,-6,-13
20:45:51:409627,-6,7,-4,50,12,3,-1,-3
20:45:51:417214,-6,7,-4,50,12,3,-1,-3
20:45:51:424587,13,-10,0,7,-6,-3,18,14
20:45:51:432110,-9,-14,5,-3,-5,3,5,-18
20:45:51:448442,-9,-14,5,-3,-5,3,5,-18
20:45:51:449313,10,-5,20,66,21,-4,-22,1
20:45:51:450135,-18,-58,-7,14,4,1,-14,1
20:45:51:462794,-18,-58,-7,14,4,1,-14,1
20:45:51:463593,34,69,-12,-11,-15,-2,6,4
20:45:51:469630,9,44,2,10,1,-3,-6,-9
20:45:51:477176,9,44,2,10,1,-3,-6,-9
20:45:51:484608,-1,-42,-72,-21,-8,-2,-18,-6
20:45:51:492197,13,89,15,-24,14,5,9,-7
20:45:51:500314,13,89,15,-24,14,5,9,-7
20:45:51:501142,9,-38,-27,-9,-4,-2,-15,3
20:45:51:507267,3,-62,-13,0,-14,-3,-5,12
20:45:51:522812,3,-62,-13,0,-14,-3,-5,12
20:45:51:523716,-3,4,48,-20,-6,-1,9,-4
20:45:51:529577,20,6,21,35,6,-1,-9,1
20:45:51:545336,20,6,21,35,6,-1,-9,1
20:45:51:546147,6,-18,1,27,7,3,18,6
20:45:51:552168,-12,56,18,20,0,8,5,31
20:45:51:560323,-12,56,18,20,0,8,5,31
20:45:51:561143,-31,-33,-4,15,-4,-7,-50,-42
20:45:51:574608,-9,-41,-29,-47,-8,0,-8,16
20:45:51:582785,-9,-41,-29,-47,-8,0,-8,16
20:45:51:583609,-12,-38,-3,16,2,-1,11,15
20:45:51:589634,14,-19,-5,-8,-12,-8,-5,1
20:45:51:605339,14,-19,-5,-8,-12,-8,-5,1
20:45:51:606134,-20,-11,-47,-13,5,-4,-13,-18
20:45:51:621012,8,8,17,4,10,-6,3,-5
20:45:51:621790,8,8,17,4,10,-6,3,-5
20:45:51:622585,19,24,37,-17,11,6,7,16
20:45:51:627144,15,24,-11,-8,-1,0,-6,-7
20:45:51:642879,15,24,-11,-8,-1,0,-6,-7
20:45:51:643625,-6,39,-18,20,-10,-2,34,5
20:45:51:649591,-11,-23,2,21,9,-9,-6,-2
20:45:51:665321,-11,-23,2,21,9,-9,-6,-2
20:45:51:666156,17,6,15,9,8,1,8,8
20:45:51:672099,-21,-15,-10,-76,-18,-3,19,-3
20:45:51:680314,-21,-15,-10,-76,-18,-3,19,-3
20:45:51:681132,-1,-2,19,15,-5,5,12,13
20:45:51:687158,2,3,-32,19,8,-3,-37,-27
20:45:51:702822,2,3,-32,19,8,-3,-37,-27
20:45:51:703615,-21,-38,-19,-32,-11,2,-22,7
20:45:51:709582,-1,7,6,-18,1,-1,-1,6
20:45:51:725318,-1,7,6,-18,1,-1,-1,6
20:45:51:726137,11,13,18,65,9,0,1,2
20:45:51:732101,-5,-59,-23,20,-10,-3,-3,-9
20:45:51:740315,-5,-59,-23,20,-10,-3,-3,-9
20:45:51:741158,1,50,17,13,7,1,-2,4
20:45:51:747067,-21,-13,-3,19,-2,-2,12,-8
20:45:51:762834,-21,-13,-3,19,-2,-2,12,-8
20:45:51:763606,9,33,18,19,5,0,0,-1
20:45:51:769604,5,13,23,46,-1,-2,-5,11
20:45:51:785304,5,13,23,46,-1,-2,-5,11
20:45:51:786135,-9,-19,-13,-17,-1,2,-8,-19
20:45:51:792166,15,112,15,3,14,9,15,-9
20:45:51:800322,15,112,15,3,14,9,15,-9
20:45:51:801140,-7,-10,25,14,-1,-4,-7,2
20:45:51:814652,8,-59,-5,1,-9,-4,-2,4
20:45:51:822859,8,-59,-5,1,-9,-4,-2,4
20:45:51:823586,-4,5,-18,10,12,0,2,-2
20:45:51:829580,12,-4,-5,-14,6,4,-4,10
20:45:51:837152,12,-4,-5,-14,6,4,-4,10
20:45:51:852776,-6,-11,10,-15,-16,-4,27,7
20:45:51:853611,-24,35,38,1,-13,-1,6,-8
20:45:51:860305,-24,35,38,1,-13,-1,6,-8
20:45:51:861148,-2,-39,2,5,13,8,14,-9
20:45:51:874601,-3,8,-4,24,0,-8,22,-27
20:45:51:882802,-3,8,-4,24,0,-8,22,-27
20:45:51:883629,-19,34,-15,-25,-12,-12,-10,-6
20:45:51:889661,17,-40,-11,-11,0,-1,-35,-11
20:45:51:897165,17,-40,-11,-11,0,-1,-35,-11
20:45:51:904624,-2,-38,-30,-33,-8,-3,-16,4
20:45:51:912079,5,23,-11,-49,17,7,5,18
20:45:51:920302,5,23,-11,-49,17,7,5,18
20:45:51:921134,1,-4,6,33,3,-6,-37,-22
20:45:51:934659,-7,35,20,11,-8,-7,29,21
20:45:51:942831,-7,35,20,11,-8,-7,29,21
20:45:51:943596,2,28,18,-10,-3,-7,-34,-4
20:45:51:949639,-14,-57,-46,-5,2,10,8,-4
20:45:51:957165,-14,-57,-46,-5,2,10,8,-4
20:45:51:964590,9,-22,-5,-14,-11,-2,25,-25
20:45:51:972091,5,-18,3,-2,-7,-2,17,18
20:45:51:980336,5,-18,3,-2,-7,-2,17,18
20:45:51:981155,-7,-4,-17,-15,-9,-5,4,-3
20:45:51:994598,13,-9,0,14,10,3,-25,8
20:45:52:2842,13,-9,0,14,10,3,-25,8
20:45:52:3625,11,3,22,9,3,7,-1,13
20:45:52:9574,-13,27,12,31,-15,-7,-5,-5
20:45:52:17182,-13,27,12,31,-15,-7,-5,-5
20:45:52:24597,9,-26,16,16,2,6,11,1
20:45:52:32152,-2,-15,-11,-6,18,4,-19,-12
20:45:52:40325,-2,-15,-11,-6,18,4,-19,-12
20:45:52:41155,-7,32,-9,-10,-12,-5,58,24
20:45:52:54627,-11,14,2,-6,-4,4,29,10
20:45:52:62827,-11,14,2,-6,-4,4,29,10
20:45:52:63616,-8,-60,-16,20,9,5,-2,10
20:45:52:69605,37,54,32,-32,-7,-2,-13,-2
20:45:52:77197,37,54,32,-32,-7,-2,-13,-2
20:45:52:84626,-13,-14,18,49,-7,-6,-12,-5
20:45:52:92166,-24,-21,-10,15,0,7,-7,-7
20:45:52:100267,-24,-21,-10,15,0,7,-7,-7
20:45:52:101137,19,-13,-12,18,9,3,14,-8
20:45:52:114603,-31,-5,5,-21,-27,-16,-1,-45
20:45:52:122838,-31,-5,5,-21,-27,-16,-1,-45
20:45:52:123634,5,-22,-18,-4,13,0,-13,-1
20:45:52:129594,-6,-38,-31,-16,-3,0,-2,-23
20:45:52:137169,-6,-38,-31,-16,-3,0,-2,-23
20:45:52:144653,-17,1,-26,-44,-10,-5,1,-15
20:45:52:152153,-12,-4,-5,14,8,-4,-17,7
20:45:52:160300,-12,-4,-5,14,8,-4,-17,7
20:45:52:161141,-24,36,14,-34,-7,-3,-6,-7
20:45:52:174642,2,-42,-44,-64,-12,-5,-5,-13
20:45:52:182793,2,-42,-44,-64,-12,-5,-5,-13
20:45:52:183600,11,64,-21,-34,-1,2,-82,5
20:45:52:189647,22,48,15,31,1,-22,-13,8
20:45:52:197184,22,48,15,31,1,-22,-13,8
20:45:52:204642,-25,29,13,-3,-3,-1,-5,-10
20:45:52:212099,8,37,4,21,0,4,2,14
20:45:52:220751,8,37,4,21,0,4,2,14
20:45:52:227064,7,-47,39,26,12,0,15,20
20:45:52:234652,-13,-6,43,78,10,2,4,3
20:45:52:242825,-13,-6,43,78,10,2,4,3
20:45:52:243620,18,-21,13,26,-16,-5,7,-1
20:45:52:249612,2,-23,22,33,11,3,3,-9
20:45:52:257212,2,-23,22,33,11,3,3,-9
20:45:52:264625,16,49,6,25,-1,1,34,21
20:45:52:272145,5,12,-4,-26,-7,-1,20,-1
20:45:52:280288,5,12,-4,-26,-7,-1,20,-1
20:45:52:281144,7,-13,-28,-73,-16,-8,-10,-6
20:45:52:294630,1,-30,-24,-32,8,5,-2,8
20:45:52:302833,1,-30,-24,-32,8,5,-2,8
20:45:52:303648,-20,53,17,6,3,3,10,-2
20:45:52:309621,8,5,-29,-30,-4,-3,-1,10
20:45:52:317168,8,5,-29,-30,-4,-3,-1,10
20:45:52:324668,-1,2,-3,-16,2,0,-3,-1
20:45:52:332159,-13,-44,-8,-14,-5,-1,-3,12
20:45:52:340377,-13,-44,-8,-14,-5,-1,-3,12
20:45:52:341223,5,-26,-4,31,11,2,-21,-3
20:45:52:354665,19,3,23,14,-2,2,-14,12
20:45:52:362807,19,3,23,14,-2,2,-14,12
20:45:52:363593,1,33,19,4,-5,4,23,-10
20:45:52:369623,19,-15,-12,-21,-13,-2,-23,6
20:45:52:377207,19,-15,-12,-21,-13,-2,-23,6
20:45:52:384595,5,-13,-4,30,17,2,-3,13
20:45:52:392131,-16,-34,29,53,1,-6,-5,-14
20:45:52:400312,-16,-34,29,53,1,-6,-5,-14
20:45:52:401161,0,-35,3,3,12,-6,9,-3
20:45:52:414634,4,61,6,4,3,1,-5,-2
20:45:52:422859,4,61,6,4,3,1,-5,-2
20:45:52:423592,-3,-14,3,-15,-18,-5,-6,9
20:45:52:429586,-6,5,-36,-15,10,6,12,16
20:45:52:437171,-6,5,-36,-15,10,6,12,16
20:45:52:444589,-10,4,2,-10,3,3,-12,2
20:45:52:452153,-31,31,-3,-7,-15,-1,2,-8
20:45:52:460361,-31,31,-3,-7,-15,-1,2,-8
20:45:52:461150,16,-13,8,38,4,-5,-9,-10
20:45:52:474588,-6,-38,14,-70,-9,1,4,-10
20:45:52:482873,-6,-38,14,-70,-9,1,4,-10
20:45:52:483631,-8,-23,-7,13,0,4,13,-14
20:45:52:489601,0,-28,6,19,0,0,1,-4
20:45:52:497162,0,-28,6,19,0,0,1,-4
20:45:52:504640,18,-11,-18,-35,-23,-5,-8,8
20:45:52:512179,7,-5,-15,17,22,1,-10,-9
20:45:52:520344,7,-5,-15,17,22,1,-10,-9
20:45:52:521149,15,104,0,17,2,1,5,10
20:45:52:534615,-7,-72,-29,28,-7,-6,-8,2
20:45:52:542877,-7,-72,-29,28,-7,-6,-8,2
20:45:52:543621,-26,-53,-56,15,4,-1,-37,-19
20:45:52:549642,-12,47,27,33,7,0,8,9
20:45:52:557222,-12,47,27,33,7,0,8,9
20:45:52:564641,-3,-32,-9,1,3,0,12,5
20:45:52:572191,5,68,11,22,-1,0,-1,0
20:45:52:580283,5,68,11,22,-1,0,-1,0
20:45:52:581149,11,-12,-21,-23,-13,-4,-1,-9
20:45:52:594640,6,-24,0,-84,-9,0,-40,-13
20:45:52:602786,6,-24,0,-84,-9,0,-40,-13
20:45:52:603575,22,8,18,2,-12,-9,9,3
20:45:52:609645,38,4,-1,-49,-5,2,16,10
20:45:52:617164,38,4,-1,-49,-5,2,16,10
20:45:52:624670,-2,52,14,-65,-1,2,-2,6
20:45:52:632168,-24,-11,24,1,-10,-7,9,-19
20:45:52:640312,-24,-11,24,1,-10,-7,9,-19
20:45:52:641134,-22,65,-24,-37,6,5,15,7
20:45:52:654640,-1,27,-31,-24,-6,-1,6,1
20:45:52:662779,-1,27,-31,-24,-6,-1,6,1
20:45:52:663587,-17,-35,-3,21,5,2,-28,1
20:45:52:669651,-13,38,-51,25,5,4,4,-27
20:45:52:677162,-13,38,-51,25,5,4,4,-27
20:45:52:684580,10,16,13,18,-7,-2,-5,2
20:45:52:692081,-17,-37,7,50,18,10,-2,0
20:45:52:700328,-17,-37,7,50,18,10,-2,0
20:45:52:701155,19,-72,-15,-5,4,-2,12,-6
20:45:52:714635,1,-28,9,27,0,-8,-2,-4
20:45:52:722800,1,-28,9,27,0,-8,-2,-4
20:45:52:723597,-4,-27,0,-19,13,2,9,1
20:45:52:729572,1,6,20,13,-1,-3,2,-12
20:45:52:737198,1,6,20,13,-1,-3,2,-12
20:45:52:744628,11,-69,36,19,-14,-9,-7,-19
20:45:52:752101,34,60,-6,-8,14,5,2,18
20:45:52:759654,34,60,-6,-8,14,5,2,18
20:45:52:767201,-10,-9,-16,4,-1,2,3,-4
20:45:52:774606,-2,-10,2,-22,-15,-10,-15,-12
20:45:52:782838,-2,-10,2,-22,-15,-10,-15,-12
20:45:52:783612,-25,-1,0,5,-1,-3,3,-4
20:45:52:797807,-32,44,5,59,10,5,7,4
20:45:52:798633,-32,44,5,59,10,5,7,4
20:45:52:804629,-28,-28,-33,-3,-6,-1,-1,1
20:45:52:812171,16,-2,20,14,-4,-4,5,9
20:45:52:819734,16,-2,20,14,-4,-4,5,9
20:45:52:827174,17,105,26,16,18,10,1,6
20:45:52:834672,-12,-18,8,-3,-5,-3,1,7
20:45:52:842815,-12,-18,8,-3,-5,-3,1,7
20:45:52:843593,-22,14,-32,-70,-26,-10,-4,-9
20:45:52:857836,8,15,0,9,3,6,18,11
20:45:52:858589,8,15,0,9,3,6,18,11
20:45:52:864602,-17,16,30,-9,10,3,4,5
20:45:52:872214,0,-80,10,-21,-16,-7,-5,-21
20:45:52:879636,0,-80,10,-21,-16,-7,-5,-21
20:45:52:887168,15,66,14,50,16,3,3,5
20:45:52:894649,-3,-17,-5,-27,-5,2,17,0
20:45:52:902804,-3,-17,-5,-27,-5,2,17,0
20:45:52:903594,-18,-40,-11,10,2,-3,9,-5
20:45:52:917810,8,13,-40,4,11,0,-2,4
20:45:52:918595,8,13,-40,4,11,0,-2,4
20:45:52:924547,5,31,32,-8,-11,-8,-8,16
20:45:52:932149,-18,-13,5,-17,-2,0,-3,-8
20:45:52:939663,-18,-13,5,-17,-2,0,-3,-8
20:45:52:947103,27,-3,6,-7,-4,0,-18,0
20:45:52:954592,4,14,6,20,0,-1,-16,-1
20:45:52:962822,4,14,6,20,0,-1,-16,-1
20:45:52:963604,-22,-56,15,7,-15,-3,7,4
20:45:52:978297,6,-1,27,-3,5,-1,12,10
20:45:52:979160,6,-1,27,-3,5,-1,12,10
20:45:52:984586,4,-32,-48,-4,2,2,9,-4
20:45:52:992086,-13,-20,-3,25,-10,-5,-10,5
20:45:52:999692,-13,-20,-3,25,-10,-5,-10,5
20:45:53:7093,-8,-20,-12,-15,-1,3,-9,-15
20:45:53:14628,-26,-70,-9,-14,-8,-4,-7,-11
20:45:53:22854,-26,-70,-9,-14,-8,-4,-7,-11
20:45:53:23629,21,4,-18,-27,-10,-3,-8,-1
20:45:53:37834,6,-45,-17,2,-5,1,-2,9
20:45:53:38634,6,-45,-17,2,-5,1,-2,9
20:45:53:44623,-13,-33,20,9,23,5,9,-3
20:45:53:52098,0,-25,-23,-24,-8,-7,-25,-10
20:45:53:59660,0,-25,-23,-24,-8,-7,-25,-10
20:45:53:67146,4,-20,10,10,-11,-9,-19,6
20:45:53:74662,-17,-14,-6,5,19,7,-3,-12
20:45:53:82810,-17,-14,-6,5,19,7,-3,-12
20:45:53:83579,2,2,-9,-6,-7,-3,7,6
20:45:53:97820,-19,-16,-15,-32,-17,-10,-7,-5
20:45:53:98638,-19,-16,-15,-32,-17,-10,-7,-5
20:45:53:104627,14,-6,-54,6,4,2,-3,12
20:45:53:112149,13,23,15,8,17,6,-4,-9
20:45:53:119608,13,23,15,8,17,6,-4,-9
20:45:53:127169,24,-13,10,6,-8,-8,-13,-5
20:45:53:134662,-11,46,12,-7,-15,-14,12,4
20:45:53:142806,-11,46,12,-7,-15,-14,12,4
20:45:53:143603,-11,43,-1,26,7,-2,-1,6
20:45:53:157764,23,-50,1,-1,-6,0,-18,7
20:45:53:158583,23,-50,1,-1,-6,0,-18,7
20:45:53:164606,11,-39,-42,8,4,-1,8,-31
20:45:53:172154,-6,10,7,-5,-3,-1,1,-1
20:45:53:179632,-6,10,7,-5,-3,-1,1,-1
20:45:53:187082,6,41,33,37,12,9,1,6
20:45:53:194572,4,18,-1,-7,-3,-6,-12,-34
20:45:53:202848,4,18,-1,-7,-3,-6,-12,-34
20:45:53:203609,-3,44,7,0,2,0,15,6
20:45:53:217809,2,15,13,11,11,5,13,11
20:45:53:218621,2,15,13,11,11,5,13,11
20:45:53:224573,-48,-43,18,13,-8,3,-29,-12
20:45:53:232062,17,5,-4,-11,0,1,3,13
20:45:53:239657,17,5,-4,-11,0,1,3,13
20:45:53:247090,20,-5,14,-19,-6,-5,15,36
20:45:53:254586,-18,17,-18,-63,-3,5,1,10
20:45:53:262821,-18,17,-18,-63,-3,5,1,10
20:45:53:263597,-4,39,39,-13,-12,-1,3,3
20:45:53:277790,6,45,-14,-64,9,7,18,6
20:45:53:278608,6,45,-14,-64,9,7,18,6
20:45:53:284587,4,-11,-23,-26,-5,-2,-10,0
20:45:53:292088,10,6,37,64,8,-5,-6,-13
20:45:53:299658,10,6,37,64,8,-5,-6,-13
20:45:53:307109,-10,-33,11,3,-1,-2,4,-11
20:45:53:314584,-4,0,7,51,-11,-7,-7,0
20:45:53:322891,-4,0,7,51,-11,-7,-7,0
20:45:53:323635,14,-29,-22,-31,-4,4,12,-24
20:45:53:337881,14,43,4,-19,-5,-8,-7,-9
20:45:53:338641,14,43,4,-19,-5,-8,-7,-9
20:45:53:344603,9,-21,-22,-6,-9,6,34,-1
20:45:53:352087,4,24,6,17,7,6,-12,44
20:45:53:359708,4,24,6,17,7,6,-12,44
20:45:53:367211,-10,-44,23,10,-5,-1,-17,-18
20:45:53:374629,-10,-92,-46,-10,-9,-3,5,5
20:45:53:382829,-10,-92,-46,-10,-9,-3,5,5
20:45:53:383581,9,-8,-10,14,-1,-3,-4,-12
20:45:53:397843,8,-21,-27,-15,-8,-4,-16,-5
20:45:53:398640,8,-21,-27,-15,-8,-4,-16,-5
20:45:53:404643,-8,8,6,35,-5,-9,4,-5
20:45:53:412153,3,-17,-12,15,14,10,-3,-5
20:45:53:419650,3,-17,-12,15,14,10,-3,-5
20:45:53:427190,4,63,7,3,12,-2,-12,7
20:45:53:434614,-14,-49,22,-7,-8,0,-13,-14
20:45:53:442815,-14,-49,22,-7,-8,0,-13,-14
20:45:53:443611,4,-17,6,16,0,5,-9,13
20:45:53:457787,-21,16,40,9,16,5,11,-20
20:45:53:458595,-21,16,40,9,16,5,11,-20
20:45:53:464636,-8,-66,-1,-11,-10,-20,-22,-6
20:45:53:480304,6,-30,14,-19,-12,-3,15,12
20:45:53:481165,6,-30,14,-19,-12,-3,15,12
20:45:53:487173,-20,17,-21,-22,-2,6,5,-4
20:45:53:494623,-1,25,-19,32,9,-1,-17,-6
20:45:53:502821,-1,25,-19,32,9,-1,-17,-6
20:45:53:503594,-11,5,-2,7,-5,4,-3,4
20:45:53:517769,13,96,16,-6,-2,6,17,-13
20:45:53:518583,13,96,16,-6,-2,6,17,-13
20:45:53:524625,-33,-46,-6,-18,6,-3,3,-3
20:45:53:532165,16,-30,-18,30,-12,-15,-6,-1
20:45:53:539683,16,-30,-18,30,-12,-15,-6,-1
20:45:53:547192,23,11,-13,4,8,-1,-5,14
20:45:53:554620,-31,37,-36,-55,-18,-5,8,-38
20:45:53:562791,-31,37,-36,-55,-18,-5,8,-38
20:45:53:563620,-16,7,26,15,9,4,12,-13
20:45:53:577778,6,33,22,-11,-6,3,0,20
20:45:53:578620,6,33,22,-11,-6,3,0,20
20:45:53:584573,8,-29,-6,-6,0,4,27,1
20:45:53:592179,-7,-22,-6,-10,-6,-13,-23,-16
20:45:53:599644,-7,-22,-6,-10,-6,-13,-23,-16
20:45:53:607088,33,95,15,18,6,3,-4,-7
20:45:53:623464,-11,28,-26,0,-2,4,21,14
20:45:53:624253,-11,28,-26,0,-2,4,21,14
20:45:53:625055,-14,-44,-18,15,-4,-8,-16,-24
20:45:53:637802,5,-31,10,31,-2,-2,17,15
20:45:53:638596,5,-31,10,31,-2,-2,17,15
20:45:53:644613,-20,15,-4,-20,10,6,-6,9
20:45:53:652167,-6,-24,-39,10,-3,-1,14,-9
20:45:53:667829,-6,-24,-39,10,-3,-1,14,-9
20:45:53:668580,11,-46,-4,9,-9,-6,-38,1
20:45:53:674640,-4,-7,12,7,8,1,-20,5
20:45:53:682810,-4,-7,12,7,8,1,-20,5
20:45:53:683616,-25,13,-1,-23,-5,-4,3,-1
20:45:53:697804,-2,-22,10,-25,-12,-4,-12,11
20:45:53:698599,-2,-22,10,-25,-12,-4,-12,11
20:45:53:704623,17,-26,13,0,0,-3,-19,10
20:45:53:720319,-10,-65,4,2,-5,-1,9,3
20:45:53:721158,-10,-65,4,2,-5,-1,9,3
20:45:53:727169,-2,41,12,-11,0,-2,11,-13
20:45:53:734620,33,-40,-66,-50,-1,-1,-11,-12
20:45:53:742216,33,-40,-66,-50,-1,-1,-11,-12
20:45:53:749617,3,-10,-13,-22,-9,-3,18,3
20:45:53:757842,-9,-31,13,55,17,11,35,1
20:45:53:758600,-9,-31,13,55,17,11,35,1
20:45:53:764572,-3,5,-7,-15,-9,-4,-8,-6
20:45:53:780280,-6,-7,16,20,6,-8,-33,-15
20:45:53:781188,-6,-7,16,20,6,-8,-33,-15
20:45:53:787186,-2,20,-29,5,3,3,4,-2
20:45:53:794646,7,21,-14,-24,-19,-4,22,28
20:45:53:802207,7,21,-14,-24,-19,-4,22,28
20:45:53:809590,-3,37,25,16,6,5,-13,-2
20:45:53:817799,-18,4,-14,8,-1,-5,5,0
20:45:53:818601,-18,4,-14,8,-1,-5,5,0
20:45:53:824668,6,-103,9,22,-1,-5,11,15
20:45:53:840296,-3,60,21,-3,7,5,-6,-5
20:45:53:841163,-3,60,21,-3,7,5,-6,-5
20:45:53:847078,7,-74,-4,-34,-7,-1,-4,4
20:45:53:854599,9,2,22,21,6,-5,-3,6
20:45:53:862196,9,2,22,21,6,-5,-3,6
20:45:53:869651,-10,8,2,7,-2,0,33,-17
20:45:53:877087,5,-42,1,0,8,12,-20,-48
20:45:53:885356,5,-42,1,0,8,12,-20,-48
20:45:53:886149,14,113,-3,-35,-1,-2,-8,6
20:45:53:900315,13,-26,8,18,5,-1,12,-1
20:45:53:901184,13,-26,8,18,5,-1,12,-1
20:45:53:907087,-31,-42,-34,7,-1,-5,-14,-13
20:45:53:914619,3,-8,-1,-1,-2,1,-3,18
20:45:53:922179,3,-8,-1,-1,-2,1,-3,18
20:45:53:929612,-11,-76,-30,-86,-10,5,8,12
20:45:53:946014,13,19,15,-11,-2,4,4,1
20:45:53:946790,13,19,15,-11,-2,4,4,1
20:45:53:947577,7,-12,7,31,0,-10,-8,-10
20:45:53:960317,-9,0,18,28,6,-1,2,-15
20:45:53:961162,-9,0,18,28,6,-1,2,-15
20:45:53:967113,11,-19,19,10,-4,-7,-23,14
20:45:53:974599,2,-24,1,1,4,2,3,18
20:45:53:982197,2,-24,1,1,4,2,3,18
20:45:53:989623,30,67,-14,-42,-6,-4,0,13
20:45:53:997832,-1,-21,-6,-10,-2,-3,-7,-8
20:45:53:998646,-1,-21,-6,-10,-2,-3,-7,-8
20:45:54:4642,4,3,-9,21,2,6,4,-14
20:45:54:20307,22,78,20,-3,5,6,-5,13
20:45:54:21161,22,78,20,-3,5,6,-5,13
20:45:54:27142,11,17,15,5,-16,-10,10,-21
20:45:54:34608,-5,-63,-15,-3,-8,-8,-15,-4
20:45:54:42188,-5,-63,-15,-3,-8,-8,-15,-4
20:45:54:49629,-3,-2,-6,22,6,3,4,3
20:45:54:57811,-63,7,-2,-12,-13,-9,-24,-2
20:45:54:58581,-63,7,-2,-12,-13,-9,-24,-2
20:45:54:64646,-3,54,-18,-57,-8,2,-5,9
20:45:54:80330,15,10,15,-2,6,7,-5,5
20:45:54:81159,15,10,15,-2,6,7,-5,5
20:45:54:87185,-32,-50,6,-5,-3,-2,0,1
20:45:54:94601,0,32,8,8,-7,-6,0,-19
20:45:54:102178,0,32,8,8,-7,-6,0,-19
20:45:54:109614,3,-31,4,14,6,9,-10,11
20:45:54:117770,-18,25,-17,14,12,1,-2,-9
20:45:54:118602,-18,25,-17,14,12,1,-2,-9
20:45:54:124583,-18,-2,-1,37,1,0,3,4
20:45:54:140257,14,24,5,15,-7,-7,-9,5
20:45:54:141175,14,24,5,15,-7,-7,-9,5
20:45:54:147187,-14,4,-11,-36,-5,0,28,-2
20:45:54:154633,-9,-51,-30,14,7,-1,2,-9
20:45:54:162194,-9,-51,-30,14,7,-1,2,-9
20:45:54:169602,-6,3,25,31,0,-3,-7,17
20:45:54:177085,-9,26,-20,-23,-7,-2,4,-12
20:45:54:185298,-9,26,-20,-23,-7,-2,4,-12
20:45:54:186190,-18,-5,2,1,11,6,4,-21
20:45:54:200262,-17,10,27,12,-9,1,16,8
20:45:54:201153,-17,10,27,12,-9,1,16,8
20:45:54:207058,24,9,9,11,10,0,-11,7
20:45:54:222812,7,5,-5,-28,-11,-6,-10,17
20:45:54:223598,7,5,-5,-28,-11,-6,-10,17
20:45:54:229672,0,-71,-28,-30,-2,-4,-22,-21
20:45:54:237792,42,33,-22,-5,-5,3,34,17
20:45:54:238615,42,33,-22,-5,-5,3,34,17
20:45:54:244585,23,10,21,30,0,0,-4,-14
20:45:54:260276,-2,-21,6,-20,-13,-9,-2,-40
20:45:54:261195,-2,-21,6,-20,-13,-9,-2,-40
20:45:54:267175,6,61,-24,-1,3,0,-8,7
20:45:54:274642,15,46,0,13,8,3,-4,-2
20:45:54:282171,15,46,0,13,8,3,-4,-2
20:45:54:289563,11,64,29,30,6,4,32,0
20:45:54:297803,-26,-43,12,11,-10,-5,-16,-16
20:45:54:298662,-26,-43,12,11,-10,-5,-16,-16
20:45:54:304589,-4,-48,-55,-51,4,7,4,1
20:45:54:320268,33,11,13,8,0,2,15,32
20:45:54:321171,33,11,13,8,0,2,15,32
20:45:54:327069,-13,-27,15,21,-12,-7,-7,-14
20:45:54:334593,-1,-35,0,1,5,-8,-8,13
20:45:54:342169,-1,-35,0,1,5,-8,-8,13
20:45:54:349636,-3,4,-16,-17,0,-6,-33,7
20:45:54:357851,-7,-8,9,-1,-1,-2,-1,3
20:45:54:358598,-7,-8,9,-1,-1,-2,-1,3
20:45:54:364673,12,69,20,16,-4,-5,9,-20
20:45:54:380308,5,-6,-27,-21,0,2,6,8
20:45:54:381178,5,-6,-27,-21,0,2,6,8
20:45:54:387089,-1,-48,-7,0,4,-1,1,1
20:45:54:394618,-7,-19,-16,-62,-13,-5,14,-1
20:45:54:402201,-7,-19,-16,-62,-13,-5,14,-1
20:45:54:409619,14,-4,26,51,0,-1,14,-11
20:45:54:417842,-12,-12,-9,2,3,0,-15,-2
20:45:54:418631,-12,-12,-9,2,3,0,-15,-2
20:45:54:424654,6,10,10,-11,4,-3,13,24
20:45:54:440345,-6,16,-2,-26,-16,0,-11,-13
20:45:54:441162,-6,16,-2,-26,-16,0,-11,-13
20:45:54:455319,-15,17,44,15,1,0,9,-14
20:45:54:456038,-17,1,17,1,6,2,14,-14
20:45:54:462188,-17,1,17,1,6,2,14,-14
20:45:54:469599,4,-3,-6,-4,-7,1,8,13
20:45:54:477850,-29,-22,3,6,11,7,4,5
20:45:54:478652,-29,-22,3,6,11,7,4,5
20:45:54:484606,-14,-48,-31,-70,-1,4,-14,-10
20:45:54:500296,19,-11,-14,-46,-15,1,11,6
20:45:54:501167,19,-11,-14,-46,-15,1,11,6
20:45:54:507130,5,11,13,9,-12,-11,-20,10
20:45:54:514610,-43,23,-22,39,16,1,-1,-14
20:45:54:522195,-43,23,-22,39,16,1,-1,-14
20:45:54:529600,-15,-4,-20,18,-2,2,16,4
20:45:54:537813,63,-13,9,37,3,-3,-8,21
20:45:54:538599,63,-13,9,37,3,-3,-8,21
20:45:54:544636,9,-45,-1,8,-3,-3,-11,7
20:45:54:560319,-13,-79,6,1,-1,3,-1,8
20:45:54:561195,-13,-79,6,1,-1,3,-1,8
20:45:54:567108,-5,-24,-2,17,7,-2,-4,-12
20:45:54:574604,-4,9,13,22,9,3,-8,-4
20:45:54:582204,-4,9,13,22,9,3,-8,-4
20:45:54:589650,26,23,15,-7,9,1,-13,-19
20:45:54:597803,-23,38,-14,3,1,-2,4,-2
20:45:54:598593,-23,38,-14,3,1,-2,4,-2
20:45:54:604569,-7,3,8,5,-22,0,37,29
20:45:54:620268,32,15,-33,-17,14,-3,-18,-24
20:45:54:621175,32,15,-33,-17,14,-3,-18,-24
20:45:54:627211,-19,-1,-11,-19,-6,-8,-21,-11
20:45:54:642771,-1,-1,3,-17,-9,-4,-2,-19
20:45:54:643604,-1,-1,3,-17,-9,-4,-2,-19
20:45:54:649606,3,22,15,6,12,6,-3,0
20:45:54:657800,2,25,-8,-10,6,0,-13,-12
20:45:54:658585,2,25,-8,-10,6,0,-13,-12
20:45:54:672109,-7,-1,12,35,-1,-1,-2,-5
20:45:54:680268,-7,-48,-1,29,-5,-4,-9,0
20:45:54:681085,-7,-48,-1,29,-5,-4,-9,0
20:45:54:687174,-9,17,-5,-4,-5,2,-34,5
20:45:54:702796,-1,1,-4,2,6,2,-16,-10
20:45:54:703651,-1,1,-4,2,6,2,-16,-10
20:45:54:709635,-12,-38,-7,12,-2,-7,4,-18
20:45:54:717785,9,12,15,-9,-13,2,11,8
20:45:54:718585,9,12,15,-9,-13,2,11,8
20:45:54:732096,9,9,9,8,3,4,5,15
20:45:54:740292,-5,6,14,20,10,4,11,11
20:45:54:741186,-5,6,14,20,10,4,11,11
20:45:54:747091,-6,27,-6,-5,-6,-9,-4,-3
20:45:54:762805,2,-18,0,-25,-7,-9,7,11
20:45:54:763614,2,-18,0,-25,-7,-9,7,11
20:45:54:777772,6,-9,5,21,8,1,10,4
20:45:54:778539,-27,-26,-18,-11,-8,1,11,-4
20:45:54:784687,-27,-26,-18,-11,-8,1,11,-4
20:45:54:792101,-16,31,16,14,9,2,10,1
20:45:54:800322,-2,6,-14,-34,-15,-4,-13,-1
20:45:54:801169,-2,6,-14,-34,-15,-4,-13,-1
20:45:54:807112,-19,-98,-35,-21,4,1,1,6
20:45:54:822811,-26,-24,-9,32,16,4,1,5
20:45:54:823631,-26,-24,-9,32,16,4,1,5
20:45:54:829656,6,-16,-8,-15,-1,-1,-6,-10
20:45:54:837816,4,1,3,16,8,0,4,-3
20:45:54:838663,4,1,3,16,8,0,4,-3
20:45:54:852106,-13,-50,-30,-106,-12,-1,-4,-2
20:45:54:860302,25,0,17,-31,-8,-2,-2,9
20:45:54:861177,25,0,17,-31,-8,-2,-2,9
20:45:54:867103,-2,31,17,31,5,2,-2,-14
20:45:54:882813,-7,-17,-27,-2,-5,-4,-11,14
20:45:54:883637,-7,-17,-27,-2,-5,-4,-11,14
20:45:54:889612,-16,15,-1,5,3,1,-27,-13
20:45:54:897815,5,20,6,15,7,5,2,-7
20:45:54:898622,5,20,6,15,7,5,2,-7
20:45:54:912123,15,11,-1,-59,-24,-7,10,9
20:45:54:920320,8,23,-37,-18,-3,-2,-2,6
20:45:54:921178,8,23,-37,-18,-3,-2,-2,6
20:45:54:927095,5,26,16,40,10,2,-2,-6
20:45:54:942571,-11,-8,-14,2,-10,0,7,7
20:45:54:950305,-11,-8,-14,2,-10,0,7,7
20:45:54:951155,30,89,8,6,-5,-10,-9,20
20:45:54:957823,-23,-8,-3,0,-7,-20,-13,-79
20:45:54:958616,-23,-8,-3,0,-7,-20,-13,-79
20:45:54:972125,-12,3,34,14,-3,-3,18,-53
20:45:54:980290,11,-33,6,-6,1,11,2,30
20:45:54:981185,11,-33,6,-6,1,11,2,30
20:45:54:987094,8,10,-10,11,1,0,12,15
20:45:55:2791,9,-6,19,-4,-7,-1,-15,12
20:45:55:3601,9,-6,19,-4,-7,-1,-15,12
20:45:55:9593,8,-8,-41,5,5,3,2,51
20:45:55:17800,0,-12,3,5,-2,-1,48,-70
20:45:55:18620,0,-12,3,5,-2,-1,48,-70
20:45:55:32191,-46,10,81,11,-2,-53,-49,58
20:45:55:40281,-18,44,4,-16,-2,2,-6,-53
20:45:55:41172,-18,44,4,-16,-2,2,-6,-53
20:45:55:47070,18,-20,-28,11,-3,20,-4,28
20:45:55:62801,-46,19,-1,-3,1,-14,-24,-66
20:45:55:63606,-46,19,-1,-3,1,-14,-24,-66
20:45:55:69648,18,-7,-9,-3,-7,-1,4,25
20:45:55:77196,23,-15,-17,3,2,10,-3,40
20:45:55:84628,23,-15,-17,3,2,10,-3,40
20:45:55:92108,-9,-12,-12,3,15,7,13,-19
20:45:55:100310,17,6,14,-6,-6,-2,2,31
20:45:55:101164,17,6,14,-6,-6,-2,2,31
20:45:55:107081,4,-21,-26,15,-5,5,8,-16
20:45:55:122804,7,20,38,23,4,0,-7,21
20:45:55:123616,7,20,38,23,4,0,-7,21
20:45:55:129590,3,10,-22,-9,-9,1,-2,-38
20:45:55:137081,1,-6,28,6,6,4,5,36
20:45:55:144668,1,-6,28,6,6,4,5,36
20:45:55:152096,-6,-32,-7,-16,-2,2,2,-27
20:45:55:160347,-6,-32,-7,-16,-2,2,2,-27
20:45:55:161185,11,-1,0,1,-3,1,4,28
20:45:55:167096,1,25,20,16,6,6,1,-26
20:45:55:182854,1,25,20,16,6,6,1,-26
20:45:55:183626,-1,-5,-18,-10,-3,-1,-5,11
20:45:55:189601,-4,-16,11,-4,-5,-3,3,11
20:45:55:205301,-4,-16,11,-4,-5,-3,3,11
20:45:55:206173,6,-15,-6,-1,1,-1,-4,13
20:45:55:212079,6,-16,-6,-7,0,3,-11,3
20:45:55:220313,6,-16,-6,-7,0,3,-11,3
20:45:55:221170,-1,8,-2,0,-1,-4,1,3
20:45:55:227084,-4,-15,-9,-2,4,1,0,-10
20:45:55:242803,-4,-15,-9,-2,4,1,0,-10
20:45:55:243602,-8,-35,-16,-3,-6,-2,-1,0
20:45:55:249583,-1,33,-44,-12,-1,0,-3,0
20:45:55:265313,-1,33,-44,-12,-1,0,-3,0
20:45:55:266185,1,32,24,6,3,-3,-4,2
20:45:55:272085,0,15,25,9,5,-1,-1,-12
20:45:55:280744,0,15,25,9,5,-1,-1,-12
20:45:55:287753,11,-2,28,7,-1,-2,-2,11
20:45:55:288565,-13,-8,8,-5,-8,-5,-5,-27
20:45:55:302811,-13,-8,8,-5,-8,-5,-5,-27
20:45:55:303596,5,10,6,4,3,5,29,31
20:45:55:309592,16,13,-14,-14,-6,-1,-1,33
20:45:55:325299,16,13,-14,-14,-6,-1,-1,33
20:45:55:326079,7,25,3,6,2,7,3,6
20:45:55:332183,-3,-4,79,-2,-5,-4,2,-2
20:45:55:340295,-3,-4,79,-2,-5,-4,2,-2
20:45:55:341179,1,-10,5,2,-3,-3,-8,-17
20:45:55:347095,3,9,-26,-24,7,4,-1,-19
20:45:55:362841,3,9,-26,-24,7,4,-1,-19
20:45:55:363607,-4,5,32,-1,-10,-9,-8,-9
20:45:55:369655,-6,-5,16,-6,-8,-12,-4,-42
20:45:55:385294,-6,-5,16,-6,-8,-12,-4,-42
20:45:55:386084,14,-14,-45,-12,8,5,15,18
20:45:55:392096,-49,-45,-9,-10,-6,-2,-4,-14
20:45:55:400286,-49,-45,-9,-10,-6,-2,-4,-14
20:45:55:401164,-3,14,-1,-9,-9,-6,-10,-14
20:45:55:407046,-5,8,-18,12,5,5,4,24
20:45:55:422779,-5,8,-18,12,5,5,4,24
20:45:55:423594,-18,-14,-17,-5,-8,-8,-10,-3
20:45:55:429618,35,12,-10,0,1,0,-3,7
20:45:55:445336,35,12,-10,0,1,0,-3,7
20:45:55:446189,23,6,78,33,3,2,-10,5
20:45:55:452125,11,-4,4,-7,-7,-9,-9,-33
20:45:55:460279,11,-4,4,-7,-7,-9,-9,-33
20:45:55:461104,10,-2,-13,-3,4,0,-6,-18
20:45:55:467185,-12,-32,-40,7,8,5,-2,0
20:45:55:482852,-12,-32,-40,7,8,5,-2,0
20:45:55:483616,25,-4,-19,-12,-5,-7,-5,-2
20:45:55:489609,-29,5,-15,2,1,5,11,12
20:45:55:505338,-29,5,-15,2,1,5,11,12
20:45:55:506172,-7,-11,-10,-1,0,3,1,5
20:45:55:512101,-8,8,14,11,-7,-2,2,6
20:45:55:520337,-8,8,14,11,-7,-2,2,6
20:45:55:521177,-13,-11,-21,11,13,-1,-8,0
20:45:55:527109,9,2,8,-7,7,-4,0,1
20:45:55:542857,9,2,8,-7,7,-4,0,1
20:45:55:543635,-16,4,-15,-15,1,1,4,0
20:45:55:549626,15,-11,6,8,-16,-8,1,7
20:45:55:565323,15,-11,6,8,-16,-8,1,7
20:45:55:566179,2,-4,0,-5,-1,1,5,3
20:45:55:572095,4,0,-19,-6,0,5,9,-1
20:45:55:580353,4,0,-19,-6,0,5,9,-1
20:45:55:581166,-18,-6,-6,-7,-3,4,-4,-9
20:45:55:603468,14,57,15,6,11,2,0,6
20:45:55:604266,14,57,15,6,11,2,0,6
20:45:55:605090,1,-3,-10,-9,-10,-2,7,8
20:45:55:609608,4,-17,0,0,2,7,-12,1
20:45:55:625322,4,-17,0,0,2,7,-12,1
20:45:55:626160,-23,-1,7,-10,-12,-9,-3,-8
20:45:55:632177,-11,-5,4,5,-2,-3,-10,2
20:45:55:640324,-11,-5,4,5,-2,-3,-10,2
20:45:55:641187,-15,-5,-8,-1,1,1,1,-6
20:45:55:654621,-9,-18,13,4,-3,0,3,21
20:45:55:662779,-9,-18,13,4,-3,0,3,21
20:45:55:663603,-4,8,-15,-2,3,3,-4,0
20:45:55:669636,-3,-3,-10,0,0,0,3,1
20:45:55:685324,-3,-3,-10,0,0,0,3,1
20:45:55:686100,5,-27,5,-3,-4,-4,-2,-6
20:45:55:692114,8,-3,5,13,0,-3,0,-1
20:45:55:700293,8,-3,5,13,0,-3,0,-1
20:45:55:701075,-18,-20,-12,0,-5,-6,-5,-7
20:45:55:714627,12,2,-7,3,0,-1,-2,1
20:45:55:722794,12,2,-7,3,0,-1,-2,1
20:45:55:723568,5,13,-3,1,2,1,0,1
20:45:55:729596,6,4,8,1,-1,1,3,-5
20:45:55:745362,6,4,8,1,-1,1,3,-5
20:45:55:746180,-4,2,3,-9,-2,2,-2,0
20:45:55:752095,1,-2,-3,6,-2,1,0,-4
20:45:55:760286,1,-2,-3,6,-2,1,0,-4
20:45:55:761071,-14,-2,-3,1,0,-2,5,-8
20:45:55:774657,-13,-19,-9,-9,-1,-3,0,2
20:45:55:782857,-13,-19,-9,-9,-1,-3,0,2
20:45:55:783621,22,11,-2,2,0,-1,-3,18
20:45:55:789645,-1,-6,-9,-10,-3,-3,-3,2
20:45:55:805362,-1,-6,-9,-10,-3,-3,-3,2
20:45:55:806191,2,-1,-1,1,-3,-2,-7,4
20:45:55:812101,17,53,3,-3,2,-2,5,-4
20:45:55:820324,17,53,3,-3,2,-2,5,-4
20:45:55:821071,-9,0,-4,2,-1,-1,-3,-5
20:45:55:834577,-5,-9,-5,-4,-4,-3,-6,-4
20:45:55:842856,-5,-9,-5,-4,-4,-3,-6,-4
20:45:55:843618,7,-6,-18,-59,-6,2,0,-8
20:45:55:849611,2,-6,3,6,1,0,1,-7
20:45:55:865316,2,-6,3,6,1,0,1,-7
20:45:55:866163,-4,-12,3,35,4,-4,-4,-5
20:45:55:872079,8,-6,-4,-12,-2,-1,0,-1
20:45:55:880336,8,-6,-4,-12,-2,-1,0,-1
20:45:55:881181,-21,-6,2,5,0,-2,-1,-5
20:45:55:894621,-8,-5,-4,3,0,-2,1,1
20:45:55:902842,-8,-5,-4,3,0,-2,1,1
20:45:55:903614,14,10,6,0,0,-1,1,-1
20:45:55:909645,2,-6,-3,4,0,0,-1,-2
20:45:55:925366,2,-6,-3,4,0,0,-1,-2
20:45:55:926180,-13,0,2,2,0,-2,1,-2
20:45:55:932088,-3,17,-2,-3,1,1,-1,-2
20:45:55:940342,-3,17,-2,-3,1,1,-1,-2
20:45:55:941173,-7,36,11,11,2,2,1,-2
20:45:55:954647,-6,-17,-2,-4,-3,-2,-2,-2
20:45:55:962849,-6,-17,-2,-4,-3,-2,-2,-2
20:45:55:963634,1,-14,-3,2,-1,-3,-2,-3
20:45:55:969599,-8,-17,-4,-7,-2,-2,-3,-3
20:45:55:985301,-8,-17,-4,-7,-2,-2,-3,-3
20:45:55:986168,14,-2,2,1,-2,-3,-2,2
20:45:55:992074,8,20,-1,1,0,1,-1,0
20:45:56:333,8,20,-1,1,0,1,-1,0
20:45:56:1178,12,-1,-3,-3,-2,-1,0,-1
20:45:56:14586,-8,-45,-2,-1,-1,-3,-1,3
20:45:56:22807,-8,-45,-2,-1,-1,-3,-1,3
20:45:56:23623,-25,20,0,0,0,1,0,-3
20:45:56:29624,-8,-7,0,-3,-2,-1,0,-4
20:45:56:45314,-8,-7,0,-3,-2,-1,0,-4
20:45:56:46107,12,-8,-4,-2,-2,-3,0,2
20:45:56:52109,-11,31,1,-4,-2,0,0,-3
20:45:56:60333,-11,31,1,-4,-2,0,0,-3
20:45:56:61199,7,5,0,-1,0,0,-1,-2
20:45:56:74678,-28,-13,-1,0,0,-2,-2,-5
20:45:56:82793,-28,-13,-1,0,0,-2,-2,-5
20:45:56:83631,5,-5,-2,1,0,2,-1,1
20:45:56:89606,4,-48,-7,-4,-4,-4,-4,2
