Time,EMG1,EMG2,EMG3,EMG4,EMG5,EMG6,EMG7,EMG8
20:46:39:939673,-6,1,-2,-3,0,-1,-2,1
20:46:39:947804,-6,1,-2,-3,0,-1,-2,1
20:46:39:948612,-1,-5,1,-1,0,0,-5,0
20:46:39:954591,6,3,1,0,-3,0,-4,0
20:46:39:970303,6,3,1,0,-3,0,-4,0
20:46:39:971084,-2,-1,-1,-1,-1,-2,2,-2
20:46:39:977139,-14,-2,-2,-1,0,-1,-4,-2
20:46:39:985320,-14,-2,-2,-1,0,-1,-4,-2
20:46:39:986148,2,2,0,0,0,0,-9,0
20:46:39:999646,1,-1,1,-1,-1,2,13,0
20:46:40:7804,1,-1,1,-1,-1,2,13,0
20:46:40:8582,-5,-2,-3,-1,-2,1,17,-1
20:46:40:14640,3,1,0,0,-1,-2,-8,0
20:46:40:30329,3,1,0,0,-1,-2,-8,0
20:46:40:31099,-3,0,1,-1,-3,-3,-15,-3
20:46:40:37137,-6,-1,1,0,0,-2,-4,-2
20:46:40:45291,-6,-1,1,0,0,-2,-4,-2
20:46:40:46143,-7,-1,-1,-2,-1,-2,-8,0
20:46:40:59648,2,-2,-2,-4,-3,0,6,-1
20:46:40:67802,2,-2,-2,-4,-3,0,6,-1
20:46:40:68584,3,-3,0,-1,1,-1,-4,-1
20:46:40:74634,3,-1,-2,1,-1,-1,-7,-2
20:46:40:90382,3,-1,-2,1,-1,-1,-7,-2
20:46:40:91128,-1,-1,-1,0,-3,-1,4,-1
20:46:40:97142,-2,-1,0,0,-2,-3,7,-2
20:46:40:105311,-2,-1,0,0,-2,-3,7,-2
20:46:40:106084,4,-1,-2,-1,0,-3,-10,-2
20:46:40:119593,4,0,1,-1,0,0,-11,-2
20:46:40:127906,4,0,1,-1,0,0,-11,-2
20:46:40:128642,-3,-1,1,0,-1,-2,-3,0
20:46:40:134640,6,4,-1,-2,-1,-2,5,1
20:46:40:150387,6,4,-1,-2,-1,-2,5,1
20:46:40:151149,-1,0,-2,-2,-1,0,1,-2
20:46:40:157127,0,-1,-2,-2,0,-1,0,-2
20:46:40:165343,0,-1,-2,-2,0,-1,0,-2
20:46:40:166078,0,-3,1,2,1,-2,-8,0
20:46:40:179593,2,-1,-1,-1,-1,-1,-4,0
20:46:40:187843,2,-1,-1,-1,-1,-1,-4,0
20:46:40:188650,3,0,-3,-1,-2,1,2,0
20:46:40:194606,-8,-4,-3,-1,-4,-1,0,-1
20:46:40:210324,-8,-4,-3,-1,-4,-1,0,-1
20:46:40:211133,-1,0,-1,0,-2,-2,-6,0
20:46:40:217115,0,-3,-1,0,-2,-1,1,0
20:46:40:225354,0,-3,-1,0,-2,-1,1,0
20:46:40:226134,-2,-3,-1,-2,0,1,10,-2
20:46:40:239605,0,0,-1,0,-3,0,-8,-4
20:46:40:247851,0,0,-1,0,-3,0,-8,-4
20:46:40:248646,-6,-2,-1,-1,0,-3,-7,3
20:46:40:254586,-2,-2,-6,-10,0,-1,-5,-1
20:46:40:270323,-2,-2,-6,-10,0,-1,-5,-1
20:46:40:271109,0,4,17,-3,0,-1,-14,-3
20:46:40:277097,-3,-2,-14,-8,0,0,-6,1
20:46:40:285311,-3,-2,-14,-8,0,0,-6,1
20:46:40:286130,0,-2,-4,15,-7,-3,-3,-3
20:46:40:299600,-2,-1,3,-6,-6,0,1,0
20:46:40:307900,-2,-1,3,-6,-6,0,1,0
20:46:40:308632,5,1,27,22,6,2,2,10
20:46:40:314587,-2,1,9,11,-4,-2,11,-26
20:46:40:330348,-2,1,9,11,-4,-2,11,-26
20:46:40:331105,12,-2,-43,-9,8,6,4,7
20:46:40:337104,-2,-2,13,11,0,-3,-1,7
20:46:40:345331,-2,-2,13,11,0,-3,-1,7
20:46:40:346134,-5,-1,-3,2,-7,-6,8,-3
20:46:40:359575,0,-1,-20,2,3,3,-10,1
20:46:40:367822,0,-1,-20,2,3,3,-10,1
20:46:40:368619,-6,-7,21,4,2,-1,1,-2
20:46:40:374601,-1,3,9,-1,-2,-3,3,0
20:46:40:390337,-1,3,9,-1,-2,-3,3,0
20:46:40:391137,-1,-2,-36,-27,0,0,4,-6
20:46:40:397067,1,-6,-18,-11,2,0,5,3
20:46:40:405334,1,-6,-18,-11,2,0,5,3
20:46:40:406114,-3,0,1,-1,-3,-2,-8,-1
20:46:40:419670,-2,0,8,1,8,5,13,5
20:46:40:427823,-2,0,8,1,8,5,13,5
20:46:40:428616,2,5,16,2,-8,-6,0,-27
20:46:40:442121,0,1,22,3,-3,1,3,4
20:46:40:450342,0,1,22,3,-3,1,3,4
20:46:40:451093,9,-2,-5,-6,0,1,1,4
20:46:40:457157,-1,-1,-37,-12,-5,-4,-9,-8
20:46:40:465302,-1,-1,-37,-12,-5,-4,-9,-8
20:46:40:466108,-7,-2,-19,-10,-3,-2,-2,0
20:46:40:479687,-1,-4,-30,-7,1,-2,0,10
20:46:40:487820,-1,-4,-30,-7,1,-2,0,10
20:46:40:488599,-4,7,15,13,-3,-1,-3,0
20:46:40:494560,-6,-11,5,4,-4,-3,-6,-3
20:46:40:510313,-6,-11,5,4,-4,-3,-6,-3
20:46:40:511083,0,3,28,-6,0,1,2,-1
20:46:40:517784,6,17,48,27,8,3,-5,1
20:46:40:524655,6,17,48,27,8,3,-5,1
20:46:40:532146,-8,-5,-22,-24,-6,-5,0,2
20:46:40:539626,-2,-3,12,0,-4,-3,-6,-1
20:46:40:547846,-2,-3,12,0,-4,-3,-6,-1
20:46:40:548612,-3,3,-7,-4,2,2,1,0
20:46:40:562171,-1,-1,-2,-2,-4,-1,-3,-2
20:46:40:570312,-1,-1,-2,-2,-4,-1,-3,-2
20:46:40:571116,-3,-1,-10,-1,2,-1,1,-1
20:46:40:577056,-4,-5,8,-7,-9,-7,-2,-2
20:46:40:584641,-4,-5,8,-7,-9,-7,-2,-2
20:46:40:592102,0,1,17,11,7,1,-2,-1
20:46:40:599591,0,-4,-33,-8,1,-1,-2,0
20:46:40:607844,0,-4,-33,-8,1,-1,-2,0
20:46:40:608616,-4,-5,1,1,-3,-3,-9,-2
20:46:40:622094,0,1,-2,3,-2,2,14,4
20:46:40:630365,0,1,-2,3,-2,2,14,4
20:46:40:631118,-7,-25,-41,5,-6,-3,0,-1
20:46:40:637138,-4,3,-15,-23,1,-1,-4,-4
20:46:40:644699,-4,3,-15,-23,1,-1,-4,-4
20:46:40:652132,5,4,1,9,14,5,0,3
20:46:40:659598,-4,-16,-22,-1,-10,-6,0,-6
20:46:40:667857,-4,-16,-22,-1,-10,-6,0,-6
20:46:40:668658,0,1,18,-5,-5,-4,1,-9
20:46:40:682105,1,5,10,8,4,-1,2,1
20:46:40:690340,1,5,10,8,4,-1,2,1
20:46:40:691135,1,0,12,4,-3,-1,-1,-1
20:46:40:697153,-4,0,5,-6,-1,0,-1,-18
20:46:40:704687,-4,0,5,-6,-1,0,-1,-18
20:46:40:712127,2,3,-2,2,-4,0,1,-2
20:46:40:719644,2,-6,-18,-3,2,0,-2,34
20:46:40:727887,2,-6,-18,-3,2,0,-2,34
20:46:40:728592,7,18,20,9,2,2,-5,-26
20:46:40:742134,-5,-3,49,34,-10,-6,-7,-12
20:46:40:750357,-5,-3,49,34,-10,-6,-7,-12
20:46:40:751152,-4,0,29,30,8,0,1,13
20:46:40:757170,0,3,-4,-13,0,-1,-1,5
20:46:40:764643,0,3,-4,-13,0,-1,-1,5
20:46:40:772149,1,21,-23,-5,-1,0,1,3
20:46:40:779666,-1,22,3,-12,-2,-2,-3,-2
20:46:40:787819,-1,22,3,-12,-2,-2,-3,-2
20:46:40:788612,-10,-21,-11,-19,-7,-2,-2,-6
20:46:40:802128,-2,-1,-3,-10,2,0,-4,-16
20:46:40:810318,-2,-1,-3,-10,2,0,-4,-16
20:46:40:811092,0,-2,-3,-10,-7,-3,-8,9
20:46:40:817176,-3,-3,-5,5,2,2,13,10
20:46:40:824659,-3,-3,-5,5,2,2,13,10
20:46:40:832092,0,-9,-16,-11,-3,0,-1,25
20:46:40:839615,-4,-2,-4,0,0,2,-6,-3
20:46:40:847855,-4,-2,-4,0,0,2,-6,-3
20:46:40:848645,-15,-10,-25,-8,-2,-2,-4,-47
20:46:40:862134,0,-6,-76,-15,-3,-1,-3,-7
20:46:40:870382,0,-6,-76,-15,-3,-1,-3,-7
20:46:40:871121,-1,1,30,6,-3,-3,-1,4
20:46:40:877081,-10,6,26,12,0,0,-5,1
20:46:40:884684,-10,6,26,12,0,0,-5,1
20:46:40:892094,7,-4,-8,-5,1,-2,-7,-31
20:46:40:899631,11,2,14,-2,2,0,-1,-10
20:46:40:907831,11,2,14,-2,2,0,-1,-10
20:46:40:908616,8,6,14,-6,-2,0,6,42
20:46:40:922105,-1,0,3,2,2,3,-5,7
20:46:40:930368,-1,0,3,2,2,3,-5,7
20:46:40:931116,-14,-7,-12,-7,-8,-2,5,0
20:46:40:937122,-2,-11,5,2,5,1,-1,17
20:46:40:944672,-2,-11,5,2,5,1,-1,17
20:46:40:952167,9,-3,-13,-6,-2,-2,-1,10
20:46:40:968581,5,4,37,11,-2,-1,-3,-9
20:46:40:969311,5,4,37,11,-2,-1,-3,-9
20:46:40:970093,-11,-7,16,-2,-4,-4,2,-3
20:46:40:982122,-1,-7,-17,0,-5,-4,-3,-3
20:46:40:990421,-1,-7,-17,0,-5,-4,-3,-3
20:46:40:991122,1,7,-5,3,6,4,1,-2
20:46:40:997109,-2,0,14,-8,-7,-5,-1,-4
20:46:41:4680,-2,0,14,-8,-7,-5,-1,-4
20:46:41:12148,5,2,-1,-3,-7,-3,-10,8
20:46:41:19626,-1,-2,-6,0,2,0,4,-6
20:46:41:27866,-1,-2,-6,0,2,0,4,-6
20:46:41:28640,-2,-1,-5,-3,3,-1,-3,-6
20:46:41:42128,-3,-3,-3,24,-4,-3,-5,-5
20:46:41:50343,-3,-3,-3,24,-4,-3,-5,-5
20:46:41:51114,-1,0,-1,-6,-3,-2,4,0
20:46:41:57103,7,3,2,-1,-5,-3,-1,6
20:46:41:64681,7,3,2,-1,-5,-3,-1,6
20:46:41:72117,0,-1,-1,2,16,2,4,-3
20:46:41:79608,2,-5,-4,-3,0,-1,-3,-3
20:46:41:87809,2,-5,-4,-3,0,-1,-3,-3
20:46:41:88602,-3,-1,-2,-2,-6,-3,-2,0
20:46:41:102118,-6,-1,0,7,2,0,0,-2
20:46:41:110326,-6,-1,0,7,2,0,0,-2
20:46:41:111137,5,0,-4,0,-1,2,6,1
20:46:41:117162,2,1,-4,-13,-1,0,6,6
20:46:41:124632,2,1,-4,-13,-1,0,6,6
20:46:41:132142,0,-3,0,-1,-4,2,-15,-2
20:46:41:139647,2,-1,-6,-13,-2,-2,-4,-5
20:46:41:147809,2,-1,-6,-13,-2,-2,-4,-5
20:46:41:148589,6,0,0,5,1,-2,-5,-8
20:46:41:162146,-3,-2,-3,-8,-3,-1,-1,-2
20:46:41:170300,-3,-2,-3,-8,-3,-1,-1,-2
20:46:41:171101,-2,-4,-4,-3,-3,-1,2,0
20:46:41:177116,-2,-3,-1,-4,1,1,2,-2
20:46:41:184660,-2,-3,-1,-4,1,1,2,-2
20:46:41:192075,-3,-3,-4,-3,-3,0,-4,-2
20:46:41:199604,-4,-3,-1,1,3,2,-3,-1
20:46:41:207834,-4,-3,-1,1,3,2,-3,-1
20:46:41:208634,-7,-8,-2,-5,-11,-2,3,-3
20:46:41:222147,0,4,1,3,15,3,-1,0
20:46:41:230338,0,4,1,3,15,3,-1,0
20:46:41:231089,-2,1,-1,0,-6,-5,3,2
20:46:41:237094,-13,-12,-5,-11,-8,-2,-1,-5
20:46:41:252803,-13,-12,-5,-11,-8,-2,-1,-5
20:46:41:253589,0,1,-3,-3,-2,-1,1,-1
20:46:41:259634,10,5,1,1,4,-2,0,0
20:46:41:275290,10,5,1,1,4,-2,0,0
20:46:41:276085,-17,-2,-1,1,-1,-2,-2,1
20:46:41:282156,-2,-1,-3,-6,-7,-1,-2,-2
20:46:41:290307,-2,-1,-3,-6,-7,-1,-2,-2
20:46:41:291097,5,3,-1,-14,11,4,3,1
20:46:41:297143,-3,0,0,1,-5,-3,-3,0
20:46:41:304674,-3,0,0,1,-5,-3,-3,0
20:46:41:312077,4,-1,-5,2,-1,-3,-1,0
20:46:41:319615,9,1,-2,-3,-4,0,1,1
20:46:41:327834,9,1,-2,-3,-4,0,1,1
20:46:41:328623,-10,6,2,4,1,-1,-24,6
20:46:41:342129,-32,-20,-5,-4,-7,-3,14,0
20:46:41:350329,-32,-20,-5,-4,-7,-3,14,0
20:46:41:351118,21,7,-2,5,3,0,-9,1
20:46:41:357075,-1,4,0,-2,0,-3,-7,4
20:46:41:372811,-1,4,0,-2,0,-3,-7,4
20:46:41:373596,-9,-4,10,-10,-2,-3,1,-5
20:46:41:379648,8,8,18,8,3,-2,-9,-8
20:46:41:387831,8,8,18,8,3,-2,-9,-8
20:46:41:388618,-10,-21,-31,-25,-12,-5,-4,-10
20:46:41:402178,13,-26,-22,-5,-1,6,20,-1
20:46:41:418555,13,-26,-22,-5,-1,6,20,-1
20:46:41:419325,1,10,6,8,-1,1,15,7
20:46:41:420104,-2,19,7,10,6,1,3,10
20:46:41:424628,-2,19,7,10,6,1,3,10
20:46:41:432125,2,-1,-3,-11,-3,-2,8,-1
20:46:41:439646,0,-6,-1,8,-1,0,-8,2
20:46:41:447168,0,-6,-1,8,-1,0,-8,2
20:46:41:454600,-3,2,10,-2,-1,-1,5,3
20:46:41:462166,4,8,2,5,2,2,4,-1
20:46:41:470328,4,8,2,5,2,2,4,-1
20:46:41:471101,21,11,12,-5,-1,1,2,-3
20:46:41:485286,-34,-12,-9,-3,-6,-4,-12,-11
20:46:41:486125,-34,-12,-9,-3,-6,-4,-12,-11
20:46:41:492083,-18,-31,-5,3,0,1,-3,1
20:46:41:499583,2,9,-8,-10,-7,-2,-5,-4
20:46:41:507159,2,9,-8,-10,-7,-2,-5,-4
20:46:41:514567,6,-3,34,31,12,0,-1,1
20:46:41:530965,10,-12,-21,-14,-1,-3,3,-2
20:46:41:531772,10,-12,-21,-14,-1,-3,3,-2
20:46:41:532595,-3,7,1,-3,-4,-1,2,-2
20:46:41:545270,-15,3,-5,-8,4,2,-7,-2
20:46:41:546096,-15,3,-5,-8,4,2,-7,-2
20:46:41:552092,-9,-1,10,14,-8,-9,2,-6
20:46:41:559645,-1,3,-8,-1,-3,-1,-5,-2
20:46:41:567186,-1,3,-8,-1,-3,-1,-5,-2
20:46:41:574585,2,5,6,-6,-3,1,0,-5
20:46:41:582120,-6,-37,-14,0,-4,-2,-3,-10
20:46:41:590307,-6,-37,-14,0,-4,-2,-3,-10
20:46:41:591122,11,11,3,-10,-3,-2,7,4
20:46:41:605282,-5,92,3,0,4,3,-1,4
20:46:41:606132,-5,92,3,0,4,3,-1,4
20:46:41:612091,-27,-2,4,22,-2,5,24,4
20:46:41:619622,-12,-7,26,11,2,6,10,-2
20:46:41:627169,-12,-7,26,11,2,6,10,-2
20:46:41:634628,-5,6,-37,-6,4,4,9,-7
20:46:41:642092,-5,-26,5,15,-5,-2,0,3
20:46:41:650327,-5,-26,5,15,-5,-2,0,3
20:46:41:651111,-2,-19,-3,-23,-4,-1,-10,-2
20:46:41:665954,29,9,-8,17,5,-4,-19,17
20:46:41:666774,29,9,-8,17,5,-4,-19,17
20:46:41:672100,7,-39,-18,1,0,-7,-25,-6
20:46:41:679624,4,-12,-9,-24,-8,-1,26,-1
20:46:41:687188,4,-12,-9,-24,-8,-1,26,-1
20:46:41:694602,-3,35,40,31,9,2,-5,0
20:46:41:702112,-15,-39,10,-5,0,-6,-10,-15
20:46:41:710340,-15,-39,10,-5,0,-6,-10,-15
20:46:41:711147,7,-16,17,-1,-2,2,0,-6
20:46:41:725309,3,14,-36,-17,-5,2,-17,7
20:46:41:726158,3,14,-36,-17,-5,2,-17,7
20:46:41:732130,-15,1,-12,-38,-2,2,-1,2
20:46:41:739704,22,-13,12,-5,-4,-9,-4,-7
20:46:41:747146,22,-13,12,-5,-4,-9,-4,-7
20:46:41:754696,-1,4,-13,-10,-6,-5,-11,4
20:46:41:762103,0,-6,15,11,9,2,0,8
20:46:41:770303,0,-6,15,11,9,2,0,8
20:46:41:771098,11,5,-22,-9,-3,-6,-23,9
20:46:41:785265,20,76,30,18,4,3,7,-2
20:46:41:786108,20,76,30,18,4,3,7,-2
20:46:41:792135,3,-18,0,4,-6,-1,8,-10
20:46:41:799637,4,-19,-9,-2,-5,-2,2,-12
20:46:41:807176,4,-19,-9,-2,-5,-2,2,-12
20:46:41:814593,3,27,3,-6,2,4,18,-1
20:46:41:822165,14,3,38,-9,-7,-6,22,4
20:46:41:830312,14,3,38,-9,-7,-6,22,4
20:46:41:831098,-11,-64,-83,-18,-4,-1,-11,-10
20:46:41:845310,-6,-3,16,24,2,-1,-5,-6
20:46:41:846100,-6,-3,16,24,2,-1,-5,-6
20:46:41:852089,20,1,0,15,-2,-4,3,-4
20:46:41:859593,8,-17,-4,-9,-2,-4,-13,-9
20:46:41:867198,8,-17,-4,-9,-2,-4,-13,-9
20:46:41:874615,-5,27,-41,0,7,4,3,10
20:46:41:882110,0,1,-3,1,-7,-3,-13,2
20:46:41:890361,0,1,-3,1,-7,-3,-13,2
20:46:41:891132,13,14,14,9,2,-4,-14,3
20:46:41:905328,-33,-25,-28,3,2,-4,-13,-44
20:46:41:906134,-33,-25,-28,3,2,-4,-13,-44
20:46:41:912102,4,9,27,11,0,-4,-15,-12
20:46:41:919632,8,8,26,1,3,4,7,18
20:46:41:927180,8,8,26,1,3,4,7,18
20:46:41:934600,-4,-5,4,-5,-5,0,1,-13
20:46:41:942129,11,-9,11,4,1,0,-4,20
20:46:41:950335,11,-9,11,4,1,0,-4,20
20:46:41:951138,-1,4,29,-7,-2,-1,2,7
20:46:41:965316,-9,12,-19,-11,-4,-2,-24,15
20:46:41:966144,-9,12,-19,-11,-4,-2,-24,15
20:46:41:972121,11,-34,10,7,7,-4,-1,1
20:46:41:979590,-9,-33,-59,-30,-5,-1,16,9
20:46:41:987214,-9,-33,-59,-30,-5,-1,16,9
20:46:41:994601,-15,-18,16,-9,-6,1,5,2
20:46:42:2171,11,29,31,2,2,3,8,-28
20:46:42:10290,11,29,31,2,2,3,8,-28
20:46:42:11080,1,23,14,12,3,3,1,-16
20:46:42:25319,-5,8,-24,-63,-11,1,-1,2
20:46:42:26182,-5,8,-24,-63,-11,1,-1,2
20:46:42:32114,-14,-13,-73,-21,-5,-5,-28,-14
20:46:42:39632,7,8,10,36,7,11,16,20
20:46:42:47169,7,8,10,36,7,11,16,20
20:46:42:54665,-3,-59,-23,-17,-6,-3,-20,17
20:46:42:62139,-4,-5,1,-43,-11,-7,-4,-6
20:46:42:70333,-4,-5,1,-43,-11,-7,-4,-6
20:46:42:71113,3,24,30,15,2,-1,12,-7
20:46:42:85275,-1,-29,-13,24,9,0,-1,-10
20:46:42:86101,-1,-29,-13,24,9,0,-1,-10
20:46:42:92127,13,8,34,13,3,2,12,10
20:46:42:99650,-4,-11,-25,5,-8,-6,0,-7
20:46:42:107164,-4,-11,-25,5,-8,-6,0,-7
20:46:42:114596,16,12,-14,-20,1,5,14,-4
20:46:42:122110,-20,14,9,43,6,1,0,-8
20:46:42:130340,-20,14,9,43,6,1,0,-8
20:46:42:131099,-7,22,32,11,-4,0,21,9
20:46:42:145299,14,25,-4,17,-3,-7,-6,3
20:46:42:146110,14,25,-4,17,-3,-7,-6,3
20:46:42:152091,-11,12,13,5,5,-3,-35,-10
20:46:42:159608,-13,-3,-2,-1,6,-5,10,3
20:46:42:167162,-13,-3,-2,-1,6,-5,10,3
20:46:42:174620,-6,22,-26,-6,-6,0,38,21
20:46:42:182087,-11,-20,-13,-9,4,6,11,1
20:46:42:190331,-11,-20,-13,-9,4,6,11,1
20:46:42:191124,-13,-13,19,22,-4,-5,-14,-8
20:46:42:205305,-14,-12,-2,-32,-10,-4,-9,2
20:46:42:206134,-14,-12,-2,-32,-10,-4,-9,2
20:46:42:212123,-10,21,-1,-21,-5,-1,0,0
20:46:42:219616,11,-22,39,24,6,-1,-16,4
20:46:42:227218,11,-22,39,24,6,-1,-16,4
20:46:42:234634,-2,3,6,-11,11,3,-10,-8
20:46:42:242092,7,-9,15,-20,-11,-10,-27,5
20:46:42:250338,7,-9,15,-20,-11,-10,-27,5
20:46:42:251135,-6,10,-11,14,1,1,-11,12
20:46:42:265366,-5,6,-1,11,6,8,30,4
20:46:42:266146,-5,6,-1,11,6,8,30,4
20:46:42:272122,-17,-23,-36,-9,-3,-3,8,-4
20:46:42:279641,3,1,-33,4,0,0,10,6
20:46:42:287178,3,1,-33,4,0,0,10,6
20:46:42:294614,26,17,19,2,-2,-2,-12,-16
20:46:42:302145,-4,-22,-16,-13,-7,-6,-9,-19
20:46:42:310289,-4,-22,-16,-13,-7,-6,-9,-19
20:46:42:311073,33,-17,-6,8,-1,-4,14,23
20:46:42:325306,-13,47,34,-4,0,0,6,-6
20:46:42:326155,-13,47,34,-4,0,0,6,-6
20:46:42:332102,8,-10,-16,2,-4,-4,-13,5
20:46:42:339616,-23,-3,-20,14,7,1,3,-7
20:46:42:347176,-23,-3,-20,14,7,1,3,-7
20:46:42:354651,-9,12,20,23,4,3,14,-1
20:46:42:362124,20,16,31,-1,-8,-3,-17,-26
20:46:42:370343,20,16,31,-1,-8,-3,-17,-26
20:46:42:371120,-15,-19,12,-13,-1,5,22,-10
20:46:42:385309,3,16,17,3,1,2,37,26
20:46:42:386096,3,16,17,3,1,2,37,26
20:46:42:392141,14,-10,-23,-4,-1,-5,-20,0
20:46:42:407794,-18,-20,10,-2,-4,-3,-40,-2
20:46:42:408576,-18,-20,10,-2,-4,-3,-40,-2
20:46:42:414617,3,5,-13,-13,-1,-2,0,4
20:46:42:422118,0,27,4,-2,4,5,1,3
20:46:42:429664,0,27,4,-2,4,5,1,3
20:46:42:437160,-24,44,31,-7,-9,-5,-2,1
20:46:42:445285,9,-31,-15,1,-5,-7,-18,-6
20:46:42:446121,9,-31,-15,1,-5,-7,-18,-6
20:46:42:452091,-15,-39,2,4,2,2,-6,-23
20:46:42:467785,-14,-12,-18,-14,-8,-3,-1,1
20:46:42:468615,-14,-12,-18,-14,-8,-3,-1,1
20:46:42:474566,-3,-19,-33,-10,5,0,18,-4
20:46:42:482186,-12,9,-45,-20,-5,-1,-5,3
20:46:42:489656,-12,9,-45,-20,-5,-1,-5,3
20:46:42:497089,2,17,20,7,0,3,24,19
20:46:42:505290,36,22,27,8,-3,2,15,10
20:46:42:506132,36,22,27,8,-3,2,15,10
20:46:42:512111,-65,-35,-58,-5,5,1,-9,-30
20:46:42:527820,5,-38,20,2,0,-2,23,-5
20:46:42:528604,5,-38,20,2,0,-2,23,-5
20:46:42:534611,8,-31,18,24,-5,-4,-5,10
20:46:42:542092,7,-13,-43,-96,-3,5,-8,-7
20:46:42:549787,7,-13,-43,-96,-3,5,-8,-7
20:46:42:557104,16,9,33,-6,-6,-5,-4,0
20:46:42:565322,-7,70,26,24,-4,-5,5,2
20:46:42:566133,-7,70,26,24,-4,-5,5,2
20:46:42:572120,12,4,-43,-14,-3,-8,-30,-20
20:46:42:587817,-8,-10,13,16,2,0,-3,-37
20:46:42:588635,-8,-10,13,16,2,0,-3,-37
20:46:42:594588,2,-7,-21,9,4,8,9,14
20:46:42:602104,-24,-55,-54,-2,2,3,27,14
20:46:42:609688,-24,-55,-54,-2,2,3,27,14
20:46:42:617106,-9,29,-11,-15,-2,0,-12,-13
20:46:42:625259,14,-16,20,21,10,1,-7,1
20:46:42:626078,14,-16,20,21,10,1,-7,1
20:46:42:632113,10,50,24,23,7,-1,2,2
20:46:42:647836,0,-13,-26,-23,-10,-4,-10,0
20:46:42:648628,0,-13,-26,-23,-10,-4,-10,0
20:46:42:654639,9,-11,7,-31,2,1,1,8
20:46:42:662139,0,5,-7,16,5,2,7,18
20:46:42:669660,0,5,-7,16,5,2,7,18
20:46:42:677172,-16,-15,10,-4,-11,0,19,3
20:46:42:685326,-2,-24,-12,8,-3,-8,-24,0
20:46:42:686119,-2,-24,-12,8,-3,-8,-24,0
20:46:42:692063,9,4,-3,5,-4,-4,-4,4
20:46:42:707787,15,9,-2,-8,-4,-3,-8,0
20:46:42:708581,15,9,-2,-8,-4,-3,-8,0
20:46:42:714610,-16,-31,7,20,3,0,-17,-14
20:46:42:722123,12,-2,18,-20,-7,-4,-13,-11
20:46:42:729669,12,-2,18,-20,-7,-4,-13,-11
20:46:42:737086,11,0,4,-17,6,3,21,8
20:46:42:745293,-18,9,12,25,-3,-5,-12,-12
20:46:42:746107,-18,9,12,25,-3,-5,-12,-12
20:46:42:752091,9,2,-8,-9,0,-1,-6,2
20:46:42:767794,-8,3,41,21,2,-3,-8,-1
20:46:42:768614,-8,3,41,21,2,-3,-8,-1
20:46:42:782774,8,-32,11,9,-5,-5,-4,11
20:46:42:783619,2,30,20,5,0,1,-14,13
20:46:42:789610,2,30,20,5,0,1,-14,13
20:46:42:797132,-1,-8,16,-5,-4,-2,20,-24
20:46:42:805291,6,-9,-20,1,2,1,-3,-1
20:46:42:806152,6,-9,-20,1,2,1,-3,-1
20:46:42:812056,-20,-6,13,1,-4,-4,-4,4
20:46:42:827769,-6,-13,-18,12,5,-1,-5,-5
20:46:42:828588,-6,-13,-18,12,5,-1,-5,-5
20:46:42:834620,16,27,-11,-27,-9,-2,-10,-4
20:46:42:850262,9,-1,3,-9,1,5,14,9
20:46:42:851083,9,-1,3,-9,1,5,14,9
20:46:42:857138,-18,-11,-15,-4,3,1,-1,0
20:46:42:865267,3,2,-28,2,1,0,19,-3
20:46:42:866103,3,2,-28,2,1,0,19,-3
20:46:42:872154,-1,-6,-4,6,-6,-6,-14,-10
20:46:42:887809,11,1,7,-6,-4,-5,9,1
20:46:42:888590,11,1,7,-6,-4,-5,9,1
20:46:42:894621,-13,8,-9,3,2,3,-3,9
20:46:42:902117,-11,20,-16,0,0,-2,15,-13
20:46:42:909683,-11,20,-16,0,0,-2,15,-13
20:46:42:917093,1,-16,4,11,-3,-4,24,11
20:46:42:925303,-16,-7,10,-3,-4,-8,-33,-22
20:46:42:926109,-16,-7,10,-3,-4,-8,-33,-22
20:46:42:932089,6,-9,-6,9,0,-4,-25,2
20:46:42:947810,0,-9,4,-45,-8,-5,-1,3
20:46:42:948617,0,-9,4,-45,-8,-5,-1,3
20:46:42:954575,9,0,17,26,1,9,9,2
20:46:42:962092,9,38,6,21,1,-2,-16,7
20:46:42:969643,9,38,6,21,1,-2,-16,7
20:46:42:977096,-26,-29,1,9,0,-4,-13,1
20:46:42:985313,-13,-20,-47,-7,-1,0,2,-6
20:46:42:986132,-13,-20,-47,-7,-1,0,2,-6
20:46:42:992105,5,26,-18,-21,5,-1,-4,-2
20:46:43:7816,9,-7,0,-4,4,4,18,0
20:46:43:8617,9,-7,0,-4,4,4,18,0
20:46:43:14611,7,-15,-3,4,-4,-6,-1,-4
20:46:43:22128,9,-21,-20,13,-5,2,3,9
20:46:43:29708,9,-21,-20,13,-5,2,3,9
20:46:43:37097,-2,-10,-23,-7,2,0,-15,-1
20:46:43:45341,-1,24,22,8,9,7,18,10
20:46:43:46133,-1,24,22,8,9,7,18,10
20:46:43:59612,5,19,1,-5,-2,4,36,-8
20:46:43:67790,-8,-23,10,-6,-4,-3,38,-9
20:46:43:68675,-8,-23,10,-6,-4,-3,38,-9
20:46:43:74601,7,28,-1,1,3,-1,-18,8
20:46:43:82102,-4,5,-25,-9,-4,0,8,-11
20:46:43:89660,-4,5,-25,-9,-4,0,8,-11
20:46:43:97129,8,-30,-20,-20,-2,0,-5,-9
20:46:43:105281,20,4,-6,-8,2,-1,-41,5
20:46:43:106085,20,4,-6,-8,2,-1,-41,5
20:46:43:112122,-2,-1,18,18,-3,2,-14,-5
20:46:43:127830,-20,-21,-10,-18,-9,-6,-19,-11
20:46:43:128645,-20,-21,-10,-18,-9,-6,-19,-11
20:46:43:134626,-3,-6,29,-1,-2,-4,12,-8
20:46:43:142173,-5,-3,-3,9,1,-3,-10,7
20:46:43:149626,-5,-3,-3,9,1,-3,-10,7
20:46:43:157139,-1,5,12,6,0,2,7,-6
20:46:43:165290,1,5,13,8,3,-1,-11,3
20:46:43:166116,1,5,13,8,3,-1,-11,3
20:46:43:172161,-1,10,10,9,-7,-3,25,56
20:46:43:187815,2,20,16,1,-1,-7,-17,1
20:46:43:188581,2,20,16,1,-1,-7,-17,1
20:46:43:194644,-8,-1,-44,-11,-4,-4,-18,-19
20:46:43:202139,1,0,22,1,-6,4,0,6
20:46:43:209675,1,0,22,1,-6,4,0,6
20:46:43:217104,-1,3,-23,-24,8,1,-6,4
20:46:43:225297,16,-20,27,0,-2,-3,-12,-12
20:46:43:226109,16,-20,27,0,-2,-3,-12,-12
20:46:43:232105,-26,14,18,-3,-5,-5,2,11
20:46:43:247826,17,-1,9,9,2,4,12,-4
20:46:43:248691,17,-1,9,9,2,4,12,-4
20:46:43:254563,9,-5,19,0,8,0,-14,-9
20:46:43:262073,-25,-11,-30,-9,-6,-5,9,21
20:46:43:269642,-25,-11,-30,-9,-6,-5,9,21
20:46:43:277134,-7,-20,-6,7,-2,2,9,-1
20:46:43:285329,-7,-20,-6,7,-2,2,9,-1
20:46:43:286131,-5,12,-33,7,1,3,-7,-3
20:46:43:292097,13,5,-3,2,0,3,-9,-27
20:46:43:307828,13,5,-3,2,0,3,-9,-27
20:46:43:308608,-9,26,29,8,2,0,21,1
20:46:43:314599,5,-2,7,4,-5,2,-7,-22
20:46:43:338450,5,-2,7,4,-5,2,-7,-22
20:46:43:339229,10,-13,4,-16,-10,-5,-7,16
20:46:43:340078,8,26,-25,-23,-6,-4,26,23
20:46:43:345320,8,26,-25,-23,-6,-4,26,23
20:46:43:346085,-26,-1,-31,10,10,-5,-42,-15
20:46:43:359608,-9,-14,-3,3,-1,-3,-4,-64
20:46:43:367862,-9,-14,-3,3,-1,-3,-4,-64
20:46:43:368630,7,-7,1,7,-3,4,17,-1
20:46:43:374613,10,-33,-3,7,6,-1,0,9
20:46:43:390341,10,-33,-3,7,6,-1,0,9
20:46:43:391130,-23,19,44,2,-1,0,-11,-22
20:46:43:397131,-3,-10,-20,-3,-4,3,-9,-5
20:46:43:405321,-3,-10,-20,-3,-4,3,-9,-5
20:46:43:406102,7,-20,-18,-10,-4,-3,-32,5
20:46:43:419621,-3,11,-1,6,-1,-3,-14,12
20:46:43:427834,-3,11,-1,6,-1,-3,-14,12
20:46:43:428632,-22,-26,-20,-10,1,4,3,-36
20:46:43:434645,-7,9,17,2,-2,0,-16,-32
20:46:43:450346,-7,9,17,2,-2,0,-16,-32
20:46:43:451149,-2,-17,11,0,4,3,31,40
20:46:43:457084,-7,-3,9,4,1,0,18,43
20:46:43:465403,-7,-3,9,4,1,0,18,43
20:46:43:466159,-22,15,-25,8,-3,1,3,2
20:46:43:479603,7,1,-34,-15,-3,-6,-15,4
20:46:43:487841,7,1,-34,-15,-3,-6,-15,4
20:46:43:488639,-7,36,-22,-23,1,0,26,-2
20:46:43:494591,1,39,4,-12,-6,-2,-13,5
20:46:43:510381,1,39,4,-12,-6,-2,-13,5
20:46:43:511124,10,18,-8,10,-7,-5,16,-3
20:46:43:517106,1,12,33,0,-3,-1,4,-19
20:46:43:525335,1,12,33,0,-3,-1,4,-19
20:46:43:526142,17,-16,12,-3,-3,-11,-87,-12
20:46:43:539609,7,-11,18,5,9,7,22,32
20:46:43:547819,7,-11,18,5,9,7,22,32
20:46:43:548615,9,-8,21,3,1,1,8,7
20:46:43:554599,15,4,15,7,-1,1,-6,-5
20:46:43:570360,15,4,15,7,-1,1,-6,-5
20:46:43:571107,8,51,19,3,1,1,18,-7
20:46:43:577161,-18,-6,-35,4,-3,-1,13,-2
20:46:43:585358,-18,-6,-35,4,-3,-1,13,-2
20:46:43:586119,1,41,13,-12,-4,5,23,0
20:46:43:599589,0,13,-16,-12,5,-2,-18,8
20:46:43:608230,0,13,-16,-12,5,-2,-18,8
20:46:43:615258,8,-24,-15,-4,-5,-7,-1,5
20:46:43:616081,1,36,8,8,-2,-5,-5,-4
20:46:43:630301,1,36,8,8,-2,-5,-5,-4
20:46:43:631136,-10,-27,8,4,1,2,33,11
20:46:43:637105,-12,-37,4,-1,0,-3,18,11
20:46:43:645323,-12,-37,4,-1,0,-3,18,11
20:46:43:646117,0,14,-4,1,4,0,6,4
20:46:43:659631,-4,-7,-4,-9,-6,-6,-11,-2
20:46:43:667827,-4,-7,-4,-9,-6,-6,-11,-2
20:46:43:668621,9,-25,-15,-6,8,3,5,3
20:46:43:674563,3,-66,-21,7,-6,1,7,-11
20:46:43:690304,3,-66,-21,7,-6,1,7,-11
20:46:43:691090,-10,-42,-20,10,-4,-4,-25,-4
20:46:43:697080,5,18,18,10,-1,-4,4,-2
20:46:43:705299,5,18,18,10,-1,-4,4,-2
20:46:43:706124,0,-9,-3,-6,-4,5,29,-14
20:46:43:719640,8,16,5,-17,-6,-6,-8,-3
20:46:43:727819,8,16,5,-17,-6,-6,-8,-3
20:46:43:728593,5,0,-5,-5,-3,-5,-26,-3
20:46:43:734607,-7,14,3,3,7,-1,19,-8
20:46:43:750295,-7,14,3,3,7,-1,19,-8
20:46:43:751103,-17,-36,-37,-21,-11,-10,-22,-9
20:46:43:757124,3,2,9,5,2,-3,-5,15
20:46:43:765288,3,2,9,5,2,-3,-5,15
20:46:43:766118,-6,14,14,8,-1,-2,-17,-7
20:46:43:779648,15,-7,-10,-2,1,-1,-8,2
20:46:43:787807,15,-7,-10,-2,1,-1,-8,2
20:46:43:788635,11,14,34,21,0,0,-1,5
20:46:43:794638,9,-7,-31,8,4,-1,2,2
20:46:43:810291,9,-7,-31,8,4,-1,2,2
20:46:43:811084,-12,-24,-33,-12,-5,-8,-18,6
20:46:43:817135,-20,-15,22,0,-5,1,-10,-22
20:46:43:825332,-20,-15,22,0,-5,1,-10,-22
20:46:43:826110,-16,9,1,-7,1,-1,3,-7
20:46:43:839608,-17,-10,17,5,-1,-7,-27,9
20:46:43:847848,-17,-10,17,5,-1,-7,-27,9
20:46:43:848597,-1,-3,31,4,7,6,10,0
20:46:43:854656,15,71,16,0,-4,4,6,5
20:46:43:870326,15,71,16,0,-4,4,6,5
20:46:43:871137,4,-6,13,3,-3,-1,0,-8
20:46:43:877137,9,-6,13,-9,-6,3,9,-3
20:46:43:885322,9,-6,13,-9,-6,3,9,-3
20:46:43:886079,-1,-17,17,-1,2,-1,10,-7
20:46:43:899611,1,-16,-10,-10,-3,2,-16,-3
20:46:43:907833,1,-16,-10,-10,-3,2,-16,-3
20:46:43:908648,-7,-42,7,7,0,6,-9,2
20:46:43:914630,0,-16,-34,7,0,2,16,1
20:46:43:930357,0,-16,-34,7,0,2,16,1
20:46:43:931136,12,70,-1,-56,-6,-2,2,12
20:46:43:937138,-5,-1,25,8,1,2,2,-21
20:46:43:945371,-5,-1,25,8,1,2,2,-21
20:46:43:946132,18,15,6,25,4,-1,8,1
20:46:43:959628,-20,46,9,-7,-2,-1,13,-11
20:46:43:967856,-20,46,9,-7,-2,-1,13,-11
20:46:43:968651,2,-42,-23,-2,-5,-1,13,-14
20:46:43:974622,-5,-36,16,8,5,-2,-7,3
20:46:43:990346,-5,-36,16,8,5,-2,-7,3
20:46:43:991112,14,-20,-7,-6,-7,6,8,3
20:46:43:997109,4,62,5,4,3,1,3,-26
20:46:44:5348,4,62,5,4,3,1,3,-26
20:46:44:6167,-1,8,21,3,3,-2,-3,-15
20:46:44:19614,-14,-20,-17,3,9,10,12,17
20:46:44:27852,-14,-20,-17,3,9,10,12,17
20:46:44:28619,15,41,-16,22,5,2,-8,8
20:46:44:34632,0,-12,-6,-4,-5,-10,-26,-2
20:46:44:50360,0,-12,-6,-4,-5,-10,-26,-2
20:46:44:51113,-6,-9,2,-5,-5,-4,16,-2
20:46:44:57123,-23,3,-20,-10,1,-4,-15,-5
20:46:44:65340,-23,3,-20,-10,1,-4,-15,-5
20:46:44:66122,4,33,-2,30,3,-6,-13,-1
20:46:44:79568,-4,-20,3,-16,-7,-3,-10,7
20:46:44:87838,-4,-20,3,-16,-7,-3,-10,7
20:46:44:88620,-13,-48,24,2,1,-3,-9,6
20:46:44:94587,12,-36,-10,10,-7,-1,13,19
20:46:44:110305,12,-36,-10,10,-7,-1,13,19
20:46:44:111115,24,-7,-10,-3,3,2,-3,-1
20:46:44:125984,21,-14,-9,-14,-5,-3,-10,5
20:46:44:126792,21,-14,-9,-14,-5,-3,-10,5
20:46:44:127585,-9,63,0,-4,-4,-1,-12,-7
20:46:44:139633,-7,-6,-7,14,-3,-5,-7,-15
20:46:44:147816,-7,-6,-7,14,-3,-5,-7,-15
20:46:44:148605,-14,-47,54,23,1,-1,1,3
20:46:44:154626,8,5,-25,-17,-5,-2,4,4
20:46:44:170284,8,5,-25,-17,-5,-2,4,4
20:46:44:171086,-1,-26,12,4,-2,-5,-2,-2
20:46:44:177134,-5,-6,19,7,-2,-2,8,-8
20:46:44:185329,-5,-6,19,7,-2,-2,8,-8
20:46:44:186096,4,-58,-53,-13,-7,-3,-13,-1
20:46:44:199646,-2,5,-15,-13,2,-1,5,0
20:46:44:207767,-2,5,-15,-13,2,-1,5,0
20:46:44:208624,6,75,23,-8,6,5,24,13
20:46:44:214790,10,-22,14,6,1,-7,-9,2
20:46:44:230345,10,-22,14,6,1,-7,-9,2
20:46:44:231150,-10,-10,-22,1,4,-2,-15,-25
20:46:44:237104,-12,30,23,8,4,2,-3,-6
20:46:44:245279,-12,30,23,8,4,2,-3,-6
20:46:44:246100,-13,4,1,-10,-1,-1,-11,1
20:46:44:259654,-5,10,-11,-7,-16,-3,5,5
20:46:44:267851,-5,10,-11,-7,-16,-3,5,5
20:46:44:268663,-20,-23,-30,-52,-3,-3,3,-6
20:46:44:274599,0,-18,7,7,7,2,-4,3
20:46:44:290347,0,-18,7,7,7,2,-4,3
20:46:44:291114,5,46,17,17,2,4,11,2
20:46:44:297099,8,-18,-22,0,-7,-2,-17,1
20:46:44:304683,8,-18,-22,0,-7,-2,-17,1
20:46:44:312142,-15,-36,-12,8,1,-6,-32,9
20:46:44:319638,4,0,-19,-4,2,0,12,-16
20:46:44:327816,4,0,-19,-4,2,0,12,-16
20:46:44:328598,2,-23,-2,-13,-7,-1,-9,-7
20:46:44:342095,9,62,11,-5,3,4,12,40
20:46:44:350271,9,62,11,-5,3,4,12,40
20:46:44:351086,-25,9,-55,-12,-7,-4,12,-4
20:46:44:357260,-5,-16,29,-7,-6,-3,2,-15
20:46:44:364651,-5,-16,29,-7,-6,-3,2,-15
20:46:44:372094,14,26,-13,-33,8,9,22,2
20:46:44:379621,-11,-18,3,-12,-8,-2,9,-2
20:46:44:387817,-11,-18,3,-12,-8,-2,9,-2
20:46:44:388617,3,-12,-4,-22,-14,-9,-14,-6
20:46:44:402566,-7,-48,6,1,12,4,-4,5
20:46:44:410313,-7,-48,6,1,12,4,-4,5
20:46:44:411098,-16,-58,-20,5,-5,-7,-5,-46
20:46:44:417074,-9,-66,4,1,-10,-5,-15,-9
20:46:44:424676,-9,-66,4,1,-10,-5,-15,-9
20:46:44:432094,18,74,77,73,6,1,0,21
20:46:44:439607,-2,3,28,24,7,0,-2,8
20:46:44:447870,-2,3,28,24,7,0,-2,8
20:46:44:448611,11,9,-14,-3,-1,-2,6,9
20:46:44:462082,10,66,16,22,3,2,4,5
20:46:44:470314,10,66,16,22,3,2,4,5
20:46:44:471121,-28,-24,-25,17,9,1,10,6
20:46:44:477094,21,-18,-30,-15,-2,-7,-24,-25
20:46:44:484677,21,-18,-30,-15,-2,-7,-24,-25
20:46:44:492149,-18,-43,7,-1,-5,0,20,6
20:46:44:499609,0,6,-24,-1,-4,-2,0,5
20:46:44:507868,0,6,-24,-1,-4,-2,0,5
20:46:44:508640,27,9,-11,-6,2,3,-1,3
20:46:44:522094,-18,14,41,48,3,-4,-17,-5
20:46:44:530331,-18,14,41,48,3,-4,-17,-5
20:46:44:531119,0,-27,-31,-26,-2,-2,-4,10
20:46:44:537123,3,-7,-12,11,4,3,25,-9
20:46:44:544669,3,-7,-12,11,4,3,25,-9
20:46:44:552102,23,-3,-8,-5,-4,0,-22,-4
20:46:44:559599,-10,57,-55,-27,-1,5,12,-2
20:46:44:567778,-10,57,-55,-27,-1,5,12,-2
20:46:44:568595,-6,2,-1,-5,1,-2,22,-14
20:46:44:582130,4,-12,-21,-11,-5,-6,-6,5
20:46:44:590335,4,-12,-21,-11,-5,-6,-6,5
20:46:44:591147,10,34,18,19,10,1,-24,9
20:46:44:597154,-1,-13,-20,-12,-1,0,1,0
20:46:44:604674,-1,-13,-20,-12,-1,0,1,0
20:46:44:612138,-24,-97,10,10,-11,-4,-18,-26
20:46:44:619665,-9,-16,5,-35,-7,1,-25,-1
20:46:44:627815,-9,-16,5,-35,-7,1,-25,-1
20:46:44:628595,3,17,-16,-7,2,1,0,4
20:46:44:642133,-22,-31,-15,-17,-11,-8,8,-8
20:46:44:658520,-22,-31,-15,-17,-11,-8,8,-8
20:46:44:659294,-9,22,19,-1,7,3,12,11
20:46:44:660109,-2,1,21,0,-1,-1,-9,9
20:46:44:664733,-2,1,21,0,-1,-1,-9,9
20:46:44:672133,-8,16,6,-3,-14,-6,-1,3
20:46:44:679656,10,27,17,18,6,5,8,0
20:46:44:687797,10,27,17,18,6,5,8,0
20:46:44:688592,7,-4,-5,17,3,-8,-16,-33
20:46:44:702134,16,45,5,-16,-3,-3,-2,9
20:46:44:710303,16,45,5,-16,-3,-3,-2,9
20:46:44:711068,10,-24,-11,-10,-2,1,16,11
20:46:44:717103,-12,-32,-15,-15,-5,-2,4,-12
20:46:44:724647,-12,-32,-15,-15,-5,-2,4,-12
20:46:44:732140,-7,-22,18,10,-3,1,5,0
20:46:44:739671,-24,-23,-12,-3,3,1,16,15
20:46:44:747816,-24,-23,-12,-3,3,1,16,15
20:46:44:748611,17,29,4,1,-4,-3,-22,-3
20:46:44:762117,4,73,21,-58,-8,1,15,1
20:46:44:770354,4,73,21,-58,-8,1,15,1
20:46:44:771105,-10,-51,-7,-19,0,7,30,19
20:46:44:777145,8,-36,-32,3,2,-4,-13,-1
20:46:44:784660,8,-36,-32,3,2,-4,-13,-1
20:46:44:792115,-8,87,20,12,-5,-2,-1,2
20:46:44:799638,7,-23,6,22,5,-1,-26,-13
20:46:44:807800,7,-23,6,22,5,-1,-26,-13
20:46:44:808616,-10,14,9,0,1,2,-10,24
20:46:44:822157,7,21,15,9,0,7,1,-12
20:46:44:830334,7,21,15,9,0,7,1,-12
20:46:44:831121,6,12,-5,4,6,3,1,0
20:46:44:837079,3,-61,10,-16,-5,1,-17,9
20:46:44:844658,3,-61,10,-16,-5,1,-17,9
20:46:44:852114,1,-18,-17,-9,-4,-4,-4,-16
20:46:44:859602,2,48,45,33,5,-3,11,-4
20:46:44:867937,2,48,45,33,5,-3,11,-4
20:46:44:868632,9,6,3,11,6,0,-20,-16
20:46:44:882097,-9,-18,-20,14,1,-5,-27,-8
20:46:44:890312,-9,-18,-20,14,1,-5,-27,-8
20:46:44:891123,7,20,12,2,2,2,20,7
20:46:44:897128,-28,-7,-19,-26,-11,-4,7,-13
20:46:44:904686,-28,-7,-19,-26,-11,-4,7,-13
20:46:44:912108,3,-7,-12,-46,-6,2,0,-2
20:46:44:919606,-9,8,-38,-8,-3,-2,10,-3
20:46:44:935341,-9,8,-38,-8,-3,-2,10,-3
20:46:44:936114,-5,26,19,18,-6,-4,-3,-7
20:46:44:942097,-1,-23,27,20,4,8,-3,5
20:46:44:950336,-1,-23,27,20,4,8,-3,5
20:46:44:951143,24,14,5,-24,-3,3,41,4
20:46:44:957104,24,3,-34,3,4,2,5,-21
20:46:44:964625,24,3,-34,3,4,2,5,-21
20:46:44:972149,-18,12,16,3,-4,-11,-36,21
20:46:44:979627,15,5,15,17,0,2,35,11
20:46:44:987835,15,5,15,17,0,2,35,11
20:46:44:988607,0,-52,-14,-3,7,-5,-10,4
20:46:45:2124,-26,-4,-23,-5,3,2,-6,5
20:46:45:10292,-26,-4,-23,-5,3,2,-6,5
20:46:45:11109,1,32,20,25,6,7,3,24
20:46:45:17155,-11,-10,23,-6,-5,-8,-13,-6
20:46:45:24671,-11,-10,23,-6,-5,-8,-13,-6
20:46:45:40300,-20,-11,34,-33,-2,-4,-2,-12
20:46:45:41106,-2,-30,3,-28,-4,-1,0,-18
20:46:45:47816,-2,-30,3,-28,-4,-1,0,-18
20:46:45:48606,7,0,-13,11,-1,-12,24,11
20:46:45:62099,-7,-29,8,9,1,-6,1,43
20:46:45:70343,-7,-29,8,9,1,-6,1,43
20:46:45:71149,18,-9,10,-1,-8,-1,-22,7
20:46:45:77112,12,25,2,24,6,5,16,-1
20:46:45:84649,12,25,2,24,6,5,16,-1
20:46:45:92148,15,5,-43,-7,-5,-15,30,-2
20:46:45:99631,4,12,34,-2,-12,-3,-18,1
20:46:45:107818,4,12,34,-2,-12,-3,-18,1
20:46:45:108622,1,-26,-36,-2,6,2,-32,-49
20:46:45:122126,8,-14,4,24,9,0,2,9
20:46:45:130332,8,-14,4,24,9,0,2,9
20:46:45:131108,-8,-33,-6,28,5,3,-18,-6
20:46:45:137153,-11,-1,-14,-24,-10,-2,-11,-11
20:46:45:144643,-11,-1,-14,-24,-10,-2,-11,-11
20:46:45:152077,-6,9,-8,1,6,0,-21,0
20:46:45:159593,16,-6,-5,11,3,-1,7,-28
20:46:45:167808,16,-6,-5,11,3,-1,7,-28
20:46:45:168603,-11,20,34,-9,-10,-3,2,-7
20:46:45:182133,13,8,0,-8,-4,-3,13,4
20:46:45:190314,13,8,0,-8,-4,-3,13,4
20:46:45:191110,-23,-37,-7,-4,-5,-4,-22,-25
20:46:45:197111,0,-27,-8,0,-1,0,2,8
20:46:45:212823,0,-27,-8,0,-1,0,2,8
20:46:45:213594,6,-13,-25,-18,-8,4,16,22
20:46:45:219597,-20,50,11,10,7,5,21,28
20:46:45:227171,-20,50,11,10,7,5,21,28
20:46:45:234579,-13,-20,-37,-24,-6,-1,6,-3
20:46:45:242106,28,4,1,1,-2,-3,-13,10
20:46:45:250325,28,4,1,1,-2,-3,-13,10
20:46:45:251122,12,111,40,-15,-2,9,11,-3
20:46:45:265294,-30,-23,-20,-1,-5,-13,-35,-27
20:46:45:266125,-30,-23,-20,-1,-5,-13,-35,-27
20:46:45:272078,-4,-30,4,19,-5,-3,-5,-8
20:46:45:279613,4,31,21,0,5,5,3,3
20:46:45:287184,4,31,21,0,5,5,3,3
20:46:45:294634,-8,-2,-38,-2,5,1,0,-19
20:46:45:302103,7,-32,-33,-10,-5,2,-5,-19
20:46:45:310347,7,-32,-33,-10,-5,2,-5,-19
20:46:45:311127,-18,-44,24,14,-9,-3,-3,3
20:46:45:325317,5,-10,-30,-25,2,-7,-29,-21
20:46:45:326138,5,-10,-30,-25,2,-7,-29,-21
20:46:45:332138,25,33,-5,5,4,-5,-36,19
20:46:45:339633,6,9,13,14,-6,0,35,20
20:46:45:347194,6,9,13,14,-6,0,35,20
20:46:45:354610,-13,-16,0,30,8,1,13,2
20:46:45:362122,2,-45,-8,-13,2,3,4,2
20:46:45:370309,2,-45,-8,-13,2,3,4,2
20:46:45:371072,-6,-20,34,12,-3,2,1,-10
20:46:45:385321,10,24,15,14,-5,2,-1,10
20:46:45:386131,10,24,15,14,-5,2,-1,10
20:46:45:392113,-18,-13,-18,-8,5,10,19,-13
20:46:45:399597,-17,-12,-15,6,-1,-3,-18,-15
20:46:45:407133,-17,-12,-15,6,-1,-3,-18,-15
20:46:45:414644,11,-13,19,-3,-10,-5,6,2
20:46:45:422117,-4,37,8,-35,-5,4,7,5
20:46:45:430297,-4,37,8,-35,-5,4,7,5
20:46:45:431120,9,6,-6,-20,6,-1,-6,3
20:46:45:445260,-15,-27,5,1,1,-5,-9,7
20:46:45:446109,-15,-27,5,1,1,-5,-9,7
20:46:45:452168,-4,-12,6,-1,-4,-2,8,9
20:46:45:467849,8,-14,8,7,3,-2,5,-3
20:46:45:468604,8,-14,8,7,3,-2,5,-3
20:46:45:474605,-21,-9,21,-10,-5,-7,-8,3
20:46:45:482127,-9,-49,9,7,-4,1,0,-8
20:46:45:490303,-9,-49,9,7,-4,1,0,-8
20:46:45:491105,-8,-12,-39,-20,-4,2,18,0
20:46:45:505295,-24,-12,10,11,5,7,6,2
20:46:45:506075,-24,-12,10,11,5,7,6,2
20:46:45:512130,-14,-10,-28,0,-3,-4,-1,-23
20:46:45:519650,9,-7,-4,-7,-8,-7,11,-2
20:46:45:527137,9,-7,-4,-7,-8,-7,11,-2
20:46:45:534665,16,48,-11,20,11,5,-13,-2
20:46:45:542133,11,38,-10,-1,0,-5,-24,10
20:46:45:550316,11,38,-10,-1,0,-5,-24,10
20:46:45:551102,8,10,16,-15,-10,-2,12,9
20:46:45:565291,-8,22,-1,-4,-5,-1,3,0
20:46:45:566107,-8,22,-1,-4,-5,-1,3,0
20:46:45:572134,4,34,-3,6,0,-2,11,-9
20:46:45:579662,0,-23,-17,-8,2,1,-9,-1
20:46:45:587147,0,-23,-17,-8,2,1,-9,-1
20:46:45:594619,15,-10,34,23,4,2,1,-9
20:46:45:602085,-42,42,13,0,1,-3,14,-43
20:46:45:610337,-42,42,13,0,1,-3,14,-43
20:46:45:611103,10,-58,-19,-2,-3,-3,-11,7
20:46:45:625323,22,10,10,9,-4,-2,-8,-2
20:46:45:626129,22,10,10,9,-4,-2,-8,-2
20:46:45:632100,-7,-41,-22,-10,4,6,27,3
20:46:45:639604,-6,-15,15,27,2,-4,-1,3
20:46:45:647152,-6,-15,15,27,2,-4,-1,3
20:46:45:654600,-6,-16,-48,-15,-6,-5,-10,8
20:46:45:662100,17,-3,-47,-15,-5,0,12,11
20:46:45:670322,17,-3,-47,-15,-5,0,12,11
20:46:45:671120,-5,24,-5,-3,7,1,-13,-20
20:46:45:685293,10,-7,3,-7,-3,-4,-29,-11
20:46:45:686150,10,-7,3,-7,-3,-4,-29,-11
20:46:45:700264,-9,3,-19,-6,-5,-4,3,20
20:46:45:701040,1,-1,9,-15,1,-2,7,-3
20:46:45:707191,1,-1,9,-15,1,-2,7,-3
20:46:45:722809,3,29,-1,-18,-4,-1,-4,-5
20:46:45:723585,0,1,-1,3,1,-4,-11,28
20:46:45:730329,0,1,-1,3,1,-4,-11,28
20:46:45:731104,1,13,4,-15,-7,1,17,0
20:46:45:745293,7,3,21,-3,8,3,3,14
20:46:45:746103,7,3,21,-3,8,3,3,14
20:46:45:752143,13,-67,23,-9,0,-6,-16,-5
20:46:45:759649,21,83,-12,6,1,1,4,-4
20:46:45:767174,21,83,-12,6,1,1,4,-4
20:46:45:774611,-2,-12,-26,6,-3,-3,6,-4
20:46:45:782100,-26,-44,-4,-18,-2,2,16,-10
20:46:45:790338,-26,-44,-4,-18,-2,2,16,-10
20:46:45:791104,-19,24,55,22,-1,-4,-24,-24
20:46:45:805284,-8,-26,-37,2,-1,-5,1,12
20:46:45:806117,-8,-26,-37,2,-1,-5,1,12
20:46:45:812078,3,9,8,-33,-4,-2,1,8
20:46:45:819585,-12,-49,37,-4,-8,-5,7,-8
20:46:45:827170,-12,-49,37,-4,-8,-5,7,-8
20:46:45:834580,3,7,22,14,3,0,-10,2
20:46:45:842134,9,-50,-12,8,-1,-2,1,-1
20:46:45:850320,9,-50,-12,8,-1,-2,1,-1
20:46:45:851122,-2,50,-2,24,-3,1,30,7
20:46:45:865283,1,17,4,-5,-5,-4,-20,-17
20:46:45:866130,1,17,4,-5,-5,-4,-20,-17
20:46:45:872104,2,-23,-14,6,9,-3,-42,-17
20:46:45:879594,3,-9,-8,0,2,1,17,-26
20:46:45:887175,3,-9,-8,0,2,1,17,-26
20:46:45:894622,2,17,-23,-9,-5,-2,-18,6
20:46:45:902126,12,15,2,10,-8,-2,-12,20
20:46:45:910343,12,15,2,10,-8,-2,-12,20
20:46:45:911130,3,-21,25,-12,-2,3,15,6
20:46:45:925355,-17,-2,-36,-30,-4,-4,-11,2
20:46:45:926132,-17,-2,-36,-30,-4,-4,-11,2
20:46:45:932121,-11,30,17,1,-5,2,-1,7
20:46:45:939646,8,-29,6,4,3,1,0,21
20:46:45:955374,8,-29,6,4,3,1,0,21
20:46:45:956100,8,-6,-12,-2,0,-1,34,13
20:46:45:962115,7,28,3,20,8,1,-2,1
20:46:45:977827,7,28,3,20,8,1,-2,1
20:46:45:978599,13,-9,10,27,3,-1,-2,7
20:46:45:985338,-10,-19,-7,-4,1,2,-18,-19
20:46:45:986133,-10,-19,-7,-4,1,2,-18,-19
20:46:46:237,-5,-5,8,3,-2,0,1,-4
20:46:46:1045,22,-1,12,9,1,-3,-2,-5
20:46:46:7164,22,-1,12,9,1,-3,-2,-5
20:46:46:14612,-3,13,9,7,3,2,-3,5
20:46:46:22082,-11,-7,-22,-2,-3,3,6,-20
20:46:46:30331,-11,-7,-22,-2,-3,3,6,-20
20:46:46:31108,-7,2,20,-12,-6,-3,-2,-8
20:46:46:45311,-8,30,13,10,6,0,-11,4
20:46:46:46110,-8,30,13,10,6,0,-11,4
20:46:46:52096,-2,27,-30,-16,-8,-4,-37,-5
20:46:46:59607,-5,-7,-2,-3,6,-1,-11,-2
20:46:46:67166,-5,-7,-2,-3,6,-1,-11,-2
20:46:46:74626,1,-57,-8,-10,-2,-5,11,1
20:46:46:82105,10,6,-25,-42,-9,0,14,5
20:46:46:90358,10,6,-25,-42,-9,0,14,5
20:46:46:91130,-18,-13,26,5,5,0,-2,-14
20:46:46:105344,5,-3,4,17,1,1,-8,0
20:46:46:106127,5,-3,4,17,1,1,-8,0
20:46:46:112135,-14,-25,4,9,1,0,-5,-4
20:46:46:119608,-3,45,35,1,-6,-2,26,24
20:46:46:127224,-3,45,35,1,-6,-2,26,24
20:46:46:134638,24,5,-1,4,-2,-1,-3,9
20:46:46:142142,-30,-32,-16,-1,-3,-2,-14,-5
20:46:46:150313,-30,-32,-16,-1,-3,-2,-14,-5
20:46:46:151074,-2,11,-5,-20,-7,-1,5,-1
20:46:46:165355,14,18,15,16,-3,-2,-7,-8
20:46:46:166133,14,18,15,16,-3,-2,-7,-8
20:46:46:172117,7,26,15,-14,-6,0,18,-4
20:46:46:179612,-5,-1,-20,11,6,0,0,-5
20:46:46:187129,-5,-1,-20,11,6,0,0,-5
20:46:46:194639,-11,-26,-45,8,0,-2,-5,-1
20:46:46:202140,-13,9,32,-3,-1,5,10,5
20:46:46:209643,-13,9,32,-3,-1,5,10,5
20:46:46:217095,1,-77,-35,-17,-7,-6,1,8
20:46:46:233446,4,22,15,-5,-2,-1,-6,-3
20:46:46:234265,4,22,15,-5,-2,-1,-6,-3
20:46:46:235063,-10,40,-17,10,4,0,21,-9
20:46:46:255971,-6,-11,-14,-11,-9,-3,1,-3
20:46:46:256785,-6,-11,-14,-11,-9,-3,1,-3
20:46:46:257575,-6,-17,14,42,4,1,-15,4
20:46:46:262079,11,-5,-3,-6,-3,-1,6,-2
20:46:46:269652,11,-5,-3,-6,-3,-1,6,-2
20:46:46:277215,0,-3,-40,5,11,1,-17,5
20:46:46:285289,-2,42,26,10,-2,0,-9,19
20:46:46:286112,-2,42,26,10,-2,0,-9,19
20:46:46:292119,4,51,23,1,3,2,-10,1
20:46:46:307836,-17,-17,-16,-38,-14,-8,5,-9
20:46:46:308634,-17,-17,-16,-38,-14,-8,5,-9
20:46:46:314634,-27,-28,-5,-10,8,4,-8,-5
20:46:46:322128,1,-34,-20,6,-1,-8,-13,-26
20:46:46:329646,1,-34,-20,6,-1,-8,-13,-26
20:46:46:337133,23,12,-2,4,-9,1,-18,1
20:46:46:345268,14,-15,-26,-7,5,-1,-14,-14
20:46:46:346130,14,-15,-26,-7,5,-1,-14,-14
20:46:46:352087,1,-26,22,4,4,-1,15,-9
20:46:46:367779,-12,8,3,15,0,-1,-3,-6
20:46:46:368591,-12,8,3,15,0,-1,-3,-6
20:46:46:374624,-2,55,-7,-18,4,1,19,18
20:46:46:382112,-25,-31,14,-15,-9,-7,6,8
20:46:46:389668,-25,-31,14,-15,-9,-7,6,8
20:46:46:397087,-1,-27,3,-12,-9,-8,-44,-3
20:46:46:405292,24,49,14,11,2,-1,0,16
20:46:46:406122,24,49,14,11,2,-1,0,16
20:46:46:412090,11,-11,-27,-23,-10,-3,0,-21
20:46:46:427787,-9,-16,-1,-33,-2,2,1,-7
20:46:46:428616,-9,-16,-1,-33,-2,2,1,-7
20:46:46:434577,48,12,3,-8,-11,-9,4,6
20:46:46:442083,1,-46,-36,23,4,4,7,4
20:46:46:449658,1,-46,-36,23,4,4,7,4
20:46:46:457089,-10,-8,36,14,6,2,-3,-4
20:46:46:465368,12,-8,-11,-1,-1,0,0,4
20:46:46:466146,12,-8,-11,-1,-1,0,0,4
20:46:46:472112,-19,-35,9,21,10,1,10,-9
20:46:46:487797,-14,4,11,5,4,1,-11,7
20:46:46:488607,-14,4,11,5,4,1,-11,7
20:46:46:494613,-9,27,-7,1,-4,-1,21,-13
20:46:46:510294,5,43,15,-16,1,0,-2,-11
20:46:46:511114,5,43,15,-16,1,0,-2,-11
20:46:46:517089,-2,-6,-11,-36,-1,5,5,10
20:46:46:525325,-13,1,1,17,3,1,14,9
20:46:46:526114,-13,1,1,17,3,1,14,9
20:46:46:532090,4,80,-12,4,-6,1,16,-1
20:46:46:555953,12,-24,-3,7,2,6,-7,6
20:46:46:556769,12,-24,-3,7,2,6,-7,6
20:46:46:557561,-15,-35,-29,-7,-2,-1,-1,-6
20:46:46:562184,0,2,42,-11,-4,-1,9,1
20:46:46:569653,0,2,42,-11,-4,-1,9,1
20:46:46:577077,13,-11,18,16,-4,-2,-13,5
20:46:46:585314,-9,-23,-15,9,4,-6,0,-3
20:46:46:586114,-9,-23,-15,9,4,-6,0,-3
20:46:46:592082,-8,11,5,12,0,-2,-7,-1
20:46:46:607799,17,-18,15,-8,-7,-10,-4,-6
20:46:46:608609,17,-18,15,-8,-7,-10,-4,-6
20:46:46:614570,11,-27,-3,2,-3,-2,-8,17
20:46:46:622078,-4,-37,18,-5,3,-1,28,16
20:46:46:629648,-4,-37,18,-5,3,-1,28,16
20:46:46:637113,-22,-65,-1,-5,-9,-6,37,-11
20:46:46:644990,8,-23,-39,-5,-4,0,19,-9
20:46:46:652829,8,-23,-39,-5,-4,0,19,-9
20:46:46:653637,4,-23,-3,-27,3,4,-1,10
20:46:46:667818,-45,2,-21,-11,-5,-1,-19,-9
20:46:46:668630,-45,2,-21,-11,-5,-1,-19,-9
20:46:46:674607,-10,52,-14,-30,-3,1,-7,5
20:46:46:682140,3,85,-13,7,4,3,-17,2
20:46:46:689702,3,85,-13,7,4,3,-17,2
20:46:46:697114,16,51,38,31,6,2,-4,-7
20:46:46:705347,-3,-60,-35,-2,-8,0,-2,-22
20:46:46:706186,-3,-60,-35,-2,-8,0,-2,-22
20:46:46:712139,-15,-28,2,-31,-5,-1,-32,-10
20:46:46:727828,34,23,33,22,11,0,-5,15
20:46:46:728632,34,23,33,22,11,0,-5,15
20:46:46:734637,-6,-10,31,7,0,-3,-43,-16
20:46:46:742090,-26,-43,-25,-9,0,0,-14,-10
20:46:46:749709,-26,-43,-25,-9,0,0,-14,-10
20:46:46:757148,28,0,-23,8,-3,-5,8,-10
20:46:46:765280,2,32,16,6,-3,-1,-16,4
20:46:46:766085,2,32,16,6,-3,-1,-16,4
20:46:46:772154,4,-41,8,11,-6,-9,-21,1
20:46:46:787789,1,-23,9,28,1,2,10,-1
20:46:46:788601,1,-23,9,28,1,2,10,-1
20:46:46:794646,3,8,3,-10,-4,-2,-6,15
20:46:46:802141,-11,-2,-36,-27,-5,-3,-19,-8
20:46:46:809684,-11,-2,-36,-27,-5,-3,-19,-8
20:46:46:817122,-31,-25,4,24,2,-1,18,2
20:46:46:826344,25,14,7,23,9,8,24,7
20:46:46:832807,25,14,7,23,9,8,24,7
20:46:46:833632,-4,68,-6,7,7,5,20,9
20:46:46:847809,28,2,17,-9,-5,-3,1,6
20:46:46:848602,28,2,17,-9,-5,-3,1,6
20:46:46:854612,-9,-17,8,-8,-5,-11,-13,9
20:46:46:862116,13,-12,6,-4,4,-1,9,-3
20:46:46:869675,13,-12,6,-4,4,-1,9,-3
20:46:46:877069,1,-13,-39,-4,4,5,6,-21
20:46:46:885311,-10,10,9,-15,-10,-3,-47,-27
20:46:46:886111,-10,10,9,-15,-10,-3,-47,-27
20:46:46:892081,-12,-2,-22,24,3,-5,3,-17
20:46:46:907792,-8,4,31,-2,-2,-3,7,5
20:46:46:908631,-8,4,31,-2,-2,-3,7,5
20:46:46:914579,7,-32,8,7,-6,-6,47,16
20:46:46:922085,1,3,12,7,-2,2,0,9
20:46:46:929689,1,3,12,7,-2,2,0,9
20:46:46:937104,-13,-1,6,7,0,6,-25,-3
20:46:46:945312,-4,-1,4,-13,-2,2,14,24
20:46:46:946134,-4,-1,4,-13,-2,2,14,24
20:46:46:952112,13,-21,-41,-20,-8,-9,8,-5
20:46:46:967812,-1,45,-7,-8,3,-2,26,-5
20:46:46:968614,-1,45,-7,-8,3,-2,26,-5
20:46:46:974615,-3,4,28,2,2,2,-9,-4
20:46:46:982126,0,-50,-8,24,-1,-1,-7,-1
20:46:46:989714,0,-50,-8,24,-1,-1,-7,-1
20:46:46:997090,1,-9,-34,-2,2,-4,-5,-16
20:46:47:5295,-8,31,-28,-19,-5,-4,28,-1
20:46:47:6086,-8,31,-28,-19,-5,-4,28,-1
20:46:47:12116,5,0,24,23,-3,3,-35,10
20:46:47:27851,-10,-32,7,3,12,3,-15,-11
20:46:47:28635,-10,-32,7,3,12,3,-15,-11
20:46:47:34589,15,3,-13,-18,-3,1,9,8
20:46:47:42116,-15,-12,19,-19,-16,-8,12,-3
20:46:47:49638,-15,-12,19,-19,-16,-8,12,-3
20:46:47:57183,-18,-13,16,-6,6,6,-4,-1
20:46:47:65267,-6,-43,-20,-13,-6,-3,-36,-1
20:46:47:66091,-6,-43,-20,-13,-6,-3,-36,-1
20:46:47:72072,-9,2,10,-11,-5,-1,19,-1
20:46:47:87852,4,-7,-2,-3,-3,-6,2,-4
20:46:47:88640,4,-7,-2,-3,-3,-6,2,-4
20:46:47:94626,4,2,6,-7,-3,0,6,-16
20:46:47:102144,5,0,-22,33,6,1,4,5
20:46:47:109624,5,0,-22,33,6,1,4,5
20:46:47:117115,-8,58,15,8,7,-6,32,3
20:46:47:125292,-15,9,12,8,1,1,-13,-3
20:46:47:126112,-15,9,12,8,1,1,-13,-3
20:46:47:139619,7,10,-14,1,7,4,-7,1
20:46:47:147800,19,73,2,-13,-6,-4,-3,-7
20:46:47:148591,19,73,2,-13,-6,-4,-3,-7
20:46:47:154594,-7,-9,-3,3,-1,-5,-25,0
20:46:47:170269,-46,-8,-13,-1,3,-1,-12,-16
20:46:47:171087,-46,-8,-13,-1,3,-1,-12,-16
20:46:47:177137,4,-28,-17,8,-5,-1,-4,3
20:46:47:192790,8,-21,-57,-57,-14,-1,5,0
20:46:47:193607,8,-21,-57,-57,-14,-1,5,0
20:46:47:199629,-7,47,21,-8,-2,-5,-19,3
20:46:47:207835,16,14,16,8,3,-5,-5,5
20:46:47:208586,16,14,16,8,3,-5,-5,5
20:46:47:214647,-2,-26,-30,4,-2,-3,0,-18
20:46:47:230313,17,-11,18,10,-2,-5,19,2
20:46:47:231103,17,-11,18,10,-2,-5,19,2
20:46:47:237154,18,15,-1,-4,-3,5,40,-1
20:46:47:245315,18,15,-1,-4,-3,5,40,-1
20:46:47:246086,-7,5,2,-1,2,2,25,11
20:46:47:259645,2,3,-12,-10,-4,6,28,-2
20:46:47:267794,2,3,-12,-10,-4,6,28,-2
20:46:47:268597,26,28,17,5,-4,6,6,21
20:46:47:274612,-7,-27,9,-36,4,0,-25,21
20:46:47:290375,-7,-27,9,-36,4,0,-25,21
20:46:47:291142,-18,-43,-9,7,0,3,-7,-16
20:46:47:297101,-5,-22,7,16,-10,-5,-7,2
20:46:47:305293,-5,-22,7,16,-10,-5,-7,2
20:46:47:306099,-7,-30,-44,0,-1,3,29,19
20:46:47:319595,-14,-35,-13,12,8,1,7,-9
20:46:47:327845,-14,-35,-13,12,8,1,7,-9
20:46:47:328656,-8,-1,31,10,-1,-3,18,-9
20:46:47:334614,16,-14,-16,-4,1,-5,-44,0
20:46:47:350345,16,-14,-16,-4,1,-5,-44,0
20:46:47:351124,-4,32,16,2,-3,-3,9,-8
20:46:47:357120,-12,-44,-36,-33,-14,-3,-5,-1
20:46:47:365336,-12,-44,-36,-33,-14,-3,-5,-1
20:46:47:366153,19,-3,1,-9,3,-1,-12,-1
20:46:47:379618,-6,28,-4,3,10,6,17,5
20:46:47:387845,-6,28,-4,3,10,6,17,5
20:46:47:388623,2,63,9,4,-3,2,-22,7
20:46:47:394597,18,20,3,5,-5,7,-3,1
20:46:47:410351,18,20,3,5,-5,7,-3,1
20:46:47:411115,-5,-41,-15,1,1,-1,-16,-25
20:46:47:417121,-10,6,21,-8,-7,-5,14,3
20:46:47:425332,-10,6,21,-8,-7,-5,14,3
20:46:47:426133,8,-39,-11,-5,-4,2,1,-6
20:46:47:439595,-24,-91,-40,23,1,-9,2,-5
20:46:47:447821,-24,-91,-40,23,1,-9,2,-5
20:46:47:448615,8,-10,7,1,2,-4,-15,5
20:46:47:454612,2,31,20,-7,8,0,-14,12
20:46:47:470329,2,31,20,-7,8,0,-14,12
20:46:47:471130,-8,13,8,19,1,1,-3,-11
20:46:47:477071,-21,7,25,7,2,2,-40,-5
20:46:47:485348,-21,7,25,7,2,2,-40,-5
20:46:47:486108,-2,-3,-4,-9,-4,-7,5,8
20:46:47:499577,8,0,21,-4,-1,-1,-6,28
20:46:47:507847,8,0,21,-4,-1,-1,-6,28
20:46:47:508613,-2,-3,-13,4,1,3,-5,2
20:46:47:514574,16,23,1,-21,-4,-6,15,6
20:46:47:530357,16,23,1,-21,-4,-6,15,6
20:46:47:531097,9,57,23,2,3,-1,5,-8
20:46:47:537081,8,14,-7,17,-4,1,-3,-11
20:46:47:545322,8,14,-7,17,-4,1,-3,-11
20:46:47:546119,3,-15,4,3,1,4,12,-14
20:46:47:559611,3,-29,45,-7,-7,1,12,-18
20:46:47:567804,3,-29,45,-7,-7,1,12,-18
20:46:47:568615,4,-26,-3,-39,-5,-4,-10,8
20:46:47:574605,6,-2,-12,1,-5,-7,4,-2
20:46:47:590303,6,-2,-12,1,-5,-7,4,-2
20:46:47:591094,-22,-54,-23,-1,-4,-2,-5,8
20:46:47:597099,-4,37,-4,4,-5,-4,-6,-7
20:46:47:605333,-4,37,-4,4,-5,-4,-6,-7
20:46:47:606129,-26,59,17,15,13,11,47,-13
20:46:47:619636,-11,0,2,8,2,-1,-27,-15
20:46:47:627821,-11,0,2,8,2,-1,-27,-15
20:46:47:628612,0,-10,11,8,-9,-7,5,-5
20:46:47:634586,-1,4,11,0,4,7,28,-6
20:46:47:650317,-1,4,11,0,4,7,28,-6
20:46:47:651088,-8,9,4,-3,0,3,-34,14
20:46:47:657119,-3,-47,-27,15,6,-1,-6,-3
20:46:47:665313,-3,-47,-27,15,6,-1,-6,-3
20:46:47:666098,5,-10,-1,14,-6,-10,-16,3
20:46:47:679665,-1,-2,6,-10,7,7,22,0
20:46:47:687833,-1,-2,6,-10,7,7,22,0
20:46:47:688595,-10,-27,-16,-21,-8,-9,11,-7
20:46:47:694649,8,26,16,19,1,0,8,-11
20:46:47:710315,8,26,16,19,1,0,8,-11
20:46:47:711110,-5,-26,-11,-42,-12,-1,-22,-1
20:46:47:717122,11,45,16,-5,3,2,11,12
20:46:47:725319,11,45,16,-5,3,2,11,12
20:46:47:726094,-7,30,-26,16,4,-6,-5,-3
20:46:47:739648,17,5,1,-7,-2,-1,19,-3
20:46:47:747814,17,5,1,-7,-2,-1,19,-3
20:46:47:748603,-9,-1,11,12,3,0,29,-18
20:46:47:754624,-7,30,8,-15,-5,-3,-14,-10
20:46:47:770339,-7,30,8,-15,-5,-3,-14,-10
20:46:47:771148,7,-24,19,-3,9,1,1,6
20:46:47:777104,-2,-33,-4,-20,-8,-6,-17,18
20:46:47:785279,-2,-33,-4,-20,-8,-6,-17,18
20:46:47:786096,8,9,-21,-13,-10,-3,-57,-31
20:46:47:799629,-10,-20,-28,0,9,1,-9,2
20:46:47:807850,-10,-20,-28,0,9,1,-9,2
20:46:47:808661,-4,-8,-13,31,4,5,6,21
20:46:47:814606,-13,-41,-73,-13,-5,1,-1,-6
20:46:47:830371,-13,-41,-73,-13,-5,1,-1,-6
20:46:47:831145,-2,-44,3,14,0,-4,6,-9
20:46:47:837119,1,19,9,13,0,-3,-8,11
20:46:47:845286,1,19,9,13,0,-3,-8,11
20:46:47:846070,19,0,-15,-14,-10,-10,-22,16
20:46:47:859614,-1,55,6,-4,-2,-3,20,0
20:46:47:867839,-1,55,6,-4,-2,-3,20,0
20:46:47:868620,-15,-54,-22,-14,0,-2,-7,2
20:46:47:874600,-2,36,31,19,-2,3,2,-7
20:46:47:890362,-2,36,31,19,-2,3,2,-7
20:46:47:891132,17,37,-6,-32,-2,4,8,-3
20:46:47:897122,-5,-3,-4,-3,9,11,14,1
20:46:47:905333,-5,-3,-4,-3,9,11,14,1
20:46:47:906114,7,23,30,35,2,1,9,-18
20:46:47:919595,-1,12,14,0,-7,-6,-3,2
20:46:47:927867,-1,12,14,0,-7,-6,-3,2
20:46:47:928617,-2,0,4,3,2,2,8,9
20:46:47:934602,-5,-81,-45,-9,-6,-10,-29,-14
20:46:47:950307,-5,-81,-45,-9,-6,-10,-29,-14
20:46:47:951118,-4,5,8,-7,-2,-5,8,17
20:46:47:957071,14,-35,7,-2,0,2,-31,5
20:46:47:965329,14,-35,7,-2,0,2,-31,5
20:46:47:966115,6,-2,-26,-19,-5,0,-22,11
20:46:47:979575,-5,-28,-14,-21,-2,-2,12,-2
20:46:47:987844,-5,-28,-14,-21,-2,-2,12,-2
20:46:47:988623,-10,8,-6,-1,6,6,-1,5
20:46:47:994582,-20,90,29,30,-1,0,28,1
20:46:48:10302,-20,90,29,30,-1,0,28,1
20:46:48:11114,4,30,18,-21,-6,0,-13,13
20:46:48:17085,4,-36,-38,-26,3,3,6,7
20:46:48:25322,4,-36,-38,-26,3,3,6,7
20:46:48:26111,-3,5,16,2,-2,4,24,0
20:46:48:39585,8,-10,-26,-15,-2,-1,-1,-3
20:46:48:47835,8,-10,-26,-15,-2,-1,-1,-3
20:46:48:48610,15,-17,14,23,-3,-1,-13,-6
20:46:48:54601,-2,-51,19,-1,-7,-2,0,-11
20:46:48:70361,-2,-51,19,-1,-7,-2,0,-11
20:46:48:71090,9,10,28,-19,0,0,5,-12
20:46:48:77077,-24,-31,-11,-3,-2,-4,-34,-2
20:46:48:84676,-24,-31,-11,-3,-2,-4,-34,-2
20:46:48:92071,-28,-23,8,7,0,-2,-26,-3
20:46:48:99598,22,55,25,6,-2,0,31,-1
20:46:48:107842,22,55,25,6,-2,0,31,-1
20:46:48:108618,-10,-38,-38,15,5,-2,-2,-3
20:46:48:122085,-16,-1,-42,-71,-19,-3,-21,-8
20:46:48:130323,-16,-1,-42,-71,-19,-3,-21,-8
20:46:48:131113,-7,-20,1,20,19,4,19,0
20:46:48:137095,6,-5,19,39,0,0,8,3
20:46:48:144679,6,-5,19,39,0,0,8,3
20:46:48:152104,11,17,-11,-16,-4,-4,-27,5
20:46:48:159600,31,44,6,12,1,-2,-2,12
20:46:48:167839,31,44,6,12,1,-2,-2,12
20:46:48:168623,-7,65,22,0,-1,2,-5,-11
20:46:48:182083,-8,-32,-4,6,-5,-2,2,-22
20:46:48:190340,-8,-32,-4,6,-5,-2,2,-22
20:46:48:191135,10,-14,-26,1,-4,0,14,-1
20:46:48:197092,-11,-59,-15,-7,-4,1,5,-1
20:46:48:204694,-11,-59,-15,-7,-4,1,5,-1
20:46:48:212111,-3,-20,5,14,-2,-5,2,-4
20:46:48:219651,18,27,-4,40,15,2,-10,0
20:46:48:227782,18,27,-4,40,15,2,-10,0
20:46:48:228611,-5,-28,-10,-22,-8,-5,-2,-2
20:46:48:242129,6,57,32,2,2,-5,-50,1
20:46:48:250362,6,57,32,2,2,-5,-50,1
20:46:48:251147,-17,7,-8,8,-3,-1,-9,13
20:46:48:257145,-40,-73,11,-16,0,5,29,-2
20:46:48:264635,-40,-73,11,-16,0,5,29,-2
20:46:48:272150,1,-27,9,21,-5,-7,-6,3
20:46:48:279631,6,-8,42,-13,-3,1,13,2
20:46:48:287828,6,-8,42,-13,-3,1,13,2
20:46:48:288631,-16,1,7,-12,1,2,13,-10
20:46:48:302115,7,4,-24,-8,-1,-4,-3,-3
20:46:48:310296,7,4,-24,-8,-1,-4,-3,-3
20:46:48:311092,9,-26,-15,-5,1,0,23,1
20:46:48:317150,-8,47,12,4,-5,-1,-3,15
20:46:48:324635,-8,47,12,4,-5,-1,-3,15
20:46:48:332094,-7,41,12,0,1,-2,-7,-13
20:46:48:339623,1,-15,-6,3,0,0,5,-3
20:46:48:347821,1,-15,-6,3,0,0,5,-3
20:46:48:348638,36,-11,5,7,2,-5,1,5
20:46:48:362145,-4,5,10,-30,-1,-2,4,-2
20:46:48:370332,-4,5,10,-30,-1,-2,4,-2
20:46:48:371106,12,9,-19,-10,2,-1,-5,12
20:46:48:377097,3,-24,-7,0,-5,-3,13,-9
20:46:48:384675,3,-24,-7,0,-5,-3,13,-9
20:46:48:392117,-1,4,17,11,2,3,3,0
20:46:48:399597,-11,6,-36,-22,-5,2,36,-17
20:46:48:407847,-11,6,-36,-22,-5,2,36,-17
20:46:48:408623,-9,-57,-20,-22,-1,-6,0,4
20:46:48:422093,1,-19,-7,-18,-5,-7,-15,0
20:46:48:430304,1,-19,-7,-18,-5,-7,-15,0
20:46:48:431127,10,-70,-48,2,2,-2,0,-4
20:46:48:437101,-3,-53,13,21,2,1,1,13
20:46:48:444649,-3,-53,13,21,2,1,1,13
20:46:48:452113,-12,-5,-2,-14,-7,1,-23,-5
20:46:48:459615,-4,-37,-55,8,6,-2,6,-21
20:46:48:467810,-4,-37,-55,8,6,-2,6,-21
20:46:48:468587,2,24,28,6,-2,-1,22,10
20:46:48:482103,-5,-35,-6,17,-2,-7,8,0
20:46:48:490333,-5,-35,-6,17,-2,-7,8,0
20:46:48:491125,-1,30,-10,11,2,6,20,-21
20:46:48:497142,-14,6,47,-13,1,4,-11,15
20:46:48:504629,-14,6,47,-13,1,4,-11,15
20:46:48:512099,2,21,-3,-25,-13,-6,-14,-4
20:46:48:519634,8,29,3,28,4,2,-1,5
20:46:48:527814,8,29,3,28,4,2,-1,5
20:46:48:528598,-3,76,23,41,17,7,5,-3
20:46:48:542107,10,35,5,8,-2,-3,8,4
20:46:48:550314,10,35,5,8,-2,-3,8,4
20:46:48:551074,-18,-7,8,-2,-5,1,22,7
20:46:48:557132,13,23,9,9,3,2,-6,3
20:46:48:572861,13,23,9,9,3,2,-6,3
20:46:48:573621,-1,-8,23,-17,1,-1,-9,-3
20:46:48:579619,-42,-47,-36,-11,-3,0,0,-38
20:46:48:587800,-42,-47,-36,-11,-3,0,0,-38
20:46:48:588598,-14,25,12,-1,-5,1,-27,-12
20:46:48:602099,15,50,30,22,-4,-6,-1,11
20:46:48:610372,15,50,30,22,-4,-6,-1,11
20:46:48:611131,-4,-18,-23,-14,-4,-4,5,-2
20:46:48:617131,14,-11,3,-2,3,8,35,16
20:46:48:624620,14,-11,3,-2,3,8,35,16
20:46:48:632130,15,13,12,-3,-2,-7,-3,-4
20:46:48:639612,2,-6,-38,-17,-7,-3,-27,7
20:46:48:647816,2,-6,-38,-17,-7,-3,-27,7
20:46:48:648627,-3,-34,-42,-18,-8,1,2,18
20:46:48:662110,3,-2,24,4,6,-3,-1,-6
20:46:48:670287,3,-2,24,4,6,-3,-1,-6
20:46:48:671099,4,13,1,8,-2,-1,-28,-9
20:46:48:677161,-3,19,19,-10,-4,2,1,11
20:46:48:684653,-3,19,19,-10,-4,2,1,11
20:46:48:692110,6,-32,-26,11,1,-7,0,-3
20:46:48:699589,-16,-5,-32,15,5,3,-22,-8
20:46:48:707844,-16,-5,-32,15,5,3,-22,-8
20:46:48:708605,15,-1,-22,-15,2,1,-2,4
20:46:48:722158,-1,-18,19,-10,-6,-6,-16,-7
20:46:48:730312,-1,-18,19,-10,-6,-6,-16,-7
20:46:48:731103,9,-5,34,2,-3,3,-4,-7
20:46:48:737110,20,50,-1,9,1,2,32,18
20:46:48:744656,20,50,-1,9,1,2,32,18
20:46:48:752103,-16,-8,-1,-6,-4,2,-3,7
20:46:48:759599,-2,-9,6,-11,-1,-3,-20,11
20:46:48:767863,-2,-9,6,-11,-1,-3,-20,11
20:46:48:768630,-21,4,17,1,-5,0,39,0
20:46:48:782118,36,39,-24,-5,-1,-2,-16,9
20:46:48:790320,36,39,-24,-5,-1,-2,-16,9
20:46:48:791120,-17,-27,10,7,3,-6,-9,11
20:46:48:797118,-37,-72,30,2,-5,-4,-9,-15
20:46:48:804666,-37,-72,30,2,-5,-4,-9,-15
20:46:48:812126,-1,10,-26,-23,-2,-1,-11,-8
20:46:48:819604,10,-12,-31,18,3,1,-10,-5
20:46:48:827819,10,-12,-31,18,3,1,-10,-5
20:46:48:828575,-4,-54,-52,21,2,-3,-2,-3
20:46:48:842089,-3,29,38,-22,-12,-6,-24,-17
20:46:48:850347,-3,29,38,-22,-12,-6,-24,-17
20:46:48:851141,13,-6,17,-4,-4,-2,45,-4
20:46:48:857132,-11,-3,-1,5,4,-3,-3,-2
20:46:48:864616,-11,-3,-1,5,4,-3,-3,-2
20:46:48:872127,-9,26,-15,-5,2,6,-22,-29
20:46:48:879626,2,1,-7,-8,-2,5,-3,8
20:46:48:887797,2,1,-7,-8,-2,5,-3,8
20:46:48:888598,8,21,26,12,0,0,-44,8
20:46:48:902112,-9,-12,4,-17,-4,0,15,0
20:46:48:910280,-9,-12,4,-17,-4,0,15,0
20:46:48:911072,-8,-46,19,10,-2,3,-2,-10
20:46:48:917121,-2,-22,3,4,3,0,-9,-13
20:46:48:924678,-2,-22,3,4,3,0,-9,-13
20:46:48:932082,-19,-6,17,-9,1,-4,10,11
20:46:48:939630,6,32,-4,47,6,-2,-13,1
20:46:48:947837,6,32,-4,47,6,-2,-13,1
20:46:48:948605,22,8,-58,-15,1,-2,-44,8
20:46:48:962139,-8,-25,-26,-2,-4,-6,14,-6
20:46:48:970390,-8,-25,-26,-2,-4,-6,14,-6
20:46:48:971127,1,1,-32,-18,-4,0,31,16
20:46:48:977166,11,3,-4,7,-1,-11,-25,9
20:46:48:984655,11,3,-4,7,-1,-11,-25,9
20:46:48:992112,12,31,28,-15,3,2,1,4
20:46:48:999869,-19,-30,-14,-19,-7,-1,11,-4
20:46:49:7831,-19,-30,-14,-19,-7,-1,11,-4
20:46:49:8629,-16,-44,17,11,-3,1,10,-14
20:46:49:22082,-6,-16,-26,-8,0,0,15,-18
20:46:49:30376,-6,-16,-26,-8,0,0,15,-18
20:46:49:31096,22,75,11,6,-6,-3,-12,12
20:46:49:45347,11,7,-25,12,9,9,-2,-11
20:46:49:46106,11,7,-25,12,9,9,-2,-11
20:46:49:52053,-7,-4,17,15,-1,-5,11,-9
20:46:49:59575,-4,-1,5,3,2,3,-7,-16
20:46:49:67136,-4,-1,5,3,2,3,-7,-16
20:46:49:74641,1,33,25,5,4,-2,-8,0
20:46:49:82092,-5,17,9,-21,-3,-2,-4,7
20:46:49:90331,-5,17,9,-21,-3,-2,-4,7
20:46:49:91134,-12,-12,-2,6,3,5,-4,-14
20:46:49:105336,11,28,20,7,1,0,28,19
20:46:49:106111,11,28,20,7,1,0,28,19
20:46:49:112107,14,-19,-24,4,-6,-7,-9,5
20:46:49:119616,5,54,29,-22,-8,0,-8,22
20:46:49:127188,5,54,29,-22,-8,0,-8,22
20:46:49:134589,-1,-47,-12,5,4,1,-14,-14
20:46:49:142166,-12,-26,7,-23,-3,1,4,-17
20:46:49:150359,-12,-26,7,-23,-3,1,4,-17
20:46:49:151134,1,6,6,-1,-2,1,1,-5
20:46:49:165069,7,-22,28,17,-1,-7,15,7
20:46:49:172830,7,-22,28,17,-1,-7,15,7
20:46:49:173624,-10,53,-5,-20,-6,-6,-12,-6
20:46:49:179596,-6,-9,-7,-2,2,-3,-28,-10
20:46:49:187210,-6,-9,-7,-2,2,-3,-28,-10
20:46:49:194630,6,7,37,1,-2,0,18,19
20:46:49:202168,-6,-38,-7,-17,-8,-7,9,5
20:46:49:210313,-6,-38,-7,-17,-8,-7,9,5
20:46:49:211083,-10,47,25,-3,5,0,-18,23
20:46:49:225312,-4,-43,-12,-3,-3,7,-3,-15
20:46:49:226082,-4,-43,-12,-3,-3,7,-3,-15
20:46:49:232131,5,-43,-5,13,5,-4,0,12
20:46:49:239616,-1,25,-15,-24,1,1,-6,-5
20:46:49:247133,-1,25,-15,-24,1,1,-6,-5
20:46:49:254618,-5,-21,4,-14,-8,-2,9,-9
20:46:49:262113,7,-13,9,-12,-7,1,-2,-9
20:46:49:270289,7,-13,9,-12,-7,1,-2,-9
20:46:49:271101,3,-8,-16,-7,6,6,47,-2
20:46:49:285288,-1,73,19,25,2,5,20,9
20:46:49:286133,-1,73,19,25,2,5,20,9
20:46:49:292128,12,-4,-27,-5,-12,-7,-2,-3
20:46:49:299622,-29,2,-2,-3,-2,-4,-20,-3
20:46:49:307150,-29,2,-2,-3,-2,-4,-20,-3
20:46:49:314615,-1,-28,-53,-31,5,2,-13,-14
20:46:49:322097,13,-12,-15,-1,1,4,11,0
20:46:49:330325,13,-12,-15,-1,1,4,11,0
20:46:49:331107,-10,-4,4,18,0,3,14,-1
20:46:49:345337,6,-8,-4,-7,-6,-14,-8,22
20:46:49:346125,6,-8,-4,-7,-6,-14,-8,22
20:46:49:352090,0,7,44,12,5,1,9,-13
20:46:49:359611,-14,-43,-27,-45,-12,-1,-14,-3
20:46:49:367155,-14,-43,-27,-45,-12,-1,-14,-3
20:46:49:374595,-24,23,9,10,2,6,-6,8
20:46:49:382100,4,20,14,13,3,-2,3,13
20:46:49:390316,4,20,14,13,3,-2,3,13
20:46:49:391155,15,-24,-19,-5,-10,0,-3,20
20:46:49:405335,15,4,2,22,7,-1,2,-3
20:46:49:406125,15,4,2,22,7,-1,2,-3
20:46:49:412092,-7,10,11,9,2,-5,-11,21
20:46:49:419594,5,-35,9,1,0,-4,-1,8
20:46:49:427174,5,-35,9,1,0,-4,-1,8
20:46:49:434605,-23,-81,-30,4,-1,-4,-2,-12
20:46:49:442085,-26,-6,3,13,2,0,-10,-13
20:46:49:450352,-26,-6,3,13,2,0,-10,-13
20:46:49:451132,6,-3,-13,-11,-7,-10,-21,-9
20:46:49:465337,17,-17,6,27,8,0,3,10
20:46:49:466141,17,-17,6,27,8,0,3,10
20:46:49:472107,19,12,24,12,-2,-4,-15,-8
20:46:49:479620,-5,-6,-13,-33,-14,-5,-5,-15
20:46:49:487171,-5,-6,-13,-33,-14,-5,-5,-15
20:46:49:494636,-1,39,-1,-19,-6,-5,-2,-4
20:46:49:502118,10,4,-9,-14,4,2,16,4
20:46:49:510334,10,4,-9,-14,4,2,16,4
20:46:49:511086,-5,-3,-28,15,8,-4,-1,-24
20:46:49:525305,4,-29,7,21,0,-6,-27,-9
20:46:49:526079,4,-29,7,21,0,-6,-27,-9
20:46:49:532114,6,-1,6,-13,-7,-2,-2,-1
20:46:49:539609,0,7,-29,4,1,3,-15,5
20:46:49:547119,0,7,-29,4,1,3,-15,5
20:46:49:554614,17,-12,4,3,8,1,0,-2
20:46:49:562150,6,19,5,14,-6,-2,6,0
20:46:49:570303,6,19,5,14,-6,-2,6,0
20:46:49:571109,-13,3,11,6,-4,-3,-5,-7
20:46:49:585316,3,61,40,12,14,5,-2,-9
20:46:49:586084,3,61,40,12,14,5,-2,-9
20:46:49:592060,6,6,4,-22,-9,-12,-12,-2
20:46:49:599614,-11,-19,4,0,-6,-1,8,-9
20:46:49:607171,-11,-19,4,0,-6,-1,8,-9
20:46:49:614588,-33,-97,-16,-16,-7,1,38,-1
20:46:49:622080,0,-2,-1,0,-1,-2,-27,-5
20:46:49:630321,0,-2,-1,0,-1,-2,-27,-5
20:46:49:631122,-13,4,-12,21,-4,-1,-6,2
20:46:49:645296,2,7,-26,-9,14,5,15,-1
20:46:49:646122,2,7,-26,-9,14,5,15,-1
20:46:49:652107,0,37,24,14,2,3,-13,3
20:46:49:659605,-23,38,-7,3,-11,-6,-7,-3
20:46:49:667148,-23,38,-7,3,-11,-6,-7,-3
20:46:49:674584,6,-2,21,-20,1,-4,-1,-5
20:46:49:682145,-17,3,10,8,0,-2,1,11
20:46:49:690328,-17,3,10,8,0,-2,1,11
20:46:49:691127,21,80,-29,9,8,10,47,-4
20:46:49:705318,7,-37,-10,16,1,-4,-14,-10
20:46:49:706124,7,-37,-10,16,1,-4,-14,-10
20:46:49:712093,-7,-46,2,-10,-5,-5,-20,2
20:46:49:727812,-2,21,-21,-13,-11,-3,25,1
20:46:49:728614,-2,21,-21,-13,-11,-3,25,1
20:46:49:734605,-12,27,6,3,4,4,-5,-1
20:46:49:742061,-3,-31,-2,2,-11,-5,-6,14
20:46:49:750335,-3,-31,-2,2,-11,-5,-6,14
20:46:49:751101,3,6,-47,-35,-9,-4,-2,18
20:46:49:765299,8,-5,-1,-20,-6,-1,4,9
20:46:49:766119,8,-5,-1,-20,-6,-1,4,9
20:46:49:772095,3,29,23,2,0,-6,-40,-3
20:46:49:779608,-3,-41,-10,-12,-2,3,18,-20
20:46:49:787174,-3,-41,-10,-12,-2,3,18,-20
20:46:49:794599,-3,9,3,26,10,11,29,2
20:46:49:802110,-9,34,9,3,5,5,21,-30
20:46:49:810356,-9,34,9,3,5,5,21,-30
20:46:49:811130,-17,-25,19,7,-6,-5,-18,-6
20:46:49:825296,9,3,-49,9,8,1,-22,5
20:46:49:826108,9,3,-49,9,8,1,-22,5
20:46:49:832097,-1,32,-5,4,2,3,7,-6
20:46:49:839649,-12,-72,-12,-32,-9,-2,-8,2
20:46:49:847221,-12,-72,-12,-32,-9,-2,-8,2
20:46:49:854651,7,-5,15,9,-3,-5,26,17
20:46:49:862092,-2,-9,6,4,3,1,-24,17
20:46:49:870334,-2,-9,6,4,3,1,-24,17
20:46:49:871098,-21,-6,20,5,2,5,-26,-10
20:46:49:885340,7,31,24,12,2,-8,2,-1
20:46:49:886159,7,31,24,12,2,-8,2,-1
20:46:49:892116,-4,-44,-28,-20,-11,-5,7,-13
20:46:49:899619,1,58,42,29,6,3,12,5
20:46:49:907223,1,58,42,29,6,3,12,5
20:46:49:914636,3,-34,17,-7,-5,-4,-2,-4
20:46:49:922115,0,-16,-6,-22,-2,1,-3,-1
20:46:49:930370,0,-16,-6,-22,-2,1,-3,-1
20:46:49:931091,8,-25,8,-23,-4,-9,-1,18
20:46:49:945343,6,-24,6,6,-3,-3,-1,-2
20:46:49:946084,6,-24,6,6,-3,-3,-1,-2
20:46:49:952125,9,-41,-47,-5,-2,0,-11,14
20:46:49:959650,3,-10,-20,-4,-8,-5,4,1
20:46:49:967157,3,-10,-20,-4,-8,-5,4,1
20:46:49:982802,7,8,9,15,8,4,10,-31
20:46:49:983592,-11,37,-3,-3,-2,2,-1,-6
20:46:49:989634,-11,37,-3,-3,-2,2,-1,-6
20:46:49:997164,19,3,7,-13,-8,-5,2,-3
20:46:50:5291,-8,-7,8,15,6,-1,-6,3
20:46:50:6086,-8,-7,8,15,6,-1,-6,3
20:46:50:12063,-7,-21,-20,-1,-1,1,0,-1
20:46:50:27808,1,-61,-14,-43,-3,0,-13,2
20:46:50:28585,1,-61,-14,-43,-3,0,-13,2
20:46:50:34613,-19,-13,-24,21,1,-1,-12,-4
20:46:50:42189,1,23,-13,-25,-3,-2,8,-3
20:46:50:49648,1,23,-13,-25,-3,-2,8,-3
20:46:50:57078,5,2,66,21,-1,-2,-12,-12
20:46:50:65296,-17,-94,-37,-28,-12,-4,-14,-10
20:46:50:66105,-17,-94,-37,-28,-12,-4,-14,-10
20:46:50:72089,9,-15,-12,4,0,-9,-26,-3
20:46:50:87815,6,-5,38,19,-6,-3,-2,-3
20:46:50:88617,6,-5,38,19,-6,-3,-2,-3
20:46:50:94606,-5,65,28,2,6,2,3,0
20:46:50:102074,-6,22,10,5,6,4,17,-1
20:46:50:109653,-6,22,10,5,6,4,17,-1
20:46:50:117118,9,-42,0,10,4,-2,20,-21
20:46:50:125285,8,36,0,17,-6,-5,13,0
20:46:50:126121,8,36,0,17,-6,-5,13,0
20:46:50:132091,4,-8,-17,2,3,2,25,16
20:46:50:147829,25,60,3,-40,-4,-1,0,1
20:46:50:148622,25,60,3,-40,-4,-1,0,1
20:46:50:154619,-13,-6,-19,-14,-5,1,0,1
20:46:50:162120,-6,-35,-15,-4,2,1,0,5
20:46:50:169720,-6,-35,-15,-4,2,1,0,5
20:46:50:177149,-43,-62,3,5,3,4,-1,-12
20:46:50:185250,-3,-27,25,38,-2,-3,4,-3
20:46:50:186113,-3,-27,25,38,-2,-3,4,-3
20:46:50:192139,-3,-5,-40,-21,-6,3,0,4
20:46:50:207810,-14,-50,8,-4,-8,-2,11,-2
20:46:50:208641,-14,-50,8,-4,-8,-2,11,-2
20:46:50:214600,-2,-13,2,-10,-3,3,13,-3
20:46:50:222127,1,11,-13,4,2,-3,-28,10
20:46:50:237839,1,11,-13,4,2,-3,-28,10
20:46:50:238617,-9,-33,-10,-2,-1,-3,1,-22
20:46:50:245326,2,41,-13,13,3,1,-6,-11
20:46:50:246141,2,41,-13,13,3,1,-6,-11
20:46:50:259595,16,-48,-42,-51,-9,-7,0,16
20:46:50:267807,-7,17,-1,41,9,4,7,14
20:46:50:268649,-7,17,-1,41,9,4,7,14
20:46:50:274590,8,110,44,18,-1,0,-7,0
20:46:50:282113,5,-21,12,-20,2,0,-8,-4
20:46:50:289686,5,-21,12,-20,2,0,-8,-4
20:46:50:297131,5,-2,-13,-5,1,-5,-20,5
20:46:50:305322,6,3,0,10,-2,1,2,-19
20:46:50:306092,6,3,0,10,-2,1,2,-19
20:46:50:312133,8,70,11,12,1,-4,-9,15
20:46:50:327748,-23,-42,-1,-1,0,-1,7,8
20:46:50:328585,-23,-42,-1,-1,0,-1,7,8
20:46:50:334631,-7,25,6,10,2,4,1,-8
20:46:50:342108,-3,-69,-12,1,-1,0,-3,0
20:46:50:349625,-3,-69,-12,1,-1,0,-3,0
20:46:50:357108,8,2,12,18,-3,-3,-20,7
20:46:50:365292,-4,15,18,-19,-1,2,-13,-6
20:46:50:366091,-4,15,18,-19,-1,2,-13,-6
20:46:50:372092,-3,-30,-25,-26,-6,-5,-54,-20
20:46:50:387783,-3,43,10,8,3,-5,-3,1
20:46:50:388591,-3,43,10,8,3,-5,-3,1
20:46:50:394621,3,-14,5,-5,-8,-1,7,6
20:46:50:402141,9,69,2,0,9,3,3,-1
20:46:50:409652,9,69,2,0,9,3,3,-1
20:46:50:417118,13,51,2,-69,-5,6,37,11
20:46:50:425343,10,-14,-20,-10,-9,6,74,10
20:46:50:426126,10,-14,-20,-10,-9,6,74,10
20:46:50:432107,0,-5,8,26,7,2,8,7
20:46:50:447779,-3,4,2,-9,-4,-9,-38,2
20:46:50:448622,-3,4,2,-9,-4,-9,-38,2
20:46:50:454631,-7,-2,-1,6,-2,-2,-8,-9
20:46:50:462056,-24,-11,-26,3,6,8,-3,-17
20:46:50:469670,-24,-11,-26,3,6,8,-3,-17
20:46:50:477107,0,79,8,8,1,1,-16,5
20:46:50:485324,14,-6,15,11,-4,-11,-3,4
20:46:50:486155,14,-6,15,11,-4,-11,-3,4
20:46:50:492115,-8,-7,19,18,8,9,9,-10
20:46:50:507830,10,78,48,4,5,1,-16,10
20:46:50:508632,10,78,48,4,5,1,-16,10
20:46:50:514613,-8,-53,-2,25,2,-4,-36,-8
20:46:50:522141,-6,-56,-24,-13,-11,-3,-25,-33
20:46:50:537835,-6,-56,-24,-13,-11,-3,-25,-33
20:46:50:538631,2,-30,-3,-5,3,5,6,11
20:46:50:545347,11,-31,-11,-6,-5,-4,-3,20
20:46:50:546114,11,-31,-11,-6,-5,-4,-3,20
20:46:50:552127,-9,-5,-40,-7,-2,4,3,6
20:46:50:567811,4,3,3,-14,-9,-11,13,-13
20:46:50:568618,4,3,3,-14,-9,-11,13,-13
20:46:50:574597,-8,-19,-16,-20,-3,-2,-4,2
20:46:50:582090,-23,-95,-31,9,5,2,-12,-10
20:46:50:589676,-23,-95,-31,9,5,2,-12,-10
20:46:50:597098,7,-7,17,24,-4,-10,-10,-10
20:46:50:605328,7,-18,-5,-8,-3,-3,21,3
20:46:50:606148,7,-18,-5,-8,-3,-3,21,3
20:46:50:612123,6,-18,20,-27,-7,-2,12,-3
20:46:50:627822,-18,38,31,7,4,0,37,14
20:46:50:628617,-18,38,31,7,4,0,37,14
20:46:50:634630,12,-1,14,9,-3,1,21,16
20:46:50:642110,-4,-6,2,-10,-1,2,17,-14
20:46:50:649680,-4,-6,2,-10,-1,2,17,-14
20:46:50:657108,0,-8,9,-14,-9,4,35,7
20:46:50:665289,24,37,-9,-4,-2,0,-21,-3
20:46:50:666111,24,37,-9,-4,-2,0,-21,-3
20:46:50:672127,-4,-23,-22,-3,1,-6,1,2
20:46:50:687768,16,-6,0,0,-2,-2,-10,2
20:46:50:688611,16,-6,0,0,-2,-2,-10,2
20:46:50:694610,-12,98,6,6,-1,-5,-15,-17
20:46:50:702103,-10,-14,1,15,-1,-4,-12,2
20:46:50:709644,-10,-14,1,15,-1,-4,-12,2
20:46:50:717135,-10,-41,-28,5,-3,5,8,-3
20:46:50:725293,-6,17,10,5,6,9,-23,7
20:46:50:726088,-6,17,10,5,6,9,-23,7
20:46:50:732074,5,2,4,14,1,-11,3,6
20:46:50:747815,-17,-25,-14,-11,-4,-3,-25,-4
20:46:50:748595,-17,-25,-14,-11,-4,-3,-25,-4
20:46:50:754646,-2,-5,-20,0,4,11,-4,22
20:46:50:762118,6,-22,4,7,4,-14,46,-24
20:46:50:769655,6,-22,4,7,4,-14,46,-24
20:46:50:777073,-4,-30,-11,-8,-2,-3,-4,13
20:46:50:785319,2,2,10,16,1,4,0,1
20:46:50:786122,2,2,10,16,1,4,0,1
20:46:50:792102,-6,-9,30,4,-3,-3,20,-16
20:46:50:807790,5,1,-13,-25,-6,3,-31,-3
20:46:50:808617,5,1,-13,-25,-6,3,-31,-3
20:46:50:814609,4,-6,-8,15,2,0,-3,3
20:46:50:822083,-11,-31,-22,-1,-6,-4,-58,10
20:46:50:829685,-11,-31,-22,-1,-6,-4,-58,10
20:46:50:837096,-44,51,11,-3,-4,-8,-20,-9
20:46:50:845329,3,7,-7,-5,-11,2,4,-32
20:46:50:846150,3,7,-7,-5,-11,2,4,-32
20:46:50:852133,9,-25,4,15,16,-2,7,-9
20:46:50:867816,-20,-73,-7,-11,-4,-8,-19,9
20:46:50:868613,-20,-73,-7,-11,-4,-8,-19,9
20:46:50:874628,4,-48,15,-18,-9,-5,-59,-20
20:46:50:882102,7,3,32,47,15,1,33,16
20:46:50:889708,7,3,32,47,15,1,33,16
20:46:50:897127,-3,-13,13,4,-1,5,-1,-4
20:46:50:905284,16,35,30,12,3,-7,5,12
20:46:50:906065,16,35,30,12,3,-7,5,12
20:46:50:912106,11,28,-11,-15,-2,3,-22,-14
20:46:50:927833,-3,-13,3,-17,-4,-4,4,-16
20:46:50:928660,-3,-13,3,-17,-4,-4,4,-16
20:46:50:934624,-3,1,-23,-48,-10,1,29,5
20:46:50:950298,17,-21,4,-5,0,9,18,12
20:46:50:951136,17,-21,4,-5,0,9,18,12
20:46:50:957138,18,-17,-19,14,2,-6,-27,-19
20:46:50:965325,-29,6,6,-21,-5,-7,-35,28
20:46:50:966141,-29,6,6,-21,-5,-7,-35,28
20:46:50:979604,-5,40,9,12,-4,-5,5,-1
20:46:50:987853,10,15,-19,-11,-12,-6,14,1
20:46:50:988649,10,15,-19,-11,-12,-6,14,1
20:46:50:994693,-5,1,6,-18,8,9,12,10
20:46:51:10311,2,-5,-19,3,-1,-1,4,-9
20:46:51:11133,2,-5,-19,3,-1,-1,4,-9
20:46:51:17119,6,-7,15,26,4,-4,-19,2
20:46:51:25304,-1,-4,-14,-27,1,5,5,-16
20:46:51:26120,-1,-4,-14,-27,1,5,5,-16
20:46:51:39623,5,41,19,16,-3,-9,-30,-18
20:46:51:47827,14,71,-22,3,-1,1,-24,4
20:46:51:48625,14,71,-22,3,-1,1,-24,4
20:46:51:54642,9,1,5,-10,0,9,12,4
20:46:51:70304,-12,6,-9,-15,1,3,18,-3
20:46:51:71132,-12,6,-9,-15,1,3,18,-3
20:46:51:77100,-11,-54,-50,-5,1,1,0,0
20:46:51:85333,11,-4,10,9,6,5,28,8
20:46:51:86120,11,-4,10,9,6,5,28,8
20:46:51:99612,4,18,-18,-15,-2,4,43,-16
20:46:51:107788,-7,-2,15,25,4,3,-7,-7
20:46:51:108628,-7,-2,15,25,4,3,-7,-7
20:46:51:114596,5,9,14,3,-7,-6,4,-5
20:46:51:130302,4,23,-25,-29,-2,1,18,2
20:46:51:131104,4,23,-25,-29,-2,1,18,2
20:46:51:137094,-10,-35,-7,5,-3,-3,2,20
20:46:51:145311,-8,-21,-9,-5,-4,0,-14,-5
20:46:51:146135,-8,-21,-9,-5,-4,0,-14,-5
20:46:51:159707,7,-21,14,-13,-7,4,3,15
20:46:51:167772,-7,-4,-24,3,-1,-2,-17,-3
20:46:51:168594,-7,-4,-24,3,-1,-2,-17,-3
20:46:51:174608,15,43,10,15,10,-2,22,7
20:46:51:190303,-13,37,41,37,1,5,7,7
20:46:51:191091,-13,37,41,37,1,5,7,7
20:46:51:197119,-25,-33,-38,-4,-3,-2,-14,-7
20:46:51:205316,-7,-25,18,32,-2,-2,1,-5
20:46:51:206096,-7,-25,18,32,-2,-2,1,-5
20:46:51:219632,10,31,34,-12,4,3,16,-3
20:46:51:227787,10,31,34,-12,4,3,16,-3
20:46:51:228609,-6,-9,4,-24,-11,-1,-36,-16
20:46:51:234606,20,29,25,5,-4,1,39,36
20:46:51:250307,20,29,25,5,-4,1,39,36
20:46:51:251108,-9,20,-16,-38,-5,-4,-6,1
20:46:51:257129,13,-30,-9,0,5,-8,0,-11
20:46:51:264683,13,-30,-9,0,5,-8,0,-11
20:46:51:272089,-4,36,-5,-4,0,4,-24,-24
20:46:51:279607,-5,15,-59,0,-2,-12,-16,-12
20:46:51:287822,-5,15,-59,0,-2,-12,-16,-12
20:46:51:288602,-3,-4,-39,-21,8,1,37,15
20:46:51:294624,-32,-27,1,-3,-5,-3,-20,-12
20:46:51:310341,-32,-27,1,-3,-5,-3,-20,-12
20:46:51:311093,-8,-16,30,17,3,6,54,10
20:46:51:317098,-4,-9,-6,-1,-6,7,-2,21
20:46:51:324681,-4,-9,-6,-1,-6,7,-2,21
20:46:51:332127,43,37,27,19,7,6,2,-1
20:46:51:339624,-8,-4,-9,-14,1,-1,-6,-8
20:46:51:347891,-8,-4,-9,-14,1,-1,-6,-8
20:46:51:348637,6,-39,-23,-37,-8,-4,-6,4
20:46:51:354601,-3,-19,7,-24,-5,-6,-18,-8
20:46:51:370309,-3,-19,7,-24,-5,-6,-18,-8
20:46:51:371134,-5,-26,-11,14,-4,-9,-13,-5
20:46:51:377142,-1,-4,4,-25,-8,1,7,3
20:46:51:384662,-1,-4,4,-25,-8,1,7,3
20:46:51:392114,8,-7,2,7,1,2,57,24
20:46:51:399597,4,50,14,22,3,4,4,12
20:46:51:407828,4,50,14,22,3,4,4,12
20:46:51:408613,-12,23,19,9,-2,-3,-35,5
20:46:51:414609,-15,-11,-22,-9,0,-2,-19,-7
20:46:51:430335,-15,-11,-22,-9,0,-2,-19,-7
20:46:51:431124,-1,-14,-15,-39,-1,4,4,-11
20:46:51:437124,17,4,30,28,1,2,12,-2
20:46:51:444678,17,4,30,28,1,2,12,-2
20:46:51:452129,-17,-12,-21,5,-7,-2,-7,-10
20:46:51:459605,0,-15,-3,-14,13,11,-9,-11
20:46:51:467794,0,-15,-3,-14,13,11,-9,-11
20:46:51:468593,10,1,-11,19,3,-12,-41,-35
20:46:51:474610,-5,-70,-17,10,-9,-4,-39,3
20:46:51:490342,-5,-70,-17,10,-9,-4,-39,3
20:46:51:491129,-2,-4,20,-3,6,11,11,17
20:46:51:497109,-2,33,-14,-20,-7,0,8,-14
20:46:51:504638,-2,33,-14,-20,-7,0,8,-14
20:46:51:512151,-4,-53,3,16,4,-8,3,7
20:46:51:519649,-1,-1,14,17,3,-5,-34,0
20:46:51:527808,-1,-1,14,17,3,-5,-34,0
20:46:51:528608,4,28,2,5,0,-11,0,-1
20:46:51:534645,5,15,8,19,-7,-10,-12,-10
20:46:51:550363,5,15,8,19,-7,-10,-12,-10
20:46:51:551087,-25,-31,-33,14,7,5,-5,-1
20:46:51:557121,20,77,-7,-5,-3,0,30,17
20:46:51:564670,20,77,-7,-5,-3,0,30,17
20:46:51:572085,-2,-67,-23,-22,-7,2,2,-2
20:46:51:579614,-9,-30,7,12,-5,-2,5,-7
20:46:51:587813,-9,-30,7,12,-5,-2,5,-7
20:46:51:588626,13,15,2,-4,-10,-7,-18,11
20:46:51:594622,2,-42,0,-9,11,14,22,5
20:46:51:610356,2,-42,0,-9,11,14,22,5
20:46:51:611100,17,-34,3,-15,-10,-10,-15,-10
20:46:51:617086,3,2,-13,23,-3,-6,1,-2
20:46:51:624674,3,2,-13,23,-3,-6,1,-2
20:46:51:632087,0,24,49,-14,-1,5,13,-2
20:46:51:639652,-14,-48,15,-6,-2,-7,-6,-14
20:46:51:647852,-14,-48,15,-6,-2,-7,-6,-14
20:46:51:648631,13,26,-16,1,-2,-5,6,7
20:46:51:654652,-7,35,13,7,-2,-20,-55,2
20:46:51:670364,-7,35,13,7,-2,-20,-55,2
20:46:51:671118,-30,6,17,-3,-8,0,-10,-2
20:46:51:677090,14,-13,-57,-2,4,-6,-21,-8
20:46:51:684666,14,-13,-57,-2,4,-6,-21,-8
20:46:51:692122,-5,-11,-8,7,2,0,-5,1
20:46:51:699607,-6,-22,21,14,0,2,2,-18
20:46:51:707843,-6,-22,21,14,0,2,2,-18
20:46:51:708697,10,38,-18,5,2,-7,-33,-29
20:46:51:714644,0,-18,13,-28,-6,3,0,11
20:46:51:730397,0,-18,13,-28,-6,3,0,11
20:46:51:731133,18,16,36,31,9,5,-45,-3
20:46:51:737112,-1,13,6,15,3,0,18,12
20:46:51:744859,-1,13,6,15,3,0,18,12
20:46:51:752104,8,39,-4,-13,-9,-4,-1,12
20:46:51:759666,-10,-21,23,-10,-2,2,26,-7
20:46:51:767791,-10,-21,23,-10,-2,2,26,-7
20:46:51:768611,5,-8,11,-13,-3,-16,13,2
20:46:51:774671,-16,12,26,2,3,8,26,20
20:46:51:790319,-16,12,26,2,3,8,26,20
20:46:51:791092,-18,-8,-25,-3,-4,-8,22,-30
20:46:51:797131,-11,-44,-9,27,0,-3,3,1
20:46:51:804677,-11,-44,-9,27,0,-3,3,1
20:46:51:812101,25,84,-22,-37,8,12,30,14
20:46:51:819642,-1,4,4,18,-4,1,-12,-17
20:46:51:827837,-1,4,4,18,-4,1,-12,-17
20:46:51:828603,-4,-26,8,10,-3,-4,13,-4
20:46:51:834622,6,-20,-9,-13,0,2,32,13
20:46:51:850298,6,-20,-9,-13,0,2,32,13
20:46:51:851101,-8,-62,-14,11,-1,8,20,-40
20:46:51:857069,17,-27,-28,-28,-4,-1,-14,15
20:46:51:864624,17,-27,-28,-28,-4,-1,-14,15
20:46:51:872091,-9,46,13,12,-1,6,1,7
20:46:51:879598,15,5,-8,-20,-1,-4,-5,-28
20:46:51:887851,15,5,-8,-20,-1,-4,-5,-28
20:46:51:888681,0,-15,43,1,-2,-8,-20,11
20:46:51:902101,-6,5,-21,-31,-10,-8,2,1
20:46:51:910320,-6,5,-21,-31,-10,-8,2,1
20:46:51:911120,-13,-24,-4,-13,-4,5,-40,7
20:46:51:917110,-11,-4,8,11,0,-10,3,-25
20:46:51:924685,-11,-4,8,11,0,-10,3,-25
20:46:51:932093,11,-14,-10,16,-3,0,12,18
20:46:51:939633,1,18,25,13,4,-1,7,14
20:46:51:947835,1,18,25,13,4,-1,7,14
20:46:51:948626,-8,-40,-25,8,-4,-5,3,10
20:46:51:962134,-18,-34,9,5,10,5,16,-1
20:46:51:970354,-18,-34,9,5,10,5,16,-1
20:46:51:971141,-6,-23,7,12,5,2,-22,-6
20:46:51:977090,8,16,-8,-27,-9,3,-9,9
20:46:51:984684,8,16,-8,-27,-9,3,-9,9
20:46:51:992124,-3,16,-35,-10,7,3,17,2
20:46:51:999625,-16,24,-13,10,-5,-5,-6,7
20:46:52:7811,-16,24,-13,10,-5,-5,-6,7
20:46:52:8617,-5,5,28,4,-4,2,-11,-27
20:46:52:22113,16,0,-16,2,0,-13,38,37
20:46:52:30340,16,0,-16,2,0,-13,38,37
20:46:52:31125,-13,54,3,16,1,6,2,0
20:46:52:37104,-2,24,22,5,3,2,-16,-15
20:46:52:44635,-2,24,22,5,3,2,-16,-15
20:46:52:52140,-12,-20,-40,-26,-10,-1,67,20
20:46:52:59648,24,22,-5,11,2,13,-34,-20
20:46:52:67819,24,22,-5,11,2,13,-34,-20
20:46:52:68595,-5,38,40,10,1,-3,8,3
20:46:52:82117,-7,-51,-14,9,-3,3,-6,15
20:46:52:90311,-7,-51,-14,9,-3,3,-6,15
20:46:52:91071,7,-3,-7,-33,-1,3,19,4
20:46:52:97103,-13,7,17,-8,0,3,-6,-6
20:46:52:104641,-13,7,17,-8,0,3,-6,-6
20:46:52:112086,5,-12,26,15,7,0,13,-24
20:46:52:119639,-8,-3,11,-7,-5,10,28,-10
20:46:52:127810,-8,-3,11,-7,-5,10,28,-10
20:46:52:128602,-10,-7,18,15,-1,-6,-5,18
20:46:52:142127,0,-1,-11,5,2,3,23,-10
20:46:52:150311,0,-1,-11,5,2,3,23,-10
20:46:52:151117,1,51,1,6,5,1,-5,0
20:46:52:157062,9,-14,-23,-28,2,-3,-19,-2
20:46:52:164655,9,-14,-23,-28,2,-3,-19,-2
20:46:52:172094,-6,-56,-33,20,-5,-12,-18,1
20:46:52:179632,-2,31,26,11,0,-13,11,16
20:46:52:187829,-2,31,26,11,0,-13,11,16
20:46:52:188640,-6,-22,10,8,12,4,0,-11
20:46:52:202086,-5,-12,-6,-5,-7,2,22,-2
20:46:52:210317,-5,-12,-6,-5,-7,2,22,-2
20:46:52:211097,-3,-18,-28,-4,-6,3,-11,-5
20:46:52:217096,12,39,-28,-34,-7,-16,-14,-11
20:46:52:224671,12,39,-28,-34,-7,-16,-14,-11
20:46:52:240254,13,10,13,-8,2,4,6,15
20:46:52:241041,-5,4,-5,8,-1,8,21,-27
20:46:52:247825,-5,4,-5,8,-1,8,21,-27
20:46:52:248595,-19,-57,8,19,-1,-5,-38,-1
20:46:52:262137,-8,-10,-9,-3,-7,-5,2,5
20:46:52:270314,-8,-10,-9,-3,-7,-5,2,5
20:46:52:271126,-10,8,10,-19,-4,-2,-27,-5
20:46:52:277079,-30,-12,-35,6,16,6,-26,-16
20:46:52:284659,-30,-12,-35,6,16,6,-26,-16
20:46:52:292101,11,14,-5,-1,-3,-1,1,-3
20:46:52:299610,13,19,14,-8,-3,5,2,5
20:46:52:307825,13,19,14,-8,-3,5,2,5
20:46:52:308640,6,-16,-12,-10,2,0,18,-10
20:46:52:322089,4,-17,13,18,-7,-1,35,0
20:46:52:330351,4,-17,13,18,-7,-1,35,0
20:46:52:331136,11,5,3,-41,-9,4,-4,-13
20:46:52:337113,-22,-4,-30,2,1,3,-27,2
20:46:52:344685,-22,-4,-30,2,1,3,-27,2
20:46:52:352096,4,-7,-19,-16,0,-4,-2,11
20:46:52:359618,6,-1,0,11,-5,-4,1,1
20:46:52:367881,6,-1,0,11,-5,-4,1,1
20:46:52:368648,4,-12,-2,13,2,-3,-23,2
20:46:52:382102,10,58,3,1,3,1,1,10
20:46:52:390326,10,58,3,1,3,1,1,10
20:46:52:391137,-20,-16,2,-29,-6,-4,4,-6
20:46:52:397090,0,-8,10,-12,-8,-1,-57,10
20:46:52:404676,0,-8,10,-12,-8,-1,-57,10
20:46:52:412109,17,25,23,17,4,-3,-41,8
20:46:52:419616,-8,26,47,10,3,1,2,-5
20:46:52:427814,-8,26,47,10,3,1,2,-5
20:46:52:428612,-5,-11,7,6,-8,-7,2,-31
20:46:52:442083,8,-11,-6,-5,-1,-8,-21,-4
20:46:52:450300,8,-11,-6,-5,-1,-8,-21,-4
20:46:52:451080,3,17,-9,12,3,-12,23,15
20:46:52:457120,2,-22,7,5,-1,-5,37,-25
20:46:52:464672,2,-22,7,5,-1,-5,37,-25
20:46:52:472064,12,12,-14,-6,-12,-8,-3,13
20:46:52:479612,9,-23,0,-6,12,-1,-15,-2
20:46:52:487798,9,-23,0,-6,12,-1,-15,-2
20:46:52:488599,-4,10,4,0,-7,2,-14,2
20:46:52:502111,-5,-8,0,-1,-2,-3,-16,-9
20:46:52:510307,-5,-8,0,-1,-2,-3,-16,-9
20:46:52:511078,-3,-52,-9,-17,3,4,13,2
20:46:52:517111,-3,-36,-15,-23,-12,-4,-11,34
20:46:52:524636,-3,-36,-15,-23,-12,-4,-11,34
20:46:52:532112,0,32,-6,-4,10,8,10,5
20:46:52:539625,-2,12,4,-43,-8,6,6,7
20:46:52:547836,-2,12,4,-43,-8,6,6,7
20:46:52:548608,-6,-18,-41,-1,-4,1,10,7
20:46:52:562140,8,9,-3,-24,2,9,-28,-21
20:46:52:570311,8,9,-3,-24,2,9,-28,-21
20:46:52:571102,-12,10,4,-5,-5,6,-17,-8
20:46:52:577054,25,-3,10,19,-2,-3,-3,18
20:46:52:584663,25,-3,10,19,-2,-3,-3,18
20:46:52:592141,-1,31,20,28,5,0,24,1
20:46:52:599605,1,-1,-17,20,15,1,-28,-2
20:46:52:607879,1,-1,-17,20,15,1,-28,-2
20:46:52:608627,2,45,16,-9,-12,-12,-5,5
20:46:52:622097,-8,-7,-14,14,7,2,34,-9
20:46:52:630333,-8,-7,-14,14,7,2,34,-9
20:46:52:631110,-3,-20,3,11,-3,-9,-13,-25
20:46:52:637085,-7,-26,-20,27,2,-9,-2,-11
20:46:52:644696,-7,-26,-20,27,2,-9,-2,-11
20:46:52:652112,4,-26,-17,-12,-13,-3,-7,1
20:46:52:659610,-7,-3,-2,-16,-3,3,15,-27
20:46:52:667772,-7,-3,-2,-16,-3,3,15,-27
20:46:52:668619,1,32,12,0,2,0,7,19
20:46:52:682098,-8,-55,-7,3,-12,-6,26,2
20:46:52:690316,-8,-55,-7,3,-12,-6,26,2
20:46:52:691130,3,28,-4,-29,-6,-8,-13,-3
20:46:52:697093,-5,-11,6,7,-2,-8,-19,-3
20:46:52:704638,-5,-11,6,7,-2,-8,-19,-3
20:46:52:712159,1,-52,3,3,5,3,7,5
20:46:52:719627,0,21,5,5,-11,-5,9,5
20:46:52:727820,0,21,5,5,-11,-5,9,5
20:46:52:728606,-11,-67,-20,-22,-5,1,1,1
20:46:52:742097,-7,-18,6,31,8,4,-1,4
20:46:52:750293,-7,-18,6,31,8,4,-1,4
20:46:52:751102,-3,-18,-5,-25,0,1,10,-4
20:46:52:757110,-6,20,18,2,15,1,-33,7
20:46:52:764661,-6,20,18,2,15,1,-33,7
20:46:52:772116,1,16,-2,19,-3,-11,-2,-8
20:46:52:779664,-19,69,9,-14,-9,1,11,-5
20:46:52:787787,-19,69,9,-14,-9,1,11,-5
20:46:52:788606,0,25,11,-2,4,8,13,4
20:46:52:810930,-4,9,-1,-24,-13,-7,9,-1
20:46:52:811737,-4,9,-1,-24,-13,-7,9,-1
20:46:52:812614,-2,-3,-17,20,19,2,-9,-8
20:46:52:825353,14,-3,-5,18,-2,-6,29,11
20:46:52:826137,14,-3,-5,18,-2,-6,29,11
20:46:52:832098,-1,1,-5,21,11,0,0,-1
20:46:52:839662,3,20,-18,-59,-19,-10,6,-2
20:46:52:847118,3,20,-18,-59,-19,-10,6,-2
20:46:52:854646,19,40,19,16,1,1,4,-13
20:46:52:862106,-6,-20,14,3,0,3,3,0
20:46:52:870293,-6,-20,14,3,0,3,3,0
20:46:52:871088,5,-7,9,-2,-8,-1,-9,2
20:46:52:885340,1,-3,-1,6,5,4,-14,-3
20:46:52:886090,1,-3,-1,6,5,4,-14,-3
20:46:52:892132,-5,16,9,10,-3,-1,-39,0
20:46:52:899607,-5,-69,-7,-4,-13,-8,-16,5
20:46:52:907143,-5,-69,-7,-4,-13,-8,-16,5
20:46:52:914628,-13,-22,2,-23,4,0,14,0
20:46:52:922067,2,21,15,8,1,3,43,2
20:46:52:930309,2,21,15,8,1,3,43,2
20:46:52:931113,4,-29,-22,11,4,-1,0,-3
20:46:52:945301,-5,95,9,34,5,2,-24,-7
20:46:52:946116,-5,95,9,34,5,2,-24,-7
20:46:52:952075,-10,-31,0,-4,-11,-3,4,-3
20:46:52:959636,7,-17,11,9,1,1,-8,-2
20:46:52:967147,7,-17,11,9,1,1,-8,-2
20:46:52:974631,-5,6,-12,-3,-3,1,-12,-1
20:46:52:982100,-1,-3,-18,-2,3,-2,10,-4
20:46:52:990320,-1,-3,-18,-2,3,-2,10,-4
20:46:52:991099,4,-13,-11,-6,-8,7,1,2
20:46:53:5311,0,-20,0,-19,-4,-5,-11,2
20:46:53:6129,0,-20,0,-19,-4,-5,-11,2
20:46:53:12095,5,6,28,3,10,3,8,5
20:46:53:19621,-1,-2,-7,-25,-8,-2,-5,-7
20:46:53:27202,-1,-2,-7,-25,-8,-2,-5,-7
20:46:53:34625,1,9,12,20,1,1,0,3
20:46:53:42111,3,-15,3,0,5,-11,13,22
20:46:53:50329,3,-15,3,0,5,-11,13,22
20:46:53:51138,-1,-6,12,1,1,-7,-12,-2
20:46:53:65365,2,17,2,2,2,4,-6,-4
20:46:53:66123,2,17,2,2,2,4,-6,-4
20:46:53:72130,-6,-2,-76,-17,-5,-1,14,3
20:46:53:79659,7,1,23,5,7,3,-9,-1
20:46:53:87203,7,1,23,5,7,3,-9,-1
20:46:53:94628,-3,-10,-68,-27,-13,-4,3,-32
20:46:53:102110,0,4,38,24,9,3,-5,-3
20:46:53:110285,0,4,38,24,9,3,-5,-3
20:46:53:111083,9,-32,21,14,6,3,11,27
20:46:53:125348,-13,-11,18,-19,-12,0,-16,-17
20:46:53:126164,-13,-11,18,-19,-12,0,-16,-17
20:46:53:132139,10,45,68,17,8,5,7,3
20:46:53:139630,-40,-117,-49,-49,-27,-13,-15,-16
20:46:53:147124,-40,-117,-49,-49,-27,-13,-15,-16
20:46:53:154631,-3,2,39,4,-7,-1,-9,0
20:46:53:162142,17,14,-33,15,13,5,11,9
20:46:53:170281,17,14,-33,15,13,5,11,9
20:46:53:171077,-5,-25,-8,-16,-3,-5,-5,-9
20:46:53:185260,0,8,-10,3,-2,4,-18,-7
20:46:53:186078,0,8,-10,3,-2,4,-18,-7
20:46:53:192163,3,33,2,-13,18,17,1,2
20:46:53:199620,1,-1,34,16,5,-5,3,1
20:46:53:207150,1,-1,34,16,5,-5,3,1
20:46:53:214620,-9,-19,-8,13,-11,-8,-8,-4
20:46:53:222088,6,9,-17,-58,2,6,12,5
20:46:53:230291,6,9,-17,-58,2,6,12,5
20:46:53:231105,-12,-25,-22,-26,-16,-10,2,-4
20:46:53:245286,2,9,-8,19,-5,-3,-5,1
20:46:53:246116,2,9,-8,19,-5,-3,-5,1
20:46:53:252072,-1,15,-5,6,3,-4,-2,-2
20:46:53:259641,5,22,-8,34,5,0,1,2
20:46:53:267154,5,22,-8,34,5,0,1,2
20:46:53:274620,-5,-11,11,7,-9,-7,-7,-4
20:46:53:282105,-13,-39,-46,-22,-10,-3,-1,-5
20:46:53:290322,-13,-39,-46,-22,-10,-3,-1,-5
20:46:53:291128,1,8,-8,-8,-1,-1,1,0
20:46:53:304661,6,43,12,8,-2,-1,1,1
20:46:53:312812,6,43,12,8,-2,-1,1,1
20:46:53:313607,2,22,18,10,-1,-1,6,2
20:46:53:319629,7,28,27,18,9,3,6,3
20:46:53:327164,7,28,27,18,9,3,6,3
20:46:53:334616,7,24,29,-6,3,0,1,0
20:46:53:342081,11,-8,-6,7,5,7,2,2
20:46:53:350318,11,-8,-6,7,5,7,2,2
20:46:53:351135,-35,12,-5,-3,-6,-4,-7,-6
20:46:53:364673,-5,-4,-1,3,0,0,-6,-8
20:46:53:372829,-5,-4,-1,3,0,0,-6,-8
20:46:53:373621,-14,-21,17,-2,-1,1,2,7
20:46:53:379614,-4,-38,-12,-2,-2,-2,5,17
20:46:53:387158,-4,-38,-12,-2,-2,-2,5,17
20:46:53:394646,-19,-52,62,-46,-32,-21,-9,16
20:46:53:402136,3,-14,108,-25,-27,-23,-8,35
20:46:53:410274,3,-14,108,-25,-27,-23,-8,35
20:46:53:411083,18,19,-19,16,24,15,9,-4
20:46:53:424646,-2,7,-47,-1,0,-1,-1,5
20:46:53:432828,-2,7,-47,-1,0,-1,-1,5
20:46:53:433633,46,28,-8,11,-2,0,-7,-10
20:46:53:439618,-21,-5,-38,6,9,8,13,2
20:46:53:447110,-21,-5,-38,6,9,8,13,2
20:46:53:454643,-25,-10,-20,2,-7,-4,-18,-60
20:46:53:462138,20,7,-6,-7,5,3,0,-7
20:46:53:470340,20,7,-6,-7,5,3,0,-7
20:46:53:471101,2,-14,-24,11,7,0,6,24
20:46:53:484641,-2,36,14,10,-4,-3,0,-14
20:46:53:492848,-2,36,14,10,-4,-3,0,-14
20:46:53:493613,6,5,-13,-4,1,-1,6,3
20:46:53:499668,-6,15,0,8,6,-1,2,-7
20:46:53:507173,-6,15,0,8,6,-1,2,-7
20:46:53:514610,12,4,-3,-4,-4,-3,-18,9
20:46:53:522124,8,-7,-9,-7,-5,-4,-8,-14
20:46:53:530303,8,-7,-9,-7,-5,-4,-8,-14
20:46:53:531125,-23,-4,2,5,4,0,4,3
20:46:53:553439,2,-11,-10,0,6,0,-1,-6
20:46:53:554236,2,-11,-10,0,6,0,-1,-6
20:46:53:555059,12,1,-5,-1,-1,0,4,6
20:46:53:575982,6,2,-3,0,-3,2,0,4
20:46:53:576795,6,2,-3,0,-3,2,0,4
20:46:53:577606,-6,-1,0,-2,0,-2,-3,-9
20:46:53:591029,-8,-9,-7,-2,1,1,-3,-18
20:46:53:591770,-8,-9,-7,-2,1,1,-3,-18
20:46:53:592599,-1,-8,-6,-8,0,0,5,4
20:46:53:613458,0,0,24,17,7,3,-1,3
20:46:53:614250,0,0,24,17,7,3,-1,3
20:46:53:615042,-2,-19,-4,-7,-2,-1,16,0
20:46:53:619640,-18,2,-7,-8,-5,-3,-5,-1
20:46:53:627141,-18,2,-7,-8,-5,-3,-5,-1
20:46:53:634643,19,61,-6,4,2,-2,-11,5
20:46:53:642149,-10,-6,6,-5,-2,0,-12,-7
20:46:53:650307,-10,-6,6,-5,-2,0,-12,-7
20:46:53:651094,-5,-17,-7,1,0,2,0,-1
20:46:53:664695,24,51,-6,0,-1,-1,-5,-2
20:46:53:672778,24,51,-6,0,-1,-1,-5,-2
20:46:53:673619,-1,4,13,3,-1,-4,-3,1
20:46:53:679645,-18,-30,-16,-9,-4,1,3,-4
20:46:53:687161,-18,-30,-16,-9,-4,1,3,-4
20:46:53:694688,-1,15,5,6,3,2,6,-2
20:46:53:702076,7,9,16,7,0,0,1,2
20:46:53:710343,7,9,16,7,0,0,1,2
20:46:53:711120,-20,-42,-11,-2,-2,-3,2,0
20:46:53:724623,-17,13,-2,6,2,0,4,1
20:46:53:732809,-17,13,-2,6,2,0,4,1
20:46:53:733650,3,-16,-6,-4,-1,0,-2,0
20:46:53:739624,17,-11,2,64,9,-3,11,1
20:46:53:747164,17,-11,2,64,9,-3,11,1
20:46:53:754656,-7,-25,-4,-18,-13,-8,-2,-8
20:46:53:762089,-2,-30,-8,-12,-5,-4,2,9
20:46:53:769661,-2,-30,-8,-12,-5,-4,2,9
20:46:53:777098,-3,-6,-8,0,-2,6,14,-3
20:46:53:784640,1,-5,1,1,0,-8,-12,2
20:46:53:792862,1,-5,1,1,0,-8,-12,2
20:46:53:793643,3,17,-3,-8,1,0,-23,6
20:46:53:807803,-4,-8,-4,-14,-2,4,0,-7
20:46:53:808638,-4,-8,-4,-14,-2,4,0,-7
20:46:53:814625,6,-8,1,1,1,1,-3,-6
20:46:53:822109,2,-6,-9,-18,-5,-2,1,-3
20:46:53:829703,2,-6,-9,-18,-5,-2,1,-3
20:46:53:837113,-4,-2,1,15,1,-1,-2,-3
20:46:53:853498,-7,2,-8,-13,-5,1,2,-2
20:46:53:854311,-7,2,-8,-13,-5,1,2,-2
20:46:53:855102,0,1,2,4,0,1,0,-2
20:46:53:875951,-15,-24,-3,-9,-4,1,-7,-9
20:46:53:876752,-15,-24,-3,-9,-4,1,-7,-9
20:46:53:877625,5,-1,-5,-2,-2,0,7,-2
20:46:53:882101,-5,-7,-7,-1,-2,0,-3,-2
20:46:53:897810,-5,-7,-7,-1,-2,0,-3,-2
20:46:53:898629,0,11,3,1,2,1,4,2
20:46:53:904619,-3,-22,-4,-4,-1,0,-2,-8
20:46:53:912852,-3,-22,-4,-4,-1,0,-2,-8
20:46:53:913610,-13,-62,-8,-3,-1,-3,-17,-9
20:46:53:927838,2,-6,-2,-5,-2,-1,9,4
20:46:53:928640,2,-6,-2,-5,-2,-1,9,4
20:46:53:934650,-2,-10,-2,0,-2,-3,-4,-4
20:46:53:942133,2,6,1,-3,1,0,-6,-4
20:46:53:949657,2,6,1,-3,1,0,-6,-4
20:46:53:957100,0,26,8,2,2,1,-2,1
20:46:53:964662,-13,2,-13,0,2,2,4,-2
20:46:53:972831,-13,2,-13,0,2,2,4,-2
20:46:53:973633,1,11,-4,0,-1,-2,-1,3
20:46:53:987800,8,1,6,0,-1,-3,6,4
20:46:53:988616,8,1,6,0,-1,-3,6,4
20:46:53:994853,0,9,-2,-3,-1,2,10,0
20:46:54:2103,1,9,3,-1,0,1,-4,-1
20:46:54:9687,1,9,3,-1,0,1,-4,-1
20:46:54:17113,2,13,1,1,1,-1,4,5
20:46:54:25328,1,-11,-1,0,-1,-2,-5,-2
20:46:54:26114,1,-11,-1,0,-1,-2,-5,-2
20:46:54:32310,7,5,1,0,-2,0,3,-1
20:46:54:47875,-3,1,-2,0,-1,-2,-3,-5
20:46:54:48652,-3,1,-2,0,-1,-2,-3,-5
20:46:54:54678,-1,5,2,-1,-2,-2,-3,1
20:46:54:62096,7,4,-2,-6,-2,0,0,1
20:46:54:69682,7,4,-2,-6,-2,0,0,1
20:46:54:77100,2,5,1,8,2,-1,-4,1
20:46:54:85243,2,2,5,20,4,-1,-1,-1
20:46:54:86075,2,2,5,20,4,-1,-1,-1
20:46:54:92171,-8,4,3,1,-2,-2,1,2
20:46:54:107830,-1,5,2,-6,-4,-1,-3,-4
20:46:54:108635,-1,5,2,-6,-4,-1,-3,-4
20:46:54:114629,0,1,3,1,0,-1,-1,1
20:46:54:130328,-2,-1,-1,-4,1,0,-2,0
20:46:54:131118,-2,-1,-1,-4,1,0,-2,0
20:46:54:137141,-4,-8,-8,-5,-4,-2,-2,-3
20:46:54:153493,-2,-1,-3,-3,-4,-2,-1,0
20:46:54:154281,-2,-1,-3,-3,-4,-2,-1,0
20:46:54:155074,-5,-4,-3,0,-2,-1,2,-4
