Time,EMG1,EMG2,EMG3,EMG4,EMG5,EMG6,EMG7,EMG8
20:47:05:198986,2,0,-1,0,-4,0,3,2
20:47:05:207162,2,0,-1,0,-4,0,3,2
20:47:05:207943,3,0,-3,-1,-1,-2,-3,0
20:47:05:221475,-9,-3,-1,0,0,-1,-7,-6
20:47:05:229664,-9,-3,-1,0,0,-1,-7,-6
20:47:05:230433,-2,-1,-3,0,-2,-1,-4,-2
20:47:05:243988,2,0,0,-1,0,-2,-1,3
20:47:05:252199,2,0,0,-1,0,-2,-1,3
20:47:05:252974,-6,-5,0,0,-2,-1,-1,-1
20:47:05:258961,-4,0,1,1,-1,-2,0,0
20:47:05:266491,-4,0,1,1,-1,-2,0,0
20:47:05:274011,-9,-5,-1,-1,-2,-1,2,-3
20:47:05:281478,3,-2,-2,-1,-2,0,-1,0
20:47:05:289757,3,-2,-2,-1,-2,0,-1,0
20:47:05:290388,3,-2,-2,0,-1,-1,-2,-1
20:47:05:303960,1,-1,-2,-1,-1,-3,1,-1
20:47:05:312146,1,-1,-2,-1,-1,-3,1,-1
20:47:05:312949,1,2,0,-2,-2,-2,-1,-2
20:47:05:319060,0,-2,0,-1,-1,-1,-3,0
20:47:05:326503,0,-2,0,-1,-1,-1,-3,0
20:47:05:333954,1,0,-2,0,0,-1,4,2
20:47:05:341465,2,-2,-1,-2,-1,-1,0,-1
20:47:05:349714,2,-2,-1,-2,-1,-1,0,-1
20:47:05:350456,2,1,0,0,0,0,0,-3
20:47:05:363988,-5,-3,-2,-2,0,-1,-1,-6
20:47:05:372194,-5,-3,-2,-2,0,-1,-1,-6
20:47:05:372965,4,1,-1,-1,-2,-2,-4,-2
20:47:05:378963,-5,-2,-1,0,-1,-2,1,1
20:47:05:386556,-5,-2,-1,0,-1,-2,1,1
20:47:05:393953,3,0,-2,-1,1,-2,-3,-1
20:47:05:401434,6,0,-1,0,0,0,0,-1
20:47:05:409717,6,0,-1,0,0,0,0,-1
20:47:05:410462,-1,0,0,0,-1,1,-2,-1
20:47:05:423939,0,1,1,-2,-3,-1,5,-1
20:47:05:432171,0,1,1,-2,-3,-1,5,-1
20:47:05:432965,-3,-4,-3,-3,0,-2,2,0
20:47:05:438996,-1,-2,-2,-2,-1,1,-2,-2
20:47:05:446540,-1,-2,-2,-2,-1,1,-2,-2
20:47:05:453965,-6,-3,0,-3,-3,0,-1,-1
20:47:05:461477,-1,-1,-2,0,0,-3,-4,-4
20:47:05:469718,-1,-1,-2,0,0,-3,-4,-4
20:47:05:470493,-9,-5,-2,-1,0,1,-2,0
20:47:05:483952,-6,0,0,0,-1,-1,-1,-1
20:47:05:492182,-6,0,0,0,-1,-1,-1,-1
20:47:05:492976,3,-3,0,0,-1,0,3,1
20:47:05:498964,-7,-4,-3,-1,-3,-1,-4,-1
20:47:05:514715,-7,-4,-3,-1,-3,-1,-4,-1
20:47:05:515466,-4,2,0,-1,-2,-3,-13,-1
20:47:05:521442,3,-2,0,-1,-1,1,-1,1
20:47:05:529715,3,-2,0,-1,-1,1,-1,1
20:47:05:530486,6,1,0,-2,-3,-3,-2,0
20:47:05:543953,-1,-1,-1,-1,1,-2,-1,-1
20:47:05:552868,-1,-1,-1,-1,1,-2,-1,-1
20:47:05:553718,0,-1,-1,-2,-1,0,0,-2
20:47:05:559014,0,-2,-2,-1,-1,-2,2,-1
20:47:05:566579,0,-2,-2,-1,-1,-2,2,-1
20:47:05:573987,0,1,-4,-2,-1,-1,2,-1
20:47:05:581478,-2,0,-1,-1,0,-1,3,-2
20:47:05:589676,-2,0,-1,-1,0,-1,3,-2
20:47:05:590436,-3,-1,-2,0,-1,0,0,1
20:47:05:612846,0,1,1,-1,-3,0,-3,-3
20:47:05:613722,0,1,1,-1,-3,0,-3,-3
20:47:05:614406,-1,-1,1,-1,-1,-1,2,-4
20:47:05:618954,0,0,-3,-1,-1,-1,-5,2
20:47:05:626528,0,0,-3,-1,-1,-1,-5,2
20:47:05:633976,-2,-2,4,3,-1,1,0,-1
20:47:05:641468,1,0,6,12,2,0,-2,-5
20:47:05:649711,1,0,6,12,2,0,-2,-5
20:47:05:650400,3,0,-9,-6,-2,-3,-1,-3
20:47:05:663959,2,-3,-9,-5,0,0,1,4
20:47:05:672196,2,-3,-9,-5,0,0,1,4
20:47:05:672996,-4,1,9,6,-3,1,-1,-5
20:47:05:678989,-2,-3,-8,-5,-5,-4,0,1
20:47:05:686475,-2,-3,-8,-5,-5,-4,0,1
20:47:05:694013,0,4,-4,1,4,1,1,2
20:47:05:701459,-5,-1,-11,-9,-6,-2,-3,-1
20:47:05:709701,-5,-1,-11,-9,-6,-2,-3,-1
20:47:05:710449,-5,-2,-15,-21,1,-1,6,0
20:47:05:723960,-1,-1,29,13,-4,-3,0,11
20:47:05:732144,-1,-1,29,13,-4,-3,0,11
20:47:05:732928,-1,-3,-18,-12,1,1,-5,1
20:47:05:738955,2,-1,48,22,-9,-2,0,0
20:47:05:746483,2,-1,48,22,-9,-2,0,0
20:47:05:753921,-3,-5,9,-9,-1,-3,-6,3
20:47:05:761412,0,-1,-33,-13,-1,0,-3,-4
20:47:05:769718,0,-1,-33,-13,-1,0,-3,-4
20:47:05:770461,13,1,5,25,3,-4,-12,15
20:47:05:783972,-7,5,-11,-15,-2,8,16,-3
20:47:05:792156,-7,5,-11,-15,-2,8,16,-3
20:47:05:792957,1,2,-15,2,1,2,7,-1
20:47:05:798940,0,0,-5,11,-1,-4,-7,-4
20:47:05:806499,0,0,-5,11,-1,-4,-7,-4
20:47:05:813966,-4,0,44,12,-6,-5,-4,5
20:47:05:821467,-2,0,-18,-15,5,1,1,-6
20:47:05:829711,-2,0,-18,-15,5,1,1,-6
20:47:05:830463,-2,-6,4,2,-2,-1,-1,-8
20:47:05:843911,3,1,-3,-2,5,1,-9,32
20:47:05:852191,3,1,-3,-2,5,1,-9,32
20:47:05:852964,-6,-5,-31,-8,-2,3,9,-4
20:47:05:858936,-4,0,-9,2,1,-5,9,4
20:47:05:866520,-4,0,-9,2,1,-5,9,4
20:47:05:873932,-6,2,24,12,-2,0,7,-16
20:47:05:881461,0,-3,18,10,-1,-7,-18,-11
20:47:05:889758,0,-3,18,10,-1,-7,-18,-11
20:47:05:890497,-2,0,-15,-7,2,-1,0,-43
20:47:05:903941,5,2,-1,-8,-1,0,4,-7
20:47:05:912160,5,2,-1,-8,-1,0,4,-7
20:47:05:912987,6,3,46,15,-2,0,1,27
20:47:05:918979,2,0,6,3,2,-1,8,21
20:47:05:926552,2,0,6,3,2,-1,8,21
20:47:05:933977,3,2,-13,-2,0,1,0,4
20:47:05:941471,-7,-11,-59,-21,2,2,-9,-12
20:47:05:949638,-7,-11,-59,-21,2,2,-9,-12
20:47:05:950437,-5,-3,-6,-7,-2,-2,-3,4
20:47:05:963956,1,-4,8,7,-3,-2,0,-3
20:47:05:972205,1,-4,8,7,-3,-2,0,-3
20:47:05:972995,-1,-9,-21,-11,-2,-2,0,-5
20:47:05:978971,2,5,10,2,2,1,1,-3
20:47:05:986461,2,5,10,2,2,1,1,-3
20:47:05:993978,-2,-1,-1,-3,-2,-1,-6,22
20:47:06:1486,-2,-7,17,-2,-1,0,-2,-7
20:47:06:9651,-2,-7,17,-2,-1,0,-2,-7
20:47:06:10471,-1,0,-9,-5,-2,0,-1,1
20:47:06:23969,-2,-1,0,-5,-4,0,3,-8
20:47:06:32149,-2,-1,0,-5,-4,0,3,-8
20:47:06:32940,-2,4,2,4,3,3,4,-7
20:47:06:38972,-2,0,-3,-5,-5,-2,1,-7
20:47:06:46487,-2,0,-3,-5,-5,-2,1,-7
20:47:06:53959,-1,-4,-11,-5,2,-4,-4,-2
20:47:06:61425,2,1,-1,-3,1,-5,-25,1
20:47:06:69756,2,1,-1,-3,1,-5,-25,1
20:47:06:70465,-1,1,1,-7,2,2,7,-4
20:47:06:83973,-2,2,6,1,-4,-3,0,-3
20:47:06:92179,-2,2,6,1,-4,-3,0,-3
20:47:06:92953,-2,-1,-7,-32,5,-2,-11,-5
20:47:06:98908,-1,-3,3,-12,-6,0,10,-3
20:47:06:106494,-1,-3,3,-12,-6,0,10,-3
20:47:06:113953,-3,-10,-1,15,2,1,5,-2
20:47:06:121430,0,-1,-4,0,-1,-1,7,-3
20:47:06:129733,0,-1,-4,0,-1,-1,7,-3
20:47:06:130520,0,1,2,1,-9,-5,-8,-3
20:47:06:143981,-1,-1,-5,2,6,0,2,-3
20:47:06:152179,-1,-1,-5,2,6,0,2,-3
20:47:06:152956,-2,-1,-2,1,-3,-4,-9,-3
20:47:06:167146,-2,2,-4,-1,-2,1,3,-1
20:47:06:167959,-2,2,-4,-1,-2,1,3,-1
20:47:06:173936,0,1,2,8,-3,-4,4,1
20:47:06:181436,0,-6,-1,-8,-2,4,3,-1
20:47:06:188993,0,-6,-1,-8,-2,4,3,-1
20:47:06:196479,-3,0,-3,4,2,0,-2,-1
20:47:06:203942,-1,-5,3,1,1,0,0,-2
20:47:06:212168,-1,-5,3,1,1,0,0,-2
20:47:06:212984,1,-1,-1,-2,-5,-5,-9,-1
20:47:06:227170,-3,-1,0,1,-3,-1,-10,-1
20:47:06:227988,-3,-1,0,1,-3,-1,-10,-1
20:47:06:233948,-3,-5,-5,-3,-4,0,10,-3
20:47:06:241457,4,-2,-1,4,4,3,16,-1
20:47:06:249031,4,-2,-1,4,4,3,16,-1
20:47:06:256531,-2,-2,2,-5,3,4,5,1
20:47:06:263943,-1,6,-3,5,-1,-6,-14,-1
20:47:06:272121,-1,6,-3,5,-1,-6,-14,-1
20:47:06:272938,2,2,0,-1,-5,-4,-5,0
20:47:06:287219,0,0,0,-7,-6,-3,-2,-2
20:47:06:287999,0,0,0,-7,-6,-3,-2,-2
20:47:06:293983,-2,0,2,0,4,0,-8,-1
20:47:06:301445,-2,-1,-2,2,-3,-2,-3,-3
20:47:06:308972,-2,-1,-2,2,-3,-2,-3,-3
20:47:06:317119,-3,-3,-2,-5,-3,-1,-3,-3
20:47:06:323965,-1,-1,1,-1,4,2,-2,0
20:47:06:332164,-1,-1,1,-1,4,2,-2,0
20:47:06:332936,-3,0,-2,3,-3,-3,6,-8
20:47:06:347175,1,1,-2,-8,-10,-3,27,-1
20:47:06:347941,1,1,-2,-8,-10,-3,27,-1
20:47:06:353988,-4,-1,1,9,17,0,-13,1
20:47:06:361512,-1,3,13,5,-2,-1,-4,-3
20:47:06:368988,-1,3,13,5,-2,-1,-4,-3
20:47:06:376430,0,-2,-1,6,-8,4,17,-2
20:47:06:383935,-4,-2,16,-4,-5,-8,-9,-1
20:47:06:399653,-4,-2,16,-4,-5,-8,-9,-1
20:47:06:400433,2,-5,-8,-2,3,-2,-16,1
20:47:06:407151,-2,-1,-1,-2,4,-1,-3,-3
20:47:06:407966,-2,-1,-1,-2,4,-1,-3,-3
20:47:06:413928,1,8,18,3,-6,-3,-1,0
20:47:06:421454,-1,-3,-7,11,5,-1,-7,1
20:47:06:437158,-1,-3,-7,11,5,-1,-7,1
20:47:06:437929,-2,3,3,-4,4,4,22,-2
20:47:06:443974,-4,-6,-12,-2,-3,-2,8,1
20:47:06:452350,-4,-6,-12,-2,-3,-2,8,1
20:47:06:452957,0,-3,2,-5,-6,-11,-26,-2
20:47:06:467140,0,5,5,8,3,6,-16,-2
20:47:06:467949,0,5,5,8,3,6,-16,-2
20:47:06:473982,0,-3,-9,-12,-11,-5,-11,6
20:47:06:481465,1,1,-8,-4,5,-3,-24,-2
20:47:06:489138,1,1,-8,-4,5,-3,-24,-2
20:47:06:496426,6,1,-3,4,1,-4,-21,-1
20:47:06:503940,-6,3,-11,-8,-7,1,17,3
20:47:06:512189,-6,3,-11,-8,-7,1,17,3
20:47:06:512957,5,1,2,4,-8,1,10,-1
20:47:06:527141,0,-5,-3,2,6,-1,1,-8
20:47:06:527969,0,-5,-3,2,6,-1,1,-8
20:47:06:533927,-3,-9,-14,-10,-5,-3,7,-1
20:47:06:541420,1,1,0,-3,-3,0,4,0
20:47:06:549030,1,1,0,-3,-3,0,4,0
20:47:06:556459,-2,-15,-16,-4,-2,-5,-16,-3
20:47:06:563996,-1,-1,0,6,1,-6,-6,-2
20:47:06:572184,-1,-1,0,6,1,-6,-6,-2
20:47:06:572956,0,2,3,2,3,3,1,1
20:47:06:587152,2,-2,-2,-2,-3,-2,-7,-1
20:47:06:587978,2,-2,-2,-2,-3,-2,-7,-1
20:47:06:593945,-9,2,2,-2,1,5,6,-1
20:47:06:601480,-1,-9,-1,-2,-5,2,2,1
20:47:06:609077,-1,-9,-1,-2,-5,2,2,1
20:47:06:616454,0,8,3,8,22,4,5,0
20:47:06:623937,-2,-6,-4,-14,-9,-5,-4,-1
20:47:06:632188,-2,-6,-4,-14,-9,-5,-4,-1
20:47:06:632995,0,-2,-2,-15,-3,3,5,-1
20:47:06:647204,5,7,0,1,5,0,-3,1
20:47:06:647993,5,7,0,1,5,0,-3,1
20:47:06:653966,1,8,8,10,-5,-2,5,-2
20:47:06:661448,0,5,1,-8,-4,2,-4,1
20:47:06:668978,0,5,1,-8,-4,2,-4,1
20:47:06:676464,2,-13,-9,-1,-9,-5,-2,-4
20:47:06:683982,8,-3,-23,-8,8,6,1,-1
20:47:06:692179,8,-3,-23,-8,8,6,1,-1
20:47:06:692929,-14,-3,17,22,1,-1,0,2
20:47:06:707167,5,-13,-7,11,0,-1,2,1
20:47:06:707957,5,-13,-7,11,0,-1,2,1
20:47:06:713975,-1,3,10,-25,-10,-1,3,0
20:47:06:729748,-11,43,11,2,7,-1,-2,-4
20:47:06:730473,-11,43,11,2,7,-1,-2,-4
20:47:06:736459,9,2,38,32,3,0,3,5
20:47:06:743933,0,-116,-67,-43,-15,-11,-16,-11
20:47:06:752130,0,-116,-67,-43,-15,-11,-16,-11
20:47:06:752939,-8,12,-11,3,-5,-5,-12,-3
20:47:06:767192,10,4,22,21,3,0,0,7
20:47:06:768021,10,4,22,21,3,0,0,7
20:47:06:773945,-5,-3,-12,-5,0,-2,4,-4
20:47:06:781462,-7,14,20,12,1,-2,-13,-1
20:47:06:788984,-7,14,20,12,1,-2,-13,-1
20:47:06:796463,-17,-4,-2,-2,-10,-4,-2,-3
20:47:06:803963,-7,21,9,3,7,8,13,-5
20:47:06:812165,-7,21,9,3,7,8,13,-5
20:47:06:812930,-10,6,-29,-13,6,2,0,0
20:47:06:827152,-1,51,10,30,-1,2,6,4
20:47:06:827968,-1,51,10,30,-1,2,6,4
20:47:06:834006,2,-22,-39,-25,-11,-4,-7,-3
20:47:06:841531,-2,15,-6,1,6,-3,-17,-1
20:47:06:848967,-2,15,-6,1,6,-3,-17,-1
20:47:06:856414,17,11,26,9,3,1,14,10
20:47:06:863931,-5,32,7,-11,-5,0,19,1
20:47:06:872142,-5,32,7,-11,-5,0,19,1
20:47:06:872956,-9,21,-9,-11,1,3,7,-1
20:47:06:887118,4,-28,-16,-3,-4,-1,-1,-3
20:47:06:887959,4,-28,-16,-3,-4,-1,-1,-3
20:47:06:893949,8,-1,9,13,-1,2,10,0
20:47:06:901459,-17,-2,14,4,-5,-2,-7,-3
20:47:06:909007,-17,-2,14,4,-5,-2,-7,-3
20:47:06:916454,6,-5,10,-1,3,-3,1,-10
20:47:06:923948,8,-17,-21,6,-4,-4,-18,1
20:47:06:932182,8,-17,-21,6,-4,-4,-18,1
20:47:06:932955,6,-5,6,-5,-2,0,5,-7
20:47:06:947147,-5,-8,-39,-19,-5,3,17,8
20:47:06:947963,-5,-8,-39,-19,-5,3,17,8
20:47:06:953975,-10,-33,-1,5,6,0,-13,-2
20:47:06:977815,-1,-7,10,-21,-8,-4,-17,-5
20:47:06:978600,-1,-7,10,-21,-8,-4,-17,-5
20:47:06:979419,5,10,-8,1,7,0,9,3
20:47:06:983991,-3,5,52,13,-1,-3,-11,-10
20:47:06:992144,-3,5,52,13,-1,-3,-11,-10
20:47:06:992937,-5,-13,-14,-5,-5,-10,-25,4
20:47:07:7120,-6,7,27,14,9,1,8,6
20:47:07:7958,-6,7,27,14,9,1,8,6
20:47:07:14001,3,0,15,-3,-2,-1,6,-3
20:47:07:21527,-4,-15,3,-11,-1,-4,13,-5
20:47:07:29018,-4,-15,3,-11,-1,-4,13,-5
20:47:07:36443,-2,4,32,-10,-10,-2,8,0
20:47:07:44008,12,44,9,12,1,5,29,-1
20:47:07:52153,12,44,9,12,1,5,29,-1
20:47:07:52992,-8,-10,4,-2,-1,-1,-14,-5
20:47:07:66889,15,5,-6,4,6,-1,-15,0
20:47:07:74674,15,5,-6,4,6,-1,-15,0
20:47:07:75448,9,4,-26,-10,-8,-8,-9,-11
20:47:07:81458,6,-6,-5,-4,-3,1,-4,1
20:47:07:88999,6,-6,-5,-4,-3,1,-4,1
20:47:07:96433,-1,5,11,1,4,0,-12,5
20:47:07:103931,-2,-30,12,-6,-6,-4,-3,6
20:47:07:111496,-2,-30,12,-6,-6,-4,-3,6
20:47:07:118964,1,0,-7,10,-1,1,-2,-3
20:47:07:127165,-11,56,18,-34,-5,-3,-8,-18
20:47:07:127964,-11,56,18,-34,-5,-3,-8,-18
20:47:07:133979,17,16,7,3,0,1,2,-8
20:47:07:149671,-20,-37,-32,1,-3,1,-15,-7
20:47:07:150485,-20,-37,-32,1,-3,1,-15,-7
20:47:07:156472,5,-17,-1,5,-2,3,16,-2
20:47:07:163939,5,14,6,-4,0,-2,7,2
20:47:07:171544,5,14,6,-4,0,-2,7,2
20:47:07:178955,-1,8,-29,-7,6,4,0,7
20:47:07:187161,16,-14,-12,-1,7,0,6,1
20:47:07:187936,16,-14,-12,-1,7,0,6,1
20:47:07:193969,-17,-1,-12,-4,-2,1,6,1
20:47:07:209651,-6,-12,-2,-4,-11,-2,-1,7
20:47:07:210491,-6,-12,-2,-4,-11,-2,-1,7
20:47:07:216448,-10,-12,-37,2,4,7,30,1
20:47:07:223940,-8,-22,-21,20,2,-2,-12,4
20:47:07:231478,-8,-22,-21,20,2,-2,-12,4
20:47:07:238966,-5,39,4,-5,-5,-2,-11,-12
20:47:07:247131,-3,4,-1,-3,0,1,9,-13
20:47:07:247940,-3,4,-1,-3,0,1,9,-13
20:47:07:261474,7,-5,22,1,-4,-6,-24,-2
20:47:07:269619,-14,12,15,22,8,3,-1,12
20:47:07:270436,-14,12,15,22,8,3,-1,12
20:47:07:284594,1,-23,-38,3,-1,-2,-4,0
20:47:07:285431,1,-21,1,3,-12,-4,7,6
20:47:07:291520,1,-21,1,3,-12,-4,7,6
20:47:07:298966,-5,-8,3,-28,0,-1,16,4
20:47:07:307119,1,6,-16,-16,-9,-1,9,-11
20:47:07:307938,1,6,-16,-16,-9,-1,9,-11
20:47:07:314002,0,19,5,18,2,-1,-14,1
20:47:07:329611,-11,-6,16,1,-1,-3,14,-4
20:47:07:330424,-11,-6,16,1,-1,-3,14,-4
20:47:07:336447,10,-31,-44,-20,-4,5,2,3
20:47:07:343951,-16,-6,8,1,-3,-3,-19,1
20:47:07:351504,-16,-6,8,1,-3,-3,-19,1
20:47:07:358992,-5,8,48,16,3,-5,11,24
20:47:07:367147,13,-16,-17,5,1,-6,-18,3
20:47:07:367945,13,-16,-17,5,1,-6,-18,3
20:47:07:373919,5,16,18,19,6,-2,-7,-3
20:47:07:389671,10,43,12,-5,0,2,8,5
20:47:07:390450,10,43,12,-5,0,2,8,5
20:47:07:396473,0,-22,-19,-2,4,-2,-7,-6
20:47:07:403969,1,-13,-20,7,2,0,-13,-6
20:47:07:411467,1,-13,-20,7,2,0,-13,-6
20:47:07:418952,-6,2,19,-12,-11,5,14,-6
20:47:07:427142,-10,-29,14,6,3,4,0,-1
20:47:07:427975,-10,-29,14,6,3,4,0,-1
20:47:07:441476,-12,-34,-33,-13,-2,-7,-14,-11
20:47:07:449634,4,-40,-4,-12,5,7,-7,0
20:47:07:450456,4,-40,-4,-12,5,7,-7,0
20:47:07:456440,2,10,3,-26,-13,-2,-11,0
20:47:07:463927,-18,3,-22,-30,-6,-7,-2,-3
20:47:07:471506,-18,3,-22,-30,-6,-7,-2,-3
20:47:07:478954,-6,-3,-17,-18,-7,-4,-8,-2
20:47:07:487151,15,8,26,-6,-1,-2,-5,3
20:47:07:487967,15,8,26,-6,-1,-2,-5,3
20:47:07:493945,0,8,12,20,-1,4,7,3
20:47:07:509680,9,11,6,3,4,5,2,-19
20:47:07:510469,9,11,6,3,4,5,2,-19
20:47:07:516472,-23,6,15,8,2,2,4,1
20:47:07:523931,16,4,-1,19,-1,-1,6,-1
20:47:07:531527,16,4,-1,19,-1,-1,6,-1
20:47:07:538956,13,5,23,1,2,1,10,-5
20:47:07:547110,2,-34,7,9,0,-5,1,2
20:47:07:547917,2,-34,7,9,0,-5,1,2
20:47:07:553948,29,-18,31,3,-4,-1,-8,-1
20:47:07:569734,-3,-11,-13,-6,-9,-5,-10,-6
20:47:07:570416,-3,-11,-13,-6,-9,-5,-10,-6
20:47:07:576456,-1,-22,-36,4,14,-10,-53,1
20:47:07:583963,6,25,-19,-1,-1,-11,-4,2
20:47:07:591559,6,25,-19,-1,-1,-11,-4,2
20:47:07:598982,-21,8,13,1,-6,-6,-7,-18
20:47:07:607143,20,3,-13,-8,0,1,-10,3
20:47:07:607947,20,3,-13,-8,0,1,-10,3
20:47:07:613974,-32,-24,3,-4,4,4,16,7
20:47:07:629603,-24,-7,-6,-3,-1,1,6,-8
20:47:07:630439,-24,-7,-6,-3,-1,1,6,-8
20:47:07:636457,27,32,-3,2,-7,-3,-1,0
20:47:07:643940,4,5,-56,-20,-4,-2,-21,8
20:47:07:651490,4,5,-56,-20,-4,-2,-21,8
20:47:07:658970,-11,-1,37,8,-3,-3,-3,-4
20:47:07:667164,5,14,30,-3,3,2,13,1
20:47:07:667962,5,14,30,-3,3,2,13,1
20:47:07:673948,-16,25,1,-11,-3,4,-4,2
20:47:07:689646,0,70,25,19,4,2,9,5
20:47:07:690466,0,70,25,19,4,2,9,5
20:47:07:696468,-10,-7,-21,-49,-5,-2,0,-2
20:47:07:703972,-15,21,15,-2,-2,3,11,-3
20:47:07:711515,-15,21,15,-2,-2,3,11,-3
20:47:07:718939,26,21,21,31,1,-5,-13,9
20:47:07:727167,-10,-38,-23,-3,-3,-1,-7,12
20:47:07:727973,-10,-38,-23,-3,-3,-1,-7,12
20:47:07:733929,9,-10,-10,8,3,6,13,-2
20:47:07:749663,-9,18,14,12,-7,-2,13,1
20:47:07:750455,-9,18,14,12,-7,-2,13,1
20:47:07:756437,18,-19,-3,3,13,0,-1,-2
20:47:07:763953,-18,-16,-7,17,6,-3,-13,-5
20:47:07:771528,-18,-16,-7,17,6,-3,-13,-5
20:47:07:778958,-10,-54,-3,0,-11,-9,1,-6
20:47:07:787165,35,-2,33,-9,1,0,10,-2
20:47:07:787967,35,-2,33,-9,1,0,10,-2
20:47:07:793972,1,10,-23,-4,-6,-5,-2,-5
20:47:07:809693,-8,-13,-25,-13,-3,-4,-24,-8
20:47:07:810476,-8,-13,-25,-13,-3,-4,-24,-8
20:47:07:816483,-14,11,-10,6,-2,-3,-1,1
20:47:07:823960,6,-11,-2,-9,-1,9,3,3
20:47:07:839710,6,-11,-2,-9,-1,9,3,3
20:47:07:840444,-19,11,-5,3,-1,0,13,9
20:47:07:847148,-6,-2,-39,-8,-2,-6,-7,4
20:47:07:847971,-6,-2,-39,-8,-2,-6,-7,4
20:47:07:853923,-1,-29,21,12,1,2,-2,-10
20:47:07:869652,-25,-4,-18,-9,2,-1,5,-4
20:47:07:870446,-25,-4,-18,-9,2,-1,5,-4
20:47:07:876429,10,12,-18,-23,-6,-1,-3,-2
20:47:07:883942,-4,-2,31,1,7,2,16,-1
20:47:07:891514,-4,-2,31,1,7,2,16,-1
20:47:07:898957,-1,-2,-4,24,0,0,-13,1
20:47:07:907169,3,12,-7,-29,-12,-3,-2,2
20:47:07:907981,3,12,-7,-29,-12,-3,-2,2
20:47:07:914044,22,40,35,10,1,4,33,1
20:47:07:929662,-10,14,-9,0,0,-7,-16,-5
20:47:07:930478,-10,14,-9,0,0,-7,-16,-5
20:47:07:936477,-15,2,-6,-5,0,-3,2,-7
20:47:07:943925,-6,-26,5,-10,-10,2,2,-10
20:47:07:951515,-6,-26,5,-10,-10,2,2,-10
20:47:07:958948,1,-9,-6,5,8,2,-1,-11
20:47:07:967159,-2,21,-7,3,3,1,4,-2
20:47:07:967919,-2,21,-7,3,3,1,4,-2
20:47:07:973943,7,-22,1,11,-9,-3,-5,1
20:47:07:989664,-23,-7,22,23,-4,0,1,-6
20:47:07:990472,-23,-7,22,23,-4,0,1,-6
20:47:07:996458,7,22,21,-3,-1,-3,-6,6
20:47:08:3961,-25,-8,43,20,4,5,17,13
20:47:08:11478,-25,-8,43,20,4,5,17,13
20:47:08:19001,7,-11,-26,-6,-4,0,1,3
20:47:08:27138,-2,-36,7,-5,-1,0,-1,-5
20:47:08:27944,-2,-36,7,-5,-1,0,-1,-5
20:47:08:33924,-6,17,2,-2,4,0,-12,-3
20:47:08:49627,17,-16,-20,-24,-12,-10,6,13
20:47:08:50465,17,-16,-20,-24,-12,-10,6,13
20:47:08:56472,3,-15,-5,-18,-4,0,-5,-7
20:47:08:72114,8,-12,-9,16,16,5,-16,-20
20:47:08:72917,8,-12,-9,16,16,5,-16,-20
20:47:08:78958,-14,-29,-3,-2,0,9,29,4
20:47:08:87207,6,-2,2,9,-4,-4,1,-10
20:47:08:87948,6,-2,2,9,-4,-4,1,-10
20:47:08:101950,-17,4,17,-12,-9,-6,-14,-3
20:47:08:117837,7,12,6,-3,8,2,-2,1
20:47:08:118639,7,12,6,-3,8,2,-2,1
20:47:08:119431,-2,0,-8,-8,-1,-3,-7,-4
20:47:08:132159,17,45,25,4,-2,-1,-5,0
20:47:08:132974,17,45,25,4,-2,-1,-5,0
20:47:08:138957,-2,-2,-34,-1,-1,-5,19,10
20:47:08:147144,3,3,-5,0,5,-4,-14,11
20:47:08:147987,3,3,-5,0,5,-4,-14,11
20:47:08:161465,4,18,2,9,1,-4,-5,3
20:47:08:169643,1,-39,-28,-12,-13,-3,1,7
20:47:08:170452,1,-39,-28,-12,-13,-3,1,7
20:47:08:176432,1,-25,-23,4,0,-2,-8,2
20:47:08:192132,15,9,5,27,2,4,-1,-6
20:47:08:192950,15,9,5,27,2,4,-1,-6
20:47:08:198943,22,7,-12,-2,-5,0,6,-2
20:47:08:207143,9,-19,11,-4,0,-6,-24,-8
20:47:08:207943,9,-19,11,-4,0,-6,-24,-8
20:47:08:221538,-2,19,-2,-30,-1,-1,10,-3
20:47:08:229649,0,17,-17,7,-1,4,-15,-9
20:47:08:230459,0,17,-17,7,-1,4,-15,-9
20:47:08:236431,8,-1,3,-5,-3,0,6,-6
20:47:08:252154,-6,-24,2,-8,-2,-3,13,-5
20:47:08:252985,-6,-24,2,-8,-2,-3,13,-5
20:47:08:259006,-12,-32,-22,30,8,2,-6,-2
20:47:08:267146,-8,-7,-2,-35,-19,-3,6,1
20:47:08:267939,-8,-7,-2,-35,-19,-3,6,1
20:47:08:281454,-11,-15,-3,3,9,1,-3,2
20:47:08:289657,-4,-5,-22,4,1,2,21,3
20:47:08:290449,-4,-5,-22,4,1,2,21,3
20:47:08:296409,-1,15,32,9,-2,-1,-16,0
20:47:08:312121,-11,-20,14,-50,-4,1,3,-5
20:47:08:312947,-11,-20,14,-50,-4,1,3,-5
20:47:08:318989,1,0,-18,-6,-2,-3,-11,1
20:47:08:327127,8,-6,-32,-7,-1,-4,-4,9
20:47:08:327944,8,-6,-32,-7,-1,-4,-4,9
20:47:08:341463,-10,1,-13,-6,-2,-5,-22,-3
20:47:08:349612,5,14,0,10,3,-6,1,2
20:47:08:350458,5,14,0,10,3,-6,1,2
20:47:08:356522,23,21,-6,6,4,-2,-17,7
20:47:08:372131,5,-11,-3,2,-5,0,5,-14
20:47:08:372938,5,-11,-3,2,-5,0,5,-14
20:47:08:378965,2,-41,8,4,-5,1,10,-3
20:47:08:394755,-1,1,-5,23,3,6,7,7
20:47:08:395487,-1,1,-5,23,3,6,7,7
20:47:08:401451,-4,7,-2,-16,4,-3,21,2
20:47:08:409760,-4,7,-2,-16,4,-3,21,2
20:47:08:410475,-22,12,-26,6,4,-6,-6,10
20:47:08:416733,-11,61,12,7,0,6,-3,0
20:47:08:432188,-11,61,12,7,0,6,-3,0
20:47:08:432977,4,5,-3,-4,-6,2,-4,18
20:47:08:438955,-21,-1,8,0,-5,-4,-7,-2
20:47:08:454699,-21,-1,8,0,-5,-4,-7,-2
20:47:08:455478,-7,-6,-7,2,5,-2,20,-2
20:47:08:461449,3,14,17,-9,-5,9,19,1
20:47:08:469735,3,14,17,-9,-5,9,19,1
20:47:08:470491,-3,-6,3,9,-6,15,54,-30
20:47:08:476446,18,-28,-17,-13,-2,-6,14,1
20:47:08:492211,18,-28,-17,-13,-2,-6,14,1
20:47:08:492973,-4,1,21,-4,8,-5,-15,-5
20:47:08:498936,-2,-5,28,8,1,5,-8,8
20:47:08:514663,-2,-5,28,8,1,5,-8,8
20:47:08:515444,11,4,2,18,-5,-4,26,-1
20:47:08:521431,-6,-20,-36,-16,-9,-4,37,4
20:47:08:529744,-6,-20,-36,-16,-9,-4,37,4
20:47:08:530416,-17,22,8,11,3,1,-20,-30
20:47:08:536432,-7,28,1,-30,-5,-4,-28,-16
20:47:08:552193,-7,28,1,-30,-5,-4,-28,-16
20:47:08:552991,11,-14,-13,4,-4,-6,-20,5
20:47:08:558933,-5,-13,6,21,-3,3,15,-2
20:47:08:574687,-5,-13,6,21,-3,3,15,-2
20:47:08:575454,-6,4,-14,4,6,-6,-24,6
20:47:08:581440,-1,-47,6,-4,-7,-8,6,1
20:47:08:589661,-1,-47,6,-4,-7,-8,6,1
20:47:08:590474,-4,10,4,2,-1,2,-9,3
20:47:08:596424,5,-16,-1,6,-4,-1,-20,-22
20:47:08:612181,5,-16,-1,6,-4,-1,-20,-22
20:47:08:612952,3,-12,15,3,2,-2,-25,11
20:47:08:618936,9,36,-4,-3,2,-1,-12,-2
20:47:08:634645,9,36,-4,-3,2,-1,-12,-2
20:47:08:635447,-5,-1,22,-15,-2,-3,7,3
20:47:08:641420,-7,-14,-28,-5,5,9,-7,-3
20:47:08:657791,-7,-14,-28,-5,5,9,-7,-3
20:47:08:658601,8,-17,-22,-16,-5,-1,-1,-1
20:47:08:659396,-7,30,14,10,5,-2,-19,2
20:47:08:672667,-7,30,14,10,5,-2,-19,2
20:47:08:673402,9,23,-8,-7,0,-2,-14,3
20:47:08:678965,3,6,8,8,-3,-3,31,22
20:47:08:694702,3,6,8,8,-3,-3,31,22
20:47:08:695472,-22,7,3,-1,-7,-1,9,-12
20:47:08:701462,6,2,-22,-7,6,-2,-3,5
20:47:08:709659,6,2,-22,-7,6,-2,-3,5
20:47:08:710439,17,-1,7,2,-1,-1,31,10
20:47:08:716448,-10,-27,11,-13,1,-2,-12,-12
20:47:08:732186,-10,-27,11,-13,1,-2,-12,-12
20:47:08:732990,4,-20,6,5,-1,-1,-41,-22
20:47:08:738981,-3,-14,8,-2,-9,-2,-17,-12
20:47:08:754705,-3,-14,8,-2,-9,-2,-17,-12
20:47:08:755490,-10,2,17,-7,-1,7,19,-1
20:47:08:761441,4,2,1,4,-1,1,-23,5
20:47:08:769763,4,2,1,4,-1,1,-23,5
20:47:08:770450,3,12,-12,-9,-9,-9,-18,6
20:47:08:776463,1,-11,8,2,-3,-3,4,-30
20:47:08:792197,1,-11,8,2,-3,-3,4,-30
20:47:08:793005,-7,-24,15,1,-1,3,13,1
20:47:08:798937,9,-7,-49,-11,5,-3,-20,4
20:47:08:814671,9,-7,-49,-11,5,-3,-20,4
20:47:08:815469,-14,-5,3,21,-2,-2,-5,-4
20:47:08:821454,-12,-6,11,-21,3,0,20,12
20:47:08:829667,-12,-6,11,-21,3,0,20,12
20:47:08:830481,4,3,-24,-1,8,3,-16,-3
20:47:08:836427,0,-8,-6,10,-2,-5,-2,13
20:47:08:852164,0,-8,-6,10,-2,-5,-2,13
20:47:08:852949,-8,36,7,-1,-6,-3,14,-2
20:47:08:858943,7,6,7,15,7,7,20,-1
20:47:08:874702,7,6,7,15,7,7,20,-1
20:47:08:875478,-10,0,-33,-18,-1,0,-7,1
20:47:08:881446,-5,0,-13,-21,-11,-5,-14,-1
20:47:08:889703,-5,0,-13,-21,-11,-5,-14,-1
20:47:08:890492,-5,-49,22,15,6,-2,4,1
20:47:08:896472,0,5,14,8,-4,-7,3,4
20:47:08:912329,0,5,14,8,-4,-7,3,4
20:47:08:912957,29,-35,-8,1,-1,5,-7,-7
20:47:08:918933,-10,4,8,6,-3,-1,-6,-3
20:47:08:934681,-10,4,8,6,-3,-1,-6,-3
20:47:08:935432,6,-66,-1,8,3,-4,-4,5
20:47:08:941424,12,18,-11,-14,-1,1,7,-13
20:47:08:949650,12,18,-11,-14,-1,1,7,-13
20:47:08:950441,-5,17,6,11,4,0,8,-4
20:47:08:956467,-2,-1,-25,9,-1,-1,8,-4
20:47:08:972159,-2,-1,-25,9,-1,-1,8,-4
20:47:08:972953,2,46,4,6,-7,-2,12,10
20:47:08:978911,12,15,17,0,2,-1,1,-3
20:47:08:994639,12,15,17,0,2,-1,1,-3
20:47:08:995432,-17,-18,-8,-10,-1,-2,0,-9
20:47:09:1461,-8,-31,-9,10,1,3,-11,-2
20:47:09:9624,-8,-31,-9,10,1,3,-11,-2
20:47:09:10449,15,14,25,4,-3,-4,-20,0
20:47:09:23983,2,-8,13,-3,-5,-5,-11,-2
20:47:09:32147,2,-8,13,-3,-5,-5,-11,-2
20:47:09:32928,-9,13,-5,-16,-6,0,12,3
20:47:09:38959,-8,28,-8,11,4,2,-17,-1
20:47:09:46486,-8,28,-8,11,4,2,-17,-1
20:47:09:53989,-4,40,4,9,-7,-4,19,5
20:47:09:61413,-5,-15,26,0,0,-4,7,-1
20:47:09:69698,-5,-15,26,0,0,-4,7,-1
20:47:09:70468,-6,20,-19,-27,-3,-3,-12,-1
20:47:09:83946,-4,23,-28,-15,-5,4,21,3
20:47:09:92168,-4,23,-28,-15,-5,4,21,3
20:47:09:92971,9,48,7,10,1,-7,-20,-6
20:47:09:98970,0,-1,-2,-1,2,3,-22,1
20:47:09:106521,0,-1,-2,-1,2,3,-22,1
20:47:09:113948,8,-25,1,-4,-3,2,-25,-2
20:47:09:121439,5,26,23,-1,-2,-7,4,-3
20:47:09:129687,5,26,23,-1,-2,-7,4,-3
20:47:09:130498,-3,-22,-1,-9,-1,-1,-7,5
20:47:09:143957,8,-20,-24,7,-4,0,-5,3
20:47:09:152169,8,-20,-24,7,-4,0,-5,3
20:47:09:152952,0,-5,1,-2,4,4,0,-5
20:47:09:158939,-4,11,12,-12,-1,0,12,3
20:47:09:166518,-4,11,12,-12,-1,0,12,3
20:47:09:173989,-24,-7,-2,-4,1,-4,-18,8
20:47:09:181458,0,-10,-12,4,-3,-2,-10,-8
20:47:09:189706,0,-10,-12,4,-3,-2,-10,-8
20:47:09:190438,11,25,4,-10,-5,0,1,-3
20:47:09:204444,-23,-12,-20,-11,-5,-8,-17,-4
20:47:09:212171,-23,-12,-20,-11,-5,-8,-17,-4
20:47:09:212991,12,-2,4,34,17,6,8,1
20:47:09:218931,-9,8,43,-6,-8,-5,3,-8
20:47:09:226494,-9,8,43,-6,-8,-5,3,-8
20:47:09:233969,1,-9,-7,-4,-4,-2,-12,-1
20:47:09:241464,-4,19,-30,-7,0,-6,-8,6
20:47:09:249679,-4,19,-30,-7,0,-6,-8,6
20:47:09:250437,-14,9,0,7,-7,-10,-32,-7
20:47:09:263991,13,-24,2,15,3,1,5,3
20:47:09:272146,13,-24,2,15,3,1,5,3
20:47:09:272933,-6,43,2,-4,5,3,-9,4
20:47:09:278960,-15,-64,-66,-5,-10,-2,-10,-11
20:47:09:286515,-15,-64,-66,-5,-10,-2,-10,-11
20:47:09:293933,9,-21,-6,8,4,6,37,6
20:47:09:301493,3,20,17,4,3,12,8,-4
20:47:09:309644,3,20,17,4,3,12,8,-4
20:47:09:310452,-5,-18,-6,-7,-4,-4,-41,3
20:47:09:323959,20,10,10,-5,-1,-1,-26,9
20:47:09:332157,20,10,10,-5,-1,-1,-26,9
20:47:09:332939,-5,43,7,15,2,1,15,-2
20:47:09:339025,-17,-11,6,-15,-3,-1,-3,-5
20:47:09:346540,-17,-11,6,-15,-3,-1,-3,-5
20:47:09:353951,5,1,-2,1,-4,-3,23,4
20:47:09:361448,-1,41,38,29,6,-1,8,5
20:47:09:369694,-1,41,38,29,6,-1,8,5
20:47:09:370463,-6,-49,-30,-33,-7,-7,-6,-7
20:47:09:383942,-2,-16,7,-2,-3,0,7,-12
20:47:09:392193,-2,-16,7,-2,-3,0,7,-12
20:47:09:392971,3,-22,-5,-11,-7,-5,9,3
20:47:09:398940,1,-15,3,15,-2,-2,19,5
20:47:09:406539,1,-15,3,15,-2,-2,19,5
20:47:09:413954,-8,-48,-26,-11,0,0,-31,3
20:47:09:421477,14,18,9,6,1,-1,-6,-7
20:47:09:429686,14,18,9,6,1,-1,-6,-7
20:47:09:430488,5,-12,-8,11,0,2,17,-9
20:47:09:443944,-4,-12,-61,-68,1,2,-1,6
20:47:09:452192,-4,-12,-61,-68,1,2,-1,6
20:47:09:452982,-21,4,55,7,5,1,-1,-10
20:47:09:458930,-7,-6,10,11,0,-1,-1,-8
20:47:09:466550,-7,-6,10,11,0,-1,-1,-8
20:47:09:474011,16,1,-18,-3,-4,9,63,1
20:47:09:481450,-2,-29,5,2,3,4,31,-1
20:47:09:489650,-2,-29,5,2,3,4,31,-1
20:47:09:490465,-3,-26,-9,1,-3,-6,-38,-7
20:47:09:503985,3,-4,-4,-8,-5,-4,-14,4
20:47:09:512179,3,-4,-4,-8,-5,-4,-14,4
20:47:09:512986,-19,1,8,0,2,1,14,-1
20:47:09:518979,-5,-32,-5,-7,-1,-4,-15,-3
20:47:09:526503,-5,-32,-5,-7,-1,-4,-15,-3
20:47:09:533995,21,39,20,-10,-3,-1,-24,-27
20:47:09:541477,4,16,-9,13,-7,5,-9,1
20:47:09:549702,4,16,-9,13,-7,5,-9,1
20:47:09:550444,13,-2,7,2,1,8,27,13
20:47:09:563980,-9,9,6,11,0,-5,1,-6
20:47:09:572148,-9,9,6,11,0,-5,1,-6
20:47:09:572934,6,13,30,-10,-10,-6,-4,5
20:47:09:578976,-12,29,29,24,13,3,14,13
20:47:09:586486,-12,29,29,24,13,3,14,13
20:47:09:593916,-25,12,-15,3,-5,-5,8,0
20:47:09:601451,6,22,3,-6,-2,-2,3,19
20:47:09:609653,6,22,3,-6,-2,-2,3,19
20:47:09:610465,8,-6,11,4,1,0,7,-9
20:47:09:623993,1,20,-26,1,3,6,19,8
20:47:09:632142,1,20,-26,1,3,6,19,8
20:47:09:632939,-6,-24,-4,5,3,-1,6,3
20:47:09:638933,5,-10,-5,-35,-11,-6,-4,-26
20:47:09:646484,5,-10,-5,-35,-11,-6,-4,-26
20:47:09:653942,-3,-10,30,-5,-11,-3,-11,-3
20:47:09:661475,-20,6,12,7,9,2,-4,1
20:47:09:669691,-20,6,12,7,9,2,-4,1
20:47:09:670457,9,30,-28,-17,-5,-3,-2,5
20:47:09:683947,5,-43,-37,-6,-6,-6,-10,-2
20:47:09:692178,5,-43,-37,-6,-6,-6,-10,-2
20:47:09:692982,-8,-45,-7,4,3,-1,2,-2
20:47:09:698977,0,-20,22,1,1,2,4,-4
20:47:09:714779,0,-20,22,1,1,2,4,-4
20:47:09:715470,-1,-24,-21,-21,-5,-6,-8,0
20:47:09:721424,1,-15,25,-37,-2,-2,-5,-13
20:47:09:729693,1,-15,25,-37,-2,-2,-5,-13
20:47:09:730489,4,-22,-16,17,5,-1,-17,8
20:47:09:743938,13,28,-15,9,-2,-1,4,3
20:47:09:752156,13,28,-15,9,-2,-1,4,3
20:47:09:752959,-28,37,17,1,4,-2,-12,2
20:47:09:758911,9,41,6,25,-4,2,12,20
20:47:09:766506,9,41,6,25,-4,2,12,20
20:47:09:773962,-8,2,-19,-9,-2,-1,3,-9
20:47:09:781470,-9,1,19,3,-1,-5,0,3
20:47:09:789692,-9,1,19,3,-1,-5,0,3
20:47:09:790470,16,-41,4,1,-8,-4,16,11
20:47:09:803914,-3,-28,-4,-20,-1,-1,-2,-3
20:47:09:812183,-3,-28,-4,-20,-1,-1,-2,-3
20:47:09:812956,0,-10,-7,-4,1,0,-9,-10
20:47:09:818935,11,75,24,23,-1,1,-9,3
20:47:09:826547,11,75,24,23,-1,1,-9,3
20:47:09:833951,-18,14,11,4,5,3,4,-9
20:47:09:841453,-1,-14,-12,8,-2,-2,-17,-5
20:47:09:849611,-1,-14,-12,8,-2,-2,-17,-5
20:47:09:850430,1,-15,-13,9,3,2,43,11
20:47:09:863953,-3,-47,-7,4,1,2,1,-5
20:47:09:872200,-3,-47,-7,4,1,2,1,-5
20:47:09:872969,12,49,-3,22,10,2,10,-5
20:47:09:878952,1,44,-4,-24,-8,0,-10,-19
20:47:09:886494,1,44,-4,-24,-8,0,-10,-19
20:47:09:894034,2,-5,-20,-21,-10,-8,-20,-2
20:47:09:901479,-17,-32,5,15,2,-11,-8,-16
20:47:09:909661,-17,-32,5,15,2,-11,-8,-16
20:47:09:910434,0,4,-55,-18,-3,-2,-9,-5
20:47:09:924007,-10,-5,-12,-2,-11,-8,-14,-1
20:47:09:932123,-10,-5,-12,-2,-11,-8,-14,-1
20:47:09:932941,19,-6,23,15,7,4,-24,14
20:47:09:938997,1,1,11,0,0,5,35,9
20:47:09:946522,1,1,11,0,0,5,35,9
20:47:09:953938,2,-6,-14,-6,-6,-4,-2,-7
20:47:09:961433,7,-15,-5,5,0,-3,-4,3
20:47:09:969032,7,-15,-5,5,0,-3,-4,3
20:47:09:976418,14,-32,38,-7,-5,-1,3,-7
20:47:09:983961,-1,15,-27,-14,1,2,-1,-7
20:47:09:992189,-1,15,-27,-14,1,2,-1,-7
20:47:09:992979,-10,-60,-24,-1,-3,0,-12,-4
20:47:10:7151,4,-20,12,8,-1,-1,-6,6
20:47:10:7967,4,-20,12,8,-1,-1,-6,6
20:47:10:13961,-11,-2,30,0,-3,2,2,16
20:47:10:21417,4,12,14,13,9,6,-6,8
20:47:10:29010,4,12,14,13,9,6,-6,8
20:47:10:36522,-5,21,-10,-2,-1,-2,-26,-15
20:47:10:43958,-14,-38,-6,7,3,-1,-3,-3
20:47:10:52169,-14,-38,-6,7,3,-1,-3,-3
20:47:10:53017,-7,3,-11,-3,-2,0,3,-1
20:47:10:67178,-12,-24,-13,13,4,0,-4,-9
20:47:10:67992,-12,-24,-13,13,4,0,-4,-9
20:47:10:73953,1,18,-15,-13,-4,-2,3,-5
20:47:10:81452,-10,-4,-11,-40,-6,-8,0,6
20:47:10:89077,-10,-4,-11,-40,-6,-8,0,6
20:47:10:96474,-14,12,-27,7,1,-1,18,2
20:47:10:103984,7,13,39,11,-8,-2,3,-8
20:47:10:112115,7,13,39,11,-8,-2,3,-8
20:47:10:112932,6,-6,0,-9,0,-3,-8,-14
20:47:10:127184,2,-47,-25,-3,3,5,46,4
20:47:10:127985,2,-47,-25,-3,3,5,46,4
20:47:10:133945,-22,-5,-10,3,-1,1,16,11
20:47:10:141440,3,7,17,-3,-2,-5,-19,-5
20:47:10:149007,3,7,17,-3,-2,-5,-19,-5
20:47:10:156466,11,11,-8,-2,6,0,0,-8
20:47:10:164040,7,9,-12,5,-1,5,12,-7
20:47:10:172181,7,9,-12,5,-1,5,12,-7
20:47:10:173055,-6,5,36,-2,-5,-3,-11,1
20:47:10:187142,3,-6,-2,-13,-4,-3,-2,8
20:47:10:187935,3,-6,-2,-13,-4,-3,-2,8
20:47:10:193953,5,4,12,-11,-1,6,25,4
20:47:10:201560,-8,-13,-21,19,-1,-1,5,-3
20:47:10:208961,-8,-13,-21,19,-1,-1,5,-3
20:47:10:216416,-10,-16,10,-3,-5,-3,-14,-11
20:47:10:223910,8,20,-23,-9,-2,1,-1,-8
20:47:10:232211,8,20,-23,-9,-2,1,-1,-8
20:47:10:232959,16,-6,-10,8,1,0,-4,-11
20:47:10:247134,9,18,1,-9,-2,-6,-17,4
20:47:10:247940,9,18,1,-9,-2,-6,-17,4
20:47:10:253937,-15,0,28,-17,-1,1,3,10
20:47:10:261414,-3,-6,8,-29,-4,0,-7,-8
20:47:10:268987,-3,-6,8,-29,-4,0,-7,-8
20:47:10:276443,-7,10,-15,0,-3,-14,-57,-5
20:47:10:283947,-8,11,22,13,4,-5,-22,-1
20:47:10:292168,-8,11,22,13,4,-5,-22,-1
20:47:10:292971,1,-7,-8,5,-2,1,2,11
20:47:10:307153,1,46,-36,-6,2,-2,-30,-1
20:47:10:307968,1,46,-36,-6,2,-2,-30,-1
20:47:10:314042,28,28,18,13,3,12,16,0
20:47:10:321476,9,59,15,19,3,2,19,12
20:47:10:329017,9,59,15,19,3,2,19,12
20:47:10:336466,-3,9,19,-49,-6,-2,-8,-4
20:47:10:343946,5,-44,9,-15,-3,0,-2,-4
20:47:10:352201,5,-44,9,-15,-3,0,-2,-4
20:47:10:352990,-1,-3,-12,25,-2,-1,40,10
20:47:10:367154,-7,-15,-19,0,-3,-3,17,9
20:47:10:367962,-7,-15,-19,0,-3,-3,17,9
20:47:10:373962,12,35,-20,8,0,-1,-18,-2
20:47:10:381447,3,-15,14,7,-5,5,28,-3
20:47:10:389103,3,-15,14,7,-5,5,28,-3
20:47:10:396473,-19,-48,4,0,-1,3,4,5
20:47:10:403961,-21,-5,-16,-1,1,-1,-22,-18
20:47:10:412399,-21,-5,-16,-1,1,-1,-22,-18
20:47:10:412963,-5,-66,28,11,10,0,-4,-7
20:47:10:427124,8,-15,33,6,1,0,-2,-3
20:47:10:427918,8,-15,33,6,1,0,-2,-3
20:47:10:433946,3,31,-26,16,-2,-6,0,0
20:47:10:441443,-11,-17,-12,5,-2,-4,-20,-8
20:47:10:448979,-11,-17,-12,5,-2,-4,-20,-8
20:47:10:456485,13,43,23,3,3,-5,8,14
20:47:10:464023,18,24,-14,-10,-3,1,8,24
20:47:10:472160,18,24,-14,-10,-3,1,8,24
20:47:10:472971,2,-45,-27,-8,-4,-3,-9,-4
20:47:10:487129,-7,-23,-3,-28,-7,-4,6,12
20:47:10:487957,-7,-23,-3,-28,-7,-4,6,12
20:47:10:493940,-5,3,-17,-8,-1,0,17,6
20:47:10:501482,-3,5,-1,10,-1,-2,13,4
20:47:10:509030,-3,5,-1,10,-1,-2,13,4
20:47:10:524637,-7,-3,-40,-22,-3,-1,30,-4
20:47:10:525432,-23,-19,-15,3,0,2,20,-2
20:47:10:532158,-23,-19,-15,3,0,2,20,-2
20:47:10:532951,4,21,14,22,2,-4,-57,-21
20:47:10:547121,-6,-16,5,-5,-6,-11,-52,-18
20:47:10:547937,-6,-16,5,-5,-6,-11,-52,-18
20:47:10:553974,4,42,23,8,-2,-3,18,13
20:47:10:561493,-5,0,1,9,7,13,32,-4
20:47:10:568997,-5,0,1,9,7,13,32,-4
20:47:10:576418,-2,-8,-18,-23,-7,-1,-28,6
20:47:10:583943,14,33,9,8,2,-5,-20,-10
20:47:10:592160,14,33,9,8,2,-5,-20,-10
20:47:10:592985,-9,-9,-12,-3,-2,0,-22,-3
20:47:10:607158,-6,10,-7,-15,1,-4,-13,-1
20:47:10:607950,-6,10,-7,-15,1,-4,-13,-1
20:47:10:613954,-5,-16,31,-2,-3,-1,36,-13
20:47:10:621464,-4,-48,-4,7,1,-1,16,7
20:47:10:629010,-4,-48,-4,7,1,-1,16,7
20:47:10:636419,2,-11,17,28,3,9,26,-7
20:47:10:643943,2,6,-17,-14,-2,5,34,6
20:47:10:652206,2,6,-17,-14,-2,5,34,6
20:47:10:652973,11,5,6,1,4,5,-6,-12
20:47:10:667159,7,8,17,-9,-4,1,6,-2
20:47:10:667969,7,8,17,-9,-4,1,6,-2
20:47:10:673915,-13,-2,-8,-6,-4,-1,19,22
20:47:10:681451,-7,-17,18,14,-4,-6,-16,-13
20:47:10:689018,-7,-17,18,14,-4,-6,-16,-13
20:47:10:696463,4,-10,19,-9,-1,-9,-35,-14
20:47:10:703952,8,-49,-21,-18,-3,-7,-20,2
20:47:10:712176,8,-49,-21,-18,-3,-7,-20,2
20:47:10:712972,15,-3,2,17,1,-1,-35,1
20:47:10:727171,-4,-73,10,24,5,-8,-43,-2
20:47:10:727963,-4,-73,10,24,5,-8,-43,-2
20:47:10:733950,-4,18,12,-8,-2,-7,18,2
20:47:10:741452,1,18,8,-2,-5,0,-2,-7
20:47:10:749028,1,18,8,-2,-5,0,-2,-7
20:47:10:756449,-10,-14,15,2,5,2,-5,5
20:47:10:763989,-6,-9,-17,-1,-9,-5,11,-2
20:47:10:772126,-6,-9,-17,-1,-9,-5,11,-2
20:47:10:772940,-5,5,7,17,14,0,-4,-11
20:47:10:787100,-6,23,9,-4,-3,10,8,2
20:47:10:787917,-6,23,9,-4,-3,10,8,2
20:47:10:802129,-25,-64,-21,0,-9,-11,-7,-16
20:47:10:802914,10,26,5,11,0,-7,7,-5
20:47:10:809046,10,26,5,11,0,-7,7,-5
20:47:10:816458,-15,-29,-17,4,1,-3,-28,-2
20:47:10:824018,4,16,-35,-66,-8,0,8,2
20:47:10:832149,4,16,-35,-66,-8,0,8,2
20:47:10:832923,0,13,8,-8,-6,-8,-30,-14
20:47:10:847163,12,25,9,21,10,2,12,18
20:47:10:847974,12,25,9,21,10,2,12,18
20:47:10:853954,-2,7,0,1,-2,2,17,6
20:47:10:861484,1,51,39,8,8,8,3,2
20:47:10:869044,1,51,39,8,8,8,3,2
20:47:10:876446,3,8,18,-2,-8,5,38,-17
20:47:10:883954,-7,-24,5,9,-4,-1,5,4
20:47:10:892184,-7,-24,5,9,-4,-1,5,4
20:47:10:892942,21,17,-3,12,8,10,4,6
20:47:10:907117,-30,11,14,10,0,-2,-52,-7
20:47:10:907923,-30,11,14,10,0,-2,-52,-7
20:47:10:914005,4,49,-4,-9,-4,-1,50,-15
20:47:10:929702,9,36,-19,7,4,1,-12,11
20:47:10:930479,9,36,-19,7,4,1,-12,11
20:47:10:936469,12,7,14,-19,2,-1,-4,6
20:47:10:944010,0,-20,-11,6,-3,-9,-5,-9
20:47:10:951497,0,-20,-11,6,-3,-9,-5,-9
20:47:10:958940,-8,-38,-14,-19,-1,1,4,5
20:47:10:967121,-4,-7,2,-15,-6,-3,-3,1
20:47:10:967940,-4,-7,2,-15,-6,-3,-3,1
20:47:10:973918,-19,-2,-8,-3,-12,-4,17,-12
20:47:10:989621,1,-4,0,6,3,-2,13,-2
20:47:10:990435,1,-4,0,6,3,-2,13,-2
20:47:10:996465,22,-11,-23,-54,-9,-4,-18,4
20:47:11:3946,-16,-28,-7,-1,1,-2,2,-1
20:47:11:11515,-16,-28,-7,-1,1,-2,2,-1
20:47:11:18926,-8,-37,-24,19,6,2,7,13
20:47:11:27173,3,-31,-17,-9,-8,-4,-3,-2
20:47:11:27969,3,-31,-17,-9,-8,-4,-3,-2
20:47:11:33929,14,8,13,10,1,-9,-27,14
20:47:11:50037,-1,77,14,12,5,0,-22,-6
20:47:11:57173,-1,77,14,12,5,0,-22,-6
20:47:11:57945,-11,-17,-36,-23,-7,-3,-1,14
20:47:11:63920,1,-18,16,-21,-1,-2,-15,-26
20:47:11:71539,1,-18,16,-21,-1,-2,-15,-26
20:47:11:78935,-2,-2,-6,5,4,4,-5,-3
20:47:11:87226,-18,19,-16,12,6,13,21,-9
20:47:11:87972,-18,19,-16,12,6,13,21,-9
20:47:11:93949,-21,-20,10,3,-2,3,5,9
20:47:11:109636,-1,-9,-13,-22,-9,-3,-1,4
20:47:11:110485,-1,-9,-13,-22,-9,-3,-1,4
20:47:11:116421,6,19,15,13,1,1,-18,4
20:47:11:123944,-2,-53,-9,-13,-4,3,5,7
20:47:11:131505,-2,-53,-9,-13,-4,3,5,7
20:47:11:138950,-2,13,0,20,2,1,-13,-2
20:47:11:147218,8,-16,-24,41,10,1,-3,3
20:47:11:147974,8,-16,-24,41,10,1,-3,3
20:47:11:153963,-16,-11,-10,-1,-6,-3,56,3
20:47:11:169652,0,36,15,9,-4,-4,-30,3
20:47:11:170470,0,36,15,9,-4,-4,-30,3
20:47:11:176476,7,22,3,-3,2,4,5,4
20:47:11:183951,1,-25,0,-3,0,-12,0,-19
20:47:11:191595,1,-25,0,-3,0,-12,0,-19
20:47:11:198999,3,-42,-16,6,2,-2,-13,-10
20:47:11:207103,3,-26,2,-2,-2,1,-7,-9
20:47:11:208006,3,-26,2,-2,-2,1,-7,-9
20:47:11:213985,-20,-8,9,-5,-3,-4,25,-9
20:47:11:229614,8,-1,4,-2,1,-6,12,17
20:47:11:230416,8,-1,4,-2,1,-6,12,17
20:47:11:236492,6,27,9,3,-3,-4,-35,-4
20:47:11:243982,1,7,0,22,-2,-3,-16,-36
20:47:11:251483,1,7,0,22,-2,-3,-16,-36
20:47:11:259009,5,30,-2,4,10,5,6,16
20:47:11:267131,-8,-58,10,-15,-13,-6,8,15
20:47:11:267943,-8,-58,10,-15,-13,-6,8,15
20:47:11:273919,2,-4,-7,4,0,-4,-25,-10
20:47:11:290149,-2,43,-43,-13,4,3,5,8
20:47:11:290899,-2,43,-43,-13,4,3,5,8
20:47:11:296471,-3,2,-4,-31,2,3,3,-2
20:47:11:303962,12,6,12,3,-1,-5,-18,1
20:47:11:311487,12,6,12,3,-1,-5,-18,1
20:47:11:318937,-4,20,9,-4,-10,-3,-2,-14
20:47:11:327138,-8,8,7,-6,-2,-1,26,28
20:47:11:327974,-8,8,7,-6,-2,-1,26,28
20:47:11:333932,4,-25,-10,-1,-1,5,-43,-7
20:47:11:349671,-5,-47,-4,8,5,3,8,3
20:47:11:350506,-5,-47,-4,8,5,3,8,3
20:47:11:356431,16,8,20,10,-3,-7,-10,0
20:47:11:363938,6,55,7,-13,-9,-1,-3,0
20:47:11:371508,6,55,7,-13,-9,-1,-3,0
20:47:11:378968,-9,39,1,26,7,1,2,1
20:47:11:387184,-2,-32,-12,-43,-6,3,12,-3
20:47:11:387992,-2,-32,-12,-43,-6,3,12,-3
20:47:11:393960,-8,3,-17,-6,-6,-3,2,13
20:47:11:409651,5,8,-12,3,-5,-5,-61,-7
20:47:11:410484,5,8,-12,3,-5,-5,-61,-7
20:47:11:416437,10,-10,8,21,1,-2,-18,-22
20:47:11:423999,-6,5,-18,2,1,7,27,6
20:47:11:431581,-6,5,-18,2,1,7,27,6
20:47:11:438972,-13,-14,19,-10,-1,2,13,0
20:47:11:446469,10,-16,17,-4,-4,-5,19,-12
20:47:11:454928,10,-16,17,-4,-4,-5,19,-12
20:47:11:455471,-1,51,-24,1,-1,-1,32,6
20:47:11:469699,4,17,19,57,16,3,-11,-10
20:47:11:470484,4,17,19,57,16,3,-11,-10
20:47:11:476452,2,-23,-24,2,3,0,0,2
20:47:11:483954,-17,1,13,36,1,-2,1,-2
20:47:11:491537,-17,1,13,36,1,-2,1,-2
20:47:11:498961,-11,39,-9,-13,-5,-12,-5,13
20:47:11:507126,-1,68,25,6,2,1,13,-1
20:47:11:507951,-1,68,25,6,2,1,13,-1
20:47:11:514010,10,-18,-25,-14,-6,2,5,-7
20:47:11:529663,2,76,18,-11,6,8,6,9
20:47:11:530439,2,76,18,-11,6,8,6,9
20:47:11:536451,-5,-32,18,-24,-8,-2,4,-4
20:47:11:543947,-10,-63,-10,-13,-6,-3,26,-1
20:47:11:551515,-10,-63,-10,-13,-6,-3,26,-1
20:47:11:567784,8,6,12,-32,-12,-4,-9,-7
20:47:11:568586,-5,-40,-28,0,10,-1,1,-12
20:47:11:569409,-5,-40,-28,0,10,-1,1,-12
20:47:11:573956,-6,-85,3,13,-3,5,-5,-5
20:47:11:589652,-8,-25,-9,-22,-14,-6,-7,0
20:47:11:590476,-8,-25,-9,-22,-14,-6,-7,0
20:47:11:596473,2,-4,8,5,8,0,-4,5
20:47:11:603972,15,56,0,3,6,8,-10,4
20:47:11:611489,15,56,0,3,6,8,-10,4
20:47:11:618970,-2,-8,5,18,-5,-5,-16,-3
20:47:11:627131,12,-16,-24,-38,-5,-2,-14,2
20:47:11:627944,12,-16,-24,-38,-5,-2,-14,2
20:47:11:633904,-1,11,11,20,-3,-2,16,-11
20:47:11:649970,0,15,10,-33,-6,3,25,11
20:47:11:650426,0,15,10,-33,-6,3,25,11
20:47:11:656487,-18,-7,20,-5,5,1,22,13
20:47:11:663997,7,-11,14,8,-2,-5,5,6
20:47:11:671521,7,-11,14,8,-2,-5,5,6
20:47:11:678936,1,13,9,10,1,1,2,-6
20:47:11:687161,-10,-24,-19,-10,-8,-10,-19,-18
20:47:11:687957,-10,-24,-19,-10,-8,-10,-19,-18
20:47:11:693953,-2,-16,-11,-1,4,-4,-17,3
20:47:11:709664,4,0,1,-6,4,3,5,-3
20:47:11:710448,4,0,1,-6,4,3,5,-3
20:47:11:716421,14,45,-26,-27,-6,-5,-9,-2
20:47:11:723937,-5,65,9,24,-2,-9,-7,3
20:47:11:731502,-5,65,9,24,-2,-9,-7,3
20:47:11:738981,-7,-2,-13,0,-7,-2,3,1
20:47:11:747146,-13,-49,7,7,-3,2,12,-7
20:47:11:748127,-13,-49,7,7,-3,2,12,-7
20:47:11:753937,17,-27,-1,-4,-4,-3,-3,-1
20:47:11:769683,1,-23,1,11,7,3,1,-9
20:47:11:770465,1,-23,1,11,7,3,1,-9
20:47:11:776427,-12,-20,-1,-22,-2,1,2,-5
20:47:11:783929,-3,-1,-7,-7,-4,-4,-46,-16
20:47:11:791505,-3,-1,-7,-7,-4,-4,-46,-16
20:47:11:798927,-10,74,6,12,2,2,8,0
20:47:11:807156,-10,2,26,16,3,1,-3,14
20:47:11:807970,-10,2,26,16,3,1,-3,14
20:47:11:813975,10,-24,-56,-22,-6,-8,-18,4
20:47:11:829666,12,84,36,37,10,4,10,18
20:47:11:830482,12,84,36,37,10,4,10,18
20:47:11:836435,8,-8,4,-9,1,-7,-24,9
20:47:11:852144,-7,-36,-24,-21,-10,-6,1,1
20:47:11:852964,-7,-36,-24,-21,-10,-6,1,1
20:47:11:858929,-10,63,20,12,7,4,2,0
20:47:11:867184,-6,-33,-4,-5,2,-5,-8,7
20:47:11:867974,-6,-33,-4,-5,2,-5,-8,7
20:47:11:881454,12,-21,14,4,-6,-4,-3,3
20:47:11:889673,7,9,42,-22,-12,5,19,-4
20:47:11:890451,7,9,42,-22,-12,5,19,-4
20:47:11:896471,1,-24,15,11,16,6,-1,-4
20:47:11:912186,14,-21,-22,-11,3,-2,-2,-9
20:47:11:912963,14,-21,-22,-11,3,-2,-2,-9
20:47:11:918974,-4,24,-1,-6,-6,2,41,9
20:47:11:927170,-14,-52,-13,9,-4,-5,-4,-1
20:47:11:927968,-14,-52,-13,9,-4,-5,-4,-1
20:47:11:941466,5,-29,-18,-5,-6,9,19,5
20:47:11:949672,10,3,11,-7,-6,1,-10,-3
20:47:11:950474,10,3,11,-7,-6,1,-10,-3
20:47:11:956433,-9,-42,12,9,2,-3,-17,-25
20:47:11:972149,1,-7,-3,5,0,5,14,-2
20:47:11:972946,1,-7,-3,5,0,5,14,-2
20:47:11:978905,0,2,-13,15,7,-1,6,3
20:47:11:987174,22,64,-59,-18,2,2,15,8
20:47:11:987954,22,64,-59,-18,2,2,15,8
20:47:12:1462,17,-23,6,4,-8,-7,-5,-15
20:47:12:9639,-21,27,-16,8,8,4,-2,-5
20:47:12:10451,-21,27,-16,8,8,4,-2,-5
20:47:12:16429,6,20,-7,-15,-8,-1,-12,0
20:47:12:32119,-2,-29,-13,17,0,7,21,-4
20:47:12:32939,-2,-29,-13,17,0,7,21,-4
20:47:12:38973,-10,7,-5,16,0,-6,-21,-3
20:47:12:47186,-6,-30,28,5,-9,-13,-20,0
20:47:12:47970,-6,-30,28,5,-9,-13,-20,0
20:47:12:61488,0,-21,12,3,4,1,2,10
20:47:12:69620,-4,-2,-7,-3,-4,1,-27,-5
20:47:12:70427,-4,-2,-7,-3,-4,1,-27,-5
20:47:12:76414,-11,-9,-32,-20,-7,-1,-2,-1
20:47:12:92136,-16,24,30,3,-1,-7,-12,-4
20:47:12:92945,-16,24,30,3,-1,-7,-12,-4
20:47:12:98988,-13,6,23,-7,-2,1,2,-6
20:47:12:107106,2,-12,-28,-29,-9,-4,-12,-2
20:47:12:107927,2,-12,-28,-29,-9,-4,-12,-2
20:47:12:121469,17,10,2,-11,2,3,62,24
20:47:12:129622,-3,10,31,15,11,5,13,15
20:47:12:130438,-3,10,31,15,11,5,13,15
20:47:12:136515,-18,-81,-9,17,-4,-2,13,-13
20:47:12:152165,7,-19,3,-8,-6,-4,1,-1
20:47:12:152981,7,-19,3,-8,-6,-4,1,-1
20:47:12:158971,-6,2,-12,21,10,6,0,2
20:47:12:167116,-2,50,-36,4,-3,-4,4,-3
20:47:12:167927,-2,50,-36,4,-3,-4,4,-3
20:47:12:181447,-6,59,-2,1,3,-3,-19,8
20:47:12:189629,-4,-16,-18,-4,-1,-4,-3,-4
20:47:12:190428,-4,-16,-18,-4,-1,-4,-3,-4
20:47:12:196463,1,14,4,-11,0,1,0,-1
20:47:12:212166,-13,-25,9,5,-6,1,0,-4
20:47:12:212986,-13,-25,9,5,-6,1,0,-4
20:47:12:218955,-2,-8,7,6,5,3,-9,-9
20:47:12:227108,8,-7,7,1,3,1,10,-6
20:47:12:227925,8,-7,7,1,3,1,10,-6
20:47:12:241448,-6,19,-28,-18,-7,0,-22,-5
20:47:12:249692,8,1,-35,-7,-2,-7,-19,-26
20:47:12:250487,8,1,-35,-7,-2,-7,-19,-26
20:47:12:256456,1,-4,25,8,4,1,3,-14
20:47:12:272139,-13,-8,0,1,3,-1,-25,-5
20:47:12:272996,-13,-8,0,1,3,-1,-25,-5
20:47:12:278973,-5,-28,-16,13,-7,-4,6,-8
20:47:12:287179,12,49,24,-30,1,4,2,13
20:47:12:288009,12,49,24,-30,1,4,2,13
20:47:12:301465,7,-5,2,-28,-10,-1,-6,-4
20:47:12:309670,-10,-13,23,5,3,1,7,3
20:47:12:310485,-10,-13,23,5,3,1,7,3
20:47:12:316444,-7,45,7,4,-5,-5,-16,-4
20:47:12:332127,0,24,11,6,-3,1,-4,-4
20:47:12:332949,0,24,11,6,-3,1,-4,-4
20:47:12:338942,1,-24,-24,15,4,5,26,9
20:47:12:347203,-13,-28,8,18,-5,-6,1,7
20:47:12:348005,-13,-28,8,18,-5,-6,1,7
20:47:12:361430,2,-3,12,-29,0,-3,-15,2
20:47:12:369687,2,-3,12,-29,0,-3,-15,2
20:47:12:370461,3,-24,-13,-36,1,5,-3,1
20:47:12:376447,6,19,-17,-12,-7,-7,-54,6
20:47:12:392220,6,19,-17,-12,-7,-7,-54,6
20:47:12:392956,-12,-11,9,16,-5,-3,-28,-23
20:47:12:398935,5,-17,12,7,3,-4,10,-6
20:47:12:414667,5,-17,12,7,3,-4,10,-6
20:47:12:415464,-1,-28,-16,5,3,-3,18,13
20:47:12:421422,-10,8,2,3,0,2,8,-9
20:47:12:429684,-10,8,2,3,0,2,8,-9
20:47:12:430443,15,-23,10,14,11,3,-12,-9
20:47:12:436453,-7,-33,-8,-36,-4,5,38,4
20:47:12:452188,-7,-33,-8,-36,-4,5,38,4
20:47:12:452974,3,0,6,14,-2,4,20,0
20:47:12:458917,2,36,9,17,7,-14,-94,-2
20:47:12:474641,2,36,9,17,7,-14,-94,-2
20:47:12:475429,-9,-2,2,4,-4,-2,-42,-38
20:47:12:481454,11,-21,-17,5,-4,-6,-22,-6
20:47:12:489685,11,-21,-17,5,-4,-6,-22,-6
20:47:12:490491,-31,-66,-12,-2,-2,4,41,6
20:47:12:496424,-14,-12,-9,-5,-3,3,10,-14
20:47:12:512169,-14,-12,-9,-5,-3,3,10,-14
20:47:12:512934,2,43,15,-7,-5,1,10,8
20:47:12:518926,-11,-3,-1,8,6,-1,37,26
20:47:12:534670,-11,-3,-1,8,6,-1,37,26
20:47:12:535445,16,-13,-2,-19,-10,4,2,9
20:47:12:541503,2,13,5,-25,3,2,24,-6
20:47:12:549662,2,13,5,-25,3,2,24,-6
20:47:12:550473,6,-1,-17,-20,-4,-3,15,13
20:47:12:556433,-7,-23,-31,-12,-9,4,9,-5
20:47:12:572177,-7,-23,-31,-12,-9,4,9,-5
20:47:12:572931,9,38,19,4,1,-2,-36,-4
20:47:12:578964,-11,-11,47,20,-2,-5,-27,18
20:47:12:594633,-11,-11,47,20,-2,-5,-27,18
20:47:12:595430,-10,-18,-15,17,10,3,27,3
20:47:12:601465,-8,0,-8,-1,-3,0,33,-12
20:47:12:609651,-8,0,-8,-1,-3,0,33,-12
20:47:12:610427,-6,2,0,-5,-9,-6,8,11
20:47:12:616455,4,-3,-22,9,10,-3,7,-7
20:47:12:632133,4,-3,-22,9,10,-3,7,-7
20:47:12:632934,-10,-11,16,12,1,0,2,-9
20:47:12:638979,15,-3,-1,-2,-10,-3,6,-4
20:47:12:654748,15,-3,-1,-2,-10,-3,6,-4
20:47:12:655458,5,7,-50,-6,-2,-4,-12,6
20:47:12:661432,2,4,35,15,-4,7,41,-2
20:47:12:669619,2,4,35,15,-4,7,41,-2
20:47:12:670430,-6,-81,21,19,9,0,-25,-8
20:47:12:676458,-3,-29,-10,-18,-7,1,-17,-8
20:47:12:692183,-3,-29,-10,-18,-7,1,-17,-8
20:47:12:692993,-1,-1,-15,-12,-9,-8,4,3
20:47:12:698936,1,1,-4,13,1,-2,21,20
20:47:12:714716,1,1,-4,13,1,-2,21,20
20:47:12:715469,-2,13,-21,-17,3,1,-6,-2
20:47:12:721456,-2,60,21,3,0,10,-8,-10
20:47:12:729776,-2,60,21,3,0,10,-8,-10
20:47:12:730495,5,2,28,0,-7,-5,-11,-11
20:47:12:736522,6,-22,-5,12,15,2,-21,-9
20:47:12:752174,6,-22,-5,12,15,2,-21,-9
20:47:12:752955,8,13,19,-11,-2,-11,10,10
20:47:12:758932,3,-4,4,5,0,-1,-26,1
20:47:12:774697,3,-4,4,5,0,-1,-26,1
20:47:12:775467,14,-4,1,-11,-2,-2,-5,5
20:47:12:781429,7,55,19,4,1,-5,-17,-8
20:47:12:789666,7,55,19,4,1,-5,-17,-8
20:47:12:790453,12,-5,5,-21,-9,-6,-52,-10
20:47:12:803924,-3,-32,-12,3,2,-1,10,11
20:47:12:812190,-3,-32,-12,3,2,-1,10,11
20:47:12:812971,-12,1,24,5,-1,-2,-1,-10
20:47:12:818941,-6,-15,-9,-4,-9,-1,1,-5
20:47:12:834670,-6,-15,-9,-4,-9,-1,1,-5
20:47:12:835457,0,-2,-34,-10,9,8,31,19
20:47:12:841413,-8,-6,7,-18,-11,-8,16,9
20:47:12:849660,-8,-6,7,-18,-11,-8,16,9
20:47:12:850453,8,16,-9,5,-3,-4,11,-4
20:47:12:863913,14,1,-2,1,-2,-6,-16,13
20:47:12:872211,14,1,-2,1,-2,-6,-16,13
20:47:12:872952,2,-19,-26,3,3,3,7,-11
20:47:12:878943,19,-5,-3,-2,-3,3,17,-1
20:47:12:894670,19,-5,-3,-2,-3,3,17,-1
20:47:12:895469,-10,-3,-11,22,-4,0,2,2
20:47:12:901446,7,17,-18,1,4,-1,-20,-9
20:47:12:909658,7,17,-18,1,4,-1,-20,-9
20:47:12:910451,-3,10,-8,10,-6,-5,25,-3
20:47:12:923963,-12,-14,-23,-40,-7,-3,-18,-5
20:47:12:932153,-12,-14,-23,-40,-7,-3,-18,-5
20:47:12:932959,-5,24,25,6,4,9,35,8
20:47:12:938919,17,3,14,11,0,-5,-26,6
20:47:12:954676,17,3,14,11,0,-5,-26,6
20:47:12:955439,-21,33,6,-15,-3,-13,-26,9
20:47:12:961425,-2,-28,4,12,6,16,54,22
20:47:12:969654,-2,-28,4,12,6,16,54,22
20:47:12:970460,5,-12,-8,2,3,7,-8,-9
20:47:12:984009,2,-8,18,22,0,-9,-14,-4
20:47:12:992182,2,-8,18,22,0,-9,-14,-4
20:47:12:992942,1,-9,-3,5,-4,-3,23,1
20:47:12:998934,-20,-7,-2,-10,0,-6,-21,-29
20:47:13:14672,-20,-7,-2,-10,0,-6,-21,-29
20:47:13:15433,9,-20,-9,-11,-7,-3,-34,-1
20:47:13:21501,0,28,-5,-4,-6,0,12,3
20:47:13:29684,0,28,-5,-4,-6,0,12,3
20:47:13:30448,2,-13,5,-3,1,-2,31,0
20:47:13:43976,-10,-14,21,0,1,1,-19,-6
20:47:13:52152,-10,-14,21,0,1,1,-19,-6
20:47:13:52933,3,-12,21,8,2,2,-15,7
20:47:13:58983,-9,3,-13,-13,-3,1,-4,-11
20:47:13:74646,-9,3,-13,-13,-3,1,-4,-11
20:47:13:75454,-3,-5,23,2,5,-2,-26,-9
20:47:13:81472,0,-14,-13,-13,-5,-4,-10,-1
20:47:13:89651,0,-14,-13,-13,-5,-4,-10,-1
20:47:13:90426,0,5,-17,32,3,-2,13,2
20:47:13:103983,0,9,18,22,-1,-5,-11,-1
20:47:13:112119,0,9,18,22,-1,-5,-11,-1
20:47:13:112952,-4,-2,-1,20,17,0,-5,-7
20:47:13:118957,-6,-3,5,4,-1,-5,50,-9
20:47:13:134707,-6,-3,5,4,-1,-5,50,-9
20:47:13:135457,-14,6,-16,-13,-5,5,3,2
20:47:13:141437,-15,-1,-5,-6,1,11,24,-13
20:47:13:149639,-15,-1,-5,-6,1,11,24,-13
20:47:13:150433,-6,3,17,-29,-14,-7,4,8
20:47:13:163958,1,35,34,1,2,4,5,10
20:47:13:172119,1,35,34,1,2,4,5,10
20:47:13:172918,-10,-11,-15,2,-9,-9,-17,-4
20:47:13:178947,13,-90,-21,28,3,-5,-7,3
20:47:13:194725,13,-90,-21,28,3,-5,-7,3
20:47:13:195633,4,3,-24,-27,-10,2,2,-7
20:47:13:201478,-16,-10,-3,15,5,-11,8,15
20:47:13:209707,-16,-10,-3,15,5,-11,8,15
20:47:13:210483,-9,-27,-42,-18,-6,-2,10,-11
20:47:13:223963,-2,-13,-10,-12,-4,4,-19,-17
20:47:13:232182,-2,-13,-10,-12,-4,4,-19,-17
20:47:13:232968,5,24,-3,-7,-2,0,-14,1
20:47:13:238945,5,10,-16,-5,3,2,-16,-2
20:47:13:254696,5,10,-16,-5,3,2,-16,-2
20:47:13:255485,5,-6,17,-1,-4,-1,4,-7
20:47:13:261474,-15,-6,-20,-8,-10,-5,8,0
20:47:13:269714,-15,-6,-20,-8,-10,-5,8,0
20:47:13:270480,13,33,34,42,18,0,-4,8
20:47:13:283920,1,23,6,-30,1,1,-7,3
20:47:13:292197,1,23,6,-30,1,1,-7,3
20:47:13:292968,-6,-15,-1,-5,-5,1,-6,4
20:47:13:298945,-4,18,-5,8,-6,-4,-13,-4
20:47:13:314671,-4,18,-5,8,-6,-4,-13,-4
20:47:13:315491,-7,-11,30,-10,-3,-4,-10,0
20:47:13:321475,-20,6,-21,-12,0,-4,9,-7
20:47:13:329675,-20,6,-21,-12,0,-4,9,-7
20:47:13:330463,7,40,6,9,3,-1,-4,-8
20:47:13:343942,-5,-78,-23,13,-5,-6,-35,-22
20:47:13:352181,-5,-78,-23,13,-5,-6,-35,-22
20:47:13:352963,0,-13,-23,-18,-4,5,22,10
20:47:13:358956,9,-6,-20,8,1,-1,3,12
20:47:13:374675,9,-6,-20,8,1,-1,3,12
20:47:13:375472,1,8,25,5,-8,0,-16,-24
20:47:13:381412,-10,15,18,8,-5,0,-21,-2
20:47:13:389717,-10,15,18,8,-5,0,-21,-2
20:47:13:390462,9,-2,-55,-23,4,-6,-7,3
20:47:13:403921,1,0,15,-6,-3,0,43,-2
20:47:13:412150,1,0,15,-6,-3,0,43,-2
20:47:13:412965,-11,-49,-15,-1,3,-3,52,1
20:47:13:418921,15,24,21,7,1,6,17,11
20:47:13:434649,15,24,21,7,1,6,17,11
20:47:13:435437,6,0,2,18,4,3,-6,0
20:47:13:441419,-8,-3,-9,-4,-3,0,-4,2
20:47:13:449676,-8,-3,-9,-4,-3,0,-4,2
20:47:13:450470,5,-47,-6,-9,4,-1,-13,1
20:47:13:464028,5,24,-6,3,-4,-3,-18,2
20:47:13:472193,5,24,-6,3,-4,-3,-18,2
20:47:13:472942,-20,-1,-4,-8,-3,1,-6,-7
20:47:13:478978,10,78,3,-2,6,1,6,9
20:47:13:494623,10,78,3,-2,6,1,6,9
20:47:13:495441,9,4,-53,7,-1,0,-15,-10
20:47:13:501483,-26,3,-4,-11,1,-5,-13,-1
20:47:13:509642,-26,3,-4,-11,1,-5,-13,-1
20:47:13:510445,-4,-30,-18,-9,-2,-6,-33,0
20:47:13:523980,22,-17,9,9,4,2,7,-5
20:47:13:532162,22,-17,9,9,4,2,7,-5
20:47:13:532940,-15,-23,5,5,-6,-5,-36,-2
20:47:13:538941,7,3,-5,-12,-5,-6,-5,11
20:47:13:554621,7,3,-5,-12,-5,-6,-5,11
20:47:13:555427,0,33,14,-8,-5,-2,-25,-18
20:47:13:561460,8,6,-5,2,-4,1,32,-2
20:47:13:569670,8,6,-5,2,-4,1,32,-2
20:47:13:570433,-6,10,22,-3,0,4,18,4
20:47:13:583959,-10,22,20,-3,-4,3,-21,-9
20:47:13:592125,-10,22,20,-3,-4,3,-21,-9
20:47:13:592942,9,-20,-6,7,0,-4,-5,-4
20:47:13:598963,1,11,-4,-20,1,-1,-17,-1
20:47:13:614648,1,11,-4,-20,1,-1,-17,-1
20:47:13:615421,-7,-22,3,4,4,6,16,3
20:47:13:621489,16,-25,-18,9,-3,-4,20,1
20:47:13:629620,16,-25,-18,9,-3,-4,20,1
20:47:13:630435,-3,27,6,5,-3,1,36,13
20:47:13:643987,-6,-16,21,10,-1,-5,10,2
20:47:13:652159,-6,-16,21,10,-1,-5,10,2
20:47:13:652916,16,28,10,-9,-3,7,41,3
20:47:13:658954,-15,12,8,-7,-3,-6,-24,4
20:47:13:674709,-15,12,8,-7,-3,-6,-24,4
20:47:13:675463,-9,19,13,15,2,1,2,-7
20:47:13:681466,0,22,9,-9,10,3,-9,0
20:47:13:689659,0,22,9,-9,10,3,-9,0
20:47:13:690410,-26,-24,-9,-20,-3,4,10,5
20:47:13:704018,14,-17,-10,0,-5,1,-6,-23
20:47:13:712178,14,-17,-10,0,-5,1,-6,-23
20:47:13:712970,8,15,15,11,0,-4,-8,-3
20:47:13:718968,-10,-72,-13,-6,-2,-3,-5,-9
20:47:13:734709,-10,-72,-13,-6,-2,-3,-5,-9
20:47:13:735471,-5,-11,4,-29,-5,-4,6,18
20:47:13:741464,-5,-51,7,19,3,-5,0,5
20:47:13:749019,-5,-51,7,19,3,-5,0,5
20:47:13:756456,2,7,-3,-16,-1,1,-26,14
20:47:13:763963,-10,4,33,6,2,-1,-28,-2
20:47:13:772137,-10,4,33,6,2,-1,-28,-2
20:47:13:772946,11,32,-7,-13,-5,0,1,-4
20:47:13:786453,-6,-3,-4,8,-8,-6,-6,8
20:47:13:794672,-6,-3,-4,8,-8,-6,-6,8
20:47:13:795487,-2,35,15,8,8,0,-15,-9
20:47:13:801443,8,-1,8,-13,-4,0,18,7
20:47:13:808978,8,-1,8,-13,-4,0,18,7
20:47:13:816490,-2,37,21,-23,-11,-11,-16,-7
20:47:13:823995,7,14,11,4,-1,0,2,-8
20:47:13:832173,7,14,11,4,-1,0,2,-8
20:47:13:832937,8,-42,-41,16,-1,-5,-5,-1
20:47:13:846475,-15,-37,-46,3,0,4,8,-4
20:47:13:854665,-15,-37,-46,3,0,4,8,-4
20:47:13:855441,6,3,2,-1,1,0,0,2
20:47:13:861473,-8,-14,-22,4,6,2,-8,7
20:47:13:868987,-8,-14,-22,4,6,2,-8,7
20:47:13:876441,23,-73,-14,12,-6,-8,1,0
20:47:13:883955,5,-7,-20,-11,-2,0,-8,-12
20:47:13:892185,5,-7,-20,-11,-2,0,-8,-12
20:47:13:892966,-5,-67,-13,5,0,4,11,2
20:47:13:906467,-15,-32,-2,-6,-6,-1,-1,-2
20:47:13:914652,-15,-32,-2,-6,-6,-1,-1,-2
20:47:13:915440,8,-15,3,4,1,8,2,10
20:47:13:929627,-7,17,7,-4,2,2,-1,3
20:47:13:930448,-7,17,7,-4,2,2,-1,3
20:47:13:936400,-4,39,27,9,-3,-13,-17,-2
20:47:13:943986,16,34,18,3,8,5,10,9
20:47:13:952175,16,34,18,3,8,5,10,9
20:47:13:952939,-4,-8,-33,-17,-1,0,5,-2
20:47:13:966480,-8,-38,-4,-3,-7,-6,36,7
20:47:13:974636,-8,-38,-4,-3,-7,-6,36,7
20:47:13:975435,-7,-11,13,-2,-6,-7,0,-10
20:47:13:981489,16,2,-2,-13,0,1,-22,-4
20:47:13:989010,16,2,-2,-13,0,1,-22,-4
20:47:13:996430,6,79,10,-5,3,2,-1,-1
20:47:14:3930,9,11,-11,7,-6,-7,-23,-10
20:47:14:12147,9,11,-11,7,-6,-7,-23,-10
20:47:14:12983,-7,-1,6,6,3,7,-1,6
20:47:14:26433,-1,-3,12,-10,-4,-4,-6,1
20:47:14:34655,-1,-3,12,-10,-4,-4,-6,1
20:47:14:35431,-4,4,0,3,7,0,-25,-24
20:47:14:41428,4,-30,7,17,7,7,7,-2
20:47:14:48996,4,-30,7,17,7,7,7,-2
20:47:14:56465,-26,29,17,-19,-3,-1,-27,-4
20:47:14:63926,-5,4,16,-3,-4,-2,3,-5
20:47:14:72194,-5,4,16,-3,-4,-2,3,-5
20:47:14:72961,4,-19,12,6,-7,0,59,2
20:47:14:86458,10,74,-24,1,5,-2,3,-5
20:47:14:94655,10,74,-24,1,5,-2,3,-5
20:47:14:95463,-8,-18,9,-8,-1,-5,-9,-1
20:47:14:101463,14,13,-1,4,1,2,16,-7
20:47:14:109001,14,13,-1,4,1,2,16,-7
20:47:14:116484,4,10,-21,9,-7,3,27,-6
20:47:14:123953,-17,-87,-9,-3,-1,-2,-30,7
20:47:14:132181,-17,-87,-9,-3,-1,-2,-30,7
20:47:14:132921,-10,-25,18,2,-1,0,-18,0
20:47:14:146461,2,15,10,7,8,1,-12,-10
20:47:14:154716,2,15,10,7,8,1,-12,-10
20:47:14:155472,10,17,-9,-6,-3,2,27,13
20:47:14:161488,7,0,-24,-25,-9,-12,-9,-22
20:47:14:168977,7,0,-24,-25,-9,-12,-9,-22
20:47:14:176463,7,25,-48,13,1,-2,7,-1
20:47:14:183965,-14,27,8,-10,-4,0,1,1
20:47:14:192144,-14,27,8,-10,-4,0,1,1
20:47:14:192945,-3,-31,5,14,-2,-2,13,-6
20:47:14:206488,-14,-28,5,-8,-1,-1,6,2
20:47:14:214627,-14,-28,5,-8,-1,-1,6,2
20:47:14:215426,10,2,12,31,4,8,6,1
20:47:14:221476,0,9,8,-23,-4,5,8,7
20:47:14:229004,0,9,8,-23,-4,5,8,7
20:47:14:236413,-4,-9,9,8,3,-7,-23,7
20:47:14:243907,-13,-66,-7,-4,-8,-8,-26,-1
20:47:14:252188,-13,-66,-7,-4,-8,-8,-26,-1
20:47:14:252952,-13,-51,-16,1,0,-2,3,-10
20:47:14:266474,-9,5,-9,0,-3,2,34,3
20:47:14:274674,-9,5,-9,0,-3,2,34,3
20:47:14:275451,7,30,0,-1,2,2,11,-2
20:47:14:281401,3,17,-31,-6,-6,-7,6,-6
20:47:14:289019,3,17,-31,-6,-6,-7,6,-6
20:47:14:296444,-11,-19,-8,-3,2,7,24,5
20:47:14:303945,-7,1,-33,-2,-1,14,14,10
20:47:14:312170,-7,1,-33,-2,-1,14,14,10
20:47:14:312960,5,-79,-43,-13,-5,-6,-32,-5
20:47:14:326415,10,15,22,12,-1,1,-1,2
20:47:14:334690,10,15,22,12,-1,1,-1,2
20:47:14:335475,4,-46,1,-12,-5,-8,-20,9
20:47:14:341416,-17,45,47,40,3,3,3,0
20:47:14:349021,-17,45,47,40,3,3,3,0
20:47:14:356445,-12,20,-11,-12,0,-8,-34,2
20:47:14:363923,1,13,34,5,0,-4,-13,13
20:47:14:372189,1,13,34,5,0,-4,-13,13
20:47:14:372965,-10,30,32,-5,-4,3,-23,-8
20:47:14:386432,10,-9,8,-1,-3,-1,8,-8
20:47:14:394671,10,-9,8,-1,-3,-1,8,-8
20:47:14:395473,7,-9,-3,-36,-5,-4,35,9
20:47:14:401439,5,4,-1,-4,3,-8,-33,-2
20:47:14:409018,5,4,-1,-4,3,-8,-33,-2
20:47:14:416450,0,24,3,4,6,-9,-48,-6
20:47:14:423962,4,15,-23,-5,0,8,4,8
20:47:14:432131,4,15,-23,-5,0,8,4,8
20:47:14:432913,6,24,16,20,-10,-2,22,-8
20:47:14:446448,-9,-10,-25,5,9,-4,-26,1
20:47:14:454704,-9,-10,-25,5,9,-4,-26,1
20:47:14:455463,-6,34,16,-6,0,3,5,-1
20:47:14:461495,2,-31,-43,-14,-4,-9,29,7
20:47:14:468971,2,-31,-43,-14,-4,-9,29,7
20:47:14:476444,10,23,7,11,-1,-5,36,9
20:47:14:483959,2,11,6,-7,3,3,17,2
20:47:14:492120,2,11,6,-7,3,3,17,2
20:47:14:492944,-5,-47,-4,15,10,4,-26,-8
20:47:14:506445,-3,-13,-3,-4,-6,-11,-9,-4
20:47:14:514620,-3,-13,-3,-4,-6,-11,-9,-4
20:47:14:515432,13,50,-10,-31,-11,6,4,-8
20:47:14:521441,-3,4,26,23,1,5,-9,3
20:47:14:528969,-3,4,26,23,1,5,-9,3
20:47:14:536418,-1,41,6,21,4,2,8,7
20:47:14:543895,-9,3,-10,-10,-8,-3,-21,-4
20:47:14:552150,-9,3,-10,-10,-8,-3,-21,-4
20:47:14:552941,7,-20,-23,-27,-8,-4,2,11
20:47:14:566509,-5,-50,27,2,0,-2,-14,-5
20:47:14:574635,-5,-50,27,2,0,-2,-14,-5
20:47:14:575436,-7,-3,-21,1,1,12,41,-2
20:47:14:581428,2,1,-35,-21,-9,-5,20,2
20:47:14:588972,2,1,-35,-21,-9,-5,20,2
20:47:14:596447,-9,11,15,3,4,-2,-36,0
20:47:14:603925,-6,15,-9,-1,7,8,5,-20
20:47:14:612171,-6,15,-9,-1,7,8,5,-20
20:47:14:612963,-1,-51,10,-4,-6,-7,-18,-10
20:47:14:626475,6,7,-29,-14,-4,-1,-23,3
20:47:14:634657,6,7,-29,-14,-4,-1,-23,3
20:47:14:635454,-4,8,9,-25,1,5,13,0
20:47:14:641464,19,60,35,7,-1,4,5,1
20:47:14:649023,19,60,35,7,-1,4,5,1
20:47:14:656546,0,-7,-23,3,-2,-6,6,5
20:47:14:663946,-6,-3,-9,16,2,-5,-9,-4
20:47:14:672188,-6,-3,-9,16,2,-5,-9,-4
20:47:14:672989,0,24,-13,0,1,1,-47,3
20:47:14:686459,4,-12,24,-6,-5,-1,9,2
20:47:14:694667,4,-12,24,-6,-5,-1,9,2
20:47:14:695634,-17,-3,-4,1,0,1,-10,-13
20:47:14:709670,2,-7,9,9,4,5,31,-9
20:47:14:710472,2,-7,9,9,4,5,31,-9
20:47:14:716445,-11,-6,-4,-6,-9,-4,-4,1
20:47:14:723981,19,-12,-3,-11,4,-2,2,-2
20:47:14:731536,19,-12,-3,-11,4,-2,2,-2
20:47:14:738949,-2,4,20,18,4,-4,-11,-7
20:47:14:746461,7,-25,-52,-14,-3,2,77,35
20:47:14:762176,7,-25,-52,-14,-3,2,77,35
20:47:14:762948,0,-17,-19,15,5,-1,6,0
20:47:14:769703,-3,30,18,3,-5,0,2,-6
20:47:14:770511,-3,30,18,3,-5,0,2,-6
20:47:14:776492,2,12,3,-19,-4,-1,42,-6
20:47:14:783958,3,-17,40,9,2,0,-22,-5
20:47:14:791507,3,-17,40,9,2,0,-22,-5
20:47:14:798955,0,31,23,28,0,-3,-18,-8
20:47:14:806455,-16,12,10,-7,-3,-7,4,-1
20:47:14:814643,-16,12,10,-7,-3,-7,4,-1
20:47:14:815421,4,-19,-5,-9,-9,-20,-57,26
20:47:14:829649,-18,14,14,-2,-4,-2,-13,-7
20:47:14:830427,-18,14,14,-2,-4,-2,-13,-7
20:47:14:836452,3,8,-8,14,11,9,-10,-2
20:47:14:843966,-12,-19,10,8,5,4,-17,-15
20:47:14:851526,-12,-19,10,8,5,4,-17,-15
20:47:14:858954,3,-22,5,-5,-4,8,4,-6
20:47:14:866468,2,39,11,-8,-9,-3,-18,-2
20:47:14:874894,2,39,11,-8,-9,-3,-18,-2
20:47:14:875439,-6,-5,21,3,1,0,11,-3
20:47:14:889626,-17,-7,-18,-27,-1,-2,1,4
20:47:14:890455,-17,-7,-18,-27,-1,-2,1,4
20:47:14:896428,-2,-14,2,-13,-7,-2,28,-11
20:47:14:903948,-7,-20,-3,21,7,3,-13,6
20:47:14:911506,-7,-20,-3,21,7,3,-13,6
20:47:14:918965,16,58,4,-2,-4,-6,-34,23
20:47:14:926446,-9,-10,-19,2,2,-1,-16,-6
20:47:14:934659,-9,-10,-19,2,2,-1,-16,-6
20:47:14:935445,-2,-44,-29,-21,1,-1,31,-8
20:47:14:949657,13,78,-2,4,1,-3,-14,-6
20:47:14:950454,13,78,-2,4,1,-3,-14,-6
20:47:14:956450,4,-48,-14,4,0,2,14,6
20:47:14:963943,10,-39,3,-12,-19,-9,-19,-5
20:47:14:971520,10,-39,3,-12,-19,-9,-19,-5
20:47:14:978943,-14,-17,7,12,12,4,-15,-16
20:47:14:986452,7,-5,21,6,0,2,46,0
20:47:14:994687,7,-5,21,6,0,2,46,0
20:47:14:995478,-4,22,-13,-23,-9,-7,23,-7
20:47:15:9668,3,-6,-26,8,-1,0,-1,2
20:47:15:10473,3,-6,-26,8,-1,0,-1,2
20:47:15:16428,-15,-8,-10,4,-1,-2,-12,-3
20:47:15:23952,5,9,-45,-4,1,-6,2,3
20:47:15:39688,5,9,-45,-4,1,-6,2,3
20:47:15:40453,15,10,-1,-28,-7,5,26,15
20:47:15:46453,5,-10,0,12,4,3,-41,7
20:47:15:54671,5,-10,0,12,4,3,-41,7
20:47:15:55455,5,7,8,24,-6,2,-21,-16
20:47:15:69637,-12,-31,-32,-9,12,-5,-9,-10
20:47:15:70448,-12,-31,-32,-9,12,-5,-9,-10
20:47:15:76423,5,18,10,-3,-3,2,-7,-8
20:47:15:83928,-5,-5,3,-41,-9,0,-2,-3
20:47:15:91548,-5,-5,3,-41,-9,0,-2,-3
20:47:15:98946,-3,2,3,-15,-3,-9,9,3
20:47:15:106471,16,-7,4,11,4,-4,28,8
20:47:15:114659,16,-7,4,11,4,-4,28,8
20:47:15:115488,9,-27,6,1,-3,-7,-23,5
20:47:15:130289,0,24,-13,-6,-6,2,-11,-8
20:47:15:131161,0,24,-13,-6,-6,2,-11,-8
20:47:15:136459,-3,8,21,29,9,3,10,4
20:47:15:144004,-4,-5,29,14,5,0,-4,-4
20:47:15:151514,-4,-5,29,14,5,0,-4,-4
20:47:15:159002,-6,62,-4,1,6,1,-17,-7
20:47:15:166487,-21,-25,-14,-13,-11,-5,26,30
20:47:15:174652,-21,-25,-14,-13,-11,-5,26,30
20:47:15:175431,3,32,6,21,1,2,18,-5
20:47:15:189719,0,5,-17,0,-4,4,19,0
20:47:15:190475,0,5,-17,0,-4,4,19,0
20:47:15:196461,-4,-20,11,-1,-4,-8,-22,12
20:47:15:203981,-5,-16,-19,-4,-9,-13,-11,-23
20:47:15:211475,-5,-16,-19,-4,-9,-13,-11,-23
20:47:15:218960,9,5,13,-2,0,-9,-42,-11
20:47:15:226458,-2,-5,26,3,7,8,-4,-3
20:47:15:234654,-2,-5,26,3,7,8,-4,-3
20:47:15:235465,-22,-21,-9,-11,-2,2,24,9
20:47:15:249631,13,59,-16,-26,-11,-10,-38,-6
20:47:15:250482,13,59,-16,-26,-11,-10,-38,-6
20:47:15:256454,10,-22,-4,-5,8,1,26,-12
20:47:15:263958,3,37,15,20,0,2,26,14
20:47:15:271476,3,37,15,20,0,2,26,14
20:47:15:278941,-2,-3,-2,8,-6,6,-2,-2
20:47:15:286412,2,9,28,16,7,5,-25,-7
20:47:15:294657,2,9,28,16,7,5,-25,-7
20:47:15:295645,3,-9,-27,-12,2,0,8,7
20:47:15:309673,-11,-22,24,14,6,-6,1,-3
20:47:15:310449,-11,-22,24,14,6,-6,1,-3
20:47:15:316430,-7,-22,-39,-18,-4,-3,23,15
20:47:15:323924,-7,1,-27,-4,0,3,-6,-16
20:47:15:339676,-7,1,-27,-4,0,3,-6,-16
20:47:15:340430,27,-22,-20,-51,-13,-3,-20,-1
20:47:15:346477,11,-34,10,-20,0,2,2,-6
20:47:15:354678,11,-34,10,-20,0,2,2,-6
20:47:15:355446,-4,-6,12,29,2,1,21,0
20:47:15:369652,0,16,6,-2,-9,5,1,1
20:47:15:370460,0,16,6,-2,-9,5,1,1
20:47:15:376448,-31,-33,1,3,1,-15,-32,-13
20:47:15:383923,-1,-24,6,8,-2,-5,7,6
20:47:15:391487,-1,-24,6,8,-2,-5,7,6
20:47:15:398946,7,16,13,25,13,5,21,4
20:47:15:406442,6,14,-16,26,7,1,-2,10
20:47:15:414682,6,14,-16,26,7,1,-2,10
20:47:15:415454,8,6,-9,3,-2,3,8,-4
20:47:15:429657,9,-5,26,10,3,0,8,-6
20:47:15:430455,9,-5,26,10,3,0,8,-6
20:47:15:436457,-7,10,-11,-5,1,1,35,0
20:47:15:443933,3,-26,-16,-19,-11,0,-6,-9
20:47:15:451525,3,-26,-16,-19,-11,0,-6,-9
20:47:15:458947,3,4,3,-7,-7,1,-21,0
20:47:15:466440,-19,2,-12,-60,-13,-5,-1,8
20:47:15:474661,-19,2,-12,-60,-13,-5,-1,8
20:47:15:475496,0,59,10,-19,1,5,-4,6
20:47:15:489640,2,-12,17,17,9,-1,23,-3
20:47:15:490493,2,-12,17,17,9,-1,23,-3
20:47:15:496452,2,41,-1,5,0,-2,3,-4
20:47:15:503930,14,49,-39,-4,-3,0,-4,4
20:47:15:511512,14,49,-39,-4,-3,0,-4,4
20:47:15:518976,-23,-19,-5,3,-6,-1,10,-9
20:47:15:526458,3,-38,-27,-19,-8,-8,1,25
20:47:15:534669,3,-38,-27,-19,-8,-8,1,25
20:47:15:535438,6,31,23,38,5,-7,-21,-7
20:47:15:549656,-19,-32,-15,8,-5,4,24,-13
20:47:15:550477,-19,-32,-15,8,-5,4,24,-13
20:47:15:556456,8,-27,-17,-8,6,4,4,3
20:47:15:563999,12,41,11,15,6,1,-13,-3
20:47:15:571471,12,41,11,15,6,1,-13,-3
20:47:15:578981,23,26,-6,-5,-1,6,22,-7
20:47:15:586488,-11,-51,11,24,7,0,-33,-6
20:47:15:594678,-11,-51,11,24,7,0,-33,-6
20:47:15:595420,-8,3,15,2,4,5,41,9
20:47:15:617830,-2,9,30,5,-3,-2,-2,-7
20:47:15:618653,-2,9,30,5,-3,-2,-2,-7
20:47:15:619461,9,-28,-1,7,-5,0,-37,-12
20:47:15:623957,3,-30,1,7,5,-3,-7,-1
20:47:15:631512,3,-30,1,7,5,-3,-7,-1
20:47:15:638974,-17,-28,14,-22,-8,-4,-8,-1
20:47:15:646475,20,62,10,-2,-5,3,42,2
20:47:15:653961,20,62,10,-2,-5,3,42,2
20:47:15:661417,5,-27,-14,-24,-3,-6,-18,0
20:47:15:669653,-8,-22,47,-11,-3,-11,-39,-6
20:47:15:670451,-8,-22,47,-11,-3,-11,-39,-6
20:47:15:676401,-9,18,-12,2,-11,-14,-22,-5
20:47:15:692108,-9,12,24,17,11,5,20,4
20:47:15:692947,-9,12,24,17,11,5,20,4
20:47:15:698919,-22,-37,-43,25,2,2,-19,-2
20:47:15:706462,-10,-31,-19,-11,-4,1,2,-3
20:47:15:713992,-10,-31,-19,-11,-4,1,2,-3
20:47:15:721412,-4,-86,35,13,3,7,-8,-6
20:47:15:729678,-2,-7,4,-5,-12,-1,-11,-5
20:47:15:730475,-2,-7,4,-5,-12,-1,-11,-5
20:47:15:736450,16,97,28,8,13,2,11,14
20:47:15:752128,-25,23,-24,-1,3,6,16,-4
20:47:15:752964,-25,23,-24,-1,3,6,16,-4
20:47:15:758993,-1,-39,16,-12,-12,-9,-5,-3
20:47:15:766410,-5,22,-17,-42,-3,11,53,13
20:47:15:773983,-5,22,-17,-42,-3,11,53,13
20:47:15:781428,-47,-85,-30,-14,-9,2,21,2
20:47:15:789665,-17,-60,13,-8,-2,0,-21,-15
20:47:15:790480,-17,-60,13,-8,-2,0,-21,-15
20:47:15:796486,-1,0,-6,19,7,3,-11,-5
20:47:15:812150,7,-60,-35,-10,-6,-5,-18,2
20:47:15:812959,7,-60,-35,-10,-6,-5,-18,2
20:47:15:818994,5,34,3,8,0,-4,-7,-11
20:47:15:826472,1,11,-7,3,0,-15,7,-1
20:47:15:834031,1,11,-7,3,0,-15,7,-1
20:47:15:841465,9,14,-5,-6,-6,-2,28,12
20:47:15:849659,0,-4,-1,9,-2,-2,-16,-4
20:47:15:850433,0,-4,-1,9,-2,-2,-16,-4
20:47:15:856457,-8,42,-34,-40,4,3,-32,-6
20:47:15:872205,11,11,32,5,-1,2,6,7
20:47:15:872979,11,11,32,5,-1,2,6,7
20:47:15:878933,18,-11,1,-8,-6,5,-4,-1
20:47:15:894642,13,-12,-11,18,4,-4,-2,0
20:47:15:895453,13,-12,-11,18,4,-4,-2,0
20:47:15:901458,1,-11,12,-1,-2,-4,-22,10
20:47:15:909687,-12,91,33,11,-4,-6,-6,-6
20:47:15:910478,-12,91,33,11,-4,-6,-6,-6
20:47:15:916443,-10,-55,-18,-12,-5,-4,-11,-1
20:47:15:932161,8,-18,-10,-3,8,5,-29,-17
20:47:15:932964,8,-18,-10,-3,8,5,-29,-17
20:47:15:938935,12,10,13,-7,-7,0,39,3
20:47:15:946440,-4,2,-21,19,0,-6,3,-10
20:47:15:954013,-4,2,-21,19,0,-6,3,-10
20:47:15:961452,0,-26,8,-2,0,2,5,8
20:47:15:969609,13,11,-12,-7,5,-1,21,1
20:47:15:970433,13,11,-12,-7,5,-1,21,1
20:47:15:976466,6,9,-24,-2,-2,2,11,-11
20:47:15:992189,-9,-15,6,7,-4,-9,-24,17
20:47:15:992987,-9,-15,6,7,-4,-9,-24,17
20:47:15:998951,2,30,41,11,2,-5,-40,-1
20:47:16:6437,-3,-16,35,25,7,4,16,-3
20:47:16:13971,-3,-16,35,25,7,4,16,-3
20:47:16:21503,-28,-4,8,11,3,-1,12,-7
20:47:16:29657,3,5,-22,-28,-13,-2,-6,0
20:47:16:30433,3,5,-22,-28,-13,-2,-6,0
20:47:16:36409,-15,8,-30,24,4,7,-3,-8
20:47:16:52110,-8,-17,-11,-42,0,11,-16,-7
20:47:16:52930,-8,-17,-11,-42,0,11,-16,-7
20:47:16:58966,3,-8,-5,7,-6,-2,41,11
20:47:16:66468,12,-28,-37,4,1,2,-40,-14
20:47:16:73996,12,-28,-37,4,1,2,-40,-14
20:47:16:81436,11,22,21,-3,6,-1,-23,0
20:47:16:89659,2,-6,7,11,-1,-5,-3,9
20:47:16:90465,2,-6,7,11,-1,-5,-3,9
20:47:16:96444,-20,-5,18,15,1,-5,19,-1
20:47:16:112132,-1,-7,-29,-20,-1,8,8,3
20:47:16:112956,-1,-7,-29,-20,-1,8,8,3
20:47:16:118962,7,-6,37,-10,-6,-2,-10,-5
20:47:16:126412,4,8,-25,-19,-10,-4,3,-14
20:47:16:134011,4,8,-25,-19,-10,-4,3,-14
20:47:16:141450,-14,-47,-3,-8,3,-6,-50,3
20:47:16:149651,-5,-18,21,26,3,0,11,-1
20:47:16:150469,-5,-18,21,26,3,0,11,-1
20:47:16:156446,24,-2,-26,-8,-7,-7,-3,-4
20:47:16:172143,-1,6,28,17,2,5,-30,-3
20:47:16:172959,-1,6,28,17,2,5,-30,-3
20:47:16:178951,-1,21,-16,4,1,3,-26,-24
20:47:16:186436,-5,-22,-22,-38,-9,-7,-6,13
20:47:16:194105,-5,-22,-22,-38,-9,-7,-6,13
20:47:16:201477,12,72,37,3,-3,-1,-2,-1
20:47:16:209646,-3,16,38,-2,-1,-7,10,-3
20:47:16:210484,-3,16,38,-2,-1,-7,10,-3
20:47:16:216472,-11,-79,-24,1,7,9,23,7
20:47:16:232153,-1,-5,5,16,-1,-4,5,7
20:47:16:232961,-1,-5,5,16,-1,-4,5,7
20:47:16:238965,7,25,7,-1,-2,2,-12,2
20:47:16:246474,-29,16,-10,4,1,2,3,-23
20:47:16:254033,-29,16,-10,4,1,2,3,-23
20:47:16:261443,4,-27,-24,-11,-5,-2,59,18
20:47:16:269618,23,37,-4,-27,-3,-9,-32,4
20:47:16:270435,23,37,-4,-27,-3,-9,-32,4
20:47:16:276484,7,28,-32,-21,-3,-9,-40,-3
20:47:16:292100,-8,10,-21,-3,-6,-10,12,-2
20:47:16:293002,-8,10,-21,-3,-6,-10,12,-2
20:47:16:298982,12,54,-8,2,3,-3,-9,9
20:47:16:306475,2,-24,6,44,8,0,-16,-1
20:47:16:313960,2,-24,6,44,8,0,-16,-1
20:47:16:321493,-14,-45,-6,-27,-10,-4,-3,-17
20:47:16:329648,-14,-45,-6,-27,-10,-4,-3,-17
20:47:16:330450,17,2,38,-18,-7,2,28,19
20:47:16:336428,-12,-12,-24,-14,0,2,-7,-8
20:47:16:352164,-12,-12,-24,-14,0,2,-7,-8
20:47:16:352955,-15,-58,-23,6,-10,-16,17,-3
20:47:16:358917,-10,36,8,9,1,-12,1,8
20:47:16:374651,-10,36,8,9,1,-12,1,8
20:47:16:375445,-5,-46,-7,-13,-6,2,-19,1
20:47:16:381459,8,-38,11,-12,4,4,13,-4
20:47:16:389635,8,-38,11,-12,4,4,13,-4
20:47:16:390448,-11,0,1,4,5,3,49,6
20:47:16:396440,2,0,22,26,-6,0,-31,1
20:47:16:412144,2,0,22,26,-6,0,-31,1
20:47:16:412952,-7,-14,-8,-40,-9,0,-23,-10
20:47:16:418969,4,21,-15,-17,-2,4,31,-2
20:47:16:434708,4,21,-15,-17,-2,4,31,-2
20:47:16:435487,0,16,12,24,0,12,23,-16
20:47:16:441443,1,-5,15,22,-2,-9,-4,-6
20:47:16:449634,1,-5,15,22,-2,-9,-4,-6
20:47:16:450446,0,23,-6,-3,20,-5,-57,-11
20:47:16:456486,-1,-49,22,1,-2,4,12,-5
20:47:16:472157,-1,-49,22,1,-2,4,12,-5
20:47:16:472910,17,-2,12,12,-4,6,41,0
20:47:16:478943,-17,-6,-13,-7,4,2,21,-5
20:47:16:494699,-17,-6,-13,-7,4,2,21,-5
20:47:16:495484,-9,-6,-71,-35,-1,1,-18,10
20:47:16:501462,1,0,27,2,-7,-8,8,-6
20:47:16:509671,1,0,27,2,-7,-8,8,-6
20:47:16:510444,8,15,-17,20,12,13,-13,0
20:47:16:516526,4,1,-5,-11,-7,1,36,24
20:47:16:532184,4,1,-5,-11,-7,1,36,24
20:47:16:532972,3,2,21,6,3,0,42,2
20:47:16:538977,-6,2,-12,12,5,6,17,-2
20:47:16:554708,-6,2,-12,12,5,6,17,-2
20:47:16:555473,-5,-4,23,-3,-11,6,85,-8
20:47:16:561468,12,-11,10,33,9,-3,-34,6
20:47:16:569679,12,-11,10,33,9,-3,-34,6
20:47:16:570488,-7,-54,-1,16,1,-11,-40,3
20:47:16:576443,-3,-23,-42,-20,2,-3,-32,-3
20:47:16:592171,-3,-23,-42,-20,2,-3,-32,-3
20:47:16:592961,3,18,10,-4,-7,-12,-17,-1
20:47:16:598974,-17,12,-1,-8,-1,-6,-41,-14
20:47:16:614661,-17,12,-1,-8,-1,-6,-41,-14
20:47:16:615457,5,-28,0,20,10,-10,-14,5
20:47:16:621455,7,26,23,16,2,6,-13,-7
20:47:16:629693,7,26,23,16,2,6,-13,-7
20:47:16:630459,-4,6,10,6,-8,-8,-11,17
20:47:16:643944,-2,-23,-40,-23,-1,4,26,-5
20:47:16:652165,-2,-23,-40,-23,-1,4,26,-5
20:47:16:652956,-3,-19,-3,-10,-5,5,-15,-2
20:47:16:658953,-9,-32,-3,-27,-14,-8,-30,-9
20:47:16:674659,-9,-32,-3,-27,-14,-8,-30,-9
20:47:16:675454,-8,24,-30,-19,3,10,6,-7
20:47:16:681425,8,35,12,19,2,2,54,-7
20:47:16:689666,8,35,12,19,2,2,54,-7
20:47:16:690456,0,5,-3,10,-2,4,4,11
20:47:16:704396,0,0,29,-1,5,3,4,-3
20:47:16:712141,0,0,29,-1,5,3,4,-3
20:47:16:712957,1,27,-42,-59,-12,-1,-27,-9
20:47:16:718933,2,-6,26,12,-4,-5,3,15
20:47:16:734648,2,-6,26,12,-4,-5,3,15
20:47:16:735437,-4,29,0,5,8,5,-17,3
20:47:16:741425,-3,-13,-11,-8,-6,-7,-44,-4
20:47:16:749660,-3,-13,-11,-8,-6,-7,-44,-4
20:47:16:750456,9,20,-6,11,-4,-7,-2,12
20:47:16:763964,1,-5,6,16,2,1,-7,1
20:47:16:772157,1,-5,6,16,2,1,-7,1
20:47:16:772945,5,-11,25,33,3,4,4,2
20:47:16:778913,-1,-14,-10,7,-1,-4,-6,-7
20:47:16:794621,-1,-14,-10,7,-1,-4,-6,-7
20:47:16:795433,0,-14,41,-11,-3,0,4,-16
20:47:16:801480,6,13,-7,-2,4,-5,-18,-19
20:47:16:809650,6,13,-7,-2,4,-5,-18,-19
20:47:16:810429,4,8,0,19,4,-3,-17,-5
20:47:16:823951,-11,-36,12,-32,-17,-4,16,-3
20:47:16:832162,-11,-36,12,-32,-17,-4,16,-3
20:47:16:832958,10,51,13,6,7,2,-11,3
20:47:16:838948,-1,20,-1,-9,1,3,10,3
20:47:16:854626,-1,20,-1,-9,1,3,10,3
20:47:16:855436,-7,13,-7,-3,-2,5,51,-3
20:47:16:861477,0,20,-9,6,2,2,-15,-3
20:47:16:869650,0,20,-9,6,2,2,-15,-3
20:47:16:870437,-6,-38,-6,-16,-2,-7,-31,-10
20:47:16:883954,2,-19,-3,5,-2,5,-16,-7
20:47:16:892138,2,-19,-3,5,-2,5,-16,-7
20:47:16:892953,1,-3,10,7,0,11,56,-5
20:47:16:899009,-14,-16,5,10,3,-6,-12,-9
20:47:16:914708,-14,-16,5,10,3,-6,-12,-9
20:47:16:915496,-19,-19,29,22,-1,-2,-19,-3
20:47:16:921440,-8,6,33,-17,-4,4,30,1
20:47:16:929612,-8,6,33,-17,-4,4,30,1
20:47:16:930432,0,-17,-26,-17,-6,-5,2,17
20:47:16:943977,17,7,-20,-3,-5,-8,37,18
20:47:16:952146,17,7,-20,-3,-5,-8,37,18
20:47:16:952913,-2,-8,-23,17,6,-2,-29,-9
20:47:16:958941,9,6,-15,2,-1,-4,1,-12
20:47:16:974447,9,6,-15,2,-1,-4,1,-12
20:47:16:982110,-8,0,4,-11,-10,-6,19,6
20:47:16:982921,-17,-3,-10,-27,-4,-2,-22,-4
20:47:16:989630,-17,-3,-10,-27,-4,-2,-22,-4
20:47:16:990411,-4,-56,11,-24,-4,-2,-11,-8
20:47:17:3966,8,6,27,25,-1,5,9,7
20:47:17:12180,8,6,27,25,-1,5,9,7
20:47:17:12978,-2,0,-2,-11,-5,-8,-63,0
20:47:17:18940,-17,-4,-8,-9,0,11,17,7
20:47:17:34693,-17,-4,-8,-9,0,11,17,7
20:47:17:35469,2,72,-2,5,0,-1,19,6
20:47:17:41439,15,-2,10,39,3,-3,-4,9
20:47:17:49687,15,-2,10,39,3,-3,-4,9
20:47:17:50458,3,-3,-15,-1,-5,-1,7,-1
20:47:17:63942,5,20,34,3,6,-11,-4,0
20:47:17:72179,5,20,34,3,6,-11,-4,0
20:47:17:72980,-10,-12,16,-11,-6,-5,-37,-2
20:47:17:78961,15,-10,-11,-2,-4,0,81,-3
20:47:17:94685,15,-10,-11,-2,-4,0,81,-3
20:47:17:95460,-8,-3,-17,23,23,6,0,5
20:47:17:101418,-3,-26,-5,11,4,-2,-38,-2
20:47:17:109678,-3,-26,-5,11,4,-2,-38,-2
20:47:17:110469,-6,4,-49,-46,-16,-4,15,-10
20:47:17:123964,2,-4,-34,-15,-3,-1,-45,5
20:47:17:132158,2,-4,-34,-15,-3,-1,-45,5
20:47:17:132970,17,53,32,34,15,-10,-11,9
20:47:17:138913,-5,27,-12,-19,-1,-7,-16,7
20:47:17:154646,-5,27,-12,-19,-1,-7,-16,7
20:47:17:155438,7,-30,-1,-32,-7,4,33,-7
20:47:17:161463,6,22,11,-8,-4,0,18,-1
20:47:17:169663,6,22,11,-8,-4,0,18,-1
20:47:17:170461,9,-18,3,10,1,-8,-44,-3
20:47:17:183925,-12,-18,-32,6,-2,-4,27,1
20:47:17:192174,-12,-18,-32,6,-2,-4,27,1
20:47:17:192976,0,-15,38,30,0,-8,4,-7
20:47:17:198916,-17,18,3,9,3,8,-13,-10
20:47:17:214654,-17,18,3,9,3,8,-13,-10
20:47:17:215440,-5,1,-50,18,2,4,-9,-1
20:47:17:221418,8,-6,9,-7,-1,4,-8,-4
20:47:17:229657,8,-6,9,-7,-1,4,-8,-4
20:47:17:230459,10,-4,11,-17,0,9,9,14
20:47:17:243897,-8,7,32,-24,-8,-9,-10,14
20:47:17:252584,-8,7,32,-24,-8,-9,-10,14
20:47:17:259570,7,-4,-17,13,-1,-1,6,-3
20:47:17:260394,-6,11,4,11,6,3,-7,-27
20:47:17:274632,-6,11,4,11,6,3,-7,-27
20:47:17:275455,-10,-19,-25,-28,-3,-6,20,-8
20:47:17:281434,13,-34,-9,-5,7,-1,3,0
20:47:17:289653,13,-34,-9,-5,7,-1,3,0
20:47:17:290447,-9,0,3,-43,-11,4,3,-2
20:47:17:303954,-6,-8,-14,8,-4,2,-4,4
20:47:17:312136,-6,-8,-14,8,-4,2,-4,4
20:47:17:312951,-14,-2,5,6,-3,-6,-17,4
20:47:17:318965,7,14,27,-1,-4,-2,-41,-4
20:47:17:334644,7,14,27,-1,-4,-2,-41,-4
20:47:17:335465,0,-10,-16,1,0,10,21,-10
20:47:17:341484,0,11,-16,1,1,1,5,4
20:47:17:349763,0,11,-16,1,1,1,5,4
20:47:17:350430,12,-1,11,0,-5,-2,-14,2
20:47:17:363976,-8,1,-11,-3,-7,-1,-14,-5
20:47:17:372140,-8,1,-11,-3,-7,-1,-14,-5
20:47:17:372936,-12,-11,-55,1,5,-1,24,-7
20:47:17:378940,8,10,-15,-27,-6,6,10,2
20:47:17:394642,8,10,-15,-27,-6,6,10,2
20:47:17:395573,9,9,41,15,-7,1,4,3
20:47:17:401465,-10,-37,-22,8,2,-9,-4,-2
20:47:17:409683,-10,-37,-22,8,2,-9,-4,-2
20:47:17:410451,-12,-7,33,10,7,-2,-26,-8
20:47:17:423996,-3,-9,5,3,2,-3,40,1
20:47:17:432160,-3,-9,5,3,2,-3,40,1
20:47:17:432946,-12,-30,-34,-4,-9,-3,11,-4
20:47:17:438961,-2,59,4,5,-3,3,19,17
20:47:17:454685,-2,59,4,5,-3,3,19,17
20:47:17:455460,-2,-8,0,3,-1,6,-14,-3
20:47:17:461460,-11,-28,5,-4,9,-2,10,-5
20:47:17:469658,-11,-28,5,-4,9,-2,10,-5
20:47:17:470428,-2,9,12,12,-1,-7,10,18
20:47:17:483963,-10,10,15,9,-1,0,-24,-7
20:47:17:492143,-10,10,15,9,-1,0,-24,-7
20:47:17:492922,0,1,20,22,1,-1,6,0
20:47:17:498957,14,-21,-6,3,-4,-9,-7,-5
20:47:17:514909,14,-21,-6,3,-4,-9,-7,-5
20:47:17:515477,6,9,1,-11,-10,-11,-5,8
20:47:17:521508,12,63,10,-3,4,-1,-33,3
20:47:17:529077,12,63,10,-3,4,-1,-33,3
20:47:17:536515,3,-51,-9,-5,-2,-15,7,-13
20:47:17:543978,-12,-28,-12,-24,-3,-1,-12,-5
20:47:17:552166,-12,-28,-12,-24,-3,-1,-12,-5
20:47:17:552920,10,39,-4,-11,7,9,-31,-9
20:47:17:566513,0,-4,-3,18,-2,8,-10,-16
20:47:17:574634,0,-4,-3,18,-2,8,-10,-16
20:47:17:575443,-9,13,30,11,3,-3,-24,-18
20:47:17:581459,-1,49,-12,9,6,-2,-20,-3
20:47:17:588975,-1,49,-12,9,6,-2,-20,-3
20:47:17:596411,2,7,-21,-3,-4,5,14,-19
20:47:17:603975,-4,-54,3,10,-6,-11,-16,4
20:47:17:612195,-4,-54,3,10,-6,-11,-16,4
20:47:17:612986,-14,19,20,-49,5,0,51,10
20:47:17:626460,-15,-54,28,4,-3,1,28,-3
20:47:17:634647,-15,-54,28,4,-3,1,28,-3
20:47:17:635440,8,-41,-16,-1,-4,4,7,-2
20:47:17:641483,4,-10,-6,4,-2,-1,-27,16
20:47:17:648981,4,-10,-6,4,-2,-1,-27,16
20:47:17:656456,-3,23,6,23,-1,5,-44,-12
20:47:17:663920,-3,-6,-33,-3,4,-3,14,17
20:47:17:672156,-3,-6,-33,-3,4,-3,14,17
20:47:17:672937,0,-6,17,-9,-12,-4,-6,6
20:47:17:686415,-1,0,-22,4,-5,3,8,-6
20:47:17:694648,-1,0,-22,4,-5,3,8,-6
20:47:17:695453,3,-14,-77,-21,-9,-4,-1,9
20:47:17:701461,-8,-12,25,-18,4,3,22,-17
20:47:17:709028,-8,-12,25,-18,4,3,22,-17
20:47:17:716422,7,22,-19,5,6,-2,22,0
20:47:17:723959,4,-6,-24,-18,-17,2,13,9
20:47:17:732198,4,-6,-24,-18,-17,2,13,9
20:47:17:733001,-11,-12,17,18,9,-1,54,9
20:47:17:746470,8,11,8,10,5,-5,3,6
20:47:17:754668,8,11,8,10,5,-5,3,6
20:47:17:755464,-16,-7,20,12,-2,-3,6,0
20:47:17:761426,4,-8,-40,-44,-11,-6,-16,0
20:47:17:769027,4,-8,-40,-44,-11,-6,-16,0
20:47:17:776453,6,9,12,-24,-2,-1,-30,-18
20:47:17:783979,7,-12,0,-16,1,2,-66,4
20:47:17:792146,7,-12,0,-16,1,2,-66,4
20:47:17:792927,-4,10,19,0,-6,4,-5,0
20:47:17:806454,-5,-14,9,10,5,9,27,-1
20:47:17:814690,-5,-14,9,10,5,9,27,-1
20:47:17:815489,5,-21,-8,-5,-4,0,-36,-13
20:47:17:821454,13,-24,13,6,-4,2,69,8
20:47:17:828969,13,-24,13,6,-4,2,69,8
20:47:17:836449,-9,31,8,-14,-1,-2,10,16
20:47:17:843957,1,-3,-21,-17,-8,-9,-14,-1
20:47:17:852154,1,-3,-21,-17,-8,-9,-14,-1
20:47:17:852919,9,-8,-4,27,2,-5,-41,-1
20:47:17:866451,-11,65,42,32,12,12,46,-6
20:47:17:874659,-11,65,42,32,12,12,46,-6
20:47:17:875419,-15,0,-10,10,-2,-3,-17,-4
20:47:17:881459,2,-3,-17,-12,-1,-2,-12,1
20:47:17:888980,2,-3,-17,-12,-1,-2,-12,1
20:47:17:896436,-7,-29,7,-8,-5,3,56,21
20:47:17:903909,6,-1,12,8,0,-3,11,-3
20:47:17:912157,6,-1,12,8,0,-3,11,-3
20:47:17:912947,7,0,6,9,6,1,-14,-5
20:47:17:926479,3,27,-11,-8,-1,1,-20,-1
20:47:17:934664,3,27,-11,-8,-1,1,-20,-1
20:47:17:935473,1,36,3,-11,-5,-1,13,-4
20:47:17:941403,7,-14,14,16,-3,0,-13,-3
20:47:17:949026,7,-14,14,16,-3,0,-13,-3
20:47:17:956429,10,-7,2,15,5,0,-46,-14
20:47:17:963939,0,-1,2,-8,-7,13,26,0
20:47:17:972157,0,-1,2,-8,-7,13,26,0
20:47:17:972947,-10,-8,-25,7,8,13,18,1
20:47:17:986444,-16,-19,-10,-7,-9,-7,-36,-10
20:47:17:994678,-16,-19,-10,-7,-9,-7,-36,-10
20:47:17:995446,13,6,5,13,-4,-4,11,0
20:47:18:1464,-2,0,-24,34,5,-9,-3,-11
20:47:18:9020,-2,0,-24,34,5,-9,-3,-11
20:47:18:16471,3,1,-29,-55,-12,-11,-16,6
20:47:18:23938,-9,4,30,20,8,1,31,6
20:47:18:32185,-9,4,30,20,8,1,31,6
20:47:18:32980,-5,-12,6,8,-2,-4,3,-7
20:47:18:46465,-9,20,-11,-19,7,-1,3,3
20:47:18:54664,-9,20,-11,-19,7,-1,3,3
20:47:18:55489,-3,-2,1,-4,-8,4,7,-8
20:47:18:61451,10,1,12,18,-3,2,-2,-1
20:47:18:69040,10,1,12,18,-3,2,-2,-1
20:47:18:76469,-21,1,6,7,9,8,-4,-1
20:47:18:83980,8,0,4,-11,-10,-12,29,20
20:47:18:92171,8,0,4,-11,-10,-12,29,20
20:47:18:92937,11,-13,10,-18,-5,0,-2,10
20:47:18:106443,-7,-29,-7,-7,-10,-7,-2,-8
20:47:18:114698,-7,-29,-7,-7,-10,-7,-2,-8
20:47:18:115485,-2,31,6,10,16,3,32,-15
20:47:18:121460,-4,-10,-20,-19,-15,-7,-23,-10
20:47:18:128962,-4,-10,-20,-19,-15,-7,-23,-10
20:47:18:136458,-5,-15,10,3,-5,-2,-20,-2
20:47:18:143972,1,-7,15,-10,2,-8,51,24
20:47:18:152151,1,-7,15,-10,2,-8,51,24
20:47:18:152952,6,-2,-4,11,7,11,23,20
20:47:18:166483,-9,-1,-22,-28,-5,-4,26,1
20:47:18:174661,-9,-1,-22,-28,-5,-4,26,1
20:47:18:175449,14,3,-3,1,-1,-4,-20,-7
20:47:18:181458,0,-13,-6,3,6,2,-27,-12
20:47:18:189020,0,-13,-6,3,6,2,-27,-12
20:47:18:196410,-18,21,38,29,7,2,-16,-3
20:47:18:203932,-5,-5,-59,-44,-10,-2,-22,-12
20:47:18:212154,-5,-5,-59,-44,-10,-2,-22,-12
20:47:18:212943,-5,-19,20,16,0,-1,20,3
20:47:18:226463,0,16,-7,29,10,5,-39,-2
20:47:18:234634,0,16,-7,29,10,5,-39,-2
20:47:18:235475,-1,12,-22,-18,-15,-7,-7,-8
20:47:18:241407,6,-4,11,1,8,10,-39,-4
20:47:18:249027,6,-4,11,1,8,10,-39,-4
20:47:18:256424,-7,-13,-14,8,-5,-8,-39,-16
20:47:18:263929,-2,3,3,5,-4,-6,-8,-2
20:47:18:272179,-2,3,3,5,-4,-6,-8,-2
20:47:18:272972,13,-2,-40,-6,-1,3,0,7
20:47:18:286410,-15,-33,36,50,14,12,23,-18
20:47:18:294676,-15,-33,36,50,14,12,23,-18
20:47:18:295452,2,59,17,-8,-2,2,-4,2
20:47:18:301429,-16,5,34,8,-1,-3,2,5
20:47:18:309022,-16,5,34,8,-1,-3,2,5
20:47:18:316426,-7,-30,14,-22,-9,-9,5,7
20:47:18:323945,2,13,-4,7,0,1,-2,-11
20:47:18:332191,2,13,-4,7,0,1,-2,-11
20:47:18:333007,12,3,-3,10,7,3,13,1
20:47:18:346422,14,21,9,10,-6,-5,-49,-1
20:47:18:354655,14,21,9,10,-6,-5,-49,-1
20:47:18:355466,-4,-31,7,3,10,6,36,1
20:47:18:361429,5,18,3,2,2,0,-5,22
20:47:18:369003,5,18,3,2,2,0,-5,22
20:47:18:376462,6,-6,-5,6,-5,1,6,14
20:47:18:383961,-18,-10,-27,-30,0,-2,-1,0
20:47:18:392129,-18,-10,-27,-30,0,-2,-1,0
20:47:18:392932,-12,-7,-28,-6,-2,1,23,-1
20:47:18:406441,1,-4,17,11,2,-6,14,-3
20:47:18:414714,1,-4,17,11,2,-6,14,-3
20:47:18:415475,-5,-23,-21,-3,-3,-8,-38,-15
20:47:18:421499,11,-26,4,-5,-5,-5,28,-4
20:47:18:428981,11,-26,4,-5,-5,-5,28,-4
20:47:18:436525,5,20,2,-1,4,-6,-24,-2
20:47:18:443957,-6,0,-35,-63,-15,-1,-4,-7
20:47:18:452173,-6,0,-35,-63,-15,-1,-4,-7
20:47:18:452950,6,27,-12,2,7,2,12,6
20:47:18:466519,-2,-7,-2,5,-5,-9,-29,-9
20:47:18:474665,-2,-7,-2,5,-5,-9,-29,-9
20:47:18:475421,-4,9,21,-3,-4,-11,-20,4
20:47:18:489618,7,15,-12,-7,3,14,10,-11
20:47:18:490425,7,15,-12,-7,3,14,10,-11
20:47:18:496454,-20,-10,20,6,4,5,11,13
20:47:18:503953,-21,-19,-8,-42,-6,-1,8,8
20:47:18:511463,-21,-19,-8,-42,-6,-1,8,8
20:47:18:518912,7,-21,11,12,0,0,14,-5
20:47:18:526474,0,6,17,18,4,-8,54,4
20:47:18:534641,0,6,17,18,4,-8,54,4
20:47:18:535453,6,-10,-20,-35,-5,-3,-40,-9
20:47:18:549610,13,1,-1,14,-4,-9,-10,-9
20:47:18:550431,13,1,-1,14,-4,-9,-10,-9
20:47:18:556435,-15,-19,-13,9,-2,2,-4,-8
20:47:18:563911,-4,-3,14,13,-6,-3,-5,-2
20:47:18:571484,-4,-3,14,13,-6,-3,-5,-2
20:47:18:578930,3,-8,1,-1,2,-2,3,18
20:47:18:586547,5,-16,-1,2,0,-9,-31,0
20:47:18:594673,5,-16,-1,2,0,-9,-31,0
20:47:18:595458,0,7,-3,-13,-10,-9,88,-11
20:47:18:609644,3,39,7,13,11,5,28,18
20:47:18:610500,3,39,7,13,11,5,28,18
20:47:18:616433,3,3,-8,-5,-6,-1,-15,-2
20:47:18:623902,-11,0,1,10,-6,-8,-33,-8
20:47:18:631493,-11,0,1,10,-6,-8,-33,-8
20:47:18:638949,2,-5,5,-14,1,0,-20,-13
20:47:18:646448,5,1,-2,10,4,13,1,-5
20:47:18:654719,5,1,-2,10,4,13,1,-5
20:47:18:655475,5,16,33,7,-2,-4,-13,-3
20:47:18:669702,-5,-47,-27,-15,-3,-2,1,-12
20:47:18:670451,-5,-47,-27,-15,-3,-2,1,-12
20:47:18:676444,21,24,-5,-4,-2,-2,-31,-5
20:47:18:683953,7,-10,11,0,0,1,-61,-8
20:47:18:691511,7,-10,11,0,0,1,-61,-8
20:47:18:698964,-4,28,24,9,5,2,3,2
20:47:18:706438,6,67,-11,-5,-1,6,-25,6
20:47:18:714614,6,67,-11,-5,-1,6,-25,6
20:47:18:715440,-6,-12,-13,-11,-6,0,-21,1
20:47:18:729681,-10,-23,-10,-16,7,-5,-30,-1
20:47:18:730493,-10,-23,-10,-16,7,-5,-30,-1
20:47:18:736466,0,-3,-10,5,-2,-1,-15,-4
20:47:18:743957,0,-6,3,4,-12,-4,-2,1
20:47:18:751455,0,-6,3,4,-12,-4,-2,1
20:47:18:758964,-5,-15,-28,-2,8,0,-7,0
20:47:18:766463,-3,-11,-14,-8,-2,1,32,1
20:47:18:774648,-3,-11,-14,-8,-2,1,32,1
20:47:18:775424,-7,-5,35,1,-5,2,10,0
20:47:18:789614,-9,4,37,8,5,2,21,1
20:47:18:790436,-9,4,37,8,5,2,21,1
20:47:18:796474,2,2,1,-1,-2,0,12,-1
20:47:18:803995,6,15,5,5,0,0,13,1
20:47:18:811527,6,15,5,5,0,0,13,1
20:47:18:818921,-3,43,3,6,0,2,31,-2
20:47:18:826440,2,-8,0,3,-1,1,14,1
20:47:18:834667,2,-8,0,3,-1,1,14,1
20:47:18:835452,0,-24,-21,-5,-6,-6,8,-1
20:47:18:849630,-2,-3,-44,-11,-4,-7,-3,-3
20:47:18:850459,-2,-3,-44,-11,-4,-7,-3,-3
20:47:18:856422,-1,-4,9,3,4,7,-14,2
20:47:18:863953,4,14,22,-1,1,-5,-7,1
20:47:18:871521,4,14,22,-1,1,-5,-7,1
20:47:18:878940,-3,-8,17,-7,-13,-4,-5,-4
20:47:18:886412,7,17,44,9,-1,1,7,-15
20:47:18:894676,7,17,44,9,-1,1,7,-15
20:47:18:895453,-4,-2,-14,-5,3,0,6,3
20:47:18:909676,-7,-12,-8,0,-4,-3,1,3
20:47:18:910473,-7,-12,-8,0,-4,-3,1,3
20:47:18:916431,-2,-10,-9,1,5,2,-1,-2
20:47:18:923932,-1,-10,-41,-12,-2,2,5,0
20:47:18:931523,-1,-10,-41,-12,-2,2,5,0
20:47:18:938938,-3,36,13,7,0,-4,-7,1
20:47:18:946442,-7,-18,-12,-1,-2,-1,4,-1
20:47:18:954686,-7,-18,-12,-1,-2,-1,4,-1
20:47:18:955484,3,-25,-47,4,-3,-2,-2,-1
20:47:18:969658,-5,-1,19,5,-2,-3,0,3
20:47:18:970466,-5,-1,19,5,-2,-3,0,3
20:47:18:976435,-4,-32,-15,3,1,-1,2,-5
20:47:18:983959,-8,-31,-16,-5,-1,-5,-15,-3
20:47:18:991525,-8,-31,-16,-5,-1,-5,-15,-3
20:47:18:998945,5,8,13,-3,-2,-1,5,1
20:47:19:6478,-2,-8,-5,1,1,1,-6,-2
20:47:19:14640,-2,-8,-5,1,1,1,-6,-2
20:47:19:15444,3,-12,-7,-6,-3,-5,-10,-3
20:47:19:29593,4,24,14,6,1,2,8,0
20:47:19:30473,4,24,14,6,1,2,8,0
20:47:19:36477,-9,-28,3,-14,-7,-6,-6,-3
20:47:19:43994,5,-11,1,6,0,4,12,5
20:47:19:59709,5,-11,1,6,0,4,12,5
20:47:19:60454,2,-25,8,-18,-1,0,2,-1
20:47:19:66439,2,15,3,-6,-5,-1,0,0
20:47:19:74659,2,15,3,-6,-5,-1,0,0
20:47:19:75531,0,42,19,-7,0,2,-3,1
20:47:19:89668,-2,-1,-4,-7,-1,-1,1,-3
20:47:19:90478,-2,-1,-4,-7,-1,-1,1,-3
20:47:19:96438,7,7,-5,13,-4,-7,-2,1
20:47:19:103966,1,2,15,0,3,-3,6,2
20:47:19:111516,1,2,15,0,3,-3,6,2
20:47:19:119015,0,8,-22,-10,-3,2,-2,-3
20:47:19:126430,-10,-13,6,7,-1,1,-7,-9
20:47:19:134691,-10,-13,6,7,-1,1,-7,-9
20:47:19:135443,8,-3,-6,-6,2,-2,0,1
20:47:19:149653,-14,9,-11,7,-6,-10,-4,2
20:47:19:150464,-14,9,-11,7,-6,-10,-4,2
20:47:19:156457,7,2,7,35,17,5,5,3
20:47:19:163971,4,-3,-12,-25,-5,-2,-4,-7
20:47:19:171615,4,-3,-12,-25,-5,-2,-4,-7
20:47:19:178931,-9,-19,12,0,-9,-6,-4,-1
20:47:19:186477,18,10,1,-10,-5,-3,3,2
20:47:19:194707,18,10,1,-10,-5,-3,3,2
20:47:19:195436,-3,-2,7,0,-3,-4,4,-2
20:47:19:209659,-1,-2,-3,-2,7,1,-7,-1
20:47:19:210430,-1,-2,-3,-2,7,1,-7,-1
20:47:19:216412,10,7,-2,2,-1,3,-1,2
20:47:19:223962,20,-2,-1,15,-3,2,1,0
20:47:19:231513,20,-2,-1,15,-3,2,1,0
20:47:19:238958,-6,-4,-7,-8,4,-13,-16,-1
20:47:19:246427,-24,-16,-1,-4,0,0,-3,-2
20:47:19:254693,-24,-16,-1,-4,0,0,-3,-2
20:47:19:255457,1,-28,-19,-16,-14,-2,1,-3
20:47:19:277838,2,6,1,-2,4,2,-1,2
20:47:19:278609,2,6,1,-2,4,2,-1,2
20:47:19:279421,-15,4,-6,-1,1,0,-7,-1
20:47:19:283965,-3,-2,2,-5,-6,-5,4,7
20:47:19:291488,-3,-2,2,-5,-6,-5,4,7
20:47:19:298957,-6,1,3,1,1,4,-6,-11
20:47:19:306506,-2,-2,0,7,-4,-3,-2,-6
20:47:19:314638,-2,-2,0,7,-4,-3,-2,-6
20:47:19:315433,-16,-2,-3,-1,-7,0,-5,-1
20:47:19:329630,-2,-5,-6,-4,6,2,0,-2
20:47:19:330443,-2,-5,-6,-4,6,2,0,-2
20:47:19:336419,16,2,-2,-2,-8,-6,0,-2
20:47:19:343917,1,3,12,4,0,2,-5,-2
20:47:19:351520,1,3,12,4,0,2,-5,-2
20:47:19:358919,-4,1,-30,11,11,1,2,2
20:47:19:366433,3,1,-16,-52,-12,-8,-6,-4
20:47:19:374661,3,1,-16,-52,-12,-8,-6,-4
20:47:19:375453,-6,3,10,-8,-4,-4,-6,0
20:47:19:389672,-4,5,8,20,2,-1,1,-1
20:47:19:390476,-4,5,8,20,2,-1,1,-1
20:47:19:396408,2,-8,-9,1,5,2,0,-4
20:47:19:403922,3,-8,-7,0,-2,-1,-2,-4
20:47:19:411488,3,-8,-7,0,-2,-1,-2,-4
20:47:19:418943,-6,-2,3,-1,0,1,4,-1
20:47:19:426440,-6,1,-5,6,5,6,-13,-2
20:47:19:434020,-6,1,-5,6,5,6,-13,-2
20:47:19:441452,-1,2,8,-10,-1,0,15,3
20:47:19:449621,-7,-1,-4,14,5,1,1,0
20:47:19:450440,-7,-1,-4,14,5,1,1,0
20:47:19:456469,-7,3,3,-6,-6,-5,-6,-4
20:47:19:472220,0,-1,-4,10,4,1,0,-1
20:47:19:472963,0,-1,-4,10,4,1,0,-1
20:47:19:478935,-3,-5,12,-10,0,2,4,-1
20:47:19:486502,2,3,16,2,4,0,3,-1
20:47:19:494045,2,3,16,2,4,0,3,-1
20:47:19:501489,4,-3,-29,-5,-5,-4,-2,0
20:47:19:509662,-2,4,1,-8,3,4,5,-1
20:47:19:510433,-2,4,1,-8,3,4,5,-1
20:47:19:516408,7,-1,6,-5,-1,-1,-4,0
20:47:19:532128,-13,-4,-15,-14,-7,-3,2,6
20:47:19:532943,-13,-4,-15,-14,-7,-3,2,6
20:47:19:538991,-10,-3,10,10,-2,2,1,-1
20:47:19:546507,6,1,-8,-2,-2,1,4,-3
20:47:19:554006,6,1,-8,-2,-2,1,4,-3
20:47:19:561427,5,1,-1,2,3,0,-3,-2
20:47:19:569672,-4,-8,-13,-2,-4,-4,-4,0
20:47:19:570471,-4,-8,-13,-2,-4,-4,-4,0
20:47:19:576422,-1,4,14,35,4,-2,-8,-3
20:47:19:592127,-3,5,-12,-59,-11,0,2,5
20:47:19:592931,-3,5,-12,-59,-11,0,2,5
20:47:19:598915,8,4,4,-8,-3,-2,-1,11
20:47:19:606425,-6,-7,6,22,2,0,0,-1
20:47:19:614021,-6,-7,6,22,2,0,0,-1
20:47:19:621416,-4,1,-1,0,0,2,-4,0
20:47:19:629685,7,4,-2,5,-1,-2,1,-4
20:47:19:630460,7,4,-2,5,-1,-2,1,-4
20:47:19:643935,1,-4,-4,2,-1,1,1,-5
20:47:19:652146,-6,-3,2,2,0,-2,-4,-6
20:47:19:652991,-6,-3,2,2,0,-2,-4,-6
20:47:19:658913,-6,0,-5,-8,-4,-2,-6,-3
20:47:19:666442,-1,5,4,11,1,-1,-3,0
20:47:19:674006,-1,5,4,11,1,-1,-3,0
20:47:19:681467,1,2,-6,-9,0,-1,4,-2
20:47:19:689615,-2,-12,0,9,0,-1,0,-1
20:47:19:690405,-2,-12,0,9,0,-1,0,-1
20:47:19:696465,1,-1,-2,-5,1,2,1,-3
20:47:19:712183,-1,0,0,14,-1,-4,-1,-2
20:47:19:712960,-1,0,0,14,-1,-4,-1,-2
20:47:19:718944,-7,-4,0,11,4,1,1,-1
20:47:19:726443,1,1,1,8,1,-2,1,-2
20:47:19:734032,1,1,1,8,1,-2,1,-2
20:47:19:741460,-7,0,9,7,-1,-1,1,-2
20:47:19:749630,-5,0,1,-5,0,0,-2,-1
20:47:19:750455,-5,0,1,-5,0,0,-2,-1
20:47:19:756472,0,-2,-7,-9,-1,-1,0,-3
20:47:19:772092,0,-2,-3,-4,-2,-1,-1,-4
20:47:19:772904,0,-2,-3,-4,-2,-1,-1,-4
20:47:19:778972,3,-1,-4,-5,-3,-1,0,-2
20:47:19:786465,4,-1,-1,4,-2,1,0,-1
20:47:19:794021,4,-1,-1,4,-2,1,0,-1
20:47:19:801498,7,-3,-2,-6,-1,-2,1,3
20:47:19:809660,-12,-14,-2,-2,-1,-1,-1,-3
20:47:19:810451,-12,-14,-2,-2,-1,-1,-1,-3
20:47:19:816434,2,0,-2,-4,-2,-1,-1,-2
20:47:19:832193,8,1,1,-2,1,0,-2,4
20:47:19:832953,8,1,1,-2,1,0,-2,4
20:47:19:838915,-3,1,-5,0,0,-4,-3,-4
20:47:19:846518,-3,3,0,-2,-1,-2,-2,0
20:47:19:853998,-3,3,0,-2,-1,-2,-2,0
20:47:19:861438,-2,3,-1,-3,-3,-1,1,-1
20:47:19:869687,-1,2,0,1,0,-1,-1,-3
20:47:19:870471,-1,2,0,1,0,-1,-1,-3
20:47:19:876426,1,-3,1,0,-1,0,0,-1
20:47:19:892188,1,-1,-1,1,0,-1,0,1
20:47:19:892944,1,-1,-1,1,0,-1,0,1
20:47:19:898978,-10,-3,-2,-2,-2,-1,0,-1
20:47:19:906452,3,1,0,-3,-1,-2,-2,-1
20:47:19:914072,3,1,0,-3,-1,-2,-2,-1
20:47:19:921442,-4,-1,2,0,0,0,-1,-2
20:47:19:929718,1,-1,-2,-1,-2,-1,-2,-2
20:47:19:930466,1,-1,-2,-1,-2,-1,-2,-2
20:47:19:936454,4,2,-2,-1,-2,-2,-2,1
20:47:19:952174,-9,0,1,6,0,-1,-1,-2
20:47:19:952971,-9,0,1,6,0,-1,-1,-2
20:47:19:958949,-3,-2,-3,-10,-1,0,-1,-1
20:47:19:966455,7,3,-5,-29,-7,-1,-1,0
20:47:19:974018,7,3,-5,-29,-7,-1,-1,0
