Time,EMG1,EMG2,EMG3,EMG4,EMG5,EMG6,EMG7,EMG8
20:47:37:474357,-6,-16,-3,0,-3,-2,-2,-2
20:47:37:475134,-5,-3,4,0,-2,1,-1,-1
20:47:37:488589,-9,-1,-3,-1,0,-1,-2,-1
20:47:37:496848,-9,-1,-3,-1,0,-1,-2,-1
20:47:37:497620,0,-1,0,1,-1,-1,0,-1
20:47:37:511812,0,4,0,-1,0,0,0,-1
20:47:37:512626,0,4,0,-1,0,0,0,-1
20:47:37:518596,5,4,0,-2,-1,0,-2,-1
20:47:37:526101,-1,-1,-6,0,0,-2,1,1
20:47:37:534343,-1,-1,-6,0,0,-2,1,1
20:47:37:535114,0,-1,-2,-4,-2,-3,-1,-1
20:47:37:548638,3,1,4,-3,0,-2,-2,0
20:47:37:556853,3,1,4,-3,0,-2,-2,0
20:47:37:557615,6,1,-3,1,-2,1,0,-1
20:47:37:563625,-1,1,-1,0,-2,-2,-1,-1
20:47:37:571195,-1,1,-1,0,-2,-2,-1,-1
20:47:37:578612,-3,-3,-1,0,0,-2,-5,0
20:47:37:586134,1,4,3,0,-1,-2,-3,-2
20:47:37:594271,1,4,3,0,-1,-2,-3,-2
20:47:37:595059,2,3,1,-2,-1,-2,-11,0
20:47:37:608616,1,-4,-2,-1,-1,0,-1,0
20:47:37:616828,1,-4,-2,-1,-1,0,-1,0
20:47:37:617614,1,-2,0,-1,0,0,0,-1
20:47:37:623611,3,2,-1,0,-1,0,0,0
20:47:37:631136,3,2,-1,0,-1,0,0,0
20:47:37:638656,-5,-3,-4,0,-1,0,2,-1
20:47:37:646107,1,-4,-4,-2,-1,-1,2,-1
20:47:37:654330,1,-4,-4,-2,-1,-1,2,-1
20:47:37:655087,-1,-1,4,0,-1,-2,3,-1
20:47:37:668624,-9,-4,-2,-1,-1,1,-4,-1
20:47:37:676779,-9,-4,-2,-1,-1,1,-4,-1
20:47:37:677594,3,4,-1,-4,-2,1,3,2
20:47:37:683624,-2,1,1,0,0,-1,0,-1
20:47:37:691130,-2,1,1,0,0,-1,0,-1
20:47:37:698589,-15,-2,5,0,1,-2,0,-3
20:47:37:706078,8,1,-4,-2,-1,-2,0,-2
20:47:37:714336,8,1,-4,-2,-1,-2,0,-2
20:47:37:715089,1,4,-1,-1,-2,2,0,-1
20:47:37:728662,0,0,1,0,0,-1,-1,-1
20:47:37:736800,0,0,1,0,0,-1,-1,-1
20:47:37:737586,-2,-6,-4,-1,1,0,1,0
20:47:37:743595,2,2,-1,-1,-1,-2,0,-1
20:47:37:751142,2,2,-1,-1,-1,-2,0,-1
20:47:37:758608,-3,-1,-1,0,0,-1,8,-1
20:47:37:766069,-3,-3,-1,-1,-2,-1,0,-1
20:47:37:774318,-3,-3,-1,-1,-2,-1,0,-1
20:47:37:775109,-6,-1,-2,0,-1,-1,-3,-1
20:47:37:788593,-4,-1,-4,-1,-1,0,-1,0
20:47:37:796821,-4,-1,-4,-1,-1,0,-1,0
20:47:37:797618,9,2,-2,-1,-2,-1,-2,0
20:47:37:803583,-10,-2,0,0,-2,-2,-2,-2
20:47:37:811183,-10,-2,0,0,-2,-2,-2,-2
20:47:37:818650,1,-2,2,0,-2,-1,-3,-2
20:47:37:826120,-7,0,0,1,0,-1,1,-1
20:47:37:834367,-7,0,0,1,0,-1,1,-1
20:47:37:835113,-5,1,-2,-2,-1,0,-2,-1
20:47:37:848577,5,-1,-2,-2,-1,0,-1,-1
20:47:37:856857,5,-1,-2,-2,-1,0,-1,-1
20:47:37:857620,2,0,0,-4,0,-1,-2,-2
20:47:37:863620,1,-1,0,0,-1,-1,1,-3
20:47:37:871208,1,-1,0,0,-1,-1,1,-3
20:47:37:878622,-1,0,-4,-4,-2,-1,-1,0
20:47:37:886112,1,-6,-2,1,1,-1,0,-1
20:47:37:894287,1,-6,-2,1,1,-1,0,-1
20:47:37:895061,-1,-4,0,1,0,-2,0,0
20:47:37:908599,-4,8,0,-3,-2,-2,-2,-2
20:47:37:916875,-4,8,0,-3,-2,-2,-2,-2
20:47:37:917660,5,1,1,-1,-2,-1,-1,0
20:47:37:923624,-1,-3,-1,-1,0,-2,-7,0
20:47:37:931129,-1,-3,-1,-1,0,-2,-7,0
20:47:37:938618,-5,0,0,-1,-2,-1,1,-1
20:47:37:946131,5,2,0,-2,-2,-1,-5,0
20:47:37:954316,5,2,0,-2,-2,-1,-5,0
20:47:37:955104,6,-3,-1,-1,-1,0,-5,-2
20:47:37:968630,-1,-5,-3,-1,-1,-2,-3,0
20:47:37:976806,-1,-5,-3,-1,-1,-2,-3,0
20:47:37:977596,-2,-2,0,1,-1,-3,0,-3
20:47:37:991764,2,2,1,-1,0,-1,2,-2
20:47:37:992576,2,2,1,-1,0,-1,2,-2
20:47:37:998603,-5,-1,-2,-1,-2,-2,1,0
20:47:38:6123,0,-3,-4,-1,-1,0,0,-1
20:47:38:13689,0,-3,-4,-1,-1,0,0,-1
20:47:38:21070,-9,-3,0,-1,-1,0,-3,-3
20:47:38:28647,-4,-3,-2,0,-1,-1,1,-2
20:47:38:36823,-4,-3,-2,0,-1,-1,1,-2
20:47:38:37599,9,4,-2,0,-1,0,0,0
20:47:38:51797,-7,-3,-4,-3,-1,0,0,-1
20:47:38:52632,-7,-3,-4,-3,-1,0,0,-1
20:47:38:58554,-3,0,-1,-1,1,2,5,-1
20:47:38:66075,-1,-2,-2,-3,-2,-1,-3,1
20:47:38:73645,-1,-2,-2,-3,-2,-1,-3,1
20:47:38:81079,-1,-2,-1,-3,-1,-2,-5,-2
20:47:38:88627,0,-4,-8,-2,-1,-1,1,-2
20:47:38:96832,0,-4,-8,-2,-1,-1,1,-2
20:47:38:97595,4,0,0,-2,-1,-1,-2,1
20:47:38:111849,3,0,2,1,0,-3,-1,0
20:47:38:112589,3,0,2,1,0,-3,-1,0
20:47:38:118576,3,0,-2,-1,0,-2,-2,1
20:47:38:126069,2,2,1,-1,-2,-1,0,0
20:47:38:133674,2,2,1,-1,-2,-1,0,0
20:47:38:141075,-1,-1,1,-1,0,-2,-1,-3
20:47:38:148606,-8,1,1,-1,0,0,1,-2
20:47:38:156847,-8,1,1,-1,0,0,1,-2
20:47:38:157620,-6,-4,-3,-2,0,0,-2,1
20:47:38:171823,1,-3,2,3,0,-1,-1,-2
20:47:38:172619,1,-3,2,3,0,-1,-1,-2
20:47:38:178590,-1,-2,-9,1,-3,-1,-2,-3
20:47:38:186073,-2,4,3,5,0,-1,0,0
20:47:38:193670,-2,4,3,5,0,-1,0,0
20:47:38:201105,-3,-7,-8,-3,-3,-2,-2,-1
20:47:38:208637,-1,-3,7,0,0,0,-2,-1
20:47:38:216777,-1,-3,7,0,0,0,-2,-1
20:47:38:217590,1,4,2,8,2,0,0,0
20:47:38:231799,-2,-6,-7,-5,-3,0,0,-3
20:47:38:232645,-2,-6,-7,-5,-3,0,0,-3
20:47:38:238597,-1,1,-14,-20,-3,1,1,-2
20:47:38:246135,1,-2,-6,-11,1,1,-1,0
20:47:38:253658,1,-2,-6,-11,1,1,-1,0
20:47:38:261133,0,4,36,6,8,0,-1,-1
20:47:38:268620,-3,-4,15,-15,-6,-4,-3,-2
20:47:38:276818,-3,-4,15,-15,-6,-4,-3,-2
20:47:38:277624,-1,-6,-24,-4,-15,-2,7,0
20:47:38:291770,1,-1,-22,4,9,2,-8,0
20:47:38:292572,1,-1,-22,4,9,2,-8,0
20:47:38:298616,-1,-2,7,-2,-6,-5,-18,0
20:47:38:306121,-2,0,8,9,-8,-4,-8,-2
20:47:38:313654,-2,0,8,9,-8,-4,-8,-2
20:47:38:321089,-1,-1,-33,-12,1,4,13,2
20:47:38:328568,-3,1,-6,1,1,-4,-18,-4
20:47:38:336821,-3,1,-6,1,1,-4,-18,-4
20:47:38:337601,-2,3,1,10,0,-6,-13,8
20:47:38:351809,-2,-9,-27,-7,5,2,-13,7
20:47:38:352641,-2,-9,-27,-7,5,2,-13,7
20:47:38:358587,-5,1,24,13,1,5,-5,-12
20:47:38:366065,-1,2,3,-6,-10,-3,32,1
20:47:38:373628,-1,2,3,-6,-10,-3,32,1
20:47:38:381160,0,-2,-6,-5,-3,-13,-49,-12
20:47:38:388578,8,5,12,8,7,3,32,26
20:47:38:396848,8,5,12,8,7,3,32,26
20:47:38:397627,1,-6,-13,-9,-3,1,12,7
20:47:38:411799,-2,2,14,8,-4,-1,3,-11
20:47:38:412618,-2,2,14,8,-4,-1,3,-11
20:47:38:418599,2,-2,-10,-2,0,1,5,-3
20:47:38:426239,0,0,-12,-1,4,1,-3,2
20:47:38:433683,0,0,-12,-1,4,1,-3,2
20:47:38:441087,-4,-2,-1,-3,-4,0,6,0
20:47:38:457468,-1,4,-18,1,-2,0,-5,-9
20:47:38:458275,-1,4,-18,1,-2,0,-5,-9
20:47:38:459072,-1,-1,14,-4,2,1,12,-2
20:47:38:471801,-1,3,7,1,-4,-3,-9,-6
20:47:38:472612,-1,3,7,1,-4,-3,-9,-6
20:47:38:478582,4,13,5,5,3,2,7,3
20:47:38:486072,0,21,18,-11,0,1,-3,-4
20:47:38:493654,0,21,18,-11,0,1,-3,-4
20:47:38:501090,-8,-16,-17,-13,-6,-5,-1,-3
20:47:38:508629,0,-2,9,6,0,-1,1,-3
20:47:38:516813,0,-2,9,6,0,-1,1,-3
20:47:38:517627,-2,-4,-24,-6,-3,-1,-1,-3
20:47:38:531818,-2,-7,-25,-12,2,1,-1,1
20:47:38:532616,-2,-7,-25,-12,2,1,-1,1
20:47:38:538588,-4,-12,-60,17,-2,0,2,-5
20:47:38:546099,-4,-7,-8,-6,-5,-3,-11,-6
20:47:38:553704,-4,-7,-8,-6,-5,-3,-11,-6
20:47:38:561070,4,7,42,15,6,5,12,0
20:47:38:568601,1,0,14,3,0,1,-3,-23
20:47:38:576861,1,0,14,3,0,1,-3,-23
20:47:38:577622,-1,-4,-1,-4,4,0,-1,0
20:47:38:591820,0,4,45,4,-11,-5,-6,-1
20:47:38:592658,0,4,45,4,-11,-5,-6,-1
20:47:38:598623,-6,5,27,1,4,0,-5,7
20:47:38:606085,-1,-8,-13,-2,-2,-3,-9,5
20:47:38:621819,-1,-8,-13,-2,-2,-3,-9,5
20:47:38:622639,-2,-3,5,-10,-6,3,20,-1
20:47:38:628591,-3,-7,-4,2,-1,0,-6,26
20:47:38:636831,-3,-7,-4,2,-1,0,-6,26
20:47:38:637618,3,-1,2,-1,-2,-9,-10,-40
20:47:38:651824,4,-4,-7,1,1,5,8,-1
20:47:38:652631,4,-4,-7,1,1,5,8,-1
20:47:38:658591,2,3,11,2,3,0,14,9
20:47:38:666094,0,6,4,-6,1,-3,-8,-2
20:47:38:673689,0,6,4,-6,1,-3,-8,-2
20:47:38:681135,1,11,-17,-14,-5,-1,-8,-3
20:47:38:688640,4,-17,-11,0,-1,0,6,-4
20:47:38:704411,4,-17,-11,0,-1,0,6,-4
20:47:38:705123,-3,-8,22,5,-1,-3,-10,3
20:47:38:711756,-6,6,1,1,-1,-3,8,-15
20:47:38:712584,-6,6,1,1,-1,-3,8,-15
20:47:38:718624,12,7,2,-1,-4,-2,-13,-44
20:47:38:726121,-19,-7,-9,-2,-2,-3,-1,-31
20:47:38:733634,-19,-7,-9,-2,-2,-3,-1,-31
20:47:38:741121,3,3,19,3,-2,1,5,19
20:47:38:748610,-1,-7,-9,-6,-4,0,5,7
20:47:38:756826,-1,-7,-9,-6,-4,0,5,7
20:47:38:757598,1,-6,-7,-3,-1,1,1,22
20:47:38:780012,1,3,0,3,5,0,-4,17
20:47:38:780791,1,3,0,3,5,0,-4,17
20:47:38:781599,-4,-4,-5,-3,-5,-2,-2,2
20:47:38:786104,0,2,6,2,4,0,1,-1
20:47:38:793672,0,2,6,2,4,0,1,-1
20:47:38:801135,-6,-6,-6,2,-1,-3,-3,7
20:47:38:808601,1,-1,-3,2,1,-1,0,-4
20:47:38:816823,1,-1,-3,2,1,-1,0,-4
20:47:38:817580,-2,2,-2,-2,-2,-2,-4,7
20:47:38:831779,-2,-4,1,36,-3,-2,-2,-1
20:47:38:832582,-2,-4,1,36,-3,-2,-2,-1
20:47:38:838607,-3,-1,-5,-5,-1,-1,0,-1
20:47:38:854320,0,-4,-3,9,-2,-3,-2,3
20:47:38:855136,0,-4,-3,9,-2,-3,-2,3
20:47:38:861126,-2,-2,0,-4,0,1,0,-3
20:47:38:868612,1,0,2,-5,-1,-1,-4,2
20:47:38:876805,1,0,2,-5,-1,-1,-4,2
20:47:38:877572,-3,-3,-3,-7,0,-2,-3,3
20:47:38:891824,1,-2,-7,-15,-3,-2,7,-3
20:47:38:892626,1,-2,-7,-15,-3,-2,7,-3
20:47:38:898629,-2,-1,1,9,2,1,-5,-3
20:47:38:906110,-2,1,-4,-17,-4,-1,0,0
20:47:38:913627,-2,1,-4,-17,-4,-1,0,0
20:47:38:921130,2,-2,-2,3,-1,-2,2,1
20:47:38:928618,-9,-5,-5,-10,-7,0,-4,-2
20:47:38:936138,-9,-5,-5,-10,-7,0,-4,-2
20:47:38:943569,1,0,1,-5,2,1,1,0
20:47:38:951807,1,0,-2,-6,-4,-2,-2,-1
20:47:38:952604,1,0,-2,-6,-4,-2,-2,-1
20:47:38:958607,-1,-1,1,-5,-5,-2,0,0
20:47:38:982450,1,-3,-2,1,8,1,-1,1
20:47:38:983256,1,-3,-2,1,8,1,-1,1
20:47:38:984078,-1,0,-1,-1,-2,-1,12,0
20:47:38:988619,2,0,-3,-4,0,0,10,1
20:47:38:996104,2,0,-3,-4,0,0,10,1
20:47:39:12411,0,4,-4,-11,-5,-1,-3,-1
20:47:39:13223,2,-3,1,-4,-3,-3,-9,0
20:47:39:14054,2,-3,1,-4,-3,-3,-9,0
20:47:39:18603,-1,3,1,-2,-7,-2,4,-1
20:47:39:34359,-1,-1,0,6,12,1,0,0
20:47:39:35124,-1,-1,0,6,12,1,0,0
20:47:39:41108,-3,-3,1,1,-2,-1,-5,-1
20:47:39:48586,-2,0,0,6,-1,2,-5,-3
20:47:39:56124,-2,0,0,6,-1,2,-5,-3
20:47:39:63653,-4,-3,-5,5,1,5,48,1
20:47:39:71761,0,0,-2,-14,-14,-9,-6,-2
20:47:39:72576,0,0,-2,-14,-14,-9,-6,-2
20:47:39:78587,2,-4,0,2,14,0,-19,-1
20:47:39:94268,-6,0,1,1,-2,0,-1,-2
20:47:39:95246,-6,0,1,1,-2,0,-1,-2
20:47:39:101152,-8,-4,0,0,-6,-5,-15,-1
20:47:39:108618,3,1,-2,-5,-3,-2,-10,0
20:47:39:116150,3,1,-2,-5,-3,-2,-10,0
20:47:39:123562,0,4,0,4,3,1,5,0
20:47:39:131788,-4,-2,-3,-1,-2,1,6,-1
20:47:39:132605,-4,-2,-3,-1,-2,1,6,-1
20:47:39:138581,3,0,1,0,-4,-5,-34,-2
20:47:39:154302,-6,-2,-4,-1,0,14,27,-2
20:47:39:155114,-6,-2,-4,-1,0,14,27,-2
20:47:39:161072,3,-3,-1,0,3,1,-11,0
20:47:39:168558,4,1,2,1,-9,-5,5,2
20:47:39:176182,4,1,2,1,-9,-5,5,2
20:47:39:183582,-4,-4,-2,-2,5,-3,-2,-4
20:47:39:191779,2,3,-1,1,-1,-5,2,-4
20:47:39:192602,2,3,-1,1,-1,-5,2,-4
20:47:39:198582,3,-2,-2,1,-8,-2,6,0
20:47:39:214768,-1,-1,0,0,1,-5,-13,0
20:47:39:215580,-1,-1,0,0,1,-5,-13,0
20:47:39:221092,-2,0,1,-2,-3,-2,14,-3
20:47:39:228554,-3,0,-3,-4,-5,-4,13,0
20:47:39:236134,-3,0,-3,-4,-5,-4,13,0
20:47:39:243579,4,1,0,-2,8,2,-6,1
20:47:39:251817,-2,-2,1,4,4,0,-16,0
20:47:39:252655,-2,-2,1,4,4,0,-16,0
20:47:39:258585,-12,-5,0,0,-6,-1,-2,-2
20:47:39:274290,2,-1,-2,-2,4,0,-9,-2
20:47:39:275113,2,-1,-2,-2,4,0,-9,-2
20:47:39:281108,-13,0,-1,-1,-7,0,8,-2
20:47:39:288596,-8,-13,-2,-1,-4,-1,7,-5
20:47:39:296177,-8,-13,-2,-1,-4,-1,7,-5
20:47:39:303595,9,2,-1,6,5,-4,-11,-1
20:47:39:311796,8,5,1,7,1,1,-1,3
20:47:39:312586,8,5,1,7,1,1,-1,3
20:47:39:318615,5,0,2,-1,-6,0,-7,0
20:47:39:334323,-2,-2,-10,-12,-4,-4,-7,-1
20:47:39:335135,-2,-2,-10,-12,-4,-4,-7,-1
20:47:39:341117,-1,-3,0,26,4,0,-4,-1
20:47:39:348630,11,4,0,-7,-1,-4,-3,-1
20:47:39:356133,11,4,0,-7,-1,-4,-3,-1
20:47:39:363653,-9,2,-2,0,-6,-1,-1,-1
20:47:39:371780,2,-2,1,-5,1,1,5,0
20:47:39:372589,2,-2,1,-5,1,1,5,0
20:47:39:378573,1,-2,11,-5,1,-2,0,3
20:47:39:394286,-5,1,-4,4,5,1,-11,-1
20:47:39:395097,-5,1,-4,4,5,1,-11,-1
20:47:39:401122,1,0,-5,-24,-2,0,-9,-2
20:47:39:408644,-2,0,3,-4,1,-4,-3,1
20:47:39:416155,-2,0,3,-4,1,-4,-3,1
20:47:39:423578,21,0,-2,17,3,-2,-6,1
20:47:39:431800,-10,-4,-3,-1,0,-1,-5,-6
20:47:39:432611,-10,-4,-3,-1,0,-1,-5,-6
20:47:39:438608,-2,-3,-5,-19,-3,-3,1,-2
20:47:39:454327,-3,1,-9,-5,-3,-1,8,5
20:47:39:455128,-3,1,-9,-5,-3,-1,8,5
20:47:39:461065,-3,-3,-8,13,-1,3,12,-1
20:47:39:468569,-19,-7,2,1,1,4,12,-4
20:47:39:476137,-19,-7,2,1,1,4,12,-4
20:47:39:492449,1,-5,3,-10,-6,-3,-7,-2
20:47:39:493235,10,-8,-4,13,3,0,-10,0
20:47:39:494060,10,-8,-4,13,3,0,-10,0
20:47:39:498733,-2,1,8,-7,-2,-1,0,-2
20:47:39:514321,2,-1,3,-13,-9,-2,6,0
20:47:39:515092,2,-1,3,-13,-9,-2,6,0
20:47:39:521089,1,-1,1,1,5,-1,2,-1
20:47:39:528642,-4,2,9,8,5,-1,-11,-4
20:47:39:536178,-4,2,9,8,5,-1,-11,-4
20:47:39:543594,-4,-1,-5,5,-3,-1,-3,-2
20:47:39:551803,-12,6,8,0,-2,-3,-6,-6
20:47:39:552617,-12,6,8,0,-2,-3,-6,-6
20:47:39:558623,1,5,6,3,1,4,17,-1
20:47:39:574318,-10,-15,-22,-11,-7,-2,-7,-3
20:47:39:575150,-10,-15,-22,-11,-7,-2,-7,-3
20:47:39:581117,-2,2,18,7,2,0,-13,-1
20:47:39:588559,-11,-1,-9,-3,4,-1,6,2
20:47:39:596213,-11,-1,-9,-3,4,-1,6,2
20:47:39:603617,0,-2,-17,-8,-7,-3,3,-1
20:47:39:611792,12,-4,-2,-6,-7,-4,-8,-3
20:47:39:612618,12,-4,-2,-6,-7,-4,-8,-3
20:47:39:618592,-14,-5,0,-3,0,-1,-18,-4
20:47:39:634323,7,2,-1,3,-1,-3,2,-2
20:47:39:635123,7,2,-1,3,-1,-3,2,-2
20:47:39:641083,4,0,-2,6,-1,0,2,2
20:47:39:648581,5,-13,-10,8,-2,1,9,-2
20:47:39:656177,5,-13,-10,8,-2,1,9,-2
20:47:39:663582,8,-4,-6,-10,2,-3,-7,-4
20:47:39:671749,12,10,-12,4,-1,-1,-8,1
20:47:39:672583,12,10,-12,4,-1,-1,-8,1
20:47:39:678616,0,-6,-1,-2,-1,-1,6,0
20:47:39:694296,4,32,14,-6,-8,-4,-2,-1
20:47:39:695158,4,32,14,-6,-8,-4,-2,-1
20:47:39:701153,6,-21,19,-12,1,-2,-9,-1
20:47:39:708585,-10,10,-2,-7,-6,-4,-15,13
20:47:39:716179,-10,10,-2,-7,-6,-4,-15,13
20:47:39:723608,-6,6,-11,-1,-2,-4,4,-5
20:47:39:731775,-12,-26,-2,1,4,-1,3,-2
20:47:39:732588,-12,-26,-2,1,4,-1,3,-2
20:47:39:738597,-5,28,-1,3,1,2,0,2
20:47:39:754306,-2,-6,-4,0,0,1,-2,-12
20:47:39:755093,-2,-6,-4,0,0,1,-2,-12
20:47:39:761123,-6,7,-3,1,-3,0,-4,-4
20:47:39:768626,3,1,21,20,9,0,-12,3
20:47:39:776127,3,1,21,20,9,0,-12,3
20:47:39:783611,-5,-6,-2,-6,-6,-2,-6,-5
20:47:39:791776,-3,3,-10,-19,-9,-2,12,-10
20:47:39:792603,-3,3,-10,-19,-9,-2,12,-10
20:47:39:798572,-6,3,-4,-43,8,2,7,7
20:47:39:814320,-6,3,-4,-43,8,2,7,7
20:47:39:815090,5,10,2,1,2,-1,4,-3
20:47:39:821076,1,-6,-21,0,-3,1,-2,2
20:47:39:836830,1,-6,-21,0,-3,1,-2,2
20:47:39:837582,7,-16,-29,-19,-7,-1,-5,1
20:47:39:843624,-4,-9,-4,11,3,2,8,0
20:47:39:851798,-4,-9,-4,11,3,2,8,0
20:47:39:852580,-2,46,-11,10,-1,1,-6,1
20:47:39:866107,9,5,1,1,-1,-4,-15,9
20:47:39:874285,9,5,1,1,-1,-4,-15,9
20:47:39:875083,-13,-12,4,0,4,0,9,5
20:47:39:881139,-5,-7,-4,5,-4,1,1,-4
20:47:39:896795,-5,-7,-4,5,-4,1,1,-4
20:47:39:897565,14,-3,23,22,7,2,-3,3
20:47:39:903634,-15,-15,-5,2,-6,-1,17,0
20:47:39:911808,-15,-15,-5,2,-6,-1,17,0
20:47:39:912614,-1,-9,6,-4,-4,-2,4,-4
20:47:39:926112,-6,-24,12,8,2,-3,-3,3
20:47:39:934278,-6,-24,12,8,2,-3,-3,3
20:47:39:935083,-12,-1,3,11,7,3,6,0
20:47:39:941109,0,-9,-26,-13,-6,-4,-6,-4
20:47:39:956823,0,-9,-26,-13,-6,-4,-6,-4
20:47:39:957653,-2,-13,11,7,4,-1,-6,0
20:47:39:963592,7,-9,-3,2,2,-1,0,-8
20:47:39:971784,7,-9,-3,2,2,-1,0,-8
20:47:39:972593,-1,10,28,-9,-10,0,1,2
20:47:39:986141,-9,-8,3,4,5,0,9,-3
20:47:39:994343,-9,-8,3,4,5,0,9,-3
20:47:39:995155,9,-7,-19,-6,-2,-2,7,-3
20:47:40:1100,-15,7,-6,12,-6,1,-7,-4
20:47:40:16827,-15,7,-6,12,-6,1,-7,-4
20:47:40:17634,-6,6,-18,-9,2,1,9,6
20:47:40:23628,5,16,-11,2,-1,1,-16,-2
20:47:40:31863,5,16,-11,2,-1,1,-16,-2
20:47:40:32679,2,-11,4,-7,-2,-1,-4,-3
20:47:40:46165,10,6,5,-6,-2,1,7,-5
20:47:40:54364,10,6,5,-6,-2,1,7,-5
20:47:40:55116,-18,-15,-9,17,0,0,-8,-4
20:47:40:61105,7,8,13,-7,3,-2,-2,3
20:47:40:76844,7,8,13,-7,3,-2,-2,3
20:47:40:77610,0,4,7,16,-2,-4,1,-1
20:47:40:83598,-2,-8,-1,-14,-3,-2,0,-1
20:47:40:91819,-2,-8,-1,-14,-3,-2,0,-1
20:47:40:92617,0,5,18,-9,-3,-3,-9,-4
20:47:40:106101,3,31,24,10,1,-4,11,12
20:47:40:114339,3,31,24,10,1,-4,11,12
20:47:40:115107,1,-7,-6,-7,-7,-3,-9,2
20:47:40:121126,-5,-5,13,3,5,1,-1,1
20:47:40:136849,-5,-5,13,3,5,1,-1,1
20:47:40:137605,-2,9,-31,-16,-2,-1,-2,4
20:47:40:143567,-1,29,9,4,0,4,4,-10
20:47:40:151859,-1,29,9,4,0,4,4,-10
20:47:40:152609,8,-22,-27,-4,1,2,26,-10
20:47:40:166095,-9,-14,-25,1,-3,-4,-12,-5
20:47:40:174290,-9,-14,-25,1,-3,-4,-12,-5
20:47:40:175108,10,31,20,-6,-3,-1,-11,1
20:47:40:181081,17,-18,-14,2,-2,0,-5,4
20:47:40:196815,17,-18,-14,2,-2,0,-5,4
20:47:40:197581,-17,-33,9,-3,0,-1,-6,0
20:47:40:203563,2,-3,-18,-2,-9,-5,3,-7
20:47:40:211801,2,-3,-18,-2,-9,-5,3,-7
20:47:40:212616,-3,-2,7,-41,-7,3,-9,-9
20:47:40:226099,3,-7,7,10,4,1,6,2
20:47:40:234319,3,-7,7,10,4,1,6,2
20:47:40:235084,2,9,2,-11,-5,-3,3,0
20:47:40:241107,-1,3,10,5,-2,-3,-2,-2
20:47:40:256849,-1,3,10,5,-2,-3,-2,-2
20:47:40:257590,12,58,-42,10,8,1,1,9
20:47:40:263591,-18,-1,3,-9,-4,-2,21,-3
20:47:40:271839,-18,-1,3,-9,-4,-2,21,-3
20:47:40:272607,0,-21,10,7,-1,1,5,-4
20:47:40:286538,-4,36,3,-3,3,1,-8,5
20:47:40:294310,-4,36,3,-3,3,1,-8,5
20:47:40:295085,4,-2,-14,2,-3,-2,7,0
20:47:40:301090,-2,-9,22,-2,-3,2,-2,-4
20:47:40:316779,-2,-9,22,-2,-3,2,-2,-4
20:47:40:317598,4,3,-5,-5,1,-1,17,6
20:47:40:323571,10,-8,11,4,0,-1,-12,3
20:47:40:331795,10,-8,11,4,0,-1,-12,3
20:47:40:332595,-14,-17,-12,-23,-5,-5,-10,-8
20:47:40:346140,2,-2,-19,10,8,3,3,-1
20:47:40:354319,2,-2,-19,10,8,3,3,-1
20:47:40:355111,5,-39,2,-13,-4,-8,-11,-3
20:47:40:361058,3,-18,-20,-15,-9,-3,-8,-2
20:47:40:376782,3,-18,-20,-15,-9,-3,-8,-2
20:47:40:377590,-7,-16,-19,9,0,-3,-24,-11
20:47:40:383623,0,5,7,7,1,-6,-11,5
20:47:40:391799,0,5,7,7,1,-6,-11,5
20:47:40:392588,16,19,21,14,3,4,-4,-3
20:47:40:406127,-9,-4,-12,-9,-5,-2,-3,0
20:47:40:414304,-9,-4,-12,-9,-5,-2,-3,0
20:47:40:415089,0,3,18,8,7,-1,-2,-3
20:47:40:421133,8,-11,19,-5,-7,-5,-17,-6
20:47:40:436838,8,-11,19,-5,-7,-5,-17,-6
20:47:40:437647,-1,31,14,8,1,2,-1,-1
20:47:40:443613,-4,-6,-3,2,-7,-4,18,-6
20:47:40:451785,-4,-6,-3,2,-7,-4,18,-6
20:47:40:452579,-4,5,23,17,6,1,-3,2
20:47:40:466125,3,-5,-22,-21,-3,1,-1,-1
20:47:40:474297,3,-5,-22,-21,-3,1,-1,-1
20:47:40:475080,-7,-7,3,-4,-3,4,17,1
20:47:40:481144,4,46,32,15,3,1,3,7
20:47:40:496873,4,46,32,15,3,1,3,7
20:47:40:497626,-10,-25,4,-14,-6,-2,0,3
20:47:40:503618,-9,-5,2,-17,4,2,-3,-7
20:47:40:511767,-9,-5,2,-17,4,2,-3,-7
20:47:40:512563,-3,7,16,7,-2,-3,-1,-2
20:47:40:526131,-9,-19,-24,-10,-4,-1,-4,6
20:47:40:534354,-9,-19,-24,-10,-4,-1,-4,6
20:47:40:535120,7,-7,2,13,4,-1,10,14
20:47:40:541114,1,-4,-16,9,5,2,0,-5
20:47:40:556865,1,-4,-16,9,5,2,0,-5
20:47:40:557624,-10,-2,3,-9,-5,1,-3,12
20:47:40:563594,-10,-14,1,-1,1,-3,4,9
20:47:40:571828,-10,-14,1,-1,1,-3,4,9
20:47:40:572644,10,18,12,3,0,-5,-1,-2
20:47:40:586126,3,-4,5,-2,-2,-1,-15,-7
20:47:40:602609,3,-4,5,-2,-2,-1,-15,-7
20:47:40:603304,6,-1,-5,-1,4,-2,-6,1
20:47:40:604068,0,12,3,-15,-10,-5,-3,1
20:47:40:616846,0,12,3,-15,-10,-5,-3,1
20:47:40:617588,-19,-15,-35,-6,-1,-2,-4,-7
20:47:40:623590,3,34,-7,16,1,2,0,-3
20:47:40:631828,3,34,-7,16,1,2,0,-3
20:47:40:632621,12,45,-10,6,-2,-1,3,-1
20:47:40:646159,-4,-21,2,8,2,3,-11,-2
20:47:40:654300,-4,-21,2,8,2,3,-11,-2
20:47:40:655088,0,-10,-18,0,1,-1,-7,-3
20:47:40:661092,1,6,-4,-2,4,1,-2,-6
20:47:40:676794,1,6,-4,-2,4,1,-2,-6
20:47:40:677626,4,-26,-31,-5,-1,0,-2,0
20:47:40:683623,-21,-51,4,8,-2,-3,-14,-9
20:47:40:691837,-21,-51,4,8,-2,-3,-14,-9
20:47:40:692582,-9,-5,2,-1,-5,-3,-7,-4
20:47:40:706113,-4,-7,-14,-10,-2,-3,7,8
20:47:40:714479,-4,-7,-14,-10,-2,-3,7,8
20:47:40:715112,-10,-12,8,-1,0,-1,4,3
20:47:40:721057,-1,1,9,17,5,0,2,-5
20:47:40:736786,-1,1,9,17,5,0,2,-5
20:47:40:737566,8,7,9,-1,1,0,-18,-8
20:47:40:743608,5,-1,-2,-3,-5,0,2,-2
20:47:40:751785,5,-1,-2,-3,-5,0,2,-2
20:47:40:752643,0,-17,15,6,-5,-2,2,2
20:47:40:766092,0,6,-48,-19,-3,-3,1,-6
20:47:40:774284,0,6,-48,-19,-3,-3,1,-6
20:47:40:775087,-1,5,6,-5,-2,-3,-12,-9
20:47:40:781123,-9,1,10,6,3,-4,5,10
20:47:40:796793,-9,1,10,6,3,-4,5,10
20:47:40:797557,-3,-7,2,0,-4,-3,-6,-4
20:47:40:803595,9,-11,19,-1,1,-5,-1,15
20:47:40:811123,9,-11,19,-1,1,-5,-1,15
20:47:40:818640,-18,0,15,4,1,-1,3,0
20:47:40:826136,-6,2,5,-6,-7,1,11,-9
20:47:40:834320,-6,2,5,-6,-7,1,11,-9
20:47:40:835114,2,-3,-41,-9,1,1,-3,-6
20:47:40:848623,11,44,12,-2,2,11,30,3
20:47:40:856787,11,44,12,-2,2,11,30,3
20:47:40:857606,-3,0,-10,2,-3,-7,-20,-6
20:47:40:863565,2,-51,-11,-4,1,-5,-9,-5
20:47:40:879307,2,-51,-11,-4,1,-5,-9,-5
20:47:40:880064,-2,10,4,-4,-2,0,8,-7
20:47:40:886128,3,-10,-13,-2,-1,-1,-21,-8
20:47:40:894288,3,-10,-13,-2,-1,-1,-21,-8
20:47:40:895240,8,3,12,15,0,-2,-10,7
20:47:40:908642,-2,52,-28,-3,-3,4,1,-2
20:47:40:916810,-2,52,-28,-3,-3,4,1,-2
20:47:40:917564,9,8,20,6,4,9,21,2
20:47:40:923639,-7,-5,3,-7,-7,-6,-18,0
20:47:40:931136,-7,-5,3,-7,-7,-6,-18,0
20:47:40:938571,13,1,-9,2,3,-11,-83,7
20:47:40:946080,1,-6,11,1,1,-4,2,15
20:47:40:954301,1,-6,11,1,1,-4,2,15
20:47:40:955086,-16,25,24,-11,-8,7,30,-10
20:47:40:968600,5,-12,16,3,-1,2,4,-11
20:47:40:976816,5,-12,16,3,-1,2,4,-11
20:47:40:977598,-2,21,18,-10,-3,-5,11,6
20:47:40:983579,-3,-12,-54,-5,-3,-3,22,-9
20:47:40:991161,-3,-12,-54,-5,-3,-3,22,-9
20:47:40:998583,-9,-25,-17,-9,1,-2,9,-1
20:47:41:6100,-2,7,31,4,1,1,-3,6
20:47:41:14308,-2,7,31,4,1,1,-3,6
20:47:41:15124,2,-10,-16,-3,-3,-5,-9,-3
20:47:41:28580,-7,-17,14,1,-1,4,-19,-4
20:47:41:36842,-7,-17,14,1,-1,4,-19,-4
20:47:41:37595,-2,-10,1,-10,-1,-1,22,0
20:47:41:43577,-2,1,6,2,-2,-5,-15,-24
20:47:41:51224,-2,1,6,2,-2,-5,-15,-24
20:47:41:58614,-2,10,1,15,0,1,-5,-28
20:47:41:66127,2,-15,-32,-29,-5,-1,-14,-5
20:47:41:74334,2,-15,-32,-29,-5,-1,-14,-5
20:47:41:75118,1,-25,-17,-4,0,-1,7,3
20:47:41:88611,-12,46,29,17,0,0,7,24
20:47:41:96866,-12,46,29,17,0,0,7,24
20:47:41:97620,10,-8,-24,-22,0,6,13,14
20:47:41:103612,1,1,6,-4,2,-7,-2,-2
20:47:41:111179,1,1,6,-4,2,-7,-2,-2
20:47:41:118607,5,22,-10,16,1,3,19,-1
20:47:41:126139,10,-20,-6,1,0,-7,-9,-1
20:47:41:134348,10,-20,-6,1,0,-7,-9,-1
20:47:41:135078,-10,-7,33,1,-2,1,-9,-3
20:47:41:157507,-7,29,-15,4,0,2,8,-1
20:47:41:158271,-7,29,-15,4,0,2,8,-1
20:47:41:159066,-3,-30,-43,-14,-2,-2,-6,6
20:47:41:163590,-4,-10,1,12,3,-3,-6,6
20:47:41:171166,-4,-10,1,12,3,-3,-6,6
20:47:41:178624,-10,-9,20,4,-6,-3,7,1
20:47:41:186125,1,-41,-28,-13,-2,0,7,0
20:47:41:194355,1,-41,-28,-13,-2,0,7,0
20:47:41:195118,-2,36,-19,-4,1,-2,6,7
20:47:41:208629,5,2,17,2,0,4,1,-2
20:47:41:216872,5,2,17,2,0,4,1,-2
20:47:41:217640,4,-4,3,-4,-3,-4,1,-1
20:47:41:223608,-9,-30,0,2,1,-5,0,-17
20:47:41:231115,-9,-30,0,2,1,-5,0,-17
20:47:41:238597,1,2,30,5,5,2,7,3
20:47:41:246119,3,6,16,-3,-5,-3,9,1
20:47:41:254295,3,6,16,-3,-5,-3,9,1
20:47:41:255086,7,43,23,11,6,1,0,-10
20:47:41:268645,-2,5,4,6,-4,-1,-10,-2
20:47:41:276781,-2,5,4,6,-4,-1,-10,-2
20:47:41:277574,-4,-23,9,2,-8,-3,1,5
20:47:41:283605,-14,14,6,8,10,0,7,-2
20:47:41:291128,-14,14,6,8,10,0,7,-2
20:47:41:298561,-3,-28,-31,-4,-7,-5,-24,-2
20:47:41:306120,-2,-7,-1,1,-3,-2,-1,1
20:47:41:314325,-2,-7,-1,1,-3,-2,-1,1
20:47:41:315099,4,3,2,-1,0,-1,18,-1
20:47:41:328606,6,10,-11,-5,-5,0,14,12
20:47:41:336795,6,10,-11,-5,-5,0,14,12
20:47:41:337600,-8,6,13,2,-1,1,1,-5
20:47:41:343557,-5,-77,-41,-14,0,0,-3,-7
20:47:41:359326,-5,-77,-41,-14,0,0,-3,-7
20:47:41:360071,0,-16,-2,2,-3,-3,0,1
20:47:41:366137,-1,-29,-4,-5,-5,-4,-10,-3
20:47:41:374299,-1,-29,-4,-5,-5,-4,-10,-3
20:47:41:375084,-5,2,-29,-9,5,4,9,4
20:47:41:388615,14,30,18,2,-2,3,0,-6
20:47:41:396795,14,30,18,2,-2,3,0,-6
20:47:41:397568,-5,-39,23,3,-10,-2,5,-3
20:47:41:403596,-10,13,7,8,5,3,1,-1
20:47:41:411146,-10,13,7,8,5,3,1,-1
20:47:41:418580,-6,-5,-16,-9,-2,-1,-3,6
20:47:41:426084,13,64,14,-4,-1,5,16,11
20:47:41:434322,13,64,14,-4,-1,5,16,11
20:47:41:435097,0,9,-2,5,0,0,35,-8
20:47:41:448627,-3,9,12,0,-3,-3,-8,-8
20:47:41:456846,-3,9,12,0,-3,-3,-8,-8
20:47:41:457600,10,17,0,-8,-2,-3,-15,0
20:47:41:463579,1,-16,-34,-2,-2,-3,-2,0
20:47:41:471219,1,-16,-34,-2,-2,-3,-2,0
20:47:41:478587,-3,-3,-19,-9,-7,-4,-22,-7
20:47:41:486098,-1,-3,19,4,2,0,-9,-2
20:47:41:494310,-1,-3,19,4,2,0,-9,-2
20:47:41:495116,-6,-33,-49,2,2,-2,1,-3
20:47:41:508548,5,10,20,-5,-8,-1,1,3
20:47:41:516831,5,10,20,-5,-8,-1,1,3
20:47:41:517600,6,-6,11,9,1,1,-20,1
20:47:41:523604,-5,7,-9,-2,2,0,5,0
20:47:41:531166,-5,7,-9,-2,2,0,5,0
20:47:41:538608,-7,-1,12,4,-1,-3,-10,-2
20:47:41:546078,-8,-10,5,-5,-1,-2,-4,-7
20:47:41:554368,-8,-10,5,-5,-1,-2,-4,-7
20:47:41:555127,-1,24,-28,-9,0,1,5,1
20:47:41:568600,9,3,-36,-7,-1,0,2,0
20:47:41:576810,9,3,-36,-7,-1,0,2,0
20:47:41:577635,0,-16,23,15,1,1,1,-3
20:47:41:583568,-5,-16,-10,-17,-5,-5,-10,-1
20:47:41:591208,-5,-16,-10,-17,-5,-5,-10,-1
20:47:41:598623,-1,-6,15,0,7,3,0,2
20:47:41:606132,-3,16,22,9,-4,2,6,2
20:47:41:614302,-3,16,22,9,-4,2,6,2
20:47:41:615067,-27,-10,-9,-7,1,-6,4,-13
20:47:41:628624,-9,-3,-12,0,-4,-5,-10,-3
20:47:41:636797,-9,-3,-12,0,-4,-5,-10,-3
20:47:41:637573,16,20,21,10,0,-1,-13,6
20:47:41:643605,-1,-20,9,1,-2,0,4,-4
20:47:41:651160,-1,-20,9,1,-2,0,4,-4
20:47:41:658563,1,13,27,0,-2,-1,-1,1
20:47:41:666113,12,-8,-16,-2,2,-1,-2,6
20:47:41:674281,12,-8,-16,-2,2,-1,-2,6
20:47:41:675095,0,-7,1,-1,-6,-3,-9,-3
20:47:41:688667,6,-4,11,15,5,0,3,-5
20:47:41:696789,6,-4,11,15,5,0,3,-5
20:47:41:697824,7,-6,-28,-1,-1,0,5,2
20:47:41:703579,-5,-16,-7,-2,2,-1,-4,-1
20:47:41:711122,-5,-16,-7,-2,2,-1,-4,-1
20:47:41:718591,-3,-1,6,11,3,1,0,-3
20:47:41:726062,-2,-68,14,0,-7,-5,-6,-15
20:47:41:734329,-2,-68,14,0,-7,-5,-6,-15
20:47:41:735101,3,-2,11,-8,-4,3,7,0
20:47:41:748566,0,7,-15,-5,0,1,-8,4
20:47:41:756815,0,7,-15,-5,0,1,-8,4
20:47:41:757610,-9,9,10,5,5,1,-6,4
20:47:41:771769,-1,50,-12,1,0,1,13,-2
20:47:41:772631,-1,50,-12,1,0,1,13,-2
20:47:41:778559,-3,-40,-6,-2,2,-3,-5,2
20:47:41:786066,5,19,16,1,1,-2,-7,5
20:47:41:793637,5,19,16,1,1,-2,-7,5
20:47:41:801108,-9,-19,-10,-30,-10,-3,-2,-7
20:47:41:808581,-10,-8,-12,-4,-6,-3,-9,0
20:47:41:816832,-10,-8,-12,-4,-6,-3,-9,0
20:47:41:817597,9,-11,-15,-6,0,0,20,13
20:47:41:831793,0,8,11,16,8,2,1,0
20:47:41:832596,0,8,11,16,8,2,1,0
20:47:41:838580,6,44,-7,-1,-5,4,4,1
20:47:41:846096,0,-9,-9,-11,-7,-3,-7,-4
20:47:41:853675,0,-9,-9,-11,-7,-3,-7,-4
20:47:41:861131,4,45,-1,-4,-2,-5,-16,-8
20:47:41:868581,4,16,4,-21,0,4,4,0
20:47:41:876847,4,16,4,-21,0,4,4,0
20:47:41:877634,-3,-16,-28,7,4,-3,-5,-9
20:47:41:891823,-5,-1,-2,-6,-8,-5,-8,-1
20:47:41:892637,-5,-1,-2,-6,-8,-5,-8,-1
20:47:41:898588,10,36,5,-17,-5,1,-5,-1
20:47:41:906100,-13,-11,-13,-5,-2,-2,-2,-4
20:47:41:913657,-13,-11,-13,-5,-2,-2,-2,-4
20:47:41:921136,5,-8,-14,-1,-6,-1,21,4
20:47:41:928581,-5,29,21,2,5,3,-2,6
20:47:41:936802,-5,29,21,2,5,3,-2,6
20:47:41:937602,7,-26,-7,-2,1,-7,-7,-11
20:47:41:951821,7,-9,6,-7,0,-1,5,-2
20:47:41:952626,7,-9,6,-7,0,-1,5,-2
20:47:41:958605,-8,-1,5,-2,-3,1,4,-1
20:47:41:966140,-10,-4,-7,15,-2,0,1,0
20:47:41:973606,-10,-4,-7,15,-2,0,1,0
20:47:41:981120,3,-4,12,4,-2,0,-6,1
20:47:41:988632,18,10,-1,-8,1,1,8,3
20:47:41:996795,18,10,-1,-8,1,1,8,3
20:47:41:997600,-1,12,10,-23,-3,0,-15,-3
20:47:42:11781,-6,13,2,19,3,-1,7,6
20:47:42:12578,-6,13,2,19,3,-1,7,6
20:47:42:18636,0,-17,-16,-8,-3,1,10,6
20:47:42:26127,1,11,0,-8,-8,-3,-7,-5
20:47:42:33694,1,11,0,-8,-8,-3,-7,-5
20:47:42:41085,0,8,-2,8,1,-6,3,15
20:47:42:48573,0,-30,-35,-1,-5,-2,7,-5
20:47:42:56846,0,-30,-35,-1,-5,-2,7,-5
20:47:42:57604,0,-9,8,8,1,1,3,-6
20:47:42:71797,-3,-2,15,0,3,-4,-2,-2
20:47:42:72605,-3,-2,15,0,3,-4,-2,-2
20:47:42:78599,-5,-3,-21,-10,-2,-1,-2,2
20:47:42:86116,-2,-6,-19,-31,-6,0,-8,-4
20:47:42:93655,-2,-6,-19,-31,-6,0,-8,-4
20:47:42:101110,-3,19,24,17,4,-1,-17,5
20:47:42:108599,4,-13,0,10,2,-1,-3,0
20:47:42:116832,4,-13,0,10,2,-1,-3,0
20:47:42:117597,-3,-10,3,-8,-4,-3,-4,-6
20:47:42:131788,19,-1,7,3,8,1,-1,1
20:47:42:132619,19,-1,7,3,8,1,-1,1
20:47:42:138595,-14,-10,1,2,0,-3,-18,-6
20:47:42:146081,0,-2,21,12,-3,-2,-18,-4
20:47:42:153690,0,-2,21,12,-3,-2,-18,-4
20:47:42:161098,-5,3,6,1,-1,-2,-8,-2
20:47:42:168607,-5,-21,25,2,1,1,5,-2
20:47:42:176812,-5,-21,25,2,1,1,5,-2
20:47:42:177660,7,1,10,3,0,2,-7,-5
20:47:42:191479,-13,32,14,-2,-3,0,17,3
20:47:42:199370,-13,32,14,-2,-3,0,17,3
20:47:42:200159,0,-6,2,8,6,2,-7,-2
20:47:42:206148,2,0,-17,-9,-1,2,3,6
20:47:42:213725,2,0,-17,-9,-1,2,3,6
20:47:42:221124,0,-5,5,-14,-8,-3,-6,-3
20:47:42:228635,-7,-3,5,-1,-11,-5,-8,-3
20:47:42:236815,-7,-3,5,-1,-11,-5,-8,-3
20:47:42:237594,0,-19,-21,-37,9,6,12,0
20:47:42:251775,-1,9,3,3,-2,-3,-7,-5
20:47:42:252594,-1,9,3,3,-2,-3,-7,-5
20:47:42:258630,-11,7,10,19,-2,-13,-34,-3
20:47:42:266102,0,-38,-16,-4,-1,-4,-2,1
20:47:42:273615,0,-38,-16,-4,-1,-4,-2,1
20:47:42:281116,8,0,-5,4,-4,-1,-11,7
20:47:42:288611,10,-34,-6,4,3,2,-7,-6
20:47:42:296803,10,-34,-6,4,3,2,-7,-6
20:47:42:297601,-11,19,-15,-4,0,0,14,-6
20:47:42:311767,-7,29,6,0,5,6,14,3
20:47:42:312576,-7,29,6,0,5,6,14,3
20:47:42:318563,2,10,12,9,-8,1,11,-2
20:47:42:326113,0,17,14,6,3,-2,-2,-6
20:47:42:333632,0,17,14,6,3,-2,-2,-6
20:47:42:341073,-7,-2,-16,8,3,0,-3,2
20:47:42:348580,-14,-4,-6,-3,-2,-2,7,-8
20:47:42:356836,-14,-4,-6,-3,-2,-2,7,-8
20:47:42:357600,-6,-70,7,6,-4,-5,-12,-7
20:47:42:371809,-4,-4,-13,-1,-2,-2,-13,-1
20:47:42:372607,-4,-4,-13,-1,-2,-2,-13,-1
20:47:42:378570,3,-52,-13,3,-4,-1,9,4
20:47:42:386084,-10,-24,-15,-11,-5,-2,-3,-3
20:47:42:401801,-10,-24,-15,-11,-5,-2,-3,-3
20:47:42:402597,-2,3,-41,-14,2,-2,6,-4
20:47:42:408580,-2,-4,8,0,-6,-2,4,2
20:47:42:416806,-2,-4,8,0,-6,-2,4,2
20:47:42:417600,9,22,13,2,1,-1,5,13
20:47:42:431773,4,47,15,5,6,9,-6,-7
20:47:42:432605,4,47,15,5,6,9,-6,-7
20:47:42:438571,-5,26,17,12,5,7,14,-15
20:47:42:446066,8,-36,-8,-5,-8,-15,2,26
20:47:42:453671,8,-36,-8,-5,-8,-15,2,26
20:47:42:461117,13,45,2,-1,-1,1,-28,13
20:47:42:468603,2,2,7,2,4,-2,-17,-5
20:47:42:476836,2,2,7,2,4,-2,-17,-5
20:47:42:477607,-37,-19,-28,-7,3,7,27,4
20:47:42:491821,-20,1,-9,4,0,-2,-4,3
20:47:42:492609,-20,1,-9,4,0,-2,-4,3
20:47:42:498601,12,-5,13,2,-4,-3,-17,-14
20:47:42:506120,-6,-9,-11,-1,-2,4,10,-8
20:47:42:513672,-6,-9,-11,-1,-2,4,10,-8
20:47:42:521086,-3,-10,-1,-4,0,10,39,1
20:47:42:528605,-5,11,13,-2,-1,1,51,-4
20:47:42:536867,-5,11,13,-2,-1,1,51,-4
20:47:42:537642,6,1,10,-8,-7,-4,8,14
20:47:42:551785,-2,5,-13,-1,-1,5,-9,-7
20:47:42:552624,-2,5,-13,-1,-1,5,-9,-7
20:47:42:558578,-4,21,13,-2,-10,-7,2,1
20:47:42:574304,4,3,5,-2,-1,1,-10,-8
20:47:42:575108,4,3,5,-2,-1,1,-10,-8
20:47:42:581083,-1,-9,12,0,7,-4,-4,-12
20:47:42:588618,5,-6,-7,1,-5,-9,-22,10
20:47:42:596823,5,-6,-7,1,-5,-9,-22,10
20:47:42:597597,-7,66,18,-3,0,3,16,-4
20:47:42:611791,6,-4,-2,-4,-2,-5,16,0
20:47:42:612604,6,-4,-2,-4,-2,-5,16,0
20:47:42:618614,16,-20,-15,7,6,-4,-2,-13
20:47:42:626086,-23,6,3,-8,-7,-10,-26,8
20:47:42:633752,-23,6,3,-8,-7,-10,-26,8
20:47:42:641110,-5,-4,7,4,-2,0,-22,-11
20:47:42:648606,3,3,-4,-1,-4,-1,1,-6
20:47:42:656792,3,3,-4,-1,-4,-1,1,-6
20:47:42:657590,-9,-15,-35,-7,8,0,-2,1
20:47:42:671793,-3,-14,-12,-5,2,4,-24,-7
20:47:42:672635,-3,-14,-12,-5,2,4,-24,-7
20:47:42:678584,5,-17,-1,-5,-10,-7,-19,-4
20:47:42:686145,6,7,2,3,6,4,29,10
20:47:42:693613,6,7,2,3,6,4,29,10
20:47:42:701137,9,48,33,16,1,5,13,8
20:47:42:708643,-2,2,3,-3,-3,-3,-27,0
20:47:42:716132,-2,2,3,-3,-3,-3,-27,0
20:47:42:723581,-2,-17,8,-1,-7,-5,-8,-7
20:47:42:731803,-7,-20,19,24,14,4,9,-8
20:47:42:732608,-7,-20,19,24,14,4,9,-8
20:47:42:738563,-4,-70,-91,-39,-13,-10,-28,-6
20:47:42:754295,3,-11,-14,-8,-3,5,-4,-6
20:47:42:755077,3,-11,-14,-8,-3,5,-4,-6
20:47:42:761069,7,-16,17,12,4,1,13,-2
20:47:42:768557,-3,22,-6,6,-4,-4,-3,-2
20:47:42:776136,-3,22,-6,6,-4,-4,-3,-2
20:47:42:783567,4,59,9,-5,1,-4,-16,-2
20:47:42:791825,7,1,12,7,0,2,10,3
20:47:42:792607,7,1,12,7,0,2,10,3
20:47:42:798580,-6,-5,2,-1,2,0,-5,1
20:47:42:814293,-4,-10,-10,-12,-4,2,1,-3
20:47:42:815120,-4,-10,-10,-12,-4,2,1,-3
20:47:42:821057,6,-16,10,5,1,2,14,7
20:47:42:828563,3,-9,-33,-16,1,-2,-2,-3
20:47:42:836166,3,-9,-33,-16,1,-2,-2,-3
20:47:42:843623,-33,31,14,8,-1,1,14,-3
20:47:42:851792,7,7,11,2,-2,-1,-4,-5
20:47:42:852680,7,7,11,2,-2,-1,-4,-5
20:47:42:858586,0,-4,6,-39,-8,-1,-7,0
20:47:42:874300,-4,10,-1,4,-2,-2,-1,-3
20:47:42:875120,-4,10,-1,4,-2,-2,-1,-3
20:47:42:881090,-2,-15,-2,7,-5,4,43,-2
20:47:42:888615,1,-8,-12,-2,0,-5,-6,17
20:47:42:896174,1,-8,-12,-2,0,-5,-6,17
20:47:42:903592,9,-7,-12,2,-1,-8,-12,-3
20:47:42:911792,2,3,-4,-5,-3,-4,1,-8
20:47:42:912586,2,3,-4,-5,-3,-4,1,-8
20:47:42:918609,9,15,12,11,-1,1,4,-4
20:47:42:934369,-7,6,-20,-8,-2,-5,2,3
20:47:42:935134,-7,6,-20,-8,-2,-5,2,3
20:47:42:941114,8,-18,1,10,3,1,-21,-3
20:47:42:948606,-5,-24,10,-4,-3,-1,-5,-9
20:47:42:964328,-5,-24,10,-4,-3,-1,-5,-9
20:47:42:965107,-8,-3,-8,-10,-1,3,0,-2
20:47:42:971797,2,9,27,5,3,2,-5,8
20:47:42:972639,2,9,27,5,3,2,-5,8
20:47:42:978601,-6,-8,-34,-2,3,-10,-15,-2
20:47:42:994296,3,-6,-1,-4,-5,-5,-12,-11
20:47:42:995117,3,-6,-1,-4,-5,-5,-12,-11
20:47:43:1116,-3,-34,2,6,-3,-1,-8,4
20:47:43:8607,-1,16,0,6,-1,1,11,2
20:47:43:16180,-1,16,0,6,-1,1,11,2
20:47:43:23603,-4,-44,-30,-12,-4,-3,-6,-3
20:47:43:31766,1,46,11,4,-2,0,-4,-3
20:47:43:32583,1,46,11,4,-2,0,-4,-3
20:47:43:38627,10,49,11,-17,2,1,8,8
20:47:43:54251,-6,-16,-8,-14,-8,-4,5,-1
20:47:43:55065,-6,-16,-8,-14,-8,-4,5,-1
20:47:43:61099,-4,17,-3,4,7,5,9,6
20:47:43:68588,1,-3,11,-10,-1,-8,-26,-4
20:47:43:76124,1,-3,11,-10,-1,-8,-26,-4
20:47:43:83623,-4,7,15,9,-2,-2,-30,-10
20:47:43:91781,3,-19,-11,1,1,-1,4,-7
20:47:43:92595,3,-19,-11,1,1,-1,4,-7
20:47:43:98568,0,-18,-6,2,-1,1,0,-2
20:47:43:114296,19,46,12,-3,-1,-1,-6,-2
20:47:43:115112,19,46,12,-3,-1,-1,-6,-2
20:47:43:121189,0,-22,6,4,1,0,4,-1
20:47:43:128626,0,-17,-23,-1,0,0,7,-1
20:47:43:144337,0,-17,-23,-1,0,0,7,-1
20:47:43:145135,-10,7,9,0,5,3,6,4
20:47:43:151782,-4,-17,-49,-7,-3,-2,18,7
20:47:43:152585,-4,-17,-49,-7,-3,-2,18,7
20:47:43:158621,0,14,7,17,-2,-1,4,-2
20:47:43:174267,-4,15,13,4,8,2,-14,3
20:47:43:175059,-4,15,13,4,8,2,-14,3
20:47:43:181098,3,-2,29,1,-5,-1,13,-4
20:47:43:188602,3,-31,-14,-1,-4,1,4,0
20:47:43:196126,3,-31,-14,-1,-4,1,4,0
20:47:43:203636,-4,-11,10,-1,-1,-4,-24,-4
20:47:43:211787,-15,-30,25,9,-2,-2,-1,-4
20:47:43:212583,-15,-30,25,9,-2,-2,-1,-4
20:47:43:218562,1,-6,-3,-15,-5,4,20,0
20:47:43:234296,6,-20,14,22,4,-3,-18,-17
20:47:43:235082,6,-20,14,22,4,-3,-18,-17
20:47:43:241055,-8,11,3,9,0,-1,2,0
20:47:43:248611,1,14,10,-3,-3,-3,8,2
20:47:43:256128,1,14,10,-3,-3,-3,8,2
20:47:43:263592,-2,14,-33,-10,-5,0,6,4
20:47:43:271820,-3,0,-6,-4,-1,-1,1,2
20:47:43:272617,-3,0,-6,-4,-1,-1,1,2
20:47:43:278572,2,-43,-11,-6,-4,-3,-2,-1
20:47:43:294265,-11,-9,29,0,-4,-4,-1,0
20:47:43:295089,-11,-9,29,0,-4,-4,-1,0
20:47:43:301081,2,-11,-7,8,4,-1,8,-3
20:47:43:308593,10,41,6,4,3,2,-2,7
20:47:43:316195,10,41,6,4,3,2,-2,7
20:47:43:323571,3,22,5,-27,-11,-2,-6,-1
20:47:43:331797,-5,-8,-7,-10,2,5,22,-2
20:47:43:332661,-5,-8,-7,-10,2,5,22,-2
20:47:43:338609,-4,-31,-10,0,-4,-6,-5,0
20:47:43:354322,-15,-49,-24,8,0,-4,-8,-6
20:47:43:355106,-15,-49,-24,8,0,-4,-8,-6
20:47:43:361101,3,8,12,14,-1,-1,0,0
20:47:43:368579,2,-7,-10,-19,-2,0,-1,-4
20:47:43:376162,2,-7,-10,-19,-2,0,-1,-4
20:47:43:383609,16,41,0,5,-1,-1,-2,4
20:47:43:391759,6,71,-4,4,-2,0,-1,0
20:47:43:392555,6,71,-4,4,-2,0,-1,0
20:47:43:398592,4,5,16,2,1,-3,-2,-6
20:47:43:414290,-11,-21,6,-4,3,2,6,8
20:47:43:415116,-11,-21,6,-4,3,2,6,8
20:47:43:421089,2,44,-7,-10,-2,-5,-16,-9
20:47:43:428671,18,61,-12,22,-1,4,-4,3
20:47:43:436094,18,61,-12,22,-1,4,-4,3
20:47:43:443596,-39,-27,6,5,-2,-3,-1,1
20:47:43:451773,1,-21,-14,-5,-8,-5,0,-8
20:47:43:452593,1,-21,-14,-5,-8,-5,0,-8
20:47:43:458649,2,-18,-32,-2,3,-2,-9,-3
20:47:43:474292,-3,-7,11,-3,-4,0,-9,9
20:47:43:475094,-3,-7,11,-3,-4,0,-9,9
20:47:43:481154,-4,-2,6,-1,6,1,-3,2
20:47:43:488616,-13,-30,-3,-7,-6,-1,13,-5
20:47:43:496124,-13,-30,-3,-7,-6,-1,13,-5
20:47:43:503569,-1,6,-3,6,4,0,3,3
20:47:43:511770,-5,-39,7,-21,5,-1,-6,2
20:47:43:512588,-5,-39,7,-21,5,-1,-6,2
20:47:43:518588,3,-5,-35,-13,-11,-4,-7,0
20:47:43:534715,-2,-21,-14,-1,-4,3,21,3
20:47:43:541794,-2,-21,-14,-1,-4,3,21,3
20:47:43:542589,2,2,30,16,5,3,-1,-3
20:47:43:548560,8,17,-2,-4,5,3,-19,-1
20:47:43:556139,8,17,-2,-4,5,3,-19,-1
20:47:43:563574,7,5,-27,-2,-1,2,4,0
20:47:43:571790,-11,-11,6,11,3,2,-7,-8
20:47:43:572607,-11,-11,6,11,3,2,-7,-8
20:47:43:578569,2,-19,7,-10,-11,-5,-3,-3
20:47:43:594282,-11,7,11,9,1,-2,4,-4
20:47:43:595094,-11,7,11,9,1,-2,4,-4
20:47:43:601102,-12,14,9,9,1,0,0,0
20:47:43:608589,-2,-44,-14,-11,-7,-6,-3,2
20:47:43:616164,-2,-44,-14,-11,-7,-6,-3,2
20:47:43:623566,3,-3,9,-4,3,-4,-13,1
20:47:43:631824,9,15,13,-2,2,-7,3,-10
20:47:43:632610,9,15,13,-2,2,-7,3,-10
20:47:43:638595,-1,-1,15,14,0,-5,-27,-2
20:47:43:654313,-6,-22,2,0,-4,3,6,3
20:47:43:655116,-6,-22,2,0,-4,3,6,3
20:47:43:661112,-5,-12,0,-4,2,-1,8,-6
20:47:43:676832,9,30,-10,-4,-3,-1,-6,3
20:47:43:677608,9,30,-10,-4,-3,-1,-6,3
20:47:43:683574,-4,26,3,5,-2,0,-11,0
20:47:43:692459,7,42,-4,12,4,3,12,5
20:47:43:693259,7,42,-4,12,4,3,12,5
20:47:43:706108,-2,-29,-18,-14,1,3,28,2
20:47:43:714266,4,-14,5,-7,-3,-1,-19,-5
20:47:43:715115,4,-14,5,-7,-3,-1,-19,-5
20:47:43:721093,2,45,29,30,3,3,8,-1
20:47:43:736818,2,-41,10,-6,0,-3,-8,-4
20:47:43:737603,2,-41,10,-6,0,-3,-8,-4
20:47:43:743591,-2,-37,-23,-15,-1,-2,2,2
20:47:43:751825,-2,-37,-23,-15,-1,-2,2,2
20:47:43:752602,-10,-19,10,-1,-4,-4,-11,-1
20:47:43:766244,1,-7,-49,-12,-4,-1,-2,7
20:47:43:774318,1,-7,-49,-12,-4,-1,-2,7
20:47:43:775086,-12,25,3,-1,-1,-3,-7,-4
20:47:43:781082,-3,7,36,-2,5,3,18,1
20:47:43:796799,-3,7,36,-2,5,3,18,1
20:47:43:797578,-11,-9,5,2,-4,1,9,-8
20:47:43:812429,-2,-20,0,-7,-2,-3,0,-4
20:47:43:813237,-2,-20,0,-7,-2,-3,0,-4
20:47:43:814073,10,19,5,-1,-5,-5,-1,0
20:47:43:826099,5,31,-12,9,1,0,-2,-1
20:47:43:834304,5,31,-12,9,1,0,-2,-1
20:47:43:835082,-21,-8,1,-4,4,2,-8,3
20:47:43:841104,-12,-86,-4,-8,0,-1,6,-1
20:47:43:856835,-12,-86,-4,-8,0,-1,6,-1
20:47:43:857653,-2,14,-37,-39,-9,-2,-2,4
20:47:43:863611,-11,-27,5,5,-9,-3,-5,-5
20:47:43:871785,-11,-27,5,5,-9,-3,-5,-5
20:47:43:872558,16,23,3,12,4,-7,-11,-3
20:47:43:886095,4,5,-21,-14,-4,2,-3,-2
20:47:43:894371,4,5,-21,-14,-4,2,-3,-2
20:47:43:895124,-6,2,10,5,4,3,5,-2
20:47:43:901100,1,8,21,4,-1,-1,-7,-7
20:47:43:916843,1,8,21,4,-1,-1,-7,-7
20:47:43:917640,-5,25,10,-1,4,5,-9,5
20:47:43:923596,8,10,29,-8,-6,-1,4,2
20:47:43:931772,8,10,29,-8,-6,-1,4,2
20:47:43:932564,-4,-14,-9,6,-5,-4,44,8
20:47:43:946083,-3,10,14,10,7,-2,2,5
20:47:43:954375,-3,10,14,10,7,-2,2,5
20:47:43:955146,7,-33,-42,-13,-9,-7,-3,-3
20:47:43:961120,-2,-47,8,17,-1,-6,1,-3
20:47:43:976813,-2,-47,8,17,-1,-6,1,-3
20:47:43:977617,-6,-12,27,-7,-4,-1,2,-1
20:47:43:983614,3,14,-2,-4,-2,10,41,15
20:47:43:999314,3,14,-2,-4,-2,10,41,15
20:47:44:87,9,-24,-4,6,1,-1,13,23
20:47:44:6069,5,10,-9,-5,3,3,-1,-5
20:47:44:14312,5,10,-9,-5,3,3,-1,-5
20:47:44:15164,6,-8,8,0,-4,3,-30,-14
20:47:44:21074,8,7,-17,-5,-6,-2,-15,-1
20:47:44:36836,8,7,-17,-5,-6,-2,-15,-1
20:47:44:37603,8,3,0,5,4,3,11,-2
20:47:44:43583,-10,16,10,-8,-1,-7,-14,-9
20:47:44:51814,-10,16,10,-8,-1,-7,-14,-9
20:47:44:52619,9,8,-5,7,-3,-6,-1,-1
20:47:44:66086,10,7,8,-1,3,0,3,2
20:47:44:74320,10,7,8,-1,3,0,3,2
20:47:44:75122,-5,75,2,-17,-4,0,-3,-4
20:47:44:81134,-1,-21,3,-28,-7,-3,-26,-3
20:47:44:96874,-1,-21,3,-28,-7,-3,-26,-3
20:47:44:97600,-15,-35,-32,-5,2,-4,-12,-4
20:47:44:103570,-14,-1,-1,2,-4,-10,-12,17
20:47:44:111851,-14,-1,-1,2,-4,-10,-12,17
20:47:44:112612,-8,20,8,4,-2,-2,2,-7
20:47:44:126083,-11,-9,-5,8,7,5,9,-3
20:47:44:134315,-11,-9,-5,8,7,5,9,-3
20:47:44:135102,-2,-12,-16,2,2,-1,1,3
20:47:44:141089,7,9,-4,-3,-9,-10,1,-11
20:47:44:156813,7,9,-4,-3,-9,-10,1,-11
20:47:44:157646,-12,5,19,6,2,1,-8,-9
20:47:44:163580,12,9,-4,28,-2,0,-17,6
20:47:44:171804,12,9,-4,28,-2,0,-17,6
20:47:44:172610,-3,-32,-32,-18,5,6,20,11
20:47:44:186137,-8,-2,-12,-19,-10,-9,-7,-2
20:47:44:194304,-8,-2,-12,-19,-10,-9,-7,-2
20:47:44:195098,0,-8,-12,14,0,-6,-34,3
20:47:44:201086,-19,-30,-25,-3,-4,1,10,-14
20:47:44:216798,-19,-30,-25,-3,-4,1,10,-14
20:47:44:217593,19,-11,10,8,6,5,12,-2
20:47:44:223552,3,-9,10,-11,-2,6,-1,-7
20:47:44:231812,3,-9,10,-11,-2,6,-1,-7
20:47:44:232588,-10,-15,12,-3,-3,0,-5,5
20:47:44:246138,17,13,-3,-9,1,-5,-33,-2
20:47:44:254345,17,13,-3,-9,1,-5,-33,-2
20:47:44:255093,1,-9,6,5,-3,-6,14,-2
20:47:44:261079,1,25,22,2,1,2,1,-3
20:47:44:276796,1,25,22,2,1,2,1,-3
20:47:44:277559,6,30,-21,0,-4,-6,-35,-5
20:47:44:283620,9,4,15,2,5,2,27,-20
20:47:44:299327,9,4,15,2,5,2,27,-20
20:47:44:300119,0,-3,11,9,-4,0,18,-31
20:47:44:306103,10,19,4,0,-5,-4,-71,-1
20:47:44:314294,10,19,4,0,-5,-4,-71,-1
20:47:44:315068,-6,-42,-18,-6,1,-4,-23,-4
20:47:44:321109,-23,-16,-25,0,2,-4,-4,-4
20:47:44:336830,-23,-16,-25,0,2,-4,-4,-4
20:47:44:337609,-6,-21,18,4,-5,-7,-14,1
20:47:44:343611,21,43,14,9,4,8,58,27
20:47:44:351787,21,43,14,9,4,8,58,27
20:47:44:352559,4,14,1,-5,-5,4,31,1
20:47:44:366125,-6,-8,-12,8,-7,-1,7,-9
20:47:44:374342,-6,-8,-12,8,-7,-1,7,-9
20:47:44:375065,8,8,23,10,10,7,9,4
20:47:44:381118,-13,-36,-19,-6,6,2,13,9
20:47:44:396848,-13,-36,-19,-6,6,2,13,9
20:47:44:397654,7,-12,-10,-3,-8,-7,-14,1
20:47:44:403605,-9,-19,-16,-9,-4,0,-12,-13
20:47:44:411771,-9,-19,-16,-9,-4,0,-12,-13
20:47:44:412566,-8,55,25,-8,4,8,33,3
20:47:44:426080,-10,20,12,10,4,5,25,-11
20:47:44:435034,-10,20,12,10,4,5,25,-11
20:47:44:435791,-3,-17,1,-20,-4,-4,-52,-8
20:47:44:441119,-19,-9,-11,14,-2,-3,-15,0
20:47:44:456877,-19,-9,-11,14,-2,-3,-15,0
20:47:44:457622,-2,-42,-13,-14,-6,8,31,9
20:47:44:463571,16,-16,6,-9,6,5,9,7
20:47:44:471881,16,-16,6,-9,6,5,9,7
20:47:44:472619,-7,18,5,10,3,-4,5,-4
20:47:44:486135,5,-1,21,4,-7,-8,15,14
20:47:44:494305,5,-1,21,4,-7,-8,15,14
20:47:44:495125,4,-12,-9,-9,-6,-5,-19,-2
20:47:44:501073,-1,8,-10,5,3,-2,1,-3
20:47:44:516840,-1,8,-10,5,3,-2,1,-3
20:47:44:517599,3,32,4,7,7,-2,-13,1
20:47:44:523583,-2,0,-17,-17,-7,-2,13,1
20:47:44:531798,-2,0,-17,-17,-7,-2,13,1
20:47:44:532613,4,5,24,20,0,-2,4,0
20:47:44:546114,-13,-13,-5,-27,-5,3,17,0
20:47:44:554311,-13,-13,-5,-27,-5,3,17,0
20:47:44:555096,-17,37,-46,-5,-1,-2,-6,0
20:47:44:561072,-5,2,16,2,-10,-11,-28,11
20:47:44:576818,-5,2,16,2,-10,-11,-28,11
20:47:44:577618,2,-4,20,-2,-1,3,11,10
20:47:44:583579,14,-7,-10,-8,-4,-2,-20,-6
20:47:44:591148,14,-7,-10,-8,-4,-2,-20,-6
20:47:44:598605,-8,-5,-12,10,2,3,10,0
20:47:44:606116,8,-31,-5,11,0,-5,-18,-7
20:47:44:614331,8,-31,-5,11,0,-5,-18,-7
20:47:44:615119,20,4,1,-17,-2,-2,-27,9
20:47:44:628597,6,13,8,-2,-2,6,6,2
20:47:44:637477,6,13,8,-2,-2,6,6,2
20:47:44:638250,-10,31,16,8,0,-7,-7,-9
20:47:44:643581,-2,11,8,-8,8,4,8,-6
20:47:44:651157,-2,11,8,-8,8,4,8,-6
20:47:44:658639,-10,-31,7,7,-5,-5,28,1
20:47:44:666115,3,-7,-12,4,-1,-2,-18,-4
20:47:44:674309,3,-7,-12,4,-1,-2,-18,-4
20:47:44:675070,-7,-52,-9,-7,-4,-2,14,-7
20:47:44:688592,1,-3,5,-1,2,-2,3,-4
20:47:44:705016,1,-3,5,-1,2,-2,3,-4
20:47:44:705759,12,-15,-8,-2,-2,-2,-28,-14
20:47:44:706601,-8,-2,-37,-13,0,-3,-4,4
20:47:44:711165,-8,-2,-37,-13,0,-3,-4,4
20:47:44:718597,9,21,-34,-19,-4,12,43,-8
20:47:44:726076,1,-26,4,3,3,-2,8,-6
20:47:44:734332,1,-26,4,3,3,-2,8,-6
20:47:44:735118,-3,-8,2,-3,4,3,13,2
20:47:44:748626,5,19,15,-5,-7,-2,-11,1
20:47:44:756812,5,19,15,-5,-7,-2,-11,1
20:47:44:757621,-3,1,-23,-4,2,-5,-11,2
20:47:44:763603,3,30,21,12,9,3,-13,0
20:47:44:771172,3,30,21,12,9,3,-13,0
20:47:44:778633,0,-3,6,4,-2,-1,-12,0
20:47:44:786117,-5,-6,1,2,-5,0,22,9
20:47:44:794310,-5,-6,1,2,-5,0,22,9
20:47:44:795071,-7,-16,-2,-1,-4,-9,-15,-2
20:47:44:808585,-8,-16,17,9,3,5,-32,-10
20:47:44:816850,-8,-16,17,9,3,5,-32,-10
20:47:44:817657,-8,-16,1,12,2,-10,-14,-4
20:47:44:823627,-2,5,-23,-3,-4,-2,-7,-7
20:47:44:831113,-2,5,-23,-3,-4,-2,-7,-7
20:47:44:838635,-11,3,17,9,2,1,3,-2
20:47:44:846100,3,-7,14,-2,-2,2,9,-3
20:47:44:854303,3,-7,14,-2,-2,2,9,-3
20:47:44:855101,-8,14,1,-2,8,14,75,-3
20:47:44:868618,3,14,5,10,-4,-7,1,5
20:47:44:876796,3,14,5,10,-4,-7,1,5
20:47:44:877581,8,2,2,-5,-10,-7,-35,-2
20:47:44:883609,-12,-48,-18,3,6,1,16,-4
20:47:44:891160,-12,-48,-18,3,6,1,16,-4
20:47:44:898553,7,-6,-25,-26,-1,0,-21,-3
20:47:44:906118,8,69,13,-5,-5,-9,-17,-2
20:47:44:914301,8,69,13,-5,-5,-9,-17,-2
20:47:44:915098,0,-7,18,11,-2,0,-6,6
20:47:44:928606,4,-9,0,0,1,0,-1,4
20:47:44:936793,4,-9,0,0,1,0,-1,4
20:47:44:937596,13,80,-2,1,-3,-1,-30,-15
20:47:44:943555,4,15,-7,-2,-1,-1,-46,-3
20:47:44:951178,4,15,-7,-2,-1,-1,-46,-3
20:47:44:958606,-16,-44,9,1,-1,-1,-5,0
20:47:44:966099,-6,6,8,-5,-4,-5,9,-3
20:47:44:974323,-6,6,8,-5,-4,-5,9,-3
20:47:44:975121,-3,-59,-26,-18,-9,-7,2,0
20:47:44:988568,1,55,25,-6,-1,3,28,8
20:47:44:996853,1,55,25,-6,-1,3,28,8
20:47:44:997614,6,58,0,12,6,3,14,11
20:47:45:3588,0,-26,-21,-20,-6,-3,-7,-3
20:47:45:11162,0,-26,-21,-20,-6,-3,-7,-3
20:47:45:18601,2,48,18,6,5,-2,-18,8
20:47:45:26084,-16,-11,-14,6,0,-3,-17,-8
20:47:45:34269,-16,-11,-14,6,0,-3,-17,-8
20:47:45:35077,1,-42,-33,-20,-5,-2,0,1
20:47:45:48637,-2,-53,11,8,-2,4,14,-1
20:47:45:56810,-2,-53,11,8,-2,4,14,-1
20:47:45:57629,-14,-15,15,1,-5,-1,-3,-7
20:47:45:63568,12,-5,-17,-2,11,3,19,0
20:47:45:71124,12,-5,-17,-2,11,3,19,0
20:47:45:78616,-15,-98,-34,-12,-7,-7,-6,2
20:47:45:86122,-5,-18,3,4,-7,-2,11,1
20:47:45:94729,-5,-18,3,4,-7,-2,11,1
20:47:45:101071,-1,-13,4,4,2,5,23,-10
20:47:45:108629,-1,-1,-3,12,3,1,-6,4
20:47:45:116794,-1,-1,-3,12,3,1,-6,4
20:47:45:117599,-8,-10,-2,3,-2,-8,-4,-10
20:47:45:123588,-6,6,-13,-48,-9,-6,-4,-3
20:47:45:131152,-6,6,-13,-48,-9,-6,-4,-3
20:47:45:138587,3,14,8,11,-3,-1,-23,2
20:47:45:146084,-4,-14,1,-1,2,-1,5,1
20:47:45:154317,-4,-14,1,-1,2,-1,5,1
20:47:45:155102,-11,-31,-5,0,-4,-1,8,-3
20:47:45:168597,1,-3,-22,2,-5,-6,-10,-4
20:47:45:176558,1,-3,-22,2,-5,-6,-10,-4
20:47:45:184232,4,-15,10,18,5,6,8,4
20:47:45:185043,-22,35,0,8,3,4,5,-1
20:47:45:191165,-22,35,0,8,3,4,5,-1
20:47:45:198624,8,-22,12,-6,-8,-6,-2,-2
20:47:45:206076,4,7,-9,0,2,2,22,-2
20:47:45:214363,4,7,-9,0,2,2,22,-2
20:47:45:215135,-1,36,-19,-2,0,2,0,-1
20:47:45:228596,2,1,-3,7,-3,-2,7,5
20:47:45:236812,2,1,-3,7,-3,-2,7,5
20:47:45:237615,16,36,5,-13,8,3,26,10
20:47:45:243583,2,-9,-5,3,-2,-4,-11,-6
20:47:45:251209,2,-9,-5,3,-2,-4,-11,-6
20:47:45:258615,6,6,17,0,-6,-3,-14,0
20:47:45:266137,-31,-16,27,16,3,0,-9,-7
20:47:45:274319,-31,-16,27,16,3,0,-9,-7
20:47:45:275089,1,-19,0,-1,8,0,-9,-3
20:47:45:288603,9,5,20,-4,-6,-5,-9,3
20:47:45:296772,9,5,20,-4,-6,-5,-9,3
20:47:45:297577,-4,53,0,-4,-2,1,12,6
20:47:45:303625,8,3,-4,-7,-3,1,16,21
20:47:45:311105,8,3,-4,-7,-3,1,16,21
20:47:45:318574,10,-10,-3,4,3,-2,-13,-1
20:47:45:326121,0,10,-2,-8,2,0,-21,-8
20:47:45:334292,0,10,-2,-8,2,0,-21,-8
20:47:45:335096,4,5,-20,-30,-11,-1,10,-1
20:47:45:348616,3,27,0,22,10,2,6,-5
20:47:45:356803,3,27,0,22,10,2,6,-5
20:47:45:357576,0,4,9,1,5,3,-2,-2
20:47:45:363618,-26,-34,21,-6,-3,0,-4,-5
20:47:45:371166,-26,-34,21,-6,-3,0,-4,-5
20:47:45:378565,-15,-44,-8,-16,-4,-3,-6,-3
20:47:45:386059,20,-9,-3,3,-4,0,-10,1
20:47:45:394321,20,-9,-3,3,-4,0,-10,1
20:47:45:395102,-17,6,17,3,-3,-6,-23,-8
20:47:45:408619,-6,6,14,-3,-1,-2,5,-4
20:47:45:416793,-6,6,14,-3,-1,-2,5,-4
20:47:45:417605,9,16,14,3,4,-3,-20,-3
20:47:45:423584,-5,-21,-24,-16,-5,-3,1,-4
20:47:45:431146,-5,-21,-24,-16,-5,-3,1,-4
20:47:45:438629,-12,-6,1,12,0,-1,-1,2
20:47:45:446080,4,16,-2,-14,-7,-1,9,2
20:47:45:454319,4,16,-2,-14,-7,-1,9,2
20:47:45:455122,1,-28,-14,10,3,3,21,6
20:47:45:468603,-12,-5,-11,-8,-1,0,-9,-21
20:47:45:476857,-12,-5,-11,-8,-1,0,-9,-21
20:47:45:477607,-17,16,-7,2,-6,-5,-9,-6
20:47:45:483598,3,-58,15,8,-3,-3,-8,1
20:47:45:491163,3,-58,15,8,-3,-3,-8,1
20:47:45:498604,-8,1,4,-12,-6,-1,1,2
20:47:45:506091,6,-13,-17,9,5,1,-1,0
20:47:45:514278,6,-13,-17,9,5,1,-1,0
20:47:45:515076,10,-17,13,20,11,3,4,0
20:47:45:528635,5,-1,-4,-3,0,4,3,1
20:47:45:536819,5,-1,-4,-3,0,4,3,1
20:47:45:537634,0,36,10,6,0,3,-3,-2
20:47:45:551815,3,4,-4,9,0,-2,2,12
20:47:45:552610,3,4,-4,9,0,-2,2,12
20:47:45:558600,-5,4,14,-6,-3,1,-3,-8
20:47:45:566104,-15,56,-23,-6,6,2,4,1
20:47:45:573728,-15,56,-23,-6,6,2,4,1
20:47:45:581085,3,-24,-19,-14,-9,-8,-9,-12
20:47:45:588605,21,8,11,12,5,0,7,3
20:47:45:596757,21,8,11,12,5,0,7,3
20:47:45:597576,9,-25,-17,-11,-6,-2,10,0
20:47:45:611825,-1,-26,16,-3,-4,-5,-11,-3
20:47:45:612627,-1,-26,16,-3,-4,-5,-11,-3
20:47:45:618592,11,-5,2,7,-4,0,8,4
20:47:45:626098,-15,2,0,7,-1,0,-8,0
20:47:45:633630,-15,2,0,7,-1,0,-8,0
20:47:45:641110,2,8,-9,-3,-2,-4,-8,-8
20:47:45:648620,-1,-15,-23,-10,-10,-1,-1,-6
20:47:45:656792,-1,-15,-23,-10,-10,-1,-1,-6
20:47:45:657616,-4,37,-6,3,10,1,-1,10
20:47:45:671793,16,-3,12,-3,-3,-4,-2,-2
20:47:45:672572,16,-3,12,-3,-3,-4,-2,-2
20:47:45:678643,-9,15,9,14,3,2,4,2
20:47:45:686123,-5,33,-17,3,3,-2,7,-6
20:47:45:693625,-5,33,-17,3,3,-2,7,-6
20:47:45:701078,1,-8,15,10,1,-2,1,-1
20:47:45:708567,-6,18,9,8,1,2,12,5
20:47:45:716815,-6,18,9,8,1,2,12,5
20:47:45:717628,4,-16,-7,-9,-2,-10,-24,-14
20:47:45:731765,5,7,-13,-7,-6,1,16,7
20:47:45:732582,5,7,-13,-7,-6,1,16,7
20:47:45:738562,12,81,20,-1,3,2,-3,2
20:47:45:746115,-11,-28,4,-2,-1,-4,-28,-6
20:47:45:753661,-11,-28,4,-2,-1,-4,-28,-6
20:47:45:761085,5,-25,-4,1,-1,-4,0,2
20:47:45:768574,9,-14,-32,-22,-7,-4,-19,-9
20:47:45:776849,9,-14,-32,-22,-7,-4,-19,-9
20:47:45:777609,8,-2,6,-8,-5,2,3,2
20:47:45:791838,-11,-25,-52,-21,5,-1,2,4
20:47:45:792631,-11,-25,-52,-21,5,-1,2,4
20:47:45:798612,11,32,12,-11,0,2,-2,1
20:47:45:806064,2,14,0,-1,-5,3,34,10
20:47:45:813664,2,14,0,-1,-5,3,34,10
20:47:45:821175,-15,-51,-25,-5,-6,-4,-13,1
20:47:45:828585,7,5,0,3,2,-4,-19,1
20:47:45:836850,7,5,0,3,2,-4,-19,1
20:47:45:837626,-18,-23,-7,-2,0,-3,-6,-9
20:47:45:851825,12,-9,31,5,-3,-2,1,-7
20:47:45:852607,12,-9,31,5,-3,-2,1,-7
20:47:45:858581,-12,-4,-15,-8,-6,-3,-11,6
20:47:45:866122,-10,-23,12,-13,2,1,-9,-9
20:47:45:873666,-10,-23,12,-13,2,1,-9,-9
20:47:45:881078,2,7,7,30,3,0,13,-1
20:47:45:888583,-3,45,23,17,2,9,2,0
20:47:45:896765,-3,45,23,17,2,9,2,0
20:47:45:897583,-3,-3,-4,-8,-2,10,64,13
20:47:45:911742,-5,-8,2,2,-3,-3,-8,-5
20:47:45:912584,-5,-8,2,2,-3,-3,-8,-5
20:47:45:918589,2,17,22,8,-1,-2,19,4
20:47:45:926101,-2,1,-43,-2,9,-2,-3,-2
20:47:45:933677,-2,1,-43,-2,9,-2,-3,-2
20:47:45:941166,-18,2,13,-33,-8,-2,-20,-18
20:47:45:948684,7,-17,18,2,-8,-5,-12,-1
20:47:45:956860,7,-17,18,2,-8,-5,-12,-1
20:47:45:957575,14,18,-4,4,-1,-10,-10,-2
20:47:45:971797,-9,45,28,6,3,-5,-16,-4
20:47:45:972588,-9,45,28,6,3,-5,-16,-4
20:47:45:978605,-16,-14,6,-2,-2,4,-17,13
20:47:45:986138,-11,-51,-13,2,-4,7,33,-20
20:47:45:993612,-11,-51,-13,2,-4,7,33,-20
20:47:46:1091,2,-3,-9,0,-5,-6,-25,-11
20:47:46:8568,-4,-32,6,-2,-5,0,-20,-5
20:47:46:16835,-4,-32,6,-2,-5,0,-20,-5
20:47:46:17610,4,-29,-1,15,6,4,9,5
20:47:46:31782,-2,23,-7,-16,-2,-9,-7,4
20:47:46:32606,-2,23,-7,-16,-2,-9,-7,4
20:47:46:38580,10,12,-6,26,2,0,2,5
20:47:46:46069,9,-4,-2,5,-2,-5,9,-1
20:47:46:53680,9,-4,-2,5,-2,-5,9,-1
20:47:46:61097,-5,-5,-6,-11,0,3,-22,-2
20:47:46:68577,-13,1,-4,-6,-3,14,11,0
20:47:46:76844,-13,1,-4,-6,-3,14,11,0
20:47:46:77598,15,47,-5,-6,-3,1,-14,-3
20:47:46:91809,1,-1,7,-1,-7,-14,-58,11
20:47:46:92630,1,-1,7,-1,-7,-14,-58,11
20:47:46:98591,7,49,1,1,6,2,0,7
20:47:46:106058,5,11,17,10,6,9,82,8
20:47:46:113674,5,11,17,10,6,9,82,8
20:47:46:121147,-3,-32,0,3,-2,-10,6,1
20:47:46:128616,-14,2,-35,-7,-2,4,36,7
20:47:46:136826,-14,2,-35,-7,-2,4,36,7
20:47:46:137647,4,-4,0,-6,3,5,36,0
20:47:46:151803,8,-14,4,1,-1,-1,-2,23
20:47:46:152614,8,-14,4,1,-1,-1,-2,23
20:47:46:158600,-22,-26,-11,-20,0,4,24,-6
20:47:46:166096,19,20,6,-18,-9,-10,-47,-25
20:47:46:173733,19,20,6,-18,-9,-10,-47,-25
20:47:46:181102,1,-28,-23,-26,-6,-10,-7,-2
20:47:46:188630,2,1,-18,-4,-2,-2,-5,0
20:47:46:196767,2,1,-18,-4,-2,-2,-5,0
20:47:46:197584,5,-3,-3,9,2,7,-5,4
20:47:46:211801,-12,-4,-9,-6,3,5,-24,-7
20:47:46:212587,-12,-4,-9,-6,3,5,-24,-7
20:47:46:218626,-12,-18,15,4,-8,7,7,-2
20:47:46:226125,-12,-9,3,10,3,-5,12,-1
20:47:46:233646,-12,-9,3,10,3,-5,12,-1
20:47:46:241108,3,-47,-3,4,-7,-8,-24,-7
20:47:46:248614,-6,-42,13,11,10,0,-7,-6
20:47:46:256828,-6,-42,13,11,10,0,-7,-6
20:47:46:257583,0,-6,-22,-2,-6,-11,-10,-6
20:47:46:271793,-3,-2,-8,-1,-5,-5,-15,-1
20:47:46:272588,-3,-2,-8,-1,-5,-5,-15,-1
20:47:46:278567,-8,-8,1,8,-2,-3,6,-2
20:47:46:286127,0,16,23,9,2,-2,-10,4
20:47:46:293620,0,16,23,9,2,-2,-10,4
20:47:46:301064,-13,3,5,7,3,0,-3,2
20:47:46:308566,6,-3,-10,2,-5,2,39,3
20:47:46:316810,6,-3,-10,2,-5,2,39,3
20:47:46:317609,1,-76,-3,-25,-8,2,-7,-7
20:47:46:331788,3,1,-6,11,7,-2,-17,0
20:47:46:332613,3,1,-6,11,7,-2,-17,0
20:47:46:338568,11,-26,-12,4,3,0,8,-6
20:47:46:346063,2,4,-2,-16,-9,-12,-33,-8
20:47:46:353681,2,4,-2,-16,-9,-12,-33,-8
20:47:46:361104,11,26,-2,0,2,-2,-9,-6
20:47:46:368598,-3,1,-6,10,7,3,-2,6
20:47:46:376854,-3,1,-6,10,7,3,-2,6
20:47:46:377623,-7,28,2,-1,-3,1,3,4
20:47:46:391807,-2,9,2,-16,-1,0,-5,-12
20:47:46:392629,-2,9,2,-16,-1,0,-5,-12
20:47:46:398613,-5,58,3,-4,6,4,-3,-3
20:47:46:406118,-6,-14,3,7,-4,7,28,2
20:47:46:413672,-6,-14,3,7,-4,7,28,2
20:47:46:421111,4,22,7,-2,2,-3,-3,2
20:47:46:428601,2,-2,19,-2,-9,-1,-10,-3
20:47:46:436791,2,-2,19,-2,-9,-1,-10,-3
20:47:46:437556,-9,-6,-1,-14,1,1,-4,4
20:47:46:451806,5,-13,10,-8,-8,0,14,-12
20:47:46:452609,5,-13,10,-8,-8,0,14,-12
20:47:46:458610,-4,5,2,8,-4,-4,-4,9
20:47:46:466093,5,0,12,1,-2,1,14,0
20:47:46:473623,5,0,12,1,-2,1,14,0
20:47:46:481118,-3,18,-9,-1,7,2,20,-2
20:47:46:488613,1,-17,-33,0,8,-1,-4,-5
20:47:46:496116,1,-17,-33,0,8,-1,-4,-5
20:47:46:503556,-4,-18,-5,15,-2,-1,13,-2
20:47:46:511875,-6,-3,-8,-29,-7,-11,-16,-3
20:47:46:512582,-6,-3,-8,-29,-7,-11,-16,-3
20:47:46:518630,-5,7,-20,8,-2,-3,-57,-10
20:47:46:534323,-4,6,2,18,5,4,3,6
20:47:46:535087,-4,6,2,18,5,4,3,6
20:47:46:541067,-10,-11,-14,-3,-6,-1,5,-1
20:47:46:548618,12,7,-15,2,2,-5,-6,3
20:47:46:556128,12,7,-15,2,2,-5,-6,3
20:47:46:563569,-3,-53,10,-2,0,0,2,-5
20:47:46:571794,5,-19,-7,8,1,0,4,-2
20:47:46:572607,5,-19,-7,8,1,0,4,-2
20:47:46:578577,-3,11,17,19,2,2,12,1
20:47:46:594272,0,-8,1,-8,-5,0,17,3
20:47:46:595086,0,-8,1,-8,-5,0,17,3
20:47:46:601081,1,25,-2,-4,0,-1,1,-8
20:47:46:608603,5,35,18,2,-4,-1,-28,2
20:47:46:616187,5,35,18,2,-4,-1,-28,2
20:47:46:623570,8,-30,10,1,-1,1,18,-10
20:47:46:631809,-10,-1,7,3,0,-7,10,12
20:47:46:632609,-10,-1,7,3,0,-7,10,12
20:47:46:638645,6,-8,-13,-12,-5,-8,-15,3
20:47:46:654336,-3,12,-6,-9,-10,-4,22,2
20:47:46:655122,-3,12,-6,-9,-10,-4,22,2
20:47:46:661096,12,30,-16,3,3,-1,-9,6
20:47:46:668615,-5,-36,-4,-10,-5,0,-7,-11
20:47:46:676160,-5,-36,-4,-10,-5,0,-7,-11
20:47:46:683613,0,-2,3,2,-4,3,2,6
20:47:46:691754,-1,11,16,6,4,5,1,0
20:47:46:692559,-1,11,16,6,4,5,1,0
20:47:46:698595,8,-25,-20,-18,-8,-5,10,3
20:47:46:714308,-4,-11,3,18,5,7,9,-2
20:47:46:715111,-4,-11,3,18,5,7,9,-2
20:47:46:721084,-9,-6,-1,2,1,-6,-7,4
20:47:46:728583,6,4,10,15,4,1,-7,-5
20:47:46:736116,6,4,10,15,4,1,-7,-5
20:47:46:743581,4,6,5,-35,-9,-7,8,-5
20:47:46:751776,4,17,19,-6,7,1,-13,2
20:47:46:752589,4,17,19,-6,7,1,-13,2
20:47:46:758560,-16,19,18,3,-5,2,-4,-3
20:47:46:774263,2,0,-20,-7,-9,-13,5,7
20:47:46:775085,2,0,-20,-7,-9,-13,5,7
20:47:46:781113,3,27,12,8,4,3,17,8
20:47:46:788593,-4,5,-17,-6,1,2,3,6
20:47:46:796172,-4,5,-17,-6,1,2,3,6
20:47:46:803580,-1,7,-19,-20,-7,-4,-9,-6
20:47:46:811792,-1,4,15,0,0,-4,-59,-4
20:47:46:812597,-1,4,15,0,0,-4,-59,-4
20:47:46:818572,8,-5,10,16,2,-3,7,1
20:47:46:834309,-15,-6,-6,3,4,9,2,6
20:47:46:835090,-15,-6,-6,3,4,9,2,6
20:47:46:841089,-24,0,-31,0,-2,-1,-20,-14
20:47:46:848586,3,-32,-7,-2,-8,-4,-4,-8
20:47:46:856122,3,-32,-7,-2,-8,-4,-4,-8
20:47:46:863589,13,-79,-31,-9,0,-1,7,2
20:47:46:871810,2,-14,-8,3,-1,-5,1,-9
20:47:46:872610,2,-14,-8,3,-1,-5,1,-9
20:47:46:878593,-5,-7,-11,4,-2,-2,3,1
20:47:46:894295,-11,-32,1,5,0,-4,-18,-7
20:47:46:895087,-11,-32,1,5,0,-4,-18,-7
20:47:46:901068,5,5,5,-3,0,7,10,-1
20:47:46:908564,-2,8,2,-6,7,1,7,3
20:47:46:916184,-2,8,2,-6,7,1,7,3
20:47:46:923600,-3,2,2,-4,-3,-2,2,-12
20:47:46:931815,8,62,1,-4,-8,-4,-10,29
20:47:46:932635,8,62,1,-4,-8,-4,-10,29
20:47:46:938622,11,56,26,9,10,0,-14,2
20:47:46:954304,-7,22,-7,6,-1,-1,0,-4
20:47:46:955124,-7,22,-7,6,-1,-1,0,-4
20:47:46:961119,-5,42,8,3,-3,1,5,1
20:47:46:968614,3,-5,20,3,-1,0,2,-13
20:47:46:976145,3,-5,20,3,-1,0,2,-13
20:47:46:983617,5,-10,-4,2,-1,-8,-11,-7
20:47:46:991744,-4,-34,13,30,10,6,19,-4
20:47:46:992561,-4,-34,13,30,10,6,19,-4
20:47:46:998590,1,-17,5,-28,-10,-2,0,5
20:47:47:14282,-8,-41,-3,-14,-11,-8,-9,-10
20:47:47:15058,-8,-41,-3,-14,-11,-8,-9,-10
20:47:47:21141,9,4,16,15,2,-4,-34,-3
20:47:47:28620,7,49,9,12,10,2,3,4
20:47:47:36188,7,49,9,12,10,2,3,4
20:47:47:43616,-24,-28,-20,-3,-1,1,-4,-26
20:47:47:51775,3,2,-12,-2,-5,-1,2,2
20:47:47:52625,3,2,-12,-2,-5,-1,2,2
20:47:47:58602,-20,39,15,17,2,-1,12,7
20:47:47:74254,-1,-12,-9,-21,1,0,8,-8
20:47:47:75103,-1,-12,-9,-21,1,0,8,-8
20:47:47:81153,4,-25,2,-2,-6,-3,2,2
20:47:47:88607,-10,34,-15,-4,-4,-2,8,0
20:47:47:96153,-10,34,-15,-4,-4,-2,8,0
20:47:47:103576,23,24,-12,15,11,3,-4,12
20:47:47:111788,3,-69,-14,-25,-13,-7,2,-6
20:47:47:112593,3,-69,-14,-25,-13,-7,2,-6
20:47:47:118597,-7,-61,-18,-14,-4,-2,-5,-1
20:47:47:134272,-7,-21,-22,-12,-4,-3,6,4
20:47:47:135092,-7,-21,-22,-12,-4,-3,6,4
20:47:47:141071,0,7,10,-9,0,1,-26,12
20:47:47:148610,6,1,41,16,2,-7,-14,1
20:47:47:156174,6,1,41,16,2,-7,-14,1
20:47:47:163592,-7,7,4,-3,-3,-1,9,-5
20:47:47:171837,-5,8,9,-21,1,5,1,-2
20:47:47:172610,-5,8,9,-21,1,5,1,-2
20:47:47:178581,-11,4,23,4,-2,1,7,-7
20:47:47:194287,-2,4,-7,0,-5,0,25,0
20:47:47:195122,-2,4,-7,0,-5,0,25,0
20:47:47:201077,6,75,10,0,10,3,-3,-5
20:47:47:208586,3,17,11,-3,-3,-1,3,-19
20:47:47:216170,3,17,11,-3,-3,-1,3,-19
20:47:47:223597,-4,-107,5,-5,2,1,13,-7
20:47:47:231752,-15,20,5,-7,-4,6,-25,0
20:47:47:232580,-15,20,5,-7,-4,6,-25,0
20:47:47:238598,3,-12,15,2,-4,-5,-2,1
20:47:47:254785,-7,-24,-1,1,-1,-3,-4,1
20:47:47:255593,-7,-24,-1,1,-1,-3,-4,1
20:47:47:261094,-7,22,6,-11,-7,1,-1,2
20:47:47:268593,-8,-4,1,-20,-5,-1,-5,-1
20:47:47:276193,-8,-4,1,-20,-5,-1,-5,-1
20:47:47:283628,0,81,8,6,5,1,10,5
20:47:47:291754,22,29,-16,14,3,1,-5,3
20:47:47:292570,22,29,-16,14,3,1,-5,3
20:47:47:298620,5,-18,3,2,2,-3,-1,3
20:47:47:314313,10,14,5,8,-1,5,13,11
20:47:47:315066,10,14,5,8,-1,5,13,11
20:47:47:321116,-1,28,-21,-1,-3,3,20,1
20:47:47:328647,2,30,-30,-11,-6,-6,5,-4
20:47:47:336109,2,30,-30,-11,-6,-6,5,-4
20:47:47:343620,6,-30,4,6,2,-4,-3,-4
20:47:47:351796,-6,-3,-18,-2,-3,-2,-8,1
20:47:47:352608,-6,-3,-18,-2,-3,-2,-8,1
20:47:47:358585,16,44,-6,-1,-3,0,-12,1
20:47:47:374280,5,22,4,19,9,4,6,7
20:47:47:375072,5,22,4,19,9,4,6,7
20:47:47:381103,9,-20,-26,-7,-6,-8,-8,3
20:47:47:388633,-21,-30,7,-8,0,-2,0,-2
20:47:47:396123,-21,-30,7,-8,0,-2,0,-2
20:47:47:412432,-9,-47,-41,-26,3,3,8,-6
20:47:47:413217,-25,-54,-23,-10,-8,-8,-23,-10
20:47:47:414046,-25,-54,-23,-10,-8,-8,-23,-10
20:47:47:418669,-15,-15,3,12,-1,5,9,-5
20:47:47:434259,-2,-17,7,-18,-2,-1,22,0
20:47:47:435066,-2,-17,7,-18,-2,-1,22,0
20:47:47:441116,3,-8,9,-3,-2,-1,-1,-2
20:47:47:456803,13,13,-6,1,-1,2,15,1
20:47:47:457630,13,13,-6,1,-1,2,15,1
20:47:47:463601,6,10,11,22,3,-2,-17,5
20:47:47:471747,2,-48,1,-12,-3,-2,-8,-2
20:47:47:472571,2,-48,1,-12,-3,-2,-8,-2
20:47:47:486130,-5,-24,12,-9,-11,-9,-9,5
20:47:47:494307,11,-6,-16,8,5,1,-16,-8
20:47:47:495137,11,-6,-16,8,5,1,-16,-8
20:47:47:501101,-1,0,24,0,-5,-6,-15,1
20:47:47:516815,15,9,-5,2,-2,-4,-9,-1
20:47:47:517621,15,9,-5,2,-2,-4,-9,-1
20:47:47:523575,-23,-50,-15,5,-3,-4,-44,-2
20:47:47:531829,4,5,2,-8,0,0,-22,-2
20:47:47:532648,4,5,2,-8,0,0,-22,-2
20:47:47:546094,-5,36,13,-13,1,1,16,0
20:47:47:554340,2,23,-8,-16,-2,2,21,5
20:47:47:555146,2,23,-8,-16,-2,2,21,5
20:47:47:561087,5,10,-3,0,-3,3,17,-9
20:47:47:576804,-6,10,-24,-4,-3,-8,24,-9
20:47:47:577619,-6,10,-24,-4,-3,-8,24,-9
20:47:47:583580,-4,25,-13,0,2,1,-23,-10
20:47:47:591831,-11,-2,11,20,-5,7,6,-2
20:47:47:592626,-11,-2,11,20,-5,7,6,-2
20:47:47:606115,-3,-8,-6,6,0,-3,19,16
20:47:47:614290,-3,16,13,12,4,-5,-57,0
20:47:47:615124,-3,16,13,12,4,-5,-57,0
20:47:47:621091,7,-30,2,-9,-5,5,26,1
20:47:47:636862,-15,-17,-2,-8,0,1,22,-3
20:47:47:637588,-15,-17,-2,-8,0,1,22,-3
20:47:47:643573,4,-21,-11,2,1,-2,3,-4
20:47:47:651790,4,-2,12,4,-3,3,34,0
20:47:47:652633,4,-2,12,4,-3,3,34,0
20:47:47:666091,-17,-24,16,14,9,6,25,-7
20:47:47:674299,12,7,-11,-9,-2,0,0,-2
20:47:47:675110,12,7,-11,-9,-2,0,0,-2
20:47:47:681072,-13,7,-9,12,6,5,-1,3
20:47:47:696792,-6,5,13,5,-3,-2,-21,2
20:47:47:697605,-6,5,13,5,-3,-2,-21,2
20:47:47:703594,9,7,-15,-5,-1,9,22,-5
20:47:47:711808,-6,-16,2,-5,-6,-1,11,-1
20:47:47:712587,-6,-16,2,-5,-6,-1,11,-1
20:47:47:726053,-37,26,33,15,-1,-4,-20,-7
20:47:47:734317,-37,26,33,15,-1,-4,-20,-7
20:47:47:735095,14,-14,-20,0,-2,-8,14,-8
20:47:47:741080,17,-4,-15,0,-5,-9,-30,0
20:47:47:756787,17,-4,-15,0,-5,-9,-30,0
20:47:47:757593,-13,-56,-2,6,-1,-3,-10,-14
20:47:47:763575,0,-29,-7,-22,-1,-5,-21,-4
20:47:47:771162,0,-29,-7,-22,-1,-5,-21,-4
20:47:47:778599,7,11,16,11,3,9,8,7
20:47:47:786097,9,5,-8,-7,-4,5,-5,-3
20:47:47:794329,9,5,-8,-7,-4,5,-5,-3
20:47:47:795091,-14,20,10,4,6,-2,-3,-2
20:47:47:801079,4,18,23,-3,-6,-7,-81,10
20:47:47:816809,4,18,23,-3,-6,-7,-81,10
20:47:47:817591,6,-30,-4,3,-1,8,32,-10
20:47:47:823572,-8,-7,-4,0,4,4,42,-4
20:47:47:831156,-8,-7,-4,0,4,4,42,-4
20:47:47:838583,-22,6,2,-7,-6,-6,-35,4
20:47:47:846082,6,-3,7,1,-3,-2,14,-3
20:47:47:854350,6,-3,7,1,-3,-2,14,-3
20:47:47:855128,7,15,-2,-2,3,-2,-11,5
20:47:47:861113,-2,32,-30,-7,-7,0,13,-2
20:47:47:876808,-2,32,-30,-7,-7,0,13,-2
20:47:47:877635,8,31,-3,2,13,5,21,1
20:47:47:883582,-3,-31,13,-3,-3,-1,9,3
20:47:47:899341,-3,-31,13,-3,-3,-1,9,3
20:47:47:900090,-3,6,-28,-12,-14,-12,-22,-7
20:47:47:906117,2,-67,-1,0,5,-4,8,-2
20:47:47:914307,2,-67,-1,0,5,-4,8,-2
20:47:47:915110,3,15,13,2,-5,-3,57,23
20:47:47:921081,7,58,-9,0,-4,-4,-4,0
20:47:47:936818,7,58,-9,0,-4,-4,-4,0
20:47:47:937602,13,-45,10,4,3,6,-20,5
20:47:47:943576,-4,-2,-19,-12,-6,-8,-48,-9
20:47:47:951194,-4,-2,-19,-12,-6,-8,-48,-9
20:47:47:958596,-3,15,4,-2,-5,2,45,-12
20:47:47:966088,5,15,4,0,4,-1,-5,-2
20:47:47:974331,5,15,4,0,4,-1,-5,-2
20:47:47:975120,-8,-10,-2,13,0,-16,-52,-4
20:47:47:981108,0,24,-2,2,-6,5,28,-10
20:47:47:996842,0,24,-2,2,-6,5,28,-10
20:47:47:997635,7,47,13,12,3,3,-42,13
20:47:48:3593,13,-15,-14,-12,-1,1,4,4
20:47:48:11177,13,-15,-14,-12,-1,1,4,4
20:47:48:18626,6,9,6,-9,-7,-6,-4,-7
20:47:48:26124,-10,76,26,12,5,4,-19,4
20:47:48:34307,-10,76,26,12,5,4,-19,4
20:47:48:35067,1,-15,-24,-15,-5,-4,-12,-3
20:47:48:41099,-11,-25,10,6,7,-6,4,-5
20:47:48:56769,-11,-25,10,6,7,-6,4,-5
20:47:48:57582,-2,16,7,-1,2,5,-22,-18
20:47:48:63602,7,-16,-10,-6,-3,-5,25,1
20:47:48:71153,7,-16,-10,-6,-3,-5,25,1
20:47:48:78545,4,-15,-6,0,2,-6,-9,-3
20:47:48:86120,-10,-33,2,-6,-7,-1,0,-3
20:47:48:94294,-10,-33,2,-6,-7,-1,0,-3
20:47:48:95097,-2,-21,-25,-10,-2,-2,-30,-7
20:47:48:101071,0,24,9,11,3,0,13,12
20:47:48:116825,0,24,9,11,3,0,13,12
20:47:48:117573,-6,3,17,5,0,5,58,5
20:47:48:123571,5,-10,10,-14,7,-4,-39,1
20:47:48:131130,5,-10,10,-14,7,-4,-39,1
20:47:48:138564,-6,7,22,16,3,3,10,6
20:47:48:146060,0,-9,-21,2,-4,4,28,1
20:47:48:154325,0,-9,-21,2,-4,4,28,1
20:47:48:155087,1,12,-2,-3,5,4,-19,-8
20:47:48:161075,4,-23,-19,-4,4,0,13,-7
20:47:48:176820,4,-23,-19,-4,4,0,13,-7
20:47:48:177604,-16,-21,8,2,-1,1,19,2
20:47:48:183551,11,6,-12,-15,-7,0,-33,-8
20:47:48:199306,11,6,-12,-15,-7,0,-33,-8
20:47:48:200068,-4,-9,1,-5,-2,-6,-1,9
20:47:48:206046,-3,46,28,22,-2,-7,-3,7
20:47:48:214310,-3,46,28,22,-2,-7,-3,7
20:47:48:215108,-8,-30,-12,-13,2,0,-18,-4
20:47:48:221045,-2,-25,-23,-28,-6,-3,12,11
20:47:48:236827,-2,-25,-23,-28,-6,-3,12,11
20:47:48:237589,-1,-19,-1,10,-5,-5,28,-3
20:47:48:243550,-15,-4,6,11,-4,5,29,9
20:47:48:251143,-15,-4,6,11,-4,5,29,9
20:47:48:258677,3,1,-32,-6,1,-2,6,1
20:47:48:266076,8,0,-8,-1,-1,-2,31,16
20:47:48:274322,8,0,-8,-1,-1,-2,31,16
20:47:48:275089,20,74,0,-1,-1,-1,-20,4
20:47:48:281075,-5,72,10,4,0,3,4,-8
20:47:48:296824,-5,72,10,4,0,3,4,-8
20:47:48:297614,-9,-19,3,5,-1,2,-1,6
20:47:48:303582,-12,-35,6,-26,-3,-3,21,-16
20:47:48:311157,-12,-35,6,-26,-3,-3,21,-16
20:47:48:318588,2,5,-15,-7,3,10,32,7
20:47:48:326089,-2,-38,-30,-2,0,-1,-27,-18
20:47:48:334304,-2,-38,-30,-2,0,-1,-27,-18
20:47:48:335120,0,-53,-9,-8,-1,2,35,-1
20:47:48:341122,3,-12,-9,18,1,-3,-20,0
20:47:48:356817,3,-12,-9,18,1,-3,-20,0
20:47:48:357601,10,-38,-11,-13,-8,-6,-44,-10
20:47:48:363587,-4,-5,6,18,3,6,-3,-17
20:47:48:371178,-4,-5,6,18,3,6,-3,-17
20:47:48:378652,-1,7,-5,2,2,4,-13,-7
20:47:48:386110,-2,31,-13,-11,-4,-6,-24,-13
20:47:48:394296,-2,31,-13,-11,-4,-6,-24,-13
20:47:48:395085,-10,18,12,9,-1,-1,5,-6
20:47:48:408577,-14,-40,7,1,-1,0,3,6
20:47:48:416853,-14,-40,7,1,-1,0,3,6
20:47:48:417651,2,-44,4,9,-2,-5,-13,2
20:47:48:423612,4,-28,-6,-1,-3,-7,14,2
20:47:48:431119,4,-28,-6,-1,-3,-7,14,2
20:47:48:438604,-1,-14,11,6,1,-10,-30,-23
20:47:48:446114,-9,-5,1,11,0,-2,-21,2
20:47:48:454284,-9,-5,1,11,0,-2,-21,2
20:47:48:455069,4,25,9,7,-1,3,18,1
20:47:48:468616,5,16,16,4,-2,10,49,16
20:47:48:476799,5,16,16,4,-2,10,49,16
20:47:48:477580,-6,11,-8,-20,-9,-4,-6,4
20:47:48:483599,0,12,7,-4,-3,2,-9,6
20:47:48:491145,0,12,7,-4,-3,2,-9,6
20:47:48:498569,9,52,12,2,5,12,10,3
20:47:48:506053,5,-1,-15,2,2,0,-23,-5
20:47:48:514288,5,-1,-15,2,2,0,-23,-5
20:47:48:515105,-28,30,-13,-13,0,0,24,23
20:47:48:528603,0,25,-3,7,3,-4,-50,-6
20:47:48:536842,0,25,-3,7,3,-4,-50,-6
20:47:48:537606,1,9,-1,-18,-3,0,27,6
20:47:48:543593,-4,-4,19,-2,-4,-12,-42,9
20:47:48:551154,-4,-4,19,-2,-4,-12,-42,9
20:47:48:558600,6,-19,-12,0,-1,-1,7,-7
20:47:48:566141,5,-7,-8,-6,-1,-3,41,1
20:47:48:574327,5,-7,-8,-6,-1,-3,41,1
20:47:48:575098,3,-19,-1,-5,-1,0,-7,4
20:47:48:588585,1,0,15,-5,2,2,-4,-8
20:47:48:596823,1,0,15,-5,2,2,-4,-8
20:47:48:597603,-2,44,-14,-9,-2,-9,-9,-4
20:47:48:603578,2,-4,14,-15,-10,-9,37,-15
20:47:48:611169,2,-4,14,-15,-10,-9,37,-15
20:47:48:618785,-2,-16,-13,4,16,-2,-19,-10
20:47:48:626102,4,21,19,-14,-6,-3,-2,5
20:47:48:634269,4,21,19,-14,-6,-3,-2,5
20:47:48:635079,9,37,19,15,-8,-2,-8,1
20:47:48:648594,-2,-20,-16,13,3,4,-1,11
20:47:48:656840,-2,-20,-16,13,3,4,-1,11
20:47:48:657609,11,4,-3,-3,5,-5,-16,0
20:47:48:663595,-3,1,-8,2,-3,-6,-11,23
20:47:48:671174,-3,1,-8,2,-3,-6,-11,23
20:47:48:678661,-10,-13,21,3,-8,-7,-14,-2
20:47:48:686111,-1,-15,-34,-11,1,9,-8,-8
20:47:48:694321,-1,-15,-34,-11,1,9,-8,-8
20:47:48:695073,9,-29,8,4,-4,1,22,2
20:47:48:708591,-11,-16,6,3,2,1,24,-14
20:47:48:716765,-11,-16,6,3,2,1,24,-14
20:47:48:717580,-2,-16,-18,-11,-5,2,-19,-4
20:47:48:723600,5,-20,-15,-42,-9,4,4,-10
20:47:48:731111,5,-20,-15,-42,-9,4,4,-10
20:47:48:738620,-6,-43,11,7,0,3,1,-7
20:47:48:746146,-5,-1,7,10,-1,-6,-59,-3
20:47:48:754294,-5,-1,7,10,-1,-6,-59,-3
20:47:48:755079,4,-10,-9,-2,2,-6,-34,2
20:47:48:768619,14,13,-2,-8,0,-6,22,-4
20:47:48:776795,14,13,-2,-8,0,-6,22,-4
20:47:48:777582,-4,8,-25,-2,1,-2,-21,7
20:47:48:783609,-26,-20,16,5,-5,2,-20,-7
20:47:48:791184,-26,-20,16,5,-5,2,-20,-7
20:47:48:798613,-2,15,8,1,-2,-4,3,-5
20:47:48:806121,4,-15,-30,17,7,11,40,14
20:47:48:814294,4,-15,-30,17,7,11,40,14
20:47:48:815103,-11,-17,-15,-2,3,4,-4,4
20:47:48:828600,0,19,1,-5,-6,-1,16,2
20:47:48:836865,0,19,1,-5,-6,-1,16,2
20:47:48:837596,-2,21,30,0,-2,5,11,-5
20:47:48:843551,3,4,2,-10,0,-9,-1,-9
20:47:48:851170,3,4,2,-10,0,-9,-1,-9
20:47:48:858673,-3,-8,15,10,2,2,25,-5
20:47:48:866126,-16,-23,3,-1,-4,0,-18,-8
20:47:48:874370,-16,-23,3,-1,-4,0,-18,-8
20:47:48:875115,5,18,4,-3,-8,-11,-25,3
20:47:48:888562,12,5,1,-4,-3,-11,-38,8
20:47:48:896869,12,5,1,-4,-3,-11,-38,8
20:47:48:897769,1,-18,-14,-1,6,2,32,-1
20:47:48:903593,8,-22,-3,-17,-7,-2,7,-9
20:47:48:911192,8,-22,-3,-17,-7,-2,7,-9
20:47:48:918592,-3,11,-2,-9,-12,-2,9,-3
20:47:48:926152,-1,-2,-18,15,4,4,33,1
20:47:48:934260,-1,-2,-18,15,4,4,33,1
20:47:48:935107,3,4,8,3,4,-2,2,6
20:47:48:948626,-7,8,19,6,3,4,1,-13
20:47:48:956843,-7,8,19,6,3,4,1,-13
20:47:48:957636,-13,-14,-4,-16,-11,-6,-4,-9
20:47:48:963575,-16,51,-5,8,5,12,18,3
20:47:48:971115,-16,51,-5,8,5,12,18,3
20:47:48:978607,-8,-8,-2,1,1,-1,-4,12
20:47:48:986138,1,-6,7,10,0,-3,39,1
20:47:48:994294,1,-6,7,10,0,-3,39,1
20:47:48:995071,10,39,-8,-1,1,-2,-44,-7
20:47:49:8612,-11,7,-2,2,0,-10,-57,-3
20:47:49:16777,-11,7,-2,2,0,-10,-57,-3
20:47:49:17580,25,-22,-4,1,-6,0,13,-5
20:47:49:23627,8,-4,3,-2,6,-2,19,-2
20:47:49:31122,8,-4,3,-2,6,-2,19,-2
20:47:49:38607,-4,-22,9,-2,-5,-3,-44,-12
20:47:49:46089,4,-2,3,-4,4,-6,-34,6
20:47:49:54348,4,-2,3,-4,4,-6,-34,6
20:47:49:55085,-5,12,-3,-28,3,14,50,2
20:47:49:68641,-22,18,-9,-4,-3,3,0,-5
20:47:49:76828,-22,18,-9,-4,-3,3,0,-5
20:47:49:77578,-3,0,-6,-23,-8,0,15,7
20:47:49:83633,14,-14,13,13,1,-1,-8,-6
20:47:49:91150,14,-14,13,13,1,-1,-8,-6
20:47:49:98568,3,-3,3,16,1,1,24,0
20:47:49:106090,-9,21,3,-9,-10,-13,-33,4
20:47:49:114315,-9,21,3,-9,-10,-13,-33,4
20:47:49:115128,0,-8,-3,-1,-3,-3,42,-8
20:47:49:128614,-3,-52,-11,-13,-4,0,25,-2
20:47:49:136793,-3,-52,-11,-13,-4,0,25,-2
20:47:49:137612,-8,36,-11,13,13,-1,-19,8
20:47:49:143551,4,1,8,9,-5,9,23,10
20:47:49:151148,4,1,8,9,-5,9,23,10
20:47:49:158621,2,-6,7,-7,-5,-1,-21,0
20:47:49:166105,-4,5,-5,-8,-2,7,29,0
20:47:49:174335,-4,5,-5,-8,-2,7,29,0
20:47:49:175111,-8,-28,-5,15,2,0,-15,-3
20:47:49:188591,1,-5,24,-12,-3,-6,-22,-6
20:47:49:196856,1,-5,24,-12,-3,-6,-22,-6
20:47:49:197600,11,15,13,8,2,-7,-26,0
20:47:49:203604,1,-1,0,9,3,1,42,2
20:47:49:211174,1,-1,0,9,3,1,42,2
20:47:49:218608,6,54,2,4,-2,2,6,-22
20:47:49:226099,-11,41,-11,7,0,-7,-49,4
20:47:49:234278,-11,41,-11,7,0,-7,-49,4
20:47:49:235072,-4,4,3,-11,-6,-7,-2,1
20:47:49:248613,14,3,15,8,-1,2,16,-6
20:47:49:256844,14,3,15,8,-1,2,16,-6
20:47:49:257639,-9,-25,1,4,2,-4,5,-3
20:47:49:263591,1,-70,-27,-5,-2,-1,-25,1
20:47:49:271140,1,-70,-27,-5,-2,-1,-25,1
20:47:49:278621,-14,-23,-19,1,-3,7,46,-10
20:47:49:286107,0,-2,9,-4,-5,-1,-48,-6
20:47:49:294293,0,-2,9,-4,-5,-1,-48,-6
20:47:49:295075,-2,-17,11,4,3,-1,-12,5
20:47:49:308590,2,53,14,-16,-3,-1,-11,-10
20:47:49:316780,2,53,14,-16,-3,-1,-11,-10
20:47:49:317575,-10,-3,1,22,10,5,-1,5
20:47:49:323612,-5,-54,4,10,1,-2,-7,0
20:47:49:331123,-5,-54,4,10,1,-2,-7,0
20:47:49:346771,-6,-18,-33,-26,-14,-22,-66,8
20:47:49:347557,-2,-13,-18,-6,-1,-4,45,29
20:47:49:353617,-2,-13,-18,-6,-1,-4,45,29
20:47:49:361088,3,-5,15,19,2,-3,-20,5
20:47:49:368614,5,10,0,1,1,-1,11,-7
20:47:49:376786,5,10,0,1,1,-1,11,-7
20:47:49:377590,-8,9,4,-6,-2,-1,5,8
20:47:49:391801,2,5,19,0,-5,5,45,-5
20:47:49:392616,2,5,19,0,-5,5,45,-5
20:47:49:398609,1,-25,-7,-4,-7,-4,3,-7
20:47:49:406124,-10,4,4,30,13,-2,4,-8
20:47:49:413631,-10,4,4,30,13,-2,4,-8
20:47:49:421080,11,-6,11,-22,-9,1,21,7
20:47:49:428604,8,-6,-34,-17,-2,2,-1,9
20:47:49:436800,8,-6,-34,-17,-2,2,-1,9
20:47:49:437617,-19,-31,-4,25,8,7,17,-3
20:47:49:451778,6,-40,-11,-2,1,-4,-8,-2
20:47:49:452586,6,-40,-11,-2,1,-4,-8,-2
20:47:49:458561,0,3,-18,-5,1,2,-19,-3
20:47:49:466059,-1,7,-6,4,0,-5,-17,2
20:47:49:473667,-1,7,-6,4,0,-5,-17,2
20:47:49:481068,8,16,-5,-20,2,5,-14,-6
20:47:49:488596,7,11,-10,-9,-5,-6,-10,9
20:47:49:496834,7,11,-10,-9,-5,-6,-10,9
20:47:49:497623,1,12,-35,4,-1,-2,7,0
20:47:49:511801,-6,6,4,9,-4,-1,-3,-10
20:47:49:512606,-6,6,4,9,-4,-1,-3,-10
20:47:49:518567,-3,-28,14,6,7,4,20,4
20:47:49:526069,3,24,-9,2,0,7,10,-7
20:47:49:533656,3,24,-9,2,0,7,10,-7
20:47:49:541079,0,7,19,-19,-14,-4,-9,-7
20:47:49:548606,5,32,18,3,3,-7,-13,-1
20:47:49:556828,5,32,18,3,3,-7,-13,-1
20:47:49:557619,-1,-7,-21,-2,-5,-2,9,-14
20:47:49:571801,-14,-24,1,-30,-6,4,-5,-9
20:47:49:572613,-14,-24,1,-30,-6,4,-5,-9
20:47:49:578591,2,6,-12,3,-1,-2,25,-8
20:47:49:586083,-4,-15,-16,-4,-3,-3,3,-1
20:47:49:593685,-4,-15,-16,-4,-3,-3,3,-1
20:47:49:601119,5,-5,-7,2,3,2,-6,-7
20:47:49:608637,-5,3,-4,11,1,2,12,1
20:47:49:616770,-5,3,-4,11,1,2,12,1
20:47:49:617575,-2,13,8,-15,-12,-2,-12,8
20:47:49:631764,-1,-1,-49,-7,7,11,40,11
20:47:49:632585,-1,-1,-49,-7,7,11,40,11
20:47:49:638614,-4,0,18,11,-2,-12,5,5
20:47:49:646124,6,0,-24,-36,-7,-1,-12,-3
20:47:49:653648,6,0,-24,-36,-7,-1,-12,-3
20:47:49:661167,-2,-11,-18,0,2,10,21,2
20:47:49:668612,-12,19,24,12,-2,0,-11,-8
20:47:49:676803,-12,19,24,12,-2,0,-11,-8
20:47:49:677579,7,24,2,16,14,3,-71,-11
20:47:49:691815,0,38,21,5,3,-5,-23,-6
20:47:49:692579,0,38,21,5,3,-5,-23,-6
20:47:49:698588,0,-17,11,10,-6,-2,9,0
20:47:49:706156,-1,33,12,-10,1,1,-1,-5
20:47:49:713623,-1,33,12,-10,1,1,-1,-5
20:47:49:721082,0,-6,-3,-8,-6,-6,-8,0
20:47:49:728597,1,-20,23,14,0,-8,6,2
20:47:49:736852,1,-20,23,14,0,-8,6,2
20:47:49:737625,-1,10,1,-9,1,-4,0,1
20:47:49:751817,0,-16,-14,-4,-4,-8,-17,-27
20:47:49:752597,0,-16,-14,-4,-4,-8,-17,-27
20:47:49:758575,-8,60,20,-3,6,-3,-13,-7
20:47:49:766074,-11,-29,-4,1,-2,-6,-32,-2
20:47:49:773637,-11,-29,-4,1,-2,-6,-32,-2
20:47:49:781086,5,-13,-2,-10,-3,-6,35,6
20:47:49:788584,-4,18,12,-2,1,1,10,15
20:47:49:796849,-4,18,12,-2,1,1,10,15
20:47:49:797604,0,16,-6,3,-2,-5,7,12
20:47:49:811826,4,-21,2,13,-3,1,-8,2
20:47:49:812610,4,-21,2,13,-3,1,-8,2
20:47:49:818605,12,-40,2,8,-1,3,-10,-1
20:47:49:826079,-6,22,6,4,-3,10,15,4
20:47:49:833658,-6,22,6,4,-3,10,15,4
20:47:49:841131,1,-2,-4,-4,-5,0,-13,-2
20:47:49:848644,11,-12,-1,5,-3,3,17,0
20:47:49:856794,11,-12,-1,5,-3,3,17,0
20:47:49:857570,-2,8,-7,-3,6,3,5,-5
20:47:49:871796,-8,-12,10,-1,-3,-1,2,9
20:47:49:872618,-8,-12,10,-1,-3,-1,2,9
20:47:49:878598,-2,-7,-7,-5,0,-1,-7,-2
20:47:49:886089,-3,-4,0,2,0,-3,-3,2
20:47:49:893615,-3,-4,0,2,0,-3,-3,2
20:47:49:901144,5,13,20,24,7,5,24,25
20:47:49:908651,2,-11,-5,-24,-9,-1,-43,-2
20:47:49:916786,2,-11,-5,-24,-9,-1,-43,-2
20:47:49:917596,-10,-15,-7,-11,-6,-3,-9,-11
20:47:49:931746,3,-7,15,17,14,1,-1,-12
20:47:49:932569,3,-7,15,17,14,1,-1,-12
20:47:49:938610,6,-2,-21,-13,-7,-1,-51,3
20:47:49:946102,1,-8,-9,-7,-6,-8,-37,-10
20:47:49:953634,1,-8,-9,-7,-6,-8,-37,-10
20:47:49:961054,-24,4,6,5,4,-2,-12,-14
20:47:49:968618,11,5,-7,-10,1,2,11,13
20:47:49:976792,11,5,-7,-10,1,2,11,13
20:47:49:977577,3,-23,-5,5,-1,-2,-27,-1
20:47:49:991789,-12,-12,6,-7,-6,-9,-8,-4
20:47:49:992590,-12,-12,6,-7,-6,-9,-8,-4
20:47:49:998584,5,-11,20,18,5,-5,18,-6
20:47:50:6056,2,-6,-15,-14,-11,-2,0,2
20:47:50:13625,2,-6,-15,-14,-11,-2,0,2
20:47:50:21068,-17,-4,0,-18,2,0,8,-8
20:47:50:28601,-7,-1,-21,1,-3,-3,16,2
20:47:50:36797,-7,-1,-21,1,-3,-3,16,2
20:47:50:37607,1,4,-2,4,2,3,8,3
20:47:50:51791,3,37,17,7,-1,-1,-11,-6
20:47:50:52597,3,37,17,7,-1,-1,-11,-6
20:47:50:58570,5,-21,-41,-45,-10,-3,11,1
20:47:50:66073,7,-7,-5,12,6,-10,-20,-3
20:47:50:73648,7,-7,-5,12,6,-10,-20,-3
20:47:50:81069,2,11,16,5,-8,-3,69,0
20:47:50:88586,-4,-9,1,7,6,0,50,-3
20:47:50:96832,-4,-9,1,7,6,0,50,-3
20:47:50:97623,1,64,1,0,-6,2,-18,0
20:47:50:111807,1,-11,16,1,-3,0,-14,1
20:47:50:112616,1,-11,16,1,-3,0,-14,1
20:47:50:118584,0,-52,-3,0,0,-3,-9,1
20:47:50:126093,-9,8,-1,-16,-5,-1,-22,0
20:47:50:133667,-9,8,-1,-16,-5,-1,-22,0
20:47:50:141309,-11,-50,-35,16,6,5,-48,-1
20:47:50:148596,-4,-45,-38,-2,-1,1,-2,-9
20:47:50:156790,-4,-45,-38,-2,-1,1,-2,-9
20:47:50:157576,-15,-24,7,-44,-15,-3,13,-4
20:47:50:171810,-1,-71,-32,5,5,3,14,1
20:47:50:172613,-1,-71,-32,5,5,3,14,1
20:47:50:178613,12,2,-7,-28,-5,-2,-3,-1
20:47:50:186110,2,0,24,-2,-5,1,15,-1
20:47:50:193614,2,0,24,-2,-5,1,15,-1
20:47:50:201123,-2,10,14,42,8,0,-27,-5
20:47:50:208587,3,18,4,9,-1,0,6,1
20:47:50:216774,3,18,4,9,-1,0,6,1
20:47:50:217583,-2,16,9,9,3,-6,-12,4
20:47:50:231793,5,31,-11,4,0,1,-33,-6
20:47:50:232585,5,31,-11,4,0,1,-33,-6
20:47:50:238595,-1,-6,-2,-6,-10,4,3,-2
20:47:50:246099,2,5,8,4,9,0,-3,-2
20:47:50:253637,2,5,8,4,9,0,-3,-2
20:47:50:261079,-3,20,-3,-2,-3,-4,1,-5
20:47:50:268591,-10,63,16,-1,-8,-1,4,-1
20:47:50:276124,-10,63,16,-1,-8,-1,4,-1
20:47:50:283602,-2,-13,10,18,9,3,16,0
20:47:50:291866,-3,12,6,7,4,0,11,4
20:47:50:292656,-3,12,6,7,4,0,11,4
20:47:50:298599,4,10,18,-7,0,4,7,0
20:47:50:314300,1,-12,-36,-22,-7,-4,29,-2
20:47:50:315091,1,-12,-36,-22,-7,-4,29,-2
20:47:50:321088,-2,1,-3,5,3,1,9,1
20:47:50:328612,13,65,14,4,-1,9,10,-12
20:47:50:336165,13,65,14,4,-1,9,10,-12
20:47:50:343597,-4,-11,1,-5,-5,0,16,1
20:47:50:351830,-8,-17,-14,0,0,-6,-10,1
20:47:50:352616,-8,-17,-14,0,0,-6,-10,1
20:47:50:358626,1,10,6,-5,-3,-1,6,-1
20:47:50:374321,-1,-29,13,-5,0,5,-6,0
20:47:50:375114,-1,-29,13,-5,0,5,-6,0
20:47:50:381075,0,3,2,5,9,0,5,2
20:47:50:388591,1,-19,-34,-1,-2,-1,5,2
20:47:50:396145,1,-19,-34,-1,-2,-1,5,2
20:47:50:403605,3,2,-18,-2,-5,-3,8,-1
20:47:50:411747,1,6,31,2,1,8,16,2
20:47:50:412568,1,6,31,2,1,8,16,2
20:47:50:418625,-4,-14,4,3,1,2,-7,-5
20:47:50:434312,-5,-22,-1,7,0,3,9,0
20:47:50:435105,-5,-22,-1,7,0,3,9,0
20:47:50:441104,5,15,-21,-37,-9,-1,-8,-1
20:47:50:448630,1,-10,18,7,5,-3,5,1
20:47:50:456098,1,-10,18,7,5,-3,5,1
20:47:50:463612,0,12,39,12,-6,-4,-6,-2
20:47:50:471783,-5,-6,3,-10,-4,-7,-11,-2
20:47:50:472594,-5,-6,3,-10,-4,-7,-11,-2
20:47:50:478564,-5,-7,15,6,0,-1,-5,-2
20:47:50:494288,11,18,1,8,7,0,-1,11
20:47:50:495077,11,18,1,8,7,0,-1,11
20:47:50:501102,-6,-23,-105,-31,-4,-8,-21,-6
20:47:50:508628,-4,-1,11,-13,-1,1,-4,-4
20:47:50:516153,-4,-1,11,-13,-1,1,-4,-4
20:47:50:523572,4,15,29,21,4,1,-11,-5
20:47:50:531065,-3,-7,-14,-9,-6,-10,8,5
20:47:50:539301,-3,-7,-14,-9,-6,-10,8,5
20:47:50:540094,1,2,15,12,2,2,11,1
20:47:50:554323,-2,-11,29,5,-6,-3,-13,-5
20:47:50:555092,-2,-11,29,5,-6,-3,-13,-5
20:47:50:561097,0,-1,-9,-3,-1,-2,2,1
20:47:50:568568,1,27,15,7,3,0,-6,-2
20:47:50:576136,1,27,15,7,3,0,-6,-2
20:47:50:583587,-9,-10,9,-10,-9,-4,-3,-2
20:47:50:591127,-1,-18,8,10,2,-1,-6,-1
20:47:50:599309,-1,-18,8,10,2,-1,-6,-1
20:47:50:600107,-7,-24,-24,-16,-4,-2,0,-3
20:47:50:614274,-4,-5,-41,-9,-5,-2,-9,-3
20:47:50:615106,-4,-5,-41,-9,-5,-2,-9,-3
20:47:50:621076,1,7,19,14,2,-2,0,-4
20:47:50:628567,3,6,1,6,4,1,-2,1
20:47:50:636170,3,6,1,6,4,1,-2,1
20:47:50:643575,-4,-2,16,-15,-8,-4,-6,-2
20:47:50:651078,2,14,-7,-1,4,1,0,0
20:47:50:659325,2,14,-7,-1,4,1,0,0
20:47:50:660117,4,8,31,9,1,1,1,0
20:47:50:674294,1,-3,-21,-6,6,10,5,-2
20:47:50:675118,1,-3,-21,-6,6,10,5,-2
20:47:50:681122,11,19,3,5,2,1,-3,2
20:47:50:688570,-7,-15,31,8,3,0,-2,-1
20:47:50:696178,-7,-15,31,8,3,0,-2,-1
20:47:50:703592,-5,-8,-14,8,6,3,7,2
20:47:50:711829,6,-8,-28,-8,-4,-4,-2,-3
20:47:50:712582,6,-8,-28,-8,-4,-4,-2,-3
20:47:50:718621,-3,10,-9,-1,-2,-4,-3,-7
20:47:50:742457,-7,-6,-2,-8,-6,-2,-5,-2
20:47:50:743266,-7,-6,-2,-8,-6,-2,-5,-2
20:47:50:744065,12,1,-10,2,-5,1,6,6
20:47:50:748598,-7,-10,-1,-8,-1,0,-2,-3
20:47:50:756144,-7,-10,-1,-8,-1,0,-2,-3
20:47:50:763646,-26,-10,-6,2,3,-2,-7,0
20:47:50:771123,-13,3,6,-4,-3,5,6,10
20:47:50:779313,-13,3,6,-4,-3,5,6,10
20:47:50:780067,11,-11,-4,-5,-12,-11,-14,-17
20:47:50:802443,22,6,-2,12,8,-1,-2,3
20:47:50:803316,22,6,-2,12,8,-1,-2,3
20:47:50:804101,0,0,-18,-37,-6,0,1,1
20:47:50:808576,6,16,-26,-23,-11,-2,1,1
20:47:50:816149,6,16,-26,-23,-11,-2,1,1
20:47:50:823589,12,4,-5,11,-2,-2,-6,-6
20:47:50:831075,-29,0,15,7,-3,-10,3,-2
20:47:50:839331,-29,0,15,7,-3,-10,3,-2
20:47:50:840119,-2,3,7,3,3,-3,2,5
20:47:50:854022,7,-6,11,5,5,-3,-5,-5
20:47:50:861833,7,-6,11,5,5,-3,-5,-5
20:47:50:862618,3,-5,1,7,1,1,7,5
20:47:50:868589,6,-5,-17,-15,-14,-6,-9,-14
20:47:50:876151,6,-5,-17,-15,-14,-6,-9,-14
20:47:50:883610,-8,0,6,-2,4,5,1,1
20:47:50:891101,-4,-5,-5,-5,-2,-1,4,0
20:47:50:899735,-4,-5,-5,-5,-2,-1,4,0
20:47:50:906101,7,3,2,2,-7,-7,-5,4
20:47:50:914273,-12,-11,4,0,-3,-4,-13,-4
20:47:50:915097,-12,-11,4,0,-3,-4,-13,-4
20:47:50:937465,-14,1,10,6,1,-1,3,4
20:47:50:938269,10,3,6,-1,1,9,9,2
20:47:50:939099,10,3,6,-1,1,9,9,2
20:47:50:943575,-11,-1,11,1,-1,-4,-1,-3
20:47:50:951087,0,-6,-18,-6,-1,0,-4,1
20:47:50:959276,0,-6,-18,-6,-1,0,-4,1
20:47:50:960071,11,-2,-5,-17,2,3,2,-1
20:47:50:974335,-16,-15,-49,-20,-5,-3,-1,-5
20:47:50:975130,-16,-15,-49,-20,-5,-3,-1,-5
20:47:50:981112,0,-5,-8,7,1,-4,-16,3
20:47:50:988567,4,4,16,4,-4,-2,-2,4
20:47:50:996175,4,4,16,4,-4,-2,-2,4
20:47:51:3618,-13,0,1,4,2,4,13,-14
20:47:51:11097,3,1,9,4,-1,-2,-3,-2
20:47:51:19309,3,1,9,4,-1,-2,-3,-2
20:47:51:20063,1,-2,-1,1,-2,-1,-5,4
20:47:51:34250,10,-3,8,1,-1,1,0,-8
20:47:51:35064,10,-3,8,1,-1,1,0,-8
20:47:51:41106,-1,4,-2,1,0,1,6,5
20:47:51:48597,-1,6,10,4,1,-1,-5,1
20:47:51:56149,-1,6,10,4,1,-1,-5,1
20:47:51:63538,0,-2,0,2,1,3,-12,-2
20:47:51:71074,-5,-1,-10,-2,1,-2,-6,-3
20:47:51:79291,-5,-1,-10,-2,1,-2,-6,-3
20:47:51:80086,3,-2,-5,0,1,3,1,0
20:47:51:94274,-2,24,-2,-17,-3,-2,1,-8
20:47:51:95123,-2,24,-2,-17,-3,-2,1,-8
20:47:51:101081,-8,-26,-21,-11,-6,-6,-3,-6
20:47:51:108557,12,-3,6,7,0,-4,7,2
20:47:51:116170,12,-3,6,7,0,-4,7,2
20:47:51:123591,-1,11,9,4,3,5,11,1
20:47:51:131052,-21,-21,-1,0,-2,0,-6,-10
20:47:51:139307,-21,-21,-1,0,-2,0,-6,-10
20:47:51:140093,-2,-4,-2,2,-4,-2,-10,-3
20:47:51:154288,0,4,5,3,1,2,-8,2
20:47:51:155119,0,4,5,3,1,2,-8,2
20:47:51:161090,0,8,0,0,0,0,-4,-1
20:47:51:168628,-5,-6,3,2,0,-2,5,0
20:47:51:176166,-5,-6,3,2,0,-2,5,0
20:47:51:183595,1,-5,-1,-1,-1,-1,0,1
20:47:51:191080,0,-3,-1,1,-1,-1,-3,2
20:47:51:199315,0,-3,-1,1,-1,-1,-3,2
20:47:51:200127,2,4,2,0,1,-2,-2,-2
20:47:51:214328,-3,0,-1,1,-1,2,5,2
20:47:51:215112,-3,0,-1,1,-1,2,5,2
20:47:51:221106,-2,-1,0,-1,-2,-3,-5,-3
20:47:51:236794,2,-2,0,-1,0,-1,-1,1
20:47:51:237593,2,-2,0,-1,0,-1,-1,1
20:47:51:243588,-4,0,-1,-1,-2,-2,-8,-2
20:47:51:251075,1,-5,1,0,-2,0,-3,-1
20:47:51:258665,1,-5,1,0,-2,0,-3,-1
20:47:51:266072,-9,1,1,-1,0,1,6,0
20:47:51:274336,-9,1,0,1,0,-2,-3,-1
20:47:51:275118,-9,1,0,1,0,-2,-3,-1
20:47:51:281081,6,-3,-2,-1,-2,-2,-1,1
20:47:51:296787,-3,-18,-3,-1,-1,-2,4,-1
20:47:51:297629,-3,-18,-3,-1,-1,-2,4,-1
20:47:51:303588,-5,1,1,0,0,3,15,-2
20:47:51:311064,4,-2,-1,-1,-1,-1,-2,0
20:47:51:318654,4,-2,-1,-1,-1,-1,-2,0
20:47:51:326098,5,-2,-2,-1,0,0,0,-1
20:47:51:334285,-6,2,1,-2,-2,-2,-3,0
20:47:51:335072,-6,2,1,-2,-2,-2,-3,0
20:47:51:341115,5,-2,-3,-1,-1,-2,-2,-1
20:47:51:356761,2,3,0,0,-1,-2,-3,-1
20:47:51:357587,2,3,0,0,-1,-2,-3,-1
20:47:51:363603,-3,-3,-2,-1,0,-1,0,-2
20:47:51:371120,-1,-2,-1,0,-1,1,1,0
20:47:51:378608,-1,-2,-1,0,-1,1,1,0
20:47:51:386130,-7,0,1,-2,-2,-1,-2,0
20:47:51:394255,2,2,-2,0,-2,-2,-1,1
20:47:51:395097,2,2,-2,0,-2,-2,-1,1
20:47:51:401048,1,4,1,-1,1,-1,2,0
20:47:51:416786,-1,-4,2,0,-2,-1,0,-3
20:47:51:417575,-1,-4,2,0,-2,-1,0,-3
20:47:51:423577,3,-3,-1,0,0,0,-3,-3
20:47:51:431807,3,3,-1,-1,-1,0,-3,-2
20:47:51:432603,3,3,-1,-1,-1,0,-3,-2
20:47:51:446108,2,2,-2,-2,-2,0,5,0
20:47:51:454260,-2,3,2,1,1,-1,-1,0
20:47:51:455075,-2,3,2,1,1,-1,-1,0
20:47:51:461070,1,-3,1,0,0,0,-1,-1
20:47:51:476822,-2,-2,-1,-2,-1,-1,0,1
20:47:51:477578,-2,-2,-1,-2,-1,-1,0,1
20:47:51:483607,-1,-1,-2,1,1,-1,-4,2
20:47:51:491807,2,1,-2,-1,-1,0,-2,-3
20:47:51:492588,2,1,-2,-1,-1,0,-2,-3
20:47:51:506142,7,0,-2,-1,-3,-2,-1,-1
20:47:51:514276,-2,-4,-2,-2,-2,-2,-3,0
20:47:51:515079,-2,-4,-2,-2,-2,-2,-3,0
20:47:51:521104,0,-3,-1,0,0,-1,-4,-1
20:47:51:536869,-4,0,0,0,-3,-1,-1,-2
20:47:51:537648,-4,0,0,0,-3,-1,-1,-2
20:47:51:543612,0,-3,0,-1,-1,-1,-2,-1
20:47:51:551761,6,1,-1,-2,-2,-1,0,1
20:47:51:552567,6,1,-1,-2,-2,-1,0,1
20:47:51:566089,-11,-3,-2,1,-3,0,-1,-1
20:47:51:574237,-1,-1,0,-2,1,0,-2,-6
20:47:51:575082,-1,-1,0,-2,1,0,-2,-6
20:47:51:581109,4,-1,-4,-3,-3,-2,-3,-3
20:47:51:596782,2,-1,0,-1,-1,0,-2,1
20:47:51:597623,2,-1,0,-1,-1,0,-2,1
20:47:51:603636,-2,-1,-2,1,0,-1,-2,-1
20:47:51:611758,-2,-2,-1,-3,0,-2,-1,1
20:47:51:612582,-2,-2,-1,-3,0,-2,-1,1
20:47:51:626128,7,0,1,-2,-1,1,-2,0
20:47:51:634331,-5,4,1,1,0,0,-1,-1
20:47:51:635151,-5,4,1,1,0,0,-1,-1
20:47:51:641102,-12,-1,2,-2,0,-3,-1,-1
20:47:51:656805,-8,-3,-2,-1,-3,-2,-3,-2
20:47:51:657593,-8,-3,-2,-1,-3,-2,-3,-2
20:47:51:663602,-2,2,-2,0,-2,-2,1,1
