Time,EMG1,EMG2,EMG3,EMG4,EMG5,EMG6,EMG7,EMG8
16:59:46:239539,-1,1,2,1,-2,-3,0,-2
16:59:46:247762,-1,1,2,1,-2,-3,0,-2
16:59:46:248646,0,0,1,-3,-4,-3,0,-2
16:59:46:254657,-1,1,3,0,-2,4,4,-1
16:59:46:270268,-1,1,3,0,-2,4,4,-1
16:59:46:271132,-1,0,1,0,3,0,1,-1
16:59:46:277003,0,-1,-1,-3,-3,-4,-4,-2
16:59:46:292757,0,-1,-1,-3,-3,-4,-4,-2
16:59:46:293623,0,-1,1,-3,-4,-5,-3,0
16:59:46:299624,-1,-2,3,2,-3,-2,-1,-1
16:59:46:307765,-1,-2,3,2,-3,-2,-1,-1
16:59:46:308643,-1,-3,-14,-2,-3,-2,-2,0
16:59:46:314506,0,1,1,0,0,0,-2,-1
16:59:46:330258,0,1,1,0,0,0,-2,-1
16:59:46:331177,-2,1,5,-1,1,-1,-1,-1
16:59:46:337127,0,-1,-1,-2,-2,-1,0,0
16:59:46:345259,0,-1,-1,-2,-2,-1,0,0
16:59:46:346150,-1,-2,1,-1,-1,1,0,-1
16:59:46:368540,0,5,3,0,-1,-2,-4,1
16:59:46:369281,0,5,3,0,-1,-2,-4,1
16:59:46:370167,-1,0,4,0,-1,0,-2,-3
16:59:46:374663,2,6,0,0,1,0,-2,1
16:59:46:390275,2,6,0,0,1,0,-2,1
16:59:46:391159,-2,-9,-3,-1,-1,-5,-1,-2
16:59:46:413395,-3,-2,-3,-2,-1,0,-2,0
16:59:46:414295,-3,-2,-3,-2,-1,0,-2,0
16:59:46:415015,0,4,8,-1,-1,-1,-1,0
16:59:46:419667,-1,-8,-2,-6,-3,-1,-2,-2
16:59:46:427773,-1,-8,-2,-6,-3,-1,-2,-2
16:59:46:428641,-5,-9,-8,-2,0,0,-3,0
16:59:46:434645,-3,0,0,-1,2,0,0,-1
16:59:46:450280,-3,0,0,-1,2,0,0,-1
16:59:46:451141,-2,4,-1,0,-2,2,-1,-1
16:59:46:457033,0,-6,-5,0,-3,-2,-1,0
16:59:46:465271,0,-6,-5,0,-3,-2,-1,0
16:59:46:466141,0,1,1,-3,-6,-2,-3,-2
16:59:46:479635,0,1,2,1,1,1,2,-1
16:59:46:487770,0,1,2,1,1,1,2,-1
16:59:46:488630,2,0,0,1,1,0,1,-1
16:59:46:494520,-1,-1,-1,-1,-2,-3,-2,-2
16:59:46:510269,-1,-1,-1,-1,-2,-3,-2,-2
16:59:46:511137,-2,-1,-1,0,0,0,1,-1
16:59:46:517136,-1,-1,-2,1,-1,-4,-1,0
16:59:46:532909,-1,-1,-2,1,-1,-4,-1,0
16:59:46:533651,-3,-3,1,0,-1,1,2,-1
16:59:46:539636,0,1,2,-1,0,0,-2,-1
16:59:46:547755,0,1,2,-1,0,0,-2,-1
16:59:46:548637,1,1,0,2,1,0,-2,0
16:59:46:562132,-2,-3,-1,-2,-1,0,0,-1
16:59:46:570417,-2,-3,-1,-2,-1,0,0,-1
16:59:46:571139,-3,-4,-6,-3,-2,-2,-3,-3
16:59:46:577140,1,-1,0,1,-1,0,1,0
16:59:46:585288,1,-1,0,1,-1,0,1,0
16:59:46:586137,0,0,1,-2,2,0,-1,0
16:59:46:599651,-1,0,-3,-4,-2,-4,-3,-6
16:59:46:607888,-1,0,-3,-4,-2,-4,-3,-6
16:59:46:608640,-3,1,-1,1,-1,0,-2,-2
16:59:46:614634,0,-1,-1,-2,-2,0,-1,-2
16:59:46:630283,0,-1,-1,-2,-2,0,-1,-2
16:59:46:631136,-2,-1,1,1,-2,-2,-2,-1
16:59:46:646030,-2,-1,0,2,0,0,0,1
16:59:46:646769,-2,-1,0,2,0,0,0,1
16:59:46:647654,-1,-2,0,0,-2,-1,-2,0
16:59:46:659530,-3,-1,-1,-3,-2,-1,-1,-2
16:59:46:667777,-3,-1,-1,-3,-2,-1,-1,-2
16:59:46:668634,0,2,-1,1,-1,-2,0,-1
16:59:46:682143,-2,0,-1,-2,-1,-2,-2,-1
16:59:46:690266,-2,0,-1,-2,-1,-2,-2,-1
16:59:46:691137,0,-1,0,-1,0,0,-1,-1
16:59:46:697011,-1,-2,-1,-1,-2,-2,0,-1
16:59:46:705294,-1,-2,-1,-1,-2,-2,0,-1
16:59:46:706138,-3,0,0,-2,-1,-1,-3,-1
16:59:46:719653,-1,-1,-1,-1,-4,-1,-1,-2
16:59:46:727789,-1,-1,-1,-1,-4,-1,-1,-2
16:59:46:728645,1,-1,0,-1,-1,0,0,-2
16:59:46:734510,0,0,0,-2,2,0,-3,1
16:59:46:750297,0,0,0,-2,2,0,-3,1
16:59:46:751142,1,-1,-3,-2,-1,-1,-1,-1
16:59:46:757066,1,-2,0,-1,-1,0,0,-2
16:59:46:765270,1,-2,0,-1,-1,0,0,-2
16:59:46:766151,2,-1,0,-3,0,-1,2,0
16:59:46:779643,2,0,-2,0,0,-2,-1,1
16:59:46:787789,2,0,-2,0,0,-2,-1,1
16:59:46:788664,0,1,0,3,-2,0,1,2
16:59:46:794547,-1,-1,0,-2,1,0,0,-1
16:59:46:810295,-1,-1,0,-2,1,0,0,-1
16:59:46:811141,-3,-3,2,-2,-2,0,-2,-1
16:59:46:817145,-3,-3,2,0,-3,0,-1,-1
16:59:46:824648,-3,-3,2,0,-3,0,-1,-1
16:59:46:832020,-1,8,11,8,4,0,2,-2
16:59:46:839526,-1,0,-4,-18,-15,-4,-2,0
16:59:46:847801,-1,0,-4,-18,-15,-4,-2,0
16:59:46:848641,-3,-14,-13,0,-3,-3,-1,-4
16:59:46:862181,0,4,13,16,8,-1,0,-1
16:59:46:870270,0,4,13,16,8,-1,0,-1
16:59:46:871154,1,7,5,-1,-3,-1,-3,1
16:59:46:877016,-1,4,-3,4,3,1,-2,0
16:59:46:884637,-1,4,-3,4,3,1,-2,0
16:59:46:892154,2,-4,-7,-3,-3,-3,-3,0
16:59:46:899654,-1,-4,-1,-2,-1,-2,0,0
16:59:46:915264,-1,-4,-1,-2,-1,-2,0,0
16:59:46:916168,-1,-9,-15,0,-6,-3,-6,-1
16:59:46:931029,-3,4,2,1,-3,-2,-2,-1
16:59:46:931759,-3,4,2,1,-3,-2,-2,-1
16:59:46:932513,0,1,18,11,14,1,-4,-2
16:59:46:937025,-2,3,2,-25,-29,-8,-1,-5
16:59:46:944659,-2,3,2,-25,-29,-8,-1,-5
16:59:46:952152,-2,-35,-6,5,46,12,2,0
16:59:46:959531,0,-5,-7,-5,-9,-7,-5,-2
16:59:46:967768,0,-5,-7,-5,-9,-7,-5,-2
16:59:46:968646,4,21,-5,-7,-23,-11,-3,-1
16:59:46:982150,-1,-4,-6,-1,4,3,0,-2
16:59:46:990261,-1,-4,-6,-1,4,3,0,-2
16:59:46:991147,-1,3,7,1,3,1,1,-1
16:59:46:997026,-3,-52,-17,0,4,3,0,-1
16:59:47:4648,-3,-52,-17,0,4,3,0,-1
16:59:47:12141,-3,-16,3,-8,-8,0,-1,-1
16:59:47:19639,0,16,-5,3,9,2,-3,0
16:59:47:27780,0,16,-5,3,9,2,-3,0
16:59:47:28650,-7,13,-1,0,-7,5,8,-6
16:59:47:42031,1,11,5,7,11,-10,-8,1
16:59:47:50265,1,11,5,7,11,-10,-8,1
16:59:47:51163,2,10,-7,-9,-19,-16,1,-6
16:59:47:57135,-6,3,4,3,4,12,-2,-33
16:59:47:64644,-6,3,4,3,4,12,-2,-33
16:59:47:80280,0,-2,2,-4,-10,-10,-29,85
16:59:47:81024,6,10,3,9,18,28,-6,-26
16:59:47:87773,6,10,3,9,18,28,-6,-26
16:59:47:88636,11,12,8,3,4,13,-21,32
16:59:47:102010,-13,-26,-19,-4,-5,-10,-44,-55
16:59:47:110276,-13,-26,-19,-4,-5,-10,-44,-55
16:59:47:111151,-2,6,-1,-2,-4,-6,-13,-96
16:59:47:117036,0,12,-7,-1,2,0,17,-20
16:59:47:132778,0,12,-7,-1,2,0,17,-20
16:59:47:133652,-7,-12,-6,-9,-4,-14,6,11
16:59:47:139548,-4,-5,0,-2,2,12,39,8
16:59:47:147817,-4,-5,0,-2,2,12,39,8
16:59:47:148654,4,9,-1,-4,-8,-19,3,2
16:59:47:162131,1,-1,0,-4,-7,-4,6,24
16:59:47:170271,1,-1,0,-4,-7,-4,6,24
16:59:47:171145,-5,-7,-2,0,-5,3,4,-26
16:59:47:177045,4,-1,6,2,2,-6,10,53
16:59:47:184644,4,-1,6,2,2,-6,10,53
16:59:47:192148,-4,-5,-6,-7,-5,-1,9,-8
16:59:47:199647,0,9,3,-1,-8,-9,-11,0
16:59:47:207795,0,9,3,-1,-8,-9,-11,0
16:59:47:208642,1,-5,-4,3,17,13,6,33
16:59:47:222032,1,0,-1,-8,-9,-17,-9,-1
16:59:47:238433,1,0,-1,-8,-9,-17,-9,-1
16:59:47:239299,-1,-4,-2,6,11,9,8,0
16:59:47:240022,0,-2,1,-3,1,0,8,1
16:59:47:244649,0,-2,1,-3,1,0,8,1
16:59:47:260293,2,10,1,-11,-28,-12,1,-2
16:59:47:261041,-4,-6,-4,29,41,12,-4,-2
16:59:47:267789,-4,-6,-4,29,41,12,-4,-2
16:59:47:268668,1,10,7,-10,-12,2,4,-11
16:59:47:282177,-3,-5,3,21,-26,-14,-7,7
16:59:47:290428,-3,-5,3,21,-26,-14,-7,7
16:59:47:291142,-2,-3,-7,-20,-14,-5,-3,-14
16:59:47:297153,4,4,5,8,8,7,3,6
16:59:47:312896,4,4,5,8,8,7,3,6
16:59:47:313652,2,-3,2,18,1,4,0,-24
16:59:47:319643,2,9,4,2,-9,-17,-16,-4
16:59:47:327783,2,9,4,2,-9,-17,-16,-4
16:59:47:328648,-6,-6,-5,-5,10,1,0,-1
16:59:47:342147,6,4,0,-27,4,10,4,4
16:59:47:350498,6,4,0,-27,4,10,4,4
16:59:47:351130,0,-4,-4,-13,-17,-9,1,-3
16:59:47:357130,-3,7,13,97,49,-7,-3,3
16:59:47:364664,-3,7,13,97,49,-7,-3,3
16:59:47:372156,2,-5,-19,-69,-38,10,1,6
16:59:47:379643,3,0,-1,-40,-28,-6,-3,0
16:59:47:387784,3,0,-1,-40,-28,-6,-3,0
16:59:47:388661,-6,8,10,50,30,0,-2,-4
16:59:47:402160,-2,0,-5,-6,-11,4,2,0
16:59:47:410278,-2,0,-5,-6,-11,4,2,0
16:59:47:411152,-1,0,-8,29,10,4,2,3
16:59:47:417138,-6,-5,-2,-75,-17,-1,-2,1
16:59:47:424664,-6,-5,-2,-75,-17,-1,-2,1
16:59:47:432042,-2,-5,11,-20,-1,-3,-2,-4
16:59:47:439545,0,-2,-31,-12,-4,0,0,0
16:59:47:447767,0,-2,-31,-12,-4,0,0,0
16:59:47:448650,2,8,6,0,11,2,2,3
16:59:47:462152,-2,1,21,-6,-16,-2,0,1
16:59:47:470300,-2,1,21,-6,-16,-2,0,1
16:59:47:471150,1,-1,-9,16,12,-1,0,1
16:59:47:477019,3,7,-10,-12,-4,-1,-3,1
16:59:47:484645,3,7,-10,-12,-4,-1,-3,1
16:59:47:492021,-2,-31,14,13,-1,-1,-2,-4
16:59:47:499649,6,-23,-25,8,1,-4,7,0
16:59:47:507790,6,-23,-25,8,1,-4,7,0
16:59:47:508662,0,0,-2,-2,0,0,-3,16
16:59:47:522026,-11,-1,8,9,5,1,-8,8
16:59:47:530294,-11,-1,8,9,5,1,-8,8
16:59:47:531154,6,5,10,8,2,1,2,2
16:59:47:537046,-10,-3,3,17,0,-2,0,1
16:59:47:544658,-10,-3,3,17,0,-2,0,1
16:59:47:552161,-7,-21,-29,-17,2,2,0,-2
16:59:47:559677,-13,-19,-43,-19,-6,-3,-1,-17
16:59:47:575279,-13,-19,-43,-19,-6,-3,-1,-17
16:59:47:576153,-5,5,7,5,5,1,-1,0
16:59:47:582166,8,2,14,4,2,1,1,-1
16:59:47:590264,8,2,14,4,2,1,1,-1
16:59:47:591150,-2,1,0,-8,-4,-2,-1,2
16:59:47:597150,-2,0,7,2,0,-4,-1,2
16:59:47:621037,-2,0,7,2,0,-4,-1,2
16:59:47:621776,-6,8,11,12,1,-2,-2,-1
16:59:47:622542,2,0,-1,3,-3,0,-9,-6
16:59:47:628166,2,0,-1,3,-3,0,-9,-6
16:59:47:634529,-2,3,-5,7,2,-2,-2,-8
16:59:47:651414,4,11,19,13,5,3,-3,5
16:59:47:652258,4,11,19,13,5,3,-3,5
16:59:47:657770,-3,-3,29,32,-2,-3,-1,-4
16:59:47:658643,4,6,1,-17,-4,-1,3,1
16:59:47:664663,4,6,1,-17,-4,-1,3,1
16:59:47:672038,6,-2,-19,7,5,-2,2,1
16:59:47:688412,-5,-13,18,-35,-18,-4,1,-6
16:59:47:689281,-5,-13,18,-35,-18,-4,1,-6
16:59:47:690024,-1,1,-8,-2,-2,-1,-5,-3
16:59:47:702165,-1,-2,-9,-6,-2,0,1,0
16:59:47:710303,-1,-2,-9,-6,-2,0,1,0
16:59:47:711205,1,6,0,-10,-2,0,0,-4
16:59:47:725308,1,9,-4,8,2,-3,1,-2
16:59:47:726165,1,9,-4,8,2,-3,1,-2
16:59:47:740302,-6,-5,0,-3,0,-1,-1,-3
16:59:47:741049,1,-1,9,13,13,5,2,0
16:59:47:747524,1,-1,9,13,13,5,2,0
16:59:47:754653,-2,1,-8,6,6,-5,-1,-4
16:59:47:762179,2,5,-3,-19,-3,1,0,1
16:59:47:770313,2,5,-3,-19,-3,1,0,1
16:59:47:771177,2,7,-10,-25,-7,1,-2,-4
16:59:47:785303,-5,4,-29,6,-11,-4,-3,-3
16:59:47:786173,-5,4,-29,6,-11,-4,-3,-3
16:59:47:792164,-3,-8,-25,-26,-12,-5,-3,-2
16:59:47:807792,0,1,10,12,10,1,0,0
16:59:47:808658,0,1,10,12,10,1,0,0
16:59:47:814544,1,-1,1,2,6,8,5,2
16:59:47:822200,-3,-14,-3,1,-7,-1,-3,-2
16:59:47:830286,-3,-14,-3,1,-7,-1,-3,-2
16:59:47:831158,1,-8,4,9,-2,-3,-3,-1
16:59:47:853919,0,-7,-4,-33,6,-1,-1,1
16:59:47:854781,0,-7,-4,-33,6,-1,-1,1
16:59:47:855527,-2,2,7,15,19,7,1,-2
16:59:47:859530,0,2,2,11,-12,-4,-2,0
16:59:47:875306,0,2,2,11,-12,-4,-2,0
16:59:47:876157,-4,-5,0,-9,-9,-1,-1,-2
16:59:47:882166,-2,-1,3,8,0,-3,-1,-1
16:59:47:890284,-2,-1,3,8,0,-3,-1,-1
16:59:47:891144,-3,-2,3,6,-4,-3,-2,-2
16:59:47:905285,0,2,-3,-2,-2,1,1,-1
16:59:47:906149,0,2,-3,-2,-2,1,1,-1
16:59:47:912035,-1,-1,-2,-6,1,0,7,0
16:59:47:919669,-2,0,1,7,0,1,1,-2
16:59:47:935308,-2,0,1,7,0,1,1,-2
16:59:47:936172,0,0,1,1,-1,-5,-3,-2
16:59:47:942182,-2,-1,1,4,-6,-5,-3,-2
16:59:47:950296,-2,-1,1,4,-6,-5,-3,-2
16:59:47:951185,-2,-2,0,-6,-8,-1,-3,0
16:59:47:965305,1,1,0,-29,-17,-3,-1,-1
16:59:47:966197,1,1,0,-29,-17,-3,-1,-1
16:59:47:972159,-4,-1,-3,-5,20,1,0,-2
16:59:47:979679,-1,-3,4,-3,4,0,-1,-1
16:59:47:995305,-1,-3,4,-3,4,0,-1,-1
16:59:47:996176,-2,3,-2,-3,-20,-8,-7,-1
16:59:48:2187,4,3,7,18,7,2,16,3
16:59:48:10340,4,3,7,18,7,2,16,3
16:59:48:11198,3,3,-1,0,-9,-4,-19,0
16:59:48:25274,-3,-5,-5,13,16,-1,-14,-3
16:59:48:26161,-3,-5,-5,13,16,-1,-14,-3
16:59:48:32165,11,4,-2,0,4,3,10,2
16:59:48:39658,-8,-9,-4,-3,-7,-4,0,-6
16:59:48:47162,-8,-9,-4,-3,-7,-4,0,-6
16:59:48:54650,1,0,3,-5,-6,-5,-16,3
16:59:48:62140,7,6,-19,6,6,6,1,13
16:59:48:70260,7,6,-19,6,6,6,1,13
16:59:48:71155,6,-7,5,-24,-24,-12,47,-24
16:59:48:85275,-2,-1,8,30,37,3,-38,-4
16:59:48:86131,-2,-1,8,30,37,3,-38,-4
16:59:48:92171,-3,2,-4,5,5,2,-29,8
16:59:48:99641,0,-4,-9,-14,-28,-6,-5,-1
16:59:48:107174,0,-4,-9,-14,-28,-6,-5,-1
16:59:48:114687,-7,-4,-5,-3,3,0,4,-2
16:59:48:122175,2,3,3,7,0,3,-18,-1
16:59:48:130301,2,3,3,7,0,3,-18,-1
16:59:48:131143,-4,7,9,5,11,3,1,1
16:59:48:145277,-4,-1,-1,-1,-17,-9,6,-10
16:59:48:146153,-4,-1,-1,-1,-17,-9,6,-10
16:59:48:152055,1,-1,-22,-1,-2,4,2,3
16:59:48:159517,-1,0,4,-28,-15,-2,2,2
16:59:48:167174,-1,0,4,-28,-15,-2,2,2
16:59:48:174565,-2,0,1,9,3,-2,-2,3
16:59:48:191193,-1,1,-5,9,4,2,13,-2
16:59:48:191804,-1,1,-5,9,4,2,13,-2
16:59:48:192553,-2,-1,0,-21,0,0,-7,0
16:59:48:205298,6,1,-1,-6,5,8,14,6
16:59:48:206172,6,1,-1,-6,5,8,14,6
16:59:48:212174,-3,-2,9,13,1,1,1,-1
16:59:48:219681,-17,-17,-9,-45,-33,-12,0,-8
16:59:48:227215,-17,-17,-9,-45,-33,-12,0,-8
16:59:48:242778,11,2,-6,-9,-5,7,2,3
16:59:48:243520,1,7,3,21,10,1,4,0
16:59:48:250307,1,7,3,21,10,1,4,0
16:59:48:251034,-5,2,9,33,-6,-7,-5,-2
16:59:48:265303,5,0,6,0,6,7,4,1
16:59:48:266151,5,0,6,0,6,7,4,1
16:59:48:272162,-10,7,3,-13,1,-5,-2,-4
16:59:48:279670,4,3,7,22,9,-9,-3,-4
16:59:48:287176,4,3,7,22,9,-9,-3,-4
16:59:48:294662,-15,-52,-3,0,5,8,1,-2
16:59:48:302163,3,8,-16,-9,3,-4,-1,-1
16:59:48:310303,3,8,-16,-9,3,-4,-1,-1
16:59:48:311173,0,10,18,9,-5,-10,-4,-1
16:59:48:325284,14,2,4,13,16,10,4,-5
16:59:48:326155,14,2,4,13,16,10,4,-5
16:59:48:332157,-2,1,-12,34,23,3,6,4
16:59:48:339688,-5,9,31,4,2,-7,-6,-30
16:59:48:347151,-5,9,31,4,2,-7,-6,-30
16:59:48:354524,18,9,1,-2,-8,0,2,5
16:59:48:362029,-25,-32,-24,-18,16,4,0,11
16:59:48:370283,-25,-32,-24,-18,16,4,0,11
16:59:48:371169,-1,-6,16,-18,-12,-4,0,-4
16:59:48:385271,7,7,9,6,-8,1,5,6
16:59:48:386153,7,7,9,6,-8,1,5,6
16:59:48:400323,5,10,-48,-31,-22,1,-3,5
16:59:48:401031,-15,37,50,-16,-5,4,4,-2
16:59:48:407163,-15,37,50,-16,-5,4,4,-2
16:59:48:414684,-42,6,32,35,11,-7,-8,-6
16:59:48:422154,5,-17,17,-8,-6,-5,-2,3
16:59:48:430279,5,-17,17,-8,-6,-5,-2,3
16:59:48:431150,13,28,9,8,23,7,-1,-2
16:59:48:445303,-4,-22,-27,11,-2,0,0,4
16:59:48:446183,-4,-22,-27,11,-2,0,0,4
16:59:48:452044,3,-15,-10,5,0,1,7,-5
16:59:48:467785,0,-13,-6,1,-8,-1,-3,3
16:59:48:468541,0,-13,-6,1,-8,-1,-3,3
16:59:48:474658,3,-7,-4,-18,3,2,-5,1
16:59:48:482169,1,13,-4,-42,-22,2,4,3
16:59:48:490292,1,13,-4,-42,-22,2,4,3
16:59:48:491022,-17,-17,-14,-19,-4,0,-2,-1
16:59:48:505301,-39,23,7,27,11,-3,-4,-5
16:59:48:506154,-39,23,7,27,11,-3,-4,-5
16:59:48:512158,15,12,17,-19,-7,3,-1,3
16:59:48:519643,10,9,-24,35,6,-4,-4,-2
16:59:48:527161,10,9,-24,35,6,-4,-4,-2
16:59:48:534650,18,41,7,6,-5,3,2,0
16:59:48:542151,-66,-3,-14,26,-7,-7,-6,-5
16:59:48:551023,-66,-3,-14,26,-7,-7,-6,-5
16:59:48:551770,-10,-57,-7,37,2,-2,-3,-4
16:59:48:565272,55,-63,-13,-58,-21,11,8,9
16:59:48:566157,55,-63,-13,-58,-21,11,8,9
16:59:48:572023,-11,-30,-8,-3,-5,-12,-11,-11
16:59:48:579666,10,65,21,20,9,-3,0,-11
16:59:48:587156,10,65,21,20,9,-3,0,-11
16:59:48:594571,14,-19,-9,-16,-9,-5,-6,-18
16:59:48:602026,22,-51,6,-11,-1,-5,5,-1
16:59:48:610295,22,-51,6,-11,-1,-5,5,-1
16:59:48:611166,1,52,11,44,25,5,1,6
16:59:48:625293,1,44,-80,-26,-9,-2,-6,-1
16:59:48:626162,1,44,-80,-26,-9,-2,-6,-1
16:59:48:632038,-4,-15,23,-15,-17,-8,-3,-2
16:59:48:639560,9,7,31,-3,7,4,3,6
16:59:48:647177,9,7,31,-3,7,4,3,6
16:59:48:654564,32,60,3,-17,6,12,6,12
16:59:48:662046,-13,-42,45,18,-13,-12,-9,-1
16:59:48:677791,-13,-42,45,18,-13,-12,-9,-1
16:59:48:678684,18,78,2,-12,-9,3,3,3
16:59:48:685296,-30,-67,27,-1,0,-4,-4,-8
16:59:48:686150,-30,-67,27,-1,0,-4,-4,-8
16:59:48:700292,-1,-32,2,2,1,-3,-1,2
16:59:48:701030,30,77,13,19,0,-1,0,5
16:59:48:707153,30,77,13,19,0,-1,0,5
16:59:48:714543,-12,16,26,13,7,-3,1,-3
16:59:48:722056,7,34,-50,-6,2,0,-1,-2
16:59:48:729668,7,34,-50,-6,2,0,-1,-2
16:59:48:737161,-25,-69,-63,-37,-15,0,-1,-5
16:59:48:745361,0,-16,0,9,18,6,3,5
16:59:48:746153,0,-16,0,9,18,6,3,5
16:59:48:752148,17,-47,7,32,32,4,2,4
16:59:48:767800,-57,-21,15,-80,-20,9,0,-7
16:59:48:768668,-57,-21,15,-80,-20,9,0,-7
16:59:48:774542,-3,1,12,-2,-8,9,6,4
16:59:48:782060,10,-8,-23,32,3,-6,-1,2
16:59:48:797802,10,-8,-23,32,3,-6,-1,2
16:59:48:798664,-15,-10,31,-35,-16,-15,-9,-6
16:59:48:805295,8,12,10,12,1,3,0,-1
16:59:48:806148,8,12,10,12,1,3,0,-1
16:59:48:812065,10,8,-5,20,6,0,0,11
16:59:48:827783,-9,-7,-4,-10,7,-5,-6,-8
16:59:48:828652,-9,-7,-4,-10,7,-5,-6,-8
16:59:48:834531,7,41,0,59,15,-3,-3,-1
16:59:48:842028,12,-27,-22,3,-14,-7,-4,-2
16:59:48:849678,12,-27,-22,3,-14,-7,-4,-2
16:59:48:857037,-11,48,12,35,7,0,1,4
16:59:48:865283,-23,4,-14,10,-6,-11,-9,-8
16:59:48:866153,-23,4,-14,10,-6,-11,-9,-8
16:59:48:872197,-7,-24,-14,5,-3,-11,-10,-9
16:59:48:887794,14,-28,14,-18,-5,3,3,0
16:59:48:888684,14,-28,14,-18,-5,3,3,0
16:59:48:894540,1,1,-5,18,6,3,1,-4
16:59:48:902038,18,-10,-14,26,4,-1,2,5
16:59:48:909686,18,-10,-14,26,4,-1,2,5
16:59:48:917181,2,1,-4,-15,-8,3,2,3
16:59:48:925291,18,-24,34,10,9,8,3,6
16:59:48:926034,18,-24,34,10,9,8,3,6
16:59:48:932163,8,57,39,-54,-31,-8,-3,-6
16:59:48:956065,14,55,-21,26,13,5,10,14
16:59:48:956814,14,55,-21,26,13,5,10,14
16:59:48:957561,-15,-62,37,-7,-16,-5,0,22
16:59:48:962031,5,2,-7,-32,2,1,21,-29
16:59:48:969686,5,2,-7,-32,2,1,21,-29
16:59:48:977058,46,-8,-15,15,15,10,6,-6
16:59:48:985652,-12,-39,-7,46,8,-4,-12,-15
16:59:48:992783,-12,-39,-7,46,8,-4,-12,-15
16:59:48:993663,-34,-66,-30,-27,-26,7,3,0
16:59:49:7822,-6,-21,-16,-3,-9,-6,-11,-21
16:59:49:8694,-6,-21,-16,-3,-9,-6,-11,-21
16:59:49:14674,3,7,-22,-11,2,-1,-4,-9
16:59:49:22051,-11,-2,28,-18,2,-5,0,14
16:59:49:29674,-11,-2,28,-18,2,-5,0,14
16:59:49:37150,-21,-44,-46,-38,-12,-12,-13,-3
16:59:49:45294,38,-14,-11,0,-10,-9,-17,-39
16:59:49:46036,38,-14,-11,0,-10,-9,-17,-39
16:59:49:52157,-22,-74,-43,-24,3,-1,-2,-3
16:59:49:76054,-23,-13,42,-8,-2,1,-2,18
16:59:49:76801,-23,-13,42,-8,-2,1,-2,18
16:59:49:77531,13,95,11,11,23,16,13,12
16:59:49:82071,-11,-11,-26,-53,-44,-5,-4,10
16:59:49:89668,-11,-11,-26,-53,-44,-5,-4,10
16:59:49:97185,-17,-47,12,-26,-25,-17,-4,-6
16:59:49:105296,-5,14,5,15,21,9,5,10
16:59:49:106179,-5,14,5,15,21,9,5,10
16:59:49:112161,4,35,17,15,8,2,-3,-11
16:59:49:127845,3,8,-21,12,0,0,3,12
16:59:49:128679,3,8,-21,12,0,0,3,12
16:59:49:134659,-3,-24,-3,41,14,-3,-8,1
16:59:49:142105,0,-69,15,-9,0,1,-1,7
16:59:49:149668,0,-69,15,-9,0,1,-1,7
16:59:49:157159,0,-44,-5,-34,0,4,-1,3
16:59:49:165286,-4,9,-7,-23,2,-7,-4,-55
16:59:49:166035,-4,9,-7,-23,2,-7,-4,-55
16:59:49:179559,-4,-39,-56,18,-5,-6,-1,-2
16:59:49:196036,-40,-53,-23,-26,-3,-8,-4,3
16:59:49:196790,-40,-53,-23,-26,-3,-8,-4,3
16:59:49:197519,2,-29,-14,-69,-48,-1,1,-5
16:59:49:202044,-2,1,-5,-14,-5,3,0,21
16:59:49:217824,-2,1,-5,-14,-5,3,0,21
16:59:49:218673,10,25,-6,18,16,-1,0,-2
16:59:49:233428,-12,40,14,25,3,0,0,-2
16:59:49:234289,-12,40,14,25,3,0,0,-2
16:59:49:235027,-2,-4,-14,-8,3,-2,-1,-14
16:59:49:247811,5,0,-22,12,14,-1,-6,-24
16:59:49:248533,5,0,-22,12,14,-1,-6,-24
16:59:49:254672,-6,9,42,1,-1,-2,-3,-3
16:59:49:262175,24,37,26,9,-2,-3,3,23
16:59:49:269688,24,37,26,9,-2,-3,3,23
16:59:49:277162,5,8,-47,-19,-16,-12,-3,-1
16:59:49:285301,3,-58,-4,1,2,4,1,7
16:59:49:286207,3,-58,-4,1,2,4,1,7
16:59:49:292039,-13,-29,-1,17,12,-6,-18,14
16:59:49:307781,27,89,6,25,7,-1,-7,7
16:59:49:308665,27,89,6,25,7,-1,-7,7
16:59:49:314562,-28,13,11,8,2,1,-5,-18
16:59:49:322156,8,-4,13,-7,-9,-3,1,-29
16:59:49:337840,8,-4,13,-7,-9,-3,1,-29
16:59:49:338696,12,10,21,9,8,-1,-6,2
16:59:49:345796,-5,-21,-50,11,5,-2,1,3
16:59:49:352840,-5,-21,-50,11,5,-2,1,3
16:59:49:353665,13,41,17,11,15,2,0,-7
16:59:49:367802,-5,36,27,-8,-1,-1,1,26
16:59:49:368535,-5,36,27,-8,-1,-1,1,26
16:59:49:374692,12,-12,6,3,-8,5,12,2
16:59:49:390315,1,39,5,-10,-5,-2,-2,2
16:59:49:391102,1,39,5,-10,-5,-2,-2,2
16:59:49:397198,13,27,8,16,17,5,6,2
16:59:49:405304,-7,-57,-34,-4,0,-6,-4,15
16:59:49:406063,-7,-57,-34,-4,0,-6,-4,15
16:59:49:419688,-2,-74,-75,-5,-4,-6,-2,-6
16:59:49:427811,-12,-24,12,-27,-14,-1,1,-1
16:59:49:428564,-12,-24,12,-27,-14,-1,1,-1
16:59:49:434693,2,-1,13,0,-9,0,3,4
16:59:49:442189,-43,-1,39,22,7,0,0,-21
16:59:49:449698,-43,-1,39,22,7,0,0,-21
16:59:49:457219,-15,9,35,5,4,1,-5,-5
16:59:49:465364,16,-13,-5,-21,-4,-2,-2,12
16:59:49:466169,16,-13,-5,-21,-4,-2,-2,12
16:59:49:472063,-10,-24,-6,-19,-2,1,1,5
16:59:49:487814,22,49,-9,16,0,1,-6,14
16:59:49:488563,22,49,-9,16,0,1,-6,14
16:59:49:494686,3,66,4,13,2,0,4,3
16:59:49:510340,3,66,4,13,2,0,4,3
16:59:49:511192,0,-106,-81,5,1,-5,-5,-11
16:59:49:517213,11,-6,40,4,-17,-4,-1,-2
16:59:49:524706,11,-6,40,4,-17,-4,-1,-2
16:59:49:532836,-41,-16,22,-46,-15,-8,-4,4
16:59:49:533564,-14,-63,19,2,2,-7,-4,-12
16:59:49:547813,-14,-63,19,2,2,-7,-4,-12
16:59:49:548526,9,-29,11,13,-2,1,1,-14
16:59:49:554707,1,85,14,-8,12,0,3,-4
16:59:49:570310,1,85,14,-8,12,0,3,-4
16:59:49:571165,-9,-35,25,-8,4,1,1,-29
16:59:49:577168,-10,-58,-59,-8,1,2,3,19
16:59:49:585361,-10,-58,-59,-8,1,2,3,19
16:59:49:586070,37,47,24,11,5,6,11,23
16:59:49:592227,-2,-1,8,5,4,1,-1,-6
16:59:49:607804,-2,-1,8,5,4,1,-1,-6
16:59:49:608674,-2,-3,-42,16,-1,-4,-2,-1
16:59:49:614668,8,42,9,1,-6,1,2,7
16:59:49:630298,8,42,9,1,-6,1,2,7
16:59:49:631182,5,24,19,21,16,-4,-4,10
16:59:49:637042,-13,-54,7,-32,5,1,-1,-7
16:59:49:645300,-13,-54,7,-32,5,1,-1,-7
16:59:49:646184,-5,2,41,-2,-8,-1,0,18
16:59:49:652174,-1,-2,15,7,1,-2,-1,0
16:59:49:667807,-1,-2,15,7,1,-2,-1,0
16:59:49:668666,-19,-37,-7,-66,-43,-3,4,8
16:59:49:674539,2,6,-62,11,1,-4,-2,14
16:59:49:690329,2,6,-62,11,1,-4,-2,14
16:59:49:691173,0,110,17,41,23,8,-1,-15
16:59:49:697051,9,-30,-3,5,-7,-1,2,4
16:59:49:705308,9,-30,-3,5,-7,-1,2,4
16:59:49:706177,-22,-2,-7,20,16,1,-1,6
16:59:49:719555,-24,-11,8,-1,-6,2,2,-11
16:59:49:727799,-24,-11,8,-1,-6,2,2,-11
16:59:49:728668,15,25,6,11,4,-1,1,4
16:59:49:734538,-1,6,15,4,-9,-8,-11,-13
16:59:49:750307,-1,6,15,4,-9,-8,-11,-13
16:59:49:751163,5,31,-18,-62,-34,-2,3,5
16:59:49:757052,-13,-87,9,6,-14,-10,-7,-17
16:59:49:765294,-13,-87,9,6,-14,-10,-7,-17
16:59:49:766178,-8,-72,-12,12,7,0,-4,-30
16:59:49:788432,-27,-54,-29,-24,-6,0,1,5
16:59:49:789294,-27,-54,-29,-24,-6,0,1,5
16:59:49:790091,-6,34,-16,24,21,2,-2,2
16:59:49:794695,13,94,-12,-14,-9,0,4,8
16:59:49:817541,13,94,-12,-14,-9,0,4,8
16:59:49:826692,16,-59,-17,-1,3,5,3,8
16:59:49:827410,6,-23,-32,-3,1,-3,-5,-4
16:59:49:828326,6,-23,-32,-3,1,-3,-5,-4
16:59:49:829044,10,5,21,22,9,2,0,-3
16:59:49:839563,-33,-20,46,-7,-12,-8,-12,-67
16:59:49:847795,-33,-20,46,-7,-12,-8,-12,-67
16:59:49:848660,4,-28,-17,-2,-5,-6,-2,9
16:59:49:854551,23,56,34,12,5,1,-3,19
16:59:49:870292,23,56,34,12,5,1,-3,19
16:59:49:871174,7,39,-2,7,4,3,4,-3
16:59:49:877077,11,-30,-24,11,19,8,6,0
16:59:49:885321,11,-30,-24,11,19,8,6,0
16:59:49:886164,-18,-25,-42,-12,-1,-4,-5,-36
16:59:49:899614,30,38,36,6,-3,-6,-7,-35
16:59:49:907829,30,38,36,6,-3,-6,-7,-35
16:59:49:908684,22,-19,-15,6,3,0,0,10
16:59:49:914580,7,-4,25,-8,-3,-2,-1,23
16:59:49:930313,7,-4,25,-8,-3,-2,-1,23
16:59:49:931170,-16,-20,34,16,2,-7,-7,-3
16:59:49:937049,11,-13,-3,11,10,-2,-1,18
16:59:49:945292,11,-13,-3,11,10,-2,-1,18
16:59:49:946184,-3,73,5,-18,-17,-3,0,15
16:59:49:959662,0,16,-8,-11,-6,-3,-2,6
16:59:49:967805,0,16,-8,-11,-6,-3,-2,6
16:59:49:968697,-3,-71,-24,1,6,2,-4,3
16:59:49:974548,-1,-12,12,32,20,1,2,-7
16:59:49:990289,-1,-12,12,32,20,1,2,-7
16:59:49:991035,12,84,45,27,4,4,2,14
16:59:49:997031,-1,7,-7,-9,5,7,3,3
16:59:50:5296,-1,7,-7,-9,5,7,3,3
16:59:50:6156,11,-112,-39,-14,-13,-4,-4,0
16:59:50:19663,5,18,4,11,0,-3,-3,1
16:59:50:27811,5,18,4,11,0,-3,-3,1
16:59:50:28678,-15,-21,24,-9,-9,-3,1,-41
16:59:50:34563,-8,-44,-16,-12,-9,0,-1,31
16:59:50:50310,-8,-44,-16,-12,-9,0,-1,31
16:59:50:51100,-4,16,-10,-6,-2,0,-2,-5
16:59:50:57184,-9,-51,-19,29,21,4,2,-25
16:59:50:65316,-9,-51,-19,29,21,4,2,-25
16:59:50:66098,-11,-63,-9,16,7,-4,-3,1
16:59:50:79580,3,-24,-38,-18,-3,2,-1,21
16:59:50:87806,3,-24,-38,-18,-3,2,-1,21
16:59:50:88545,-13,13,15,-13,-7,-7,-7,-23
16:59:50:94697,-7,-5,-4,-16,-10,-3,-2,5
16:59:50:110313,-7,-5,-4,-16,-10,-3,-2,5
16:59:50:111185,7,15,-25,-28,-11,-5,-5,19
16:59:50:117180,-17,1,15,7,5,0,-1,-10
16:59:50:125291,-17,1,15,7,5,0,-1,-10
16:59:50:126089,3,30,16,-48,-21,-3,2,29
16:59:50:139545,-2,-3,-12,-8,-2,0,3,6
16:59:50:147833,-2,-3,-12,-8,-2,0,3,6
16:59:50:148542,-22,-51,1,31,13,4,1,-25
16:59:50:154690,-6,-13,4,-20,-18,-7,-4,-15
16:59:50:170336,-6,-13,4,-20,-18,-7,-4,-15
16:59:50:171172,-2,-17,-6,-3,1,-1,-1,-1
16:59:50:177074,-6,1,9,-10,-17,-4,-1,-9
16:59:50:185341,-6,1,9,-10,-17,-4,-1,-9
16:59:50:186087,11,29,9,-5,-1,0,0,6
16:59:50:199563,-3,87,-4,0,0,1,0,-1
16:59:50:207817,-3,87,-4,0,0,1,0,-1
16:59:50:208695,30,-38,4,0,-5,-5,1,-4
16:59:50:222044,5,13,9,-2,-5,-1,-4,-7
16:59:50:230325,5,13,9,-2,-5,-1,-4,-7
16:59:50:231194,3,15,-39,9,10,3,3,-5
16:59:50:246052,-22,-29,-14,-9,-1,0,1,3
16:59:50:246788,-22,-29,-14,-9,-1,0,1,3
16:59:50:247551,22,28,7,16,9,3,2,3
16:59:50:259704,10,85,13,-3,-1,5,5,2
16:59:50:267817,10,85,13,-3,-1,5,5,2
16:59:50:268681,-15,-78,-5,-21,-4,1,0,5
16:59:50:291076,14,-4,-3,3,-2,6,5,9
16:59:50:291811,14,-4,-3,3,-2,6,5,9
16:59:50:292697,-1,75,5,15,4,0,-5,-1
16:59:50:297080,-27,19,-30,-15,-9,-8,-6,-9
16:59:50:305316,-27,19,-30,-15,-9,-8,-6,-9
16:59:50:306062,7,2,-1,8,1,-1,-3,-1
16:59:50:319550,13,-5,19,14,5,0,-3,14
16:59:50:327815,13,-5,19,14,5,0,-3,14
16:59:50:328662,-16,71,9,-17,-13,-7,-3,-4
16:59:50:334692,4,-72,-8,-6,-7,-6,-4,-4
16:59:50:350333,4,-72,-8,-6,-7,-6,-4,-4
16:59:50:351186,7,-55,11,9,0,-1,-3,6
16:59:50:357064,19,-20,-19,-8,-6,-6,-6,-26
16:59:50:365297,19,-20,-19,-8,-6,-6,-6,-26
16:59:50:366206,-6,13,29,13,5,6,2,7
16:59:50:380055,-8,-25,14,11,4,-3,-3,-4
16:59:50:387825,-8,-25,14,11,4,-3,-3,-4
16:59:50:388670,-12,-100,-26,-78,-33,-1,0,-9
16:59:50:402075,17,19,21,22,9,1,3,6
16:59:50:418435,17,19,21,22,9,1,3,6
16:59:50:419332,-4,30,-14,25,12,-1,-2,-1
16:59:50:420047,-20,-40,-30,-32,-9,-3,-4,1
16:59:50:425327,-20,-40,-30,-32,-9,-3,-4,1
16:59:50:426195,1,-47,-9,-1,-5,0,0,2
16:59:50:440078,7,-3,10,14,11,3,0,-7
16:59:50:447814,7,-3,10,14,11,3,0,-7
16:59:50:448544,-5,74,5,3,5,3,6,4
16:59:50:454687,-4,-61,-60,-21,-3,4,3,-1
16:59:50:470365,-4,-61,-60,-21,-3,4,3,-1
16:59:50:471095,-10,-23,15,12,2,-5,-5,-20
16:59:50:477252,-11,-56,0,-4,1,-1,-1,10
16:59:50:485363,-11,-56,0,-4,1,-1,-1,10
16:59:50:486045,15,40,-4,13,7,4,3,4
16:59:50:499671,-5,31,54,-20,-10,-4,-2,-2
16:59:50:507797,-5,31,54,-20,-10,-4,-2,-2
16:59:50:508587,-5,37,10,-25,-11,-4,-2,1
16:59:50:522055,2,61,17,13,8,6,3,5
16:59:50:538446,2,61,17,13,8,6,3,5
16:59:50:539320,-33,-21,-4,21,6,-6,-4,10
16:59:50:540072,14,-71,-4,5,-1,-4,-2,-10
16:59:50:545329,14,-71,-4,5,-1,-4,-2,-10
16:59:50:546192,28,-38,-31,-5,-2,-4,-3,-5
16:59:50:559574,35,104,46,17,3,4,6,14
16:59:50:567824,35,104,46,17,3,4,6,14
16:59:50:568707,-15,4,6,-6,1,0,-2,-13
16:59:50:574541,25,70,14,31,14,3,1,2
16:59:50:590300,25,70,14,31,14,3,1,2
16:59:50:591171,-13,-17,8,-17,0,0,-4,17
16:59:50:597054,-30,-57,15,-5,-4,-2,-3,-1
16:59:50:605336,-30,-57,15,-5,-4,-2,-3,-1
16:59:50:606183,0,46,7,25,10,4,4,-16
16:59:50:619569,-9,-7,-24,-13,-9,-7,-4,-12
16:59:50:628190,-9,-7,-24,-13,-9,-7,-4,-12
16:59:50:634603,13,-28,-2,3,-5,-5,-3,11
16:59:50:642057,-15,-61,-7,4,-1,-1,0,-2
16:59:50:658422,-15,-61,-7,4,-1,-1,0,-2
16:59:50:659297,-2,14,-21,1,5,3,4,-1
16:59:50:660069,-4,-56,-36,-11,-6,-3,-3,-17
16:59:50:664698,-4,-56,-36,-11,-6,-3,-3,-17
16:59:50:672066,-23,-61,1,1,-1,-1,6,13
16:59:50:679567,-4,44,19,-23,-13,-2,0,-17
16:59:50:695306,-4,44,19,-23,-13,-2,0,-17
16:59:50:696058,10,-59,-19,-10,-8,-2,0,7
16:59:50:702056,9,-9,-44,4,-2,-3,-4,22
16:59:50:710330,9,-9,-44,4,-2,-3,-4,22
16:59:50:711189,0,-38,-26,-10,-1,-1,-5,0
16:59:50:717060,3,-7,-3,10,8,2,-1,1
16:59:50:724701,3,-7,-3,10,8,2,-1,1
16:59:50:732062,1,-19,15,-3,-8,0,-2,-19
16:59:50:739591,-1,61,30,8,2,0,3,1
16:59:50:748199,-1,61,30,8,2,0,3,1
16:59:50:754710,-13,-57,17,-12,-5,-2,-4,-10
16:59:50:762072,-5,-16,-37,-11,-7,-3,-4,5
16:59:50:778483,-5,-16,-37,-11,-7,-3,-4,5
16:59:50:779323,10,-33,3,-32,-17,-3,-6,-28
16:59:50:780071,2,53,-1,-38,-16,-2,1,1
16:59:50:784698,2,53,-1,-38,-16,-2,1,1
16:59:50:792192,8,57,3,18,8,-1,-1,-13
16:59:50:799568,-27,-68,-7,6,3,0,-5,-6
16:59:50:815313,-27,-68,-7,6,3,0,-5,-6
16:59:50:816174,16,66,37,18,7,2,1,17
16:59:50:822063,0,-12,2,-8,-9,-7,-19,-17
16:59:50:830317,0,-12,2,-8,-9,-7,-19,-17
16:59:50:831093,-10,1,-10,8,3,-1,0,2
16:59:50:837182,4,-13,11,15,9,2,7,24
16:59:50:852811,4,-13,11,15,9,2,7,24
16:59:50:853673,3,-23,-9,-9,-2,-1,-4,-8
16:59:50:859575,0,-15,-3,36,18,2,4,4
16:59:50:867814,0,-15,-3,36,18,2,4,4
16:59:50:868554,3,-30,-11,-18,-14,-4,1,11
16:59:50:882063,-12,-67,-1,-3,0,-1,-1,-5
16:59:50:890058,-12,-67,-1,-3,0,-1,-1,-5
16:59:50:897816,-1,32,-17,4,-2,-1,-2,8
16:59:50:898555,3,78,21,-6,-1,1,2,0
16:59:50:912815,3,78,21,-6,-1,1,2,0
16:59:50:913682,-1,0,-4,28,16,5,2,-9
16:59:50:919551,-9,-54,-21,15,4,0,1,-1
16:59:50:935309,-9,-54,-21,15,4,0,1,-1
16:59:50:936194,-5,14,-25,-17,-3,-2,-4,-1
16:59:50:942058,-4,-29,-9,-13,-9,-4,-3,9
16:59:50:950319,-4,-29,-9,-13,-9,-4,-3,9
16:59:50:951188,13,91,25,15,6,0,-7,-12
16:59:50:957058,25,14,5,2,0,1,1,-10
16:59:50:972813,25,14,5,2,0,1,1,-10
16:59:50:973676,-19,38,39,-2,0,0,1,13
16:59:50:979559,1,29,-17,21,5,-1,1,-3
16:59:50:987809,1,29,-17,21,5,-1,1,-3
16:59:50:988689,4,14,8,-21,-13,1,1,-11
16:59:51:2569,1,-4,17,-2,-2,0,2,7
16:59:51:10325,1,-4,17,-2,-2,0,2,7
16:59:51:11185,-3,-9,11,1,4,-2,-1,19
16:59:51:17052,-1,15,-8,-13,-5,1,0,2
16:59:51:24705,-1,15,-8,-13,-5,1,0,2
16:59:51:32065,-20,-101,-37,-14,-3,1,-2,0
16:59:51:39562,3,41,41,16,10,3,1,-2
16:59:51:55317,3,41,41,16,10,3,1,-2
16:59:51:56178,10,-102,-6,9,4,-2,-1,0
16:59:51:62060,-8,-38,-10,-30,-16,-2,-2,-6
16:59:51:70330,-8,-38,-10,-30,-16,-2,-2,-6
16:59:51:71184,19,57,-17,-18,-4,-1,0,3
16:59:51:77066,18,80,27,17,11,1,-2,14
16:59:51:92827,18,80,27,17,11,1,-2,14
16:59:51:93664,-2,26,7,-6,-14,-5,1,7
16:59:51:99558,-1,9,-3,-3,-1,-4,-4,-33
16:59:51:107818,-1,9,-3,-3,-1,-4,-4,-33
16:59:51:108725,-19,7,11,22,8,-3,-12,4
16:59:51:122089,-11,-36,-6,-8,-8,-4,-3,16
16:59:51:130331,-11,-36,-6,-8,-8,-4,-3,16
16:59:51:131199,-3,-19,-5,16,0,-1,5,-10
16:59:51:137083,-7,-42,-25,3,3,1,-2,-1
16:59:51:144721,-7,-42,-25,3,3,1,-2,-1
16:59:51:152069,-10,8,1,2,6,-1,1,8
16:59:51:159578,7,30,10,1,-3,1,3,-5
16:59:51:167825,7,30,10,1,-3,1,3,-5
16:59:51:168708,5,-62,-16,20,7,-2,-5,-15
16:59:51:182081,6,-28,-14,-13,-4,-2,-3,3
16:59:51:190331,6,-28,-14,-13,-4,-2,-3,3
16:59:51:191207,9,52,8,11,9,2,2,6
16:59:51:197082,-7,-80,-26,-13,-8,-5,-1,-13
16:59:51:212831,-7,-80,-26,-13,-8,-5,-1,-13
16:59:51:213705,1,32,9,-35,-14,-3,-2,-1
16:59:51:228455,10,95,28,-2,1,0,2,8
16:59:51:229329,10,95,28,-2,1,0,2,8
16:59:51:230080,3,-17,-9,-9,-10,-1,3,-7
16:59:51:242208,-16,-19,-24,-31,-24,-3,-1,-7
16:59:51:250326,-16,-19,-24,-31,-24,-3,-1,-7
16:59:51:251085,3,14,3,12,8,2,2,4
16:59:51:257098,-20,-38,-1,22,6,-1,-2,4
16:59:51:264708,-20,-38,-1,22,6,-1,-2,4
16:59:51:272087,7,0,-2,1,-4,0,-1,16
16:59:51:279590,-2,-27,0,0,4,1,0,-16
16:59:51:287850,-2,-27,0,0,4,1,0,-16
16:59:51:288712,3,-19,-2,12,8,1,1,-8
16:59:51:302083,-18,-19,4,-39,-24,0,-2,-3
16:59:51:310313,-18,-19,4,-39,-24,0,-2,-3
16:59:51:311088,-19,-84,-5,12,2,-2,-3,-16
16:59:51:317085,1,-49,9,6,8,0,-3,15
16:59:51:324698,1,-49,9,6,8,0,-3,15
16:59:51:332070,-1,-14,-8,-4,1,-2,5,9
16:59:51:339582,16,33,10,13,10,-2,2,6
16:59:51:347814,16,33,10,13,10,-2,2,6
16:59:51:348669,6,74,10,-17,-13,-5,2,-5
16:59:51:370938,-15,28,-14,-43,-31,-7,-4,-7
16:59:51:371804,-15,28,-14,-43,-31,-7,-4,-7
16:59:51:372557,-1,-46,3,2,-1,-1,-5,-9
16:59:51:377063,4,9,-9,6,4,-4,-3,-7
16:59:51:384713,4,9,-9,6,4,-4,-3,-7
16:59:51:392053,-13,-41,-2,-4,-7,0,-2,0
16:59:51:399554,-2,3,10,5,1,-1,2,7
16:59:51:407799,-2,3,10,5,1,-1,2,7
16:59:51:408668,-4,33,8,-13,-4,0,-1,5
16:59:51:422047,13,47,0,9,10,3,1,1
16:59:51:430330,13,47,0,9,10,3,1,1
16:59:51:431070,16,0,9,4,1,-4,-12,13
16:59:51:437056,6,-26,-10,-4,-3,1,1,4
16:59:51:452797,6,-26,-10,-4,-3,1,1,4
16:59:51:453544,0,-30,-4,-37,-22,1,3,-18
16:59:51:459571,-2,-19,-3,13,6,0,-4,-5
16:59:51:467838,-2,-19,-3,13,6,0,-4,-5
16:59:51:468689,-22,-4,21,31,9,1,3,-5
16:59:51:490941,2,-37,-5,-5,-3,-3,-4,-9
16:59:51:491824,2,-37,-5,-5,-3,-3,-4,-9
16:59:51:492565,-5,-57,-13,-9,0,-7,-8,-9
16:59:51:497205,25,6,13,18,9,2,3,7
16:59:51:504683,25,6,13,18,9,2,3,7
16:59:51:512065,11,35,-9,-6,-5,-2,-2,0
16:59:51:528467,-11,-33,-6,-15,-3,0,-2,-11
16:59:51:529311,-11,-33,-6,-15,-3,0,-2,-11
16:59:51:530055,26,37,-16,8,3,0,1,15
16:59:51:542088,-4,-8,-1,2,4,0,0,5
16:59:51:550086,-4,-8,-1,2,4,0,0,5
16:59:51:557828,-1,58,7,6,7,1,1,-1
16:59:51:558570,12,-8,-13,2,3,0,-1,2
16:59:51:564724,12,-8,-13,2,3,0,-1,2
16:59:51:572198,-4,-15,5,2,0,-3,-11,-5
16:59:51:579691,-18,-19,2,-3,1,0,-2,-20
16:59:51:587202,-18,-19,2,-3,1,0,-2,-20
16:59:51:594568,-22,-46,10,10,6,3,6,-22
16:59:51:602111,-10,-16,-13,3,0,-3,-2,-8
16:59:51:610322,-10,-16,-13,3,0,-3,-2,-8
16:59:51:611175,15,-29,-11,3,-1,-2,3,0
16:59:51:625302,0,20,3,1,-3,0,3,7
16:59:51:626044,0,20,3,1,-3,0,3,7
16:59:51:632070,-32,16,-34,-16,-10,0,0,9
16:59:51:647823,2,15,12,-8,-6,-2,1,12
16:59:51:648574,2,15,12,-8,-6,-2,1,12
16:59:51:654563,5,-15,-12,6,6,0,-2,4
16:59:51:662210,-13,-25,-5,-2,-1,-2,-6,-43
16:59:51:677815,-13,-25,-5,-2,-1,-2,-6,-43
16:59:51:678696,-2,-29,-9,-12,2,1,0,-18
16:59:51:685317,20,37,9,-7,-4,-3,-4,23
16:59:51:686067,20,37,9,-7,-4,-3,-4,23
16:59:51:692197,7,11,20,9,0,1,5,-8
16:59:51:699701,-18,-5,-6,7,-3,-1,2,9
16:59:51:707197,-18,-5,-6,7,-3,-1,2,9
16:59:51:714565,-5,-10,4,-19,-14,1,4,1
16:59:51:722066,-1,-11,-8,-24,-12,1,0,-3
16:59:51:730311,-1,-11,-8,-24,-12,1,0,-3
16:59:51:731191,-1,25,12,8,5,-1,1,-2
16:59:51:745321,-1,-45,-26,18,7,-1,1,15
16:59:51:746060,-1,-45,-26,18,7,-1,1,15
16:59:51:752061,8,7,-3,-16,-8,-2,-1,6
16:59:51:767820,-7,39,17,5,8,0,-1,-5
16:59:51:768572,-7,39,17,5,8,0,-1,-5
16:59:51:774570,7,-12,-18,-32,-12,-4,-4,5
16:59:51:782194,-15,-24,3,11,5,0,0,-6
16:59:51:790314,-15,-24,3,11,5,0,0,-6
16:59:51:791089,-7,6,10,19,6,-2,-11,-8
16:59:51:805332,9,103,-6,-32,-15,1,1,5
16:59:51:806060,9,103,-6,-32,-15,1,1,5
16:59:51:812058,-3,4,2,3,-5,-1,4,17
16:59:51:819700,-3,-3,12,25,11,-1,-2,5
16:59:51:827205,-3,-3,12,25,11,-1,-2,5
16:59:51:834579,7,4,18,10,7,0,0,-17
16:59:51:842073,-2,-44,-3,-15,-11,-1,-3,-7
16:59:51:850336,-2,-44,-3,-15,-11,-1,-3,-7
16:59:51:851195,-5,-11,-8,20,10,0,-4,-11
16:59:51:865325,3,-35,-11,9,5,-3,-5,-3
16:59:51:866074,3,-35,-11,9,5,-3,-5,-3
16:59:51:888457,-1,-5,-3,7,5,2,3,-34
16:59:51:889188,-2,-17,-1,-10,-6,-2,3,7
16:59:51:890063,-2,-17,-1,-10,-6,-2,3,7
16:59:51:894574,-12,93,13,-8,-2,-4,-22,6
16:59:51:902067,-10,-31,3,-1,-3,-3,0,5
16:59:51:918196,-10,-31,3,-1,-3,-3,0,5
16:59:51:925953,19,-1,0,-1,0,1,7,13
16:59:51:926700,-7,22,14,16,8,-1,-2,-9
16:59:51:927567,-7,22,14,16,8,-1,-2,-9
16:59:51:932065,-10,-16,-22,12,4,-2,4,18
16:59:51:939588,9,-27,9,7,-1,-2,0,-7
16:59:51:955321,9,-27,9,7,-1,-2,0,-7
16:59:51:956188,1,-6,2,-5,-5,-2,-4,5
16:59:51:962073,-4,30,5,4,2,-1,-2,3
16:59:51:970326,-4,30,5,4,2,-1,-2,3
16:59:51:971196,-7,23,-3,1,-1,-3,-3,-26
16:59:51:985082,13,1,-22,-6,-4,0,0,12
16:59:51:992832,13,1,-22,-6,-4,0,0,12
16:59:51:993690,3,-46,-5,-6,-6,-2,6,12
16:59:51:999579,-9,-27,-5,6,3,0,-3,-15
16:59:52:7206,-9,-27,-5,6,3,0,-3,-15
16:59:52:14565,1,-21,-21,-13,-5,-2,2,8
16:59:52:22102,9,15,-5,-20,-6,-2,-2,17
16:59:52:30341,9,15,-5,-20,-6,-2,-2,17
16:59:52:31112,-1,50,4,1,1,-1,-1,10
16:59:52:45717,5,36,-6,6,2,0,0,-3
16:59:52:46566,5,36,-6,6,2,0,0,-3
16:59:52:52063,3,-4,12,-2,1,2,-5,-15
16:59:52:59560,-5,-32,-5,-16,-10,-1,-16,-24
16:59:52:67220,-5,-32,-5,-16,-10,-1,-16,-24
16:59:52:74559,6,-28,-3,-2,-3,-3,7,-1
16:59:52:82080,11,8,17,12,4,0,3,-5
16:59:52:90358,11,8,17,12,4,0,3,-5
16:59:52:91079,-11,-51,-16,-6,-4,-5,2,15
16:59:52:105685,5,34,1,5,5,0,7,-1
16:59:52:112824,5,34,1,5,5,0,7,-1
16:59:52:113560,1,16,5,14,8,2,1,-7
16:59:52:119573,1,28,3,-4,-2,0,-1,-5
16:59:52:127237,1,28,3,-4,-2,0,-1,-5
16:59:52:134589,6,9,17,-13,-8,1,-3,5
16:59:52:142109,0,-21,4,-6,-4,-2,2,15
16:59:52:166740,0,-21,4,-6,-4,-2,2,15
16:59:52:167472,9,19,-16,7,-1,-4,-4,-14
16:59:52:168353,-8,-24,-6,-9,-6,-2,-7,-4
16:59:52:169097,-8,-24,-6,-9,-6,-2,-7,-4
16:59:52:172111,1,-33,13,1,-2,-2,-8,-3
16:59:52:179610,-13,2,9,4,3,-3,-11,-36
16:59:52:195378,-13,2,9,4,3,-3,-11,-36
16:59:52:196231,-8,15,-1,-5,-5,-3,-28,6
16:59:52:202110,-9,-16,11,6,1,-2,-12,0
16:59:52:210374,-9,-16,11,6,1,-2,-12,0
16:59:52:211216,-1,24,13,-7,-2,1,13,34
16:59:52:225355,2,-61,-24,2,-1,-3,-5,16
16:59:52:226225,2,-61,-24,2,-1,-3,-5,16
16:59:52:232109,-5,-11,-6,3,-1,0,8,4
16:59:52:239666,3,26,-3,2,4,0,8,24
16:59:52:247248,3,26,-3,2,4,0,8,24
16:59:52:254605,4,3,12,5,3,2,9,-6
16:59:52:262077,-6,-7,-2,4,-2,1,34,-14
16:59:52:270337,-6,-7,-2,4,-2,1,34,-14
16:59:52:271122,-24,-84,-16,-7,-3,-4,-7,-7
16:59:52:285759,7,0,-11,-5,-3,0,14,7
16:59:52:286580,7,0,-11,-5,-3,0,14,7
16:59:52:292091,-5,20,-15,-3,3,0,-2,-10
16:59:52:299584,6,57,32,-12,-3,0,-10,-8
16:59:52:307208,6,57,32,-12,-3,0,-10,-8
16:59:52:322827,0,-46,2,3,1,0,-7,-8
16:59:52:323581,-15,-19,-11,0,-4,0,-7,-8
16:59:52:330326,-15,-19,-11,0,-4,0,-7,-8
16:59:52:331180,-2,15,-9,-1,2,1,16,-19
16:59:52:353475,-14,8,3,2,-1,0,-5,2
16:59:52:354338,-14,8,3,2,-1,0,-5,2
16:59:52:355141,-3,-15,12,-4,0,-1,11,-20
16:59:52:359616,-1,12,11,2,-1,1,-8,-3
16:59:52:367224,-1,12,11,2,-1,1,-8,-3
16:59:52:374569,-19,62,-7,0,-1,3,-3,14
16:59:52:382114,5,7,11,5,4,0,-6,13
16:59:52:390307,5,7,11,5,4,0,-6,13
16:59:52:391221,11,-13,-20,5,2,-2,-1,9
16:59:52:405331,4,-4,-16,-10,-6,0,-1,-3
16:59:52:406220,4,-4,-16,-10,-6,0,-1,-3
16:59:52:412078,8,22,4,-2,-3,-3,-5,4
16:59:52:427886,-8,-28,0,-1,-1,-3,-9,-13
16:59:52:428561,-8,-28,0,-1,-1,-3,-9,-13
16:59:52:442691,7,-21,12,3,-1,-2,-3,5
16:59:52:443574,-3,83,8,-2,0,-1,10,14
16:59:52:450330,-3,83,8,-2,0,-1,10,14
16:59:52:451082,-19,-35,-4,-3,-3,-1,-11,2
16:59:52:465324,10,-35,-10,3,5,1,4,1
16:59:52:466067,10,-35,-10,3,5,1,4,1
16:59:52:472084,23,25,12,7,-2,-1,2,2
16:59:52:479571,11,18,0,4,1,-2,-2,-16
16:59:52:487213,11,18,0,4,1,-2,-2,-16
16:59:52:494576,-3,-8,-18,-1,-1,0,-4,-30
16:59:52:502098,3,-12,-4,-4,-8,-3,-4,-19
16:59:52:509685,3,-12,-4,-4,-8,-3,-4,-19
16:59:52:517069,-4,-21,10,6,4,0,7,9
16:59:52:525338,-7,-9,-6,-1,-1,0,-7,-10
16:59:52:526210,-7,-9,-6,-1,-1,0,-7,-10
16:59:52:532080,-19,-33,-7,-8,-4,-2,3,27
16:59:52:547848,-11,-86,4,3,4,0,8,8
16:59:52:548716,-11,-86,4,3,4,0,8,8
16:59:52:562711,13,24,5,-17,-5,-2,2,25
16:59:52:563605,-2,10,0,2,1,1,-1,-12
16:59:52:569721,-2,10,0,2,1,1,-1,-12
16:59:52:577096,5,-6,-14,-2,-3,-4,-4,-25
16:59:52:585342,1,7,16,0,1,-4,-4,-2
16:59:52:586220,1,7,16,0,1,-4,-4,-2
16:59:52:592109,4,-34,-6,1,-1,-2,-9,-16
16:59:52:607848,3,-12,-10,-5,-10,-4,-1,8
16:59:52:608595,3,-12,-10,-5,-10,-4,-1,8
16:59:52:614598,4,-7,8,7,3,0,-1,5
16:59:52:622103,-12,-6,6,6,6,3,3,20
16:59:52:629723,-12,-6,6,6,6,3,3,20
16:59:52:637086,32,77,4,-7,-1,1,6,-22
16:59:52:646351,-3,2,-9,-6,-6,-4,-9,-2
16:59:52:652870,-3,2,-9,-6,-6,-4,-9,-2
16:59:52:653745,-10,-5,9,1,3,0,2,-1
16:59:52:667856,2,-4,-20,-10,-1,2,9,13
16:59:52:668599,2,-4,-20,-10,-1,2,9,13
16:59:52:674601,-9,14,1,1,-3,1,1,16
16:59:52:682079,4,1,-5,1,-1,-3,3,0
16:59:52:689719,4,1,-5,1,-1,-3,3,0
16:59:52:697078,-8,-24,-2,-6,-1,0,-4,22
16:59:52:705090,-5,-46,3,1,-1,0,-13,-47
16:59:52:712819,-5,-46,3,1,-1,0,-13,-47
16:59:52:713576,7,12,1,-3,-6,-2,-2,-5
16:59:52:727862,-13,-20,10,-4,-3,-1,6,2
16:59:52:728692,-13,-20,10,-4,-3,-1,6,2
16:59:52:734576,-5,-29,-5,0,0,-2,-2,-4
16:59:52:742107,6,8,-10,0,0,-1,-12,8
16:59:52:749734,6,8,-10,0,0,-1,-12,8
16:59:52:757077,-5,16,0,0,-1,-2,-14,3
16:59:52:765330,5,14,3,2,3,0,9,10
16:59:52:766109,5,14,3,2,3,0,9,10
16:59:52:772110,3,-11,-1,-5,-4,-1,-6,1
16:59:52:787824,4,73,8,5,5,3,-13,-11
16:59:52:788582,4,73,8,5,5,3,-13,-11
16:59:52:794585,-24,-67,-12,2,2,2,3,-20
16:59:52:802079,5,-71,-13,-17,-9,-4,1,16
16:59:52:809730,5,-71,-13,-17,-9,-4,1,16
16:59:52:817089,2,-16,-10,3,-4,-5,-8,-2
16:59:52:825381,6,-16,-8,2,1,-5,-20,-24
16:59:52:826077,6,-16,-8,2,1,-5,-20,-24
16:59:52:832109,8,-2,-5,-6,-2,-2,-7,6
16:59:52:847831,-23,18,11,-1,-4,-3,0,33
16:59:52:848575,-23,18,11,-1,-4,-3,0,33
16:59:52:854576,11,41,3,2,3,1,8,-28
16:59:52:862091,-2,37,4,0,2,2,8,12
16:59:52:869705,-2,37,4,0,2,2,8,12
16:59:52:877081,-3,-16,-18,2,2,2,8,14
16:59:52:885374,1,15,-4,3,1,0,12,-3
16:59:52:886219,1,15,-4,3,1,0,12,-3
16:59:52:892115,-10,-11,0,-5,-4,-3,1,8
16:59:52:907836,-15,-57,-4,-12,-6,0,-1,-12
16:59:52:908624,-15,-57,-4,-12,-6,0,-1,-12
16:59:52:914567,-7,11,1,-2,-3,-4,-14,-1
16:59:52:922083,31,8,1,7,1,0,-16,6
16:59:52:929745,31,8,1,7,1,0,-16,6
16:59:52:937120,2,13,11,1,1,0,-2,12
16:59:52:945352,-11,4,-7,-5,-2,0,8,-30
16:59:52:946234,-11,4,-7,-5,-2,0,8,-30
16:59:52:952102,-14,-12,19,5,4,3,10,1
16:59:52:967827,6,-17,6,0,0,-5,12,-15
16:59:52:968696,6,-17,6,0,0,-5,12,-15
16:59:52:974658,-14,-70,-17,-3,-3,-3,-18,3
16:59:52:982076,-2,-4,-13,0,0,0,4,24
16:59:52:989732,-2,-4,-13,0,0,0,4,24
16:59:52:997097,2,-6,0,-2,-2,0,2,-8
16:59:53:5361,6,-39,-6,2,1,-2,-1,-35
16:59:53:6080,6,-39,-6,2,1,-2,-1,-35
16:59:53:12076,7,37,2,-3,-3,-1,-5,7
16:59:53:27815,-11,5,0,-3,-1,2,9,-15
16:59:53:28696,-11,5,0,-3,-1,2,9,-15
16:59:53:34581,-1,-5,18,2,-1,0,6,-21
16:59:53:42081,12,-50,6,-1,0,-1,-17,26
16:59:53:49600,12,-50,6,-1,0,-1,-17,26
16:59:53:57099,5,-1,-16,-2,-3,0,8,2
16:59:53:65341,0,19,4,-1,-2,-3,2,29
16:59:53:66114,0,19,4,-1,-2,-3,2,29
16:59:53:72069,9,13,23,-2,-1,-1,0,-7
16:59:53:87836,2,18,1,2,0,-2,-10,-7
16:59:53:88606,2,18,1,2,0,-2,-10,-7
16:59:53:94603,-13,-38,-1,0,-1,-2,0,-14
16:59:53:102100,1,8,0,-1,-3,2,19,-7
16:59:53:109721,1,8,0,-1,-3,2,19,-7
16:59:53:117089,13,-24,-28,-1,0,1,-21,-3
16:59:53:125345,-31,-49,-7,0,-2,-3,-7,7
16:59:53:126072,-31,-49,-7,0,-2,-3,-7,7
16:59:53:132111,-20,40,8,-2,-1,-3,1,13
16:59:53:147817,2,2,0,-2,0,1,-13,4
16:59:53:148603,2,2,0,-2,0,1,-13,4
16:59:53:154597,12,33,-7,-5,-1,-3,13,25
16:59:53:170384,3,25,0,0,-1,0,3,-13
16:59:53:171109,3,25,0,0,-1,0,3,-13
16:59:53:177120,-11,9,4,2,3,2,6,6
16:59:53:185439,8,1,-9,-4,-2,-3,-7,0
16:59:53:186093,8,1,-9,-4,-2,-3,-7,0
16:59:53:192111,-6,2,-5,1,-2,-3,8,-15
16:59:53:208239,7,25,1,2,0,-1,-1,17
16:59:53:209102,7,25,1,2,0,-1,-1,17
16:59:53:214604,14,26,-1,-4,0,2,43,-14
16:59:53:222132,-14,7,0,0,0,-4,15,-82
16:59:53:229723,-14,7,0,0,0,-4,15,-82
16:59:53:237120,6,75,19,7,7,6,7,4
16:59:53:245380,-4,-16,-4,-2,0,3,-22,-8
16:59:53:246096,-4,-16,-4,-2,0,3,-22,-8
16:59:53:252092,-5,-87,-5,-5,-7,-6,45,-8
16:59:53:267853,-8,12,6,1,-5,-7,-2,13
16:59:53:268616,-8,12,6,1,-5,-7,-2,13
16:59:53:282822,0,-39,-11,-4,-6,-11,-11,-44
16:59:53:283569,1,-10,-18,-1,-1,0,-14,-30
16:59:53:289694,1,-10,-18,-1,-1,0,-14,-30
16:59:53:297069,-4,45,-10,0,0,2,-61,-9
16:59:53:305359,-4,0,-2,-2,0,-2,-1,1
16:59:53:306076,-4,0,-2,-2,0,-2,-1,1
16:59:53:312077,3,-33,-8,-2,-5,-5,-7,28
16:59:53:328217,4,7,3,-1,2,0,-22,33
16:59:53:329064,4,7,3,-1,2,0,-22,33
16:59:53:334590,-10,-10,7,3,1,1,-14,28
16:59:53:342101,5,-25,-9,-2,-4,2,31,34
16:59:53:349722,5,-25,-9,-2,-4,2,31,34
16:59:53:365977,12,21,9,-3,-2,-1,34,-9
16:59:53:366748,-8,20,9,-2,1,2,-33,-40
16:59:53:367594,-8,20,9,-2,1,2,-33,-40
16:59:53:379598,-8,12,0,-7,-9,-1,14,15
16:59:53:387744,-19,-60,-9,-6,4,5,59,-71
16:59:53:388597,-19,-60,-9,-6,4,5,59,-71
16:59:53:394623,8,-1,2,5,3,-2,-62,-74
16:59:53:402115,0,57,0,-1,-8,-5,-13,27
16:59:53:409626,0,57,0,-1,-8,-5,-13,27
16:59:53:417114,-4,11,3,-2,4,5,-4,2
16:59:53:425342,7,55,11,6,1,-1,-34,35
16:59:53:426100,7,55,11,6,1,-1,-34,35
16:59:53:448472,-1,-28,-21,-5,-5,1,33,10
16:59:53:449343,2,-14,8,0,4,7,57,51
16:59:53:450098,2,-14,8,0,4,7,57,51
16:59:53:454593,-3,-5,0,-1,1,1,10,-11
16:59:53:470353,-5,-29,-5,-4,-9,-1,55,20
16:59:53:471111,-5,-29,-5,-4,-9,-1,55,20
16:59:53:485986,-9,-8,3,3,4,2,-1,-24
16:59:53:486865,5,18,10,2,3,-2,-37,-1
16:59:53:487602,5,18,10,2,3,-2,-37,-1
16:59:53:499618,1,-10,1,1,-1,-6,-49,30
16:59:53:507849,1,-10,1,1,-1,-6,-49,30
16:59:53:508598,10,37,-3,5,2,-3,-85,-25
16:59:53:522111,2,12,10,4,-1,3,-31,4
16:59:53:530347,2,12,10,4,-1,3,-31,4
16:59:53:531103,-3,-18,-3,-6,-9,-7,17,-30
16:59:53:537117,-19,6,4,-2,-1,-4,8,41
16:59:53:545343,-19,6,4,-2,-1,-4,8,41
16:59:53:546090,-3,-12,1,2,-1,-2,39,-10
16:59:53:560070,-2,-22,-9,-6,-5,0,20,35
16:59:53:567851,-2,-22,-9,-6,-5,0,20,35
16:59:53:568605,-1,-17,-2,-3,4,-2,-71,-19
16:59:53:574617,-1,-5,0,0,-2,0,-9,-6
16:59:53:607362,-1,-5,0,0,-2,0,-9,-6
16:59:53:608088,-3,17,-15,0,-1,2,12,35
16:59:53:608964,12,-11,-15,-3,0,-1,8,-17
16:59:53:609723,12,-11,-15,-3,0,-1,8,-17
16:59:53:612073,-10,-30,-4,-2,-2,-3,27,3
16:59:53:619598,12,56,10,2,1,-1,-25,51
16:59:53:627845,12,56,10,2,1,-1,-25,51
16:59:53:628750,4,20,11,4,7,4,-9,71
16:59:53:634608,-58,-16,11,1,-2,-5,-1,23
16:59:53:650351,-58,-16,11,1,-2,-5,-1,23
16:59:53:651094,-5,16,7,-2,-1,6,-12,-9
16:59:53:665968,2,-28,-15,-3,0,-1,14,4
16:59:53:666843,2,-28,-15,-3,0,-1,14,4
16:59:53:667589,3,62,14,5,-1,-3,21,-6
16:59:53:679585,12,8,4,-1,-1,1,6,-53
16:59:53:687839,12,8,4,-1,-1,1,6,-53
16:59:53:688583,9,-32,-1,-1,-2,2,19,-6
16:59:53:694583,3,16,0,-1,-3,-5,11,-19
16:59:53:727328,3,16,0,-1,-3,-5,11,-19
16:59:53:728103,-23,-81,-14,-3,-2,-2,-16,-59
16:59:53:728949,17,-19,2,-3,0,3,-7,4
16:59:53:729708,17,-19,2,-3,0,3,-7,4
16:59:53:732097,12,-13,-3,2,-1,-7,35,3
16:59:53:739582,10,-24,-3,-1,-2,-4,13,-13
16:59:53:747850,10,-24,-3,-1,-2,-4,13,-13
16:59:53:748710,-1,-16,-8,-5,-6,-6,-30,1
16:59:53:762078,-9,-12,-7,-8,-3,0,31,-4
16:59:53:770337,-9,-12,-7,-8,-3,0,31,-4
16:59:53:771252,5,0,0,-2,-4,-2,-16,38
16:59:53:777105,-13,12,5,2,6,9,-27,-41
16:59:53:785336,-13,12,5,2,6,9,-27,-41
16:59:53:786086,0,-15,1,0,1,1,7,-28
16:59:53:799592,13,75,9,10,2,0,-24,1
16:59:53:807856,13,75,9,10,2,0,-24,1
16:59:53:808583,-2,-10,-6,-4,0,0,-22,16
16:59:53:814583,-7,7,17,4,3,-3,-9,4
16:59:53:838502,-7,7,17,4,3,-3,-9,4
16:59:53:839225,14,-10,-7,-1,-5,-5,10,8
16:59:53:840127,3,4,-2,-5,-3,-1,-9,-7
16:59:53:845368,3,4,-2,-5,-3,-1,-9,-7
16:59:53:846091,5,8,-2,1,-4,-1,-24,-5
16:59:53:859624,-11,-37,-9,-10,-4,-7,1,41
16:59:53:876100,-11,-37,-9,-10,-4,-7,1,41
16:59:53:876834,-11,2,-3,-6,-4,-3,9,-27
16:59:53:877589,10,26,1,2,-6,-6,-31,-10
16:59:53:890370,10,26,1,2,-6,-6,-31,-10
16:59:53:891106,-8,27,8,7,4,1,18,52
16:59:53:897101,-1,-39,-13,-2,-2,3,-1,-6
16:59:53:905351,-1,-39,-13,-2,-2,3,-1,-6
16:59:53:906109,-7,47,7,1,1,5,19,-3
16:59:53:919624,3,-17,-5,-2,-1,-3,5,0
16:59:53:927841,3,-17,-5,-2,-1,-3,5,0
16:59:53:928621,-6,9,-6,-6,-3,-5,-56,28
16:59:53:934592,3,9,4,6,4,0,-37,23
16:59:53:958527,3,9,4,6,4,0,-37,23
16:59:53:959247,0,-15,-3,-7,-7,-3,-19,-26
16:59:53:960098,0,-5,-2,-2,-2,1,30,25
16:59:53:965349,0,-5,-2,-2,-2,1,30,25
16:59:53:966081,24,40,7,2,2,3,16,18
16:59:53:979606,-21,-7,-6,-8,-9,-10,14,-52
16:59:54:3484,-21,-7,-6,-8,-9,-10,14,-52
16:59:54:4347,0,2,3,7,4,0,-4,-39
16:59:54:5083,7,34,-4,4,0,-4,-18,-5
16:59:54:18467,7,34,-4,4,0,-4,-18,-5
16:59:54:19341,-22,-49,-19,-2,4,2,-12,-34
16:59:54:20077,18,-37,-7,-5,1,-1,37,-15
16:59:54:33235,18,-37,-7,-5,1,-1,37,-15
16:59:54:40348,14,-48,-9,-1,-1,-1,-7,64
16:59:54:41069,1,29,7,-3,0,1,-12,14
16:59:54:47837,1,29,7,-3,0,1,-12,14
16:59:54:48597,10,-15,2,-1,0,-1,14,0
16:59:54:54591,0,-14,1,-2,-7,-3,-4,-35
16:59:54:78477,0,-14,1,-2,-7,-3,-4,-35
16:59:54:79367,-19,-19,-2,0,3,5,16,-51
16:59:54:80084,6,-26,8,4,-1,-2,-1,-35
16:59:54:100954,6,-26,8,4,-1,-2,-1,-35
16:59:54:101844,22,49,6,0,-2,-3,6,14
16:59:54:102582,-2,-29,-1,3,2,5,-4,38
16:59:54:115961,-2,-29,-1,3,2,5,-4,38
16:59:54:116758,-12,51,1,-9,-10,-4,39,-1
16:59:54:117576,11,4,-2,0,1,2,7,19
16:59:54:130346,11,4,-2,0,1,2,7,19
16:59:54:131257,-6,27,-28,-2,1,0,-11,-8
16:59:54:137100,4,-55,-15,-3,-1,-2,-5,-2
16:59:54:160990,4,-55,-15,-3,-1,-2,-5,-2
16:59:54:161864,7,-38,-1,2,-1,-4,-10,24
16:59:54:162611,-6,23,4,1,-1,-1,-2,-37
16:59:54:167858,-6,23,4,1,-1,-1,-2,-37
16:59:54:168591,-6,-13,-7,-2,-2,-3,0,13
16:59:54:174579,-3,5,2,-6,-1,4,9,17
16:59:54:198471,-3,5,2,-6,-1,4,9,17
16:59:54:199220,0,62,23,6,2,-1,-20,-71
16:59:54:200096,-19,32,-17,0,1,3,3,-18
16:59:54:205347,-19,32,-17,0,1,3,3,-18
16:59:54:206096,10,12,23,4,1,0,4,21
16:59:54:219592,22,8,-5,-29,-1,0,9,-6
16:59:54:236106,22,8,-5,-29,-1,0,9,-6
16:59:54:236885,-12,-77,-14,1,-3,-2,-25,-27
16:59:54:237611,10,-19,-3,17,1,-1,-13,17
16:59:54:250357,10,-19,-3,17,1,-1,-13,17
16:59:54:251127,-23,-67,3,-7,-6,-3,18,66
16:59:54:257115,-5,-11,-7,-12,-1,-2,21,33
16:59:54:280979,-5,-11,-7,-12,-1,-2,21,33
16:59:54:281713,-13,3,2,3,-2,0,12,-2
16:59:54:282582,-7,-9,-2,19,1,0,12,10
16:59:54:287851,-7,-9,-2,19,1,0,12,10
16:59:54:288606,4,61,29,-8,0,1,-14,4
16:59:54:294593,-10,25,-6,-14,-7,-1,-10,-19
16:59:54:327121,-10,25,-6,-14,-7,-1,-10,-19
16:59:54:327997,-17,-74,-23,-6,-3,-7,1,-34
16:59:54:328719,-1,41,-1,-2,9,5,-5,2
16:59:54:329597,-1,41,-1,-2,9,5,-5,2
16:59:54:332084,18,48,-3,9,3,2,-14,-1
16:59:54:339579,-7,-26,10,-12,-7,-10,-10,8
16:59:54:355975,-7,-26,10,-12,-7,-10,-10,8
16:59:54:356839,29,-60,-12,1,2,-1,-5,-16
16:59:54:357607,-18,-43,3,7,-4,-1,36,-29
16:59:54:370341,-18,-43,3,7,-4,-1,36,-29
16:59:54:371108,-4,-24,-17,-18,-4,-2,13,2
16:59:54:377091,-1,-31,-26,-5,-2,-1,-7,4
16:59:54:392857,-1,-31,-26,-5,-2,-1,-7,4
16:59:54:393576,-4,-20,0,-6,-7,0,7,-5
16:59:54:399581,-3,19,-1,7,2,3,-19,-7
16:59:54:407843,-3,19,-1,7,2,3,-19,-7
16:59:54:408614,-9,5,9,-8,-4,-1,-11,-41
16:59:54:430731,5,-25,11,2,5,0,-13,-1
16:59:54:438471,5,-25,11,2,5,0,-13,-1
16:59:54:439348,8,-4,16,7,2,-3,12,54
16:59:54:440099,2,37,-4,11,2,-3,-4,3
16:59:54:444624,2,37,-4,11,2,-3,-4,3
16:59:54:452126,-14,26,2,-6,-8,-7,29,46
16:59:54:459623,10,2,12,0,-3,0,8,2
16:59:54:475357,10,2,12,0,-3,0,8,2
16:59:54:476083,15,-6,-21,1,0,-1,5,26
16:59:54:482085,-13,-97,-21,-10,-4,-1,15,-21
16:59:54:490332,-13,-97,-21,-10,-4,-1,15,-21
16:59:54:491135,29,-48,-21,1,1,0,-10,8
16:59:54:497094,-17,-4,3,-4,-2,0,-4,21
16:59:54:512846,-17,-4,3,-4,-2,0,-4,21
16:59:54:513593,-5,13,-9,-1,2,0,-11,-13
16:59:54:519584,-3,-79,-16,-6,0,-5,-14,6
16:59:54:527837,-3,-79,-16,-6,0,-5,-14,6
16:59:54:528572,-8,32,-22,-13,-5,-3,-25,-43
16:59:54:559134,12,32,13,10,-1,-3,-13,28
16:59:54:559972,12,32,13,10,-1,-3,-13,28
16:59:54:560718,-18,-14,9,7,0,0,-1,-13
16:59:54:561577,2,1,7,0,-2,-4,-47,36
16:59:54:564573,2,1,7,0,-2,-4,-47,36
16:59:54:572098,27,49,21,9,6,5,13,8
16:59:54:588483,2,37,9,2,-1,2,7,-31
16:59:54:595365,2,37,9,2,-1,2,7,-31
16:59:54:596096,-9,7,11,4,3,1,-4,-15
16:59:54:602101,-20,-16,0,6,-2,2,-1,6
16:59:54:610364,-20,-16,0,6,-2,2,-1,6
16:59:54:611086,-13,-53,-8,-7,-1,-1,5,-11
16:59:54:617101,-16,10,3,-11,-10,-4,-1,0
16:59:54:632841,-16,10,3,-11,-10,-4,-1,0
16:59:54:633582,-11,-4,4,-3,-1,-1,23,-16
16:59:54:639596,47,-1,-1,-1,0,-3,16,19
16:59:54:647872,47,-1,-1,-1,0,-3,16,19
16:59:54:648588,20,-32,-9,7,-3,-4,-19,-54
16:59:54:670958,2,20,3,1,-3,0,-2,-14
16:59:54:671876,2,20,3,1,-3,0,-2,-14
16:59:54:672611,-17,-45,0,-3,4,-1,-3,4
16:59:54:677127,-4,0,0,-17,-8,-5,-8,11
16:59:54:684596,-4,0,0,-17,-8,-5,-8,11
16:59:54:692092,-26,20,3,0,0,2,-12,35
16:59:54:716009,4,8,8,11,5,6,-60,19
16:59:54:716844,4,8,8,11,5,6,-60,19
16:59:54:717603,-8,-27,-3,2,-3,-2,-25,-1
16:59:54:722097,12,23,1,0,-2,0,12,-24
16:59:54:730374,12,23,1,0,-2,0,12,-24
16:59:54:731108,5,2,-2,3,1,0,-2,-45
16:59:54:737105,10,56,-7,-18,-3,-1,18,-10
16:59:54:752845,10,56,-7,-18,-3,-1,18,-10
16:59:54:753580,12,0,8,-3,-6,-5,5,61
16:59:54:759590,8,53,1,7,0,-1,10,-44
16:59:54:767851,8,53,1,7,0,-1,10,-44
16:59:54:768632,11,-14,-1,-1,0,1,58,30
16:59:54:791000,-25,-20,-13,3,2,3,-10,13
16:59:54:791759,-25,-20,-13,3,2,3,-10,13
16:59:54:792636,7,18,3,0,-1,-2,-21,9
16:59:54:797112,0,-12,-6,-7,-3,-1,12,-7
16:59:54:804635,0,-12,-6,-7,-3,-1,12,-7
16:59:54:812129,23,43,-6,1,6,3,-51,-6
16:59:54:836024,-28,54,5,0,-3,-3,11,-8
16:59:54:836914,-28,54,5,0,-3,-3,11,-8
16:59:54:837697,-26,-44,-11,-5,-7,-5,33,-12
16:59:54:851018,7,-42,-2,-7,1,-6,105,-27
16:59:54:851874,7,-42,-2,-7,1,-6,105,-27
16:59:54:852610,10,19,0,0,-4,-3,23,30
16:59:54:865381,-7,18,-6,0,-4,0,-30,-32
16:59:54:866140,-7,18,-6,0,-4,0,-30,-32
16:59:54:872130,-29,-15,-7,-6,-1,-2,-42,-34
16:59:54:879631,7,-31,-1,8,3,-2,35,69
16:59:54:887869,7,-31,-1,8,3,-2,35,69
16:59:54:888634,-2,80,7,10,8,5,-50,1
16:59:54:911010,10,-16,9,-5,-15,0,51,21
16:59:54:911773,10,-16,9,-5,-15,0,51,21
16:59:54:912630,1,-23,-1,0,13,7,-16,-6
16:59:54:917129,19,42,28,14,0,-5,-64,-58
16:59:54:924636,19,42,28,14,0,-5,-64,-58
16:59:54:932144,-10,-18,-17,-8,-14,-8,57,21
16:59:54:948514,-10,19,2,-3,-4,-7,-29,-37
16:59:54:949259,-10,19,2,-3,-4,-7,-29,-37
16:59:54:950142,-13,-16,3,-3,1,2,-15,-11
16:59:54:962137,-17,-49,-8,-10,4,-1,-3,28
16:59:54:970395,-17,-49,-8,-10,4,-1,-3,28
16:59:54:971113,25,0,20,2,-7,-5,24,-52
16:59:54:985369,-17,-19,9,3,7,0,47,-15
16:59:54:986118,-17,-19,9,3,7,0,47,-15
16:59:54:992104,9,-1,3,-4,-5,1,32,-50
16:59:54:999620,24,-37,-26,-3,-1,1,-19,-12
16:59:55:7853,24,-37,-26,-3,-1,1,-19,-12
16:59:55:8637,-5,0,-4,2,-3,-3,30,35
16:59:55:22121,-6,-13,-9,3,5,2,-51,-38
16:59:55:30397,-6,-13,-9,3,5,2,-51,-38
16:59:55:31122,-10,-15,21,5,9,7,2,33
16:59:55:37123,-19,-23,-5,-10,-10,-8,-30,16
16:59:55:44727,-19,-23,-5,-10,-10,-8,-30,16
16:59:55:52099,-17,27,20,7,5,3,25,40
16:59:55:68508,-17,8,-1,8,5,6,-20,-22
16:59:55:69359,-17,8,-1,8,5,6,-20,-22
16:59:55:70104,-1,4,-19,-5,-6,-7,-19,-17
16:59:55:82144,-5,39,0,7,1,3,15,95
16:59:55:90350,-5,39,0,7,1,3,15,95
16:59:55:91126,-14,19,-24,-2,-7,-4,-25,11
16:59:55:105367,2,34,4,-7,8,-3,-49,-30
16:59:55:106134,2,34,4,-7,8,-3,-49,-30
16:59:55:112119,8,25,5,6,5,5,-51,14
16:59:55:119619,1,9,-15,-2,-1,1,-1,9
16:59:55:127912,1,9,-15,-2,-1,1,-1,9
16:59:55:128666,-16,-46,-8,-5,-3,-2,5,-14
16:59:55:142610,5,-43,15,4,1,-3,4,7
16:59:55:150355,5,-43,15,4,1,-3,4,7
16:59:55:151115,14,-16,0,-3,-6,-5,-41,30
16:59:55:157111,-3,-10,7,3,-1,3,32,60
16:59:55:164732,-3,-10,7,3,-1,3,32,60
16:59:55:172110,10,17,-1,1,7,5,-28,39
16:59:55:179605,0,102,14,4,-8,3,5,14
16:59:55:187903,0,102,14,4,-8,3,5,14
16:59:55:188616,-12,67,18,0,1,3,17,-30
16:59:55:202110,7,-55,-39,-25,-12,-11,21,-17
16:59:55:210367,7,-55,-39,-25,-12,-11,21,-17
16:59:55:211119,-12,30,-3,-11,-2,-10,-34,-29
16:59:55:233493,9,13,11,0,6,0,16,-13
16:59:55:234248,9,13,11,0,6,0,16,-13
16:59:55:235121,-5,-108,-12,-8,-6,-3,13,-28
16:59:55:239626,14,12,6,4,0,1,5,9
16:59:55:247856,14,12,6,4,0,1,5,9
16:59:55:248617,0,-46,-6,-8,-12,-6,33,-24
16:59:55:262622,-21,-33,0,7,13,5,34,-77
16:59:55:270381,-21,-33,0,7,13,5,34,-77
16:59:55:271101,-4,16,-1,2,-2,-13,-62,-56
16:59:55:277131,-3,-10,6,-2,-5,-3,28,11
16:59:55:284625,-3,-10,6,-2,-5,-3,28,11
16:59:55:292125,0,-45,-25,-5,1,5,39,19
16:59:55:308487,-11,-56,-6,3,-2,-5,-21,17
16:59:55:309241,-11,-56,-6,3,-2,-5,-21,17
16:59:55:310102,20,12,-7,-2,1,3,21,28
16:59:55:322122,5,-33,-14,-4,-3,-4,-41,-4
16:59:55:330362,5,-33,-14,-4,-3,-4,-41,-4
16:59:55:331082,7,26,12,-8,-6,-1,0,-1
16:59:55:345387,-25,16,10,6,4,5,10,-44
16:59:55:346121,-25,16,10,6,4,5,10,-44
16:59:55:352133,-2,5,5,4,-1,-1,51,-35
16:59:55:359633,19,55,1,-5,-6,-7,39,48
16:59:55:367250,19,55,1,-5,-6,-7,39,48
16:59:55:374617,-7,-1,15,6,2,1,-20,-9
16:59:55:391100,7,-29,2,0,4,-1,-39,-11
16:59:55:391852,7,-29,2,0,4,-1,-39,-11
16:59:55:392588,14,62,3,2,-6,-3,23,27
16:59:55:405335,1,42,-11,-2,6,2,-19,0
16:59:55:406097,1,42,-11,-2,6,2,-19,0
16:59:55:412089,-35,-28,-4,0,1,0,-58,-12
16:59:55:427882,4,-20,3,7,2,6,37,-5
16:59:55:428604,4,-20,3,7,2,6,37,-5
16:59:55:434644,-1,45,7,0,-4,-3,21,-45
16:59:55:442118,-30,-17,6,5,-1,-7,-35,22
16:59:55:466748,-30,-17,6,5,-1,-7,-35,22
16:59:55:467495,8,-18,0,7,9,6,-5,24
16:59:55:468375,-8,7,4,0,-10,-1,15,-3
16:59:55:469095,-8,7,4,0,-10,-1,15,-3
16:59:55:472126,-4,-7,5,-4,-3,-8,-11,6
16:59:55:479631,4,34,-6,-4,-4,3,0,-2
16:59:55:487131,4,34,-6,-4,-4,3,0,-2
16:59:55:494619,2,35,-1,0,4,2,-6,7
16:59:55:502114,2,-36,-5,-7,-9,-5,19,-53
16:59:55:510378,2,-36,-5,-7,-9,-5,19,-53
16:59:55:511135,18,-77,-8,-4,-6,-4,-4,29
16:59:55:525394,3,-8,-27,-10,-2,1,-23,24
16:59:55:526114,3,-8,-27,-10,-2,1,-23,24
16:59:55:532149,9,-28,-1,-5,-16,-11,-49,-13
16:59:55:547745,13,-3,2,5,16,7,-8,16
16:59:55:548627,13,-3,2,5,16,7,-8,16
16:59:55:554599,-12,13,-5,-4,-7,-7,49,28
16:59:55:562158,12,42,17,0,-1,-1,-8,-27
16:59:55:571118,12,42,17,0,-1,-1,-8,-27
16:59:55:571862,2,24,-10,-1,8,5,-31,10
16:59:55:585239,-20,-42,-1,0,-2,-1,12,-8
16:59:55:586113,-20,-42,-1,0,-2,-1,12,-8
16:59:55:592116,0,-20,-11,-3,2,-4,-6,-5
16:59:55:599623,3,2,3,-5,-7,2,-6,-2
16:59:55:607142,3,2,3,-5,-7,2,-6,-2
16:59:55:622860,14,-2,-1,5,13,5,-30,33
16:59:55:623622,0,7,8,-1,-4,-7,-35,-32
16:59:55:630422,0,7,8,-1,-4,-7,-35,-32
16:59:55:631168,5,26,13,-8,-7,-1,24,-19
16:59:55:645225,7,-21,-24,-20,-8,-4,11,26
16:59:55:646105,7,-21,-24,-20,-8,-4,11,26
16:59:55:652119,-2,-10,11,4,2,-1,78,-51
16:59:55:667741,1,-20,1,4,-1,2,3,-50
16:59:55:668596,1,-20,1,4,-1,2,3,-50
16:59:55:674595,-18,-2,-6,1,0,4,32,7
16:59:55:682110,-6,-11,2,3,-4,0,28,22
16:59:55:706739,-6,-11,2,3,-4,0,28,22
16:59:55:707494,-11,-13,-11,-5,-1,4,-6,24
16:59:55:708372,13,26,8,10,14,3,-83,64
16:59:55:709129,13,26,8,10,14,3,-83,64
16:59:55:712117,13,-24,-7,2,-4,-4,-37,24
16:59:55:719638,-6,-70,0,-6,-5,-4,10,1
16:59:55:743498,-6,-70,0,-6,-5,-4,10,1
16:59:55:744249,-16,36,-10,3,1,0,1,-18
16:59:55:745122,-14,-38,9,-11,-5,-2,3,-15
16:59:55:750377,-14,-38,9,-11,-5,-2,3,-15
16:59:55:751124,-5,7,18,1,-1,-2,6,-27
16:59:55:765266,-19,49,3,2,-3,-3,10,3
16:59:55:766123,-19,49,3,2,-3,-3,10,3
16:59:55:772137,7,23,3,4,3,6,-12,29
16:59:55:779615,-13,27,6,-5,-5,-8,60,24
16:59:55:787104,-13,27,6,-5,-5,-8,60,24
16:59:55:794609,-7,-48,-17,-2,-4,-4,28,-16
16:59:55:802138,-8,-36,-17,-3,-3,-1,-13,-2
16:59:55:810391,-8,-36,-17,-3,-3,-1,-13,-2
16:59:55:811102,-1,6,-12,4,4,1,-11,0
16:59:55:825718,-13,-41,-15,-17,-1,-4,-5,6
16:59:55:826645,-13,-41,-15,-17,-1,-4,-5,6
16:59:55:832096,8,-11,-4,-12,-5,-1,-3,23
16:59:55:839593,36,75,-1,5,1,-2,-11,27
16:59:55:847125,36,75,-1,5,1,-2,-11,27
16:59:55:862733,-5,-24,2,8,2,1,-5,-3
16:59:55:863605,9,-16,-14,7,1,7,-15,-34
16:59:55:870360,9,-16,-14,7,1,7,-15,-34
16:59:55:871089,-1,1,9,8,-1,-1,-6,39
16:59:55:885364,23,3,-9,6,0,0,-10,-58
16:59:55:886091,23,3,-9,6,0,0,-10,-58
16:59:55:892129,-10,-35,-19,-7,0,1,4,-8
16:59:55:899628,14,-7,1,-1,1,-2,-13,21
16:59:55:907107,14,-7,1,-1,1,-2,-13,21
16:59:55:922843,6,-8,-5,2,-4,-5,-2,-7
16:59:55:923597,2,-22,10,-9,-8,-1,5,29
16:59:55:930361,2,-22,10,-9,-8,-1,5,29
16:59:55:931113,-19,-29,-6,12,-2,-3,-7,-12
16:59:55:945743,-18,-67,-26,-9,-6,-6,-5,-33
16:59:55:946614,-18,-67,-26,-9,-6,-6,-5,-33
16:59:55:952112,16,63,27,0,-2,0,-13,1
16:59:55:959600,-6,51,4,10,1,-2,-9,-4
16:59:55:983504,-6,51,4,10,1,-2,-9,-4
16:59:55:984376,13,-7,3,-5,0,0,4,-16
16:59:55:985089,-10,21,39,16,3,-1,10,4
16:59:55:990379,-10,21,39,16,3,-1,10,4
16:59:55:991134,1,17,7,-6,-2,-2,11,-11
16:59:56:5382,15,80,20,10,4,1,-6,33
16:59:56:6099,15,80,20,10,4,1,-6,33
16:59:56:20232,-50,-52,-24,-20,-6,-4,12,29
16:59:56:21130,3,56,9,8,7,2,-24,-35
16:59:56:43538,3,56,9,8,7,2,-24,-35
16:59:56:44352,6,-12,-4,-8,-9,-4,-11,-19
16:59:56:45120,-2,28,-8,-26,-14,-6,22,31
16:59:56:50378,-2,28,-8,-26,-14,-6,22,31
16:59:56:51140,-1,4,-25,-8,-1,-3,10,-3
16:59:56:65732,3,-29,-3,10,2,0,15,-30
16:59:56:66606,3,-29,-3,10,2,0,15,-30
16:59:56:72132,-21,-10,2,-4,-2,0,-14,-13
16:59:56:79625,-29,-85,-2,1,4,3,-10,24
16:59:56:87123,-29,-85,-2,1,4,3,-10,24
16:59:56:94617,15,-14,15,6,6,2,-12,-10
16:59:56:102133,14,-28,-47,-18,-6,-4,16,0
16:59:56:110348,14,-28,-47,-18,-6,-4,16,0
16:59:56:111134,22,49,13,9,3,2,-15,-4
16:59:56:141619,8,0,17,8,-2,-1,-4,5
16:59:56:142488,8,0,17,8,-2,-1,-4,5
16:59:56:143252,-15,7,2,-1,-2,-1,5,38
16:59:56:144126,1,-23,1,-6,-5,-4,-21,-38
16:59:56:155360,1,-23,1,-6,-5,-4,-21,-38
16:59:56:156109,16,-11,-3,6,4,1,-16,11
16:59:56:162118,-13,-81,-29,-13,-5,-2,6,6
16:59:56:170736,-13,-81,-29,-13,-5,-2,6,6
16:59:56:177130,15,-84,-34,-21,-8,-3,8,-8
16:59:56:185395,3,-24,-3,-8,-1,1,10,35
16:59:56:186121,3,-24,-3,-8,-1,1,10,35
16:59:56:200250,-11,-2,7,6,-2,0,-2,-18
16:59:56:201126,8,22,3,0,-2,0,19,11
16:59:56:207142,8,22,3,0,-2,0,19,11
16:59:56:214613,8,18,9,-3,-1,-1,0,-41
16:59:56:222130,-5,95,21,4,0,-3,-22,6
16:59:56:237877,-5,95,21,4,0,-3,-22,6
16:59:56:238631,8,-51,37,11,1,-1,5,-11
16:59:56:245386,-15,-38,-16,-1,-4,1,-11,-36
16:59:56:246135,-15,-38,-16,-1,-4,1,-11,-36
16:59:56:252129,11,38,9,1,-6,-8,-10,22
16:59:56:259636,-14,-33,-6,2,1,0,-38,-55
16:59:56:275389,-14,-33,-6,2,1,0,-38,-55
16:59:56:276123,-20,22,-8,3,-1,6,36,-32
16:59:56:282134,4,12,8,6,2,-5,-19,-19
16:59:56:297753,4,12,8,6,2,-5,-19,-19
16:59:56:298621,-26,-15,-17,-11,-4,-10,-39,-39
16:59:56:313503,-20,9,15,3,3,0,7,14
16:59:56:314384,-20,9,15,3,3,0,7,14
16:59:56:315213,2,-45,-21,-9,0,3,43,36
16:59:56:327849,0,3,46,9,6,2,11,9
16:59:56:328625,0,3,46,9,6,2,11,9
16:59:56:334613,23,28,12,1,3,2,-7,8
16:59:56:342124,24,41,13,5,-9,1,-11,-6
16:59:56:357894,24,41,13,5,-9,1,-11,-6
16:59:56:358625,-8,0,9,3,2,1,-7,10
16:59:56:365390,-15,-26,-36,-12,-2,-8,27,30
16:59:56:366188,-15,-26,-36,-12,-2,-8,27,30
16:59:56:372111,-10,27,-3,0,-2,0,0,-43
16:59:56:396021,-5,-24,-3,-2,2,-4,-41,17
16:59:56:396743,-5,-24,-3,-2,2,-4,-41,17
16:59:56:397611,-12,-20,-17,-6,1,-3,-10,21
16:59:56:410254,22,57,11,-5,-1,1,-4,-15
16:59:56:411106,22,57,11,-5,-1,1,-4,-15
16:59:56:417099,2,-39,9,0,5,8,-4,2
16:59:56:425986,-8,-11,-2,2,0,1,21,20
16:59:56:426730,-8,-11,-2,2,0,1,21,20
16:59:56:432116,33,19,8,-10,-2,-2,0,12
16:59:56:455973,0,-14,3,-4,-4,-6,-32,-2
16:59:56:456843,0,-14,3,-4,-4,-6,-32,-2
16:59:56:457656,-11,-21,-13,-18,-3,1,34,19
16:59:56:462148,6,-6,-6,-3,-4,-5,46,19
16:59:56:469726,6,-6,-6,-3,-4,-5,46,19
16:59:56:477096,1,31,3,7,0,-2,39,-16
16:59:56:485230,-24,-56,-9,-7,-6,-8,25,-40
16:59:56:486105,-24,-56,-9,-7,-6,-8,25,-40
16:59:56:492121,-11,15,7,1,-3,-6,-20,-66
16:59:56:515977,8,-50,2,6,5,9,4,-6
16:59:56:516854,8,-50,2,6,5,9,4,-6
16:59:56:517608,6,3,-2,-1,-2,-1,5,32
16:59:56:522114,14,20,2,5,1,2,54,11
16:59:56:529737,14,20,2,5,1,2,54,11
16:59:56:537114,8,6,6,9,8,6,-37,4
16:59:56:545240,5,1,-15,-14,-3,5,23,-7
16:59:56:546104,5,1,-15,-14,-3,5,23,-7
16:59:56:552118,8,1,-1,3,-1,-7,46,-4
16:59:56:575995,-3,-11,-10,-5,-3,2,-16,-35
16:59:56:576747,-3,-11,-10,-5,-3,2,-16,-35
16:59:56:577608,-5,-18,-1,0,6,8,14,0
16:59:56:582125,0,69,12,9,-2,-2,-19,-9
16:59:56:589606,0,69,12,9,-2,-2,-19,-9
16:59:56:597105,31,-81,3,-4,-14,-6,-69,27
16:59:56:605355,2,-19,-2,5,0,3,-1,29
16:59:56:606092,2,-19,-2,5,0,3,-1,29
16:59:56:612131,-37,-18,-15,-5,0,1,-44,8
16:59:56:628865,15,-11,-8,6,2,-2,-4,-35
16:59:56:635355,15,-11,-8,6,2,-2,-4,-35
16:59:56:636100,-3,21,-2,1,-5,-2,25,1
16:59:56:642101,-26,-8,-7,-3,4,4,-6,7
16:59:56:649733,-26,-8,-7,-3,4,4,-6,7
16:59:56:657159,-10,-2,-9,-1,-3,-5,15,29
16:59:56:673479,-7,-8,-4,-10,-5,-3,78,-49
16:59:56:674357,-7,-8,-4,-10,-5,-3,78,-49
16:59:56:675111,-24,-14,1,0,0,-11,-26,-67
16:59:56:687858,-15,-3,-10,-10,-3,-4,-23,38
16:59:56:688598,-15,-3,-10,-10,-3,-4,-23,38
16:59:56:694602,2,-35,-16,-2,-9,-6,-10,-13
16:59:56:710343,4,-17,-15,-5,6,1,-44,77
16:59:56:711102,4,-17,-15,-5,6,1,-44,77
16:59:56:717094,9,42,19,3,-7,-5,9,33
16:59:56:725370,16,-7,0,5,15,7,-25,-13
16:59:56:726094,16,-7,0,5,15,7,-25,-13
16:59:56:732090,-6,12,-10,-15,-3,-1,-7,-29
16:59:56:747848,2,24,16,2,-10,-7,-32,-4
16:59:56:748608,2,24,16,2,-10,-7,-32,-4
16:59:56:754598,16,67,8,10,4,3,2,-15
16:59:56:762093,-11,-21,15,9,2,-8,-53,-37
16:59:56:769625,-11,-21,15,9,2,-8,-53,-37
16:59:56:777135,-13,-19,0,1,0,2,14,11
16:59:56:793515,5,62,-2,1,-2,8,28,38
16:59:56:794365,5,62,-2,1,-2,8,28,38
16:59:56:795110,7,-26,-17,-1,0,-3,-16,-29
16:59:56:807735,-5,-24,-17,-7,-4,1,23,2
16:59:56:808598,-5,-24,-17,-7,-4,1,23,2
16:59:56:830999,-2,23,1,-3,4,3,-19,47
16:59:56:831742,-7,-10,1,0,-6,-5,35,10
16:59:56:832610,-7,-10,1,0,-6,-5,35,10
16:59:56:837105,-3,1,10,7,-1,-4,-63,-11
16:59:56:853521,28,11,-2,-9,-9,-10,15,59
16:59:56:854389,28,11,-2,-9,-9,-10,15,59
16:59:56:855223,12,-6,-7,-4,-2,3,42,33
16:59:56:867884,21,39,25,6,5,7,-25,-3
16:59:56:868644,21,39,25,6,5,7,-25,-3
16:59:56:874636,21,45,10,0,-1,0,-37,46
16:59:56:882146,3,62,4,-3,-7,-5,-3,-11
16:59:56:889628,3,62,4,-3,-7,-5,-3,-11
16:59:56:897106,-9,-1,3,2,5,-1,70,24
16:59:56:913514,-14,-20,0,2,6,1,16,-16
16:59:56:914367,-14,-20,0,2,6,1,16,-16
16:59:56:915147,-9,-13,-5,-10,-11,-4,34,-5
16:59:56:927774,-1,-39,-1,0,13,5,-37,36
16:59:56:928607,-1,-39,-1,0,13,5,-37,36
16:59:56:934643,31,-10,11,4,5,3,34,18
16:59:56:950260,-8,-37,-2,-1,-11,-4,-31,-47
16:59:56:951130,-8,-37,-2,-1,-11,-4,-31,-47
16:59:56:957125,4,1,1,-3,3,0,83,11
16:59:56:965284,3,-52,-26,3,4,4,2,-2
16:59:56:966116,3,-52,-26,3,4,4,2,-2
16:59:56:972138,-14,-50,-14,-5,-7,-4,-21,-18
16:59:56:987766,-7,8,-1,-3,-6,-6,-14,-55
16:59:56:988604,-7,8,-1,-3,-6,-6,-14,-55
16:59:56:994635,12,5,5,0,0,1,-63,39
16:59:57:10270,-12,5,-1,-5,3,-2,5,70
16:59:57:11128,-12,5,-1,-5,3,-2,5,70
16:59:57:17147,8,-1,3,-1,-1,-3,-13,-63
16:59:57:25255,-17,11,4,-2,-4,-4,70,86
16:59:57:26129,-17,11,4,-2,-4,-4,70,86
16:59:57:32135,-21,4,7,4,-1,3,-43,-33
16:59:57:47777,22,11,13,-1,-4,-2,35,20
16:59:57:48654,22,11,13,-1,-4,-2,35,20
16:59:57:54625,-7,70,20,5,10,5,4,10
16:59:57:70277,-5,-41,-6,-1,-7,-6,-27,-43
16:59:57:71126,-5,-41,-6,-1,-7,-6,-27,-43
16:59:57:77155,-3,1,-8,-8,-4,-1,1,-2
16:59:57:85271,-4,-17,4,1,-4,2,-22,-16
16:59:57:86127,-4,-17,4,1,-4,2,-22,-16
16:59:57:92136,-22,-13,-3,2,7,-1,-10,20
16:59:57:108250,4,5,-19,-9,-1,-2,26,-38
16:59:57:109146,4,5,-19,-9,-1,-2,26,-38
16:59:57:114627,-19,-12,-1,0,-6,-5,2,-69
16:59:57:130388,11,16,5,3,2,6,-26,-26
16:59:57:131125,11,16,5,3,2,6,-26,-26
16:59:57:146017,35,-9,-1,0,-3,-3,-47,7
16:59:57:146760,15,-31,5,4,8,-2,-33,29
16:59:57:147610,15,-31,5,4,8,-2,-33,29
16:59:57:152115,8,-49,-4,-3,-10,-5,-23,-1
16:59:57:167884,-10,-28,-2,-9,-6,-1,-11,-1
16:59:57:168601,-10,-28,-2,-9,-6,-1,-11,-1
16:59:57:174602,-8,4,0,-4,4,0,24,10
16:59:57:190249,-5,24,-8,-3,5,1,-10,18
16:59:57:191127,-5,24,-8,-3,5,1,-10,18
16:59:57:197122,-13,1,1,-2,-7,-10,4,41
16:59:57:205387,2,-3,3,3,0,-2,-1,-51
16:59:57:206158,2,-3,3,3,0,-2,-1,-51
16:59:57:212121,-8,-4,-11,1,6,9,34,21
16:59:57:228266,-25,5,4,3,-7,-7,6,-2
16:59:57:229135,-25,5,4,3,-7,-7,6,-2
16:59:57:234620,-29,-57,-7,-4,0,-1,7,-48
16:59:57:242139,-25,-26,-2,0,6,4,19,-11
16:59:57:249624,-25,-26,-2,0,6,4,19,-11
16:59:57:266648,-9,-22,4,-4,-10,-5,-7,12
16:59:57:267398,15,-26,4,-1,-1,-4,-15,-4
16:59:57:268287,15,-26,4,-1,-1,-4,-15,-4
16:59:57:288553,-2,14,2,-2,-1,2,-18,-1
16:59:57:289440,-6,0,11,5,-1,0,16,25
16:59:57:290137,-6,0,11,5,-1,0,16,25
16:59:57:294636,15,14,-5,-2,-2,-9,33,18
16:59:57:310410,17,-3,-8,-4,3,1,2,18
16:59:57:311127,17,-3,-8,-4,3,1,2,18
16:59:57:317109,-3,-5,-7,-1,0,10,29,6
16:59:57:325384,15,104,13,1,-2,4,6,4
16:59:57:326113,15,104,13,1,-2,4,6,4
16:59:57:339686,4,3,-17,0,0,-2,-13,-16
16:59:57:347911,-4,-25,-12,2,1,1,-10,-8
16:59:57:348674,-4,-25,-12,2,1,1,-10,-8
16:59:57:354613,14,12,18,2,-2,-6,-24,-2
16:59:57:370411,2,-20,-14,0,4,1,-6,-37
16:59:57:371139,2,-20,-14,0,4,1,-6,-37
16:59:57:377099,-11,-8,2,0,-4,-4,-35,-54
16:59:57:385423,-29,6,-1,-6,-8,-10,-26,13
16:59:57:386128,-29,6,-1,-6,-8,-10,-26,13
16:59:57:408522,-4,41,3,1,1,9,84,3
16:59:57:409271,6,69,14,0,-2,-1,34,14
16:59:57:410141,6,69,14,0,-2,-1,34,14
16:59:57:414644,1,-4,12,0,-2,-5,-21,6
16:59:57:431273,0,-76,-8,-4,-8,-4,2,-18
16:59:57:437773,0,-76,-8,-4,-8,-4,2,-18
16:59:57:438620,-1,17,-1,2,-1,-2,-8,11
16:59:57:445285,-8,15,-1,7,8,5,-9,-29
16:59:57:446141,-8,15,-1,7,8,5,-9,-29
16:59:57:459623,-4,-3,-3,-2,-7,-6,14,41
16:59:57:467774,16,-11,0,-4,-7,-2,53,-39
16:59:57:468641,16,-11,0,-4,-7,-2,53,-39
16:59:57:474655,2,2,-5,2,11,4,-34,-54
16:59:57:490424,0,1,-2,-3,-6,-9,16,-14
16:59:57:491228,0,1,-2,-3,-6,-9,16,-14
16:59:57:506032,6,76,8,-1,-2,-1,-6,-10
16:59:57:506900,6,76,8,-1,-2,-1,-6,-10
16:59:57:507654,-7,30,2,-3,-5,-1,-34,7
16:59:57:519659,-30,-32,-1,2,0,-5,-23,6
16:59:57:527904,-30,-32,-1,2,0,-5,-23,6
16:59:57:528649,-1,-19,-12,-3,0,3,10,24
16:59:57:534654,8,-24,-10,-5,-1,2,-23,27
16:59:57:550401,8,-24,-10,-5,-1,2,-23,27
16:59:57:551115,11,-6,5,-8,-7,0,-21,10
16:59:57:565272,41,-12,5,5,13,6,60,67
16:59:57:566185,41,-12,5,5,13,6,60,67
16:59:57:572158,1,11,2,-1,-8,-1,-40,9
16:59:57:579634,-13,-1,-8,-7,-10,-3,-72,71
16:59:57:587914,-13,-1,-8,-7,-10,-3,-72,71
16:59:57:588667,9,-12,0,2,6,-6,-50,23
16:59:57:594664,-47,-9,-1,-1,-2,0,21,-81
16:59:57:610406,-47,-9,-1,-1,-2,0,21,-81
16:59:57:611156,-5,20,0,2,-1,4,14,4
16:59:57:625287,-18,-41,14,-2,-4,-4,-13,-35
16:59:57:626152,-18,-41,14,-2,-4,-4,-13,-35
16:59:57:632161,5,25,6,2,2,0,9,-3
16:59:57:639681,5,13,-3,-9,-8,-5,11,7
16:59:57:647929,5,13,-3,-9,-8,-5,11,7
16:59:57:648720,-4,8,-5,3,15,8,32,-24
16:59:57:654634,-45,-25,-3,-4,-10,-11,-1,-85
16:59:57:670987,-45,-25,-3,-4,-10,-11,-1,-85
16:59:57:671883,-9,-19,-10,-14,-18,-11,100,-1
16:59:57:686024,18,-11,-11,4,14,9,20,81
16:59:57:686733,18,-11,-11,4,14,9,20,81
16:59:57:687613,-1,1,-4,-1,-4,-8,-52,53
16:59:57:699635,-8,-29,2,-5,-4,-2,15,20
16:59:57:707785,-8,-29,2,-5,-4,-2,15,20
16:59:57:708613,-10,-66,22,2,1,3,-25,16
16:59:57:714650,21,6,20,2,0,0,-21,-13
16:59:57:730399,21,6,20,2,0,0,-21,-13
16:59:57:731148,-10,10,-20,-2,-3,-6,-24,-8
16:59:57:737150,7,0,-13,0,-3,-3,-3,-27
16:59:57:745290,7,0,-13,0,-3,-3,-3,-27
16:59:57:746103,8,20,23,10,3,2,-17,13
16:59:57:759606,-5,38,-4,11,4,5,-2,18
16:59:57:767894,-5,38,-4,11,4,5,-2,18
16:59:57:768615,-21,-25,-3,-2,-2,2,-20,-14
16:59:57:774635,-6,-46,-6,-6,-5,-4,-27,-10
16:59:57:790366,-6,-46,-6,-6,-5,-4,-27,-10
16:59:57:791129,4,26,-14,-9,-2,-2,-6,-26
16:59:57:797121,24,1,-14,2,12,5,-11,16
16:59:57:805403,24,1,-14,2,12,5,-11,16
16:59:57:806145,22,-65,-15,-6,-8,-4,-6,9
16:59:57:819635,-4,-61,-41,-16,-9,-5,5,25
16:59:57:827860,-4,-61,-41,-16,-9,-5,5,25
16:59:57:828630,13,54,32,7,3,-2,16,-34
16:59:57:842151,-2,68,29,0,6,3,29,29
16:59:57:850413,-2,68,29,0,6,3,29,29
16:59:57:851137,2,-2,-17,-4,-1,-3,-55,19
16:59:57:857123,4,-6,-10,-6,-5,-5,-26,-15
16:59:57:865402,4,-6,-10,-6,-5,-5,-26,-15
16:59:57:866116,10,-49,-9,-8,-3,0,1,21
16:59:57:879637,12,46,26,8,2,1,9,-2
16:59:57:887903,12,46,26,8,2,1,9,-2
16:59:57:888645,-4,21,7,-5,4,3,10,-23
16:59:57:894682,0,-11,14,1,-4,-4,-4,-24
16:59:57:910401,0,-11,14,1,-4,-4,-4,-24
16:59:57:911134,11,1,-14,-9,-5,-3,3,20
16:59:57:917151,9,111,3,15,7,6,22,-29
16:59:57:925375,9,111,3,15,7,6,22,-29
16:59:57:926115,-2,-27,-20,8,0,-3,-2,-3
16:59:57:939629,5,-46,-6,-12,-5,-2,-20,-47
16:59:57:947906,5,-46,-6,-12,-5,-2,-20,-47
16:59:57:948622,-18,21,-4,-6,-3,-3,-4,5
16:59:57:954668,35,1,2,-1,1,0,-20,19
16:59:57:970389,35,1,2,-1,1,0,-20,19
16:59:57:971111,-4,2,18,9,1,2,-43,-12
16:59:57:977149,6,-20,6,-2,3,6,-1,19
16:59:57:985370,6,-20,6,-2,3,6,-1,19
16:59:57:986127,15,-18,-2,3,1,-1,-4,-13
16:59:57:999634,-13,48,2,-7,-2,-6,10,-12
16:59:58:7895,-13,48,2,-7,-2,-6,10,-12
16:59:58:8620,-29,16,13,-1,-1,-4,30,-35
16:59:58:14640,-13,-44,-30,-14,-12,-8,-40,-3
16:59:58:30276,-13,-44,-30,-14,-12,-8,-40,-3
16:59:58:31127,-21,-22,13,5,-3,-3,53,1
16:59:58:37134,27,29,13,9,2,-1,-25,-7
16:59:58:45405,27,29,13,9,2,-1,-25,-7
16:59:58:46178,-18,-12,-10,-4,-4,-1,43,7
16:59:58:59672,-30,-59,-14,-5,-1,-3,32,-43
16:59:58:68289,-30,-59,-14,-5,-1,-3,32,-43
16:59:58:75282,10,13,6,1,4,-2,-18,31
16:59:58:76150,-12,11,-9,3,-6,-3,15,21
16:59:58:97641,-12,11,-9,3,-6,-3,15,21
16:59:58:106635,-1,-13,-5,-5,1,4,-1,-17
16:59:58:107374,-3,-1,1,-6,0,-2,12,7
16:59:58:108264,-3,-1,1,-6,0,-2,12,7
16:59:58:109116,4,7,-1,2,9,1,-51,0
16:59:58:120125,21,-3,4,4,-8,-1,-25,-1
16:59:58:127881,21,-3,4,4,-8,-1,-25,-1
16:59:58:128632,-4,-19,-24,-16,-4,0,6,29
16:59:58:134610,6,-57,-15,-4,-1,-1,-4,2
16:59:58:150359,6,-57,-15,-4,-1,-1,-4,2
16:59:58:151127,4,58,13,4,-2,-1,-8,-22
16:59:58:157113,6,-22,4,1,1,9,34,7
16:59:58:165368,6,-22,4,1,1,9,34,7
16:59:58:166126,5,-20,-1,2,2,-2,-10,7
16:59:58:179612,-27,-31,-18,4,-6,-5,-5,-21
16:59:58:187872,-27,-31,-18,4,-6,-5,-5,-21
16:59:58:188644,-10,-6,-29,-16,4,-1,3,-10
16:59:58:202154,-13,2,12,9,-5,-4,-18,-5
16:59:58:210408,-13,2,12,9,-5,-4,-18,-5
16:59:58:211119,-5,-3,6,6,8,6,73,-10
16:59:58:217169,9,23,-6,-4,0,0,-3,26
16:59:58:224631,9,23,-6,-4,0,0,-3,26
16:59:58:232131,12,18,10,3,-6,2,-21,-10
16:59:58:239629,4,44,-12,4,2,0,11,-6
16:59:58:247882,4,44,-12,4,2,0,11,-6
16:59:58:248623,-10,2,-1,1,2,3,2,14
16:59:58:262182,0,62,22,2,4,6,29,3
16:59:58:270369,0,62,22,2,4,6,29,3
16:59:58:271120,2,-17,-9,-10,-12,-2,-11,-48
16:59:58:277136,-11,-26,-1,-4,3,0,56,20
16:59:58:284615,-11,-26,-1,-4,3,0,56,20
16:59:58:292143,7,-1,-10,-1,-1,2,9,-24
16:59:58:299648,-37,-21,-13,-6,1,-4,-45,3
16:59:58:307786,-37,-21,-13,-6,1,-4,-45,3
16:59:58:308648,-2,-2,5,-2,-5,-5,34,9
16:59:58:322125,3,-6,0,-7,-1,0,12,-70
16:59:58:330176,3,-6,0,-7,-1,0,12,-70
16:59:58:337813,16,68,11,4,0,-1,-24,6
16:59:58:338645,8,-28,3,-8,-7,2,-6,-21
16:59:58:344632,8,-28,3,-8,-7,2,-6,-21
16:59:58:352161,4,-26,1,5,5,-6,-49,13
16:59:58:359642,38,10,4,0,-4,-2,-57,53
16:59:58:367741,38,10,4,0,-4,-2,-57,53
16:59:58:368658,-1,-33,-24,-2,-6,-5,-2,-39
16:59:58:382153,-9,-27,-5,-1,4,1,22,-2
16:59:58:390285,-9,-27,-5,-1,4,1,22,-2
16:59:58:391130,-7,-14,7,-3,-5,2,40,-4
16:59:58:397132,5,12,4,2,1,-6,25,1
16:59:58:404630,5,12,4,2,1,-6,25,1
16:59:58:412210,-25,-21,-7,-8,-8,-1,-23,10
16:59:58:419610,9,11,4,6,13,-8,9,119
16:59:58:427888,9,11,4,6,13,-8,9,119
16:59:58:428638,-42,-2,-5,-4,-3,1,-5,15
16:59:58:442139,-15,-41,-11,-6,-9,-5,-12,-23
16:59:58:450381,-15,-41,-11,-6,-9,-5,-12,-23
16:59:58:451123,-2,-14,-11,0,-6,-4,-21,-36
16:59:58:457135,-12,9,-18,-10,-11,2,-23,-16
16:59:58:464629,-12,9,-18,-10,-11,2,-23,-16
16:59:58:472137,15,10,11,19,21,8,-8,7
16:59:58:479682,2,37,5,2,2,8,-57,-25
16:59:58:495292,2,37,5,2,2,8,-57,-25
16:59:58:496145,24,-2,4,-9,-15,-12,-72,62
16:59:58:502146,-17,8,10,1,2,-2,-70,-36
16:59:58:510391,-17,8,10,1,2,-2,-70,-36
16:59:58:511143,9,40,23,9,4,-1,34,62
16:59:58:517155,9,65,0,-3,-1,3,1,-11
16:59:58:524641,9,65,0,-3,-1,3,1,-11
16:59:58:532155,-13,-23,-3,-3,-7,1,49,13
16:59:58:539662,-11,-23,2,3,3,0,10,50
16:59:58:547896,-11,-23,2,3,3,0,10,50
16:59:58:548659,-3,12,3,-1,-4,-1,0,3
16:59:58:562169,4,-13,7,2,-4,0,27,-30
16:59:58:570384,4,-13,7,2,-4,0,27,-30
16:59:58:571150,-23,-51,2,-3,-6,-3,-18,-63
16:59:58:577125,-7,-25,-8,-3,-4,-2,-38,-12
16:59:58:584624,-7,-25,-8,-3,-4,-2,-38,-12
16:59:58:592140,24,-23,-2,9,15,7,-19,-21
16:59:58:599649,-9,1,-16,-14,-5,-1,30,35
16:59:58:607776,-9,1,-16,-14,-5,-1,30,35
16:59:58:608617,5,16,-21,-6,-3,-5,39,-2
16:59:58:622147,11,-9,5,3,-3,-3,41,-10
16:59:58:630400,11,-9,5,3,-3,-3,41,-10
16:59:58:631145,-20,-57,-5,-10,-5,3,24,22
16:59:58:637147,6,-12,-1,-2,-1,-4,-6,-14
16:59:58:644615,6,-12,-1,-2,-1,-4,-6,-14
16:59:58:652171,37,16,3,4,9,0,-31,-13
16:59:58:659644,0,-2,-4,-2,-6,-4,-4,4
16:59:58:667756,0,-2,-4,-2,-6,-4,-4,4
16:59:58:668615,-4,15,2,-4,-3,-5,-16,5
16:59:58:682142,5,-8,-23,9,-4,-2,33,-23
16:59:58:690133,5,-8,-23,9,-4,-2,33,-23
16:59:58:697768,-23,-13,-5,-7,-2,-7,-59,-10
16:59:58:698629,-36,-18,9,-7,-13,-15,1,18
16:59:58:704678,-36,-18,9,-7,-13,-15,1,18
16:59:58:712145,-10,6,-1,3,14,2,-24,4
16:59:58:719632,-6,28,10,-2,-3,-11,10,41
16:59:58:735259,-6,28,10,-2,-3,-11,10,41
16:59:58:736131,8,21,11,2,-8,-10,35,34
16:59:58:742137,25,35,13,7,6,13,7,-7
16:59:58:750272,25,35,13,7,6,13,7,-7
16:59:58:751132,-3,10,-35,-2,-4,2,10,-2
16:59:58:757136,17,-11,4,5,5,1,-8,-51
16:59:58:764634,17,-11,4,5,5,1,-8,-51
16:59:58:772172,12,13,9,1,-15,-4,7,-21
16:59:58:779649,-13,-10,-8,2,14,11,-9,-36
16:59:58:787886,-13,-10,-8,2,14,11,-9,-36
16:59:58:788630,12,1,8,-1,1,-3,-21,-44
16:59:58:802140,-18,-7,11,-1,-1,4,-29,6
16:59:58:818868,-18,-7,11,-1,-1,4,-29,6
16:59:58:819770,-5,1,-2,-4,-7,2,43,-8
16:59:58:825241,1,33,6,3,12,4,-15,7
16:59:58:826119,1,33,6,3,12,4,-15,7
16:59:58:832141,-22,-32,11,6,-4,-4,-9,12
16:59:58:839631,-3,-21,7,-2,-7,-5,27,8
16:59:58:847880,-3,-21,7,-2,-7,-5,27,8
16:59:58:848620,18,11,6,6,1,2,-17,15
16:59:58:862138,4,-8,-16,1,14,8,3,0
16:59:58:870374,4,-8,-16,1,14,8,3,0
16:59:58:871110,-4,6,2,6,-4,2,-6,-9
16:59:58:877142,-4,-7,-2,-6,-11,-12,-22,-9
16:59:58:892771,-4,-7,-2,-6,-11,-12,-22,-9
16:59:58:893658,3,11,4,2,20,9,-5,56
16:59:58:899634,11,-6,-3,-5,-10,-10,-14,18
16:59:58:907768,11,-6,-3,-5,-10,-10,-14,18
16:59:58:908638,3,4,3,-6,-6,-8,-27,-14
16:59:58:922143,-13,-14,0,-6,-11,2,22,13
16:59:58:930254,-13,-14,0,-6,-11,2,22,13
16:59:58:931142,-13,-23,-22,5,19,-1,35,1
16:59:58:937148,14,60,15,1,-1,0,0,-8
16:59:58:944631,14,60,15,1,-1,0,0,-8
16:59:58:952152,1,8,13,-2,-5,-1,3,-2
16:59:58:959667,1,-22,-10,-4,1,-4,-18,-38
16:59:58:967892,1,-22,-10,-4,1,-4,-18,-38
16:59:58:968660,13,28,2,-3,-6,1,3,4
16:59:58:982149,-17,-7,-21,-19,-5,-1,-37,20
16:59:58:990267,-17,-7,-21,-19,-5,-1,-37,20
16:59:58:991144,21,-9,-1,-2,3,0,48,-21
16:59:58:997160,-20,-12,-10,6,0,-3,12,-8
16:59:59:4628,-20,-12,-10,6,0,-3,12,-8
16:59:59:12159,3,11,-9,-12,-1,4,20,14
16:59:59:19628,7,-29,-2,1,-7,-1,2,-18
16:59:59:27883,7,-29,-2,1,-7,-1,2,-18
16:59:59:28644,-16,2,18,8,-1,12,54,-11
16:59:59:42151,2,-5,3,3,7,1,-13,19
16:59:59:50396,2,-5,3,3,7,1,-13,19
16:59:59:51129,-7,-3,-4,-10,-15,-12,-58,-17
16:59:59:57140,43,-13,17,4,-1,-5,-26,-1
16:59:59:64684,43,-13,17,4,-1,-5,-26,-1
16:59:59:72144,-32,-4,-2,1,2,0,-44,-4
16:59:59:79644,-11,-10,6,-6,-8,-4,18,-5
16:59:59:87921,-11,-10,6,-6,-8,-4,18,-5
16:59:59:88639,5,-9,-10,-5,-2,-6,-30,-22
16:59:59:111035,6,12,1,8,16,3,27,-14
16:59:59:111824,6,12,1,8,16,3,27,-14
16:59:59:112681,-22,-1,-2,-6,-11,-5,7,11
16:59:59:117171,25,-1,-8,-4,-7,-3,-38,3
16:59:59:124674,25,-1,-8,-4,-7,-3,-38,3
16:59:59:140288,15,-3,7,-4,-5,-3,20,0
16:59:59:141150,-33,-16,-10,4,5,3,40,-4
16:59:59:147144,-33,-16,-10,4,5,3,40,-4
16:59:59:154647,5,3,0,5,-1,-3,-6,21
16:59:59:162146,6,7,9,-2,-7,7,64,26
16:59:59:170380,6,7,9,-2,-7,7,64,26
16:59:59:171165,9,-2,2,5,6,10,17,0
16:59:59:185250,-19,1,-1,-7,-14,-2,-67,2
16:59:59:186127,-19,1,-1,-7,-14,-2,-67,2
16:59:59:192118,-23,-19,-5,3,7,-1,-24,-48
16:59:59:199629,19,19,-3,-4,1,1,-4,-17
16:59:59:207141,19,19,-3,-4,1,1,-4,-17
16:59:59:214629,-13,4,-19,-9,-19,-13,-41,-16
16:59:59:222136,-12,10,-7,9,39,21,31,-22
16:59:59:230373,-12,10,-7,9,39,21,31,-22
16:59:59:231113,4,6,5,-6,-11,-6,43,-42
16:59:59:245290,-1,-7,1,2,-6,-9,8,13
16:59:59:246141,-1,-7,1,2,-6,-9,8,13
16:59:59:252147,2,-7,-7,1,1,3,-14,2
16:59:59:259645,-2,-20,-3,4,-1,-4,61,33
16:59:59:267147,-2,-20,-3,4,-1,-4,61,33
16:59:59:274638,7,77,8,-9,-5,3,-9,-12
16:59:59:282126,-5,-11,-1,-8,-16,-11,-28,12
16:59:59:297891,-5,-11,-1,-8,-16,-11,-28,12
16:59:59:298641,-4,-20,-5,3,21,3,28,31
16:59:59:305397,0,41,-13,-4,-2,0,-2,-22
16:59:59:306124,0,41,-13,-4,-2,0,-2,-22
16:59:59:312129,-6,-8,-21,3,1,-1,-7,11
16:59:59:319648,5,-20,-6,-4,-9,-6,-8,3
16:59:59:327121,5,-20,-6,-4,-9,-6,-8,3
16:59:59:334631,-13,-61,-6,11,1,-6,-3,17
16:59:59:342147,-4,1,17,4,-5,-8,-22,-6
16:59:59:350268,-4,1,17,4,-5,-8,-22,-6
16:59:59:351138,10,71,8,16,15,7,-21,-18
16:59:59:365251,-12,-27,4,2,-1,2,-2,-18
16:59:59:366151,-12,-27,4,2,-1,2,-2,-18
16:59:59:372129,-3,-53,6,1,-5,-3,-12,5
16:59:59:379674,23,22,-3,-6,-5,-5,40,-22
16:59:59:387163,23,22,-3,-6,-5,-5,40,-22
16:59:59:394673,5,-11,-2,1,12,5,-9,28
16:59:59:402143,-1,18,3,-3,-5,2,4,12
16:59:59:411016,-1,18,3,-3,-5,2,4,12
16:59:59:411881,12,-48,6,0,-8,-2,12,8
16:59:59:425275,-6,53,18,12,0,0,-4,-5
16:59:59:426130,-6,53,18,12,0,0,-4,-5
16:59:59:432157,-3,-86,-33,-12,-7,-2,0,15
16:59:59:439634,1,-29,-21,4,6,1,0,-11
16:59:59:447135,1,-29,-21,4,6,1,0,-11
16:59:59:454657,-13,-50,7,-2,-3,-5,-1,-27
16:59:59:462174,-11,19,-5,3,6,1,-19,8
16:59:59:470504,-11,19,-5,3,6,1,-19,8
16:59:59:471158,24,35,9,-9,-4,-1,6,-25
16:59:59:485286,3,40,-1,-20,4,3,-5,8
16:59:59:486156,3,40,-1,-20,4,3,-5,8
16:59:59:492155,-18,42,-32,-10,-1,0,9,21
16:59:59:499660,-4,-17,14,0,-8,-9,-5,14
16:59:59:507161,-4,-17,14,0,-8,-9,-5,14
16:59:59:514669,7,107,4,0,4,3,14,7
16:59:59:531410,-7,-55,3,-4,-7,-7,-11,-7
16:59:59:532299,-7,-55,3,-4,-7,-7,-11,-7
16:59:59:537145,-7,-39,31,7,-1,-3,-5,-1
16:59:59:545282,0,0,-27,-15,0,1,-3,6
16:59:59:546158,0,0,-27,-15,0,1,-3,6
16:59:59:552141,11,16,15,11,3,1,25,0
16:59:59:575899,-5,-14,13,24,10,3,2,2
16:59:59:576758,-5,-14,13,24,10,3,2,2
16:59:59:577650,-23,-34,1,-4,-6,-1,-4,-23
16:59:59:582149,-22,2,-5,0,-1,0,-9,-24
16:59:59:590258,-22,2,-5,0,-1,0,-9,-24
16:59:59:591146,6,-31,-9,-10,2,4,1,14
16:59:59:605268,3,-43,-33,-12,-8,-8,3,-17
16:59:59:606151,3,-43,-33,-12,-8,-8,3,-17
16:59:59:612143,-3,12,10,-7,-15,-12,-18,5
16:59:59:619634,6,-21,-20,-12,16,11,12,14
16:59:59:627118,6,-21,-20,-12,16,11,12,14
16:59:59:634662,3,-11,-19,-5,1,-2,-8,-47
16:59:59:642134,1,-2,7,-1,-4,-9,-15,5
16:59:59:650398,1,-2,7,-1,-4,-9,-15,5
16:59:59:651137,2,3,4,-6,-2,-6,-10,-25
16:59:59:665285,5,-13,2,-12,-5,-1,11,-3
16:59:59:666169,5,-13,2,-12,-5,-1,11,-3
16:59:59:672142,8,11,4,4,5,-4,2,35
16:59:59:679665,-22,22,19,9,0,2,12,21
16:59:59:687180,-22,22,19,9,0,2,12,21
16:59:59:694641,3,0,-7,-17,-11,-8,-22,-7
16:59:59:702176,-5,-31,-2,7,8,-1,22,-27
16:59:59:710384,-5,-31,-2,7,8,-1,22,-27
16:59:59:711149,9,21,-10,6,10,10,24,27
16:59:59:725801,11,4,3,2,-6,-2,-11,9
16:59:59:732770,11,4,3,2,-6,-2,-11,9
16:59:59:733640,15,13,-7,-6,-6,-7,-34,23
16:59:59:739645,19,19,11,11,-1,-2,-17,-1
16:59:59:747145,19,19,11,11,-1,-2,-17,-1
16:59:59:754647,-3,3,11,-7,-8,2,-16,-2
16:59:59:762160,-1,30,-5,2,1,-3,-7,-1
16:59:59:770386,-1,30,-5,2,1,-3,-7,-1
16:59:59:771158,-19,-7,-3,-3,-5,1,-1,2
16:59:59:785403,15,-8,-1,-5,6,6,46,37
16:59:59:786158,15,-8,-1,-5,6,6,46,37
16:59:59:792145,-1,18,13,2,-8,-4,0,-3
16:59:59:799641,-3,-9,2,-2,-7,-6,-1,-1
16:59:59:807149,-3,-9,2,-2,-7,-6,-1,-1
16:59:59:814641,-2,-8,-16,5,4,1,12,4
16:59:59:822165,-12,-14,-3,-2,-4,3,18,-13
16:59:59:830295,-12,-14,-3,-2,-4,3,18,-13
16:59:59:831163,-8,-34,-14,-13,-2,-1,4,16
16:59:59:845290,-7,-9,-20,-13,-11,-9,-63,6
16:59:59:846160,-7,-9,-20,-13,-11,-9,-63,6
16:59:59:852175,8,7,6,3,6,-2,-32,-39
16:59:59:859662,-24,24,26,7,3,2,-20,-17
16:59:59:867170,-24,24,26,7,3,2,-20,-17
16:59:59:874648,4,3,-20,-18,-7,-2,15,9
16:59:59:882133,6,-10,12,5,-1,-1,-21,-8
16:59:59:890268,6,-10,12,5,-1,-1,-21,-8
16:59:59:891131,1,7,2,7,6,5,8,-13
16:59:59:905270,-4,-20,3,-6,-2,1,11,-10
16:59:59:906143,-4,-20,3,-6,-2,1,11,-10
16:59:59:912133,-6,4,8,6,-7,-7,24,6
16:59:59:919631,-8,0,-11,-10,14,3,-18,-22
16:59:59:927139,-8,0,-11,-10,14,3,-18,-22
16:59:59:934656,-12,-8,12,5,-5,-2,9,-16
16:59:59:942162,41,-68,-53,-19,-13,-5,4,-41
16:59:59:950400,41,-68,-53,-19,-13,-5,4,-41
16:59:59:951143,0,-56,-7,-9,2,-1,-6,13
16:59:59:965262,10,1,4,4,0,0,21,33
16:59:59:966152,10,1,4,4,0,0,21,33
16:59:59:972134,1,-7,-19,2,-2,-3,16,7
16:59:59:979639,-2,20,-1,1,3,-5,-19,-12
16:59:59:987165,-2,20,-1,1,3,-5,-19,-12
16:59:59:994642,-6,21,9,-12,-7,0,4,7
17:00:00:11083,-20,5,-32,-12,5,-2,25,30
17:00:00:11871,-20,5,-32,-12,5,-2,25,30
17:00:00:12669,13,-5,6,6,7,6,61,-26
17:00:00:25303,-14,44,25,9,-6,-5,35,6
17:00:00:26163,-14,44,25,9,-6,-5,35,6
17:00:00:32175,-12,1,-6,0,1,4,26,19
17:00:00:47782,16,48,14,14,0,-1,-5,12
17:00:00:48656,16,48,14,14,0,-1,-5,12
17:00:00:54672,4,62,-3,-10,-4,1,-24,-9
17:00:00:62159,-11,-34,5,-5,-3,-11,10,-1
17:00:00:70296,-11,-34,5,-5,-3,-11,10,-1
17:00:00:71174,8,1,11,16,10,2,-34,-24
17:00:00:85309,10,2,1,-6,-8,4,3,-50
17:00:00:86166,10,2,1,-6,-8,4,3,-50
17:00:00:92158,-7,-16,17,3,-5,-5,-11,16
17:00:00:107772,-7,-16,22,5,-3,-2,-30,4
17:00:00:108654,-7,-16,22,5,-3,-2,-30,4
17:00:00:114633,0,-22,-5,-6,-4,-7,25,23
17:00:00:122154,3,-5,-10,-16,2,-1,-61,21
17:00:00:129635,3,-5,-10,-16,2,-1,-61,21
17:00:00:137206,-14,10,7,0,9,-2,-77,-18
17:00:00:145261,-24,8,10,8,-1,2,23,-61
17:00:00:146133,-24,8,10,8,-1,2,23,-61
17:00:00:152161,-15,-14,-7,3,-15,-7,37,50
17:00:00:167774,-4,-22,-12,-6,7,11,1,-7
17:00:00:168630,-4,-22,-12,-6,7,11,1,-7
17:00:00:174629,6,6,1,5,1,-5,8,28
17:00:00:182154,1,6,13,5,-13,1,24,13
17:00:00:189621,1,6,13,5,-13,1,24,13
17:00:00:197132,17,-3,-7,1,18,9,9,-4
17:00:00:205272,-20,-6,-3,3,-2,3,8,-47
17:00:00:206174,-20,-6,-3,3,-2,3,8,-47
17:00:00:212162,-10,-25,-4,1,-5,5,-20,-30
17:00:00:227772,18,1,-10,-5,-13,-8,-12,9
17:00:00:228649,18,1,-10,-5,-13,-8,-12,9
17:00:00:234652,-21,-11,6,9,17,8,-24,-59
17:00:00:242154,12,-14,-12,-3,-4,-4,-6,26
17:00:00:249654,12,-14,-12,-3,-4,-4,-6,26
17:00:00:257178,8,6,0,-5,-14,-8,3,-12
17:00:00:265268,17,-59,-12,4,16,4,-41,7
17:00:00:266168,17,-59,-12,4,16,4,-41,7
17:00:00:272145,20,17,7,-4,-14,-2,24,12
17:00:00:287778,8,2,7,9,12,3,-20,19
17:00:00:288700,8,2,7,9,12,3,-20,19
17:00:00:294644,5,-16,-7,0,-2,-5,-23,45
17:00:00:302161,-2,3,-1,-10,-15,-7,13,15
17:00:00:318276,-2,3,-1,-10,-15,-7,13,15
17:00:00:326055,9,0,0,1,8,4,44,11
17:00:00:326764,-13,13,-9,1,-7,-7,8,24
17:00:00:327641,-13,13,-9,1,-7,-7,8,24
17:00:00:332152,-5,-3,-1,2,-3,-4,-2,-34
17:00:00:347770,-7,17,-1,-2,5,7,60,6
17:00:00:348644,-7,17,-1,-2,5,7,60,6
17:00:00:354642,34,15,2,-2,-7,-6,-35,19
17:00:00:362160,4,1,11,7,1,-6,-30,-9
17:00:00:369663,4,1,11,7,1,-6,-30,-9
17:00:00:377157,-22,-49,-1,-2,-2,3,33,-4
17:00:00:385398,-24,-23,-10,-10,-8,-6,-26,-62
17:00:00:386140,-24,-23,-10,-10,-8,-6,-26,-62
17:00:00:392156,-9,-6,0,-6,-7,-5,0,2
17:00:00:407782,19,16,4,-2,2,-1,-17,1
17:00:00:408643,19,16,4,-2,2,-1,-17,1
17:00:00:414666,7,23,4,10,11,3,-78,-26
17:00:00:422164,2,13,7,2,3,6,42,-21
17:00:00:429652,2,13,7,2,3,6,42,-21
17:00:00:437140,-30,-1,-3,3,-8,-9,6,34
17:00:00:445257,5,-3,0,-4,-2,3,-10,28
17:00:00:446136,5,-3,0,-4,-2,3,-10,28
17:00:00:452144,-12,4,-7,-7,3,6,-14,-54
17:00:00:467767,2,-3,-12,-8,-6,-10,-32,30
17:00:00:468635,2,-3,-12,-8,-6,-10,-32,30
17:00:00:474651,4,15,-2,2,23,11,56,-1
17:00:00:482142,6,24,18,3,-5,-1,1,-5
17:00:00:489646,6,24,18,3,-5,-1,1,-5
17:00:00:497149,-36,2,7,-2,-11,-3,-4,-40
17:00:00:505281,-9,-7,6,3,12,4,27,11
17:00:00:506137,-9,-7,6,3,12,4,27,11
17:00:00:512161,-16,-4,5,-11,-12,-7,-17,7
17:00:00:527754,-6,-27,1,6,-4,-4,10,16
17:00:00:528660,-6,-27,1,6,-4,-4,10,16
17:00:00:534639,0,10,-9,-1,10,5,22,-1
17:00:00:542153,-4,-15,-4,-3,-6,1,-1,0
17:00:00:549652,-4,-15,-4,-3,-6,1,-1,0
17:00:00:565899,23,11,6,4,-6,-11,-36,27
17:00:00:566779,-4,37,2,2,12,1,14,-9
17:00:00:567527,-4,37,2,2,12,1,14,-9
17:00:00:572137,10,-8,-8,-3,-13,-6,-47,-22
17:00:00:587780,-2,-33,3,-3,5,2,-24,-3
17:00:00:588641,-2,-33,3,-3,5,2,-24,-3
17:00:00:594678,1,-1,0,-5,-5,-1,15,26
17:00:00:602162,-8,-6,-8,-2,7,4,0,42
17:00:00:609662,-8,-6,-8,-2,7,4,0,42
17:00:00:617148,6,6,4,6,1,10,60,16
17:00:00:625270,16,11,-14,-11,-16,-5,-12,-35
17:00:00:626184,16,11,-14,-11,-16,-5,-12,-35
17:00:00:632144,-4,8,4,11,20,1,9,-28
17:00:00:647766,-9,7,-1,0,-7,-4,27,2
17:00:00:648672,-9,7,-1,0,-7,-4,27,2
17:00:00:654648,-12,-8,2,2,-4,-3,-27,-38
17:00:00:662166,12,12,0,3,-5,2,-4,-17
17:00:00:669636,12,12,0,3,-5,2,-4,-17
17:00:00:677162,-8,-22,-24,-4,-7,-7,-6,24
17:00:00:685887,8,-3,7,4,5,-4,-15,7
17:00:00:686761,8,-3,7,4,5,-4,-15,7
17:00:00:692149,4,-20,-4,-5,10,2,14,-6
17:00:00:707796,-7,-3,-5,-4,-7,-5,8,20
17:00:00:708644,-7,-3,-5,-4,-7,-5,8,20
17:00:00:714666,7,12,3,-3,2,0,13,7
17:00:00:722170,10,12,19,5,-5,-1,33,23
17:00:00:729645,10,12,19,5,-5,-1,33,23
17:00:00:737139,8,2,-6,-15,-13,-18,22,-12
17:00:00:745278,-6,-3,-7,0,5,0,-31,5
17:00:00:746136,-6,-3,-7,0,5,0,-31,5
17:00:00:752157,11,13,7,-2,-6,6,-29,5
17:00:00:767771,-14,-8,-6,-8,-7,-3,-17,-20
17:00:00:768661,-14,-8,-6,-8,-7,-3,-17,-20
17:00:00:774661,-20,-7,13,5,-1,-5,-14,9
17:00:00:782176,9,-14,-15,-3,-8,-2,3,-7
17:00:00:789660,9,-14,-15,-3,-8,-2,3,-7
17:00:00:797163,-15,7,0,3,5,1,3,18
17:00:00:813526,-10,-1,10,7,7,-1,31,32
17:00:00:814285,-10,-1,10,7,7,-1,31,32
17:00:00:815180,9,3,-8,0,0,8,7,-8
17:00:00:828281,-3,3,-6,-5,-8,5,25,3
17:00:00:829176,-3,3,-6,-5,-8,5,25,3
17:00:00:834680,3,2,-4,-1,6,-5,13,97
17:00:00:842191,2,1,-5,3,-1,-2,-21,-11
17:00:00:849687,2,1,-5,3,-1,-2,-21,-11
17:00:00:857149,0,-2,7,4,-4,-7,-7,-44
17:00:00:865271,-4,7,-10,-18,-17,-9,13,14
17:00:00:866178,-4,7,-10,-18,-17,-9,13,14
17:00:00:872168,2,9,4,-7,21,11,10,27
17:00:00:887794,-12,-3,-10,-9,-5,-3,28,-23
17:00:00:888654,-12,-3,-10,-9,-5,-3,28,-23
17:00:00:894644,-2,-4,-1,2,-8,-3,37,-19
17:00:00:902167,-11,-9,4,12,17,11,56,-6
17:00:00:909690,-11,-9,4,12,17,11,56,-6
17:00:00:917143,10,-4,-3,0,-10,3,-14,13
17:00:00:925303,8,-18,-7,3,1,-7,-55,-49
17:00:00:926165,8,-18,-7,3,1,-7,-55,-49
17:00:00:932148,-4,0,-8,-1,-2,-1,-5,-21
17:00:00:947786,2,6,7,-2,-6,-1,-27,9
17:00:00:948659,2,6,7,-2,-6,-1,-27,9
17:00:00:954653,15,9,5,3,14,7,-37,-34
17:00:00:970275,3,2,-2,2,12,6,7,-33
17:00:00:971145,3,2,-2,2,12,6,7,-33
17:00:00:977158,-15,-6,-8,-4,-19,-14,27,-7
17:00:00:985023,25,12,9,4,1,-3,-45,-3
17:00:00:993262,25,12,9,4,1,-3,-45,-3
17:00:00:999647,6,-7,5,0,-3,-1,-38,-20
17:00:01:7800,-25,-5,14,10,1,1,-23,-27
17:00:01:8703,-25,-5,14,10,1,1,-23,-27
17:00:01:14673,5,4,7,2,-10,0,-6,16
17:00:01:22177,-3,0,1,-1,-6,-11,-78,-5
17:00:01:37918,-3,0,1,-1,-6,-11,-78,-5
17:00:01:38689,-2,9,1,2,9,7,-11,-32
17:00:01:52807,17,1,-17,-3,4,11,42,54
17:00:01:53690,17,1,-17,-3,4,11,42,54
17:00:01:59671,6,-4,-1,1,-1,-10,-6,-9
17:00:01:67806,11,-4,-6,-2,-2,-11,14,-13
17:00:01:68646,11,-4,-6,-2,-2,-11,14,-13
17:00:01:74679,-7,-5,0,-6,-16,-6,22,10
17:00:01:90281,-17,0,-1,1,9,0,-8,-48
17:00:01:91148,-17,0,-1,1,9,0,-8,-48
17:00:01:97155,-5,-1,5,-9,-15,-15,-49,-35
17:00:01:105285,-5,-1,-5,-4,-7,-1,42,28
17:00:01:106146,-5,-1,-5,-4,-7,-1,42,28
17:00:01:119642,-5,-1,-10,6,3,13,6,-22
17:00:01:127792,11,-1,15,-1,-15,-8,-18,47
17:00:01:128681,11,-1,15,-1,-15,-8,-18,47
17:00:01:134670,-4,3,0,-6,1,6,29,24
17:00:01:150278,-10,-4,-1,9,20,13,-16,11
17:00:01:151198,-10,-4,-1,9,20,13,-16,11
17:00:01:157177,5,3,-6,-1,5,6,7,-12
17:00:01:165309,-12,2,2,-5,-8,-6,25,9
17:00:01:166191,-12,2,2,-5,-8,-6,25,9
17:00:01:179695,4,-1,3,-1,-12,-6,-12,17
17:00:01:187829,-5,-7,-5,-2,18,8,9,-20
17:00:01:188685,-5,-7,-5,-2,18,8,9,-20
17:00:01:194662,5,-2,-7,0,-5,-2,24,8
17:00:01:210273,-24,-4,-7,-11,-16,-8,18,16
17:00:01:211186,-24,-4,-7,-11,-16,-8,18,16
17:00:01:217170,-6,-2,2,2,5,-1,58,72
17:00:01:225293,4,2,1,-1,-3,-3,-39,-64
17:00:01:226161,4,2,1,-1,-3,-3,-39,-64
17:00:01:248413,5,7,-22,4,12,5,-24,4
17:00:01:249285,1,4,9,3,-7,6,53,31
17:00:01:250161,1,4,9,3,-7,6,53,31
17:00:01:254658,-4,-5,4,2,2,1,-66,-47
17:00:01:270311,22,2,-5,-4,-4,0,-8,-6
17:00:01:271185,22,2,-5,-4,-4,0,-8,-6
17:00:01:277163,-5,-5,7,4,18,5,-12,-2
17:00:01:285281,10,-3,0,-3,1,2,-2,-8
17:00:01:286155,10,-3,0,-3,1,2,-2,-8
17:00:01:299660,11,-7,-30,-27,-19,-7,29,43
17:00:01:307806,6,1,-2,5,-1,-5,32,23
17:00:01:308656,6,1,-2,5,-1,-5,32,23
17:00:01:314680,-13,1,12,6,4,2,-6,-30
17:00:01:330327,-19,6,-2,-9,-11,-1,-68,-18
17:00:01:331201,-19,6,-2,-9,-11,-1,-68,-18
17:00:01:337188,-11,-3,4,8,25,10,-37,-28
17:00:01:345297,-27,-5,4,1,-3,3,-40,-41
17:00:01:346172,-27,-5,4,1,-3,3,-40,-41
17:00:01:359719,8,-1,6,1,-10,-10,-16,42
17:00:01:367816,-7,2,0,-7,-1,1,42,-19
17:00:01:368702,-7,2,0,-7,-1,1,42,-19
17:00:01:374655,-5,-6,-5,-14,-15,-19,-10,-2
17:00:01:390320,1,0,-4,7,5,2,-17,7
17:00:01:391144,1,0,-4,7,5,2,-17,7
17:00:01:397164,-3,7,11,6,-4,1,-10,-16
17:00:01:405316,22,-4,0,-7,-12,-10,-7,24
17:00:01:406166,22,-4,0,-7,-12,-10,-7,24
17:00:01:419655,-1,-6,-4,-5,-12,-8,-17,-4
17:00:01:427791,-12,-3,-4,8,10,8,-4,4
17:00:01:428657,-12,-3,-4,8,10,8,-4,4
17:00:01:434690,-19,-2,-4,-6,-13,-6,20,-15
17:00:01:450284,1,-7,-7,-4,-3,-10,31,28
17:00:01:451162,1,-7,-7,-4,-3,-10,31,28
17:00:01:457179,-4,-5,-8,-4,-4,2,35,5
17:00:01:465305,-9,-2,-4,0,14,-13,-53,57
17:00:01:466149,-9,-2,-4,0,14,-13,-53,57
17:00:01:479675,6,3,1,-8,2,-1,-17,-13
17:00:01:487792,6,3,1,-8,2,-1,-17,-13
17:00:01:488647,4,-3,5,-3,16,9,78,-11
17:00:01:494662,3,-2,0,-2,-1,0,22,-7
17:00:01:510293,3,-2,0,-2,-1,0,22,-7
17:00:01:511169,4,2,-4,-9,-18,-10,-15,-13
17:00:01:524658,-5,1,2,19,25,5,32,13
17:00:01:532785,-5,1,2,19,25,5,32,13
17:00:01:533657,-16,0,-4,-2,-12,-3,18,10
17:00:01:539557,19,0,-1,-3,-4,2,-48,6
17:00:01:547784,19,0,-1,-3,-4,2,-48,6
17:00:01:548694,3,3,3,0,0,-7,-8,5
17:00:01:554712,-3,-1,1,6,11,7,-30,3
17:00:01:570335,-3,-1,1,6,11,7,-30,3
17:00:01:571182,-1,0,3,0,-5,-5,-20,-1
17:00:01:577177,9,-4,-3,-9,-20,-13,-47,20
17:00:01:592814,9,-4,-3,-9,-20,-13,-47,20
17:00:01:593757,-9,-3,-8,-5,-2,4,-4,4
17:00:01:599720,-1,5,4,10,3,4,13,-6
17:00:01:607804,-1,5,4,10,3,4,13,-6
17:00:01:608651,29,-2,0,-4,-15,0,-35,-12
17:00:01:614551,22,0,-12,-5,10,1,24,-26
17:00:01:630308,22,0,-12,-5,10,1,24,-26
17:00:01:631176,11,-2,-2,-1,-8,-5,-2,-18
17:00:01:637199,-28,-9,-6,-2,-2,-11,-43,-10
17:00:01:652803,-28,-9,-6,-2,-2,-11,-43,-10
17:00:01:653668,-12,-8,-5,-9,-12,-13,115,53
17:00:01:659696,-20,-4,-3,7,14,13,37,15
17:00:01:667811,-20,-4,-3,7,14,13,37,15
17:00:01:668687,4,5,0,1,1,4,-35,-32
17:00:01:682244,-3,0,4,-6,-6,-9,13,-7
17:00:01:690352,-3,0,4,-6,-6,-9,13,-7
17:00:01:691153,-8,-4,-1,7,18,7,-42,1
17:00:01:704680,6,1,2,-5,-7,-3,1,30
17:00:01:712916,6,1,2,-5,-7,-3,1,30
17:00:01:713678,12,5,4,9,26,5,-52,-41
17:00:01:719663,-13,-7,-1,-9,-15,3,-34,43
17:00:01:727792,-13,-7,-1,-9,-15,3,-34,43
17:00:01:728698,-16,2,0,9,23,12,-75,-23
17:00:01:734689,11,2,3,0,-12,-7,0,-19
17:00:01:750418,11,2,3,0,-12,-7,0,-19
17:00:01:751146,-3,-4,0,1,-11,-1,-15,2
17:00:01:757158,2,7,-1,-10,-15,-11,28,-4
17:00:01:772935,2,7,-1,-10,-15,-11,28,-4
17:00:01:773709,-7,-2,-2,-4,12,16,103,-5
17:00:01:779690,-3,8,2,0,-7,4,-4,-15
17:00:01:787789,-3,8,2,0,-7,4,-4,-15
17:00:01:788663,-4,-2,-2,3,-6,8,-11,17
17:00:01:802178,3,2,1,1,3,3,-4,-6
17:00:01:810409,3,2,1,1,3,3,-4,-6
17:00:01:811151,-16,-4,3,-6,-15,-3,9,-5
17:00:01:824663,1,-3,-2,3,6,3,0,-1
17:00:01:832786,1,-3,-2,3,6,3,0,-1
17:00:01:833665,-3,1,-3,-7,-15,-11,33,9
17:00:01:839673,-3,-2,3,2,22,12,7,39
17:00:01:847924,-3,-2,3,2,22,12,7,39
17:00:01:848662,4,-1,1,4,-6,-16,-28,19
17:00:01:854666,-9,2,-4,0,-1,2,25,-22
17:00:01:870299,-9,2,-4,0,-1,2,25,-22
17:00:01:871158,14,-2,-2,-1,4,1,-5,-20
17:00:01:877169,-17,-11,-3,1,-10,1,47,-9
17:00:01:892798,-17,-11,-3,1,-10,1,47,-9
17:00:01:893656,-1,3,0,-4,-7,-2,-26,25
17:00:01:900280,0,-4,-4,-8,-9,-6,-97,-5
17:00:01:907796,0,-4,-4,-8,-9,-6,-97,-5
17:00:01:908687,22,-6,-5,2,13,2,-85,-21
17:00:01:922174,14,0,6,10,11,9,28,-25
17:00:01:930460,14,0,6,10,11,9,28,-25
17:00:01:931195,-10,0,-6,-4,-24,-7,26,-25
17:00:01:944670,7,0,-5,-10,-10,-11,-23,-49
17:00:01:953573,7,0,-5,-10,-10,-11,-23,-49
17:00:01:954307,-10,-7,-1,4,13,8,65,31
17:00:01:959550,21,1,4,7,8,-7,26,12
17:00:01:967800,21,1,4,7,8,-7,26,12
17:00:01:968694,-5,-1,-18,-22,-24,-11,71,-28
17:00:01:982187,-21,-10,-6,8,25,5,19,-5
17:00:01:990291,-21,-10,-6,8,25,5,19,-5
17:00:01:991163,-7,7,5,1,2,-5,-89,-8
17:00:01:997184,5,-1,-2,-12,-22,-6,-45,-29
17:00:02:12792,5,-1,-2,-12,-22,-6,-45,-29
17:00:02:13675,0,1,10,22,35,12,57,3
17:00:02:19545,-3,5,6,6,-7,-3,-19,-19
17:00:02:27803,-3,5,6,6,-7,-3,-19,-19
17:00:02:28683,8,-2,1,-15,-41,-9,-9,11
17:00:02:42174,-8,-6,-3,-3,10,6,0,42
17:00:02:50292,-8,-6,-3,-3,10,6,0,42
17:00:02:51165,-1,3,1,-8,7,6,1,24
17:00:02:57150,-13,-1,-2,1,-4,-3,-15,-19
17:00:02:73298,-13,-1,-2,1,-4,-3,-15,-19
17:00:02:80316,-18,-6,-5,-2,17,13,9,-49
17:00:02:81186,42,7,5,3,-5,-4,-64,63
17:00:02:87809,42,7,5,3,-5,-4,-64,63
17:00:02:88666,6,2,2,-4,-1,-8,37,21
17:00:02:102195,-17,-5,4,-1,5,-2,37,21
17:00:02:110308,-17,-5,4,-1,5,-2,37,21
17:00:02:111191,-6,-4,1,3,-8,-7,-77,3
17:00:02:117182,3,2,2,5,8,8,11,-3
17:00:02:124665,3,2,2,5,8,8,11,-3
17:00:02:132173,-1,0,-2,-8,-24,-19,2,6
17:00:02:139550,5,-1,-3,1,20,4,92,47
17:00:02:147936,5,-1,-3,1,20,4,92,47
17:00:02:148686,10,1,2,2,-9,2,-27,-21
17:00:02:162180,10,3,0,-4,-13,-6,42,5
17:00:02:170294,10,3,0,-4,-13,-6,42,5
17:00:02:171167,0,-5,1,7,12,-2,27,-6
17:00:02:177187,-12,-1,-2,4,-4,4,-24,-12
17:00:02:184690,-12,-1,-2,4,-4,4,-24,-12
17:00:02:200303,18,-4,-3,1,18,8,-40,-6
17:00:02:201043,7,1,1,-6,-23,-19,-44,-19
17:00:02:207810,7,1,1,-6,-23,-19,-44,-19
17:00:02:208684,-12,4,0,6,30,7,34,8
17:00:02:231545,-3,-11,-3,-7,-6,0,-7,-30
17:00:02:232409,-3,-11,-3,-7,-6,0,-7,-30
17:00:02:233295,-3,5,1,-2,-15,-11,21,-5
17:00:02:237203,-17,-3,-4,0,3,12,57,-25
17:00:02:244667,-17,-3,-4,0,3,12,57,-25
17:00:02:260275,-9,1,0,-4,-13,-8,-30,-26
17:00:02:261150,-10,-2,-2,0,18,2,-11,-7
17:00:02:267933,-10,-2,-2,0,18,2,-11,-7
17:00:02:268730,15,-3,-6,0,5,2,11,55
17:00:02:282163,-15,-10,0,-6,-24,-17,42,-5
17:00:02:290298,-15,-10,0,-6,-24,-17,42,-5
17:00:02:291132,-29,-3,1,-4,-3,-3,3,-2
17:00:02:297147,-8,0,-1,4,19,10,17,-10
17:00:02:304667,-8,0,-1,4,19,10,17,-10
17:00:02:320385,-1,-3,-5,-6,-10,0,29,-11
17:00:02:321152,-2,-1,-2,-8,-4,-5,-4,12
17:00:02:327915,-2,-1,-2,-8,-4,-5,-4,12
17:00:02:328668,-3,-1,-2,7,18,-3,44,8
17:00:02:342162,-5,-4,0,3,-14,-3,-14,-6
17:00:02:350291,-5,-4,0,3,-14,-3,-14,-6
17:00:02:351156,19,-7,-4,-9,-16,-7,-36,-11
17:00:02:357157,6,6,2,6,27,15,-25,10
17:00:02:364662,6,6,2,6,27,15,-25,10
17:00:02:372159,2,-2,-3,-2,-10,2,100,6
17:00:02:379665,-6,-2,-6,-3,-19,-14,-27,-15
17:00:02:387782,-6,-2,-6,-3,-19,-14,-27,-15
17:00:02:388658,13,-4,-4,2,-2,4,-9,1
17:00:02:402154,5,2,1,1,8,2,-62,8
17:00:02:410437,5,2,1,1,8,2,-62,8
17:00:02:411184,4,0,4,1,-6,-20,-8,-4
17:00:02:417193,-3,-1,-6,-8,-6,-7,3,9
17:00:02:424692,-3,-1,-6,-8,-6,-7,3,9
17:00:02:432167,-12,-1,1,-4,-7,4,-37,9
17:00:02:439663,50,2,4,9,14,-1,-59,-9
17:00:02:447805,50,2,4,9,14,-1,-59,-9
17:00:02:448683,12,-2,2,-6,-17,-10,34,61
17:00:02:462167,-17,2,-4,-2,6,1,10,-17
17:00:02:470321,-17,2,-4,-2,6,1,10,-17
17:00:02:471145,-6,-1,0,2,6,6,68,-41
17:00:02:477179,3,-3,-3,-14,-39,-10,-7,13
17:00:02:484664,3,-3,-3,-14,-39,-10,-7,13
17:00:02:492159,-7,5,2,-1,15,8,-80,-24
17:00:02:508444,-3,-5,-4,-4,-1,-3,51,12
17:00:02:509322,-3,-5,-4,-4,-1,-3,51,12
17:00:02:510170,-5,-5,-2,0,5,8,-22,-44
17:00:02:522197,-6,1,2,7,4,1,-32,20
17:00:02:530408,-6,1,2,7,4,1,-32,20
17:00:02:531148,-13,5,2,1,-2,10,37,-34
17:00:02:537221,-19,4,4,-3,-5,3,6,-14
17:00:02:544695,-19,4,4,-3,-5,3,6,-14
17:00:02:552177,-12,-4,-1,-2,-8,-18,-45,49
17:00:02:559675,2,-1,0,5,28,14,17,6
17:00:02:567820,2,-1,0,5,28,14,17,6
17:00:02:568671,11,-4,0,-1,-7,4,-34,4
17:00:02:582199,6,-5,-4,-10,-31,-19,15,32
17:00:02:590315,6,-5,-4,-10,-31,-19,15,32
17:00:02:591176,4,1,-2,12,32,23,-25,-12
17:00:02:597189,-4,-2,1,-2,1,-2,-56,-16
17:00:02:604777,-4,-2,1,-2,1,-2,-56,-16
17:00:02:612187,5,3,-6,-2,-14,-7,-23,-19
17:00:02:628445,6,0,5,3,4,-11,-37,-11
17:00:02:629350,6,0,5,3,4,-11,-37,-11
17:00:02:630182,-22,-1,2,3,4,-6,-63,-41
17:00:02:642198,8,1,-1,-3,-7,2,-12,14
17:00:02:650335,8,1,-1,-3,-7,2,-12,14
17:00:02:651166,12,1,-9,-6,-8,-16,-52,-8
17:00:02:657194,-12,-4,-2,-3,-13,-4,20,4
17:00:02:664679,-12,-4,-2,-3,-13,-4,20,4
17:00:02:672202,-7,0,0,4,22,15,25,26
17:00:02:679669,5,1,-5,-16,-29,-6,25,-1
17:00:02:687808,5,1,-5,-16,-29,-6,25,-1
17:00:02:688669,-5,-8,0,-5,-2,4,51,23
17:00:02:702216,1,5,2,13,14,22,104,14
17:00:02:718456,1,5,2,13,14,22,104,14
17:00:02:719337,17,0,0,-3,-6,-6,-50,-19
17:00:02:720159,-19,0,0,2,-6,-8,-71,-11
17:00:02:724681,-19,0,0,2,-6,-8,-71,-11
17:00:02:732203,2,4,4,4,8,11,30,11
17:00:02:748433,-15,-4,-4,-2,1,-4,30,-7
17:00:02:749355,-15,-4,-4,-2,1,-4,30,-7
17:00:02:750231,19,4,2,-4,-9,-11,5,-4
17:00:02:762201,5,-2,-5,-5,4,-9,7,-19
17:00:02:770344,5,-2,-5,-5,4,-9,7,-19
17:00:02:771218,-3,3,-2,-1,3,7,-57,4
17:00:02:777194,10,2,2,7,36,3,15,30
17:00:02:784692,10,2,2,7,36,3,15,30
17:00:02:792190,-8,-7,-7,-8,-11,-18,25,-32
17:00:02:799713,-23,-8,0,-4,-7,5,5,-46
17:00:02:807828,-23,-8,0,-4,-7,5,5,-46
17:00:02:808692,-10,2,-9,-9,-2,3,-6,-38
17:00:02:822192,11,2,2,7,8,1,-24,32
17:00:02:830305,11,2,2,7,8,1,-24,32
17:00:02:831188,1,0,4,7,3,0,12,1
17:00:02:837184,-4,-3,-6,-11,-10,3,98,-19
17:00:02:844691,-4,-3,-6,-11,-10,3,98,-19
17:00:02:852184,-18,-2,5,3,0,-5,10,40
17:00:02:868424,-5,-2,2,0,-15,-4,-63,21
17:00:02:869288,-5,-2,2,0,-15,-4,-63,21
17:00:02:870181,4,-4,-2,6,8,5,82,65
17:00:02:882162,0,-1,-1,-5,-17,0,-25,-39
17:00:02:890311,0,-1,-1,-5,-17,0,-25,-39
17:00:02:891178,-6,-1,0,0,-11,0,-26,0
17:00:02:905294,2,4,-1,0,10,4,-31,-15
17:00:02:906174,2,4,-1,0,10,4,-31,-15
17:00:02:912170,-2,-4,-13,-6,4,1,67,-48
17:00:02:919654,-2,3,-2,-2,-9,-3,-20,-30
17:00:02:927181,-2,3,-2,-2,-9,-3,-20,-30
17:00:02:934685,6,1,5,6,9,4,-24,-6
17:00:02:942181,-7,-1,-4,-8,-18,-5,-8,3
17:00:02:950299,-7,-1,-4,-8,-18,-5,-8,3
17:00:02:951188,-3,-4,6,16,21,-4,-6,46
17:00:02:965334,6,0,3,8,18,-12,6,25
17:00:02:966181,6,0,3,8,18,-12,6,25
17:00:02:972201,-3,-4,-3,-16,-35,-15,7,-3
17:00:02:996075,7,-1,0,5,8,15,15,-25
17:00:02:996826,7,-1,0,5,8,15,15,-25
17:00:02:997686,3,1,-1,-13,-5,-1,4,-10
17:00:03:2188,-6,-6,-1,-4,13,-1,55,6
17:00:03:10320,-6,-6,-1,-4,13,-1,55,6
17:00:03:11208,2,0,1,6,15,9,-96,4
17:00:03:25324,3,-5,-3,-14,-36,-24,34,44
17:00:03:26200,3,-5,-3,-14,-36,-24,34,44
17:00:03:32213,-37,-7,1,5,7,1,-25,6
17:00:03:39708,3,3,-2,-2,2,10,-8,-10
17:00:03:47197,3,3,-2,-2,2,10,-8,-10
17:00:03:54688,-6,-12,-8,-15,-27,-1,-1,-16
17:00:03:62164,-1,5,8,13,20,5,26,-44
17:00:03:70296,-1,5,8,13,20,5,26,-44
17:00:03:71165,25,3,-1,-12,-24,-13,71,-26
17:00:03:85302,14,1,-1,5,21,4,-56,26
17:00:03:86185,14,1,-1,5,21,4,-56,26
17:00:03:92196,15,1,-4,-11,2,-5,-70,8
17:00:03:115968,-28,-8,-4,-2,-19,-4,49,13
17:00:03:116800,-28,-8,-4,-2,-19,-4,49,13
17:00:03:117561,4,1,4,0,-6,4,10,43
17:00:03:122146,-3,-2,-4,-3,12,-3,40,31
17:00:03:130306,-3,-2,-4,-3,12,-3,40,31
17:00:03:131161,19,5,-2,2,2,1,-16,2
17:00:03:145796,-2,-1,-1,-6,-25,-9,-58,-15
17:00:03:146666,-2,-1,-1,-6,-25,-9,-58,-15
17:00:03:152169,-9,2,3,18,27,13,73,-11
17:00:03:159579,13,2,-1,-1,-6,-12,-36,4
17:00:03:167170,13,2,-1,-1,-6,-12,-36,4
17:00:03:174681,-5,-2,-5,-9,-13,1,14,-29
17:00:03:182195,5,-1,1,-4,1,10,-11,14
17:00:03:190319,5,-1,1,-4,1,10,-11,14
17:00:03:191169,-3,-1,1,0,4,4,-43,27
17:00:03:205293,7,7,4,1,4,4,-76,-34
17:00:03:206196,7,7,4,1,4,4,-76,-34
17:00:03:212168,-8,-5,2,-1,-12,-10,46,-33
17:00:03:219685,-7,-5,-6,3,10,16,8,-9
17:00:03:227187,-7,-5,-6,3,10,16,8,-9
17:00:03:234690,-8,-2,-3,-7,-20,-15,-18,-43
17:00:03:242178,-21,-5,0,6,3,0,-31,-11
17:00:03:250194,-21,-5,0,6,3,0,-31,-11
17:00:03:257187,6,-2,2,2,4,-4,7,4
17:00:03:281685,5,-1,-4,-4,0,5,-4,0
17:00:03:282415,5,-1,-4,-4,0,5,-4,0
17:00:03:283303,-5,-3,0,-3,-6,-5,-24,12
17:00:03:284178,0,-2,-3,-2,25,-1,-2,13
17:00:03:287190,0,-2,-3,-2,25,-1,-2,13
17:00:03:294552,6,-3,-1,1,4,-4,46,-24
17:00:03:318430,-1,0,1,-14,-26,-1,14,-22
17:00:03:319302,-1,0,1,-14,-26,-1,14,-22
17:00:03:320168,5,5,3,12,40,15,-26,0
17:00:03:325305,-2,-5,0,-1,-18,-21,-9,-29
17:00:03:326179,-2,-5,0,-1,-18,-21,-9,-29
17:00:03:340314,-2,3,-3,1,-5,-16,-9,1
17:00:03:341181,13,-3,-2,-7,-22,-5,25,9
17:00:03:355300,13,-3,-2,-7,-22,-5,25,9
17:00:03:356184,-12,-1,-3,9,30,14,-13,15
17:00:03:362182,0,-3,-2,-1,-6,-3,9,33
17:00:03:370329,0,-3,-2,-1,-6,-3,9,33
17:00:03:371231,6,4,-2,-1,-1,6,-26,-3
17:00:03:393445,-8,3,2,5,1,6,-2,-23
17:00:03:394341,-8,3,2,5,1,6,-2,-23
17:00:03:395220,-1,1,7,2,-14,-3,-65,14
17:00:03:399593,3,2,5,7,22,-1,-14,-27
17:00:03:407207,3,2,5,7,22,-1,-14,-27
17:00:03:414568,-4,-5,-7,-3,-14,-13,62,-3
17:00:03:432337,-2,0,-3,2,28,26,25,4
17:00:03:433217,-2,0,-3,2,28,26,25,4
17:00:03:437207,-20,-3,-3,-11,-18,-3,13,-35
17:00:03:444598,13,-3,-3,3,2,7,101,-4
17:00:03:453207,13,-3,-3,3,2,7,101,-4
17:00:03:460349,10,-3,-3,-2,4,0,-1,19
17:00:03:461214,3,-2,-4,-6,-7,-11,-33,13
17:00:03:475332,3,-2,-4,-6,-7,-11,-33,13
17:00:03:476233,2,2,1,-2,1,-4,0,12
17:00:03:482228,4,0,-1,-1,10,3,-9,8
17:00:03:490348,4,0,-1,-1,10,3,-9,8
17:00:03:491215,-17,1,5,2,9,2,3,16
17:00:03:505350,-24,-1,-1,1,-11,-11,-19,12
17:00:03:506240,-24,-1,-1,1,-11,-11,-19,12
17:00:03:512220,-14,-1,-1,-13,-9,-3,-27,-30
17:00:03:519604,22,0,1,-5,11,8,-28,3
17:00:03:527206,22,0,1,-5,11,8,-28,3
17:00:03:534701,-10,-14,-4,-14,-24,-13,-7,-10
17:00:03:550947,-6,-1,-7,3,29,0,2,10
17:00:03:551836,-6,-1,-7,3,29,0,2,10
17:00:03:552566,10,5,-2,-2,-12,10,33,-1
17:00:03:564698,-11,0,0,-5,-25,-9,6,-12
17:00:03:572834,-11,0,0,-5,-25,-9,6,-12
17:00:03:573694,5,7,2,11,34,13,14,31
17:00:03:579576,-8,0,-18,-14,-15,-7,-24,11
17:00:03:587206,-8,0,-18,-14,-15,-7,-24,11
17:00:03:594538,0,-1,3,2,-17,-6,-37,-20
17:00:03:602186,2,6,8,10,10,1,60,-8
17:00:03:610822,2,6,8,10,10,1,60,-8
17:00:03:617189,2,-6,-5,-7,-13,-3,4,12
17:00:03:624689,5,-2,2,2,-9,-6,50,24
17:00:03:632819,5,-2,2,2,-9,-6,50,24
17:00:03:633676,8,0,5,-1,0,-7,5,39
17:00:03:639682,-17,-4,1,-6,-12,-8,-13,0
17:00:03:647183,-17,-4,1,-6,-12,-8,-13,0
17:00:03:654687,4,-1,-6,-1,-13,0,-58,-3
17:00:03:662188,3,-3,-3,7,25,10,-19,-15
17:00:03:670306,3,-3,-3,7,25,10,-19,-15
17:00:03:671206,-1,0,-2,-7,-9,-7,-29,-26
17:00:03:684699,26,4,4,0,-18,-9,3,-18
17:00:03:701110,26,4,4,0,-18,-9,3,-18
17:00:03:701802,-19,-1,-2,-1,8,-10,-18,-22
17:00:03:702663,-9,0,2,4,32,12,-32,13
17:00:03:707185,-9,0,2,4,32,12,-32,13
17:00:03:714698,24,2,-2,1,-1,6,4,-1
17:00:03:722196,-19,-4,-2,-5,-7,-2,-11,-25
17:00:03:737800,-19,-4,-2,-5,-7,-2,-11,-25
17:00:03:738670,3,2,1,5,5,8,-30,10
17:00:03:744662,21,3,2,8,-4,1,-31,26
17:00:03:752805,21,3,2,8,-4,1,-31,26
17:00:03:753674,-15,-2,5,-1,-3,-6,5,5
17:00:03:759702,-20,-12,-2,-6,-26,-20,12,10
17:00:03:767182,-20,-12,-2,-6,-26,-20,12,10
17:00:03:774692,-8,-4,-6,-4,0,-5,20,-13
17:00:03:782188,-46,-1,-2,-8,-10,-5,81,-8
17:00:03:790312,-46,-1,-2,-8,-10,-5,81,-8
17:00:03:791201,23,1,2,3,13,6,13,12
17:00:03:804688,-1,-5,-3,2,0,8,-35,-27
17:00:03:813563,-1,-5,-3,2,0,8,-35,-27
17:00:03:814330,-14,-4,-2,0,1,-16,42,10
17:00:03:819699,6,-3,2,-3,-7,-8,-10,3
17:00:03:827184,6,-3,2,-3,-7,-8,-10,3
17:00:03:834565,7,-2,-10,-8,-5,4,-35,-11
17:00:03:842210,-18,-2,2,-2,-3,-17,-99,23
17:00:03:857829,-18,-2,2,-2,-3,-17,-99,23
17:00:03:858695,-17,2,5,12,7,5,14,-2
17:00:03:864698,3,1,-1,-4,-7,5,14,-26
17:00:03:872843,3,1,-1,-4,-7,5,14,-26
17:00:03:873699,-6,-3,-3,-5,-23,-10,-15,2
17:00:03:887837,6,0,-1,8,25,18,-8,51
17:00:03:888692,6,0,-1,8,25,18,-8,51
17:00:03:894720,-19,1,-4,-14,-11,1,17,-9
17:00:03:902199,5,4,0,-7,-12,-2,-34,-30
17:00:03:909685,5,4,0,-7,-12,-2,-34,-30
17:00:03:925323,29,1,2,3,1,-3,6,3
17:00:03:926192,17,5,7,5,19,15,-13,-11
17:00:03:940346,17,5,7,5,19,15,-13,-11
17:00:03:941190,-4,-6,-4,-3,15,-1,-25,-17
17:00:03:947812,2,-2,-2,-1,-16,-14,-15,25
17:00:03:948705,2,-2,-2,-1,-16,-14,-15,25
17:00:03:954680,14,-1,-3,0,2,4,7,12
17:00:03:962196,-5,-1,-3,-3,-10,-7,2,-4
17:00:03:977814,-5,-1,-3,-3,-10,-7,2,-4
17:00:03:978690,12,0,1,4,8,12,10,-9
17:00:03:984705,2,-1,1,-2,-12,-8,4,-22
17:00:03:992847,2,-1,1,-2,-12,-8,4,-22
17:00:03:993707,-7,0,6,5,-1,3,-24,-2
17:00:04:7820,5,-1,-1,-2,-5,5,22,-2
17:00:04:8560,5,-1,-1,-2,-5,5,22,-2
17:00:04:14712,-1,0,-3,-4,11,3,6,44
17:00:04:22166,0,-3,-4,-14,-18,-9,-33,-11
17:00:04:29697,0,-3,-4,-14,-18,-9,-33,-11
17:00:04:37161,-8,-3,-3,4,6,-5,-9,-23
17:00:04:44679,5,-1,-1,4,14,3,29,-17
17:00:04:60315,5,-1,-1,4,14,3,29,-17
17:00:04:61229,-6,3,1,-2,-5,-4,24,-11
17:00:04:67903,-9,-6,-3,-5,-5,0,100,7
17:00:04:68594,-9,-6,-3,-5,-5,0,100,7
17:00:04:74714,-8,-3,2,2,3,2,8,-19
17:00:04:82218,11,7,1,4,9,5,2,-5
17:00:04:89701,11,7,1,4,9,5,2,-5
17:00:04:97197,4,0,-6,-6,-6,1,26,-14
17:00:04:104544,-6,-10,-4,-6,-8,-6,19,0
17:00:04:112817,-6,-10,-4,-6,-8,-6,19,0
17:00:04:113686,-16,-5,-6,0,1,-1,-34,-17
17:00:04:127826,4,8,8,12,8,6,-9,23
17:00:04:128678,4,8,8,12,8,6,-9,23
17:00:04:134569,-17,-2,2,1,-4,1,-8,1
17:00:04:142188,7,-7,-4,-10,-17,-11,-59,-10
17:00:04:149687,7,-7,-4,-10,-17,-11,-59,-10
17:00:04:157198,11,2,-2,0,7,-1,53,-2
17:00:04:164562,1,1,-2,6,15,0,14,-5
17:00:04:172817,1,1,-2,6,15,0,14,-5
17:00:04:173675,-5,-4,2,-1,-8,2,11,13
17:00:04:187812,0,-3,-4,-6,3,2,-11,-17
17:00:04:188681,0,-3,-4,-6,3,2,-11,-17
17:00:04:194560,-3,1,1,-3,-4,-5,-3,22
17:00:04:202190,-12,-6,-9,-6,-1,-1,38,-20
17:00:04:217819,-12,-6,-9,-6,-1,-1,38,-20
17:00:04:218663,18,0,-13,-8,-11,-2,-18,8
17:00:04:224577,31,5,5,7,-4,2,-3,6
17:00:04:232811,31,5,5,7,-4,2,-3,6
17:00:04:233694,11,-1,2,6,2,0,65,41
17:00:04:247816,-6,0,-1,-1,-6,-4,-14,-9
17:00:04:248718,-6,0,-1,-1,-6,-4,-14,-9
17:00:04:254557,0,-3,4,-3,-3,-6,-53,-16
17:00:04:262181,-5,0,0,2,9,6,-14,1
17:00:04:269689,-5,0,0,2,9,6,-14,1
17:00:04:277236,-12,-4,2,4,9,2,53,-22
17:00:04:284598,8,-3,-2,1,-7,-5,0,-4
17:00:04:292804,8,-3,-2,1,-7,-5,0,-4
17:00:04:293675,-11,7,-17,-9,-8,-1,-14,3
17:00:04:307805,-18,-4,-1,2,-1,-6,-78,-8
17:00:04:308694,-18,-4,-1,2,-1,-6,-78,-8
17:00:04:314579,-5,-3,6,3,-1,5,49,-18
17:00:04:322176,-13,-2,-1,-4,-8,-3,16,-14
17:00:04:329712,-13,-2,-1,-4,-8,-3,16,-14
17:00:04:337189,-4,4,0,1,2,0,-46,-13
17:00:04:344602,-16,-3,-3,-4,-2,3,-23,6
17:00:04:352834,-16,-3,-3,-4,-2,3,-23,6
17:00:04:353706,6,-2,1,3,2,1,-9,26
17:00:04:367833,-28,-4,0,-6,-6,-2,25,1
17:00:04:368703,-28,-4,0,-6,-6,-2,25,1
17:00:04:374722,11,5,4,6,-1,-4,-61,8
17:00:04:382187,-9,-2,-1,0,6,5,-9,17
17:00:04:389684,-9,-2,-1,0,6,5,-9,17
17:00:04:397171,-6,-5,3,-4,-5,-6,-14,9
17:00:04:404713,18,0,-11,-11,-10,-6,2,-5
17:00:04:412858,18,0,-11,-11,-10,-6,2,-5
17:00:04:413599,0,-2,0,3,17,10,17,6
17:00:04:427814,2,-2,10,4,2,0,14,-3
17:00:04:428556,2,-2,10,4,2,0,14,-3
17:00:04:434682,-9,-4,-6,-8,-14,-13,-10,-7
17:00:04:442187,-3,-3,1,3,1,1,35,5
17:00:04:449700,-3,-3,1,3,1,1,35,5
17:00:04:457212,-17,-4,-11,-4,7,2,58,-37
17:00:04:464731,2,2,1,0,-2,-1,1,0
17:00:04:472824,2,2,1,0,-2,-1,1,0
17:00:04:473707,-3,-1,0,-3,-5,0,-13,-15
17:00:04:487808,-12,-3,-5,0,-4,-6,-43,-24
17:00:04:488679,-12,-3,-5,0,-4,-6,-43,-24
17:00:04:494700,16,4,-6,-1,2,-3,-24,24
17:00:04:502204,16,40,11,2,5,4,-1,24
17:00:04:509729,16,40,11,2,5,4,-1,24
17:00:04:517185,-9,-10,-1,1,-12,-12,42,8
17:00:04:524583,-13,-14,-5,-4,1,-11,-28,45
17:00:04:532807,-13,-14,-5,-4,1,-11,-28,45
17:00:04:533689,17,4,2,-2,5,3,-72,4
17:00:04:547823,-8,-7,-8,-1,-5,-7,5,46
17:00:04:548676,-8,-7,-8,-1,-5,-7,5,46
17:00:04:554592,-15,-9,-6,1,-7,1,32,-4
17:00:04:562245,6,-9,2,2,11,11,-40,-16
17:00:04:569699,6,-9,2,2,11,11,-40,-16
17:00:04:577197,19,-6,4,3,8,-1,-6,-9
17:00:04:584552,8,-2,-4,0,-2,1,11,-18
17:00:04:592799,8,-2,-4,0,-2,1,11,-18
17:00:04:593695,-9,11,10,2,-4,3,-14,-15
17:00:04:607849,37,-12,-3,-3,0,-3,-15,-7
17:00:04:608696,37,-12,-3,-3,0,-3,-15,-7
17:00:04:614557,15,18,4,4,-2,0,-19,24
17:00:04:622183,-16,-2,1,-8,-6,-10,-15,-26
17:00:04:629685,-16,-2,1,-8,-6,-10,-15,-26
17:00:04:637194,-19,-14,-2,-1,13,13,41,-26
17:00:04:644568,5,6,-3,3,-1,0,-11,-51
17:00:04:652848,5,6,-3,3,-1,0,-11,-51
17:00:04:653574,5,39,7,-4,-12,-4,-27,8
17:00:04:667808,31,-38,-3,1,6,-2,48,8
17:00:04:668707,31,-38,-3,1,6,-2,48,8
17:00:04:674685,3,-7,-1,-1,-1,4,-2,-12
17:00:04:682191,11,-10,-3,-4,-5,-2,7,25
17:00:04:689681,11,-10,-3,-4,-5,-2,7,25
17:00:04:697231,7,-14,-1,2,-2,-5,-10,11
17:00:04:704690,-16,35,21,2,0,2,13,6
17:00:04:712830,-16,35,21,2,0,2,13,6
17:00:04:713562,0,6,-11,-5,1,-3,-21,-13
17:00:04:727811,-19,47,-2,5,-1,2,51,-15
17:00:04:728595,-19,47,-2,5,-1,2,51,-15
17:00:04:734681,-2,10,23,3,0,-3,1,5
17:00:04:742190,-3,12,-2,0,1,2,-14,9
17:00:04:749693,-3,12,-2,0,1,2,-14,9
17:00:04:757210,2,-13,3,-5,-6,-1,41,5
17:00:04:764708,-26,-21,-27,-26,-19,-14,-22,-12
17:00:04:772819,-26,-21,-27,-26,-19,-14,-22,-12
17:00:04:773685,-3,-5,-8,4,23,16,17,-9
17:00:04:787817,-7,-7,-4,-3,-5,1,-1,4
17:00:04:788689,-7,-7,-4,-3,-5,1,-1,4
17:00:04:794562,-10,9,-5,-5,-9,-9,-12,0
17:00:04:802195,-18,-47,-11,2,6,3,-10,-9
17:00:04:809693,-18,-47,-11,2,6,3,-10,-9
17:00:04:817204,8,23,7,3,-1,-2,34,11
17:00:04:824591,16,22,12,5,1,1,8,2
17:00:04:832196,16,22,12,5,1,1,8,2
17:00:04:839571,-2,37,-7,2,-2,-2,-21,4
17:00:04:847818,-23,67,28,6,1,3,-2,-18
17:00:04:848705,-23,67,28,6,1,3,-2,-18
17:00:04:854568,-52,-38,-1,-7,-7,-10,-69,6
17:00:04:870335,6,-19,-7,4,4,1,-12,-29
17:00:04:871193,6,-19,-7,4,4,1,-12,-29
17:00:04:877232,5,-20,-5,0,-5,-3,13,-7
17:00:04:884568,-10,-22,1,2,-1,0,14,35
17:00:04:892200,-10,-22,1,2,-1,0,14,35
17:00:04:899575,-2,-30,-8,1,-1,-1,-3,-17
17:00:04:907826,13,2,-14,-1,6,5,8,2
17:00:04:908561,13,2,-14,-1,6,5,8,2
17:00:04:914699,-2,7,-4,-6,-5,-1,-8,1
17:00:04:930321,3,100,32,7,-1,0,-60,11
17:00:04:931216,3,100,32,7,-1,0,-60,11
17:00:04:937207,-3,-18,1,0,-1,-3,-4,-31
17:00:04:944573,19,10,-5,-2,4,0,5,-24
17:00:04:952193,19,10,-5,-2,4,0,5,-24
17:00:04:959710,8,11,1,-2,-3,-1,6,0
17:00:04:967842,-32,-121,-48,-18,-5,-2,13,5
17:00:04:968586,-32,-121,-48,-18,-5,-2,13,5
17:00:04:974738,23,73,3,6,3,1,11,20
17:00:04:990341,-10,-62,-2,2,-2,-2,12,-2
17:00:04:991216,-10,-62,-2,2,-2,-2,12,-2
17:00:04:997213,32,-61,5,-4,-3,-7,-15,-23
17:00:05:4729,29,-46,-5,-2,-5,-4,11,-28
17:00:05:12214,29,-46,-5,-2,-5,-4,11,-28
17:00:05:19714,3,49,4,1,-1,3,18,7
17:00:05:27611,-2,-7,-3,0,-1,2,88,23
17:00:05:35340,-2,-7,-3,0,-1,2,88,23
17:00:05:36198,12,-31,-8,-3,0,-1,-4,-23
17:00:05:50323,-33,44,-12,3,0,0,-19,10
17:00:05:51203,-33,44,-12,3,0,0,-19,10
17:00:05:57063,-26,-63,-30,-9,-3,-2,0,5
17:00:05:64710,8,77,6,6,10,6,-6,-8
17:00:05:72206,8,77,6,6,10,6,-6,-8
17:00:05:79588,-6,-40,10,-2,-1,-2,-8,13
17:00:05:87846,20,-39,0,-8,-3,-4,-13,6
17:00:05:88685,20,-39,0,-8,-3,-4,-13,6
17:00:05:94572,-22,-40,-5,0,-2,-2,-3,4
17:00:05:110325,-5,-120,-19,-2,-1,-3,-7,15
17:00:05:111196,-5,-120,-19,-2,-1,-3,-7,15
17:00:05:117198,6,-19,15,3,-1,0,0,-3
17:00:05:124636,7,43,13,5,-2,0,-16,-4
17:00:05:132253,7,43,13,5,-2,0,-16,-4
17:00:05:139591,-4,26,3,1,0,0,1,16
17:00:05:147820,-25,8,17,3,1,0,-4,-14
17:00:05:148700,-25,8,17,3,1,0,-4,-14
17:00:05:154561,-1,29,-16,0,2,1,-8,-5
17:00:05:170334,6,105,10,-3,-6,-3,1,14
17:00:05:171200,6,105,10,-3,-6,-3,1,14
17:00:05:177183,-2,-4,-21,-2,-5,4,4,9
17:00:05:184559,11,-6,-9,-1,-1,-4,-4,-5
17:00:05:192194,11,-6,-9,-1,-1,-4,-4,-5
17:00:05:199681,5,17,-4,-1,-3,-2,3,-25
17:00:05:207822,-7,14,6,3,6,2,-3,0
17:00:05:208584,-7,14,6,3,6,2,-3,0
17:00:05:214699,3,-6,2,12,7,-1,1,14
17:00:05:230311,-11,-40,11,-4,-2,-2,0,-6
17:00:05:231200,-11,-40,11,-4,-2,-2,0,-6
17:00:05:237208,-1,-34,14,-23,-6,-4,-4,-5
17:00:05:244582,20,-46,-6,-7,-3,-1,3,-1
17:00:05:252205,20,-46,-6,-7,-3,-1,3,-1
17:00:05:259700,8,71,33,10,2,2,1,-8
17:00:05:267827,-11,-27,0,-5,-5,-3,-5,4
17:00:05:268707,-11,-27,0,-5,-5,-3,-5,4
17:00:05:274599,-2,-94,-15,-3,-3,-6,-2,13
17:00:05:290324,10,22,1,2,-10,-3,-3,-14
17:00:05:291190,10,22,1,2,-10,-3,-3,-14
17:00:05:297193,14,7,13,-10,5,4,2,-2
17:00:05:304697,-2,19,2,3,3,0,-2,3
17:00:05:312192,-2,19,2,3,3,0,-2,3
17:00:05:319587,-15,-4,5,8,-8,-7,-4,-12
17:00:05:327823,-8,-15,10,-20,-13,-1,-1,0
17:00:05:328695,-8,-15,10,-20,-13,-1,-1,0
17:00:05:334572,-9,-47,-17,-21,-10,0,-4,1
17:00:05:350332,-4,6,-29,14,4,1,0,-2
17:00:05:351220,-4,6,-29,14,4,1,0,-2
17:00:05:357203,-13,-8,-4,2,2,-3,-4,-1
17:00:05:364584,-1,-29,2,-1,-1,-2,-1,-7
17:00:05:372211,-1,-29,2,-1,-1,-2,-1,-7
17:00:05:379582,-2,1,-26,-1,-2,-2,-2,-24
17:00:05:387859,14,-47,-5,4,4,2,0,4
17:00:05:388732,14,-47,-5,4,4,2,0,4
17:00:05:394592,0,-13,-2,-5,-7,-5,2,15
17:00:05:410355,-3,-83,1,-19,-5,-2,1,-3
17:00:05:411216,-3,-83,1,-19,-5,-2,1,-3
17:00:05:417225,-1,51,8,5,-2,3,5,11
17:00:05:424579,-8,-9,13,18,7,-3,-3,1
17:00:05:432199,-8,-9,13,18,7,-3,-3,1
17:00:05:439610,2,13,-13,-9,-4,-3,0,5
17:00:05:447830,-1,55,15,-12,-14,-4,-6,-22
17:00:05:448704,-1,55,15,-12,-14,-4,-6,-22
17:00:05:454580,-14,-28,-14,6,5,1,-1,-15
17:00:05:470350,12,39,3,-1,4,-1,0,10
17:00:05:471194,12,39,3,-1,4,-1,0,10
17:00:05:477195,-8,42,3,-10,0,-2,-5,-16
17:00:05:492813,-8,42,3,-10,0,-2,-5,-16
17:00:05:493691,-9,-29,-8,-6,-3,-5,-3,1
17:00:05:499573,-1,-22,22,3,6,2,1,11
17:00:05:507827,-1,-22,22,3,6,2,1,11
17:00:05:508713,-6,-14,-4,-9,2,1,-1,-4
17:00:05:514609,8,62,27,9,4,3,0,-2
17:00:05:530325,8,62,27,9,4,3,0,-2
17:00:05:531220,-8,18,-19,-4,-3,-3,0,-10
17:00:05:537201,3,-15,6,7,2,0,-3,3
17:00:05:552842,3,-15,6,7,2,0,-3,3
17:00:05:553694,8,115,-16,9,0,4,-1,7
17:00:05:559577,-3,-92,-29,3,-1,-3,-3,2
17:00:05:567817,-3,-92,-29,3,-1,-3,-3,2
17:00:05:568717,-5,-121,-16,3,0,-5,-3,-3
17:00:05:574572,12,-10,5,14,5,-1,-3,8
17:00:05:590334,12,-10,5,14,5,-1,-3,8
17:00:05:591198,9,44,9,9,1,2,2,3
17:00:05:597209,10,17,-14,-6,-3,-2,-2,4
17:00:05:612812,10,17,-14,-6,-3,-2,-2,4
17:00:05:613569,-19,104,29,2,1,1,1,-4
17:00:05:619575,-8,-32,11,-5,-6,-5,-9,5
17:00:05:627829,-8,-32,11,-5,-6,-5,-9,5
17:00:05:628720,18,22,11,-9,0,-2,0,15
17:00:05:634575,-10,-87,-6,-14,-11,-4,-1,-9
17:00:05:658449,-10,-87,-6,-14,-11,-4,-1,-9
17:00:05:659339,-10,-50,-4,6,3,0,0,1
17:00:05:660113,3,18,17,-25,-9,-2,-2,-7
17:00:05:672846,3,18,17,-25,-9,-2,-2,-7
17:00:05:673695,4,34,4,-3,5,2,0,1
17:00:05:679723,6,-70,-5,6,5,1,-2,5
17:00:05:687856,6,-70,-5,6,5,1,-2,5
17:00:05:688573,6,-47,-9,-7,-3,-3,-2,-8
17:00:05:694701,-2,5,-26,8,3,1,2,7
17:00:05:710315,-2,5,-26,8,3,1,2,7
17:00:05:711259,-14,-23,-22,-3,-4,-3,0,-7
17:00:05:717198,0,-66,-15,3,2,2,1,-1
17:00:05:732855,0,-66,-15,3,2,2,1,-1
17:00:05:733717,8,-38,-37,6,4,0,-2,3
17:00:05:739556,-12,31,13,-8,-4,-3,-1,-4
17:00:05:747827,-12,31,13,-8,-4,-3,-1,-4
17:00:05:748725,-6,-30,3,-1,-2,0,0,-5
17:00:05:754711,3,35,-9,5,1,1,2,1
17:00:05:770824,3,35,-9,5,1,1,2,1
17:00:05:771591,14,23,18,-2,-8,-1,-3,6
17:00:05:777194,-11,-9,-42,-1,-2,-1,0,-5
17:00:05:792829,-11,-9,-42,-1,-2,-1,0,-5
17:00:05:793704,-21,-97,-38,-22,1,-5,-3,0
17:00:05:799567,-6,24,11,9,3,1,-1,-17
17:00:05:807825,-6,24,11,9,3,1,-1,-17
17:00:05:808717,3,-10,-1,11,-1,-2,1,21
17:00:05:822212,-11,40,14,-11,-3,-1,-6,-11
17:00:05:830321,-11,40,14,-11,-3,-1,-6,-11
17:00:05:831196,30,34,22,3,-3,2,1,14
17:00:05:837196,31,70,-14,4,-2,-1,9,15
17:00:05:852814,31,70,-14,4,-2,-1,9,15
17:00:05:853715,11,43,45,4,0,1,-2,-9
17:00:05:859593,12,27,25,-3,-8,-2,2,3
17:00:05:867823,12,27,25,-3,-8,-2,2,3
17:00:05:868692,9,28,21,-14,1,0,1,-5
17:00:05:882075,-4,-18,0,10,8,1,-1,1
17:00:05:890358,-4,-18,0,10,8,1,-1,1
17:00:05:891192,-7,-32,25,9,-1,-1,-3,-9
17:00:05:897203,4,3,5,-3,-1,-4,-5,-3
17:00:05:912849,4,3,5,-3,-1,-4,-5,-3
17:00:05:913571,7,82,4,6,-7,3,8,1
17:00:05:928463,14,-39,-38,-15,-6,-3,-1,-22
17:00:05:929323,14,-39,-38,-15,-6,-3,-1,-22
17:00:05:930098,-4,-16,-5,3,1,-1,-1,6
17:00:05:942214,6,-29,2,9,6,-1,-1,9
17:00:05:950353,6,-29,2,9,6,-1,-1,9
17:00:05:951193,-19,-88,-35,-13,-6,-7,-9,-22
17:00:05:957204,-15,-23,-9,4,2,-2,-3,-1
17:00:05:980950,-15,-23,-9,4,2,-2,-3,-1
17:00:05:981817,-1,-23,0,-1,-1,-1,-3,5
17:00:05:982590,0,75,30,14,2,3,2,6
17:00:05:987823,0,75,30,14,2,3,2,6
17:00:05:988712,11,9,-28,-6,4,2,3,4
17:00:06:2124,-4,27,16,-6,-6,0,-1,4
17:00:06:10325,-4,27,16,-6,-6,0,-1,4
17:00:06:11215,-5,55,10,-3,-1,-2,-3,-20
17:00:06:17211,-21,-38,4,-3,-3,-4,-3,-2
17:00:06:32886,-21,-38,4,-3,-3,-4,-3,-2
17:00:06:33607,-24,-108,-23,0,-4,-2,0,2
17:00:06:48462,2,5,-9,-40,-9,-4,-3,-1
17:00:06:49333,2,5,-9,-40,-9,-4,-3,-1
17:00:06:50223,-3,-25,-33,-3,4,-1,-2,-2
17:00:06:62234,-12,-12,-35,0,3,1,0,0
17:00:06:70379,-12,-12,-35,0,3,1,0,0
17:00:06:71208,-3,14,18,-15,-21,-3,-2,2
17:00:06:77261,17,66,0,12,3,2,0,5
17:00:06:92889,17,66,0,12,3,2,0,5
17:00:06:93733,-20,-11,29,4,11,2,-1,-26
17:00:06:99580,-31,-23,21,4,-3,-6,-6,-10
17:00:06:107886,-31,-23,21,4,-3,-6,-6,-10
17:00:06:108612,-9,-11,7,4,1,0,0,4
17:00:06:122250,12,-21,31,-1,-3,-2,3,8
17:00:06:130333,12,-21,31,-1,-3,-2,3,8
17:00:06:131201,-15,-53,3,9,-1,-4,-7,-2
17:00:06:137219,10,63,-9,0,-3,4,5,12
17:00:06:152821,10,63,-9,0,-3,4,5,12
17:00:06:153699,21,-74,-50,-1,-10,-6,-5,4
17:00:06:159579,-23,-120,-60,-23,0,-2,-3,-7
17:00:06:167860,-23,-120,-60,-23,0,-2,-3,-7
17:00:06:168703,15,18,-23,-14,-14,1,4,-2
17:00:06:182212,1,-37,20,5,-3,-3,-4,-6
17:00:06:190326,1,-37,20,5,-3,-3,-4,-6
17:00:06:191205,-7,38,5,21,7,0,-1,14
17:00:06:204596,23,6,4,5,3,0,-6,-26
17:00:06:212843,23,6,4,5,3,0,-6,-26
17:00:06:213705,5,39,20,8,7,2,-1,9
17:00:06:228469,-5,-21,10,-5,-6,-8,-20,-37
17:00:06:229356,-5,-21,10,-5,-6,-8,-20,-37
17:00:06:230203,-4,-2,-10,-6,-1,-6,-1,-5
17:00:06:242190,6,-13,19,19,10,4,11,17
17:00:06:250349,6,-13,19,19,10,4,11,17
17:00:06:251236,9,57,29,2,2,-5,-7,-2
17:00:06:257110,-17,-1,1,11,0,4,4,14
17:00:06:272869,-17,-1,1,11,0,4,4,14
17:00:06:273573,9,57,12,-21,-3,1,1,2
17:00:06:279738,4,61,3,-11,-8,-3,-1,9
17:00:06:287823,4,61,3,-11,-8,-3,-1,9
17:00:06:288578,-2,-27,-25,15,5,3,2,-4
17:00:06:302193,7,-6,-14,-14,-6,2,0,0
17:00:06:310361,7,-6,-14,-14,-6,2,0,0
17:00:06:311236,0,23,29,7,-1,-3,-3,0
17:00:06:317209,-2,-9,-11,8,7,1,3,-6
17:00:06:333324,-2,-9,-11,8,7,1,3,-6
17:00:06:340367,-2,-41,10,4,-4,-5,-2,9
17:00:06:341229,10,93,36,-2,-3,-1,-2,12
17:00:06:347858,10,93,36,-2,-3,-1,-2,12
17:00:06:348594,7,-24,-14,-2,2,1,3,9
17:00:06:362604,-5,-23,-14,-7,-6,-4,2,4
17:00:06:370359,-5,-23,-14,-7,-6,-4,2,4
17:00:06:371261,-26,-43,17,-13,-6,3,2,-3
17:00:06:377232,-9,-71,-12,-7,-3,-5,-4,-2
17:00:06:392837,-9,-71,-12,-7,-3,-5,-4,-2
17:00:06:393731,-5,-19,-9,7,7,-1,-1,-5
17:00:06:399598,-7,-20,-28,-23,-1,-1,-1,-3
17:00:06:407872,-7,-20,-28,-23,-1,-1,-1,-3
17:00:06:408603,7,21,29,-32,-12,-4,-5,-3
17:00:06:422240,-1,18,-17,5,2,0,-1,0
17:00:06:430344,-1,18,-17,5,2,0,-1,0
17:00:06:431256,22,-24,-24,-6,3,3,2,5
17:00:06:437238,-16,-67,12,1,-1,-1,3,-27
17:00:06:452858,-16,-67,12,1,-1,-1,3,-27
17:00:06:453737,7,5,5,11,0,-1,-10,-19
17:00:06:459611,-5,-4,8,12,5,5,6,-1
17:00:06:467859,-5,-4,8,12,5,5,6,-1
17:00:06:468714,-12,-84,-81,-23,-15,-5,1,-11
17:00:06:482597,-12,-29,-24,-1,-5,-4,-8,2
17:00:06:490365,-12,-29,-24,-1,-5,-4,-8,2
17:00:06:491222,-2,37,26,21,17,4,1,9
17:00:06:497214,-7,21,29,37,22,-6,-6,7
17:00:06:512860,-7,21,29,37,22,-6,-6,7
17:00:06:513702,-2,28,42,-8,-7,1,2,2
17:00:06:519604,7,3,24,16,8,5,5,5
17:00:06:527854,7,3,24,16,8,5,5,5
17:00:06:528725,-19,19,-14,3,1,-2,0,-1
17:00:06:542110,24,24,-18,-6,0,3,-27,23
17:00:06:550365,24,24,-18,-6,0,3,-27,23
17:00:06:551196,0,-6,11,11,2,-4,-5,13
17:00:06:557239,-7,-18,1,-16,-11,-1,9,-3
17:00:06:572838,-7,-18,1,-16,-11,-1,9,-3
17:00:06:573732,15,43,15,-15,-5,-1,-1,6
17:00:06:579589,-4,-29,16,-7,-1,-3,0,6
17:00:06:587869,-4,-29,16,-7,-1,-3,0,6
17:00:06:588723,-1,-3,11,23,8,-7,-22,-40
17:00:06:602114,-5,14,-20,-9,-6,-1,0,-4
17:00:06:610334,-5,14,-20,-9,-6,-1,0,-4
17:00:06:611234,2,74,6,22,1,3,4,5
17:00:06:617217,-4,45,36,11,-2,3,2,4
17:00:06:633219,-4,45,36,11,-2,3,2,4
17:00:06:640235,-3,-40,-9,-8,4,3,1,4
17:00:06:641093,6,-6,-27,-27,-3,0,5,-1
17:00:06:647848,6,-6,-27,-27,-3,0,5,-1
17:00:06:648741,-3,-105,-22,1,-6,-6,-2,-10
17:00:06:662097,-10,14,0,8,4,6,11,-24
17:00:06:670356,-10,14,0,8,4,6,11,-24
17:00:06:671228,5,-19,-6,-6,-2,-2,-14,17
17:00:06:677121,56,-80,10,8,-9,-7,0,12
17:00:06:692825,56,-80,10,8,-9,-7,0,12
17:00:06:693599,24,12,29,-8,-1,2,7,7
17:00:06:699588,3,54,12,-14,-8,0,1,4
17:00:06:707858,3,54,12,-14,-8,0,1,4
17:00:06:708729,0,17,-7,-3,5,6,11,10
17:00:06:722236,-13,-33,30,-2,8,-7,-6,-12
17:00:06:730356,-13,-33,30,-2,8,-7,-6,-12
17:00:06:731248,-19,-1,11,-17,0,-3,2,-12
17:00:06:744595,8,19,13,17,4,-2,5,30
17:00:06:761102,8,19,13,17,4,-2,5,30
17:00:06:761849,-4,-35,-17,5,-1,-3,-6,4
17:00:06:762603,-41,-31,-39,1,-2,-1,3,27
17:00:06:767238,-41,-31,-39,1,-2,-1,3,27
17:00:06:774727,-11,-8,2,3,-3,-1,3,-11
17:00:06:782215,1,3,-17,0,-2,1,3,-18
17:00:06:790364,1,3,-17,0,-2,1,3,-18
17:00:06:791234,20,24,24,3,-1,-2,-4,-4
17:00:06:804619,-12,6,10,-15,-16,-3,-9,-11
17:00:06:812883,-12,6,10,-15,-16,-3,-9,-11
17:00:06:813591,-10,-91,2,-26,-19,-8,3,-12
17:00:06:819604,14,-34,-31,-8,11,-3,-7,-15
17:00:06:827221,14,-34,-31,-8,11,-3,-7,-15
17:00:06:834582,-19,15,11,16,0,-2,2,6
17:00:06:842101,7,59,8,6,-1,1,0,14
17:00:06:850361,7,59,8,6,-1,1,0,14
17:00:06:851209,-11,41,0,1,5,6,-1,20
