Time,EMG1,EMG2,EMG3,EMG4,EMG5,EMG6,EMG7,EMG8
13:06:21:778897,-1,1,-5,-3,-2,0,-3,-1
13:06:21:779779,-1,1,-5,-3,-2,0,-3,-1
13:06:21:785785,-4,0,1,-2,-1,0,1,-1
13:06:21:793334,-1,-3,-2,-3,-1,1,1,-3
13:06:21:800798,-1,-3,-2,-3,-1,1,1,-3
13:06:21:808366,1,-3,-2,-5,-3,-1,-1,-4
13:06:21:816401,0,-1,-3,0,2,-2,-1,-1
13:06:21:817304,0,-1,-3,0,2,-2,-1,-1
13:06:21:823296,-3,-2,-1,-4,-1,0,1,-1
13:06:21:838958,2,-2,-2,-2,-2,-2,-1,-2
13:06:21:839824,2,-2,-2,-2,-2,-2,-1,-2
13:06:21:845780,0,-1,-3,2,1,-1,-5,-1
13:06:21:861408,-1,-4,2,1,2,-2,-1,1
13:06:21:862266,-1,-4,2,1,2,-2,-1,1
13:06:21:868266,0,-1,-1,0,1,-1,-1,-3
13:06:21:876434,0,-3,-2,3,1,-4,-1,-1
13:06:21:877312,0,-3,-2,3,1,-4,-1,-1
13:06:21:883289,0,0,0,-1,0,-3,0,-1
13:06:21:898900,1,0,-2,-2,-2,-2,1,1
13:06:21:899815,1,0,-2,-2,-2,-2,1,1
13:06:21:905782,-1,3,0,-1,0,-2,0,-1
13:06:21:913318,3,2,0,-3,-1,-2,-4,0
13:06:21:920851,3,2,0,-3,-1,-2,-4,0
13:06:21:928272,1,-2,-2,-1,-2,-1,1,0
13:06:21:936424,1,0,-5,-5,-2,2,-2,-1
13:06:21:937301,1,0,-5,-5,-2,2,-2,-1
13:06:21:943317,-4,-1,-3,-2,-3,1,-3,0
13:06:21:958924,-2,1,-3,-3,-3,2,0,-3
13:06:21:959845,-2,1,-3,-3,-3,2,0,-3
13:06:21:965813,-1,-5,-3,0,0,-1,-2,-4
13:06:21:981434,-5,5,3,0,-3,0,1,-1
13:06:21:982311,-5,5,3,0,-3,0,1,-1
13:06:21:988306,-2,-1,0,-2,0,-2,-1,1
13:06:21:996453,0,-4,2,0,0,-2,2,-1
13:06:21:997338,0,-4,2,0,0,-2,2,-1
13:06:22:3308,1,1,1,-1,2,-2,1,1
13:06:22:18920,-2,-2,-1,2,1,-2,-2,2
13:06:22:19783,-2,-2,-1,2,1,-2,-2,2
13:06:22:25830,-1,-4,0,0,-4,-1,-2,0
13:06:22:33285,-1,-6,-1,0,0,-1,-1,-1
13:06:22:40814,-1,-6,-1,0,0,-1,-1,-1
13:06:22:48295,0,1,1,0,0,0,2,1
13:06:22:56405,-2,1,0,-3,-1,-1,0,-2
13:06:22:57331,-2,1,0,-3,-1,-1,0,-2
13:06:22:63304,-1,3,-2,-2,-4,2,-1,-1
13:06:22:78939,0,-1,-2,-1,-1,-2,-1,-2
13:06:22:79806,0,-1,-2,-1,-1,-2,-1,-2
13:06:22:85810,0,-2,0,-1,1,-2,-1,-1
13:06:22:93338,1,-1,-4,-3,-2,-2,-1,4
13:06:22:100801,1,-1,-4,-3,-2,-2,-1,4
13:06:22:108296,0,-3,0,-2,-4,-1,-1,-2
13:06:22:116544,0,-3,0,-2,-4,-1,-1,-2
13:06:22:117306,-2,-3,1,-2,-2,-2,-1,0
13:06:22:123297,-2,1,-3,-2,-3,-1,-2,0
13:06:22:139057,-2,1,-3,-2,-3,-1,-2,0
13:06:22:139857,-2,-1,-4,-3,-3,-1,2,-3
13:06:22:145777,-1,0,1,-5,0,-2,-2,-3
13:06:22:161530,-1,0,1,-5,0,-2,-2,-3
13:06:22:162263,-6,-2,1,-1,0,2,-3,-1
13:06:22:168283,-4,-3,-2,-1,2,-2,-1,0
13:06:22:176585,-4,-3,-2,-1,2,-2,-1,0
13:06:22:177272,4,1,0,1,2,-1,-3,-1
13:06:22:183291,-3,0,1,0,0,0,0,-1
13:06:22:199039,-3,0,1,0,0,0,0,-1
13:06:22:199791,-1,-6,-2,0,-2,-3,0,0
13:06:22:205843,0,-3,1,-1,2,-1,-2,0
13:06:22:221597,0,-3,1,-1,2,-1,-2,0
13:06:22:222341,3,3,3,0,0,-2,-3,1
13:06:22:228281,1,0,-1,1,2,-2,-2,-2
13:06:22:236526,1,0,-1,1,2,-2,-2,-2
13:06:22:237406,-3,-2,-3,-4,1,-3,1,-1
13:06:22:243314,2,5,-2,0,-1,-1,0,0
13:06:22:259052,2,5,-2,0,-1,-1,0,0
13:06:22:259808,0,-1,-2,-2,0,-2,-2,-1
13:06:22:265799,-1,0,2,-5,-3,1,-1,-3
13:06:22:281415,-1,0,2,-5,-3,1,-1,-3
13:06:22:282359,-2,1,2,-4,-1,1,-3,-5
13:06:22:288315,-3,-4,-3,1,-1,0,-1,-1
13:06:22:296560,-3,-4,-3,1,-1,0,-1,-1
13:06:22:297297,-2,-1,0,0,0,-2,0,-3
13:06:22:310784,-1,1,-3,-2,0,-1,-2,-3
13:06:22:318920,-1,1,-3,-2,0,-1,-2,-3
13:06:22:319781,3,2,-2,-2,0,2,-1,-1
13:06:22:325812,0,0,-2,-3,-2,-3,-1,0
13:06:22:341424,0,0,-2,-3,-2,-3,-1,0
13:06:22:342296,-1,-2,-1,-2,-1,-1,-2,1
13:06:22:348277,-1,-2,-1,0,1,-1,-1,0
13:06:22:356433,-1,-2,-1,0,1,-1,-1,0
13:06:22:357283,0,-4,-2,-3,-3,-2,0,-3
13:06:22:370797,-8,0,3,0,-5,0,-2,1
13:06:22:378905,-8,0,3,0,-5,0,-2,1
13:06:22:379797,-1,-2,-1,-1,-2,2,0,0
13:06:22:385791,2,0,-1,-4,2,-2,-4,2
13:06:22:401434,2,0,-1,-4,2,-2,-4,2
13:06:22:402293,-3,-8,-3,-1,-3,-1,-2,2
13:06:22:408285,0,-6,-3,0,0,-3,3,-1
13:06:22:416477,0,-6,-3,0,0,-3,3,-1
13:06:22:417328,0,0,0,0,2,-4,0,-1
13:06:22:430814,-5,-3,1,0,1,-1,-2,0
13:06:22:438912,-5,-3,1,0,1,-1,-2,0
13:06:22:439825,2,1,0,-1,-2,1,2,1
13:06:22:445798,1,3,-1,2,-1,-3,0,-2
13:06:22:461563,1,3,-1,2,-1,-3,0,-2
13:06:22:462293,-5,2,2,0,-1,-1,0,1
13:06:22:468292,0,0,1,-3,-1,0,-2,-3
13:06:22:476451,0,0,1,-3,-1,0,-2,-3
13:06:22:477295,-2,-3,-2,-1,-2,0,-2,-2
13:06:22:490858,-2,5,3,-5,-4,1,-1,-2
13:06:22:498926,-2,5,3,-5,-4,1,-1,-2
13:06:22:499799,-3,-1,-2,-2,-1,-2,-3,-1
13:06:22:505802,1,-3,-2,1,-1,1,-1,-1
13:06:22:521576,1,-3,-2,1,-1,1,-1,-1
13:06:22:522290,-1,1,1,-1,-2,-1,-1,-5
13:06:22:537176,-7,-3,-2,0,-2,-1,-1,0
13:06:22:537924,-7,-3,-2,0,-2,-1,-1,0
13:06:22:538883,0,0,-1,-3,-2,0,0,-2
13:06:22:550813,1,3,-2,-3,-2,1,-1,-3
13:06:22:558927,1,3,-2,-3,-2,1,-1,-3
13:06:22:559808,1,-1,-1,0,2,-1,-3,-2
13:06:22:565820,-1,0,1,-4,-1,2,0,-2
13:06:22:581442,-1,0,1,-4,-1,2,0,-2
13:06:22:582364,-2,-3,1,3,-3,-2,0,-1
13:06:22:588316,0,-5,0,2,3,-5,-1,-2
13:06:22:596550,0,-5,0,2,3,-5,-1,-2
13:06:22:597296,-1,-2,-1,1,3,1,1,1
13:06:22:610823,-1,-4,-1,1,1,-5,-1,-1
13:06:22:618927,-1,-4,-1,1,1,-5,-1,-1
13:06:22:619792,0,-2,0,-1,-2,-4,-1,-1
13:06:22:625805,2,0,0,-2,-3,-1,-1,1
13:06:22:641444,2,0,0,-2,-3,-1,-1,1
13:06:22:642283,1,0,-3,-4,2,1,-1,-1
13:06:22:648276,0,0,-3,-2,0,0,0,-3
13:06:22:656418,0,0,-3,-2,0,0,0,-3
13:06:22:657296,-7,0,-1,-3,-4,-1,-1,-4
13:06:22:670817,2,-1,-5,-2,-3,1,-1,-2
13:06:22:678916,2,-1,-5,-2,-3,1,-1,-2
13:06:22:679782,-1,0,-3,-1,0,-1,-1,0
13:06:22:685792,-1,-1,-2,0,-2,1,1,-1
13:06:22:701427,-1,-1,-2,0,-2,1,1,-1
13:06:22:702297,-1,0,-2,-1,-2,1,-3,-2
13:06:22:708303,-1,-3,0,0,1,-2,0,-2
13:06:22:716473,-1,-3,0,0,1,-2,0,-2
13:06:22:717341,0,-1,2,1,2,-2,-2,1
13:06:22:730792,-4,-1,-1,-1,-2,1,-1,-1
13:06:22:738937,-4,-1,-1,-1,-2,1,-1,-1
13:06:22:739807,-1,-2,0,-2,-4,-1,-1,-3
13:06:22:745784,-2,-7,0,-3,-4,-1,-1,-1
13:06:22:761432,-2,-7,0,-3,-4,-1,-1,-1
13:06:22:762288,-1,-1,0,0,1,-3,-1,0
13:06:22:768325,-1,-1,1,-1,1,-2,1,-1
13:06:22:776455,-1,-1,1,-1,1,-2,1,-1
13:06:22:777281,3,-2,1,-1,2,-2,0,0
13:06:22:790822,1,-1,1,3,2,-2,-1,0
13:06:22:798949,1,-1,1,3,2,-2,-1,0
13:06:22:799808,-1,2,2,-2,0,0,0,2
13:06:22:805840,-1,1,-2,-1,0,-4,-1,1
13:06:22:821579,-1,1,-2,-1,0,-4,-1,1
13:06:22:822339,1,-1,-2,1,0,0,-2,-1
13:06:22:828307,0,4,0,-1,-3,0,-2,0
13:06:22:844057,0,4,0,-1,-3,0,-2,0
13:06:22:844821,-2,-2,1,-3,-1,-2,-2,1
13:06:22:850821,-2,-1,-4,-3,0,1,-2,-3
13:06:22:859069,-2,-1,-4,-3,0,1,-2,-3
13:06:22:859848,-2,-3,-3,-2,-1,0,0,-3
13:06:22:865832,-2,-3,-1,-2,-1,0,-2,-3
13:06:22:881565,-2,-3,-1,-2,-1,0,-2,-3
13:06:22:882309,0,-1,-4,-4,-4,-1,0,1
13:06:22:888321,-3,-2,-1,-5,-2,0,-1,-3
13:06:22:896540,-3,-2,-1,-5,-2,0,-1,-3
13:06:22:897370,1,2,-2,0,2,-2,-1,0
13:06:22:910804,1,5,-2,-2,0,-1,0,0
13:06:22:919041,1,5,-2,-2,0,-1,0,0
13:06:22:919793,-1,-2,0,1,0,-1,-2,-1
13:06:22:925795,0,-3,1,-1,0,-1,-2,-2
13:06:22:941540,0,-3,1,-1,0,-1,-2,-2
13:06:22:942332,-1,-2,1,-2,-1,0,-2,-1
13:06:22:948301,0,-3,0,0,2,-1,-2,1
13:06:22:956544,0,-3,0,0,2,-1,-2,1
13:06:22:957318,-2,-1,-3,0,-4,-2,-1,-3
13:06:22:970793,-2,-1,-2,1,-3,0,-2,-2
13:06:22:979052,-2,-1,-2,1,-3,0,-2,-2
13:06:22:979787,-1,1,0,-2,-4,0,-2,-5
13:06:22:985784,-3,-1,-4,-5,-7,2,0,0
13:06:23:1421,-3,-1,-4,-5,-7,2,0,0
13:06:23:2308,-2,-2,-4,-5,-1,0,-1,-5
13:06:23:8314,0,-1,1,2,12,3,0,-3
13:06:23:16533,0,-1,1,2,12,3,0,-3
13:06:23:17330,0,0,0,2,-4,-1,1,-4
13:06:23:30809,2,2,0,-2,-3,-4,-3,0
13:06:23:38961,2,2,0,-2,-3,-4,-3,0
13:06:23:39786,-5,-11,-3,0,2,-2,0,-1
13:06:23:45806,-1,-2,-1,-2,-1,-2,0,4
13:06:23:61424,-1,-2,-1,-2,-1,-2,0,4
13:06:23:62297,1,-1,-1,0,-2,-2,0,3
13:06:23:68313,1,5,0,0,0,-2,-3,-2
13:06:23:76583,1,5,0,0,0,-2,-3,-2
13:06:23:77293,-3,0,1,-1,-2,-2,1,0
13:06:23:90802,-1,-2,-2,-2,-1,0,-2,-4
13:06:23:98934,-1,-2,-2,-2,-1,0,-2,-4
13:06:23:99805,-2,-3,-2,0,5,-1,-1,-1
13:06:23:105806,-2,-3,-2,-3,-5,-3,0,0
13:06:23:121947,-2,-3,-2,-3,-5,-3,0,0
13:06:23:128951,2,3,0,-4,0,-2,-2,2
13:06:23:129667,-4,-1,-3,-1,2,2,1,-4
13:06:23:136425,-4,-1,-3,-1,2,2,1,-4
13:06:23:137288,0,3,-2,-4,2,1,0,-1
13:06:23:150800,0,-5,-5,-1,-5,-4,1,-2
13:06:23:158930,0,-5,-5,-1,-5,-4,1,-2
13:06:23:159791,0,2,-2,-3,-1,-2,-2,-2
13:06:23:165800,-2,0,2,0,2,0,0,-2
13:06:23:181434,-2,0,2,0,2,0,0,-2
13:06:23:182302,1,2,-2,0,4,2,0,0
13:06:23:188305,-2,1,2,0,-14,-5,-3,0
13:06:23:196430,-2,1,2,0,-14,-5,-3,0
13:06:23:197296,-1,-3,1,0,-8,1,-1,-1
13:06:23:210808,-1,4,-1,-3,-6,-1,0,0
13:06:23:218918,-1,4,-1,-3,-6,-1,0,0
13:06:23:219793,-2,-5,0,2,17,2,0,1
13:06:23:225795,0,-6,-5,-4,6,-4,-2,-4
13:06:23:241494,0,-6,-5,-4,6,-4,-2,-4
13:06:23:242320,-1,-4,-2,1,-2,-9,-3,2
13:06:23:248320,0,0,5,5,43,18,5,1
13:06:23:255818,0,0,5,5,43,18,5,1
13:06:23:263315,2,2,0,-10,-10,-5,-3,0
13:06:23:270817,1,-5,-2,0,-25,-18,-1,2
13:06:23:278947,1,-5,-2,0,-25,-18,-1,2
13:06:23:279816,0,-1,-6,3,-10,10,4,-5
13:06:23:293322,-3,-2,-8,-17,-20,-11,-6,-3
13:06:23:301416,-3,-2,-8,-17,-20,-11,-6,-3
13:06:23:302306,-2,2,2,2,-2,7,2,-2
13:06:23:308348,-1,1,-1,2,2,3,-1,-3
13:06:23:315808,-1,1,-1,2,2,3,-1,-3
13:06:23:323320,-6,1,-6,-11,15,-3,-4,-5
13:06:23:330811,-1,1,3,3,31,0,-3,2
13:06:23:339458,-1,1,3,3,31,0,-3,2
13:06:23:345816,0,6,15,4,16,3,-1,-1
13:06:23:353311,5,4,3,-5,-8,1,-2,0
13:06:23:369740,5,4,3,-5,-8,1,-2,0
13:06:23:370433,6,-6,1,-3,-12,-8,-2,6
13:06:23:371294,-17,-8,-8,0,-6,-4,2,-1
13:06:23:375809,-17,-8,-8,0,-6,-4,2,-1
13:06:23:383290,-11,1,9,4,-2,-6,-2,-1
13:06:23:390788,10,-12,3,5,17,-3,1,17
13:06:23:399051,10,-12,3,5,17,-3,1,17
13:06:23:399795,-1,-15,-12,-6,-2,-6,1,0
13:06:23:413332,7,4,-2,-3,-10,5,-1,-8
13:06:23:421421,7,4,-2,-3,-10,5,-1,-8
13:06:23:422290,-1,8,5,1,-3,2,0,-2
13:06:23:428319,11,0,-19,-6,-5,0,-3,-11
13:06:23:435820,11,0,-19,-6,-5,0,-3,-11
13:06:23:443343,-2,2,-22,-11,-13,3,-1,-4
13:06:23:459711,4,10,12,5,-4,8,-2,-6
13:06:23:460431,4,10,12,5,-4,8,-2,-6
13:06:23:461291,7,-2,-4,-3,-4,-3,1,4
13:06:23:473299,-11,-7,5,3,14,-1,1,2
13:06:23:482184,-11,-7,5,3,14,-1,1,2
13:06:23:483047,-5,0,9,5,-7,-1,-1,-5
13:06:23:488305,-4,-1,-4,-3,4,-5,-3,-4
13:06:23:495813,-4,-1,-4,-3,4,-5,-3,-4
13:06:23:503301,2,1,-3,-12,-5,-9,-4,1
13:06:23:510815,-2,-5,0,1,-9,3,0,-1
13:06:23:519051,-2,-5,0,1,-9,3,0,-1
13:06:23:519792,1,-1,-10,-1,1,-2,0,-1
13:06:23:533316,-8,12,2,4,-9,-6,-1,0
13:06:23:541604,-8,12,2,4,-9,-6,-1,0
13:06:23:542320,-2,-1,-1,-4,-9,-2,-1,-2
13:06:23:548318,2,-1,4,1,0,5,1,-1
13:06:23:555854,2,-1,4,1,0,5,1,-1
13:06:23:563319,1,2,2,1,5,2,-1,2
13:06:23:570803,-2,3,3,2,-4,-6,-2,0
13:06:23:578938,-2,3,3,2,-4,-6,-2,0
13:06:23:579800,-2,-11,5,2,-5,0,0,-2
13:06:23:593370,0,-1,-3,-1,-1,-5,-1,1
13:06:23:601579,0,-1,-3,-1,-1,-5,-1,1
13:06:23:602300,0,3,5,2,1,5,0,1
13:06:23:608344,-2,-3,-5,-5,-3,-3,0,-2
13:06:23:615818,-2,-3,-5,-5,-3,-3,0,-2
13:06:23:623335,-3,-2,1,4,5,-4,-5,-1
13:06:23:630801,-4,-11,-2,-3,1,1,-1,1
13:06:23:639027,-4,-11,-2,-3,1,1,-1,1
13:06:23:639841,1,-2,0,5,0,-7,-2,-2
13:06:23:653335,0,-2,1,-5,-10,-4,-2,0
13:06:23:661429,0,-2,1,-5,-10,-4,-2,0
13:06:23:662307,-2,6,-3,-11,3,8,2,-2
13:06:23:668296,-5,-3,-1,-2,3,0,-2,-4
13:06:23:675791,-5,-3,-1,-2,3,0,-2,-4
13:06:23:683304,-4,-7,-7,-1,0,-3,-2,0
13:06:23:690832,-1,-3,0,0,-5,0,-1,2
13:06:23:698919,-1,-3,0,0,-5,0,-1,2
13:06:23:699794,-1,0,2,2,8,0,1,1
13:06:23:713317,-3,0,-7,-4,0,5,-2,-3
13:06:23:721477,-3,0,-7,-4,0,5,-2,-3
13:06:23:722335,0,-1,2,6,3,-4,1,1
13:06:23:728303,0,-2,1,-2,1,-3,-1,-6
13:06:23:735805,0,-2,1,-2,1,-3,-1,-6
13:06:23:743307,2,0,-3,-2,-5,2,2,-4
13:06:23:750815,3,-2,-1,-4,-18,-6,-1,-2
13:06:23:759056,3,-2,-1,-4,-18,-6,-1,-2
13:06:23:759814,-3,-2,1,1,0,1,-2,-2
13:06:23:773296,-3,-1,1,-3,-1,2,0,-4
13:06:23:781443,-3,-1,1,-3,-1,2,0,-4
13:06:23:782308,-1,-2,0,-1,0,-1,-4,-1
13:06:23:788302,-1,3,-2,-1,2,1,-3,-4
13:06:23:795814,-1,3,-2,-1,2,1,-3,-4
13:06:23:803303,-2,-1,-1,-1,0,0,2,1
13:06:23:810806,-2,-3,0,3,3,-4,0,7
13:06:23:819075,-2,-3,0,3,3,-4,0,7
13:06:23:819802,2,-1,0,2,-19,-9,0,2
13:06:23:833297,-3,-3,-5,-2,-20,-10,-1,-5
13:06:23:841581,-3,-3,-5,-2,-20,-10,-1,-5
13:06:23:842326,5,2,-3,-3,3,1,0,-2
13:06:23:848293,2,-1,0,-2,-8,2,-1,-3
13:06:23:855798,2,-1,0,-2,-8,2,-1,-3
13:06:23:863320,-3,-2,-4,-7,-6,-14,-6,-3
13:06:23:870812,-1,-2,-1,0,17,3,2,1
13:06:23:878952,-1,-2,-1,0,17,3,2,1
13:06:23:879791,-4,-2,2,1,5,0,-2,-2
13:06:23:893363,-2,-1,-1,-2,-4,-3,-2,3
13:06:23:901457,-2,-1,-1,-2,-4,-3,-2,3
13:06:23:902318,-6,-27,-3,5,-4,-1,-1,-2
13:06:23:908322,-6,-21,-1,2,1,0,-1,0
13:06:23:915804,-6,-21,-1,2,1,0,-1,0
13:06:23:923313,4,2,1,-2,9,3,-1,-2
13:06:23:930811,-14,-10,0,1,-12,-2,-3,1
13:06:23:938986,-14,-10,0,1,-12,-2,-3,1
13:06:23:939877,0,-2,0,-2,-17,-1,2,1
13:06:23:953309,4,12,1,-1,7,3,2,-1
13:06:23:961427,4,12,1,-1,7,3,2,-1
13:06:23:962289,-4,7,-2,1,13,3,-2,-3
13:06:23:968294,2,2,-2,-5,4,2,-1,0
13:06:23:975816,2,2,-2,-5,4,2,-1,0
13:06:23:983293,-1,-6,-4,-4,-12,-4,-3,-4
13:06:23:990839,0,3,-1,1,1,0,3,-1
13:06:23:998960,0,3,-1,1,1,0,3,-1
13:06:23:999842,-2,5,0,2,-12,-1,-3,-4
13:06:24:13329,1,5,0,-1,5,0,0,-5
13:06:24:21450,1,5,0,-1,5,0,0,-5
13:06:24:22346,-5,1,0,-4,11,1,-2,-1
13:06:24:28308,3,-2,2,-2,-11,-7,-2,1
13:06:24:35810,3,-2,2,-2,-11,-7,-2,1
13:06:24:43328,-3,-11,3,-1,-3,2,-3,-4
13:06:24:50807,-4,-8,-1,2,-5,-5,-2,-3
13:06:24:58971,-4,-8,-1,2,-5,-5,-2,-3
13:06:24:59857,2,8,3,1,8,5,2,3
13:06:24:73332,-1,-3,-2,-2,-2,-2,-2,-6
13:06:24:81437,-1,-3,-2,-2,-2,-2,-2,-6
13:06:24:82350,-1,3,-2,-4,19,0,-4,-1
13:06:24:88319,3,-1,-3,-3,6,0,-1,0
13:06:24:95821,3,-1,-3,-3,6,0,-1,0
13:06:24:103309,1,2,-4,-3,-3,-2,0,-2
13:06:24:110817,0,-1,-1,-2,5,-2,0,0
13:06:24:118941,0,-1,-1,-2,5,-2,0,0
13:06:24:119807,1,-2,-1,0,1,1,0,-2
13:06:24:133301,-3,1,-2,-2,1,1,1,1
13:06:24:141575,-3,1,-2,-2,1,1,1,1
13:06:24:142313,0,1,0,-2,-23,-5,1,3
13:06:24:148284,1,4,-1,-4,-11,-2,2,1
13:06:24:155841,1,4,-1,-4,-11,-2,2,1
13:06:24:163318,-2,2,-4,-4,-2,-3,-2,-1
13:06:24:170811,-2,-11,3,2,13,1,-2,0
13:06:24:178946,-2,-11,3,2,13,1,-2,0
13:06:24:179812,-1,6,2,0,9,0,1,-6
13:06:24:193318,-1,-2,-5,-6,4,1,-2,-2
13:06:24:201440,-1,-2,-5,-6,4,1,-2,-2
13:06:24:202303,-2,-4,0,1,-13,-4,-3,-1
13:06:24:216433,0,-3,-17,-4,4,0,1,-1
13:06:24:217331,0,-3,-17,-4,4,0,1,-1
13:06:24:223339,-2,-1,-6,-3,-3,0,1,1
13:06:24:230818,0,-1,-8,-3,1,-2,2,0
13:06:24:238312,0,-1,-8,-3,1,-2,2,0
13:06:24:245799,0,-3,-8,-5,6,-3,-1,-1
13:06:24:253332,-1,7,11,5,6,0,-3,-2
13:06:24:261444,-1,7,11,5,6,0,-3,-2
13:06:24:262294,-1,-1,2,2,-1,2,1,5
13:06:24:276486,1,-2,6,3,-4,5,3,2
13:06:24:277351,1,-2,6,3,-4,5,3,2
13:06:24:283310,0,0,5,4,3,-3,0,-2
13:06:24:290801,-5,-4,12,2,13,-1,-4,-5
13:06:24:298311,-5,-4,12,2,13,-1,-4,-5
13:06:24:305801,-1,2,9,-3,16,3,-3,-4
13:06:24:313318,-2,-14,0,-3,-13,-5,-3,-1
13:06:24:321467,-2,-14,0,-3,-13,-5,-3,-1
13:06:24:322317,0,-1,2,0,-4,-2,-2,-4
13:06:24:336473,-2,-15,-9,-8,-1,-3,-3,-2
13:06:24:337327,-2,-15,-9,-8,-1,-3,-3,-2
13:06:24:343360,-3,-2,-6,-5,-3,-1,0,0
13:06:24:350689,2,11,-1,-1,-6,-1,-2,0
13:06:24:358332,2,11,-1,-1,-6,-1,-2,0
13:06:24:365819,3,-5,-4,0,-2,-1,4,-4
13:06:24:373345,1,6,-1,-1,-8,-4,0,1
13:06:24:381447,1,6,-1,-1,-8,-4,0,1
13:06:24:382346,-2,3,4,0,5,3,0,0
13:06:24:396442,-2,3,-1,-3,1,-1,1,-2
13:06:24:397328,-2,3,-1,-3,1,-1,1,-2
13:06:24:403307,-2,-6,-5,0,-7,-3,-1,1
13:06:24:410799,3,2,2,1,-12,-1,-2,1
13:06:24:418315,3,2,2,1,-12,-1,-2,1
13:06:24:425823,-1,1,-2,-1,2,1,0,-2
13:06:24:433300,-4,-21,-1,3,5,-1,0,-1
13:06:24:441615,-4,-21,-1,3,5,-1,0,-1
13:06:24:442313,-10,3,-3,2,1,-1,-10,-4
13:06:24:456452,-4,-14,-1,-3,-1,-1,-2,2
13:06:24:457315,-4,-14,-1,-3,-1,-1,-2,2
13:06:24:463315,3,-7,-3,-4,-2,-1,3,4
13:06:24:470825,-2,-3,-1,-2,16,3,-3,-1
13:06:24:478313,-2,-3,-1,-2,16,3,-3,-1
13:06:24:485811,-6,0,-1,-3,-4,-3,0,-5
13:06:24:493341,-1,21,3,-3,-6,-4,-4,-2
13:06:24:501419,-1,21,3,-3,-6,-4,-4,-2
13:06:24:502286,-1,0,-4,-4,14,1,10,2
13:06:24:516432,-1,7,1,0,-8,-8,-23,-15
13:06:24:517336,-1,7,1,0,-8,-8,-23,-15
13:06:24:523302,2,-1,-2,-6,-6,1,7,5
13:06:24:530812,4,7,0,-1,11,0,1,-3
13:06:24:538307,4,7,0,-1,11,0,1,-3
13:06:24:545824,6,-4,-2,-3,-2,5,9,7
13:06:24:553312,-13,-5,-2,1,-7,-12,-25,-23
13:06:24:561447,-13,-5,-2,1,-7,-12,-25,-23
13:06:24:562309,-4,-13,-3,-4,3,-2,-8,-9
13:06:24:576483,-2,0,-4,-2,-3,5,16,12
13:06:24:577306,-2,0,-4,-2,-3,5,16,12
13:06:24:583310,-4,3,5,5,-20,-5,-1,1
13:06:24:590828,12,-3,2,2,-30,-2,0,2
13:06:24:598303,12,-3,2,2,-30,-2,0,2
13:06:24:605773,1,-1,1,0,-16,0,2,7
13:06:24:613310,2,9,0,-5,2,-2,-9,-2
13:06:24:629701,2,9,0,-5,2,-2,-9,-2
13:06:24:630432,9,5,1,-2,21,2,-7,-3
13:06:24:636462,-10,-5,-1,-8,-13,3,17,5
13:06:24:637349,-10,-5,-1,-8,-13,3,17,5
13:06:24:643356,-8,0,-4,-3,-8,-5,-2,-3
13:06:24:650838,7,5,4,3,23,4,2,3
13:06:24:658341,7,5,4,3,23,4,2,3
13:06:24:665841,8,6,-1,-8,-4,0,3,2
13:06:24:673325,-58,-26,1,0,3,-11,-9,-15
13:06:24:681444,-58,-26,1,0,3,-11,-9,-15
13:06:24:682298,1,-1,2,5,12,-5,-2,-3
13:06:24:704616,11,1,-1,6,-4,3,-3,-4
13:06:24:705451,11,1,-1,6,-4,3,-3,-4
13:06:24:706315,-18,-2,1,2,-12,1,-3,-3
13:06:24:710708,2,7,1,2,19,-1,8,-1
13:06:24:718333,2,7,1,2,19,-1,8,-1
13:06:24:725820,24,11,1,-6,-5,-3,-5,2
13:06:24:733302,-18,-9,-6,-12,9,-1,-2,0
13:06:24:741478,-18,-9,-6,-12,9,-1,-2,0
13:06:24:742345,-3,2,3,-3,24,2,-2,-5
13:06:24:756454,12,8,-2,-2,-12,9,11,10
13:06:24:757332,12,8,-2,-2,-12,9,11,10
13:06:24:763345,-20,-6,-7,2,-10,-2,-4,-10
13:06:24:770851,-2,-10,-1,1,-6,-7,-7,-14
13:06:24:778324,-2,-10,-1,1,-6,-7,-7,-14
13:06:24:785827,11,-6,0,-2,2,-2,-1,-1
13:06:24:793330,-1,7,7,-7,13,5,9,9
13:06:24:801562,-1,7,7,-7,13,5,9,9
13:06:24:802309,-32,-20,-16,-3,-5,-5,-7,-5
13:06:24:816831,-3,-8,-4,0,-24,-4,-9,-4
13:06:24:823980,-3,-8,-4,0,-24,-4,-9,-4
13:06:24:824843,9,-2,-8,-6,-10,-4,-2,5
13:06:24:838953,9,-12,-4,-2,-6,2,3,1
13:06:24:839846,9,-12,-4,-2,-6,2,3,1
13:06:24:845827,-10,-6,-6,-3,-7,-3,-2,-2
13:06:24:862575,18,13,2,3,2,6,11,15
13:06:24:863329,18,13,2,3,2,6,11,15
13:06:24:877082,19,3,4,3,13,-2,-12,-2
13:06:24:877933,12,1,-4,-4,6,-3,6,-5
13:06:24:878692,12,1,-4,-4,6,-3,6,-5
13:06:24:883327,9,8,14,8,3,-1,2,-4
13:06:24:898996,7,-18,4,2,-2,-2,-4,2
13:06:24:899799,7,-18,4,2,-2,-2,-4,2
13:06:24:905819,7,-7,10,-3,-15,1,1,0
13:06:24:913354,4,4,-6,-7,-15,-3,3,1
13:06:24:921503,4,4,-6,-7,-15,-3,3,1
13:06:24:922345,-9,1,-2,0,-3,2,-1,-8
13:06:24:936465,10,8,-6,-8,-4,0,9,6
13:06:24:937332,10,8,-6,-8,-4,0,9,6
13:06:24:943336,13,16,4,3,9,9,9,9
13:06:24:950828,-8,-17,-3,0,5,1,-6,-3
13:06:24:958324,-8,-17,-3,0,5,1,-6,-3
13:06:24:965697,-7,-6,-11,-9,1,-7,-14,-15
13:06:24:973344,0,-13,-27,-4,13,-8,-12,-7
13:06:24:981469,0,-13,-27,-4,13,-8,-12,-7
13:06:24:982351,-17,-6,3,1,1,-4,2,-2
13:06:24:996454,13,20,6,-4,-15,0,-1,1
13:06:24:997331,13,20,6,-4,-15,0,-1,1
13:06:25:3321,-5,2,3,-5,-12,3,8,6
13:06:25:10693,-17,-10,-1,3,-9,2,3,1
13:06:25:18316,-17,-10,-1,3,-9,2,3,1
13:06:25:33928,-7,-1,-1,1,-2,-3,1,5
13:06:25:34808,8,17,10,3,18,14,14,10
13:06:25:41515,8,17,10,3,18,14,14,10
13:06:25:42348,-6,4,0,1,6,5,0,-2
13:06:25:56463,-9,9,12,5,-7,-4,-9,-12
13:06:25:57322,-9,9,12,5,-7,-4,-9,-12
13:06:25:63335,47,18,1,-1,29,1,0,5
13:06:25:70851,19,37,21,-3,17,1,-2,9
13:06:25:78323,19,37,21,-3,17,1,-2,9
13:06:25:93968,12,5,-5,-4,-16,-7,-6,-4
13:06:25:94817,3,3,-3,5,-7,2,-2,-6
13:06:25:101468,3,3,-3,5,-7,2,-2,-6
13:06:25:102326,-11,1,-10,-10,-2,-7,-13,-9
13:06:25:116456,-5,5,7,7,5,0,-8,-13
13:06:25:117317,-5,5,7,7,5,0,-8,-13
13:06:25:123328,3,-4,8,5,-1,-1,4,0
13:06:25:130822,17,-7,-1,-6,-7,-6,-7,5
13:06:25:146456,17,-7,-1,-6,-7,-6,-7,5
13:06:25:147316,1,-7,3,-11,-9,-7,2,5
13:06:25:153327,-31,-21,-5,-2,-19,-8,-2,-3
13:06:25:168975,-31,-21,-5,-2,-19,-8,-2,-3
13:06:25:169817,-17,-31,-6,6,5,-1,-3,-8
13:06:25:176467,20,3,3,0,-10,-3,1,4
13:06:25:177330,20,3,3,0,-10,-3,1,4
13:06:25:190834,-7,9,-6,-1,8,0,5,6
13:06:25:198980,8,3,-6,-9,5,-3,-2,4
13:06:25:199845,8,3,-6,-9,5,-3,-2,4
13:06:25:213993,-30,1,2,4,4,-1,-18,-12
13:06:25:214711,3,7,-13,-8,27,6,24,1
13:06:25:220838,3,7,-13,-8,27,6,24,1
13:06:25:228355,-27,-24,-5,-5,-8,6,12,-4
13:06:25:236453,-22,-21,-5,-2,-10,-1,-1,-2
13:06:25:237338,-22,-21,-5,-2,-10,-1,-1,-2
13:06:25:243353,-14,-13,-9,-2,-26,-8,-5,0
13:06:25:258953,-2,-32,-2,4,-8,-7,-6,-6
13:06:25:259845,-2,-32,-2,4,-8,-7,-6,-6
13:06:25:265823,14,1,-5,2,-1,1,0,6
13:06:25:273331,-28,-2,0,2,-3,-1,-17,-12
13:06:25:280806,-28,-2,0,2,-3,-1,-17,-12
13:06:25:288336,20,19,10,1,-3,-3,3,0
13:06:25:296221,4,12,5,2,14,-2,5,7
13:06:25:303958,4,12,5,2,14,-2,5,7
13:06:25:304824,17,16,2,-1,3,4,7,6
13:06:25:318954,6,1,-8,-3,13,0,-6,-2
13:06:25:319819,6,1,-8,-3,13,0,-6,-2
13:06:25:325841,-8,-10,-5,-6,17,-3,-2,-3
13:06:25:333327,7,2,-4,-8,-11,4,8,6
13:06:25:340875,7,2,-4,-8,-11,4,8,6
13:06:25:348323,9,-1,-4,-5,3,-4,-2,0
13:06:25:356460,3,-6,-5,0,1,-4,-16,-6
13:06:25:357308,3,-6,-5,0,1,-4,-16,-6
13:06:25:363328,0,-10,-5,-2,-6,3,-1,-5
13:06:25:378988,-21,2,-4,-1,-12,-2,-2,-1
13:06:25:379821,-21,2,-4,-1,-12,-2,-2,-1
13:06:25:385856,2,-3,-2,-4,-1,-3,-7,-3
13:06:25:401437,28,6,4,-1,-6,-2,1,-1
13:06:25:402299,28,6,4,-1,-6,-2,1,-1
13:06:25:408388,-21,9,4,3,-15,3,2,-1
13:06:25:424743,-4,1,-7,-4,-4,-3,1,-9
13:06:25:425468,-4,1,-7,-4,-4,-3,1,-9
13:06:25:426320,3,-17,4,2,2,-9,-10,-14
13:06:25:438957,-33,-21,-6,-6,-13,-5,-4,-1
13:06:25:439894,-33,-21,-6,-6,-13,-5,-4,-1
13:06:25:445820,10,2,-1,3,2,5,4,6
13:06:25:453356,3,6,5,0,0,-2,-5,1
13:06:25:460821,3,6,5,0,0,-2,-5,1
13:06:25:468308,-3,-2,1,-5,-2,-3,-7,0
13:06:25:476450,-2,1,10,7,7,-1,-8,-8
13:06:25:477315,-2,1,10,7,7,-1,-8,-8
13:06:25:483298,10,12,1,-4,3,4,2,0
13:06:25:498977,6,-5,1,-2,2,-2,1,-3
13:06:25:499805,6,-5,1,-2,2,-2,1,-3
13:06:25:505810,-17,-4,0,0,-4,-3,2,-4
13:06:25:513328,7,5,-1,-3,-2,1,3,8
13:06:25:520829,7,5,-1,-3,-2,1,3,8
13:06:25:528355,4,2,6,-3,-10,-4,-7,-3
13:06:25:536450,9,8,0,0,2,1,1,-1
13:06:25:537332,9,8,0,0,2,1,1,-1
13:06:25:543338,8,-6,-4,1,-4,-2,1,9
13:06:25:558971,8,9,-1,-2,-3,-1,-2,-1
13:06:25:559859,8,9,-1,-2,-3,-1,-2,-1
13:06:25:565836,26,6,0,2,-5,-4,-4,0
13:06:25:573351,1,11,-3,-8,3,-3,5,3
13:06:25:580834,1,11,-3,-8,3,-3,5,3
13:06:25:588343,-19,-3,-4,-4,3,-2,-1,-1
13:06:25:596449,-1,0,2,4,15,-3,-9,-4
13:06:25:597326,-1,0,2,4,15,-3,-9,-4
13:06:25:603354,-13,3,-2,-1,5,4,-1,2
13:06:25:618973,-4,-2,-5,-3,-3,-2,-7,-6
13:06:25:619842,-4,-2,-5,-3,-3,-2,-7,-6
13:06:25:625713,-8,-3,0,-4,-8,0,10,7
13:06:25:633333,-11,-7,2,7,3,0,3,7
13:06:25:640840,-11,-7,2,7,3,0,3,7
13:06:25:657096,0,-6,-2,-3,-8,1,-6,0
13:06:25:658011,-6,3,-2,-8,-4,6,4,-3
13:06:25:658739,-6,3,-2,-8,-4,6,4,-3
13:06:25:663316,-16,-15,-5,0,8,-1,6,-4
13:06:25:679477,-13,-13,-2,0,-3,-3,0,-6
13:06:25:680336,-13,-13,-2,0,-3,-3,0,-6
13:06:25:685817,-24,-7,-1,3,31,-6,-8,-11
13:06:25:693364,10,-6,-1,-5,-7,0,5,-2
13:06:25:700810,10,-6,-1,-5,-7,0,5,-2
13:06:25:708340,0,6,5,3,-15,8,8,2
13:06:25:716433,-4,-1,0,4,7,-6,-4,2
13:06:25:717315,-4,-1,0,4,7,-6,-4,2
13:06:25:723303,21,6,-2,-5,-1,-4,-3,-2
13:06:25:738996,1,-4,0,9,-8,-9,0,3
13:06:25:739882,1,-4,0,9,-8,-9,0,3
13:06:25:745691,14,-6,-5,-12,-15,-1,-2,-1
13:06:25:753374,8,3,-1,-9,-6,-2,6,-5
13:06:25:760812,8,3,-1,-9,-6,-2,6,-5
13:06:25:768346,-17,13,-2,-1,42,3,1,0
13:06:25:776486,-36,-3,5,-4,-4,-1,-3,-5
13:06:25:777309,-36,-3,5,-4,-4,-1,-3,-5
13:06:25:783325,-18,-8,-4,-5,-6,-1,1,3
13:06:25:798974,1,2,-2,1,10,5,-1,-1
13:06:25:799810,1,2,-2,1,10,5,-1,-1
13:06:25:805840,0,-1,-5,2,11,-2,-4,-5
13:06:25:813332,-6,-9,-4,-5,-17,1,3,-1
13:06:25:820829,-6,-9,-4,-5,-17,1,3,-1
13:06:25:828324,18,-10,1,4,-15,-3,-2,0
13:06:25:836441,4,11,-1,-1,-7,-2,7,1
13:06:25:837327,4,11,-1,-1,-7,-2,7,1
13:06:25:850832,5,9,0,4,9,1,0,3
13:06:25:867080,13,-6,-7,-7,6,-2,-5,4
13:06:25:867947,13,-6,-7,-7,6,-2,-5,4
13:06:25:868821,4,-2,-7,-9,-13,-2,-2,-4
13:06:25:873414,-5,-5,-2,-5,-9,-2,2,3
13:06:25:888957,-5,-5,-2,-5,-9,-2,2,3
13:06:25:889817,5,-7,3,10,-6,-4,-4,5
13:06:25:896461,9,-2,0,3,21,2,-2,3
13:06:25:897321,9,-2,0,3,21,2,-2,3
13:06:25:903327,-5,-3,-2,-6,-4,4,3,-1
13:06:25:919002,3,-22,-3,0,5,-1,-4,-5
13:06:25:919902,3,-22,-3,0,5,-1,-4,-5
13:06:25:925704,16,2,4,8,9,-2,0,3
13:06:25:933330,-7,8,1,2,-11,1,-4,-5
13:06:25:940828,-7,8,1,2,-11,1,-4,-5
13:06:25:948400,19,0,-3,-3,-13,-2,3,-2
13:06:25:956481,10,-21,-7,-3,-5,0,-5,-3
13:06:25:957347,10,-21,-7,-3,-5,0,-5,-3
13:06:25:963318,10,3,6,5,21,-1,-2,-10
13:06:25:978956,-16,0,-2,-4,3,-3,-4,-9
13:06:25:979816,-16,0,-2,-4,3,-3,-4,-9
13:06:25:985736,9,0,-3,-3,-8,-3,3,4
13:06:25:993374,-18,-28,-3,2,1,-4,-11,-10
13:06:26:832,-18,-28,-3,2,1,-4,-11,-10
13:06:26:8362,-2,2,2,-3,14,-5,5,4
13:06:26:24623,12,15,0,-3,-9,2,-8,2
13:06:26:25463,12,15,0,-3,-9,2,-8,2
13:06:26:26385,-16,-4,-1,-4,-20,-3,-4,0
13:06:26:47072,7,14,-2,1,-6,-1,5,7
13:06:26:47953,7,14,-2,1,-6,-1,5,7
13:06:26:48701,-11,-2,-3,-2,-10,-3,-3,-5
13:06:26:53334,-21,-3,4,0,-5,-2,2,-5
13:06:26:60841,-21,-3,4,0,-5,-2,2,-5
13:06:26:68350,-4,-5,-2,0,-20,1,-4,-3
13:06:26:76487,-4,-5,-2,0,-20,1,-4,-3
13:06:26:77339,-1,-6,-3,1,10,0,-2,-7
13:06:26:99592,-10,-3,-6,-7,11,2,1,-5
13:06:26:100480,-10,-3,-6,-7,11,2,1,-5
13:06:26:101365,-1,-5,0,2,-5,-2,4,-1
13:06:26:105872,1,2,-4,-6,-7,-3,-8,-3
13:06:26:130107,1,2,-4,-6,-7,-3,-8,-3
13:06:26:130970,7,13,1,-2,19,2,5,6
13:06:26:131690,-6,-4,2,-3,7,-2,0,-4
13:06:26:144001,-6,-4,2,-3,7,-2,0,-4
13:06:26:144859,0,9,0,-1,-3,0,10,5
13:06:26:150728,-8,6,3,4,16,0,-6,-5
13:06:26:167074,-8,6,3,4,16,0,-6,-5
13:06:26:167954,-15,-10,-2,-1,-17,-5,-8,-4
13:06:26:168700,0,-11,-5,-3,-10,-5,-5,-8
13:06:26:181482,0,-11,-5,-3,-10,-5,-5,-8
13:06:26:182332,2,1,-3,-2,2,0,-5,-1
13:06:26:188333,-2,7,0,2,-1,0,-3,3
13:06:26:196469,-2,7,0,2,-1,0,-3,3
13:06:26:197319,11,6,3,2,-4,0,-2,-1
13:06:26:219607,-9,-16,-4,-3,15,1,-4,-4
13:06:26:220486,-9,-16,-4,-3,15,1,-4,-4
13:06:26:221377,-10,6,1,2,7,-2,4,2
13:06:26:225728,-11,-3,-2,-3,-5,0,1,-6
13:06:26:241525,-11,-3,-2,-3,-5,0,1,-6
13:06:26:242343,11,8,2,-3,3,-2,-5,0
13:06:26:248353,10,-10,-1,-3,-6,2,4,4
13:06:26:256484,10,-10,-1,-3,-6,2,4,4
13:06:26:257376,6,6,0,-3,-27,-7,-6,0
13:06:26:279581,-6,11,6,3,-29,0,6,4
13:06:26:280436,-6,11,6,3,-29,0,6,4
13:06:26:281324,-7,-13,-4,2,-6,0,1,2
13:06:26:285730,-15,1,2,0,1,-5,-14,-6
13:06:26:301450,-15,1,2,0,1,-5,-14,-6
13:06:26:302327,-4,10,-4,0,12,2,9,-5
13:06:26:308360,8,3,2,-1,1,6,10,5
13:06:26:316449,8,3,2,-1,1,6,10,5
13:06:26:317327,6,-8,-5,-8,9,-1,-8,-4
13:06:26:330848,16,12,0,2,-3,1,-1,2
13:06:26:338967,16,12,0,2,-3,1,-1,2
13:06:26:339865,-7,-3,1,-1,7,-1,0,-1
13:06:26:345829,5,-1,-3,-6,-14,-2,-1,0
13:06:26:361472,5,-1,-3,-6,-14,-2,-1,0
13:06:26:362329,-2,13,1,-6,-3,0,-1,-1
13:06:26:368332,-2,0,-1,1,15,-2,1,-4
13:06:26:376487,-2,0,-1,1,15,-2,1,-4
13:06:26:377332,14,-9,2,5,1,-4,-1,4
13:06:26:391340,-43,-24,-5,-1,-25,-9,-4,-8
13:06:26:398981,-43,-24,-5,-1,-25,-9,-4,-8
13:06:26:399834,4,-2,2,0,-4,-6,-10,-11
13:06:26:405825,18,13,4,1,-3,2,0,-1
13:06:26:421953,18,13,4,1,-3,2,0,-1
13:06:26:422691,-18,-17,1,1,-4,2,3,0
13:06:26:428338,-1,1,1,-1,8,-3,-7,0
13:06:26:443954,-1,1,1,-1,8,-3,-7,0
13:06:26:444832,20,11,-1,-2,-1,-1,2,7
13:06:26:450835,-1,-3,-4,-4,-3,3,5,2
13:06:26:467821,-1,-3,-4,-4,-3,3,5,2
13:06:26:468583,-17,-2,-8,-4,-1,3,-3,-7
13:06:26:469460,9,5,-2,3,5,-2,-1,4
13:06:26:498492,9,5,-2,3,5,-2,-1,4
13:06:26:499362,1,5,0,-6,6,4,13,2
13:06:26:500060,6,-9,1,3,9,2,-2,-2
13:06:26:500933,6,-9,1,3,9,2,-2,-2
13:06:26:520376,-8,-8,-5,-1,5,-1,-2,-2
13:06:26:521125,1,0,1,-1,-7,0,5,5
13:06:26:522010,1,0,1,-1,-7,0,5,5
13:06:26:522767,6,2,-2,0,-8,-5,-4,-8
13:06:26:533332,7,-4,-1,-10,-6,-1,0,-4
13:06:26:541509,7,-4,-1,-10,-6,-1,0,-4
13:06:26:542320,-6,-15,-4,-2,-8,-3,-8,3
13:06:26:548334,2,6,-2,-5,17,2,7,-2
13:06:26:557233,2,6,-2,-5,17,2,7,-2
13:06:26:557969,-12,-15,-3,1,16,-3,-6,-6
13:06:26:570876,3,-14,-3,3,0,1,-5,4
13:06:26:578973,3,-14,-3,3,0,1,-5,4
13:06:26:579846,-1,8,-3,-7,-7,2,-1,-4
13:06:26:585737,-4,-20,-13,-14,12,-3,-3,1
13:06:26:601457,-4,-20,-13,-14,12,-3,-3,1
13:06:26:602321,7,9,11,7,-1,-2,-12,-3
13:06:26:608400,12,9,-1,1,-11,0,-2,-4
13:06:26:616446,12,9,-1,1,-11,0,-2,-4
13:06:26:617366,7,17,0,-3,-7,3,6,5
13:06:26:630853,12,5,4,0,-3,-1,-5,0
13:06:26:639001,12,5,4,0,-3,-1,-5,0
13:06:26:639828,4,21,-1,-2,-1,2,7,6
13:06:26:645854,-25,-22,-3,3,0,-3,0,0
13:06:26:661483,-25,-22,-3,3,0,-3,0,0
13:06:26:662349,4,-11,-1,5,6,-2,-2,3
13:06:26:668327,3,-21,-5,1,-1,-10,-9,-12
13:06:26:676528,3,-21,-5,1,-1,-10,-9,-12
13:06:26:677345,-6,24,2,-16,-6,-2,-1,-1
13:06:26:690864,-11,24,4,5,2,1,7,3
13:06:26:698974,-11,24,4,5,2,1,7,3
13:06:26:699817,-3,-21,-1,4,5,2,0,1
13:06:26:705847,-20,-2,-1,0,1,1,4,3
13:06:26:722013,-20,-2,-1,0,1,1,4,3
13:06:26:722742,-20,-25,-6,5,6,-5,-1,0
13:06:26:728356,-1,-40,-6,4,6,-2,0,0
13:06:26:736452,-1,-40,-6,4,6,-2,0,0
13:06:26:737322,8,-44,-9,-2,-4,-2,1,2
13:06:26:750839,20,30,1,-8,-11,2,-3,-1
13:06:26:758736,20,30,1,-8,-11,2,-3,-1
13:06:26:774019,-10,-4,-3,-3,-1,2,2,-1
13:06:26:774779,-20,-9,-2,-10,-2,-8,-9,-10
13:06:26:789714,-20,-9,-2,-10,-2,-8,-9,-10
13:06:26:790505,3,4,4,-5,-18,0,6,2
13:06:26:791367,-15,2,2,3,28,3,-6,-11
13:06:26:796464,-15,2,2,3,28,3,-6,-11
13:06:26:797324,5,1,5,20,2,-2,-4,-3
13:06:26:819616,-4,3,3,-7,-10,-3,2,5
13:06:26:820525,-4,3,3,-7,-10,-3,2,5
13:06:26:821396,7,10,-5,-15,4,0,0,-5
13:06:26:825732,-16,8,1,0,-8,-4,-9,-4
13:06:26:842051,-16,8,1,0,-8,-4,-9,-4
13:06:26:842729,6,7,3,1,-6,-8,-19,-20
13:06:26:848339,-4,15,3,1,-1,0,4,4
13:06:26:856462,-4,15,3,1,-1,0,4,4
13:06:26:857370,-1,-20,-7,-2,6,0,-1,5
13:06:26:870821,-1,-7,1,5,3,3,-1,-1
13:06:26:878966,-1,-7,1,5,3,3,-1,-1
13:06:26:879840,-27,12,6,3,6,0,4,2
13:06:26:893359,18,31,1,5,-8,-1,4,2
13:06:26:901469,18,31,1,5,-8,-1,4,2
13:06:26:902335,-4,27,-4,-6,-14,4,-1,-2
13:06:26:908377,-32,-2,14,8,0,-6,-3,-8
13:06:26:916462,-32,-2,14,8,0,-6,-3,-8
13:06:26:917367,16,-4,-5,2,13,-1,7,11
13:06:26:930856,2,-12,-2,-4,1,4,0,1
13:06:26:939018,2,-12,-2,-4,1,4,0,1
13:06:26:939736,-13,15,14,6,3,8,3,-6
13:06:26:945834,21,20,-5,-14,-4,-2,-1,-2
13:06:26:961338,21,20,-5,-14,-4,-2,-1,-2
13:06:26:977873,15,24,-14,-42,-42,8,-7,-21
13:06:26:978623,15,-18,3,8,2,-7,6,6
13:06:26:979492,15,-18,3,8,2,-7,6,6
13:06:26:980323,5,20,-5,-8,-7,-4,-8,-14
13:06:26:990719,6,21,4,-5,-12,4,-1,2
13:06:26:999003,6,21,4,-5,-12,4,-1,2
13:06:26:999851,2,-47,-9,2,-2,-1,3,3
13:06:27:5756,-23,-17,-2,6,-28,-9,-2,0
13:06:27:21467,-23,-17,-2,6,-28,-9,-2,0
13:06:27:22338,10,34,10,-3,6,0,2,7
13:06:27:28348,15,4,-11,-9,-4,4,3,2
13:06:27:35867,15,4,-11,-9,-4,4,3,2
13:06:27:43376,-23,-7,-6,0,-9,-11,-10,3
13:06:27:50702,6,-11,3,-2,16,1,1,4
13:06:27:58974,6,-11,3,-2,16,1,1,4
13:06:27:59884,0,-8,7,38,63,13,5,12
13:06:27:73356,-23,-42,-10,2,23,-4,-6,-2
13:06:27:81467,-23,-42,-10,2,23,-4,-6,-2
13:06:27:82329,8,-6,1,-3,-3,-14,-8,0
13:06:27:88353,13,6,10,0,-12,6,-5,15
13:06:27:95851,13,6,10,0,-12,6,-5,15
13:06:27:103354,2,-13,4,-2,9,-1,9,3
13:06:27:110876,6,12,-4,-12,-8,-5,0,-5
13:06:27:118980,6,12,-4,-12,-8,-5,0,-5
13:06:27:119712,-16,-9,12,-6,-8,10,-1,-1
13:06:27:133323,-24,2,-20,-29,-3,13,-4,-20
13:06:27:141585,-24,2,-20,-29,-3,13,-4,-20
13:06:27:142351,-11,-21,-9,-1,-12,-4,0,-6
13:06:27:148334,6,-1,9,14,-12,4,3,14
13:06:27:155844,6,-1,9,14,-12,4,3,14
13:06:27:163364,11,4,-2,-4,-8,-11,2,5
13:06:27:170911,-6,-2,-8,-2,10,1,2,-2
13:06:27:178961,-6,-2,-8,-2,10,1,2,-2
13:06:27:179705,16,16,8,4,5,-3,-3,2
13:06:27:193379,-7,5,6,2,-1,-6,-2,-7
13:06:27:201518,-7,5,6,2,-1,-6,-2,-7
13:06:27:202355,0,1,-5,-5,0,-2,-7,-10
13:06:27:208373,14,-7,-8,-2,5,-2,5,-1
13:06:27:215850,14,-7,-8,-2,5,-2,5,-1
13:06:27:223348,12,24,-9,-1,7,2,-1,-11
13:06:27:230722,10,8,-11,-13,-6,-7,-8,-5
13:06:27:239031,10,8,-11,-13,-6,-7,-8,-5
13:06:27:239837,3,21,-1,5,2,-4,-2,10
13:06:27:253376,0,2,-4,-8,7,4,-3,-9
13:06:27:261475,0,2,-4,-8,7,4,-3,-9
13:06:27:262332,11,-15,-1,5,0,6,5,1
13:06:27:268370,4,4,10,9,0,-5,1,2
13:06:27:275862,4,4,10,9,0,-5,1,2
13:06:27:283337,-3,-33,-3,-11,-12,-3,0,0
13:06:27:290753,-10,-18,-8,1,-2,-4,-9,-7
13:06:27:299011,-10,-18,-8,1,-2,-4,-9,-7
13:06:27:299858,-7,8,3,-2,-4,2,0,1
13:06:27:313377,-4,-4,5,13,11,-5,0,1
13:06:27:321502,-4,-4,5,13,11,-5,0,1
13:06:27:322369,11,13,2,-1,-8,-1,4,1
13:06:27:328372,13,-2,1,7,-6,2,4,2
13:06:27:335854,13,-2,1,7,-6,2,4,2
13:06:27:343375,-12,-19,-9,1,6,4,-5,-13
13:06:27:350746,-26,6,0,-3,0,-2,-3,-3
13:06:27:358983,-26,6,0,-3,0,-2,-3,-3
13:06:27:359865,-11,5,1,-2,-11,-12,-6,-2
13:06:27:373349,3,1,0,0,-3,-1,-4,-7
13:06:27:382115,3,1,0,0,-3,-1,-4,-7
13:06:27:382982,3,1,-1,1,0,-6,-1,-3
13:06:27:388353,15,12,1,-5,-2,-4,-2,0
13:06:27:395886,15,12,1,-5,-2,-4,-2,0
13:06:27:403350,-22,-1,-3,-5,-7,1,-4,-5
13:06:27:410846,7,-15,-1,5,16,3,4,1
13:06:27:419000,7,-15,-1,5,16,3,4,1
13:06:27:419732,-8,-26,-1,-3,6,4,7,9
13:06:27:433324,-2,-11,-17,-13,40,3,-4,-1
13:06:27:441540,-2,-11,-17,-13,40,3,-4,-1
13:06:27:442359,1,-11,-6,-7,-12,-1,5,4
13:06:27:456478,-7,-1,-10,-22,-27,-2,-3,-13
13:06:27:457350,-7,-1,-10,-22,-27,-2,-3,-13
13:06:27:463361,1,-3,7,0,9,2,0,-3
13:06:27:470854,-11,-2,2,-5,-10,0,-3,-8
13:06:27:478983,-11,-2,2,-5,-10,0,-3,-8
13:06:27:479900,-7,-5,5,12,-3,-3,3,6
13:06:27:493355,-2,12,12,10,-9,4,5,7
13:06:27:501471,-2,12,12,10,-9,4,5,7
13:06:27:502355,5,14,-5,-11,-2,-5,-7,-8
13:06:27:508418,-1,-20,-4,2,-25,-9,1,10
13:06:27:515862,-1,-20,-4,2,-25,-9,1,10
13:06:27:523337,-2,-8,-8,3,-26,-1,-2,-3
13:06:27:530854,-12,-5,3,6,-21,-4,-3,-3
13:06:27:539046,-12,-5,3,6,-21,-4,-3,-3
13:06:27:539748,13,11,7,3,13,-2,-1,2
13:06:27:553334,-9,-21,3,9,17,-3,4,5
13:06:27:561490,-9,-21,3,9,17,-3,4,5
13:06:27:562366,10,-12,-8,-11,-15,1,4,0
13:06:27:568345,-15,10,4,4,18,4,-7,-5
13:06:27:575874,-15,10,4,4,18,4,-7,-5
13:06:27:583353,-5,-2,4,1,-4,0,0,-1
13:06:27:599596,13,4,-3,-7,1,-8,-6,-10
13:06:27:600455,13,4,-3,-7,1,-8,-6,-10
13:06:27:601355,3,-17,-7,-2,15,6,-1,-2
13:06:27:613357,15,20,-4,-11,-13,7,1,-12
13:06:27:621523,15,20,-4,-11,-13,7,1,-12
13:06:27:622401,1,25,2,-3,13,-10,-4,6
13:06:27:628385,-11,-10,-22,-20,-19,5,-9,-13
13:06:27:635880,-11,-10,-22,-20,-19,5,-9,-13
13:06:27:643385,3,5,0,4,18,-2,-2,0
13:06:27:650851,-6,0,3,5,10,2,5,6
13:06:27:658958,-6,0,3,5,10,2,5,6
13:06:27:659747,-20,16,8,-1,-9,14,2,3
13:06:27:673361,10,1,7,1,-1,-3,5,12
13:06:27:681478,10,1,7,1,-1,-3,5,12
13:06:27:682373,-3,2,2,-2,22,1,-4,-2
13:06:27:688351,15,5,2,8,10,-11,1,4
13:06:27:695869,15,5,2,8,10,-11,1,4
13:06:27:703381,-2,-20,-13,-20,-40,-12,-6,-2
13:06:27:710742,16,13,-5,1,-3,1,4,7
13:06:27:718981,16,13,-5,1,-3,1,4,7
13:06:27:719853,6,-22,-3,-3,-1,-6,-2,-8
13:06:27:733344,-5,-27,-2,-5,-7,6,3,5
13:06:27:749601,-5,-27,-2,-5,-7,6,3,5
13:06:27:750491,-23,-8,-5,2,8,4,1,6
13:06:27:751249,-3,4,6,15,15,-6,-4,-1
13:06:27:755866,-3,4,6,15,15,-6,-4,-1
13:06:27:771480,11,10,9,11,1,-7,0,0
13:06:27:772351,0,14,1,4,66,5,1,-5
13:06:27:778980,0,14,1,4,66,5,1,-5
13:06:27:779727,-15,4,-1,-5,-10,-2,-1,-1
13:06:27:793744,-12,-14,-1,-6,-20,-1,4,6
13:06:27:801485,-12,-14,-1,-6,-20,-1,4,6
13:06:27:802361,-7,-12,-8,-5,7,4,2,-9
13:06:27:808385,8,1,15,12,3,-7,1,17
13:06:27:823964,8,1,15,12,3,-7,1,17
13:06:27:824863,-4,7,4,2,-14,-2,-6,1
13:06:27:830715,16,9,-9,-16,-19,4,-3,-9
13:06:27:838746,16,9,-9,-16,-19,4,-3,-9
13:06:27:845837,-12,-24,-10,-4,9,-5,0,0
13:06:27:853403,-8,-17,2,4,-5,-3,3,2
13:06:27:861462,-8,-17,2,4,-5,-3,3,2
13:06:27:862327,-3,-10,4,7,1,-1,3,-2
13:06:27:868352,-4,-9,-9,-12,-27,-1,-5,-7
13:06:27:875851,-4,-9,-9,-12,-27,-1,-5,-7
13:06:27:883352,-14,16,1,6,-5,-1,-5,-8
13:06:27:890865,-34,5,-4,2,-6,-5,1,-3
13:06:27:899019,-34,5,-4,2,-6,-5,1,-3
13:06:27:899846,15,-9,-7,-15,9,2,1,5
13:06:27:922108,-7,0,-9,-12,-7,-3,-10,-8
13:06:27:922980,-7,0,-9,-12,-7,-3,-10,-8
13:06:27:923863,12,-13,1,1,-2,-6,4,0
13:06:27:928350,27,4,-1,-2,-8,1,0,-3
13:06:27:943990,27,4,-1,-2,-8,1,0,-3
13:06:27:944854,24,22,1,-4,2,5,3,2
13:06:27:950728,-12,-31,-3,-2,13,0,-2,-8
13:06:27:958981,-12,-31,-3,-2,13,0,-2,-8
13:06:27:959868,-8,-8,1,-3,-3,-2,2,0
13:06:27:973344,-5,-14,-4,-6,-1,5,-4,1
13:06:27:981486,-5,-14,-4,-6,-1,5,-4,1
13:06:27:982356,-5,4,-1,7,2,1,-4,-9
13:06:27:996494,10,21,2,-4,-17,-1,1,-5
13:06:27:997351,10,21,2,-4,-17,-1,1,-5
13:06:28:3400,6,-9,-1,5,-5,4,0,1
13:06:28:10729,6,3,-4,-4,-14,-1,1,-2
13:06:28:26515,6,3,-4,-4,-14,-1,1,-2
13:06:28:27341,-13,15,5,4,3,-3,-1,-1
13:06:28:33345,-5,-25,1,0,8,-2,-2,2
13:06:28:49771,-5,-25,1,0,8,-2,-2,2
13:06:28:50478,-12,0,-5,-5,-9,-7,-12,-10
13:06:28:56504,6,24,4,-3,-1,-2,-2,0
13:06:28:57354,6,24,4,-3,-1,-2,-2,0
13:06:28:71486,13,14,2,-6,-8,1,1,-1
13:06:28:72395,9,25,4,-3,-3,4,-2,-7
13:06:28:78375,9,25,4,-3,-3,4,-2,-7
13:06:28:85736,6,-14,-8,-6,-6,-4,-9,-6
13:06:28:93390,12,16,6,9,-3,-8,3,-1
13:06:28:101507,12,16,6,9,-3,-8,3,-1
13:06:28:102378,5,-21,-9,8,6,-4,3,4
13:06:28:116467,-4,1,0,-3,-4,1,-7,-3
13:06:28:117367,-4,1,0,-3,-4,1,-7,-3
13:06:28:123394,-43,-5,4,-3,0,0,-3,-2
13:06:28:130762,-6,-4,-5,-11,-3,-1,-1,-4
13:06:28:138385,-6,-4,-5,-11,-3,-1,-1,-4
13:06:28:145800,5,5,2,0,1,1,-1,-4
13:06:28:153364,-1,-11,6,14,20,0,8,11
13:06:28:161522,-1,-11,6,14,20,0,8,11
13:06:28:162388,4,6,4,-7,-12,1,5,1
13:06:28:176529,5,17,4,13,3,5,2,-2
13:06:28:177363,5,17,4,13,3,5,2,-2
13:06:28:183353,2,-1,-7,-1,-3,-10,-7,-5
13:06:28:198965,-1,-4,-6,-2,4,-6,-6,0
13:06:28:199833,-1,-4,-6,-2,4,-6,-6,0
13:06:28:205825,7,16,1,-2,1,-1,3,5
13:06:28:213365,1,6,-2,-3,-9,-1,4,-3
13:06:28:228986,1,6,-2,-3,-9,-1,4,-3
13:06:28:229714,10,-3,1,-1,-2,3,1,4
13:06:28:236462,-1,-17,-5,1,-9,-9,2,3
13:06:28:237384,-1,-17,-5,1,-9,-9,2,3
13:06:28:251494,-9,-43,-15,-2,0,-4,4,4
13:06:28:252392,1,5,-3,-5,-6,-9,-14,-9
13:06:28:258430,1,5,-3,-5,-6,-9,-14,-9
13:06:28:265714,5,21,1,-1,-14,3,3,4
13:06:28:273377,2,-3,2,-5,-5,1,3,6
13:06:28:281489,2,-3,2,-5,-5,1,3,6
13:06:28:282332,2,16,1,-1,7,-2,0,1
13:06:28:304616,-1,9,4,-3,1,3,0,-2
13:06:28:305527,-1,9,4,-3,1,3,0,-2
13:06:28:306371,7,-5,9,1,5,6,3,2
13:06:28:310736,4,-6,-4,-3,28,4,3,6
13:06:28:326507,4,-6,-4,-3,28,4,3,6
13:06:28:327346,15,15,-14,-2,12,-1,-5,-7
13:06:28:333354,-14,-34,-5,4,0,-3,-7,-4
13:06:28:341549,-14,-34,-5,4,0,-3,-7,-4
13:06:28:342350,3,-6,-3,1,7,-2,-5,-6
13:06:28:356497,-8,3,0,-1,-7,-5,-4,-4
13:06:28:357350,-8,3,0,-1,-7,-5,-4,-4
13:06:28:363355,-1,-8,-2,-9,-1,-6,-6,-1
13:06:28:370733,17,5,2,-1,9,0,-3,-3
13:06:28:378334,17,5,2,-1,9,0,-3,-3
13:06:28:385845,-21,-14,3,1,-7,-2,2,-2
13:06:28:393369,-6,-4,-3,-13,-4,-5,1,7
13:06:28:401471,-6,-4,-3,-13,-4,-5,1,7
13:06:28:402373,-4,-7,0,3,4,4,4,10
13:06:28:416495,-13,-26,-1,-2,-5,1,1,1
13:06:28:417406,-13,-26,-1,-2,-5,1,1,1
13:06:28:423425,-1,0,-12,-14,-11,-8,-2,-8
13:06:28:430887,-22,1,2,1,-9,-2,-3,-4
13:06:28:438360,-22,1,2,1,-9,-2,-3,-4
13:06:28:445866,19,-2,-4,0,-8,-3,-6,0
13:06:28:453379,13,4,0,-4,-3,-2,4,2
13:06:28:461497,13,4,0,-4,-3,-2,4,2
13:06:28:462361,1,1,1,0,3,-2,-9,-3
13:06:28:476553,-3,2,-1,1,-8,1,-2,-3
13:06:28:477394,-3,2,-1,1,-8,1,-2,-3
13:06:28:483389,-5,12,6,5,39,10,-1,-5
13:06:28:490869,5,15,-1,-1,-12,-5,-2,-2
13:06:28:498359,5,15,-1,-1,-12,-5,-2,-2
13:06:28:505757,-19,-31,-4,-4,-13,-4,-4,-4
13:06:28:513358,-4,26,17,18,13,12,1,-6
13:06:28:521505,-4,26,17,18,13,12,1,-6
13:06:28:522397,-5,8,-2,-4,-4,-3,-3,-3
13:06:28:544642,0,-3,-7,-8,-6,-3,-2,0
13:06:28:545511,0,-3,-7,-8,-6,-3,-2,0
13:06:28:546232,4,1,2,8,-5,0,3,2
13:06:28:550874,0,3,-3,-2,4,2,1,4
13:06:28:558415,0,3,-3,-2,4,2,1,4
13:06:28:565857,-19,2,3,1,-5,5,5,1
13:06:28:582116,1,-16,1,-1,-6,-1,-1,-1
13:06:28:582969,1,-16,1,-1,-6,-1,-1,-1
13:06:28:583726,10,-22,-11,5,-11,-4,-4,-3
13:06:28:596490,1,4,3,3,-16,-7,0,1
13:06:28:597356,1,4,3,3,-16,-7,0,1
13:06:28:603367,-11,0,3,-5,5,-4,-6,-6
13:06:28:610851,-7,-31,-8,-9,2,-6,-5,2
13:06:28:618365,-7,-31,-8,-9,2,-6,-5,2
13:06:28:625858,-1,18,4,4,3,-1,7,8
13:06:28:633345,2,-3,3,6,6,5,5,-5
13:06:28:641492,2,-3,3,6,6,5,5,-5
13:06:28:642364,14,-11,-8,-5,0,-2,1,-3
13:06:28:656497,-12,-14,-7,1,9,-4,-5,-6
13:06:28:657365,-12,-14,-7,1,9,-4,-5,-6
13:06:28:663373,-9,-2,2,9,0,1,2,-3
13:06:28:670851,-3,32,6,0,-9,3,0,-2
13:06:28:678357,-3,32,6,0,-9,3,0,-2
13:06:28:685732,-49,0,5,1,4,0,-5,-4
13:06:28:693303,14,3,2,5,7,-8,-7,-1
13:06:28:701490,14,3,2,5,7,-8,-7,-1
13:06:28:702363,19,14,1,-11,-5,1,4,8
13:06:28:716468,-4,-2,-8,-2,-3,-2,-5,-8
13:06:28:717419,-4,-2,-8,-2,-3,-2,-5,-8
13:06:28:723459,12,-3,-3,-15,-2,-1,-9,0
13:06:28:730721,-38,-1,0,-3,-3,-2,-5,-4
13:06:28:738450,-38,-1,0,-3,-3,-2,-5,-4
13:06:28:745751,6,9,-1,-6,3,3,3,2
13:06:28:753359,14,2,-1,-2,-6,1,3,2
13:06:28:761495,14,2,-1,-2,-6,1,3,2
13:06:28:762391,-17,-12,-6,-3,-9,-7,-1,-3
13:06:28:776551,-2,0,-1,-1,4,0,-5,-4
13:06:28:777341,-2,0,-1,-1,4,0,-5,-4
13:06:28:783348,17,1,1,-1,-2,-5,-6,-6
13:06:28:790735,-14,-35,-4,-4,10,3,-10,-9
13:06:28:798385,-14,-35,-4,-4,10,3,-10,-9
13:06:28:805757,1,10,2,4,-3,3,11,2
13:06:28:813373,14,5,-10,-13,-2,-5,2,1
13:06:28:821535,14,5,-10,-13,-2,-5,2,1
13:06:28:822405,-11,-11,3,5,1,-6,-8,1
13:06:28:836483,22,11,3,-4,-5,2,11,7
13:06:28:837413,22,11,3,-4,-5,2,11,7
13:06:28:843394,10,17,8,6,-16,2,1,-3
13:06:28:850730,-11,-14,-1,-4,-2,-3,-2,-1
13:06:28:858364,-11,-14,-1,-4,-2,-3,-2,-1
13:06:28:865754,-1,-2,3,1,1,4,0,-2
13:06:28:873377,1,33,-3,1,0,6,3,-2
13:06:28:881477,1,33,-3,1,0,6,3,-2
13:06:28:882346,3,-1,-7,-5,-4,-3,4,1
13:06:28:896504,-32,-12,-2,2,-1,-2,1,1
13:06:28:897354,-32,-12,-2,2,-1,-2,1,1
13:06:28:903369,-3,-6,-1,-1,4,1,-7,-7
13:06:28:910892,3,7,0,-9,24,-2,-5,1
13:06:28:918372,3,7,0,-9,24,-2,-5,1
13:06:28:925886,-15,-45,-11,-3,9,0,0,0
13:06:28:933355,-4,-2,-1,-1,-5,-2,2,2
13:06:28:940877,-4,-2,-1,-1,-5,-2,2,2
13:06:28:948358,-5,12,0,-1,-4,-2,4,4
13:06:28:956527,7,-8,2,8,-19,-6,-2,0
13:06:28:957365,7,-8,2,8,-19,-6,-2,0
13:06:28:963370,-1,-7,4,4,-3,-2,-3,-2
13:06:28:979021,4,-13,1,-1,-32,-9,5,-1
13:06:28:979876,4,-13,1,-1,-32,-9,5,-1
13:06:28:985745,1,8,3,-1,-1,1,1,6
13:06:28:993293,8,-14,-3,-1,0,-2,-8,-6
13:06:29:873,8,-14,-3,-1,0,-2,-8,-6
13:06:29:8395,10,-7,-7,0,8,-4,-7,-5
13:06:29:16483,1,-12,1,6,12,0,4,4
13:06:29:17389,1,-12,1,6,12,0,4,4
13:06:29:23389,-4,7,0,-4,16,7,22,6
13:06:29:39051,0,2,-2,-2,4,7,-8,-5
13:06:29:39880,0,2,-2,-2,4,7,-8,-5
13:06:29:45722,7,7,4,1,-14,0,-16,-4
13:06:29:53369,-6,4,-4,-7,2,-7,4,-6
13:06:29:60896,-6,4,-4,-7,2,-7,4,-6
13:06:29:68381,6,-13,-7,-10,-1,0,-3,-4
13:06:29:76507,-7,3,-2,-7,-11,5,7,2
13:06:29:77365,-7,3,-2,-7,-11,5,7,2
13:06:29:83368,8,2,3,5,-10,2,3,-4
13:06:29:99005,7,-2,4,4,2,7,-10,-3
13:06:29:99875,7,-2,4,4,2,7,-10,-3
13:06:29:105746,-15,4,-3,-2,12,1,1,-5
13:06:29:113352,-13,-1,2,6,3,15,26,13
13:06:29:120871,-13,-1,2,6,3,15,26,13
13:06:29:128392,-6,-17,-4,-7,-1,-6,-17,-8
13:06:29:136490,6,6,-3,-4,22,-14,-29,-4
13:06:29:137362,6,6,-3,-4,22,-14,-29,-4
13:06:29:143386,12,1,2,-2,-17,2,20,12
13:06:29:158993,17,10,-5,-7,9,7,5,5
13:06:29:159776,17,10,-5,-7,9,7,5,5
13:06:29:165881,8,6,3,6,3,-5,-14,-1
13:06:29:173383,8,6,3,2,18,-10,-13,-13
13:06:29:180846,8,6,3,2,18,-10,-13,-13
13:06:29:188229,-6,1,-3,-3,-3,-1,-5,-7
13:06:29:196480,-2,-16,-4,1,9,2,17,16
13:06:29:197346,-2,-16,-4,1,9,2,17,16
13:06:29:203404,-10,6,4,-2,-11,-4,-13,-7
13:06:29:218987,-4,4,0,-4,-5,9,17,7
13:06:29:219731,-4,4,0,-4,-5,9,17,7
13:06:29:225747,-8,0,-5,-5,3,-2,5,0
13:06:29:233353,-9,-6,4,1,-19,-3,-9,-7
13:06:29:240888,-9,-6,4,1,-19,-3,-9,-7
13:06:29:248351,9,10,-3,-3,-5,-3,11,-5
13:06:29:256523,1,-1,1,0,-4,-6,-5,-1
13:06:29:257407,1,-1,1,0,-4,-6,-5,-1
13:06:29:263358,13,-15,-1,0,-4,-9,-6,2
13:06:29:279067,0,5,1,-1,-11,-6,-10,-8
13:06:29:279857,0,5,1,-1,-11,-6,-10,-8
13:06:29:285737,2,0,1,-10,-14,-4,-17,1
13:06:29:293315,-2,0,0,4,6,7,-5,6
13:06:29:300854,-2,0,0,4,6,7,-5,6
13:06:29:308431,-12,6,-3,-3,11,-4,-6,-6
13:06:29:316483,3,-3,-3,-2,1,-7,-4,-6
13:06:29:317363,3,-3,-3,-2,1,-7,-4,-6
13:06:29:323403,-7,-11,0,3,4,-8,-16,-3
13:06:29:339006,13,4,2,1,-9,-7,-17,1
13:06:29:339876,13,4,2,1,-9,-7,-17,1
13:06:29:345743,1,1,-4,-5,-19,-3,5,-1
13:06:29:353381,-25,-2,0,2,0,2,-4,-9
13:06:29:360881,-25,-2,0,2,0,2,-4,-9
13:06:29:368363,1,-2,2,4,1,-7,1,0
13:06:29:376500,13,1,-1,0,11,-3,7,0
13:06:29:377375,13,1,-1,0,11,-3,7,0
13:06:29:383351,-5,4,0,0,5,5,4,5
13:06:29:398989,-9,-2,3,6,3,-3,-3,-2
13:06:29:399841,-9,-2,3,6,3,-3,-3,-2
13:06:29:405733,13,2,-1,2,12,8,3,-2
13:06:29:413380,-12,-24,-6,-7,-24,-13,-12,-4
13:06:29:420892,-12,-24,-6,-7,-24,-13,-12,-4
13:06:29:428373,-11,-4,1,2,-6,1,11,5
13:06:29:436515,18,8,0,-3,-14,2,-8,-9
13:06:29:437398,18,8,0,-3,-14,2,-8,-9
13:06:29:443251,7,8,-1,-9,7,-2,-3,1
13:06:29:459012,3,4,-4,-3,3,-5,1,1
13:06:29:459778,3,4,-4,-3,3,-5,1,1
13:06:29:465872,-7,6,1,2,-1,6,1,4
13:06:29:473385,8,14,-1,-5,12,4,-10,-6
13:06:29:480864,8,14,-1,-5,12,4,-10,-6
13:06:29:488238,-3,-8,0,1,2,0,13,1
13:06:29:497125,-12,1,-3,-10,4,6,6,-1
13:06:29:497991,-12,1,-3,-10,4,6,6,-1
13:06:29:503386,-5,4,-5,3,-1,-5,-7,-9
13:06:29:527134,8,-20,-6,-6,-17,-3,1,-2
13:06:29:528010,8,-20,-6,-6,-17,-3,1,-2
13:06:29:528726,9,7,0,3,-16,7,1,-6
13:06:29:533372,-23,-30,-2,5,4,-2,3,0
13:06:29:540865,-23,-30,-2,5,4,-2,3,0
13:06:29:548358,-22,-104,-37,-7,24,-10,4,11
13:06:29:556472,-11,7,3,3,26,4,6,-1
13:06:29:557370,-11,7,3,3,26,4,6,-1
13:06:29:563225,4,21,0,-13,-9,4,20,6
13:06:29:579007,13,3,5,9,-6,12,3,2
13:06:29:579765,13,3,5,9,-6,12,3,2
13:06:29:585752,2,15,5,-1,6,-4,-11,-7
13:06:29:593382,10,21,-1,-2,3,-6,5,0
13:06:29:600853,10,21,-1,-2,3,-6,5,0
13:06:29:608279,5,8,3,8,-2,-1,-9,-10
13:06:29:616507,-4,3,-4,-3,5,1,3,-6
13:06:29:617393,-4,3,-4,-3,5,1,3,-6
13:06:29:623412,4,18,4,-1,-3,-1,13,0
13:06:29:638977,-4,-22,-8,-5,0,-4,2,1
13:06:29:639796,-4,-22,-8,-5,0,-4,2,1
13:06:29:645783,19,31,4,0,11,4,-7,-6
13:06:29:653268,0,-15,-4,-17,16,-6,-2,-8
13:06:29:660862,0,-15,-4,-17,16,-6,-2,-8
13:06:29:668393,3,-11,-8,-9,2,-5,-3,-1
13:06:29:676496,3,14,-2,-8,-9,-1,12,6
13:06:29:677356,3,14,-2,-8,-9,-1,12,6
13:06:29:683369,-10,14,8,0,2,2,-2,-2
13:06:29:699027,-16,-11,8,6,-10,7,7,6
13:06:29:699874,-16,-11,8,6,-10,7,7,6
13:06:29:705814,-18,1,7,6,0,8,-7,1
13:06:29:713381,11,13,-2,3,-3,-9,-12,-4
13:06:29:720869,11,13,-2,3,-3,-9,-12,-4
13:06:29:728371,-8,-16,-5,-4,-4,-8,-10,-6
13:06:29:736524,4,-2,-5,-7,-25,-9,-5,-2
13:06:29:737375,4,-2,-5,-7,-25,-9,-5,-2
13:06:29:743376,-11,-5,-1,-1,-8,-3,-6,0
13:06:29:758980,-2,7,-3,0,-10,4,0,0
13:06:29:759914,-2,7,-3,0,-10,4,0,0
13:06:29:765789,1,-11,-3,-3,6,1,-2,1
13:06:29:773372,-17,2,4,3,-6,0,-6,-4
13:06:29:780873,-17,2,4,3,-6,0,-6,-4
13:06:29:788409,6,3,-6,-6,-4,-1,-2,-6
13:06:29:796482,3,7,-2,-3,0,3,7,5
13:06:29:797365,3,7,-2,-3,0,3,7,5
13:06:29:803280,-7,2,3,2,-7,-3,1,-2
13:06:29:819021,-6,1,3,-6,-4,1,0,-2
13:06:29:819753,-6,1,3,-6,-4,1,0,-2
13:06:29:825763,4,17,-1,-7,0,-6,2,0
13:06:29:833378,-5,-6,6,10,20,0,-13,4
13:06:29:840889,-5,-6,6,10,20,0,-13,4
13:06:29:848241,0,-12,-3,-3,-9,-3,-5,0
13:06:29:856530,8,-8,-3,-4,-11,-6,-4,-5
13:06:29:857397,8,-8,-3,-4,-11,-6,-4,-5
13:06:29:863253,-1,-12,1,3,-2,2,-1,1
13:06:29:878992,-5,-9,-7,-2,15,-1,-11,-10
13:06:29:879726,-5,-9,-7,-2,15,-1,-11,-10
13:06:29:885750,-21,-8,8,12,8,0,-1,-7
13:06:29:901496,10,3,-5,-1,2,-5,6,7
13:06:29:902360,10,3,-5,-1,2,-5,6,7
13:06:29:908383,14,4,-1,0,8,-5,6,7
13:06:29:916497,-9,-10,9,0,12,16,20,5
13:06:29:917367,-9,-10,9,0,12,16,20,5
13:06:29:930763,7,10,3,3,-7,-1,-6,0
13:06:29:939064,6,14,-3,-5,-9,-3,0,-3
13:06:29:939759,6,14,-3,-5,-9,-3,0,-3
13:06:29:945873,4,-9,5,1,12,3,-11,-4
13:06:29:961525,-5,7,-2,1,0,-5,-7,-6
13:06:29:962381,-5,7,-2,1,0,-5,-7,-6
13:06:29:968391,12,15,4,5,-3,-2,5,1
13:06:29:976514,-8,-13,-1,-4,10,-5,-4,-3
13:06:29:977370,-8,-13,-1,-4,10,-5,-4,-3
13:06:29:990752,5,2,-7,-7,-11,4,5,0
13:06:29:999004,-5,0,0,4,-3,1,-1,-5
13:06:29:999742,-5,0,0,4,-3,1,-1,-5
13:06:30:5741,-5,-21,-3,-3,2,9,11,-5
13:06:30:21358,-5,-21,-3,-3,2,9,11,-5
13:06:30:29011,5,-1,-7,0,-31,-6,-10,1
13:06:30:29751,-8,5,-5,-12,-2,2,-3,2
13:06:30:44005,-8,5,-5,-12,-2,2,-3,2
13:06:30:44869,-1,2,-6,-3,-3,2,-5,1
13:06:30:50765,2,4,-1,0,-2,0,3,3
13:06:30:58994,2,4,-1,0,-2,0,3,3
13:06:30:59902,-6,-22,0,8,14,-4,-1,-1
13:06:30:65732,-5,-5,9,3,16,-1,-6,-3
13:06:30:81508,-5,-5,9,3,16,-1,-6,-3
13:06:30:82362,-8,-2,6,5,0,-9,2,6
13:06:30:88417,9,-4,10,16,1,-6,-3,8
13:06:30:104011,9,-4,10,16,1,-6,-3,8
13:06:30:104840,6,-2,4,3,11,-6,5,-5
13:06:30:110753,-6,1,-2,-3,4,-9,-4,-3
13:06:30:119013,-6,1,-2,-3,4,-9,-4,-3
13:06:30:119880,-6,-3,-2,-9,-11,12,6,-2
13:06:30:125748,-4,7,-13,-15,-24,3,1,-7
13:06:30:141552,-4,7,-13,-15,-24,3,1,-7
13:06:30:142384,-34,-1,-9,-14,-12,16,5,-6
13:06:30:148355,-6,-3,-3,-5,3,4,-1,0
13:06:30:172192,-6,-3,-3,-5,3,4,-1,0
13:06:30:173062,18,7,0,-5,-11,3,3,4
13:06:30:173784,-4,3,-5,-8,-2,-3,5,-6
13:06:30:179379,-4,3,-5,-8,-2,-3,5,-6
13:06:30:193996,9,17,-4,-5,-2,-4,-5,-3
13:06:30:194744,5,-4,-3,1,1,-4,-6,-5
13:06:30:201495,5,-4,-3,1,1,-4,-6,-5
13:06:30:202378,15,0,0,5,6,-8,-3,13
13:06:30:208414,12,7,1,0,0,0,5,5
13:06:30:224010,12,7,1,0,0,0,5,5
13:06:30:224769,1,-19,4,7,8,-11,-15,4
13:06:30:230789,-21,-16,0,4,4,3,-7,1
13:06:30:239036,-21,-16,0,4,4,3,-7,1
13:06:30:239798,1,16,-3,-7,-1,-4,1,-13
13:06:30:245888,3,-3,-3,-8,-10,-1,5,4
13:06:30:269654,3,-3,-3,-8,-10,-1,5,4
13:06:30:270528,-12,-13,8,13,-3,-4,-6,-7
13:06:30:271373,-26,-15,-12,-2,3,-6,-6,1
13:06:30:284375,-26,-15,-12,-2,3,-6,-6,1
13:06:30:291486,3,15,2,0,-17,0,2,2
13:06:30:292226,9,1,5,-2,-17,4,-2,-1
13:06:30:299014,9,1,5,-2,-17,4,-2,-1
13:06:30:299859,2,3,-3,-3,-3,-1,3,3
13:06:30:305771,2,11,1,0,7,-5,4,-9
13:06:30:321521,2,11,1,0,7,-5,4,-9
13:06:30:322410,0,-7,-3,-1,9,-4,-11,-7
13:06:30:328394,-13,-16,0,3,12,-5,-14,-9
13:06:30:344010,-13,-16,0,3,12,-5,-14,-9
13:06:30:344748,-3,-9,-6,-5,-16,-4,7,0
13:06:30:350755,0,18,-3,-4,33,-6,-5,-5
13:06:30:359008,0,18,-3,-4,33,-6,-5,-5
13:06:30:359803,-1,-5,-2,0,10,1,1,-3
13:06:30:365736,10,4,0,-4,-12,-3,-4,-1
13:06:30:381514,10,4,0,-4,-12,-3,-4,-1
13:06:30:382360,-47,-12,1,1,17,-4,5,-6
13:06:30:388277,-8,-11,-3,-1,-1,-3,-2,0
13:06:30:404039,-8,-11,-3,-1,-1,-3,-2,0
13:06:30:404781,9,19,-1,-5,-3,5,2,-3
13:06:30:419647,2,6,0,-2,-28,4,10,2
13:06:30:420519,2,6,0,-2,-28,4,10,2
13:06:30:421280,3,-1,-1,-1,-9,3,3,1
13:06:30:425752,17,10,2,4,2,1,-4,2
13:06:30:449619,17,10,2,4,2,1,-4,2
13:06:30:450511,6,-1,-4,-3,2,-1,-3,-4
13:06:30:451377,7,8,0,-3,3,1,4,-1
13:06:30:463998,7,8,0,-3,3,1,4,-1
13:06:30:464763,3,2,-3,-4,-7,2,-1,0
13:06:30:470762,-2,0,-4,-4,1,-8,-15,-5
13:06:30:478998,-2,0,-4,-4,1,-8,-15,-5
13:06:30:479861,0,4,-2,-2,48,1,-4,-6
13:06:30:485755,-2,-22,5,2,9,-3,1,9
13:06:30:502257,-2,-22,5,2,9,-3,1,9
13:06:30:502998,-12,-1,-1,-6,-4,-4,-1,-1
13:06:30:508299,-7,-2,-2,-7,-4,1,-1,-4
13:06:30:524567,-7,-2,-2,-7,-4,1,-1,-4
13:06:30:525313,12,-1,1,-1,-13,1,-3,1
13:06:30:530753,-6,3,-1,3,-3,2,-5,-4
13:06:30:547135,-6,3,-1,3,-3,2,-5,-4
13:06:30:547986,2,-12,1,8,2,-4,1,7
13:06:30:548747,2,4,0,4,7,-3,2,0
13:06:30:577127,2,4,0,4,7,-3,2,0
13:06:30:578004,-10,0,-1,-3,-14,-4,-8,-7
13:06:30:578752,1,3,-1,-3,-1,4,0,-2
13:06:30:584004,1,3,-1,-3,-1,4,0,-2
13:06:30:584746,-1,-13,-2,-2,-5,-5,-7,2
13:06:30:590786,-15,-1,1,-2,-11,-4,-9,-8
13:06:30:599001,-15,-1,1,-2,-11,-4,-9,-8
13:06:30:599747,7,9,-5,-7,2,1,-2,-3
13:06:30:605793,-2,0,-3,-3,22,12,18,5
13:06:30:621492,-2,0,-3,-3,22,12,18,5
13:06:30:622379,9,0,5,-3,-13,0,-1,1
13:06:30:628238,15,2,2,2,-4,0,10,3
13:06:30:644024,15,2,2,2,-4,0,10,3
13:06:30:644744,5,-11,3,6,-5,-3,1,7
13:06:30:650755,-5,-2,-9,-7,-17,3,-3,-8
13:06:30:659037,-5,-2,-9,-7,-17,3,-3,-8
13:06:30:659785,5,7,-6,-1,-1,5,4,-4
13:06:30:665778,18,11,7,4,-11,3,11,13
13:06:30:681521,18,11,7,4,-11,3,11,13
13:06:30:682371,-2,-14,-3,1,18,-6,-1,4
13:06:30:688264,-7,-15,-5,4,10,-6,-3,-2
13:06:30:704009,-7,-15,-5,4,10,-6,-3,-2
13:06:30:704749,-13,6,4,-4,-20,-1,11,-3
13:06:30:719629,1,14,-5,-11,-16,5,-15,-13
13:06:30:720389,1,14,-5,-11,-16,5,-15,-13
13:06:30:721257,-4,1,-8,-9,-6,-1,0,-5
13:06:30:725755,-13,-4,-4,-7,-18,9,-9,-14
13:06:30:742017,-13,-4,-4,-7,-18,9,-9,-14
13:06:30:742801,10,1,2,3,7,-2,1,1
13:06:30:748410,-2,10,2,3,4,-13,4,13
13:06:30:764010,-2,10,2,3,4,-13,4,13
13:06:30:764738,-35,-19,-4,-2,-12,3,-4,-2
13:06:30:770748,-3,-3,-1,-4,-1,-2,6,-2
13:06:30:779633,-3,-3,-1,-4,-1,-2,6,-2
13:06:30:780517,-3,5,0,2,-22,-10,-5,-1
13:06:30:785804,-9,-7,0,1,-16,-3,-3,2
13:06:30:801507,-9,-7,0,1,-16,-3,-3,2
13:06:30:802373,15,10,7,-1,3,3,3,-3
13:06:30:808438,19,-10,-1,-2,10,-3,1,0
13:06:30:824899,19,-10,-1,-2,10,-3,1,0
13:06:30:825766,2,-6,-5,-2,13,1,0,1
13:06:30:839630,-6,-12,2,-1,4,-3,-2,-1
13:06:30:840555,-6,-12,2,-1,4,-3,-2,-1
13:06:30:841285,-11,-6,0,-2,-2,-1,-15,-5
13:06:30:853417,-5,1,3,6,-12,-3,-4,3
13:06:30:861525,-5,1,3,6,-12,-3,-4,3
13:06:30:862391,-8,-1,-8,-8,-2,5,6,-1
13:06:30:868283,-2,-1,-1,-3,2,-3,-4,0
13:06:30:875896,-2,-1,-1,-3,2,-3,-4,0
13:06:30:883279,13,7,-1,-4,8,-1,0,-5
13:06:30:890827,6,-2,5,0,3,3,5,0
13:06:30:898992,6,-2,5,0,3,3,5,0
13:06:30:899883,5,7,-3,-1,-13,-3,-5,-4
13:06:30:913278,9,14,0,0,27,7,14,3
13:06:30:921547,9,14,0,0,27,7,14,3
13:06:30:922408,-3,-4,0,1,3,0,2,1
13:06:30:928293,2,-17,-5,3,-2,-8,-10,-2
13:06:30:935900,2,-17,-5,3,-2,-8,-10,-2
13:06:30:943432,1,-7,1,-1,21,-1,-2,3
13:06:30:950757,7,-9,-5,-2,-5,0,5,-4
13:06:30:959008,7,-9,-5,-2,-5,0,5,-4
13:06:30:959900,-2,24,1,-1,18,-2,-3,-2
13:06:30:973266,-20,-15,8,4,-6,2,5,2
13:06:30:981513,-20,-15,8,4,-6,2,5,2
13:06:30:982376,8,16,6,3,-3,-1,-2,3
13:06:30:988397,-2,3,-1,-9,10,2,-4,0
13:06:30:995901,-2,3,-1,-9,10,2,-4,0
13:06:31:3397,0,5,-2,4,-6,-4,-2,1
13:06:31:19623,-25,-5,-2,-3,-1,-9,-4,-6
13:06:31:20499,-25,-5,-2,-3,-1,-9,-4,-6
13:06:31:21439,14,5,-2,-6,9,2,0,-6
13:06:31:33285,17,22,-3,-2,-7,2,2,-1
13:06:31:41523,17,22,-3,-2,-7,2,2,-1
13:06:31:42424,-20,-17,-4,-5,-13,-4,-2,-6
13:06:31:48274,-30,-15,1,1,3,-1,-1,3
13:06:31:55881,-30,-15,1,1,3,-1,-1,3
13:06:31:63408,6,-2,-3,-2,-7,4,6,3
13:06:31:70758,4,8,-5,-8,-21,-9,-11,-9
13:06:31:79017,4,8,-5,-8,-21,-9,-11,-9
13:06:31:79903,-12,-11,0,0,-8,-4,-8,-2
13:06:31:102763,-8,-10,-3,2,0,-5,-6,-5
13:06:31:103633,-8,-10,-3,2,0,-5,-6,-5
13:06:31:104406,6,0,5,2,-9,-8,-4,3
13:06:31:108263,11,25,2,-3,0,0,1,-8
13:06:31:124042,11,25,2,-3,0,0,1,-8
13:06:31:124772,-1,0,1,5,2,5,-1,-3
13:06:31:130771,1,-8,-3,0,2,0,-14,-11
13:06:31:139010,1,-8,-3,0,2,0,-14,-11
13:06:31:139751,-7,6,3,-1,-1,1,6,-3
13:06:31:153296,7,21,7,-5,-4,6,7,7
13:06:31:161543,7,21,7,-5,-4,6,7,7
13:06:31:162416,7,-9,-1,1,0,0,1,6
13:06:31:168256,-7,-43,-3,5,23,1,-4,10
13:06:31:175903,-7,-43,-3,5,23,1,-4,10
13:06:31:183387,-4,-13,2,5,-4,0,-3,-2
13:06:31:190808,4,0,-4,-3,-15,-4,-1,-1
13:06:31:199640,4,0,-4,-3,-15,-4,-1,-1
13:06:31:200497,5,-30,1,0,1,1,0,-2
13:06:31:213279,-3,3,-1,-3,3,4,3,-5
13:06:31:221524,-3,3,-1,-3,3,4,3,-5
13:06:31:222395,-15,-11,-4,-2,-2,-1,-7,-2
13:06:31:236514,-7,-4,-4,1,5,-3,-3,4
13:06:31:237402,-7,-4,-4,1,5,-3,-3,4
13:06:31:251403,17,10,-7,-9,6,-2,1,2
13:06:31:252259,10,-2,1,4,2,-10,-2,7
13:06:31:259018,10,-2,1,4,2,-10,-2,7
13:06:31:259766,-17,7,-3,-3,1,-2,-4,-4
13:06:31:273421,2,-13,-5,-3,-12,2,1,-4
13:06:31:281500,2,-13,-5,-3,-12,2,1,-4
13:06:31:282397,0,-4,-3,-3,2,-1,-7,-1
13:06:31:288305,0,-1,1,2,-7,-4,-2,1
13:06:31:295894,0,-1,1,2,-7,-4,-2,1
13:06:31:303297,4,5,5,3,-14,-1,-3,-3
13:06:31:310757,2,-12,0,1,5,-1,0,0
13:06:31:319012,2,-12,0,1,5,-1,0,0
13:06:31:319777,8,2,-2,-3,-13,0,1,-1
13:06:31:333277,1,6,-1,-4,-11,-2,1,-5
13:06:31:341561,1,6,-1,-4,-11,-2,1,-5
13:06:31:342385,-7,-2,-3,4,2,2,6,1
13:06:31:348260,5,-34,-9,0,-6,-1,-5,-3
13:06:31:355907,5,-34,-9,0,-6,-1,-5,-3
13:06:31:363396,-14,6,3,2,12,-1,5,0
13:06:31:370822,-2,48,8,-8,0,9,0,-1
13:06:31:379018,-2,48,8,-8,0,9,0,-1
13:06:31:379887,0,-52,-19,-18,2,-3,-2,4
13:06:31:393273,13,-32,-7,5,-1,-4,8,5
13:06:31:401503,13,-32,-7,5,-1,-4,8,5
13:06:31:402365,6,16,4,6,9,5,-2,-3
13:06:31:408396,5,-5,-5,-5,0,-2,2,0
13:06:31:415887,5,-5,-5,-5,0,-2,2,0
13:06:31:423453,-12,-4,4,-3,2,-1,-1,-2
13:06:31:430790,-21,-16,4,2,-3,-2,-2,-5
13:06:31:439057,-21,-16,4,2,-3,-2,-2,-5
13:06:31:439776,3,15,3,-2,-1,-3,-3,-8
13:06:31:453390,-9,28,8,-4,-1,0,-3,-2
13:06:31:461535,-9,28,8,-4,-1,0,-3,-2
13:06:31:462394,-19,-47,-12,-10,-8,-6,3,-2
13:06:31:468397,3,14,1,1,6,-11,-13,-16
13:06:31:475780,3,14,1,1,6,-11,-13,-16
13:06:31:483384,8,20,7,9,-4,0,1,-1
13:06:31:490780,-6,24,3,-6,5,6,3,-4
13:06:31:499025,-6,24,3,-6,5,6,3,-4
13:06:31:499779,-17,22,7,-1,3,0,0,0
13:06:31:513385,4,74,19,4,-3,5,-3,-5
13:06:31:521552,4,74,19,4,-3,5,-3,-5
13:06:31:522400,-8,-30,-5,-2,5,4,-4,-8
13:06:31:528423,11,-21,-12,-7,-1,-4,-4,4
13:06:31:535902,11,-21,-12,-7,-1,-4,-4,4
13:06:31:543332,19,35,7,4,-7,-6,-8,0
13:06:31:550777,-11,-33,-4,4,0,-9,-5,-4
13:06:31:559028,-11,-33,-4,4,0,-9,-5,-4
13:06:31:559783,5,-8,-7,-1,7,1,2,-2
13:06:31:573408,-9,-46,-11,4,-2,-5,-1,-4
13:06:31:581513,-9,-46,-11,4,-2,-5,-1,-4
13:06:31:582385,14,20,3,-1,3,-2,0,1
13:06:31:588278,-17,-27,-4,-3,1,-3,-3,-2
13:06:31:595885,-17,-27,-4,-3,1,-3,-3,-2
13:06:31:603275,-2,-19,-9,-10,-3,-4,2,3
13:06:31:610763,-4,-9,-3,4,3,1,0,-1
13:06:31:619023,-4,-9,-3,4,3,1,0,-1
13:06:31:619763,9,14,4,0,0,7,8,5
13:06:31:633294,-2,19,-3,2,3,-3,-8,-5
13:06:31:641522,-2,19,-3,2,3,-3,-8,-5
13:06:31:642390,-10,-4,-7,-3,-6,-1,1,-3
13:06:31:648264,9,-1,-5,-2,0,-3,0,2
13:06:31:655922,9,-1,-5,-2,0,-3,0,2
13:06:31:663405,4,17,-1,2,-2,-3,-5,-3
13:06:31:670801,-1,-17,-5,-12,2,1,9,6
13:06:31:679019,-1,-17,-5,-12,2,1,9,6
13:06:31:679876,4,-15,-6,4,5,0,-2,5
13:06:31:693337,-2,-7,-5,-7,-5,5,0,0
13:06:31:701297,-2,-7,-5,-7,-5,5,0,0
13:06:31:709035,1,-9,3,-1,-6,-4,-1,-6
13:06:31:709797,8,45,10,3,-11,0,-2,2
13:06:31:715887,8,45,10,3,-11,0,-2,2
13:06:31:723417,-7,5,9,2,1,-1,0,2
13:06:31:730771,3,21,4,-1,-4,-3,-4,-6
13:06:31:739057,3,21,4,-1,-4,-3,-4,-6
13:06:31:739760,0,-11,-8,-8,-3,1,-3,-3
13:06:31:753399,0,11,-4,-4,-2,0,0,1
13:06:31:761527,0,11,-4,-4,-2,0,0,1
13:06:31:762247,10,-14,-3,-3,0,-4,-1,-3
13:06:31:776562,9,-18,-4,0,1,-5,3,4
13:06:31:777394,9,-18,-4,0,1,-5,3,4
13:06:31:783387,5,6,3,2,-3,-4,-1,2
13:06:31:790798,-18,-14,-4,-4,-2,2,2,-4
13:06:31:798397,-18,-14,-4,-4,-2,2,2,-4
13:06:31:805757,-9,-19,0,-1,1,0,0,-1
13:06:31:813414,-4,33,-13,-21,-12,6,-11,-10
13:06:31:821536,-4,33,-13,-21,-12,6,-11,-10
13:06:31:822319,-10,2,-12,-14,-17,7,-4,-4
13:06:31:836524,7,14,0,-1,4,-2,0,1
13:06:31:837273,7,14,0,-1,4,-2,0,1
13:06:31:843428,-15,-20,1,11,8,0,-1,0
13:06:31:850783,-1,-3,7,4,13,-12,0,9
13:06:31:858397,-1,-3,7,4,13,-12,0,9
13:06:31:865769,-1,-8,-7,-1,-2,4,3,-4
13:06:31:873317,-9,-24,-4,2,-3,-5,-6,-10
13:06:31:881525,-9,-24,-4,2,-3,-5,-6,-10
13:06:31:882391,0,4,-1,-1,-3,1,-4,-6
13:06:31:896543,-6,-6,5,5,12,5,1,4
13:06:31:897400,-6,-6,5,5,12,5,1,4
13:06:31:903267,4,7,4,3,2,-11,-4,-2
13:06:31:910774,2,2,-6,-6,-15,4,2,-10
13:06:31:918419,2,2,-6,-6,-15,4,2,-10
13:06:31:925771,6,-12,4,8,4,-7,-2,3
13:06:31:933263,2,-8,4,8,11,2,9,9
13:06:31:941503,2,-8,4,8,11,2,9,9
13:06:31:942389,-9,5,-2,-6,0,-1,0,0
13:06:31:956535,2,-22,-6,1,2,0,-1,3
13:06:31:957408,2,-22,-6,1,2,0,-1,3
13:06:31:963276,13,26,-4,-10,-3,1,-1,-5
13:06:31:970791,1,-17,-7,1,6,-6,-4,0
13:06:31:978410,1,-17,-7,1,6,-6,-4,0
13:06:31:985774,12,70,16,-4,-5,6,2,-3
13:06:31:993288,9,12,-1,-5,-15,3,-1,-7
13:06:32:1512,9,12,-1,-5,-15,3,-1,-7
13:06:32:2373,-28,-12,-3,-3,-1,-2,-9,-11
13:06:32:16517,-4,23,-8,-10,-15,2,-8,-5
13:06:32:17399,-4,23,-8,-10,-15,2,-8,-5
13:06:32:23421,-10,-9,1,-1,3,-4,10,2
13:06:32:30787,-1,-64,-8,5,15,-9,1,5
13:06:32:38444,-1,-64,-8,5,15,-9,1,5
13:06:32:45777,4,-4,-19,-12,-14,0,-8,-13
13:06:32:53391,21,21,6,14,3,-2,1,1
13:06:32:61580,21,21,6,14,3,-2,1,1
13:06:32:62298,-24,2,7,9,8,0,1,-2
13:06:32:76925,-12,-21,-3,-6,1,1,5,6
13:06:32:84060,-12,-21,-3,-6,1,1,5,6
13:06:32:84929,-11,-22,-7,-8,-2,1,3,10
13:06:32:90810,0,-18,15,6,-7,3,0,-2
13:06:32:106577,0,-18,15,6,-7,3,0,-2
13:06:32:107445,24,12,-6,-7,-9,5,0,0
13:06:32:113382,4,10,2,-9,-3,1,5,6
13:06:32:122177,4,10,2,-9,-3,1,5,6
13:06:32:123068,-6,7,8,2,-4,2,4,10
13:06:32:136520,-9,3,-6,-3,-4,-3,2,0
13:06:32:137410,-9,3,-6,-3,-4,-3,2,0
13:06:32:143394,9,23,-3,-3,-4,-2,-2,-2
13:06:32:150786,-9,5,-6,-4,8,0,-2,-2
13:06:32:158394,-9,5,-6,-4,8,0,-2,-2
13:06:32:173909,3,-23,-10,19,17,-10,-4,-3
13:06:32:174798,20,23,4,-7,-11,0,-4,-12
13:06:32:189035,20,23,4,-7,-11,0,-4,-12
13:06:32:189813,7,-26,4,-1,3,1,-3,-1
13:06:32:196551,9,-2,12,11,17,-8,1,20
13:06:32:197398,9,-2,12,11,17,-8,1,20
13:06:32:211398,10,-13,0,-10,-2,-2,2,12
13:06:32:212260,-9,9,5,6,1,2,3,7
13:06:32:218414,-9,9,5,6,1,2,3,7
13:06:32:225778,7,1,10,7,7,-5,1,9
13:06:32:233289,-16,-12,-12,-19,-5,-4,-4,-12
13:06:32:241532,-16,-12,-12,-19,-5,-4,-4,-12
13:06:32:242419,-4,3,-5,-9,-17,4,-5,-13
13:06:32:256530,-2,-17,0,9,-6,-4,-6,-9
13:06:32:257428,-2,-17,0,9,-6,-4,-6,-9
13:06:32:263286,-3,13,7,2,3,-3,-2,-8
13:06:32:270772,11,4,-3,-10,-6,3,-4,-9
13:06:32:278412,11,4,-3,-10,-6,3,-4,-9
13:06:32:293917,-3,-14,-2,6,3,-4,-1,2
13:06:32:294783,-5,25,6,-1,-4,3,7,5
13:06:32:301505,-5,25,6,-1,-4,3,7,5
13:06:32:302401,1,-16,-11,-8,-3,-5,-7,-10
13:06:32:316518,-18,8,6,4,4,5,2,2
13:06:32:317388,-18,8,6,4,4,5,2,2
13:06:32:323283,3,6,5,8,3,-2,1,6
13:06:32:339055,4,-4,2,11,12,-11,-2,4
13:06:32:339797,4,-4,2,11,12,-11,-2,4
13:06:32:345765,0,3,1,-2,-1,1,-2,-2
13:06:32:362144,-1,15,-2,-11,-12,5,-1,-5
13:06:32:362876,-1,15,-2,-11,-12,5,-1,-5
13:06:32:363752,10,21,-2,-8,-5,0,-3,-4
13:06:32:376566,-3,-8,0,2,2,-4,-5,-2
13:06:32:377394,-3,-8,0,2,2,-4,-5,-2
13:06:32:383397,-28,-7,-5,-6,-9,6,-1,-2
13:06:32:390790,-9,-12,-14,-8,-9,0,-3,-10
13:06:32:398409,-9,-12,-14,-8,-9,0,-3,-10
13:06:32:405792,-1,-5,7,7,6,-8,-1,2
13:06:32:413423,-5,-11,-5,-5,0,-3,-3,0
13:06:32:421548,-5,-11,-5,-5,0,-3,-3,0
13:06:32:422433,-2,4,-5,-1,1,5,2,2
13:06:32:436525,10,-12,0,-2,0,-2,-6,-3
13:06:32:437288,10,-12,0,-2,0,-2,-6,-3
13:06:32:443391,-10,-11,-4,-4,0,0,2,1
13:06:32:450768,-29,-5,-5,-4,2,-6,-5,-10
13:06:32:458427,-29,-5,-5,-4,2,-6,-5,-10
13:06:32:465790,2,0,-4,-9,4,2,1,3
13:06:32:473282,3,-9,-7,-7,-2,3,-1,-4
13:06:32:481524,3,-9,-7,-7,-2,3,-1,-4
13:06:32:482378,8,-20,-3,10,8,-7,2,0
13:06:32:496540,-2,6,6,6,8,-3,-5,-3
13:06:32:497408,-2,6,6,6,8,-3,-5,-3
13:06:32:503269,-27,-35,-2,-5,1,1,1,-6
13:06:32:510787,-4,2,8,9,0,-2,7,9
13:06:32:518400,-4,2,8,9,0,-2,7,9
13:06:32:525784,0,-4,3,-6,-8,0,-9,-6
13:06:32:533275,12,0,-3,-9,3,0,3,5
13:06:32:541524,12,0,-3,-9,3,0,3,5
13:06:32:542421,-1,-4,1,-2,-2,-3,1,-3
13:06:32:556345,6,0,2,-1,0,1,4,5
13:06:32:564038,6,0,2,-1,0,1,4,5
13:06:32:564779,0,-13,-8,-9,9,-6,-4,-3
13:06:32:570782,2,10,6,3,0,0,3,3
13:06:32:578405,2,10,6,3,0,0,3,3
13:06:32:585761,9,23,0,-7,-5,1,1,-3
13:06:32:593339,2,-3,-11,-1,0,-3,-3,-8
13:06:32:601521,2,-3,-11,-1,0,-3,-3,-8
13:06:32:602392,8,-16,-1,15,6,-8,-4,8
13:06:32:616529,-2,-4,1,-2,2,-2,0,4
13:06:32:617411,-2,-4,1,-2,2,-2,0,4
13:06:32:623323,5,18,3,-1,-9,6,0,-2
13:06:32:639087,0,9,0,-2,-2,3,-4,3
13:06:32:639825,0,9,0,-2,-2,3,-4,3
13:06:32:645772,-7,-12,0,2,0,-4,-4,-2
13:06:32:662146,-3,0,1,-5,-3,-1,-9,-11
13:06:32:663015,-3,0,1,-5,-3,-1,-9,-11
13:06:32:663760,7,6,-2,0,4,0,4,3
13:06:32:684642,-1,-2,-9,-13,-9,2,2,2
13:06:32:685380,-1,-2,-9,-13,-9,2,2,2
13:06:32:686254,-15,17,7,5,-1,-3,0,-3
13:06:32:690787,9,14,0,1,0,-1,0,-6
13:06:32:706596,9,14,0,1,0,-1,0,-6
13:06:32:707416,7,-3,6,6,-7,1,-2,3
13:06:32:713391,-10,-4,4,4,3,1,-2,-2
13:06:32:720803,-10,-4,4,4,3,1,-2,-2
13:06:32:728390,-2,-17,-4,-6,-5,1,0,0
13:06:32:744661,0,-17,6,2,4,2,1,2
13:06:32:745390,0,-17,6,2,4,2,1,2
13:06:32:746255,10,-18,-2,-2,2,-3,-1,1
13:06:32:767163,6,16,2,1,1,-5,-5,-5
13:06:32:768025,6,16,2,1,1,-5,-5,-5
13:06:32:768780,4,16,1,-7,-3,1,1,2
13:06:32:773322,2,-13,-7,-8,-6,-5,-3,-6
13:06:32:780906,2,-13,-7,-8,-6,-5,-3,-6
13:06:32:788312,0,19,-1,-11,-4,2,-2,-4
13:06:32:796521,1,-10,-3,-2,-5,-6,-7,-6
13:06:32:797431,1,-10,-3,-2,-5,-6,-7,-6
13:06:32:803411,-4,-7,-2,-7,1,-3,1,2
13:06:32:819051,-19,-11,-1,4,4,-3,2,0
13:06:32:819787,-19,-11,-1,4,4,-3,2,0
13:06:32:825787,-13,-25,-7,1,2,-3,-1,0
13:06:32:833269,14,19,3,1,-4,0,2,4
13:06:32:840941,14,19,3,1,-4,0,2,4
13:06:32:848287,3,18,6,11,3,1,0,-3
13:06:32:856480,6,-6,-3,-5,-2,-1,5,3
13:06:32:857315,6,-6,-3,-5,-2,-1,5,3
13:06:32:863434,2,-18,-10,-7,-4,2,3,2
13:06:32:879042,0,7,-2,-4,-4,1,-2,1
13:06:32:879897,0,7,-2,-4,-4,1,-2,1
13:06:32:885788,3,10,-1,-9,0,-5,-4,-1
13:06:32:893302,-8,-5,-2,-2,-9,0,-8,-3
13:06:32:900771,-8,-5,-2,-2,-9,0,-8,-3
13:06:32:917160,-1,-11,-3,5,2,1,2,-3
13:06:32:917903,-1,-1,0,-1,2,2,1,-1
13:06:32:918776,-1,-1,0,-1,2,2,1,-1
13:06:32:923431,-1,6,-5,-8,-2,-4,-3,-4
13:06:32:939074,4,12,0,-1,-1,-2,1,1
13:06:32:939817,4,12,0,-1,-1,-2,1,1
13:06:32:945785,0,0,-4,5,-1,-2,-3,-4
13:06:32:953295,-1,-11,-3,-3,0,1,0,-3
13:06:32:960942,-1,-11,-3,-3,0,1,0,-3
13:06:32:968414,-5,-17,1,-1,-3,0,-2,1
13:06:32:976428,0,-10,-6,1,-3,0,3,1
13:06:32:977266,0,-10,-6,1,-3,0,3,1
13:06:32:999691,-1,18,6,1,2,1,-1,-1
13:06:33:521,0,-3,2,-7,2,1,3,-1
13:06:33:1275,0,-3,2,-7,2,1,3,-1
13:06:33:5778,-4,6,6,2,0,1,1,-2
13:06:33:21545,-16,0,-1,8,6,-4,-5,-6
13:06:33:22415,-16,0,-1,8,6,-4,-5,-6
13:06:33:28280,-7,-6,1,-5,0,3,-3,-2
13:06:33:44664,-8,13,1,-9,-2,-2,-5,-3
13:06:33:45399,-8,13,1,-9,-2,-2,-5,-3
13:06:33:46270,-13,-23,-7,-2,0,-6,-2,3
13:06:33:58921,0,-15,-7,-3,-3,-1,-2,0
13:06:33:59830,0,-15,-7,-3,-3,-1,-2,0
13:06:33:65797,-6,-5,0,-3,-1,1,-1,-3
13:06:33:73427,3,3,2,6,4,-2,-1,-1
13:06:33:80785,3,3,2,6,4,-2,-1,-1
13:06:33:88308,6,12,-1,6,8,1,0,-1
13:06:33:96520,-18,3,-16,-17,-3,-4,1,4
13:06:33:97415,-18,3,-16,-17,-3,-4,1,4
13:06:33:103298,10,23,-4,1,-2,-1,-5,4
13:06:33:119030,-3,-11,-3,-8,-3,3,2,3
13:06:33:119765,-3,-11,-3,-8,-3,3,2,3
13:06:33:125785,5,10,-4,-1,-3,-3,0,-5
13:06:33:133284,4,-7,2,5,3,1,0,3
13:06:33:140922,4,-7,2,5,3,1,0,3
13:06:33:148285,14,2,6,-2,-1,-1,1,2
13:06:33:156543,7,-6,-1,-2,0,0,-2,-5
13:06:33:157412,7,-6,-1,-2,0,0,-2,-5
13:06:33:163277,-7,-7,-1,3,0,-2,-2,-3
13:06:33:179058,-1,-15,-1,5,-1,1,-7,-2
13:06:33:179785,-1,-15,-1,5,-1,1,-7,-2
13:06:33:185773,-7,8,2,-4,-5,-1,3,-1
13:06:33:193308,-5,16,2,3,-3,-1,0,0
13:06:33:200904,-5,16,2,3,-3,-1,0,0
13:06:33:208286,-9,-20,-5,4,-1,-3,-6,-6
13:06:33:217518,-12,-12,3,3,1,-2,1,-1
13:06:33:224061,-12,-12,3,3,1,-2,1,-1
13:06:33:224802,-22,-3,1,-3,0,-2,-1,3
13:06:33:239073,-13,-7,-9,-7,5,-1,-2,-4
13:06:33:239793,-13,-7,-9,-7,5,-1,-2,-4
13:06:33:245771,5,-2,-4,-10,-4,0,3,0
13:06:33:253293,1,11,1,-7,-7,0,4,4
13:06:33:260922,1,11,1,-7,-7,0,4,4
13:06:33:277190,4,-11,-1,1,3,-1,-4,-4
13:06:33:278039,12,25,5,3,3,1,-1,-2
13:06:33:278776,12,25,5,3,3,1,-1,-2
13:06:33:283272,9,-12,2,0,-3,-1,-2,2
13:06:33:299392,5,-3,3,1,-5,-1,-5,-4
13:06:33:300266,5,-3,3,1,-5,-1,-5,-4
13:06:33:305826,11,-4,-6,-5,-5,0,4,6
13:06:33:321540,-4,-7,-16,-9,-5,-1,2,0
13:06:33:322440,-4,-7,-16,-9,-5,-1,2,0
13:06:33:328285,4,-2,-7,-3,3,-1,-1,0
13:06:33:336525,11,-17,-2,-4,0,-6,-8,-5
13:06:33:337403,11,-17,-2,-4,0,-6,-8,-5
13:06:33:343307,-16,6,1,5,2,-2,-4,-4
13:06:33:359039,7,19,5,4,1,-2,-1,-1
13:06:33:359785,7,19,5,4,1,-2,-1,-1
13:06:33:365776,5,15,1,-2,-3,0,0,1
13:06:33:373298,-20,-39,-5,12,6,-4,1,-4
13:06:33:380909,-20,-39,-5,12,6,-4,1,-4
13:06:33:388315,-3,-7,0,2,1,-3,1,1
13:06:33:396538,3,5,-4,-1,-7,0,0,0
13:06:33:397402,3,5,-4,-1,-7,0,0,0
13:06:33:403295,-4,-3,-1,-7,-6,-2,-3,0
13:06:33:419043,-20,17,4,-5,0,-1,3,4
13:06:33:419787,-20,17,4,-5,0,-1,3,4
13:06:33:425780,9,4,2,-4,-3,3,-1,-1
13:06:33:433284,5,-8,3,2,1,0,-1,1
13:06:33:440923,5,-8,3,2,1,0,-1,1
13:06:33:448304,-1,2,-3,0,2,-3,1,-3
13:06:33:456505,-7,15,5,0,-1,1,-2,-3
13:06:33:457283,-7,15,5,0,-1,1,-2,-3
13:06:33:463409,4,6,1,0,2,-2,-2,3
13:06:33:479054,-15,16,-4,-11,-1,3,2,-1
13:06:33:479779,-15,16,-4,-11,-1,3,2,-1
13:06:33:485784,-21,10,4,-1,-2,1,-4,-4
13:06:33:493303,13,6,-2,1,-2,-1,-5,-1
13:06:33:500800,13,6,-2,1,-2,-1,-5,-1
13:06:33:508443,5,-21,-3,-8,-8,1,4,5
13:06:33:516518,4,3,-3,0,-2,-3,-4,0
13:06:33:517318,4,3,-3,0,-2,-3,-4,0
13:06:33:523316,-5,20,2,2,1,-1,-2,-5
13:06:33:538899,-9,-3,-2,1,-1,-1,-1,-9
13:06:33:539777,-9,-3,-2,1,-1,-1,-1,-9
13:06:33:545765,-1,4,2,5,2,1,-1,-1
13:06:33:553427,7,-4,0,1,-3,2,1,2
13:06:33:560792,7,-4,0,1,-3,2,1,2
13:06:33:568280,-14,2,3,-3,-11,2,0,-2
13:06:33:576576,10,3,-4,-16,-10,-2,-3,0
13:06:33:577406,10,3,-4,-16,-10,-2,-3,0
13:06:33:583304,7,-6,-1,3,3,-3,-3,1
13:06:33:599019,14,4,8,-3,2,4,11,11
13:06:33:599775,14,4,8,-3,2,4,11,11
13:06:33:605807,9,15,-5,-1,4,0,-4,-4
13:06:33:613280,-14,-11,-3,-4,3,-2,2,4
13:06:33:620928,-14,-11,-3,-4,3,-2,2,4
13:06:33:637159,-3,5,-2,-4,3,3,4,-3
13:06:33:637942,3,-11,-5,3,-2,-5,-7,-5
13:06:33:638796,3,-11,-5,3,-2,-5,-7,-5
13:06:33:643298,-12,-28,-5,-3,-3,-2,-5,-5
13:06:33:658942,-3,-16,-1,4,3,-2,-2,-2
13:06:33:659805,-3,-16,-1,4,3,-2,-2,-2
13:06:33:665794,7,-1,0,3,5,-7,-5,-3
13:06:33:681436,5,-15,-3,3,0,-4,-6,-5
13:06:33:682272,5,-15,-3,3,0,-4,-6,-5
13:06:33:688450,2,5,-1,-9,-3,-4,2,2
13:06:33:696557,-5,11,4,5,-1,1,-2,-2
13:06:33:697295,-5,11,4,5,-1,1,-2,-2
13:06:33:710790,-16,-22,-3,1,5,-3,-1,-8
13:06:33:718936,4,-3,6,-3,-1,-1,1,-2
13:06:33:719792,4,-3,6,-3,-1,-1,1,-2
13:06:33:725812,2,-9,-2,-1,0,-1,-6,-1
13:06:33:741567,4,2,-5,-5,-7,-5,-5,2
13:06:33:742412,4,2,-5,-5,-7,-5,-5,2
13:06:33:748301,0,-11,-3,-4,1,1,2,1
13:06:33:756442,-3,-4,-4,1,-2,-5,-6,-8
13:06:33:757316,-3,-4,-4,1,-2,-5,-6,-8
13:06:33:770820,-13,13,-1,-1,-6,2,1,2
13:06:33:779042,-10,1,3,2,1,1,-1,-4
13:06:33:779795,-10,1,3,2,1,1,-1,-4
13:06:33:785776,9,1,-2,3,-2,-4,-4,-2
13:06:33:801554,-16,-11,-1,2,2,1,4,3
13:06:33:802421,-16,-11,-1,2,2,1,4,3
13:06:33:808305,-15,45,6,-2,-7,-2,-4,-4
13:06:33:816428,12,-5,-7,-10,-1,-5,-4,-4
13:06:33:817287,12,-5,-7,-10,-1,-5,-4,-4
13:06:33:830794,2,-9,2,3,-1,-1,4,-2
13:06:33:839061,-5,6,-2,-14,-2,1,-1,-1
13:06:33:839807,-5,6,-2,-14,-2,1,-1,-1
13:06:33:845795,2,-15,-4,2,9,1,-4,0
13:06:33:861551,14,-7,0,4,0,-3,0,0
13:06:33:862417,14,-7,0,4,0,-3,0,0
13:06:33:868293,3,-12,-5,2,-2,-1,-4,0
13:06:33:876572,2,-6,1,2,-1,2,-4,-3
13:06:33:877416,2,-6,1,2,-1,2,-4,-3
13:06:33:890783,-9,-8,-3,-2,-3,2,3,1
13:06:33:899052,1,7,-4,-9,1,-2,-2,0
13:06:33:899826,1,7,-4,-9,1,-2,-2,0
13:06:33:905822,1,-5,-2,-5,2,-1,4,-1
13:06:33:921309,-12,2,2,9,4,-3,-5,-5
13:06:33:929026,-12,2,2,9,4,-3,-5,-5
13:06:33:929778,15,-3,2,-7,-10,-4,-6,10
13:06:33:936533,15,14,1,0,6,-3,4,2
13:06:33:937415,15,14,1,0,6,-3,4,2
13:06:33:950810,4,-9,2,4,-8,1,7,5
13:06:33:959048,4,-9,2,4,-8,1,7,5
13:06:33:959821,6,-2,-6,-7,-1,3,8,1
13:06:33:965802,-13,1,2,-4,-7,-6,-7,-15
13:06:33:981548,-13,1,2,-4,-7,-6,-7,-15
13:06:33:982422,10,3,0,4,-11,2,3,-2
13:06:33:988295,-3,11,2,-1,-4,7,1,-8
13:06:34:4048,-3,11,2,-1,-4,7,1,-8
13:06:34:4784,-6,10,4,4,-2,-3,-5,-2
13:06:34:10809,-1,-7,-2,-4,13,-12,-11,0
13:06:34:19029,-1,-7,-2,-4,13,-12,-11,0
13:06:34:19794,13,0,3,0,5,14,-5,-2
13:06:34:25798,-1,0,-2,2,-2,-6,-23,-4
13:06:34:41580,-1,0,-2,2,-2,-6,-23,-4
13:06:34:42317,-2,-9,-6,-7,-3,-3,1,2
13:06:34:48313,4,-10,1,11,2,-2,11,-1
13:06:34:64046,4,-10,1,11,2,-2,11,-1
13:06:34:64781,-1,3,3,1,-10,2,-7,-1
13:06:34:70804,0,8,1,-2,-11,1,2,8
13:06:34:79063,0,8,1,-2,-11,1,2,8
13:06:34:79799,-4,-6,0,1,-3,1,0,5
13:06:34:85806,11,3,-1,-3,3,-5,-5,-5
13:06:34:101540,11,3,-1,-3,3,-5,-5,-5
13:06:34:102278,-7,1,2,0,0,2,11,-3
13:06:34:108270,12,8,0,-5,-6,11,19,17
13:06:34:115786,12,8,0,-5,-6,11,19,17
13:06:34:123295,-6,1,-4,-2,-5,-5,21,0
13:06:34:130780,-15,-8,0,1,2,-1,-6,-3
13:06:34:139058,-15,-8,0,1,2,-1,-6,-3
13:06:34:139776,-16,-17,1,-1,25,-9,-24,-5
13:06:34:145822,-6,-17,-4,0,8,-3,9,8
13:06:34:161551,-6,-17,-4,0,8,-3,9,8
13:06:34:162414,0,5,2,0,-1,0,-4,-3
13:06:34:168296,-12,6,-4,-8,10,-1,-4,-6
13:06:34:175924,-12,6,-4,-8,10,-1,-4,-6
13:06:34:183283,1,-4,1,4,-5,3,-1,0
13:06:34:190802,11,-8,-6,-7,-2,-1,4,2
13:06:34:199034,11,-8,-6,-7,-2,-1,4,2
13:06:34:199803,-7,-3,-3,-1,18,-2,5,2
13:06:34:205791,11,7,4,2,-11,4,-4,-6
13:06:34:221572,11,7,4,2,-11,4,-4,-6
13:06:34:222470,2,-21,-9,-6,-3,-9,-8,-1
13:06:34:228281,0,5,0,-5,7,-4,12,-3
13:06:34:235928,0,5,0,-5,7,-4,12,-3
13:06:34:243328,-11,6,3,0,-12,-4,2,-6
13:06:34:250779,-4,1,-2,-1,-6,-2,-1,-2
13:06:34:259061,-4,1,-2,-1,-6,-2,-1,-2
13:06:34:259828,6,-2,-1,-3,-5,7,17,2
13:06:34:265793,-1,-19,-3,-3,3,-1,-5,-5
13:06:34:281541,-1,-19,-3,-3,3,-1,-5,-5
13:06:34:282412,11,14,0,-2,-4,-6,-5,4
13:06:34:288303,3,1,0,1,-13,1,-22,-6
13:06:34:295793,3,1,0,1,-13,1,-22,-6
13:06:34:303305,10,2,1,-1,18,12,9,4
13:06:34:310784,-9,6,-2,0,5,-2,3,1
13:06:34:319043,-9,6,-2,0,5,-2,3,1
13:06:34:319789,-1,11,0,0,-2,1,0,-8
13:06:34:325815,-7,-10,-9,0,8,-4,-4,-11
13:06:34:341655,-7,-10,-9,0,8,-4,-4,-11
13:06:34:342290,-5,4,0,3,-11,-1,-4,-3
13:06:34:348417,-1,-10,-4,-4,-1,1,4,-3
13:06:34:355859,-1,-10,-4,-4,-1,1,4,-3
13:06:34:363313,8,1,-1,-4,-1,-8,-13,-3
13:06:34:370807,1,14,1,-1,0,-4,-7,-9
13:06:34:379065,1,14,1,-1,0,-4,-7,-9
13:06:34:379804,-15,-12,-6,-2,20,3,-9,-9
13:06:34:385813,-5,9,3,-1,-11,-1,-8,-2
13:06:34:401539,-5,9,3,-1,-11,-1,-8,-2
13:06:34:402309,-7,-42,-8,-3,-10,-11,-12,-2
13:06:34:408323,-5,0,5,1,5,1,8,7
13:06:34:415792,-5,0,5,1,5,1,8,7
13:06:34:423306,0,-7,0,2,-11,3,-5,8
13:06:34:430799,11,7,-3,-2,-11,0,2,7
13:06:34:439102,11,7,-3,-2,-11,0,2,7
13:06:34:439829,10,26,-1,-15,-7,-4,-9,5
13:06:34:445791,13,12,5,2,-2,-6,-4,4
13:06:34:461568,13,12,5,2,-2,-6,-4,4
13:06:34:462447,-13,4,-1,4,1,8,7,-3
13:06:34:468282,-18,12,-2,-7,9,3,14,5
13:06:34:475928,-18,12,-2,-7,9,3,14,5
13:06:34:483286,-10,-15,-6,-4,-11,-8,3,0
13:06:34:490846,14,12,6,9,-5,4,5,1
13:06:34:499072,14,12,6,9,-5,4,5,1
13:06:34:499800,0,5,-2,-1,-7,-5,-7,-5
13:06:34:505810,-20,-27,-3,-4,-4,-7,-12,-8
13:06:34:521588,-20,-27,-3,-4,-4,-7,-12,-8
13:06:34:522484,0,2,-3,-4,17,3,-6,-7
13:06:34:528302,2,7,-3,3,3,0,3,-2
13:06:34:544062,2,7,-3,3,3,0,3,-2
13:06:34:544797,-8,-4,-1,0,-2,-2,6,0
13:06:34:550793,-4,-10,0,0,-1,3,4,-3
13:06:34:559050,-4,-10,0,0,-1,3,4,-3
13:06:34:559798,-3,1,-4,4,-3,-1,-5,-2
13:06:34:565792,-1,-8,-3,-5,11,4,-1,-5
13:06:34:581567,-1,-8,-3,-5,11,4,-1,-5
13:06:34:582425,2,-14,2,4,-10,-2,-1,6
13:06:34:588331,7,-7,-5,-1,-4,-7,-8,-13
13:06:34:604040,7,-7,-5,-1,-4,-7,-8,-13
13:06:34:604779,2,5,-2,-2,-11,5,25,1
13:06:34:610785,-2,-1,1,-5,-4,-7,-16,6
13:06:34:619051,-2,-1,1,-5,-4,-7,-16,6
13:06:34:619802,2,6,-3,-3,14,-8,-11,-10
13:06:34:633289,4,2,-3,-4,-5,-2,-1,-1
13:06:34:641602,4,2,-3,-4,-5,-2,-1,-1
13:06:34:642302,5,4,-2,-5,-17,-4,1,0
13:06:34:648292,6,20,-3,-9,18,-3,-4,-2
13:06:34:664055,6,20,-3,-9,18,-3,-4,-2
13:06:34:664790,17,-7,1,-5,-9,-2,5,-2
13:06:34:670796,3,-17,5,4,-9,5,-4,-2
13:06:34:679065,3,-17,5,4,-9,5,-4,-2
13:06:34:679800,-16,6,3,3,6,-3,-7,4
13:06:34:693463,-4,-1,-3,-6,25,6,17,7
13:06:34:701533,-4,-1,-3,-6,25,6,17,7
13:06:34:702287,-1,-5,-4,0,-4,-5,-13,-4
13:06:34:708313,17,18,1,-1,-14,1,-6,4
13:06:34:724058,17,18,1,-1,-14,1,-6,4
13:06:34:724817,-23,-28,0,-2,-1,-5,-5,-1
13:06:34:730795,0,-4,1,6,-11,-1,-11,-4
13:06:34:739071,0,-4,1,6,-11,-1,-11,-4
13:06:34:739826,1,7,3,0,-4,3,-2,-7
13:06:34:753323,0,-7,-4,-5,-20,-8,-4,-8
13:06:34:761540,0,-7,-4,-5,-20,-8,-4,-8
13:06:34:762278,-9,1,4,-2,8,6,5,-3
13:06:34:768290,-19,1,-3,-1,-6,1,20,-1
13:06:34:783927,-19,1,-3,-1,-6,1,20,-1
13:06:34:784789,-5,3,1,3,9,-2,-3,-3
13:06:34:790814,-21,-34,-4,2,7,-5,0,-4
13:06:34:799040,-21,-34,-4,2,7,-5,0,-4
13:06:34:799786,-15,-1,1,-1,-7,0,3,-5
13:06:34:813294,-8,-7,-4,-10,-7,-5,-6,0
13:06:34:821587,-8,-7,-4,-10,-7,-5,-6,0
13:06:34:822328,-2,6,0,-5,11,-1,8,-1
13:06:34:828295,9,-1,-2,1,1,-1,-18,2
13:06:34:844072,9,-1,-2,1,1,-1,-18,2
13:06:34:844820,-2,2,-3,-1,-1,10,10,0
13:06:34:850807,3,5,2,1,3,-4,-6,-2
13:06:34:859053,3,5,2,1,3,-4,-6,-2
13:06:34:859805,-4,0,-2,5,2,-3,-7,2
13:06:34:873321,-13,1,3,-1,-3,2,3,-2
13:06:34:881452,-13,1,3,-1,-3,2,3,-2
13:06:34:882307,0,-18,-3,-3,-12,-8,-4,0
13:06:34:888322,-1,2,-7,1,10,-3,-3,-5
13:06:34:904083,-1,2,-7,1,10,-3,-3,-5
13:06:34:904805,6,-9,-1,-1,9,-2,-4,12
13:06:34:910796,7,1,1,-2,-1,3,23,11
13:06:34:918921,7,1,1,-2,-1,3,23,11
13:06:34:919783,24,18,2,-2,0,0,-10,2
13:06:34:933300,6,11,4,-1,-2,0,0,-1
13:06:34:941585,6,11,4,-1,-2,0,0,-1
13:06:34:942484,4,1,-1,-5,-12,-2,-9,1
13:06:34:948330,2,-4,-11,-7,-4,-6,-25,3
13:06:34:964677,2,-4,-11,-7,-4,-6,-25,3
13:06:34:965445,-6,-1,-6,-3,47,-3,-17,-6
13:06:34:970820,-2,-15,-3,1,2,3,2,0
13:06:34:979052,-2,-15,-3,1,2,3,2,0
13:06:34:979796,-6,1,-1,4,-3,6,12,-4
13:06:34:993296,-8,12,11,1,5,-3,8,3
13:06:35:1558,-8,12,11,1,5,-3,8,3
13:06:35:2450,11,15,5,0,-13,-7,-2,-5
13:06:35:8325,1,1,-5,-3,-4,-2,-2,-3
13:06:35:24142,1,1,-5,-3,-4,-2,-2,-3
13:06:35:24842,8,-7,2,-2,-9,1,0,8
13:06:35:30812,-5,-8,2,1,32,2,-2,-4
13:06:35:39031,-5,-8,2,1,32,2,-2,-4
13:06:35:39803,-3,8,-6,-5,11,3,26,3
13:06:35:53303,1,4,3,3,-1,10,-4,-5
13:06:35:61557,1,4,3,3,-1,10,-4,-5
13:06:35:62423,-3,-2,-1,-2,-13,-3,-1,1
13:06:35:68286,7,9,-5,-5,-12,-1,3,-5
13:06:35:92203,7,9,-5,-5,-12,-1,3,-5
13:06:35:92958,-3,-4,-1,-5,-13,1,6,-4
13:06:35:93786,-16,-16,-1,-1,-13,0,-5,-3
13:06:35:99046,-16,-16,-1,-1,-13,0,-5,-3
13:06:35:99794,5,1,-4,-1,-2,-2,0,3
13:06:35:113314,-5,-1,1,-1,2,1,2,0
13:06:35:121548,-5,-1,1,-1,2,1,2,0
13:06:35:122276,2,-7,1,4,-7,-6,-8,-13
13:06:35:128304,7,-4,-1,1,3,-3,13,-1
13:06:35:143944,7,-4,-1,1,3,-3,13,-1
13:06:35:144813,1,5,1,0,0,-3,-9,-7
13:06:35:150806,5,-3,3,-2,-11,-2,6,-2
13:06:35:166547,5,-3,3,-2,-11,-2,6,-2
13:06:35:167415,8,2,1,-4,-2,4,1,8
13:06:35:173322,2,11,-5,-6,7,1,-4,5
13:06:35:181435,2,11,-5,-6,7,1,-4,5
13:06:35:182300,-10,0,-2,-1,-5,-3,-3,-3
13:06:35:188312,12,8,2,-1,-4,4,-3,-9
13:06:35:204081,12,8,2,-1,-4,4,-3,-9
13:06:35:204807,8,-5,1,0,-12,-9,1,2
13:06:35:210816,6,-1,-3,-3,-12,-3,1,-10
13:06:35:218927,6,-1,-3,-3,-12,-3,1,-10
13:06:35:219797,4,7,-4,-6,-27,1,8,-1
13:06:35:233285,-31,-11,0,0,-9,-5,-7,2
13:06:35:241593,-31,-11,0,0,-9,-5,-7,2
13:06:35:242426,3,0,-2,7,11,4,2,1
13:06:35:248310,-3,-10,1,4,3,-5,-4,-3
13:06:35:264066,-3,-10,1,4,3,-5,-4,-3
13:06:35:264830,-11,2,-1,2,13,-4,-8,-3
13:06:35:270838,-9,-8,0,6,5,-5,-7,-5
13:06:35:279073,-9,-8,0,6,5,-5,-7,-5
13:06:35:279797,0,-36,-7,1,31,-2,-11,0
13:06:35:293342,-7,-2,0,-3,-3,-1,9,1
13:06:35:301561,-7,-2,0,-3,-3,-1,9,1
13:06:35:302424,3,11,2,-9,-8,0,-9,-2
13:06:35:308325,-8,-8,-3,-3,6,1,-2,-2
13:06:35:324085,-8,-8,-3,-3,6,1,-2,-2
13:06:35:324837,5,7,4,-4,-5,3,-6,-6
13:06:35:330805,17,14,-4,-2,-3,-2,4,7
13:06:35:339084,17,14,-4,-2,-3,-2,4,7
13:06:35:339825,-10,-7,2,-1,-7,-6,-4,-3
13:06:35:353326,17,-20,-8,-7,-6,2,3,2
13:06:35:361564,17,-20,-8,-7,-6,2,3,2
13:06:35:362452,-2,0,-6,0,-1,4,-2,2
13:06:35:368338,-2,-8,-2,-3,-4,-4,-3,-2
13:06:35:384067,-2,-8,-2,-3,-4,-4,-3,-2
13:06:35:384865,-2,-7,2,2,-8,0,1,-6
13:06:35:390881,1,4,-2,-2,-1,-2,-7,3
13:06:35:399056,1,4,-2,-2,-1,-2,-7,3
13:06:35:399806,-7,3,-1,0,4,-2,1,-5
13:06:35:413810,-6,-9,1,-1,-8,-5,-6,-3
13:06:35:421585,-6,-9,1,-1,-8,-5,-6,-3
13:06:35:422344,-6,-7,0,-11,-5,-2,-19,1
13:06:35:428302,-2,17,2,-8,-7,7,-1,3
13:06:35:444079,-2,17,2,-8,-7,7,-1,3
13:06:35:444815,-2,-9,0,3,-2,-2,5,1
13:06:35:450818,-2,-7,0,4,12,3,-1,2
13:06:35:459075,-2,-7,0,4,12,3,-1,2
13:06:35:459822,2,5,4,4,1,-8,3,5
13:06:35:473301,-10,0,-1,-2,10,-4,0,-2
13:06:35:481545,-10,0,-1,-2,10,-4,0,-2
13:06:35:482298,8,1,-2,-1,1,0,8,-1
13:06:35:495795,5,4,2,3,1,-7,2,3
13:06:35:504091,5,4,2,3,1,-7,2,3
13:06:35:504831,1,0,7,6,8,-8,10,4
13:06:35:519690,8,20,-6,-4,-15,-2,-1,-6
13:06:35:520479,8,20,-6,-4,-15,-2,-1,-6
13:06:35:521328,-1,6,-2,-11,-10,6,1,-8
13:06:35:542204,-2,-3,-2,-2,1,4,8,0
13:06:35:542943,-2,-3,-2,-2,1,4,8,0
13:06:35:543800,-3,3,-2,1,-10,1,-2,5
13:06:35:548301,-8,2,-6,-6,-6,1,5,1
13:06:35:563811,-8,2,-6,-6,-6,1,5,1
13:06:35:571431,1,0,-1,-1,29,0,-1,5
13:06:35:572292,-2,-19,4,4,4,-5,-3,-3
13:06:35:578422,-2,-19,4,4,4,-5,-3,-3
13:06:35:585837,1,1,-4,-6,-7,-1,8,-2
13:06:35:593331,0,-9,0,0,-4,-4,-9,-4
13:06:35:601553,0,-9,0,0,-4,-4,-9,-4
13:06:35:602426,-8,-17,-4,-2,-14,-6,-2,2
13:06:35:615808,-1,8,-10,-6,16,6,18,7
13:06:35:624073,-1,8,-10,-6,16,6,18,7
13:06:35:624821,7,-16,-3,1,4,7,2,4
13:06:35:630800,6,4,4,1,-3,-8,-18,-4
13:06:35:638468,6,4,4,1,-3,-8,-18,-4
13:06:35:645821,3,20,-3,2,-7,0,-4,-6
13:06:35:653296,2,7,3,3,5,2,1,2
13:06:35:661420,2,7,3,3,5,2,1,2
13:06:35:662299,-7,8,-5,-11,-16,4,-8,-8
13:06:35:675813,-2,-13,-6,0,-3,-5,-8,-1
13:06:35:692183,-2,-13,-6,0,-3,-5,-8,-1
13:06:35:692941,-9,-6,-2,-1,3,-4,0,4
13:06:35:693790,4,10,10,0,0,1,12,0
13:06:35:698416,4,10,10,0,0,1,12,0
13:06:35:713965,3,9,-3,-6,-10,-1,-10,-11
13:06:35:714813,3,0,1,-2,-2,-1,-9,-11
13:06:35:721587,3,0,1,-2,-2,-1,-9,-11
13:06:35:722296,2,5,1,-2,15,0,-6,-5
13:06:35:736436,-10,11,2,-2,-4,1,-5,-2
13:06:35:737346,-10,11,2,-2,-4,1,-5,-2
13:06:35:743300,-7,-14,-15,-20,-16,3,-9,-17
13:06:35:758943,-2,0,1,0,-4,-3,-5,7
13:06:35:759823,-2,0,1,0,-4,-3,-5,7
13:06:35:765809,3,-5,17,22,20,-12,7,14
13:06:35:782196,5,10,0,0,-5,-3,-1,-4
13:06:35:782926,5,10,0,0,-5,-3,-1,-4
13:06:35:783816,-1,3,-5,-10,-7,2,13,-9
13:06:35:796588,-9,3,-8,-9,-8,3,6,-6
13:06:35:797466,-9,3,-8,-9,-8,3,6,-6
13:06:35:803320,-1,19,-3,-6,-15,-2,-6,0
13:06:35:810809,16,9,-6,-5,-6,-2,-6,-5
13:06:35:818329,16,9,-6,-5,-6,-2,-6,-5
13:06:35:825812,5,1,8,13,14,0,17,18
13:06:35:833301,-19,-31,-4,-2,-7,0,-6,1
13:06:35:841562,-19,-31,-4,-2,-7,0,-6,1
13:06:35:842318,3,7,5,4,2,0,3,4
13:06:35:856464,-15,-4,1,6,6,0,3,1
13:06:35:857314,-15,-4,1,6,6,0,3,1
13:06:35:863307,-7,-22,-6,-5,-10,-6,-19,-3
13:06:35:870817,9,-6,-2,-3,-13,-10,-11,-3
13:06:35:878457,9,-6,-2,-3,-13,-10,-11,-3
13:06:35:893966,-7,-17,-4,-2,-11,-2,6,-13
13:06:35:894803,10,-2,-6,-7,4,1,-3,-2
13:06:35:901426,10,-2,-6,-7,4,1,-3,-2
13:06:35:902298,0,-7,0,-2,3,0,-7,-3
13:06:35:916431,-3,-11,6,8,5,-6,14,14
13:06:35:917305,-3,-11,6,8,5,-6,14,14
13:06:35:923334,-21,3,1,-1,5,1,4,4
13:06:35:930820,-6,-5,-4,-3,0,1,0,-1
13:06:35:938310,-6,-5,-4,-3,0,1,0,-1
13:06:35:945817,10,10,-4,-6,-2,-1,-4,0
13:06:35:953312,-26,5,0,-2,4,-2,-2,2
13:06:35:961542,-26,5,0,-2,4,-2,-2,2
13:06:35:962298,2,22,5,5,27,8,3,-1
13:06:35:976439,16,30,-1,-6,5,1,-15,-2
13:06:35:977293,16,30,-1,-6,5,1,-15,-2
13:06:35:983308,-1,-6,4,3,1,-3,-6,-4
13:06:35:990858,-19,-26,14,14,13,-4,-5,-9
13:06:35:998437,-19,-26,14,14,13,-4,-5,-9
13:06:36:5803,12,-13,0,2,-1,-5,-13,2
13:06:36:13311,12,-5,-7,0,-9,-6,-6,1
13:06:36:21590,12,-5,-7,0,-9,-6,-6,1
13:06:36:22346,-8,-6,-5,-3,-2,7,16,-3
13:06:36:36445,11,4,-1,-4,7,0,2,1
13:06:36:37316,11,4,-1,-4,7,0,2,1
13:06:36:43317,14,13,3,0,-20,2,-1,-7
13:06:36:50806,2,-14,-10,-7,-5,3,23,-1
13:06:36:58503,2,-14,-10,-7,-5,3,23,-1
13:06:36:65823,-15,2,0,-5,0,-5,-12,1
13:06:36:73310,-2,-8,0,3,1,-1,-3,3
13:06:36:81569,-2,-8,0,3,1,-1,-3,3
13:06:36:82419,-5,-1,1,-4,0,0,-1,1
13:06:36:96610,-10,9,0,-1,-2,2,2,1
13:06:36:97309,-10,9,0,-1,-2,2,2,1
13:06:36:103305,9,-2,1,5,-6,1,20,17
13:06:36:118971,-5,6,7,7,-9,-4,-7,0
13:06:36:119835,-5,6,7,7,-9,-4,-7,0
13:06:36:125819,4,-2,1,8,-11,-14,-25,-6
13:06:36:133305,10,-4,-4,-5,1,2,-6,1
13:06:36:141604,10,-4,-4,-5,1,2,-6,1
13:06:36:142319,2,-10,-6,0,11,-2,-5,-4
13:06:36:156446,7,3,2,0,2,4,-7,-11
13:06:36:157326,7,3,2,0,2,4,-7,-11
13:06:36:163330,-8,-11,-5,-6,3,-3,-13,-9
13:06:36:170847,-6,-13,1,-2,0,-6,-8,0
13:06:36:178438,-6,-13,1,-2,0,-6,-8,0
13:06:36:185811,4,13,5,-4,6,6,2,-1
13:06:36:193354,3,3,-1,0,5,-2,6,6
13:06:36:201575,3,3,-1,0,5,-2,6,6
13:06:36:202429,-12,-16,-3,-1,-9,0,30,20
13:06:36:216580,-7,12,2,-7,-6,3,-2,-6
13:06:36:217441,-7,12,2,-7,-6,3,-2,-6
13:06:36:223342,-16,-19,2,5,11,-8,-7,-6
13:06:36:230826,17,-1,-1,-1,0,-5,-6,-7
13:06:36:238503,17,-1,-1,-1,0,-5,-6,-7
13:06:36:245815,11,25,-5,-16,-16,4,-9,-14
13:06:36:253309,-4,4,-2,1,2,-13,-15,1
13:06:36:261434,-4,4,-2,1,2,-13,-15,1
13:06:36:262321,-15,-31,-2,3,5,-1,2,3
13:06:36:276599,-1,-9,-4,-2,19,-4,-8,-5
13:06:36:277431,-1,-9,-4,-2,19,-4,-8,-5
13:06:36:283318,1,-3,-9,-2,-3,-1,9,1
13:06:36:290810,-27,-11,-8,-7,-13,7,20,-2
13:06:36:298315,-27,-11,-8,-7,-13,7,20,-2
13:06:36:305873,10,13,-2,-7,10,-6,-10,-14
13:06:36:313307,0,11,2,0,-15,3,5,1
13:06:36:321571,0,11,2,0,-15,3,5,1
13:06:36:322408,-16,40,7,-8,-6,6,-1,0
13:06:36:336437,-8,11,4,0,-1,0,11,4
13:06:36:337329,-8,11,4,0,-1,0,11,4
13:06:36:343312,-21,-25,-3,8,5,-1,6,1
13:06:36:350801,2,8,-5,-12,-18,0,-4,-4
13:06:36:358509,2,8,-5,-12,-18,0,-4,-4
13:06:36:365814,15,1,-4,-1,-5,-2,-14,-3
13:06:36:373362,12,-43,0,2,2,-1,6,-4
13:06:36:381584,12,-43,0,2,2,-1,6,-4
13:06:36:382321,15,-2,4,2,-2,1,7,6
13:06:36:396936,-4,-14,-7,8,14,-4,-7,-1
13:06:36:397816,-4,-14,-7,8,14,-4,-7,-1
13:06:36:403360,2,6,-1,0,-5,-2,-4,-5
13:06:36:418958,-20,-42,-1,3,6,0,7,8
13:06:36:419802,-20,-42,-1,3,6,0,7,8
13:06:36:425831,5,31,2,-2,1,-2,1,0
13:06:36:441222,-3,-7,-10,-9,-3,8,-5,6
13:06:36:448950,-3,-7,-10,-9,-3,8,-5,6
13:06:36:449810,8,-23,-7,0,-2,-2,2,-2
13:06:36:456453,2,7,-4,-8,-1,0,-3,-2
13:06:36:457338,2,7,-4,-8,-1,0,-3,-2
13:06:36:463329,-7,-10,-4,-6,-3,8,-4,4
13:06:36:478956,8,30,4,7,-3,-1,-1,-7
13:06:36:479823,8,30,4,7,-3,-1,-1,-7
13:06:36:485833,8,10,6,0,-2,-5,-2,-5
13:06:36:502192,-5,-8,-2,-6,0,-6,-13,-9
13:06:36:502969,-5,-8,-2,-6,0,-6,-13,-9
13:06:36:503808,10,-13,1,-2,9,-4,4,13
13:06:36:517567,14,13,7,1,1,-2,-5,-3
13:06:36:531586,14,13,7,1,1,-2,-5,-3
13:06:36:532309,-10,-23,-2,1,0,-4,-2,-5
13:06:36:539085,-15,14,-5,1,2,4,-2,-9
13:06:36:539841,-15,14,-5,1,2,4,-2,-9
13:06:36:553929,-1,11,0,-7,0,1,5,6
13:06:36:554843,10,7,-3,-9,-6,4,2,-4
13:06:36:560818,10,7,-3,-9,-6,4,2,-4
13:06:36:568325,-7,7,4,6,-1,2,2,-4
13:06:36:576461,15,34,8,-3,-4,0,2,3
13:06:36:577307,15,34,8,-3,-4,0,2,3
13:06:36:583312,-1,-15,4,0,0,0,-1,0
13:06:36:599059,-2,7,0,7,-2,2,-2,0
13:06:36:599796,-2,7,0,7,-2,2,-2,0
13:06:36:605849,-11,-1,-1,1,5,-7,-14,-12
13:06:36:613346,9,5,9,12,15,0,10,17
13:06:36:620913,9,5,9,12,15,0,10,17
13:06:36:628312,-2,-3,-3,-1,-1,-2,0,-5
13:06:36:636477,3,0,-7,-10,-9,-2,-3,-6
13:06:36:637311,3,0,-7,-10,-9,-2,-3,-6
13:06:36:643312,3,-16,13,18,19,-8,1,10
13:06:36:658962,-18,-34,10,8,7,-7,6,6
13:06:36:659833,-18,-34,10,8,7,-7,6,6
13:06:36:665816,-24,-21,-17,-18,-21,4,-7,-15
13:06:36:673351,-9,-20,-9,-2,6,-8,-4,1
13:06:36:680815,-9,-20,-9,-2,6,-8,-4,1
13:06:36:688330,0,27,-19,-24,-27,13,-2,-22
13:06:36:696451,-14,-14,-6,-13,-15,4,-4,-18
13:06:36:697339,-14,-14,-6,-13,-15,4,-4,-18
13:06:36:703325,7,20,-3,-7,-9,-3,-8,0
13:06:36:718950,2,11,-1,-3,4,-2,-1,-3
13:06:36:719818,2,11,-1,-3,4,-2,-1,-3
13:06:36:725852,5,-7,9,10,7,-5,4,9
13:06:36:733313,10,28,9,12,-5,-5,-12,-4
13:06:36:740841,10,28,9,12,-5,-5,-12,-4
13:06:36:748317,-6,7,7,11,8,1,5,27
13:06:36:756458,-9,4,-8,-1,5,3,5,3
13:06:36:757328,-9,4,-8,-1,5,3,5,3
13:06:36:763326,6,14,-11,-26,-22,14,-3,-21
13:06:36:778966,-11,-24,-5,-4,-4,-3,-7,-2
13:06:36:779812,-11,-24,-5,-4,-4,-3,-7,-2
13:06:36:785828,3,19,-6,-10,-4,1,-1,0
13:06:36:793345,8,1,-1,-13,-11,-5,-7,-9
13:06:36:800839,8,1,-1,-13,-11,-5,-7,-9
13:06:36:808351,3,-61,-11,15,22,-11,4,5
13:06:36:816560,11,11,2,0,1,4,3,8
13:06:36:817440,11,11,2,0,1,4,3,8
13:06:36:823366,-1,-6,-9,3,6,-7,0,-2
13:06:36:839096,-7,-18,1,6,4,-8,-6,-4
13:06:36:839801,-7,-18,1,6,4,-8,-6,-4
13:06:36:845832,-8,-10,-2,-3,-6,-1,-3,-8
13:06:36:853374,-27,-17,-22,-34,-38,16,-5,-18
13:06:36:860859,-27,-17,-22,-34,-38,16,-5,-18
13:06:36:877195,3,-1,3,2,0,3,-2,8
13:06:36:877926,-3,-42,-11,-7,2,-2,3,-6
13:06:36:878833,-3,-42,-11,-7,2,-2,3,-6
13:06:36:883331,-16,22,-10,-30,-33,21,-12,-23
13:06:36:898958,21,2,31,47,53,-28,11,33
13:06:36:899827,21,2,31,47,53,-28,11,33
13:06:36:905856,1,-14,-7,-18,-7,2,-4,-23
13:06:36:913325,4,20,7,3,-9,8,2,17
13:06:36:920852,4,20,7,3,-9,8,2,17
13:06:36:928304,-13,3,-11,-23,-19,7,-8,-16
13:06:36:936440,-34,3,-5,-15,-5,0,0,1
13:06:36:937296,-34,3,-5,-15,-5,0,0,1
13:06:36:943316,0,-33,-16,14,13,-17,1,-1
13:06:36:959074,16,17,-2,-6,-5,5,1,-10
13:06:36:959833,16,17,-2,-6,-5,5,1,-10
13:06:36:965820,-7,26,8,20,0,6,-2,22
13:06:36:981453,9,-2,19,29,25,-17,2,6
13:06:36:982318,9,-2,19,29,25,-17,2,6
13:06:36:988338,-13,-14,-21,-26,-19,5,-2,-22
13:06:36:996575,12,-54,6,29,33,-8,9,31
13:06:36:997330,12,-54,6,29,33,-8,9,31
13:06:37:3321,9,-8,39,42,45,-20,7,25
13:06:37:19731,-13,0,-26,-45,-40,9,-11,-29
13:06:37:20463,-13,0,-26,-45,-40,9,-11,-29
13:06:37:25820,5,30,1,-8,0,-4,4,8
13:06:37:33325,35,55,-8,-30,-31,14,-13,-34
13:06:37:40857,35,55,-8,-30,-31,14,-13,-34
13:06:37:56468,2,4,1,13,12,-11,5,7
13:06:37:57342,1,-6,-1,9,9,-8,3,13
13:06:37:64080,1,-6,-1,9,9,-8,3,13
13:06:37:64819,-7,14,-16,-24,-21,5,-6,-9
13:06:37:79451,-7,-26,-24,-19,-17,5,-3,-9
13:06:37:80306,-7,-26,-24,-19,-17,5,-3,-9
13:06:37:85833,-14,37,-45,-83,-91,39,-11,-78
13:06:37:101460,5,2,23,26,32,-18,-4,8
13:06:37:102336,5,2,23,26,32,-18,-4,8
13:06:37:108362,-14,-17,20,27,28,-18,7,12
13:06:37:124721,1,12,6,-12,-19,14,2,-1
13:06:37:125455,1,12,6,-12,-19,14,2,-1
13:06:37:126354,6,-31,12,22,17,-8,-3,21
13:06:37:138952,-1,5,30,34,33,-12,8,24
13:06:37:139815,-1,5,30,34,33,-12,8,24
13:06:37:145824,15,-6,23,18,19,-10,5,12
13:06:37:153331,-20,-10,-7,-11,-16,-3,0,-15
13:06:37:160807,-20,-10,-7,-11,-16,-3,0,-15
13:06:37:168330,4,-14,3,16,22,-7,5,17
13:06:37:184711,-2,4,1,-1,-2,6,4,3
13:06:37:185456,-2,4,1,-1,-2,6,4,3
13:06:37:186328,13,-27,5,17,18,-7,12,16
13:06:37:207094,5,8,-6,-5,-6,-2,-3,-2
13:06:37:207955,5,8,-6,-5,-6,-2,-3,-2
13:06:37:208857,6,5,3,10,5,-3,-2,6
13:06:37:213310,2,-3,10,29,37,-10,2,15
13:06:37:220835,2,-3,10,29,37,-10,2,15
13:06:37:228334,5,1,16,17,28,-9,16,25
13:06:37:235811,-18,-13,-12,-14,-21,8,-10,-7
13:06:37:243957,-18,-13,-12,-14,-21,8,-10,-7
13:06:37:244826,-2,15,10,18,17,-12,-6,2
13:06:37:258975,1,12,-3,-7,-6,-1,-2,-13
13:06:37:259847,1,12,-3,-7,-6,-1,-2,-13
13:06:37:265803,-10,5,-7,-16,-14,-1,-7,-6
13:06:37:273336,9,11,6,8,8,-7,4,7
13:06:37:280851,9,11,6,8,8,-7,4,7
13:06:37:288307,-6,17,-16,-35,-43,21,-11,-19
13:06:37:295837,-8,-4,-6,0,-1,-3,2,-3
13:06:37:304097,-8,-4,-6,0,-1,-3,2,-3
13:06:37:304824,-2,2,-13,-10,-9,1,-5,-15
13:06:37:318951,6,11,-8,-12,-13,7,0,-2
13:06:37:319824,6,11,-8,-12,-13,7,0,-2
13:06:37:333947,0,10,-5,-13,-13,0,-12,-12
13:06:37:334812,-11,-4,-11,-19,-21,8,-6,-8
13:06:37:340848,-11,-4,-11,-19,-21,8,-6,-8
13:06:37:356440,18,8,2,5,8,-3,5,8
13:06:37:357341,-1,5,-16,-39,-25,9,0,-21
13:06:37:364099,-1,5,-16,-39,-25,9,0,-21
13:06:37:364812,16,3,16,20,22,-18,1,7
13:06:37:378976,18,7,1,6,13,-5,2,5
13:06:37:379818,18,7,1,6,13,-5,2,5
13:06:37:385827,-18,-58,-7,-2,-3,7,-6,-3
13:06:37:393357,-9,-2,3,2,-7,0,5,2
13:06:37:400820,-9,-2,3,2,-7,0,5,2
13:06:37:408308,2,11,1,2,-4,-1,-4,-3
13:06:37:415843,-12,-14,-1,2,7,4,0,7
13:06:37:423953,-12,-14,-1,2,7,4,0,7
13:06:37:424818,-24,1,2,-2,-5,1,4,-1
13:06:37:439045,-1,9,-4,-12,-9,1,-3,-9
13:06:37:439883,-1,9,-4,-12,-9,1,-3,-9
13:06:37:445873,5,-23,14,16,24,-9,3,16
13:06:37:461977,14,11,-5,10,9,-14,-2,5
13:06:37:462701,14,11,-5,10,9,-14,-2,5
13:06:37:468323,-10,14,-9,-4,-3,-4,-7,-10
13:06:37:483947,0,17,0,2,14,-9,-3,9
13:06:37:484872,0,17,0,2,14,-9,-3,9
13:06:37:490860,4,14,4,-12,4,4,9,10
13:06:37:507257,-6,-22,4,15,9,-3,-6,1
13:06:37:507977,-6,-22,4,15,9,-3,-6,1
13:06:37:508824,-4,6,-18,-22,-29,14,-7,-14
13:06:37:521430,-9,2,-10,-28,-27,14,-2,-13
13:06:37:522322,-9,2,-10,-28,-27,14,-2,-13
13:06:37:528351,-12,-3,1,2,3,-4,3,0
13:06:37:535861,-11,-29,-1,10,5,-5,-3,-2
13:06:37:543480,-11,-29,-1,10,5,-5,-3,-2
13:06:37:550826,13,-6,4,11,10,-4,5,8
13:06:37:558945,13,16,-1,-2,1,-5,-3,-5
13:06:37:559854,13,16,-1,-2,1,-5,-3,-5
13:06:37:565814,1,0,-2,-6,-3,-3,0,2
13:06:37:581455,-29,-19,-5,-4,-4,1,-4,-14
13:06:37:582318,-29,-19,-5,-4,-4,1,-4,-14
13:06:37:588314,10,-2,6,4,1,-5,-3,3
13:06:37:595831,5,-30,-3,-3,0,0,6,2
13:06:37:603448,5,-30,-3,-3,0,0,6,2
13:06:37:610856,-6,15,2,6,1,-5,-5,-1
13:06:37:619080,6,17,5,2,-4,0,-1,0
13:06:37:619828,6,17,5,2,-4,0,-1,0
13:06:37:625824,5,-5,-9,-13,-3,1,-3,-3
13:06:37:641486,6,-1,12,11,-1,3,2,3
13:06:37:642319,6,-1,12,11,-1,3,2,3
13:06:37:648335,7,-1,-1,3,4,1,-1,-2
13:06:37:663964,2,1,5,-1,-6,4,2,7
13:06:37:664840,2,1,5,-1,-6,4,2,7
13:06:37:670816,-11,-52,-15,2,4,-6,6,-6
13:06:37:678959,11,14,2,-2,0,-5,-2,-4
13:06:37:679824,11,14,2,-2,0,-5,-2,-4
13:06:37:685826,-3,11,12,-4,-6,5,-3,5
13:06:37:701478,-5,-2,1,0,2,-3,0,0
13:06:37:702345,-5,-2,1,0,2,-3,0,0
13:06:37:708385,-8,8,2,-4,-9,1,0,-5
13:06:37:715812,6,12,-3,-1,1,1,-4,-4
13:06:37:723503,6,12,-3,-1,1,1,-4,-4
13:06:37:730832,6,16,-2,-3,0,-4,-10,-7
13:06:37:738997,0,-6,0,-7,2,4,8,5
13:06:37:739850,0,-6,0,-7,2,4,8,5
13:06:37:745852,1,2,-9,-1,2,-5,-3,-6
13:06:37:761589,-6,-1,4,-7,6,5,6,4
13:06:37:762327,-6,-1,4,-7,6,5,6,4
13:06:37:768330,9,10,0,1,-1,1,6,1
13:06:37:775841,5,10,-6,0,-6,-1,-1,0
13:06:37:783323,5,10,-6,0,-6,-1,-1,0
13:06:37:790860,-2,-26,-4,4,5,-5,-3,0
13:06:37:798950,1,-19,-6,3,-3,-7,-8,-1
13:06:37:799846,1,-19,-6,3,-3,-7,-8,-1
13:06:37:805845,-15,-20,2,4,-4,-1,0,-1
13:06:37:821492,-32,-19,-8,2,-1,-8,-8,-10
13:06:37:822364,-32,-19,-8,2,-1,-8,-8,-10
13:06:37:828364,11,1,4,-9,6,-3,-7,6
13:06:37:835850,-15,19,10,-5,-6,1,5,3
13:06:37:843375,-15,19,10,-5,-6,1,5,3
13:06:37:850830,8,7,-2,-4,-5,3,3,5
13:06:37:858955,4,9,0,5,-4,-1,-2,-3
13:06:37:859834,4,9,0,5,-4,-1,-2,-3
13:06:37:865832,1,0,-3,-1,-2,3,-1,-5
13:06:37:881458,10,-10,-7,-9,-9,-6,-3,-4
13:06:37:882332,10,-10,-7,-9,-9,-6,-3,-4
13:06:37:888355,6,-12,-6,-4,-4,-6,-3,2
13:06:37:903974,6,-12,-6,-4,-4,-6,-3,2
13:06:37:904828,1,4,0,-2,-2,0,2,0
13:06:37:910828,2,8,3,-1,4,-3,4,1
13:06:37:918976,2,8,3,-1,4,-3,4,1
13:06:37:919821,2,10,-5,-7,-6,-4,-3,-6
13:06:37:925821,-8,-20,-2,0,-6,-1,4,2
13:06:37:941476,-8,-20,-2,0,-6,-1,4,2
13:06:37:942320,3,-8,-4,1,4,-2,-3,-6
13:06:37:948387,-5,-12,-15,-19,6,1,-7,-12
13:06:37:964079,-5,-12,-15,-19,6,1,-7,-12
13:06:37:964827,2,-2,1,-2,0,3,3,3
13:06:37:970836,-11,0,3,11,3,2,16,0
13:06:37:978969,-11,0,3,11,3,2,16,0
13:06:37:979834,0,9,9,3,3,-1,-3,-3
13:06:37:985835,7,-6,-2,14,8,-5,-7,-5
13:06:38:1500,7,-6,-2,14,8,-5,-7,-5
13:06:38:2354,5,0,1,6,-1,0,1,3
13:06:38:8365,-9,21,-2,-1,-2,-1,2,3
13:06:38:24478,-9,21,-2,-1,-2,-1,2,3
13:06:38:25221,-8,-14,-6,-1,1,-2,-2,0
13:06:38:30834,-22,-19,0,-3,4,0,-3,3
13:06:38:39024,-22,-19,0,-3,4,0,-3,3
13:06:38:39858,7,3,2,-1,4,-1,0,0
13:06:38:45845,6,4,-1,-2,-6,-2,-3,-3
13:06:38:61594,6,4,-1,-2,-6,-2,-3,-3
13:06:38:62333,-4,-15,-5,-6,6,1,-1,-2
13:06:38:68345,9,26,9,-3,-6,0,0,2
13:06:38:84079,9,26,9,-3,-6,0,0,2
13:06:38:84869,6,8,-1,-3,0,1,0,-1
13:06:38:90840,-19,-10,2,3,-9,-5,-10,-5
13:06:38:98953,-19,-10,2,3,-9,-5,-10,-5
13:06:38:99862,-3,-19,4,5,2,0,-7,2
13:06:38:105827,7,-1,-4,2,-1,0,-6,-6
13:06:38:121643,7,-1,-4,2,-1,0,-6,-6
13:06:38:122388,-25,-13,-7,-6,-4,0,4,0
13:06:38:128343,15,-11,-9,1,5,-4,-2,1
13:06:38:144113,15,-11,-9,1,5,-4,-2,1
13:06:38:144835,3,22,-2,1,0,-2,-3,-6
13:06:38:150832,-3,5,1,4,-2,0,1,5
13:06:38:159090,-3,5,1,4,-2,0,1,5
13:06:38:159866,10,-6,-1,-5,4,1,0,0
13:06:38:165839,13,-4,3,-5,0,2,-2,0
13:06:38:181590,13,-4,3,-5,0,2,-2,0
13:06:38:182317,8,2,0,-3,-11,0,-11,-3
13:06:38:188319,-9,7,6,-3,-1,-1,0,1
13:06:38:203998,-9,7,6,-3,-1,-1,0,1
13:06:38:204850,-9,-5,3,1,2,-4,4,-3
13:06:38:210832,-7,1,-9,-5,-5,0,0,-1
13:06:38:219098,-7,1,-9,-5,-5,0,0,-1
13:06:38:219845,-17,11,1,1,2,-4,-9,-8
13:06:38:225831,14,11,0,1,-5,0,2,-2
13:06:38:241613,14,11,0,1,-5,0,2,-2
13:06:38:242351,-7,-8,-3,3,2,-2,-2,-4
13:06:38:248336,2,0,4,-4,-2,1,4,7
13:06:38:263964,2,0,4,-4,-2,1,4,7
13:06:38:264830,19,15,-1,-3,4,-4,-3,-1
13:06:38:270861,3,10,3,3,-3,-2,2,-7
13:06:38:279091,3,10,3,3,-3,-2,2,-7
13:06:38:279830,3,-14,-2,3,0,-3,-6,-6
13:06:38:285833,-5,6,2,3,5,-1,1,-2
13:06:38:301469,-5,6,2,3,5,-1,1,-2
13:06:38:302334,-4,-8,-6,-3,-4,1,-6,0
13:06:38:308331,-3,-3,-3,-5,-4,5,10,3
13:06:38:323977,-3,-3,-3,-5,-4,5,10,3
13:06:38:324844,-11,-4,-4,-9,-8,9,12,13
13:06:38:330841,-44,-5,1,4,3,-5,-10,-1
13:06:38:338984,-44,-5,1,4,3,-5,-10,-1
13:06:38:339845,10,-3,2,1,2,-3,3,7
13:06:38:345836,-4,-13,-6,-11,1,-3,-3,-6
13:06:38:361217,-4,-13,-6,-11,1,-3,-3,-6
13:06:38:368952,-1,42,5,4,-11,-2,-1,-9
13:06:38:369699,15,-8,-7,-13,-10,-1,-4,0
13:06:38:383967,15,-8,-7,-13,-10,-1,-4,0
13:06:38:384829,14,10,2,-5,-1,2,14,-2
13:06:38:390843,-9,-1,-1,1,2,-2,7,-1
13:06:38:398951,-9,-1,-1,1,2,-2,7,-1
13:06:38:399827,2,-11,2,4,0,-3,-1,-1
13:06:38:413336,11,-1,0,-2,0,-2,-6,-8
13:06:38:421523,11,-1,0,-2,0,-2,-6,-8
13:06:38:422374,-5,-12,-4,-1,2,7,7,-8
13:06:38:428328,9,8,4,-1,0,3,4,-1
13:06:38:443958,9,8,4,-1,0,3,4,-1
13:06:38:444820,17,-6,-5,-9,-1,-4,-2,2
13:06:38:450849,19,5,-1,5,-3,2,0,4
13:06:38:458966,19,5,-1,5,-3,2,0,4
13:06:38:459844,5,-4,-2,-7,-4,-2,2,7
13:06:38:473333,-6,7,-1,3,2,-4,-11,-4
13:06:38:481471,-6,7,-1,3,2,-4,-11,-4
13:06:38:482333,-36,-4,3,3,1,-7,-8,4
13:06:38:488336,-1,9,2,8,6,-6,-14,-8
13:06:38:504095,-1,9,2,8,6,-6,-14,-8
13:06:38:504833,-5,-3,2,4,-3,-1,-8,-2
13:06:38:510895,-3,-19,-6,-3,2,1,-3,-2
13:06:38:518973,-3,-19,-6,-3,2,1,-3,-2
13:06:38:519821,3,-7,-1,-1,-14,-4,11,-6
13:06:38:533330,20,1,0,-6,-39,5,8,5
13:06:38:541455,20,1,0,-6,-39,5,8,5
13:06:38:542345,-6,4,1,4,-14,-3,-18,-3
13:06:38:548344,-12,-17,-2,-3,6,-14,-10,-13
13:06:38:564103,-12,-17,-2,-3,6,-14,-10,-13
13:06:38:564834,1,-3,-1,-1,10,9,12,3
13:06:38:570844,2,4,-4,-10,12,-3,-6,-10
13:06:38:578949,2,4,-4,-10,12,-3,-6,-10
13:06:38:579817,-20,-15,-2,-1,0,9,1,-10
13:06:38:593388,-9,6,-2,-1,-5,9,5,9
13:06:38:601582,-9,6,-2,-1,-5,9,5,9
13:06:38:602342,3,5,-2,5,20,0,7,-5
13:06:38:608437,-14,-2,3,1,12,5,5,-2
13:06:38:624108,-14,-2,3,1,12,5,5,-2
13:06:38:624872,-4,-15,-2,-7,-5,-8,-9,-1
13:06:38:630835,8,12,0,-9,1,-14,-22,-6
13:06:38:639136,8,12,0,-9,1,-14,-22,-6
13:06:38:639854,-2,-3,2,2,20,-1,-7,-1
13:06:38:653333,1,-6,-1,2,-4,-9,-1,2
13:06:38:661605,1,-6,-1,2,-4,-9,-1,2
13:06:38:662340,15,3,-5,-6,-6,-15,-25,11
13:06:38:668347,-12,2,0,3,4,0,10,7
13:06:38:683956,-12,2,0,3,4,0,10,7
13:06:38:684829,7,16,3,-3,-9,5,6,-2
13:06:38:690843,-3,-9,1,1,-2,8,-2,-6
13:06:38:699098,-3,-9,1,1,-2,8,-2,-6
13:06:38:699821,24,9,-4,-5,0,0,0,-5
13:06:38:713339,-15,-2,-10,-1,-9,-6,-4,-2
13:06:38:721628,-15,-2,-10,-1,-9,-6,-4,-2
13:06:38:722368,-8,-10,0,-1,-2,14,32,2
13:06:38:728327,4,-12,2,5,-4,-3,-7,-2
13:06:38:735852,4,-12,2,5,-4,-3,-7,-2
13:06:38:743364,-10,-4,-6,-2,-21,-14,-4,9
13:06:38:750837,-33,-8,1,0,9,6,12,-12
13:06:38:758996,-33,-8,1,0,9,6,12,-12
13:06:38:759860,-6,0,-4,-7,11,-1,14,2
13:06:38:773373,3,-3,-2,-2,7,-2,-15,3
13:06:38:781649,3,-3,-2,-2,7,-2,-15,3
13:06:38:782368,-10,-2,-1,4,5,6,1,-5
13:06:38:788382,25,14,1,-5,-2,0,17,3
13:06:38:795830,25,14,1,-5,-2,0,17,3
13:06:38:803359,-18,-10,-7,-3,-6,1,1,-3
13:06:38:810883,1,5,4,0,-7,-3,-12,0
13:06:38:818982,1,5,4,0,-7,-3,-12,0
13:06:38:819843,-6,-15,2,2,0,-5,-15,-9
13:06:38:833337,4,16,0,-6,1,5,5,-1
13:06:38:841480,4,16,0,-6,1,5,5,-1
13:06:38:842349,-2,-16,-7,-3,1,0,7,-4
13:06:38:848327,23,-13,1,-1,-9,5,19,7
13:06:38:864096,23,-13,1,-1,-9,5,19,7
13:06:38:864847,20,10,-8,-5,-11,-6,-10,-2
13:06:38:870843,7,0,1,4,8,22,29,14
13:06:38:878974,7,0,1,4,8,22,29,14
13:06:38:879845,3,-5,-2,-7,2,1,-9,5
13:06:38:893369,-11,-13,-11,-11,0,-9,-13,-4
13:06:38:901479,-11,-13,-11,-11,0,-9,-13,-4
13:06:38:902351,10,31,8,0,-6,-2,10,6
13:06:38:908343,-3,5,-5,-6,-6,-3,-9,1
13:06:38:924143,-3,5,-5,-6,-6,-3,-9,1
13:06:38:924856,5,-16,3,4,-3,-9,-18,-2
13:06:38:930824,-15,-20,-8,1,5,-4,-13,0
13:06:38:939006,-15,-20,-8,1,5,-4,-13,0
13:06:38:939845,3,21,-1,1,6,-1,7,0
13:06:38:953502,6,1,6,4,-7,-3,-1,-2
13:06:38:961620,6,1,6,4,-7,-3,-1,-2
13:06:38:962366,3,12,6,2,7,3,-5,3
13:06:38:968361,-6,11,5,6,3,-5,-16,-7
13:06:38:983985,-6,11,5,6,3,-5,-16,-7
13:06:38:984866,-6,2,-3,-6,0,-2,-4,-3
13:06:38:990895,2,4,-7,-11,-3,1,-2,4
13:06:38:999077,2,4,-7,-11,-3,1,-2,4
13:06:38:999847,3,-1,1,-4,-6,-1,-7,-5
13:06:39:13336,0,10,-1,0,-2,-8,-6,-6
13:06:39:21492,0,10,-1,0,-2,-8,-6,-6
13:06:39:22362,-8,-13,-1,-2,-2,0,3,-5
13:06:39:28341,-11,-5,3,2,5,4,18,1
13:06:39:44500,-11,-5,3,2,5,4,18,1
13:06:39:51449,2,1,0,1,-4,-1,-5,0
13:06:39:52209,5,2,-5,-5,-7,-2,-6,-6
13:06:39:59085,5,2,-5,-5,-7,-2,-6,-6
13:06:39:59846,-1,3,3,1,2,3,-4,-5
13:06:39:73373,-1,-12,-3,0,1,1,-4,4
13:06:39:81482,-1,-12,-3,0,1,1,-4,4
13:06:39:82361,14,3,-2,-5,2,-9,-7,-2
13:06:39:88371,9,9,-5,-3,-2,2,3,0
13:06:39:104008,9,9,-5,-3,-2,2,3,0
13:06:39:104876,-1,-2,-7,2,-2,0,-4,4
13:06:39:110852,4,18,4,-2,-3,-3,-3,4
13:06:39:118995,4,18,4,-2,-3,-3,-3,4
13:06:39:119866,-4,13,4,0,2,3,4,-1
13:06:39:133357,-12,-8,0,-5,-6,-6,-2,-6
13:06:39:141498,-12,-8,0,-5,-6,-6,-2,-6
13:06:39:142352,-18,-39,1,6,8,-6,-9,-5
13:06:39:148330,4,-10,1,1,-1,-3,7,1
13:06:39:163988,4,-10,1,1,-1,-3,7,1
13:06:39:164854,-14,-14,-4,1,-5,-2,-16,3
13:06:39:170861,2,-22,0,-1,-4,15,11,-4
13:06:39:178985,2,-22,0,-1,-4,15,11,-4
13:06:39:179858,-7,-15,-5,-5,-2,3,16,-7
13:06:39:193392,-22,-18,-1,-2,-6,-15,-13,-8
13:06:39:201475,-22,-18,-1,-2,-6,-15,-13,-8
13:06:39:202371,2,15,6,-1,-10,2,2,0
13:06:39:208375,8,2,0,-1,-5,-3,-1,-2
13:06:39:223981,8,2,0,-1,-5,-3,-1,-2
13:06:39:224867,-5,1,-6,3,7,1,8,5
13:06:39:230858,-15,-4,-4,-2,8,1,-6,-1
13:06:39:239000,-15,-4,-4,-2,8,1,-6,-1
13:06:39:239865,11,17,4,-3,-4,-3,-3,-4
13:06:39:253342,-7,-6,0,-3,-11,-1,-16,-1
13:06:39:261470,-7,-6,0,-3,-11,-1,-16,-1
13:06:39:262335,-8,-14,-4,-6,4,3,7,-8
13:06:39:268221,3,-1,5,5,-5,-5,-14,-2
13:06:39:283989,3,-1,5,5,-5,-5,-14,-2
13:06:39:284855,10,-2,0,3,-6,-5,-10,-2
13:06:39:290858,11,4,0,3,7,-2,-9,3
13:06:39:298970,11,4,0,3,7,-2,-9,3
13:06:39:299845,7,-14,-5,-3,-5,-4,12,3
13:06:39:313357,-13,-1,-5,0,-15,-4,0,-4
13:06:39:321490,-13,-1,-5,0,-15,-4,0,-4
13:06:39:322347,-18,-20,-2,6,-5,-8,-23,1
13:06:39:328363,-9,-11,-1,0,0,1,4,1
13:06:39:344104,-9,-11,-1,0,0,1,4,1
13:06:39:344840,-4,6,3,1,4,1,11,-1
13:06:39:350853,16,11,-1,-2,4,-2,-2,-4
13:06:39:358389,16,11,-1,-2,4,-2,-2,-4
13:06:39:365861,13,0,-2,-4,-1,4,-15,-7
13:06:39:373360,-6,5,1,0,6,2,0,0
13:06:39:381480,-6,5,1,0,6,2,0,0
13:06:39:382345,0,15,5,-9,-6,4,17,11
13:06:39:395843,-3,9,-4,-5,19,-5,-8,-5
13:06:39:403992,-3,9,-4,-5,19,-5,-8,-5
13:06:39:404856,-19,-38,-6,7,27,-10,-20,-1
13:06:39:410887,-11,-6,-2,-2,-3,-7,4,-4
13:06:39:418358,-11,-6,-2,-2,-3,-7,4,-4
13:06:39:425864,-14,5,-3,-13,-15,3,-4,-6
13:06:39:433350,-33,-3,-1,-7,0,8,13,-4
13:06:39:441529,-33,-3,-1,-7,0,8,13,-4
13:06:39:442359,2,-40,-5,-4,-10,5,13,4
13:06:39:455743,14,9,2,1,-7,-3,1,2
13:06:39:464019,14,9,2,1,-7,-3,1,2
13:06:39:464894,-1,17,-5,-8,-2,-3,10,-6
13:06:39:470864,12,4,1,4,0,1,-12,3
13:06:39:478348,12,4,1,4,0,1,-12,3
13:06:39:485847,5,-15,-11,-7,18,-2,-15,-7
13:06:39:493346,-25,-27,-3,-6,-2,5,7,0
13:06:39:501468,-25,-27,-3,-6,-2,5,7,0
13:06:39:502323,0,14,2,-5,-16,4,2,-6
13:06:39:515741,35,7,7,15,18,-9,13,11
13:06:39:523954,35,7,7,15,18,-9,13,11
13:06:39:524852,7,3,21,28,26,-23,5,7
13:06:39:530870,26,24,22,31,35,-22,10,17
13:06:39:538361,26,24,22,31,35,-22,10,17
13:06:39:545872,14,25,0,6,25,-7,3,6
13:06:39:553355,-17,-2,-8,-7,-7,0,-8,-10
13:06:39:561479,-17,-2,-8,-7,-7,0,-8,-10
13:06:39:562364,-1,6,-8,-12,-21,9,-15,-14
13:06:39:575845,-12,-8,-16,-21,-16,15,-15,-21
13:06:39:584091,-12,-8,-16,-21,-16,15,-15,-21
13:06:39:584835,-6,-5,-15,-15,-27,8,7,-1
13:06:39:590872,-7,-25,6,0,-16,-1,3,4
13:06:39:606527,-7,-25,6,0,-16,-1,3,4
13:06:39:607354,-8,14,5,-2,-4,1,-8,-4
13:06:39:613341,-13,2,-6,1,2,-10,-8,1
13:06:39:621595,-13,2,-6,1,2,-10,-8,1
13:06:39:622346,-3,-2,-2,-3,2,2,13,4
13:06:39:635852,15,17,-10,-16,-15,7,1,-11
13:06:39:643970,15,17,-10,-16,-15,7,1,-11
13:06:39:644828,-20,-4,6,8,6,-10,-21,3
13:06:39:658993,7,8,2,0,3,4,1,4
13:06:39:659877,7,8,2,0,3,4,1,4
13:06:39:665844,8,-12,3,5,11,-5,2,3
13:06:39:682259,-3,-3,-2,-4,-8,6,-1,-9
13:06:39:682983,-3,-3,-2,-4,-8,6,-1,-9
13:06:39:683878,10,38,5,-4,13,3,3,-1
13:06:39:695867,5,-12,-11,-4,-3,-5,8,-3
13:06:39:704003,5,-12,-11,-4,-3,-5,8,-3
13:06:39:704864,14,-6,5,10,7,-8,7,1
13:06:39:710719,8,11,-2,-7,1,3,4,0
13:06:39:718349,8,11,-2,-7,1,3,4,0
13:06:39:725850,-5,-4,0,-1,-5,2,-7,-11
13:06:39:742123,-5,-22,4,7,1,-5,24,4
13:06:39:743019,-5,-22,4,7,1,-5,24,4
13:06:39:743847,1,13,-9,-12,-21,5,5,-8
13:06:39:755847,-11,-4,-3,-2,3,-6,-8,3
13:06:39:763979,-11,-4,-3,-2,3,-6,-8,3
13:06:39:764847,14,0,-1,3,4,-1,3,5
13:06:39:770868,-13,-31,4,13,8,-7,-4,4
13:06:39:786620,-13,-31,4,13,8,-7,-4,4
13:06:39:787372,-4,-9,-2,-6,-8,1,-13,-5
13:06:39:793356,3,11,-4,-6,-5,0,-13,-5
13:06:39:801500,3,11,-4,-6,-5,0,-13,-5
13:06:39:802368,-7,-14,1,10,3,-5,1,13
13:06:39:815854,8,15,12,12,13,-7,3,9
13:06:39:823990,8,15,12,12,13,-7,3,9
13:06:39:824856,-1,-13,-3,2,8,-11,18,12
13:06:39:830850,12,13,-16,-19,-18,3,-18,-13
13:06:39:838369,12,13,-16,-19,-18,3,-18,-13
13:06:39:853993,-13,13,-9,-15,-16,6,-15,-11
13:06:39:854875,-4,-4,5,0,-4,2,-8,-6
13:06:39:861479,-4,-4,5,0,-4,2,-8,-6
13:06:39:862354,-3,14,0,-6,0,7,9,-2
13:06:39:876282,-15,-8,-7,-8,-4,0,4,1
13:06:39:884100,-15,-8,-7,-8,-4,0,4,1
13:06:39:884844,10,0,3,5,3,-5,-3,7
13:06:39:898986,2,1,-2,-3,-15,5,5,2
13:06:39:899865,2,1,-2,-3,-15,5,5,2
13:06:39:905855,-4,-25,11,17,13,-8,-8,4
13:06:39:922237,-3,21,-3,-11,-4,7,1,-2
13:06:39:923018,-3,21,-3,-11,-4,7,1,-2
13:06:39:923889,-10,5,-7,-15,-21,6,-3,-8
13:06:39:935733,-9,13,0,-3,-8,1,-10,-13
13:06:39:943981,-9,13,0,-3,-8,1,-10,-13
13:06:39:944851,9,-8,5,8,12,-6,15,4
13:06:39:950860,5,-13,-8,-12,-3,-2,-9,-7
13:06:39:958381,5,-13,-8,-12,-3,-2,-9,-7
13:06:39:965859,-7,-9,-11,-7,-10,0,-3,-4
13:06:39:973371,11,-10,2,7,3,-1,1,4
13:06:39:981498,11,-10,2,7,3,-1,1,4
13:06:39:982356,0,0,-3,-8,-28,-1,-5,-4
13:06:39:995866,15,9,-1,1,-5,-4,-7,-4
13:06:40:4049,15,9,-1,1,-5,-4,-7,-4
13:06:40:4863,-9,-15,-4,-1,0,0,-9,-3
13:06:40:10851,-8,-24,-2,-5,2,0,1,2
13:06:40:18380,-8,-24,-2,-5,2,0,1,2
13:06:40:25900,-23,4,-12,-13,13,-4,8,-20
13:06:40:33355,-4,-4,9,8,12,-9,-3,1
13:06:40:41675,-4,-4,9,8,12,-9,-3,1
13:06:40:42363,-2,5,7,3,5,-5,-8,-10
13:06:40:55862,-5,-18,5,6,8,4,43,12
13:06:40:63988,-5,-18,5,6,8,4,43,12
13:06:40:64851,-6,-7,-3,-1,0,-6,-16,3
13:06:40:70854,-15,3,1,0,20,5,-4,1
13:06:40:78482,-15,3,1,0,20,5,-4,1
13:06:40:85847,2,-7,1,2,7,1,-4,-1
13:06:40:93381,3,12,-2,-3,0,0,21,0
13:06:40:101477,3,12,-2,-3,0,0,21,0
13:06:40:102350,-15,8,-5,-6,6,10,2,1
13:06:40:115856,1,1,-2,-1,-5,-7,-2,5
13:06:40:123998,1,1,-2,-1,-5,-7,-2,5
13:06:40:124876,3,-1,0,1,-7,-3,-11,7
13:06:40:130886,3,28,2,-4,12,-3,-14,-7
13:06:40:138360,3,28,2,-4,12,-3,-14,-7
13:06:40:145731,14,13,9,-3,-1,1,-9,2
13:06:40:153359,-20,-27,-9,-2,-12,-4,0,-3
13:06:40:161492,-20,-27,-9,-2,-12,-4,0,-3
13:06:40:162358,9,8,-5,-2,-16,2,0,-3
13:06:40:176497,-1,-18,6,12,-2,-6,2,1
13:06:40:177382,-1,-18,6,12,-2,-6,2,1
13:06:40:183252,1,31,-1,-4,-5,2,7,2
13:06:40:190741,3,-10,-7,-4,-1,1,-4,5
13:06:40:198361,3,-10,-7,-4,-1,1,-4,5
13:06:40:205882,-7,-16,-4,2,-2,-5,-3,-10
13:06:40:213231,15,13,-4,-9,-11,2,4,-4
13:06:40:221488,15,13,-4,-9,-11,2,4,-4
13:06:40:222366,3,-5,-8,-9,-6,-1,-10,-8
13:06:40:235723,2,-7,1,3,6,-3,-9,-7
13:06:40:243986,2,-7,1,3,6,-3,-9,-7
13:06:40:244861,-14,-24,19,31,36,-14,11,15
13:06:40:250880,6,15,-17,-18,-19,17,1,-17
13:06:40:258387,6,15,-17,-18,-19,17,1,-17
13:06:40:265871,-11,-6,1,-14,-17,6,-15,-6
13:06:40:281511,-6,21,8,9,1,-1,3,0
13:06:40:282353,-6,21,8,9,1,-1,3,0
13:06:40:288368,-8,-6,6,4,-5,0,2,1
13:06:40:296472,-12,-13,8,2,-4,-6,-13,9
13:06:40:297350,-12,-13,8,2,-4,-6,-13,9
13:06:40:303354,16,2,4,3,5,-7,5,-1
13:06:40:318996,-14,3,2,-1,5,-1,3,-1
13:06:40:319859,-14,3,2,-1,5,-1,3,-1
13:06:40:325856,-6,-5,-8,-6,-7,-2,0,2
13:06:40:333346,15,-11,8,4,4,3,17,6
13:06:40:340908,15,-11,8,4,4,3,17,6
13:06:40:348347,-6,16,-1,-6,3,3,-5,-5
13:06:40:365370,6,-1,-3,-4,1,-2,13,9
13:06:40:366091,6,-1,-3,-4,1,-2,13,9
13:06:40:366981,16,-9,-18,-4,-1,-3,-6,-4
13:06:40:378997,-18,-16,-9,-9,-4,-3,-18,-7
13:06:40:379865,-18,-16,-9,-9,-4,-3,-18,-7
13:06:40:385854,-1,-25,-3,1,3,8,34,4
13:06:40:393283,14,-14,-5,1,6,1,-3,-4
13:06:40:409015,14,-14,-5,1,6,1,-3,-4
13:06:40:409906,-4,7,-8,-8,-4,-2,-11,-3
13:06:40:415724,-1,-30,3,3,2,-4,-22,1
13:06:40:423971,-1,-30,3,3,2,-4,-22,1
13:06:40:424837,14,16,10,4,5,-1,-5,3
13:06:40:439053,1,-18,-7,-4,20,-5,-4,0
13:06:40:439891,1,-18,-7,-4,20,-5,-4,0
13:06:40:445755,19,12,-2,-4,0,0,9,4
13:06:40:453279,-10,-10,-1,1,-6,-5,-6,-5
13:06:40:460868,-10,-10,-1,1,-6,-5,-6,-5
13:06:40:468365,2,0,0,-2,1,4,23,1
13:06:40:475729,1,-7,-4,-3,-5,0,9,1
13:06:40:483984,1,-7,-4,-3,-5,0,9,1
13:06:40:484850,-2,-16,-8,-1,-2,-2,-2,9
13:06:40:498979,-19,5,1,0,-4,-1,-3,1
13:06:40:499847,-19,5,1,0,-4,-1,-3,1
13:06:40:505908,-12,-1,-2,-5,-3,3,-2,2
13:06:40:513352,-2,13,3,1,1,-1,-9,-12
13:06:40:520866,-2,13,3,1,1,-1,-9,-12
13:06:40:528335,26,5,3,-6,1,-1,-11,-7
13:06:40:535847,0,9,4,7,-5,-2,4,-1
13:06:40:544103,0,9,4,7,-5,-2,4,-1
13:06:40:544848,-10,-14,-5,0,-4,-6,0,-3
13:06:40:558992,7,15,-7,-10,-7,-4,0,-5
13:06:40:559881,7,15,-7,-10,-7,-4,0,-5
13:06:40:565848,-8,-5,2,-3,-3,-1,-11,-7
13:06:40:573356,-10,-5,1,-3,-3,-1,0,1
13:06:40:580856,-10,-5,1,-3,-3,-1,0,1
13:06:40:588409,-21,8,5,12,7,-3,-4,-10
13:06:40:595880,12,8,4,3,-5,0,-1,2
13:06:40:603968,12,8,4,3,-5,0,-1,2
13:06:40:604886,11,26,2,-4,-6,-6,-10,-3
13:06:40:618976,-9,-10,-2,2,8,3,-3,6
13:06:40:619841,-9,-10,-2,2,8,3,-3,6
13:06:40:625898,6,-44,-12,3,8,-10,0,2
13:06:40:633347,3,12,1,-4,-3,-4,-2,-7
13:06:40:640872,3,12,1,-4,-3,-4,-2,-7
13:06:40:648373,-13,-49,0,7,3,-1,2,-1
13:06:40:655866,10,1,-6,-4,0,-1,0,6
13:06:40:664001,10,1,-6,-4,0,-1,0,6
13:06:40:664868,12,11,-7,-11,-10,8,-10,-7
13:06:40:678997,9,37,11,5,5,-2,-5,-9
13:06:40:679845,9,37,11,5,5,-2,-5,-9
13:06:40:685734,-10,57,4,-17,-16,5,4,-8
13:06:40:693353,-1,-12,-6,-3,2,-1,4,8
13:06:40:717258,-1,-12,-6,-3,2,-1,4,8
13:06:40:717970,-1,18,4,-5,-6,-2,2,2
13:06:40:718844,-11,-28,-20,-22,-14,-4,-4,-8
13:06:40:724006,-11,-28,-20,-22,-14,-4,-4,-8
13:06:40:724950,1,-43,0,1,0,-2,2,0
13:06:40:738979,-9,28,-7,-20,-20,8,-6,-9
13:06:40:739858,-9,28,-7,-20,-20,8,-6,-9
13:06:40:745861,-3,10,7,0,-1,2,7,8
13:06:40:753387,-16,-13,8,12,6,-4,-5,-10
13:06:40:760859,-16,-13,8,12,6,-4,-5,-10
13:06:40:768382,13,28,19,9,8,-3,6,-4
13:06:40:775878,-3,-21,-1,6,9,-9,-1,-3
13:06:40:784008,-3,-21,-1,6,9,-9,-1,-3
13:06:40:784867,-15,-27,-4,5,3,3,3,13
13:06:40:798989,3,9,-2,-8,-14,2,-5,-6
13:06:40:799861,3,9,-2,-8,-14,2,-5,-6
13:06:40:805881,-2,5,-10,-11,-12,-1,7,-3
13:06:40:813357,6,27,5,1,-6,-1,4,4
13:06:40:820873,6,27,5,1,-6,-1,4,4
13:06:40:828255,-6,3,12,14,7,-3,-4,-6
13:06:40:835737,7,0,-16,-16,-19,13,-5,-9
13:06:40:843988,7,0,-16,-16,-19,13,-5,-9
13:06:40:844885,9,-24,-5,3,-2,-4,-5,1
13:06:40:859007,12,-25,-3,4,10,-5,3,-5
13:06:40:859892,12,-25,-3,4,10,-5,3,-5
13:06:40:865741,-14,33,-12,-25,-27,8,-6,-25
13:06:40:873221,-7,-3,-7,-12,-10,5,3,-4
13:06:40:880871,-7,-3,-7,-12,-10,5,3,-4
13:06:40:888235,-6,-13,7,5,11,-8,1,8
13:06:40:895766,9,44,9,17,13,-5,1,9
13:06:40:903996,9,44,9,17,13,-5,1,9
13:06:40:904913,1,-26,-3,12,14,-7,-6,16
13:06:40:918988,-7,0,9,0,1,-2,1,4
13:06:40:919856,-7,0,9,0,1,-2,1,4
13:06:40:925874,-14,50,-25,-48,-59,23,-14,-47
13:06:40:933232,1,-25,34,46,50,-24,7,30
13:06:40:940892,1,-25,34,46,50,-24,7,30
13:06:40:948398,3,-39,12,17,31,-12,12,9
13:06:40:955885,-1,-4,3,3,15,-3,-6,12
13:06:40:963996,-1,-4,3,3,15,-3,-6,12
13:06:40:964870,10,-39,-19,1,-4,-1,-2,10
13:06:40:979007,0,-14,-11,1,4,-2,-5,-5
13:06:40:979857,0,-14,-11,1,4,-2,-5,-5
13:06:40:994003,10,8,9,7,10,-2,5,10
13:06:40:994737,-14,-13,-22,-27,-32,5,-8,-25
13:06:41:861,-14,-13,-22,-27,-32,5,-8,-25
13:06:41:8255,2,20,10,-1,6,5,0,1
13:06:41:15746,4,-18,26,21,20,-11,7,13
13:06:41:24030,4,-18,26,21,20,-11,7,13
13:06:41:24873,-5,32,-9,-13,-25,5,-1,-15
13:06:41:38970,4,2,-18,-37,-40,17,-6,-28
13:06:41:39852,4,2,-18,-37,-40,17,-6,-28
13:06:41:45865,9,-14,5,10,43,-6,-1,18
13:06:41:53366,-2,21,-31,-45,-51,27,-3,-22
13:06:41:60866,-2,21,-31,-45,-51,27,-3,-22
13:06:41:68351,6,10,-1,13,7,-3,-2,4
13:06:41:75877,-6,8,-2,-14,-5,3,-9,-24
13:06:41:91570,-6,8,-2,-14,-5,3,-9,-24
13:06:41:92403,14,-4,-20,-15,-10,4,-10,-14
13:06:41:98994,-2,-1,13,36,23,-14,5,24
13:06:41:99856,-2,-1,13,36,23,-14,5,24
13:06:41:114001,-20,-30,-6,3,-3,-2,-4,-2
13:06:41:114781,-1,-7,-15,-9,0,3,-2,-7
13:06:41:120887,-1,-7,-15,-9,0,3,-2,-7
13:06:41:128386,-11,-10,-5,-19,-26,4,-1,-11
13:06:41:135881,15,4,4,2,3,-4,3,11
13:06:41:143989,15,4,4,2,3,-4,3,11
13:06:41:144858,-13,17,-8,-1,4,-9,-7,-11
13:06:41:159011,2,-17,22,43,41,-13,8,33
13:06:41:159919,2,-17,22,43,41,-13,8,33
13:06:41:165869,-6,-2,17,24,34,-28,1,20
13:06:41:173389,-36,-4,-13,-14,-14,-5,-6,-16
13:06:41:189006,-36,-4,-13,-14,-14,-5,-6,-16
13:06:41:189880,6,-34,22,7,4,3,7,14
13:06:41:195770,-10,4,-7,-11,-7,6,-4,6
13:06:41:220374,-10,4,-7,-11,-7,6,-4,6
13:06:41:221220,-15,27,-13,-31,-27,10,-5,-23
13:06:41:222001,2,-20,0,11,15,-2,-2,3
13:06:41:222857,2,-20,0,11,15,-2,-2,3
13:06:41:225733,2,-5,7,16,14,-10,3,19
13:06:41:241549,-15,-6,6,7,5,-6,7,2
13:06:41:242359,-15,-6,6,7,5,-6,7,2
13:06:41:248367,17,9,6,16,15,-7,-2,4
13:06:41:255849,13,23,9,7,10,-7,2,4
13:06:41:263365,13,23,9,7,10,-7,2,4
13:06:41:270863,-7,-40,0,9,5,-3,2,10
13:06:41:279008,2,16,13,0,4,-1,2,2
13:06:41:279874,2,16,13,0,4,-1,2,2
13:06:41:285745,14,16,-3,6,14,7,-1,-1
13:06:41:301511,8,-6,3,11,6,-5,0,1
13:06:41:302395,8,-6,3,11,6,-5,0,1
13:06:41:308256,-27,-5,-26,-44,-56,15,-18,-40
13:06:41:315889,-20,-7,-7,-11,2,-9,-5,-13
13:06:41:323376,-20,-7,-7,-11,2,-9,-5,-13
13:06:41:330754,5,16,0,-2,-8,1,-1,6
13:06:41:338998,-9,-28,-18,-22,-23,8,-14,-19
13:06:41:339909,-9,-28,-18,-22,-23,8,-14,-19
13:06:41:345877,1,-11,2,12,15,-10,6,-4
13:06:41:361503,14,52,11,-3,-17,7,-10,-8
13:06:41:362357,14,52,11,-3,-17,7,-10,-8
13:06:41:368268,1,12,-7,-11,-16,-1,-5,2
13:06:41:375761,-5,-39,-5,16,20,-11,6,11
13:06:41:383381,-5,-39,-5,16,20,-11,6,11
13:06:41:390901,12,5,6,9,12,-6,4,4
13:06:41:398970,10,13,1,-15,-7,4,-1,1
13:06:41:399863,10,13,1,-15,-7,4,-1,1
13:06:41:405921,-4,-14,10,12,13,-3,5,16
13:06:41:421498,21,-5,-8,-2,-3,-1,-5,-7
13:06:41:422381,21,-5,-8,-2,-3,-1,-5,-7
13:06:41:428379,11,19,5,4,1,-4,4,-4
13:06:41:435872,4,21,13,10,8,-11,8,18
13:06:41:443372,4,21,13,10,8,-11,8,18
13:06:41:450900,-17,4,-2,-10,-7,12,3,5
13:06:41:467133,0,-5,0,-10,-5,6,4,3
13:06:41:468000,0,-5,0,-10,-5,6,4,3
13:06:41:468871,-13,2,-5,-8,-16,1,-8,-16
13:06:41:481509,-4,-25,-14,-7,-10,1,3,-3
13:06:41:482376,-4,-25,-14,-7,-10,1,3,-3
13:06:41:488285,-13,-42,-7,1,-1,-7,-3,-4
13:06:41:495757,-1,6,-24,-16,-21,9,-12,-20
13:06:41:503380,-1,6,-24,-16,-21,9,-12,-20
13:06:41:527887,-1,0,-18,-25,-14,0,-3,-22
13:06:41:528626,-14,9,-14,-22,-19,16,-3,-11
13:06:41:529504,-14,9,-14,-22,-19,16,-3,-11
13:06:41:530253,11,10,20,23,31,-16,3,20
13:06:41:549621,6,18,0,4,-4,0,0,5
13:06:41:550490,6,18,0,4,-4,0,0,5
13:06:41:551359,-1,4,-6,-7,-12,7,0,-4
13:06:41:555867,15,47,27,13,10,-5,3,8
13:06:41:563385,15,47,27,13,10,-5,3,8
13:06:41:570873,9,1,6,3,6,0,4,8
13:06:41:578993,1,0,-1,-3,2,-5,-2,-1
13:06:41:579862,1,0,-1,-3,2,-5,-2,-1
13:06:41:585881,4,9,-1,0,-7,0,-2,-11
13:06:41:602023,-11,-23,3,1,3,-3,6,8
13:06:41:602764,-11,-23,3,1,3,-3,6,8
13:06:41:608360,-3,-12,-2,-4,-4,1,-6,-2
13:06:41:623994,-14,-16,-1,7,3,-1,1,9
13:06:41:624875,-14,-16,-1,7,3,-1,1,9
13:06:41:630880,-9,-3,-10,-8,-5,3,-5,-5
13:06:41:647133,-2,-14,-10,-4,1,-1,-4,-7
13:06:41:648010,-2,-14,-10,-4,1,-1,-4,-7
13:06:41:648877,-13,-9,-1,-3,4,-8,-9,3
13:06:41:661509,-6,-37,-11,9,9,-8,-6,-9
13:06:41:662362,-6,-37,-11,9,9,-8,-6,-9
13:06:41:668263,-5,3,2,4,5,0,4,-1
13:06:41:675752,3,-5,6,10,-3,3,2,3
13:06:41:683388,3,-5,6,10,-3,3,2,3
13:06:41:690948,0,12,-4,-6,-5,3,2,1
13:06:41:699008,21,13,8,2,-3,-6,-8,-1
13:06:41:699902,21,13,8,2,-3,-6,-8,-1
13:06:41:705893,13,25,-2,-15,-11,3,8,3
13:06:41:721531,-18,5,-7,-9,0,6,2,-1
13:06:41:722398,-18,5,-7,-9,0,6,2,-1
13:06:41:728380,6,7,11,8,1,-3,-2,-5
13:06:41:735885,1,7,1,-9,-3,-2,9,9
13:06:41:743391,1,7,1,-9,-3,-2,9,9
13:06:41:750871,3,1,8,0,-4,1,-3,-6
13:06:41:759006,10,-26,-3,5,12,-2,-2,-3
13:06:41:759871,10,-26,-3,5,12,-2,-2,-3
13:06:41:765897,12,-6,-7,-1,-3,-4,-3,1
13:06:41:781566,-4,8,9,-1,-3,-2,-3,-1
13:06:41:782455,-4,8,9,-1,-3,-2,-3,-1
13:06:41:788374,-7,-19,-4,-2,0,2,-1,1
13:06:41:804027,7,-4,-5,-6,-1,-1,1,-3
13:06:41:804875,7,-4,-5,-6,-1,-1,1,-3
13:06:41:810889,-4,-12,5,1,1,2,-1,2
13:06:41:827148,2,10,2,-5,-6,-2,-4,-2
13:06:41:827995,2,10,2,-5,-6,-2,-4,-2
13:06:41:828873,-7,7,5,8,10,-7,-10,-10
13:06:41:841505,-16,4,6,0,5,1,1,-2
13:06:41:842402,-16,4,6,0,5,1,1,-2
13:06:41:848253,4,2,-1,1,2,0,0,0
13:06:41:863997,4,2,-1,1,2,0,0,0
13:06:41:864862,-2,6,-8,-9,-7,0,1,1
13:06:41:879661,-25,-42,0,1,6,1,-3,1
13:06:41:880485,-25,-42,0,1,6,1,-3,1
13:06:41:881231,3,-1,-10,-5,-7,-1,-2,-2
13:06:41:885777,4,16,-7,-5,-2,-2,0,-5
13:06:41:901509,4,16,-7,-5,-2,-2,0,-5
13:06:41:902249,3,-8,3,5,2,-2,-5,-7
13:06:41:908391,-6,-12,3,6,2,1,5,5
13:06:41:924505,-6,-12,3,6,2,1,5,5
13:06:41:925264,4,-2,-4,-8,-2,-5,3,1
13:06:41:930875,-8,5,-4,0,-3,-3,1,-3
13:06:41:939068,-8,5,-4,0,-3,-3,1,-3
13:06:41:939782,12,-12,4,2,-5,-3,-6,-7
13:06:41:945897,-29,-12,-2,-2,4,1,-8,1
13:06:41:961524,-29,-12,-2,-2,4,1,-8,1
13:06:41:962282,2,4,1,-1,2,-3,-3,-1
13:06:41:968363,22,28,4,-14,-6,1,15,2
13:06:41:983997,22,28,4,-14,-6,1,15,2
13:06:41:984856,-4,11,0,-2,-2,0,-3,1
13:06:41:990908,0,-7,-2,4,-3,-1,-2,4
13:06:41:998991,0,-7,-2,4,-3,-1,-2,4
13:06:41:999754,-2,-10,-7,2,4,-4,3,-2
13:06:42:5952,24,25,-7,-9,-1,1,-8,-7
13:06:42:21534,24,25,-7,-9,-1,1,-8,-7
13:06:42:22396,-9,-8,2,-5,-9,4,3,-3
13:06:42:28371,10,11,3,-1,-5,-2,-8,-5
13:06:42:44009,10,11,3,-1,-5,-2,-8,-5
13:06:42:44873,-23,-4,-4,-1,3,-5,-7,2
13:06:42:50756,-8,-9,-1,2,-3,-4,-7,-5
13:06:42:59028,-8,-9,-1,2,-3,-4,-7,-5
13:06:42:59892,-9,-15,-2,-7,0,-2,1,3
13:06:42:65875,-2,2,-6,-2,-3,-6,-2,2
13:06:42:81508,-2,2,-6,-2,-3,-6,-2,2
13:06:42:82375,20,13,4,6,-7,-6,-16,-2
13:06:42:88373,0,-2,1,-2,-14,-5,-7,2
13:06:42:104010,0,-2,1,-2,-14,-5,-7,2
13:06:42:104884,7,15,0,1,-4,2,6,0
13:06:42:110747,-13,-4,-8,-11,0,-2,-3,4
13:06:42:119012,-13,-4,-8,-11,0,-2,-3,4
13:06:42:119881,14,1,0,-9,12,15,-3,-10
13:06:42:125882,3,2,-7,0,3,-5,-4,-10
13:06:42:141502,3,2,-7,0,3,-5,-4,-10
13:06:42:142369,3,-19,-17,-8,2,-7,-9,-4
13:06:42:148256,9,1,5,4,2,10,27,12
13:06:42:164010,9,1,5,4,2,10,27,12
13:06:42:164875,-14,-3,3,7,0,-4,-10,-7
13:06:42:170761,-22,-11,-2,-4,18,-5,-3,-4
13:06:42:178984,-22,-11,-2,-4,18,-5,-3,-4
13:06:42:179885,1,14,8,7,0,0,21,2
13:06:42:185775,5,15,5,-4,-4,-5,-3,-16
13:06:42:201510,5,15,5,-4,-4,-5,-3,-16
13:06:42:202376,-2,12,0,-1,-5,-2,8,1
13:06:42:208274,-1,-1,-2,-11,-5,-8,-1,-3
13:06:42:224005,-1,-1,-2,-11,-5,-8,-1,-3
13:06:42:224873,-8,4,-2,-12,18,0,-8,-3
13:06:42:239630,-7,-10,-2,6,-13,-3,8,4
13:06:42:240518,-7,-10,-2,6,-13,-3,8,4
13:06:42:241239,-23,-1,-6,-6,-12,-7,-7,1
13:06:42:253381,18,-2,-5,-4,4,5,-15,-2
13:06:42:261536,18,-2,-5,-4,4,5,-15,-2
13:06:42:262250,4,6,3,-1,4,-5,6,1
13:06:42:268377,14,9,0,-3,4,-8,-8,3
13:06:42:284026,14,9,0,-3,4,-8,-8,3
13:06:42:284888,-22,-2,4,4,10,-6,-3,0
13:06:42:290900,-8,0,-2,-2,4,-6,-11,-3
13:06:42:299002,-8,0,-2,-2,4,-6,-11,-3
13:06:42:299756,2,1,-2,1,-10,12,-2,0
13:06:42:313269,-17,-10,-1,4,-3,3,-5,-2
13:06:42:321557,-17,-10,-1,4,-3,3,-5,-2
13:06:42:322421,12,-19,0,2,-6,9,13,5
13:06:42:328381,11,-8,-2,-7,-7,7,1,-1
13:06:42:344009,11,-8,-2,-7,-7,7,1,-1
13:06:42:344875,-17,-2,2,-3,-31,-4,7,-4
13:06:42:350736,-8,-6,1,5,-9,5,-5,7
13:06:42:359031,-8,-6,1,5,-9,5,-5,7
13:06:42:359903,-1,1,2,5,-2,-5,-8,-3
13:06:42:373303,-8,-21,-4,1,-6,-5,-17,-11
13:06:42:381509,-8,-21,-4,1,-6,-5,-17,-11
13:06:42:382384,15,-10,1,-6,4,-2,-8,-1
13:06:42:388273,-3,12,4,1,2,16,19,2
13:06:42:404020,-3,12,4,1,2,16,19,2
13:06:42:404885,-9,0,-11,-4,8,-12,-3,-13
13:06:42:410757,22,9,6,-1,24,-7,23,9
13:06:42:418996,22,9,6,-1,24,-7,23,9
13:06:42:419860,0,-7,-1,0,6,-14,-36,-4
13:06:42:433263,-12,-19,-7,1,-9,-4,-5,-5
13:06:42:441535,-12,-19,-7,1,-9,-4,-5,-5
13:06:42:442388,24,12,-4,-4,37,-8,-16,-12
13:06:42:448257,-6,-1,5,6,1,-1,-8,5
13:06:42:464010,-6,-1,5,6,1,-1,-8,5
13:06:42:464869,-3,-33,-4,3,-12,1,9,6
13:06:42:470758,3,22,-1,-3,4,4,12,4
13:06:42:478998,3,22,-1,-3,4,4,12,4
13:06:42:479913,-2,7,6,9,1,7,11,10
13:06:42:493297,-7,-5,1,0,-4,-9,-11,-12
13:06:42:501491,-7,-5,1,0,-4,-9,-11,-12
13:06:42:502373,3,5,-2,-8,0,5,9,1
13:06:42:508281,-13,4,-2,-2,-6,5,-6,-7
13:06:42:523820,-13,4,-2,-2,-6,5,-6,-7
13:06:42:531525,9,-2,1,-2,12,11,-1,3
13:06:42:532258,13,7,-1,5,29,-2,3,1
13:06:42:538996,13,7,-1,5,29,-2,3,1
13:06:42:539917,-12,-21,-2,-5,-13,-3,10,1
13:06:42:553399,-2,6,-5,-3,-2,2,9,6
13:06:42:561519,-2,6,-5,-3,-2,2,9,6
13:06:42:562380,1,1,0,0,-11,-3,0,0
13:06:42:568262,-22,-21,-3,-4,-26,-5,-2,-6
13:06:42:584013,-22,-21,-3,-4,-26,-5,-2,-6
13:06:42:584876,-1,4,4,-1,2,4,5,5
13:06:42:590779,2,-17,-6,-2,-4,-9,-11,-2
13:06:42:599015,2,-17,-6,-2,-4,-9,-11,-2
13:06:42:599870,10,9,-1,2,-4,-1,-1,3
13:06:42:613380,-18,-23,0,1,1,0,-8,-4
13:06:42:621522,-18,-23,0,1,1,0,-8,-4
13:06:42:622393,-21,-27,-5,2,2,-1,2,0
13:06:42:628263,13,-12,2,-6,-5,4,8,4
13:06:42:644021,13,-12,2,-6,-5,4,8,4
13:06:42:644756,11,-11,1,6,-22,3,-8,2
13:06:42:650870,2,3,-1,-2,3,-3,-4,-6
13:06:42:659012,2,3,-1,-2,3,-3,-4,-6
13:06:42:659902,2,18,-1,-3,5,-9,-11,-6
13:06:42:682276,13,12,-6,-6,-10,1,-2,-2
13:06:42:683021,13,12,-6,-6,-10,1,-2,-2
13:06:42:683897,9,0,1,3,-2,-8,-3,0
13:06:42:688382,-23,-8,-5,-2,-2,0,-3,3
13:06:42:704004,-23,-8,-5,-2,-2,0,-3,3
13:06:42:704896,5,-11,6,0,3,3,4,-6
13:06:42:710796,10,15,3,-3,-3,5,2,3
13:06:42:719027,10,15,3,-3,-3,5,2,3
13:06:42:719897,-13,24,5,0,-9,8,15,-1
13:06:42:733266,1,10,0,2,0,-5,-6,-11
13:06:42:741529,1,10,0,2,0,-5,-6,-11
13:06:42:742387,6,15,-3,-4,2,-2,-12,-8
13:06:42:748385,-26,-5,2,0,-6,-3,-3,-1
13:06:42:764015,-26,-5,2,0,-6,-3,-3,-1
13:06:42:764862,-1,-2,-1,3,0,0,15,2
13:06:42:770733,11,8,-1,4,7,1,8,-2
13:06:42:778995,11,8,-1,4,7,1,8,-2
13:06:42:779859,-8,-1,-6,-1,-2,-3,-7,-4
13:06:42:793279,10,19,-5,-8,6,-3,4,2
13:06:42:801503,10,19,-5,-8,6,-3,4,2
13:06:42:802378,7,-11,-10,-3,4,-1,5,-4
13:06:42:808286,8,-15,-2,2,-7,-1,-1,1
13:06:42:823999,8,-15,-2,2,-7,-1,-1,1
13:06:42:824859,-28,-29,-6,-8,2,-7,-10,2
13:06:42:830747,8,-7,-2,-2,-2,-4,-10,-3
13:06:42:838991,8,-7,-2,-2,-2,-4,-10,-3
13:06:42:839872,-7,-10,4,-2,0,0,-4,-1
13:06:42:853289,3,1,0,-3,-6,1,11,-2
13:06:42:861512,3,1,0,-3,-6,1,11,-2
13:06:42:862393,16,44,3,-1,-25,5,3,1
13:06:42:868262,0,6,6,2,-18,-7,1,-2
13:06:42:884003,0,6,6,2,-18,-7,1,-2
13:06:42:884871,-5,-4,2,-2,-6,-4,-2,4
13:06:42:890804,14,6,-4,-2,1,-2,-11,-1
13:06:42:899042,14,6,-4,-2,1,-2,-11,-1
13:06:42:899876,3,-18,1,-4,7,-2,1,3
13:06:42:913395,-5,0,1,-1,8,0,5,4
13:06:42:921516,-5,0,1,-1,8,0,5,4
13:06:42:922414,-4,-9,-1,-3,4,3,1,-3
13:06:42:928272,6,2,-2,2,-3,-2,-2,-1
13:06:42:944013,6,2,-2,2,-3,-2,-2,-1
13:06:42:944876,-5,-22,-8,1,-2,-3,-8,0
13:06:42:950772,-2,0,-3,0,1,5,2,-11
13:06:42:959010,-2,0,-3,0,1,5,2,-11
13:06:42:959917,5,5,2,-4,1,3,4,-1
13:06:42:973419,-3,-6,-1,-2,4,-1,1,-3
13:06:42:981516,-3,-6,-1,-2,4,-1,1,-3
13:06:42:982368,-6,-2,0,1,-1,-2,-8,-4
13:06:42:988277,6,7,0,-3,-2,0,2,4
13:06:43:4038,6,7,0,-3,-2,0,2,4
13:06:43:4784,0,11,-3,-1,2,0,3,-6
13:06:43:10893,6,1,11,0,-2,4,9,3
13:06:43:19031,6,1,11,0,-2,4,9,3
13:06:43:19905,0,-10,-6,0,6,-5,-12,-6
13:06:43:33388,-2,-17,-6,-2,2,0,7,3
13:06:43:41572,-2,-17,-6,-2,2,0,7,3
13:06:43:42259,10,-9,-2,-2,0,0,-8,-3
