Time,EMG1,EMG2,EMG3,EMG4,EMG5,EMG6,EMG7,EMG8
17:04:19:149129,-4,-1,-4,-13,-12,-3,1,2
17:04:19:164765,-4,-1,-4,-13,-12,-3,1,2
17:04:19:165636,-8,-5,-9,-20,-1,-10,-12,1
17:04:19:171667,-7,-5,3,12,-7,-8,-9,-2
17:04:19:187262,-7,-5,3,12,-7,-8,-9,-2
17:04:19:188180,0,-3,-7,-43,-9,3,-4,-2
17:04:19:194152,-3,-3,-11,-20,-2,2,-5,0
17:04:19:202267,-3,-3,-11,-20,-2,2,-5,0
17:04:19:203009,10,3,3,-31,-1,5,13,-6
17:04:19:209141,-8,-6,11,5,0,-17,-18,4
17:04:19:224745,-8,-6,11,5,0,-17,-18,4
17:04:19:225670,-4,-2,-14,1,-9,-2,-8,3
17:04:19:231631,-4,-3,-19,24,7,-3,0,-3
17:04:19:247277,-4,-3,-19,24,7,-3,0,-3
17:04:19:248140,9,-1,5,24,9,-3,-3,-5
17:04:19:253994,7,3,16,-3,6,1,2,-11
17:04:19:262248,7,3,16,-3,6,1,2,-11
17:04:19:263131,-3,-3,-3,0,-1,0,1,-13
17:04:19:269127,5,0,-13,-2,-4,1,-2,-1
17:04:19:284779,5,0,-13,-2,-4,1,-2,-1
17:04:19:285639,-3,5,4,16,11,-3,-5,0
17:04:19:291658,-1,3,2,22,6,-2,-3,2
17:04:19:307265,-1,3,2,22,6,-2,-3,2
17:04:19:308162,-7,-5,-6,-8,-8,-6,-6,7
17:04:19:314063,-6,1,-1,-12,-14,-4,-1,-2
17:04:19:322271,-6,1,-1,-12,-14,-4,-1,-2
17:04:19:323148,3,0,8,-15,-11,-1,-6,-7
17:04:19:329164,-18,-8,-9,-1,-13,-7,-10,-1
17:04:19:344746,-18,-8,-9,-1,-13,-7,-10,-1
17:04:19:345615,-9,-4,-1,-4,-10,-1,-6,3
17:04:19:351638,5,-1,7,16,4,1,5,5
17:04:19:359807,5,-1,7,16,4,1,5,5
17:04:19:360634,-5,-1,-6,13,2,-2,0,7
17:04:19:374010,0,0,3,-3,1,0,-5,0
17:04:19:382285,0,0,3,-3,1,0,-5,0
17:04:19:383142,11,9,26,39,29,1,14,-6
17:04:19:396645,-14,0,9,42,9,-2,4,4
17:04:19:404745,-14,0,9,42,9,-2,4,4
17:04:19:405621,-2,0,5,-7,-12,-2,2,5
17:04:19:411664,4,0,-2,-20,0,2,-1,-2
17:04:19:427261,4,0,-2,-20,0,2,-1,-2
17:04:19:428149,-3,2,-6,-5,1,0,-6,-1
17:04:19:433995,1,-3,-6,-2,-1,-3,-5,-1
17:04:19:442250,1,-3,-6,-2,-1,-3,-5,-1
17:04:19:443152,0,-3,-5,-16,-9,1,0,1
17:04:19:456630,-2,0,1,-9,2,0,-1,0
17:04:19:464847,-2,0,1,-9,2,0,-1,0
17:04:19:465638,-2,-3,3,2,15,3,-4,-1
17:04:19:471767,0,-1,2,-3,-5,2,1,-1
17:04:19:479150,0,-1,2,-3,-5,2,1,-1
17:04:19:486626,1,1,-2,-6,-6,-2,2,3
17:04:19:494005,-7,-6,-13,-12,-1,-3,-4,2
17:04:19:502292,-7,-6,-13,-12,-1,-3,-4,2
17:04:19:503216,1,1,-1,9,-1,-2,-1,1
17:04:19:516649,-2,1,-5,8,1,-2,5,1
17:04:19:524758,-2,1,-5,8,1,-2,5,1
17:04:19:525654,2,-3,0,6,5,1,3,0
17:04:19:531662,3,0,0,-4,-3,-1,-1,-3
17:04:19:539133,3,0,0,-4,-3,-1,-1,-3
17:04:19:546634,-7,-1,-5,-10,-1,0,-7,-18
17:04:19:554118,11,1,3,4,7,6,2,3
17:04:19:562253,11,1,3,4,7,6,2,3
17:04:19:563162,-6,-4,-8,0,-2,-6,-5,-4
17:04:19:576637,0,4,2,-11,-2,3,-3,-3
17:04:19:584761,0,4,2,-11,-2,3,-3,-3
17:04:19:585644,4,5,4,14,0,-1,5,0
17:04:19:591632,-4,-1,1,7,4,-4,-3,-3
17:04:19:599151,-4,-1,1,7,4,-4,-3,-3
17:04:19:606637,-5,0,0,2,-7,-4,-5,1
17:04:19:614149,5,-1,-5,-6,2,1,3,-3
17:04:19:622252,5,-1,-5,-6,2,1,3,-3
17:04:19:623129,-5,-5,-1,-8,1,-5,-3,2
17:04:19:636627,-5,-2,-11,-13,-11,-5,-6,-7
17:04:19:644758,-5,-2,-11,-13,-11,-5,-6,-7
17:04:19:645629,-1,3,-4,-7,-5,0,3,5
17:04:19:651627,4,-2,-1,-8,-6,-4,-1,-3
17:04:19:659133,4,-2,-1,-8,-6,-4,-1,-3
17:04:19:666635,-2,0,-4,-4,-3,-2,0,-2
17:04:19:674131,0,-2,-3,-2,0,3,4,-2
17:04:19:682264,0,-2,-3,-2,0,3,4,-2
17:04:19:683113,-3,-2,-5,2,7,1,-4,-3
17:04:19:696626,1,1,4,5,1,3,4,13
17:04:19:704747,1,1,4,5,1,3,4,13
17:04:19:705609,1,-2,-1,-1,-4,-2,-6,-2
17:04:19:711629,-5,-1,-1,2,2,-4,-3,-3
17:04:19:719149,-5,-1,-1,2,2,-4,-3,-3
17:04:19:726627,-3,1,0,3,-4,-4,1,4
17:04:19:734099,-2,-3,-1,-3,-3,-3,-1,-20
17:04:19:742037,-2,-3,-1,-3,-3,-3,-1,-20
17:04:19:749048,5,-4,-4,-3,0,1,-2,6
17:04:19:756622,-2,2,-2,-2,-3,-1,-6,-5
17:04:19:764778,-2,2,-2,-2,-3,-1,-6,-5
17:04:19:765616,-3,0,2,-1,-1,0,5,8
17:04:19:771651,6,0,0,-2,-4,0,0,9
17:04:19:779128,6,0,0,-2,-4,0,0,9
17:04:19:786638,4,3,-3,-2,-3,-1,-1,-4
17:04:19:794136,-3,-1,-2,-2,-2,-3,-2,-3
17:04:19:802264,-3,-1,-2,-2,-2,-3,-2,-3
17:04:19:802998,-3,-9,-5,-6,2,-3,0,-4
17:04:19:816647,-1,1,-1,-2,2,0,-1,-4
17:04:19:824761,-1,1,-1,-2,2,0,-1,-4
17:04:19:825622,-2,-2,-3,0,0,-2,-4,-10
17:04:19:831635,-13,0,-1,-4,-1,-2,-1,1
17:04:19:839126,-13,0,-1,-4,-1,-2,-1,1
17:04:19:846641,12,4,2,1,2,1,-1,-1
17:04:19:854137,-9,-3,-1,-2,0,0,-4,-7
17:04:19:862249,-9,-3,-1,-2,0,0,-4,-7
17:04:19:863118,-3,-3,1,1,0,1,-1,2
17:04:19:876657,1,-2,1,-2,2,-1,-6,-5
17:04:19:884750,1,-2,1,-2,2,-1,-6,-5
17:04:19:885628,-4,-8,-3,2,-8,0,-2,0
17:04:19:891623,-8,1,1,-1,-3,-2,-4,-4
17:04:19:899119,-8,1,1,-1,-3,-2,-4,-4
17:04:19:906631,-2,5,2,-4,0,-3,-3,-2
17:04:19:913984,-11,-2,-5,1,2,1,-8,8
17:04:19:922270,-11,-2,-5,1,2,1,-8,8
17:04:19:923142,11,-4,-2,0,-1,-1,-3,-5
17:04:19:936622,14,2,-2,1,-1,-4,6,-5
17:04:19:944771,14,2,-2,1,-1,-4,6,-5
17:04:19:945627,-9,2,-2,1,0,0,-3,-2
17:04:19:951640,7,-1,-2,0,-1,-2,4,5
17:04:19:959118,7,-1,-2,0,-1,-2,4,5
17:04:19:966625,1,0,-1,0,-4,-4,1,-4
17:04:19:974014,-1,1,-1,0,-2,-2,-5,7
17:04:19:982264,-1,1,-1,0,-2,-2,-5,7
17:04:19:983135,-4,0,-3,-1,2,1,2,5
17:04:19:996644,-1,-3,-2,2,-2,-1,-3,-1
17:04:20:4771,-1,-3,-2,2,-2,-1,-3,-1
17:04:20:5645,-5,-6,-1,-1,3,-2,-4,-4
17:04:20:11636,8,1,2,0,-3,-3,-2,2
17:04:20:19162,8,1,2,0,-3,-3,-2,2
17:04:20:26641,0,-4,0,-4,-1,1,1,-2
17:04:20:34154,-10,-7,-2,-1,-2,0,1,5
17:04:20:42267,-10,-7,-2,-1,-2,0,1,5
17:04:20:43008,-7,-1,-2,0,-1,0,-1,-5
17:04:20:56647,9,1,-2,-3,-2,1,3,7
17:04:20:64738,9,1,-2,-3,-2,1,3,7
17:04:20:65636,0,1,2,-3,-3,1,0,5
17:04:20:71627,-4,-5,1,-5,1,-2,3,4
17:04:20:79141,-4,-5,1,-5,1,-2,3,4
17:04:20:86656,-4,2,0,-2,-2,0,-2,7
17:04:20:94140,-1,3,-4,1,-1,-2,1,4
17:04:20:102298,-1,3,-4,1,-1,-2,1,4
17:04:20:103004,1,0,-5,0,2,-1,-3,2
17:04:20:116622,0,2,-2,-2,-3,0,1,-17
17:04:20:124765,0,2,-2,-2,-3,0,1,-17
17:04:20:125615,-3,2,-2,-1,-2,-1,-1,-4
17:04:20:131614,-6,0,0,0,0,3,1,1
17:04:20:139133,-6,0,0,0,0,3,1,1
17:04:20:146624,12,3,1,-4,-3,-3,-3,-7
17:04:20:154006,4,1,-2,-2,0,-1,-7,-4
17:04:20:162251,4,1,-2,-2,0,-1,-7,-4
17:04:20:163112,3,1,-1,-1,0,0,0,11
17:04:20:176640,-7,2,1,-2,0,-1,-1,-14
17:04:20:184747,-7,2,1,-2,0,-1,-1,-14
17:04:20:185646,-4,0,5,4,-1,-2,-4,-8
17:04:20:191649,-4,-5,-2,-2,0,-1,-2,-4
17:04:20:199144,-4,-5,-2,-2,0,-1,-2,-4
17:04:20:206667,-3,2,-2,3,3,3,1,0
17:04:20:214004,6,0,0,1,0,-2,-1,-13
17:04:20:222259,6,0,0,1,0,-2,-1,-13
17:04:20:223136,-8,-6,-3,2,-3,-2,0,0
17:04:20:236613,-2,-1,-5,-2,0,-2,-6,15
17:04:20:244773,-2,-1,-5,-2,0,-2,-6,15
17:04:20:245621,-2,1,-2,-3,-3,0,-2,4
17:04:20:251637,2,-2,-2,2,-1,-1,4,7
17:04:20:259165,2,-2,-2,2,-1,-1,4,7
17:04:20:266671,-12,1,1,-4,-2,-4,-1,-13
17:04:20:274011,-2,0,-1,1,-1,1,1,-11
17:04:20:282263,-2,0,-1,1,-1,1,1,-11
17:04:20:283104,6,0,0,-1,4,2,1,-24
17:04:20:296650,-2,0,3,1,0,1,3,9
17:04:20:304738,-2,0,3,1,0,1,3,9
17:04:20:305636,-23,-3,-5,-5,2,-3,-14,-52
17:04:20:311629,-6,-3,-1,-3,-2,0,-3,3
17:04:20:319125,-6,-3,-1,-3,-2,0,-3,3
17:04:20:326640,6,-8,0,0,-1,-1,0,23
17:04:20:333993,-4,0,-1,1,-4,-2,-9,-4
17:04:20:341659,-4,0,-1,1,-4,-2,-9,-4
17:04:20:349165,1,-3,-2,-2,-4,-3,2,9
17:04:20:356639,6,1,1,0,2,-1,1,3
17:04:20:364754,6,1,1,0,2,-1,1,3
17:04:20:365656,-7,-1,-2,0,1,-2,-5,-32
17:04:20:379770,-4,-2,-1,-3,-1,-3,-4,8
17:04:20:380638,-4,-2,-1,-3,-1,-3,-4,8
17:04:20:386651,1,2,-1,1,-3,-3,-1,17
17:04:20:394154,0,1,-1,-1,-1,-3,-5,2
17:04:20:401650,0,1,-1,-1,-1,-3,-5,2
17:04:20:409017,-2,1,-3,0,3,0,-1,26
17:04:20:416707,6,-1,-1,0,1,0,-3,7
17:04:20:424759,6,-1,-1,0,1,0,-3,7
17:04:20:425661,-3,2,0,-3,-5,0,-1,-5
17:04:20:439799,6,-2,-1,1,-4,1,5,-5
17:04:20:440678,6,-2,-1,1,-4,1,5,-5
17:04:20:446680,11,0,-1,1,-2,1,6,4
17:04:20:462316,-11,-3,-6,-3,0,0,-3,-25
17:04:20:462995,-11,-3,-6,-3,0,0,-3,-25
17:04:20:469153,-2,0,2,-3,-5,-2,4,9
17:04:20:476646,0,-1,-3,-3,-4,-1,-1,-2
17:04:20:484770,0,-1,-3,-3,-4,-1,-1,-2
17:04:20:485644,-5,-4,-2,-2,-1,1,3,15
17:04:20:499757,-3,1,3,2,-3,-2,0,7
17:04:20:500630,-3,1,3,2,-3,-2,0,7
17:04:20:506645,-5,2,2,0,-2,0,-2,1
17:04:20:514126,-4,0,-2,1,-2,3,6,30
17:04:20:521639,-4,0,-2,1,-2,3,6,30
17:04:20:529032,1,-3,-3,-4,2,-3,-7,4
17:04:20:545399,8,2,1,1,0,1,8,-5
17:04:20:546257,8,2,1,1,0,1,8,-5
17:04:20:547023,6,-1,0,1,1,-4,4,-8
17:04:20:559765,-1,-2,-3,-4,7,-2,-11,-7
17:04:20:560643,-1,-2,-3,-4,7,-2,-11,-7
17:04:20:566654,1,0,-2,0,1,-1,-2,-13
17:04:20:582265,-8,-3,-2,-4,-1,-4,-2,-7
17:04:20:583123,-8,-3,-2,-4,-1,-4,-2,-7
17:04:20:589009,-4,0,-1,-1,4,2,-7,-20
17:04:20:596636,-10,0,-1,-3,-1,-1,-2,7
17:04:20:604766,-10,0,-1,-3,-1,-1,-2,7
17:04:20:605674,7,-1,0,0,-6,-4,2,24
17:04:20:619787,2,-1,0,1,-2,-1,1,-17
17:04:20:620655,2,-1,0,1,-2,-1,1,-17
17:04:20:626632,1,0,1,-1,-2,1,-4,1
17:04:20:634033,1,-2,1,-2,-3,-2,2,3
17:04:20:641652,1,-2,1,-2,-3,-2,2,3
17:04:20:657255,1,0,-2,-1,-1,-2,-2,-1
17:04:20:657997,-4,-3,0,-1,0,-1,-9,-31
17:04:20:664791,-4,-3,0,-1,0,-1,-9,-31
17:04:20:665671,-2,-1,0,0,-1,1,2,7
17:04:20:679807,3,0,-3,0,-2,-1,0,16
17:04:20:680652,3,0,-3,0,-2,-1,0,16
17:04:20:686638,-17,-9,-5,-5,6,-1,-16,-43
17:04:20:694002,-2,-2,-4,-2,-1,0,-3,20
17:04:20:701636,-2,-2,-4,-2,-1,0,-3,20
17:04:20:709135,6,2,1,3,1,0,-1,1
17:04:20:716633,1,-3,0,-1,1,-3,-2,-4
17:04:20:724764,1,-3,0,-1,1,-3,-2,-4
17:04:20:725648,1,-3,0,-1,-7,-1,5,18
17:04:20:740142,3,4,2,3,-3,-1,9,-10
17:04:20:741023,3,4,2,3,-3,-1,9,-10
17:04:20:746668,2,4,0,0,-5,2,7,-5
17:04:20:754138,2,1,2,1,-6,-1,5,46
17:04:20:761627,2,1,2,1,-6,-1,5,46
17:04:20:777275,0,0,-2,-3,1,-1,-6,8
17:04:20:778004,-4,1,-3,-4,1,-1,-4,-8
17:04:20:784770,-4,1,-3,-4,1,-1,-4,-8
17:04:20:785647,0,-3,0,-2,3,1,1,7
17:04:20:799763,5,4,1,-1,-3,0,9,-14
17:04:20:800622,5,4,1,-1,-3,0,9,-14
17:04:20:806649,6,1,-1,1,-3,-3,3,18
17:04:20:814028,-1,-3,-1,0,-2,-1,5,-10
17:04:20:821644,-1,-3,-1,0,-2,-1,5,-10
17:04:20:829177,-9,-1,-2,-1,-2,0,7,-29
17:04:20:836638,-4,-4,-4,-2,1,-1,-3,-10
17:04:20:844762,-4,-4,-4,-2,1,-1,-3,-10
17:04:20:845622,1,-1,-2,0,0,0,5,4
17:04:20:859770,1,-2,-3,-3,0,-1,1,-11
17:04:20:860664,1,-2,-3,-3,0,-1,1,-11
17:04:20:866655,-4,-1,2,-3,-1,-1,-9,-22
17:04:20:874149,-2,-3,-1,0,-1,0,2,10
17:04:20:881646,-2,-3,-1,0,-1,0,2,10
17:04:20:889016,4,-1,-4,-4,-3,-1,7,11
17:04:20:896534,-2,3,-3,0,2,3,-4,22
17:04:20:904756,-2,3,-3,0,2,3,-4,22
17:04:20:905639,-2,0,-2,-2,-3,-5,4,8
17:04:20:919752,-3,-6,-15,-3,-2,-5,-12,27
17:04:20:920636,-3,-6,-15,-3,-2,-5,-12,27
17:04:20:926649,-7,0,-4,1,3,-3,-11,-28
17:04:20:934021,-7,0,-2,2,-1,1,-6,-25
17:04:20:941625,-7,0,-2,2,-1,1,-6,-25
17:04:20:949011,15,1,2,4,-2,4,8,11
17:04:20:956676,1,1,7,2,0,1,-7,-14
17:04:20:964786,1,1,7,2,0,1,-7,-14
17:04:20:965634,3,2,-2,-1,-1,0,-2,-1
17:04:20:979767,3,1,4,-1,1,0,-3,-11
17:04:20:980660,3,1,4,-1,1,0,-3,-11
17:04:20:986676,-3,-1,1,0,2,-2,-2,11
17:04:20:994019,-6,-5,4,-1,5,0,-5,-13
17:04:21:1656,-6,-5,4,-1,5,0,-5,-13
17:04:21:9020,-17,0,0,-2,0,-4,-12,-27
17:04:21:16666,-2,3,3,0,-3,2,2,-3
17:04:21:24804,-2,3,3,0,-3,2,2,-3
17:04:21:25642,-2,-5,-5,-1,1,0,2,-15
17:04:21:39764,6,0,-2,-1,-1,-1,5,10
17:04:21:40636,6,0,-2,-1,-1,-1,5,10
17:04:21:46637,0,0,1,1,-2,-2,-1,13
17:04:21:54060,4,-3,0,1,-5,-1,-2,0
17:04:21:61661,4,-3,0,1,-5,-1,-2,0
17:04:21:69032,1,-3,2,0,-4,-2,-3,11
17:04:21:76650,1,0,0,-5,1,-2,5,2
17:04:21:84782,1,0,0,-5,1,-2,5,2
17:04:21:85639,-6,0,-2,-3,0,-1,-13,-20
17:04:21:99782,2,1,-3,-1,-2,-4,10,4
17:04:21:100631,2,1,-3,-1,-2,-4,10,4
17:04:21:106634,1,-1,-4,-1,-2,-1,3,5
17:04:21:114016,0,-5,-1,-3,-3,1,-8,-4
17:04:21:121651,0,-5,-1,-3,-3,1,-8,-4
17:04:21:129131,5,0,5,0,-3,2,3,-9
17:04:21:136652,-4,1,0,0,4,-3,-5,-25
17:04:21:144827,-4,1,0,0,4,-3,-5,-25
17:04:21:145649,1,0,-1,0,-5,-1,3,30
17:04:21:159773,-8,-2,-1,0,-4,-1,-3,-1
17:04:21:160675,-8,-2,-1,0,-4,-1,-3,-1
17:04:21:174767,3,0,0,-2,1,1,4,2
17:04:21:175501,-5,-2,-2,0,6,-1,0,-13
17:04:21:181682,-5,-2,-2,0,6,-1,0,-13
17:04:21:189141,-2,0,-3,-3,0,-1,2,-5
17:04:21:196644,-2,-3,-2,0,1,-2,-2,-7
17:04:21:204759,-2,-3,-2,0,1,-2,-2,-7
17:04:21:205642,-1,-1,-3,-1,1,-1,2,-9
17:04:21:219769,-3,1,0,3,-1,-4,-10,11
17:04:21:220697,-3,1,0,3,-1,-4,-10,11
17:04:21:226658,-1,0,0,-2,-3,-1,-5,3
17:04:21:234193,0,0,-6,-1,-5,-5,-3,30
17:04:21:241640,0,0,-6,-1,-5,-5,-3,30
17:04:21:249170,3,-1,4,-1,-1,-2,1,-5
17:04:21:256671,0,0,1,-2,-1,1,1,5
17:04:21:264779,0,0,1,-2,-1,1,1,5
17:04:21:265640,-5,-1,-3,-2,1,-2,-7,-4
17:04:21:279769,-3,-3,4,-3,1,1,-3,-16
17:04:21:280637,-3,-3,4,-3,1,1,-3,-16
17:04:21:286635,0,0,1,0,-2,-1,0,-3
17:04:21:302294,0,-1,-2,-1,-4,-3,-1,-8
17:04:21:303005,0,-1,-2,-1,-4,-3,-1,-8
17:04:21:309167,1,-5,-2,-4,0,0,-3,19
17:04:21:316669,-2,0,-1,1,2,2,1,-36
17:04:21:324162,-2,0,-1,1,2,2,1,-36
17:04:21:331655,-1,-1,-2,-1,1,1,2,6
17:04:21:339796,2,1,-4,3,0,-1,6,17
17:04:21:340660,2,1,-4,3,0,-1,6,17
17:04:21:346662,-2,-1,-1,0,0,1,-2,-5
17:04:21:362278,-2,0,1,-3,-3,1,-3,2
17:04:21:363004,-2,0,1,-3,-3,1,-3,2
17:04:21:369011,-3,-3,2,0,-2,-1,-3,12
17:04:21:376637,0,1,1,-2,2,-2,-4,-3
17:04:21:384152,0,1,1,-2,2,-2,-4,-3
17:04:21:391651,0,-2,0,-1,-2,-2,-7,-1
17:04:21:399809,-5,-4,-5,-1,-1,-1,3,19
17:04:21:400637,-5,-4,-5,-1,-1,-1,3,19
17:04:21:406651,-6,-4,-1,-3,1,-3,-9,-29
17:04:21:422286,2,0,2,-1,-2,-1,-3,-4
17:04:21:423154,2,0,2,-1,-2,-1,-3,-4
17:04:21:429026,-1,-1,-2,1,-4,-1,2,2
17:04:21:436673,-2,-2,-4,-3,1,1,4,9
17:04:21:444160,-2,-2,-4,-3,1,1,4,9
17:04:21:451669,0,5,-2,-1,0,-1,0,1
17:04:21:459770,2,1,-2,1,0,-3,1,7
17:04:21:460652,2,1,-2,1,0,-3,1,7
17:04:21:466647,-4,-1,-1,1,-1,-2,-3,8
17:04:21:482290,-4,-2,-2,-5,0,-3,0,-19
17:04:21:483146,-4,-2,-2,-5,0,-3,0,-19
17:04:21:489066,0,0,-1,-2,0,-2,0,2
17:04:21:496654,-6,1,1,1,-2,0,-2,-18
17:04:21:504152,-6,1,1,1,-2,0,-2,-18
17:04:21:511650,-1,-3,-2,-2,1,-3,1,-1
17:04:21:519776,-1,-1,2,1,-1,1,0,-7
17:04:21:520648,-1,-1,2,1,-1,1,0,-7
17:04:21:526640,-2,0,-1,-1,-2,3,-1,-1
17:04:21:542264,2,-1,-4,-2,1,-2,-2,7
17:04:21:543150,2,-1,-4,-2,1,-2,-2,7
17:04:21:549059,-1,-4,0,0,-3,1,1,1
17:04:21:556655,1,2,-2,-2,-2,-3,-2,3
17:04:21:564158,1,2,-2,-2,-2,-3,-2,3
17:04:21:571642,-6,-1,0,-1,1,-2,-1,2
17:04:21:579789,9,-4,-13,5,3,2,-1,0
17:04:21:580655,9,-4,-13,5,3,2,-1,0
17:04:21:586533,3,0,-4,-1,5,-3,-3,-3
17:04:21:602905,-4,5,-12,-3,1,-4,-8,1
17:04:21:603805,-4,5,-12,-3,1,-4,-8,1
17:04:21:609174,2,3,7,0,-3,3,6,0
17:04:21:616675,0,-2,7,-8,2,-2,4,4
17:04:21:624141,0,-2,7,-8,2,-2,4,4
17:04:21:631501,2,2,-7,3,-1,-2,-4,0
17:04:21:639770,-2,-1,24,-4,-4,4,4,1
17:04:21:640657,-2,-1,24,-4,-4,4,4,1
17:04:21:646658,-5,-4,-1,9,3,-10,-7,-2
17:04:21:670407,2,1,-16,2,10,3,0,1
17:04:21:671279,2,1,-16,2,10,3,0,1
17:04:21:672056,4,2,-38,-8,-10,2,5,0
17:04:21:676660,-8,-2,0,1,3,-7,-8,-2
17:04:21:684146,-8,-2,0,1,3,-7,-8,-2
17:04:21:691665,-5,-5,117,-1,16,1,-5,-3
17:04:21:699765,12,6,-81,14,8,2,10,-4
17:04:21:700632,12,6,-81,14,8,2,10,-4
17:04:21:706556,-5,-3,-30,12,-11,-5,4,-6
17:04:21:722280,-4,-2,52,-3,-6,-8,-5,1
17:04:21:723029,-4,-2,52,-3,-6,-8,-5,1
17:04:21:729151,0,0,11,-8,-1,0,-3,0
17:04:21:752916,-6,-4,3,1,-6,0,1,2
17:04:21:753775,-6,-4,3,1,-6,0,1,2
17:04:21:754638,-1,-4,-5,-7,-3,-2,-2,-1
17:04:21:759026,4,2,1,-6,-15,-2,-1,-2
17:04:21:767277,4,2,1,-6,-15,-2,-1,-2
17:04:21:768152,0,1,-14,1,-7,-2,-4,1
17:04:21:782282,-3,-1,21,-1,-7,1,-1,2
17:04:21:783147,-3,-1,21,-1,-7,1,-1,2
17:04:21:789021,-2,2,-14,-3,1,2,1,-4
17:04:21:796645,-1,-7,11,1,-2,-2,-3,-1
17:04:21:804164,-1,-7,11,1,-2,-2,-3,-1
17:04:21:811685,0,-1,-11,2,-1,-3,-2,-1
17:04:21:819031,-4,-6,4,-7,-3,-6,-2,0
17:04:21:827281,-4,-6,4,-7,-3,-6,-2,0
17:04:21:828013,1,-1,4,-2,-4,9,4,3
17:04:21:842265,-3,-1,1,-2,-6,9,0,2
17:04:21:843070,-3,-1,1,-2,-6,9,0,2
17:04:21:849021,0,1,1,-1,1,-6,-3,2
17:04:21:856635,-2,2,-1,-3,-2,-2,-2,-1
17:04:21:864161,-2,2,-1,-3,-2,-2,-2,-1
17:04:21:871665,-1,-2,-2,-2,5,-4,-1,-1
17:04:21:879770,-1,1,2,1,0,-2,-2,0
17:04:21:880639,-1,1,2,1,0,-2,-2,0
17:04:21:886522,-1,-1,-2,2,-1,9,1,1
17:04:21:902325,1,1,2,1,1,0,0,1
17:04:21:902996,1,1,2,1,1,0,0,1
17:04:21:909160,-1,-3,-3,-1,-4,-5,0,1
17:04:21:916692,-1,-1,3,0,-1,8,1,0
17:04:21:924135,-1,-1,3,0,-1,8,1,0
17:04:21:931538,-4,-2,2,-2,4,-3,-4,0
17:04:21:939088,-1,-3,-3,-7,3,-4,-6,0
17:04:21:947276,-1,-3,-3,-7,3,-4,-6,0
17:04:21:948139,-7,0,-5,0,2,5,-6,0
17:04:21:962293,-2,0,-4,1,6,-5,-2,-5
17:04:21:963017,-2,0,-4,1,6,-5,-2,-5
17:04:21:969043,4,2,-6,-2,-5,-3,6,-3
17:04:21:976540,-2,-6,0,-4,-2,-6,1,-4
17:04:21:984141,-2,-6,0,-4,-2,-6,1,-4
17:04:21:991655,-1,-4,1,-3,1,2,0,-1
17:04:22:7906,0,0,2,-2,-2,1,-1,0
17:04:22:8771,0,0,2,-2,-2,1,-1,0
17:04:22:9645,0,3,-2,-4,-5,-4,0,1
17:04:22:22301,-3,1,-1,0,0,9,-5,-14
17:04:22:23000,-3,1,-1,0,0,9,-5,-14
17:04:22:29035,6,-1,-1,0,1,-6,1,-2
17:04:22:36524,7,1,0,1,-6,-8,-3,7
17:04:22:52282,7,1,0,1,-6,-8,-3,7
17:04:22:53059,3,0,-3,-2,-3,0,2,8
17:04:22:59174,-6,-1,-2,0,1,-1,-4,2
17:04:22:67317,-6,-1,-2,0,1,-1,-4,2
17:04:22:68059,-7,-4,-3,-2,-1,-2,-4,-6
17:04:22:82321,-3,-3,2,-2,1,0,-2,-15
17:04:22:83067,-3,-3,2,-2,1,0,-2,-15
17:04:22:89059,-2,-2,2,-3,0,4,-4,2
17:04:22:96660,1,3,1,5,-1,-3,-2,-1
17:04:22:104156,1,3,1,5,-1,-3,-2,-1
17:04:22:111549,0,-1,-1,1,-2,1,1,-17
17:04:22:119000,0,0,0,-1,-2,-3,0,3
17:04:22:127285,0,0,0,-1,-2,-3,0,3
17:04:22:128032,-8,-4,-1,1,-3,-3,-6,2
17:04:22:142301,-3,-1,-1,-1,-2,-4,3,4
17:04:22:143029,-3,-1,-1,-1,-2,-4,3,4
17:04:22:149047,2,1,0,-1,0,-3,-1,2
17:04:22:156582,5,-3,-1,2,-2,0,3,5
17:04:22:164181,5,-3,-1,2,-2,0,3,5
17:04:22:171669,5,3,0,-3,2,-2,1,0
17:04:22:179035,1,0,-1,1,-4,-2,-1,-6
17:04:22:187300,1,0,-1,1,-4,-2,-1,-6
17:04:22:188174,-5,0,-2,-6,-1,0,1,-1
17:04:22:202298,-2,-1,-4,-17,5,3,4,4
17:04:22:203152,-2,-1,-4,-17,5,3,4,4
17:04:22:209055,-3,-2,2,7,1,-2,-1,3
17:04:22:216668,-2,0,2,-10,0,-3,1,-5
17:04:22:224139,-2,0,2,-10,0,-3,1,-5
17:04:22:231666,0,-2,1,3,3,0,-2,-4
17:04:22:239000,3,0,-2,7,4,7,0,4
17:04:22:246653,3,0,-2,7,4,7,0,4
17:04:22:254024,-1,-1,-3,-5,-3,-4,-5,0
17:04:22:262279,-5,-3,2,-1,-3,-5,-3,5
17:04:22:263027,-5,-3,2,-1,-3,-5,-3,5
17:04:22:269169,-5,-1,-2,4,2,4,0,-3
17:04:22:284807,-3,0,-1,-5,-9,0,-4,-2
17:04:22:285681,-3,0,-1,-5,-9,0,-4,-2
17:04:22:291655,-2,-3,-4,-24,-10,-10,3,0
17:04:22:299036,-3,-4,1,2,4,2,-3,1
17:04:22:306691,-3,-4,1,2,4,2,-3,1
17:04:22:322901,1,0,0,2,-2,1,2,4
17:04:22:323656,-2,1,-1,3,-1,-1,2,-11
17:04:22:324518,-2,1,-1,3,-1,-1,2,-11
17:04:22:329050,-2,-1,1,3,-4,-6,-2,4
17:04:22:344780,0,-1,1,2,-9,-2,-4,3
17:04:22:345662,0,-1,1,2,-9,-2,-4,3
17:04:22:351691,-2,-2,0,1,5,-1,-2,-5
17:04:22:359078,-4,-3,-2,-1,-4,-3,-4,2
17:04:22:366648,-4,-3,-2,-1,-4,-3,-4,2
17:04:22:374159,-3,-1,-1,10,-12,6,-4,0
17:04:22:382269,-3,2,-4,13,8,-1,5,-2
17:04:22:383021,-3,2,-4,13,8,-1,5,-2
17:04:22:396685,2,-1,0,11,4,9,2,1
17:04:22:404798,-1,-3,0,-6,-14,-8,-2,-3
17:04:22:405658,-1,-3,0,-6,-14,-8,-2,-3
17:04:22:419781,1,0,0,6,1,-3,0,-2
17:04:22:420527,-2,-3,-3,-4,4,0,-2,-2
17:04:22:426666,-2,-3,-3,-4,4,0,-2,-2
17:04:22:434027,-1,-2,-2,-7,-2,-5,-3,-2
17:04:22:442277,1,0,2,3,2,-2,-2,0
17:04:22:443010,1,0,2,3,2,-2,-2,0
17:04:22:449055,-1,-1,-2,-6,-2,1,-2,-2
17:04:22:465412,-2,1,1,3,2,-4,-4,-2
17:04:22:466152,-2,1,1,3,2,-4,-4,-2
17:04:22:471638,0,-1,-2,-4,1,-5,-2,-2
17:04:22:479026,1,1,-2,-2,-3,9,1,1
17:04:22:486660,1,1,-2,-2,-3,9,1,1
17:04:22:502905,-3,1,-1,-6,2,-4,-2,-7
17:04:22:503680,0,0,-2,-2,-4,-5,0,-1
17:04:22:504535,0,0,-2,-2,-4,-5,0,-1
17:04:22:509034,-2,0,0,1,0,-4,-3,0
17:04:22:525171,-3,2,-1,-2,5,0,-2,-1
17:04:22:526021,-3,2,-1,-2,5,0,-2,-1
17:04:22:531669,-2,-4,0,-2,0,-5,-3,-2
17:04:22:539030,-1,-2,0,-1,1,0,0,-1
17:04:22:546667,-1,-2,0,-1,1,0,0,-1
17:04:22:554043,-1,1,1,-1,-1,-1,-2,-2
17:04:22:562298,-1,1,1,-1,-1,-1,-2,-2
17:04:22:563021,0,-2,-4,0,2,-1,-1,1
17:04:22:569034,-1,1,1,-2,3,6,2,7
17:04:22:584808,-1,1,1,-2,3,6,2,7
17:04:22:585660,-1,0,0,-3,-6,-4,-2,-4
17:04:22:591669,-2,-2,-3,0,-4,-1,-1,-2
17:04:22:607279,-2,-2,-3,0,-4,-1,-1,-2
17:04:22:608146,-3,-4,0,-1,1,0,-2,0
17:04:22:614046,-5,-2,-7,-5,2,-2,2,-6
17:04:22:622298,-5,-2,-7,-5,2,-2,2,-6
17:04:22:623078,2,1,-6,1,-3,0,-4,1
17:04:22:629037,0,1,1,-1,0,-3,-5,-2
17:04:22:644782,0,1,1,-1,0,-3,-5,-2
17:04:22:645639,0,3,-1,-2,-1,1,2,0
17:04:22:651658,2,-3,-1,-1,-4,-5,-1,-3
17:04:22:667297,2,-3,-1,-1,-4,-5,-1,-3
17:04:22:668170,-2,-2,-2,-2,0,-1,-6,-14
17:04:22:674030,-3,-3,-1,-3,-1,1,-2,13
17:04:22:682293,-3,-3,-1,-3,-1,1,-2,13
17:04:22:683033,-3,-4,-1,-2,2,4,-2,-2
17:04:22:689060,-2,2,1,1,3,1,4,-4
17:04:22:704807,-2,2,1,1,3,1,4,-4
17:04:22:705669,-2,-2,1,-4,1,-3,0,1
17:04:22:711640,-1,-3,-2,1,-3,0,-3,-2
17:04:22:727303,-1,-3,-2,1,-3,0,-3,-2
17:04:22:728154,1,-2,-3,-1,-2,-4,-2,3
17:04:22:734056,0,-1,1,-2,-1,-4,-4,-6
17:04:22:742310,0,-1,1,-2,-1,-4,-4,-6
17:04:22:743150,0,-1,0,-2,-2,2,0,-1
17:04:22:749022,2,-1,1,-1,-2,-2,-1,-4
17:04:22:764802,2,-1,1,-1,-2,-2,-1,-4
17:04:22:765664,-4,0,0,0,-2,1,4,0
17:04:22:771656,0,-1,-1,0,1,4,1,1
17:04:22:787350,0,-1,-1,0,1,4,1,1
17:04:22:788059,0,0,0,0,-4,-4,-4,-5
17:04:22:802940,1,0,-1,-3,1,-5,-1,1
17:04:22:803802,1,0,-1,-3,1,-5,-1,1
17:04:22:804549,1,-4,-4,0,1,0,-1,10
17:04:22:809026,-1,-2,-5,-3,-3,7,0,5
17:04:22:824797,-1,-2,-5,-3,-3,7,0,5
17:04:22:825650,-2,-2,-1,-1,0,-6,-3,-3
17:04:22:831530,-1,-2,0,0,0,3,1,0
17:04:22:847274,-1,-2,0,0,0,3,1,0
17:04:22:848026,-1,1,0,-3,-2,-1,0,1
17:04:22:854038,-10,-1,1,0,-1,-2,0,4
17:04:22:862275,-10,-1,1,0,-1,-2,0,4
17:04:22:863099,-8,-1,-5,3,-1,0,2,-4
17:04:22:869049,-1,1,-9,-1,-1,-1,3,10
17:04:22:884817,-1,1,-9,-1,-1,-1,3,10
17:04:22:885746,1,1,8,-3,-2,-1,2,5
17:04:22:891709,-4,0,5,1,3,3,0,-13
17:04:22:907304,-4,0,5,1,3,3,0,-13
17:04:22:908181,10,-4,-2,-1,-1,1,-1,-6
17:04:22:914032,1,-6,-1,-1,0,-2,-2,-8
17:04:22:922317,1,-6,-1,-1,0,-2,-2,-8
17:04:22:923082,2,0,0,-3,0,-2,0,-2
17:04:22:929061,-2,-3,-1,-1,-5,-4,-3,-1
17:04:22:944777,-2,-3,-1,-1,-5,-4,-3,-1
17:04:22:945687,-2,0,-3,0,1,3,-1,1
17:04:22:951683,-2,1,-2,0,2,0,2,2
17:04:22:967295,-2,1,-2,0,2,0,2,2
17:04:22:968148,-5,-2,-2,-3,-2,-2,2,-10
17:04:22:974041,0,1,-1,-2,-4,-3,-4,0
17:04:22:982312,0,1,-1,-2,-4,-3,-4,0
17:04:22:983075,-4,2,1,1,-1,-2,-3,0
17:04:22:989026,2,-2,-1,1,-1,1,0,-4
17:04:23:4794,2,-2,-1,1,-1,1,0,-4
17:04:23:5680,-1,0,-2,-3,0,-3,-4,-8
17:04:23:11687,0,-2,-2,-2,0,-2,-4,0
17:04:23:27308,0,-2,-2,-2,0,-2,-4,0
17:04:23:28153,-2,2,2,-2,-3,-1,0,2
17:04:23:34032,-5,1,0,-2,-1,-1,1,2
17:04:23:42284,-5,1,0,-2,-1,-1,1,2
17:04:23:43155,1,0,-1,-1,-5,-4,-1,7
17:04:23:49031,4,0,-3,1,-1,-1,3,8
17:04:23:64806,4,0,-3,1,-1,-1,3,8
17:04:23:65677,-4,-3,-3,-3,-1,-4,-3,-16
17:04:23:79084,6,3,2,-1,-4,-2,-2,0
17:04:23:87303,6,3,2,-1,-4,-2,-2,0
17:04:23:88047,-9,4,1,1,0,3,0,3
17:04:23:94021,1,1,-2,-3,1,1,-1,-3
17:04:23:102290,1,1,-2,-3,1,1,-1,-3
17:04:23:103173,-5,-11,-4,-1,0,0,-2,16
17:04:23:116548,0,5,1,0,-2,-5,-3,-3
17:04:23:124792,0,5,1,0,-2,-5,-3,-3
17:04:23:125665,4,-9,1,-2,-1,-1,-2,5
17:04:23:131575,4,6,2,-1,-2,-1,-3,-6
17:04:23:147304,4,6,2,-1,-2,-1,-3,-6
17:04:23:148061,4,0,0,1,-1,-2,0,-1
17:04:23:154040,-2,-2,-2,-1,-3,-1,-2,0
17:04:23:162308,-2,-2,-2,-1,-3,-1,-2,0
17:04:23:163025,-3,4,-1,0,-1,-4,-2,-4
17:04:23:176548,0,0,-4,0,-2,-3,-1,1
17:04:23:184809,0,0,-4,0,-2,-3,-1,1
17:04:23:185698,2,2,-1,1,-3,-4,-1,-5
17:04:23:191684,-4,-3,0,1,0,0,0,-8
17:04:23:207292,-4,-3,0,1,0,0,0,-8
17:04:23:208023,2,5,-2,-1,-1,-3,0,10
17:04:23:214040,-4,-3,-2,-4,1,3,-4,5
17:04:23:222276,-4,-3,-2,-4,1,3,-4,5
17:04:23:223102,0,-5,-2,0,2,-1,-1,-7
17:04:23:236693,-4,2,1,0,-3,-2,-3,-5
17:04:23:244789,-4,2,1,0,-3,-2,-3,-5
17:04:23:245662,-3,-4,-1,1,0,1,-1,7
17:04:23:251512,0,-6,-3,0,0,1,2,3
17:04:23:259197,0,-6,-3,0,0,1,2,3
17:04:23:266560,2,6,0,-2,-3,-1,-4,2
17:04:23:274082,-3,-1,-3,-2,-2,-1,-3,-4
17:04:23:282301,-3,-1,-3,-2,-2,-1,-3,-4
17:04:23:283033,-4,-3,1,-1,1,2,3,-3
17:04:23:296545,3,4,2,-1,-2,-3,0,-1
17:04:23:304814,3,4,2,-1,-2,-3,0,-1
17:04:23:305689,-5,-2,-4,-2,-3,-9,-7,-9
17:04:23:311561,-3,-5,0,0,3,9,0,4
17:04:23:319222,-3,-5,0,0,3,9,0,4
17:04:23:326688,0,1,-1,-2,0,-3,-2,1
17:04:23:334051,0,-3,-3,-1,-2,-5,-1,0
17:04:23:342302,0,-3,-3,-1,-2,-5,-1,0
17:04:23:343151,-2,-4,-4,-2,6,19,1,-4
17:04:23:356524,-1,-2,0,-2,-3,-8,-1,-5
17:04:23:364772,-1,-2,0,-2,-3,-8,-1,-5
17:04:23:365624,-7,-4,0,1,-3,-6,1,-2
17:04:23:371649,-2,-1,-1,-2,1,5,1,-2
17:04:23:387291,-2,-1,-1,-2,1,5,1,-2
17:04:23:388017,-1,3,-1,-5,2,3,-3,3
17:04:23:394010,-2,1,0,-1,-1,2,2,-3
17:04:23:402273,-2,1,0,-1,-1,2,2,-3
17:04:23:403148,2,-2,1,2,0,-11,-4,-3
17:04:23:416519,1,0,-1,2,1,7,1,1
17:04:23:424774,1,0,-1,2,1,7,1,1
17:04:23:425635,1,1,-2,-3,-4,0,-1,0
17:04:23:431542,-2,1,2,-4,-1,-2,1,-4
17:04:23:447299,-2,1,2,-4,-1,-2,1,-4
17:04:23:448055,0,0,2,1,-1,-5,-2,-4
17:04:23:454073,0,0,0,2,2,-4,1,-3
17:04:23:462302,0,0,0,2,2,-4,1,-3
17:04:23:463034,-5,-1,-4,-1,1,7,-1,-7
17:04:23:476570,-3,-4,-6,3,-7,-10,0,1
17:04:23:484809,-3,-4,-6,3,-7,-10,0,1
17:04:23:485659,2,1,-5,2,-2,1,4,-4
17:04:23:491539,-1,-4,-1,-3,-1,4,-4,-3
17:04:23:507809,-1,-4,-1,-3,-1,4,-4,-3
17:04:23:508529,1,0,-8,-3,-7,-4,0,4
17:04:23:514047,-10,-3,-6,-1,-5,-6,-10,-11
17:04:23:522311,-10,-3,-6,-1,-5,-6,-10,-11
17:04:23:523068,5,2,5,-5,0,1,-5,-10
17:04:23:536689,-1,-1,-11,-6,0,3,5,2
17:04:23:544789,-1,-1,-11,-6,0,3,5,2
17:04:23:545652,4,2,9,4,0,-2,7,10
17:04:23:551567,-1,-2,-3,0,3,0,5,10
17:04:23:567330,-1,-2,-3,0,3,0,5,10
17:04:23:568040,-1,1,1,-2,-1,-5,0,8
17:04:23:582916,-3,3,-7,-4,1,-5,-5,0
17:04:23:583805,-3,3,-7,-4,1,-5,-5,0
17:04:23:584553,-4,-3,-2,0,-4,-5,-4,-5
17:04:23:596684,0,2,5,2,6,7,2,-2
17:04:23:604799,0,2,5,2,6,7,2,-2
17:04:23:605670,-2,-3,1,1,1,8,-3,-3
17:04:23:611675,4,1,3,3,-2,-9,-4,-1
17:04:23:635427,4,1,3,3,-2,-9,-4,-1
17:04:23:636319,-3,-4,-2,-3,-3,-6,-1,-2
17:04:23:637028,9,1,-5,-4,2,2,3,-1
17:04:23:642294,9,1,-5,-4,2,2,3,-1
17:04:23:643009,0,-3,-9,-5,5,2,-7,4
17:04:23:656577,-10,-3,5,0,1,2,-8,-4
17:04:23:664826,-10,-3,5,0,1,2,-8,-4
17:04:23:665675,-5,0,-1,-1,1,-2,-1,-3
17:04:23:671552,3,4,1,1,-1,7,-1,-2
17:04:23:688419,3,4,1,1,-1,7,-1,-2
17:04:23:695154,-1,-3,-12,-2,-3,-4,-2,-4
17:04:23:702897,-3,0,0,-1,-4,-7,-5,-7
17:04:23:703788,-3,0,0,-1,-4,-7,-5,-7
17:04:23:704538,0,-3,-6,-2,-3,-1,0,3
17:04:23:716664,-7,-4,-6,-5,1,-1,-1,-6
17:04:23:724801,-7,-4,-6,-5,1,-1,-1,-6
17:04:23:725678,0,-1,7,-1,1,-2,-5,-8
17:04:23:731538,0,-4,3,-3,1,0,-2,2
17:04:23:747292,0,-4,3,-3,1,0,-2,2
17:04:23:748040,4,0,4,5,-2,-4,1,1
17:04:23:754030,4,0,8,3,-1,-4,-1,4
17:04:23:762302,4,0,8,3,-1,-4,-1,4
17:04:23:763038,-6,-3,2,3,0,0,-1,1
17:04:23:776697,3,-2,-4,-5,-2,-2,0,4
17:04:23:784806,3,-2,-4,-5,-2,-2,0,4
17:04:23:785663,3,1,5,2,1,3,0,-1
17:04:23:791687,-1,-2,-2,-1,-5,-4,0,-1
17:04:23:807333,-1,-2,-2,-1,-5,-4,0,-1
17:04:23:808043,-4,1,-2,1,9,3,-3,-4
17:04:23:814050,0,-1,3,0,-6,-2,-3,1
17:04:23:822290,0,-1,3,0,-6,-2,-3,1
17:04:23:823023,-3,-4,-3,-2,-4,0,1,1
17:04:23:836684,-2,-5,-6,-3,-8,-5,-2,-1
17:04:23:844828,-2,-5,-6,-3,-8,-5,-2,-1
17:04:23:845657,-1,2,1,9,5,-2,0,1
17:04:23:851678,-3,-2,-3,-3,-7,5,-2,-1
17:04:23:867306,-3,-2,-3,-3,-7,5,-2,-1
17:04:23:868172,-5,0,-7,-3,-4,-7,-3,-1
17:04:23:874031,-2,0,6,4,14,0,-3,0
17:04:23:882303,-2,0,6,4,14,0,-3,0
17:04:23:883039,1,-2,-9,6,3,0,5,-2
17:04:23:896702,3,0,5,7,-11,4,7,-1
17:04:23:904544,3,0,5,7,-11,4,7,-1
17:04:23:912319,2,1,2,-12,0,-2,5,-2
17:04:23:913051,2,3,-1,-10,8,-2,1,0
17:04:23:927328,2,3,-1,-10,8,-2,1,0
17:04:23:928165,-5,-5,-3,-13,-7,-1,-3,1
17:04:23:934080,-13,-4,-4,13,-4,-6,-9,-2
17:04:23:942317,-13,-4,-4,13,-4,-6,-9,-2
17:04:23:943095,-1,-2,5,7,2,5,0,-3
17:04:23:956585,-1,-2,-2,8,-7,-4,-1,1
17:04:23:964815,-1,-2,-2,8,-7,-4,-1,1
17:04:23:965665,-1,1,2,7,6,5,0,1
17:04:23:971653,3,4,5,-3,4,-3,1,-3
17:04:23:987290,3,4,5,-3,4,-3,1,-3
17:04:23:988036,0,0,8,1,1,-3,-5,1
17:04:23:994053,-1,-2,-10,2,1,-1,-2,-3
17:04:24:2286,-1,-2,-10,2,1,-1,-2,-3
17:04:24:3142,1,-5,3,0,-4,-1,-1,-1
17:04:24:16591,2,0,-4,1,8,5,6,0
17:04:24:24831,2,0,-4,1,8,5,6,0
17:04:24:25712,-1,-4,-7,8,-9,-3,-5,0
17:04:24:31665,1,-1,0,0,-3,-1,-1,0
17:04:24:47324,1,-1,0,0,-3,-1,-1,0
17:04:24:48133,4,2,0,-3,-1,1,2,1
17:04:24:54074,0,-3,0,-9,2,-3,-5,1
17:04:24:62289,0,-3,0,-9,2,-3,-5,1
17:04:24:63026,-1,-4,-6,-9,0,1,0,-4
17:04:24:76560,-1,1,5,-2,-7,-9,-7,-3
17:04:24:84821,-1,1,5,-2,-7,-9,-7,-3
17:04:24:85704,-1,0,0,-7,2,0,-1,0
17:04:24:91554,0,-2,3,11,9,2,1,-4
17:04:24:107305,0,-2,3,11,9,2,1,-4
17:04:24:108035,-3,-3,-5,-7,-30,-6,2,0
17:04:24:114060,-3,-2,2,0,-2,0,-2,1
17:04:24:121675,-3,-2,2,0,-2,0,-2,1
17:04:24:129052,-3,-2,-2,-19,-4,-6,-3,0
17:04:24:136539,1,-2,-5,-11,-4,-3,-1,-1
17:04:24:144798,1,-2,-5,-11,-4,-3,-1,-1
17:04:24:145675,-3,0,1,5,4,-1,-4,-2
17:04:24:159080,-6,-2,-5,-11,2,-1,-5,-1
17:04:24:167363,-6,-2,-5,-11,2,-1,-5,-1
17:04:24:168121,0,4,1,-5,1,2,-1,1
17:04:24:174072,-3,-1,3,4,-1,1,-4,2
17:04:24:181676,-3,-1,3,4,-1,1,-4,2
17:04:24:189051,-4,-1,6,7,-13,-3,-4,-3
17:04:24:205454,-3,-3,5,0,-25,-5,-9,1
17:04:24:206304,-3,-3,5,0,-25,-5,-9,1
17:04:24:207029,-2,-1,0,-6,11,3,0,-2
17:04:24:227966,0,3,1,-2,3,1,4,0
17:04:24:228668,0,3,1,-2,3,1,4,0
17:04:24:229563,-2,2,-5,4,-1,-3,0,0
17:04:24:234034,2,1,-1,0,3,-4,-1,-2
17:04:24:241702,2,1,-1,0,3,-4,-1,-2
17:04:24:249055,1,0,-3,0,8,2,-1,2
17:04:24:256551,0,-3,-3,-1,4,3,1,-1
17:04:24:264860,0,-3,-3,-1,4,3,1,-1
17:04:24:265725,0,-1,2,-3,0,-4,-4,-1
17:04:24:279093,0,-2,-4,1,1,-1,1,1
17:04:24:287294,0,-2,-4,1,1,-1,1,1
17:04:24:288039,-3,-1,4,2,5,1,-1,2
17:04:24:294054,0,-1,-2,-3,3,-3,2,-2
17:04:24:301687,0,-1,-2,-3,3,-3,2,-2
17:04:24:309074,1,0,-7,5,2,-3,-1,-2
17:04:24:316539,-4,-2,2,1,4,9,1,-2
17:04:24:324802,-4,-2,2,1,4,9,1,-2
17:04:24:325672,14,0,0,-1,0,-7,-2,-3
17:04:24:339077,21,-2,-6,-1,6,2,0,0
17:04:24:347319,21,-2,-6,-1,6,2,0,0
17:04:24:348085,11,-1,-3,-6,-12,-1,0,0
17:04:24:354042,24,-3,-2,4,11,-27,0,-12
17:04:24:361675,24,-3,-2,4,11,-27,0,-12
17:04:24:377169,-97,-47,12,-14,76,25,-94,44
17:04:24:378048,-62,1,-3,-4,-6,18,-15,5
17:04:24:384811,-62,1,-3,-4,-6,18,-15,5
17:04:24:385690,-2,11,-6,3,-15,0,18,-7
17:04:24:399104,17,7,-3,-3,-20,-7,16,-8
17:04:24:407335,17,7,-3,-3,-20,-7,16,-8
17:04:24:408057,25,11,-2,1,-21,-5,24,-14
17:04:24:414043,3,-4,5,3,10,0,-8,3
17:04:24:421691,3,-4,5,3,10,0,-8,3
17:04:24:429052,18,6,2,9,-13,-14,17,-13
17:04:24:445421,-8,-2,3,-1,11,5,-7,6
17:04:24:446299,-8,-2,3,-1,11,5,-7,6
17:04:24:447091,11,8,-2,1,-29,-18,8,-11
17:04:24:459087,-3,1,0,0,2,27,-2,-4
17:04:24:467305,-3,1,0,0,2,27,-2,-4
17:04:24:468057,2,-2,-3,-2,-2,-5,2,-1
17:04:24:474045,-1,-2,-5,-5,-14,-13,-3,-4
17:04:24:481698,-1,-2,-5,-5,-14,-13,-3,-4
17:04:24:489058,-2,-1,-2,-2,4,4,-2,-2
17:04:24:496558,0,-1,3,-3,-5,-5,3,0
17:04:24:504813,0,-1,3,-3,-5,-5,3,0
17:04:24:505696,0,2,1,-4,-5,0,4,-2
17:04:24:519078,-4,-4,-2,-2,0,-3,-6,-1
17:04:24:527297,-4,-4,-2,-2,0,-3,-6,-1
17:04:24:528070,-1,2,-6,-3,2,4,-1,-1
17:04:24:534057,-2,1,-5,-5,2,-5,-3,2
17:04:24:541682,-2,1,-5,-5,2,-5,-3,2
17:04:24:549058,0,2,0,2,12,7,5,-1
17:04:24:556559,0,2,-5,1,-1,-9,-2,0
17:04:24:564806,0,2,-5,1,-1,-9,-2,0
17:04:24:565677,1,-15,-3,-4,0,4,2,-2
17:04:24:579089,-2,-1,4,0,4,-3,-1,1
17:04:24:587304,-2,-1,4,0,4,-3,-1,1
17:04:24:588067,5,2,0,1,0,-3,-2,-2
17:04:24:594042,2,-4,-3,-2,-3,0,-1,-3
17:04:24:601685,2,-4,-3,-2,-3,0,-1,-3
17:04:24:609059,0,2,-3,0,-5,-1,0,-3
17:04:24:616714,-6,10,1,3,4,3,2,-1
17:04:24:624804,-6,10,1,3,4,3,2,-1
17:04:24:625552,-5,-12,-3,-1,-4,-5,-5,-3
17:04:24:639070,-1,-6,-9,-6,-8,-7,0,1
17:04:24:647347,-1,-6,-9,-6,-8,-7,0,1
17:04:24:648186,4,16,6,-1,-6,-4,1,0
17:04:24:654057,-2,-13,5,-6,-12,-5,-4,-2
17:04:24:669809,-2,-13,5,-6,-12,-5,-4,-2
17:04:24:670688,0,-5,-5,0,2,4,-2,1
17:04:24:676553,-1,2,8,5,10,4,-3,-1
17:04:24:684812,-1,2,8,5,10,4,-3,-1
17:04:24:685686,1,-8,7,5,3,-4,0,-3
17:04:24:699097,-4,-7,-5,-2,-5,2,-1,-1
17:04:24:707318,-4,-7,-5,-2,-5,2,-1,-1
17:04:24:708050,-4,8,-5,-2,6,-1,-3,1
17:04:24:714086,7,1,6,-11,-2,-6,0,-3
17:04:24:721693,7,1,6,-11,-2,-6,0,-3
17:04:24:729059,28,1,-23,-10,-2,-2,-7,-1
17:04:24:736679,1,1,-1,1,14,1,-2,0
17:04:24:752328,1,1,-1,1,14,1,-2,0
17:04:24:753193,-27,3,7,12,6,1,4,0
17:04:24:759098,-8,-3,-6,-4,-24,-7,-8,-3
17:04:24:767313,-8,-3,-6,-4,-24,-7,-8,-3
17:04:24:768052,19,4,-5,-4,3,2,2,-5
17:04:24:774057,31,-2,-3,15,0,4,0,3
17:04:24:781689,31,-2,-3,15,0,4,0,3
17:04:24:789058,4,5,43,27,11,6,3,0
17:04:24:796582,-25,11,-19,-2,-3,-3,-4,1
17:04:24:804820,-25,11,-19,-2,-3,-3,-4,1
17:04:24:805686,-66,-1,-4,12,-13,-11,-2,0
17:04:24:827925,-8,-17,-4,1,10,2,-3,-4
17:04:24:828789,-8,-17,-4,1,10,2,-3,-4
17:04:24:829712,-10,-8,-40,-10,-4,-4,0,1
17:04:24:834066,-6,4,-14,4,-2,5,2,0
17:04:24:841746,-6,4,-14,4,-2,5,2,0
17:04:24:849059,10,1,-3,-6,8,2,3,-4
17:04:24:865466,30,7,0,-3,2,-1,1,-2
17:04:24:866176,30,7,0,-3,2,-1,1,-2
17:04:24:867026,16,2,15,-5,6,3,0,2
17:04:24:879117,16,0,-16,-12,-1,-3,5,-2
17:04:24:887934,16,0,-16,-12,-1,-3,5,-2
17:04:24:888812,-15,-11,1,-4,-19,-13,-7,2
17:04:24:894043,-26,-17,-22,-33,-28,-14,-14,-3
17:04:24:901684,-26,-17,-22,-33,-28,-14,-14,-3
17:04:24:909055,17,5,-8,-19,6,8,1,-2
17:04:24:916678,-9,-1,19,2,10,7,0,0
17:04:24:924826,-9,-1,19,2,10,7,0,0
17:04:24:925570,2,1,-13,-4,-6,-2,-3,-4
17:04:24:939035,-2,6,4,-4,-1,-1,4,-2
17:04:24:947318,-2,6,4,-4,-1,-1,4,-2
17:04:24:948081,3,5,6,4,-9,2,-2,-1
17:04:24:954034,-2,2,7,8,5,-2,-2,-2
17:04:24:961714,-2,2,7,8,5,-2,-2,-2
17:04:24:977328,-1,-6,2,-2,2,-1,-5,-1
17:04:24:978084,-3,-5,14,8,-1,0,2,1
17:04:24:984810,-3,-5,14,8,-1,0,2,1
17:04:24:985569,2,-2,4,-5,-23,-11,-2,-4
17:04:24:999820,-3,-6,20,-3,-6,-3,0,1
17:04:25:681,-3,-6,20,-3,-6,-3,0,1
17:04:25:6690,-1,-9,-11,8,13,1,0,1
17:04:25:14075,-4,-5,-32,12,11,3,0,-2
17:04:25:21682,-4,-5,-32,12,11,3,0,-2
17:04:25:29081,-1,0,1,0,-2,1,4,-2
17:04:25:36690,4,2,4,1,7,2,1,3
17:04:25:44808,4,2,4,1,7,2,1,3
17:04:25:45712,-2,-7,-14,-6,-14,-3,-1,0
17:04:25:59808,0,4,9,-1,5,0,3,0
17:04:25:60540,0,4,9,-1,5,0,3,0
17:04:25:66717,-1,-2,19,-8,0,4,-3,2
17:04:25:82321,-3,-8,6,3,-2,-5,-2,-3
17:04:25:83163,-3,-8,6,3,-2,-5,-2,-3
17:04:25:89100,1,6,21,5,6,1,-1,1
17:04:25:96677,-2,9,-1,0,-1,0,1,1
17:04:25:104069,-2,9,-1,0,-1,0,1,1
17:04:25:111701,-3,-4,-5,6,1,0,-2,-3
17:04:25:119800,-4,4,4,5,-1,-4,-4,-9
17:04:25:120683,-4,4,4,5,-1,-4,-4,-9
17:04:25:126602,0,5,-16,-15,-13,-8,3,1
17:04:25:142325,8,-9,-6,-3,5,1,0,4
17:04:25:143075,8,-9,-6,-3,5,1,0,4
17:04:25:149092,6,-44,-13,-3,9,1,-3,-6
17:04:25:156683,9,10,2,8,-5,0,2,8
17:04:25:164068,9,10,2,8,-5,0,2,8
17:04:25:171563,-20,10,1,3,13,4,0,-3
17:04:25:179079,-17,1,-2,-9,-21,-8,-5,2
17:04:25:187276,-17,1,-2,-9,-21,-8,-5,2
17:04:25:188051,-21,-1,-23,-4,-6,-11,-4,-1
17:04:25:202333,1,3,-5,-3,2,-3,2,-4
17:04:25:203078,1,3,-5,-3,2,-3,2,-4
17:04:25:209086,20,2,4,-7,-4,1,-4,1
17:04:25:216544,2,-3,-4,0,0,-2,-8,0
17:04:25:224201,2,-3,-4,0,0,-2,-8,0
17:04:25:231550,0,-2,6,4,17,6,1,-2
17:04:25:239032,0,1,7,-2,5,1,0,-4
17:04:25:247316,0,1,7,-2,5,1,0,-4
17:04:25:248056,0,6,2,3,-2,-3,3,2
17:04:25:262316,-5,-1,-9,2,1,1,2,3
17:04:25:263037,-5,-1,-9,2,1,1,2,3
17:04:25:269066,3,1,0,-3,-2,0,1,1
17:04:25:276532,-3,-4,-2,-1,2,2,1,-4
17:04:25:284157,-3,-4,-2,-1,2,2,1,-4
17:04:25:299690,2,14,3,2,-21,-7,-5,3
17:04:25:300556,-2,17,1,-4,0,-3,0,-4
17:04:25:307299,-2,17,1,-4,0,-3,0,-4
17:04:25:308102,-3,-19,-13,-2,5,4,-4,0
17:04:25:322309,1,-14,-1,-5,-4,-2,-1,-2
17:04:25:323034,1,-14,-1,-5,-4,-2,-1,-2
17:04:25:337341,-1,9,18,-3,-9,-10,0,-2
17:04:25:338058,-5,19,-15,-1,4,0,-2,-10
17:04:25:344051,-5,19,-15,-1,4,0,-2,-10
17:04:25:351603,-2,-5,5,3,3,5,0,-5
17:04:25:368014,0,-3,-4,-6,-5,-2,-4,3
17:04:25:368682,0,-3,-4,-6,-5,-2,-4,3
17:04:25:369561,1,9,-5,-2,5,-6,0,-1
17:04:25:382175,-1,4,-2,-3,-4,0,-2,-1
17:04:25:383023,-1,4,-2,-3,-4,0,-2,-1
17:04:25:389082,-2,-14,-6,3,7,6,3,2
17:04:25:404698,-2,-6,-11,-6,-3,-13,-1,-3
17:04:25:405584,-2,-6,-11,-6,-3,-13,-1,-3
17:04:25:411701,0,5,-10,-3,-2,0,2,0
17:04:25:419080,-3,-9,54,9,-1,9,4,2
17:04:25:427317,-3,-9,54,9,-1,9,4,2
17:04:25:428070,-1,3,-8,-2,-4,-2,-2,-1
17:04:25:442185,-2,1,-9,0,4,1,-1,1
17:04:25:443075,-2,1,-9,0,4,1,-1,1
17:04:25:449065,2,10,15,3,0,-4,-6,0
17:04:25:464827,-1,-9,-3,2,4,9,5,0
17:04:25:465699,-1,-9,-3,2,4,9,5,0
17:04:25:471555,1,-1,-13,-7,-20,-8,-3,-2
17:04:25:479079,-1,-6,-1,3,3,-2,-3,1
17:04:25:487307,-1,-6,-1,3,3,-2,-3,1
17:04:25:488053,-4,-8,-1,3,5,11,1,0
17:04:25:502337,-1,2,1,0,0,1,-2,-1
17:04:25:503100,-1,2,1,0,0,1,-2,-1
17:04:25:509101,-4,1,30,0,5,-7,-2,0
17:04:25:516568,-2,6,-6,1,1,-3,-3,0
17:04:25:524062,-2,6,-6,1,1,-3,-3,0
17:04:25:531737,-2,-8,7,4,6,2,0,-3
17:04:25:539090,-1,-1,-12,-7,3,-5,1,-1
17:04:25:547344,-1,-1,-12,-7,3,-5,1,-1
17:04:25:548076,-1,-2,-8,2,0,-1,-2,-3
17:04:25:562680,1,3,8,-1,-2,-1,-2,2
17:04:25:563578,1,3,8,-1,-2,-1,-2,2
17:04:25:577781,0,-5,-4,-1,6,9,4,-2
17:04:25:584817,-3,-1,-11,-6,0,-6,-3,-2
17:04:25:585692,-3,-1,-11,-6,0,-6,-3,-2
17:04:25:591583,0,0,4,-5,-6,-3,-2,3
17:04:25:599090,2,2,-9,1,-6,-2,-2,2
17:04:25:607309,2,2,-9,1,-6,-2,-2,2
17:04:25:608075,-1,2,-5,-1,-3,-1,-4,-3
17:04:25:622319,-4,-7,-15,-1,-1,-3,-3,-5
17:04:25:623075,-4,-7,-15,-1,-1,-3,-3,-5
17:04:25:629059,-1,2,16,-1,-1,-2,0,0
17:04:25:636570,-1,-1,5,-1,-1,3,-6,-1
17:04:25:644093,-1,-1,5,-1,-1,3,-6,-1
17:04:25:651690,-3,-2,5,3,1,-4,0,-2
17:04:25:659101,-2,-5,1,-1,2,0,-2,-2
17:04:25:667325,-2,-5,1,-1,2,0,-2,-2
17:04:25:668063,1,3,-8,0,3,3,0,0
17:04:25:682708,0,0,10,2,-7,-4,0,-1
17:04:25:683561,0,0,10,2,-7,-4,0,-1
17:04:25:689091,-3,9,22,-1,2,0,-3,0
17:04:25:696716,2,2,6,2,2,0,4,-3
17:04:25:704058,2,2,6,2,2,0,4,-3
17:04:25:711554,-1,-5,-2,0,-4,-3,-1,-1
17:04:25:719810,1,-6,-10,-2,0,-1,1,1
17:04:25:720738,1,-6,-10,-2,0,-1,1,1
17:04:25:726560,-1,-2,44,0,-6,1,0,0
17:04:25:742331,1,4,3,1,-4,-2,-2,1
17:04:25:743079,1,4,3,1,-4,-2,-2,1
17:04:25:749099,1,2,-31,-2,0,-3,-4,-3
17:04:25:756577,-4,-3,8,-7,-1,0,-1,1
17:04:25:764173,-4,-3,8,-7,-1,0,-1,1
17:04:25:771565,0,-6,-13,-2,2,-1,-6,-2
17:04:25:779839,0,-8,-9,3,-3,0,-1,-1
17:04:25:780690,0,-8,-9,3,-3,0,-1,-1
17:04:25:786582,-2,-8,-20,-1,0,-1,-3,-1
17:04:25:802320,-1,-4,-5,-5,0,3,0,-2
17:04:25:803083,-1,-4,-5,-5,0,3,0,-2
17:04:25:809058,1,-1,4,-3,-3,-6,2,1
17:04:25:824832,1,4,30,6,0,-2,0,-1
17:04:25:825668,1,4,30,6,0,-2,0,-1
17:04:25:831574,1,4,-8,-3,-2,2,1,-2
17:04:25:839822,-1,2,-17,-1,-2,-3,-2,-4
17:04:25:840708,-1,2,-17,-1,-2,-3,-2,-4
17:04:25:854087,0,5,2,-2,-3,-4,0,-1
17:04:25:862337,-1,-14,2,-1,-1,0,-2,-2
17:04:25:863092,-1,-14,2,-1,-1,0,-2,-2
17:04:25:869084,-4,-7,-29,-2,3,2,0,1
17:04:25:884820,-2,9,-5,-5,-4,-3,1,0
17:04:25:885585,-2,9,-5,-5,-4,-3,1,0
17:04:25:891578,-2,-1,2,-2,-1,-3,-3,-2
17:04:25:899840,0,4,4,1,5,7,1,-2
17:04:25:900703,0,4,4,1,5,7,1,-2
17:04:25:906579,2,-1,-2,-2,-3,4,0,-4
17:04:25:922336,-5,-11,-4,2,-3,-3,-1,1
17:04:25:923098,-5,-11,-4,2,-3,-3,-1,1
17:04:25:945443,-3,-5,-16,-3,-2,-2,-2,-3
17:04:25:946326,4,-4,-12,-5,-2,-3,-3,-5
17:04:25:947097,4,-4,-12,-5,-2,-3,-3,-5
17:04:25:951576,-3,3,-1,-1,4,-1,0,3
17:04:25:959811,-1,2,14,-3,-4,1,-3,0
17:04:25:960675,-1,2,14,-3,-4,1,-3,0
17:04:25:966683,0,4,8,4,-3,0,1,-3
17:04:25:982297,2,7,-9,2,1,7,2,1
17:04:25:983098,2,7,-9,2,1,7,2,1
17:04:25:997213,-3,-3,8,-2,0,-7,-5,-1
17:04:25:998076,-2,0,-9,-3,1,3,2,0
17:04:26:4175,-2,0,-9,-3,1,3,2,0
17:04:26:11558,-2,-6,-17,-3,-9,-1,-4,-2
17:04:26:27332,-4,-4,2,1,6,0,-1,-2
17:04:26:28090,-4,-4,2,1,6,0,-1,-2
17:04:26:42949,0,-6,3,0,3,-2,-2,0
17:04:26:43697,-3,-8,14,0,-2,-4,-6,2
17:04:26:44581,-3,-8,14,0,-2,-4,-6,2
17:04:26:49086,-2,2,-10,-5,0,-1,-1,-2
17:04:26:64813,1,4,20,4,-3,-8,1,-3
17:04:26:65571,1,4,20,4,-3,-8,1,-3
17:04:26:80447,3,0,0,-2,-4,-2,1,0
17:04:26:81191,1,-1,12,3,3,2,2,0
17:04:26:82053,1,-1,12,3,3,2,2,0
17:04:26:94096,-4,-5,5,0,0,-2,-1,0
17:04:26:102187,0,1,-15,-3,1,-4,-4,-1
17:04:26:103096,0,1,-15,-3,1,-4,-4,-1
17:04:26:109073,-2,-2,-2,0,-2,-3,3,3
17:04:26:132965,-4,-4,-19,-10,-1,3,-1,-2
17:04:26:133712,-4,-4,-19,-10,-1,3,-1,-2
17:04:26:134601,-1,2,-1,-5,-9,-2,-5,-2
17:04:26:139220,-1,-1,-8,-2,0,-2,0,-1
17:04:26:146708,-1,-1,-8,-2,0,-2,0,-1
17:04:26:162940,3,-4,8,0,1,8,-1,-2
17:04:26:163666,-3,-1,-1,2,-2,-3,-4,-2
17:04:26:164536,-3,-1,-1,2,-2,-3,-4,-2
17:04:26:169056,-1,-4,-35,5,0,2,-2,-3
17:04:26:184806,1,0,3,1,-1,1,3,-1
17:04:26:185682,1,0,3,1,-1,1,3,-1
17:04:26:191583,-5,0,1,-6,4,-1,1,-4
17:04:26:199805,0,-2,1,1,7,-2,-1,2
17:04:26:200696,0,-2,1,1,7,-2,-1,2
17:04:26:214561,-2,2,9,0,-1,-3,1,0
17:04:26:222296,-2,-2,0,3,-7,0,-1,2
17:04:26:223072,-2,-2,0,3,-7,0,-1,2
17:04:26:229070,1,-3,5,1,1,2,2,0
17:04:26:244826,-4,-6,-14,-5,-2,-5,-4,-2
17:04:26:245592,-4,-6,-14,-5,-2,-5,-4,-2
17:04:26:251568,2,-2,2,0,1,-3,-1,-1
17:04:26:259826,-2,1,-3,-3,-7,-6,-4,-2
17:04:26:260693,-2,1,-3,-3,-7,-6,-4,-2
17:04:26:274061,-5,3,4,2,-1,1,-2,-2
17:04:26:282220,1,-3,-12,-8,-2,-6,0,-3
17:04:26:283041,1,-3,-12,-8,-2,-6,0,-3
17:04:26:289085,2,-2,1,0,-2,-5,-2,-2
17:04:26:304718,-2,2,1,2,0,3,-1,-4
17:04:26:305572,-2,2,1,2,0,3,-1,-4
17:04:26:311709,0,-4,-22,-4,-3,1,-1,2
17:04:26:319821,-2,-2,1,1,0,-1,2,0
17:04:26:320589,-2,-2,1,1,0,-1,2,0
17:04:26:334096,1,0,1,0,-1,-4,-2,-2
17:04:26:342180,-1,1,-1,-1,-1,3,-1,0
17:04:26:343080,-1,1,-1,-1,-1,3,-1,0
17:04:26:356593,-2,2,5,1,1,-2,-4,-2
17:04:26:364824,0,-3,-1,-2,3,-3,1,-2
17:04:26:365721,0,-3,-1,-2,3,-3,1,-2
17:04:26:371579,-4,-2,1,-5,1,-1,-4,1
17:04:26:379693,-2,-1,0,2,0,-4,-3,-3
17:04:26:380565,-2,-1,0,2,0,-4,-3,-3
17:04:26:394076,1,0,5,-4,4,6,1,1
17:04:26:410862,-1,3,5,-3,-2,-4,-4,-2
17:04:26:411700,-1,3,5,-3,-2,-4,-4,-2
17:04:26:416579,0,-1,5,-1,-2,-5,0,0
17:04:26:424866,0,0,-4,-3,-4,2,-1,-2
17:04:26:425724,0,0,-4,-3,-4,2,-1,-2
17:04:26:447952,0,3,44,3,-3,-3,2,-3
17:04:26:448706,-2,-2,-2,-1,-4,4,-2,3
17:04:26:449594,-2,-2,-2,-1,-4,4,-2,3
17:04:26:454133,-4,-2,-7,1,-4,-6,-3,-2
17:04:26:470450,0,0,13,5,3,4,-1,-3
17:04:26:471202,0,0,13,5,3,4,-1,-3
17:04:26:472085,-4,-3,-13,-5,-2,-2,1,2
17:04:26:492950,-1,-6,-13,1,-3,-2,3,3
17:04:26:493817,-1,-6,-13,1,-3,-2,3,3
17:04:26:494562,0,-4,-5,0,-1,0,0,-2
17:04:26:499822,-3,0,2,-5,2,-2,1,-3
17:04:26:500688,-3,0,2,-5,2,-2,1,-3
17:04:26:522980,1,-2,-4,2,4,3,-2,0
17:04:26:523702,1,-1,9,7,1,0,-3,2
17:04:26:524561,1,-1,9,7,1,0,-3,2
17:04:26:529075,1,0,-13,0,-2,5,1,0
17:04:26:560451,3,1,21,3,1,0,-1,-2
17:04:26:561320,3,1,21,3,1,0,-1,-2
17:04:26:562052,-1,1,-2,0,3,1,-4,0
17:04:26:567311,-1,1,-2,0,3,1,-4,0
17:04:26:568066,-6,-2,2,-5,-3,-5,-2,-2
17:04:26:574094,-1,-5,-4,-2,-1,0,-3,-1
17:04:26:582316,-1,-5,-4,-2,-1,0,-3,-1
17:04:26:583090,-1,6,23,-10,-7,-5,-1,3
17:04:26:589087,-2,-2,-3,0,-1,-1,-1,1
17:04:26:605327,-2,-2,-3,0,-1,-1,-1,1
17:04:26:606062,-3,-3,-18,-3,-5,-4,-4,-1
17:04:26:611574,-3,0,5,-1,-2,1,3,0
17:04:26:627320,-3,0,5,-1,-2,1,3,0
17:04:26:628121,0,0,6,4,3,1,-2,-1
17:04:26:634059,2,-1,-10,-2,-3,0,0,-3
17:04:26:642318,2,-1,-10,-2,-3,0,0,-3
17:04:26:643070,0,-4,-3,5,-1,-2,3,0
17:04:26:649099,-4,0,1,1,0,-2,-3,0
17:04:26:664827,-4,0,1,1,0,-2,-3,0
17:04:26:665695,4,1,4,1,-1,2,0,1
17:04:26:671571,-3,0,-4,-1,-4,-8,-2,0
17:04:26:687352,-3,0,-4,-1,-4,-8,-2,0
17:04:26:688071,0,4,31,1,3,1,3,-2
17:04:26:694087,0,4,1,1,1,-6,-2,-3
17:04:26:702331,0,4,1,1,1,-6,-2,-3
17:04:26:703088,-3,-2,-17,-4,-5,-1,-3,-4
17:04:26:709076,-3,-2,-3,-8,-4,-4,1,-2
17:04:26:724841,-3,-2,-3,-8,-4,-4,1,-2
17:04:26:725579,-5,-2,-16,-4,2,-3,-3,-8
17:04:26:731574,3,-1,-3,-1,3,-1,-1,-4
17:04:26:747341,3,-1,-3,-1,3,-1,-1,-4
17:04:26:748062,-4,-2,-21,-2,-1,3,-3,1
17:04:26:754057,0,-6,-4,-5,-5,-9,-3,-2
17:04:26:762321,0,-6,-4,-5,-5,-9,-3,-2
17:04:26:763105,-1,-2,-2,2,4,0,-2,-5
17:04:26:769072,4,4,-5,-2,1,5,2,0
17:04:26:784853,4,4,-5,-2,1,5,2,0
17:04:26:785552,4,0,-16,-4,-4,-2,-1,-3
17:04:26:791586,-3,-3,0,1,13,1,1,0
17:04:26:807322,-3,-3,0,1,13,1,1,0
17:04:26:808064,-5,-1,2,-9,5,-7,-5,4
17:04:26:814079,1,0,-2,-2,5,1,2,5
17:04:26:830425,1,0,-2,-2,5,1,2,5
17:04:26:831214,-2,1,-8,-4,-1,-1,-3,13
17:04:26:832072,-1,-1,3,4,-2,-3,-2,2
17:04:26:844842,-1,-1,3,4,-2,-3,-2,2
17:04:26:845702,0,1,-7,-1,-5,1,1,-3
17:04:26:859127,-3,-4,-1,0,-5,2,1,0
17:04:26:867952,-3,-4,-1,0,-5,2,1,0
17:04:26:868683,2,-6,-7,-2,0,-2,0,-2
17:04:26:874089,-6,-2,-8,-5,-5,8,-5,-4
17:04:26:882322,-6,-2,-8,-5,-5,8,-5,-4
17:04:26:883077,-4,-3,9,-2,2,-5,2,-3
17:04:26:889065,-1,-3,-10,-2,-3,-2,-1,-1
17:04:26:904842,-1,-3,-10,-2,-3,-2,-1,-1
17:04:26:905700,-5,-3,-9,-1,-2,-5,-4,-9
17:04:26:911592,-4,1,4,2,2,4,4,-6
17:04:26:927330,-4,1,4,2,2,4,4,-6
17:04:26:928088,-1,-6,-2,-2,-2,2,2,2
17:04:26:942997,-2,-8,-2,-1,-1,-4,-3,0
17:04:26:943697,-2,-8,-2,-1,-1,-4,-3,0
17:04:26:944569,-1,-1,0,1,2,3,0,0
17:04:26:949098,0,1,-2,-1,-1,-4,-3,-1
17:04:26:964814,0,1,-2,-1,-1,-4,-3,-1
17:04:26:965576,-1,-1,-8,4,-1,2,-1,-2
17:04:26:971691,-1,-5,-2,0,0,2,1,-2
17:04:26:987195,-1,-5,-2,0,0,2,1,-2
17:04:26:988064,-1,-1,-4,-3,-5,0,-1,-1
17:04:26:994063,-4,-1,6,0,-3,-6,-5,-8
17:04:27:2316,-4,-1,6,0,-3,-6,-5,-8
17:04:27:3077,1,-1,-3,-2,-3,-1,-1,2
17:04:27:25463,0,2,0,-1,-1,3,0,1
17:04:27:26356,0,2,0,-1,-1,3,0,1
17:04:27:27142,0,3,-1,4,-1,-3,-1,-1
17:04:27:31584,-1,3,4,-3,-7,3,-3,3
17:04:27:55457,-1,3,4,-3,-7,3,-3,3
17:04:27:56228,-1,-4,-16,0,-6,-3,-1,2
17:04:27:57103,-1,0,1,2,-2,-3,-3,-8
17:04:27:62322,-1,0,1,2,-2,-3,-3,-8
17:04:27:63089,1,3,0,-2,-1,0,-1,0
17:04:27:76738,1,-3,-3,-1,1,0,5,2
17:04:27:84844,1,-3,-3,-1,1,0,5,2
17:04:27:85565,-1,0,7,4,-3,3,-2,-1
17:04:27:91616,0,-1,6,0,0,-3,-3,2
17:04:27:107723,0,-1,6,0,0,-3,-3,2
17:04:27:108583,1,-10,1,2,1,2,2,0
17:04:27:114068,0,3,-9,-2,-3,-2,-3,0
17:04:27:129729,0,3,-9,-2,-3,-2,-3,0
17:04:27:130609,-2,3,32,-2,-2,-3,-3,1
17:04:27:136583,0,-2,3,-1,3,-5,1,2
17:04:27:144832,0,-2,3,-1,3,-5,1,2
17:04:27:145575,-1,-2,0,2,12,8,0,-1
17:04:27:151710,0,4,6,2,-2,0,0,1
17:04:27:167205,0,4,6,2,-2,0,0,1
17:04:27:168076,-2,1,-11,-2,-1,-1,-2,-4
17:04:27:174078,-1,-6,-15,-1,7,0,1,0
17:04:27:189825,-1,-6,-15,-1,7,0,1,0
17:04:27:190701,-2,1,13,-5,-3,-3,-2,-1
17:04:27:196579,0,-1,-16,-2,-6,-5,-4,1
17:04:27:204707,0,-1,-16,-2,-6,-5,-4,1
17:04:27:205587,-4,3,-8,-3,3,1,0,-9
17:04:27:219077,-4,-3,0,-3,-6,-2,0,-2
17:04:27:227333,-4,-3,0,-3,-6,-2,0,-2
17:04:27:228102,2,-2,-6,-4,-1,-4,1,3
17:04:27:234082,-3,-6,0,0,2,3,-3,-4
17:04:27:242189,-3,-6,0,0,2,3,-3,-4
17:04:27:243100,-1,-2,-8,-4,-1,-2,-3,0
17:04:27:256575,1,2,6,-3,-4,-3,-1,0
17:04:27:264859,1,2,6,-3,-4,-3,-1,0
17:04:27:265701,-1,-1,9,3,8,3,-2,0
17:04:27:271595,3,1,6,2,-6,-1,8,19
17:04:27:304330,3,1,6,2,-6,-1,8,19
17:04:27:305085,-17,-3,-13,-4,-2,-5,-10,-37
17:04:27:305942,0,-1,4,2,4,-2,1,-3
17:04:27:306682,0,-1,4,2,4,-2,1,-3
17:04:27:309078,2,0,-6,-2,-4,0,2,8
17:04:27:325474,1,-4,-7,-2,-2,-2,-2,-5
17:04:27:332974,1,-4,-7,-2,-2,-2,-2,-5
17:04:27:333693,5,2,-9,-2,-8,-10,-2,2
17:04:27:334563,1,-3,7,-2,-3,2,0,-2
17:04:27:347364,1,-3,7,-2,-3,2,0,-2
17:04:27:348080,2,-2,-1,0,4,1,-1,0
17:04:27:354117,-5,0,-4,-1,1,-1,-3,-8
17:04:27:362216,-5,0,-4,-1,1,-1,-3,-8
17:04:27:363097,0,0,0,4,-1,-3,0,8
17:04:27:385464,0,4,7,-2,2,1,-8,-7
17:04:27:386334,0,4,7,-2,2,1,-8,-7
17:04:27:387091,-3,-4,-8,-5,-2,0,0,5
17:04:27:391585,-3,-1,-3,-1,-9,-5,-1,-5
17:04:27:415467,-3,-1,-3,-1,-9,-5,-1,-5
17:04:27:416232,-2,-5,1,3,4,3,1,-1
17:04:27:417087,1,-4,3,0,5,2,0,0
17:04:27:422360,1,-4,3,0,5,2,0,0
17:04:27:423101,-1,2,0,-2,-4,-3,2,2
17:04:27:436588,-1,3,0,2,-12,-5,-4,3
17:04:27:444705,-1,3,0,2,-12,-5,-4,3
17:04:27:445577,1,-1,2,-2,2,0,-5,-1
17:04:27:451597,-3,0,0,-3,6,-4,0,-1
17:04:27:467338,-3,0,0,-3,6,-4,0,-1
17:04:27:468095,-1,3,11,-4,-23,-3,0,2
17:04:27:474092,1,0,-12,-8,-3,2,2,-1
17:04:27:482092,1,0,-12,-8,-3,2,2,-1
17:04:27:489081,2,-3,19,3,-8,-7,2,0
17:04:27:496573,-1,0,2,-1,4,6,-1,-2
17:04:27:504850,-1,0,2,-1,4,6,-1,-2
17:04:27:505573,-2,-1,1,-1,4,3,-4,-1
17:04:27:511575,-3,-2,-7,-6,-2,-6,-1,0
17:04:27:527338,-3,-2,-7,-6,-2,-6,-1,0
17:04:27:528093,2,-5,-16,-2,5,-4,-3,0
17:04:27:534094,0,-3,10,3,4,1,1,0
17:04:27:542334,0,-3,10,3,4,1,1,0
17:04:27:543086,1,-3,-6,0,-3,-2,0,-3
17:04:27:556581,-3,-1,2,4,6,0,-3,-3
17:04:27:564821,-3,-1,2,4,6,0,-3,-3
17:04:27:565561,-1,-1,-38,-2,18,6,2,1
17:04:27:579081,0,-11,-4,3,-9,-4,-6,-3
17:04:27:587219,0,-11,-4,3,-9,-4,-6,-3
17:04:27:588072,-2,-2,-3,1,-8,-1,-1,0
17:04:27:594078,-2,3,18,0,2,2,0,1
17:04:27:609700,-2,3,18,0,2,2,0,1
17:04:27:610579,-1,3,24,3,0,-2,-2,0
17:04:27:616601,0,-6,-4,2,-1,0,-1,-1
17:04:27:624815,0,-6,-4,2,-1,0,-1,-1
17:04:27:625567,-1,14,1,-2,-4,1,1,-1
17:04:27:631573,-6,-1,1,-1,9,8,0,-1
17:04:27:647221,-6,-1,1,-1,9,8,0,-1
17:04:27:648070,0,-8,4,1,3,-2,0,1
17:04:27:654074,1,1,-11,-3,-8,-6,0,-2
17:04:27:662334,1,1,-11,-3,-8,-6,0,-2
17:04:27:663101,-2,-2,7,2,-7,4,-1,-2
17:04:27:676591,-5,1,7,-2,2,-1,-3,1
17:04:27:684709,-5,1,7,-2,2,-1,-3,1
17:04:27:685626,2,-2,-11,-4,-3,-6,-1,-1
17:04:27:691580,-3,12,-10,1,-1,-1,1,0
17:04:27:707343,-3,12,-10,1,-1,-1,1,0
17:04:27:708082,0,0,0,1,-2,2,0,1
17:04:27:714101,-3,-6,-5,-3,-6,0,1,4
17:04:27:722360,-3,-6,-5,-3,-6,0,1,4
17:04:27:723095,0,-1,-1,0,-1,-1,-2,1
17:04:27:736588,4,-2,-8,-4,-1,-6,-3,-1
17:04:27:744718,4,-2,-8,-4,-1,-6,-3,-1
17:04:27:745564,-1,1,0,0,3,2,-2,-2
17:04:27:751596,-1,0,1,1,-5,2,-3,-1
17:04:27:767333,-1,0,1,1,-5,2,-3,-1
17:04:27:768080,-5,-4,1,-4,0,-2,0,-1
17:04:27:774086,1,2,-3,-1,3,-6,0,-1
17:04:27:782246,1,2,-3,-1,3,-6,0,-1
17:04:27:783118,-1,-1,-5,-4,0,1,-1,-1
17:04:27:796585,1,-2,-4,-1,4,0,-2,-1
17:04:27:804854,1,-2,-4,-1,4,0,-2,-1
17:04:27:805721,0,4,53,-1,-1,-2,-3,0
17:04:27:811623,-3,-5,-4,-3,-2,-2,-2,-1
17:04:27:827334,-3,-5,-4,-3,-2,-2,-2,-1
17:04:27:828082,-1,-6,-19,0,1,0,-2,-4
17:04:27:834089,1,-1,-2,-3,-3,1,3,-2
17:04:27:842343,1,-1,-2,-3,-3,1,3,-2
17:04:27:843082,-1,-2,-7,0,0,-2,-3,0
17:04:27:857116,1,2,-6,-2,-1,-1,-6,-7
17:04:27:864866,1,2,-6,-2,-1,-1,-6,-7
17:04:27:865723,2,0,-4,0,-1,-2,2,1
17:04:27:871612,-2,-3,5,4,1,2,1,0
17:04:27:887329,-2,-3,5,4,1,2,1,0
17:04:27:888105,-2,-2,-3,0,-1,-8,-2,0
17:04:27:894066,1,1,11,3,-1,-2,-2,-5
17:04:27:903014,1,1,11,3,-1,-2,-2,-5
17:04:27:903707,-6,-4,-13,-2,2,1,0,-6
17:04:27:916620,-3,2,-4,-5,-3,-3,-2,-3
17:04:27:924844,-3,2,-4,-5,-3,-3,-2,-3
17:04:27:925573,1,-2,-2,-2,2,2,1,-2
17:04:27:939482,-1,-4,4,0,1,0,-1,0
17:04:27:947323,-1,-4,4,0,1,0,-1,0
17:04:27:948066,0,0,-3,0,-5,-5,0,2
17:04:27:954070,-2,1,-5,-3,-1,-4,-3,-4
17:04:27:969868,-2,1,-5,-3,-1,-4,-3,-4
17:04:27:970570,0,0,-5,-4,0,0,-1,-1
17:04:27:976612,-7,0,-5,-2,1,-2,-1,0
17:04:27:984861,-7,0,-5,-2,1,-2,-1,0
17:04:27:985592,-5,-2,-15,-1,-2,-2,-3,2
17:04:27:999092,-4,-3,0,-6,-9,-1,-3,4
17:04:28:7219,-4,-3,0,-6,-9,-1,-3,4
17:04:28:8089,0,1,-2,0,3,0,-3,-2
17:04:28:14099,5,-3,-11,1,3,-3,1,-2
17:04:28:21725,5,-3,-11,1,3,-3,1,-2
17:04:28:29110,0,-3,5,0,-3,1,-4,-2
17:04:28:36574,0,0,3,3,4,5,-2,1
17:04:28:44829,0,0,3,3,4,5,-2,1
17:04:28:45580,-2,-1,0,1,-1,-3,1,-3
17:04:28:59085,-3,-3,-5,-1,-1,-3,1,-2
17:04:28:67333,-3,-3,-5,-1,-1,-3,1,-2
17:04:28:68091,-3,-1,-3,-5,-3,4,-1,2
17:04:28:74077,0,-1,-1,-5,-12,-6,-2,3
17:04:28:81735,0,-1,-1,-5,-12,-6,-2,3
17:04:28:89077,1,3,3,1,1,-3,0,-1
17:04:28:96625,1,0,3,-2,0,-1,1,-1
17:04:28:104854,1,0,3,-2,0,-1,1,-1
17:04:28:105713,0,3,0,-1,0,0,-2,1
17:04:28:119115,1,3,-2,3,0,4,-2,-6
17:04:28:127357,1,3,-2,3,0,4,-2,-6
17:04:28:128105,-1,-2,-9,-1,-2,-3,1,-9
17:04:28:134106,1,-1,-1,0,0,-1,2,1
17:04:28:141718,1,-1,-1,0,0,-1,2,1
17:04:28:149118,-3,1,-5,-4,-2,-1,-1,1
17:04:28:156588,0,-4,1,0,2,1,0,1
17:04:28:164737,0,-4,1,0,2,1,0,1
17:04:28:165585,2,-6,11,4,-2,0,-1,1
17:04:28:179152,-1,2,-3,-2,4,2,-3,-2
17:04:28:187347,-1,2,-3,-2,4,2,-3,-2
17:04:28:188100,-2,-3,1,-4,-3,-9,-3,0
17:04:28:194097,1,-2,-3,0,1,1,1,1
17:04:28:201580,1,-2,-3,0,1,1,1,1
17:04:28:209099,-3,-1,-4,-5,0,-2,-3,-5
17:04:28:216580,-3,-2,0,3,-1,2,1,-4
17:04:28:224857,-3,-2,0,3,-1,2,1,-4
17:04:28:225585,-1,0,19,1,-2,1,1,2
17:04:28:239151,-4,1,-2,-3,-9,-4,-6,-1
17:04:28:247224,-4,1,-2,-3,-9,-4,-6,-1
17:04:28:248086,4,-2,-6,-1,4,4,1,-9
17:04:28:254066,-3,2,3,-1,0,-3,-4,-5
17:04:28:261748,-3,2,3,-1,0,-3,-4,-5
17:04:28:269089,-6,2,4,3,-2,-1,1,-3
17:04:28:276587,-4,0,-3,-2,0,-3,-1,-1
17:04:28:284841,-4,0,-3,-2,0,-3,-1,-1
17:04:28:285595,-2,-3,-5,-3,2,3,-1,5
17:04:28:299094,0,0,0,3,1,-2,2,-2
17:04:28:307353,0,0,0,3,1,-2,2,-2
17:04:28:308067,-1,-2,-13,-4,-12,-9,-1,2
17:04:28:314118,2,0,-7,-2,1,2,-2,-1
17:04:28:321754,2,0,-7,-2,1,2,-2,-1
17:04:28:329112,3,-1,-5,0,2,2,-2,-1
17:04:28:336599,-3,1,-6,-5,-1,-3,-2,3
17:04:28:352350,-3,1,-6,-5,-1,-3,-2,3
17:04:28:353064,0,4,9,1,1,0,1,2
17:04:28:359093,1,1,-2,-1,-1,-3,-1,2
17:04:28:367368,1,1,-2,-1,-1,-3,-1,2
17:04:28:368109,-4,2,-7,-2,-1,-1,-4,-4
17:04:28:382216,-2,-3,-4,-4,-6,0,-1,1
17:04:28:383114,-2,-3,-4,-4,-6,0,-1,1
17:04:28:389099,2,-2,3,3,0,3,2,7
17:04:28:396581,-6,-6,3,0,0,-3,-3,-17
17:04:28:412237,-6,-6,3,0,0,-3,-3,-17
17:04:28:413078,-5,-5,-11,-2,4,-4,-5,-1
17:04:28:419102,1,-4,0,-4,-2,0,2,1
17:04:28:427334,1,-4,0,-4,-2,0,2,1
17:04:28:428083,-3,-1,-1,-2,2,2,3,-5
17:04:28:442215,0,2,2,0,2,0,3,1
17:04:28:443080,0,2,2,0,2,0,3,1
17:04:28:449074,-2,1,-5,-2,-1,-3,-4,0
17:04:28:456585,3,-1,-4,0,3,0,-1,5
17:04:28:464831,3,-1,-4,0,3,0,-1,5
17:04:28:465583,5,-1,20,1,-3,2,-2,-3
17:04:28:479093,-1,-3,-10,-3,-4,0,-1,0
17:04:28:487333,-1,-3,-10,-3,-4,0,-1,0
17:04:28:488073,-4,-4,-3,-4,-1,-3,-3,-27
17:04:28:494078,2,2,7,0,1,-5,-4,9
17:04:28:501719,2,2,7,0,1,-5,-4,9
17:04:28:509079,-1,0,-12,2,0,1,-2,5
17:04:28:516578,0,-2,5,-3,0,1,-2,-2
17:04:28:524831,0,-2,5,-3,0,1,-2,-2
17:04:28:525579,-1,-1,-7,2,0,1,-3,5
17:04:28:539093,-4,-2,5,0,-1,-5,0,2
17:04:28:547344,-4,-2,5,0,-1,-5,0,2
17:04:28:548120,-1,0,0,-1,10,17,7,0
17:04:28:554099,-2,-1,-9,2,-1,-2,1,-6
17:04:28:561735,-2,-1,-9,2,-1,-2,1,-6
17:04:28:569114,1,2,-3,-3,-4,-8,0,6
17:04:28:576592,2,-4,-2,0,-3,1,-2,0
17:04:28:584858,2,-4,-2,0,-3,1,-2,0
17:04:28:585733,-1,-2,1,-2,0,-4,-2,2
17:04:28:599110,0,1,1,5,-1,-2,3,0
17:04:28:607350,0,1,1,5,-1,-2,3,0
17:04:28:608089,-2,-5,11,0,-3,-3,-8,-2
17:04:28:614121,-1,-2,0,-2,-1,-4,1,-1
17:04:28:621720,-1,-2,0,-2,-1,-4,1,-1
17:04:28:629097,-2,2,-3,0,0,-1,0,-10
17:04:28:636620,-4,-1,1,-4,0,2,-3,-4
17:04:28:644759,-4,-1,1,-4,0,2,-3,-4
17:04:28:645636,2,-1,-2,-3,0,-6,-1,2
17:04:28:659115,-4,-2,-6,0,2,3,-2,0
17:04:28:667361,-4,-2,-6,0,2,3,-2,0
17:04:28:668105,-1,-2,-3,-1,5,0,-1,3
17:04:28:674152,-1,0,2,5,4,-2,2,2
17:04:28:681632,-1,0,2,5,4,-2,2,2
17:04:28:689102,1,-1,-3,-1,-4,-1,-2,-2
17:04:28:696605,-3,2,-4,-3,0,-1,-1,1
17:04:28:704839,-3,2,-4,-3,0,-1,-1,1
17:04:28:705582,-4,0,-1,-3,-2,0,-1,-2
17:04:28:719096,0,-1,-1,-1,-1,2,-2,0
17:04:28:727254,0,-1,-1,-1,-1,2,-2,0
17:04:28:728106,1,0,-6,-4,-6,-4,2,3
17:04:28:734071,-3,0,3,-2,-7,-1,-3,-2
17:04:28:741738,-3,0,3,-2,-7,-1,-3,-2
17:04:28:749112,-2,1,-2,0,-6,0,-6,0
17:04:28:756595,1,3,4,-2,0,-6,-2,-2
17:04:28:764889,1,3,4,-2,0,-6,-2,-2
17:04:28:765599,0,1,-2,2,-3,1,3,0
17:04:28:779086,3,-2,0,-3,1,0,-5,1
17:04:28:787362,3,-2,0,-3,1,0,-5,1
17:04:28:788088,2,-3,2,3,4,-2,3,0
17:04:28:794108,0,0,1,-1,-1,-7,-1,0
17:04:28:801733,0,0,1,-1,-1,-7,-1,0
17:04:28:809117,-4,-4,-4,2,0,7,-4,0
17:04:28:816627,-2,-3,-5,-1,5,4,-2,0
17:04:28:824851,-2,-3,-5,-1,5,4,-2,0
17:04:28:825595,1,-3,1,-1,-5,-4,0,-2
17:04:28:839109,-1,2,7,2,-1,2,-2,-1
17:04:28:847364,-1,2,7,2,-1,2,-2,-1
17:04:28:848115,-1,-3,0,-2,0,4,-1,-2
17:04:28:862248,-5,0,-1,1,0,1,1,1
17:04:28:863102,-5,0,-1,1,0,1,1,1
17:04:28:869078,1,1,-2,-1,-3,-8,-3,-1
17:04:28:876602,-2,-2,-1,-4,3,7,0,-5
17:04:28:884113,-2,-2,-1,-4,3,7,0,-5
17:04:28:891615,-3,-4,-2,-2,-1,-3,-1,-1
17:04:28:899093,1,-5,-4,2,-6,-13,-4,-2
17:04:28:907340,1,-5,-4,2,-6,-13,-4,-2
17:04:28:908088,-3,-3,1,1,0,8,-1,0
17:04:28:922359,-2,0,0,0,-3,-1,0,-3
17:04:28:923086,-2,0,0,0,-3,-1,0,-3
17:04:28:929123,-3,4,-1,-2,-1,-5,-4,-5
17:04:28:936588,-1,-3,7,3,-4,-2,-1,-3
17:04:28:944120,-1,-3,7,3,-4,-2,-1,-3
17:04:28:951589,-5,-2,-5,-3,4,13,2,7
17:04:28:959099,0,0,-5,-2,-1,-1,-3,10
17:04:28:967247,0,0,-5,-2,-1,-1,-3,10
17:04:28:968096,-1,4,-2,-3,-3,-13,-5,-3
17:04:28:982374,2,-2,-6,1,1,2,2,-3
17:04:28:983099,2,-2,-6,1,1,2,2,-3
17:04:28:989094,1,-1,0,-3,-1,3,-2,-1
17:04:28:996600,-1,1,0,-3,-9,-1,-2,0
17:04:29:4092,-1,1,0,-3,-9,-1,-2,0
17:04:29:11584,-1,-1,2,-1,-1,-5,-2,-4
17:04:29:19103,-3,0,-1,0,2,5,3,-5
17:04:29:27218,-3,0,-1,0,2,5,3,-5
17:04:29:28098,2,-1,0,2,5,2,6,3
17:04:29:42227,-2,0,-4,-7,-1,-4,-1,-4
17:04:29:43100,-2,0,-4,-7,-1,-4,-1,-4
17:04:29:49108,1,0,1,-5,-11,-16,-4,-1
17:04:29:56590,3,-1,-1,-2,2,10,1,2
17:04:29:64127,3,-1,-1,-2,2,10,1,2
17:04:29:71625,1,-5,-3,-2,-3,-4,-2,5
17:04:29:79114,-1,-1,2,2,2,-5,-2,0
17:04:29:87350,-1,-1,2,2,2,-5,-2,0
17:04:29:88084,0,-2,-4,-3,-1,-5,1,-1
17:04:29:102206,-3,-4,-2,-1,5,4,-2,-4
17:04:29:103109,-3,-4,-2,-1,5,4,-2,-4
17:04:29:109110,-8,2,1,0,2,-4,-2,-11
17:04:29:116597,9,-3,-1,-2,-3,-5,2,6
17:04:29:124118,9,-3,-1,-2,-3,-5,2,6
17:04:29:131602,5,-1,-1,2,-4,-2,0,2
17:04:29:139103,-38,0,-3,0,2,1,-4,-39
17:04:29:147365,-38,0,-3,0,2,1,-4,-39
17:04:29:148114,-6,0,1,-4,2,0,-3,8
17:04:29:162253,3,-1,0,-1,0,1,2,3
17:04:29:163103,3,-1,0,-1,0,1,2,3
17:04:29:169107,-4,1,-5,3,1,5,1,-8
17:04:29:176593,-2,1,-3,-3,-5,-5,-3,0
17:04:29:184130,-2,1,-3,-3,-5,-5,-3,0
17:04:29:191612,6,-2,-4,-4,-1,2,-2,4
17:04:29:199090,2,1,-3,0,-1,2,-3,-5
17:04:29:207369,2,1,-3,0,-1,2,-3,-5
17:04:29:208079,-1,-1,3,1,-1,3,1,2
17:04:29:222351,7,0,0,1,-1,-6,1,17
17:04:29:223102,7,0,0,1,-1,-6,1,17
17:04:29:229089,-5,-1,-1,1,2,4,-4,-10
17:04:29:236593,8,0,-3,-3,1,-1,0,13
17:04:29:244105,8,0,-3,-3,1,-1,0,13
17:04:29:251603,1,1,0,-2,-1,0,4,-5
17:04:29:259099,2,1,1,2,0,-4,-2,-2
17:04:29:267216,2,1,1,2,0,-4,-2,-2
17:04:29:268141,0,-1,3,3,1,-4,-5,-2
17:04:29:282361,-1,1,0,2,4,7,3,-4
17:04:29:283108,-1,1,0,2,4,7,3,-4
17:04:29:289090,5,-1,5,1,1,-3,2,7
17:04:29:296605,-4,-2,-2,0,-2,-1,0,0
17:04:29:304102,-4,-2,-2,0,-2,-1,0,0
17:04:29:311629,1,1,0,-4,-3,-2,-2,4
17:04:29:319133,3,1,-4,-1,-5,-2,-2,-1
17:04:29:327216,3,1,-4,-1,-5,-2,-2,-1
17:04:29:328115,-3,-2,-9,-3,-3,-3,-2,0
17:04:29:342232,-3,-5,-2,-2,-1,-6,-5,-5
17:04:29:343133,-3,-5,-2,-2,-1,-6,-5,-5
17:04:29:349113,-2,-1,-2,3,5,5,0,-1
17:04:29:356608,-1,-1,8,-1,1,-2,-3,-2
17:04:29:364107,-1,-1,8,-1,1,-2,-3,-2
17:04:29:371612,-2,-3,2,-4,1,-1,2,-4
17:04:29:379146,0,-1,0,-1,1,-1,-1,2
17:04:29:387354,0,-1,0,-1,1,-1,-1,2
17:04:29:388088,-4,1,2,1,-3,-1,2,-5
17:04:29:410371,0,-1,-3,-2,-6,-3,-1,5
17:04:29:411230,0,-1,-3,-2,-6,-3,-1,5
17:04:29:412098,-3,-5,-6,-3,-2,-3,-4,-8
17:04:29:416617,1,-1,-4,-3,0,0,0,3
17:04:29:424154,1,-1,-4,-3,0,0,0,3
17:04:29:431612,-1,-4,-1,1,4,0,2,5
17:04:29:439088,-4,0,-7,-4,-2,-1,-3,-3
17:04:29:447242,-4,0,-7,-4,-2,-1,-3,-3
17:04:29:448099,1,0,-3,-1,-2,2,0,0
17:04:29:462228,-2,1,-7,-2,-1,2,0,-5
17:04:29:463112,-2,1,-7,-2,-1,2,0,-5
17:04:29:469117,-1,-1,0,-4,-7,-7,-4,-2
17:04:29:476605,1,-2,3,2,5,10,3,-5
17:04:29:484114,1,-2,3,2,5,10,3,-5
17:04:29:491614,-7,-4,-3,0,-2,-3,-7,-28
17:04:29:499115,2,-5,-5,-4,-5,-8,-3,2
17:04:29:507359,2,-5,-5,-4,-5,-8,-3,2
17:04:29:508102,6,1,-6,-1,-3,-3,5,5
17:04:29:522248,1,-6,9,1,0,3,0,2
17:04:29:523111,1,-6,9,1,0,3,0,2
17:04:29:529130,-5,3,2,-2,-3,-3,-4,8
17:04:29:536609,8,-2,-3,0,1,0,2,5
17:04:29:552236,8,-2,-3,0,1,0,2,5
17:04:29:553094,0,-3,-2,-3,1,-5,-2,-1
17:04:29:559100,-6,0,-2,1,0,0,0,-3
17:04:29:567258,-6,0,-2,1,0,0,0,-3
17:04:29:568092,1,1,1,3,2,1,-1,-1
17:04:29:582259,-5,2,-4,-3,-6,-8,-5,-6
17:04:29:583108,-5,2,-4,-3,-6,-8,-5,-6
17:04:29:589125,2,1,-3,-1,0,2,0,5
17:04:29:596612,-1,1,-1,-4,-2,-7,-2,-2
17:04:29:604120,-1,1,-1,-4,-2,-7,-2,-2
17:04:29:611602,-1,2,-2,-1,-1,10,1,0
17:04:29:619103,0,3,-4,0,1,3,-1,11
17:04:29:634734,0,3,-4,0,1,3,-1,11
17:04:29:635613,0,-6,1,-3,-4,-4,0,1
17:04:29:642255,-1,1,10,-3,-3,-2,-3,-10
17:04:29:643117,-1,1,10,-3,-3,-2,-3,-10
17:04:29:649108,-4,-2,-5,-1,-3,0,-2,-1
17:04:29:656605,-4,-3,-12,-8,-3,-1,-2,-2
17:04:29:664107,-4,-3,-12,-8,-3,-1,-2,-2
17:04:29:671619,-4,0,6,0,-7,-2,-3,-3
17:04:29:679090,0,-3,-8,-1,-4,-4,-3,-5
17:04:29:687349,0,-3,-8,-1,-4,-4,-3,-5
17:04:29:688100,3,1,-6,-2,1,7,4,3
17:04:29:702244,-3,-2,-1,1,-1,0,-2,-3
17:04:29:703141,-3,-2,-1,1,-1,0,-2,-3
17:04:29:709114,-2,0,3,1,2,-3,-5,-2
17:04:29:716627,-3,7,3,0,2,2,-3,-3
17:04:29:724125,-3,7,3,0,2,2,-3,-3
17:04:29:731627,-4,1,-2,0,0,-2,-2,-5
17:04:29:739097,-2,-4,-10,0,5,4,0,-1
17:04:29:747236,-2,-4,-10,0,5,4,0,-1
17:04:29:748092,1,4,0,-5,-17,-8,-4,-1
17:04:29:762212,-2,-5,4,-1,-3,-1,-2,1
17:04:29:763103,-2,-5,4,-1,-3,-1,-2,1
17:04:29:769103,0,-2,-1,-2,4,4,0,-1
17:04:29:776598,0,-2,5,0,-2,-5,0,1
17:04:29:784129,0,-2,5,0,-2,-5,0,1
17:04:29:791606,-2,-5,-15,0,0,-7,-2,-1
17:04:29:799183,-5,2,7,1,-3,-2,0,1
17:04:29:806652,-5,2,7,1,-3,-2,0,1
17:04:29:814164,0,-1,-4,0,-2,-2,-1,-1
17:04:29:822244,0,0,5,-2,-1,0,-1,0
17:04:29:823096,0,0,5,-2,-1,0,-1,0
17:04:29:829115,1,0,-1,3,-1,0,-2,0
17:04:29:844737,-9,-4,-1,0,3,4,4,0
17:04:29:845640,-9,-4,-1,0,3,4,4,0
17:04:29:851626,0,1,6,-2,5,0,2,4
17:04:29:859092,-2,-1,-7,-1,2,-3,-2,-5
17:04:29:866733,-2,-1,-7,-1,2,-3,-2,-5
17:04:29:874119,0,-4,5,1,2,-2,-2,0
17:04:29:882226,2,-2,-7,-1,11,3,1,1
17:04:29:883104,2,-2,-7,-1,11,3,1,1
17:04:29:889111,-3,-3,2,1,3,-2,1,-6
17:04:29:905500,0,1,2,1,-6,-8,-1,-3
17:04:29:906241,0,1,2,1,-6,-8,-1,-3
17:04:29:911606,0,2,-9,0,-2,6,-1,-2
17:04:29:919119,1,-8,-7,-3,-9,-7,0,-1
17:04:29:926728,1,-8,-7,-3,-9,-7,0,-1
17:04:29:934120,-3,3,11,0,-3,-4,-3,-2
17:04:29:942250,-1,0,7,1,-9,5,-3,3
17:04:29:943089,-1,0,7,1,-9,5,-3,3
17:04:29:949102,-1,-6,0,-3,2,-3,1,-1
17:04:29:964862,0,5,1,-2,0,-4,-2,0
17:04:29:965600,0,5,1,-2,0,-4,-2,0
17:04:29:971601,-2,-1,0,2,-6,-3,-2,-2
17:04:29:979088,2,0,-2,1,7,3,-2,-3
17:04:29:986716,2,0,-2,1,7,3,-2,-3
17:04:29:994130,-2,-2,-7,-2,-1,-4,-5,-2
17:04:30:2242,0,-1,-2,1,0,3,1,0
17:04:30:3118,0,-1,-2,1,0,3,1,0
17:04:30:9141,-2,-4,-10,-1,5,3,-1,-1
17:04:30:24740,0,-2,-11,-4,-4,-8,-3,-2
17:04:30:25614,0,-2,-11,-4,-4,-8,-3,-2
17:04:30:31595,3,0,-4,0,-3,0,4,-1
17:04:30:39136,-2,-1,1,6,9,6,-1,-1
17:04:30:46603,-2,-1,1,6,9,6,-1,-1
17:04:30:54118,-3,4,18,1,-2,-4,-1,3
17:04:30:62233,0,1,6,-1,-1,1,0,-2
17:04:30:63118,0,1,6,-1,-1,1,0,-2
17:04:30:69116,-1,-2,-1,-4,-1,9,-1,-1
17:04:30:84713,-3,-6,-14,-4,-13,-6,-1,1
17:04:30:85592,-3,-6,-14,-4,-13,-6,-1,1
17:04:30:91606,-7,2,-7,-3,-4,-4,-4,-2
17:04:30:99167,0,3,2,0,5,-3,1,-3
17:04:30:106602,0,3,2,0,5,-3,1,-3
17:04:30:114115,1,-5,-7,-9,-2,0,0,-1
17:04:30:122222,-2,-4,11,1,-3,-3,-2,0
17:04:30:123094,-2,-4,11,1,-3,-3,-2,0
17:04:30:129115,-1,-1,1,-3,-5,-5,-3,0
17:04:30:144721,0,2,10,2,0,-5,-3,-1
17:04:30:145600,0,2,10,2,0,-5,-3,-1
17:04:30:151611,-2,-2,-5,3,3,9,-4,1
17:04:30:159093,3,3,2,-3,-3,-5,-1,-1
17:04:30:166759,3,3,2,-3,-3,-5,-1,-1
17:04:30:174121,0,4,5,6,2,-2,0,-2
17:04:30:182236,1,-1,-4,-2,-1,1,0,-3
17:04:30:183113,1,-1,-4,-2,-1,1,0,-3
17:04:30:189112,-2,-3,-16,-6,0,-1,-3,-3
17:04:30:204744,-2,-5,-10,-6,-1,5,1,2
17:04:30:205600,-2,-5,-10,-6,-1,5,1,2
17:04:30:211631,1,-1,-6,-2,-9,-10,-3,-3
17:04:30:219106,-1,-5,-10,-2,4,2,-2,3
17:04:30:226742,-1,-5,-10,-2,4,2,-2,3
17:04:30:234091,-3,1,11,-2,-2,-4,0,-7
17:04:30:242265,-7,0,-2,-1,1,2,0,-2
17:04:30:243127,-7,0,-2,-1,1,2,0,-2
17:04:30:249103,-2,-1,0,-3,2,-1,1,0
17:04:30:264863,1,-3,0,1,1,4,2,-1
17:04:30:265594,1,-3,0,1,1,4,2,-1
17:04:30:271631,1,-1,-1,-2,5,-3,1,2
17:04:30:279127,1,-3,-2,-5,-1,-3,0,0
17:04:30:286739,1,-3,-2,-5,-1,-3,0,0
17:04:30:294138,-1,-3,7,0,-2,3,6,4
17:04:30:302238,2,2,-3,2,-2,-4,-3,1
17:04:30:303157,2,2,-3,2,-2,-4,-3,1
17:04:30:309099,-6,-5,-6,1,-1,-3,-1,-7
17:04:30:324735,-2,2,-2,0,1,-4,-3,-6
17:04:30:325596,-2,2,-2,0,1,-4,-3,-6
17:04:30:331602,-2,-2,1,2,-1,-1,-3,-4
17:04:30:339088,1,-7,1,-2,-3,-4,-6,2
17:04:30:346640,1,-7,1,-2,-3,-4,-6,2
17:04:30:354142,2,5,-9,-1,2,4,-3,-8
17:04:30:362245,-15,-1,0,0,-1,-2,3,-18
17:04:30:363169,-15,-1,0,0,-1,-2,3,-18
17:04:30:369125,0,-4,6,3,3,5,-4,-6
17:04:30:384769,7,-4,-10,-5,-2,-3,3,2
17:04:30:385614,7,-4,-10,-5,-2,-3,3,2
17:04:30:391599,3,-1,1,-6,-11,-11,-1,7
17:04:30:399155,-2,-4,1,1,4,5,0,-3
17:04:30:406612,-2,-4,1,1,4,5,0,-3
17:04:30:414113,-1,6,-9,0,0,0,0,3
17:04:30:422224,2,11,5,1,-8,-7,-2,7
17:04:30:423164,2,11,5,1,-8,-7,-2,7
17:04:30:429117,-1,-7,0,0,-3,0,3,6
17:04:30:444728,0,0,5,0,-1,2,-2,2
17:04:30:445599,0,0,5,0,-1,2,-2,2
17:04:30:451624,-4,2,3,2,3,1,2,-6
17:04:30:459130,-4,-5,-5,-7,-16,-7,-4,-4
17:04:30:466759,-4,-5,-5,-7,-16,-7,-4,-4
17:04:30:474131,-5,-5,-16,-6,-11,0,-2,-2
17:04:30:482360,-3,-2,-2,-3,11,-1,-4,0
17:04:30:483140,-3,-2,-2,-3,11,-1,-4,0
17:04:30:489124,2,-1,3,0,1,-1,-2,1
17:04:30:504772,1,-1,-5,1,-3,-2,1,4
17:04:30:505609,1,-1,-5,1,-3,-2,1,4
17:04:30:511630,1,0,-3,0,4,-3,-3,-8
17:04:30:519116,0,-3,-20,-4,-2,-2,-2,3
17:04:30:526733,0,-3,-20,-4,-2,-2,-2,3
17:04:30:534099,2,2,3,-2,1,-4,0,2
17:04:30:542220,2,2,3,-2,1,-4,0,2
17:04:30:543086,-3,-2,-1,-1,8,3,-3,-4
17:04:30:549118,-2,-3,-2,0,0,-6,-6,1
17:04:30:564856,-2,-3,-2,0,0,-6,-6,1
17:04:30:565604,-2,3,3,2,-2,2,0,-2
17:04:30:571619,0,2,9,-2,5,4,-2,5
17:04:30:587362,0,2,9,-2,5,4,-2,5
17:04:30:588106,-9,-6,-6,-6,-8,-3,-4,-4
17:04:30:594109,0,2,-1,-3,-2,-2,1,7
17:04:30:602385,0,2,-1,-3,-2,-2,1,7
17:04:30:603143,-8,1,5,0,2,4,-1,-4
17:04:30:609116,-1,-3,-4,-4,-11,-4,2,2
17:04:30:624898,-1,-3,-4,-4,-11,-4,2,2
17:04:30:625620,1,1,7,2,0,-5,2,9
17:04:30:631620,0,2,7,5,3,6,2,7
17:04:30:647365,0,2,7,5,3,6,2,7
17:04:30:648114,1,0,14,0,-3,-3,-5,1
17:04:30:654100,-8,-7,-8,-4,-3,-5,-2,-8
17:04:30:662381,-8,-7,-8,-4,-3,-5,-2,-8
17:04:30:663106,-3,-3,-1,-2,-4,1,-3,-4
17:04:30:669104,6,-18,4,2,-1,-2,0,9
17:04:30:684896,6,-18,4,2,-1,-2,0,9
17:04:30:685630,12,7,-14,3,1,2,4,16
17:04:30:691629,7,8,-9,-2,-1,-1,-1,-11
17:04:30:707239,7,8,-9,-2,-1,-1,-1,-11
17:04:30:708110,3,-3,0,-3,-4,-5,1,-4
17:04:30:714105,-4,-6,2,-1,4,-2,-4,1
17:04:30:722367,-4,-6,2,-1,4,-2,-4,1
17:04:30:723114,-4,2,2,3,6,7,-5,-17
17:04:30:736632,-6,-9,5,-2,2,5,-1,-2
17:04:30:744723,-6,-9,5,-2,2,5,-1,-2
17:04:30:745612,-3,-2,5,-1,-2,-2,-3,-22
17:04:30:751619,2,15,4,-2,-3,-4,-2,6
17:04:30:767219,2,15,4,-2,-3,-4,-2,6
17:04:30:768109,2,-2,2,1,-1,0,4,5
17:04:30:774170,8,3,-12,-1,1,-1,-3,-5
17:04:30:782370,8,3,-12,-1,1,-1,-3,-5
17:04:30:783127,-16,-1,9,0,-4,-5,-5,-29
17:04:30:796515,-11,-4,-2,1,-1,-1,2,3
17:04:30:804741,-11,-4,-2,1,-1,-1,2,3
17:04:30:805606,-3,-2,-10,1,-2,-2,4,-4
17:04:30:811610,-4,-2,-1,1,4,9,4,-9
17:04:30:827285,-4,-2,-1,1,4,9,4,-9
17:04:30:828117,13,0,-9,-3,-1,-5,3,10
17:04:30:834125,5,-1,20,1,-3,1,-3,-9
17:04:30:842236,5,-1,20,1,-3,1,-3,-9
17:04:30:843095,5,-6,-1,0,4,1,6,18
17:04:30:856620,2,3,-8,2,2,0,3,12
17:04:30:864747,2,3,-8,2,2,0,3,12
17:04:30:865627,-4,-2,-3,-2,-5,-4,4,-11
17:04:30:871609,-4,-2,-10,-6,0,-5,-3,-5
17:04:30:887242,-4,-2,-10,-6,0,-5,-3,-5
17:04:30:888110,-4,-1,2,-3,-4,-9,-8,4
17:04:30:894124,-3,-1,-1,3,6,10,4,-2
17:04:30:902249,-3,-1,-1,3,6,10,4,-2
17:04:30:903112,2,2,-4,-3,1,-2,-4,6
17:04:30:916621,-1,-1,1,-1,-9,-10,-6,-2
17:04:30:924748,-1,-1,1,-1,-9,-10,-6,-2
17:04:30:925606,0,2,21,5,-1,13,3,9
17:04:30:931605,-7,3,-10,-2,0,-5,-2,-3
17:04:30:947255,-7,3,-10,-2,0,-5,-2,-3
17:04:30:948101,7,-1,-2,-5,2,-4,2,21
17:04:30:954126,0,3,7,-3,-3,5,-1,1
17:04:30:962238,0,3,7,-3,-3,5,-1,1
17:04:30:963128,-3,-5,5,-3,2,-3,-4,-5
17:04:30:976610,-1,-1,2,3,-8,-9,-2,-4
17:04:30:984762,-1,-1,2,3,-8,-9,-2,-4
17:04:30:985615,-6,0,-2,3,1,2,-4,6
17:04:30:991625,-9,-1,1,-2,-1,0,-6,-5
17:04:31:7348,-9,-1,1,-2,-1,0,-6,-5
17:04:31:8108,-3,-1,-10,-6,-2,0,-2,-12
17:04:31:14111,4,0,-5,-5,2,-2,2,2
17:04:31:22260,4,0,-5,-5,2,-2,2,2
17:04:31:23114,-2,1,0,2,-3,3,2,3
17:04:31:36632,-2,-6,-5,-1,1,-1,2,0
17:04:31:44874,-2,-6,-5,-1,1,-1,2,0
17:04:31:45604,0,-4,-7,-2,3,-1,-4,-3
17:04:31:51629,1,1,0,-2,-18,-4,0,2
17:04:31:67367,1,1,0,-2,-18,-4,0,2
17:04:31:68116,0,3,-9,-4,-2,-5,0,0
17:04:31:74121,-6,-1,-4,-4,4,1,-2,-3
17:04:31:82384,-6,-1,-4,-4,4,1,-2,-3
17:04:31:83151,-4,4,-9,3,0,1,-6,-6
17:04:31:96647,1,-6,4,0,4,-2,-4,-2
17:04:31:104860,1,-6,4,0,4,-2,-4,-2
17:04:31:105617,0,1,-1,1,-1,-4,-4,-3
17:04:31:111593,3,16,49,4,7,13,5,7
17:04:31:127744,3,16,49,4,7,13,5,7
17:04:31:134742,-5,-4,-10,-7,1,-3,-1,-5
17:04:31:135483,1,-10,-13,-6,-12,-10,-2,-1
17:04:31:142358,1,-10,-13,-6,-12,-10,-2,-1
17:04:31:143135,-2,0,7,2,0,3,2,-2
17:04:31:156627,-1,1,-9,0,6,4,-2,-4
17:04:31:164874,-1,1,-9,0,6,4,-2,-4
17:04:31:165616,6,0,-1,-5,-13,-7,-3,0
17:04:31:171636,2,-1,5,5,6,-3,-2,-2
17:04:31:187265,2,-1,5,5,6,-3,-2,-2
17:04:31:188111,-4,-7,5,2,2,2,-1,-10
17:04:31:194128,-3,-2,-6,2,-4,1,0,0
17:04:31:202434,-3,-2,-6,2,-4,1,0,0
17:04:31:203097,-3,0,-2,-4,-7,-6,-5,3
17:04:31:216617,-1,-3,-15,-5,7,-6,-5,-3
17:04:31:224751,-1,-3,-15,-5,7,-6,-5,-3
17:04:31:225601,0,2,3,4,7,6,6,0
17:04:31:231609,-1,-10,0,0,3,-1,1,0
17:04:31:247266,-1,-10,0,0,3,-1,1,0
17:04:31:248111,2,-2,1,-1,-10,-9,0,1
17:04:31:254156,-1,2,-2,4,0,3,1,2
17:04:31:262365,-1,2,-2,4,0,3,1,2
17:04:31:263163,1,7,-4,-2,2,-3,-4,-1
17:04:31:276634,-4,5,-6,0,6,5,-5,-8
17:04:31:284757,-4,5,-6,0,6,5,-5,-8
17:04:31:285611,1,-6,-8,3,5,-1,1,3
17:04:31:291629,3,-1,-5,-1,-5,-9,-4,6
17:04:31:307246,3,-1,-5,-1,-5,-9,-4,6
17:04:31:308123,-2,-2,-4,-2,1,3,3,-1
17:04:31:314120,-1,-3,-11,-5,-4,-2,-2,-1
17:04:31:329761,-1,-3,-11,-5,-4,-2,-2,-1
17:04:31:330614,0,-4,4,0,-1,-3,-3,-3
17:04:31:336630,0,4,5,-6,0,-1,5,-15
17:04:31:344747,0,4,5,-6,0,-1,5,-15
17:04:31:345610,-4,-6,-1,-4,0,-1,-6,-5
17:04:31:351629,4,-3,-2,-1,-5,-7,0,4
17:04:31:367262,4,-3,-2,-1,-5,-7,0,4
17:04:31:368106,-3,1,-4,-6,4,2,-3,3
17:04:31:374108,-4,2,1,1,4,6,1,2
17:04:31:382261,-4,2,1,1,4,6,1,2
17:04:31:383108,-7,0,8,1,1,-3,-3,-2
17:04:31:396641,-2,1,-1,-1,-6,-3,-1,3
17:04:31:404739,-2,1,-1,-1,-6,-3,-1,3
17:04:31:405637,-2,0,3,0,-4,2,5,13
17:04:31:411615,-15,-2,-2,0,-1,-1,2,-19
17:04:31:427258,-15,-2,-2,0,-1,-1,2,-19
17:04:31:428145,9,-2,-2,1,0,5,3,-3
17:04:31:434147,7,2,-2,-3,-10,-17,-1,5
17:04:31:442245,7,2,-2,-3,-10,-17,-1,5
17:04:31:443115,-7,15,14,0,1,11,2,-3
17:04:31:456638,4,5,22,3,1,1,-3,9
17:04:31:464763,4,5,22,3,1,1,-3,9
17:04:31:465638,6,-6,-9,-2,-4,-7,0,-14
17:04:31:471630,-4,-9,-6,-3,-3,4,-2,7
17:04:31:487261,-4,-9,-6,-3,-3,4,-2,7
17:04:31:488122,-23,-3,6,2,-1,-1,-8,-17
17:04:31:494169,1,0,-3,0,-1,-1,-1,6
17:04:31:502251,1,0,-3,0,-1,-1,-1,6
17:04:31:503112,0,-6,-17,-8,4,-4,1,3
17:04:31:525509,-2,10,8,-1,2,3,-1,0
17:04:31:526281,-2,10,8,-1,2,3,-1,0
17:04:31:527117,0,5,-4,-1,0,-7,-6,-5
17:04:31:539120,0,-5,7,-3,-2,1,-2,5
17:04:31:547267,0,-5,7,-3,-2,1,-2,5
17:04:31:548112,2,-6,1,-1,-8,-1,2,4
17:04:31:554171,0,-4,-11,-1,6,-4,-1,-12
17:04:31:562373,0,-4,-11,-1,6,-4,-1,-12
17:04:31:563147,2,-2,0,0,0,-3,-4,2
17:04:31:576624,-4,-2,0,-5,-8,-3,-4,-7
17:04:31:584892,-4,-2,0,-5,-8,-3,-4,-7
17:04:31:585617,3,0,2,1,5,0,0,4
17:04:31:591628,-1,0,-4,1,1,1,-4,-4
17:04:31:607280,-1,0,-4,1,1,1,-4,-4
17:04:31:608103,-2,1,5,-2,0,5,-2,-4
17:04:31:614120,-1,1,-11,0,4,0,-3,0
17:04:31:622357,-1,1,-11,0,4,0,-3,0
17:04:31:623122,3,1,-5,5,10,3,3,1
17:04:31:636637,1,-4,3,-1,6,2,0,-1
17:04:31:644880,1,-4,3,-1,6,2,0,-1
17:04:31:645617,0,-5,4,1,-10,-11,-3,4
17:04:31:651697,-2,-3,-2,-4,-10,-1,-3,-2
17:04:31:667254,-2,-3,-2,-4,-10,-1,-3,-2
17:04:31:668110,1,-5,-6,-3,2,2,-2,-8
17:04:31:674143,4,-3,-5,-4,-6,-8,-6,11
17:04:31:682261,4,-3,-5,-4,-6,-8,-6,11
17:04:31:683124,-2,1,0,1,-1,6,2,-2
17:04:31:705373,-4,-3,-20,-5,2,-1,2,-2
17:04:31:706269,-4,-3,-20,-5,2,-1,2,-2
17:04:31:707021,-2,-2,-11,-9,-28,-16,-3,1
17:04:31:719153,-2,1,-2,1,-2,1,1,-1
17:04:31:727394,-2,1,-2,1,-2,1,1,-1
17:04:31:728158,-7,3,-6,-4,0,-2,-4,0
17:04:31:742274,-3,-2,3,2,-1,3,2,-10
17:04:31:743099,-3,-2,3,2,-1,3,2,-10
17:04:31:749121,2,0,11,1,6,-3,-1,2
17:04:31:756598,1,5,14,6,14,5,1,2
17:04:31:764862,1,5,14,6,14,5,1,2
17:04:31:765611,1,1,25,1,0,7,0,4
17:04:31:779128,4,-10,-25,1,3,-1,0,-7
17:04:31:787255,4,-10,-25,1,3,-1,0,-7
17:04:31:788123,-9,0,-7,2,-2,1,-1,-4
17:04:31:794113,-5,1,-5,-7,-3,-1,-1,-4
17:04:31:801734,-5,1,-5,-7,-3,-1,-1,-4
17:04:31:817269,0,-6,-2,-2,13,-4,-1,3
17:04:31:818129,-3,0,6,3,-1,-1,0,7
17:04:31:824895,-3,0,6,3,-1,-1,0,7
17:04:31:825673,0,-7,4,-1,1,-2,-4,-5
17:04:31:839113,-3,-1,0,-3,-3,-1,-2,-5
17:04:31:847218,-3,-1,0,-3,-3,-1,-2,-5
17:04:31:848111,0,-2,-10,-3,-7,-1,-2,2
17:04:31:854105,-1,0,-1,2,4,1,-3,-4
17:04:31:861744,-1,0,-1,2,4,1,-3,-4
17:04:31:869140,5,4,13,5,7,0,1,-4
17:04:31:876677,1,3,4,1,3,8,2,-2
17:04:31:884730,1,3,4,1,3,8,2,-2
17:04:31:885679,-1,-2,-11,-2,-3,-4,1,-21
17:04:31:899128,12,-4,5,3,-3,-4,2,13
17:04:31:907417,12,-4,5,3,-3,-4,2,13
17:04:31:908183,-10,7,-6,-2,-1,-3,-1,3
17:04:31:914138,-3,7,-10,-2,-5,1,3,2
17:04:31:921656,-3,7,-10,-2,-5,1,3,2
17:04:31:929111,-2,0,-4,0,-9,0,-1,9
17:04:31:936629,1,-2,-12,-4,4,-3,-7,-3
17:04:31:944744,1,-2,-12,-4,4,-3,-7,-3
17:04:31:945634,1,-5,-4,-4,5,5,3,5
17:04:31:959144,-2,0,4,-2,0,-7,-6,-5
17:04:31:967294,-2,0,4,-2,0,-7,-6,-5
17:04:31:968112,2,-4,23,1,2,4,4,-3
17:04:31:974142,-23,-10,5,-2,-5,-3,-4,-35
17:04:31:981636,-23,-10,5,-2,-5,-3,-4,-35
17:04:31:997233,-15,-3,-15,-8,-9,-9,-7,-5
17:04:31:998116,3,5,0,-4,-1,0,1,9
17:04:32:4760,3,5,0,-4,-1,0,1,9
17:04:32:5624,1,0,-1,3,4,1,-4,-4
17:04:32:19489,1,-2,34,-1,-6,-5,0,1
17:04:32:27265,1,-2,34,-1,-6,-5,0,1
17:04:32:28113,6,-6,-4,4,11,3,1,0
17:04:32:34131,4,-2,-8,0,-1,-5,3,4
17:04:32:41624,4,-2,-8,0,-1,-5,3,4
17:04:32:48980,-3,0,-13,0,5,8,-4,-24
17:04:32:65377,8,-7,-16,-3,-8,-8,-7,-3
17:04:32:66258,8,-7,-16,-3,-8,-8,-7,-3
17:04:32:66986,2,-4,-17,-3,-6,-4,1,-20
17:04:32:79125,4,0,0,-2,-8,0,4,19
17:04:32:87360,4,0,0,-2,-8,0,4,19
17:04:32:88115,10,1,3,-2,-5,-4,-8,24
17:04:32:94143,2,-2,-1,-1,-2,0,8,23
17:04:32:101627,2,-2,-1,-1,-2,0,8,23
17:04:32:109125,-5,2,2,3,0,10,15,-7
17:04:32:116656,-6,0,6,1,2,-1,-7,-9
17:04:32:124752,-6,0,6,1,2,-1,-7,-9
17:04:32:125609,-1,-7,-7,-2,-5,-10,-7,8
17:04:32:148012,1,4,2,2,-2,9,4,0
17:04:32:148728,1,4,2,2,-2,9,4,0
17:04:32:149620,2,3,1,4,0,1,1,5
17:04:32:154120,-2,6,-9,-3,-5,-9,-3,-8
17:04:32:161610,-2,6,-9,-3,-5,-9,-3,-8
17:04:32:169116,-2,1,1,-5,-3,-5,1,3
17:04:32:176621,-2,-5,-6,0,0,4,-3,-14
17:04:32:184741,-2,-5,-6,0,0,4,-3,-14
17:04:32:185630,0,-3,-19,-2,-6,-2,1,9
17:04:32:199138,-1,0,-10,1,6,0,-2,-5
17:04:32:207217,-1,0,-10,1,6,0,-2,-5
17:04:32:208109,-2,-2,3,-4,-3,-2,-6,0
17:04:32:214145,-1,-3,1,-2,4,0,-2,0
17:04:32:229764,-1,-3,1,-2,4,0,-2,0
17:04:32:230617,1,3,3,-2,-1,2,3,-1
17:04:32:236633,-3,0,-5,-4,-3,-5,-3,-2
17:04:32:244783,-3,0,-5,-4,-3,-5,-3,-2
17:04:32:245645,-2,-1,1,-1,-5,0,-1,-5
17:04:32:259645,-5,-4,1,0,-2,2,-5,-5
17:04:32:267254,-5,-4,1,0,-2,2,-5,-5
17:04:32:268114,0,-3,0,-5,-4,-7,-3,0
17:04:32:274134,-3,1,-23,-2,-3,-3,-2,-2
17:04:32:281630,-3,1,-23,-2,-3,-3,-2,-2
17:04:32:289093,-3,-5,6,0,-1,0,-3,-2
17:04:32:296498,-2,-9,6,0,1,2,1,-1
17:04:32:320515,-2,-9,6,0,1,2,1,-1
17:04:32:321237,0,6,1,1,9,0,-2,3
17:04:32:322143,-4,-4,-1,-1,-2,-6,-3,-1
17:04:32:327375,-4,-4,-1,-1,-2,-6,-3,-1
17:04:32:328108,1,-2,-6,-2,0,1,-3,1
17:04:32:334117,5,3,6,-2,-4,-1,0,4
17:04:32:341644,5,3,6,-2,-4,-1,0,4
17:04:32:349128,-2,0,-10,-2,-1,-3,1,4
17:04:32:356639,-5,-2,14,1,-3,-4,0,-5
17:04:32:364784,-5,-2,14,1,-3,-4,0,-5
17:04:32:365614,-2,1,-1,-1,0,5,1,-2
17:04:32:379138,-4,2,-3,-2,-5,-5,-5,-1
17:04:32:387767,-4,2,-3,-2,-5,-5,-5,-1
17:04:32:394758,5,-5,6,-1,-4,-7,1,0
17:04:32:395636,-9,-2,-8,-3,1,2,-2,0
17:04:32:401620,-9,-2,-8,-3,1,2,-2,0
17:04:32:409007,-4,-3,-4,-4,-4,5,-5,3
17:04:32:425388,2,-2,-1,-2,-1,-6,1,0
17:04:32:426250,2,-2,-1,-2,-1,-6,1,0
17:04:32:426998,-1,0,-2,-1,-2,6,0,-2
17:04:32:439125,1,8,3,-3,0,-1,0,-5
17:04:32:447740,1,8,3,-3,0,-1,0,-5
17:04:32:454777,6,3,3,2,-1,-10,-3,-4
17:04:32:455634,-11,-4,-9,0,2,7,1,3
17:04:32:461644,-11,-4,-9,0,2,7,1,3
17:04:32:469115,-3,0,-7,-3,-1,-4,-3,0
17:04:32:476630,-2,-7,2,-2,-2,-6,4,7
17:04:32:484757,-2,-7,2,-2,-2,-6,4,7
17:04:32:485628,-2,-2,-1,-2,2,2,-9,2
17:04:32:508034,4,-2,-2,1,-13,7,-1,0
17:04:32:508748,4,-2,-2,1,-13,7,-1,0
17:04:32:509639,5,6,9,4,2,5,10,15
17:04:32:514138,7,2,1,0,1,-3,0,-17
17:04:32:521756,7,2,1,0,1,-3,0,-17
17:04:32:529117,-11,-6,9,1,-5,-5,-5,-4
17:04:32:536662,-14,-3,1,0,1,-1,-5,2
17:04:32:544748,-14,-3,1,0,1,-1,-5,2
17:04:32:545642,-2,1,-5,-3,-1,-4,0,-1
17:04:32:559168,14,0,7,0,3,6,3,10
17:04:32:567267,14,0,7,0,3,6,3,10
17:04:32:568161,-20,-8,-2,-2,-2,-7,-7,-16
17:04:32:574120,2,0,-4,-2,2,2,-9,-24
17:04:32:581719,2,0,-4,-2,2,2,-9,-24
17:04:32:588995,1,-2,-8,-2,-3,-10,-11,-39
17:04:32:596610,-1,6,-3,-4,-3,1,9,10
17:04:32:604734,-1,6,-3,-4,-3,1,9,10
17:04:32:605639,5,-6,-2,2,-6,-5,2,-20
17:04:32:619176,8,0,-3,3,1,0,4,3
17:04:32:627260,8,0,-3,3,1,0,4,3
17:04:32:628148,4,-3,2,-3,-3,7,5,-2
17:04:32:634024,-2,3,1,0,7,-5,1,6
17:04:32:641657,-2,3,1,0,7,-5,1,6
17:04:32:648997,5,4,1,-4,-5,-3,-1,0
17:04:32:656630,-3,8,43,3,-1,-3,-1,-6
17:04:32:664124,-3,8,43,3,-1,-3,-1,-6
17:04:32:671634,2,2,-2,1,3,0,-4,10
17:04:32:679135,1,-4,-8,1,-4,-1,-8,3
17:04:32:687262,1,-4,-8,1,-4,-1,-8,3
17:04:32:688194,5,1,1,1,0,1,3,17
17:04:32:702246,4,-5,0,0,4,3,0,3
17:04:32:703132,4,-5,0,0,4,3,0,3
17:04:32:709154,7,-5,-6,1,-1,-3,-4,6
17:04:32:716639,-15,-3,-11,-3,1,1,-10,-3
17:04:32:724159,-15,-3,-11,-3,1,1,-10,-3
17:04:32:731655,-5,-1,4,-1,2,1,3,4
17:04:32:739134,-2,-4,0,-1,-2,-3,-2,11
17:04:32:747252,-2,-4,0,-1,-2,-3,-2,11
17:04:32:748125,-2,1,-14,-1,-1,1,8,9
17:04:32:762251,-6,-6,-13,-1,-6,-2,-2,-7
17:04:32:763124,-6,-6,-13,-1,-6,-2,-2,-7
17:04:32:769130,0,1,2,4,1,-4,-4,-9
17:04:32:776644,0,-5,-2,2,3,0,-1,-3
17:04:32:784144,0,-5,-2,2,3,0,-1,-3
17:04:32:791658,-2,-1,0,-2,4,6,-3,-15
17:04:32:808011,1,4,1,0,0,-2,-2,0
17:04:32:808753,1,4,1,0,0,-2,-2,0
17:04:32:809641,-6,-4,7,-6,-5,-3,-2,4
17:04:32:822289,0,-2,-2,-1,5,-2,-4,-5
17:04:32:823127,0,-2,-2,-1,5,-2,-4,-5
17:04:32:829151,2,5,2,0,-2,4,0,8
17:04:32:836671,1,-6,-9,-6,-5,-7,-3,-6
17:04:32:852257,1,-6,-9,-6,-5,-7,-3,-6
17:04:32:853123,-4,-3,3,-1,-1,-6,-9,-10
17:04:32:858998,0,0,-4,0,2,9,4,5
17:04:32:868004,0,0,-4,0,2,9,4,5
17:04:32:868748,4,0,-5,-1,-2,-4,-2,-7
17:04:32:882277,0,-3,-14,-5,-5,-1,0,-6
17:04:32:883127,0,-3,-14,-5,-5,-1,0,-6
17:04:32:889143,-5,-1,-2,-3,2,0,-2,6
17:04:32:896655,3,2,3,-2,8,-1,4,0
17:04:32:904151,3,2,3,-2,8,-1,4,0
17:04:32:911650,-6,-1,-9,-2,-8,1,0,2
17:04:32:919120,-3,0,22,2,5,0,1,1
17:04:32:927403,-3,0,22,2,5,0,1,1
17:04:32:928162,-1,-2,6,1,4,-3,1,1
17:04:32:950383,-1,2,1,-4,-12,-1,-2,10
17:04:32:951267,-1,2,1,-4,-12,-1,-2,10
17:04:32:952121,2,1,4,2,6,7,2,6
17:04:32:956662,-3,-5,-10,-4,-18,-9,-5,0
17:04:32:964142,-3,-5,-10,-4,-18,-9,-5,0
17:04:32:971638,-2,-1,-7,-2,0,-1,-2,0
17:04:32:979136,-8,-1,-14,-3,0,4,-2,-12
17:04:32:987262,-8,-1,-14,-3,0,4,-2,-12
17:04:32:988121,-3,1,-15,-4,-2,-6,0,0
17:04:33:2363,2,0,0,4,2,1,4,6
17:04:33:3125,2,0,0,4,2,1,4,6
17:04:33:9122,3,0,2,-1,-2,1,-1,4
17:04:33:16627,-1,-2,-4,-3,-6,-10,-6,-5
17:04:33:24159,-1,-2,-4,-3,-6,-10,-6,-5
17:04:33:31634,0,1,5,2,1,11,9,4
17:04:33:39149,1,-3,-7,-3,-1,-1,-2,4
17:04:33:47260,1,-3,-7,-3,-1,-1,-2,4
17:04:33:48117,0,2,-6,-4,-8,-5,-1,-4
17:04:33:62503,-3,2,1,3,8,0,-2,2
17:04:33:69769,-3,2,1,3,8,0,-2,2
17:04:33:70661,-4,-5,6,5,9,0,0,-5
17:04:33:76631,1,4,-1,3,-2,3,-3,-19
17:04:33:84155,1,4,-1,3,-2,3,-3,-19
17:04:33:91653,-2,-5,5,-3,-6,-6,0,2
17:04:33:99175,-3,0,-19,5,-1,-2,1,2
17:04:33:107261,-3,0,-19,5,-1,-2,1,2
17:04:33:108131,-3,-4,-3,12,-4,-4,-7,1
17:04:33:122279,-5,-3,-7,-17,-2,2,-1,7
17:04:33:123156,-5,-3,-7,-17,-2,2,-1,7
17:04:33:129139,-9,-2,0,-12,-1,-2,-1,1
17:04:33:144781,4,0,14,3,-9,-2,1,3
17:04:33:145633,4,0,14,3,-9,-2,1,3
17:04:33:151657,-6,0,-5,2,2,7,-5,-1
17:04:33:159141,0,0,3,-5,2,-6,-4,-3
17:04:33:167303,0,0,3,-5,2,-6,-4,-3
17:04:33:168161,-2,-6,-6,-4,4,-3,-1,-2
17:04:33:182279,6,3,2,2,2,-2,-2,2
17:04:33:183144,6,3,2,2,2,-2,-2,2
17:04:33:189120,6,2,24,6,8,10,4,6
17:04:33:196615,-10,-4,5,-1,-3,-4,-1,-6
17:04:33:204148,-10,-4,5,-1,-3,-4,-1,-6
17:04:33:211634,0,1,-7,-5,-8,-3,-3,-6
17:04:33:219137,-5,0,-9,-1,1,1,-1,-17
17:04:33:227263,-5,0,-9,-1,1,1,-1,-17
17:04:33:228136,1,-1,4,-2,-4,-4,-3,3
17:04:33:242287,-5,-6,-2,3,-4,2,0,4
17:04:33:243152,-5,-6,-2,3,-4,2,0,4
17:04:33:249164,-9,-3,-11,-3,-3,-5,-3,-4
17:04:33:256636,-2,4,6,-1,0,-4,1,2
17:04:33:264138,-2,4,6,-1,0,-4,1,2
17:04:33:271515,3,-7,-10,-5,-5,-5,-2,1
17:04:33:279017,1,0,7,-1,-2,2,-1,-6
17:04:33:287241,1,0,7,-1,-2,2,-1,-6
17:04:33:288124,-1,5,-4,-2,-3,-4,-2,0
17:04:33:302258,2,1,7,4,1,1,-1,-2
17:04:33:303146,2,1,7,4,1,1,-1,-2
17:04:33:309006,0,2,-9,1,-7,-4,-1,-3
17:04:33:316547,-4,-5,-8,-6,-4,5,0,-1
17:04:33:324128,-4,-5,-8,-6,-4,5,0,-1
17:04:33:339525,-3,-3,7,1,5,-2,-3,-3
17:04:33:347892,1,1,-4,0,2,3,-2,2
17:04:33:348760,1,1,-4,0,2,3,-2,2
17:04:33:349508,1,1,1,-1,1,3,2,7
17:04:33:362265,-1,-9,5,0,5,-1,-3,0
17:04:33:363160,-1,-9,5,0,5,-1,-3,0
17:04:33:368995,0,2,13,1,-2,1,1,2
17:04:33:376511,5,4,-2,0,11,1,2,-2
17:04:33:384127,5,4,-2,0,11,1,2,-2
17:04:33:391525,-3,3,-19,1,-4,-2,0,-10
17:04:33:399006,-2,1,10,3,-4,-3,-3,0
17:04:33:407255,-2,1,10,3,-4,-3,-3,0
17:04:33:408127,4,0,-2,-2,7,-2,2,-1
17:04:33:422787,-6,3,-10,-4,-8,-4,-1,-3
17:04:33:423629,-6,3,-10,-4,-8,-4,-1,-3
17:04:33:429008,0,-2,2,-1,1,0,-2,-2
17:04:33:436508,3,2,-1,-1,-1,1,-3,0
17:04:33:444135,3,2,-1,-1,-1,1,-3,0
17:04:33:451635,1,-3,3,-2,-9,1,-1,-9
17:04:33:459133,-6,-8,-1,-1,-3,-1,-3,-11
17:04:33:467280,-6,-8,-1,-1,-3,-1,-3,-11
17:04:33:468161,-4,-6,2,1,3,-1,-7,1
17:04:33:490390,2,-3,1,2,16,10,2,4
17:04:33:491274,2,-3,1,2,16,10,2,4
17:04:33:492023,-2,-4,-5,2,8,0,2,-3
17:04:33:496544,-5,-4,1,-3,-3,-10,-2,-1
17:04:33:504140,-5,-4,1,-3,-3,-10,-2,-1
17:04:33:511513,-6,-9,-3,-4,-1,4,-1,-1
17:04:33:519021,0,-1,-8,-3,-5,1,-1,4
17:04:33:527275,0,-1,-8,-3,-5,1,-1,4
17:04:33:528142,1,-2,8,1,-4,-3,-4,3
17:04:33:542273,-2,0,-8,-4,-2,-3,-3,5
17:04:33:543125,-2,0,-8,-4,-2,-3,-3,5
17:04:33:549145,-2,2,1,-2,4,3,-2,3
17:04:33:556499,-2,0,4,-2,2,-2,-3,-13
17:04:33:564154,-2,0,4,-2,2,-2,-3,-13
17:04:33:571653,0,0,6,-3,-8,-10,0,-7
17:04:33:579160,-3,-1,8,0,-6,10,4,5
17:04:33:587287,-3,-1,8,0,-6,10,4,5
17:04:33:588115,1,1,-7,-4,-6,-5,1,0
17:04:33:602252,1,1,1,1,1,-6,-2,-11
17:04:33:603142,1,1,1,1,1,-6,-2,-11
17:04:33:609130,1,0,24,6,2,3,-2,-15
17:04:33:624765,-2,-2,1,0,-2,-3,-1,9
17:04:33:625661,-2,-2,1,0,-2,-3,-1,9
17:04:33:631631,0,1,-11,-7,-2,-7,-1,6
17:04:33:639006,-8,-1,2,0,1,0,0,4
17:04:33:646708,-8,-1,2,0,1,0,0,4
17:04:33:654139,2,-1,-9,-1,3,0,-1,-11
17:04:33:662269,-4,2,-2,-2,-5,-8,-5,-2
17:04:33:663153,-4,2,-2,-2,-5,-8,-5,-2
17:04:33:669137,0,2,-8,3,12,13,0,3
17:04:33:684766,3,-1,2,-2,-5,-3,-2,4
17:04:33:685649,3,-1,2,-2,-5,-3,-2,4
17:04:33:691631,-4,-5,-16,-6,1,4,2,10
17:04:33:699147,-1,0,0,-3,2,-2,-4,-6
17:04:33:706648,-1,0,0,-3,2,-2,-4,-6
17:04:33:714137,-4,0,-6,0,1,-4,-3,2
17:04:33:722266,3,-4,-14,-3,-1,-2,0,-3
17:04:33:723138,3,-4,-14,-3,-1,-2,0,-3
17:04:33:729197,-2,-4,5,1,-2,-2,-5,-6
17:04:33:744779,4,4,-3,0,4,8,5,3
17:04:33:745645,4,4,-3,0,4,8,5,3
17:04:33:751641,-3,-3,-10,-4,-10,-7,-3,-6
17:04:33:767280,0,2,2,-1,-3,-6,-3,5
17:04:33:768139,0,2,2,-1,-3,-6,-3,5
17:04:33:774157,0,3,0,3,-2,11,7,9
17:04:33:782245,-3,-5,-10,-4,1,-2,-5,-4
17:04:33:783117,-3,-5,-10,-4,1,-2,-5,-4
17:04:33:789145,-2,2,3,-3,-5,-12,-3,1
17:04:33:804771,2,-2,2,4,0,2,1,5
17:04:33:805674,2,-2,2,4,0,2,1,5
17:04:33:811640,0,-6,8,2,0,7,8,4
17:04:33:819162,-2,-3,14,4,-5,-5,-4,-6
17:04:33:826633,-2,-3,14,4,-5,-5,-4,-6
17:04:33:834139,-6,2,3,0,-3,-5,-7,-2
17:04:33:842362,-2,-4,-10,-1,4,3,1,-26
17:04:33:843137,-2,-4,-10,-1,4,3,1,-26
17:04:33:849126,9,-3,-1,-3,1,-4,-1,-4
17:04:33:865299,0,1,-9,-1,-7,-7,-2,1
17:04:33:866022,0,1,-9,-1,-7,-7,-2,1
17:04:33:871654,-3,0,-3,-3,-2,0,-3,0
17:04:33:879122,2,2,-6,-3,-2,-1,-2,2
17:04:33:886676,2,2,-6,-3,-2,-1,-2,2
17:04:33:894191,-3,0,-19,0,1,-1,-4,-11
17:04:33:902281,-1,7,-1,-1,-1,-1,3,11
17:04:33:903171,-1,7,-1,-1,-1,-1,3,11
17:04:33:916648,-6,-11,-2,-3,-1,0,2,8
17:04:33:924782,-5,-4,6,-3,-3,-5,-5,-6
17:04:33:925664,-5,-4,6,-3,-3,-5,-5,-6
17:04:33:931665,2,5,6,2,-4,6,1,3
17:04:33:939142,-7,-1,23,2,-6,-6,-1,3
17:04:33:946646,-7,-1,23,2,-6,-6,-1,3
17:04:33:954043,-2,4,4,-1,-12,-5,-3,1
17:04:33:962295,3,-2,-10,2,3,5,4,5
17:04:33:963118,3,-2,-10,2,3,5,4,5
17:04:33:969002,0,-1,-3,-1,5,-3,-1,-5
17:04:33:984802,-10,-4,-12,-5,-1,-3,-4,0
17:04:33:985630,-10,-4,-12,-5,-1,-3,-4,0
17:04:33:991531,0,-1,0,-3,3,0,-5,-25
17:04:33:999038,4,0,-10,-3,0,1,-2,7
17:04:34:6651,4,0,-10,-3,0,1,-2,7
17:04:34:14018,-1,1,-7,-3,-3,-4,-4,6
17:04:34:22293,1,-1,21,2,-3,-8,0,-3
17:04:34:23172,1,-1,21,2,-3,-8,0,-3
17:04:34:29161,0,-1,2,1,4,9,3,2
17:04:34:44774,1,-1,-10,-2,-2,-1,1,-4
17:04:34:45715,1,-1,-10,-2,-2,-1,1,-4
17:04:34:51577,-7,-6,4,-2,0,-3,4,5
17:04:34:59024,-7,-9,8,0,1,1,-2,-3
17:04:34:66634,-7,-9,8,0,1,1,-2,-3
17:04:34:74153,1,0,-2,-2,1,0,2,1
17:04:34:82310,-5,-2,13,5,3,3,1,0
17:04:34:83148,-5,-2,13,5,3,3,1,0
17:04:34:89146,-6,0,-1,-1,-4,-5,-6,-21
17:04:34:104764,6,4,8,2,12,-2,0,-1
17:04:34:105625,6,4,8,2,12,-2,0,-1
17:04:34:111653,0,3,-6,-3,-23,3,-2,9
17:04:34:119145,2,4,-5,-4,1,0,-3,-5
17:04:34:126644,2,4,-5,-4,1,0,-3,-5
17:04:34:134159,1,2,-6,-1,0,-8,-5,2
17:04:34:142272,-2,-3,-11,-2,-2,-1,-6,0
17:04:34:143146,-2,-3,-11,-2,-2,-1,-6,0
17:04:34:149155,6,1,-1,-2,2,-1,3,4
17:04:34:164791,9,6,2,-3,1,-2,-1,-7
17:04:34:165518,9,6,2,-3,1,-2,-1,-7
17:04:34:171645,0,-3,1,2,4,-4,-6,-16
17:04:34:179142,-4,-3,-9,-3,-4,1,2,10
17:04:34:186646,-4,-3,-9,-3,-4,1,2,10
17:04:34:194164,-6,3,10,2,7,1,-1,2
17:04:34:202259,-1,-8,-15,-4,2,5,-2,-5
17:04:34:203169,-1,-8,-15,-4,2,5,-2,-5
17:04:34:209045,-2,-2,4,0,8,1,0,1
17:04:34:224759,0,-1,0,-1,-2,-4,-2,-3
17:04:34:225630,0,-1,0,-1,-2,-4,-2,-3
17:04:34:231509,0,-1,4,-2,-7,2,2,25
17:04:34:239149,0,1,-14,-1,-1,3,3,3
17:04:34:246642,0,1,-14,-1,-1,3,3,3
17:04:34:254046,2,0,0,-2,-3,-6,0,4
17:04:34:262252,-2,-1,-2,0,-3,-4,-2,-4
17:04:34:263169,-2,-1,-2,0,-3,-4,-2,-4
17:04:34:269028,-8,-2,-16,-2,2,2,-5,-4
17:04:34:285155,1,0,-1,-2,-3,-2,-2,-1
17:04:34:292272,1,0,-1,-2,-3,-2,-2,-1
17:04:34:293121,-6,-3,3,4,1,2,1,-11
17:04:34:299025,1,-4,3,2,-4,1,5,9
17:04:34:306645,1,-4,3,2,-4,1,5,9
17:04:34:314025,2,-1,-2,1,-1,-9,-5,1
17:04:34:322268,0,-1,-6,0,1,0,-9,0
17:04:34:323163,0,-1,-6,0,1,0,-9,0
17:04:34:329147,-1,-1,-3,-1,1,5,-1,-12
17:04:34:344775,0,0,4,-4,-8,-13,-2,-5
17:04:34:345640,0,0,4,-4,-8,-13,-2,-5
17:04:34:351635,-1,0,1,0,1,4,1,3
17:04:34:359021,-1,0,-2,-3,-2,1,-1,3
17:04:34:366650,-1,0,-2,-3,-2,1,-1,3
17:04:34:374168,3,-1,-1,2,-1,-3,1,-15
17:04:34:382265,1,2,5,0,0,6,4,-7
17:04:34:383147,1,2,5,0,0,6,4,-7
17:04:34:389161,8,4,-11,-7,-4,-7,-4,1
17:04:34:404777,-1,4,-4,-1,-4,1,-1,4
17:04:34:405645,-1,4,-4,-1,-4,1,-1,4
17:04:34:411664,-14,2,-4,-5,3,-1,0,10
17:04:34:419146,-3,-10,-6,0,-1,1,1,2
17:04:34:426673,-3,-10,-6,0,-1,1,1,2
17:04:34:434172,-3,-3,3,3,-1,5,6,0
17:04:34:442264,-4,-8,5,2,-1,-3,-2,-16
17:04:34:443146,-4,-8,5,2,-1,-3,-2,-16
17:04:34:449140,3,-8,0,-10,-33,-11,-4,1
17:04:34:464782,-2,2,-2,-3,-1,2,-2,-4
17:04:34:465539,-2,2,-2,-3,-1,2,-2,-4
17:04:34:471652,2,1,9,1,8,0,-5,-29
17:04:34:479176,8,1,2,-2,-3,-5,-5,-21
17:04:34:486679,8,1,2,-2,-3,-5,-5,-21
17:04:34:494036,-1,0,-1,-1,2,-2,-6,4
17:04:34:502278,-4,-6,-3,3,10,8,10,-2
17:04:34:503154,-4,-6,-3,3,10,8,10,-2
17:04:34:509021,1,-7,-2,1,4,-6,-8,-1
17:04:34:524782,1,-7,-2,1,4,-6,-8,-1
17:04:34:525642,-3,1,-8,-2,-3,-10,-9,1
17:04:34:531514,-9,0,3,3,3,5,3,17
17:04:34:547287,-9,0,3,3,3,5,3,17
17:04:34:548145,-1,-2,2,-1,-4,-4,-6,12
17:04:34:554145,0,-3,-2,-2,-1,-4,2,9
17:04:34:562284,0,-3,-2,-2,-1,-4,2,9
17:04:34:563165,-2,4,-5,-6,-4,8,4,0
17:04:34:576636,-8,-1,-1,-2,3,-7,0,12
17:04:34:584798,-8,-1,-1,-2,3,-7,0,12
17:04:34:585645,4,-1,-4,1,4,-1,1,-9
17:04:34:591654,2,-1,-3,0,3,2,2,2
17:04:34:615519,2,-1,-3,0,3,2,2,2
17:04:34:616280,-4,-4,-6,-2,3,-2,-2,4
17:04:34:617000,1,3,-2,2,6,-2,-2,-5
17:04:34:622267,1,3,-2,2,6,-2,-2,-5
17:04:34:623158,5,4,4,4,-1,1,5,-6
17:04:34:636533,-15,-7,3,0,0,-1,-13,-11
17:04:34:644779,-15,-7,3,0,0,-1,-13,-11
17:04:34:645644,-2,1,1,1,-2,-6,-7,9
17:04:34:651524,-1,2,-5,-1,-7,2,0,4
17:04:34:667281,-1,2,-5,-1,-7,2,0,4
17:04:34:668163,-5,-3,7,1,6,4,0,-1
17:04:34:674023,6,4,-1,2,10,1,3,-7
17:04:34:682283,6,4,-1,2,10,1,3,-7
17:04:34:683156,0,4,-5,-2,-6,-2,1,3
17:04:34:696532,5,-4,-9,-3,-2,-3,-3,-6
17:04:34:704775,5,-4,-9,-3,-2,-3,-3,-6
17:04:34:705637,-3,-10,8,3,3,-1,-3,4
17:04:34:711512,1,-2,-11,-7,-6,-2,7,5
17:04:34:727287,1,-2,-11,-7,-6,-2,7,5
17:04:34:728165,-8,-4,0,-1,-3,4,5,11
17:04:34:734011,4,6,24,4,-5,-10,-1,0
17:04:34:742274,4,6,24,4,-5,-10,-1,0
17:04:34:743131,-1,2,0,0,2,2,1,5
17:04:34:756525,3,-3,-2,-4,-3,1,1,-12
17:04:34:764769,3,-3,-2,-4,-3,1,1,-12
17:04:34:765636,-4,-4,8,2,-6,2,-3,-1
17:04:34:779127,-3,4,-6,-2,-4,1,-3,-2
17:04:34:787302,-3,4,-6,-2,-4,1,-3,-2
17:04:34:788144,3,1,5,0,0,-2,-2,4
17:04:34:794026,0,-9,-5,4,7,2,5,10
17:04:34:802286,0,-9,-5,4,7,2,5,10
17:04:34:803176,2,3,-6,0,-2,-5,-2,0
17:04:34:816678,0,-2,-9,1,-1,0,-2,1
17:04:34:824773,0,-2,-9,1,-1,0,-2,1
17:04:34:825645,-2,1,-6,-4,10,0,0,-1
17:04:34:831531,-2,-4,-10,-2,1,7,7,1
17:04:34:847267,-2,-4,-10,-2,1,7,7,1
17:04:34:848133,-2,0,-2,-1,3,0,-2,-7
17:04:34:854162,-3,-6,-7,-6,-1,-6,-6,-5
17:04:34:862284,-3,-6,-7,-6,-1,-6,-6,-5
17:04:34:863140,-2,2,5,1,5,-2,-4,-6
17:04:34:876649,-2,-1,4,3,-8,4,-5,-15
17:04:34:893041,-2,-1,4,3,-8,4,-5,-15
17:04:34:893780,-3,2,12,-4,-16,1,2,-1
17:04:34:894644,-2,0,-22,-2,4,-7,-7,-9
17:04:34:907273,-2,0,-22,-2,4,-7,-7,-9
17:04:34:908145,1,-2,-3,-3,-4,-5,3,5
17:04:34:914019,3,-5,-11,-1,4,9,0,6
17:04:34:922281,3,-5,-11,-1,4,9,0,6
17:04:34:923176,-2,-6,-17,-5,-6,-8,-5,-16
17:04:34:936546,-5,4,3,-4,-6,-7,-2,6
17:04:34:944779,-5,4,3,-4,-6,-7,-2,6
17:04:34:945649,-7,0,1,-5,-2,7,0,-5
17:04:34:951521,1,8,29,1,-2,-4,-4,-14
17:04:34:967292,1,8,29,1,-2,-4,-4,-14
17:04:34:968176,-4,-5,-1,-7,-20,-13,-9,-4
17:04:34:974025,0,0,3,2,5,5,-1,5
17:04:34:982274,0,0,3,2,5,5,-1,5
17:04:34:983150,5,-6,-4,2,8,2,-4,-2
17:04:34:996537,-3,4,4,-3,-5,-3,-2,-5
17:04:35:4793,-3,4,4,-3,-5,-3,-2,-5
17:04:35:5639,4,2,-7,4,4,2,1,0
17:04:35:11532,-6,1,0,-4,-4,-4,-1,5
17:04:35:27298,-6,1,0,-4,-4,-4,-1,5
17:04:35:28173,0,-2,-3,0,12,10,-1,10
17:04:35:34032,-3,-6,2,-1,-5,-2,0,1
17:04:35:42275,-3,-6,2,-1,-5,-2,0,1
17:04:35:43154,-1,3,2,3,4,-6,1,-2
17:04:35:56656,-1,-1,-1,0,-1,-2,1,3
17:04:35:64781,-1,-1,-1,0,-1,-2,1,3
17:04:35:65648,0,0,-4,-1,1,1,-3,-1
17:04:35:79141,-3,-3,-9,-6,-8,-5,-5,0
17:04:35:95543,-3,-3,-9,-6,-8,-5,-5,0
17:04:35:96272,2,-2,-1,-3,0,-1,0,8
17:04:35:97149,10,0,-2,-2,-4,-3,0,-1
17:04:35:102283,10,0,-2,-2,-4,-3,0,-1
17:04:35:103028,-3,-1,-5,1,2,-1,0,-10
17:04:35:125394,-1,-5,-3,1,10,6,0,-1
17:04:35:126272,-1,-5,-3,1,10,6,0,-1
17:04:35:127012,-2,1,-12,-1,-10,-4,2,-6
17:04:35:139070,-1,2,9,4,4,2,3,-3
17:04:35:147274,-1,2,9,4,4,2,3,-3
17:04:35:148146,-2,-1,6,0,3,-1,-1,5
17:04:35:162891,-3,1,-3,1,-6,-2,-1,-1
17:04:35:163769,-3,1,-3,1,-6,-2,-1,-1
17:04:35:164556,0,1,-3,-1,-9,-1,-1,0
17:04:35:176663,0,-6,1,0,8,-2,1,1
17:04:35:184789,0,-6,1,0,8,-2,1,1
17:04:35:185551,-2,2,-2,0,-1,-2,-3,-5
17:04:35:191639,0,1,2,-2,3,3,3,4
17:04:35:207273,0,1,2,-2,3,3,3,4
17:04:35:208133,1,1,-16,-5,9,0,-3,-5
17:04:35:214151,-4,2,7,1,0,-5,0,-2
17:04:35:222286,-4,2,7,1,0,-5,0,-2
17:04:35:223021,-5,-1,-3,-1,-2,3,-1,1
17:04:35:245412,-2,1,-16,-4,4,-2,-5,-2
17:04:35:246269,-2,1,-16,-4,4,-2,-5,-2
17:04:35:247135,-2,-4,9,-3,-11,-6,-1,4
17:04:35:251545,-1,-5,4,1,-6,1,0,1
17:04:35:267310,-1,-5,4,1,-6,1,0,1
17:04:35:268176,-3,-4,10,-1,3,3,-2,-6
17:04:35:274038,-7,0,0,1,-5,1,-3,-2
17:04:35:282905,-7,0,0,1,-5,1,-3,-2
17:04:35:283785,0,-5,22,5,5,-3,-1,0
17:04:35:305415,2,-1,3,-1,11,-2,1,2
17:04:35:306291,2,-1,3,-1,11,-2,1,2
17:04:35:307074,-1,0,-1,-1,0,-2,0,-2
17:04:35:319163,3,5,-5,-5,-7,-5,0,-10
17:04:35:327281,3,5,-5,-5,-7,-5,0,-10
17:04:35:328154,1,-4,-9,-3,4,-2,0,0
17:04:35:334030,0,-2,-2,-2,-15,-1,-1,5
17:04:35:342279,0,-2,-2,-2,-15,-1,-1,5
17:04:35:343149,0,-2,5,1,0,-3,-3,5
17:04:35:356658,-2,-15,-13,-2,3,-2,-2,-3
17:04:35:365537,-2,-15,-13,-2,3,-2,-2,-3
17:04:35:366280,-4,-3,-8,0,2,1,3,8
17:04:35:371537,-2,-1,0,1,16,7,0,-4
17:04:35:387289,-2,-1,0,1,16,7,0,-4
17:04:35:388025,-1,0,13,0,2,-4,-4,-16
17:04:35:394150,-1,0,-4,-3,-13,-5,-2,2
17:04:35:402312,-1,0,-4,-3,-13,-5,-2,2
17:04:35:403128,-3,4,8,1,-9,3,2,-2
17:04:35:417071,-3,-2,4,-1,1,5,3,-1
17:04:35:433662,-3,-2,4,-1,1,5,3,-1
17:04:35:434424,-2,-11,2,2,1,2,2,-1
17:04:35:435277,-1,5,-23,-4,-11,-5,-4,2
17:04:35:447281,-1,5,-23,-4,-11,-5,-4,2
17:04:35:448165,-9,-6,-9,-4,-8,-4,-8,-33
17:04:35:454793,-4,-1,-6,-2,-1,-1,-1,0
17:04:35:462311,-4,-1,-6,-2,-1,-1,-1,0
17:04:35:463157,0,4,-11,-5,-1,1,-1,6
17:04:35:476548,0,-5,7,-2,0,-5,-5,-4
17:04:35:484780,0,-5,7,-2,0,-5,-5,-4
17:04:35:485665,-6,-3,-3,-3,6,11,0,-7
17:04:35:499561,-10,-2,32,4,3,0,1,4
17:04:35:507318,-10,-2,32,4,3,0,1,4
17:04:35:508170,1,-5,-6,-2,-2,-7,-2,7
17:04:35:514031,-3,-7,-5,-4,-21,0,-2,-9
17:04:35:521643,-3,-7,-5,-4,-21,0,-2,-9
17:04:35:529048,2,2,-1,-2,-4,-3,0,3
17:04:35:536531,-4,-7,0,-2,3,0,7,13
17:04:35:545306,-4,-7,0,-2,3,0,7,13
17:04:35:551569,5,0,-6,-3,-1,2,-1,13
17:04:35:559170,6,4,2,1,-1,-6,-7,3
17:04:35:567310,6,4,2,1,-1,-6,-7,3
17:04:35:568077,-2,4,7,2,3,-4,-3,9
17:04:35:574162,0,4,-5,-3,5,7,0,-1
17:04:35:581646,0,4,-5,-3,5,7,0,-1
17:04:35:589059,1,4,3,0,-5,-7,0,-5
17:04:35:596556,1,1,-5,2,-7,-13,0,2
17:04:35:604806,1,1,-5,2,-7,-13,0,2
17:04:35:605667,1,-4,-8,-2,-2,5,-1,-3
17:04:35:619165,3,-7,-6,0,-2,-2,2,15
17:04:35:627280,3,-7,-6,0,-2,-2,2,15
17:04:35:628146,-7,-3,0,0,0,-1,-6,5
17:04:35:634046,6,6,6,2,2,0,-3,10
17:04:35:641694,6,6,6,2,2,0,-3,10
17:04:35:649028,1,-2,-10,-5,-12,1,0,15
17:04:35:656522,2,3,-2,-3,0,-4,-2,-8
17:04:35:664786,2,3,-2,-3,0,-4,-2,-8
17:04:35:665660,-9,7,1,-3,-1,-5,-3,15
17:04:35:679064,1,2,2,1,0,3,5,13
17:04:35:695411,1,2,2,1,0,3,5,13
17:04:35:696303,1,-1,0,3,2,-3,5,-5
17:04:35:697019,1,0,-17,-1,7,6,1,-15
17:04:35:709781,1,0,-17,-1,7,6,1,-15
17:04:35:710674,-22,-11,-8,-4,-1,-6,-9,-34
17:04:35:716657,-1,-3,3,-3,-4,-6,-5,-11
17:04:35:724794,-1,-3,3,-3,-4,-6,-5,-11
17:04:35:725560,6,-2,-13,-1,3,-3,-6,-42
17:04:35:739035,-5,-6,-3,-2,-3,0,-2,-8
17:04:35:747284,-5,-6,-3,-2,-3,0,-2,-8
17:04:35:748150,9,1,-6,-3,3,-1,-1,18
17:04:35:762325,-1,3,1,-1,1,-1,0,-7
17:04:35:763163,-1,3,1,-1,1,-1,0,-7
17:04:35:769174,3,4,4,1,-3,7,0,6
17:04:35:776659,-7,-4,4,-6,3,0,-5,7
17:04:35:784786,-7,-4,4,-6,3,0,-5,7
17:04:35:785535,0,2,18,1,-1,0,1,0
17:04:35:799041,-2,0,4,6,0,-2,0,8
17:04:35:807306,-2,0,4,6,0,-2,0,8
17:04:35:808157,-1,-2,-1,-3,-8,-4,1,2
17:04:35:814141,2,-7,-4,2,1,-2,1,-11
17:04:35:821655,2,-7,-4,2,1,-2,1,-11
17:04:35:829183,3,-1,10,1,3,-3,1,14
17:04:35:836682,0,2,-3,-3,3,2,-3,-11
17:04:35:844829,0,2,-3,-3,3,2,-3,-11
17:04:35:845574,1,0,-3,-2,9,2,-1,-1
17:04:35:859219,-12,0,-4,-7,-16,-3,-8,-4
17:04:35:867295,-12,0,-4,-7,-16,-3,-8,-4
17:04:35:868066,-2,-2,-4,-3,-7,-4,-3,-12
17:04:35:874171,2,-1,-21,-4,5,0,-6,-3
17:04:35:881634,2,-1,-21,-4,5,0,-6,-3
17:04:35:889025,-7,0,-24,-7,-4,-3,-1,4
17:04:35:906535,0,-1,0,0,7,-3,-3,-4
17:04:35:907389,0,-1,0,0,7,-3,-3,-4
17:04:35:911660,-5,6,0,2,3,6,2,-11
17:04:35:919168,-4,3,6,0,2,-1,2,0
17:04:35:927330,-4,3,6,0,2,-1,2,0
17:04:35:928017,-8,-5,1,-3,-4,-3,-6,6
17:04:35:934035,1,-2,-3,0,-1,2,-1,-8
17:04:35:941682,1,-2,-3,0,-1,2,-1,-8
17:04:35:949009,2,0,6,1,-3,-5,2,10
17:04:35:956535,2,-3,1,-1,5,1,4,4
17:04:35:964807,2,-3,1,-1,5,1,4,4
17:04:35:965655,2,-2,-2,2,-2,3,-3,-7
17:04:35:979074,4,3,6,0,-2,-2,7,-3
17:04:35:987295,4,3,6,0,-2,-2,7,-3
17:04:35:988164,0,1,31,3,5,7,4,-1
17:04:35:994042,-5,-3,-3,0,-6,-7,-3,9
17:04:36:1674,-5,-3,-3,0,-6,-7,-3,9
17:04:36:9032,-4,4,-3,2,2,-1,4,7
17:04:36:16543,-13,1,-9,2,4,6,-7,-15
17:04:36:24806,-13,1,-9,2,4,6,-7,-15
17:04:36:25675,2,-2,-1,3,-2,-5,-3,-1
17:04:36:39535,0,0,29,1,-8,-4,3,9
17:04:36:55405,0,0,29,1,-8,-4,3,9
17:04:36:56305,-1,-3,-5,5,8,9,2,-2
17:04:36:57024,1,-4,0,-7,5,-1,-3,-2
17:04:36:61665,1,-4,0,-7,5,-1,-3,-2
17:04:36:77270,-3,2,-2,-18,-8,-11,1,1
17:04:36:78032,-2,3,3,6,3,6,1,-6
17:04:36:84795,-2,3,3,6,3,6,1,-6
17:04:36:85531,0,-6,-4,-1,-5,-7,-4,1
17:04:36:99568,13,0,-2,1,-1,2,-4,2
17:04:36:107289,13,0,-2,1,-1,2,-4,2
17:04:36:108032,17,2,-1,3,3,-2,-3,-12
17:04:36:114166,-4,0,-7,-1,-1,-3,-4,1
17:04:36:121667,-4,0,-7,-1,-1,-3,-4,1
17:04:36:137299,-5,-6,-10,-1,-24,-5,-4,5
17:04:36:138032,-4,1,-13,-2,-11,1,-2,-2
17:04:36:160427,-4,1,-13,-2,-11,1,-2,-2
17:04:36:161305,-3,-3,-6,-2,7,-1,5,4
17:04:36:162056,-2,-2,6,0,-5,-8,-1,1
17:04:36:167333,-2,-2,6,0,-5,-8,-1,1
17:04:36:168165,-1,1,7,0,0,-3,-5,-11
17:04:36:182327,1,3,0,0,8,2,0,21
17:04:36:183198,1,3,0,0,8,2,0,21
17:04:36:189055,-2,4,-7,-4,2,-1,-6,10
17:04:36:196534,1,2,-18,-3,-1,2,9,3
17:04:36:204796,1,2,-18,-3,-1,2,9,3
17:04:36:205680,0,0,-2,1,4,1,-1,5
17:04:36:219177,-1,-9,-9,-3,1,-4,0,-4
17:04:36:227288,-1,-9,-9,-3,1,-4,0,-4
17:04:36:228163,-5,-1,-1,1,5,6,0,-6
17:04:36:234053,1,-4,0,-3,-6,-5,-1,-5
17:04:36:249798,1,-4,0,-3,-6,-5,-1,-5
17:04:36:250567,-3,0,-2,-2,-7,-3,-2,-8
17:04:36:265425,-2,-2,11,-1,-3,-4,-4,0
17:04:36:266282,-2,-2,11,-1,-3,-4,-4,0
17:04:36:267038,-3,-2,-2,1,3,1,2,17
17:04:36:279030,0,-1,1,-1,-3,-2,-4,-11
17:04:36:287324,0,-1,1,-1,-3,-2,-4,-11
17:04:36:288160,-2,-7,4,-1,-9,-10,-3,-8
17:04:36:302316,-6,3,4,1,-10,-1,2,1
17:04:36:303152,-6,3,4,1,-10,-1,2,1
17:04:36:309046,0,3,-9,-7,-10,-5,-4,2
17:04:36:316556,5,0,-1,-2,4,-3,0,-12
17:04:36:332310,5,0,-1,-2,4,-3,0,-12
17:04:36:333192,-3,2,3,0,1,6,7,21
17:04:36:339087,-4,-2,-12,-2,1,0,0,2
17:04:36:355426,-4,-2,-12,-2,1,0,0,2
17:04:36:356307,0,-4,-3,3,4,-1,0,-1
17:04:36:357062,-4,-3,9,2,11,9,2,3
17:04:36:361689,-4,-3,9,2,11,9,2,3
17:04:36:369051,-3,-9,9,2,8,2,5,8
17:04:36:376560,2,-1,-3,-3,8,-9,-6,-11
17:04:36:384793,2,-1,-3,-3,8,-9,-6,-11
17:04:36:385687,1,-4,-5,-3,-7,-1,-2,-9
17:04:36:399034,8,-9,3,1,4,-1,-7,-12
17:04:36:407281,8,-9,3,1,4,-1,-7,-12
17:04:36:408152,4,4,4,1,-2,-9,-10,-12
17:04:36:414018,-1,-4,-3,-2,-3,3,4,21
17:04:36:421658,-1,-4,-3,-2,-3,3,4,21
17:04:36:429054,2,0,0,1,-2,0,1,-7
17:04:36:436581,-5,2,-1,2,1,12,5,2
17:04:36:444196,-5,2,-1,2,1,12,5,2
17:04:36:451596,-3,-3,-5,-2,0,-1,-3,-2
17:04:36:459081,1,-2,-5,8,1,-8,1,-13
17:04:36:467272,1,-2,-5,8,1,-8,1,-13
17:04:36:468044,-1,-3,-8,0,0,4,-2,-2
17:04:36:482794,-4,1,0,-18,-1,0,-4,1
17:04:36:483526,-4,1,0,-18,-1,0,-4,1
17:04:36:489061,-2,-1,-1,-7,4,-3,-6,-8
17:04:36:496549,-4,0,2,-2,-4,3,2,-8
17:04:36:504197,-4,0,2,-2,-4,3,2,-8
17:04:36:520172,-2,2,5,0,-3,0,-3,2
17:04:36:527920,-5,-4,-4,2,-16,-7,-8,8
17:04:36:528790,-5,-4,-4,2,-16,-7,-8,8
17:04:36:529543,2,0,1,2,-3,-4,3,0
17:04:36:542799,0,-1,0,-1,-3,-7,-5,2
17:04:36:543541,0,-1,0,-1,-3,-7,-5,2
17:04:36:549050,2,-3,-6,-2,9,5,5,5
17:04:36:556564,0,-5,-3,-4,-4,2,1,12
17:04:36:564170,0,-5,-3,-4,-4,2,1,12
17:04:36:571692,-8,-2,-7,-2,3,-8,-8,-40
17:04:36:579170,-4,-3,1,0,-2,0,2,2
17:04:36:587327,-4,-3,1,0,-2,0,2,2
17:04:36:588049,-9,-1,-1,-2,-1,3,-2,-4
17:04:36:610429,-1,0,0,1,-5,-5,3,2
17:04:36:611301,-1,0,0,1,-5,-5,3,2
17:04:36:612040,-10,-1,-2,-1,-6,-3,2,-2
17:04:36:624818,-2,3,-4,0,3,5,-2,-4
17:04:36:625656,-2,3,-4,0,3,5,-2,-4
17:04:36:631552,1,0,-5,-3,-4,-1,-3,5
17:04:36:639082,-5,-3,0,5,-1,-7,-4,-4
17:04:36:654807,-5,-3,0,5,-1,-7,-4,-4
17:04:36:655696,9,-6,8,0,4,0,4,-3
17:04:36:662297,-2,0,-9,-7,3,4,-1,-3
17:04:36:663146,-2,0,-9,-7,3,4,-1,-3
17:04:36:669024,1,4,-1,7,-7,-4,0,3
17:04:36:684795,1,1,0,1,4,3,1,-16
17:04:36:685660,1,1,0,1,4,3,1,-16
17:04:36:691532,-2,-6,-3,4,-1,-7,-17,-12
17:04:36:715436,-1,0,2,4,2,-3,-4,6
17:04:36:716286,-1,0,2,4,2,-3,-4,6
17:04:36:717048,-2,-3,-10,-15,-2,1,0,11
17:04:36:722324,0,-8,2,-10,2,-4,-6,-9
17:04:36:723040,0,-8,2,-10,2,-4,-6,-9
17:04:36:737295,2,0,4,-4,0,7,4,8
17:04:36:738064,5,2,7,1,-4,-7,0,-3
17:04:36:744167,5,2,7,1,-4,-7,0,-3
17:04:36:751574,-3,-7,-6,0,0,-3,-3,-4
17:04:36:759170,-8,2,-3,1,-3,1,-2,-4
17:04:36:767302,-8,2,-3,1,-3,1,-2,-4
17:04:36:768036,3,4,-2,4,2,5,7,17
17:04:36:782332,0,-3,-2,1,-2,1,-1,2
17:04:36:783041,0,-3,-2,1,-2,1,-1,2
17:04:36:789206,-5,2,1,0,-3,-3,3,-2
17:04:36:804821,-19,-1,-3,2,6,11,-4,2
17:04:36:805677,-19,-1,-3,2,6,11,-4,2
17:04:36:811562,-1,-11,0,0,-2,-7,-4,15
17:04:36:827918,7,10,-3,-1,7,-2,1,2
17:04:36:828793,7,10,-3,-1,7,-2,1,2
17:04:36:829545,-1,2,-6,0,4,8,-1,-2
17:04:36:842288,0,-2,-7,-4,-5,-5,1,3
17:04:36:843148,0,-2,-7,-4,-5,-5,1,3
17:04:36:849043,3,3,2,2,0,2,8,10
17:04:36:856543,2,-3,1,0,-1,0,4,5
17:04:36:864170,2,-3,1,0,-1,0,4,5
17:04:36:871541,2,4,-2,-1,-5,0,2,-4
17:04:36:879031,-3,-5,3,1,-10,-9,-2,0
17:04:36:887310,-3,-5,3,1,-10,-9,-2,0
17:04:36:888032,2,-1,1,-3,6,13,3,13
17:04:36:902291,6,-1,-1,-1,-3,-4,-10,13
17:04:36:903226,6,-1,-1,-1,-3,-4,-10,13
17:04:36:909053,-9,-3,1,-4,1,-5,-3,-17
17:04:36:916537,1,-3,-1,-1,-3,0,-2,0
17:04:36:924181,1,-3,-1,-1,-3,0,-2,0
17:04:36:931672,2,-1,2,1,-1,-6,-6,-9
17:04:36:939025,-2,0,-1,0,1,0,0,-6
17:04:36:954815,-2,0,-1,0,1,0,0,-6
17:04:36:955674,1,2,1,3,4,3,-1,-13
17:04:36:962293,4,4,2,1,-2,-3,5,-7
17:04:36:963026,4,4,2,1,-2,-3,5,-7
17:04:36:969201,-1,4,-6,-4,-3,-3,4,1
17:04:36:976667,-12,-11,-1,-1,0,-6,-2,-12
17:04:36:984224,-12,-11,-1,-1,0,-6,-2,-12
17:04:36:991562,-13,-1,0,-3,-3,1,-4,-13
17:04:36:999170,-3,-3,2,-2,6,9,-1,4
17:04:37:7306,-3,-3,2,-2,6,9,-1,4
17:04:37:8065,1,-3,0,-2,-2,-1,1,7
17:04:37:22319,7,3,-2,0,-6,-3,-3,-8
17:04:37:23028,7,3,-2,0,-6,-3,-3,-8
17:04:37:29049,0,1,-1,1,-4,-11,-14,-23
17:04:37:36676,-3,1,-1,-2,1,8,-1,1
17:04:37:44195,-3,1,-1,-2,1,8,-1,1
17:04:37:51535,0,-3,-1,-2,-4,-7,-5,6
17:04:37:59038,1,3,0,0,3,7,12,-3
17:04:37:67296,1,3,0,0,3,7,12,-3
17:04:37:68169,0,1,-2,-1,-1,-1,7,-9
17:04:37:82824,9,-1,-1,-3,-3,-4,-3,8
17:04:37:83547,9,-1,-1,-3,-3,-4,-3,8
17:04:37:89039,6,1,-6,-2,-3,-4,-6,-38
17:04:37:96577,-5,-4,-2,-3,-3,-5,0,0
17:04:37:104185,-5,-4,-2,-3,-3,-5,0,0
17:04:37:111578,-6,-5,5,2,-1,3,-2,12
17:04:37:119034,0,2,-9,-3,-4,-9,-6,-22
17:04:37:127331,0,2,-9,-3,-4,-9,-6,-22
17:04:37:128185,-2,0,4,3,1,-2,2,22
17:04:37:142693,-2,-1,2,1,1,1,1,-1
17:04:37:149807,-2,-1,2,1,1,1,1,-1
17:04:37:150674,2,0,-1,-1,-2,0,2,2
17:04:37:156546,3,-1,1,-1,-2,-3,1,11
17:04:37:164175,3,-1,1,-1,-2,-3,1,11
17:04:37:171543,1,-1,-2,0,6,1,-2,-5
17:04:37:187955,-5,0,-1,0,-5,2,4,8
17:04:37:188812,-5,0,-1,0,-5,2,4,8
17:04:37:189541,-4,-2,-1,1,-1,-1,-3,10
17:04:37:202328,-2,-2,1,0,-5,-5,-5,9
17:04:37:203166,-2,-2,1,0,-5,-5,-5,9
17:04:37:209046,3,-4,-2,0,5,4,4,6
17:04:37:216547,-3,-2,-3,0,-1,-2,-8,4
17:04:37:224166,-3,-2,-3,0,-1,-2,-8,4
17:04:37:231541,-3,1,-1,-4,-4,-4,-2,-5
17:04:37:247938,0,-6,-4,-3,5,0,-10,-30
17:04:37:248812,0,-6,-4,-3,5,0,-10,-30
17:04:37:249555,0,0,0,-1,-2,-3,-5,-5
17:04:37:270422,-15,2,1,-1,-1,-4,-1,4
17:04:37:271308,-15,2,1,-1,-1,-4,-1,4
17:04:37:272169,4,0,-1,-2,-3,-2,-4,-14
17:04:37:276558,-1,-1,1,-2,-4,-2,-1,-15
17:04:37:284203,-1,-1,1,-2,-4,-2,-1,-15
17:04:37:291683,-4,1,1,-3,0,1,3,12
17:04:37:307830,1,-2,-2,0,-1,-3,-2,3
17:04:37:308559,1,-2,-2,0,-1,-3,-2,3
17:04:37:314042,-3,-1,-3,0,2,2,-5,7
17:04:37:321539,12,2,-2,-2,-1,4,0,9
17:04:37:329801,12,2,-2,-2,-1,4,0,9
17:04:37:330574,7,1,-2,2,0,-1,1,4
17:04:37:336700,-6,-1,-1,1,1,-3,5,0
17:04:37:344192,-6,-1,-1,1,1,-3,5,0
17:04:37:351561,-10,-1,-2,-3,-2,5,0,1
17:04:37:359099,1,0,-2,0,-1,-8,-4,3
17:04:37:367301,1,0,-2,0,-1,-8,-4,3
17:04:37:368182,-5,-2,1,0,-1,2,0,14
17:04:37:382807,-2,0,2,-2,-2,-2,-6,9
17:04:37:383567,-2,0,2,-2,-2,-2,-6,9
17:04:37:389054,0,-5,-5,-4,-2,-5,-3,-2
17:04:37:404812,-5,0,-1,-3,2,5,8,2
17:04:37:405557,-5,0,-1,-3,2,5,8,2
17:04:37:411705,-6,-4,1,-2,-2,-8,-6,-13
17:04:37:419183,-1,-3,2,-1,6,6,1,-11
17:04:37:426694,-1,-3,2,-1,6,6,1,-11
17:04:37:434074,0,2,-2,-2,-6,-3,1,-14
17:04:37:442317,1,3,-2,-1,-4,-4,-9,-15
17:04:37:443181,1,3,-2,-1,-4,-4,-9,-15
17:04:37:449074,1,3,-3,3,-1,-1,-3,4
17:04:37:465328,-1,-2,-3,-2,2,1,-6,-14
17:04:37:466058,-1,-2,-3,-2,2,1,-6,-14
17:04:37:471583,5,-4,2,-3,0,-5,-1,-2
17:04:37:479084,-7,-6,-8,-2,-4,-7,-3,-8
17:04:37:486683,-7,-6,-8,-2,-4,-7,-3,-8
17:04:37:494073,-7,1,-1,0,1,0,-5,5
17:04:37:502344,0,1,0,0,2,0,1,11
17:04:37:503202,0,1,0,0,2,0,1,11
17:04:37:509090,4,-1,0,-1,1,-1,-5,9
17:04:37:524823,3,1,2,-2,1,0,-5,-20
17:04:37:525726,3,1,2,-2,1,0,-5,-20
17:04:37:531577,5,-2,-4,-1,-1,-4,-3,-2
17:04:37:555469,0,-1,0,-1,-1,-2,6,13
17:04:37:556333,0,-1,0,-1,-1,-2,6,13
17:04:37:557051,-8,-3,0,-2,2,7,5,-19
17:04:37:562354,2,-2,0,-3,-1,-1,-6,-6
17:04:37:563040,2,-2,0,-3,-1,-1,-6,-6
17:04:37:576591,-2,-1,-4,0,-2,-3,4,6
17:04:37:584807,-3,1,-2,1,-1,2,-3,6
17:04:37:585539,-3,1,-2,1,-1,2,-3,6
17:04:37:591553,-2,-2,0,-1,-1,0,5,3
17:04:37:599093,3,-3,1,-4,0,-1,-1,8
17:04:37:606699,3,-3,1,-4,0,-1,-1,8
17:04:37:614084,-9,0,2,1,-1,-2,-1,1
17:04:37:622931,2,-1,1,-1,-3,1,4,15
17:04:37:623814,2,-1,1,-1,-3,1,4,15
17:04:37:629077,3,0,3,1,1,4,5,-12
17:04:37:644799,3,2,-3,2,0,-1,3,8
17:04:37:645539,3,2,-3,2,0,-1,3,8
17:04:37:659816,-9,-2,0,-3,-2,2,-3,5
17:04:37:660565,0,0,1,-2,-3,-2,-2,1
17:04:37:666683,0,0,1,-2,-3,-2,-2,1
17:04:37:674182,-2,-2,-1,0,2,-1,4,4
17:04:37:690440,-8,-3,-2,-1,3,-2,2,-10
17:04:37:691298,-8,-3,-2,-1,3,-2,2,-10
17:04:37:692049,4,-1,-1,-3,-4,-2,-7,-1
17:04:37:704836,-2,1,1,1,0,1,1,-2
17:04:37:705676,-2,1,1,1,0,1,1,-2
17:04:37:711576,0,-3,-4,-2,0,-2,-1,-5
17:04:37:719068,-4,-2,-1,-1,-2,-4,-9,-4
17:04:37:726690,-4,-2,-1,-1,-2,-4,-9,-4
17:04:37:734067,-2,-1,-2,3,5,13,3,-2
17:04:37:742316,0,-3,-3,2,-2,-3,0,-13
17:04:37:743095,0,-3,-3,2,-2,-3,0,-13
17:04:37:749187,8,-3,0,-2,-3,-8,-3,0
17:04:37:764813,-3,-3,0,-4,1,1,-1,1
17:04:37:765554,-3,-3,0,-4,1,1,-1,1
17:04:37:771556,-2,-1,0,-1,-1,-2,2,8
17:04:37:779030,1,1,3,-1,1,1,5,-7
17:04:37:786684,1,1,3,-1,1,1,5,-7
17:04:37:794212,6,-2,-1,-1,0,-2,3,6
17:04:37:802336,-2,0,-4,-3,-3,-6,-2,0
17:04:37:803079,-2,0,-4,-3,-3,-6,-2,0
17:04:37:809090,1,2,-3,3,3,7,3,4
17:04:37:824819,1,-1,-5,0,-4,-2,0,1
17:04:37:825564,1,-1,-5,0,-4,-2,0,1
17:04:37:831559,-4,3,1,-1,1,-5,-6,-5
17:04:37:839077,-1,0,0,-1,-2,0,-4,-1
17:04:37:846699,-1,0,0,-1,-2,0,-4,-1
17:04:37:854062,6,0,-1,-3,-6,-8,-7,7
17:04:37:862308,4,-2,-3,0,0,3,1,3
17:04:37:863189,4,-2,-3,0,0,3,1,3
17:04:37:869059,-3,-2,0,0,-5,-6,-3,-4
17:04:37:884828,-3,-4,-1,-2,-2,3,-3,-13
17:04:37:885547,-3,-4,-1,-2,-2,3,-3,-13
17:04:37:891549,-4,1,-3,-3,1,7,2,-3
17:04:37:899082,-3,2,-1,0,-2,-3,2,5
17:04:37:906673,-3,2,-1,0,-2,-3,2,5
17:04:37:914060,-3,-1,-2,-2,-1,-6,-3,0
17:04:37:922328,2,0,-1,-1,-3,1,-1,7
17:04:37:923190,2,0,-1,-1,-3,1,-1,7
17:04:37:929049,6,-4,-2,-1,-2,2,-3,-4
17:04:37:944820,1,-2,0,1,5,4,-1,-3
17:04:37:945659,1,-2,0,1,5,4,-1,-3
17:04:37:951545,-1,-4,-1,-4,-3,-5,-3,-9
17:04:37:959077,-2,-1,0,-1,0,-4,-4,1
17:04:37:966709,-2,-1,0,-1,0,-4,-4,1
17:04:37:974090,-6,1,-3,-1,1,-3,0,-4
17:04:37:982303,-2,0,-1,0,2,5,8,4
17:04:37:983037,-2,0,-1,0,2,5,8,4
17:04:37:989053,-4,-3,-1,-3,-2,-7,-5,-2
17:04:38:4809,-3,-4,-2,-1,-2,-4,-3,4
17:04:38:5663,-3,-4,-2,-1,-2,-4,-3,4
17:04:38:11560,0,3,2,1,0,4,6,15
17:04:38:19096,0,0,-2,-2,0,-1,-4,-6
17:04:38:26548,0,0,-2,-2,0,-1,-4,-6
17:04:38:34054,-9,-4,0,-2,-2,-4,1,7
17:04:38:42327,4,-2,-2,-1,-1,-4,-10,-19
17:04:38:43075,4,-2,-2,-1,-1,-4,-10,-19
17:04:38:49075,2,0,2,1,1,3,-3,0
17:04:38:64838,-8,-10,5,0,-1,1,-6,-4
17:04:38:65551,-8,-10,5,0,-1,1,-6,-4
17:04:38:71555,3,-1,-2,0,-3,0,-2,-11
17:04:38:79064,0,-1,-3,-1,0,-4,-3,9
17:04:38:86721,0,-1,-3,-1,0,-4,-3,9
17:04:38:102948,-9,-2,2,0,-1,2,-2,-1
17:04:38:103825,0,1,0,-3,1,0,3,0
17:04:38:104571,0,1,0,-3,1,0,3,0
17:04:38:109065,-2,-1,-3,-3,-3,-4,-3,-3
17:04:38:124835,-1,3,-1,-2,-2,-1,2,2
17:04:38:125564,-1,3,-1,-2,-2,-1,2,2
17:04:38:131559,4,-2,-2,1,1,-4,-1,3
17:04:38:139097,-11,-3,1,2,-2,2,2,-2
17:04:38:146693,-11,-3,1,2,-2,2,2,-2
17:04:38:154209,0,-4,-3,-2,-1,-2,-9,0
17:04:38:162308,9,3,-2,-3,-3,-5,-2,6
17:04:38:163085,9,3,-2,-3,-3,-5,-2,6
17:04:38:169073,2,-1,0,-4,0,5,5,-16
17:04:38:184829,-1,-2,0,-1,-1,1,1,-1
17:04:38:185551,-1,-2,0,-1,-1,1,1,-1
17:04:38:191566,1,2,-3,-3,0,-2,-1,2
17:04:38:199186,1,0,-2,-3,-4,-3,1,4
17:04:38:214794,1,0,-2,-3,-4,-3,1,4
17:04:38:215658,-4,1,0,1,2,0,0,-2
17:04:38:222297,1,2,-1,0,-2,0,2,2
17:04:38:223087,1,2,-1,0,-2,0,2,2
17:04:38:229191,-10,-3,-1,-3,-2,-3,-1,-12
17:04:38:244875,0,-3,-4,-4,-2,-2,-3,7
17:04:38:245560,0,-3,-4,-4,-2,-2,-3,7
17:04:38:251589,5,-1,4,1,-2,2,0,7
17:04:38:259093,14,-1,-3,-1,-2,-1,-2,14
17:04:38:266692,14,-1,-3,-1,-2,-1,-2,14
17:04:38:274049,4,0,-2,-2,0,-1,0,1
17:04:38:282314,-2,-2,-2,2,0,-2,-1,0
17:04:38:283086,-2,-2,-2,2,0,-2,-1,0
17:04:38:296559,-6,1,-1,1,-2,2,7,17
17:04:38:304806,-15,-2,1,0,0,-1,3,1
17:04:38:305554,-15,-2,1,0,0,-1,3,1
17:04:38:311563,-4,-1,-1,-1,-3,0,-4,-9
17:04:38:319099,-6,0,-1,-2,2,-2,2,-9
17:04:38:326669,-6,0,-1,-2,2,-2,2,-9
17:04:38:334042,-11,-2,1,-1,-1,-2,-1,0
17:04:38:342300,-2,-3,-1,0,-3,2,-4,-9
17:04:38:343041,-2,-3,-1,0,-3,2,-4,-9
17:04:38:356707,4,1,2,0,1,-3,-4,-7
17:04:38:364799,-19,-3,-3,-1,0,-3,-5,-9
17:04:38:365546,-19,-3,-3,-1,0,-3,-5,-9
17:04:38:379096,-16,0,1,-1,-1,-3,-7,0
17:04:38:387342,2,3,3,2,2,3,-1,1
17:04:38:388072,2,3,3,2,2,3,-1,1
17:04:38:394067,-2,-11,0,0,3,0,2,-2
17:04:38:409819,-52,-8,-4,-4,-1,-3,-5,-8
17:04:38:410561,-52,-8,-4,-4,-1,-3,-5,-8
17:04:38:416536,4,0,-2,0,-2,2,5,-12
17:04:38:424802,14,0,0,-1,-1,2,0,14
17:04:38:425553,14,0,0,-1,-1,2,0,14
17:04:38:431552,-10,1,-5,-5,-2,-3,-7,-2
17:04:38:447336,7,1,1,0,1,4,-2,-11
17:04:38:448083,7,1,1,0,1,4,-2,-11
17:04:38:454068,5,0,0,-2,0,-1,-3,-2
17:04:38:462314,10,0,-8,-5,-4,-6,-1,-3
17:04:38:463096,10,0,-8,-5,-4,-6,-1,-3
17:04:38:476564,6,-1,-1,2,-1,-2,0,-2
17:04:38:492949,6,0,0,-2,1,0,2,-2
17:04:38:493807,6,0,0,-2,1,0,2,-2
17:04:38:494568,2,3,-2,2,-1,-1,-2,6
17:04:38:507315,2,3,-2,2,-1,-1,-2,6
17:04:38:508061,15,4,0,1,1,0,0,2
17:04:38:514052,-2,-1,-4,-4,-1,-1,-1,-5
17:04:38:522313,-2,-1,-4,-4,-1,-1,-1,-5
17:04:38:523181,-1,-4,-17,-5,-4,0,-1,-1
17:04:38:536560,-15,-2,-5,-4,1,0,-1,4
17:04:38:544817,-15,-2,-5,-4,1,0,-1,4
17:04:38:545684,0,-4,-1,0,1,-1,-6,-1
17:04:38:551570,9,0,-4,-6,-2,-3,-1,-2
17:04:38:575447,9,0,-4,-6,-2,-3,-1,-2
17:04:38:576301,-1,1,13,3,-2,-3,2,-2
17:04:38:577059,1,-1,3,4,0,-1,4,3
17:04:38:582314,1,-1,3,4,0,-1,4,3
17:04:38:583070,-1,-1,6,-6,-6,-2,-2,-1
17:04:38:605435,-1,-3,-13,-5,-3,-3,-5,-1
17:04:38:606314,-1,-3,-13,-5,-3,-3,-5,-1
17:04:38:607087,-2,-1,7,-3,3,2,1,-2
17:04:38:619115,1,2,4,0,-2,0,-1,-1
17:04:38:627317,1,2,4,0,-2,0,-1,-1
17:04:38:628173,-1,2,0,1,0,-1,-1,2
17:04:38:634067,4,0,2,1,1,0,0,0
17:04:38:642312,4,0,2,1,1,0,0,0
17:04:38:643173,11,1,-1,3,2,-2,1,-1
17:04:38:656565,-2,-2,-5,-2,-2,-1,-3,-1
17:04:38:664811,-2,-2,-5,-2,-2,-1,-3,-1
17:04:38:665678,-3,2,-3,2,0,-1,0,-1
17:04:38:671575,-4,-3,5,-4,0,-2,-1,4
17:04:38:687816,-4,-3,5,-4,0,-2,-1,4
17:04:38:688540,-2,-2,-18,-2,4,2,1,-5
17:04:38:694060,-1,0,5,11,-2,-1,-1,-3
17:04:38:702331,-1,0,5,11,-2,-1,-1,-3
17:04:38:703196,-6,-5,-19,-7,-6,-3,-4,-2
17:04:38:717073,0,-1,1,-12,-3,-1,0,-2
17:04:38:724817,0,-1,1,-12,-3,-1,0,-2
17:04:38:725581,6,-1,18,5,0,1,1,1
17:04:38:731557,2,-6,-7,-6,4,3,2,-3
17:04:38:747321,2,-6,-7,-6,4,3,2,-3
17:04:38:748045,-8,-2,-26,-6,-2,0,-3,-4
17:04:38:754071,-5,-2,15,2,-1,-2,-4,0
17:04:38:763472,-5,-2,15,2,-1,-2,-4,0
17:04:38:769080,-5,-4,13,8,-3,-2,-2,1
17:04:38:776567,4,-6,-9,5,-5,-4,-2,-5
17:04:38:784819,4,-6,-9,5,-5,-4,-2,-5
17:04:38:785684,-4,2,6,1,-2,-2,-3,-1
17:04:38:799112,1,1,-7,12,3,1,-4,2
17:04:38:807938,1,1,-7,12,3,1,-4,2
17:04:38:808830,3,-2,-4,-3,0,-1,0,-3
17:04:38:814100,1,0,10,1,4,2,0,-3
17:04:38:822320,1,0,10,1,4,2,0,-3
17:04:38:823211,-4,-4,10,-2,3,2,-3,0
17:04:38:836555,-1,5,-1,-5,-2,-2,4,0
17:04:38:844811,-1,5,-1,-5,-2,-2,4,0
17:04:38:845545,-2,-1,-6,1,-2,-4,-3,0
17:04:38:851572,-5,-5,16,-10,-3,0,1,0
17:04:38:867325,-5,-5,16,-10,-3,0,1,0
17:04:38:868086,2,3,19,8,10,3,0,-2
17:04:38:874086,-3,-2,-16,-14,-12,-5,-6,-1
17:04:38:889581,-3,-2,-16,-14,-12,-5,-6,-1
17:04:38:897179,2,-6,-16,-6,0,0,4,-3
17:04:38:898078,-1,3,10,6,6,-1,0,-1
17:04:38:904832,-1,3,10,6,6,-1,0,-1
17:04:38:905568,-6,-1,-10,-4,-6,-4,-4,-3
17:04:38:911578,-6,5,2,0,0,-1,1,0
17:04:38:927322,-6,5,2,0,0,-1,1,0
17:04:38:928070,-5,-3,5,-2,-3,-1,-2,-1
17:04:38:934060,2,-3,-9,-6,-4,-2,-3,-3
17:04:38:949821,2,-3,-9,-6,-4,-2,-3,-3
17:04:38:950533,3,1,-9,2,-2,-2,1,-1
17:04:38:956575,6,-2,4,1,2,5,-1,-2
17:04:38:964831,6,-2,4,1,2,5,-1,-2
17:04:38:965605,5,-9,-6,-1,2,-8,3,-2
17:04:38:971593,-8,-9,-7,-11,-9,-4,-1,-1
17:04:38:995452,-8,-9,-7,-11,-9,-4,-1,-1
17:04:38:996299,3,-2,-4,1,-4,2,-3,-1
17:04:38:997044,1,6,-1,-23,-9,-1,-2,2
17:04:39:2321,1,6,-1,-23,-9,-1,-2,2
17:04:39:3110,0,3,7,-1,1,0,-1,-1
17:04:39:16593,0,1,9,7,3,0,0,0
17:04:39:24835,0,1,9,7,3,0,0,0
17:04:39:25581,-16,5,3,2,0,1,2,3
17:04:39:31563,-7,0,-5,8,2,-2,2,0
17:04:39:47345,-7,0,-5,8,2,-2,2,0
17:04:39:48206,1,-3,-6,-11,-2,-4,-5,-1
17:04:39:54066,0,-5,-8,12,0,2,0,-2
17:04:39:62358,0,-5,-8,12,0,2,0,-2
17:04:39:63070,3,-14,-26,7,1,0,2,-3
17:04:39:76598,5,10,34,1,-3,-4,0,-2
17:04:39:84576,5,10,34,1,-3,-4,0,-2
17:04:39:92324,-2,4,0,-5,-2,3,-4,1
17:04:39:93063,3,-3,6,6,8,3,0,-1
17:04:39:107334,3,-3,6,6,8,3,0,-1
17:04:39:108185,0,3,16,-5,0,0,-3,0
17:04:39:114087,-1,-3,-20,-2,-10,-1,-3,-1
17:04:39:122313,-1,-3,-20,-2,-10,-1,-3,-1
17:04:39:123192,-3,-3,-20,-10,-4,-6,-5,0
17:04:39:136557,-6,-2,17,4,5,0,0,-1
17:04:39:144824,-6,-2,17,4,5,0,0,-1
17:04:39:145701,0,-1,10,-3,-1,1,-2,-2
17:04:39:151599,3,3,-18,-8,4,1,-4,3
17:04:39:167320,3,3,-18,-8,4,1,-4,3
17:04:39:168055,1,0,19,4,-12,-6,-2,0
17:04:39:174061,-2,-16,-22,5,2,-1,-1,-3
17:04:39:182832,-2,-16,-22,5,2,-1,-1,-3
17:04:39:189059,-2,4,-15,0,5,4,1,1
17:04:39:196555,-1,-4,-5,0,-2,-3,-2,-3
17:04:39:204819,-1,-4,-5,0,-2,-3,-2,-3
17:04:39:205561,0,-5,19,-3,9,-3,-2,-1
17:04:39:211571,3,2,-17,-12,1,-1,3,-2
17:04:39:227325,3,2,-17,-12,1,-1,3,-2
17:04:39:228190,1,-1,8,2,0,2,1,-2
17:04:39:234791,-2,5,2,1,-7,-9,-1,0
17:04:39:242312,-2,5,2,1,-7,-9,-1,0
17:04:39:243090,-2,1,10,6,0,3,-1,0
17:04:39:256559,-3,3,-4,3,0,2,-5,0
17:04:39:272942,-3,3,-4,3,0,2,-5,0
17:04:39:273829,3,3,-7,5,1,-2,0,-2
17:04:39:274548,0,9,36,-3,-4,-1,1,1
17:04:39:287372,0,9,36,-3,-4,-1,1,1
17:04:39:288066,-4,0,4,-2,-6,-2,-3,1
17:04:39:294066,0,-3,3,4,4,2,1,1
17:04:39:301676,0,-3,3,4,4,2,1,1
17:04:39:309079,0,1,-14,-5,-4,-7,-4,0
17:04:39:316570,1,-7,-33,-6,-1,-3,-9,-2
17:04:39:324853,1,-7,-33,-6,-1,-3,-9,-2
17:04:39:325554,-1,-3,-12,1,8,3,3,0
17:04:39:339082,-3,-1,7,4,-1,-4,2,-2
17:04:39:355492,-3,-1,7,4,-1,-4,2,-2
17:04:39:356324,-5,6,43,-4,-8,-1,-2,1
17:04:39:357067,0,3,-11,1,5,1,2,-2
17:04:39:361688,0,3,-11,1,5,1,2,-2
17:04:39:369121,-3,-2,-1,-5,-1,-2,-1,-3
17:04:39:376569,-1,2,-3,0,-4,-1,-5,0
17:04:39:384816,-1,2,-3,0,-4,-1,-5,0
17:04:39:385582,1,-4,-5,-7,4,1,4,-4
17:04:39:399101,3,-4,10,11,-1,1,4,0
17:04:39:407322,3,-4,10,11,-1,1,4,0
17:04:39:408054,-5,4,12,0,-11,-3,-3,1
17:04:39:414064,-1,8,38,2,0,8,0,1
17:04:39:421691,-1,8,38,2,0,8,0,1
17:04:39:429063,-2,-4,-27,-6,-3,-2,-3,0
17:04:39:436582,-3,-8,-18,-2,5,1,-4,-3
17:04:39:444600,-3,-8,-18,-2,5,1,-4,-3
17:04:39:451594,3,0,-14,-3,4,1,1,0
17:04:39:459811,-3,-3,-9,-11,-4,-2,-3,-2
17:04:39:467321,-3,-3,-9,-11,-4,-2,-3,-2
17:04:39:468086,-3,-2,6,2,-8,-7,1,1
17:04:39:474061,2,-3,-1,-4,-1,-3,-2,-1
17:04:39:481564,2,-3,-1,-4,-1,-3,-2,-1
17:04:39:489067,-12,5,77,10,-2,0,-2,-1
17:04:39:496574,-4,-3,-17,-11,-4,-2,-2,-2
17:04:39:504823,-4,-3,-17,-11,-4,-2,-2,-2
17:04:39:505559,4,-3,-39,5,5,2,1,-1
17:04:39:519080,-5,-9,-13,1,-1,3,-1,-2
17:04:39:527335,-5,-9,-13,1,-1,3,-1,-2
17:04:39:528081,-1,-1,-6,6,6,2,-2,-3
17:04:39:534105,-2,1,-4,0,-10,-9,-2,-1
17:04:39:541717,-2,1,-4,0,-10,-9,-2,-1
17:04:39:549076,0,7,33,-1,1,-1,-5,1
17:04:39:556562,-1,-3,6,7,1,-1,1,-1
17:04:39:564829,-1,-3,6,7,1,-1,1,-1
17:04:39:565574,2,4,-11,-28,0,0,-4,-1
17:04:39:579080,-3,1,-11,-1,0,-7,-2,3
17:04:39:587339,-3,1,-11,-1,0,-7,-2,3
17:04:39:588077,3,-10,-45,-1,-1,1,0,0
17:04:39:594082,6,11,20,-8,-3,-1,2,-4
17:04:39:601698,6,11,20,-8,-3,-1,2,-4
17:04:39:609075,-4,-6,-23,-4,1,0,-4,-5
17:04:39:616569,1,0,-7,0,-3,-1,-1,1
17:04:39:624833,1,0,-7,0,-3,-1,-1,1
17:04:39:625693,0,1,-18,-11,-2,-3,-1,0
17:04:39:639086,0,0,-1,-1,3,1,1,0
17:04:39:647342,0,0,-1,-1,3,1,1,0
17:04:39:648087,0,-9,-18,5,-6,-4,0,-1
17:04:39:654085,2,-2,27,7,3,4,1,1
17:04:39:661701,2,-2,27,7,3,4,1,1
17:04:39:669074,-5,-3,32,14,-1,-4,1,0
17:04:39:676573,-4,-3,5,3,4,-1,-4,-2
17:04:39:684818,-4,-3,5,3,4,-1,-4,-2
17:04:39:685580,-4,4,-20,-9,-8,-9,-3,-1
17:04:39:699104,-1,-4,-14,-3,-2,0,1,1
17:04:39:707345,-1,-4,-14,-3,-2,0,1,1
17:04:39:708178,1,3,-23,0,-4,-3,-4,0
17:04:39:714077,-1,-1,-10,4,0,-2,-1,-3
17:04:39:721555,-1,-1,-10,4,0,-2,-1,-3
17:04:39:729072,0,-1,-21,-9,-2,-2,-1,-1
17:04:39:736595,-1,1,4,2,5,3,-1,-2
17:04:39:744820,-1,1,4,2,5,3,-1,-2
17:04:39:745572,0,9,46,10,-3,-5,3,0
17:04:39:759114,-2,-1,-7,-4,1,-1,-4,-2
17:04:39:767336,-2,-1,-7,-4,1,-1,-4,-2
17:04:39:768075,1,-2,9,-4,2,0,-3,0
17:04:39:774123,-4,-2,1,-13,-4,-8,-2,2
17:04:39:781743,-4,-2,1,-13,-4,-8,-2,2
17:04:39:789078,-2,-3,2,8,3,4,2,-5
17:04:39:796577,-2,-3,-11,-5,1,-5,-2,-2
17:04:39:804847,-2,-3,-11,-5,1,-5,-2,-2
17:04:39:805592,-5,-7,12,11,3,1,-1,0
17:04:39:819090,-1,0,0,4,-10,-2,-3,-4
17:04:39:827351,-1,0,0,4,-10,-2,-3,-4
17:04:39:828074,0,-2,-26,10,3,3,2,2
17:04:39:834084,-1,0,2,6,4,8,2,0
17:04:39:841701,-1,0,2,6,4,8,2,0
17:04:39:849078,-1,-7,-28,-5,-5,-7,-3,-3
17:04:39:856580,-1,5,19,-9,0,-7,-2,1
17:04:39:864823,-1,5,19,-9,0,-7,-2,1
17:04:39:865569,-2,-5,7,-2,-1,2,1,2
17:04:39:879092,2,-2,-11,3,-1,-3,1,1
17:04:39:887346,2,-2,-11,3,-1,-3,1,1
17:04:39:888074,-1,-4,39,0,-1,0,-1,0
17:04:39:894061,-2,-6,-17,-2,0,3,-1,0
17:04:39:901707,-2,-6,-17,-2,0,3,-1,0
17:04:39:909055,-2,0,20,2,-1,1,-4,2
17:04:39:916570,-5,3,1,-6,-4,1,0,2
17:04:39:924832,-5,3,1,-6,-4,1,0,2
17:04:39:925583,0,5,12,-4,2,0,-2,0
17:04:39:939140,-2,-6,-10,1,-1,0,1,-5
17:04:39:947330,-2,-6,-10,1,-1,0,1,-5
17:04:39:948067,1,-2,-34,-6,0,-8,0,-3
17:04:39:954079,-5,-7,-25,-2,-1,-4,-2,0
17:04:39:961734,-5,-7,-25,-2,-1,-4,-2,0
17:04:39:969092,0,2,-2,-1,1,6,-1,-1
17:04:39:976584,0,-4,8,3,-6,-5,-3,-2
17:04:39:984848,0,-4,8,3,-6,-5,-3,-2
17:04:39:985578,0,-1,1,-2,-2,0,-1,-3
17:04:39:999094,6,5,8,0,-2,0,-1,-2
17:04:40:7347,6,5,8,0,-2,0,-1,-2
17:04:40:8207,0,1,5,1,2,0,3,1
17:04:40:14079,-4,-5,-7,-4,-1,-2,-9,-1
17:04:40:21594,-4,-5,-7,-4,-1,-2,-9,-1
17:04:40:29085,-3,-3,-7,-7,0,-3,-5,-3
17:04:40:36593,-2,5,5,0,-2,-9,-2,2
17:04:40:44841,-2,5,5,0,-2,-9,-2,2
17:04:40:45573,-4,-6,-13,1,-3,-3,-2,-1
17:04:40:59098,0,0,-1,0,-1,1,0,-2
17:04:40:67364,0,0,-1,0,-1,1,0,-2
17:04:40:68102,1,-1,-14,-1,-1,-1,-1,-2
17:04:40:74079,-3,6,23,4,1,3,2,-5
17:04:40:81717,-3,6,23,4,1,3,2,-5
17:04:40:89091,-3,13,39,5,0,-2,1,4
17:04:40:96575,-2,-3,-2,-6,-5,1,4,10
17:04:40:104833,-2,-3,-2,-6,-5,1,4,10
17:04:40:105561,-3,-4,-6,-2,3,5,8,21
17:04:40:119108,2,0,-19,-3,-1,-4,-6,-9
17:04:40:127381,2,0,-19,-3,-1,-4,-6,-9
17:04:40:128088,1,1,-9,-4,-4,-1,-2,1
17:04:40:134127,0,-4,-6,3,0,1,-2,-2
17:04:40:141706,0,-4,-6,3,0,1,-2,-2
17:04:40:149181,-7,-4,-18,-3,2,5,-1,-7
17:04:40:156580,-5,-7,-18,-8,-1,-11,-5,-3
17:04:40:164851,-5,-7,-18,-8,-1,-11,-5,-3
17:04:40:165590,-1,-2,-7,0,1,-2,-2,-6
17:04:40:179109,2,3,28,3,2,6,3,5
17:04:40:187343,2,3,28,3,2,6,3,5
17:04:40:188071,-4,-1,-6,-3,-3,-4,-5,-25
17:04:40:194098,-8,0,-4,0,-2,-6,-8,-26
17:04:40:201707,-8,0,-4,0,-2,-6,-8,-26
17:04:40:209083,8,-1,11,2,-1,1,1,7
17:04:40:216571,-8,-1,-11,-2,0,8,2,-6
17:04:40:224205,-8,-1,-11,-2,0,8,2,-6
17:04:40:231583,1,-3,3,4,-2,0,-2,-2
17:04:40:239101,13,0,-9,-3,-2,-3,2,16
17:04:40:247327,13,0,-9,-3,-2,-3,2,16
17:04:40:248084,1,-2,-7,-6,1,6,4,2
17:04:40:262332,9,2,34,2,2,-4,0,-7
17:04:40:263223,9,2,34,2,2,-4,0,-7
17:04:40:269086,-2,-2,-13,-6,-6,-7,-1,-3
17:04:40:276577,2,1,-10,-1,1,3,-1,10
17:04:40:284103,2,1,-10,-1,1,3,-1,10
17:04:40:291582,-5,0,0,1,1,0,-2,-1
17:04:40:299077,-7,-1,-16,3,1,3,6,2
17:04:40:307358,-7,-1,-16,3,1,3,6,2
17:04:40:308103,2,2,-13,-8,-3,-4,-4,22
17:04:40:322383,1,-2,18,7,1,-1,0,-9
17:04:40:323096,1,-2,18,7,1,-1,0,-9
17:04:40:329112,-3,-3,3,1,1,-3,-5,-21
17:04:40:336618,3,-5,-22,-6,0,0,2,-3
17:04:40:344127,3,-5,-22,-6,0,0,2,-3
17:04:40:351588,2,-3,4,-1,-2,-1,-5,2
17:04:40:359102,1,1,-2,-4,-4,-5,-7,10
17:04:40:367338,1,1,-2,-4,-4,-5,-7,10
17:04:40:368073,8,5,7,3,0,-1,4,-1
17:04:40:382364,6,-3,-8,0,-3,-3,-1,4
17:04:40:383102,6,-3,-8,0,-3,-3,-1,4
17:04:40:389082,-3,-4,-15,0,-3,-5,-5,1
17:04:40:396572,-23,3,6,-4,-5,-3,-4,-13
17:04:40:404229,-23,3,6,-4,-5,-3,-4,-13
17:04:40:411572,-6,1,6,-3,-2,3,-1,-1
17:04:40:419086,5,1,-16,0,0,-3,-3,-2
17:04:40:427342,5,1,-16,0,0,-3,-3,-2
17:04:40:428067,0,0,-20,-2,0,-1,1,1
17:04:40:442323,8,2,-7,-1,-1,0,6,17
17:04:40:443063,8,2,-7,-1,-1,0,6,17
17:04:40:449086,6,3,26,9,0,0,8,3
17:04:40:456589,-2,-6,-8,2,1,1,-2,-5
17:04:40:464214,-2,-6,-8,2,1,1,-2,-5
17:04:40:471578,-13,-1,3,8,0,-1,-1,-6
17:04:40:479082,-4,1,30,-2,1,3,3,3
17:04:40:487334,-4,1,30,-2,1,3,3,3
17:04:40:488056,8,1,-5,-8,-2,-4,-9,-17
17:04:40:502329,-10,-4,-8,-5,-1,-1,-2,-2
17:04:40:503087,-10,-4,-8,-5,-1,-1,-2,-2
17:04:40:509080,-2,-6,-4,3,2,-1,-5,2
17:04:40:516596,3,0,-1,-1,-1,-3,-8,4
17:04:40:524214,3,0,-1,-1,-1,-3,-8,4
17:04:40:531580,-3,-1,-1,-4,-2,-1,-9,6
17:04:40:539201,-2,-2,1,1,0,-1,-3,-1
17:04:40:547330,-2,-2,1,1,0,-1,-3,-1
17:04:40:548065,-2,-1,-6,-5,-2,0,-1,-1
17:04:40:562246,-15,1,-9,-3,0,-3,-4,-6
17:04:40:563092,-15,1,-9,-3,0,-3,-4,-6
17:04:40:569083,7,-1,5,-6,0,-4,1,-1
17:04:40:576598,3,14,42,7,0,1,4,3
17:04:40:584085,3,14,42,7,0,1,4,3
17:04:40:591593,-5,-7,-3,1,-7,-3,-5,-20
17:04:40:599114,4,-1,-9,-1,0,-1,5,-8
17:04:40:607353,4,-1,-9,-1,0,-1,5,-8
17:04:40:608081,-4,3,11,-3,-1,-1,0,-9
17:04:40:622347,-2,-5,-5,-1,0,0,-1,1
17:04:40:623091,-2,-5,-5,-1,0,0,-1,1
17:04:40:629087,-7,-7,-3,-2,1,1,-2,14
17:04:40:636590,-6,-2,6,-5,-1,-1,-1,-5
17:04:40:644087,-6,-2,6,-5,-1,-1,-1,-5
17:04:40:651600,2,3,-11,-2,0,1,-1,11
17:04:40:659126,-7,-4,-15,-1,2,-1,-4,1
17:04:40:667326,-7,-4,-15,-1,2,-1,-4,1
17:04:40:668061,-3,9,-16,2,0,-1,4,-4
17:04:40:682329,1,-4,-11,-4,-2,-4,-8,-6
17:04:40:683100,1,-4,-11,-4,-2,-4,-8,-6
17:04:40:689066,5,0,-4,3,-3,-1,6,15
17:04:40:696575,3,-2,4,2,1,3,-1,-1
17:04:40:704218,3,-2,4,2,1,3,-1,-1
17:04:40:711559,-5,1,-6,-5,-3,-3,-2,-4
17:04:40:719116,9,0,-9,-1,-1,2,0,-4
17:04:40:727349,9,0,-9,-1,-1,2,0,-4
17:04:40:728083,2,3,17,2,2,-2,0,-5
17:04:40:742345,0,-2,-21,-8,-2,-4,0,-2
17:04:40:743096,0,-2,-21,-8,-2,-4,0,-2
17:04:40:749090,1,-3,3,0,0,0,0,-16
17:04:40:756582,5,4,8,-2,-2,-1,7,-4
17:04:40:764191,5,4,8,-2,-2,-1,7,-4
17:04:40:771584,-11,-8,-14,-8,-2,-2,-2,-10
17:04:40:779097,6,-5,-14,-2,-2,-2,4,1
17:04:40:787349,6,-5,-14,-2,-2,-2,4,1
17:04:40:788047,1,1,-35,-3,2,1,-5,-11
17:04:40:802343,-6,3,18,0,-4,-3,-7,4
17:04:40:803096,-6,3,18,0,-4,-3,-7,4
17:04:40:809093,-4,7,62,2,1,2,0,8
17:04:40:816568,-7,-7,-27,3,-1,0,5,4
17:04:40:824064,-7,-7,-27,3,-1,0,5,4
17:04:40:839878,10,0,-6,-1,-2,0,2,8
17:04:40:840602,5,-2,16,0,-3,-3,1,5
17:04:40:847334,5,-2,16,0,-3,-3,1,5
17:04:40:848072,-10,-8,8,-1,3,1,3,-11
17:04:40:862370,-1,6,4,-4,-3,-4,-12,-3
17:04:40:863114,-1,6,4,-4,-3,-4,-12,-3
17:04:40:869075,-4,-6,-10,1,0,1,-1,11
17:04:40:876569,-8,6,23,-1,3,1,-5,-5
17:04:40:884238,-8,6,23,-1,3,1,-5,-5
17:04:40:891626,-4,-2,-5,-5,-5,-4,-9,4
17:04:40:899116,8,0,-6,1,0,1,0,4
17:04:40:907367,8,0,-6,1,0,1,0,4
17:04:40:908100,-1,5,2,2,0,0,-3,-2
