Time,EMG1,EMG2,EMG3,EMG4,EMG5,EMG6,EMG7,EMG8
14:43:50:137967,-1,-14,-24,0,-1,-1,-5,0
14:43:50:146157,-1,-14,-24,0,-1,-1,-5,0
14:43:50:146979,-3,3,10,-12,1,0,1,1
14:43:50:161185,-3,12,46,40,1,-4,-3,-2
14:43:50:161912,-3,12,46,40,1,-4,-3,-2
14:43:50:167967,-1,-5,-1,17,-17,-4,1,-2
14:43:50:175448,-1,15,-7,-29,23,12,3,-4
14:43:50:182985,-1,15,-7,-29,23,12,3,-4
14:43:50:190426,-2,-4,-30,3,-11,-6,-4,-1
14:43:50:197941,4,9,-12,-66,-22,-6,-6,3
14:43:50:206147,4,9,-12,-66,-22,-6,-6,3
14:43:50:206890,0,-3,26,20,6,-1,2,0
14:43:50:221159,0,6,11,35,-9,-9,-3,-1
14:43:50:221925,0,6,11,35,-9,-9,-3,-1
14:43:50:227878,-1,-7,1,-11,-1,1,0,1
14:43:50:235397,2,5,5,17,30,5,-1,0
14:43:50:242929,2,5,5,17,30,5,-1,0
14:43:50:250361,-4,-2,10,28,11,7,3,-2
14:43:50:257925,-3,-6,-24,-40,-13,-1,-1,-3
14:43:50:266139,-3,-6,-24,-40,-13,-1,-1,-3
14:43:50:266940,4,14,8,-16,-30,-13,-6,-2
14:43:50:281159,-2,-1,19,49,-9,-2,1,-1
14:43:50:281926,-2,-1,19,49,-9,-2,1,-1
14:43:50:287962,-1,-2,-7,-24,0,-6,-4,0
14:43:50:295348,4,14,37,-26,2,-1,2,1
14:43:50:302971,4,14,37,-26,2,-1,2,1
14:43:50:318550,-5,-14,5,47,12,-1,-2,-2
14:43:50:319365,-1,-8,11,6,27,6,3,-2
14:43:50:326163,-1,-8,11,6,27,6,3,-2
14:43:50:326924,-1,-5,-22,-37,12,2,-3,-1
14:43:50:341145,0,-1,-6,-13,-7,1,0,-2
14:43:50:341929,0,-1,-6,-13,-7,1,0,-2
14:43:50:347908,-2,-8,-10,13,12,-3,-4,-3
14:43:50:355368,-1,-2,-6,8,11,3,0,2
14:43:50:371149,-1,-2,-6,8,11,3,0,2
14:43:50:371911,0,1,10,-3,-14,0,-2,1
14:43:50:377913,-4,-2,4,-1,-3,1,-1,-2
14:43:50:386214,-4,-2,4,-1,-3,1,-1,-2
14:43:50:386958,-1,-14,-37,-13,-7,-3,-4,-2
14:43:50:401585,3,2,-12,-3,0,-4,1,1
14:43:50:402396,3,2,-12,-3,0,-4,1,1
14:43:50:407856,-1,5,8,2,6,4,1,-2
14:43:50:415423,-5,-5,1,1,2,-3,-4,-2
14:43:50:422960,-5,-5,1,1,2,-3,-4,-2
14:43:50:430371,-2,-2,-21,2,5,-6,-7,-2
14:43:50:437854,-3,1,2,15,-8,-5,0,-2
14:43:50:446130,-3,1,2,15,-8,-5,0,-2
14:43:50:446951,0,1,-1,-4,8,3,2,-2
14:43:50:461144,-1,-1,-6,-4,-15,0,1,-2
14:43:50:461932,-1,-1,-6,-4,-15,0,1,-2
14:43:50:467900,2,13,23,2,-13,-4,2,2
14:43:50:475431,3,8,45,-7,-30,-8,-4,1
14:43:50:482993,3,8,45,-7,-30,-8,-4,1
14:43:50:490423,-1,-2,6,2,-5,0,-1,-3
14:43:50:497928,0,3,-12,-15,-10,-6,-2,0
14:43:50:506156,0,3,-12,-15,-10,-6,-2,0
14:43:50:506992,2,6,0,-3,0,1,-1,0
14:43:50:521147,-1,-1,2,14,11,7,2,0
14:43:50:521943,-1,-1,2,14,11,7,2,0
14:43:50:527871,0,0,20,25,16,-1,-1,2
14:43:50:535479,-2,2,-18,-53,-23,-8,-5,-2
14:43:50:542993,-2,2,-18,-53,-23,-8,-5,-2
14:43:50:550423,-1,-3,8,-21,-29,-4,-1,-2
14:43:50:557916,0,2,-1,18,12,0,0,-2
14:43:50:565447,0,2,-1,18,12,0,0,-2
14:43:50:572952,-6,-10,-14,-40,16,5,0,-2
14:43:50:581127,1,-3,-6,-15,-31,-11,-3,-2
14:43:50:581917,1,-3,-6,-15,-31,-11,-3,-2
14:43:50:587913,-5,-5,-3,0,-7,-2,2,-6
14:43:50:603577,2,-8,-14,-15,-1,6,1,-1
14:43:50:604414,2,-8,-14,-15,-1,6,1,-1
14:43:50:610447,1,2,0,11,3,-2,-3,-1
14:43:50:617949,-1,-1,-8,16,4,3,2,-2
14:43:50:625462,-1,-1,-8,16,4,3,2,-2
14:43:50:632904,2,5,-4,2,3,2,1,1
14:43:50:641169,0,5,3,13,6,1,-2,-1
14:43:50:641944,0,5,3,13,6,1,-2,-1
14:43:50:647914,-2,-3,-24,16,11,-3,-2,0
14:43:50:663583,0,1,0,18,28,3,-3,0
14:43:50:664401,0,1,0,18,28,3,-3,0
14:43:50:678584,0,5,39,1,-22,-4,0,0
14:43:50:679377,-3,-4,-5,16,12,-1,-2,1
14:43:50:685457,-3,-4,-5,16,12,-1,-2,1
14:43:50:692872,0,-1,4,-2,-2,2,2,2
14:43:50:701153,-3,-5,6,-1,-15,-4,-3,-2
14:43:50:701918,-3,-5,6,-1,-15,-4,-3,-2
14:43:50:707888,-2,3,-4,4,1,-1,-1,0
14:43:50:723611,-1,-2,-8,5,3,2,0,-1
14:43:50:724403,-1,-2,-8,5,3,2,0,-1
14:43:50:730345,-1,-6,-11,0,-1,0,-2,-1
14:43:50:737932,-1,1,1,-3,0,-3,-4,1
14:43:50:745439,-1,1,1,-3,0,-3,-4,1
14:43:50:752913,-1,1,7,15,-3,1,-1,-1
14:43:50:761195,-1,-1,-3,-1,1,-2,-1,-1
14:43:50:761951,-1,-1,-3,-1,1,-2,-1,-1
14:43:50:767879,0,-3,2,12,8,0,0,-2
14:43:50:783587,0,2,5,2,-9,-3,2,0
14:43:50:784405,0,2,5,2,-9,-3,2,0
14:43:50:790386,1,2,10,-6,-6,-2,-4,-1
14:43:50:797909,-2,0,-6,-5,-2,-1,-1,1
14:43:50:805487,-2,0,-6,-5,-2,-1,-1,1
14:43:50:812934,1,3,3,-5,-5,-2,-3,0
14:43:50:821169,-3,-2,10,13,-6,0,2,-3
14:43:50:821970,-3,-2,10,13,-6,0,2,-3
14:43:50:827896,-1,-3,-12,-14,-5,-5,0,-2
14:43:50:843620,-2,0,-4,-14,0,-2,-1,0
14:43:50:844489,-2,0,-4,-14,0,-2,-1,0
14:43:50:850439,-2,3,4,-12,-9,-2,-1,1
14:43:50:857885,-2,-1,0,-1,-14,1,0,-1
14:43:50:873626,-2,-1,0,-1,-14,1,0,-1
14:43:50:874422,-3,2,-10,1,3,-1,1,-1
14:43:50:881149,0,-4,-7,6,16,3,-4,-2
14:43:50:881988,0,-4,-7,6,16,3,-4,-2
14:43:50:887906,-1,0,5,-1,3,-2,-5,-2
14:43:50:903594,-2,-2,6,-2,-8,-3,1,0
14:43:50:904402,-2,-2,6,-2,-8,-3,1,0
14:43:50:910437,0,-7,-2,2,5,3,-2,0
14:43:50:917883,2,-1,10,-10,-8,-2,1,-1
14:43:50:925471,2,-1,10,-10,-8,-2,1,-1
14:43:50:932939,-2,1,0,2,6,1,-2,-1
14:43:50:941169,-2,0,-2,-9,-4,-2,-5,-3
14:43:50:941951,-2,0,-2,-9,-4,-2,-5,-3
14:43:50:955367,-1,-3,-8,-2,-7,-1,2,-1
14:43:50:963626,-2,-1,-8,1,8,-1,-2,-1
14:43:50:964437,-2,-1,-8,1,8,-1,-2,-1
14:43:50:970391,-2,-1,-4,-1,0,3,-2,-1
14:43:50:977899,1,2,-1,-4,3,-4,0,-1
14:43:50:985537,1,2,-1,-4,3,-4,0,-1
14:43:50:992934,0,-2,-22,-16,-1,0,2,-1
14:43:51:1090,-1,-3,-6,-19,-5,1,0,0
14:43:51:1891,-1,-3,-6,-19,-5,1,0,0
14:43:51:7946,0,12,18,-9,-1,0,0,1
14:43:51:23604,-1,-2,-3,15,19,2,4,0
14:43:51:24416,-1,-2,-3,15,19,2,4,0
14:43:51:30403,-1,-4,-1,1,1,-5,-1,-1
14:43:51:37972,-1,3,3,4,4,-1,-1,-2
14:43:51:45470,-1,3,3,4,4,-1,-1,-2
14:43:51:52985,-2,-3,-1,3,-8,-4,-1,-1
14:43:51:61188,1,-7,-8,7,6,-3,-3,0
14:43:51:61906,1,-7,-8,7,6,-3,-3,0
14:43:51:67887,-1,-5,-1,5,9,3,-3,-4
14:43:51:83591,0,3,-5,-8,-1,-1,-3,-1
14:43:51:84402,0,3,-5,-8,-1,-1,-3,-1
14:43:51:90364,-2,-2,11,8,6,-1,-4,-1
14:43:51:97873,-1,-1,0,5,-2,0,-3,-1
14:43:51:105431,-1,-1,0,5,-2,0,-3,-1
14:43:51:112924,-1,-3,-4,-14,-7,-3,1,0
14:43:51:121152,-2,-4,-2,-9,-5,-1,1,-2
14:43:51:121937,-2,-4,-2,-9,-5,-1,1,-2
14:43:51:127861,-2,-2,-2,0,-4,-2,-2,-2
14:43:51:143324,-3,2,-1,-7,-5,-2,0,0
14:43:51:151152,-3,2,-1,-7,-5,-2,0,0
14:43:51:151908,-1,-2,-2,-4,-5,2,-2,-2
14:43:51:157882,-1,-2,-2,1,-2,2,-6,-3
14:43:51:165483,-1,-2,-2,1,-2,2,-6,-3
14:43:51:172882,1,-4,-4,1,0,-3,0,-3
14:43:51:181132,0,-1,2,-10,1,2,-2,0
14:43:51:181968,0,-1,2,-10,1,2,-2,0
14:43:51:187951,0,1,-3,-10,-5,-1,-3,0
14:43:51:203577,0,-3,2,4,-4,-2,3,-1
14:43:51:204423,0,-3,2,4,-4,-2,3,-1
14:43:51:210392,-1,1,-5,0,-11,-3,2,0
14:43:51:217897,1,-1,1,2,-2,-3,-5,-1
14:43:51:233646,1,-1,1,2,-2,-3,-5,-1
14:43:51:234405,1,-2,0,-7,-6,-2,1,-1
14:43:51:241142,-2,-3,-2,3,0,1,6,-1
14:43:51:241934,-2,-3,-2,3,0,1,6,-1
14:43:51:247928,-3,-2,-3,3,1,1,-2,0
14:43:51:263637,-1,-1,-5,-2,-9,-4,-4,-1
14:43:51:264427,-1,-1,-5,-2,-9,-4,-4,-1
14:43:51:270401,-2,-1,1,3,-2,-4,5,-2
14:43:51:277883,0,0,-5,2,0,1,-2,-1
14:43:51:285474,0,0,-5,2,0,1,-2,-1
14:43:51:292899,0,0,-3,3,3,-2,-1,-1
14:43:51:301152,0,-2,-4,1,-4,-4,2,0
14:43:51:301943,0,-2,-4,1,-4,-4,2,0
14:43:51:307945,0,-1,1,-4,-6,-3,-3,-1
14:43:51:323621,1,1,0,-2,3,1,-1,-3
14:43:51:324431,1,1,0,-2,3,1,-1,-3
14:43:51:330368,-2,0,-5,1,2,-1,2,-1
14:43:51:337900,-2,-5,-7,0,-5,-3,-4,-2
14:43:51:345489,-2,-5,-7,0,-5,-3,-4,-2
14:43:51:352924,-1,-3,0,1,-2,-1,-7,-1
14:43:51:361078,-1,-1,1,-2,5,-1,5,0
14:43:51:361955,-1,-1,1,-2,5,-1,5,0
14:43:51:367917,0,-3,-4,-1,2,1,2,-1
14:43:51:383574,-1,-3,1,-4,-4,3,-1,0
14:43:51:384393,-1,-3,1,-4,-4,3,-1,0
14:43:51:390463,-3,-1,5,1,3,2,-4,-2
14:43:51:397978,-1,1,-4,-10,-2,-1,0,-1
14:43:51:405449,-1,1,-4,-10,-2,-1,0,-1
14:43:51:412892,-3,-3,0,0,6,-1,0,-3
14:43:51:421184,-2,-1,2,3,-1,-1,-5,-1
14:43:51:421930,-2,-1,2,3,-1,-1,-5,-1
14:43:51:427874,-1,0,-3,0,0,-1,-2,-1
14:43:51:443552,-1,-1,-5,-3,3,1,0,-4
14:43:51:444391,-1,-1,-5,-3,3,1,0,-4
14:43:51:450355,0,0,-3,0,-5,-1,2,-4
14:43:51:457894,1,2,3,-3,-15,-2,-7,-2
14:43:51:465444,1,2,3,-3,-15,-2,-7,-2
14:43:51:472868,-2,-2,-1,-2,3,0,-1,0
14:43:51:481185,-2,-2,1,-1,4,-1,3,-2
14:43:51:481945,-2,-2,1,-1,4,-1,3,-2
14:43:51:495368,-2,-5,-6,-5,-3,-2,0,-7
14:43:51:503593,-1,0,0,7,7,0,-1,-1
14:43:51:504416,-1,0,0,7,7,0,-1,-1
14:43:51:510420,0,1,-1,1,0,-2,-6,2
14:43:51:526165,0,1,-1,1,0,-2,-6,2
14:43:51:526914,-2,0,3,1,0,-2,4,3
14:43:51:532900,-1,-1,4,3,-2,1,0,2
14:43:51:541134,-1,-1,4,3,-2,1,0,2
14:43:51:541924,1,-2,-3,4,-6,-4,-4,-2
14:43:51:555401,1,1,-3,-1,-6,-3,-5,1
14:43:51:563643,1,1,-3,-1,-6,-3,-5,1
14:43:51:564422,0,-5,0,-1,0,1,0,-1
14:43:51:570371,-1,0,-3,-5,-5,-4,-4,1
14:43:51:586178,-1,0,-3,-5,-5,-4,-4,1
14:43:51:586936,0,2,-5,-8,-7,-1,-4,-3
14:43:51:592946,1,-1,-2,-4,-1,-2,3,-1
14:43:51:601147,1,-1,-2,-4,-1,-2,3,-1
14:43:51:601939,-3,0,0,-3,0,-4,3,0
14:43:51:615486,0,1,-3,-4,-2,-2,1,0
14:43:51:623626,0,1,-3,-4,-2,-2,1,0
14:43:51:624413,-2,1,-1,1,1,-5,-2,-1
14:43:51:630447,-1,-4,2,-1,0,-3,-2,0
14:43:51:646176,-1,-4,2,-1,0,-3,-2,0
14:43:51:646870,1,0,1,-5,2,-2,-1,-2
14:43:51:652964,0,2,0,1,8,1,0,-3
14:43:51:661158,0,2,0,1,8,1,0,-3
14:43:51:661900,-1,1,-6,-7,-11,0,-2,-1
14:43:51:675431,-3,-4,0,-1,-9,0,-1,-1
14:43:51:683593,-3,-4,0,-1,-9,0,-1,-1
14:43:51:684412,-1,-3,4,2,1,1,0,0
14:43:51:690470,-3,-6,-1,-1,5,1,4,-5
14:43:51:706201,-3,-6,-1,-1,5,1,4,-5
14:43:51:706985,-2,-2,-1,3,8,2,-1,-3
14:43:51:712932,-2,2,0,-2,-5,-1,1,0
14:43:51:721181,-2,2,0,-2,-5,-1,1,0
14:43:51:721915,0,4,-4,-7,-4,-1,3,-1
14:43:51:735448,0,0,0,2,3,-3,0,1
14:43:51:743623,0,0,0,2,3,-3,0,1
14:43:51:744434,-2,-5,-4,-4,-7,-6,-3,-1
14:43:51:750421,-1,-2,3,0,-1,-2,0,0
14:43:51:766181,-1,-2,3,0,-1,-2,0,0
14:43:51:766894,-4,-4,1,0,-3,0,-3,0
14:43:51:772899,-2,-2,-3,2,5,0,0,0
14:43:51:788655,-2,-2,-3,2,5,0,0,0
14:43:51:789450,-1,1,-3,1,-2,-3,-2,0
14:43:51:795427,2,-1,2,-2,-1,1,-2,2
14:43:51:803596,2,-1,2,-2,-1,1,-2,2
14:43:51:804417,-3,0,1,2,14,4,1,-3
14:43:51:810404,-5,-1,-6,-7,-1,-1,0,-4
14:43:51:826161,-5,-1,-6,-7,-1,-1,0,-4
14:43:51:826913,1,-1,3,0,5,-2,-2,1
14:43:51:832928,1,6,-6,5,-1,-1,0,-2
14:43:51:841185,1,6,-6,5,-1,-1,0,-2
14:43:51:841932,-2,2,5,4,8,2,-3,-1
14:43:51:855390,2,1,-5,6,1,5,-3,-1
14:43:51:863668,2,1,-5,6,1,5,-3,-1
14:43:51:864400,-2,-1,3,2,-5,1,2,-1
14:43:51:870392,-2,-3,6,14,-2,-5,6,0
14:43:51:886179,-2,-3,6,14,-2,-5,6,0
14:43:51:886920,3,-1,-9,-30,-9,-3,-1,-1
14:43:51:892907,-2,-2,0,-2,-2,-2,-7,-2
14:43:51:901130,-2,-2,0,-2,-2,-2,-7,-2
14:43:51:901913,-2,-4,5,20,2,-8,-9,-2
14:43:51:915388,-3,0,-5,10,2,-1,-7,-2
14:43:51:923656,-3,0,-5,10,2,-1,-7,-2
14:43:51:924406,1,3,11,18,-21,-1,1,-4
14:43:51:930390,1,-2,3,-29,-30,-9,3,0
14:43:51:946148,1,-2,3,-29,-30,-9,3,0
14:43:51:946880,2,6,10,35,17,0,3,3
14:43:51:952874,-1,-3,6,21,3,-6,0,-1
14:43:51:961168,-1,-3,6,21,3,-6,0,-1
14:43:51:961933,0,-3,13,41,22,11,-5,-1
14:43:51:975388,0,-4,-35,-57,-13,3,-9,-1
14:43:51:983625,0,-4,-35,-57,-13,3,-9,-1
14:43:51:984427,-7,-23,-62,-113,-14,-2,-3,-3
14:43:51:990381,2,6,25,29,25,8,8,-1
14:43:52:6182,2,6,25,29,25,8,8,-1
14:43:52:6880,-1,-6,-26,-25,3,-3,-4,0
14:43:52:12917,1,-3,-10,-26,2,12,-5,0
14:43:52:21164,1,-3,-10,-26,2,12,-5,0
14:43:52:21935,-3,-8,8,0,-7,-27,-6,-1
14:43:52:35453,-1,-2,7,20,-11,10,7,0
14:43:52:43629,-1,-2,7,20,-11,10,7,0
14:43:52:44419,-2,-2,0,-8,-17,-4,1,-3
14:43:52:50375,-1,-2,1,-38,-8,2,0,-4
14:43:52:66188,-1,-2,1,-38,-8,2,0,-4
14:43:52:66899,2,7,1,-7,-19,21,1,3
14:43:52:72900,-3,8,1,14,29,7,9,0
14:43:52:81139,-3,8,1,14,29,7,9,0
14:43:52:81897,0,-2,6,21,5,-12,-8,-5
14:43:52:95404,-4,2,-1,-5,-13,-28,1,-1
14:43:52:103560,-4,2,-1,-5,-13,-28,1,-1
14:43:52:104367,-5,-9,2,20,2,2,88,-2
14:43:52:110403,0,22,-2,0,6,-1,-3,-6
14:43:52:126079,0,22,-2,0,6,-1,-3,-6
14:43:52:126863,0,-2,1,-8,-4,2,-33,0
14:43:52:132931,-5,-4,15,25,-7,1,-16,4
14:43:52:141171,-5,-4,15,25,-7,1,-16,4
14:43:52:141925,-1,14,-3,-3,-6,-10,-14,3
14:43:52:155384,5,-3,-18,-41,-9,21,-2,4
14:43:52:163612,5,-3,-18,-41,-9,21,-2,4
14:43:52:164382,0,4,9,4,6,-1,-9,-4
14:43:52:170400,-5,-11,-5,21,-5,-17,-20,-10
14:43:52:186236,-5,-11,-5,21,-5,-17,-20,-10
14:43:52:186991,-4,-4,-1,-14,5,12,12,-2
14:43:52:192907,-2,-12,13,31,-8,5,61,2
14:43:52:201152,-2,-12,13,31,-8,5,61,2
14:43:52:201836,-3,10,10,25,2,1,-14,0
14:43:52:215412,2,5,1,11,15,5,-12,1
14:43:52:223579,2,5,1,11,15,5,-12,1
14:43:52:224373,-4,-31,-25,-46,-14,-6,-31,-5
14:43:52:230412,0,-5,-5,8,5,-26,-21,-4
14:43:52:246144,0,-5,-5,8,5,-26,-21,-4
14:43:52:246907,5,23,6,19,14,24,-21,1
14:43:52:261767,1,6,14,11,8,-10,25,4
14:43:52:262615,1,6,14,11,8,-10,25,4
14:43:52:263400,2,-3,-11,-4,6,14,13,4
14:43:52:275383,0,2,11,-5,22,-1,-21,-2
14:43:52:283634,0,2,11,-5,22,-1,-21,-2
14:43:52:284431,0,-8,-29,-71,0,-18,2,-3
14:43:52:290359,-1,-1,-16,-16,-22,16,7,0
14:43:52:306178,-1,-1,-16,-16,-22,16,7,0
14:43:52:306950,0,19,23,0,19,27,3,3
14:43:52:312870,0,-3,17,-15,-17,-19,-18,-4
14:43:52:321189,0,-3,17,-15,-17,-19,-18,-4
14:43:52:321954,-3,-30,1,31,-21,-13,-6,-6
14:43:52:335525,-1,-7,-16,-18,-3,-9,0,-2
14:43:52:343598,-1,-7,-16,-18,-3,-9,0,-2
14:43:52:344399,3,2,26,19,-6,-14,10,1
14:43:52:350406,-4,-37,-7,4,-2,9,60,2
14:43:52:366136,-4,-37,-7,4,-2,9,60,2
14:43:52:366955,2,11,1,46,-4,0,5,0
14:43:52:372952,2,14,0,8,12,-5,-29,2
14:43:52:381175,2,14,0,8,12,-5,-29,2
14:43:52:381913,-5,-12,-28,27,-5,-12,7,-1
14:43:52:395426,-10,-29,-12,6,0,-4,-19,-4
14:43:52:403577,-10,-29,-12,6,0,-4,-19,-4
14:43:52:404368,1,0,27,5,18,0,-15,-3
14:43:52:410431,-1,7,12,32,3,-2,-6,-1
14:43:52:426092,-1,7,12,32,3,-2,-6,-1
14:43:52:426864,-1,8,-9,-12,-3,0,-10,0
14:43:52:432941,-5,-6,-3,10,-9,-17,-11,-6
14:43:52:440450,-5,-6,-3,10,-9,-17,-11,-6
14:43:52:447903,3,8,12,1,-15,13,8,2
14:43:52:455420,0,0,-5,0,5,6,-9,0
14:43:52:463598,0,0,-5,0,5,6,-9,0
14:43:52:464400,-5,-8,-4,-16,-2,-21,-5,-4
14:43:52:477920,3,14,36,-10,-11,18,-1,-1
14:43:52:486179,3,14,36,-10,-11,18,-1,-1
14:43:52:486907,-3,-7,20,16,-2,-12,-5,-1
14:43:52:492896,2,13,4,-1,0,-2,-1,2
14:43:52:516791,2,13,4,-1,0,-2,-1,2
14:43:52:517592,-4,-7,3,3,0,2,0,-4
14:43:52:518380,-9,-13,-26,-37,-7,-4,-6,1
14:43:52:523593,-9,-13,-26,-37,-7,-4,-6,1
14:43:52:524421,7,15,19,27,15,7,5,4
14:43:52:547260,0,-5,0,-7,-1,2,0,-1
14:43:52:548043,0,-5,0,-7,-1,2,0,-1
14:43:52:548833,-1,8,-3,0,-9,-8,-2,-7
14:43:52:552851,-4,-18,1,4,2,-3,-8,-4
14:43:52:576792,-4,-18,1,4,2,-3,-8,-4
14:43:52:577585,-8,-7,-20,-51,-17,-1,-2,-3
14:43:52:578400,1,9,-22,-18,3,-1,-6,-2
14:43:52:583555,1,9,-22,-18,3,-1,-6,-2
14:43:52:584374,1,6,-5,0,-9,-6,3,5
14:43:52:597914,3,4,-11,5,4,1,3,0
14:43:52:606141,3,4,-11,5,4,1,3,0
14:43:52:606932,2,-1,-8,-3,4,-2,12,3
14:43:52:612945,3,12,14,11,0,7,2,1
14:43:52:620459,3,12,14,11,0,7,2,1
14:43:52:627911,-1,-4,9,-8,7,0,-4,-3
14:43:52:635479,-4,2,-9,-14,-4,-1,20,-2
14:43:52:643587,-4,2,-9,-14,-4,-1,20,-2
14:43:52:644391,-3,-10,-14,12,10,2,-7,-5
14:43:52:657891,1,9,-15,3,9,11,23,2
14:43:52:666070,1,9,-15,3,9,11,23,2
14:43:52:666939,0,-2,3,-6,0,-1,-8,0
14:43:52:672898,-1,-4,-15,-16,-19,-8,-10,-2
14:43:52:680431,-1,-4,-15,-16,-19,-8,-10,-2
14:43:52:687882,-3,2,-18,3,2,-3,-2,-2
14:43:52:695372,-3,-1,52,10,2,3,-9,-1
14:43:52:703601,-3,-1,52,10,2,3,-9,-1
14:43:52:704415,-1,-11,-10,-11,-6,-1,5,0
14:43:52:717919,1,5,3,11,-4,3,-22,-3
14:43:52:726170,1,5,3,11,-4,3,-22,-3
14:43:52:726873,-3,0,7,1,12,20,2,1
14:43:52:732885,-2,-10,-14,-18,1,-8,-23,-1
14:43:52:740484,-2,-10,-14,-18,1,-8,-23,-1
14:43:52:747900,0,5,-5,5,-18,-16,-1,0
14:43:52:755361,-1,-6,-20,0,-3,-10,-18,-3
14:43:52:763635,-1,-6,-20,0,-3,-10,-18,-3
14:43:52:764423,-3,2,-53,-82,-9,3,2,-3
14:43:52:786781,1,5,0,-8,-6,-2,4,-1
14:43:52:787614,1,5,0,-8,-6,-2,4,-1
14:43:52:788385,-1,-3,14,26,5,4,-8,1
14:43:52:792877,-1,3,-11,0,-2,5,-5,1
14:43:52:800455,-1,3,-11,0,-2,5,-5,1
14:43:52:816038,1,-3,30,15,4,5,-3,-2
14:43:52:816828,-1,9,19,13,-12,-5,24,3
14:43:52:823610,-1,9,19,13,-12,-5,24,3
14:43:52:824398,-3,-6,-3,0,5,-4,0,-4
14:43:52:846785,4,2,33,31,5,-2,5,1
14:43:52:847592,4,2,33,31,5,-2,5,1
14:43:52:848384,1,6,-17,-21,-8,-15,1,1
14:43:52:852907,-4,-10,12,12,13,2,-11,-3
14:43:52:860423,-4,-10,12,12,13,2,-11,-3
14:43:52:867918,2,-4,2,25,-5,-7,-10,-4
14:43:52:875383,-4,1,-17,-15,5,-1,7,-2
14:43:52:883588,-4,1,-17,-15,5,-1,7,-2
14:43:52:884370,-1,1,-7,1,0,4,1,-1
14:43:52:897892,0,-4,4,0,-1,-1,15,3
14:43:52:906138,0,-4,4,0,-1,-1,15,3
14:43:52:906873,4,17,38,9,7,4,2,1
14:43:52:912961,1,2,-1,17,-2,-5,-11,-4
14:43:52:920459,1,2,-1,17,-2,-5,-11,-4
14:43:52:927871,-4,-3,8,12,-12,2,5,0
14:43:52:935397,-3,-9,-9,-3,4,-10,-10,-5
14:43:52:943593,-3,-9,-9,-3,4,-10,-10,-5
14:43:52:944402,-3,-7,6,14,-4,-1,0,1
14:43:52:957987,2,9,10,-3,11,3,-3,-2
14:43:52:966214,2,9,10,-3,11,3,-3,-2
14:43:52:966910,-2,-5,-10,-16,-10,-13,-15,-2
14:43:52:972890,-2,-4,-1,-17,-12,8,9,3
14:43:52:980448,-2,-4,-1,-17,-12,8,9,3
14:43:52:987888,-4,-2,-16,-26,24,5,-9,-3
14:43:52:995392,-4,-7,-9,-5,-6,-6,-12,-4
14:43:53:3628,-4,-7,-9,-5,-6,-6,-12,-4
14:43:53:4415,-4,-9,2,4,-6,-3,2,0
14:43:53:17922,-1,4,6,13,0,-3,2,-1
14:43:53:26157,-1,4,6,13,0,-3,2,-1
14:43:53:26885,1,-1,-7,-4,-2,7,-4,-2
14:43:53:32929,-1,-4,-23,-41,-10,-3,0,-6
14:43:53:40478,-1,-4,-23,-41,-10,-3,0,-6
14:43:53:47909,0,2,8,6,-14,-21,36,1
14:43:53:55404,-4,-15,-26,-2,1,11,-7,2
14:43:53:63673,-4,-15,-26,-2,1,11,-7,2
14:43:53:64440,2,-2,-14,-13,8,1,1,-2
14:43:53:77869,-1,2,-26,-32,-19,-11,4,-1
14:43:53:86195,-1,2,-26,-32,-19,-11,4,-1
14:43:53:86923,0,11,23,31,4,0,-8,0
14:43:53:92926,0,4,14,8,-2,2,-5,1
14:43:53:100499,0,4,14,8,-2,2,-5,1
14:43:53:107891,2,-6,-19,-1,14,7,-6,-3
14:43:53:115424,1,-8,12,9,-1,-7,3,-3
14:43:53:123586,1,-8,12,9,-1,-7,3,-3
14:43:53:124431,0,2,22,11,-9,5,-1,0
14:43:53:137941,-1,-6,-47,1,2,-2,13,2
14:43:53:146143,-1,-6,-47,1,2,-2,13,2
14:43:53:146932,-3,-6,-24,-18,7,0,-6,-1
14:43:53:152915,2,3,10,9,-2,-4,-2,0
14:43:53:160453,2,3,10,9,-2,-4,-2,0
14:43:53:167944,-4,-3,-5,-4,-7,-4,-6,-2
14:43:53:175442,1,2,21,27,15,9,2,-1
14:43:53:183618,1,2,21,27,15,9,2,-1
14:43:53:184390,0,-1,-20,11,7,-2,-1,0
14:43:53:197926,3,24,46,16,1,-3,-6,-1
14:43:53:206070,3,24,46,16,1,-3,-6,-1
14:43:53:206915,0,6,5,7,-3,0,-18,0
14:43:53:212927,-2,0,0,-8,3,2,-5,3
14:43:53:220416,-2,0,0,-8,3,2,-5,3
14:43:53:227870,-6,-11,-28,-72,-21,-8,-9,-6
14:43:53:235455,3,2,-27,-18,1,3,7,-1
14:43:53:243649,3,2,-27,-18,1,3,7,-1
14:43:53:244445,-4,-12,8,19,1,2,-4,-1
14:43:53:257925,-3,-4,-2,-9,0,4,11,0
14:43:53:266160,-3,-4,-2,-9,0,4,11,0
14:43:53:266933,0,8,6,4,-7,-2,-12,1
14:43:53:272875,-3,-4,-17,17,-12,-7,0,0
14:43:53:280453,-3,-4,-17,17,-12,-7,0,0
14:43:53:287902,1,9,28,9,-2,-1,16,-2
14:43:53:295383,-4,-7,-12,9,-4,2,-9,-3
14:43:53:303645,-4,-7,-12,9,-4,2,-9,-3
14:43:53:304435,-1,-2,14,22,6,-8,-4,-2
14:43:53:317922,-1,-2,3,-12,1,5,7,0
14:43:53:326173,-1,-2,3,-12,1,5,7,0
14:43:53:326905,1,-1,27,24,6,3,6,1
14:43:53:332913,-3,-1,-19,-15,-2,-2,-11,-3
14:43:53:340466,-3,-1,-19,-15,-2,-2,-11,-3
14:43:53:347918,-2,-10,-13,-12,18,1,-10,-3
14:43:53:355452,-4,-2,15,-7,-3,-13,-1,-6
14:43:53:363408,-4,-2,15,-7,-3,-13,-1,-6
14:43:53:370456,2,15,12,-5,-3,10,11,2
14:43:53:377922,1,-9,19,5,-6,-10,-14,-1
14:43:53:386139,1,-9,19,5,-6,-10,-14,-1
14:43:53:386887,-1,8,3,-42,-17,-2,15,-2
14:43:53:401084,-1,6,52,3,11,17,10,1
14:43:53:401899,-1,6,52,3,11,17,10,1
14:43:53:407909,-4,-3,-38,-2,-8,-4,-16,-3
14:43:53:415426,-1,-4,-11,-5,13,-5,0,0
14:43:53:422992,-1,-4,-11,-5,13,-5,0,0
14:43:53:430446,-4,-16,-34,1,-7,-1,2,0
14:43:53:437949,-1,-15,-18,15,12,4,0,2
14:43:53:446080,-1,-15,-18,15,12,4,0,2
14:43:53:446880,0,0,21,20,-1,2,-11,-2
14:43:53:461118,4,4,-4,-18,-4,-8,12,-4
14:43:53:461912,4,4,-4,-18,-4,-8,12,-4
14:43:53:467961,-2,-11,5,5,6,-3,10,1
14:43:53:475410,3,15,13,8,-4,-3,-4,4
14:43:53:482991,3,15,13,8,-4,-3,-4,4
14:43:53:490362,-4,-5,-4,-7,-20,-1,4,-2
14:43:53:497882,-5,4,5,-6,-8,0,-7,0
14:43:53:506205,-5,4,5,-6,-8,0,-7,0
14:43:53:506917,-2,-6,-7,-3,3,1,-6,-2
14:43:53:521081,-2,-11,-45,-9,-12,-10,3,0
14:43:53:521873,-2,-11,-45,-9,-12,-10,3,0
14:43:53:527841,-1,-8,-92,-18,3,3,3,-4
14:43:53:535401,-1,3,-15,2,2,3,22,-2
14:43:53:542958,-1,3,-15,2,2,3,22,-2
14:43:53:550396,1,6,7,-2,2,-1,5,2
14:43:53:557859,-3,-9,-21,-31,2,-1,-17,-2
14:43:53:566169,-3,-9,-21,-31,2,-1,-17,-2
14:43:53:566922,-2,2,28,4,5,-2,-4,-3
14:43:53:581152,0,-12,25,27,-4,7,-8,-1
14:43:53:581888,0,-12,25,27,-4,7,-8,-1
14:43:53:587898,0,4,4,-4,8,1,-2,-1
14:43:53:595376,2,2,16,10,-7,-6,0,-4
14:43:53:602981,2,2,16,10,-7,-6,0,-4
14:43:53:610427,0,0,-2,3,-13,-11,-21,-3
14:43:53:617918,-1,3,-18,-10,-5,-2,-16,-1
14:43:53:626100,-1,3,-18,-10,-5,-2,-16,-1
14:43:53:626918,-1,6,6,4,12,-2,2,0
14:43:53:641198,-1,4,23,5,17,5,0,-1
14:43:53:641909,-1,4,23,5,17,5,0,-1
14:43:53:647929,2,2,7,-24,-4,-4,3,1
14:43:53:655387,-6,-17,-5,-11,-11,-4,3,1
14:43:53:663020,-6,-17,-5,-11,-11,-4,3,1
14:43:53:670407,0,-14,-1,11,-3,-1,-5,1
14:43:53:677869,-3,-4,-23,-21,-16,3,21,-2
14:43:53:686124,-3,-4,-23,-21,-16,3,21,-2
14:43:53:686926,-1,2,1,8,5,3,10,2
14:43:53:701075,-1,-1,-9,11,0,2,1,0
14:43:53:701896,-1,-1,-9,11,0,2,1,0
14:43:53:707944,-3,2,-6,2,-14,0,7,-1
14:43:53:715430,3,13,18,-1,5,-8,-16,-2
14:43:53:722954,3,13,18,-1,5,-8,-16,-2
14:43:53:730416,-3,-6,-32,-12,3,-6,-11,-7
14:43:53:737949,-2,-12,2,2,-4,-2,-1,-1
14:43:53:746078,-2,-12,2,2,-4,-2,-1,-1
14:43:53:746893,-1,2,7,7,-4,-4,4,-2
14:43:53:761089,-3,-6,-14,9,10,-4,-9,-2
14:43:53:761896,-3,-6,-14,9,10,-4,-9,-2
14:43:53:767924,1,-4,6,3,2,6,29,1
14:43:53:775430,-2,0,-16,9,0,-4,-13,-2
14:43:53:782986,-2,0,-16,9,0,-4,-13,-2
14:43:53:790398,3,-1,-1,-3,-13,12,-1,2
14:43:53:797890,1,8,24,6,7,6,7,3
14:43:53:806197,1,8,24,6,7,6,7,3
14:43:53:806916,-1,-1,10,-5,5,-9,-8,0
14:43:53:821103,-3,2,2,-6,-13,-7,-3,-5
14:43:53:821912,-3,2,2,-6,-13,-7,-3,-5
14:43:53:827857,-3,-2,17,6,1,0,3,0
14:43:53:835454,2,6,6,-10,1,-5,-4,-2
14:43:53:842982,2,6,6,-10,1,-5,-4,-2
14:43:53:850415,-2,3,14,13,4,-3,-19,-2
14:43:53:857859,0,-11,-13,-1,-4,-1,7,2
14:43:53:866216,0,-11,-13,-1,-4,-1,7,2
14:43:53:866927,1,7,52,5,18,12,5,-1
14:43:53:881125,-3,7,8,-3,0,0,-1,0
14:43:53:881921,-3,7,8,-3,0,0,-1,0
14:43:53:887893,1,0,13,11,-9,-8,-1,-1
14:43:53:895376,0,-3,40,12,5,4,-7,1
14:43:53:902977,0,-3,40,12,5,4,-7,1
14:43:53:910428,-2,-2,2,0,-1,0,5,0
14:43:53:917931,2,2,0,-5,-7,-9,-4,-4
14:43:53:926070,2,2,0,-5,-7,-9,-4,-4
14:43:53:926873,-4,-7,0,4,-18,-4,11,0
14:43:53:941175,-2,-11,-4,1,2,6,6,0
14:43:53:941947,-2,-11,-4,1,2,6,6,0
14:43:53:947890,-3,-2,-21,-20,-4,-10,-6,-1
14:43:53:955434,2,7,-20,-8,-3,-1,-4,-3
14:43:53:962935,2,7,-20,-8,-3,-1,-4,-3
14:43:53:970407,2,2,-7,15,3,2,-11,0
14:43:53:977890,-5,-9,-6,-2,-8,-6,-7,-1
14:43:53:986554,-5,-9,-6,-2,-8,-6,-7,-1
14:43:53:992920,-3,-7,8,7,3,12,11,4
14:43:54:1110,0,-3,-26,-6,5,2,0,-3
14:43:54:1917,0,-3,-26,-6,5,2,0,-3
14:43:54:7877,0,-1,-6,-5,-5,-1,5,-1
14:43:54:15368,-1,2,-2,-24,-1,6,3,1
14:43:54:22972,-1,2,-2,-24,-1,6,3,1
14:43:54:30389,-2,3,-4,-4,-3,-2,-11,-3
14:43:54:37898,-2,6,6,14,2,2,-4,3
14:43:54:46162,-2,6,6,14,2,2,-4,3
14:43:54:46936,2,2,2,-7,22,-1,-7,0
14:43:54:61118,-2,2,-19,-5,6,2,3,-2
14:43:54:61920,-2,2,-19,-5,6,2,3,-2
14:43:54:67871,1,8,14,36,8,6,3,2
14:43:54:75407,0,-1,4,4,-2,-3,-6,-2
14:43:54:82976,0,-1,4,4,-2,-3,-6,-2
14:43:54:90404,0,2,24,10,-9,-4,7,-2
14:43:54:97942,0,2,-7,0,-2,0,4,0
14:43:54:106235,0,2,-7,0,-2,0,4,0
14:43:54:106980,-4,-9,-9,-10,-9,-7,-8,-3
14:43:54:121198,-7,-14,-36,-55,-8,-14,-2,-4
14:43:54:121970,-7,-14,-36,-55,-8,-14,-2,-4
14:43:54:127947,0,-2,-24,-6,-5,12,4,-1
14:43:54:135430,0,4,14,8,-7,7,-6,-2
14:43:54:142938,0,4,14,8,-7,7,-6,-2
14:43:54:150451,-1,-1,2,-22,0,-5,-5,1
14:43:54:157927,1,1,20,-4,1,-3,-8,-2
14:43:54:166128,1,1,20,-4,1,-3,-8,-2
14:43:54:166899,1,-1,-11,-11,-3,-4,-1,-2
14:43:54:181064,1,-2,15,34,9,2,5,1
14:43:54:181859,1,-2,15,34,9,2,5,1
14:43:54:187917,-2,4,-18,-16,1,-9,-11,-3
14:43:54:195451,-1,0,3,9,-20,8,0,-3
14:43:54:202991,-1,0,3,9,-20,8,0,-3
14:43:54:210412,-1,-2,-3,27,8,3,2,-1
14:43:54:217968,-4,-3,1,2,2,-4,-2,2
14:43:54:226110,-4,-3,1,2,2,-4,-2,2
14:43:54:226908,0,2,-1,2,4,-3,-8,-2
14:43:54:241067,0,-7,-9,2,-1,-4,8,-1
14:43:54:241871,0,-7,-9,2,-1,-4,8,-1
14:43:54:247859,-3,-14,-34,-7,7,-4,-3,-1
14:43:54:255389,2,-2,-38,-8,18,2,5,2
14:43:54:271082,2,-2,-38,-8,18,2,5,2
14:43:54:271893,-3,-2,-28,-13,-22,0,19,-1
14:43:54:277902,-1,7,8,2,-3,1,-2,1
14:43:54:286103,-1,7,8,2,-3,1,-2,1
14:43:54:286934,-2,-1,9,-9,-2,-3,5,0
14:43:54:301100,-1,1,-23,-61,-15,-10,-1,-1
14:43:54:301924,-1,1,-23,-61,-15,-10,-1,-1
14:43:54:307929,4,1,12,-1,-1,0,-3,0
14:43:54:315448,-3,1,-11,-1,-8,-10,-6,-2
14:43:54:322973,-3,1,-11,-1,-8,-10,-6,-2
14:43:54:330360,0,-7,-9,-9,3,-2,-8,0
14:43:54:337875,2,3,35,17,1,6,8,0
14:43:54:345451,2,3,35,17,1,6,8,0
14:43:54:352887,1,11,21,11,4,-1,15,0
14:43:54:361112,-1,-4,21,35,-5,-7,-5,-1
14:43:54:361916,-1,-4,21,35,-5,-7,-5,-1
14:43:54:367883,1,3,-13,3,1,10,-9,-1
14:43:54:383575,0,-2,2,13,-1,-2,-11,-4
14:43:54:384391,0,-2,2,13,-1,-2,-11,-4
14:43:54:390413,-2,-5,7,-4,-7,-3,-5,-1
14:43:54:397919,0,-2,-4,0,0,-2,-7,-3
14:43:54:405478,0,-2,-4,0,0,-2,-7,-3
14:43:54:412952,0,-5,5,-8,0,-3,-2,-1
14:43:54:421170,-1,-3,17,22,6,-1,3,-2
14:43:54:421959,-1,-3,17,22,6,-1,3,-2
14:43:54:427905,-6,-4,-12,8,-1,-11,-23,0
14:43:54:443633,-2,4,-12,-13,-4,-1,8,1
14:43:54:444447,-2,4,-12,-13,-4,-1,8,1
14:43:54:450404,0,-1,-6,-5,19,0,-13,-2
14:43:54:457877,-2,-19,-27,-4,8,5,0,-2
14:43:54:465521,-2,-19,-27,-4,8,5,0,-2
14:43:54:472932,-2,4,24,-8,-12,-4,4,-1
14:43:54:481076,-2,0,-4,-42,-6,-9,-5,-4
14:43:54:481888,-2,0,-4,-42,-6,-9,-5,-4
14:43:54:487925,2,-7,-19,-7,-11,10,-1,0
14:43:54:503563,1,2,10,3,-8,-9,-9,-1
14:43:54:504393,1,2,10,3,-8,-9,-9,-1
14:43:54:519305,1,9,20,-1,0,7,16,1
14:43:54:520118,-1,-6,1,4,-1,8,-3,-1
14:43:54:520934,-1,-6,1,4,-1,8,-3,-1
14:43:54:532892,-2,1,6,12,-8,-11,-3,-3
14:43:54:549297,-1,-6,-20,3,-3,-1,-3,-2
14:43:54:550089,-1,-6,-20,3,-3,-1,-3,-2
14:43:54:550913,-4,-17,-27,-12,-2,-3,-6,-3
14:43:54:563606,0,1,12,-1,-2,-1,9,2
14:43:54:564388,0,1,12,-1,-2,-1,9,2
14:43:54:570408,0,2,-4,-5,4,2,1,0
14:43:54:578567,-3,-6,-13,1,3,0,-4,0
14:43:54:579392,-3,-6,-13,1,3,0,-4,0
14:43:54:592920,-2,5,-8,-31,-9,-8,-5,-2
14:43:54:601079,1,7,32,9,4,8,0,4
14:43:54:601872,1,7,32,9,4,8,0,4
14:43:54:607913,0,-2,-6,-4,-6,4,-4,-2
14:43:54:623615,1,4,-12,-12,2,-4,-2,-1
14:43:54:624445,1,4,-12,-12,2,-4,-2,-1
14:43:54:630418,0,5,-20,4,-4,-5,-10,-2
14:43:54:638581,0,-11,-20,-7,3,4,14,1
14:43:54:639408,0,-11,-20,-7,3,4,14,1
14:43:54:652904,-2,-2,5,-8,0,-2,6,-1
14:43:54:661083,-1,3,6,5,-4,-2,-3,-2
14:43:54:661891,-1,3,6,5,-4,-2,-3,-2
14:43:54:667933,1,-5,-5,-22,0,-6,-5,1
14:43:54:683694,-1,4,8,8,3,7,2,-1
14:43:54:684448,-1,4,8,8,3,7,2,-1
14:43:54:690414,-5,-4,-4,10,5,4,2,-1
14:43:54:698570,-1,-2,3,8,-6,-10,-11,-3
14:43:54:699391,-1,-2,3,8,-6,-10,-11,-3
14:43:54:712901,-1,-7,-24,1,-6,-1,0,-4
14:43:54:721057,-2,3,6,-8,-2,-4,-1,-2
14:43:54:721902,-2,3,6,-8,-2,-4,-1,-2
14:43:54:727884,-2,3,14,5,-11,-1,20,2
14:43:54:743580,-3,5,-12,-37,13,7,8,0
14:43:54:744442,-3,5,-12,-37,13,7,8,0
14:43:54:750379,1,6,28,9,-6,-10,-16,-3
14:43:54:758601,2,-7,-5,5,-1,1,0,1
14:43:54:759449,2,-7,-5,5,-1,1,0,1
14:43:54:772898,-2,-3,12,10,0,1,-1,-2
14:43:54:781088,-3,1,-10,3,2,5,-3,-1
14:43:54:781939,-3,1,-10,3,2,5,-3,-1
14:43:54:787901,-1,-5,-25,8,1,-4,-5,-3
14:43:54:803579,-5,-19,-32,-47,-2,-5,-2,-2
14:43:54:804397,-5,-19,-32,-47,-2,-5,-2,-2
14:43:54:810393,1,2,25,17,12,13,5,1
14:43:54:826105,1,2,25,17,12,13,5,1
14:43:54:826891,2,8,19,15,-6,-5,-10,-3
14:43:54:832880,0,-2,2,0,-7,-9,-3,-1
14:43:54:841153,0,-2,2,0,-7,-9,-3,-1
14:43:54:841925,-3,-10,-11,4,0,-4,-12,-2
14:43:54:847920,-3,-6,-5,8,3,-2,-2,1
14:43:54:863622,-3,-6,-5,8,3,-2,-2,1
14:43:54:864467,0,3,-3,9,1,2,8,0
14:43:54:870384,-2,-1,3,-10,-2,-2,-8,-5
14:43:54:886157,-2,-1,3,-10,-2,-2,-8,-5
14:43:54:886936,0,5,11,17,0,-3,-3,-1
14:43:54:892917,-1,-3,2,-7,6,0,7,0
14:43:54:901112,-1,-3,2,-7,6,0,7,0
14:43:54:901925,-3,-14,-40,-32,-3,1,0,-3
14:43:54:907929,-1,6,45,7,0,-4,-4,-2
14:43:54:923602,-1,6,45,7,0,-4,-4,-2
14:43:54:924436,1,7,11,0,-7,-4,3,0
14:43:54:930372,-3,-4,-5,-6,-6,-2,-3,0
14:43:54:946108,-3,-4,-5,-6,-6,-2,-3,0
14:43:54:946881,0,7,17,7,-1,-2,-1,-2
14:43:54:952871,0,-2,-13,-28,3,0,-14,-2
14:43:54:961099,0,-2,-13,-28,3,0,-14,-2
14:43:54:961924,0,1,21,8,-14,-5,2,1
14:43:54:967859,0,12,34,14,14,8,0,2
14:43:54:983571,0,12,34,14,14,8,0,2
14:43:54:984398,-3,1,-7,-22,-5,-1,-3,0
14:43:54:990396,-1,7,-3,-8,-5,-3,5,-2
14:43:55:6176,-1,7,-3,-8,-5,-3,5,-2
14:43:55:6922,1,1,-21,-28,-3,0,1,-3
14:43:55:12955,0,-2,5,3,0,-4,-2,0
14:43:55:21143,0,-2,5,3,0,-4,-2,0
14:43:55:21918,-2,3,17,13,-6,-1,-6,-1
14:43:55:27860,1,-8,-18,0,-6,-5,-1,-1
14:43:55:43607,1,-8,-18,0,-6,-5,-1,-1
14:43:55:44389,-3,-7,-19,1,9,2,2,-1
14:43:55:50428,-1,-8,-19,6,4,5,3,-3
14:43:55:66080,-1,-8,-19,6,4,5,3,-3
14:43:55:66900,-1,-3,9,-11,-8,-13,-6,-2
14:43:55:72923,0,1,7,6,4,5,-5,1
14:43:55:81105,0,1,7,6,4,5,-5,1
14:43:55:81870,-1,-2,23,15,2,-2,-3,-1
14:43:55:87918,0,4,10,-1,1,6,0,-1
14:43:55:103536,0,4,10,-1,1,6,0,-1
14:43:55:104362,4,-2,10,36,0,-4,-3,0
14:43:55:110429,-1,-1,-23,-2,-13,-7,-1,-1
14:43:55:126165,-1,-1,-23,-2,-13,-7,-1,-1
14:43:55:126886,-2,-9,1,22,4,3,4,0
14:43:55:132931,-2,-2,4,18,2,-7,-5,-3
14:43:55:141076,-2,-2,4,18,2,-7,-5,-3
14:43:55:141872,-2,-2,-2,-10,-8,-4,-9,-1
14:43:55:147941,0,9,23,9,-1,1,1,2
14:43:55:163669,0,9,23,9,-1,1,1,2
14:43:55:164456,-1,0,-36,-15,5,5,3,0
14:43:55:170424,0,1,-3,6,7,3,9,0
14:43:55:186186,0,1,-3,6,7,3,9,0
14:43:55:186923,1,5,16,8,7,-3,1,-1
14:43:55:192929,-1,1,0,-12,-16,-1,-11,-2
14:43:55:201218,-1,1,0,-12,-16,-1,-11,-2
14:43:55:201974,-2,3,6,-4,3,0,-6,-1
14:43:55:207877,2,0,26,3,-2,0,1,-1
14:43:55:223647,2,0,26,3,-2,0,1,-1
14:43:55:224420,-1,6,1,9,-6,-1,3,-2
14:43:55:230419,-2,-3,-21,-7,13,3,0,-1
14:43:55:246202,-2,-3,-21,-7,13,3,0,-1
14:43:55:246943,-2,-6,-9,-8,5,-3,-2,0
14:43:55:252913,-3,-27,-13,21,-19,-5,3,-2
14:43:55:261173,-3,-27,-13,21,-19,-5,3,-2
14:43:55:261923,-3,-4,3,-4,2,2,-2,-3
14:43:55:275397,-1,2,-4,-3,-1,-1,1,-2
14:43:55:283641,-1,2,-4,-3,-1,-1,1,-2
14:43:55:284406,1,6,39,10,-12,3,-4,1
14:43:55:290450,-2,0,-15,-10,-2,-4,-4,-1
14:43:55:314273,-2,0,-15,-10,-2,-4,-4,-1
14:43:55:315098,0,2,-3,16,-1,-6,-3,-1
14:43:55:315874,-2,-1,-10,-11,16,-1,8,-1
14:43:55:321142,-2,-1,-10,-11,16,-1,8,-1
14:43:55:321941,0,-1,-25,-40,2,2,-2,-2
14:43:55:335479,-5,-5,-28,-34,-12,-4,-2,-4
14:43:55:343593,-5,-5,-28,-34,-12,-4,-2,-4
14:43:55:344430,-2,-4,-5,9,-8,-1,-1,-2
14:43:55:350429,-3,8,25,-8,3,1,0,1
14:43:55:357944,-3,8,25,-8,3,1,0,1
14:43:55:373603,-2,-5,-9,3,-1,-4,1,-1
14:43:55:374379,1,0,-6,-16,-5,-6,-8,-1
14:43:55:381100,1,0,-6,-16,-5,-6,-8,-1
14:43:55:381928,1,-3,9,-18,6,0,-2,0
14:43:55:395410,0,0,-21,10,1,-1,-6,-2
14:43:55:403575,0,0,-21,10,1,-1,-6,-2
14:43:55:404352,1,2,19,19,13,4,-6,0
14:43:55:410414,2,2,9,-4,-4,0,12,2
14:43:55:417925,2,2,9,-4,-4,0,12,2
14:43:55:425435,1,14,19,26,9,6,8,-1
14:43:55:432947,-2,-7,-29,6,-3,2,-4,0
14:43:55:441104,-2,-7,-29,6,-3,2,-4,0
14:43:55:441895,-4,-5,-13,-15,-6,-5,1,-1
14:43:55:455390,-2,2,18,-4,0,-3,0,-3
14:43:55:463613,-2,2,18,-4,0,-3,0,-3
14:43:55:464397,-2,-6,-19,-4,-5,-1,1,-1
14:43:55:470435,0,3,1,9,-2,-5,-5,-2
14:43:55:477928,0,3,1,9,-2,-5,-5,-2
14:43:55:485399,-2,-6,-50,-9,-4,1,3,-2
14:43:55:492899,1,-3,5,0,-4,-4,-4,-2
14:43:55:501121,1,-3,5,0,-4,-4,-4,-2
14:43:55:501944,-1,-2,6,-28,0,-1,-15,-3
14:43:55:515425,-1,-5,6,13,1,9,12,0
14:43:55:523625,-1,-5,6,13,1,9,12,0
14:43:55:524439,-3,-3,-3,20,-4,-3,0,-1
14:43:55:530393,-3,-8,-17,-20,-2,-1,1,-2
14:43:55:537959,-3,-8,-17,-20,-2,-1,1,-2
14:43:55:545398,1,2,2,10,-2,-1,-2,1
14:43:55:552915,1,4,14,16,1,-2,0,0
14:43:55:561188,1,4,14,16,1,-2,0,0
14:43:55:561927,-1,-2,-4,1,-6,-3,-1,-3
14:43:55:575413,-2,-2,-17,-16,5,3,-2,1
14:43:55:583364,-2,-2,-17,-16,5,3,-2,1
14:43:55:591048,-2,-3,-2,-22,-4,-1,0,0
14:43:55:591871,1,0,-1,5,-7,3,1,0
14:43:55:597993,1,0,-1,5,-7,3,1,0
14:43:55:605383,2,3,25,24,16,1,1,-1
14:43:55:612910,-1,-2,-13,-7,-13,-2,15,-2
14:43:55:621052,-1,-2,-13,-7,-13,-2,15,-2
14:43:55:621857,-2,-5,-19,-35,-1,2,5,-1
14:43:55:635502,-1,-4,-12,1,-7,-11,-10,-2
14:43:55:643638,-1,-4,-12,1,-7,-11,-10,-2
14:43:55:644428,-1,3,18,10,2,4,-3,2
14:43:55:650400,-5,-15,-19,-37,-4,-4,-6,-4
14:43:55:657998,-5,-15,-19,-37,-4,-4,-6,-4
14:43:55:665397,1,-2,5,2,-7,-7,0,-2
14:43:55:681828,4,4,19,22,11,4,-9,2
14:43:55:682602,4,4,19,22,11,4,-9,2
14:43:55:683374,-4,-4,1,6,-3,-4,-5,-1
14:43:55:695393,-1,4,11,3,0,-3,-8,0
14:43:55:703625,-1,4,11,3,0,-3,-8,0
14:43:55:704393,0,-4,-22,-29,-11,-3,-5,-2
14:43:55:710416,-1,4,15,-47,2,-1,8,1
14:43:55:717945,-1,4,15,-47,2,-1,8,1
14:43:55:725372,-2,3,2,11,-10,-7,-6,-2
14:43:55:732928,-1,2,35,3,0,1,-1,1
14:43:55:741064,-1,2,35,3,0,1,-1,1
14:43:55:741854,-6,-6,-12,-5,-2,-1,2,-1
14:43:55:755443,0,-2,11,17,-5,-1,-2,-3
14:43:55:763646,0,-2,11,17,-5,-1,-2,-3
14:43:55:764405,-1,-5,-5,9,10,9,14,2
14:43:55:770411,-6,-7,-9,14,-2,-7,-8,-4
14:43:55:777916,-6,-7,-9,14,-2,-7,-8,-4
14:43:55:785434,3,7,25,40,7,0,3,2
14:43:55:792933,1,2,-17,11,3,1,20,0
14:43:55:801111,1,2,-17,11,3,1,20,0
14:43:55:801872,-2,-5,-8,3,-2,2,4,-2
14:43:55:815436,-3,-6,-8,7,1,-4,-9,-3
14:43:55:823569,-3,-6,-8,7,1,-4,-9,-3
14:43:55:824396,-1,6,-11,-2,-8,5,3,-1
14:43:55:830460,-2,-5,2,0,1,-1,-9,0
14:43:55:837954,-2,-5,2,0,1,-1,-9,0
14:43:55:845378,-3,-1,-21,-12,-2,-3,-7,-1
14:43:55:852881,-1,9,4,-1,2,-2,-14,-2
14:43:55:861200,-1,9,4,-1,2,-2,-14,-2
14:43:55:861937,-2,-1,19,9,0,-1,-5,1
14:43:55:875423,1,2,-6,-2,2,1,0,1
14:43:55:883636,1,2,-6,-2,2,1,0,1
14:43:55:884418,-3,-7,-1,-7,-3,-3,15,-4
14:43:55:890400,-1,-9,-16,7,-3,-1,1,0
14:43:55:897950,-1,-9,-16,7,-3,-1,1,0
14:43:55:905409,2,-2,-7,-4,-3,-6,-10,-3
14:43:55:912928,1,7,-12,-4,7,5,2,0
14:43:55:921125,1,7,-12,-4,7,5,2,0
14:43:55:921939,-1,-4,11,6,0,1,-5,-2
14:43:55:944269,0,6,10,30,-3,-1,-2,-1
14:43:55:945070,0,6,10,30,-3,-1,-2,-1
14:43:55:945836,-1,6,-11,-3,-4,-5,-5,-2
14:43:55:950427,-4,-30,-25,5,0,2,17,-2
14:43:55:957921,-4,-30,-25,5,0,2,17,-2
14:43:55:965439,0,-6,7,-2,-1,-3,1,2
14:43:55:972898,1,9,-3,-9,2,0,4,0
14:43:55:981111,1,9,-3,-9,2,0,4,0
14:43:55:981881,-1,-5,-22,-6,0,-5,-7,-2
14:43:55:995425,0,-2,7,-4,3,7,-1,-3
14:43:56:3626,0,-2,7,-4,3,7,-1,-3
14:43:56:4405,2,7,13,1,-2,-1,-4,4
14:43:56:10359,-1,5,14,0,-8,-7,-8,-1
14:43:56:17975,-1,5,14,0,-8,-7,-8,-1
14:43:56:25388,-2,1,16,10,6,2,7,-3
14:43:56:32921,1,-1,-15,-16,-2,-1,-4,-1
14:43:56:41203,1,-1,-15,-16,-2,-1,-4,-1
14:43:56:41845,-1,-7,-11,-10,-7,-7,-9,-2
14:43:56:55403,-3,-8,-8,0,7,2,2,2
14:43:56:63613,-3,-8,-8,0,7,2,2,2
14:43:56:64433,-3,0,18,3,-2,-4,-6,-4
14:43:56:70385,-3,4,-3,-8,-8,1,2,-3
14:43:56:77917,-3,4,-3,-8,-8,1,2,-3
14:43:56:85397,1,-4,2,-11,5,6,2,0
14:43:56:92906,1,-1,12,16,-4,-5,-3,-3
14:43:56:101082,1,-1,12,16,-4,-5,-3,-3
14:43:56:101853,0,-2,-23,3,1,2,1,-2
14:43:56:115382,-2,5,7,4,1,1,-3,0
14:43:56:123618,-2,5,7,4,1,1,-3,0
14:43:56:124430,0,1,10,2,0,-3,-10,-1
14:43:56:130439,1,5,22,-5,-1,-6,-4,-3
14:43:56:137993,1,5,22,-5,-1,-6,-4,-3
14:43:56:145414,-2,2,-5,-13,-2,3,5,1
14:43:56:152934,-5,-3,-8,-6,-2,-2,-3,0
14:43:56:161147,-5,-3,-8,-6,-2,-2,-3,0
14:43:56:161856,-4,0,12,0,-5,-3,-8,-3
14:43:56:175417,-2,-3,-19,-12,-1,-4,-4,-2
14:43:56:183557,-2,-3,-19,-12,-1,-4,-4,-2
14:43:56:184368,-1,-2,-2,-5,-1,2,6,-3
14:43:56:190445,-8,-10,-37,-6,-6,-4,-12,-6
14:43:56:197998,-8,-10,-37,-6,-6,-4,-12,-6
14:43:56:205423,-3,4,-13,-4,0,0,3,-4
14:43:56:221115,6,0,5,-1,-3,-8,-5,-2
14:43:56:221903,6,0,5,-1,-3,-8,-5,-2
14:43:56:227931,0,-3,0,-2,0,1,5,1
14:43:56:235442,3,1,1,-28,-4,-2,-2,0
14:43:56:243576,3,1,1,-28,-4,-2,-2,0
14:43:56:244414,0,-1,-3,2,-4,-4,-29,-1
14:43:56:258588,-2,5,12,20,4,0,0,-1
14:43:56:259390,-2,5,12,20,4,0,0,-1
14:43:56:265461,-4,-4,-5,-9,-4,0,6,1
14:43:56:272913,-5,-6,-7,-1,1,-3,2,-3
14:43:56:280471,-5,-6,-7,-1,1,-3,2,-3
14:43:56:287916,-2,-4,0,3,2,-1,-8,-4
14:43:56:295398,0,3,16,11,2,0,0,-1
14:43:56:303624,0,3,16,11,2,0,0,-1
14:43:56:304419,-8,-18,-18,-36,-13,-5,5,-2
14:43:56:318640,2,-2,15,-2,-4,0,-5,1
14:43:56:319385,2,-2,15,-2,-4,0,-5,1
14:43:56:325413,1,1,-23,-41,-3,-4,-1,-2
14:43:56:332916,-1,-1,-6,-1,1,-1,0,2
14:43:56:340480,-1,-1,-6,-1,1,-1,0,2
14:43:56:347893,3,4,18,20,2,0,-4,0
14:43:56:355400,-1,-1,4,0,10,3,-1,3
14:43:56:363620,-1,-1,4,0,10,3,-1,3
14:43:56:364431,-2,-2,-20,-26,-11,-6,-1,-1
14:43:56:378581,0,1,18,-3,-1,11,59,3
14:43:56:379443,0,1,18,-3,-1,11,59,3
14:43:56:385381,2,5,16,25,9,0,-10,2
14:43:56:392909,-3,-12,-42,-86,-16,-5,9,-6
14:43:56:400471,-3,-12,-42,-86,-16,-5,9,-6
14:43:56:407890,7,15,48,73,13,10,34,-2
14:43:56:415409,-6,-5,-23,8,0,-4,23,-2
14:43:56:423643,-6,-5,-23,8,0,-4,23,-2
14:43:56:424413,-5,-6,-18,-18,-4,-2,52,0
14:43:56:438628,2,1,7,47,-2,-3,-13,-1
14:43:56:439462,2,1,7,47,-2,-3,-13,-1
14:43:56:445410,5,-2,7,16,-1,-3,-43,7
14:43:56:452911,-12,-13,-30,-70,-19,-8,32,-3
14:43:56:460503,-12,-13,-30,-70,-19,-8,32,-3
14:43:56:467902,0,-1,-3,3,-3,3,-3,0
14:43:56:475435,0,2,3,26,5,-5,-60,-8
14:43:56:483590,0,2,3,26,5,-5,-60,-8
14:43:56:484381,-1,3,15,-8,-3,-4,0,1
14:43:56:498637,4,15,48,31,12,-3,-23,-4
14:43:56:499473,4,15,48,31,12,-3,-23,-4
14:43:56:505368,-3,-2,-4,6,3,0,18,-4
14:43:56:512927,-10,-9,-1,-4,-5,-5,20,-7
14:43:56:528638,-10,-9,-1,-4,-5,-5,20,-7
14:43:56:529415,3,-6,-3,0,-3,13,65,5
14:43:56:535469,3,-2,-7,-18,-8,-2,-9,3
14:43:56:543382,3,-2,-7,-18,-8,-2,-9,3
14:43:56:559295,-6,-6,-17,-3,6,5,31,1
14:43:56:560095,0,5,-1,16,3,4,13,3
14:43:56:560903,0,5,-1,16,3,4,13,3
14:43:56:565399,-1,2,-20,-7,-6,-2,-37,-8
14:43:56:572931,2,-3,-42,8,-5,-5,-19,2
14:43:56:580413,2,-3,-42,8,-5,-5,-19,2
14:43:56:587941,-1,2,1,2,-5,-3,2,3
14:43:56:595428,1,0,-6,23,-6,-5,-24,-5
14:43:56:603580,1,0,-6,23,-6,-5,-24,-5
14:43:56:604383,0,-3,-1,-3,2,-8,-26,-1
14:43:56:618588,2,9,25,8,7,4,-34,0
14:43:56:619405,2,9,25,8,7,4,-34,0
14:43:56:625410,1,0,9,8,22,0,-9,-2
14:43:56:632969,0,-4,1,-12,-1,2,-10,-1
14:43:56:640456,0,-4,1,-12,-1,2,-10,-1
14:43:56:647876,-2,3,6,-8,9,1,-11,-2
14:43:56:655391,0,3,15,-3,2,6,15,4
14:43:56:663627,0,3,15,-3,2,6,15,4
14:43:56:664418,0,0,14,4,-16,-7,-21,0
14:43:56:686773,1,-3,3,-5,4,-2,1,0
14:43:56:687584,1,-3,3,-5,4,-2,1,0
14:43:56:688371,-3,-1,-41,-15,-4,-1,-19,-5
14:43:56:692906,1,7,28,8,-1,3,14,4
14:43:56:700446,1,7,28,8,-1,3,14,4
14:43:56:707887,-2,-4,8,-4,-10,-8,6,0
14:43:56:715408,-1,-2,-10,-3,3,-2,-4,1
14:43:56:723560,-1,-2,-10,-3,3,-2,-4,1
14:43:56:724391,-7,-6,-1,-7,-3,-3,-10,-3
14:43:56:738559,-1,-25,-42,-6,-4,0,-2,-4
14:43:56:739397,-1,-25,-42,-6,-4,0,-2,-4
14:43:56:745330,0,-6,-3,2,-1,3,-5,-1
14:43:56:752884,-4,-2,-4,-10,-2,2,-1,-3
14:43:56:760469,-4,-2,-4,-10,-2,2,-1,-3
14:43:56:767871,0,-3,2,-4,-10,-5,-11,-5
14:43:56:775361,0,-5,-7,-11,-4,2,5,0
14:43:56:783667,0,-5,-7,-11,-4,2,5,0
14:43:56:784407,4,9,22,-1,-4,-1,2,-5
14:43:56:798578,-10,-20,-2,-1,-4,-6,1,-6
14:43:56:799454,-10,-20,-2,-1,-4,-6,1,-6
14:43:56:805350,-12,-35,-10,-18,6,-2,-18,-6
14:43:56:812870,1,-4,3,-2,-22,1,-15,-8
14:43:56:820438,1,-4,3,-2,-22,1,-15,-8
14:43:56:827887,0,9,5,20,10,4,6,0
14:43:56:835461,-1,6,4,4,7,-6,-1,7
14:43:56:843594,-1,6,4,4,7,-6,-1,7
14:43:56:844483,23,41,37,-1,-7,0,0,30
14:43:56:858574,-38,-3,62,17,-1,-3,-14,-81
14:43:56:859398,-38,-3,62,17,-1,-3,-14,-81
14:43:56:865405,-10,13,11,28,-12,-6,-6,-17
14:43:56:872889,-4,9,-68,-82,-17,1,14,25
14:43:56:880457,-4,9,-68,-82,-17,1,14,25
14:43:56:887897,-20,-16,-6,34,4,-1,12,29
14:43:56:895400,2,43,-3,28,15,-2,-13,0
14:43:56:903582,2,43,-3,28,15,-2,-13,0
14:43:56:904382,-7,-11,-6,1,-11,-6,-3,-7
14:43:56:918610,17,26,60,47,12,3,2,12
14:43:56:919444,17,26,60,47,12,3,2,12
14:43:56:925429,23,-34,-43,-6,-9,-1,2,-7
14:43:56:932946,-14,-28,-43,-69,-20,-6,-3,16
14:43:56:940442,-14,-28,-43,-69,-20,-6,-3,16
14:43:56:947965,11,-25,-62,-37,11,5,-5,8
14:43:56:955409,-8,-84,-103,37,-14,-10,-6,7
14:43:56:963600,-8,-84,-103,37,-14,-10,-6,7
14:43:56:964424,-7,21,2,16,34,9,12,8
14:43:56:978562,-23,22,-40,-21,1,4,9,-91
14:43:56:979357,-23,22,-40,-21,1,4,9,-91
14:43:56:985402,-39,-76,-35,-105,-15,-8,-11,-72
14:43:56:992933,20,21,39,18,12,11,2,35
14:43:57:436,20,21,39,18,12,11,2,35
14:43:57:7848,25,19,74,66,16,2,0,8
14:43:57:15420,-4,-2,-37,-49,-9,-15,-5,-30
14:43:57:23612,-4,-2,-37,-49,-9,-15,-5,-30
14:43:57:24411,21,26,-84,-35,-29,-2,3,34
14:43:57:38562,16,5,30,23,14,4,5,17
14:43:57:39415,16,5,30,23,14,4,5,17
14:43:57:45359,-31,-5,1,19,1,-12,-10,-4
14:43:57:52940,23,27,87,4,8,9,-5,29
14:43:57:60474,23,27,87,4,8,9,-5,29
14:43:57:67887,-33,-40,-58,25,2,1,-4,-55
14:43:57:75373,1,-10,6,-14,2,0,1,-35
14:43:57:83707,1,-10,6,-14,2,0,1,-35
14:43:57:84381,45,74,108,-7,-7,-5,-3,25
14:43:57:98557,18,-30,74,42,3,2,5,2
14:43:57:99402,18,-30,74,42,3,2,5,2
14:43:57:105370,-11,68,70,29,-1,2,6,15
14:43:57:112878,-39,-27,-29,59,2,3,59,67
14:43:57:120439,-39,-27,-29,59,2,3,59,67
14:43:57:127852,-23,-4,92,60,6,9,3,6
14:43:57:135440,-14,-78,-41,-7,-13,-2,-25,-11
14:43:57:143603,-14,-78,-41,-7,-13,-2,-25,-11
14:43:57:144426,-50,-36,-67,-41,-4,-5,9,-34
14:43:57:158584,-20,-43,-78,-11,-6,-13,-19,11
14:43:57:159400,-20,-43,-78,-11,-6,-13,-19,11
14:43:57:165382,17,23,91,19,3,-1,0,56
14:43:57:181069,11,74,47,9,4,11,16,-72
14:43:57:181937,11,74,47,9,4,11,16,-72
14:43:57:187866,-63,-113,-105,-16,-19,-20,-30,1
14:43:57:195373,1,-26,-44,-47,-6,2,-14,72
14:43:57:202990,1,-26,-44,-47,-6,2,-14,72
14:43:57:210403,45,-10,93,9,4,7,14,13
14:43:57:218657,-28,-74,-55,-102,-27,-13,-8,-5
14:43:57:219464,-28,-74,-55,-102,-27,-13,-8,-5
14:43:57:225417,34,8,-127,-61,12,21,24,92
14:43:57:241163,-13,29,74,95,23,-7,-15,-15
14:43:57:241924,-13,29,74,95,23,-7,-15,-15
14:43:57:247929,33,-60,-19,-2,-13,-5,9,-9
14:43:57:255392,42,41,51,0,-5,-7,-12,43
14:43:57:262970,42,41,51,0,-5,-7,-12,43
14:43:57:270448,-4,46,-44,13,3,-1,15,-17
14:43:57:278536,32,44,-21,-12,-9,6,4,-61
14:43:57:279384,32,44,-21,-12,-9,6,4,-61
14:43:57:285408,5,-13,54,51,1,-1,-20,-33
14:43:57:301148,107,116,-25,31,11,10,19,54
14:43:57:301956,107,116,-25,31,11,10,19,54
14:43:57:307950,-8,21,-79,-25,-7,-2,-8,-21
14:43:57:315466,6,-29,105,6,9,3,13,75
14:43:57:322935,6,-29,105,6,9,3,13,75
14:43:57:330435,-3,0,63,5,-4,-11,-22,12
14:43:57:338563,-49,-16,72,56,8,1,-1,-16
14:43:57:339402,-49,-16,72,56,8,1,-1,-16
14:43:57:345378,-34,-59,-66,-14,-7,-2,-28,-5
14:43:57:361083,-18,18,-77,33,6,7,13,24
14:43:57:361992,-18,18,-77,33,6,7,13,24
14:43:57:367974,71,95,96,46,14,16,14,-12
14:43:57:375442,-20,-77,37,5,-6,-10,-16,-53
14:43:57:382936,-20,-77,37,5,-6,-10,-16,-53
14:43:57:390389,-19,-2,-3,-15,-6,-4,-2,-8
14:43:57:398620,46,79,11,-25,-7,3,11,86
14:43:57:399443,46,79,11,-25,-7,3,11,86
14:43:57:405374,14,30,57,-1,1,-7,5,6
14:43:57:421127,-6,9,43,-37,-4,-1,-3,-40
14:43:57:421964,-6,9,43,-37,-4,-1,-3,-40
14:43:57:427865,13,-31,0,-3,-9,-6,-24,-124
14:43:57:435394,10,-17,-31,12,0,-2,4,4
14:43:57:442970,10,-17,-31,12,0,-2,4,4
14:43:57:450423,-32,12,30,1,5,1,0,22
14:43:57:458592,-16,65,-55,-20,-3,-9,-7,4
14:43:57:459447,-16,65,-55,-20,-3,-9,-7,4
14:43:57:465383,-84,-86,-80,-51,-10,-4,-3,-81
14:43:57:481124,26,15,19,62,24,24,3,14
14:43:57:481913,26,15,19,62,24,24,3,14
14:43:57:487921,7,53,-15,21,-4,-13,-12,8
14:43:57:495392,4,-8,-72,1,10,0,-9,-92
14:43:57:502972,4,-8,-72,1,10,0,-9,-92
14:43:57:510433,25,53,-65,-56,-15,1,19,37
14:43:57:518556,-9,17,75,-11,-9,-4,-4,110
14:43:57:519385,-9,17,75,-11,-9,-4,-4,110
14:43:57:525429,13,55,73,32,16,-2,7,4
14:43:57:541126,-12,-30,-92,-34,-17,-6,9,58
14:43:57:541945,-12,-30,-92,-34,-17,-6,9,58
14:43:57:547915,-25,-97,-29,-51,-20,-14,7,32
14:43:57:555416,-37,-28,44,3,2,5,-6,-23
14:43:57:563005,-37,-28,44,3,2,5,-6,-23
14:43:57:570457,44,28,78,35,37,29,27,79
14:43:57:578572,17,-11,16,-36,-9,-6,-5,-40
14:43:57:579385,17,-11,16,-36,-9,-6,-5,-40
14:43:57:585455,35,9,100,19,-2,-7,-12,22
14:43:57:601050,0,-22,-27,4,1,0,-9,4
14:43:57:601909,0,-22,-27,4,1,0,-9,4
14:43:57:607903,1,70,-7,3,21,23,39,72
14:43:57:615464,8,26,36,11,0,-10,24,11
14:43:57:622932,8,26,36,11,0,-10,24,11
14:43:57:630419,12,-52,-71,13,4,-2,-8,-33
14:43:57:638606,-10,9,-22,-7,-1,3,-6,-15
14:43:57:639409,-10,9,-22,-7,-1,3,-6,-15
14:43:57:645357,5,10,-88,-92,-21,-27,-17,-11
14:43:57:661082,9,10,66,46,17,9,-8,-27
14:43:57:661915,9,10,66,46,17,9,-8,-27
14:43:57:667922,3,-99,-68,3,-8,-3,-10,-18
14:43:57:675455,-41,-68,-5,-13,-11,-21,-17,-66
14:43:57:682968,-41,-68,-5,-13,-11,-21,-17,-66
14:43:57:690364,-51,22,-27,22,2,11,-6,-34
14:43:57:698627,18,9,48,-38,-28,-14,3,73
14:43:57:699436,18,9,48,-38,-28,-14,3,73
14:43:57:705398,8,106,62,7,8,21,3,-8
14:43:57:721086,-20,17,-53,-27,5,4,-4,31
14:43:57:721911,-20,17,-53,-27,5,4,-4,31
14:43:57:727876,-43,-8,92,18,-14,-9,10,-84
14:43:57:735402,18,33,-27,-7,-7,-3,7,51
14:43:57:742956,18,33,-27,-7,-7,-3,7,51
14:43:57:750401,-35,-87,12,38,-2,-14,-32,20
14:43:57:758589,56,78,112,14,7,5,-6,-30
14:43:57:759457,56,78,112,14,7,5,-6,-30
14:43:57:765427,6,-8,-44,-6,4,3,-4,9
14:43:57:781080,-49,-83,-33,-10,-5,9,-4,-56
14:43:57:781907,-49,-83,-33,-10,-5,9,-4,-56
14:43:57:787909,-60,15,33,26,3,-15,-24,-54
14:43:57:795398,1,43,49,21,5,4,7,30
14:43:57:802982,1,43,49,21,5,4,7,30
14:43:57:810378,55,70,56,20,5,6,-5,-66
14:43:57:818558,-34,-26,6,-4,3,-3,-8,6
14:43:57:819407,-34,-26,6,-4,3,-3,-8,6
14:43:57:825455,117,19,3,0,-2,5,11,45
14:43:57:841126,-8,-64,-33,-21,-11,-10,-9,-8
14:43:57:841936,-8,-64,-33,-21,-11,-10,-9,-8
14:43:57:847945,-11,-19,62,7,-9,7,22,31
14:43:57:855395,2,-34,-26,-32,-8,1,-3,-9
14:43:57:863043,2,-34,-26,-32,-8,1,-3,-9
14:43:57:870433,-1,15,47,-4,7,-7,-4,28
14:43:57:878570,19,99,41,5,7,-13,-18,-31
14:43:57:879399,19,99,41,5,7,-13,-18,-31
14:43:57:885483,7,-2,46,-7,-17,-8,-9,-38
14:43:57:901064,-22,-13,-14,50,17,12,0,-25
14:43:57:901889,-22,-13,-14,50,17,12,0,-25
14:43:57:907878,-6,-17,-95,-33,-9,-8,-6,35
14:43:57:915412,-25,-60,-99,-27,-8,-9,-8,-10
14:43:57:922918,-25,-60,-99,-27,-8,-9,-8,-10
14:43:57:930400,-20,3,-33,-50,3,4,1,82
14:43:57:938574,-24,-26,-85,-72,0,-6,-1,-11
14:43:57:939375,-24,-26,-85,-72,0,-6,-1,-11
14:43:57:945372,-13,25,-69,-2,7,-5,-2,-25
14:43:57:961077,18,4,78,1,3,6,1,-38
14:43:57:961881,18,4,78,1,3,6,1,-38
14:43:57:967862,-4,-28,31,13,5,5,7,-24
14:43:57:975407,2,38,37,55,2,-2,3,-47
14:43:57:982947,2,38,37,55,2,-2,3,-47
14:43:57:990383,-19,-17,-68,-11,-6,2,0,62
14:43:57:998638,-10,5,-33,0,3,3,-1,-17
14:43:57:999447,-10,5,-33,0,3,3,-1,-17
14:43:58:5380,-24,-35,7,15,-6,-5,-13,0
14:43:58:21139,-31,-45,-55,-14,-11,-5,5,-85
14:43:58:21943,-31,-45,-55,-14,-11,-5,5,-85
14:43:58:27874,-8,-15,0,33,12,1,12,73
14:43:58:35379,44,18,9,18,11,1,-5,-39
14:43:58:42949,44,18,9,18,11,1,-5,-39
14:43:58:50404,-9,-60,-31,-65,-18,2,2,-17
14:43:58:58560,18,-19,-71,-85,-33,-17,5,42
14:43:58:59426,18,-19,-71,-85,-33,-17,5,42
14:43:58:65434,19,73,78,10,11,5,-8,7
14:43:58:81095,23,57,84,48,1,-1,11,55
14:43:58:81940,23,57,84,48,1,-1,11,55
14:43:58:87904,-4,-110,-99,-37,-7,-5,7,5
14:43:58:103575,-4,-110,-99,-37,-7,-5,7,5
14:43:58:104409,-21,11,27,28,15,0,-1,50
14:43:58:110403,0,-17,-63,21,1,-6,-3,-27
14:43:58:118592,0,-17,-63,21,1,-6,-3,-27
14:43:58:119436,34,-3,53,-29,-5,-3,16,61
14:43:58:132927,10,18,39,-19,-14,-4,1,-3
14:43:58:141106,10,18,39,-19,-14,-4,1,-3
14:43:58:141939,-28,-11,-42,-27,-6,10,-10,-6
14:43:58:147864,48,51,8,15,6,6,10,-7
14:43:58:163609,48,51,8,15,6,6,10,-7
14:43:58:164417,-7,9,-24,-28,-2,-4,2,30
14:43:58:170392,44,-6,63,-6,-24,-30,0,79
14:43:58:178577,44,-6,63,-6,-24,-30,0,79
14:43:58:179386,18,-47,-106,0,-10,9,-6,-5
14:43:58:192956,-15,-39,-81,-54,-5,9,7,21
14:43:58:201146,-15,-39,-81,-54,-5,9,7,21
14:43:58:201926,-35,14,87,37,-5,-17,-25,-75
14:43:58:207844,-44,21,12,17,0,12,-11,-47
14:43:58:223631,-44,21,12,17,0,12,-11,-47
14:43:58:224405,-45,-43,-75,-14,14,2,10,80
14:43:58:230437,-9,26,17,2,-9,-18,-42,-51
14:43:58:238635,-9,26,17,2,-9,-18,-42,-51
14:43:58:239466,19,-2,10,68,16,0,4,34
14:43:58:252945,-5,-20,62,9,4,-1,-10,-65
14:43:58:261153,-5,-20,62,9,4,-1,-10,-65
14:43:58:261913,-6,-13,-51,-44,-11,-14,-3,-30
14:43:58:267913,10,69,37,6,0,-2,2,-2
14:43:58:283584,10,69,37,6,0,-2,2,-2
14:43:58:284415,22,-37,34,3,9,15,0,54
14:43:58:290413,1,-22,-33,-13,-2,2,8,18
14:43:58:298581,1,-22,-33,-13,-2,2,8,18
14:43:58:299370,-27,36,79,29,-3,0,2,-54
14:43:58:312968,-10,16,-2,17,3,1,2,-18
14:43:58:321112,-10,16,-2,17,3,1,2,-18
14:43:58:321902,20,13,25,9,-7,-9,6,21
14:43:58:327851,12,33,20,35,11,1,5,89
14:43:58:343565,12,33,20,35,11,1,5,89
14:43:58:344373,-38,3,-19,-12,-8,7,-4,-64
14:43:58:350407,11,-6,-112,-68,-18,-17,4,51
14:43:58:366182,11,-6,-112,-68,-18,-17,4,51
14:43:58:366947,32,11,20,19,9,4,-12,-30
14:43:58:372918,8,70,37,15,13,10,5,-3
14:43:58:381070,8,70,37,15,13,10,5,-3
14:43:58:381878,-18,-8,-45,-18,-15,3,2,-47
14:43:58:387941,28,0,35,6,13,-6,10,60
14:43:58:403628,28,0,35,6,13,-6,10,60
14:43:58:404398,-18,-22,27,-19,-1,6,-6,27
14:43:58:410405,-14,-32,60,12,-13,-3,-8,-1
14:43:58:418564,-14,-32,60,12,-13,-3,-8,-1
14:43:58:419433,0,4,-48,6,7,-7,-2,-38
14:43:58:432888,-23,-54,-11,-8,-12,-1,-3,-88
14:43:58:441158,-23,-54,-11,-8,-12,-1,-3,-88
14:43:58:441915,22,48,64,13,8,4,6,17
14:43:58:447939,-17,33,-34,-25,-3,4,3,-7
14:43:58:463693,-17,33,-34,-25,-3,4,3,-7
14:43:58:464400,-17,9,-10,19,2,4,-7,-42
14:43:58:470417,16,-21,-10,-11,8,1,5,37
14:43:58:478616,16,-21,-10,-11,8,1,5,37
14:43:58:479413,12,10,10,-7,-5,-12,9,90
14:43:58:492870,-18,-23,8,29,10,10,0,-14
14:43:58:501177,-18,-23,8,29,10,10,0,-14
14:43:58:501897,-22,-15,25,14,4,-4,-3,6
14:43:58:507889,-33,3,-68,-7,-3,-9,-18,-35
14:43:58:523599,-33,3,-68,-7,-3,-9,-18,-35
14:43:58:524426,-19,8,-23,0,-11,-17,-24,-71
14:43:58:530398,33,-2,45,0,11,11,6,41
14:43:58:538647,33,-2,45,0,11,11,6,41
14:43:58:539421,-9,-34,-2,-14,7,0,-7,-1
14:43:58:552890,-8,-4,-17,-5,4,4,-3,-29
14:43:58:561094,-8,-4,-17,-5,4,4,-3,-29
14:43:58:561964,40,-6,22,11,-2,4,3,-18
14:43:58:567919,13,15,19,-24,-15,-9,3,15
14:43:58:583617,13,15,19,-24,-15,-9,3,15
14:43:58:584444,-3,-19,-106,-27,-19,0,0,73
14:43:58:590349,-46,39,31,48,9,-2,-11,-86
14:43:58:598672,-46,39,31,48,9,-2,-11,-86
14:43:58:599460,10,-37,-28,-23,3,-3,-7,1
14:43:58:613353,-14,-18,-112,-7,-16,-5,9,9
14:43:58:621115,-14,-18,-112,-7,-16,-5,9,9
14:43:58:621928,-8,8,33,5,-10,6,12,47
14:43:58:627855,13,-7,42,9,-14,-10,-23,-65
14:43:58:643638,13,-7,42,9,-14,-10,-23,-65
14:43:58:644380,11,15,17,6,12,6,-1,-40
14:43:58:650402,15,-20,4,1,-3,-1,9,38
14:43:58:658621,15,-20,4,1,-3,-1,9,38
14:43:58:659454,11,45,120,37,5,-4,12,1
14:43:58:672951,45,4,16,9,9,-1,-23,-74
14:43:58:681093,45,4,16,9,9,-1,-23,-74
14:43:58:681895,-6,55,8,8,-15,-7,10,55
14:43:58:687897,-36,-8,51,13,6,4,7,-2
14:43:58:703540,-36,-8,51,13,6,4,7,-2
14:43:58:704376,-51,-6,4,-41,-19,-19,-29,-74
14:43:58:710416,15,20,2,4,15,18,10,2
14:43:58:718608,15,20,2,4,15,18,10,2
14:43:58:719394,-4,-63,-40,-12,5,-2,13,-20
14:43:58:732975,2,5,23,-17,-6,-3,-2,-7
14:43:58:741097,2,5,23,-17,-6,-3,-2,-7
14:43:58:741910,6,23,1,-16,-2,-4,-9,-57
14:43:58:747935,-27,-25,72,20,0,-12,-1,8
14:43:58:763590,-27,-25,72,20,0,-12,-1,8
14:43:58:764379,30,14,19,18,2,18,18,15
14:43:58:770409,11,-7,80,2,3,8,1,35
14:43:58:778574,11,-7,80,2,3,8,1,35
14:43:58:779381,-13,-57,-52,-5,-1,-9,-16,16
14:43:58:792915,-64,-33,-16,18,5,4,-5,-72
14:43:58:801099,-64,-33,-16,18,5,4,-5,-72
14:43:58:801911,0,-1,23,32,15,6,5,39
14:43:58:807921,-6,13,-50,-14,-14,-12,-12,23
14:43:58:823588,-6,13,-50,-14,-14,-12,-12,23
14:43:58:824392,-15,4,43,-12,0,4,1,-9
14:43:58:830424,25,-37,-15,-1,6,7,9,19
14:43:58:838587,25,-37,-15,-1,6,7,9,19
14:43:58:839394,40,8,-66,-24,-14,0,7,88
14:43:58:852885,-10,72,4,-10,-10,-4,-2,-65
14:43:58:861079,-10,72,4,-10,-10,-4,-2,-65
14:43:58:861840,25,34,91,39,7,5,5,47
14:43:58:867897,23,16,-55,-22,-13,-9,6,43
14:43:58:883685,23,16,-55,-22,-13,-9,6,43
14:43:58:884434,48,37,20,-7,-16,4,8,39
14:43:58:890400,-20,-62,-29,-2,8,2,-12,3
14:43:58:898561,-20,-62,-29,-2,8,2,-12,3
14:43:58:899375,-6,4,9,5,24,7,6,-3
14:43:58:912920,-72,-85,-47,-31,-14,-8,-11,-28
14:43:58:921107,-72,-85,-47,-31,-14,-8,-11,-28
14:43:58:921909,-44,-44,-44,16,9,-2,-11,-42
14:43:58:927894,19,56,-26,21,5,2,11,4
14:43:58:943675,19,56,-26,21,5,2,11,4
14:43:58:944437,26,11,2,-5,6,2,19,105
14:43:58:950402,24,1,37,-31,-18,-23,-20,60
14:43:58:958618,24,1,37,-31,-18,-23,-20,60
14:43:58:959410,14,11,3,-15,-17,-2,-8,1
14:43:58:972877,-8,-70,-51,-7,-1,-10,-4,25
14:43:58:981106,-8,-70,-51,-7,-1,-10,-4,25
14:43:58:981967,7,-7,-44,-4,7,5,8,46
14:43:58:987930,52,51,8,3,6,1,10,66
14:43:59:3598,52,51,8,3,6,1,10,66
14:43:59:4395,-14,13,14,-11,-9,-11,-10,-44
14:43:59:10419,13,25,-14,22,12,3,19,-31
14:43:59:18644,13,25,-14,22,12,3,19,-31
14:43:59:19460,5,38,47,7,4,4,-1,-92
14:43:59:32903,-20,-32,27,2,-3,-2,2,-5
14:43:59:41155,-20,-32,27,2,-3,-2,2,-5
14:43:59:41944,-44,-32,-13,-2,-7,-4,-16,-86
14:43:59:47907,1,7,-24,17,10,21,6,7
14:43:59:63618,1,7,-24,17,10,21,6,7
14:43:59:64405,47,15,21,12,9,-2,9,71
14:43:59:70377,27,72,-5,12,1,-7,-8,-47
14:43:59:77926,27,72,-5,12,1,-7,-8,-47
14:43:59:85408,-17,-60,-18,-5,-11,-10,-23,-75
14:43:59:92892,-22,-3,77,14,20,22,1,-14
14:43:59:101118,-22,-3,77,14,20,22,1,-14
14:43:59:101936,-17,-30,-86,-25,-21,-26,-32,-54
14:43:59:115399,20,-20,-27,-13,-9,-12,6,57
14:43:59:123588,20,-20,-27,-13,-9,-12,6,57
14:43:59:124394,-50,-5,13,15,2,-7,-10,-67
14:43:59:130451,-38,-23,-26,-22,12,17,3,21
14:43:59:138009,-38,-23,-26,-22,12,17,3,21
14:43:59:145439,-2,-25,-66,-12,-24,-6,-4,25
14:43:59:152921,9,18,33,-2,-14,-2,2,-65
14:43:59:161103,9,18,33,-2,-14,-2,2,-65
14:43:59:161884,-10,10,25,5,15,3,6,-39
14:43:59:175422,59,1,-86,6,-7,-8,-12,33
14:43:59:183642,59,1,-86,6,-7,-8,-12,33
14:43:59:184469,13,2,4,-19,-16,-2,6,70
14:43:59:190401,-42,48,34,-14,-10,-3,-1,-12
14:43:59:197920,-42,48,34,-14,-10,-3,-1,-12
14:43:59:205374,22,25,-2,14,14,12,15,39
14:43:59:212895,-4,5,62,0,-21,-5,-3,-35
14:43:59:221074,-4,5,62,0,-21,-5,-3,-35
14:43:59:221900,-8,-18,40,19,11,22,20,-16
14:43:59:235452,-11,-18,27,15,12,-6,-14,0
14:43:59:243561,-11,-18,27,15,12,-6,-14,0
14:43:59:244370,37,-25,14,-8,2,-2,6,95
14:43:59:250441,-6,-69,30,-9,-18,-15,-19,-25
14:43:59:257902,-6,-69,30,-9,-18,-15,-19,-25
14:43:59:265395,1,-21,9,5,4,5,4,56
14:43:59:272816,-11,-54,-56,-11,-2,-8,-6,40
14:43:59:281101,-11,-54,-56,-11,-2,-8,-6,40
14:43:59:281917,-55,-15,-67,-6,2,-7,-8,-54
14:43:59:295397,-36,58,23,4,2,9,13,33
14:43:59:303596,-36,58,23,4,2,9,13,33
14:43:59:304389,-2,5,21,-1,6,6,2,18
14:43:59:310369,23,61,6,36,22,1,-5,33
14:43:59:317935,23,61,6,36,22,1,-5,33
14:43:59:325391,-8,27,25,4,-5,-5,-4,36
14:43:59:332908,16,-43,32,-6,-11,-5,13,76
14:43:59:341141,16,-43,32,-6,-11,-5,13,76
14:43:59:341922,20,-23,44,-2,-5,-4,-6,18
14:43:59:355354,-4,-41,-88,-13,-2,11,7,70
14:43:59:363625,-4,-41,-88,-13,-2,11,7,70
14:43:59:364401,27,81,42,1,24,0,-6,-3
14:43:59:370387,-20,-15,-38,-17,-12,-9,8,-2
14:43:59:377943,-20,-15,-38,-17,-12,-9,8,-2
14:43:59:385416,-13,-35,-19,-10,2,-5,-6,10
14:43:59:392845,26,46,23,-11,10,8,14,52
14:43:59:400887,26,46,23,-11,10,8,14,52
14:43:59:407887,23,56,32,0,-13,-6,21,53
14:43:59:415465,28,-29,-69,-46,-17,-3,-14,-67
14:43:59:423577,28,-29,-69,-46,-17,-3,-14,-67
14:43:59:424396,0,-1,-28,-7,-8,-9,-19,-60
14:43:59:430400,-17,-17,47,20,21,20,6,-95
14:43:59:438025,-17,-17,47,20,21,20,6,-95
14:43:59:445374,-55,-38,50,13,-2,7,0,-68
14:43:59:452913,1,2,-4,20,6,1,0,45
14:43:59:461134,1,2,-4,20,6,1,0,45
14:43:59:461991,-12,32,-41,-1,-9,-5,-12,-83
14:43:59:475437,-65,-2,-19,1,6,-9,-2,18
14:43:59:483659,-65,-2,-19,1,6,-9,-2,18
14:43:59:484487,12,1,-19,-10,-14,2,-7,-27
14:43:59:490387,2,-15,-18,-8,7,-5,-28,-73
14:43:59:497977,2,-15,-18,-8,7,-5,-28,-73
14:43:59:505373,-3,-6,7,-6,-6,0,-10,-36
14:43:59:512911,13,10,-22,-9,-27,-1,4,-7
14:43:59:521122,13,10,-22,-9,-27,-1,4,-7
14:43:59:521916,3,-37,-55,-18,-12,5,9,-11
14:43:59:535425,39,0,24,7,-5,-5,1,31
14:43:59:543602,39,0,24,7,-5,-5,1,31
14:43:59:544385,-7,88,3,0,4,-3,-7,-42
14:43:59:550407,36,61,74,16,2,17,18,31
14:43:59:557963,36,61,74,16,2,17,18,31
14:43:59:565391,35,-26,60,2,0,1,-2,71
14:43:59:572914,-11,12,57,20,28,-6,-27,-123
14:43:59:581159,-11,12,57,20,28,-6,-27,-123
14:43:59:581969,-8,9,1,8,13,4,8,48
14:43:59:595410,6,-5,-25,-18,0,-16,19,49
14:43:59:603598,6,-5,-25,-18,0,-16,19,49
14:43:59:604413,-30,-43,-59,-12,18,4,-14,-77
14:43:59:610401,16,64,64,11,3,-1,12,43
14:43:59:618002,16,64,64,11,3,-1,12,43
14:43:59:625430,-22,-51,17,0,-10,-1,3,118
14:43:59:632924,-14,8,28,7,-2,-1,7,20
14:43:59:641131,-14,8,28,7,-2,-1,7,20
14:43:59:641882,-15,-62,12,-1,-5,2,18,118
14:43:59:655378,-29,-22,-30,-4,-19,-5,-3,52
14:43:59:663629,-29,-22,-30,-4,-19,-5,-3,52
14:43:59:664450,-10,50,-47,-3,1,-3,-9,-113
14:43:59:670468,7,-18,-27,-5,1,5,-3,-31
14:43:59:677894,7,-18,-27,-5,1,5,-3,-31
14:43:59:685424,13,15,-5,1,-4,-16,0,87
14:43:59:692959,-22,-15,-83,-1,21,8,-6,-14
14:43:59:701142,-22,-15,-83,-1,21,8,-6,-14
14:43:59:701939,15,-29,18,14,16,8,15,50
14:43:59:715472,-22,-6,45,11,1,-8,-18,-20
14:43:59:723592,-22,-6,45,11,1,-8,-18,-20
14:43:59:724390,29,60,45,-4,-9,4,6,11
14:43:59:730417,-19,-26,7,-13,-11,-6,-10,-91
14:43:59:737996,-19,-26,7,-13,-11,-6,-10,-91
14:43:59:745327,-4,10,23,6,-8,-13,-15,-67
14:43:59:752861,14,-41,-43,-14,-13,-6,14,65
14:43:59:761116,14,-41,-43,-14,-13,-6,14,65
14:43:59:761914,-15,12,36,2,12,-2,1,19
14:43:59:775408,12,-14,-71,-19,-12,5,6,29
14:43:59:783619,12,-14,-71,-19,-12,5,6,29
14:43:59:784413,29,21,-7,4,-2,0,-5,-58
14:43:59:790356,32,10,36,-7,-3,-8,8,15
14:43:59:797953,32,10,36,-7,-3,-8,8,15
14:43:59:805363,-7,23,6,2,-13,-3,-2,-61
14:43:59:812906,-51,-33,-13,0,-17,-12,-14,-14
14:43:59:821103,-51,-33,-13,0,-17,-12,-14,-14
14:43:59:821900,33,2,-61,-5,9,20,11,37
14:43:59:835395,18,34,24,6,-9,17,24,84
14:43:59:843585,18,34,24,6,-9,17,24,84
14:43:59:844381,-33,-84,-39,-14,-5,-27,-26,-65
14:43:59:850397,21,23,52,13,14,7,-2,52
14:43:59:857974,21,23,52,13,14,7,-2,52
14:43:59:865421,-11,-33,-20,-5,5,4,5,83
14:43:59:872872,-21,-25,-2,6,6,-7,-7,9
14:43:59:881140,-21,-25,-2,6,6,-7,-7,9
14:43:59:881917,-19,13,-31,-4,-7,-1,-5,4
14:43:59:895395,37,10,31,10,-1,-9,1,9
14:43:59:903618,37,10,31,10,-1,-9,1,9
14:43:59:904381,40,11,-15,-9,2,9,8,33
14:43:59:910402,-32,-44,-43,-21,1,-6,-17,-71
14:43:59:917991,-32,-44,-43,-21,1,-6,-17,-71
14:43:59:925417,-19,-12,75,4,-20,-2,8,23
14:43:59:932950,0,3,-47,-17,-9,-12,-28,-112
14:43:59:941122,0,3,-47,-17,-9,-12,-28,-112
14:43:59:941882,-1,-2,-28,-10,-5,-17,-6,69
14:43:59:955344,9,14,56,9,7,17,12,-37
14:43:59:963621,9,14,56,9,7,17,12,-37
14:43:59:964403,31,-4,14,10,6,13,10,5
14:43:59:970455,-13,-20,-3,8,21,-2,6,-44
14:43:59:977875,-13,-20,-3,8,21,-2,6,-44
14:43:59:985423,-4,17,-80,-35,-19,-17,-9,-11
14:43:59:992966,-8,9,-41,-1,-17,-15,-18,-79
14:44:00:467,-8,9,-41,-1,-17,-15,-18,-79
14:44:00:7845,-4,-21,0,12,24,11,0,-16
14:44:00:15418,-1,-35,-27,-10,-11,4,16,63
14:44:00:31115,-1,-35,-27,-10,-11,4,16,63
14:44:00:31885,-7,-43,49,24,4,-5,-4,8
14:44:00:38629,-9,-3,28,-2,-8,-11,-4,28
14:44:00:39426,-9,-3,28,-2,-8,-11,-4,28
14:44:00:45359,-13,-14,-14,-40,-20,1,-14,-36
14:44:00:52903,40,48,-8,-1,-11,3,13,64
14:44:00:60459,40,48,-8,-1,-11,3,13,64
14:44:00:67903,14,18,-2,-1,5,-2,6,5
14:44:00:75402,30,1,4,-1,30,22,-5,-13
14:44:00:83579,30,1,4,-1,30,22,-5,-13
14:44:00:84398,20,57,30,35,8,0,11,59
14:44:00:98597,-38,-25,-22,1,0,-7,-30,-42
14:44:00:99421,-38,-25,-22,1,0,-7,-30,-42
14:44:00:105381,23,38,27,12,0,3,9,58
14:44:00:112913,5,-51,3,-2,-16,-12,-2,28
14:44:00:120472,5,-51,3,-2,-16,-12,-2,28
14:44:00:127869,-4,-48,-97,-30,-12,-9,-29,-53
14:44:00:135460,-12,42,38,8,6,10,6,22
14:44:00:143652,-12,42,38,8,6,10,6,22
14:44:00:144456,-8,9,31,5,-7,6,11,-36
14:44:00:158654,-4,20,-10,3,2,12,12,-98
14:44:00:159458,-4,20,-10,3,2,12,12,-98
14:44:00:165397,-46,20,-5,-1,-6,3,-17,-97
14:44:00:172904,-3,3,-16,10,-1,-6,21,80
14:44:00:180503,-3,3,-16,10,-1,-6,21,80
14:44:00:187976,-47,-37,-51,-10,-13,-4,-10,-62
14:44:00:195407,-38,-67,-28,-4,8,-11,-14,-62
14:44:00:203575,-38,-67,-28,-4,8,-11,-14,-62
14:44:00:204393,-15,-23,66,3,5,-3,1,30
14:44:00:218574,12,68,67,1,-15,4,0,79
14:44:00:219398,12,68,67,1,-15,4,0,79
14:44:00:225407,-43,-34,62,-2,-5,-14,-11,-29
14:44:00:232994,19,26,44,4,-1,-1,6,33
14:44:00:240422,19,26,44,4,-1,-1,6,33
14:44:00:247926,-31,13,49,11,13,-7,-13,-43
14:44:00:255419,-9,-12,-32,-8,0,7,-6,18
14:44:00:263609,-9,-12,-32,-8,0,7,-6,18
14:44:00:264415,11,12,21,7,0,-2,12,4
14:44:00:278538,-8,4,20,4,-14,-9,-2,-4
14:44:00:279361,-8,4,20,4,-14,-9,-2,-4
14:44:00:285427,23,-12,30,-2,2,17,-1,-7
14:44:00:292941,11,41,-2,2,0,-2,-8,-47
14:44:00:300461,11,41,-2,2,0,-2,-8,-47
14:44:00:307890,12,4,-60,-5,1,-4,6,43
14:44:00:315345,16,-30,-28,-5,14,-4,-8,-45
14:44:00:323603,16,-30,-28,-5,14,-4,-8,-45
14:44:00:324386,23,-12,-14,5,1,9,22,51
14:44:00:338596,-7,38,49,-2,-2,-9,-11,-26
14:44:00:339401,-7,38,49,-2,-2,-9,-11,-26
14:44:00:345317,44,38,32,22,7,7,9,59
14:44:00:352845,0,-20,-25,-9,3,5,-12,-56
14:44:00:360474,0,-20,-25,-9,3,5,-12,-56
14:44:00:367884,-26,61,17,2,-11,-21,-12,27
14:44:00:375390,-20,-34,-30,0,8,4,11,39
14:44:00:383619,-20,-34,-30,0,8,4,11,39
14:44:00:384416,-45,-64,-112,-10,11,-4,7,-5
14:44:00:398634,24,44,40,2,-2,-3,16,127
14:44:00:399430,24,44,40,2,-2,-3,16,127
14:44:00:405384,25,-30,-25,-10,-1,3,3,27
14:44:00:412953,-7,-5,3,0,-1,5,1,5
14:44:00:420472,-7,-5,3,0,-1,5,1,5
14:44:00:427880,0,15,13,-2,-3,-12,-1,5
14:44:00:435439,-11,-35,-51,-16,-4,2,14,9
14:44:00:443608,-11,-35,-51,-16,-4,2,14,9
14:44:00:444434,-33,9,14,-4,16,-2,-39,-117
14:44:00:458581,13,19,33,3,-10,2,-1,30
14:44:00:459447,13,19,33,3,-10,2,-1,30
14:44:00:465397,1,33,1,-1,0,5,-3,-67
14:44:00:472896,19,-23,-40,-3,-6,-12,-19,-29
14:44:00:480529,19,-23,-40,-3,-6,-12,-19,-29
14:44:00:488002,44,-31,-5,-6,-12,7,12,87
14:44:00:495478,-24,-7,56,5,-8,-16,-19,-97
14:44:00:503565,-24,-7,56,5,-8,-16,-19,-97
14:44:00:504382,-29,9,12,-1,2,9,-2,12
14:44:00:518592,-14,9,-33,-10,-9,-5,-8,6
14:44:00:519420,-14,9,-33,-10,-9,-5,-8,6
14:44:00:525447,25,-58,38,10,1,1,-2,22
14:44:00:533011,-17,-30,-32,1,13,4,8,62
14:44:00:540428,-17,-30,-32,1,13,4,8,62
14:44:00:547915,15,22,-1,5,3,4,31,62
14:44:00:555418,30,34,14,4,-5,5,13,102
14:44:00:563603,30,34,14,4,-5,5,13,102
14:44:00:564449,15,13,-20,18,23,2,4,5
14:44:00:586895,-12,39,-4,-2,5,3,12,11
14:44:00:587600,-12,39,-4,-2,5,3,12,11
14:44:00:588419,1,-46,13,-18,-35,-20,-13,-9
14:44:00:592921,-24,-22,-52,-3,-2,11,0,18
14:44:00:600434,-24,-22,-52,-3,-2,11,0,18
14:44:00:607929,-18,8,-7,-26,-8,2,-14,-55
14:44:00:616053,-33,-1,23,-2,-6,-23,-12,-55
14:44:00:616917,-33,-1,23,-2,-6,-23,-12,-55
14:44:00:622883,-60,-89,-75,-13,-12,-14,-23,-61
14:44:00:638607,3,-7,-13,-10,-7,-5,-9,6
14:44:00:639409,3,-7,-13,-10,-7,-5,-9,6
14:44:00:645404,56,43,-29,-3,8,2,8,94
14:44:00:652881,0,-48,24,5,-2,3,3,-1
14:44:00:660434,0,-48,24,5,-2,3,3,-1
14:44:00:667900,25,62,19,4,3,18,26,68
14:44:00:676080,9,2,30,6,18,3,-13,-5
14:44:00:676893,9,2,30,6,18,3,-13,-5
14:44:00:682958,-49,-56,-22,-9,-7,-13,-7,-60
14:44:00:698593,5,4,41,-1,-14,9,16,9
14:44:00:699403,5,4,41,-1,-14,9,16,9
14:44:00:705355,24,21,32,19,14,13,1,14
14:44:00:712883,-29,-21,-35,1,-7,-13,4,-22
14:44:00:720462,-29,-21,-35,1,-7,-13,4,-22
14:44:00:727926,12,72,27,13,4,-1,-3,13
14:44:00:736133,29,32,6,1,6,2,-2,85
14:44:00:736985,29,32,6,1,6,2,-2,85
14:44:00:742913,-80,-20,26,-7,-10,-16,-19,-38
14:44:00:758635,-19,5,-47,-10,-7,-1,3,-99
14:44:00:759460,-19,5,-47,-10,-7,-1,3,-99
14:44:00:765415,-29,-100,20,6,14,2,-2,77
14:44:00:772892,10,-19,11,-2,-5,-1,-7,16
14:44:00:780476,10,-19,11,-2,-5,-1,-7,16
14:44:00:787905,28,61,-10,0,-5,-4,0,-46
14:44:00:796086,18,41,-22,0,3,7,4,24
14:44:00:796939,18,41,-22,0,3,7,4,24
14:44:00:802896,-6,-43,19,6,2,4,2,0
14:44:00:818594,17,16,23,3,-6,-8,-22,46
14:44:00:819419,17,16,23,3,-6,-8,-22,46
14:44:00:825420,9,9,-8,1,-7,0,9,-4
14:44:00:832904,11,51,7,13,22,30,19,32
14:44:00:840459,11,51,7,13,22,30,19,32
14:44:00:847916,22,29,-41,-14,-6,-5,-4,1
14:44:00:856078,-13,-43,-24,-10,-5,-14,-3,-30
14:44:00:856908,-13,-43,-24,-10,-5,-14,-3,-30
14:44:00:862951,11,-5,19,3,5,5,7,-50
14:44:00:878650,-52,-29,10,-4,-2,-18,-6,-46
14:44:00:879466,-52,-29,10,-4,-2,-18,-6,-46
14:44:00:885421,32,73,62,3,9,2,12,86
14:44:00:892909,-13,-36,-6,-2,-2,-7,-11,-19
14:44:00:900447,-13,-36,-6,-2,-2,-7,-11,-19
14:44:00:907931,-2,49,-38,-7,-10,-6,-5,20
14:44:00:916049,30,42,40,6,5,9,13,43
14:44:00:916868,30,42,40,6,5,9,13,43
14:44:00:922897,26,20,3,4,-8,-6,23,22
14:44:00:938601,-14,-23,-5,0,-10,-2,1,43
14:44:00:939391,-14,-23,-5,0,-10,-2,1,43
14:44:00:945431,-46,-19,36,2,-12,-5,-31,-50
14:44:00:961166,1,-14,19,-10,-10,-11,-8,-18
14:44:00:961939,1,-14,19,-10,-10,-11,-8,-18
14:44:00:967883,19,18,-2,8,14,15,2,26
14:44:00:976074,22,-10,-23,10,-1,4,-4,-6
14:44:00:976919,22,-10,-23,10,-1,4,-4,-6
14:44:00:990407,12,-12,-15,-5,8,0,6,64
14:44:00:998542,7,-33,-26,-7,-4,-7,-8,-5
14:44:00:999382,7,-33,-26,-7,-4,-7,-8,-5
14:44:01:5363,-38,-3,-7,1,0,4,-1,-13
14:44:01:21109,5,1,-12,-11,-5,10,10,-9
14:44:01:21935,5,1,-12,-11,-5,10,10,-9
14:44:01:27929,15,-2,-7,-3,-4,-10,-1,-3
14:44:01:36100,21,5,44,8,20,0,7,-18
14:44:01:36919,21,5,44,8,20,0,7,-18
14:44:01:50446,8,-3,27,-8,-2,1,2,7
14:44:01:58650,17,6,-21,-12,-10,-12,-8,30
14:44:01:59449,17,6,-21,-12,-10,-12,-8,30
14:44:01:65434,-12,21,3,0,-10,-7,-19,-51
14:44:01:81060,3,-18,-47,-3,1,8,-9,-33
14:44:01:82019,3,-18,-47,-3,1,8,-9,-33
14:44:01:87949,32,41,50,6,-7,-2,-7,-96
14:44:01:96050,-28,-20,23,-2,-4,-13,-14,-48
14:44:01:96909,-28,-20,23,-2,-4,-13,-14,-48
14:44:01:110425,-17,-25,-83,-4,4,-4,-2,-10
14:44:01:118615,4,33,7,6,17,12,22,20
14:44:01:119403,4,33,7,6,17,12,22,20
14:44:01:125411,18,7,-12,-15,-10,-9,0,7
14:44:01:141153,-17,2,-62,-10,-12,1,-6,13
14:44:01:141942,-17,2,-62,-10,-12,1,-6,13
14:44:01:147930,3,8,-11,1,-1,-2,-8,23
14:44:01:156055,26,2,27,-3,-7,3,14,82
14:44:01:156888,26,2,27,-3,-7,3,14,82
14:44:01:170345,-27,-61,-50,-9,-1,-2,-3,52
14:44:01:178619,-43,-26,-1,3,9,4,4,2
14:44:01:179399,-43,-26,-1,3,9,4,4,2
14:44:01:185374,-8,-15,24,3,1,4,4,46
14:44:01:201084,30,23,29,1,-1,-10,-15,-26
14:44:01:201908,30,23,29,1,-1,-10,-15,-26
14:44:01:207882,-13,-69,-37,0,-15,-8,-9,-87
14:44:01:216115,9,-20,-8,-3,-5,3,3,-1
14:44:01:216905,9,-20,-8,-3,-5,3,3,-1
14:44:01:230370,-13,18,17,2,11,-6,5,-33
14:44:01:238589,13,22,-37,3,6,0,-10,-31
14:44:01:239428,13,22,-37,3,6,0,-10,-31
14:44:01:245347,19,-12,-36,-10,-9,1,17,42
14:44:01:261077,-44,-34,66,12,-7,-11,-22,-87
14:44:01:261869,-44,-34,66,12,-7,-11,-22,-87
14:44:01:267881,30,-61,-39,-12,-6,2,6,51
14:44:01:276079,-3,15,-9,-7,-13,-10,18,-27
14:44:01:276888,-3,15,-9,-7,-13,-10,18,-27
14:44:01:290430,-14,36,23,-2,-11,-2,-4,-37
14:44:01:298581,9,2,-1,-4,4,13,-1,42
14:44:01:299388,9,2,-1,-4,4,13,-1,42
14:44:01:305374,-2,-6,8,1,7,-1,8,3
14:44:01:321076,-7,42,26,-1,8,2,5,84
14:44:01:321908,-7,42,26,-1,8,2,5,84
14:44:01:327859,9,50,6,9,6,10,22,52
14:44:01:336104,-22,-23,-9,-2,5,0,-3,16
14:44:01:336898,-22,-23,-9,-2,5,0,-3,16
14:44:01:350424,10,35,46,8,-6,-19,-11,-26
14:44:01:358555,25,4,12,-16,-27,6,4,-11
14:44:01:359374,25,4,12,-16,-27,6,4,-11
14:44:01:365386,-8,-21,-5,-7,20,15,1,-10
14:44:01:381077,-8,-21,-5,-7,20,15,1,-10
14:44:01:381888,-29,7,17,3,-4,-6,-19,-113
14:44:01:387940,6,40,21,-1,-5,-1,-6,40
14:44:01:403569,6,40,21,-1,-5,-1,-6,40
14:44:01:404354,4,1,-41,1,-1,-24,-31,-53
14:44:01:410393,-27,-26,-13,9,28,27,7,-85
14:44:01:418591,-27,-26,-13,9,28,27,7,-85
14:44:01:419406,33,-12,-36,-4,-3,-2,-5,29
14:44:01:425401,-28,-27,26,-3,-11,-24,-25,-34
14:44:01:441110,-28,-27,26,-3,-11,-24,-25,-34
14:44:01:441853,-19,-34,-5,5,15,10,17,-12
14:44:01:447923,10,24,-1,2,3,3,-1,-8
14:44:01:463620,10,24,-1,2,3,3,-1,-8
14:44:01:464411,26,7,11,4,-3,-4,-7,28
14:44:01:470404,21,-2,10,2,-16,-14,3,66
14:44:01:478558,21,-2,10,2,-16,-14,3,66
14:44:01:479340,-28,22,46,14,19,2,3,-43
14:44:01:485412,3,-16,18,-4,-3,-7,-2,56
14:44:01:501159,3,-16,18,-4,-3,-7,-2,56
14:44:01:501947,-2,28,46,9,1,17,18,21
14:44:01:507901,-10,-1,-13,-10,-4,-7,-21,-88
14:44:01:523608,-10,-1,-13,-10,-4,-7,-21,-88
14:44:01:524432,-3,-45,54,0,-7,-24,-1,4
14:44:01:530363,-24,-21,-20,-7,-7,10,-24,-67
14:44:01:538625,-24,-21,-20,-7,-7,10,-24,-67
14:44:01:539384,-4,18,-3,3,5,11,-3,7
14:44:01:545396,-54,-64,-37,2,2,-6,10,53
14:44:01:561139,-54,-64,-37,2,2,-6,10,53
14:44:01:561893,21,19,-11,0,-7,-9,2,39
14:44:01:567893,21,62,60,4,6,8,11,10
14:44:01:583586,21,62,60,4,6,8,11,10
14:44:01:584402,-20,-70,-93,-13,9,13,16,74
14:44:01:590376,39,67,2,-1,-10,-8,14,39
14:44:01:598645,39,67,2,-1,-10,-8,14,39
14:44:01:599437,25,19,-10,-8,-12,0,5,47
14:44:01:605381,-10,-32,-35,4,-2,-3,1,11
14:44:01:621105,-10,-32,-35,4,-2,-3,1,11
14:44:01:621932,38,41,-43,-6,-17,-2,3,39
14:44:01:627832,21,-36,-17,-7,-8,-14,4,64
14:44:01:643590,21,-36,-17,-7,-8,-14,4,64
14:44:01:644391,-6,-15,7,0,20,13,-14,-99
14:44:01:650367,-15,-27,-23,2,-1,0,-2,26
14:44:01:658672,-15,-27,-23,2,-1,0,-2,26
14:44:01:659460,-49,-28,-53,-12,-15,-7,4,-33
14:44:01:665407,8,-4,31,3,1,8,-4,-29
14:44:01:681074,8,-4,31,3,1,8,-4,-29
14:44:01:681900,2,11,54,6,-8,-6,-12,-16
14:44:01:687898,-12,-16,-8,-7,-8,5,-1,3
14:44:01:703603,-12,-16,-8,-7,-8,5,-1,3
14:44:01:704376,-16,-30,-57,-12,13,3,-13,7
14:44:01:710353,23,19,-10,-4,-7,0,-2,65
14:44:01:718615,23,19,-10,-4,-7,0,-2,65
14:44:01:719429,1,18,43,6,7,6,18,16
14:44:01:732956,24,37,17,-13,-5,-6,3,7
14:44:01:741106,24,37,17,-13,-5,-6,3,7
14:44:01:741868,17,38,24,2,-9,1,8,3
14:44:01:747864,2,-9,33,15,10,2,3,-60
14:44:01:763626,2,-9,33,15,10,2,3,-60
14:44:01:764412,40,41,42,-7,4,5,7,28
14:44:01:770442,-25,-65,31,7,-1,3,4,14
14:44:01:778599,-25,-65,31,7,-1,3,4,14
14:44:01:779365,18,5,4,10,4,-3,0,44
14:44:01:785398,41,30,-16,-7,-2,0,4,48
14:44:01:801120,41,30,-16,-7,-2,0,4,48
14:44:01:801904,-5,-33,12,1,-2,-15,-5,7
14:44:01:807938,-4,31,4,3,4,3,2,62
14:44:01:823552,-4,31,4,3,4,3,2,62
14:44:01:824379,19,-3,9,-5,-9,-13,-26,-68
14:44:01:830411,-10,12,-10,3,1,3,-5,-46
14:44:01:838552,-10,12,-10,3,1,3,-5,-46
14:44:01:839365,-30,-14,-19,0,-7,-3,-7,-2
14:44:01:845339,-35,-50,-14,-11,2,-2,-3,-4
14:44:01:861103,-35,-50,-14,-11,2,-2,-3,-4
14:44:01:861921,-2,6,-27,-1,-3,-10,-15,-44
14:44:01:867897,-8,29,8,1,-1,1,-25,-102
14:44:01:875415,-8,29,8,1,-1,1,-25,-102
14:44:01:882904,-14,-27,9,-1,-1,1,2,-13
14:44:01:890391,-51,-35,3,4,-9,-13,-11,-58
14:44:01:898614,-51,-35,3,4,-9,-13,-11,-58
14:44:01:899424,-1,31,26,1,0,7,23,49
14:44:01:912942,6,-20,-37,-8,11,4,-11,-36
14:44:01:921110,6,-20,-37,-8,11,4,-11,-36
14:44:01:921877,-36,2,-8,-5,-5,-7,-15,-80
14:44:01:927867,25,31,-18,4,-2,-7,6,39
14:44:01:935481,25,31,-18,4,-2,-7,6,39
14:44:01:942890,9,-7,-19,-3,0,-9,12,52
14:44:01:950375,22,38,45,-1,-13,9,7,-18
14:44:01:958632,22,38,45,-1,-13,9,7,-18
14:44:01:959403,-24,-66,-45,-9,-8,-4,-4,17
14:44:01:972906,-47,-21,19,-3,3,1,15,50
14:44:01:981130,-47,-21,19,-3,3,1,15,50
14:44:01:981912,9,1,39,2,7,2,-16,-8
14:44:01:987901,19,41,-14,-2,3,-5,-6,10
14:44:02:3637,19,41,-14,-2,3,-5,-6,10
14:44:02:4381,-14,-75,-74,-5,10,8,-4,-33
14:44:02:10385,-14,7,-24,-3,-4,-19,2,-4
14:44:02:18636,-14,7,-24,-3,-4,-19,2,-4
14:44:02:19447,22,41,10,1,-14,2,2,28
14:44:02:32877,-18,-3,-21,-6,-6,-7,-6,-15
14:44:02:41117,-18,-3,-21,-6,-6,-7,-6,-15
14:44:02:41900,2,13,-28,-11,-1,-4,-5,3
14:44:02:47897,6,-21,9,1,-3,-5,-5,-42
14:44:02:55456,6,-21,9,1,-3,-5,-5,-42
14:44:02:62892,-2,70,48,2,-10,-4,-23,-45
14:44:02:70387,21,15,-48,-7,14,11,-7,-21
14:44:02:78605,21,15,-48,-7,14,11,-7,-21
14:44:02:79398,-19,-28,64,11,11,-3,1,-25
14:44:02:92895,-12,-24,-9,-2,3,9,5,-30
14:44:02:101109,-12,-24,-9,-2,3,9,5,-30
14:44:02:101934,-3,49,63,13,3,-4,5,3
14:44:02:107884,-6,1,16,-5,-3,0,-1,-9
14:44:02:115486,-6,1,16,-5,-3,0,-1,-9
14:44:02:122888,0,23,-18,2,7,4,23,40
14:44:02:130379,24,-27,-47,-13,-17,-8,7,102
14:44:02:138591,24,-27,-47,-13,-17,-8,7,102
14:44:02:139359,-16,-40,-35,-10,-11,-1,-7,46
14:44:02:152886,-24,-2,23,6,10,-1,-19,-21
14:44:02:161158,-24,-2,23,6,10,-1,-19,-21
14:44:02:161913,-38,31,-20,2,6,3,-2,-27
14:44:02:167925,-3,17,-24,-4,-3,-3,4,63
14:44:02:175419,-3,17,-24,-4,-3,-3,4,63
14:44:02:182933,46,2,-8,-4,-3,-1,7,52
14:44:02:190404,27,24,-40,4,3,5,-6,-14
14:44:02:198623,27,24,-40,4,3,5,-6,-14
14:44:02:199428,-7,-44,7,-2,-7,-2,-3,-7
14:44:02:212945,-23,17,36,2,-8,-5,-13,5
14:44:02:221107,-23,17,36,2,-8,-5,-13,5
14:44:02:221860,39,13,-4,7,4,7,39,3
14:44:02:227883,13,27,40,-1,6,5,14,26
14:44:02:235454,13,27,40,-1,6,5,14,26
14:44:02:242866,12,4,-1,2,6,-1,18,31
14:44:02:250376,0,-64,-28,-1,12,11,5,-46
14:44:02:258588,0,-64,-28,-1,12,11,5,-46
14:44:02:259402,10,24,-35,-15,0,-7,-5,-19
14:44:02:272883,-17,23,-1,3,-10,-10,-10,-6
14:44:02:281071,-17,23,-1,3,-10,-10,-10,-6
14:44:02:281890,-23,57,-2,2,-3,7,-26,-102
14:44:02:287868,12,-21,-10,-11,-13,0,10,-7
14:44:02:295404,12,-21,-10,-11,-13,0,10,-7
14:44:02:302868,18,-5,-45,-4,-3,7,7,62
14:44:02:310371,-30,-36,22,8,4,-3,0,13
14:44:02:318636,-30,-36,22,8,4,-3,0,13
14:44:02:319399,13,-2,0,3,6,7,-13,85
14:44:02:332949,17,10,-13,3,26,10,2,-27
14:44:02:341149,17,10,-13,3,26,10,2,-27
14:44:02:341942,-34,-24,-31,-4,-6,6,-1,-65
14:44:02:347910,34,35,17,2,-9,-3,-6,-12
14:44:02:355453,34,35,17,2,-9,-3,-6,-12
14:44:02:362884,24,46,16,-10,-8,-17,-11,53
14:44:02:370389,-32,-12,19,10,24,2,-14,-27
14:44:02:378609,-32,-12,19,10,24,2,-14,-27
14:44:02:379400,-73,-51,32,0,-6,-2,-12,-49
14:44:02:392871,41,24,-7,-3,-16,0,30,104
14:44:02:401112,41,24,-7,-3,-16,0,30,104
14:44:02:401937,1,-58,-12,2,6,-2,-8,15
14:44:02:407867,5,29,53,9,3,-6,-27,-87
14:44:02:415506,5,29,53,9,3,-6,-27,-87
14:44:02:422914,-23,-19,22,-1,-9,-5,9,6
14:44:02:430410,7,-3,23,7,-5,0,5,31
14:44:02:438637,7,-3,23,7,-5,0,5,31
14:44:02:439412,18,6,-38,-10,-13,-3,11,38
14:44:02:452914,-13,-16,-28,-7,1,7,-4,-1
14:44:02:461130,-13,-16,-28,-7,1,7,-4,-1
14:44:02:461959,43,32,10,-3,6,2,15,36
14:44:02:467915,-41,-42,-38,-11,-14,-18,-5,-25
14:44:02:475455,-41,-42,-38,-11,-14,-18,-5,-25
14:44:02:482995,1,22,24,19,15,18,7,38
14:44:02:490489,8,-29,-3,-3,-2,1,12,63
14:44:02:498633,8,-29,-3,-3,-2,1,12,63
14:44:02:499473,15,-8,45,3,-1,-1,-3,3
14:44:02:512980,38,-6,-8,-1,-5,11,11,123
14:44:02:520901,38,-6,-8,-1,-5,11,11,123
14:44:02:528592,-43,-37,-16,-4,1,-13,-5,5
14:44:02:529376,13,3,-29,-13,-3,-1,-6,-8
14:44:02:535480,13,3,-29,-13,-3,-1,-6,-8
14:44:02:542867,-8,-38,8,7,6,4,-4,-128
14:44:02:550391,-9,62,22,2,9,-3,-2,-56
14:44:02:558610,-9,62,22,2,9,-3,-2,-56
14:44:02:559386,23,9,-12,-3,-5,-2,8,79
14:44:02:572902,-68,-24,33,-4,-22,-9,-53,-123
14:44:02:581079,-68,-24,33,-4,-22,-9,-53,-123
14:44:02:581910,2,12,15,9,2,0,-2,-9
14:44:02:587869,12,14,5,3,-14,-3,11,-24
14:44:02:595396,12,14,5,3,-14,-3,11,-24
14:44:02:602874,-13,0,-49,3,5,0,-4,28
14:44:02:610382,48,52,18,7,15,8,13,55
14:44:02:618631,48,52,18,7,15,8,13,55
14:44:02:619409,-25,4,-24,-12,-15,-7,-6,-76
14:44:02:632845,10,-9,-45,-12,-5,-9,-4,-12
14:44:02:641095,10,-9,-45,-12,-5,-9,-4,-12
14:44:02:641911,15,22,17,-3,-13,-9,11,86
14:44:02:647909,-16,-25,-61,-18,-14,-1,3,40
14:44:02:655415,-16,-25,-61,-18,-14,-1,3,40
14:44:02:662880,-9,-53,-17,-3,4,3,-8,22
14:44:02:670438,-16,16,8,4,-10,-6,-3,-28
14:44:02:678611,-16,16,8,4,-10,-6,-3,-28
14:44:02:679388,-9,-14,-7,-7,-1,-2,-14,-38
14:44:02:692872,-1,-11,48,4,10,11,15,57
14:44:02:701100,-1,-11,48,4,10,11,15,57
14:44:02:701940,-30,-16,24,6,5,-3,-16,-18
14:44:02:707907,11,19,64,12,10,-6,-23,-20
14:44:02:715468,11,19,64,12,10,-6,-23,-20
14:44:02:722872,-19,-76,-44,-6,-1,-1,-2,-3
14:44:02:730404,29,5,-61,-3,-11,-14,24,29
14:44:02:738595,29,5,-61,-3,-11,-14,24,29
14:44:02:739369,35,73,20,0,2,6,-3,4
14:44:02:752869,-22,-31,-61,-16,14,6,16,-15
14:44:02:761106,-22,-31,-61,-16,14,6,16,-15
14:44:02:761900,-6,26,21,5,20,9,8,-39
14:44:02:767934,71,53,72,12,0,-1,-9,93
14:44:02:775411,71,53,72,12,0,-1,-9,93
14:44:02:782932,-8,-55,-12,-13,-5,-6,2,-47
14:44:02:790429,-42,5,-36,-6,1,1,-8,-118
14:44:02:798613,-42,5,-36,-6,1,1,-8,-118
14:44:02:799412,23,16,24,3,-5,-4,0,38
14:44:02:812934,-18,-20,-24,-1,-16,-29,-30,-37
14:44:02:821118,-18,-20,-24,-1,-16,-29,-30,-37
14:44:02:821886,-13,4,-19,0,2,12,4,-30
14:44:02:836131,-38,-3,44,6,-2,7,-25,-48
14:44:02:836950,-38,-3,44,6,-2,7,-25,-48
14:44:02:842919,28,44,-32,-4,-16,-21,3,104
14:44:02:850433,-12,14,-2,-8,-13,-11,-3,-34
14:44:02:857882,-12,14,-2,-8,-13,-11,-3,-34
14:44:02:865432,-11,7,-32,-9,13,5,-21,-86
14:44:02:872908,63,14,63,5,7,4,12,64
14:44:02:881062,63,14,63,5,7,4,12,64
14:44:02:881911,27,23,11,2,1,0,9,114
14:44:02:896074,-47,-115,-37,-7,3,2,-8,-18
14:44:02:896868,-47,-115,-37,-7,3,2,-8,-18
14:44:02:902941,9,66,62,8,-2,-5,5,0
14:44:02:910432,29,7,32,-5,-6,3,35,127
14:44:02:917930,29,7,32,-5,-6,3,35,127
14:44:02:925376,6,5,-12,-14,-14,-16,-12,32
14:44:02:932966,-46,-18,-13,0,9,-2,-40,-83
14:44:02:941160,-46,-18,-13,0,9,-2,-40,-83
14:44:02:941946,-6,-39,-34,0,5,5,30,40
14:44:02:956103,38,-7,7,1,-1,1,0,13
14:44:02:956957,38,-7,7,1,-1,1,0,13
14:44:02:962897,-10,6,44,1,-7,5,-2,-2
14:44:02:970382,-25,6,1,12,2,1,-9,-77
14:44:02:977900,-25,6,1,12,2,1,-9,-77
14:44:02:985419,9,4,-6,-1,-2,4,-5,22
14:44:02:992895,10,36,83,0,2,2,13,-28
14:44:03:1099,10,36,83,0,2,2,13,-28
14:44:03:1921,-15,-4,-37,-11,-2,-9,-19,-111
14:44:03:16124,-14,38,-51,-1,2,9,13,44
14:44:03:16920,-14,38,-51,-1,2,9,13,44
14:44:03:22890,35,-46,35,10,-4,4,-2,-11
14:44:03:30413,-88,-14,-25,1,10,4,4,59
14:44:03:38003,-88,-14,-25,1,10,4,4,59
14:44:03:45414,5,-51,-28,2,12,8,2,64
14:44:03:52892,40,19,-34,-1,-9,-5,11,26
14:44:03:61047,40,19,-34,-1,-9,-5,11,26
14:44:03:61885,-24,55,-1,-5,-5,-9,-34,-103
14:44:03:75785,-63,-100,-5,-5,-6,-11,2,-3
14:44:03:83592,-63,-100,-5,-5,-6,-11,2,-3
14:44:03:84408,36,52,38,9,4,11,47,59
14:44:03:90369,52,1,-44,-14,-2,-1,7,-2
14:44:03:97939,52,1,-44,-14,-2,-1,7,-2
14:44:03:105380,15,-24,2,3,5,8,-5,30
14:44:03:112899,40,39,33,-1,-9,-15,-5,104
14:44:03:121114,40,39,33,-1,-9,-15,-5,104
14:44:03:121891,3,-28,-45,-11,-14,-10,-1,28
14:44:03:136128,-94,-62,-2,-6,-7,-13,-45,-98
14:44:03:136942,-94,-62,-2,-6,-7,-13,-45,-98
14:44:03:142877,-40,-18,41,11,2,2,-5,9
14:44:03:150403,14,76,45,10,9,10,-3,-72
14:44:03:157896,14,76,45,10,9,10,-3,-72
14:44:03:165405,-16,-79,-43,-12,-11,-8,-3,63
14:44:03:172894,55,61,4,9,4,10,-17,-12
14:44:03:181061,55,61,4,9,4,10,-17,-12
14:44:03:181902,-1,41,-5,6,24,10,-3,-25
14:44:03:196060,24,0,23,-2,-9,-7,27,104
14:44:03:196862,24,0,23,-2,-9,-7,27,104
14:44:03:202867,33,43,49,-2,-5,4,15,72
14:44:03:210472,39,-19,-55,-4,-4,-5,11,114
14:44:03:217974,39,-19,-55,-4,-4,-5,11,114
14:44:03:225389,-59,12,-1,6,2,-8,-41,-121
14:44:03:232930,-7,-22,-4,-1,-4,3,2,0
14:44:03:241156,-7,-22,-4,-1,-4,3,2,0
14:44:03:241949,-29,-4,11,-2,-7,-8,-7,-7
14:44:03:256117,-29,-36,8,-3,7,9,13,-47
14:44:03:256932,-29,-36,8,-3,7,9,13,-47
14:44:03:262874,5,-41,2,-7,-14,-4,8,9
14:44:03:270395,14,-47,-41,-8,7,11,23,21
14:44:03:277944,14,-47,-41,-8,7,11,23,21
14:44:03:285417,15,32,49,0,-11,-9,-16,0
14:44:03:292941,13,29,2,3,-4,0,-5,29
14:44:03:301143,13,29,2,3,-4,0,-5,29
14:44:03:301972,54,-25,-20,-3,5,13,21,108
14:44:03:316115,29,22,17,4,-1,2,22,87
14:44:03:316935,29,22,17,4,-1,2,22,87
14:44:03:322907,-9,-28,7,0,4,0,12,-1
14:44:03:330376,-6,1,-16,0,-6,-12,-1,3
14:44:03:338006,-6,1,-16,0,-6,-12,-1,3
14:44:03:345425,-20,42,-35,-3,-1,-1,-7,-47
14:44:03:352906,26,11,-53,-8,0,2,-9,-6
14:44:03:361087,26,11,-53,-8,0,2,-9,-6
14:44:03:361913,14,-34,-27,-9,-8,-11,-4,-73
14:44:03:376154,30,19,11,5,12,16,30,27
14:44:03:376907,30,19,11,5,12,16,30,27
14:44:03:382913,-33,-3,-26,0,-8,-1,9,15
14:44:03:390360,-37,-39,9,2,-1,-7,-32,-123
14:44:03:397962,-37,-39,9,2,-1,-7,-32,-123
14:44:03:405400,7,49,-2,2,1,-5,0,-96
14:44:03:412908,-1,45,18,0,0,0,-21,83
14:44:03:421080,-1,45,18,0,0,0,-21,83
14:44:03:421871,-35,-90,-5,-8,-6,-17,-26,-33
14:44:03:436085,21,-9,-58,-12,7,5,23,46
14:44:03:436903,21,-9,-58,-12,7,5,23,46
14:44:03:442921,32,26,50,5,5,-4,1,55
14:44:03:450404,-17,8,-39,-9,-16,-11,-9,-29
14:44:03:457898,-17,8,-39,-9,-16,-11,-9,-29
14:44:03:465368,1,-35,14,5,2,11,23,17
14:44:03:472897,-25,-5,53,8,3,6,8,-24
14:44:03:481106,-25,-5,53,8,3,6,8,-24
14:44:03:481907,-1,11,-16,0,5,9,-13,33
14:44:03:496047,10,16,17,5,3,4,17,22
14:44:03:496883,10,16,17,5,3,4,17,22
14:44:03:502926,-76,21,-24,-5,2,3,0,-27
14:44:03:510427,-16,-56,-9,-3,-5,-9,-16,-74
14:44:03:517989,-16,-56,-9,-3,-5,-9,-16,-74
14:44:03:525422,22,127,42,4,6,6,16,22
14:44:03:532922,16,-46,14,-7,-13,-8,7,52
14:44:03:541143,16,-46,14,-7,-13,-8,7,52
14:44:03:541933,8,49,-2,-5,-1,2,-6,-71
14:44:03:556107,-7,16,35,4,-13,-19,-21,-43
14:44:03:556952,-7,16,35,4,-13,-19,-21,-43
14:44:03:562897,-18,-4,14,5,19,11,-7,-12
14:44:03:570414,-71,-12,4,-2,2,-4,7,-56
14:44:03:577949,-71,-12,4,-2,2,-4,7,-56
14:44:03:585467,-12,-62,-28,-7,-18,-16,4,26
14:44:03:592881,-26,24,23,7,7,5,-39,-58
14:44:03:601120,-26,24,23,7,7,5,-39,-58
14:44:03:601928,-41,-106,-1,-9,-15,-21,-32,-30
14:44:03:616136,-18,-14,1,-2,4,9,12,61
14:44:03:616918,-18,-14,1,-2,4,9,12,61
14:44:03:622875,54,55,3,6,3,2,8,111
14:44:03:630371,16,7,47,6,6,8,-5,10
14:44:03:637974,16,7,47,6,6,8,-5,10
14:44:03:645392,31,-3,-20,-5,-3,0,30,122
14:44:03:652938,5,-13,-42,-17,-15,-4,6,83
14:44:03:661119,5,-13,-42,-17,-15,-4,6,83
14:44:03:661899,52,53,31,6,8,7,20,20
14:44:03:676155,-12,7,-18,1,10,1,-8,-30
14:44:03:676949,-12,7,-18,1,10,1,-8,-30
14:44:03:682955,57,50,9,4,-1,2,8,69
14:44:03:690378,-7,-53,-52,-14,-15,-16,-18,75
14:44:03:697917,-7,-53,-52,-14,-15,-16,-18,75
14:44:03:705383,-24,2,-48,-6,-4,-6,-13,-104
14:44:03:712901,30,-19,-24,-4,-6,-4,-1,-12
14:44:03:721071,30,-19,-24,-4,-6,-4,-1,-12
14:44:03:721886,29,-2,-9,0,3,-1,8,0
14:44:03:736072,18,50,34,9,7,13,4,-5
14:44:03:736863,18,50,34,9,7,13,4,-5
14:44:03:742899,-33,-52,1,-6,-6,0,1,71
14:44:03:750394,-33,11,28,2,-4,-5,-4,-68
14:44:03:757893,-33,11,28,2,-4,-5,-4,-68
14:44:03:765346,-67,-32,-15,-9,-8,-3,-14,8
14:44:03:772853,24,-3,9,6,8,11,2,5
14:44:03:781069,24,-3,9,6,8,11,2,5
14:44:03:781932,19,-18,-29,-1,0,0,-15,-55
14:44:03:796049,20,36,58,7,-2,-11,7,78
14:44:03:796886,20,36,58,7,-2,-11,7,78
14:44:03:802895,3,-29,-6,7,4,7,2,18
14:44:03:818602,17,12,-20,-3,4,1,13,50
14:44:03:819387,17,12,-20,-3,4,1,13,50
14:44:03:825421,-3,-2,10,3,-9,-8,0,33
14:44:03:832908,-30,-61,-14,-2,-2,-5,-17,-1
14:44:03:840427,-30,-61,-14,-2,-2,-5,-17,-1
14:44:03:847915,-18,40,-7,-6,-20,-17,-11,51
14:44:03:856085,6,11,-13,-6,-1,15,5,-21
14:44:03:856903,6,11,-13,-6,-1,15,5,-21
14:44:03:862883,-30,-30,-71,-12,6,6,-11,-34
14:44:03:878556,-35,52,44,8,-2,3,3,-45
14:44:03:879402,-35,52,44,8,-2,3,3,-45
14:44:03:885389,-2,-5,30,1,3,0,-2,-3
14:44:03:892864,1,12,-21,1,-6,-5,23,49
14:44:03:900444,1,12,-21,1,-6,-5,23,49
14:44:03:916756,-25,4,34,3,11,7,-7,-128
14:44:03:917550,9,-10,3,4,0,-8,-3,17
14:44:03:918354,9,-10,3,4,0,-8,-3,17
14:44:03:922870,-16,-3,52,6,-1,-5,-8,-81
14:44:03:938595,28,15,-84,-12,-10,-11,-14,-87
14:44:03:939381,28,15,-84,-12,-10,-11,-14,-87
14:44:03:945347,31,41,87,25,25,23,18,101
14:44:03:952915,33,-4,-7,-3,-7,-12,24,77
14:44:03:960459,33,-4,-7,-3,-7,-12,24,77
14:44:03:967878,3,-40,-42,-13,-15,-22,-21,-34
14:44:03:976073,0,-90,-14,-10,1,8,-11,-14
14:44:03:976884,0,-90,-14,-10,1,8,-11,-14
14:44:03:982917,73,62,53,4,1,12,33,47
14:44:03:998616,-7,-17,-17,-10,-11,-16,-12,17
14:44:03:999390,-7,-17,-17,-10,-11,-16,-12,17
14:44:04:5345,-35,7,-31,-12,-15,-14,-6,-93
14:44:04:12860,-18,-15,26,7,14,11,15,-17
14:44:04:20449,-18,-15,26,7,14,11,15,-17
14:44:04:27856,-15,-64,-102,-21,-6,-16,-8,64
14:44:04:36140,-37,5,9,3,5,1,-6,-22
14:44:04:36916,-37,5,9,3,5,1,-6,-22
14:44:04:42880,52,-36,-45,-7,-6,-2,-40,65
14:44:04:58606,-41,-39,-50,-10,2,-5,-23,35
14:44:04:59433,-41,-39,-50,-10,2,-5,-23,35
14:44:04:65444,-10,8,-16,1,5,10,2,-12
14:44:04:72888,-34,-15,54,5,-4,-5,-19,-42
14:44:04:80498,-34,-15,54,5,-4,-5,-19,-42
14:44:04:87937,-22,-27,7,0,-5,-1,17,49
14:44:04:96064,34,46,-19,-1,-6,-1,2,-12
14:44:04:96915,34,46,-19,-1,-6,-1,2,-12
14:44:04:102905,-47,-18,26,-2,-3,6,6,27
14:44:04:118626,48,80,67,7,-2,5,8,-38
14:44:04:119421,48,80,67,7,-2,5,8,-38
14:44:04:125407,37,-19,51,8,-2,-5,24,72
14:44:04:132915,-5,13,-19,2,9,15,2,34
14:44:04:140444,-5,13,-19,2,9,15,2,34
14:44:04:147995,-24,44,-16,1,8,-4,11,-8
14:44:04:156071,5,12,-7,3,5,5,19,78
14:44:04:156945,5,12,-7,3,5,5,19,78
14:44:04:162927,-26,-39,-45,-3,-12,-19,-26,2
14:44:04:178526,-13,39,53,7,9,-8,-22,0
14:44:04:179359,-13,39,53,7,9,-8,-22,0
14:44:04:185432,-26,-5,-3,2,3,8,-17,-42
14:44:04:192938,-22,3,-4,-4,-7,-2,27,47
14:44:04:200442,-22,3,-4,-4,-7,-2,27,47
14:44:04:207831,-6,27,-41,-7,-7,-3,1,-32
14:44:04:216106,24,-23,-9,-5,-8,-7,-17,-30
14:44:04:216899,24,-23,-9,-5,-8,-7,-17,-30
14:44:04:222922,2,91,73,9,6,8,1,-67
14:44:04:238607,-15,-84,-35,-1,0,-3,-5,-19
14:44:04:239417,-15,-84,-35,-1,0,-3,-5,-19
14:44:04:245350,10,13,-14,-11,-5,2,6,60
14:44:04:252881,25,51,-27,-7,7,4,8,-29
14:44:04:260417,25,51,-27,-7,7,4,8,-29
14:44:04:267888,26,4,-18,3,6,5,10,0
14:44:04:276132,-53,-86,-36,-10,-16,-25,-61,-84
14:44:04:276923,-53,-86,-36,-10,-16,-25,-61,-84
14:44:04:282913,-18,-34,-7,0,1,5,14,36
14:44:04:298592,-35,41,42,-3,-3,-3,10,19
14:44:04:299435,-35,41,42,-3,-3,-3,10,19
14:44:04:305378,12,25,32,5,5,0,-22,14
14:44:04:312884,18,38,5,7,4,6,3,-15
14:44:04:320476,18,38,5,7,4,6,3,-15
14:44:04:327863,-19,-68,-27,-12,-7,-17,-48,-110
14:44:04:336153,-1,-14,25,1,-9,4,16,3
14:44:04:336916,-1,-14,25,1,-9,4,16,3
14:44:04:342897,12,0,39,6,8,9,5,26
14:44:04:358612,0,6,36,-2,1,-5,-10,-41
14:44:04:359426,0,6,36,-2,1,-5,-10,-41
14:44:04:365416,2,6,-22,-2,2,10,11,14
14:44:04:372844,-1,-34,-11,-2,-10,-13,-8,-49
14:44:04:380419,-1,-34,-11,-2,-10,-13,-8,-49
14:44:04:387880,18,-34,32,2,-1,-2,3,14
14:44:04:396027,2,-10,-29,-1,4,-1,8,51
14:44:04:396885,2,-10,-29,-1,4,-1,8,51
14:44:04:402885,-41,29,-6,-2,-5,-8,-16,-104
14:44:04:418611,15,54,-3,1,4,0,-2,111
14:44:04:419417,15,54,-3,1,4,0,-2,111
14:44:04:425380,54,21,7,-2,4,4,15,44
14:44:04:432920,-10,3,9,6,2,2,-19,-19
14:44:04:440425,-10,3,9,6,2,2,-19,-19
14:44:04:447932,49,-3,-1,1,-5,-3,15,30
14:44:04:456089,4,-30,-19,0,14,18,19,34
14:44:04:456917,4,-30,-19,0,14,18,19,34
14:44:04:462929,-10,-23,73,11,1,4,7,54
14:44:04:478525,46,1,-18,-11,-10,-10,10,32
14:44:04:479383,46,1,-18,-11,-10,-10,10,32
14:44:04:485434,-8,42,-13,-6,-9,-21,-19,-17
14:44:04:492941,-16,-32,-26,-3,-7,6,19,-37
14:44:04:500414,-16,-32,-26,-3,-7,6,19,-37
14:44:04:507867,0,-19,-4,0,2,5,9,51
14:44:04:516077,-2,-4,-19,-6,-7,-17,-26,-35
14:44:04:516876,-2,-4,-19,-6,-7,-17,-26,-35
14:44:04:522868,-43,-7,-3,5,6,8,-1,10
14:44:04:538581,1,76,46,-1,-12,-9,-32,-53
14:44:04:539403,1,76,46,-1,-12,-9,-32,-53
14:44:04:545352,-26,-11,-66,-13,-7,-14,-23,-28
14:44:04:552825,9,8,18,3,-5,1,-10,17
14:44:04:560459,9,8,18,3,-5,1,-10,17
14:44:04:567918,-1,-39,14,-1,-3,-9,-28,-107
14:44:04:576123,28,-3,-34,4,15,13,21,33
14:44:04:576896,28,-3,-34,4,15,13,21,33
14:44:04:582893,-1,21,-33,-1,-7,-17,0,-46
14:44:04:598559,-36,-18,24,9,7,18,11,-2
14:44:04:599401,-36,-18,24,9,7,18,11,-2
14:44:04:605341,-11,10,40,1,-1,3,26,48
14:44:04:612914,-15,-25,1,-6,-4,-7,11,12
14:44:04:620444,-15,-25,1,-6,-4,-7,11,12
14:44:04:627838,11,46,10,0,-5,-2,-7,5
14:44:04:636114,-31,-30,-36,-10,6,7,1,38
14:44:04:636900,-31,-30,-36,-10,6,7,1,38
14:44:04:642883,11,-15,-11,-2,-7,-4,39,29
14:44:04:658613,11,-15,-11,-2,-7,-4,39,29
14:44:04:659408,-13,-36,-11,-7,-5,4,9,-10
14:44:04:665423,-30,-82,-2,-4,-1,-1,7,48
14:44:04:681105,-30,-82,-2,-4,-1,-1,7,48
14:44:04:681894,10,22,-2,2,-2,7,3,14
14:44:04:687849,-43,58,24,1,1,-12,-47,-13
14:44:04:696119,-43,58,24,1,1,-12,-47,-13
14:44:04:696927,-15,-86,-33,-17,-1,-2,1,6
14:44:04:702943,24,18,-5,0,2,7,9,17
14:44:04:718640,24,18,-5,0,2,7,9,17
14:44:04:719405,0,39,20,2,-7,-13,-5,0
14:44:04:725345,-19,-35,-7,2,10,6,5,18
14:44:04:741113,-19,-35,-7,2,10,6,5,18
14:44:04:741875,10,-6,22,6,11,4,5,-17
14:44:04:747872,-6,4,44,11,3,5,-17,-23
14:44:04:756082,-6,4,44,11,3,5,-17,-23
14:44:04:756944,49,50,-4,6,-5,-14,10,38
14:44:04:770373,49,99,-26,-5,12,24,34,39
14:44:04:778574,49,99,-26,-5,12,24,34,39
14:44:04:779371,6,-32,-22,-8,-7,2,17,59
14:44:04:785350,37,-42,63,5,-6,-5,4,61
14:44:04:801048,37,-42,63,5,-6,-5,4,61
14:44:04:801895,-3,42,-22,-10,-8,-3,-33,-128
14:44:04:807808,-13,-29,-30,-5,-4,5,0,7
14:44:04:816105,-13,-29,-30,-5,-4,5,0,7
14:44:04:816902,9,-17,11,3,2,-7,-8,-29
14:44:04:830383,16,2,5,-6,-20,-12,-45,-77
14:44:04:838582,16,2,5,-6,-20,-12,-45,-77
14:44:04:839407,7,17,0,5,-1,0,9,23
14:44:04:845380,24,28,-6,-1,-8,3,2,23
14:44:04:861077,24,28,-6,-1,-8,3,2,23
14:44:04:861854,11,6,4,2,-3,-11,7,-3
14:44:04:867888,4,7,10,5,16,10,15,47
14:44:04:876097,4,7,10,5,16,10,15,47
14:44:04:876866,1,0,36,6,14,11,1,31
14:44:04:890409,37,17,-23,-9,-5,-3,1,-15
14:44:04:898569,37,17,-23,-9,-5,-3,1,-15
14:44:04:899390,7,44,-6,-1,-7,-8,-34,-53
14:44:04:905317,-11,-34,20,6,-1,-4,-10,-1
14:44:04:921083,-11,-34,20,6,-1,-4,-10,-1
14:44:04:921840,4,12,-2,-5,-6,4,20,99
14:44:04:927855,-7,10,-42,-8,-5,-5,13,-33
14:44:04:936110,-7,10,-42,-8,-5,-5,13,-33
14:44:04:936915,-43,-5,-11,-2,3,5,-1,39
14:44:04:950400,-29,-25,-30,3,19,4,-3,66
14:44:04:958557,-29,-25,-30,3,19,4,-3,66
14:44:04:959359,-66,-52,-55,-9,-10,-9,-6,-55
14:44:04:965415,19,79,74,3,-9,4,2,-55
14:44:04:981086,19,79,74,3,-9,4,2,-55
14:44:04:981837,-12,-14,7,5,1,1,-4,-2
14:44:04:987892,-40,-37,-74,-7,-9,-12,-40,-77
14:44:04:996078,-40,-37,-74,-7,-9,-12,-40,-77
14:44:04:996888,-25,-33,14,-10,-1,-1,-11,1
14:44:05:10405,11,46,5,4,6,7,34,87
14:44:05:26794,11,46,5,4,6,7,34,87
14:44:05:27576,2,6,51,7,6,-3,-16,-24
14:44:05:28410,-36,-4,-11,-4,9,-2,-16,30
14:44:05:41116,-36,-4,-11,-4,9,-2,-16,30
14:44:05:41941,23,-7,-8,1,-4,-16,-14,-19
14:44:05:47901,6,-79,14,1,-8,-7,-2,37
14:44:05:56115,6,-79,14,1,-8,-7,-2,37
14:44:05:56937,27,14,40,0,4,7,9,5
14:44:05:70370,-75,-65,-57,-15,-4,-6,4,15
14:44:05:78585,-75,-65,-57,-15,-4,-6,4,15
14:44:05:79351,-25,-11,-16,-6,-9,2,4,-87
14:44:05:85426,48,59,23,7,1,9,5,39
14:44:05:101139,48,59,23,7,1,9,5,39
14:44:05:101877,-38,3,17,-6,-13,-27,-33,21
14:44:05:107841,11,-10,8,-6,-5,2,0,18
14:44:05:116126,11,-10,8,-6,-5,2,0,18
14:44:05:116911,54,22,-12,-1,-2,8,17,59
14:44:05:130400,13,27,31,0,-5,-2,15,-81
14:44:05:138579,13,27,31,0,-5,-2,15,-81
14:44:05:139418,10,-17,37,10,12,7,13,15
14:44:05:145355,26,-46,-74,-14,-1,-2,-1,0
14:44:05:161111,26,-46,-74,-14,-1,-2,-1,0
14:44:05:161904,-40,-29,-31,-11,-12,-15,0,-10
14:44:05:167911,23,38,23,3,4,6,22,87
14:44:05:176129,23,38,23,3,4,6,22,87
14:44:05:176885,14,36,-5,2,8,9,11,38
14:44:05:190439,-37,-21,-23,-3,-8,-16,-46,-94
14:44:05:198587,-37,-21,-23,-3,-8,-16,-46,-94
14:44:05:199409,-22,9,-13,-3,5,10,-6,-6
14:44:05:205355,7,8,53,5,4,0,7,-42
14:44:05:221107,7,8,53,5,4,0,7,-42
14:44:05:221892,14,23,-10,1,-4,4,7,73
14:44:05:227875,-26,36,1,4,-4,-5,-7,-41
14:44:05:236129,-26,36,1,4,-4,-5,-7,-41
14:44:05:236876,18,30,12,8,0,13,11,53
14:44:05:250411,10,-26,-3,-7,-1,4,0,44
14:44:05:258559,10,-26,-3,-7,-1,4,0,44
14:44:05:259347,-10,18,35,8,3,3,0,-44
14:44:05:265407,-34,-10,30,1,-9,-15,-13,-53
14:44:05:281086,-34,-10,30,1,-9,-15,-13,-53
14:44:05:281867,21,-15,3,-4,4,3,6,56
14:44:05:287940,16,15,34,14,4,6,9,-69
14:44:05:296051,16,15,34,14,4,6,9,-69
14:44:05:296877,36,26,-53,-3,4,6,9,24
14:44:05:310393,-33,-40,43,-2,-9,-3,13,38
14:44:05:318605,-33,-40,43,-2,-9,-3,13,38
14:44:05:319352,20,-18,-7,-9,-13,-18,-19,-42
14:44:05:325394,25,49,-50,-7,3,0,10,36
14:44:05:341139,25,49,-50,-7,3,0,10,36
14:44:05:341890,-6,2,30,3,-6,3,24,97
14:44:05:347928,3,3,-26,-6,6,-2,-17,-46
14:44:05:356069,3,3,-26,-6,6,-2,-17,-46
14:44:05:356907,-19,26,-2,2,2,-6,-7,-21
14:44:05:370383,-6,-45,-11,-2,0,8,8,34
14:44:05:378660,-6,-45,-11,-2,0,8,8,34
14:44:05:379403,-34,-33,-18,-12,-13,-22,-50,-65
14:44:05:385479,35,46,7,6,11,13,34,125
14:44:05:401159,35,46,7,6,11,13,34,125
14:44:05:401913,-26,28,12,8,-3,-9,-3,-6
14:44:05:407839,-6,22,-14,-2,1,-2,-30,-33
14:44:05:416171,-6,22,-14,-2,1,-2,-30,-33
14:44:05:416946,30,-56,-35,-13,-8,-1,12,92
14:44:05:430399,-54,-39,27,-1,-14,-25,-16,8
14:44:05:438646,-54,-39,27,-1,-14,-25,-16,8
14:44:05:439439,-24,-45,-39,-3,8,17,30,-18
14:44:05:445360,20,27,-15,-3,-1,0,1,-7
14:44:05:461107,20,27,-15,-3,-1,0,1,-7
14:44:05:461882,18,1,-9,-1,-6,0,2,18
14:44:05:467849,-8,17,9,-1,-4,-6,-16,-80
14:44:05:476141,-8,17,9,-1,-4,-6,-16,-80
14:44:05:476912,3,-30,5,-5,-3,-4,2,56
14:44:05:490386,5,-20,-4,-4,-11,-6,-9,-10
14:44:05:498616,5,-20,-4,-4,-11,-6,-9,-10
14:44:05:499403,19,-16,9,4,9,3,25,65
14:44:05:505346,-4,-41,-3,-1,1,-2,-6,-41
14:44:05:521099,-4,-41,-3,-1,1,-2,-6,-41
14:44:05:521880,13,8,12,0,-1,-15,-43,-118
14:44:05:527832,30,4,-22,4,15,11,9,22
14:44:05:536115,30,4,-22,4,15,11,9,22
14:44:05:536900,-7,-17,36,5,6,-2,-4,-59
14:44:05:550364,22,70,11,3,-1,-2,-25,19
14:44:05:558584,22,70,11,3,-1,-2,-25,19
14:44:05:559376,-25,4,-28,-4,1,-2,-16,4
14:44:05:565387,7,19,27,-5,-8,-1,18,18
14:44:05:581139,7,19,27,-5,-8,-1,18,18
14:44:05:581912,-4,37,31,-2,-1,-1,-7,-68
14:44:05:587865,9,6,18,3,0,-2,-7,-1
14:44:05:596126,9,6,18,3,0,-2,-7,-1
14:44:05:596923,-45,-6,-1,-4,-6,5,15,34
14:44:05:610436,-17,-54,4,3,1,4,0,97
14:44:05:618600,-17,-54,4,3,1,4,0,97
14:44:05:619418,9,-11,67,11,9,3,-3,58
14:44:05:625409,-4,-5,-21,-5,-12,-8,12,-24
14:44:05:641132,-4,-5,-21,-5,-12,-8,12,-24
14:44:05:641915,-6,-6,-5,-9,-4,-5,-2,-12
14:44:05:647897,-19,-47,-7,-3,7,-1,-1,20
14:44:05:656089,-19,-47,-7,-3,7,-1,-1,20
14:44:05:656928,-5,-23,-11,-1,-3,3,-9,-68
14:44:05:670468,-41,-41,-96,-11,1,2,9,32
14:44:05:678590,-41,-41,-96,-11,1,2,9,32
14:44:05:679364,21,17,-95,-7,5,-4,25,64
14:44:05:692932,10,47,22,9,8,11,3,-7
14:44:05:701145,10,47,22,9,8,11,3,-7
14:44:05:701892,31,21,-33,-11,-6,3,21,49
14:44:05:707915,9,35,-3,-2,2,4,-17,-33
14:44:05:715469,9,35,-3,-2,2,4,-17,-33
14:44:05:722880,9,-2,-40,-7,-7,-15,-25,-29
14:44:05:730392,-30,-46,-14,-2,1,4,4,-40
14:44:05:738610,-30,-46,-14,-2,1,4,4,-40
14:44:05:739407,-9,17,7,2,6,10,-2,-14
14:44:05:752953,8,32,22,-5,-1,-9,-2,16
14:44:05:761107,8,32,22,-5,-1,-9,-2,16
14:44:05:761904,3,9,-4,3,4,0,-8,24
14:44:05:767876,-29,0,-37,-4,-3,0,8,-1
14:44:05:775456,-29,0,-37,-4,-3,0,8,-1
14:44:05:782885,-76,-71,25,-1,-22,-23,-43,19
14:44:05:790392,28,51,0,-2,-3,0,3,42
14:44:05:798621,28,51,0,-2,-3,0,3,42
14:44:05:799431,-34,-45,25,0,-2,6,3,-15
14:44:05:812901,54,-26,2,-1,-13,-9,10,92
14:44:05:821146,54,-26,2,-1,-13,-9,10,92
14:44:05:821926,-32,61,30,9,4,1,-36,-91
14:44:05:827902,-46,-19,54,2,5,1,-10,-120
14:44:05:835539,-46,-19,54,2,5,1,-10,-120
14:44:05:842917,14,44,62,8,6,4,11,-44
14:44:05:850409,5,51,31,12,5,0,14,64
14:44:05:858615,5,51,31,12,5,0,14,64
14:44:05:859473,38,-36,50,2,2,3,11,14
14:44:05:872910,-1,-21,-16,-4,-2,2,-1,12
14:44:05:881111,-1,-21,-16,-4,-2,2,-1,12
14:44:05:881939,23,8,-22,-7,-7,-9,0,38
14:44:05:887892,-73,20,11,-4,-2,-7,-38,-86
14:44:05:895468,-73,20,11,-4,-2,-7,-38,-86
14:44:05:902918,-5,-32,-5,-4,-5,-11,-1,-1
14:44:05:910433,32,-11,-38,-1,5,1,21,20
14:44:05:918615,32,-11,-38,-1,5,1,21,20
14:44:05:919360,29,17,-16,-4,3,-1,19,99
14:44:05:932915,-15,-15,65,0,-5,2,0,-49
14:44:05:941073,-15,-15,65,0,-5,2,0,-49
14:44:05:941851,27,-40,-71,-9,1,0,-4,48
14:44:05:947881,4,-20,-55,-12,-4,4,-8,-11
14:44:05:955406,4,-20,-55,-12,-4,4,-8,-11
14:44:05:962873,-9,11,9,7,1,10,11,55
14:44:05:970423,9,4,60,8,-8,-12,0,37
14:44:05:978561,9,4,60,8,-8,-12,0,37
14:44:05:979377,-1,-36,-9,2,1,1,-5,17
14:44:05:992907,3,-14,45,5,-6,-6,-20,-55
14:44:06:1111,3,-14,45,5,-6,-6,-20,-55
14:44:06:1911,13,24,6,3,1,2,15,-13
14:44:06:7910,-11,-11,-12,-7,-2,0,-8,12
14:44:06:15484,-11,-11,-12,-7,-2,0,-8,12
14:44:06:22921,10,19,-2,-3,-3,-8,-8,-10
14:44:06:30367,24,-14,-48,1,25,9,13,46
14:44:06:38656,24,-14,-48,1,25,9,13,46
14:44:06:39426,-1,30,0,-2,-7,-4,-10,-35
14:44:06:52913,1,-39,-41,-19,-12,-6,4,47
14:44:06:61138,1,-39,-41,-19,-12,-6,4,47
14:44:06:61960,-45,-21,-28,-6,0,-7,-7,-109
14:44:06:67865,29,-25,19,10,6,1,11,42
14:44:06:75459,29,-25,19,10,6,1,11,42
14:44:06:82903,39,30,10,4,-1,8,21,119
14:44:06:90388,-23,-12,-21,-3,-6,-5,-24,46
14:44:06:98609,-23,-12,-21,-3,-6,-5,-24,46
14:44:06:99413,-11,-20,-7,8,12,11,-6,-38
14:44:06:112878,-3,17,-44,-7,-7,-3,10,-15
14:44:06:121107,-3,17,-44,-7,-7,-3,10,-15
14:44:06:121904,-47,-6,0,-10,-13,-3,-3,22
14:44:06:127837,-58,-23,14,-3,-1,-8,-23,-110
14:44:06:135456,-58,-23,14,-3,-1,-8,-23,-110
14:44:06:142877,43,69,-12,1,0,2,-8,-13
14:44:06:150380,29,8,34,-3,0,3,16,30
14:44:06:158549,29,8,34,-3,0,3,16,30
14:44:06:159396,32,-8,30,6,3,3,28,62
14:44:06:172877,10,-35,-72,1,-3,-3,-7,-17
14:44:06:181145,10,-35,-72,1,-3,-3,-7,-17
14:44:06:181997,7,-14,-47,-12,-1,0,5,35
14:44:06:187915,-3,4,74,6,3,2,11,-41
14:44:06:195458,-3,4,74,6,3,2,11,-41
14:44:06:202916,-14,-1,-39,-8,-10,-15,-6,-18
14:44:06:210407,31,36,42,3,3,15,-7,50
14:44:06:218601,31,36,42,3,3,15,-7,50
14:44:06:219400,-15,-6,45,0,-6,-3,-7,-86
14:44:06:232919,31,41,4,-2,-7,-1,10,101
14:44:06:241086,31,41,4,-2,-7,-1,10,101
14:44:06:241889,16,-23,-13,2,2,-5,-3,-41
14:44:06:247929,-19,25,-47,-9,-1,-8,6,56
14:44:06:255396,-19,25,-47,-9,-1,-8,6,56
14:44:06:262884,23,30,23,14,6,4,11,67
14:44:06:270452,2,2,-10,2,-5,4,-3,-23
14:44:06:278563,2,2,-10,2,-5,4,-3,-23
14:44:06:279368,-18,4,122,11,1,3,-10,-14
14:44:06:292910,-8,-49,-60,-9,-9,-17,-33,-94
14:44:06:301112,-8,-49,-60,-9,-9,-17,-33,-94
14:44:06:301870,-70,-57,0,-9,-5,3,-7,20
14:44:06:307856,3,20,2,0,-4,-6,9,-21
14:44:06:315492,3,20,2,0,-4,-6,9,-21
14:44:06:322830,6,9,-40,-8,-7,-16,-37,-97
14:44:06:330348,-37,-65,18,7,17,15,6,-34
14:44:06:338658,-37,-65,18,7,17,15,6,-34
14:44:06:339416,19,50,-13,-4,-1,-3,13,62
14:44:06:352838,35,4,7,-8,-15,-4,9,64
14:44:06:361081,35,4,7,-8,-15,-4,9,64
14:44:06:361907,-11,-17,-79,-9,-5,6,18,28
14:44:06:367875,-24,22,20,2,9,0,-1,-38
14:44:06:375461,-24,22,20,2,9,0,-1,-38
14:44:06:382912,17,-27,-53,-2,1,4,10,21
14:44:06:390396,-75,-79,-20,-4,-8,-15,-8,-60
14:44:06:398597,-75,-79,-20,-4,-8,-15,-8,-60
14:44:06:399399,32,7,29,3,3,8,-13,32
14:44:06:412904,5,-28,-53,-12,-9,-11,-22,-43
14:44:06:421122,5,-28,-53,-12,-9,-11,-22,-43
14:44:06:421898,51,37,54,8,1,-1,6,33
14:44:06:427852,11,27,32,10,-5,5,0,42
14:44:06:435475,11,27,32,10,-5,5,0,42
14:44:06:442873,20,9,-4,5,10,13,15,90
14:44:06:450428,24,34,6,2,8,1,13,12
14:44:06:458561,24,34,6,2,8,1,13,12
14:44:06:459351,-20,20,55,7,5,-2,-15,-79
14:44:06:472908,7,-12,30,-2,5,-1,-11,9
14:44:06:481115,7,-12,30,-2,5,-1,-11,9
14:44:06:481958,10,10,-6,-3,3,-3,2,-80
14:44:06:487862,16,29,-39,-7,-9,-4,-1,100
14:44:06:495406,16,29,-39,-7,-9,-4,-1,100
14:44:06:502910,-87,-60,-80,-15,-11,-12,-10,9
14:44:06:510405,15,61,30,10,0,6,14,26
14:44:06:518629,15,61,30,10,0,6,14,26
14:44:06:519365,-2,-41,17,-6,-4,0,-6,6
14:44:06:532930,5,22,6,-6,-7,-10,-20,16
14:44:06:541043,5,22,6,-6,-7,-10,-20,16
14:44:06:541870,-9,19,38,9,-3,5,12,-24
14:44:06:547905,7,-50,-38,-6,0,10,21,33
14:44:06:555385,7,-50,-38,-6,0,10,21,33
14:44:06:562926,-5,-39,0,-4,-5,-9,-2,-70
14:44:06:570386,-72,-77,-24,-7,-5,-18,-29,-100
14:44:06:578575,-72,-77,-24,-7,-5,-18,-29,-100
14:44:06:579392,25,36,25,0,-8,0,13,52
14:44:06:592929,47,30,11,7,8,15,23,60
14:44:06:601117,47,30,11,7,8,15,23,60
14:44:06:601902,-20,19,27,0,-9,-24,-62,-58
14:44:06:607847,21,-3,-27,1,2,7,3,15
14:44:06:615462,21,-3,-27,1,2,7,3,15
14:44:06:622890,11,-31,-56,-12,-7,2,5,8
14:44:06:630362,-13,60,92,21,12,0,-17,-6
14:44:06:637946,-13,60,92,21,12,0,-17,-6
14:44:06:645434,-25,8,-8,1,8,0,-16,22
14:44:06:652929,40,95,96,10,-5,-1,8,-63
14:44:06:661140,40,95,96,10,-5,-1,8,-63
14:44:06:661927,9,-17,20,-3,-2,-12,-3,-48
14:44:06:676099,-5,21,-32,-1,11,14,24,11
14:44:06:676870,-5,21,-32,-1,11,14,24,11
14:44:06:682912,-14,10,-19,-2,1,-1,-5,-55
14:44:06:690400,-2,-34,-17,-10,-10,-9,-6,-7
14:44:06:697995,-2,-34,-17,-10,-10,-9,-6,-7
14:44:06:705352,-51,-80,-20,-7,-5,0,24,95
14:44:06:712850,-14,-8,-29,6,3,10,19,74
14:44:06:721024,-14,-8,-29,6,3,10,19,74
14:44:06:721861,51,37,-28,-2,5,1,-1,-7
14:44:06:736233,-27,-9,-26,-6,-2,0,0,-52
14:44:06:736997,-27,-9,-26,-6,-2,0,0,-52
14:44:06:742891,8,46,21,3,-7,0,-4,32
14:44:06:750393,16,-30,-14,0,-12,-5,9,73
14:44:06:757936,16,-30,-14,0,-12,-5,9,73
14:44:06:765460,-41,-10,-68,-6,-5,-14,-29,-87
14:44:06:772942,37,18,-9,-2,3,2,-5,-17
14:44:06:781094,37,18,-9,-2,3,2,-5,-17
14:44:06:781904,4,32,47,3,-4,-6,13,18
14:44:06:796028,5,27,2,-3,-3,-8,5,-96
14:44:06:796860,5,27,2,-3,-3,-8,5,-96
14:44:06:802922,-21,-70,-7,-12,2,4,6,17
14:44:06:810408,-36,-38,28,-9,-7,-8,-27,-84
14:44:06:817915,-36,-38,28,-9,-7,-8,-27,-84
14:44:06:825375,14,-30,3,9,6,14,13,60
14:44:06:833580,37,48,-31,-7,-4,2,29,127
14:44:06:834414,37,48,-31,-7,-4,2,29,127
14:44:06:840359,-5,29,-65,-1,-3,1,-5,45
14:44:06:856127,20,-2,-10,-5,0,-8,-15,22
14:44:06:856899,20,-2,-10,-5,0,-8,-15,22
14:44:06:862886,23,-7,28,5,5,15,26,12
14:44:06:870391,25,26,-30,-6,-5,-1,5,12
14:44:06:877919,25,26,-30,-6,-5,-1,5,12
14:44:06:885431,-25,-9,12,2,-1,-22,-8,-46
14:44:06:893588,-47,-70,24,0,10,10,-6,8
14:44:06:894429,-47,-70,24,0,10,10,-6,8
14:44:06:900404,19,74,-11,-1,0,0,-6,-21
14:44:06:916168,3,-7,10,-4,-14,-14,1,75
14:44:06:916946,3,-7,10,-4,-14,-14,1,75
14:44:06:922885,-8,-9,7,-14,-15,-9,-24,-102
14:44:06:938625,-11,-25,1,2,1,-1,-5,-8
14:44:06:939428,-11,-25,1,2,1,-1,-5,-8
14:44:06:945388,5,-11,-51,-11,3,5,-5,1
14:44:06:953622,-6,1,2,0,-1,-3,6,0
14:44:06:954442,-6,1,2,0,-1,-3,6,0
14:44:06:960344,-26,-12,2,2,-6,-6,-8,-45
14:44:06:976110,-51,-92,-6,2,-6,-8,-27,-53
14:44:06:976880,-51,-92,-6,2,-6,-8,-27,-53
14:44:06:982887,9,-5,-30,2,9,12,16,76
14:44:06:998573,52,14,33,9,1,-1,17,23
14:44:06:999407,52,14,33,9,1,-1,17,23
14:44:07:5364,-1,-56,114,12,6,12,25,63
14:44:07:13588,-11,-10,13,-8,-6,-3,-11,-51
14:44:07:14411,-11,-10,13,-8,-6,-3,-11,-51
14:44:07:20357,46,49,6,4,8,18,8,84
14:44:07:36074,-21,0,41,4,-3,4,-1,23
14:44:07:36865,-21,0,41,4,-3,4,-1,23
14:44:07:42862,15,-69,-69,-14,-8,-30,-20,8
14:44:07:50358,-5,14,-10,11,20,24,24,54
14:44:07:57915,-5,14,-10,11,20,24,24,54
14:44:07:65372,28,41,53,9,-4,1,4,-28
14:44:07:73578,11,47,-30,-5,3,-8,-2,-15
14:44:07:74412,11,47,-30,-5,3,-8,-2,-15
14:44:07:80388,7,49,-4,-5,-2,0,-2,32
14:44:07:96081,-10,14,3,-3,-7,-10,-20,4
14:44:07:96880,-10,14,3,-3,-7,-10,-20,4
14:44:07:102902,-20,-4,-13,-1,-6,-11,-9,-34
14:44:07:110374,52,33,-28,-6,2,1,-18,58
14:44:07:117949,52,33,-28,-6,2,1,-18,58
14:44:07:125368,8,28,-40,1,4,-4,-14,-39
14:44:07:133577,-9,-41,-35,-7,-7,-7,8,-23
14:44:07:134426,-9,-41,-35,-7,-7,-7,8,-23
14:44:07:140384,-19,-21,11,-2,-4,0,-4,-57
14:44:07:156141,-24,-38,-26,-19,-20,-17,-12,15
14:44:07:156893,-24,-38,-26,-19,-20,-17,-12,15
14:44:07:162927,-87,-34,-35,-5,3,5,-23,-83
14:44:07:170376,-9,-7,-12,-6,-1,-1,12,49
14:44:07:177996,-9,-7,-12,-6,-1,-1,12,49
14:44:07:185407,-43,23,32,6,8,-11,-15,6
14:44:07:193540,-54,27,-27,0,11,11,-11,-108
14:44:07:194387,-54,27,-27,0,11,11,-11,-108
14:44:07:200422,10,-61,-32,-5,-5,3,6,-40
14:44:07:216069,42,32,-70,-2,1,2,21,33
14:44:07:216843,42,32,-70,-2,1,2,21,33
14:44:07:222852,16,27,-37,-12,-5,3,5,-28
14:44:07:230363,-10,-46,17,0,-6,-10,-20,-47
14:44:07:237930,-10,-46,17,0,-6,-10,-20,-47
14:44:07:245413,15,119,60,13,0,4,-10,47
14:44:07:253536,-22,-34,43,6,3,7,20,62
14:44:07:254347,-22,-34,43,6,3,7,20,62
14:44:07:260355,85,10,44,7,0,14,47,127
14:44:07:276050,31,28,59,5,4,-5,-22,-7
14:44:07:276865,31,28,59,5,4,-5,-22,-7
14:44:07:282941,5,-10,23,0,0,3,-10,-45
14:44:07:290385,23,24,-15,-7,-5,-7,-6,-35
14:44:07:297949,23,24,-15,-7,-5,-7,-6,-35
14:44:07:305340,-8,-21,-19,-9,2,2,31,40
14:44:07:313558,-16,-5,-21,-5,2,10,9,30
14:44:07:314408,-16,-5,-21,-5,2,10,9,30
14:44:07:320343,3,49,32,4,-8,-18,-53,-8
14:44:07:336111,28,-65,-46,-16,-8,-12,4,92
14:44:07:336897,28,-65,-46,-16,-8,-12,4,92
14:44:07:342878,43,-28,12,-2,-3,-11,-27,-35
14:44:07:350351,-4,28,-10,0,2,12,-2,50
14:44:07:357916,-4,28,-10,0,2,12,-2,50
14:44:07:365411,-45,-2,-35,-9,-3,-8,-19,-37
14:44:07:373584,-15,-47,44,7,1,2,1,-4
14:44:07:374406,-15,-47,44,7,1,2,1,-4
14:44:07:380356,10,35,23,3,-2,-1,13,8
14:44:07:396095,-61,3,-17,-3,5,-20,-34,-70
14:44:07:396887,-61,3,-17,-3,5,-20,-34,-70
14:44:07:402875,83,54,37,-2,-2,0,-16,39
14:44:07:410367,78,93,-7,17,1,6,24,114
14:44:07:417945,78,93,-7,17,1,6,24,114
14:44:07:425373,-85,-103,-27,-2,-3,-9,-4,50
14:44:07:433584,19,19,-19,-6,-1,9,28,53
14:44:07:434397,19,19,-19,-6,-1,9,28,53
14:44:07:440374,20,3,-26,2,5,13,4,9
14:44:07:456129,-5,21,54,12,-2,3,6,44
14:44:07:456933,-5,21,54,12,-2,3,6,44
14:44:07:462907,9,65,86,13,12,10,20,60
14:44:07:470390,36,65,20,-4,-10,-3,-27,-62
14:44:07:477948,36,65,20,-4,-10,-3,-27,-62
14:44:07:485439,-23,3,-8,-5,-4,-13,3,2
14:44:07:493512,54,-67,-9,-2,3,5,10,-54
14:44:07:494367,54,-67,-9,-2,3,5,10,-54
14:44:07:500408,31,-50,-43,-2,-4,-2,46,42
14:44:07:516050,38,2,40,4,8,9,12,53
14:44:07:516848,38,2,40,4,8,9,12,53
14:44:07:522866,-25,-66,-17,-5,-3,1,-6,13
14:44:07:530361,-30,56,83,19,3,-5,-4,-23
14:44:07:537941,-30,56,83,19,3,-5,-4,-23
14:44:07:545426,0,47,4,3,1,6,21,14
14:44:07:553597,-71,-14,-16,-15,-8,-13,2,4
14:44:07:554371,-71,-14,-16,-15,-8,-13,2,4
14:44:07:560380,-29,3,25,8,8,9,0,-18
14:44:07:576057,-59,7,-61,-20,-18,-14,-26,-128
14:44:07:576884,-59,7,-61,-20,-18,-14,-26,-128
14:44:07:582934,17,-75,-35,-11,-5,1,6,98
14:44:07:598580,-57,12,54,5,2,-4,-26,0
14:44:07:599398,-57,12,54,5,2,-4,-26,0
14:44:07:605382,-33,8,-4,-5,-6,-8,-24,-51
14:44:07:613604,-3,-6,-6,2,7,-1,2,3
14:44:07:614406,-3,-6,-6,2,7,-1,2,3
14:44:07:627917,-31,27,24,2,4,6,15,-6
14:44:07:636062,-18,40,9,6,5,15,-21,-68
14:44:07:636877,-18,40,9,6,5,15,-21,-68
14:44:07:642940,-10,-112,-72,-11,-11,-6,-17,44
14:44:07:658639,19,-25,-1,1,0,-4,5,40
14:44:07:659465,19,-25,-1,1,0,-4,5,40
14:44:07:665422,43,79,-25,1,3,-2,15,-28
14:44:07:673593,52,-10,-38,-1,5,18,31,82
14:44:07:674378,52,-10,-38,-1,5,18,31,82
14:44:07:687912,-15,13,32,5,-1,3,1,1
14:44:07:696078,6,-18,-51,-10,-10,-17,-9,6
14:44:07:696919,6,-18,-51,-10,-10,-17,-9,6
14:44:07:702886,5,53,55,8,5,12,-2,16
14:44:07:718622,20,-13,-28,-18,-4,4,8,28
14:44:07:719445,20,-13,-28,-18,-4,4,8,28
14:44:07:725386,-20,5,-20,-3,-1,0,29,-74
14:44:07:733572,-9,-5,8,7,-1,-7,-2,32
14:44:07:734344,-9,-5,8,7,-1,-7,-2,32
14:44:07:747905,1,48,2,-2,3,6,18,-12
14:44:07:756091,-47,47,36,4,-6,-7,-21,-119
14:44:07:756925,-47,47,36,4,-6,-7,-21,-119
14:44:07:762914,7,-32,-28,-3,-6,0,0,54
14:44:07:778611,13,-42,32,10,8,7,4,28
14:44:07:779417,13,-42,32,10,8,7,4,28
14:44:07:785393,-31,-69,13,-6,-4,-4,-24,-31
14:44:07:793560,-21,-52,2,0,4,7,32,52
14:44:07:794383,-21,-52,2,0,4,7,32,52
14:44:07:807938,10,46,42,6,-4,-14,-40,-29
14:44:07:816106,-74,-22,-17,-12,-11,-25,-62,-117
14:44:07:816918,-74,-22,-17,-12,-11,-25,-62,-117
14:44:07:822835,24,-63,-58,-11,-6,-20,-49,-16
14:44:07:838597,121,79,13,5,0,13,8,121
14:44:07:839378,121,79,13,5,0,13,8,121
14:44:07:845336,13,-6,-12,-10,-5,1,10,36
14:44:07:853577,-50,35,10,4,-1,-10,-27,-103
14:44:07:854386,-50,35,10,4,-1,-10,-27,-103
14:44:07:867848,-1,2,25,5,2,0,14,9
14:44:07:876050,74,29,-47,-3,2,21,26,55
14:44:07:876851,74,29,-47,-3,2,21,26,55
14:44:07:882910,-3,-30,-71,-9,2,-5,15,56
14:44:07:898584,23,-28,15,1,2,-1,24,83
14:44:07:899380,23,-28,15,1,2,-1,24,83
14:44:07:905322,23,48,61,8,5,12,4,79
14:44:07:913549,-36,-86,-59,-3,3,-2,16,5
14:44:07:914371,-36,-86,-59,-3,3,-2,16,5
14:44:07:927813,45,118,71,2,-1,1,0,-2
14:44:07:936174,-15,-24,1,-5,-6,-4,-11,-31
14:44:07:936891,-15,-24,1,-5,-6,-4,-11,-31
14:44:07:942890,7,0,4,3,-3,6,18,-42
14:44:07:958567,7,0,4,3,-3,6,18,-42
14:44:07:959385,-63,-54,-24,-12,-2,-10,-2,-82
14:44:07:965377,3,-4,24,-5,1,0,8,95
14:44:07:981041,3,-4,24,-5,1,0,8,95
14:44:07:981895,-19,17,-5,-4,-5,-13,-13,-4
14:44:07:987898,-20,8,-43,6,3,7,8,-24
14:44:07:996055,-20,8,-43,6,3,7,8,-24
14:44:07:996883,-7,-41,-40,-9,-5,-5,-28,-39
14:44:08:2827,-5,-17,0,4,4,13,43,74
14:44:08:18608,-5,-17,0,4,4,13,43,74
14:44:08:19356,-40,3,39,-5,-8,-29,-62,-26
14:44:08:25429,-45,47,-62,-4,-1,-6,-17,-128
14:44:08:41127,-45,47,-62,-4,-1,-6,-17,-128
14:44:08:41897,34,-23,50,12,8,8,32,62
14:44:08:47928,-17,-1,-2,-4,-5,-1,-8,-10
14:44:08:56097,-17,-1,-2,-4,-5,-1,-8,-10
14:44:08:56869,-29,71,0,-2,-6,-3,1,-85
14:44:08:62897,-16,-21,14,4,6,1,-2,-1
14:44:08:78582,-16,-21,14,4,6,1,-2,-1
14:44:08:79343,44,4,2,0,5,22,46,91
14:44:08:85390,-10,-32,-8,-3,-7,-10,-6,74
14:44:08:92898,-10,-32,-8,-3,-7,-10,-6,74
14:44:08:100346,43,57,57,7,-2,-5,-12,-7
14:44:08:107872,4,-78,-11,-2,5,15,-2,12
14:44:08:116121,4,-78,-11,-2,5,15,-2,12
14:44:08:116895,-4,-3,-26,1,1,3,14,45
14:44:08:122829,21,-18,-47,-11,-9,-18,-26,-60
14:44:08:138661,21,-18,-47,-11,-9,-18,-26,-60
14:44:08:139379,4,34,51,5,-1,6,24,-30
14:44:08:145324,34,-1,31,2,2,4,16,96
14:44:08:152926,34,-1,31,2,2,4,16,96
14:44:08:160432,45,-10,-75,-12,-7,-9,-21,-15
14:44:08:167879,-16,-8,53,0,-9,-12,-26,-14
14:44:08:176116,-16,-8,53,0,-9,-12,-26,-14
14:44:08:176850,17,31,32,8,8,14,21,44
14:44:08:182925,-69,-15,2,-19,-17,-26,-40,11
14:44:08:198597,-69,-15,2,-19,-17,-26,-40,11
14:44:08:199344,-63,-45,-9,-8,-1,3,4,-30
14:44:08:205378,-24,-41,34,6,-4,7,6,-47
14:44:08:212985,-24,-41,34,6,-4,7,6,-47
14:44:08:220345,-16,-18,-8,2,9,2,12,23
14:44:08:227859,6,-30,4,2,6,1,2,2
14:44:08:236222,6,-30,4,2,6,1,2,2
14:44:08:236915,23,4,25,8,1,4,18,58
14:44:08:242880,0,49,-58,-7,5,-1,23,-12
14:44:08:258614,0,49,-58,-7,5,-1,23,-12
14:44:08:259444,-14,2,-27,-7,-7,-10,-47,-85
14:44:08:265406,10,43,-61,-2,5,1,12,95
14:44:08:272942,10,43,-61,-2,5,1,12,95
14:44:08:280429,-6,24,54,5,-1,-4,-35,-55
14:44:08:287935,7,-32,2,-5,-7,-27,-67,-86
14:44:08:296085,7,-32,2,-5,-7,-27,-67,-86
14:44:08:296865,-47,-15,-74,-12,-3,3,9,41
14:44:08:302933,24,5,-27,2,1,8,11,-9
14:44:08:318672,24,5,-27,2,1,8,11,-9
14:44:08:319389,39,3,7,0,-3,1,-5,23
14:44:08:325365,17,-13,-9,2,-3,-3,6,-20
14:44:08:341153,17,-13,-9,2,-3,-3,6,-20
14:44:08:341924,11,-7,-21,2,3,1,23,59
14:44:08:347858,-103,-24,-40,-15,-18,-25,-75,-128
14:44:08:356121,-103,-24,-40,-15,-18,-25,-75,-128
14:44:08:356883,7,-66,-49,-7,-6,-17,-37,-12
14:44:08:362918,9,37,37,3,0,13,12,24
14:44:08:378577,9,37,37,3,0,13,12,24
14:44:08:379390,28,37,22,11,5,-2,3,-7
14:44:08:385419,35,11,13,4,18,8,16,77
14:44:08:392908,35,11,13,4,18,8,16,77
14:44:08:400396,-21,-51,20,4,2,13,28,60
14:44:08:407886,-46,93,13,2,-6,1,16,-99
14:44:08:416092,-46,93,13,2,-6,1,16,-99
14:44:08:416877,68,64,1,-3,-2,-11,12,41
14:44:08:422887,29,-71,18,5,9,6,-4,66
14:44:08:438578,29,-71,18,5,9,6,-4,66
14:44:08:439357,-49,-62,-1,-6,-8,-3,-32,-123
14:44:08:445394,23,-15,-3,3,1,1,-16,38
14:44:08:452898,23,-15,-3,3,1,1,-16,38
14:44:08:460421,-1,32,27,3,-1,6,12,26
14:44:08:467900,3,32,22,4,2,6,5,-37
14:44:08:476073,3,32,22,4,2,6,5,-37
14:44:08:476858,58,25,-8,-2,-2,-4,15,90
14:44:08:482910,-69,-72,0,-8,-10,-6,2,88
14:44:08:498618,-69,-72,0,-8,-10,-6,2,88
14:44:08:499383,-33,-35,-45,-4,2,10,8,19
14:44:08:505371,0,-53,-34,2,7,15,44,-23
14:44:08:513589,0,-53,-34,2,7,15,44,-23
14:44:08:514405,-41,-10,36,-2,-8,-11,-14,-84
14:44:08:527879,9,14,35,1,-3,0,11,34
14:44:08:536143,9,14,35,1,-3,0,11,34
14:44:08:536926,9,25,7,0,-2,-4,15,51
14:44:08:550449,17,65,17,4,1,5,31,-5
14:44:08:558607,17,65,17,4,1,5,31,-5
14:44:08:559458,-47,-97,-80,-11,0,3,-16,-17
14:44:08:565419,-18,-22,-11,3,-8,-16,-19,-3
14:44:08:572982,-18,-22,-11,3,-8,-16,-19,-3
14:44:08:580319,-1,79,14,12,10,9,16,48
14:44:08:587904,0,3,-26,-16,-12,-11,-10,-19
14:44:08:596131,0,3,-26,-16,-12,-11,-10,-19
14:44:08:596915,-15,8,-1,4,1,12,-7,-71
14:44:08:610415,-12,6,2,-7,-7,-4,-26,-124
14:44:08:618592,-12,6,2,-7,-7,-4,-26,-124
14:44:08:619377,27,59,80,3,0,-3,4,72
14:44:08:633612,31,29,-13,0,9,4,-11,10
14:44:08:634385,31,29,-13,0,9,4,-11,10
14:44:08:640416,60,27,15,0,-5,-12,15,120
14:44:08:647925,14,28,-1,4,6,12,11,56
14:44:08:656059,14,28,-1,4,6,12,11,56
14:44:08:656908,27,-38,-28,-7,-9,-7,-3,4
14:44:08:670411,-5,-1,13,6,-1,-2,-2,38
14:44:08:678547,-5,-1,13,6,-1,-2,-2,38
14:44:08:679343,13,-54,-23,-4,1,-6,10,-10
14:44:08:685444,-21,-33,-21,7,6,7,14,26
14:44:08:692947,-21,-33,-21,7,6,7,14,26
14:44:08:700360,-12,5,41,9,2,1,-31,-38
14:44:08:707821,16,25,39,8,6,11,19,47
14:44:08:716129,16,25,39,8,6,11,19,47
14:44:08:716869,-35,18,-15,-6,-6,-21,-34,-54
14:44:08:730391,-39,-20,40,-4,-6,-4,-33,-83
14:44:08:738623,-39,-20,40,-4,-6,-4,-33,-83
14:44:08:739389,-8,14,-20,-7,-5,4,12,12
14:44:08:745328,-5,-51,-7,-10,-9,-22,-33,-43
14:44:08:752965,-5,-51,-7,-10,-9,-22,-33,-43
14:44:08:760423,2,49,-15,-8,2,0,23,-29
14:44:08:767901,17,23,-11,-2,1,3,9,-8
14:44:08:776175,17,23,-11,-2,1,3,9,-8
14:44:08:776871,-39,-45,-32,-1,1,7,-13,-36
14:44:08:790380,27,53,39,3,1,4,7,49
14:44:08:798604,27,53,39,3,1,4,7,49
14:44:08:799398,-45,-52,-14,-4,-6,-5,-2,27
14:44:08:805352,69,39,-23,-7,2,3,26,34
14:44:08:812950,69,39,-23,-7,2,3,26,34
14:44:08:820371,-11,38,-23,-10,7,7,-4,-8
14:44:08:827850,-41,-16,7,-2,-13,-20,-19,-24
14:44:08:836123,-41,-16,7,-2,-13,-20,-19,-24
14:44:08:836909,-43,-43,12,-5,-10,0,10,-75
14:44:08:850424,-13,-6,28,7,1,5,9,-73
14:44:08:858629,-13,-6,28,7,1,5,9,-73
14:44:08:859413,20,27,82,7,-1,1,-14,2
14:44:08:865386,7,14,11,6,1,0,17,49
14:44:08:872920,7,14,11,6,1,0,17,49
14:44:08:880426,2,-52,-17,0,1,-2,-16,-33
14:44:08:887962,3,-15,-30,-8,-6,-8,-22,-52
14:44:08:896063,3,-15,-30,-8,-6,-8,-22,-52
14:44:08:896857,-45,-28,10,4,-1,-9,12,-62
14:44:08:910391,13,0,-17,-2,0,8,10,28
14:44:08:918568,13,0,-17,-2,0,8,10,28
14:44:08:919353,44,52,21,5,3,6,6,36
14:44:08:925380,-16,33,-20,1,-1,-1,5,1
14:44:08:932938,-16,33,-20,1,-1,-1,5,1
14:44:08:940317,-6,-59,-31,-6,4,6,-13,0
14:44:08:947888,46,5,-22,-9,4,-8,15,78
14:44:08:956080,46,5,-22,-9,4,-8,15,78
14:44:08:956865,-62,31,-17,2,-9,-7,-40,-72
14:44:08:970402,0,30,-21,3,7,7,-11,36
14:44:08:978551,0,30,-21,3,7,7,-11,36
14:44:08:979340,63,13,41,6,-1,-3,10,-18
14:44:08:985436,27,48,8,1,-1,0,-3,-36
14:44:08:992922,27,48,8,1,-1,0,-3,-36
14:44:09:374,-12,-83,-69,-12,-7,-4,7,127
14:44:09:7820,-19,-36,-8,-3,-1,-4,-13,45
14:44:09:16086,-19,-36,-8,-3,-1,-4,-13,45
14:44:09:16908,-3,15,27,6,14,19,30,85
14:44:09:30401,3,-19,-58,-1,-5,-2,12,33
14:44:09:38570,3,-19,-58,-1,-5,-2,12,33
14:44:09:39369,35,24,15,1,-8,-1,7,86
14:44:09:45330,28,13,28,-4,-5,-6,-26,-34
14:44:09:52924,28,13,28,-4,-5,-6,-26,-34
14:44:09:60401,-36,-31,-37,-7,-2,-3,-2,-127
14:44:09:67931,-27,-52,-35,-6,-1,0,19,87
14:44:09:76130,-27,-52,-35,-6,-1,0,19,87
14:44:09:76869,-12,-2,38,-2,-2,-6,-23,1
14:44:09:90383,6,19,-2,-7,-2,-6,-20,-90
14:44:09:98597,6,19,-2,-7,-2,-6,-20,-90
14:44:09:99398,42,14,21,9,-1,-8,11,-18
14:44:09:105353,-6,24,37,3,5,6,13,-18
14:44:09:112970,-6,24,37,3,5,6,13,-18
14:44:09:120389,5,18,21,-2,-3,-2,-13,-34
14:44:09:127862,-10,-59,-3,3,5,-3,1,24
14:44:09:136134,-10,-59,-3,3,5,-3,1,24
14:44:09:136903,16,44,-1,3,4,4,28,-12
14:44:09:150402,-21,9,20,1,-9,-1,-10,46
14:44:09:158619,-21,9,20,1,-9,-1,-10,46
14:44:09:159403,2,26,-1,4,7,9,6,59
14:44:09:165387,35,-5,39,6,8,7,33,57
14:44:09:172898,35,-5,39,6,8,7,33,57
14:44:09:180431,27,3,8,-1,-1,-6,-12,72
14:44:09:187960,-56,-79,-72,-13,-5,-10,-43,-31
14:44:09:196080,-56,-79,-72,-13,-5,-10,-43,-31
14:44:09:196876,-55,-47,9,1,1,3,21,11
14:44:09:210383,-3,-36,17,0,-4,1,13,31
14:44:09:218559,-3,-36,17,0,-4,1,13,31
14:44:09:219393,-52,-75,-38,-21,-22,-34,-51,-30
14:44:09:225433,-41,26,26,6,1,-2,-5,-56
14:44:09:232934,-41,26,26,6,1,-2,-5,-56
14:44:09:240359,56,69,3,-1,-3,12,17,127
14:44:09:247952,-21,-13,3,4,5,-3,-20,-65
14:44:09:256077,-21,-13,3,4,5,-3,-20,-65
14:44:09:256883,-21,-65,-19,-11,4,5,5,-1
14:44:09:270440,-26,37,35,0,-10,-9,-27,-112
14:44:09:278996,-26,37,35,0,-10,-9,-27,-112
14:44:09:286024,-11,-34,-44,-9,-1,-2,-12,-38
14:44:09:286817,52,13,-5,-2,0,3,15,45
14:44:09:292955,52,13,-5,-2,0,3,15,45
14:44:09:300398,47,58,-3,7,9,7,22,26
14:44:09:307846,-15,-47,-8,0,2,1,8,53
14:44:09:316157,-15,-47,-8,0,2,1,8,53
14:44:09:316946,-24,-61,-28,4,3,10,-3,51
14:44:09:330396,-12,12,46,9,-1,-2,-5,-24
14:44:09:338646,-12,12,46,9,-1,-2,-5,-24
14:44:09:339417,73,23,14,3,-1,-11,0,-25
14:44:09:345374,3,41,-25,2,3,4,-6,-69
14:44:09:352931,3,41,-25,2,3,4,-6,-69
14:44:09:360469,-37,22,-33,-5,-3,-5,-7,-39
14:44:09:367879,-35,-36,-13,-12,-11,-14,-31,-33
14:44:09:376131,-35,-36,-13,-12,-11,-14,-31,-33
14:44:09:376883,57,86,21,0,-10,0,1,21
14:44:09:390373,20,-32,-23,0,1,2,16,75
14:44:09:398587,20,-32,-23,0,1,2,16,75
14:44:09:399385,-23,-1,-35,-4,1,1,-9,-29
14:44:09:405341,-34,-3,-54,-22,-12,-7,8,14
14:44:09:412944,-34,-3,-54,-22,-12,-7,8,14
14:44:09:420379,33,42,7,7,8,5,26,13
14:44:09:427885,38,-1,-25,0,1,2,-2,28
14:44:09:436138,38,-1,-25,0,1,2,-2,28
14:44:09:436917,-29,-24,-13,-16,-1,0,21,41
14:44:09:450387,-14,1,-28,-2,7,9,6,-44
14:44:09:458639,-14,1,-28,-2,7,9,6,-44
14:44:09:459488,-14,9,30,9,-8,-8,3,46
14:44:09:473581,50,0,23,4,6,10,4,37
14:44:09:474411,50,0,23,4,6,10,4,37
14:44:09:480365,13,-1,32,3,0,0,-17,-10
14:44:09:487918,-7,38,14,1,-2,-7,2,82
14:44:09:495463,-7,38,14,1,-2,-7,2,82
14:44:09:502870,-30,-2,49,2,1,-8,-22,-112
14:44:09:510392,23,23,-34,-16,0,8,13,6
14:44:09:518601,23,23,-34,-16,0,8,13,6
14:44:09:519389,35,-4,6,2,2,4,-7,-11
14:44:09:533602,11,-51,34,7,-7,-10,-23,-18
14:44:09:534444,11,-51,34,7,-7,-10,-23,-18
14:44:09:540404,-66,13,-2,3,2,-9,-22,-99
14:44:09:547925,11,-17,9,3,7,8,9,6
14:44:09:555416,11,-17,9,3,7,8,9,6
14:44:09:562949,0,12,-28,2,-5,4,9,52
14:44:09:570372,-13,69,27,1,-5,0,18,3
14:44:09:578577,-13,69,27,1,-5,0,18,3
14:44:09:579360,27,-4,-32,-6,-7,7,14,78
14:44:09:593539,28,71,-3,-2,-7,-16,-26,-114
14:44:09:594372,28,71,-3,-2,-7,-16,-26,-114
14:44:09:600425,-40,-47,13,-7,-7,-7,-28,-37
14:44:09:607902,-15,21,9,2,-5,1,9,41
14:44:09:615412,-15,21,9,2,-5,1,9,41
14:44:09:622826,5,8,21,0,4,3,9,-16
14:44:09:630345,-2,-20,23,7,5,7,10,8
14:44:09:638592,-2,-20,23,7,5,7,10,8
14:44:09:639375,-7,22,14,1,1,0,-2,18
14:44:09:653571,-19,-80,-76,-22,-10,-10,-10,84
14:44:09:654384,-19,-80,-76,-22,-10,-10,-10,84
14:44:09:660339,61,94,83,13,5,6,-10,-34
14:44:09:667844,3,6,31,5,-2,-1,-8,4
14:44:09:675445,3,6,31,5,-2,-1,-8,4
14:44:09:682921,6,-16,0,-3,-4,-6,14,-16
14:44:09:690389,-57,-57,37,9,13,23,20,-93
14:44:09:698606,-57,-57,37,9,13,23,20,-93
14:44:09:699421,-15,-13,6,-2,0,6,25,47
14:44:09:713613,5,-35,-28,-9,-8,-16,-13,-2
14:44:09:714445,5,-35,-28,-9,-8,-16,-13,-2
14:44:09:720389,11,9,-41,-4,-1,-2,-11,12
14:44:09:727836,27,4,-29,-4,-4,0,0,62
14:44:09:735482,27,4,-29,-4,-4,0,0,62
14:44:09:742921,7,-71,-23,-20,-20,-41,-61,-69
14:44:09:750409,9,4,-22,1,1,5,-1,8
14:44:09:758616,9,4,-22,1,1,5,-1,8
14:44:09:759465,-11,48,-28,11,15,2,-10,-16
14:44:09:773578,60,-36,-22,-8,-5,-12,-11,27
14:44:09:774447,60,-36,-22,-8,-5,-12,-11,27
14:44:09:780401,0,3,37,4,0,6,2,-20
14:44:09:787931,-3,43,17,4,1,1,13,87
14:44:09:795472,-3,43,17,4,1,1,13,87
14:44:09:802882,-26,36,-6,0,-1,-7,12,6
14:44:09:810367,-26,31,-17,-7,-7,-7,-13,-38
14:44:09:818573,-26,31,-17,-7,-7,-7,-13,-38
14:44:09:819349,-20,-54,-14,-5,-2,2,6,30
14:44:09:833552,-10,105,69,11,5,-6,-11,-101
14:44:09:834340,-10,105,69,11,5,-6,-11,-101
14:44:09:840375,-10,-66,-70,-11,0,13,11,78
14:44:09:847892,28,36,29,8,-2,2,0,13
14:44:09:855385,28,36,29,8,-2,2,0,13
14:44:09:862897,10,1,51,1,-7,-4,4,13
14:44:09:870376,32,-1,-6,2,10,5,10,41
14:44:09:878568,32,-1,-6,2,10,5,10,41
14:44:09:879360,-14,-3,33,7,8,18,-10,-44
14:44:09:893538,-3,-40,-39,-3,-2,-1,11,9
14:44:09:894401,-3,-40,-39,-3,-2,-1,11,9
14:44:09:900406,-55,-27,-26,-12,-5,-22,-29,-80
14:44:09:907879,-41,-63,-58,-5,-6,-2,-19,28
14:44:09:915425,-41,-63,-58,-5,-6,-2,-19,28
14:44:09:922873,29,46,51,7,-2,4,12,64
14:44:09:930361,29,71,32,-3,-5,-4,-10,81
14:44:09:938583,29,71,32,-3,-5,-4,-10,81
14:44:09:939413,2,-53,-53,-7,-1,-9,0,41
14:44:09:953543,14,-7,36,3,9,16,27,19
14:44:09:954353,14,-7,36,3,9,16,27,19
14:44:09:960358,-5,-20,25,2,-1,1,-1,-53
14:44:09:967882,-11,-38,13,-10,-5,-11,-4,-46
14:44:09:975460,-11,-38,13,-10,-5,-11,-4,-46
14:44:09:982895,-2,-4,-74,-8,-3,0,-6,55
14:44:09:990385,-6,-18,21,8,0,-1,9,34
14:44:09:998619,-6,-18,21,8,0,-1,9,34
14:44:09:999424,34,12,41,3,-7,-10,-9,14
14:44:10:13603,-61,-8,55,-4,-4,-5,-5,-73
14:44:10:14417,-61,-8,55,-4,-4,-5,-5,-73
14:44:10:20376,-38,-7,35,2,4,13,7,2
14:44:10:27866,-13,41,44,0,9,-1,-2,-19
14:44:10:35442,-13,41,44,0,9,-1,-2,-19
14:44:10:42908,-15,3,-34,-9,-7,-14,-17,-95
14:44:10:50394,-41,1,5,-1,-7,1,-16,19
14:44:10:58590,-41,1,5,-1,-7,1,-16,19
14:44:10:59406,-1,50,-13,-5,-2,-6,-11,25
14:44:10:73584,10,-7,-7,1,-6,-4,6,-82
14:44:10:74403,10,-7,-7,1,-6,-4,6,-82
14:44:10:80412,11,3,-7,0,6,9,14,29
14:44:10:87884,22,-20,-45,1,4,11,27,114
14:44:10:95469,22,-20,-45,1,4,11,27,114
14:44:10:102930,35,-14,7,4,0,10,16,-19
14:44:10:110378,-21,20,-24,6,7,-8,-16,34
14:44:10:118547,-21,20,-24,6,7,-8,-16,34
14:44:10:119356,-32,-48,6,-1,1,-4,-4,-29
14:44:10:133530,13,-40,-8,-5,-6,2,-12,-15
14:44:10:134365,13,-40,-8,-5,-6,2,-12,-15
14:44:10:140361,-44,21,-8,-2,-6,-14,-39,-90
14:44:10:147916,-36,9,17,3,0,1,3,-36
14:44:10:155388,-36,9,17,3,0,1,3,-36
14:44:10:162949,25,20,-34,-7,-4,1,-3,78
14:44:10:170411,37,-50,-9,-8,-4,0,9,7
14:44:10:178550,37,-50,-9,-8,-4,0,9,7
14:44:10:179349,50,39,-6,1,9,0,1,-24
14:44:10:193549,71,38,-31,-5,-4,-2,10,45
14:44:10:194383,71,38,-31,-5,-4,-2,10,45
14:44:10:200355,39,32,-24,7,6,7,27,100
14:44:10:207956,6,-16,-58,-7,-7,-8,-4,-8
14:44:10:215507,6,-16,-58,-7,-7,-8,-4,-8
14:44:10:222877,-27,-41,-56,-20,-9,-22,-45,-84
14:44:10:230342,11,50,-6,9,11,23,41,46
14:44:10:238606,11,50,-6,9,11,23,41,46
14:44:10:239417,-69,-75,28,3,0,7,33,70
14:44:10:253572,-11,8,85,-2,-9,-32,-26,-107
14:44:10:254417,-11,8,85,-2,-9,-32,-26,-107
14:44:10:260421,30,28,4,2,5,6,14,45
14:44:10:267882,5,23,-33,-6,3,9,21,22
14:44:10:275470,5,23,-33,-6,3,9,21,22
14:44:10:282927,-7,-9,9,1,-6,-3,10,-13
14:44:10:290378,-10,11,-55,-5,-1,-5,-9,-42
14:44:10:298651,-10,11,-55,-5,-1,-5,-9,-42
14:44:10:299447,-37,-56,20,-2,-8,-12,-25,-35
14:44:10:313675,-6,-16,31,7,10,20,10,58
14:44:10:315161,-6,-16,31,7,10,20,10,58
14:44:10:320350,35,-12,-68,-5,4,15,17,34
14:44:10:327868,-93,-23,-20,-12,-9,-22,-76,-111
14:44:10:335509,-93,-23,-20,-12,-9,-22,-76,-111
14:44:10:342878,7,29,44,8,2,-5,9,56
14:44:10:350393,17,-35,-25,-2,-3,-1,8,10
14:44:10:358546,17,-35,-25,-2,-3,-1,8,10
14:44:10:359349,-22,-9,-3,-9,-6,-8,1,11
14:44:10:373631,-37,-27,-1,5,-6,-5,4,22
14:44:10:374419,-37,-27,-1,5,-6,-5,4,22
14:44:10:380369,13,14,36,9,7,16,36,57
14:44:10:387928,4,47,58,-7,-8,-11,-17,-99
14:44:10:395490,4,47,58,-7,-8,-11,-17,-99
14:44:10:402916,18,-4,-12,-7,-9,-4,-14,28
14:44:10:410460,-14,-34,22,-3,-8,-1,-10,33
