Time,EMG1,EMG2,EMG3,EMG4,EMG5,EMG6,EMG7,EMG8
17:25:40:908322,-1,-3,-2,-2,-1,-2,-1,-2
17:25:40:916442,-1,-3,-2,-2,-1,-2,-1,-2
17:25:40:917225,1,-2,0,-2,1,3,1,-1
17:25:40:930765,-2,-3,-1,0,-1,1,0,-1
17:25:40:938961,-2,-3,-1,0,-1,1,0,-1
17:25:40:939735,-1,1,5,0,-4,-4,-5,-3
17:25:40:945785,0,-4,-6,-1,1,0,1,-2
17:25:40:953299,0,-4,-6,-1,1,0,1,-2
17:25:40:960777,2,1,0,-2,1,1,-2,-1
17:25:40:968286,-2,2,-2,-4,-5,-1,0,-1
17:25:40:976521,-2,2,-2,-4,-5,-1,0,-1
17:25:40:977301,-2,-2,0,0,-1,-4,-2,0
17:25:40:990913,0,-2,-1,1,2,-4,-3,-2
17:25:40:998945,0,-2,-1,1,2,-4,-3,-2
17:25:40:999726,-1,-2,-12,-1,-1,1,1,-1
17:25:41:5775,0,-2,2,-1,-1,-2,0,1
17:25:41:13337,0,-2,2,-1,-1,-2,0,1
17:25:41:20908,-1,0,0,-1,3,4,1,-1
17:25:41:37266,-1,-2,-8,-3,-3,-2,-3,0
17:25:41:37898,-1,-2,-8,-3,-3,-2,-3,0
17:25:41:38682,0,2,1,0,-2,-1,0,-2
17:25:41:50733,-1,-2,1,-2,0,2,-1,-1
17:25:41:59027,-1,-2,1,-2,0,2,-1,-1
17:25:41:59705,-2,-1,0,-1,-2,-4,-1,1
17:25:41:65743,-2,-2,-15,-1,0,0,-1,-2
17:25:41:89679,-2,-2,-15,-1,0,0,-1,-2
17:25:41:90467,-1,-1,2,-1,1,0,-1,-5
17:25:41:91216,-1,-3,5,0,-1,-1,-3,-3
17:25:41:96446,-1,-3,5,0,-1,-1,-3,-3
17:25:41:97293,2,-1,1,-2,-4,-1,0,4
17:25:41:110797,-2,0,2,0,-2,0,0,-1
17:25:41:119034,-2,0,2,0,-2,0,0,-1
17:25:41:119763,-2,-1,-8,-3,-2,-3,0,-2
17:25:41:125869,0,1,0,-1,-2,0,-2,0
17:25:41:141592,0,1,0,-1,-2,0,-2,0
17:25:41:142363,-2,-2,4,-3,-1,-1,-3,0
17:25:41:157194,1,0,1,-2,1,1,-1,-4
17:25:41:158022,1,0,1,-2,1,1,-1,-4
17:25:41:158695,-3,-4,1,1,2,5,2,-1
17:25:41:170797,0,-1,8,3,0,-3,-2,0
17:25:41:179023,0,-1,8,3,0,-3,-2,0
17:25:41:179782,1,-1,-4,-2,0,-4,0,2
17:25:41:185818,-2,0,-2,-1,-4,-4,0,1
17:25:41:193344,-2,0,-2,-1,-4,-4,0,1
17:25:41:200702,-2,-2,1,-2,-1,1,-3,-3
17:25:41:217111,-2,-3,0,-2,1,0,3,-1
17:25:41:217905,-2,-3,0,-2,1,0,3,-1
17:25:41:218749,-2,3,0,-2,-2,-1,-2,-1
17:25:41:230811,-1,-1,-1,-1,-2,-3,-3,-2
17:25:41:239008,-1,-1,-1,-1,-2,-3,-3,-2
17:25:41:239708,0,1,8,0,-2,-3,-2,-3
17:25:41:254148,-1,-2,-1,-1,2,0,0,-1
17:25:41:254780,-1,-2,-1,-1,2,0,0,-1
17:25:41:268895,-1,0,0,0,0,-1,0,1
17:25:41:269684,0,0,0,-1,-2,2,-1,0
17:25:41:276612,0,0,0,-1,-2,2,-1,0
17:25:41:277293,-1,-2,-8,1,-1,0,1,-2
17:25:41:290770,-1,0,-4,-2,-2,-2,0,1
17:25:41:306530,-1,0,-4,-2,-2,-2,0,1
17:25:41:307283,0,-2,-4,0,0,-4,-4,-3
17:25:41:313990,-1,1,6,-2,0,-1,-2,-4
17:25:41:314716,-1,1,6,-2,0,-1,-2,-4
17:25:41:320888,0,0,-1,1,-1,-1,-1,-1
17:25:41:328250,0,-3,-4,0,0,1,-1,-2
17:25:41:335892,0,-3,-4,0,0,1,-1,-2
17:25:41:343240,0,-1,-5,-3,-6,-1,-1,0
17:25:41:350779,-1,-3,-3,-1,1,-1,3,-2
17:25:41:359664,-1,-3,-3,-1,1,-1,3,-2
17:25:41:360390,-2,0,-1,-2,-2,-2,0,-2
17:25:41:374102,-2,-3,-5,2,0,-2,-1,-2
17:25:41:374866,-2,-3,-5,2,0,-2,-1,-2
17:25:41:380767,-1,-1,8,-1,0,-1,0,-3
17:25:41:388263,0,2,-1,-1,-3,2,-2,-1
17:25:41:395881,0,2,-1,-1,-3,2,-2,-1
17:25:41:403246,0,1,0,-2,0,-1,0,0
17:25:41:435980,-2,-2,-1,0,-1,-5,-5,0
17:25:41:436738,-2,-2,-1,0,-1,-5,-5,0
17:25:41:437580,-3,-3,-3,-3,-1,0,-3,-4
17:25:41:438411,0,0,2,-2,-1,1,0,0
17:25:41:441463,0,0,2,-2,-1,1,0,0
17:25:41:442239,-1,-3,-7,2,0,-2,-2,0
17:25:41:448321,0,-2,0,-3,1,-4,0,1
17:25:41:455789,0,-2,0,-3,1,-4,0,1
17:25:41:480303,-2,-2,-9,-3,0,2,0,-1
17:25:41:481007,-1,0,-3,0,-3,0,-3,-2
17:25:41:481829,-1,0,-3,0,-3,0,-3,-2
17:25:41:482626,-2,-2,4,0,1,0,-3,-1
17:25:41:493976,-1,-1,4,0,-2,0,-5,0
17:25:41:494755,-1,-1,4,0,-2,0,-5,0
17:25:41:500780,0,1,0,-3,-2,-4,1,-1
17:25:41:508295,-2,0,0,-1,0,0,1,-1
17:25:41:515799,-2,0,0,-1,0,0,1,-1
17:25:41:531379,-1,-2,-13,-4,1,-4,-1,-2
17:25:41:532174,-1,1,-4,-1,-3,-5,-1,0
17:25:41:546535,-1,1,-4,-1,-3,-5,-1,0
17:25:41:547243,-1,-1,5,0,-3,0,-1,1
17:25:41:553929,-1,-2,-2,1,1,2,-1,0
17:25:41:554789,-1,-2,-2,1,1,2,-1,0
17:25:41:560778,0,0,2,0,0,-1,-2,0
17:25:41:568268,-1,-4,-4,-3,-1,-3,1,-2
17:25:41:583966,-1,-4,-4,-3,-1,-3,1,-2
17:25:41:584762,0,-1,7,-2,-2,1,0,0
17:25:41:590759,0,-2,1,-1,1,2,0,-2
17:25:41:599102,0,-2,1,-1,1,2,0,-2
17:25:41:599801,-1,-4,1,2,-1,0,-1,0
17:25:41:613968,-1,1,-3,0,-1,-4,1,-2
17:25:41:614716,-1,1,-3,0,-1,-4,1,-2
17:25:41:620855,-2,0,-2,-1,-1,-2,-1,-2
17:25:41:628261,-2,-2,-1,-1,-4,-1,0,-3
17:25:41:643933,-2,-2,-1,-1,-4,-1,0,-3
17:25:41:644716,-2,-1,-6,-3,-3,-1,0,-1
17:25:41:650769,1,-3,-6,-1,0,-3,1,1
17:25:41:658977,1,-3,-6,-1,0,-3,1,1
17:25:41:659759,0,-3,-3,-1,0,0,-2,-1
17:25:41:674002,-2,1,3,0,0,0,-2,-1
17:25:41:674752,-2,1,3,0,0,0,-2,-1
17:25:41:680698,0,1,1,-1,-1,-2,-1,-1
17:25:41:696451,1,1,0,-1,0,-1,-3,-2
17:25:41:697252,1,1,0,-1,0,-1,-3,-2
17:25:41:711452,-1,0,0,0,2,0,1,-2
17:25:41:712222,-2,0,0,-1,0,3,0,-2
17:25:41:718974,-2,0,0,-1,0,3,0,-2
17:25:41:719741,1,1,3,-1,2,1,-2,-1
17:25:41:734134,-2,-5,-17,-3,-5,-5,-3,-1
17:25:41:734744,-2,-5,-17,-3,-5,-5,-3,-1
17:25:41:748885,-1,0,-4,2,-2,-2,0,-2
17:25:41:749672,-3,-1,4,1,-2,-1,-1,-1
17:25:41:755884,-3,-1,4,1,-2,-1,-1,-1
17:25:41:763275,0,-1,1,0,-2,-3,-3,-1
17:25:41:770779,0,0,1,-2,2,3,1,-1
17:25:41:779069,0,0,1,-2,2,3,1,-1
17:25:41:779746,-1,0,-3,-4,0,-2,0,-1
17:25:41:810253,-4,0,11,1,-2,-3,-3,-1
17:25:41:811073,-4,0,11,1,-2,-3,-3,-1
17:25:41:811881,-1,0,-2,0,-2,0,1,0
17:25:41:812669,1,-1,0,-1,-4,-5,1,2
17:25:41:815721,1,-1,0,-1,-4,-5,1,2
17:25:41:823294,-2,-3,-8,-2,-1,1,-2,-1
17:25:41:830756,-1,0,-1,1,1,0,0,-2
17:25:41:838977,-1,0,-1,1,1,0,0,-2
17:25:41:839773,1,-1,5,0,-2,-1,-2,-2
17:25:41:862205,0,-2,-4,-2,-2,-1,-1,-2
17:25:41:862971,0,-2,-4,-2,-2,-1,-1,-2
17:25:41:863720,-2,-1,4,0,-2,-1,0,2
17:25:41:868266,0,-2,0,-2,-1,-2,0,0
17:25:41:875831,0,-2,0,-2,-1,-2,0,0
17:25:41:883260,-2,-1,-1,1,-1,0,1,-2
17:25:41:890895,-2,-3,-8,-4,-3,-4,-1,-5
17:25:41:898956,-2,-3,-8,-4,-3,-4,-1,-5
17:25:41:899708,-1,-4,-4,-3,-1,0,-1,-2
17:25:41:922147,-2,0,3,0,1,-3,-2,1
17:25:41:923016,-2,0,3,0,1,-3,-2,1
17:25:41:923660,-1,4,-1,1,2,-1,-1,-1
17:25:41:928206,1,0,2,-2,0,2,-3,1
17:25:41:935846,1,0,2,-2,0,2,-3,1
17:25:41:943327,-2,1,-2,-1,1,0,1,-1
17:25:41:950762,0,-3,-1,-3,-1,0,0,-1
17:25:41:974415,0,-3,-1,-3,-1,0,0,-1
17:25:41:975157,0,-7,-2,-2,-3,-2,-1,-3
17:25:41:990140,-2,-3,-3,-1,-5,2,-1,0
17:25:41:990909,-2,-3,-3,-1,-5,2,-1,0
17:25:41:997117,0,-2,0,-1,0,-3,-2,-1
17:25:41:997873,0,2,2,0,2,-2,-2,0
17:25:41:998674,0,2,2,0,2,-2,-2,0
17:25:42:3258,-1,1,-3,1,1,2,-1,-2
17:25:42:10758,-1,2,-2,0,3,2,-2,-1
17:25:42:35410,-1,2,-2,0,3,2,-2,-1
17:25:42:36051,0,-1,3,-3,-4,-4,-4,0
17:25:42:36856,-1,-3,1,1,4,-1,1,0
17:25:42:37747,-1,-3,1,1,4,-1,1,0
17:25:42:40766,-2,-3,1,0,-2,-2,-1,0
17:25:42:48223,-1,-1,-6,-4,-4,-3,-1,4
17:25:42:55792,-1,-1,-6,-4,-4,-3,-1,4
17:25:42:63252,-1,-3,-8,-2,-2,0,0,0
17:25:42:87245,-1,1,-3,0,0,0,-2,-3
17:25:42:87903,-1,1,-3,0,0,0,-2,-3
17:25:42:88725,-1,0,-2,-2,-1,0,0,-1
17:25:42:93973,1,-1,-3,1,0,-1,-4,-4
17:25:42:94783,1,-1,-3,1,0,-1,-4,-4
17:25:42:100735,-1,0,0,-1,-2,-2,-3,-2
17:25:42:108330,-2,0,2,1,-2,-4,-2,-1
17:25:42:115756,-2,0,2,1,-2,-4,-2,-1
17:25:42:123379,0,-1,0,-1,1,1,0,1
17:25:42:147136,0,2,-2,-2,-3,-1,1,-1
17:25:42:147906,0,2,-2,-2,-3,-1,1,-1
17:25:42:148707,-2,-3,-1,0,0,-2,0,0
17:25:42:154153,-1,-1,-1,-2,1,0,-2,-3
17:25:42:154730,-1,-1,-1,-2,1,0,-2,-3
17:25:42:160775,-1,1,2,-4,-1,-3,-1,-1
17:25:42:168265,-3,-3,0,0,0,1,2,-2
17:25:42:175885,-3,-3,0,0,0,1,2,-2
17:25:42:183276,0,-2,0,-1,-4,-6,-2,-2
17:25:42:199599,-1,-1,2,-1,0,-2,-1,-1
17:25:42:200416,-1,-1,2,-1,0,-2,-1,-1
17:25:42:201216,-1,0,0,-4,0,1,-2,-3
17:25:42:213981,-3,-1,-3,-1,-4,1,-1,-2
17:25:42:214725,-3,-1,-3,-1,-4,1,-1,-2
17:25:42:220899,-3,2,-5,0,-1,-1,1,0
17:25:42:252163,0,-1,-2,0,0,-2,-1,1
17:25:42:268514,0,-1,-2,0,0,-2,-1,1
17:25:42:269255,-2,-1,-3,0,-2,-2,-2,-1
17:25:42:270049,-1,-1,1,-1,-1,0,0,2
17:25:42:270862,-1,-1,1,-1,-1,0,0,2
17:25:42:274611,-1,-2,0,1,-1,0,-1,1
17:25:42:275432,-2,0,-1,-1,-2,-5,-2,-3
17:25:42:276261,-2,0,-1,-1,-2,-5,-2,-3
17:25:42:280733,-2,-3,1,-2,2,2,-2,-1
17:25:42:312843,1,-2,-4,0,0,1,-2,-2
17:25:42:313606,1,-2,-4,0,0,1,-2,-2
17:25:42:314385,1,-2,-2,2,-2,-5,-12,-4
17:25:42:315248,0,0,-5,-1,-1,-2,-4,-3
17:25:42:318301,0,0,-5,-1,-1,-2,-4,-3
17:25:42:325805,1,0,3,-2,-1,-1,-7,1
17:25:42:333892,0,6,4,1,-1,-3,-8,-3
17:25:42:334720,0,6,4,1,-1,-3,-8,-3
17:25:42:340781,-5,-14,-11,-2,-4,-3,-19,-11
17:25:42:365103,-2,-4,-2,1,-1,-1,5,1
17:25:42:365857,-2,-4,-2,1,-1,-1,5,1
17:25:42:366638,0,4,1,0,2,3,4,2
17:25:42:370847,-4,-3,-2,-3,-2,1,0,-2
17:25:42:378325,-4,-3,-2,-3,-2,1,0,-2
17:25:42:385786,1,0,1,-2,-1,-1,5,-1
17:25:42:393951,0,0,-2,3,-1,-2,3,1
17:25:42:394708,0,0,-2,3,-1,-2,3,1
17:25:42:400774,-1,3,-1,-1,1,0,6,0
17:25:42:416910,-2,-3,-1,-6,-2,-1,-3,-2
17:25:42:417706,-2,-3,-1,-6,-2,-1,-3,-2
17:25:42:423291,0,1,0,-2,0,-1,3,1
17:25:42:430706,-2,-1,2,0,-1,4,0,0
17:25:42:438336,-2,-1,2,0,-1,4,0,0
17:25:42:445785,-1,0,-1,-9,-11,-3,4,2
17:25:42:454041,-1,-2,3,-3,6,3,2,-1
17:25:42:454681,-1,-2,3,-3,6,3,2,-1
17:25:42:460797,-4,-2,-5,3,-4,1,1,-1
17:25:42:476460,0,-1,-6,-8,-5,-7,-4,-3
17:25:42:477308,0,-1,-6,-8,-5,-7,-4,-3
17:25:42:483249,0,-3,0,0,-8,-4,0,0
17:25:42:490838,-1,0,-1,-2,-6,-3,-3,-1
17:25:42:498279,-1,0,-1,-2,-6,-3,-3,-1
17:25:42:505807,1,-1,-5,0,2,-1,-1,1
17:25:42:513913,-1,-2,-2,1,0,-3,-2,-1
17:25:42:514717,-1,-2,-2,1,0,-3,-2,-1
17:25:42:520765,-1,0,0,-1,6,2,3,0
17:25:42:536444,-2,-1,1,6,-1,0,-1,-3
17:25:42:537200,-2,-1,1,6,-1,0,-1,-3
17:25:42:543299,-2,2,3,4,2,0,-2,-1
17:25:42:550747,0,-2,-3,-4,-1,0,1,0
17:25:42:558307,0,-2,-3,-4,-1,0,1,0
17:25:42:565778,1,-1,-2,0,1,-1,-2,-1
17:25:42:573718,0,-1,-4,0,-14,-3,-1,-1
17:25:42:588968,0,-1,-4,0,-14,-3,-1,-1
17:25:42:589680,-3,-2,0,-10,-10,-4,-1,-2
17:25:42:596460,0,-2,-4,-6,-3,0,0,0
17:25:42:597215,0,-2,-4,-6,-3,0,0,0
17:25:42:603205,1,-1,1,-3,-1,1,2,0
17:25:42:610763,1,-4,-3,-4,-4,-4,-1,-1
17:25:42:618288,1,-4,-3,-4,-4,-4,-1,-1
17:25:42:625735,-4,3,0,4,4,-1,-2,-1
17:25:42:633929,-1,3,-2,3,4,-2,-3,0
17:25:42:634718,-1,3,-2,3,4,-2,-3,0
17:25:42:640813,1,-4,1,4,2,-1,-1,-4
17:25:42:656431,-3,-2,5,2,3,-1,1,-3
17:25:42:657225,-3,-2,5,2,3,-1,1,-3
17:25:42:663221,-3,-4,-7,-1,-1,-2,-3,1
17:25:42:670766,-2,-2,2,-1,2,6,0,-1
17:25:42:678347,-2,-2,2,-1,2,6,0,-1
17:25:42:685767,-1,0,0,0,1,0,1,-1
17:25:42:693988,-1,-1,0,2,0,-1,-1,-1
17:25:42:694773,-1,-1,0,2,0,-1,-1,-1
17:25:42:700829,0,0,-7,-5,-1,-4,-2,-3
17:25:42:716449,-2,0,-1,-3,3,-1,-2,-2
17:25:42:717249,-2,0,-1,-3,3,-1,-2,-2
17:25:42:723353,-1,0,2,1,4,2,-3,-2
17:25:42:730763,-3,-3,-3,3,7,-2,-1,-1
17:25:42:746504,-3,-3,-3,3,7,-2,-1,-1
17:25:42:747249,0,-2,-9,-2,-1,0,0,0
17:25:42:753963,1,1,2,-2,-7,-3,-1,1
17:25:42:754754,1,1,2,-2,-7,-3,-1,1
17:25:42:760707,-1,-3,-4,-1,-1,2,0,-1
17:25:42:776445,-1,-4,-5,-1,-2,-1,2,-1
17:25:42:777248,-1,-4,-5,-1,-2,-1,2,-1
17:25:42:783207,0,2,2,-10,-2,-2,-1,-2
17:25:42:790792,0,0,-7,19,22,4,0,0
17:25:42:806482,0,0,-7,19,22,4,0,0
17:25:42:807251,-1,0,0,4,3,1,-1,-1
17:25:42:813946,-2,1,6,-1,1,2,-3,0
17:25:42:814744,-2,1,6,-1,1,2,-3,0
17:25:42:820833,-1,-1,6,3,-3,-3,1,0
17:25:42:836556,-1,-1,6,3,-3,-3,1,0
17:25:42:837265,-2,-1,-3,-8,-10,-3,0,-3
17:25:42:843216,-1,-7,-7,-6,-8,-4,-2,-2
17:25:42:859511,-1,-7,-7,-6,-8,-4,-2,-2
17:25:42:860188,2,-4,-2,-1,-3,0,0,-2
17:25:42:865741,-2,1,-1,-5,0,-3,1,-1
17:25:42:873995,-2,1,-1,-5,0,-3,1,-1
17:25:42:874740,-2,-1,-1,-2,-2,0,-1,0
17:25:42:880724,-1,2,4,5,6,2,1,0
17:25:42:896433,-1,2,4,5,6,2,1,0
17:25:42:897231,-1,-4,-2,-6,-7,-6,0,-2
17:25:42:903346,0,2,-1,2,6,7,0,-1
17:25:42:918976,0,2,-1,2,6,7,0,-1
17:25:42:919716,0,-1,-11,-7,8,4,-1,0
17:25:42:925858,-1,0,-10,-8,-9,-5,-4,-1
17:25:42:933924,-1,0,-10,-8,-9,-5,-4,-1
17:25:42:934732,-2,-3,4,-1,-6,-3,-5,0
17:25:42:940808,-1,-1,2,2,-1,0,-1,-2
17:25:42:956492,-1,-1,2,2,-1,0,-1,-2
17:25:42:957239,-1,1,1,2,-3,-1,0,-2
17:25:42:963278,-1,1,3,0,-2,-3,1,-1
17:25:42:979071,-1,1,3,0,-2,-3,1,-1
17:25:42:979784,1,0,1,-5,-5,-2,-2,-1
17:25:42:985759,0,-2,0,3,-1,-1,-2,-1
17:25:42:993970,0,-2,0,3,-1,-1,-2,-1
17:25:42:994738,-1,-1,0,0,-2,-1,-3,-1
17:25:43:793,0,-2,-3,2,-2,-2,-2,2
17:25:43:16472,0,-2,-3,2,-2,-2,-2,2
17:25:43:17227,-3,-2,1,-1,-3,-2,1,-2
17:25:43:23344,0,-1,3,-2,0,2,-1,-2
17:25:43:38976,0,-1,3,-2,0,2,-1,-2
17:25:43:39769,-2,0,-12,-8,2,0,-1,-1
17:25:43:45735,1,1,-4,-1,1,0,0,-1
17:25:43:54191,1,1,-4,-1,1,0,0,-1
17:25:43:54747,1,1,-2,-4,2,-2,1,0
17:25:43:68295,-1,-2,-2,-2,-5,-3,-4,-1
17:25:43:76518,-1,-2,-2,-2,-5,-3,-4,-1
17:25:43:77261,-1,1,11,4,2,0,-3,1
17:25:43:83321,-2,-3,3,-6,2,1,-1,0
17:25:43:98951,-2,-3,3,-6,2,1,-1,0
17:25:43:99742,0,-3,-6,-11,-2,2,0,-2
17:25:43:105785,-1,2,3,-3,-5,-4,-2,-5
17:25:43:114073,-1,2,3,-3,-5,-4,-2,-5
17:25:43:114671,0,2,1,2,-2,-3,-1,-1
17:25:43:120888,-1,0,-3,0,5,1,1,1
17:25:43:136472,-1,0,-3,0,5,1,1,1
17:25:43:137243,-3,-2,-2,-3,-4,0,-1,1
17:25:43:143328,-1,-2,7,3,-4,-2,-3,-1
17:25:43:159044,-1,-2,7,3,-4,-2,-3,-1
17:25:43:159721,2,1,0,3,1,-2,-3,-3
17:25:43:165712,-1,-4,-4,-2,1,-3,-1,0
17:25:43:174079,-1,-4,-4,-2,1,-3,-1,0
17:25:43:174746,-4,-1,-1,-1,-6,-4,0,0
17:25:43:188294,-2,0,-3,1,-3,2,-2,0
17:25:43:196468,-2,0,-3,1,-3,2,-2,0
17:25:43:197219,0,-3,7,9,5,1,2,-1
17:25:43:203239,-1,-1,-4,0,-2,-3,-1,-1
17:25:43:219057,-1,-1,-4,0,-2,-3,-1,-1
17:25:43:219720,-2,2,-10,-15,-6,-5,-4,-1
17:25:43:225737,0,-1,-2,6,6,5,1,-1
17:25:43:233952,0,-1,-2,6,6,5,1,-1
17:25:43:234709,-1,0,4,6,-3,-1,-2,-3
17:25:43:248207,-3,-3,-5,-5,-3,-3,-2,-1
17:25:43:256521,-3,-3,-5,-5,-3,-3,-2,-1
17:25:43:257230,0,-1,-1,1,-1,-2,-1,-1
17:25:43:263251,-1,-1,0,-1,-2,-1,-1,-2
17:25:43:278995,-1,-1,0,-1,-2,-1,-1,-2
17:25:43:279784,0,1,-2,2,-1,1,1,2
17:25:43:285761,-1,-1,3,1,0,-1,2,-1
17:25:43:294352,-1,-1,3,1,0,-1,2,-1
17:25:43:300762,-1,-3,5,0,-3,0,0,-2
17:25:43:308268,0,-1,-4,1,3,0,-1,0
17:25:43:316427,0,-1,-4,1,3,0,-1,0
17:25:43:317199,-2,-2,1,5,5,-2,-1,0
17:25:43:323300,-2,4,2,-8,-8,-3,-2,0
17:25:43:338980,-2,4,2,-8,-8,-3,-2,0
17:25:43:339726,-2,0,-2,3,10,4,-1,-1
17:25:43:345764,0,-6,-4,-3,8,3,-1,-2
17:25:43:353985,0,-6,-4,-3,8,3,-1,-2
17:25:43:354809,-1,-5,1,-6,-6,-1,-1,0
17:25:43:368219,-1,1,-1,-1,-1,1,-1,-2
17:25:43:376521,-1,1,-1,-1,-1,1,-1,-2
17:25:43:377281,-2,0,3,2,0,0,-4,-3
17:25:43:383221,0,-2,-7,2,-7,-7,-2,-1
17:25:43:398946,0,-2,-7,2,-7,-7,-2,-1
17:25:43:399735,0,-2,-4,0,-3,-6,1,-1
17:25:43:405750,-5,-6,1,0,4,2,-2,-3
17:25:43:413941,-5,-6,1,0,4,2,-2,-3
17:25:43:414729,1,0,-3,-6,-4,-1,-3,-1
17:25:43:428294,-1,1,2,-4,-4,-1,2,0
17:25:43:436418,-1,1,2,-4,-4,-1,2,0
17:25:43:437267,1,-1,0,-4,-4,-1,0,-1
17:25:43:443266,2,1,1,7,0,-1,-2,0
17:25:43:458983,2,1,1,7,0,-1,-2,0
17:25:43:459742,-1,-1,-4,-5,2,-1,-3,-2
17:25:43:465803,0,0,9,1,9,0,3,-1
17:25:43:473974,0,0,9,1,9,0,3,-1
17:25:43:474742,-3,-1,2,0,-4,-3,-1,-2
17:25:43:488328,0,-3,-7,-2,10,3,-3,0
17:25:43:496454,0,-3,-7,-2,10,3,-3,0
17:25:43:497239,0,-3,-2,3,2,2,-1,0
17:25:43:503213,-2,0,-3,3,-3,-4,-4,-2
17:25:43:518937,-2,0,-3,3,-3,-4,-4,-2
17:25:43:519715,0,-2,-2,-1,-1,-2,-1,0
17:25:43:525865,-2,-2,-6,-6,-6,-1,-1,-1
17:25:43:533925,-2,-2,-6,-6,-6,-1,-1,-1
17:25:43:534710,-1,0,-4,-3,4,0,-2,0
17:25:43:548281,0,0,0,-6,-4,3,1,0
17:25:43:556487,0,0,0,-6,-4,3,1,0
17:25:43:557192,0,-1,-4,-5,-8,-2,2,-2
17:25:43:563264,0,0,4,6,-4,1,-1,-1
17:25:43:587344,0,0,4,6,-4,1,-1,-1
17:25:43:587939,-3,-9,-7,-9,-4,-1,-4,0
17:25:43:588693,-3,-3,-2,-3,-10,0,0,-3
17:25:43:593984,-3,-3,-2,-3,-10,0,0,-3
17:25:43:594818,-1,2,0,-5,-1,0,-1,-1
17:25:43:608341,-2,1,-4,1,-2,-7,-1,-1
17:25:43:616441,-2,1,-4,1,-2,-7,-1,-1
17:25:43:617230,-1,0,-2,-2,-2,-2,-1,-3
17:25:43:623354,1,-1,-1,-7,-5,-4,0,-2
17:25:43:638975,1,-1,-1,-7,-5,-4,0,-2
17:25:43:639759,0,-3,0,1,-3,-5,-1,-1
17:25:43:645763,2,2,1,-6,-1,4,0,0
17:25:43:654138,2,2,1,-6,-1,4,0,0
17:25:43:654753,0,3,2,1,-2,-1,-1,0
17:25:43:668188,-2,1,0,1,-3,-4,-1,-1
17:25:43:676504,-2,1,0,1,-3,-4,-1,-1
17:25:43:677266,0,-1,1,2,-2,2,2,1
17:25:43:683198,0,0,0,-17,2,-2,-3,-2
17:25:43:698931,0,0,0,-17,2,-2,-3,-2
17:25:43:699699,-1,-1,1,-2,-3,-2,-2,-2
17:25:43:705750,-3,-5,-2,0,-2,-2,-1,0
17:25:43:713987,-3,-5,-2,0,-2,-2,-1,0
17:25:43:714755,1,-2,-5,0,6,2,1,-2
17:25:43:728223,-3,-2,1,4,0,0,-3,-1
17:25:43:736425,-3,-2,1,4,0,0,-3,-1
17:25:43:737258,-1,-2,-5,-1,4,-2,-4,-1
17:25:43:743233,0,-5,-3,1,1,-1,-3,0
17:25:43:759037,0,-5,-3,1,1,-1,-3,0
17:25:43:759733,-1,1,2,-2,-3,0,-1,0
17:25:43:765694,-1,0,-5,1,1,-2,2,1
17:25:43:774030,-1,0,-5,1,1,-2,2,1
17:25:43:774741,-1,2,0,4,6,-2,-1,0
17:25:43:788286,0,2,10,10,-2,-1,-3,-1
17:25:43:804658,0,2,10,10,-2,-1,-3,-1
17:25:43:805362,-1,-3,-4,-2,-6,-2,-1,-1
17:25:43:806216,0,-1,-10,-9,-6,-2,-1,0
17:25:43:818984,0,-1,-10,-9,-6,-2,-1,0
17:25:43:819791,-1,0,13,8,0,-1,0,-2
17:25:43:825790,-3,-5,-7,6,0,-2,-4,-2
17:25:43:833878,-3,-5,-7,6,0,-2,-4,-2
17:25:43:834680,-1,-3,-8,-10,-6,-3,0,-1
17:25:43:848263,-1,-1,1,5,3,-3,1,-1
17:25:43:856438,-1,-1,1,5,3,-3,1,-1
17:25:43:857243,-3,-5,-4,0,0,-2,-2,-1
17:25:43:863216,0,-1,0,-5,0,0,-4,0
17:25:43:878994,0,-1,0,-5,0,0,-4,0
17:25:43:879781,-3,3,5,2,1,2,-1,-3
17:25:43:885745,-4,0,-1,-3,-2,-1,-2,-2
17:25:43:894027,-4,0,-1,-3,-2,-1,-2,-2
17:25:43:894805,-1,2,4,6,-1,-2,-3,-3
17:25:43:908360,0,-4,-8,-4,-1,-2,0,0
17:25:43:916443,0,-4,-8,-4,-1,-2,0,0
17:25:43:917205,-1,0,3,8,-4,-3,0,1
17:25:43:923307,-3,0,19,-2,0,0,0,-1
17:25:43:938999,-3,0,19,-2,0,0,0,-1
17:25:43:939756,-1,-1,-11,-3,1,3,-1,-1
17:25:43:945756,1,3,-9,-4,-3,-2,0,0
17:25:43:954121,1,3,-9,-4,-3,-2,0,0
17:25:43:954783,1,-2,1,-4,-3,-1,-1,-2
17:25:43:977116,-1,2,2,0,-1,2,-1,-2
17:25:43:977882,-1,2,2,0,-1,2,-1,-2
17:25:43:978731,-2,1,3,0,-2,-7,-3,0
17:25:43:983173,1,-2,-3,0,-3,-8,2,1
17:25:43:998897,1,-2,-3,0,-3,-8,2,1
17:25:43:999681,3,-4,-6,-3,1,3,3,1
17:25:44:5807,-2,-1,-10,-2,-2,-3,-3,0
17:25:44:13972,-2,-1,-10,-2,-2,-3,-3,0
17:25:44:14704,-2,3,4,-2,-2,1,-1,-2
17:25:44:28299,1,-3,-4,-7,-4,-1,-4,-3
17:25:44:36447,1,-3,-4,-7,-4,-1,-4,-3
17:25:44:37209,0,-1,-6,-13,-6,-3,1,-2
17:25:44:43279,-1,-2,3,2,1,-4,-3,-4
17:25:44:59010,-1,-2,3,2,1,-4,-3,-4
17:25:44:59696,0,-2,1,-2,2,0,-1,0
17:25:44:65747,-2,-2,-1,1,1,3,-1,1
17:25:44:74037,-2,-2,-1,1,1,3,-1,1
17:25:44:74792,-2,-2,-6,-6,-2,-1,0,-2
17:25:44:88238,-1,-1,-2,2,10,5,3,-3
17:25:44:96454,-1,-1,-2,2,10,5,3,-3
17:25:44:97209,-3,-1,2,3,4,-1,-1,0
17:25:44:103355,1,2,4,3,-3,-4,0,1
17:25:44:118980,1,2,4,3,-3,-4,0,1
17:25:44:119737,-2,0,-1,-2,1,-3,-4,-4
17:25:44:125821,0,-2,-15,-7,-1,2,-2,0
17:25:44:133242,0,-2,-15,-7,-1,2,-2,0
17:25:44:140841,-1,-2,8,4,0,2,-1,0
17:25:44:148246,0,1,-1,-7,-8,-2,1,-1
17:25:44:156498,0,1,-1,-7,-8,-2,1,-1
17:25:44:157211,-2,3,6,3,-2,-3,-2,1
17:25:44:170761,0,0,5,6,-3,1,-1,0
17:25:44:178926,0,0,5,6,-3,1,-1,0
17:25:44:179748,-2,-4,-7,0,1,1,-1,1
17:25:44:185771,0,2,3,9,4,0,-1,-3
17:25:44:201482,0,2,3,9,4,0,-1,-3
17:25:44:202310,1,-2,-8,-5,0,1,2,-2
17:25:44:208264,-4,-4,-2,-2,-1,-3,-2,-2
17:25:44:216459,-4,-4,-2,-2,-1,-3,-2,-2
17:25:44:217191,-1,0,-1,3,-2,-2,-1,-1
17:25:44:230791,-1,0,5,2,6,-2,1,-2
17:25:44:247168,-1,0,5,2,6,-2,1,-2
17:25:44:247872,1,-3,-7,-5,-5,-2,-2,-2
17:25:44:248696,-4,1,4,-5,-4,2,-6,1
17:25:44:253371,-4,1,4,-5,-4,2,-6,1
17:25:44:260793,-3,-1,-4,0,0,2,0,-1
17:25:44:268214,2,0,0,-5,0,-2,3,1
17:25:44:276509,2,0,0,-5,0,-2,3,1
17:25:44:277295,-3,0,3,13,1,-1,1,-3
17:25:44:290876,-1,-3,-3,-5,-4,0,-2,1
17:25:44:307158,-1,-3,-3,-5,-4,0,-2,1
17:25:44:307920,-1,-5,-8,-11,0,2,-1,-2
17:25:44:308689,-3,-4,-5,-9,-9,-5,-5,-5
17:25:44:313301,-3,-4,-5,-9,-9,-5,-5,-5
17:25:44:320727,-1,-2,-3,-5,-3,-3,0,0
17:25:44:328250,-2,2,11,7,4,-1,0,-1
17:25:44:336468,-2,2,11,7,4,-1,0,-1
17:25:44:337361,-2,-6,-51,-43,-6,-3,-2,-1
17:25:44:350688,-1,-3,-12,0,1,-3,-1,-2
17:25:44:358988,-1,-3,-12,0,1,-3,-1,-2
17:25:44:359763,1,1,25,18,2,-4,0,1
17:25:44:365788,-1,-5,1,8,2,1,0,0
17:25:44:373366,-1,-5,1,8,2,1,0,0
17:25:44:380744,0,2,9,0,0,-1,-3,0
17:25:44:388316,-3,-1,13,35,-3,2,-3,-2
17:25:44:396451,-3,-1,13,35,-3,2,-3,-2
17:25:44:397244,0,3,9,13,2,1,-2,2
17:25:44:410808,-1,0,-6,-37,-2,1,0,-3
17:25:44:419035,-1,0,-6,-37,-2,1,0,-3
17:25:44:419771,-2,-1,15,-11,0,1,1,-5
17:25:44:425746,1,0,-8,9,5,-3,-1,0
17:25:44:433326,1,0,-8,9,5,-3,-1,0
17:25:44:440822,2,1,5,4,0,-5,0,2
17:25:44:448237,0,1,-1,-17,-5,1,-1,-3
17:25:44:456503,0,1,-1,-17,-5,1,-1,-3
17:25:44:457289,-1,0,-11,-16,-3,-2,-3,-3
17:25:44:470725,-2,-2,-6,-40,-6,-9,0,-1
17:25:44:479012,-2,-2,-6,-40,-6,-9,0,-1
17:25:44:479739,-3,-4,-14,-5,-1,-1,-3,-3
17:25:44:485840,-1,-2,-11,0,0,5,-2,0
17:25:44:493311,-1,-2,-11,0,0,5,-2,0
17:25:44:500775,-3,0,0,2,-8,-4,0,-1
17:25:44:508309,2,-3,0,-4,-9,-3,-1,-2
17:25:44:516430,2,-3,0,-4,-9,-3,-1,-2
17:25:44:517209,-1,-3,-9,8,-2,-3,-3,0
17:25:44:530814,0,4,8,-3,4,-2,3,4
17:25:44:539028,0,4,8,-3,4,-2,3,4
17:25:44:539794,1,2,9,3,-2,1,1,-2
17:25:44:545731,1,0,0,40,5,4,4,0
17:25:44:553287,1,0,0,40,5,4,4,0
17:25:44:560746,-4,-6,-5,-1,1,-3,0,-4
17:25:44:568191,-1,0,6,11,0,1,0,2
17:25:44:576586,-1,0,6,11,0,1,0,2
17:25:44:577286,-3,-1,-10,-25,1,1,-5,-2
17:25:44:590736,0,-2,3,-13,-4,-1,0,-2
17:25:44:598990,0,-2,3,-13,-4,-1,0,-2
17:25:44:599731,1,1,15,19,4,0,-1,0
17:25:44:605723,-3,-2,-9,-9,-1,-1,-8,-2
17:25:44:613293,-3,-2,-9,-9,-1,-1,-8,-2
17:25:44:620887,0,0,-4,14,7,4,-3,0
17:25:44:628276,-1,0,-12,1,5,1,-2,-4
17:25:44:636505,-1,0,-12,1,5,1,-2,-4
17:25:44:637240,0,-1,3,-20,-6,-6,-1,1
17:25:44:659637,-3,-4,-4,-16,-7,-8,0,-1
17:25:44:660383,-3,-4,-4,-16,-7,-8,0,-1
17:25:44:661207,-2,-3,-5,1,-5,2,4,-1
17:25:44:665703,-1,3,4,2,6,-3,-3,0
17:25:44:673371,-1,3,4,2,6,-3,-3,0
17:25:44:688874,0,-2,6,17,18,10,2,-2
17:25:44:689612,-2,-3,5,21,-1,-1,-1,-4
17:25:44:696444,-2,-3,5,21,-1,-1,-1,-4
17:25:44:697223,1,5,15,3,-7,-5,-1,0
17:25:44:710777,0,-2,-5,-16,-2,-1,0,-1
17:25:44:718934,0,-2,-5,-16,-2,-1,0,-1
17:25:44:719739,1,-5,-19,-16,-9,-3,-5,-1
17:25:44:725788,-2,-1,1,12,-1,-2,-1,0
17:25:44:733284,-2,-1,1,12,-1,-2,-1,0
17:25:44:740832,-3,-2,8,10,-2,-3,-1,-1
17:25:44:748191,-1,-3,-5,-7,-2,2,-3,-1
17:25:44:756628,-1,-3,-5,-7,-2,2,-3,-1
17:25:44:757317,-4,-1,4,-8,-5,-1,0,0
17:25:44:771315,-1,-4,-27,-53,5,-1,4,1
17:25:44:787248,-1,-4,-27,-53,5,-1,4,1
17:25:44:787889,1,1,-3,-5,-2,-7,-2,-3
17:25:44:788696,0,-1,7,4,-5,-1,-1,-2
17:25:44:793317,0,-1,7,4,-5,-1,-1,-2
17:25:44:809028,-1,1,6,-8,-4,1,0,0
17:25:44:809722,0,3,7,15,-6,-1,-1,0
17:25:44:816442,0,3,7,15,-6,-1,-1,0
17:25:44:817193,-3,-3,-10,12,0,-5,-3,-2
17:25:44:830785,-2,-3,2,18,-4,-4,-2,-2
17:25:44:838972,-2,-3,2,18,-4,-4,-2,-2
17:25:44:839777,-1,1,5,17,-9,0,-1,-2
17:25:44:845780,-1,-3,-2,-3,-5,-2,0,-1
17:25:44:853365,-1,-3,-2,-3,-5,-2,0,-1
17:25:44:860770,1,-2,-1,-9,3,0,0,1
17:25:44:868207,1,2,5,10,-2,1,0,-1
17:25:44:876500,1,2,5,10,-2,1,0,-1
17:25:44:877269,-1,0,-4,-7,-4,-5,-1,-2
17:25:44:890862,-2,-3,-3,-5,-1,-1,0,-1
17:25:44:898936,-2,-3,-3,-5,-1,-1,0,-1
17:25:44:899722,0,3,0,4,5,-1,2,-1
17:25:44:905797,-2,0,2,9,7,-2,-2,1
17:25:44:913324,-2,0,2,9,7,-2,-2,1
17:25:44:920877,-1,2,1,-1,-4,2,-1,0
17:25:44:928227,0,-2,-4,5,0,0,2,-1
17:25:44:936525,0,-2,-4,5,0,0,2,-1
17:25:44:937287,0,-1,5,18,11,2,4,1
17:25:44:950767,-4,-7,-14,-19,-2,-2,-1,-1
17:25:44:975354,-4,-7,-14,-19,-2,-2,-1,-1
17:25:44:976083,-1,-4,-3,-6,-5,-3,0,0
17:25:44:976880,0,3,9,5,-1,0,-1,-4
17:25:44:977739,0,3,9,5,-1,0,-1,-4
17:25:44:980744,-4,-6,-23,-23,-2,0,-1,0
17:25:44:988295,-1,-4,-14,-13,-1,2,-1,0
17:25:44:996528,-1,-4,-14,-13,-1,2,-1,0
17:25:44:997203,2,2,14,5,0,-2,-3,-2
17:25:45:10766,0,1,1,5,-2,-3,-4,-1
17:25:45:19015,0,1,1,5,-2,-3,-4,-1
17:25:45:19718,-1,-6,-5,-6,-4,-6,-4,-1
17:25:45:33910,1,6,21,16,2,4,2,1
17:25:45:34704,1,6,21,16,2,4,2,1
17:25:45:40766,-1,0,-8,19,17,5,1,-1
17:25:45:48281,-2,2,2,-4,4,-1,-4,-1
17:25:45:56427,-2,2,2,-4,4,-1,-4,-1
17:25:45:57216,-3,-4,-16,-17,-23,-8,-4,-3
17:25:45:79399,0,-1,-11,0,-12,-3,-1,-2
17:25:45:80189,0,-1,-11,0,-12,-3,-1,-2
17:25:45:85741,-2,-7,-15,-7,0,1,-4,-2
17:25:45:93898,0,0,8,3,0,-9,-1,0
17:25:45:94715,0,0,8,3,0,-9,-1,0
17:25:45:100808,2,10,18,4,3,-1,3,0
17:25:45:108365,-4,-4,-1,-6,-2,1,4,1
17:25:45:115779,-4,-4,-1,-6,-2,1,4,1
17:25:45:123304,-1,-3,14,5,7,2,-1,-4
17:25:45:131408,2,0,1,11,7,-2,-2,0
17:25:45:132213,2,0,1,11,7,-2,-2,0
17:25:45:138209,-4,-1,-4,-3,-2,1,-1,-1
17:25:45:154127,-2,-3,-1,2,0,3,-4,-3
17:25:45:154748,-2,-3,-1,2,0,3,-4,-3
17:25:45:160812,1,-2,-4,-8,-20,-9,-3,-2
17:25:45:168275,-1,2,-8,-15,8,4,4,0
17:25:45:175833,-1,2,-8,-15,8,4,4,0
17:25:45:183212,0,0,1,-1,3,2,-1,-3
17:25:45:191478,-1,-2,2,13,3,0,-3,1
17:25:45:192237,-1,-2,2,13,3,0,-3,1
17:25:45:198185,-2,-3,2,-7,-8,-7,-6,-1
17:25:45:213954,-1,0,2,3,-4,-5,-2,-4
17:25:45:214726,-1,0,2,3,-4,-5,-2,-4
17:25:45:220836,-3,-1,-2,5,5,1,3,0
17:25:45:228251,0,-2,0,-1,-1,2,0,0
17:25:45:243940,0,-2,0,-1,-1,2,0,0
17:25:45:244740,-1,-1,-3,0,-3,-3,-4,-1
17:25:45:251389,-3,-2,-4,4,9,-1,3,-4
17:25:45:252183,-3,-2,-4,4,9,-1,3,-4
17:25:45:258302,-3,-1,-10,-16,18,2,0,-1
17:25:45:274032,-5,-6,-6,6,-6,-11,-6,-2
17:25:45:274754,-5,-6,-6,6,-6,-11,-6,-2
17:25:45:280675,1,-1,1,4,18,13,5,3
17:25:45:288331,0,1,-3,-17,-4,-1,-4,-2
17:25:45:295761,0,1,-3,-17,-4,-1,-4,-2
17:25:45:303303,-4,-2,0,4,5,-5,-4,-3
17:25:45:311437,0,0,3,2,-6,4,3,1
17:25:45:312240,0,0,3,2,-6,4,3,1
17:25:45:318209,2,4,1,-5,-12,-1,-3,-2
17:25:45:333936,-2,-4,-1,2,6,2,-1,-1
17:25:45:334722,-2,-4,-1,2,6,2,-1,-1
17:25:45:340839,2,3,0,-11,-12,-3,1,0
17:25:45:348194,-1,0,3,-1,-8,-3,-3,-1
17:25:45:355828,-1,0,3,-1,-8,-3,-3,-1
17:25:45:363230,-5,-12,-3,-8,-12,-7,-1,-1
17:25:45:370878,1,0,-3,-17,-12,-5,-4,-9
17:25:45:379017,1,0,-3,-17,-12,-5,-4,-9
17:25:45:379778,5,13,4,1,-2,2,1,8
17:25:45:402087,2,1,1,3,1,2,1,-16
17:25:45:402875,2,1,1,3,1,2,1,-16
17:25:45:403712,-5,-10,-9,1,-10,-3,-10,-16
17:25:45:408301,0,1,-8,-8,-2,-2,4,27
17:25:45:415770,0,1,-8,-8,-2,-2,4,27
17:25:45:423292,-6,0,4,-6,-3,-2,-2,-17
17:25:45:431441,-4,-4,-4,2,0,-3,4,-1
17:25:45:432246,-4,-4,-4,2,0,-3,4,-1
17:25:45:438213,-1,-11,-15,8,3,-2,1,11
17:25:45:454111,-1,0,8,-4,2,3,-2,-2
17:25:45:454730,-1,0,8,-4,2,3,-2,-2
17:25:45:460726,4,10,-2,5,3,1,2,1
17:25:45:468218,-7,-13,-8,-15,-14,-7,-9,0
17:25:45:475858,-7,-13,-8,-15,-14,-7,-9,0
17:25:45:483204,-1,-4,9,31,13,6,4,1
17:25:45:491508,0,7,12,23,14,1,-2,-4
17:25:45:492238,0,7,12,23,14,1,-2,-4
17:25:45:498223,3,-1,-25,-19,-5,-3,-1,1
17:25:45:513978,-7,-7,-14,-10,-14,-2,-2,-5
17:25:45:514744,-7,-7,-14,-10,-14,-2,-2,-5
17:25:45:520865,4,7,10,9,20,4,3,3
17:25:45:528262,1,-2,4,2,2,-1,1,-2
17:25:45:535818,1,-2,4,2,2,-1,1,-2
17:25:45:543319,0,-5,-13,-14,-2,0,0,2
17:25:45:551424,4,10,7,14,8,5,2,3
17:25:45:552201,4,10,7,14,8,5,2,3
17:25:45:565747,-6,-3,32,3,-8,-5,-3,-4
17:25:45:573937,2,0,-13,3,2,-1,-4,2
17:25:45:574722,2,0,-13,3,2,-1,-4,2
17:25:45:588901,-2,1,13,0,-15,-7,-4,-2
17:25:45:589710,-1,-3,12,-11,-8,-1,2,-4
17:25:45:595807,-1,-3,12,-11,-8,-1,2,-4
17:25:45:603234,-1,4,-2,3,9,5,4,0
17:25:45:611458,-1,-2,-8,-4,-1,-5,-2,-2
17:25:45:612245,-1,-2,-8,-4,-1,-5,-2,-2
17:25:45:618281,0,-1,3,23,17,3,-3,2
17:25:45:634000,-5,-5,-3,-12,-7,-3,-7,-4
17:25:45:634727,-5,-5,-3,-12,-7,-3,-7,-4
17:25:45:640793,-2,-7,-2,-15,-12,-4,0,4
17:25:45:648227,-8,-1,-2,-7,-7,-5,-4,-19
17:25:45:655805,-8,-1,-2,-7,-7,-5,-4,-19
17:25:45:663298,17,23,2,5,2,6,9,9
17:25:45:671457,-8,-15,-1,8,13,4,-5,10
17:25:45:672193,-8,-15,-1,8,13,4,-5,10
17:25:45:678280,-5,-8,-11,-7,0,-7,-8,-6
17:25:45:702094,2,9,-1,-1,-7,0,5,-5
17:25:45:702926,2,9,-1,-1,-7,0,5,-5
17:25:45:703742,7,8,-4,20,14,3,2,3
17:25:45:708334,-2,4,8,0,-10,0,-1,-4
17:25:45:715800,-2,4,8,0,-10,0,-1,-4
17:25:45:723282,-2,8,1,-25,-7,4,1,-3
17:25:45:731377,3,19,2,15,13,-3,2,6
17:25:45:732191,3,19,2,15,13,-3,2,6
17:25:45:745741,-17,1,0,-9,11,5,-2,-7
17:25:45:754166,10,18,-6,-11,3,3,-3,1
17:25:45:754762,10,18,-6,-11,3,3,-3,1
17:25:45:760783,-6,-18,-7,-5,-9,-3,-1,-8
17:25:45:768221,-2,-11,0,8,-6,-5,-2,-3
17:25:45:775943,-2,-11,0,8,-6,-5,-2,-3
17:25:45:783246,-2,-4,-8,12,4,-6,-5,0
17:25:45:791306,6,-15,-3,18,14,3,1,2
17:25:45:799623,6,-15,-3,18,14,3,1,2
17:25:45:800419,-6,-16,7,9,-13,-5,-2,0
17:25:45:813935,-6,-8,3,14,7,3,3,-4
17:25:45:814704,-6,-8,3,14,7,3,3,-4
17:25:45:820911,-2,-9,-14,-18,2,6,2,-4
17:25:45:828278,-3,-11,-1,-4,-4,-3,0,0
17:25:45:835754,-3,-11,-1,-4,-4,-3,0,0
17:25:45:843310,7,10,5,-17,-5,-4,-4,-2
17:25:45:851402,-6,-8,-10,3,-16,-7,-2,2
17:25:45:852198,-6,-8,-10,3,-16,-7,-2,2
17:25:45:865747,-2,-5,-4,-7,-16,-4,-1,-3
17:25:45:873932,0,-4,-2,-23,-4,2,0,0
17:25:45:874698,0,-4,-2,-23,-4,2,0,0
17:25:45:880744,3,0,-2,-6,-3,-3,-2,0
17:25:45:888249,0,4,6,8,8,-2,-4,-6
17:25:45:895834,0,4,6,8,8,-2,-4,-6
17:25:45:912747,-12,-19,-12,2,-5,-7,-7,-5
17:25:45:913478,1,1,-11,-28,-12,-10,-7,-1
17:25:45:914337,1,1,-11,-28,-12,-10,-7,-1
17:25:45:918282,1,1,15,19,14,14,7,1
17:25:45:933954,8,2,-8,0,-3,2,1,2
17:25:45:934708,8,2,-8,0,-3,2,1,2
17:25:45:940775,-8,-4,-5,12,-2,-10,-3,-6
17:25:45:948229,-2,2,6,-5,7,1,5,2
17:25:45:955874,-2,2,6,-5,7,1,5,2
17:25:45:963263,-1,-3,0,-24,-10,-1,-2,2
17:25:45:979600,2,6,10,42,24,9,1,0
17:25:45:980425,2,6,10,42,24,9,1,0
17:25:45:981155,-2,2,0,10,0,-5,-1,-2
17:25:45:994017,-2,-1,-5,-15,-17,-2,-1,-2
17:25:45:994808,-2,-1,-5,-15,-17,-2,-1,-2
17:25:46:778,5,12,5,6,6,3,-1,2
17:25:46:8364,-6,0,0,-7,-16,-5,-4,-1
17:25:46:15744,-6,0,0,-7,-16,-5,-4,-1
17:25:46:23346,1,7,3,7,-17,-8,-3,-1
17:25:46:31422,-6,-10,-3,3,8,0,2,-4
17:25:46:32223,-6,-10,-3,3,8,0,2,-4
17:25:46:45853,8,-3,5,-5,-11,-5,-2,1
17:25:46:54031,1,-2,6,-6,0,-1,-1,1
17:25:46:54730,1,-2,6,-6,0,-1,-1,1
17:25:46:68230,10,10,-5,-7,3,4,4,2
17:25:46:76550,5,14,3,1,1,-1,1,1
17:25:46:77289,5,14,3,1,1,-1,1,1
17:25:46:83213,-2,5,5,7,7,5,-2,-1
17:25:46:91507,-4,-12,4,5,13,7,2,0
17:25:46:92240,-4,-12,4,5,13,7,2,0
17:25:46:105760,-5,-7,-4,-6,-6,-9,-6,-3
17:25:46:113971,-5,-7,-4,-6,-6,-9,-6,-3
17:25:46:114689,-1,5,-7,-7,-7,-5,-5,-1
17:25:46:120871,0,-10,-4,-5,-3,2,2,-2
17:25:46:136446,0,-10,-4,-5,-3,2,2,-2
17:25:46:137225,-11,-1,-2,-18,-17,-9,-4,-4
17:25:46:143310,1,-2,-6,-7,-11,-9,-7,-1
17:25:46:151506,1,-2,-6,-7,-11,-9,-7,-1
17:25:46:152202,3,-15,1,-9,-5,-1,5,1
17:25:46:165789,-9,-14,0,-8,-5,-6,-3,-5
17:25:46:174031,-9,-14,0,-8,-5,-6,-3,-5
17:25:46:174737,-3,-6,-2,9,-6,-2,-3,-3
17:25:46:180750,-1,1,-1,11,11,5,2,1
17:25:46:196497,-1,1,-1,11,11,5,2,1
17:25:46:197298,-2,0,-4,-22,-15,-5,-8,-2
17:25:46:203225,2,0,0,9,5,5,3,1
17:25:46:211469,2,0,0,9,5,5,3,1
17:25:46:212277,-2,-7,-4,-13,-4,-2,1,-1
17:25:46:225776,-1,12,-2,-19,-5,-5,-6,-3
17:25:46:233980,-1,12,-2,-19,-5,-5,-6,-3
17:25:46:234748,-4,1,-2,-3,-1,5,1,-2
17:25:46:240823,4,14,8,22,6,1,0,-2
17:25:46:256498,4,14,8,22,6,1,0,-2
17:25:46:257227,-2,-4,-3,0,0,4,3,1
17:25:46:263249,-16,-6,-8,-6,0,-4,-1,-1
17:25:46:271530,-16,-6,-8,-6,0,-4,-1,-1
17:25:46:272247,11,5,-2,17,24,3,0,4
17:25:46:285706,-2,-8,-3,-5,9,-1,5,-2
17:25:46:293959,-2,-8,-3,-5,9,-1,5,-2
17:25:46:294780,1,5,-1,2,-9,-11,-5,-3
17:25:46:300701,-5,-8,10,49,19,10,-1,2
17:25:46:316488,-5,-8,10,49,19,10,-1,2
17:25:46:317217,6,7,-2,-1,6,-1,-2,1
17:25:46:323307,-4,-3,-8,-22,-10,-3,0,-2
17:25:46:331461,-4,-3,-8,-22,-10,-3,0,-2
17:25:46:332227,-2,-9,-1,0,6,8,6,-1
17:25:46:345749,1,4,5,0,-2,1,0,0
17:25:46:353989,1,4,5,0,-2,1,0,0
17:25:46:354769,-2,6,1,13,3,-3,-5,-6
17:25:46:368315,3,4,3,-10,-9,-1,2,3
17:25:46:376479,3,4,3,-10,-9,-1,2,3
17:25:46:377248,-10,-10,-6,1,-4,-1,0,-3
17:25:46:383233,-4,0,-10,-5,2,-9,-5,-6
17:25:46:391580,-4,0,-10,-5,2,-9,-5,-6
17:25:46:392309,3,-1,0,0,-3,-4,-2,1
17:25:46:405781,3,0,-1,-6,-4,-2,-3,1
17:25:46:413983,3,0,-1,-6,-4,-2,-3,1
17:25:46:414750,5,15,2,0,-1,2,1,0
17:25:46:420803,1,-7,2,-4,-10,-2,3,1
17:25:46:436485,1,-7,2,-4,-10,-2,3,1
17:25:46:437241,-2,-7,-1,-6,-4,-2,1,2
17:25:46:443234,-1,-8,-3,8,4,2,1,1
17:25:46:459686,-1,-8,-3,8,4,2,1,1
17:25:46:460404,0,-6,-3,-7,-6,-5,-3,-1
17:25:46:474667,-3,6,0,-22,-15,-5,-4,-4
17:25:46:475390,-3,6,0,-22,-15,-5,-4,-4
17:25:46:476186,-1,-7,1,-4,4,-7,-2,2
17:25:46:480781,10,8,-1,0,0,6,2,1
17:25:46:496505,10,8,-1,0,0,6,2,1
17:25:46:497236,-2,1,0,1,-3,-11,-8,-4
17:25:46:503224,-5,-13,-8,-7,-1,0,0,-1
17:25:46:511505,-5,-13,-8,-7,-1,0,0,-1
17:25:46:512272,-1,4,-5,0,0,-1,-5,-4
17:25:46:525840,-1,0,4,-7,-3,1,-4,-4
17:25:46:533964,-1,0,4,-7,-3,1,-4,-4
17:25:46:534738,-7,2,-4,-6,-1,0,-1,-3
17:25:46:540745,-4,5,3,7,0,1,1,0
17:25:46:556467,-4,5,3,7,0,1,1,0
17:25:46:557222,1,5,-2,6,3,0,-2,1
17:25:46:572137,2,-4,-3,11,9,-2,1,1
17:25:46:572899,2,-4,-3,11,9,-2,1,1
17:25:46:573706,0,-8,-2,-21,-15,3,-1,-6
17:25:46:585796,-5,1,3,1,3,-1,-2,0
17:25:46:593970,-5,1,3,1,3,-1,-2,0
17:25:46:594775,5,7,-3,-14,-5,4,-2,3
17:25:46:600718,-3,-4,-2,7,-4,-9,-1,-3
17:25:46:616468,-3,-4,-2,7,-4,-9,-1,-3
17:25:46:617195,2,2,3,-1,-2,0,0,-1
17:25:46:623325,2,-3,-6,-3,0,6,2,-1
17:25:46:631437,2,-3,-6,-3,0,6,2,-1
17:25:46:632226,-3,-5,-7,-3,-9,-11,-9,-4
17:25:46:645788,5,-1,-3,-5,2,-2,-4,-4
17:25:46:654125,5,-1,-3,-5,2,-2,-4,-4
17:25:46:654716,0,-2,-3,3,-1,-4,5,2
17:25:46:660725,-7,2,2,5,-7,-3,-4,-2
17:25:46:684589,-7,2,2,5,-7,-3,-4,-2
17:25:46:685383,-2,7,2,17,21,5,2,-1
17:25:46:686189,-2,-4,-9,-12,-10,-8,-2,0
17:25:46:691545,-2,-4,-9,-12,-10,-8,-2,0
17:25:46:692261,-6,0,5,-2,-2,2,-1,-2
17:25:46:705748,4,3,0,0,5,-1,-3,0
17:25:46:713994,4,3,0,0,5,-1,-3,0
17:25:46:714735,-1,6,5,-10,4,0,-1,0
17:25:46:720920,-8,-21,6,1,5,9,3,-2
17:25:46:744605,-8,-21,6,1,5,9,3,-2
17:25:46:745383,-6,-14,-8,-8,-13,-4,5,-2
17:25:46:746229,4,9,-2,-5,3,3,3,4
17:25:46:751420,4,9,-2,-5,3,3,3,4
17:25:46:752217,2,4,3,7,2,-1,2,-2
17:25:46:765750,-7,-10,-4,6,-3,-14,-4,-5
17:25:46:773997,-7,-10,-4,6,-3,-14,-4,-5
17:25:46:774726,-1,7,2,18,24,6,2,1
17:25:46:780743,1,8,0,-2,5,9,-1,-1
17:25:46:796465,1,8,0,-2,5,9,-1,-1
17:25:46:797262,-2,-16,0,7,-6,-1,-3,0
17:25:46:812226,-3,4,-3,-8,-4,1,-1,-3
17:25:46:812895,-3,4,-3,-8,-4,1,-1,-3
17:25:46:813663,-5,-2,1,-6,-2,2,1,0
17:25:46:825729,3,-7,1,38,19,4,3,1
17:25:46:833955,3,-7,1,38,19,4,3,1
17:25:46:834715,-8,-8,-2,14,5,10,0,-1
17:25:46:840809,-5,0,0,-15,-2,1,-2,0
17:25:46:856438,-5,0,0,-15,-2,1,-2,0
17:25:46:857202,4,5,4,0,0,-5,-1,0
17:25:46:863347,0,2,0,-15,-15,-5,-6,-1
17:25:46:871447,0,2,0,-15,-15,-5,-6,-1
17:25:46:872234,2,1,-2,-17,-13,-2,-1,-2
17:25:46:885737,-4,7,-2,-5,-5,-8,3,0
17:25:46:893944,-4,7,-2,-5,-5,-8,3,0
17:25:46:894713,-1,-16,-3,14,-1,4,-3,-2
17:25:46:900775,-9,-2,-8,-15,-17,-11,-12,-6
17:25:46:924593,-9,-2,-8,-15,-17,-11,-12,-6
17:25:46:925351,7,9,2,-12,0,4,9,1
17:25:46:926221,2,-4,-10,-2,-4,-3,1,1
17:25:46:931416,2,-4,-10,-2,-4,-3,1,1
17:25:46:932222,-5,-1,-6,-5,-10,-12,-11,-3
17:25:46:945755,1,-3,0,-2,-7,-1,-3,-5
17:25:46:953904,1,-3,0,-2,-7,-1,-3,-5
17:25:46:954723,-1,1,-2,-1,-4,-5,-2,1
17:25:46:968267,2,3,5,7,7,-4,2,2
17:25:46:976513,2,3,5,7,7,-4,2,2
17:25:46:977306,2,-6,0,15,9,3,-1,0
17:25:46:983210,-3,-5,-2,2,-5,4,-1,-2
17:25:46:990811,-3,-5,-2,2,-5,4,-1,-2
17:25:46:998239,1,7,2,-4,-2,-4,1,-1
17:25:47:5815,0,-13,-4,-6,-2,-7,-5,-1
17:25:47:13745,0,-13,-4,-6,-2,-7,-5,-1
17:25:47:20769,-4,-8,1,0,0,1,-4,-3
17:25:47:28227,3,19,3,5,6,7,5,0
17:25:47:36424,3,19,3,5,6,7,5,0
17:25:47:37249,0,-5,-1,-7,-4,-7,-5,2
17:25:47:43246,-3,-4,-5,-5,-3,0,-2,1
17:25:47:50818,-3,-4,-5,-5,-3,0,-2,1
17:25:47:58339,0,1,-3,-2,3,0,3,-2
17:25:47:65718,3,-7,3,14,2,-5,-1,-2
17:25:47:82132,3,-7,3,14,2,-5,-1,-2
17:25:47:82910,0,2,0,-8,-7,3,1,-2
17:25:47:88296,-4,-4,2,-16,-1,-1,1,-2
17:25:47:96477,-4,-4,2,-16,-1,-1,1,-2
17:25:47:97259,0,5,-3,9,-10,-25,-13,-7
17:25:47:103242,-2,-5,5,1,1,4,5,4
17:25:47:110886,-2,-5,5,1,1,4,5,4
17:25:47:118199,2,0,-6,-10,-2,-6,-4,2
17:25:47:125809,8,-6,0,14,8,2,1,2
17:25:47:133715,8,-6,0,14,8,2,1,2
17:25:47:140896,-7,-20,-4,-2,0,4,2,0
17:25:47:148241,-6,-3,-6,-19,-4,-8,1,-5
17:25:47:156434,-6,-3,-6,-19,-4,-8,1,-5
17:25:47:157246,-2,4,2,9,7,6,0,1
17:25:47:163357,-4,-9,-2,3,-10,-8,-6,-5
17:25:47:170871,-4,-9,-2,3,-10,-8,-6,-5
17:25:47:186426,2,6,6,6,4,13,5,3
17:25:47:187160,1,0,-6,-12,-8,5,0,-3
17:25:47:201476,1,0,-6,-12,-8,5,0,-3
17:25:47:202293,-6,-20,-3,-6,0,2,-5,-4
17:25:47:208236,-4,4,0,-4,-2,-6,-4,4
17:25:47:216458,-4,4,0,-4,-2,-6,-4,4
17:25:47:217171,4,7,-5,-5,-1,-10,0,1
17:25:47:223253,3,8,6,8,4,7,5,1
17:25:47:230761,3,8,6,8,4,7,5,1
17:25:47:246416,-6,-1,-11,-18,-7,-2,0,-3
17:25:47:247231,-5,-9,-13,-17,-18,-11,-7,-6
17:25:47:253993,-5,-9,-13,-17,-18,-11,-7,-6
17:25:47:254782,4,3,4,3,0,0,4,-2
17:25:47:268247,1,9,2,-1,1,-5,-8,-3
17:25:47:276497,1,9,2,-1,1,-5,-8,-3
17:25:47:277292,-7,-2,-2,-15,-3,-7,-4,-4
17:25:47:283214,3,-12,-5,6,7,9,8,0
17:25:47:307125,3,-12,-5,6,7,9,8,0
17:25:47:307881,-2,5,-4,-4,-11,-4,-2,-1
17:25:47:308730,-12,-7,2,-7,-1,-4,3,-2
17:25:47:313929,-12,-7,2,-7,-1,-4,3,-2
17:25:47:314705,-1,0,0,4,5,-1,-3,0
17:25:47:328319,6,7,2,-7,-2,8,1,-1
17:25:47:336477,6,7,2,-7,-2,8,1,-1
17:25:47:337235,-4,1,0,2,2,2,-2,1
17:25:47:343323,-4,2,-4,3,4,-4,-7,-1
17:25:47:350794,-4,2,-4,3,4,-4,-7,-1
17:25:47:358255,5,6,3,12,8,4,-1,-3
17:25:47:365789,0,5,2,2,0,4,2,-1
17:25:47:373972,0,5,2,2,0,4,2,-1
17:25:47:374745,-11,-18,4,8,1,1,4,-2
17:25:47:388316,1,4,1,-12,-8,-9,-7,0
17:25:47:396470,1,4,1,-12,-8,-9,-7,0
17:25:47:397287,4,8,-1,7,4,3,1,3
17:25:47:403236,-9,-18,-1,5,11,4,2,0
17:25:47:410814,-9,-18,-1,5,11,4,2,0
17:25:47:418236,3,2,1,-10,-4,-1,4,-3
17:25:47:425835,3,-4,1,22,17,-4,3,2
17:25:47:433962,3,-4,1,22,17,-4,3,2
17:25:47:434730,-5,-1,-3,6,3,1,3,-1
17:25:47:448227,0,-4,-5,-9,-7,-5,-5,-4
17:25:47:456494,0,-4,-5,-9,-7,-5,-5,-4
17:25:47:457234,0,-4,-22,-16,-10,-1,-7,1
17:25:47:463239,0,6,4,7,-1,0,-1,1
17:25:47:478974,0,6,4,7,-1,0,-1,1
17:25:47:479750,4,6,0,-10,-12,-1,-2,-3
17:25:47:485735,-1,15,2,-1,-14,1,-3,-2
17:25:47:494012,-1,15,2,-1,-14,1,-3,-2
17:25:47:494734,-3,3,2,-10,10,13,-2,-1
17:25:47:508336,2,-1,-1,-2,-7,-9,0,0
17:25:47:516436,2,-1,-1,-2,-7,-9,0,0
17:25:47:517234,-6,-10,5,-1,-16,-13,-5,-1
17:25:47:531445,1,5,-3,3,-4,-6,-5,-2
17:25:47:532214,1,5,-3,3,-4,-6,-5,-2
17:25:47:538329,-2,-4,-1,12,13,-1,3,0
17:25:47:545745,-6,1,-1,0,-7,0,3,-2
17:25:47:553920,-6,1,-1,0,-7,0,3,-2
17:25:47:554725,0,-4,1,4,-4,-5,-6,-5
17:25:47:568264,-8,-2,-3,0,16,12,0,-2
17:25:47:576465,-8,-2,-3,0,16,12,0,-2
17:25:47:577238,3,3,2,-1,5,0,1,-5
17:25:47:583198,-4,-3,-1,2,-2,-3,-6,-1
17:25:47:590870,-4,-3,-1,2,-2,-3,-6,-1
17:25:47:598191,0,1,-1,-1,0,2,1,1
17:25:47:605741,5,-2,8,-1,6,3,2,3
17:25:47:614000,5,-2,8,-1,6,3,2,3
17:25:47:614718,-3,-7,-3,2,-14,-12,-1,1
17:25:47:645289,-1,-2,-4,10,-2,-2,0,-1
17:25:47:646157,-1,-2,-4,10,-2,-2,0,-1
17:25:47:646931,-3,-4,-8,-3,6,-3,-3,-2
17:25:47:647685,3,2,2,-5,-4,2,-2,0
17:25:47:650877,3,2,2,-5,-4,2,-2,0
17:25:47:658326,-1,4,-1,-13,-1,1,-3,-2
17:25:47:665772,-1,-5,-10,-12,-7,-8,-6,-2
17:25:47:674114,-1,-5,-10,-12,-7,-8,-6,-2
17:25:47:674794,2,1,0,-4,3,0,4,0
17:25:47:688303,7,1,-3,-7,0,0,0,-1
17:25:47:696464,7,1,-3,-7,0,0,0,-1
17:25:47:697270,2,3,7,-28,-8,7,-1,0
17:25:47:711502,-1,-3,3,-2,-5,-6,1,-3
17:25:47:712290,-1,-3,3,-2,-5,-6,1,-3
17:25:47:718259,-5,-6,-3,-5,-19,-17,-4,-4
17:25:47:725852,-3,-2,-13,-13,-4,3,2,-1
17:25:47:733973,-3,-2,-13,-13,-4,3,2,-1
17:25:47:734673,-2,-3,-1,12,0,3,-2,0
17:25:47:748273,1,4,0,8,9,2,-1,3
17:25:47:756502,1,4,0,8,9,2,-1,3
17:25:47:757231,0,2,0,6,-3,5,-1,1
17:25:47:763328,4,-4,10,-3,2,8,4,-2
17:25:47:770790,4,-4,10,-3,2,8,4,-2
17:25:47:778266,0,-1,3,4,3,-2,0,2
17:25:47:785719,-6,-7,-9,-6,-8,-14,-7,-3
17:25:47:793945,-6,-7,-9,-6,-8,-14,-7,-3
17:25:47:794710,9,4,-1,3,6,10,1,2
17:25:47:817071,-3,-7,-5,-10,-7,-4,-3,-2
17:25:47:817890,-3,-7,-5,-10,-7,-4,-3,-2
17:25:47:818694,-4,1,-1,3,-8,-14,-1,-1
17:25:47:823291,-1,0,4,15,22,6,1,2
17:25:47:830850,-1,0,4,15,22,6,1,2
17:25:47:838256,-2,-1,4,6,8,-2,2,-2
17:25:47:845768,-1,9,5,-12,-11,-2,-2,-2
17:25:47:853937,-1,9,5,-12,-11,-2,-2,-2
17:25:47:854751,1,1,-4,-17,-7,3,-4,0
17:25:47:868797,-6,-3,0,6,-6,1,-1,-2
17:25:47:876501,-6,-3,0,6,-6,1,-1,-2
17:25:47:877222,-4,1,-7,3,-2,-1,1,3
17:25:47:883291,-4,0,-6,15,9,-4,0,-4
17:25:47:890828,-4,0,-6,15,9,-4,0,-4
17:25:47:898218,0,5,-9,-4,-4,0,-3,-8
17:25:47:905856,11,-2,-3,-9,7,-3,0,5
17:25:47:913334,11,-2,-3,-9,7,-3,0,5
17:25:47:929062,0,-8,1,3,8,5,3,-1
17:25:47:929707,-2,-2,2,-5,-4,4,-3,-4
17:25:47:936419,-2,-2,2,-5,-4,4,-3,-4
17:25:47:937219,2,2,1,-1,-6,-16,-4,-3
17:25:47:951376,3,4,0,6,8,10,4,0
17:25:47:952192,3,4,0,6,8,10,4,0
17:25:47:958332,-6,-2,-5,2,-1,2,0,-2
17:25:47:965725,1,1,-1,-14,-10,-7,-3,-1
17:25:47:973410,1,1,-1,-14,-10,-7,-3,-1
17:25:47:980829,0,8,5,9,-1,2,1,1
17:25:47:988380,-1,0,-2,-3,-12,-6,-6,0
17:25:47:996505,-1,0,-2,-3,-12,-6,-6,0
17:25:47:997241,-6,-2,-2,-1,1,-3,-1,-2
17:25:48:11190,-3,-8,-1,8,-3,0,2,2
17:25:48:19036,-3,-8,-1,8,-3,0,2,2
17:25:48:19691,0,1,5,6,14,5,6,0
17:25:48:25788,-4,-8,-4,-2,-2,2,-1,-1
17:25:48:33238,-4,-8,-4,-2,-2,2,-1,-1
17:25:48:40831,-4,-14,-4,-10,-8,-12,-10,-3
17:25:48:48196,-1,3,5,20,25,10,6,2
17:25:48:56527,-1,3,5,20,25,10,6,2
17:25:48:57239,4,-1,-4,-2,-3,2,-3,3
17:25:48:71481,-3,-3,-4,-10,-11,-10,-4,-4
17:25:48:72256,-3,-3,-4,-10,-11,-10,-4,-4
17:25:48:78260,3,-13,-1,-2,1,-1,-1,-3
17:25:48:85759,0,-1,-1,-10,-12,-5,1,-4
17:25:48:93397,0,-1,-1,-10,-12,-5,1,-4
17:25:48:100736,-2,6,0,7,-5,1,-4,2
17:25:48:108332,0,-2,4,-4,-3,1,-6,0
17:25:48:116423,0,-2,4,-4,-3,1,-6,0
17:25:48:117210,-2,-11,1,7,-3,-6,-4,-6
17:25:48:131404,6,3,2,7,14,7,6,1
17:25:48:132236,6,3,2,7,14,7,6,1
17:25:48:138271,5,6,2,8,9,1,1,0
17:25:48:145754,-8,-5,-4,-10,-15,-6,-5,-2
17:25:48:153363,-8,-5,-4,-10,-15,-6,-5,-2
17:25:48:160835,-3,-6,-5,-16,-9,-12,-1,-1
17:25:48:168235,-1,2,2,3,1,8,4,0
17:25:48:176517,-1,2,2,3,1,8,4,0
17:25:48:177237,-5,-3,-3,-7,-7,-1,-1,-5
17:25:48:191562,5,5,1,20,5,-7,-4,-2
17:25:48:192259,5,5,1,20,5,-7,-4,-2
17:25:48:198204,-1,8,7,20,12,9,3,4
17:25:48:205742,7,3,-2,-11,-9,-3,-5,1
17:25:48:213368,7,3,-2,-11,-9,-3,-5,1
17:25:48:220875,-5,-1,-7,-10,-4,-1,-7,-2
17:25:48:228253,-7,8,0,2,1,-2,2,-3
17:25:48:236400,-7,8,0,2,1,-2,2,-3
17:25:48:237286,-3,-7,-5,-13,-9,-1,2,-1
17:25:48:251390,-8,-8,0,2,-3,5,-2,-3
17:25:48:252180,-8,-8,0,2,-3,5,-2,-3
17:25:48:258344,1,4,4,-3,-2,1,2,3
17:25:48:265714,-3,-10,-2,-12,-20,-12,-4,-2
17:25:48:273337,-3,-10,-2,-12,-20,-12,-4,-2
17:25:48:280806,4,-2,-2,-5,17,22,6,0
17:25:48:288307,-3,1,-7,4,6,1,-2,-1
17:25:48:296515,-3,1,-7,4,6,1,-2,-1
17:25:48:297200,-5,-5,-3,-11,-10,-15,-7,-6
17:25:48:311504,-3,-4,-7,4,11,3,3,-1
17:25:48:312257,-3,-4,-7,4,11,3,3,-1
17:25:48:318190,-3,-3,0,1,-6,6,2,3
17:25:48:325905,-4,-17,-1,1,-6,-12,-2,-1
17:25:48:333255,-4,-17,-1,1,-6,-12,-2,-1
17:25:48:340779,-6,-5,1,0,4,3,-1,-2
17:25:48:348238,6,6,-4,0,2,7,2,4
17:25:48:363980,6,6,-4,0,2,7,2,4
17:25:48:364685,-9,-6,-1,4,-3,-10,-1,-2
17:25:48:371537,-9,-8,-2,4,28,4,-2,-3
17:25:48:372213,-9,-8,-2,4,28,4,-2,-3
17:25:48:378288,6,-2,3,2,0,3,-1,0
17:25:48:385809,-4,1,-3,-7,-10,-5,-4,-3
17:25:48:393317,-4,1,-3,-7,-10,-5,-4,-3
17:25:48:400782,0,7,-1,-7,-1,-8,0,-2
17:25:48:408287,0,6,4,-8,-11,-6,-2,-2
17:25:48:416412,0,6,4,-8,-11,-6,-2,-2
17:25:48:417215,-9,-7,-2,14,2,-6,-4,-4
17:25:48:431390,9,7,-6,-4,-11,-6,1,0
17:25:48:432197,9,7,-6,-4,-11,-6,1,0
17:25:48:438264,-5,-15,-2,-7,-3,1,-3,-6
17:25:48:445747,11,2,-6,18,12,5,-3,5
17:25:48:453287,11,2,-6,18,12,5,-3,5
17:25:48:460804,3,8,-5,8,5,-3,-1,4
17:25:48:468245,-3,-2,2,-11,-16,-7,-2,-5
17:25:48:476529,-3,-2,2,-11,-16,-7,-2,-5
17:25:48:477272,4,9,-1,7,11,-8,-4,-2
17:25:48:491507,-3,-3,3,9,19,13,5,0
17:25:48:492262,-3,-3,3,9,19,13,5,0
17:25:48:498170,-2,-14,-1,-11,-11,1,-4,-3
17:25:48:505781,-3,-1,2,-9,-10,-9,-3,-3
17:25:48:513320,-3,-1,2,-9,-10,-9,-3,-3
17:25:48:520777,7,6,-3,-8,15,-2,2,5
17:25:48:528261,-4,-3,5,-14,-6,9,1,-1
17:25:48:536423,-4,-3,5,-14,-6,9,1,-1
17:25:48:537198,0,5,-1,-2,-7,-2,2,-2
17:25:48:551376,0,-3,-4,-7,-4,-4,-3,-4
17:25:48:552229,0,-3,-4,-7,-4,-4,-3,-4
17:25:48:558365,10,16,4,-5,10,11,5,2
17:25:48:565736,5,0,-4,-6,-9,-9,-2,1
17:25:48:573356,5,0,-4,-6,-9,-9,-2,1
17:25:48:580835,-7,-11,-24,-3,-12,-7,-8,-2
17:25:48:588308,-5,-11,5,-2,9,1,-2,-1
17:25:48:596479,-5,-11,5,-2,9,1,-2,-1
17:25:48:597312,-3,-17,-6,-9,-15,-4,-3,-3
17:25:48:611470,-5,4,-6,4,-2,-2,-2,-2
17:25:48:612296,-5,4,-6,4,-2,-2,-2,-2
17:25:48:618248,-9,7,11,8,-1,0,-2,-2
17:25:48:625772,-5,-16,-3,-3,-4,-8,-4,-3
17:25:48:633317,-5,-16,-3,-3,-4,-8,-4,-3
17:25:48:640760,4,2,7,31,14,5,4,1
17:25:48:648157,6,10,4,-10,-4,2,3,1
17:25:48:656538,6,10,4,-10,-4,2,3,1
17:25:48:657298,-4,-1,-1,-13,-19,-1,1,-4
17:25:48:671474,-1,-2,0,11,7,6,2,3
17:25:48:672275,-1,-2,0,11,7,6,2,3
17:25:48:678199,-4,4,-8,0,-6,-11,-4,-4
17:25:48:685807,-6,-5,-1,-1,2,0,1,0
17:25:48:693285,-6,-5,-1,-1,2,0,1,0
17:25:48:700701,1,3,5,-6,-5,0,-6,0
17:25:48:708347,1,0,-3,-5,-17,-5,-2,-2
17:25:48:716427,1,0,-3,-5,-17,-5,-2,-2
17:25:48:717240,-8,-6,-2,-2,0,-2,3,-4
17:25:48:731416,2,-4,3,6,8,7,2,-3
17:25:48:732234,2,-4,3,6,8,7,2,-3
17:25:48:738335,6,8,5,3,0,-4,5,1
17:25:48:745802,-5,5,-8,3,-6,-10,-5,-4
17:25:48:753366,-5,5,-8,3,-6,-10,-5,-4
17:25:48:760807,1,-3,2,-4,11,7,-4,3
17:25:48:768225,3,8,4,1,1,4,0,1
17:25:48:776420,3,8,4,1,1,4,0,1
17:25:48:777296,-8,-7,-1,18,17,-7,0,-2
17:25:48:791574,1,-1,-5,-3,1,-1,1,-2
17:25:48:792366,1,-1,-5,-3,1,-1,1,-2
17:25:48:798208,6,3,0,-7,-9,-1,-5,-3
17:25:48:805785,-11,-13,-23,-10,-10,-12,-8,-3
17:25:48:813306,-11,-13,-23,-10,-10,-12,-8,-3
17:25:48:820820,3,-2,3,5,8,7,3,1
17:25:48:828288,-10,-15,2,-6,-1,5,2,-2
17:25:48:836449,-10,-15,2,-6,-1,5,2,-2
17:25:48:837246,0,2,-9,-12,-7,-4,-2,-2
17:25:48:851386,3,11,9,2,5,-2,-4,0
17:25:48:852187,3,11,9,2,5,-2,-4,0
17:25:48:858292,4,8,1,-8,-4,1,2,0
17:25:48:873945,0,1,8,2,3,10,6,1
17:25:48:874821,0,1,8,2,3,10,6,1
17:25:48:880804,-1,-3,-1,7,3,1,-3,0
17:25:48:888365,5,1,-1,-9,-7,-2,-3,-1
17:25:48:895797,5,1,-1,-9,-7,-2,-3,-1
17:25:48:903285,-1,-16,-5,-11,-9,2,-5,-1
17:25:48:911429,2,-12,-4,-6,-8,-5,-7,-1
17:25:48:912317,2,-12,-4,-6,-8,-5,-7,-1
17:25:48:918212,-5,1,-1,-10,8,2,3,-1
17:25:48:933906,0,10,0,-5,-7,-7,-5,-5
17:25:48:934697,0,10,0,-5,-7,-7,-5,-5
17:25:48:940874,2,8,0,-9,6,-1,-2,1
17:25:48:948233,-1,1,-7,22,13,6,5,3
17:25:48:955791,-1,1,-7,22,13,6,5,3
17:25:48:963281,2,-6,-5,8,-6,-4,-1,-2
17:25:48:971544,-1,2,4,4,-5,-5,1,0
17:25:48:972216,-1,2,4,4,-5,-5,1,0
17:25:48:978316,0,-2,0,2,-2,7,3,-1
17:25:48:993987,-2,-2,5,2,7,8,2,-2
17:25:48:994703,-2,-2,5,2,7,8,2,-2
17:25:49:687,1,-4,0,-13,-12,-1,-2,2
17:25:49:8264,-3,2,1,-5,5,-1,-1,0
17:25:49:15811,-3,2,1,-5,5,-1,-1,0
17:25:49:23278,-6,-1,-10,1,-1,4,1,-1
17:25:49:31385,8,5,-3,-7,-4,-8,-1,1
17:25:49:32217,8,5,-3,-7,-4,-8,-1,1
17:25:49:38302,-8,0,2,8,5,-3,-1,-2
17:25:49:54086,-5,-3,-1,1,9,1,1,0
17:25:49:54718,-5,-3,-1,1,9,1,1,0
17:25:49:60739,-1,-2,-1,6,0,-6,-2,-4
17:25:49:68218,2,-4,4,-6,-15,-6,-5,0
17:25:49:75892,2,-4,4,-6,-15,-6,-5,0
17:25:49:83215,-3,-3,2,-2,-6,9,2,1
17:25:49:91548,-4,-6,-10,-15,-14,-4,-4,0
17:25:49:92288,-4,-6,-10,-15,-14,-4,-4,0
17:25:49:98254,8,8,-4,-12,-1,2,-1,1
17:25:49:113935,-4,-2,0,-1,1,0,0,-3
17:25:49:114717,-4,-2,0,-1,1,0,0,-3
17:25:49:120846,-6,-12,-1,12,3,-11,-4,-2
17:25:49:136407,-3,-5,-15,-1,-1,-6,-2,-2
17:25:49:137257,-3,-5,-15,-1,-1,-6,-2,-2
17:25:49:143267,3,-5,9,3,6,1,2,-1
17:25:49:151429,-3,-10,-1,3,-4,-3,-2,0
17:25:49:152208,-3,-10,-1,3,-4,-3,-2,0
17:25:49:158318,1,5,-1,2,3,6,1,3
17:25:49:174005,-3,3,2,1,-3,0,-5,-4
17:25:49:174777,-3,3,2,1,-3,0,-5,-4
17:25:49:188966,1,8,5,6,2,-3,-4,-1
17:25:49:189726,-4,-8,-2,1,-1,0,-2,-1
17:25:49:195806,-4,-8,-2,1,-1,0,-2,-1
17:25:49:203236,-3,-5,-5,-13,-13,-10,-4,-5
17:25:49:211485,-1,0,-6,-3,-3,-3,-1,0
17:25:49:212256,-1,0,-6,-3,-3,-3,-1,0
17:25:49:218216,-6,-4,1,0,-5,-1,-2,-2
17:25:49:233669,12,16,15,-1,0,-1,0,-1
17:25:49:241536,12,16,15,-1,0,-1,0,-1
17:25:49:242301,-2,3,0,-1,0,-2,0,-3
17:25:49:248166,-1,0,3,-3,12,1,-2,0
17:25:49:255820,-1,0,3,-3,12,1,-2,0
17:25:49:263253,3,1,-6,-11,0,0,-3,0
17:25:49:271588,0,6,7,13,1,2,0,-2
17:25:49:272237,0,6,7,13,1,2,0,-2
17:25:49:278223,0,3,-2,-3,4,6,6,3
17:25:49:293937,-3,-5,-5,5,6,-2,-1,-2
17:25:49:294752,-3,-5,-5,5,6,-2,-1,-2
17:25:49:300786,3,-5,-13,1,-2,-4,-5,0
17:25:49:308283,-7,-6,-4,-1,-4,-2,0,-5
17:25:49:315791,-7,-6,-4,-1,-4,-2,0,-5
17:25:49:323322,-6,-4,0,10,12,7,3,3
17:25:49:331363,-1,-4,-8,6,3,-9,-8,-2
17:25:49:332199,-1,-4,-8,6,3,-9,-8,-2
17:25:49:338280,-7,1,8,-4,3,-4,4,-3
17:25:49:353994,-3,-14,-3,-1,3,2,3,-2
17:25:49:354757,-3,-14,-3,-1,3,2,3,-2
17:25:49:360759,-5,-13,-14,-21,-23,-3,-11,-4
17:25:49:368250,5,16,9,5,-3,4,4,3
17:25:49:375935,5,16,9,5,-3,4,4,3
17:25:49:383260,-4,2,6,-5,-3,2,6,-1
17:25:49:391408,-1,5,0,-12,-13,-2,-2,-3
17:25:49:392214,-1,5,0,-12,-13,-2,-2,-3
17:25:49:405743,2,7,0,7,3,-1,4,0
17:25:49:413917,2,7,0,7,3,-1,4,0
17:25:49:414684,-10,-12,2,-17,-8,-2,2,-3
17:25:49:420951,11,10,5,0,-9,-17,-5,0
17:25:49:436466,11,10,5,0,-9,-17,-5,0
17:25:49:437227,-4,-6,1,3,10,5,-1,-1
17:25:49:443245,3,4,-5,1,0,-1,-1,-2
17:25:49:451446,3,4,-5,1,0,-1,-1,-2
17:25:49:452248,4,7,-1,-3,7,5,-2,-1
17:25:49:458264,-3,-11,7,6,8,6,4,1
17:25:49:474039,-3,-11,7,6,8,6,4,1
17:25:49:474790,0,2,-4,2,-7,-5,2,2
17:25:49:480727,-3,1,4,-1,-3,-2,-10,-4
17:25:49:496507,-3,1,4,-1,-3,-2,-10,-4
17:25:49:497263,0,1,-3,-5,3,6,3,2
17:25:49:503264,-2,0,0,-5,-4,-5,-4,-3
17:25:49:511499,-2,0,0,-5,-4,-5,-4,-3
17:25:49:512251,4,5,-3,-3,-7,-11,-6,0
17:25:49:518219,-4,-6,-3,0,0,-12,-6,-3
17:25:49:533954,-4,-6,-3,0,0,-12,-6,-3
17:25:49:534726,0,-1,-8,7,8,10,7,-1
17:25:49:540811,1,-3,-9,-2,-11,-6,-3,-1
17:25:49:556545,1,-3,-9,-2,-11,-6,-3,-1
17:25:49:557229,-1,-1,9,2,2,5,-1,1
17:25:49:563239,0,-7,2,-4,-3,3,-3,0
17:25:49:571559,0,-7,2,-4,-3,3,-3,0
17:25:49:572211,0,0,-3,-6,-8,-12,-6,-1
17:25:49:578263,-2,-7,-4,-7,6,1,11,-2
17:25:49:593990,-2,-7,-4,-7,6,1,11,-2
17:25:49:594746,-5,-2,-2,8,5,5,3,-2
17:25:49:600702,-3,-3,1,10,1,1,1,0
17:25:49:616432,-3,-3,1,10,1,1,1,0
17:25:49:617222,-3,3,4,11,5,-1,-3,0
17:25:49:623284,0,6,4,-1,4,7,-5,-5
17:25:49:631455,0,6,4,-1,4,7,-5,-5
17:25:49:632235,4,-1,-9,-9,-4,-10,-2,-2
17:25:49:638279,3,6,-4,-3,0,4,2,4
17:25:49:654043,3,6,-4,-3,0,4,2,4
17:25:49:654719,-5,-12,-10,-8,-4,6,12,2
17:25:49:660737,-5,-6,-14,-8,-13,-9,-4,-5
17:25:49:676493,-5,-6,-14,-8,-13,-9,-4,-5
17:25:49:677220,5,2,6,2,7,3,3,0
17:25:49:683169,-2,0,1,11,-5,-5,-2,0
17:25:49:691443,-2,0,1,11,-5,-5,-2,0
17:25:49:692224,-3,-2,1,2,-4,-4,-11,-4
17:25:49:698247,-1,-2,3,4,7,9,-1,1
17:25:49:713957,-1,-2,3,4,7,9,-1,1
17:25:49:714694,2,5,-1,-13,-16,-12,-10,-2
17:25:49:720873,4,9,14,2,15,5,-7,2
17:25:49:736458,4,9,14,2,15,5,-7,2
17:25:49:737196,0,-8,-3,14,6,5,-3,2
17:25:49:743261,-6,-8,-5,19,7,-6,-10,-6
17:25:49:751476,-6,-8,-5,19,7,-6,-10,-6
17:25:49:752212,-2,1,2,-3,9,9,7,0
17:25:49:758224,4,-2,-5,-5,-7,-3,2,0
17:25:49:773978,4,-2,-5,-5,-7,-3,2,0
17:25:49:774705,-4,-4,-1,-7,-7,-8,-4,-3
17:25:49:780754,-4,-2,-1,-11,-6,-1,7,4
17:25:49:796443,-4,-2,-1,-11,-6,-1,7,4
17:25:49:797210,-3,-4,3,-8,-10,-2,-5,-1
17:25:49:803261,4,4,-1,2,8,0,1,2
17:25:49:818963,4,4,-1,2,8,0,1,2
17:25:49:819757,0,2,1,13,10,-8,-1,1
17:25:49:825784,0,-3,-2,-4,-2,-1,-1,-1
17:25:49:833915,0,-3,-2,-4,-2,-1,-1,-1
17:25:49:834714,0,-1,-2,0,-1,-1,2,-2
17:25:49:840868,-8,-5,10,-4,0,2,-1,-3
17:25:49:856500,-8,-5,10,-4,0,2,-1,-3
17:25:49:857303,-2,-7,0,0,-7,-3,-3,-2
17:25:49:863270,-3,1,-6,-11,-7,-4,-3,-2
17:25:49:871394,-3,1,-6,-11,-7,-4,-3,-2
17:25:49:872191,-2,10,-2,2,8,6,1,1
17:25:49:885740,-4,-8,-5,-7,-13,0,-2,-4
17:25:49:893997,-4,-8,-5,-7,-13,0,-2,-4
17:25:49:894813,2,-1,4,10,15,10,8,-3
17:25:49:900737,-1,8,3,-4,-7,1,4,3
17:25:49:916453,-1,8,3,-4,-7,1,4,3
17:25:49:917213,-6,-8,-13,-11,-8,-9,-6,-4
17:25:49:923308,1,0,-10,-2,3,-1,-3,0
17:25:49:931397,1,0,-10,-2,3,-1,-3,0
17:25:49:932175,1,-2,-3,-7,-2,-5,-3,0
17:25:49:945765,3,5,2,7,-1,-3,1,0
17:25:49:954226,3,5,2,7,-1,-3,1,0
17:25:49:954725,0,1,-8,-6,-14,-6,-3,-5
17:25:49:960771,-3,-10,2,-3,-5,-7,0,-1
17:25:49:976492,-3,-10,2,-3,-5,-7,0,-1
17:25:49:977265,4,-1,0,0,-1,4,-3,-2
17:25:49:983205,0,-1,-6,2,0,-1,-1,1
17:25:49:991550,0,-1,-6,2,0,-1,-1,1
17:25:49:992269,0,5,2,-6,-5,-3,-5,2
17:25:50:5697,-2,2,10,-3,0,4,2,-1
17:25:50:13980,-2,2,10,-3,0,4,2,-1
17:25:50:14728,-2,-4,-9,-5,-8,-3,1,1
17:25:50:28943,-1,-4,1,4,0,1,-1,-1
17:25:50:29760,-1,-4,1,4,0,1,-1,-1
17:25:50:35733,0,0,-1,-2,1,-5,-2,-2
17:25:50:43258,0,1,-7,-7,0,-5,-5,1
17:25:50:51453,0,1,-7,-7,0,-5,-5,1
17:25:50:52226,3,5,4,2,4,7,2,2
17:25:50:65707,-3,1,1,-11,-7,-11,-5,-2
17:25:50:74076,-3,1,1,-11,-7,-11,-5,-2
17:25:50:74758,2,0,0,2,0,1,2,1
17:25:50:80730,-3,-5,-3,-1,-5,-1,-3,0
17:25:50:88293,-3,-5,-3,-1,-5,-1,-3,0
17:25:50:95732,-4,-3,-1,1,6,1,-5,-3
17:25:50:103339,4,7,10,-6,-4,-1,3,-2
17:25:50:111466,4,7,10,-6,-4,-1,3,-2
17:25:50:112263,-2,-2,4,5,0,8,1,-2
17:25:50:125827,1,-7,-8,4,3,0,-2,-3
17:25:50:142207,1,-7,-8,4,3,0,-2,-3
17:25:50:142917,0,1,7,-13,-11,-14,-3,1
17:25:50:143722,-3,-2,-3,0,-6,-3,2,-1
17:25:50:148249,-3,-2,-3,0,-6,-3,2,-1
17:25:50:155785,-4,-2,-7,-10,-12,-10,-7,-4
17:25:50:163262,3,2,2,2,14,16,4,1
17:25:50:171505,3,2,2,2,14,16,4,1
17:25:50:172272,-2,-3,-3,-12,-5,4,4,2
17:25:50:186303,-2,-1,-5,7,7,3,-2,-2
17:25:50:194020,-2,-1,-5,7,7,3,-2,-2
17:25:50:194788,-2,1,0,5,1,-1,2,0
17:25:50:200741,1,3,-2,-4,-10,-12,-1,-1
17:25:50:208465,1,3,-2,-4,-10,-12,-1,-1
17:25:50:215718,-4,-11,-23,-3,-4,-2,-3,-2
17:25:50:223300,-1,-1,0,-1,-5,-3,-6,-2
17:25:50:231435,-1,-1,0,-1,-5,-3,-6,-2
17:25:50:232204,-2,-3,6,4,5,4,0,1
17:25:50:245786,-3,-2,-8,-8,4,1,-4,-3
17:25:50:254197,-3,-2,-8,-8,4,1,-4,-3
17:25:50:254759,-2,-5,-2,-1,4,0,-5,-4
17:25:50:268934,-4,-3,5,1,0,2,-1,1
17:25:50:269746,-4,-3,5,1,0,2,-1,1
17:25:50:275767,2,2,4,-3,6,-3,-2,-1
17:25:50:283237,-2,-4,-4,1,-3,-14,-3,-3
17:25:50:291515,-2,-4,-4,1,-3,-14,-3,-3
17:25:50:292225,-3,1,1,6,12,11,1,-1
17:25:50:305742,0,-4,-1,-3,-3,-3,1,-1
17:25:50:314040,0,-4,-1,-3,-3,-3,1,-1
17:25:50:314727,1,6,10,-10,-20,-11,-1,-2
17:25:50:320942,1,-4,4,2,-3,11,-1,-4
17:25:50:328307,1,-4,4,2,-3,11,-1,-4
17:25:50:335755,-4,-6,-3,3,-8,-4,-1,-2
17:25:50:343296,-2,3,-9,-3,0,-4,-4,-2
17:25:50:351411,-2,3,-9,-3,0,-4,-4,-2
17:25:50:352209,7,0,2,-7,1,-10,-1,2
17:25:50:365725,-2,-2,2,4,1,4,1,0
17:25:50:382119,-2,-2,2,4,1,4,1,0
17:25:50:382892,-8,-10,-3,-2,-9,-10,-4,-3
17:25:50:383710,0,2,3,0,4,0,5,-1
17:25:50:388423,0,2,3,0,4,0,5,-1
17:25:50:395810,1,4,4,13,0,1,0,0
17:25:50:403273,2,-1,-6,-3,-5,0,-3,-2
17:25:50:411371,2,-1,-6,-3,-5,0,-3,-2
17:25:50:412240,1,-4,-4,-2,3,8,2,-1
17:25:50:425792,-3,-1,3,0,3,2,1,-2
17:25:50:433950,-3,-1,3,0,3,2,1,-2
17:25:50:434703,-2,-1,-4,0,3,4,2,0
17:25:50:440818,0,3,2,-2,-10,-11,0,1
17:25:50:448258,0,3,2,-2,-10,-11,0,1
17:25:50:472873,8,9,-2,3,2,3,3,2
17:25:50:473528,1,-2,-9,2,4,2,-6,0
17:25:50:474429,1,-2,-9,2,4,2,-6,0
17:25:50:475182,-2,-2,-2,-4,-4,-3,-4,-4
17:25:50:485717,1,4,3,-1,-1,-1,1,2
17:25:50:493974,1,4,3,-1,-1,-1,1,2
17:25:50:494751,-5,-6,11,0,1,-1,1,-3
17:25:50:500687,-3,-4,-9,-6,-6,-5,-2,-7
17:25:50:508365,-3,-4,-9,-6,-6,-5,-2,-7
17:25:50:515755,-3,-2,-3,5,5,-5,0,0
17:25:50:523301,-3,-11,2,1,1,-2,1,-2
17:25:50:531474,-3,-11,2,1,1,-2,1,-2
17:25:50:532217,-1,-5,-5,-5,-5,0,-4,1
17:25:50:545792,-3,-2,-7,-1,-1,-1,-3,-4
17:25:50:553927,-3,-2,-7,-1,-1,-1,-3,-4
17:25:50:554720,3,2,0,2,2,9,-3,-3
17:25:50:560678,-2,-3,-4,7,1,-7,-6,2
17:25:50:568258,-2,-3,-4,7,1,-7,-6,2
17:25:50:575810,0,11,5,7,13,3,6,2
17:25:50:583226,1,6,7,-5,-4,-1,-7,0
17:25:50:591467,1,6,7,-5,-4,-1,-7,0
17:25:50:592189,-1,-3,-9,-11,-8,-6,-12,-3
17:25:50:605786,0,-3,0,-5,-2,-1,-3,-1
17:25:50:614005,0,-3,0,-5,-2,-1,-3,-1
17:25:50:614738,-3,-6,-3,-5,-2,-3,-2,0
17:25:50:620884,-1,-4,-5,-1,-1,0,0,0
17:25:50:628269,-1,-4,-5,-1,-1,0,0,0
17:25:50:635812,-3,-4,-1,5,-1,-5,5,-1
17:25:50:643289,-2,-1,2,1,3,-1,5,-2
17:25:50:659033,-2,-1,2,1,3,-1,5,-2
17:25:50:659775,-5,-2,2,-2,-7,0,2,-2
17:25:50:665702,1,-2,-7,3,3,-4,-3,-1
17:25:50:673951,1,-2,-7,3,3,-4,-3,-1
17:25:50:674666,1,-2,-1,-1,-2,0,-3,0
17:25:50:688962,-1,-4,-15,-7,-4,-1,-2,-4
17:25:50:689713,-1,-4,-15,-7,-4,-1,-2,-4
17:25:50:695795,0,-1,-5,0,-1,-2,2,2
17:25:50:703228,1,2,-4,11,13,6,5,3
17:25:50:711422,1,2,-4,11,13,6,5,3
17:25:50:712200,0,5,2,1,1,8,-10,-1
17:25:50:725698,1,1,5,-4,-8,1,-4,2
17:25:50:742221,1,1,5,-4,-8,1,-4,2
17:25:50:742920,-1,-2,11,-4,-4,-6,-1,-2
17:25:50:743712,-1,5,5,-2,-2,-6,-1,-2
17:25:50:748274,-1,5,5,-2,-2,-6,-1,-2
17:25:50:755790,-1,-1,-2,-4,0,-2,-4,-2
17:25:50:763238,-2,0,-4,2,6,3,7,-1
17:25:50:778954,-2,0,-4,2,6,3,7,-1
17:25:50:779741,0,1,-4,-2,-4,-7,-17,-6
17:25:50:785700,3,3,9,0,8,11,5,6
17:25:50:794003,3,3,9,0,8,11,5,6
17:25:50:794747,-1,-3,-5,3,3,-10,-15,-10
17:25:50:809021,-3,-2,6,-6,-11,0,2,-6
17:25:50:809767,-3,-2,6,-6,-11,0,2,-6
17:25:50:815733,1,2,1,-2,-3,0,-21,0
17:25:50:831450,-3,-3,-2,-5,-3,-6,3,2
17:25:50:832253,-3,-3,-2,-5,-3,-6,3,2
17:25:50:838265,-2,-3,-17,-3,1,-8,10,-1
17:25:50:862190,4,0,-4,-6,-6,3,9,0
17:25:50:862896,4,0,-4,-6,-6,3,9,0
17:25:50:863699,0,-1,1,-3,-1,4,21,9
17:25:50:868934,-4,-1,1,-1,-8,-8,0,-2
17:25:50:869711,-4,-1,1,-1,-8,-8,0,-2
17:25:50:875854,1,-2,-3,5,5,4,7,1
17:25:50:883266,0,2,1,-3,-3,3,-11,-4
17:25:50:890846,0,2,1,-3,-3,3,-11,-4
17:25:50:898220,-2,-1,2,-7,-6,3,18,1
17:25:50:905704,-3,-4,-2,0,2,-6,-12,-5
17:25:50:921506,-3,-4,-2,0,2,-6,-12,-5
17:25:50:922180,0,3,6,1,1,1,4,-2
17:25:50:928937,3,-1,4,3,5,3,13,-1
17:25:50:929747,3,-1,4,3,5,3,13,-1
17:25:50:935736,-4,-4,1,0,4,1,-11,-10
17:25:50:943257,-1,3,2,-1,-6,3,10,9
17:25:50:950758,-1,3,2,-1,-6,3,10,9
17:25:50:958301,-2,-1,-4,0,-4,-8,-20,-4
17:25:50:974377,-2,-1,-7,-1,1,2,-6,-2
17:25:50:975163,-2,-1,-7,-1,1,2,-6,-2
17:25:50:980687,-3,-5,0,-2,-5,-4,-6,-2
17:25:50:988960,-4,-4,0,3,2,2,-2,0
17:25:50:989712,-4,-4,0,3,2,2,-2,0
17:25:51:3969,0,0,1,2,1,2,5,-1
17:25:51:4719,-3,-1,-2,-1,-1,7,-16,1
17:25:51:10807,-3,-1,-2,-1,-1,7,-16,1
17:25:51:26447,2,2,-9,2,7,4,11,3
17:25:51:27183,-1,-6,-9,-3,-4,-9,-7,-4
17:25:51:33955,-1,-6,-9,-3,-4,-9,-7,-4
17:25:51:34714,0,3,6,-3,-3,2,9,6
17:25:51:57163,-1,0,1,-1,-2,0,0,-1
17:25:51:57902,-1,0,1,-1,-2,0,0,-1
17:25:51:58739,3,-2,-4,-3,-4,-4,1,0
17:25:51:63224,-4,-5,7,-4,-5,-4,3,-4
17:25:51:70815,-4,-5,7,-4,-5,-4,3,-4
17:25:51:86423,2,-5,5,4,1,2,-3,-3
17:25:51:87182,-3,-4,-2,-2,-7,-5,0,-6
17:25:51:93979,-3,-4,-2,-2,-7,-5,0,-6
17:25:51:94812,-4,-5,-3,-7,-5,3,-5,-5
17:25:51:109060,3,5,-5,-2,-7,-4,19,2
17:25:51:109781,3,5,-5,-2,-7,-4,19,2
17:25:51:115698,-5,-4,-12,-3,-3,-6,-11,-2
17:25:51:131396,-3,-3,-3,-5,0,-5,-3,2
17:25:51:132217,-3,-3,-3,-5,0,-5,-3,2
17:25:51:138352,-2,3,7,2,2,3,6,3
17:25:51:154761,-1,-4,-3,1,0,-12,-12,-6
17:25:51:155369,-1,-4,-3,1,0,-12,-12,-6
17:25:51:156189,0,1,1,2,2,-3,-4,-1
17:25:51:168933,1,1,0,0,0,0,-5,3
17:25:51:169749,1,1,0,0,0,0,-5,3
17:25:51:175786,-1,0,3,-4,-5,-5,1,-1
17:25:51:183337,-3,-7,-2,2,1,2,-7,-4
17:25:51:198983,-3,-7,-2,2,1,2,-7,-4
17:25:51:199734,3,-5,0,-4,-5,3,15,5
17:25:51:205751,-1,1,-1,-2,-2,-1,-2,0
17:25:51:213956,-1,1,-1,-2,-2,-1,-2,0
17:25:51:214700,-2,0,0,-1,4,10,-2,-6
17:25:51:228993,0,-4,-5,-3,1,-4,2,-1
17:25:51:229736,0,-4,-5,-3,1,-4,2,-1
17:25:51:243936,-2,0,-6,2,-2,-14,-34,-4
17:25:51:244697,-1,7,8,0,1,6,6,3
17:25:51:250777,-1,7,8,0,1,6,6,3
17:25:51:258339,-1,-2,-2,-8,-14,-11,-4,0
17:25:51:265692,3,0,-1,4,5,-1,-6,-3
17:25:51:281470,3,0,-1,4,5,-1,-6,-3
17:25:51:282195,-2,-2,2,6,14,5,20,1
17:25:51:288947,-1,1,0,4,0,-2,-7,1
17:25:51:289740,-1,1,0,4,0,-2,-7,1
17:25:51:295717,-3,1,-2,-3,-4,0,-1,-2
17:25:51:303247,-1,0,-4,0,4,0,-4,-2
17:25:51:310798,-1,0,-4,0,4,0,-4,-2
17:25:51:318284,0,1,0,0,-4,-3,-8,-6
17:25:51:325781,-2,-2,6,0,-3,-3,-1,1
17:25:51:334017,-2,-2,6,0,-3,-3,-1,1
17:25:51:334745,0,-3,-10,-3,2,0,-3,-1
17:25:51:348929,-5,-4,-1,-4,-5,1,7,-2
17:25:51:349720,-5,-4,-1,-4,-5,1,7,-2
17:25:51:355804,0,1,5,-1,-2,0,15,0
17:25:51:363321,-2,-1,-3,-3,2,8,24,0
17:25:51:370910,-2,-1,-3,-3,2,8,24,0
17:25:51:378306,0,2,-1,-1,-2,1,1,-1
17:25:51:385750,-2,1,3,0,-3,-7,-13,-4
17:25:51:393968,-2,1,3,0,-3,-7,-13,-4
17:25:51:394772,-1,-1,-1,1,4,1,-3,-1
17:25:51:408977,-1,0,-9,0,-2,-6,-3,-7
17:25:51:409735,-1,0,-9,0,-2,-6,-3,-7
17:25:51:415711,-4,-3,1,-1,-6,-9,-8,-6
17:25:51:423280,1,-3,0,2,1,1,-12,2
17:25:51:430789,1,-3,0,2,1,1,-12,2
17:25:51:446447,1,-5,-2,-3,1,1,4,9
17:25:51:447216,-1,-2,-4,-4,-4,-3,5,0
17:25:51:454044,-1,-2,-4,-4,-4,-3,5,0
17:25:51:454671,-1,2,2,-3,-5,-3,-12,-6
17:25:51:469374,0,-1,-1,1,0,-7,-12,-2
17:25:51:476503,0,-1,-1,1,0,-7,-12,-2
17:25:51:477201,-3,-3,-1,1,0,2,21,6
17:25:51:483275,-1,-3,0,-1,3,9,0,-2
17:25:51:490855,-1,-3,0,-1,3,9,0,-2
17:25:51:498156,-3,-6,-13,-1,2,-5,4,2
17:25:51:505741,7,8,2,-1,0,-2,0,2
17:25:51:513997,7,8,2,-1,0,-2,0,2
17:25:51:514699,-1,2,-1,0,0,-8,-25,-2
17:25:51:528963,-6,-1,1,0,-2,1,5,-2
17:25:51:529741,-6,-1,1,0,-2,1,5,-2
17:25:51:535702,-2,-2,3,3,2,7,1,-2
17:25:51:543295,0,3,2,1,4,4,22,-4
17:25:51:550789,0,3,2,1,4,4,22,-4
17:25:51:558292,0,-2,0,-2,-4,5,32,3
17:25:51:565709,-2,-5,-5,-5,-5,-8,-26,-2
17:25:51:590297,-2,-5,-5,-5,-5,-8,-26,-2
17:25:51:591074,-4,-10,-3,-2,-2,2,-8,-3
17:25:51:591874,-5,-7,-10,1,7,1,2,-2
17:25:51:592770,-5,-7,-10,1,7,1,2,-2
17:25:51:595690,5,1,-6,-3,-5,-6,-7,-2
17:25:51:611438,-1,-3,0,-2,-10,-9,-12,0
17:25:51:612222,-1,-3,0,-2,-10,-9,-12,0
17:25:51:618276,-3,3,-2,-1,0,0,-5,-2
17:25:51:625859,0,0,2,-4,-3,4,15,3
17:25:51:633946,0,0,2,-4,-3,4,15,3
17:25:51:634695,-2,-2,1,-4,-2,-8,-21,-5
17:25:51:648936,-1,-3,3,0,0,4,11,1
17:25:51:649745,-1,-3,3,0,0,4,11,1
17:25:51:655776,1,0,1,-1,-4,4,23,3
17:25:51:663330,-1,0,2,3,1,7,10,1
17:25:51:678966,-1,0,2,3,1,7,10,1
17:25:51:679788,-3,-2,1,-3,1,2,4,3
17:25:51:693920,1,-2,0,-2,-6,-5,-11,-5
17:25:51:694782,1,-2,0,-2,-6,-5,-11,-5
17:25:51:700775,3,2,8,2,0,3,12,4
17:25:51:708995,-2,0,-9,-4,-8,-6,-10,-4
17:25:51:709728,-2,0,-9,-4,-8,-6,-10,-4
17:25:51:723289,-1,-2,0,-1,-2,-8,-27,-3
17:25:51:731169,0,1,3,-1,3,-3,-14,-2
17:25:51:739702,0,1,3,-1,3,-3,-14,-2
17:25:51:740385,-6,-3,-5,1,-3,-14,-27,-11
17:25:51:745803,-3,-7,1,1,1,4,-8,1
17:25:51:753270,-3,-7,1,1,1,4,-8,1
17:25:51:760823,-3,-3,2,0,2,6,15,-1
17:25:51:768887,3,7,4,-2,-4,-5,2,0
17:25:51:769698,3,7,4,-2,-4,-5,2,0
17:25:51:775830,4,-1,-5,1,3,1,9,-1
17:25:51:791973,0,-9,-4,-1,3,9,19,7
17:25:51:792741,0,-9,-4,-1,3,9,19,7
17:25:51:798248,-5,-1,1,-8,-16,-10,-13,-4
17:25:51:805779,1,2,-4,1,10,-4,-4,-1
17:25:51:813314,1,2,-4,1,10,-4,-4,-1
17:25:51:821049,5,7,0,3,2,5,10,6
17:25:51:828927,-6,-5,-4,-4,-14,-6,-13,-3
17:25:51:829755,-6,-5,-4,-4,-14,-6,-13,-3
17:25:51:835752,0,1,0,2,10,5,8,-1
17:25:51:852098,4,6,0,-1,-2,-1,26,-1
17:25:51:852854,4,6,0,-1,-2,-1,26,-1
17:25:51:858297,-5,-8,-3,-5,-1,-1,7,0
17:25:51:865713,6,4,5,1,11,10,-7,3
17:25:51:873336,6,4,5,1,11,10,-7,3
17:25:51:889648,0,-3,-3,1,0,0,-9,-2
17:25:51:890358,0,3,2,-4,-15,-16,-11,-2
17:25:51:891244,0,3,2,-4,-15,-16,-11,-2
17:25:51:895732,-3,0,1,-2,2,2,-5,0
17:25:51:911402,-4,0,0,1,4,-1,1,-3
17:25:51:912235,-4,0,0,1,4,-1,1,-3
17:25:51:918220,-1,1,-3,-3,-1,-6,-8,-1
17:25:51:925854,-3,-3,0,-7,-10,1,-11,-3
17:25:51:933258,-3,-3,0,-7,-10,1,-11,-3
17:25:51:949551,-1,-3,1,-1,0,6,9,-6
17:25:51:950328,-2,-8,0,4,3,4,-10,-7
17:25:51:951159,-2,-8,0,4,3,4,-10,-7
17:25:51:955785,-2,2,-2,-3,-3,-7,-12,-5
17:25:51:971484,-3,-2,-5,1,2,-8,-6,-2
17:25:51:972193,-3,-2,-5,1,2,-8,-6,-2
17:25:51:978311,-7,-7,-3,-1,-3,-3,-6,-3
17:25:51:985797,8,-1,-2,-3,-1,1,11,7
17:25:51:993311,8,-1,-2,-3,-1,1,11,7
17:25:52:746,2,-3,-2,1,-2,-1,-7,-1
17:25:52:9011,-2,-4,-1,-1,-2,-3,-13,-2
17:25:52:9723,-2,-4,-1,-1,-2,-3,-13,-2
17:25:52:15684,-1,0,1,-5,-2,0,-1,-3
17:25:52:31402,-6,-3,-2,-1,1,-1,-1,-3
17:25:52:32197,-6,-3,-2,-1,1,-1,-1,-3
17:25:52:38321,-2,0,1,0,-2,-5,-6,-1
17:25:52:45781,1,5,1,-3,-1,0,-2,3
17:25:52:53364,1,5,1,-3,-1,0,-2,3
17:25:52:60734,1,1,-4,-2,-2,0,1,1
17:25:52:69642,-4,-5,-6,-2,-2,-4,0,-4
17:25:52:70352,-4,-5,-6,-2,-2,-4,0,-4
17:25:52:75824,1,6,2,2,0,-2,-5,0
17:25:52:91449,1,-2,-1,0,1,8,18,7
17:25:52:92264,1,-2,-1,0,1,8,18,7
17:25:52:98294,3,5,12,4,4,4,4,-1
17:25:52:105745,-2,0,-2,-1,-3,-3,-3,-1
17:25:52:113325,-2,0,-2,-1,-3,-3,-3,-1
17:25:52:120894,-8,-10,-9,-1,-4,-5,-6,-5
17:25:52:128938,3,4,1,2,1,-5,-4,-2
17:25:52:129766,3,4,1,2,1,-5,-4,-2
17:25:52:135733,-4,-8,-7,-3,0,0,-1,0
17:25:52:151504,-4,-2,-1,-1,-4,0,-6,-4
17:25:52:152237,-4,-2,-1,-1,-4,0,-6,-4
17:25:52:158259,-4,-10,-8,-2,1,5,8,6
17:25:52:165708,0,-4,0,-4,-5,-5,-1,0
17:25:52:173387,0,-4,0,-4,-5,-5,-1,0
17:25:52:180753,9,3,4,6,9,19,51,10
17:25:52:188966,-7,-8,-1,-2,-4,-1,-3,-1
17:25:52:189766,-7,-8,-1,-2,-4,-1,-3,-1
17:25:52:195729,0,2,0,-4,-5,-10,-13,-2
17:25:52:211440,1,-1,-1,4,9,1,1,-1
17:25:52:212243,1,-1,-1,4,9,1,1,-1
17:25:52:218239,-2,-1,0,-2,-6,-3,-9,-4
17:25:52:225780,-2,0,3,-5,-6,1,20,-2
17:25:52:233295,-2,0,3,-5,-6,1,20,-2
17:25:52:240860,-3,7,-2,2,9,5,7,2
17:25:52:248894,-1,4,-1,0,2,-1,-14,-2
17:25:52:249713,-1,4,-1,0,2,-1,-14,-2
17:25:52:255754,2,7,1,0,-9,-8,-7,2
17:25:52:271556,-4,-2,-4,-3,-1,1,12,1
17:25:52:272191,-4,-2,-4,-3,-1,1,12,1
17:25:52:278318,-4,-5,-5,-4,-2,0,-1,-1
17:25:52:285768,-2,-1,-2,1,2,-1,-6,-3
17:25:52:293322,-2,-1,-2,1,2,-1,-6,-3
17:25:52:300751,0,1,1,4,4,4,12,1
17:25:52:309000,3,-2,-3,-6,-3,1,12,-5
17:25:52:309710,3,-2,-3,-6,-3,1,12,-5
17:25:52:315673,-1,-2,1,-4,-4,-5,-16,-3
17:25:52:331389,-4,-4,3,6,3,-3,-14,1
17:25:52:332205,-4,-4,3,6,3,-3,-14,1
17:25:52:338360,-1,-1,-1,-6,-10,-9,-1,-2
17:25:52:345804,-1,5,0,2,3,7,6,5
17:25:52:353255,-1,5,0,2,3,7,6,5
17:25:52:360742,-1,-5,-1,0,-1,-3,-3,-1
17:25:52:368932,-1,6,-1,0,-5,-9,-20,-7
17:25:52:369760,-1,6,-1,0,-5,-9,-20,-7
17:25:52:375796,-1,-1,-2,-3,-3,-6,-7,-5
17:25:52:391505,0,-2,1,-2,0,-5,-13,-6
17:25:52:392285,0,-2,1,-2,0,-5,-13,-6
17:25:52:398150,1,-1,-1,6,1,5,-8,-3
17:25:52:405750,-2,-2,-4,-3,-7,-4,-3,0
17:25:52:413303,-2,-2,-4,-3,-7,-4,-3,0
17:25:52:420921,-2,0,0,-4,2,0,0,2
17:25:52:428996,-1,-5,2,-1,2,3,-5,4
17:25:52:429771,-1,-5,2,-1,2,3,-5,4
17:25:52:435784,-2,-1,1,-2,-2,0,-8,0
17:25:52:451437,-1,2,-5,-6,-4,-5,-20,-2
17:25:52:452239,-1,2,-5,-6,-4,-5,-20,-2
17:25:52:458363,1,5,-3,-3,-2,-7,-13,-3
17:25:52:465738,-7,0,-3,0,1,-2,8,1
17:25:52:473398,-7,0,-3,0,1,-2,8,1
17:25:52:480788,2,-3,-2,2,3,1,-2,-9
17:25:52:488929,3,1,3,3,1,5,8,0
17:25:52:489707,3,1,3,3,1,5,8,0
17:25:52:495761,-6,-2,1,-2,-1,3,20,1
17:25:52:511479,-1,-5,-5,-1,-6,-9,8,-3
17:25:52:512270,-1,-5,-5,-1,-6,-9,8,-3
17:25:52:518193,2,-1,-6,-3,1,3,11,-4
17:25:52:525803,2,-2,-2,-1,3,6,7,-4
17:25:52:533272,2,-2,-2,-1,3,6,7,-4
17:25:52:540811,1,3,-2,-3,-6,-7,-17,0
17:25:52:548879,-3,-6,-4,1,0,-1,-2,0
17:25:52:549674,-3,-6,-4,1,0,-1,-2,0
17:25:52:555731,-3,-2,3,0,0,2,6,1
17:25:52:571534,-3,0,0,-1,1,0,3,-3
17:25:52:572215,-3,0,0,-1,1,0,3,-3
17:25:52:578314,2,3,-1,1,0,3,8,4
17:25:52:585825,0,0,-1,-2,-1,2,3,2
17:25:52:593319,0,0,-1,-2,-1,2,3,2
17:25:52:600820,-1,-2,-1,-2,-2,-7,-7,-1
17:25:52:609006,2,-7,-2,-1,0,3,13,5
17:25:52:609772,2,-7,-2,-1,0,3,13,5
17:25:52:615654,0,0,-1,0,-2,-4,-3,0
17:25:52:631377,-2,2,-5,-2,-4,4,-15,-3
17:25:52:632177,-2,2,-5,-2,-4,4,-15,-3
17:25:52:638332,-2,-3,-3,2,9,10,3,-7
17:25:52:653953,-3,-1,1,-1,-5,-5,-4,-2
17:25:52:654746,-3,-1,1,-1,-5,-5,-4,-2
17:25:52:660820,-2,-2,0,1,-6,-7,-2,1
17:25:52:668955,1,1,0,1,0,-1,4,-1
17:25:52:669692,1,1,0,1,0,-1,4,-1
17:25:52:683236,-2,-6,-5,-5,-2,-3,-4,-4
17:25:52:691501,-2,-6,-5,-5,-2,-3,-4,-4
17:25:52:692209,0,-3,-1,-2,-3,-8,-3,1
17:25:52:698225,-3,3,-3,-2,1,-1,-12,-1
17:25:52:713920,-3,3,-3,-2,1,-1,-12,-1
17:25:52:714665,1,1,3,-1,4,-3,-13,-2
17:25:52:720861,-3,-6,-1,0,-2,2,8,-4
17:25:52:728971,-3,-6,-1,0,-2,2,8,-4
17:25:52:729798,-2,-2,0,2,4,3,1,-3
17:25:52:743298,4,3,0,1,-3,0,7,1
17:25:52:751397,4,3,0,1,-3,0,7,1
17:25:52:752155,1,-1,-1,-2,-3,0,5,0
17:25:52:758322,-3,-1,-1,-1,-1,-10,-30,-4
17:25:52:774003,-3,-1,-1,-1,-1,-10,-30,-4
17:25:52:774782,-1,2,-1,-3,0,-3,4,2
17:25:52:780789,-2,-2,-3,-3,-5,-10,-12,0
17:25:52:796467,-2,-2,-3,-3,-5,-10,-12,0
17:25:52:797224,2,2,3,1,-2,3,2,2
17:25:52:803259,-2,-1,0,-1,-3,4,8,-1
17:25:52:811524,-2,-1,0,-1,-3,4,8,-1
17:25:52:812301,-1,2,-1,-5,-7,-10,-9,-5
17:25:52:818263,-2,-4,1,4,5,-2,-12,-6
17:25:52:833981,-2,-4,1,4,5,-2,-12,-6
17:25:52:834751,0,0,-1,1,1,1,-1,2
17:25:52:849670,3,-2,2,-2,-5,-5,-2,0
17:25:52:850411,3,-2,2,-2,-5,-5,-2,0
17:25:52:851187,-3,-3,-5,-6,-3,-2,-6,-5
17:25:52:863294,1,3,-4,-2,-2,0,1,3
17:25:52:871602,1,3,-4,-2,-2,0,1,3
17:25:52:872230,0,-2,-5,-5,-1,1,-2,3
17:25:52:878248,-4,-2,4,-2,0,2,-1,-5
17:25:52:893926,-4,-2,4,-2,0,2,-1,-5
17:25:52:894698,-3,5,-2,0,1,-6,-5,-10
17:25:52:900833,1,-4,-1,5,6,7,8,4
17:25:52:908976,1,-4,-1,5,6,7,8,4
17:25:52:909703,-6,-4,1,2,-4,-14,-43,-15
17:25:52:923288,11,2,0,-3,-3,-1,8,9
17:25:52:931413,11,2,0,-3,-3,-1,8,9
17:25:52:932199,-3,-2,1,1,-1,1,7,-4
17:25:52:938288,-8,-4,-4,0,3,1,5,-1
17:25:52:953979,-8,-4,-4,0,3,1,5,-1
17:25:52:954711,4,2,1,0,-3,-1,4,4
17:25:52:960784,-1,-2,-5,-6,-6,-1,14,-1
17:25:52:968933,-1,-2,-5,-6,-6,-1,14,-1
17:25:52:969748,-1,1,3,0,4,6,29,6
17:25:52:983225,0,6,-1,-2,-1,-4,-13,-1
17:25:52:991447,0,6,-1,-2,-1,-4,-13,-1
17:25:52:992262,-3,-4,-1,-4,0,4,0,-1
17:25:52:998284,-1,-1,3,2,9,6,-6,-3
17:25:53:14015,-1,-1,3,2,9,6,-6,-3
17:25:53:14736,3,-3,-1,1,2,10,35,4
17:25:53:20784,-5,-6,-2,-2,0,-2,10,-4
17:25:53:28968,-5,-6,-2,-2,0,-2,10,-4
17:25:53:29763,4,2,-3,-7,-2,0,-19,3
17:25:53:43299,-2,-4,-7,-1,-4,-6,-12,-3
17:25:53:51464,-2,-4,-7,-1,-4,-6,-12,-3
17:25:53:52259,5,-2,-1,1,-5,-4,4,9
17:25:53:58291,-4,-5,-1,-3,-2,-6,-26,-1
17:25:53:82111,-4,-5,-1,-3,-2,-6,-26,-1
17:25:53:82850,-5,-5,-4,2,3,-1,-14,-5
17:25:53:83666,1,-2,1,-1,0,4,10,1
17:25:53:89002,1,-2,1,-1,0,4,10,1
17:25:53:89781,-3,-2,-2,0,1,-4,-5,-5
17:25:53:103221,-1,-1,-1,-2,-5,1,9,0
17:25:53:111481,-1,-1,-1,-2,-5,1,9,0
17:25:53:112255,2,1,0,0,1,4,16,6
17:25:53:118199,-1,6,6,0,-2,-1,-1,-4
17:25:53:133909,-1,6,6,0,-2,-1,-1,-4
17:25:53:134679,-5,-1,0,0,-1,-3,-11,-7
17:25:53:140811,-3,-4,-1,-3,-4,-4,0,-3
17:25:53:148928,-3,-4,-1,-3,-4,-4,0,-3
17:25:53:149690,-3,0,-3,5,11,2,-17,-1
17:25:53:163299,-3,-1,0,2,0,1,10,0
17:25:53:171439,-3,-1,0,2,0,1,10,0
17:25:53:172255,4,5,6,-6,-9,-7,-3,1
17:25:53:178211,-6,1,-3,-1,-4,-4,-13,-4
17:25:53:193963,-6,1,-3,-1,-4,-4,-13,-4
17:25:53:194760,-1,-1,-2,3,2,1,-1,1
17:25:53:200731,-4,-2,-2,-1,-2,-2,10,2
17:25:53:209043,-4,-2,-2,-1,-2,-2,10,2
17:25:53:209751,0,0,0,-2,-3,0,8,-7
17:25:53:223357,0,-3,-5,1,5,3,-12,-9
17:25:53:231381,0,-3,-5,1,5,3,-12,-9
17:25:53:232184,-4,-6,-4,-5,-10,-15,-21,-2
17:25:53:238348,0,3,-1,4,6,7,7,2
17:25:53:254125,0,3,-1,4,6,7,7,2
17:25:53:254692,-3,-6,1,-3,-4,-6,-1,-2
17:25:53:260793,2,-2,-2,-2,1,-5,1,6
17:25:53:268962,2,-2,-2,-2,1,-5,1,6
17:25:53:269738,-1,-1,-3,-5,-4,1,17,-1
17:25:53:283260,5,7,5,-1,-1,7,10,0
17:25:53:291505,5,7,5,-1,-1,7,10,0
17:25:53:292186,0,3,-2,4,9,16,13,2
17:25:53:298233,-1,-1,1,-2,-4,-8,-13,-1
17:25:53:314000,-1,-1,1,-2,-4,-8,-13,-1
17:25:53:314710,8,-2,3,2,1,-1,-2,1
17:25:53:320725,-3,-3,-2,-1,-5,-9,-1,-4
17:25:53:328990,-3,-3,-2,-1,-5,-9,-1,-4
17:25:53:329749,-4,1,-2,-2,-1,1,11,-6
17:25:53:343277,-2,-2,-1,-5,-5,-8,-18,-5
17:25:53:351533,-2,-2,-1,-5,-5,-8,-18,-5
17:25:53:352364,-2,-5,-2,-3,-6,-4,-2,1
17:25:53:358339,-1,2,-3,2,-2,0,10,1
17:25:53:374004,-1,2,-3,2,-2,0,10,1
17:25:53:374786,-1,3,-1,-2,-2,2,1,-2
17:25:53:380845,4,-1,-2,-3,-2,6,-7,-1
17:25:53:388973,4,-1,-2,-3,-2,6,-7,-1
17:25:53:389722,-6,-7,-1,4,7,5,0,-6
17:25:53:412181,-3,-3,-3,-3,1,-2,-2,-2
17:25:53:412962,-3,-3,-3,-3,1,-2,-2,-2
17:25:53:413731,-4,-3,-4,-4,-5,-11,6,-1
17:25:53:418213,-5,-3,-4,-2,-3,0,-22,-6
17:25:53:434026,-5,-3,-4,-2,-3,0,-22,-6
17:25:53:434734,0,5,0,2,-4,3,-13,2
17:25:53:440750,4,-1,4,-2,-1,-6,2,6
17:25:53:448925,4,-1,4,-2,-1,-6,2,6
17:25:53:449747,0,-3,-2,-3,-2,-4,6,3
17:25:53:463236,2,1,3,-2,2,4,39,4
17:25:53:471515,2,1,3,-2,2,4,39,4
17:25:53:472220,-1,-5,-7,-3,2,-2,-11,-2
17:25:53:478224,1,2,-2,1,2,2,-1,-3
17:25:53:493975,1,2,-2,1,2,2,-1,-3
17:25:53:494774,-2,-1,0,-1,-4,-6,-16,-4
17:25:53:500688,1,-8,-15,-1,0,-1,-14,-1
17:25:53:509023,1,-8,-15,-1,0,-1,-14,-1
17:25:53:509732,-2,-5,-1,-1,1,-2,-12,-2
17:25:53:523294,-11,-1,1,-1,0,-3,-9,0
17:25:53:531505,-11,-1,1,-1,0,-3,-9,0
17:25:53:532212,-1,1,0,0,2,0,3,0
17:25:53:538227,4,3,4,1,-2,1,23,4
17:25:53:553899,4,3,4,1,-2,1,23,4
17:25:53:554703,1,-2,1,-1,-3,-4,-7,-1
17:25:53:560744,-4,-6,-2,-2,-3,-4,-18,-6
17:25:53:568978,-4,-6,-2,-2,-3,-4,-18,-6
17:25:53:569782,-7,-5,-4,-7,-8,-5,-15,0
17:25:53:583348,8,1,0,0,3,-1,7,5
17:25:53:591467,8,1,0,0,3,-1,7,5
17:25:53:592296,-3,4,0,-2,-7,-8,4,-18
17:25:53:605829,-4,-2,1,1,4,6,-10,-6
17:25:53:613978,-4,-2,1,1,4,6,-10,-6
17:25:53:614677,-16,-4,-2,-2,0,2,-1,-1
17:25:53:620798,4,1,-2,-2,-9,-9,3,-1
17:25:53:628251,4,1,-2,-2,-9,-9,3,-1
17:25:53:635766,-13,0,4,4,4,-1,7,2
17:25:53:643268,1,-1,-15,-4,-2,-4,-9,5
17:25:53:651442,1,-1,-15,-4,-2,-4,-9,5
17:25:53:652204,7,2,0,-2,-1,5,5,9
17:25:53:665739,-1,-4,1,-1,3,1,10,-3
17:25:53:673916,-1,-4,1,-1,3,1,10,-3
17:25:53:674747,4,-1,-3,0,2,2,-4,-3
17:25:53:680732,-1,3,3,-1,-1,0,10,2
17:25:53:688299,-1,3,3,-1,-1,0,10,2
17:25:53:695678,7,-2,-3,-3,-2,-4,-4,5
17:25:53:703249,-6,-6,-1,-2,-6,-5,-17,-9
17:25:53:711488,-6,-6,-1,-2,-6,-5,-17,-9
17:25:53:712275,9,2,1,3,1,3,5,10
17:25:53:725741,-2,-1,10,2,3,5,9,-3
17:25:53:734420,-2,-1,10,2,3,5,9,-3
17:25:53:741347,3,-3,-4,-5,-3,3,13,-1
17:25:53:742207,10,1,-2,1,-1,3,-13,1
17:25:53:748280,10,1,-2,1,-1,3,-13,1
17:25:53:755746,1,-1,-1,1,-2,-6,-6,-3
17:25:53:763248,-1,0,0,-5,-2,0,-1,-1
17:25:53:771497,-1,0,0,-5,-2,0,-1,-1
17:25:53:772213,-15,-1,-2,-3,-2,-2,-11,-4
17:25:53:785808,-4,0,3,-2,-4,-5,-1,7
17:25:53:793944,-4,0,3,-2,-4,-5,-1,7
17:25:53:794761,6,-1,5,6,10,3,-19,0
17:25:53:800686,1,1,-4,3,3,3,17,4
17:25:53:808373,1,1,-4,3,3,3,17,4
17:25:53:815715,0,-2,-1,-3,-6,-7,8,-4
17:25:53:823289,1,-1,-3,2,2,1,7,-5
17:25:53:831387,1,-1,-3,2,2,1,7,-5
17:25:53:832176,-3,-3,-6,-4,-5,-2,-2,-6
17:25:53:845744,-3,1,0,-1,0,1,-6,1
17:25:53:854159,-3,1,0,-1,0,1,-6,1
17:25:53:854752,2,2,-1,-2,-4,7,15,-3
17:25:53:860792,12,-1,-2,0,-1,-2,2,14
17:25:53:868223,12,-1,-2,0,-1,-2,2,14
17:25:53:875800,-2,0,-2,2,2,-1,8,2
17:25:53:883210,-10,0,0,-1,-4,-7,-17,-12
17:25:53:891457,-10,0,0,-1,-4,-7,-17,-12
17:25:53:892220,14,4,3,-1,-1,-6,-10,-3
17:25:53:905749,-4,-1,-2,-3,5,7,5,-6
17:25:53:913924,-4,-1,-2,-3,5,7,5,-6
17:25:53:914677,-2,-3,-1,0,-4,-3,-2,-3
17:25:53:920881,-5,-4,-5,-4,-7,-6,-7,-5
17:25:53:928312,-5,-4,-5,-4,-7,-6,-7,-5
17:25:53:935663,-1,0,-1,-1,1,-4,5,2
17:25:53:943297,-2,-4,0,-1,-2,-2,-8,0
17:25:53:951435,-2,-4,0,-1,-2,-2,-8,0
17:25:53:952192,-14,-10,-2,-1,-4,-8,-20,-6
17:25:53:965765,-5,1,2,1,1,4,21,-4
17:25:53:973999,-5,1,2,1,1,4,21,-4
17:25:53:974745,-1,-1,-1,-6,-5,3,13,2
17:25:53:980691,8,1,0,-3,-4,-11,-22,-4
17:25:53:988386,8,1,0,-3,-4,-11,-22,-4
17:25:53:995763,0,6,-3,-2,4,3,2,1
17:25:54:3277,3,0,0,2,-5,-1,4,8
17:25:54:11421,3,0,0,2,-5,-1,4,8
17:25:54:12219,4,3,0,1,5,5,0,3
17:25:54:25742,-6,0,-5,-1,-1,0,-2,1
17:25:54:33946,-6,0,-5,-1,-1,0,-2,1
17:25:54:34719,-3,1,0,1,-2,4,-3,-3
17:25:54:40815,-11,-4,1,1,1,2,3,-6
17:25:54:48314,-11,-4,1,1,1,2,3,-6
17:25:54:55769,0,-4,-2,0,3,-1,-5,2
17:25:54:63293,-6,-5,0,-2,3,-1,-13,-7
17:25:54:71498,-6,-5,0,-2,3,-1,-13,-7
17:25:54:72264,-1,-6,-2,-1,-1,-3,-2,0
17:25:54:85746,-5,2,1,-5,-1,-1,0,-5
17:25:54:93960,-5,2,1,-5,-1,-1,0,-5
17:25:54:94767,0,-6,-7,-1,-1,-1,1,-4
17:25:54:100745,0,4,-2,3,4,1,0,-3
17:25:54:108392,0,4,-2,3,4,1,0,-3
17:25:54:115751,-2,-2,-2,-3,-5,-6,-8,-2
17:25:54:123328,2,0,1,3,5,7,3,3
17:25:54:131422,2,0,1,3,5,7,3,3
17:25:54:132174,-3,-2,6,-4,-5,2,0,-4
17:25:54:145764,0,4,3,-5,-6,-3,-1,0
17:25:54:154123,0,4,3,-5,-6,-3,-1,0
17:25:54:154735,4,6,5,3,-3,-3,1,1
17:25:54:160768,4,-3,-1,-1,-5,-4,-4,-3
17:25:54:168265,4,-3,-1,-1,-5,-4,-4,-3
17:25:54:175800,-3,3,-1,-12,-13,-13,-2,-1
17:25:54:183236,-4,-13,3,8,9,1,4,1
17:25:54:191474,-4,-13,3,8,9,1,4,1
17:25:54:192179,3,0,-1,-9,1,1,12,-1
17:25:54:205777,-6,-11,-8,-9,-9,-6,2,1
17:25:54:213921,-6,-11,-8,-9,-9,-6,2,1
17:25:54:214685,-4,8,-5,4,3,6,-4,-3
17:25:54:220783,2,2,1,1,1,-3,-3,1
17:25:54:228278,2,2,1,1,1,-3,-3,1
17:25:54:235708,-4,-3,-10,-2,-3,-5,-4,-3
17:25:54:243339,-6,-3,10,4,2,2,5,-3
17:25:54:251434,-6,-3,10,4,2,2,5,-3
17:25:54:252214,6,-6,-7,5,9,7,0,1
17:25:54:265800,-5,5,3,-9,-6,-7,-5,-4
17:25:54:273954,-5,5,3,-9,-6,-7,-5,-4
17:25:54:274707,0,-1,2,6,8,10,4,1
17:25:54:280688,2,6,2,10,10,6,-2,-5
17:25:54:288382,2,6,2,10,10,6,-2,-5
17:25:54:295782,-2,2,0,-3,-8,1,2,-3
17:25:54:303210,-1,-3,-13,-2,-7,-3,-4,-6
17:25:54:311420,-1,-3,-13,-2,-7,-3,-4,-6
17:25:54:312217,0,-4,-3,1,0,-5,-2,0
17:25:54:325741,-1,-3,-5,-5,-5,-5,-18,-6
17:25:54:333927,-1,-3,-5,-5,-5,-5,-18,-6
17:25:54:334702,0,-2,6,1,-2,-3,-7,4
17:25:54:340882,11,3,-14,-11,-7,-2,-15,-4
17:25:54:348285,11,3,-14,-11,-7,-2,-15,-4
17:25:54:355743,-4,0,-6,-2,3,0,7,-3
17:25:54:363291,-2,-4,6,4,2,-1,-3,-1
17:25:54:371495,-2,-4,6,4,2,-1,-3,-1
17:25:54:372233,1,2,2,-1,-1,-2,-2,1
17:25:54:385767,-1,4,13,0,-2,-1,10,1
17:25:54:393987,-1,4,13,0,-2,-1,10,1
17:25:54:394748,-3,0,2,3,0,0,-3,0
17:25:54:400692,-4,-2,0,2,0,-1,6,1
17:25:54:408379,-4,-2,0,2,0,-1,6,1
17:25:54:415776,-2,2,5,-5,-4,-8,-8,-5
17:25:54:423201,-4,-8,-2,-5,-4,-2,2,0
17:25:54:431393,-4,-8,-2,-5,-4,-2,2,0
17:25:54:432189,0,3,-2,-2,-3,0,-1,-1
17:25:54:445748,2,-1,6,3,3,10,7,4
17:25:54:453985,2,-1,6,3,3,10,7,4
17:25:54:454760,-3,-10,-4,-3,1,5,1,-2
17:25:54:460681,-8,0,-6,0,0,2,0,-3
17:25:54:468240,-8,0,-6,0,0,2,0,-3
17:25:54:475778,-3,2,10,9,3,-2,-1,0
17:25:54:483207,10,-8,-15,-5,-5,-2,4,3
17:25:54:491537,10,-8,-15,-5,-5,-2,4,3
17:25:54:492255,-10,-9,-1,3,9,-1,4,-5
17:25:54:514580,-3,2,-1,-4,-2,-4,-8,-5
17:25:54:515389,-3,2,-1,-4,-2,-4,-8,-5
17:25:54:516188,-2,-1,3,-2,-1,-3,-6,-2
17:25:54:520921,1,6,4,-3,0,-5,-1,3
17:25:54:528329,1,6,4,-3,0,-5,-1,3
17:25:54:535766,0,-2,-11,-6,-10,2,2,0
17:25:54:543314,-7,-1,-8,1,4,-1,-2,-1
17:25:54:550738,-7,-1,-8,1,4,-1,-2,-1
17:25:54:558353,5,-1,-4,3,4,6,-2,1
17:25:54:565727,-2,0,-20,-3,-6,-4,-2,-3
17:25:54:574007,-2,0,-20,-3,-6,-4,-2,-3
17:25:54:574676,4,1,-3,0,1,1,2,-2
17:25:54:588879,0,2,9,-3,-2,-2,1,2
17:25:54:589717,0,2,9,-3,-2,-2,1,2
17:25:54:595769,-3,-12,-3,-8,-6,-7,-1,-2
17:25:54:603248,-8,-20,-16,0,-8,-11,-7,-5
17:25:54:610809,-8,-20,-16,0,-8,-11,-7,-5
17:25:54:626437,1,5,2,1,-1,1,-2,4
17:25:54:627156,-4,3,-13,-4,-4,0,-2,3
17:25:54:633915,-4,3,-13,-4,-4,0,-2,3
17:25:54:634687,-5,7,5,3,2,-1,-3,-3
17:25:54:648927,-2,0,7,1,0,0,0,-2
17:25:54:649726,-2,0,7,1,0,0,0,-2
17:25:54:655731,4,10,-2,-1,-5,-8,-1,0
17:25:54:663269,1,0,-6,-7,-5,3,2,-1
17:25:54:678994,1,0,-6,-7,-5,3,2,-1
17:25:54:679751,-3,-9,2,11,8,-1,0,0
17:25:54:685714,-5,-6,3,11,6,2,3,-1
17:25:54:693967,-5,-6,3,11,6,2,3,-1
17:25:54:694784,0,2,-7,-12,-13,-4,-3,0
17:25:54:709000,1,0,-6,10,20,6,-1,-2
17:25:54:709729,1,0,-6,10,20,6,-1,-2
17:25:54:715704,-3,-6,6,-10,-10,-2,-3,-2
17:25:54:723300,1,7,21,4,-10,-5,-2,0
17:25:54:730842,1,7,21,4,-10,-5,-2,0
17:25:54:738316,-3,-6,-8,-4,-6,-7,-1,-1
17:25:54:745750,4,3,-1,2,2,-3,1,-1
17:25:54:754110,4,3,-1,2,2,-3,1,-1
17:25:54:754704,-2,-2,-1,-5,-3,0,-1,-3
17:25:54:768931,1,-1,9,-2,3,2,0,-3
17:25:54:769700,1,-1,9,-2,3,2,0,-3
17:25:54:775823,-2,1,-2,1,4,-4,-5,-2
17:25:54:783228,1,4,3,-5,-3,-2,2,-1
17:25:54:798985,1,4,3,-5,-3,-2,2,-1
17:25:54:799745,-3,-5,4,1,-4,1,-6,-4
17:25:54:805699,-2,3,4,-7,-4,1,0,0
17:25:54:813912,-2,3,4,-7,-4,1,0,0
17:25:54:814676,-2,-4,-8,6,15,-1,-1,-2
17:25:54:829031,0,4,-11,0,3,3,2,0
17:25:54:829819,0,4,-11,0,3,3,2,0
17:25:54:835768,-6,-8,-14,-4,-6,-2,0,-1
17:25:54:843266,-9,-22,-17,1,10,-3,-2,-3
17:25:54:850805,-9,-22,-17,1,10,-3,-2,-3
17:25:54:858256,1,1,5,-2,-5,3,2,-1
17:25:54:865774,0,9,2,-8,-16,6,0,1
17:25:54:873961,0,9,2,-8,-16,6,0,1
17:25:54:874701,5,0,-12,-13,-7,-8,0,2
17:25:54:888968,3,14,21,10,4,2,0,-1
17:25:54:889703,3,14,21,10,4,2,0,-1
17:25:54:895773,3,-3,5,1,-1,-2,0,-1
17:25:54:903293,-10,-31,-15,-4,-7,-8,-3,-3
17:25:54:910789,-10,-31,-15,-4,-7,-8,-3,-3
17:25:54:918173,3,13,6,-3,-2,3,-1,-5
17:25:54:925825,0,7,-8,-17,-1,2,-1,-3
17:25:54:933954,0,7,-8,-17,-1,2,-1,-3
17:25:54:934721,-7,5,5,12,5,0,-2,-1
17:25:54:948899,12,8,-1,5,6,6,-1,2
17:25:54:949686,12,8,-1,5,6,6,-1,2
17:25:54:955720,-2,-2,5,20,-1,-2,-5,0
17:25:54:963242,-6,-12,-5,10,7,-9,-2,-4
17:25:54:970940,-6,-12,-5,10,7,-9,-2,-4
17:25:54:978255,2,-1,-6,2,18,15,4,2
17:25:54:985689,-6,-7,6,-7,-6,-4,0,-1
17:25:54:994001,-6,-7,6,-7,-6,-4,0,-1
17:25:54:994757,0,6,15,13,-5,-10,2,-1
17:25:55:8978,4,13,5,-24,-17,-11,-3,0
17:25:55:9722,4,13,5,-24,-17,-11,-3,0
17:25:55:15693,7,5,11,-4,9,12,6,3
17:25:55:23324,-5,6,-2,14,-1,-5,-5,1
17:25:55:30804,-5,6,-2,14,-1,-5,-5,1
17:25:55:38323,-1,1,-5,-12,-6,-1,1,-2
17:25:55:45753,-3,-5,-3,-1,8,-3,-3,-1
17:25:55:53969,-3,-5,-3,-1,8,-3,-3,-1
17:25:55:54793,-8,-8,-14,-21,9,-3,0,-1
17:25:55:68929,-7,-5,2,-4,-11,-9,-6,-3
17:25:55:69735,-7,-5,2,-4,-11,-9,-6,-3
17:25:55:75743,-1,-12,0,-1,-1,1,-1,-1
17:25:55:83252,0,-4,-13,19,12,8,1,0
17:25:55:90890,0,-4,-13,19,12,8,1,0
17:25:55:98192,-3,-6,-9,-3,-9,-4,-1,0
17:25:55:105827,1,-4,11,0,-4,-2,1,-1
17:25:55:113931,1,-4,11,0,-4,-2,1,-1
17:25:55:114687,-9,-19,-6,-1,-6,-8,-6,-3
17:25:55:128994,3,1,21,-15,-12,-3,-2,-2
17:25:55:129798,3,1,21,-15,-12,-3,-2,-2
17:25:55:135746,-8,-11,-3,-3,4,-17,-3,-2
17:25:55:143239,2,9,-7,-7,-3,-4,2,1
17:25:55:150751,2,9,-7,-7,-3,-4,2,1
17:25:55:158330,11,9,6,8,-8,-3,-6,0
17:25:55:165752,-9,-23,-18,14,8,-6,0,-1
17:25:55:173952,-9,-23,-18,14,8,-6,0,-1
17:25:55:174700,2,9,-8,0,14,13,2,-1
17:25:55:188946,3,3,0,1,3,11,0,0
17:25:55:189719,3,3,0,1,3,11,0,0
17:25:55:195783,-6,-7,5,-9,-3,-3,-2,-3
17:25:55:203236,-3,6,17,-4,-1,6,1,2
17:25:55:210801,-3,6,17,-4,-1,6,1,2
17:25:55:218225,6,5,-2,6,5,0,-1,2
17:25:55:225732,0,6,-18,-2,-8,2,0,-3
17:25:55:234041,0,6,-18,-2,-8,2,0,-3
17:25:55:234771,0,-4,-2,-6,-12,-9,-1,-1
17:25:55:248917,5,12,12,0,6,-11,0,1
17:25:55:249723,5,12,12,0,6,-11,0,1
17:25:55:255793,-5,-11,-11,-5,-4,-5,0,-3
17:25:55:263211,-2,-6,-10,2,-1,-1,1,-2
17:25:55:270785,-2,-6,-10,2,-1,-1,1,-2
17:25:55:278184,-2,-2,7,7,-7,-4,-7,-1
17:25:55:285783,-1,-13,-14,5,6,2,-1,0
17:25:55:293950,-1,-13,-14,5,6,2,-1,0
17:25:55:294728,4,3,-20,-28,-16,-2,-1,-2
17:25:55:309013,2,-9,-11,9,8,-7,-4,-3
17:25:55:309722,2,-9,-11,9,8,-7,-4,-3
17:25:55:315728,-1,8,8,6,12,7,4,-1
17:25:55:323245,7,-2,-12,-6,-12,-2,-4,-1
17:25:55:330780,7,-2,-12,-6,-12,-2,-4,-1
17:25:55:346410,-12,-13,-15,-11,-10,-2,-4,-2
17:25:55:347174,-2,-12,9,2,2,4,2,0
17:25:55:353994,-2,-12,9,2,2,4,2,0
17:25:55:354764,2,18,15,3,4,-1,0,-1
17:25:55:368905,-2,-1,6,-4,-3,-1,1,-2
17:25:55:369768,-2,-1,6,-4,-3,-1,1,-2
17:25:55:375742,1,-5,3,7,-4,0,2,2
17:25:55:383261,0,17,13,-12,-14,-12,-1,0
17:25:55:390846,0,17,13,-12,-14,-12,-1,0
17:25:55:398159,-8,-3,-4,-2,-17,-9,-14,-8
17:25:55:405768,-3,-7,-1,-6,-4,-1,-2,3
17:25:55:413964,-3,-7,-1,-6,-4,-1,-2,3
17:25:55:414717,6,-3,2,-5,5,-2,-2,3
17:25:55:428938,-7,-6,-9,1,3,1,1,-6
17:25:55:429756,-7,-6,-9,1,3,1,1,-6
17:25:55:435753,3,6,-3,3,14,2,-4,-2
17:25:55:443265,2,6,-5,4,14,11,3,0
17:25:55:450767,2,6,-5,4,14,11,3,0
17:25:55:458367,-5,0,26,-8,-16,-1,0,-1
17:25:55:465719,-3,3,-13,-14,-11,-11,-8,-3
17:25:55:473322,-3,3,-13,-14,-11,-11,-8,-3
17:25:55:480811,3,9,7,8,8,5,4,0
17:25:55:488911,-1,-16,-4,-10,-7,-1,-1,-4
17:25:55:489738,-1,-16,-4,-10,-7,-1,-1,-4
17:25:55:495756,0,1,-9,-2,-6,-2,2,-2
17:25:55:511908,5,9,7,16,12,-3,5,3
17:25:55:512664,5,9,7,16,12,-3,5,3
17:25:55:518233,0,-2,0,4,-2,5,4,1
17:25:55:525752,-2,10,4,2,-7,-5,-8,-2
17:25:55:533294,-2,10,4,2,-7,-5,-8,-2
17:25:55:540801,-9,3,-2,22,9,0,-1,-2
17:25:55:548861,8,6,6,0,4,14,4,3
17:25:55:549696,8,6,6,0,4,14,4,3
17:25:55:555764,-1,0,-5,-15,-13,-7,-4,0
17:25:55:571452,-3,2,15,1,3,2,0,2
17:25:55:572239,-3,2,15,1,3,2,0,2
17:25:55:578221,-1,-5,-10,-8,-1,0,1,-2
17:25:55:585748,-6,-10,-9,-16,-6,4,-3,-6
17:25:55:593323,-6,-10,-9,-16,-6,4,-3,-6
17:25:55:600687,1,-4,-1,13,9,4,-1,0
17:25:55:609081,0,9,-6,-6,-5,-6,-2,0
17:25:55:609760,0,9,-6,-6,-5,-6,-2,0
17:25:55:615711,10,5,2,-1,6,12,7,8
17:25:55:631400,-3,-14,-1,-7,-13,-5,-3,-4
17:25:55:632199,-3,-14,-1,-7,-13,-5,-3,-4
17:25:55:638318,-10,-17,-4,12,6,-2,-2,-3
17:25:55:646467,-8,-18,-24,0,0,0,0,-2
17:25:55:647249,-8,-18,-24,0,0,0,0,-2
17:25:55:660737,0,6,-1,-5,-4,-1,-3,-2
17:25:55:668886,-4,0,-4,5,-2,-1,-3,-3
17:25:55:669728,-4,0,-4,5,-2,-1,-3,-3
17:25:55:675788,-5,-14,-6,3,9,12,8,-1
17:25:55:691476,-1,-2,5,-5,-5,-14,-1,-3
17:25:55:692193,-1,-2,5,-5,-5,-14,-1,-3
17:25:55:698157,5,18,15,-8,-13,-9,-7,-2
17:25:55:706441,-2,-5,15,2,1,6,-2,-1
17:25:55:707232,-2,-5,15,2,1,6,-2,-1
17:25:55:720871,-3,-6,-3,-7,-2,-5,-3,-5
17:25:55:728696,1,2,0,0,2,-11,-1,-3
17:25:55:736440,1,2,0,0,2,-11,-1,-3
17:25:55:737186,-2,0,1,-4,0,2,-4,-5
17:25:55:751455,-2,2,-7,-11,-9,-1,-2,0
17:25:55:752208,-2,2,-7,-11,-9,-1,-2,0
17:25:55:758261,-1,-6,-7,-8,-3,-3,-2,-1
17:25:55:766378,-3,-5,4,6,9,2,2,1
17:25:55:767189,-3,-5,4,6,9,2,2,1
17:25:55:780763,-1,-11,-6,-3,-6,-7,-1,1
17:25:55:788899,-4,-5,-10,-5,-2,-9,0,2
17:25:55:789711,-4,-5,-10,-5,-2,-9,0,2
17:25:55:795704,7,-6,14,6,7,6,6,1
17:25:55:811397,-4,13,6,3,-1,6,-5,2
17:25:55:812241,-4,13,6,3,-1,6,-5,2
17:25:55:818291,-5,0,-2,2,-4,-5,-2,-2
17:25:55:826478,1,2,-3,-1,0,1,3,2
17:25:55:827192,1,2,-3,-1,0,1,3,2
17:25:55:840793,4,15,6,-8,-3,-7,-6,1
17:25:55:848939,-1,3,-2,5,7,-5,0,-4
17:25:55:849714,-1,3,-2,5,7,-5,0,-4
17:25:55:855748,0,-3,-12,2,10,9,2,-1
17:25:55:871542,-4,-11,2,-2,-6,2,-3,-2
17:25:55:872186,-4,-11,2,-2,-6,2,-3,-2
17:25:55:878240,5,0,-30,6,-2,-5,-1,0
17:25:55:886390,-2,-8,-2,1,5,7,5,-1
17:25:55:887194,-2,-8,-2,1,5,7,5,-1
17:25:55:900802,-4,-4,-3,-11,-12,-12,-10,-5
17:25:55:908927,0,-11,3,-6,0,-5,-3,0
17:25:55:909721,0,-11,3,-6,0,-5,-3,0
17:25:55:915716,-1,11,9,-4,-11,-7,-4,-1
17:25:55:931440,4,6,3,7,-1,4,4,1
17:25:55:932230,4,6,3,7,-1,4,4,1
17:25:55:938262,3,3,7,0,2,-6,0,-1
17:25:55:946485,-3,1,-14,-7,-7,-12,-5,-3
17:25:55:947209,-3,1,-14,-7,-7,-12,-5,-3
17:25:55:960763,-2,1,13,8,13,11,9,1
17:25:55:968966,-2,1,13,8,13,11,9,1
17:25:55:969773,2,7,2,4,-1,1,-1,-1
17:25:55:975783,-2,2,1,-15,-1,-11,-7,-5
17:25:55:991516,-2,2,1,-15,-1,-11,-7,-5
17:25:55:992297,4,5,0,-3,-3,9,0,0
17:25:55:998300,-4,1,-2,2,-5,-3,-2,-4
17:25:56:13984,-4,1,-2,2,-5,-3,-2,-4
17:25:56:14730,-1,8,2,-1,15,3,1,1
17:25:56:20863,-3,-8,-14,1,2,4,2,2
17:25:56:28957,-3,-8,-14,1,2,4,2,2
17:25:56:29751,-3,1,6,-4,-10,5,-8,-4
17:25:56:35742,-1,-8,-5,5,1,4,1,0
17:25:56:51456,-1,-8,-5,5,1,4,1,0
17:25:56:52283,6,-1,-5,8,8,8,6,0
17:25:56:58258,-10,-7,-1,-5,-3,-9,0,1
17:25:56:73959,-10,-7,-1,-5,-3,-9,0,1
17:25:56:74704,-8,-15,-12,-8,-4,0,-3,1
17:25:56:80701,-2,-5,3,0,-2,0,-7,-1
17:25:56:88974,-2,-5,3,0,-2,0,-7,-1
17:25:56:89727,5,-1,-1,-5,-6,-12,2,0
17:25:56:95716,-4,-25,-49,-12,-4,-13,-2,-3
17:25:56:111435,-4,-25,-49,-12,-4,-13,-2,-3
17:25:56:112216,-1,2,5,8,10,2,-3,-3
17:25:56:118265,6,-6,10,9,14,11,1,-1
17:25:56:133897,6,-6,10,9,14,11,1,-1
17:25:56:134690,-3,-7,-15,-1,-10,-7,-3,2
17:25:56:140776,-2,19,28,-11,-15,-4,-3,-1
17:25:56:148923,-2,19,28,-11,-15,-4,-3,-1
17:25:56:149690,4,8,10,4,0,-11,-1,0
17:25:56:155726,-7,-15,-22,0,-1,-3,-4,-3
17:25:56:179630,-7,-15,-22,0,-1,-3,-4,-3
17:25:56:180420,-4,1,-10,-12,-7,-2,-2,-5
17:25:56:181191,8,17,3,3,-1,2,3,2
17:25:56:194002,8,17,3,3,-1,2,3,2
17:25:56:194756,7,1,-2,4,0,8,1,2
17:25:56:200732,-1,1,3,1,-8,-17,-5,-4
17:25:56:209061,-1,1,3,1,-8,-17,-5,-4
17:25:56:209804,8,11,24,-1,13,4,1,3
17:25:56:215707,-1,4,10,5,3,13,3,-2
17:25:56:231455,-1,4,10,5,3,13,3,-2
17:25:56:232224,-7,1,2,-20,-22,-10,-5,-4
17:25:56:238246,-4,-6,-5,-1,6,-3,-1,0
17:25:56:254029,-4,-6,-5,-1,6,-3,-1,0
17:25:56:254784,-3,-8,-11,2,7,7,0,-4
17:25:56:260738,4,0,-10,-12,-13,1,-2,3
17:25:56:268973,4,0,-10,-12,-13,1,-2,3
17:25:56:269711,0,-1,12,10,2,4,1,2
17:25:56:275822,-5,-11,3,-2,0,-4,1,-6
17:25:56:291477,-5,-11,3,-2,0,-4,1,-6
17:25:56:292224,1,14,12,-4,-11,-9,-6,-3
17:25:56:298172,-2,-1,-10,1,-2,4,5,0
17:25:56:313992,-2,-1,-10,1,-2,4,5,0
17:25:56:314694,-4,-10,-15,1,1,-1,0,1
17:25:56:320820,-4,4,13,-1,4,-3,-3,2
17:25:56:328970,-4,4,13,-1,4,-3,-3,2
17:25:56:329724,4,-3,-3,-1,0,-1,-4,-1
17:25:56:335681,2,1,-2,2,6,14,0,0
17:25:56:351442,2,1,-2,2,6,14,0,0
17:25:56:352239,-7,-26,-24,-6,-4,-6,1,-7
17:25:56:358252,-6,-6,-13,-2,0,5,-5,-4
17:25:56:373992,-6,-6,-13,-2,0,5,-5,-4
17:25:56:374760,-1,2,3,3,3,3,0,2
17:25:56:380745,-2,-4,-24,-3,-8,-8,-6,-2
17:25:56:388962,-2,-4,-24,-3,-8,-8,-6,-2
17:25:56:389743,0,3,0,-1,-2,1,-4,-2
17:25:56:395712,0,5,8,4,14,-5,3,-1
17:25:56:411500,0,5,8,4,14,-5,3,-1
17:25:56:412286,-2,6,13,1,-1,-6,-5,-3
17:25:56:418212,3,7,12,3,-1,6,1,0
17:25:56:433999,3,7,12,3,-1,6,1,0
17:25:56:434732,-1,-4,18,8,0,1,0,-1
17:25:56:440748,1,-7,1,3,-2,-10,0,-1
17:25:56:456465,1,-7,1,3,-2,-10,0,-1
17:25:56:457263,-2,0,-9,-7,-5,2,4,3
17:25:56:463252,-2,-9,-7,-1,-3,0,-6,0
17:25:56:471469,-2,-9,-7,-1,-3,0,-6,0
17:25:56:472218,0,3,-10,5,10,-7,1,0
17:25:56:478233,-1,-7,5,-1,1,3,-3,0
17:25:56:485781,-1,-7,5,-1,1,3,-3,0
17:25:56:493308,-9,-17,-16,-12,-15,1,-5,-3
17:25:56:500705,3,13,8,8,8,5,6,0
17:25:56:509023,3,13,8,8,8,5,6,0
17:25:56:509754,-4,-2,0,-2,11,4,4,-2
17:25:56:523236,-4,-1,-5,-10,-19,-8,-4,0
17:25:56:531412,-4,-1,-5,-10,-19,-8,-4,0
17:25:56:532189,2,9,1,3,-1,-1,-1,0
17:25:56:538315,4,0,-1,3,2,1,3,-2
17:25:56:545820,4,0,-1,3,2,1,3,-2
17:25:56:553184,0,-2,-2,-4,-3,2,-5,-3
17:25:56:560746,0,5,-4,-2,2,-2,-5,2
17:25:56:568953,0,5,-4,-2,2,-2,-5,2
17:25:56:569722,2,3,10,8,5,7,4,2
17:25:56:583202,-3,-12,-10,-2,-2,4,-1,-2
17:25:56:591481,-3,-12,-10,-2,-2,4,-1,-2
17:25:56:592223,7,9,-4,-3,-6,-6,-4,2
17:25:56:598277,-8,-4,18,-4,8,10,3,-2
17:25:56:605867,-8,-4,18,-4,8,10,3,-2
17:25:56:613380,-4,-2,-1,-1,-5,-1,-4,-2
17:25:56:620817,3,2,9,-1,-5,-8,-2,-3
17:25:56:628978,3,2,9,-1,-5,-8,-2,-3
17:25:56:629721,-6,-3,0,-1,3,-2,-2,-3
17:25:56:643324,-4,1,-2,-8,-11,-2,-1,-3
17:25:56:651479,-4,1,-2,-8,-11,-2,-1,-3
17:25:56:652247,7,-1,2,2,13,15,4,2
17:25:56:658293,5,10,11,-1,-7,-10,-8,-4
17:25:56:673980,5,10,11,-1,-7,-10,-8,-4
17:25:56:674711,-5,0,11,2,-5,-7,2,1
17:25:56:680705,-7,-11,1,0,-2,3,2,1
17:25:56:689051,-7,-11,1,0,-2,3,2,1
17:25:56:689729,-2,1,4,-5,-10,-4,-1,-1
17:25:56:703207,7,12,-8,0,5,2,-1,1
17:25:56:711446,7,12,-8,0,5,2,-1,1
17:25:56:712281,-6,-6,-6,2,-2,-6,1,-4
17:25:56:718256,-4,-1,-7,-6,-7,-11,-2,-3
17:25:56:725788,-4,-1,-7,-6,-7,-11,-2,-3
17:25:56:733245,-1,-12,-11,-2,7,-2,-1,1
17:25:56:740820,-7,-7,-32,-8,-15,-11,-3,-3
17:25:56:748905,-7,-7,-32,-8,-15,-11,-3,-3
17:25:56:749684,-11,-7,0,-2,-15,-9,-8,-7
17:25:56:763295,8,10,-3,-6,5,16,6,7
17:25:56:771477,8,10,-3,-6,5,16,6,7
17:25:56:772180,-2,0,3,-5,-7,-10,-8,0
17:25:56:778262,3,0,7,-1,-3,6,-1,-1
17:25:56:785776,3,0,7,-1,-3,6,-1,-1
17:25:56:793368,1,3,3,1,7,1,4,1
17:25:56:800718,-8,-7,9,1,-2,-11,-3,-2
17:25:56:809026,-8,-7,9,1,-2,-11,-3,-2
17:25:56:809732,2,-4,-12,-1,4,6,-3,-4
17:25:56:823299,-2,4,1,-3,-6,-5,-2,-12
17:25:56:831403,-2,4,1,-3,-6,-5,-2,-12
17:25:56:832169,0,8,-16,4,11,2,9,3
17:25:56:838293,2,-9,-12,2,7,7,5,5
17:25:56:845825,2,-9,-12,2,7,7,5,5
17:25:56:853311,-1,-14,4,-1,-6,-3,-4,0
17:25:56:860731,1,-2,-4,-1,1,5,-3,1
17:25:56:868931,1,-2,-4,-1,1,5,-3,1
17:25:56:869693,4,6,2,7,5,10,2,1
17:25:56:883247,-5,-4,1,7,5,-2,-8,-2
17:25:56:891479,-5,-4,1,7,5,-2,-8,-2
17:25:56:892218,0,2,2,3,0,7,1,-2
17:25:56:898147,2,1,0,1,1,-1,2,2
17:25:56:905795,2,1,0,1,1,-1,2,2
17:25:56:913224,-2,-5,-15,-6,-8,-12,-1,-2
17:25:56:920903,-5,-3,12,5,2,-2,5,-1
17:25:56:929002,-5,-3,12,5,2,-2,5,-1
17:25:56:929769,-1,3,4,-6,-8,-8,-8,-8
17:25:56:943244,1,-1,-4,-6,-1,2,-4,2
17:25:56:951462,1,-1,-4,-6,-1,2,-4,2
17:25:56:952203,-2,1,17,0,-2,-1,2,1
17:25:56:958351,-10,-8,-7,-3,-7,-2,0,-4
17:25:56:965773,-10,-8,-7,-3,-7,-2,0,-4
17:25:56:973306,1,1,-3,19,16,9,2,1
17:25:56:980758,-1,-12,-11,-1,-5,-6,-4,-1
17:25:56:989021,-1,-12,-11,-1,-5,-6,-4,-1
17:25:56:989760,-16,-19,-19,-22,-16,-11,-6,-8
17:25:57:12104,-2,-2,0,10,15,-3,3,0
17:25:57:12902,-2,-2,0,10,15,-3,3,0
17:25:57:13722,3,10,13,-6,-5,-3,0,2
17:25:57:18180,-1,6,-2,-7,-11,-1,-2,0
17:25:57:25833,-1,6,-2,-7,-11,-1,-2,0
17:25:57:33201,7,10,11,-8,-2,12,3,0
17:25:57:40826,5,11,-7,-6,-2,-1,-4,-2
17:25:57:48938,5,11,-7,-6,-2,-1,-4,-2
17:25:57:49726,0,-3,-7,-3,-11,-10,-4,1
17:25:57:63279,-4,-11,-8,7,6,4,5,1
17:25:57:71523,-4,-11,-8,7,6,4,5,1
17:25:57:72205,-4,-2,2,-3,-9,-10,-5,-2
17:25:57:78247,2,11,18,-2,-4,-7,1,0
17:25:57:85822,2,11,18,-2,-4,-7,1,0
17:25:57:93302,0,-4,-4,-2,-3,-7,-1,-3
17:25:57:100704,-7,-11,1,5,-6,0,-4,-2
17:25:57:108930,-7,-11,1,5,-6,0,-4,-2
17:25:57:109719,4,5,11,17,11,4,-2,0
17:25:57:123268,-1,-2,10,-6,0,-1,1,-2
17:25:57:131420,-1,-2,10,-6,0,-1,1,-2
17:25:57:132245,-1,6,6,-4,-5,-4,-4,-2
17:25:57:138389,0,1,0,10,3,3,1,-3
17:25:57:145758,0,1,0,10,3,3,1,-3
17:25:57:153271,0,1,-3,-6,2,3,0,-3
17:25:57:160716,4,8,1,-8,2,7,-1,0
17:25:57:176522,4,8,1,-8,2,7,-1,0
17:25:57:177310,-3,-5,-4,-6,-9,-4,0,-4
17:25:57:183187,0,5,5,0,9,-2,2,0
17:25:57:191467,0,5,5,0,9,-2,2,0
17:25:57:192173,-2,-4,-15,-6,-6,-8,-5,-2
17:25:57:198203,1,0,0,-7,-5,-1,1,-2
17:25:57:205747,1,0,0,-7,-5,-1,1,-2
17:25:57:213266,0,-11,-26,-2,7,5,3,2
17:25:57:220764,-2,-4,-3,-3,-3,-12,-4,-3
17:25:57:228931,-2,-4,-3,-3,-3,-12,-4,-3
17:25:57:229741,1,5,6,1,1,-4,0,3
17:25:57:243322,-5,4,13,-2,-3,-6,-5,-5
17:25:57:251414,-5,4,13,-2,-3,-6,-5,-5
17:25:57:252193,-2,-2,6,2,3,1,-2,-1
17:25:57:258414,2,-1,9,3,11,6,2,4
17:25:57:265770,2,-1,9,3,11,6,2,4
17:25:57:273214,0,1,2,-3,-3,4,-4,-2
17:25:57:280734,0,1,10,1,-2,-6,-6,-2
17:25:57:288943,0,1,10,1,-2,-6,-6,-2
17:25:57:289743,-1,-4,-18,4,3,3,0,-2
17:25:57:303249,-3,-4,-16,-4,-5,4,-1,-4
17:25:57:311461,-3,-4,-16,-4,-5,4,-1,-4
17:25:57:312253,-2,2,-1,2,-1,-7,-1,1
17:25:57:318180,-5,-4,1,6,-3,-1,0,-3
17:25:57:325876,-5,-4,1,6,-3,-1,0,-3
17:25:57:333205,3,7,8,-14,-4,-8,-1,0
17:25:57:340803,-1,-5,-10,2,6,-1,2,2
17:25:57:348958,-1,-5,-10,2,6,-1,2,2
17:25:57:349734,2,5,14,6,-2,4,2,-2
17:25:57:363215,1,4,-11,-8,-7,-6,-5,-2
17:25:57:371535,1,4,-11,-8,-7,-6,-5,-2
17:25:57:372191,1,2,0,4,4,5,0,1
17:25:57:386413,2,-12,-6,-9,-13,-4,-6,-3
17:25:57:387235,2,-12,-6,-9,-13,-4,-6,-3
17:25:57:409623,-3,-4,1,9,12,-3,3,-1
17:25:57:410346,-3,-3,-4,-5,-8,1,1,-3
17:25:57:411166,-3,-3,-4,-5,-8,1,1,-3
17:25:57:415718,-6,-9,-4,-5,-13,-5,-1,-3
17:25:57:423265,-1,-8,-15,4,5,4,1,1
17:25:57:431394,-1,-8,-15,4,5,4,1,1
17:25:57:432181,-3,-5,-8,-4,0,-6,-1,-3
17:25:57:446466,-1,0,-2,-4,-7,-6,2,0
17:25:57:447271,-1,0,-2,-4,-7,-6,2,0
17:25:57:453245,2,-8,11,-2,7,12,1,2
17:25:57:460795,-8,-6,4,-10,-2,-8,-2,2
17:25:57:468225,-8,-6,4,-10,-2,-8,-2,2
17:25:57:475789,-4,9,17,7,7,-5,-2,-1
17:25:57:483222,0,0,-9,-2,-7,-6,-8,-2
17:25:57:491497,0,0,-9,-2,-7,-6,-8,-2
17:25:57:492183,-1,-18,0,-5,-6,2,1,0
17:25:57:506456,-1,5,-19,-2,5,10,1,-1
17:25:57:507203,-1,5,-19,-2,5,10,1,-1
17:25:57:513272,2,6,-9,-6,-10,-6,-2,-4
17:25:57:520932,0,5,20,4,9,3,2,1
17:25:57:528290,0,5,20,4,9,3,2,1
17:25:57:535693,-5,-3,-8,3,-1,-6,0,0
17:25:57:543319,1,0,2,5,-9,-14,-5,-3
17:25:57:551417,1,0,2,5,-9,-14,-5,-3
17:25:57:552211,3,7,13,3,11,8,-1,1
17:25:57:566386,-6,-12,-24,-1,4,11,5,-1
17:25:57:567211,-6,-12,-24,-1,4,11,5,-1
17:25:57:573208,3,4,-5,-9,-10,-1,-4,-1
17:25:57:580719,2,4,21,6,5,6,1,0
17:25:57:588297,2,4,21,6,5,6,1,0
17:25:57:595738,-1,-10,-33,-3,-6,-3,-2,-2
17:25:57:603235,-1,0,-8,0,-1,-2,-1,1
17:25:57:611480,-1,0,-8,0,-1,-2,-1,1
17:25:57:612249,0,7,9,1,2,2,-4,-1
17:25:57:626444,6,7,1,-2,-7,-6,-3,-1
17:25:57:627225,6,7,1,-2,-7,-6,-3,-1
17:25:57:633342,-3,-5,-8,3,3,1,2,-2
17:25:57:640752,4,5,11,-9,-11,-7,-6,-3
17:25:57:648246,4,5,11,-9,-11,-7,-6,-3
17:25:57:655714,-3,3,16,2,1,2,1,2
17:25:57:663239,-5,-6,-4,-5,1,5,0,-4
17:25:57:671533,-5,-6,-4,-5,1,5,0,-4
17:25:57:672233,-5,-7,6,-5,0,-19,-5,-2
17:25:57:686422,-1,-2,2,-1,4,1,0,0
17:25:57:687252,-1,-2,2,-1,4,1,0,0
17:25:57:693321,2,2,4,1,-5,4,3,-1
17:25:57:700709,-4,-4,-7,13,3,-5,-1,-2
17:25:57:708374,-4,-4,-7,13,3,-5,-1,-2
17:25:57:715710,1,1,-13,-1,-1,-1,-3,-1
17:25:57:732188,-1,4,13,2,6,1,-1,0
17:25:57:732900,-1,4,13,2,6,1,-1,0
17:25:57:733726,-3,-6,-18,-1,4,6,-2,-2
17:25:57:746456,-3,4,5,1,-5,-14,-1,0
17:25:57:747218,-3,4,5,1,-5,-14,-1,0
17:25:57:753243,-6,-4,9,6,11,5,1,-1
17:25:57:760748,-1,1,1,-4,-5,2,-1,-4
17:25:57:768326,-1,1,1,-4,-5,2,-1,-4
17:25:57:775788,2,-1,-9,-1,-17,-5,-2,-1
17:25:57:783225,2,-7,-1,1,3,3,-2,-1
17:25:57:791535,2,-7,-1,1,3,3,-2,-1
17:25:57:792296,-8,-2,7,-4,-5,-2,-3,-2
17:25:57:806549,1,1,-9,-7,-9,-7,0,1
17:25:57:807270,1,1,-9,-7,-9,-7,0,1
17:25:57:813265,1,-6,-18,-3,-1,1,-2,-2
17:25:57:820888,-3,-1,-7,-3,-4,2,2,-3
17:25:57:828352,-3,-1,-7,-3,-4,2,2,-3
17:25:57:843917,1,-1,9,-2,-4,-4,-1,0
17:25:57:844720,1,5,7,13,10,4,-2,1
17:25:57:851430,1,5,7,13,10,4,-2,1
17:25:57:852230,-2,2,10,-6,-2,3,0,2
17:25:57:866497,-6,-9,-27,-7,-2,-9,-2,-1
17:25:57:867236,-6,-9,-27,-7,-2,-9,-2,-1
17:25:57:873237,-1,-4,-9,-4,-2,0,1,-4
17:25:57:880811,6,-4,13,-1,-10,-2,1,2
17:25:57:888344,6,-4,13,-1,-10,-2,1,2
17:25:57:895750,-2,-4,-18,-1,0,-7,-3,-3
17:25:57:903226,-5,-6,1,-3,0,0,-3,-4
17:25:57:911497,-5,-6,1,-3,0,0,-3,-4
17:25:57:912281,-7,-19,-5,-2,-5,0,1,0
17:25:57:926454,0,-6,-10,-18,-10,-2,1,-1
17:25:57:927246,0,-6,-10,-18,-10,-2,1,-1
17:25:57:933288,-4,-1,7,1,6,1,-2,-3
17:25:57:940720,2,-1,0,-7,-6,2,-5,-2
17:25:57:948271,2,-1,0,-7,-6,2,-5,-2
17:25:57:955773,2,-5,-31,-4,-12,-6,-1,0
17:25:57:963240,-4,-7,2,5,-4,4,4,0
17:25:57:971409,-4,-7,2,5,-4,4,4,0
17:25:57:972172,1,5,4,4,0,-3,-1,0
17:25:57:986365,-5,-7,-15,-7,2,0,-3,-2
17:25:57:987190,-5,-7,-15,-7,2,0,-3,-2
17:25:57:993234,-1,11,13,-2,0,3,-2,-1
17:25:58:9025,-4,-9,-1,5,2,2,2,0
17:25:58:9742,-4,-9,-1,5,2,2,2,0
17:25:58:15691,-2,3,6,1,10,7,1,1
17:25:58:23319,5,9,6,9,6,0,-2,-1
17:25:58:31391,5,9,6,9,6,0,-2,-1
17:25:58:32164,3,0,-15,-2,0,-6,2,0
17:25:58:46455,6,4,5,-9,-7,-5,-3,-2
17:25:58:47290,6,4,5,-9,-7,-5,-3,-2
17:25:58:53231,1,-7,0,-2,-3,-1,2,-3
17:25:58:60722,-2,3,0,-1,0,-3,-1,-3
17:25:58:68310,-2,3,0,-1,0,-3,-1,-3
17:25:58:75824,0,3,10,4,6,10,2,1
17:25:58:83229,0,-2,-17,-4,-1,-7,-2,-1
17:25:58:91528,0,-2,-17,-4,-1,-7,-2,-1
17:25:58:92273,2,0,-3,12,1,-8,-3,-2
17:25:58:106462,-3,4,10,7,4,0,-3,-3
17:25:58:107231,-3,4,10,7,4,0,-3,-3
17:25:58:113302,-2,4,6,-7,-7,-4,-2,-1
17:25:58:120943,-4,2,5,-1,7,6,1,0
17:25:58:128294,-4,2,5,-1,7,6,1,0
17:25:58:135729,2,1,-20,-4,-4,-6,-4,2
17:25:58:143331,-3,3,1,2,-4,-1,-3,0
17:25:58:151397,-3,3,1,2,-4,-1,-3,0
17:25:58:152168,0,-5,3,5,-3,6,2,-2
17:25:58:166373,-2,1,1,-5,-3,4,3,-2
17:25:58:167191,-2,1,1,-5,-3,4,3,-2
17:25:58:173216,-1,-1,5,-1,-3,-4,-5,-3
17:25:58:180746,-4,-6,2,1,-3,-5,-7,-1
17:25:58:188379,-4,-6,2,1,-3,-5,-7,-1
17:25:58:195768,-1,-2,-5,-6,-1,2,0,0
17:25:58:203252,1,4,8,8,15,5,2,1
17:25:58:211532,1,4,8,8,15,5,2,1
17:25:58:212361,3,8,6,-4,0,-5,2,-2
17:25:58:234529,0,-3,-1,-3,-5,-4,2,-2
17:25:58:235326,0,-3,-1,-3,-5,-4,2,-2
17:25:58:236153,-2,-2,18,-1,-3,1,-5,-1
17:25:58:240839,-1,-3,3,-3,1,4,-2,-1
17:25:58:248262,-1,-3,3,-3,1,4,-2,-1
17:25:58:255728,-5,-11,-7,1,1,2,-3,0
17:25:58:263203,5,6,-6,1,5,5,4,3
17:25:58:271585,5,6,-6,1,5,5,4,3
17:25:58:272231,-1,3,7,-4,-8,-3,-4,-5
17:25:58:286404,-1,-8,-8,-2,-8,-5,-3,-2
17:25:58:287240,-1,-8,-8,-2,-8,-5,-3,-2
17:25:58:293247,2,5,8,-3,1,4,1,1
17:25:58:300683,-4,6,10,-2,-3,-5,-3,-2
17:25:58:308375,-4,6,10,-2,-3,-5,-3,-2
17:25:58:315696,-6,-7,5,-3,-1,-3,0,-3
17:25:58:323275,-2,-6,-7,-4,-2,-2,-1,-1
17:25:58:330832,-2,-6,-7,-4,-2,-2,-1,-1
17:25:58:338374,0,5,5,-1,4,-4,0,2
17:25:58:346459,1,-1,-3,2,-1,4,-2,-1
17:25:58:347283,1,-1,-3,2,-1,4,-2,-1
17:25:58:353235,4,-3,-5,1,-2,3,1,2
17:25:58:368949,4,1,-18,3,2,9,1,1
17:25:58:369815,4,1,-18,3,2,9,1,1
17:25:58:375884,-7,-3,-7,-4,-5,-10,-3,-2
17:25:58:383197,1,-1,-4,-1,-2,-4,-2,-2
17:25:58:390900,1,-1,-4,-1,-2,-4,-2,-2
17:25:58:398198,-5,-12,3,-3,0,2,-3,-3
17:25:58:406432,-2,-6,0,-1,5,-22,1,0
17:25:58:407256,-2,-6,0,-1,5,-22,1,0
17:25:58:413269,0,12,5,1,1,0,3,-2
17:25:58:428982,1,-2,14,-1,-4,3,0,1
17:25:58:429747,1,-2,14,-1,-4,3,0,1
17:25:58:435754,5,6,2,0,-4,-3,-2,5
17:25:58:443265,-6,-5,-11,-4,-2,-4,-4,-2
17:25:58:459021,-6,-5,-11,-4,-2,-4,-4,-2
17:25:58:459713,4,0,-15,4,9,1,2,-2
17:25:58:466400,-4,0,-18,-5,-1,1,-2,-4
17:25:58:467205,-4,0,-18,-5,-1,1,-2,-4
17:25:58:473278,-2,-18,-31,-4,-2,2,-3,-2
17:25:58:488951,0,5,15,-3,-1,8,1,0
17:25:58:489755,0,5,15,-3,-1,8,1,0
17:25:58:495740,-5,-1,-1,2,-6,-13,-5,-3
17:25:58:511473,1,8,8,0,-5,1,-2,-2
17:25:58:512248,1,8,8,0,-5,1,-2,-2
17:25:58:518186,8,6,13,1,-3,-9,-2,3
17:25:58:526474,-2,7,7,6,8,4,1,1
17:25:58:527246,-2,7,7,6,8,4,1,1
17:25:58:533224,-4,2,6,-3,1,1,7,-3
17:25:58:548953,-2,2,7,-6,-10,-5,1,-1
17:25:58:549729,-2,2,7,-6,-10,-5,1,-1
17:25:58:555734,-4,-4,-3,-2,1,1,-5,-1
17:25:58:571470,2,-5,0,-4,-4,-5,-3,-1
17:25:58:572274,2,-5,0,-4,-4,-5,-3,-1
17:25:58:578233,-10,-11,5,-6,-7,-4,-3,-3
17:25:58:586442,-6,-7,0,3,8,-5,2,3
17:25:58:587208,-6,-7,0,3,8,-5,2,3
17:25:58:593345,2,6,-5,1,3,5,0,1
17:25:58:608941,-1,-7,-11,0,-2,-6,-3,-1
17:25:58:609724,-1,-7,-11,0,-2,-6,-3,-1
17:25:58:615743,0,1,-6,-7,-6,-3,-2,0
17:25:58:623218,5,4,-1,3,1,-3,-2,-2
17:25:58:630746,5,4,-1,3,1,-3,-2,-2
17:25:58:638318,-3,9,17,6,-3,2,1,-1
17:25:58:646439,-3,-4,-35,-4,-1,-1,-2,-4
17:25:58:647288,-3,-4,-35,-4,-1,-1,-2,-4
17:25:58:653256,-1,-1,-4,0,1,-1,-4,-5
17:25:58:677131,-6,-9,14,3,0,1,-2,0
17:25:58:677920,-6,-9,14,3,0,1,-2,0
17:25:58:678731,-1,-11,-14,-7,-5,1,-1,-4
17:25:58:683208,-3,-7,4,-1,1,-4,-2,-2
17:25:58:690932,-3,-7,4,-1,1,-4,-2,-2
17:25:58:698222,1,-1,-8,3,8,5,4,1
17:25:58:706476,2,-1,-15,-5,-9,-3,2,1
17:25:58:707268,2,-1,-15,-5,-9,-3,2,1
17:25:58:713301,-1,-4,-1,1,-1,-4,4,1
17:25:58:728950,5,5,1,3,1,-2,1,2
17:25:58:729765,5,5,1,3,1,-2,1,2
17:25:58:735725,0,10,-2,-5,-1,-5,-2,-2
17:25:58:743280,0,2,6,-2,1,2,-6,-3
17:25:58:750795,0,2,6,-2,1,2,-6,-3
17:25:58:758335,-1,-2,4,2,-1,3,1,0
17:25:58:766388,-1,4,3,-1,-2,1,-1,-4
17:25:58:767204,-1,4,3,-1,-2,1,-1,-4
17:25:58:773357,-3,-3,3,2,1,-17,-9,-2
17:25:58:789007,-6,-1,2,4,10,9,4,1
17:25:58:789721,-6,-1,2,4,10,9,4,1
17:25:58:795755,-1,1,0,-8,-6,2,3,2
17:25:58:803207,-7,-25,-22,-7,-4,-3,-4,-3
17:25:58:810823,-7,-25,-22,-7,-4,-3,-4,-3
17:25:58:818212,-1,-9,-6,-1,-1,0,13,4
17:25:58:826493,-1,6,4,-3,1,1,0,0
17:25:58:827203,-1,6,4,-3,1,1,0,0
17:25:58:833266,-5,-2,-6,-2,-1,-3,-19,-7
17:25:58:848926,3,8,16,0,-4,-4,8,6
17:25:58:849694,3,8,16,0,-4,-4,8,6
17:25:58:855753,7,17,17,1,3,8,6,-2
17:25:58:863254,-1,-9,-15,-3,-3,-4,-5,-4
17:25:58:870931,-1,-9,-15,-3,-3,-4,-5,-4
17:25:58:878287,-2,-1,6,4,7,5,-1,-3
17:25:58:886392,-2,-1,2,-1,-2,2,3,-1
17:25:58:887200,-2,-1,2,-1,-2,2,3,-1
17:25:58:893238,-2,-3,-11,-4,-6,-6,-7,-3
17:25:58:908951,3,-7,-8,3,6,4,0,-1
17:25:58:909739,3,-7,-8,3,6,4,0,-1
17:25:58:915665,-1,-1,-3,-3,-4,-4,0,-3
17:25:58:923380,-2,5,20,-3,-7,-1,0,0
17:25:58:930811,-2,5,20,-3,-7,-1,0,0
17:25:58:938282,-1,-5,-9,0,1,-4,-8,-1
17:25:58:954667,-2,1,-2,1,0,1,20,-1
17:25:58:955343,-2,1,-2,1,0,1,20,-1
17:25:58:956162,-2,-8,3,3,4,0,-9,-6
17:25:58:968889,1,-1,-17,-2,-1,-5,-12,-2
17:25:58:969666,1,-1,-17,-2,-1,-5,-12,-2
17:25:58:975794,1,-12,-11,-1,-6,2,1,3
17:25:58:983202,1,2,-27,-5,1,0,-6,-1
17:25:58:990859,1,2,-27,-5,1,0,-6,-1
17:25:58:998154,3,3,-1,0,2,5,2,6
17:25:59:6484,1,5,15,1,-4,-3,6,0
17:25:59:7279,1,5,15,1,-4,-3,6,0
17:25:59:13258,-2,-12,4,-2,-4,-2,14,1
17:25:59:28963,-8,-6,-5,-3,-3,-4,-14,-3
17:25:59:29783,-8,-6,-5,-3,-3,-4,-14,-3
17:25:59:35746,4,9,17,5,8,-2,6,6
17:25:59:43257,-3,-4,9,-1,-1,1,-3,-2
17:25:59:50832,-3,-4,9,-1,-1,1,-3,-2
17:25:59:58265,-4,-2,11,1,-4,-1,-4,2
17:25:59:66608,-3,5,6,1,2,-2,3,-3
17:25:59:67307,-3,5,6,1,2,-2,3,-3
17:25:59:73204,3,7,-12,-5,-5,-4,-6,-3
17:25:59:89007,-2,-20,-23,-2,0,-3,-6,-4
17:25:59:89709,-2,-20,-23,-2,0,-3,-6,-4
17:25:59:95750,0,5,1,1,0,-3,-8,-3
17:25:59:103224,-2,-2,-6,0,-3,0,-1,-1
17:25:59:118996,-2,-2,-6,0,-3,0,-1,-1
17:25:59:119691,-5,-8,-5,-5,-1,0,0,-1
17:25:59:126484,4,5,16,2,-2,0,-3,1
17:25:59:127199,4,5,16,2,-2,0,-3,1
17:25:59:133187,-2,2,4,2,-1,2,-7,-3
17:25:59:148956,-2,1,-3,-1,-2,-8,-2,-2
17:25:59:149745,-2,1,-3,-1,-2,-8,-2,-2
17:25:59:155786,-1,0,-8,-4,-3,2,7,-3
17:25:59:163228,2,-5,-6,-3,-2,1,2,2
17:25:59:170800,2,-5,-6,-3,-2,1,2,2
17:25:59:178247,-5,-6,0,-3,-3,3,5,5
17:25:59:186485,-1,5,-5,-1,-3,4,11,1
17:25:59:187224,-1,5,-5,-1,-3,4,11,1
17:25:59:193246,-2,1,-11,-5,-1,-4,3,-2
17:25:59:208981,-2,2,12,-2,-4,-4,-7,-4
17:25:59:209740,-2,2,12,-2,-4,-4,-7,-4
17:25:59:215687,-1,-4,-4,1,1,2,-6,-2
17:25:59:231436,0,-2,-5,-3,-1,-5,-10,-4
17:25:59:232239,0,-2,-5,-3,-1,-5,-10,-4
17:25:59:238222,3,-2,1,-1,0,-4,1,2
17:25:59:246442,3,-2,1,-1,0,-4,1,2
17:25:59:247250,-1,-2,-12,1,0,-3,-5,-3
17:25:59:253263,-6,-4,-14,0,-3,3,-4,-4
17:25:59:268954,-6,-4,-14,0,-3,3,-4,-4
17:25:59:269702,-2,4,19,0,0,-1,-10,0
17:25:59:275740,1,-1,-4,-3,-4,-7,-8,-4
17:25:59:291396,1,-1,-4,-3,-4,-7,-8,-4
17:25:59:292178,0,10,8,-1,-2,-4,-3,-1
17:25:59:298127,-4,6,6,0,-3,-1,0,-3
17:25:59:306446,-4,6,6,0,-3,-1,0,-3
17:25:59:307225,2,4,15,5,4,5,4,1
17:25:59:320781,0,3,0,-2,-3,0,2,-1
17:25:59:329017,0,3,0,-2,-3,0,2,-1
17:25:59:329759,3,-2,4,0,0,1,-2,0
17:25:59:335803,1,1,6,3,3,2,-7,-1
17:25:59:351422,1,1,6,3,3,2,-7,-1
17:25:59:352213,-5,-2,-1,-4,-3,-6,-13,-3
17:25:59:358359,-7,-16,-5,1,-1,-1,6,-2
17:25:59:366447,-7,-16,-5,1,-1,-1,6,-2
17:25:59:367205,0,-4,-9,-3,-1,-1,-4,-1
17:25:59:380809,4,7,-18,1,1,2,7,3
17:25:59:397268,4,7,-18,1,1,2,7,3
17:25:59:397914,-2,-8,-13,-2,-2,-1,6,-2
17:25:59:398695,-2,2,15,-3,3,-6,2,0
17:25:59:411498,-2,2,15,-3,3,-6,2,0
17:25:59:412274,-3,1,-11,-1,1,1,1,1
17:25:59:418218,3,1,9,-5,-4,-1,-7,-1
17:25:59:426586,3,1,9,-5,-4,-1,-7,-1
17:25:59:427244,-3,-6,5,-2,-4,-4,-7,-3
17:25:59:440827,-7,-6,11,1,-6,-2,0,-5
17:25:59:448930,-7,-6,11,1,-6,-2,0,-5
17:25:59:449722,1,1,-6,-1,-5,-1,-2,-3
17:25:59:455729,-2,3,-6,-3,-2,-1,-9,-2
17:25:59:471550,-2,3,-6,-3,-2,-1,-9,-2
17:25:59:472202,-1,-8,2,-2,2,2,-4,-3
17:25:59:478196,3,1,20,-2,0,-4,-6,-5
17:25:59:486472,3,1,20,-2,0,-4,-6,-5
17:25:59:487259,2,10,1,-1,-1,1,5,4
17:25:59:509540,0,1,-12,-1,-2,-3,0,-3
17:25:59:510350,0,1,-12,-1,-2,-3,0,-3
17:25:59:511182,4,5,8,2,1,1,9,1
17:25:59:515658,4,-2,-12,0,2,2,-2,-1
17:25:59:531385,4,-2,-12,0,2,2,-2,-1
17:25:59:532179,-2,-4,-10,-5,-2,2,0,0
17:25:59:538303,-3,-5,-20,-5,-2,-4,0,1
17:25:59:546461,-3,-5,-20,-5,-2,-4,0,1
17:25:59:547249,-2,-2,-4,1,2,-2,5,2
17:25:59:560777,-9,-7,9,1,3,0,-1,3
17:25:59:568955,-9,-7,9,1,3,0,-1,3
17:25:59:569760,-7,-1,-1,-5,-4,-1,-6,-5
17:25:59:575777,-2,2,7,0,-2,-2,17,2
17:25:59:591466,-2,2,7,0,-2,-2,17,2
17:25:59:592187,-3,-4,0,1,-1,2,7,-1
17:25:59:598204,7,-1,-1,-2,2,2,4,-4
17:25:59:606481,7,-1,-1,-2,2,2,4,-4
17:25:59:607213,0,3,-8,1,2,-2,3,-4
17:25:59:620885,-4,4,-1,0,-2,3,14,3
17:25:59:628988,-4,4,-1,0,-2,3,14,3
17:25:59:629771,3,-4,-7,0,-2,2,1,2
17:25:59:635738,7,4,8,1,2,-5,-19,-2
17:25:59:651486,7,4,8,1,2,-5,-19,-2
17:25:59:652243,-6,1,21,2,-5,-6,-11,-6
17:25:59:658280,-9,-5,-4,1,2,1,-2,2
17:25:59:666283,-9,-5,-4,1,2,1,-2,2
17:25:59:673260,-1,-7,-4,-2,1,1,7,0
17:25:59:680758,-3,-3,-13,-4,-3,0,-8,-6
17:25:59:689086,-3,-3,-13,-4,-3,0,-8,-6
17:25:59:689766,11,-4,-22,-2,1,-4,-10,-1
17:25:59:695758,8,6,4,0,-2,-3,-3,-2
17:25:59:711422,8,6,4,0,-2,-3,-3,-2
17:25:59:712219,-14,-7,0,-2,-5,-6,0,-4
17:25:59:718327,-3,-5,-7,-3,-1,2,37,0
17:25:59:733956,-3,-5,-7,-3,-1,2,37,0
17:25:59:734773,4,2,3,-3,-2,-8,-1,-1
17:25:59:740864,0,3,10,-2,-3,-5,-3,-1
17:25:59:748950,0,3,10,-2,-3,-5,-3,-1
17:25:59:749721,-2,-9,-6,-1,-2,0,6,1
17:25:59:755749,4,-3,0,3,0,3,-14,-4
17:25:59:771532,4,-3,0,3,0,3,-14,-4
17:25:59:772299,-5,4,5,-1,1,1,-7,-3
17:25:59:787123,-10,-16,-12,-5,-5,-3,-6,-1
17:25:59:787913,-10,-16,-12,-5,-5,-3,-6,-1
17:25:59:788717,2,-2,10,2,1,2,-4,0
17:25:59:800736,1,6,-29,-3,-2,-1,-10,-2
17:25:59:809020,1,6,-29,-3,-2,-1,-10,-2
17:25:59:809751,1,-4,-8,-4,0,1,1,3
17:25:59:815800,-4,-10,17,4,2,-2,-10,-2
17:25:59:831466,-4,-10,17,4,2,-2,-10,-2
17:25:59:832229,6,-4,0,-1,2,2,3,6
17:25:59:838427,-6,0,6,-1,-2,0,2,0
17:25:59:846492,-6,0,6,-1,-2,0,2,0
17:25:59:847248,-1,6,5,2,0,-3,-3,-2
17:25:59:860704,2,-2,1,-5,-5,-3,-6,0
17:25:59:868940,2,-2,1,-5,-5,-3,-6,0
17:25:59:869709,-1,5,10,0,2,0,2,-4
17:25:59:875727,-5,0,0,-1,-2,-4,1,-3
17:25:59:891523,-5,0,0,-1,-2,-4,1,-3
17:25:59:892214,-8,5,5,0,0,5,12,1
17:25:59:898160,-1,0,-2,-2,-3,-1,-4,-3
17:25:59:906502,-1,0,-2,-2,-3,-1,-4,-3
17:25:59:907217,-3,-6,0,1,0,-1,-7,-3
17:25:59:920757,-2,-6,-18,-1,-3,-3,0,2
17:25:59:928962,-2,-6,-18,-1,-3,-3,0,2
17:25:59:929774,-5,9,-2,0,0,1,-2,0
17:25:59:935791,4,-6,-23,0,2,-1,0,2
17:25:59:951400,4,-6,-23,0,2,-1,0,2
17:25:59:952173,-9,6,8,2,-2,-3,0,-1
17:25:59:958253,0,-6,9,-2,1,1,-8,0
17:25:59:966409,0,-6,9,-2,1,1,-8,0
17:25:59:967202,3,-2,-6,-1,-2,-1,3,-1
17:25:59:980807,-4,2,1,2,0,-5,-3,-4
17:25:59:988926,-4,2,1,2,0,-5,-3,-4
17:25:59:989707,6,-2,-6,-6,-3,-2,-12,0
17:25:59:995698,2,4,4,1,2,1,-3,2
17:26:00:19638,2,4,4,1,2,1,-3,2
17:26:00:20448,-2,-9,3,0,-1,0,9,5
17:26:00:21184,1,3,2,0,2,2,-1,-1
17:26:00:26546,1,3,2,0,2,2,-1,-1
17:26:00:27242,7,3,-4,-4,-7,-8,-7,-4
17:26:00:40808,0,-4,-16,-3,-1,-5,-11,-3
17:26:00:48932,0,-4,-16,-3,-1,-5,-11,-3
17:26:00:49721,-4,-2,-16,-2,0,2,-3,-3
17:26:00:63207,8,7,13,-5,-6,-5,1,7
17:26:00:71510,8,7,13,-5,-6,-5,1,7
17:26:00:72236,-4,-3,-4,-5,-3,-8,-4,-5
17:26:00:78247,-4,-3,5,3,1,2,-2,-2
17:26:00:86481,-4,-3,5,3,1,2,-2,-2
17:26:00:87257,2,2,8,0,1,3,6,1
17:26:00:100682,-1,4,4,-2,-1,5,17,1
17:26:00:109005,-1,4,4,-2,-1,5,17,1
17:26:00:109709,0,1,-12,0,-2,-6,-4,-4
17:26:00:115676,-1,2,8,2,4,-2,-5,-3
17:26:00:131402,-1,2,8,2,4,-2,-5,-3
17:26:00:132209,1,1,1,2,1,4,3,1
17:26:00:138233,0,0,10,-3,-3,-4,-3,-4
17:26:00:146547,0,0,10,-3,-3,-4,-3,-4
17:26:00:147237,-4,-1,-1,2,4,4,-1,-4
17:26:00:160734,-2,-11,-10,1,-3,5,-6,-5
17:26:00:168781,-2,-11,-10,1,-3,5,-6,-5
17:26:00:176498,-5,-8,-15,-5,-5,-6,-3,0
17:26:00:177134,-1,2,-10,0,-1,-3,2,-3
17:26:00:191486,-1,2,-10,0,-1,-3,2,-3
17:26:00:192231,0,-2,-11,0,2,-2,4,-1
17:26:00:198313,-5,3,8,-4,-4,-4,-2,0
17:26:00:205765,-5,3,8,-4,-4,-4,-2,0
17:26:00:213255,3,6,-2,3,3,3,-2,-2
17:26:00:220888,0,-8,2,-2,-2,-5,-1,3
17:26:00:229014,0,-8,2,-2,-2,-5,-1,3
17:26:00:229783,-5,-7,10,-2,-4,-5,-5,-1
17:26:00:243256,-1,1,19,-1,-3,8,0,3
17:26:00:251546,-1,1,19,-1,-3,8,0,3
17:26:00:252243,2,5,-4,3,0,1,1,0
17:26:00:258257,-1,2,-7,0,-2,-3,4,-1
17:26:00:265791,-1,2,-7,0,-2,-3,4,-1
17:26:00:273313,3,14,25,-2,-7,-5,0,-1
17:26:00:280742,-3,3,5,5,8,5,0,-1
17:26:00:288947,-3,3,5,5,8,5,0,-1
17:26:00:289745,4,-2,2,1,2,2,-6,-3
17:26:00:303259,3,8,-14,-7,-1,-3,-2,-2
17:26:00:311481,3,8,-14,-7,-1,-3,-2,-2
17:26:00:312261,-4,-3,-22,-4,2,1,-2,-1
17:26:00:318212,-6,-6,-20,-5,-6,-2,7,-2
17:26:00:325913,-6,-6,-20,-5,-6,-2,7,-2
17:26:00:341468,-4,-3,-12,0,-1,4,2,-1
17:26:00:342205,-1,-9,-20,6,5,-4,-5,-3
17:26:00:348941,-1,-9,-20,6,5,-4,-5,-3
17:26:00:349744,-4,-9,9,0,0,-1,0,-1
17:26:00:363260,-2,-4,5,4,2,-2,2,0
17:26:00:371482,-2,-4,5,4,2,-2,2,0
17:26:00:372272,-1,-5,-2,-7,-5,-4,-5,3
17:26:00:378190,-2,-11,-2,-8,-9,-5,0,0
17:26:00:385908,-2,-11,-2,-8,-9,-5,0,0
17:26:00:393236,-5,7,3,2,3,4,-1,-4
17:26:00:400709,-1,-4,-7,-5,3,0,-13,-2
17:26:00:408954,-1,-4,-7,-5,3,0,-13,-2
17:26:00:409678,3,-4,-1,-2,0,4,2,2
17:26:00:423220,-7,-1,10,0,-5,-6,-7,-4
17:26:00:431469,-7,-1,10,0,-5,-6,-7,-4
17:26:00:432230,3,16,19,-3,0,-10,-5,-3
17:26:00:438249,4,14,10,3,-2,-1,3,3
17:26:00:445748,4,14,10,3,-2,-1,3,3
17:26:00:453277,-2,-9,6,4,-2,1,-9,0
17:26:00:460754,-8,-7,-10,-2,-2,1,-8,-3
17:26:00:468939,-8,-7,-10,-2,-2,1,-8,-3
17:26:00:469669,1,0,14,-2,0,-1,0,-2
17:26:00:483260,11,15,25,2,4,1,4,3
17:26:00:491433,11,15,25,2,4,1,4,3
17:26:00:492206,-3,-11,-28,-3,-2,0,-3,-1
17:26:00:498203,-1,0,-2,1,-2,3,5,1
17:26:00:505780,-1,0,-2,1,-2,3,5,1
17:26:00:513200,-5,-9,2,-1,-2,-2,4,1
17:26:00:520695,1,-7,-14,-2,1,-2,-2,-1
17:26:00:528992,1,-7,-14,-2,1,-2,-2,-1
17:26:00:529758,-1,10,30,-4,-1,-3,0,-2
17:26:00:543275,6,9,-4,2,0,4,16,3
17:26:00:551429,6,9,-4,2,0,4,16,3
17:26:00:552183,2,-2,0,1,-5,-8,1,-2
17:26:00:558259,-1,-13,-11,5,7,3,-9,-5
17:26:00:565753,-1,-13,-11,5,7,3,-9,-5
17:26:00:573260,3,0,-1,-2,-3,2,5,4
17:26:00:580708,0,-1,-4,-5,-2,-1,3,4
17:26:00:588981,0,-1,-4,-5,-2,-1,3,4
17:26:00:589712,6,-7,-9,2,-3,-4,-8,-4
17:26:00:603201,-10,-5,-1,-3,0,2,-4,-5
17:26:00:611466,-10,-5,-1,-3,0,2,-4,-5
17:26:00:612296,-13,-16,-13,-5,-1,-4,-2,-4
17:26:00:618175,-6,0,-8,-3,-1,-1,1,-2
17:26:00:625816,-6,0,-8,-3,-1,-1,1,-2
17:26:00:633271,0,-6,-47,-5,0,-3,-3,1
17:26:00:640762,1,9,13,1,2,-1,3,-4
17:26:00:648922,1,9,13,1,2,-1,3,-4
17:26:00:649723,2,9,13,3,1,6,3,3
17:26:00:663211,0,0,6,-9,-8,-8,-7,-1
17:26:00:671508,0,0,6,-9,-8,-8,-7,-1
17:26:00:672234,-1,-12,-14,-3,-5,-4,-1,5
17:26:00:678236,-7,-16,-11,1,-1,-4,-7,2
17:26:00:685824,-7,-16,-11,1,-1,-4,-7,2
17:26:00:693325,-4,-1,20,1,-1,-3,-8,-5
17:26:00:700723,3,8,5,-1,0,3,-3,-1
17:26:00:709050,3,8,5,-1,0,3,-3,-1
17:26:00:709714,1,8,2,-2,-2,-1,2,-2
17:26:00:723276,-2,1,0,-1,-1,-3,-2,-2
17:26:00:731477,-2,1,0,-1,-1,-3,-2,-2
17:26:00:732242,-18,3,-16,-1,0,-2,0,-8
17:26:00:738252,6,6,11,-3,-5,-3,-7,-1
17:26:00:745794,6,6,11,-3,-5,-3,-7,-1
17:26:00:753249,1,4,28,-1,-2,0,6,-3
17:26:00:760785,-3,-3,-3,-5,-6,-2,3,-5
17:26:00:768971,-3,-3,-3,-5,-6,-2,3,-5
17:26:00:769740,-2,-6,-2,-1,2,-1,-5,-2
17:26:00:783259,12,-7,-7,0,-2,0,3,10
17:26:00:791470,12,-7,-7,0,-2,0,3,10
17:26:00:792268,8,2,-20,0,0,1,6,5
17:26:00:798211,1,6,0,-1,-2,-2,-6,-4
17:26:00:805819,1,6,0,-1,-2,-2,-6,-4
17:26:00:813186,1,7,-6,-3,0,1,-5,0
17:26:00:820756,-3,3,-1,2,2,-2,1,-3
17:26:00:828995,-3,3,-1,2,2,-2,1,-3
17:26:00:829818,2,-2,7,1,0,-1,-2,-2
17:26:00:843285,-6,-5,-2,0,-1,1,1,-3
17:26:00:851402,-6,-5,-2,0,-1,1,1,-3
17:26:00:852179,2,0,-1,-2,-2,-4,-6,3
17:26:00:858293,-4,0,7,-2,-4,-3,5,2
17:26:00:865752,-4,0,7,-2,-4,-3,5,2
17:26:00:873235,0,-2,-19,-1,2,2,-2,-4
17:26:00:880791,-1,-5,-2,0,-1,1,11,-3
17:26:00:888955,-1,-5,-2,0,-1,1,11,-3
17:26:00:889754,0,-1,1,-2,-1,0,-2,-1
17:26:00:903224,-1,0,2,-3,-1,1,-5,-4
17:26:00:911476,-1,0,2,-3,-1,1,-5,-4
17:26:00:912253,-7,-1,4,0,0,-4,2,-2
17:26:00:918227,0,-8,-21,-3,-2,-4,-6,-1
17:26:00:925806,0,-8,-21,-3,-2,-4,-6,-1
17:26:00:933297,-5,-13,2,3,2,1,-1,2
17:26:00:940742,-2,-6,3,-1,-1,0,12,-2
17:26:00:948926,-2,-6,3,-1,-1,0,12,-2
17:26:00:949756,5,-5,-34,-6,-3,-2,-3,-1
17:26:00:963233,-1,-3,-7,-4,-5,-3,-4,-5
17:26:00:971529,-1,-3,-7,-4,-5,-3,-4,-5
17:26:00:972215,-9,-2,14,0,4,4,4,2
17:26:00:978250,-1,7,-1,0,0,2,-3,-2
17:26:00:985783,-1,7,-1,0,0,2,-3,-2
17:26:00:993292,1,2,2,-2,-3,-4,6,-4
17:26:01:9650,-2,-10,5,1,2,4,-9,-3
17:26:01:10436,-2,-10,5,1,2,4,-9,-3
17:26:01:11198,-6,-4,2,1,-2,-6,-13,-8
17:26:01:23235,0,-5,-20,-2,-2,-3,-8,1
17:26:01:31406,0,-5,-20,-2,-2,-3,-8,1
17:26:01:32215,-1,1,-4,-5,-6,-2,5,-1
17:26:01:38313,1,6,10,-3,-1,-6,-4,-2
17:26:01:45805,1,6,10,-3,-1,-6,-4,-2
17:26:01:53211,-2,-2,9,-1,-1,1,-1,-4
17:26:01:60720,-5,-5,-18,0,1,5,8,5
17:26:01:68948,-5,-5,-18,0,1,5,8,5
17:26:01:69730,2,2,5,1,2,1,2,3
17:26:01:83190,-9,10,11,2,3,0,-5,4
17:26:01:91521,-9,10,11,2,3,0,-5,4
17:26:01:92246,-3,-1,-13,-2,-7,-3,-11,-3
17:26:01:98196,3,-2,10,0,2,-3,-2,-3
17:26:01:105820,3,-2,10,0,2,-3,-2,-3
17:26:01:113223,-5,11,24,3,2,-2,-5,5
17:26:01:121041,-2,-3,-2,-1,-2,-3,-1,-1
17:26:01:128899,-2,-3,-2,-1,-2,-3,-1,-1
17:26:01:129717,4,-14,-13,0,-1,0,4,-2
17:26:01:143308,-2,1,7,3,4,-1,0,5
17:26:01:151436,-2,1,7,3,4,-1,0,5
17:26:01:152225,-1,-1,3,-4,-3,0,1,0
17:26:01:174584,2,-1,3,0,-1,1,0,-3
17:26:01:175365,2,-1,3,0,-1,1,0,-3
17:26:01:176174,3,-6,-3,-3,-2,-1,-3,-6
17:26:01:180718,0,3,-1,-2,0,0,-8,-3
17:26:01:188370,0,3,-1,-2,0,0,-8,-3
17:26:01:195729,-10,1,7,-3,-2,-1,0,0
17:26:01:203231,-10,-2,-3,0,1,-2,3,-2
17:26:01:211527,-10,-2,-3,0,1,-2,3,-2
17:26:01:212299,-2,-6,-4,-2,-2,0,-1,-1
17:26:01:234559,1,2,-9,-1,-3,-1,-2,-2
17:26:01:235350,1,2,-9,-1,-3,-1,-2,-2
17:26:01:236242,-4,-13,3,0,2,0,6,3
17:26:01:240841,3,-12,-14,-1,-4,-5,3,-1
17:26:01:248281,3,-12,-14,-1,-4,-5,3,-1
17:26:01:255732,9,6,-5,-1,3,4,-1,-2
17:26:01:263237,9,6,13,-1,-2,-1,-3,2
17:26:01:271501,9,6,13,-1,-2,-1,-3,2
17:26:01:272252,7,7,3,0,-1,-2,8,8
17:26:01:286418,-6,6,6,0,-3,-3,-5,-13
17:26:01:287206,-6,6,6,0,-3,-3,-5,-13
17:26:01:293270,-19,-4,-4,-3,-2,-6,-4,-3
17:26:01:300668,0,1,10,2,-1,-1,-6,-1
17:26:01:308360,0,1,10,2,-1,-1,-6,-1
17:26:01:315683,0,-9,8,3,0,-2,-2,-1
17:26:01:323253,1,-3,-8,-6,-2,2,10,2
17:26:01:331439,1,-3,-8,-6,-2,2,10,2
17:26:01:332212,4,7,-4,-3,2,1,1,0
17:26:01:346457,9,0,-6,-3,-3,-1,-1,4
17:26:01:347224,9,0,-6,-3,-3,-1,-1,4
17:26:01:353209,-6,0,-10,2,2,-4,-3,-4
17:26:01:360714,-2,6,1,-2,-3,-1,-4,-4
17:26:01:368264,-2,6,1,-2,-3,-1,-4,-4
17:26:01:383830,1,5,20,-3,-4,-3,-8,-4
17:26:01:384630,-14,2,-3,-1,0,-1,1,0
17:26:01:398910,-14,2,-3,-1,0,-1,1,0
17:26:01:399701,3,0,8,2,-5,-5,-5,1
17:26:01:406415,0,-7,4,4,2,-2,-4,1
17:26:01:407204,0,-7,4,4,2,-2,-4,1
17:26:01:413187,-7,5,-7,-1,-1,-4,-5,-5
17:26:01:420744,2,-6,-2,0,7,6,18,-1
17:26:01:428296,2,-6,-2,0,7,6,18,-1
17:26:01:435758,2,-6,-7,0,-3,-2,0,-1
17:26:01:443243,-6,-3,0,-2,-2,-5,-9,-6
17:26:01:451444,-6,-3,0,-2,-2,-5,-9,-6
17:26:01:452213,7,-1,-11,-1,2,1,0,3
17:26:01:466444,-21,-7,-13,-2,-2,1,1,1
17:26:01:467221,-21,-7,-13,-2,-2,1,1,1
17:26:01:473226,-6,-3,-38,-3,0,0,1,-1
17:26:01:480727,7,0,-7,-4,-5,-5,-7,1
17:26:01:496491,7,0,-7,-4,-5,-5,-7,1
17:26:01:497216,1,-1,-1,-2,0,4,3,2
17:26:01:512051,-1,4,1,-3,1,0,-3,-4
17:26:01:512946,-1,4,1,-3,1,0,-3,-4
17:26:01:513705,1,0,8,-3,0,-5,-2,1
17:26:01:526402,1,-4,-3,0,-5,-1,8,4
17:26:01:527225,1,-4,-3,0,-5,-1,8,4
17:26:01:533238,1,3,9,-1,-1,-2,-2,-3
17:26:01:540854,4,7,0,3,0,-2,-4,0
17:26:01:548237,4,7,0,3,0,-2,-4,0
17:26:01:555747,2,-2,2,2,-1,0,3,-1
17:26:01:563258,-1,-5,-3,-2,4,0,-4,1
17:26:01:571492,-1,-5,-3,-2,4,0,-4,1
17:26:01:572220,-1,-6,2,1,-4,-4,-1,-9
17:26:01:586447,8,5,1,-3,-4,-5,-10,4
17:26:01:587256,8,5,1,-3,-4,-5,-10,4
17:26:01:593359,-1,-3,0,-1,0,3,7,-2
17:26:01:600744,-4,-4,6,-2,-2,1,0,-1
17:26:01:608339,-4,-4,6,-2,-2,1,0,-1
17:26:01:615784,-8,9,8,-1,-2,-3,-9,-10
17:26:01:623267,1,8,14,1,3,2,3,1
17:26:01:631414,1,8,14,1,3,2,3,1
17:26:01:632216,1,0,8,1,-2,3,2,2
17:26:01:646455,-1,-10,-16,1,-3,-3,1,-1
17:26:01:647275,-1,-10,-16,1,-3,-3,1,-1
17:26:01:653236,-4,0,0,-1,4,1,7,1
17:26:01:660672,-13,-1,-11,0,-3,-2,2,-3
17:26:01:676494,-13,-1,-11,0,-3,-2,2,-3
17:26:01:677216,-2,-3,0,2,-3,-4,-7,-5
17:26:01:683203,2,1,-3,-2,1,1,1,-4
17:26:01:691512,2,1,-3,-2,1,1,1,-4
17:26:01:692230,-4,2,-7,-3,-1,-4,-6,0
17:26:01:706474,9,0,-1,-2,-4,-5,-6,-6
17:26:01:707259,9,0,-1,-2,-4,-5,-6,-6
17:26:01:713229,4,0,-4,-2,0,1,0,3
17:26:01:720829,-8,-9,-22,-5,1,-2,-6,-2
17:26:01:728335,-8,-9,-22,-5,1,-2,-6,-2
17:26:01:735721,-2,-8,-5,0,3,7,5,-1
17:26:01:743290,8,3,11,-1,-6,-6,-6,-2
17:26:01:751444,8,3,11,-1,-6,-6,-6,-2
17:26:01:752208,3,1,-2,-3,3,-1,-4,4
17:26:01:766450,7,3,9,1,1,1,2,-2
17:26:01:767245,7,3,9,1,1,1,2,-2
17:26:01:773260,-3,3,-2,-2,-4,-1,-3,-1
17:26:01:788968,-4,-4,-5,-2,1,-2,1,0
17:26:01:789750,-4,-4,-5,-2,1,-2,1,0
17:26:01:795758,0,-2,-11,1,-2,-2,-3,2
17:26:01:803224,-2,4,1,2,0,4,10,5
17:26:01:811468,-2,4,1,2,0,4,10,5
17:26:01:812301,-1,-7,4,0,-3,-4,-6,-13
17:26:01:826509,1,-8,-2,-1,1,2,-7,-3
17:26:01:827192,1,-8,-2,-1,1,2,-7,-3
17:26:01:833224,-6,4,9,0,-1,0,-1,9
17:26:01:840828,-2,3,16,-3,-2,-3,2,-3
17:26:01:848277,-2,3,16,-3,-2,-3,2,-3
17:26:01:855739,-3,-13,-11,-2,-1,-4,-11,1
17:26:01:863960,-1,3,5,0,-4,0,-11,-1
17:26:01:864735,-1,3,5,0,-4,0,-11,-1
17:26:01:870887,-4,-4,-12,-5,-5,-3,-1,-4
17:26:01:886456,0,1,-7,-2,1,-1,-3,1
17:26:01:887265,0,1,-7,-2,1,-1,-3,1
17:26:01:901365,9,4,10,1,-1,-1,6,-1
17:26:01:902146,-8,-1,12,4,3,2,2,5
17:26:01:908331,-8,-1,12,4,3,2,2,5
17:26:01:915685,0,-1,1,-1,0,2,6,4
17:26:01:924009,-12,-10,-6,0,2,1,9,-2
17:26:01:924770,-12,-10,-6,0,2,1,9,-2
17:26:01:930719,2,-1,-2,0,-3,1,-1,0
17:26:01:954711,5,-4,9,-2,-4,-5,-9,-3
17:26:01:955347,5,-4,9,-2,-4,-5,-9,-3
17:26:01:956152,0,-1,-6,1,4,4,9,-5
17:26:01:960747,6,7,-4,2,4,4,-6,-2
17:26:01:968243,6,7,-4,2,4,4,-6,-2
17:26:01:975802,-17,-9,-6,-5,-6,-7,-11,-6
17:26:01:983910,-3,6,-6,-1,0,-1,-1,-1
17:26:01:984695,-3,6,-6,-1,0,-1,-1,-1
17:26:01:990787,3,6,-3,-2,2,1,-8,0
17:26:02:14647,-3,-4,3,-2,-5,-4,-1,-2
17:26:02:15329,-3,-4,3,-2,-5,-4,-1,-2
17:26:02:16139,-1,11,3,-1,-3,-5,-1,-3
17:26:02:20802,-4,-6,2,-1,1,-4,2,-1
17:26:02:28292,-4,-6,2,-1,1,-4,2,-1
17:26:02:35741,7,1,0,-1,3,0,0,-1
17:26:02:43938,-4,-8,-10,0,-4,-1,-4,-4
17:26:02:44716,-4,-8,-10,0,-4,-1,-4,-4
17:26:02:50688,8,-5,-10,-1,-3,-5,-4,4
17:26:02:66881,3,-3,-2,-3,-4,-4,-4,-1
17:26:02:67658,3,-3,-2,-3,-4,-4,-4,-1
17:26:02:73280,0,-5,8,-2,0,3,9,-1
17:26:02:80696,2,0,2,0,0,-1,-5,0
17:26:02:88380,2,0,2,0,0,-1,-5,0
17:26:02:95738,0,-1,7,2,-2,0,-3,3
17:26:02:103925,-10,16,-11,-2,0,-3,2,-3
17:26:02:104727,-10,16,-11,-2,0,-3,2,-3
17:26:02:127080,3,8,12,0,-1,2,4,-1
17:26:02:127837,-1,-32,-24,-2,-4,-4,-6,-4
17:26:02:128664,-1,-32,-24,-2,-4,-4,-6,-4
17:26:02:133192,5,7,11,1,0,0,6,9
17:26:02:148919,2,1,6,1,-1,7,7,1
17:26:02:149716,2,1,6,1,-1,7,7,1
17:26:02:155717,-9,-13,-2,-2,-6,-5,-13,-5
17:26:02:163943,3,10,11,-1,2,1,1,-2
17:26:02:164694,3,10,11,-1,2,1,1,-2
17:26:02:178741,-6,-8,3,0,-1,-7,-4,-1
17:26:02:186481,5,-20,-20,-4,-2,-3,2,7
17:26:02:187244,5,-20,-20,-4,-2,-3,2,7
17:26:02:193325,10,1,6,3,3,-1,3,5
17:26:02:209025,0,6,0,-2,0,-2,-6,0
17:26:02:209813,0,6,0,-2,0,-2,-6,0
17:26:02:215682,-2,1,-2,2,1,4,4,0
17:26:02:224023,-1,2,0,-2,-5,-2,0,-2
17:26:02:224787,-1,2,0,-2,-5,-2,0,-2
17:26:02:238347,-5,-12,-18,-1,-2,-3,-3,-5
17:26:02:246443,-3,15,24,-1,0,-3,-7,-10
17:26:02:247278,-3,15,24,-1,0,-3,-7,-10
17:26:02:260736,-11,0,-20,-7,1,2,-9,-1
17:26:02:268912,-6,14,12,2,6,3,2,4
17:26:02:269719,-6,14,12,2,6,3,2,4
17:26:02:292231,-3,2,-1,-6,-5,-5,-7,-6
17:26:02:292853,2,7,-1,1,4,4,-2,-1
17:26:02:293639,2,7,-1,1,4,4,-2,-1
17:26:02:298187,-24,-10,-1,-1,-3,0,-5,-7
17:26:02:306444,-2,-12,-7,-3,-5,-3,12,-2
17:26:02:307212,-2,-12,-7,-3,-5,-3,12,-2
17:26:02:313189,7,2,-9,1,5,3,13,-3
17:26:02:328876,3,-2,13,1,-3,0,-6,-1
17:26:02:329706,3,-2,13,1,-3,0,-6,-1
17:26:02:344573,7,7,6,1,1,4,4,7
17:26:02:345437,-14,-3,-13,-3,-2,-2,11,-5
17:26:02:346187,-14,-3,-13,-3,-2,-2,11,-5
17:26:02:358247,2,5,-2,0,-2,-3,-2,1
17:26:02:366215,7,9,16,1,0,3,-3,7
17:26:02:373944,7,9,16,1,0,3,-3,7
17:26:02:374765,2,0,7,-6,-4,-4,-6,-4
17:26:02:389025,-17,-18,-10,0,-2,-4,-4,-6
17:26:02:389707,-17,-18,-10,0,-2,-4,-4,-6
17:26:02:404589,0,-6,18,3,0,-2,-1,-2
17:26:02:405391,3,0,2,-1,-3,-4,-5,0
17:26:02:406170,3,0,2,-1,-3,-4,-5,0
17:26:02:418261,2,-2,2,2,1,1,-1,-1
17:26:02:426448,3,-4,-8,1,-1,2,0,-2
17:26:02:427191,3,-4,-8,1,-1,2,0,-2
17:26:02:433164,11,3,-7,-1,-3,0,10,9
17:26:02:448978,7,6,2,-3,-1,-1,-2,-7
17:26:02:449717,7,6,2,-3,-1,-1,-2,-7
17:26:02:455750,7,-7,-28,-4,0,-4,-1,7
17:26:02:471435,-15,-17,-20,-1,0,-1,-3,3
17:26:02:472183,-15,-17,-20,-1,0,-1,-3,3
17:26:02:478246,-14,5,12,-1,-2,-4,-7,-18
17:26:02:486422,3,-3,-1,2,3,-1,-1,-6
17:26:02:487201,3,-3,-1,2,3,-1,-1,-6
17:26:02:493275,-6,-6,-6,-1,-2,2,-1,-3
17:26:02:517526,2,0,2,-2,-3,-4,2,4
