Time,EMG1,EMG2,EMG3,EMG4,EMG5,EMG6,EMG7,EMG8
22:30:59:636341,-8,4,-22,-22,-8,-4,-5,-6
22:30:59:637108,-14,6,39,21,4,0,-3,0
22:30:59:637924,2,-2,-22,-11,-5,-4,-11,-7
22:30:59:638775,2,-2,-22,-11,-5,-4,-11,-7
22:30:59:641809,8,-20,-27,7,2,-4,-7,-1
22:30:59:642621,0,26,62,21,0,-5,-22,-15
22:30:59:648717,0,26,62,21,0,-5,-22,-15
22:30:59:656161,-5,4,3,-15,-1,4,7,4
22:30:59:663647,3,5,46,13,7,6,13,4
22:30:59:679379,3,5,46,13,7,6,13,4
22:30:59:680187,-2,17,43,33,-3,-5,-10,-3
22:30:59:686855,-20,-18,-26,-15,-2,-6,-13,-7
22:30:59:687699,-20,-18,-26,-15,-2,-6,-13,-7
22:30:59:693658,-1,0,13,6,1,5,40,9
22:30:59:701135,-9,2,27,31,7,4,-11,-6
22:30:59:717926,-9,2,27,31,7,4,-11,-6
22:30:59:724287,8,2,-39,-16,-5,-3,-8,1
22:30:59:725091,31,-10,-24,-13,-3,0,10,14
22:30:59:731827,31,-10,-24,-13,-3,0,10,14
22:30:59:732628,2,3,-2,7,2,-3,-29,-10
22:30:59:746892,4,8,6,0,-4,0,6,6
22:30:59:747695,4,8,6,0,-4,0,6,6
22:30:59:762218,-8,-4,-1,-3,1,2,12,-1
22:30:59:769338,4,-16,2,-1,-10,-8,-3,-3
22:30:59:770169,4,-16,2,-1,-10,-8,-3,-3
22:30:59:776167,-5,-3,6,12,0,-6,-14,-9
22:30:59:783661,-5,7,-16,-14,1,7,15,1
22:30:59:791827,-5,7,-16,-14,1,7,15,1
22:30:59:792606,-10,-31,-50,-24,-8,-3,-7,3
22:30:59:823109,-32,5,16,10,0,-6,-13,-8
22:30:59:823944,-32,5,16,10,0,-6,-13,-8
22:30:59:824740,5,9,5,-9,-12,-10,-13,-4
22:30:59:825539,8,-1,-32,-32,-8,-2,-9,6
22:30:59:828660,8,-1,-32,-32,-8,-2,-9,6
22:30:59:836127,-8,-12,-16,5,1,2,19,10
22:30:59:868135,5,8,-3,13,4,1,-5,-5
22:30:59:868964,5,8,-3,13,4,1,-5,-5
22:30:59:869768,0,-12,20,9,-2,-1,-1,-8
22:30:59:870573,-21,-16,-9,-3,-5,-2,-3,-5
22:30:59:874349,-21,-16,-9,-3,-5,-2,-3,-5
22:30:59:875141,1,0,2,18,1,-2,-7,-5
22:30:59:881106,0,0,5,17,1,-2,0,2
22:30:59:905080,0,0,5,17,1,-2,0,2
22:30:59:905844,-2,11,-31,-6,3,4,16,-4
22:30:59:906636,3,-14,-34,-3,2,6,8,-2
22:30:59:911819,3,-14,-34,-3,2,6,8,-2
22:30:59:912635,4,4,24,5,-8,-7,-12,0
22:30:59:926807,3,-5,-18,-16,2,1,1,3
22:30:59:927641,3,-5,-18,-16,2,1,1,3
22:30:59:933648,0,6,30,22,8,-1,-9,-2
22:30:59:941178,5,-3,-6,10,-2,2,21,7
22:30:59:948684,5,-3,-6,10,-2,2,21,7
22:30:59:956163,-4,-14,-6,-14,-1,4,23,1
22:30:59:963676,5,12,49,11,0,-3,-7,-2
22:30:59:971846,5,12,49,11,0,-3,-7,-2
22:30:59:972650,-17,-3,-22,-19,-5,-7,-15,0
22:30:59:986847,-1,4,-4,-14,-1,2,17,1
22:30:59:987655,-1,4,-4,-14,-1,2,17,1
22:31:00:1809,25,-2,33,11,8,10,14,8
22:31:00:2601,1,-17,-55,-33,-5,-9,-21,-9
22:31:00:8634,1,-17,-55,-33,-5,-9,-21,-9
22:31:00:16138,1,18,34,1,1,2,0,-1
22:31:00:23647,2,14,39,25,6,-1,-21,2
22:31:00:31806,2,14,39,25,6,-1,-21,2
22:31:00:32630,2,5,2,28,0,-2,-15,-3
22:31:00:47289,15,-3,3,-5,0,1,-4,5
22:31:00:48103,15,-3,3,-5,0,1,-4,5
22:31:00:53663,2,-32,-45,-47,-25,-12,-5,-4
22:31:00:61146,-13,4,4,13,-5,-6,-11,-9
22:31:00:68676,-13,4,4,13,-5,-6,-11,-9
22:31:00:84702,-8,3,-4,7,11,3,5,-7
22:31:00:92937,11,14,43,2,-7,-5,-2,4
22:31:00:93751,11,14,43,2,-7,-5,-2,4
22:31:00:98645,-6,5,0,15,7,2,-3,-3
22:31:00:106805,-6,-2,6,3,-5,-10,-37,-14
22:31:00:107648,-6,-2,6,3,-5,-10,-37,-14
22:31:00:113608,-6,1,-14,-7,-4,-1,-8,-6
22:31:00:145664,15,16,14,34,6,4,14,7
22:31:00:146472,15,16,14,34,6,4,14,7
22:31:00:147247,9,-5,-18,-15,-2,-4,-4,5
22:31:00:148118,1,-8,-41,-62,-5,3,-2,-3
22:31:00:151837,1,-8,-41,-62,-5,3,-2,-3
22:31:00:152662,-10,1,3,8,3,0,-3,-5
22:31:00:174959,-7,-6,-4,-7,-1,1,13,-3
22:31:00:175790,-7,-6,-4,-7,-1,1,13,-3
22:31:00:176587,0,4,3,-11,-3,-1,0,-3
22:31:00:189366,-18,-11,-32,-9,-3,1,23,-4
22:31:00:190200,-18,-11,-32,-9,-3,1,23,-4
22:31:00:196155,18,11,18,21,2,1,24,19
22:31:00:203673,-31,-38,-17,-26,-5,-5,-5,-12
22:31:00:211825,-31,-38,-17,-26,-5,-5,-5,-12
22:31:00:212604,8,6,-21,-20,-4,-1,-9,6
22:31:00:235031,-8,-14,3,19,4,4,-1,2
22:31:00:235822,-8,-14,3,19,4,4,-1,2
22:31:00:236615,1,28,5,9,1,1,8,0
22:31:00:241156,13,5,8,5,-6,-3,-17,-4
22:31:00:248696,13,5,8,5,-6,-3,-17,-4
22:31:00:256168,-8,-26,6,2,7,3,-6,-3
22:31:00:263646,-19,2,6,-2,3,2,14,4
22:31:00:271931,-19,2,6,-2,3,2,14,4
22:31:00:272657,-5,-23,-2,-4,-4,-7,-13,-1
22:31:00:286143,17,-6,-4,6,-4,-2,-2,-7
22:31:00:294366,17,-6,-4,6,-4,-2,-2,-7
22:31:00:295193,13,-18,-14,-15,-5,-1,0,2
22:31:00:301159,-13,39,27,8,5,2,-14,-4
22:31:00:308739,-13,39,27,8,5,2,-14,-4
22:31:00:324315,-22,-2,-11,-21,-5,-4,-5,-19
22:31:00:325105,4,39,28,15,1,2,3,2
22:31:00:331860,4,39,28,15,1,2,3,2
22:31:00:332694,10,3,0,4,3,3,8,4
22:31:00:346838,9,-3,-12,-2,1,-4,-26,-18
22:31:00:347687,9,-3,-12,-2,1,-4,-26,-18
22:31:00:353620,-12,15,-7,-2,-2,-1,-16,-14
22:31:00:369960,8,-21,-16,-2,-1,2,17,11
22:31:00:370793,8,-21,-16,-2,-1,2,17,11
22:31:00:376125,4,8,5,5,0,2,19,8
22:31:00:383640,-31,-25,-5,0,-2,-3,5,0
22:31:00:391846,-31,-25,-5,0,-2,-3,5,0
22:31:00:392640,3,-1,2,-10,-6,-5,3,4
22:31:00:415455,7,-15,-10,-2,-1,-1,9,3
22:31:00:416271,7,-15,-10,-2,-1,-1,9,3
22:31:00:417116,-5,3,-5,-4,-2,0,-5,-1
22:31:00:421127,4,-8,-9,3,3,1,2,0
22:31:00:428685,4,-8,-9,3,3,1,2,0
22:31:00:436145,2,22,-14,-14,-7,-5,-3,-5
22:31:00:452470,4,6,4,-1,-2,-2,-4,-1
22:31:00:453325,4,6,4,-1,-2,-2,-4,-1
22:31:00:454139,6,-7,-7,4,0,-2,-7,1
22:31:00:466795,0,4,-6,-3,1,0,-2,0
22:31:00:467616,0,4,-6,-3,1,0,-2,0
22:31:00:473683,-11,-13,12,0,-8,-3,-5,-1
22:31:00:481142,-3,-6,29,0,-3,-3,0,-4
22:31:00:488665,-3,-6,29,0,-3,-3,0,-4
22:31:00:496134,-6,6,21,7,1,3,0,-1
22:31:00:503591,0,20,-5,4,-3,-4,-14,-6
22:31:00:511861,0,20,-5,4,-3,-4,-14,-6
22:31:00:512680,-2,-17,-9,0,1,-3,-5,-2
22:31:00:526834,4,4,-3,0,2,1,8,4
22:31:00:527650,4,4,-3,0,2,1,8,4
22:31:00:533658,-29,2,4,8,7,5,-5,-4
22:31:00:557511,-6,-2,-1,13,4,1,9,2
22:31:00:558328,-6,-2,-1,13,4,1,9,2
22:31:00:559144,7,-5,6,3,1,-1,5,7
22:31:00:563659,-2,-4,9,1,3,3,-1,0
22:31:00:571158,-2,-4,9,1,3,3,-1,0
22:31:00:578645,8,-2,-55,-14,-1,1,6,0
22:31:00:586830,-4,-14,3,0,-3,-2,0,3
22:31:00:587649,-4,-14,3,0,-3,-2,0,3
22:31:00:601161,5,-12,9,1,-1,-2,-7,-8
22:31:00:609328,-2,-5,3,-4,-2,-1,-4,1
22:31:00:610129,-2,-5,3,-4,-2,-1,-4,1
22:31:00:616178,14,-2,16,-6,-4,-2,-6,-1
22:31:00:623672,9,0,-8,-17,-4,0,-10,-1
22:31:00:631193,9,0,-8,-17,-4,0,-10,-1
22:31:00:647462,-8,-3,23,-5,-7,-6,-17,-4
22:31:00:648287,11,2,-34,-24,-4,0,7,4
22:31:00:649133,11,2,-34,-24,-4,0,7,4
22:31:00:653653,-2,3,-2,4,1,-1,2,6
22:31:00:669350,2,2,11,3,-4,-6,-7,-6
22:31:00:670170,2,2,11,3,-4,-6,-7,-6
22:31:00:692469,0,-12,12,6,1,-3,-10,-5
22:31:00:693347,-27,-6,2,-2,-4,-2,26,1
22:31:00:694178,-27,-6,2,-2,-4,-2,26,1
22:31:00:698593,-14,6,3,0,1,-1,-23,-13
22:31:00:706845,3,-6,-25,-12,-1,1,5,2
22:31:00:707658,3,-6,-25,-12,-1,1,5,2
22:31:00:713643,11,-9,9,6,2,1,-5,9
22:31:00:729327,-5,-7,4,13,4,2,5,3
22:31:00:730151,-5,-7,4,13,4,2,5,3
22:31:00:736169,-37,3,26,11,1,1,19,-13
22:31:00:743618,24,-2,-27,-4,0,4,20,10
22:31:00:751193,24,-2,-27,-4,0,4,20,10
22:31:00:758657,11,-6,31,13,7,7,20,14
22:31:00:775663,-1,10,0,8,4,-5,-33,-17
22:31:00:776435,-1,10,0,8,4,-5,-33,-17
22:31:00:777249,-11,-6,16,6,-4,-6,-4,-6
22:31:00:789302,-10,-10,7,7,-4,-3,8,4
22:31:00:790152,-10,-10,7,7,-4,-3,8,4
22:31:00:796168,12,19,-28,-5,1,0,-1,7
22:31:00:803682,1,-13,-12,-20,-7,-5,-14,-3
22:31:00:811181,1,-13,-12,-20,-7,-5,-14,-3
22:31:00:818626,-5,-9,-19,-3,-4,3,8,0
22:31:00:827249,20,12,23,5,0,0,-6,-1
22:31:00:834354,20,12,23,5,0,0,-6,-1
22:31:00:835146,-1,-2,-24,-3,-1,-3,4,6
22:31:00:849337,-15,-11,0,8,2,2,21,4
22:31:00:850162,-15,-11,0,8,2,2,21,4
22:31:00:856143,8,-6,-25,-11,0,0,-5,4
22:31:00:863635,34,11,-12,-7,-6,0,21,-2
22:31:00:871186,34,11,-12,-7,-6,0,21,-2
22:31:00:878623,20,9,7,-4,-3,-6,-2,0
22:31:00:886887,3,7,1,-10,-3,0,13,9
22:31:00:887663,3,7,1,-10,-3,0,13,9
22:31:00:893646,5,-7,-8,-16,3,4,3,-2
22:31:00:909342,-16,2,21,-1,3,-1,-14,1
22:31:00:910154,-16,2,21,-1,3,-1,-14,1
22:31:00:924284,-14,2,18,8,-1,3,20,-8
22:31:00:925121,0,14,-10,8,0,-5,-19,-13
22:31:00:931208,0,14,-10,8,0,-5,-19,-13
22:31:00:938661,12,-12,-22,-12,-7,-4,-45,-9
22:31:00:946829,2,13,20,9,3,0,-10,-1
22:31:00:947653,2,13,20,9,3,0,-10,-1
22:31:00:969996,-8,-2,-24,-7,-2,-2,15,2
22:31:00:970785,-9,-20,-27,-10,-4,-3,1,-3
22:31:00:971606,-9,-20,-27,-10,-4,-3,1,-3
22:31:00:976183,-8,3,15,-6,-2,1,-1,-15
22:31:00:983671,-28,24,-15,-20,-5,-1,-10,1
22:31:00:991192,-28,24,-15,-20,-5,-1,-10,1
22:31:01:14046,-20,-33,-3,-15,-7,-10,-22,-6
22:31:01:22518,-10,-3,-3,-4,2,-1,2,-3
22:31:01:23316,-10,-3,-3,-4,2,-1,2,-3
22:31:01:24170,2,20,15,25,4,3,4,4
22:31:01:29310,-8,-22,3,11,2,1,-3,-2
22:31:01:30143,-8,-22,3,11,2,1,-3,-2
22:31:01:36140,6,3,8,12,5,5,19,6
22:31:01:43673,4,-3,7,4,1,-2,-16,-5
22:31:01:51170,4,-3,7,4,1,-2,-16,-5
22:31:01:58672,6,3,-11,-4,0,-2,-13,7
22:31:01:66828,34,12,8,-3,-4,-4,-2,11
22:31:01:67647,34,12,8,-3,-4,-4,-2,11
22:31:01:73581,-15,-44,-50,-14,-6,-4,-1,-2
22:31:01:89322,-5,-17,-40,-11,2,-1,2,-7
22:31:01:90127,-5,-17,-40,-11,2,-1,2,-7
22:31:01:96206,3,17,21,10,-3,1,32,7
22:31:01:103650,11,-5,25,18,2,0,-9,1
22:31:01:111176,11,-5,25,18,2,0,-9,1
22:31:01:118613,6,30,6,-1,1,0,0,2
22:31:01:126865,-26,4,15,6,0,0,-3,-3
22:31:01:127654,-26,4,15,6,0,0,-3,-3
22:31:01:133692,4,3,6,4,2,2,7,-1
22:31:01:157486,-7,8,0,-3,-4,-1,-2,-2
22:31:01:158294,-7,8,0,-3,-4,-1,-2,-2
22:31:01:159127,-2,33,17,5,1,-1,-5,4
22:31:01:163686,-13,-48,-15,3,-4,-1,-8,-5
22:31:01:171213,-13,-48,-15,3,-4,-1,-8,-5
22:31:01:178594,-8,-29,-17,-20,-10,-5,-6,-9
22:31:01:202516,15,16,20,6,1,0,0,0
22:31:01:203378,15,16,20,6,1,0,0,0
22:31:01:204178,0,3,5,-3,-3,-4,-21,-7
22:31:01:209307,-32,-27,-13,-9,0,-1,9,-8
22:31:01:210118,-32,-27,-13,-9,0,-1,9,-8
22:31:01:216153,-2,-4,-7,-8,-2,-4,-6,-7
22:31:01:223662,-2,21,4,17,5,3,-3,-2
22:31:01:248273,-2,21,4,17,5,3,-3,-2
22:31:01:249046,15,-9,-5,4,1,4,17,6
22:31:01:249840,15,11,-12,-16,1,1,0,0
22:31:01:250676,15,11,-12,-16,1,1,0,0
22:31:01:253644,8,14,16,3,0,-5,-32,-2
22:31:01:269344,-3,11,17,8,-3,0,10,15
22:31:01:270149,-3,11,17,8,-3,0,10,15
22:31:01:284991,-3,-6,23,12,2,3,14,-1
22:31:01:285802,13,-3,4,-17,-6,-11,-49,-11
22:31:01:291183,13,-3,4,-17,-6,-11,-49,-11
22:31:01:298605,-16,-20,-40,-11,-2,0,0,-5
22:31:01:306839,-4,34,30,7,0,0,13,1
22:31:01:307654,-4,34,30,7,0,0,13,1
22:31:01:313609,-4,-3,-14,4,1,1,12,6
22:31:01:337484,18,4,0,-5,5,7,25,7
22:31:01:338432,18,4,0,-5,5,7,25,7
22:31:01:339139,-30,12,-6,-8,-3,-5,-18,-8
22:31:01:343675,-9,-25,-20,-2,0,3,37,8
22:31:01:351162,-9,-25,-20,-2,0,3,37,8
22:31:01:358667,-1,2,10,1,1,0,-1,-7
22:31:01:366808,-2,28,-16,-10,-6,-7,-17,-4
22:31:01:367666,-2,28,-16,-10,-6,-7,-17,-4
22:31:01:381171,20,-7,-25,2,2,0,4,1
22:31:01:389324,2,-9,9,13,3,3,13,1
22:31:01:390138,2,-9,9,13,3,3,13,1
22:31:01:396167,2,-1,6,17,1,0,2,13
22:31:01:403688,51,-5,-20,7,-2,-2,-19,-2
22:31:01:411247,51,-5,-20,7,-2,-2,-19,-2
22:31:01:418605,-9,7,-2,-4,0,-3,11,1
22:31:01:435012,-22,-7,-2,6,-1,-2,-2,-10
22:31:01:435802,-22,-7,-2,6,-1,-2,-2,-10
22:31:01:436608,1,48,40,-4,-9,-6,-32,-21
22:31:01:449310,-8,10,23,1,0,-1,-3,-1
22:31:01:450141,-8,10,23,1,0,-1,-3,-1
22:31:01:456172,1,-9,-36,-10,3,4,20,2
22:31:01:481160,-41,-29,0,-5,-4,-3,5,-3
22:31:01:481963,-41,-29,0,-5,-4,-3,5,-3
22:31:01:482745,12,1,7,-4,-2,-4,-8,1
22:31:01:486820,7,-8,-2,2,2,-1,-17,-7
22:31:01:487661,7,-8,-2,2,2,-1,-17,-7
22:31:01:501171,-7,-19,6,-3,0,1,-2,-4
22:31:01:533868,2,-23,8,-4,-10,-11,-37,-14
22:31:01:534699,2,-23,8,-4,-10,-11,-37,-14
22:31:01:535483,7,-6,2,7,3,0,12,6
22:31:01:536328,11,0,-16,-5,-1,3,10,0
22:31:01:539366,11,0,-16,-5,-1,3,10,0
22:31:01:540152,10,-7,8,9,6,1,-3,-5
22:31:01:546856,-56,12,5,5,4,1,-13,-16
22:31:01:547667,-56,12,5,5,4,1,-13,-16
22:31:01:570457,-19,-1,12,1,-3,2,15,2
22:31:01:571283,12,4,-14,0,1,-1,-4,2
22:31:01:572153,12,4,-14,0,1,-1,-4,2
22:31:01:576119,-11,7,-12,-2,-5,-5,-4,-7
22:31:01:591812,1,-13,-29,-22,-4,-2,-15,-1
22:31:01:592644,1,-13,-29,-22,-4,-2,-15,-1
22:31:01:607438,19,-1,16,0,-2,-1,11,-9
22:31:01:614322,59,-37,5,-1,1,-1,23,21
22:31:01:615130,59,-37,5,-1,1,-1,23,21
22:31:01:621162,-4,12,11,7,1,4,16,7
22:31:01:629322,10,-19,2,-2,-3,-2,12,3
22:31:01:630134,10,-19,2,-2,-3,-2,12,3
22:31:01:636188,-18,-13,12,-8,-2,-1,-21,9
22:31:01:651860,-11,10,10,-6,-4,-3,-13,-1
22:31:01:652647,-11,10,10,-6,-4,-3,-13,-1
22:31:01:658693,1,9,-5,2,-5,-4,-16,-6
22:31:01:666837,6,7,-13,-8,-5,-2,3,-10
22:31:01:667625,6,7,-13,-8,-5,-2,3,-10
22:31:01:681133,18,-2,-24,0,0,0,2,-1
22:31:01:689350,1,7,-23,2,-4,0,5,-7
22:31:01:690144,1,7,-23,2,-4,0,5,-7
22:31:01:696177,-4,-36,-30,-20,-7,-7,3,-2
22:31:01:711849,-9,14,25,0,-1,-2,-11,-2
22:31:01:712696,-9,14,25,0,-1,-2,-11,-2
22:31:01:718671,-15,11,2,3,4,2,-2,-3
22:31:01:726171,4,-5,11,-1,-3,1,6,9
22:31:01:733676,4,-5,11,-1,-3,1,6,9
22:31:01:741158,17,6,8,-9,-1,0,11,8
22:31:01:757519,-11,22,-15,2,1,1,-2,-2
22:31:01:758338,-11,22,-15,2,1,1,-2,-2
22:31:01:759144,-18,-5,17,-5,-3,-1,-7,-3
22:31:01:771858,10,10,3,-6,-5,-4,11,-7
22:31:01:772670,10,10,3,-6,-5,-4,11,-7
22:31:01:778629,-3,-4,-2,0,-5,-6,-18,-6
22:31:01:802474,19,17,43,13,4,0,17,15
22:31:01:803303,19,17,43,13,4,0,17,15
22:31:01:804138,-2,-16,-41,-2,-3,0,-2,-12
22:31:01:809305,-16,-4,-6,4,0,-3,-13,-8
22:31:01:810126,-16,-4,-6,4,0,-3,-13,-8
22:31:01:816160,-5,6,1,-10,-3,0,-1,6
22:31:01:840430,-23,-9,-16,-15,2,0,-9,-7
22:31:01:841245,-23,-9,-16,-15,2,0,-9,-7
22:31:01:846150,-19,-1,-16,-3,3,3,12,-2
22:31:01:854318,-19,-1,-16,-3,3,3,12,-2
22:31:01:855126,12,-2,-9,-9,-2,-3,-14,12
22:31:01:861171,9,-2,-22,3,-2,-4,-5,-1
22:31:01:869357,9,-2,-22,3,-2,-4,-5,-1
22:31:01:870162,19,-10,-4,-1,3,4,7,2
22:31:01:883644,15,4,30,8,1,-4,-22,-2
22:31:01:891833,15,4,30,8,1,-4,-22,-2
22:31:01:892624,-8,-10,-39,-13,-6,-3,-7,0
22:31:01:898670,-3,-5,1,-7,-4,-1,4,5
22:31:01:914359,-3,-5,1,-7,-4,-1,4,5
22:31:01:915171,-10,0,13,9,1,0,3,-4
22:31:01:921163,-1,0,-3,3,4,1,-3,1
22:31:01:929323,-1,0,-3,3,4,1,-3,1
22:31:01:930118,-19,9,22,11,0,0,22,-5
22:31:01:936155,3,-1,4,-20,3,2,-6,1
22:31:01:951867,3,-1,4,-20,3,2,-6,1
22:31:01:952699,-7,7,23,5,0,-1,-3,1
22:31:01:958675,-5,-8,-22,-26,-3,-6,-24,-11
22:31:01:990469,-5,-8,-22,-26,-3,-6,-24,-11
22:31:01:991240,0,-1,16,12,0,-2,1,-1
22:31:01:998149,-1,-7,-14,-4,-6,-1,31,-4
22:31:01:998992,-1,-7,-14,-4,-6,-1,31,-4
22:31:01:999772,3,2,3,-3,3,1,-5,1
22:31:02:595,2,4,3,-32,0,3,19,8
22:31:02:11818,2,4,3,-32,0,3,19,8
22:31:02:12666,-3,-3,0,-8,-2,1,21,0
22:31:02:18685,3,3,7,3,-6,-3,-4,-1
22:31:02:42521,3,3,7,3,-6,-3,-4,-1
22:31:02:43334,-1,-10,-35,-44,-8,-1,4,3
22:31:02:44154,-3,-12,-38,11,0,-3,-24,-2
22:31:02:49376,-3,-12,-38,11,0,-3,-24,-2
22:31:02:50155,-3,23,18,8,-5,-2,-9,1
22:31:02:56146,-1,4,21,7,-3,-3,-8,1
22:31:02:79152,-1,4,21,7,-3,-3,-8,1
22:31:02:86769,-2,-22,-40,-2,1,-1,8,-1
22:31:02:87571,4,10,25,31,2,3,20,5
22:31:02:94351,4,10,25,31,2,3,20,5
22:31:02:95134,18,1,-8,9,4,0,-26,-7
22:31:02:101141,-7,-7,-14,-6,0,2,-2,-1
22:31:02:109169,-7,-7,-14,-6,0,2,-2,-1
22:31:02:133145,0,-7,-1,5,0,1,7,-2
22:31:02:133940,-4,-7,1,0,-2,-3,4,-4
22:31:02:134761,-4,-7,1,0,-2,-3,4,-4
22:31:02:135590,0,14,52,44,8,0,4,0
22:31:02:138688,1,5,13,8,3,3,2,1
22:31:02:162545,1,5,13,8,3,3,2,1
22:31:02:163343,-3,-3,-3,5,3,1,-2,1
22:31:02:164141,6,-6,0,-2,2,0,-13,2
22:31:02:169415,6,-6,0,-2,2,0,-13,2
22:31:02:170172,-6,-1,32,-2,1,-1,-22,0
22:31:02:183617,31,3,17,16,1,0,-11,0
22:31:02:191887,31,3,17,16,1,0,-11,0
22:31:02:192669,20,12,20,-1,-3,2,7,6
22:31:02:198701,-9,5,21,24,6,-1,-2,-5
22:31:02:214355,-9,5,21,24,6,-1,-2,-5
22:31:02:215170,-2,16,3,0,6,2,4,-1
22:31:02:230016,-7,7,-16,-18,-3,-1,7,-1
22:31:02:230811,-7,7,-16,-18,-3,-1,7,-1
22:31:02:231604,-23,-41,-33,-9,-8,-8,2,-21
22:31:02:236173,-14,-5,-20,-12,-5,-4,-1,-8
22:31:02:251854,-14,-5,-20,-12,-5,-4,-1,-8
22:31:02:252661,-16,0,0,18,1,-3,1,0
22:31:02:258627,3,3,-14,1,4,2,-1,3
22:31:02:274322,3,3,-14,1,4,2,-1,3
22:31:02:275154,3,-40,-23,14,-7,-8,-23,-5
22:31:02:281193,-11,-6,-6,-12,-3,-4,17,-1
22:31:02:289426,-11,-6,-6,-12,-3,-4,17,-1
22:31:02:290149,-6,-11,-10,-21,-2,0,-13,-4
22:31:02:296166,2,9,10,37,7,3,-1,3
22:31:02:312299,2,9,10,37,7,3,-1,3
22:31:02:313127,8,21,-29,-24,-6,-5,-3,1
22:31:02:318687,-1,18,-2,-14,-2,0,11,0
22:31:02:334393,-1,18,-2,-14,-2,0,11,0
22:31:02:335203,8,39,7,-5,4,6,2,9
22:31:02:341156,-13,-4,12,-2,-10,-7,-20,-13
22:31:02:357523,-13,-4,12,-2,-10,-7,-20,-13
22:31:02:358359,-4,-8,5,-20,-7,-4,10,3
22:31:02:359140,1,-22,-7,0,4,4,9,3
22:31:02:371880,1,-22,-7,0,4,4,9,3
22:31:02:372673,1,3,37,17,4,3,5,-4
22:31:02:378659,-24,-3,-12,-20,-7,-3,-3,-4
22:31:02:395308,-24,-3,-12,-20,-7,-3,-3,-4
22:31:02:396155,-16,-13,-6,-17,-1,-2,0,0
22:31:02:401164,15,40,2,-3,-2,-3,-11,-10
22:31:02:409766,15,40,2,-3,-2,-3,-11,-10
22:31:02:416150,11,8,-6,13,5,-1,5,7
22:31:02:423644,4,-22,4,-16,-5,-1,24,13
22:31:02:440048,4,-22,4,-16,-5,-1,24,13
22:31:02:441025,-12,-16,-35,16,-3,-4,14,-11
22:31:02:441640,-9,1,22,33,9,1,-8,0
22:31:02:462492,-9,1,22,33,9,1,-8,0
22:31:02:463298,4,-14,-48,-33,-6,-2,-7,-1
22:31:02:464156,23,1,12,-1,-4,-4,-18,-1
22:31:02:469350,23,1,12,-1,-4,-4,-18,-1
22:31:02:470142,12,7,24,-2,2,2,-34,-4
22:31:02:483636,-23,-3,14,-6,-5,-7,-9,-2
22:31:02:491841,-23,-3,14,-6,-5,-7,-9,-2
22:31:02:492665,-9,15,-26,-71,-9,1,13,-4
22:31:02:498667,16,-9,-21,2,-7,-7,-15,6
22:31:02:506188,16,-9,-21,2,-7,-7,-15,6
22:31:02:513622,2,22,-6,9,2,1,6,-1
22:31:02:521144,-12,15,2,7,3,1,-3,-15
22:31:02:529371,-12,15,2,7,3,1,-3,-15
22:31:02:530154,-15,-61,-25,24,0,2,21,7
22:31:02:544089,-32,7,19,26,6,1,-1,-3
22:31:02:551852,-32,7,19,26,6,1,-1,-3
22:31:02:552659,-2,-10,2,13,-3,-2,7,2
22:31:02:558638,22,9,-14,-6,2,0,-10,-1
22:31:02:566253,22,9,-14,-6,2,0,-10,-1
22:31:02:573638,6,-14,-16,-6,-4,-1,0,4
22:31:02:589963,39,-11,-12,-2,-4,-3,-22,8
22:31:02:590798,39,-11,-12,-2,-4,-3,-22,8
22:31:02:591623,-15,9,15,13,1,4,-14,-10
22:31:02:603658,-68,-28,-14,12,5,5,33,5
22:31:02:612304,-68,-28,-14,12,5,5,33,5
22:31:02:635693,15,4,4,21,2,-2,4,-2
22:31:02:636711,4,-18,-11,-43,-6,0,-12,-6
22:31:02:637302,4,-18,-11,-43,-6,0,-12,-6
22:31:02:638155,-1,15,35,-2,-5,-5,10,8
22:31:02:641162,20,7,7,9,1,1,-5,-2
22:31:02:649376,20,7,7,9,1,1,-5,-2
22:31:02:650154,-9,-14,28,20,6,-3,-17,-6
22:31:02:673220,12,0,-12,-7,-3,-4,12,5
22:31:02:674051,12,0,-12,-7,-3,-4,12,5
22:31:02:674818,7,7,-6,-7,1,-1,-19,-1
22:31:02:678628,11,-33,8,4,6,-1,-2,-9
22:31:02:686204,11,-33,8,4,6,-1,-2,-9
22:31:02:693642,-8,6,4,0,2,-1,1,-6
22:31:02:701152,-11,-11,-34,13,-1,0,-12,-2
22:31:02:716881,-11,-11,-34,13,-1,0,-12,-2
22:31:02:717668,23,12,5,3,-2,2,15,5
22:31:02:731565,-40,-1,14,9,-2,4,16,-8
22:31:02:740010,-40,-1,14,9,-2,4,16,-8
22:31:02:740802,-4,10,-20,-9,-3,-1,15,0
22:31:02:741620,28,8,21,3,-3,-4,-2,3
22:31:02:746190,28,8,21,3,-3,-4,-2,3
22:31:02:753644,-12,-14,-24,-45,-9,-3,-10,1
22:31:02:761161,28,-44,-2,-29,-8,-2,-36,-9
22:31:02:769746,28,-44,-2,-29,-8,-2,-36,-9
22:31:02:776167,17,-12,16,16,-4,-4,9,1
22:31:02:783630,-9,16,-1,-4,0,6,38,-1
22:31:02:791878,-9,16,-1,-4,0,6,38,-1
22:31:02:792672,-9,-38,-23,3,-4,-6,-13,0
22:31:02:798680,-1,29,41,8,-5,-7,-14,-1
22:31:02:806235,-1,29,41,8,-5,-7,-14,-1
22:31:02:821826,-47,0,1,-5,-3,2,11,-1
22:31:02:822600,12,17,-19,-3,1,2,2,7
22:31:02:829395,12,17,-19,-3,1,2,2,7
22:31:02:830178,-56,7,4,7,3,-1,-12,-17
22:31:02:843641,-7,-1,-15,-11,2,0,0,-4
22:31:02:851868,-7,-1,-15,-11,2,0,0,-4
22:31:02:852684,36,1,-11,-20,1,5,19,15
22:31:02:866834,-9,-4,-6,1,-6,-4,-3,2
22:31:02:867660,-9,-4,-6,1,-6,-4,-3,2
22:31:02:873644,3,3,4,-2,-3,-7,-27,-15
22:31:02:881154,32,53,34,15,6,3,26,17
22:31:02:889373,32,53,34,15,6,3,26,17
22:31:02:890184,-14,31,25,17,7,0,-11,-14
22:31:02:912468,-10,-27,-5,-6,2,3,20,0
22:31:02:913315,-10,-27,-5,-6,2,3,20,0
22:31:02:914136,18,8,-21,-4,-3,-7,-11,5
22:31:02:918689,-18,-9,-33,7,0,-4,-19,-8
22:31:02:934346,-18,-9,-33,7,0,-4,-19,-8
22:31:02:935140,1,-9,15,11,1,4,-1,5
22:31:02:941183,-14,-12,-21,-17,-5,-2,-1,4
22:31:02:950082,-14,-12,-21,-17,-5,-2,-1,4
22:31:02:950845,4,6,16,14,7,2,19,-14
22:31:02:963677,9,6,-22,-15,-3,-4,7,5
22:31:02:971845,9,6,-22,-15,-3,-4,7,5
22:31:02:972622,7,-8,-36,-16,-8,-3,-12,-1
22:31:02:978712,-11,-12,-17,-6,-7,-7,-4,-13
22:31:02:995042,-11,-12,-17,-6,-7,-7,-4,-13
22:31:02:995817,10,-14,14,2,2,2,-17,4
22:31:03:1164,-9,4,22,7,1,0,3,-3
22:31:03:9322,-9,4,22,7,1,0,3,-3
22:31:03:10158,-7,-4,-17,-18,1,3,11,6
22:31:03:23646,7,1,21,6,2,2,2,-2
22:31:03:31876,7,1,21,6,2,2,2,-2
22:31:03:32682,5,5,16,18,3,-2,-6,1
22:31:03:38731,0,-6,-6,-14,-5,-3,-14,1
22:31:03:46176,0,-6,-6,-14,-5,-3,-14,1
22:31:03:61832,-1,4,-11,-3,-3,1,4,0
22:31:03:62604,-19,-14,-18,-2,0,0,-1,0
22:31:03:69368,-19,-14,-18,-2,0,0,-1,0
22:31:03:70178,4,2,-13,-13,-3,-2,7,-6
22:31:03:83635,8,3,9,-8,-2,-1,-1,0
22:31:03:91853,8,3,9,-8,-2,-1,-1,0
22:31:03:92684,-5,-1,1,2,-3,-1,-7,0
22:31:03:106151,1,-1,1,-1,-3,-1,-2,-1
22:31:03:114359,1,-1,1,-1,-3,-1,-2,-1
22:31:03:115182,5,0,12,6,1,-3,-5,-1
22:31:03:121146,0,0,3,3,1,1,-7,0
22:31:03:129407,0,0,3,3,1,1,-7,0
22:31:03:130196,3,0,0,-3,-3,-4,-2,1
22:31:03:143672,-5,-7,-21,-3,-3,-2,3,0
22:31:03:151880,-5,-7,-21,-3,-3,-2,3,0
22:31:03:152687,3,1,5,4,2,0,1,1
22:31:03:158655,5,4,7,8,2,-2,-13,1
22:31:03:174375,5,4,7,8,2,-2,-13,1
22:31:03:175153,0,-2,-4,-13,1,2,-4,0
22:31:03:181163,3,4,3,-11,-8,-5,-13,-3
22:31:03:189389,3,4,3,-11,-8,-5,-13,-3
22:31:03:190184,-4,-4,3,4,-3,3,8,1
22:31:03:203648,1,1,8,5,2,-3,1,0
22:31:03:211857,1,1,8,5,2,-3,1,0
22:31:03:212662,1,6,5,-2,-1,-2,-4,-2
22:31:03:218646,0,-2,-3,-5,-1,2,1,-3
22:31:03:234351,0,-2,-3,-5,-1,2,1,-3
22:31:03:235140,-2,-5,-10,-14,-7,-2,-6,1
22:31:03:241145,1,2,3,-2,3,3,-1,-1
22:31:03:249360,1,2,3,-2,3,3,-1,-1
22:31:03:250145,0,-1,-1,1,6,2,0,1
22:31:03:263718,0,-4,-2,1,-1,-2,-1,-1
22:31:03:271889,0,-4,-2,1,-1,-2,-1,-1
22:31:03:272640,0,2,3,9,-1,-2,-3,-2
22:31:03:278659,0,3,13,6,3,-4,0,-1
22:31:03:294381,0,3,13,6,3,-4,0,-1
22:31:03:295153,-2,-5,1,-2,-4,-7,-4,-2
22:31:03:301168,-1,1,-2,-2,1,7,10,0
22:31:03:309364,-1,1,-2,-2,1,7,10,0
22:31:03:310167,-3,-1,1,1,2,1,0,-2
22:31:03:324065,0,0,1,-3,-5,-6,-4,0
22:31:03:340054,0,0,1,-3,-5,-6,-4,0
22:31:03:340865,-1,-7,-7,-11,4,6,0,-2
22:31:03:341653,0,1,7,9,0,1,3,1
22:31:03:354367,0,1,7,9,0,1,3,1
22:31:03:355175,1,6,9,0,-7,-8,-5,-1
22:31:03:361161,-1,-5,-9,-5,-4,-3,-6,-3
22:31:03:368736,-1,-5,-9,-5,-4,-3,-6,-3
22:31:03:376196,-1,-5,-8,-2,-10,-10,-1,0
22:31:03:383651,-2,-4,-11,-7,2,10,1,1
22:31:03:391866,-2,-4,-11,-7,2,10,1,1
22:31:03:392632,-3,-9,4,-6,-1,-3,2,1
22:31:03:415018,0,1,-10,4,-4,-10,-3,0
22:31:03:415852,0,1,-10,4,-4,-10,-3,0
22:31:03:416650,-3,-1,-5,-4,-1,-5,-1,-1
22:31:03:421158,-1,0,-4,-4,6,1,-4,-2
22:31:03:428719,-1,0,-4,-4,6,1,-4,-2
22:31:03:436137,-3,-1,-4,-2,-8,-12,-9,-8
22:31:03:443651,-2,-2,-3,3,1,6,1,-2
22:31:03:451842,-2,-2,-3,3,1,6,1,-2
22:31:03:452631,0,1,2,8,8,9,1,-1
22:31:03:466173,-2,-4,2,-5,-16,-18,-8,-3
22:31:03:474404,-2,-4,2,-5,-16,-18,-8,-3
22:31:03:475174,1,0,-2,4,13,13,7,3
22:31:03:481177,0,-1,1,5,3,2,3,1
22:31:03:488658,0,-1,1,5,3,2,3,1
22:31:03:496200,0,1,-7,-10,-21,-21,-9,-3
22:31:03:503668,-2,-2,1,5,24,21,6,3
22:31:03:511847,-2,-2,1,5,24,21,6,3
22:31:03:512678,1,2,1,1,4,3,4,1
22:31:03:526163,-1,-3,0,-9,-16,-16,-8,-3
22:31:03:534349,-1,-3,0,-9,-16,-16,-8,-3
22:31:03:535150,-2,-1,0,2,-1,1,-3,0
22:31:03:541162,-2,1,3,3,-1,-1,0,-1
22:31:03:548695,-2,1,3,3,-1,-1,0,-1
22:31:03:556183,0,0,3,5,6,11,4,1
22:31:03:563615,-1,-3,-1,-2,-2,-5,-1,-2
22:31:03:571883,-1,-3,-1,-2,-2,-5,-1,-2
22:31:03:572653,-1,1,-1,0,-1,0,0,-2
22:31:03:586154,1,-2,-1,-2,0,1,-1,-1
22:31:03:594324,1,-2,-1,-2,0,1,-1,-1
22:31:03:595175,2,5,4,7,1,-1,-3,-2
22:31:03:601149,2,-3,1,-2,-9,-15,-6,1
22:31:03:608669,2,-3,1,-2,-9,-15,-6,1
22:31:03:616173,0,2,3,1,2,4,-2,-3
22:31:03:623630,-12,-30,-22,-18,-14,2,4,-5
22:31:03:631857,-12,-30,-22,-18,-14,2,4,-5
22:31:03:632674,1,0,-5,-4,-13,-21,-8,1
22:31:03:646178,2,18,8,2,-5,-3,0,8
22:31:03:654377,2,18,8,2,-5,-3,0,8
22:31:03:655155,0,27,18,-2,-16,-22,-24,-17
22:31:03:661171,-5,2,-1,-3,-2,-8,-3,5
22:31:03:668735,-5,2,-1,-3,-2,-8,-3,5
22:31:03:676177,8,6,0,-6,-8,-11,-2,2
22:31:03:683664,3,22,20,17,12,12,-3,12
22:31:03:699385,3,22,20,17,12,12,-3,12
22:31:03:700161,69,-24,-15,-6,0,11,0,25
22:31:03:706173,3,-14,5,2,1,3,70,2
22:31:03:714381,3,-14,5,2,1,3,70,2
22:31:03:715175,-49,-17,-7,-1,2,6,-8,-23
22:31:03:721197,8,13,18,20,10,1,-17,10
22:31:03:728728,8,13,18,20,10,1,-17,10
22:31:03:736172,0,3,-18,7,8,10,10,7
22:31:03:752537,-20,-25,0,-26,-29,-23,-30,-29
22:31:03:753340,-20,-25,0,-26,-29,-23,-30,-29
22:31:03:754223,-15,-5,11,10,16,18,23,7
22:31:03:766167,9,19,-8,8,4,3,-6,8
22:31:03:774385,9,19,-8,8,4,3,-6,8
22:31:03:775164,-4,0,28,6,-2,-6,6,1
22:31:03:781177,12,8,26,4,8,10,1,0
22:31:03:788723,12,8,26,4,8,10,1,0
22:31:03:796143,-18,-19,-16,-20,-15,-11,-7,-10
22:31:03:803669,-5,-4,3,-3,3,2,-11,-1
22:31:03:811916,-5,-4,3,-3,3,2,-11,-1
22:31:03:812685,-1,6,-19,3,22,16,11,3
22:31:03:826213,-2,-6,-18,-19,-9,-4,-3,-12
22:31:03:834372,-2,-6,-18,-19,-9,-4,-3,-12
22:31:03:835180,12,-2,-14,-8,35,15,17,47
22:31:03:841175,8,-5,-2,-1,1,-3,-10,-21
22:31:03:848722,8,-5,-2,-1,1,-3,-10,-21
22:31:03:856178,-16,46,27,26,-29,-6,-8,-103
22:31:03:863672,-34,-67,-39,-68,-13,-2,-14,70
22:31:03:871834,-34,-67,-39,-68,-13,-2,-14,70
22:31:03:872645,12,1,-13,-6,6,-3,7,103
22:31:03:886157,23,32,9,28,-3,0,11,45
22:31:03:894313,23,32,9,28,-3,0,11,45
22:31:03:895167,4,24,-8,-11,-19,-9,-10,-36
22:31:03:901167,4,-2,-4,6,3,2,12,35
22:31:03:908698,4,-2,-4,6,3,2,12,35
22:31:03:916163,-4,-17,10,6,0,1,-2,-22
22:31:03:923674,5,-3,-9,3,7,4,3,-23
22:31:03:931849,5,-3,-9,3,7,4,3,-23
22:31:03:932675,-18,-18,2,-5,0,-3,-15,-11
22:31:03:946164,2,14,0,2,-5,-6,-7,-29
22:31:03:954354,2,14,0,2,-5,-6,-7,-29
22:31:03:955153,-3,-17,-6,-6,-3,-2,-3,18
22:31:03:961174,-8,7,1,10,0,-2,-8,-35
22:31:03:968698,-8,7,1,10,0,-2,-8,-35
22:31:03:976169,7,-11,-5,-6,-5,-1,5,10
22:31:03:983649,-9,0,2,2,0,-2,-2,-16
22:31:03:991861,-9,0,2,2,0,-2,-2,-16
22:31:03:992667,3,1,4,-1,-1,1,2,1
22:31:04:6169,-5,-3,-7,4,19,3,-1,-1
22:31:04:14403,-5,-3,-7,4,19,3,-1,-1
22:31:04:15174,-2,0,1,-2,-4,-5,-4,-7
22:31:04:21179,-1,-6,2,5,-6,-4,1,-7
22:31:04:28712,-1,-6,2,5,-6,-4,1,-7
22:31:04:36169,-6,-11,-8,-5,0,-1,-3,-2
22:31:04:43654,3,7,8,10,0,0,-3,-6
22:31:04:51860,3,7,8,10,0,0,-3,-6
22:31:04:52682,-1,-3,13,7,1,4,-6,4
22:31:04:66175,-3,1,4,12,-6,-2,-3,-8
22:31:04:74382,-3,1,4,12,-6,-2,-3,-8
22:31:04:75170,0,-2,-18,-7,-1,0,2,2
22:31:04:81191,-1,2,1,-5,2,1,-12,0
22:31:04:88756,-1,2,1,-5,2,1,-12,0
22:31:04:96169,-4,4,6,1,0,-2,4,-8
22:31:04:103642,-6,-10,-18,-18,-9,-6,-11,-10
22:31:04:111823,-6,-10,-18,-18,-9,-6,-11,-10
22:31:04:112629,-1,-1,-6,-9,-5,-3,-3,1
22:31:04:126183,3,1,2,8,7,7,9,3
22:31:04:134402,3,1,2,8,7,7,9,3
22:31:04:135193,-1,-4,3,3,1,0,-1,1
22:31:04:141181,2,-1,-63,-39,-10,-3,1,0
22:31:04:148687,2,-1,-63,-39,-10,-3,1,0
22:31:04:156145,4,-12,-24,-8,-6,-5,1,5
22:31:04:163680,2,19,54,31,9,-6,-5,-6
22:31:04:171867,2,19,54,31,9,-6,-5,-6
22:31:04:172643,-2,-14,-11,7,1,9,6,4
22:31:04:186168,0,11,14,-4,-13,-11,-6,-4
22:31:04:194324,0,11,14,-4,-13,-11,-6,-4
22:31:04:195191,-2,-1,-3,-6,-3,-8,-7,-1
22:31:04:201144,1,2,-9,-1,-1,1,-1,-1
22:31:04:208708,1,2,-9,-1,-1,1,-1,-1
22:31:04:216177,-1,16,18,26,5,-4,-9,-8
22:31:04:223698,6,7,30,10,10,15,14,8
22:31:04:231833,6,7,30,10,10,15,14,8
22:31:04:232677,3,13,12,-7,5,1,2,2
22:31:04:246182,2,-7,9,13,9,13,11,4
22:31:04:254356,2,-7,9,13,9,13,11,4
22:31:04:255158,-7,-4,-13,-22,-12,-7,-5,-6
22:31:04:261172,-3,1,14,0,-2,-3,-3,-3
22:31:04:268687,-3,1,14,0,-2,-3,-3,-3
22:31:04:276180,-5,-3,-16,-6,-5,-4,-4,-4
22:31:04:283641,-2,-21,-28,-7,5,8,7,5
22:31:04:291874,-2,-21,-28,-7,5,8,7,5
22:31:04:292660,-10,-3,2,7,4,2,1,-5
22:31:04:306180,2,-15,-22,-14,-11,-8,-8,-30
22:31:04:314339,2,-15,-22,-14,-11,-8,-8,-30
22:31:04:315152,-3,-17,-34,-5,-6,0,-3,-7
22:31:04:329353,-5,2,-6,-1,2,-2,2,7
22:31:04:330192,-5,2,-6,-1,2,-2,2,7
22:31:04:336202,7,11,20,5,2,4,4,5
22:31:04:343631,-11,-14,-24,-24,-13,-11,-7,-5
22:31:04:351190,-11,-14,-24,-24,-13,-11,-7,-5
22:31:04:358641,0,3,2,-5,-4,-4,-1,2
22:31:04:366180,2,3,-7,3,1,0,-2,7
22:31:04:374404,2,3,-7,3,1,0,-2,7
22:31:04:375152,2,3,16,5,4,4,1,1
22:31:04:389363,-2,-3,-3,-1,0,0,1,7
22:31:04:390198,-2,-3,-3,-1,0,0,1,7
22:31:04:396172,1,5,8,-4,-5,-10,-7,-5
22:31:04:403602,-3,-2,-18,-4,1,-1,0,1
22:31:04:411176,-3,-2,-18,-4,1,-1,0,1
22:31:04:418660,21,-2,3,4,6,7,8,14
22:31:04:426192,-2,0,10,5,-1,1,2,0
22:31:04:434372,-2,0,10,5,-1,1,2,0
22:31:04:435177,-8,-5,-5,-2,-2,-3,-4,-4
22:31:04:449333,-2,3,13,2,-2,-2,-1,3
22:31:04:450204,-2,3,13,2,-2,-2,-1,3
22:31:04:456166,-4,-4,0,-1,-4,-1,-1,0
22:31:04:463677,-3,2,8,-2,-1,-1,-1,-2
22:31:04:471210,-3,2,8,-2,-1,-1,-1,-2
22:31:04:478647,-1,-3,0,-5,-6,-6,-7,-2
22:31:04:486174,-1,0,0,4,2,5,3,-4
22:31:04:494336,-1,0,0,4,2,5,3,-4
22:31:04:495163,-2,1,0,1,-2,-2,-2,-4
22:31:04:509377,-2,-1,-4,-8,-5,-7,-5,-4
22:31:04:510197,-2,-1,-4,-8,-5,-7,-5,-4
22:31:04:516173,-3,-7,-3,-7,-3,-2,-1,-1
22:31:04:523642,-3,-1,2,3,1,-1,-2,-3
22:31:04:531169,-3,-1,2,3,1,-1,-2,-3
22:31:04:538722,-2,3,8,4,2,-2,-2,-3
22:31:04:546253,2,0,-3,-4,-2,-1,-1,1
22:31:04:554361,2,0,-3,-4,-2,-1,-1,1
22:31:04:555179,-1,1,0,0,-1,2,0,-2
22:31:04:569350,-2,-2,-2,-4,-3,-3,-3,-3
22:31:04:570186,-2,-2,-2,-4,-3,-3,-3,-3
22:31:04:576182,0,-2,-5,-1,-2,1,-2,1
22:31:04:583670,-3,-2,4,4,-2,-4,-4,-3
22:31:04:591175,-3,-2,4,4,-2,-4,-4,-3
22:31:04:598635,-1,0,-11,-2,0,3,-6,-2
22:31:04:606182,0,-1,0,-5,-1,-1,-2,-1
22:31:04:614349,0,-1,0,-5,-1,-1,-2,-1
22:31:04:615170,-2,-4,-16,-8,-3,-5,0,-1
22:31:04:629349,0,0,-4,4,3,1,-3,-1
22:31:04:630167,0,0,-4,4,3,1,-3,-1
22:31:04:636166,2,6,16,1,4,6,6,2
22:31:04:643644,-3,-6,-14,0,-5,-7,0,-2
22:31:04:651223,-3,-6,-14,0,-5,-7,0,-2
22:31:04:658660,-2,-9,-19,-1,-4,-5,-5,0
22:31:04:666161,2,8,6,-2,-5,-1,1,1
22:31:04:674405,2,8,6,-2,-5,-1,1,1
22:31:04:675153,-6,-11,6,8,7,3,5,-5
22:31:04:689366,-6,-12,-44,-22,-8,-4,-5,-7
22:31:04:690180,-6,-12,-44,-22,-8,-4,-5,-7
22:31:04:696168,-1,0,5,6,3,1,0,1
22:31:04:703680,1,4,14,-2,0,-1,0,0
22:31:04:711199,1,4,14,-2,0,-1,0,0
22:31:04:718663,-1,0,-16,-13,-3,-1,1,0
22:31:04:726253,1,6,38,7,0,-2,-2,0
22:31:04:734406,1,6,38,7,0,-2,-2,0
22:31:04:735185,-1,-1,24,-1,-2,-2,-4,-2
22:31:04:749344,-2,-8,-34,-7,3,2,-1,1
22:31:04:750170,-2,-8,-34,-7,3,2,-1,1
22:31:04:756163,-3,-1,-2,-3,-7,-5,-3,-2
22:31:04:763614,0,1,34,12,1,0,0,0
22:31:04:771203,0,1,34,12,1,0,0,0
22:31:04:778627,2,-2,-4,-1,-4,-1,-1,1
22:31:04:795009,1,2,-17,-2,-6,0,1,-2
22:31:04:795820,1,2,-17,-2,-6,0,1,-2
22:31:04:796629,-1,3,13,-6,-3,-1,0,-2
22:31:04:809335,-1,0,31,16,5,0,-4,-1
22:31:04:810137,-1,0,31,16,5,0,-4,-1
22:31:04:816156,2,2,0,-4,-3,-2,-1,1
22:31:04:823653,-1,0,-3,-8,-2,-1,-1,-2
22:31:04:831208,-1,0,-3,-8,-2,-1,-1,-2
22:31:04:838641,-4,-3,18,13,1,-3,-1,0
22:31:04:846170,1,-1,-11,-5,1,-2,2,-2
22:31:04:854370,1,-1,-11,-5,1,-2,2,-2
22:31:04:855168,-1,-4,-10,-3,-2,-1,-1,-3
22:31:04:869342,-3,-2,7,4,-4,-2,-1,0
22:31:04:870155,-3,-2,7,4,-4,-2,-1,0
22:31:04:876147,0,2,7,2,1,4,1,1
22:31:04:883625,-3,0,5,0,0,0,1,-1
22:31:04:891202,-3,0,5,0,0,0,1,-1
22:31:04:898661,0,-1,-13,-6,-6,-10,-6,-2
22:31:04:906149,1,3,4,9,4,4,-4,0
22:31:04:914285,1,3,4,9,4,4,-4,0
22:31:04:915133,1,-2,-25,-12,1,0,-2,1
22:31:04:929279,-4,-8,17,11,-1,0,-6,-4
22:31:04:930160,-4,-8,17,11,-1,0,-6,-4
22:31:04:936160,-2,-5,-25,2,-2,-2,-2,-3
22:31:04:943628,-2,-6,-13,-2,2,-1,1,-7
22:31:04:951153,-2,-6,-13,-2,2,-1,1,-7
22:31:04:958635,-1,1,10,2,2,-2,-3,-2
22:31:04:966153,3,1,-23,-22,0,1,-3,13
22:31:04:974391,3,1,-23,-22,0,1,-3,13
22:31:04:975190,2,0,-3,-11,2,2,3,-6
22:31:04:989349,-3,-1,2,0,2,2,14,-5
22:31:04:990152,-3,-1,2,0,2,2,14,-5
22:31:04:996175,10,1,7,4,2,0,-3,6
22:31:05:3698,6,-4,-11,-3,-2,-4,-6,5
22:31:05:11203,6,-4,-11,-3,-2,-4,-6,5
22:31:05:18634,-10,0,-4,4,0,1,2,-9
22:31:05:26192,7,-7,2,6,-3,-5,-2,2
22:31:05:34338,7,-7,2,6,-3,-5,-2,2
22:31:05:35189,3,2,7,1,3,4,1,2
22:31:05:49320,-5,5,2,-6,-2,1,3,-2
22:31:05:50180,-5,5,2,-6,-2,1,3,-2
22:31:05:56214,-2,-5,-3,2,0,-2,-3,-17
22:31:05:63647,-1,0,-1,3,-2,-1,9,6
22:31:05:71219,-1,0,-1,3,-2,-1,9,6
22:31:05:78653,-2,6,-3,2,5,8,9,6
22:31:05:86177,-3,-5,-13,-14,-5,-3,-4,-9
22:31:05:94378,-3,-5,-13,-14,-5,-3,-4,-9
22:31:05:95196,-7,-8,-1,-8,-6,-4,-3,-1
22:31:05:109829,-1,-3,-7,-3,0,0,-5,-2
22:31:05:110711,-1,-3,-7,-3,0,0,-5,-2
22:31:05:116179,0,1,12,-2,-1,-2,-2,3
22:31:05:123617,-7,-8,6,4,-6,-6,-6,-3
22:31:05:131206,-7,-8,6,4,-6,-6,-6,-3
22:31:05:138664,-4,0,17,5,-6,-4,-3,3
22:31:05:146174,3,11,2,3,3,1,0,-1
22:31:05:154393,3,11,2,3,3,1,0,-1
22:31:05:155159,-1,1,0,-8,-1,0,3,3
22:31:05:169368,0,0,-4,-7,-5,-5,-9,-5
22:31:05:170175,0,0,-4,-7,-5,-5,-9,-5
22:31:05:176168,-4,-5,-14,3,3,3,1,-4
22:31:05:183663,-3,-4,-4,2,-2,-1,-14,-7
22:31:05:191213,-3,-4,-4,2,-2,-1,-14,-7
22:31:05:198685,-2,3,11,6,1,-3,-7,-1
22:31:05:206190,1,1,2,-3,-1,-1,4,0
22:31:05:214378,1,1,2,-3,-1,-1,4,0
22:31:05:215209,-2,-15,-11,-11,-2,-1,1,-1
22:31:05:229397,-2,-4,3,1,0,-1,0,1
22:31:05:230200,-2,-4,3,1,0,-1,0,1
22:31:05:236191,1,4,-5,5,-1,0,1,1
22:31:05:243695,-2,6,2,-3,-2,0,1,0
22:31:05:251199,-2,6,2,-3,-2,0,1,0
22:31:05:258679,-1,-6,-1,-3,-2,-3,-2,1
22:31:05:266181,-2,3,4,2,0,-3,0,-3
22:31:05:273697,-2,3,4,2,0,-3,0,-3
22:31:05:281174,2,-1,-6,2,-4,0,1,-1
22:31:05:289366,-1,0,4,1,-1,0,1,-2
22:31:05:290171,-1,0,4,1,-1,0,1,-2
22:31:05:296154,-1,-5,-6,2,-1,-3,-4,1
22:31:05:311819,1,3,-3,-1,4,4,2,2
22:31:05:312669,1,3,-3,-1,4,4,2,2
22:31:05:318626,-1,3,-13,-7,-3,1,0,-3
22:31:05:326171,-4,-10,-21,0,-1,-1,0,-1
22:31:05:333733,-4,-10,-21,0,-1,-1,0,-1
22:31:05:341190,-2,5,12,3,5,1,-1,1
22:31:05:349392,-1,1,1,0,-4,-2,-2,-1
22:31:05:350180,-1,1,1,0,-4,-2,-2,-1
22:31:05:356202,-2,1,-2,-3,9,5,1,-1
22:31:05:371866,-1,2,3,1,0,-1,-4,-1
22:31:05:372684,-1,2,3,1,0,-1,-4,-1
22:31:05:378632,0,1,4,8,-1,-1,-2,7
22:31:05:386193,1,3,5,5,4,2,2,1
22:31:05:393712,1,3,5,5,4,2,2,1
22:31:05:401194,0,4,-1,-1,-6,-4,-1,-4
22:31:05:409378,0,2,-3,0,-3,-3,-3,0
22:31:05:410207,0,2,-3,0,-3,-3,-3,0
22:31:05:416193,0,0,6,0,-7,-6,0,-3
22:31:05:431858,0,-1,0,0,-1,-1,2,-2
22:31:05:432686,0,-1,0,0,-1,-1,2,-2
22:31:05:438695,2,7,19,4,2,0,-3,-3
22:31:05:446188,0,1,0,-7,1,-1,-2,-2
22:31:05:453751,0,1,0,-7,1,-1,-2,-2
22:31:05:461204,-4,-3,-11,-5,-5,-7,-8,1
22:31:05:469358,-3,-7,1,-1,-1,0,-2,-1
22:31:05:470183,-3,-7,1,-1,-1,0,-2,-1
22:31:05:476216,-2,-6,-6,-4,-1,0,1,-3
22:31:05:491882,-4,-5,-11,-5,-1,-1,-2,-1
22:31:05:492704,-4,-5,-11,-5,-1,-1,-2,-1
22:31:05:498661,-1,-7,6,2,8,3,3,-1
22:31:05:506179,1,6,12,-2,-2,0,-2,-4
22:31:05:513681,1,6,12,-2,-2,0,-2,-4
22:31:05:521225,-3,-4,-10,2,-5,-7,6,8
22:31:05:529346,-2,-9,-19,-8,-5,-2,-2,9
22:31:05:530173,-2,-9,-19,-8,-5,-2,-2,9
22:31:05:536183,0,-4,-12,-4,0,1,-8,-1
22:31:05:551847,-1,-8,2,3,0,-1,2,-3
22:31:05:552659,-1,-8,2,3,0,-1,2,-3
22:31:05:558683,-2,-1,-2,-4,-3,-1,-4,-5
22:31:05:566193,1,2,2,-1,-3,-1,-3,-2
22:31:05:573706,1,2,2,-1,-3,-1,-3,-2
22:31:05:581189,-1,-6,1,0,1,1,0,-5
22:31:05:589332,1,0,1,-2,1,0,1,2
22:31:05:590177,1,0,1,-2,1,0,1,2
22:31:05:596204,1,0,-4,-6,-4,-3,3,-2
22:31:05:611839,-3,-1,-2,3,1,0,0,-2
22:31:05:612662,-3,-1,-2,3,1,0,0,-2
22:31:05:618641,-1,5,5,-1,-2,1,-5,1
22:31:05:626207,-5,-2,1,2,2,0,-2,-4
22:31:05:633733,-5,-2,1,2,2,0,-2,-4
22:31:05:641183,1,2,-1,1,5,2,2,2
22:31:05:649382,-1,0,4,6,-2,-1,-2,-2
22:31:05:650200,-1,0,4,6,-2,-1,-2,-2
22:31:05:656204,0,-1,1,-1,-3,-2,-3,-1
22:31:05:671848,-2,7,8,-2,-1,-1,-2,2
22:31:05:672673,-2,7,8,-2,-1,-1,-2,2
22:31:05:678647,-1,-6,9,-2,-3,0,-2,-4
22:31:05:686191,2,3,-5,-3,-3,-4,-2,-9
22:31:05:693699,2,3,-5,-3,-3,-4,-2,-9
22:31:05:701193,-3,-9,-32,-5,-2,-1,6,-2
22:31:05:709384,-2,-4,-1,-1,3,2,2,-3
22:31:05:710184,-2,-4,-1,-1,3,2,2,-3
22:31:05:716177,-2,-2,-2,-1,-1,-1,-1,-2
22:31:05:731871,-1,-16,-4,-1,-6,-1,0,-2
22:31:05:732688,-1,-16,-4,-1,-6,-1,0,-2
22:31:05:738657,-1,-6,7,0,-3,-1,5,0
22:31:05:746191,-3,1,6,-4,0,0,4,13
22:31:05:753779,-3,1,6,-4,0,0,4,13
22:31:05:761209,0,0,9,3,-4,-2,-3,5
22:31:05:769310,1,0,2,5,3,-1,-2,-10
22:31:05:770163,1,0,2,5,3,-1,-2,-10
22:31:05:783670,-1,-6,-17,-16,-1,2,-3,-2
22:31:05:791864,1,5,8,0,-1,-3,-3,-11
22:31:05:792712,1,5,8,0,-1,-3,-3,-11
22:31:05:798654,1,7,4,8,3,0,0,-1
22:31:05:806191,0,1,2,1,0,1,-7,-63
22:31:05:813704,0,1,2,1,0,1,-7,-63
22:31:05:829995,0,2,-6,-1,0,4,13,10
22:31:05:830784,-1,1,5,9,1,-3,0,4
22:31:05:831589,-1,1,5,9,1,-3,0,4
22:31:05:836196,-5,-3,-12,-16,-5,-4,4,-23
22:31:05:851882,-1,0,-5,-6,-2,-2,-6,1
22:31:05:852683,-1,0,-5,-6,-2,-2,-6,1
22:31:05:858676,-5,0,-1,1,-4,-1,12,11
22:31:05:874825,-5,0,-1,1,-4,-1,12,11
22:31:05:875660,-2,-3,-13,-7,-4,2,1,19
22:31:05:881781,3,8,8,4,0,-3,-17,-5
22:31:05:889400,3,8,8,4,0,-3,-17,-5
22:31:05:890174,-2,-5,-8,-3,2,-1,-5,6
22:31:05:896220,4,12,14,5,1,0,-15,-21
22:31:05:911878,4,12,14,5,1,0,-15,-21
22:31:05:912687,5,-15,-9,-6,-6,-3,4,19
22:31:05:918654,-13,-11,-1,1,0,-4,-10,-20
22:31:05:934378,-13,-11,-1,1,0,-4,-10,-20
22:31:05:935170,0,8,-13,-4,-2,-1,1,13
22:31:05:941183,4,-10,-4,2,-2,1,-4,-1
22:31:05:957518,4,-10,-4,2,-2,1,-4,-1
22:31:05:958326,-1,7,7,0,-1,-5,-6,-9
22:31:05:959179,-2,4,9,3,1,1,3,1
22:31:05:971864,-2,4,9,3,1,1,3,1
22:31:05:972639,-2,3,0,-5,1,1,0,5
22:31:05:978634,-2,-6,-5,-3,-1,-1,9,41
22:31:05:994361,-2,-6,-5,-3,-1,-1,9,41
22:31:05:995193,1,5,6,3,-1,0,1,-4
22:31:06:1182,-11,-8,-5,0,-1,-3,0,-16
22:31:06:9364,-11,-8,-5,0,-1,-3,0,-16
22:31:06:10170,-2,14,-6,-2,0,0,6,16
22:31:06:16107,11,25,-2,-3,2,3,-2,31
22:31:06:31851,11,25,-2,-3,2,3,-2,31
22:31:06:32618,-1,8,3,0,-2,-4,2,32
22:31:06:38682,18,-7,7,0,1,1,9,16
22:31:06:54430,18,-7,7,0,1,1,9,16
22:31:06:55182,-3,-17,-3,-2,-1,-1,-10,0
22:31:06:61213,9,-1,-1,1,-4,-4,-8,-22
22:31:06:69361,9,-1,-1,1,-4,-4,-8,-22
22:31:06:70212,-10,2,3,0,-3,0,-9,-34
22:31:06:76180,-14,-17,-25,-7,-4,-2,-10,-14
22:31:06:92272,-14,-17,-25,-7,-4,-2,-10,-14
22:31:06:99336,-4,-13,13,4,4,1,-6,-20
22:31:06:100172,-1,12,9,6,-2,-1,0,-4
22:31:06:114405,-1,12,9,6,-2,-1,0,-4
22:31:06:115166,11,14,7,2,0,-4,-2,1
22:31:06:121187,-5,1,-2,0,-1,-1,2,3
22:31:06:129336,-5,1,-2,0,-1,-1,2,3
22:31:06:130181,-4,-14,-13,-7,-3,0,3,-3
22:31:06:152522,6,11,28,2,0,0,-3,-3
22:31:06:153334,6,11,28,2,0,0,-3,-3
22:31:06:154169,-1,5,-4,7,-1,-1,3,8
22:31:06:158654,-5,-11,-7,-2,-3,-2,-2,-9
22:31:06:174352,-5,-11,-7,-2,-3,-2,-2,-9
22:31:06:175179,1,-3,-2,2,2,-1,0,-10
22:31:06:181117,-3,-6,-7,-4,-2,-4,-5,-8
22:31:06:189364,-3,-6,-7,-4,-2,-4,-5,-8
22:31:06:190190,-1,-1,8,0,2,1,5,-8
22:31:06:203676,-13,4,8,-1,1,-2,-2,1
22:31:06:211880,-13,4,8,-1,1,-2,-2,1
22:31:06:212657,0,-9,-30,3,-4,-4,-2,2
22:31:06:218654,-4,1,2,-16,-6,-3,-2,3
22:31:06:234831,-4,1,2,-16,-6,-3,-2,3
22:31:06:235625,-8,-11,-5,-8,-4,1,0,0
22:31:06:241184,5,11,8,14,7,2,1,2
22:31:06:249401,5,11,8,14,7,2,1,2
22:31:06:250199,5,1,-3,-4,-3,-1,0,5
22:31:06:263683,4,-10,-8,1,4,2,-1,0
22:31:06:280065,4,-10,-8,1,4,2,-1,0
22:31:06:280855,-5,-12,16,7,0,-2,-3,3
22:31:06:281969,8,-7,-21,-3,-2,-3,-1,1
22:31:06:294399,8,-7,-21,-3,-2,-3,-1,1
22:31:06:295162,-5,24,14,2,2,2,7,1
22:31:06:301189,-20,-19,-4,2,-2,0,-1,-3
22:31:06:309389,-20,-19,-4,2,-2,0,-1,-3
22:31:06:310199,0,2,3,-6,-5,-2,-6,-3
22:31:06:323654,11,23,10,0,5,2,2,5
22:31:06:331856,11,23,10,0,5,2,2,5
22:31:06:332682,-5,-18,-11,-5,0,0,-1,-2
22:31:06:338630,-6,-13,0,1,-3,-1,-6,-3
22:31:06:354383,-6,-13,0,1,-3,-1,-6,-3
22:31:06:355177,13,15,10,6,4,0,-2,7
22:31:06:361188,2,-4,-25,-14,-8,-4,-4,-5
22:31:06:369408,2,-4,-25,-14,-8,-4,-4,-5
22:31:06:370190,7,-9,-1,-3,-6,-1,-2,1
22:31:06:383675,-10,-25,3,3,1,2,5,-2
22:31:06:391876,-10,-25,3,3,1,2,5,-2
22:31:06:392665,1,-2,15,3,-1,-5,-2,-1
22:31:06:398653,8,2,7,-1,-1,1,3,3
22:31:06:414411,8,2,7,-1,-1,1,3,3
22:31:06:415211,-8,-8,5,-8,-2,0,0,-6
22:31:06:429993,0,12,-2,-3,-3,-1,-4,2
22:31:06:430822,0,12,-2,-3,-3,-1,-4,2
22:31:06:431608,3,17,-3,-1,1,-2,4,4
22:31:06:443672,-5,-21,2,4,-2,-1,0,-1
22:31:06:451858,-5,-21,2,4,-2,-1,0,-1
22:31:06:452643,13,2,-5,-5,-3,-2,-1,1
22:31:06:466207,-6,14,0,5,0,0,-4,-4
22:31:06:474407,-6,14,0,5,0,0,-4,-4
22:31:06:475180,-7,-24,-10,-10,-5,-2,-1,0
22:31:06:481218,9,13,-3,-10,-3,-4,1,0
22:31:06:489340,9,13,-3,-10,-3,-4,1,0
22:31:06:490199,-4,12,-18,-4,-1,-2,-5,-6
22:31:06:512540,-15,-11,-9,3,-3,-4,2,-8
22:31:06:513332,-15,-11,-9,3,-3,-4,2,-8
22:31:06:514193,3,-1,-2,0,-1,0,4,0
22:31:06:518667,-7,30,11,11,11,2,-3,0
22:31:06:534360,-7,30,11,11,11,2,-3,0
22:31:06:535182,-10,-7,-4,-11,-3,-5,-4,0
22:31:06:541147,9,22,-1,-2,-1,-2,-2,0
22:31:06:549417,9,22,-1,-2,-1,-2,-2,0
22:31:06:550198,-3,-13,12,9,2,2,1,1
22:31:06:563678,11,4,-10,-6,-5,-1,-3,-1
22:31:06:571850,11,4,-10,-6,-5,-1,-3,-1
22:31:06:572666,-16,3,1,-5,0,2,1,-3
22:31:06:578642,-5,-8,-2,-6,-6,0,3,-6
22:31:06:594355,-5,-8,-2,-6,-6,0,3,-6
22:31:06:595167,-5,16,-25,4,1,-1,-8,-12
22:31:06:601186,-18,-19,-8,-1,-4,-5,-4,-7
22:31:06:609391,-18,-19,-8,-1,-4,-5,-4,-7
22:31:06:610174,2,-8,10,-7,-7,-3,-1,7
22:31:06:623677,2,-24,0,0,3,2,1,4
22:31:06:631840,2,-24,0,0,3,2,1,4
22:31:06:632664,8,6,-11,2,1,-4,0,4
22:31:06:638658,12,0,5,6,0,-2,-1,5
22:31:06:654357,12,0,5,6,0,-2,-1,5
22:31:06:655216,-30,-29,-9,-3,3,2,-1,-6
22:31:06:661196,-4,1,4,0,-2,0,-2,1
22:31:06:669360,-4,1,4,0,-2,0,-2,1
22:31:06:670223,8,6,-3,-2,-2,-3,-2,-4
22:31:06:683706,3,6,0,-1,0,-4,-8,-1
22:31:06:691890,3,6,0,-1,0,-4,-8,-1
22:31:06:692647,-2,-2,12,1,-2,1,2,-1
22:31:06:698681,1,-12,-10,-4,-2,-3,-3,-8
22:31:06:714370,1,-12,-10,-4,-2,-3,-3,-8
22:31:06:715186,6,6,8,4,1,-2,-2,0
22:31:06:721206,11,9,2,-3,1,1,3,2
22:31:06:729372,11,9,2,-3,1,1,3,2
22:31:06:730183,-13,3,-20,3,3,2,1,1
22:31:06:743680,9,5,14,-5,-5,-4,-6,6
22:31:06:751885,9,5,14,-5,-5,-4,-6,6
22:31:06:752664,14,-3,-10,-1,0,-2,-2,0
22:31:06:758694,6,9,-5,3,3,1,-3,3
22:31:06:782741,6,9,-5,3,3,1,-3,3
22:31:06:783347,-24,-32,-2,-2,-7,-6,-6,-10
22:31:06:784202,6,8,3,0,-1,-1,2,0
22:31:06:789386,6,8,3,0,-1,-1,2,0
22:31:06:790190,1,-2,-6,2,-1,2,0,-3
22:31:06:803641,-16,-6,-10,-2,-4,0,2,-4
22:31:06:811897,-16,-6,-10,-2,-4,0,2,-4
22:31:06:813047,3,-12,8,-3,-6,-1,1,2
22:31:06:818666,-14,2,11,8,4,-1,3,-2
22:31:06:834356,-14,2,11,8,4,-1,3,-2
22:31:06:835205,21,-12,-17,-10,-6,0,0,14
22:31:06:841141,-17,-14,14,-1,-2,-2,-1,-5
22:31:06:849369,-17,-14,14,-1,-2,-2,-1,-5
22:31:06:850221,-45,-24,5,-1,0,1,-3,-4
22:31:06:863715,-4,-24,-19,-15,-1,3,1,5
22:31:06:871866,-4,-24,-19,-15,-1,3,1,5
22:31:06:872665,1,18,-12,-10,4,0,-4,-14
22:31:06:878661,-16,16,-3,-8,-3,3,0,16
22:31:06:894391,-16,16,-3,-8,-3,3,0,16
22:31:06:895188,0,0,5,0,4,5,5,1
22:31:06:901223,-9,-51,-15,-5,-5,-6,-6,-5
22:31:06:909373,-9,-51,-15,-5,-5,-6,-6,-5
22:31:06:910203,5,10,4,7,-3,1,5,16
22:31:06:923665,42,29,-3,3,10,6,5,-16
22:31:06:931852,42,29,-3,3,10,6,5,-16
22:31:06:932653,15,-15,-3,-16,-7,-7,-4,-10
22:31:06:938627,11,7,9,10,-1,1,2,0
22:31:06:954357,11,7,9,10,-1,1,2,0
22:31:06:955180,-3,20,30,37,5,0,16,36
22:31:06:961209,-24,9,-6,-11,9,-5,-17,-60
22:31:06:969379,-24,9,-6,-11,9,-5,-17,-60
22:31:06:970206,-23,9,6,-4,3,2,-11,-6
22:31:06:983678,-6,-29,3,13,-3,3,11,5
22:31:06:991874,-6,-29,3,13,-3,3,11,5
22:31:06:992637,-3,-16,-36,2,0,-5,-10,-11
22:31:06:998691,4,19,-6,-2,-4,-5,-4,8
22:31:07:14354,4,19,-6,-2,-4,-5,-4,8
22:31:07:15217,12,4,20,6,-3,-1,-1,0
22:31:07:21209,-4,-25,-9,2,2,-1,-1,10
22:31:07:29356,-4,-25,-9,2,2,-1,-1,10
22:31:07:30180,1,-29,4,-3,5,1,-1,-7
22:31:07:43671,-8,23,-6,-25,-15,-4,-3,7
22:31:07:51821,-8,23,-6,-25,-15,-4,-3,7
22:31:07:52656,-11,28,-6,-10,-2,-4,-9,-10
22:31:07:58679,5,13,16,21,5,3,8,4
22:31:07:74371,5,13,16,21,5,3,8,4
22:31:07:75184,6,-16,-19,-13,-14,-5,2,3
22:31:07:81193,-21,-33,12,-6,-6,-3,1,-10
22:31:07:89530,-21,-33,12,-6,-6,-3,1,-10
22:31:07:90184,2,-6,-8,18,7,4,2,-3
22:31:07:103665,-2,-16,11,-9,-4,1,-2,-8
22:31:07:111939,-2,-16,11,-9,-4,1,-2,-8
22:31:07:112697,-3,-6,-36,-16,-1,-2,4,-1
22:31:07:118678,-12,-12,-1,-4,-6,-4,-5,3
22:31:07:134404,-12,-12,-1,-4,-6,-4,-5,3
22:31:07:135179,16,14,9,3,0,1,3,13
22:31:07:141199,3,9,19,-3,-6,-5,-5,-1
22:31:07:148733,3,9,19,-3,-6,-5,-5,-1
22:31:07:156186,26,25,-3,2,0,0,3,-3
22:31:07:163669,11,25,-2,-2,-2,-4,-7,6
22:31:07:171851,11,25,-2,-2,-2,-4,-7,6
22:31:07:172671,30,-16,-7,-10,-2,2,8,15
22:31:07:186209,-1,-10,-26,-2,5,2,-5,-27
22:31:07:194413,-1,-10,-26,-2,5,2,-5,-27
22:31:07:195183,-10,25,28,12,3,3,-3,0
22:31:07:201213,13,9,1,6,-10,0,3,9
22:31:07:208708,13,9,1,6,-10,0,3,9
22:31:07:216220,-18,-2,-22,-2,3,-5,-9,-2
22:31:07:223670,-4,0,14,9,4,-3,-2,5
22:31:07:231860,-4,0,14,9,4,-3,-2,5
22:31:07:232671,12,40,31,2,-4,-2,-3,10
22:31:07:246203,-54,-21,-18,-11,-2,1,-2,-1
22:31:07:254352,-54,-21,-18,-11,-2,1,-2,-1
22:31:07:255193,-4,-9,-15,-1,8,5,1,-28
22:31:07:261191,19,4,-7,0,2,-2,2,-2
22:31:07:268734,19,4,-7,0,2,-2,2,-2
22:31:07:276126,2,9,2,20,-7,-5,-2,4
22:31:07:283631,-8,20,9,10,9,3,2,22
22:31:07:291903,-8,20,9,10,9,3,2,22
22:31:07:292663,-5,-37,-16,-5,-13,-9,-10,-31
22:31:07:306212,41,71,26,11,-3,-4,-4,1
22:31:07:314363,41,71,26,11,-3,-4,-4,1
22:31:07:315214,-8,-19,-9,-9,-5,-5,-10,0
22:31:07:321143,20,-13,-6,-2,2,-1,-1,6
22:31:07:328705,20,-13,-6,-2,2,-1,-1,6
22:31:07:336217,-25,-9,17,-6,4,1,0,10
22:31:07:343651,-25,-15,-17,3,1,0,-1,-6
22:31:07:351882,-25,-15,-17,3,1,0,-1,-6
22:31:07:352653,7,22,21,-10,9,7,5,5
22:31:07:366154,-17,5,25,-2,-1,-4,0,-8
22:31:07:374387,-17,5,25,-2,-1,-4,0,-8
22:31:07:375196,22,13,8,3,1,3,10,10
22:31:07:381213,-24,-4,-4,-2,-5,-7,-17,-9
22:31:07:388743,-24,-4,-4,-2,-5,-7,-17,-9
22:31:07:396216,-22,2,4,-13,-2,-4,4,-4
22:31:07:403649,10,-26,-13,-6,-6,-2,5,13
22:31:07:411910,10,-26,-13,-6,-6,-2,5,13
22:31:07:412672,-13,-31,-3,-8,-8,-2,-1,-12
22:31:07:426221,4,-5,-2,-4,8,5,-3,11
22:31:07:434411,4,-5,-2,-4,8,5,-3,11
22:31:07:435195,9,-44,-29,-1,-1,0,-2,0
22:31:07:441218,25,28,-9,-5,-6,2,6,10
22:31:07:448758,25,28,-9,-5,-6,2,6,10
22:31:07:456220,17,24,5,12,0,0,6,7
22:31:07:463696,-3,-28,-33,-2,0,-1,3,-18
22:31:07:471861,-3,-28,-33,-2,0,-1,3,-18
22:31:07:472649,-8,17,-8,-10,1,2,-4,-10
22:31:07:486197,-7,-4,-10,-1,1,-2,1,-1
22:31:07:494428,-7,-4,-10,-1,1,-2,1,-1
22:31:07:495199,0,27,-2,2,-6,-4,-12,-10
22:31:07:501201,15,10,15,2,1,2,1,8
22:31:07:508684,15,10,15,2,1,2,1,8
22:31:07:516241,5,13,15,20,-1,-4,-1,14
22:31:07:523707,-13,-35,-26,-3,-5,-2,-4,-15
22:31:07:531906,-13,-35,-26,-3,-5,-2,-4,-15
22:31:07:532649,19,58,9,-4,-6,-4,-2,-17
22:31:07:546218,17,15,18,2,-1,4,5,16
22:31:07:554379,17,15,18,2,-1,4,5,16
22:31:07:555328,-8,-12,-4,-7,-14,-6,-3,0
22:31:07:561202,-12,14,3,-18,4,2,3,-4
22:31:07:568705,-12,14,3,-18,4,2,3,-4
22:31:07:576131,8,-18,-9,-21,-1,1,9,13
22:31:07:583668,-7,-13,28,18,2,-1,-3,-8
22:31:07:591898,-7,-13,28,18,2,-1,-3,-8
22:31:07:592669,-19,-15,4,3,2,1,-10,-14
22:31:07:606214,3,-13,-21,-5,-2,-3,2,8
22:31:07:614367,3,-13,-21,-5,-2,-3,2,8
22:31:07:615184,-19,32,-3,-11,-2,2,-3,-2
22:31:07:621134,15,12,13,-8,-4,-4,-4,-1
22:31:07:628745,15,12,13,-8,-4,-4,-4,-1
22:31:07:636209,-4,-10,4,4,0,-5,-5,7
22:31:07:643669,-17,15,-10,9,2,-3,-11,-35
22:31:07:651918,-17,15,-10,9,2,-3,-11,-35
22:31:07:652680,-15,-22,11,-15,-2,0,6,18
22:31:07:666149,9,-21,3,6,-2,-2,8,11
22:31:07:674394,9,-21,3,6,-2,-2,8,11
22:31:07:675203,13,6,-4,-21,-7,1,-2,6
22:31:07:681249,-8,3,-10,-2,0,-1,4,6
22:31:07:688755,-8,3,-10,-2,0,-1,4,6
22:31:07:696249,-3,-21,-4,9,7,0,-2,-10
22:31:07:703669,6,-1,-4,6,0,-1,-2,4
22:31:07:711898,6,-1,-4,6,0,-1,-2,4
22:31:07:712721,-3,-4,7,-1,8,4,4,-15
22:31:07:726218,-15,-20,3,-20,-7,-1,-4,-9
22:31:07:734403,-15,-20,3,-20,-7,-1,-4,-9
22:31:07:735202,2,5,1,5,-4,-7,-14,2
22:31:07:741203,-26,-9,13,2,-2,0,-6,-1
22:31:07:756917,-26,-9,13,2,-2,0,-6,-1
22:31:07:757678,13,16,-1,5,5,-2,-12,2
22:31:07:763667,12,-21,-5,-3,-3,0,-2,1
22:31:07:771910,12,-21,-5,-3,-3,0,-2,1
22:31:07:772710,-4,-8,12,21,-7,-1,4,0
22:31:07:786135,15,34,-3,-2,-6,-2,3,0
22:31:07:794386,15,34,-3,-2,-6,-2,3,0
22:31:07:795226,14,-24,-9,-6,-4,-4,8,9
22:31:07:801222,1,-16,12,3,-3,-3,-2,4
22:31:07:808732,1,-16,12,3,-3,-3,-2,4
22:31:07:816210,15,15,10,7,5,7,5,-4
22:31:07:823697,-8,17,-9,0,10,1,-5,8
22:31:07:839393,-8,17,-9,0,10,1,-5,8
22:31:07:840221,-10,-8,-16,-5,-6,-1,7,-12
22:31:07:846225,-6,-18,6,8,1,1,4,6
22:31:07:854422,-6,-18,6,8,1,1,4,6
22:31:07:855191,1,-2,-7,6,3,2,-1,2
22:31:07:861226,-5,-5,-8,-3,-5,-12,4,-17
22:31:07:868731,-5,-5,-8,-3,-5,-12,4,-17
22:31:07:876234,-31,-46,-12,0,-3,-4,-2,-29
22:31:07:883668,-26,-21,-4,-16,-9,0,-5,-1
22:31:07:891857,-26,-21,-4,-16,-9,0,-5,-1
22:31:07:892655,0,16,3,-1,3,1,7,11
22:31:07:906216,-18,-13,-35,-6,-1,-2,-5,-6
22:31:07:914362,-18,-13,-35,-6,-1,-2,-5,-6
22:31:07:915186,1,28,7,-1,0,0,-8,3
22:31:07:921192,14,3,0,5,4,2,3,10
22:31:07:928686,14,3,0,5,4,2,3,10
22:31:07:936220,-6,4,12,-2,-1,-3,-6,-11
22:31:07:943682,19,26,17,1,-7,0,7,-2
22:31:07:951850,19,26,17,1,-7,0,7,-2
22:31:07:952660,-17,-7,-7,-5,-5,-2,11,1
22:31:07:966236,0,-27,10,13,6,0,-9,12
22:31:07:974346,0,-27,10,13,6,0,-9,12
22:31:07:975207,9,-27,-7,-7,1,1,-7,-2
22:31:07:981211,3,-18,-24,-11,0,-1,-2,-7
22:31:07:988705,3,-18,-24,-11,0,-1,-2,-7
22:31:07:996144,4,8,2,-1,-1,0,0,11
22:31:08:3617,14,16,7,13,7,2,-3,-7
22:31:08:11939,14,16,7,13,7,2,-3,-7
22:31:08:12682,-25,-39,-26,-6,-3,-5,-7,-9
22:31:08:26159,18,29,5,-17,-11,-3,-1,30
22:31:08:34377,18,29,5,-17,-11,-3,-1,30
22:31:08:35217,21,38,4,9,1,0,-9,-1
22:31:08:41139,21,65,18,-6,1,5,4,4
22:31:08:48723,21,65,18,-6,1,5,4,4
22:31:08:56219,5,5,15,3,-5,-5,-8,1
22:31:08:63651,-11,22,-1,10,7,2,-5,-3
22:31:08:71917,-11,22,-1,10,7,2,-5,-3
22:31:08:72689,-14,-7,-24,-12,0,-1,-2,-1
22:31:08:86146,19,-15,-5,-7,-5,-2,-8,-3
22:31:08:94419,19,-15,-5,-7,-5,-2,-8,-3
22:31:08:95204,-12,-1,-13,2,-2,-3,-2,3
22:31:08:109361,-10,-33,-14,-3,-5,0,-5,-31
22:31:08:110206,-10,-33,-14,-3,-5,0,-5,-31
22:31:08:116135,-16,-41,-6,-11,-5,-7,-1,-2
22:31:08:123651,-8,-2,9,4,1,-3,-3,-10
22:31:08:131224,-8,-2,9,4,1,-3,-3,-10
22:31:08:138681,26,45,16,-4,-3,3,-1,6
22:31:08:146245,-2,-7,-11,-10,0,1,11,-10
22:31:08:154378,-2,-7,-11,-10,0,1,11,-10
22:31:08:155229,-6,-21,-4,3,5,2,2,3
22:31:08:169379,1,-17,27,6,2,-2,12,11
22:31:08:170194,1,-17,27,6,2,-2,12,11
22:31:08:176216,6,10,13,9,4,4,7,4
22:31:08:183677,-8,-19,-3,-10,-5,-3,1,-1
22:31:08:191255,-8,-19,-3,-10,-5,-3,1,-1
22:31:08:198647,7,-9,-1,-1,0,0,6,-2
22:31:08:206208,-36,-26,-21,0,-2,-4,-4,6
22:31:08:214371,-36,-26,-21,0,-2,-4,-4,6
22:31:08:215194,3,11,-13,-16,-7,-3,-11,-17
22:31:08:229390,-20,7,-6,-4,-3,-5,-6,2
22:31:08:230197,-20,7,-6,-4,-3,-5,-6,2
22:31:08:236259,-4,-24,-26,5,2,2,1,-3
22:31:08:243676,-13,-10,5,6,1,-2,-6,-19
22:31:08:251235,-13,-10,5,6,1,-2,-6,-19
22:31:08:258689,-11,-30,0,-2,-3,1,-2,2
22:31:08:266229,8,-8,-16,2,0,4,-1,2
22:31:08:274373,8,-8,-16,2,0,4,-1,2
22:31:08:275219,4,14,-14,2,5,1,-4,-7
22:31:08:289357,9,18,-1,-15,-5,-2,-3,-3
22:31:08:290210,9,18,-1,-15,-5,-2,-3,-3
22:31:08:296214,-3,22,15,13,4,1,6,4
22:31:08:303697,-11,-18,-11,8,-1,-2,-3,-9
22:31:08:311223,-11,-18,-11,8,-1,-2,-3,-9
22:31:08:318665,-3,-1,10,10,4,-3,-3,0
22:31:08:326182,-7,-20,4,-2,-6,1,9,14
22:31:08:334381,-7,-20,4,-2,-6,1,9,14
22:31:08:335209,0,5,14,-10,-14,-6,-2,-8
22:31:08:349818,20,20,6,-3,-2,-1,-1,4
22:31:08:350637,20,20,6,-3,-2,-1,-1,4
22:31:08:364342,-10,17,3,2,-4,0,7,0
22:31:08:365219,12,22,-12,6,4,0,-12,10
22:31:08:371216,12,22,-12,6,4,0,-12,10
22:31:08:378637,10,-9,8,-20,-2,1,-10,-5
22:31:08:386174,3,4,3,-3,1,-2,-3,3
22:31:08:394370,3,4,3,-3,1,-2,-3,3
22:31:08:395197,7,-11,-6,14,-1,0,1,6
22:31:08:409368,15,14,27,12,5,3,5,7
22:31:08:410209,15,14,27,12,5,3,5,7
22:31:08:416186,6,-6,-5,-5,-8,-5,-9,-2
22:31:08:423641,0,-1,3,-22,-11,1,1,-13
22:31:08:431222,0,-1,3,-22,-11,1,1,-13
22:31:08:438661,27,43,26,2,3,4,5,12
22:31:08:455007,-14,-21,-15,-12,5,-2,-2,-14
22:31:08:455853,-14,-21,-15,-12,5,-2,-2,-14
22:31:08:456619,-7,-18,-6,0,-4,-5,-9,0
22:31:08:469364,9,12,-21,-1,1,-2,-1,-21
22:31:08:470213,9,12,-21,-1,1,-2,-1,-21
22:31:08:476224,4,-25,-6,-12,2,2,3,8
22:31:08:483677,-5,-21,9,0,0,1,-1,-7
22:31:08:499371,-5,-21,9,0,0,1,-1,-7
22:31:08:500210,-5,8,11,-9,4,-1,5,2
22:31:08:506241,6,13,-12,6,-2,0,-2,2
22:31:08:514516,6,13,-12,6,-2,0,-2,2
22:31:08:515188,-16,-27,5,16,5,-3,5,2
22:31:08:529337,-9,25,-11,-5,3,4,3,10
22:31:08:530231,-9,25,-11,-5,3,4,3,10
22:31:08:552571,-25,-30,-19,-2,-5,-3,-5,-22
22:31:08:553324,-2,9,-15,3,-3,-4,-7,-6
22:31:08:554238,-2,9,-15,3,-3,-4,-7,-6
22:31:08:558683,-2,26,-1,-3,-1,1,-2,1
22:31:08:566156,-1,-36,5,-3,-10,-7,0,2
22:31:08:574397,-1,-36,5,-3,-10,-7,0,2
22:31:08:575211,10,-10,10,-3,-4,-2,-1,-1
22:31:08:589396,-32,-47,36,-5,-1,-3,-9,-15
22:31:08:590206,-32,-47,36,-5,-1,-3,-9,-15
22:31:08:596218,16,29,11,0,-4,-3,-2,-16
22:31:08:603644,24,28,15,9,-1,-1,5,9
22:31:08:611224,24,28,15,9,-1,-1,5,9
22:31:08:618662,17,19,7,15,-1,-1,0,7
22:31:08:626225,12,-12,-2,5,-2,-2,-1,5
22:31:08:634356,12,-12,-2,5,-2,-2,-1,5
22:31:08:635433,-13,0,-24,-12,-4,-4,-9,-3
22:31:08:649393,-37,17,10,-8,4,3,0,-6
22:31:08:650215,-37,17,10,-8,4,3,0,-6
22:31:08:656225,-42,-25,-20,4,9,6,1,1
22:31:08:663701,21,3,-16,14,3,2,5,-8
22:31:08:671241,21,3,-16,14,3,2,5,-8
22:31:08:678660,8,-3,6,-11,-5,-4,-1,-3
22:31:08:686213,-6,8,-17,-20,-18,-7,-8,11
22:31:08:694343,-6,8,-17,-20,-18,-7,-8,11
22:31:08:695228,-20,-28,-33,-24,-4,-1,5,0
22:31:08:709315,-5,-9,-16,-15,7,6,7,9
22:31:08:710215,-5,-9,-16,-15,7,6,7,9
22:31:08:716210,22,1,-5,4,5,1,-5,7
22:31:08:723701,12,19,-6,15,20,9,2,6
22:31:08:731257,12,19,-6,15,20,9,2,6
22:31:08:738681,-2,2,-1,-13,-5,-3,-1,-3
22:31:08:746228,-27,-42,-12,-18,-13,-7,-6,-1
22:31:08:754376,-27,-42,-12,-18,-13,-7,-6,-1
22:31:08:755206,6,28,-3,4,-4,-2,-6,-6
22:31:08:769352,18,-11,2,2,2,0,5,7
22:31:08:770225,18,-11,2,2,2,0,5,7
22:31:08:776146,-15,-1,8,-14,-8,-1,-2,-9
22:31:08:783706,-2,5,22,10,-1,-2,1,3
22:31:08:791227,-2,5,22,10,-1,-2,1,3
22:31:08:798667,-3,-10,13,19,3,1,2,-2
22:31:08:806142,-1,21,4,-3,-1,2,9,-5
22:31:08:814370,-1,21,4,-3,-1,2,9,-5
22:31:08:815215,18,1,15,15,-1,-2,-3,5
22:31:08:829352,-1,35,0,4,-9,-8,0,2
22:31:08:830203,-1,35,0,4,-9,-8,0,2
22:31:08:836141,-26,-68,-31,-7,-6,-5,-4,-7
22:31:08:843647,38,32,-8,-5,-8,-2,1,7
22:31:08:851233,38,32,-8,-5,-8,-2,1,7
22:31:08:858659,-24,1,-14,-21,-9,-4,-7,-19
22:31:08:866148,-6,-13,-37,-20,5,4,-2,-13
22:31:08:874416,-6,-13,-37,-20,5,4,-2,-13
22:31:08:875211,0,5,6,5,3,-2,3,9
22:31:08:889382,-4,11,4,14,2,5,3,4
22:31:08:890239,-4,11,4,14,2,5,3,4
22:31:08:896231,7,18,12,-1,4,1,1,-5
22:31:08:903629,5,9,-8,6,4,-6,-10,-2
22:31:08:911245,5,9,-8,6,4,-6,-10,-2
22:31:08:918686,13,4,3,3,-1,4,8,1
22:31:08:926235,12,4,-2,-18,-9,-1,0,-4
22:31:08:934336,12,4,-2,-18,-9,-1,0,-4
22:31:08:935225,31,19,-4,4,3,-2,-15,2
22:31:08:949374,-19,-19,17,9,-2,0,3,-6
22:31:08:950201,-19,-19,17,9,-2,0,3,-6
22:31:08:956229,-6,-13,6,-4,1,-1,-4,0
22:31:08:963680,6,8,11,9,0,-5,-3,5
22:31:08:971233,6,8,11,9,0,-5,-3,5
22:31:08:978701,-18,-36,6,-18,2,5,1,-5
22:31:08:986232,10,7,-23,-16,3,2,10,5
22:31:08:994347,10,7,-23,-16,3,2,10,5
22:31:08:995210,-7,11,-4,7,-4,-8,-12,2
22:31:09:9341,-17,-24,3,0,-3,-3,-1,-6
22:31:09:10227,-17,-24,3,0,-3,-3,-1,-6
22:31:09:16220,-3,-8,7,4,1,5,18,-7
22:31:09:31877,19,-22,-2,13,7,-2,-25,-2
22:31:09:32688,19,-22,-2,13,7,-2,-25,-2
22:31:09:38663,0,9,4,-1,-2,0,-2,14
22:31:09:46233,-2,-2,27,-13,-9,-1,7,3
22:31:09:53691,-2,-2,27,-13,-9,-1,7,3
22:31:09:61210,-2,-9,-2,11,-6,-1,1,-15
22:31:09:69360,-12,-17,-10,-13,4,4,3,-1
22:31:09:70211,-12,-17,-10,-13,4,4,3,-1
22:31:09:76157,2,29,-23,-10,-3,-3,5,10
22:31:09:91831,-18,-1,-23,13,10,0,-6,-14
22:31:09:92671,-18,-1,-23,13,10,0,-6,-14
22:31:09:98697,8,-37,11,4,5,3,-12,-1
22:31:09:106205,-5,1,16,-1,-11,-6,0,10
22:31:09:113715,-5,1,16,-1,-11,-6,0,10
22:31:09:121149,13,22,1,7,3,-2,-13,13
22:31:09:129351,-14,-5,-3,-12,-7,2,5,-23
22:31:09:130210,-14,-5,-3,-12,-7,2,5,-23
22:31:09:136198,-28,4,16,-2,-3,2,20,6
22:31:09:151865,-9,1,2,1,-8,-4,-13,-8
22:31:09:152659,-9,1,2,1,-8,-4,-13,-8
22:31:09:158658,0,-28,-2,-14,2,0,3,9
22:31:09:166152,-1,-30,7,9,3,-6,2,-2
22:31:09:173726,-1,-30,7,9,3,-6,2,-2
22:31:09:181171,13,12,-32,-10,-9,-7,-14,-4
22:31:09:189373,-20,14,4,1,-11,-5,-9,4
22:31:09:190219,-20,14,4,1,-11,-5,-9,4
22:31:09:196234,-42,-67,-4,-1,3,3,15,-15
22:31:09:211853,30,19,17,17,7,-3,-29,-23
22:31:09:212713,30,19,17,17,7,-3,-29,-23
22:31:09:218645,16,39,18,16,-3,-4,3,6
22:31:09:226153,7,38,3,-9,11,6,14,13
22:31:09:233760,7,38,3,-9,11,6,14,13
22:31:09:241236,5,31,-18,-22,-7,-1,-5,5
22:31:09:249376,-4,17,7,13,6,1,5,4
22:31:09:250236,-4,17,7,13,6,1,5,4
22:31:09:256219,-10,0,-7,6,3,-4,-12,-15
22:31:09:272578,12,-2,-3,-8,0,4,8,15
22:31:09:273360,12,-2,-3,-8,0,4,8,15
22:31:09:278681,0,7,7,3,1,-3,2,-5
22:31:09:286217,19,1,-14,5,-2,-5,-4,10
22:31:09:293749,19,1,-14,5,-2,-5,-4,10
22:31:09:301227,-2,13,10,4,-2,2,-3,-3
22:31:09:309318,-27,-51,-20,-2,-6,-1,4,-6
22:31:09:310223,-27,-51,-20,-2,-6,-1,4,-6
22:31:09:316220,15,36,9,-4,-12,-3,13,6
22:31:09:331860,-15,-20,16,-2,0,-1,-10,-3
22:31:09:332669,-15,-20,16,-2,0,-1,-10,-3
22:31:09:338684,-4,-15,-5,-6,8,2,2,5
22:31:09:354377,0,-6,-1,0,-6,-4,-4,-2
22:31:09:355220,0,-6,-1,0,-6,-4,-4,-2
22:31:09:361222,3,29,44,13,5,2,1,3
22:31:09:369381,10,-3,-14,2,3,1,9,-6
22:31:09:370221,10,-3,-14,2,3,1,9,-6
22:31:09:376205,2,-15,-6,-3,-8,-2,-7,5
22:31:09:391888,6,-6,-22,1,-4,-2,-2,7
22:31:09:392714,6,-6,-22,1,-4,-2,-2,7
22:31:09:398663,11,26,-9,-13,-3,-2,-9,0
22:31:09:406220,-3,-7,0,-15,-4,-2,-11,-2
22:31:09:413770,-3,-7,0,-15,-4,-2,-11,-2
22:31:09:421254,-27,-59,-29,2,4,1,13,9
22:31:09:429332,-19,-10,-15,4,2,2,-1,-6
22:31:09:430224,-19,-10,-15,4,2,2,-1,-6
22:31:09:436220,21,26,-2,11,2,-4,-18,-6
22:31:09:451823,14,11,26,0,-2,3,6,0
22:31:09:452661,14,11,26,0,-2,3,6,0
22:31:09:458684,-9,-19,-5,-2,3,3,12,-11
22:31:09:466232,-12,7,-4,-11,4,-3,-6,1
22:31:09:473732,-12,7,-4,-11,4,-3,-6,1
22:31:09:481237,-5,-27,17,8,8,6,4,1
22:31:09:489365,15,-14,-5,-15,-4,1,1,-7
22:31:09:490217,15,-14,-5,-15,-4,1,1,-7
22:31:09:496153,-27,-52,-24,-14,-8,-7,-1,-1
22:31:09:511827,-4,6,6,6,3,1,4,11
22:31:09:512669,-4,6,6,6,3,1,4,11
22:31:09:518688,8,25,-1,4,2,-1,-8,-17
22:31:09:526205,-1,5,-5,13,3,-4,-19,-18
22:31:09:533728,-1,5,-5,13,3,-4,-19,-18
22:31:09:541138,16,22,-4,-3,-2,0,-2,9
22:31:09:549350,-5,18,3,-8,-1,3,8,-4
22:31:09:550216,-5,18,3,-8,-1,3,8,-4
22:31:09:556144,9,-5,-30,-8,-8,-3,-3,2
22:31:09:571875,3,-25,-11,2,3,-4,7,4
22:31:09:572674,3,-25,-11,2,3,-4,7,4
22:31:09:578674,-2,4,-27,1,1,5,13,6
22:31:09:586164,-13,1,4,4,-5,-5,-10,17
22:31:09:593731,-13,1,4,4,-5,-5,-10,17
22:31:09:601162,13,26,16,-8,-1,-3,-10,-7
22:31:09:609387,-13,-2,6,7,0,0,-8,-22
22:31:09:610242,-13,-2,6,7,0,0,-8,-22
22:31:09:616247,5,26,68,12,-1,0,12,-2
22:31:09:631850,17,28,8,1,0,4,15,13
22:31:09:632715,17,28,8,1,0,4,15,13
22:31:09:638662,-9,-9,3,-6,-4,-3,-9,-11
22:31:09:646132,-3,27,6,-1,0,1,7,3
22:31:09:653787,-3,27,6,-1,0,1,7,3
22:31:09:661244,-9,-58,-21,2,-1,1,-5,8
22:31:09:669366,-12,19,-9,-26,-4,-2,-3,-14
22:31:09:670218,-12,19,-9,-26,-4,-2,-3,-14
22:31:09:676241,-8,20,19,14,5,-2,4,4
22:31:09:691873,-10,-6,-2,2,-2,1,6,6
22:31:09:692714,-10,-6,-2,2,-2,1,6,6
22:31:09:698678,3,-2,-5,-1,-2,-3,-1,-3
22:31:09:706238,-8,-25,-9,-7,-9,-3,-4,-25
22:31:09:713778,-8,-25,-9,-7,-9,-3,-4,-25
22:31:09:721237,14,-16,-8,2,0,1,-19,2
22:31:09:729330,-13,-30,2,10,2,-5,-15,-6
22:31:09:730229,-13,-30,2,10,2,-5,-15,-6
22:31:09:736234,2,12,13,-2,-1,4,10,8
22:31:09:751836,2,25,-7,8,0,-4,-2,1
22:31:09:752659,2,25,-7,8,0,-4,-2,1
22:31:09:758664,-7,-3,19,-6,0,0,0,-16
22:31:09:766232,8,-6,-22,7,9,5,5,15
22:31:09:773700,8,-6,-22,7,9,5,5,15
22:31:09:781131,-9,0,-7,18,0,-6,-3,-16
22:31:09:789358,23,3,7,-5,-5,-2,7,-2
22:31:09:790206,23,3,7,-5,-5,-2,7,-2
22:31:09:796175,-3,-10,-22,-8,-4,-1,8,4
22:31:09:811851,6,4,15,2,7,-1,-5,8
22:31:09:812682,6,4,15,2,7,-1,-5,8
22:31:09:818639,-11,-25,-32,-10,-3,-4,-3,-10
22:31:09:826234,3,24,14,4,-4,-5,-3,12
22:31:09:833714,3,24,14,4,-4,-5,-3,12
22:31:09:841178,-7,16,-10,-7,2,1,-8,-18
22:31:09:857534,-7,16,-10,-7,2,1,-8,-18
22:31:09:858377,-9,-12,-4,16,12,4,0,8
22:31:09:859144,2,-17,8,-4,-2,-10,-20,-3
22:31:09:871857,2,-17,8,-4,-2,-10,-20,-3
22:31:09:872641,9,20,-5,1,-4,3,9,8
22:31:09:878691,-29,-51,23,-26,-12,-2,-4,-21
22:31:09:894412,-29,-51,23,-26,-12,-2,-4,-21
22:31:09:895226,8,29,39,-18,-14,-1,2,-15
22:31:09:901266,10,16,-3,-10,-9,-2,-2,1
22:31:09:909365,10,16,-3,-10,-9,-2,-2,1
22:31:09:910228,0,-14,-25,-2,-7,-5,-5,8
22:31:09:916253,-5,33,4,23,-7,-9,-3,22
22:31:09:931855,-5,33,4,23,-7,-9,-3,22
22:31:09:932650,26,23,-4,-8,10,-2,1,19
22:31:09:938688,1,-8,-22,-17,4,3,-10,-23
22:31:09:954397,1,-8,-22,-17,4,3,-10,-23
22:31:09:955218,-19,-18,5,9,-3,-3,4,2
22:31:09:961153,16,33,-22,17,6,3,9,19
22:31:09:969380,16,33,-22,17,6,3,9,19
22:31:09:970214,-4,-12,-17,0,-4,-4,-9,1
22:31:09:976251,-22,-19,0,2,-3,-3,4,-2
22:31:09:991929,-22,-19,0,2,-3,-3,4,-2
22:31:09:992701,-4,-20,-36,-4,-14,-8,-11,8
22:31:09:998661,-32,-53,-10,-41,-16,-8,-1,-3
22:31:10:14411,-32,-53,-10,-41,-16,-8,-1,-3
22:31:10:15230,-36,21,-4,5,1,-3,-8,-30
22:31:10:21150,13,9,-10,33,15,9,10,25
22:31:10:29428,13,9,-10,33,15,9,10,25
22:31:10:30230,29,28,13,-8,-13,-7,-1,-4
22:31:10:43651,3,0,-10,-21,9,2,3,14
22:31:10:51875,3,0,-10,-21,9,2,3,14
22:31:10:52698,-37,-87,-1,9,-3,-2,-4,6
22:31:10:58651,11,-28,33,0,2,7,3,-32
22:31:10:74393,11,-28,33,0,2,7,3,-32
22:31:10:75233,17,50,11,3,9,1,-3,-10
22:31:10:81174,32,-11,7,5,-5,-3,0,37
22:31:10:89763,32,-11,7,5,-5,-3,0,37
22:31:10:96154,-25,-61,10,-28,-14,-4,-9,-39
22:31:10:103656,22,35,-2,13,0,-4,-3,2
22:31:10:111933,22,35,-2,13,0,-4,-3,2
22:31:10:112751,-40,-93,-23,8,11,2,0,14
22:31:10:118694,-28,28,-17,-11,6,4,-3,-20
22:31:10:134887,-28,28,-17,-11,6,4,-3,-20
22:31:10:135655,-23,-46,-21,1,-4,-1,-3,-6
22:31:10:141137,28,64,0,-8,13,8,-1,-3
22:31:10:149396,28,64,0,-8,13,8,-1,-3
22:31:10:150223,36,61,36,7,4,9,7,12
22:31:10:163668,-10,-3,4,7,-5,-3,1,-22
22:31:10:171911,-10,-3,4,7,-5,-3,1,-22
22:31:10:172699,17,7,2,-14,-6,1,1,-1
22:31:10:178656,19,0,-9,-24,-9,-1,0,16
22:31:10:194442,19,0,-9,-24,-9,-1,0,16
22:31:10:195226,-62,-25,14,-1,-1,0,1,-4
22:31:10:201175,48,56,16,5,-5,0,2,19
22:31:10:209382,48,56,16,5,-5,0,2,19
22:31:10:210407,21,-22,0,-10,-3,0,-3,-11
22:31:10:223659,-22,-16,2,-9,-17,-10,-1,-1
22:31:10:231921,-22,-16,2,-9,-17,-10,-1,-1
22:31:10:232691,34,73,25,19,7,7,12,19
22:31:10:238670,-26,-51,-6,23,9,-8,-22,-17
22:31:10:254397,-26,-51,-6,23,9,-8,-22,-17
22:31:10:255229,6,28,-21,8,19,5,12,-4
22:31:10:261159,1,52,24,27,0,5,14,12
22:31:10:269411,1,52,24,27,0,5,14,12
22:31:10:270235,53,39,-19,-9,-10,-7,-11,-21
22:31:10:283652,-2,-10,-7,13,1,-2,4,4
22:31:10:291892,-2,-10,-7,13,1,-2,4,4
22:31:10:292675,11,-42,-34,-25,-7,-2,-6,-17
22:31:10:298705,3,-18,-2,8,13,4,1,10
22:31:10:314377,3,-18,-2,8,13,4,1,10
22:31:10:315246,-24,-85,-20,-14,8,3,10,7
22:31:10:321154,-68,-68,-38,-20,-13,-3,-4,-4
22:31:10:329423,-68,-68,-38,-20,-13,-3,-4,-4
22:31:10:330236,6,65,19,14,-5,-5,-4,6
22:31:10:343632,15,-12,8,14,11,3,-1,-9
22:31:10:351868,15,-12,8,14,11,3,-1,-9
22:31:10:352667,8,27,21,-4,-6,-3,1,14
22:31:10:358656,-15,11,21,-3,-5,-4,-6,-21
22:31:10:374374,-15,11,21,-3,-5,-4,-6,-21
22:31:10:375230,-9,-3,0,0,-1,-2,-7,5
22:31:10:381166,19,27,-2,-1,1,2,3,-1
22:31:10:389367,19,27,-2,-1,1,2,3,-1
22:31:10:390253,-20,11,28,20,10,4,5,13
22:31:10:403696,2,-10,-8,-35,-7,-1,5,-3
22:31:10:411888,2,-10,-8,-35,-7,-1,5,-3
22:31:10:412653,-52,-12,12,-3,-9,-5,-16,-24
22:31:10:418673,-9,-13,5,6,-1,-2,-4,-9
22:31:10:434357,-9,-13,5,6,-1,-2,-4,-9
22:31:10:435145,5,-6,-37,-21,-9,2,3,-5
22:31:10:441246,8,16,-6,-2,-2,-3,-2,17
22:31:10:449403,8,16,-6,-2,-2,-3,-2,17
22:31:10:450267,1,-18,-6,-10,-8,-6,-21,-5
22:31:10:463679,7,8,-20,1,0,2,3,-11
22:31:10:471872,7,8,-20,1,0,2,3,-11
22:31:10:472645,12,-8,-2,-1,2,1,5,-8
22:31:10:478689,-18,10,4,7,-1,-2,-1,8
22:31:10:494345,-18,10,4,7,-1,-2,-1,8
22:31:10:495225,5,-13,8,3,-1,-1,-2,-9
22:31:10:501228,-8,21,8,-1,-2,-1,-3,-5
22:31:10:509350,-8,21,8,-1,-2,-1,-3,-5
22:31:10:510264,22,46,13,8,4,4,9,17
22:31:10:523659,2,-13,4,-4,-2,1,2,-1
22:31:10:531842,2,-13,4,-4,-2,1,2,-1
22:31:10:532660,-2,-17,7,3,5,0,1,-5
22:31:10:538711,5,2,11,5,-1,-3,-4,11
22:31:10:554411,5,2,11,5,-1,-3,-4,11
22:31:10:555257,-4,-5,-1,-1,0,0,-4,-21
22:31:10:561166,-5,-21,-22,-30,-9,-1,-7,-6
22:31:10:569376,-5,-21,-22,-30,-9,-1,-7,-6
22:31:10:570234,9,28,0,-3,-3,-3,3,9
22:31:10:583687,-9,-31,-16,8,3,-1,3,-12
22:31:10:591892,-9,-31,-16,8,3,-1,3,-12
22:31:10:592714,6,-4,-1,-5,0,0,-1,0
22:31:10:598683,3,-3,-4,-19,-11,-5,-5,0
22:31:10:614407,3,-3,-4,-19,-11,-5,-5,0
22:31:10:615219,11,19,-1,11,-4,-6,-6,-12
22:31:10:621181,-26,20,0,21,6,2,-2,-15
22:31:10:629405,-26,20,0,21,6,2,-2,-15
22:31:10:630235,3,3,-14,0,-4,-2,1,10
22:31:10:643689,15,-13,-1,14,1,-1,1,1
22:31:10:651899,15,-13,-1,14,1,-1,1,1
22:31:10:652721,-9,-11,4,-23,4,5,1,0
22:31:10:658670,6,22,19,-9,-3,-4,-1,8
22:31:10:674402,6,22,19,-9,-3,-4,-1,8
22:31:10:675230,-8,-37,-34,-5,-5,-5,1,-6
22:31:10:681168,21,25,-8,-4,0,4,9,10
22:31:10:689393,21,25,-8,-4,0,4,9,10
22:31:10:690240,-19,-28,9,-8,-9,-6,-8,-8
22:31:10:703624,2,-3,-18,-14,2,-1,-2,1
22:31:10:711886,2,-3,-18,-14,2,-1,-2,1
22:31:10:712694,-9,-18,-24,1,12,5,4,8
22:31:10:718672,3,-3,-13,3,1,0,0,1
22:31:10:734408,3,-3,-13,3,1,0,0,1
22:31:10:735237,-4,3,-25,6,-7,-5,-5,-4
22:31:10:741166,3,4,28,-14,6,0,1,3
22:31:10:749396,3,4,28,-14,6,0,1,3
22:31:10:750224,-23,-23,-68,-39,-8,-5,-3,-13
22:31:10:763650,9,30,24,29,-4,-4,0,3
22:31:10:771851,9,30,24,29,-4,-4,0,3
22:31:10:772698,-19,13,9,-17,-9,-2,-2,2
22:31:10:778679,0,-5,11,9,2,2,-1,3
22:31:10:794388,0,-5,11,9,2,2,-1,3
22:31:10:795226,18,60,36,29,10,7,11,15
22:31:10:801136,-29,-38,-6,0,-8,-9,-12,-21
22:31:10:809394,-29,-38,-6,0,-8,-9,-12,-21
22:31:10:810230,15,5,18,5,-4,-4,-5,5
22:31:10:823706,0,-9,-4,-10,-3,3,4,-5
22:31:10:831864,0,-9,-4,-10,-3,3,4,-5
22:31:10:832688,6,-6,12,21,2,-4,-1,-3
22:31:10:838644,2,-19,-5,-6,-10,-6,-4,0
22:31:10:862578,2,-19,-5,-6,-10,-6,-4,0
22:31:10:863373,36,42,10,19,10,2,1,-6
22:31:10:864225,-74,-67,-17,-11,-4,-7,-10,-25
22:31:10:869337,-74,-67,-17,-11,-4,-7,-10,-25
22:31:10:870259,0,-3,-6,-5,-4,1,1,15
22:31:10:883684,26,35,-3,-18,8,8,4,12
22:31:10:891912,26,35,-3,-18,8,8,4,12
22:31:10:892692,-37,9,28,12,1,-7,-7,-8
22:31:10:898668,34,22,12,28,1,3,5,31
22:31:10:914431,34,22,12,28,1,3,5,31
22:31:10:915218,-14,-48,13,-7,4,1,-5,-31
22:31:10:921165,0,10,1,-7,-3,-2,-2,-10
22:31:10:929396,0,10,1,-7,-3,-2,-2,-10
22:31:10:930230,14,3,11,3,-3,0,4,15
22:31:10:943668,7,-9,6,-52,-21,-2,-5,-8
22:31:10:951951,7,-9,6,-52,-21,-2,-5,-8
22:31:10:952707,-17,-39,-30,-40,-4,1,-2,-10
22:31:10:966184,22,30,1,15,5,2,4,10
22:31:10:974417,22,30,1,15,5,2,4,10
22:31:10:975244,-38,-43,-9,6,-8,-4,-4,-5
22:31:10:981181,7,56,-3,-25,-1,4,2,2
22:31:10:988770,7,56,-3,-25,-1,4,2,2
22:31:10:996212,11,-1,-22,9,6,1,-6,-4
22:31:11:3667,-16,-11,9,28,4,-3,-7,-12
22:31:11:11855,-16,-11,9,28,4,-3,-7,-12
22:31:11:12651,26,38,17,7,5,2,5,5
22:31:11:26184,-20,-9,-8,22,9,-4,-5,-1
22:31:11:34414,-20,-9,-8,22,9,-4,-5,-1
22:31:11:35244,-1,-4,-3,-32,-4,-2,-4,-5
22:31:11:41190,1,-6,7,25,5,-2,2,7
22:31:11:48685,1,-6,7,25,5,-2,2,7
22:31:11:56231,-6,-3,-16,12,10,2,1,8
22:31:11:63706,-7,-31,-18,-24,6,0,-6,-5
22:31:11:71860,-7,-31,-18,-24,6,0,-6,-5
22:31:11:72663,22,4,-8,5,-6,1,5,18
22:31:11:86170,-5,-9,-9,3,9,6,-4,-51
22:31:11:94415,-5,-9,-9,3,9,6,-4,-51
22:31:11:95194,8,24,24,18,4,0,1,-1
22:31:11:101282,19,17,33,7,-2,-1,-2,21
22:31:11:108715,19,17,33,7,-2,-1,-2,21
22:31:11:116144,-5,5,-11,18,9,6,3,3
22:31:11:123698,26,-16,-36,-2,-2,-3,0,10
22:31:11:131889,26,-16,-36,-2,-2,-3,0,10
22:31:11:132668,-10,-18,-1,-8,-12,-2,1,3
22:31:11:146269,-7,-1,-35,-1,1,-1,1,-4
22:31:11:154387,-7,-1,-35,-1,1,-1,1,-4
22:31:11:155240,21,15,17,3,-2,-4,-6,-2
22:31:11:161161,14,16,-7,-11,-3,5,8,22
22:31:11:168732,14,16,-7,-11,-3,5,8,22
22:31:11:176156,-37,-32,15,-13,-6,-5,-12,-14
22:31:11:183656,10,-15,42,10,-10,-1,6,4
22:31:11:192303,10,-15,42,10,-10,-1,6,4
22:31:11:198692,4,34,-11,-13,-12,-6,2,-13
22:31:11:206171,16,15,-33,-1,-1,0,-1,0
22:31:11:214428,16,15,-33,-1,-1,0,-1,0
22:31:11:215240,-27,-59,-25,-11,-11,-5,-7,7
22:31:11:221195,-41,-6,-10,-23,-9,-7,-8,-31
22:31:11:228767,-41,-6,-10,-23,-9,-7,-8,-31
22:31:11:236246,26,-10,15,33,8,0,-2,1
22:31:11:243677,-24,-79,15,-5,10,-2,-5,-19
22:31:11:251850,-24,-79,15,-5,10,-2,-5,-19
22:31:11:252663,5,9,-4,-20,-10,-3,8,3
22:31:11:266183,-12,9,2,1,3,2,3,11
22:31:11:274385,-12,9,2,1,3,2,3,11
22:31:11:275138,27,62,-23,18,2,2,-6,-33
22:31:11:281181,15,65,8,32,4,0,5,16
22:31:11:288714,15,65,8,32,4,0,5,16
22:31:11:296242,17,31,26,-4,-7,-8,-4,4
22:31:11:303701,29,30,4,-19,1,-1,4,8
22:31:11:312078,29,30,4,-19,1,-1,4,8
22:31:11:312677,-26,-50,-21,-19,-4,0,-6,-4
22:31:11:326198,21,-26,10,4,-6,1,2,26
22:31:11:334387,21,-26,10,4,-6,1,2,26
22:31:11:335256,-29,-71,-57,-25,-2,6,14,1
22:31:11:341264,-11,-14,-11,0,-8,-5,-9,-9
22:31:11:348742,-11,-14,-11,0,-8,-5,-9,-9
22:31:11:356167,14,-23,3,-18,4,5,17,35
22:31:11:363661,-18,41,6,6,-7,-11,-19,-34
22:31:11:371885,-18,41,6,6,-7,-11,-19,-34
22:31:11:372696,-31,3,16,18,2,-2,-4,-31
22:31:11:386168,42,1,44,10,8,8,12,17
22:31:11:394789,42,1,44,10,8,8,12,17
22:31:11:401837,-13,-11,7,-9,-2,-10,-15,-14
22:31:11:402625,7,30,-13,-12,2,5,15,8
22:31:11:408721,7,30,-13,-12,2,5,15,8
22:31:11:416193,-16,-23,24,-8,2,1,0,7
22:31:11:423650,-13,-16,-4,-6,-12,-11,-10,-2
22:31:11:431913,-13,-16,-4,-6,-12,-11,-10,-2
22:31:11:432690,-1,19,8,-4,-8,-3,-3,-3
22:31:11:446142,-7,-51,-22,-19,-8,-1,6,-4
22:31:11:454410,-7,-51,-22,-19,-8,-1,6,-4
22:31:11:455240,-20,-32,22,22,1,2,5,-7
22:31:11:461171,-31,-2,-24,-4,-5,0,-10,-14
22:31:11:468746,-31,-2,-24,-4,-5,0,-10,-14
22:31:11:476174,16,38,-28,-29,-14,-6,1,1
22:31:11:483651,-13,8,-33,10,3,0,0,12
22:31:11:499394,-13,8,-33,10,3,0,0,12
22:31:11:500211,26,26,26,20,-6,0,-4,13
22:31:11:506142,-35,2,7,-22,-6,-9,-12,-4
22:31:11:514395,-35,2,7,-22,-6,-9,-12,-4
22:31:11:515222,-4,-7,2,3,4,-2,0,-4
22:31:11:521168,12,16,22,10,0,1,0,16
22:31:11:528776,12,16,22,10,0,1,0,16
22:31:11:536194,22,56,9,27,19,5,-5,-21
22:31:11:543684,-30,-87,-34,-19,-8,-7,-3,-21
22:31:11:551863,-30,-87,-34,-19,-8,-7,-3,-21
22:31:11:552688,21,2,-2,3,6,2,4,28
22:31:11:566211,1,10,-4,-1,2,3,-3,-20
22:31:11:574419,1,10,-4,-1,2,3,-3,-20
22:31:11:575272,12,38,-12,-9,-8,-3,-5,3
22:31:11:581185,4,-3,27,15,-4,-3,1,3
22:31:11:588704,4,-3,27,15,-4,-3,1,3
22:31:11:596241,4,15,3,21,30,10,5,8
22:31:11:603834,13,34,37,8,3,1,2,12
22:31:11:611909,13,34,37,8,3,1,2,12
22:31:11:612654,-13,-1,31,-27,-15,-7,-7,-12
22:31:11:626196,-4,-11,-11,-3,17,4,1,-12
22:31:11:642552,-4,-11,-11,-3,17,4,1,-12
22:31:11:643363,-11,-11,-17,11,-6,-3,6,18
22:31:11:644227,13,2,6,5,-9,-3,-6,-4
22:31:11:648688,13,2,6,5,-9,-3,-6,-4
22:31:11:656256,4,5,24,-6,7,4,-1,-7
22:31:11:663664,-17,-9,-34,15,4,0,2,4
22:31:11:671868,-17,-9,-34,15,4,0,2,4
22:31:11:672667,-15,-12,21,11,-1,0,0,4
22:31:11:686190,21,9,18,-3,11,3,-6,-1
22:31:11:694355,21,9,18,-3,11,3,-6,-1
22:31:11:695146,-12,9,-36,-7,-6,-1,5,4
22:31:11:701177,3,10,-6,6,-4,-1,6,6
22:31:11:708725,3,10,-6,6,-4,-1,6,6
22:31:11:716143,-7,-13,-8,5,1,-3,-4,-10
22:31:11:732553,-18,-68,-65,-54,-7,3,-9,-15
22:31:11:733346,-18,-68,-65,-54,-7,3,-9,-15
22:31:11:734142,-9,-16,-29,-19,-14,-4,-1,-7
22:31:11:746194,18,54,5,13,-9,-3,5,18
22:31:11:754419,18,54,5,13,-9,-3,5,18
22:31:11:755254,63,53,0,6,-8,-5,-5,-9
22:31:11:761201,-19,-72,10,-21,-11,-5,-11,-15
22:31:11:777070,-19,-72,10,-21,-11,-5,-11,-15
22:31:11:777704,13,23,6,-1,-3,-4,-2,7
22:31:11:783700,8,9,-10,9,1,0,2,3
22:31:11:791908,8,9,-10,9,1,0,2,3
22:31:11:792728,4,-24,10,-7,1,-1,-5,-7
22:31:11:806174,-1,49,56,29,12,2,8,5
22:31:11:814404,-1,49,56,29,12,2,8,5
22:31:11:815246,0,23,14,28,6,-3,-4,5
22:31:11:821198,0,-13,-6,9,-3,-5,1,6
22:31:11:828790,0,-13,-6,9,-3,-5,1,6
22:31:11:836179,-53,-67,-2,-4,-1,-3,-6,-19
22:31:11:843680,23,53,34,-22,-9,0,-1,8
22:31:11:851901,23,53,34,-22,-9,0,-1,8
22:31:11:852651,-31,-39,-27,-16,-3,1,3,4
22:31:11:866189,-10,-19,-17,6,3,-2,-7,-11
22:31:11:874439,-10,-19,-17,6,3,-2,-7,-11
22:31:11:875284,8,8,26,1,18,10,7,6
22:31:11:881183,-6,28,-29,-6,-4,-1,2,-3
22:31:11:888712,-6,28,-29,-6,-4,-1,2,-3
22:31:11:896304,6,-50,-47,-12,-7,-3,-3,6
22:31:11:903688,-17,-35,-9,-4,-4,-5,-6,-3
22:31:11:919421,-17,-35,-9,-4,-4,-5,-6,-3
22:31:11:920272,13,38,-40,-26,3,2,-1,-3
22:31:11:926202,-28,-23,-9,-10,-10,-6,0,-7
22:31:11:934358,-28,-23,-9,-10,-10,-6,0,-7
22:31:11:935137,5,28,0,-3,-8,-7,-6,-9
22:31:11:949393,21,24,-6,-1,0,4,1,4
22:31:11:950261,21,24,-6,-1,0,4,1,4
22:31:11:964353,-4,-6,33,33,-5,-7,-2,2
22:31:11:965142,14,23,19,6,-6,-6,1,-1
22:31:11:971270,14,23,19,6,-6,-6,1,-1
22:31:11:978716,3,-15,12,7,5,4,-2,3
22:31:11:986170,15,8,42,18,8,1,-1,7
22:31:11:994421,15,8,42,18,8,1,-1,7
22:31:11:995238,-37,-25,-14,-11,2,0,-1,-14
22:31:12:9365,11,27,-16,17,4,5,3,8
22:31:12:10233,11,27,-16,17,4,5,3,8
22:31:12:16186,-16,-27,19,-4,-6,-2,-1,-16
22:31:12:23677,-28,-31,-5,-1,-8,-4,0,-5
22:31:12:31263,-28,-31,-5,-1,-8,-4,0,-5
22:31:12:38688,17,19,-26,-14,-2,2,7,15
22:31:12:46178,-10,-3,-6,8,-3,-1,1,-1
22:31:12:54357,-10,-3,-6,8,-3,-1,1,-1
22:31:12:55155,12,41,26,-6,6,-1,-3,-2
22:31:12:69369,-2,-44,12,-9,4,1,-2,-6
22:31:12:70172,-2,-44,12,-9,4,1,-2,-6
22:31:12:76184,-5,7,-21,0,-10,-5,-7,-4
22:31:12:83695,3,25,-17,-11,-4,-1,-1,9
22:31:12:91290,3,25,-17,-11,-4,-1,-1,9
22:31:12:106846,8,-3,-5,-4,3,2,9,10
22:31:12:107640,-2,-13,16,-5,11,6,10,-6
22:31:12:114367,-2,-13,16,-5,11,6,10,-6
22:31:12:115156,7,22,5,6,3,2,5,-1
22:31:12:129386,-3,0,0,-2,-5,-2,-4,-2
22:31:12:130273,-3,0,0,-2,-5,-2,-4,-2
22:31:12:136193,9,-26,-1,15,5,0,-3,7
22:31:12:143704,-50,-56,-28,-12,5,-5,-9,-29
22:31:12:151251,-50,-56,-28,-12,5,-5,-9,-29
22:31:12:158688,-15,-11,-28,-28,-7,1,3,2
22:31:12:166229,12,22,5,9,2,0,6,2
22:31:12:174359,12,22,5,9,2,0,6,2
22:31:12:175250,7,23,7,12,-2,3,4,2
22:31:12:189350,-7,-1,-20,-13,-4,-1,-8,7
22:31:12:190172,-7,-1,-20,-13,-4,-1,-8,7
22:31:12:196200,12,31,2,26,7,3,2,-14
22:31:12:203712,-6,2,0,-25,-9,-6,0,-1
22:31:12:211258,-6,2,0,-25,-9,-6,0,-1
22:31:12:218782,2,12,38,15,7,-2,-4,4
22:31:12:226144,6,7,-30,1,-4,0,4,4
22:31:12:235070,6,7,-30,1,-4,0,4,4
22:31:12:235913,-8,10,2,6,-9,-7,2,-7
22:31:12:249388,9,21,-3,4,-2,1,0,5
22:31:12:250244,9,21,-3,4,-2,1,0,5
22:31:12:256171,-6,-27,-14,-8,-8,-4,-9,5
22:31:12:263676,17,5,23,7,13,3,0,-1
22:31:12:271256,17,5,23,7,13,3,0,-1
22:31:12:278657,-6,-7,1,-2,-8,-4,-2,-1
22:31:12:286162,-10,4,-19,-7,0,-3,-10,-7
22:31:12:294395,-10,4,-19,-7,0,-3,-10,-7
22:31:12:295242,-6,8,9,-28,-1,-1,-1,-3
22:31:12:309393,15,7,21,-6,-6,1,-5,2
22:31:12:310260,15,7,21,-6,-6,1,-5,2
22:31:12:316150,-6,-27,-10,-1,-7,-2,-3,1
22:31:12:323722,2,-9,-24,-8,-3,2,6,1
22:31:12:331265,2,-9,-24,-8,-3,2,6,1
22:31:12:338660,8,5,9,5,5,-2,-1,4
22:31:12:346163,-9,-19,13,7,1,-1,-2,-2
22:31:12:354448,-9,-19,13,7,1,-1,-2,-2
22:31:12:355287,-8,-18,-12,-1,11,2,-2,-2
22:31:12:369392,10,-17,-7,6,-4,-4,0,6
22:31:12:370239,10,-17,-7,6,-4,-4,0,6
22:31:12:384289,-6,-16,-19,-1,-7,-3,-8,-8
22:31:12:385106,5,11,-28,0,-8,-6,-4,2
22:31:12:391259,5,11,-28,0,-8,-6,-4,2
22:31:12:398675,7,32,-2,11,15,9,2,-3
22:31:12:406179,-15,14,26,13,-2,-4,-1,-9
22:31:12:414404,-15,14,26,13,-2,-4,-1,-9
22:31:12:415239,-29,-15,-24,-5,-10,-4,4,-10
22:31:12:429360,4,0,-13,-25,0,6,3,3
22:31:12:430284,4,0,-13,-25,0,6,3,3
22:31:12:436160,7,2,30,-39,-21,-3,-1,9
22:31:12:443660,10,-6,12,0,2,-3,-5,-10
22:31:12:451260,10,-6,12,0,2,-3,-5,-10
22:31:12:458697,45,50,9,29,10,3,-1,11
22:31:12:466167,-12,-10,3,11,2,-4,-4,-5
22:31:12:474428,-12,-10,3,11,2,-4,-4,-5
22:31:12:475265,13,0,-3,8,-12,-4,-1,4
22:31:12:489390,-22,-50,-13,-26,8,2,-1,2
22:31:12:490276,-22,-50,-13,-26,8,2,-1,2
22:31:12:496191,1,33,44,6,-6,-4,-4,-5
22:31:12:503689,23,-20,3,4,-7,5,6,14
22:31:12:511290,23,-20,3,4,-7,5,6,14
22:31:12:518692,2,-17,6,-4,-6,-2,5,1
22:31:12:526185,5,0,3,18,-8,-5,2,7
22:31:12:534380,5,0,3,18,-8,-5,2,7
22:31:12:535163,-9,-31,-15,-17,-6,-5,-6,-11
22:31:12:549364,-13,-7,-40,-5,7,2,-1,-1
22:31:12:550171,-13,-7,-40,-5,7,2,-1,-1
22:31:12:556199,-14,-7,14,25,8,0,-8,0
22:31:12:563707,-10,-36,-16,-39,-1,0,-5,-13
22:31:12:571290,-10,-36,-16,-39,-1,0,-5,-13
22:31:12:578724,-30,-25,-11,6,3,0,3,-13
22:31:12:586184,-5,-5,-28,-18,-5,2,-3,-6
22:31:12:594401,-5,-5,-28,-18,-5,2,-3,-6
22:31:12:595181,2,-9,-25,-25,-1,1,2,14
22:31:12:609346,8,35,32,20,-4,-6,-3,-10
22:31:12:610194,8,35,32,20,-4,-6,-3,-10
22:31:12:616280,-15,-17,8,-1,-5,-4,-7,-9
22:31:12:623724,14,14,-13,7,-1,1,8,5
22:31:12:631267,14,14,-13,7,-1,1,8,5
22:31:12:638665,-7,-40,-17,-23,-10,-4,-5,-17
22:31:12:646160,-20,1,21,12,12,2,-3,2
22:31:12:654392,-20,1,21,12,12,2,-3,2
22:31:12:655254,19,15,-21,8,5,6,18,-3
22:31:12:669362,17,39,25,-2,-10,-7,-8,-6
22:31:12:670247,17,39,25,-2,-10,-7,-8,-6
22:31:12:676163,-10,-18,-39,-30,0,0,-11,-1
22:31:12:683662,10,32,-2,-11,-8,-3,3,5
22:31:12:691266,10,32,-2,-11,-8,-3,3,5
22:31:12:698667,8,53,15,-9,0,0,1,7
22:31:12:706168,-13,6,3,9,3,-2,2,2
22:31:12:714390,-13,6,3,9,3,-2,2,2
22:31:12:715255,-14,-12,-14,-14,-11,-5,-5,-11
22:31:12:729401,-3,-19,-3,2,2,1,-2,-1
22:31:12:730258,-3,-19,-3,2,2,1,-2,-1
22:31:12:736166,15,10,5,8,-1,-1,-1,8
22:31:12:743643,-2,-3,18,16,-1,2,-2,-2
22:31:12:759402,-2,-3,18,16,-1,2,-2,-2
22:31:12:760274,-7,-24,-11,-31,2,2,-3,4
22:31:12:766185,-6,-6,-20,10,1,-2,2,0
22:31:12:774397,-6,-6,-20,10,1,-2,2,0
22:31:12:775264,0,12,2,23,7,0,-4,0
22:31:12:797520,0,-5,-2,-19,-9,-4,-4,-5
22:31:12:798360,0,-5,-2,-19,-9,-4,-4,-5
22:31:12:799127,6,-1,-7,30,1,1,4,9
22:31:12:803680,2,10,0,1,-3,-3,-2,3
22:31:12:811278,2,10,0,1,-3,-3,-2,3
22:31:12:818645,6,-8,-8,-7,-2,2,0,-4
22:31:12:826346,-35,-93,1,-9,-2,-3,-3,-8
22:31:12:841883,-35,-93,1,-9,-2,-3,-3,-8
22:31:12:842670,11,9,26,20,11,4,4,12
22:31:12:849333,13,44,26,-8,-1,1,1,-5
22:31:12:850162,13,44,26,-8,-1,1,1,-5
22:31:12:856157,2,-1,1,-39,-5,-2,-4,-9
22:31:12:871830,-28,-17,9,13,-2,-2,-2,0
22:31:12:872688,-28,-17,9,13,-2,-2,-2,0
22:31:12:887257,0,35,2,10,5,0,-2,-3
22:31:12:894370,30,18,-28,11,7,1,0,5
22:31:12:895250,30,18,-28,11,7,1,0,5
22:31:12:901180,-9,-38,1,13,-1,-2,-1,-3
22:31:12:909335,-18,-29,-81,-4,10,2,-4,-5
22:31:12:910157,-18,-29,-81,-4,10,2,-4,-5
22:31:12:916206,15,20,9,0,-2,-1,-1,17
22:31:12:932300,-23,16,28,-2,3,-1,-5,-7
22:31:12:933152,-23,16,28,-2,3,-1,-5,-7
22:31:12:938703,-6,-6,-7,4,3,0,-4,6
22:31:12:946199,8,13,34,1,-10,0,3,0
22:31:12:953700,8,13,34,1,-10,0,3,0
22:31:12:961225,-2,-4,15,-7,-11,-6,-3,-4
22:31:12:969323,2,-6,10,-11,-6,-2,1,3
22:31:12:970181,2,-6,10,-11,-6,-2,1,3
22:31:12:983746,-7,-11,-20,19,0,-5,-4,-7
22:31:12:991872,28,27,7,26,-1,-2,3,19
22:31:12:992677,28,27,7,26,-1,-2,3,19
22:31:12:998701,-14,7,25,-9,3,-2,-3,-20
22:31:13:6178,28,26,0,22,17,2,-4,2
22:31:13:13739,28,26,0,22,17,2,-4,2
22:31:13:21132,-2,23,23,-10,3,3,3,5
22:31:13:29367,13,38,-2,-4,-6,-3,-4,-3
22:31:13:30266,13,38,-2,-4,-6,-3,-4,-3
22:31:13:36178,11,-21,6,11,19,5,4,2
22:31:13:51840,15,13,15,7,-4,-5,-8,-3
22:31:13:52680,15,13,15,7,-4,-5,-8,-3
22:31:13:58663,-28,0,-1,4,-10,-5,-3,-3
22:31:13:66167,-6,-25,-18,14,7,1,6,7
22:31:13:73766,-6,-25,-18,14,7,1,6,7
22:31:13:81172,12,33,-21,-9,-11,-5,-3,-5
22:31:13:89368,-11,-38,-46,-27,-12,-3,-3,-7
22:31:13:90253,-11,-38,-46,-27,-12,-3,-3,-7
22:31:13:96172,-9,-62,7,-9,-4,-2,-4,5
22:31:13:111887,-4,20,23,31,12,4,0,-6
22:31:13:112677,-4,20,23,31,12,4,0,-6
22:31:13:118681,30,45,5,3,-1,1,2,6
22:31:13:126169,-13,-24,19,-13,-8,-7,-5,-8
22:31:13:133744,-13,-24,19,-13,-8,-7,-5,-8
22:31:13:141178,-2,14,-20,-36,-19,-3,7,-1
22:31:13:149397,3,-8,18,-28,-5,3,6,14
22:31:13:150270,3,-8,18,-28,-5,3,6,14
22:31:13:156204,-39,-36,-13,16,1,-7,-11,-20
22:31:13:171854,-13,-29,-43,-2,5,0,-3,-8
22:31:13:172692,-13,-29,-43,-2,5,0,-3,-8
22:31:13:178649,20,52,21,8,3,5,6,12
22:31:13:186163,-10,-5,47,7,-5,-7,-7,2
22:31:13:193730,-10,-5,47,7,-5,-7,-7,2
22:31:13:201182,-10,-18,3,4,5,3,-7,-6
22:31:13:209344,1,8,7,-32,-7,0,-1,-1
22:31:13:210180,1,8,7,-32,-7,0,-1,-1
22:31:13:216191,7,12,7,0,-4,-1,3,6
22:31:13:231927,-1,9,-46,-10,-6,-5,-8,-13
22:31:13:232721,-1,9,-46,-10,-6,-5,-8,-13
22:31:13:238698,21,1,4,4,0,0,1,9
22:31:13:262560,-10,-3,19,14,-2,3,6,1
22:31:13:263349,-10,-3,19,14,-2,3,6,1
22:31:13:264179,14,8,7,-1,-2,-1,1,7
22:31:13:269364,7,11,-3,2,1,1,4,-1
22:31:13:270262,7,11,-3,2,1,1,4,-1
22:31:13:276154,-15,-21,-9,4,-3,-7,-9,-14
22:31:13:291901,-19,-8,7,-2,-4,-3,0,-1
22:31:13:292687,-19,-8,7,-2,-4,-3,0,-1
22:31:13:298646,-17,-16,-4,-23,-6,-2,-3,-21
22:31:13:306144,13,27,8,-1,-4,-3,-4,-1
22:31:13:313722,13,27,8,-1,-4,-3,-4,-1
22:31:13:321181,-3,10,7,6,-1,1,4,7
22:31:13:329364,7,4,7,-4,0,1,1,0
22:31:13:330267,7,4,7,-4,0,1,1,0
22:31:13:336164,-30,-4,-12,-1,2,-3,-4,-7
22:31:13:351858,3,8,3,0,-2,-3,0,-1
22:31:13:352679,3,8,3,0,-2,-3,0,-1
22:31:13:358683,3,-15,-14,11,8,-1,-2,2
22:31:13:366177,-1,-6,0,-3,0,-1,-1,-2
22:31:13:373786,-1,-6,0,-3,0,-1,-1,-2
22:31:13:381181,15,-1,-13,13,6,-1,3,5
22:31:13:389403,-4,5,31,-13,5,3,-2,-4
22:31:13:390263,-4,5,31,-13,5,3,-2,-4
22:31:13:396202,7,4,-7,0,-9,-2,-2,2
22:31:13:411888,12,30,21,6,-4,-3,-1,8
22:31:13:412712,12,30,21,6,-4,-3,-1,8
22:31:13:418677,1,-32,-4,2,0,2,-2,-5
22:31:13:426177,-20,-24,-45,-15,1,2,0,-3
22:31:13:433768,-20,-24,-45,-15,1,2,0,-3
22:31:13:441220,27,32,-13,32,3,-2,2,14
22:31:13:449370,2,-22,-57,-18,-3,1,-6,-29
22:31:13:450159,2,-22,-57,-18,-3,1,-6,-29
22:31:13:456192,1,37,63,17,5,1,5,-3
22:31:13:471904,-9,-15,-14,9,-3,-2,2,3
22:31:13:472720,-9,-15,-14,9,-3,-2,2,3
22:31:13:478704,25,35,-1,-36,-15,-6,2,3
22:31:13:486203,1,-62,-12,-5,-5,0,-1,2
22:31:13:493725,1,-62,-12,-5,-5,0,-1,2
22:31:13:501227,-21,-12,-27,-8,-9,-9,-11,-14
22:31:13:509377,-8,-49,-14,12,-5,-2,-2,2
22:31:13:510174,-8,-49,-14,12,-5,-2,-2,2
22:31:13:516133,-4,-19,8,-12,-14,-2,-2,2
22:31:13:531847,7,9,-10,10,5,-2,0,-17
22:31:13:532677,7,9,-10,10,5,-2,0,-17
22:31:13:538695,-34,-30,30,13,14,8,2,-6
22:31:13:546208,-11,18,17,16,16,3,0,9
22:31:13:553729,-11,18,17,16,16,3,0,9
22:31:13:561166,-5,-10,-21,-23,0,4,0,1
22:31:13:569361,19,31,-4,-9,-1,2,2,3
22:31:13:570266,19,31,-4,-9,-1,2,2,3
22:31:13:576174,-10,-29,-20,7,10,2,-1,3
22:31:13:591858,-12,6,-10,-34,-7,-1,-1,-7
22:31:13:592714,-12,6,-10,-34,-7,-1,-1,-7
22:31:13:598657,9,4,-16,-5,0,-1,-2,-2
22:31:13:606167,2,1,22,3,3,-1,-5,2
22:31:13:613719,2,1,22,3,3,-1,-5,2
22:31:13:621191,1,-37,7,0,-3,0,1,-1
22:31:13:629395,-31,7,21,13,2,-1,-3,2
22:31:13:630253,-31,7,21,13,2,-1,-3,2
22:31:13:636206,-5,-7,-11,-9,6,0,0,-3
22:31:13:651936,23,47,26,-17,-11,-4,-1,3
22:31:13:652704,23,47,26,-17,-11,-4,-1,3
22:31:13:658683,-2,-1,12,15,-1,-4,-1,-1
22:31:13:666170,-16,-25,3,-34,-9,-1,-2,-4
22:31:13:673770,-16,-25,3,-34,-9,-1,-2,-4
22:31:13:681184,4,14,9,-17,-8,-1,1,0
22:31:13:689411,17,16,-24,28,0,0,1,8
22:31:13:690273,17,16,-24,28,0,0,1,8
22:31:13:696205,-2,-2,-18,1,3,0,-1,0
22:31:13:711878,-4,-6,22,29,-3,-5,4,-2
22:31:13:712724,-4,-6,22,29,-3,-5,4,-2
22:31:13:719319,30,49,52,-16,-10,-1,0,8
22:31:13:726201,-7,2,-16,-5,0,-1,-5,-5
22:31:13:733773,-7,2,-16,-5,0,-1,-5,-5
22:31:13:741202,1,-13,-17,-17,-8,-3,-4,-4
22:31:13:749364,-12,-13,14,9,-6,-3,-3,-3
22:31:13:750191,-12,-13,14,9,-6,-3,-3,-3
22:31:13:756199,-18,0,-10,-7,5,5,0,-3
22:31:13:771911,16,16,21,-10,0,1,2,1
22:31:13:772719,16,16,21,-10,0,1,2,1
22:31:13:778718,-2,11,-7,20,4,1,5,7
22:31:13:794386,-2,-8,-14,4,-1,-2,-1,4
22:31:13:795303,-2,-8,-14,4,-1,-2,-1,4
22:31:13:801179,1,31,-15,8,13,1,-1,3
22:31:13:809406,8,-13,-6,15,3,-2,2,-1
22:31:13:810164,8,-13,-6,15,3,-2,2,-1
22:31:13:823680,-12,-61,-20,-3,-10,-7,-5,-6
22:31:13:831896,-8,6,13,0,-9,-6,-4,0
22:31:13:832736,-8,6,13,0,-9,-6,-4,0
22:31:13:838683,2,-2,9,-1,-8,-5,-1,-4
22:31:13:854471,2,-2,9,-1,-8,-5,-1,-4
22:31:13:855297,6,-8,-1,5,5,-2,-4,-2
22:31:13:861221,-2,21,25,1,10,3,-1,-5
22:31:13:869400,-2,21,25,1,10,3,-1,-5
22:31:13:870293,9,18,-12,-8,2,4,2,4
22:31:13:883682,-17,-32,16,17,11,1,-2,-8
22:31:13:891913,-17,-32,16,17,11,1,-2,-8
22:31:13:892719,-6,7,22,3,-3,-2,-1,4
22:31:13:898675,-5,20,13,-5,-6,1,7,1
22:31:13:914408,-5,20,13,-5,-6,1,7,1
22:31:13:915263,-20,-34,-24,-11,-2,1,-2,-6
22:31:13:921185,-5,-15,-22,-4,-5,-4,-9,-4
22:31:13:928771,-5,-15,-22,-4,-5,-4,-9,-4
22:31:13:936206,11,41,35,11,-2,0,4,4
22:31:13:943677,-1,-5,1,-9,-5,2,2,3
22:31:13:951923,-1,-5,1,-9,-5,2,2,3
22:31:13:952700,-10,-12,-27,-27,0,-2,-3,-4
22:31:13:958679,28,2,-17,-3,-8,-4,2,8
22:31:13:974874,28,2,-17,-3,-8,-4,2,8
22:31:13:975674,-22,-2,-18,-14,-8,-1,-4,-15
22:31:13:981188,5,16,-36,-2,-4,-4,-3,-5
22:31:13:989343,5,16,-36,-2,-4,-4,-3,-5
22:31:13:990170,15,16,-23,-13,12,10,5,7
22:31:14:3689,-19,-15,0,9,-3,-4,-8,-10
22:31:14:11917,-19,-15,0,9,-3,-4,-8,-10
22:31:14:12715,0,-39,7,19,6,-4,0,0
22:31:14:18690,2,-11,-3,-7,-2,4,1,2
22:31:14:34407,2,-11,-3,-7,-2,4,1,2
22:31:14:35273,3,-14,-6,-2,-7,-3,-2,6
22:31:14:41163,14,19,4,4,2,-3,-5,-5
22:31:14:49405,14,19,4,4,2,-3,-5,-5
22:31:14:50253,-8,12,2,-4,2,4,3,4
22:31:14:63659,8,3,23,-9,-5,-4,-4,1
22:31:14:71942,8,3,23,-9,-5,-4,-4,1
22:31:14:72697,-6,-9,-32,12,8,1,-1,1
22:31:14:78674,-23,-33,4,-8,-3,0,2,-6
22:31:14:94414,-23,-33,4,-8,-3,0,2,-6
22:31:14:95280,9,3,0,-50,-23,-7,2,2
22:31:14:101163,-8,-11,-6,-4,0,-1,1,-1
22:31:14:109411,-8,-11,-6,-4,0,-1,1,-1
22:31:14:110267,12,-1,8,-30,-9,2,1,2
22:31:14:123647,1,9,7,17,-7,-3,-5,0
22:31:14:131916,1,9,7,17,-7,-3,-5,0
22:31:14:132708,5,0,-5,11,19,5,-2,-6
22:31:14:138690,6,20,-10,-31,-4,0,2,9
22:31:14:154408,6,20,-10,-31,-4,0,2,9
22:31:14:155191,8,16,15,28,1,-1,7,13
22:31:14:161163,-3,22,-3,15,6,2,-1,-5
22:31:14:169412,-3,22,-3,15,6,2,-1,-5
22:31:14:170281,8,22,-4,13,-5,-3,2,0
22:31:14:183667,-15,-29,-10,-11,-6,-5,-5,2
22:31:14:191884,-15,-29,-10,-11,-6,-5,-5,2
22:31:14:192696,-1,-31,3,9,2,-1,-3,-10
22:31:14:198645,10,9,24,-1,-4,-4,-3,1
22:31:14:214382,10,9,24,-1,-4,-4,-3,1
22:31:14:215168,-9,-13,-7,-28,-12,-3,-6,-4
22:31:14:221160,-10,-1,46,-8,-2,3,1,-4
22:31:14:229381,-10,-1,46,-8,-2,3,1,-4
22:31:14:230269,-14,-9,-9,11,1,-7,-7,-3
22:31:14:243708,-18,-17,-22,6,1,-1,0,-4
22:31:14:251879,-18,-17,-22,6,1,-1,0,-4
22:31:14:252653,-10,2,-22,5,14,4,-3,-1
22:31:14:258653,10,27,-7,11,10,4,2,-1
22:31:14:274386,10,27,-7,11,10,4,2,-1
22:31:14:275160,7,-9,18,21,-2,-6,-3,3
22:31:14:281198,14,14,2,16,2,-5,-3,-6
22:31:14:289375,14,14,2,16,2,-5,-3,-6
22:31:14:290177,1,-5,-11,12,13,4,7,2
22:31:14:303696,0,9,-10,10,2,0,1,6
22:31:14:311876,0,9,-10,10,2,0,1,6
22:31:14:312677,-2,40,45,0,-15,-9,-8,-6
22:31:14:318708,1,-21,4,-12,-3,1,-1,-1
22:31:14:334378,1,-21,4,-12,-3,1,-1,-1
22:31:14:335154,11,22,-5,-5,5,6,7,0
22:31:14:341211,9,10,-5,16,35,9,1,2
22:31:14:349403,9,10,-5,16,35,9,1,2
22:31:14:350218,-17,-28,-17,-21,-12,-4,-7,-7
22:31:14:363696,-1,-1,-9,-16,-11,-2,-3,5
22:31:14:371885,-1,-1,-9,-16,-11,-2,-3,5
22:31:14:372661,-20,-20,-11,-2,9,-1,-2,-2
22:31:14:378726,-7,-11,-18,18,6,1,-4,-2
22:31:14:394414,-7,-11,-18,18,6,1,-4,-2
22:31:14:395264,4,8,12,-10,1,-6,-6,-6
22:31:14:401184,-7,-16,-4,-3,3,3,4,-5
22:31:14:409402,-7,-16,-4,-3,3,3,4,-5
22:31:14:410191,1,21,10,7,-1,2,-3,-1
22:31:14:432591,10,33,5,-12,-8,-1,7,3
22:31:14:433346,10,33,5,-12,-8,-1,7,3
22:31:14:434189,-17,-37,-7,-1,-4,-7,-7,-10
22:31:14:438700,-6,0,-20,7,-11,-4,-3,-2
22:31:14:454422,-6,0,-20,7,-11,-4,-3,-2
22:31:14:455178,-12,-9,30,-20,-11,0,3,5
22:31:14:461153,10,-16,-31,2,-7,-4,-1,0
22:31:14:469421,10,-16,-31,2,-7,-4,-1,0
22:31:14:470258,-17,-11,-36,13,3,0,3,-6
22:31:14:483659,-4,2,2,1,-2,-1,0,5
22:31:14:491903,-4,2,2,1,-2,-1,0,5
22:31:14:492705,1,-6,-1,19,-14,-7,-12,-3
22:31:14:498659,-11,-18,22,-13,0,-2,-4,-6
22:31:14:514402,-11,-18,22,-13,0,-2,-4,-6
22:31:14:515184,4,-18,8,11,-8,-4,2,5
22:31:14:521166,-10,15,23,-23,-5,0,-4,-13
22:31:14:529390,-10,15,23,-23,-5,0,-4,-13
22:31:14:530195,1,-21,-24,-13,-2,-2,-1,-3
22:31:14:543716,17,10,1,-2,-13,-2,6,10
22:31:14:551894,17,10,1,-2,-13,-2,6,10
22:31:14:552659,-7,1,-20,-9,4,0,-12,-5
22:31:14:558655,-11,-5,-25,5,-16,-11,-10,-7
22:31:14:574406,-11,-5,-25,5,-16,-11,-10,-7
22:31:14:575181,16,50,43,-4,6,5,3,1
22:31:14:581223,-4,19,-7,-12,-3,1,-1,-1
22:31:14:589369,-4,19,-7,-12,-3,1,-1,-1
22:31:14:590195,21,4,-28,-3,7,2,6,6
22:31:14:603748,-22,-42,4,5,6,-2,5,-12
22:31:14:611882,-22,-42,4,5,6,-2,5,-12
22:31:14:612684,2,2,5,-12,-13,-2,0,-1
22:31:14:618663,6,-17,0,-29,-11,-3,-9,0
22:31:14:634362,6,-17,0,-29,-11,-3,-9,0
22:31:14:635160,5,19,18,-2,3,3,8,2
22:31:14:641220,5,15,5,4,-2,-5,-1,-2
22:31:14:649381,5,15,5,4,-2,-5,-1,-2
22:31:14:650199,6,14,42,18,3,3,6,0
22:31:14:663692,18,38,17,28,11,4,6,10
22:31:14:671883,18,38,17,28,11,4,6,10
22:31:14:672684,-24,-45,-17,12,-2,-8,-8,-13
22:31:14:678705,0,15,-2,3,7,2,-2,2
22:31:14:694438,0,15,-2,3,7,2,-2,2
22:31:14:695280,4,16,-10,6,-2,0,-4,0
22:31:14:701199,0,-17,-12,1,1,1,9,3
22:31:14:709380,0,-17,-12,1,1,1,9,3
22:31:14:710139,-8,-4,-9,-18,-5,-1,-3,3
22:31:14:723683,-18,-40,-42,-18,-9,-6,-8,-5
22:31:14:731887,-18,-40,-42,-18,-9,-6,-8,-5
22:31:14:732660,15,14,6,3,16,5,2,2
22:31:14:746199,-16,15,21,10,4,1,-6,-6
22:31:14:754446,-16,15,21,10,4,1,-6,-6
22:31:14:755301,4,15,14,6,-2,-1,-4,-5
22:31:14:761177,6,-3,19,1,4,1,1,2
22:31:14:768707,6,-3,19,1,4,1,1,2
22:31:14:776231,20,-4,-26,-4,0,-1,1,7
22:31:14:783697,-4,11,-38,4,17,5,0,-4
22:31:14:791861,-4,11,-38,4,17,5,0,-4
22:31:14:792686,-2,-15,17,-2,-5,-7,-8,-5
22:31:14:806181,24,8,0,6,-9,-4,8,14
22:31:14:814390,24,8,0,6,-9,-4,8,14
22:31:14:815163,-5,-16,-22,-3,0,0,1,3
22:31:14:821198,-6,-24,-3,0,-3,-2,-11,-25
22:31:14:828709,-6,-24,-3,0,-3,-2,-11,-25
22:31:14:836160,9,-15,-19,-30,3,0,2,6
22:31:14:843716,17,5,-1,-1,-6,-2,1,9
22:31:14:851897,17,5,-1,-1,-6,-2,1,9
22:31:14:852671,-19,0,-1,21,-3,-1,1,-4
22:31:14:866188,-4,-18,-7,-12,-2,0,6,-4
22:31:14:874430,-4,-18,-7,-12,-2,0,6,-4
22:31:14:875178,-16,-21,4,-5,0,2,9,0
22:31:14:881170,7,52,2,-6,-3,0,-2,2
22:31:14:888749,7,52,2,-6,-3,0,-2,2
22:31:14:896189,-12,14,3,-4,-5,-2,-9,-18
22:31:14:903680,-11,1,-18,-15,20,3,-6,-9
22:31:14:911911,-11,1,-18,-15,20,3,-6,-9
22:31:14:912734,4,20,-2,-13,-7,-5,-1,1
22:31:14:926173,17,10,9,8,-6,-2,-2,8
22:31:14:934375,17,10,9,8,-6,-2,-2,8
22:31:14:935183,3,4,30,6,4,-1,-5,-2
22:31:14:941170,0,-27,-12,-8,-8,0,-5,6
22:31:14:948745,0,-27,-12,-8,-8,0,-5,6
22:31:14:956195,-3,-4,-8,8,-5,0,-3,2
22:31:14:963680,-5,4,7,1,-4,-2,5,-8
22:31:14:971917,-5,4,7,1,-4,-2,5,-8
22:31:14:972690,1,14,-25,-3,9,1,-2,5
22:31:14:986217,0,-5,35,4,0,-4,-2,-12
22:31:14:994401,0,-5,35,4,0,-4,-2,-12
22:31:14:995299,-25,-56,-23,-10,-6,-5,3,-6
22:31:15:1168,-4,7,28,6,2,4,0,6
22:31:15:8743,-4,7,28,6,2,4,0,6
22:31:15:16170,-2,-29,14,4,-2,-5,-6,-1
22:31:15:23714,-7,-8,-2,11,0,-5,-13,-7
22:31:15:31897,-7,-8,-2,11,0,-5,-13,-7
22:31:15:32654,10,27,-9,-3,-7,0,2,-1
22:31:15:46196,-3,33,50,5,2,1,5,8
22:31:15:54431,-3,33,50,5,2,1,5,8
22:31:15:55274,-5,-15,10,17,-1,-3,-8,3
22:31:15:61201,-17,-25,-20,7,1,2,4,-6
22:31:15:68735,-17,-25,-20,7,1,2,4,-6
22:31:15:76232,-26,-4,1,6,7,3,0,1
22:31:15:83685,17,45,-9,-19,-3,-1,-1,6
22:31:15:91860,17,45,-9,-19,-3,-1,-1,6
22:31:15:92712,23,51,-20,0,-5,-3,-4,0
22:31:15:115273,-8,-25,-9,12,3,-1,2,-3
22:31:15:115858,-8,-25,-9,12,3,-1,2,-3
22:31:15:116678,10,13,0,-10,-6,-2,4,0
22:31:15:121175,-17,-63,3,9,3,-2,-4,-4
22:31:15:128786,-17,-63,3,9,3,-2,-4,-4
22:31:15:136189,13,-5,12,-5,6,6,4,-2
22:31:15:160055,-15,-18,5,-5,-8,-5,-5,4
22:31:15:160866,-15,-18,5,-5,-8,-5,-5,4
22:31:15:161661,7,-17,4,-3,-6,-4,-5,-3
22:31:15:166175,4,25,-22,-29,-4,0,-3,0
22:31:15:174384,4,25,-22,-29,-4,0,-3,0
22:31:15:175238,-2,-1,12,0,1,3,5,4
22:31:15:181163,4,-4,8,1,-4,-1,1,3
22:31:15:188772,4,-4,8,1,-4,-1,1,3
22:31:15:196194,-2,6,-2,0,3,-2,2,-1
22:31:15:203727,6,16,1,4,-7,-6,-2,-1
22:31:15:211929,6,16,1,4,-7,-6,-2,-1
22:31:15:212712,-7,-37,-40,-30,-15,-6,-9,-9
22:31:15:226171,17,6,-34,0,3,1,1,3
22:31:15:234418,17,6,-34,0,3,1,1,3
22:31:15:235274,-5,3,42,17,1,2,1,0
22:31:15:241218,9,-15,-26,0,-9,-4,-1,-6
22:31:15:248791,9,-15,-26,0,-9,-4,-1,-6
22:31:15:256196,9,34,15,18,6,1,3,2
22:31:15:263695,-10,16,10,5,-10,-8,-8,-4
22:31:15:271887,-10,16,10,5,-10,-8,-8,-4
22:31:15:272685,5,-5,7,-9,-10,-4,-3,5
22:31:15:286183,-25,-40,11,-7,-5,0,3,-14
22:31:15:302581,-25,-40,11,-7,-5,0,3,-14
22:31:15:303356,15,26,-4,-3,1,2,2,5
22:31:15:304169,-21,-46,-32,-32,-8,-4,-4,-4
22:31:15:308733,-21,-46,-32,-32,-8,-4,-4,-4
22:31:15:316184,-6,-26,-2,-9,-1,1,3,0
22:31:15:323702,1,58,4,8,9,1,0,3
22:31:15:331877,1,58,4,8,9,1,0,3
22:31:15:332669,-12,-55,7,30,3,-2,-3,1
22:31:15:346637,4,5,-15,0,-13,-4,-2,5
22:31:15:354430,4,5,-15,0,-13,-4,-2,5
22:31:15:355270,3,2,-79,5,8,2,-3,-10
22:31:15:361203,12,-5,19,8,4,-4,-6,0
22:31:15:368705,12,-5,19,8,4,-4,-6,0
22:31:15:376172,6,55,24,-10,-5,-3,-2,-6
22:31:15:383696,5,-26,-1,3,4,3,-1,7
22:31:15:391873,5,-26,-1,3,4,3,-1,7
22:31:15:392688,-35,3,-12,-55,-13,-2,6,0
22:31:15:406211,-2,-75,11,8,0,-1,-4,0
22:31:15:414386,-2,-75,11,8,0,-1,-4,0
22:31:15:415176,11,5,-29,3,2,4,1,-4
22:31:15:421176,4,4,-24,-10,-3,-3,-4,-3
22:31:15:428742,4,4,-24,-10,-3,-3,-4,-3
22:31:15:436231,-8,-5,52,13,2,-2,0,3
22:31:15:443712,0,35,-31,7,3,-3,-3,-8
22:31:15:451890,0,35,-31,7,3,-3,-3,-8
22:31:15:452695,25,39,56,10,-3,-7,-10,-3
22:31:15:466186,-21,-53,17,10,-1,1,5,0
22:31:15:474385,-21,-53,17,10,-1,1,5,0
22:31:15:475175,16,-4,-4,-8,6,3,3,4
22:31:15:481219,-35,-49,0,-24,10,5,1,-18
22:31:15:488724,-35,-49,0,-24,10,5,1,-18
22:31:15:496191,-30,-27,0,0,-6,0,-5,-6
22:31:15:503682,11,4,7,-16,-6,-2,2,7
22:31:15:511903,11,4,7,-16,-6,-2,2,7
22:31:15:512700,11,66,2,0,1,1,0,-2
22:31:15:526152,-6,17,3,3,3,1,1,3
22:31:15:534394,-6,17,3,3,3,1,1,3
22:31:15:535235,23,2,-13,-7,-6,-4,3,-8
22:31:15:541165,7,31,-3,7,9,5,5,7
22:31:15:548774,7,31,-3,7,9,5,5,7
22:31:15:556194,-4,9,-17,15,-3,-6,-12,-11
22:31:15:563654,13,-15,-12,-12,-2,1,-4,1
22:31:15:571951,13,-15,-12,-12,-2,1,-4,1
22:31:15:572724,-33,-44,8,8,0,-2,4,0
22:31:15:586199,-6,22,0,5,-12,-11,-7,-5
22:31:15:594415,-6,22,0,5,-12,-11,-7,-5
22:31:15:595211,7,-5,1,-37,-6,-1,-5,8
22:31:15:601196,-2,3,-4,-1,0,2,-4,0
22:31:15:608936,-2,3,-4,-1,0,2,-4,0
22:31:15:616239,4,5,-8,15,4,1,2,19
22:31:15:632560,4,-1,11,5,3,2,-7,-16
22:31:15:633383,4,-1,11,5,3,2,-7,-16
22:31:15:634157,-19,-23,-14,-1,-1,-3,-14,-10
22:31:15:646153,0,-62,-18,6,1,3,2,2
22:31:15:654396,0,-62,-18,6,1,3,2,2
22:31:15:655202,-7,4,-24,-15,1,1,-1,-4
22:31:15:661181,17,30,-15,-12,11,9,12,5
22:31:15:668750,17,30,-15,-12,11,9,12,5
22:31:15:676176,-3,-45,-6,-19,-3,0,4,1
22:31:15:683679,-7,32,-31,-13,-12,-8,-7,-13
22:31:15:691300,-7,32,-31,-13,-12,-8,-7,-13
22:31:15:698703,6,23,9,16,14,7,11,23
22:31:15:706205,-14,-17,27,2,3,2,3,-2
22:31:15:714429,-14,-17,27,2,3,2,3,-2
22:31:15:715296,-10,-16,-6,1,-14,-9,-13,-6
22:31:15:729386,-5,-9,-17,11,17,-3,2,2
22:31:15:730269,-5,-9,-17,11,17,-3,2,2
22:31:15:736229,-16,-16,-19,-13,10,10,6,-1
22:31:15:743688,-1,63,35,15,-3,-2,-3,-7
22:31:15:751220,-1,63,35,15,-3,-2,-3,-7
22:31:15:758897,21,17,9,24,0,-2,1,8
22:31:15:766199,-11,-31,-14,-5,-10,-6,-4,-10
22:31:15:774382,-11,-31,-14,-5,-10,-6,-4,-10
22:31:15:775177,-8,-3,-36,-5,-1,-7,-3,-21
22:31:15:789351,8,-25,24,18,5,0,-3,10
22:31:15:790180,8,-25,24,18,5,0,-3,10
22:31:15:796212,19,64,18,27,8,7,10,1
22:31:15:803715,15,56,31,14,-10,-8,3,9
22:31:15:811300,15,56,31,14,-10,-8,3,9
22:31:15:818660,-33,-81,26,23,-3,0,-11,-4
22:31:15:826162,2,-24,-5,-10,-9,-3,-4,-2
22:31:15:834412,2,-24,-5,-10,-9,-3,-4,-2
22:31:15:835197,38,44,35,16,-26,-18,-4,-1
22:31:15:849369,-11,-57,-37,-22,-5,-1,0,-5
22:31:15:850189,-11,-57,-37,-22,-5,-1,0,-5
22:31:15:856148,-2,15,41,-17,14,4,-3,-6
22:31:15:863674,-16,36,-5,-30,15,8,4,-2
22:31:15:871225,-16,36,-5,-30,15,8,4,-2
22:31:15:878674,-2,-40,-54,-22,28,19,5,6
22:31:15:886195,6,-7,-4,18,-7,-1,3,1
22:31:15:894459,6,-7,-4,18,-7,-1,3,1
22:31:15:895226,4,33,1,8,-13,-8,-4,17
22:31:15:909374,-13,-18,18,-27,-10,-2,-8,-32
22:31:15:910194,-13,-18,18,-27,-10,-2,-8,-32
22:31:15:916163,-12,-59,-6,-44,-3,1,11,20
22:31:15:923655,-15,6,-4,37,4,1,-7,1
22:31:15:931356,-15,6,-4,37,4,1,-7,1
22:31:15:938686,22,72,-22,28,1,0,7,-8
22:31:15:946188,18,57,24,8,-8,1,8,17
22:31:15:954453,18,57,24,8,-8,1,8,17
22:31:15:955285,0,-11,-21,8,-2,-5,-1,3
22:31:15:969399,1,-47,-31,8,-1,-4,-5,-5
22:31:15:970195,1,-47,-31,8,-1,-4,-5,-5
22:31:15:976186,-9,-2,6,0,-2,6,9,-10
22:31:15:983683,11,10,11,-15,-2,-2,4,-8
22:31:15:991326,11,10,11,-15,-2,-2,4,-8
22:31:15:998699,8,6,7,13,-7,-11,-18,-1
22:31:16:6219,-26,-81,-65,-5,2,11,3,-6
22:31:16:14598,-26,-81,-65,-5,2,11,3,-6
22:31:16:15175,-2,-1,18,-6,-10,-6,-11,-10
22:31:16:29402,-20,78,23,-16,-7,-13,-17,26
22:31:16:30363,-20,78,23,-16,-7,-13,-17,26
22:31:16:36185,-25,-44,1,-16,-8,-12,-12,-16
22:31:16:43722,9,6,-17,-2,4,-1,14,4
22:31:16:51205,9,6,-17,-2,4,-1,14,4
22:31:16:58705,1,18,-31,0,9,-2,11,3
22:31:16:66207,0,-16,2,-12,0,9,15,12
22:31:16:74386,0,-16,2,-12,0,9,15,12
22:31:16:75192,-18,-48,2,4,-7,0,-8,-9
22:31:16:89392,48,-6,22,-1,-7,-7,9,10
22:31:16:90191,48,-6,22,-1,-7,-7,9,10
22:31:16:96216,-16,-7,-18,-22,-7,-3,-25,-13
22:31:16:103709,48,101,38,9,0,0,-34,6
22:31:16:111256,48,101,38,9,0,0,-34,6
22:31:16:118657,-10,-24,17,-18,-4,5,11,-11
22:31:16:126134,-17,-14,25,12,9,7,8,2
22:31:16:134392,-17,-14,25,12,9,7,8,2
22:31:16:135207,11,48,11,-1,-4,-3,-4,-5
22:31:16:149368,-10,16,11,1,0,4,17,7
22:31:16:150198,-10,16,11,1,0,4,17,7
22:31:16:156164,3,-1,-30,-20,1,-1,3,2
22:31:16:163666,-7,-34,44,-20,-10,-1,10,-17
22:31:16:171249,-7,-34,44,-20,-10,-1,10,-17
22:31:16:178669,24,39,-22,14,-7,-2,13,2
22:31:16:186182,-40,-1,-56,-9,-8,-12,-22,-32
22:31:16:194393,-40,-1,-56,-9,-8,-12,-22,-32
22:31:16:195199,-4,-52,43,16,3,-4,-15,7
22:31:16:209376,-9,-24,17,4,1,-1,-6,5
22:31:16:210204,-9,-24,17,4,1,-1,-6,5
22:31:16:216159,-25,17,46,-3,-9,-3,-2,2
22:31:16:223669,24,7,7,-16,4,6,5,0
22:31:16:231325,24,7,7,-16,4,6,5,0
22:31:16:238677,11,-15,24,16,-8,-4,10,4
22:31:16:246185,8,25,-14,10,10,6,3,-8
22:31:16:261911,8,25,-14,10,10,6,3,-8
22:31:16:262700,-6,-4,-61,-14,7,4,6,0
22:31:16:269388,25,-6,-1,5,6,8,5,14
22:31:16:270284,25,-6,-1,5,6,8,5,14
22:31:16:276187,14,44,9,-4,10,1,-11,-4
22:31:16:283713,-5,22,-17,-10,-9,-9,-21,19
22:31:16:291303,-5,22,-17,-10,-9,-9,-21,19
22:31:16:298684,25,48,39,-3,1,1,15,2
22:31:16:306211,-32,-5,-4,2,-6,-7,12,-12
22:31:16:321935,-32,-5,-4,2,-6,-7,12,-12
22:31:16:322709,13,-6,14,11,-5,6,20,15
22:31:16:329386,23,14,28,15,-1,-6,-13,-4
22:31:16:330311,23,14,28,15,-1,-6,-13,-4
22:31:16:336217,13,51,-17,-22,4,-1,-13,2
22:31:16:343685,-40,-116,-25,-9,5,-1,-1,-6
22:31:16:351207,-40,-116,-25,-9,5,-1,-1,-6
22:31:16:358706,-14,-55,-29,-2,-5,-5,-2,-6
22:31:16:366223,7,6,7,12,-14,-9,-6,12
22:31:16:374378,7,6,7,12,-14,-9,-6,12
22:31:16:375172,-8,-7,-36,-16,-10,-2,7,-14
22:31:16:389376,1,-20,-80,-13,-4,-4,-5,-7
22:31:16:390155,1,-20,-80,-13,-4,-4,-5,-7
22:31:16:396237,20,47,20,18,4,3,1,1
22:31:16:403707,-10,-1,-30,-7,-10,-8,1,1
22:31:16:411238,-10,-1,-30,-7,-10,-8,1,1
22:31:16:418683,-9,-9,-21,20,12,4,6,-4
22:31:16:426208,-1,32,39,13,3,-1,-16,0
22:31:16:434407,-1,32,39,13,3,-1,-16,0
22:31:16:435192,-13,-49,-27,-5,-11,-6,-5,-5
22:31:16:449382,-9,33,40,12,7,-1,20,-7
22:31:16:450182,-9,33,40,12,7,-1,20,-7
22:31:16:456142,-51,-57,26,21,2,-1,-17,-13
22:31:16:463655,3,-11,-29,-6,-3,-2,-23,-11
22:31:16:471227,3,-11,-29,-6,-3,-2,-23,-11
22:31:16:478692,14,9,-6,5,8,6,6,7
22:31:16:486185,20,13,50,10,24,5,-3,7
22:31:16:494436,20,13,50,10,24,5,-3,7
22:31:16:495245,12,-17,19,13,-6,-9,-8,-2
22:31:16:509399,22,30,27,26,-6,-4,11,9
22:31:16:510204,22,30,27,26,-6,-4,11,9
22:31:16:516187,-14,-6,-9,-11,-9,-8,-8,-10
22:31:16:523663,-2,18,13,-14,-16,0,6,2
22:31:16:531221,-2,18,13,-14,-16,0,6,2
22:31:16:538695,10,7,20,-24,-6,3,-2,7
22:31:16:546189,1,-9,-49,-22,-10,-8,-11,19
22:31:16:554409,1,-9,-49,-22,-10,-8,-11,19
22:31:16:555206,-2,-26,26,9,5,5,-4,-18
22:31:16:569387,-6,-49,-59,-44,4,2,4,-7
22:31:16:570206,-6,-49,-59,-44,4,2,4,-7
22:31:16:576187,37,33,-24,1,-3,-10,-5,12
22:31:16:583682,-24,-6,0,14,3,-2,-2,-17
22:31:16:591307,-24,-6,0,14,3,-2,-2,-17
22:31:16:598663,-17,-22,1,-14,-4,-5,-14,4
22:31:16:606213,2,14,46,4,7,13,6,-4
22:31:16:614367,2,14,46,4,7,13,6,-4
22:31:16:615143,1,-25,-34,3,-6,1,13,7
22:31:16:629425,-1,20,8,23,-3,-3,-16,-17
22:31:16:630295,-1,20,8,23,-3,-3,-16,-17
22:31:16:636206,-29,-36,7,14,7,-1,19,-5
22:31:16:651865,9,32,27,20,16,9,3,9
22:31:16:652761,9,32,27,20,16,9,3,9
22:31:16:658670,13,-46,27,-4,-2,-5,-6,-6
22:31:16:666185,6,-15,8,0,-8,-8,15,4
22:31:16:673764,6,-15,8,0,-8,-8,15,4
22:31:16:681209,-11,-6,-23,-46,-14,1,-1,-2
22:31:16:689404,19,-28,-2,-1,11,2,1,15
22:31:16:690200,19,-28,-2,-1,11,2,1,15
22:31:16:696225,-4,47,21,9,0,-6,6,-2
22:31:16:711911,1,-44,-29,0,22,11,-5,-34
22:31:16:712743,1,-44,-29,0,22,11,-5,-34
22:31:16:718711,-31,-37,-4,-5,5,4,-4,13
22:31:16:726212,2,-4,-16,-23,-22,-15,-11,-4
22:31:16:733694,2,-4,-16,-23,-22,-15,-11,-4
22:31:16:741233,2,22,-17,-3,6,2,-7,-9
22:31:16:749356,-34,-34,38,12,-10,-3,6,-4
22:31:16:750203,-34,-34,38,12,-10,-3,6,-4
22:31:16:756160,14,29,-18,-22,-12,-4,5,10
22:31:16:771893,7,4,-22,-7,-2,3,5,2
22:31:16:772684,7,4,-22,-7,-2,3,5,2
22:31:16:778737,11,36,24,49,30,20,10,14
22:31:16:786235,-22,-1,2,4,-18,-15,-5,-18
22:31:16:793919,-22,-1,2,4,-18,-15,-5,-18
22:31:16:801181,-33,-9,-38,-17,-10,-14,-27,-24
22:31:16:809393,12,21,3,1,8,7,28,36
22:31:16:810200,12,21,3,1,8,7,28,36
22:31:16:816183,-2,33,14,-3,2,7,15,-4
22:31:16:831848,-4,-7,-7,3,7,2,-4,5
22:31:16:832680,-4,-7,-7,3,7,2,-4,5
22:31:16:838686,7,-33,-35,-39,-5,5,-2,3
22:31:16:846150,5,27,-20,-2,-4,0,-13,-6
22:31:16:853742,5,27,-20,-2,-4,0,-13,-6
22:31:16:861180,17,11,-7,9,-18,-15,-9,-3
22:31:16:869402,11,22,22,-15,-9,-7,2,-18
22:31:16:870215,11,22,22,-15,-9,-7,2,-18
22:31:16:876176,-23,21,33,3,2,6,-4,-4
22:31:16:891890,10,-17,-14,-42,-14,-6,4,4
22:31:16:892701,10,-17,-14,-42,-14,-6,4,4
22:31:16:898650,-10,-30,4,7,-5,-8,-10,2
22:31:16:906216,-9,16,22,16,3,0,-22,-3
22:31:16:913782,-9,16,22,16,3,0,-22,-3
22:31:16:921190,-12,-1,23,2,2,5,-1,4
22:31:16:929417,-16,-7,-16,5,0,3,-14,-3
22:31:16:930293,-16,-7,-16,5,0,3,-14,-3
22:31:16:936209,9,-22,-26,9,-3,-3,-6,-17
22:31:16:951920,-1,-17,-18,-15,-2,-3,7,10
22:31:16:952737,-1,-17,-18,-15,-2,-3,7,10
22:31:16:958708,-11,1,11,12,5,9,32,5
22:31:16:966199,-23,-12,-13,-18,-7,-3,10,3
22:31:16:973778,-23,-12,-13,-18,-7,-3,10,3
22:31:16:981230,7,2,40,17,-2,-9,-4,-12
22:31:16:989369,8,-21,10,11,2,4,-7,-15
22:31:16:990178,8,-21,10,11,2,4,-7,-15
22:31:16:996219,-44,-57,-26,-23,3,-1,-6,3
22:31:17:11943,-9,17,-14,3,0,-4,-15,15
22:31:17:12722,-9,17,-14,3,0,-4,-15,15
22:31:17:18722,34,33,4,-1,3,-8,-35,-6
22:31:17:26221,3,15,5,-2,-2,-1,19,9
22:31:17:33722,3,15,5,-2,-2,-1,19,9
22:31:17:41185,6,-4,14,10,-3,-5,13,4
22:31:17:49430,5,-2,-47,-9,6,6,-1,4
22:31:17:50167,5,-2,-47,-9,6,6,-1,4
22:31:17:56144,8,30,-24,-6,-5,2,3,5
22:31:17:71854,-9,1,8,6,6,-1,16,-4
22:31:17:72673,-9,1,8,6,6,-1,16,-4
22:31:17:78717,-6,4,-2,7,-1,-4,-3,-7
22:31:17:86233,3,-15,-4,27,-5,5,-9,-20
22:31:17:93743,3,-15,-4,27,-5,5,-9,-20
22:31:17:101159,14,43,-12,-19,2,1,-3,6
22:31:17:109379,-5,-26,-10,10,-11,-8,-26,-9
22:31:17:110202,-5,-26,-10,10,-11,-8,-26,-9
22:31:17:116209,7,5,-9,-9,-6,3,11,1
22:31:17:131869,16,58,31,7,-2,-7,-5,5
22:31:17:132705,16,58,31,7,-2,-7,-5,5
22:31:17:138670,-28,-59,-33,6,15,3,-1,-3
22:31:17:146359,1,33,41,-7,0,-7,-3,-5
22:31:17:153792,1,33,41,-7,0,-7,-3,-5
22:31:17:161334,13,-12,-16,-2,8,9,-2,0
22:31:17:169390,-15,-30,-2,-1,-5,-13,-20,4
22:31:17:170227,-15,-30,-2,-1,-5,-13,-20,4
22:31:17:176184,4,-17,15,20,9,7,4,-4
22:31:17:191898,2,15,9,-3,5,9,4,3
22:31:17:192713,2,15,9,-3,5,9,4,3
22:31:17:198697,-20,-55,-18,-28,-13,-2,1,-7
22:31:17:206220,-6,1,-1,-15,-9,-11,-16,-11
22:31:17:213806,-6,1,-1,-15,-9,-11,-16,-11
22:31:17:221194,9,29,15,-4,-4,3,15,-2
22:31:17:229364,-26,3,4,25,11,1,15,4
22:31:17:230182,-26,3,4,25,11,1,15,4
22:31:17:236234,1,42,25,6,2,1,1,2
22:31:17:251868,10,21,19,10,4,2,1,-8
22:31:17:252719,10,21,19,10,4,2,1,-8
22:31:17:258669,1,36,2,7,-4,-3,2,1
22:31:17:266182,-7,-15,-8,8,0,4,4,0
22:31:17:273790,-7,-15,-8,8,0,4,4,0
22:31:17:281232,8,-18,-31,-5,10,4,-2,10
22:31:17:289378,2,-31,-12,8,-1,1,12,0
22:31:17:290179,2,-31,-12,8,-1,1,12,0
22:31:17:296224,-32,-35,-6,-35,-23,-15,-36,-29
22:31:17:311852,-47,-37,-5,-21,2,4,35,5
22:31:17:312666,-47,-37,-5,-21,2,4,35,5
22:31:17:318707,13,36,-18,31,8,2,8,0
22:31:17:326193,14,-9,-14,-26,-20,-10,-1,9
22:31:17:333727,14,-9,-14,-26,-20,-10,-1,9
22:31:17:341234,10,-7,3,1,-1,-2,-1,-1
22:31:17:349364,32,30,-32,-4,6,10,5,7
22:31:17:350193,32,30,-32,-4,6,10,5,7
22:31:17:356156,1,5,5,12,-18,-15,-15,-7
22:31:17:371885,2,-1,20,16,0,2,-5,14
22:31:17:372687,2,-1,20,16,0,2,-5,14
22:31:17:378713,4,2,6,-20,-4,-2,23,5
22:31:17:386204,-14,-38,-31,-17,-2,2,-13,-14
22:31:17:393747,-14,-38,-31,-17,-2,2,-13,-14
22:31:17:401171,-33,23,-1,0,-6,-5,7,-9
22:31:17:409413,17,49,22,14,9,6,-15,2
22:31:17:410216,17,49,22,14,9,6,-15,2
22:31:17:416172,29,35,-61,-1,0,-4,-6,23
22:31:17:431884,-12,16,36,10,-11,-15,-4,-14
22:31:17:432709,-12,16,36,10,-11,-15,-4,-14
22:31:17:438674,3,-25,23,12,4,0,-10,0
22:31:17:446205,19,9,13,-9,-3,0,1,10
22:31:17:453766,19,9,13,-9,-3,0,1,10
22:31:17:461213,2,-12,9,4,7,2,-14,8
22:31:17:469385,-3,-4,-3,-13,1,-3,10,1
22:31:17:470230,-3,-4,-3,-13,1,-3,10,1
22:31:17:476163,-51,-36,9,0,-5,-4,3,2
22:31:17:491914,14,23,-12,-22,-8,0,14,4
22:31:17:492702,14,23,-12,-22,-8,0,14,4
22:31:17:498711,29,-9,17,-10,-9,-3,6,-16
22:31:17:506201,-24,-4,21,9,-8,-7,-16,-9
22:31:17:513776,-24,-4,21,9,-8,-7,-16,-9
22:31:17:521189,-11,-79,-6,-7,-4,-2,13,4
22:31:17:529327,-3,-22,4,10,11,5,-8,-13
22:31:17:530145,-3,-22,4,10,11,5,-8,-13
22:31:17:536209,-33,-5,4,-27,-3,-1,-5,-5
22:31:17:551891,7,-18,7,0,13,9,13,0
22:31:17:552741,7,-18,7,0,13,9,13,0
22:31:17:558700,45,51,33,15,3,8,1,-5
22:31:17:566188,1,3,-6,-16,-6,0,-7,-6
22:31:17:573742,1,3,-6,-16,-6,0,-7,-6
22:31:17:581219,-2,-26,-32,6,-2,-10,-8,7
22:31:17:589373,7,-6,-16,33,4,1,16,-8
22:31:17:590186,7,-6,-16,33,4,1,16,-8
22:31:17:603699,-6,5,11,20,5,3,-9,-5
22:31:17:611846,7,14,-9,-20,-10,-5,-7,6
22:31:17:612687,7,14,-9,-20,-10,-5,-7,6
22:31:17:618719,18,26,-13,-13,-2,-1,3,16
22:31:17:634380,-2,10,23,17,14,6,-2,-25
22:31:17:635280,-2,10,23,17,14,6,-2,-25
22:31:17:641187,-33,-51,-15,-20,-6,-8,-4,-7
22:31:17:649354,8,-12,-19,-7,-4,-8,-23,9
22:31:17:650185,8,-12,-19,-7,-4,-8,-23,9
22:31:17:663744,22,7,-25,-10,12,9,-17,7
22:31:17:671908,-24,-27,-7,-7,-10,-2,-12,-13
22:31:17:672740,-24,-27,-7,-7,-10,-2,-12,-13
22:31:17:678700,9,-42,-15,11,8,2,-3,8
22:31:17:694397,2,13,-50,-9,-6,-4,0,17
22:31:17:695225,2,13,-50,-9,-6,-4,0,17
22:31:17:701194,-31,-9,21,-3,-16,-10,-2,-9
22:31:17:709427,-2,-19,22,2,-4,-3,5,-3
22:31:17:710305,-2,-19,22,2,-4,-3,5,-3
22:31:17:723704,4,33,-35,2,-2,-10,-7,-4
22:31:17:731891,-2,-11,1,1,-1,5,2,2
22:31:17:732726,-2,-11,1,1,-1,5,2,2
22:31:17:738724,4,3,5,-17,3,3,-3,-12
22:31:17:754427,29,18,-25,-52,-2,9,12,13
22:31:17:755245,29,18,-25,-52,-2,9,12,13
22:31:17:761191,10,58,51,18,7,4,3,-5
22:31:17:769395,7,32,67,20,0,-12,-13,10
22:31:17:770209,7,32,67,20,0,-12,-13,10
22:31:17:783676,1,30,-8,-10,-9,-2,0,-11
22:31:17:792550,11,42,20,8,-4,-7,-9,-3
22:31:17:793359,11,42,20,8,-4,-7,-9,-3
22:31:17:798723,-5,-18,44,13,1,8,29,-4
22:31:17:814405,-3,-16,-8,3,2,-7,-10,-3
22:31:17:815192,-3,-16,-8,3,2,-7,-10,-3
22:31:17:821182,-7,-9,-9,-4,-6,1,3,-2
22:31:17:829414,-34,-34,10,22,11,12,35,-4
22:31:17:830221,-34,-34,10,22,11,12,35,-4
22:31:17:843657,-6,-3,-2,2,-3,-5,1,2
22:31:17:851904,-6,-3,-2,2,-3,-5,1,2
22:31:17:852744,-8,-68,-22,-9,2,-5,-1,-19
22:31:17:858682,9,24,27,-1,2,2,-5,2
22:31:17:874394,9,24,27,-1,2,2,-5,2
22:31:17:875185,0,-10,-16,5,3,3,4,2
22:31:17:881170,-7,-45,-51,-5,0,-1,-1,-11
22:31:17:889405,-7,-45,-51,-5,0,-1,-1,-11
22:31:17:890215,-5,20,-14,-10,-11,-6,-2,3
22:31:17:903712,-18,3,19,39,14,1,-18,-11
22:31:17:911943,-18,3,19,39,14,1,-18,-11
22:31:17:912695,-1,16,-16,6,2,1,-2,0
22:31:17:918668,14,1,-6,0,-12,-4,10,4
22:31:17:934388,14,1,-6,0,-12,-4,10,4
22:31:17:935194,12,10,1,12,1,4,3,30
22:31:17:941174,17,-22,-22,-14,-1,1,0,-10
22:31:17:949402,17,-22,-22,-14,-1,1,0,-10
22:31:17:950201,-27,-15,3,-17,-5,-5,-12,-5
22:31:17:963721,33,42,44,4,5,1,-9,23
22:31:17:971924,33,42,44,4,5,1,-9,23
22:31:17:972685,12,-48,-11,2,17,7,-5,-6
22:31:17:978688,7,-14,-6,7,-3,-7,-5,9
22:31:17:994379,7,-14,-6,7,-3,-7,-5,9
22:31:17:995194,-8,36,26,-15,-9,-8,0,-10
22:31:18:1226,-20,-20,-1,26,13,8,14,10
22:31:18:16949,-20,-20,-1,26,13,8,14,10
22:31:18:17733,3,16,-17,-6,4,5,-7,14
22:31:18:23677,-1,-8,-11,-1,-10,-19,-28,-12
22:31:18:31895,-1,-8,-11,-1,-10,-19,-28,-12
22:31:18:32693,16,19,9,-3,2,9,-1,-2
22:31:18:38807,5,13,-18,-19,-1,5,6,2
22:31:18:54441,5,13,-18,-19,-1,5,6,2
22:31:18:55179,1,-44,-13,6,-19,-13,-15,0
22:31:18:61199,-19,-14,17,-13,3,6,18,-10
22:31:18:68734,-19,-14,17,-13,3,6,18,-10
22:31:18:76217,32,77,25,9,-14,-4,-22,0
22:31:18:83728,-3,-38,7,-5,-5,4,15,0
22:31:18:91908,-3,-38,7,-5,-5,4,15,0
22:31:18:92694,3,-44,-44,12,2,-3,4,-2
22:31:18:98653,23,31,23,4,-1,-1,-1,-1
22:31:18:114386,23,31,23,4,-1,-1,-1,-1
22:31:18:115171,-28,3,-13,-18,-5,-2,2,-8
22:31:18:121247,-12,38,20,3,-6,-2,-7,-13
22:31:18:128737,-12,38,20,3,-6,-2,-7,-13
22:31:18:136163,-8,1,12,-34,-8,3,21,14
22:31:18:143667,-12,-17,-22,6,10,11,-12,-27
22:31:18:151937,-12,-17,-22,6,10,11,-12,-27
22:31:18:152704,17,26,-21,10,8,2,7,0
22:31:18:158697,0,11,-39,-38,-23,-17,-24,10
22:31:18:174409,0,11,-39,-38,-23,-17,-24,10
22:31:18:175174,-10,-53,-49,3,1,11,5,-6
22:31:18:181197,5,40,27,5,-2,2,1,4
22:31:18:188753,5,40,27,5,-2,2,1,4
22:31:18:196179,17,35,17,6,-7,-6,-4,3
22:31:18:203667,-17,9,-2,-4,-3,2,5,0
22:31:18:211950,-17,9,-2,-4,-3,2,5,0
22:31:18:212709,-12,-17,16,3,-1,-6,3,-9
22:31:18:218716,3,9,-7,-4,-7,-5,-1,6
22:31:18:234395,3,9,-7,-4,-7,-5,-1,6
22:31:18:235186,-2,-37,-24,1,-1,-8,-4,1
22:31:18:241188,-15,-22,1,-3,5,2,9,7
22:31:18:248744,-15,-22,1,-3,5,2,9,7
22:31:18:256208,-17,2,24,-7,4,0,14,3
22:31:18:263696,-13,-51,-6,20,3,1,-7,-6
22:31:18:271935,-13,-51,-6,20,3,1,-7,-6
22:31:18:272738,-13,13,15,-16,-15,-4,8,-2
22:31:18:278697,25,23,-20,-5,0,-3,-6,2
22:31:18:294436,25,23,-20,-5,0,-3,-6,2
22:31:18:295213,-7,15,-20,-24,19,3,-6,-3
22:31:18:301193,16,45,-7,-3,0,-10,-10,15
22:31:18:308695,16,45,-7,-3,0,-10,-10,15
22:31:18:316179,1,-15,39,17,5,10,13,-4
22:31:18:323713,-12,0,-11,-9,-6,-12,-16,-9
22:31:18:331880,-12,0,-11,-9,-6,-12,-16,-9
22:31:18:332706,-14,14,2,7,1,-1,-1,-9
22:31:18:338715,-9,-11,-34,-11,-7,-8,-32,6
22:31:18:354370,-9,-11,-34,-11,-7,-8,-32,6
22:31:18:355170,-13,38,2,15,2,2,-16,-20
22:31:18:361202,-4,-9,11,-15,8,6,12,2
22:31:18:368733,-4,-9,11,-15,8,6,12,2
22:31:18:376158,0,5,-31,-11,-19,-15,-17,-6
22:31:18:383714,-5,-10,2,1,-4,-1,23,-7
22:31:18:391929,-5,-10,2,1,-4,-1,23,-7
22:31:18:392691,-3,-19,0,-11,5,6,0,0
22:31:18:398693,-8,-87,25,33,11,6,2,-3
22:31:18:414405,-8,-87,25,33,11,6,2,-3
22:31:18:415179,-1,26,-6,0,-5,-5,-7,-4
22:31:18:421156,20,22,12,3,-2,-9,-8,1
22:31:18:428719,20,22,12,3,-2,-9,-8,1
22:31:18:436191,4,-20,8,33,9,4,-4,-4
22:31:18:443675,-5,16,-1,3,-7,7,-3,-10
22:31:18:451923,-5,16,-1,3,-7,7,-3,-10
22:31:18:452724,-2,-14,2,-6,9,1,-9,1
22:31:18:458922,0,13,2,1,3,8,20,-2
22:31:18:474412,0,13,2,1,3,8,20,-2
22:31:18:475196,-5,15,15,-3,-4,-6,-9,-3
22:31:18:481183,10,11,-21,-6,3,-1,0,2
22:31:18:488761,10,11,-21,-6,3,-1,0,2
22:31:18:496170,-3,-64,-18,6,-16,-9,-1,-5
22:31:18:503684,11,43,-20,-24,-10,-1,0,-5
22:31:18:511947,11,43,-20,-24,-10,-1,0,-5
22:31:18:512709,-2,-36,-32,-14,-14,-13,-4,1
22:31:18:526178,9,-1,-5,3,0,-2,-1,16
22:31:18:534401,9,-1,-5,3,0,-2,-1,16
22:31:18:535258,1,-44,15,-2,-11,-7,-18,-3
22:31:18:541181,-13,36,26,6,5,7,9,2
22:31:18:556882,-13,36,26,6,5,7,9,2
22:31:18:557698,-4,-31,1,3,7,-3,10,5
22:31:18:563668,11,2,35,-11,0,5,12,8
22:31:18:571940,11,2,35,-11,0,5,12,8
22:31:18:572722,-2,30,-8,2,5,8,4,7
22:31:18:586167,-11,-19,13,10,-5,-7,-16,-12
22:31:18:594413,-11,-19,13,10,-5,-7,-16,-12
22:31:18:595184,19,24,-3,-15,4,12,10,4
22:31:18:601176,8,7,4,2,2,2,15,15
22:31:18:608752,8,7,4,2,2,2,15,15
22:31:18:616198,-16,54,22,17,20,6,0,-7
22:31:18:623677,-36,-82,-60,-23,-2,-8,-33,-16
22:31:18:631932,-36,-82,-60,-23,-2,-8,-33,-16
22:31:18:632706,-11,11,-9,-5,0,-3,1,0
22:31:18:646222,11,7,26,3,-1,1,7,-6
22:31:18:654432,11,7,26,3,-1,1,7,-6
22:31:18:655211,33,39,5,-14,-13,-6,-10,24
22:31:18:661383,1,-6,-6,-18,13,6,-4,-2
22:31:18:668783,1,-6,-6,-18,13,6,-4,-2
22:31:18:676212,23,23,11,5,7,6,4,-4
22:31:18:692607,4,-42,35,21,-7,-8,3,0
22:31:18:693410,4,-42,35,21,-7,-8,3,0
22:31:18:694185,-9,-29,-22,14,-19,-10,5,-3
22:31:18:706187,-3,-26,-6,1,-3,-7,5,-2
22:31:18:714396,-3,-26,-6,1,-3,-7,5,-2
22:31:18:715215,-18,-35,8,-6,-10,0,2,14
22:31:18:721347,2,35,-22,10,1,-4,12,-18
22:31:18:728753,2,35,-22,10,1,-4,12,-18
22:31:18:736195,-4,-8,-24,13,10,1,0,-15
22:31:18:743674,15,75,7,-13,-8,0,-6,6
22:31:18:751909,15,75,7,-13,-8,0,-6,6
22:31:18:752731,13,22,3,-20,15,7,0,-6
22:31:18:766190,-9,-14,23,0,-7,-5,-8,-2
22:31:18:774432,-9,-14,23,0,-7,-5,-8,-2
22:31:18:775234,-5,1,47,-4,-10,1,2,2
22:31:18:781180,13,40,-29,-1,-11,-3,-8,-6
22:31:18:788781,13,40,-29,-1,-11,-3,-8,-6
22:31:18:796213,13,-10,-12,-18,-1,-1,-3,1
22:31:18:803722,-20,-6,-9,-10,18,10,6,8
22:31:18:811906,-20,-6,-9,-10,18,10,6,8
22:31:18:812683,-2,4,8,22,-7,-11,-13,-6
22:31:18:826214,-14,-16,12,11,-2,0,-1,9
22:31:18:834499,-14,-16,12,11,-2,0,-1,9
22:31:18:835217,-10,-16,-38,-4,1,2,3,0
22:31:18:841200,-15,-17,-17,-13,-3,-1,2,-2
22:31:18:848730,-15,-17,-17,-13,-3,-1,2,-2
22:31:18:856255,3,4,51,-7,-11,-9,-7,-2
22:31:18:863741,11,35,49,6,8,4,-1,-13
22:31:18:871873,11,35,49,6,8,4,-1,-13
22:31:18:872710,0,34,-6,-7,-7,-4,-2,-12
22:31:18:886213,16,13,22,3,3,4,9,15
22:31:18:894378,16,13,22,3,3,4,9,15
22:31:18:895169,-13,-36,-5,1,6,2,0,2
22:31:18:901237,-8,-42,-47,20,-2,-5,-8,-13
22:31:18:908739,-8,-42,-47,20,-2,-5,-8,-13
22:31:18:916216,-3,-17,-12,-11,4,-4,-12,-12
22:31:18:923671,-3,34,9,2,-1,3,-1,-1
22:31:18:931896,-3,34,9,2,-1,3,-1,-1
22:31:18:932701,-23,-22,1,9,-8,-2,-1,-4
22:31:18:946221,21,1,12,4,1,2,-14,6
22:31:18:954416,21,1,12,4,1,2,-14,6
22:31:18:955214,12,14,4,11,-2,-2,-6,2
22:31:18:961170,-1,-12,-14,-10,-15,-7,5,4
22:31:18:968789,-1,-12,-14,-10,-15,-7,5,4
22:31:18:976195,-18,-43,9,10,9,13,4,0
22:31:18:983687,-3,13,-5,-14,-12,-10,-11,7
22:31:18:991891,-3,13,-5,-14,-12,-10,-11,7
22:31:18:992748,3,17,-20,-21,-14,-6,3,-9
22:31:19:6182,-2,-26,-40,-36,9,8,14,6
22:31:19:14411,-2,-26,-40,-36,9,8,14,6
22:31:19:15203,-15,10,-12,10,2,2,-9,-9
22:31:19:21200,-10,-73,-5,2,-11,-11,-10,-9
22:31:19:28757,-10,-73,-5,2,-11,-11,-10,-9
22:31:19:36212,13,7,-9,-9,14,-1,-12,-1
22:31:19:43683,-22,-15,3,-3,-4,-3,-4,-6
22:31:19:51927,-22,-15,3,-3,-4,-3,-4,-6
22:31:19:52719,9,10,-41,2,5,8,5,-12
22:31:19:66185,10,4,-7,-2,6,6,20,6
22:31:19:74414,10,4,-7,-2,6,6,20,6
22:31:19:75224,18,30,31,-8,-8,-5,8,10
22:31:19:81226,-26,-4,1,6,-10,-7,-15,-21
22:31:19:88777,-26,-4,1,6,-10,-7,-15,-21
22:31:19:96201,-8,-23,-23,-9,2,3,4,8
22:31:19:103729,-15,-10,5,-8,-3,-1,-5,-10
22:31:19:111900,-15,-10,5,-8,-3,-1,-5,-10
22:31:19:112678,3,-9,1,15,6,6,10,12
22:31:19:126221,2,7,-25,4,6,2,-1,-1
22:31:19:134387,2,7,-25,4,6,2,-1,-1
22:31:19:135178,10,-9,13,-5,7,0,-3,-18
22:31:19:141224,3,-18,12,15,-1,-4,4,7
22:31:19:148758,3,-18,12,15,-1,-4,4,7
22:31:19:156160,5,10,-2,-2,-12,-9,-7,1
22:31:19:163713,2,12,-14,12,11,8,-4,-1
22:31:19:171893,2,12,-14,12,11,8,-4,-1
22:31:19:172699,-10,-10,11,-2,-8,-1,15,1
22:31:19:186218,15,18,37,-25,-2,2,24,24
22:31:19:194402,15,18,37,-25,-2,2,24,24
22:31:19:195201,-13,-35,-36,12,16,3,3,0
22:31:19:201205,12,-17,-5,-11,-2,-5,-13,-23
22:31:19:208757,12,-17,-5,-11,-2,-5,-13,-23
22:31:19:216205,16,15,28,3,-17,-12,-8,-2
22:31:19:232552,-52,-31,-29,-2,-8,-10,-6,-8
22:31:19:233361,-52,-31,-29,-2,-8,-10,-6,-8
22:31:19:234165,-12,26,4,-5,2,4,0,-7
22:31:19:246197,12,7,-19,6,-8,1,-2,2
22:31:19:254384,12,7,-19,6,-8,1,-2,2
22:31:19:255211,-6,-23,25,-3,-6,-3,-11,4
22:31:19:261222,1,26,6,7,-8,-2,1,2
22:31:19:268756,1,26,6,7,-8,-2,1,2
22:31:19:276180,21,17,28,-7,3,0,-1,0
22:31:19:283703,5,-31,-27,1,3,-2,-14,-2
22:31:19:291888,5,-31,-27,1,3,-2,-14,-2
22:31:19:292772,18,31,12,5,5,2,10,9
22:31:19:306215,-3,28,21,-27,6,3,0,5
22:31:19:314398,-3,28,21,-27,6,3,0,5
22:31:19:315189,-18,-50,-21,-16,-1,-3,-14,-3
22:31:19:321156,0,20,-33,14,16,15,10,-5
22:31:19:328730,0,20,-33,14,16,15,10,-5
22:31:19:336166,23,41,-24,14,15,11,16,21
22:31:19:343699,-6,15,19,8,-13,-12,-10,-15
22:31:19:351924,-6,15,19,8,-13,-12,-10,-15
22:31:19:352682,-12,-54,-11,2,-11,-12,-12,-10
22:31:19:366181,14,6,3,11,7,13,15,19
22:31:19:374419,14,6,3,11,7,13,15,19
22:31:19:375227,-19,7,8,-21,0,-5,13,-4
22:31:19:381191,10,-19,17,5,-4,-3,1,-14
22:31:19:388778,10,-19,17,5,-4,-3,1,-14
22:31:19:396211,2,16,2,-18,-8,-3,-10,4
22:31:19:403665,-10,-7,-20,-13,-3,-5,3,21
22:31:19:411902,-10,-7,-20,-13,-3,-5,3,21
22:31:19:412720,-5,-10,-23,-1,16,9,-2,0
22:31:19:426186,-31,-6,2,3,-2,-2,-15,-10
22:31:19:434409,-31,-6,2,3,-2,-2,-15,-10
22:31:19:435195,-1,46,-24,-33,-13,-1,-14,5
22:31:19:441182,-5,-4,19,-5,4,2,-1,3
22:31:19:448765,-5,-4,19,-5,4,2,-1,3
22:31:19:456214,-4,-8,27,20,-2,0,-2,1
22:31:19:463703,2,15,12,1,-8,-8,5,-9
22:31:19:471226,2,15,12,1,-8,-8,5,-9
22:31:19:478723,10,9,7,6,3,3,10,-4
22:31:19:486218,-13,-25,1,8,9,-3,-18,-10
22:31:19:494375,-13,-25,1,8,9,-3,-18,-10
22:31:19:495196,18,5,4,3,0,0,-15,-21
22:31:19:509361,23,22,13,-25,-11,4,18,3
22:31:19:510175,23,22,13,-25,-11,4,18,3
22:31:19:516195,1,3,-25,-12,-12,-7,4,1
22:31:19:531913,23,12,-6,18,15,11,-1,0
22:31:19:532736,23,12,-6,18,15,11,-1,0
22:31:19:538709,-8,-15,22,15,6,-6,15,-6
22:31:19:546186,-7,-9,-13,-9,-12,-7,-5,-17
22:31:19:554399,-7,-9,-13,-9,-12,-7,-5,-17
22:31:19:555181,2,6,-17,14,-5,-3,-7,8
22:31:19:569422,-12,-8,-23,5,-5,-9,-13,-10
22:31:19:570258,-12,-8,-23,5,-5,-9,-13,-10
22:31:19:576200,-16,-1,0,-1,-9,-8,-4,-4
22:31:19:583701,13,19,7,14,0,-3,-5,7
22:31:19:591232,13,19,7,14,0,-3,-5,7
22:31:19:598725,-27,-38,-2,4,-1,0,-2,4
22:31:19:606240,5,14,13,5,3,1,0,-1
22:31:19:614387,5,14,13,5,3,1,0,-1
22:31:19:615205,23,25,22,3,6,0,8,6
22:31:19:629359,9,-7,-7,-16,-4,0,4,-8
22:31:19:630202,9,-7,-7,-16,-4,0,4,-8
22:31:19:636231,-5,-29,-30,-16,-11,-1,-7,-7
22:31:19:643738,4,11,-2,-14,2,3,9,10
22:31:19:651241,4,11,-2,-14,2,3,9,10
22:31:19:658675,-5,12,-8,16,10,5,4,0
22:31:19:666196,-7,-17,25,7,-3,-7,-2,-5
22:31:19:674383,-7,-17,25,7,-3,-7,-2,-5
22:31:19:675193,8,2,-13,0,-5,-3,6,16
22:31:19:689360,2,7,-17,-4,1,-3,-3,5
22:31:19:690174,2,7,-17,-4,1,-3,-3,5
22:31:19:696136,-4,-3,5,-5,-9,-5,-13,-2
22:31:19:703657,8,14,-53,-14,-1,-4,-12,6
22:31:19:711251,8,14,-53,-14,-1,-4,-12,6
22:31:19:718690,0,-31,18,-7,-6,-2,0,-3
22:31:19:726201,-7,-15,16,-9,-2,1,2,2
22:31:19:734414,-7,-15,16,-9,-2,1,2,2
22:31:19:735216,-14,10,-29,-12,-4,2,-2,-5
22:31:19:749385,13,-1,3,8,4,3,8,5
22:31:19:750210,13,-1,3,8,4,3,8,5
22:31:19:756218,8,16,18,2,-1,-4,-2,-7
22:31:19:763678,-11,-28,-9,5,-10,-6,-2,4
22:31:19:771254,-11,-28,-9,5,-10,-6,-2,4
22:31:19:778729,-8,-11,-19,-3,2,4,0,-6
22:31:19:786240,-5,-17,-31,-19,-12,-8,1,-3
22:31:19:794417,-5,-17,-31,-19,-12,-8,1,-3
22:31:19:795202,-6,12,-2,18,9,-4,-3,-3
22:31:19:809405,0,-5,13,0,5,4,4,-3
22:31:19:810219,0,-5,13,0,5,4,4,-3
22:31:19:816203,1,-3,3,21,12,7,10,4
22:31:19:823701,-18,-12,-4,-6,-1,1,-10,-6
22:31:19:831279,-18,-12,-4,-6,-1,1,-10,-6
22:31:19:838734,-6,-11,7,1,-8,-9,-8,-8
22:31:19:846187,2,7,5,0,-1,-1,14,-18
22:31:19:854371,2,7,5,0,-1,-1,14,-18
22:31:19:855196,16,33,19,-11,8,2,-7,8
22:31:19:869435,-3,-6,-29,-3,-4,-1,-5,4
22:31:19:870233,-3,-6,-29,-3,-4,-1,-5,4
22:31:19:876212,-5,-13,13,5,-7,-1,2,1
22:31:19:883670,-8,-1,14,7,10,7,17,9
22:31:19:891214,-8,-1,14,7,10,7,17,9
22:31:19:898720,-3,-10,-10,3,-10,-5,-3,-1
22:31:19:906245,15,14,7,3,0,5,3,6
22:31:19:914537,15,14,7,3,0,5,3,6
22:31:19:915195,-12,-15,-15,-23,-7,-3,0,-6
22:31:19:929377,3,-2,14,-6,-4,-7,-8,7
22:31:19:930179,3,-2,14,-6,-4,-7,-8,7
22:31:19:936218,10,18,4,-12,1,4,1,6
22:31:19:943750,2,-8,-11,-2,-7,-3,-19,-7
22:31:19:951246,2,-8,-11,-2,-7,-3,-19,-7
22:31:19:958707,11,-4,-26,-21,-18,-4,-6,-2
22:31:19:966158,-9,16,23,15,8,1,-12,-8
22:31:19:974388,-9,16,23,15,8,1,-12,-8
22:31:19:975203,6,11,-6,4,1,-3,-4,-11
22:31:19:989400,-4,-10,13,18,-8,-5,9,11
22:31:19:990206,-4,-10,13,18,-8,-5,9,11
22:31:19:996172,-4,17,17,1,-7,-8,-9,-5
22:31:20:3675,10,4,-15,-8,-2,1,3,10
22:31:20:11239,10,4,-15,-8,-2,1,3,10
22:31:20:18702,-7,-27,-11,-2,-2,-5,-4,-11
22:31:20:26204,-6,2,8,21,10,7,0,-11
22:31:20:34435,-6,2,8,21,10,7,0,-11
22:31:20:35220,4,17,-20,1,7,2,3,12
22:31:20:49401,1,11,9,-2,-2,0,5,-8
22:31:20:50206,1,11,9,-2,-2,0,5,-8
22:31:20:56199,-15,-47,-26,-15,0,4,6,3
22:31:20:63707,-7,-23,-23,-15,6,-1,-6,-9
22:31:20:71289,-7,-23,-23,-15,6,-1,-6,-9
22:31:20:78685,5,44,35,10,0,0,6,20
22:31:20:86180,-4,-11,-1,0,-11,-9,-20,0
22:31:20:94444,-4,-11,-1,0,-11,-9,-20,0
22:31:20:95239,-3,-21,-4,8,4,6,8,-8
22:31:20:109388,4,1,-42,-10,14,4,-2,6
22:31:20:110233,4,1,-42,-10,14,4,-2,6
22:31:20:116194,-8,-6,25,2,0,-2,0,4
22:31:20:123695,-8,10,21,-3,-4,-9,4,-7
22:31:20:131268,-8,10,21,-3,-4,-9,4,-7
22:31:20:138710,18,-10,16,20,-9,-5,-6,-8
22:31:20:146238,-15,-9,-11,-19,-12,-13,-12,-3
22:31:20:154385,-15,-9,-11,-19,-12,-13,-12,-3
22:31:20:155156,4,18,-4,-6,-5,-2,9,0
22:31:20:169444,-1,6,-3,7,-2,4,0,-1
22:31:20:170233,-1,6,-3,7,-2,4,0,-1
22:31:20:176208,-16,-53,4,-6,0,-1,-9,-3
22:31:20:183711,-3,-8,-37,-13,-3,-6,19,3
22:31:20:191224,-3,-8,-37,-13,-3,-6,19,3
22:31:20:198707,-4,11,9,0,5,5,9,-5
22:31:20:206213,10,5,21,-3,-6,0,-5,7
22:31:20:214369,10,5,21,-3,-6,0,-5,7
22:31:20:215207,0,2,-25,-20,0,-2,-5,-4
22:31:20:229391,7,-10,0,22,7,7,8,2
22:31:20:230181,7,-10,0,22,7,7,8,2
22:31:20:236199,-2,35,7,-6,0,3,3,-6
22:31:20:243725,-5,-4,-7,-14,-1,-1,-8,0
22:31:20:251257,-5,-4,-7,-14,-1,-1,-8,0
22:31:20:258657,4,-34,-21,6,-3,-8,-10,2
22:31:20:266177,5,-8,8,10,-3,-3,-1,0
22:31:20:274412,5,-8,8,10,-3,-3,-1,0
22:31:20:275191,-3,-7,5,-4,6,1,-11,-2
22:31:20:289376,-7,7,23,-1,4,-6,-15,-22
22:31:20:290205,-7,7,23,-1,4,-6,-15,-22
22:31:20:296162,6,-17,10,1,0,2,5,3
22:31:20:303694,12,18,23,7,-2,1,10,8
22:31:20:311269,12,18,23,7,-2,1,10,8
22:31:20:318711,2,4,0,-12,-6,-6,-2,4
22:31:20:326180,-17,4,-6,-9,-4,-5,-7,-7
22:31:20:334431,-17,4,-6,-9,-4,-5,-7,-7
22:31:20:335230,5,16,5,17,4,2,2,8
22:31:20:349435,8,30,6,-3,-9,-1,-4,2
22:31:20:350208,8,30,6,-3,-9,-1,-4,2
22:31:20:356186,-22,-18,9,4,-7,-4,-3,-10
22:31:20:363698,0,-23,18,9,4,1,12,12
22:31:20:371277,0,-23,18,9,4,1,12,12
22:31:20:378733,2,4,-15,1,2,2,4,-4
