Time,EMG1,EMG2,EMG3,EMG4,EMG5,EMG6,EMG7,EMG8
18:17:36:565364,-3,-5,-6,-4,-1,1,0,9
18:17:36:566208,-3,-5,-6,-4,-1,1,0,9
18:17:36:572191,-9,0,-1,-3,-3,1,-1,-7
18:17:36:579648,-2,0,-1,-2,2,1,-1,0
18:17:36:587245,-2,0,-1,-2,2,1,-1,0
18:17:36:594667,-2,-2,-1,-3,2,-1,1,-12
18:17:36:602154,-6,0,-1,-4,0,2,1,-10
18:17:36:610381,-6,0,-1,-4,0,2,1,-10
18:17:36:611154,-2,0,3,1,-2,1,-2,-7
18:17:36:625357,-1,2,4,1,-1,-2,-1,-2
18:17:36:626127,-1,2,4,1,-1,-2,-1,-2
18:17:36:632176,4,-1,1,0,1,-5,-4,11
18:17:36:647877,-1,3,1,-1,-2,-1,0,2
18:17:36:648729,-1,3,1,-1,-2,-1,0,2
18:17:36:654668,-1,3,-4,0,-2,-2,0,-2
18:17:36:662184,5,-2,-3,0,2,-3,0,-5
18:17:36:669739,5,-2,-3,0,2,-3,0,-5
18:17:36:677156,-5,-4,0,0,0,1,-2,-3
18:17:36:685361,3,3,-2,-1,0,1,0,-7
18:17:36:686161,3,3,-2,-1,0,1,0,-7
18:17:36:692185,0,-4,-4,-4,1,-3,-2,10
18:17:36:707814,2,-2,1,-1,-1,0,-3,-39
18:17:36:708637,2,-2,1,-1,-1,0,-3,-39
18:17:36:722873,-3,-2,-4,-1,-1,0,-1,15
18:17:36:723632,0,-1,-5,0,-3,-1,0,8
18:17:36:729768,0,-1,-5,0,-3,-1,0,8
18:17:36:737194,-2,0,-2,0,0,1,-1,-10
18:17:36:745319,-7,-3,1,-1,0,1,1,-12
18:17:36:746159,-7,-3,1,-1,0,1,1,-12
18:17:36:752168,-7,-4,-2,-4,0,1,0,-5
18:17:36:767883,-3,-2,-3,-1,1,0,-3,3
18:17:36:768695,-3,-2,-3,-1,1,0,-3,3
18:17:36:774661,1,2,1,-1,0,0,-1,-13
18:17:36:782189,-2,0,-2,0,-1,-1,0,13
18:17:36:797879,-2,0,-2,0,-1,-1,0,13
18:17:36:798715,0,0,-4,1,-1,0,1,-3
18:17:36:805359,9,1,-4,-3,-1,-2,-2,9
18:17:36:806192,9,1,-4,-3,-1,-2,-2,9
18:17:36:812157,-2,3,-1,-2,-3,1,-2,-14
18:17:36:827888,-2,-4,-3,-3,-2,0,-1,8
18:17:36:828672,-2,-4,-3,-3,-2,0,-1,8
18:17:36:834659,-2,-3,-4,-3,-2,-4,-1,7
18:17:36:842138,-6,-2,-4,-2,0,-4,-2,1
18:17:36:849717,-6,-2,-4,-2,0,-4,-2,1
18:17:36:857189,3,5,5,1,0,-1,1,-3
18:17:36:873500,-7,-5,-3,0,0,0,0,9
18:17:36:874333,-7,-5,-3,0,0,0,0,9
18:17:36:875163,-1,0,-2,0,-1,-1,-1,-4
18:17:36:895998,-3,0,3,2,-3,-2,-1,-4
18:17:36:896818,-3,0,3,2,-3,-2,-1,-4
18:17:36:897600,-2,-2,0,2,1,1,0,-4
18:17:36:902175,-2,-3,-3,-5,-1,1,-2,1
18:17:36:909708,-2,-3,-3,-5,-1,1,-2,1
18:17:36:917173,1,1,-2,-3,-4,-3,-2,14
18:17:36:925347,0,2,2,-1,2,-1,-2,-23
18:17:36:926177,0,2,2,-1,2,-1,-2,-23
18:17:36:932158,-5,-2,1,-3,3,2,1,1
18:17:36:947881,1,-5,-3,-1,-2,-2,0,12
18:17:36:948668,1,-5,-3,-1,-2,-2,0,12
18:17:36:954672,-2,0,-1,-1,1,1,0,-1
18:17:36:962158,0,3,-4,1,1,0,0,-5
18:17:36:969733,0,3,-4,1,1,0,0,-5
18:17:36:977168,7,-2,1,-1,-2,-1,-3,-21
18:17:36:985375,1,0,2,-2,-1,1,-1,0
18:17:36:986184,1,0,2,-2,-1,1,-1,0
18:17:36:999659,-5,-3,-4,-2,-3,1,-2,-1
18:17:37:7892,-5,-1,-3,-1,-2,-1,0,14
18:17:37:8713,-5,-1,-3,-1,-2,-1,0,14
18:17:37:22800,-3,-4,-1,-1,0,1,1,2
18:17:37:23610,0,-1,0,-3,-3,-2,0,-7
18:17:37:29707,0,-1,0,-3,-3,-2,0,-7
18:17:37:37137,1,-1,-3,2,-4,-6,-3,2
18:17:37:45356,3,-2,-3,2,1,-1,-1,-12
18:17:37:46169,3,-2,-3,2,1,-1,-1,-12
18:17:37:52176,-1,-3,-1,-4,1,-4,-1,16
18:17:37:76047,0,2,-3,-2,-1,-3,0,-1
18:17:37:76819,0,2,-3,-2,-1,-3,0,-1
18:17:37:77605,-4,0,-1,-3,-2,-1,0,6
18:17:37:82185,-1,-3,4,-1,-1,0,-4,9
18:17:37:97916,-1,-3,4,-1,-1,0,-4,9
18:17:37:98696,1,1,0,1,1,0,1,3
18:17:37:105330,7,1,-1,-3,0,0,-3,-3
18:17:37:106145,7,1,-1,-3,0,0,-3,-3
18:17:37:112210,8,0,1,-3,-1,-3,-1,-14
18:17:37:127862,-6,0,-1,-2,-2,0,-2,-20
18:17:37:128719,-6,0,-1,-2,-2,0,-2,-20
18:17:37:134680,-5,0,0,0,-1,3,0,-3
18:17:37:150416,-1,-3,0,-2,1,-1,-2,3
18:17:37:151209,-1,-3,0,-2,1,-1,-2,3
18:17:37:157184,-4,0,-3,3,-2,0,-1,-2
18:17:37:165770,-3,-1,-2,0,-2,-1,3,6
18:17:37:172899,-3,-1,-2,0,-2,-1,3,6
18:17:37:173687,8,-4,-9,-5,1,-6,-4,4
18:17:37:187866,3,0,-1,-1,0,-2,-2,12
18:17:37:188736,3,0,-1,-1,0,-2,-2,12
18:17:37:194690,-4,-2,-3,-1,-2,0,-1,-2
18:17:37:202156,-4,2,-3,-3,-1,1,1,-5
18:17:37:209671,-4,2,-3,-3,-1,1,1,-5
18:17:37:226098,4,-4,0,-1,0,1,0,3
18:17:37:226839,-2,0,2,0,-1,-5,-1,3
18:17:37:227655,-2,0,2,0,-1,-5,-1,3
18:17:37:232153,-5,4,4,1,0,0,0,-3
18:17:37:247872,-6,-1,-3,-2,-2,0,-4,-4
18:17:37:248698,-6,-1,-3,-2,-2,0,-4,-4
18:17:37:254672,-7,-5,-5,-3,0,-2,-1,19
18:17:37:262183,-2,-2,-5,-1,-1,1,-1,-5
18:17:37:277871,-2,-2,-5,-1,-1,1,-1,-5
18:17:37:278659,-8,-1,2,-1,-1,0,1,-4
18:17:37:285370,1,0,3,1,0,1,0,-6
18:17:37:286191,1,0,3,1,0,1,0,-6
18:17:37:308506,1,1,5,-1,0,1,0,-6
18:17:37:309287,7,-2,-1,-1,-2,-2,-1,-5
18:17:37:310116,7,-2,-1,-1,-2,-2,-1,-5
18:17:37:314671,0,4,3,1,1,0,0,-1
18:17:37:322179,-4,0,1,-2,0,1,-5,-24
18:17:37:329744,-4,0,1,-2,0,1,-5,-24
18:17:37:337137,0,-1,3,-6,-2,0,-2,2
18:17:37:353489,2,2,-6,-3,-1,0,-1,3
18:17:37:354298,2,2,-6,-3,-1,0,-1,3
18:17:37:355107,6,0,-4,-1,-1,1,-4,-7
18:17:37:376089,8,-3,0,-2,0,-2,-2,11
18:17:37:376856,8,-3,0,-2,0,-2,-2,11
18:17:37:377643,-1,-3,-5,-1,-5,-2,1,-1
18:17:37:382162,-4,-1,-1,0,-1,-3,-3,0
18:17:37:389723,-4,-1,-1,0,-1,-3,-3,0
18:17:37:397182,-1,-2,-3,1,-1,0,-2,2
18:17:37:405405,-2,0,0,3,0,-2,1,1
18:17:37:406205,-2,0,0,3,0,-2,1,1
18:17:37:412184,-5,1,-2,-3,-2,-3,-1,-2
18:17:37:428328,-5,1,-2,-3,-2,-3,-1,-2
18:17:37:429084,-5,-4,-4,-2,-5,-2,-1,5
18:17:37:434683,0,0,-4,-2,0,0,-2,-7
18:17:37:450380,0,0,-4,-2,0,0,-2,-7
18:17:37:451193,0,3,-1,-2,-2,1,1,-20
18:17:37:457163,-1,-5,-5,-1,0,0,-2,-3
18:17:37:465406,-1,-5,-5,-1,0,0,-2,-3
18:17:37:466186,-2,-2,-1,0,1,-1,-3,2
18:17:37:472189,-4,-2,3,0,-1,-1,0,-5
18:17:37:487906,-4,-2,3,0,-1,-1,0,-5
18:17:37:488724,3,-2,1,-2,0,-3,1,16
18:17:37:494672,-2,-4,1,-1,-2,-5,0,5
18:17:37:510397,-2,-4,1,-1,-2,-5,0,5
18:17:37:511150,-6,-2,3,0,-1,-1,-1,-1
18:17:37:517143,-1,-5,-9,-2,-2,-2,-4,15
18:17:37:525371,-1,-5,-9,-2,-2,-2,-4,15
18:17:37:526200,-3,-1,-1,1,-2,1,-1,-9
18:17:37:532134,-1,1,-3,1,-3,-1,-3,-4
18:17:37:556040,-1,1,-3,1,-3,-1,-3,-4
18:17:37:556818,-4,0,0,-2,-1,1,-2,-2
18:17:37:557622,1,1,0,-1,1,-1,-1,-5
18:17:37:570351,1,1,0,-1,1,-1,-1,-5
18:17:37:571132,-1,-2,-1,-2,-1,-1,0,0
18:17:37:577201,0,-1,-2,0,-3,-1,0,12
18:17:37:585339,0,-1,-2,0,-3,-1,0,12
18:17:37:586166,3,-1,-3,-2,0,0,0,4
18:17:37:599703,10,-2,-4,-3,1,-3,-1,13
18:17:37:616105,10,-2,-4,-3,1,-3,-1,13
18:17:37:616843,-7,-1,0,0,-2,0,-2,7
18:17:37:617645,1,0,1,2,-1,-1,-1,-2
18:17:37:630866,1,0,1,2,-1,-1,-1,-2
18:17:37:631624,2,-3,0,-2,-2,1,0,0
18:17:37:637170,-6,2,-1,-3,0,1,-2,-14
18:17:37:645410,-6,2,-1,-3,0,1,-2,-14
18:17:37:646195,0,2,-3,-6,0,-2,-3,2
18:17:37:659626,2,3,-1,-4,0,0,-1,-18
18:17:37:667867,2,3,-1,-4,0,0,-1,-18
18:17:37:668660,-1,-2,1,3,1,0,2,0
18:17:37:674639,-1,-2,5,-1,-2,1,0,0
18:17:37:690818,-1,-2,5,-1,-2,1,0,0
18:17:37:691645,4,-1,0,1,-1,-1,-3,0
18:17:37:706003,-3,0,3,1,0,2,-3,-34
18:17:37:706828,-3,0,3,1,0,2,-3,-34
18:17:37:707654,-3,-2,-2,2,-3,-1,1,2
18:17:37:719677,-3,-2,-1,-3,-2,0,0,-1
18:17:37:727836,-3,-2,-1,-3,-2,0,0,-1
18:17:37:728634,0,0,0,-1,-1,0,-1,-1
18:17:37:734657,-5,1,-1,1,0,0,3,4
18:17:37:750382,-5,1,-1,1,0,0,3,4
18:17:37:751134,-2,1,-3,-2,-3,-3,1,2
18:17:37:757188,1,-2,0,-1,-3,-3,-4,20
18:17:37:765370,1,-2,0,-1,-3,-3,-4,20
18:17:37:766181,1,2,1,0,-1,0,1,1
18:17:37:779703,2,0,-1,-2,1,-2,1,-3
18:17:37:787871,2,0,-1,-2,1,-2,1,-3
18:17:37:788629,-4,-3,-1,-1,-1,0,0,-8
18:17:37:794683,-2,0,1,2,1,4,0,-15
18:17:37:810372,-2,0,1,2,1,4,0,-15
18:17:37:811202,-5,-2,-4,-3,-2,0,0,-4
18:17:37:817179,-3,-1,-5,-3,-1,-2,-1,4
18:17:37:825372,-3,-1,-5,-3,-1,-2,-1,4
18:17:37:826171,-5,-1,-2,-1,2,-4,-2,1
18:17:37:839654,1,-4,-8,-2,-3,-2,-1,3
18:17:37:847929,1,-4,-8,-2,-3,-2,-1,3
18:17:37:848702,1,-1,-2,-1,2,-3,0,-2
18:17:37:854679,-1,-3,0,-1,-1,-1,1,1
18:17:37:870375,-1,-3,0,-1,-1,-1,1,1
18:17:37:871176,13,2,-3,-3,-2,0,-1,-8
18:17:37:877133,0,-5,-7,-2,-1,-5,1,24
18:17:37:885413,0,-5,-7,-2,-1,-5,1,24
18:17:37:886186,-3,-1,-1,-3,-4,1,-4,-18
18:17:37:908534,0,2,0,0,-1,1,-3,-2
18:17:37:909327,0,2,0,0,-1,1,-3,-2
18:17:37:910150,-3,-2,-3,2,-2,-1,-1,9
18:17:37:914611,6,0,1,-1,4,-1,-2,-7
18:17:37:930345,6,0,1,-1,4,-1,-2,-7
18:17:37:931141,-9,-2,0,-3,1,2,-2,-6
18:17:37:937146,0,2,2,-1,-4,-3,-2,-2
18:17:37:945346,0,2,2,-1,-4,-3,-2,-2
18:17:37:946194,1,-5,-5,0,0,-5,-1,9
18:17:37:959710,-3,2,1,1,-2,-2,0,-10
18:17:37:967888,-3,2,1,1,-2,-2,0,-10
18:17:37:968678,-5,-2,-2,-1,-2,0,0,3
18:17:37:982228,0,-3,-2,-1,-2,2,1,2
18:17:37:990363,0,-3,-2,-1,-2,2,1,2
18:17:37:991166,8,2,1,-2,-2,0,-1,2
18:17:37:997182,-8,2,-1,0,3,0,-2,-14
18:17:38:5396,-8,2,-1,0,3,0,-2,-14
18:17:38:6166,-7,-4,0,-5,-1,-5,1,22
18:17:38:19708,-3,1,-2,-2,-1,-1,-1,0
18:17:38:36479,-3,1,-2,-2,-1,-1,-1,0
18:17:38:37272,1,4,0,1,-2,1,-1,-2
18:17:38:42168,-1,0,0,-1,-2,0,0,4
18:17:38:58535,-1,0,0,-1,-2,0,0,4
18:17:38:59332,-5,2,1,1,0,-2,-1,-13
18:17:38:60146,-2,1,1,-2,1,1,-2,9
18:17:38:65396,-2,1,1,-2,1,1,-2,9
18:17:38:66205,1,-1,1,-1,-1,1,-3,-16
18:17:38:79681,-7,-6,1,0,0,-2,-1,-12
18:17:38:87894,-7,-6,1,0,0,-2,-1,-12
18:17:38:88670,-1,-1,-3,-1,-2,-4,0,19
18:17:38:94665,1,-1,-5,-2,0,-1,-3,-13
18:17:38:110847,1,-1,-5,-2,0,-1,-3,-13
18:17:38:111659,6,-1,-2,-3,2,1,0,-15
18:17:38:117132,1,-4,-4,-1,-4,1,4,23
18:17:38:126510,1,-4,-4,-1,-4,1,4,23
18:17:38:132187,-6,-1,7,-3,1,0,-3,1
18:17:38:139713,-1,-1,-2,-3,-3,0,-3,0
18:17:38:147905,-1,-1,-2,-3,-3,0,-3,0
18:17:38:148695,-5,-3,0,2,-2,1,-3,0
18:17:38:154666,-12,-1,4,0,-1,1,-1,-23
18:17:38:170374,-12,-1,4,0,-1,1,-1,-23
18:17:38:171163,-18,-4,-5,-4,-1,-2,-1,6
18:17:38:186017,5,1,1,-2,1,-1,1,1
18:17:38:186804,5,1,1,-2,1,-1,1,1
18:17:38:187672,8,2,3,-1,2,0,-1,-5
18:17:38:199696,-8,-1,2,1,1,1,-3,5
18:17:38:207872,-8,-1,2,1,1,1,-3,5
18:17:38:208648,-6,1,2,-1,0,1,0,-2
18:17:38:214639,-4,-7,-9,-4,-2,-5,-5,2
18:17:38:230359,-4,-7,-9,-4,-2,-5,-5,2
18:17:38:231131,5,0,-1,-3,-2,2,7,-2
18:17:38:237207,0,2,-1,1,2,3,1,-3
18:17:38:245376,0,2,-1,1,2,3,1,-3
18:17:38:246172,-19,-1,-2,0,-1,-4,-4,-15
18:17:38:260146,3,2,3,-1,-2,-2,5,12
18:17:38:267871,3,2,3,-1,-2,-2,5,12
18:17:38:268704,9,-2,-2,-2,-2,0,-3,-12
18:17:38:274722,-1,5,2,1,2,0,1,-17
18:17:38:290329,-1,5,2,1,2,0,1,-17
18:17:38:291148,-5,-10,-15,-1,-2,-3,1,36
18:17:38:297202,-10,-3,5,2,0,-1,-2,-15
18:17:38:305385,-10,-3,5,2,0,-1,-2,-15
18:17:38:306147,2,-5,-8,0,-3,-4,8,-1
18:17:38:319732,3,-8,-8,1,-4,-3,0,5
18:17:38:343509,3,-8,-8,1,-4,-3,0,5
18:17:38:344341,6,15,5,2,-3,0,-24,-16
18:17:38:345110,5,-5,-19,-1,-3,5,31,19
18:17:38:350375,5,-5,-19,-1,-3,5,31,19
18:17:38:351190,9,-13,-21,-6,-5,-7,4,-6
18:17:38:357121,12,3,9,1,4,7,26,17
18:17:38:365398,12,3,9,1,4,7,26,17
18:17:38:366171,-3,10,5,2,3,-1,-32,-28
18:17:38:388516,1,-4,-2,-7,-4,-19,-100,-38
18:17:38:389320,1,-4,-2,-7,-4,-19,-100,-38
18:17:38:390125,5,1,19,1,3,-1,8,9
18:17:38:394629,4,3,10,-3,0,1,-22,10
18:17:38:410827,4,3,10,-3,0,1,-22,10
18:17:38:417841,7,-5,1,0,-2,-2,-58,14
18:17:38:418637,-10,2,-3,-6,-2,-12,-12,1
18:17:38:425366,-10,2,-3,-6,-2,-12,-12,1
18:17:38:426143,-1,-10,3,-5,1,13,74,29
18:17:38:439685,-16,0,12,2,0,-5,-11,-66
18:17:38:447849,-16,0,12,2,0,-5,-11,-66
18:17:38:448658,3,-5,-3,3,7,14,63,32
18:17:38:454702,-2,23,-15,-35,-18,-19,-6,60
18:17:38:470354,-2,23,-15,-35,-18,-19,-6,60
18:17:38:471121,-2,1,2,16,22,13,32,-50
18:17:38:477179,5,-17,-3,-32,-18,-3,37,11
18:17:38:485357,5,-17,-3,-32,-18,-3,37,11
18:17:38:486159,0,-5,1,33,7,2,-7,19
18:17:38:499660,4,7,3,7,7,13,8,-24
18:17:38:507839,4,7,3,7,7,13,8,-24
18:17:38:508658,-3,2,-9,-38,-21,-22,-29,-20
18:17:38:514745,1,-1,13,-2,4,6,1,16
18:17:38:530419,1,-1,13,-2,4,6,1,16
18:17:38:531213,-3,0,-2,10,0,-2,-11,-1
18:17:38:537176,6,-2,-3,21,4,6,6,12
18:17:38:544700,6,-2,-3,21,4,6,6,12
18:17:38:552260,-4,0,-7,-9,-6,-8,-23,-4
18:17:38:559725,2,-5,-27,13,2,1,12,-11
18:17:38:567875,2,-5,-27,13,2,1,12,-11
18:17:38:568663,-3,0,-14,-20,-4,0,8,-14
18:17:38:582173,2,1,29,8,1,5,22,-10
18:17:38:590350,2,1,29,8,1,5,22,-10
18:17:38:591176,-1,6,14,-2,-4,6,57,10
18:17:38:597183,-3,-1,-1,0,5,9,32,-5
18:17:38:604668,-3,-1,-1,0,5,9,32,-5
18:17:38:612139,14,2,-4,-3,-4,-15,-19,1
18:17:38:628479,-2,-11,-19,3,1,-5,-32,17
18:17:38:629288,-2,-11,-19,3,1,-5,-32,17
18:17:38:630140,-3,0,-7,3,-1,7,-6,7
18:17:38:642210,1,1,6,4,1,0,33,-1
18:17:38:650337,1,1,6,4,1,0,33,-1
18:17:38:651163,-1,3,-16,-1,2,1,39,-3
18:17:38:665314,-3,-3,23,3,-2,-1,-29,4
18:17:38:666132,-3,-3,23,3,-2,-1,-29,4
18:17:38:672195,-9,-5,24,-10,-4,-2,-44,-5
18:17:38:679660,1,-4,-29,-15,-6,-6,-7,4
18:17:38:687847,1,-4,-29,-15,-6,-6,-7,4
18:17:38:688661,-3,-1,12,-1,-3,-1,-23,0
18:17:38:702173,1,0,-7,2,3,3,43,3
18:17:38:710392,1,0,-7,2,3,3,43,3
18:17:38:711204,-9,-3,-6,4,-1,-6,-49,-41
18:17:38:717160,1,2,0,3,0,1,-1,-5
18:17:38:724682,1,2,0,3,0,1,-1,-5
18:17:38:740331,-1,-4,-14,3,1,4,18,3
18:17:38:741145,-5,-3,8,3,-1,-1,-5,-12
18:17:38:747894,-5,-3,8,3,-1,-1,-5,-12
18:17:38:748702,-4,-1,-2,-5,-1,-1,-7,8
18:17:38:762200,0,3,11,15,2,-1,-8,7
18:17:38:770411,0,3,11,15,2,-1,-8,7
18:17:38:771194,-3,-11,-22,-44,-9,-5,-1,7
18:17:38:777185,2,2,-4,8,2,0,-4,-3
18:17:38:784739,2,2,-4,8,2,0,-4,-3
18:17:38:792179,3,4,3,10,-2,-4,-5,15
18:17:38:799661,7,6,4,0,2,-10,-65,14
18:17:38:807840,7,6,4,0,2,-10,-65,14
18:17:38:808637,-1,-3,5,-5,-1,2,11,17
18:17:38:822130,-1,-1,-3,-2,-1,2,17,-2
18:17:38:830339,-1,-1,-3,-2,-1,2,17,-2
18:17:38:831146,4,-2,9,8,0,-4,-9,-4
18:17:38:837178,-6,-5,-9,-7,-2,-2,-1,-11
18:17:38:844710,-6,-5,-9,-7,-2,-2,-1,-11
18:17:38:852142,-3,3,6,9,2,5,12,-17
18:17:38:859719,-3,0,-17,-12,-3,-12,-45,-19
18:17:38:867909,-3,0,-17,-12,-3,-12,-45,-19
18:17:38:868682,0,4,21,6,3,4,7,11
18:17:38:882216,0,2,5,3,-1,5,30,2
18:17:38:890371,0,2,5,3,-1,5,30,2
18:17:38:891168,-1,-1,-6,-4,1,-3,-7,8
18:17:38:897123,-2,-4,-3,-6,0,-2,-4,-2
18:17:38:904707,-2,-4,-3,-6,0,-2,-4,-2
18:17:38:912148,0,3,1,2,2,-1,15,-7
18:17:38:919643,-1,1,0,-3,1,4,17,3
18:17:38:927859,-1,1,0,-3,1,4,17,3
18:17:38:928673,1,-4,-3,1,-1,-1,-9,-6
18:17:38:942129,-4,2,6,-3,-3,-7,-40,-28
18:17:38:950350,-4,2,6,-3,-3,-7,-40,-28
18:17:38:951143,-1,-1,-4,0,1,-1,2,13
18:17:38:957154,0,-7,-5,2,-2,5,33,5
18:17:38:964723,0,-7,-5,2,-2,5,33,5
18:17:38:972172,-4,-2,-9,2,-1,-3,-7,-4
18:17:38:979638,-1,-4,8,-2,1,-1,9,6
18:17:38:987901,-1,-4,8,-2,1,-1,9,6
18:17:38:988697,2,3,3,-2,1,-1,-6,-2
18:17:39:2143,-2,-1,-3,-1,1,-1,-4,1
18:17:39:10356,-2,-1,-3,-1,1,-1,-4,1
18:17:39:11185,1,2,4,2,-4,-1,-3,-6
18:17:39:17194,1,-2,-3,0,-2,-2,0,3
18:17:39:24711,1,-2,-3,0,-2,-2,0,3
18:17:39:32169,-4,-2,-3,-3,-2,-1,1,-3
18:17:39:39682,0,-3,1,-2,-2,1,16,6
18:17:39:47871,0,-3,1,-2,-2,1,16,6
18:17:39:48659,0,-2,1,-1,0,0,0,1
18:17:39:62191,-2,-1,-4,-4,1,-1,4,1
18:17:39:70437,-2,-1,-4,-4,1,-1,4,1
18:17:39:71187,-3,-5,-4,0,-1,-2,-1,-4
18:17:39:77167,-2,0,-3,-1,1,0,4,-1
18:17:39:84694,-2,0,-3,-1,1,0,4,-1
18:17:39:92241,0,1,-1,1,-4,-2,2,0
18:17:39:99667,0,2,-2,-2,-3,1,-7,-3
18:17:39:107877,0,2,-2,-2,-3,1,-7,-3
18:17:39:108642,0,3,-2,1,-1,3,-1,-2
18:17:39:122206,-3,-3,-1,-2,-2,-4,-5,-4
18:17:39:130371,-3,-3,-1,-2,-2,-4,-5,-4
18:17:39:131167,-1,-2,-2,-2,-1,-3,-2,-1
18:17:39:137218,0,5,5,1,-1,5,5,7
18:17:39:144717,0,5,5,1,-1,5,5,7
18:17:39:152151,0,-1,-3,-2,1,-1,-5,2
18:17:39:159629,-4,-1,0,0,-2,-4,1,-1
18:17:39:167872,-4,-1,0,0,-2,-4,1,-1
18:17:39:168689,0,0,0,4,0,0,2,-3
18:17:39:182229,-3,-1,1,-1,0,-1,1,-2
18:17:39:190357,-3,-1,1,-1,0,-1,1,-2
18:17:39:191167,-7,-4,5,-2,-2,-7,-3,15
18:17:39:197154,10,3,-2,-2,-3,-4,-3,1
18:17:39:204748,10,3,-2,-2,-3,-4,-3,1
18:17:39:212136,-2,-2,-3,-2,0,-1,11,6
18:17:39:219654,-5,-8,-1,-1,1,1,8,5
18:17:39:227889,-5,-8,-1,-1,1,1,8,5
18:17:39:228685,2,1,-1,0,-1,2,3,-8
18:17:39:242142,-3,1,-6,-2,-2,4,-1,-4
18:17:39:250403,-3,1,-6,-2,-2,4,-1,-4
18:17:39:251155,1,0,-4,-1,1,-3,-33,-6
18:17:39:257161,-4,-5,-4,-1,-2,-5,-5,-5
18:17:39:264739,-4,-5,-4,-1,-2,-5,-5,-5
18:17:39:272173,-1,4,1,-3,1,0,-4,-2
18:17:39:279693,2,-4,-5,2,-3,0,2,9
18:17:39:287898,2,-4,-5,2,-3,0,2,9
18:17:39:288703,3,-4,-2,1,-2,4,22,-3
18:17:39:302183,-4,8,-1,-8,-3,-4,16,-7
18:17:39:310384,-4,8,-1,-8,-3,-4,16,-7
18:17:39:311226,1,-1,-8,0,-4,4,11,0
18:17:39:317166,-1,-2,-7,-2,-1,0,2,1
18:17:39:324737,-1,-2,-7,-2,-1,0,2,1
18:17:39:332184,-1,0,-4,-2,-2,-7,-6,-3
18:17:39:339684,-3,-3,1,0,2,-4,-13,8
18:17:39:347867,-3,-3,1,0,2,-4,-13,8
18:17:39:348640,2,5,5,2,1,-1,-4,-1
18:17:39:362194,-2,-2,7,1,-1,0,-15,-20
18:17:39:370389,-2,-2,7,1,-1,0,-15,-20
18:17:39:371195,-2,-5,-7,-5,0,3,0,5
18:17:39:377195,8,6,-5,-1,1,-5,-25,-10
18:17:39:384700,8,6,-5,-1,1,-5,-25,-10
18:17:39:392226,-1,3,-2,-4,-4,-3,2,-4
18:17:39:399671,10,1,43,-3,-3,-2,2,3
18:17:39:407878,10,1,43,-3,-3,-2,2,3
18:17:39:408673,-4,0,-6,-4,-2,-1,6,-3
18:17:39:422159,-11,-4,-106,0,1,2,25,1
18:17:39:430365,-11,-4,-106,0,1,2,25,1
18:17:39:431143,0,-9,-36,-3,-2,6,6,-4
18:17:39:437222,-1,-11,36,2,3,5,11,-1
18:17:39:444699,-1,-11,36,2,3,5,11,-1
18:17:39:452172,-3,-3,12,1,2,-6,1,0
18:17:39:459653,3,-3,13,1,-4,2,-2,6
18:17:39:467900,3,-3,13,1,-4,2,-2,6
18:17:39:468671,-2,-5,13,-1,-2,1,-2,1
18:17:39:482192,-1,2,-19,3,2,0,5,-3
18:17:39:490408,-1,2,-19,3,2,0,5,-3
18:17:39:491165,2,8,10,-1,-2,-3,-13,-6
18:17:39:505352,0,12,-10,-6,-2,-5,-15,-8
18:17:39:506184,0,12,-10,-6,-2,-5,-15,-8
18:17:39:512113,1,3,2,-2,-3,-4,-2,1
18:17:39:519708,2,3,13,-1,-2,-6,-8,2
18:17:39:527233,2,3,13,-1,-2,-6,-8,2
18:17:39:534638,2,6,-7,0,3,4,3,-6
18:17:39:542134,-6,-15,7,2,-1,0,-14,11
18:17:39:550347,-6,-15,7,2,-1,0,-14,11
18:17:39:551175,-4,-3,-6,1,0,6,3,-1
18:17:39:565356,-3,-3,4,1,0,0,-2,-2
18:17:39:566194,-3,-3,4,1,0,0,-2,-2
18:17:39:572165,-4,2,8,-2,-3,0,2,4
18:17:39:579656,-1,1,-9,-2,-3,3,0,-3
18:17:39:587234,-1,1,-9,-2,-3,3,0,-3
18:17:39:594660,0,-1,5,-3,-3,-7,-3,-2
18:17:39:602172,-3,1,-2,-2,-1,2,-1,-5
18:17:39:610366,-3,1,-2,-2,-1,2,-1,-5
18:17:39:611158,-13,-8,-1,3,2,-3,-6,2
18:17:39:625376,0,0,-1,0,-3,5,2,-2
18:17:39:626177,0,0,-1,0,-3,5,2,-2
18:17:39:632126,7,3,4,-3,0,-7,-4,5
18:17:39:639623,-2,1,3,-1,-2,-5,6,12
18:17:39:647231,-2,1,3,-1,-2,-5,6,12
18:17:39:654707,0,-7,11,-2,0,0,2,1
18:17:39:662168,6,4,-1,-3,-3,-7,-8,-19
18:17:39:670338,6,4,-1,-3,-3,-7,-8,-19
18:17:39:671147,7,2,-1,-2,1,-4,-3,7
18:17:39:685411,1,-14,2,-6,1,3,-2,-10
18:17:39:686193,1,-14,2,-6,1,3,-2,-10
18:17:39:692159,3,-1,-10,0,-2,2,2,6
18:17:39:699678,4,-2,0,1,-1,-3,-8,-6
18:17:39:707163,4,-2,0,1,-1,-3,-8,-6
18:17:39:714697,-2,-3,-1,-5,-1,1,-3,-4
18:17:39:722187,-9,-14,4,-1,1,2,-5,2
18:17:39:730369,-9,-14,4,-1,1,2,-5,2
18:17:39:731192,-10,15,-1,0,2,-1,1,3
18:17:39:745301,-23,-6,4,-6,-5,0,2,-4
18:17:39:746124,-23,-6,4,-6,-5,0,2,-4
18:17:39:752168,9,-7,-4,5,-1,7,4,19
18:17:39:759690,-4,-3,-1,-5,1,-8,-11,4
18:17:39:767199,-4,-3,-1,-5,1,-8,-11,4
18:17:39:774654,0,-16,-2,-1,-4,-1,0,-9
18:17:39:782197,-3,0,-9,4,-1,6,11,8
18:17:39:790786,-3,0,-9,4,-1,6,11,8
18:17:39:797186,7,-1,-4,9,-3,-10,-6,2
18:17:39:805399,3,3,-3,3,7,0,-1,6
18:17:39:806208,3,3,-3,3,7,0,-1,6
18:17:39:812144,9,7,19,4,-1,3,0,-5
18:17:39:819685,13,-9,10,-5,-4,-5,2,5
18:17:39:827253,13,-9,10,-5,-4,-5,2,5
18:17:39:834689,51,10,-3,-14,-3,-5,-8,-44
18:17:39:842162,-21,-15,11,-6,-3,-2,6,13
18:17:39:850400,-21,-15,11,-6,-3,-2,6,13
18:17:39:851174,-9,-16,-8,5,0,3,8,25
18:17:39:873507,33,59,-4,2,0,-2,-1,-9
18:17:39:874329,33,59,-4,2,0,-2,-1,-9
18:17:39:875158,-24,-7,0,-1,-2,-6,-14,-30
18:17:39:879651,-7,11,-2,-1,-4,0,-3,-7
18:17:39:887259,-7,11,-2,-1,-4,0,-3,-7
18:17:39:894669,-5,9,-10,7,16,5,5,5
18:17:39:902142,14,1,3,-3,-4,-3,-6,3
18:17:39:910398,14,1,3,-3,-4,-3,-6,3
18:17:39:911178,-11,9,3,1,-1,4,-2,-12
18:17:39:925412,21,6,-8,4,3,-7,2,8
18:17:39:926193,21,6,-8,4,3,-7,2,8
18:17:39:932183,12,12,2,-3,-2,-2,0,8
18:17:39:939671,-7,-17,-3,2,5,9,0,-38
18:17:39:947228,-7,-17,-3,2,5,9,0,-38
18:17:39:954696,-8,1,1,-8,-3,5,8,20
18:17:39:962218,3,-5,-4,-5,-1,2,-5,0
18:17:39:970380,3,-5,-4,-5,-1,2,-5,0
18:17:39:971161,-24,-16,5,-6,-1,10,-1,-15
18:17:39:985398,-23,-16,2,4,0,-3,-1,-20
18:17:39:986195,-23,-16,2,4,0,-3,-1,-20
18:17:39:992183,-38,-40,4,-4,-2,-1,-17,-22
18:17:39:999662,-10,-10,2,-2,1,5,0,-39
18:17:40:7194,-10,-10,2,-2,1,5,0,-39
18:17:40:14677,27,49,-4,-14,-4,-8,7,16
18:17:40:22158,-16,8,0,-9,-5,2,-1,17
18:17:40:30339,-16,8,0,-9,-5,2,-1,17
18:17:40:31156,-4,3,-4,1,-4,-6,-3,12
18:17:40:45345,3,-7,3,8,2,-2,-5,21
18:17:40:46133,3,-7,3,8,2,-2,-5,21
18:17:40:52185,-37,-17,1,-2,-5,-13,-7,-14
18:17:40:59670,-3,4,0,-4,0,6,2,16
18:17:40:67204,-3,4,0,-4,0,6,2,16
18:17:40:74659,-24,-2,0,-3,0,11,-11,-40
18:17:40:82097,-7,9,-3,4,1,-4,4,15
18:17:40:90358,-7,9,-3,4,1,-4,4,15
18:17:40:91179,28,4,-4,4,-1,-5,14,14
18:17:40:105395,-8,-22,-2,0,-3,-1,2,-6
18:17:40:106169,-8,-22,-2,0,-3,-1,2,-6
18:17:40:112118,3,-5,-4,0,-2,1,-4,-16
18:17:40:119620,-10,-18,-9,-1,-1,-3,2,1
18:17:40:127245,-10,-18,-9,-1,-1,-3,2,1
18:17:40:134684,0,-14,-7,0,-1,3,3,18
18:17:40:142158,-29,-11,4,6,3,1,-2,-11
18:17:40:150416,-29,-11,4,6,3,1,-2,-11
18:17:40:151176,9,-5,2,0,-1,-4,3,8
18:17:40:165365,-2,6,-1,-5,-6,-7,-20,-2
18:17:40:166173,-2,6,-1,-5,-6,-7,-20,-2
18:17:40:172155,17,-8,-3,6,-2,1,2,9
18:17:40:179683,27,-9,-3,-4,-2,-2,9,10
18:17:40:187230,27,-9,-3,-4,-2,-2,9,10
18:17:40:194633,7,12,0,2,1,-3,0,9
18:17:40:202144,-7,-3,2,-5,-1,-3,-10,-15
18:17:40:210426,-7,-3,2,-5,-1,-3,-10,-15
18:17:40:211190,-41,-9,1,-2,0,1,-2,-12
18:17:40:225377,20,13,-1,2,-2,-1,7,15
18:17:40:226193,20,13,-1,2,-2,-1,7,15
18:17:40:232183,-10,-12,1,-6,-1,-2,-6,3
18:17:40:239649,1,10,-1,1,-1,-1,6,-3
18:17:40:247258,1,10,-1,1,-1,-1,6,-3
18:17:40:254660,22,19,-2,1,-3,-1,3,7
18:17:40:262175,8,12,-5,-2,-1,1,-3,11
18:17:40:270356,8,12,-5,-2,-1,1,-3,11
18:17:40:271147,20,42,-3,-4,-2,-11,-8,12
18:17:40:285372,1,-3,3,-5,1,-3,-1,3
18:17:40:286201,1,-3,3,-5,1,-3,-1,3
18:17:40:292221,-8,-4,0,-10,-4,1,-6,-17
18:17:40:299694,0,1,-4,-2,2,1,3,7
18:17:40:307201,0,1,-4,-2,2,1,3,7
18:17:40:314670,12,-12,-4,-6,-1,-1,4,10
18:17:40:322170,0,-12,0,3,0,2,2,-8
18:17:40:330367,0,-12,0,3,0,2,2,-8
18:17:40:331204,7,-16,3,-5,-5,-6,-8,0
18:17:40:345853,-2,-6,-1,-20,-4,0,-5,-1
18:17:40:352890,-2,-6,-1,-20,-4,0,-5,-1
18:17:40:353676,3,16,-3,-1,-3,-1,1,2
18:17:40:359713,20,-5,5,3,0,-2,5,6
18:17:40:367240,20,-5,5,3,0,-2,5,6
18:17:40:374613,-6,-1,0,-4,1,-1,-7,-19
18:17:40:382137,6,13,-2,4,-3,-2,1,3
18:17:40:390375,6,13,-2,4,-3,-2,1,3
18:17:40:391168,-4,-13,-1,2,-2,-3,-1,12
18:17:40:405372,-4,0,-2,-10,-3,2,3,4
18:17:40:406177,-4,0,-2,-10,-3,2,3,4
18:17:40:412136,-3,-9,-4,2,2,2,4,0
18:17:40:427844,-3,4,-4,3,-2,-4,-8,-11
18:17:40:428656,-3,4,-4,3,-2,-4,-8,-11
18:17:40:434687,7,-7,1,1,1,3,-2,-4
18:17:40:442201,-16,0,0,-3,0,1,-1,-1
18:17:40:449721,-16,0,0,-3,0,1,-1,-1
18:17:40:457136,5,-2,1,0,1,0,5,18
18:17:40:465342,-35,-54,-4,4,2,4,-4,-4
18:17:40:466156,-35,-54,-4,4,2,4,-4,-4
18:17:40:472188,-8,15,-2,1,-1,1,0,-33
18:17:40:487885,-1,4,-3,-9,-4,-4,-12,-13
18:17:40:488676,-1,4,-3,-9,-4,-4,-12,-13
18:17:40:494627,-3,-3,-3,-1,-1,-2,-2,7
18:17:40:502129,17,41,-3,-10,-9,-9,2,2
18:17:40:509708,17,41,-3,-10,-9,-9,2,2
18:17:40:517159,5,-3,1,2,-4,2,12,-4
18:17:40:525387,-4,-17,0,5,1,2,26,7
18:17:40:526216,-4,-17,0,5,1,2,26,7
18:17:40:532148,-9,-5,-4,-4,0,0,2,4
18:17:40:547866,1,1,0,-2,2,2,4,-6
18:17:40:548675,1,1,0,-2,2,2,4,-6
18:17:40:554651,-14,-4,0,2,-1,-4,-15,-5
18:17:40:562146,11,4,3,1,1,3,-5,-3
18:17:40:569727,11,4,3,1,1,3,-5,-3
18:17:40:577163,15,15,-4,0,-6,-8,-23,-23
18:17:40:585362,14,32,-2,8,2,-4,-7,4
18:17:40:586161,14,32,-2,8,2,-4,-7,4
18:17:40:592171,13,-3,-2,-1,2,4,10,8
18:17:40:607894,6,-7,-5,0,-3,-4,-4,-3
18:17:40:608700,6,-7,-5,0,-3,-4,-4,-3
18:17:40:614655,-5,-27,3,-3,3,5,4,-9
18:17:40:622189,1,0,-1,-1,0,-1,-1,7
18:17:40:629754,1,0,-1,-1,0,-1,-1,7
18:17:40:637188,20,13,-4,-3,0,0,3,6
18:17:40:645327,-2,-1,2,4,4,1,-1,-1
18:17:40:646152,-2,-1,2,4,4,1,-1,-1
18:17:40:652216,4,6,0,1,0,-2,-2,-4
18:17:40:667835,-11,-10,-5,0,-3,1,6,-16
18:17:40:668654,-11,-10,-5,0,-3,1,6,-16
18:17:40:674678,-44,-15,-1,0,-1,-2,-12,-20
18:17:40:682182,-5,-12,-3,2,3,4,4,2
18:17:40:689683,-5,-12,-3,2,3,4,4,2
18:17:40:697181,3,-5,-4,-2,0,1,4,7
18:17:40:705954,-1,-9,-2,0,0,0,-3,11
18:17:40:706842,-1,-9,-2,0,0,0,-3,11
18:17:40:712149,-4,6,-1,0,1,-2,-11,-8
18:17:40:727829,1,-21,-1,-4,-3,-6,-3,5
18:17:40:728650,1,-21,-1,-4,-3,-6,-3,5
18:17:40:734663,-9,5,-2,-1,-1,-1,2,7
18:17:40:742174,13,-5,5,0,0,4,0,-3
18:17:40:749728,13,-5,5,0,0,4,0,-3
18:17:40:757140,-6,-22,2,5,1,2,-1,7
18:17:40:765357,18,48,1,-12,-4,-5,-2,1
18:17:40:766170,18,48,1,-12,-4,-5,-2,1
18:17:40:772158,0,-12,0,-6,-3,1,5,16
18:17:40:787875,-6,0,-2,1,-2,-1,-7,-23
18:17:40:788680,-6,0,-2,1,-2,-1,-7,-23
18:17:40:794681,12,7,-1,-3,1,0,0,1
18:17:40:802144,3,-3,-1,2,4,1,1,-1
18:17:40:809724,3,-3,-1,2,4,1,1,-1
18:17:40:817158,2,5,-1,2,-4,-5,1,2
18:17:40:825405,1,10,1,-3,0,-6,-7,5
18:17:40:826203,1,10,1,-3,0,-6,-7,5
18:17:40:832156,6,-8,-3,-4,-3,-1,5,6
18:17:40:847893,-2,10,-3,7,4,-1,2,0
18:17:40:848693,-2,10,-3,7,4,-1,2,0
18:17:40:854672,7,19,-2,0,-1,-5,-4,-15
18:17:40:862180,-17,-15,-2,-2,-1,-1,-7,-3
18:17:40:869728,-17,-15,-2,-2,-1,-1,-7,-3
18:17:40:877175,0,6,-3,-5,-1,0,-2,-6
18:17:40:885370,-8,10,-4,8,-1,2,4,9
18:17:40:886154,-8,10,-4,8,-1,2,4,9
18:17:40:892155,-42,-24,2,0,1,-1,-7,7
18:17:40:907901,-27,-11,-1,-5,-4,-3,-3,-6
18:17:40:908731,-27,-11,-1,-5,-4,-3,-3,-6
18:17:40:914693,26,-20,1,-1,1,3,6,8
18:17:40:922144,-13,-18,0,0,3,2,0,2
18:17:40:929727,-13,-18,0,0,3,2,0,2
18:17:40:937170,11,17,2,-5,-2,-2,0,7
18:17:40:945342,22,39,5,-4,-4,-5,7,3
18:17:40:946135,22,39,5,-4,-4,-5,7,3
18:17:40:952127,-7,-5,-2,1,-1,-3,-3,-3
18:17:40:967854,-5,-14,0,-1,-4,-1,-2,-4
18:17:40:968647,-5,-14,0,-1,-4,-1,-2,-4
18:17:40:974708,-4,-14,-2,2,0,1,2,-1
18:17:40:982172,-1,-16,-4,-6,1,-3,-5,-15
18:17:40:989716,-1,-16,-4,-6,1,-3,-5,-15
18:17:40:997123,-12,-7,-3,-3,-5,0,0,1
18:17:41:5364,15,32,-4,5,-2,-1,1,0
18:17:41:6199,15,32,-4,5,-2,-1,1,0
18:17:41:12129,3,6,-1,11,-1,1,1,-16
18:17:41:27823,6,-3,-3,6,2,-2,-4,3
18:17:41:28627,6,-3,-3,6,2,-2,-4,3
18:17:41:34639,2,10,0,6,3,-1,-6,-4
18:17:41:42106,2,2,1,-4,-3,-1,-1,-2
18:17:41:49738,2,2,1,-4,-3,-1,-1,-2
18:17:41:57132,-4,-21,2,-4,1,3,-1,6
18:17:41:65341,-15,-9,-3,-14,-1,1,-2,-11
18:17:41:66203,-15,-9,-3,-14,-1,1,-2,-11
18:17:41:72188,3,8,1,-1,0,-3,0,2
18:17:41:87898,4,-6,3,-1,-2,1,1,7
18:17:41:88697,4,-6,3,-1,-2,1,1,7
18:17:41:94635,9,8,0,-9,-4,-1,0,1
18:17:41:102138,5,-5,-4,-11,-4,1,0,3
18:17:41:109739,5,-5,-4,-11,-4,1,0,3
18:17:41:117198,2,-6,1,2,0,-1,4,8
18:17:41:125382,-17,-21,-1,-1,-6,-2,-7,-4
18:17:41:126252,-17,-21,-1,-1,-6,-2,-7,-4
18:17:41:132154,13,-10,1,-6,0,-3,5,-6
18:17:41:147864,2,-9,2,3,5,-1,2,3
18:17:41:148674,2,-9,2,3,5,-1,2,3
18:17:41:154681,-28,-20,-3,1,-1,-1,-5,-5
18:17:41:162163,-1,-4,0,1,2,3,-2,7
18:17:41:169753,-1,-4,0,1,2,3,-2,7
18:17:41:177161,-3,3,-1,-1,-2,-3,-6,-4
18:17:41:185363,5,9,-2,0,0,2,2,0
18:17:41:186159,5,9,-2,0,0,2,2,0
18:17:41:192193,1,25,0,-3,-3,-3,-1,6
18:17:41:207898,-20,-10,1,8,3,-1,-6,-6
18:17:41:208707,-20,-10,1,8,3,-1,-6,-6
18:17:41:214663,-8,-3,-2,0,-3,-1,-3,-8
18:17:41:222189,-5,-7,1,-1,-2,-2,-3,-4
18:17:41:229690,-5,-7,1,-1,-2,-2,-3,-4
18:17:41:237194,-4,13,-3,-15,-8,-5,-3,-7
18:17:41:245394,-3,-14,1,7,5,3,0,0
18:17:41:246146,-3,-14,1,7,5,3,0,0
18:17:41:252132,24,3,2,-4,0,0,1,5
18:17:41:276083,-7,4,-1,-3,1,1,0,-17
18:17:41:276840,-7,4,-1,-3,1,1,0,-17
18:17:41:277674,-18,-5,-4,5,4,-2,-2,9
18:17:41:282156,-21,-15,-4,1,-2,0,3,3
18:17:41:289748,-21,-15,-4,1,-2,0,3,3
18:17:41:297178,-6,1,-1,-6,-2,0,-5,-6
18:17:41:305349,14,29,3,-15,-5,-4,2,13
18:17:41:306134,14,29,3,-15,-5,-4,2,13
18:17:41:312208,4,-4,-7,2,1,3,-3,-3
18:17:41:328318,17,-8,0,0,-1,-3,-3,-4
18:17:41:335381,17,-8,0,0,-1,-3,-3,-4
18:17:41:336222,-13,-3,5,-1,1,3,2,-2
18:17:41:342145,0,6,0,1,-1,-4,-4,1
18:17:41:349673,0,6,0,1,-1,-4,-4,1
18:17:41:357178,-8,-8,-4,4,1,-2,0,-4
18:17:41:365359,-3,-3,-4,-2,0,-1,-1,-2
18:17:41:366153,-3,-3,-4,-2,0,-1,-1,-2
18:17:41:372111,4,-5,-1,-6,-3,1,2,6
18:17:41:387883,4,-5,-1,-6,-3,1,2,6
18:17:41:388649,-6,-21,-5,5,1,1,-6,-3
18:17:41:394678,4,-10,-1,2,-4,-4,0,-8
18:17:41:410348,4,-10,-1,2,-4,-4,0,-8
18:17:41:411154,6,3,4,-2,-2,3,4,5
18:17:41:417209,11,-2,-1,-1,1,-3,-5,-4
18:17:41:425359,11,-2,-1,-1,1,-3,-5,-4
18:17:41:426144,5,1,0,3,2,0,-3,-1
18:17:41:439675,0,-35,0,-7,-3,2,0,2
18:17:41:447864,0,-35,0,-7,-3,2,0,2
18:17:41:448665,-25,-2,-2,-10,-4,0,0,-9
18:17:41:462182,-11,12,-1,3,3,4,3,-2
18:17:41:470379,-11,12,-1,3,3,4,3,-2
18:17:41:471212,-10,-6,-3,2,2,2,2,3
18:17:41:477173,2,6,0,4,2,-1,-4,1
18:17:41:485335,2,6,0,4,2,-1,-4,1
18:17:41:486159,4,3,0,-4,-7,-1,-1,-4
18:17:41:499641,-7,-3,-3,1,4,0,1,1
18:17:41:507906,-7,-3,-3,1,4,0,1,1
18:17:41:508683,19,33,2,5,-3,-4,-1,1
18:17:41:514689,9,10,-2,-2,-2,-1,-6,-3
18:17:41:538508,9,10,-2,-2,-2,-1,-6,-3
18:17:41:539323,5,-29,-1,-11,0,-3,1,-1
18:17:41:540107,4,10,1,-1,-3,-1,3,1
18:17:41:545363,4,10,1,-1,-3,-1,3,1
18:17:41:546188,6,7,4,3,3,-2,3,8
18:17:41:559627,10,5,-1,0,-3,-1,-1,2
18:17:41:567855,10,5,-1,0,-3,-1,-1,2
18:17:41:568693,-3,-4,-3,-1,-3,-1,0,5
18:17:41:574649,2,13,-2,1,1,-3,5,1
18:17:41:590388,2,13,-2,1,1,-3,5,1
18:17:41:591191,1,-23,0,-6,-1,3,1,-10
18:17:41:597161,12,23,1,-6,-3,-5,1,2
18:17:41:605396,12,23,1,-6,-3,-5,1,2
18:17:41:606201,3,-1,-3,1,0,-4,-5,6
18:17:41:619702,-6,-15,1,-5,-5,0,-3,-7
18:17:41:627911,-6,-15,1,-5,-5,0,-3,-7
18:17:41:628664,-3,8,1,5,-4,-2,-1,-2
18:17:41:634637,-8,-11,0,3,4,1,-4,-1
18:17:41:650358,-8,-11,0,3,4,1,-4,-1
18:17:41:651155,2,-2,1,-5,0,-5,-2,5
18:17:41:657188,-11,-7,0,0,0,0,1,4
18:17:41:665397,-11,-7,0,0,0,0,1,4
18:17:41:666165,7,-1,-4,1,-1,-3,-5,2
18:17:41:679673,2,-6,-2,-4,-1,2,1,3
18:17:41:687888,2,-6,-2,-4,-1,2,1,3
18:17:41:688670,3,12,-1,3,-2,-2,-1,-1
18:17:41:694680,-1,-10,0,1,2,1,-1,2
18:17:41:710326,-1,-10,0,1,2,1,-1,2
18:17:41:711143,-5,2,-3,-3,-3,-3,-1,-1
18:17:41:717204,17,-1,-2,-5,-3,1,-1,-3
18:17:41:725377,17,-1,-2,-5,-3,1,-1,-3
18:17:41:726159,-6,1,-3,2,2,-1,-13,0
18:17:41:739686,2,14,-1,2,-2,-1,-2,-3
18:17:41:747865,2,14,-1,2,-2,-1,-2,-3
18:17:41:748662,-3,-3,-1,-1,-2,2,7,3
18:17:41:754703,-2,-2,-3,1,-1,-2,-2,-4
18:17:41:770435,-2,-2,-3,1,-1,-2,-2,-4
18:17:41:771224,-1,-3,3,-2,1,1,0,-1
18:17:41:777158,-14,12,0,2,-1,2,1,-5
18:17:41:785348,-14,12,0,2,-1,2,1,-5
18:17:41:786148,-2,-10,-3,-1,3,7,1,-12
18:17:41:799690,-4,-33,-1,2,-2,-3,-6,4
18:17:41:816066,-4,-33,-1,2,-2,-3,-6,4
18:17:41:816850,12,1,-2,-1,-1,-3,2,5
18:17:41:817667,-15,24,-1,-6,-3,-4,-2,-1
18:17:41:830358,-15,24,-1,-6,-3,-4,-2,-1
18:17:41:831153,13,3,-3,3,0,1,1,-4
18:17:41:837153,8,5,-1,-6,-3,2,-2,2
18:17:41:845356,8,5,-1,-6,-3,2,-2,2
18:17:41:846175,-4,-2,2,1,0,-3,-12,0
18:17:41:859671,-1,-5,3,-1,0,-2,-5,-8
18:17:41:867868,-1,-5,3,-1,0,-2,-5,-8
18:17:41:868682,-2,-3,2,-2,-1,0,2,-1
18:17:41:874634,3,1,-4,-2,-4,-4,-5,-3
18:17:41:890390,3,1,-4,-2,-4,-4,-5,-3
18:17:41:891157,5,25,-3,2,0,-3,1,-1
18:17:41:897132,-13,-8,3,4,4,0,5,-1
18:17:41:905377,-13,-8,3,4,4,0,5,-1
18:17:41:906168,-14,-19,3,-4,-3,0,-6,-12
18:17:41:919707,13,10,-7,-3,-3,0,1,6
18:17:41:927913,13,10,-7,-3,-3,0,1,6
18:17:41:928663,-3,-8,1,-4,-1,0,7,4
18:17:41:934636,7,-6,4,-4,-3,-1,1,2
18:17:41:950339,7,-6,4,-4,-3,-1,1,2
18:17:41:951166,-1,7,-2,-13,-5,2,15,3
18:17:41:957190,-13,-25,-1,-1,-2,1,1,-2
18:17:41:965361,-13,-25,-1,-1,-2,1,1,-2
18:17:41:966146,2,-12,-8,-4,-1,-1,-5,-23
18:17:41:979668,9,-4,-2,3,0,-1,-3,-2
18:17:41:987872,9,-4,-2,3,0,-1,-3,-2
18:17:41:988674,-10,-14,-3,-6,-4,2,5,11
18:17:41:994631,12,32,-1,-3,-2,-2,13,-1
18:17:42:10334,12,32,-1,-3,-2,-2,13,-1
18:17:42:11149,0,-14,0,-2,-2,-3,-4,-4
18:17:42:17207,-4,-10,2,-5,-1,0,-9,0
18:17:42:25372,-4,-10,2,-5,-1,0,-9,0
18:17:42:26164,-8,11,-1,-2,-1,-2,0,4
18:17:42:39657,-7,2,-2,-3,-2,-1,-2,1
18:17:42:47851,-7,2,-2,-3,-2,-1,-2,1
18:17:42:48679,1,3,1,3,-1,0,-3,4
18:17:42:54706,-2,-9,-6,-2,-1,-1,15,-8
18:17:42:70439,-2,-9,-6,-2,-1,-1,15,-8
18:17:42:71211,-1,2,4,3,3,-2,6,-1
18:17:42:77161,5,19,2,0,0,3,-2,-3
18:17:42:92884,5,19,2,0,0,3,-2,-3
18:17:42:93697,18,31,-4,-12,-7,-3,-6,2
18:17:42:99689,0,-15,-5,5,3,2,-4,1
18:17:42:107900,0,-15,-5,5,3,2,-4,1
18:17:42:108729,5,-27,-4,0,-2,-2,-13,2
18:17:42:114675,-3,-6,0,0,2,1,-1,-1
18:17:42:130395,-3,-6,0,0,2,1,-1,-1
18:17:42:131184,9,8,-3,-1,-4,0,-14,1
18:17:42:137165,16,9,-3,-2,1,-3,-3,4
18:17:42:145362,16,9,-3,-2,1,-3,-3,4
18:17:42:146136,-9,-15,3,5,2,1,1,-4
18:17:42:159645,-14,-8,-1,-4,-3,-1,-8,-3
18:17:42:167890,-14,-8,-1,-4,-3,-1,-8,-3
18:17:42:168678,14,29,-1,0,1,-4,-3,2
18:17:42:174677,-17,-19,0,2,-2,-2,2,-2
18:17:42:190398,-17,-19,0,2,-2,-2,2,-2
18:17:42:191199,-18,-21,-3,4,3,-1,-6,-5
18:17:42:197189,-10,-6,2,-1,2,-3,-1,7
18:17:42:205400,-10,-6,2,-1,2,-3,-1,7
18:17:42:206195,28,56,1,2,0,-3,11,8
18:17:42:219653,2,5,0,2,1,-2,-8,-4
18:17:42:227888,2,5,0,2,1,-2,-8,-4
18:17:42:228678,-11,13,-4,-4,-4,-3,1,-2
18:17:42:234671,12,6,0,-1,-4,-5,4,3
18:17:42:250388,12,6,0,-1,-4,-5,4,3
18:17:42:251178,-15,-6,-6,0,-4,-1,-7,-7
18:17:42:257154,-10,-12,3,-1,0,2,1,-8
18:17:42:265420,-10,-12,3,-1,0,2,1,-8
18:17:42:266178,-14,0,1,0,2,1,10,1
18:17:42:279628,-30,-33,-5,-6,-1,-2,-1,-1
18:17:42:287892,-30,-33,-5,-6,-1,-2,-1,-1
18:17:42:288702,-7,-27,-4,-8,2,-1,-2,-4
18:17:42:294620,7,-18,3,1,1,7,6,0
18:17:42:310426,7,-18,3,1,1,7,6,0
18:17:42:311178,1,-17,2,-5,-1,0,-4,-5
18:17:42:317169,-15,-1,-2,-1,0,0,-11,-9
18:17:42:324730,-15,-1,-2,-1,0,0,-11,-9
18:17:42:332136,14,3,-4,1,-2,-1,1,2
18:17:42:339644,9,16,2,-1,-1,-4,7,1
18:17:42:347901,9,16,2,-1,-1,-4,7,1
18:17:42:348683,13,8,8,2,-1,-1,11,7
18:17:42:371020,-6,-2,-3,1,-4,-5,-5,-5
18:17:42:371857,-6,-2,-3,1,-4,-5,-5,-5
18:17:42:372652,13,14,-1,4,1,-3,-11,-2
18:17:42:377151,25,23,3,-3,-4,-4,-14,7
18:17:42:384740,25,23,3,-3,-4,-4,-14,7
18:17:42:392169,-4,-4,5,1,2,2,1,-14
18:17:42:399654,22,11,-2,-1,-2,2,17,2
18:17:42:407890,22,11,-2,-1,-2,2,17,2
18:17:42:408682,-9,-8,-5,-4,-1,-2,5,6
18:17:42:422146,1,-12,-7,-2,1,2,5,3
18:17:42:430360,1,-12,-7,-2,1,2,5,3
18:17:42:431209,-2,27,13,5,1,1,0,2
18:17:42:445341,-31,-5,1,6,0,-2,-11,-6
18:17:42:446167,-31,-5,1,6,0,-2,-11,-6
18:17:42:452155,-2,9,-6,1,-3,-1,-3,0
18:17:42:459651,1,-7,-1,-3,0,2,0,1
18:17:42:467918,1,-7,-1,-3,0,2,0,1
18:17:42:468707,8,-7,-2,1,1,0,2,5
18:17:42:482133,-7,-8,0,4,1,-1,-11,-13
18:17:42:490372,-7,-8,0,4,1,-1,-11,-13
18:17:42:491169,-5,-21,-5,2,0,1,0,6
18:17:42:497174,5,48,-1,-4,-1,-4,2,-1
18:17:42:504728,5,48,-1,-4,-1,-4,2,-1
18:17:42:512128,1,22,12,-2,0,-2,-4,-3
18:17:42:519651,0,-6,-2,2,0,-3,-11,-3
18:17:42:527903,0,-6,-2,2,0,-3,-11,-3
18:17:42:528699,-14,-4,-8,4,0,1,-5,-3
18:17:42:542149,6,23,-2,-6,0,-1,7,7
18:17:42:550384,6,23,-2,-6,0,-1,7,7
18:17:42:551190,-1,-15,-2,4,0,1,-3,-28
18:17:42:557137,-11,-34,1,4,-2,-1,1,-7
18:17:42:564739,-11,-34,1,4,-2,-1,1,-7
18:17:42:572173,-4,-21,-1,-7,-3,2,1,3
18:17:42:579719,6,-5,0,-3,-5,-1,-3,0
18:17:42:587839,6,-5,0,-3,-5,-1,-3,0
18:17:42:588646,1,34,7,-5,-4,-3,4,7
18:17:42:602136,-16,-46,2,-3,1,0,-6,-1
18:17:42:610444,-16,-46,2,-3,1,0,-6,-1
18:17:42:611182,-1,3,-5,-1,-2,-7,-10,-12
18:17:42:617161,8,-4,1,2,-3,-2,-9,-7
18:17:42:624713,8,-4,1,2,-3,-2,-9,-7
18:17:42:632168,1,-24,-3,-3,-2,-1,3,7
18:17:42:648475,18,-4,-5,-5,-1,0,3,6
18:17:42:649350,18,-4,-5,-5,-1,0,3,6
18:17:42:650099,-2,-14,-2,-4,0,1,4,14
18:17:42:662144,1,32,3,-3,0,-3,6,2
18:17:42:670391,1,32,3,-3,0,-3,6,2
18:17:42:671175,-4,-13,-5,1,-3,-1,-27,-8
18:17:42:677177,-6,-8,-4,0,-3,0,9,-7
18:17:42:684759,-6,-8,-4,0,-3,0,9,-7
18:17:42:692203,-4,-28,-2,-2,-2,1,4,2
18:17:42:699682,9,-3,-6,-4,-1,0,-7,14
18:17:42:707845,9,-3,-6,-4,-1,0,-7,14
18:17:42:708622,-4,-15,-5,-4,0,0,6,-3
18:17:42:722668,-4,10,-3,-1,-3,0,6,3
18:17:42:730394,-4,10,-3,-1,-3,0,6,3
18:17:42:731204,-8,-1,-2,-6,-2,2,9,-2
18:17:42:737178,-27,37,4,-6,0,-1,-1,-4
18:17:42:744722,-27,37,4,-6,0,-1,-1,-4
18:17:42:752220,3,4,-3,-3,0,-3,-4,0
18:17:42:759670,-7,-11,0,2,-1,0,-7,-5
18:17:42:767877,-7,-11,0,2,-1,0,-7,-5
18:17:42:768663,-3,6,4,0,-4,-3,1,0
18:17:42:782178,3,-6,-1,-1,0,-2,0,-3
18:17:42:790356,3,-6,-1,-1,0,-2,0,-3
18:17:42:791161,6,-12,-5,1,-1,-4,1,-1
18:17:42:797167,15,5,4,0,-2,-1,-1,1
18:17:42:804729,15,5,4,0,-2,-1,-1,1
18:17:42:812157,-4,3,4,0,1,-1,-4,4
18:17:42:819636,9,0,-4,1,-1,2,4,-2
18:17:42:827905,9,0,-4,1,-1,2,4,-2
18:17:42:828665,4,4,-2,-2,0,-3,-2,-2
18:17:42:842188,1,-28,-6,-1,-1,-5,-11,1
18:17:42:850373,1,-28,-6,-1,-1,-5,-11,1
18:17:42:851173,-15,-4,0,0,-1,3,1,-6
18:17:42:857164,3,0,1,-3,-3,-2,-2,9
18:17:42:864771,3,0,1,-3,-3,-2,-2,9
18:17:42:872162,4,12,-2,3,-3,2,1,6
18:17:42:879688,-9,-16,-4,0,0,0,-3,3
18:17:42:887896,-9,-16,-4,0,0,0,-3,3
18:17:42:888681,-10,-8,-4,1,-2,1,13,-2
18:17:42:902151,-23,-2,-2,0,-1,-1,5,-7
18:17:42:910389,-23,-2,-2,0,-1,-1,5,-7
18:17:42:911173,-3,-4,1,-1,2,1,0,1
18:17:42:917158,0,5,4,-5,1,-1,4,-8
18:17:42:924789,0,5,4,-5,1,-1,4,-8
18:17:42:932209,-2,-40,0,-2,2,1,-5,3
18:17:42:939658,0,5,2,2,2,-3,-17,-8
18:17:42:947894,0,5,2,2,2,-3,-17,-8
18:17:42:948705,6,20,0,-2,0,-1,-11,-21
18:17:42:962198,5,-5,-1,5,3,3,0,7
18:17:42:970419,5,-5,-1,5,3,3,0,7
18:17:42:971193,19,13,-4,-5,-1,-4,-4,12
18:17:42:977193,-4,3,-5,-3,-2,-2,3,-5
18:17:42:984807,-4,3,-5,-3,-2,-2,3,-5
18:17:42:992226,-4,8,-3,0,0,1,4,3
18:17:42:999683,2,-12,-1,-3,-1,1,-4,-2
18:17:43:7894,2,-12,-1,-3,-1,1,-4,-2
18:17:43:8643,0,-5,-1,-6,-2,-1,4,0
18:17:43:22211,-5,-8,1,-2,-1,-2,1,1
18:17:43:30404,-5,-8,1,-2,-1,-2,1,1
18:17:43:31160,7,9,1,2,-1,-4,-14,-1
18:17:43:37211,-14,-1,1,3,2,-2,3,-10
18:17:43:44694,-14,-1,1,3,2,-2,3,-10
18:17:43:52173,-2,-1,-2,-4,0,-5,-10,-4
18:17:43:59704,4,-6,-3,-3,-2,4,13,5
18:17:43:67917,4,-6,-3,-3,-2,4,13,5
18:17:43:68677,0,57,2,1,-1,-2,0,-6
18:17:43:82172,14,-3,-1,-3,-3,0,-2,1
18:17:43:90345,14,-3,-1,-3,-3,0,-2,1
18:17:43:91183,-8,-10,0,-5,-2,-1,10,-1
18:17:43:97152,5,15,-2,1,0,-4,-17,4
18:17:43:104717,5,15,-2,1,0,-4,-17,4
18:17:43:112169,-13,-33,-3,1,-2,-2,-8,12
18:17:43:119657,6,-1,-2,1,1,-1,-4,-5
18:17:43:127886,6,-1,-2,1,1,-1,-4,-5
18:17:43:128660,10,-9,-2,3,0,1,7,6
18:17:43:142109,-1,1,1,-1,-2,-1,-4,-1
18:17:43:150371,-1,1,1,-1,-2,-1,-4,-1
18:17:43:151172,-2,2,-1,-3,0,0,-6,-3
18:17:43:157154,-1,-2,0,-3,0,1,12,0
18:17:43:164729,-1,-2,0,-3,0,1,12,0
18:17:43:172161,-11,27,-1,-2,-2,-3,3,1
18:17:43:179679,-10,-1,-3,-2,-2,-1,-1,-9
18:17:43:187883,-10,-1,-3,-2,-2,-1,-1,-9
18:17:43:188700,-5,-4,0,0,-1,0,4,2
18:17:43:202179,-3,7,0,-1,-1,-1,-3,-5
18:17:43:210412,-3,7,0,-1,-1,-1,-3,-5
18:17:43:211202,-9,-28,-2,-4,0,-4,-4,-5
18:17:43:217200,4,-12,0,-3,-3,2,-2,-1
18:17:43:224756,4,-12,0,-3,-3,2,-2,-1
18:17:43:232205,13,-4,-2,0,-2,-3,-5,5
18:17:43:239685,10,1,2,-1,1,-5,-20,-3
18:17:43:247889,10,1,2,-1,1,-5,-20,-3
18:17:43:248639,1,-14,-2,2,1,0,9,-4
18:17:43:262139,-3,6,-2,-1,1,-2,-6,-2
18:17:43:270444,-3,6,-2,-1,1,-2,-6,-2
18:17:43:271198,-6,0,0,0,-3,2,-1,-6
18:17:43:285396,7,-10,0,-4,-1,0,15,6
18:17:43:286182,7,-10,0,-4,-1,0,15,6
18:17:43:292164,2,4,0,5,-1,-1,-8,-6
18:17:43:299663,-16,5,-4,0,-1,-2,-8,1
18:17:43:307220,-16,5,-4,0,-1,-2,-8,1
18:17:43:314714,16,-10,-3,-2,-2,3,9,10
18:17:43:322225,6,3,2,-1,-2,-1,17,2
18:17:43:330359,6,3,2,-1,-2,-1,17,2
18:17:43:331180,-4,-5,0,-3,-2,0,-3,-10
18:17:43:345303,3,-5,-2,-3,-1,0,14,4
18:17:43:346153,3,-5,-2,-3,-1,0,14,4
18:17:43:352228,-2,-3,-3,-4,0,-4,-11,2
18:17:43:359725,0,1,-2,3,0,0,-20,1
18:17:43:367232,0,1,-2,3,0,0,-20,1
18:17:43:374691,-16,-12,0,-2,-1,1,-3,-5
18:17:43:382177,-4,8,3,1,-3,-2,-14,2
18:17:43:390374,-4,8,3,1,-3,-2,-14,2
18:17:43:391184,-6,-4,-2,-1,-3,1,0,-2
18:17:43:405364,-17,-20,-6,-4,-2,4,5,3
18:17:43:406152,-17,-20,-6,-4,-2,4,5,3
18:17:43:412176,1,3,4,0,-1,-2,14,-4
18:17:43:419684,9,7,2,3,2,0,-1,6
18:17:43:427274,9,7,2,3,2,0,-1,6
18:17:43:434620,7,9,-3,-1,1,-2,4,-3
18:17:43:442135,-1,4,-6,-4,-1,1,-2,-14
18:17:43:450392,-1,4,-6,-4,-1,1,-2,-14
18:17:43:451148,6,11,4,3,-1,-1,-7,3
18:17:43:465361,-2,-10,-2,-3,-1,-1,-2,7
18:17:43:466174,-2,-10,-2,-3,-1,-1,-2,7
18:17:43:472152,7,1,-1,-2,-2,0,-2,-1
18:17:43:479630,1,-5,-3,-3,1,-2,-1,-10
18:17:43:487231,1,-5,-3,-3,1,-2,-1,-10
18:17:43:494644,-10,-5,1,-3,-1,0,2,3
18:17:43:502174,2,0,-6,-2,-1,-3,2,-2
18:17:43:510387,2,0,-6,-2,-1,-3,2,-2
18:17:43:511171,-2,-4,-1,2,2,1,7,-1
18:17:43:525371,-7,-26,-1,-2,-2,0,18,8
18:17:43:526170,-7,-26,-1,-2,-2,0,18,8
18:17:43:532174,-7,4,-6,-2,-1,-3,-16,-13
18:17:43:539644,-7,3,2,-1,-1,-1,13,-3
18:17:43:547264,-7,3,2,-1,-1,-1,13,-3
18:17:43:554648,-3,-8,-7,-4,-5,1,9,0
18:17:43:562165,-4,6,2,1,-1,3,0,-20
18:17:43:570403,-4,6,2,1,-1,3,0,-20
18:17:43:571231,2,2,3,1,0,2,2,4
18:17:43:585362,7,4,-3,-1,-2,-4,3,-6
18:17:43:586218,7,4,-3,-1,-2,-4,3,-6
18:17:43:592147,4,0,-1,1,2,-1,-15,-5
18:17:43:599687,7,-10,3,0,2,2,-14,2
18:17:43:607238,7,-10,3,0,2,2,-14,2
18:17:43:614736,4,-1,-1,0,-2,-3,-6,-3
18:17:43:622192,-3,3,-6,-1,0,-2,-8,-4
18:17:43:630357,-3,3,-6,-1,0,-2,-8,-4
18:17:43:631144,-3,14,-1,-2,-3,-1,-3,-1
18:17:43:645384,2,2,0,0,-2,-2,9,3
18:17:43:646174,2,2,0,0,-2,-2,9,3
18:17:43:652176,-2,2,-4,-4,-1,-3,-7,-10
18:17:43:659681,-7,6,2,0,0,3,9,3
18:17:43:667163,-7,6,2,0,0,3,9,3
18:17:43:674690,-4,0,-1,1,2,1,8,10
18:17:43:682197,9,-4,-1,1,-2,0,-8,6
18:17:43:690369,9,-4,-1,1,-2,0,-8,6
18:17:43:691192,-3,12,5,1,3,0,16,-5
18:17:43:705354,3,6,2,-3,-1,-1,4,-6
18:17:43:706150,3,6,2,-3,-1,-1,4,-6
18:17:43:712174,-20,-22,0,-2,-2,5,-3,1
18:17:43:719719,0,15,-3,-2,0,-3,-13,0
18:17:43:727231,0,15,-3,-2,0,-3,-13,0
18:17:43:734630,11,6,2,-1,-1,-4,-13,-19
18:17:43:742163,-7,-14,3,-3,-4,0,-9,-16
18:17:43:750435,-7,-14,3,-3,-4,0,-9,-16
18:17:43:751181,0,0,-4,-2,-3,-3,8,26
18:17:43:765405,-3,3,-9,1,0,-2,-1,-1
18:17:43:766201,-3,3,-9,1,0,-2,-1,-1
18:17:43:772136,2,-6,-4,-4,-1,-6,2,-5
18:17:43:779629,0,2,-3,-2,1,2,7,5
18:17:43:787231,0,2,-3,-2,1,2,7,5
18:17:43:794691,0,2,0,0,-1,-1,-10,11
18:17:43:802144,3,-13,-6,-1,0,0,-4,-1
18:17:43:810398,3,-13,-6,-1,0,0,-4,-1
18:17:43:811205,4,-2,-3,-1,-1,-1,-3,-2
18:17:43:825755,-9,-1,1,0,-2,3,-1,4
18:17:43:832866,-9,-1,1,0,-2,3,-1,4
18:17:43:833673,0,1,-5,1,0,0,-5,1
18:17:43:839647,-5,-4,-3,-1,-1,-2,-14,-2
18:17:43:847230,-5,-4,-3,-1,-1,-2,-14,-2
18:17:43:854634,-6,6,3,-1,-3,-5,-67,-13
18:17:43:862180,4,8,3,-2,1,-1,6,-2
18:17:43:870335,4,8,3,-2,1,-1,6,-2
18:17:43:871177,-9,-14,3,2,0,5,20,-1
18:17:43:885439,0,-17,0,-2,-3,-4,-5,7
18:17:43:886231,0,-17,0,-2,-3,-4,-5,7
18:17:43:892163,5,-4,-2,0,0,0,22,5
18:17:43:899693,8,5,0,-3,1,-2,21,-6
18:17:43:907225,8,5,0,-3,1,-2,21,-6
18:17:43:914687,-7,-1,0,-2,-1,1,-10,-17
18:17:43:922190,-9,-9,-4,-2,-2,-1,-3,-1
18:17:43:930384,-9,-9,-4,-2,-2,-1,-3,-1
18:17:43:931184,4,-1,0,0,-2,-2,9,18
18:17:43:945323,-5,4,1,-4,-2,-4,-6,9
18:17:43:946146,-5,4,1,-4,-2,-4,-6,9
18:17:43:952186,-1,-2,-1,-3,-3,-2,7,2
18:17:43:959718,0,1,-3,-2,-1,-4,-6,1
18:17:43:967222,0,1,-3,-2,-1,-4,-6,1
18:17:43:974632,2,-1,-4,1,-2,-1,4,-21
18:17:43:982209,12,13,4,2,-3,-1,-4,-3
18:17:43:990380,12,13,4,2,-3,-1,-4,-3
18:17:43:991183,5,-4,-4,1,0,3,16,2
18:17:44:5365,4,2,-6,2,0,0,-23,5
18:17:44:6139,4,2,-6,2,0,0,-23,5
18:17:44:12148,-1,-4,0,-1,-1,0,0,15
18:17:44:19667,-10,-18,1,-4,-2,0,2,6
18:17:44:27221,-10,-18,1,-4,-2,0,2,6
18:17:44:34648,-4,2,-3,-5,2,-2,-2,-6
18:17:44:42138,-8,14,-6,-1,-2,-1,-10,-12
18:17:44:50378,-8,14,-6,-1,-2,-1,-10,-12
18:17:44:51176,-1,-2,-4,-2,1,-3,4,2
18:17:44:65364,2,1,1,0,1,1,5,4
18:17:44:66179,2,1,1,0,1,1,5,4
18:17:44:72139,9,8,-2,0,0,-1,-24,2
18:17:44:79650,-13,-6,2,0,1,2,-5,-12
18:17:44:87231,-13,-6,2,0,1,2,-5,-12
18:17:44:94671,-4,-10,0,-1,1,-3,-1,-16
18:17:44:102192,6,4,1,2,2,-1,11,8
18:17:44:110417,6,4,1,2,2,-1,11,8
18:17:44:111201,0,3,0,2,-3,2,1,-12
18:17:44:125356,1,-1,-3,-1,-2,0,5,3
18:17:44:126157,1,-1,-3,-1,-2,0,5,3
18:17:44:132173,2,2,-1,0,1,-2,8,6
18:17:44:139663,3,4,1,0,-1,-2,-4,3
18:17:44:147244,3,4,1,0,-1,-2,-4,3
18:17:44:154673,8,11,-1,-3,-3,1,-1,17
18:17:44:162198,-3,-3,-3,-3,-1,-5,-30,3
18:17:44:170342,-3,-3,-3,-3,-1,-5,-30,3
18:17:44:171161,2,-3,5,-1,1,2,8,0
18:17:44:185393,-5,13,6,0,-3,-1,5,-3
18:17:44:186237,-5,13,6,0,-3,-1,5,-3
18:17:44:192159,-10,-1,-2,-4,-1,0,-2,0
18:17:44:199675,-3,11,0,-1,0,-1,5,-6
18:17:44:207206,-3,11,0,-1,0,-1,5,-6
18:17:44:214706,-1,-1,-1,-3,-3,-3,12,4
18:17:44:222190,6,-7,-4,-1,-2,-1,8,7
18:17:44:229715,6,-7,-4,-1,-2,-1,8,7
18:17:44:237147,-6,-9,-2,1,1,-1,5,0
18:17:44:245385,-3,-12,-6,-2,-1,0,3,0
18:17:44:246179,-3,-12,-6,-2,-1,0,3,0
18:17:44:252141,-8,-11,0,-1,0,0,-1,0
18:17:44:267830,-3,-3,-4,-3,-3,-2,-2,-8
18:17:44:268649,-3,-3,-4,-3,-3,-2,-2,-8
18:17:44:274630,-7,-2,2,1,-1,0,-4,-6
18:17:44:282137,-6,-6,-2,0,3,-1,6,16
18:17:44:289711,-6,-6,-2,0,3,-1,6,16
18:17:44:297129,3,4,-3,-4,-2,1,-2,-2
18:17:44:313543,5,-6,1,3,0,2,4,-4
18:17:44:314329,5,-6,1,3,0,2,4,-4
18:17:44:315156,3,3,0,0,-1,-3,1,-6
18:17:44:327843,2,14,4,0,-3,-2,7,-12
18:17:44:328716,2,14,4,0,-3,-2,7,-12
18:17:44:334677,-3,-14,-3,-1,-1,-1,-13,-25
18:17:44:342178,-3,-8,-1,0,2,0,-3,15
18:17:44:349710,-3,-8,-1,0,2,0,-3,15
18:17:44:357174,0,6,3,-2,2,0,-12,9
18:17:44:365216,8,8,-5,-5,-2,-3,-2,-8
18:17:44:372869,8,8,-5,-5,-2,-3,-2,-8
18:17:44:373669,1,6,-2,1,-1,-2,-9,-16
18:17:44:387853,-9,-8,-1,-2,-3,0,-3,1
18:17:44:388675,-9,-8,-1,-2,-3,0,-3,1
18:17:44:394668,-11,-17,-2,-3,-3,-4,-4,4
18:17:44:402152,1,-11,-4,-1,0,1,8,6
18:17:44:409739,1,-11,-4,-1,0,1,8,6
18:17:44:417178,12,30,-9,-3,-2,-2,5,6
18:17:44:425399,-6,-1,-1,-3,0,0,20,-4
18:17:44:426193,-6,-1,-1,-3,0,0,20,-4
18:17:44:439613,1,-15,1,-4,-2,-2,5,4
18:17:44:447881,2,14,-6,-4,-2,-3,-7,-14
18:17:44:448682,2,14,-6,-4,-2,-3,-7,-14
18:17:44:454636,0,1,-3,-1,-1,-4,2,0
18:17:44:462136,-1,-7,-2,-1,-5,-2,0,4
18:17:44:469698,-1,-7,-2,-1,-5,-2,0,4
18:17:44:477203,5,-1,-2,0,-2,0,-13,5
18:17:44:485375,1,-3,-1,3,0,-2,-4,-20
18:17:44:486222,1,-3,-1,3,0,-2,-4,-20
18:17:44:492199,-10,-28,-1,1,1,2,-7,-4
18:17:44:507902,-10,-10,0,-4,0,-1,-9,-2
18:17:44:508702,-10,-10,0,-4,0,-1,-9,-2
18:17:44:514679,1,0,3,-3,-2,2,15,4
18:17:44:522159,5,1,-5,-2,1,0,-17,-2
18:17:44:529765,5,1,-5,-2,1,0,-17,-2
18:17:44:537171,8,11,-12,-4,-4,1,11,7
18:17:44:545340,-4,5,-4,-1,-1,1,-6,-8
18:17:44:546163,-4,5,-4,-1,-1,1,-6,-8
18:17:44:552216,1,-4,-8,0,0,-2,-8,-8
18:17:44:567910,2,4,1,1,0,0,-5,-14
18:17:44:568733,2,4,1,1,0,0,-5,-14
18:17:44:574683,-7,-9,4,0,4,0,6,-17
18:17:44:582208,3,-2,0,0,1,1,1,-6
18:17:44:589754,3,-2,0,0,1,1,1,-6
18:17:44:597193,5,7,3,-1,-2,-2,5,10
18:17:44:605353,-17,-2,3,-4,-4,-2,-23,-1
18:17:44:606164,-17,-2,3,-4,-4,-2,-23,-1
18:17:44:612140,-10,-3,-2,0,-2,-2,-6,4
18:17:44:627855,4,-2,-5,-2,-2,-2,13,9
18:17:44:628677,4,-2,-5,-2,-2,-2,13,9
18:17:44:634690,1,1,0,1,-1,-3,-9,3
18:17:44:642213,-4,-7,-2,-1,0,2,5,1
18:17:44:649717,-4,-7,-2,-1,0,2,5,1
18:17:44:657160,6,3,-1,0,2,-6,-22,-9
18:17:44:665365,7,-4,-1,-2,0,-1,3,5
18:17:44:666182,7,-4,-1,-2,0,-1,3,5
18:17:44:672128,-12,-2,5,1,-3,-5,-37,1
18:17:44:687838,1,1,8,1,2,-2,-8,-1
18:17:44:688649,1,1,8,1,2,-2,-8,-1
18:17:44:694647,9,-9,-4,1,0,3,15,0
18:17:44:702154,9,-6,-4,-1,-1,0,12,16
18:17:44:709754,9,-6,-4,-1,-1,0,12,16
18:17:44:717146,-8,-6,-1,-1,-1,2,7,4
18:17:44:725389,3,3,-2,1,1,0,-11,-1
18:17:44:726199,3,3,-2,1,1,0,-11,-1
18:17:44:732191,2,0,-1,-2,-1,2,14,-8
18:17:44:747894,-2,2,2,-2,-4,3,14,-4
18:17:44:748696,-2,2,2,-2,-4,3,14,-4
18:17:44:754657,-7,0,0,-2,-2,1,4,-19
18:17:44:762167,-1,5,-2,-4,-3,-5,-4,-6
18:17:44:769744,-1,5,-2,-4,-3,-5,-4,-6
18:17:44:777188,3,6,5,0,-3,-4,-14,-2
18:17:44:785387,-6,6,-3,0,-2,2,3,-1
18:17:44:786206,-6,6,-3,0,-2,2,3,-1
18:17:44:792167,5,-6,-2,-1,-4,0,12,1
18:17:44:807881,12,0,-3,-3,-1,0,-10,5
18:17:44:808684,12,0,-3,-3,-1,0,-10,5
18:17:44:814657,-3,-7,-7,-5,-1,-3,0,20
18:17:44:822174,-4,-5,-2,-1,0,-1,8,-9
18:17:44:829742,-4,-5,-2,-1,0,-1,8,-9
18:17:44:837198,-2,8,0,1,0,1,12,0
18:17:44:845359,1,-2,1,-1,0,2,14,10
18:17:44:846177,1,-2,1,-1,0,2,14,10
18:17:44:852193,5,3,3,5,5,1,8,8
18:17:44:868309,2,-8,1,2,0,-2,-17,5
18:17:44:869146,2,-8,1,2,0,-2,-17,5
18:17:44:874702,3,4,1,2,0,3,5,7
18:17:44:882206,-1,18,7,-1,-3,-3,-17,-5
18:17:44:889712,-1,18,7,-1,-3,-3,-17,-5
18:17:44:897210,3,-2,-3,-1,1,2,2,-3
18:17:44:905336,-1,3,-2,-1,0,0,10,-14
18:17:44:906142,-1,3,-2,-1,0,0,10,-14
18:17:44:912141,-8,10,5,-4,-4,-8,-26,6
18:17:44:927859,0,-2,-5,-2,1,0,8,6
18:17:44:928664,0,-2,-5,-2,1,0,8,6
18:17:44:934717,-2,0,-4,0,-1,2,14,-1
18:17:44:942185,-6,0,-6,1,-2,-6,-9,5
18:17:44:949734,-6,0,-6,1,-2,-6,-9,5
18:17:44:957188,-12,-25,3,-2,-3,0,2,19
18:17:44:965379,-4,-5,-6,-1,0,-2,-11,-18
18:17:44:966189,-4,-5,-6,-1,0,-2,-11,-18
18:17:44:972140,-4,2,-1,-2,-1,-1,-2,-12
18:17:44:987879,-15,-18,-7,0,-1,-3,-3,0
18:17:44:988651,-15,-18,-7,0,-1,-3,-3,0
18:17:44:994680,2,5,-8,-2,1,-3,-13,-29
18:17:45:2123,-5,3,5,0,2,3,26,6
18:17:45:9722,-5,3,5,0,2,3,26,6
18:17:45:17154,1,0,-6,-2,-2,1,10,-10
18:17:45:25404,-1,-4,-1,-1,-2,1,0,-8
18:17:45:26173,-1,-4,-1,-1,-2,1,0,-8
18:17:45:32179,-18,-16,-1,-5,0,-2,-17,0
18:17:45:47875,0,-4,4,-1,1,0,1,16
18:17:45:48684,0,-4,4,-1,1,0,1,16
18:17:45:54664,1,9,-3,1,-1,-2,-5,4
18:17:45:62193,-4,-4,-1,0,-2,0,-8,4
18:17:45:69713,-4,-4,-1,0,-2,0,-8,4
18:17:45:77168,5,6,0,1,-1,2,14,0
18:17:45:85359,-3,3,2,-2,-1,-1,6,-3
18:17:45:86224,-3,3,2,-2,-1,-1,6,-3
18:17:45:92189,0,4,1,-3,1,0,17,2
18:17:45:107891,2,1,-5,0,-2,-1,-3,3
18:17:45:108685,2,1,-5,0,-2,-1,-3,3
18:17:45:114671,-4,-10,2,-3,-2,-2,-10,4
18:17:45:122192,3,0,2,0,-1,-2,-14,-9
18:17:45:129735,3,0,2,0,-1,-2,-14,-9
18:17:45:146052,-3,6,-1,-2,-2,-3,-6,-31
18:17:45:146839,11,5,3,-2,1,-4,-15,-5
18:17:45:147679,11,5,3,-2,1,-4,-15,-5
18:17:45:152178,1,2,1,-3,-2,0,-4,-2
18:17:45:167885,-10,-11,-5,-1,-2,-1,2,-5
18:17:45:168692,-10,-11,-5,-1,-2,-1,2,-5
18:17:45:174633,-6,6,1,2,0,1,3,17
18:17:45:190346,18,12,2,-1,-2,3,-1,-13
18:17:45:191155,18,12,2,-1,-2,3,-1,-13
18:17:45:197123,0,1,-1,-1,2,1,0,4
18:17:45:205355,-3,-10,-2,-2,0,-2,-15,-3
18:17:45:206192,-3,-10,-2,-2,0,-2,-15,-3
18:17:45:219642,4,7,1,-1,-3,0,7,-2
18:17:45:227864,-8,-10,-4,-2,1,-1,24,19
18:17:45:228684,-8,-10,-4,-2,1,-1,24,19
18:17:45:234647,1,-14,-7,-1,-1,-2,-8,1
18:17:45:250345,-2,3,-3,-2,-1,0,13,9
18:17:45:251172,-2,3,-3,-2,-1,0,13,9
18:17:45:257155,10,11,-4,-1,-2,-4,-4,-2
18:17:45:265393,-13,-6,-1,-1,-1,7,-8,-6
18:17:45:266223,-13,-6,-1,-1,-1,7,-8,-6
18:17:45:279657,-2,0,0,1,-1,0,-11,-10
18:17:45:287857,6,13,-1,-3,-1,-1,-8,-29
18:17:45:288654,6,13,-1,-3,-1,-1,-8,-29
18:17:45:294631,-3,-5,0,-2,-2,-4,-12,-9
18:17:45:310367,-3,-5,0,-2,-2,-4,-12,-9
18:17:45:311189,-7,3,-2,-1,-2,-3,-7,-17
18:17:45:317157,11,0,-8,-4,-2,-1,13,7
18:17:45:325392,11,0,-8,-4,-2,-1,13,7
18:17:45:326179,-6,-3,-4,-1,-2,-1,-21,2
18:17:45:339732,-3,-2,-5,1,-1,0,-15,-2
18:17:45:347879,-3,-2,-5,1,-1,0,-15,-2
18:17:45:348680,16,2,-5,-1,2,-1,9,1
18:17:45:354659,-5,0,-1,-2,-1,0,10,-5
18:17:45:370374,-5,0,-1,-2,-1,0,10,-5
18:17:45:371188,-5,-5,-5,1,-2,-1,17,15
18:17:45:377225,-11,-6,1,-1,0,3,6,-4
18:17:45:385386,-11,-6,1,-1,0,3,6,-4
18:17:45:386157,3,2,0,0,0,-2,1,-2
18:17:45:399689,9,-2,0,0,-2,-6,-34,-22
18:17:45:407864,9,-2,0,0,-2,-6,-34,-22
18:17:45:408681,6,10,1,-1,-1,0,-20,-1
18:17:45:414702,-3,-15,-3,-2,2,-2,15,17
18:17:45:430352,-3,-15,-3,-2,2,-2,15,17
18:17:45:431138,-3,-7,2,-1,-2,-2,3,1
18:17:45:437204,-18,2,1,0,-5,-3,-23,-14
18:17:45:445388,-18,2,1,0,-5,-3,-23,-14
18:17:45:446177,-4,-7,1,2,0,-2,-17,4
18:17:45:459687,3,7,-4,-1,0,-2,20,11
18:17:45:476119,3,7,-4,-1,0,-2,20,11
18:17:45:476856,-12,22,5,-3,-3,-2,4,-5
18:17:45:477681,1,2,0,-1,2,2,9,3
18:17:45:490404,1,2,0,-1,2,2,9,3
18:17:45:491162,15,2,2,-1,-1,-2,4,4
18:17:45:497156,1,-10,-3,-1,0,2,8,-4
18:17:45:505387,1,-10,-3,-1,0,2,8,-4
18:17:45:506192,2,-3,-7,-5,-1,-9,-57,-2
18:17:45:519655,2,-13,-1,-3,-1,-5,5,19
18:17:45:527883,2,-13,-1,-3,-1,-5,5,19
18:17:45:528707,2,15,-4,2,-2,1,23,4
18:17:45:534648,-4,9,3,-1,1,0,-7,-2
18:17:45:550397,-4,9,3,-1,1,0,-7,-2
18:17:45:551179,0,-8,0,-4,-1,2,21,12
18:17:45:557161,-1,7,-1,-2,-3,-4,0,-4
18:17:45:565379,-1,7,-1,-2,-3,-4,0,-4
18:17:45:566235,-13,-9,-1,2,2,-5,-38,-29
18:17:45:579673,1,-15,1,2,4,6,-6,-8
18:17:45:587911,1,-15,1,2,4,6,-6,-8
18:17:45:588682,5,-10,-6,-1,1,4,22,5
18:17:45:594649,-8,3,1,-2,-2,-2,0,2
18:17:45:610378,-8,3,1,-2,-2,-2,0,2
18:17:45:611191,2,0,2,3,-1,1,8,1
18:17:45:617177,8,-14,-14,-2,-4,-1,13,30
18:17:45:625405,8,-14,-14,-2,-4,-1,13,30
18:17:45:626164,6,-1,-3,-3,-1,-1,-14,5
18:17:45:639692,-2,17,3,2,0,0,-34,-9
18:17:45:647842,-2,17,3,2,0,0,-34,-9
18:17:45:648671,3,10,1,-2,0,2,12,10
18:17:45:654667,3,1,-2,0,1,-2,2,-13
18:17:45:670381,3,1,-2,0,1,-2,2,-13
18:17:45:671154,-8,-4,-6,-1,-2,-2,26,25
18:17:45:677197,4,4,-2,-1,-2,0,6,-10
18:17:45:685382,4,4,-2,-1,-2,0,6,-10
18:17:45:686170,2,-13,-8,-4,0,-1,24,-6
18:17:45:699685,-4,6,-2,-1,-1,-5,-9,0
18:17:45:707889,-4,6,-2,-1,-1,-5,-9,0
18:17:45:708677,7,-3,-4,-2,-2,-2,-8,-5
18:17:45:714734,-1,-9,6,-1,0,-2,7,27
18:17:45:730379,-1,-9,6,-1,0,-2,7,27
18:17:45:731128,-3,-7,4,2,-2,-8,-41,-6
18:17:45:737186,5,1,-5,-2,0,-1,13,5
18:17:45:745209,5,1,-5,-2,0,-1,13,5
18:17:45:752158,-3,-3,-3,0,-1,-2,-4,-2
18:17:45:759648,-4,-2,7,0,-2,-1,-4,-15
18:17:45:767861,-4,-2,7,0,-2,-1,-4,-15
18:17:45:768674,-1,6,-4,1,0,2,11,-17
18:17:45:774688,-1,-2,-5,-2,-1,-4,-4,1
18:17:45:790382,-1,-2,-5,-2,-1,-4,-4,1
18:17:45:791188,-9,5,0,-2,0,2,9,-7
18:17:45:797151,0,3,-2,0,0,1,13,13
18:17:45:805412,0,3,-2,0,0,1,13,13
18:17:45:806190,0,-7,-5,-2,-3,0,-10,-4
18:17:45:819704,-14,-4,1,0,-3,-3,-2,2
18:17:45:827871,-14,-4,1,0,-3,-3,-2,2
18:17:45:828684,8,8,5,-3,-2,-1,19,10
18:17:45:834631,4,-2,-1,-1,-2,-2,-8,-2
18:17:45:850364,4,-2,-1,-1,-2,-2,-8,-2
18:17:45:851147,-14,-4,11,2,-1,-3,6,-4
18:17:45:857223,4,2,-3,-1,0,2,6,-3
18:17:45:865418,4,2,-3,-1,0,2,6,-3
18:17:45:866208,-6,-7,0,-3,0,0,3,-9
18:17:45:879683,13,-2,-1,-4,-4,-3,-12,-8
18:17:45:887863,13,-2,-1,-4,-4,-3,-12,-8
18:17:45:888675,11,3,-3,-4,-1,4,3,-7
18:17:45:894714,-1,-10,-3,0,1,-4,-20,-19
18:17:45:910385,-1,-10,-3,0,1,-4,-20,-19
18:17:45:911153,-8,-3,0,1,-1,-1,-2,13
18:17:45:917202,-2,22,7,2,0,2,2,-11
18:17:45:925377,-2,22,7,2,0,2,2,-11
18:17:45:926163,6,9,-6,-1,-2,-2,-16,6
18:17:45:939689,-1,15,-2,0,-1,1,-6,-3
18:17:45:956079,-1,15,-2,0,-1,1,-6,-3
18:17:45:956855,-17,-15,0,-1,-1,1,3,12
18:17:45:957670,5,-2,-1,-4,-2,-1,5,1
18:17:45:978544,5,-2,-1,-4,-2,-1,5,1
18:17:45:979334,5,3,-5,-1,0,2,2,-13
18:17:45:980161,-5,-5,2,-2,-1,1,-1,6
18:17:45:985352,-5,-5,2,-2,-1,1,-1,6
18:17:45:986169,-1,2,3,-1,0,3,12,4
18:17:45:999673,-2,-8,6,1,-2,0,12,6
18:17:46:7877,-2,-8,6,1,-2,0,12,6
18:17:46:8666,1,-12,-8,-1,-2,-4,-18,-10
18:17:46:14661,-4,-3,-2,0,-1,2,9,1
18:17:46:30852,-4,-3,-2,0,-1,2,9,1
18:17:46:31611,2,7,3,-3,3,-6,-7,-6
18:17:46:37171,-1,-9,-8,-2,-1,1,2,-1
18:17:46:45368,-1,-9,-8,-2,-1,1,2,-1
18:17:46:46152,3,9,0,0,-1,-2,-4,6
18:17:46:59674,-10,3,-8,-2,-1,-2,1,5
18:17:46:67864,-10,3,-8,-2,-1,-2,1,5
18:17:46:68682,-5,-1,-3,0,-3,-3,-8,-2
18:17:46:74708,-6,-14,-1,-1,-2,-4,-8,0
18:17:46:90349,-6,-14,-1,-1,-2,-4,-8,0
18:17:46:91151,-13,-6,1,-1,-1,1,6,-14
18:17:46:105829,8,-3,-1,-1,-1,3,6,-9
18:17:46:106807,8,-3,-1,-1,-1,3,6,-9
18:17:46:112194,6,3,-2,-1,0,-1,-3,3
18:17:46:119685,-5,2,0,-1,-3,-1,-1,-18
18:17:46:128302,-5,2,0,-1,-3,-1,-1,-18
18:17:46:134710,-5,-15,-6,0,-2,-2,-2,-8
18:17:46:142190,4,-2,-6,-2,1,-1,12,-2
18:17:46:150381,4,-2,-6,-2,1,-1,12,-2
18:17:46:151173,-1,1,-3,-1,-2,-2,9,7
18:17:46:157175,-16,-11,-6,-3,1,4,9,1
18:17:46:164745,-16,-11,-6,-3,1,4,9,1
18:17:46:180348,6,9,-6,-2,-1,-1,-6,5
18:17:46:181148,-3,11,4,-1,0,-7,-10,0
18:17:46:187873,-3,11,4,-1,0,-7,-10,0
18:17:46:188634,-3,-5,-3,-4,-1,5,1,5
18:17:46:202160,-5,-7,0,-4,-1,-2,-1,-4
18:17:46:210351,-5,-7,0,-4,-1,-2,-1,-4
18:17:46:211153,1,-10,-1,3,1,2,3,5
18:17:46:217167,12,3,4,0,0,-4,-12,2
18:17:46:224700,12,3,4,0,0,-4,-12,2
18:17:46:232166,4,16,-1,-4,-3,-3,-5,-4
18:17:46:256072,20,24,-18,0,-2,-4,-23,4
18:17:46:256873,20,24,-18,0,-2,-4,-23,4
18:17:46:257638,-12,-13,5,2,0,-1,-2,5
18:17:46:262145,5,2,-4,-1,-2,4,2,-4
18:17:46:270425,5,2,-4,-1,-2,4,2,-4
18:17:46:271203,8,4,4,0,-3,-6,-12,4
18:17:46:277163,3,0,-4,-4,-2,0,0,2
18:17:46:284742,3,0,-4,-4,-2,0,0,2
18:17:46:292211,3,-9,7,-2,-1,1,8,2
18:17:46:299681,-12,-11,-4,-2,0,2,-2,-8
18:17:46:307858,-12,-11,-4,-2,0,2,-2,-8
18:17:46:308647,2,-6,-10,-5,0,-1,-2,-6
18:17:46:322200,-8,-9,6,4,-1,0,4,-7
18:17:46:330372,-8,-9,6,4,-1,0,4,-7
18:17:46:331135,4,5,-2,0,2,1,-5,0
18:17:46:337185,8,-3,4,-2,1,0,8,11
18:17:46:344708,8,-3,4,-2,1,0,8,11
18:17:46:352178,-6,-15,-2,-6,-3,-1,1,-3
18:17:46:359691,-17,-12,-3,-2,1,-3,1,3
18:17:46:375352,-17,-12,-3,-2,1,-3,1,3
18:17:46:376146,4,18,5,1,0,-3,-1,-3
18:17:46:382201,4,2,2,2,1,2,0,2
18:17:46:390342,4,2,2,2,1,2,0,2
18:17:46:391185,-19,-1,2,-3,-1,-1,-7,-10
18:17:46:397193,-5,-5,1,-1,-1,-1,-12,-8
18:17:46:404722,-5,-5,1,-1,-1,-1,-12,-8
18:17:46:412213,5,-9,-7,-1,-1,0,2,3
18:17:46:419717,4,-3,3,6,3,-1,-2,1
18:17:46:427905,4,-3,3,6,3,-1,-2,1
18:17:46:428660,2,4,-2,0,-2,-7,-26,-4
18:17:46:442163,-5,-11,-3,1,-1,0,5,-2
18:17:46:458544,-5,-11,-3,1,-1,0,5,-2
18:17:46:459314,3,8,-3,-1,1,-1,5,-3
18:17:46:460128,12,28,-12,-3,-3,-3,-1,4
18:17:46:464710,12,28,-12,-3,-3,-3,-1,4
18:17:46:472165,10,-9,0,-1,0,0,6,-6
18:17:46:479654,6,15,-2,-4,-2,1,2,1
18:17:46:487915,6,15,-2,-4,-2,1,2,1
18:17:46:488675,-3,4,-2,4,-1,1,8,1
18:17:46:502186,17,45,3,-8,-6,-5,-5,1
18:17:46:510351,17,45,3,-8,-6,-5,-5,1
18:17:46:511194,-1,-18,0,1,1,2,6,-3
18:17:46:517158,-6,-12,-3,-1,1,1,-9,1
18:17:46:524701,-6,-12,-3,-1,1,1,-9,1
18:17:46:532181,-9,5,-11,-1,-2,-2,0,-1
18:17:46:539669,-1,-10,6,0,-2,-2,-1,-4
18:17:46:547903,-1,-10,6,0,-2,-2,-1,-4
18:17:46:548717,-14,29,-15,-6,2,-3,0,3
18:17:46:562151,1,-34,-1,-1,-3,1,7,13
18:17:46:570379,1,-34,-1,-1,-3,1,7,13
18:17:46:571183,-1,1,7,-1,-1,-1,2,0
18:17:46:577167,-18,-8,-6,0,-2,-3,-3,-7
18:17:46:584721,-18,-8,-6,0,-2,-3,-3,-7
18:17:46:592157,13,10,-2,0,1,-1,3,2
18:17:46:599697,-2,1,3,-3,3,2,-2,-4
18:17:46:607950,-2,1,3,-3,3,2,-2,-4
18:17:46:608694,4,-16,-4,0,0,1,1,-6
18:17:46:622193,0,-1,2,-1,0,3,1,-3
18:17:46:630417,0,-1,2,-1,0,3,1,-3
18:17:46:631230,11,44,4,-3,-3,-1,-1,9
18:17:46:637223,-1,-11,4,-1,-3,-5,-7,-1
18:17:46:644741,-1,-11,4,-1,-3,-5,-7,-1
18:17:46:652165,1,-11,1,10,0,1,-3,2
18:17:46:659686,-6,11,1,-2,-2,-2,0,-2
18:17:46:667879,-6,11,1,-2,-2,-2,0,-2
18:17:46:668672,-11,-18,2,-3,-2,-1,-3,-7
18:17:46:682170,22,6,-13,0,6,1,-4,-10
18:17:46:690376,22,6,-13,0,6,1,-4,-10
18:17:46:691187,0,-4,4,2,1,0,-1,-4
18:17:46:697177,-7,3,-1,2,-3,-3,0,0
18:17:46:704681,-7,3,-1,2,-3,-3,0,0
18:17:46:712178,-3,-21,2,3,-2,-2,-3,1
18:17:46:719706,4,-2,-10,3,1,1,1,4
18:17:46:735332,4,-2,-10,3,1,1,1,4
18:17:46:736144,-6,-11,-1,-1,0,1,2,-9
18:17:46:742210,-22,-36,-2,-4,-2,-3,0,-4
18:17:46:750357,-22,-36,-2,-4,-2,-3,0,-4
18:17:46:751158,0,5,-2,-3,-1,-1,2,-2
18:17:46:757200,-2,-3,1,-4,-3,-1,3,10
18:17:46:764708,-2,-3,1,-4,-3,-1,3,10
18:17:46:772205,5,-34,3,-6,-1,3,4,7
18:17:46:779638,9,35,1,0,-2,1,3,5
18:17:46:787925,9,35,1,0,-2,1,3,5
18:17:46:788712,-17,4,6,-1,-1,-4,-3,-14
18:17:46:810999,-19,-68,4,4,3,1,-1,2
18:17:46:811826,-19,-68,4,4,3,1,-1,2
18:17:46:812642,0,0,-3,-5,-1,-6,-4,1
18:17:46:817253,7,4,4,0,0,-3,-4,-1
18:17:46:824703,7,4,4,0,0,-3,-4,-1
18:17:46:832204,-6,-22,-17,-2,0,2,-3,4
18:17:46:839716,-3,6,-6,-2,-2,0,-4,-11
18:17:46:847881,-3,6,-6,-2,-2,0,-4,-11
18:17:46:848672,8,26,-8,-3,-1,-2,-2,-2
18:17:46:862203,11,-2,1,-3,-1,0,3,2
18:17:46:870374,11,-2,1,-3,-1,0,3,2
18:17:46:871169,-4,-3,3,3,-2,-1,5,8
18:17:46:877164,-7,12,-1,1,-4,-6,0,-4
18:17:46:884727,-7,12,-1,1,-4,-6,0,-4
18:17:46:892161,-10,21,-4,-2,0,2,0,-6
18:17:46:899651,10,8,-3,1,0,-2,-3,-4
18:17:46:907936,10,8,-3,1,0,-2,-3,-4
18:17:46:908683,17,-12,-4,-2,3,-2,-1,1
18:17:46:922165,-4,7,3,-11,-5,-1,-4,-11
18:17:46:930377,-4,7,3,-11,-5,-1,-4,-11
18:17:46:931185,-18,-30,-3,-4,-2,-1,-7,1
18:17:46:937162,1,-11,0,0,1,1,3,7
18:17:46:944724,1,-11,0,0,1,1,3,7
18:17:46:952157,-11,-28,-4,-2,-1,4,-1,-11
18:17:46:959664,-18,5,-7,-3,0,-2,0,1
18:17:46:967891,-18,5,-7,-3,0,-2,0,1
18:17:46:968693,4,2,7,3,-1,-1,3,7
18:17:46:982187,-1,1,-6,-14,-8,-5,-4,-14
18:17:46:990394,-1,1,-6,-14,-8,-5,-4,-14
18:17:46:991182,15,7,9,4,2,-3,-4,3
18:17:46:997175,5,3,0,8,4,-1,-2,-5
18:17:47:4782,5,3,0,8,4,-1,-2,-5
18:17:47:12152,-12,7,-3,-1,-1,-4,-5,-10
18:17:47:19674,-1,-12,2,2,1,1,1,2
18:17:47:27880,-1,-12,2,2,1,1,1,2
18:17:47:28648,7,2,0,8,0,0,4,11
18:17:47:42173,31,9,2,-3,-3,-2,0,5
18:17:47:50384,31,9,2,-3,-3,-2,0,5
18:17:47:51199,20,51,-6,2,-1,0,4,3
18:17:47:57181,9,-24,6,2,4,7,5,9
18:17:47:72937,9,-24,6,2,4,7,5,9
18:17:47:73689,-15,-15,0,-8,-2,-1,-3,-4
18:17:47:79697,-11,0,3,10,5,-1,-2,5
18:17:47:87281,-11,0,3,10,5,-1,-2,5
18:17:47:94660,3,17,-6,-11,-2,-5,-2,-13
18:17:47:102162,-19,5,-5,-5,-1,-2,-9,-19
18:17:47:110348,-19,5,-5,-5,-1,-2,-9,-19
18:17:47:111180,14,5,0,2,1,0,2,7
18:17:47:125402,3,12,-1,-4,-2,-2,1,8
18:17:47:126221,3,12,-1,-4,-2,-2,1,8
18:17:47:132149,-34,-67,9,0,-3,-2,-6,-9
18:17:47:139652,-31,-31,-2,4,0,-1,-9,-4
18:17:47:147208,-31,-31,-2,4,0,-1,-9,-4
18:17:47:154677,-6,-1,-1,2,2,3,5,6
18:17:47:162229,-2,7,-13,-8,-2,-1,0,2
18:17:47:170385,-2,7,-13,-8,-2,-1,0,2
18:17:47:171181,-6,8,-2,-7,-2,0,0,3
18:17:47:185352,0,8,-2,-1,-1,3,-1,-6
18:17:47:186175,0,8,-2,-1,-1,3,-1,-6
18:17:47:192180,2,5,-3,2,-2,-2,3,2
18:17:47:199692,6,-2,1,0,-2,-3,2,12
18:17:47:207233,6,-2,1,0,-2,-3,2,12
18:17:47:214618,2,-7,-1,-3,-3,-1,-2,1
18:17:47:222159,8,-1,-5,2,-2,-3,-2,-4
18:17:47:230379,8,-1,-5,2,-2,-3,-2,-4
18:17:47:231191,16,42,-4,-2,1,1,0,4
18:17:47:253506,-30,-31,2,-6,-2,1,-2,-5
18:17:47:254321,-30,-31,2,-6,-2,1,-2,-5
18:17:47:255160,13,-8,-8,-5,-3,-4,-1,-1
18:17:47:259658,5,18,-3,-2,0,1,3,-3
18:17:47:267218,5,18,-3,-2,0,1,3,-3
18:17:47:274729,12,0,2,2,1,3,2,0
18:17:47:282243,17,9,2,0,2,-3,1,2
18:17:47:290382,17,9,2,0,2,-3,1,2
18:17:47:291180,-5,-17,-1,-14,-5,-1,-2,-2
18:17:47:305383,-3,4,1,3,2,-3,0,0
18:17:47:306164,-3,4,1,3,2,-3,0,0
18:17:47:312209,-10,-15,7,10,3,0,2,7
18:17:47:319698,11,13,-4,-2,0,-2,-3,-4
18:17:47:327259,11,13,-4,-2,0,-2,-3,-4
18:17:47:334688,11,1,-3,1,-1,-3,-3,-11
18:17:47:342178,5,-3,-7,2,-1,2,3,3
18:17:47:350385,5,-3,-7,2,-1,2,3,3
18:17:47:351192,-21,-31,-15,-5,-1,-1,-1,-9
18:17:47:365347,4,4,-6,2,1,0,-3,-1
18:17:47:366184,4,4,-6,2,1,0,-3,-1
18:17:47:372165,8,33,4,2,0,-6,-8,-6
18:17:47:379644,-6,-5,4,-6,-5,-4,-6,-19
18:17:47:387204,-6,-5,4,-6,-5,-4,-6,-19
18:17:47:394646,6,-7,1,-5,-2,1,-1,-7
18:17:47:402158,13,27,-6,-7,-4,0,1,7
18:17:47:410423,13,27,-6,-7,-4,0,1,7
18:17:47:411210,3,10,4,2,1,-1,-4,0
18:17:47:425354,-15,-28,-2,0,-2,-3,-4,9
18:17:47:426206,-15,-28,-2,0,-2,-3,-4,9
18:17:47:432169,2,-12,-10,2,-1,-4,-1,5
18:17:47:439638,16,-1,4,4,0,0,2,2
18:17:47:447227,16,-1,4,4,0,0,2,2
18:17:47:454639,-24,-32,-5,-5,0,1,-3,-7
18:17:47:462145,-1,-9,0,-3,-3,-1,-1,-6
18:17:47:470413,-1,-9,0,-3,-3,-1,-1,-6
18:17:47:471210,-3,-3,4,1,0,4,7,-2
18:17:47:485370,-11,41,2,4,1,0,-3,-3
18:17:47:486187,-11,41,2,4,1,0,-3,-3
18:17:47:492171,-8,1,-2,-6,-3,1,1,-2
18:17:47:499686,3,-11,-1,-2,-1,-3,-1,-3
18:17:47:507272,3,-11,-1,-2,-1,-3,-1,-3
18:17:47:514694,5,2,6,3,-1,1,0,5
18:17:47:522171,-19,-3,-1,-6,2,-2,-4,-5
18:17:47:530379,-19,-3,-1,-6,2,-2,-4,-5
18:17:47:531180,-20,-7,1,-2,-8,-3,-6,-15
18:17:47:545346,-5,-7,9,0,2,0,2,4
18:17:47:546172,-5,-7,9,0,2,0,2,4
18:17:47:552220,2,66,12,3,1,-4,-3,0
18:17:47:559706,-8,-27,-6,0,-2,0,0,1
18:17:47:567222,-8,-27,-6,0,-2,0,0,1
18:17:47:574680,0,-10,-11,-4,-1,1,2,9
18:17:47:582205,9,-8,-3,-4,-2,-1,-2,6
18:17:47:590360,9,-8,-3,-4,-2,-1,-2,6
18:17:47:591154,-7,-2,-6,2,4,2,-1,1
18:17:47:604667,14,14,-8,2,-2,0,2,-1
18:17:47:612884,14,14,-8,2,-2,0,2,-1
18:17:47:613655,14,-5,-2,-5,0,2,4,1
18:17:47:619693,-8,6,2,-6,0,3,-3,-4
18:17:47:627229,-8,6,2,-6,0,3,-3,-4
18:17:47:634667,13,-9,2,1,1,-2,2,7
18:17:47:642168,-7,-10,1,-1,1,1,-3,-4
18:17:47:650364,-7,-10,1,-1,1,1,-3,-4
18:17:47:651195,-11,2,3,-2,2,-1,-2,0
18:17:47:664716,0,12,0,2,-1,-2,-3,-8
18:17:47:672884,0,12,0,2,-1,-2,-3,-8
18:17:47:673672,-7,-8,-8,1,-1,-2,-4,-20
18:17:47:679667,7,-3,1,-7,-3,-1,3,5
18:17:47:687226,7,-3,1,-7,-3,-1,3,5
18:17:47:694644,-12,-7,-5,1,1,0,-3,-4
18:17:47:702165,2,7,-5,-2,-1,-1,0,-1
18:17:47:710413,2,7,-5,-2,-1,-1,0,-1
18:17:47:711166,16,34,3,-3,0,3,4,7
18:17:47:725359,-23,-12,1,3,-1,-2,0,-4
18:17:47:726163,-23,-12,1,3,-1,-2,0,-4
18:17:47:732205,1,-3,-7,-4,-5,-6,-3,3
18:17:47:739662,15,-8,1,4,2,1,-1,-2
18:17:47:747247,15,-8,1,4,2,1,-1,-2
18:17:47:754692,8,-48,-2,6,-1,3,0,7
18:17:47:762181,1,6,0,4,0,-3,-2,-7
18:17:47:770384,1,6,0,4,0,-3,-2,-7
18:17:47:771182,-9,-1,4,-10,-6,-2,-2,1
18:17:47:784682,7,6,-3,0,-6,0,3,12
18:17:47:792911,7,6,-3,0,-6,0,3,12
18:17:47:793679,9,-4,0,0,-2,-5,-7,-3
18:17:47:799696,-8,6,-7,-2,-2,1,-6,-3
18:17:47:807203,-8,6,-7,-2,-2,1,-6,-3
18:17:47:814695,-4,-6,-1,5,2,-2,0,3
18:17:47:822151,-1,-23,-1,-3,0,-4,-1,4
18:17:47:830351,-1,-23,-1,-3,0,-4,-1,4
18:17:47:831155,-9,-1,-3,3,-1,-1,1,1
18:17:47:844669,-31,-50,-11,-6,-3,-2,-8,-23
18:17:47:852893,-31,-50,-11,-6,-3,-2,-8,-23
18:17:47:853662,-4,6,-1,-3,0,1,-5,-16
18:17:47:859659,2,-1,3,-5,-2,-2,0,-2
18:17:47:867188,2,-1,3,-5,-2,-2,0,-2
18:17:47:874634,15,31,1,-4,-4,-2,0,8
18:17:47:882203,1,-15,6,4,0,0,0,0
18:17:47:890394,1,-15,6,4,0,0,0,0
18:17:47:891181,2,-8,-3,-3,2,0,2,4
18:17:47:904714,-7,-8,-3,-1,0,0,1,1
18:17:47:912705,-7,-8,-3,-1,0,0,1,1
18:17:47:920293,-7,-7,4,0,-2,-2,-1,0
18:17:47:921201,12,-10,-1,-2,0,-1,4,12
18:17:47:927219,12,-10,-1,-2,0,-1,4,12
18:17:47:934656,9,3,-3,-5,-2,0,-5,-7
18:17:47:942178,15,34,-4,0,1,1,1,0
18:17:47:950374,15,34,-4,0,1,1,1,0
18:17:47:951191,18,56,-12,-5,-5,-2,2,8
18:17:47:965374,-6,-10,-9,0,1,1,-1,-1
18:17:47:966208,-6,-10,-9,0,1,1,-1,-1
18:17:47:972194,-17,-25,1,4,5,4,0,-1
18:17:47:979635,2,18,5,2,-2,-3,1,4
18:17:47:987213,2,18,5,2,-2,-3,1,4
18:17:47:994673,-5,-26,8,4,0,1,0,2
18:17:48:2198,0,2,3,5,0,-2,0,-4
18:17:48:9729,0,2,3,5,0,-2,0,-4
18:17:48:17195,-13,-10,4,5,0,-3,0,1
18:17:48:24674,-10,6,-5,-4,0,0,-5,-2
18:17:48:32853,-10,6,-5,-4,0,0,-5,-2
18:17:48:33632,4,-19,2,-5,-2,-2,-1,-4
18:17:48:47883,2,-9,1,2,2,3,1,-1
18:17:48:48704,2,-9,1,2,2,3,1,-1
18:17:48:54680,-20,-27,1,-3,-4,-3,-4,-5
18:17:48:62156,-2,0,5,-5,0,-2,-1,-1
18:17:48:69694,-2,0,5,-5,0,-2,-1,-1
18:17:48:77176,12,-33,-2,6,5,1,1,-1
18:17:48:84695,6,13,0,2,-4,-1,-1,3
18:17:48:92856,6,13,0,2,-4,-1,-1,3
18:17:48:93727,2,11,-6,-1,-1,-3,0,2
18:17:48:107857,-4,1,1,-10,-3,-1,-1,-1
18:17:48:108678,-4,1,1,-10,-3,-1,-1,-1
18:17:48:114702,-2,17,-5,-3,-1,1,-1,-4
18:17:48:122170,4,0,-6,-5,-1,-1,-1,0
18:17:48:129700,4,0,-6,-5,-1,-1,-1,0
18:17:48:137175,-12,6,-5,-8,-5,-2,1,0
18:17:48:144706,-2,-11,6,1,-1,0,-2,1
18:17:48:152879,-2,-11,6,1,-1,0,-2,1
18:17:48:153661,7,6,-3,0,1,0,3,5
18:17:48:167883,-5,-20,-6,-3,2,1,1,0
18:17:48:168670,-5,-20,-6,-3,2,1,1,0
18:17:48:174676,3,1,1,0,1,0,-3,-2
18:17:48:182167,5,15,6,2,0,-2,0,-2
18:17:48:189735,5,15,6,2,0,-2,0,-2
18:17:48:197175,-31,-17,2,-5,-2,0,-2,-1
18:17:48:204685,8,23,-6,-7,-3,0,-1,3
18:17:48:212883,8,23,-6,-7,-3,0,-1,3
18:17:48:213689,-14,-5,8,1,0,-2,-7,-9
18:17:48:227859,-10,-18,9,4,0,-1,-2,-1
18:17:48:228673,-10,-18,9,4,0,-1,-2,-1
18:17:48:234666,7,8,-8,-7,-2,0,0,1
18:17:48:242204,-21,-26,4,6,-1,0,-2,-4
18:17:48:249718,-21,-26,4,6,-1,0,-2,-4
18:17:48:257241,12,1,-5,3,-1,-2,0,1
18:17:48:264667,-9,-14,-11,1,-2,0,-2,-5
18:17:48:272916,-9,-14,-11,1,-2,0,-2,-5
18:17:48:273711,0,2,-7,-4,-1,-2,-2,-1
18:17:48:287916,7,19,-1,-3,2,-4,-3,-3
18:17:48:288690,7,19,-1,-3,2,-4,-3,-3
18:17:48:294699,7,27,2,-6,-1,-1,-3,-5
18:17:48:302188,4,-2,-1,-3,0,2,1,2
18:17:48:309733,4,-2,-1,-3,0,2,1,2
18:17:48:317218,-4,9,0,-1,0,-2,-3,-3
18:17:48:325335,2,14,-4,-5,-3,-4,-3,0
18:17:48:326186,2,14,-4,-5,-3,-4,-3,0
18:17:48:332182,-5,7,-4,-6,-1,1,-2,-2
18:17:48:347889,8,10,0,-5,-6,-4,-3,-5
18:17:48:348730,8,10,0,-5,-6,-4,-3,-5
18:17:48:354711,18,8,-4,-1,-2,1,3,10
18:17:48:362190,-12,-22,-1,1,3,3,1,-1
18:17:48:369715,-12,-22,-1,1,3,3,1,-1
18:17:48:377228,-1,-4,-1,-1,-3,-3,-4,-2
18:17:48:385359,11,18,-11,-4,-3,-3,0,-2
18:17:48:386164,11,18,-11,-4,-3,-3,0,-2
18:17:48:392179,-10,-29,7,-2,0,-1,1,-2
18:17:48:407834,0,-16,5,2,-3,-3,-4,-1
18:17:48:408670,0,-16,5,2,-3,-3,-4,-1
18:17:48:414714,0,-2,5,-1,-1,-2,-2,3
18:17:48:422181,2,-5,1,-1,-2,0,1,3
18:17:48:429741,2,-5,1,-1,-2,0,1,3
18:17:48:437198,4,10,-2,2,0,-2,4,2
18:17:48:445362,-11,2,-4,1,0,2,4,7
18:17:48:446183,-11,2,-4,1,0,2,4,7
18:17:48:452181,-2,-12,1,1,-1,1,-1,-2
18:17:48:467633,3,6,-6,-6,-1,-3,-3,-5
18:17:48:475388,3,6,-6,-6,-1,-3,-3,-5
18:17:48:476181,-4,-19,-8,-12,-2,1,1,4
18:17:48:482170,-18,-29,2,1,0,-3,-5,-7
18:17:48:489760,-18,-29,2,1,0,-3,-5,-7
18:17:48:497166,2,1,4,2,-1,1,-2,-4
18:17:48:505404,0,-2,1,-10,-6,-7,-7,-3
18:17:48:506193,0,-2,1,-10,-6,-7,-7,-3
18:17:48:512164,7,7,-2,3,-1,-1,-1,0
18:17:48:527862,9,19,2,7,4,5,3,2
18:17:48:528695,9,19,2,7,4,5,3,2
18:17:48:534651,3,1,-4,-3,0,-1,-2,0
18:17:48:542208,18,-7,-9,1,1,1,5,6
18:17:48:549725,18,-7,-9,1,1,1,5,6
18:17:48:557197,-7,-3,-3,2,-2,-2,-5,-6
18:17:48:565404,1,6,-1,-4,-1,-2,0,-2
18:17:48:566209,1,6,-1,-4,-1,-2,0,-2
18:17:48:572187,-6,-17,-1,1,-1,1,1,2
18:17:48:587906,-10,-9,-2,2,2,0,-3,-3
18:17:48:588750,-10,-9,-2,2,2,0,-3,-3
18:17:48:594688,9,-7,-1,-3,0,1,2,0
18:17:48:602155,5,24,2,-1,-2,-1,-1,-3
18:17:48:609781,5,24,2,-1,-2,-1,-1,-3
18:17:48:617179,-19,12,0,5,3,-4,-2,-5
18:17:48:625338,10,-10,-5,4,2,1,0,1
18:17:48:626179,10,-10,-5,4,2,1,0,1
18:17:48:632172,11,8,-3,0,-3,0,0,3
18:17:48:647852,-16,-11,-3,-9,-8,-4,-6,-4
18:17:48:648657,-16,-11,-3,-9,-8,-4,-6,-4
18:17:48:654655,-3,-2,2,0,0,0,-1,-2
18:17:48:662153,-8,-59,-1,2,0,3,4,1
18:17:48:669710,-8,-59,-1,2,0,3,4,1
18:17:48:677221,-13,-23,-2,-3,0,-1,-2,-4
18:17:48:685348,1,4,-2,2,3,-1,-2,0
18:17:48:686176,1,4,-2,2,3,-1,-2,0
18:17:48:692195,0,-1,4,0,-2,-1,-2,0
18:17:48:707850,1,19,-2,-5,-1,-4,-2,-2
18:17:48:708677,1,19,-2,-5,-1,-4,-2,-2
18:17:48:714720,11,14,-3,-4,0,-1,-3,-4
18:17:48:722184,-6,16,3,-1,-2,-3,0,-6
18:17:48:729742,-6,16,3,-1,-2,-3,0,-6
18:17:48:737201,-8,-15,0,-7,-2,-1,-2,-7
18:17:48:745359,15,23,-2,-8,-7,-5,-1,2
18:17:48:746227,15,23,-2,-8,-7,-5,-1,2
18:17:48:752177,2,-6,-4,1,-4,-2,-2,0
18:17:48:767899,3,3,-3,0,-3,1,1,2
18:17:48:768688,3,3,-3,0,-3,1,1,2
18:17:48:774645,0,2,0,-7,-4,-1,-1,2
18:17:48:782189,2,12,2,1,1,2,-2,1
18:17:48:789755,2,12,2,1,1,2,-2,1
18:17:48:797210,8,6,-2,-3,-3,0,4,6
18:17:48:805393,-3,-13,1,5,-1,4,-2,0
18:17:48:806190,-3,-13,1,5,-1,4,-2,0
18:17:48:812217,-6,1,1,4,1,-3,-2,0
18:17:48:827856,15,4,-1,-6,-2,-3,-1,-2
18:17:48:828682,15,4,-1,-6,-2,-3,-1,-2
18:17:48:834644,20,17,-3,4,-2,-1,2,2
18:17:48:842215,-9,-18,0,6,1,-2,-4,-3
18:17:48:849739,-9,-18,0,6,1,-2,-4,-3
18:17:48:857192,4,-3,1,0,2,-1,-2,-3
18:17:48:865348,-7,35,-9,-4,0,-4,-1,-4
18:17:48:866189,-7,35,-9,-4,0,-4,-1,-4
18:17:48:872198,-10,3,-2,4,-2,-2,-2,-1
18:17:48:887892,-9,7,-1,-2,1,2,2,0
18:17:48:888696,-9,7,-1,-2,1,2,2,0
18:17:48:894708,6,13,5,-2,2,3,4,2
18:17:48:902198,15,1,-1,3,2,1,0,-2
18:17:48:909760,15,1,-1,3,2,1,0,-2
18:17:48:917178,1,-3,-9,-8,-3,-2,-2,-3
18:17:48:925352,0,0,3,6,0,-1,1,2
18:17:48:926176,0,0,3,6,0,-1,1,2
18:17:48:939694,8,-3,-2,0,-1,0,-1,1
18:17:48:947847,9,-11,2,-6,-4,-6,-6,-8
18:17:48:948663,9,-11,2,-6,-4,-6,-6,-8
18:17:48:954721,4,35,0,4,1,-3,2,-2
18:17:48:970410,-19,-23,2,0,1,2,-1,0
18:17:48:971187,-19,-23,2,0,1,2,-1,0
18:17:48:977182,-11,-40,0,-3,-2,-2,-3,-3
18:17:48:985327,-1,-9,3,4,1,1,0,2
18:17:48:986161,-1,-9,3,4,1,1,0,2
18:17:48:999655,-18,-11,0,0,-2,1,-1,0
18:17:49:7922,1,-5,-1,-3,1,2,2,2
18:17:49:8721,1,-5,-1,-3,1,2,2,2
18:17:49:14683,0,-11,3,0,0,-1,-2,1
18:17:49:30414,-20,-23,-9,-3,-1,0,2,0
18:17:49:31209,-20,-23,-9,-3,-1,0,2,0
18:17:49:37185,-10,-22,4,5,1,0,0,-1
18:17:49:45417,-1,-18,4,-2,-1,-1,-1,-1
18:17:49:46207,-1,-18,4,-2,-1,-1,-1,-1
18:17:49:59660,4,-3,-9,1,3,1,-4,-2
18:17:49:67869,-6,-14,-2,-4,-7,-5,-2,-2
18:17:49:68703,-6,-14,-2,-4,-7,-5,-2,-2
18:17:49:74675,17,30,-2,-6,-5,-4,-1,1
18:17:49:90374,11,2,-3,0,3,1,-2,-2
18:17:49:91218,11,2,-3,0,3,1,-2,-2
18:17:49:106036,-15,-8,-3,-3,0,1,-2,-7
18:17:49:106835,-46,-59,-6,-3,-2,0,-3,-11
18:17:49:107670,-46,-59,-6,-3,-2,0,-3,-11
18:17:49:119689,-2,-32,-1,-2,-2,-2,-5,-8
18:17:49:127907,4,15,3,1,1,0,2,0
18:17:49:128695,4,15,3,1,1,0,2,0
18:17:49:134644,-7,-5,-5,-1,2,2,4,-1
18:17:49:150350,-1,14,-5,-6,-3,-4,-3,-2
18:17:49:151197,-1,14,-5,-6,-3,-4,-3,-2
18:17:49:157199,2,0,-3,-1,1,-1,-2,-3
18:17:49:165386,11,16,0,2,0,0,1,4
18:17:49:166182,11,16,0,2,0,0,1,4
18:17:49:179714,-1,20,-1,-4,-4,-2,-1,-1
18:17:49:187830,18,18,-5,-10,-5,1,1,6
18:17:49:188653,18,18,-5,-10,-5,1,1,6
18:17:49:194634,6,5,5,3,1,-2,2,4
18:17:49:210371,2,-6,5,4,1,1,-4,-3
18:17:49:211184,2,-6,5,4,1,1,-4,-3
18:17:49:217186,-21,8,-4,1,-4,-3,-1,1
18:17:49:232907,-21,8,-4,1,-4,-3,-1,1
18:17:49:233690,1,1,-2,4,2,-1,3,4
18:17:49:239750,14,-8,-3,2,-1,1,0,-2
18:17:49:247887,14,-8,-3,2,-1,1,0,-2
18:17:49:248645,-5,22,0,-4,1,0,0,-2
18:17:49:254673,2,-8,2,-1,0,-2,-1,-2
18:17:49:270420,2,-8,2,-1,0,-2,-1,-2
18:17:49:271226,-29,-21,-2,3,-2,-4,-4,-10
18:17:49:277237,-10,-34,8,-3,0,1,3,1
18:17:49:285403,-10,-34,8,-3,0,1,3,1
18:17:49:286178,5,-5,0,-1,-1,1,1,3
18:17:49:308535,4,5,2,-3,-2,-1,-3,-1
18:17:49:309365,4,5,2,-3,-2,-1,-3,-1
18:17:49:310185,13,6,3,-3,-2,-2,1,3
18:17:49:314677,-4,-32,0,0,3,0,-5,-3
18:17:49:330406,-4,-32,0,0,3,0,-5,-3
18:17:49:331187,1,14,2,-3,1,-1,2,-1
18:17:49:337193,2,9,2,1,3,-2,1,-1
18:17:49:344741,2,9,2,1,3,-2,1,-1
18:17:49:352187,-4,-9,0,-1,0,-1,-5,-12
18:17:49:359651,-13,-37,-3,-1,0,5,4,0
18:17:49:367911,-13,-37,-3,-1,0,5,4,0
18:17:49:368707,4,10,1,1,-3,-2,-1,2
18:17:49:374744,2,8,-4,-3,-3,-4,0,1
18:17:49:390405,2,8,-4,-3,-3,-4,0,1
18:17:49:391217,-3,-25,-6,0,-3,-2,-1,0
18:17:49:397173,5,22,-3,-1,-3,1,0,1
18:17:49:404769,5,22,-3,-1,-3,1,0,1
18:17:49:412205,-15,2,-10,-11,-5,-4,-6,-2
18:17:49:419710,4,17,1,-5,-2,0,-2,3
18:17:49:427874,4,17,1,-5,-2,0,-2,3
18:17:49:428672,-3,-39,5,4,3,3,3,4
18:17:49:434689,-11,14,2,2,2,-1,-2,-4
18:17:49:450424,-11,14,2,2,2,-1,-2,-4
18:17:49:451244,1,5,-6,-3,0,-2,-4,1
18:17:49:457200,6,-21,-5,-5,-1,-2,2,1
18:17:49:465391,6,-21,-5,-5,-1,-2,2,1
18:17:49:466177,14,8,3,2,2,1,2,1
18:17:49:479698,-6,-8,1,-1,-1,-1,-3,-4
18:17:49:487875,-6,-8,1,-1,-1,-1,-3,-4
18:17:49:488690,28,16,1,-1,0,1,4,8
18:17:49:494659,-11,-12,3,-3,-3,-1,10,-4
18:17:49:510806,-11,-12,3,-3,-3,-1,10,-4
18:17:49:511592,13,23,-3,-4,0,0,0,-1
18:17:49:517182,-5,3,4,4,0,2,1,-1
18:17:49:532878,-5,3,4,4,0,2,1,-1
18:17:49:533666,-16,-6,-1,2,0,-3,-12,-8
18:17:49:539651,-8,2,-3,0,-3,1,-5,-4
18:17:49:547942,-8,2,-3,0,-3,1,-5,-4
18:17:49:548729,-9,-6,-5,-1,-3,-3,1,-4
18:17:49:554702,11,12,-5,-4,0,-4,-7,-1
18:17:49:570404,11,12,-5,-4,0,-4,-7,-1
18:17:49:571210,17,34,-6,-5,-3,0,4,6
18:17:49:584640,-12,-4,-2,0,1,-2,-1,-3
18:17:49:592896,-12,-4,-2,0,1,-2,-1,-3
18:17:49:593675,-6,-4,1,-4,-2,-2,-1,-1
18:17:49:599657,0,-1,2,0,-3,-1,0,0
18:17:49:607945,0,-1,2,0,-3,-1,0,0
18:17:49:608702,-8,-17,5,4,4,2,0,-1
18:17:49:614669,6,5,4,-1,3,0,1,8
18:17:49:630399,6,5,4,-1,3,0,1,8
18:17:49:631191,3,37,2,2,0,-2,-5,-3
18:17:49:637187,-19,-34,2,-3,0,0,-5,-2
18:17:49:661074,-19,-34,2,-3,0,0,-5,-2
18:17:49:661804,-8,-27,-1,-4,-3,-1,1,-1
18:17:49:662639,0,9,-3,-3,-2,-1,1,0
18:17:49:667878,0,9,-3,-3,-2,-1,1,0
18:17:49:668660,-2,-6,0,0,2,1,1,-1
18:17:49:674647,11,6,-3,2,-3,-5,-26,-6
18:17:49:690403,11,6,-3,2,-3,-5,-26,-6
18:17:49:691190,9,14,-5,-4,0,0,0,2
18:17:49:697199,7,2,-1,-2,-3,0,6,2
18:17:49:712841,7,2,-1,-2,-3,0,6,2
18:17:49:713645,-18,-20,-1,-1,-2,-1,-1,-7
18:17:49:719718,1,4,-1,0,-2,0,2,1
18:17:49:727897,1,4,-1,0,-2,0,2,1
18:17:49:728664,1,-49,-11,-2,-3,0,2,2
18:17:49:734722,-4,-10,-3,-4,-2,1,0,-2
18:17:49:750339,-4,-10,-3,-4,-2,1,0,-2
18:17:49:751174,-3,1,3,0,-1,-2,-15,-6
18:17:49:757225,9,13,-3,0,1,0,3,2
18:17:49:772897,9,13,-3,0,1,0,3,2
18:17:49:773718,-1,5,4,1,0,0,1,-2
18:17:49:779688,17,37,-4,-2,1,-1,1,3
18:17:49:787823,17,37,-4,-2,1,-1,1,3
18:17:49:788653,0,-23,1,-1,-3,-2,-3,-11
18:17:49:794717,-20,-24,-4,-2,-1,-2,0,-4
18:17:49:810431,-20,-24,-4,-2,-1,-2,0,-4
18:17:49:811211,4,17,2,0,-2,1,15,6
18:17:49:817192,1,-13,-2,-1,2,2,5,0
18:17:49:825399,1,-13,-2,-1,2,2,5,0
18:17:49:826181,7,-8,-10,-1,0,-1,2,6
18:17:49:839701,2,0,-5,0,-1,2,0,1
18:17:49:847906,2,0,-5,0,-1,2,0,1
18:17:49:848709,-8,3,-7,-2,-3,-3,-4,-5
18:17:49:854681,-3,-2,2,1,-2,-3,-6,-3
18:17:49:870420,-3,-2,2,1,-2,-3,-6,-3
18:17:49:871201,13,14,5,1,1,-4,-2,5
18:17:49:877236,19,-17,-4,0,-1,0,2,-1
18:17:49:885412,19,-17,-4,0,-1,0,2,-1
18:17:49:886225,-2,10,3,-1,1,0,-2,-1
18:17:49:899716,-1,-1,11,3,-1,-1,-5,-2
18:17:49:907920,-1,-1,11,3,-1,-1,-5,-2
18:17:49:908709,-1,-3,1,-2,0,-2,-1,1
18:17:49:922194,2,2,-1,-4,0,-2,-1,-2
18:17:49:938523,2,2,-1,-4,0,-2,-1,-2
18:17:49:939353,-11,6,5,-1,-2,-2,-22,-4
18:17:49:940187,-24,-18,3,-6,-4,-1,1,-6
18:17:49:944734,-24,-18,3,-6,-4,-1,1,-6
18:17:49:952227,-19,-24,-4,2,-2,0,9,-3
18:17:49:959636,-3,-4,-6,-1,-1,-1,-2,-3
18:17:49:967886,-3,-4,-6,-1,-1,-1,-2,-3
18:17:49:968671,2,10,-2,-1,-3,2,0,0
18:17:49:982223,-11,-17,-2,0,0,-2,1,-3
18:17:49:990410,-11,-17,-2,0,0,-2,1,-3
18:17:49:991181,-1,0,-20,1,-1,1,7,-2
18:17:49:997209,-4,-9,11,1,-1,-2,-5,-5
18:17:50:4753,-4,-9,11,1,-1,-2,-5,-5
18:17:50:12227,-1,-12,4,-1,0,-1,1,-1
18:17:50:19684,-14,-2,-1,1,0,1,6,1
18:17:50:27898,-14,-2,-1,1,0,1,6,1
18:17:50:28724,-16,-11,-15,-3,1,-1,-1,-3
18:17:50:42195,-4,-36,6,-4,-4,-2,-3,1
18:17:50:50392,-4,-36,6,-4,-4,-2,-3,1
18:17:50:51178,23,14,4,-3,3,0,-24,-9
18:17:50:57213,-3,-4,-7,-2,-1,0,7,-3
18:17:50:64787,-3,-4,-7,-2,-1,0,7,-3
18:17:50:72192,3,7,5,-2,0,0,7,11
18:17:50:79663,14,30,-10,-3,-1,-4,-13,-2
18:17:50:87825,14,30,-10,-3,-1,-4,-13,-2
18:17:50:88665,-1,4,2,1,-2,-1,5,7
18:17:50:102205,-6,5,-7,-2,-1,1,8,3
18:17:50:110382,-6,5,-7,-2,-1,1,8,3
18:17:50:111188,-4,2,-3,-2,-3,-8,-40,2
18:17:50:117189,13,12,0,0,0,-1,-5,-1
18:17:50:124722,13,12,0,0,0,-1,-5,-1
18:17:50:132192,-3,-4,-35,0,-3,0,19,-2
18:17:50:139695,-13,-22,20,0,-1,0,-1,5
18:17:50:147852,-13,-22,20,0,-1,0,-1,5
18:17:50:148656,3,-11,16,-3,2,3,10,5
18:17:50:162204,0,0,-17,-4,-3,-2,-7,-5
18:17:50:170364,0,0,-17,-4,-3,-2,-7,-5
18:17:50:171195,-3,-4,-1,2,-1,-1,10,-1
18:17:50:177219,-6,-3,-1,-4,1,-2,14,10
18:17:50:184731,-6,-3,-1,-4,1,-2,14,10
18:17:50:192194,15,10,7,-1,0,1,17,3
18:17:50:199664,8,14,-5,2,0,0,4,-2
18:17:50:207876,8,14,-5,2,0,0,4,-2
18:17:50:208687,6,5,7,0,1,0,1,-8
18:17:50:222243,1,1,-5,-2,-2,-5,-20,-7
18:17:50:230366,1,1,-5,-2,-2,-5,-20,-7
18:17:50:231201,-2,-10,5,-1,-3,1,4,0
18:17:50:237208,6,4,-7,0,0,1,0,1
18:17:50:244708,6,4,-7,0,0,1,0,1
18:17:50:252204,-6,-9,5,-2,-3,-6,-16,-7
18:17:50:259634,1,-7,-5,-2,0,0,4,3
18:17:50:267898,1,-7,-5,-2,0,0,4,3
18:17:50:268696,-11,-11,-4,-2,1,0,9,-8
18:17:50:282247,2,1,-8,0,0,-1,-6,4
18:17:50:290385,2,1,-8,0,0,-1,-6,4
18:17:50:291198,-2,-9,2,-4,0,-2,-4,-15
18:17:50:297193,-4,-3,3,-1,-1,1,1,-7
18:17:50:304721,-4,-3,3,-1,-1,1,1,-7
18:17:50:312229,3,13,-9,0,-1,-2,-8,0
18:17:50:319669,9,8,-2,0,-1,-5,-4,1
18:17:50:327925,9,8,-2,0,-1,-5,-4,1
18:17:50:328701,-2,-4,4,1,-2,0,13,4
18:17:50:342207,6,18,0,-2,-4,-1,8,1
18:17:50:350407,6,18,0,-2,-4,-1,8,1
18:17:50:351218,5,7,0,4,1,0,-7,-3
18:17:50:357219,-5,4,8,1,0,0,-9,-9
18:17:50:364758,-5,4,8,1,0,0,-9,-9
18:17:50:372182,10,1,5,-5,-4,-5,-18,11
18:17:50:379664,7,-1,2,0,2,3,6,-14
18:17:50:387831,7,-1,2,0,2,3,6,-14
18:17:50:388659,-6,-8,-4,-3,-2,2,9,2
18:17:50:402197,-3,3,-3,-2,0,-4,1,3
18:17:50:410392,-3,3,-3,-2,0,-4,1,3
18:17:50:411210,4,6,0,1,-2,-2,6,0
18:17:50:417210,-2,-9,-3,2,-1,2,3,5
18:17:50:424698,-2,-9,-3,2,-1,2,3,5
18:17:50:432233,-2,-8,4,1,-2,2,8,0
18:17:50:439750,-6,-23,10,0,0,-4,-33,-5
18:17:50:447879,-6,-23,10,0,0,-4,-33,-5
18:17:50:448670,1,-4,-2,-2,0,-1,-21,-13
18:17:50:462220,-7,-16,-4,-2,0,0,9,7
18:17:50:470218,-7,-16,-4,-2,0,0,9,7
18:17:50:477801,-9,1,0,1,2,0,2,3
18:17:50:478589,4,8,4,-2,-2,-1,-13,2
18:17:50:484737,4,8,4,-2,-2,-1,-13,2
18:17:50:492241,-8,-5,0,0,-1,-3,3,13
18:17:50:499670,-2,1,0,-1,0,-1,5,-2
18:17:50:507889,-2,1,0,-1,0,-1,5,-2
18:17:50:508709,-3,5,-3,-4,-1,-3,-5,8
18:17:50:522192,-2,1,-1,-2,-1,0,6,4
18:17:50:530410,-2,1,-1,-2,-1,0,6,4
18:17:50:531198,4,6,0,-2,-1,-2,-19,-7
18:17:50:537207,3,11,-4,-2,-3,-3,2,10
18:17:50:544741,3,11,-4,-2,-3,-3,2,10
18:17:50:552213,1,0,7,3,3,-1,5,-5
18:17:50:559694,-2,-7,-3,-3,-2,1,7,9
18:17:50:567904,-2,-7,-3,-3,-2,1,7,9
18:17:50:568714,-1,-12,-3,-4,-3,-1,5,-13
18:17:50:582203,-5,9,-2,-1,0,-3,-5,3
18:17:50:590413,-5,9,-2,-1,0,-3,-5,3
18:17:50:591200,0,-11,-4,1,0,4,4,7
18:17:50:597193,-4,2,-4,-2,-2,0,-3,-15
18:17:50:604729,-4,2,-4,-2,-2,0,-3,-15
18:17:50:612188,-5,2,-6,-1,-3,-5,-17,6
18:17:50:619691,15,4,0,2,2,0,-6,-1
18:17:50:627873,15,4,0,2,2,0,-6,-1
18:17:50:628636,2,-2,-3,-4,-2,-1,4,13
18:17:50:642211,7,6,-3,-1,-5,0,12,2
18:17:50:650399,7,6,-3,-1,-5,0,12,2
18:17:50:651206,-19,-26,2,0,1,-2,-4,-8
18:17:50:657194,-1,-3,-11,-2,-2,-2,-3,-6
18:17:50:664695,-1,-3,-11,-2,-2,-2,-3,-6
18:17:50:672232,1,3,0,-1,-2,-1,8,-7
18:17:50:679676,1,3,-1,1,1,1,5,-2
18:17:50:695411,1,3,-1,1,1,1,5,-2
18:17:50:696213,1,6,0,-3,-3,-1,-12,-14
18:17:50:702204,-4,-8,2,1,-3,1,8,-7
18:17:50:710380,-4,-8,2,1,-3,1,8,-7
18:17:50:711203,5,12,4,3,2,2,13,-27
18:17:50:717217,-10,-1,3,0,0,-1,-10,-5
18:17:50:724722,-10,-1,3,0,0,-1,-10,-5
18:17:50:732220,5,4,-1,-2,-2,-3,-15,6
18:17:50:739726,-7,-20,0,-3,0,-1,12,-5
18:17:50:747886,-7,-20,0,-3,0,-1,12,-5
18:17:50:748674,-23,-15,-2,-4,-1,-1,5,-2
18:17:50:762212,-14,-11,-1,-1,-1,-1,-3,7
18:17:50:770378,-14,-11,-1,-1,-1,-1,-3,7
18:17:50:771188,5,9,2,0,0,2,7,4
18:17:50:777184,-1,3,0,2,2,-2,1,-5
18:17:50:784721,-1,3,0,2,2,-2,1,-5
18:17:50:792209,1,1,-2,-1,-3,0,-4,10
18:17:50:799675,15,12,3,-2,-1,0,4,-15
18:17:50:807905,15,12,3,-2,-1,0,4,-15
18:17:50:808718,4,-10,0,-6,-3,-5,-8,0
18:17:50:822231,1,-1,-6,-2,-1,-2,-2,-1
18:17:50:830383,1,-1,-6,-2,-1,-2,-2,-1
18:17:50:831202,12,3,-2,-3,3,0,-3,-11
18:17:50:837200,11,4,2,-3,1,-2,-10,1
18:17:50:844727,11,4,2,-3,1,-2,-10,1
18:17:50:852202,4,16,1,2,0,0,0,6
18:17:50:859675,-7,1,-3,0,2,-1,0,4
18:17:50:867254,-7,1,-3,0,2,-1,0,4
18:17:50:874717,-6,-8,-1,-2,-1,-1,4,9
18:17:50:882228,-2,12,3,0,-3,-3,2,-29
18:17:50:890404,-2,12,3,0,-3,-3,2,-29
18:17:50:891226,-16,15,-8,-4,-2,-3,2,3
18:17:50:905374,1,-1,2,-2,-2,-2,-14,6
18:17:50:906184,1,-1,2,-2,-2,-2,-14,6
18:17:50:912213,-7,-8,3,0,0,-1,6,2
18:17:50:919683,-5,1,-8,-5,-4,-1,1,1
18:17:50:927241,-5,1,-8,-5,-4,-1,1,1
18:17:50:934667,12,2,-5,-3,-2,-1,1,13
18:17:50:942203,-2,-9,-1,0,2,0,-3,-12
18:17:50:950406,-2,-9,-1,0,2,0,-3,-12
18:17:50:951215,4,3,-1,0,-3,-2,-14,-18
18:17:50:965336,-4,5,2,2,1,3,18,4
18:17:50:966190,-4,5,2,2,1,3,18,4
18:17:50:972223,-2,-2,1,0,0,2,9,-7
18:17:50:979683,-17,-25,0,-2,-3,-4,-5,19
18:17:50:987218,-17,-25,0,-2,-3,-4,-5,19
18:17:50:994641,3,2,0,1,-5,-1,9,2
18:17:51:2199,0,-5,-2,-1,-1,1,-4,7
18:17:51:10386,0,-5,-2,-1,-1,1,-4,7
18:17:51:11202,-21,-3,-2,0,0,-1,-7,-10
18:17:51:25386,0,1,-3,3,1,3,-1,9
18:17:51:26226,0,1,-3,3,1,3,-1,9
18:17:51:32191,4,1,-5,0,2,1,9,-2
18:17:51:39689,2,5,-1,4,2,-4,-1,-5
18:17:51:47192,2,5,-1,4,2,-4,-1,-5
18:17:51:54644,0,-5,1,-2,0,0,6,-15
18:17:51:62189,5,8,7,-2,-4,-2,7,-5
18:17:51:70419,5,8,7,-2,-4,-2,7,-5
18:17:51:71209,5,5,3,0,1,1,2,-1
18:17:51:85379,-6,0,-2,-1,-4,-2,-4,-3
18:17:51:86193,-6,0,-2,-1,-4,-2,-4,-3
18:17:51:92228,1,11,-4,-2,-3,-4,4,-5
18:17:51:99651,0,-14,-4,-1,-2,-5,-24,-24
18:17:51:107248,0,-14,-4,-1,-2,-5,-24,-24
18:17:51:114712,7,-8,-2,-1,0,-2,-12,11
18:17:51:131040,-2,2,-1,1,-1,-3,-11,6
18:17:51:131845,-2,2,-1,1,-1,-3,-11,6
18:17:51:132646,-19,-3,10,0,0,-4,-15,-1
18:17:51:145372,5,-3,-5,-1,-2,0,9,3
18:17:51:146219,5,-3,-5,-1,-2,0,9,3
18:17:51:152224,-8,-6,-8,-1,-3,1,22,12
18:17:51:159643,5,11,2,1,-2,3,2,-7
18:17:51:167229,5,11,2,1,-2,3,2,-7
18:17:51:174689,7,3,1,2,1,0,-12,0
18:17:51:182242,-4,5,-2,-5,1,-1,7,0
18:17:51:190414,-4,5,-2,-5,1,-1,7,0
18:17:51:191187,2,3,-6,-3,-3,0,9,5
18:17:51:205442,-10,4,1,-6,2,-4,-21,-10
18:17:51:206238,-10,4,1,-6,2,-4,-21,-10
18:17:51:212217,4,-13,-2,1,1,1,-2,-6
18:17:51:219687,1,-3,-10,-3,-2,-1,16,7
18:17:51:227236,1,-3,-10,-3,-2,-1,16,7
18:17:51:234722,6,-2,0,-2,-2,-2,-1,-3
18:17:51:242219,8,9,2,0,-1,1,6,9
18:17:51:250395,8,9,2,0,-1,1,6,9
18:17:51:251191,-2,8,-2,1,1,1,3,9
18:17:51:265401,-1,-2,1,-2,0,-1,5,5
18:17:51:266203,-1,-2,1,-2,0,-1,5,5
18:17:51:272235,3,1,2,-4,-1,-1,-3,-2
18:17:51:279672,-15,-11,-4,3,0,4,6,1
18:17:51:287268,-15,-11,-4,3,0,4,6,1
18:17:51:294680,0,-21,-7,0,-1,-1,-7,-1
18:17:51:302231,-4,-12,2,-5,-2,-1,-16,-4
18:17:51:310347,-4,-12,2,-5,-2,-1,-16,-4
18:17:51:311184,-2,11,-2,-2,1,-6,2,0
18:17:51:325360,6,8,2,0,-2,-1,8,-12
18:17:51:326203,6,8,2,0,-2,-1,8,-12
18:17:51:332195,4,-2,-6,-3,0,-1,-31,-7
18:17:51:339671,-1,-4,-4,-3,-1,6,10,6
18:17:51:347223,-1,-4,-4,-3,-1,6,10,6
18:17:51:354664,-5,-9,-2,-1,-2,-4,-15,-6
18:17:51:362198,-9,-4,3,0,-1,-4,-12,-7
18:17:51:370374,-9,-4,3,0,-1,-4,-12,-7
18:17:51:371207,-1,-2,5,5,-1,1,-15,2
18:17:51:385380,6,0,6,1,2,-2,-2,7
18:17:51:386219,6,0,6,1,2,-2,-2,7
18:17:51:392124,-10,4,-5,-4,-2,-3,13,-15
18:17:51:399694,-3,-8,-4,-1,0,-2,11,-9
18:17:51:407234,-3,-8,-4,-1,0,-2,11,-9
18:17:51:414666,5,-3,-2,-1,0,-1,11,2
18:17:51:422222,4,-4,1,1,-4,-3,-8,-15
18:17:51:430785,4,-4,1,1,-4,-3,-8,-15
18:17:51:437232,-7,-7,-2,-3,-2,-2,16,26
18:17:51:445410,4,10,-2,-2,1,0,-3,9
18:17:51:446207,4,10,-2,-2,1,0,-3,9
18:17:51:452196,-4,10,-2,-1,-1,-1,-24,-42
18:17:51:459693,8,8,0,-2,-2,-4,-13,-1
18:17:51:467251,8,8,0,-2,-2,-4,-13,-1
18:17:51:474700,4,2,0,0,-1,1,10,-1
18:17:51:482199,-3,-4,-2,-2,-1,1,-5,1
18:17:51:490364,-3,-4,-2,-2,-1,1,-5,1
18:17:51:491193,7,-3,0,1,-1,-3,-1,20
18:17:51:505352,11,5,-3,2,-1,1,2,6
18:17:51:506216,11,5,-3,2,-1,1,2,6
18:17:51:512224,8,11,-6,-4,-1,-3,-7,44
18:17:51:519696,-1,-6,-4,-2,-1,-2,9,13
18:17:51:527215,-1,-6,-4,-2,-1,-2,9,13
18:17:51:534746,0,-4,2,-3,-3,-3,6,-7
18:17:51:542216,-14,6,0,-1,0,2,23,-4
18:17:51:550373,-14,6,0,-1,0,2,23,-4
18:17:51:551202,-6,-7,-7,-2,-3,-1,3,27
18:17:51:565362,-7,10,-8,-5,-3,-7,-25,-5
18:17:51:566187,-7,10,-8,-5,-3,-7,-25,-5
18:17:51:572149,-1,2,2,-2,1,5,1,-29
18:17:51:579726,18,10,-6,-4,0,-3,-6,9
18:17:51:587227,18,10,-6,-4,0,-3,-6,9
18:17:51:594699,0,9,0,-1,-3,-1,4,-12
18:17:51:602254,-6,-8,0,1,-2,0,8,-3
18:17:51:610411,-6,-8,0,1,-2,0,8,-3
18:17:51:611220,0,-6,0,0,2,-4,19,-31
18:17:51:625375,1,-9,6,-1,-1,-4,-2,-2
18:17:51:626214,1,-9,6,-1,-1,-4,-2,-2
18:17:51:632240,-8,-3,-1,2,-3,-1,2,14
18:17:51:639649,-3,-11,-7,2,0,-4,-14,-13
18:17:51:647254,-3,-11,-7,2,0,-4,-14,-13
18:17:51:654672,0,-9,0,0,1,-2,-19,-8
18:17:51:662217,-12,-24,-10,-3,-2,0,-1,2
18:17:51:670378,-12,-24,-10,-3,-2,0,-1,2
18:17:51:671201,0,1,3,0,-2,1,-5,7
18:17:51:685359,-8,-11,-6,-4,0,2,5,-3
18:17:51:686203,-8,-11,-6,-4,0,2,5,-3
18:17:51:692221,-12,-8,-5,-3,1,1,-15,-4
18:17:51:699676,3,3,-1,0,-3,-3,-13,6
18:17:51:707265,3,3,-1,0,-3,-3,-13,6
18:17:51:714712,2,-1,2,0,-2,-2,3,21
18:17:51:722224,7,-2,7,-1,0,0,-4,3
18:17:51:730412,7,-2,7,-1,0,0,-4,3
18:17:51:731203,0,-7,0,-3,1,-1,6,-26
18:17:51:745377,-10,4,0,3,-1,2,3,-15
18:17:51:746214,-10,4,0,3,-1,2,3,-15
18:17:51:752233,2,-10,-2,-1,-1,1,-6,-13
18:17:51:759697,24,17,2,0,-1,-7,-1,-10
18:17:51:767250,24,17,2,0,-1,-7,-1,-10
18:17:51:774721,-3,6,-5,-3,-2,-6,-30,14
18:17:51:782206,3,0,-2,-4,-1,3,7,14
18:17:51:790383,3,0,-2,-4,-1,3,7,14
18:17:51:791237,-7,-7,-1,-2,-3,3,11,4
18:17:51:805374,-17,4,3,-1,-1,1,-13,-13
18:17:51:806220,-17,4,3,-1,-1,1,-13,-13
18:17:51:812229,6,9,-5,-1,0,1,-8,-5
18:17:51:827898,0,4,4,0,0,1,-20,-31
18:17:51:828751,0,4,4,0,0,1,-20,-31
18:17:51:834676,2,8,3,2,-2,-1,1,-12
18:17:51:842212,0,-13,0,0,-1,0,14,-7
18:17:51:849693,0,-13,0,0,-1,0,14,-7
18:17:51:857209,7,0,2,-1,0,1,4,10
18:17:51:865385,-12,-9,2,2,3,-2,-33,-12
18:17:51:866195,-12,-9,2,2,3,-2,-33,-12
18:17:51:872157,-2,-15,-3,-1,-1,4,24,-5
18:17:51:887840,3,6,-5,-1,-1,2,18,15
18:17:51:888648,3,6,-5,-1,-1,2,18,15
18:17:51:894713,-14,0,-3,1,-4,-7,-2,9
18:17:51:902259,-20,-10,0,-1,-1,-2,14,-5
18:17:51:909703,-20,-10,0,-1,-1,-2,14,-5
18:17:51:917176,7,10,3,0,-1,3,-32,-13
18:17:51:925392,27,1,-2,-2,-2,-4,-8,11
18:17:51:926207,27,1,-2,-2,-2,-4,-8,11
18:17:51:932217,-5,-2,1,0,0,1,9,-7
18:17:51:947861,-1,3,-1,-1,1,2,0,2
18:17:51:948713,-1,3,-1,-1,1,2,0,2
18:17:51:954671,-1,8,-3,-1,0,0,7,-3
18:17:51:962136,22,6,-6,-1,1,2,10,19
18:17:51:969720,22,6,-6,-1,1,2,10,19
18:17:51:977228,-9,-8,-3,0,2,2,11,3
18:17:51:985361,-3,2,3,-1,-2,-1,2,1
18:17:51:986251,-3,2,3,-1,-2,-1,2,1
18:17:51:992250,9,1,0,-2,0,-3,-16,17
18:17:52:7886,-6,10,2,-1,-4,-8,9,-14
18:17:52:8690,-6,10,2,-1,-4,-8,9,-14
18:17:52:14661,5,-1,3,-3,-3,-1,14,-9
18:17:52:22227,3,0,-3,-2,1,2,16,24
18:17:52:29755,3,0,-3,-2,1,2,16,24
18:17:52:37208,3,-1,-2,1,0,-5,20,-7
18:17:52:45372,5,0,2,1,0,4,11,8
18:17:52:46214,5,0,2,1,0,4,11,8
18:17:52:52217,-8,-5,1,-2,0,0,-4,0
18:17:52:67907,7,15,-5,0,-1,1,7,-8
18:17:52:68720,7,15,-5,0,-1,1,7,-8
18:17:52:74672,2,1,-3,-1,-4,-9,-1,7
18:17:52:82210,-12,-11,0,0,-3,0,14,-7
18:17:52:89731,-12,-11,0,0,-3,0,14,-7
18:17:52:97231,31,-5,-7,-3,1,2,-4,-36
18:17:52:105358,-5,-3,1,-2,0,-1,-2,-3
18:17:52:106191,-5,-3,1,-2,0,-1,-2,-3
18:17:52:112233,7,5,3,1,-1,-1,-6,4
18:17:52:136055,8,-5,-6,-1,1,0,-16,11
18:17:52:136854,8,-5,-6,-1,1,0,-16,11
18:17:52:137647,-9,2,2,-1,1,-4,-33,-14
18:17:52:142223,-5,1,-2,-2,-2,3,28,-17
18:17:52:149763,-5,1,-2,-2,-2,3,28,-17
18:17:52:157243,-21,11,-3,-4,-2,0,13,-22
18:17:52:165356,18,-3,-3,-4,-2,-3,-10,0
18:17:52:166247,18,-3,-3,-4,-2,-3,-10,0
18:17:52:172218,-11,-24,-3,-1,-1,2,9,11
18:17:52:187915,-18,-11,-3,2,2,1,-13,-16
18:17:52:188717,-18,-11,-3,2,2,1,-13,-16
18:17:52:194685,-8,-3,-8,-2,0,-3,-4,13
18:17:52:210423,3,3,1,-2,-2,-3,-10,-3
18:17:52:211234,3,3,1,-2,-2,-3,-10,-3
18:17:52:217227,13,16,-3,0,-1,2,5,5
18:17:52:225414,-3,-4,4,-3,-2,-2,3,10
18:17:52:226226,-3,-4,4,-3,-2,-2,3,10
18:17:52:232201,6,-5,0,-2,-1,-2,4,3
18:17:52:247894,-2,7,1,2,-3,-4,-21,7
18:17:52:248729,-2,7,1,2,-3,-4,-21,7
18:17:52:254684,-6,-9,4,1,-1,-2,5,17
18:17:52:262248,-25,-8,-4,0,0,0,0,10
18:17:52:269784,-25,-8,-4,0,0,0,0,10
18:17:52:277241,0,0,3,-3,1,2,9,3
18:17:52:285371,-5,-1,2,-2,-1,-2,-6,4
18:17:52:286231,-5,-1,2,-2,-1,-2,-6,4
18:17:52:292244,14,2,-3,0,0,-3,-5,3
18:17:52:307934,6,2,1,1,-1,-1,-22,-5
18:17:52:308716,6,2,1,1,-1,-1,-22,-5
18:17:52:314692,-6,3,0,1,-1,4,-11,2
18:17:52:322229,3,-11,-13,-7,-1,-1,0,6
18:17:52:329701,3,-11,-13,-7,-1,-1,0,6
18:17:52:337227,2,2,5,2,-1,-2,-16,-2
18:17:52:345366,-16,-5,0,-4,-5,-7,-19,4
18:17:52:346204,-16,-5,0,-4,-5,-7,-19,4
18:17:52:352182,7,-6,-5,-3,-2,2,31,32
18:17:52:367860,13,4,-2,0,-3,0,12,4
18:17:52:368687,13,4,-2,0,-3,0,12,4
18:17:52:374668,-14,-12,-4,-1,-1,1,9,-3
18:17:52:382212,2,2,0,1,1,2,16,2
18:17:52:389718,2,2,0,1,1,2,16,2
18:17:52:397143,-9,-3,-2,2,-3,-2,3,-26
18:17:52:405369,-3,7,0,-1,0,4,10,-8
18:17:52:406213,-3,7,0,-1,0,4,10,-8
18:17:52:412221,-3,5,-2,-3,0,-2,-8,-17
18:17:52:427930,-15,4,3,1,0,0,6,0
18:17:52:428687,-15,4,3,1,0,0,6,0
18:17:52:434637,-9,-36,-14,-5,-5,0,-17,-8
18:17:52:442157,17,0,1,0,0,5,20,17
18:17:52:449744,17,0,1,0,0,5,20,17
18:17:52:457228,3,14,3,-1,0,3,-18,-3
18:17:52:465386,-5,-5,-3,-2,1,1,-17,-27
18:17:52:466237,-5,-5,-3,-2,1,1,-17,-27
18:17:52:472227,16,24,5,2,-1,-2,-5,17
18:17:52:487900,2,17,1,0,-3,1,1,-5
18:17:52:488677,2,17,1,0,-3,1,1,-5
18:17:52:494656,-7,6,1,1,1,3,13,5
18:17:52:502220,16,-6,-9,-4,-3,-8,-10,-1
18:17:52:509731,16,-6,-9,-4,-3,-8,-10,-1
18:17:52:517218,-7,-2,4,1,0,1,-2,-13
18:17:52:525385,-12,-12,0,-2,-3,2,5,-31
18:17:52:526194,-12,-12,0,-2,-3,2,5,-31
18:17:52:539657,-2,-7,-5,-1,3,-4,-8,4
18:17:52:547914,-15,8,-5,-5,-1,-2,-4,-24
18:17:52:548717,-15,8,-5,-5,-1,-2,-4,-24
18:17:52:562830,-3,1,3,-1,-3,3,15,12
18:17:52:563630,-15,-25,1,-1,1,-7,-41,41
18:17:52:569751,-15,-25,1,-1,1,-7,-41,41
18:17:52:577222,4,-4,-4,-1,-3,1,15,12
18:17:52:585367,6,-4,6,0,1,3,9,2
18:17:52:586214,6,-4,6,0,1,3,9,2
18:17:52:592233,-11,-1,2,1,3,-3,-25,-19
18:17:52:608262,9,4,7,0,1,-8,-55,2
18:17:52:615438,9,4,7,0,1,-8,-55,2
18:17:52:616241,1,-2,-1,-2,0,2,9,11
18:17:52:622227,-2,4,-5,-2,0,2,26,6
18:17:52:629750,-2,4,-5,-2,0,2,26,6
18:17:52:637209,-2,18,2,-5,-1,-4,-4,-3
18:17:52:653577,1,1,-7,-3,0,-1,-1,-3
18:17:52:654362,1,1,-7,-3,0,-1,-1,-3
18:17:52:655220,2,-12,-1,-5,-4,-8,-26,11
18:17:52:667869,1,1,-3,-2,-5,-4,4,-9
18:17:52:668681,1,1,-3,-2,-5,-4,4,-9
18:17:52:674665,2,-5,-1,1,-1,1,6,-3
18:17:52:690373,-9,-6,2,-2,-4,0,0,6
18:17:52:691209,-9,-6,2,-2,-4,0,0,6
18:17:52:697232,10,0,-2,0,-2,-6,-25,-8
18:17:52:705381,-2,19,4,0,-1,0,14,-7
18:17:52:706205,-2,19,4,0,-1,0,14,-7
18:17:52:712221,-2,11,4,-1,-2,0,4,-8
18:17:52:727881,-1,-5,2,3,0,-1,-3,8
18:17:52:728683,-1,-5,2,3,0,-1,-3,8
18:17:52:734678,-8,-4,0,1,1,4,18,3
18:17:52:742216,7,-3,-6,0,0,-2,2,-9
18:17:52:749727,7,-3,-6,0,0,-2,2,-9
18:17:52:766035,-7,6,0,1,0,-1,9,-10
18:17:52:766843,21,-1,-1,0,-1,1,8,4
18:17:52:767664,21,-1,-1,0,-1,1,8,4
18:17:52:779668,-6,-7,-3,-5,-2,1,12,4
18:17:52:787876,-7,-11,-3,-1,-2,-4,4,5
18:17:52:788707,-7,-11,-3,-1,-2,-4,4,5
18:17:52:794659,-9,-8,8,0,-2,-1,5,-6
18:17:52:810373,-1,1,4,-1,1,-2,3,-4
18:17:52:811237,-1,1,4,-1,1,-2,3,-4
18:17:52:817144,9,14,-1,-1,-1,-2,-1,-26
18:17:52:825355,-16,-16,-3,-3,-4,-2,-3,-7
18:17:52:826200,-16,-16,-3,-3,-4,-2,-3,-7
18:17:52:840222,-3,-14,-5,0,-3,-2,-8,3
18:17:52:847881,-4,4,-2,-1,1,1,0,-3
18:17:52:848684,-4,4,-2,-1,1,1,0,-3
18:17:52:854708,12,0,-9,-2,-1,0,-5,5
18:17:52:870358,-21,-30,0,1,-1,1,-2,-1
18:17:52:871232,-21,-30,0,1,-1,1,-2,-1
18:17:52:877232,2,0,-3,-3,-2,1,-2,-1
18:17:52:885377,1,8,-1,-3,0,2,0,1
18:17:52:886216,1,8,-1,-3,0,2,0,1
18:17:52:899678,-5,-2,-4,-3,-2,-14,-61,-14
18:17:52:907842,3,12,4,-2,1,0,-2,-5
18:17:52:908667,3,12,4,-2,1,0,-2,-5
18:17:52:914718,-11,-13,9,1,2,0,12,5
18:17:52:930400,20,9,-4,1,0,1,-8,-2
18:17:52:931208,20,9,-4,1,0,1,-8,-2
18:17:52:937223,-11,-2,-6,1,0,0,25,10
18:17:52:945372,-1,10,-4,-7,-1,-4,14,36
18:17:52:946206,-1,10,-4,-7,-1,-4,14,36
18:17:52:959680,16,28,-8,-2,-2,-2,-20,-3
18:17:52:967847,2,-5,-1,2,1,0,-3,-2
18:17:52:968677,2,-5,-1,2,1,0,-3,-2
18:17:52:974703,11,22,2,0,-1,1,2,-5
18:17:52:990403,8,3,2,-1,-2,-1,2,1
18:17:52:991242,8,3,2,-1,-2,-1,2,1
18:17:52:997216,-15,-18,-2,-4,-1,-2,9,-3
18:17:53:5387,-1,-11,-7,0,-1,5,10,-1
18:17:53:6214,-1,-11,-7,0,-1,5,10,-1
18:17:53:19686,-9,-8,-2,-2,0,-2,-3,-2
18:17:53:27904,6,10,-2,-1,0,-4,-10,11
18:17:53:28721,6,10,-2,-1,0,-4,-10,11
18:17:53:34672,5,0,2,1,-3,-5,-23,3
18:17:53:50374,0,-3,4,3,-2,-2,0,-6
18:17:53:51242,0,-3,4,3,-2,-2,0,-6
18:17:53:57249,5,15,-8,-3,-1,2,14,13
18:17:53:72888,-18,-16,-6,-2,-1,-2,-8,-11
18:17:53:73695,-18,-16,-6,-2,-1,-2,-8,-11
18:17:53:79676,3,-1,-14,0,-2,4,8,1
18:17:53:87864,5,2,-6,1,0,-1,1,-4
18:17:53:88711,5,2,-6,1,0,-1,1,-4
18:17:53:94674,-8,-66,16,-6,-3,1,9,6
18:17:53:118516,-12,-10,-5,-4,-3,-6,-6,-10
18:17:53:119349,-12,-10,-5,-4,-3,-6,-6,-10
18:17:53:120242,-2,2,5,3,2,2,0,7
18:17:53:132867,-2,2,5,3,2,2,0,7
18:17:53:133661,-3,2,9,1,2,3,-2,-9
18:17:53:139713,-5,17,9,4,2,2,2,-2
18:17:53:147878,-5,17,9,4,2,2,2,-2
18:17:53:148689,3,15,-15,-4,0,-1,-2,-1
18:17:53:154657,4,11,3,-4,-2,-3,0,-11
18:17:53:170365,4,11,3,-4,-2,-3,0,-11
18:17:53:171221,-2,-3,5,2,0,-1,-1,-5
18:17:53:177139,20,3,-4,-2,-2,0,3,14
18:17:53:192898,20,3,-4,-2,-2,0,3,14
18:17:53:193692,-21,-10,1,-5,-3,-1,-6,-31
18:17:53:199687,-2,2,-4,3,1,0,1,4
18:17:53:207883,-2,2,-4,3,1,0,1,4
18:17:53:208663,13,20,2,-6,-3,0,1,5
18:17:53:214634,-13,26,-12,-1,-2,-3,-2,-6
18:17:53:230364,-13,26,-12,-1,-2,-3,-2,-6
18:17:53:231230,2,-15,6,5,-1,-2,4,20
18:17:53:237222,14,-1,-4,1,1,0,1,2
18:17:53:252850,14,-1,-4,1,1,0,1,2
18:17:53:253648,0,13,-2,0,-2,2,0,5
18:17:53:259682,-18,-17,4,-2,1,0,0,-9
18:17:53:267884,-18,-17,4,-2,1,0,0,-9
18:17:53:268660,1,19,0,-2,-2,-5,-2,-7
18:17:53:274701,-2,-10,-2,-1,-3,-2,-2,-4
18:17:53:290358,-2,-10,-2,-1,-3,-2,-2,-4
18:17:53:291225,-1,3,7,5,0,3,1,2
18:17:53:297224,-9,-25,6,-2,1,-3,-6,-14
18:17:53:312902,-9,-25,6,-2,1,-3,-6,-14
18:17:53:313722,10,-4,-4,2,0,2,-3,-14
18:17:53:319678,-11,-31,3,2,-2,-1,-1,4
18:17:53:327853,-11,-31,3,2,-2,-1,-1,4
18:17:53:328661,-8,-18,2,-5,-1,-1,-4,-4
18:17:53:334725,6,11,-2,-3,-2,0,-1,2
18:17:53:350393,6,11,-2,-3,-2,0,-1,2
18:17:53:351207,-9,-14,-9,-1,1,-1,1,6
18:17:53:357263,-14,-16,4,-5,-3,-4,-5,-7
18:17:53:372972,-14,-16,4,-5,-3,-4,-5,-7
18:17:53:373688,-4,-27,0,-1,-2,-2,1,3
18:17:53:379690,-14,48,-15,-6,-3,0,2,21
18:17:53:389000,-14,48,-15,-6,-3,0,2,21
18:17:53:395409,-6,-5,5,-1,0,0,-3,-11
18:17:53:396256,12,6,0,2,-2,-3,0,-11
18:17:53:410406,12,6,0,2,-2,-3,0,-11
18:17:53:411208,12,42,-9,-5,-7,-3,-7,-10
18:17:53:417264,0,-27,12,-1,1,0,1,0
18:17:53:432920,0,-27,12,-1,1,0,1,0
18:17:53:433696,3,5,10,1,1,-2,-1,3
18:17:53:439706,6,6,-2,1,1,-1,-3,0
18:17:53:447902,6,6,-2,1,1,-1,-3,0
18:17:53:448696,-29,-5,-6,-3,1,2,-1,0
18:17:53:454676,-11,6,0,-3,-2,-1,-3,1
18:17:53:470450,-11,6,0,-3,-2,-1,-3,1
18:17:53:471242,39,26,-9,-3,0,-1,3,13
18:17:53:477230,-7,-16,-2,2,1,1,-6,-23
18:17:53:492899,-7,-16,-2,2,1,1,-6,-23
18:17:53:493680,10,-25,-2,1,-3,-2,-1,1
18:17:53:499673,20,-8,-4,-3,-3,-3,4,3
18:17:53:507904,20,-8,-4,-3,-3,-3,4,3
18:17:53:508696,-16,-13,-1,-1,-1,-3,-6,-6
18:17:53:514720,33,14,-1,3,-3,-2,1,-5
18:17:53:530409,33,14,-1,3,-3,-2,1,-5
18:17:53:531218,4,11,1,1,0,-1,-3,-5
18:17:53:537174,-2,9,-5,1,0,3,-1,-3
18:17:53:552915,-2,9,-5,1,0,3,-1,-3
18:17:53:553660,-3,-20,3,-1,0,-2,-2,5
18:17:53:559684,-2,-30,-8,-2,2,-2,4,5
18:17:53:567907,-2,-30,-8,-2,2,-2,4,5
18:17:53:568695,-19,-40,-2,-2,0,-3,-3,-2
18:17:53:574702,-22,-6,-6,4,-1,3,-3,2
18:17:53:590390,-22,-6,-6,4,-1,3,-3,2
18:17:53:591225,8,-2,4,-2,1,0,4,6
18:17:53:597156,-5,23,3,-5,2,-1,1,1
18:17:53:612879,-5,23,3,-5,2,-1,1,1
18:17:53:613670,9,10,-2,11,3,1,-1,2
18:17:53:619682,-18,1,3,-3,-1,-2,-3,5
18:17:53:627879,-18,1,3,-3,-1,-2,-3,5
18:17:53:628653,-2,-46,4,3,1,1,3,-1
18:17:53:634650,9,-17,-12,-5,-3,0,-2,-10
18:17:53:650394,9,-17,-12,-5,-3,0,-2,-10
18:17:53:651218,-10,6,1,0,0,-1,-7,-8
18:17:53:657164,0,17,-5,-4,2,-2,-3,5
18:17:53:672869,0,17,-5,-4,2,-2,-3,5
18:17:53:673668,9,-1,-18,-5,-6,2,5,9
18:17:53:679696,15,16,4,-3,-5,0,-3,5
18:17:53:687878,15,16,4,-3,-5,0,-3,5
18:17:53:688671,-20,14,7,-2,-3,-3,-1,3
18:17:53:702254,-6,-9,-4,5,0,0,0,-2
18:17:53:710358,-6,-9,-4,5,0,0,0,-2
18:17:53:711236,-4,3,-5,0,3,3,6,7
18:17:53:717241,7,-14,-4,-4,1,-5,-5,2
18:17:53:732902,7,-14,-4,-4,1,-5,-5,2
18:17:53:733643,-22,-15,-1,-4,-4,-1,-4,-7
18:17:53:748591,7,-3,3,3,-1,0,-1,-3
18:17:53:749384,7,-3,3,3,-1,0,-1,-3
18:17:53:750201,22,17,-16,-8,-2,-4,-2,-2
18:17:53:762144,-11,-10,4,-1,2,2,0,-1
18:17:53:770368,-11,-10,4,-1,2,2,0,-1
18:17:53:771204,6,-22,4,4,1,1,0,8
18:17:53:777252,8,2,-3,-1,-1,-4,1,-3
18:17:53:784765,8,2,-3,-1,-1,-4,1,-3
18:17:53:792239,7,13,-5,-8,-3,-2,-4,-7
18:17:53:799711,4,2,4,-2,-2,0,-2,-2
18:17:53:807876,4,2,4,-2,-2,0,-2,-2
18:17:53:808644,0,5,7,2,3,1,0,-2
18:17:53:822200,-22,-43,-10,-14,-4,1,1,7
18:17:53:830415,-22,-43,-10,-14,-4,1,1,7
18:17:53:831238,-17,3,1,3,0,4,1,-7
18:17:53:837208,10,22,9,4,1,2,2,-2
18:17:53:852908,10,22,9,4,1,2,2,-2
18:17:53:853699,-26,-43,0,-4,-3,-3,-4,-4
18:17:53:859680,-11,-24,-2,-1,-3,2,0,-7
18:17:53:867873,-11,-24,-2,-1,-3,2,0,-7
18:17:53:868661,8,22,4,5,2,-1,0,0
18:17:53:882167,-29,4,6,3,-2,-5,-3,-8
18:17:53:890416,-29,4,6,3,-2,-5,-3,-8
18:17:53:891230,-6,-16,3,-7,-4,-5,-7,-4
18:17:53:897224,17,12,-6,-2,0,0,1,2
18:17:53:904704,17,12,-6,-2,0,0,1,2
18:17:53:912248,12,15,0,-1,-2,-1,2,0
18:17:53:919698,17,8,0,1,-2,2,1,2
18:17:53:927898,17,8,0,1,-2,2,1,2
18:17:53:928654,8,1,0,-1,-1,0,-3,-14
18:17:53:942240,-7,2,0,-1,-3,-2,1,2
18:17:53:950360,-7,2,0,-1,-3,-2,1,2
18:17:53:951223,13,18,0,-11,-3,1,2,4
18:17:53:957235,-5,-7,-1,-2,-2,-3,-6,-8
18:17:53:964721,-5,-7,-1,-2,-2,-3,-6,-8
18:17:53:972141,6,28,-1,5,-1,-1,-1,4
18:17:53:979694,-6,-25,0,-6,2,2,1,4
18:17:53:987899,-6,-25,0,-6,2,2,1,4
18:17:53:988683,-3,-22,-9,0,-2,-2,-2,-4
18:17:54:2218,-1,-4,0,3,2,0,-2,-2
18:17:54:10352,-1,-4,0,3,2,0,-2,-2
18:17:54:11242,-5,-10,3,7,3,-1,0,-6
18:17:54:17174,-8,14,4,1,-2,-4,-5,-18
18:17:54:32875,-8,14,4,1,-2,-4,-5,-18
18:17:54:33663,-2,-11,-7,-3,-2,-3,-2,-8
18:17:54:39663,-9,-7,-1,-1,-1,0,-1,8
18:17:54:47871,-9,-7,-1,-1,-1,0,-1,8
18:17:54:48680,3,21,1,-1,-4,-1,-4,7
18:17:54:62245,-2,-20,-3,-4,0,0,0,-2
18:17:54:70403,-2,-20,-3,-4,0,0,0,-2
18:17:54:71246,-4,-1,1,-5,-1,-2,-2,4
18:17:54:77243,7,0,2,0,-2,0,-2,2
18:17:54:92904,7,0,2,0,-2,0,-2,2
18:17:54:93726,15,8,1,3,1,-1,-1,1
18:17:54:99683,26,7,-6,5,-2,-4,1,9
18:17:54:107909,26,7,-6,5,-2,-4,1,9
18:17:54:108676,-3,4,-5,-6,-2,-1,-1,7
18:17:54:122226,-2,-7,-5,3,-1,1,-4,4
18:17:54:130392,-2,-7,-5,3,-1,1,-4,4
18:17:54:131246,1,8,-11,-4,1,2,1,7
18:17:54:137231,-10,9,3,-5,-2,-1,-1,-6
18:17:54:144721,-10,9,3,-5,-2,-1,-1,-6
18:17:54:152137,-1,25,2,-2,-4,0,-2,2
18:17:54:159721,15,8,0,1,2,2,6,5
18:17:54:167891,15,8,0,1,2,2,6,5
18:17:54:168664,4,-23,-2,-1,-4,-1,-1,-2
18:17:54:182248,-11,-6,10,-1,-1,-2,-3,-5
18:17:54:190374,-11,-6,10,-1,-1,-2,-3,-5
18:17:54:191242,0,5,1,5,6,2,3,-6
18:17:54:197138,-26,-22,5,-4,1,1,0,-3
18:17:54:212880,-26,-22,5,-4,1,1,0,-3
18:17:54:213657,-20,-56,2,0,-2,-3,-2,-6
18:17:54:219698,8,-3,-10,-8,-5,-2,-3,-4
18:17:54:227891,8,-3,-10,-8,-5,-2,-3,-4
18:17:54:228669,1,-20,3,-6,-1,1,-1,-1
18:17:54:242258,12,20,-1,-3,-3,-2,0,2
18:17:54:250357,12,20,-1,-3,-3,-2,0,2
18:17:54:251237,1,0,7,3,-2,-4,-1,0
18:17:54:257239,-14,19,2,3,1,-2,-6,1
18:17:54:272904,-14,19,2,3,1,-2,-6,1
18:17:54:273698,6,15,-2,0,1,1,2,1
18:17:54:279678,-4,-11,-9,-3,-2,1,1,-5
18:17:54:287868,-4,-11,-9,-3,-2,1,1,-5
18:17:54:288644,-3,18,0,0,-3,-3,-2,-10
18:17:54:302304,5,-13,4,-2,-2,-4,-4,-7
18:17:54:310372,5,-13,4,-2,-2,-4,-4,-7
18:17:54:311235,-1,2,-2,0,-1,-1,-4,4
18:17:54:317249,-2,21,-2,4,2,-1,0,-3
18:17:54:332921,-2,21,-2,4,2,-1,0,-3
18:17:54:333701,-9,-6,8,3,-1,-4,-1,-2
18:17:54:339719,1,-2,-6,-3,0,0,2,4
18:17:54:347899,1,-2,-6,-3,0,0,2,4
18:17:54:348682,26,39,1,1,-1,1,-1,-6
18:17:54:362163,4,-2,1,-4,0,0,-3,-16
18:17:54:370434,4,-2,1,-4,0,0,-3,-16
18:17:54:371234,1,15,-5,-16,-8,0,2,0
18:17:54:377235,5,-2,8,4,-1,-1,-1,4
18:17:54:392913,5,-2,8,4,-1,-1,-1,4
18:17:54:393709,-15,-38,-6,-2,0,0,0,-6
18:17:54:399663,1,14,-8,-4,-2,-1,3,11
18:17:54:407937,1,14,-8,-4,-2,-1,3,11
18:17:54:408700,-3,-16,-4,0,1,-1,1,3
18:17:54:422198,15,15,-3,-2,-2,-1,-2,4
18:17:54:430421,15,15,-3,-2,-2,-1,-2,4
18:17:54:431239,4,2,-10,0,-1,-1,-3,4
18:17:54:437274,-2,-6,-2,-6,-1,-2,-2,-1
18:17:54:452932,-2,-6,-2,-6,-1,-2,-2,-1
18:17:54:453728,-14,7,5,3,0,3,0,-8
18:17:54:459647,4,0,-2,3,1,2,2,-2
18:17:54:467952,4,0,-2,3,1,2,2,-2
18:17:54:468697,-31,-24,2,-2,-3,-6,-9,-17
18:17:54:482162,-7,-10,-6,2,1,-1,-1,1
18:17:54:490410,-7,-10,-6,2,1,-1,-1,1
18:17:54:491229,-1,0,1,2,0,2,3,8
18:17:54:497173,-5,4,8,0,-1,-2,0,-4
18:17:54:512925,-5,4,8,0,-1,-2,0,-4
18:17:54:513715,-9,-5,-5,1,2,0,0,0
18:17:54:519661,-7,-8,-11,-8,-1,-5,-3,-6
18:17:54:527920,-7,-8,-11,-8,-1,-5,-3,-6
18:17:54:528713,-8,-27,-3,-10,-4,-1,0,-8
18:17:54:542173,12,16,4,-3,1,2,2,7
18:17:54:550402,12,16,4,-3,1,2,2,7
18:17:54:551227,-1,-9,1,-1,-1,-1,-2,-2
18:17:54:557167,5,-19,-4,1,1,0,-2,-1
18:17:54:572871,5,-19,-4,1,1,0,-2,-1
18:17:54:573685,20,20,-2,0,0,0,1,10
18:17:54:579675,-37,4,-1,2,-3,-5,-8,-9
18:17:54:587894,-37,4,-1,2,-3,-5,-8,-9
18:17:54:588685,-3,3,5,3,0,0,-1,-2
18:17:54:602236,12,-2,0,-2,1,4,1,7
18:17:54:610384,12,-2,0,-2,1,4,1,7
18:17:54:611236,18,11,-1,0,1,0,3,14
18:17:54:617169,8,-4,-5,-2,-1,2,2,-3
18:17:54:632891,8,-4,-5,-2,-1,2,2,-3
18:17:54:633681,10,7,2,0,1,-1,0,3
18:17:54:639673,-1,-10,0,-1,-1,-3,-2,-3
18:17:54:647242,-1,-10,0,-1,-1,-3,-2,-3
18:17:54:654710,-13,-30,-7,-12,-6,-5,-3,4
18:17:54:662155,10,31,2,-1,1,-1,-3,3
18:17:54:670388,10,31,2,-1,1,-1,-3,3
18:17:54:671244,-2,8,2,1,-2,-1,-2,-5
18:17:54:684627,3,23,5,6,1,0,0,-5
18:17:54:692900,3,23,5,6,1,0,0,-5
18:17:54:693686,-2,13,-3,-1,0,0,-3,-1
18:17:54:699671,14,8,-2,-3,-5,-6,-3,-6
18:17:54:707235,14,8,-2,-3,-5,-6,-3,-6
18:17:54:714695,-8,32,-6,-4,0,-1,2,-1
18:17:54:722144,-10,-29,-2,-3,-3,0,-1,-1
18:17:54:730455,-10,-29,-2,-3,-3,0,-1,-1
18:17:54:731231,1,39,5,4,3,0,-2,-6
18:17:54:744703,-8,-3,1,4,1,3,2,-4
18:17:54:752908,-8,-3,1,4,1,3,2,-4
18:17:54:753720,1,-14,1,4,2,0,3,-2
18:17:54:759708,2,-18,2,-5,-1,-3,-2,3
18:17:54:767245,2,-18,2,-5,-1,-3,-2,3
18:17:54:774714,10,-8,-4,3,4,3,1,5
18:17:54:782266,2,-4,-8,2,0,-2,0,-1
18:17:54:790363,2,-4,-8,2,0,-2,0,-1
18:17:54:791276,4,-10,6,5,0,0,0,3
18:17:54:804713,-3,-7,-4,0,-1,2,0,1
18:17:54:812928,-3,-7,-4,0,-1,2,0,1
18:17:54:813706,1,-15,-7,-3,-2,-2,-2,-3
18:17:54:819676,-6,8,4,0,-4,-2,-2,-3
18:17:54:827244,-6,8,4,0,-4,-2,-2,-3
18:17:54:834691,-1,7,-2,-3,-1,-1,2,2
18:17:54:842241,-6,-8,3,-1,-1,-2,1,0
18:17:54:850346,-6,-8,3,-1,-1,-2,1,0
18:17:54:851224,-12,-18,6,-2,-1,-4,-2,-10
18:17:54:865348,-13,-4,-6,0,1,1,1,-2
18:17:54:866235,-13,-4,-6,0,1,1,1,-2
18:17:54:872278,15,-3,2,-3,-2,0,-3,-4
18:17:54:879693,15,-10,0,-4,-2,-2,-2,3
18:17:54:887271,15,-10,0,-4,-2,-2,-2,3
18:17:54:894634,5,1,-3,-4,-2,3,1,0
18:17:54:902137,-11,13,-9,-10,-4,1,-5,-4
18:17:54:910395,-11,13,-9,-10,-4,1,-5,-4
18:17:54:911236,-6,-3,1,-2,-1,-1,-3,-2
18:17:54:925382,-21,-35,19,3,1,3,-2,-5
18:17:54:926257,-21,-35,19,3,1,3,-2,-5
18:17:54:932139,-2,12,-1,-1,-1,-4,-2,0
18:17:54:939644,11,23,8,-4,-3,-4,0,1
18:17:54:947230,11,23,8,-4,-3,-4,0,1
18:17:54:954671,-1,-3,-2,0,-1,2,0,2
18:17:54:962178,3,-33,-10,0,0,-1,-1,-2
18:17:54:970417,3,-33,-10,0,0,-1,-1,-2
18:17:54:971271,3,20,-12,-4,-3,0,-2,0
18:17:54:985396,2,-2,-4,-3,-3,-1,-3,3
18:17:54:986267,2,-2,-4,-3,-3,-1,-3,3
18:17:54:992173,-13,-7,4,0,-4,-2,-2,-2
18:17:54:999651,-8,-7,-3,1,0,0,1,0
18:17:55:7221,-8,-7,-3,1,0,0,1,0
18:17:55:14700,10,32,-13,0,1,0,3,4
18:17:55:22190,3,6,-2,0,-2,2,4,2
18:17:55:30408,3,6,-2,0,-2,2,4,2
18:17:55:31246,-7,-20,13,2,-4,-2,-1,-3
18:17:55:45390,16,4,-11,0,0,-2,2,0
18:17:55:46232,16,4,-11,0,0,-2,2,0
18:17:55:52164,-6,-15,-1,2,0,2,0,-5
18:17:55:59650,-5,12,-2,-2,0,-2,-1,0
18:17:55:67242,-5,12,-2,-2,0,-2,-1,0
18:17:55:74758,23,27,-1,-4,3,-3,3,8
18:17:55:82256,5,6,0,0,-2,-3,-4,-3
18:17:55:90387,5,6,0,0,-2,-3,-4,-3
18:17:55:91234,-11,-8,0,-5,-2,-2,-4,-5
18:17:55:105336,1,-12,5,1,0,-2,0,-2
18:17:55:106266,1,-12,5,1,0,-2,0,-2
18:17:55:112255,-8,-9,0,-2,0,0,-3,-2
18:17:55:119711,-5,-32,-7,-4,-5,0,-2,1
18:17:55:127253,-5,-32,-7,-4,-5,0,-2,1
18:17:55:134698,-13,-23,0,-2,-2,-1,-3,-3
18:17:55:142308,-25,4,2,2,-1,0,-7,-9
18:17:55:150351,-25,4,2,2,-1,0,-7,-9
18:17:55:151249,4,4,-8,0,-1,-3,0,0
18:17:55:165377,-21,-10,0,-4,-3,2,-2,-4
18:17:55:166284,-21,-10,0,-4,-3,2,-2,-4
18:17:55:172258,-9,-7,-7,4,1,2,0,2
18:17:55:179751,3,19,10,5,0,-6,-3,-6
18:17:55:187246,3,19,10,5,0,-6,-3,-6
18:17:55:194632,-2,6,4,0,1,-1,1,-2
18:17:55:202121,6,6,-4,-3,-1,-2,-1,0
18:17:55:210394,6,6,-4,-3,-1,-2,-1,0
18:17:55:211236,-3,-8,-3,-3,-6,-2,-2,-1
18:17:55:225371,10,5,9,-3,-1,3,1,3
18:17:55:226266,10,5,9,-3,-1,3,1,3
18:17:55:232151,-3,0,-9,-4,-3,-1,-1,-2
18:17:55:239648,-12,-6,-2,-1,-2,-4,0,-5
18:17:55:247247,-12,-6,-2,-1,-2,-4,0,-5
18:17:55:254680,2,-7,15,-3,1,1,-1,1
18:17:55:262166,10,0,-6,2,3,1,1,4
18:17:55:270438,10,0,-6,2,3,1,1,4
18:17:55:271265,-1,-1,-1,4,-2,-3,-3,-4
18:17:55:285376,5,-1,-7,-3,-1,-2,-2,2
18:17:55:286252,5,-1,-7,-3,-1,-2,-2,2
18:17:55:292172,11,22,-7,-1,-1,0,3,1
18:17:55:299670,10,-10,-1,-3,-4,-1,-2,0
18:17:55:307252,10,-10,-1,-3,-4,-1,-2,0
18:17:55:314691,12,8,1,-5,-1,-2,-1,3
18:17:55:322174,15,12,-1,-3,-4,-3,-2,0
18:17:55:330426,15,12,-1,-3,-4,-3,-2,0
18:17:55:331362,-5,-10,1,3,2,0,-1,0
18:17:55:345407,-16,-13,-3,-1,2,-1,-1,-3
18:17:55:346241,-16,-13,-3,-1,2,-1,-1,-3
18:17:55:352170,-2,11,1,0,2,2,3,-1
18:17:55:359672,-1,-7,11,2,0,0,-2,2
18:17:55:367287,-1,-7,11,2,0,0,-2,2
18:17:55:374724,-11,-24,14,2,0,-2,-2,-5
18:17:55:382260,21,7,1,6,3,1,5,4
18:17:55:390382,21,7,1,6,3,1,5,4
18:17:55:391230,8,-3,-5,-3,-4,-1,-2,2
18:17:55:405373,0,-3,-3,-4,-3,1,-1,-2
18:17:55:406270,0,-3,-3,-4,-3,1,-1,-2
18:17:55:412253,11,2,4,0,-1,-2,0,0
18:17:55:427909,-3,-4,-11,-3,-1,-3,-2,1
18:17:55:428733,-3,-4,-11,-3,-1,-3,-2,1
18:17:55:434702,-10,6,5,3,0,-3,1,3
18:17:55:442166,-3,14,-2,5,-1,-2,-2,1
18:17:55:450425,-3,14,-2,5,-1,-2,-2,1
18:17:55:451259,15,48,-9,2,2,0,2,2
18:17:55:465390,-3,51,-10,-4,-2,1,-1,-2
18:17:55:466235,-3,51,-10,-4,-2,1,-1,-2
18:17:55:472172,2,-19,-7,-4,-2,-3,-5,-5
18:17:55:479686,14,4,1,-5,-7,-1,1,2
18:17:55:487238,14,4,1,-5,-7,-1,1,2
18:17:55:494724,-17,-13,-9,-11,-3,1,-1,-4
18:17:55:502274,11,2,-2,-4,-1,-2,1,6
18:17:55:510408,11,2,-2,-4,-1,-2,1,6
18:17:55:511258,-9,-10,-2,3,2,-3,-2,-4
18:17:55:525369,-13,-16,-1,1,3,2,-1,-1
18:17:55:526232,-13,-16,-1,1,3,2,-1,-1
18:17:55:532250,10,-25,-11,-2,-3,0,-1,1
18:17:55:539705,-31,-40,-9,-4,-1,-1,-1,-5
18:17:55:547237,-31,-40,-9,-4,-1,-1,-1,-5
18:17:55:554648,3,1,3,-2,0,-2,-3,-3
18:17:55:562244,-8,2,9,2,-1,0,-1,-2
18:17:55:570384,-8,2,9,2,-1,0,-1,-2
18:17:55:571245,-55,-5,0,-2,-2,-3,-6,-11
18:17:55:585385,3,17,7,-2,-2,0,1,2
18:17:55:586271,3,17,7,-2,-2,0,1,2
18:17:55:592152,12,-9,-8,-11,-3,1,1,1
18:17:55:616049,34,34,-2,-2,3,1,4,1
18:17:55:616874,34,34,-2,-2,3,1,4,1
18:17:55:617675,4,-6,6,1,-1,0,2,0
18:17:55:622216,10,-5,-8,3,1,-1,-3,-1
18:17:55:629769,10,-5,-8,3,1,-1,-3,-1
18:17:55:637237,17,15,-1,1,0,-1,1,4
18:17:55:645357,-22,-19,6,3,1,-3,-2,-4
18:17:55:646211,-22,-19,6,3,1,-3,-2,-4
18:17:55:652270,4,2,-4,5,-1,-2,-5,0
18:17:55:667827,-24,-42,-2,-4,1,-1,-3,-3
18:17:55:668649,-24,-42,-2,-4,1,-1,-3,-3
18:17:55:674717,6,-15,1,1,0,2,1,3
18:17:55:690374,-4,-6,1,1,2,4,3,1
18:17:55:691247,-4,-6,1,1,2,4,3,1
18:17:55:697164,7,1,-1,-3,-3,0,-4,0
18:17:55:705410,6,-28,-3,-2,-3,0,-5,-7
18:17:55:706245,6,-28,-3,-2,-3,0,-5,-7
18:17:55:712244,8,0,5,2,2,2,1,0
18:17:55:727875,-2,-29,1,-4,-1,-2,2,8
18:17:55:728727,-2,-29,1,-4,-1,-2,2,8
18:17:55:734683,-3,1,-1,0,0,-1,12,0
18:17:55:742167,-10,-12,5,-4,-3,-1,-2,-3
18:17:55:749737,-10,-12,5,-4,-3,-1,-2,-3
18:17:55:757234,14,27,5,-1,1,2,9,9
18:17:55:765362,-38,-10,-12,-1,-2,-1,2,-4
18:17:55:766242,-38,-10,-12,-1,-2,-1,2,-4
18:17:55:772235,-10,-1,0,2,-1,-2,-6,-7
18:17:55:787854,-11,8,0,0,0,1,-2,-3
18:17:55:788680,-11,8,0,0,0,1,-2,-3
18:17:55:794699,-5,-21,0,-5,-1,-3,-8,-3
18:17:55:802277,-11,-18,9,4,1,-3,-3,-3
18:17:55:809750,-11,-18,9,4,1,-3,-3,-3
18:17:55:817282,14,-24,-8,-7,-6,-1,-1,3
18:17:55:825375,9,46,-21,-2,1,-2,0,1
18:17:55:826257,9,46,-21,-2,1,-2,0,1
18:17:55:832144,-4,-2,-8,0,-1,0,-1,-1
18:17:55:847846,-5,-9,0,0,-3,-1,-4,0
18:17:55:848667,-5,-9,0,0,-3,-1,-4,0
18:17:55:854658,-36,-4,-6,-1,0,-1,-1,-4
18:17:55:862278,11,-8,0,-6,-2,-2,-2,-6
18:17:55:869743,11,-8,0,-6,-2,-2,-2,-6
18:17:55:877167,-21,-13,2,-3,-3,0,-14,-5
18:17:55:885376,6,-52,8,3,-1,0,2,3
18:17:55:886240,6,-52,8,3,-1,0,2,3
18:17:55:892153,5,-2,-1,0,1,-1,2,2
18:17:55:907839,7,-4,-1,-2,0,-1,-3,3
18:17:55:908704,7,-4,-1,-2,0,-1,-3,3
18:17:55:914626,15,26,14,0,-1,-1,4,3
18:17:55:922131,-6,14,-2,-3,-6,-4,-4,-8
18:17:55:929758,-6,14,-2,-3,-6,-4,-4,-8
18:17:55:937180,8,3,4,1,2,-1,5,3
18:17:55:945389,15,22,-2,-1,-2,2,1,6
18:17:55:946254,15,22,-2,-1,-2,2,1,6
18:17:55:952216,-7,-38,2,2,0,-2,-8,-9
18:17:55:968359,-5,1,4,1,-1,-1,-4,-6
18:17:55:969251,-5,1,4,1,-1,-1,-4,-6
18:17:55:974677,13,17,0,-2,-4,-2,1,3
18:17:55:982180,28,8,-4,1,1,-3,-10,4
18:17:55:989771,28,8,-4,1,1,-3,-10,4
18:17:55:997177,-8,4,4,-1,-3,-2,-5,-8
18:17:56:5377,0,11,4,1,-1,-2,3,-2
18:17:56:6259,0,11,4,1,-1,-2,3,-2
18:17:56:12263,-8,-8,-2,0,0,-1,-5,-1
18:17:56:27911,-2,3,1,-3,2,-2,-1,0
18:17:56:28731,-2,3,1,-3,2,-2,-1,0
18:17:56:42835,8,18,-10,-2,0,-1,0,5
18:17:56:43612,-1,-6,-14,-2,-2,-2,2,-3
18:17:56:49750,-1,-6,-14,-2,-2,-2,2,-3
18:17:56:57177,11,2,0,3,1,3,8,3
18:17:56:65388,9,-7,-9,0,-4,1,4,3
18:17:56:66260,9,-7,-9,0,-4,1,4,3
18:17:56:72244,3,-3,-4,-3,-1,0,-1,0
18:17:56:87888,-4,16,1,-4,0,-1,1,0
18:17:56:88691,-4,16,1,-4,0,-1,1,0
18:17:56:94677,3,4,0,-1,0,1,0,-3
18:17:56:102197,-2,2,8,0,-1,-3,-1,-2
18:17:56:109824,-2,2,8,0,-1,-3,-1,-2
18:17:56:117195,-8,12,8,-2,-2,-3,-5,-2
18:17:56:125375,0,-50,5,-6,0,4,-17,-6
18:17:56:126255,0,-50,5,-6,0,4,-17,-6
18:17:56:132249,-5,4,-3,0,-4,-2,-1,-3
18:17:56:147942,-1,4,4,2,2,1,7,1
18:17:56:148716,-1,4,4,2,2,1,7,1
18:17:56:154679,-7,-18,-1,-4,-3,-2,-8,-4
18:17:56:162192,9,20,0,0,-1,0,4,3
18:17:56:169699,9,20,0,0,-1,0,4,3
18:17:56:177287,1,-12,-5,-2,1,-1,4,-1
18:17:56:185332,-8,7,-1,0,-2,-1,8,6
18:17:56:186271,-8,7,-1,0,-2,-1,8,6
18:17:56:192164,8,34,0,3,1,1,3,7
18:17:56:207861,0,-4,-5,-3,-5,-1,-3,-2
18:17:56:208675,0,-4,-5,-3,-5,-1,-3,-2
18:17:56:214704,5,0,1,-3,0,-2,-9,-6
18:17:56:222260,2,13,-6,0,0,-5,-1,-2
18:17:56:229694,2,13,-6,0,0,-5,-1,-2
18:17:56:237139,-6,-30,-13,-2,0,-2,-5,-4
18:17:56:245382,-6,-7,-4,-1,1,-2,-3,-2
18:17:56:246244,-6,-7,-4,-1,1,-2,-3,-2
18:17:56:252162,-9,3,2,-2,2,-1,4,2
18:17:56:267852,-3,3,-3,2,-2,-1,-3,1
18:17:56:268666,-3,3,-3,2,-2,-1,-3,1
18:17:56:274665,2,4,2,2,-3,2,0,3
18:17:56:282145,0,-3,3,-3,0,2,7,-1
18:17:56:289748,0,-3,3,-3,0,2,7,-1
18:17:56:297161,-13,-18,-5,-4,-3,2,0,-8
18:17:56:305381,-8,-14,-5,-5,-2,-1,-9,-3
18:17:56:306252,-8,-14,-5,-5,-2,-1,-9,-3
18:17:56:319657,15,33,-19,0,-2,-2,1,6
18:17:56:327892,-6,1,-7,-3,-1,-5,2,-9
18:17:56:328726,-6,1,-7,-3,-1,-5,2,-9
18:17:56:334695,4,-4,-3,1,2,0,8,7
18:17:56:342182,-16,3,0,-2,0,2,9,-10
18:17:56:349789,-16,3,0,-2,0,2,9,-10
18:17:56:357213,-21,-20,1,-2,1,1,13,-5
18:17:56:365348,-10,-24,8,2,-2,-3,-42,9
18:17:56:366274,-10,-24,8,2,-2,-3,-42,9
18:17:56:372283,-6,-16,13,0,-2,-3,-1,-4
18:17:56:387900,-5,-14,4,3,1,1,19,3
18:17:56:388723,-5,-14,4,3,1,1,19,3
18:17:56:394693,3,-6,-3,-2,-1,-3,-17,4
18:17:56:402187,4,8,-14,-5,-1,-2,16,-4
18:17:56:409713,4,8,-14,-5,-1,-2,16,-4
18:17:56:417297,-13,4,0,1,-1,0,-6,-6
18:17:56:425369,4,12,16,5,1,3,-1,4
18:17:56:426257,4,12,16,5,1,3,-1,4
18:17:56:432172,-4,-30,0,-4,-2,-2,6,-1
18:17:56:447837,-2,-11,6,2,-2,3,10,5
18:17:56:448695,-2,-11,6,2,-2,3,10,5
18:17:56:454713,2,-11,5,-4,-1,-3,-4,-2
18:17:56:462179,4,-2,-1,-4,2,3,20,-5
18:17:56:469727,4,-2,-1,-4,2,3,20,-5
18:17:56:477167,4,12,2,1,-1,-2,-6,-7
18:17:56:485373,7,24,3,1,0,-1,-4,5
18:17:56:486246,7,24,3,1,0,-1,-4,5
18:17:56:492168,10,4,-3,-1,-1,0,-12,0
18:17:56:507865,-20,-21,-3,-2,-5,2,-1,-29
18:17:56:508679,-20,-21,-3,-2,-5,2,-1,-29
18:17:56:514650,9,24,-5,-2,0,-1,4,5
18:17:56:522175,-4,-11,-6,-2,-2,-2,0,-13
18:17:56:529721,-4,-11,-6,-2,-2,-2,0,-13
18:17:56:537167,13,-7,-7,-1,0,-3,7,0
18:17:56:545360,2,-1,-8,1,2,3,6,4
18:17:56:546239,2,-1,-8,1,2,3,6,4
18:17:56:559669,6,-17,-3,-3,-1,2,7,3
18:17:56:567836,4,-6,11,0,0,-2,-6,4
18:17:56:568731,4,-6,11,0,0,-2,-6,4
18:17:56:574652,-8,-13,-5,-3,-2,0,-11,-1
18:17:56:590393,0,-3,-3,-2,-3,-3,3,6
18:17:56:591260,0,-3,-3,-2,-3,-3,3,6
18:17:56:597173,9,3,0,-4,-3,-9,-26,-12
18:17:56:605385,0,1,-2,-1,-2,-1,-15,5
18:17:56:606275,0,1,-2,-1,-2,-1,-15,5
18:17:56:619720,-5,18,-4,-1,-2,2,18,9
18:17:56:627908,19,11,1,-3,0,-5,-19,12
18:17:56:628705,19,11,1,-3,0,-5,-19,12
18:17:56:634669,0,-8,-2,1,0,-1,13,-2
18:17:56:650383,7,3,-4,-3,-1,-3,0,-1
18:17:56:651250,7,3,-4,-3,-1,-3,0,-1
18:17:56:657149,4,17,1,0,-1,3,3,-1
18:17:56:665378,6,4,-7,-4,-3,-2,8,9
18:17:56:666239,6,4,-7,-4,-3,-2,8,9
18:17:56:679736,-12,-15,4,-1,-1,-1,-7,-1
18:17:56:687870,-5,13,-4,-1,-1,0,-4,-6
18:17:56:688703,-5,13,-4,-1,-1,0,-4,-6
18:17:56:694648,-22,6,2,2,-3,-3,-25,-3
18:17:56:710344,5,9,1,0,1,-4,-6,1
18:17:56:711258,5,9,1,0,1,-4,-6,1
18:17:56:717247,4,38,-7,0,-1,6,18,-9
18:17:56:725332,2,0,0,0,-1,-8,-35,-9
18:17:56:726263,2,0,0,0,-1,-8,-35,-9
18:17:56:739703,7,-9,0,-1,0,-1,-15,-8
18:17:56:747847,0,7,9,-2,-3,1,18,3
18:17:56:748701,0,7,9,-2,-3,1,18,3
18:17:56:754710,-4,-6,-6,-1,-1,0,8,9
18:17:56:770328,-14,-21,-2,0,1,1,-1,2
18:17:56:771173,-14,-21,-2,0,1,1,-1,2
18:17:56:777196,-6,-9,4,0,-1,-1,-2,9
18:17:56:785359,3,-3,-2,-1,-1,-1,-17,-4
18:17:56:786283,3,-3,-2,-1,-1,-1,-17,-4
18:17:56:799708,14,-23,6,1,3,2,9,3
18:17:56:807823,-3,-4,4,0,0,-2,0,-24
18:17:56:808655,-3,-4,4,0,0,-2,0,-24
18:17:56:814721,16,-4,3,-2,-4,-2,-18,-1
18:17:56:830400,1,2,-7,-2,-2,1,18,2
18:17:56:831269,1,2,-7,-2,-2,1,18,2
18:17:56:837195,-12,1,-2,-4,0,-2,9,-1
18:17:56:844699,-2,-4,-2,-2,1,1,-5,0
18:17:56:852293,-2,-4,-2,-2,1,1,-5,0
18:17:56:859715,-13,-2,3,1,0,-2,7,-15
18:17:56:867888,-3,-11,-4,1,1,0,19,7
18:17:56:868690,-3,-11,-4,1,1,0,19,7
18:17:56:874648,-9,-4,-5,-3,-2,-5,-4,-9
18:17:56:890345,25,11,0,-2,-4,1,4,-20
18:17:56:891142,25,11,0,-2,-4,1,4,-20
18:17:56:897209,4,15,-2,-1,1,1,4,6
18:17:56:904665,0,-1,2,-2,-4,-1,-11,12
18:17:56:912269,0,-1,2,-2,-4,-1,-11,12
18:17:56:919692,5,12,-8,-2,0,-4,-6,-2
18:17:56:927887,14,18,-14,-2,-1,-2,6,10
18:17:56:928682,14,18,-14,-2,-1,-2,6,10
18:17:56:934647,-12,-12,5,-1,-2,-2,-4,-12
18:17:56:950365,-17,-4,0,-2,-3,-9,-8,-8
18:17:56:951254,-17,-4,0,-2,-3,-9,-8,-8
18:17:56:957209,-1,-8,-2,-2,-2,0,5,9
18:17:56:964682,9,12,7,-1,0,0,-1,3
18:17:56:972313,9,12,7,-1,0,0,-1,3
18:17:56:979672,10,-4,2,3,3,-3,-10,7
18:17:56:987900,-21,-19,-4,-3,-2,0,-6,6
18:17:56:988721,-21,-19,-4,-3,-2,0,-6,6
18:17:56:994695,-12,-16,-4,-2,-1,-5,-35,-4
18:17:57:10374,0,-3,-1,5,2,-1,-2,-1
18:17:57:11248,0,-3,-1,5,2,-1,-2,-1
18:17:57:17173,-15,-31,0,-2,-3,3,26,1
18:17:57:24703,-18,-25,-2,-4,1,0,4,6
18:17:57:32289,-18,-25,-2,-4,1,0,4,6
18:17:57:39675,7,-3,-2,-1,-4,2,16,6
18:17:57:47893,-2,24,-1,-1,-2,-2,3,-2
18:17:57:48717,-2,24,-1,-1,-2,-2,3,-2
18:17:57:54702,22,24,-4,-3,-1,0,1,-4
18:17:57:70400,22,24,-4,-3,-1,0,1,-4
18:17:57:71236,-3,13,5,-2,0,-3,1,2
18:17:57:77205,3,18,-9,-3,-2,2,13,4
18:17:57:92923,3,18,-9,-3,-2,2,13,4
18:17:57:93698,1,-2,-5,-5,-3,-1,-5,-9
18:17:57:99660,-8,-12,-3,-1,0,-3,-25,-18
18:17:57:107930,-8,-12,-3,-1,0,-3,-25,-18
18:17:57:108710,-21,-51,0,-2,-1,-2,-33,-3
18:17:57:114686,-6,-7,-6,-1,0,0,-5,7
18:17:57:130422,-6,-7,-6,-1,0,0,-5,7
18:17:57:131263,8,7,3,2,1,0,12,-3
18:17:57:137168,-5,-10,12,1,-1,-5,-38,-11
18:17:57:152909,-5,-10,12,1,-1,-5,-38,-11
18:17:57:153687,1,-4,1,0,-3,0,8,3
18:17:57:159662,2,21,-3,-1,1,1,11,5
18:17:57:167893,2,21,-3,-1,1,1,11,5
18:17:57:168689,13,15,-1,0,-1,1,1,-1
18:17:57:174657,-4,-6,-4,1,2,-1,-1,-4
18:17:57:190407,-4,-6,-4,1,2,-1,-1,-4
18:17:57:191261,14,5,0,-1,-2,-4,-37,-7
18:17:57:197185,-8,-6,0,1,-2,-2,11,2
18:17:57:212912,-8,-6,0,1,-2,-2,11,2
18:17:57:213680,-2,4,5,0,0,3,16,4
18:17:57:219661,3,3,-6,-6,-4,-8,-27,-3
18:17:57:227901,3,3,-6,-6,-4,-8,-27,-3
18:17:57:228671,1,9,-5,-3,0,1,6,1
18:17:57:234691,2,3,2,2,0,7,25,6
18:17:57:250403,2,3,2,2,0,7,25,6
18:17:57:251249,-11,-27,-10,0,-1,-1,-7,-9
18:17:57:257173,-6,-17,4,1,2,1,6,19
18:17:57:272916,-6,-17,4,1,2,1,6,19
18:17:57:273669,-4,-15,-10,0,0,2,16,9
18:17:57:279655,-8,-8,-3,-3,-3,-8,-44,-6
18:17:57:287858,-8,-8,-3,-3,-3,-8,-44,-6
18:17:57:288700,-1,5,4,-1,0,-2,17,3
18:17:57:294661,8,16,3,-4,-2,0,-19,-8
18:17:57:310384,8,16,3,-4,-2,0,-19,-8
18:17:57:311162,-5,-5,-1,-2,-1,-3,-4,-17
18:17:57:317128,3,2,0,3,2,1,11,12
18:17:57:332901,3,2,0,3,2,1,11,12
18:17:57:333667,-22,-16,2,0,-3,-2,4,0
18:17:57:339718,-7,-11,0,-2,-2,-6,10,4
18:17:57:347729,-7,-11,0,-2,-2,-6,10,4
18:17:57:355325,3,2,0,-2,-3,1,-1,0
18:17:57:356128,2,-7,-1,-1,-1,2,9,-3
18:17:57:370383,2,-7,-1,-1,-1,2,9,-3
18:17:57:371146,12,1,2,-2,0,-3,-20,-12
18:17:57:377204,6,-3,-5,-3,-1,2,13,-9
18:17:57:392953,6,-3,-5,-3,-1,2,13,-9
18:17:57:393709,-14,-1,-5,-1,0,-8,-21,-1
18:17:57:399678,4,-10,-7,-6,-2,-2,10,24
18:17:57:407885,4,-10,-7,-6,-2,-2,10,24
18:17:57:408672,-11,2,-1,0,-3,2,12,7
18:17:57:414682,-6,7,0,-3,2,3,6,-13
18:17:57:430363,-6,7,0,-3,2,3,6,-13
18:17:57:431164,14,2,-2,1,1,-2,-4,3
18:17:57:437205,3,-1,-5,2,0,6,17,-14
18:17:57:452919,3,-1,-5,2,0,6,17,-14
18:17:57:453712,-3,0,2,-2,-1,1,16,11
18:17:57:459703,-4,-4,-3,-3,-2,-2,-10,-2
18:17:57:467884,-4,-4,-3,-3,-2,-2,-10,-2
18:17:57:468659,5,7,-2,-1,0,-2,4,-7
18:17:57:474713,-1,-33,6,1,0,1,11,-2
18:17:57:490449,-1,-33,6,1,0,1,11,-2
18:17:57:491268,7,-11,3,0,-3,-3,9,1
18:17:57:497180,-30,-2,1,-1,0,-3,12,-13
18:17:57:512914,-30,-2,1,-1,0,-3,12,-13
18:17:57:513732,-5,-3,-2,0,2,0,-22,4
18:17:57:519654,-3,23,9,4,-2,-2,-9,-8
18:17:57:527927,-3,23,9,4,-2,-2,-9,-8
18:17:57:528712,2,10,-2,-1,1,2,20,2
18:17:57:542165,13,35,-5,-3,1,-5,-12,1
18:17:57:550384,13,35,-5,-3,1,-5,-12,1
18:17:57:551251,4,-6,1,-1,-2,-3,-5,20
18:17:57:557216,12,-8,-9,-5,-2,-3,1,7
18:17:57:572902,12,-8,-9,-5,-2,-3,1,7
18:17:57:573671,5,12,-2,-2,-1,0,15,-5
18:17:57:579675,-3,-2,-1,1,-3,-3,-11,-8
18:17:57:587921,-3,-2,-1,1,-3,-3,-11,-8
18:17:57:588707,-3,-11,-3,-3,2,1,-4,-13
18:17:57:602174,13,2,4,1,0,7,18,15
18:17:57:610388,13,2,4,1,0,7,18,15
18:17:57:611264,-6,6,-1,-1,-2,-10,-18,3
18:17:57:617174,2,-1,-1,0,0,2,1,7
18:17:57:632666,2,-1,-1,0,0,2,1,7
18:17:57:640332,8,1,3,-2,1,3,3,-4
18:17:57:641107,0,-7,2,-1,-1,-2,-15,-2
18:17:57:647891,0,-7,2,-1,-1,-2,-15,-2
18:17:57:648701,-18,-64,1,-3,-2,3,-15,-7
18:17:57:662136,3,-13,2,-1,-1,-6,-19,-3
18:17:57:670386,3,-13,2,-1,-1,-6,-19,-3
18:17:57:671262,2,8,8,2,-3,-3,-25,-1
18:17:57:677172,-9,7,0,-1,2,5,21,-2
18:17:57:684766,-9,7,0,-1,2,5,21,-2
18:17:57:692159,6,6,-3,-1,-2,0,8,0
18:17:57:699655,-10,4,2,-1,-2,-2,0,-10
18:17:57:707918,-10,4,2,-1,-2,-2,0,-10
18:17:57:708710,9,6,-6,-2,-2,0,10,4
18:17:57:722180,1,0,-7,-2,-1,1,2,2
18:17:57:730381,1,0,-7,-2,-1,1,2,2
18:17:57:731261,-3,5,4,1,1,-6,-20,-12
18:17:57:737181,9,-1,3,-4,-3,-1,5,-21
18:17:57:744753,9,-1,3,-4,-3,-1,5,-21
18:17:57:752190,-7,4,-6,-3,-2,1,-1,-18
18:17:57:759716,2,0,-1,-1,-1,-1,-7,-2
18:17:57:767870,2,0,-1,-1,-1,-1,-7,-2
18:17:57:768676,21,28,-13,-3,-2,-4,-22,-8
18:17:57:782176,-8,-4,0,1,0,-3,-7,4
18:17:57:790435,-8,-4,0,1,0,-3,-7,4
18:17:57:791264,-3,-15,3,-1,-1,0,9,4
18:17:57:797225,7,10,-4,0,1,1,10,4
18:17:57:812900,7,10,-4,0,1,1,10,4
18:17:57:813721,-3,-5,4,0,-1,1,1,2
18:17:57:819694,-7,-3,-6,-5,-4,-6,-17,-9
18:17:57:827922,-7,-3,-6,-5,-4,-6,-17,-9
18:17:57:828722,6,-1,0,2,-2,-2,0,-1
18:17:57:842165,9,-7,-3,-2,0,-2,3,0
18:17:57:850399,9,-7,-3,-2,0,-2,3,0
18:17:57:851261,5,6,-2,-4,-2,1,11,7
18:17:57:857180,-1,-11,6,2,1,0,5,-4
18:17:57:864721,-1,-11,6,2,1,0,5,-4
18:17:57:872193,2,1,2,0,1,5,18,6
18:17:57:879715,-3,-3,-7,-3,-4,-2,3,14
18:17:57:887867,-3,-3,-7,-3,-4,-2,3,14
18:17:57:888646,-10,-4,-4,0,-1,1,-20,-4
18:17:57:902178,16,6,0,-1,-1,-7,-40,1
18:17:57:910403,16,6,0,-1,-1,-7,-40,1
18:17:57:911161,9,4,-3,-1,1,-3,8,5
18:17:57:917181,1,-2,-2,2,2,3,17,5
18:17:57:932957,1,-2,-2,2,2,3,17,5
18:17:57:933731,-15,1,1,-1,-2,-1,13,-2
18:17:57:939695,-24,-5,4,-1,0,0,5,-3
18:17:57:947864,-24,-5,4,-1,0,0,5,-3
18:17:57:948663,-1,-16,-12,-5,-1,2,1,-15
18:17:57:962205,-2,3,-4,-4,0,0,3,-9
18:17:57:970447,-2,3,-4,-4,0,0,3,-9
18:17:57:971265,-15,-32,1,1,1,0,-1,-9
18:17:57:977177,-4,-1,0,-1,-4,-4,-5,1
18:17:57:992956,-4,-1,0,-1,-4,-4,-5,1
18:17:57:993745,-14,-9,2,0,-1,-1,1,-8
18:17:57:999675,-5,-2,1,0,-1,0,7,-9
18:17:58:7963,-5,-2,1,0,-1,0,7,-9
18:17:58:8737,4,-3,-6,1,0,-2,-5,7
18:17:58:22243,-5,-5,-8,-2,-4,-2,-8,-26
18:17:58:30456,-5,-5,-8,-2,-4,-2,-8,-26
18:17:58:31261,-1,5,-1,-1,-1,-3,5,1
18:17:58:37182,-6,10,6,-1,-1,1,9,1
18:17:58:52886,-6,10,6,-1,-1,1,9,1
