Time,EMG1,EMG2,EMG3,EMG4,EMG5,EMG6,EMG7,EMG8
16:24:51:299986,0,1,2,-9,1,-2,-2,-1
16:24:51:300837,0,1,2,-9,1,-2,-2,-1
16:24:51:314354,0,-3,4,-5,0,-1,0,-2
16:24:51:322495,-4,-2,-13,-12,-2,-1,0,1
16:24:51:323343,-4,-2,-13,-12,-2,-1,0,1
16:24:51:329338,-23,-5,-5,4,-3,-3,-4,-4
16:24:51:345033,2,0,1,-4,0,-1,0,-2
16:24:51:345880,2,0,1,-4,0,-1,0,-2
16:24:51:351829,5,2,0,-2,0,1,2,-2
16:24:51:360009,0,-1,-1,-6,-3,-1,-1,1
16:24:51:360876,0,-1,-1,-6,-3,-1,-1,1
16:24:51:374368,5,-2,3,1,0,0,-2,-7
16:24:51:382482,-3,1,17,0,-1,-1,-1,0
16:24:51:383325,-3,1,17,0,-1,-1,-1,0
16:24:51:389365,11,0,-5,-1,-1,-1,-2,-6
16:24:51:404974,0,-1,-9,-4,-1,-2,1,5
16:24:51:405838,0,-1,-9,-4,-1,-2,1,5
16:24:51:411852,-5,1,5,-3,0,0,2,10
16:24:51:419962,0,-3,-3,-2,-1,-1,-1,-4
16:24:51:420833,0,-3,-3,-2,-1,-1,-1,-4
16:24:51:434357,4,0,2,5,0,-1,0,-1
16:24:51:442457,-2,-1,2,-3,-1,-4,-2,-4
16:24:51:443322,-2,-1,2,-3,-1,-4,-2,-4
16:24:51:449351,-9,-1,-1,0,1,0,0,-4
16:24:51:464989,-1,-1,-3,-1,-2,-2,-3,0
16:24:51:465835,-1,-1,-3,-1,-2,-2,-3,0
16:24:51:471863,-9,-4,-2,2,0,1,-1,5
16:24:51:480001,2,-3,-4,-3,-2,-1,-2,-5
16:24:51:480839,2,-3,-4,-3,-2,-1,-2,-5
16:24:51:494370,7,-3,-5,-6,-2,-4,-3,-7
16:24:51:502460,-5,-2,-1,-1,-1,-1,-2,-4
16:24:51:503348,-5,-2,-1,-1,-1,-1,-2,-4
16:24:51:509358,54,6,4,3,-1,2,-2,2
16:24:51:525053,54,6,4,3,-1,2,-2,2
16:24:51:525864,1,-4,-5,-1,-2,-2,-6,-2
16:24:51:531724,-11,1,-6,3,1,-2,-1,-1
16:24:51:539985,-11,1,-6,3,1,-2,-1,-1
16:24:51:540856,1,1,1,-3,-1,0,2,0
16:24:51:554347,1,-2,-4,-2,1,0,4,5
16:24:51:562503,1,-2,-4,-2,1,0,4,5
16:24:51:563376,-25,-9,-17,-39,-6,-2,0,0
16:24:51:569354,-11,2,8,-5,0,-1,-3,-5
16:24:51:584995,-11,2,8,-5,0,-1,-3,-5
16:24:51:585840,5,1,4,16,4,-1,-3,-1
16:24:51:591828,-16,-2,-1,4,-1,-1,0,3
16:24:51:607476,-16,-2,-1,4,-1,-1,0,3
16:24:51:608337,4,1,-1,5,-1,-1,-2,-2
16:24:51:614355,-13,-3,0,5,-2,-2,-7,-8
16:24:51:622475,-13,-3,0,5,-2,-2,-7,-8
16:24:51:623347,-5,6,1,3,-1,0,-4,-3
16:24:51:629419,2,2,-3,-6,-2,0,-4,6
16:24:51:644978,2,2,-3,-6,-2,0,-4,6
16:24:51:645862,-18,-1,-1,3,-1,-3,1,-8
16:24:51:651828,23,-8,-10,-12,-6,-3,2,1
16:24:51:667599,23,-8,-10,-12,-6,-3,2,1
16:24:51:668328,-18,-10,-1,1,-2,-3,-3,-2
16:24:51:674352,3,-1,-1,0,0,-1,0,2
16:24:51:682506,3,-1,-1,0,0,-1,0,2
16:24:51:683355,10,-1,-2,-1,1,1,3,3
16:24:51:689482,-50,-5,1,0,-1,0,3,4
16:24:51:705117,-50,-5,1,0,-1,0,3,4
16:24:51:705853,1,2,2,1,-1,-1,-1,-5
16:24:51:711843,-2,1,-2,0,-3,-2,-1,-12
16:24:51:727475,-2,1,-2,0,-3,-2,-1,-12
16:24:51:728367,19,0,-2,-1,-1,0,-1,12
16:24:51:734410,3,-3,-1,-1,-2,-1,-2,-20
16:24:51:742616,3,-3,-1,-1,-2,-1,-2,-20
16:24:51:743407,5,1,-1,1,-2,-1,-4,-4
16:24:51:749328,4,1,0,-3,1,0,1,3
16:24:51:764985,4,1,0,-3,1,0,1,3
16:24:51:765857,6,0,1,0,0,1,1,4
16:24:51:771851,6,3,0,0,-1,-2,-2,2
16:24:51:787487,6,3,0,0,-1,-2,-2,2
16:24:51:788366,-6,1,0,-2,-1,-1,0,-2
16:24:51:794351,-1,-1,0,-3,-1,-2,-2,3
16:24:51:802621,-1,-1,0,-3,-1,-2,-2,3
16:24:51:803350,-17,-4,-2,2,-1,-2,-1,-9
16:24:51:809357,4,-1,-2,-1,-1,-1,-1,3
16:24:51:824972,4,-1,-2,-1,-1,-1,-1,3
16:24:51:825841,15,-2,-2,-1,0,-1,1,1
16:24:51:831853,-13,-1,0,0,-2,0,0,-8
16:24:51:840158,-13,-1,0,0,-2,0,0,-8
16:24:51:840856,9,1,-1,1,-2,0,-2,3
16:24:51:854342,7,-2,-1,1,2,0,0,-1
16:24:51:862502,7,-2,-1,1,2,0,0,-1
16:24:51:863336,-7,0,1,2,1,0,2,8
16:24:51:869380,2,0,-2,-1,-2,-1,0,2
16:24:51:885014,2,0,-2,-1,-2,-1,0,2
16:24:51:885854,0,-1,-2,0,0,-2,-1,-2
16:24:51:891833,11,0,-1,-2,-1,-2,-4,-2
16:24:51:899981,11,0,-1,-2,-1,-2,-4,-2
16:24:51:900859,-6,2,1,1,-2,-1,-1,-3
16:24:51:914373,1,0,0,0,-1,0,1,4
16:24:51:922478,1,0,0,0,-1,0,1,4
16:24:51:923335,0,-2,-2,-3,-1,1,-1,-6
16:24:51:929385,-7,-2,0,-1,-2,-4,-5,-10
16:24:51:945000,-7,-2,0,-1,-2,-4,-5,-10
16:24:51:945861,9,3,1,0,-1,0,-1,-1
16:24:51:951907,-8,2,-3,0,-1,1,1,-6
16:24:51:959977,-8,2,-3,0,-1,1,1,-6
16:24:51:960877,-15,-5,0,-2,-1,-2,1,1
16:24:51:974385,-7,0,0,1,-1,1,0,2
16:24:51:982476,-7,0,0,1,-1,1,0,2
16:24:51:983347,4,-1,-2,-2,-2,-2,-2,-1
16:24:51:989349,-2,-2,-1,-3,0,-1,0,3
16:24:52:4965,-2,-2,-1,-3,0,-1,0,3
16:24:52:5846,2,-2,-3,-2,0,-1,-1,3
16:24:52:11736,3,0,1,-1,-1,-1,-1,-1
16:24:52:19978,3,0,1,-1,-1,-1,-1,-1
16:24:52:20842,3,-2,-1,-2,-2,-1,-3,-9
16:24:52:34353,0,-3,-3,-1,-3,-1,-1,-4
16:24:52:42488,0,-3,-3,-1,-3,-1,-1,-4
16:24:52:43370,-11,-1,1,1,1,-1,1,-5
16:24:52:49357,6,-1,-3,-1,0,0,0,1
16:24:52:64989,6,-1,-3,-1,0,0,0,1
16:24:52:65855,1,0,-1,-1,-2,0,-1,-2
16:24:52:71868,-1,0,1,-1,0,-1,-3,-2
16:24:52:79974,-1,0,1,-1,0,-1,-3,-2
16:24:52:80837,3,0,-3,-3,0,-2,-1,1
16:24:52:94379,1,-2,-5,-1,-1,0,-1,2
16:24:52:102481,1,-2,-5,-1,-1,0,-1,2
16:24:52:103348,21,-1,-2,-2,-2,-1,0,1
16:24:52:109354,18,-2,-1,-2,-4,-2,-6,-13
16:24:52:124872,18,-2,-1,-2,-4,-2,-6,-13
16:24:52:132500,-3,1,-1,-2,-1,-1,-1,1
16:24:52:133369,-16,0,1,1,1,0,0,1
16:24:52:139976,-16,0,1,1,1,0,0,1
16:24:52:140850,0,-3,-1,0,-3,-1,-2,-3
16:24:52:154349,-4,0,-1,-2,-2,-2,-1,1
16:24:52:162489,-4,0,-1,-2,-2,-2,-1,1
16:24:52:163336,-11,-3,-1,-2,-1,0,0,-4
16:24:52:169332,1,0,1,-1,-3,-4,-1,2
16:24:52:185113,1,0,1,-1,-3,-4,-1,2
16:24:52:185857,-3,-2,0,0,-2,-1,-1,1
16:24:52:191929,27,2,1,2,0,0,2,4
16:24:52:200004,27,2,1,2,0,0,2,4
16:24:52:200881,-6,-1,-1,1,1,-1,0,5
16:24:52:214745,2,-5,-2,1,-1,-2,0,2
16:24:52:222614,2,-5,-2,1,-1,-2,0,2
16:24:52:223381,2,-1,-2,-2,0,-1,-2,-2
16:24:52:236870,-5,-2,-1,-1,-1,-1,2,3
16:24:52:245101,-5,-2,-1,-1,-1,-1,2,3
16:24:52:245888,-1,0,1,-2,-3,0,-3,-5
16:24:52:251855,-6,-1,-1,-1,0,1,0,2
16:24:52:259378,-6,-1,-1,-1,0,1,0,2
16:24:52:266875,3,0,0,0,-1,-1,-1,-2
16:24:52:274395,-13,-1,1,-2,-1,0,0,-2
16:24:52:282487,-13,-1,1,-2,-1,0,0,-2
16:24:52:283348,-7,0,0,0,1,-1,4,9
16:24:52:296863,-3,-2,-2,0,2,0,-2,-2
16:24:52:304969,-3,-2,-2,0,2,0,-2,-2
16:24:52:305860,-9,-1,-2,-3,-2,1,1,-1
16:24:52:311873,-11,1,10,-8,-1,0,0,-1
16:24:52:327502,-11,1,10,-8,-1,0,0,-1
16:24:52:328361,-5,-2,-3,-1,-1,-1,-2,-7
16:24:52:334345,-6,1,10,3,0,-1,-5,-9
16:24:52:342641,-6,1,10,3,0,-1,-5,-9
16:24:52:343364,11,1,-1,-2,-1,-2,-3,-11
16:24:52:356859,1,-2,-8,-1,-2,-2,0,2
16:24:52:365012,1,-2,-8,-1,-2,-2,0,2
16:24:52:366004,-6,-4,-4,-2,0,-1,-1,-2
16:24:52:371845,7,-3,-4,0,-3,-1,-3,2
16:24:52:379370,7,-3,-4,0,-3,-1,-3,2
16:24:52:386845,5,-3,2,-1,-1,-1,-1,3
16:24:52:394367,-16,-7,-9,-1,-2,-2,-1,4
16:24:52:402499,-16,-7,-9,-1,-2,-2,-1,4
16:24:52:403348,-2,1,-2,1,-5,-2,-1,1
16:24:52:416852,5,1,-4,-3,1,-1,-1,2
16:24:52:424982,5,1,-4,-3,1,-1,-1,2
16:24:52:425870,2,-3,-1,-1,-1,-4,3,-1
16:24:52:431858,4,0,-1,0,-1,0,0,-2
16:24:52:439360,4,0,-1,0,-1,0,0,-2
16:24:52:446732,6,1,0,0,0,-1,-2,-4
16:24:52:454376,-9,1,-2,1,-1,0,0,-14
16:24:52:462498,-9,1,-2,1,-1,0,0,-14
16:24:52:463349,1,1,0,-1,0,0,-3,3
16:24:52:476869,29,1,-1,-2,-1,-1,-1,4
16:24:52:484979,29,1,-1,-2,-1,-1,-1,4
16:24:52:485860,-1,-4,-3,-1,-1,-2,-3,-10
16:24:52:491805,-4,-2,-5,-1,-3,-1,0,-1
16:24:52:499373,-4,-2,-5,-1,-3,-1,0,-1
16:24:52:506854,-2,-2,0,-3,0,-1,-3,-1
16:24:52:514360,3,-5,-2,-2,-1,-2,0,6
16:24:52:522508,3,-5,-2,-2,-1,-2,0,6
16:24:52:523372,-7,-1,-3,0,-2,1,-1,1
16:24:52:545626,17,-6,-2,-3,-1,-2,-4,4
16:24:52:546470,17,-6,-2,-3,-1,-2,-4,4
16:24:52:547357,4,1,0,-2,-1,1,2,4
16:24:52:551841,-11,-1,-1,1,0,0,-3,-3
16:24:52:559363,-11,-1,-1,1,0,0,-3,-3
16:24:52:566763,-8,-5,-2,-1,-1,-2,-5,-6
16:24:52:574385,-9,0,1,-2,0,-2,0,0
16:24:52:582498,-9,0,1,-2,0,-2,0,0
16:24:52:583352,4,1,-1,1,0,-1,0,4
16:24:52:596877,-5,0,0,-2,-1,1,0,-5
16:24:52:604998,-5,0,0,-2,-1,1,0,-5
16:24:52:605875,-2,-1,0,1,-2,1,1,1
16:24:52:611772,0,1,0,2,-1,1,2,-4
16:24:52:619355,0,1,0,2,-1,1,2,-4
16:24:52:626913,-3,-2,-1,10,-1,-1,-2,0
16:24:52:634379,-16,-4,-3,-1,-3,-2,-1,-10
16:24:52:642485,-16,-4,-3,-1,-3,-2,-1,-10
16:24:52:643364,-5,0,-2,0,0,-1,-8,1
16:24:52:656769,-3,-1,0,1,0,0,-1,-3
16:24:52:664970,-3,-1,0,1,0,0,-1,-3
16:24:52:665868,2,1,2,4,-1,-1,-1,-3
16:24:52:671871,-4,-3,1,11,-4,-3,-2,-3
16:24:52:679392,-4,-3,1,11,-4,-3,-2,-3
16:24:52:686866,-1,-3,-3,-1,-3,-2,1,8
16:24:52:694374,-10,3,0,-2,1,0,0,1
16:24:52:702499,-10,3,0,-2,1,0,0,1
16:24:52:703370,-1,1,-1,-5,-2,0,1,-1
16:24:52:716876,-6,2,2,-3,2,0,-2,0
16:24:52:724972,-6,2,2,-3,2,0,-2,0
16:24:52:725860,-12,-1,-3,-5,-1,-3,-4,-8
16:24:52:731868,4,3,0,-5,-2,-1,-2,-1
16:24:52:739361,4,3,0,-5,-2,-1,-2,-1
16:24:52:746849,2,-1,-1,-2,-1,-2,0,-1
16:24:52:754338,5,-2,-2,-3,-1,-2,-1,-2
16:24:52:762520,5,-2,-2,-3,-1,-2,-1,-2
16:24:52:763370,0,-1,-1,-2,-2,0,0,1
16:24:52:776901,-1,-3,-3,-1,-1,0,-1,0
16:24:52:785095,-1,-3,-3,-1,-1,0,-1,0
16:24:52:785857,1,0,-2,-2,-2,-1,1,0
16:24:52:791910,-1,-3,-1,-1,-2,0,0,-2
16:24:52:799341,-1,-3,-1,-1,-2,0,0,-2
16:24:52:806897,-9,-1,-1,0,0,-1,-1,-5
16:24:52:814348,0,-1,-2,-5,-1,0,0,4
16:24:52:822488,0,-1,-2,-5,-1,0,0,4
16:24:52:823348,-1,-6,-2,-5,-1,-1,-1,5
16:24:52:836870,-8,-1,-2,-1,1,-2,0,2
16:24:52:845013,-8,-1,-2,-1,1,-2,0,2
16:24:52:845863,4,-1,1,-2,-1,0,0,-2
16:24:52:851841,2,-2,-3,-4,0,-1,-1,-1
16:24:52:859413,2,-2,-3,-4,0,-1,-1,-1
16:24:52:866741,-3,0,-2,0,0,1,1,-2
16:24:52:874383,3,-1,-2,0,-1,-2,-3,-7
16:24:52:882503,3,-1,-2,0,-1,-2,-3,-7
16:24:52:883368,0,-1,-1,-3,-2,-1,-2,0
16:24:52:896869,3,-2,-1,-1,-1,1,-1,-1
16:24:52:905002,3,-2,-1,-1,-1,1,-1,-1
16:24:52:905884,1,0,0,1,0,-2,-2,3
16:24:52:911766,-1,0,-1,1,-2,-2,-2,-3
16:24:52:919369,-1,0,-1,1,-2,-2,-2,-3
16:24:52:926903,3,-1,-3,-2,-1,0,-1,1
16:24:52:934383,-3,0,1,-2,0,-1,-1,2
16:24:52:942530,-3,0,1,-2,0,-1,-1,2
16:24:52:943371,-1,-1,-2,6,-2,-2,-1,-7
16:24:52:956743,2,-1,0,0,-1,-1,0,1
16:24:52:965009,2,-1,0,0,-1,-1,0,1
16:24:52:965874,-2,0,-1,-3,0,-1,-3,-6
16:24:52:971865,1,-1,-3,1,0,-1,-2,0
16:24:52:979382,1,-1,-3,1,0,-1,-2,0
16:24:52:986860,-1,-2,0,-2,-1,-1,0,-1
16:24:52:994369,-11,-3,-1,-3,-4,-4,-1,-2
16:24:53:2491,-11,-3,-1,-3,-4,-4,-1,-2
16:24:53:3369,-1,-1,0,0,-2,0,1,-1
16:24:53:16730,2,-2,0,0,-1,2,0,1
16:24:53:25004,2,-2,0,0,-1,2,0,1
16:24:53:25868,-2,-1,-1,-1,0,-1,-1,-3
16:24:53:31882,2,0,0,1,0,-2,-1,0
16:24:53:39366,2,0,0,1,0,-2,-1,0
16:24:53:46881,0,2,0,-1,-1,-4,1,2
16:24:53:54367,1,0,-1,-3,-3,1,-1,1
16:24:53:62532,1,0,-1,-3,-3,1,-1,1
16:24:53:63347,0,-1,7,-3,-1,-1,-2,-1
16:24:53:76933,0,-2,0,-3,-2,-2,-1,-1
16:24:53:85006,0,-2,0,-3,-2,-2,-1,-1
16:24:53:85745,-1,-2,10,3,-3,-2,-2,-3
16:24:53:99349,0,-2,-5,0,1,-4,-2,0
16:24:53:107504,0,-2,-5,0,1,-4,-2,0
16:24:53:108399,1,-1,-4,-2,6,1,2,0
16:24:53:114364,2,-2,-22,5,-2,-22,-1,-1
16:24:53:122479,2,-2,-22,5,-2,-22,-1,-1
16:24:53:123370,0,-1,-25,-11,-7,-7,1,-1
16:24:53:136945,0,2,12,-6,-6,-1,-7,-2
16:24:53:145037,0,2,12,-6,-6,-1,-7,-2
16:24:53:145863,1,1,-10,3,0,1,-1,-1
16:24:53:151842,-1,-3,-1,-1,0,2,-3,-1
16:24:53:159381,-1,-3,-1,-1,0,2,-3,-1
16:24:53:166867,-2,-1,7,1,1,5,0,-1
16:24:53:174375,0,-1,4,1,2,2,1,-1
16:24:53:181874,0,-1,4,1,2,2,1,-1
16:24:53:189382,1,-1,1,-2,-4,0,-1,1
16:24:53:196734,-1,-2,-1,-1,-2,2,0,0
16:24:53:212517,-1,-2,-1,-1,-2,2,0,0
16:24:53:213350,0,-1,-3,-2,0,-1,-1,1
16:24:53:219502,-1,0,-6,1,-3,6,3,2
16:24:53:227498,-1,0,-6,1,-3,6,3,2
16:24:53:228396,-3,-2,4,1,1,-3,-1,-3
16:24:53:242517,0,-2,-3,-2,3,5,0,0
16:24:53:243369,0,-2,-3,-2,3,5,0,0
16:24:53:249367,0,-1,13,-3,1,2,-3,-1
16:24:53:256883,-1,-2,-1,-4,-3,-1,0,-1
16:24:53:265488,-1,-2,-1,-4,-3,-1,0,-1
16:24:53:271742,-1,-3,-26,0,-4,-7,-2,0
16:24:53:279390,0,1,15,3,2,-1,-2,-1
16:24:53:287500,0,1,15,3,2,-1,-2,-1
16:24:53:288367,-2,2,14,3,-3,-3,-1,-3
16:24:53:294393,-2,0,-16,-2,1,1,0,-3
16:24:53:301871,-2,0,-16,-2,1,1,0,-3
16:24:53:309369,-2,-5,-12,-3,-1,-2,-1,0
16:24:53:316871,0,2,1,-1,1,2,3,0
16:24:53:325002,0,2,1,-1,1,2,3,0
16:24:53:325872,1,-2,-1,-1,2,0,-1,-1
16:24:53:339368,-3,-4,2,7,-2,-7,-2,-3
16:24:53:348240,-3,-4,2,7,-2,-7,-2,-3
16:24:53:349007,1,2,2,-4,1,2,0,0
16:24:53:354360,-2,-4,-3,2,-3,0,-2,-2
16:24:53:361895,-2,-4,-3,2,-3,0,-2,-2
16:24:53:369351,-1,-2,3,-13,2,-3,-1,-3
16:24:53:376890,0,3,13,-1,2,0,0,0
16:24:53:384976,0,3,13,-1,2,0,0,0
16:24:53:385887,0,-2,2,2,-2,-1,-4,-1
16:24:53:399386,1,0,3,-1,4,1,-1,0
16:24:53:407531,1,0,3,-1,4,1,-1,0
16:24:53:408381,0,2,0,-1,-5,-2,-1,-2
16:24:53:414362,-1,0,-4,-4,-5,1,0,-1
16:24:53:421871,-1,0,-4,-4,-5,1,0,-1
16:24:53:429377,-1,-3,-13,-1,-15,-3,-1,-3
16:24:53:436870,-3,0,4,-5,-2,-3,-4,-3
16:24:53:445018,-3,0,4,-5,-2,-3,-4,-3
16:24:53:445869,-4,-1,3,0,-6,0,2,-2
16:24:53:459383,1,0,-9,-4,-3,-1,0,1
16:24:53:467493,1,0,-9,-4,-3,-1,0,1
16:24:53:468364,-1,-1,0,1,2,-1,-4,-2
16:24:53:474365,0,0,-2,6,10,0,2,1
16:24:53:481872,0,0,-2,6,10,0,2,1
16:24:53:489348,-2,-1,-2,-1,-9,1,-8,-2
16:24:53:496748,1,-1,0,-4,-2,1,0,1
16:24:53:504993,1,-1,0,-4,-2,1,0,1
16:24:53:505869,1,-1,1,2,-1,-6,0,-1
16:24:53:519382,-3,-2,-2,-6,-10,-5,-3,-3
16:24:53:528289,-3,-2,-2,-6,-10,-5,-3,-3
16:24:53:528982,0,-2,-1,0,9,-3,1,0
16:24:53:534390,-3,-2,-2,-8,0,2,-4,-3
16:24:53:541895,-3,-2,-2,-8,0,2,-4,-3
16:24:53:557505,-1,0,1,-1,8,-17,-1,-3
16:24:53:558407,-1,0,-2,6,3,-3,6,0
16:24:53:572508,-1,0,-2,6,3,-3,6,0
16:24:53:573373,-3,-1,-1,-3,-6,-9,-1,1
16:24:53:579392,1,-1,-3,-19,-12,2,-1,0
16:24:53:587493,1,-1,-3,-19,-12,2,-1,0
16:24:53:588364,-1,0,-1,0,0,8,0,-1
16:24:53:594407,0,-1,-2,-2,-6,-9,-2,-2
16:24:53:601874,0,-1,-2,-2,-6,-9,-2,-2
16:24:53:609425,0,-2,-1,0,6,3,5,0
16:24:53:616758,-1,-1,-4,3,-3,-6,-3,0
16:24:53:632516,-1,-1,-4,3,-3,-6,-3,0
16:24:53:633353,-1,-3,0,1,-5,-8,-4,-2
16:24:53:639431,1,-2,-2,-2,1,-1,2,0
16:24:53:655786,1,-2,-2,-2,1,-1,2,0
16:24:53:656519,-2,0,-2,1,20,10,0,0
16:24:53:657413,-2,-3,0,5,-12,-13,-6,-4
16:24:53:661868,-2,-3,0,5,-12,-13,-6,-4
16:24:53:669368,1,-1,3,5,2,5,0,0
16:24:53:685750,-2,-1,-1,6,7,5,0,-1
16:24:53:686498,-2,-1,-1,6,7,5,0,-1
16:24:53:687360,-1,-1,-1,-7,-22,5,0,-3
16:24:53:699376,-2,-2,-2,-3,-8,-5,-6,-2
16:24:53:707389,-2,-2,-2,-3,-8,-5,-6,-2
16:24:53:714992,-2,0,2,-3,-3,3,0,2
16:24:53:715746,0,0,1,-6,-23,-20,-2,-1
16:24:53:721874,0,0,1,-6,-23,-20,-2,-1
16:24:53:729397,-2,-1,-5,-4,-2,-15,-4,-4
16:24:53:736870,2,-1,3,6,37,34,5,5
16:24:53:745006,2,-1,3,6,37,34,5,5
16:24:53:745900,0,-1,1,2,-26,50,-1,-1
16:24:53:768118,-2,1,-2,4,19,2,-5,-2
16:24:53:768999,-2,1,-2,4,19,2,-5,-2
16:24:53:769756,0,1,-1,-2,0,-38,-5,0
16:24:53:774460,-3,-3,-4,-4,6,11,-2,-4
16:24:53:781852,-3,-3,-4,-4,6,11,-2,-4
16:24:53:789506,-2,-4,-4,-3,-9,4,-1,-2
16:24:53:796854,-3,-2,-1,4,0,56,7,0
16:24:53:805011,-3,-2,-1,4,0,56,7,0
16:24:53:805876,4,2,2,6,38,27,10,4
16:24:53:819386,-2,-2,0,-3,-27,-45,-12,-5
16:24:53:827498,-2,-2,0,-3,-27,-45,-12,-5
16:24:53:828352,-2,-2,-3,-5,7,-7,-4,-4
16:24:53:834399,0,-1,-1,6,-1,5,4,2
16:24:53:841900,0,-1,-1,6,-1,5,4,2
16:24:53:849380,-1,0,-1,2,-1,-12,0,1
16:24:53:856869,-1,-1,-3,-11,4,-1,0,-1
16:24:53:865002,-1,-1,-3,-11,4,-1,0,-1
16:24:53:865859,-1,0,-1,-5,-4,-24,-4,-1
16:24:53:879783,0,0,6,15,9,12,5,1
16:24:53:887499,0,0,6,15,9,12,5,1
16:24:53:888360,-1,0,-2,-3,-17,-37,-6,-2
16:24:53:894387,1,1,-1,0,1,-26,2,0
16:24:53:901886,1,1,-1,0,1,-26,2,0
16:24:53:909365,-1,-3,0,1,-5,3,-3,-3
16:24:53:916875,-2,0,-2,-1,-4,-8,-4,-3
16:24:53:924991,-2,0,-2,-1,-4,-8,-4,-3
16:24:53:925896,-1,0,1,-6,-1,10,-1,-1
16:24:53:940006,-1,-1,-2,2,11,5,1,-1
16:24:53:940868,-1,-1,-2,2,11,5,1,-1
16:24:53:946904,-1,-1,-2,2,-8,-20,-4,-2
16:24:53:954372,0,-5,-3,0,-10,13,2,1
16:24:53:961874,0,-5,-3,0,-10,13,2,1
16:24:53:969417,-1,-2,-3,-2,5,6,2,-1
16:24:53:976782,-2,2,-2,-13,-1,-7,1,0
16:24:53:985003,-2,2,-2,-13,-1,-7,1,0
16:24:53:985860,-1,2,1,-3,-3,14,2,1
16:24:54:47,-2,-2,-1,-16,4,-7,-2,0
16:24:54:881,-2,-2,-1,-16,4,-7,-2,0
16:24:54:6744,-1,-2,-13,-5,-18,0,-1,-1
16:24:54:14393,-1,0,1,4,-20,-13,-4,-1
16:24:54:21906,-1,0,1,4,-20,-13,-4,-1
16:24:54:29400,-2,-1,7,20,3,3,-1,0
16:24:54:36724,-2,-1,-5,1,1,-4,-5,-2
16:24:54:44991,-2,-1,-5,1,1,-4,-5,-2
16:24:54:45887,-3,-1,0,7,0,5,2,1
16:24:54:59997,-2,-2,7,8,35,31,2,0
16:24:54:60882,-2,-2,7,8,35,31,2,0
16:24:54:66741,-1,-3,-2,-17,2,4,-3,-1
16:24:54:74358,-1,0,-2,-5,-13,-1,0,-2
16:24:54:81883,-1,0,-2,-5,-13,-1,0,-2
16:24:54:89399,0,1,-2,2,12,3,-4,-2
16:24:54:96861,-1,-1,-4,-5,0,-14,-8,-2
16:24:54:104993,-1,-1,-4,-5,0,-14,-8,-2
16:24:54:105894,-2,-2,13,18,-4,-1,4,1
16:24:54:119391,0,-3,-5,5,5,-5,-1,1
16:24:54:127547,0,-3,-5,5,5,-5,-1,1
16:24:54:128372,-1,-1,-5,-16,2,-3,-3,-1
16:24:54:150634,-1,0,-1,-8,-6,0,2,0
16:24:54:151481,-1,0,-1,-8,-6,0,2,0
16:24:54:152364,0,-2,-7,6,-3,-2,-2,-1
16:24:54:156754,0,0,-3,0,-5,-5,1,1
16:24:54:164390,0,0,-3,0,-5,-5,1,1
16:24:54:171768,-2,-1,-5,-10,6,6,5,1
16:24:54:179402,2,0,-5,-7,-5,-5,-4,-2
16:24:54:187515,2,0,-5,-7,-5,-5,-4,-2
16:24:54:188371,-2,-1,0,-6,2,2,2,1
16:24:54:210660,0,1,1,14,-12,-5,1,-1
16:24:54:211511,0,1,1,14,-12,-5,1,-1
16:24:54:212518,0,0,11,6,-8,-2,-3,1
16:24:54:216856,-2,-2,-1,0,-7,-5,-2,-2
16:24:54:224423,-2,-2,-1,0,-7,-5,-2,-2
16:24:54:240016,-1,-1,0,0,4,2,-1,-1
16:24:54:240770,0,-2,-2,0,-2,-6,-6,-2
16:24:54:247485,0,-2,-2,0,-2,-6,-6,-2
16:24:54:248352,-1,-1,-1,-3,3,0,0,-2
16:24:54:263024,-2,-2,4,-4,-2,0,-1,-3
16:24:54:270001,-2,-2,4,-4,-2,0,-1,-3
16:24:54:270759,-1,-2,-2,-2,-3,-3,-2,-2
16:24:54:276915,-2,-1,3,-4,-1,-3,1,0
16:24:54:284364,-2,-1,3,-4,-1,-3,1,0
16:24:54:291782,1,-2,-3,-11,-2,-4,-1,-2
16:24:54:299393,1,-1,4,18,-2,-3,-1,-2
16:24:54:307517,1,-1,4,18,-2,-3,-1,-2
16:24:54:308402,0,1,-6,-9,2,1,0,-2
16:24:54:322532,-2,-1,-3,-17,-9,-7,-3,-1
16:24:54:323382,-2,-1,-3,-17,-9,-7,-3,-1
16:24:54:329434,-1,-1,0,7,1,0,-3,-1
16:24:54:336744,-1,-2,0,9,1,-1,-2,-3
16:24:54:344408,-1,-2,0,9,1,-1,-2,-3
16:24:54:351750,-1,0,-3,5,1,-2,-1,1
16:24:54:359400,1,0,-2,-10,1,-2,-2,-1
16:24:54:367509,1,0,-2,-10,1,-2,-2,-1
16:24:54:368355,0,2,1,4,1,3,2,-3
16:24:54:382518,-2,-4,-2,-11,-1,-1,-1,1
16:24:54:383376,-2,-4,-2,-11,-1,-1,-1,1
16:24:54:389379,-1,-1,3,0,0,-3,-2,-3
16:24:54:396755,-1,-1,0,21,5,4,1,0
16:24:54:404373,-1,-1,0,21,5,4,1,0
16:24:54:411900,-1,-2,1,2,-2,-1,-1,-1
16:24:54:419404,-1,-1,-2,-12,-3,-2,-3,-3
16:24:54:427540,-1,-1,-2,-12,-3,-2,-3,-3
16:24:54:428381,-1,1,-1,-1,6,4,5,2
16:24:54:442530,0,1,-3,10,3,2,1,-1
16:24:54:443382,0,1,-3,10,3,2,1,-1
16:24:54:449391,-2,-2,-4,-7,-5,-6,-6,-3
16:24:54:465003,-1,-2,-3,-2,-1,0,0,1
16:24:54:465864,-1,-2,-3,-2,-1,0,0,1
16:24:54:471736,-1,-6,-23,-23,-7,-4,-3,-3
16:24:54:479418,-4,-6,-19,-20,-14,-6,-4,-2
16:24:54:487502,-4,-6,-19,-20,-14,-6,-4,-2
16:24:54:488384,0,-1,4,1,-3,-1,-2,-1
16:24:54:502522,1,2,5,2,6,5,1,0
16:24:54:503381,1,2,5,2,6,5,1,0
16:24:54:509380,-2,1,1,3,-5,-6,-4,-2
16:24:54:516766,-1,0,5,2,4,3,3,1
16:24:54:524426,-1,0,5,2,4,3,3,1
16:24:54:531753,-1,1,8,7,0,0,-1,0
16:24:54:539374,0,1,4,-6,-1,-1,0,0
16:24:54:547522,0,1,4,-6,-1,-1,0,0
16:24:54:548383,0,0,5,-5,4,2,0,0
16:24:54:563129,-2,-1,-8,5,-2,-2,-2,-2
16:24:54:564004,-2,-1,-8,5,-2,-2,-2,-2
16:24:54:569388,0,-1,-5,-8,-2,-1,2,1
16:24:54:576894,-1,0,9,1,0,-4,-5,-1
16:24:54:584387,-1,0,9,1,0,-4,-5,-1
16:24:54:600015,-1,-1,-2,17,3,6,5,0
16:24:54:600742,-2,-2,2,11,-4,-3,-3,-2
16:24:54:607519,-2,-2,2,11,-4,-3,-3,-2
16:24:54:608391,-2,-1,1,-5,3,4,2,0
16:24:54:622899,-1,-1,-3,-3,3,-1,2,0
16:24:54:630004,-1,-1,-3,-3,3,-1,2,0
16:24:54:630882,1,-2,-11,1,-5,-6,-5,0
16:24:54:636771,1,1,5,-3,-2,2,0,-1
16:24:54:644432,1,1,5,-3,-2,2,0,-1
16:24:54:651880,-2,-3,-1,-3,-6,-4,-4,-2
16:24:54:660053,-1,-1,-9,-12,-5,-1,-2,-1
16:24:54:660751,-1,-1,-9,-12,-5,-1,-2,-1
16:24:54:666908,0,-2,5,47,8,4,2,0
16:24:54:682537,0,3,16,18,4,-1,-2,-1
16:24:54:683407,0,3,16,18,4,-1,-2,-1
16:24:54:689390,-3,0,9,6,-3,-4,-2,-3
16:24:54:696894,-3,-1,18,48,4,4,3,1
16:24:54:704378,-3,-1,18,48,4,4,3,1
16:24:54:711899,0,-2,-3,-28,-1,-5,-4,0
16:24:54:720010,0,-2,-11,-32,-7,-3,-3,-3
16:24:54:720882,0,-2,-11,-32,-7,-3,-3,-3
16:24:54:726746,-2,-1,-6,-3,-1,1,-2,-1
16:24:54:742509,-1,-1,-8,-5,-5,-9,-9,-3
16:24:54:743398,-1,-1,-8,-5,-5,-9,-9,-3
16:24:54:749373,-1,-1,-1,-9,-2,1,2,-1
16:24:54:756909,-1,-1,3,3,0,5,4,0
16:24:54:764383,-1,-1,3,3,0,5,4,0
16:24:54:771765,-1,2,5,-5,0,-6,-6,-3
16:24:54:779377,0,-2,-6,-9,-4,-5,-2,-2
16:24:54:787504,0,-2,-6,-9,-4,-5,-2,-2
16:24:54:788375,-2,-1,-2,8,-2,-4,0,-1
16:24:54:802492,1,-2,-5,-12,-8,-10,1,0
16:24:54:803379,1,-2,-5,-12,-8,-10,1,0
16:24:54:809367,0,0,-2,-9,1,1,2,0
16:24:54:825028,0,-3,-6,-14,-7,-4,-5,-1
16:24:54:825798,0,-3,-6,-14,-7,-4,-5,-1
16:24:54:831887,0,-1,-4,-5,2,-2,-3,-1
16:24:54:839411,0,-1,-6,-1,0,0,1,0
16:24:54:847526,0,-1,-6,-1,0,0,1,0
16:24:54:848390,-2,-2,-2,-3,-7,-9,-7,-3
16:24:54:862534,-3,-1,-14,-8,6,7,-1,-1
16:24:54:863367,-3,-1,-14,-8,6,7,-1,-1
16:24:54:877539,-1,0,0,-3,-3,-3,-3,-2
16:24:54:878364,1,-1,0,1,6,6,2,2
16:24:54:884372,1,-1,0,1,6,6,2,2
16:24:54:891910,-1,-1,1,2,7,10,8,2
16:24:54:908167,-2,0,0,-2,3,0,-1,-2
16:24:54:909034,-2,0,0,-2,3,0,-1,-2
16:24:54:909898,-1,-1,2,-5,-5,-8,-7,-3
16:24:54:922516,1,1,1,-5,-6,-1,-2,-2
16:24:54:923376,1,1,1,-5,-6,-1,-2,-2
16:24:54:937546,-1,-3,1,2,-7,-5,-3,-4
16:24:54:938266,0,0,4,7,10,2,1,2
16:24:54:944406,0,0,4,7,10,2,1,2
16:24:54:959931,0,-1,3,8,-2,-12,-4,0
16:24:54:960756,-2,-2,-1,0,6,6,6,0
16:24:54:967505,-2,-2,-1,0,6,6,6,0
16:24:54:968387,-2,-1,-6,-6,19,1,-3,-1
16:24:54:990635,-1,-2,-8,-12,-18,-7,-4,-2
16:24:54:991511,-1,-2,-8,-12,-18,-7,-4,-2
16:24:54:992250,0,-2,-5,-14,-22,-3,-3,-2
16:24:54:996868,-3,-3,2,-3,1,3,3,-1
16:24:55:4422,-3,-3,2,-3,1,3,3,-1
16:24:55:20066,-2,-2,-1,0,4,9,8,2
16:24:55:20752,-1,-1,5,-6,-11,-10,-5,-2
16:24:55:35371,-1,-1,5,-6,-11,-10,-5,-2
16:24:55:43151,-1,0,-1,2,7,10,6,1
16:24:55:44016,-2,-2,-2,2,1,-7,-5,-1
16:24:55:44914,-2,-2,-2,2,1,-7,-5,-1
16:24:55:49384,1,0,-3,-8,0,2,1,2
16:24:55:56871,0,1,-1,-7,-14,-2,-4,-3
16:24:55:72510,0,1,-1,-7,-14,-2,-4,-3
16:24:55:73427,0,-1,1,4,-5,7,2,1
16:24:55:79438,0,-3,-8,-15,14,8,2,1
16:24:55:86894,0,-3,-8,-15,14,8,2,1
16:24:55:103137,-3,-1,-2,-2,1,-6,-5,-3
16:24:55:104006,-2,-2,-7,-4,-8,-7,-4,-3
16:24:55:104883,-2,-2,-7,-4,-8,-7,-4,-3
16:24:55:109381,-2,-2,-14,-6,-11,-7,-6,-3
16:24:55:125027,-1,1,3,11,8,1,1,2
16:24:55:125923,-1,1,3,11,8,1,1,2
16:24:55:131775,0,0,3,4,0,1,1,-2
16:24:55:139399,-1,-1,2,4,3,-2,1,0
16:24:55:163913,-1,-1,2,4,3,-2,1,0
16:24:55:164640,0,1,0,0,-2,-1,-2,-2
16:24:55:165521,1,0,1,3,-4,-1,-1,-3
16:24:55:166388,1,0,1,3,-4,-1,-1,-3
16:24:55:169368,-1,-3,-1,-2,5,5,3,0
16:24:55:185500,-2,-2,-2,-8,-15,-4,-1,-1
16:24:55:186387,-2,-2,-2,-8,-15,-4,-1,-1
16:24:55:191801,0,0,0,3,11,8,4,2
16:24:55:207530,0,-1,-3,7,4,2,-1,-1
16:24:55:208406,0,-1,-3,7,4,2,-1,-1
16:24:55:214402,-1,-2,2,-6,-11,-8,-3,-2
16:24:55:222548,-2,0,4,10,-2,-1,-1,-1
16:24:55:223416,-2,0,4,10,-2,-1,-1,-1
16:24:55:229382,0,-2,-3,-2,0,-3,-3,-2
16:24:55:245004,-1,1,-2,-3,-1,-3,-2,-3
16:24:55:245760,-1,1,-2,-3,-1,-3,-2,-3
16:24:55:251899,-2,0,-2,2,2,3,2,0
16:24:55:267547,-3,-2,0,-3,-1,-2,-3,-2
16:24:55:268385,-3,-2,0,-3,-1,-2,-3,-2
16:24:55:274444,0,-1,-1,1,-4,-1,2,1
16:24:55:282511,1,0,-3,-1,3,0,-1,-2
16:24:55:283386,1,0,-3,-1,3,0,-1,-2
16:24:55:296783,-3,-1,-1,-8,-6,-10,-8,-6
16:24:55:305025,-2,-4,-2,6,3,-1,1,-1
16:24:55:305915,-2,-4,-2,6,3,-1,1,-1
16:24:55:320035,-1,-2,3,8,6,-4,-2,-2
16:24:55:320772,-2,-1,2,-4,-14,-10,-4,-2
16:24:55:326923,-2,-1,2,-4,-14,-10,-4,-2
16:24:55:334401,-2,-1,-2,-6,-4,-1,-3,-2
16:24:55:350635,0,-1,-3,-3,3,0,-1,-1
16:24:55:351498,0,-1,-3,-3,3,0,-1,-1
16:24:55:352363,0,0,-2,2,1,5,1,1
16:24:55:365013,2,1,5,-3,-5,-4,-4,0
16:24:55:365882,2,1,5,-3,-5,-4,-4,0
16:24:55:371766,2,1,0,-1,-5,-1,1,0
16:24:55:379430,-1,-1,-3,0,4,4,1,-2
16:24:55:386869,-1,-1,-3,0,4,4,1,-2
16:24:55:403142,1,2,-1,2,4,6,4,2
16:24:55:403997,0,-1,-1,2,3,2,-2,-2
16:24:55:404768,0,-1,-1,2,3,2,-2,-2
16:24:55:409443,-1,-1,-4,-5,-10,-8,-8,-3
16:24:55:441426,0,0,4,-3,-1,2,-1,0
16:24:55:442174,0,0,4,-3,-1,2,-1,0
16:24:55:443036,-5,-1,1,-3,-3,-2,-4,-2
16:24:55:443773,-2,-2,-1,-3,2,-3,1,-2
16:24:55:446879,-2,-2,-1,-3,2,-3,1,-2
16:24:55:454425,-2,-2,-3,-8,4,-1,-4,-3
16:24:55:462504,0,-1,-2,-1,-3,-4,-4,-1
16:24:55:463373,0,-1,-2,-1,-3,-4,-4,-1
16:24:55:469395,-1,-1,0,4,-1,0,2,0
16:24:55:485403,-1,-2,-17,-6,-6,1,0,1
16:24:55:492594,-1,-2,-17,-6,-6,1,0,1
16:24:55:493389,0,-2,-1,-1,-3,0,-1,-2
16:24:55:499412,-2,-1,-18,-30,0,0,2,2
16:24:55:515067,-2,-1,-18,-30,0,0,2,2
16:24:55:515892,-1,-3,-4,-7,-2,-1,-2,-1
16:24:55:522533,-1,-3,-4,-7,-2,-1,-2,-1
16:24:55:523391,-2,0,18,24,18,4,2,0
16:24:55:529432,-1,2,23,17,-11,-4,1,-2
16:24:55:545028,-1,2,23,17,-11,-4,1,-2
16:24:55:545889,-1,-4,-9,-36,-28,-9,-4,-2
16:24:55:551754,-4,-7,-34,-71,-27,-10,-5,-2
16:24:55:567514,-4,-7,-34,-71,-27,-10,-5,-2
16:24:55:568385,2,1,-30,36,26,22,18,7
16:24:55:574429,-2,7,24,13,-2,-7,-22,-19
16:24:55:582510,-2,7,24,13,-2,-7,-22,-19
16:24:55:583388,1,1,15,-18,0,-6,-7,-5
16:24:55:596758,0,-1,-6,11,10,7,9,3
16:24:55:605022,0,-1,-6,11,10,7,9,3
16:24:55:605906,-2,-2,7,12,0,1,-4,-1
16:24:55:611759,-2,-2,8,28,7,-2,-12,-3
16:24:55:627594,-2,-2,8,28,7,-2,-12,-3
16:24:55:628397,-2,0,5,-10,-8,-9,1,-1
16:24:55:634374,0,-2,-11,3,8,4,8,4
16:24:55:642578,0,-2,-11,3,8,4,8,4
16:24:55:643419,-2,0,5,-8,1,-2,1,0
16:24:55:656913,-1,-10,-27,5,1,1,4,2
16:24:55:665035,-1,-10,-27,5,1,1,4,2
16:24:55:665886,-1,-1,9,13,5,4,-6,-4
16:24:55:679419,0,3,1,2,1,-2,5,4
16:24:55:687517,0,3,1,2,1,-2,5,4
16:24:55:688376,1,-2,-4,7,-1,-2,0,-1
16:24:55:694437,-2,-2,-9,-5,4,-3,2,3
16:24:55:702527,-2,-2,-9,-5,4,-3,2,3
16:24:55:703410,-1,-1,5,-5,0,-1,-3,0
16:24:55:709408,-2,-1,0,-1,-21,-4,-3,-2
16:24:55:725040,-2,-1,0,-1,-21,-4,-3,-2
16:24:55:725787,-1,-3,-7,-30,-6,1,-1,0
16:24:55:731785,1,1,12,4,-9,-6,-1,-1
16:24:55:747528,1,1,12,4,-9,-6,-1,-1
16:24:55:748402,-2,-3,-11,2,-1,-2,-3,-3
16:24:55:754401,0,-1,4,-5,7,3,5,1
16:24:55:762549,0,-1,4,-5,7,3,5,1
16:24:55:763379,-1,1,4,11,-1,0,-3,-3
16:24:55:769375,-4,1,-1,-1,-9,-5,-3,-4
16:24:55:785010,-4,1,-1,-1,-9,-5,-3,-4
16:24:55:785749,-1,-1,-6,-19,22,4,1,1
16:24:55:791891,-3,0,1,-2,5,0,-2,-1
16:24:55:807580,-3,0,1,-2,5,0,-2,-1
16:24:55:808417,-4,2,5,4,-10,-5,-1,-2
16:24:55:814400,-1,-8,-3,24,7,-1,-2,1
16:24:55:822546,-1,-8,-3,24,7,-1,-2,1
16:24:55:823396,0,-6,4,17,-1,0,-1,-3
16:24:55:829406,-1,-15,3,7,-20,-3,-1,0
16:24:55:853154,-1,-15,3,7,-20,-3,-1,0
16:24:55:854020,-3,0,5,12,-34,-19,-5,-2
16:24:55:854773,3,9,-1,-15,4,0,-1,1
16:24:55:875658,3,9,-1,-15,4,0,-1,1
16:24:55:876512,2,-3,-2,-6,-13,-4,-3,-2
16:24:55:877284,-3,3,-1,-3,-1,-8,-8,-6
16:24:55:882516,-3,3,-1,-3,-1,-8,-8,-6
16:24:55:883401,0,8,-2,10,6,3,0,0
16:24:55:889418,2,3,-1,-9,12,6,1,0
16:24:55:905032,2,3,-1,-9,12,6,1,0
16:24:55:905762,-6,-3,-4,-6,-1,-1,-1,4
16:24:55:911890,1,-2,0,-6,-2,1,0,-2
16:24:55:927520,1,-2,0,-6,-2,1,0,-2
16:24:55:928405,1,-1,-1,-2,3,3,3,4
16:24:55:934394,0,1,-1,2,5,0,-1,3
16:24:55:942542,0,1,-1,2,5,0,-1,3
16:24:55:943441,2,-3,-1,9,31,6,1,2
16:24:55:956761,0,-4,-5,-13,2,1,-2,-7
16:24:55:965042,0,-4,-5,-13,2,1,-2,-7
16:24:55:965762,-2,-3,2,-1,-14,-7,-3,-1
16:24:55:971912,1,3,1,1,4,4,6,4
16:24:55:987534,1,3,1,1,4,4,6,4
16:24:55:988390,-1,0,-4,0,-4,-1,-2,-4
16:24:55:994412,-2,-1,-1,-3,-5,-4,-10,-2
16:24:56:2519,-2,-1,-1,-3,-5,-4,-10,-2
16:24:56:3398,-3,0,-1,-1,-1,0,-1,-2
16:24:56:9432,-4,-4,-4,-3,-3,-3,-2,-1
16:24:56:25049,-4,-4,-4,-3,-3,-3,-2,-1
16:24:56:25911,-1,0,-1,-1,-2,-3,-2,-3
16:24:56:31768,1,-1,-1,2,1,0,0,-2
16:24:56:47574,1,-1,-1,2,1,0,0,-2
16:24:56:48425,2,0,-4,-5,-1,6,5,2
16:24:56:63535,-2,-1,-2,1,6,0,0,1
16:24:56:64402,-2,-1,-2,1,6,0,0,1
16:24:56:69378,1,-1,3,-3,-6,-3,-3,-2
16:24:56:76806,-3,0,-1,1,-1,-1,-1,0
16:24:56:85024,-3,0,-1,1,-1,-1,-1,0
16:24:56:85889,-6,-6,0,2,0,-1,-1,-3
16:24:56:91802,8,2,13,2,-7,-7,-6,-3
16:24:56:107537,8,2,13,2,-7,-7,-6,-3
16:24:56:108388,1,2,12,4,2,5,4,3
16:24:56:114391,-5,-4,-2,-9,-7,-5,-3,-4
16:24:56:122518,-5,-4,-2,-9,-7,-5,-3,-4
16:24:56:123395,-1,0,9,-1,0,-2,-2,-2
16:24:56:136777,-1,1,6,-1,-2,0,3,1
16:24:56:153129,-1,1,6,-1,-2,0,3,1
16:24:56:154015,-4,-2,-2,8,-3,-4,-3,-2
16:24:56:154760,0,-3,-14,-2,-1,-1,-3,3
16:24:56:167530,0,-3,-14,-2,-1,-1,-3,3
16:24:56:168382,0,-6,-14,-2,3,1,-2,-3
16:24:56:174410,-3,1,13,3,-2,-2,2,-1
16:24:56:182509,-3,1,13,3,-2,-2,2,-1
16:24:56:183399,5,4,-6,-4,7,2,3,1
16:24:56:196833,-1,2,3,1,-1,2,2,0
16:24:56:205028,-1,2,3,1,-1,2,2,0
16:24:56:205773,-2,0,-2,5,-4,-3,-3,-3
16:24:56:211901,-4,1,3,7,5,3,1,0
16:24:56:227564,-4,1,3,7,5,3,1,0
16:24:56:228409,0,0,-15,-7,9,2,-2,-1
16:24:56:234392,1,0,-8,0,1,-1,1,1
16:24:56:242533,1,0,-8,0,1,-1,1,1
16:24:56:243390,3,3,3,-7,-10,-4,-1,4
16:24:56:265652,3,-1,-1,-5,0,1,0,0
16:24:56:266541,3,-1,-1,-5,0,1,0,0
16:24:56:267416,0,-1,-1,-1,-4,-4,0,2
16:24:56:271767,6,-2,-6,-1,1,1,0,-3
16:24:56:279414,6,-2,-6,-1,1,1,0,-3
16:24:56:286785,2,1,2,-1,-4,-8,-5,0
16:24:56:294440,-2,-8,4,-5,-1,-1,-2,-1
16:24:56:302525,-2,-8,4,-5,-1,-1,-2,-1
16:24:56:303419,-10,-3,0,-1,-2,1,-1,-8
16:24:56:316778,-4,8,0,1,1,2,8,20
16:24:56:325038,-4,8,0,1,1,2,8,20
16:24:56:325907,-31,-15,-3,1,3,-6,-13,-15
16:24:56:331778,-16,-3,-8,-3,1,-1,-2,-5
16:24:56:347522,-16,-3,-8,-3,1,-1,-2,-5
16:24:56:348382,9,2,0,1,-8,1,5,3
16:24:56:354418,0,-3,1,-9,-4,-1,-1,0
16:24:56:362559,0,-3,1,-9,-4,-1,-1,0
16:24:56:363395,4,2,-8,1,6,5,-1,-1
16:24:56:376797,4,0,-6,-5,-12,6,1,-2
16:24:56:385014,4,0,-6,-5,-12,6,1,-2
16:24:56:385904,1,0,-2,-6,-12,-5,-1,1
16:24:56:391808,2,-4,-5,0,3,-4,-4,-1
16:24:56:407522,2,-4,-5,0,3,-4,-4,-1
16:24:56:408413,3,0,0,1,-3,-4,-1,4
16:24:56:414416,-3,1,0,2,2,-2,-5,-10
16:24:56:430028,-3,1,0,2,2,-2,-5,-10
16:24:56:430770,2,-3,-4,-2,-1,-2,0,-3
16:24:56:436785,-1,-3,-3,-2,-4,-3,0,-3
16:24:56:445050,-1,-3,-3,-2,-4,-3,0,-3
16:24:56:445922,3,5,1,-2,-10,0,1,0
16:24:56:451789,-3,0,-2,0,-1,-2,-3,-2
16:24:56:459413,-3,0,-2,0,-1,-2,-3,-2
16:24:56:466783,14,18,1,-2,4,4,7,7
16:24:56:474415,0,2,0,1,8,-2,-3,-3
16:24:56:482515,0,2,0,1,8,-2,-3,-3
16:24:56:483397,4,-3,1,-2,3,-1,0,4
16:24:56:496799,1,-7,0,3,1,-1,-1,0
16:24:56:505031,1,-7,0,3,1,-1,-1,0
16:24:56:505899,-3,-6,-1,3,2,-2,-2,0
16:24:56:511824,-2,-8,-2,-2,-4,-2,0,0
16:24:56:519422,-2,-8,-2,-2,-4,-2,0,0
16:24:56:526828,-3,-9,-2,2,-8,-3,-2,-2
16:24:56:534417,1,5,-4,0,-2,-3,-1,-1
16:24:56:542569,1,5,-4,0,-2,-3,-1,-1
16:24:56:543433,-5,-2,0,-6,-9,-4,-5,-4
16:24:56:556819,3,7,0,2,3,-1,-1,-3
16:24:56:565026,3,7,0,2,3,-1,-1,-3
16:24:56:565884,-11,-6,-3,-4,6,3,-1,-6
16:24:56:571778,-3,1,-1,-2,-3,-1,-2,0
16:24:56:579425,-3,1,-1,-2,-3,-1,-2,0
16:24:56:586904,-1,0,-2,0,0,-2,-2,-1
16:24:56:594402,-2,-1,-1,-2,5,3,2,-3
16:24:56:602536,-2,-1,-1,-2,5,3,2,-3
16:24:56:603417,2,8,0,3,7,3,0,1
16:24:56:625649,5,-1,0,-13,-14,-2,-1,0
16:24:56:626525,5,-1,0,-13,-14,-2,-1,0
16:24:56:627449,-3,3,-2,-6,-3,-5,-2,-7
16:24:56:631779,-2,2,0,-2,-6,-2,0,0
16:24:56:639448,-2,2,0,-2,-6,-2,0,0
16:24:56:646767,-1,-5,-4,4,10,0,0,1
16:24:56:654399,1,-4,-6,2,11,-1,1,0
16:24:56:662559,1,-4,-6,2,11,-1,1,0
16:24:56:663400,-1,-5,-3,-3,-2,1,-3,-5
16:24:56:676815,-2,-2,-1,6,0,-1,-4,1
16:24:56:685033,-2,-2,-1,6,0,-1,-4,1
16:24:56:685916,-4,-2,1,0,4,-2,1,2
16:24:56:691797,-3,-1,-3,-2,21,3,-1,0
16:24:56:707548,-3,-1,-3,-2,21,3,-1,0
16:24:56:708409,3,-2,-1,-5,-5,0,-1,2
16:24:56:714419,-1,-8,-1,1,-11,-5,-1,-3
16:24:56:722522,-1,-8,-1,1,-11,-5,-1,-3
16:24:56:723394,-3,-1,3,-1,0,1,1,-6
16:24:56:736773,-1,-2,2,-1,-2,2,-1,1
16:24:56:745020,-1,-2,2,-1,-2,2,-1,1
16:24:56:745893,-2,-5,0,-2,-6,-2,-3,-1
16:24:56:751763,-1,-2,0,2,1,-2,-1,-2
16:24:56:759498,-1,-2,0,2,1,-2,-1,-2
16:24:56:766915,4,5,-3,-1,0,-1,-1,-1
16:24:56:774437,-2,-2,-3,-10,-11,-1,-3,0
16:24:56:782524,-2,-2,-3,-10,-11,-1,-3,0
16:24:56:783409,-7,-1,0,-1,0,-1,0,0
16:24:56:796781,-1,2,-3,-4,-5,-3,-2,-2
16:24:56:805036,-1,2,-3,-4,-5,-3,-2,-2
16:24:56:805813,1,-2,-2,-4,-2,-1,2,-1
16:24:56:811907,2,0,0,4,3,-2,-3,-3
16:24:56:819401,2,0,0,4,3,-2,-3,-3
16:24:56:826839,12,0,-2,-1,1,-4,-6,-1
16:24:56:834306,-1,3,-1,1,2,2,0,-4
16:24:56:842562,-1,3,-1,1,2,2,0,-4
16:24:56:843408,-1,-3,0,2,-1,0,0,1
16:24:56:856915,-2,-4,-2,-1,-2,-3,-1,1
16:24:56:865028,-2,-4,-2,-1,-2,-3,-1,1
16:24:56:865785,-6,-4,-1,0,2,1,2,4
16:24:56:871774,-3,5,-1,1,-2,-1,-1,0
16:24:56:879455,-3,5,-1,1,-2,-1,-1,0
16:24:56:886778,-5,-1,0,-3,-2,-1,-3,-8
16:24:56:894425,-2,-3,-1,-5,-9,1,0,-2
16:24:56:902535,-2,-3,-1,-5,-9,1,0,-2
16:24:56:903407,-1,-1,0,-3,-6,-5,-4,1
16:24:56:916784,-3,-1,2,2,-7,-1,2,1
16:24:56:925066,-3,-1,2,2,-7,-1,2,1
16:24:56:925940,-2,1,-1,-1,-2,0,1,1
16:24:56:931787,-1,-1,0,4,-6,-9,-4,0
16:24:56:939423,-1,-1,0,4,-6,-9,-4,0
16:24:56:946784,6,4,-1,4,9,1,0,0
16:24:56:954419,-1,-3,-2,-4,-8,-2,-2,-3
16:24:56:961910,-1,-3,-2,-4,-8,-2,-2,-3
16:24:56:969414,-3,-1,-2,-2,-3,0,1,-1
16:24:56:985652,0,1,0,2,8,4,2,-1
16:24:56:986516,0,1,0,2,8,4,2,-1
16:24:56:987400,-3,-1,-2,0,2,-4,-4,-1
16:24:57:35,-1,-1,-1,0,-2,1,1,0
16:24:57:888,-1,-1,-1,0,-2,1,1,0
16:24:57:6774,-2,-3,-3,-1,20,5,3,-5
16:24:57:14410,-1,-1,-1,-6,3,-3,-4,-1
16:24:57:21890,-1,-1,-1,-6,3,-3,-4,-1
16:24:57:29430,2,-2,1,-2,-6,2,2,3
16:24:57:36772,-2,2,-2,-1,4,0,-1,-2
16:24:57:45016,-2,2,-2,-1,4,0,-1,-2
16:24:57:45907,-10,0,-1,-2,-8,-2,-3,-1
16:24:57:59785,-9,-2,-2,0,-2,-2,-1,-3
16:24:57:67530,-9,-2,-2,0,-2,-2,-1,-3
16:24:57:68395,1,-2,-1,-1,-9,-3,-2,-1
16:24:57:74433,1,-4,0,3,0,1,2,-4
16:24:57:81910,1,-4,0,3,0,1,2,-4
16:24:57:90035,-1,-1,0,2,0,1,-2,-1
16:24:57:96767,4,1,-2,-2,0,-3,0,-1
16:24:57:105050,4,1,-2,-2,0,-3,0,-1
16:24:57:105799,0,-1,-1,-1,-3,-5,-4,-1
16:24:57:120046,14,6,0,-4,-13,1,-4,1
16:24:57:120909,14,6,0,-4,-13,1,-4,1
16:24:57:126791,-1,-1,-2,-4,-6,-3,-3,-2
16:24:57:134474,-4,-3,0,2,4,-3,2,0
16:24:57:141935,-4,-3,0,2,4,-3,2,0
16:24:57:149392,-1,0,0,0,-1,-2,-1,-2
16:24:57:156944,-5,-3,-1,-1,0,0,-1,0
16:24:57:173751,-5,-3,-1,-1,0,0,-1,0
16:24:57:180696,0,-1,-1,-2,-1,-1,1,4
16:24:57:181393,-4,-5,-1,1,7,3,0,1
16:24:57:182279,-4,-5,-1,1,7,3,0,1
16:24:57:186917,-1,-1,0,0,-2,-1,-2,-3
16:24:57:194455,0,-3,-3,6,8,1,1,0
16:24:57:210056,0,-3,-3,6,8,1,1,0
16:24:57:210897,-2,-2,-2,-1,-2,-4,-2,1
16:24:57:216797,-3,0,-2,-2,-2,-1,-1,0
16:24:57:225048,-3,0,-2,-2,-2,-1,-1,0
16:24:57:225810,1,1,0,-1,-2,0,-1,-3
16:24:57:240395,-9,-5,-1,-5,-4,-4,-2,-2
16:24:57:241284,-9,-5,-1,-5,-4,-4,-2,-2
16:24:57:246780,-1,-2,-2,-2,-2,-1,2,-1
16:24:57:262570,1,2,0,-1,1,1,0,1
16:24:57:263419,1,2,0,-1,1,1,0,1
16:24:57:269414,-4,-3,0,0,0,1,-1,-1
16:24:57:276803,0,0,-1,-2,1,-3,-2,-1
16:24:57:292538,0,0,-1,-2,1,-3,-2,-1
16:24:57:293403,0,1,0,-1,-3,-3,0,-3
16:24:57:300103,-2,-2,-2,0,-2,-1,-4,-2
16:24:57:300923,-2,-2,-2,0,-2,-1,-4,-2
16:24:57:306817,-1,-3,-3,-3,-2,-2,-3,1
16:24:57:322549,-1,-4,-1,5,10,-3,-3,-3
16:24:57:323435,-1,-4,-1,5,10,-3,-3,-3
16:24:57:329433,-3,-2,0,0,-7,-1,0,0
16:24:57:345689,0,2,-1,-1,-11,-2,-1,-1
16:24:57:346514,0,2,-1,-1,-11,-2,-1,-1
16:24:57:347391,-1,-2,-2,-1,0,-1,-2,-1
16:24:57:360111,1,1,0,-3,-7,-4,-1,-3
16:24:57:360802,1,1,0,-3,-7,-4,-1,-3
16:24:57:366777,0,1,-1,1,1,3,1,-2
16:24:57:374313,1,0,0,-2,1,-1,-1,0
16:24:57:381894,1,0,0,-2,1,-1,-1,0
16:24:57:389304,-3,0,-2,-1,1,-1,-1,-7
16:24:57:396783,-1,1,1,3,8,5,3,0
16:24:57:405037,-1,1,1,3,8,5,3,0
16:24:57:405914,0,-2,-1,-3,-2,-4,-1,0
16:24:57:419301,-3,-2,-3,-4,-3,3,1,0
16:24:57:427966,-3,-2,-3,-4,-3,3,1,0
16:24:57:435044,4,3,0,-4,-6,0,0,-1
16:24:57:435805,-3,-1,0,-3,-2,-2,-1,-1
16:24:57:441930,-3,-1,0,-3,-2,-2,-1,-1
16:24:57:457436,-4,-3,-1,0,0,-3,-2,2
16:24:57:458297,2,-1,0,-3,-4,-1,-2,-1
16:24:57:465026,2,-1,0,-3,-4,-1,-2,-1
16:24:57:465915,-4,-1,-2,-1,-1,-3,-2,-2
16:24:57:488195,-1,-2,-2,-2,1,1,2,1
16:24:57:489037,-1,-2,-2,-2,1,1,2,1
16:24:57:489795,3,0,-1,4,29,8,4,2
16:24:57:494452,0,-3,-2,-1,-5,-4,-3,-1
16:24:57:501907,0,-3,-2,-1,-5,-4,-3,-1
16:24:57:517549,-1,-1,-1,2,-8,-1,1,0
16:24:57:518296,-2,0,0,-1,0,-3,-3,-1
16:24:57:525057,-2,0,0,-1,0,-3,-3,-1
16:24:57:525801,0,0,0,-3,-1,-2,-2,-2
16:24:57:539781,-2,-1,-1,-4,-10,-4,-1,-2
16:24:57:547533,-2,-1,-1,-4,-10,-4,-1,-2
16:24:57:548391,-3,-2,0,3,0,0,-2,0
16:24:57:554409,1,-1,-2,-3,-1,-3,-2,-1
16:24:57:570041,1,-1,-2,-3,-1,-3,-2,-1
16:24:57:570922,0,0,0,-3,-3,1,0,0
16:24:57:576794,0,-1,-1,1,1,-1,3,2
16:24:57:585017,0,-1,-1,1,1,-1,3,2
16:24:57:585901,0,-2,-2,-2,-4,-1,-1,1
16:24:57:599406,-3,-2,0,-1,-2,-3,-4,-2
16:24:57:607519,-3,-2,0,-1,-2,-3,-4,-2
16:24:57:608389,-3,-1,1,0,-1,0,3,1
16:24:57:622556,-5,0,-1,0,1,2,2,-3
16:24:57:623446,-5,0,-1,0,1,2,2,-3
16:24:57:629491,1,0,-2,-2,-6,-4,-2,-1
16:24:57:636788,0,-2,0,-1,1,1,-2,-9
16:24:57:645033,0,-2,0,-1,1,1,-2,-9
16:24:57:645928,-5,-3,-1,-2,-4,-5,-5,-2
16:24:57:659334,-2,-2,-1,-2,2,0,-2,-1
16:24:57:667561,-2,-2,-1,-2,2,0,-2,-1
16:24:57:668413,-2,-1,-1,1,-4,-5,-2,-4
16:24:57:682556,-2,-1,-3,-1,0,7,2,1
16:24:57:683427,-2,-1,-3,-1,0,7,2,1
16:24:57:689362,-1,-2,-2,0,-2,5,1,1
16:24:57:696794,1,0,-2,-3,-6,-3,-3,-2
16:24:57:705444,1,0,-2,-3,-6,-3,-3,-2
16:24:57:711803,-1,0,-3,-2,3,-2,-2,-1
16:24:57:719425,-2,-1,-2,0,1,-3,-4,1
16:24:57:735674,-2,-1,-2,0,1,-3,-4,1
16:24:57:736536,-1,-1,1,-2,-1,-3,-3,-5
16:24:57:737319,1,-1,0,1,1,1,2,2
16:24:57:741959,1,-1,0,1,1,1,2,2
16:24:57:749427,4,-1,-1,-1,1,3,3,2
16:24:57:756837,-2,0,-1,0,1,-1,-1,-5
16:24:57:765040,-2,0,-1,0,1,-1,-1,-5
16:24:57:765916,3,-4,-2,1,1,-1,0,1
16:24:57:779314,-2,-2,0,0,-1,-4,-2,0
16:24:57:795683,-2,-2,0,0,-1,-4,-2,0
16:24:57:796539,-1,-2,0,1,5,1,1,0
16:24:57:797290,1,-1,-1,0,-3,-1,2,1
16:24:57:818202,1,-1,-1,0,-3,-1,2,1
16:24:57:819046,-1,0,-1,-5,-8,-1,-2,0
16:24:57:819808,0,-1,-2,2,3,-6,-4,-4
16:24:57:825048,0,-1,-2,2,3,-6,-4,-4
16:24:57:825787,0,2,0,3,10,6,4,-1
16:24:57:848190,-7,-4,-2,-6,-11,-6,-3,-3
16:24:57:849068,-7,-4,-2,-6,-11,-6,-3,-3
16:24:57:849790,-4,-2,0,-2,-3,-5,-6,0
16:24:57:854290,0,1,1,-3,0,0,-2,1
16:24:57:861897,0,1,1,-3,0,0,-2,1
16:24:57:869461,-1,0,-1,-2,-8,-4,-5,-4
16:24:57:876802,0,0,-2,-1,-1,-1,-2,-2
16:24:57:885080,0,0,-2,-1,-1,-1,-2,-2
16:24:57:885947,2,2,-1,-1,2,3,3,-2
16:24:57:899275,1,1,-1,-3,2,-1,1,0
16:24:57:907551,1,1,-1,-3,2,-1,1,0
16:24:57:908458,-1,-1,-1,-1,1,-1,-2,-2
16:24:57:930679,-1,-1,0,-1,-5,-3,-2,1
16:24:57:931545,-1,-1,0,-1,-5,-3,-2,1
16:24:57:932284,-4,-2,-2,0,2,1,-1,1
16:24:57:936786,-3,-1,-3,0,1,-3,-4,-6
16:24:57:944462,-3,-1,-3,0,1,-3,-4,-6
16:24:57:960114,-1,0,-1,0,-2,-3,-1,-2
16:24:57:960827,0,-1,-2,1,-2,2,3,2
16:24:57:967561,0,-1,-2,1,-2,2,3,2
16:24:57:968428,-3,-1,-1,1,2,-4,-4,-4
16:24:57:982570,-4,-2,0,1,4,5,4,1
16:24:57:983401,-4,-2,0,1,4,5,4,1
16:24:57:989447,0,-2,-2,-2,-6,-1,0,0
16:24:57:996790,1,1,0,2,2,-2,-4,-1
16:24:58:12571,1,1,0,2,2,-2,-4,-1
16:24:58:13421,-1,2,-1,-3,-5,-5,-2,-1
16:24:58:19406,0,-1,-2,0,-3,-2,-1,-3
16:24:58:27559,0,-1,-2,0,-3,-2,-1,-3
16:24:58:28303,0,-2,0,1,0,0,0,-1
16:24:58:42541,0,-4,-1,-4,-6,-3,-3,0
16:24:58:43424,0,-4,-1,-4,-6,-3,-3,0
16:24:58:49415,1,-2,-1,3,0,-1,-2,0
16:24:58:56789,-3,-2,0,-3,-4,-1,-4,0
16:24:58:64433,-3,-2,0,-3,-4,-1,-4,0
16:24:58:71811,-2,-2,-2,-2,-2,6,5,2
16:24:58:79467,-2,-1,-2,-1,-3,-1,-2,-14
16:24:58:95050,-2,-1,-2,-1,-3,-1,-2,-14
16:24:58:95933,-2,-1,-2,-5,-5,-1,-3,-3
16:24:58:102544,2,0,-1,-1,-2,-5,-2,2
16:24:58:103275,2,0,-1,-1,-2,-5,-2,2
16:24:58:109425,-2,-2,-1,0,2,0,-1,0
16:24:58:125084,3,1,-1,0,0,5,4,-1
16:24:58:125925,3,1,-1,0,0,5,4,-1
16:24:58:131805,0,-1,0,-2,-3,-4,-4,-3
16:24:58:139447,-2,-2,-1,-2,0,-2,-3,3
16:24:58:155062,-2,-2,-1,-2,0,-2,-3,3
16:24:58:155803,-1,-1,0,-3,-7,-4,-2,-3
16:24:58:162569,0,0,-1,-1,1,3,2,1
16:24:58:163416,0,0,-1,-1,1,3,2,1
16:24:58:169422,-2,-1,0,0,0,-1,-1,-1
16:24:58:176803,-2,-2,-2,-2,-2,-7,-4,0
16:24:58:184479,-2,-2,-2,-2,-2,-7,-4,0
16:24:58:191808,-1,-2,-1,-2,-1,1,0,-1
16:24:58:208207,-8,0,1,1,-1,1,1,-1
16:24:58:209064,-8,0,1,1,-1,1,1,-1
16:24:58:209779,3,0,-2,-2,-4,-3,-2,3
16:24:58:222567,3,1,0,2,8,5,6,-1
16:24:58:223407,3,1,0,2,8,5,6,-1
16:24:58:229439,-4,-1,-1,-1,-1,-1,0,0
16:24:58:236788,0,-1,-1,-5,-4,-3,-4,1
16:24:58:244469,0,-1,-1,-5,-4,-3,-4,1
16:24:58:251789,0,1,-1,-1,6,3,0,-3
16:24:58:268160,0,-1,-1,0,0,-2,-2,-2
16:24:58:269055,0,-1,-1,0,0,-2,-2,-2
16:24:58:269787,-1,-1,-2,-3,-2,-5,-4,-1
16:24:58:282562,1,0,0,0,-3,0,-4,2
16:24:58:283452,1,0,0,0,-3,0,-4,2
16:24:58:289319,0,-2,-1,0,0,0,-1,-2
16:24:58:296786,0,1,1,-1,3,3,2,1
16:24:58:304440,0,1,1,-1,3,3,2,1
16:24:58:319914,-1,0,-1,-2,-3,-2,-5,-1
16:24:58:320796,-1,-2,-2,-2,-3,-2,-2,1
16:24:58:327569,-1,-2,-2,-2,-3,-2,-2,1
16:24:58:328429,5,0,-3,-1,-1,-1,1,0
16:24:58:350679,1,0,1,-1,-6,-4,-3,-2
16:24:58:351538,1,0,1,-1,-6,-4,-3,-2
16:24:58:352401,-2,-1,-1,-1,-4,-7,-5,-4
16:24:58:356803,-1,0,0,3,3,9,0,-8
16:24:58:372539,-1,0,0,3,3,9,0,-8
16:24:58:373404,-2,-1,0,-5,-4,-3,-1,-3
16:24:58:379473,-1,-3,-2,-1,-2,-5,-1,0
16:24:58:387549,-1,-3,-2,-1,-2,-5,-1,0
16:24:58:388417,-2,-1,0,0,0,-2,0,-2
16:24:58:402560,-1,1,-2,-4,-8,-5,-3,-1
16:24:58:403434,-1,1,-2,-4,-8,-5,-3,-1
16:24:58:409430,-3,-1,-2,3,6,5,4,1
16:24:58:416809,-1,-2,-1,0,1,6,5,3
16:24:58:432532,-1,-2,-1,0,1,6,5,3
16:24:58:433396,-2,-2,-2,-3,-5,-4,-2,-3
16:24:58:439299,-1,-1,-3,0,-1,-3,-2,-1
16:24:58:455046,-1,-1,-3,0,-1,-3,-2,-1
16:24:58:455796,-3,-1,-2,-5,-1,2,2,0
16:24:58:462585,-1,-3,-2,-1,-1,-6,-2,0
16:24:58:463418,-1,-3,-2,-1,-1,-6,-2,0
16:24:58:469281,0,-1,1,0,-1,1,0,-2
16:24:58:485054,-2,-1,-2,-1,5,0,-1,-1
16:24:58:485781,-2,-1,-2,-1,5,0,-1,-1
16:24:58:491802,-2,0,-1,1,-1,-2,-2,0
16:24:58:499321,-5,-1,-2,-3,-4,-5,-4,-4
16:24:58:507950,-5,-1,-2,-3,-4,-5,-4,-4
16:24:58:514301,0,-2,1,3,4,5,7,2
16:24:58:522556,1,0,-1,-2,10,4,1,-1
16:24:58:523425,1,0,-1,-2,10,4,1,-1
16:24:58:529434,-2,0,-1,0,-2,-5,-5,-2
16:24:58:536809,0,-2,-3,-1,-6,-2,-2,-2
16:24:58:544439,0,-2,-3,-1,-6,-2,-2,-2
16:24:58:551785,0,0,-1,5,1,-1,-2,0
16:24:58:559444,0,-2,0,0,-1,-4,-3,-1
16:24:58:567562,0,-2,0,0,-1,-4,-3,-1
16:24:58:568290,-2,-1,-3,-1,-1,-1,-1,-2
16:24:58:582545,-1,-1,1,-1,-4,-3,-3,0
16:24:58:583409,-1,-1,1,-1,-4,-3,-3,0
16:24:58:597432,0,0,0,-2,-3,-4,-4,-1
16:24:58:598290,-1,0,-1,-1,-1,0,-2,0
16:24:58:604427,-1,0,-1,-1,-1,0,-2,0
16:24:58:611835,-1,-2,-2,-1,-2,2,1,0
16:24:58:628241,0,-1,-1,0,1,-1,-1,-1
16:24:58:629032,0,-1,-1,0,1,-1,-1,-1
16:24:58:629789,0,-2,-1,-2,1,-1,-1,-2
16:24:58:650683,0,-1,-1,-3,-4,-4,-1,-2
16:24:58:651422,0,-1,-1,-3,-4,-4,-1,-2
16:24:58:652310,1,-1,0,-4,-3,-2,-2,-1
16:24:58:656826,0,-1,-1,1,-1,2,0,-1
16:24:58:664438,0,-1,-1,1,-1,2,0,-1
16:24:58:671816,-7,-2,-1,0,-1,0,2,0
16:24:58:679346,-2,1,-1,0,14,2,-1,-1
16:24:58:687559,-2,1,-1,0,14,2,-1,-1
16:24:58:688453,1,-2,-2,-4,-2,-5,-4,-1
16:24:58:710694,-1,0,-2,0,-5,-3,1,2
16:24:58:711587,-1,0,-2,0,-5,-3,1,2
16:24:58:712443,-2,-1,-1,-1,-2,-2,-5,-6
16:24:58:716790,0,-1,1,-3,-5,-5,-1,-2
16:24:58:732591,0,-1,1,-3,-5,-5,-1,-2
16:24:58:733482,0,0,-1,0,1,4,3,1
16:24:58:739419,0,-3,-2,-1,-3,1,1,-1
16:24:58:747550,0,-3,-2,-1,-3,1,1,-1
16:24:58:748426,-2,-1,-1,0,2,2,1,-1
16:24:58:762580,-2,-2,-1,-1,-3,-3,-3,-2
16:24:58:763432,-2,-2,-1,-1,-3,-3,-3,-2
16:24:58:769400,2,0,-1,-1,-2,0,-1,0
16:24:58:776833,-2,1,-2,0,-2,-2,-1,-5
16:24:58:784416,-2,1,-2,0,-2,-2,-1,-5
16:24:58:791823,0,-2,-1,-2,-2,-2,-2,0
16:24:58:799430,-6,-3,-1,-2,-2,1,-3,-4
16:24:58:807560,-6,-3,-1,-2,-2,1,-3,-4
16:24:58:808309,1,-1,0,-2,-3,-3,0,1
16:24:58:822945,0,-2,-2,1,-1,-3,-1,-1
16:24:58:823805,0,-2,-2,1,-1,-3,-1,-1
16:24:58:829443,-2,0,-1,1,3,1,-2,-1
16:24:58:836807,0,2,-2,-2,-1,-1,-1,-1
16:24:58:844455,0,2,-2,-2,-1,-1,-1,-1
16:24:58:851792,-3,-1,-1,0,-3,-3,-4,-2
16:24:58:859453,0,-3,-2,-2,-2,2,2,0
16:24:58:875082,0,-3,-2,-2,-2,2,2,0
16:24:58:875928,0,0,-3,-2,0,-2,0,-2
16:24:58:882569,-1,0,-1,0,-3,-3,-2,1
16:24:58:883298,-1,0,-1,0,-3,-3,-2,1
16:24:58:889437,0,-1,-2,2,3,3,1,1
16:24:58:905070,0,0,0,-1,-1,0,-1,-1
16:24:58:905967,0,0,0,-1,-1,0,-1,-1
16:24:58:911795,-3,0,-1,-2,-5,-8,-4,-4
16:24:58:919411,1,-2,-1,-1,-1,2,1,1
16:24:58:926824,1,-2,-1,-1,-1,2,1,1
16:24:58:934420,-1,-2,-2,0,1,2,0,-1
16:24:58:942594,-2,-1,-2,-1,-3,-2,-3,2
16:24:58:943442,-2,-1,-2,-1,-3,-2,-3,2
16:24:58:956805,-2,-1,-1,-1,-3,-2,0,-1
16:24:58:965081,1,-2,-2,1,2,0,0,1
16:24:58:965835,1,-2,-2,1,2,0,0,1
16:24:58:971802,0,-3,0,-1,1,1,4,0
16:24:58:987545,-3,-1,-1,1,-1,1,-1,-5
16:24:58:988423,-3,-1,-1,1,-1,1,-1,-5
16:24:58:994436,-2,-1,-1,-1,-2,-2,-3,-3
16:24:59:10684,-1,2,-1,4,5,5,5,0
16:24:59:11598,-1,2,-1,4,5,5,5,0
16:24:59:12441,-1,-1,-2,-3,-4,-5,-5,-1
16:24:59:25061,-1,-1,-1,-4,2,-3,-3,-1
16:24:59:25792,-1,-1,-1,-4,2,-3,-3,-1
16:24:59:31799,-1,-1,-1,1,0,-1,-3,-3
16:24:59:39298,-2,-3,0,0,-4,-5,-1,0
16:24:59:46924,-2,-3,0,0,-4,-5,-1,0
16:24:59:54426,-1,-4,-1,-3,-1,0,-2,-1
16:24:59:62569,-1,-3,-1,-1,-1,3,-3,-6
16:24:59:63287,-1,-3,-1,-1,-1,3,-3,-6
16:24:59:69403,-3,-1,-2,-3,-1,0,0,-1
16:24:59:85052,-1,-1,0,-2,-5,-3,0,1
16:24:59:85921,-1,-1,0,-2,-5,-3,0,1
16:24:59:91820,3,2,0,1,2,2,1,1
16:24:59:99442,-3,-3,-2,-4,-4,-6,-3,-2
16:24:59:106822,-3,-3,-2,-4,-4,-6,-3,-2
16:24:59:123213,-3,0,1,-1,-2,-2,-1,0
16:24:59:123927,-1,2,-1,-1,-2,1,1,3
16:24:59:124825,-1,2,-1,-1,-2,1,1,3
16:24:59:129465,-2,-2,-3,1,9,0,-1,-1
16:24:59:153174,0,-1,-2,-1,-5,-4,-2,-2
16:24:59:154060,0,-1,-2,-1,-5,-4,-2,-2
16:24:59:154807,0,1,0,3,1,3,-1,-2
16:24:59:159317,-1,0,-2,0,-1,-4,-1,0
16:24:59:166927,-1,0,-2,0,-1,-4,-1,0
16:24:59:174328,0,-3,-2,-2,-2,3,1,2
16:24:59:182571,-1,-1,-1,-1,-2,-2,-1,-5
16:24:59:183418,-1,-1,-1,-1,-2,-2,-1,-5
16:24:59:189419,-1,0,0,-1,-3,-2,-2,-1
16:24:59:205062,0,0,0,-2,1,1,3,2
16:24:59:205786,0,0,0,-2,1,1,3,2
16:24:59:211793,1,-2,-1,-3,-6,-3,-1,-1
16:24:59:219298,0,-1,0,2,6,2,-1,1
16:24:59:235058,0,-1,0,2,6,2,-1,1
16:24:59:235799,-2,-1,-2,-1,-1,-2,-2,-1
16:24:59:242566,-1,-3,-1,-4,-2,0,-1,-1
16:24:59:243425,-1,-3,-1,-4,-2,0,-1,-1
16:24:59:249391,1,1,-2,-1,-3,-1,1,0
16:24:59:265074,-2,0,-1,-1,0,4,1,-3
16:24:59:265839,-2,0,-1,-1,0,4,1,-3
16:24:59:271811,-5,-2,-1,1,-1,-3,-2,-1
16:24:59:287544,-1,-1,-1,-2,-2,-3,-5,1
16:24:59:288435,-1,-1,-1,-2,-2,-3,-5,1
16:24:59:294452,1,0,-3,-6,-2,-2,0,-1
16:24:59:302543,-4,-3,-1,-1,-5,-4,-2,-1
16:24:59:303414,-4,-3,-1,-1,-5,-4,-2,-1
16:24:59:316813,0,0,-1,0,-1,-2,-3,-3
16:24:59:325059,-1,-1,-1,-4,-1,1,0,0
16:24:59:325820,-1,-1,-1,-4,-1,1,0,0
16:24:59:331808,-2,-1,-1,-2,-3,-2,-1,-4
16:24:59:347437,0,-1,1,0,-3,1,0,0
16:24:59:348334,0,-1,1,0,-3,1,0,0
16:24:59:354453,-1,-2,-2,1,-1,-3,-1,0
16:24:59:362599,-1,-1,-3,3,3,-2,-1,-2
16:24:59:363422,-1,-1,-3,3,3,-2,-1,-2
16:24:59:376814,0,0,-2,-3,-2,-2,-2,-1
16:24:59:385449,-3,-2,-1,-6,-8,-5,-3,-2
16:24:59:400696,-3,-2,-1,-6,-8,-5,-3,-2
16:24:59:401559,-1,0,-1,-3,-5,2,-1,-1
16:24:59:402417,1,1,-3,1,0,-1,-1,-3
16:24:59:406950,1,1,-3,1,0,-1,-1,-3
16:24:59:414421,-2,-4,0,-1,0,0,-1,-5
16:24:59:430703,-2,-2,0,-2,-1,-3,-1,1
16:24:59:431543,-2,-2,0,-2,-1,-3,-1,1
16:24:59:432426,1,1,-2,-6,7,5,0,1
16:24:59:445073,-1,0,0,2,2,-2,-2,-2
16:24:59:445810,-1,0,0,2,2,-2,-2,-2
16:24:59:451804,-2,-2,0,1,-2,-1,-2,-1
16:24:59:459362,0,-2,-1,0,2,0,0,0
16:24:59:466942,0,-2,-1,0,2,0,0,0
16:24:59:474354,-1,0,-2,-1,3,-3,-1,-2
16:24:59:482553,1,1,-1,-1,-2,-2,-2,1
16:24:59:483425,1,1,-1,-1,-2,-2,-2,1
16:24:59:489442,0,-2,-1,1,-6,-6,-2,-2
16:24:59:505068,1,-1,-1,-1,-1,3,2,1
16:24:59:505806,1,-1,-1,-1,-1,3,2,1
16:24:59:511809,-1,2,-1,1,-4,-3,-1,2
16:24:59:527324,-1,2,-1,1,-4,-3,-1,2
16:24:59:543830,1,2,-2,-2,0,0,-3,-2
16:24:59:544680,0,-3,-1,-1,-4,-1,-2,-1
16:24:59:545428,0,-3,-1,-1,-4,-1,-2,-1
16:24:59:546327,0,0,-2,0,0,-1,-2,-2
16:24:59:549319,-1,0,0,0,2,0,-1,0
16:24:59:565064,-1,0,0,0,2,0,-1,0
16:24:59:565811,0,-1,0,0,1,2,1,0
16:24:59:571800,-2,-1,-3,0,1,1,1,0
16:24:59:595684,-2,-1,-3,0,1,1,1,0
16:24:59:596544,-2,-1,-1,-3,-3,-1,-3,-1
16:24:59:597418,1,-2,-2,-1,-1,0,0,0
16:24:59:602535,1,-2,-2,-1,-1,0,0,0
16:24:59:603435,1,-4,1,4,6,6,7,2
16:24:59:609437,-1,-2,0,-4,-9,-4,-1,0
16:24:59:625080,-1,-2,0,-4,-9,-4,-1,0
16:24:59:625862,-2,-1,-1,-1,-1,-4,0,1
16:24:59:631795,0,0,-1,0,-1,-4,-5,-3
16:24:59:647590,0,0,-1,0,-1,-4,-5,-3
16:24:59:648439,-1,-1,0,-7,-11,-3,-3,-2
16:24:59:654293,-2,1,-3,-4,6,0,0,-2
16:24:59:662567,-2,1,-3,-4,6,0,0,-2
16:24:59:663425,-1,-1,-2,-2,-4,1,0,-3
16:24:59:676847,-1,-1,2,2,0,2,0,1
16:24:59:685057,-1,-1,2,2,0,2,0,1
16:24:59:685816,-1,-1,-1,-1,-1,-4,-5,-2
16:24:59:691810,-1,-1,-1,2,1,-1,-3,-3
16:24:59:707568,-1,-1,-1,2,1,-1,-3,-3
16:24:59:708442,-2,-1,-3,-1,-3,-6,-4,-2
16:24:59:714326,-1,-2,-1,-6,-3,1,0,-2
16:24:59:722573,-1,-2,-1,-6,-3,1,0,-2
16:24:59:723426,-5,1,-1,-2,0,-2,-2,0
16:24:59:729307,1,-2,-3,0,-1,-1,-1,2
16:24:59:745058,1,-2,-3,0,-1,-1,-1,2
16:24:59:745813,-3,-4,-2,0,3,5,0,-6
16:24:59:751811,0,-1,-1,2,-2,1,1,2
16:24:59:767562,0,-1,-1,2,-2,1,1,2
16:24:59:768429,0,0,0,1,1,-1,3,1
16:24:59:774307,-2,-2,-2,-1,-6,-7,-2,-3
16:24:59:790799,-2,-2,-2,-1,-6,-7,-2,-3
16:24:59:791498,0,-3,0,-4,-4,2,2,-2
16:24:59:792300,-1,-1,-2,-1,-7,-2,-1,-2
16:24:59:805044,-1,-1,-2,-1,-7,-2,-1,-2
16:24:59:805800,0,0,0,2,7,1,-1,-1
16:24:59:819344,-2,-2,-1,2,2,1,0,-1
16:24:59:827567,-2,-2,-1,2,2,1,0,-1
16:24:59:828441,0,0,-1,-5,-7,-5,-4,-4
16:24:59:843205,-2,-1,1,0,4,0,0,-3
16:24:59:844081,-2,-1,1,0,4,0,0,-3
16:24:59:844810,1,0,-2,-2,-1,-5,-3,1
16:24:59:856830,0,-1,1,-4,-1,-2,-3,1
16:24:59:873169,0,-1,1,-4,-1,-2,-3,1
16:24:59:873930,-1,-1,0,2,2,-4,-2,0
16:24:59:874855,0,-1,0,1,-1,0,1,2
16:24:59:887565,0,-1,0,1,-1,0,1,2
16:24:59:888433,-2,-2,-1,3,1,-2,-1,1
16:24:59:894446,-3,-2,-1,-1,1,-1,-1,-3
16:24:59:902659,-3,-2,-1,-1,1,-1,-1,-3
16:24:59:903307,-1,-1,-2,0,-3,-1,0,-1
16:24:59:916848,-6,0,-1,-2,-1,-2,-3,-2
16:24:59:925487,-6,0,-1,-2,-1,-2,-3,-2
16:24:59:932554,-4,-3,0,0,-1,-1,0,7
16:24:59:933299,1,0,-2,0,1,2,-1,2
16:24:59:948224,1,0,-2,0,1,2,-1,2
16:24:59:949080,-3,-2,1,1,-1,-3,-5,-5
16:24:59:954316,-1,-3,0,2,10,2,2,2
16:24:59:962614,-1,-3,0,2,10,2,2,2
16:24:59:963323,1,1,0,0,0,1,-3,-3
16:24:59:985694,1,1,-2,-2,-4,-4,-2,-2
16:24:59:986561,1,1,-2,-2,-4,-4,-2,-2
16:24:59:987303,-1,-1,-2,-2,-2,-1,-1,-3
16:24:59:991857,0,-1,1,-3,-4,0,0,-5
16:25:00:15720,0,-1,1,-3,-4,0,0,-5
16:25:00:16438,1,-1,-2,-2,-1,-1,-1,1
16:25:00:17329,0,0,1,-1,0,0,-1,-1
16:25:00:22577,0,0,1,-1,0,0,-1,-1
16:25:00:23340,2,-1,-2,-2,-5,-3,-2,0
16:25:00:36817,-3,0,-3,-3,2,-1,0,-2
16:25:00:45087,-3,0,-3,-3,2,-1,0,-2
16:25:00:45838,0,-2,0,1,1,0,-1,-1
16:25:00:51795,-2,-2,-3,-1,-8,-2,-4,-2
16:25:00:67560,-2,-2,-3,-1,-8,-2,-4,-2
16:25:00:68437,-2,-2,-1,-1,-6,-3,1,-3
16:25:00:74350,0,-1,-1,1,3,2,1,1
16:25:00:82565,0,-1,-1,1,3,2,1,1
16:25:00:83294,-1,0,-1,1,4,4,3,-1
16:25:00:96806,-2,-3,-1,0,0,-5,-2,1
16:25:00:104801,-2,-3,-1,0,0,-5,-2,1
16:25:00:119944,0,-1,-2,2,11,5,0,0
16:25:00:120815,0,1,-1,-1,-1,-3,-1,0
16:25:00:127597,0,1,-1,-1,-1,-3,-1,0
16:25:00:128440,-5,0,-1,-3,-5,-3,-3,-2
16:25:00:134353,-3,-2,-1,-2,-5,2,0,1
16:25:00:150109,-3,-2,-1,-2,-5,2,0,1
16:25:00:150815,-1,-2,0,-5,-3,1,0,0
16:25:00:156824,1,-3,-2,-4,-5,-1,-1,-2
16:25:00:165068,1,-3,-2,-4,-5,-1,-1,-2
16:25:00:165822,-2,-2,-1,0,2,-3,-1,-3
16:25:00:179338,0,0,-1,-2,-2,-1,-1,-4
16:25:00:187599,0,0,-1,-2,-2,-1,-1,-4
16:25:00:188438,0,0,-2,-1,-1,2,2,-4
16:25:00:194311,0,1,-1,2,1,-3,-1,-2
16:25:00:202557,0,1,-1,2,1,-3,-1,-2
16:25:00:203423,-1,-3,-3,-9,-5,-9,-5,-2
16:25:00:216816,-2,-3,-4,0,3,2,-1,-1
16:25:00:224823,-2,-3,-4,0,3,2,-1,-1
16:25:00:232433,0,-1,-2,0,-3,-2,-2,-1
16:25:00:233307,0,-1,1,-2,-1,-4,-3,0
16:25:00:247557,0,-1,1,-2,-1,-4,-3,0
16:25:00:248439,-4,-3,-1,2,3,1,0,-2
16:25:00:254326,1,0,1,-2,5,0,3,3
16:25:00:262593,1,0,1,-2,5,0,3,3
16:25:00:263449,1,1,-1,0,-1,-2,-1,1
16:25:00:276863,-1,0,-2,-1,-1,0,-2,1
16:25:00:293175,-1,0,-2,-1,-1,0,-2,1
16:25:00:293936,-1,1,-1,0,-3,-2,-2,-2
16:25:00:294804,-3,0,1,3,-7,-4,-2,-2
16:25:00:307582,-3,0,1,3,-7,-4,-2,-2
16:25:00:308475,1,-1,0,2,-4,-1,-2,2
16:25:00:314439,0,-1,0,6,-15,-1,1,-1
16:25:00:322548,0,-1,0,6,-15,-1,1,-1
16:25:00:323326,0,-1,-1,-5,-7,-1,-4,0
16:25:00:345702,0,-1,-2,-7,-3,-3,-3,-2
16:25:00:346564,0,-1,-2,-7,-3,-3,-3,-2
16:25:00:347325,0,0,-1,-2,4,3,3,-1
16:25:00:351804,-3,-3,-4,0,-3,-2,0,1
16:25:00:375733,-3,-3,-4,0,-3,-2,0,1
16:25:00:376453,-2,-2,-2,-3,0,-3,-5,-3
16:25:00:377331,-2,0,0,-2,3,2,1,-1
16:25:00:382553,-2,0,0,-2,3,2,1,-1
16:25:00:383300,1,0,-1,0,-3,-5,-2,-1
16:25:00:396835,1,-3,-2,2,2,-1,-2,-3
16:25:00:405098,1,-3,-2,2,2,-1,-2,-3
16:25:00:405811,-1,0,0,-9,-9,-3,-1,-2
16:25:00:411855,-2,0,1,3,14,5,1,-1
16:25:00:427593,-2,0,1,3,14,5,1,-1
16:25:00:428428,-3,-2,0,-5,1,-1,0,0
16:25:00:434320,-2,-1,-2,-2,-16,-4,-2,-1
16:25:00:442600,-2,-1,-2,-2,-16,-4,-2,-1
16:25:00:443331,0,0,-1,7,8,4,1,2
16:25:00:456817,0,1,-1,0,-1,0,-1,-3
16:25:00:465429,0,1,-1,0,-1,0,-1,-3
16:25:00:472426,-2,0,-1,0,2,1,1,-2
16:25:00:473298,1,-2,-1,-4,-2,-1,-2,0
16:25:00:487611,1,-2,-1,-4,-2,-1,-2,0
16:25:00:488460,-2,0,1,1,7,4,0,0
16:25:00:494343,-2,0,1,-3,0,2,-1,-2
16:25:00:502599,-2,0,1,-3,0,2,-1,-2
16:25:00:503449,-4,-2,-5,-9,-13,-2,-2,-2
16:25:00:516819,0,-4,-1,1,7,-3,0,0
16:25:00:525059,0,-4,-1,1,7,-3,0,0
16:25:00:525848,-2,-2,0,11,-3,1,1,-2
16:25:00:539331,0,-2,-4,-6,-1,2,0,1
16:25:00:547568,0,-2,-4,-6,-1,2,0,1
16:25:00:548453,0,0,-1,3,-7,-4,-3,1
16:25:00:554334,-2,0,0,2,-6,-4,-3,-3
16:25:00:563204,-2,0,0,2,-6,-4,-3,-3
16:25:00:564092,-1,0,1,0,-12,-3,-2,-1
16:25:00:576855,1,-1,1,-2,2,-1,-3,-1
16:25:00:584801,1,-1,1,-2,2,-1,-3,-1
16:25:00:592510,1,0,0,-4,1,3,2,-1
16:25:00:593310,0,0,0,-4,4,1,1,1
16:25:00:607572,0,0,0,-4,4,1,1,1
16:25:00:608479,2,-1,0,2,-2,-6,-3,0
16:25:00:623194,-2,-2,-1,-8,-15,-2,1,0
16:25:00:623937,-2,-2,-1,-8,-15,-2,1,0
16:25:00:624869,-1,1,-1,-3,2,-4,-2,0
16:25:00:636818,-2,-1,-1,3,-3,-6,-5,-1
16:25:00:653190,-2,-1,-1,3,-3,-6,-5,-1
16:25:00:654061,-1,-2,-2,-3,12,5,0,-1
16:25:00:654833,-1,0,0,1,12,-3,-1,-3
16:25:00:675735,-1,0,0,1,12,-3,-1,-3
16:25:00:676471,1,-2,-2,4,13,1,0,-1
16:25:00:677343,-1,-2,0,3,-1,2,3,-1
16:25:00:682571,-1,-2,0,3,-1,2,3,-1
16:25:00:683441,-2,-3,-5,-5,-7,-4,0,-1
16:25:00:705697,1,0,0,4,6,2,0,0
16:25:00:706425,1,0,0,4,6,2,0,0
16:25:00:707293,-2,0,2,-6,-3,-1,-3,-5
16:25:00:711882,3,1,-2,2,8,1,0,-3
16:25:00:727598,3,1,-2,2,8,1,0,-3
16:25:00:728437,-2,-1,-1,-2,-2,7,3,-1
16:25:00:734315,-3,-2,-3,-7,-13,-4,-3,-1
16:25:00:742591,-3,-2,-3,-7,-13,-4,-3,-1
16:25:00:743453,-1,1,2,5,1,-5,-2,-1
16:25:00:756845,-1,-2,-2,-6,-9,0,-3,-1
16:25:00:765062,-1,-2,-2,-6,-9,0,-3,-1
16:25:00:765811,-1,1,-4,-12,-12,-2,-3,0
16:25:00:779367,-1,-2,0,-1,-6,-1,-2,-2
16:25:00:787570,-1,-2,0,-1,-6,-1,-2,-2
16:25:00:788478,-1,-2,-1,-1,-4,0,1,-1
16:25:00:794354,-2,-1,0,1,11,1,2,-3
16:25:00:801976,-2,-1,0,1,11,1,2,-3
16:25:00:817457,1,-2,-1,1,-1,-3,0,0
16:25:00:818313,-1,-2,-3,1,-5,-1,-1,0
16:25:00:825068,-1,-2,-3,1,-5,-1,-1,0
16:25:00:825830,0,0,-3,4,6,-4,-2,2
16:25:00:848224,-1,-1,0,-3,0,-3,-1,0
16:25:00:848949,-1,-1,0,-3,0,-3,-1,0
16:25:00:849833,3,0,-1,-6,5,3,3,3
16:25:00:862622,-3,-7,-4,3,40,5,-2,-3
16:25:00:863470,-3,-7,-4,3,40,5,-2,-3
16:25:00:869431,0,-3,0,6,1,-5,-3,-1
16:25:00:876845,1,1,-1,-1,-10,-2,1,0
16:25:00:885080,1,1,-1,-1,-10,-2,1,0
16:25:00:885848,-3,1,7,1,3,0,-3,-2
16:25:00:899877,-1,0,-1,-3,-14,-3,-1,-1
16:25:00:907604,-1,0,-1,-3,-14,-3,-1,-1
16:25:00:908463,-2,-2,-2,-2,-10,-4,-1,-2
16:25:00:914314,4,2,0,0,-5,-1,0,1
16:25:00:930136,4,2,0,0,-5,-1,0,1
16:25:00:930841,0,0,-1,-2,-11,-2,-2,-4
16:25:00:936831,-3,-2,-2,-8,-6,-3,-2,-1
16:25:00:952586,-3,-2,-2,-8,-6,-3,-2,-1
16:25:00:953456,-2,-2,-4,-1,-5,0,-2,-3
16:25:00:959407,1,1,1,-2,-15,-2,0,0
16:25:00:967587,1,1,1,-2,-15,-2,0,0
16:25:00:968438,1,0,-4,11,27,3,-1,0
16:25:00:982610,-2,-1,-1,1,2,2,1,1
16:25:00:983438,-2,-1,-1,1,2,2,1,1
16:25:00:989345,-1,1,-3,-4,-5,-2,-1,-2
16:25:00:996820,-2,0,-1,-9,-23,-5,-3,-3
16:25:01:12611,-2,0,-1,-9,-23,-5,-3,-3
16:25:01:13337,-4,-7,-6,-2,8,1,0,-2
16:25:01:19344,2,3,1,-9,-8,-2,-1,1
16:25:01:27625,2,3,1,-9,-8,-2,-1,1
16:25:01:28439,-2,0,-1,-6,8,2,0,0
16:25:01:34324,-2,-1,-4,-1,6,-2,-1,-2
16:25:01:41969,-2,-1,-4,-1,6,-2,-1,-2
16:25:01:49339,-2,-1,0,-4,-13,-7,-5,-1
16:25:01:65686,-1,-2,-1,4,5,2,2,0
16:25:01:66570,-1,-2,-1,4,5,2,2,0
16:25:01:67324,-1,-1,-2,-4,-17,-7,-2,-2
16:25:01:79365,-4,-5,-2,3,13,9,4,1
16:25:01:95721,-4,-5,-2,3,13,9,4,1
16:25:01:96442,0,1,1,-1,-1,3,1,-2
16:25:01:97315,2,2,2,0,-2,-5,-4,-4
16:25:01:101810,2,2,2,0,-2,-5,-4,-4
16:25:01:109341,-3,-1,0,5,-9,-2,0,-1
16:25:01:116807,-2,1,-3,-5,11,0,-1,-3
16:25:01:125106,-2,1,-3,-5,11,0,-1,-3
16:25:01:125824,-8,-6,-3,-2,-4,0,-2,-2
16:25:01:148212,-3,-1,-3,-1,-8,-4,-5,-3
16:25:01:148959,-3,-1,-3,-1,-8,-4,-5,-3
16:25:01:149829,0,-1,-1,2,5,2,2,1
16:25:01:154448,0,0,0,2,-1,0,0,-1
16:25:01:161829,0,0,0,2,-1,0,0,-1
16:25:01:177511,1,0,0,-2,-6,-1,-2,1
16:25:01:178318,0,0,-1,-1,-12,-6,-5,-4
16:25:01:185075,0,0,-1,-1,-12,-6,-5,-4
16:25:01:185820,0,1,-2,-7,2,-3,-3,0
16:25:01:208220,-1,-2,-1,0,1,0,1,1
16:25:01:209080,-1,-2,-1,0,1,0,1,1
16:25:01:209846,0,0,-1,1,4,0,-1,-2
16:25:01:214376,-1,-2,-2,-6,-2,-2,-2,2
16:25:01:230067,-1,-2,-2,-6,-2,-2,-2,2
16:25:01:230824,0,2,1,1,8,4,0,2
16:25:01:236810,0,-2,-4,-9,13,1,1,-1
16:25:01:245487,0,-2,-4,-9,13,1,1,-1
16:25:01:260017,1,0,-1,0,-7,-4,0,-3
16:25:01:260850,-4,-2,-1,3,1,1,2,1
16:25:01:267576,-4,-2,-1,3,1,1,2,1
16:25:01:268318,0,-1,0,-2,-3,-4,-2,-4
16:25:01:274349,-3,-5,1,2,-3,4,0,-2
16:25:01:281957,-3,-5,1,2,-3,4,0,-2
16:25:01:289363,0,-2,1,9,-9,-4,-3,-1
16:25:01:296844,-2,-2,1,1,1,-4,0,2
16:25:01:305096,-2,-2,1,1,1,-4,0,2
16:25:01:305856,-1,-2,-1,4,-10,-5,-2,-2
16:25:01:319313,0,-1,-3,-2,-10,-2,-2,-2
16:25:01:328007,0,-1,-3,-2,-10,-2,-2,-2
16:25:01:343202,0,0,0,-8,-5,2,0,-1
16:25:01:343926,0,1,1,6,-2,0,1,0
16:25:01:344820,0,1,1,6,-2,0,1,0
16:25:01:349323,-4,-1,-2,-4,7,0,-1,1
16:25:01:356837,-1,0,-1,-4,-2,-4,-3,3
16:25:01:372569,-1,0,-1,-4,-2,-4,-3,3
16:25:01:373331,-2,0,1,1,4,1,0,0
16:25:01:379360,0,0,0,4,-3,-3,0,-2
16:25:01:387596,0,0,0,4,-3,-3,0,-2
16:25:01:388322,-1,-2,-3,-3,7,4,-2,0
16:25:01:394362,-1,1,1,-9,-3,-1,1,-4
16:25:01:401959,-1,1,1,-9,-3,-1,1,-4
16:25:01:409344,1,2,0,2,-19,-7,-4,-2
16:25:01:425734,0,1,-2,-4,0,-3,-2,-2
16:25:01:426586,0,1,-2,-4,0,-3,-2,-2
16:25:01:427332,-4,-1,-2,-2,-5,0,0,-2
16:25:01:439477,-1,-2,-1,2,0,-3,-2,-2
16:25:01:447575,-1,-2,-1,2,0,-3,-2,-2
16:25:01:448346,2,-1,1,-1,4,0,0,4
16:25:01:454348,-3,-2,-3,0,5,3,1,-1
16:25:01:461833,-3,-2,-3,0,5,3,1,-1
16:25:01:469317,0,-1,-3,0,2,1,-2,-2
16:25:01:485701,0,-1,-2,0,-4,-3,-3,-1
16:25:01:486434,0,-1,-2,0,-4,-3,-3,-1
16:25:01:487323,-4,-5,-3,1,1,-1,0,-2
16:25:01:508233,-2,-1,1,-6,-24,-4,1,1
16:25:01:509069,-2,-1,1,-6,-24,-4,1,1
16:25:01:509836,-1,0,2,-1,8,5,4,-2
16:25:01:514320,1,-1,-3,-13,-8,0,-1,-1
16:25:01:521859,1,-1,-3,-13,-8,0,-1,-1
16:25:01:529522,-1,-2,-1,-5,-2,-3,-2,-4
16:25:01:536814,7,2,-1,5,6,0,-2,3
16:25:01:545078,7,2,-1,5,6,0,-2,3
16:25:01:545864,-1,1,-2,-2,0,-4,-2,-2
16:25:01:559351,-1,2,0,4,7,-1,-2,-5
16:25:01:567583,-1,2,0,4,7,-1,-2,-5
16:25:01:568329,1,1,-3,-4,5,4,4,2
16:25:01:574326,-3,-1,-1,5,11,-1,-2,-1
16:25:01:581845,-3,-1,-1,5,11,-1,-2,-1
16:25:01:589390,-2,-1,-2,7,1,-3,-3,-2
16:25:01:596834,-4,-2,-2,-4,5,1,-1,0
16:25:01:605484,-4,-2,-2,-4,5,1,-1,0
16:25:01:620084,-1,-4,-3,1,-3,-2,-2,1
16:25:01:620807,-2,-3,-1,4,2,0,-3,-3
16:25:01:627588,-2,-3,-1,4,2,0,-3,-3
16:25:01:628328,0,0,-1,-4,-5,-2,-1,-1
16:25:01:634351,-3,-1,0,-2,-6,-1,-1,-1
16:25:01:641840,-3,-1,0,-2,-6,-1,-1,-1
16:25:01:649360,-1,-1,0,-4,-3,-1,-1,-1
16:25:01:656854,-2,-2,-1,-4,-5,-3,-3,-5
16:25:01:665086,-2,-2,-1,-4,-5,-3,-3,-5
16:25:01:665832,2,4,-1,-3,-2,1,1,0
16:25:01:679826,0,-1,1,3,0,-3,-1,-1
16:25:01:687597,0,-1,1,3,0,-3,-1,-1
16:25:01:688327,-10,-6,0,2,2,4,0,-2
16:25:01:702490,-3,-2,-1,3,15,3,-1,-1
16:25:01:703338,-3,-2,-1,3,15,3,-1,-1
16:25:01:709333,2,-2,-1,0,-5,-8,-1,1
16:25:01:716817,-2,-1,2,-4,-13,-1,0,0
16:25:01:724501,-2,-1,2,-4,-13,-1,0,0
16:25:01:731838,-1,-2,-3,1,-7,-3,-2,-3
16:25:01:739362,-1,-2,-2,-1,-7,0,-1,-2
16:25:01:747579,-1,-2,-2,-1,-7,0,-1,-2
16:25:01:748459,1,-1,0,-2,1,1,-1,1
16:25:01:762618,-1,1,-2,6,13,0,-2,0
16:25:01:763460,-1,1,-2,6,13,0,-2,0
16:25:01:769327,-1,0,0,7,17,2,0,-1
16:25:01:785095,0,-2,-2,5,5,-1,1,2
16:25:01:785822,0,-2,-2,5,5,-1,1,2
16:25:01:791896,0,1,-3,-4,-2,-3,-3,0
16:25:01:799339,-2,0,-3,-5,-6,-4,-4,-1
16:25:01:808078,-2,0,-3,-5,-6,-4,-4,-1
16:25:01:814344,0,-2,-3,-2,4,2,-2,-1
16:25:01:822601,-1,-1,-2,-4,-7,3,4,1
16:25:01:823468,-1,-1,-2,-4,-7,3,4,1
16:25:01:829364,-6,-1,0,-1,-11,-6,-3,-4
16:25:01:845075,2,-1,-1,-2,-2,-6,-3,-3
16:25:01:845853,2,-1,-1,-2,-2,-6,-3,-3
16:25:01:851822,-1,0,-1,-5,-5,0,-1,-1
16:25:01:859404,0,-2,-1,-1,-7,-5,-2,0
16:25:01:867345,0,-2,-1,-1,-7,-5,-2,0
16:25:01:874317,-2,-4,-1,-7,-10,-5,-3,-3
16:25:01:882618,-2,-2,-2,0,0,2,-1,-2
16:25:01:883508,-2,-2,-2,0,0,2,-1,-2
16:25:01:889353,0,0,-4,0,12,3,1,0
16:25:01:896845,-2,-2,-2,-16,-4,-3,-2,2
16:25:01:904455,-2,-2,-2,-16,-4,-3,-2,2
16:25:01:911841,1,0,-2,-9,-7,-5,0,-4
16:25:01:919332,0,-1,1,9,9,4,-1,0
16:25:01:927594,0,-1,1,9,9,4,-1,0
16:25:01:928372,1,-2,0,-2,-3,-1,2,7
16:25:01:942459,-2,1,0,-2,0,2,0,-1
16:25:01:943347,-2,1,0,-2,0,2,0,-1
16:25:01:957483,-1,-2,0,3,-4,1,-3,-1
16:25:01:958339,-4,-4,0,-1,-7,-3,-3,-1
16:25:01:964472,-4,-4,0,-1,-7,-3,-3,-1
16:25:01:979969,-2,0,0,-1,-10,3,3,-1
16:25:01:980838,0,1,-1,-3,-5,-4,-2,-4
16:25:01:987595,0,1,-1,-3,-5,-4,-2,-4
16:25:01:988482,-2,0,-1,-1,-3,-2,-5,-4
16:25:02:10755,0,-3,-2,-3,14,2,0,0
16:25:02:11480,0,-3,-2,-3,14,2,0,0
16:25:02:12330,-2,-2,-2,-5,1,4,-1,0
16:25:02:16838,-1,-2,-3,-1,3,-3,-2,-1
16:25:02:24518,-1,-2,-3,-1,3,-3,-2,-1
16:25:02:39971,-1,-1,-1,5,4,-2,-3,-2
16:25:02:40861,-1,0,2,2,0,2,2,-1
16:25:02:47586,-1,0,2,2,0,2,2,-1
16:25:02:48320,2,-2,-3,8,13,-1,-2,-2
16:25:02:62518,3,1,-1,-3,-5,-1,0,2
16:25:02:63327,3,1,-1,-3,-5,-1,0,2
16:25:02:69500,1,-1,-1,-2,-2,2,4,1
16:25:02:76836,2,0,0,3,-4,-2,-1,-2
16:25:02:84466,2,0,0,3,-4,-2,-1,-2
16:25:02:91860,1,0,1,-7,-12,-3,-1,0
16:25:02:99333,0,-1,-3,-3,-6,0,1,1
16:25:02:107589,0,-1,-3,-3,-6,0,1,1
16:25:02:108328,-3,-1,0,4,23,-3,-3,-4
16:25:02:122482,-2,-3,-2,1,9,-3,-2,-2
16:25:02:123351,-2,-3,-2,1,9,-3,-2,-2
16:25:02:129385,0,1,1,2,-8,0,2,2
16:25:02:136865,0,1,2,-2,-1,-2,-2,0
16:25:02:152462,0,1,2,-2,-1,-2,-2,0
16:25:02:153330,-2,-3,-3,-3,-5,-1,-2,-2
16:25:02:159339,-3,-4,0,5,-2,1,0,-4
16:25:02:175112,-3,-4,0,5,-2,1,0,-4
16:25:02:175850,-1,-1,-1,1,-6,-5,-5,-3
16:25:02:182483,-1,-1,0,-1,-1,0,-1,1
16:25:02:183325,-1,-1,0,-1,-1,0,-1,1
16:25:02:189342,1,-1,-1,-1,3,3,-1,2
16:25:02:205070,-2,0,-1,-2,-6,-4,-4,-2
16:25:02:205836,-2,0,-1,-2,-6,-4,-4,-2
16:25:02:211835,2,0,-2,-2,9,6,2,0
16:25:02:219334,-3,1,-2,4,6,0,0,-1
16:25:02:235096,-3,1,-2,4,6,0,0,-1
16:25:02:235835,-2,-3,-1,-2,-11,-5,-1,-3
16:25:02:242237,-1,-3,1,-5,-4,-3,0,-1
16:25:02:258244,-1,-3,1,-5,-4,-3,0,-1
16:25:02:258966,-1,-1,-2,-2,4,-2,-1,0
16:25:02:259858,-1,-2,2,0,-12,-2,0,6
16:25:02:264459,-1,-2,2,0,-12,-2,0,6
16:25:02:271841,-3,-2,-3,-6,-9,-2,-4,-2
16:25:02:288257,0,1,-2,2,0,-1,1,1
16:25:02:289086,0,1,-2,2,0,-1,1,1
16:25:02:289848,-7,-1,0,3,-7,-3,0,-5
16:25:02:302587,0,-2,-3,-2,-3,0,-1,-3
16:25:02:303333,0,-2,-3,-2,-3,0,-1,-3
16:25:02:317467,1,1,-1,-4,-11,-8,-5,-1
16:25:02:318317,-2,-2,-2,1,14,8,4,-3
16:25:02:324487,-2,-2,-2,1,14,8,4,-3
16:25:02:331839,1,-2,1,3,7,-2,-1,2
16:25:02:339337,1,-1,-4,-9,8,0,-4,-2
16:25:02:347610,1,-1,-4,-9,8,0,-4,-2
16:25:02:348344,3,0,-2,-3,1,3,2,3
16:25:02:362501,-1,-1,-1,-2,-5,-2,-1,-2
16:25:02:363338,-1,-1,-1,-2,-5,-2,-1,-2
16:25:02:369342,-1,-2,1,3,0,2,2,-1
16:25:02:376825,-2,0,-1,1,-12,-2,-3,-1
16:25:02:384464,-2,0,-1,1,-12,-2,-3,-1
16:25:02:399966,-6,-3,-1,-1,-1,-2,0,-1
16:25:02:400829,-4,-3,-4,-2,23,3,-4,-13
16:25:02:407648,-4,-3,-4,-2,23,3,-4,-13
16:25:02:408361,0,0,-1,-2,-3,-3,-2,-2
16:25:02:422461,1,-2,-2,-4,-18,-6,-1,3
16:25:02:423334,1,-2,-2,-4,-18,-6,-1,3
16:25:02:429428,0,0,-1,-3,3,1,0,0
16:25:02:436853,0,-1,-1,-1,-5,-5,-6,-3
16:25:02:452591,0,-1,-1,-1,-5,-5,-6,-3
16:25:02:453471,-1,-2,1,2,2,4,1,2
16:25:02:459370,-1,-1,1,0,-2,-4,-3,-1
16:25:02:467463,-1,-1,1,0,-2,-4,-3,-1
16:25:02:468339,-1,-3,-1,-3,-4,-3,-1,0
16:25:02:482623,-2,-1,-3,-8,7,4,0,0
16:25:02:483503,-2,-1,-3,-8,7,4,0,0
16:25:02:489370,-3,-3,0,1,1,-3,-2,-2
16:25:02:496858,-1,-1,-1,-13,-17,-2,1,0
16:25:02:504349,-1,-1,-1,-13,-17,-2,1,0
16:25:02:511859,1,1,-2,0,4,2,0,0
16:25:02:519342,-2,0,0,6,-4,-4,-1,0
16:25:02:527618,-2,0,0,6,-4,-4,-1,0
16:25:02:528333,0,0,-1,-1,-7,-3,-1,-3
16:25:02:542484,-1,0,0,6,2,1,1,0
16:25:02:543349,-1,0,0,6,2,1,1,0
16:25:02:549331,-1,0,-1,-2,-1,-1,-2,-1
16:25:02:556877,-3,-1,1,4,-1,-3,-2,-2
16:25:02:564490,-3,-1,1,4,-1,-3,-2,-2
16:25:02:571865,0,-2,-1,-2,0,3,0,-3
16:25:02:579346,2,1,1,0,-4,-1,-1,1
16:25:02:587583,2,1,1,0,-4,-1,-1,1
16:25:02:588351,-1,-1,-1,-6,-6,-2,-4,0
16:25:02:602456,-2,-2,-2,1,1,-3,0,-1
16:25:02:603342,-2,-2,-2,1,1,-3,0,-1
16:25:02:609335,0,-1,-2,-1,0,0,-1,-2
16:25:02:616831,1,-1,-3,-3,-8,-2,0,0
16:25:02:624443,1,-1,-3,-3,-8,-2,0,0
16:25:02:631834,0,0,-1,0,2,1,1,0
16:25:02:647462,-1,-1,0,3,5,0,1,0
16:25:02:648318,-1,-1,0,3,5,0,1,0
16:25:02:654338,-2,-2,0,1,3,-1,0,-3
16:25:02:662652,0,0,0,0,0,0,-2,-3
16:25:02:663371,0,0,0,0,0,0,-2,-3
16:25:02:669331,-2,1,0,-1,-10,-3,-1,-1
16:25:02:684988,0,3,-2,2,-3,5,3,2
16:25:02:685860,0,3,-2,2,-3,5,3,2
16:25:02:691852,-4,-1,1,1,-3,-9,-6,-2
16:25:02:699371,-1,-1,-1,5,-3,-1,1,-3
16:25:02:706853,-1,-1,-1,5,-3,-1,1,-3
16:25:02:714355,-3,-4,-2,-4,-5,-2,-3,0
16:25:02:730720,-1,-1,-1,-6,-2,1,1,-2
16:25:02:731478,-1,-1,-1,-6,-2,1,1,-2
16:25:02:732331,2,1,-2,-3,0,-2,0,0
16:25:02:744998,0,-2,-1,-2,1,-1,-3,0
16:25:02:745890,0,-2,-1,-2,1,-1,-3,0
16:25:02:759981,1,-2,-2,0,0,0,-1,0
16:25:02:760846,0,0,0,-2,0,-2,0,0
16:25:02:766845,0,0,0,-2,0,-2,0,0
16:25:02:774353,-1,1,-1,3,-5,-4,-3,-4
16:25:02:790758,-2,0,0,-1,5,1,1,0
16:25:02:791586,-2,0,0,-1,5,1,1,0
16:25:02:792332,-1,-1,-2,-2,4,3,1,-1
16:25:02:813216,3,1,-1,4,9,-1,-1,-1
16:25:02:813968,3,1,-1,4,9,-1,-1,-1
16:25:02:814827,-3,-3,-2,0,1,0,-1,-1
16:25:02:819345,-1,-2,-3,0,-3,-7,-5,-4
16:25:02:826863,-1,-2,-3,0,-3,-7,-5,-4
16:25:02:843229,2,-3,0,-1,-3,5,2,-2
16:25:02:843993,-4,-2,-2,0,-10,-3,0,3
16:25:02:844828,-4,-2,-2,0,-10,-3,0,3
16:25:02:849352,-2,-1,-2,-1,0,-2,1,2
16:25:02:865467,0,-1,-1,-4,-10,-5,-2,-1
16:25:02:872472,0,-1,-1,-4,-10,-5,-2,-1
16:25:02:873359,-1,1,-2,1,7,-1,-3,-1
16:25:02:879368,-2,0,0,-4,-10,-2,1,0
16:25:02:886838,-2,0,0,-4,-10,-2,1,0
16:25:02:894438,-2,-4,0,-5,-3,2,-1,0
16:25:02:902611,-1,-2,-1,-7,-16,-5,-1,-1
16:25:02:903366,-1,-2,-1,-7,-16,-5,-1,-1
16:25:02:909345,2,2,-2,-2,1,-1,-2,3
16:25:02:925053,-5,-3,-2,-6,-2,-1,-3,-4
16:25:02:925859,-5,-3,-2,-6,-2,-1,-3,-4
16:25:02:931844,-1,-1,0,1,-8,-3,-2,0
16:25:02:939363,0,0,1,0,5,2,1,2
16:25:02:954982,0,0,1,0,5,2,1,2
16:25:02:955857,-2,-1,-1,-2,-6,-1,-4,-2
16:25:02:962489,-1,0,-1,0,5,1,0,-3
16:25:02:963322,-1,0,-1,0,5,1,0,-3
16:25:02:969337,-1,1,-2,-2,4,-1,-1,-4
16:25:02:984955,0,-1,-2,1,1,-1,-2,0
16:25:02:985831,0,-1,-2,1,1,-1,-2,0
16:25:02:991863,1,1,-1,6,12,1,2,1
16:25:03:7531,0,-1,-2,-10,-11,3,-2,-1
16:25:03:8359,0,-1,-2,-10,-11,3,-2,-1
16:25:03:14339,-2,-3,-1,-1,9,3,5,0
16:25:03:22497,-1,-1,-1,-7,0,-4,-3,-2
16:25:03:23342,-1,-1,-1,-7,0,-4,-3,-2
16:25:03:36854,0,-1,-2,-2,-7,-6,-3,0
16:25:03:44984,-2,-2,-1,5,7,2,0,-2
16:25:03:45874,-2,-2,-1,5,7,2,0,-2
16:25:03:51836,-2,0,1,0,-2,0,0,0
16:25:03:59369,1,-1,-1,6,3,-2,0,-2
16:25:03:66850,1,-1,-1,6,3,-2,0,-2
16:25:03:74351,2,-1,-3,-1,-8,-4,-4,-2
16:25:03:82244,-1,0,-2,1,4,1,1,0
16:25:03:90087,-1,0,-2,1,4,1,1,0
16:25:03:90868,-3,-2,0,-6,-10,-2,-3,-2
16:25:03:104988,-1,-2,1,5,11,2,2,0
16:25:03:105860,-1,-2,1,5,11,2,2,0
16:25:03:119958,0,-1,-2,0,9,6,0,-1
16:25:03:120866,-2,-1,-1,-4,-6,-3,-4,-2
16:25:03:126859,-2,-1,-1,-4,-6,-3,-4,-2
16:25:03:134360,-2,-3,-2,0,1,-1,-3,-2
16:25:03:150723,-1,1,-1,0,0,-2,-4,-5
16:25:03:151605,-1,1,-1,0,0,-2,-4,-5
16:25:03:152346,-2,1,1,-2,-5,-3,0,0
16:25:03:165165,-1,-2,-1,0,1,4,2,1
16:25:03:165845,-1,-2,-1,0,1,4,2,1
16:25:03:171870,0,-2,-2,-1,-2,-1,-1,-2
16:25:03:179367,-6,-2,1,-1,1,3,4,1
16:25:03:187014,-6,-2,1,-1,1,3,4,1
16:25:03:194369,0,2,-1,4,-2,-2,1,1
16:25:03:202473,-7,-4,-1,0,-4,-6,-6,-9
16:25:03:203332,-7,-4,-1,0,-4,-6,-6,-9
16:25:03:209413,-2,-2,-2,-1,-4,-3,-1,-3
16:25:03:225470,3,-1,-2,-3,-2,-3,0,3
16:25:03:232587,3,-1,-2,-3,-2,-3,0,3
16:25:03:233475,0,-1,-1,-5,-4,-3,-3,-5
16:25:03:239338,-2,-5,-1,0,9,-2,-4,0
16:25:03:246864,-2,-5,-1,0,9,-2,-4,0
16:25:03:263234,2,-1,-2,-4,-3,-3,-4,-4
16:25:03:263965,-3,-2,0,-1,-1,2,2,-2
16:25:03:264837,-3,-2,0,-1,-1,2,2,-2
16:25:03:269329,-3,0,1,2,5,-2,-2,-2
16:25:03:285087,4,2,-1,-2,-5,-4,-5,-2
16:25:03:285854,4,2,-1,-2,-5,-4,-5,-2
16:25:03:291842,0,-2,-1,-1,-2,-1,-2,1
16:25:03:299348,4,1,0,-2,-1,2,2,3
16:25:03:306986,4,1,0,-2,-1,2,2,3
16:25:03:314375,0,-3,0,5,8,-1,-3,-4
16:25:03:322476,1,1,-2,3,8,2,0,3
16:25:03:323354,1,1,-2,3,8,2,0,3
16:25:03:329389,-4,-1,-2,2,3,-1,1,2
16:25:03:344989,-5,-4,-2,-8,-4,-1,-2,-1
16:25:03:345875,-5,-4,-2,-8,-4,-1,-2,-1
16:25:03:368205,-1,-1,0,1,0,2,1,-2
16:25:03:368975,0,0,1,0,-3,-2,-2,-1
16:25:03:369841,0,0,1,0,-3,-2,-2,-1
16:25:03:374392,0,-2,-1,-5,-4,5,1,0
16:25:03:382621,1,0,-1,-1,-6,-6,-4,-2
16:25:03:383478,1,0,-1,-1,-6,-6,-4,-2
16:25:03:396861,-6,-1,-1,-9,2,3,4,2
16:25:03:404965,2,0,-3,0,4,0,1,-1
16:25:03:405887,2,0,-3,0,4,0,1,-1
16:25:03:411863,0,-1,-3,-2,-6,-5,-3,-3
16:25:03:427490,-1,-1,-1,1,-4,-5,-5,-6
16:25:03:428366,-1,-1,-1,1,-4,-5,-5,-6
16:25:03:434388,-1,0,-1,0,3,5,8,3
16:25:03:450725,1,0,-1,-2,-2,-2,-2,-4
16:25:03:451455,1,0,-1,-2,-2,-2,-2,-4
16:25:03:452361,1,-2,-1,-3,5,2,-2,-6
16:25:03:464989,-3,0,-2,0,-8,2,1,1
16:25:03:465870,-3,0,-2,0,-8,2,1,1
16:25:03:471842,1,1,-1,-4,-14,-7,-3,-2
16:25:03:479395,-1,-1,1,0,-2,3,0,3
16:25:03:486846,-1,-1,1,0,-2,3,0,3
16:25:03:494348,-1,-2,0,-1,-7,-3,-2,3
16:25:03:502614,-1,-2,0,-1,-7,-3,-2,3
16:25:03:503345,-3,-3,-3,-5,-2,0,3,1
16:25:03:509347,0,-1,-2,-2,0,-3,-5,-2
16:25:03:524993,0,-1,-2,-2,0,-3,-5,-2
16:25:03:525879,0,2,-1,3,4,-1,-3,-3
16:25:03:531852,3,1,-2,-1,-2,0,2,-5
16:25:03:547486,3,1,-2,-1,-2,0,2,-5
16:25:03:548355,0,-2,0,-1,-3,-6,-5,-1
16:25:03:554371,-1,0,-2,1,1,-1,-6,-1
16:25:03:562504,-1,0,-2,1,1,-1,-6,-1
16:25:03:563357,-1,-2,-1,-1,-1,0,2,3
16:25:03:569343,1,0,0,0,4,-2,-2,1
16:25:03:593214,1,0,0,0,4,-2,-2,1
16:25:03:594055,-2,0,-1,-3,-3,-3,-3,0
16:25:03:594844,-3,-2,0,11,6,6,5,0
16:25:03:607631,-3,-2,0,11,6,6,5,0
16:25:03:608342,-1,0,0,-1,-1,0,0,-5
16:25:03:614354,-2,-1,0,-3,8,1,1,1
16:25:03:622627,-2,-1,0,-3,8,1,1,1
16:25:03:623468,-1,-4,-1,-2,1,-2,0,-5
16:25:03:645780,-2,-2,-3,-4,-8,-4,-1,0
16:25:03:646490,-2,-2,-3,-4,-8,-4,-1,0
16:25:03:647341,-2,-2,-3,0,1,0,-2,-2
16:25:03:651842,-2,0,-1,-1,-2,-4,-3,-1
16:25:03:667519,-2,0,-1,-1,-2,-4,-3,-1
16:25:03:668354,-5,1,1,1,4,-1,1,-5
16:25:03:674374,-1,-1,0,-3,-5,-4,-14,-5
16:25:03:682494,-1,-1,0,-3,-5,-4,-14,-5
16:25:03:683372,0,0,-1,0,-4,-4,-4,2
16:25:03:696864,-1,-1,-3,-3,2,-1,1,-1
16:25:03:705002,-1,-1,-3,-3,2,-1,1,-1
16:25:03:705856,0,-3,-2,0,2,4,1,4
16:25:03:711855,1,1,-1,0,1,-2,-4,2
16:25:03:728025,1,1,-1,0,1,-2,-4,2
16:25:03:728845,1,0,-2,-2,5,-1,1,1
16:25:03:734356,-2,-2,1,-6,-8,-1,0,-4
16:25:03:742490,-2,-2,1,-6,-8,-1,0,-4
16:25:03:743365,1,0,-1,0,-2,-3,-1,-1
16:25:03:756893,-2,-1,-1,2,4,5,5,1
16:25:03:765110,-2,-1,-1,2,4,5,5,1
16:25:03:765870,-2,-2,-2,0,-4,-4,-4,-1
16:25:03:771870,-1,0,-2,-2,-6,-4,-1,-2
16:25:03:787605,-1,0,-2,-2,-6,-4,-1,-2
16:25:03:788491,-4,-3,1,-2,-8,-1,-4,-14
16:25:03:794389,-1,-2,-1,0,-3,0,0,1
16:25:03:802489,-1,-2,-1,0,-3,0,0,1
16:25:03:803353,-8,-4,-2,-1,0,1,2,8
16:25:03:817345,-5,-1,-3,-2,-3,-2,-1,-3
16:25:03:825101,-5,-1,-3,-2,-3,-2,-1,-3
16:25:03:825877,0,-2,-2,-4,-4,-4,-3,0
16:25:03:839358,-2,-1,-1,-2,-1,-2,0,2
16:25:03:847608,-2,-1,-1,-2,-1,-2,0,2
16:25:03:848340,3,0,0,0,4,8,7,3
16:25:03:854346,3,1,1,1,-2,0,1,1
16:25:03:862386,3,1,1,1,-2,0,1,1
16:25:03:869349,0,-1,-4,-1,0,-4,-5,-1
16:25:03:876901,0,-3,0,-2,-6,-3,-5,-2
16:25:03:884973,0,-3,0,-2,-6,-3,-5,-2
16:25:03:885835,2,0,0,1,0,-3,-2,-3
16:25:03:891878,-2,-3,-2,0,0,-2,-2,5
16:25:03:907616,-2,-3,-2,0,0,-2,-2,5
16:25:03:908527,2,0,-1,-3,-2,-1,3,1
16:25:03:923229,-2,-4,-1,-2,1,-1,-2,-3
16:25:03:923975,-2,-4,-1,-2,1,-1,-2,-3
16:25:03:924861,-1,1,-2,-1,-2,-1,-1,-2
16:25:03:936865,0,-1,-1,0,1,0,-2,-6
16:25:03:953232,0,-1,-1,0,1,0,-2,-6
16:25:03:953989,-2,-3,-3,5,15,5,3,1
16:25:03:954869,-1,0,-2,-9,0,-1,0,0
16:25:03:967479,-1,0,-2,-9,0,-1,0,0
16:25:03:968357,-2,-1,-2,-1,-1,-3,-2,-2
16:25:03:983147,0,-1,-2,-2,0,2,0,2
16:25:03:983975,0,-1,-2,-2,0,2,0,2
16:25:03:984848,0,-1,-1,-1,-3,0,-1,-1
16:25:03:996851,0,-1,0,0,-3,-2,-3,-2
16:25:04:5144,0,-1,0,0,-3,-2,-3,-2
16:25:04:5878,0,0,-1,-1,-5,-4,-3,-2
16:25:04:11890,-2,0,-1,-2,-5,-2,-1,-10
16:25:04:28053,-2,0,-1,-2,-5,-2,-1,-10
16:25:04:34980,0,0,-1,-5,3,3,0,1
16:25:04:35834,2,3,-1,-1,-4,-1,-1,-3
16:25:04:42617,2,3,-1,-1,-4,-1,-1,-3
16:25:04:43524,-4,1,-1,-2,-9,-5,-4,-3
16:25:04:56842,1,-1,-2,-1,-5,-3,-2,0
16:25:04:65111,1,-1,-2,-1,-5,-3,-2,0
16:25:04:65874,-5,-6,-1,-2,-9,-3,-1,-1
16:25:04:71870,-1,-3,1,3,3,3,2,3
16:25:04:87606,-1,-3,1,3,3,3,2,3
16:25:04:88353,-1,0,0,-1,-4,-1,-2,0
16:25:04:94384,-3,-1,-2,0,1,-2,-1,1
16:25:04:102629,-3,-1,-2,0,1,-2,-1,1
16:25:04:103338,2,-1,-1,-2,2,-1,0,1
16:25:04:116859,0,0,-1,0,-14,-3,-2,0
16:25:04:125102,0,0,-1,0,-14,-3,-2,0
16:25:04:125878,3,0,0,7,6,5,4,3
16:25:04:131862,-5,-4,-1,4,0,3,1,0
16:25:04:147478,-5,-4,-1,4,0,3,1,0
16:25:04:148361,-1,-2,-2,-2,-6,-6,-2,-2
16:25:04:154360,-2,-2,0,-2,15,-1,-1,-7
16:25:04:162621,-2,-2,0,-2,15,-1,-1,-7
16:25:04:163340,0,-1,-2,-1,8,-1,-1,0
16:25:04:176894,2,3,-2,-3,-1,0,1,1
16:25:04:185527,2,3,-2,-3,-1,0,1,1
16:25:04:192520,0,0,-3,-3,-5,-3,-2,-1
16:25:04:193220,-2,-1,-2,-2,-4,-3,-3,0
16:25:04:207497,-2,-1,-2,-2,-4,-3,-3,0
16:25:04:208370,0,1,-1,-4,-5,-4,2,-1
16:25:04:214401,1,-1,-1,5,15,6,7,4
16:25:04:222586,1,-1,-1,5,15,6,7,4
16:25:04:223367,-1,-2,1,1,-9,-1,-8,-3
16:25:04:236864,-3,-3,-1,6,2,-5,0,-6
16:25:04:244976,-3,-3,-1,6,2,-5,0,-6
16:25:04:245871,-3,-3,-1,0,-6,-1,-4,-1
16:25:04:259357,0,-1,0,3,3,-1,-3,-3
16:25:04:267509,0,-1,0,3,3,-1,-3,-3
16:25:04:268360,-7,-1,1,6,-3,-2,-21,-6
16:25:04:283102,-2,2,-1,-4,-8,-2,0,-8
16:25:04:283967,-2,2,-1,-4,-8,-2,0,-8
16:25:04:284863,2,0,0,-4,7,-1,0,-3
16:25:04:296868,-7,-6,-5,-12,4,-4,-6,1
16:25:04:313255,-7,-6,-5,-12,4,-4,-6,1
16:25:04:313993,0,-5,-5,-21,8,6,4,0
16:25:04:314862,-2,-3,-2,-7,-13,-1,4,-1
16:25:04:327503,-2,-3,-2,-7,-13,-1,4,-1
16:25:04:328370,3,-1,-3,0,-8,-6,-2,-2
16:25:04:343239,5,2,1,-1,-3,-2,-5,2
16:25:04:343987,5,2,1,-1,-3,-2,-5,2
16:25:04:344861,1,0,1,4,6,2,6,7
16:25:04:356858,2,3,0,2,2,1,-9,1
16:25:04:373239,2,3,0,2,2,1,-9,1
16:25:04:373968,0,-2,-6,7,-15,-6,-2,-7
16:25:04:374853,0,-2,-2,-6,-1,2,0,3
16:25:04:387617,0,-2,-2,-6,-1,2,0,3
16:25:04:388338,2,0,4,1,14,3,3,-1
16:25:04:394389,0,-3,-5,-4,-28,-6,-3,-3
16:25:04:402625,0,-3,-5,-4,-28,-6,-3,-3
16:25:04:403356,-4,0,1,4,1,2,5,1
16:25:04:425806,1,0,3,-1,0,-2,3,2
16:25:04:426480,1,0,3,-1,0,-2,3,2
16:25:04:427382,-1,0,-1,-4,-5,-5,-4,-1
16:25:04:431853,3,0,0,5,3,2,3,0
16:25:04:455759,3,0,0,5,3,2,3,0
16:25:04:456484,-2,0,-1,-1,5,-2,-8,-6
16:25:04:457405,-5,-2,-3,1,1,-3,-1,-1
16:25:04:462633,-5,-2,-3,1,1,-3,-1,-1
16:25:04:463367,-1,-3,0,-3,-3,-3,-4,-4
16:25:04:476884,0,-1,0,1,-9,-1,-2,-1
16:25:04:485099,0,-1,0,1,-9,-1,-2,-1
16:25:04:485933,1,0,1,0,1,6,18,6
16:25:04:491877,-2,1,2,3,3,-2,-2,-2
16:25:04:507671,-2,1,2,3,3,-2,-2,-2
16:25:04:508374,3,0,-1,2,-2,-4,0,2
16:25:04:514348,1,0,-3,-4,-2,-3,-3,0
16:25:04:522612,1,0,-3,-4,-2,-3,-3,0
16:25:04:523351,0,0,-3,-1,17,4,0,-2
16:25:04:536886,1,-1,0,1,5,3,-3,2
16:25:04:545110,1,-1,0,1,5,3,-3,2
16:25:04:545875,-2,0,-1,-5,-10,-4,0,-2
16:25:04:559405,-3,-3,-3,-8,-6,2,-2,-1
16:25:04:567490,-3,-3,-3,-8,-6,2,-2,-1
16:25:04:568361,-6,-6,-16,0,2,-4,-8,-9
16:25:04:574386,1,0,-1,-2,-3,1,2,1
16:25:04:581865,1,0,-1,-2,-3,1,2,1
16:25:04:589360,1,2,4,0,4,3,0,0
16:25:04:596854,-2,-1,-3,-2,-2,-5,0,-3
16:25:04:605116,-2,-1,-3,-2,-2,-5,0,-3
16:25:04:605851,-1,1,1,-3,-4,-3,-1,2
16:25:04:619361,-3,-2,0,3,1,-3,-4,-1
16:25:04:627689,-3,-2,0,3,1,-3,-4,-1
16:25:04:628364,-1,-1,1,3,-2,2,0,0
16:25:04:634352,0,-2,0,-2,2,-3,0,-3
16:25:04:650043,0,-2,0,-2,2,-3,0,-3
16:25:04:650877,0,-2,-1,-5,-9,0,1,0
16:25:04:656904,-4,-1,-2,1,3,0,0,-5
16:25:04:672484,-4,-1,-2,1,3,0,0,-5
16:25:04:673356,-2,-1,2,-4,-7,-1,-2,-1
16:25:04:679400,-2,-1,0,5,-1,-3,-1,-1
16:25:04:687516,-2,-1,0,5,-1,-3,-1,-1
16:25:04:688347,-1,-5,-3,-5,10,-3,-3,-2
16:25:04:702488,-2,-2,-3,3,-5,-3,-3,-4
16:25:04:703376,-2,-2,-3,3,-5,-3,-3,-4
16:25:04:709395,0,1,2,5,4,10,13,6
16:25:04:716887,-1,-2,0,-1,2,-2,-2,-1
16:25:04:732636,-1,-2,0,-1,2,-2,-2,-1
16:25:04:733356,-2,-1,-1,1,-2,-5,-4,-3
16:25:04:739354,1,0,0,-2,3,-2,-4,-8
16:25:04:755776,1,0,0,-2,3,-2,-4,-8
16:25:04:756491,-1,0,-2,1,1,-1,-3,-2
16:25:04:757355,3,0,-2,-2,4,3,6,2
16:25:04:761872,3,0,-2,-2,4,3,6,2
16:25:04:769347,-1,0,0,-2,-6,-3,-4,-5
16:25:04:785743,-1,-2,1,-1,2,0,5,4
16:25:04:786483,-1,-2,1,-1,2,0,5,4
16:25:04:787380,-2,0,0,-5,-13,-7,-3,0
16:25:04:799368,-2,0,0,-5,-4,-1,-3,0
16:25:04:815821,-2,0,0,-5,-4,-1,-3,0
16:25:04:816548,2,-2,-2,-6,-6,3,-2,-5
16:25:04:817349,-1,1,-1,0,1,0,0,3
16:25:04:821862,-1,1,-1,0,1,0,0,3
16:25:04:829433,-2,-1,0,0,-11,-5,-7,-4
16:25:04:836856,-2,-1,0,0,-3,5,3,5
16:25:04:845130,-2,-1,0,0,-3,5,3,5
16:25:04:845923,-1,0,-1,1,-2,-1,0,4
16:25:04:859384,0,1,-1,-4,0,-5,-3,0
16:25:04:867514,0,1,-1,-4,0,-5,-3,0
16:25:04:868393,-3,-2,-1,0,0,-1,-1,-2
16:25:04:874379,-3,-2,-3,8,-5,-4,-4,-2
16:25:04:881887,-3,-2,-3,8,-5,-4,-4,-2
16:25:04:889362,0,-1,0,-5,4,4,0,0
16:25:04:896864,-2,-2,-2,0,-1,-3,-2,-3
16:25:04:905136,-2,-2,-2,0,-1,-3,-2,-3
16:25:04:905920,-3,-2,-1,6,16,4,4,3
16:25:04:919369,2,2,-1,2,15,2,-3,0
16:25:04:927636,2,2,-1,2,15,2,-3,0
16:25:04:928361,-1,-5,-10,-5,-5,-2,-2,-2
16:25:04:934406,-3,-2,-3,-4,-5,-2,-1,-4
16:25:04:949994,-3,-2,-3,-4,-5,-2,-1,-4
16:25:04:950869,-3,-1,0,5,7,-2,-4,-1
16:25:04:956903,2,2,-2,3,11,0,-2,-1
16:25:04:965104,2,2,-2,3,11,0,-2,-1
16:25:04:965861,1,0,1,0,2,-4,-3,0
16:25:04:979382,0,0,4,-18,5,1,0,2
16:25:04:987494,0,0,4,-18,5,1,0,2
16:25:04:988349,-2,0,1,11,15,-5,-4,-3
16:25:04:994392,1,-3,-3,1,-6,2,4,-1
16:25:05:1865,1,-3,-3,1,-6,2,4,-1
16:25:05:9368,1,-1,-2,-8,-8,-4,-3,-2
16:25:05:16871,-1,0,-1,1,-1,2,0,-1
16:25:05:32503,-1,0,-1,1,-1,2,0,-1
16:25:05:33367,-3,-4,7,-3,-14,-3,1,-1
16:25:05:39382,-8,-4,3,-2,5,1,-1,-2
16:25:05:47626,-8,-4,3,-2,5,1,-1,-2
16:25:05:48372,-1,2,2,-3,-3,0,2,-2
16:25:05:62524,1,0,-1,-3,-4,-2,-3,-2
16:25:05:63377,1,0,-1,-3,-4,-2,-3,-2
16:25:05:69351,-1,1,0,1,3,2,-1,-1
16:25:05:76916,2,1,-3,2,-21,-4,0,3
16:25:05:85146,2,1,-3,2,-21,-4,0,3
16:25:05:85953,0,-2,-3,-2,-5,0,0,-1
16:25:05:99381,-2,-3,1,0,-2,0,0,-2
16:25:05:107490,-2,-3,1,0,-2,0,0,-2
16:25:05:108359,0,-1,-3,-6,1,3,4,0
16:25:05:114359,-2,-3,-3,-6,3,-3,-4,-2
16:25:05:121867,-2,-3,-3,-6,3,-3,-4,-2
16:25:05:129385,-3,-2,-1,2,3,0,0,-4
16:25:05:145783,0,0,0,-6,-14,-2,1,-2
16:25:05:146488,0,0,0,-6,-14,-2,1,-2
16:25:05:147370,-3,-7,-15,0,2,-3,-2,1
16:25:05:159418,1,-2,-1,1,-5,-1,-1,0
16:25:05:175780,1,-2,-1,1,-5,-1,-1,0
16:25:05:176545,2,4,6,-5,-10,-3,-3,-3
16:25:05:177276,-3,-6,0,-1,-13,-5,-3,-5
16:25:05:181879,-3,-6,0,-1,-13,-5,-3,-5
16:25:05:189400,-1,1,0,0,-5,3,-1,0
16:25:05:196870,-1,-1,0,-9,1,0,3,-1
16:25:05:204978,-1,-1,0,-9,1,0,3,-1
16:25:05:205849,1,1,3,-3,-6,-6,-4,-4
16:25:05:228254,2,-1,-4,4,3,2,-2,-1
16:25:05:228988,2,-1,-4,4,3,2,-2,-1
16:25:05:229876,0,0,-1,-2,-5,-1,-3,0
16:25:05:234382,0,-1,-3,-4,-1,1,0,-2
16:25:05:241899,0,-1,-3,-4,-1,1,0,-2
16:25:05:249361,-3,-1,0,-5,-2,-2,-2,-3
16:25:05:256874,0,3,-2,2,12,-1,-1,0
16:25:05:265000,0,3,-2,2,12,-1,-1,0
16:25:05:265863,0,-5,-7,4,8,-4,-2,-2
16:25:05:279392,3,2,-3,4,8,1,-2,-1
16:25:05:295780,3,2,-3,4,8,1,-2,-1
16:25:05:296474,-8,-5,0,-1,-2,-1,-2,-1
16:25:05:297397,-3,-2,3,-10,-8,-3,0,1
16:25:05:309998,-3,-2,3,-10,-8,-3,0,1
16:25:05:310864,0,0,-1,-2,0,-3,-1,1
16:25:05:316873,-6,-1,2,9,-1,-2,-4,-2
16:25:05:325108,-6,-1,2,9,-1,-2,-4,-2
16:25:05:325875,-1,1,-2,-1,13,3,1,-1
16:25:05:339363,0,-2,-5,-12,9,3,0,0
16:25:05:347504,0,-2,-5,-12,9,3,0,0
16:25:05:348382,1,-1,5,-1,8,4,0,0
16:25:05:354374,-2,0,-1,-3,-5,2,-1,-1
16:25:05:361878,-2,0,-1,-3,-5,2,-1,-1
16:25:05:369349,-7,-1,1,-3,-6,-3,-2,1
16:25:05:376881,-1,-2,-1,-1,1,-3,1,-1
16:25:05:385479,-1,-2,-1,-1,1,-3,1,-1
16:25:05:391892,2,0,-2,-3,-7,0,0,2
16:25:05:399380,-3,1,-1,7,-6,-2,2,-2
16:25:05:407555,-3,1,-1,7,-6,-2,2,-2
16:25:05:408367,1,-1,-2,4,15,5,2,0
16:25:05:414379,1,-1,6,-1,-2,-4,-4,-1
16:25:05:421867,1,-1,6,-1,-2,-4,-4,-1
16:25:05:429379,-3,-1,1,11,-8,-4,-2,-4
16:25:05:436870,-2,-2,2,4,-1,-2,-1,-1
16:25:05:445003,-2,-2,2,4,-1,-2,-1,-1
16:25:05:445866,-1,-1,-4,4,-8,-5,-2,-2
16:25:05:459373,-1,-5,-4,-9,-13,0,-2,-1
16:25:05:467505,-1,-5,-4,-9,-13,0,-2,-1
16:25:05:468373,-2,-5,5,-2,11,0,0,-2
16:25:05:482484,-2,-3,-3,-4,-11,-4,-2,-2
16:25:05:483382,-2,-3,-3,-4,-11,-4,-2,-2
16:25:05:489378,0,0,3,-1,6,1,0,1
16:25:05:496937,1,-1,-1,-3,21,-1,-1,-4
16:25:05:504376,1,-1,-1,-3,21,-1,-1,-4
16:25:05:511886,0,0,-5,-24,38,12,1,-5
16:25:05:519365,-1,-1,-6,-1,-6,-2,1,0
16:25:05:535022,-1,-1,-6,-1,-6,-2,1,0
16:25:05:535875,1,-3,-6,-7,-14,-5,-2,-1
16:25:05:542535,-1,2,1,1,12,2,-1,0
16:25:05:543435,-1,2,1,1,12,2,-1,0
16:25:05:549368,1,0,-2,4,-16,-3,1,0
16:25:05:556914,0,1,-2,5,-9,-3,-3,0
16:25:05:564389,0,1,-2,5,-9,-3,-3,0
16:25:05:571875,-4,-2,-3,4,-9,-4,-2,-3
16:25:05:588234,1,1,-4,-4,-4,0,-3,0
16:25:05:588976,1,1,-4,-4,-4,0,-3,0
16:25:05:589878,0,0,2,-6,-18,-2,-1,0
16:25:05:602480,-2,-3,-9,-3,8,1,-2,-2
16:25:05:603383,-2,-3,-9,-3,8,1,-2,-2
16:25:05:617509,-1,-4,-4,1,-23,-7,-3,0
16:25:05:618399,1,1,1,-5,-5,2,3,1
16:25:05:624518,1,1,1,-5,-5,2,3,1
16:25:05:631894,-3,0,-1,-4,-12,-2,-1,-1
16:25:05:648257,-2,-2,-1,4,3,2,0,-3
16:25:05:649012,-2,-2,-1,4,3,2,0,-3
16:25:05:649879,1,-2,-3,-2,3,0,-1,-1
16:25:05:662529,-2,0,1,5,3,-3,-1,-4
16:25:05:663372,-2,0,1,5,3,-3,-1,-4
16:25:05:669358,2,3,-3,-6,-2,-1,-1,-1
16:25:05:676882,-8,-4,1,-1,4,0,-3,-5
16:25:05:684490,-8,-4,1,-1,4,0,-3,-5
16:25:05:691882,0,-2,-2,6,9,2,1,1
16:25:05:699371,1,-2,-4,0,1,-2,-2,-1
16:25:05:707536,1,-2,-4,0,1,-2,-2,-1
16:25:05:708383,-2,0,0,1,-6,0,-1,-1
16:25:05:722275,1,1,0,1,-1,-4,-4,-1
16:25:05:730124,1,1,0,1,-1,-4,-4,-1
16:25:05:730870,0,3,0,-7,-11,-1,-2,-2
16:25:05:736859,-2,1,2,3,-5,-2,0,0
16:25:05:744376,-2,1,2,3,-5,-2,0,0
16:25:05:751866,-2,-3,-1,3,26,3,0,0
16:25:05:759417,3,0,3,-3,5,-5,-1,2
16:25:05:767505,3,0,3,-3,5,-5,-1,2
16:25:05:768364,-2,1,-1,5,11,0,0,-6
16:25:05:782497,1,-2,6,4,-7,2,0,-3
16:25:05:783362,1,-2,6,4,-7,2,0,-3
16:25:05:789378,-1,-1,2,-2,-4,-5,-5,0
16:25:05:796871,0,0,-2,-7,-9,-2,-2,-2
16:25:05:804362,0,0,-2,-7,-9,-2,-2,-2
16:25:05:811876,0,-2,-4,-6,-3,-2,-1,-2
16:25:05:819361,0,1,1,4,5,4,1,4
16:25:05:827496,0,1,1,4,5,4,1,4
16:25:05:828374,0,-2,-3,-3,-8,-1,1,2
16:25:05:842548,0,-2,-2,-5,-14,-3,1,-1
16:25:05:843381,0,-2,-2,-5,-14,-3,1,-1
16:25:05:849401,2,0,-1,-1,-8,-2,-1,-1
16:25:05:865000,0,-9,-22,-7,-10,1,-1,0
16:25:05:865864,0,-9,-22,-7,-10,1,-1,0
16:25:05:871860,-3,0,-4,8,9,-1,-3,1
16:25:05:879389,-5,-1,2,-1,0,-5,-2,-2
16:25:05:887384,-5,-1,2,-1,0,-5,-2,-2
16:25:05:894425,-1,0,0,-5,-15,1,1,-2
16:25:05:902495,1,0,-3,3,13,5,2,0
16:25:05:903371,1,0,-3,3,13,5,2,0
16:25:05:909381,-1,-2,1,8,17,-3,0,0
16:25:05:916880,-2,0,2,-7,-17,-3,0,0
16:25:05:924361,-2,0,2,-7,-17,-3,0,0
16:25:05:931874,-9,-2,2,-3,-11,-5,-2,0
16:25:05:939382,-1,2,3,-2,9,-1,-1,-3
16:25:05:947647,-1,2,3,-2,9,-1,-1,-3
16:25:05:948373,-2,-4,-3,-1,14,-2,-2,-4
16:25:05:962525,0,0,2,-1,-2,0,0,1
16:25:05:963376,0,0,2,-1,-2,0,0,1
16:25:05:977543,-1,0,0,2,-11,0,-1,-2
16:25:05:978228,0,0,0,2,5,0,-1,-2
16:25:05:984386,0,0,0,2,5,0,-1,-2
16:25:05:991873,-1,-3,-11,-7,-27,-5,-2,-1
16:25:06:8130,-3,5,11,2,-16,0,-2,-3
16:25:06:8987,-3,5,11,2,-16,0,-2,-3
16:25:06:9867,1,1,7,7,6,-2,-2,0
16:25:06:22531,-6,-6,-1,2,-11,-5,-5,-2
16:25:06:23385,-6,-6,-1,2,-11,-5,-5,-2
16:25:06:29430,0,-4,-3,-4,3,4,4,2
16:25:06:36863,1,1,1,3,8,1,0,0
16:25:06:44378,1,1,1,3,8,1,0,0
16:25:06:60017,-1,-3,-1,-3,-1,-2,-1,-2
16:25:06:60869,-2,-5,-7,0,-4,-4,-3,-2
16:25:06:67503,-2,-5,-7,0,-4,-4,-3,-2
16:25:06:68374,-2,0,0,2,-34,-7,-1,-2
16:25:06:82263,1,0,-5,-2,7,-1,-1,1
16:25:06:90036,1,0,-5,-2,7,-1,-1,1
16:25:06:90886,0,2,1,5,10,1,-1,1
16:25:06:96943,0,-4,-15,-3,7,-2,-1,-3
16:25:06:104424,0,-4,-15,-3,7,-2,-1,-3
16:25:06:120020,2,1,3,-5,-1,0,-1,0
16:25:06:120908,2,1,3,-4,1,1,0,1
16:25:06:127567,2,1,3,-4,1,1,0,1
16:25:06:128391,-1,-3,-6,-12,0,5,0,-1
16:25:06:143042,0,0,2,5,-18,-7,-2,-1
16:25:06:143770,0,0,2,5,-18,-7,-2,-1
16:25:06:149380,-3,-1,0,-9,-31,-6,-5,-3
16:25:06:156867,-2,0,1,-7,-6,-2,-1,0
16:25:06:172675,-2,0,1,-7,-6,-2,-1,0
16:25:06:173386,-3,0,-2,-1,-4,-3,-3,-3
16:25:06:179411,3,0,-4,2,6,2,1,1
16:25:06:187652,3,0,-4,2,6,2,1,1
16:25:06:188372,-2,0,1,3,10,1,0,-1
16:25:06:202506,-1,1,-5,11,8,-4,-1,-3
16:25:06:203494,-1,1,-5,11,8,-4,-1,-3
16:25:06:209400,2,5,-2,-3,-5,-1,-2,-2
16:25:06:225036,-5,-3,3,0,9,0,-2,0
16:25:06:225901,-5,-3,3,0,9,0,-2,0
16:25:06:231886,-1,-2,-3,-7,1,3,-2,-1
16:25:06:239370,0,0,0,-8,-9,1,-2,-3
16:25:06:247644,0,0,0,-8,-9,1,-2,-3
16:25:06:248395,-3,-2,3,0,15,0,-2,-7
16:25:06:263002,-1,-3,-1,-4,0,1,0,-4
16:25:06:263882,-1,-3,-1,-4,0,1,0,-4
16:25:06:269376,-2,-1,3,0,0,-1,0,1
16:25:06:285010,0,-1,-1,7,19,1,-2,-1
16:25:06:285871,0,-1,-1,7,19,1,-2,-1
16:25:06:291891,3,0,-2,2,7,0,0,1
16:25:06:299426,-8,-9,-1,-8,-11,-3,0,2
16:25:06:315013,-8,-9,-1,-8,-11,-3,0,2
16:25:06:315884,0,0,0,2,8,0,-2,-1
16:25:06:322536,3,2,2,-7,-15,-1,0,-1
16:25:06:323385,3,2,2,-7,-15,-1,0,-1
16:25:06:329437,-1,-7,-10,1,4,-1,0,0
16:25:06:336889,1,1,2,-1,3,0,-1,0
16:25:06:344531,1,1,2,-1,3,0,-1,0
16:25:06:351877,-1,-1,3,7,6,-1,0,1
16:25:06:368249,1,0,-1,3,12,0,-2,-2
16:25:06:369015,1,0,-1,3,12,0,-2,-2
16:25:06:369886,0,0,-2,1,3,1,1,-1
16:25:06:382521,-1,-2,-1,-7,9,6,3,1
16:25:06:383410,-1,-2,-1,-7,9,6,3,1
16:25:06:389377,1,4,6,-2,-8,-4,-2,-2
16:25:06:396878,1,0,6,-4,-11,-3,-1,-1
16:25:06:404400,1,0,6,-4,-11,-3,-1,-1
16:25:06:420006,-4,-2,-3,-18,-1,3,0,1
16:25:06:420873,-1,-2,-5,2,-5,-3,-2,0
16:25:06:427535,-1,-2,-5,2,-5,-3,-2,0
16:25:06:428374,1,1,2,5,-6,-3,-3,0
16:25:06:443135,0,0,-6,-3,0,-1,0,1
16:25:06:444029,0,0,-6,-3,0,-1,0,1
16:25:06:456915,-2,-2,-3,-1,-2,-2,-3,0
16:25:06:465019,-3,-2,0,0,-1,-2,-3,-4
16:25:06:465886,-3,-2,0,0,-1,-2,-3,-4
16:25:06:480019,-3,-4,-3,0,-8,-6,-4,-4
16:25:06:480741,0,-3,-5,-5,-14,-1,-3,-1
16:25:06:486893,0,-3,-5,-5,-14,-1,-3,-1
16:25:06:494405,4,0,-4,5,18,2,0,0
16:25:06:502506,0,-3,-2,-1,0,-2,1,-1
16:25:06:503401,0,-3,-2,-1,0,-2,1,-1
16:25:06:509406,1,-3,-21,0,1,0,-2,-1
16:25:06:541390,-3,0,-2,0,2,0,-2,-1
16:25:06:542127,-3,0,-2,0,2,0,-2,-1
16:25:06:542999,-3,-3,4,4,1,-2,-1,-2
16:25:06:543745,0,-1,-3,-2,-1,0,-1,0
16:25:06:546888,0,-1,-3,-2,-1,0,-1,0
16:25:06:554389,-1,1,4,6,-10,-5,-1,-1
16:25:06:562516,-1,-4,-7,1,3,4,3,2
16:25:06:563366,-1,-4,-7,1,3,4,3,2
16:25:06:569381,-2,2,6,-1,13,3,0,-1
16:25:06:585030,-10,-3,8,-3,-8,-4,-2,-2
16:25:06:585872,-10,-3,8,-3,-8,-4,-2,-2
16:25:06:591908,-1,-6,-7,-8,-10,3,0,-2
16:25:06:599384,3,1,0,1,-4,-1,0,-1
16:25:06:623904,3,1,0,1,-4,-1,0,-1
16:25:06:624791,-2,-1,-5,-6,-6,-2,-1,-1
16:25:06:625558,-2,1,1,-3,-5,-3,-4,-3
16:25:06:626406,-2,1,1,-3,-5,-3,-4,-3
16:25:06:629415,0,-1,-11,-6,20,2,1,-2
16:25:06:645016,2,3,-3,-1,1,-2,-1,0
16:25:06:645890,2,3,-3,-1,1,-2,-1,0
16:25:06:651879,0,-1,5,-3,-10,-3,-2,-2
16:25:06:684527,0,-1,4,1,3,0,-1,0
16:25:06:685368,0,-1,4,1,3,0,-1,0
16:25:06:686112,-2,0,1,4,-3,-3,1,1
16:25:06:686999,-2,-2,4,3,0,0,0,2
16:25:06:706389,-2,-2,4,3,0,0,0,2
16:25:06:707128,1,1,7,3,14,-1,-3,-2
16:25:06:708027,1,1,-6,10,53,11,2,2
16:25:06:708882,1,1,-6,10,53,11,2,2
16:25:06:711864,-3,-1,-1,-3,-4,-3,0,-6
16:25:06:735640,0,-2,2,-1,-14,-4,0,-2
16:25:06:736508,0,-2,2,-1,-14,-4,0,-2
16:25:06:737269,2,1,-2,0,-1,0,-2,2
16:25:06:742530,-2,-2,-4,-6,-14,-4,-3,-2
16:25:06:743386,-2,-2,-4,-6,-14,-4,-3,-2
16:25:06:749365,1,2,-2,-2,-9,-3,2,2
16:25:06:765010,-1,-1,-4,-2,-9,-3,-2,-3
16:25:06:765883,-1,-1,-4,-2,-9,-3,-2,-3
16:25:06:771890,-4,0,4,1,0,-1,-3,-2
16:25:06:787513,-2,-5,-8,-4,-22,-7,-5,-9
16:25:06:788383,-2,-5,-8,-4,-22,-7,-5,-9
16:25:06:794377,-1,-3,-2,-2,-10,-3,-2,-1
16:25:06:818650,-1,0,1,-5,-10,-3,-1,-1
16:25:06:819511,-1,0,1,-5,-10,-3,-1,-1
16:25:06:825783,-2,2,-3,-2,-2,-2,0,0
16:25:06:826510,1,3,1,3,0,-4,-2,-1
16:25:06:827386,1,3,1,3,0,-4,-2,-1
16:25:06:831893,-1,-1,3,-4,0,4,3,0
16:25:06:839373,-3,-3,-2,-7,-1,-3,-1,1
16:25:06:846913,-3,-3,-2,-7,-1,-3,-1,1
16:25:06:854402,-1,-2,-2,-1,22,2,-2,-4
16:25:06:862555,-3,-3,-6,-1,18,3,-1,-3
16:25:06:863393,-3,-3,-6,-1,18,3,-1,-3
16:25:06:869397,1,-3,-1,2,-8,-3,-4,-2
16:25:06:885009,1,4,1,-2,-7,-1,0,0
16:25:06:885874,1,4,1,-2,-7,-1,0,0
16:25:06:900009,8,2,-2,-7,0,0,2,3
16:25:06:900737,2,-1,11,1,-3,-2,-2,0
16:25:06:906896,2,-1,11,1,-3,-2,-2,0
16:25:06:914374,-3,-3,-4,2,-8,-3,-2,1
16:25:06:922524,-8,-4,-2,9,-8,-3,-1,2
16:25:06:923376,-8,-4,-2,9,-8,-3,-1,2
16:25:06:929409,0,1,6,0,-11,-1,2,-1
16:25:06:953129,0,0,-3,-8,-8,-2,0,-2
16:25:06:954005,0,0,-3,-8,-8,-2,0,-2
16:25:06:954870,-3,-5,-9,6,8,6,0,1
16:25:06:959326,1,0,1,-3,6,-1,-2,-1
16:25:06:966897,1,0,1,-3,6,-1,-2,-1
16:25:06:974395,-3,-3,0,-4,-3,-2,0,-7
16:25:06:982509,3,-1,-2,3,9,7,7,8
16:25:06:983371,3,-1,-2,3,9,7,7,8
16:25:06:989387,-4,1,-1,0,0,-1,-3,-2
16:25:07:5019,0,-1,-3,-6,-9,-6,-2,-1
16:25:07:5893,0,-1,-3,-6,-9,-6,-2,-1
16:25:07:11898,0,-1,-1,-1,1,1,-2,-1
16:25:07:19382,-2,-1,-4,0,0,0,0,-3
16:25:07:26922,-2,-1,-4,0,0,0,0,-3
16:25:07:34393,-1,-2,0,-5,-2,-2,-1,-1
16:25:07:42507,-3,-1,-1,-1,1,2,0,-1
16:25:07:43380,-3,-1,-1,-1,1,2,0,-1
16:25:07:49552,0,-1,-1,-1,-9,-4,0,5
16:25:07:65019,2,1,1,-5,-16,-2,-1,-2
16:25:07:65870,2,1,1,-5,-16,-2,-1,-2
16:25:07:71889,-1,0,0,-2,-4,-1,-1,-1
16:25:07:79444,-5,1,-1,-1,-1,-2,-1,-3
16:25:07:86879,-5,1,-1,-1,-1,-2,-1,-3
16:25:07:94417,-1,-1,-2,1,-1,-3,-2,0
16:25:07:102496,1,-1,1,2,-2,-2,-1,-1
16:25:07:103406,1,-1,1,2,-2,-2,-1,-1
16:25:07:109417,-2,2,-1,-4,-5,-2,-2,-2
16:25:07:125040,0,-2,-7,2,2,1,-2,2
16:25:07:125893,0,-2,-7,2,2,1,-2,2
16:25:07:131893,-3,2,-2,-3,1,-1,-1,-4
16:25:07:139390,1,0,2,-1,-1,-3,-5,-1
16:25:07:155017,1,0,2,-1,-1,-3,-5,-1
16:25:07:155872,0,0,4,2,12,2,0,1
16:25:07:162541,-2,-5,-1,0,2,-1,-2,-4
16:25:07:163385,-2,-5,-1,0,2,-1,-2,-4
16:25:07:176898,-5,-3,-1,11,8,-3,-2,-1
16:25:07:185004,-2,-2,-2,-1,2,0,-2,-3
16:25:07:185900,-2,-2,-2,-1,2,0,-2,-3
16:25:07:191890,-3,-2,-2,-7,-6,-3,-3,-2
16:25:07:199438,-4,-5,-1,-4,-6,-2,-2,-2
16:25:07:206909,-4,-5,-1,-4,-6,-2,-2,-2
16:25:07:214397,2,-2,-3,0,24,3,-3,-5
16:25:07:222525,0,2,1,-3,1,0,-1,-3
16:25:07:223395,0,2,1,-3,1,0,-1,-3
16:25:07:229275,0,-3,-1,-3,-10,-3,-1,0
16:25:07:245021,-1,1,1,0,3,-2,3,0
16:25:07:245930,-1,1,1,0,3,-2,3,0
16:25:07:260012,2,1,1,-2,-2,-1,0,-1
16:25:07:260777,-2,1,0,1,-4,-2,-4,-1
16:25:07:266875,-2,1,0,1,-4,-2,-4,-1
16:25:07:274417,-1,5,0,-5,-15,-2,0,-2
16:25:07:282524,-4,-3,-2,3,9,2,1,2
16:25:07:283378,-4,-3,-2,3,9,2,1,2
16:25:07:289390,-2,-4,-1,-10,-4,-1,-1,-1
16:25:07:305795,-2,1,-3,-3,-3,2,2,1
16:25:07:306523,-2,1,-3,-3,-3,2,2,1
16:25:07:311926,1,-3,-4,4,2,-3,-1,1
16:25:07:319374,1,-1,-1,2,1,-2,-1,-1
16:25:07:326877,1,-1,-1,2,1,-2,-1,-1
16:25:07:334393,-1,-1,3,2,-4,-1,-2,-8
16:25:07:342521,-3,-2,-11,-3,-7,-2,-3,-3
16:25:07:343382,-3,-2,-11,-3,-7,-2,-3,-3
16:25:07:349304,0,-3,0,-3,-8,-5,-3,5
16:25:07:365541,1,-5,1,-2,-1,3,4,2
16:25:07:372547,1,-5,1,-2,-1,3,4,2
16:25:07:373401,1,-2,-2,4,-7,-1,-1,-1
16:25:07:379448,1,0,0,-3,9,-3,-2,1
16:25:07:386898,1,0,0,-3,9,-3,-2,1
16:25:07:394271,-1,-5,-9,3,12,0,-2,-1
16:25:07:402575,-2,-2,3,1,-1,1,0,-4
16:25:07:403393,-2,-2,3,1,-1,1,0,-4
16:25:07:416909,-4,0,-1,1,-7,-3,-1,-7
16:25:07:425041,-12,3,0,0,2,-3,-5,-4
16:25:07:425893,-12,3,0,0,2,-3,-5,-4
16:25:07:431775,-2,-2,-2,2,11,2,0,2
16:25:07:455814,2,-2,2,0,-6,-2,0,-2
16:25:07:456530,2,-2,2,0,-6,-2,0,-2
16:25:07:457410,1,1,0,-4,-7,-1,1,2
16:25:07:462559,-1,-4,-3,-2,-3,-1,-2,-1
16:25:07:463391,-1,-4,-3,-2,-3,-1,-2,-1
16:25:07:476912,1,-3,-3,-6,-4,0,1,-1
16:25:07:485124,1,-3,-3,-6,-4,0,1,-1
16:25:07:485901,4,1,2,-2,-5,-3,-2,-2
16:25:07:491894,-5,2,2,2,7,-2,-2,0
16:25:07:507576,-5,2,2,2,7,-2,-2,0
16:25:07:508406,-10,-5,-3,-4,14,1,-1,-3
16:25:07:514446,0,0,1,2,-10,-2,1,-1
16:25:07:522649,0,0,1,2,-10,-2,1,-1
16:25:07:523394,2,1,-1,-1,-4,-2,-3,2
16:25:07:537343,-1,3,1,-2,-1,1,0,-2
16:25:07:545047,-1,3,1,-2,-1,1,0,-2
16:25:07:545909,2,1,1,-1,-4,0,-1,-2
16:25:07:559295,0,-3,-1,-3,-7,-4,-3,0
16:25:07:567532,0,-3,-1,-3,-7,-4,-3,0
16:25:07:568403,1,-2,-4,0,0,-1,-2,-1
16:25:07:574421,0,-1,-1,-2,-5,-1,-3,-2
16:25:07:582534,0,-1,-1,-2,-5,-1,-3,-2
16:25:07:583391,-2,0,-5,6,11,-3,-1,-2
16:25:07:596771,-2,-5,-3,-5,14,3,0,0
16:25:07:605028,-2,-5,-3,-5,14,3,0,0
16:25:07:605924,-7,-4,4,-3,-14,-2,-2,1
16:25:07:611787,-1,-2,-1,-4,-5,-3,1,1
16:25:07:627560,-1,-2,-1,-4,-5,-3,1,1
16:25:07:628380,0,-1,-1,-2,1,0,0,-5
16:25:07:634254,-3,-1,2,0,-7,-4,-4,-5
16:25:07:642550,-3,-1,2,0,-7,-4,-4,-5
16:25:07:643416,3,4,-2,-2,-5,0,1,0
16:25:07:656766,0,1,2,-1,-3,0,-1,1
16:25:07:665027,0,1,2,-1,-3,0,-1,1
16:25:07:665881,0,-2,2,2,1,1,-2,-1
16:25:07:671753,-1,2,-4,-12,-21,-3,-1,0
16:25:07:687532,-1,2,-4,-12,-21,-3,-1,0
16:25:07:688388,-3,-3,2,-1,12,2,1,1
16:25:07:694271,0,-2,0,5,-12,-5,-4,-4
16:25:07:702501,0,-2,0,5,-12,-5,-4,-4
16:25:07:703381,-3,-3,-1,1,-5,0,2,1
16:25:07:716890,-2,-2,-2,1,10,2,-2,-2
16:25:07:725516,-2,-2,-2,1,10,2,-2,-2
16:25:07:732524,2,-5,-2,1,3,0,-2,-3
16:25:07:733260,-3,-1,0,0,3,-1,0,0
16:25:07:747510,-3,-1,0,0,3,-1,0,0
16:25:07:748379,4,2,0,-3,-9,-1,-1,2
16:25:07:754392,2,2,-4,4,2,-2,-2,-3
16:25:07:762565,2,2,-4,4,2,-2,-2,-3
16:25:07:763389,0,0,2,2,-14,-7,-2,-1
16:25:07:776900,0,-1,-2,6,17,3,1,0
16:25:07:785016,0,-1,-2,6,17,3,1,0
16:25:07:785894,2,1,-2,2,-2,-2,-3,0
16:25:07:791901,-2,0,3,-4,-9,-1,-1,3
16:25:07:808017,-2,0,3,-4,-9,-1,-1,3
16:25:07:815026,3,0,2,0,-3,-4,-2,-1
16:25:07:815877,-4,-5,0,-6,6,2,0,-1
16:25:07:822505,-4,-5,0,-6,6,2,0,-1
16:25:07:823399,0,3,-1,0,0,0,0,2
16:25:07:845807,-2,3,-3,-1,-2,-3,-2,1
16:25:07:846511,-2,3,-3,-1,-2,-3,-2,1
16:25:07:847379,-1,-1,-3,-6,-1,-1,-2,2
16:25:07:851884,-1,-1,-3,-2,3,-4,-2,1
16:25:07:867543,-1,-1,-3,-2,3,-4,-2,1
16:25:07:868387,1,0,-2,0,6,-1,-2,-1
16:25:07:874427,1,-1,-3,3,-16,-4,-1,-2
16:25:07:882524,1,-1,-3,3,-16,-4,-1,-2
16:25:07:883393,0,-1,-1,-3,-3,-2,-1,-1
16:25:07:896900,5,2,0,3,2,0,0,-2
16:25:07:905005,5,2,0,3,2,0,0,-2
16:25:07:905888,0,0,-1,-2,-3,0,1,-2
16:25:07:911910,-2,-4,-1,3,-2,-1,1,0
16:25:07:927562,-2,-4,-1,3,-2,-1,1,0
16:25:07:928412,-4,-6,-2,-2,-7,-6,-3,-2
16:25:07:934409,-1,-4,-1,-10,-6,1,0,-4
16:25:07:942541,-1,-4,-1,-10,-6,1,0,-4
16:25:07:943414,-1,0,1,-1,-11,-4,-2,-2
16:25:07:956810,-3,-3,-6,-3,-9,-1,-2,-2
16:25:07:965012,-3,-3,-6,-3,-9,-1,-2,-2
16:25:07:965901,-1,-1,2,5,15,2,0,1
16:25:07:971898,2,3,2,2,9,3,2,2
16:25:07:987520,2,3,2,2,9,3,2,2
16:25:07:988404,-2,-2,-7,-2,-2,0,-2,-1
16:25:07:994317,-2,0,1,-1,2,1,0,-1
16:25:08:2562,-2,0,1,-1,2,1,0,-1
16:25:08:3398,2,1,1,-2,-1,1,0,1
16:25:08:16776,-2,-3,-2,1,-4,-4,-2,-3
16:25:08:25009,-2,-3,-2,1,-4,-4,-2,-3
16:25:08:25943,-4,-2,-3,2,17,3,-1,-4
16:25:08:31754,-2,-1,0,1,3,1,0,-1
16:25:08:47523,-2,-1,0,1,3,1,0,-1
16:25:08:48404,-2,-1,-1,-2,-3,-1,0,0
16:25:08:54285,1,1,1,0,11,3,1,0
16:25:08:62514,1,1,1,0,11,3,1,0
16:25:08:63388,-3,0,-2,0,-4,0,-1,-9
16:25:08:76902,-1,-2,3,-5,-8,-3,-3,-2
16:25:08:85029,-1,-2,3,-5,-8,-3,-3,-2
16:25:08:85905,0,0,-3,-3,-6,-2,-1,3
16:25:08:91764,1,-1,-2,0,-6,2,1,2
16:25:08:107534,1,-1,-2,0,-6,2,1,2
16:25:08:108403,0,-2,-3,-4,6,0,1,1
16:25:08:114400,2,0,-2,-3,-2,-2,-2,-2
16:25:08:122505,2,0,-2,-3,-2,-2,-2,-2
16:25:08:123386,-3,-2,2,-5,-9,0,0,-1
16:25:08:136898,-3,0,0,-3,1,-1,-2,-2
16:25:08:145057,-3,0,0,-3,1,-1,-2,-2
16:25:08:145932,-2,-1,2,3,-3,-6,-4,-2
16:25:08:151923,1,1,-1,-4,-9,-4,-1,2
16:25:08:168041,1,1,-1,-4,-9,-4,-1,2
16:25:08:175096,1,1,-3,0,-10,-4,-3,0
16:25:08:175881,0,0,0,-1,3,1,-1,-1
16:25:08:182557,0,0,0,-1,3,1,-1,-1
16:25:08:183383,-2,-4,-12,-6,-2,-4,-4,-8
16:25:08:196917,-5,-2,-1,-4,22,8,5,6
16:25:08:205027,-5,-2,-1,-4,22,8,5,6
16:25:08:205913,0,-2,1,-2,1,1,2,-1
16:25:08:211901,0,-1,-2,2,-3,-3,-2,-2
16:25:08:227664,0,-1,-2,2,-3,-3,-2,-2
16:25:08:228415,-1,2,2,-1,2,-1,-3,-1
16:25:08:234390,-2,-3,-2,0,-9,-4,-2,0
16:25:08:242566,-2,-3,-2,0,-9,-4,-2,0
16:25:08:243427,0,-2,1,-1,-3,-1,0,-3
16:25:08:256926,-1,0,1,-1,7,-1,-2,-3
16:25:08:265138,-1,0,1,-1,7,-1,-2,-3
16:25:08:265881,-4,-1,0,-2,2,1,0,-1
16:25:08:271903,-5,0,-1,-3,-10,-4,-4,-4
16:25:08:288030,-5,0,-1,-3,-10,-4,-4,-4
16:25:08:288910,1,2,8,1,-1,-2,0,2
16:25:08:294397,-7,-8,-4,-3,-10,-5,-4,-3
16:25:08:302530,-7,-8,-4,-3,-10,-5,-4,-3
16:25:08:303401,-1,0,2,-1,-4,3,0,1
16:25:08:316783,-1,0,0,-3,-1,2,1,-3
16:25:08:325014,-1,0,0,-3,-1,2,1,-3
16:25:08:325936,2,-5,-10,-2,5,-2,0,1
16:25:08:339784,1,-1,-6,2,15,5,3,2
16:25:08:347539,1,-1,-6,2,15,5,3,2
16:25:08:348403,-2,0,1,1,3,1,0,0
16:25:08:370651,-3,-1,0,2,-16,-6,-3,-3
16:25:08:371513,-3,-1,0,2,-16,-6,-3,-3
16:25:08:372323,-1,-2,0,4,10,0,1,0
16:25:08:376930,0,-1,1,0,-8,-2,-2,-1
16:25:08:385038,0,-1,1,0,-8,-2,-2,-1
16:25:08:385916,-2,-3,1,-3,-8,-1,-1,-1
16:25:08:399403,2,-2,-3,2,7,1,1,0
16:25:08:415795,2,-2,-3,2,7,1,1,0
16:25:08:416545,2,1,-2,-7,-6,-4,-2,1
16:25:08:417416,-4,2,3,2,-5,-1,-1,-4
16:25:08:421890,-4,2,3,2,-5,-1,-1,-4
16:25:08:429439,-3,-1,2,-7,-8,-2,-2,-1
16:25:08:436911,-1,0,0,2,2,0,-1,0
16:25:08:452518,-1,0,0,2,2,0,-1,0
16:25:08:453429,-1,-1,-3,-5,-2,1,1,1
16:25:08:459398,0,-3,-3,-4,-3,-2,-2,-3
16:25:08:467530,0,-3,-3,-4,-3,-2,-2,-3
16:25:08:468383,-2,3,0,2,-3,-2,0,-2
16:25:08:474385,-1,-5,-3,-2,-3,-1,-1,-2
16:25:08:481890,-1,-5,-3,-2,-3,-1,-1,-2
16:25:08:489450,-6,-7,-2,7,-2,1,2,3
16:25:08:496934,-1,1,-1,0,2,-1,-2,0
16:25:08:505051,-1,1,-1,0,2,-1,-2,0
16:25:08:505905,0,0,-3,-4,0,-1,-2,-2
16:25:08:519420,0,-6,-11,5,19,8,4,2
16:25:08:535809,0,-6,-11,5,19,8,4,2
16:25:08:536561,0,-2,-2,-3,2,-4,-5,-2
16:25:08:537415,2,3,3,-6,-7,-3,-3,2
16:25:08:541946,2,3,3,-6,-7,-3,-3,2
16:25:08:549399,-1,-5,-7,4,7,-1,0,-2
16:25:08:556900,0,0,2,7,9,1,1,-1
16:25:08:565047,0,0,2,7,9,1,1,-1
16:25:08:565886,0,0,2,-4,-7,-3,-2,-2
16:25:08:579427,-1,4,2,-11,-8,-4,-1,-6
16:25:08:587521,-1,4,2,-11,-8,-4,-1,-6
16:25:08:588406,1,-3,-1,0,6,6,2,-2
16:25:08:594416,1,-3,-1,-3,-11,-7,-5,-1
16:25:08:601901,1,-3,-1,-3,-11,-7,-5,-1
16:25:08:609282,-1,-1,1,-2,14,6,4,0
16:25:08:616781,-3,-3,-1,-2,-3,-1,-2,1
16:25:08:625032,-3,-3,-1,-2,-3,-1,-2,1
16:25:08:625926,1,4,0,1,-7,-4,-2,2
16:25:08:639420,-1,1,-1,-3,-11,-3,-1,-1
16:25:08:647528,-1,1,-1,-3,-11,-3,-1,-1
16:25:08:648383,0,-2,-4,2,-3,-1,0,-1
16:25:08:654270,-1,-2,1,2,-2,-5,-1,-1
16:25:08:661892,-1,-2,1,2,-2,-5,-1,-1
16:25:08:669316,-3,2,3,-9,-15,-5,-4,-4
16:25:08:676806,5,-2,0,9,31,4,1,-3
16:25:08:685024,5,-2,0,9,31,4,1,-3
16:25:08:685925,-1,-1,-2,0,-7,-7,-9,-1
16:25:08:699278,0,2,0,-4,-14,-2,1,0
16:25:08:707560,0,2,0,-4,-14,-2,1,0
16:25:08:708421,-4,1,-6,-5,-8,-3,-4,-4
16:25:08:714287,-2,-1,2,3,4,0,-1,-3
16:25:08:721905,-2,-1,2,3,4,0,-1,-3
16:25:08:729426,-3,-2,1,2,0,0,1,0
16:25:08:736895,-4,0,-2,-1,0,0,-2,-2
16:25:08:745030,-4,0,-2,-1,0,0,-2,-2
16:25:08:745939,2,-1,-1,3,1,0,-1,-2
16:25:08:759298,-2,0,0,1,-17,-3,-3,1
16:25:08:767529,-2,0,0,1,-17,-3,-3,1
16:25:08:768401,-3,-1,-3,-5,13,6,4,1
16:25:08:774400,1,-2,-3,-4,-7,-1,-1,1
16:25:08:781907,1,-2,-3,-4,-7,-1,-1,1
16:25:08:789408,5,-1,-2,1,-6,-2,-2,1
16:25:08:796923,0,-1,2,2,13,-2,-4,-7
16:25:08:805046,0,-1,2,2,13,-2,-4,-7
16:25:08:805904,1,-2,4,6,4,-2,-2,-4
16:25:08:819411,0,-2,-2,-6,-8,-1,1,0
16:25:08:827581,0,-2,-2,-6,-8,-1,1,0
16:25:08:828404,-3,0,-3,0,-5,-3,-1,1
16:25:08:834418,-2,-2,-3,-3,-14,0,-1,0
16:25:08:841900,-2,-2,-3,-3,-14,0,-1,0
16:25:08:849419,-1,-1,-2,2,-7,0,0,3
16:25:08:856917,-2,-3,-1,0,8,0,0,0
16:25:08:865070,-2,-3,-1,0,8,0,0,0
16:25:08:865924,1,0,0,3,-3,0,1,-2
16:25:08:879411,-1,-2,2,-8,-4,1,2,-2
16:25:08:887512,-1,-2,2,-8,-4,1,2,-2
16:25:08:888401,-4,-3,-9,-10,-2,-2,-3,-3
16:25:08:894417,0,1,-5,-1,3,-2,-2,0
16:25:08:901915,0,1,-5,-1,3,-2,-2,0
16:25:08:909351,-1,-1,1,0,-3,-1,-1,-4
16:25:08:916783,0,3,-2,2,0,-1,-1,-1
16:25:08:925055,0,3,-2,2,0,-1,-1,-1
16:25:08:925920,-1,4,1,0,-16,-1,0,-1
16:25:08:939429,-2,-4,-3,-1,2,-1,-1,0
16:25:08:947532,-2,-4,-3,-1,2,-1,-1,0
16:25:08:948401,-2,-2,-1,-4,33,6,3,-3
16:25:08:954281,-2,-3,-1,0,-2,-2,0,1
16:25:08:961909,-2,-3,-1,0,-2,-2,0,1
16:25:08:969291,1,1,1,-2,-5,-5,-3,-2
16:25:08:976794,-4,-4,-3,2,19,4,0,0
16:25:08:985026,-4,-4,-3,2,19,4,0,0
16:25:08:985913,-1,-1,1,1,2,-2,-3,-1
16:25:08:999318,-1,-3,-2,2,-9,-3,0,0
16:25:09:7544,-1,-3,-2,2,-9,-3,0,0
16:25:09:8405,-3,2,-1,0,0,-1,1,-2
16:25:09:14289,-3,2,-1,1,5,-4,-4,-3
16:25:09:21927,-3,2,-1,1,5,-4,-4,-3
16:25:09:29310,-2,8,-5,-16,7,2,1,1
16:25:09:36900,0,-1,0,-3,-14,-6,-4,-2
16:25:09:45044,0,-1,0,-3,-14,-6,-4,-2
16:25:09:45909,-1,-4,-1,-2,-11,-4,-2,2
16:25:09:59815,4,3,-2,-2,-1,0,-2,0
16:25:09:67549,4,3,-2,-2,-1,0,-2,0
16:25:09:68390,-1,-2,0,10,1,-1,-2,-2
16:25:09:74452,-1,-4,-2,-5,-6,-1,1,0
16:25:09:81930,-1,-4,-2,-5,-6,-1,1,0
16:25:09:89410,2,-3,0,4,3,2,3,2
16:25:09:96902,-5,2,6,-5,-21,-4,-2,-3
16:25:09:105032,-5,2,6,-5,-21,-4,-2,-3
16:25:09:105790,-3,-2,-5,-7,3,1,-4,-5
16:25:09:119410,-4,-1,0,6,2,1,0,-1
16:25:09:127532,-4,-1,0,6,2,1,0,-1
16:25:09:128267,-2,-6,0,6,0,-4,0,-1
16:25:09:134400,2,-1,-3,-4,1,-1,-2,-2
16:25:09:141930,2,-1,-3,-4,1,-1,-2,-2
16:25:09:149409,2,0,-2,-4,-7,-4,-2,1
16:25:09:156923,-1,-4,1,-4,1,2,1,-1
16:25:09:165041,-1,-4,1,-4,1,2,1,-1
16:25:09:165904,-3,-2,1,-1,-6,-1,1,0
16:25:09:179421,-2,0,-3,1,-2,-1,-1,-2
16:25:09:187575,-2,0,-3,1,-2,-1,-1,-2
16:25:09:188415,3,-7,-20,-6,-5,-7,-4,-4
16:25:09:194432,-5,-4,-6,10,5,-2,0,-3
16:25:09:201904,-5,-4,-6,10,5,-2,0,-3
16:25:09:209294,-2,-1,8,1,-9,0,3,-1
16:25:09:216771,0,10,-3,-3,-1,-1,-1,-1
16:25:09:225059,0,10,-3,-3,-1,-1,-1,-1
16:25:09:225898,-6,-3,5,4,1,-4,-3,-1
16:25:09:239304,1,0,3,-9,-2,0,-1,0
16:25:09:247531,1,0,3,-9,-2,0,-1,0
16:25:09:248414,1,1,-9,-2,5,2,0,1
16:25:09:254287,-1,-2,-1,0,7,1,1,2
16:25:09:261931,-1,-2,-1,0,7,1,1,2
16:25:09:269311,-2,0,7,-2,-8,0,-1,0
16:25:09:276821,-3,3,3,3,20,5,0,-2
16:25:09:284494,-3,3,3,3,20,5,0,-2
16:25:09:291927,4,-3,-4,-3,14,0,-3,2
16:25:09:299402,5,-8,-13,0,13,3,3,6
16:25:09:307533,5,-8,-13,0,13,3,3,6
16:25:09:308414,0,-2,4,0,-7,-2,-4,-3
16:25:09:322569,-1,-1,0,-9,-13,-5,-6,0
16:25:09:323437,-1,-1,0,-9,-13,-5,-6,0
16:25:09:329453,0,1,-3,7,12,5,1,2
16:25:09:336917,-4,-1,-2,-8,-11,-4,-2,-2
16:25:09:344445,-4,-1,-2,-8,-11,-4,-2,-2
16:25:09:351912,-3,-1,-9,-2,-11,-3,-1,-2
16:25:09:359467,1,-4,1,0,3,-1,0,-2
16:25:09:367543,1,-4,1,0,3,-1,0,-2
16:25:09:368394,0,2,4,-3,-1,-1,0,-2
16:25:09:382538,-4,-7,-16,-7,-7,-1,-1,-3
16:25:09:383334,-4,-7,-16,-7,-7,-1,-1,-3
16:25:09:389428,-1,-3,5,-3,-11,-4,1,-2
16:25:09:396924,-3,-2,9,3,-7,0,-1,0
16:25:09:404420,-3,-2,9,3,-7,0,-1,0
16:25:09:411839,-4,-3,-1,4,-6,-2,-4,-1
16:25:09:419433,1,3,0,6,6,0,1,-2
16:25:09:427570,1,3,0,6,6,0,1,-2
16:25:09:428416,0,-1,-4,-2,-2,-1,0,0
16:25:09:442545,-1,-5,2,2,-12,-4,0,2
16:25:09:443404,-1,-5,2,2,-12,-4,0,2
16:25:09:449291,-2,-2,-1,-1,11,-1,0,-1
16:25:09:456911,-1,-2,-7,-3,-7,0,-2,-1
16:25:09:464407,-1,-2,-7,-3,-7,0,-2,-1
16:25:09:471787,-3,-2,-3,-4,-6,-1,-1,0
16:25:09:479335,2,2,3,-5,15,3,0,0
16:25:09:487552,2,2,3,-5,15,3,0,0
16:25:09:488423,1,-1,-5,3,7,2,-1,-1
16:25:09:502531,2,2,1,-3,-4,-2,-1,0
16:25:09:503401,2,2,1,-3,-4,-2,-1,0
16:25:09:509357,1,1,13,-1,-4,0,1,1
16:25:09:516785,2,-1,2,6,-1,-2,-1,3
16:25:09:524442,2,-1,2,6,-1,-2,-1,3
16:25:09:531815,-1,1,0,-1,-1,-1,-5,-3
16:25:09:539315,-2,1,2,-13,8,-2,-3,-3
16:25:09:547559,-2,1,2,-13,8,-2,-3,-3
16:25:09:548406,-1,0,-4,-1,1,-1,-2,-1
16:25:09:562603,0,-2,-3,0,-7,-2,-1,-3
16:25:09:563415,0,-2,-3,0,-7,-2,-1,-3
16:25:09:569287,-1,-1,-1,-5,-7,-1,0,-2
16:25:09:576808,-3,-2,0,-5,-2,-1,-2,-2
16:25:09:584416,-3,-2,0,-5,-2,-1,-2,-2
16:25:09:591939,1,-3,-3,2,-2,-3,1,1
16:25:09:599436,1,-1,3,1,-9,-5,-2,-4
16:25:09:607564,1,-1,3,1,-9,-5,-2,-4
16:25:09:608317,-5,-8,-21,-5,20,2,-3,-3
16:25:09:622577,-3,-2,-2,0,-4,-2,-1,-2
16:25:09:623412,-3,-2,-2,0,-4,-2,-1,-2
16:25:09:629440,1,-2,2,-2,-11,-2,0,-1
16:25:09:636807,-1,1,-4,4,0,-3,-2,-4
16:25:09:644421,-1,1,-4,4,0,-3,-2,-4
16:25:09:651912,-1,2,1,0,-1,-1,-2,-2
16:25:09:659431,0,0,0,3,2,0,1,0
16:25:09:667539,0,0,0,3,2,0,1,0
16:25:09:668400,-2,2,4,-1,-4,0,-1,0
16:25:09:682551,0,2,0,-1,-2,0,-4,0
16:25:09:683295,0,2,0,-1,-2,0,-4,0
16:25:09:689430,7,6,7,1,-2,-2,-2,1
16:25:09:696918,4,-6,8,3,4,2,1,0
16:25:09:704432,4,-6,8,3,4,2,1,0
16:25:09:711791,-2,0,7,1,-3,1,-1,-1
16:25:09:719280,-4,2,-3,-2,-6,-3,-11,-3
16:25:09:727601,-4,2,-3,-2,-6,-3,-11,-3
16:25:09:728453,-3,-2,-3,1,0,1,-2,-5
16:25:09:742572,-4,-4,-5,-3,5,1,-1,-2
16:25:09:743440,-4,-4,-5,-3,5,1,-1,-2
16:25:09:749322,-4,-2,-6,12,14,-1,-1,0
16:25:09:756795,-2,-1,-2,-1,-8,-3,0,0
16:25:09:764436,-2,-1,-2,-1,-8,-3,0,0
16:25:09:771775,0,-1,0,-10,-2,-2,4,0
16:25:09:779342,-2,-2,-8,-1,-1,-2,1,0
16:25:09:787551,-2,-2,-8,-1,-1,-2,1,0
16:25:09:788429,-1,-3,-6,-6,-14,-3,-3,0
16:25:09:802558,1,-2,10,-2,4,0,5,1
16:25:09:803420,1,-2,10,-2,4,0,5,1
16:25:09:809296,-3,-1,-1,1,-1,0,-2,-2
16:25:09:816787,-3,-3,-8,0,-6,-4,-1,-8
16:25:09:824430,-3,-3,-8,0,-6,-4,-1,-8
16:25:09:831791,3,2,0,-2,-1,2,2,0
16:25:09:839306,-3,1,1,-1,1,1,0,-1
16:25:09:847554,-3,1,1,-1,1,1,0,-1
16:25:09:848415,-2,-1,-1,-1,-1,-2,1,0
16:25:09:863040,3,5,6,2,14,-1,-1,-2
16:25:09:863781,3,5,6,2,14,-1,-1,-2
16:25:09:869304,-4,-3,1,3,-4,-1,0,1
16:25:09:876810,0,-1,0,1,-4,-3,1,3
16:25:09:884414,0,-1,0,1,-4,-3,1,3
16:25:09:891929,1,-2,-2,-3,0,-3,-7,-3
16:25:09:899431,0,-1,0,-5,-8,-5,-1,0
16:25:09:907614,0,-1,0,-5,-8,-5,-1,0
16:25:09:908310,3,1,1,-5,-5,0,1,-1
16:25:09:922548,1,8,-7,1,-18,-5,-1,1
16:25:09:923396,1,8,-7,1,-18,-5,-1,1
16:25:09:929404,-3,-1,5,0,10,-3,0,-2
16:25:09:945048,0,1,1,0,-4,1,-1,-1
16:25:09:945938,0,1,1,0,-4,1,-1,-1
16:25:09:951775,-1,2,-1,1,-4,0,-1,1
16:25:09:959332,-3,-5,-6,2,-1,-1,-3,-3
16:25:09:967542,-3,-5,-6,2,-1,-1,-3,-3
16:25:09:968411,-1,-3,-2,-3,-7,-1,-2,-1
16:25:09:982575,-2,-7,-4,-2,12,-2,-1,-1
16:25:09:983425,-2,-7,-4,-2,12,-2,-1,-1
16:25:09:989334,-1,0,-5,-2,-8,-2,0,0
16:25:09:996803,1,0,2,1,1,2,0,-1
16:25:10:4442,1,0,2,1,1,2,0,-1
16:25:10:11936,-1,-3,5,-5,1,-2,-3,0
16:25:10:19331,-1,-3,-4,-2,-2,1,2,-1
16:25:10:27602,-1,-3,-4,-2,-2,1,2,-1
16:25:10:28289,-2,-1,-6,-9,-12,-2,-4,-3
16:25:10:42605,-2,3,3,-11,5,1,-2,-2
16:25:10:43437,-2,3,3,-11,5,1,-2,-2
16:25:10:49411,2,-2,-8,-1,6,1,1,1
16:25:10:56914,-2,-4,-11,-3,-5,2,0,0
16:25:10:64416,-2,-4,-11,-3,-5,2,0,0
16:25:10:71923,-2,1,-1,4,5,1,2,-1
16:25:10:79450,0,-2,3,2,-1,-4,-4,0
16:25:10:87544,0,-2,3,2,-1,-4,-4,0
16:25:10:88416,-1,-2,3,1,0,1,-1,-1
16:25:10:102567,0,-2,-1,2,-17,-2,0,0
16:25:10:103422,0,-2,-1,2,-17,-2,0,0
16:25:10:109420,0,-3,0,2,7,-1,-2,3
16:25:10:116946,-4,-6,-15,0,1,2,-1,0
16:25:10:124410,-4,-6,-15,0,1,2,-1,0
16:25:10:131796,0,2,3,-2,-1,-3,1,-1
16:25:10:139290,2,0,6,-4,-5,-1,-1,2
16:25:10:147546,2,0,6,-4,-5,-1,-1,2
16:25:10:148412,-4,-6,1,-7,-7,1,-1,-4
16:25:10:162596,-2,-3,0,-1,1,1,-1,-2
16:25:10:163444,-2,-3,0,-1,1,1,-1,-2
16:25:10:169293,-1,1,-3,3,-5,-2,-1,-1
16:25:10:176826,-2,4,3,2,-3,-4,-3,-5
16:25:10:184420,-2,4,3,2,-3,-4,-3,-5
16:25:10:191802,-1,-2,-3,6,35,3,0,1
16:25:10:199285,0,-4,-1,-11,1,0,0,1
16:25:10:207586,0,-4,-1,-11,1,0,0,1
16:25:10:208446,-7,1,6,5,-19,-10,-4,-3
16:25:10:222535,-1,-1,-1,6,2,1,-1,0
16:25:10:223427,-1,-1,-1,6,2,1,-1,0
16:25:10:229310,0,-2,-9,6,-6,-2,-1,-1
16:25:10:245077,-2,-1,3,2,2,-3,2,-2
16:25:10:245913,-2,-1,3,2,2,-3,2,-2
16:25:10:251789,2,0,-3,1,-4,0,-1,-1
16:25:10:259318,0,-2,-1,-2,5,2,1,0
16:25:10:266927,0,-2,-1,-2,5,2,1,0
16:25:10:274301,-3,-3,-4,-18,-9,-4,-3,-3
16:25:10:282540,1,-2,3,2,-4,-3,0,0
16:25:10:283405,1,-2,3,2,-4,-3,0,0
16:25:10:289296,-1,1,2,-3,-18,-2,-1,-2
16:25:10:305067,-3,-5,-3,5,9,-2,-2,-3
16:25:10:305926,-3,-5,-3,5,9,-2,-2,-3
16:25:10:311808,1,2,-2,0,3,2,1,-1
16:25:10:319330,-1,1,2,-3,9,0,-1,0
16:25:10:326969,-1,1,2,-3,9,0,-1,0
16:25:10:334431,-3,-5,0,0,-1,0,-1,-1
16:25:10:342567,-2,2,2,0,-5,-5,-3,-1
16:25:10:343314,-2,2,2,0,-5,-5,-3,-1
16:25:10:349423,-1,-4,2,-4,6,-2,-1,-1
16:25:10:365066,0,-3,-5,-7,-15,-2,0,-1
16:25:10:365915,0,-3,-5,-7,-15,-2,0,-1
16:25:10:371936,0,0,-3,-1,-13,-1,0,0
16:25:10:379303,-3,-1,-4,0,4,1,-2,-2
16:25:10:386923,-3,-1,-4,0,4,1,-2,-2
16:25:10:394449,0,-2,1,2,2,-2,-2,-1
16:25:10:402546,1,-1,-3,-1,1,-1,-1,4
16:25:10:403418,1,-1,-3,-1,1,-1,-1,4
16:25:10:409304,1,9,-1,5,12,0,-2,-2
16:25:10:425075,-2,-3,-5,-6,23,4,-1,-2
16:25:10:425789,-2,-3,-5,-6,23,4,-1,-2
16:25:10:431920,-1,-6,0,4,0,-2,-1,2
16:25:10:439424,-3,1,-12,0,-1,2,-1,-2
16:25:10:446935,-3,1,-12,0,-1,2,-1,-2
16:25:10:454315,0,0,-14,0,7,1,0,-1
16:25:10:462570,1,0,3,1,-8,-2,-1,1
16:25:10:463415,1,0,3,1,-8,-2,-1,1
16:25:10:469309,-2,0,-2,-4,-13,0,0,-2
16:25:10:485037,-1,0,-2,-4,-5,-3,-2,-2
16:25:10:485912,-1,0,-2,-4,-5,-3,-2,-2
16:25:10:491816,3,-1,4,-2,-3,0,-2,0
16:25:10:499302,-1,1,5,1,0,1,-1,-2
16:25:10:506930,-1,1,5,1,0,1,-1,-2
16:25:10:514288,-3,-3,-1,-3,3,0,-2,-1
16:25:10:522562,-2,-1,2,4,-6,-2,1,-2
16:25:10:523422,-2,-1,2,4,-6,-2,1,-2
16:25:10:529336,2,0,2,4,16,-2,-2,-1
16:25:10:545053,-5,-5,-12,-2,-2,-3,-1,-2
16:25:10:545966,-5,-5,-12,-2,-2,-3,-1,-2
16:25:10:551799,-3,-5,-3,0,7,1,0,-1
16:25:10:559316,1,1,8,3,-13,-3,-2,1
16:25:10:566920,1,1,8,3,-13,-3,-2,1
16:25:10:574299,-1,-4,-3,-10,-9,-3,-2,0
16:25:10:582553,-2,-2,2,-4,-3,0,-1,0
16:25:10:583420,-2,-2,2,-4,-3,0,-1,0
16:25:10:589306,-1,1,1,0,-6,-1,1,-3
16:25:10:605058,2,-1,3,-2,3,0,-2,-2
16:25:10:605935,2,-1,3,-2,3,0,-2,-2
16:25:10:611804,0,-3,-4,-3,-3,2,1,-1
16:25:10:619300,-2,2,-1,0,1,0,1,-1
16:25:10:626941,-2,2,-1,0,1,0,1,-1
16:25:10:634306,-2,0,0,-3,-2,-2,0,-1
16:25:10:642606,0,-2,-3,2,-16,-7,-2,-1
16:25:10:643346,0,-2,-3,2,-16,-7,-2,-1
16:25:10:649417,-1,-1,7,-1,-9,2,1,-1
16:25:10:665050,2,0,2,-8,-12,-2,-1,-1
16:25:10:665910,2,0,2,-8,-12,-2,-1,-1
16:25:10:671914,-2,-2,-1,4,-1,-3,-3,0
16:25:10:679451,-1,0,3,1,1,1,-1,-2
16:25:10:686924,-1,0,3,1,1,1,-1,-2
16:25:10:694483,-2,-1,-1,-1,2,0,-1,-1
16:25:10:702542,-2,-4,-11,-3,8,0,-1,-1
16:25:10:703421,-2,-4,-11,-3,8,0,-1,-1
16:25:10:709326,-1,3,-8,0,-1,-2,-1,-1
16:25:10:725116,1,0,0,0,5,2,4,2
16:25:10:725802,1,0,0,0,5,2,4,2
16:25:10:731911,-2,-2,0,0,-13,-3,-1,-1
16:25:10:739437,-13,-4,-1,-5,0,2,-1,-4
16:25:10:746916,-13,-4,-1,-5,0,2,-1,-4
16:25:10:754310,-2,2,1,-4,-22,-2,-2,-2
16:25:10:762596,3,-2,0,-2,-1,-2,-1,-1
16:25:10:763429,3,-2,0,-2,-1,-2,-1,-1
16:25:10:769299,-2,-2,1,0,0,-2,-4,-2
16:25:10:785032,1,0,-5,-1,8,3,1,0
16:25:10:785952,1,0,-5,-1,8,3,1,0
16:25:10:791792,0,1,1,-1,4,-1,0,1
16:25:10:799302,0,-1,0,5,3,-4,-2,0
16:25:10:806928,0,-1,0,5,3,-4,-2,0
16:25:10:814313,0,-2,-1,-3,4,-1,-2,-1
16:25:10:822575,-2,0,0,-6,-9,-2,-4,-2
16:25:10:823481,-2,0,0,-6,-9,-2,-4,-2
16:25:10:836825,1,-2,1,2,10,0,1,4
16:25:10:845051,0,-1,1,5,2,0,3,2
16:25:10:845946,0,-1,1,5,2,0,3,2
16:25:10:851811,-3,2,-4,-12,-6,-1,-2,-2
16:25:10:859311,2,2,3,-3,-3,-3,-1,0
16:25:10:866928,2,2,3,-3,-3,-3,-1,0
16:25:10:874306,1,0,-8,5,-5,0,0,-2
16:25:10:882557,-3,0,-7,-12,-20,-2,-2,-1
16:25:10:883433,-3,0,-7,-12,-20,-2,-2,-1
16:25:10:889332,-1,-2,-3,0,0,-3,-2,-3
16:25:10:905078,-1,-3,-2,3,2,-1,-2,-1
16:25:10:905927,-1,-3,-2,3,2,-1,-2,-1
16:25:10:911788,-4,-3,-4,-2,-1,-3,-1,-2
16:25:10:919293,-1,1,3,14,26,1,1,1
16:25:10:926939,-1,1,3,14,26,1,1,1
16:25:10:934314,-1,4,2,5,20,2,-1,0
16:25:10:942593,2,-1,0,-4,-17,-4,1,-2
16:25:10:943319,2,-1,0,-4,-17,-4,1,-2
16:25:10:949455,-2,1,9,-1,0,-1,-2,-2
16:25:10:965070,-2,-1,5,-3,4,-1,-2,-2
16:25:10:965943,-2,-1,5,-3,4,-1,-2,-2
16:25:10:971838,-1,-4,0,-9,-7,-1,-2,0
16:25:10:979357,-1,-5,-2,0,-2,0,-4,-1
16:25:10:986965,-1,-5,-2,0,-2,0,-4,-1
16:25:10:994452,2,2,6,9,6,-5,-2,-1
16:25:11:2552,-2,1,-3,0,19,4,1,-1
16:25:11:3295,-2,1,-3,0,19,4,1,-1
16:25:11:9369,-2,-2,-7,-3,-9,-1,-2,-1
16:25:11:25063,-1,1,-1,-11,10,2,0,-1
16:25:11:25867,-1,1,-1,-11,10,2,0,-1
16:25:11:31931,4,2,7,3,0,2,2,0
16:25:11:39451,-3,-1,-2,0,-10,-2,-2,-1
16:25:11:46934,-3,-1,-2,0,-10,-2,-2,-1
16:25:11:54319,-2,-4,-9,-8,-3,2,-1,0
16:25:11:62579,1,1,8,-3,-23,-7,-2,1
16:25:11:63424,1,1,8,-3,-23,-7,-2,1
16:25:11:69310,-2,-4,-6,4,15,4,0,2
16:25:11:85063,0,-3,1,-9,0,-2,-1,-3
16:25:11:85789,0,-3,1,-9,0,-2,-1,-3
16:25:11:91834,2,0,1,-4,-6,-3,-3,-3
16:25:11:99317,0,1,-2,5,-3,0,1,1
16:25:11:106944,0,1,-2,5,-3,0,1,1
16:25:11:114316,-3,-2,-2,-1,0,-1,-1,-2
16:25:11:122550,0,0,-8,0,-1,-1,-1,0
16:25:11:123422,0,0,-8,0,-1,-1,-1,0
16:25:11:129322,-5,-12,-40,-12,-39,-13,-4,-4
16:25:11:145088,-1,1,-4,-2,-2,-2,-2,-1
16:25:11:145923,-1,1,-4,-2,-2,-2,-2,-1
16:25:11:151808,0,1,13,0,-6,-5,-1,-3
16:25:11:159335,0,-2,-7,7,-1,-3,0,1
16:25:11:166930,0,-2,-7,7,-1,-3,0,1
16:25:11:174322,-2,-2,5,2,11,2,0,-1
16:25:11:182586,1,9,2,2,4,-2,-2,2
16:25:11:183461,1,9,2,2,4,-2,-2,2
16:25:11:196828,-7,-1,3,1,5,1,0,-1
16:25:11:205049,-3,-5,0,2,-10,-4,-1,-3
16:25:11:205935,-3,-5,0,2,-10,-4,-1,-3
16:25:11:211816,-2,-1,-2,-2,24,4,3,-2
16:25:11:227592,-3,-1,1,3,-3,-2,-2,-2
16:25:11:228435,-3,-1,1,3,-3,-2,-2,-2
16:25:11:234293,3,-2,5,0,-3,1,-1,1
16:25:11:242569,0,-2,0,-6,6,-1,-1,-1
16:25:11:243448,0,-2,0,-6,6,-1,-1,-1
16:25:11:256817,1,2,4,10,8,-2,1,2
16:25:11:265062,-2,-6,-15,-4,10,1,-2,-1
16:25:11:265940,-2,-6,-15,-4,10,1,-2,-1
16:25:11:271796,0,1,5,0,-7,-3,-3,0
16:25:11:287561,-2,2,17,-8,-4,1,-1,-3
16:25:11:288420,-2,2,17,-8,-4,1,-1,-3
16:25:11:294361,-3,-2,-1,-2,6,2,1,-2
16:25:11:302544,2,-3,-2,1,-7,-2,0,1
16:25:11:303425,2,-3,-2,1,-7,-2,0,1
16:25:11:316794,1,1,3,1,6,0,-2,-1
16:25:11:325053,-1,-1,-5,-1,-2,-2,-2,-3
16:25:11:325950,-1,-1,-5,-1,-2,-2,-2,-3
16:25:11:331832,0,-1,-6,-2,9,0,-1,-1
16:25:11:347551,-1,-2,-3,-2,3,-1,-3,-2
16:25:11:348415,-1,-2,-3,-2,3,-1,-3,-2
16:25:11:354288,-1,-1,-1,0,-5,-3,-2,-2
16:25:11:362630,1,0,3,5,-1,-3,0,2
16:25:11:363427,1,0,3,5,-1,-3,0,2
16:25:11:376945,-3,-5,-20,3,4,0,1,0
16:25:11:385047,-1,-3,0,2,6,2,1,0
16:25:11:385926,-1,-3,0,2,6,2,1,0
16:25:11:391836,1,-1,5,-5,-10,-4,-1,-2
16:25:11:407584,-4,-5,2,0,4,-1,-1,-1
16:25:11:408330,-4,-5,2,0,4,-1,-1,-1
16:25:11:414310,-12,-3,2,-2,-7,1,-2,-2
16:25:11:421926,5,0,-1,2,-2,-2,1,0
16:25:11:429439,5,0,-1,2,-2,-2,1,0
16:25:11:436834,3,-3,-2,0,6,-2,0,-2
16:25:11:445054,-4,-6,-6,-6,-3,-3,-2,-1
16:25:11:445979,-4,-6,-6,-6,-3,-3,-2,-1
16:25:11:451785,-1,2,-1,-17,-19,0,0,-1
16:25:11:467548,-1,2,-1,-17,-19,0,0,-1
16:25:11:468413,0,1,-3,-4,-5,-4,-3,1
16:25:11:474324,-3,-7,2,-3,-1,0,0,1
16:25:11:482560,-3,-7,2,-3,-1,0,0,1
16:25:11:483443,0,-1,-6,-3,-4,0,0,0
16:25:11:496804,0,2,-3,-3,-3,0,-4,0
16:25:11:505058,0,2,-3,-3,-3,0,-4,0
16:25:11:505940,0,-2,-1,5,20,-2,-1,-4
16:25:11:511799,1,8,-2,0,-13,-1,-1,-2
16:25:11:527573,1,8,-2,0,-13,-1,-1,-2
16:25:11:528334,-2,0,-3,-4,-8,0,0,-1
16:25:11:534316,1,-1,-1,1,-4,-3,-2,-2
16:25:11:542570,1,-1,-1,1,-4,-3,-2,-2
16:25:11:543437,-2,1,-4,0,0,-1,0,-3
16:25:11:556944,-2,-5,1,-2,7,-1,0,-1
16:25:11:565053,-2,-5,1,-2,7,-1,0,-1
16:25:11:565790,-2,-2,1,0,4,1,-3,-1
16:25:11:571787,0,1,2,7,2,-1,-2,-2
16:25:11:587589,0,1,2,7,2,-1,-2,-2
16:25:11:588304,-2,4,5,-11,-14,-2,0,-1
16:25:11:594496,-1,-3,-3,-5,-6,1,1,1
16:25:11:602547,-1,-3,-3,-5,-6,1,1,1
16:25:11:603442,1,-1,1,3,-5,-1,-1,0
16:25:11:616931,-2,0,5,0,2,-2,-1,0
16:25:11:625083,-2,0,5,0,2,-2,-1,0
16:25:11:625795,-2,-3,0,-1,-5,-2,2,-1
16:25:11:631816,-5,4,-8,8,24,2,0,-1
16:25:11:647572,-5,4,-8,8,24,2,0,-1
16:25:11:648309,3,0,-7,8,1,-3,-2,-2
16:25:11:654456,3,-1,0,1,1,-1,0,2
16:25:11:661927,3,-1,0,1,1,-1,0,2
16:25:11:669308,-4,-4,-1,1,4,0,0,-3
16:25:11:676860,0,0,4,-3,-16,-3,0,0
16:25:11:685058,0,0,4,-3,-16,-3,0,0
16:25:11:685911,-1,0,1,-2,-14,-2,-2,0
16:25:11:691838,1,-4,-4,-9,-4,-1,-2,-3
16:25:11:707593,1,-4,-4,-9,-4,-1,-2,-3
16:25:11:708319,1,0,1,5,4,2,-1,-1
16:25:11:714323,0,-1,1,1,-3,-1,-3,-1
16:25:11:721982,0,-1,1,1,-3,-1,-3,-1
16:25:11:729331,2,-1,-1,-10,-8,0,-1,-3
16:25:11:736815,1,-1,-2,-1,-7,-1,0,-1
16:25:11:745073,1,-1,-2,-1,-7,-1,0,-1
16:25:11:745966,0,-2,2,1,4,0,-2,0
16:25:11:751818,-3,-1,2,1,-4,-2,0,0
16:25:11:767640,-3,-1,2,1,-4,-2,0,0
16:25:11:768433,-5,2,-1,0,-2,1,-2,-2
16:25:11:774311,0,-3,-4,-4,-4,-1,0,-3
16:25:11:781927,0,-3,-4,-4,-4,-1,0,-3
16:25:11:789305,-5,-5,-8,0,3,-5,-2,-1
16:25:11:796811,-1,2,1,-6,-13,-4,-1,-2
16:25:11:805070,-1,2,1,-6,-13,-4,-1,-2
16:25:11:805933,-2,-1,-4,-3,4,0,-2,-1
16:25:11:811834,-1,-2,-2,6,9,-1,-1,0
16:25:11:827597,-1,-2,-2,6,9,-1,-1,0
16:25:11:828430,0,2,0,1,-6,-3,-1,-3
16:25:11:834309,-7,-4,-2,-2,2,-2,-2,0
16:25:11:841987,-7,-4,-2,-2,2,-2,-2,0
16:25:11:849327,1,-2,1,-2,0,-1,0,0
16:25:11:856823,0,0,-5,-4,4,-2,0,-2
16:25:11:865059,0,0,-5,-4,4,-2,0,-2
16:25:11:865804,-5,-2,4,-4,-5,-1,0,0
16:25:11:871946,-3,-6,6,4,12,2,-1,-1
16:25:11:887574,-3,-6,6,4,12,2,-1,-1
16:25:11:888463,-1,0,0,-12,0,-1,-3,1
16:25:11:894328,0,-1,-3,7,-4,2,2,0
16:25:11:901929,0,-1,-3,7,-4,2,2,0
16:25:11:909458,0,-4,-12,0,-1,0,0,1
16:25:11:916954,-2,0,0,-2,-6,-1,-4,-1
16:25:11:925087,-2,0,0,-2,-6,-1,-4,-1
16:25:11:925817,-2,-2,0,-1,-3,0,1,-1
16:25:11:931817,0,3,1,-6,-21,-6,0,-1
16:25:11:947570,0,3,1,-6,-21,-6,0,-1
16:25:11:948300,-5,-4,-8,-2,26,7,2,0
16:25:11:954436,1,4,2,-3,-8,-3,-2,-1
16:25:11:961928,1,4,2,-3,-8,-3,-2,-1
16:25:11:969321,-1,0,1,-5,-7,-3,-1,0
16:25:11:976828,0,1,-2,-8,0,-1,-2,-2
16:25:11:985081,0,1,-2,-8,0,-1,-2,-2
16:25:11:985862,-3,-1,0,1,0,-2,-2,-2
16:25:11:991850,0,-2,-4,-4,5,6,0,0
16:25:12:7578,0,-2,-4,-4,5,6,0,0
16:25:12:8322,2,0,-2,6,-9,-5,-3,-2
16:25:12:14339,-3,-4,-1,0,10,-2,-3,1
16:25:12:21942,-3,-4,-1,0,10,-2,-3,1
16:25:12:29323,5,0,-3,6,9,2,2,0
16:25:12:36818,1,3,-1,-1,4,1,-1,-1
16:25:12:45087,1,3,-1,-1,4,1,-1,-1
16:25:12:45954,2,1,-1,-5,-7,-1,0,-1
16:25:12:51816,-1,0,0,1,19,-1,-1,-2
16:25:12:67619,-1,0,0,1,19,-1,-1,-2
16:25:12:68439,-2,-3,2,-2,-4,-3,-3,1
16:25:12:82557,0,-2,-5,-4,-8,0,-1,-2
16:25:12:83302,0,-2,-5,-4,-8,0,-1,-2
16:25:12:89326,5,0,2,1,-7,2,1,2
16:25:12:96838,-1,-4,0,9,7,3,1,0
16:25:12:105067,-1,-4,0,9,7,3,1,0
16:25:12:105974,-3,-4,-5,-4,-3,-2,-1,-3
16:25:12:111845,2,0,-3,-1,-4,-4,-1,1
16:25:12:127610,2,0,-3,-1,-4,-4,-1,1
16:25:12:128315,-2,-2,-4,-4,-7,-4,-1,-1
16:25:12:134311,-1,-4,-1,4,1,-2,-2,-3
16:25:12:141976,-1,-4,-1,4,1,-2,-2,-3
16:25:12:149375,-2,-2,0,2,-2,-2,-2,-3
16:25:12:156810,0,-1,0,-3,8,0,-1,-1
16:25:12:165058,0,-1,0,-3,8,0,-1,-1
16:25:12:165939,-3,-4,-12,3,8,2,-1,-1
16:25:12:179347,-1,1,0,-3,-10,-3,-1,-1
16:25:12:187564,-1,1,0,-3,-10,-3,-1,-1
16:25:12:188432,-1,0,3,-6,-4,0,-2,0
16:25:12:194335,0,0,-3,-1,-5,0,3,2
16:25:12:201944,0,0,-3,-1,-5,0,3,2
16:25:12:209322,0,3,6,-2,-14,-2,-4,-3
16:25:12:216818,2,2,0,3,1,4,0,-1
16:25:12:225089,2,2,0,3,1,4,0,-1
16:25:12:225816,-4,-1,-3,0,-7,-2,-1,-2
16:25:12:239313,0,2,-8,-2,1,-4,-1,0
16:25:12:247594,0,2,-8,-2,1,-4,-1,0
16:25:12:248465,1,-1,4,-3,42,7,2,-2
16:25:12:254319,-3,-5,0,-1,-13,-3,-1,-1
16:25:12:261940,-3,-5,0,-1,-13,-3,-1,-1
16:25:12:269322,-1,-3,-8,-8,-14,-3,-1,-1
16:25:12:276839,-4,-4,0,-5,6,0,-2,-2
16:25:12:285083,-4,-4,0,-5,6,0,-2,-2
16:25:12:285856,1,0,4,1,-4,-4,1,-4
16:25:12:299320,-4,-2,1,0,-8,-3,-2,-1
16:25:12:307562,-4,-2,1,0,-8,-3,-2,-1
16:25:12:308290,2,0,-2,0,-4,-1,-1,1
16:25:12:314316,-1,-3,-4,0,-1,0,-3,-1
16:25:12:330076,-1,-3,-4,0,-1,0,-3,-1
16:25:12:330936,-5,-3,3,-2,19,-1,-2,0
16:25:12:336816,-3,-1,0,1,1,-2,0,-3
16:25:12:345066,-3,-1,0,1,1,-2,0,-3
16:25:12:345823,2,2,0,-1,-21,-2,-1,0
16:25:12:359334,-1,0,1,-1,4,-1,-3,-3
16:25:12:367592,-1,0,1,-1,4,-1,-3,-3
16:25:12:368455,-2,1,1,-3,6,1,4,1
16:25:12:374350,-1,0,2,-5,-6,-2,-1,-3
16:25:12:381940,-1,0,2,-5,-6,-2,-1,-3
16:25:12:389452,2,-1,1,0,-8,-1,0,0
16:25:12:396826,2,1,-2,0,-5,-1,-2,-1
16:25:12:405056,2,1,-2,0,-5,-1,-2,-1
16:25:12:405808,0,0,-3,2,0,1,-2,-5
16:25:12:419303,-2,1,2,-4,-1,-4,-2,1
16:25:12:427601,-2,1,2,-4,-1,-4,-2,1
16:25:12:428331,-1,0,-7,6,17,-1,-3,-3
16:25:12:434466,-1,-1,-1,-3,-5,-4,-2,0
16:25:12:450092,-1,-1,-1,-3,-5,-4,-2,0
16:25:12:450826,0,-1,-2,-2,-9,-2,-2,-1
16:25:12:456820,-1,-5,-9,-1,3,-3,0,0
16:25:12:465060,-1,-5,-9,-1,3,-3,0,0
16:25:12:465801,2,5,-24,-3,-1,-1,-1,0
16:25:12:479322,-2,-3,-1,2,-1,1,0,-1
16:25:12:487559,-2,-3,-1,2,-1,1,0,-1
16:25:12:488304,-4,-1,-8,-15,1,2,0,-2
16:25:12:494355,0,2,-3,0,-5,1,-2,-2
16:25:12:501948,0,2,-3,0,-5,1,-2,-2
16:25:12:509341,-2,-4,6,3,-3,-2,-1,1
16:25:12:516822,-2,0,7,-2,-3,-2,1,-1
16:25:12:525097,-2,0,7,-2,-3,-2,1,-1
16:25:12:525849,-1,-3,6,4,-3,-2,-2,-1
16:25:12:539308,1,2,-2,-7,0,-1,-1,-1
16:25:12:547582,1,2,-2,-7,0,-1,-1,-1
16:25:12:548315,-2,-2,2,-4,-9,-5,-1,-1
16:25:12:554306,-4,-4,-3,3,3,2,-2,0
16:25:12:561995,-4,-4,-3,3,3,2,-2,0
16:25:12:569305,-3,-6,6,1,2,1,-1,-2
16:25:12:576855,0,-3,-1,-2,-5,-3,-1,1
16:25:12:585093,0,-3,-1,-2,-5,-3,-1,1
16:25:12:585951,-3,-5,-18,1,1,0,-1,-5
16:25:12:599355,-1,-2,-6,1,8,4,-1,-1
16:25:12:607619,-1,-2,-6,1,8,4,-1,-1
16:25:12:608465,2,-1,3,1,8,-3,0,0
16:25:12:614317,0,2,1,6,13,2,0,-3
16:25:12:630067,0,2,1,6,13,2,0,-3
16:25:12:630822,1,1,7,3,7,-4,0,1
16:25:12:636813,0,0,3,0,-1,-1,0,-2
16:25:12:645080,0,0,3,0,-1,-1,0,-2
16:25:12:645852,-3,0,3,-1,-11,-1,-1,-1
16:25:12:659486,0,-2,1,-3,-5,-2,-1,-1
16:25:12:667575,0,-2,1,-3,-5,-2,-1,-1
16:25:12:668301,0,-2,2,2,-4,-1,-3,1
16:25:12:674316,0,-1,2,-1,-5,-1,-1,0
16:25:12:681951,0,-1,2,-1,-5,-1,-1,0
16:25:12:689343,-2,-1,6,-2,-1,0,0,-2
16:25:12:696818,3,4,4,-2,-5,-4,-1,3
16:25:12:705060,3,4,4,-2,-5,-4,-1,3
16:25:12:705951,1,1,-1,-3,-4,-1,-2,-1
16:25:12:719325,-5,1,-1,1,-3,-1,0,-1
16:25:12:727646,-5,1,-1,1,-3,-1,0,-1
16:25:12:728455,0,-2,-2,-1,-2,-2,-1,-2
16:25:12:734319,6,1,-1,-2,1,-1,2,-1
16:25:12:741959,6,1,-1,-2,1,-1,2,-1
16:25:12:749331,-3,-2,-3,0,-5,-1,-2,-1
16:25:12:756833,-1,-3,-2,-2,-3,-2,-3,-1
16:25:12:765063,-1,-3,-2,-2,-3,-2,-3,-1
16:25:12:765927,-2,2,4,-1,-3,-1,-1,1
16:25:12:779359,-6,-4,-7,-1,-1,1,-1,-2
16:25:12:787593,-6,-4,-7,-1,-1,1,-1,-2
16:25:12:788458,-1,-2,0,-2,1,0,-2,2
16:25:12:794375,-1,-1,-1,-1,-1,-3,-2,-3
16:25:12:801929,-1,-1,-1,-1,-1,-3,-2,-3
16:25:12:809336,-2,1,5,7,-11,-6,-1,-2
16:25:12:816844,-1,-3,-8,-3,18,3,0,-1
16:25:12:825089,-1,-3,-8,-3,18,3,0,-1
16:25:12:825824,6,-2,-5,-4,-6,-3,-1,1
16:25:12:839360,1,-3,-14,-3,-10,-3,-2,0
16:25:12:847585,1,-3,-14,-3,-10,-3,-2,0
16:25:12:848314,0,3,1,-3,0,0,1,-1
16:25:12:854327,-1,-4,3,-2,-2,0,-2,0
16:25:12:861952,-1,-4,3,-2,-2,0,-2,0
16:25:12:869454,-1,-4,-1,-3,-1,-2,3,0
16:25:12:876845,-5,-1,4,0,-3,-1,0,-2
16:25:12:885050,-5,-1,4,0,-3,-1,0,-2
16:25:12:885826,-1,1,4,-2,4,3,-1,3
16:25:12:899342,0,1,2,1,-2,0,-1,-1
16:25:12:907586,0,1,2,1,-2,0,-1,-1
16:25:12:908340,-3,2,-2,-2,-1,0,-2,-3
16:25:12:914444,0,1,2,0,-11,-3,-2,-1
16:25:12:930091,0,1,2,0,-11,-3,-2,-1
16:25:12:930816,-2,-7,-6,-1,4,1,0,-1
16:25:12:936808,4,3,-2,-1,0,-3,3,-3
16:25:12:945074,4,3,-2,-1,0,-3,3,-3
16:25:12:945841,-3,1,-1,-2,-4,-4,-4,-2
16:25:12:959931,-1,-4,1,0,1,2,-2,1
16:25:12:967613,-1,-4,1,0,1,2,-2,1
16:25:12:968326,-9,-4,0,-2,0,-1,0,-3
16:25:12:974362,-6,-7,-1,1,0,-1,-3,-2
16:25:12:981933,-6,-7,-1,1,0,-1,-3,-2
16:25:12:989352,-2,-3,-1,-1,-2,-1,-5,-4
16:25:12:996809,-1,-2,-1,-2,-3,-2,-1,-1
