Time,EMG1,EMG2,EMG3,EMG4,EMG5,EMG6,EMG7,EMG8
13:03:03:959285,13,1,10,3,3,4,0,0
13:03:03:960059,-15,1,11,1,-1,-1,0,-12
13:03:03:965635,18,0,-5,2,-3,-4,-4,12
13:03:03:973859,18,0,-5,2,-3,-4,-4,12
13:03:03:974632,9,2,-2,-5,-1,-2,1,5
13:03:03:988108,-15,-2,-8,-4,0,-2,-2,-5
13:03:03:996394,-15,-2,-8,-4,0,-2,-2,-5
13:03:03:997086,1,-1,1,2,0,1,1,4
13:03:04:10633,3,-4,-10,-1,-2,-2,-1,5
13:03:04:18853,3,-4,-10,-1,-2,-2,-1,5
13:03:04:19661,0,-1,-3,-4,-1,3,1,1
13:03:04:25653,3,-1,-6,-1,-1,-3,0,2
13:03:04:33832,3,-1,-6,-1,-1,-3,0,2
13:03:04:34588,-2,0,-5,-3,-3,-4,0,-2
13:03:04:57010,-11,-6,-12,1,-2,-5,-1,-4
13:03:04:57788,-11,-6,-12,1,-2,-5,-1,-4
13:03:04:58605,-6,-1,1,0,2,3,-1,1
13:03:04:70613,-10,0,1,-11,-9,-13,-4,-6
13:03:04:78849,-10,0,1,-11,-9,-13,-4,-6
13:03:04:79634,4,-20,9,12,0,2,1,3
13:03:04:85625,-6,-11,15,0,-3,-1,-2,-1
13:03:04:93884,-6,-11,15,0,-3,-1,-2,-1
13:03:04:94620,1,3,32,10,8,14,1,-2
13:03:04:108097,-7,-5,-14,3,3,-3,-4,-1
13:03:04:124487,-7,-5,-14,3,3,-3,-4,-1
13:03:04:125332,3,10,11,-6,5,-2,-1,-4
13:03:04:126000,-3,0,-19,-9,-9,18,0,-4
13:03:04:138861,-3,0,-19,-9,-9,18,0,-4
13:03:04:139668,2,-6,-30,-28,1,1,3,6
13:03:04:145648,-1,3,26,-5,-2,-11,-5,-5
13:03:04:153807,-1,3,26,-5,-2,-11,-5,-5
13:03:04:154621,-3,-24,-28,19,6,2,0,0
13:03:04:168131,-5,-2,-27,-41,5,2,0,-7
13:03:04:176349,-5,-2,-27,-41,5,2,0,-7
13:03:04:177126,-27,-5,-10,-38,-14,-10,-3,1
13:03:04:183111,7,13,14,-5,5,9,5,-3
13:03:04:198875,7,13,14,-5,5,9,5,-3
13:03:04:199632,3,-2,-50,27,-4,-13,-6,1
13:03:04:205603,9,11,33,24,3,5,0,0
13:03:04:213788,9,11,33,24,3,5,0,0
13:03:04:214626,11,-6,-5,32,-26,-17,-8,8
13:03:04:228109,18,-7,-26,4,-2,-5,-5,8
13:03:04:236391,18,-7,-26,4,-2,-5,-5,8
13:03:04:237136,16,22,27,-24,6,5,2,-10
13:03:04:243168,48,-6,-6,18,-7,1,17,25
13:03:04:258851,48,-6,-6,18,-7,1,17,25
13:03:04:259649,-3,7,12,-3,6,4,10,-10
13:03:04:265635,-78,-21,-6,-1,-1,-5,-19,0
13:03:04:273851,-78,-21,-6,-1,-1,-5,-19,0
13:03:04:274636,-32,-1,2,-1,0,5,-9,-8
13:03:04:288593,19,0,-1,-8,10,4,-5,4
13:03:04:296384,19,0,-1,-8,10,4,-5,4
13:03:04:297143,-5,2,14,-2,-10,-9,-7,-5
13:03:04:303106,0,6,-2,2,5,23,2,-6
13:03:04:318861,0,6,-2,2,5,23,2,-6
13:03:04:319608,19,-2,-1,-5,11,8,1,0
13:03:04:325589,-15,-14,-58,-3,5,-3,18,2
13:03:04:333854,-15,-14,-58,-3,5,-3,18,2
13:03:04:334621,8,8,16,-6,-4,-13,-1,7
13:03:04:348582,-4,6,31,25,22,-1,4,-8
13:03:04:356351,-4,6,31,25,22,-1,4,-8
13:03:04:357159,-6,-14,56,31,-9,9,0,4
13:03:04:363090,19,40,57,-34,-22,-15,-3,-1
13:03:04:378846,19,40,57,-34,-22,-15,-3,-1
13:03:04:379614,-12,-28,-55,-31,-21,-13,-15,-4
13:03:04:385587,-3,5,12,1,1,-2,5,-2
13:03:04:393184,-3,5,12,1,1,-2,5,-2
13:03:04:400618,12,-4,-11,-10,8,-4,-33,4
13:03:04:408097,-69,-19,-17,5,5,-10,-43,-46
13:03:04:416366,-69,-19,-17,5,5,-10,-43,-46
13:03:04:417143,61,16,1,10,0,10,37,47
13:03:04:430598,41,-14,-29,11,-6,-4,1,20
13:03:04:438887,41,-14,-29,11,-6,-4,1,20
13:03:04:439628,-14,6,3,-6,5,-17,5,48
13:03:04:445604,-58,-27,-6,-6,-5,-24,-38,-77
13:03:04:453181,-58,-27,-6,-6,-5,-24,-38,-77
13:03:04:460608,13,3,-15,5,21,14,7,-6
13:03:04:468123,-3,28,1,-31,-7,4,7,13
13:03:04:476323,-3,28,1,-31,-7,4,7,13
13:03:04:477089,-23,-19,13,-44,-10,-13,20,-27
13:03:04:490622,5,-37,-71,-75,-57,-5,-12,13
13:03:04:498852,5,-37,-71,-75,-57,-5,-12,13
13:03:04:499626,-25,-10,-30,-8,-18,-6,-28,-25
13:03:04:505611,23,8,23,3,16,-1,16,19
13:03:04:513155,23,8,23,3,16,-1,16,19
13:03:04:520628,-16,15,-8,-3,1,2,-11,-25
13:03:04:528161,21,14,21,30,13,6,-11,11
13:03:04:536350,21,14,21,30,13,6,-11,11
13:03:04:537144,-40,20,20,43,12,6,-16,-50
13:03:04:550629,18,18,7,16,-6,20,111,96
13:03:04:558813,18,18,7,16,-6,20,111,96
13:03:04:559613,-26,-6,-5,-13,11,28,-39,-45
13:03:04:565637,-39,-3,12,14,-1,-8,-32,-42
13:03:04:573141,-39,-3,12,14,-1,-8,-32,-42
13:03:04:580611,12,1,37,21,-1,3,28,35
13:03:04:588078,33,37,61,42,35,15,15,16
13:03:04:596380,33,37,61,42,35,15,15,16
13:03:04:597118,-17,-32,-26,-37,-9,-10,3,-18
13:03:04:610614,7,-5,-23,-24,46,9,-19,-8
13:03:04:618805,7,-5,-23,-24,46,9,-19,-8
13:03:04:619582,20,17,30,19,25,13,8,19
13:03:04:625595,-16,-25,-11,33,-39,38,5,-4
13:03:04:641347,-16,-25,-11,33,-39,38,5,-4
13:03:04:642075,21,5,29,-56,-10,-36,-2,11
13:03:04:648094,-19,-31,-38,45,-24,-31,-23,-15
13:03:04:656366,-19,-31,-38,45,-24,-31,-23,-15
13:03:04:657129,4,-7,-15,59,-42,-24,-14,9
13:03:04:670624,10,14,7,-35,22,4,0,-4
13:03:04:695139,10,14,7,-35,22,4,0,-4
13:03:04:695956,6,14,20,7,23,18,12,4
13:03:04:696763,3,-1,-9,-31,-3,-11,-7,-1
13:03:04:697583,3,-1,-9,-31,-3,-11,-7,-1
13:03:04:700632,-52,-11,-8,-11,11,4,1,0
13:03:04:708124,-20,-9,13,11,-15,-12,-32,-7
13:03:04:716348,-20,-9,13,11,-15,-12,-32,-7
13:03:04:717137,25,1,-3,-6,13,37,55,34
13:03:04:730615,-39,-6,-8,-14,-6,-17,-52,-39
13:03:04:738864,-39,-6,-8,-14,-6,-17,-52,-39
13:03:04:739637,-63,-17,-14,-11,-7,-11,-6,-72
13:03:04:745617,-23,-24,-4,-9,-3,-5,17,-83
13:03:04:753233,-23,-24,-4,-9,-3,-5,17,-83
13:03:04:760619,1,-9,-11,7,-21,-22,-18,28
13:03:04:768128,23,23,3,8,5,7,-7,32
13:03:04:776343,23,23,3,8,5,7,-7,32
13:03:04:777118,8,8,-7,10,59,40,9,-14
13:03:04:799503,36,16,17,5,-4,-10,-6,44
13:03:04:800374,36,16,17,5,-4,-10,-6,44
13:03:04:801108,29,7,-8,29,-4,-9,-20,6
13:03:04:805604,-13,-19,-18,-31,54,104,23,4
13:03:04:813209,-13,-19,-18,-31,54,104,23,4
13:03:04:820653,7,-5,-59,-27,-27,-45,-15,5
13:03:04:837007,-5,6,22,-6,-30,-49,9,-2
13:03:04:837806,-5,6,22,-6,-30,-49,9,-2
13:03:04:838620,24,12,21,0,-9,1,-14,3
13:03:04:850592,3,-15,-8,43,-2,-17,-2,-1
13:03:04:858869,3,-15,-8,43,-2,-17,-2,-1
13:03:04:859640,-3,1,-43,-24,-51,-14,-7,9
13:03:04:865596,7,12,2,-6,17,15,9,12
13:03:04:873184,7,12,2,-6,17,15,9,12
13:03:04:880618,-2,-11,16,9,-2,2,15,-2
13:03:04:888096,8,23,15,8,-16,-11,-6,4
13:03:04:896360,8,23,15,8,-16,-11,-6,4
13:03:04:897123,7,0,-5,-27,2,-3,-8,-2
13:03:04:910618,-1,-1,22,0,1,-9,3,4
13:03:04:918859,-1,-1,22,0,1,-9,3,4
13:03:04:919632,-11,4,44,39,9,3,0,5
13:03:04:925631,-27,-9,-16,-14,-15,-14,-1,-7
13:03:04:933187,-27,-9,-16,-14,-15,-14,-1,-7
13:03:04:940628,-1,-16,-39,-2,-7,1,-7,3
13:03:04:948106,7,-13,-39,-14,-15,-10,-4,4
13:03:04:956757,7,-13,-39,-14,-15,-10,-4,4
13:03:04:963130,1,10,12,39,16,5,3,1
13:03:04:970640,3,-40,-30,-38,-6,-2,2,8
13:03:04:978843,3,-40,-30,-38,-6,-2,2,8
13:03:04:979633,-3,-14,-21,-14,0,-3,3,12
13:03:04:985596,-9,7,15,12,3,1,1,-20
13:03:04:993180,-9,7,15,12,3,1,1,-20
13:03:05:608,-40,4,22,-3,0,-6,-22,-39
13:03:05:8109,-41,-14,-8,-8,-3,-3,43,-4
13:03:05:16379,-41,-14,-8,-8,-3,-3,43,-4
13:03:05:17131,29,10,5,-6,1,4,4,52
13:03:05:30563,44,-5,-2,-3,0,-15,-64,-13
13:03:05:38846,44,-5,-2,-3,0,-15,-64,-13
13:03:05:39615,68,4,-1,9,-5,0,-9,27
13:03:05:45603,38,13,8,12,-3,-4,-4,30
13:03:05:53184,38,13,8,12,-3,-4,-4,30
13:03:05:60623,25,15,6,-12,3,-5,1,-13
13:03:05:68106,-7,-6,26,10,9,6,4,-8
13:03:05:76379,-7,-6,26,10,9,6,4,-8
13:03:05:77124,-28,-18,-49,-21,-19,-35,1,-17
13:03:05:90611,4,15,14,-5,-27,-36,9,7
13:03:05:98808,4,15,14,-5,-27,-36,9,7
13:03:05:99641,-4,-2,32,27,19,57,27,0
13:03:05:113795,-7,-12,-42,-29,-5,5,-1,2
13:03:05:114628,-7,-12,-42,-29,-5,5,-1,2
13:03:05:120606,-13,0,-29,-47,-3,-6,-8,-13
13:03:05:136964,-6,13,5,9,4,4,2,-6
13:03:05:137779,-6,13,5,9,4,4,2,-6
13:03:05:138573,-1,-9,39,5,20,9,5,-1
13:03:05:150657,-8,1,-59,37,-29,-22,-18,-3
13:03:05:159296,-8,1,-59,37,-29,-22,-18,-3
13:03:05:166383,-2,-9,36,4,8,0,-3,-3
13:03:05:167121,7,18,9,-13,17,12,7,1
13:03:05:173178,7,18,9,-13,17,12,7,1
13:03:05:188807,-8,8,13,18,-7,-5,-1,-4
13:03:05:189577,-2,-5,5,12,3,0,1,1
13:03:05:196342,-2,-5,5,12,3,0,1,1
13:03:05:197076,-30,2,-1,-10,-5,-8,-5,-8
13:03:05:210603,18,-10,-2,-2,0,6,-2,-7
13:03:05:218885,18,-10,-2,-2,0,6,-2,-7
13:03:05:219635,-6,14,7,5,-6,-6,-7,-17
13:03:05:225612,38,4,19,3,11,14,13,19
13:03:05:233164,38,4,19,3,11,14,13,19
13:03:05:240665,44,9,-10,-20,0,3,-12,-10
13:03:05:248115,-41,-10,13,1,-10,-9,-1,-3
13:03:05:256343,-41,-10,13,1,-10,-9,-1,-3
13:03:05:257097,-3,-9,-17,5,-7,-4,-5,23
13:03:05:279470,0,1,1,7,5,5,-1,-11
13:03:05:280351,0,1,1,7,5,5,-1,-11
13:03:05:281122,-17,4,13,6,4,13,1,-14
13:03:05:285603,-5,19,7,-19,3,-4,0,6
13:03:05:293193,-5,19,7,-19,3,-4,0,6
13:03:05:300656,-17,-35,-62,-25,-1,-10,3,-5
13:03:05:308112,-4,-16,-33,-68,18,10,1,-3
13:03:05:316343,-4,-16,-33,-68,18,10,1,-3
13:03:05:317082,14,7,27,-14,2,-13,2,5
13:03:05:330621,-10,13,21,30,-4,-12,-6,-4
13:03:05:338800,-10,13,21,30,-4,-12,-6,-4
13:03:05:339581,-29,4,6,17,-3,6,-32,-5
13:03:05:353830,-20,0,22,-5,-1,1,51,-5
13:03:05:354634,-20,0,22,-5,-1,1,51,-5
13:03:05:360621,-62,-1,-2,21,-6,-4,52,5
13:03:05:368119,-56,-15,-12,-2,-3,-2,-17,-59
13:03:05:375630,-56,-15,-12,-2,-3,-2,-17,-59
13:03:05:383182,-28,-4,-3,-23,-14,-26,-33,-50
13:03:05:390644,41,0,-16,4,7,23,6,44
13:03:05:398820,41,0,-16,4,7,23,6,44
13:03:05:399645,4,-20,-18,17,12,36,-6,-5
13:03:05:413781,10,19,-15,-6,-58,-86,-36,-17
13:03:05:414597,10,19,-15,-6,-58,-86,-36,-17
13:03:05:420616,47,32,87,34,39,89,33,33
13:03:05:428123,-15,9,71,81,48,55,2,16
13:03:05:443849,-15,9,71,81,48,55,2,16
13:03:05:444629,6,-13,-5,66,-70,-43,-4,2
13:03:05:450626,3,-35,-34,-23,-41,-12,10,20
13:03:05:458804,3,-35,-34,-23,-41,-12,10,20
13:03:05:459616,17,0,29,-31,11,-5,-5,-10
13:03:05:473827,5,36,-7,-22,22,-2,-11,6
13:03:05:474640,5,36,-7,-22,22,-2,-11,6
13:03:05:480615,0,-8,-46,1,-8,-19,-57,-8
13:03:05:488142,106,46,22,-16,18,17,39,35
13:03:05:495634,106,46,22,-16,18,17,39,35
13:03:05:503109,39,-1,-3,27,1,-20,-43,10
13:03:05:510613,-40,-30,-2,-23,-1,24,72,8
13:03:05:518882,-40,-30,-2,-23,-1,24,72,8
13:03:05:519655,-18,-2,-31,-37,-1,-19,-59,-12
13:03:05:533796,-27,-37,-24,10,2,-4,-75,-75
13:03:05:534637,-27,-37,-24,10,2,-4,-75,-75
13:03:05:540655,4,12,0,-15,13,41,63,32
13:03:05:556357,-11,18,-13,-27,-23,-11,-20,20
13:03:05:557156,-11,18,-13,-27,-23,-11,-20,20
13:03:05:563136,15,-6,-4,-21,3,4,24,1
13:03:05:570631,-9,-6,37,-33,-27,-9,-17,0
13:03:05:578802,-9,-6,37,-33,-27,-9,-17,0
13:03:05:579595,5,8,5,-11,-25,-36,-11,3
13:03:05:593863,-16,-10,-17,-5,9,-6,1,-5
13:03:05:594642,-16,-10,-17,-5,9,-6,1,-5
13:03:05:600618,-2,4,10,5,16,-3,10,-4
13:03:05:608163,2,-6,-27,35,6,8,-5,-3
13:03:05:615662,2,-6,-27,35,6,8,-5,-3
13:03:05:623129,-2,-3,-9,8,16,6,12,1
13:03:05:630616,1,-1,2,14,13,11,-18,3
13:03:05:638805,1,-1,2,14,13,11,-18,3
13:03:05:639632,-20,-19,-52,-27,15,20,20,-1
13:03:05:653780,5,-8,-1,-4,-12,-9,-10,5
13:03:05:654611,5,-8,-1,-4,-12,-9,-10,5
13:03:05:660644,-21,1,-4,-10,-8,-9,1,-7
13:03:05:668127,-15,2,21,14,3,-1,1,1
13:03:05:683875,-15,2,21,14,3,-1,1,1
13:03:05:684655,8,11,3,-3,-5,-9,-1,-1
13:03:05:690625,-4,-13,4,1,-13,-16,-6,-5
13:03:05:698805,-4,-13,4,1,-13,-16,-6,-5
13:03:05:699610,5,-1,-5,7,-10,2,6,3
13:03:05:713812,3,2,13,5,2,2,-2,-3
13:03:05:714618,3,2,13,5,2,2,-2,-3
13:03:05:720634,2,-8,-20,-4,0,-4,1,0
13:03:05:728150,-4,-6,-15,-2,-14,-9,-5,0
13:03:05:735637,-4,-6,-15,-2,-14,-9,-5,0
13:03:05:743163,4,7,28,3,2,-5,0,1
13:03:05:750616,-2,-2,-8,5,10,4,-1,0
13:03:05:758820,-2,-2,-8,5,10,4,-1,0
13:03:05:759612,-2,-9,-13,0,4,1,1,2
13:03:05:773779,0,-1,-9,1,2,3,-2,-1
13:03:05:774606,0,-1,-9,1,2,3,-2,-1
13:03:05:780638,4,4,14,2,-2,-4,0,1
13:03:05:788143,2,7,7,10,9,4,2,1
13:03:05:795695,2,7,7,10,9,4,2,1
13:03:05:803090,1,8,8,-1,2,-6,-1,-2
13:03:05:810583,0,-3,18,20,9,4,0,-1
13:03:05:818828,0,-3,18,20,9,4,0,-1
13:03:05:819639,-1,-2,5,14,3,1,1,-1
13:03:05:833813,-6,-14,-43,-13,-15,-9,-9,-4
13:03:05:834621,-6,-14,-43,-13,-15,-9,-9,-4
13:03:05:840623,0,4,11,-6,-1,-3,1,0
13:03:05:856333,0,-1,5,-6,2,1,0,-2
13:03:05:857095,0,-1,5,-6,2,1,0,-2
13:03:05:863066,3,-13,-22,-16,-18,-9,-7,-1
13:03:05:870562,-1,5,-6,-5,3,2,2,-6
13:03:05:878841,-1,5,-6,-5,3,2,2,-6
13:03:05:879609,8,12,9,-16,-5,-1,0,-2
13:03:05:893801,-5,-8,-16,-1,-6,-3,-1,0
13:03:05:894634,-5,-8,-16,-1,-6,-3,-1,0
13:03:05:900577,-5,4,22,11,1,0,0,1
13:03:05:908075,0,2,11,-6,3,1,1,3
13:03:05:915665,0,2,11,-6,3,1,1,3
13:03:05:923114,-2,-4,-10,0,0,-1,-1,1
13:03:05:930596,6,5,17,-4,8,5,2,0
13:03:05:938845,6,5,17,-4,8,5,2,0
13:03:05:939618,3,-4,4,3,5,1,1,2
13:03:05:953835,-11,-5,-17,-3,-13,-11,-8,-10
13:03:05:954628,-11,-5,-17,-3,-13,-11,-8,-10
13:03:05:960603,-1,0,5,12,3,1,-1,-5
13:03:05:968120,-15,-5,4,24,-4,-4,-2,4
13:03:05:975682,-15,-5,4,24,-4,-4,-2,4
13:03:05:983167,1,-2,3,-4,-4,-4,-1,0
13:03:05:990664,13,6,4,0,4,2,0,3
13:03:05:998843,13,6,4,0,4,2,0,3
13:03:05:999651,11,-1,-2,-3,5,0,-1,2
13:03:06:13837,9,-4,2,-1,2,1,1,16
13:03:06:14641,9,-4,2,-1,2,1,1,16
13:03:06:20626,-74,-17,-11,-16,1,-5,-26,-4
13:03:06:28114,-67,1,8,-10,7,16,39,9
13:03:06:35670,-67,1,8,-10,7,16,39,9
13:03:06:43163,-33,-4,-11,-3,-1,1,16,-4
13:03:06:50652,-4,-7,-2,-9,3,6,24,-10
13:03:06:58795,-4,-7,-2,-9,3,6,24,-10
13:03:06:59587,36,2,-2,2,-2,-4,-9,6
13:03:06:73834,24,4,-4,-3,-2,-3,-21,-27
13:03:06:74635,24,4,-4,-3,-2,-3,-21,-27
13:03:06:80658,1,19,14,9,-5,-3,-6,-7
13:03:06:88126,11,-4,-3,-6,-13,-20,-10,5
13:03:06:95659,11,-4,-3,-6,-13,-20,-10,5
13:03:06:103163,15,5,3,-1,-9,-8,7,8
13:03:06:110657,2,0,-5,6,-5,21,-2,-3
13:03:06:118823,2,0,-5,6,-5,21,-2,-3
13:03:06:119598,17,12,17,10,1,12,9,-2
13:03:06:133814,-3,-12,-34,-8,4,-10,-11,4
13:03:06:134596,-3,-12,-34,-8,4,-10,-11,4
13:03:06:140617,5,1,1,-8,4,4,1,-6
13:03:06:148129,7,-3,-10,-4,-4,-12,-9,2
13:03:06:155681,7,-3,-10,-4,-4,-12,-9,2
13:03:06:163076,0,5,-15,-25,-8,-9,-2,-6
13:03:06:170590,-2,-47,-11,-1,-6,4,-5,2
13:03:06:178850,-2,-47,-11,-1,-6,4,-5,2
13:03:06:179613,0,-8,-1,6,16,31,2,-2
13:03:06:193834,6,20,36,0,-2,4,-3,-1
13:03:06:194637,6,20,36,0,-2,4,-3,-1
13:03:06:200597,2,-8,-9,37,14,27,8,5
13:03:06:208095,0,5,0,-9,-8,-10,-7,-6
13:03:06:215661,0,5,0,-9,-8,-10,-7,-6
13:03:06:223114,-1,-7,-22,-17,-9,-11,-3,-4
13:03:06:230626,2,6,-2,8,-2,-2,-3,2
13:03:06:238838,2,6,-2,8,-2,-2,-3,2
13:03:06:239611,-1,-6,3,-12,-10,-14,-3,-1
13:03:06:253809,4,11,12,-10,-21,-19,-5,-1
13:03:06:254614,4,11,12,-10,-21,-19,-5,-1
13:03:06:260603,2,-7,-17,1,-19,-15,-1,7
13:03:06:268076,0,-8,-2,1,5,0,-1,1
13:03:06:275705,0,-8,-2,1,5,0,-1,1
13:03:06:291246,-2,6,3,-2,2,-5,-3,-4
13:03:06:292083,-1,2,4,1,4,-5,-2,-2
13:03:06:298174,-1,2,4,1,4,-5,-2,-2
13:03:06:305635,0,-5,4,0,1,-5,-2,-6
13:03:06:313843,2,8,4,-3,7,4,1,0
13:03:06:314646,2,8,4,-3,7,4,1,0
13:03:06:320636,-1,-3,-6,1,2,-4,-2,1
13:03:06:336385,3,-1,-22,-3,13,9,4,3
13:03:06:337133,3,-1,-22,-3,13,9,4,3
13:03:06:343153,-4,-13,11,2,3,-1,0,-2
13:03:06:350605,5,2,2,13,4,2,1,0
13:03:06:358218,5,2,2,13,4,2,1,0
13:03:06:365640,-1,13,4,5,1,-1,2,-2
13:03:06:373770,-12,2,8,2,-2,-1,-2,-10
13:03:06:374635,-12,2,8,2,-2,-1,-2,-10
13:03:06:388147,7,12,26,5,3,1,1,1
13:03:06:396396,21,9,2,-3,-1,-2,0,15
13:03:06:397142,21,9,2,-3,-1,-2,0,15
13:03:06:403138,-5,-11,-12,-9,-1,-3,-2,-1
13:03:06:410604,-30,-6,0,0,-2,-8,-8,-1
13:03:06:418171,-30,-6,0,0,-2,-8,-8,-1
13:03:06:425626,-22,-10,-8,-5,-4,-4,-3,-14
13:03:06:433793,13,3,4,-4,-1,0,-4,11
13:03:06:434608,13,3,4,-4,-1,0,-4,11
13:03:06:457004,6,-5,-7,10,1,4,23,6
13:03:06:457783,8,5,6,6,4,3,2,-6
13:03:06:458599,8,5,6,6,4,3,2,-6
13:03:06:463107,7,0,-2,-2,1,-2,-10,-1
13:03:06:470632,1,-4,-5,-9,-12,-8,0,-2
13:03:06:478196,1,-4,-5,-9,-12,-8,0,-2
13:03:06:485634,2,0,1,-1,-5,-15,-7,1
13:03:06:493801,-7,-5,0,11,4,-10,-1,-8
13:03:06:494608,-7,-5,0,11,4,-10,-1,-8
13:03:06:500645,-9,-22,-5,-18,-2,9,0,0
13:03:06:516397,-2,-2,-1,11,8,2,-2,-6
13:03:06:517159,-2,-2,-1,11,8,2,-2,-6
13:03:06:523148,3,-9,-2,-18,-13,-3,-3,0
13:03:06:530622,-7,-5,-7,-3,4,5,2,0
13:03:06:538176,-7,-5,-7,-3,4,5,2,0
13:03:06:545644,1,13,0,-5,-10,-2,-5,-3
13:03:06:553769,-3,1,3,6,3,4,1,-1
13:03:06:554620,-3,1,3,6,3,4,1,-1
13:03:06:560572,2,6,-4,-6,1,-9,-3,1
13:03:06:576314,1,4,1,-8,-4,-5,1,-1
13:03:06:577096,1,4,1,-8,-4,-5,1,-1
13:03:06:583139,1,3,-2,2,-2,0,-2,0
13:03:06:590660,3,2,0,-8,2,2,-3,-2
13:03:06:598167,3,2,0,-8,2,2,-3,-2
13:03:06:605579,-1,0,-3,3,4,0,-1,2
13:03:06:613784,1,-2,-1,-3,-4,0,-2,-1
13:03:06:614610,1,-2,-1,-3,-4,0,-2,-1
13:03:06:620594,-1,1,1,5,2,-1,-2,-1
13:03:06:636333,-3,-6,-2,-2,-3,3,-1,-1
13:03:06:637121,-3,-6,-2,-2,-3,3,-1,-1
13:03:06:643093,-4,4,1,5,0,4,-1,-7
13:03:06:650563,0,-1,0,-9,-2,-2,-2,-1
13:03:06:658186,0,-1,0,-9,-2,-2,-2,-1
13:03:06:665696,4,0,-1,22,40,33,7,5
13:03:06:673809,2,3,-3,-17,-3,3,3,11
13:03:06:674612,2,3,-3,-17,-3,3,3,11
13:03:06:680597,1,-3,-3,-11,-15,-12,-6,0
13:03:06:696354,-1,0,1,5,-4,-4,-3,-5
13:03:06:697105,-1,0,1,5,-4,-4,-3,-5
13:03:06:703140,-2,-3,2,-3,-2,-5,0,-1
13:03:06:710582,0,6,0,0,0,-2,-3,-2
13:03:06:718160,0,6,0,0,0,-2,-3,-2
13:03:06:725618,-4,-7,-3,-3,-3,-5,-3,1
13:03:06:733832,-2,-3,-1,1,-2,0,-1,0
13:03:06:734653,-2,-3,-1,1,-2,0,-1,0
13:03:06:740606,0,1,-2,1,-9,-8,0,-3
13:03:06:756360,-1,0,0,5,3,5,2,-6
13:03:06:757114,-1,0,0,5,3,5,2,-6
13:03:06:763119,1,5,-3,-10,-5,-3,-4,1
13:03:06:770603,-2,-10,2,3,2,3,1,0
13:03:06:778180,-2,-10,2,3,2,3,1,0
13:03:06:785681,1,-5,1,-6,-11,-9,-2,-1
13:03:06:793815,-3,-1,2,5,4,8,-4,-6
13:03:06:794622,-3,-1,2,5,4,8,-4,-6
13:03:06:800640,-2,-4,-3,-4,1,3,-1,-2
13:03:06:816381,-1,-2,-5,10,14,7,3,1
13:03:06:817158,-1,-2,-5,10,14,7,3,1
13:03:06:823142,-2,2,0,0,0,-2,-2,-1
13:03:06:830626,-2,-2,-2,-7,-12,-17,-4,0
13:03:06:838191,-2,-2,-2,-7,-12,-17,-4,0
13:03:06:845644,0,0,2,2,2,-1,-1,-4
13:03:06:853807,0,5,0,-2,-6,-6,2,1
13:03:06:854600,0,5,0,-2,-6,-6,2,1
13:03:06:860610,0,5,-2,0,-3,-3,-1,0
13:03:06:876291,-1,-5,-3,-5,-2,-1,-8,-4
13:03:06:877105,-1,-5,-3,-5,-2,-1,-8,-4
13:03:06:883148,0,3,1,-1,-2,0,-2,-4
13:03:06:890640,0,-3,-1,-3,-2,0,3,5
13:03:06:898154,0,-3,-1,-3,-2,0,3,5
13:03:06:905603,-2,6,1,7,3,8,2,1
13:03:06:913832,-2,-5,-2,-2,0,1,2,-3
13:03:06:914659,-2,-5,-2,-2,0,1,2,-3
13:03:06:920593,-2,-5,-3,-5,-6,-11,-3,2
13:03:06:936289,2,2,-2,-4,-2,-2,-1,-1
13:03:06:937114,2,2,-2,-4,-2,-2,-1,-1
13:03:06:943101,0,-4,2,1,-3,-3,0,5
13:03:06:950612,0,11,2,0,0,-1,-3,-5
13:03:06:958166,0,11,2,0,0,-1,-3,-5
13:03:06:965609,-1,-9,0,-3,1,2,-1,-1
13:03:06:973846,-2,-2,-4,2,-2,-3,-1,0
13:03:06:974640,-2,-2,-4,2,-2,-3,-1,0
13:03:06:980639,-3,-10,-5,-7,-5,-8,-1,-1
13:03:06:996394,-1,-3,4,3,8,18,4,2
13:03:06:997142,-1,-3,4,3,8,18,4,2
13:03:07:3122,-3,3,-4,0,-6,-3,-2,-2
13:03:07:18786,-2,1,-6,-1,-1,-4,-4,-5
13:03:07:19654,-2,1,-6,-1,-1,-4,-4,-5
13:03:07:25618,0,-1,-1,-3,12,7,-1,-5
13:03:07:33828,-1,1,-3,-4,-3,7,-2,2
13:03:07:34637,-1,1,-3,-4,-3,7,-2,2
13:03:07:40597,0,-3,0,0,-3,-5,-5,-2
13:03:07:56288,-3,-4,0,-3,0,-6,-2,-5
13:03:07:57118,-3,-4,0,-3,0,-6,-2,-5
13:03:07:63094,-1,2,-1,1,-7,-9,0,0
13:03:07:78814,-1,2,-1,1,-7,-9,0,0
13:03:07:79641,3,-3,-2,0,-7,-8,-1,2
13:03:07:85581,-9,-10,-3,-5,-3,-3,-4,-14
13:03:07:93806,-9,-10,-3,-5,-3,-3,-4,-14
13:03:07:94620,-5,4,0,1,2,-2,-1,-1
13:03:07:100589,4,0,-1,-1,-1,-2,-1,4
13:03:07:116412,4,0,-1,-1,-1,-2,-1,4
13:03:07:117122,3,-7,0,-1,-6,-7,1,2
13:03:07:123124,-2,-1,1,-1,3,2,-1,-1
13:03:07:138830,-2,-1,1,-1,3,2,-1,-1
13:03:07:139616,1,4,2,1,27,13,2,1
13:03:07:145665,-1,-4,-10,1,1,7,3,-1
13:03:07:153857,-1,-4,-10,1,1,7,3,-1
13:03:07:154609,-3,-10,8,-4,-3,3,-1,-1
13:03:07:160611,7,9,4,5,8,17,1,8
13:03:07:176324,7,9,4,5,8,17,1,8
13:03:07:177117,-5,16,-5,-1,-14,-15,-5,-7
13:03:07:183181,3,6,2,-3,-7,-10,-4,-4
13:03:07:198795,3,6,2,-3,-7,-10,-4,-4
13:03:07:199575,-4,-15,-2,-2,-7,-3,1,7
13:03:07:205635,1,2,2,1,6,-6,-2,7
13:03:07:213815,1,2,2,1,6,-6,-2,7
13:03:07:214622,-5,-6,-9,-1,-3,-12,-10,-21
13:03:07:220650,-1,-6,-3,7,6,4,4,6
13:03:07:236301,-1,-6,-3,7,6,4,4,6
13:03:07:237086,-17,1,1,4,-2,3,2,4
13:03:07:243142,7,12,4,-3,-4,0,0,2
13:03:07:258833,7,12,4,-3,-4,0,0,2
13:03:07:259646,-7,-60,-4,-3,0,5,2,3
13:03:07:265607,-6,-2,2,3,-1,0,-1,-5
13:03:07:273807,-6,-2,2,3,-1,0,-1,-5
13:03:07:274607,12,13,3,2,6,7,3,3
13:03:07:288139,-3,-8,-2,-6,-4,2,-1,-1
13:03:07:296349,-3,-8,-2,-6,-4,2,-1,-1
13:03:07:297150,1,15,0,-2,0,-5,-2,0
13:03:07:303179,-5,6,-3,-3,-4,-5,-4,-6
13:03:07:318856,-5,6,-3,-3,-4,-5,-4,-6
13:03:07:319621,2,-2,-4,1,-4,-4,1,4
13:03:07:325609,2,-12,4,2,2,4,0,2
13:03:07:333831,2,-12,4,2,2,4,0,2
13:03:07:334632,-7,-4,-2,-7,-19,-8,3,1
13:03:07:348098,-3,-9,-5,-1,11,17,3,1
13:03:07:356405,-3,-9,-5,-1,11,17,3,1
13:03:07:357142,8,10,-3,-1,0,1,-2,1
13:03:07:363122,-7,-2,2,-4,-9,-25,-6,-8
13:03:07:378845,-7,-2,2,-4,-9,-25,-6,-8
13:03:07:379621,5,4,1,2,12,11,0,3
13:03:07:385592,-2,7,-4,3,4,0,1,1
13:03:07:394261,-2,7,-4,3,4,0,1,1
13:03:07:400612,2,1,-3,-3,-13,-12,-5,-5
13:03:07:408135,-7,-36,-3,12,16,11,4,3
13:03:07:416280,-7,-36,-3,12,16,11,4,3
13:03:07:417081,2,5,1,-4,-12,-4,-1,0
13:03:07:423111,-1,10,-3,13,4,3,3,0
13:03:07:438899,-1,10,-3,13,4,3,3,0
13:03:07:439654,-5,-9,-2,-3,0,-4,-5,-10
13:03:07:445621,0,21,2,-10,-11,-7,-4,-3
13:03:07:453792,0,21,2,-10,-11,-7,-4,-3
13:03:07:454584,-4,14,0,-4,-8,-10,-3,-3
13:03:07:468149,2,-3,-2,-9,-19,-15,-2,-1
13:03:07:476403,2,-3,-2,-9,-19,-15,-2,-1
13:03:07:477136,4,11,-4,1,0,-2,0,1
13:03:07:483137,-4,-8,4,-8,-9,-5,-5,-10
13:03:07:498838,-4,-8,4,-8,-9,-5,-5,-10
13:03:07:499617,1,12,8,5,12,0,-1,-1
13:03:07:505658,3,12,0,-2,-4,1,0,6
13:03:07:513846,3,12,0,-2,-4,1,0,6
13:03:07:514683,-5,-10,-4,3,-6,-2,-4,-4
13:03:07:528105,0,3,-14,-14,-6,-2,-2,3
13:03:07:536361,0,3,-14,-14,-6,-2,-2,3
13:03:07:537128,-3,-40,-6,-1,27,28,-1,-13
13:03:07:543134,-21,-9,2,-1,1,6,-6,-16
13:03:07:558870,-21,-9,2,-1,1,6,-6,-16
13:03:07:559641,-1,25,-4,-4,-11,-9,6,7
13:03:07:565586,0,-19,-6,-8,-12,-21,-4,9
13:03:07:573873,0,-19,-6,-8,-12,-21,-4,9
13:03:07:574615,-6,-5,1,4,9,7,-3,-3
13:03:07:588132,17,35,4,5,-3,-3,0,-2
13:03:07:596427,17,35,4,5,-3,-3,0,-2
13:03:07:597155,-65,-73,-13,-17,-10,-11,-7,-26
13:03:07:603103,-1,0,-8,8,5,2,0,-5
13:03:07:618835,-1,0,-8,8,5,2,0,-5
13:03:07:619609,25,24,-1,3,-5,7,0,17
13:03:07:625600,12,7,-1,-2,-1,-7,-4,5
13:03:07:633821,12,7,-1,-2,-1,-7,-4,5
13:03:07:634638,14,35,7,14,41,16,5,-9
13:03:07:648137,8,13,9,-1,0,12,2,9
13:03:07:656398,8,13,9,-1,0,12,2,9
13:03:07:657125,1,8,2,6,-13,-16,-8,9
13:03:07:663080,6,5,-1,2,4,-2,-4,0
13:03:07:678879,6,5,-1,2,4,-2,-4,0
13:03:07:679620,9,-5,5,-7,-7,-10,-4,1
13:03:07:685622,-3,-3,6,-7,-12,-8,1,-10
13:03:07:693841,-3,-3,6,-7,-12,-8,1,-10
13:03:07:694639,17,13,4,1,4,-5,2,14
13:03:07:708217,-27,-16,-4,-1,1,0,-8,-38
13:03:07:716373,-27,-16,-4,-1,1,0,-8,-38
13:03:07:717151,-7,-4,0,-5,2,0,6,3
13:03:07:723126,-14,-24,-7,-1,5,3,2,9
13:03:07:738811,-14,-24,-7,-1,5,3,2,9
13:03:07:739670,11,16,-2,-6,-15,-6,8,3
13:03:07:745657,-8,-8,-10,1,-4,-7,-14,3
13:03:07:753843,-8,-8,-10,1,-4,-7,-14,3
13:03:07:754626,6,-2,3,-6,-13,-10,-10,3
13:03:07:768142,-4,-25,-5,-1,-4,0,1,13
13:03:07:776296,-4,-25,-5,-1,-4,0,1,13
13:03:07:777107,-15,8,17,0,-12,0,-10,-24
13:03:07:783087,21,0,7,5,9,3,16,9
13:03:07:798805,21,0,7,5,9,3,16,9
13:03:07:799588,8,19,-2,-5,4,9,5,-6
13:03:07:805643,-16,3,-2,1,3,5,1,-1
13:03:07:813835,-16,3,-2,1,3,5,1,-1
13:03:07:814636,0,-1,-5,0,1,-4,-5,-5
13:03:07:828146,-9,-14,-3,-6,9,7,10,13
13:03:07:836305,-9,-14,-3,-6,9,7,10,13
13:03:07:837096,-1,-21,-10,-6,-31,-5,-3,-4
13:03:07:843158,-6,-34,-23,-11,-7,-2,13,0
13:03:07:858881,-6,-34,-23,-11,-7,-2,13,0
13:03:07:859655,5,15,6,4,5,9,38,4
13:03:07:865616,10,28,8,0,3,-8,-30,-33
13:03:07:873828,10,28,8,0,3,-8,-30,-33
13:03:07:874615,-6,-4,-11,0,-4,-11,-13,0
13:03:07:888114,-7,18,34,2,-8,-10,6,16
13:03:07:896304,-7,18,34,2,-8,-10,6,16
13:03:07:897102,-4,-21,5,3,13,13,-2,3
13:03:07:903142,-1,-13,5,-3,-7,-3,-5,-11
13:03:07:918858,-1,-13,5,-3,-7,-3,-5,-11
13:03:07:919618,-11,-54,-29,-17,-6,5,-6,5
13:03:07:925652,-6,2,-6,-8,3,12,-6,-26
13:03:07:933797,-6,2,-6,-8,3,12,-6,-26
13:03:07:934578,-15,-6,-24,-4,2,-7,10,7
13:03:07:948095,-15,-25,-3,7,-4,-8,-12,19
13:03:07:956379,-15,-25,-3,7,-4,-8,-12,19
13:03:07:957132,-8,-11,19,-3,17,12,-19,-46
13:03:07:963128,-2,-4,-19,1,4,9,23,-6
13:03:07:978817,-2,-4,-19,1,4,9,23,-6
13:03:07:979628,28,10,15,8,-1,0,18,36
13:03:07:985658,5,3,-9,2,8,2,-2,6
13:03:07:993909,5,3,-9,2,8,2,-2,6
13:03:07:994623,-21,-4,-12,-12,-11,-8,3,7
13:03:08:8112,11,17,7,5,-2,-15,-2,8
13:03:08:16395,11,17,7,5,-2,-15,-2,8
13:03:08:17139,6,-8,-10,12,11,-6,-23,-2
13:03:08:23141,21,17,10,-6,-15,-9,-9,-5
13:03:08:38826,21,17,10,-6,-15,-9,-9,-5
13:03:08:39622,-19,6,0,-2,-13,-7,-10,-2
13:03:08:45580,3,3,1,6,13,10,0,16
13:03:08:53860,3,3,1,6,13,10,0,16
13:03:08:54615,-8,7,-2,-2,-7,-6,-26,-26
13:03:08:68123,14,12,-1,-4,-11,-7,6,1
13:03:08:76404,14,12,-1,-4,-11,-7,6,1
13:03:08:77124,3,3,3,9,-2,25,0,4
13:03:08:83081,8,1,-10,-9,0,11,21,2
13:03:08:98837,8,1,-10,-9,0,11,21,2
13:03:08:99605,7,9,11,5,-4,-11,0,2
13:03:08:105619,-2,1,3,0,-6,-4,-5,3
13:03:08:113824,-2,1,3,0,-6,-4,-5,3
13:03:08:114627,3,4,-8,-8,1,-4,4,3
13:03:08:128103,-9,-4,10,5,7,-6,-5,-2
13:03:08:136386,-9,-4,10,5,7,-6,-5,-2
13:03:08:137123,3,-2,-10,0,0,-14,-5,-4
13:03:08:143115,-3,5,7,6,-16,9,18,0
13:03:08:158840,-3,5,7,6,-16,9,18,0
13:03:08:159635,6,4,14,-18,2,13,8,1
13:03:08:165595,-11,-6,-3,23,-3,0,-16,-7
13:03:08:173201,-11,-6,-3,23,-3,0,-16,-7
13:03:08:180605,5,-4,2,1,-3,-12,9,18
13:03:08:188094,-7,2,0,-12,2,-1,-6,-16
13:03:08:196366,-7,2,0,-12,2,-1,-6,-16
13:03:08:197125,-6,1,3,6,2,-8,-5,-7
13:03:08:210629,-4,-4,-4,1,-1,-17,-14,-2
13:03:08:218824,-4,-4,-4,1,-1,-17,-14,-2
13:03:08:219614,-3,1,1,-4,7,5,11,-16
13:03:08:225620,9,1,-3,-5,7,8,-2,-1
13:03:08:233147,9,1,-3,-5,7,8,-2,-1
13:03:08:240613,-1,0,-1,2,-2,9,0,1
13:03:08:248106,1,16,2,-6,2,-2,-8,-4
13:03:08:256388,1,16,2,-6,2,-2,-8,-4
13:03:08:257166,4,-14,-8,1,-9,-6,9,18
13:03:08:270601,2,3,3,3,31,28,2,2
13:03:08:278839,2,3,3,3,31,28,2,2
13:03:08:279656,-8,-23,0,-1,-3,-18,-4,-9
13:03:08:285599,-13,-9,-3,-11,-12,-14,1,-15
13:03:08:293170,-13,-9,-3,-11,-12,-14,1,-15
13:03:08:300614,15,-4,3,10,8,3,18,46
13:03:08:308129,-16,19,-1,-5,-7,-17,0,-30
13:03:08:316315,-16,19,-1,-5,-7,-17,0,-30
13:03:08:317130,-11,10,-4,-5,-7,-7,-6,17
13:03:08:330639,16,16,-3,0,-13,-11,-5,22
13:03:08:338876,16,16,-3,0,-13,-11,-5,22
13:03:08:339666,5,17,14,4,-3,-13,-8,-16
13:03:08:345631,-7,-8,-5,1,-13,2,2,33
13:03:08:353193,-7,-8,-5,1,-13,2,2,33
13:03:08:360651,6,33,14,3,7,19,-8,-33
13:03:08:368150,-15,-36,-6,-8,-2,7,-9,-17
13:03:08:376327,-15,-36,-6,-8,-2,7,-9,-17
13:03:08:377148,15,-7,-9,7,1,4,12,64
13:03:08:391110,-7,0,11,9,14,3,-20,16
13:03:08:398816,-7,0,11,9,14,3,-20,16
13:03:08:399605,1,-1,0,-8,1,-2,-12,-18
13:03:08:405631,-16,-60,-4,-9,-4,-15,-4,-10
13:03:08:413188,-16,-60,-4,-9,-4,-15,-4,-10
13:03:08:420596,23,4,6,2,2,8,17,8
13:03:08:428077,5,33,9,-4,2,2,-10,-30
13:03:08:443828,5,33,9,-4,2,2,-10,-30
13:03:08:444618,-10,-17,-1,-13,-28,-49,-23,-15
13:03:08:450657,10,5,14,1,12,11,8,13
13:03:08:458831,10,5,14,1,12,11,8,13
13:03:08:459626,-57,-32,3,-9,5,2,-18,-18
13:03:08:465563,11,13,-16,-2,7,6,4,2
13:03:08:473169,11,13,-16,-2,7,6,4,2
13:03:08:480610,5,-1,-8,8,6,10,-12,-35
13:03:08:488138,38,29,-1,3,-5,2,18,30
13:03:08:496408,38,29,-1,3,-5,2,18,30
13:03:08:497151,17,25,12,5,-13,10,10,12
13:03:08:519472,-3,-8,0,-3,-5,-2,-6,4
13:03:08:520278,-3,-8,0,-3,-5,-2,-6,4
13:03:08:521045,2,25,-23,-6,-4,-5,11,27
13:03:08:533765,-30,-32,-42,-13,-11,-10,8,-21
13:03:08:534594,-30,-32,-42,-13,-11,-10,8,-21
13:03:08:540648,-15,-1,11,0,7,3,9,-2
13:03:08:548132,21,19,-23,-3,16,19,2,-13
13:03:08:556308,21,19,-23,-3,16,19,2,-13
13:03:08:557089,-17,-12,-28,4,-1,-6,1,14
13:03:08:570649,-12,-4,15,-3,-16,-1,-1,3
13:03:08:578824,-12,-4,15,-3,-16,-1,-1,3
13:03:08:579598,-5,-52,-27,-11,-2,3,0,2
13:03:08:585631,-50,-54,16,-7,-6,-19,-2,-4
13:03:08:593170,-50,-54,16,-7,-6,-19,-2,-4
13:03:08:600598,-8,5,31,8,11,21,17,11
13:03:08:608109,20,18,38,9,2,4,10,-2
13:03:08:623808,20,18,38,9,2,4,10,-2
13:03:08:624584,14,23,8,1,3,-2,-15,-23
13:03:08:630625,14,0,6,8,18,5,-4,10
13:03:08:638776,14,0,6,8,18,5,-4,10
13:03:08:639607,12,-29,-37,-14,-4,-2,-6,-12
13:03:08:645589,-5,17,1,-7,-19,-7,-5,-7
13:03:08:653146,-5,17,1,-7,-19,-7,-5,-7
13:03:08:660600,14,30,10,2,7,5,5,0
13:03:08:668108,-3,8,-6,-4,-15,-9,-14,-15
13:03:08:676403,-3,8,-6,-4,-15,-9,-14,-15
13:03:08:677157,-23,-3,6,0,0,6,10,-12
13:03:08:690673,14,21,1,9,2,3,6,15
13:03:08:707009,14,21,1,9,2,3,6,15
13:03:08:707764,-2,-4,5,-6,-1,-9,-21,-29
13:03:08:708557,-30,-76,-21,-8,19,6,-2,-4
13:03:08:713127,-30,-76,-21,-8,19,6,-2,-4
13:03:08:720598,-4,-30,12,0,1,9,-1,-4
13:03:08:728087,5,53,34,5,-5,-6,4,27
13:03:08:736389,5,53,34,5,-5,-6,4,27
13:03:08:737144,0,-7,-9,4,-5,-4,-4,30
13:03:08:750624,-27,-45,-5,-2,13,-9,-4,-34
13:03:08:758816,-27,-45,-5,-2,13,-9,-4,-34
13:03:08:759640,5,46,7,3,5,5,-6,-19
13:03:08:765583,9,0,-21,5,-4,4,17,3
13:03:08:773151,9,0,-21,5,-4,4,17,3
13:03:08:780618,17,44,-6,-8,0,-2,2,11
13:03:08:788120,7,18,0,0,-1,-1,-17,-22
13:03:08:796389,7,18,0,0,-1,-1,-17,-22
13:03:08:797116,-6,5,10,-9,-2,-6,-1,0
13:03:08:810579,3,1,-23,-3,-8,-8,2,21
13:03:08:818835,3,1,-23,-3,-8,-8,2,21
13:03:08:819629,-6,-29,-5,-1,-17,-6,7,18
13:03:08:825627,-1,-38,0,2,1,16,8,21
13:03:08:833192,-1,-38,0,2,1,16,8,21
13:03:08:840595,7,-5,11,14,-4,-4,10,20
13:03:08:848110,11,40,3,-6,-2,1,-17,-22
13:03:08:856425,11,40,3,-6,-2,1,-17,-22
13:03:08:857143,-13,-12,-9,-7,5,-2,-9,-13
13:03:08:870584,14,30,7,4,3,3,5,2
13:03:08:878846,14,30,7,4,3,3,5,2
13:03:08:879640,5,-1,6,-2,-2,-5,-11,-9
13:03:08:885613,0,27,-4,-5,-7,-5,6,20
13:03:08:893191,0,27,-4,-5,-7,-5,6,20
13:03:08:900642,-18,-29,-1,0,4,1,-8,-9
13:03:08:908155,-6,-45,-7,-5,-14,-10,-4,10
13:03:08:916331,-6,-45,-7,-5,-14,-10,-4,10
13:03:08:917107,1,-12,-7,-3,-9,-5,1,-3
13:03:08:930611,0,-6,2,5,6,1,-2,-14
13:03:08:938875,0,-6,2,5,6,1,-2,-14
13:03:08:939664,15,-1,-6,4,1,-3,9,2
13:03:08:945644,7,7,22,12,-4,1,0,-13
13:03:08:961382,7,7,22,12,-4,1,0,-13
13:03:08:962128,0,-29,-8,8,3,3,4,4
13:03:08:968126,-17,2,15,-11,-2,-6,-17,-49
13:03:08:976419,-17,2,15,-11,-2,-6,-17,-49
13:03:08:977165,8,16,-7,7,1,8,-1,-4
13:03:08:990632,4,-11,-3,-4,-9,-2,-7,-4
13:03:08:998839,4,-11,-3,-4,-9,-2,-7,-4
13:03:08:999659,0,17,3,-6,0,-2,2,4
13:03:09:5591,-14,-31,-1,-3,-13,-14,-6,-12
13:03:09:13191,-14,-31,-1,-3,-13,-14,-6,-12
13:03:09:20647,-7,17,15,10,13,9,-6,-22
13:03:09:28123,9,-5,0,6,-4,-3,5,18
13:03:09:36303,9,-5,0,6,-4,-3,5,18
13:03:09:37078,-3,25,7,-12,-11,-10,-10,1
13:03:09:50633,-1,26,-21,5,33,26,6,-4
13:03:09:58800,-1,26,-21,5,33,26,6,-4
13:03:09:59588,-11,-20,-16,-10,11,-3,-14,-39
13:03:09:65645,9,33,-23,-4,-2,0,5,12
13:03:09:73118,9,33,-23,-4,-2,0,5,12
13:03:09:80648,10,-12,3,-9,-16,4,3,10
13:03:09:88146,5,2,-8,-14,4,2,-9,-15
13:03:09:96310,5,2,-8,-14,4,2,-9,-15
13:03:09:97130,-36,-56,-21,0,0,8,-4,-18
13:03:09:110633,-19,-53,-13,2,2,-6,4,12
13:03:09:118808,-19,-53,-13,2,2,-6,4,12
13:03:09:119617,18,56,11,19,19,-2,-4,3
13:03:09:133775,9,-20,26,26,16,6,3,3
13:03:09:134593,9,-20,26,26,16,6,3,3
13:03:09:140621,3,0,26,22,1,-1,-6,-10
13:03:09:148174,13,15,-3,-12,-31,-16,5,40
13:03:09:155674,13,15,-3,-12,-31,-16,5,40
13:03:09:163118,5,-21,0,-8,-9,-4,4,14
13:03:09:170669,-15,25,-35,-28,-22,-13,-7,-4
13:03:09:178816,-15,25,-35,-28,-22,-13,-7,-4
13:03:09:179608,4,-6,-29,12,15,11,8,7
13:03:09:193776,4,38,20,19,10,1,-4,-10
13:03:09:194610,4,38,20,19,10,1,-4,-10
13:03:09:200574,-5,42,-3,-15,-27,-16,-2,-1
13:03:09:208087,-11,-56,-10,6,6,4,1,-2
13:03:09:215704,-11,-56,-10,6,6,4,1,-2
13:03:09:223099,2,-24,-4,-11,-8,2,9,24
13:03:09:230550,-3,35,-5,-19,-10,-5,-2,4
13:03:09:238859,-3,35,-5,-19,-10,-5,-2,4
13:03:09:239637,-2,13,16,12,8,-1,-5,-1
13:03:09:261963,9,-21,5,7,5,2,1,-8
13:03:09:262738,9,-21,5,7,5,2,1,-8
13:03:09:263589,-15,-35,5,-6,8,-2,-2,-17
13:03:09:268130,7,3,-32,3,-5,-3,3,17
13:03:09:275673,7,3,-32,3,-5,-3,3,17
13:03:09:283091,16,31,-6,-21,-19,-8,-9,-6
13:03:09:290579,7,-7,-8,7,13,3,1,3
13:03:09:298842,7,-7,-8,7,13,3,1,3
13:03:09:299645,2,32,-6,-3,5,0,3,8
13:03:09:313796,10,-2,12,-18,-13,-1,-3,3
13:03:09:314615,10,-2,12,-18,-13,-1,-3,3
13:03:09:320585,4,6,31,-3,-8,-6,1,3
13:03:09:328092,-7,14,30,21,38,5,-1,-12
13:03:09:335646,-7,14,30,21,38,5,-1,-12
13:03:09:343127,-1,2,-15,-1,-2,-4,-4,-2
13:03:09:350573,-6,9,-32,11,17,3,-5,-30
13:03:09:358865,-6,9,-32,11,17,3,-5,-30
13:03:09:359624,-33,-52,6,-7,6,-2,-8,-20
13:03:09:373859,-5,-3,7,-1,-15,-5,-2,1
13:03:09:374648,-5,-3,7,-1,-15,-5,-2,1
13:03:09:380611,16,36,19,33,21,13,5,6
13:03:09:388125,2,-2,0,-8,-3,-9,1,2
13:03:09:395650,2,-2,0,-8,-3,-9,1,2
13:03:09:403132,-6,-26,-23,5,24,2,1,1
13:03:09:410616,-20,-18,24,14,4,5,-1,-11
13:03:09:418872,-20,-18,24,14,4,5,-1,-11
13:03:09:419676,-6,-5,-6,-14,-12,-5,-4,-8
13:03:09:433812,20,33,-10,-18,-22,-4,4,27
13:03:09:434648,20,33,-10,-18,-22,-4,4,27
13:03:09:440618,-1,-12,-3,-22,2,1,1,5
13:03:09:448114,-6,-22,-2,-3,1,0,-1,1
13:03:09:455715,-6,-22,-2,-3,1,0,-1,1
13:03:09:463139,-11,-27,-24,-20,-24,-14,-6,-3
13:03:09:470614,0,-36,-4,-3,-4,8,-1,3
13:03:09:478795,0,-36,-4,-3,-4,8,-1,3
13:03:09:479597,6,35,19,4,5,9,10,10
13:03:09:493824,-4,-31,-7,-14,2,0,-5,-12
13:03:09:494629,-4,-31,-7,-14,2,0,-5,-12
13:03:09:500653,3,31,-22,-3,-1,3,-1,-1
13:03:09:508132,2,0,-21,3,-12,6,7,10
13:03:09:515630,2,0,-21,3,-12,6,7,10
13:03:09:523123,-1,-28,7,-4,-4,-4,-6,-7
13:03:09:530612,-10,-22,22,-11,-9,-9,-5,-13
13:03:09:538815,-10,-22,22,-11,-9,-9,-5,-13
13:03:09:539616,-16,-20,-3,-6,-14,-4,5,16
13:03:09:553779,10,21,8,0,-7,10,2,-17
13:03:09:554597,10,21,8,0,-7,10,2,-17
13:03:09:560644,12,1,-11,0,4,-12,-3,3
13:03:09:568128,3,12,14,3,5,-1,0,19
13:03:09:575655,3,12,14,3,5,-1,0,19
13:03:09:583099,13,14,7,0,-10,-4,-1,-6
13:03:09:590593,-1,5,-13,11,8,-1,7,8
13:03:09:606298,-1,5,-13,11,8,-1,7,8
13:03:09:607112,-20,15,-14,-5,1,-1,-10,-16
13:03:09:613794,-15,-21,1,2,13,9,4,-1
13:03:09:614607,-15,-21,1,2,13,9,4,-1
13:03:09:620609,10,-10,2,-10,-2,5,4,8
13:03:09:628079,-15,-34,-8,-1,-2,-3,-6,-10
13:03:09:635673,-15,-34,-8,-1,-2,-3,-6,-10
13:03:09:643081,7,-28,17,0,-14,-11,-3,-6
13:03:09:650588,7,3,-9,-1,4,-5,3,5
13:03:09:658849,7,3,-9,-1,4,-5,3,5
13:03:09:659633,10,19,7,-4,-4,-5,-3,2
13:03:09:673830,12,36,6,0,-13,-8,-4,3
13:03:09:674633,12,36,6,0,-13,-8,-4,3
13:03:09:680625,-4,-6,-12,-9,-4,3,5,7
13:03:09:688075,11,28,9,-5,-1,-4,-2,-7
13:03:09:695677,11,28,9,-5,-1,-4,-2,-7
13:03:09:703126,12,76,-8,-4,-4,-5,-4,1
13:03:09:710630,-6,-4,-33,-8,-5,5,1,-14
13:03:09:718882,-6,-4,-33,-8,-5,5,1,-14
13:03:09:719679,-15,-15,-1,8,-4,-8,-7,5
13:03:09:733836,2,27,5,-3,-7,-1,2,3
13:03:09:734625,2,27,5,-3,-7,-1,2,3
13:03:09:740625,-1,-7,-3,6,8,1,-10,-18
13:03:09:748139,-8,-24,4,-3,-8,2,2,1
13:03:09:755687,-8,-24,4,-3,-8,2,2,1
13:03:09:763132,0,9,16,3,-8,-10,-4,2
13:03:09:770617,8,26,-32,-1,-6,-14,-6,3
13:03:09:778788,8,26,-32,-1,-6,-14,-6,3
13:03:09:779610,-5,-13,5,11,1,10,4,-4
13:03:09:793834,-7,-26,17,-17,-23,-9,-13,-12
13:03:09:794653,-7,-26,17,-17,-23,-9,-13,-12
13:03:09:800641,-5,-8,-17,11,43,39,11,-13
13:03:09:808114,-3,-34,22,-10,15,10,-2,-3
13:03:09:815657,-3,-34,22,-10,15,10,-2,-3
13:03:09:823139,10,7,0,-2,-7,-17,-2,7
13:03:09:830650,-20,-16,3,-9,-1,-4,-1,0
13:03:09:838827,-20,-16,3,-9,-1,-4,-1,0
13:03:09:839649,5,-22,-1,-9,-11,-8,-7,-5
13:03:09:853821,-20,-21,2,1,-4,-15,-7,-18
13:03:09:854626,-20,-21,2,1,-4,-15,-7,-18
13:03:09:860643,6,-21,5,11,-4,1,7,9
13:03:09:868147,11,9,9,26,18,12,2,18
13:03:09:875685,11,9,9,26,18,12,2,18
13:03:09:883096,-7,16,-14,-7,-9,-4,-1,-8
13:03:09:890579,4,14,11,-14,-34,-22,-6,-3
13:03:09:898853,4,14,11,-14,-34,-22,-6,-3
13:03:09:899621,10,18,34,-4,-1,-7,-1,3
13:03:09:913796,8,19,4,6,1,3,5,6
13:03:09:914597,8,19,4,6,1,3,5,6
13:03:09:920644,-14,-2,2,-11,-9,-5,-7,-10
13:03:09:928092,-2,2,-32,-7,8,1,-3,1
13:03:09:935683,-2,2,-32,-7,8,1,-3,1
13:03:09:943073,0,-10,-13,3,2,3,9,13
13:03:09:950591,9,1,14,23,22,15,-2,-2
13:03:09:958858,9,1,14,23,22,15,-2,-2
13:03:09:959606,-2,10,-12,3,3,1,2,4
13:03:09:973821,-4,20,6,-3,6,-2,2,-3
13:03:09:974620,-4,20,6,-3,6,-2,2,-3
13:03:09:980587,-3,-10,2,0,6,-4,-4,-6
13:03:09:988115,-14,-24,-32,-21,-11,-11,-2,-3
13:03:09:995683,-14,-24,-32,-21,-11,-11,-2,-3
13:03:10:3119,-7,14,-22,-11,4,5,-4,-7
13:03:10:10602,3,13,-2,-16,-17,-6,-3,-7
13:03:10:18859,3,13,-2,-16,-17,-6,-3,-7
13:03:10:19651,-6,-2,-4,-6,-5,5,4,3
13:03:10:33826,5,-5,10,4,-5,-2,0,5
13:03:10:34640,5,-5,10,4,-5,-2,0,5
13:03:10:40622,10,3,16,-4,-3,-1,-2,0
13:03:10:48136,-8,7,-15,4,3,-1,-2,-3
13:03:10:55694,-8,7,-15,4,3,-1,-2,-3
13:03:10:63093,3,-21,1,9,1,4,-2,-3
13:03:10:70613,14,-12,2,10,21,18,5,4
13:03:10:78177,14,-12,2,10,21,18,5,4
13:03:10:85652,3,0,-2,15,14,6,4,-4
13:03:10:93794,-40,-21,-21,-13,-5,-11,-8,-14
13:03:10:94602,-40,-21,-21,-13,-5,-11,-8,-14
13:03:10:100612,-5,-26,-4,-1,6,-7,-1,-3
13:03:10:116293,3,7,5,6,10,-2,3,7
13:03:10:117116,3,7,5,6,10,-2,3,7
13:03:10:123140,-9,-9,0,-6,-6,-3,-6,-2
13:03:10:130657,14,-6,11,7,1,8,5,17
13:03:10:138145,14,-6,11,7,1,8,5,17
13:03:10:145602,-5,-33,2,2,-1,9,-5,-10
13:03:10:153804,13,8,10,-6,-7,-2,-2,-3
13:03:10:154627,13,8,10,-6,-7,-2,-2,-3
13:03:10:160601,5,11,27,-4,-13,-10,3,14
13:03:10:176314,-20,-38,-26,-1,-13,-9,-4,-5
13:03:10:177107,-20,-38,-26,-1,-13,-9,-4,-5
13:03:10:183104,1,24,-9,-7,-10,-2,0,-1
13:03:10:190569,-9,-17,-2,6,-4,-11,-2,0
13:03:10:198164,-9,-17,-2,6,-4,-11,-2,0
13:03:10:205597,1,-1,-3,-15,3,8,-3,-3
13:03:10:213841,-2,13,-4,-12,-6,-1,-3,-16
13:03:10:214640,-2,13,-4,-12,-6,-1,-3,-16
13:03:10:220618,-1,-10,5,25,8,-1,2,5
13:03:10:236322,25,37,20,-2,9,3,1,-1
13:03:10:237133,25,37,20,-2,9,3,1,-1
13:03:10:243108,11,19,0,0,-8,-6,4,10
13:03:10:250602,-4,14,-14,-2,-8,-8,-6,-4
13:03:10:258156,-4,14,-14,-2,-8,-8,-6,-4
13:03:10:274490,-4,-20,0,12,-1,-1,1,-2
13:03:10:275272,-16,-9,13,6,-4,0,4,-5
13:03:10:276095,-16,-9,13,6,-4,0,4,-5
13:03:10:280589,5,25,13,-4,-8,-6,1,8
13:03:10:296285,14,40,7,-7,11,7,2,5
13:03:10:297088,14,40,7,-7,11,7,2,5
13:03:10:303100,-7,7,23,-17,-16,-14,-11,-8
13:03:10:310579,2,19,-2,5,7,-1,0,8
13:03:10:318194,2,19,-2,5,7,-1,0,8
13:03:10:325606,-30,-28,-24,-10,-3,-3,1,0
13:03:10:333840,-1,-21,-18,-7,4,7,-1,5
13:03:10:334663,-1,-21,-18,-7,4,7,-1,5
13:03:10:340629,-16,-16,-8,-17,-8,-9,-3,-3
13:03:10:356320,-1,-37,-6,-8,-10,-5,-1,0
13:03:10:357126,-1,-37,-6,-8,-10,-5,-1,0
13:03:10:363097,4,-9,-37,-3,10,7,-1,-6
13:03:10:370599,11,14,1,21,6,6,0,7
13:03:10:378179,11,14,1,21,6,6,0,7
13:03:10:385657,7,1,-17,5,6,0,3,9
13:03:10:393848,3,-20,24,16,16,9,-1,-2
13:03:10:394664,3,-20,24,16,16,9,-1,-2
13:03:10:400607,21,33,6,11,-3,-1,-1,13
13:03:10:416319,-4,26,9,5,6,6,0,-8
13:03:10:417156,-4,26,9,5,6,6,0,-8
13:03:10:423134,12,5,-11,4,1,-3,1,4
13:03:10:430618,3,-6,9,-2,-9,-10,2,14
13:03:10:438219,3,-6,9,-2,-9,-10,2,14
13:03:10:445615,3,11,-3,-3,2,4,-5,-16
13:03:10:453782,0,13,-14,-7,-7,-4,-7,-4
13:03:10:454620,0,13,-14,-7,-7,-4,-7,-4
13:03:10:460656,-13,-2,10,-7,1,-7,-7,-8
13:03:10:476281,0,-13,10,7,-3,5,3,2
13:03:10:477078,0,-13,10,7,-3,5,3,2
13:03:10:483156,-4,23,3,-5,1,-2,0,-1
13:03:10:498823,-1,9,5,-8,-10,-6,-6,-4
13:03:10:499644,-1,9,5,-8,-10,-6,-6,-4
13:03:10:505627,-8,-39,-8,-13,0,-3,-7,-24
13:03:10:513777,0,2,4,-3,12,0,-5,-10
13:03:10:514606,0,2,4,-3,12,0,-5,-10
13:03:10:520652,0,27,4,-10,1,3,0,0
13:03:10:536317,-2,7,-10,-4,-1,4,-1,-5
13:03:10:537155,-2,7,-10,-4,-1,4,-1,-5
13:03:10:543117,-8,2,-14,0,9,13,5,-2
13:03:10:550608,-1,23,-5,-4,-12,-9,-4,-2
13:03:10:558245,-1,23,-5,-4,-12,-9,-4,-2
13:03:10:565641,-7,-31,7,-2,-8,-4,4,10
13:03:10:573782,0,-25,-57,-12,3,5,0,2
13:03:10:574594,0,-25,-57,-12,3,5,0,2
13:03:10:580641,13,32,4,6,-5,-4,-4,-2
13:03:10:596325,0,4,7,-3,-11,-6,2,2
13:03:10:597119,0,4,7,-3,-11,-6,2,2
13:03:10:603126,9,-7,-18,7,2,1,0,4
13:03:10:610639,1,-19,6,-20,-5,1,-1,-9
13:03:10:618136,1,-19,6,-20,-5,1,-1,-9
13:03:10:625637,1,-27,-2,-9,-6,-1,-5,-9
13:03:10:633798,-4,2,2,14,11,5,5,10
13:03:10:634591,-4,2,2,14,11,5,5,10
13:03:10:640583,-8,-9,6,-4,5,-2,-7,-11
13:03:10:656304,0,12,27,7,-4,-2,2,12
13:03:10:657133,0,12,27,7,-4,-2,2,12
13:03:10:663089,-10,-12,3,-3,-5,-3,-7,-6
13:03:10:670652,0,30,6,-5,-4,-5,-4,-10
13:03:10:678143,0,30,6,-5,-4,-5,-4,-10
13:03:10:685612,6,17,16,1,0,1,3,2
13:03:10:693825,8,28,-1,-4,-4,-3,-1,2
13:03:10:694626,8,28,-1,-4,-4,-3,-1,2
13:03:10:700617,6,24,19,8,4,2,1,-2
13:03:10:716312,-2,1,-1,-7,-2,-1,-3,-7
13:03:10:717128,-2,1,-1,-7,-2,-1,-3,-7
13:03:10:723097,-13,-25,-9,13,-3,-4,3,5
13:03:10:730623,2,-16,4,4,-6,-1,2,11
13:03:10:738155,2,-16,4,4,-6,-1,2,11
13:03:10:745605,-23,-25,6,3,9,6,0,-2
13:03:10:753815,-11,-28,-13,14,4,0,2,4
13:03:10:754668,-11,-28,-13,14,4,0,2,4
13:03:10:760612,10,8,-10,5,2,-3,2,2
13:03:10:776363,-29,-60,-3,3,9,-2,-2,0
13:03:10:777192,-29,-60,-3,3,9,-2,-2,0
13:03:10:783079,5,2,-14,-3,-10,-5,0,4
13:03:10:790568,5,-11,14,0,-4,-4,-2,1
13:03:10:798154,5,-11,14,0,-4,-4,-2,1
13:03:10:805640,3,28,14,3,2,-1,-2,1
13:03:10:813752,-6,-25,-16,-16,-13,-7,-10,-12
13:03:10:814567,-6,-25,-16,-16,-13,-7,-10,-12
13:03:10:828089,12,-15,-17,-1,-1,-2,4,11
13:03:10:836325,7,7,6,-3,-2,-2,2,-2
13:03:10:837132,7,7,6,-3,-2,-2,2,-2
13:03:10:843125,-5,-22,-5,-8,-10,-6,-5,-1
13:03:10:850636,-17,-4,-14,-10,-5,-1,-2,-15
13:03:10:858188,-17,-4,-14,-10,-5,-1,-2,-15
13:03:10:865614,-6,-16,-23,-7,-4,-1,-3,-3
13:03:10:873809,23,38,13,7,3,2,-1,1
13:03:10:874617,23,38,13,7,3,2,-1,1
13:03:10:880617,5,2,0,5,0,-4,-1,2
13:03:10:904470,13,14,-26,-8,-3,-4,-1,4
13:03:10:905313,13,14,-26,-8,-3,-4,-1,4
13:03:10:906089,-3,-5,-1,-6,-7,-3,-4,-13
13:03:10:910585,5,11,11,7,4,4,3,4
13:03:10:918192,5,11,11,7,4,4,3,4
13:03:10:925623,-10,5,14,6,8,4,1,-2
13:03:10:933788,-13,-46,-13,-1,-12,-6,-3,2
13:03:10:934590,-13,-46,-13,-1,-12,-6,-3,2
13:03:10:940618,0,-17,-11,-9,0,2,0,2
13:03:10:956331,-7,5,-18,-5,-6,-1,-4,-19
13:03:10:957150,-7,5,-18,-5,-6,-1,-4,-19
13:03:10:963129,1,24,11,6,-1,-9,-2,-4
13:03:10:970612,-6,-22,2,1,13,15,6,7
13:03:10:978214,-6,-22,2,1,13,15,6,7
13:03:10:985596,-12,6,-9,-22,-11,-7,-7,-4
13:03:10:993819,17,23,10,-8,7,14,5,19
13:03:10:994593,17,23,10,-8,7,14,5,19
13:03:11:639,7,16,11,-3,6,3,-4,-12
13:03:11:16327,7,16,11,-3,6,3,-4,-12
13:03:11:17101,-6,-3,-3,6,5,-2,-5,-20
13:03:11:23128,-4,-5,9,3,0,-3,1,6
13:03:11:38853,-4,-5,9,3,0,-3,1,6
13:03:11:39640,-11,-22,4,-5,11,5,-4,-6
13:03:11:45640,8,-28,-11,-5,0,-9,3,12
13:03:11:53827,8,-28,-11,-5,0,-9,3,12
13:03:11:54601,12,15,11,4,-2,1,1,0
13:03:11:68576,11,36,3,-1,-6,-1,-2,8
13:03:11:76404,11,36,3,-1,-6,-1,-2,8
13:03:11:77146,-2,5,-3,-16,-4,-8,-7,-14
13:03:11:83139,-1,7,-5,13,5,7,1,7
13:03:11:98868,-1,7,-5,13,5,7,1,7
13:03:11:99632,-23,-19,0,0,2,2,-1,-15
13:03:11:105621,14,28,14,-1,-4,9,5,6
13:03:11:113853,14,28,14,-1,-4,9,5,6
13:03:11:114629,11,1,-12,-1,-2,-25,-4,-8
13:03:11:128097,2,0,7,0,20,2,1,-2
13:03:11:136434,2,0,7,0,20,2,1,-2
13:03:11:137067,-3,37,-7,-16,-5,-9,1,3
13:03:11:143120,-3,-8,-6,5,-8,-2,-3,-8
13:03:11:158826,-3,-8,-6,5,-8,-2,-3,-8
13:03:11:159641,-4,6,-10,2,18,5,-1,11
13:03:11:165593,-23,-16,7,3,5,2,3,-1
13:03:11:173203,-23,-16,7,3,5,2,3,-1
13:03:11:180612,-8,-24,2,1,-17,-6,-3,-7
13:03:11:188175,-11,1,-2,-10,1,13,-5,-21
13:03:11:196315,-11,1,-2,-10,1,13,-5,-21
13:03:11:197095,6,-21,13,4,-11,-7,3,26
13:03:11:203122,1,-19,-15,-3,-9,-10,9,-2
13:03:11:218868,1,-19,-15,-3,-9,-10,9,-2
13:03:11:219617,6,-6,-5,9,1,8,4,5
13:03:11:225618,-6,13,1,-7,-19,-13,-10,-3
13:03:11:233817,-6,13,1,-7,-19,-13,-10,-3
13:03:11:234603,-5,-19,5,18,0,5,1,1
13:03:11:248115,-13,-34,1,-4,0,1,0,-6
13:03:11:256426,-13,-34,1,-4,0,1,0,-6
13:03:11:257142,-5,17,3,-8,-8,-8,-3,-4
13:03:11:263159,11,11,-9,-2,0,-8,5,17
13:03:11:278882,11,11,-9,-2,0,-8,5,17
13:03:11:279643,5,26,16,2,1,-6,1,4
13:03:11:294471,4,21,-8,-3,2,-3,-1,4
13:03:11:295275,4,21,-8,-3,2,-3,-1,4
13:03:11:296087,1,10,1,-7,-6,8,1,-1
13:03:11:308066,-19,-31,-17,-13,5,4,12,0
13:03:11:316324,-19,-31,-17,-13,5,4,12,0
13:03:11:317110,18,15,0,0,2,10,3,13
13:03:11:323130,-8,-2,0,8,6,4,-10,-7
13:03:11:347009,-8,-2,0,8,6,4,-10,-7
13:03:11:347845,-17,-16,-17,-6,2,-2,1,-13
13:03:11:348640,14,-7,-5,2,-8,8,-4,1
13:03:11:353788,14,-7,-5,2,-8,8,-4,1
13:03:11:354582,7,1,6,3,-23,-9,-3,9
13:03:11:368165,4,-7,-3,6,-9,-16,2,-4
13:03:11:376087,4,-7,-3,6,-9,-16,2,-4
13:03:11:383795,-10,6,-10,-8,-7,-8,-10,-10
13:03:11:384574,-10,-12,0,2,-1,1,-3,16
13:03:11:398862,-10,-12,0,2,-1,1,-3,16
13:03:11:399651,2,12,5,-4,32,18,-7,-9
13:03:11:405680,8,13,10,10,6,3,4,17
13:03:11:413855,8,13,10,10,6,3,4,17
13:03:11:414638,-40,-36,-1,-2,4,-13,0,-23
13:03:11:428112,-5,-15,3,-12,-10,0,5,-7
13:03:11:436395,-5,-15,3,-12,-10,0,5,-7
13:03:11:437134,9,-1,-3,8,24,22,11,13
13:03:11:443150,16,35,5,3,-19,-24,-14,-19
13:03:11:458869,16,35,5,3,-19,-24,-14,-19
13:03:11:459652,20,20,14,12,-13,-4,12,14
13:03:11:465622,4,13,13,11,-14,9,-4,-12
13:03:11:473220,4,13,13,11,-14,9,-4,-12
13:03:11:480651,-8,-25,-11,-11,-6,-7,-13,4
13:03:11:488140,5,13,3,0,8,-5,6,-3
13:03:11:496291,5,13,3,0,8,-5,6,-3
13:03:11:497087,8,-22,-6,2,-3,-8,-10,2
13:03:11:503122,16,15,0,9,13,14,-6,-4
13:03:11:518868,16,15,0,9,13,14,-6,-4
13:03:11:519653,1,-51,18,1,2,1,7,16
13:03:11:525634,-2,5,-5,-3,8,7,10,5
13:03:11:533833,-2,5,-5,-3,8,7,10,5
13:03:11:534582,13,32,-4,1,-12,-7,-2,8
13:03:11:548101,-24,-27,2,2,6,-1,-9,-8
13:03:11:556403,-24,-27,2,2,6,-1,-9,-8
13:03:11:557155,-21,-9,-12,-10,-2,0,-25,-14
13:03:11:563140,19,29,-4,-2,7,-5,-3,9
13:03:11:578821,19,29,-4,-2,7,-5,-3,9
13:03:11:579648,10,25,8,6,-7,-3,3,15
13:03:11:585596,5,-4,-3,-11,-2,1,-8,-11
13:03:11:593866,5,-4,-3,-11,-2,1,-8,-11
13:03:11:594641,-25,25,-29,-11,-4,-15,-9,-19
13:03:11:608108,-9,-32,-18,-9,-1,-7,12,-6
13:03:11:616316,-9,-32,-18,-9,-1,-7,12,-6
13:03:11:617170,10,18,1,0,-2,0,7,8
13:03:11:623114,-7,15,-16,-11,3,-1,-11,-6
13:03:11:638865,-7,15,-16,-11,3,-1,-11,-6
13:03:11:639640,-13,-17,3,2,2,4,2,-16
13:03:11:645617,-19,-30,4,3,25,17,-1,-8
13:03:11:653861,-19,-30,4,3,25,17,-1,-8
13:03:11:654657,9,22,-11,-5,-2,-4,-1,-12
13:03:11:668113,-5,-2,2,9,-7,-2,-2,9
13:03:11:676316,-5,-2,2,9,-7,-2,-2,9
13:03:11:677129,-4,-15,8,4,-2,12,7,14
13:03:11:683087,-12,2,-3,-1,-5,-8,0,-25
13:03:11:698824,-12,2,-3,-1,-5,-8,0,-25
13:03:11:699610,3,7,5,-3,3,0,0,1
13:03:11:705617,3,17,17,4,-8,-3,-15,7
13:03:11:713843,3,17,17,4,-8,-3,-15,7
13:03:11:714647,-5,-45,-3,2,0,-1,0,-9
13:03:11:728077,17,-3,-5,-3,-4,-4,5,12
13:03:11:736339,17,-3,-5,-3,-4,-4,5,12
13:03:11:737134,3,6,-4,-3,0,-4,-4,-22
13:03:11:743110,7,32,4,4,-7,-5,2,20
13:03:11:758834,7,32,4,4,-7,-5,2,20
13:03:11:759665,-18,-42,1,2,4,0,-9,-15
13:03:11:765614,-6,-69,-6,2,-1,1,1,9
13:03:11:773830,-6,-69,-6,2,-1,1,1,9
13:03:11:774614,14,19,-10,-2,-2,1,9,13
13:03:11:788165,-15,-1,6,-4,0,-1,-5,0
13:03:11:796358,-15,-1,6,-4,0,-1,-5,0
13:03:11:797122,15,-3,-7,2,-1,1,4,0
13:03:11:803111,-4,15,-7,-8,0,1,-7,-17
13:03:11:818829,-4,15,-7,-8,0,1,-7,-17
13:03:11:819640,-12,-11,-17,-8,-6,-1,3,5
13:03:11:825589,11,24,-10,-8,0,-3,-1,5
13:03:11:833858,11,24,-10,-8,0,-3,-1,5
13:03:11:834618,-18,-8,1,0,-1,-8,-19,-30
13:03:11:848135,32,20,5,4,-2,-13,-4,8
13:03:11:856300,32,20,5,4,-2,-13,-4,8
13:03:11:857097,9,5,-1,-9,-3,2,-4,21
13:03:11:863086,-16,3,10,1,5,5,7,-3
13:03:11:878810,-16,3,10,1,5,5,7,-3
13:03:11:879608,14,-14,-29,-4,-4,-6,-8,10
13:03:11:885636,-1,-3,-10,-6,-1,0,-3,-3
13:03:11:893851,-1,-3,-10,-6,-1,0,-3,-3
13:03:11:894615,-2,24,5,6,-1,0,2,9
13:03:11:908133,-1,-57,1,7,-4,-1,-3,15
13:03:11:916288,-1,-57,1,7,-4,-1,-3,15
13:03:11:917083,20,6,7,1,2,1,7,5
13:03:11:923141,2,-19,-38,-4,-1,2,2,-4
13:03:11:939255,2,-19,-38,-4,-1,2,2,-4
13:03:11:940055,5,29,19,1,1,-1,5,4
13:03:11:945625,-19,-8,18,-5,0,3,-4,-10
13:03:11:953801,-19,-8,18,-5,0,3,-4,-10
13:03:11:954604,-11,3,8,-5,-6,-5,-1,-2
13:03:11:968118,-20,-14,-3,-6,-2,-11,-4,-12
13:03:11:976311,-20,-14,-3,-6,-2,-11,-4,-12
13:03:11:977107,3,7,-28,-1,2,8,1,-5
13:03:11:990607,9,-12,21,3,-3,4,25,12
13:03:11:998854,9,-12,21,3,-3,4,25,12
13:03:11:999651,5,27,22,0,2,-4,-8,0
13:03:12:5624,0,7,-22,-3,-2,-2,-13,-9
13:03:12:21369,0,7,-22,-3,-2,-2,-13,-9
13:03:12:22128,-6,-8,6,-5,-1,-2,-3,-10
13:03:12:28110,8,25,4,-1,0,-4,-2,6
13:03:12:36408,8,25,4,-1,0,-4,-2,6
13:03:12:37165,-8,-4,-14,3,2,1,0,-7
13:03:12:50614,4,17,1,2,1,-1,-3,-3
13:03:12:58844,4,17,1,2,1,-1,-3,-3
13:03:12:59632,3,-5,9,3,-1,2,6,10
13:03:12:73798,-9,-10,10,1,4,6,-1,-9
13:03:12:74603,-9,-10,10,1,4,6,-1,-9
13:03:12:80630,-6,-30,15,7,0,-2,1,-13
13:03:12:88139,-17,-13,1,3,2,4,0,-3
13:03:12:96360,-17,-13,1,3,2,4,0,-3
13:03:12:97141,-9,-8,-2,-7,-4,-5,-10,-3
13:03:12:110608,-13,-20,-29,0,-2,-2,-1,-3
13:03:12:118851,-13,-20,-29,0,-2,-2,-1,-3
13:03:12:119627,-3,10,-25,-4,1,0,4,9
13:03:12:125619,4,2,17,-2,-3,-2,1,-2
13:03:12:133196,4,2,17,-2,-3,-2,1,-2
13:03:12:140611,4,-4,15,9,-1,-3,2,5
13:03:12:148107,-4,-23,-4,-8,-3,-2,-8,-5
13:03:12:156303,-4,-23,-4,-8,-3,-2,-8,-5
13:03:12:157103,-13,-6,2,-6,0,-1,2,7
13:03:12:170603,-7,33,9,1,-2,1,2,-12
13:03:12:178850,-7,33,9,1,-2,1,2,-12
13:03:12:179671,9,60,0,-11,-4,-5,-7,-10
13:03:12:185594,9,19,0,4,-3,-1,0,14
13:03:12:193116,9,19,0,4,-3,-1,0,14
13:03:12:200630,-1,-30,14,3,3,5,4,1
13:03:12:208120,12,47,2,-8,-1,-2,-2,1
13:03:12:216300,12,47,2,-8,-1,-2,-2,1
13:03:12:217081,-6,-19,12,0,-1,-4,-3,4
13:03:12:230613,-12,-20,-27,2,0,-1,-4,3
13:03:12:238814,-12,-20,-27,2,0,-1,-4,3
13:03:12:239632,5,15,3,7,-3,-1,-4,1
13:03:12:245657,-5,-11,13,3,-1,2,-2,-21
13:03:12:253199,-5,-11,13,3,-1,2,-2,-21
13:03:12:260582,-14,-31,-28,-5,-3,-1,-2,-17
13:03:12:268144,12,17,-2,1,-2,-6,-4,8
13:03:12:276332,12,17,-2,1,-2,-6,-4,8
13:03:12:277140,4,40,9,-7,1,-3,-4,-17
13:03:12:290648,4,-4,9,2,-1,0,-1,10
13:03:12:298814,4,-4,9,2,-1,0,-1,10
13:03:12:299574,-10,-66,-2,-8,-4,-7,-12,-9
13:03:12:305631,2,-13,0,2,1,-1,-1,15
13:03:12:313164,2,-13,0,2,1,-1,-1,15
13:03:12:320617,2,18,-4,-2,1,1,-9,-6
13:03:12:328089,9,-5,-3,-4,0,0,1,-4
13:03:12:336324,9,-5,-3,-4,0,0,1,-4
13:03:12:337126,-6,-9,3,3,-3,0,-10,1
13:03:12:350614,-11,-36,1,-6,-1,0,-2,-11
13:03:12:358817,-11,-36,1,-6,-1,0,-2,-11
13:03:12:359648,9,-2,-1,3,-4,2,14,8
13:03:12:365569,-20,0,-4,-4,-2,-5,2,1
13:03:12:373155,-20,0,-4,-4,-2,-5,2,1
13:03:12:380620,-3,-6,-14,-1,1,-1,-7,1
13:03:12:388093,-8,-2,-17,4,0,0,4,12
13:03:12:396335,-8,-2,-17,4,0,0,4,12
13:03:12:397149,-4,-52,6,-3,-1,-2,2,-11
13:03:12:410585,-1,10,6,-1,-1,0,-3,-11
13:03:12:418853,-1,10,6,-1,-1,0,-3,-11
13:03:12:419632,-30,16,0,3,0,0,-1,-5
13:03:12:425642,-19,-30,16,-3,1,0,-1,3
13:03:12:433195,-19,-30,16,-3,1,0,-1,3
13:03:12:440620,21,17,10,5,3,2,8,11
13:03:12:448108,18,43,-2,2,2,0,-6,-15
13:03:12:456417,18,43,-2,2,2,0,-6,-15
13:03:12:457162,4,3,-8,-7,1,5,19,0
13:03:12:470603,-26,11,5,1,-3,0,4,7
13:03:12:478847,-26,11,5,1,-3,0,4,7
13:03:12:479664,-5,23,-1,-3,-1,-4,-11,-2
13:03:12:485621,3,-19,-13,6,-1,2,-2,-7
13:03:12:493159,3,-19,-13,6,-1,2,-2,-7
13:03:12:500645,-2,-25,-10,-5,0,-4,-2,-10
13:03:12:508176,8,-6,-11,-4,-2,-3,-1,13
13:03:12:516329,8,-6,-11,-4,-2,-3,-1,13
13:03:12:517098,3,12,-1,1,-1,-2,1,13
13:03:12:530601,1,-1,0,-3,-2,-4,-1,-7
13:03:12:538812,1,-1,0,-3,-2,-4,-1,-7
13:03:12:539640,-2,6,-3,-2,-2,0,-2,10
13:03:12:545636,-1,-13,-9,-6,0,0,0,-9
13:03:12:553130,-1,-13,-9,-6,0,0,0,-9
13:03:12:560586,-29,5,8,-1,-2,-2,-3,-4
13:03:12:568141,12,1,2,-2,1,1,-2,-6
13:03:12:576317,12,1,2,-2,1,1,-2,-6
13:03:12:577110,20,22,7,6,-3,2,6,22
13:03:12:590611,-2,32,3,-5,1,0,-1,-11
13:03:12:598844,-2,32,3,-5,1,0,-1,-11
13:03:12:599592,1,2,-9,-3,1,-2,-8,-18
13:03:12:605574,2,11,19,1,-1,2,13,19
13:03:12:613157,2,11,19,1,-1,2,13,19
13:03:12:620582,0,4,5,3,1,-2,-1,-11
13:03:12:628127,10,-7,5,4,3,2,-2,5
13:03:12:636341,10,-7,5,4,3,2,-2,5
13:03:12:637152,-9,-12,5,0,-2,1,5,-4
13:03:12:650602,-2,-3,-7,0,-2,0,1,9
13:03:12:658812,-2,-3,-7,0,-2,0,1,9
13:03:12:659615,21,-14,0,-1,1,-2,-9,-1
13:03:12:665620,-1,-10,-3,-4,-1,-2,0,3
13:03:12:673168,-1,-10,-3,-4,-1,-2,0,3
13:03:12:680614,-2,-9,16,1,0,1,-1,3
13:03:12:688122,-5,-23,-29,-7,-2,-2,2,-17
13:03:12:696333,-5,-23,-29,-7,-2,-2,2,-17
13:03:12:697153,28,25,9,8,-1,0,6,28
13:03:12:710593,5,-5,17,9,-1,-2,-1,-8
13:03:12:718851,5,-5,17,9,-1,-2,-1,-8
13:03:12:719648,-15,-8,-16,-4,-3,-3,-10,-16
13:03:12:725623,0,10,6,3,-2,1,2,10
13:03:12:733196,0,10,6,3,-2,1,2,10
13:03:12:740612,-21,-2,-3,-1,-2,1,7,-3
13:03:12:748225,-26,6,3,-2,1,-1,-5,-19
13:03:12:756293,-26,6,3,-2,1,-1,-5,-19
13:03:12:757091,-32,-32,-18,-5,1,-2,-4,-11
13:03:12:770660,1,27,8,0,-2,-2,-4,-5
13:03:12:778882,1,27,8,0,-2,-2,-4,-5
13:03:12:779689,25,-1,0,-2,-4,-1,1,12
13:03:12:785643,-3,-46,-8,-12,-2,-7,-15,-18
13:03:12:793148,-3,-46,-8,-12,-2,-7,-15,-18
13:03:12:800673,6,-7,-5,-5,1,-3,-1,-12
13:03:12:808153,-8,13,-6,-4,-1,-1,-12,-27
13:03:12:816351,-8,13,-6,-4,-1,-1,-12,-27
13:03:12:817118,8,31,-3,-4,2,-2,-7,-5
13:03:12:830676,2,36,23,3,-1,3,8,15
13:03:12:838800,2,36,23,3,-1,3,8,15
13:03:12:839616,7,-10,11,2,0,4,8,0
13:03:12:845642,1,-21,-4,1,-4,-2,1,21
13:03:12:853162,1,-21,-4,1,-4,-2,1,21
13:03:12:860627,9,0,-18,-5,-2,-4,-13,4
13:03:12:868140,3,-23,-8,1,0,1,12,17
13:03:12:876324,3,-23,-8,1,0,1,12,17
13:03:12:877110,-1,-13,-15,-4,-3,-3,-5,2
13:03:12:890630,10,39,-1,-2,1,-2,-5,-12
13:03:12:898838,10,39,-1,-2,1,-2,-5,-12
13:03:12:899608,15,17,11,6,0,3,5,12
13:03:12:905577,-14,-43,7,0,2,-2,-5,-1
13:03:12:913167,-14,-43,7,0,2,-2,-5,-1
13:03:12:920612,-24,-8,-1,-8,-1,-3,-3,-6
13:03:12:928098,18,-25,-9,4,-2,0,-4,0
13:03:12:935675,18,-25,-9,4,-2,0,-4,0
13:03:12:943124,-9,2,8,3,-1,1,-2,-9
13:03:12:950609,3,8,-37,-5,-1,1,4,-5
13:03:12:958849,3,8,-37,-5,-1,1,4,-5
13:03:12:959656,6,5,-8,0,-2,1,8,0
13:03:12:973832,-31,-17,6,-1,-4,-2,-10,-9
13:03:12:974627,-31,-17,6,-1,-4,-2,-10,-9
13:03:12:980603,-27,6,-7,-7,1,-2,12,10
13:03:12:988104,11,-1,-2,-5,1,-3,-4,12
13:03:12:995702,11,-1,-2,-5,1,-3,-4,12
13:03:13:3121,6,3,12,7,-2,-3,-4,7
13:03:13:10604,-6,21,8,0,-2,-1,-2,21
13:03:13:18811,-6,21,8,0,-2,-1,-2,21
13:03:13:19649,-10,-13,-5,-1,-1,-1,-2,3
13:03:13:33837,-14,-19,-2,-1,2,1,-6,-1
13:03:13:34637,-14,-19,-2,-1,2,1,-6,-1
13:03:13:48799,2,2,5,-2,0,-1,-2,-1
13:03:13:49560,16,19,-4,-10,-4,-4,2,5
13:03:13:55666,16,19,-4,-10,-4,-4,2,5
13:03:13:63142,14,-20,-3,1,1,3,6,13
13:03:13:70604,-17,1,6,-4,0,-5,-1,-7
13:03:13:78844,-17,1,6,-4,0,-5,-1,-7
13:03:13:79647,-1,13,-5,0,-2,0,-2,1
13:03:13:93848,18,14,3,3,0,5,12,4
13:03:13:94629,18,14,3,3,0,5,12,4
13:03:13:100611,-10,28,9,0,-2,-2,-1,2
13:03:13:108155,3,12,4,3,0,-1,-3,-8
13:03:13:115699,3,12,4,3,0,-1,-3,-8
13:03:13:123115,31,8,-13,1,1,0,2,16
13:03:13:130625,15,0,-17,-2,-2,-3,-3,6
13:03:13:138845,15,0,-17,-2,-2,-3,-3,6
13:03:13:139648,-18,12,-5,-3,-1,-3,-12,-15
13:03:13:153879,6,-12,-10,-1,0,1,1,-3
13:03:13:154660,6,-12,-10,-1,0,1,1,-3
13:03:13:160599,0,9,1,-2,0,-1,4,1
13:03:13:168106,-5,6,5,-1,-3,-2,-3,-16
13:03:13:175633,-5,6,5,-1,-3,-2,-3,-16
13:03:13:183162,-12,-21,-4,-2,-1,-3,-9,-20
13:03:13:190632,21,-22,-1,6,-2,-2,13,40
13:03:13:198826,21,-22,-1,6,-2,-2,13,40
13:03:13:199608,-3,-12,-4,-5,-7,-7,-10,-29
13:03:13:213803,-8,24,4,-3,-5,-6,-14,-15
13:03:13:214615,-8,24,4,-3,-5,-6,-14,-15
13:03:13:220651,-13,9,0,4,2,3,7,8
13:03:13:228135,5,-3,7,1,-1,2,8,-3
13:03:13:243847,5,-3,7,1,-1,2,8,-3
13:03:13:244647,-1,-8,33,-5,-1,0,-3,-5
13:03:13:250618,1,2,4,1,1,3,5,5
13:03:13:258821,1,2,4,1,1,3,5,5
13:03:13:259624,23,-18,15,9,5,4,0,-11
13:03:13:273865,-9,-12,-3,0,0,1,-3,-3
13:03:13:274680,-9,-12,-3,0,0,1,-3,-3
13:03:13:280653,-12,8,-3,-6,2,2,15,-15
13:03:13:288103,-29,-7,-9,-15,2,0,9,-23
13:03:13:295688,-29,-7,-9,-15,2,0,9,-23
13:03:13:303151,-22,-7,-12,-5,-3,-6,-15,-6
13:03:13:310639,-16,-5,6,-8,0,0,-11,-17
13:03:13:319298,-16,-5,6,-8,0,0,-11,-17
13:03:13:325587,1,14,1,3,-3,-1,-2,4
13:03:13:333829,20,2,-11,0,-3,-4,-1,18
13:03:13:334641,20,2,-11,0,-3,-4,-1,18
13:03:13:340586,-2,-8,-17,-4,-5,-2,1,1
13:03:13:348110,-33,-17,13,1,4,0,-7,-8
13:03:13:355691,-33,-17,13,1,4,0,-7,-8
13:03:13:363085,1,-39,-3,2,-2,1,10,10
13:03:13:370631,-20,2,-3,-6,-2,-3,14,-16
13:03:13:378862,-20,2,-3,-6,-2,-3,14,-16
13:03:13:379632,7,1,-1,0,1,-3,-9,1
13:03:13:393823,17,-8,-4,5,-1,0,-10,8
13:03:13:394629,17,-8,-4,5,-1,0,-10,8
13:03:13:400640,-7,22,-10,-7,-2,-1,-3,5
13:03:13:408114,14,10,-14,1,-3,-1,-1,19
13:03:13:415695,14,10,-14,1,-3,-1,-1,19
13:03:13:423137,5,7,2,-3,1,-3,-6,-18
13:03:13:430600,14,2,1,0,-3,-3,-5,15
13:03:13:438802,14,2,1,0,-3,-3,-5,15
13:03:13:439644,-4,-12,-1,0,1,-3,-8,-8
13:03:13:453841,5,-41,-6,-4,-1,-3,-6,0
13:03:13:454638,5,-41,-6,-4,-1,-3,-6,0
13:03:13:460637,-2,-9,-4,1,1,2,2,4
13:03:13:468124,-1,10,6,2,1,3,12,17
13:03:13:475686,-1,10,6,2,1,3,12,17
13:03:13:483144,3,-4,14,8,-1,2,28,22
13:03:13:490642,-9,16,2,7,1,1,-14,-14
13:03:13:498860,-9,16,2,7,1,1,-14,-14
13:03:13:499634,14,-1,4,5,-2,-1,-7,27
13:03:13:513813,3,-10,3,4,0,2,11,2
13:03:13:514629,3,-10,3,4,0,2,11,2
13:03:13:520638,-3,-6,-14,1,0,0,1,12
13:03:13:528159,-7,-5,-20,0,-1,-2,1,4
13:03:13:535672,-7,-5,-20,0,-1,-2,1,4
13:03:13:543118,5,12,-4,-6,-1,0,-10,-1
13:03:13:550599,-13,3,-1,-6,-2,-4,-18,-23
13:03:13:558836,-13,3,-1,-6,-2,-4,-18,-23
13:03:13:559610,3,0,-5,-6,-2,-6,2,-2
13:03:13:573814,15,15,1,-4,0,0,3,-20
13:03:13:574596,15,15,1,-4,0,0,3,-20
13:03:13:580596,-10,-7,17,1,-3,-1,3,0
13:03:13:588125,1,2,10,6,1,1,-2,5
13:03:13:595687,1,2,10,6,1,1,-2,5
13:03:13:603098,1,-32,27,6,4,2,-5,3
13:03:13:610625,-1,32,8,9,-2,-3,-12,-2
13:03:13:618838,-1,32,8,9,-2,-3,-12,-2
13:03:13:619638,3,22,-14,-5,1,0,-4,-11
13:03:13:633817,4,-5,-6,-7,0,2,4,-11
13:03:13:634633,4,-5,-6,-7,0,2,4,-11
13:03:13:640582,-18,5,-12,-5,-3,0,4,-13
13:03:13:648081,-18,-16,-3,-7,-2,-5,-12,-21
13:03:13:655663,-18,-16,-3,-7,-2,-5,-12,-21
13:03:13:663133,6,-10,7,3,-2,3,17,45
13:03:13:670597,5,-10,13,-6,0,-3,-10,-20
13:03:13:678882,5,-10,13,-6,0,-3,-10,-20
13:03:13:679684,12,17,-9,-2,1,-2,-14,-7
13:03:13:693818,-9,3,1,-1,-1,2,19,14
13:03:13:694631,-9,3,1,-1,-1,2,19,14
13:03:13:700619,1,3,-29,1,-5,-1,-2,-1
13:03:13:708123,23,24,-3,-1,-2,-2,-6,-6
13:03:13:715712,23,24,-3,-1,-2,-2,-6,-6
13:03:13:723122,-27,7,22,-3,-1,-2,-1,-6
13:03:13:730616,-2,-13,1,2,-3,-1,-4,12
13:03:13:738796,-2,-13,1,2,-3,-1,-4,12
13:03:13:739603,7,14,29,-2,-1,-2,-2,-11
13:03:13:753825,-6,-14,6,3,0,0,1,3
13:03:13:754639,-6,-14,6,3,0,0,1,3
13:03:13:760610,-5,-29,-13,-8,-3,-5,-5,-12
13:03:13:768119,2,3,-4,3,-1,2,5,12
13:03:13:775633,2,3,-4,3,-1,2,5,12
13:03:13:783145,14,40,-5,-6,-3,-1,-5,-8
13:03:13:790610,-5,-4,-14,-6,0,-2,-1,-2
13:03:13:798859,-5,-4,-14,-6,0,-2,-1,-2
13:03:13:799655,-5,-19,-21,-4,1,-2,-8,-14
13:03:13:813818,1,-14,-8,-3,-4,-2,-2,3
13:03:13:814606,1,-14,-8,-3,-4,-2,-2,3
13:03:13:820651,-19,19,-14,-3,0,-2,-11,-22
13:03:13:828145,1,-7,-13,-2,0,-1,3,3
13:03:13:835666,1,-7,-13,-2,0,-1,3,3
13:03:13:843126,2,-20,4,-1,-1,-1,0,9
13:03:13:850599,2,18,4,1,2,1,0,15
13:03:13:858830,2,18,4,1,2,1,0,15
13:03:13:859612,3,-5,6,-1,-4,-6,-1,-3
13:03:13:881943,10,27,18,3,2,3,1,-1
13:03:13:882749,10,27,18,3,2,3,1,-1
13:03:13:883636,-6,-46,-7,11,6,3,5,8
13:03:13:896345,17,7,22,-7,1,-4,-4,-2
13:03:13:897148,17,7,22,-7,1,-4,-4,-2
13:03:13:903147,8,25,4,0,-5,-2,3,5
13:03:13:910610,-10,-32,-11,9,0,3,6,13
13:03:13:918148,-10,-32,-11,9,0,3,6,13
13:03:13:925651,12,-5,-30,0,1,1,0,-9
13:03:13:933825,-18,-21,-22,-7,-3,-7,-7,-11
13:03:13:934590,-18,-21,-22,-7,-3,-7,-7,-11
13:03:13:940603,0,-45,25,12,-1,2,0,-12
13:03:13:956759,-11,-3,-15,0,-5,-7,-6,-8
13:03:13:957597,-11,-3,-15,0,-5,-7,-6,-8
13:03:13:963117,12,17,-36,-8,-5,-2,0,3
13:03:13:970596,4,22,0,-12,-10,-6,-6,-27
13:03:13:978154,4,22,0,-12,-10,-6,-6,-27
13:03:13:994471,-17,2,13,-11,0,-1,0,-1
13:03:13:995248,7,-3,-7,5,-1,1,1,-1
13:03:13:996116,7,-3,-7,5,-1,1,1,-1
13:03:14:670,-10,15,-9,-10,0,-5,-6,-12
13:03:14:16307,-21,-29,17,5,-2,-2,-2,3
13:03:14:17096,-21,-29,17,5,-2,-2,-2,3
13:03:14:23129,10,27,7,9,7,4,1,8
13:03:14:30615,-5,1,-5,-6,2,-3,-2,2
13:03:14:38136,-5,1,-5,-6,2,-3,-2,2
13:03:14:45635,5,35,-6,-5,-6,-6,-5,21
13:03:14:53790,1,10,0,-13,7,1,-4,-3
13:03:14:54605,1,10,0,-13,7,1,-4,-3
13:03:14:60605,-7,5,8,-10,-8,-2,-5,-19
13:03:14:76316,1,4,0,-5,-9,-4,-1,0
13:03:14:77116,1,4,0,-5,-9,-4,-1,0
13:03:14:83057,-7,-10,-27,-14,-2,-4,-5,-4
13:03:14:90648,-31,-5,-2,-5,2,0,-7,-25
13:03:14:98120,-31,-5,-2,-5,2,0,-7,-25
13:03:14:105588,-15,-67,8,13,-2,2,10,19
13:03:14:113788,20,0,25,6,-2,-1,1,22
13:03:14:114624,20,0,25,6,-2,-1,1,22
13:03:14:120623,11,29,32,-7,0,-2,-4,-14
13:03:14:136330,14,2,13,5,4,4,10,17
13:03:14:137106,14,2,13,5,4,4,10,17
13:03:14:143095,-9,-16,-34,-14,-17,-6,-4,-1
13:03:14:150593,16,-11,-13,-11,-3,2,2,8
13:03:14:158180,16,-11,-13,-11,-3,2,2,8
13:03:14:165615,4,9,-33,-3,-2,-3,-2,0
13:03:14:173824,1,12,6,13,-3,0,-2,-6
13:03:14:174650,1,12,6,13,-3,0,-2,-6
13:03:14:180627,0,-5,3,3,1,1,1,-10
13:03:14:196308,18,37,-20,-4,1,-1,4,14
13:03:14:197161,18,37,-20,-4,1,-1,4,14
13:03:14:203121,-3,22,16,2,2,-1,-6,-9
13:03:14:210604,-2,9,17,6,-1,0,-1,-4
13:03:14:218179,-2,9,17,6,-1,0,-1,-4
13:03:14:225624,11,1,8,2,-2,1,3,13
13:03:14:233772,-13,-9,7,-6,3,2,-2,-3
13:03:14:234581,-13,-9,7,-6,3,2,-2,-3
13:03:14:240643,1,-20,0,13,7,8,5,4
13:03:14:256331,-5,25,-38,-18,-13,-8,-6,-11
13:03:14:257143,-5,25,-38,-18,-13,-8,-6,-11
13:03:14:271217,0,6,24,11,5,2,-1,-3
13:03:14:272059,-15,-10,2,6,-1,1,1,2
13:03:14:278193,-15,-10,2,6,-1,1,1,2
13:03:14:285597,-3,-27,-12,-2,0,-2,-1,3
13:03:14:293829,-11,-66,17,20,12,6,-1,-7
13:03:14:294667,-11,-66,17,20,12,6,-1,-7
13:03:14:300660,-2,51,4,-2,-2,-1,1,10
13:03:14:316326,-2,25,-17,4,-1,-2,-6,-8
13:03:14:317160,-2,25,-17,4,-1,-2,-6,-8
13:03:14:323096,-12,-40,5,11,1,1,3,4
13:03:14:330588,-35,-57,-38,-14,3,-4,-11,-24
13:03:14:338207,-35,-57,-38,-14,3,-4,-11,-24
13:03:14:345629,2,2,22,-1,-2,1,0,-1
13:03:14:353768,-8,-39,10,-1,-3,-1,3,4
13:03:14:354590,-8,-39,10,-1,-3,-1,3,4
13:03:14:360620,-10,0,-15,-26,-1,-7,-5,-1
13:03:14:376351,12,11,-17,11,4,2,1,1
13:03:14:377147,12,11,-17,11,4,2,1,1
13:03:14:383119,3,-1,-13,5,1,3,2,6
13:03:14:398857,-1,4,-17,-9,-7,-3,-5,-11
13:03:14:399641,-1,4,-17,-9,-7,-3,-5,-11
13:03:14:414506,-4,-12,-14,-7,-4,-3,-7,-10
13:03:14:415312,14,9,4,1,1,-1,3,10
13:03:14:416129,14,9,4,1,1,-1,3,10
13:03:14:420626,6,-36,22,16,4,4,4,2
13:03:14:436309,13,17,-9,-2,-6,-2,3,3
13:03:14:437151,13,17,-9,-2,-6,-2,3,3
13:03:14:443092,-1,39,-29,-11,-4,-6,-5,-8
13:03:14:450611,2,13,35,-2,-3,-7,-5,5
13:03:14:458175,2,13,35,-2,-3,-7,-5,5
13:03:14:465589,-3,-10,-18,-3,15,5,1,-10
13:03:14:473821,7,22,3,-7,-2,-1,-4,4
13:03:14:474643,7,22,3,-7,-2,-1,-4,4
13:03:14:480647,-3,27,13,-7,-7,-6,-3,-3
13:03:14:496338,-1,11,-45,2,8,2,-1,-2
13:03:14:497142,-1,11,-45,2,8,2,-1,-2
13:03:14:503123,-10,-24,13,-9,1,-4,-10,-13
13:03:14:510613,-11,3,-3,-6,-5,1,4,6
13:03:14:518195,-11,3,-3,-6,-5,1,4,6
13:03:14:525623,-8,-4,8,-11,1,-1,4,5
13:03:14:533787,-1,4,-3,-9,5,1,-7,-14
13:03:14:534598,-1,4,-3,-9,5,1,-7,-14
13:03:14:540643,7,13,0,-2,-1,-2,-1,3
13:03:14:556340,1,-5,20,7,0,1,5,14
13:03:14:557141,1,-5,20,7,0,1,5,14
13:03:14:563105,11,-21,3,14,5,2,2,8
13:03:14:570615,1,-5,9,8,-3,1,0,2
13:03:14:578184,1,-5,9,8,-3,1,0,2
13:03:14:585626,-5,-27,-23,-9,0,-3,-7,4
13:03:14:593829,-7,-25,2,-8,-6,-5,-3,-3
13:03:14:594601,-7,-25,2,-8,-6,-5,-3,-3
13:03:14:600559,6,11,9,14,-2,2,5,-4
13:03:14:616338,3,-15,0,-2,1,-2,-2,1
13:03:14:617111,3,-15,0,-2,1,-2,-2,1
13:03:14:623129,-1,12,-20,-7,-2,-5,-4,-1
13:03:14:630644,21,37,5,-3,3,1,6,7
13:03:14:638139,21,37,5,-3,3,1,6,7
13:03:14:645585,12,-21,15,17,-2,3,3,6
13:03:14:653831,-7,-58,-11,-7,-7,-2,4,2
13:03:14:654613,-7,-58,-11,-7,-7,-2,4,2
13:03:14:660625,10,20,23,4,-1,3,1,3
13:03:14:676295,-1,0,8,14,3,2,-1,-7
13:03:14:677146,-1,0,8,14,3,2,-1,-7
13:03:14:683104,-2,8,-2,3,0,-3,2,8
13:03:14:690604,-4,-9,8,8,-1,-1,0,4
13:03:14:698175,-4,-9,8,8,-1,-1,0,4
13:03:14:705601,-4,3,4,2,-5,-2,-3,-8
13:03:14:713869,-5,-18,-20,-19,-5,-7,-6,-5
13:03:14:714651,-5,-18,-20,-19,-5,-7,-6,-5
13:03:14:720613,-7,-12,0,0,0,-2,-1,-1
13:03:14:736307,-2,20,13,0,-4,-1,-5,-1
13:03:14:737113,-2,20,13,0,-4,-1,-5,-1
13:03:14:743207,-10,-5,-5,-11,-4,-1,2,-5
13:03:14:750612,-1,-16,20,15,9,5,5,10
13:03:14:758189,-1,-16,20,15,9,5,5,10
13:03:14:765600,8,2,2,-2,-5,-1,-2,-8
13:03:14:773812,-8,-16,4,-9,4,-3,-3,-5
13:03:14:774631,-8,-16,4,-9,4,-3,-3,-5
13:03:14:780642,-13,0,-9,-5,-2,-2,1,-2
13:03:14:796408,6,35,-3,2,-3,-2,0,-3
13:03:14:797160,6,35,-3,2,-3,-2,0,-3
13:03:14:803110,-6,-14,18,19,2,3,1,2
13:03:14:818846,-16,4,2,-7,-2,-5,-8,-8
13:03:14:819613,-16,4,2,-7,-2,-5,-8,-8
13:03:14:825622,5,3,0,-3,-5,-7,-6,-1
13:03:14:833820,3,-7,2,4,-4,0,4,3
13:03:14:834639,3,-7,2,4,-4,0,4,3
13:03:14:848133,5,12,-15,-5,-3,-2,-3,-3
13:03:14:856279,10,12,-6,-6,2,2,-2,3
13:03:14:857180,10,12,-6,-6,2,2,-2,3
13:03:14:863094,-7,-5,-21,-7,-1,1,1,3
13:03:14:878812,-7,-21,23,13,-1,3,0,-5
13:03:14:879630,-7,-21,23,13,-1,3,0,-5
13:03:14:885589,2,-27,0,2,-3,-2,7,16
13:03:14:893845,25,46,-31,-18,-3,-2,-4,-5
13:03:14:894635,25,46,-31,-18,-3,-2,-4,-5
13:03:14:908121,-23,-11,-4,-14,-4,-6,-8,-8
13:03:14:916332,6,57,22,-9,-3,-2,-4,-3
13:03:14:917128,6,57,22,-9,-3,-2,-4,-3
13:03:14:923112,-2,-25,-20,3,-2,2,1,-6
13:03:14:938840,6,9,-18,-8,-8,-7,-6,-7
13:03:14:939625,6,9,-18,-8,-8,-7,-6,-7
13:03:14:945596,1,-5,18,2,2,2,-4,-16
13:03:14:961319,1,-5,18,2,2,2,-4,-16
13:03:14:962113,6,7,-7,7,-5,0,3,4
13:03:14:968137,-8,49,10,-17,-2,-6,-6,-16
13:03:14:976338,-8,49,10,-17,-2,-6,-6,-16
13:03:14:977126,-8,15,13,10,3,1,2,5
13:03:14:983114,7,16,-56,-23,-2,-3,0,28
13:03:14:998796,7,16,-56,-23,-2,-3,0,28
13:03:14:999602,6,-17,0,5,-3,-1,-2,-6
13:03:15:5627,10,48,14,-7,-3,-5,-8,-13
13:03:15:21313,10,48,14,-7,-3,-5,-8,-13
13:03:15:22081,7,-16,-5,4,4,2,2,11
13:03:15:28135,-6,-59,24,25,6,6,2,6
13:03:15:36312,-6,-59,24,25,6,6,2,6
13:03:15:37095,6,-7,30,10,-1,-1,0,-3
13:03:15:43106,12,-25,41,17,7,7,12,23
13:03:15:58799,12,-25,41,17,7,7,12,23
13:03:15:59587,-22,-4,-22,-12,-4,-2,-6,-13
13:03:15:65654,-8,57,-16,-11,-8,0,8,13
13:03:15:81353,-8,57,-16,-11,-8,0,8,13
13:03:15:82135,-3,-3,13,-4,4,0,4,-1
13:03:15:88148,1,5,6,1,-4,-2,-2,3
13:03:15:96298,1,5,6,1,-4,-2,-2,3
13:03:15:97100,-25,-42,7,6,1,3,-5,-19
13:03:15:103125,4,19,-2,-5,-6,-7,-17,-19
13:03:15:118857,4,19,-2,-5,-6,-7,-17,-19
13:03:15:119662,4,-31,-2,8,4,-1,-3,2
13:03:15:125678,10,19,-8,-9,-6,-1,-3,-2
13:03:15:141328,10,19,-8,-9,-6,-1,-3,-2
13:03:15:142166,-2,1,-13,-11,-5,-3,0,10
13:03:15:148106,11,13,-4,-3,0,1,10,21
13:03:15:156271,11,13,-4,-3,0,1,10,21
13:03:15:157116,-12,-4,18,-4,1,0,-9,-13
13:03:15:163145,-22,-62,-11,-3,-2,-5,-4,-18
13:03:15:178823,-22,-62,-11,-3,-2,-5,-4,-18
13:03:15:179653,-9,26,-31,-12,2,-4,11,10
13:03:15:185707,0,7,-3,4,5,0,-2,-12
13:03:15:201381,0,7,-3,4,5,0,-2,-12
13:03:15:202138,2,12,-18,-5,-5,-3,1,14
13:03:15:208128,3,12,17,3,6,3,-1,-4
13:03:15:216341,3,12,17,3,6,3,-1,-4
13:03:15:217171,-16,-26,-9,3,-2,-5,0,-3
13:03:15:223109,10,-11,-14,-9,-1,1,-7,-15
13:03:15:238837,10,-11,-14,-9,-1,1,-7,-15
13:03:15:239671,8,11,-27,-1,-1,-2,4,16
13:03:15:245597,-3,8,-10,-2,4,-2,-8,-16
13:03:15:269484,-3,8,-10,-2,4,-2,-8,-16
13:03:15:270295,7,-20,26,11,0,3,3,1
13:03:15:271060,-4,-7,7,2,-2,-3,-6,13
13:03:15:276306,-4,-7,7,2,-2,-3,-6,13
13:03:15:277117,-16,-67,3,-10,3,2,10,-10
13:03:15:283128,-20,-27,-2,1,0,1,2,5
13:03:15:298824,-20,-27,-2,1,0,1,2,5
13:03:15:299636,4,21,8,5,1,2,-5,3
13:03:15:305573,-2,-11,-22,-16,0,-2,1,3
13:03:15:321755,-2,-11,-22,-16,0,-2,1,3
13:03:15:328823,9,-6,6,7,5,-1,-8,-20
13:03:15:329643,-4,-38,10,11,0,1,1,-2
13:03:15:336288,-4,-38,10,11,0,1,1,-2
13:03:15:337111,-2,6,-9,-12,-3,-3,-1,1
13:03:15:343103,-11,38,-6,9,3,-3,1,0
13:03:15:358828,-11,38,-6,9,3,-3,1,0
13:03:15:359608,4,-6,2,3,-3,-1,-5,4
13:03:15:365644,-16,-31,4,8,2,5,8,1
13:03:15:381406,-16,-31,4,8,2,5,8,1
13:03:15:382151,-12,-34,-1,1,4,5,3,5
13:03:15:388158,17,9,8,-4,-5,-7,-13,-4
13:03:15:396311,17,9,8,-4,-5,-7,-13,-4
13:03:15:397099,-6,-23,-14,-20,2,-6,-5,-5
13:03:15:403135,0,-6,-4,1,-3,-2,-1,3
13:03:15:418892,0,-6,-4,1,-3,-2,-1,3
13:03:15:419664,25,69,16,3,-8,-4,3,16
13:03:15:425627,8,11,7,-6,-5,-4,-8,-2
13:03:15:441350,8,11,7,-6,-5,-4,-8,-2
13:03:15:442150,2,19,1,-1,-2,2,0,-7
13:03:15:448129,3,12,-10,-1,-6,2,3,6
13:03:15:456325,3,12,-10,-1,-6,2,3,6
13:03:15:457087,-4,-15,-18,9,-4,0,-3,7
13:03:15:463134,-7,-45,-10,-4,-4,-6,-15,-16
13:03:15:478848,-7,-45,-10,-4,-4,-6,-15,-16
13:03:15:479655,13,47,-2,-7,-8,-4,-13,-4
13:03:15:485622,18,29,17,3,5,0,3,2
13:03:15:501343,18,29,17,3,5,0,3,2
13:03:15:502117,9,18,25,1,3,5,23,-2
13:03:15:508135,20,27,1,7,-1,3,11,14
13:03:15:516372,20,27,1,7,-1,3,11,14
13:03:15:517143,6,-7,-4,4,0,-14,-32,13
13:03:15:523154,-3,-2,-13,-15,-18,-26,5,-6
13:03:15:538856,-3,-2,-13,-15,-18,-26,5,-6
13:03:15:539652,-6,-14,-34,2,-5,10,19,14
13:03:15:545617,-16,4,-8,2,10,9,10,1
13:03:15:561378,-16,4,-8,2,10,9,10,1
13:03:15:562120,-7,-5,-3,-5,-5,-1,21,4
13:03:15:568092,-9,-23,-29,-12,-8,-7,-14,-18
13:03:15:576331,-9,-23,-29,-12,-8,-7,-14,-18
13:03:15:577144,-37,-23,1,-2,-7,-5,-15,-14
13:03:15:583137,10,12,10,-5,-1,10,12,-7
13:03:15:598872,10,12,10,-5,-1,10,12,-7
13:03:15:599618,14,25,4,-3,-2,2,-8,10
13:03:15:605608,-19,-8,8,4,3,4,-6,-9
13:03:15:621331,-19,-8,8,4,3,4,-6,-9
13:03:15:622122,-31,-20,8,-17,12,14,-4,-19
13:03:15:628078,9,7,10,-5,0,1,9,6
13:03:15:636329,9,7,10,-5,0,1,9,6
13:03:15:637133,-1,-3,3,1,-4,-6,-4,-12
13:03:15:643117,5,-42,40,28,0,1,5,10
13:03:15:658818,5,-42,40,28,0,1,5,10
13:03:15:659616,3,-28,0,3,1,-3,19,1
13:03:15:665625,-12,-26,-5,0,2,4,7,23
13:03:15:673185,-12,-26,-5,0,2,4,7,23
13:03:15:680627,12,-6,-5,-2,5,-1,-6,-16
13:03:15:688111,-10,7,-5,-9,3,0,-6,-15
13:03:15:696344,-10,7,-5,-9,3,0,-6,-15
13:03:15:697115,7,19,-5,-3,-13,-19,-8,-2
13:03:15:703116,-1,7,-9,-9,12,7,-9,-2
13:03:15:718847,-1,7,-9,-9,12,7,-9,-2
13:03:15:719640,10,7,-1,1,19,-5,-1,1
13:03:15:725643,11,2,11,15,-7,2,15,22
13:03:15:733852,11,2,11,15,-7,2,15,22
13:03:15:734660,-34,-37,-7,-2,-6,-6,-19,-11
13:03:15:748116,-8,40,5,-15,-1,-2,-2,-9
13:03:15:756340,-8,40,5,-15,-1,-2,-2,-9
13:03:15:757123,18,23,4,10,-4,7,13,29
13:03:15:770587,-6,0,-12,-4,-4,-6,-8,-3
13:03:15:786973,-6,0,-12,-4,-4,-6,-8,-3
13:03:15:787787,13,25,-1,0,3,3,-20,-21
13:03:15:788575,4,23,-11,-1,4,-1,1,-1
13:03:15:793204,4,23,-11,-1,4,-1,1,-1
13:03:15:800614,-11,-26,-3,3,-5,-3,-4,14
13:03:15:808089,17,8,-28,-7,-20,-28,-1,-12
13:03:15:816335,17,8,-28,-7,-20,-28,-1,-12
13:03:15:817151,2,32,11,4,-2,-4,0,0
13:03:15:831083,18,-6,12,6,6,8,-4,7
13:03:15:838865,18,-6,12,6,6,8,-4,7
13:03:15:839680,-8,-13,1,-8,-2,-3,3,-29
13:03:15:845643,-1,0,14,5,6,7,9,-5
13:03:15:853221,-1,0,14,5,6,7,9,-5
13:03:15:860630,-35,-13,8,-7,-4,1,-13,-5
13:03:15:868124,-14,-12,-22,-6,-3,1,19,8
13:03:15:876373,-14,-12,-22,-6,-3,1,19,8
13:03:15:877175,20,22,11,7,7,16,27,16
13:03:15:890621,-16,13,6,3,7,19,4,-16
13:03:15:898854,-16,13,6,3,7,19,4,-16
13:03:15:899650,16,-17,-12,-6,-4,-6,-12,3
13:03:15:905656,-19,-25,-8,-7,-12,-12,-9,5
13:03:15:913194,-19,-25,-8,-7,-12,-12,-9,5
13:03:15:920648,5,10,-7,-5,1,2,0,-13
13:03:15:928150,-5,-23,0,-5,-1,-5,-31,-5
13:03:15:936300,-5,-23,0,-5,-1,-5,-31,-5
13:03:15:937083,-2,15,0,1,-1,0,22,-8
13:03:15:950661,-1,-2,2,-1,2,-7,-18,-16
13:03:15:958852,-1,-2,2,-1,2,-7,-18,-16
13:03:15:959665,3,16,-9,0,-1,0,-1,15
13:03:15:965634,20,10,12,1,1,-3,-5,5
13:03:15:973152,20,10,12,1,1,-3,-5,5
13:03:15:980639,-19,-81,-54,-13,7,-13,-10,-9
13:03:15:988133,-4,-12,-3,-3,-4,-4,-17,-3
13:03:15:996327,-4,-12,-3,-3,-4,-4,-17,-3
13:03:15:997091,-5,5,10,-5,-6,0,4,0
13:03:16:10629,18,13,0,3,1,1,0,-11
13:03:16:18828,18,13,0,3,1,1,0,-11
13:03:16:19595,13,30,8,5,-5,-5,-2,8
13:03:16:25647,1,20,15,5,-3,2,8,-7
13:03:16:33177,1,20,15,5,-3,2,8,-7
13:03:16:40573,0,25,16,4,0,5,1,-12
13:03:16:48083,-16,-3,-4,-8,2,-4,-4,-19
13:03:16:56333,-16,-3,-4,-8,2,-4,-4,-19
13:03:16:57116,-5,-12,-5,-2,-1,-4,-18,1
13:03:16:70638,-11,-31,-37,-8,-1,-6,-3,16
13:03:16:78816,-11,-31,-37,-8,-1,-6,-3,16
13:03:16:79601,-15,29,-5,-5,-5,-3,-1,-2
13:03:16:85624,9,46,4,-8,0,4,3,3
13:03:16:93174,9,46,4,-8,0,4,3,3
13:03:16:100617,-1,-37,-7,0,-1,-1,-7,15
13:03:16:108074,5,4,-5,1,-7,9,25,25
13:03:16:116378,5,4,-5,1,-7,9,25,25
13:03:16:117168,6,15,7,-6,-4,-2,-1,-17
13:03:16:130593,9,-23,-1,9,3,-1,28,2
13:03:16:138842,9,-23,-1,9,3,-1,28,2
13:03:16:139616,-4,-27,23,0,3,0,-7,-2
13:03:16:145618,-7,-13,3,6,-4,-5,-13,-5
13:03:16:161351,-7,-13,3,6,-4,-5,-13,-5
13:03:16:162099,2,12,3,5,4,5,7,0
13:03:16:168088,-21,-30,9,0,3,1,-6,-12
13:03:16:176351,-21,-30,9,0,3,1,-6,-12
13:03:16:177145,13,13,-4,-1,-1,-4,-12,8
13:03:16:190648,-4,3,-11,-10,-2,-3,-11,-1
13:03:16:198824,-4,3,-11,-10,-2,-3,-11,-1
13:03:16:199649,5,3,22,1,-5,1,0,1
13:03:16:205588,-6,12,10,1,-1,-4,5,9
13:03:16:213165,-6,12,10,1,-1,-4,5,9
13:03:16:220627,0,26,-9,2,3,4,-1,-5
13:03:16:228139,9,8,25,6,1,2,5,2
13:03:16:236360,9,8,25,6,1,2,5,2
13:03:16:237123,-3,-12,-9,0,0,0,16,10
13:03:16:250604,-1,-41,-13,-4,2,6,4,0
13:03:16:259458,-1,-41,-13,-4,2,6,4,0
13:03:16:260302,-31,6,-11,-8,-3,-4,-2,3
13:03:16:265647,5,-18,-19,-5,-4,-5,-8,4
13:03:16:273200,5,-18,-19,-5,-4,-5,-8,4
13:03:16:280607,2,2,-8,-1,-2,-3,-9,3
13:03:16:288130,-15,0,1,-1,0,3,-2,-13
13:03:16:296361,-15,0,1,-1,0,3,-2,-13
13:03:16:297164,-9,3,4,-2,-2,6,24,0
13:03:16:310652,-4,8,8,1,-1,-2,1,-7
13:03:16:318858,-4,8,8,1,-1,-2,1,-7
13:03:16:319626,11,-1,19,4,-2,-6,-18,0
13:03:16:325651,10,1,-4,-3,2,2,6,14
13:03:16:333191,10,1,-4,-3,2,2,6,14
13:03:16:340655,-2,-40,-22,-7,-1,-3,15,-4
13:03:16:348126,1,10,-12,9,0,2,-7,11
13:03:16:356326,1,10,-12,9,0,2,-7,11
13:03:16:357109,5,14,1,1,-3,-3,-8,-16
13:03:16:370587,-9,-2,-4,5,-3,-1,0,0
13:03:16:378806,-9,-2,-4,5,-3,-1,0,0
13:03:16:379658,6,3,-3,-4,-4,-4,-19,-3
13:03:16:385643,-9,19,8,-9,1,0,1,-17
13:03:16:393139,-9,19,8,-9,1,0,1,-17
13:03:16:400615,-22,-10,1,-2,2,3,6,-7
13:03:16:408145,-13,-36,-6,-4,0,-3,-14,3
13:03:16:416330,-13,-36,-6,-4,0,-3,-14,3
13:03:16:417123,11,-30,-4,5,0,2,1,10
13:03:16:430636,1,12,-7,-9,-4,-5,-7,-8
13:03:16:438804,1,12,-7,-9,-4,-5,-7,-8
13:03:16:439602,-10,-8,-5,-5,2,0,-1,1
13:03:16:445579,23,-6,-8,3,0,0,-4,6
13:03:16:453162,23,-6,-8,3,0,0,-4,6
13:03:16:460564,19,50,9,0,2,4,3,1
13:03:16:468111,-6,11,16,-4,-1,-2,-13,-16
13:03:16:476332,-6,11,16,-4,-1,-2,-13,-16
13:03:16:477132,-15,-34,-6,-8,0,2,14,4
13:03:16:490609,-5,14,8,10,3,-3,-4,5
13:03:16:498836,-5,14,8,10,3,-3,-4,5
13:03:16:499626,14,40,2,2,-1,-4,-4,9
13:03:16:505592,-3,4,7,-3,-2,-3,-2,-11
13:03:16:513190,-3,4,7,-3,-2,-3,-2,-11
13:03:16:520619,0,-20,-2,3,-3,-1,-2,-4
13:03:16:528086,1,-9,16,15,3,3,21,7
13:03:16:536334,1,-9,16,15,3,3,21,7
13:03:16:537122,-3,-4,5,-3,-2,0,-1,-13
13:03:16:550575,-34,-18,-9,-8,-4,-4,-7,-1
13:03:16:558876,-34,-18,-9,-8,-4,-4,-7,-1
13:03:16:559623,0,-12,5,0,-2,-5,4,11
13:03:16:565595,18,32,-4,-7,2,6,-8,-2
13:03:16:573221,18,32,-4,-7,2,6,-8,-2
13:03:16:580648,-3,23,12,3,-1,-1,-10,0
13:03:16:588120,6,-28,16,5,-3,-4,3,8
13:03:16:596317,6,-28,16,5,-3,-4,3,8
13:03:16:597109,-11,-46,-3,-5,-1,0,-5,-1
13:03:16:610613,3,4,-4,-4,-1,-5,-8,-8
13:03:16:618881,3,4,-4,-4,-1,-5,-8,-8
13:03:16:619643,-5,-27,4,4,7,2,-5,6
13:03:16:625621,-1,7,-20,-6,-2,-3,-4,-4
13:03:16:633127,-1,7,-20,-6,-2,-3,-4,-4
13:03:16:640666,19,28,1,-4,-4,-7,-8,-2
13:03:16:648146,9,26,3,-4,-6,-7,-8,-5
13:03:16:656297,9,26,3,-4,-6,-7,-8,-5
13:03:16:657110,12,10,-10,1,0,1,-6,2
13:03:16:670616,17,-8,0,-1,0,-2,-2,6
13:03:16:678831,17,-8,0,-1,0,-2,-2,6
13:03:16:679621,-9,-16,-27,-3,-2,-5,-4,-11
13:03:16:685663,5,-14,-4,4,3,4,7,8
13:03:16:693163,5,-14,-4,4,3,4,7,8
13:03:16:700574,13,26,6,5,1,0,1,-11
13:03:16:708138,0,13,-5,-2,-1,2,0,-6
13:03:16:715676,0,13,-5,-2,-1,2,0,-6
13:03:16:723096,-8,-8,-3,0,0,1,-1,-24
13:03:16:730589,-8,2,-2,-2,-4,-2,-6,-2
13:03:16:738824,-8,2,-2,-2,-4,-2,-6,-2
13:03:16:739625,-1,35,6,1,-3,0,0,5
13:03:16:753828,0,1,16,7,3,2,0,2
13:03:16:754613,0,1,16,7,3,2,0,2
13:03:16:760591,2,9,14,7,-1,2,10,18
13:03:16:768094,-2,-13,2,4,0,4,5,-1
13:03:16:775679,-2,-13,2,4,0,4,5,-1
13:03:16:783126,-7,-29,0,-4,-1,-2,-7,-19
13:03:16:790627,15,24,-2,-1,-2,-3,5,5
13:03:16:798875,15,24,-2,-1,-2,-3,5,5
13:03:16:799641,-4,-11,0,0,0,1,3,8
13:03:16:813829,-5,2,-14,-6,-4,-8,-15,-9
13:03:16:814642,-5,2,-14,-6,-4,-8,-15,-9
13:03:16:820620,5,6,-7,-11,-4,-5,-6,-3
13:03:16:828082,-21,-7,-18,-3,-3,-3,2,5
13:03:16:835723,-21,-7,-18,-3,-3,-3,2,5
13:03:16:843105,2,-1,7,-3,-2,-2,-4,-4
13:03:16:850623,1,-40,-1,-3,0,-1,4,-1
13:03:16:858822,1,-40,-1,-3,0,-1,4,-1
13:03:16:859606,5,3,-7,1,0,-1,10,1
13:03:16:873817,-11,3,-6,-6,1,0,7,3
13:03:16:874658,-11,3,-6,-6,1,0,7,3
13:03:16:880633,6,1,-11,-1,-1,-1,1,-3
13:03:16:888133,7,-14,5,7,1,4,4,-2
13:03:16:895677,7,-14,5,7,1,4,4,-2
13:03:16:903116,-7,-6,-3,-1,-2,1,12,17
13:03:16:910663,3,-3,-3,-2,-2,-1,-10,-6
13:03:16:918817,3,-3,-3,-2,-2,-1,-10,-6
13:03:16:919589,-3,-22,-1,5,1,0,0,-5
13:03:16:933782,2,30,-7,-7,-3,-2,-2,-2
13:03:16:934619,2,30,-7,-7,-3,-2,-2,-2
13:03:16:940624,-14,-19,-4,-7,-1,-4,-21,-1
13:03:16:948131,-5,-3,-1,-8,-3,-2,1,-2
13:03:16:955679,-5,-3,-1,-8,-3,-2,1,-2
13:03:16:963088,4,18,-9,-5,-2,-1,-7,-4
13:03:16:970628,-8,-18,-1,7,2,4,25,11
13:03:16:978829,-8,-18,-1,7,2,4,25,11
13:03:16:979625,-3,0,2,-5,-3,0,5,9
13:03:16:993806,10,6,0,3,-2,-2,-6,-2
13:03:16:994603,10,6,0,3,-2,-2,-6,-2
13:03:17:590,-44,-26,-16,-7,-2,-2,4,-2
13:03:17:8064,10,-7,5,0,1,0,-13,4
13:03:17:15650,10,-7,5,0,1,0,-13,4
13:03:17:23116,-24,-28,-14,-11,-2,-6,-13,-20
13:03:17:30595,-20,-20,-7,-4,-1,-3,-8,-3
13:03:17:38854,-20,-20,-7,-4,-1,-3,-8,-3
13:03:17:39643,-3,1,6,6,-2,1,-3,-8
13:03:17:53794,-4,14,1,1,-2,-1,3,15
13:03:17:54607,-4,14,1,1,-2,-1,3,15
13:03:17:60604,12,31,9,-1,0,-2,-16,-24
13:03:17:68106,3,-15,-9,-1,0,-1,-1,-1
13:03:17:75666,3,-15,-9,-1,0,-1,-1,-1
13:03:17:83085,6,1,-1,2,0,3,6,8
13:03:17:90609,-27,-4,4,-6,1,-2,-3,-3
13:03:17:98862,-27,-4,4,-6,1,-2,-3,-3
13:03:17:99639,25,1,3,2,0,-2,-2,5
13:03:17:121967,12,-1,4,3,0,8,17,3
13:03:17:122786,12,-1,4,3,0,8,17,3
13:03:17:123581,19,23,6,-1,1,-3,-5,3
13:03:17:128119,-5,-21,16,6,0,-5,-30,-41
13:03:17:135648,-5,-21,16,6,0,-5,-30,-41
13:03:17:143097,0,-23,4,2,0,1,24,51
13:03:17:150593,-24,10,-11,-2,-3,-4,4,7
13:03:17:158870,-24,10,-11,-2,-3,-4,4,7
13:03:17:159642,-9,13,6,7,-3,1,-7,8
13:03:17:173830,3,-24,-2,-2,1,1,-3,-7
13:03:17:174642,3,-24,-2,-2,1,1,-3,-7
13:03:17:180594,-7,-5,-7,-7,-2,-4,-4,-14
13:03:17:188096,14,9,-1,0,-1,5,7,-8
13:03:17:195678,14,9,-1,0,-1,5,7,-8
13:03:17:203134,-23,-44,-11,-7,0,3,2,-13
13:03:17:210635,-10,-3,4,-2,0,-5,-7,-8
13:03:17:218904,-10,-3,4,-2,0,-5,-7,-8
13:03:17:219636,-7,9,-1,1,2,4,-3,-16
13:03:17:233842,0,2,-11,-5,-1,-3,-4,0
13:03:17:234641,0,2,-11,-5,-1,-3,-4,0
13:03:17:240657,18,2,5,-2,0,1,8,-11
13:03:17:248132,5,-10,9,6,2,1,-2,5
13:03:17:255741,5,-10,9,6,2,1,-2,5
13:03:17:263133,-3,12,-3,2,-5,-8,-9,-4
13:03:17:279497,3,25,-2,-9,-4,1,8,4
13:03:17:280320,3,25,-2,-9,-4,1,8,4
13:03:17:281141,-15,-31,2,0,-2,-5,-18,-9
13:03:17:293823,1,5,1,1,-1,-2,-10,5
13:03:17:294631,1,5,1,1,-1,-2,-10,5
13:03:17:300626,-1,20,-2,-7,-1,-2,-3,9
13:03:17:308130,6,5,5,1,-2,0,7,-1
13:03:17:315719,6,5,5,1,-2,0,7,-1
13:03:17:323135,11,12,12,6,1,0,4,5
13:03:17:330637,-1,5,3,4,-1,-3,0,2
13:03:17:338806,-1,5,3,4,-1,-3,0,2
13:03:17:339626,3,25,-7,-5,-1,-3,1,-6
13:03:17:353805,3,15,-1,-2,3,0,1,-11
13:03:17:354632,3,15,-1,-2,3,0,1,-11
13:03:17:360637,6,-2,-2,-4,-1,0,-8,-12
13:03:17:368130,-4,-25,-8,-3,-3,-3,0,5
13:03:17:375655,-4,-25,-8,-3,-3,-3,0,5
13:03:17:383157,-9,-1,-6,0,0,2,8,14
13:03:17:390625,5,-3,11,4,0,-1,0,-3
13:03:17:398795,5,-3,11,4,0,-1,0,-3
13:03:17:399618,-28,-7,3,-1,-2,-4,-4,2
13:03:17:413770,1,15,-4,1,1,-1,-4,-4
13:03:17:414630,1,15,-4,1,1,-1,-4,-4
13:03:17:420666,9,10,-1,4,2,0,8,7
13:03:17:428155,-7,4,1,-1,-1,-2,6,-6
13:03:17:435639,-7,4,1,-1,-1,-2,6,-6
13:03:17:443082,0,-14,4,-3,-2,-4,-2,-11
13:03:17:450610,3,-2,-11,-13,-3,-8,-10,9
13:03:17:458860,3,-2,-11,-13,-3,-8,-10,9
13:03:17:459601,2,20,-5,-4,-1,2,8,-14
13:03:17:473817,-16,-3,7,3,-4,4,3,3
13:03:17:474653,-16,-3,7,3,-4,4,3,3
13:03:17:480604,22,2,0,3,2,1,-4,-1
13:03:17:488108,-9,-17,-10,-6,-2,-3,-9,-1
13:03:17:495685,-9,-17,-10,-6,-2,-3,-9,-1
13:03:17:503117,-8,5,-7,-2,2,2,-4,-10
13:03:17:510615,-4,-33,-21,-6,0,1,23,14
13:03:17:518864,-4,-33,-21,-6,0,1,23,14
13:03:17:519653,-1,-14,-1,3,-2,1,7,13
13:03:17:533780,3,13,6,3,0,-3,-4,13
13:03:17:534637,3,13,6,3,0,-3,-4,13
13:03:17:540618,9,-10,-8,-2,-1,-1,-2,5
13:03:17:548132,24,16,6,2,-2,3,4,2
13:03:17:555680,24,16,6,2,-2,3,4,2
13:03:17:563124,6,-18,-2,1,-4,-3,0,25
13:03:17:570635,-1,-3,-3,-3,-1,-1,-16,-1
13:03:17:578853,-1,-3,-3,-3,-1,-1,-16,-1
13:03:17:579652,5,-11,-2,-6,-2,7,23,-4
13:03:17:593825,-25,-2,3,1,0,-3,-3,-11
13:03:17:594670,-25,-2,3,1,0,-3,-3,-11
13:03:17:600607,7,9,-12,2,-1,-6,-13,-3
13:03:17:608123,10,5,-3,2,3,5,21,-4
13:03:17:615682,10,5,-3,2,3,5,21,-4
13:03:17:623122,-12,-43,-2,-2,1,-3,-5,-7
13:03:17:630616,-1,18,7,3,-3,-3,-7,10
13:03:17:638796,-1,18,7,3,-3,-3,-7,10
13:03:17:639596,-5,-3,5,0,2,-2,-9,9
13:03:17:653778,5,-20,-4,-4,-3,-1,-5,3
13:03:17:654614,5,-20,-4,-4,-3,-1,-5,3
13:03:17:660618,3,28,6,4,0,2,7,13
13:03:17:684462,0,-4,4,-2,-1,-2,2,-1
13:03:17:685261,0,-4,4,-2,-1,-2,2,-1
13:03:17:686085,-16,-23,0,-5,-5,-5,-14,-4
13:03:17:690577,-9,13,3,2,1,5,14,2
13:03:17:698182,-9,13,3,2,1,5,14,2
13:03:17:714492,7,24,-3,-8,1,0,5,-35
13:03:17:715260,6,2,6,4,-2,-3,-14,-5
13:03:17:716089,6,2,6,4,-2,-3,-14,-5
13:03:17:720591,-12,20,4,2,-4,1,6,-3
13:03:17:736360,3,-22,-6,0,5,-4,-13,-3
13:03:17:737117,3,-22,-6,0,5,-4,-13,-3
13:03:17:743110,3,1,-3,-7,-1,-4,-20,-2
13:03:17:750559,19,-12,-6,-8,-1,4,18,-7
13:03:17:758155,19,-12,-6,-8,-1,4,18,-7
13:03:17:765627,17,16,4,4,0,-3,-12,13
13:03:17:773828,-3,12,2,-8,1,2,7,-14
13:03:17:774678,-3,12,2,-8,1,2,7,-14
13:03:17:780599,-15,-18,-3,0,-1,0,1,1
13:03:17:804474,-5,8,-8,-5,-2,-1,3,1
13:03:17:805273,-5,8,-8,-5,-2,-1,3,1
13:03:17:806092,13,8,1,6,0,6,13,-2
13:03:17:810633,4,7,8,6,-2,0,1,10
13:03:17:818150,4,7,8,6,-2,0,1,10
13:03:17:825583,2,-10,-8,2,-1,-2,-5,-8
13:03:17:833796,-2,7,2,-4,-1,-6,-17,1
13:03:17:834619,-2,7,2,-4,-1,-6,-17,1
13:03:17:840597,13,-24,-8,-6,-1,-7,-20,-8
13:03:17:856343,-3,1,3,5,1,6,16,17
13:03:17:857117,-3,1,3,5,1,6,16,17
13:03:17:863073,-16,1,-2,-4,-3,-1,4,-28
13:03:17:870585,-37,-20,-10,-5,-3,-6,-25,-35
13:03:17:878153,-37,-20,-10,-5,-3,-6,-25,-35
13:03:17:885614,-4,5,11,-5,1,-2,4,-22
13:03:17:893798,5,13,3,7,0,1,-3,-10
13:03:17:894643,5,13,3,7,0,1,-3,-10
13:03:17:900603,-2,3,-4,3,0,3,2,19
13:03:17:916321,14,20,-13,-8,-5,-6,-15,-4
13:03:17:917110,14,20,-13,-8,-5,-6,-15,-4
13:03:17:923126,-8,-10,-1,2,-2,-4,2,8
13:03:17:930613,1,7,3,6,-1,-1,-2,13
13:03:17:938182,1,7,3,6,-1,-1,-2,13
13:03:17:945651,-3,-28,-5,-15,0,-6,-3,-19
13:03:17:953881,-7,-20,-2,-3,1,-3,-8,-24
13:03:17:954642,-7,-20,-2,-3,1,-3,-8,-24
13:03:17:960657,-2,23,-1,7,-1,1,6,9
13:03:17:976372,13,-23,-5,-7,-4,-5,-5,12
13:03:17:977130,13,-23,-5,-7,-4,-5,-5,12
13:03:17:983098,-4,18,-14,-8,-1,1,16,-1
13:03:17:990597,9,3,3,-2,0,0,-6,8
13:03:17:998208,9,3,3,-2,0,0,-6,8
13:03:18:5633,8,2,2,4,1,4,-2,11
13:03:18:13786,-12,-14,2,1,-1,-1,-18,-23
13:03:18:14587,-12,-14,2,1,-1,-1,-18,-23
13:03:18:20650,18,-11,3,0,-1,-1,11,10
13:03:18:36337,-8,-11,-6,-3,-3,-7,-9,-14
13:03:18:37144,-8,-11,-6,-3,-3,-7,-9,-14
13:03:18:43152,4,11,1,4,-5,-6,-8,21
13:03:18:50634,9,20,-4,-5,-5,3,15,-1
13:03:18:58138,9,20,-4,-5,-5,3,15,-1
13:03:18:65646,2,15,0,3,-1,3,3,-13
13:03:18:73795,-16,6,-4,-1,-2,-2,20,-4
13:03:18:74618,-16,6,-4,-1,-2,-2,20,-4
13:03:18:80563,-4,0,5,-3,0,-2,0,12
13:03:18:96277,-19,-33,0,5,-3,-5,-19,-8
13:03:18:97095,-19,-33,0,5,-3,-5,-19,-8
13:03:18:103147,-5,-13,8,2,4,0,-1,23
13:03:18:110621,10,-35,1,4,2,2,-9,-15
13:03:18:118147,10,-35,1,4,2,2,-9,-15
13:03:18:125592,9,18,-3,-6,-5,-5,-10,-6
13:03:18:133844,-1,9,6,4,4,6,10,9
13:03:18:134593,-1,9,6,4,4,6,10,9
13:03:18:140636,-3,-1,-4,4,1,3,17,-9
13:03:18:156281,-3,37,-2,-3,-2,0,6,8
13:03:18:157097,-3,37,-2,-3,-2,0,6,8
13:03:18:163094,-8,-8,-8,1,2,0,-1,0
13:03:18:170608,0,18,-1,-7,-1,-4,4,2
13:03:18:178166,0,18,-1,-7,-1,-4,4,2
13:03:18:185615,-27,-4,-1,-3,-3,-5,-22,-25
13:03:18:193804,-4,14,0,-2,-1,-6,-16,-5
13:03:18:194636,-4,14,0,-2,-1,-6,-16,-5
13:03:18:200606,0,-9,-2,-8,-2,-6,-9,-12
13:03:18:216327,2,-35,16,7,2,2,-2,8
13:03:18:217137,2,-35,16,7,2,2,-2,8
13:03:18:223128,5,-11,-5,4,0,3,6,15
13:03:18:230626,12,16,6,1,0,2,9,10
13:03:18:238190,12,16,6,1,0,2,9,10
13:03:18:245578,-17,-34,1,2,0,1,4,1
13:03:18:253839,0,9,-5,-2,0,-2,3,7
13:03:18:254627,0,9,-5,-2,0,-2,3,7
13:03:18:260620,-3,33,-4,-1,-1,-3,-5,-2
13:03:18:276973,-3,-18,-2,2,1,2,6,2
13:03:18:277797,-3,-18,-2,2,1,2,6,2
13:03:18:283071,-6,-33,-26,-5,19,4,-4,1
13:03:18:290594,8,8,-7,3,2,0,5,31
13:03:18:298152,8,8,-7,3,2,0,5,31
13:03:18:305623,3,19,-12,-6,-8,-4,0,0
13:03:18:313774,-8,-20,3,4,3,5,4,15
13:03:18:314611,-8,-20,3,4,3,5,4,15
13:03:18:320622,-1,22,1,-12,-13,-7,-13,-21
13:03:18:336345,7,23,8,-1,-4,0,1,-4
13:03:18:337144,7,23,8,-1,-4,0,1,-4
13:03:18:343153,4,-15,16,3,5,7,3,-4
13:03:18:350645,-26,-11,-14,-8,-3,-6,-6,-1
13:03:18:358155,-26,-11,-14,-8,-3,-6,-6,-1
13:03:18:365633,4,-9,-3,-4,-5,-3,-8,-16
13:03:18:373806,-4,-16,-10,-8,-5,-2,-2,10
13:03:18:374635,-4,-16,-10,-8,-5,-2,-2,10
13:03:18:380594,-11,-23,12,2,-5,2,10,22
13:03:18:396288,3,-11,16,5,-5,-1,-5,-19
13:03:18:397112,3,-11,16,5,-5,-1,-5,-19
13:03:18:403137,0,21,-2,12,-2,1,6,11
13:03:18:410660,-1,25,4,-4,-1,-3,-4,-6
13:03:18:418148,-1,25,4,-4,-1,-3,-4,-6
13:03:18:434449,-1,-25,13,1,10,4,7,18
13:03:18:435247,-1,-8,5,-1,7,3,-7,-32
13:03:18:436101,-1,-8,5,-1,7,3,-7,-32
13:03:18:440613,18,3,24,6,-1,-2,-2,-5
13:03:18:456279,-3,-4,0,-12,-4,-4,2,5
13:03:18:457119,-3,-4,0,-12,-4,-4,2,5
13:03:18:463120,-16,37,-17,-5,-11,-7,-7,-7
13:03:18:470622,10,26,8,10,6,7,3,1
13:03:18:478199,10,26,8,10,6,7,3,1
13:03:18:485622,-1,12,4,-8,-2,-3,-5,-4
13:03:18:493814,-2,-6,-12,-2,-2,-2,-4,-11
13:03:18:494638,-2,-6,-12,-2,-2,-2,-4,-11
13:03:18:500620,-17,-8,-36,-5,-6,-2,-12,-24
13:03:18:516310,3,-24,-8,-3,-1,-2,5,6
13:03:18:517130,3,-24,-8,-3,-1,-2,5,6
13:03:18:523097,4,15,-3,-8,-4,-4,-3,-7
13:03:18:530604,-6,7,-10,-6,-3,-3,0,4
13:03:18:538162,-6,7,-10,-6,-3,-3,0,4
13:03:18:545629,6,20,62,5,0,3,2,24
13:03:18:553829,5,-24,30,11,-8,-2,0,2
13:03:18:554651,5,-24,30,11,-8,-2,0,2
13:03:18:560612,-5,-41,-2,6,-2,0,0,-3
13:03:18:576308,-11,-28,-20,-1,-4,-6,-4,2
13:03:18:577125,-11,-28,-20,-1,-4,-6,-4,2
13:03:18:583107,2,22,-1,6,6,2,-2,-6
13:03:18:598829,10,8,-4,-5,1,-3,-3,3
13:03:18:599596,10,8,-4,-5,1,-3,-3,3
13:03:18:605590,-34,-88,-33,-3,1,3,0,-11
13:03:18:613822,0,-1,1,-1,1,3,-2,3
13:03:18:614743,0,-1,1,-1,1,3,-2,3
13:03:18:628149,22,40,-29,-15,-5,-5,1,7
13:03:18:636300,-4,35,-8,2,3,1,2,2
13:03:18:637124,-4,35,-8,2,3,1,2,2
13:03:18:643101,2,-8,10,-4,-8,-2,0,-11
13:03:18:658824,0,-6,-29,-3,3,1,-1,-2
13:03:18:659615,0,-6,-29,-3,3,1,-1,-2
13:03:18:674457,-3,-77,-18,-4,-1,-2,-3,0
13:03:18:675199,-31,-28,-12,1,4,-1,-1,-9
13:03:18:676054,-31,-28,-12,1,4,-1,-1,-9
13:03:18:688110,4,22,22,16,6,1,-2,1
13:03:18:696334,13,27,10,0,1,2,3,5
13:03:18:697145,13,27,10,0,1,2,3,5
13:03:18:710623,5,17,25,0,9,6,6,10
13:03:18:718822,-6,9,5,-10,-12,-9,-4,-3
13:03:18:719628,-6,9,5,-10,-12,-9,-4,-3
13:03:18:725614,13,34,0,-2,0,0,-3,-11
13:03:18:733830,-4,22,-37,-26,-10,-8,-4,-5
13:03:18:734646,-4,22,-37,-26,-10,-8,-4,-5
13:03:18:748120,-7,2,-5,6,4,-1,-5,-2
13:03:18:756320,4,5,6,-2,-2,0,-4,-4
13:03:18:757168,4,5,6,-2,-2,0,-4,-4
13:03:18:763124,-13,-11,-10,4,-2,1,3,2
13:03:18:778810,4,-3,13,6,0,-4,-2,-2
13:03:18:779648,4,-3,13,6,0,-4,-2,-2
13:03:18:785644,9,15,16,6,-1,1,4,16
13:03:18:801316,-5,-4,7,13,10,2,2,-6
13:03:18:802116,-5,-4,7,13,10,2,2,-6
13:03:18:808086,1,0,-14,-2,-5,-4,-1,-1
13:03:18:816300,7,-12,-7,5,-3,2,3,14
13:03:18:817170,7,-12,-7,5,-3,2,3,14
13:03:18:823148,-4,-8,2,-1,1,-1,-2,-9
13:03:18:839277,-15,-14,-14,-4,4,-3,-7,-11
13:03:18:840107,-15,-14,-14,-4,4,-3,-7,-11
13:03:18:845582,11,10,3,-3,-5,-2,1,9
13:03:18:853793,-13,33,14,-7,0,0,1,-5
13:03:18:854623,-13,33,14,-7,0,0,1,-5
13:03:18:876980,-7,-23,5,-4,2,1,-1,0
13:03:18:877734,15,13,11,5,-3,1,6,12
13:03:18:878604,15,13,11,5,-3,1,6,12
13:03:18:890651,1,-1,2,-4,-3,-3,-4,5
13:03:18:898855,1,-1,2,-4,-3,-3,-4,5
13:03:18:899633,-5,-16,-8,-7,-4,-2,-3,-12
13:03:18:905641,-18,2,-6,-8,-5,-5,-4,-15
13:03:18:921350,-18,2,-6,-8,-5,-5,-4,-15
13:03:18:922155,1,-18,1,6,-2,0,1,-3
13:03:18:928151,-28,-23,-71,-10,-3,-4,-3,0
13:03:18:936299,-28,-23,-71,-10,-3,-4,-3,0
13:03:18:937120,2,-17,14,5,-3,2,-7,-4
13:03:18:943156,-11,-21,-23,-9,-3,-4,-9,-20
13:03:18:958871,-11,-21,-23,-9,-3,-4,-9,-20
13:03:18:959668,13,-14,-18,0,-5,-2,5,14
13:03:18:965611,17,16,24,3,3,3,10,15
13:03:18:981340,17,16,24,3,3,3,10,15
13:03:18:982141,-6,10,6,-2,0,0,-2,4
13:03:18:988124,8,18,23,-2,4,-1,2,-2
13:03:18:996337,8,18,23,-2,4,-1,2,-2
13:03:18:997149,5,-12,0,12,6,2,-1,7
13:03:19:3116,10,13,12,8,-1,-3,-7,4
13:03:19:18856,10,13,12,8,-1,-3,-7,4
13:03:19:19640,-1,12,6,-2,-5,-4,-5,-9
13:03:19:25610,4,10,19,-4,-2,-1,7,-4
13:03:19:41322,4,10,19,-4,-2,-1,7,-4
13:03:19:42122,-1,14,1,-2,-3,-3,-4,-4
13:03:19:48103,-4,-7,1,2,-1,-1,4,15
13:03:19:56313,-4,-7,1,2,-1,-1,4,15
13:03:19:57140,-9,11,-5,-7,5,0,-2,-9
13:03:19:63132,11,18,19,6,-4,2,-1,0
13:03:19:78894,11,18,19,6,-4,2,-1,0
13:03:19:79647,1,-18,-3,-5,7,1,0,-4
13:03:19:85624,-4,-12,-8,-5,1,-4,-5,-6
13:03:19:101310,-4,-12,-8,-5,1,-4,-5,-6
13:03:19:102127,1,-9,-3,-3,-7,-2,2,4
13:03:19:108092,-8,-5,-3,4,-2,0,4,2
13:03:19:116345,-8,-5,-3,4,-2,0,4,2
13:03:19:117118,-4,-35,-5,-5,0,-5,-7,-11
13:03:19:123101,-13,-4,-5,0,0,-2,-7,-4
13:03:19:138808,-13,-4,-5,0,0,-2,-7,-4
13:03:19:139630,15,19,-7,-2,-7,-4,3,17
13:03:19:145616,-5,17,-3,-3,-3,-2,-8,-18
13:03:19:161320,-5,17,-3,-3,-3,-2,-8,-18
13:03:19:162093,-8,-31,-7,1,1,3,0,-4
13:03:19:168094,9,13,-3,-5,6,2,-1,-11
13:03:19:176358,9,13,-3,-5,6,2,-1,-11
13:03:19:177133,-6,0,-5,-11,-3,-2,-4,-10
13:03:19:183126,4,-15,9,9,3,3,6,15
13:03:19:198822,4,-15,9,9,3,3,6,15
13:03:19:199656,6,32,-8,5,-1,2,2,1
13:03:19:205603,-5,-15,-16,0,-1,0,-3,-3
13:03:19:221312,-5,-15,-16,0,-1,0,-3,-3
13:03:19:222113,3,-6,4,2,-2,0,-3,-4
13:03:19:228151,-13,-28,-9,-9,-3,-9,-7,-9
13:03:19:236308,-13,-28,-9,-9,-3,-9,-7,-9
13:03:19:237084,-5,2,-4,-5,-4,-3,-2,-2
13:03:19:243187,4,-5,10,-1,-2,2,2,-3
13:03:19:258806,4,-5,10,-1,-2,2,2,-3
13:03:19:259630,1,15,18,-3,-1,-1,1,-5
13:03:19:265636,10,3,-6,3,-4,-1,1,12
13:03:19:281286,10,3,-6,3,-4,-1,1,12
13:03:19:282106,15,35,7,1,-2,1,2,10
13:03:19:288151,-8,4,-9,-4,-5,0,-2,-10
13:03:19:296347,-8,4,-9,-4,-5,0,-2,-10
13:03:19:297118,-10,2,-2,-4,1,-4,-6,-6
13:03:19:303145,-1,17,4,-8,-5,-5,-3,2
13:03:19:318824,-1,17,4,-8,-5,-5,-3,2
13:03:19:319607,-22,-46,-25,-5,-4,-3,-2,-10
13:03:19:325692,-3,3,-12,-1,1,1,-1,6
13:03:19:341421,-3,3,-12,-1,1,1,-1,6
13:03:19:342149,22,22,9,9,1,0,5,19
13:03:19:348141,2,6,1,2,-2,-1,1,-4
13:03:19:356299,2,6,1,2,-2,-1,1,-4
13:03:19:357099,-3,-2,-3,-5,2,-4,0,-1
13:03:19:363132,11,22,12,9,5,10,-5,3
13:03:19:378884,11,22,12,9,5,10,-5,3
13:03:19:379654,-7,21,6,-3,-4,2,1,-9
13:03:19:385645,-11,-46,-4,1,9,-5,-1,3
13:03:19:401349,-11,-46,-4,1,9,-5,-1,3
13:03:19:402177,-10,-7,4,2,1,0,-6,-9
13:03:19:408106,-10,-21,20,2,-2,1,6,2
13:03:19:416327,-10,-21,20,2,-2,1,6,2
13:03:19:417162,6,4,-3,-5,-7,-2,6,7
13:03:19:423133,5,17,6,-2,6,2,-5,5
13:03:19:438846,5,17,6,-2,6,2,-5,5
13:03:19:439623,18,-40,28,17,5,7,5,11
13:03:19:445619,5,1,-10,-5,-6,-6,-9,-5
13:03:19:461380,5,1,-10,-5,-6,-6,-9,-5
13:03:19:462142,-6,5,-11,4,7,9,7,6
13:03:19:468118,-1,5,-14,-1,-6,1,2,6
13:03:19:476386,-1,5,-14,-1,-6,1,2,6
13:03:19:477174,18,36,-14,6,-6,2,12,33
13:03:19:483107,-88,-87,-28,-13,5,1,-23,-44
13:03:19:498854,-88,-87,-28,-13,5,1,-23,-44
13:03:19:499621,-35,59,-21,-26,-24,-10,-21,-27
13:03:19:505600,31,39,5,11,10,9,18,24
13:03:19:521327,31,39,5,11,10,9,18,24
13:03:19:522099,32,-3,9,21,-5,4,44,69
13:03:19:528112,-26,-63,2,-14,-18,-19,-20,-34
13:03:19:536342,-26,-63,2,-14,-18,-19,-20,-34
13:03:19:537166,11,-54,27,11,21,6,-5,-8
13:03:19:550635,10,16,3,-4,-9,-5,10,18
13:03:19:558829,10,16,3,-4,-9,-5,10,18
13:03:19:559632,-15,-5,-14,-28,-7,-16,-24,-43
13:03:19:565592,18,59,7,-5,-9,-14,-8,-12
13:03:19:581333,18,59,7,-5,-9,-14,-8,-12
13:03:19:582109,-1,-21,-43,-13,-10,-7,-6,-2
13:03:19:588092,6,-22,-2,12,15,15,0,-3
13:03:19:596341,6,-22,-2,12,15,15,0,-3
13:03:19:597141,1,-1,32,20,26,12,9,-5
13:03:19:610579,16,10,-4,-2,-22,-5,6,18
13:03:19:618820,16,10,-4,-2,-22,-5,6,18
13:03:19:619636,1,-15,3,-2,-4,1,-10,-10
13:03:19:625597,13,36,8,-4,-7,-6,-1,-2
13:03:19:641327,13,36,8,-4,-7,-6,-1,-2
13:03:19:642110,-21,19,-11,-5,-2,-9,-5,8
13:03:19:648082,1,-24,-2,-3,1,-2,-2,-5
13:03:19:656322,1,-24,-2,-3,1,-2,-2,-5
13:03:19:657138,-9,-2,11,4,-5,-9,-6,-5
13:03:19:670661,9,-11,5,0,4,5,6,5
13:03:19:678884,9,-11,5,0,4,5,6,5
13:03:19:679630,-1,24,10,1,-4,-1,-4,-13
13:03:19:685570,-6,-3,-1,2,19,44,-1,-8
13:03:19:709493,-6,-3,-1,2,19,44,-1,-8
13:03:19:710301,-7,-28,18,-3,3,9,2,-8
13:03:19:711127,-11,4,1,-11,-12,-20,-2,6
13:03:19:716345,-11,4,1,-11,-12,-20,-2,6
13:03:19:717192,-2,-56,-5,-2,4,5,-13,-19
13:03:19:730648,-4,-1,-21,-5,-3,-7,-2,-6
13:03:19:738864,-4,-1,-21,-5,-3,-7,-2,-6
13:03:19:739634,13,15,-34,-3,-7,-10,0,11
13:03:19:745618,0,22,-1,-3,9,6,-1,-1
13:03:19:761348,0,22,-1,-3,9,6,-1,-1
13:03:19:762136,-17,7,32,-3,-8,-3,3,9
13:03:19:768132,7,12,2,4,-8,-8,6,8
13:03:19:783838,7,12,2,4,-8,-8,6,8
13:03:19:784625,-23,-13,-4,-7,22,13,-9,-14
13:03:19:790587,2,-36,6,10,7,5,19,-3
13:03:19:798857,2,-36,6,10,7,5,19,-3
13:03:19:799639,13,-54,-14,6,-11,-1,8,15
13:03:19:805607,12,22,-10,0,-3,-9,-8,-7
13:03:19:821306,12,22,-10,0,-3,-9,-8,-7
13:03:19:822134,11,10,-7,-18,-28,-11,-5,-10
13:03:19:828107,-2,4,2,11,8,9,-1,-3
13:03:19:836363,-2,4,2,11,8,9,-1,-3
13:03:19:837130,-7,41,-22,-7,-5,-8,-4,-7
13:03:19:850589,4,26,2,3,12,3,-1,5
13:03:19:858820,4,26,2,3,12,3,-1,5
13:03:19:859632,21,21,-3,13,10,1,7,26
13:03:19:865593,-5,-13,-10,-7,-4,-9,4,-3
13:03:19:873183,-5,-13,-10,-7,-4,-9,4,-3
13:03:19:880642,17,2,2,-2,-2,10,5,7
13:03:19:888155,8,26,-7,-1,-14,-12,-6,12
13:03:19:896340,8,26,-7,-1,-14,-12,-6,12
13:03:19:897141,1,49,12,-5,-13,-12,-5,-10
13:03:19:910597,-11,18,9,3,2,5,0,5
13:03:19:918867,-11,18,9,3,2,5,0,5
13:03:19:919618,-5,-11,-2,-4,13,3,-7,-12
13:03:19:925651,-19,-8,-1,-5,3,-2,-9,-22
13:03:19:933199,-19,-8,-1,-5,3,-2,-9,-22
13:03:19:940594,-24,-50,12,-8,12,-10,-17,-20
13:03:19:948120,-33,-59,6,-15,-17,-25,-15,-9
13:03:19:956307,-33,-59,6,-15,-17,-25,-15,-9
13:03:19:957112,1,14,-5,12,9,4,3,2
13:03:19:970614,13,6,11,11,1,11,-1,8
13:03:19:978851,13,6,11,11,1,11,-1,8
13:03:19:979681,5,5,4,9,8,8,4,6
13:03:19:985624,11,0,3,10,-2,5,4,9
13:03:19:993195,11,0,3,10,-2,5,4,9
13:03:20:650,-4,-2,-16,12,16,15,6,5
13:03:20:8142,4,0,2,-2,2,13,14,3
13:03:20:16333,4,0,2,-2,2,13,14,3
13:03:20:17111,-14,-11,-1,-7,-14,-3,10,1
13:03:20:30629,-30,-49,-14,-37,-12,-27,-7,-16
13:03:20:38811,-30,-49,-14,-37,-12,-27,-7,-16
13:03:20:39632,-1,-2,6,-6,2,-8,-8,-2
13:03:20:45643,14,-2,-7,-7,0,0,17,13
13:03:20:61385,14,-2,-7,-7,0,0,17,13
13:03:20:62176,-24,-46,-6,3,4,1,-7,-17
13:03:20:68106,4,7,1,8,-4,-4,-10,2
13:03:20:76343,4,7,1,8,-4,-4,-10,2
13:03:20:77135,0,24,-1,-2,-12,-9,-6,-14
13:03:20:90613,-16,-21,-2,-4,3,5,5,-8
13:03:20:98783,-16,-21,-2,-4,3,5,5,-8
13:03:20:99614,16,32,3,4,-5,0,4,5
13:03:20:105683,10,32,-6,6,-2,-5,-10,9
13:03:20:113177,10,32,-6,6,-2,-5,-10,9
13:03:20:120589,-17,-28,-3,-15,-3,17,-5,-7
13:03:20:128161,18,30,0,4,2,4,-3,-6
13:03:20:136370,18,30,0,4,2,4,-3,-6
13:03:20:137105,8,-5,-4,-3,-11,-10,-3,12
13:03:20:150645,12,-1,-8,12,20,0,4,19
13:03:20:158828,12,-1,-8,12,20,0,4,19
13:03:20:159588,-1,5,-2,-1,1,1,15,-11
13:03:20:165627,5,22,17,-7,-5,-15,-3,-11
13:03:20:173125,5,22,17,-7,-5,-15,-3,-11
13:03:20:180623,6,17,6,4,0,-2,1,10
13:03:20:188082,5,-30,0,-2,-7,5,-4,-4
13:03:20:196338,5,-30,0,-2,-7,5,-4,-4
13:03:20:197144,10,9,0,1,-2,5,7,3
13:03:20:210645,3,10,-2,1,-4,-1,-11,-11
13:03:20:226997,3,10,-2,1,-4,-1,-11,-11
13:03:20:227772,-18,-10,-9,-12,-16,-19,-11,-5
13:03:20:228584,-4,-9,-1,15,18,1,8,6
13:03:20:233153,-4,-9,-1,15,18,1,8,6
13:03:20:240608,12,-27,-1,3,3,-4,-8,12
13:03:20:248087,-6,35,-4,-6,-15,-4,7,-2
13:03:20:256324,-6,35,-4,-6,-15,-4,7,-2
13:03:20:257111,6,23,5,9,27,5,-17,-12
13:03:20:270632,-18,-11,4,-2,-11,-4,5,2
13:03:20:278816,-18,-11,4,-2,-11,-4,5,2
13:03:20:279594,-37,-37,-8,-6,-9,-16,5,0
13:03:20:285642,0,-2,-15,-1,1,9,-2,-11
13:03:20:293168,0,-2,-15,-1,1,9,-2,-11
13:03:20:300604,8,8,-1,9,-8,-2,3,29
13:03:20:308101,-15,-6,-1,-2,-9,-13,1,-3
13:03:20:316336,-15,-6,-1,-2,-9,-13,1,-3
13:03:20:317166,6,0,-7,5,18,11,-2,-17
13:03:20:339508,0,2,-4,-3,1,8,-5,-1
13:03:20:340278,0,2,-4,-3,1,8,-5,-1
13:03:20:341077,11,4,1,-10,-4,3,3,9
13:03:20:345648,0,4,3,1,5,12,28,21
13:03:20:353217,0,4,3,1,5,12,28,21
13:03:20:360605,-7,38,2,-4,-6,-4,9,10
13:03:20:368105,-2,17,4,-3,-12,-10,-1,7
13:03:20:376325,-2,17,4,-3,-12,-10,-1,7
13:03:20:377115,11,4,4,3,7,16,-9,-4
13:03:20:390721,-2,-16,-3,-3,-11,-4,-23,-5
13:03:20:398856,-2,-16,-3,-3,-11,-4,-23,-5
13:03:20:399634,-1,-11,7,12,-1,-7,-4,-3
13:03:20:405646,10,14,6,0,3,23,-11,-13
13:03:20:413176,10,14,6,0,3,23,-11,-13
13:03:20:420621,-3,15,2,-5,-11,-13,0,-17
13:03:20:428096,21,-18,1,5,14,12,-5,-4
13:03:20:436349,21,-18,1,5,14,12,-5,-4
13:03:20:437130,-4,-2,-1,-10,-9,7,11,14
13:03:20:451075,11,-21,-7,-4,3,-8,-11,3
13:03:20:458833,11,-21,-7,-4,3,-8,-11,3
13:03:20:459606,-41,-112,-16,-17,-4,-8,-18,-23
13:03:20:465593,4,5,-9,0,13,0,0,2
13:03:20:473171,4,5,-9,0,13,0,0,2
13:03:20:480594,8,11,10,-2,-13,-10,11,-8
13:03:20:488077,-10,-3,-2,-2,-7,-23,-21,-7
13:03:20:495669,-10,-3,-2,-2,-7,-23,-21,-7
13:03:20:503095,6,46,10,8,9,9,1,4
13:03:20:510643,-18,-3,-3,-17,-22,0,1,5
13:03:20:518811,-18,-3,-3,-17,-22,0,1,5
13:03:20:519620,25,17,-15,-7,-7,-8,-5,27
13:03:20:533823,-13,21,5,-2,7,-4,3,-16
13:03:20:534662,-13,21,5,-2,7,-4,3,-16
13:03:20:540672,4,24,0,1,1,0,6,-8
13:03:20:548144,-4,-5,1,4,-12,-12,17,30
13:03:20:555655,-4,-5,1,4,-12,-12,17,30
13:03:20:563150,-18,-59,-13,-17,-9,-11,-19,-31
13:03:20:570629,4,0,-2,8,5,-9,4,4
13:03:20:578821,4,0,-2,8,5,-9,4,4
13:03:20:579638,7,35,6,4,1,6,4,7
13:03:20:594272,9,31,-7,-7,-2,-6,0,-13
13:03:20:601332,9,31,-7,-7,-2,-6,0,-13
13:03:20:602102,-20,-22,4,17,8,-1,-6,-1
13:03:20:608159,19,17,1,15,23,14,2,20
13:03:20:615692,19,17,1,15,23,14,2,20
13:03:20:623106,7,7,-5,-2,7,8,13,-7
13:03:20:630585,-1,38,3,-14,-20,-13,-2,-4
13:03:20:638845,-1,38,3,-14,-20,-13,-2,-4
13:03:20:639618,1,-1,5,5,9,-3,-4,2
13:03:20:653792,-6,-19,1,-3,-6,10,1,-1
13:03:20:654607,-6,-19,1,-3,-6,10,1,-1
13:03:20:660632,8,10,-11,-5,-12,-11,-4,2
13:03:20:668130,-3,-15,5,3,-1,-1,-1,7
13:03:20:683847,-3,-15,5,3,-1,-1,-1,7
13:03:20:684611,-6,-4,7,-7,-10,-13,1,7
13:03:20:690583,-6,-26,11,12,6,13,6,10
13:03:20:698834,-6,-26,11,12,6,13,6,10
13:03:20:699611,10,6,4,-2,-13,-18,-20,-1
13:03:20:713829,14,22,7,-2,13,35,58,-4
13:03:20:714621,14,22,7,-2,13,35,58,-4
13:03:20:720591,14,14,-1,8,8,12,14,7
13:03:20:728062,-4,-24,-3,0,-7,-10,-22,-8
13:03:20:735676,-4,-24,-3,0,-7,-10,-22,-8
13:03:20:743164,-5,18,5,5,18,15,-6,-5
13:03:20:750601,-8,-29,0,1,14,-15,-14,-3
13:03:20:766353,-8,-29,0,1,14,-15,-14,-3
13:03:20:767142,-11,-33,-5,-3,12,13,-6,-7
13:03:20:773807,-8,-30,-18,-5,1,-4,-4,-1
13:03:20:774621,-8,-30,-18,-5,1,-4,-4,-1
13:03:20:780630,-23,-15,-14,-20,-18,-14,-3,-8
13:03:20:788122,-13,-1,2,1,3,-5,-18,-15
13:03:20:795683,-13,-1,2,1,3,-5,-18,-15
13:03:20:803145,7,4,12,-2,-13,-8,1,8
13:03:20:810624,-17,-20,4,-9,2,-6,-12,-4
13:03:20:818871,-17,-20,4,-9,2,-6,-12,-4
13:03:20:819651,8,-4,-2,5,10,9,10,4
13:03:20:833883,0,4,-4,5,7,-2,-4,-6
13:03:20:834622,0,4,-4,5,7,-2,-4,-6
13:03:20:840589,-39,-43,-4,-12,-10,-16,-5,-20
13:03:20:848138,8,33,-2,-4,-2,-2,-3,-2
13:03:20:855797,8,33,-2,-4,-2,-2,-3,-2
13:03:20:863142,18,18,-9,1,-11,-3,2,4
13:03:20:879498,5,52,12,-2,6,-16,-4,-12
13:03:20:880277,5,52,12,-2,6,-16,-4,-12
13:03:20:881099,13,26,-8,2,-1,12,9,13
13:03:20:893821,3,-15,-5,-3,-14,-1,0,3
13:03:20:894618,3,-15,-5,-3,-14,-1,0,3
13:03:20:900601,-15,-29,-10,-9,-4,-11,-9,-33
13:03:20:908130,-9,-13,-8,-8,-6,1,2,-1
13:03:20:915662,-9,-13,-8,-8,-6,1,2,-1
13:03:20:923093,-10,-48,9,3,-5,5,0,5
13:03:20:930614,5,2,13,-1,-1,6,5,16
13:03:20:938869,5,2,13,-1,-1,6,5,16
13:03:20:939640,12,0,-1,10,19,17,2,5
13:03:20:953835,-11,-9,-26,-2,-9,3,2,3
13:03:20:954627,-11,-9,-26,-2,-9,3,2,3
13:03:20:960610,-21,-16,-1,-6,1,2,0,2
13:03:20:968115,8,22,1,3,-2,1,10,-2
13:03:20:975732,8,22,1,3,-2,1,10,-2
13:03:20:991255,10,57,3,-2,-8,-11,-12,-13
13:03:20:992064,10,23,2,3,-5,-6,-8,-4
13:03:20:998866,10,23,2,3,-5,-6,-8,-4
13:03:20:999644,7,5,-7,-1,24,-4,-3,-12
13:03:21:13819,10,-19,4,1,11,6,7,3
13:03:21:14650,10,-19,4,1,11,6,7,3
13:03:21:20611,-21,-15,22,-4,-12,-10,-4,5
13:03:21:28171,-19,-41,-12,-3,-8,-13,-12,-11
13:03:21:35676,-19,-41,-12,-3,-8,-13,-12,-11
13:03:21:43142,12,-33,5,7,9,6,-3,1
13:03:21:50605,-7,-14,-5,-7,-10,-7,-3,0
13:03:21:58914,-7,-14,-5,-7,-10,-7,-3,0
13:03:21:59661,24,41,-7,7,5,15,3,4
13:03:21:73832,11,13,6,2,11,-3,-5,3
13:03:21:74665,11,13,6,2,11,-3,-5,3
13:03:21:80650,6,1,-10,4,1,-3,1,0
13:03:21:88151,-5,1,-2,0,-3,4,-4,3
13:03:21:95693,-5,1,-2,0,-3,4,-4,3
13:03:21:103130,-10,-9,-11,-5,3,3,2,5
13:03:21:110629,3,-17,-4,-1,-1,4,-9,1
13:03:21:118802,3,-17,-4,-1,-1,4,-9,1
13:03:21:119623,3,14,-3,7,-3,8,5,-5
13:03:21:133804,-6,-5,-2,3,18,32,-14,-17
13:03:21:134589,-6,-5,-2,3,18,32,-14,-17
13:03:21:140656,-5,17,4,0,8,-9,0,4
13:03:21:148128,-1,-14,-8,-4,-11,-8,1,2
13:03:21:155652,-1,-14,-8,-4,-11,-8,1,2
13:03:21:163122,2,-8,-3,-5,-15,-11,2,1
13:03:21:170676,-11,1,-17,-10,-8,-11,3,-3
13:03:21:178797,-11,1,-17,-10,-8,-11,3,-3
13:03:21:179616,6,21,-2,-10,-32,-35,-7,5
13:03:21:193796,-2,-10,7,2,-10,1,9,0
13:03:21:194636,-2,-10,7,2,-10,1,9,0
13:03:21:200576,7,20,-9,1,2,-2,-13,4
13:03:21:208133,-5,-16,-12,-5,1,2,3,-12
13:03:21:215677,-5,-16,-12,-5,1,2,3,-12
13:03:21:223124,-21,-19,-2,0,-1,6,-5,4
13:03:21:230631,0,-6,6,0,5,0,4,5
13:03:21:238883,0,-6,6,0,5,0,4,5
13:03:21:239623,0,0,1,1,3,6,0,-2
13:03:21:253134,5,12,8,4,2,8,1,5
13:03:21:261323,5,12,8,4,2,8,1,5
13:03:21:262141,-2,0,2,-1,3,5,4,17
13:03:21:268132,4,12,-2,-7,-13,-22,-7,3
13:03:21:275693,4,12,-2,-7,-13,-22,-7,3
13:03:21:291277,-7,-12,-4,-4,-14,1,-3,-3
13:03:21:292031,3,21,6,4,8,7,23,-3
13:03:21:298828,3,21,6,4,8,7,23,-3
13:03:21:299633,5,3,3,-5,-7,-3,-3,-18
13:03:21:313124,-6,-64,-10,-4,-11,-11,-14,-3
13:03:21:329496,-6,-64,-10,-4,-11,-11,-14,-3
13:03:21:330289,3,1,7,6,4,12,9,1
13:03:21:331129,7,21,6,7,17,24,-2,-7
13:03:21:343832,7,21,6,7,17,24,-2,-7
13:03:21:344637,-5,4,4,0,4,0,5,-6
13:03:21:350634,-1,12,2,-10,-22,-18,13,10
13:03:21:358841,-1,12,2,-10,-22,-18,13,10
13:03:21:359625,-10,-10,-3,3,3,5,-1,1
13:03:21:373583,12,43,0,3,-3,-2,5,5
13:03:21:381320,12,43,0,3,-3,-2,5,5
13:03:21:382128,4,-22,-3,-3,1,0,0,7
13:03:21:396300,-17,-33,-11,-3,11,-6,-15,-21
13:03:21:397123,-17,-33,-11,-3,11,-6,-15,-21
13:03:21:403134,-8,-7,-7,-5,-5,-6,-7,-8
13:03:21:410613,0,-4,11,4,-10,3,-2,7
13:03:21:418827,0,-4,11,4,-10,3,-2,7
13:03:21:419652,16,4,1,-1,3,-7,5,6
13:03:21:433137,-3,-14,-4,-1,9,-16,-6,6
13:03:21:441774,-3,-14,-4,-1,9,-16,-6,6
13:03:21:448114,-1,22,4,5,10,17,-6,-15
13:03:21:456367,-4,-1,0,-6,-7,-1,-1,3
13:03:21:457185,-4,-1,0,-6,-7,-1,-1,3
13:03:21:463131,1,9,-5,0,0,-7,-6,-12
13:03:21:470614,-5,15,1,-3,1,-7,-6,1
13:03:21:478221,-5,15,1,-3,1,-7,-6,1
13:03:21:485638,-11,-25,-2,-5,-1,-1,4,-1
13:03:21:493143,5,-19,-6,-1,-10,-2,6,6
13:03:21:501324,5,-19,-6,-1,-10,-2,6,6
13:03:21:502073,-2,2,7,-2,-1,1,3,-1
13:03:21:516310,8,24,4,4,4,1,4,-7
13:03:21:517104,8,24,4,4,4,1,4,-7
13:03:21:523145,-5,-29,4,-3,5,-2,6,5
13:03:21:530696,8,1,7,-3,-2,-1,-5,-8
13:03:21:538148,8,1,7,-3,-2,-1,-5,-8
13:03:21:545667,-5,2,-7,-2,-22,-17,-15,4
13:03:21:553144,10,0,-5,3,8,20,13,14
13:03:21:561324,10,0,-5,3,8,20,13,14
13:03:21:562115,-7,-7,-6,-4,2,1,1,-6
13:03:21:576295,1,7,-1,0,-13,-1,-11,-7
13:03:21:577130,1,7,-1,0,-13,-1,-11,-7
13:03:21:583085,9,9,-1,-3,0,-2,-1,0
13:03:21:590645,-14,-15,-3,-6,-7,-6,-6,-10
13:03:21:598189,-14,-15,-3,-6,-7,-6,-6,-10
13:03:21:605598,-2,-6,-5,-8,-25,-10,-6,-1
13:03:21:613091,-3,1,-15,-1,2,1,-6,-2
13:03:21:621338,-3,1,-15,-1,2,1,-6,-2
13:03:21:622116,10,10,6,6,-2,1,6,14
13:03:21:636307,7,23,5,-1,1,10,2,-3
13:03:21:637124,7,23,5,-1,1,10,2,-3
13:03:21:651291,2,10,-6,-3,-14,-11,-1,13
13:03:21:652110,-10,-32,18,-2,3,-11,-3,-1
13:03:21:658171,-10,-32,18,-2,3,-11,-3,-1
13:03:21:665598,5,14,-3,0,7,-6,-7,-15
13:03:21:673126,2,12,5,0,-1,-10,24,-3
13:03:21:681315,2,12,5,0,-1,-10,24,-3
13:03:21:682135,-7,-2,-4,-1,5,-4,2,0
13:03:21:696323,-6,-3,-7,1,-11,-5,-10,-3
13:03:21:697114,-6,-3,-7,1,-11,-5,-10,-3
13:03:21:703075,2,-2,-2,-1,23,15,-5,-15
13:03:21:710615,-20,-21,-3,-5,0,-3,-2,-10
13:03:21:718156,-20,-21,-3,-5,0,-3,-2,-10
13:03:21:725615,5,5,4,1,-3,-1,-1,8
13:03:21:733079,-13,-18,-4,-1,-1,3,-3,-2
13:03:21:741328,-13,-18,-4,-1,-1,3,-3,-2
13:03:21:742114,-11,-6,-1,1,0,6,5,5
13:03:21:756323,5,5,-4,-2,-5,-10,-4,16
13:03:21:757111,5,5,-4,-2,-5,-10,-4,16
13:03:21:763136,1,-6,3,1,3,0,4,-1
13:03:21:770609,7,-9,-4,-1,-6,8,3,4
13:03:21:778176,7,-9,-4,-1,-6,8,3,4
13:03:21:785605,-11,1,-1,-5,13,-8,-11,-22
13:03:21:793121,3,4,-17,-1,-2,-7,-6,-4
13:03:21:801340,3,4,-17,-1,-2,-7,-6,-4
13:03:21:802167,-5,-13,-1,0,-3,9,6,4
13:03:21:816361,0,2,-1,2,28,16,-7,-1
13:03:21:817146,0,2,-1,2,28,16,-7,-1
13:03:21:823129,-5,15,-3,-4,-9,-4,-8,-11
13:03:21:830640,7,20,3,0,-12,11,-1,1
13:03:21:838182,7,20,3,0,-12,11,-1,1
13:03:21:845619,9,19,2,2,2,-2,1,6
13:03:21:853143,5,7,6,0,-5,-7,-8,-12
13:03:21:861311,5,7,6,0,-5,-7,-8,-12
13:03:21:862101,3,-25,-7,1,-3,4,1,10
13:03:21:876389,-7,0,-1,5,11,6,-2,9
13:03:21:877139,-7,0,-1,5,11,6,-2,9
13:03:21:883171,-1,-9,7,-2,12,9,-5,-5
13:03:21:890610,-2,3,5,1,-5,-4,-2,2
13:03:21:898156,-2,3,5,1,-5,-4,-2,2
13:03:21:905624,-5,-7,2,-3,-18,-17,0,-2
13:03:21:913829,0,3,4,1,-7,-16,-3,0
13:03:21:914613,0,3,4,1,-7,-16,-3,0
13:03:21:928123,2,-17,0,-4,-6,-3,5,3
13:03:21:936285,8,2,-9,-3,-2,-2,3,8
13:03:21:937100,8,2,-9,-3,-2,-2,3,8
13:03:21:943166,0,1,-9,-2,-5,-3,-2,2
13:03:21:950612,2,-17,2,1,1,3,4,9
13:03:21:958154,2,-17,2,1,1,3,4,9
13:03:21:965611,4,-4,4,-1,-1,4,4,8
13:03:21:973799,5,32,3,2,-4,6,0,-4
13:03:21:974622,5,32,3,2,-4,6,0,-4
13:03:21:980568,-4,44,3,-3,0,-6,-1,-3
13:03:21:996289,-6,-3,-2,-4,9,4,-9,-1
13:03:21:997101,-6,-3,-2,-4,9,4,-9,-1
13:03:22:3119,3,-8,1,0,-6,15,-5,-5
13:03:22:10578,-9,-1,-5,4,17,10,5,2
13:03:22:18147,-9,-1,-5,4,17,10,5,2
13:03:22:25574,-5,0,-5,2,7,1,-1,-2
13:03:22:33085,3,-18,3,-2,-11,-11,0,-1
13:03:22:41339,3,-18,3,-2,-11,-11,0,-1
13:03:22:42136,3,13,-7,-3,4,6,0,-17
13:03:22:56358,-5,3,-1,-3,-11,-6,-2,-5
13:03:22:57135,-5,3,-1,-3,-11,-6,-2,-5
13:03:22:63106,-10,-13,0,5,-6,-7,9,6
13:03:22:70599,-4,-19,-9,-6,-3,-4,4,-6
13:03:22:78198,-4,-19,-9,-6,-3,-4,4,-6
13:03:22:85673,0,-7,-3,1,-6,1,-5,6
13:03:22:93109,-1,9,-1,-3,-8,-9,-8,-12
13:03:22:101344,-1,9,-1,-3,-8,-9,-8,-12
13:03:22:102162,-2,-13,1,0,-3,-9,3,13
13:03:22:116354,-20,-37,-3,-10,-9,-6,-11,-25
13:03:22:117127,-20,-37,-3,-10,-9,-6,-11,-25
13:03:22:123106,0,-20,2,2,8,6,1,3
13:03:22:130646,-6,9,-14,-6,-5,-2,-11,-16
13:03:22:138226,-6,9,-14,-6,-5,-2,-11,-16
13:03:22:145632,-1,-1,-5,-1,9,-3,-9,-16
13:03:22:153099,11,31,11,3,-1,0,5,7
13:03:22:161308,11,31,11,3,-1,0,5,7
13:03:22:162118,-7,-18,-2,-7,-19,-7,-2,3
13:03:22:176352,-3,12,2,2,11,9,19,3
13:03:22:177147,-3,12,2,2,11,9,19,3
13:03:22:183117,4,4,5,-1,4,4,-1,10
13:03:22:190646,5,10,-3,-4,-10,-24,-11,3
13:03:22:198141,5,10,-3,-4,-10,-24,-11,3
13:03:22:205649,-2,24,-4,1,-4,-7,-6,-1
13:03:22:213771,2,-8,-14,-4,0,-7,-4,6
13:03:22:214596,2,-8,-14,-4,0,-7,-4,6
13:03:22:220578,8,7,-3,2,0,-7,-4,0
13:03:22:236294,-7,-16,1,1,0,5,5,2
13:03:22:237100,-7,-16,1,1,0,5,5,2
13:03:22:243125,-4,-1,0,1,6,-4,4,3
13:03:22:250633,-1,-19,8,3,7,14,-1,1
13:03:22:258157,-1,-19,8,3,7,14,-1,1
13:03:22:265575,9,14,0,-2,-3,-5,14,5
13:03:22:273806,3,15,5,0,13,3,-7,-5
13:03:22:274669,3,15,5,0,13,3,-7,-5
13:03:22:280583,-7,-2,-15,-2,-6,-7,-5,-7
13:03:22:296296,2,8,6,2,-3,1,4,11
13:03:22:297109,2,8,6,2,-3,1,4,11
13:03:22:303092,-18,-17,-1,-2,6,10,1,-7
13:03:22:310586,2,2,-9,1,-4,-6,-10,6
13:03:22:318177,2,2,-9,1,-4,-6,-10,6
13:03:22:325587,4,1,6,-1,3,3,9,2
13:03:22:333825,3,-24,-2,-3,4,0,-2,-6
13:03:22:334627,3,-24,-2,-3,4,0,-2,-6
13:03:22:340617,5,8,7,5,26,21,-10,-16
13:03:22:356319,-1,-14,-6,0,-2,4,3,-1
13:03:22:357107,-1,-14,-6,0,-2,4,3,-1
13:03:22:363119,3,-21,-3,-8,-7,-8,-6,-6
13:03:22:378798,3,9,8,1,-6,-5,6,1
13:03:22:379613,3,9,8,1,-6,-5,6,1
13:03:22:394524,-1,3,-1,3,-4,3,-8,18
13:03:22:395256,-4,-6,4,-3,-15,-2,0,2
13:03:22:396069,-4,-6,4,-3,-15,-2,0,2
13:03:22:408128,-3,-6,1,-3,-3,-2,-7,-6
13:03:22:416249,-4,8,-3,-1,-11,-7,11,5
13:03:22:417110,-4,8,-3,-1,-11,-7,11,5
13:03:22:423129,-10,2,4,-1,-14,-13,-4,-10
13:03:22:438812,-3,16,-2,-4,3,0,-9,-3
13:03:22:439653,-3,16,-2,-4,3,0,-9,-3
13:03:22:445634,5,-1,3,0,3,-13,3,-6
13:03:22:453774,-1,8,-6,0,6,2,-3,-14
13:03:22:454596,-1,8,-6,0,6,2,-3,-14
13:03:22:468105,3,-3,-2,3,-3,0,3,5
13:03:22:476342,1,10,-7,-2,6,7,-2,3
13:03:22:477165,1,10,-7,-2,6,7,-2,3
13:03:22:483116,0,4,-2,-1,1,-1,-8,-6
13:03:22:498805,5,17,3,-3,-17,-14,-7,3
13:03:22:499648,5,17,3,-3,-17,-14,-7,3
13:03:22:505602,3,-3,1,0,11,20,9,15
13:03:22:513882,2,-15,5,6,6,-5,-16,1
13:03:22:514661,2,-15,5,6,6,-5,-16,1
13:03:22:528119,20,25,1,1,-1,5,17,17
13:03:22:536326,-1,-8,8,-1,8,5,-7,-27
13:03:22:537167,-1,-8,8,-1,8,5,-7,-27
13:03:22:543151,-8,3,0,-1,-4,-4,4,-9
13:03:22:558838,-3,-29,-4,0,2,7,15,3
13:03:22:559615,-3,-29,-4,0,2,7,15,3
13:03:22:565622,-6,32,-4,-2,-7,-5,-9,-18
13:03:22:573885,-10,-38,-3,-4,-2,3,-7,-3
13:03:22:574643,-10,-38,-3,-4,-2,3,-7,-3
13:03:22:596985,0,-34,-2,-4,6,4,-4,-4
13:03:22:597746,2,-9,-4,-1,6,-1,4,11
13:03:22:598583,2,-9,-4,-1,6,-1,4,11
13:03:22:603121,-2,-15,1,4,-4,-1,3,5
13:03:22:618806,-7,8,-7,-1,-1,-5,1,4
13:03:22:619647,-7,8,-7,-1,-1,-5,1,4
13:03:22:625626,-4,-7,-6,-1,2,0,-4,0
13:03:22:633771,1,1,1,2,-2,1,-1,7
13:03:22:634613,1,1,1,2,-2,1,-1,7
13:03:22:648168,-11,4,-8,-4,-3,-3,2,4
13:03:22:656288,-5,-1,-3,-4,-1,3,9,-6
13:03:22:657129,-5,-1,-3,-4,-1,3,9,-6
13:03:22:663091,-4,-14,0,1,6,1,-1,4
13:03:22:678825,-4,10,1,2,-13,8,0,1
13:03:22:679614,-4,10,1,2,-13,8,0,1
13:03:22:685638,6,36,3,-5,-8,-6,-5,-2
13:03:22:693792,9,21,-3,4,-3,-11,-6,7
13:03:22:694605,9,21,-3,4,-3,-11,-6,7
13:03:22:708146,-5,-17,1,-2,-4,-8,-1,4
13:03:22:724504,-4,-10,-7,-3,0,0,7,16
13:03:22:725333,-4,-10,-7,-3,0,0,7,16
13:03:22:726101,9,8,0,-3,1,1,-16,-1
13:03:22:738809,-2,-1,2,0,7,5,-6,-5
13:03:22:739621,-2,-1,2,0,7,5,-6,-5
13:03:22:745601,-7,-4,2,-5,-9,-3,-4,-9
13:03:22:753511,-2,-7,-2,-2,10,-16,4,-7
13:03:22:760681,-2,-7,-2,-2,10,-16,4,-7
13:03:22:768136,-3,-3,-10,-2,-5,-10,-11,-13
13:03:22:776352,-3,5,5,-2,12,13,4,-2
13:03:22:777180,-3,5,5,-2,12,13,4,-2
13:03:22:783129,-3,-6,3,-2,4,7,8,1
13:03:22:798832,3,-7,3,-3,-4,-2,-2,0
13:03:22:799650,3,-7,3,-3,-4,-2,-2,0
13:03:22:805623,4,4,8,2,-1,2,4,16
13:03:22:813774,0,8,5,1,8,0,-2,-11
13:03:22:814599,0,8,5,1,8,0,-2,-11
13:03:22:828155,8,11,-1,1,-2,-2,16,-5
13:03:22:836330,8,11,-1,1,-2,-2,16,-5
13:03:22:837126,-6,11,-5,-3,-8,-18,-5,2
13:03:22:843146,-5,-25,-5,1,-1,-4,-10,8
13:03:22:858847,-5,-25,-5,1,-1,-4,-10,8
13:03:22:859634,-2,9,-4,3,1,6,-9,5
13:03:22:865650,-8,-13,-7,-2,-7,2,-3,-13
13:03:22:881981,-8,-13,-7,-2,-7,2,-3,-13
13:03:22:882787,2,-21,3,1,-4,4,11,3
13:03:22:888097,4,11,3,3,-1,-2,1,-5
13:03:22:896352,4,11,3,3,-1,-2,1,-5
13:03:22:897153,-5,-50,-8,-8,-8,5,2,-1
13:03:22:903116,-1,-35,9,-2,-2,-7,2,-4
13:03:22:918832,-1,-35,9,-2,-2,-7,2,-4
13:03:22:919637,9,31,10,-2,-7,-3,-4,-3
13:03:22:925611,0,19,-2,0,2,5,-9,0
13:03:22:941330,0,19,-2,0,2,5,-9,0
13:03:22:942128,-12,-8,3,-6,5,-8,-11,-17
13:03:22:948099,3,19,3,-3,-4,-2,2,6
13:03:22:956351,3,19,3,-3,-4,-2,2,6
13:03:22:957141,-3,-4,-11,4,-1,-14,0,-8
13:03:22:963125,-9,8,-13,-5,-1,-19,-8,-11
13:03:22:978852,-9,8,-13,-5,-1,-19,-8,-11
13:03:22:979628,4,27,-11,3,-3,-4,-2,-1
13:03:22:985621,10,10,-1,6,-3,8,7,25
13:03:23:1363,10,10,-1,6,-3,8,7,25
13:03:23:2100,5,12,14,11,32,25,4,0
13:03:23:8133,0,-1,-20,0,3,1,0,1
13:03:23:16345,0,-1,-20,0,3,1,0,1
13:03:23:17106,8,10,18,-6,-15,-5,-6,-7
13:03:23:23084,-8,-37,-2,-4,-2,3,-4,-9
13:03:23:38806,-8,-37,-2,-4,-2,3,-4,-9
13:03:23:39638,-2,-32,-23,-21,0,0,5,11
13:03:23:45605,-12,8,-5,-6,9,1,-1,6
13:03:23:61332,-12,8,-5,-6,9,1,-1,6
13:03:23:62122,8,20,3,-3,-10,-2,-1,5
13:03:23:76972,15,42,-1,-2,-2,7,-2,-8
13:03:23:77760,15,42,-1,-2,-2,7,-2,-8
13:03:23:78561,-21,-13,-21,-4,-9,-7,-7,-17
13:03:23:90626,-2,-21,19,4,4,3,6,4
13:03:23:98859,-2,-21,19,4,4,3,6,4
13:03:23:99657,8,19,25,11,-10,1,2,2
13:03:23:105662,3,-10,-35,4,7,3,1,7
13:03:23:121346,3,-10,-35,4,7,3,1,7
13:03:23:122126,-7,-6,-4,-9,-5,-6,-6,-10
13:03:23:128176,6,11,22,17,15,6,0,-3
13:03:23:136354,6,11,22,17,15,6,0,-3
13:03:23:137124,-3,-26,-26,-1,-4,-1,1,5
13:03:23:143124,-5,-31,-40,-10,-16,-4,1,3
13:03:23:158877,-5,-31,-40,-10,-16,-4,1,3
13:03:23:159623,1,9,5,26,18,6,-3,-1
13:03:23:165619,9,29,22,-2,1,-1,1,-1
13:03:23:181352,9,29,22,-2,1,-1,1,-1
13:03:23:182150,-1,-14,-4,-17,-20,-10,-1,15
13:03:23:188103,-9,-5,19,0,-3,10,1,1
13:03:23:196338,-9,-5,19,0,-3,10,1,1
13:03:23:197147,-4,-28,26,11,8,3,4,2
13:03:23:203119,-1,-29,6,12,2,-5,-2,0
13:03:23:218838,-1,-29,6,12,2,-5,-2,0
13:03:23:219634,4,-3,8,9,4,0,3,18
13:03:23:225605,-4,-5,-10,-4,0,-2,-2,-11
13:03:23:241327,-4,-5,-10,-4,0,-2,-2,-11
13:03:23:242097,-24,16,-18,-8,-7,-5,-6,-12
13:03:23:248097,4,-9,-1,-10,-12,-4,3,13
13:03:23:256327,4,-9,-1,-10,-12,-4,3,13
13:03:23:257131,5,36,6,-6,7,0,0,-9
13:03:23:263116,-22,-31,-34,-8,-3,-8,-5,-14
13:03:23:278838,-22,-31,-34,-8,-3,-8,-5,-14
13:03:23:279655,7,6,0,-2,2,20,2,-9
13:03:23:285610,0,17,10,-10,-6,-7,-3,-2
13:03:23:301320,0,17,10,-10,-6,-7,-3,-2
13:03:23:302118,-4,-6,-4,1,-7,-12,-11,-12
13:03:23:308098,-11,10,15,21,5,9,-2,-8
13:03:23:316343,-11,10,15,21,5,9,-2,-8
13:03:23:317116,10,18,-17,-7,2,-4,-1,9
13:03:23:323087,2,19,13,-11,-6,-8,-7,-10
13:03:23:338819,2,19,13,-11,-6,-8,-7,-10
13:03:23:339621,6,-14,0,3,-4,1,8,15
13:03:23:345615,3,4,13,-4,-7,-6,3,-2
13:03:23:361310,3,4,13,-4,-7,-6,3,-2
13:03:23:362101,5,-4,7,-4,-5,0,8,15
13:03:23:368146,-5,-7,6,-2,5,-3,-5,-6
13:03:23:376407,-5,-7,6,-2,5,-3,-5,-6
13:03:23:377131,3,17,11,-5,-6,-5,-1,2
13:03:23:390624,-13,-39,-27,-11,-4,-5,-6,-20
13:03:23:398797,-13,-39,-27,-11,-4,-5,-6,-20
13:03:23:399624,-16,-21,-8,-10,6,-5,-5,-7
13:03:23:405566,5,14,-9,-11,1,1,2,6
13:03:23:421304,5,14,-9,-11,1,1,2,6
13:03:23:422093,10,21,1,-5,-5,-3,-3,-10
13:03:23:428136,7,13,-12,-3,0,0,2,3
13:03:23:436294,7,13,-12,-3,0,0,2,3
13:03:23:437098,-4,-17,-51,-2,-3,-4,-3,-2
13:03:23:450622,26,68,17,16,8,7,4,13
13:03:23:458837,26,68,17,16,8,7,4,13
13:03:23:459607,0,3,14,0,-2,-4,-6,-9
13:03:23:465614,3,3,-11,14,19,4,-1,1
13:03:23:481793,3,3,-11,14,19,4,-1,1
13:03:23:482565,-8,-19,4,10,2,10,-2,-10
13:03:23:488162,5,-11,5,-2,4,-1,-1,-1
13:03:23:496307,5,-11,5,-2,4,-1,-1,-1
13:03:23:497131,-3,-7,20,4,0,10,3,3
13:03:23:510616,-5,-33,20,11,-9,2,1,2
13:03:23:518910,-5,-33,20,11,-9,2,1,2
13:03:23:519632,-6,-11,5,-4,-8,-12,-7,-10
13:03:23:525625,-7,10,10,-6,4,-3,-4,0
13:03:23:533153,-7,10,10,-6,4,-3,-4,0
13:03:23:540651,6,-12,30,11,1,2,7,7
13:03:23:548147,-18,-17,-17,2,-9,-5,0,-2
13:03:23:556362,-18,-17,-17,2,-9,-5,0,-2
13:03:23:557145,-9,-16,-19,-10,-2,-4,-4,-4
13:03:23:570605,-8,-9,5,1,-3,2,0,-7
13:03:23:578841,-8,-9,5,1,-3,2,0,-7
13:03:23:579640,4,18,-33,-15,-10,-9,-3,-6
13:03:23:585651,24,62,3,2,5,-2,4,22
13:03:23:601304,24,62,3,2,5,-2,4,22
13:03:23:602082,7,34,-15,-2,-4,-5,0,-2
13:03:23:608123,13,15,-4,-3,9,2,-4,-10
13:03:23:616318,13,15,-4,-3,9,2,-4,-10
13:03:23:617083,-1,-16,0,-3,2,-3,0,5
13:03:23:630672,-11,-51,-9,-10,-15,-5,0,5
13:03:23:638819,-11,-51,-9,-10,-15,-5,0,5
13:03:23:639627,-1,-11,25,4,10,1,-2,-6
13:03:23:645624,-23,-59,-17,-9,-14,-8,-7,-12
13:03:23:661360,-23,-59,-17,-9,-14,-8,-7,-12
13:03:23:662135,6,27,27,-4,5,3,0,0
13:03:23:668140,3,-5,10,-5,-8,-5,0,4
13:03:23:676320,3,-5,10,-5,-8,-5,0,4
13:03:23:677084,7,30,5,5,-3,5,5,7
13:03:23:690630,-7,15,-17,2,-5,2,0,0
13:03:23:698878,-7,15,-17,2,-5,2,0,0
13:03:23:699667,0,-9,-13,5,-2,1,-1,-3
13:03:23:705650,-6,-31,1,-7,-2,-2,-4,-7
13:03:23:721357,-6,-31,1,-7,-2,-2,-4,-7
13:03:23:722163,-4,-18,2,2,-7,-4,-6,-9
13:03:23:728131,4,32,26,4,-3,-1,2,6
13:03:23:736370,4,32,26,4,-3,-1,2,6
13:03:23:737141,-11,-30,-12,-9,2,2,2,5
13:03:23:750622,4,8,-1,3,0,1,-3,-5
13:03:23:766991,4,8,-1,3,0,1,-3,-5
13:03:23:767794,5,-1,6,4,2,1,5,-4
13:03:23:768589,-18,-17,-1,7,17,-1,-6,-15
13:03:23:781310,-18,-17,-1,7,17,-1,-6,-15
13:03:23:782109,1,4,-16,7,-1,-2,0,6
13:03:23:788071,6,11,4,-4,-4,5,0,-1
13:03:23:796332,6,11,4,-4,-4,5,0,-1
13:03:23:797108,0,-17,3,8,4,-6,0,16
13:03:23:810653,1,-5,12,1,-5,-3,-2,1
13:03:23:818812,1,-5,12,1,-5,-3,-2,1
13:03:23:819609,1,-3,0,-5,1,-1,0,-2
13:03:23:825574,4,-7,-10,-3,12,-2,-2,-14
13:03:23:841354,4,-7,-10,-3,12,-2,-2,-14
13:03:23:842085,-10,-21,-14,-17,-6,-1,-8,-22
13:03:23:848122,-10,-8,3,5,-11,-16,5,16
13:03:23:856292,-10,-8,3,5,-11,-16,5,16
13:03:23:857087,-4,13,-7,-19,11,9,-7,-15
13:03:23:870640,5,12,7,-4,-6,1,4,19
13:03:23:878816,5,12,7,-4,-6,1,4,19
13:03:23:879593,-10,-17,-17,-5,-8,-7,-9,-10
13:03:23:885613,3,-6,-3,-15,-1,1,-1,-1
13:03:23:901328,3,-6,-3,-15,-1,1,-1,-1
13:03:23:902109,4,5,22,0,7,-1,1,-7
13:03:23:908117,-11,-6,-9,-7,-9,-6,0,5
13:03:23:916305,-11,-6,-9,-7,-9,-6,0,5
13:03:23:917118,-6,8,0,-2,1,1,4,-2
13:03:23:930639,-9,-10,-14,-2,4,-1,-5,-14
13:03:23:938806,-9,-10,-14,-2,4,-1,-5,-14
13:03:23:939596,-6,12,-22,10,3,-1,0,6
13:03:23:945647,-5,-12,14,-7,-4,1,-8,-13
13:03:23:961363,-5,-12,14,-7,-4,1,-8,-13
13:03:23:962146,5,-17,13,-2,18,13,5,8
13:03:23:968133,-10,9,-13,-10,-10,-4,-6,-11
13:03:23:976320,-10,9,-13,-10,-10,-4,-6,-11
13:03:23:977116,-3,3,-8,-2,-9,-7,1,13
13:03:23:990591,4,10,7,11,5,9,3,-8
13:03:23:998856,4,10,7,11,5,9,3,-8
13:03:23:999653,1,19,-10,-15,-11,-12,-10,-3
13:03:24:5651,8,-17,-31,-9,-6,-3,4,7
13:03:24:21312,8,-17,-31,-9,-6,-3,4,7
13:03:24:22137,-5,-10,1,3,1,0,-1,4
13:03:24:28099,5,5,-11,12,9,-1,1,4
13:03:24:36353,5,5,-11,12,9,-1,1,4
13:03:24:37123,-7,-28,10,13,-10,-6,3,7
13:03:24:50606,-13,-1,2,-3,10,-4,-1,-1
13:03:24:58856,-13,-1,2,-3,10,-4,-1,-1
13:03:24:59659,9,23,-5,-6,-8,-5,-4,-13
13:03:24:65617,5,36,0,-12,-3,-2,-6,-9
13:03:24:81342,5,36,0,-12,-3,-2,-6,-9
13:03:24:82155,4,9,-12,-2,0,0,2,4
13:03:24:88127,3,10,3,-5,9,-3,-3,-3
13:03:24:97007,3,10,3,-5,9,-3,-3,-3
13:03:24:97804,2,10,5,17,0,0,-2,-6
13:03:24:110635,-3,-11,2,9,-2,-1,-2,-2
13:03:24:118822,-3,-11,2,9,-2,-1,-2,-2
13:03:24:119659,0,-2,20,1,1,2,-5,-6
13:03:24:125623,1,21,14,6,-4,2,1,-5
13:03:24:141315,1,21,14,6,-4,2,1,-5
13:03:24:142100,-3,20,7,-4,-14,-3,-3,-5
13:03:24:148097,11,24,-2,-5,-7,3,3,25
13:03:24:156366,11,24,-2,-5,-7,3,3,25
13:03:24:157160,-1,3,-4,-8,-5,-2,-4,0
13:03:24:170581,-14,-51,-15,-5,-4,0,1,0
13:03:24:178834,-14,-51,-15,-5,-4,0,1,0
13:03:24:179617,4,-13,1,-1,0,2,4,11
13:03:24:185605,6,14,17,7,-4,0,-6,-11
13:03:24:201321,6,14,17,7,-4,0,-6,-11
13:03:24:202102,-4,-1,-16,-1,6,0,-2,-4
13:03:24:208135,-14,-40,-2,3,7,4,4,6
13:03:24:216343,-14,-40,-2,3,7,4,4,6
13:03:24:217152,2,2,-15,-14,-7,-2,0,3
13:03:24:230621,11,-1,0,-2,-6,-1,4,10
13:03:24:238858,11,-1,0,-2,-6,-1,4,10
13:03:24:239626,0,-20,6,8,5,1,1,5
13:03:24:245597,0,1,-8,-8,-4,-8,-21,-29
13:03:24:261303,0,1,-8,-8,-4,-8,-21,-29
13:03:24:262109,-5,-9,3,-2,1,-1,1,-1
13:03:24:268116,-27,-25,-17,0,5,0,5,10
13:03:24:276371,-27,-25,-17,0,5,0,5,10
13:03:24:277137,4,14,-9,0,-4,-5,-1,-2
13:03:24:299531,10,16,6,-1,0,-1,-1,4
13:03:24:300310,10,16,6,-1,0,-1,-1,4
13:03:24:301119,1,-18,13,15,12,6,2,-2
13:03:24:313118,10,-1,-14,-6,-10,-5,-1,-5
13:03:24:321367,10,-1,-14,-6,-10,-5,-1,-5
13:03:24:322142,3,-7,-5,-9,-4,-4,-1,3
13:03:24:328116,-7,-23,10,5,7,3,-2,-6
13:03:24:335669,-7,-23,10,5,7,3,-2,-6
13:03:24:343123,-4,-8,2,2,-3,-6,1,2
13:03:24:350628,-12,5,3,-3,-6,2,2,-1
13:03:24:358824,-12,5,3,-3,-6,2,2,-1
13:03:24:359606,-1,-4,9,19,5,-1,-1,2
13:03:24:373145,14,9,-6,-4,-2,3,1,-1
13:03:24:381360,14,9,-6,-4,-2,3,1,-1
13:03:24:382171,-1,6,-17,-7,-3,-1,0,2
13:03:24:388150,4,13,-18,17,9,6,2,-4
13:03:24:395668,4,13,-18,17,9,6,2,-4
13:03:24:403138,5,-3,26,1,-6,-2,-3,-10
13:03:24:410640,5,19,-2,-12,-1,-5,0,4
13:03:24:418578,5,19,-2,-12,-1,-5,0,4
13:03:24:425569,2,7,1,8,-6,-1,0,1
13:03:24:433074,4,-4,4,16,10,4,0,0
13:03:24:441323,4,-4,4,16,10,4,0,0
13:03:24:442116,3,5,0,-1,0,2,0,8
13:03:24:448101,1,-9,3,0,1,-2,-3,-2
13:03:24:455671,1,-9,3,0,1,-2,-3,-2
13:03:24:463141,-2,-4,1,-17,-7,-1,-2,0
13:03:24:470606,0,9,10,-1,-8,-3,-2,-3
13:03:24:478879,0,9,10,-1,-8,-3,-2,-3
13:03:24:479638,-6,4,6,3,7,3,-1,-9
13:03:24:493116,7,14,27,2,11,2,2,2
13:03:24:501364,7,14,27,2,11,2,2,2
13:03:24:502140,-2,13,-15,1,8,3,1,3
13:03:24:508129,-4,-2,-8,1,-12,-6,0,1
13:03:24:515684,-4,-2,-8,1,-12,-6,0,1
13:03:24:523131,-9,-34,4,2,4,-1,-2,-3
13:03:24:530645,-3,-6,-11,-10,-5,-1,0,4
13:03:24:538827,-3,-6,-11,-10,-5,-1,0,4
13:03:24:539612,6,-2,-3,-5,-5,-2,4,1
13:03:24:561975,1,-10,-4,1,-3,-4,5,13
13:03:24:562801,1,-10,-4,1,-3,-4,5,13
13:03:24:563633,3,1,-20,-10,-8,-6,-3,-6
13:03:24:568125,4,-9,-8,8,-5,5,2,-1
13:03:24:575702,4,-9,-8,8,-5,5,2,-1
13:03:24:583144,-4,2,10,11,4,2,-6,-2
13:03:24:590643,1,0,3,-13,-3,2,-4,-10
13:03:24:598858,1,0,3,-13,-3,2,-4,-10
13:03:24:599659,-12,-9,-7,-4,4,1,-2,-4
13:03:24:613590,-7,-10,-3,-9,-5,-7,-2,-2
13:03:24:621352,-7,-10,-3,-9,-5,-7,-2,-2
13:03:24:622155,-3,9,-15,2,-1,-1,-1,-5
13:03:24:628101,2,0,-6,-3,1,0,-2,-3
13:03:24:635684,2,0,-6,-3,1,0,-2,-3
13:03:24:643155,9,-8,1,-6,2,-5,-3,-8
13:03:24:650630,-15,-29,-5,-9,-7,-2,-1,-6
13:03:24:658808,-15,-29,-5,-9,-7,-2,-1,-6
13:03:24:659606,8,33,12,0,-2,-3,-2,5
13:03:24:673114,3,3,-15,-11,1,-4,-1,7
13:03:24:681387,3,3,-15,-11,1,-4,-1,7
13:03:24:682168,-2,-15,3,5,11,6,3,11
13:03:24:688126,1,24,22,9,-2,2,4,11
13:03:24:703825,1,24,22,9,-2,2,4,11
13:03:24:704641,-20,-35,-6,-6,-4,-2,-5,-11
13:03:24:710608,-1,-7,1,8,1,1,-1,-3
13:03:24:718878,-1,-7,1,8,1,1,-1,-3
13:03:24:719635,1,21,-1,-5,-8,-4,1,2
13:03:24:733116,-1,-7,-5,-3,-5,0,-4,0
13:03:24:741341,-1,-7,-5,-3,-5,0,-4,0
13:03:24:742176,3,5,-1,-7,1,6,5,2
13:03:24:748121,5,13,-7,-1,3,-2,0,-7
13:03:24:755696,5,13,-7,-1,3,-2,0,-7
13:03:24:763142,-9,-5,8,-2,4,0,0,-4
13:03:24:770639,-9,1,7,-3,2,1,-3,-3
13:03:24:778827,-9,1,7,-3,2,1,-3,-3
13:03:24:779634,-4,-24,-2,-3,-10,-7,2,3
13:03:24:793135,-5,7,12,-2,-4,-9,-7,-10
13:03:24:801351,-5,7,12,-2,-4,-9,-7,-10
13:03:24:802155,4,21,-1,-7,-7,3,1,1
13:03:24:816306,1,-10,-18,-12,-6,6,-1,-10
13:03:24:817201,1,-10,-18,-12,-6,6,-1,-10
13:03:24:823107,7,1,3,6,-5,2,-1,4
13:03:24:830599,15,26,4,4,5,-4,1,12
13:03:24:838821,15,26,4,4,5,-4,1,12
