Time,EMG1,EMG2,EMG3,EMG4,EMG5,EMG6,EMG7,EMG8
15:35:17:323122,-2,-2,-3,-2,-1,-3,2,-2
15:35:17:338883,-2,-2,-3,-2,-1,-3,2,-2
15:35:17:339652,3,-4,-3,-2,-2,-4,10,-3
15:35:17:345621,18,1,1,0,-2,0,-21,-10
15:35:17:353864,18,1,1,0,-2,0,-21,-10
15:35:17:354689,-2,0,-3,-3,0,-3,6,-1
15:35:17:368274,5,-1,-1,-1,-2,2,21,-3
15:35:17:376352,5,-1,-1,-1,-2,2,21,-3
15:35:17:377148,16,-1,0,-2,0,-1,-12,2
15:35:17:383226,-12,1,-2,-2,0,-5,-9,4
15:35:17:398856,-12,1,-2,-2,0,-5,-9,4
15:35:17:399682,-15,-2,2,0,0,-1,2,14
15:35:17:405656,19,-1,0,0,0,2,10,1
15:35:17:413913,19,-1,0,0,0,2,10,1
15:35:17:414689,-25,-2,-3,-3,-2,-3,-18,9
15:35:17:428200,19,0,-3,0,-1,-7,-12,2
15:35:17:436389,19,0,-3,0,-1,-7,-12,2
15:35:17:437247,26,1,0,0,-1,3,18,3
15:35:17:443146,27,2,1,-1,0,-1,-5,-2
15:35:17:458824,27,2,1,-1,0,-1,-5,-2
15:35:17:459638,-6,-3,-1,-2,-1,-1,-8,3
15:35:17:465717,-24,-5,-3,-2,-2,-6,2,-8
15:35:17:473909,-24,-5,-3,-2,-2,-6,2,-8
15:35:17:474761,1,1,-1,-1,1,2,-7,-8
15:35:17:488254,-23,-6,-2,-2,-2,1,-14,-4
15:35:17:496351,-23,-6,-2,-2,-2,1,-14,-4
15:35:17:497147,-15,-1,0,-1,-3,2,15,-1
15:35:17:503225,-9,-3,-2,-1,-1,-3,4,1
15:35:17:518949,-9,-3,-2,-1,-1,-3,4,1
15:35:17:519668,9,2,-1,2,-1,3,8,5
15:35:17:525647,5,0,-2,-2,-3,-1,-16,2
15:35:17:533896,5,0,-2,-2,-3,-1,-16,2
15:35:17:534674,-35,-6,-3,-2,-1,-5,-55,-24
15:35:17:557120,-25,2,2,1,0,-2,-12,4
15:35:17:557817,-25,2,2,1,0,-2,-12,4
15:35:17:558623,5,-3,-5,-1,-2,-6,-6,-8
15:35:17:563146,-2,-2,-2,-3,-1,-4,-1,-4
15:35:17:578857,-2,-2,-2,-3,-1,-4,-1,-4
15:35:17:579688,-29,0,0,-1,-1,-2,41,7
15:35:17:585638,-5,-2,-3,-2,0,2,9,3
15:35:17:593851,-5,-2,-3,-2,0,2,9,3
15:35:17:594636,10,-2,-4,-2,-1,-5,7,0
15:35:17:608163,10,0,0,1,-1,4,-18,0
15:35:17:616488,10,0,0,1,-1,4,-18,0
15:35:17:617250,-8,-4,-2,-1,-2,1,0,-5
15:35:17:631402,-9,-5,-3,-2,-4,-11,-27,20
15:35:17:632168,-9,-5,-3,-2,-4,-11,-27,20
15:35:17:638147,21,3,2,-1,-2,1,-5,6
15:35:17:645633,-3,-1,0,-2,-2,-3,13,6
15:35:17:653880,-3,-1,0,-2,-2,-3,13,6
15:35:17:654654,23,2,0,-2,-1,-2,-3,3
15:35:17:668196,-27,-2,2,1,-2,-6,12,-7
15:35:17:676319,-27,-2,2,1,-2,-6,12,-7
15:35:17:677129,12,-2,1,-1,-2,-1,4,-6
15:35:17:683171,8,-1,-3,-1,-1,6,13,-8
15:35:17:690690,8,-1,-3,-1,-1,6,13,-8
15:35:17:698182,2,2,1,0,1,0,-3,2
15:35:17:705601,7,0,-1,-1,-1,2,12,-7
15:35:17:713923,7,0,-1,-1,-1,2,12,-7
15:35:17:714695,14,4,0,0,0,3,20,2
15:35:17:728128,3,-1,-2,-3,-1,6,-29,-20
15:35:17:736379,3,-1,-2,-3,-1,6,-29,-20
15:35:17:737177,-15,-3,-1,0,-1,1,17,21
15:35:17:751429,-4,1,3,0,-1,0,11,-11
15:35:17:752185,-4,1,3,0,-1,0,11,-11
15:35:17:758134,-8,-4,-4,-2,-2,0,1,0
15:35:17:765615,5,-1,-3,1,0,-1,5,9
15:35:17:773223,5,-1,-3,1,0,-1,5,9
15:35:17:780663,-1,-2,-1,1,2,-2,-15,-6
15:35:17:788124,7,2,-2,-1,0,-1,9,2
15:35:17:796386,7,2,-2,-1,0,-1,9,2
15:35:17:797170,-10,-3,-3,-1,0,6,16,-17
15:35:17:811364,-13,1,1,1,0,-4,13,-16
15:35:17:812185,-13,1,1,1,0,-4,13,-16
15:35:17:818140,-18,3,3,2,-1,-7,5,6
15:35:17:825635,-18,-2,0,-1,-1,1,25,-10
15:35:17:833224,-18,-2,0,-1,-1,1,25,-10
15:35:17:840667,7,-3,0,-2,0,-2,-15,-2
15:35:17:848136,-1,-3,-1,-1,0,-6,-23,7
15:35:17:856371,-1,-3,-1,-1,0,-6,-23,7
15:35:17:857127,15,0,0,-1,-2,-1,0,7
15:35:17:879574,8,-2,-2,-2,-1,1,-13,5
15:35:17:880371,8,-2,-2,-2,-1,1,-13,5
15:35:17:881126,73,-1,-2,-3,-3,-4,-28,-3
15:35:17:885642,-6,0,-1,-1,-2,-3,8,17
15:35:17:893197,-6,0,-1,-1,-2,-3,8,17
15:35:17:900696,-11,0,0,-3,0,-5,-6,4
15:35:17:908138,5,-4,-1,-2,-2,9,-13,-1
15:35:17:916453,5,-4,-1,-2,-2,9,-13,-1
15:35:17:917192,-26,-3,-2,-1,-2,-5,-10,-5
15:35:17:931402,14,0,1,0,-1,-6,-7,-9
15:35:17:932167,14,0,1,0,-1,-6,-7,-9
15:35:17:938156,-16,-2,-3,-1,-4,-1,-22,-17
15:35:17:945629,3,-5,-4,-2,-2,-2,14,-9
15:35:17:953238,3,-5,-4,-2,-2,-2,14,-9
15:35:17:960636,-9,-2,-3,0,2,1,-17,3
15:35:17:968229,5,-1,-2,0,0,2,-6,7
15:35:17:976343,5,-1,-2,0,0,2,-6,7
15:35:17:977104,13,1,-1,-1,-4,2,7,8
15:35:17:991340,7,4,2,2,3,-1,-26,1
15:35:17:992123,7,4,2,2,3,-1,-26,1
15:35:17:998159,-1,1,-2,-2,-2,-2,15,1
15:35:18:5614,-3,-5,-4,-3,-6,-4,11,-1
15:35:18:13212,-3,-5,-4,-3,-6,-4,11,-1
15:35:18:20674,-8,-4,-1,0,1,-2,-4,-7
15:35:18:28187,-3,2,-1,0,-2,1,10,0
15:35:18:36389,-3,2,-1,0,-2,1,10,0
15:35:18:37197,-4,-2,-3,-2,-1,-1,24,1
15:35:18:51470,-2,0,0,-1,0,0,8,-3
15:35:18:52135,-2,0,0,-1,0,0,8,-3
15:35:18:58106,-9,1,-1,-1,-1,-1,0,1
15:35:18:65699,1,1,0,-1,-1,-3,-8,-3
15:35:18:73189,1,1,0,-1,-1,-3,-8,-3
15:35:18:80701,-9,-5,-2,-2,-3,-1,-1,-4
15:35:18:88149,0,8,2,-2,-1,-4,1,-3
15:35:18:96416,0,8,2,-2,-1,-4,1,-3
15:35:18:97180,-5,5,3,0,1,1,-1,-3
15:35:18:110658,-3,20,-4,-1,8,0,1,-1
15:35:18:118916,-3,20,-4,-1,8,0,1,-1
15:35:18:119615,-6,-32,-15,-5,-1,-2,-2,-2
15:35:18:125604,0,0,3,-1,-5,1,-1,0
15:35:18:133274,0,0,3,-1,-5,1,-1,0
15:35:18:140673,0,15,-2,-2,-1,-3,-4,-2
15:35:18:148185,-1,-18,-2,0,-4,-2,-3,-1
15:35:18:156371,-1,-18,-2,0,-4,-2,-3,-1
15:35:18:157211,-1,-6,4,2,0,-1,1,-2
15:35:18:170688,0,0,2,1,-1,-1,-3,-2
15:35:18:178928,0,0,2,1,-1,-1,-3,-2
15:35:18:179624,-4,11,6,0,-7,0,2,-1
15:35:18:185666,-4,22,-1,2,3,2,2,-1
15:35:18:193220,-4,22,-1,2,3,2,2,-1
15:35:18:200682,-1,-6,-6,-3,-1,-2,-3,-2
15:35:18:208121,-1,-3,2,0,-2,-3,-1,-1
15:35:18:216420,-1,-3,2,0,-2,-3,-1,-1
15:35:18:217196,-3,-73,-50,-9,-4,-2,-3,0
15:35:18:230660,1,49,16,1,2,0,0,-2
15:35:18:238862,1,49,16,1,2,0,0,-2
15:35:18:239658,-1,-9,-13,6,0,0,0,-2
15:35:18:245642,3,27,-7,-7,-3,0,-2,1
15:35:18:253234,3,27,-7,-7,-3,0,-2,1
15:35:18:260630,2,29,25,3,-1,-2,-1,0
15:35:18:268168,-3,-25,-18,-2,-3,-1,-1,-2
15:35:18:276315,-3,-25,-18,-2,-3,-1,-1,-2
15:35:18:277086,-4,-14,-22,-2,1,0,-2,1
15:35:18:290704,-1,-32,2,-1,1,0,-3,-1
15:35:18:298813,-1,-32,2,-1,1,0,-3,-1
15:35:18:299621,0,9,-1,-7,1,-1,-2,-2
15:35:18:305641,-2,-28,-35,-6,-3,-2,-1,-2
15:35:18:313213,-2,-28,-35,-6,-3,-2,-1,-2
15:35:18:320637,0,15,32,-5,-3,-3,0,-2
15:35:18:328089,1,-4,10,11,1,-1,1,-2
15:35:18:336380,1,-4,10,11,1,-1,1,-2
15:35:18:337178,8,52,15,3,0,-2,-1,-8
15:35:18:350711,-5,-21,-33,-8,-2,-1,-3,-3
15:35:18:358801,-5,-21,-33,-8,-2,-1,-3,-3
15:35:18:359604,-3,-5,-3,0,-5,0,-1,0
15:35:18:365599,-2,-16,8,0,1,-1,-3,-2
15:35:18:373207,-2,-16,8,0,1,-1,-3,-2
15:35:18:380673,0,-12,3,-1,1,-3,-5,0
15:35:18:388144,1,-26,11,-3,-4,-4,-2,0
15:35:18:396356,1,-26,11,-3,-4,-4,-2,0
15:35:18:397136,-5,-13,-14,-3,0,1,0,0
15:35:18:410598,-6,-12,10,2,1,0,2,0
15:35:18:418916,-6,-12,10,2,1,0,2,0
15:35:18:419705,17,-19,16,-6,-5,-3,3,28
15:35:18:433923,-27,8,6,-6,-3,-3,-6,-4
15:35:18:434703,-27,8,6,-6,-3,-3,-6,-4
15:35:18:440595,-1,-13,-30,-6,2,0,-5,-13
15:35:18:448086,5,13,-15,-5,-3,-3,-2,0
15:35:18:456387,5,13,-15,-5,-3,-3,-2,0
15:35:18:457174,-9,25,16,6,1,-2,-3,-8
15:35:18:470689,3,12,29,3,-1,0,-1,-6
15:35:18:478814,3,12,29,3,-1,0,-1,-6
15:35:18:479647,1,25,20,-3,-7,0,0,-1
15:35:18:485600,7,6,17,-3,1,0,2,5
15:35:18:493164,7,6,17,-3,1,0,2,5
15:35:18:500669,0,4,-2,11,4,0,1,-2
15:35:18:508147,-6,27,-14,1,-5,-5,-4,-11
15:35:18:516416,-6,27,-14,1,-5,-5,-4,-11
15:35:18:517217,-4,5,-1,0,-1,0,0,4
15:35:18:530671,31,8,5,-4,3,2,13,14
15:35:18:538929,31,8,5,-4,3,2,13,14
15:35:18:539686,-4,4,9,7,1,0,15,-3
15:35:18:545643,-13,-8,-14,-4,-2,-4,7,38
15:35:18:553250,-13,-8,-14,-4,-2,-4,7,38
15:35:18:560612,-13,-10,12,-2,1,0,-5,2
15:35:18:568205,-5,-12,8,4,-1,0,-3,-10
15:35:18:576340,-5,-12,8,4,-1,0,-3,-10
15:35:18:577083,-11,23,3,-8,-2,-2,-7,-5
15:35:18:590683,10,33,28,1,-3,-2,-10,-12
15:35:18:598852,10,33,28,1,-3,-2,-10,-12
15:35:18:599696,6,-5,3,0,0,0,-4,-3
15:35:18:605655,4,-10,51,6,1,1,3,13
15:35:18:613172,4,-10,51,6,1,1,3,13
15:35:18:620695,2,-14,6,0,-1,-3,-2,-9
15:35:18:628149,-27,-22,-37,-6,-2,-2,-8,-4
15:35:18:636388,-27,-22,-37,-6,-2,-2,-8,-4
15:35:18:637157,19,29,5,-1,1,2,14,-8
15:35:18:650736,19,-45,-9,2,0,2,0,-11
15:35:18:658805,19,-45,-9,2,0,2,0,-11
15:35:18:659647,-4,-14,-2,1,1,-2,-16,16
15:35:18:665656,-1,-21,-35,-5,-2,-1,16,-6
15:35:18:673174,-1,-21,-35,-5,-2,-1,16,-6
15:35:18:680659,3,-26,-5,-4,-2,-1,-1,-6
15:35:18:688195,-14,16,-25,-3,1,0,-6,-1
15:35:18:695672,-14,16,-25,-3,1,0,-6,-1
15:35:18:703108,-19,28,-24,-4,-1,-1,-6,-20
15:35:18:710599,13,-12,16,1,0,-2,-2,-7
15:35:18:718978,13,-12,16,1,0,-2,-2,-7
15:35:18:719643,0,-18,23,1,-4,-3,-7,5
15:35:18:733937,49,0,-6,-1,-3,-3,-6,18
15:35:18:734697,49,0,-6,-1,-3,-3,-6,18
15:35:18:740630,-5,2,-7,1,0,2,19,12
15:35:18:748166,-10,4,-5,-6,-2,1,-10,7
15:35:18:755726,-10,4,-5,-6,-2,1,-10,7
15:35:18:763156,12,-18,9,-2,-3,-3,-14,7
15:35:18:770673,-10,-19,23,-5,1,1,4,-7
15:35:18:778850,-10,-19,23,-5,1,1,4,-7
15:35:18:779646,-12,9,25,1,1,-2,2,0
15:35:18:793840,-1,13,-23,2,-1,0,-11,-9
15:35:18:794648,-1,13,-23,2,-1,0,-11,-9
15:35:18:800682,8,-6,23,-5,-2,-1,1,7
15:35:18:808130,-19,-2,14,1,3,-1,1,-7
15:35:18:815735,-19,-2,14,1,3,-1,1,-7
15:35:18:823152,-39,13,-34,-1,0,0,1,-43
15:35:18:830682,0,56,54,2,-2,-4,0,-13
15:35:18:838823,0,56,54,2,-2,-4,0,-13
15:35:18:839618,-13,-13,-45,4,-1,0,10,-2
15:35:18:853909,23,-6,-38,3,0,-1,2,9
15:35:18:854703,23,-6,-38,3,0,-1,2,9
15:35:18:860609,15,-8,-28,-1,0,0,-8,2
15:35:18:868226,-10,-6,-66,-11,-5,-4,-15,-3
15:35:18:875692,-10,-6,-66,-11,-5,-4,-15,-3
15:35:18:883211,12,-3,22,1,-1,0,3,0
15:35:18:890665,-19,-16,2,-5,-1,-3,-8,0
15:35:18:898834,-19,-16,2,-5,-1,-3,-8,0
15:35:18:899612,2,3,0,-5,1,-2,-1,3
15:35:18:913841,-7,22,81,1,-4,-2,-11,12
15:35:18:914626,-7,22,81,1,-4,-2,-11,12
15:35:18:920631,3,8,-69,-13,-3,-1,5,10
15:35:18:928149,0,-7,8,2,0,-1,1,-3
15:35:18:935707,0,-7,8,2,0,-1,1,-3
15:35:18:943136,0,-28,32,-8,-4,-5,-8,-1
15:35:18:950724,-5,-84,-81,6,0,-1,5,-16
15:35:18:966390,-5,-84,-81,6,0,-1,5,-16
15:35:18:967109,-31,-5,-28,0,0,-1,-1,-4
15:35:18:973823,-6,-17,9,1,1,1,9,-11
15:35:18:974639,-6,-17,9,1,1,1,9,-11
15:35:18:980637,27,11,0,5,-1,1,3,0
15:35:18:988187,9,1,-40,-1,-2,1,24,9
15:35:18:995721,9,1,-40,-1,-2,1,24,9
15:35:19:3113,5,22,18,-1,-3,-4,-8,1
15:35:19:10615,-22,12,-35,-13,-9,-7,19,16
15:35:19:18988,-22,12,-35,-13,-9,-7,19,16
15:35:19:19666,4,8,15,8,3,6,5,6
15:35:19:33951,-6,1,62,-5,1,1,-16,-8
15:35:19:34674,-6,1,62,-5,1,1,-16,-8
15:35:19:40598,0,30,38,0,-4,-4,-6,1
15:35:19:48166,-18,-9,-44,-3,-1,0,-7,1
15:35:19:55665,-18,-9,-44,-3,-1,0,-7,1
15:35:19:63164,8,-44,-6,15,2,-2,-50,-35
15:35:19:70664,22,11,-28,0,1,-3,5,15
15:35:19:78902,22,11,-28,0,1,-3,5,15
15:35:19:79668,-31,-12,44,1,-2,-4,0,-2
15:35:19:93814,31,13,56,4,0,-1,-8,-13
15:35:19:94647,31,13,56,4,0,-1,-8,-13
15:35:19:100700,-1,11,-30,-7,-5,-3,-7,2
15:35:19:108139,-10,8,-14,3,3,2,1,-2
15:35:19:115729,-10,8,-14,3,3,2,1,-2
15:35:19:123158,5,-41,-22,-7,0,0,6,3
15:35:19:130635,-11,24,-37,-9,-3,-3,-4,-10
15:35:19:138836,-11,24,-37,-9,-3,-3,-4,-10
15:35:19:139650,-1,5,-65,-9,-3,-2,9,2
15:35:19:153888,-3,-58,-42,2,-7,0,-4,1
15:35:19:154705,-3,-58,-42,2,-7,0,-4,1
15:35:19:160623,0,29,-13,-15,-2,0,6,2
15:35:19:168219,15,27,-16,8,-3,-5,-5,-5
15:35:19:175645,15,27,-16,8,-3,-5,-5,-5
15:35:19:183245,1,-9,16,-5,-2,1,4,1
15:35:19:190678,-15,-15,18,-21,-3,-1,-3,-7
15:35:19:198915,-15,-15,18,-21,-3,-1,-3,-7
15:35:19:199608,0,-5,15,10,1,-1,1,1
15:35:19:213842,-10,28,76,-6,-3,2,3,-2
15:35:19:214631,-10,28,76,-6,-3,2,3,-2
15:35:19:220664,-5,-11,-30,-9,-4,-2,-1,-4
15:35:19:228151,-8,27,63,10,2,0,-6,9
15:35:19:235697,-8,27,63,10,2,0,-6,9
15:35:19:243116,0,-58,12,10,-5,-1,-1,24
15:35:19:250706,-17,-21,10,15,7,2,-8,-24
15:35:19:258823,-17,-21,10,15,7,2,-8,-24
15:35:19:259652,0,7,23,22,2,-2,-6,-13
15:35:19:273826,-5,-10,51,12,4,-3,-10,-8
15:35:19:274641,-5,-10,51,12,4,-3,-10,-8
15:35:19:280661,14,2,56,0,2,2,12,9
15:35:19:288120,0,13,22,-3,1,-2,-17,-13
15:35:19:295679,0,13,22,-3,1,-2,-17,-13
15:35:19:303123,27,26,6,18,-5,0,15,31
15:35:19:310588,-16,12,-62,-17,9,3,2,5
15:35:19:318910,-16,12,-62,-17,9,3,2,5
15:35:19:319663,-6,-4,-60,-14,0,-2,-1,-14
15:35:19:333918,15,9,-40,-3,-8,1,5,4
15:35:19:334659,15,9,-40,-3,-8,1,5,4
15:35:19:340666,1,-10,35,10,2,1,-3,2
15:35:19:348207,-1,18,-14,-25,-4,-4,3,0
15:35:19:355726,-1,18,-14,-25,-4,-4,3,0
15:35:19:363190,2,20,-4,-7,-2,-4,-4,-12
15:35:19:371387,26,16,60,19,-1,-3,4,-3
15:35:19:372218,26,16,60,19,-1,-3,4,-3
15:35:19:378114,26,12,-52,-9,0,-1,-5,-5
15:35:19:393823,6,3,-98,-11,-11,-4,-2,4
15:35:19:394656,6,3,-98,-11,-11,-4,-2,4
15:35:19:400701,5,-5,23,0,-1,2,1,-1
15:35:19:408138,-1,-34,-37,10,-3,-2,3,5
15:35:19:415748,-1,-34,-37,10,-3,-2,3,5
15:35:19:423162,-19,-15,5,-2,14,-5,-7,-13
15:35:19:431407,0,5,-10,4,8,0,-1,-32
15:35:19:432165,0,5,-10,4,8,0,-1,-32
15:35:19:438185,-11,4,21,-2,-4,-3,3,0
15:35:19:453860,0,1,25,6,3,4,-3,6
15:35:19:454650,0,1,25,6,3,4,-3,6
15:35:19:460638,-6,28,43,-16,-9,-1,3,7
15:35:19:468231,-31,-24,82,-3,-5,-3,-2,-2
15:35:19:475664,-31,-24,82,-3,-5,-3,-2,-2
15:35:19:483253,-4,9,-18,5,-4,-4,3,14
15:35:19:491389,4,13,91,1,13,3,4,3
15:35:19:492152,4,13,91,1,13,3,4,3
15:35:19:498163,-11,-7,16,18,-9,-1,-13,-6
15:35:19:513875,16,-16,-81,-8,-8,-1,0,8
15:35:19:514647,16,-16,-81,-8,-8,-1,0,8
15:35:19:520709,-5,-32,-4,-6,-3,-3,2,10
15:35:19:528165,10,32,-42,-8,0,-2,1,25
15:35:19:535730,10,32,-42,-8,0,-2,1,25
15:35:19:543110,-21,-2,-116,-3,1,2,-7,-27
15:35:19:550760,1,12,18,2,2,3,-1,-4
15:35:19:558823,1,12,18,2,2,3,-1,-4
15:35:19:559657,13,11,77,19,8,2,9,14
15:35:19:573869,10,-20,0,-21,-5,-2,0,-12
15:35:19:574664,10,-20,0,-21,-5,-2,0,-12
15:35:19:580648,0,0,4,-3,-2,-3,-11,-18
15:35:19:588117,-82,-15,26,-10,-19,-6,-6,-28
15:35:19:595716,-82,-15,26,-10,-19,-6,-6,-28
15:35:19:603150,-2,5,-37,-4,4,4,3,-1
15:35:19:610614,20,-1,-45,11,-2,1,4,8
15:35:19:618249,20,-1,-45,11,-2,1,4,8
15:35:19:625681,-3,28,-15,-4,-1,-11,-10,-12
15:35:19:633922,-4,-1,-32,8,4,-2,-7,-5
15:35:19:634670,-4,-1,-32,8,4,-2,-7,-5
15:35:19:640663,36,6,6,-11,3,4,-6,8
15:35:19:656419,22,3,29,0,-9,-3,12,13
15:35:19:657206,22,3,29,0,-9,-3,12,13
15:35:19:663216,-41,-5,-4,10,25,12,6,8
15:35:19:671321,-4,11,91,10,8,-4,-1,-9
15:35:19:672135,-4,11,91,10,8,-4,-1,-9
15:35:19:685786,2,19,26,-6,-16,-4,-1,2
15:35:19:693868,-2,37,61,1,3,-5,4,-1
15:35:19:694654,-2,37,61,1,3,-5,4,-1
15:35:19:700691,13,-5,5,-2,0,1,-11,-5
15:35:19:716447,-2,-15,-85,-6,-8,-5,-16,-10
15:35:19:717194,-2,-15,-85,-6,-8,-5,-16,-10
15:35:19:723185,-32,-30,-62,-9,1,-7,-15,-18
15:35:19:731436,22,0,-36,4,1,5,4,4
15:35:19:732189,22,0,-36,4,1,5,4,4
15:35:19:745648,10,0,-2,0,1,1,5,6
15:35:19:753859,-20,-19,-19,-9,3,-3,6,9
15:35:19:754703,-20,-19,-19,-9,3,-3,6,9
15:35:19:760617,0,-4,29,-5,-11,-9,0,-9
15:35:19:776377,38,25,16,18,12,12,12,6
15:35:19:777165,38,25,16,18,12,12,12,6
15:35:19:783169,-9,-12,-14,-17,-8,-5,-4,-4
15:35:19:791397,10,-17,35,-1,-4,-3,-3,14
15:35:19:792176,10,-17,35,-1,-4,-3,-3,14
15:35:19:805639,-42,8,70,4,8,4,-13,-28
15:35:19:813882,-44,-5,-12,3,4,7,30,7
15:35:19:814670,-44,-5,-12,3,4,7,30,7
15:35:19:820651,-25,-12,13,-1,-9,3,21,6
15:35:19:836421,-1,-13,41,7,19,-5,-11,-6
15:35:19:837142,-1,-13,41,7,19,-5,-11,-6
15:35:19:843094,16,11,15,-7,-4,-4,-9,9
15:35:19:851445,-7,-22,8,18,6,4,-6,3
15:35:19:852145,-7,-22,8,18,6,4,-6,3
15:35:19:865635,11,-5,-86,-6,-10,-9,3,4
15:35:19:873889,11,-5,-86,-6,-10,-9,3,4
15:35:19:874645,-3,6,15,-5,-13,-7,-30,4
15:35:19:880646,17,10,-6,-9,-11,-2,16,18
15:35:19:896372,17,10,-6,-9,-11,-2,16,18
15:35:19:897152,13,5,-72,-11,-2,-3,-54,-22
15:35:19:903136,51,24,2,10,0,-2,64,34
15:35:19:918956,51,24,2,10,0,-2,64,34
15:35:19:919639,-36,-17,16,-15,-4,-6,1,-8
15:35:19:925686,8,-21,-20,-17,0,-1,-21,-7
15:35:19:933934,8,-21,-20,-17,0,-1,-21,-7
15:35:19:934671,13,8,-33,-7,-7,-2,25,-16
15:35:19:940677,-4,10,49,10,10,11,-8,-7
15:35:19:956454,-4,10,49,10,10,11,-8,-7
15:35:19:957197,0,-17,-30,3,1,2,-11,9
15:35:19:963238,-22,-7,46,4,-7,-4,-23,-5
15:35:19:978804,-22,-7,46,4,-7,-4,-23,-5
15:35:19:979639,28,16,43,-16,-8,-8,17,10
15:35:19:985641,-44,-18,-43,-7,-8,-2,-12,-1
15:35:19:993796,-44,-18,-43,-7,-8,-2,-12,-1
15:35:19:994609,-16,-8,-35,2,8,3,9,0
15:35:20:665,11,-64,-49,-9,5,0,-2,20
15:35:20:16443,11,-64,-49,-9,5,0,-2,20
15:35:20:17155,-5,4,-12,-8,-12,5,-7,-6
15:35:20:23149,18,28,20,13,29,1,9,6
15:35:20:38902,18,28,20,13,29,1,9,6
15:35:20:39654,16,18,-12,-8,-26,-16,6,2
15:35:20:45626,2,23,-37,8,24,7,-9,-10
15:35:20:53836,2,23,-37,8,24,7,-9,-10
15:35:20:54616,12,8,16,7,5,2,-6,5
15:35:20:60621,0,-7,10,-8,-24,-12,-16,-5
15:35:20:76368,0,-7,10,-8,-24,-12,-16,-5
15:35:20:77146,-51,-15,-8,-2,-1,-1,-2,-26
15:35:20:83194,0,-9,25,4,0,-1,-32,-11
15:35:20:98872,0,-9,25,4,0,-1,-32,-11
15:35:20:99673,8,-8,37,7,-4,0,-2,4
15:35:20:105624,-3,11,11,-2,-8,1,-5,-10
15:35:20:113827,-3,11,11,-2,-8,1,-5,-10
15:35:20:114632,-1,-5,7,-4,3,0,1,-5
15:35:20:120626,4,11,47,7,-3,0,6,2
15:35:20:136404,4,11,47,7,-3,0,6,2
15:35:20:137184,-7,-8,17,-3,-3,-4,1,12
15:35:20:143120,4,-3,-14,-4,-8,-2,12,-2
15:35:20:158886,4,-3,-14,-4,-8,-2,12,-2
15:35:20:159677,-5,4,-9,2,-4,0,-8,-1
15:35:20:165651,-11,5,7,5,-4,-3,6,-1
15:35:20:173907,-11,5,7,5,-4,-3,6,-1
15:35:20:174689,8,-2,26,-1,5,1,2,3
15:35:20:180684,-3,-15,-20,-5,0,-1,5,-3
15:35:20:196418,-3,-15,-20,-5,0,-1,5,-3
15:35:20:197142,3,-4,-27,-6,-1,0,0,2
15:35:20:203189,-20,-21,5,-8,-2,-1,-4,-7
15:35:20:211397,-20,-21,5,-8,-2,-1,-4,-7
15:35:20:212174,28,5,-4,0,-3,-1,-1,4
15:35:20:225609,0,-5,-4,-1,1,1,2,-1
15:35:20:233934,0,-5,-4,-1,1,1,2,-1
15:35:20:234677,-29,-11,-17,-1,2,-1,-1,-1
15:35:20:240644,5,8,-4,0,-6,-2,4,2
15:35:20:256393,5,8,-4,0,-6,-2,4,2
15:35:20:257150,17,-13,-6,-2,-3,1,-2,0
15:35:20:263127,1,-29,-23,-5,0,-3,-1,-2
15:35:20:278865,1,-29,-23,-5,0,-3,-1,-2
15:35:20:279627,-5,38,1,1,-1,0,1,0
15:35:20:285626,-17,7,4,-2,-4,-3,0,-15
15:35:20:293837,-17,7,4,-2,-4,-3,0,-15
15:35:20:294640,-9,-3,-7,2,2,4,5,3
15:35:20:300706,28,10,1,-1,-2,-1,11,-8
15:35:20:316487,28,10,1,-1,-2,-1,11,-8
15:35:20:317175,-3,-24,-5,-2,-6,-2,-5,8
15:35:20:323121,-4,1,-1,1,-1,1,-6,1
15:35:20:338835,-4,1,-1,1,-1,1,-6,1
15:35:20:339657,1,-8,-1,-1,-13,-4,6,4
15:35:20:345651,-3,-14,-7,1,24,8,-4,12
15:35:20:353875,-3,-14,-7,1,24,8,-4,12
15:35:20:354644,-5,-1,9,2,0,-3,-11,-13
15:35:20:360603,9,23,-9,-5,-5,-3,0,-7
15:35:20:376368,9,23,-9,-5,-5,-3,0,-7
15:35:20:377125,-1,-13,-6,-3,0,-2,-1,-2
15:35:20:383178,8,3,1,0,-2,-1,-2,-1
15:35:20:398825,8,3,1,0,-2,-1,-2,-1
15:35:20:399668,5,1,-11,-5,-10,-2,-1,-9
15:35:20:405669,1,2,3,7,-9,-2,-2,1
15:35:20:413852,1,2,3,7,-9,-2,-2,1
15:35:20:414617,-1,-1,-6,-10,5,5,9,16
15:35:20:420631,2,-2,-6,-1,4,-5,-3,-9
15:35:20:436438,2,-2,-6,-1,4,-5,-3,-9
15:35:20:437161,-7,2,6,2,1,-3,1,9
15:35:20:443145,-8,10,-9,1,-7,-4,2,38
15:35:20:458803,-8,10,-9,1,-7,-4,2,38
15:35:20:459578,0,-16,-2,0,7,-3,-2,4
15:35:20:465673,-2,4,1,1,-11,0,2,-6
15:35:20:473836,-2,4,1,1,-11,0,2,-6
15:35:20:474677,1,10,0,1,-5,-5,2,-13
15:35:20:480627,-6,0,5,-4,3,-1,-1,-5
15:35:20:496432,-6,0,5,-4,3,-1,-1,-5
15:35:20:497165,10,2,-4,1,0,1,2,-10
15:35:20:503172,-2,-30,-10,-7,-6,-4,-6,3
15:35:20:518999,-2,-30,-10,-7,-6,-4,-6,3
15:35:20:519721,10,-7,-2,2,3,-1,3,-3
15:35:20:525633,-7,-10,1,-4,-3,-2,-6,12
15:35:20:533966,-7,-10,1,-4,-3,-2,-6,12
15:35:20:534712,-2,-9,-10,7,6,0,-8,-1
15:35:20:540663,-6,0,-3,-5,9,3,4,-30
15:35:20:556414,-6,0,-3,-5,9,3,4,-30
15:35:20:557146,7,12,5,-2,-5,-2,-4,11
15:35:20:563199,1,4,2,-3,-5,-3,-15,-13
15:35:20:578931,1,4,2,-3,-5,-3,-15,-13
15:35:20:579708,-3,1,4,1,2,1,23,12
15:35:20:585717,4,6,4,-3,-3,0,4,10
15:35:20:593828,4,6,4,-3,-3,0,4,10
15:35:20:594612,-9,2,-14,3,-5,-5,-10,-4
15:35:20:608131,-4,4,-4,-3,1,0,12,-3
15:35:20:616436,-4,4,-4,-3,1,0,12,-3
15:35:20:617163,3,-24,-16,-9,7,1,-16,2
15:35:20:623141,9,1,-2,2,3,-3,-18,-18
15:35:20:638906,9,1,-2,2,3,-3,-18,-18
15:35:20:639681,-8,5,12,2,-8,0,1,-9
15:35:20:645657,-12,2,0,-5,-7,-1,3,7
15:35:20:653872,-12,2,0,-5,-7,-1,3,7
15:35:20:654651,-2,0,6,0,3,0,-5,-12
15:35:20:668211,0,8,7,-10,-13,-3,-2,-6
15:35:20:676338,0,8,7,-10,-13,-3,-2,-6
15:35:20:677130,-4,3,-3,5,-6,-4,-3,2
15:35:20:683146,-2,-4,16,12,14,8,5,-1
15:35:20:690690,-2,-4,16,12,14,8,5,-1
15:35:20:698195,-3,2,37,3,3,-5,-22,-5
15:35:20:705659,1,-5,-49,-3,-9,-6,9,0
15:35:20:713852,1,-5,-49,-3,-9,-6,9,0
15:35:20:714623,-2,4,15,3,7,0,-3,-4
15:35:20:728112,0,4,27,-3,2,-2,-1,5
15:35:20:736402,0,4,27,-3,2,-2,-1,5
15:35:20:737065,0,-5,-6,1,21,2,-3,-5
15:35:20:743116,-12,-3,17,18,7,1,-3,-10
15:35:20:750747,-12,-3,17,18,7,1,-3,-10
15:35:20:766329,-5,6,31,-9,-8,1,-13,-6
15:35:20:767100,1,-3,-20,-5,-29,-6,-32,-6
15:35:20:773824,1,-3,-20,-5,-29,-6,-32,-6
15:35:20:774645,-2,-8,-31,6,10,9,34,10
15:35:20:788177,0,-4,-7,-6,2,8,-4,3
15:35:20:796423,0,-4,-7,-6,2,8,-4,3
15:35:20:797189,0,2,-35,-1,2,-3,-30,-9
15:35:20:803152,1,-11,-36,-6,7,-5,8,1
15:35:20:810644,1,-11,-36,-6,7,-5,8,1
15:35:20:818217,0,1,0,-11,-12,0,11,2
15:35:20:825631,0,2,19,-1,0,-5,1,3
15:35:20:833907,0,2,19,-1,0,-5,1,3
15:35:20:834620,-1,2,-15,-8,-7,2,6,-9
15:35:20:848216,-1,4,-3,2,-6,14,3,4
15:35:20:856391,-1,4,-3,2,-6,14,3,4
15:35:20:857165,-4,-5,-4,-1,-13,-7,35,1
15:35:20:863176,3,0,6,8,35,6,-2,-16
15:35:20:870714,3,0,6,8,35,6,-2,-16
15:35:20:878113,4,32,5,0,-8,-3,2,-7
15:35:20:885686,-4,3,8,-8,-16,-10,3,6
15:35:20:893817,-4,3,8,-8,-16,-10,3,6
15:35:20:894605,-1,2,20,4,7,2,-9,3
15:35:20:908176,4,2,14,11,6,1,-9,1
15:35:20:916436,4,2,14,11,6,1,-9,1
15:35:20:917169,-5,-1,16,-4,-3,-6,-6,0
15:35:20:923118,0,-2,5,3,14,-1,19,14
15:35:20:930708,0,-2,5,3,14,-1,19,14
15:35:20:938148,-2,-17,-26,-2,-9,0,-9,16
15:35:20:945642,-3,-2,14,-8,-20,-11,-10,-12
15:35:20:953877,-3,-2,14,-8,-20,-11,-10,-12
15:35:20:954650,0,-16,-46,-5,-5,-7,-14,-23
15:35:20:968183,2,12,19,3,3,4,14,5
15:35:20:976342,2,12,19,3,3,4,14,5
15:35:20:977154,-1,-7,-22,-13,-18,-5,-2,4
15:35:20:983146,-3,-7,-7,2,15,1,-9,-8
15:35:20:990707,-3,-7,-7,2,15,1,-9,-8
15:35:20:998220,1,-1,-26,2,8,-1,6,8
15:35:21:5656,-3,-4,-14,-1,-16,1,-4,3
15:35:21:13858,-3,-4,-14,-1,-16,1,-4,3
15:35:21:14753,-5,-5,-5,-5,-1,0,30,3
15:35:21:28139,0,-6,-46,0,9,3,13,-5
15:35:21:36446,0,-6,-46,0,9,3,13,-5
15:35:21:37154,5,2,18,1,-8,3,-4,-1
15:35:21:43096,-7,-13,1,-8,-16,-7,-27,-9
15:35:21:50820,-7,-13,1,-8,-16,-7,-27,-9
15:35:21:58181,0,9,-12,-2,7,0,2,8
15:35:21:65670,1,2,4,-3,-9,-2,-6,0
15:35:21:73864,1,2,4,-3,-9,-2,-6,0
15:35:21:74653,0,-4,40,7,6,4,-9,-4
15:35:21:88181,0,1,-2,-8,1,-1,4,11
15:35:21:96473,0,1,-2,-8,1,-1,4,11
15:35:21:97174,-2,-4,0,3,-1,-1,-5,-3
15:35:21:103209,-5,-3,8,3,-1,-6,4,-3
15:35:21:110624,-5,-3,8,3,-1,-6,4,-3
15:35:21:118208,-1,-8,28,2,19,8,-20,-15
15:35:21:125641,-4,-2,-36,-11,-16,-5,20,0
15:35:21:133895,-4,-2,-36,-11,-16,-5,20,0
15:35:21:134633,5,-3,14,8,3,2,13,-5
15:35:21:148234,1,2,41,-8,-1,0,32,14
15:35:21:156379,1,2,41,-8,-1,0,32,14
15:35:21:157094,-2,7,-13,-4,-13,-1,-3,-2
15:35:21:163226,-3,-6,-27,-1,4,-16,-32,-7
15:35:21:170691,-3,-6,-27,-1,4,-16,-32,-7
15:35:21:178071,-2,1,9,-4,-8,-3,11,-4
15:35:21:185662,2,-2,-2,2,5,5,-2,-2
15:35:21:193853,2,-2,-2,2,5,5,-2,-2
15:35:21:194619,-1,7,-11,-3,5,-12,-13,3
15:35:21:208156,0,7,0,7,13,10,-21,-16
15:35:21:216423,0,7,0,7,13,10,-21,-16
15:35:21:217107,-5,-10,-18,-7,-7,0,-12,-1
15:35:21:223105,-9,-2,18,-4,-20,-7,-11,-8
15:35:21:230719,-9,-2,18,-4,-20,-7,-11,-8
15:35:21:246378,-1,1,20,3,-5,4,-10,-3
15:35:21:247044,3,3,26,9,38,6,-7,-5
15:35:21:253851,3,3,26,9,38,6,-7,-5
15:35:21:254637,-2,-2,-26,-9,-10,-7,-10,-2
15:35:21:268255,-1,2,7,-7,-16,-4,15,0
15:35:21:276360,-1,2,7,-7,-16,-4,15,0
15:35:21:277114,3,0,-5,-3,-6,-5,3,4
15:35:21:283189,0,-1,-8,-5,-13,0,-10,-3
15:35:21:290704,0,-1,-8,-5,-13,0,-10,-3
15:35:21:298153,0,5,23,2,-2,-3,1,13
15:35:21:305590,-1,3,-7,-7,16,2,5,1
15:35:21:313886,-1,3,-7,-7,16,2,5,1
15:35:21:314661,-2,-7,-18,9,11,7,9,-5
15:35:21:328147,-1,4,21,-3,-20,-5,0,2
15:35:21:336421,-1,4,21,-3,-20,-5,0,2
15:35:21:337161,0,-1,20,7,12,2,6,4
15:35:21:343081,-3,-8,-40,-4,-16,-3,9,-1
15:35:21:350772,-3,-8,-40,-4,-16,-3,9,-1
15:35:21:358145,2,2,8,4,-5,7,13,1
15:35:21:365662,1,8,9,8,15,8,-7,-1
15:35:21:373877,1,8,9,8,15,8,-7,-1
15:35:21:374688,4,-7,-10,0,4,-3,-28,-14
15:35:21:388161,-2,-1,-25,-7,-13,-4,11,8
15:35:21:396425,-2,-1,-25,-7,-13,-4,11,8
15:35:21:397188,-8,-2,3,-2,5,-9,-12,2
15:35:21:403173,-2,-11,-3,9,-5,2,-1,-4
15:35:21:410689,-2,-11,-3,9,-5,2,-1,-4
15:35:21:418196,4,5,13,-1,-6,1,1,0
15:35:21:425643,2,-9,-2,-10,-19,-7,-2,-1
15:35:21:433972,2,-9,-2,-10,-19,-7,-2,-1
15:35:21:434682,-4,-6,-1,-4,-11,-5,3,-4
15:35:21:448196,-2,-12,14,8,15,2,-11,-6
15:35:21:456383,-2,-12,14,8,15,2,-11,-6
15:35:21:457157,-3,0,0,-2,25,5,5,-6
15:35:21:463153,1,2,-10,-12,-13,-2,40,13
15:35:21:470706,1,2,-10,-12,-13,-2,40,13
15:35:21:478140,-1,8,10,-7,-19,-8,8,3
15:35:21:485676,1,10,23,0,20,9,-5,-6
15:35:21:493839,1,10,23,0,20,9,-5,-6
15:35:21:494629,0,-21,-32,-6,0,7,-2,6
15:35:21:508136,1,3,-7,7,12,0,13,4
15:35:21:516353,1,3,-7,7,12,0,13,4
15:35:21:517118,4,8,12,4,6,10,-7,-11
15:35:21:531434,-3,2,7,-3,-13,-5,-19,3
15:35:21:532224,-3,2,7,-3,-13,-5,-19,3
15:35:21:538131,0,-1,-29,-6,-7,-6,3,-5
15:35:21:545677,-1,2,26,-1,5,-6,-3,-5
15:35:21:553195,-1,2,26,-1,5,-6,-3,-5
15:35:21:560690,-5,13,-6,-7,-6,-9,8,-2
15:35:21:568212,3,-3,-17,28,47,10,16,0
15:35:21:576359,3,-3,-17,28,47,10,16,0
15:35:21:577131,-3,-2,24,8,2,-3,11,0
15:35:21:591320,-1,-3,-17,-16,-31,-9,-17,-7
15:35:21:592121,-1,-3,-17,-16,-31,-9,-17,-7
15:35:21:598182,3,-2,-7,-5,8,3,-9,-5
15:35:21:605652,-5,-4,24,-2,-18,-4,-14,0
15:35:21:613250,-5,-4,24,-2,-18,-4,-14,0
15:35:21:620629,-1,-2,12,0,4,0,-20,-1
15:35:21:628096,0,0,12,-2,1,1,-3,-5
15:35:21:636423,0,0,12,-2,1,1,-3,-5
15:35:21:637137,-1,-3,-8,0,-3,-1,-7,-3
15:35:21:651385,-3,-11,-30,0,1,-2,-4,-2
15:35:21:652187,-3,-11,-30,0,1,-2,-4,-2
15:35:21:658102,2,-5,-14,5,5,-7,4,0
15:35:21:665655,-4,-2,-13,-11,-23,-7,-3,-4
15:35:21:673201,-4,-2,-13,-11,-23,-7,-3,-4
15:35:21:680676,-2,4,5,-7,-6,0,-15,-3
15:35:21:688124,1,-1,-14,9,25,9,-4,9
15:35:21:696383,1,-1,-14,9,25,9,-4,9
15:35:21:697146,-5,-4,-7,-6,-11,-4,4,4
15:35:21:711404,-3,2,9,-10,-29,-4,2,-7
15:35:21:712157,-3,2,9,-10,-29,-4,2,-7
15:35:21:718156,0,-3,-23,9,2,-1,12,1
15:35:21:725598,0,-2,-14,-3,8,2,4,2
15:35:21:733224,0,-2,-14,-3,8,2,4,2
15:35:21:740648,-4,-3,6,-6,-21,-4,-9,-3
15:35:21:748198,1,1,12,-2,-12,-5,-1,0
15:35:21:756399,1,1,12,-2,-12,-5,-1,0
15:35:21:757198,0,5,14,3,6,1,-13,-1
15:35:21:771408,-5,6,31,5,-1,-5,-1,0
15:35:21:772179,-5,6,31,5,-1,-5,-1,0
15:35:21:778151,-2,-3,11,-6,-5,-2,-5,0
15:35:21:785649,1,-4,10,-9,-2,-7,-18,-5
15:35:21:793184,1,-4,10,-9,-2,-7,-18,-5
15:35:21:800668,1,3,9,2,13,-6,4,-1
15:35:21:808116,-6,-5,-22,4,20,12,26,4
15:35:21:816323,-6,-5,-22,4,20,12,26,4
15:35:21:817084,0,-6,-15,-12,-22,-5,-8,-4
15:35:21:831500,2,-2,-19,-5,7,-6,-7,0
15:35:21:832191,2,-2,-19,-5,7,-6,-7,0
15:35:21:838163,-1,-2,-19,2,1,3,7,0
15:35:21:845625,4,9,32,5,-3,2,-2,1
15:35:21:853173,4,9,32,5,-3,2,-2,1
15:35:21:860650,-5,-2,-5,-5,-6,-2,-1,-2
15:35:21:868166,1,-1,4,-3,-13,-2,-6,-2
15:35:21:876373,1,-1,4,-3,-13,-2,-6,-2
15:35:21:877171,2,0,-7,12,13,3,4,0
15:35:21:891340,-3,-2,-9,-3,3,-5,-8,-3
15:35:21:892141,-3,-2,-9,-3,3,-5,-8,-3
15:35:21:898197,-4,-7,8,3,-26,2,5,1
15:35:21:905656,1,-4,-27,-3,24,14,-2,0
15:35:21:913206,1,-4,-27,-3,24,14,-2,0
15:35:21:920640,-2,4,-2,-2,7,-4,-3,-1
15:35:21:928069,-1,-4,-67,-6,-10,-5,-6,-1
15:35:21:936434,-1,-4,-67,-6,-10,-5,-6,-1
15:35:21:937177,-3,-3,-2,-3,-7,2,-1,-1
15:35:21:951890,-7,-1,29,-1,-5,-6,-3,-8
15:35:21:952611,-7,-1,29,-1,-5,-6,-3,-8
15:35:21:958101,0,-2,27,-6,0,2,4,2
15:35:21:965594,5,0,-2,-1,-11,0,-9,-2
15:35:21:973215,5,0,-2,-1,-11,0,-9,-2
15:35:21:980674,-8,-3,8,2,15,14,25,2
15:35:21:988156,-1,-2,7,0,-1,-8,5,-2
15:35:21:996406,-1,-2,7,0,-1,-8,5,-2
15:35:21:997161,2,4,-13,9,16,-7,-9,1
15:35:22:11365,0,-14,-13,-2,-8,1,-2,-1
15:35:22:12143,0,-14,-13,-2,-8,1,-2,-1
15:35:22:26268,-1,1,-9,-14,-11,-8,-4,-8
15:35:22:27057,0,3,-26,0,0,-2,-2,0
15:35:22:33210,0,3,-26,0,0,-2,-2,0
15:35:22:40628,-1,0,28,-8,-1,-2,-3,-2
15:35:22:48128,-1,-3,-5,3,12,-3,2,1
15:35:22:56385,-1,-3,-5,3,12,-3,2,1
15:35:22:57166,-2,-6,-15,-6,5,-2,-3,-2
15:35:22:71431,3,1,17,8,25,15,21,7
15:35:22:72096,3,1,17,8,25,15,21,7
15:35:22:78076,-1,-6,-6,-6,-24,-5,-10,0
15:35:22:85678,6,1,20,-2,-11,-1,-8,-6
15:35:22:93146,6,1,20,-2,-11,-1,-8,-6
15:35:22:100697,-4,1,-8,0,-4,-3,3,2
15:35:22:108151,-3,5,52,0,-15,-1,-5,-5
15:35:22:116484,-3,5,52,0,-15,-1,-5,-5
15:35:22:117182,0,-2,-15,2,-2,-4,-4,-7
15:35:22:131416,2,1,-21,-2,6,-2,-1,0
15:35:22:132177,2,1,-21,-2,6,-2,-1,0
15:35:22:138177,-1,3,13,7,13,3,0,1
15:35:22:145615,-2,2,6,-14,-30,-14,-12,-3
15:35:22:153270,-2,2,6,-14,-30,-14,-12,-3
15:35:22:160637,0,2,-3,-3,3,-3,-1,0
15:35:22:168177,-5,-6,-9,7,49,17,-8,-5
15:35:22:176301,-5,-6,-9,7,49,17,-8,-5
15:35:22:177115,2,-7,-15,-4,-6,-3,-7,-3
15:35:22:191420,5,2,4,-1,-8,-5,-1,-6
15:35:22:192192,5,2,4,-1,-8,-5,-1,-6
15:35:22:198183,2,-1,-16,-3,-9,-1,2,-5
15:35:22:205671,-5,0,-15,-1,-1,-1,-8,-3
15:35:22:213244,-5,0,-15,-1,-1,-1,-8,-3
15:35:22:220679,0,-2,23,3,2,-5,2,5
15:35:22:228136,5,-2,6,2,-2,0,-2,4
15:35:22:236395,5,-2,6,2,-2,0,-2,4
15:35:22:237090,-2,3,-30,3,0,-2,-6,-2
15:35:22:251362,-8,-4,-20,-12,-19,-11,-2,1
15:35:22:252123,-8,-4,-20,-12,-19,-11,-2,1
15:35:22:258156,0,4,28,17,32,2,0,4
15:35:22:265688,-5,7,-10,2,-12,-6,5,-2
15:35:22:281437,-5,7,-10,2,-12,-6,5,-2
15:35:22:282169,-4,-11,-22,-12,-5,1,-2,6
15:35:22:288169,-1,1,-2,8,8,2,4,7
15:35:22:296434,-1,1,-2,8,8,2,4,7
15:35:22:297091,-5,-30,-19,-5,-2,2,1,-6
15:35:22:311322,3,-5,38,-7,-16,-6,0,-5
15:35:22:312140,3,-5,38,-7,-16,-6,0,-5
15:35:22:318202,1,2,9,1,-4,-3,-3,-2
15:35:22:325625,-4,3,-10,-10,-15,0,3,-2
15:35:22:333225,-4,3,-10,-10,-15,0,3,-2
15:35:22:340618,2,10,11,5,13,4,1,-3
15:35:22:348238,1,4,-5,-3,-4,-7,-4,-10
15:35:22:356421,1,4,-5,-3,-4,-7,-4,-10
15:35:22:357183,-10,10,19,9,19,9,4,-1
15:35:22:371380,-1,-4,-2,7,26,8,7,15
15:35:22:372166,-1,-4,-2,7,26,8,7,15
15:35:22:378160,-2,2,1,-14,-23,-7,-3,0
15:35:22:385716,-17,-3,-10,-2,-11,-1,2,-3
15:35:22:393232,-17,-3,-10,-2,-11,-1,2,-3
15:35:22:400717,2,5,11,3,-1,3,0,1
15:35:22:408133,0,3,29,-7,-21,-6,-1,-5
15:35:22:416490,0,3,29,-7,-21,-6,-1,-5
15:35:22:417191,5,-3,8,7,15,-2,-7,-6
15:35:22:431430,2,-1,-7,9,35,4,-1,-2
15:35:22:432203,2,-1,-7,9,35,4,-1,-2
15:35:22:438127,3,0,-13,-13,-21,-11,-7,-2
15:35:22:445656,1,3,0,-2,-33,-3,2,3
15:35:22:453234,1,3,0,-2,-33,-3,2,3
15:35:22:460622,-1,-2,-12,8,21,8,-3,8
15:35:22:468174,-1,-7,-17,-4,-3,-2,-2,4
15:35:22:475699,-1,-7,-17,-4,-3,-2,-2,4
15:35:22:483204,4,1,8,-3,-13,-4,1,-2
15:35:22:491299,5,1,-24,-1,0,0,1,5
15:35:22:492115,5,1,-24,-1,0,0,1,5
15:35:22:498230,-2,-2,30,-3,-15,-7,-7,-2
15:35:22:513908,2,-1,-4,22,37,9,19,-2
15:35:22:514663,2,-1,-4,22,37,9,19,-2
15:35:22:520659,0,4,6,2,8,3,-3,-1
15:35:22:536413,-6,-10,-34,-16,-35,-5,-21,-9
15:35:22:537164,-6,-10,-34,-16,-35,-5,-21,-9
15:35:22:543118,-7,4,14,4,-2,3,2,-8
15:35:22:551424,1,-3,29,-9,-11,-4,0,-3
15:35:22:552175,1,-3,29,-9,-11,-4,0,-3
15:35:22:558143,0,-7,-58,-11,-14,-4,1,1
15:35:22:573856,-3,0,-12,1,7,-1,-7,-4
15:35:22:574651,-3,0,-12,1,7,-1,-7,-4
15:35:22:580645,-2,-2,-4,-2,0,0,1,-4
15:35:22:588162,-4,-4,7,-7,-10,-3,-1,3
15:35:22:595718,-4,-4,7,-7,-10,-3,-1,3
15:35:22:603154,2,7,23,5,4,4,11,3
15:35:22:611307,0,3,18,-11,-26,-9,-8,-4
15:35:22:612133,0,3,18,-11,-26,-9,-8,-4
15:35:22:618243,0,-1,2,13,18,10,-1,1
15:35:22:633880,2,3,34,4,10,0,-10,-2
15:35:22:634727,2,3,34,4,10,0,-10,-2
15:35:22:640675,-4,-2,-24,-10,-20,-7,-2,1
15:35:22:648161,1,-4,-23,-7,-7,3,4,9
15:35:22:655708,1,-4,-23,-7,-7,3,4,9
15:35:22:663249,-9,-16,5,0,2,-2,-2,1
15:35:22:671365,-4,1,-24,-3,3,-4,-6,-2
15:35:22:672127,-4,1,-24,-3,3,-4,-6,-2
15:35:22:678144,11,5,19,1,17,2,21,4
15:35:22:693878,-1,-1,11,14,18,5,6,-4
15:35:22:694646,-1,-1,11,14,18,5,6,-4
15:35:22:700682,2,1,-6,-17,-36,-15,-5,-3
15:35:22:708172,1,-5,38,14,43,10,4,-12
15:35:22:715691,1,-5,38,14,43,10,4,-12
15:35:22:723135,12,-2,-14,-4,-8,-8,-18,21
15:35:22:731402,-4,0,-20,-4,-13,-3,1,3
15:35:22:732153,-4,0,-20,-4,-13,-3,1,3
15:35:22:738105,-5,-2,36,0,-2,0,-3,-11
15:35:22:753819,4,-4,1,0,-1,0,-1,4
15:35:22:754640,4,-4,1,0,-1,0,-1,4
15:35:22:760585,-7,1,2,-8,-10,-3,-16,-7
15:35:22:768152,1,4,18,6,15,3,3,-5
15:35:22:775669,1,4,18,6,15,3,3,-5
15:35:22:800159,-1,3,-6,1,10,1,4,-4
15:35:22:800911,-8,-5,-27,-5,-22,-3,-4,-3
15:35:22:801810,-8,-5,-27,-5,-22,-3,-4,-3
15:35:22:802555,1,-3,-15,2,-1,2,6,-5
15:35:22:813859,-3,1,-6,1,-7,-4,17,14
15:35:22:814658,-3,1,-6,1,-7,-4,17,14
15:35:22:820641,-11,3,2,-3,1,1,-4,-1
15:35:22:828133,1,-2,-40,-4,-1,-4,-7,1
15:35:22:835739,1,-2,-40,-4,-1,-4,-7,1
15:35:22:843143,2,-1,-6,0,3,5,3,-4
15:35:22:851394,1,4,8,-4,-2,-7,-5,-3
15:35:22:852147,1,4,8,-4,-2,-7,-5,-3
15:35:22:858137,-1,-1,10,6,-4,6,5,1
15:35:22:873828,-1,2,2,-2,1,1,3,1
15:35:22:874657,-1,2,2,-2,1,1,3,1
15:35:22:880656,-10,-5,-19,-8,-23,-8,3,-4
15:35:22:888166,9,2,4,0,7,3,-1,-5
15:35:22:895658,9,2,4,0,7,3,-1,-5
15:35:22:903137,-4,3,31,0,17,0,-5,-4
15:35:22:911303,-15,-1,1,-1,-4,-6,-20,-3
15:35:22:912143,-15,-1,1,-1,-4,-6,-20,-3
15:35:22:918105,6,-4,-23,-3,-5,8,13,8
15:35:22:933859,8,1,-16,-4,-9,1,-11,-2
15:35:22:934615,8,1,-16,-4,-9,1,-11,-2
15:35:22:940612,-10,-5,-6,2,5,-13,-2,-2
15:35:22:948143,9,-1,-6,-1,-3,-1,8,0
15:35:22:955709,9,-1,-6,-1,-3,-1,8,0
15:35:22:963121,-5,-4,-8,2,-4,-1,1,-2
15:35:22:971399,0,-1,14,4,7,-2,3,-3
15:35:22:972164,0,-1,14,4,7,-2,3,-3
15:35:22:978154,50,21,-2,1,3,5,0,6
15:35:22:993837,-75,-29,-9,-6,0,-1,-7,-8
15:35:22:994655,-75,-29,-9,-6,0,-1,-7,-8
15:35:23:668,-12,-6,-30,-1,0,1,5,-4
15:35:23:8118,22,10,-48,0,4,-3,-12,6
15:35:23:15685,22,10,-48,0,4,-3,-12,6
15:35:23:23135,-12,6,2,5,2,-2,-14,-3
15:35:23:31446,-6,1,75,2,1,7,11,-3
15:35:23:32187,-6,1,75,2,1,7,11,-3
15:35:23:38146,0,-19,-12,-8,-5,-15,-6,-3
15:35:23:53850,11,7,-3,1,0,-5,-8,4
15:35:23:54623,11,7,-3,1,0,-5,-8,4
15:35:23:60652,-2,-4,-26,-1,11,4,12,1
15:35:23:68189,2,9,29,-1,-2,-1,0,0
15:35:23:75691,2,9,29,-1,-2,-1,0,0
15:35:23:92023,-4,-13,-39,-3,-4,1,-10,-4
15:35:23:92803,11,4,-5,6,3,-2,-4,1
15:35:23:93630,11,4,-5,6,3,-2,-4,1
15:35:23:98169,4,17,84,6,-11,-7,-4,0
15:35:23:113870,-1,-22,-24,-15,-6,4,5,-2
15:35:23:114664,-1,-22,-24,-15,-6,4,5,-2
15:35:23:120627,-1,6,49,2,-5,1,9,-3
15:35:23:128107,11,-11,17,-2,-9,-2,36,-4
15:35:23:135750,11,-11,17,-2,-9,-2,36,-4
15:35:23:143125,-16,-13,-54,-6,3,13,12,-2
15:35:23:151338,-10,-14,-39,-5,-6,-4,-9,2
15:35:23:152108,-10,-14,-39,-5,-6,-4,-9,2
15:35:23:158152,-5,-12,-21,-2,-2,-11,-30,-6
15:35:23:173880,6,25,8,-1,4,3,10,2
15:35:23:174681,6,25,8,-1,4,3,10,2
15:35:23:180658,-1,-15,4,-6,-2,-5,-15,-1
15:35:23:188148,1,8,19,6,2,0,-5,-3
15:35:23:195667,1,8,19,6,2,0,-5,-3
15:35:23:203170,-4,-7,-12,-24,-13,-8,-2,-4
15:35:23:211296,5,-3,-18,8,18,-1,-1,2
15:35:23:212136,5,-3,-18,8,18,-1,-1,2
15:35:23:218102,2,6,8,1,3,9,15,5
15:35:23:233875,-5,13,18,4,-11,-6,-24,-4
15:35:23:234642,-5,13,18,4,-11,-6,-24,-4
15:35:23:240639,0,11,-13,-7,-4,-5,-7,-3
15:35:23:256427,0,11,-13,-7,-4,-5,-7,-3
15:35:23:257066,0,2,-2,1,0,5,-3,-2
15:35:23:263175,1,8,11,-2,4,-1,-2,0
15:35:23:271348,1,8,11,-2,4,-1,-2,0
15:35:23:272139,-10,-29,-20,-8,1,1,0,-3
15:35:23:278171,3,1,18,8,-4,-1,2,0
15:35:23:293834,3,1,18,8,-4,-1,2,0
15:35:23:294619,-3,2,-7,3,-7,-3,-4,-1
15:35:23:300663,0,20,11,4,0,1,-3,0
15:35:23:316420,0,20,11,4,0,1,-3,0
15:35:23:317201,-1,-5,-36,5,-2,-2,-2,0
15:35:23:323138,-4,-10,-13,-28,-2,-2,3,-2
15:35:23:331420,-4,-10,-13,-28,-2,-2,3,-2
15:35:23:332111,2,14,40,17,5,2,4,-1
15:35:23:338163,5,-2,-11,-24,-3,-2,-2,0
15:35:23:353899,5,-2,-11,-24,-3,-2,-2,0
15:35:23:354653,0,-8,-4,-13,-10,-9,-10,-2
15:35:23:360630,3,4,24,22,21,-2,21,4
15:35:23:376405,3,4,24,22,21,-2,21,4
15:35:23:377123,-1,-26,-15,-5,-1,0,4,-3
15:35:23:383153,-6,-5,-11,6,-7,-1,-7,0
15:35:23:391403,-6,-5,-11,6,-7,-1,-7,0
15:35:23:392156,0,7,11,-14,-4,-3,-3,-1
15:35:23:405634,-2,-12,2,9,1,2,-4,-3
15:35:23:413896,-2,-12,2,9,1,2,-4,-3
15:35:23:414683,-1,-13,16,-21,-7,2,-3,1
15:35:23:420640,2,1,4,1,-8,-2,-1,-1
15:35:23:436461,2,1,4,1,-8,-2,-1,-1
15:35:23:437151,-4,7,-2,4,-6,-3,1,-4
15:35:23:443120,-6,-7,-12,6,2,-2,-5,-9
15:35:23:451440,-6,-7,-12,6,2,-2,-5,-9
15:35:23:452183,-2,-1,-14,-2,-1,-2,-3,-10
15:35:23:465668,2,3,-2,-1,-12,-2,-3,4
15:35:23:473843,2,3,-2,-1,-12,-2,-3,4
15:35:23:474673,19,16,8,15,7,3,0,-7
15:35:23:480657,-23,3,14,-3,-9,-2,0,2
15:35:23:496446,-23,3,14,-3,-9,-2,0,2
15:35:23:497139,-1,8,0,15,8,-1,-5,-3
15:35:23:503159,4,1,1,0,3,0,-3,-2
15:35:23:511382,4,1,1,0,3,0,-3,-2
15:35:23:512159,0,0,-25,-4,-4,0,7,17
15:35:23:534556,0,7,-2,1,-2,-2,-8,-14
15:35:23:535332,0,7,-2,1,-2,-2,-8,-14
15:35:23:536098,3,-1,-6,-1,2,0,-2,-5
15:35:23:540666,9,-3,-5,2,-1,1,1,4
15:35:23:556354,9,-3,-5,2,-1,1,1,4
15:35:23:557133,-3,-2,10,-2,3,-1,2,6
15:35:23:563181,-57,-19,-4,2,0,-3,-4,-4
15:35:23:571359,-57,-19,-4,2,0,-3,-4,-4
15:35:23:572150,-6,-5,10,1,-4,1,1,-3
15:35:23:585747,-9,-1,6,0,-2,-2,-3,-2
15:35:23:593610,-9,-1,6,0,-2,-2,-3,-2
15:35:23:601343,-19,-11,-49,-27,2,-2,-3,-9
15:35:23:602114,18,-10,-26,-4,-1,2,3,4
15:35:23:616445,18,-10,-26,-4,-1,2,3,4
15:35:23:617162,4,-19,9,9,-3,1,-2,-2
15:35:23:623149,7,-5,-57,-12,5,1,1,0
15:35:23:631377,7,-5,-57,-12,5,1,1,0
15:35:23:632126,0,-18,-12,-4,-4,-3,2,0
15:35:23:645612,36,28,21,6,7,0,3,9
15:35:23:653915,36,28,21,6,7,0,3,9
15:35:23:654713,-1,10,37,0,-7,-6,-3,1
15:35:23:660646,0,-1,-6,13,9,0,-2,-7
15:35:23:676406,0,-1,-6,13,9,0,-2,-7
15:35:23:677153,8,6,-19,-12,-12,-2,0,6
15:35:23:683153,-3,-30,-48,-9,-10,-8,-3,-5
15:35:23:691322,-3,-30,-48,-9,-10,-8,-3,-5
15:35:23:692130,-9,6,-4,9,11,2,-2,-5
15:35:23:705661,-27,-21,-13,0,-1,-2,-5,-4
15:35:23:713904,-27,-21,-13,0,-1,-2,-5,-4
15:35:23:714719,29,-12,-28,-4,-7,0,-2,2
15:35:23:720649,-9,9,32,0,-3,0,3,7
15:35:23:736433,-9,9,32,0,-3,0,3,7
15:35:23:737177,-28,0,25,-5,3,4,1,-13
15:35:23:743110,14,11,13,1,1,6,1,3
15:35:23:751432,14,11,13,1,1,6,1,3
15:35:23:752150,9,13,7,-2,6,0,1,2
15:35:23:765670,5,-4,22,-3,-5,-1,-2,0
15:35:23:773872,5,-4,22,-3,-5,-1,-2,0
15:35:23:774705,-4,6,14,7,-8,-7,-3,-1
15:35:23:780679,28,25,-9,6,21,7,2,0
15:35:23:796481,28,25,-9,6,21,7,2,0
15:35:23:797192,1,-47,28,-3,-4,-7,-3,-3
15:35:23:803090,-30,20,18,-8,-13,-6,-6,-8
15:35:23:811433,-30,20,18,-8,-13,-6,-6,-8
15:35:23:812119,11,38,-16,-9,-3,1,-4,1
15:35:23:825608,-8,19,7,4,-2,-1,-5,-24
15:35:23:833881,-8,19,7,4,-2,-1,-5,-24
15:35:23:834601,-9,18,10,6,0,-1,1,-1
15:35:23:840625,19,1,31,4,2,1,3,2
15:35:23:856422,19,1,31,4,2,1,3,2
15:35:23:857081,-6,-22,-7,-3,-4,5,-1,-6
15:35:23:863146,39,-3,-2,4,-1,-8,3,29
15:35:23:871439,39,-3,-2,4,-1,-8,3,29
15:35:23:872172,-65,-53,-31,-1,7,-1,-1,-21
15:35:23:885638,-80,-19,44,-11,-14,-10,-18,-40
15:35:23:902029,-80,-19,44,-11,-14,-10,-18,-40
15:35:23:902805,-14,13,-2,-2,1,-1,-3,-6
15:35:23:903601,37,-1,-19,2,-5,1,8,17
15:35:23:916465,37,-1,-19,2,-5,1,8,17
15:35:23:917194,16,-11,-34,-2,2,-2,-2,2
15:35:23:923164,3,-10,-16,-5,0,0,0,4
15:35:23:931387,3,-10,-16,-5,0,0,0,4
15:35:23:932103,4,27,12,2,-3,-1,2,45
15:35:23:945637,-55,-7,-24,-5,4,8,-3,-15
15:35:23:953934,-55,-7,-24,-5,4,8,-3,-15
15:35:23:954714,21,-24,-21,-8,-10,-11,0,2
15:35:23:960649,56,5,-40,-7,-21,-9,-1,-11
15:35:23:976398,56,5,-40,-7,-21,-9,-1,-11
15:35:23:977157,-67,16,14,0,14,4,-11,-30
15:35:23:983176,3,-24,-2,3,-2,7,4,5
15:35:23:991330,3,-24,-2,3,-2,7,4,5
15:35:23:992102,77,21,21,10,-5,3,7,17
15:35:24:5667,-34,-14,18,-4,-7,-5,-4,1
15:35:24:13871,-34,-14,18,-4,-7,-5,-4,1
15:35:24:14679,-7,3,18,0,-7,-1,2,-4
15:35:24:20632,61,-17,-25,3,-5,-6,0,24
15:35:24:36442,61,-17,-25,3,-5,-6,0,24
15:35:24:37166,-3,3,-3,4,11,-5,-2,-2
15:35:24:43109,36,19,29,0,-7,7,12,-1
15:35:24:51484,36,19,29,0,-7,7,12,-1
15:35:24:52155,-63,-33,-42,-1,-18,-13,-23,-9
15:35:24:65642,-7,5,8,3,3,-1,-7,-4
15:35:24:73867,-7,5,8,3,3,-1,-7,-4
15:35:24:74673,16,-4,10,-5,-10,6,2,-2
15:35:24:80663,-23,9,-1,-3,5,1,-1,-1
15:35:24:96446,-23,9,-1,-3,5,1,-1,-1
15:35:24:97135,9,9,24,12,5,0,-2,2
15:35:24:103142,-10,5,13,-3,-6,-7,-3,-6
15:35:24:111398,-10,5,13,-3,-6,-7,-3,-6
15:35:24:112146,43,12,16,-3,-1,5,8,-3
15:35:24:125603,-13,-14,-44,3,24,0,1,7
15:35:24:133924,-13,-14,-44,3,24,0,1,7
15:35:24:134626,-3,12,17,-5,-3,4,1,7
15:35:24:140643,-2,17,52,4,-15,-7,1,-5
15:35:24:156430,-2,17,52,4,-15,-7,1,-5
15:35:24:157080,6,15,-33,-1,42,16,7,10
15:35:24:163198,-5,-17,-27,-8,1,-3,-5,1
15:35:24:171410,-5,-17,-27,-8,1,-3,-5,1
15:35:24:172153,-27,-77,-57,-38,-31,-19,-9,-55
15:35:24:185678,12,-13,-23,2,5,3,-2,-1
15:35:24:193844,12,-13,-23,2,5,3,-2,-1
15:35:24:194621,9,39,-3,32,34,3,0,1
15:35:24:200672,-4,1,0,5,4,7,13,2
15:35:24:216385,-4,1,0,5,4,7,13,2
15:35:24:217131,-3,-93,48,-4,-20,-11,-6,0
15:35:24:223108,1,18,32,2,-12,-11,-2,7
15:35:24:231428,1,18,32,2,-12,-11,-2,7
15:35:24:232079,19,32,15,-9,-7,7,-2,0
15:35:24:245654,7,-59,0,-16,-5,0,-3,1
15:35:24:253853,7,-59,0,-16,-5,0,-3,1
15:35:24:254650,2,-50,13,6,3,-7,1,11
15:35:24:260583,28,31,10,12,6,8,11,5
15:35:24:276330,28,31,10,12,6,8,11,5
15:35:24:277116,-3,10,-17,10,5,-1,-12,-44
15:35:24:283208,12,-8,7,16,20,-1,-11,9
15:35:24:291331,12,-8,7,16,20,-1,-11,9
15:35:24:292122,77,28,18,-49,-20,0,-4,-53
15:35:24:305665,-16,16,17,-23,-18,-1,-2,-15
15:35:24:313864,-16,16,17,-23,-18,-1,-2,-15
15:35:24:314637,30,7,-6,18,10,17,20,50
15:35:24:320703,33,49,38,-4,0,-2,-6,-4
15:35:24:336398,33,49,38,-4,0,-2,-6,-4
15:35:24:337156,-17,28,-9,-7,-13,-4,0,76
15:35:24:343164,-60,-4,-19,8,-4,1,-1,-7
15:35:24:350723,-60,-4,-19,8,-4,1,-1,-7
15:35:24:358146,4,32,65,9,-1,-2,11,26
15:35:24:365610,-19,-46,-11,2,6,-4,-5,11
15:35:24:373860,-19,-46,-11,2,6,-4,-5,11
15:35:24:374651,-38,-6,-66,-11,-11,-6,-24,-31
15:35:24:388208,23,6,-94,-5,12,-2,2,-16
15:35:24:396359,23,6,-94,-5,12,-2,2,-16
15:35:24:397128,24,16,6,7,-7,-9,8,7
15:35:24:403112,97,23,-7,8,15,3,6,27
15:35:24:410667,97,23,-7,8,15,3,6,27
15:35:24:418160,8,-15,-51,1,14,-7,-14,30
15:35:24:425610,-62,1,23,-9,-15,-2,-6,1
15:35:24:433936,-62,1,23,-9,-15,-2,-6,1
15:35:24:434620,15,33,1,4,-9,-2,62,-1
15:35:24:448159,-52,-30,10,-18,-1,-6,-3,-24
15:35:24:456386,-52,-30,10,-18,-1,-6,-3,-24
15:35:24:457088,-52,-38,-3,-1,2,1,-19,-14
15:35:24:463170,-20,8,9,1,-7,-4,-3,-21
15:35:24:470731,-20,8,9,1,-7,-4,-3,-21
15:35:24:478117,-94,-7,-33,9,7,6,7,-6
15:35:24:485680,16,-1,35,-2,7,7,-36,44
15:35:24:493840,16,-1,35,-2,7,7,-36,44
15:35:24:494647,24,16,34,-16,10,-8,-11,7
15:35:24:508155,-11,-13,-11,0,-15,1,3,-40
15:35:24:516450,-11,-13,-11,0,-15,1,3,-40
15:35:24:517172,-16,-10,-23,-3,-5,0,-7,-37
15:35:24:523132,50,15,2,-7,0,-6,-16,0
15:35:24:530729,50,15,2,-7,0,-6,-16,0
15:35:24:538171,28,-11,31,-3,-27,-9,-2,51
15:35:24:545623,-47,30,-42,7,3,3,8,9
15:35:24:553834,-47,30,-42,7,3,3,8,9
15:35:24:554631,-53,-2,-15,-3,0,-1,2,-7
15:35:24:568213,35,23,-17,-7,42,12,2,-61
15:35:24:576411,35,23,-17,-7,42,12,2,-61
15:35:24:577131,21,8,26,1,-2,4,-27,-79
15:35:24:583181,8,32,28,2,-14,-5,10,25
15:35:24:590669,8,32,28,2,-14,-5,10,25
15:35:24:598267,-25,-10,8,-2,-3,-3,3,41
15:35:24:605664,-28,-23,12,-1,-17,-8,3,-12
15:35:24:613852,-28,-23,12,-1,-17,-8,3,-12
15:35:24:614629,32,23,13,9,-15,2,2,1
15:35:24:628157,-12,-42,1,-7,6,1,7,-8
15:35:24:636404,-12,-42,1,-7,6,1,7,-8
15:35:24:637156,-49,-48,-60,0,23,0,-3,23
15:35:24:643126,-46,-27,-1,-3,-8,-2,-1,-10
15:35:24:650707,-46,-27,-1,-3,-8,-2,-1,-10
15:35:24:658114,80,2,-13,-2,-4,4,5,-21
15:35:24:665602,14,-11,-7,0,-5,-7,5,23
15:35:24:673856,14,-11,-7,0,-5,-7,5,23
15:35:24:674683,30,31,15,0,-5,1,-3,0
15:35:24:688196,-12,8,11,8,26,4,9,17
15:35:24:696373,-12,8,11,8,26,4,9,17
15:35:24:697145,13,13,27,2,-9,-4,-7,-8
15:35:24:703129,-7,-7,10,2,-7,0,-8,-4
15:35:24:710718,-7,-7,10,2,-7,0,-8,-4
15:35:24:718185,-23,1,4,-1,-13,-8,-3,-8
15:35:24:725622,-7,-3,-19,-3,-12,-4,0,-4
15:35:24:733928,-7,-3,-19,-3,-12,-4,0,-4
15:35:24:734668,5,2,30,-12,-15,-1,-7,-17
15:35:24:748185,31,-15,6,12,31,7,1,-9
15:35:24:756439,31,-15,6,12,31,7,1,-9
15:35:24:757081,12,12,18,2,5,1,5,3
15:35:24:763146,1,58,66,-3,-30,-6,8,-36
15:35:24:770699,1,58,66,-3,-30,-6,8,-36
15:35:24:778132,0,-69,-100,-3,28,1,-9,-13
15:35:24:785686,3,3,-44,-8,-13,-4,-2,1
15:35:24:793860,3,3,-44,-8,-13,-4,-2,1
15:35:24:794662,-2,-4,96,6,-5,6,4,0
15:35:24:808168,-4,3,-60,-18,-4,0,-5,11
15:35:24:816462,-4,3,-60,-18,-4,0,-5,11
15:35:24:817179,-7,-18,21,-50,-37,-15,-8,34
15:35:24:831409,18,78,60,40,26,16,7,10
15:35:24:832175,18,78,60,40,26,16,7,10
15:35:24:838135,-5,19,-52,20,12,1,0,0
15:35:24:845619,31,-6,5,-16,-24,-6,-1,17
15:35:24:853871,31,-6,5,-16,-24,-6,-1,17
15:35:24:854653,-42,32,-14,7,20,0,-4,-35
15:35:24:868223,10,-27,-58,-3,-19,-4,-2,4
15:35:24:876377,10,-27,-58,-3,-19,-4,-2,4
15:35:24:877064,-15,-8,-24,7,9,3,-8,-12
15:35:24:883180,-36,-14,-22,-6,-5,-9,0,21
15:35:24:890701,-36,-14,-22,-6,-5,-9,0,21
15:35:24:898283,7,35,62,12,3,-5,7,12
15:35:24:905607,-37,13,-21,-5,-4,-1,-3,-17
15:35:24:913879,-37,13,-21,-5,-4,-1,-3,-17
15:35:24:914641,-10,-26,52,5,6,1,1,-28
15:35:24:928132,36,-14,32,-9,-3,0,1,-1
15:35:24:936420,36,-14,32,-9,-3,0,1,-1
15:35:24:937164,-30,4,5,8,-7,-3,-7,-31
15:35:24:943150,0,-7,28,17,27,3,-1,14
15:35:24:950748,0,-7,28,17,27,3,-1,14
15:35:24:958189,42,17,-24,-20,-56,-13,6,83
15:35:24:965692,-23,-14,12,2,25,7,-28,-91
15:35:24:973857,-23,-14,12,2,25,7,-28,-91
15:35:24:974645,2,-25,-3,-2,9,5,21,8
15:35:24:988215,-10,-28,12,-12,-30,-22,-21,-67
15:35:24:996336,-10,-28,12,-12,-30,-22,-21,-67
15:35:24:997111,-4,18,-32,1,48,40,-6,-18
15:35:25:3194,40,7,-24,7,-3,8,-15,58
15:35:25:10699,40,7,-24,7,-3,8,-15,58
15:35:25:18171,-47,-10,56,-2,-19,-29,5,1
15:35:25:25611,-37,-17,-5,7,27,-4,2,-10
15:35:25:33861,-37,-17,-5,7,27,-4,2,-10
15:35:25:34640,2,-1,-34,-4,2,0,-11,-42
15:35:25:48221,-25,-10,7,-17,-22,-5,9,16
15:35:25:56363,-25,-10,7,-17,-22,-5,9,16
15:35:25:57152,93,14,3,16,17,43,23,38
15:35:25:63169,-24,-4,22,11,-4,-5,-5,-16
15:35:25:70709,-24,-4,22,11,-4,-5,-5,-16
15:35:25:78095,10,-9,16,-4,-24,-26,1,1
15:35:25:85661,24,-3,4,-2,20,16,1,4
15:35:25:93185,24,-3,4,-2,20,16,1,4
15:35:25:100704,-24,-1,-20,-6,-13,2,-10,14
15:35:25:108107,48,21,1,13,-22,-9,3,3
15:35:25:116445,48,21,1,13,-22,-9,3,3
15:35:25:117159,-42,-32,-13,3,51,13,-8,16
15:35:25:123138,-11,-8,-18,-4,-11,-15,-1,-21
15:35:25:130730,-11,-8,-18,-4,-11,-15,-1,-21
15:35:25:138157,-22,-6,17,8,-13,-6,-3,-4
15:35:25:145667,-6,16,69,4,6,14,1,9
15:35:25:153851,-6,16,69,4,6,14,1,9
15:35:25:154627,-38,-2,4,-4,30,19,13,36
15:35:25:168236,-14,-13,15,-1,-24,-6,-4,-6
15:35:25:176274,-14,-13,15,-1,-24,-6,-4,-6
15:35:25:177085,5,4,-16,-10,-22,-18,-12,-16
15:35:25:183198,17,-16,-86,-15,15,5,-10,36
15:35:25:190623,17,-16,-86,-15,15,5,-10,36
15:35:25:198211,-33,4,-36,-15,-9,-12,-17,-22
15:35:25:205645,14,-19,-51,-16,-22,-21,-16,6
15:35:25:213893,14,-19,-51,-16,-22,-21,-16,6
15:35:25:214651,22,9,42,18,29,5,-3,-56
15:35:25:228192,16,-20,-22,-23,-13,-4,21,64
15:35:25:236401,16,-20,-22,-23,-13,-4,21,64
15:35:25:237141,21,12,-10,-6,-1,-14,-31,-28
15:35:25:243097,-35,-1,-12,-6,-20,-1,12,32
15:35:25:250714,-35,-1,-12,-6,-20,-1,12,32
15:35:25:258107,10,11,-10,16,34,22,7,-12
15:35:25:265632,22,3,-19,5,-1,-1,7,-11
15:35:25:273883,22,3,-19,5,-1,-1,7,-11
15:35:25:274667,-3,-10,-13,-7,-82,-29,10,19
15:35:25:288147,-43,-2,15,18,57,37,-9,-49
15:35:25:296357,-43,-2,15,18,57,37,-9,-49
15:35:25:297138,-37,-16,2,-7,0,-7,-17,17
15:35:25:311328,-32,1,-20,5,-32,-24,4,6
15:35:25:312170,-32,1,-20,5,-32,-24,4,6
15:35:25:318141,36,-11,-13,9,53,5,-10,-12
15:35:25:325589,16,18,23,-9,7,-3,12,-6
15:35:25:333213,16,18,23,-9,7,-3,12,-6
15:35:25:340632,4,-12,-37,-1,-53,-18,8,20
15:35:25:348906,13,-2,42,8,55,41,5,-22
15:35:25:349664,13,-2,42,8,55,41,5,-22
15:35:25:355656,50,-10,-16,-28,-7,-3,10,1
15:35:25:371383,7,10,-6,-16,-41,-23,6,-14
15:35:25:372177,7,10,-6,-16,-41,-23,6,-14
15:35:25:378109,4,21,-5,12,29,7,0,-4
15:35:25:385718,29,-2,14,-3,0,-10,-11,0
15:35:25:393163,29,-2,14,-3,0,-10,-11,0
15:35:25:400703,36,5,8,-15,-27,0,52,44
15:35:25:408827,-4,-6,21,6,23,-1,-9,-39
15:35:25:409668,-4,-6,21,6,23,-1,-9,-39
15:35:25:415634,-10,-11,-17,-1,-9,-6,16,-30
15:35:25:431421,0,-22,-8,3,-14,-5,13,29
15:35:25:432145,0,-22,-8,3,-14,-5,13,29
15:35:25:438144,-25,-1,37,3,26,11,-7,-1
15:35:25:445646,4,2,12,7,9,14,-5,-9
15:35:25:453250,4,2,12,7,9,14,-5,-9
15:35:25:460635,-9,19,-24,9,10,-6,-8,-1
15:35:25:468903,6,-6,7,10,1,6,-21,-18
15:35:25:469674,6,-6,7,10,1,6,-21,-18
15:35:25:475671,-7,-23,-11,-15,-23,-9,-32,-30
15:35:25:491331,-26,-4,-9,-8,39,12,1,-3
15:35:25:492156,-26,-4,-9,-8,39,12,1,-3
15:35:25:498179,21,25,-2,-4,-12,-12,-20,-10
15:35:25:505657,-30,6,-6,6,-105,-39,24,17
15:35:25:513158,-30,6,-6,6,-105,-39,24,17
15:35:25:520669,-6,12,29,4,11,6,10,29
15:35:25:528855,-30,2,-42,-22,-41,-25,-8,27
15:35:25:529673,-30,2,-42,-22,-41,-25,-8,27
15:35:25:535652,-2,-13,-23,-1,-3,3,13,12
15:35:25:551382,32,12,3,1,8,1,-9,1
15:35:25:552180,32,12,3,1,8,1,-9,1
15:35:25:558191,11,-10,20,-1,-2,-2,1,-31
15:35:25:565673,47,6,-5,-10,-18,4,12,14
15:35:25:573156,47,6,-5,-10,-18,4,12,14
15:35:25:580669,16,12,-41,-5,41,7,-8,46
15:35:25:588854,-43,-28,31,0,5,-15,-4,-22
15:35:25:589716,-43,-28,31,0,5,-15,-4,-22
15:35:25:595620,-6,8,11,4,-29,-7,0,-1
15:35:25:611335,-13,-28,-14,-5,-2,1,-11,15
15:35:25:612138,-13,-28,-14,-5,-2,1,-11,15
15:35:25:618174,-19,-21,-17,12,-47,-8,3,-19
15:35:25:625621,27,14,29,25,80,29,3,23
15:35:25:633215,27,14,29,25,80,29,3,23
15:35:25:640653,-15,-13,-30,-19,-33,-15,-16,-17
15:35:25:648853,-4,4,1,-16,-16,10,-13,-22
15:35:25:649684,-4,4,1,-16,-16,10,-13,-22
15:35:25:655661,31,10,29,16,3,3,8,20
15:35:25:671392,-14,2,16,-7,11,2,4,15
15:35:25:672162,-14,2,16,-7,11,2,4,15
15:35:25:678103,-15,5,33,5,1,4,-5,2
15:35:25:685709,13,-31,-18,5,14,3,-15,-24
15:35:25:693181,13,-31,-18,5,14,3,-15,-24
15:35:25:700737,-11,0,1,-6,-19,3,-1,13
15:35:25:708840,-15,-19,33,2,-36,-9,-2,34
15:35:25:709688,-15,-19,33,2,-36,-9,-2,34
15:35:25:715677,7,0,-15,-1,6,0,-6,-6
15:35:25:731450,28,27,9,-1,-2,-4,11,19
15:35:25:732207,28,27,9,-1,-2,-4,11,19
15:35:25:738126,-8,-4,14,0,29,1,-5,-5
15:35:25:745643,-5,15,1,-4,1,-4,21,26
15:35:25:753268,-5,15,1,-4,1,-4,21,26
15:35:25:760629,-7,1,10,-2,13,12,9,-42
15:35:25:768847,18,6,-29,-21,-57,-32,-11,-15
15:35:25:769613,18,6,-29,-21,-57,-32,-11,-15
15:35:25:775653,4,6,31,22,55,4,-7,-8
15:35:25:791314,0,-4,24,-19,38,16,3,-6
15:35:25:792082,0,-4,24,-19,38,16,3,-6
15:35:25:798198,6,23,8,-12,-27,-6,6,4
15:35:25:805657,-27,18,-17,18,-37,-1,-4,22
15:35:25:813216,-27,18,-17,18,-37,-1,-4,22
15:35:25:820627,-34,-9,1,-2,3,0,-3,5
15:35:25:828822,13,18,27,10,5,-3,-9,-1
15:35:25:829611,13,18,27,10,5,-3,-9,-1
15:35:25:835685,35,-6,-48,-20,-24,-3,1,44
15:35:25:851379,11,8,-20,8,21,24,-13,-41
15:35:25:852119,11,8,-20,8,21,24,-13,-41
15:35:25:858096,19,12,67,14,-16,-8,-7,-23
15:35:25:865573,-15,-9,-13,-9,-13,-20,3,-11
15:35:25:873168,-15,-9,-13,-9,-13,-20,3,-11
15:35:25:880636,-7,-17,-45,-11,-6,4,-10,-3
15:35:25:888115,-4,-2,-16,6,5,-3,7,9
15:35:25:896368,-4,-2,-16,6,5,-3,7,9
15:35:25:897136,-52,-20,-13,-2,-2,-9,-43,-85
15:35:25:911328,-1,-6,-42,-5,0,3,-1,-37
15:35:25:912115,-1,-6,-42,-5,0,3,-1,-37
15:35:25:918162,-2,-5,13,7,-12,-2,-3,21
15:35:25:925589,-20,5,-32,0,-18,6,-4,-11
15:35:25:933237,-20,5,-32,0,-18,6,-4,-11
15:35:25:940617,4,5,28,30,26,14,12,22
15:35:25:948846,16,2,-12,0,11,-10,-8,-26
15:35:25:949648,16,2,-12,0,11,-10,-8,-26
15:35:25:955645,-12,29,24,-12,14,-7,9,-10
15:35:25:971382,-7,-9,16,-4,-9,-2,-2,30
15:35:25:972166,-7,-9,16,-4,-9,-2,-2,30
15:35:25:978107,15,8,-40,-9,-6,-3,12,12
15:35:25:985654,10,26,-12,5,66,5,24,1
15:35:25:993163,10,26,-12,5,66,5,24,1
15:35:26:713,12,-13,-80,-19,-21,-7,18,13
15:35:26:8784,-2,5,-1,-5,-20,-15,0,12
15:35:26:9601,-2,5,-1,-5,-20,-15,0,12
15:35:26:15659,6,-30,8,-10,19,14,-13,-25
15:35:26:31413,-7,-7,15,-5,-20,-5,-13,-45
15:35:26:32189,-7,-7,15,-5,-20,-5,-13,-45
15:35:26:38157,-18,0,21,-7,-59,-25,-2,-19
15:35:26:45682,1,-14,18,13,-3,10,17,49
15:35:26:53153,1,-14,18,13,-3,10,17,49
15:35:26:60617,-5,-24,-3,4,41,10,9,3
15:35:26:68854,-7,-3,-28,2,53,9,4,2
15:35:26:69620,-7,-3,-28,2,53,9,4,2
15:35:26:75571,10,16,36,-4,-9,5,57,48
15:35:26:91361,12,-23,8,-10,-49,-16,-1,-10
15:35:26:92093,12,-23,8,-10,-49,-16,-1,-10
15:35:26:98197,-11,3,-15,3,36,4,-19,1
15:35:26:105637,1,14,-14,9,-25,13,2,7
15:35:26:113166,1,14,-14,9,-25,13,2,7
15:35:26:120637,6,-21,15,3,-19,3,-15,4
15:35:26:128800,-23,-11,-11,-10,-29,-13,6,2
15:35:26:129631,-23,-11,-11,-10,-29,-13,6,2
15:35:26:135631,-2,6,25,9,13,3,2,-13
15:35:26:151379,1,-2,23,-4,-6,-11,-9,-28
15:35:26:152156,1,-2,23,-4,-6,-11,-9,-28
15:35:26:158086,16,11,9,7,8,21,26,-15
15:35:26:165616,-20,-4,-15,0,6,14,-6,4
15:35:26:173159,-20,-4,-15,0,6,14,-6,4
15:35:26:180629,-7,-2,-17,4,-14,-7,-13,-46
15:35:26:197021,-11,-12,57,-4,29,13,-3,-6
15:35:26:197800,-11,-12,57,-4,29,13,-3,-6
15:35:26:198611,-8,-5,-8,-13,-15,-7,-4,28
15:35:26:211315,8,4,40,4,5,-13,-2,-6
15:35:26:212123,8,4,40,4,5,-13,-2,-6
15:35:26:218211,3,10,-6,7,15,-5,12,26
15:35:26:225637,11,-2,-17,-19,-26,-7,-8,10
15:35:26:233185,11,-2,-17,-19,-26,-7,-8,10
15:35:26:240588,-28,-12,-36,-7,43,-1,-22,-2
15:35:26:248856,9,-6,-28,-9,2,-4,0,-8
15:35:26:249643,9,-6,-28,-9,2,-4,0,-8
15:35:26:263131,0,-44,3,-17,-11,4,-6,4
15:35:26:271334,-11,-1,36,-21,-5,-6,-44,-5
15:35:26:272150,-11,-1,36,-21,-5,-6,-44,-5
15:35:26:278073,23,21,31,1,2,16,-1,16
15:35:26:293771,12,-13,-54,-1,11,12,16,31
15:35:26:294614,12,-13,-54,-1,11,12,16,31
15:35:26:300692,0,13,43,10,-7,-23,-1,-7
15:35:26:308802,-15,6,-28,-2,8,1,7,-2
15:35:26:309643,-15,6,-28,-2,8,1,7,-2
15:35:26:323170,-6,14,-8,6,-9,-9,-2,0
15:35:26:331364,-4,2,-8,10,1,1,4,1
15:35:26:332127,-4,2,-8,10,1,1,4,1
15:35:26:338110,-11,-11,-46,-18,-43,-15,-17,-5
15:35:26:353802,7,8,-4,17,69,5,18,6
15:35:26:354641,7,8,-4,17,69,5,18,6
15:35:26:360626,8,16,-13,5,54,1,-16,47
15:35:26:368899,-21,-9,5,-17,-62,-36,-21,-19
15:35:26:369619,-21,-9,5,-17,-62,-36,-21,-19
15:35:26:383163,7,-17,5,-18,-35,-11,-5,-31
15:35:26:391307,-8,-6,-33,2,12,-1,-6,19
15:35:26:392088,-8,-6,-33,2,12,-1,-6,19
15:35:26:398182,6,7,9,4,-14,3,-3,-41
15:35:26:413849,10,37,55,22,-29,3,-8,-38
15:35:26:414620,10,37,55,22,-29,3,-8,-38
15:35:26:420646,-1,4,10,1,18,6,15,-12
15:35:26:428792,-4,-6,21,-10,-5,-8,5,-36
15:35:26:429604,-4,-6,21,-10,-5,-8,5,-36
15:35:26:443135,9,7,-14,-1,-25,-2,-9,-39
15:35:26:451330,12,-7,-16,4,56,12,8,24
15:35:26:452095,12,-7,-16,4,56,12,8,24
15:35:26:458151,-7,-17,-12,-5,24,5,-3,25
15:35:26:473899,-4,-22,-70,15,-12,-14,-9,4
15:35:26:474689,-4,-22,-70,15,-12,-14,-9,4
15:35:26:480666,-45,5,19,12,8,-7,12,17
15:35:26:488807,-6,5,50,8,-35,-16,3,9
15:35:26:489643,-6,5,50,8,-35,-16,3,9
15:35:26:503146,35,13,-9,-18,-48,-12,-11,26
15:35:26:511331,-8,-3,-14,-4,36,35,0,-38
15:35:26:512148,-8,-3,-14,-4,36,35,0,-38
15:35:26:518182,-3,-31,-38,-9,-5,1,19,-3
15:35:26:533884,18,-4,9,-9,-19,-9,-17,13
15:35:26:534652,18,-4,9,-9,-19,-9,-17,13
15:35:26:540615,6,4,-18,-16,4,12,3,-7
15:35:26:548865,-6,1,-9,12,-38,-7,11,27
15:35:26:549669,-6,1,-9,12,-38,-7,11,27
15:35:26:563150,0,-14,22,28,24,-11,-12,14
15:35:26:571357,2,2,-8,-5,16,-7,27,14
15:35:26:572182,2,2,-8,-5,16,-7,27,14
15:35:26:578129,-13,46,17,0,-15,7,-7,-39
15:35:26:593821,-6,-2,-45,-19,-6,-6,-5,10
15:35:26:594615,-6,-2,-45,-19,-6,-6,-5,10
15:35:26:600639,11,-12,-14,15,-15,7,16,7
15:35:26:608815,-2,9,21,10,-6,28,5,-7
15:35:26:609679,-2,9,21,10,-6,28,5,-7
15:35:26:623161,13,-11,-19,2,-14,-4,-7,4
15:35:26:631456,13,-11,-19,2,-14,-4,-7,4
15:35:26:632165,-1,-19,15,-6,-26,-20,-12,-15
15:35:26:638133,-19,11,34,18,76,36,-3,-2
15:35:26:653870,-19,11,34,18,76,36,-3,-2
15:35:26:654633,1,-21,1,-16,-20,-7,17,34
15:35:26:660608,-2,-12,-27,-6,-14,-30,-3,-19
15:35:26:676309,-2,-12,-27,-6,-14,-30,-3,-19
15:35:26:677122,3,6,10,15,73,15,-9,36
15:35:26:683132,-15,-17,-26,-19,-45,-29,15,-8
15:35:26:691363,-15,-17,-26,-19,-45,-29,15,-8
15:35:26:692161,5,-1,-3,-17,0,3,-3,-46
15:35:26:698178,15,5,-13,12,20,6,-8,-4
15:35:26:713876,15,5,-13,12,20,6,-8,-4
15:35:26:714631,-12,-24,18,3,-2,1,-11,4
15:35:26:720614,3,4,20,-9,-42,-4,-13,-1
15:35:26:736388,3,4,20,-9,-42,-4,-13,-1
15:35:26:737135,6,-8,24,17,68,39,-3,-39
15:35:26:743113,9,-3,11,-10,-1,-7,-15,-2
15:35:26:751372,9,-3,11,-10,-1,-7,-15,-2
15:35:26:752132,16,7,-43,-5,-15,-9,-9,16
15:35:26:758109,-10,-12,12,0,31,4,1,-28
15:35:26:773819,-10,-12,12,0,31,4,1,-28
15:35:26:774636,-5,25,21,-14,-25,-11,-9,-10
15:35:26:780680,11,19,7,11,61,37,7,14
15:35:26:796403,11,19,7,11,61,37,7,14
15:35:26:797115,6,0,2,11,-2,-3,12,17
15:35:26:803153,-2,-7,10,-13,-53,-21,-2,5
15:35:26:811296,-2,-7,10,-13,-53,-21,-2,5
15:35:26:812099,12,1,7,7,13,0,32,-21
15:35:26:818207,-22,0,2,-6,-3,-7,-12,20
15:35:26:833907,-22,0,2,-6,-3,-7,-12,20
15:35:26:834587,1,8,2,-19,-54,-16,-18,18
15:35:26:840655,7,4,-18,-2,-12,9,37,22
15:35:26:856454,7,4,-18,-2,-12,9,37,22
15:35:26:857202,-13,-2,-16,-1,9,-15,-6,2
15:35:26:863175,-13,-26,-41,-11,-27,-26,-5,-8
15:35:26:871367,-13,-26,-41,-11,-27,-26,-5,-8
15:35:26:872126,-3,-2,20,14,-6,18,-2,-25
15:35:26:878146,-6,-3,14,22,-15,19,21,-15
15:35:26:893820,-6,-3,14,22,-15,19,21,-15
15:35:26:894608,-2,-4,-20,-7,-13,-19,-17,-2
15:35:26:900706,-2,-4,45,-3,39,4,-13,-2
15:35:26:916414,-2,-4,45,-3,39,4,-13,-2
15:35:26:917188,6,6,-23,-12,-7,3,38,32
15:35:26:923121,22,-4,17,-12,18,3,3,6
15:35:26:931385,22,-4,17,-12,18,3,3,6
15:35:26:932123,-22,4,6,-1,-11,-18,-15,-15
15:35:26:938213,10,19,-3,6,-9,2,-24,-10
15:35:26:953930,10,19,-3,6,-9,2,-24,-10
15:35:26:954687,-6,3,-30,5,0,-9,-2,-24
15:35:26:960642,-2,13,-30,8,-26,-10,6,35
15:35:26:968262,-2,13,-30,8,-26,-10,6,35
15:35:26:975635,23,-2,-1,7,21,17,16,-12
15:35:26:983198,-25,-7,-1,-22,-26,-10,-8,11
15:35:26:991336,-25,-7,-1,-22,-26,-10,-8,11
15:35:26:992129,6,-8,5,-4,15,3,-29,-9
15:35:26:998217,-14,-1,-18,-2,6,1,3,29
15:35:27:13852,-14,-1,-18,-2,6,1,3,29
15:35:27:14636,3,-18,1,-5,-35,-9,-5,-2
15:35:27:20696,-10,-1,4,2,10,10,11,-1
15:35:27:28177,-10,-1,4,2,10,10,11,-1
15:35:27:35626,7,-17,-18,13,6,2,16,-39
15:35:27:43100,-13,3,-59,-4,17,-12,-12,0
15:35:27:51351,-13,3,-59,-4,17,-12,-12,0
15:35:27:52114,-1,18,19,-7,10,0,43,49
15:35:27:58121,18,7,4,-3,-17,-14,5,-15
15:35:27:73849,18,7,4,-3,-17,-14,5,-15
15:35:27:74627,-22,15,-29,-1,0,0,-20,-22
15:35:27:80613,4,-15,-4,4,14,4,-14,-21
15:35:27:88184,4,-15,-4,4,14,4,-14,-21
15:35:27:95641,-21,-10,19,7,22,11,-2,13
15:35:27:103174,8,1,35,16,-15,9,6,-5
15:35:27:111348,8,1,35,16,-15,9,6,-5
15:35:27:112200,1,6,-12,-1,-12,2,-43,11
15:35:27:118141,11,35,21,-5,-21,-14,-3,-32
15:35:27:133929,11,35,21,-5,-21,-14,-3,-32
15:35:27:134670,-10,-5,-6,-2,-15,-4,7,-3
15:35:27:140617,11,27,21,5,14,-9,15,0
15:35:27:148251,11,27,21,5,14,-9,15,0
15:35:27:155620,-10,-10,-1,-20,-17,-20,-45,-33
15:35:27:163139,-3,-8,45,-8,47,10,-2,-8
15:35:27:171379,-3,-8,45,-8,47,10,-2,-8
15:35:27:172183,1,7,-21,-10,-2,4,13,18
15:35:27:178118,-7,-2,-11,22,92,67,-32,30
15:35:27:193847,-7,-2,-11,22,92,67,-32,30
15:35:27:194654,2,11,22,2,3,-10,11,18
15:35:27:200734,-20,-19,-6,-13,-4,-12,17,6
15:35:27:208224,-20,-19,-6,-13,-4,-12,17,6
15:35:27:215639,-20,-5,45,15,3,24,1,2
15:35:27:223166,-5,-2,13,-8,-43,-16,-1,-2
15:35:27:231410,-5,-2,13,-8,-43,-16,-1,-2
15:35:27:232128,2,9,-10,10,16,7,10,16
15:35:27:245684,6,-15,0,-15,-58,-9,-15,10
15:35:27:253895,6,-15,0,-15,-58,-9,-15,10
15:35:27:254675,20,6,-26,-12,18,9,-7,-27
15:35:27:260629,-2,-6,-43,6,24,-14,27,-44
15:35:27:268246,-2,-6,-43,6,24,-14,27,-44
15:35:27:275642,-5,20,77,2,-7,3,4,6
15:35:27:283176,5,0,7,-10,-54,-18,-29,-15
15:35:27:291345,5,0,7,-10,-54,-18,-29,-15
15:35:27:292128,-8,1,18,-1,49,18,9,7
15:35:27:305675,2,-4,15,7,-67,-23,-11,7
15:35:27:313831,2,-4,15,7,-67,-23,-11,7
15:35:27:314627,15,1,-9,7,-1,-2,7,-1
15:35:27:320636,6,-14,-10,5,36,21,-3,-20
15:35:27:328169,6,-14,-10,5,36,21,-3,-20
15:35:27:335638,-4,-12,0,7,-8,-3,22,-5
15:35:27:343057,-11,-3,-13,-4,-17,-9,19,20
15:35:27:351416,-11,-3,-13,-4,-17,-9,19,20
15:35:27:352184,10,10,-58,-5,33,-3,-23,15
15:35:27:365689,1,-11,-1,16,16,0,-11,-12
15:35:27:373846,1,-11,-1,16,16,0,-11,-12
15:35:27:374618,-7,-6,17,15,-6,-9,-11,69
15:35:27:380606,3,-4,-34,-37,-32,-19,3,23
15:35:27:388198,3,-4,-34,-37,-32,-19,3,23
15:35:27:395646,4,5,40,8,32,4,5,4
15:35:27:403152,-6,-8,-17,0,8,-15,-5,4
15:35:27:411348,-6,-8,-17,0,8,-15,-5,4
15:35:27:412138,13,11,19,-14,-32,-16,10,-23
15:35:27:425617,5,-4,-36,-16,1,-1,-24,-21
15:35:27:433912,5,-4,-36,-16,1,-1,-24,-21
15:35:27:434658,0,-36,-86,-11,-16,-7,-20,-23
15:35:27:440637,-23,-2,30,-1,18,4,-4,-19
15:35:27:448230,-23,-2,30,-1,18,4,-4,-19
15:35:27:455641,-10,-5,23,-5,-46,-13,-17,-14
15:35:27:463177,18,31,13,34,38,26,1,29
15:35:27:471467,18,31,13,34,38,26,1,29
15:35:27:472130,14,11,20,-4,-17,-7,-24,-30
15:35:27:485721,-4,-26,-59,-9,-37,-37,46,44
15:35:27:493841,-4,-26,-59,-9,-37,-37,46,44
15:35:27:494651,3,-29,-63,-19,-33,-7,44,70
15:35:27:500649,23,5,8,17,29,19,4,30
15:35:27:508200,23,5,8,17,29,19,4,30
15:35:27:515692,-40,-11,-8,6,3,1,-13,-32
15:35:27:523145,0,-22,-38,-23,-24,1,0,-45
15:35:27:531397,0,-22,-38,-23,-24,1,0,-45
15:35:27:532107,8,27,42,-13,20,-3,-13,-15
15:35:27:545695,-4,13,85,17,39,2,32,8
15:35:27:553922,-4,13,85,17,39,2,32,8
15:35:27:554727,11,11,17,-10,-28,-4,20,-10
15:35:27:560641,-3,-17,-41,-7,32,35,-24,10
15:35:27:568249,-3,-17,-41,-7,32,35,-24,10
15:35:27:575614,-28,-13,-6,20,-38,-2,7,-31
15:35:27:583181,-16,6,46,-11,-5,-1,1,-1
15:35:27:591313,-16,6,46,-11,-5,-1,1,-1
15:35:27:592125,9,21,-7,-1,-8,-16,-8,-30
15:35:27:605721,13,12,-32,10,27,-2,-14,-5
15:35:27:613827,13,12,-32,10,27,-2,-14,-5
15:35:27:614599,8,-7,21,-5,-33,39,-2,4
15:35:27:620659,-16,15,55,-5,-44,24,29,24
15:35:27:628167,-16,15,55,-5,-44,24,29,24
15:35:27:635694,3,3,20,7,-9,-10,-5,10
15:35:27:643085,2,-24,6,-5,-31,-23,-49,-26
15:35:27:651417,2,-24,6,-5,-31,-23,-49,-26
15:35:27:652190,-22,-30,-35,-31,38,-5,-28,-45
15:35:27:665699,-8,9,-25,12,18,-14,-27,-5
15:35:27:673848,-8,9,-25,12,18,-14,-27,-5
15:35:27:674654,-15,-1,12,14,5,-10,1,18
15:35:27:680631,-8,0,-1,-5,-40,4,53,-10
15:35:27:688185,-8,0,-1,-5,-40,4,53,-10
15:35:27:695639,0,-31,-32,-23,-74,-10,37,51
15:35:27:703168,10,-3,42,6,-9,8,1,-6
15:35:27:711360,10,-3,42,6,-9,8,1,-6
15:35:27:712149,3,-13,32,9,19,-8,-18,-17
15:35:27:725606,-11,-7,7,-2,6,0,-7,18
15:35:27:733980,-11,-7,7,-2,6,0,-7,18
15:35:27:734703,-5,-1,-34,12,45,1,-18,0
15:35:27:740631,14,-8,-39,-7,-20,-14,17,8
15:35:27:748252,14,-8,-39,-7,-20,-14,17,8
15:35:27:755649,9,1,-35,-1,40,5,33,16
15:35:27:763203,-13,-10,0,-15,-21,-2,43,-22
15:35:27:771325,-13,-10,0,-15,-21,-2,43,-22
15:35:27:772196,-3,4,-39,-9,-27,6,-2,-12
15:35:27:785725,19,-22,17,7,42,10,9,13
15:35:27:793905,19,-22,17,7,42,10,9,13
15:35:27:794683,-3,27,30,-12,-10,-5,7,6
15:35:27:800669,4,35,-29,-6,-8,-12,-29,-4
15:35:27:808178,4,35,-29,-6,-8,-12,-29,-4
15:35:27:815672,2,-2,15,9,3,0,0,20
15:35:27:823166,-13,18,15,0,36,18,42,3
15:35:27:831417,-13,18,15,0,36,18,42,3
15:35:27:832137,5,16,29,-3,-5,15,-26,19
15:35:27:845662,9,-8,4,3,26,-15,-64,16
15:35:27:853812,9,-8,4,3,26,-15,-64,16
15:35:27:854617,-1,-19,-10,26,35,8,-11,-28
15:35:27:860627,-7,2,-12,-2,-13,-7,-44,-61
15:35:27:868207,-7,2,-12,-2,-13,-7,-44,-61
15:35:27:875643,-11,27,35,-4,-20,-12,-19,-6
15:35:27:883159,18,4,-59,-34,3,0,-7,-18
15:35:27:891359,18,4,-59,-34,3,0,-7,-18
15:35:27:892157,16,5,-36,-5,-8,12,-17,-7
15:35:27:905672,-10,-13,2,-10,-36,0,-5,-41
15:35:27:913894,-10,-13,2,-10,-36,0,-5,-41
15:35:27:914627,7,17,19,-9,-10,-2,16,-14
15:35:27:920616,3,7,23,-6,-22,-13,7,22
15:35:27:928159,3,7,23,-6,-22,-13,7,22
15:35:27:935611,4,-6,-5,2,22,4,13,-4
15:35:27:943162,2,7,53,14,13,-14,-21,-29
15:35:27:951462,2,7,53,14,13,-14,-21,-29
15:35:27:952141,-11,-25,53,-10,-38,-18,-5,18
15:35:27:965655,-15,-13,-13,-12,12,-10,-16,21
15:35:27:973818,-15,-13,-13,-12,12,-10,-16,21
15:35:27:974674,12,16,1,9,13,0,-9,4
15:35:27:980650,11,10,-32,-2,-6,-2,22,26
15:35:27:988201,11,10,-32,-2,-6,-2,22,26
15:35:27:995646,-6,-8,-28,-10,35,14,7,5
15:35:28:3152,-13,0,-9,12,-16,-9,25,7
15:35:28:11395,-13,0,-9,12,-16,-9,25,7
15:35:28:12150,-1,-46,-35,3,38,-16,13,-12
15:35:28:25630,-10,-22,-53,1,75,29,39,29
15:35:28:33923,-10,-22,-53,1,75,29,39,29
15:35:28:34664,-16,2,-22,0,21,11,-32,-6
15:35:28:40656,-3,-14,9,16,-77,13,12,32
15:35:28:48253,-3,-14,9,16,-77,13,12,32
15:35:28:55666,8,5,-26,14,12,13,19,-6
15:35:28:63194,10,6,17,-17,-36,-18,-17,14
15:35:28:71364,10,6,17,-17,-36,-18,-17,14
15:35:28:72182,-13,18,6,22,20,1,8,-4
15:35:28:85727,-4,-13,-22,6,20,11,-54,-24
15:35:28:93860,-4,-13,-22,6,20,11,-54,-24
15:35:28:94690,1,-2,9,-9,-63,-31,32,-11
15:35:28:100715,-8,20,25,9,55,14,-6,-16
15:35:28:108211,-8,20,25,9,55,14,-6,-16
15:35:28:115710,-4,-9,19,-16,-22,-10,-1,6
15:35:28:123227,6,-4,8,-7,36,21,49,18
15:35:28:130707,6,-4,8,-7,36,21,49,18
15:35:28:138133,-4,-19,-1,0,1,2,35,-6
15:35:28:145623,3,-12,-27,-29,-45,-22,-19,-20
15:35:28:153887,3,-12,-27,-29,-45,-22,-19,-20
15:35:28:154639,2,3,-21,-20,-3,0,-24,3
15:35:28:168883,6,-7,8,4,-22,-13,-7,-18
15:35:28:169641,6,-7,8,4,-22,-13,-7,-18
15:35:28:175583,7,-8,23,18,60,-3,-31,-2
15:35:28:183199,-19,20,19,-4,14,-13,-12,11
15:35:28:190705,-19,20,19,-4,14,-13,-12,11
15:35:28:198165,-5,-5,-76,-7,-13,-22,-74,-12
15:35:28:205642,2,-9,1,4,22,18,12,4
15:35:28:213900,2,-9,1,4,22,18,12,4
15:35:28:214717,8,3,17,3,-35,11,19,16
15:35:28:228859,-9,-26,-48,16,5,-3,-16,3
15:35:28:229670,-9,-26,-48,16,5,-3,-16,3
15:35:28:235678,16,-3,19,32,9,0,5,-2
15:35:28:243109,2,64,35,-3,-13,18,2,-3
15:35:28:250759,2,64,35,-3,-13,18,2,-3
15:35:28:266350,-6,-7,-1,-25,-30,4,1,0
15:35:28:267107,-1,-44,-13,5,-22,-11,10,14
15:35:28:273863,-1,-44,-13,5,-22,-11,10,14
15:35:28:274636,-9,6,-6,8,-65,-16,23,-13
15:35:28:288847,-2,2,0,-9,-65,-52,-28,-19
15:35:28:289624,-2,2,0,-9,-65,-52,-28,-19
15:35:28:295592,7,22,28,7,67,11,-14,44
15:35:28:303136,3,-21,9,-25,-15,-13,-3,-13
15:35:28:310686,3,-21,9,-25,-15,-13,-3,-13
15:35:28:318185,-2,2,-5,-5,-36,2,8,-8
15:35:28:325595,-1,49,14,19,48,3,-6,-3
15:35:28:333916,-1,49,14,19,48,3,-6,-3
15:35:28:334650,9,16,17,-6,-7,-11,-4,-3
15:35:28:348903,10,-5,4,37,39,47,7,-20
15:35:28:349691,10,-5,4,37,39,47,7,-20
15:35:28:355653,-33,-37,14,-16,-3,-2,3,-12
15:35:28:363282,12,-20,-4,2,-14,3,22,29
15:35:28:370759,12,-20,-4,2,-14,3,22,29
15:35:28:378146,-26,9,-34,16,20,9,-20,-37
15:35:28:385724,-9,-35,18,-14,-17,-26,-12,-13
15:35:28:393853,-9,-35,18,-14,-17,-26,-12,-13
15:35:28:394650,-3,4,11,2,92,34,4,0
15:35:28:408889,1,19,2,21,65,12,-1,2
15:35:28:409630,1,19,2,21,65,12,-1,2
15:35:28:415654,6,-15,-3,1,-21,-20,-16,4
15:35:28:423136,-12,-3,8,-21,-51,-18,-14,-6
15:35:28:430721,-12,-3,8,-21,-51,-18,-14,-6
15:35:28:438163,7,10,18,-14,85,8,-8,-34
15:35:28:445680,-24,-37,-28,-12,-17,-19,-26,-29
15:35:28:453865,-24,-37,-28,-12,-17,-19,-26,-29
15:35:28:454672,4,2,-27,-4,2,45,18,34
15:35:28:468875,4,36,7,3,-36,23,12,0
15:35:28:469603,4,36,7,3,-36,23,12,0
15:35:28:475651,14,-4,-2,-4,-31,-35,-14,-9
15:35:28:483170,2,-4,-7,35,-58,-20,6,3
15:35:28:490667,2,-4,-7,35,-58,-20,6,3
15:35:28:498215,-2,2,5,6,46,10,13,9
15:35:28:505662,5,25,11,21,35,21,5,5
15:35:28:513859,5,25,11,21,35,21,5,5
15:35:28:514625,-10,-5,-1,-12,-51,-26,2,-3
15:35:28:528825,-1,-36,-24,-36,2,7,-21,4
15:35:28:529612,-1,-36,-24,-36,2,7,-21,4
15:35:28:535617,11,10,10,-7,-57,5,8,25
15:35:28:543135,-14,23,20,9,18,14,21,-3
15:35:28:550750,-14,23,20,9,18,14,21,-3
15:35:28:558127,4,-9,-41,-15,-128,-42,-5,10
15:35:28:565653,21,12,-10,9,10,-1,3,6
15:35:28:573890,21,12,-10,9,10,-1,3,6
15:35:28:574712,-8,-8,-21,-21,-29,-3,6,2
15:35:28:588863,-1,-4,-10,2,24,-1,3,1
15:35:28:589679,-1,-4,-10,2,24,-1,3,1
15:35:28:595638,3,1,-30,-2,-12,7,14,-9
15:35:28:603137,13,12,24,-33,27,-5,5,3
15:35:28:610693,13,12,24,-33,27,-5,5,3
15:35:28:618173,0,21,26,23,24,6,-3,-9
15:35:28:625604,14,-7,-12,15,-26,-1,-2,3
15:35:28:633911,14,-7,-12,15,-26,-1,-2,3
15:35:28:634640,-16,-12,5,2,13,13,-9,-8
15:35:28:648860,-3,-12,0,0,-18,-9,-4,4
15:35:28:649644,-3,-12,0,0,-18,-9,-4,4
15:35:28:655618,9,-21,-76,-9,16,-6,-50,-30
15:35:28:663099,-8,10,5,-21,-37,-39,11,-4
15:35:28:670727,-8,10,5,-21,-37,-39,11,-4
15:35:28:678131,-7,0,41,22,84,37,-4,-2
15:35:28:685710,-7,-7,-19,-1,-8,-6,-7,-1
15:35:28:693822,-7,-7,-19,-1,-8,-6,-7,-1
15:35:28:694601,14,21,18,-21,-39,-32,-4,6
15:35:28:708877,17,-4,-11,3,-12,-10,10,13
15:35:28:709669,17,-4,-11,3,-12,-10,10,13
15:35:28:715667,-1,-9,27,11,9,12,13,5
15:35:28:723162,-54,-17,32,-17,-4,3,-10,-10
15:35:28:730667,-54,-17,32,-17,-4,3,-10,-10
15:35:28:738135,5,10,22,8,2,4,20,22
15:35:28:745675,23,13,-8,2,-19,8,-8,5
15:35:28:753855,23,13,-8,2,-19,8,-8,5
15:35:28:754673,-7,-14,-10,-1,-12,-14,0,-5
15:35:28:768869,8,1,-8,2,42,11,-1,0
15:35:28:769619,8,1,-8,2,42,11,-1,0
15:35:28:775607,-22,11,-2,-22,-38,-28,22,3
15:35:28:783165,-7,5,-18,16,13,5,-6,6
15:35:28:790641,-7,5,-18,16,13,5,-6,6
15:35:28:798129,10,-1,11,-8,3,-2,-6,-3
15:35:28:805609,-29,-38,-2,-4,26,5,2,-14
15:35:28:813864,-29,-38,-2,-4,26,5,2,-14
15:35:28:814637,7,8,-9,6,13,15,2,-1
15:35:28:828836,3,0,-15,5,-43,-20,-8,-16
15:35:28:829635,3,0,-15,5,-43,-20,-8,-16
15:35:28:835628,-20,1,-16,-9,37,18,10,-1
15:35:28:843086,-6,-31,-16,-3,12,-8,-24,-16
15:35:28:850709,-6,-31,-16,-3,12,-8,-24,-16
15:35:28:858121,-8,-10,28,7,-10,-8,-8,-2
15:35:28:865673,12,-5,-9,-2,-1,7,-1,3
15:35:28:873825,12,-5,-9,-2,-1,7,-1,3
15:35:28:874647,20,-17,-20,22,23,7,2,7
15:35:28:888858,5,21,29,-9,2,7,-7,11
15:35:28:889655,5,21,29,-9,2,7,-7,11
15:35:28:895617,-1,1,-28,-13,-56,-23,-6,-8
15:35:28:903132,-8,14,89,20,63,15,3,-13
15:35:28:910666,-8,14,89,20,63,15,3,-13
15:35:28:918151,25,14,2,-40,-7,-16,-10,-1
15:35:28:925613,-30,19,-29,-18,92,34,9,6
15:35:28:933900,-30,19,-29,-18,92,34,9,6
15:35:28:934657,-8,-26,-23,-11,-16,-10,-17,-12
15:35:28:948911,15,30,-8,2,-35,-10,5,-4
15:35:28:949647,15,30,-8,2,-35,-10,5,-4
15:35:28:955633,2,28,14,8,26,23,-10,14
15:35:28:963132,1,-8,-7,-21,-53,-27,-10,-5
15:35:28:970708,1,-8,-7,-21,-53,-27,-10,-5
15:35:28:978121,-3,20,32,30,28,-13,13,-4
15:35:28:985649,1,8,27,-1,41,12,14,18
15:35:28:993773,1,8,27,-1,41,12,14,18
15:35:28:994593,-16,-12,28,7,-24,-8,0,-8
15:35:29:8844,-17,-27,9,27,18,12,-2,-12
15:35:29:9651,-17,-27,9,27,18,12,-2,-12
15:35:29:15646,-22,-51,-88,-55,-48,-23,-2,-4
15:35:29:23131,9,1,-15,-26,-6,-1,-3,1
15:35:29:30670,9,1,-15,-26,-6,-1,-3,1
15:35:29:38149,-31,-6,-3,10,6,2,-12,-13
15:35:29:45639,-3,-11,-7,-5,43,12,7,-1
15:35:29:53851,-3,-11,-7,-5,43,12,7,-1
15:35:29:54613,6,7,32,14,43,6,4,10
15:35:29:68848,-1,5,60,-10,-40,-41,-26,8
15:35:29:69597,-1,5,60,-10,-40,-41,-26,8
15:35:29:75666,25,-15,30,26,44,25,13,2
15:35:29:91308,9,13,-2,-18,-13,8,-6,-8
15:35:29:92098,9,13,-2,-18,-13,8,-6,-8
15:35:29:98212,-6,-4,51,-42,-32,-5,0,-2
15:35:29:105661,-3,2,-55,-4,-46,-13,5,2
15:35:29:113179,-3,2,-55,-4,-46,-13,5,2
15:35:29:120614,4,12,-16,-10,-8,2,-1,-2
15:35:29:128791,12,-36,-16,18,-18,-15,10,9
15:35:29:129625,12,-36,-16,18,-18,-15,10,9
15:35:29:135618,-6,7,28,35,59,14,-5,-6
15:35:29:151340,37,57,57,28,-11,7,6,6
15:35:29:152141,37,57,57,28,-11,7,6,6
15:35:29:158087,-2,8,-10,4,-27,4,-10,-13
15:35:29:165632,-3,22,1,-18,0,2,3,-15
15:35:29:173164,-3,22,1,-18,0,2,3,-15
15:35:29:180640,1,14,-15,-18,-15,-8,-1,6
15:35:29:188834,-8,4,-20,7,-5,-14,-4,1
15:35:29:189622,-8,4,-20,7,-5,-14,-4,1
15:35:29:195624,0,-28,-37,33,19,3,6,2
15:35:29:211314,-33,-17,-25,12,-10,26,-11,-18
15:35:29:212112,-33,-17,-25,12,-10,26,-11,-18
15:35:29:218190,0,38,23,-20,-34,-2,-6,-10
15:35:29:225599,-8,-19,-51,-2,51,12,7,0
15:35:29:233237,-8,-19,-51,-2,51,12,7,0
15:35:29:240618,-4,-63,-46,-3,-24,-2,7,18
15:35:29:248849,4,-9,22,13,-2,0,10,-2
15:35:29:249671,4,-9,22,13,-2,0,10,-2
15:35:29:255657,4,1,-18,-17,-11,-15,-6,-15
15:35:29:271335,4,-20,-8,0,19,19,0,-9
15:35:29:272153,4,-20,-8,0,19,19,0,-9
15:35:29:278103,15,-28,12,14,-8,4,5,4
15:35:29:285626,16,-7,-17,-21,-2,4,-9,-16
15:35:29:293165,16,-7,-17,-21,-2,4,-9,-16
15:35:29:300642,-2,18,-12,1,-14,5,0,-33
15:35:29:308761,-8,-7,0,-5,22,-6,-21,-31
15:35:29:309586,-8,-7,0,-5,22,-6,-21,-31
15:35:29:315640,-5,19,36,14,47,4,14,27
15:35:29:331436,18,44,25,2,-30,-12,7,5
15:35:29:332151,18,44,25,2,-30,-12,7,5
15:35:29:338155,1,15,-9,64,40,6,4,19
15:35:29:345622,-12,5,-20,-6,-18,-3,1,16
15:35:29:353237,-12,5,-20,-6,-18,-3,1,16
15:35:29:360640,-2,7,56,-23,-16,-7,8,2
15:35:29:368835,-41,-37,-19,-4,-40,-11,6,10
15:35:29:369611,-41,-37,-19,-4,-40,-11,6,10
15:35:29:375636,13,6,-8,-3,15,4,-2,10
15:35:29:391331,-17,24,3,-21,-39,-15,33,1
15:35:29:392090,-17,24,3,-21,-39,-15,33,1
15:35:29:398191,-11,1,1,-14,-25,-10,-6,-2
15:35:29:405645,1,-18,23,1,-50,-6,4,13
15:35:29:413170,1,-18,23,1,-50,-6,4,13
15:35:29:420602,2,24,-5,4,-26,-18,8,15
15:35:29:428811,18,1,-15,16,3,1,-38,10
15:35:29:429615,18,1,-15,16,3,1,-38,10
15:35:29:435615,-14,32,7,-8,-1,7,18,-6
15:35:29:451334,-5,-8,28,-12,-14,-7,0,-48
15:35:29:452113,-5,-8,28,-12,-14,-7,0,-48
15:35:29:458082,-6,-22,-16,15,75,-7,-14,10
15:35:29:465581,1,-4,-63,-2,46,5,12,-38
15:35:29:473187,1,-4,-63,-2,46,5,12,-38
15:35:29:480661,-26,-31,21,-7,-37,15,0,-11
15:35:29:488833,5,4,-33,-7,-79,-13,30,54
15:35:29:489682,5,4,-33,-7,-79,-13,30,54
15:35:29:495604,10,2,-44,-10,-5,12,-15,33
15:35:29:511333,-12,-4,19,14,56,21,-11,23
15:35:29:512136,-12,-4,19,14,56,21,-11,23
15:35:29:518101,-9,-14,-7,-8,-7,-17,-11,-11
15:35:29:525609,13,2,48,-6,-57,-24,3,8
15:35:29:533201,13,2,48,-6,-57,-24,3,8
15:35:29:540632,7,-12,-49,59,103,76,8,-18
15:35:29:548904,-20,-10,2,-15,-33,-19,-16,-1
15:35:29:549668,-20,-10,2,-15,-33,-19,-16,-1
15:35:29:555635,-15,-17,42,-28,-24,-6,-26,-36
15:35:29:571340,21,-10,-19,3,19,-6,-68,-25
15:35:29:572164,21,-10,-19,3,19,-6,-68,-25
15:35:29:578108,19,10,13,-19,-28,-24,0,-9
15:35:29:585674,-7,-10,24,0,33,26,5,70
15:35:29:593160,-7,-10,24,0,33,26,5,70
15:35:29:600755,13,15,32,1,-4,-10,-2,-13
15:35:29:608790,14,27,8,1,-6,-15,2,13
15:35:29:609597,14,27,8,1,-6,-15,2,13
15:35:29:615658,3,-17,-23,-10,15,-15,21,32
15:35:29:631414,-18,-15,32,1,-46,-1,4,-14
15:35:29:632149,-18,-15,32,1,-46,-1,4,-14
15:35:29:638178,-4,9,48,-8,-46,-5,-13,-18
15:35:29:645622,10,-23,-12,-8,14,-5,-5,-67
15:35:29:653219,10,-23,-12,-8,14,-5,-5,-67
15:35:29:660626,-9,2,-29,-7,-24,-22,-35,-37
15:35:29:668869,5,-6,-54,-14,6,5,40,54
15:35:29:669700,5,-6,-54,-14,6,5,40,54
15:35:29:675569,13,-19,-35,3,7,11,23,36
15:35:29:691315,16,13,-20,-1,20,-1,-2,4
15:35:29:692087,16,13,-20,-1,20,-1,-2,4
15:35:29:698183,10,9,18,-7,-44,-11,7,35
15:35:29:705633,-5,-7,-44,1,64,11,18,0
15:35:29:713200,-5,-7,-44,1,64,11,18,0
15:35:29:720606,-10,14,27,-34,-12,-7,4,6
15:35:29:728817,15,13,17,25,22,-1,-19,-31
15:35:29:729662,15,13,17,25,22,-1,-19,-31
15:35:29:735695,1,-34,-51,0,3,-15,-4,-1
15:35:29:751364,-24,5,5,24,15,9,-32,-13
15:35:29:752144,-24,5,5,24,15,9,-32,-13
15:35:29:758108,4,9,50,-6,-98,-44,-7,-34
15:35:29:765632,5,-5,-17,-3,34,16,-16,9
15:35:29:773213,5,-5,-17,-3,34,16,-16,9
15:35:29:780649,7,2,-92,-10,20,11,-9,-28
15:35:29:788848,-12,-22,-2,-9,-29,-11,-1,-24
15:35:29:789706,-12,-22,-2,-9,-29,-11,-1,-24
15:35:29:795632,3,7,7,6,-5,6,26,43
15:35:29:811351,-30,-17,-6,-5,15,4,9,-14
15:35:29:812168,-30,-17,-6,-5,15,4,9,-14
15:35:29:818152,-6,17,30,7,-14,-8,-20,13
15:35:29:825639,13,17,25,31,35,15,32,-14
15:35:29:833240,13,17,25,31,35,15,32,-14
15:35:29:840648,-9,6,-1,30,87,20,-4,-4
15:35:29:848878,8,11,55,-27,-46,-20,-1,8
15:35:29:849693,8,11,55,-27,-46,-20,-1,8
15:35:29:855638,1,11,7,0,-35,10,9,-7
15:35:29:871362,-3,-6,-10,13,-20,-12,-11,-32
15:35:29:872191,-3,-6,-10,13,-20,-12,-11,-32
15:35:29:878129,-21,-4,3,0,-15,-2,-21,-20
15:35:29:885682,3,-9,-8,-20,-5,9,11,51
15:35:29:893205,3,-9,-8,-20,-5,9,11,51
15:35:29:900721,27,11,13,-1,8,-9,-9,5
15:35:29:908773,3,6,22,-10,19,14,1,12
15:35:29:909592,3,6,22,-10,19,14,1,12
15:35:29:915642,-12,-41,-53,-24,57,27,-10,0
15:35:29:931419,-11,-27,-31,9,36,24,5,12
15:35:29:932143,-11,-27,-31,9,36,24,5,12
15:35:29:938138,3,11,-4,-9,-22,-9,2,-5
15:35:29:945695,9,11,-25,-22,-69,-18,24,26
15:35:29:953150,9,11,-25,-22,-69,-18,24,26
15:35:29:960629,-13,12,-22,4,23,-1,-31,-80
15:35:29:968834,8,8,32,9,-11,-10,-15,8
15:35:29:969668,8,8,32,9,-11,-10,-15,8
15:35:29:975597,1,-1,47,-13,-69,-24,2,12
15:35:29:991363,1,-1,47,-13,-69,-24,2,12
15:35:29:992105,9,1,-16,0,25,-10,-25,25
15:35:29:998195,-7,1,-81,-8,54,32,27,25
15:35:30:13792,-7,1,-81,-8,54,32,27,25
15:35:30:14602,2,22,48,9,-14,-4,-7,-45
15:35:30:20667,-3,-15,42,11,-21,-10,6,38
15:35:30:28888,-3,-15,42,11,-21,-10,6,38
15:35:30:29648,-2,10,-47,10,21,0,-10,14
15:35:30:43102,8,-3,-25,0,-14,2,70,39
15:35:30:51412,8,-3,-25,0,-14,2,70,39
15:35:30:52146,-2,-2,31,-10,-58,-9,29,-10
15:35:30:58151,-6,1,21,12,21,25,3,8
15:35:30:73892,-6,1,21,12,21,25,3,8
15:35:30:74665,0,10,3,-21,74,19,3,43
15:35:30:80661,6,15,-27,-6,-14,-10,3,-11
15:35:30:88865,6,15,-27,-6,-14,-10,3,-11
15:35:30:89634,6,-3,7,-36,-34,-10,14,-2
15:35:30:103194,4,12,58,21,17,-6,-19,-21
15:35:30:111354,4,12,58,21,17,-6,-19,-21
15:35:30:112140,-10,-9,-7,8,8,0,-15,-8
15:35:30:118212,5,0,21,0,-39,-23,-15,-28
15:35:30:134020,5,0,21,0,-39,-23,-15,-28
15:35:30:134662,3,-4,23,16,47,14,-26,-38
15:35:30:140645,15,5,38,19,21,9,4,14
15:35:30:148877,15,5,38,19,21,9,4,14
15:35:30:149675,-16,-12,-16,4,-43,-4,-7,5
15:35:30:163187,-9,-5,-34,-23,-38,-15,-21,-33
15:35:30:171400,-9,-5,-34,-23,-38,-15,-21,-33
15:35:30:172195,10,-6,-30,-19,-14,-17,-6,6
15:35:30:178110,1,-13,-15,-6,17,15,-9,-22
15:35:30:193860,1,-13,-15,-6,17,15,-9,-22
15:35:30:195473,-20,4,2,17,5,21,16,-26
15:35:30:200683,1,-13,20,-7,55,6,-8,16
15:35:30:208832,1,-13,20,-7,55,6,-8,16
15:35:30:209653,-1,-4,25,22,-22,-9,-12,17
15:35:30:223169,-7,-3,17,-3,-37,-14,6,20
15:35:30:231414,-7,-3,17,-3,-37,-14,6,20
15:35:30:232167,-4,19,-19,-1,18,-9,3,33
15:35:30:238156,5,6,-67,13,28,10,8,5
15:35:30:253874,5,6,-67,13,28,10,8,5
15:35:30:254664,-9,3,33,-8,-30,-18,-6,-45
15:35:30:260619,-13,-18,-3,-1,-22,-11,-10,-34
15:35:30:268947,-13,-18,-3,-1,-22,-11,-10,-34
15:35:30:269648,0,-8,-43,11,5,4,32,-6
15:35:30:283140,-5,-6,14,-7,-35,-3,27,38
15:35:30:291358,-5,-6,14,-7,-35,-3,27,38
15:35:30:292128,12,-7,-15,-6,-23,2,-13,-44
15:35:30:298157,1,8,38,10,4,-11,-35,38
15:35:30:313849,1,8,38,10,4,-11,-35,38
15:35:30:314618,-10,-72,-25,-23,-27,-16,-10,-10
15:35:30:320606,2,19,32,4,49,18,7,6
15:35:30:328855,2,19,32,4,49,18,7,6
15:35:30:329631,0,20,32,-2,21,12,3,-4
15:35:30:343144,-14,-16,-6,-9,4,-5,-4,-44
15:35:30:351358,-14,-16,-6,-9,4,-5,-4,-44
15:35:30:352129,5,-5,-23,14,49,3,-24,-2
15:35:30:358120,-2,11,-4,-5,-34,1,12,-1
15:35:30:373837,-2,11,-4,-5,-34,1,12,-1
15:35:30:374639,13,0,-38,-5,-49,-13,-39,8
15:35:30:380610,-8,-10,-20,17,17,-1,-6,-12
15:35:30:388847,-8,-10,-20,17,17,-1,-6,-12
15:35:30:389664,-12,-5,-13,-6,-6,-13,6,9
15:35:30:403203,4,-6,8,3,-34,6,6,44
15:35:30:411328,4,-6,8,3,-34,6,6,44
15:35:30:412118,8,9,22,-7,0,5,-8,-8
15:35:30:418143,4,5,-15,-10,-25,-6,-1,8
15:35:30:433868,4,5,-15,-10,-25,-6,-1,8
15:35:30:434648,3,10,-3,3,13,-4,26,11
15:35:30:440664,11,4,-18,-10,48,12,-6,-1
15:35:30:448826,11,4,-18,-10,48,12,-6,-1
15:35:30:449622,-13,-21,-5,9,-32,1,3,-3
15:35:30:463146,-3,16,4,5,-34,2,-12,-6
15:35:30:471352,-3,16,4,5,-34,2,-12,-6
15:35:30:472125,-3,-4,4,13,-33,-6,-1,-12
15:35:30:478074,1,-23,-19,-4,17,-6,-11,-17
15:35:30:493805,1,-23,-19,-4,17,-6,-11,-17
15:35:30:494595,-3,13,6,-11,-18,4,2,-31
15:35:30:500717,-5,-13,14,-7,29,35,-24,-35
15:35:30:508807,-5,-13,14,-7,29,35,-24,-35
15:35:30:509588,3,29,-2,-13,7,-3,30,28
15:35:30:523132,-9,6,2,-7,-22,-26,20,10
15:35:30:531358,-9,6,2,-7,-22,-26,20,10
15:35:30:532104,-19,8,34,12,-10,11,-26,-74
15:35:30:538159,-4,-13,28,1,-15,-2,22,-4
15:35:30:553843,-4,-13,28,1,-15,-2,22,-4
15:35:30:554600,-6,-25,-44,-16,-18,-2,-4,14
15:35:30:560587,0,2,-5,-1,21,-7,5,0
15:35:30:568839,0,2,-5,-1,21,-7,5,0
15:35:30:569624,11,-10,-25,-20,19,6,-13,27
15:35:30:583171,-6,11,20,3,7,-13,-9,-5
15:35:30:591265,-6,11,20,3,7,-13,-9,-5
15:35:30:592144,3,-16,10,6,19,1,-5,27
15:35:30:598196,-20,-16,0,-5,1,-24,-11,-24
15:35:30:613896,-20,-16,0,-5,1,-24,-11,-24
15:35:30:614652,4,11,-29,15,92,40,4,9
15:35:30:620647,4,-8,-44,-16,-20,7,8,24
15:35:30:628805,4,-8,-44,-16,-20,7,8,24
15:35:30:629626,-1,1,4,-18,-27,-20,9,18
15:35:30:643124,-8,12,-2,-2,-7,0,1,10
15:35:30:651412,-8,12,-2,-2,-7,0,1,10
15:35:30:652150,7,35,16,-6,13,0,10,9
15:35:30:658162,6,-41,-37,16,-54,-26,43,1
15:35:30:673884,6,-41,-37,16,-54,-26,43,1
15:35:30:674700,-8,-3,27,0,-13,-9,4,-5
15:35:30:680640,27,1,-11,-5,20,9,-19,28
15:35:30:688880,27,1,-11,-5,20,9,-19,28
15:35:30:689698,2,2,20,7,17,-3,3,15
15:35:30:703146,-2,-12,-12,-4,-13,0,-23,-21
15:35:30:711339,-2,-12,-12,-4,-13,0,-23,-21
15:35:30:712158,-10,-2,-2,-9,-36,-13,-9,-11
15:35:30:718138,-2,25,0,7,35,4,-3,24
15:35:30:733915,-2,25,0,7,35,4,-3,24
15:35:30:734722,0,-1,44,21,12,17,-9,-21
15:35:30:740612,-4,-2,12,-10,-10,5,-6,-16
15:35:30:748871,-4,-2,12,-10,-10,5,-6,-16
15:35:30:749663,22,-3,-32,-6,-33,-10,29,-4
15:35:30:763111,-12,4,19,2,1,-7,5,-8
15:35:30:771376,-12,4,19,2,1,-7,5,-8
15:35:30:772174,3,-18,-28,-6,-16,-19,-10,-4
15:35:30:778130,1,-1,16,13,0,4,-6,-42
15:35:30:793810,1,-1,16,13,0,4,-6,-42
15:35:30:794659,-17,14,18,-6,-15,1,16,11
15:35:30:800613,-1,10,-23,3,52,28,-6,8
15:35:30:808842,-1,10,-23,3,52,28,-6,8
15:35:30:809658,-10,-1,31,-5,12,-6,10,2
15:35:30:823139,4,-12,-31,-28,-37,-27,-22,7
15:35:30:831365,4,-12,-31,-28,-37,-27,-22,7
15:35:30:832125,-9,-9,-11,6,73,8,-1,-8
15:35:30:838090,12,-8,4,-13,-29,-20,-7,-11
15:35:30:853853,12,-8,4,-13,-29,-20,-7,-11
15:35:30:854662,7,19,28,14,5,24,-22,-6
15:35:30:860577,-4,12,-2,3,22,2,7,-10
15:35:30:868878,-4,12,-2,3,22,2,7,-10
15:35:30:869684,15,-22,-23,-4,8,-6,-8,7
15:35:30:883219,-6,9,16,0,8,9,5,-2
15:35:30:891350,-6,9,16,0,8,9,5,-2
15:35:30:892097,-8,-9,22,-4,-24,-7,-2,-8
15:35:30:898132,-7,-5,1,-5,-16,-12,-6,-40
15:35:30:913901,-7,-5,1,-5,-16,-12,-6,-40
15:35:30:914653,-9,-11,-44,-11,-13,-3,5,-2
15:35:30:920621,5,-2,27,24,-43,-9,7,39
15:35:30:928853,5,-2,27,24,-43,-9,7,39
15:35:30:929606,-2,3,3,15,78,26,-10,-14
15:35:30:943193,-1,-1,-24,3,-2,10,22,-8
15:35:30:951441,-1,-1,-24,3,-2,10,22,-8
15:35:30:952187,-4,9,-11,-2,-49,-25,10,15
15:35:30:958155,-20,-13,-8,-8,-1,1,11,26
15:35:30:973870,-20,-13,-8,-8,-1,1,11,26
15:35:30:974659,12,-35,-30,6,-18,-25,-17,-12
15:35:30:980695,3,-5,5,25,98,25,-9,-12
15:35:30:988188,3,-5,5,25,98,25,-9,-12
15:35:30:995644,-16,8,10,6,-34,-6,-4,2
15:35:31:3137,7,11,-7,-8,18,-2,-1,6
15:35:31:11384,7,11,-7,-8,18,-2,-1,6
15:35:31:12185,3,-11,-4,11,25,6,4,5
15:35:31:25672,0,-20,-9,-12,-25,-2,-38,3
15:35:31:33930,0,-20,-9,-12,-25,-2,-38,3
15:35:31:34671,-3,6,-21,-14,-16,-8,-6,-14
15:35:31:40623,-2,2,-14,-2,-3,1,2,-7
15:35:31:48254,-2,2,-14,-2,-3,1,2,-7
15:35:31:55637,0,17,5,13,-21,-14,5,12
15:35:31:63129,2,2,-6,-7,4,7,-2,-7
15:35:31:71367,2,2,-6,-7,4,7,-2,-7
15:35:31:72138,-16,11,9,-21,-19,-4,2,0
15:35:31:85680,-9,4,14,9,-24,-2,-2,-3
15:35:31:93807,-9,4,14,9,-24,-2,-2,-3
15:35:31:94647,8,4,-10,15,32,18,-2,0
15:35:31:100626,4,-7,-11,-4,-16,-1,13,-2
15:35:31:108195,4,-7,-11,-4,-16,-1,13,-2
15:35:31:115642,3,12,37,-10,-10,-3,-8,1
15:35:31:123145,-2,4,23,-2,-6,-3,-6,4
15:35:31:131437,-2,4,23,-2,-6,-3,-6,4
15:35:31:132190,-3,-12,-3,-9,35,-5,-20,-22
15:35:31:145616,35,4,-7,-9,-12,0,-13,-8
15:35:31:153876,35,4,-7,-9,-12,0,-13,-8
15:35:31:154643,11,10,0,-21,-51,-5,23,12
15:35:31:160613,-14,2,-15,-16,6,-7,13,1
15:35:31:168287,-14,2,-15,-16,6,-7,13,1
15:35:31:175626,-7,2,3,-6,10,-8,-9,-12
15:35:31:183199,-3,14,28,3,57,38,6,5
15:35:31:191335,-3,14,28,3,57,38,6,5
15:35:31:192117,-9,-22,-14,14,19,2,6,7
15:35:31:205678,4,23,23,-6,-23,-17,19,2
15:35:31:213837,4,23,23,-6,-23,-17,19,2
15:35:31:214665,-4,6,22,0,-15,-13,-12,-21
15:35:31:220666,0,-4,3,5,27,4,2,0
15:35:31:228128,0,-4,3,5,27,4,2,0
15:35:31:235709,-1,2,-6,23,11,2,7,13
15:35:31:243133,-12,-21,-16,-15,-63,-38,-16,-3
15:35:31:251400,-12,-21,-16,-15,-63,-38,-16,-3
15:35:31:252160,4,1,4,-5,64,35,-1,6
15:35:31:265644,3,-37,-47,0,-52,-13,-3,-4
15:35:31:273832,3,-37,-47,0,-52,-13,-3,-4
15:35:31:274646,1,-15,21,1,-5,-5,-36,-6
15:35:31:280755,-6,-2,-38,-11,20,-4,0,-24
15:35:31:288176,-6,-2,-38,-11,20,-4,0,-24
15:35:31:295660,-1,-3,-21,-9,4,30,5,-5
15:35:31:303107,-8,6,22,8,53,19,-1,4
15:35:31:311322,-8,6,22,8,53,19,-1,4
15:35:31:312143,4,-1,-34,-4,-32,-1,22,10
15:35:31:325599,-2,-6,8,-26,-80,-14,11,4
15:35:31:333890,-2,-6,8,-26,-80,-14,11,4
15:35:31:334632,0,11,11,-5,33,-5,0,2
15:35:31:340615,-6,-38,7,2,1,-6,-6,7
15:35:31:348219,-6,-38,7,2,1,-6,-6,7
15:35:31:355625,-4,-25,-3,-1,50,-11,5,-15
15:35:31:363099,-2,15,6,16,121,38,-1,-8
15:35:31:371365,-2,15,6,16,121,38,-1,-8
15:35:31:372146,3,1,18,1,-46,-10,8,0
15:35:31:385656,-6,5,14,-31,-44,-21,-9,-3
15:35:31:393816,-6,5,14,-31,-44,-21,-9,-3
15:35:31:394625,7,44,12,1,29,18,1,11
15:35:31:400633,-1,-24,-14,17,-14,10,-3,-5
15:35:31:408196,-1,-24,-14,17,-14,10,-3,-5
15:35:31:415686,4,-10,-12,-26,-39,12,6,9
15:35:31:423152,-6,43,3,11,39,7,-8,-9
15:35:31:431324,-6,43,3,11,39,7,-8,-9
15:35:31:432145,-8,1,8,0,-18,-6,7,-1
15:35:31:445587,-13,-6,28,31,47,12,6,-2
15:35:31:453870,-13,-6,28,31,47,12,6,-2
15:35:31:454674,-2,8,16,2,-8,2,-5,-3
15:35:31:460612,6,-3,3,0,-81,-38,-22,-3
15:35:31:468172,6,-3,3,0,-81,-38,-22,-3
15:35:31:475610,-12,-4,-11,14,22,0,-5,-3
15:35:31:483163,12,19,-4,22,35,5,7,13
15:35:31:491322,12,19,-4,22,35,5,7,13
15:35:31:492103,-11,0,4,-17,-60,-27,-14,-14
15:35:31:505657,2,11,-4,-10,0,6,2,2
15:35:31:513814,2,11,-4,-10,0,6,2,2
15:35:31:514606,-3,-12,-14,-8,14,11,3,0
15:35:31:520636,-1,-14,-30,-36,-14,-3,2,4
15:35:31:528144,-1,-14,-30,-36,-14,-3,2,4
15:35:31:535678,2,-22,-10,-16,-32,-23,-8,-7
15:35:31:552046,2,10,-17,-2,57,23,2,-5
15:35:31:552775,2,10,-17,-2,57,23,2,-5
15:35:31:553572,22,23,-14,6,-33,-3,5,17
15:35:31:565608,1,-21,-19,5,-39,-11,-4,-7
15:35:31:573873,1,-21,-19,5,-39,-11,-4,-7
15:35:31:574647,-4,-10,-22,1,2,14,-14,1
15:35:31:580683,6,-1,-1,29,-20,-1,-2,8
15:35:31:588153,6,-1,-1,29,-20,-1,-2,8
15:35:31:595633,-6,22,6,1,14,-11,-9,-2
15:35:31:603151,-2,8,17,-62,10,0,-6,-6
15:35:31:611312,-2,8,17,-62,10,0,-6,-6
15:35:31:612119,-6,-4,4,-10,8,3,-1,-4
15:35:31:625603,-1,8,-7,21,61,26,-4,-10
15:35:31:633830,-1,8,-7,21,61,26,-4,-10
15:35:31:634577,3,-10,-30,3,-26,-8,9,2
15:35:31:640618,-6,-13,-8,-12,-29,-9,-3,15
15:35:31:648207,-6,-13,-8,-12,-29,-9,-3,15
15:35:31:655625,-2,-14,17,0,-7,-8,-1,-6
15:35:31:663135,-5,14,15,8,-2,-9,2,-9
15:35:31:671370,-5,14,15,8,-2,-9,2,-9
15:35:31:672136,0,2,6,9,21,-9,1,0
15:35:31:685759,2,5,29,11,2,18,3,1
15:35:31:693790,2,5,29,11,2,18,3,1
15:35:31:694594,4,-12,-11,-7,-22,-20,1,-6
15:35:31:700649,-13,1,1,1,-12,-22,-1,2
15:35:31:708161,-13,1,1,1,-12,-22,-1,2
15:35:31:715626,-2,-9,19,8,5,0,-4,12
15:35:31:723126,4,3,10,8,-27,3,4,3
15:35:31:731392,4,3,10,8,-27,3,4,3
15:35:31:732133,-9,-3,-22,9,49,7,-4,-14
15:35:31:745660,8,0,16,10,-4,7,3,2
15:35:31:753861,8,0,16,10,-4,7,3,2
15:35:31:754645,-13,-46,-15,-2,-17,1,0,-5
15:35:31:760615,-4,1,2,-3,-9,-19,5,1
15:35:31:768293,-4,1,2,-3,-9,-19,5,1
15:35:31:775598,12,12,4,-17,7,4,3,-5
15:35:31:783159,-3,6,7,-5,-9,5,-2,-13
15:35:31:791400,-3,6,7,-5,-9,5,-2,-13
15:35:31:792168,2,4,2,-4,-7,2,-6,2
15:35:31:805668,8,5,-24,5,-1,-6,5,2
15:35:31:813907,8,5,-24,5,-1,-6,5,2
15:35:31:814716,-6,8,0,35,37,12,7,-10
15:35:31:820648,-2,-15,-17,7,-41,-22,-14,1
15:35:31:828223,-2,-15,-17,7,-41,-22,-14,1
15:35:31:835702,-1,-3,2,-13,6,9,8,17
15:35:31:843140,9,-5,10,-30,-11,-4,-12,-32
15:35:31:851376,9,-5,10,-30,-11,-4,-12,-32
15:35:31:852077,-10,18,29,25,-12,-4,-5,-5
15:35:31:865671,-11,8,7,4,-3,-4,4,10
15:35:31:873880,-11,8,7,4,-3,-4,4,10
15:35:31:874693,2,2,10,10,45,2,4,-4
15:35:31:880699,-3,-22,-37,-18,-21,-16,8,-2
15:35:31:888188,-3,-22,-37,-18,-21,-16,8,-2
15:35:31:895672,15,29,-23,-9,-12,16,-4,10
15:35:31:903185,-4,-5,27,14,4,-10,-5,-3
15:35:31:910676,-4,-5,27,14,4,-10,-5,-3
15:35:31:918158,-11,-5,9,-13,-24,-8,-10,12
15:35:31:925567,-12,-28,4,1,-25,-7,-7,-4
15:35:31:933879,-12,-28,4,1,-25,-7,-7,-4
15:35:31:934632,2,-10,1,-10,13,-8,-3,34
15:35:31:948856,0,3,-2,12,31,-2,0,8
15:35:31:949646,0,3,-2,12,31,-2,0,8
15:35:31:955629,7,1,6,47,-13,0,2,-13
15:35:31:963066,0,-27,13,13,12,13,5,9
15:35:31:970699,0,-27,13,13,12,13,5,9
15:35:31:978108,-9,-17,-10,-18,14,8,1,-14
15:35:31:985659,1,-5,2,-1,-17,1,1,-2
15:35:31:993858,1,-5,2,-1,-17,1,1,-2
15:35:31:994633,7,-2,9,-2,-20,-9,-2,-1
15:35:32:8826,3,18,-3,-10,-1,-4,-6,7
15:35:32:9619,3,18,-3,-10,-1,-4,-6,7
15:35:32:15632,-20,0,-18,-19,-25,6,-13,-33
15:35:32:23083,-8,8,-11,9,13,6,8,7
15:35:32:30734,-8,8,-11,9,13,6,8,7
15:35:32:38157,3,5,1,6,-18,-16,7,-5
15:35:32:45606,-1,0,-7,-13,-1,-2,2,-13
15:35:32:53849,-1,0,-7,-13,-1,-2,2,-13
15:35:32:54673,0,14,-8,1,-8,-3,7,12
15:35:32:68937,-12,12,-39,-4,-42,-16,-1,8
15:35:32:69669,-12,12,-39,-4,-42,-16,-1,8
15:35:32:75592,-21,-13,24,-7,39,10,1,-7
15:35:32:83189,2,0,-14,0,3,22,2,14
15:35:32:90702,2,0,-14,0,3,22,2,14
15:35:32:98269,21,-12,-7,10,-11,-4,8,26
15:35:32:105672,-1,-36,6,-22,-10,-17,-10,8
15:35:32:113854,-1,-36,6,-22,-10,-17,-10,8
15:35:32:114602,4,3,2,-13,-2,-11,-11,-16
15:35:32:128832,6,5,6,11,76,36,15,4
15:35:32:129609,6,5,6,11,76,36,15,4
15:35:32:135688,-12,17,5,-8,-44,-24,-6,-4
15:35:32:143134,-7,29,-15,-23,33,13,-7,-9
15:35:32:150734,-7,29,-15,-23,33,13,-7,-9
15:35:32:158157,-9,-6,-13,-13,5,2,-4,5
15:35:32:165641,-17,1,15,-8,-24,-15,-9,-10
15:35:32:173808,-17,1,15,-8,-24,-15,-9,-10
15:35:32:174658,5,0,-11,0,-7,-3,4,3
15:35:32:188845,19,-28,18,1,-34,-6,9,12
15:35:32:189655,19,-28,18,1,-34,-6,9,12
15:35:32:195565,-24,-7,14,19,61,-4,-3,-32
15:35:32:203176,9,19,-19,10,-19,-1,0,-12
15:35:32:210683,9,19,-19,10,-19,-1,0,-12
15:35:32:218210,-1,17,23,-7,-28,0,-3,-7
15:35:32:225574,-8,19,-16,7,-6,-10,0,-11
15:35:32:233915,-8,19,-16,7,-6,-10,0,-11
15:35:32:234640,10,-5,-6,-31,-8,-5,-2,1
15:35:32:248827,-20,-6,-13,25,5,4,-2,19
15:35:32:249631,-20,-6,-13,25,5,4,-2,19
15:35:32:255596,10,-4,-19,-1,3,11,6,-1
15:35:32:263133,-19,-24,-21,-14,-48,-4,2,-11
15:35:32:270698,-19,-24,-21,-14,-48,-4,2,-11
15:35:32:278106,22,-2,8,-19,-51,-13,8,18
15:35:32:285670,13,11,11,-9,38,3,-7,-14
15:35:32:293833,13,11,11,-9,38,3,-7,-14
15:35:32:294631,-3,-10,-16,6,12,7,-4,2
15:35:32:308814,17,11,42,-7,-19,-2,-12,-8
15:35:32:309615,17,11,42,-7,-19,-2,-12,-8
15:35:32:315620,-17,-15,-29,-11,2,-8,-11,-9
15:35:32:323149,-16,-2,2,-4,32,2,-4,9
15:35:32:330711,-16,-2,2,-4,32,2,-4,9
15:35:32:338159,4,5,8,-11,0,-5,3,-21
15:35:32:345601,11,-12,9,5,-6,-4,-6,13
15:35:32:353872,11,-12,9,5,-6,-4,-6,13
15:35:32:354662,5,30,23,1,-25,-3,-4,-10
15:35:32:368899,10,13,2,-2,20,-4,5,-5
15:35:32:369666,10,13,2,-2,20,-4,5,-5
15:35:32:375627,-9,-8,15,-2,18,1,0,8
15:35:32:383184,-4,-15,-18,-7,7,9,10,37
15:35:32:390684,-4,-15,-18,-7,7,9,10,37
15:35:32:398161,-8,-6,10,-7,-3,1,5,18
15:35:32:405643,-5,-9,16,17,30,5,-1,-20
15:35:32:413861,-5,-9,16,17,30,5,-1,-20
15:35:32:414610,6,-14,-34,2,-2,5,-13,31
15:35:32:428800,0,8,-6,-7,-75,-48,-12,-5
15:35:32:429599,0,8,-6,-7,-75,-48,-12,-5
15:35:32:435676,0,13,7,53,62,8,27,10
15:35:32:443125,-9,18,5,5,34,1,-14,10
15:35:32:450735,-9,18,5,5,34,1,-14,10
15:35:32:458110,1,-49,8,-36,-21,2,-11,-27
15:35:32:465661,12,10,13,-15,-37,-4,-6,-62
15:35:32:473832,12,10,13,-15,-37,-4,-6,-62
15:35:32:474646,-11,1,-4,2,19,4,-11,-11
15:35:32:488825,3,-20,0,-25,-10,-1,11,27
15:35:32:489642,3,-20,0,-25,-10,-1,11,27
15:35:32:495599,12,-7,-25,30,28,3,1,-21
15:35:32:503130,-5,-3,-18,3,69,47,-1,7
15:35:32:510637,-5,-3,-18,3,69,47,-1,7
15:35:32:518178,7,23,-5,3,14,17,7,2
15:35:32:525586,-11,1,15,17,-32,-21,-9,0
15:35:32:533938,-11,1,15,17,-32,-21,-9,0
15:35:32:534706,-5,0,29,-9,-38,-8,-30,-35
15:35:32:548854,8,1,-6,-12,-11,-7,-13,-37
15:35:32:549643,8,1,-6,-12,-11,-7,-13,-37
15:35:32:555633,-24,11,-7,-17,5,-5,3,2
15:35:32:563117,0,-11,15,7,-1,7,5,34
15:35:32:570768,0,-11,15,7,-1,7,5,34
15:35:32:578116,15,4,16,-19,-47,-22,8,34
15:35:32:585635,-36,19,24,35,101,5,-5,-9
15:35:32:593811,-36,19,24,35,101,5,-5,-9
15:35:32:594635,4,-2,40,17,25,-4,7,-14
15:35:32:608852,12,10,-20,-13,-13,-3,11,2
15:35:32:609620,12,10,-20,-13,-13,-3,11,2
15:35:32:615648,-5,-15,-5,7,6,11,0,15
15:35:32:623123,2,-1,6,-9,-7,19,-9,36
15:35:32:630745,2,-1,6,-9,-7,19,-9,36
15:35:32:638105,7,-1,-18,-10,-47,-17,-42,-44
15:35:32:645658,15,-15,0,4,38,3,3,-32
15:35:32:653813,15,-15,0,4,38,3,3,-32
15:35:32:654597,-12,-17,-1,-7,-73,-13,6,-5
15:35:32:668948,16,3,17,29,20,9,3,-15
15:35:32:669640,16,3,17,29,20,9,3,-15
15:35:32:675623,-11,9,-39,-7,6,-23,-3,13
15:35:32:683167,7,-8,-28,-11,-16,9,-5,-20
15:35:32:690643,7,-8,-28,-11,-16,9,-5,-20
15:35:32:698241,-4,-2,4,8,-20,-2,10,42
15:35:32:705643,19,-5,-31,-8,-31,-14,0,-12
15:35:32:713857,19,-5,-31,-8,-31,-14,0,-12
15:35:32:714609,-1,10,1,-8,48,28,19,-6
15:35:32:728812,-29,-2,-33,-22,-23,-7,8,35
15:35:32:729598,-29,-2,-33,-22,-23,-7,8,35
15:35:32:735698,-4,-1,11,10,39,-6,-21,8
15:35:32:743131,-5,-1,-11,-14,-4,-3,-7,-51
15:35:32:750761,-5,-1,-11,-14,-4,-3,-7,-51
15:35:32:758117,5,6,-38,1,2,31,1,-11
15:35:32:765633,-10,4,21,-10,-47,-9,6,9
15:35:32:773858,-10,4,21,-10,-47,-9,6,9
15:35:32:774666,-7,24,2,6,-22,-8,0,-33
15:35:32:788864,-10,-25,28,16,-10,-6,4,-11
15:35:32:789650,-10,-25,28,16,-10,-6,4,-11
15:35:32:795637,18,-4,-23,-12,27,5,2,34
15:35:32:803118,7,-5,2,-7,-70,-17,2,42
15:35:32:810658,7,-5,2,-7,-70,-17,2,42
15:35:32:818176,3,-9,-6,-2,-2,-8,3,47
15:35:32:825571,-24,-15,5,-13,-13,-17,-8,-16
15:35:32:833868,-24,-15,5,-13,-13,-17,-8,-16
15:35:32:834590,8,-5,5,-9,-3,-3,5,19
15:35:32:848805,24,27,-15,3,-3,26,22,-26
15:35:32:849611,24,27,-15,3,-3,26,22,-26
15:35:32:855610,-11,-16,24,32,24,14,10,-47
15:35:32:871357,-27,-4,15,-5,-22,-14,-15,-30
15:35:32:872129,-27,-4,15,-5,-22,-14,-15,-30
15:35:32:878090,-6,-11,7,-1,0,9,-8,25
15:35:32:885640,-11,-12,-58,4,26,0,0,12
15:35:32:893138,-11,-12,-58,4,26,0,0,12
15:35:32:900651,-29,-12,-10,-5,-15,-17,-15,9
15:35:32:908786,21,-2,-2,-5,11,0,8,30
15:35:32:909627,21,-2,-2,-5,11,0,8,30
15:35:32:915606,8,0,-24,-8,-16,-1,33,2
15:35:32:931376,2,1,29,19,1,-12,7,-12
15:35:32:932137,2,1,29,19,1,-12,7,-12
15:35:32:938150,-2,-7,5,27,20,-3,-7,7
15:35:32:946337,17,7,-18,-11,57,12,-3,8
15:35:32:947138,17,7,-18,-11,57,12,-3,8
15:35:32:960588,6,11,11,-19,21,11,-3,-10
15:35:32:968881,-21,3,3,-12,-20,-9,-29,-20
15:35:32:969604,-21,3,3,-12,-20,-9,-29,-20
15:35:32:975590,-12,22,-7,-12,-29,-12,8,-4
15:35:32:991352,8,-8,1,-6,17,23,17,24
15:35:32:992172,8,-8,1,-6,17,23,17,24
15:35:32:998174,11,-15,0,-16,-43,2,3,-3
15:35:33:6327,7,-28,-19,-16,39,-4,8,38
15:35:33:7145,7,-28,-19,-16,39,-4,8,38
15:35:33:20635,14,-7,-17,-10,-33,-23,-8,0
15:35:33:28833,11,5,35,14,13,3,2,-29
15:35:33:29645,11,5,35,14,13,3,2,-29
15:35:33:35640,-9,-12,17,-9,-55,-20,-5,-5
15:35:33:51369,10,0,-42,3,12,16,0,23
15:35:33:52128,10,0,-42,3,12,16,0,23
15:35:33:58088,2,7,16,2,1,4,2,-19
15:35:33:66317,7,-11,-16,15,25,-9,-33,-54
15:35:33:67120,7,-11,-16,15,25,-9,-33,-54
15:35:33:80681,-8,-20,-1,4,7,3,-21,-63
15:35:33:88817,-4,8,-2,-27,-61,-11,-5,9
15:35:33:89635,-4,8,-2,-27,-61,-11,-5,9
15:35:33:95583,12,14,-5,14,63,4,-3,-8
15:35:33:111302,-4,1,-14,21,-34,16,18,-14
15:35:33:112083,-4,1,-14,21,-34,16,18,-14
15:35:33:118154,13,4,5,5,-12,-9,-14,14
15:35:33:126318,-15,-5,28,-15,-34,-22,-19,-6
15:35:33:127131,-15,-5,28,-15,-34,-22,-19,-6
15:35:33:140645,-2,1,24,8,101,26,18,29
15:35:33:148810,-8,4,1,-19,-23,-13,23,31
15:35:33:149601,-8,4,1,-19,-23,-13,23,31
15:35:33:155570,16,1,17,-15,-32,-9,-3,-32
15:35:33:171292,-2,3,21,15,22,6,25,43
15:35:33:172074,-2,3,21,15,22,6,25,43
15:35:33:178143,12,-5,9,34,-7,-6,-28,-14
15:35:33:186324,-3,3,-22,8,12,5,-15,18
15:35:33:187091,-3,3,-22,8,12,5,-15,18
15:35:33:200720,-7,4,-12,-5,-1,26,9,20
15:35:33:208770,-3,7,-3,2,0,-6,13,3
15:35:33:209574,-3,7,-3,2,0,-6,13,3
15:35:33:215719,-13,1,-7,-4,-5,-11,5,-32
15:35:33:231378,0,6,27,22,20,-7,-12,-8
15:35:33:232079,0,6,27,22,20,-7,-12,-8
15:35:33:238175,-4,-5,-21,-8,-16,11,5,79
15:35:33:246324,-8,-35,25,-14,-24,1,0,-4
15:35:33:247090,-8,-35,25,-14,-24,1,0,-4
15:35:33:260615,-8,-1,0,1,-7,-4,10,3
15:35:33:268852,6,8,5,-17,-26,-12,-26,-66
15:35:33:269581,6,8,5,-17,-26,-12,-26,-66
15:35:33:275625,-20,-1,8,-2,6,-3,8,22
15:35:33:291313,-5,5,-19,2,35,17,-5,5
15:35:33:292130,-5,5,-19,2,35,17,-5,5
15:35:33:298220,4,3,17,6,-29,-1,5,23
15:35:33:306293,-17,8,-14,10,5,5,-22,-71
15:35:33:307082,-17,8,-14,10,5,5,-22,-71
15:35:33:320634,-6,-2,-2,-10,-10,-11,2,39
15:35:33:328864,3,4,6,-5,-6,3,-1,19
15:35:33:329631,3,4,6,-5,-6,3,-1,19
15:35:33:335704,0,-23,-12,-4,-24,-8,6,-3
15:35:33:351399,0,-23,-12,-4,-24,-8,6,-3
15:35:33:352090,5,3,-9,24,-9,0,-14,-62
15:35:33:358119,2,-1,4,3,22,1,-5,-23
15:35:33:373869,2,-1,4,3,22,1,-5,-23
15:35:33:374610,-9,-2,-2,-7,-46,-42,4,15
15:35:33:380623,31,8,-13,11,41,11,-3,-52
15:35:33:388810,31,8,-13,11,41,11,-3,-52
15:35:33:389649,1,7,37,-28,-21,-5,-3,-3
15:35:33:395614,-16,3,-36,-21,18,2,-3,32
15:35:33:411354,-16,3,-36,-21,18,2,-3,32
15:35:33:412095,7,1,17,0,34,-2,6,27
15:35:33:418212,17,5,-11,-2,-1,9,-2,-3
15:35:33:433867,17,5,-11,-2,-1,9,-2,-3
15:35:33:434616,-6,-6,-15,16,-8,0,12,7
15:35:33:440563,-7,-20,-26,13,37,-8,-8,-29
15:35:33:448839,-7,-20,-26,13,37,-8,-8,-29
15:35:33:449617,10,1,-9,-5,47,15,-10,2
15:35:33:455588,3,-11,-69,-10,-78,-9,-7,-5
15:35:33:471300,3,-11,-69,-10,-78,-9,-7,-5
15:35:33:472118,4,-4,13,8,-6,-9,2,-1
15:35:33:478122,5,14,24,-10,1,-11,1,-11
15:35:33:493871,5,14,24,-10,1,-11,1,-11
15:35:33:494580,-6,-6,17,0,8,-1,-3,16
15:35:33:500653,-8,5,3,-10,-31,-14,7,-9
15:35:33:508809,-8,5,3,-10,-31,-14,7,-9
15:35:33:509588,6,-3,-5,-2,30,-9,-8,-35
15:35:33:515684,-28,-4,15,-16,-32,11,-15,-40
15:35:33:531423,-28,-4,15,-16,-32,11,-15,-40
15:35:33:532128,-7,1,-4,0,-18,16,5,23
15:35:33:538076,15,0,7,0,53,-8,-4,-21
15:35:33:553813,15,0,7,0,53,-8,-4,-21
15:35:33:554586,3,2,-11,-5,-57,-37,-4,41
15:35:33:560603,-11,10,4,-9,-49,-9,3,28
15:35:33:568889,-11,10,4,-9,-49,-9,3,28
15:35:33:569651,-3,0,-31,-13,-18,-2,-19,13
15:35:33:575585,-12,13,9,20,50,18,-27,-43
15:35:33:591354,-12,13,9,20,50,18,-27,-43
15:35:33:592081,20,7,22,7,26,19,25,-10
15:35:33:598209,-4,-4,39,0,-12,2,2,13
15:35:33:613847,-4,-4,39,0,-12,2,2,13
15:35:33:614590,-19,-3,22,3,-85,4,19,-8
15:35:33:620658,3,-4,-11,12,-31,-11,23,10
15:35:33:628835,3,-4,-11,12,-31,-11,23,10
15:35:33:629586,-18,-9,0,17,111,35,-10,13
15:35:33:635657,-3,-3,13,2,6,-9,1,30
15:35:33:651363,-3,-3,13,2,6,-9,1,30
15:35:33:652143,11,-7,-25,-4,19,0,-11,-12
15:35:33:658124,12,-1,-13,-2,37,1,-3,23
15:35:33:673807,12,-1,-13,-2,37,1,-3,23
15:35:33:674581,3,1,27,10,28,-6,-10,13
15:35:33:680721,6,-1,-1,-10,-35,-18,-7,-48
15:35:33:688799,6,-1,-1,-10,-35,-18,-7,-48
15:35:33:689585,6,-1,-54,-27,31,3,2,48
15:35:33:695628,7,-2,-13,2,107,64,2,41
15:35:33:711296,7,-2,-13,2,107,64,2,41
15:35:33:712099,3,-12,-48,-3,-27,-19,-5,-42
15:35:33:718216,-1,-9,36,11,-38,-18,-13,-17
15:35:33:733969,-1,-9,36,11,-38,-18,-13,-17
15:35:33:734670,2,16,-29,-1,-9,8,29,59
15:35:33:740617,0,-6,21,-6,-12,-7,-11,-14
15:35:33:748814,0,-6,21,-6,-12,-7,-11,-14
15:35:33:749575,-3,-2,15,-14,-72,-49,-3,60
15:35:33:755656,-17,3,-6,-3,-4,6,5,-11
15:35:33:771368,-17,3,-6,-3,-4,6,5,-11
15:35:33:772169,3,-1,-11,2,48,8,12,-8
15:35:33:778103,-2,0,-30,-9,-23,-13,-4,-42
15:35:33:793865,-2,0,-30,-9,-23,-13,-4,-42
15:35:33:794622,-16,-18,-29,-15,-49,-6,-23,-52
15:35:33:800671,-9,-10,-51,30,14,-1,0,8
15:35:33:816338,-9,-10,-51,30,14,-1,0,8
15:35:33:817113,-3,-2,-77,17,27,-22,-7,-64
15:35:33:823136,-8,-9,-20,-19,11,15,26,-9
15:35:33:831402,-8,-9,-20,-19,11,15,26,-9
15:35:33:832148,-14,-12,58,-7,-11,-4,-20,-33
15:35:33:838127,-39,-6,-1,-10,-61,-33,-14,-6
15:35:33:853939,-39,-6,-1,-10,-61,-33,-14,-6
15:35:33:854745,-8,-15,-5,2,-25,3,38,-62
15:35:33:860590,8,24,-10,-7,-11,6,7,-2
15:35:33:868905,8,24,-10,-7,-11,6,7,-2
15:35:33:869656,1,9,-4,23,18,30,4,6
15:35:33:883115,13,-7,13,15,0,10,-1,11
15:35:33:891420,13,-7,13,15,0,10,-1,11
15:35:33:892144,14,8,-3,5,0,10,-24,31
15:35:33:898156,-3,9,22,-21,-34,-29,-41,-22
15:35:33:905669,-3,9,22,-21,-34,-29,-41,-22
15:35:33:913120,-8,1,33,-18,14,15,5,9
15:35:33:920619,19,-3,-18,-13,-45,-37,-6,-20
15:35:33:928819,19,-3,-18,-13,-45,-37,-6,-20
15:35:33:929578,9,7,40,-10,-20,-23,-39,15
15:35:33:943140,34,11,93,17,44,20,9,-7
15:35:33:951369,34,11,93,17,44,20,9,-7
15:35:33:952144,7,1,46,10,36,6,-8,15
15:35:33:958136,-2,5,13,22,42,14,19,47
15:35:33:965665,-2,5,13,22,42,14,19,47
15:35:33:973143,4,-1,-14,-3,-61,-26,6,22
15:35:33:980622,-22,-7,-46,-3,11,16,16,-25
15:35:33:988840,-22,-7,-46,-3,11,16,16,-25
15:35:33:989691,-9,6,-21,3,-5,2,20,15
15:35:34:3167,6,6,25,13,-13,0,-59,41
15:35:34:11296,6,6,25,13,-13,0,-59,41
15:35:34:12090,1,-7,-14,-6,-4,3,0,5
15:35:34:18201,-16,-11,-16,-13,25,11,8,-15
15:35:34:25625,-16,-11,-16,-13,25,11,8,-15
15:35:34:33161,-1,7,26,23,-20,3,13,19
15:35:34:40603,3,16,-3,4,48,29,9,12
15:35:34:48845,3,16,-3,4,48,29,9,12
15:35:34:49617,-17,-3,-41,-32,-12,9,-4,-16
15:35:34:63181,-16,-14,-9,-2,-32,-17,8,-4
15:35:34:71341,-16,-14,-9,-2,-32,-17,8,-4
15:35:34:72129,-2,-6,15,-2,23,21,-19,-43
15:35:34:78083,0,-8,11,-6,-12,-13,-1,42
15:35:34:85726,0,-8,11,-6,-12,-13,-1,42
15:35:34:93056,-1,0,5,2,15,4,-5,-54
15:35:34:100693,-5,2,-6,-2,67,-7,-2,-1
15:35:34:108836,-5,2,-6,-2,67,-7,-2,-1
15:35:34:109637,15,23,46,28,69,28,8,28
15:35:34:123147,1,11,-15,-32,-57,-17,2,-24
15:35:34:131444,1,11,-15,-32,-57,-17,2,-24
15:35:34:132187,12,2,13,1,21,-12,-5,24
15:35:34:138124,1,-5,-23,-12,-17,-8,4,-15
15:35:34:145696,1,-5,-23,-12,-17,-8,4,-15
15:35:34:153149,-5,-7,20,-9,-44,-5,25,16
15:35:34:160610,16,2,19,9,15,28,-13,-1
15:35:34:168939,16,2,19,9,15,28,-13,-1
15:35:34:169658,-7,-1,34,-7,44,13,0,10
15:35:34:183167,4,-3,-2,-34,-50,-22,-2,-28
15:35:34:191356,4,-3,-2,-34,-50,-22,-2,-28
15:35:34:192118,2,-2,-17,-8,11,-8,9,-9
15:35:34:198253,-16,4,32,33,33,9,5,11
15:35:34:205706,-16,4,32,33,33,9,5,11
15:35:34:213158,-7,-10,-56,-33,-49,-25,-6,-2
15:35:34:220675,9,-7,-1,4,39,18,41,20
15:35:34:228830,9,-7,-1,4,39,18,41,20
15:35:34:229623,-14,-6,33,7,-17,-13,-18,-27
15:35:34:243150,-9,-14,-7,6,-35,-20,-8,-11
15:35:34:251445,-9,-14,-7,6,-35,-20,-8,-11
15:35:34:252210,5,-4,13,-22,-67,-23,22,4
15:35:34:258154,1,2,-50,29,51,8,-6,3
15:35:34:265680,1,2,-50,29,51,8,-6,3
15:35:34:273158,-6,0,-46,-17,-34,-25,11,23
15:35:34:280678,11,-13,-17,-10,26,15,9,20
15:35:34:288817,11,-13,-17,-10,26,15,9,20
15:35:34:289639,4,19,30,15,59,4,10,35
15:35:34:303170,-5,4,-50,-12,-2,-4,-11,-2
15:35:34:311303,-5,4,-50,-12,-2,-4,-11,-2
15:35:34:312140,5,-2,0,2,-56,9,-9,9
15:35:34:318234,-8,11,-3,-14,-57,-6,-9,-30
15:35:34:325655,-8,11,-3,-14,-57,-6,-9,-30
15:35:34:333143,-4,-1,24,31,24,12,-14,-13
15:35:34:340600,-3,17,58,-10,-79,-26,-12,-7
15:35:34:348877,-3,17,58,-10,-79,-26,-12,-7
15:35:34:349619,-1,-5,-6,-4,60,37,20,-31
15:35:34:363152,-14,-37,-13,19,1,13,-10,17
15:35:34:371346,-14,-37,-13,19,1,13,-10,17
15:35:34:372120,-8,-3,-23,4,12,-2,9,0
15:35:34:378070,0,-9,-28,-24,46,-17,-7,12
15:35:34:385698,0,-9,-28,-24,46,-17,-7,12
15:35:34:393064,-13,2,35,16,87,17,-7,-9
15:35:34:400680,4,19,52,-22,-53,-13,-5,-3
15:35:34:408851,4,19,52,-22,-53,-13,-5,-3
15:35:34:409646,2,25,-53,-25,-55,-19,-11,-12
15:35:34:423174,9,15,8,9,90,10,-27,-32
15:35:34:431401,9,15,8,9,90,10,-27,-32
15:35:34:432170,4,-11,-19,10,-7,-14,-22,-2
15:35:34:438107,-4,-13,-22,-7,-7,0,-11,24
15:35:34:445684,-4,-13,-22,-7,-7,0,-11,24
15:35:34:453137,-12,-2,19,2,-122,-27,11,-9
15:35:34:460607,-2,-3,27,26,67,19,42,18
15:35:34:468886,-2,-3,27,26,67,19,42,18
15:35:34:469625,8,-10,-9,-35,-17,-5,6,11
15:35:34:483266,-6,-15,-46,-24,-36,-3,1,-12
15:35:34:491371,-6,-15,-46,-24,-36,-3,1,-12
15:35:34:492126,-3,-24,-5,17,-16,4,-22,-30
15:35:34:498241,-3,-2,2,-4,-10,-3,-22,17
15:35:34:505759,-3,-2,2,-4,-10,-3,-22,17
15:35:34:513179,-1,-11,-16,-5,-13,-26,-2,-34
15:35:34:520675,15,8,26,14,14,0,33,-13
15:35:34:528818,15,8,26,14,14,0,33,-13
15:35:34:529624,-21,-4,18,11,10,7,-26,-4
15:35:34:543109,1,-8,16,-15,-69,-17,26,11
15:35:34:551360,1,-8,16,-15,-69,-17,26,11
15:35:34:552100,16,28,48,17,94,66,9,34
15:35:34:558136,-11,-10,-20,38,-9,9,16,24
15:35:34:565678,-11,-10,-20,38,-9,9,16,24
15:35:34:573175,2,-1,-21,-9,-32,-17,-10,0
15:35:34:580648,-8,-1,6,-14,-16,-1,5,-11
15:35:34:588864,-8,-1,6,-14,-16,-1,5,-11
15:35:34:589665,-5,-13,-26,-11,-4,9,15,49
15:35:34:603183,-23,-10,-81,3,-7,-15,-23,-3
15:35:34:611322,-23,-10,-81,3,-7,-15,-23,-3
15:35:34:612118,8,12,27,18,49,3,-15,9
15:35:34:618135,6,9,20,-5,-58,-13,-1,7
15:35:34:625693,6,9,20,-5,-58,-13,-1,7
15:35:34:633140,-5,4,-79,13,-11,4,-18,-43
15:35:34:640621,4,11,7,-5,-1,-12,-23,-2
15:35:34:648894,4,11,7,-5,-1,-12,-23,-2
15:35:34:649668,2,-2,2,-16,7,-14,-9,2
15:35:34:663100,11,12,21,4,86,49,14,8
15:35:34:671389,11,12,21,4,86,49,14,8
15:35:34:672136,6,-22,-11,-13,-17,-6,12,21
15:35:34:678098,5,-8,18,-9,-41,-22,4,12
15:35:34:685698,5,-8,18,-9,-41,-22,4,12
15:35:34:693148,-11,0,21,2,-16,-16,4,-37
15:35:34:700647,15,-1,10,7,12,-7,-4,-33
15:35:34:708859,15,-1,10,7,12,-7,-4,-33
15:35:34:709639,3,-27,-10,6,-44,-21,76,4
15:35:34:723151,-22,0,-41,0,14,22,11,1
15:35:34:731382,-22,0,-41,0,14,22,11,1
15:35:34:732123,1,-2,19,-9,-44,-9,-24,-12
15:35:34:738102,-5,29,37,28,18,8,-4,15
15:35:34:745713,-5,29,37,28,18,8,-4,15
15:35:34:753153,-15,-5,-60,-6,-6,-32,-29,-20
15:35:34:760603,-2,3,10,-1,71,4,-11,-14
15:35:34:768276,-2,3,10,-1,71,4,-11,-14
15:35:34:775609,14,25,-31,1,45,13,-17,19
15:35:34:783156,8,-18,-11,-9,-32,-11,-29,-27
15:35:34:791324,8,-18,-11,-9,-32,-11,-29,-27
15:35:34:792102,0,-23,31,9,59,21,4,11
15:35:34:806323,-5,-11,12,-9,-17,-4,24,-4
15:35:34:807115,-5,-11,12,-9,-17,-4,24,-4
15:35:34:813121,2,-1,23,14,-40,-2,-15,-13
15:35:34:820647,-9,-6,-41,-6,-8,2,-8,-17
15:35:34:828158,-9,-6,-41,-6,-8,2,-8,-17
15:35:34:835652,-10,-7,-32,-16,7,7,4,-14
15:35:34:843115,-2,-9,5,-8,-18,0,21,3
15:35:34:851422,-2,-9,5,-8,-18,0,21,3
15:35:34:852119,3,5,38,-9,-14,29,12,-4
15:35:34:866353,1,-2,-30,8,-48,-14,-24,-24
15:35:34:867169,1,-2,-30,8,-48,-14,-24,-24
15:35:34:873103,13,17,4,2,1,-14,-4,39
15:35:34:880693,-8,3,27,-13,5,-10,-29,-22
15:35:34:888202,-8,3,27,-13,5,-10,-29,-22
15:35:34:895642,9,1,-2,-17,2,8,16,-16
15:35:34:903144,-2,1,-57,-10,18,7,48,20
15:35:34:911336,-2,1,-57,-10,18,7,48,20
15:35:34:912130,0,8,26,-1,-3,-19,-27,11
15:35:34:926317,5,-5,27,-17,-17,-3,20,9
15:35:34:927119,5,-5,27,-17,-17,-3,20,9
15:35:34:933131,8,-6,-28,-3,25,11,16,5
15:35:34:940565,4,-6,-1,-3,-12,2,-39,12
15:35:34:948291,4,-6,-1,-3,-12,2,-39,12
15:35:34:955625,-28,-31,-15,5,7,1,-21,-26
15:35:34:972009,-1,-14,12,-25,-6,7,-7,21
15:35:34:972826,-1,-14,12,-25,-6,7,-7,21
15:35:34:973617,1,-4,25,-2,-14,-1,-2,-17
15:35:34:986364,-3,-9,-19,1,-9,-7,13,6
15:35:34:987142,-3,-9,-19,1,-9,-7,13,6
15:35:34:993080,-4,0,-12,32,44,21,7,40
15:35:35:615,-12,21,13,48,13,-9,-15,-56
15:35:35:8189,-12,21,13,48,13,-9,-15,-56
15:35:35:15621,-4,20,41,-12,-12,-21,-1,-6
15:35:35:23118,4,6,6,-15,-15,-8,-7,2
15:35:35:31433,4,6,6,-15,-15,-8,-7,2
15:35:35:32112,-3,10,-22,3,13,7,38,19
15:35:35:46355,-8,8,22,-1,-13,-6,-1,-41
15:35:35:47164,-8,8,22,-1,-13,-6,-1,-41
15:35:35:53142,-9,-25,-3,2,14,-3,-25,0
15:35:35:60622,-4,-19,-10,0,10,0,-7,20
15:35:35:68247,-4,-19,-10,0,10,0,-7,20
15:35:35:75605,3,-33,-63,-24,12,16,24,-1
15:35:35:83142,-3,13,21,-9,-17,2,-1,34
15:35:35:91358,-3,13,21,-9,-17,2,-1,34
15:35:35:92138,-3,6,47,-32,-55,-17,12,15
15:35:35:106382,-6,-9,-47,17,34,0,3,-35
15:35:35:107166,-6,-9,-47,17,34,0,3,-35
15:35:35:113136,5,14,16,19,-19,-4,16,-10
15:35:35:120640,3,-6,-2,6,-9,1,4,21
15:35:35:128185,3,-6,-2,6,-9,1,4,21
15:35:35:135685,-1,-23,-2,-8,35,9,-15,-20
15:35:35:143108,-9,-7,29,1,-34,-9,4,12
15:35:35:151326,-9,-7,29,1,-34,-9,4,12
15:35:35:152064,7,4,-14,-7,7,-3,-7,6
15:35:35:166290,-18,-1,-13,7,22,19,-9,-10
15:35:35:167072,-18,-1,-13,7,22,19,-9,-10
15:35:35:173103,1,15,-20,-3,-25,-15,-14,-4
15:35:35:180638,14,19,-14,-2,33,7,12,4
15:35:35:188114,14,19,-14,-2,33,7,12,4
15:35:35:195616,-5,3,-24,6,-11,-2,1,-9
15:35:35:203124,7,3,1,-15,-8,-1,28,14
15:35:35:211292,7,3,1,-15,-8,-1,28,14
15:35:35:212081,-1,16,11,7,-14,-5,0,-43
15:35:35:226255,6,8,16,-9,15,1,2,12
15:35:35:227084,6,8,16,-9,15,1,2,12
15:35:35:233160,-6,-12,-7,11,-26,1,-20,5
15:35:35:240615,-7,-1,15,9,4,-9,-19,-27
15:35:35:248282,-7,-1,15,9,4,-9,-19,-27
15:35:35:255602,13,18,24,-4,8,-11,-32,-8
15:35:35:263117,-9,-17,11,-9,-17,-10,-33,18
15:35:35:271371,-9,-17,11,-9,-17,-10,-33,18
15:35:35:272132,-16,7,13,24,32,8,-11,-1
15:35:35:286369,15,8,7,-3,-20,-21,9,-2
15:35:35:287118,15,8,7,-3,-20,-21,9,-2
15:35:35:293059,-6,2,19,-13,57,0,-5,-4
15:35:35:300613,1,9,19,4,50,33,1,9
15:35:35:308130,1,9,19,4,50,33,1,9
15:35:35:315605,4,13,-7,-11,-30,-10,25,8
15:35:35:323117,-1,7,-45,2,20,6,1,-9
15:35:35:331381,-1,7,-45,2,20,6,1,-9
15:35:35:332127,-9,9,20,-6,10,-1,-21,1
15:35:35:346341,11,1,10,22,-13,0,-3,-5
15:35:35:347179,11,1,10,22,-13,0,-3,-5
15:35:35:353135,2,-7,-19,14,-3,-6,-7,4
15:35:35:360598,-5,-6,2,-15,-14,12,-10,-20
15:35:35:368244,-5,-6,2,-15,-14,12,-10,-20
15:35:35:375618,7,0,-21,16,46,37,20,6
15:35:35:383140,-9,-12,-1,-20,-22,-1,27,10
15:35:35:398860,-9,-12,-1,-20,-22,-1,27,10
15:35:35:399621,-18,29,21,-19,-18,-8,-1,11
15:35:35:406322,16,38,31,7,-9,0,-10,12
15:35:35:407156,16,38,31,7,-9,0,-10,12
15:35:35:413151,14,8,0,2,-15,-8,-2,-5
15:35:35:420610,-6,-34,-17,22,-17,-4,2,-6
15:35:35:428193,-6,-34,-17,22,-17,-4,2,-6
15:35:35:435670,0,10,6,4,2,-16,-10,4
15:35:35:443103,10,-11,20,14,-6,-10,-10,0
15:35:35:451357,10,-11,20,14,-6,-10,-10,0
15:35:35:452117,3,-26,-36,-36,-13,33,1,-4
15:35:35:466334,-5,3,-6,-9,-4,0,6,-3
15:35:35:467108,-5,3,-6,-9,-4,0,6,-3
15:35:35:473150,13,-27,10,-2,-11,-10,-16,-16
15:35:35:480713,-35,-30,-42,-6,25,1,-98,-59
15:35:35:488168,-35,-30,-42,-6,25,1,-98,-59
15:35:35:495629,9,3,-4,-1,-52,-21,6,12
15:35:35:503162,16,23,24,18,35,0,11,15
15:35:35:511299,16,23,24,18,35,0,11,15
15:35:35:512158,-14,-11,15,-5,-8,-5,-4,-3
15:35:35:526321,7,-25,-38,12,41,-8,15,12
15:35:35:527084,7,-25,-38,12,41,-8,15,12
15:35:35:533165,0,-3,-3,-30,-39,-5,28,15
15:35:35:540668,-4,-29,1,-18,-5,-4,8,1
15:35:35:548237,-4,-29,1,-18,-5,-4,8,1
15:35:35:555621,-21,3,21,16,30,15,-21,-34
15:35:35:563133,7,11,-6,-48,-85,-16,17,-1
15:35:35:570688,7,11,-6,-48,-85,-16,17,-1
15:35:35:578102,13,-13,-61,12,-29,-3,10,11
15:35:35:586311,10,-36,-1,-30,1,-27,0,9
15:35:35:587156,10,-36,-1,-30,1,-27,0,9
15:35:35:593068,-4,-60,5,22,42,-4,-5,4
15:35:35:600643,-4,1,-12,-12,-22,-20,8,3
15:35:35:608192,-4,1,-12,-12,-22,-20,8,3
15:35:35:615663,-5,-7,9,-4,6,-4,6,-2
15:35:35:623169,-18,6,13,0,15,12,-1,-18
15:35:35:631352,-18,6,13,0,15,12,-1,-18
15:35:35:632135,-20,-33,-41,-13,-27,-7,7,9
15:35:35:646777,12,22,-4,18,-40,-1,0,5
15:35:35:653902,12,22,-4,18,-40,-1,0,5
15:35:35:654689,17,36,29,4,66,14,45,3
15:35:35:660625,5,18,13,28,2,12,7,2
15:35:35:668171,5,18,13,28,2,12,7,2
15:35:35:675622,-6,28,41,37,-36,-2,-16,4
15:35:35:683173,-1,-3,-10,10,1,-16,14,4
15:35:35:690692,-1,-3,-10,10,1,-16,14,4
15:35:35:698165,-3,-29,-13,-9,46,15,-14,-4
15:35:35:706332,-2,19,13,-16,29,29,15,2
15:35:35:707134,-2,19,13,-16,29,29,15,2
15:35:35:713106,-19,-1,11,-18,-15,-11,-6,-14
15:35:35:728773,-17,-14,-21,-6,-19,-6,-16,-12
15:35:35:729646,-17,-14,-21,-6,-19,-6,-16,-12
15:35:35:735584,22,6,-7,-11,-12,-6,-11,9
15:35:35:743082,-2,-1,7,13,-56,0,-8,-8
15:35:35:750733,-2,-1,7,13,-56,0,-8,-8
15:35:35:758123,0,0,18,31,-38,3,-6,4
15:35:35:774518,4,21,25,2,26,4,-3,3
15:35:35:775301,4,21,25,2,26,4,-3,3
15:35:35:776058,1,24,29,-14,7,0,-1,-3
15:35:35:788825,-11,-17,-24,-3,-27,-15,1,8
15:35:35:789614,-11,-17,-24,-3,-27,-15,1,8
15:35:35:795627,5,18,-14,-40,22,24,3,2
15:35:35:803172,-30,-21,-9,-21,7,-9,-9,-5
15:35:35:810653,-30,-21,-9,-21,7,-9,-9,-5
15:35:35:818191,-30,-8,-17,12,6,3,-12,-39
15:35:35:826306,-4,-4,28,0,29,-11,-22,-17
15:35:35:827149,-4,-4,28,0,29,-11,-22,-17
15:35:35:833151,20,22,-19,15,46,1,17,19
15:35:35:848858,31,6,0,43,51,23,16,19
15:35:35:849653,31,6,0,43,51,23,16,19
15:35:35:855601,-8,-10,-16,-8,-41,0,-12,-18
15:35:35:863147,-7,-15,-11,-30,-16,-18,1,-15
15:35:35:870670,-7,-15,-11,-30,-16,-18,1,-15
15:35:35:878094,0,-33,-31,11,22,9,23,40
15:35:35:886330,6,31,14,25,-22,-1,16,14
15:35:35:887161,6,31,14,25,-22,-1,16,14
15:35:35:893103,-9,7,-9,-16,-53,-23,-31,-41
15:35:35:908813,12,9,-7,-11,38,24,10,0
15:35:35:909641,12,9,-7,-11,38,24,10,0
15:35:35:915629,10,-24,7,12,-25,-6,24,49
15:35:35:923143,-23,-32,24,-9,5,7,-28,-48
15:35:35:930726,-23,-32,24,-9,5,7,-28,-48
15:35:35:938136,23,19,6,-17,-35,-20,18,46
15:35:35:946293,3,16,-37,5,36,4,5,15
15:35:35:947093,3,16,-37,5,36,4,5,15
15:35:35:953129,2,9,46,4,11,5,-9,-8
15:35:35:968873,10,-12,10,-6,-69,-31,32,33
15:35:35:969662,10,-12,10,-6,-69,-31,32,33
15:35:35:975597,6,-8,-13,-33,23,-6,-12,-17
15:35:35:983160,22,9,30,-13,19,-6,-5,39
15:35:35:990676,22,9,30,-13,19,-6,-5,39
15:35:35:998169,-40,-11,-3,-11,-19,-1,-34,-53
15:35:36:6308,4,-15,4,-4,46,17,-20,-49
15:35:36:7106,4,-15,4,-4,46,17,-20,-49
15:35:36:13137,-2,67,10,26,-12,-6,7,22
15:35:36:28824,10,22,-1,-3,-40,-10,6,16
15:35:36:29611,10,22,-1,-3,-40,-10,6,16
15:35:36:35657,-4,-10,16,14,14,-2,2,-6
15:35:36:43120,-23,4,-32,18,12,18,13,50
15:35:36:50700,-23,4,-32,18,12,18,13,50
15:35:36:58076,-24,-21,-25,7,-57,-33,-9,-26
15:35:36:66361,9,6,8,-3,-7,-4,-11,10
15:35:36:67161,9,6,8,-3,-7,-4,-11,10
15:35:36:73078,20,-5,-16,-23,39,-10,2,31
15:35:36:88804,-16,-30,-53,-20,-27,0,-8,-38
15:35:36:89618,-16,-30,-53,-20,-27,0,-8,-38
15:35:36:95578,0,-26,-48,17,10,18,-3,-12
15:35:36:103124,4,5,4,-14,35,2,3,-5
15:35:36:110680,4,5,4,-14,35,2,3,-5
15:35:36:118143,-13,-5,14,-14,-11,-2,13,8
15:35:36:126297,16,-21,2,15,-44,-26,-10,-21
15:35:36:127120,16,-21,2,15,-44,-26,-10,-21
15:35:36:133141,2,21,-7,6,63,36,17,18
15:35:36:148882,-9,3,-17,0,-13,-16,-15,-3
15:35:36:149617,-9,3,-17,0,-13,-16,-15,-3
15:35:36:155614,-7,9,16,1,22,15,-18,-20
15:35:36:163123,-8,-19,16,7,-5,-4,20,-4
15:35:36:170700,-8,-19,16,7,-5,-4,20,-4
15:35:36:178134,-10,0,-3,24,-17,-19,8,4
15:35:36:186352,-3,38,14,-17,-8,10,-18,-18
15:35:36:187170,-3,38,14,-17,-8,10,-18,-18
15:35:36:193102,10,-24,-11,5,-30,-17,5,6
15:35:36:208816,-7,-15,11,-21,-57,-6,-8,16
15:35:36:209618,-7,-15,11,-21,-57,-6,-8,16
15:35:36:215631,15,-4,-14,-15,13,12,-4,26
15:35:36:223103,2,-28,1,10,9,7,7,6
15:35:36:230714,2,-28,1,10,9,7,7,6
15:35:36:238154,21,5,11,5,-10,-10,-15,-29
15:35:36:246284,-15,-5,-35,-5,29,8,-16,-27
15:35:36:247151,-15,-5,-35,-5,29,8,-16,-27
15:35:36:253176,7,35,23,-17,-16,3,12,-16
15:35:36:268942,-1,-11,-3,1,-17,-7,2,63
15:35:36:269685,-1,-11,-3,1,-17,-7,2,63
15:35:36:275580,0,23,-16,-16,-27,-27,-7,22
15:35:36:283167,-6,14,-22,12,56,18,4,0
15:35:36:290668,-6,14,-22,12,56,18,4,0
15:35:36:298199,14,-11,23,-19,-16,12,0,3
15:35:36:306312,7,-1,35,-17,-2,14,-14,-19
15:35:36:307138,7,-1,35,-17,-2,14,-14,-19
15:35:36:313136,6,16,41,1,-17,-11,-8,-2
15:35:36:328831,5,4,-8,30,21,-8,42,-10
15:35:36:329637,5,4,-8,30,21,-8,42,-10
15:35:36:335660,-14,-18,10,-16,2,22,-20,-7
15:35:36:343107,-3,25,-21,-31,-42,-14,-7,10
15:35:36:350689,-3,25,-21,-31,-42,-14,-7,10
15:35:36:358091,-4,2,-1,23,81,51,3,-40
15:35:36:366341,-1,-11,-24,2,-11,4,0,8
15:35:36:367131,-1,-11,-24,2,-11,4,0,8
15:35:36:373095,9,-6,3,6,-31,-19,-10,-10
15:35:36:388826,-31,4,9,10,-6,-11,-18,-60
15:35:36:389605,-31,4,9,10,-6,-11,-18,-60
15:35:36:395592,-4,-14,-6,17,4,-7,18,-8
15:35:36:403117,27,-20,36,-16,9,-6,-1,26
15:35:36:410673,27,-20,36,-16,9,-6,-1,26
15:35:36:418121,-14,-6,-25,-35,-9,-17,-19,16
15:35:36:426304,20,23,45,1,10,25,-7,-1
15:35:36:427138,20,23,45,1,10,25,-7,-1
15:35:36:433137,0,-18,-27,28,5,-6,7,22
15:35:36:448839,0,-4,-18,-11,2,-3,13,6
15:35:36:449645,0,-4,-18,-11,2,-3,13,6
15:35:36:455608,-5,11,-5,-17,-48,-31,-1,29
15:35:36:463134,-41,-42,0,21,43,6,5,-38
15:35:36:470718,-41,-42,0,21,43,6,5,-38
15:35:36:478113,20,-6,27,3,-4,10,3,-17
15:35:36:486377,5,14,-22,-9,-55,-25,-13,-17
15:35:36:487208,5,14,-22,-9,-55,-25,-13,-17
15:35:36:493094,-2,-14,-18,20,-1,-9,13,-40
15:35:36:508834,-28,6,49,7,34,14,2,4
15:35:36:509642,-28,6,49,7,34,14,2,4
15:35:36:515648,6,18,20,-8,-36,-28,-3,22
15:35:36:523108,20,-22,-30,-7,38,3,16,32
15:35:36:530694,20,-22,-30,-7,38,3,16,32
15:35:36:538135,-24,-19,2,31,-2,3,-4,-7
15:35:36:546310,9,18,-48,5,-33,-7,-11,-2
15:35:36:547096,9,18,-48,5,-33,-7,-11,-2
15:35:36:553134,7,4,-7,-21,-15,-8,-16,-16
15:35:36:568836,1,-10,-26,9,27,1,-28,-7
15:35:36:569583,1,-10,-26,9,27,1,-28,-7
15:35:36:575591,-13,10,-37,-13,32,-6,-31,-12
15:35:36:583144,8,5,17,3,-16,20,16,12
15:35:36:590679,8,5,17,3,-16,20,16,12
15:35:36:598241,-3,-38,-43,-11,-33,-3,7,39
15:35:36:606334,-6,20,-14,10,-29,-22,-14,-30
15:35:36:607084,-6,20,-14,10,-29,-22,-14,-30
15:35:36:613091,12,18,21,-16,44,22,11,-26
15:35:36:628797,3,-14,17,-7,-22,-7,-10,-26
15:35:36:629591,3,-14,17,-7,-22,-7,-10,-26
15:35:36:635643,-1,3,18,2,8,-6,29,31
15:35:36:651321,-5,-1,23,21,58,-1,-2,-21
15:35:36:652094,-5,-1,23,21,58,-1,-2,-21
15:35:36:658145,6,-21,18,17,91,38,-43,1
15:35:36:666302,1,-27,-10,-10,-54,-17,-7,26
15:35:36:667138,1,-27,-10,-10,-54,-17,-7,26
15:35:36:680625,-14,0,11,13,71,36,4,-6
15:35:36:688814,10,13,-17,-14,-31,-17,3,19
15:35:36:689627,10,13,-17,-14,-31,-17,3,19
15:35:36:695596,-7,0,-3,6,-31,-9,-13,-27
15:35:36:711358,-7,8,0,7,2,-6,44,11
15:35:36:712216,-7,8,0,7,2,-6,44,11
15:35:36:718161,8,9,24,-4,-3,-1,19,20
15:35:36:726302,8,9,24,-4,-3,-1,19,20
15:35:36:727145,-6,2,-13,27,29,-3,-5,18
15:35:36:740670,-12,9,0,16,-12,-13,-14,-10
15:35:36:748851,-12,9,0,16,-12,-13,-14,-10
15:35:36:749669,2,5,27,-24,-19,0,-8,19
15:35:36:755633,-54,-48,-62,-18,-17,-15,-4,15
15:35:36:771388,-54,-48,-62,-18,-17,-15,-4,15
15:35:36:772132,-3,29,21,24,1,8,-5,-13
15:35:36:778109,8,6,6,18,22,17,33,-43
15:35:36:786347,8,6,6,18,22,17,33,-43
15:35:36:787175,-11,-9,-3,10,3,-9,-11,-12
15:35:36:800679,12,-1,13,-1,-11,0,7,18
15:35:36:808832,12,-1,13,-1,-11,0,7,18
15:35:36:809618,7,3,-11,-14,24,7,-1,-45
15:35:36:815620,2,-1,-25,-41,-27,-14,-14,-3
15:35:36:831428,2,-1,-25,-41,-27,-14,-14,-3
15:35:36:832196,1,1,8,-8,21,14,23,42
15:35:36:838098,19,7,-2,9,17,4,9,-6
15:35:36:846364,19,7,-2,9,17,4,9,-6
15:35:36:847135,-19,25,-35,-12,26,15,10,-29
15:35:36:860592,-12,-21,15,13,-10,12,15,15
15:35:36:868904,-12,-21,15,13,-10,12,15,15
15:35:36:869612,19,9,4,11,-51,-10,-8,1
15:35:36:875602,14,14,-5,20,-3,-6,-14,31
15:35:36:891340,14,14,-5,20,-3,-6,-14,31
15:35:36:892147,-7,-10,20,4,-13,-10,10,5
15:35:36:898193,-3,8,-26,16,-35,-15,-8,-9
15:35:36:906380,-3,8,-26,16,-35,-15,-8,-9
15:35:36:907198,8,-17,-39,-20,3,1,24,10
15:35:36:920669,-3,-4,-15,-13,-19,-12,-16,34
15:35:36:928836,-3,-4,-15,-13,-19,-12,-16,34
15:35:36:929641,-1,-15,14,-5,14,-9,-18,-46
15:35:36:935600,14,-25,-14,-21,32,-12,-1,-16
15:35:36:951449,14,-25,-14,-21,32,-12,-1,-16
15:35:36:952105,12,9,-19,14,-13,18,-11,15
15:35:36:958093,-15,22,2,10,-57,-36,0,-15
15:35:36:966381,-15,22,2,10,-57,-36,0,-15
15:35:36:967126,-2,-14,14,18,33,12,0,-13
15:35:36:980603,7,15,4,-41,-19,0,-1,-8
15:35:36:988853,7,15,4,-41,-19,0,-1,-8
15:35:36:989638,2,11,33,-25,-34,-13,-22,14
15:35:36:995640,-4,20,30,-17,-4,-14,-48,-23
15:35:37:11318,-4,20,30,-17,-4,-14,-48,-23
15:35:37:12146,-27,-21,-31,-22,0,5,6,-5
15:35:37:18139,7,-7,3,6,-3,-9,6,28
15:35:37:26317,7,-7,3,6,-3,-9,6,28
15:35:37:27163,-29,-13,-8,25,48,14,12,2
15:35:37:40688,-7,-18,2,-5,-10,4,16,-35
15:35:37:48876,-7,-18,2,-5,-10,4,16,-35
15:35:37:49590,15,-7,17,-1,20,-4,-8,24
15:35:37:55618,4,20,-13,-18,-16,12,13,13
15:35:37:71311,4,20,-13,-18,-16,12,13,13
15:35:37:72107,11,18,-3,-16,-8,-4,-5,-14
15:35:37:78140,19,-4,-2,8,3,20,-23,-8
15:35:37:86404,19,-4,-2,8,3,20,-23,-8
15:35:37:87113,-6,18,-20,-8,-17,-1,-16,48
15:35:37:100671,-10,7,-15,16,-35,3,5,-19
15:35:37:108780,-10,7,-15,16,-35,3,5,-19
15:35:37:109599,12,-22,22,25,9,6,-9,6
15:35:37:115573,-8,-22,1,-6,-33,-15,11,9
15:35:37:131410,-8,-22,1,-6,-33,-15,11,9
15:35:37:132117,0,-12,-67,14,31,-13,-27,-25
15:35:37:138106,-1,0,-3,-12,46,4,2,-20
15:35:37:146360,-1,0,-3,-12,46,4,2,-20
15:35:37:147105,4,1,30,7,-16,0,3,-18
15:35:37:160601,-3,30,42,19,18,-7,0,10
15:35:37:168849,-3,30,42,19,18,-7,0,10
15:35:37:169578,-9,-3,11,1,0,-2,51,8
15:35:37:175624,-6,-26,5,-3,80,28,-3,3
15:35:37:191310,-6,-26,5,-3,80,28,-3,3
15:35:37:192124,-1,36,17,-21,-49,2,4,-44
15:35:37:198257,-16,2,-9,-10,21,6,31,1
15:35:37:206336,-16,2,-9,-10,21,6,31,1
15:35:37:207177,-12,-10,-53,5,-22,-36,-36,5
15:35:37:220690,9,-29,-4,11,-9,-20,-9,11
15:35:37:228793,9,-29,-4,11,-9,-20,-9,11
15:35:37:229615,-3,8,10,-20,48,25,10,8
15:35:37:235671,4,-22,-1,5,-6,14,-8,45
15:35:37:251481,4,-22,-1,5,-6,14,-8,45
15:35:37:252213,-7,12,37,-10,-63,-22,-12,-9
15:35:37:258169,-6,15,18,7,26,23,-2,-17
15:35:37:266379,-6,15,18,7,26,23,-2,-17
15:35:37:267150,-2,-33,0,-12,-54,10,23,46
15:35:37:280673,-4,9,9,-2,-69,-17,-28,-27
15:35:37:288900,-4,9,9,-2,-69,-17,-28,-27
15:35:37:289663,20,-13,4,1,34,26,14,8
15:35:37:295693,-1,3,-16,-11,-30,-20,12,15
15:35:37:311410,-1,3,-16,-11,-30,-20,12,15
15:35:37:312099,-2,4,30,15,-2,-12,-11,-5
15:35:37:318113,-3,11,6,7,13,15,16,-20
15:35:37:326306,-3,11,6,7,13,15,16,-20
15:35:37:327121,6,-5,-3,-8,-47,-31,-1,24
15:35:37:340619,-2,-1,-16,-8,24,-3,24,-37
15:35:37:348827,-2,-1,-16,-8,24,-3,24,-37
15:35:37:349615,0,-28,-25,-11,-35,4,-14,-80
15:35:37:355646,5,4,-13,-2,-16,-12,3,5
15:35:37:371384,5,4,-13,-2,-16,-12,3,5
15:35:37:372165,-3,5,10,9,64,6,2,25
15:35:37:378086,2,25,-3,-4,-28,-17,-10,-2
15:35:37:386393,2,25,-3,-4,-28,-17,-10,-2
15:35:37:387151,-12,10,-21,-29,-11,-23,-10,-57
15:35:37:400627,-1,10,18,26,76,40,2,26
15:35:37:408842,-1,10,18,26,76,40,2,26
15:35:37:409667,3,-3,-39,6,11,11,-10,-6
15:35:37:415604,14,-67,-38,-30,-103,-26,0,-8
15:35:37:431451,14,-67,-38,-30,-103,-26,0,-8
15:35:37:432092,-4,-8,39,10,77,30,2,9
15:35:37:438110,1,9,15,3,65,32,-3,16
15:35:37:446339,1,9,15,3,65,32,-3,16
15:35:37:447151,-4,-1,-31,43,-9,-16,-22,-16
15:35:37:460602,-3,5,-9,26,7,6,-1,32
15:35:37:468845,-3,5,-9,26,7,6,-1,32
15:35:37:469592,9,12,8,-4,-7,-29,3,44
15:35:37:475582,-10,-53,-47,0,-1,-8,-30,-12
15:35:37:491360,-10,-53,-47,0,-1,-8,-30,-12
15:35:37:492112,4,-4,-19,18,44,13,-14,29
15:35:37:498206,-17,7,12,-20,-9,-22,-4,-20
15:35:37:506342,-17,7,12,-20,-9,-22,-4,-20
15:35:37:507139,-6,-2,31,-16,-58,10,12,36
15:35:37:520670,5,38,-7,16,32,0,-5,-23
15:35:37:528819,5,38,-7,16,32,0,-5,-23
15:35:37:529635,4,43,15,20,5,-5,-18,-19
