Time,EMG1,EMG2,EMG3,EMG4,EMG5,EMG6,EMG7,EMG8
15:36:04:13029,-2,0,13,0,-30,-21,-11,-2
15:36:04:20585,-2,0,13,0,-30,-21,-11,-2
15:36:04:27997,-3,-2,-3,-2,55,18,-3,-1
15:36:04:36205,-2,-1,10,-41,-47,-17,6,-3
15:36:04:37023,-2,-1,10,-41,-47,-17,6,-3
15:36:04:43000,0,1,19,0,11,16,9,-2
15:36:04:58767,-5,-5,-5,14,20,27,-5,-1
15:36:04:59539,-5,-5,-5,14,20,27,-5,-1
15:36:04:65531,-2,-5,-13,15,-87,-11,-9,0
15:36:04:73004,4,2,3,9,125,48,-6,6
15:36:04:80608,4,2,3,9,125,48,-6,6
15:36:04:88039,-3,-2,-1,-32,-53,-38,-18,-6
15:36:04:96176,-2,2,18,43,-45,-12,10,1
15:36:04:96991,-2,2,18,43,-45,-12,10,1
15:36:04:103081,-3,-1,6,6,-26,-34,3,-4
15:36:04:118743,-1,0,12,-7,76,17,-9,-6
15:36:04:119499,-1,0,12,-7,76,17,-9,-6
15:36:04:125503,1,-3,-9,-15,-74,-6,-1,0
15:36:04:133167,-1,0,-18,-5,-109,-12,8,2
15:36:04:140554,-1,0,-18,-5,-109,-12,8,2
15:36:04:148014,-1,0,1,54,38,3,2,-2
15:36:04:156208,-6,-9,-15,-41,-28,-49,-3,-6
15:36:04:157062,-6,-9,-15,-41,-28,-49,-3,-6
15:36:04:162974,3,3,9,16,127,55,13,3
15:36:04:178707,-2,0,1,-11,-71,-72,-16,-6
15:36:04:179508,-2,0,1,-11,-71,-72,-16,-6
15:36:04:185508,0,0,-12,-9,5,11,6,2
15:36:04:192997,3,3,0,2,20,-11,-6,1
15:36:04:200654,3,3,0,2,20,-11,-6,1
15:36:04:207974,-2,-2,-4,-16,3,56,-22,-2
15:36:04:216203,-1,1,-22,-13,-79,-29,-13,0
15:36:04:217004,-1,1,-22,-13,-79,-29,-13,0
15:36:04:223000,-1,2,14,5,27,-32,1,0
15:36:04:238723,1,4,12,14,29,47,-5,-2
15:36:04:239528,1,4,12,14,29,47,-5,-2
15:36:04:245530,0,-5,-7,5,-14,3,13,2
15:36:04:253051,-3,-7,-8,-13,-30,-20,-3,-3
15:36:04:260562,-3,-7,-8,-13,-30,-20,-3,-3
15:36:04:268074,-2,-2,-10,26,-12,4,-2,1
15:36:04:276219,0,2,-6,-5,-25,29,-1,1
15:36:04:277053,0,2,-6,-5,-25,29,-1,1
15:36:04:283044,-1,-3,2,-3,20,-18,25,0
15:36:04:298745,-2,-6,17,6,75,54,7,-1
15:36:04:299531,-2,-6,17,6,75,54,7,-1
15:36:04:305553,-1,4,-22,-38,6,-5,-4,-1
15:36:04:313039,-3,-6,-4,-17,-11,-9,-6,-1
15:36:04:320630,-3,-6,-4,-17,-11,-9,-6,-1
15:36:04:327982,3,4,22,14,38,49,-7,0
15:36:04:336196,-4,-1,11,-10,37,-1,-10,-4
15:36:04:337011,-4,-1,11,-10,37,-1,-10,-4
15:36:04:343001,0,-2,6,-10,-59,80,11,9
15:36:04:358779,2,12,1,-2,-24,-5,-11,1
15:36:04:359581,2,12,1,-2,-24,-5,-11,1
15:36:04:365545,-4,-19,15,-19,-29,-53,-8,-3
15:36:04:373022,-2,-16,-17,13,-16,7,2,2
15:36:04:380577,-2,-16,-17,13,-16,7,2,2
15:36:04:388049,1,10,-9,15,-6,-26,-11,-8
15:36:04:396169,0,2,2,-21,-14,-9,2,-2
15:36:04:396999,0,2,2,-21,-14,-9,2,-2
15:36:04:403008,1,2,11,9,15,-1,23,1
15:36:04:418820,-1,5,-5,3,-42,-16,-2,-2
15:36:04:419480,-1,5,-5,3,-42,-16,-2,-2
15:36:04:425526,-4,-5,-8,-10,13,5,-2,-5
15:36:04:433102,2,-8,-9,10,69,-40,-3,-5
15:36:04:440529,2,-8,-9,10,69,-40,-3,-5
15:36:04:448076,0,2,3,12,102,35,-26,1
15:36:04:456256,-2,7,-3,3,-16,2,-3,-4
15:36:04:457000,-2,7,-3,3,-16,2,-3,-4
15:36:04:463055,0,0,-32,-11,-17,-20,18,1
15:36:04:478725,1,-12,3,54,1,-14,0,2
15:36:04:479500,1,-12,3,54,1,-14,0,2
15:36:04:485517,-3,-7,8,2,10,8,-4,-1
15:36:04:492971,-5,6,2,-1,57,39,17,0
15:36:04:500596,-5,6,2,-1,57,39,17,0
15:36:04:507997,-2,1,-21,-12,-38,-44,2,-3
15:36:04:516214,3,17,3,-2,-47,-31,-14,-2
15:36:04:517054,3,17,3,-2,-47,-31,-14,-2
15:36:04:522998,-3,-3,11,-6,13,-5,5,-8
15:36:04:538739,-2,-15,-31,-22,-53,9,44,-4
15:36:04:539531,-2,-15,-31,-22,-53,9,44,-4
15:36:04:545548,0,5,-16,59,10,-11,-3,1
15:36:04:552991,-1,8,41,-5,46,15,-4,-1
15:36:04:560542,-1,8,41,-5,46,15,-4,-1
15:36:04:568033,-5,-10,8,-28,-110,9,-4,-1
15:36:04:576215,-2,-4,-2,-5,-16,16,-10,4
15:36:04:577045,-2,-4,-2,-5,-16,16,-10,4
15:36:04:590533,2,4,4,-8,-17,-16,-21,5
15:36:04:598747,1,1,7,-31,32,4,8,2
15:36:04:599517,1,1,7,-31,32,4,8,2
15:36:04:605524,-2,-19,-27,19,35,-6,9,0
15:36:04:621272,1,-4,-27,-1,11,-2,17,6
15:36:04:622048,1,-4,-27,-1,11,-2,17,6
15:36:04:628002,-2,8,21,-10,-40,-35,-26,-13
15:36:04:636229,-1,9,-29,-49,19,22,-5,-2
15:36:04:637021,-1,9,-29,-49,19,22,-5,-2
15:36:04:650605,0,-4,8,-2,78,35,-7,-4
15:36:04:658765,-2,-9,-16,51,-30,-5,-16,-1
15:36:04:659505,-2,-9,-16,51,-30,-5,-16,-1
15:36:04:665544,1,-1,8,20,51,5,-62,-15
15:36:04:681257,-10,-7,11,-18,-3,21,-28,-16
15:36:04:682033,-10,-7,11,-18,-3,21,-28,-16
15:36:04:687979,0,-2,17,-12,-34,-36,-8,5
15:36:04:695484,4,-28,-32,11,80,-16,14,-1
15:36:04:703116,4,-28,-32,11,80,-16,14,-1
15:36:04:710532,-2,-21,-20,-17,-31,3,22,0
15:36:04:718775,-4,0,30,8,-40,-10,-15,-4
15:36:04:719560,-4,0,30,8,-40,-10,-15,-4
15:36:04:725538,0,2,-16,-22,-57,-52,20,0
15:36:04:741263,-1,-3,11,31,59,15,-18,0
15:36:04:742081,-1,-3,11,31,59,15,-18,0
15:36:04:748086,-6,2,-4,-6,-51,23,22,8
15:36:04:755515,8,19,27,14,-15,18,31,10
15:36:04:763138,8,19,27,14,-15,18,31,10
15:36:04:770525,3,9,11,-23,-47,6,44,3
15:36:04:778757,-1,-4,-6,-2,-50,-22,7,1
15:36:04:779538,-1,-4,-6,-2,-50,-22,7,1
15:36:04:785588,2,3,-31,-5,7,6,-28,0
15:36:04:801352,-3,15,-1,-18,-71,-6,18,5
15:36:04:802054,-3,15,-1,-18,-71,-6,18,5
15:36:04:816187,-7,4,14,5,12,-4,10,1
15:36:04:816957,0,-16,26,16,76,34,-8,0
15:36:04:823065,0,-16,26,16,76,34,-8,0
15:36:04:830579,0,-5,-7,-18,24,62,9,-5
15:36:04:838754,3,2,9,16,96,92,22,9
15:36:04:839563,3,2,9,16,96,92,22,9
15:36:04:845478,-5,0,17,-1,-28,-39,33,1
15:36:04:861222,-3,-1,-1,-6,-48,-51,-15,-9
15:36:04:862019,-3,-1,-1,-6,-48,-51,-15,-9
15:36:04:868052,2,10,-25,11,20,-13,-35,-5
15:36:04:875497,-3,-3,0,-33,-67,-57,-9,-3
15:36:04:883127,-3,-3,0,-33,-67,-57,-9,-3
15:36:04:890547,1,6,63,26,65,-8,-21,-1
15:36:04:898722,-1,2,-6,19,64,9,-33,-8
15:36:04:899509,-1,2,-6,19,64,9,-33,-8
15:36:04:905532,3,-2,10,-5,-22,7,8,3
15:36:04:921281,-5,8,-4,-2,-42,-29,-13,-6
15:36:04:922057,-5,8,-4,-2,-42,-29,-13,-6
15:36:04:928003,-2,2,-46,-11,-27,-20,4,2
15:36:04:943739,-2,2,-46,-11,-27,-20,4,2
15:36:04:944530,2,-4,-9,23,29,14,22,9
15:36:04:950522,-7,-12,0,-3,-36,-25,6,-4
15:36:04:958752,-7,-12,0,-3,-36,-25,6,-4
15:36:04:959546,0,-2,-4,-21,14,-9,-5,1
15:36:04:965503,4,4,-18,5,17,35,12,0
15:36:04:981250,4,4,-18,5,17,35,12,0
15:36:04:982025,-3,-4,-27,-8,-33,-15,14,1
15:36:04:988012,2,0,5,15,23,6,-7,-3
15:36:05:3769,2,0,5,15,23,6,-7,-3
15:36:05:4541,-4,-2,4,-20,-45,-28,-11,-7
15:36:05:10498,-2,-5,10,-5,-4,25,-3,0
15:36:05:18782,-2,-5,10,-5,-4,25,-3,0
15:36:05:19549,-2,3,-3,16,2,23,-6,-7
15:36:05:25488,-3,-4,-7,-1,-17,-7,-29,-5
15:36:05:41263,-3,-4,-7,-1,-17,-7,-29,-5
15:36:05:42026,3,-2,1,10,-36,4,-3,1
15:36:05:48071,2,-1,10,4,-20,-25,-24,-5
15:36:05:63805,2,-1,10,4,-20,-25,-24,-5
15:36:05:64587,2,8,20,16,37,16,-3,-4
15:36:05:70498,2,7,-19,-13,24,-28,-3,7
15:36:05:78728,2,7,-19,-13,24,-28,-3,7
15:36:05:79582,1,-2,-32,-14,88,9,44,10
15:36:05:85492,-8,-1,4,8,-22,-15,26,5
15:36:05:101241,-8,-1,4,8,-22,-15,26,5
15:36:05:102036,-2,-2,16,11,-118,-48,27,3
15:36:05:108001,-1,-7,-5,-16,51,32,-11,-7
15:36:05:123734,-1,-7,-5,-16,51,32,-11,-7
15:36:05:124511,-1,5,25,-24,9,-3,-26,-4
15:36:05:130485,-3,2,12,37,-12,-11,-18,-7
15:36:05:138772,-3,2,12,37,-12,-11,-18,-7
15:36:05:139524,-1,-4,-29,-34,-31,-14,-18,-3
15:36:05:145520,3,0,2,-27,8,-15,-11,-1
15:36:05:161215,3,0,2,-27,8,-15,-11,-1
15:36:05:162017,2,2,8,23,0,0,48,11
15:36:05:167976,0,-8,-3,-14,-107,-41,17,6
15:36:05:175533,0,-8,-3,-14,-107,-41,17,6
15:36:05:183042,-2,-2,-6,36,41,0,-6,-9
15:36:05:190499,-4,5,-14,-19,3,-16,-19,-11
15:36:05:198816,-4,5,-14,-19,3,-16,-19,-11
15:36:05:199558,-2,-3,2,-8,8,0,-34,-10
15:36:05:205541,2,3,-8,-16,5,11,-11,-1
15:36:05:221256,2,3,-8,-16,5,11,-11,-1
15:36:05:222032,3,-5,19,3,-12,37,-1,1
15:36:05:228009,-4,-3,14,12,-25,11,11,2
15:36:05:235617,-4,-3,14,12,-25,11,11,2
15:36:05:243022,-3,-1,16,34,-18,-9,-40,-17
15:36:05:250542,4,5,13,-2,101,87,18,12
15:36:05:258737,4,5,13,-2,101,87,18,12
15:36:05:259472,-4,-8,-4,-23,-21,-7,-45,-16
15:36:05:265540,1,0,10,9,-18,-11,27,3
15:36:05:281744,1,0,10,9,-18,-11,27,3
15:36:05:282458,-7,-11,-26,-3,3,1,-27,-15
15:36:05:287998,-1,-9,10,12,15,-7,-13,-2
15:36:05:295543,-1,-9,10,12,15,-7,-13,-2
15:36:05:303025,-2,-1,-15,-12,-5,-32,-18,-6
15:36:05:310505,0,3,-4,32,-16,-20,41,9
15:36:05:318752,0,3,-4,32,-16,-20,41,9
15:36:05:319497,4,8,33,8,25,10,29,9
15:36:05:325512,-2,-4,-15,-16,6,-11,-9,-21
15:36:05:341228,-2,-4,-15,-16,6,-11,-9,-21
15:36:05:342005,-4,-6,-7,-6,3,47,-1,24
15:36:05:348090,-1,8,-5,8,-21,14,-72,-15
15:36:05:355543,-1,8,-5,8,-21,14,-72,-15
15:36:05:363006,2,-2,-11,-28,-43,-7,23,1
15:36:05:379361,3,-1,-1,-14,20,18,-9,4
15:36:05:380176,3,-1,-1,-14,20,18,-9,4
15:36:05:380970,3,10,-32,-22,-7,5,15,4
15:36:05:385475,-4,-5,8,-4,1,-11,7,-1
15:36:05:401272,-4,-5,8,-4,1,-11,7,-1
15:36:05:402054,1,4,-27,-5,59,39,-72,-22
15:36:05:408013,4,-5,7,-23,-14,3,63,42
15:36:05:423775,4,-5,7,-23,-14,3,63,42
15:36:05:424550,-2,6,-18,-3,57,-46,-78,-3
15:36:05:430573,6,8,52,37,16,-1,-73,-21
15:36:05:438754,6,8,52,37,16,-1,-73,-21
15:36:05:439541,0,-3,5,-8,-31,-3,127,14
15:36:05:445491,-1,-2,-9,-33,-23,-18,-23,-14
15:36:05:476857,-1,-2,-9,-33,-23,-18,-23,-14
15:36:05:477672,-8,-10,1,6,-36,-14,-37,-14
15:36:05:478429,4,9,1,8,59,40,28,0
15:36:05:483720,4,9,1,8,59,40,28,0
15:36:05:484477,-5,-12,0,-21,-34,-21,22,0
15:36:05:490533,-10,-11,-23,-9,-39,-45,63,3
15:36:05:498719,-10,-11,-23,-9,-39,-45,63,3
15:36:05:499529,0,7,21,17,18,7,26,-1
15:36:05:505495,-6,-1,32,-8,2,-18,-57,-12
15:36:05:521255,-6,-1,32,-8,2,-18,-57,-12
15:36:05:522017,6,-1,-3,-4,-32,-17,-18,-10
15:36:05:527954,7,8,-5,-5,5,-5,36,12
15:36:05:543745,7,8,-5,-5,5,-5,36,12
15:36:05:544480,-2,-1,5,-11,30,4,-13,1
15:36:05:550560,-2,-3,-16,26,61,39,2,-3
15:36:05:558756,-2,-3,-16,26,61,39,2,-3
15:36:05:559507,0,-8,-15,28,-6,-4,1,6
15:36:05:573063,-1,-7,-50,3,-59,-5,13,-10
15:36:05:581257,-1,-7,-50,3,-59,-5,13,-10
15:36:05:582035,5,6,44,8,14,1,-8,4
15:36:05:588022,-7,-2,-17,-21,-12,-58,-42,-12
15:36:05:603778,-7,-2,-17,-21,-12,-58,-42,-12
15:36:05:604567,-8,-14,-14,-6,-11,2,-7,6
15:36:05:610512,-4,-1,1,-44,-5,2,-22,4
15:36:05:618749,-4,-1,1,-44,-5,2,-22,4
15:36:05:619488,2,12,13,16,-41,8,68,22
15:36:05:633082,8,-2,10,16,1,18,92,30
15:36:05:641211,8,-2,10,16,1,18,92,30
15:36:05:641996,2,5,-24,-5,6,-23,-12,-5
15:36:05:648068,0,-5,-37,4,6,-14,-64,-3
15:36:05:663816,0,-5,-37,4,6,-14,-64,-3
15:36:05:664548,-4,-6,20,-3,-3,2,-16,-12
15:36:05:670549,-11,-20,0,1,-14,15,-104,-68
15:36:05:678710,-11,-20,0,1,-14,15,-104,-68
15:36:05:679472,1,0,-17,3,23,-17,-38,19
15:36:05:693030,0,-5,-25,26,65,45,9,-9
15:36:05:701295,0,-5,-25,26,65,45,9,-9
15:36:05:702018,-4,-18,4,16,-2,7,5,-7
15:36:05:708010,0,3,13,-13,-92,-42,37,16
15:36:05:723758,0,3,13,-13,-92,-42,37,16
15:36:05:724558,0,9,5,13,45,9,28,2
15:36:05:730549,-4,-2,22,-4,29,13,15,7
15:36:05:738736,-4,-2,22,-4,29,13,15,7
15:36:05:739550,-4,3,19,-21,-33,-11,-16,-11
15:36:05:753129,1,10,23,21,29,8,-11,12
15:36:05:761229,1,10,23,21,29,8,-11,12
15:36:05:762049,-1,5,6,-17,-22,-4,-2,-5
15:36:05:768020,-4,8,5,-6,-32,-28,-64,-37
15:36:05:783519,-4,8,5,-6,-32,-28,-64,-37
15:36:05:791189,3,1,-10,9,66,6,6,2
15:36:05:791963,0,4,-3,4,3,-4,4,-2
15:36:05:798710,0,4,-3,4,3,-4,4,-2
15:36:05:799566,-2,-5,-3,14,-62,-21,22,0
15:36:05:813028,-2,-15,-10,0,1,5,-11,11
15:36:05:821241,-2,-15,-10,0,1,5,-11,11
15:36:05:822064,0,-1,-9,-24,17,16,23,1
15:36:05:828047,-1,-1,9,6,-14,10,32,9
15:36:05:835622,-1,-1,9,6,-14,10,32,9
15:36:05:843004,1,6,-12,-24,-4,-9,-61,-14
15:36:05:850566,1,9,2,-26,8,1,9,6
15:36:05:858746,1,9,2,-26,8,1,9,6
15:36:05:859494,-1,-2,-14,7,-60,-3,-3,-2
15:36:05:873022,-4,-5,-12,6,18,-25,-34,-11
15:36:05:881256,-4,-5,-12,6,18,-25,-34,-11
15:36:05:882030,0,-1,-20,-14,44,23,-2,17
15:36:05:888019,4,-2,3,14,-36,6,43,32
15:36:05:895484,4,-2,3,14,-36,6,43,32
15:36:05:903037,-2,0,32,3,-2,-3,36,5
15:36:05:910523,-2,1,27,-8,15,-14,-6,-5
15:36:05:918762,-2,1,27,-8,15,-14,-6,-5
15:36:05:919518,-8,-30,-6,-6,-2,6,11,5
15:36:05:933081,0,-7,-18,-24,-8,1,19,3
15:36:05:941198,0,-7,-18,-24,-8,1,19,3
15:36:05:942003,1,5,4,50,26,12,-25,-10
15:36:05:948059,1,7,-8,-6,22,24,14,2
15:36:05:963831,1,7,-8,-6,22,24,14,2
15:36:05:964596,-1,5,-11,-11,-35,-17,-1,-5
15:36:05:970527,0,-6,-1,3,33,31,-50,-4
15:36:05:978703,0,-6,-1,3,33,31,-50,-4
15:36:05:979475,1,0,-8,-9,1,36,58,7
15:36:05:993028,-4,1,-17,11,5,4,-6,-9
15:36:06:1363,-4,1,-17,11,5,4,-6,-9
15:36:06:2059,-4,-7,-16,-16,-41,-34,-18,-9
15:36:06:8033,-5,-1,32,3,-9,20,14,-2
15:36:06:23522,-5,-1,32,3,-9,20,14,-2
15:36:06:31221,1,4,13,-5,49,7,4,4
15:36:06:31977,1,-1,-14,-17,-23,-14,-5,-1
15:36:06:46277,1,-1,-14,-17,-23,-14,-5,-1
15:36:06:47072,-7,-15,7,-5,3,20,-4,-3
15:36:06:52996,-2,-2,-12,-9,7,0,7,-1
15:36:06:61229,-2,-2,-12,-9,7,0,7,-1
15:36:06:62028,-1,13,49,-10,9,-17,30,0
15:36:06:68081,-3,-2,11,9,-12,13,31,3
15:36:06:75583,-3,-2,11,9,-12,13,31,3
15:36:06:83055,2,-1,5,3,-11,14,8,1
15:36:06:90525,1,-1,-1,-6,-8,14,10,6
15:36:06:98757,1,-1,-1,-6,-8,14,10,6
15:36:06:99523,2,5,3,-22,-33,-10,-28,-7
15:36:06:113043,1,-1,-21,3,28,-4,-10,-5
15:36:06:121247,1,-1,-21,3,28,-4,-10,-5
15:36:06:122033,-2,-2,-23,2,-3,-6,-26,-2
15:36:06:127996,-6,-5,-5,-11,-28,-34,-3,-2
15:36:06:135539,-6,-5,-5,-11,-28,-34,-3,-2
15:36:06:143037,3,0,-1,21,30,5,4,11
15:36:06:150561,3,4,25,4,3,-3,52,5
15:36:06:158724,3,4,25,4,3,-3,52,5
15:36:06:159502,1,2,-22,46,36,-3,-30,-7
15:36:06:173052,0,-1,3,36,5,-16,-5,4
15:36:06:181238,0,-1,3,36,5,-16,-5,4
15:36:06:181969,-1,-1,-7,-21,1,-6,2,-4
15:36:06:188031,-2,1,-6,-4,29,-24,-33,-9
15:36:06:195560,-2,1,-6,-4,29,-24,-33,-9
15:36:06:203035,1,-3,-9,-4,22,6,21,4
15:36:06:210502,-3,-15,-77,-22,-42,-15,-17,-7
15:36:06:226201,-3,-15,-77,-22,-42,-15,-17,-7
15:36:06:226988,0,5,-5,-10,-16,-5,-18,-11
15:36:06:233031,3,16,16,4,-17,2,34,7
15:36:06:241230,3,16,16,4,-17,2,34,7
15:36:06:242040,-3,7,-8,1,-16,2,-18,-7
15:36:06:248027,4,3,22,-14,-8,3,-8,2
15:36:06:255572,4,3,22,-14,-8,3,-8,2
15:36:06:262983,-1,-9,-17,-10,28,3,-1,-4
15:36:06:270465,-2,-33,2,-5,-37,-4,38,9
15:36:06:278692,-2,-33,2,-5,-37,-4,38,9
15:36:06:279522,-1,-16,11,-2,-33,-12,7,-9
15:36:06:293005,-6,1,-11,-6,-1,-12,-21,-7
15:36:06:301306,-6,1,-11,-6,-1,-12,-21,-7
15:36:06:302027,-8,-13,-13,-13,-13,-4,4,-24
15:36:06:308013,0,6,15,-4,2,3,-14,-3
15:36:06:315626,0,6,15,-4,2,3,-14,-3
15:36:06:323009,-1,6,10,24,23,4,5,5
15:36:06:330519,1,12,25,20,38,11,3,0
15:36:06:338724,1,12,25,20,38,11,3,0
15:36:06:339545,-4,1,6,-5,-7,-3,-9,3
15:36:06:353043,0,-10,-32,3,6,24,-30,1
15:36:06:361251,0,-10,-32,3,6,24,-30,1
15:36:06:362031,4,28,10,-5,-14,-7,-21,4
15:36:06:368069,0,5,-20,-9,-7,-9,-12,-10
15:36:06:375570,0,5,-20,-9,-7,-9,-12,-10
15:36:06:391195,-1,-1,-2,3,-7,2,-3,2
15:36:06:391962,-5,-15,-34,-6,0,-6,2,-1
15:36:06:398762,-5,-15,-34,-6,0,-6,2,-1
15:36:06:399575,5,-9,37,9,10,1,-10,9
15:36:06:413028,-1,-5,20,31,4,1,0,6
15:36:06:421235,-1,-5,20,31,4,1,0,6
15:36:06:422049,-6,-3,-11,-43,-31,6,-15,-2
15:36:06:427991,0,11,-8,-6,-3,29,6,-2
15:36:06:435624,0,11,-8,-6,-3,29,6,-2
15:36:06:443045,-3,0,-9,-3,-14,-6,26,5
15:36:06:450566,-3,18,-14,-18,-9,-15,10,-3
15:36:06:458085,-3,18,-14,-18,-9,-15,10,-3
15:36:06:465532,-5,-7,-32,-6,-4,-5,2,-4
15:36:06:473021,-1,-4,18,25,33,10,-8,-3
15:36:06:481224,-1,-4,18,25,33,10,-8,-3
15:36:06:482005,4,6,-10,27,19,8,16,-5
15:36:06:495929,-3,-3,20,-5,-36,-21,-8,-6
15:36:06:503743,-3,-3,20,-5,-36,-21,-8,-6
15:36:06:504478,3,11,17,-1,17,4,-5,2
15:36:06:510545,-2,16,32,-8,8,10,0,0
15:36:06:518111,-2,16,32,-8,8,10,0,0
15:36:06:525452,-17,-70,-105,-40,-25,-16,-13,-6
15:36:06:533057,2,7,-14,7,5,1,7,1
15:36:06:541223,2,7,-14,7,5,1,7,1
15:36:06:542043,0,30,59,-16,-15,-8,-25,-6
15:36:06:556210,-3,-23,-45,8,12,4,2,-1
15:36:06:557001,-3,-23,-45,8,12,4,2,-1
15:36:06:563005,3,-8,-9,8,22,8,4,3
15:36:06:570498,1,5,-33,-9,-15,-9,5,-3
15:36:06:578025,1,5,-33,-9,-15,-9,5,-3
15:36:06:585509,2,-9,1,8,2,-2,5,1
15:36:06:593006,0,3,8,13,-22,-2,-7,-2
15:36:06:601286,0,3,8,13,-22,-2,-7,-2
15:36:06:602070,6,19,19,12,22,4,0,0
15:36:06:616236,-1,9,8,-17,2,-4,-2,-2
15:36:06:617006,-1,9,8,-17,2,-4,-2,-2
15:36:06:623007,2,11,10,15,-11,-7,-2,-1
15:36:06:630534,-7,-21,-10,-11,-9,5,5,-1
15:36:06:638093,-7,-21,-10,-11,-9,5,5,-1
15:36:06:645488,1,2,3,27,6,7,8,3
15:36:06:653009,-2,-9,11,-32,-6,-7,-4,-2
15:36:06:661220,-2,-9,11,-32,-6,-7,-4,-2
15:36:06:662029,-5,4,22,-10,-9,5,-5,-2
15:36:06:676183,2,14,38,18,-14,-9,-7,0
15:36:06:677060,2,14,38,18,-14,-9,-7,0
15:36:06:682990,-1,-36,-17,7,-14,-7,-4,1
15:36:06:690501,-3,-26,-27,-16,5,-7,4,-2
15:36:06:698148,-3,-26,-27,-16,5,-7,4,-2
15:36:06:705527,-7,-10,4,-15,-20,0,-2,-4
15:36:06:713035,3,-6,-21,-6,26,-4,-14,0
15:36:06:721192,3,-6,-21,-6,26,-4,-14,0
15:36:06:721969,2,20,25,1,15,-2,2,2
15:36:06:736260,1,10,-9,-6,-17,-8,-1,1
15:36:06:737032,1,10,-9,-6,-17,-8,-1,1
15:36:06:742990,0,4,-6,4,-28,-9,-1,-1
15:36:06:750559,-1,-9,9,18,7,6,1,0
15:36:06:758030,-1,-9,9,18,7,6,1,0
15:36:06:765542,1,5,0,7,-5,2,-1,-1
15:36:06:773035,-2,7,7,-35,-8,1,0,0
15:36:06:781257,-2,7,7,-35,-8,1,0,0
15:36:06:781968,1,2,-2,-6,4,3,-2,-3
15:36:06:796211,0,6,11,0,0,-1,1,2
15:36:06:796982,0,6,11,0,0,-1,1,2
15:36:06:803051,1,-17,-10,2,20,4,1,-1
15:36:06:810518,-6,-5,9,-28,-38,-23,-8,-5
15:36:06:818098,-6,-5,9,-28,-38,-23,-8,-5
15:36:06:825471,-2,4,-5,38,62,30,-1,1
15:36:06:833002,1,10,16,12,19,13,0,2
15:36:06:841195,1,10,16,12,19,13,0,2
15:36:06:842054,-6,-31,-2,-25,-24,-17,2,-4
15:36:06:864474,-1,-1,7,8,17,4,-5,-2
15:36:06:865210,-1,-1,7,8,17,4,-5,-2
15:36:06:866000,-1,11,1,19,-13,-6,0,0
15:36:06:870510,-2,-1,-1,10,-3,2,4,-2
15:36:06:878066,-2,-1,-1,10,-3,2,4,-2
15:36:06:885513,-2,6,9,-14,-21,-3,-2,-1
15:36:06:901927,-1,-1,-11,11,-13,5,-3,-4
15:36:06:902719,-1,-1,-11,11,-13,5,-3,-4
15:36:06:903413,0,6,14,-4,43,20,-4,-3
15:36:06:916266,-3,-9,-7,16,53,18,-6,-2
15:36:06:917017,-3,-9,-7,16,53,18,-6,-2
15:36:06:923038,-3,-9,-3,-19,-32,-18,0,-1
15:36:06:930557,3,6,0,-3,-10,-12,-1,-1
15:36:06:938117,3,6,0,-3,-10,-12,-1,-1
15:36:06:945553,-6,0,-1,11,-20,-6,-8,-1
15:36:06:953063,3,2,9,21,39,10,9,4
15:36:06:961181,3,2,9,21,39,10,9,4
15:36:06:961984,2,1,-22,-22,0,-10,-1,-2
15:36:06:976189,-5,-8,-11,36,-39,-25,-5,-4
15:36:06:977032,-5,-8,-11,36,-39,-25,-5,-4
15:36:06:983056,2,4,3,7,58,31,5,1
15:36:06:990583,-2,6,13,-11,-23,-2,-2,0
15:36:06:998151,-2,6,13,-11,-23,-2,-2,0
15:36:07:5587,-3,-4,-1,-9,-51,-18,-12,-4
15:36:07:13082,0,-2,5,-13,0,-5,-7,-2
15:36:07:21215,0,-2,5,-13,0,-5,-7,-2
15:36:07:22027,-2,0,-3,-16,-3,-5,10,-3
15:36:07:36261,-4,-7,-21,6,2,1,-2,-4
15:36:07:36993,-4,-7,-21,6,2,1,-2,-4
15:36:07:43011,2,10,22,-2,3,-5,0,2
15:36:07:50561,-3,-22,-79,12,13,0,4,-2
15:36:07:58072,-3,-22,-79,12,13,0,4,-2
15:36:07:65507,-6,-37,-12,-20,-31,-15,-6,-2
15:36:07:73006,0,17,33,-8,39,16,-8,1
15:36:07:81264,0,17,33,-8,39,16,-8,1
15:36:07:82028,2,16,-12,-13,-19,-11,-4,0
15:36:07:96252,0,-9,-3,-13,-18,0,-3,0
15:36:07:97022,0,-9,-3,-13,-18,0,-3,0
15:36:07:102981,-2,-3,-1,10,0,6,14,3
15:36:07:110447,2,2,9,-61,-20,-2,4,-1
15:36:07:118072,2,2,9,-61,-20,-2,4,-1
15:36:07:125546,0,-1,-22,6,27,-1,-1,-1
15:36:07:133005,-4,-29,23,-15,-7,-5,3,-1
15:36:07:141270,-4,-29,23,-15,-7,-5,3,-1
15:36:07:142093,-1,-2,9,-3,-11,11,-2,0
15:36:07:156244,4,37,3,3,2,4,0,-3
15:36:07:157038,4,37,3,3,2,4,0,-3
15:36:07:163029,-6,-10,-33,6,4,-9,-7,-2
15:36:07:170478,-1,-3,19,12,-8,6,14,3
15:36:07:178048,-1,-3,19,12,-8,6,14,3
15:36:07:185568,0,8,0,-25,-37,-21,-9,-3
15:36:07:192981,0,0,7,21,71,13,0,-1
15:36:07:201288,0,0,7,21,71,13,0,-1
15:36:07:202027,1,0,9,-37,-9,10,-1,0
15:36:07:216253,1,-2,-5,14,-5,-4,-2,1
15:36:07:217054,1,-2,-5,14,-5,-4,-2,1
15:36:07:222996,4,17,24,-4,-6,-6,-2,-1
15:36:07:230511,1,47,3,3,-9,-3,-3,0
15:36:07:238061,1,47,3,3,-9,-3,-3,0
15:36:07:245534,1,19,21,22,8,2,-1,-4
15:36:07:253036,1,-3,36,-3,-14,-6,-3,-2
15:36:07:261173,1,-3,36,-3,-14,-6,-3,-2
15:36:07:261998,2,-14,-5,27,17,-1,6,3
15:36:07:276220,-6,-29,-54,-11,-34,-20,-3,0
15:36:07:276971,-6,-29,-54,-11,-34,-20,-3,0
15:36:07:283043,-1,-20,-7,24,97,11,4,1
15:36:07:290550,-7,-23,-24,35,-10,0,-3,-2
15:36:07:298048,-7,-23,-24,35,-10,0,-3,-2
15:36:07:305566,3,18,-28,-15,-21,-9,-3,-3
15:36:07:313021,2,15,7,-30,-16,-2,-3,-4
15:36:07:321189,2,15,7,-30,-16,-2,-3,-4
15:36:07:322010,-2,-17,8,13,-6,0,1,-1
15:36:07:336273,-3,-10,-5,-3,-6,2,0,-2
15:36:07:336990,-3,-10,-5,-3,-6,2,0,-2
15:36:07:342979,-1,2,-1,-16,-28,-22,-5,0
15:36:07:358750,1,-4,8,37,60,14,3,2
15:36:07:359498,1,-4,8,37,60,14,3,2
15:36:07:365566,-3,15,-13,-8,-16,2,-1,-1
15:36:07:373038,-5,-67,-45,-34,-32,-10,-3,-1
15:36:07:381245,-5,-67,-45,-34,-32,-10,-3,-1
15:36:07:381967,-2,1,20,21,15,4,-1,0
15:36:07:396206,-1,13,14,-29,-18,-18,-9,-5
15:36:07:397015,-1,13,14,-29,-18,-18,-9,-5
15:36:07:403036,-2,-19,6,8,26,5,4,-1
15:36:07:418699,3,21,27,-11,21,4,4,5
15:36:07:419490,3,21,27,-11,21,4,4,5
15:36:07:425528,-4,-16,1,30,-8,-3,-4,-3
15:36:07:433056,-1,10,16,55,-30,0,0,-2
15:36:07:440514,-1,10,16,55,-30,0,0,-2
15:36:07:448092,6,7,15,-2,10,9,1,1
15:36:07:456163,-3,-1,-6,-21,-26,-8,-4,-1
15:36:07:457004,-3,-1,-6,-21,-26,-8,-4,-1
15:36:07:463037,-3,6,-12,-10,-12,-2,-3,-5
15:36:07:478758,0,20,14,-11,-15,-3,-1,3
15:36:07:479484,0,20,14,-11,-15,-3,-1,3
15:36:07:485539,2,18,5,-7,11,4,0,1
15:36:07:493021,-2,36,13,-12,-2,-10,0,0
15:36:07:500647,-2,36,13,-12,-2,-10,0,0
15:36:07:507999,1,10,16,-9,7,0,-2,1
15:36:07:516187,2,14,4,17,23,19,4,-3
15:36:07:517006,2,14,4,17,23,19,4,-3
15:36:07:523005,-5,-24,-67,-27,-39,-11,-9,-5
15:36:07:538740,-9,-38,-59,-19,-1,-8,-7,-5
15:36:07:539519,-9,-38,-59,-19,-1,-8,-7,-5
15:36:07:545478,-4,-12,12,-2,-10,5,5,4
15:36:07:553011,-2,43,35,2,0,7,1,-1
15:36:07:560536,-2,43,35,2,0,7,1,-1
15:36:07:568043,-7,-89,-29,-5,-14,-15,-2,-7
15:36:07:576216,2,-1,6,18,15,11,0,1
15:36:07:577018,2,-1,6,18,15,11,0,1
15:36:07:582981,1,38,32,11,24,18,-4,5
15:36:07:598735,1,-30,10,-40,-21,-1,5,0
15:36:07:599582,1,-30,10,-40,-21,-1,5,0
15:36:07:621868,0,16,-10,17,-9,-5,6,-3
15:36:07:622598,2,-11,-49,8,13,-3,-8,-7
15:36:07:623460,2,-11,-49,8,13,-3,-8,-7
15:36:07:628001,-1,12,4,-9,-28,1,4,26
15:36:07:636187,-9,-5,-16,-5,7,-8,-1,34
15:36:07:636976,-9,-5,-16,-5,7,-8,-1,34
15:36:07:642967,3,32,18,0,-8,-8,-22,-29
15:36:07:658756,-2,-22,12,19,4,-2,-1,-5
15:36:07:659501,-2,-22,12,19,4,-2,-1,-5
15:36:07:665544,1,3,12,7,37,28,32,6
15:36:07:673024,5,-6,4,-7,-3,3,1,-4
15:36:07:680571,5,-6,4,-7,-3,3,1,-4
15:36:07:688004,-2,-11,-12,-23,-10,-9,-26,-13
15:36:07:696190,-5,2,18,9,1,14,15,6
15:36:07:697025,-5,2,18,9,1,14,15,6
15:36:07:703037,-1,-5,4,-1,-8,-10,6,10
15:36:07:718788,1,-20,28,3,10,-4,-5,3
15:36:07:719489,1,-20,28,3,10,-4,-5,3
15:36:07:725502,0,9,0,-12,1,-6,-3,7
15:36:07:733033,-4,-21,-63,-5,9,0,-2,-20
15:36:07:740571,-4,-21,-63,-5,9,0,-2,-20
15:36:07:748064,5,-7,44,20,-8,0,14,-1
15:36:07:764336,5,30,83,9,-8,3,-13,-6
15:36:07:765141,5,30,83,9,-8,3,-13,-6
15:36:07:765970,-4,9,-8,-4,-12,-12,-28,-19
15:36:07:778723,0,-4,-36,2,-15,15,-11,2
15:36:07:779489,0,-4,-36,2,-15,15,-11,2
15:36:07:785543,2,12,1,6,9,4,1,-13
15:36:07:793067,5,-66,-21,-12,-8,-29,-24,3
15:36:07:800589,5,-66,-21,-12,-8,-29,-24,3
15:36:07:807987,-9,7,-44,-7,9,7,7,3
15:36:07:816242,-1,14,14,14,5,3,5,-9
15:36:07:817055,-1,14,14,14,5,3,5,-9
15:36:07:822958,-2,-6,-8,-1,-13,-1,4,8
15:36:07:838741,2,26,44,-4,-5,-6,6,-10
15:36:07:839484,2,26,44,-4,-5,-6,6,-10
15:36:07:845444,-1,1,-5,-24,-17,-17,-10,2
15:36:07:852995,-2,-19,-14,24,11,8,6,1
15:36:07:860526,-2,-19,-14,24,11,8,6,1
15:36:07:868001,-4,-8,12,1,2,4,-2,-1
15:36:07:876204,-4,-2,-5,-12,-14,-17,1,-2
15:36:07:877008,-4,-2,-5,-12,-14,-17,1,-2
15:36:07:890504,3,9,9,22,15,2,-2,-2
15:36:07:898726,-15,11,2,-13,5,-8,-9,-13
15:36:07:899478,-15,11,2,-13,5,-8,-9,-13
15:36:07:905465,-6,-61,45,5,-12,-4,0,-3
15:36:07:912958,1,0,-50,-28,3,1,1,1
15:36:07:920601,1,0,-50,-28,3,1,1,1
15:36:07:928004,-2,-6,-20,6,-7,-4,-4,7
15:36:07:936240,12,10,3,3,-8,-7,3,-1
15:36:07:937054,12,10,3,3,-8,-7,3,-1
15:36:07:942970,0,16,-4,1,12,1,0,3
15:36:07:958779,-1,9,0,28,11,6,10,2
15:36:07:959531,-1,9,0,28,11,6,10,2
15:36:07:965510,0,-12,-12,-22,24,4,2,-5
15:36:07:981260,-3,-60,-11,-16,-10,-5,-13,16
15:36:07:982016,-3,-60,-11,-16,-10,-5,-13,16
15:36:07:987998,-12,42,25,8,-2,0,6,1
15:36:07:996190,10,44,33,4,-3,1,-2,2
15:36:07:997051,10,44,33,4,-3,1,-2,2
15:36:08:3050,7,-19,-30,-12,-8,-7,2,-5
15:36:08:18825,-16,-1,-17,9,-6,-4,4,3
15:36:08:19580,-16,-1,-17,9,-6,-4,4,3
15:36:08:25486,-1,2,9,-3,-9,4,1,-2
15:36:08:33025,5,15,7,1,-30,1,2,-2
15:36:08:40556,5,15,7,1,-30,1,2,-2
15:36:08:56845,-2,19,14,-7,-19,-5,-8,-17
15:36:08:57693,-1,1,-8,-20,-4,-9,-5,-11
15:36:08:58453,-1,1,-8,-20,-4,-9,-5,-11
15:36:08:63068,5,-3,-17,17,-9,0,4,26
15:36:08:78736,1,-24,20,6,9,2,-2,-14
15:36:08:79496,1,-24,20,6,9,2,-2,-14
15:36:08:85594,-3,-3,-18,-46,-6,-7,-10,-5
15:36:08:92960,1,-37,16,8,16,6,12,9
15:36:08:100636,1,-37,16,8,16,6,12,9
15:36:08:107997,-10,-6,-14,11,5,0,-1,-6
15:36:08:116236,-5,-5,3,-6,4,0,-3,-2
15:36:08:117015,-5,-5,3,-6,4,0,-3,-2
15:36:08:122982,-1,18,25,4,-4,-3,-1,-3
15:36:08:138719,-2,18,-3,-5,5,1,-6,-4
15:36:08:139504,-2,18,-3,-5,5,1,-6,-4
15:36:08:145514,3,-12,-22,-7,0,-2,2,-1
15:36:08:153011,2,28,-9,1,3,-2,-3,0
15:36:08:160562,2,28,-9,1,3,-2,-3,0
15:36:08:168026,1,-4,8,7,5,-3,-2,-1
15:36:08:176127,-3,3,-16,-6,-16,1,2,0
15:36:08:176944,-3,3,-16,-6,-16,1,2,0
15:36:08:183028,-2,-17,-6,2,9,4,-3,-6
15:36:08:198733,0,43,16,-3,-1,-3,-2,-4
15:36:08:199491,0,43,16,-3,-1,-3,-2,-4
15:36:08:205559,11,8,19,-3,-9,-1,3,15
15:36:08:213133,0,1,10,-3,-3,-7,-10,-12
15:36:08:220554,0,1,10,-3,-3,-7,-10,-12
15:36:08:227995,7,-15,-48,-7,3,5,11,3
15:36:08:236265,-12,-58,-46,-18,12,14,23,-36
15:36:08:236969,-12,-58,-46,-18,12,14,23,-36
15:36:08:242993,-3,-4,7,-17,-18,-6,-4,-21
15:36:08:259135,-4,0,9,-11,-11,-17,-9,37
15:36:08:259933,-4,0,9,-11,-11,-17,-9,37
15:36:08:265526,-12,-1,-13,-14,-2,0,0,11
15:36:08:273011,8,8,10,15,13,2,-2,21
15:36:08:288742,8,8,10,15,13,2,-2,21
15:36:08:289534,-10,2,-2,-4,5,-4,-9,-7
15:36:08:295603,-10,2,-2,-4,5,-4,-9,-7
15:36:08:303756,-3,5,-20,3,5,3,13,-4
15:36:08:304481,-6,-14,-2,0,-4,-4,-5,-13
15:36:08:318830,-6,-14,-2,0,-4,-4,-5,-13
15:36:08:319498,-1,6,-6,-16,-5,1,11,29
15:36:08:325496,4,14,10,20,13,6,4,-14
15:36:08:341322,4,14,10,20,13,6,4,-14
15:36:08:342034,2,11,23,12,-3,-2,-8,6
15:36:08:348118,14,0,9,3,-5,-4,-16,-23
15:36:08:356295,14,0,9,3,-5,-4,-16,-23
15:36:08:357033,-10,-5,4,-6,6,-1,-11,-16
15:36:08:370560,8,0,-6,23,-7,-3,7,0
15:36:08:378745,8,0,-6,23,-7,-3,7,0
15:36:08:379617,7,8,5,-2,-9,-4,0,-31
15:36:08:385579,3,-1,5,-5,-1,1,-2,-14
15:36:08:401312,3,-1,5,-5,-1,1,-2,-14
15:36:08:402088,9,1,2,7,11,3,-3,8
15:36:08:408054,7,8,0,-7,1,1,1,22
15:36:08:415658,7,8,0,-7,1,1,1,22
15:36:08:423080,2,36,36,3,-3,-2,-7,-22
15:36:08:430611,-17,4,20,7,5,2,1,21
15:36:08:438813,-17,4,20,7,5,2,1,21
15:36:08:439539,4,5,1,2,-3,-1,0,27
15:36:08:453033,17,-24,-10,-10,0,1,-2,-32
15:36:08:461297,17,-24,-10,-10,0,1,-2,-32
15:36:08:462031,-3,-67,-27,7,5,0,-5,-16
15:36:08:468076,19,-5,-24,6,5,5,6,8
15:36:08:476150,19,-5,-24,6,5,5,6,8
15:36:08:476957,14,-13,-53,-9,-11,-10,-3,8
15:36:08:490564,-1,14,57,29,24,13,-6,-15
15:36:08:498763,-1,14,57,29,24,13,-6,-15
15:36:08:499551,-13,-38,-60,-8,5,1,1,-5
15:36:08:505548,-10,-6,7,3,-23,-11,-13,-17
15:36:08:521262,-10,-6,7,3,-23,-11,-13,-17
15:36:08:522085,40,36,-5,3,-4,-1,-1,5
15:36:08:527961,-7,31,15,5,-1,-7,0,45
15:36:08:543762,-7,31,15,5,-1,-7,0,45
15:36:08:544490,-16,-20,38,-3,3,1,2,12
15:36:08:550529,-8,-21,-7,-11,3,2,6,22
15:36:08:566933,-8,-21,-7,-11,3,2,6,22
15:36:08:567730,-20,76,66,3,-3,1,-12,-11
15:36:08:568428,-3,-8,-33,-7,-13,-11,-5,-32
15:36:08:581276,-3,-8,-33,-7,-13,-11,-5,-32
15:36:08:581984,2,-1,-8,-6,28,16,12,18
15:36:08:588029,-2,45,12,2,-3,-1,-11,-40
15:36:08:596210,-2,45,12,2,-3,-1,-11,-40
15:36:08:596985,3,5,21,-9,-20,-9,-18,-40
15:36:08:610532,-3,-26,-24,-3,-3,4,-17,40
15:36:08:618791,-3,-26,-24,-3,-3,4,-17,40
15:36:08:619476,-19,-3,-10,6,6,6,39,8
15:36:08:625504,-1,-29,28,3,-8,-2,38,6
15:36:08:641214,-1,-29,28,3,-8,-2,38,6
15:36:08:641974,17,-18,-55,-3,-5,-12,-1,12
15:36:08:648072,-7,21,57,-16,2,-7,-4,-4
15:36:08:656217,-7,21,57,-16,2,-7,-4,-4
15:36:08:657016,-18,-35,-7,-4,-10,-4,14,37
15:36:08:670579,10,6,-17,-3,5,-6,-12,33
15:36:08:678742,10,6,-17,-3,5,-6,-12,33
15:36:08:679480,-8,-1,97,4,20,3,-6,-18
15:36:08:685556,-23,-4,-20,11,14,-4,-116,-23
15:36:08:701309,-23,-4,-20,11,14,-4,-116,-23
15:36:08:702055,18,20,-20,-5,-4,5,-38,5
15:36:08:707984,-33,10,-18,-5,-14,-4,-43,-18
15:36:08:723793,-33,10,-18,-5,-14,-4,-43,-18
15:36:08:724534,-7,-4,7,-15,-12,-4,8,-15
15:36:08:730513,26,2,-19,-17,-11,1,5,-11
15:36:08:738755,26,2,-19,-17,-11,1,5,-11
15:36:08:739565,1,-2,-95,-15,-7,-6,-3,-1
15:36:08:745510,-24,-12,-50,-10,22,16,42,-1
15:36:08:761184,-24,-12,-50,-10,22,16,42,-1
15:36:08:762030,-8,-7,27,22,-14,-38,-59,-5
15:36:08:767994,9,-13,-10,0,12,23,122,46
15:36:08:776244,9,-13,-10,0,12,23,122,46
15:36:08:777013,-4,42,10,1,-4,2,-30,-25
15:36:08:790542,-7,-12,-43,-6,-12,-8,16,13
15:36:08:798767,-7,-12,-43,-6,-12,-8,16,13
15:36:08:799497,-14,-12,-10,13,2,0,5,4
15:36:08:805518,40,-68,-32,-7,-4,-1,-12,9
15:36:08:821286,40,-68,-32,-7,-4,-1,-12,9
15:36:08:822077,3,-28,-35,56,1,0,-9,-23
15:36:08:828001,-12,29,45,17,-6,-11,105,44
15:36:08:835605,-12,29,45,17,-6,-11,105,44
15:36:08:842998,3,-3,-15,-11,41,29,55,6
15:36:08:850583,-14,6,-27,-3,-24,14,17,-7
15:36:08:858767,-14,6,-27,-3,-24,14,17,-7
15:36:08:859462,3,16,49,-12,1,-8,8,-1
15:36:08:865562,-3,2,18,-30,3,-5,-71,-37
15:36:08:881265,-3,2,18,-30,3,-5,-71,-37
15:36:08:882011,-21,-4,4,-21,-21,-3,75,3
15:36:08:888030,9,21,54,51,27,16,-79,-44
15:36:08:896182,9,21,54,51,27,16,-79,-44
15:36:08:896958,-8,-4,-26,-5,-11,-1,-29,-15
15:36:08:910524,-2,-10,30,-18,-9,-26,-24,-2
15:36:08:926908,-2,-10,30,-18,-9,-26,-24,-2
15:36:08:927734,-19,-14,-40,-2,5,7,8,13
15:36:08:928474,5,13,16,-7,-7,-8,18,2
15:36:08:941223,5,13,16,-7,-7,-8,18,2
15:36:08:942030,1,-32,3,-33,-14,-3,15,20
15:36:08:948013,0,-5,-56,-7,1,-5,-30,-19
15:36:08:956245,0,-5,-56,-7,1,-5,-30,-19
15:36:08:957040,-14,29,-53,14,-5,18,-3,-5
15:36:08:970591,-9,30,-78,6,21,4,-62,-20
15:36:08:978733,-9,30,-78,6,21,4,-62,-20
15:36:08:979553,5,32,92,-4,-11,-6,7,15
15:36:08:985576,7,40,-33,1,-18,-15,13,8
15:36:09:1742,7,40,-33,1,-18,-15,13,8
15:36:09:8697,18,-12,12,3,-2,-26,-43,-3
15:36:09:9441,-3,-39,45,-7,21,11,14,25
15:36:09:16225,-3,-39,45,-7,21,11,14,25
15:36:09:16994,10,2,42,-10,0,12,-6,-3
15:36:09:30544,-15,-15,-1,2,-22,-10,-12,5
15:36:09:38811,-15,-15,-1,2,-22,-10,-12,5
15:36:09:39520,-1,-4,21,25,16,-8,-17,-12
15:36:09:45451,17,-29,-31,-12,1,12,20,28
15:36:09:61193,17,-29,-31,-12,1,12,20,28
15:36:09:61960,-5,22,-5,-13,-24,-6,-15,-20
15:36:09:67995,3,-30,49,7,5,4,4,-7
15:36:09:76195,3,-30,49,7,5,4,4,-7
15:36:09:77021,6,-26,0,2,-12,-9,-34,-14
15:36:09:90528,5,27,18,-2,-14,-1,6,27
15:36:09:98745,5,27,18,-2,-14,-1,6,27
15:36:09:99472,-7,4,-20,-1,11,8,-15,-28
15:36:09:105509,-2,-16,6,-6,10,-1,-6,-19
15:36:09:121222,-2,-16,6,-6,10,-1,-6,-19
15:36:09:122005,2,30,20,-2,-4,2,15,31
15:36:09:128003,-66,30,73,12,-9,6,-5,-58
15:36:09:136311,-66,30,73,12,-9,6,-5,-58
15:36:09:136967,2,-2,-9,-8,-31,-13,-7,-3
15:36:09:150540,8,14,-2,-8,0,-10,-4,1
15:36:09:158756,8,14,-2,-8,0,-10,-4,1
15:36:09:159404,13,-4,-19,7,27,45,19,-2
15:36:09:165558,-14,3,16,2,-13,-6,19,13
15:36:09:181260,-14,3,16,2,-13,-6,19,13
15:36:09:182058,1,-12,-9,1,-26,-23,4,11
15:36:09:188021,3,-16,-20,-12,-19,5,-17,-19
15:36:09:203788,3,-16,-20,-12,-19,5,-17,-19
15:36:09:204509,-17,103,7,-4,13,4,5,7
15:36:09:210457,1,-25,-43,-22,-17,-15,-2,-4
15:36:09:226869,1,-25,-43,-22,-17,-15,-2,-4
15:36:09:227720,15,-22,-13,8,7,-1,-5,3
15:36:09:228392,16,45,-4,8,8,-3,12,11
15:36:09:241221,16,45,-4,8,8,-3,12,11
15:36:09:241991,-20,-45,-8,-3,10,-6,-4,-3
15:36:09:247998,17,-11,21,-4,-10,-16,-7,24
15:36:09:256228,17,-11,21,-4,-10,-16,-7,24
15:36:09:256991,-3,9,-2,-13,6,-1,-12,-15
15:36:09:270548,1,-5,-4,5,6,0,9,-2
15:36:09:278726,1,-5,-4,5,6,0,9,-2
15:36:09:279483,0,4,26,14,-10,-7,4,-12
15:36:09:285526,-3,2,-3,8,13,-3,0,-2
15:36:09:301283,-3,2,-3,8,13,-3,0,-2
15:36:09:302037,-2,-2,-2,0,16,7,0,-30
15:36:09:308043,28,-12,1,5,0,4,-11,-2
15:36:09:315576,28,-12,1,5,0,4,-11,-2
15:36:09:323007,14,-38,-12,13,28,-9,0,11
15:36:09:330483,5,10,0,-13,7,3,1,6
15:36:09:338761,5,10,0,-13,7,3,1,6
15:36:09:339533,-14,-31,18,-17,-26,-15,-8,1
15:36:09:353102,-8,-23,2,13,31,18,3,-3
15:36:09:361196,-8,-23,2,13,31,18,3,-3
15:36:09:362016,1,-8,-34,-3,0,-5,1,-4
15:36:09:368059,17,48,37,17,7,11,-3,-22
15:36:09:375554,17,48,37,17,7,11,-3,-22
15:36:09:383030,-4,-3,36,-10,-22,-12,-3,5
15:36:09:390497,-3,-2,-24,-1,7,-1,8,9
15:36:09:398755,-3,-2,-24,-1,7,-1,8,9
15:36:09:399493,8,59,27,18,24,34,9,16
15:36:09:413022,-27,76,69,3,-42,-16,-6,1
15:36:09:421260,-27,76,69,3,-42,-16,-6,1
15:36:09:422055,-14,1,-22,2,-8,-2,-1,-2
15:36:09:428028,12,-18,-11,-5,-16,-2,-2,4
15:36:09:435625,12,-18,-11,-5,-16,-2,-2,4
15:36:09:442999,-2,-19,3,20,21,14,1,-2
15:36:09:450506,5,5,-6,1,25,4,7,5
15:36:09:458738,5,5,-6,1,25,4,7,5
15:36:09:459529,-10,-30,-16,-12,-13,-10,-1,2
15:36:09:481906,-23,-50,-23,-8,-13,-2,0,0
15:36:09:482715,-23,-50,-23,-8,-13,-2,0,0
15:36:09:483445,-11,18,-76,-27,-3,-18,-10,-1
15:36:09:487999,-4,-5,10,0,20,11,-4,-11
15:36:09:495548,-4,-5,10,0,20,11,-4,-11
15:36:09:502988,10,-13,4,-6,-15,0,-2,22
15:36:09:510503,-4,-11,-67,2,1,-28,3,-8
15:36:09:518866,-4,-11,-67,2,1,-28,3,-8
15:36:09:520001,12,-10,-28,-2,17,1,3,24
15:36:09:533008,0,-15,-23,-5,-24,12,0,7
15:36:09:541215,0,-15,-23,-5,-24,12,0,7
15:36:09:541996,1,55,-4,-2,-14,7,-2,-4
15:36:09:548039,0,-5,12,-15,-21,-12,-4,-3
15:36:09:555594,0,-5,12,-15,-21,-12,-4,-3
15:36:09:563021,-1,-11,50,-9,-1,3,-2,-7
15:36:09:570540,1,29,75,8,0,0,0,-10
15:36:09:578767,1,29,75,8,0,0,0,-10
15:36:09:579400,3,-62,21,-3,-2,-22,0,-5
15:36:09:592991,-4,-16,-33,5,37,19,8,30
15:36:09:601298,-4,-16,-33,5,37,19,8,30
15:36:09:602058,4,6,12,-27,-19,-14,-15,-10
15:36:09:608045,3,-8,-23,2,7,14,7,-6
15:36:09:615543,3,-8,-23,2,7,14,7,-6
15:36:09:623043,-4,4,-69,13,2,9,8,-6
15:36:09:630537,4,2,-10,-13,-31,-32,-11,-1
15:36:09:638728,4,2,-10,-13,-31,-32,-11,-1
15:36:09:639472,-3,0,18,-10,-2,-4,-8,-8
15:36:09:653074,-2,2,-10,-17,46,17,-1,-12
15:36:09:661157,-2,2,-10,-17,46,17,-1,-12
15:36:09:661944,-8,-34,-54,7,-3,2,-4,-12
15:36:09:668022,-12,-15,-76,-1,-3,-19,-47,-16
15:36:09:675534,-12,-15,-76,-1,-3,-19,-47,-16
15:36:09:683027,4,3,7,1,3,20,22,9
15:36:09:690488,-7,-5,17,-12,-14,-11,1,0
15:36:09:698816,-7,-5,17,-12,-14,-11,1,0
15:36:09:699509,10,13,-1,15,-2,-15,-12,-2
15:36:09:713023,-6,1,16,-5,-7,-3,10,-8
15:36:09:721206,-6,1,16,-5,-7,-3,10,-8
15:36:09:722020,9,1,31,-4,-15,-1,11,42
15:36:09:727956,-1,12,-5,12,-49,-16,-15,-30
15:36:09:735565,-1,12,-5,12,-49,-16,-15,-30
15:36:09:742964,-13,9,58,11,36,6,-2,19
15:36:09:750490,-10,0,71,-6,-21,-29,-23,7
15:36:09:758779,-10,0,71,-6,-21,-29,-23,7
15:36:09:759512,12,36,79,7,8,25,-4,9
15:36:09:772995,13,30,81,24,-11,-2,1,-3
15:36:09:781235,13,30,81,24,-11,-2,1,-3
15:36:09:782017,-6,-1,-41,2,-2,-12,-13,-16
15:36:09:788006,0,-9,-27,-7,9,10,8,-5
15:36:09:795544,0,-9,-27,-7,9,10,8,-5
15:36:09:803013,-5,-20,-2,-11,-6,5,-4,-19
15:36:09:810484,16,-12,-28,1,33,18,25,42
15:36:09:818795,16,-12,-28,1,33,18,25,42
15:36:09:819544,-16,-35,-3,6,5,7,-5,-40
15:36:09:832998,8,-12,31,2,-13,11,18,14
15:36:09:841239,8,-12,31,2,-13,11,18,14
15:36:09:842033,6,4,-61,-11,-23,-16,1,-1
15:36:09:848076,5,-3,-41,21,47,25,8,10
15:36:09:855584,5,-3,-41,21,47,25,8,10
15:36:09:863062,2,25,88,-21,-9,-10,0,-1
15:36:09:870556,-14,-41,-104,-34,-20,-7,0,-9
15:36:09:878772,-14,-41,-104,-34,-20,-7,0,-9
15:36:09:879423,0,-1,3,17,20,0,-3,-2
15:36:09:893007,-1,3,22,13,-5,6,13,17
15:36:09:901313,-1,3,22,13,-5,6,13,17
15:36:09:902026,-18,5,-22,-8,-15,-8,-1,-35
15:36:09:908022,-3,-2,-2,-8,-17,-7,25,-35
15:36:09:915532,-3,-2,-2,-8,-17,-7,25,-35
15:36:09:923068,2,-3,-62,10,41,34,56,26
15:36:09:930527,2,6,3,50,34,6,-7,5
15:36:09:938780,2,6,3,50,34,6,-7,5
15:36:09:939531,3,-5,23,-1,-32,-15,-15,-4
15:36:09:953147,31,8,-7,9,1,1,3,25
15:36:09:961198,31,8,-7,9,1,1,3,25
15:36:09:961980,22,0,27,7,9,1,-6,15
15:36:09:968079,36,34,-5,-20,-4,6,7,2
15:36:09:975541,36,34,-5,-20,-4,6,7,2
15:36:09:982998,-56,-38,29,-10,-7,-28,-101,-77
15:36:09:990468,-13,11,85,-10,-6,0,56,58
15:36:09:998765,-13,11,85,-10,-6,0,56,58
15:36:09:999521,67,51,35,-1,-5,18,26,43
15:36:10:13066,-31,-7,64,12,-26,-6,-13,-60
15:36:10:21231,-31,-7,64,12,-26,-6,-13,-60
15:36:10:22034,-12,-13,3,-18,-22,-17,-17,-10
15:36:10:27940,8,-2,59,-7,19,4,7,45
15:36:10:35623,8,-2,59,-7,19,4,7,45
15:36:10:43007,-6,-1,-94,0,-14,-13,-8,-4
15:36:10:50555,-89,-15,-90,-24,-10,-18,-36,-23
15:36:10:58726,-89,-15,-90,-24,-10,-18,-36,-23
15:36:10:59510,-1,-2,-10,-2,16,15,103,28
15:36:10:73003,26,-37,11,3,-26,-23,-32,-45
15:36:10:81247,26,-37,11,3,-26,-23,-32,-45
15:36:10:82003,6,-2,-44,16,41,24,72,33
15:36:10:88018,-31,-17,7,-33,-10,27,8,17
15:36:10:95576,-31,-17,7,-33,-10,27,8,17
15:36:10:103054,-11,-48,20,57,11,5,-36,-38
15:36:10:110478,15,-9,-78,1,-4,-15,-4,29
15:36:10:118824,15,-9,-78,1,-4,-15,-4,29
15:36:10:119601,-21,16,64,-24,-23,-17,-27,-13
15:36:10:133029,23,-8,-35,1,28,13,-10,-7
15:36:10:141232,23,-8,-35,1,28,13,-10,-7
15:36:10:142052,3,5,7,8,13,11,-18,-22
15:36:10:148066,54,14,15,15,17,17,-8,-10
15:36:10:155601,54,14,15,15,17,17,-8,-10
15:36:10:163070,17,-37,-6,-12,-23,-18,64,7
15:36:10:170569,19,-33,-15,-6,-2,4,9,5
15:36:10:178769,19,-33,-15,-6,-2,4,9,5
15:36:10:179405,-14,33,-5,-13,5,-4,-61,-25
15:36:10:192996,1,-19,-22,2,-12,-12,1,-22
15:36:10:201286,1,-19,-22,2,-12,-12,1,-22
15:36:10:202027,15,-6,-12,-17,-9,-5,-10,21
15:36:10:208028,-39,-12,-25,-7,5,-24,-27,-28
15:36:10:215535,-39,-12,-25,-7,5,-24,-27,-28
15:36:10:223015,-10,36,13,-11,-12,3,5,24
15:36:10:230550,-1,4,-28,1,-18,-17,-8,-51
15:36:10:238784,-1,4,-28,1,-18,-17,-8,-51
15:36:10:239517,-30,6,-22,-12,-13,-16,-14,-40
15:36:10:253048,-1,19,11,-8,-9,-2,-2,-13
15:36:10:261179,-1,19,11,-8,-9,-2,-2,-13
15:36:10:261978,-6,5,-61,27,38,29,-11,1
15:36:10:276164,19,38,22,-12,-14,-1,-3,26
15:36:10:276991,19,38,22,-12,-14,-1,-3,26
15:36:10:283060,-32,-42,65,-6,-19,-16,-8,-15
15:36:10:290522,-2,40,82,10,1,2,15,27
15:36:10:298096,-2,40,82,10,1,2,15,27
15:36:10:305477,-18,-19,-10,0,-9,-14,25,22
15:36:10:313020,20,36,15,2,8,-9,-15,-16
15:36:10:321212,20,36,15,2,8,-9,-15,-16
15:36:10:322002,17,-41,10,2,6,-6,-14,11
15:36:10:336232,-15,-19,8,10,71,25,1,14
15:36:10:337000,-15,-19,8,10,71,25,1,14
15:36:10:343010,8,-26,-7,-7,-10,1,-9,-11
15:36:10:350516,2,-7,69,2,-28,-13,5,25
15:36:10:358050,2,-7,69,2,-28,-13,5,25
15:36:10:365489,50,97,72,14,39,30,1,7
15:36:10:372990,5,-18,13,-1,8,7,-2,-13
15:36:10:381003,5,-18,13,-1,8,7,-2,-13
15:36:10:388010,-8,-4,-30,-16,-26,-15,-7,-37
15:36:10:396180,-67,-9,-50,-4,-26,-26,-2,-16
15:36:10:397066,-67,-9,-50,-4,-26,-26,-2,-16
15:36:10:403028,-4,32,31,14,-2,-4,-13,-1
15:36:10:410487,25,-2,-25,-12,-9,-6,-4,-3
15:36:10:418117,25,-2,-25,-12,-9,-6,-4,-3
15:36:10:425506,0,-54,-4,-1,-14,-16,-1,6
15:36:10:433021,-8,30,37,11,35,39,1,5
15:36:10:441214,-8,30,37,11,35,39,1,5
15:36:10:442000,34,54,6,-2,8,4,17,21
15:36:10:456159,1,-3,-48,-3,-1,10,-11,-14
15:36:10:457008,1,-3,-48,-3,-1,10,-11,-14
15:36:10:463046,5,-55,-93,-17,-9,-6,-6,-17
15:36:10:470539,-9,46,-40,-15,-22,-9,-5,18
15:36:10:477996,-9,46,-40,-15,-22,-9,-5,18
15:36:10:485598,2,-15,5,5,-4,1,0,24
15:36:10:493006,39,-7,9,5,0,-7,-2,6
15:36:10:501237,39,-7,9,5,0,-7,-2,6
15:36:10:501990,-67,-62,-91,14,-3,11,-18,-12
15:36:10:516186,0,-19,-25,41,93,23,8,-7
15:36:10:516987,0,-19,-25,41,93,23,8,-7
15:36:10:522975,31,60,47,39,95,68,12,10
15:36:10:530566,-31,-40,-52,-23,-66,-26,-7,5
15:36:10:538061,-31,-40,-52,-23,-66,-26,-7,5
15:36:10:545474,-11,50,40,1,-19,-8,-8,-7
15:36:10:552994,-14,-40,41,-18,-17,0,-4,4
15:36:10:561182,-14,-40,41,-18,-17,0,-4,4
15:36:10:561994,1,32,15,-32,-39,-29,-3,-20
15:36:10:576161,28,41,61,11,-32,-1,4,-13
15:36:10:576994,28,41,61,11,-32,-1,4,-13
15:36:10:591201,8,-7,96,15,-17,-7,-11,-15
15:36:10:592011,-40,-10,-54,10,3,1,5,-22
15:36:10:598113,-40,-10,-54,10,3,1,5,-22
15:36:10:605514,15,-53,-42,-20,-30,-19,7,12
15:36:10:612967,11,-9,53,0,16,3,6,3
15:36:10:621208,11,-9,53,0,16,3,6,3
15:36:10:622004,-12,10,-3,-4,3,-10,5,23
15:36:10:636225,-7,52,-93,-7,-12,-7,2,5
15:36:10:637026,-7,52,-93,-7,-12,-7,2,5
15:36:10:642943,10,-40,-38,4,15,0,3,14
15:36:10:650537,-31,-63,35,1,17,-4,-9,18
15:36:10:658059,-31,-63,35,1,17,-4,-9,18
15:36:10:665494,-19,36,-9,-20,-46,-38,-12,-4
15:36:10:672989,3,-18,27,-16,-5,3,-3,-20
15:36:10:681285,3,-18,27,-16,-5,3,-3,-20
15:36:10:681999,-9,9,-10,-7,1,-8,-13,-39
15:36:10:696232,0,-49,-4,-10,-18,-6,-14,-14
15:36:10:697042,0,-49,-4,-10,-18,-6,-14,-14
15:36:10:703047,2,-12,35,9,-49,-14,6,15
15:36:10:710484,3,16,20,-2,0,-2,-8,-5
15:36:10:718105,3,16,20,-2,0,-2,-8,-5
15:36:10:725505,-9,-73,-26,-23,1,2,13,47
15:36:10:733039,5,-2,-53,-1,16,-1,-20,13
15:36:10:741275,5,-2,-53,-1,16,-1,-20,13
15:36:10:742063,4,64,76,26,9,7,24,-34
15:36:10:756251,-17,17,11,-6,-4,-5,16,-19
15:36:10:757067,-17,17,11,-6,-4,-5,16,-19
15:36:10:763049,19,-40,-53,-24,1,4,3,32
15:36:10:770540,5,29,15,3,-4,1,-21,-24
15:36:10:778053,5,29,15,3,-4,1,-21,-24
15:36:10:785546,2,11,80,4,-2,5,-5,-4
15:36:10:793007,-20,41,95,-2,-17,-2,13,1
15:36:10:801216,-20,41,95,-2,-17,-2,13,1
15:36:10:801976,13,37,-20,-5,28,5,-12,-18
15:36:10:816157,16,20,14,16,36,14,3,34
15:36:10:817000,16,20,14,16,36,14,3,34
15:36:10:822992,40,2,-42,-16,34,13,4,2
15:36:10:830517,18,-15,6,6,-15,-2,27,37
15:36:10:838045,18,-15,6,6,-15,-2,27,37
15:36:10:845524,24,3,-77,-14,-11,-4,-16,-15
15:36:10:853100,12,-64,-8,6,-13,-6,1,11
15:36:10:861194,12,-64,-8,6,-13,-6,1,11
15:36:10:862004,-22,4,123,22,-1,4,-5,-14
15:36:10:876200,5,16,-30,-12,6,-6,-16,-20
15:36:10:877019,5,16,-30,-12,6,-6,-16,-20
15:36:10:882988,-12,-48,-97,-15,-10,-6,12,27
15:36:10:890522,-32,-41,2,11,20,-2,3,-18
15:36:10:898104,-32,-41,2,11,20,-2,3,-18
15:36:10:905502,1,36,38,26,9,27,21,40
15:36:10:913004,-26,-32,-30,1,-1,-9,3,-15
15:36:10:921207,-26,-32,-30,1,-1,-9,3,-15
15:36:10:922028,-48,43,19,18,50,17,-21,-59
15:36:10:944342,8,32,55,-11,-13,3,-7,10
15:36:10:945131,8,32,55,-11,-13,3,-7,10
15:36:10:945953,-16,-12,-36,-19,-36,-23,-4,1
15:36:10:950515,-8,36,-9,-22,-12,-7,-9,-15
15:36:10:958047,-8,36,-9,-22,-12,-7,-9,-15
15:36:10:965495,30,-19,-11,8,2,4,0,4
15:36:10:973034,7,-31,-94,-45,-35,-18,-5,18
15:36:10:981254,7,-31,-94,-45,-35,-18,-5,18
15:36:10:981988,-21,-32,-37,-7,12,12,-14,-2
15:36:10:996215,27,39,33,19,6,26,13,8
15:36:10:996999,27,39,33,19,6,26,13,8
15:36:11:3004,-5,5,41,2,-14,-10,43,13
15:36:11:10516,-11,5,6,2,3,-1,7,0
15:36:11:18094,-11,5,6,2,3,-1,7,0
15:36:11:25487,50,39,-33,-21,-3,-8,-12,26
15:36:11:32983,-18,-14,61,28,1,-4,-7,-23
15:36:11:41207,-18,-14,61,28,1,-4,-7,-23
15:36:11:42032,39,-19,9,0,-8,-6,-4,2
15:36:11:56209,2,-3,-40,16,4,1,-2,8
15:36:11:57028,2,-3,-40,16,4,1,-2,8
15:36:11:63002,-22,-3,14,-11,-17,-13,-6,6
15:36:11:70479,-3,7,-45,-2,24,3,-14,-11
15:36:11:78042,-3,7,-45,-2,24,3,-14,-11
15:36:11:85529,-18,-22,-44,-1,16,-3,0,-4
15:36:11:92984,-31,27,-22,-11,-12,-14,-10,-28
15:36:11:101320,-31,27,-22,-11,-12,-14,-10,-28
15:36:11:102017,-46,10,1,-12,-15,-14,-26,-44
15:36:11:116206,21,-3,-9,12,7,2,11,10
15:36:11:117015,21,-3,-9,12,7,2,11,10
15:36:11:122994,-19,-5,-17,16,5,7,0,4
15:36:11:130537,9,-10,-30,16,-10,-5,-5,3
15:36:11:138125,9,-10,-30,16,-10,-5,-5,3
15:36:11:145478,27,-15,-36,14,70,16,9,21
15:36:11:153055,1,-5,-72,-31,-1,-7,2,16
15:36:11:161153,1,-5,-72,-31,-1,-7,2,16
15:36:11:161957,-4,7,96,-11,-24,5,9,-9
15:36:11:176220,27,-2,-15,-10,-3,-3,6,-9
15:36:11:177036,27,-2,-15,-10,-3,-3,6,-9
15:36:11:183053,0,5,4,-5,-4,1,-8,12
15:36:11:199146,-2,17,54,10,-11,-2,-7,-6
15:36:11:206255,-2,17,54,10,-11,-2,-7,-6
15:36:11:207034,14,-7,-1,4,0,0,2,-1
15:36:11:213011,41,3,3,-17,-13,-3,-8,-7
15:36:11:220594,41,3,3,-17,-13,-3,-8,-7
15:36:11:227994,-2,24,34,14,6,7,4,-7
15:36:11:236232,6,-8,14,3,9,16,10,21
15:36:11:237030,6,-8,14,3,9,16,10,21
15:36:11:243049,-1,0,16,-4,-20,-4,-8,-2
15:36:11:258693,-6,5,16,-5,0,6,-2,6
15:36:11:259508,-6,5,16,-5,0,6,-2,6
15:36:11:265559,-13,-10,-59,-10,17,14,2,-13
15:36:11:272979,11,-3,34,-25,-13,-5,0,7
15:36:11:280581,11,-3,34,-25,-13,-5,0,7
15:36:11:288046,-23,-31,-14,-2,-11,-13,0,2
15:36:11:296183,-27,-3,10,9,2,3,-4,-6
15:36:11:296989,-27,-3,10,9,2,3,-4,-6
15:36:11:302982,-7,9,-10,11,-22,-9,0,-14
15:36:11:318749,-4,-13,1,10,10,-5,-1,-8
15:36:11:319531,-4,-13,1,10,10,-5,-1,-8
15:36:11:325525,-5,12,-12,-4,-20,-14,7,1
15:36:11:341179,-9,-6,-1,15,11,-5,10,3
15:36:11:341981,-9,-6,-1,15,11,-5,10,3
15:36:11:348060,3,1,22,-1,0,-14,-5,7
15:36:11:356183,-7,-3,29,9,14,3,1,-8
15:36:11:357018,-7,-3,29,9,14,3,1,-8
15:36:11:363022,6,-17,39,-4,-10,-5,-8,15
15:36:11:378682,-9,-5,-51,-8,-8,-6,-7,-6
15:36:11:379472,-9,-5,-51,-8,-8,-6,-7,-6
15:36:11:385514,-8,-3,-12,7,44,24,-9,-9
15:36:11:401274,-4,-7,-65,-1,2,3,-4,-10
15:36:11:402016,-4,-7,-65,-1,2,3,-4,-10
15:36:11:408008,5,-3,-80,-23,-28,-19,-10,0
15:36:11:416152,10,-3,13,-8,-2,17,-2,-7
15:36:11:416939,10,-3,13,-8,-2,17,-2,-7
15:36:11:422988,-32,7,17,30,3,6,17,-6
15:36:11:438796,29,10,-57,-17,-37,-25,-5,1
15:36:11:439541,29,10,-57,-17,-37,-25,-5,1
15:36:11:445519,11,31,27,4,14,29,-19,0
15:36:11:453046,-23,-10,49,-1,1,-2,3,-4
15:36:11:460546,-23,-10,49,-1,1,-2,3,-4
15:36:11:468013,-5,-9,-3,-17,-35,-20,-8,-5
15:36:11:476183,3,-1,-9,15,-10,-4,0,10
15:36:11:477021,3,-1,-9,15,-10,-4,0,10
15:36:11:483016,-3,-10,-9,-17,12,-13,2,-3
15:36:11:498675,18,5,9,-4,-24,-3,-2,-8
15:36:11:499481,18,5,9,-4,-24,-3,-2,-8
15:36:11:505528,19,-15,28,-14,-7,3,-3,-11
15:36:11:513019,-14,-3,31,-9,-22,-13,3,-7
15:36:11:520546,-14,-3,31,-9,-22,-13,3,-7
15:36:11:527938,21,18,7,15,28,9,-1,5
15:36:11:536216,-30,0,3,-6,2,0,-9,-3
15:36:11:536973,-30,0,3,-6,2,0,-9,-3
15:36:11:542972,-8,-4,6,-4,-20,-14,16,0
15:36:11:558697,0,4,3,11,53,25,13,7
15:36:11:559510,0,4,3,11,53,25,13,7
15:36:11:565509,-14,0,-42,-30,-15,-8,0,1
15:36:11:572963,-5,-3,5,-10,2,7,-10,-6
15:36:11:580573,-5,-3,5,-10,2,7,-10,-6
15:36:11:587985,4,-25,-4,9,-10,0,-3,-3
15:36:11:596235,5,-2,27,1,4,-3,-1,7
15:36:11:597027,5,-2,27,1,4,-3,-1,7
15:36:11:603006,-2,8,3,-5,-9,8,5,8
15:36:11:618747,3,5,-19,7,-2,7,-20,8
15:36:11:619509,3,5,-19,7,-2,7,-20,8
15:36:11:625486,-6,-2,-31,6,-15,-19,-5,-4
15:36:11:632989,-8,-2,-3,-4,11,-6,0,9
15:36:11:640602,-8,-2,-3,-4,11,-6,0,9
15:36:11:648043,-8,-6,-26,-17,39,21,-4,-3
15:36:11:656258,-5,-8,8,12,-6,-8,4,0
15:36:11:657090,-5,-8,8,12,-6,-8,4,0
15:36:11:663019,-14,6,0,3,-10,-9,-1,8
15:36:11:678782,-14,6,0,3,-10,-9,-1,8
15:36:11:679543,-2,-2,6,-6,-5,8,13,-27
15:36:11:685513,6,0,4,16,27,16,1,-3
15:36:11:701310,6,0,4,16,27,16,1,-3
15:36:11:702045,3,-3,0,5,-5,-21,4,2
15:36:11:708015,14,3,4,-12,-25,-14,-11,-2
15:36:11:716304,14,3,4,-12,-25,-14,-11,-2
15:36:11:717032,-5,3,43,8,23,42,31,-1
15:36:11:723015,-3,-11,24,13,-1,-1,-4,2
15:36:11:738799,-3,-11,24,13,-1,-1,-4,2
15:36:11:739502,-7,4,3,-31,-21,-18,-9,-1
15:36:11:745480,1,0,-14,5,1,1,0,-1
15:36:11:769431,1,0,-14,5,1,1,0,-1
15:36:11:770148,11,-5,-32,1,10,2,2,9
15:36:11:771025,-5,2,32,6,4,-6,-5,-6
15:36:11:776198,-5,2,32,6,4,-6,-5,-6
15:36:11:776993,16,3,-7,-14,9,15,-2,13
15:36:11:782989,-16,0,1,4,-6,-4,5,-6
15:36:11:798719,-16,0,1,4,-6,-4,5,-6
15:36:11:799527,-9,-4,-67,-5,-25,-6,7,7
15:36:11:805555,-13,-1,-40,-13,-15,-10,-11,-28
15:36:11:821286,-13,-1,-40,-13,-15,-10,-11,-28
15:36:11:822047,-4,-3,-2,7,-13,-18,-15,-7
15:36:11:827990,3,-4,11,12,23,7,4,4
15:36:11:836262,3,-4,11,12,23,7,4,4
15:36:11:836997,-6,-1,-20,-1,-1,-10,-6,4
15:36:11:843024,16,-3,7,1,-20,-5,2,12
15:36:11:858804,16,-3,7,1,-20,-5,2,12
15:36:11:859555,-11,-4,59,-6,51,13,-4,-11
15:36:11:865526,-4,2,6,6,74,52,-10,-9
15:36:11:881286,-4,2,6,6,74,52,-10,-9
15:36:11:882040,-9,12,73,-5,-19,-13,6,10
15:36:11:888035,-1,-4,16,-7,-5,-10,6,8
15:36:11:896179,-1,-4,16,-7,-5,-10,6,8
15:36:11:896993,2,1,-7,-2,-14,-16,-12,-10
15:36:11:903033,8,5,-27,-1,-20,-4,8,9
15:36:11:918913,8,5,-27,-1,-20,-4,8,9
15:36:11:919545,-6,-8,-15,-1,-6,-3,5,8
15:36:11:925534,0,4,-2,-3,-5,-8,-11,-2
15:36:11:941255,0,4,-2,-3,-5,-8,-11,-2
15:36:11:942063,11,-4,-43,5,-24,4,-3,-3
15:36:11:948009,11,-1,12,0,27,-6,-3,-14
15:36:11:956268,11,-1,12,0,27,-6,-3,-14
15:36:11:957067,-4,-2,28,13,-29,20,-11,4
15:36:11:963014,-13,-2,-7,8,-30,-3,5,3
15:36:11:978801,-13,-2,-7,8,-30,-3,5,3
15:36:11:979521,-19,-14,11,-15,-12,-14,-15,-19
15:36:11:985499,-13,-7,-56,-12,10,1,-10,-13
15:36:12:1289,-13,-7,-56,-12,10,1,-10,-13
15:36:12:2018,8,5,13,17,-2,-4,-6,-5
15:36:12:8014,1,-5,-14,0,-3,-2,13,-12
15:36:12:16307,1,-5,-14,0,-3,-2,13,-12
15:36:12:17087,1,-6,-17,1,24,1,12,9
15:36:12:22992,9,8,11,16,15,11,31,13
15:36:12:38771,9,8,11,16,15,11,31,13
15:36:12:39532,-14,3,13,-9,-4,8,6,6
15:36:12:45478,-15,-3,8,-14,-64,-29,-15,-18
15:36:12:61216,-15,-3,8,-14,-64,-29,-15,-18
15:36:12:62013,16,4,-48,-5,-5,-7,-5,-6
15:36:12:68036,-14,-11,9,-1,-5,2,-4,9
15:36:12:76241,-14,-11,9,-1,-5,2,-4,9
15:36:12:77009,9,17,-27,13,19,-3,0,23
15:36:12:83084,5,-5,-22,-8,-17,-19,13,6
15:36:12:98775,5,-5,-22,-8,-17,-19,13,6
15:36:12:99503,1,-2,-24,-18,27,4,2,-6
15:36:12:105509,0,10,54,12,19,10,-5,29
15:36:12:121251,0,10,54,12,19,10,-5,29
15:36:12:122033,-14,-22,-15,-6,-28,-1,4,-20
15:36:12:127959,9,-17,-2,-12,-16,5,-6,-1
15:36:12:136346,9,-17,-2,-12,-16,5,-6,-1
15:36:12:137010,17,6,15,12,12,-13,-8,5
15:36:12:150647,-13,-1,5,4,15,4,4,12
15:36:12:158739,-13,-1,5,4,15,4,4,12
15:36:12:159510,-15,9,49,-1,7,-4,-11,-39
15:36:12:165495,6,9,-22,-14,-14,-14,-6,-1
15:36:12:181320,6,9,-22,-14,-14,-14,-6,-1
15:36:12:181984,-3,-6,-1,2,16,0,4,9
15:36:12:188009,0,-1,1,1,-23,-18,-44,-17
15:36:12:196209,0,-1,1,1,-23,-18,-44,-17
15:36:12:197019,7,1,19,4,49,3,-11,-8
15:36:12:210535,4,-5,-14,6,23,10,17,5
15:36:12:218810,4,-5,-14,6,23,10,17,5
15:36:12:219511,-11,-7,21,-26,-14,1,1,15
15:36:12:233749,13,-12,19,-4,-37,-4,-12,2
15:36:12:234486,13,-12,19,-4,-37,-4,-12,2
15:36:12:240517,5,-3,-6,10,6,1,-6,-9
15:36:12:248057,-10,11,-34,-16,3,5,8,-15
15:36:12:256192,-10,11,-34,-16,3,5,8,-15
15:36:12:257024,11,-2,-3,-5,-3,14,5,16
15:36:12:270522,-3,13,-11,-10,-5,-1,-7,-10
15:36:12:278718,-3,13,-11,-10,-5,-1,-7,-10
15:36:12:279468,-4,5,-47,3,28,-9,-5,10
15:36:12:285538,3,19,4,4,6,-6,10,6
15:36:12:293039,3,19,4,4,6,-6,10,6
15:36:12:300477,8,4,14,2,-42,-12,-3,3
15:36:12:307967,-7,-57,-33,9,30,18,-6,-5
15:36:12:316250,-7,-57,-33,9,30,18,-6,-5
15:36:12:317056,6,-20,-28,2,-22,-10,-6,-30
15:36:12:331015,-13,1,7,-5,21,-20,-2,1
15:36:12:338699,-13,1,7,-5,21,-20,-2,1
15:36:12:339496,3,10,-5,10,67,30,-29,-8
15:36:12:345506,-2,0,-21,-4,-42,3,4,-1
15:36:12:353035,-2,0,-21,-4,-42,3,4,-1
15:36:12:360473,2,14,-46,-13,-29,1,12,8
15:36:12:368025,7,3,5,18,-5,-4,-16,-5
15:36:12:376208,7,3,5,18,-5,-4,-16,-5
15:36:12:376997,-4,-16,33,-6,-36,-17,6,10
15:36:12:390472,-22,17,87,6,17,29,-3,-8
15:36:12:398777,-22,17,87,6,17,29,-3,-8
15:36:12:399430,-7,-32,15,-9,-24,-13,-6,12
15:36:12:405490,10,-10,-13,-19,81,5,10,8
15:36:12:413086,10,-10,-13,-19,81,5,10,8
15:36:12:420515,-11,24,8,21,1,12,7,-9
15:36:12:427955,6,11,-4,-4,-11,-7,-3,-3
15:36:12:436283,6,11,-4,-4,-11,-7,-3,-3
15:36:12:437055,2,0,-7,-6,-8,-9,10,2
15:36:12:450556,13,2,12,2,-10,4,8,-13
15:36:12:458789,13,2,12,2,-10,4,8,-13
15:36:12:459520,-38,-17,7,-11,-21,-17,3,-8
15:36:12:465495,-2,-1,6,12,20,-1,-4,5
15:36:12:473051,-2,-1,6,12,20,-1,-4,5
15:36:12:480562,10,-2,48,-14,-17,-4,-3,5
15:36:12:488003,0,1,-15,1,-25,-6,20,1
15:36:12:496220,0,1,-15,1,-25,-6,20,1
15:36:12:496948,-4,0,-6,5,25,19,15,-8
15:36:12:510493,13,-4,11,28,-21,1,6,18
15:36:12:518884,13,-4,11,28,-21,1,6,18
15:36:12:519600,-1,0,18,11,40,5,-16,-13
15:36:12:525541,-1,-8,-1,-16,-20,-8,-14,-17
15:36:12:533026,-1,-8,-1,-16,-20,-8,-14,-17
15:36:12:540501,3,7,-6,0,-32,5,14,23
15:36:12:548056,12,22,39,15,17,5,-5,3
15:36:12:556211,12,22,39,15,17,5,-5,3
15:36:12:556988,1,-16,-15,2,-9,-9,-10,-1
15:36:12:570530,-6,-17,-36,-7,-21,-16,-10,-5
15:36:12:578675,-6,-17,-36,-7,-21,-16,-10,-5
15:36:12:579461,6,-3,-18,3,-10,17,13,13
15:36:12:585569,-3,-4,11,0,-18,-7,-13,-15
15:36:12:593036,-3,-4,11,0,-18,-7,-13,-15
15:36:12:608675,-1,-4,33,20,50,5,6,-18
15:36:12:609482,-18,-7,-44,-15,-1,7,-22,-11
15:36:12:616241,-18,-7,-44,-15,-1,7,-22,-11
15:36:12:616988,4,22,22,23,-28,8,-10,-2
15:36:12:630555,-9,-8,-2,-6,-26,-11,8,7
15:36:12:638784,-9,-8,-2,-6,-26,-11,8,7
15:36:12:639570,-4,2,-28,-13,-16,5,7,-8
15:36:12:645500,2,-7,-12,-14,-12,-5,4,-3
15:36:12:653053,2,-7,-12,-14,-12,-5,4,-3
15:36:12:660490,10,-18,-35,-13,-3,-25,-5,-5
15:36:12:668105,1,-18,-12,-19,30,12,-1,-4
15:36:12:676195,1,-18,-12,-19,30,12,-1,-4
15:36:12:676980,-21,-3,-35,-14,-29,-25,3,2
15:36:12:690569,-1,-16,-10,13,37,-5,44,9
15:36:12:698762,-1,-16,-10,13,37,-5,44,9
15:36:12:699476,-15,-4,-13,1,61,-1,-5,4
15:36:12:705535,-6,15,-31,-19,-25,-7,-1,5
15:36:12:713040,-6,15,-31,-19,-25,-7,-1,5
15:36:12:720513,15,6,-10,0,0,24,3,-3
15:36:12:727938,4,11,-4,-17,-23,10,-11,-32
15:36:12:736295,4,11,-4,-17,-23,10,-11,-32
15:36:12:737030,1,23,-13,18,-45,-12,-21,-3
15:36:12:750611,9,-1,7,9,-5,-7,1,10
15:36:12:758679,9,-1,7,9,-5,-7,1,10
15:36:12:759509,-11,14,26,14,13,7,-5,13
15:36:12:773718,1,16,-34,4,19,8,12,15
15:36:12:774514,1,16,-34,4,19,8,12,15
15:36:12:780542,2,-25,-1,2,12,-12,-32,-15
15:36:12:788036,-3,5,25,-8,-6,-14,5,-2
15:36:12:796166,-3,5,25,-8,-6,-14,5,-2
15:36:12:797007,3,-19,-7,-19,-10,-9,6,-22
15:36:12:810509,-7,8,28,12,36,12,-20,-26
15:36:12:818762,-7,8,28,12,36,12,-20,-26
15:36:12:819507,1,-2,13,-6,-10,-6,-2,-10
15:36:12:825532,14,-8,23,12,-16,7,6,20
15:36:12:833082,14,-8,23,12,-16,7,6,20
15:36:12:840486,4,-9,12,-13,-13,-21,6,6
15:36:12:848050,-7,-6,-25,-17,2,2,-2,3
15:36:12:856257,-7,-6,-25,-17,2,2,-2,3
15:36:12:857029,6,-23,-13,2,-12,-7,10,9
15:36:12:870528,-9,-19,19,20,0,-7,8,14
15:36:12:878721,-9,-19,19,20,0,-7,8,14
15:36:12:879535,-8,4,0,-11,31,18,-17,-23
15:36:12:885513,13,9,-11,0,23,2,3,8
15:36:12:893047,13,9,-11,0,23,2,3,8
15:36:12:900540,-1,9,-61,-7,-21,-6,-1,7
15:36:12:908003,-11,7,29,-7,4,5,-4,-11
15:36:12:916237,-11,7,29,-7,4,5,-4,-11
15:36:12:917022,7,13,14,-1,3,20,9,6
15:36:12:930484,-1,-2,-6,0,0,-3,0,6
15:36:12:938787,-1,-2,-6,0,0,-3,0,6
15:36:12:939531,-1,1,9,-1,15,-1,-2,7
15:36:12:945518,5,6,-36,-15,-31,-17,-14,-13
15:36:12:953126,5,6,-36,-15,-31,-17,-14,-13
15:36:12:968694,-22,-12,34,6,5,-11,-9,-3
15:36:12:969438,-10,-7,-25,2,-16,-13,-16,7
15:36:12:976219,-10,-7,-25,2,-16,-13,-16,7
15:36:12:976987,12,5,27,-8,-3,-3,-3,-22
15:36:12:990455,-2,0,25,3,-34,-13,-19,-20
15:36:13:6876,-2,0,25,3,-34,-13,-19,-20
15:36:13:7654,-2,-4,-15,-12,30,18,11,27
15:36:13:8460,2,-16,-98,-19,-44,-31,-10,2
15:36:13:13040,2,-16,-98,-19,-44,-31,-10,2
15:36:13:20476,11,8,8,-8,-12,-1,9,-37
15:36:13:27946,-5,-4,30,-1,23,26,2,-4
15:36:13:36206,-5,-4,30,-1,23,26,2,-4
15:36:13:37009,8,10,-17,-7,-28,-10,4,-12
15:36:13:50556,5,11,15,2,-8,1,-1,-6
15:36:13:59117,5,11,15,2,-8,1,-1,-6
15:36:13:66111,10,30,19,24,64,17,46,32
15:36:13:66929,0,11,42,9,13,4,16,15
15:36:13:73029,0,11,42,9,13,4,16,15
15:36:13:80532,4,-2,-17,1,-23,-6,-21,-2
15:36:13:87972,-2,8,-5,13,17,4,2,16
15:36:13:95531,-2,8,-5,13,17,4,2,16
15:36:13:102993,-15,-22,9,12,-11,-18,-12,-2
15:36:13:110477,1,-42,22,13,-8,12,0,2
15:36:13:118830,1,-42,22,13,-8,12,0,2
15:36:13:119511,2,7,5,6,4,-4,-9,13
15:36:13:133726,-7,18,-26,-28,-19,-13,0,-3
15:36:13:134509,-7,18,-26,-28,-19,-13,0,-3
15:36:13:140494,-6,23,14,18,3,7,-8,6
15:36:13:148045,-5,8,13,-4,13,2,6,11
15:36:13:163740,-5,8,13,-4,13,2,6,11
15:36:13:164527,9,3,-9,-18,-16,13,2,15
15:36:13:170483,-5,-13,-14,-1,-6,-4,-34,-20
15:36:13:178754,-5,-13,-14,-1,-6,-4,-34,-20
15:36:13:179520,-12,-18,-8,-4,-26,-11,2,-5
15:36:13:193694,-5,-11,8,13,31,12,-19,-29
15:36:13:194520,-5,-11,8,13,31,12,-19,-29
15:36:13:200533,8,-5,-10,8,-8,-8,6,-6
15:36:13:207965,-2,1,-23,8,17,-1,3,-6
15:36:13:215579,-2,1,-23,8,17,-1,3,-6
15:36:13:222999,-3,-7,12,-3,-2,1,-4,-12
15:36:13:230513,-4,9,-6,-12,6,4,14,13
15:36:13:238777,-4,9,-6,-12,6,4,14,13
15:36:13:239515,-17,-6,-32,-11,-17,-13,-2,2
15:36:13:253764,-11,0,41,9,27,-1,10,-1
15:36:13:254557,-11,0,41,9,27,-1,10,-1
15:36:13:260447,-2,1,7,0,-15,-13,-9,-17
15:36:13:268044,7,8,5,1,-9,1,12,12
15:36:13:275555,7,8,5,1,-9,1,12,12
15:36:13:283027,-2,-1,4,-18,8,28,8,5
15:36:13:290499,1,-2,-4,-2,17,14,15,-2
15:36:13:298716,1,-2,-4,-2,17,14,15,-2
15:36:13:299516,4,2,7,19,-11,15,7,2
15:36:13:312993,-2,6,15,15,-5,-6,-4,-8
15:36:13:321251,-2,6,15,15,-5,-6,-4,-8
15:36:13:322076,-7,-33,-41,-1,-27,-4,-2,25
15:36:13:327998,-22,-5,6,-5,33,4,12,13
15:36:13:335581,-22,-5,6,-5,33,4,12,13
15:36:13:343003,7,2,11,-17,24,-9,-1,-5
15:36:13:350556,14,4,3,6,-27,-17,-13,-5
15:36:13:358707,14,4,3,6,-27,-17,-13,-5
15:36:13:359484,-20,3,4,19,26,-2,5,-15
15:36:13:373034,2,-4,4,-8,-17,-9,-9,-13
15:36:13:381185,2,-4,4,-8,-17,-9,-9,-13
15:36:13:381987,3,3,-42,20,-6,-2,1,14
15:36:13:388027,3,36,15,-8,-8,2,-2,-2
15:36:13:395541,3,36,15,-8,-8,2,-2,-2
15:36:13:403104,-28,-7,21,-2,-37,-12,-7,-19
15:36:13:410449,16,2,-1,7,-25,-5,0,6
15:36:13:418771,16,2,-1,7,-25,-5,0,6
15:36:13:419509,19,12,20,-21,-35,-26,-3,3
15:36:13:433034,13,-4,8,1,72,30,2,10
15:36:13:441229,13,-4,8,1,72,30,2,10
15:36:13:441994,-1,0,7,-15,-24,-7,-15,-34
15:36:13:448028,-6,-14,-17,-9,-13,-1,2,-4
15:36:13:455573,-6,-14,-17,-9,-13,-1,2,-4
15:36:13:462987,-3,-1,-18,-8,16,5,-12,-24
15:36:13:470462,-1,-14,8,-9,-27,-12,-5,-30
15:36:13:478763,-1,-14,8,-9,-27,-12,-5,-30
15:36:13:479584,6,-29,-14,-13,5,14,-3,22
15:36:13:493695,5,-2,-11,-14,-59,-31,5,16
15:36:13:494508,5,-2,-11,-14,-59,-31,5,16
15:36:13:500573,0,13,-3,21,59,13,20,-12
15:36:13:508040,-7,-17,-6,-20,-4,-7,15,17
15:36:13:515573,-7,-17,-6,-20,-4,-7,15,17
15:36:13:523018,4,6,19,-13,-8,-10,-7,10
15:36:13:530518,-6,0,-10,21,28,9,-10,5
15:36:13:538829,-6,0,-10,21,28,9,-10,5
15:36:13:539581,2,-3,5,-1,38,22,-12,1
15:36:13:553774,-10,-3,-5,-13,-33,-1,-15,0
15:36:13:554582,-10,-3,-5,-13,-33,-1,-15,0
15:36:13:560508,1,-4,0,-8,-12,-10,8,9
15:36:13:568095,1,6,4,18,35,17,-11,2
15:36:13:575612,1,6,4,18,35,17,-11,2
15:36:13:583037,11,5,6,-8,-17,-12,-13,-5
15:36:13:590466,-24,-10,-52,-10,-9,3,3,-33
15:36:13:598727,-24,-10,-52,-10,-9,3,3,-33
15:36:13:599507,-4,7,-3,6,-7,-21,-7,-1
15:36:13:613671,7,7,76,38,8,3,4,9
15:36:13:614543,7,7,76,38,8,3,4,9
15:36:13:620545,-7,20,4,14,-8,2,7,-6
15:36:13:627964,-4,1,0,-19,-26,-1,6,13
15:36:13:635604,-4,1,0,-19,-26,-1,6,13
15:36:13:643022,7,-10,-7,-14,-4,1,10,12
15:36:13:650578,5,-8,-83,-3,-10,5,-4,-6
15:36:13:658726,5,-8,-83,-3,-10,5,-4,-6
15:36:13:659512,0,-2,-8,7,6,2,2,0
15:36:13:673703,2,2,14,-8,12,0,1,-4
15:36:13:674495,2,2,14,-8,12,0,1,-4
15:36:13:680489,-8,-3,18,12,-12,5,1,-7
15:36:13:688033,12,2,6,20,32,4,0,-7
15:36:13:695552,12,2,6,20,32,4,0,-7
15:36:13:703020,-2,-13,-38,-8,-9,-8,-35,8
15:36:13:710435,6,10,4,1,4,-6,8,10
15:36:13:718781,6,10,4,1,4,-6,8,10
15:36:13:719544,-5,-24,-34,-8,-13,-2,8,6
15:36:13:733739,18,-5,-35,-5,26,17,-2,4
15:36:13:734504,18,-5,-35,-5,26,17,-2,4
15:36:13:740483,0,-12,-19,-24,-3,-10,-9,-20
15:36:13:748004,-7,6,24,-5,16,-5,-11,3
15:36:13:755550,-7,6,24,-5,16,-5,-11,3
15:36:13:763026,-5,-2,12,15,6,8,-5,10
15:36:13:770493,1,0,26,3,-37,-24,-12,8
15:36:13:778768,1,0,26,3,-37,-24,-12,8
15:36:13:779541,7,22,27,-17,36,20,10,13
15:36:13:793712,0,7,6,1,-12,2,-5,-11
15:36:13:794521,0,7,6,1,-12,2,-5,-11
15:36:13:800496,0,-2,27,-8,-9,4,-19,-17
15:36:13:807955,-24,-11,5,-6,-12,-4,8,-7
15:36:13:815615,-24,-11,5,-6,-12,-4,8,-7
15:36:13:823037,-21,-20,9,-1,-1,1,38,23
15:36:13:830557,-14,1,-13,11,-8,-13,-8,-13
15:36:13:838729,-14,1,-13,11,-8,-13,-8,-13
15:36:13:839478,-7,33,-2,9,20,9,26,10
15:36:13:853728,5,0,18,-1,-16,5,7,-8
15:36:13:854538,5,0,18,-1,-16,5,7,-8
15:36:13:860477,-3,-8,-9,10,27,-10,0,-1
15:36:13:868074,5,3,-6,-10,-18,-13,-4,-6
15:36:13:875559,5,3,-6,-10,-18,-13,-4,-6
15:36:13:883005,-11,0,-32,-1,-29,-10,11,24
15:36:13:890480,11,7,16,0,12,12,0,-18
15:36:13:898735,11,7,16,0,12,12,0,-18
15:36:13:899486,7,5,11,0,-3,-11,-33,-36
15:36:13:913064,-7,-16,-6,15,-14,-2,-4,20
15:36:13:921219,-7,-16,-6,15,-14,-2,-4,20
15:36:13:922010,-3,0,-8,-17,13,19,-4,-18
15:36:13:927967,-2,-7,3,-2,7,-16,-9,2
15:36:13:935618,-2,-7,3,-2,7,-16,-9,2
15:36:13:943017,-7,-7,17,0,22,1,-9,-2
15:36:13:950613,-23,-3,-5,-15,-25,-2,9,-3
15:36:13:958721,-23,-3,-5,-15,-25,-2,9,-3
15:36:13:959508,12,-21,24,9,20,1,3,-41
15:36:13:973702,-30,-6,-17,-1,8,-6,-8,-17
15:36:13:974525,-30,-6,-17,-1,8,-6,-8,-17
15:36:13:980515,10,16,7,-6,-27,-19,-6,11
15:36:13:988034,0,-4,4,0,-7,6,9,17
15:36:13:995554,0,-4,4,0,-7,6,9,17
15:36:14:3089,4,-9,-4,18,45,3,20,18
15:36:14:10493,6,3,-18,-8,0,-7,-1,4
15:36:14:18775,6,3,-18,-8,0,-7,-1,4
15:36:14:19575,-1,-7,-30,-6,-5,-2,22,7
15:36:14:33750,8,2,15,-1,-1,6,33,8
15:36:14:34513,8,2,15,-1,-1,6,33,8
15:36:14:40482,-3,-4,-43,-2,-12,-7,-29,-24
15:36:14:56198,12,0,-19,-15,-17,-2,-25,-12
15:36:14:56996,12,0,-19,-15,-17,-2,-25,-12
15:36:14:62972,-2,-16,-16,-7,-8,-19,1,2
15:36:14:70492,8,16,29,-6,-18,27,-4,-5
15:36:14:78037,8,16,29,-6,-18,27,-4,-5
15:36:14:85501,7,16,35,4,-11,13,6,13
15:36:14:93690,-3,-10,-17,-19,27,-10,-3,-8
15:36:14:94518,-3,-10,-17,-19,27,-10,-3,-8
15:36:14:100546,-10,7,15,-12,-18,-7,-8,-9
15:36:14:116215,9,-1,-15,2,47,14,4,1
15:36:14:117035,9,-1,-15,2,47,14,4,1
15:36:14:122985,-17,12,17,20,-6,-3,-22,-9
15:36:14:130515,-19,-8,16,7,-20,-15,-3,10
15:36:14:138071,-19,-8,16,7,-20,-15,-3,10
15:36:14:145499,4,-1,-12,7,21,25,-5,-2
15:36:14:153721,5,-1,-7,0,40,19,6,-2
15:36:14:154612,5,-1,-7,0,40,19,6,-2
15:36:14:160484,10,1,-6,-35,-41,-20,13,22
15:36:14:176247,-1,-21,6,24,11,-25,-4,-2
15:36:14:177026,-1,-21,6,24,11,-25,-4,-2
15:36:14:183045,-5,-4,47,13,4,7,-3,8
15:36:14:190502,-2,-13,-25,-20,-47,-18,-12,-3
15:36:14:198163,-2,-13,-25,-20,-47,-18,-12,-3
15:36:14:205512,6,5,-33,18,15,4,-5,7
15:36:14:213680,-1,6,17,5,-7,-7,-19,-18
15:36:14:214507,-1,6,17,5,-7,-7,-19,-18
15:36:14:220566,2,-1,1,7,56,17,-11,-1
15:36:14:236214,-5,-9,-7,8,-27,-15,9,13
15:36:14:236936,-5,-9,-7,8,-27,-15,9,13
15:36:14:243021,6,-7,17,-4,-42,-13,3,5
15:36:14:250556,15,0,-35,-13,44,23,2,-7
15:36:14:258045,15,0,-35,-13,44,23,2,-7
15:36:14:265531,2,4,-5,-6,-5,0,-10,-15
15:36:14:273685,2,27,26,-9,-22,-11,-11,13
15:36:14:274545,2,27,26,-9,-22,-11,-11,13
15:36:14:280591,2,-18,-23,-2,-3,0,3,-4
15:36:14:296247,2,0,-4,-14,-5,-1,4,9
15:36:14:297024,2,0,-4,-14,-5,-1,4,9
15:36:14:303111,10,20,6,10,-18,-21,4,-1
15:36:14:310577,-16,-16,-11,6,14,7,-7,-8
15:36:14:318099,-16,-16,-11,6,14,7,-7,-8
15:36:14:325509,-9,-13,-24,-1,-10,-3,2,-12
15:36:14:333728,3,4,-6,-17,-20,-3,3,-2
15:36:14:334525,3,4,-6,-17,-20,-3,3,-2
15:36:14:340470,-15,30,6,-3,-10,4,27,27
15:36:14:356209,-3,4,25,-6,-15,-9,13,-8
15:36:14:357024,-3,4,25,-6,-15,-9,13,-8
15:36:14:362997,-2,-72,-18,0,38,17,-9,8
15:36:14:370527,7,4,-41,18,21,16,6,12
15:36:14:378075,7,4,-41,18,21,16,6,12
15:36:14:385530,1,21,27,5,-10,-7,-5,-1
15:36:14:393697,4,2,-22,-13,-9,-25,-12,-9
15:36:14:394533,4,2,-22,-13,-9,-25,-12,-9
15:36:14:400557,-1,15,7,4,68,21,1,-7
15:36:14:416182,2,17,14,-2,-20,0,-12,-10
15:36:14:417060,2,17,14,-2,-20,0,-12,-10
15:36:14:423001,10,12,18,-21,-45,-10,-19,-6
15:36:14:430531,-25,-24,19,31,16,7,2,-9
15:36:14:438091,-25,-24,19,31,16,7,2,-9
15:36:14:445538,2,-9,-27,5,-12,-5,2,-4
15:36:14:453703,7,3,19,-28,-33,5,7,14
15:36:14:454495,7,3,19,-28,-33,5,7,14
15:36:14:460483,-12,9,-4,4,32,-6,-9,-16
15:36:14:476212,-1,-3,-3,-16,10,-5,7,-10
15:36:14:477055,-1,-3,-3,-16,10,-5,7,-10
15:36:14:483038,-8,-3,0,-2,-38,-18,13,8
15:36:14:490521,9,-25,-10,13,9,-4,-8,3
15:36:14:498119,9,-25,-10,13,9,-4,-8,3
15:36:14:505487,-10,21,41,5,15,9,-45,-26
15:36:14:513670,-18,26,-12,3,1,2,5,24
15:36:14:514479,-18,26,-12,3,1,2,5,24
15:36:14:520511,2,-25,-4,-19,-23,-6,4,0
15:36:14:536265,14,-35,-63,-9,16,11,0,-10
15:36:14:536992,14,-35,-63,-9,16,11,0,-10
15:36:14:543008,-8,7,3,2,-19,0,5,1
15:36:14:550594,4,-14,28,-1,-3,-6,10,20
15:36:14:558096,4,-14,28,-1,-3,-6,10,20
15:36:14:565550,7,-13,-36,-1,23,19,10,-16
15:36:14:573705,-12,7,3,14,23,3,-9,-21
15:36:14:574516,-12,7,3,14,23,3,-9,-21
15:36:14:580494,6,1,-12,-1,-6,-16,-2,7
15:36:14:596242,0,6,-13,-1,38,17,-8,-13
15:36:14:596995,0,6,-13,-1,38,17,-8,-13
15:36:14:602991,21,16,45,17,-19,-8,19,15
15:36:14:610496,-9,-8,-25,-35,-40,-15,-1,-6
15:36:14:618079,-9,-8,-25,-35,-40,-15,-1,-6
15:36:14:625505,-17,-41,-4,-15,5,20,-9,-21
15:36:14:633714,-6,7,35,8,-17,5,5,-6
15:36:14:634576,-6,7,35,8,-17,5,5,-6
15:36:14:640471,-4,23,-7,-10,-7,-13,-5,23
15:36:14:656233,4,-1,23,19,-3,6,1,1
15:36:14:657058,4,-1,23,19,-3,6,1,1
15:36:14:663012,2,5,-16,10,14,-8,24,13
15:36:14:670490,-3,5,2,-8,-4,-1,-22,-27
15:36:14:678065,-3,5,2,-8,-4,-1,-22,-27
15:36:14:685521,19,-48,-39,-19,11,19,16,1
15:36:14:693693,11,9,47,11,-33,-25,-14,-8
15:36:14:694504,11,9,47,11,-33,-25,-14,-8
15:36:14:700524,-12,4,-11,-8,-2,-14,10,-7
15:36:14:716214,13,1,-1,7,-10,-10,-9,16
15:36:14:717012,13,1,-1,7,-10,-10,-9,16
15:36:14:722971,-15,25,-20,11,-17,-9,1,-2
15:36:14:730531,-11,0,14,24,26,-7,-1,-23
15:36:14:738050,-11,0,14,24,26,-7,-1,-23
15:36:14:745514,14,-10,45,4,55,19,-14,-1
15:36:14:753719,15,-2,-58,-19,-7,7,11,16
15:36:14:754476,15,-2,-58,-19,-7,7,11,16
15:36:14:760522,-1,3,25,-2,-28,3,-44,-6
15:36:14:776219,8,32,30,-1,25,5,1,-5
15:36:14:777092,8,32,30,-1,25,5,1,-5
15:36:14:783023,-4,-3,-42,-8,-74,-13,25,6
15:36:14:790538,1,-11,14,-9,-23,-6,1,17
15:36:14:798149,1,-11,14,-9,-23,-6,1,17
15:36:14:805514,-8,-14,20,7,21,8,-15,-15
15:36:14:813720,-34,2,1,11,-24,-11,13,-31
15:36:14:814533,-34,2,1,11,-24,-11,13,-31
15:36:14:820555,-14,-6,2,4,-2,-4,-11,-17
15:36:14:836283,14,8,12,-18,52,57,-8,16
15:36:14:837013,14,8,12,-18,52,57,-8,16
15:36:14:843002,-1,1,-12,-20,0,1,9,-3
15:36:14:850550,2,8,14,10,-26,-16,20,16
15:36:14:858069,2,8,14,10,-26,-16,20,16
15:36:14:865479,-14,-5,10,-2,23,-6,20,-2
15:36:14:873724,14,-21,-87,-6,-24,0,-10,-6
15:36:14:874538,14,-21,-87,-6,-24,0,-10,-6
15:36:14:880568,13,20,-46,15,5,3,13,20
15:36:14:896192,-6,0,-34,-7,-26,-14,-4,-18
15:36:14:897023,-6,0,-34,-7,-26,-14,-4,-18
15:36:14:902981,0,-19,-32,-16,-1,1,-43,-23
15:36:14:910516,11,1,41,18,9,19,2,12
15:36:14:918091,11,1,41,18,9,19,2,12
15:36:14:925501,-12,-5,29,-5,-2,-9,-17,8
15:36:14:933692,-2,-12,7,-16,-5,-20,-16,-16
15:36:14:934530,-2,-12,7,-16,-5,-20,-16,-16
15:36:14:940481,-2,7,1,20,7,4,5,8
15:36:14:956208,3,-1,5,8,34,-1,-3,21
15:36:14:957014,3,-1,5,8,34,-1,-3,21
15:36:14:962981,-4,-27,-20,-3,-13,-13,-4,0
15:36:14:970473,-9,27,-4,-11,16,-8,-29,-35
15:36:14:978036,-9,27,-4,-11,16,-8,-29,-35
15:36:14:994329,15,41,73,10,3,-6,5,16
15:36:14:995122,-5,13,17,-6,11,8,11,2
15:36:14:995997,-5,13,17,-6,11,8,11,2
15:36:15:8035,13,10,-31,-3,-20,-4,28,-20
15:36:15:16206,-15,-18,-45,-22,-1,-4,14,24
15:36:15:17039,-15,-18,-45,-22,-1,-4,14,24
15:36:15:22959,16,-2,28,-13,-37,-7,-8,8
15:36:15:38752,16,-2,28,-13,-37,-7,-8,8
15:36:15:39553,-6,-18,17,-17,6,10,23,8
15:36:15:45541,-9,-3,-55,2,10,-2,9,-4
15:36:15:53066,-9,-3,-55,2,10,-2,9,-4
15:36:15:60453,-4,-8,25,-2,-33,-26,16,8
15:36:15:68051,-26,58,35,-7,14,15,-7,-40
15:36:15:76254,-26,58,35,-7,14,15,-7,-40
15:36:15:77025,-25,-49,-9,9,-15,-3,-24,-26
15:36:15:83008,-30,-15,25,-4,-32,-17,-20,10
15:36:15:106901,-30,-15,25,-4,-32,-17,-20,10
15:36:15:107692,2,4,2,9,1,-4,-6,1
15:36:15:108450,4,7,4,23,15,13,23,-2
15:36:15:113737,4,7,4,23,15,13,23,-2
15:36:15:114516,14,2,18,12,19,4,3,8
15:36:15:128011,-2,-10,-6,-15,-23,-14,-4,8
15:36:15:136233,-2,-10,-6,-15,-23,-14,-4,8
15:36:15:136979,-2,6,-7,5,-5,16,-4,9
15:36:15:143034,15,-26,-7,3,2,21,4,21
15:36:15:158821,15,-26,-7,3,2,21,4,21
15:36:15:159468,6,37,-5,9,-6,-5,-24,-16
15:36:15:165556,6,-6,18,-7,-12,-18,-3,-33
15:36:15:173674,6,-6,18,-7,-12,-18,-3,-33
15:36:15:174468,13,21,35,16,21,-1,-10,1
15:36:15:188039,14,2,40,3,24,-4,3,-1
15:36:15:196212,14,2,40,3,24,-4,3,-1
15:36:15:197009,0,-11,-34,-2,18,1,2,-5
15:36:15:203021,1,-12,-20,-9,3,11,1,7
15:36:15:218787,1,-12,-20,-9,3,11,1,7
15:36:15:219537,1,-14,13,6,18,4,8,19
15:36:15:225512,19,51,32,-12,-14,-4,84,45
15:36:15:233854,19,51,32,-12,-14,-4,84,45
15:36:15:234618,-19,2,14,-5,-13,-2,-30,-51
15:36:15:248049,-17,12,-2,3,-2,-6,-29,-31
15:36:15:256229,-17,12,-2,3,-2,-6,-29,-31
15:36:15:257036,-9,-20,-33,-29,-21,-18,12,10
15:36:15:263023,2,-33,-6,-3,-8,3,-26,-4
15:36:15:278694,2,-33,-6,-3,-8,3,-26,-4
15:36:15:279480,-3,-11,-34,13,38,35,-10,-3
15:36:15:285504,-4,-10,-37,-10,-19,-8,-6,9
15:36:15:301253,-4,-10,-37,-10,-19,-8,-6,9
15:36:15:301990,-5,4,14,-13,-16,-3,17,32
15:36:15:307991,0,-12,-77,8,4,-2,2,-4
15:36:15:316205,0,-12,-77,8,4,-2,2,-4
15:36:15:317007,-13,-43,-19,10,12,-4,59,16
15:36:15:322998,-10,-14,-34,-4,7,-3,-20,-13
15:36:15:338726,-10,-14,-34,-4,7,-3,-20,-13
15:36:15:339504,5,9,33,15,-16,-10,-20,12
15:36:15:345495,6,-6,7,-1,-32,-54,-2,4
15:36:15:361189,6,-6,7,-1,-32,-54,-2,4
15:36:15:361986,6,18,44,18,79,25,-12,-43
15:36:15:367976,-3,-5,5,3,0,1,-38,-13
15:36:15:376218,-3,-5,5,3,0,1,-38,-13
15:36:15:376989,-1,6,-12,5,-25,-9,-10,3
15:36:15:383021,-5,4,18,-11,-2,-7,-89,-21
15:36:15:398736,-5,4,18,-11,-2,-7,-89,-21
15:36:15:399523,0,-23,11,0,-16,6,23,9
15:36:15:405495,10,-5,-4,0,10,12,12,24
15:36:15:421180,10,-5,-4,0,10,12,12,24
15:36:15:421996,0,13,-50,-18,-26,-16,-14,-5
15:36:15:427971,-1,6,-1,-6,-3,4,16,0
15:36:15:436255,-1,6,-1,-6,-3,4,16,0
15:36:15:437034,2,-8,7,30,-23,-17,4,-11
15:36:15:442979,-5,-7,7,-3,31,16,19,-29
15:36:15:466922,-5,-7,7,-3,31,16,19,-29
15:36:15:467722,-5,4,9,-30,-32,-6,-22,13
15:36:15:468534,-8,7,-2,0,3,7,-6,-10
15:36:15:473046,-8,7,-2,0,3,7,-6,-10
15:36:15:480548,-1,3,-25,-2,10,1,-37,-11
15:36:15:488042,0,-67,-59,-5,-2,-1,47,20
15:36:15:496211,0,-67,-59,-5,-2,-1,47,20
15:36:15:497024,28,9,0,-15,-11,-6,-26,11
15:36:15:503021,-7,7,12,8,-1,-11,-12,-5
15:36:15:518794,-7,7,12,8,-1,-11,-12,-5
15:36:15:519468,16,4,23,2,-34,50,23,25
15:36:15:533699,-6,14,42,-4,-8,7,5,-18
15:36:15:534476,-6,14,42,-4,-8,7,5,-18
15:36:15:540520,-13,-1,-10,-9,-67,-36,-12,-6
15:36:15:548074,7,-1,-16,-5,8,19,-10,23
15:36:15:557308,7,-1,-16,-5,8,19,-10,23
15:36:15:563709,-4,-43,-28,-7,5,-5,3,-8
15:36:15:564477,-3,2,-7,9,7,-6,-3,-6
15:36:15:578674,-3,2,-7,9,7,-6,-3,-6
15:36:15:579450,-5,9,-24,-5,15,-8,-3,-6
15:36:15:585573,8,8,-11,2,-3,-22,-30,13
15:36:15:593037,8,8,-11,2,-3,-22,-30,13
15:36:15:600580,-5,10,5,1,107,47,1,-5
15:36:15:608009,-1,4,27,-19,-1,15,2,-1
15:36:15:624379,-1,4,27,-19,-1,15,2,-1
15:36:15:625153,-8,13,-27,-13,-44,-25,-7,-17
15:36:15:625962,-11,10,41,-2,-8,8,-4,-19
15:36:15:646940,-11,10,41,-2,-8,8,-4,-19
15:36:15:647653,14,18,-7,11,-6,-21,42,16
15:36:15:648467,2,1,-10,6,-22,-5,15,4
15:36:15:653104,2,1,-10,6,-22,-5,15,4
15:36:15:660467,-10,-14,-13,15,37,15,13,4
15:36:15:668106,-4,1,-30,-2,7,-16,0,6
15:36:15:676224,-4,1,-30,-2,7,-16,0,6
15:36:15:677034,7,7,17,-16,-11,-7,6,13
15:36:15:683026,-15,-16,10,-4,36,6,4,-6
15:36:15:698811,-15,-16,10,-4,36,6,4,-6
15:36:15:699506,-9,3,-29,3,7,2,-1,-23
15:36:15:705514,11,-11,29,7,-7,1,-10,-40
15:36:15:713091,11,-11,29,7,-7,1,-10,-40
15:36:15:720519,-15,-7,5,-8,-17,-11,-29,-10
15:36:15:728007,21,5,5,-7,-27,-5,61,21
15:36:15:736178,21,5,5,-7,-27,-5,61,21
15:36:15:736971,2,-18,-1,-4,-3,-16,16,5
15:36:15:743012,0,11,3,0,48,25,1,13
15:36:15:758838,0,11,3,0,48,25,1,13
15:36:15:759447,0,-8,42,0,10,17,3,28
15:36:15:765547,-3,-8,3,-6,-52,-14,35,12
15:36:15:773047,-3,-8,3,-6,-52,-14,35,12
15:36:15:780560,0,-3,1,25,1,-13,8,13
15:36:15:788032,-16,38,2,9,9,1,-33,-10
15:36:15:796239,-16,38,2,9,9,1,-33,-10
15:36:15:797056,-22,0,20,10,-10,-4,-4,-6
15:36:15:802988,11,-17,-20,2,-16,1,-29,-9
15:36:15:818789,11,-17,-20,2,-16,1,-29,-9
15:36:15:819561,7,16,0,3,3,-2,0,-5
15:36:15:825526,-8,-11,-20,-8,15,-24,-37,-6
15:36:15:841224,-8,-11,-20,-8,15,-24,-37,-6
15:36:15:842023,7,6,28,15,36,15,-6,-4
15:36:15:848022,11,-1,-64,4,-9,15,-1,-16
15:36:15:856208,11,-1,-64,4,-9,15,-1,-16
15:36:15:856984,-4,-34,-40,-20,-51,-25,3,-12
15:36:15:862979,0,-4,30,5,4,-3,-7,15
15:36:15:878690,0,-4,30,5,4,-3,-7,15
15:36:15:879500,4,12,3,4,-2,7,6,14
15:36:15:885549,-12,-8,-35,-6,-9,-3,37,11
15:36:15:893022,-12,-8,-35,-6,-9,-3,37,11
15:36:15:900547,13,3,-5,15,30,7,-3,-16
15:36:15:907972,-1,-23,-37,1,-8,-8,11,-4
15:36:15:916196,-1,-23,-37,1,-8,-8,11,-4
15:36:15:917039,-4,10,46,-13,29,0,-7,-16
15:36:15:930582,-15,15,16,13,-6,7,-20,-7
15:36:15:938724,-15,15,16,13,-6,7,-20,-7
15:36:15:939505,-3,-1,-2,-12,-12,-9,-43,-15
15:36:15:945453,-4,12,41,-7,-7,-6,-11,4
15:36:15:953092,-4,12,41,-7,-7,-6,-11,4
15:36:15:960472,5,5,-10,-10,-36,-15,15,3
15:36:15:968037,3,-7,-1,-14,10,-2,4,15
15:36:15:976200,3,-7,-1,-14,10,-2,4,15
15:36:15:977017,-7,-4,-75,-30,-4,-1,-13,-3
15:36:15:990502,4,2,-16,13,35,16,11,24
15:36:15:998720,4,2,-16,13,35,16,11,24
15:36:15:999486,9,-19,69,-1,-25,1,24,39
15:36:16:5496,-9,19,4,2,5,7,25,-26
15:36:16:13069,-9,19,4,2,5,7,25,-26
15:36:16:20487,4,12,22,-4,0,7,-1,-6
15:36:16:36875,7,-8,17,-4,-20,-4,0,13
15:36:16:37650,7,-8,17,-4,-20,-4,0,13
15:36:16:38472,8,-20,-16,19,31,-12,-5,-9
15:36:16:50558,-5,-11,-2,-6,69,15,-16,-15
15:36:16:58699,-5,-11,-2,-6,69,15,-16,-15
15:36:16:59497,-7,3,6,23,-47,-17,8,-3
15:36:16:65490,4,-11,6,9,-28,-5,-8,7
15:36:16:73037,4,-11,6,9,-28,-5,-8,7
15:36:16:80533,-12,-39,-15,-5,2,2,17,32
15:36:16:88017,-13,20,4,10,-10,5,-14,-6
15:36:16:96223,-13,20,4,10,-10,5,-14,-6
15:36:16:97010,0,1,-9,-13,-17,1,-11,-35
15:36:16:110459,-5,-5,26,-6,-7,-10,22,-1
15:36:16:118784,-5,-5,26,-6,-7,-10,22,-1
15:36:16:119542,-15,10,-14,-2,22,15,20,8
15:36:16:125488,3,-4,-17,8,56,20,-17,-20
15:36:16:133101,3,-4,-17,8,56,20,-17,-20
15:36:16:140485,1,17,17,-8,8,11,-3,-10
15:36:16:148046,0,-3,22,0,-60,-38,-2,9
15:36:16:156193,0,-3,22,0,-60,-38,-2,9
15:36:16:157006,13,4,27,31,20,7,0,5
15:36:16:179347,-10,10,16,-12,-20,-10,-17,6
15:36:16:180174,-10,10,16,-12,-20,-10,-17,6
15:36:16:180990,-1,-1,7,-5,-11,-1,30,-35
15:36:16:185490,-3,1,-12,-14,-25,-10,-30,-12
15:36:16:193036,-3,1,-12,-14,-25,-10,-30,-12
15:36:16:200560,-7,-3,-31,-12,9,1,-23,-3
15:36:16:207993,6,0,11,11,-21,-9,10,2
15:36:16:216215,6,0,11,11,-21,-9,10,2
15:36:16:217018,1,12,-45,-6,-10,-10,-13,15
15:36:16:230501,11,5,20,6,3,-3,-3,15
15:36:16:238724,11,5,20,6,3,-3,-3,15
15:36:16:239531,-14,-34,-57,-5,10,2,7,-3
15:36:16:245492,-9,4,-36,-6,6,3,22,1
15:36:16:253111,-9,4,-36,-6,6,3,22,1
15:36:16:260455,2,16,13,-7,2,2,72,6
15:36:16:268050,-11,-4,28,-6,-9,10,-4,-6
15:36:16:276156,-11,-4,28,-6,-9,10,-4,-6
15:36:16:276971,9,2,23,2,8,-21,-25,6
15:36:16:290498,11,-2,-2,-10,28,11,7,7
15:36:16:298721,11,-2,-2,-10,28,11,7,7
15:36:16:299518,-9,-4,16,-11,-48,-14,-36,-9
15:36:16:313727,14,16,-14,-3,-22,-1,-3,-1
15:36:16:314514,14,16,-14,-3,-22,-1,-3,-1
15:36:16:320546,-5,0,-7,-9,18,3,-14,-10
15:36:16:327990,3,-2,25,4,5,1,11,3
15:36:16:336320,3,-2,25,4,5,1,11,3
15:36:16:337055,0,-26,11,-5,-7,3,-14,13
15:36:16:350538,-15,-7,-19,-13,6,2,5,11
15:36:16:358732,-15,-7,-19,-13,6,2,5,11
15:36:16:359512,1,9,0,6,7,2,-20,-27
15:36:16:365531,-1,-14,-26,-4,1,4,-7,-18
15:36:16:373083,-1,-14,-26,-4,1,4,-7,-18
15:36:16:380550,4,4,-57,2,10,15,0,2
15:36:16:388001,-1,8,-9,7,-40,-24,23,2
15:36:16:396177,-1,8,-9,7,-40,-24,23,2
15:36:16:396993,0,-9,6,0,4,8,-14,1
15:36:16:410516,-13,-11,-12,-2,-10,-2,-6,28
15:36:16:418805,-13,-11,-12,-2,-10,-2,-6,28
15:36:16:419515,-8,14,77,5,-9,5,-1,-14
15:36:16:425498,9,-4,52,-13,43,14,8,-23
15:36:16:433032,9,-4,52,-13,43,14,8,-23
15:36:16:440529,-14,9,8,-17,-11,-5,-17,3
15:36:16:456812,1,-4,-4,20,8,-3,-9,-8
15:36:16:457627,1,-4,-4,20,8,-3,-9,-8
15:36:16:458446,7,-13,-8,-10,-53,-11,0,3
15:36:16:470483,-11,-9,-3,10,-1,-1,5,-6
15:36:16:478704,-11,-9,-3,10,-1,-1,5,-6
15:36:16:479532,6,-6,-2,-2,-20,-9,-1,46
15:36:16:485556,0,-30,-1,-3,11,-6,-45,-17
15:36:16:493069,0,-30,-1,-3,11,-6,-45,-17
15:36:16:500525,-3,5,-21,-3,34,13,7,-18
15:36:16:508002,20,-11,-4,1,15,3,19,36
15:36:16:516221,20,-11,-4,1,15,3,19,36
15:36:16:516997,-4,2,31,11,15,-5,8,-7
15:36:16:530545,-12,-6,27,1,5,7,11,10
15:36:16:538775,-12,-6,27,1,5,7,11,10
15:36:16:539558,2,-3,-14,-8,-22,-13,-30,1
15:36:16:545520,1,13,-18,-1,-5,15,-12,4
15:36:16:553076,1,13,-18,-1,-5,15,-12,4
15:36:16:560515,-2,17,14,14,23,21,-13,-9
15:36:16:568079,-3,1,-17,-12,-38,-20,-9,-21
15:36:16:576179,-3,1,-17,-12,-38,-20,-9,-21
15:36:16:576962,-27,6,-48,14,15,-2,22,4
15:36:16:590468,1,2,-16,-12,2,-3,1,-7
15:36:16:598666,1,2,-16,-12,2,-3,1,-7
15:36:16:599490,7,-5,22,-12,-2,-9,10,-1
15:36:16:605511,-1,15,33,-8,37,38,6,1
15:36:16:613021,-1,15,33,-8,37,38,6,1
15:36:16:620489,5,-7,-21,3,11,-14,-17,3
15:36:16:627952,23,8,-20,3,11,-8,0,16
15:36:16:636217,23,8,-20,3,11,-8,0,16
15:36:16:637032,1,-9,0,-8,-13,-5,-33,-16
15:36:16:650562,0,-5,-13,3,-8,-16,5,0
15:36:16:658684,0,-5,-13,3,-8,-16,5,0
15:36:16:659474,-9,-1,-3,-15,9,-9,8,15
15:36:16:665504,-2,10,-17,26,51,1,-4,-10
15:36:16:673066,-2,10,-17,26,51,1,-4,-10
15:36:16:680583,3,16,-11,-7,-25,3,17,-7
15:36:16:687998,-18,9,29,3,-50,-18,-14,3
15:36:16:696219,-18,9,29,3,-50,-18,-14,3
15:36:16:697008,12,-9,-24,8,39,24,-19,25
15:36:16:710497,3,21,13,-3,0,1,-6,-21
15:36:16:718734,3,21,13,-3,0,1,-6,-21
15:36:16:719547,7,-5,7,8,-29,-19,17,6
15:36:16:725493,2,-6,0,0,4,-3,-2,-7
15:36:16:733044,2,-6,0,0,4,-3,-2,-7
15:36:16:740522,0,10,17,9,-11,-13,-4,-10
15:36:16:748044,-3,-19,-36,-17,0,8,3,0
15:36:16:756225,-3,-19,-36,-17,0,8,3,0
15:36:16:757048,-7,-8,-19,10,2,8,5,-10
15:36:16:770969,-7,-3,-14,9,-52,-15,6,4
15:36:16:778750,-7,-3,-14,9,-52,-15,6,4
15:36:16:779537,6,-5,3,3,43,27,10,28
15:36:16:785552,-9,3,1,-4,5,7,-16,-15
15:36:16:793048,-9,3,1,-4,5,7,-16,-15
15:36:16:800601,-5,8,55,-12,-61,-26,3,-18
15:36:16:808026,-1,-4,42,1,2,30,-5,6
15:36:16:816221,-1,-4,42,1,2,30,-5,6
15:36:16:817022,-4,-3,-3,-10,-4,5,67,7
15:36:16:830530,9,-7,-36,-5,-3,-18,6,1
15:36:16:838730,9,-7,-36,-5,-3,-18,6,1
15:36:16:839548,16,13,-26,3,14,-4,12,-11
15:36:16:845489,-11,-19,-1,-4,-67,-19,4,5
15:36:16:853089,-11,-19,-1,-4,-67,-19,4,5
15:36:16:860484,-15,-5,9,13,-5,-3,9,-32
15:36:16:868056,6,-9,-20,-32,-13,-16,-8,-31
15:36:16:875534,6,-9,-20,-32,-13,-16,-8,-31
15:36:16:882988,-10,3,0,1,16,6,4,-7
15:36:16:890475,-4,9,13,14,7,-13,11,26
15:36:16:898768,-4,9,13,14,7,-13,11,26
15:36:16:899516,4,-10,16,-4,-1,-1,-25,-15
15:36:16:913735,6,-7,-15,-5,24,7,-14,2
15:36:16:914527,6,-7,-15,-5,24,7,-14,2
15:36:16:928665,3,-7,-6,-3,-18,16,-27,-1
15:36:16:929483,-14,4,-30,33,18,3,-35,-6
15:36:16:935582,-14,4,-30,33,18,3,-35,-6
15:36:16:943040,-14,-12,1,-12,-22,-17,-19,-6
15:36:16:950557,4,1,21,4,25,30,9,-25
15:36:16:958695,4,1,21,4,25,30,9,-25
15:36:16:959500,9,-10,-11,-2,41,8,-19,-3
15:36:16:973708,3,-1,13,-16,1,-12,24,25
15:36:16:974515,3,-1,13,-16,1,-12,24,25
15:36:16:980525,0,1,15,-10,-26,-3,-4,1
15:36:16:988066,0,-3,-13,17,-12,-1,-1,-5
15:36:16:995512,0,-3,-13,17,-12,-1,-1,-5
15:36:17:3045,-12,19,19,25,18,4,5,24
15:36:17:10468,-2,9,18,-25,-22,-10,-28,-2
15:36:17:18819,-2,9,18,-25,-22,-10,-28,-2
15:36:17:19513,6,-13,-35,2,-29,15,25,41
15:36:17:33723,-5,-4,-7,0,-3,-8,-8,-23
15:36:17:34545,-5,-4,-7,0,-3,-8,-8,-23
15:36:17:40485,6,0,-7,0,-19,-27,0,1
15:36:17:48018,-7,-9,27,15,21,-1,10,6
15:36:17:55553,-7,-9,27,15,21,-1,10,6
15:36:17:62976,-10,-17,-70,-17,-21,-24,-15,-27
15:36:17:70457,6,12,18,16,4,1,18,9
15:36:17:78705,6,12,18,16,4,1,18,9
15:36:17:79517,1,4,-6,0,31,25,-13,-9
15:36:17:93705,-1,-29,-46,-22,-23,-8,-3,25
15:36:17:94503,-1,-29,-46,-22,-23,-8,-3,25
15:36:17:100510,-2,-18,4,-15,-8,33,-3,-25
15:36:17:107983,-10,-5,18,-9,13,13,25,-2
15:36:17:123496,-10,-5,18,-9,13,13,25,-2
15:36:17:131150,-8,-4,-15,0,-24,-29,-11,-12
15:36:17:131918,17,16,8,-16,-15,-7,-2,-7
15:36:17:138665,17,16,8,-16,-15,-7,-2,-7
15:36:17:139468,0,29,-31,-18,6,-8,22,9
15:36:17:153730,15,-2,-18,7,17,8,3,-2
15:36:17:154508,15,-2,-18,7,17,8,3,-2
15:36:17:168736,-4,-9,52,0,15,-7,-9,25
15:36:17:169488,4,7,-8,-9,9,3,-12,-30
15:36:17:175549,4,7,-8,-9,9,3,-12,-30
15:36:17:182988,7,-9,19,2,5,-5,0,2
15:36:17:190458,-5,-3,3,4,39,3,17,4
15:36:17:198795,-5,-3,3,4,39,3,17,4
15:36:17:199485,-7,12,-2,-1,-14,-10,-6,-6
15:36:17:213718,2,-6,-6,8,-6,-1,-15,6
15:36:17:214479,2,-6,-6,8,-6,-1,-15,6
15:36:17:220465,-10,-2,-8,10,37,18,-11,-13
15:36:17:227978,-13,-16,-46,-10,-17,-3,-20,-8
15:36:17:235623,-13,-16,-46,-10,-17,-3,-20,-8
15:36:17:242952,2,16,33,0,-20,-9,3,21
15:36:17:250519,4,27,25,-16,-4,-1,1,14
15:36:17:258711,4,27,25,-16,-4,-1,1,14
15:36:17:259510,1,-4,-6,0,31,0,-4,-27
15:36:17:273694,-9,-1,-12,15,4,32,8,29
15:36:17:274525,-9,-1,-12,15,4,32,8,29
15:36:17:280451,9,1,12,8,-15,-4,-7,-15
15:36:17:287973,-7,-7,-6,-2,-16,-18,-19,-12
15:36:17:295546,-7,-7,-6,-2,-16,-18,-19,-12
15:36:17:303052,3,-21,-67,-4,3,-17,8,20
15:36:17:310478,10,-6,0,8,9,4,17,15
15:36:17:318767,10,-6,0,8,9,4,17,15
15:36:17:319523,-3,23,51,-10,-13,-6,-4,-11
15:36:17:334446,-7,-14,16,15,13,-7,-5,-13
15:36:17:335152,-7,-14,16,15,13,-7,-5,-13
15:36:17:340475,5,3,38,8,24,-1,12,-16
15:36:17:348038,-6,-11,-7,-10,-2,4,2,-2
15:36:17:355606,-6,-11,-7,-10,-2,4,2,-2
15:36:17:363052,-2,-9,7,20,-14,13,-1,2
15:36:17:370569,-7,0,-18,-17,-30,-15,-3,0
15:36:17:378695,-7,0,-18,-17,-30,-15,-3,0
15:36:17:379498,1,4,-25,-15,-2,8,-13,-5
15:36:17:401912,-16,-19,9,-8,-30,-14,25,-20
15:36:17:402656,-16,-19,9,-8,-30,-14,25,-20
15:36:17:403509,11,13,-11,10,71,22,35,15
15:36:17:407931,12,2,-14,16,12,0,-5,-8
15:36:17:415583,12,2,-14,16,12,0,-5,-8
15:36:17:423026,-13,-7,12,-13,-46,-12,-11,3
15:36:17:430509,7,9,-14,7,38,-1,-4,7
15:36:17:438677,7,9,-14,7,38,-1,-4,7
15:36:17:439489,-2,1,3,16,2,3,-13,-5
15:36:17:453719,-7,-1,19,-17,-27,-14,-14,-24
15:36:17:454499,-7,-1,19,-17,-27,-14,-14,-24
15:36:17:460476,-2,-10,-18,-7,-6,-13,-4,12
15:36:17:468068,-28,7,-4,5,20,28,29,22
15:36:17:475500,-28,7,-4,5,20,28,29,22
15:36:17:491212,-13,-9,-5,-5,-35,-5,4,1
15:36:17:491988,11,28,21,23,14,-1,-6,-2
15:36:17:498735,11,28,21,23,14,-1,-6,-2
15:36:17:499503,15,4,-14,-8,-11,-10,-6,-9
15:36:17:513734,-6,-9,36,-7,-14,-3,-11,9
15:36:17:514541,-6,-9,36,-7,-14,-3,-11,9
15:36:17:520496,2,8,21,15,23,-6,-7,-8
15:36:17:527978,-8,-14,22,-2,-16,-11,-12,-19
15:36:17:535600,-8,-14,22,-2,-16,-11,-12,-19
15:36:17:543015,18,6,-19,8,-10,2,4,14
15:36:17:550544,-21,-10,-6,-2,-9,-8,-40,-14
15:36:17:558695,-21,-10,-6,-2,-9,-8,-40,-14
15:36:17:559490,-13,-26,-27,-19,-2,6,35,11
15:36:17:573684,15,12,-18,13,2,-4,-12,-4
15:36:17:574475,15,12,-18,13,2,-4,-12,-4
15:36:17:580476,2,16,-6,-10,16,1,-17,-17
15:36:17:588022,7,-2,-22,-29,-13,-6,11,6
15:36:17:595522,7,-2,-22,-29,-13,-6,11,6
15:36:17:603043,-11,-7,16,-13,3,8,-1,0
15:36:17:610478,6,-22,-55,-18,1,4,3,7
15:36:17:618078,6,-22,-55,-18,1,4,3,7
15:36:17:625483,-11,-15,-45,13,-1,-6,-11,11
15:36:17:633732,0,8,19,2,5,-9,16,19
15:36:17:634537,0,8,19,2,5,-9,16,19
15:36:17:640462,-1,-4,24,-13,-18,-14,-12,-25
15:36:17:648046,-8,-3,3,0,0,6,9,-25
15:36:17:655596,-8,-3,3,0,0,6,9,-25
15:36:17:662996,2,5,47,18,11,23,-6,-22
15:36:17:679424,-1,0,-5,-5,-28,-8,-16,-7
15:36:17:680185,-1,0,-5,-5,-28,-8,-16,-7
15:36:17:680986,-1,-6,-28,12,10,3,-3,19
15:36:17:693691,-7,-8,18,-11,15,3,6,-6
15:36:17:694543,-7,-8,18,-11,15,3,6,-6
15:36:17:700514,-17,0,21,-18,25,4,4,19
15:36:17:707989,-2,15,-5,18,5,4,1,-14
15:36:17:715576,-2,15,-5,18,5,4,1,-14
15:36:17:722999,10,21,35,-5,-32,-13,-4,5
15:36:17:730491,-1,-3,10,-5,13,15,5,8
15:36:17:738715,-1,-3,10,-5,13,15,5,8
15:36:17:739509,3,-1,-19,12,-3,-9,36,-28
15:36:17:753768,13,8,-20,14,37,34,-3,11
15:36:17:754557,13,8,-20,14,37,34,-3,11
15:36:17:760483,4,0,2,-10,-4,-6,24,11
15:36:17:767995,3,-15,-26,-20,-42,-27,-9,-10
15:36:17:775566,3,-15,-26,-20,-42,-27,-9,-10
15:36:17:783076,19,-5,-19,-27,33,14,-16,-27
15:36:17:790525,7,32,42,21,35,12,1,9
15:36:17:798721,7,32,42,21,35,12,1,9
15:36:17:799448,-1,6,-7,-8,-57,-31,2,5
15:36:17:813772,12,31,13,-3,91,13,-18,-34
15:36:17:814535,12,31,13,-3,91,13,-18,-34
15:36:17:820537,4,11,22,-13,-33,-18,-8,13
15:36:17:836277,-11,-11,-43,-2,-19,-15,3,-6
15:36:17:837024,-11,-11,-43,-2,-19,-15,3,-6
15:36:17:842944,-15,-5,20,16,1,2,18,4
15:36:17:850586,3,-11,14,-7,-10,-6,0,18
15:36:17:858055,3,-11,14,-7,-10,-6,0,18
15:36:17:865520,-10,-18,-59,1,-7,-1,-7,-22
15:36:17:873671,-2,-17,-29,-21,-63,-16,8,-13
15:36:17:874518,-2,-17,-29,-21,-63,-16,8,-13
15:36:17:880592,-1,5,45,34,64,22,-14,17
15:36:17:896199,-2,-4,-7,1,-8,-13,-2,-13
15:36:17:897003,-2,-4,-7,1,-8,-13,-2,-13
15:36:17:903033,9,-24,-6,-7,42,17,-12,-5
15:36:17:910501,-3,-3,3,-2,-21,-13,-2,22
15:36:17:918042,-3,-3,3,-2,-21,-13,-2,22
15:36:17:925533,-9,-2,-17,-7,-9,-8,2,3
15:36:17:933709,10,-27,-17,-1,20,1,4,-22
15:36:17:934492,10,-27,-17,-1,20,1,4,-22
15:36:17:940453,-9,-15,-3,-10,-1,2,7,-1
15:36:17:956623,-10,4,-7,-4,-37,-1,11,11
15:36:17:957436,-10,4,-7,-4,-37,-1,11,11
15:36:17:963017,-2,3,-41,-5,13,6,-25,-23
15:36:17:970540,4,1,3,7,8,1,22,19
15:36:17:978026,4,1,3,7,8,1,22,19
15:36:17:985496,-17,4,-8,2,-26,-16,-4,19
15:36:17:993670,-2,-20,34,-13,-16,5,-5,13
15:36:17:994485,-2,-20,34,-13,-16,5,-5,13
15:36:18:482,12,26,19,-1,4,5,8,-17
15:36:18:16195,7,3,37,16,-2,0,-15,-21
15:36:18:16996,7,3,37,16,-2,0,-15,-21
15:36:18:22961,-4,7,-1,-9,-19,-4,-12,2
15:36:18:38694,-9,11,3,-1,-20,3,-13,-4
15:36:18:39477,-9,11,3,-1,-20,3,-13,-4
15:36:18:45479,1,29,20,6,5,10,-18,18
15:36:18:53673,-8,39,-12,3,-15,-2,-15,-12
15:36:18:54544,-8,39,-12,3,-15,-2,-15,-12
15:36:18:60424,-11,-33,-27,11,5,-7,13,-7
15:36:18:76151,1,3,6,3,37,11,1,15
15:36:18:77042,1,3,6,3,37,11,1,15
15:36:18:82955,-10,-34,-26,-11,-19,5,-10,-5
15:36:18:90491,-1,-6,-38,2,-17,-9,-35,12
15:36:18:98082,-1,-6,-38,2,-17,-9,-35,12
15:36:18:105495,-2,6,-12,-9,-50,-12,-15,-9
15:36:18:121875,-9,3,5,11,50,19,2,1
15:36:18:122664,-9,3,5,11,50,19,2,1
15:36:18:123457,6,1,20,2,-3,-2,23,23
15:36:18:136249,-3,-11,-1,13,21,9,-6,-26
15:36:18:136985,-3,-11,-1,13,21,9,-6,-26
15:36:18:142989,-5,-17,15,-19,-10,-8,3,4
15:36:18:158710,16,21,-4,-15,17,-7,12,10
15:36:18:159506,16,21,-4,-15,17,-7,12,10
15:36:18:165565,15,9,61,0,4,7,-2,-7
15:36:18:173687,-9,-2,3,-17,-40,-6,-3,3
15:36:18:174460,-9,-2,3,-17,-40,-6,-3,3
15:36:18:180512,-18,9,-28,10,20,8,50,8
15:36:18:195915,3,-5,-3,6,-26,6,15,-12
15:36:18:203772,3,-5,-3,6,-26,6,15,-12
15:36:18:204527,20,-1,25,-13,25,15,-16,-4
15:36:18:210502,-2,-34,-76,-15,-6,-17,-3,2
15:36:18:218049,-2,-34,-76,-15,-6,-17,-3,2
15:36:18:242506,1,-19,-14,7,-12,-14,-33,-22
15:36:18:243261,5,2,46,5,-13,-4,-3,6
15:36:18:244142,5,2,46,5,-13,-4,-3,6
15:36:18:244923,-4,0,2,3,1,-8,10,2
15:36:18:256198,1,-1,42,-3,4,-9,-1,-12
15:36:18:256997,1,-1,42,-3,4,-9,-1,-12
15:36:18:262963,4,-21,-4,-5,34,13,-6,-5
15:36:18:270485,-8,-16,-7,-6,-30,-21,17,6
15:36:18:278052,-8,-16,-7,-6,-30,-21,17,6
15:36:18:285570,3,15,-22,4,-1,7,-16,0
15:36:18:293660,-11,17,-23,0,30,0,-7,-11
15:36:18:294505,-11,17,-23,0,30,0,-7,-11
15:36:18:300522,2,16,25,0,-25,-13,8,3
15:36:18:324374,-1,-10,20,16,11,6,11,12
15:36:18:325151,-1,-10,20,16,11,6,11,12
15:36:18:325927,-6,-3,-2,10,21,-9,7,-12
15:36:18:330496,-33,-14,-44,7,68,13,1,7
15:36:18:338060,-33,-14,-44,7,68,13,1,7
15:36:18:345466,-9,-11,-26,-9,-21,-17,-1,7
15:36:18:353729,31,-10,16,-9,-11,12,-6,20
15:36:18:354536,31,-10,16,-9,-11,12,-6,20
15:36:18:360470,-8,3,23,8,-14,-2,-17,-15
15:36:18:376169,2,-4,-14,-15,-31,-5,-36,-7
15:36:18:376997,2,-4,-14,-15,-31,-5,-36,-7
15:36:18:382996,18,16,56,6,2,0,1,6
15:36:18:398764,18,16,56,6,2,0,1,6
15:36:18:399516,-1,-4,10,-11,6,2,19,-22
15:36:18:405469,-31,-6,22,-11,-24,-2,1,-14
15:36:18:413710,-31,-6,22,-11,-24,-2,1,-14
15:36:18:414482,1,-3,37,-25,-19,-3,-2,5
15:36:18:420452,-1,42,30,4,16,9,-2,2
15:36:18:436289,-1,42,30,4,16,9,-2,2
15:36:18:437015,-2,6,6,-17,-14,13,13,-4
15:36:18:442974,7,-5,-34,-13,-21,-13,-13,-46
15:36:18:458700,7,-5,-34,-13,-21,-13,-13,-46
15:36:18:459456,-25,32,0,9,24,-8,-33,-4
15:36:18:465525,-10,-9,-43,1,26,13,-5,19
15:36:18:473689,-10,-9,-43,1,26,13,-5,19
15:36:18:474525,8,-9,-76,0,-31,-12,10,5
15:36:18:480465,16,-38,-1,-4,-41,-8,32,0
15:36:18:496247,16,-38,-1,-4,-41,-8,32,0
15:36:18:497006,-3,77,70,31,15,6,-2,6
15:36:18:502987,3,-51,-44,-9,-13,-5,-6,22
15:36:18:519174,3,-51,-44,-9,-13,-5,-6,22
15:36:18:519926,-5,-32,18,3,3,-10,17,-2
15:36:18:525535,-6,27,22,12,16,4,-13,18
15:36:18:533719,-6,27,22,12,16,4,-13,18
15:36:18:534490,-5,-17,-15,16,-27,-16,-9,-17
15:36:18:540454,2,6,-6,10,48,11,-7,3
15:36:18:556234,2,6,-6,10,48,11,-7,3
15:36:18:557000,1,-7,-3,0,-15,-2,-12,-6
15:36:18:563057,20,17,61,9,-7,6,21,17
15:36:18:578669,20,17,61,9,-7,6,21,17
15:36:18:579520,26,39,-13,-5,-35,1,12,4
15:36:18:594341,1,-40,7,7,13,-8,-14,14
15:36:18:595144,1,-40,7,7,13,-8,-14,14
15:36:18:595964,2,3,2,-10,21,25,-21,0
15:36:18:600464,0,12,-16,-7,-29,-18,-25,-27
15:36:18:616222,0,12,-16,-7,-29,-18,-25,-27
15:36:18:616993,-2,-17,-11,-14,-10,-12,6,6
15:36:18:622993,-14,-21,-5,2,23,29,9,6
15:36:18:646898,-14,-21,-5,2,23,29,9,6
15:36:18:647660,-4,-67,4,-54,-13,-11,11,22
15:36:18:648459,-7,32,-65,-20,21,-3,4,-16
15:36:18:653764,-7,32,-65,-20,21,-3,4,-16
15:36:18:654505,-1,-3,8,7,16,22,26,-8
15:36:18:660466,0,-8,1,-2,-37,10,-10,20
15:36:18:676700,0,-8,1,-2,-37,10,-10,20
15:36:18:677479,-8,-5,-16,19,13,8,85,36
15:36:18:683014,5,17,11,-8,-17,-10,21,-8
15:36:18:698707,5,17,11,-8,-17,-10,21,-8
15:36:18:699474,9,18,-8,14,17,25,-27,-13
15:36:18:705506,3,-10,-7,-5,32,14,0,-12
15:36:18:713720,3,-10,-7,-5,32,14,0,-12
15:36:18:714446,-2,9,18,-7,-12,-27,-17,2
15:36:18:720475,-13,-9,-29,-39,-14,-17,-17,6
15:36:18:736322,-13,-9,-29,-39,-14,-17,-17,6
15:36:18:737019,-3,2,-10,8,14,1,-16,-50
15:36:18:742994,-1,5,-17,-2,-13,-32,2,-4
15:36:18:758750,-1,5,-17,-2,-13,-32,2,-4
15:36:18:759520,13,4,14,-2,9,8,-1,11
15:36:18:765482,-7,-12,17,20,-7,7,-15,-30
15:36:18:773699,-7,-12,17,20,-7,7,-15,-30
15:36:18:774518,-1,-2,30,0,-23,-15,-40,-11
15:36:18:788062,11,2,11,9,19,-1,39,22
15:36:18:796276,11,2,11,9,19,-1,39,22
15:36:18:797042,-15,12,-13,3,-9,1,23,8
15:36:18:803062,16,29,-14,8,7,4,-13,12
15:36:18:818755,16,29,-14,8,7,4,-13,12
15:36:18:819513,-4,11,-9,8,-1,-16,-4,6
15:36:18:825516,-5,16,22,3,-10,-8,-3,-23
15:36:18:833698,-5,16,22,3,-10,-8,-3,-23
15:36:18:834508,6,17,-35,-16,-16,-5,-6,0
15:36:18:848070,-14,-25,18,-9,-10,8,-4,-2
15:36:18:856253,-14,-25,18,-9,-10,8,-4,-2
15:36:18:857049,3,-7,1,8,-12,-6,-16,-11
15:36:18:879378,13,-37,10,-2,-11,-17,3,30
15:36:18:880161,13,-37,10,-2,-11,-17,3,30
15:36:18:880961,1,-15,-16,9,55,18,20,-3
15:36:18:885476,1,2,-5,-2,-11,-1,-8,-24
15:36:18:893696,1,2,-5,-2,-11,-1,-8,-24
15:36:18:894482,0,-3,-7,-9,-11,2,-21,-10
15:36:18:908051,-4,0,-11,10,-14,-15,15,30
15:36:18:924377,-4,0,-11,10,-14,-15,15,30
15:36:18:925152,4,2,-29,-6,-3,-13,0,3
15:36:18:925923,3,1,-12,7,-14,0,-10,4
15:36:18:930518,3,1,-12,7,-14,0,-10,4
15:36:18:938023,13,-21,9,-7,6,4,-26,-10
15:36:18:954326,-19,19,-4,-3,2,22,-12,-33
15:36:18:955139,-19,19,-4,-3,2,22,-12,-33
15:36:18:955934,-18,-19,18,19,36,2,2,14
15:36:18:968027,-14,3,1,3,-30,-12,-4,-10
15:36:18:976176,-14,3,1,3,-30,-12,-4,-10
15:36:18:976984,2,-14,-17,18,8,0,-22,-3
15:36:18:982975,6,19,23,-5,11,4,-14,18
15:36:18:990592,6,19,23,-5,11,4,-14,18
15:36:18:998072,-16,-17,-2,-16,-12,-13,11,8
15:36:19:5533,4,-24,24,5,-4,-8,-11,-7
15:36:19:13739,4,-24,24,5,-4,-8,-11,-7
15:36:19:14474,7,-9,-29,-13,-28,8,13,53
15:36:19:36927,-8,17,-43,1,26,7,4,-23
15:36:19:37700,-8,17,-43,1,26,7,4,-23
15:36:19:38503,-24,13,26,0,-12,-17,-2,-14
15:36:19:43001,13,-2,-35,3,-10,25,-8,14
15:36:19:50634,13,-2,-35,3,-10,25,-8,14
15:36:19:57999,4,5,6,-9,-16,5,21,5
15:36:19:65575,-18,1,25,10,19,-9,-8,-13
15:36:19:73718,-18,1,25,10,19,-9,-8,-13
15:36:19:74520,-25,-2,16,-2,-5,-10,-3,-5
15:36:19:88034,0,-23,-9,-12,-13,-9,20,12
15:36:19:96202,0,-23,-9,-12,-13,-9,20,12
15:36:19:97106,5,-5,-11,2,0,1,-30,-7
15:36:19:103031,-6,-15,5,4,14,2,-1,-10
15:36:19:118821,-6,-15,5,4,14,2,-1,-10
15:36:19:119576,5,-18,6,-4,-18,-8,-11,-39
15:36:19:125492,-6,18,34,-3,33,24,9,-14
15:36:19:133739,-6,18,34,-3,33,24,9,-14
15:36:19:134493,-3,-10,11,15,43,18,-9,-37
15:36:19:148792,0,-7,-37,-8,-5,-11,0,3
15:36:19:156238,0,-7,-37,-8,-5,-11,0,3
15:36:19:156984,9,22,28,-2,-10,-6,8,10
15:36:19:163004,-6,1,-29,-16,0,15,2,-5
15:36:19:170606,-6,1,-29,-16,0,15,2,-5
15:36:19:177986,-8,-19,18,-4,-3,-8,11,19
15:36:19:185532,3,-14,-9,-3,-17,-15,-2,-4
15:36:19:201243,3,-14,-9,-3,-17,-15,-2,-4
15:36:19:202012,12,0,-14,-6,-44,-3,15,17
15:36:19:207992,-2,16,-13,-2,0,0,-19,-21
15:36:19:216235,-2,16,-13,-2,0,0,-19,-21
15:36:19:217050,-6,0,17,-6,-36,-20,-27,-15
15:36:19:231249,12,-3,11,3,10,3,4,11
15:36:19:232013,12,-3,11,3,10,3,4,11
15:36:19:237999,-4,36,4,-2,6,5,15,2
15:36:19:245468,-20,-4,18,1,18,10,-8,-16
15:36:19:253723,-20,-4,18,1,18,10,-8,-16
15:36:19:254513,2,-35,-52,1,8,1,-11,-14
15:36:19:268056,20,4,2,1,-18,-21,8,10
15:36:19:276201,20,4,2,1,-18,-21,8,10
15:36:19:277002,-19,12,-4,-16,47,7,5,-30
15:36:19:282988,-10,-2,-41,-14,-24,-24,2,8
15:36:19:290586,-10,-2,-41,-14,-24,-24,2,8
15:36:19:298013,0,-4,47,3,-4,3,15,30
15:36:19:305503,-13,-11,0,-25,-30,-11,-3,-1
15:36:19:313734,-13,-11,0,-25,-30,-11,-3,-1
15:36:19:314494,-10,-11,20,20,0,-2,16,9
15:36:19:327978,20,4,17,16,15,-8,-9,-1
15:36:19:336243,20,4,17,16,15,-8,-9,-1
15:36:19:336977,19,2,-4,-3,-13,0,1,2
15:36:19:342974,2,1,-10,2,20,13,-11,-2
15:36:19:350559,2,1,-10,2,20,13,-11,-2
15:36:19:358035,1,5,13,-11,-27,-29,-9,-9
15:36:19:365556,8,14,-10,2,-2,4,-19,-7
15:36:19:373710,8,14,-10,2,-2,4,-19,-7
15:36:19:374508,12,24,15,12,8,-2,-10,-46
15:36:19:396884,-7,-15,0,-2,-7,-5,-3,-21
15:36:19:397694,-7,-15,0,-2,-7,-5,-3,-21
15:36:19:398501,-1,-11,-31,-8,6,7,3,9
15:36:19:402966,12,12,30,9,38,2,11,-4
15:36:19:410503,12,12,30,9,38,2,11,-4
15:36:19:418065,1,7,-18,21,11,6,8,2
15:36:19:425501,-13,39,54,2,-9,2,11,19
15:36:19:433734,-13,39,54,2,-9,2,11,19
15:36:19:434534,-10,-12,-15,-9,9,19,-9,7
15:36:19:448072,7,9,6,0,-9,-9,6,19
15:36:19:456191,7,9,6,0,-9,-9,6,19
15:36:19:457003,28,14,23,1,11,2,51,36
15:36:19:463043,0,-23,-24,-5,3,4,24,18
15:36:19:478752,0,-23,-24,-5,3,4,24,18
15:36:19:479509,-23,-17,-20,-3,-5,-4,-5,-3
15:36:19:485537,-3,-12,-53,-10,-7,0,32,29
15:36:19:493645,-3,-12,-53,-10,-7,0,32,29
15:36:19:494464,-3,0,10,-1,-6,-6,-11,-8
15:36:19:508015,-24,-4,29,4,12,11,-23,-32
15:36:19:516284,-24,-4,29,4,12,11,-23,-32
15:36:19:516992,5,-8,-22,1,-6,-3,3,17
15:36:19:522988,23,6,-25,2,-5,-16,-3,-4
15:36:19:530594,23,6,-25,2,-5,-16,-3,-4
15:36:19:538036,-5,40,26,-4,12,0,-16,-17
15:36:19:545504,7,-28,7,2,0,3,-5,-2
15:36:19:553746,7,-28,7,2,0,3,-5,-2
15:36:19:554541,8,-6,-17,-10,-17,-3,-10,5
15:36:19:568064,-4,6,-4,3,-16,-11,20,5
15:36:19:576184,-4,6,-4,3,-16,-11,20,5
15:36:19:576981,-12,-7,-7,8,37,5,-6,-13
15:36:19:591217,3,-16,-15,-7,-14,-8,-6,35
15:36:19:592025,3,-16,-15,-7,-14,-8,-6,35
15:36:19:598015,-7,17,-18,-12,-20,-6,-9,-8
15:36:19:605507,14,41,3,5,1,3,-21,-28
15:36:19:613708,14,41,3,5,1,3,-21,-28
15:36:19:614503,-17,-11,-61,-14,-8,-3,-26,3
15:36:19:628002,-3,-16,21,7,25,15,0,13
15:36:19:636330,-3,-16,21,7,25,15,0,13
15:36:19:637063,-19,-22,20,-2,-2,-1,-5,7
15:36:19:642973,-12,-25,-31,-15,-20,-12,-1,-12
15:36:19:650549,-12,-25,-31,-15,-20,-12,-1,-12
15:36:19:658035,16,-16,8,12,12,6,17,13
15:36:19:674394,16,8,-34,4,-2,2,-13,-54
15:36:19:675198,16,8,-34,4,-2,2,-13,-54
15:36:19:675953,11,14,-14,-4,-17,-5,-1,-21
15:36:19:688001,-4,-3,20,6,3,2,-1,21
15:36:19:703510,-4,-3,20,6,3,2,-1,21
15:36:19:711098,3,-3,10,-11,-16,-7,28,30
15:36:19:711916,2,-2,-3,0,43,19,15,11
15:36:19:718760,2,-2,-3,0,43,19,15,11
15:36:19:719494,10,5,-27,-20,9,17,-15,-54
15:36:19:725503,-8,4,4,1,-27,-7,-13,-5
15:36:19:733070,-8,4,4,1,-27,-7,-13,-5
15:36:19:740536,3,-21,-6,7,2,-11,-2,7
15:36:19:756885,-4,-1,39,-5,-13,-2,-6,-18
15:36:19:757684,-4,-1,39,-5,-13,-2,-6,-18
15:36:19:758500,9,9,-9,-2,4,6,3,-13
15:36:19:771221,-3,-13,-21,-3,9,-3,-6,17
15:36:19:772002,-3,-13,-21,-3,9,-3,-6,17
15:36:19:786252,-15,6,21,4,-8,-6,-16,-33
15:36:19:787004,-12,-6,21,1,-10,-8,-7,-10
15:36:19:793034,-12,-6,21,1,-10,-8,-7,-10
15:36:19:800509,19,5,21,12,-1,17,17,39
15:36:19:808010,-1,11,-9,-6,-7,-3,-12,23
15:36:19:816218,-1,11,-9,-6,-7,-3,-12,23
15:36:19:817030,4,3,18,-2,-15,-17,-4,15
15:36:19:831211,-4,-24,-16,-8,-1,3,8,0
15:36:19:832007,-4,-24,-16,-8,-1,3,8,0
15:36:19:837997,-3,-4,11,-8,-6,-4,4,35
15:36:19:845461,-3,4,-13,7,-21,-8,-8,-22
15:36:19:853114,-3,4,-13,7,-21,-8,-8,-22
15:36:19:868689,-3,-2,17,14,46,-1,-6,-14
15:36:19:869419,-7,6,8,-12,-2,2,25,33
15:36:19:876181,-7,6,8,-12,-2,2,25,33
15:36:19:876982,-10,-7,-38,-2,-7,12,1,2
15:36:19:891209,-3,6,-22,-2,-21,-8,-28,0
15:36:19:892020,-3,6,-22,-2,-21,-8,-28,0
15:36:19:897982,-4,-8,8,-10,-14,-10,-9,-20
15:36:19:905501,-15,-13,13,-10,-7,-6,-9,2
15:36:19:913073,-15,-13,13,-10,-7,-6,-9,2
15:36:19:920455,-3,-4,24,10,12,5,-6,3
15:36:19:927946,15,-2,10,-11,-23,-25,-23,-14
15:36:19:936243,15,-2,10,-11,-23,-25,-23,-14
15:36:19:937024,0,5,7,15,62,16,-9,-5
15:36:19:951206,1,7,18,16,44,27,10,-6
15:36:19:952002,1,7,18,16,44,27,10,-6
15:36:19:957993,1,-10,-49,-32,-31,12,-10,2
15:36:19:965559,-5,-13,-25,5,-21,-15,9,15
15:36:19:981238,-5,-13,-25,5,-21,-15,9,15
15:36:19:981978,0,1,-1,4,11,-3,13,0
15:36:19:988024,-2,10,-14,-20,-19,-4,17,-11
15:36:19:996241,-2,10,-14,-20,-19,-4,17,-11
15:36:19:997030,-11,-10,-14,-7,-54,2,-22,-23
15:36:20:11169,17,3,-11,23,51,36,36,18
15:36:20:11972,17,3,-11,23,51,36,36,18
15:36:20:18007,15,-18,-71,-6,-21,-29,70,1
15:36:20:33711,-6,-24,-50,3,-23,-9,-23,-16
15:36:20:34489,-6,-24,-50,3,-23,-9,-23,-16
15:36:20:40551,-8,-3,8,17,-20,-11,-23,-3
15:36:20:48111,4,15,-14,-11,-6,-5,9,-14
15:36:20:63902,4,15,-14,-11,-6,-5,9,-14
15:36:20:64580,4,31,30,-14,18,-1,-19,-2
15:36:20:70554,-8,-5,2,-24,-6,-19,-9,6
15:36:20:78668,-8,-5,2,-24,-6,-19,-9,6
15:36:20:79454,-1,12,11,5,28,20,-3,2
15:36:20:85526,4,8,21,11,105,20,10,-5
15:36:20:93023,4,8,21,11,105,20,10,-5
15:36:20:100503,2,-14,-5,9,30,35,59,23
15:36:20:108018,-2,-15,-56,-5,-56,-21,-26,2
15:36:20:116200,-2,-15,-56,-5,-56,-21,-26,2
15:36:20:116978,-5,-8,21,-11,-30,-32,-33,-7
15:36:20:130541,4,25,15,16,47,10,9,-6
15:36:20:138708,4,25,15,16,47,10,9,-6
15:36:20:139500,-2,2,-3,-23,-12,-10,-8,-1
15:36:20:145480,-2,19,33,23,-8,5,3,-1
15:36:20:153160,-2,19,33,23,-8,5,3,-1
15:36:20:160461,4,-7,22,8,39,-2,-13,-6
15:36:20:168078,-14,-27,-25,-14,-54,-16,-41,-4
15:36:20:176202,-14,-27,-25,-14,-54,-16,-41,-4
15:36:20:177006,8,3,8,6,74,-13,-3,4
15:36:20:191233,-2,6,32,4,39,5,-12,-5
15:36:20:192068,-2,6,32,4,39,5,-12,-5
15:36:20:198000,-16,9,18,8,-25,-18,5,2
15:36:20:205499,-5,28,41,-13,-24,-8,-1,-2
15:36:20:213103,-5,28,41,-13,-24,-8,-1,-2
15:36:20:228635,-4,-1,-7,-1,-27,-7,0,-2
15:36:20:229442,5,11,14,54,18,33,23,1
15:36:20:236257,5,11,14,54,18,33,23,1
15:36:20:237052,-6,-1,-6,4,-34,-5,-1,-14
15:36:20:259345,6,-16,-9,-28,-11,-4,17,2
15:36:20:260124,6,-16,-9,-28,-11,-4,17,2
15:36:20:260919,-1,-2,24,20,-34,24,-10,-3
15:36:20:265498,-6,-9,1,-1,0,2,26,3
15:36:20:273038,-6,-9,1,-1,0,2,26,3
15:36:20:280495,-4,-77,-112,-38,7,-2,13,-5
15:36:20:287999,1,-2,-8,-3,-71,-26,0,-1
15:36:20:296217,1,-2,-8,-3,-71,-26,0,-1
15:36:20:297036,13,20,6,0,-17,-1,-31,-8
15:36:20:310922,-1,-14,1,6,10,4,-4,4
15:36:20:318704,-1,-14,1,6,10,4,-4,4
15:36:20:319472,-4,7,23,6,-19,-11,18,6
15:36:20:325455,-1,7,27,9,44,40,-3,-20
15:36:20:341215,-1,7,27,9,44,40,-3,-20
15:36:20:341972,-13,18,33,16,9,7,9,12
15:36:20:348095,-4,-8,17,29,-8,-23,15,7
15:36:20:356185,-4,-8,17,29,-8,-23,15,7
15:36:20:356994,-4,20,9,5,22,-25,-13,2
15:36:20:370602,-10,-3,34,-14,-21,-9,-8,-6
15:36:20:378667,-10,-3,34,-14,-21,-9,-8,-6
15:36:20:379444,3,4,7,5,-4,-3,-2,2
15:36:20:385532,4,-16,-1,-18,12,3,15,4
15:36:20:393035,4,-16,-1,-18,12,3,15,4
15:36:20:400509,-2,5,-14,-30,-23,4,-4,-5
15:36:20:407957,2,4,18,-9,-26,-2,-3,3
15:36:20:416200,2,4,18,-9,-26,-2,-3,3
15:36:20:416996,4,-26,-1,2,45,6,-22,-34
15:36:20:430545,-5,10,4,-18,5,7,-23,-10
15:36:20:438698,-5,10,4,-18,5,7,-23,-10
15:36:20:439485,2,-6,9,28,-73,-20,-3,18
15:36:20:445437,-33,-26,-24,-15,-34,-4,-4,-20
15:36:20:453080,-33,-26,-24,-15,-34,-4,-4,-20
15:36:20:460444,-12,-25,6,-23,-11,0,-15,-14
15:36:20:468040,25,33,0,-12,6,12,25,23
15:36:20:476189,25,33,0,-12,6,12,25,23
15:36:20:476981,12,4,-13,-2,24,-10,-14,-16
15:36:20:490510,-18,7,11,3,78,41,-24,-9
15:36:20:498787,-18,7,11,3,78,41,-24,-9
15:36:20:499506,22,14,6,-2,-23,21,15,28
15:36:20:505472,19,12,-23,10,-19,-23,0,7
15:36:20:513035,19,12,-23,10,-19,-23,0,7
15:36:20:520508,-2,-9,30,14,82,6,-18,1
15:36:20:536675,3,-28,-15,-9,-2,-26,2,44
15:36:20:537445,3,-28,-15,-9,-2,-26,2,44
15:36:20:542975,-2,20,-38,19,-12,10,4,-25
15:36:20:550543,4,10,-9,-3,12,13,3,15
15:36:20:558708,4,10,-9,-3,12,13,3,15
15:36:20:559516,-4,14,30,3,15,9,11,10
15:36:20:565523,12,-1,-7,-6,-58,-42,-6,-14
15:36:20:573061,12,-1,-7,-6,-58,-42,-6,-14
15:36:20:588664,-5,2,18,0,14,2,21,-1
15:36:20:589462,4,-15,9,-5,12,16,16,-10
15:36:20:596249,4,-15,9,-5,12,16,16,-10
15:36:20:597036,11,-8,-34,-18,-44,4,19,41
15:36:20:610483,-16,-18,-13,-3,-24,-1,7,-20
15:36:20:618756,-16,-18,-13,-3,-24,-1,7,-20
15:36:20:619571,16,-6,-2,-23,-17,4,-8,12
15:36:20:625468,-14,13,14,-17,-24,-5,-9,-18
15:36:20:633091,-14,13,14,-17,-24,-5,-9,-18
15:36:20:640509,-22,-37,-43,-10,-12,-9,-4,10
15:36:20:656198,-8,-5,3,-5,13,-2,-8,-12
15:36:20:657003,-8,-5,3,-5,13,-2,-8,-12
15:36:20:662994,-8,4,16,5,-25,-16,-7,-5
15:36:20:671214,7,-13,12,7,11,8,-3,-12
15:36:20:672027,7,-13,12,7,11,8,-3,-12
15:36:20:677983,-10,34,23,10,-12,7,3,-29
15:36:20:693701,-8,17,-19,-3,-12,-32,-31,8
15:36:20:694519,-8,17,-19,-3,-12,-32,-31,8
15:36:20:700495,-1,14,6,0,28,-2,-6,-4
15:36:20:708002,6,-15,4,-4,-26,-4,51,20
15:36:20:715554,6,-15,4,-4,-26,-4,51,20
15:36:20:731906,4,16,25,14,-1,-8,8,4
15:36:20:732651,-1,-6,-8,13,10,-21,-26,-11
15:36:20:733507,-1,-6,-8,13,10,-21,-26,-11
15:36:20:737976,5,-2,17,-5,-2,-11,12,-7
15:36:20:753711,-17,-6,-30,-24,-32,-22,31,54
15:36:20:754506,-17,-6,-30,-24,-32,-22,31,54
15:36:20:760449,2,0,4,11,41,0,-27,13
15:36:20:768027,5,-11,-19,5,11,1,-11,-18
15:36:20:775562,5,-11,-19,5,11,1,-11,-18
15:36:20:783037,-9,-36,-36,-30,-24,-25,52,22
15:36:20:791187,-1,36,-9,-23,104,53,-11,-27
15:36:20:792041,-1,36,-9,-23,104,53,-11,-27
15:36:20:798029,-2,14,46,2,-39,3,-11,-10
15:36:20:813467,3,-27,-19,-12,-51,-13,-12,-11
15:36:20:821257,3,-27,-19,-12,-51,-13,-12,-11
15:36:20:821998,-5,-6,-5,5,33,2,21,-3
15:36:20:836240,3,3,14,14,0,-7,-33,-2
15:36:20:837029,3,3,14,14,0,-7,-33,-2
15:36:20:842964,2,-2,-21,10,27,4,-22,-27
15:36:20:850531,2,-12,-6,1,11,15,1,-42
15:36:20:866208,2,-12,-6,1,11,15,1,-42
15:36:20:866991,-6,-30,-24,-22,-51,3,-28,-6
15:36:20:873687,-4,1,21,-3,-10,-9,-5,6
15:36:20:874535,-4,1,21,-3,-10,-9,-5,6
15:36:20:880483,-5,5,14,19,52,25,-21,-8
15:36:20:887993,-7,-8,4,17,-14,10,0,4
15:36:20:895553,-7,-8,4,17,-14,10,0,4
15:36:20:903063,-4,19,17,9,-16,10,7,0
15:36:20:910458,6,6,13,-2,-26,-7,-12,-10
15:36:20:918775,6,6,13,-2,-26,-7,-12,-10
15:36:20:919537,11,-15,-16,-5,-2,-3,-3,13
15:36:20:933756,-10,8,-36,4,19,-1,-4,-10
15:36:20:934571,-10,8,-36,4,19,-1,-4,-10
15:36:20:940510,-5,-14,-25,5,84,10,6,-9
15:36:20:948013,8,-3,16,18,-46,-11,-7,7
15:36:20:955585,8,-3,16,18,-46,-11,-7,7
15:36:20:963010,-5,14,8,-8,-46,-17,2,-2
15:36:20:970517,0,12,-13,4,14,5,13,12
15:36:20:978682,0,12,-13,4,14,5,13,12
15:36:20:979499,0,-2,-7,-10,-16,0,2,0
15:36:20:993688,0,-1,15,3,-19,-16,24,0
15:36:20:994508,0,-1,15,3,-19,-16,24,0
15:36:21:8651,-1,2,-14,-26,27,1,15,7
15:36:21:9441,-5,-5,1,-15,-15,0,-5,3
15:36:21:15562,-5,-5,1,-15,-15,0,-5,3
15:36:21:23009,1,2,-3,0,-6,-11,-26,-1
15:36:21:31209,17,-57,-48,-1,35,12,15,20
15:36:21:32020,17,-57,-48,-1,35,12,15,20
15:36:21:38002,-1,15,19,-2,-39,-3,-20,-10
15:36:21:53801,9,20,14,16,1,4,1,4
15:36:21:54529,9,20,14,16,1,4,1,4
15:36:21:60453,0,16,6,-1,-10,-4,1,3
15:36:21:68064,-9,11,16,-17,-6,-7,-1,4
15:36:21:75544,-9,11,16,-17,-6,-7,-1,4
15:36:21:83023,6,-1,-24,-10,-5,0,3,-4
15:36:21:91170,1,16,4,-24,25,-7,-4,-7
15:36:21:91990,1,16,4,-24,25,-7,-4,-7
15:36:21:98052,-7,-30,-27,1,-16,-7,3,-3
15:36:21:113752,-5,0,7,1,-5,-13,-13,10
15:36:21:114564,-5,0,7,1,-5,-13,-13,10
15:36:21:120533,-3,5,13,0,-16,0,-16,13
15:36:21:127985,-5,-3,-4,8,74,21,37,5
15:36:21:143723,-5,-3,-4,8,74,21,37,5
15:36:21:144509,-1,-9,-5,3,-4,-7,4,-1
15:36:21:151188,2,2,7,-11,-14,11,-3,0
15:36:21:151974,2,2,7,-11,-14,11,-3,0
15:36:21:158018,-2,1,10,-26,-8,5,0,-7
15:36:21:173766,-3,16,7,29,-4,0,-9,-6
15:36:21:174544,-3,16,7,29,-4,0,-9,-6
15:36:21:180577,-7,4,3,16,-3,-3,1,-5
15:36:21:188018,-6,10,-12,-3,0,4,-11,-9
15:36:21:195600,-6,10,-12,-3,0,4,-11,-9
15:36:21:203155,2,2,2,8,-3,-26,3,1
15:36:21:211147,-2,6,3,15,58,24,-4,1
15:36:21:211967,-2,6,3,15,58,24,-4,1
15:36:21:218070,3,-3,-6,-3,-9,-2,0,-5
15:36:21:233725,-8,-8,-14,3,-42,-7,-23,-11
15:36:21:234530,-8,-8,-14,3,-42,-7,-23,-11
15:36:21:240515,-8,-1,1,5,18,6,4,0
15:36:21:248012,3,0,5,-3,-20,-4,-5,-2
15:36:21:255530,3,0,5,-3,-20,-4,-5,-2
15:36:21:263033,1,-4,4,26,-19,-4,0,-6
15:36:21:271218,9,-9,7,2,11,-1,2,0
15:36:21:272016,9,-9,7,2,11,-1,2,0
15:36:21:285563,0,11,-45,2,-22,5,-1,-5
15:36:21:293642,1,0,0,-6,-7,-6,-9,-10
15:36:21:294452,1,0,0,-6,-7,-6,-9,-10
15:36:21:300514,-7,-2,3,-15,13,8,42,6
15:36:21:308008,-3,-3,-16,-5,-9,-4,12,-6
15:36:21:315623,-3,-3,-16,-5,-9,-4,12,-6
15:36:21:322974,-2,-6,-2,-7,17,-2,-18,4
15:36:21:331191,6,2,-1,-1,-9,-9,-9,0
15:36:21:332004,6,2,-1,-1,-9,-9,-9,0
15:36:21:337995,5,-7,14,2,20,14,6,6
15:36:21:353711,-1,2,-33,6,-5,-3,-1,0
15:36:21:354491,-1,2,-33,6,-5,-3,-1,0
15:36:21:360463,-3,3,4,8,-11,-10,5,3
15:36:21:376154,6,-4,-9,-10,-10,7,-2,-2
15:36:21:376983,6,-4,-9,-10,-10,7,-2,-2
15:36:21:382983,18,-14,-4,20,-9,-2,-17,-8
15:36:21:391197,-3,-9,2,-3,0,-13,-11,9
15:36:21:392002,-3,-9,2,-3,0,-13,-11,9
15:36:21:398016,-20,-9,26,-10,27,12,-5,-17
15:36:21:421856,-16,-14,9,11,-19,0,5,-2
15:36:21:422648,-16,-14,9,11,-19,0,5,-2
15:36:21:423433,4,-5,26,5,10,-2,-2,-1
15:36:21:427987,4,10,39,-2,-20,-7,-2,-11
15:36:21:435551,4,10,39,-2,-20,-7,-2,-11
15:36:21:442993,16,15,9,8,1,-4,-9,-35
15:36:21:451194,1,-15,31,-6,-1,1,4,-2
15:36:21:451949,1,-15,31,-6,-1,1,4,-2
15:36:21:457932,-1,-1,-24,-9,-25,-14,11,18
15:36:21:473687,0,-29,-12,-1,44,20,6,12
15:36:21:474470,0,-29,-12,-1,44,20,6,12
15:36:21:488639,6,15,12,-2,9,-11,3,20
15:36:21:489439,17,20,-12,-8,-24,-3,8,30
15:36:21:495565,17,20,-12,-8,-24,-3,8,30
15:36:21:503064,-11,-6,-9,-13,18,1,1,-8
15:36:21:511157,11,3,-3,25,-18,-5,4,-3
15:36:21:511971,11,3,-3,25,-18,-5,4,-3
15:36:21:518015,-28,-9,11,-20,-24,-9,-14,-10
15:36:21:533707,-18,-9,6,-15,14,1,-9,-21
15:36:21:534548,-18,-9,6,-15,14,1,-9,-21
15:36:21:540483,-4,13,24,10,7,6,2,-17
15:36:21:548053,-17,-1,4,-17,-15,0,-7,-16
15:36:21:555530,-17,-1,4,-17,-15,0,-7,-16
15:36:21:563055,-10,-14,-66,-14,16,14,-11,-9
15:36:21:571187,15,10,19,-13,-22,10,9,-23
15:36:21:572009,15,10,19,-13,-22,10,9,-23
15:36:21:577934,-3,1,6,1,7,1,-1,1
15:36:21:593681,-8,-17,-26,-8,-2,-10,-7,7
15:36:21:594457,-8,-17,-26,-8,-2,-10,-7,7
15:36:21:600529,14,-15,-17,-20,-19,2,-6,3
15:36:21:616172,-4,12,-4,-2,12,-4,2,2
15:36:21:616952,-4,12,-4,-2,12,-4,2,2
15:36:21:623012,2,-7,12,-16,-10,-2,5,16
15:36:21:631188,-15,-2,-14,-5,7,-2,0,-11
15:36:21:631975,-15,-2,-14,-5,7,-2,0,-11
15:36:21:645481,-1,-22,-28,-6,-3,-9,-7,-5
15:36:21:653694,-21,-17,6,14,8,1,20,28
15:36:21:654482,-21,-17,6,14,8,1,20,28
15:36:21:660496,-18,1,10,16,-12,8,36,-1
15:36:21:676200,11,6,-45,-15,16,-6,6,58
15:36:21:677012,11,6,-45,-15,16,-6,6,58
15:36:21:683036,-1,11,18,-3,-18,-6,-8,-3
15:36:21:698739,12,37,10,0,-1,-1,-4,0
15:36:21:699501,12,37,10,0,-1,-1,-4,0
15:36:21:705499,-2,-32,-12,-1,-2,2,-17,-4
15:36:21:713752,4,5,6,14,-9,7,-32,-22
15:36:21:714522,4,5,6,14,-9,7,-32,-22
15:36:21:720492,-33,6,-32,15,12,1,7,15
15:36:21:736266,-7,-5,0,6,-31,-13,-9,-24
15:36:21:737047,-7,-5,0,6,-31,-13,-9,-24
15:36:21:742957,15,4,-19,1,-2,10,-8,6
15:36:21:758754,15,4,-19,1,-2,10,-8,6
15:36:21:759482,-5,1,-2,-1,12,18,-4,-48
15:36:21:765493,-1,11,-2,23,-7,4,11,6
15:36:21:773728,-1,11,-2,23,-7,4,11,6
15:36:21:774529,1,-38,-12,9,4,-12,0,27
15:36:21:780540,20,4,-13,-30,-2,-10,-19,5
15:36:21:796275,20,4,-13,-30,-2,-10,-19,5
15:36:21:797003,-19,-8,28,2,22,0,9,11
15:36:21:803052,-4,0,-34,6,-14,-19,-9,-7
15:36:21:818795,-4,0,-34,6,-14,-19,-9,-7
15:36:21:819530,2,8,-14,-1,33,-1,1,4
15:36:21:825440,18,15,0,10,-1,14,2,-14
15:36:21:833751,18,15,0,10,-1,14,2,-14
15:36:21:834527,-21,8,-1,-2,-6,-11,20,-6
15:36:21:840530,9,8,19,-16,-1,-7,-1,-13
15:36:21:856266,9,8,19,-16,-1,-7,-1,-13
15:36:21:857042,13,-2,8,9,-12,14,-5,-4
15:36:21:862997,-7,8,17,2,11,7,10,22
15:36:21:878732,-7,8,17,2,11,7,10,22
15:36:21:879529,1,11,-4,1,-40,-12,-9,-40
15:36:21:885468,-4,8,25,7,3,1,8,-20
15:36:21:893721,-4,8,25,7,3,1,8,-20
15:36:21:894496,-12,-3,51,-10,-17,-8,-13,15
15:36:21:900518,8,-13,12,-1,9,-10,-7,14
15:36:21:916199,8,-13,12,-1,9,-10,-7,14
15:36:21:917003,8,17,53,-9,15,-7,-9,1
15:36:21:922980,3,1,9,-12,-18,-2,6,11
15:36:21:931270,3,1,9,-12,-18,-2,6,11
15:36:21:932031,-4,-38,-43,-18,-8,-2,-8,-3
15:36:21:945490,-12,-28,-29,1,-9,8,24,14
15:36:21:953763,-12,-28,-29,1,-9,8,24,14
15:36:21:954557,7,-34,-9,15,-12,0,0,-36
15:36:21:960468,-10,-11,6,4,24,17,-21,-35
15:36:21:976222,-10,-11,6,4,24,17,-21,-35
15:36:21:976969,9,-9,-25,1,14,5,19,29
15:36:21:982968,14,-1,9,15,-22,-11,-14,-1
15:36:21:991197,14,-1,9,15,-22,-11,-14,-1
15:36:21:992034,3,37,0,1,-1,1,2,-5
15:36:22:5559,17,12,41,6,-16,-23,-3,6
15:36:22:13704,17,12,41,6,-16,-23,-3,6
15:36:22:14452,14,-22,-48,-6,24,1,3,23
15:36:22:20452,-6,1,-27,-18,-3,0,-9,-16
15:36:22:36084,-6,1,-27,-18,-3,0,-9,-16
15:36:22:43582,-6,27,32,-2,-17,-13,11,10
15:36:22:44416,5,-4,9,18,31,-10,-16,14
15:36:22:58747,5,-4,9,18,31,-10,-16,14
15:36:22:59524,3,12,-76,-6,5,-7,-19,-17
15:36:22:65542,-27,-16,-20,-19,-11,-1,13,-6
15:36:22:73731,-27,-16,-20,-19,-11,-1,13,-6
15:36:22:74513,-12,-45,28,-3,-4,-1,7,-13
15:36:22:80547,5,7,23,3,2,7,2,-8
15:36:22:96217,5,7,23,3,2,7,2,-8
15:36:22:96980,-10,17,14,-6,-13,16,-13,6
15:36:22:103026,-55,0,5,-6,22,0,-7,-19
15:36:22:111173,-55,0,5,-6,22,0,-7,-19
15:36:22:111982,42,42,10,12,33,9,3,-2
15:36:22:125550,26,14,-18,-1,14,15,21,35
15:36:22:133726,26,14,-18,-1,14,15,21,35
15:36:22:134483,-3,-5,-1,2,-19,-9,-14,-15
15:36:22:140565,19,14,-4,3,-25,1,3,-8
15:36:22:156264,19,14,-4,3,-25,1,3,-8
15:36:22:157061,-8,-37,-20,-13,23,0,6,2
15:36:22:163019,-11,-11,-15,0,-13,1,-1,15
15:36:22:171222,-11,-11,-15,0,-13,1,-1,15
15:36:22:171979,-30,-4,45,15,-19,6,5,-3
15:36:22:185530,30,31,34,-1,12,2,-5,26
15:36:22:193748,30,31,34,-1,12,2,-5,26
15:36:22:194515,1,29,-20,-15,0,-11,-9,-23
15:36:22:200492,11,3,40,-1,-15,-7,-16,-9
15:36:22:216205,11,3,40,-1,-15,-7,-16,-9
15:36:22:217042,-13,26,26,1,23,15,10,11
15:36:22:222992,-24,8,3,-1,-48,-26,-13,-13
15:36:22:231163,-24,8,3,-1,-48,-26,-13,-13
15:36:22:231933,5,10,-5,3,19,2,1,19
15:36:22:245480,-2,-31,-19,-11,-10,-12,3,-11
15:36:22:253733,-2,-31,-19,-11,-10,-12,3,-11
15:36:22:254476,13,21,-25,-20,-7,0,2,10
15:36:22:260466,-15,13,-3,-12,5,13,1,-21
15:36:22:276217,-15,13,-3,-12,5,13,1,-21
15:36:22:276986,18,-6,-11,13,-5,-13,7,20
15:36:22:283033,-34,-9,9,7,31,4,-9,-5
15:36:22:291236,-34,-9,9,7,31,4,-9,-5
15:36:22:292016,6,-4,-80,-1,-43,-18,1,-2
15:36:22:305504,34,-69,-39,6,5,5,16,13
15:36:22:313729,34,-69,-39,6,5,5,16,13
15:36:22:314499,-21,-5,11,5,-14,7,11,-6
15:36:22:320515,-5,4,-54,-5,3,-3,-31,-79
15:36:22:336301,-5,4,-54,-5,3,-3,-31,-79
15:36:22:337044,0,-26,-10,-6,-4,18,-6,0
15:36:22:342995,12,-4,0,0,1,-9,4,-33
15:36:22:350588,12,-4,0,0,1,-9,4,-33
15:36:22:358022,-16,27,26,6,-37,-25,-28,-19
15:36:22:365537,0,-5,20,2,15,9,18,60
15:36:22:373781,0,-5,20,2,15,9,18,60
15:36:22:374561,13,-13,-9,13,38,9,0,13
15:36:22:380566,-4,-2,-18,-1,-17,-7,-24,-46
15:36:22:404424,-4,-2,-18,-1,-17,-7,-24,-46
15:36:22:405234,-6,-26,-33,-3,-9,-3,-1,-10
15:36:22:406032,-11,-2,-37,-6,13,-5,12,60
15:36:22:418793,-11,-2,-37,-6,13,-5,12,60
15:36:22:419480,32,18,19,-3,11,6,-22,-31
15:36:22:425456,1,-2,67,1,-49,0,13,17
15:36:22:433719,1,-2,67,1,-49,0,13,17
15:36:22:434511,-22,-67,3,-1,17,-1,14,41
15:36:22:440480,-29,33,-7,-6,-3,-5,-19,-10
15:36:22:456237,-29,33,-7,-6,-3,-5,-19,-10
15:36:22:457005,31,26,5,-9,5,12,5,14
15:36:22:462965,30,15,38,1,-3,-9,-8,-4
15:36:22:471194,30,15,38,1,-3,-9,-8,-4
15:36:22:472028,-48,-40,-91,-12,0,1,0,-28
15:36:22:485611,-33,-1,-17,-2,0,-3,-4,-53
15:36:22:493670,-33,-1,-17,-2,0,-3,-4,-53
15:36:22:494460,9,9,99,7,3,-7,17,58
15:36:22:500516,9,-4,31,4,25,-3,-4,0
15:36:22:516235,9,-4,31,4,25,-3,-4,0
15:36:22:516983,-10,-12,18,-11,-7,-17,-4,-24
15:36:22:522972,2,5,-95,-16,11,6,11,21
15:36:22:531256,2,5,-95,-16,11,6,11,21
15:36:22:531985,-25,-4,7,16,14,1,-28,-36
15:36:22:545531,9,6,2,-1,-11,-2,-5,2
15:36:22:553763,9,6,2,-1,-11,-2,-5,2
15:36:22:554501,5,3,4,-6,1,2,-10,-27
15:36:22:568061,14,-5,-6,-3,-23,-3,10,26
15:36:22:576154,14,-5,-6,-3,-23,-3,10,26
15:36:22:576967,13,-24,40,10,-14,2,4,19
15:36:22:583054,20,-1,-2,2,18,40,13,32
15:36:22:590533,20,-1,-2,2,18,40,13,32
15:36:22:598022,-12,-7,-32,-1,-1,0,-5,-31
15:36:22:614420,-19,-95,-20,-16,-15,-12,-16,-21
15:36:22:615170,-19,-95,-20,-16,-15,-12,-16,-21
15:36:22:615958,10,59,17,9,-3,-2,-6,33
15:36:22:627987,-5,34,7,3,7,-8,5,14
15:36:22:636303,-5,34,7,3,7,-8,5,14
15:36:22:637040,17,28,22,0,-11,-5,12,-1
15:36:22:643001,-20,-26,-6,2,9,-5,2,2
15:36:22:650550,-20,-26,-6,2,9,-5,2,2
15:36:22:658019,-4,2,6,-7,-11,-10,-2,7
15:36:22:665559,60,35,14,7,-4,-12,9,-3
15:36:22:673697,60,35,14,7,-4,-12,9,-3
15:36:22:674468,-10,6,-60,-2,27,-5,-39,-104
15:36:22:688011,7,9,-23,0,11,10,-9,-27
15:36:22:696139,7,9,-23,0,11,10,-9,-27
15:36:22:697016,-2,-20,38,0,-17,6,24,39
15:36:22:703060,-34,1,38,-6,-28,-8,-3,-28
15:36:22:718837,-34,1,38,-6,-28,-8,-3,-28
15:36:22:719519,12,-4,-1,2,15,10,12,31
15:36:22:725480,-4,8,9,-2,-4,-5,7,37
15:36:22:733696,-4,8,9,-2,-4,-5,7,37
15:36:22:734491,-17,-6,18,-3,-13,-4,-4,2
15:36:22:748030,10,21,-30,-3,-1,12,13,10
15:36:22:756153,10,21,-30,-3,-1,12,13,10
15:36:22:756951,-31,15,-20,6,25,-2,-30,-94
15:36:22:763006,-16,6,-12,-1,3,-14,-15,-36
15:36:22:770562,-16,6,-12,-1,3,-14,-15,-36
15:36:22:778013,25,-1,1,1,-4,-3,10,23
15:36:22:785580,-6,-47,23,-4,1,-6,-4,16
15:36:22:793696,-6,-47,23,-4,1,-6,-4,16
15:36:22:794462,32,-7,-54,-5,-6,13,-1,-20
15:36:22:808039,2,11,13,-1,-27,-15,4,22
15:36:22:816176,2,11,13,-1,-27,-15,4,22
15:36:22:816981,-4,-12,18,0,51,35,11,20
15:36:22:823035,11,8,-12,-2,4,6,5,27
15:36:22:830572,11,8,-12,-2,4,6,5,27
15:36:22:837990,-20,-11,-18,-18,-45,-25,8,36
15:36:22:845475,-9,3,31,8,49,13,-9,39
15:36:22:853759,-9,3,31,8,49,13,-9,39
15:36:22:854553,-14,4,-32,-5,-23,-24,-8,-5
15:36:22:868092,0,-11,-1,6,7,-4,-7,-30
15:36:22:876181,0,-11,-1,6,7,-4,-7,-30
15:36:22:876965,29,18,29,-1,-4,-7,3,36
15:36:22:891199,14,50,4,-1,5,25,7,18
15:36:22:891995,14,50,4,-1,5,25,7,18
15:36:22:897991,-10,-15,2,10,2,-6,-10,-3
15:36:22:905449,-8,-2,13,10,-4,-5,-5,-25
15:36:22:913722,-8,-2,13,10,-4,-5,-5,-25
15:36:22:914514,5,-8,5,0,-35,-7,7,16
15:36:22:927981,-9,-18,3,5,51,-8,-16,10
15:36:22:936251,-9,-18,3,5,51,-8,-16,10
15:36:22:936991,4,-6,62,15,26,1,-13,-2
15:36:22:942927,33,-18,-63,-12,-33,-6,-25,-32
15:36:22:950573,33,-18,-63,-12,-33,-6,-25,-32
15:36:22:957986,-17,-34,20,-8,13,-7,-4,-19
15:36:22:965522,-12,-1,54,-1,-10,-6,8,7
15:36:22:973719,-12,-1,54,-1,-10,-6,8,7
15:36:22:974511,18,29,-17,-7,-1,9,5,6
15:36:22:987971,-29,-14,-7,-8,-16,-10,-1,-16
15:36:22:996216,-29,-14,-7,-8,-16,-10,-1,-16
15:36:22:996991,-16,6,7,-11,-17,1,16,-4
15:36:23:2996,3,22,-1,3,9,6,-7,-13
15:36:23:10518,3,22,-1,3,9,6,-7,-13
15:36:23:17994,2,2,-23,8,39,-6,-10,-14
15:36:23:25456,2,1,-24,-11,-20,-9,-2,-12
15:36:23:33730,2,1,-24,-11,-20,-9,-2,-12
15:36:23:34501,-3,-48,-39,-14,-34,-11,1,5
15:36:23:48026,-3,5,-44,5,16,7,50,10
15:36:23:56201,-3,5,-44,5,16,7,50,10
15:36:23:57017,25,20,8,4,0,16,9,-5
15:36:23:63007,-13,-14,48,7,-5,5,-15,15
15:36:23:70576,-13,-14,48,7,-5,5,-15,15
15:36:23:77988,-2,-8,-27,-9,-13,-12,3,-2
15:36:23:85526,-9,-12,-11,-3,2,4,-13,6
15:36:23:93639,-9,-12,-11,-3,2,4,-13,6
15:36:23:94455,-3,1,29,-6,-2,-3,-12,-12
15:36:23:108007,1,-14,4,8,25,45,6,-25
15:36:23:116217,1,-14,4,8,25,45,6,-25
15:36:23:117018,-12,8,-16,4,4,7,-2,8
15:36:23:123011,-11,-27,26,-2,-44,-24,-8,-13
15:36:23:130561,-11,-27,26,-2,-44,-24,-8,-13
15:36:23:138009,0,25,42,14,36,35,5,-18
15:36:23:154412,8,44,-2,-10,-2,-8,3,-6
15:36:23:155188,8,44,-2,-10,-2,-8,3,-6
15:36:23:155949,7,-16,-6,-7,-30,-30,-4,19
15:36:23:168537,3,-10,-8,12,-2,2,-9,-16
15:36:23:176210,3,-10,-8,12,-2,2,-9,-16
15:36:23:176986,0,19,-4,8,-2,1,6,6
15:36:23:182955,4,-11,26,-8,10,-10,-12,5
15:36:23:190579,4,-11,26,-8,10,-10,-12,5
15:36:23:198030,1,6,-1,-10,-18,-14,9,27
15:36:23:205536,-2,-38,-52,-17,49,6,4,13
15:36:23:213711,-2,-38,-52,-17,49,6,4,13
15:36:23:214507,-16,-8,5,14,17,11,-1,12
15:36:23:227970,19,17,-34,-8,-45,-16,0,6
15:36:23:236284,19,17,-34,-8,-45,-16,0,6
15:36:23:236998,-6,6,0,-5,13,3,1,-18
15:36:23:242968,-15,6,49,7,0,-1,-26,-26
15:36:23:250546,-15,6,49,7,0,-1,-26,-26
15:36:23:257982,10,-27,-16,28,5,-5,-14,6
15:36:23:265502,-2,8,-7,4,1,-6,16,35
15:36:23:273704,-2,8,-7,4,1,-6,16,35
15:36:23:274510,-13,-15,-52,-12,-10,-7,-17,-13
15:36:23:288034,-15,49,-11,2,-14,-11,-7,4
15:36:23:296194,-15,49,-11,2,-14,-11,-7,4
15:36:23:296984,-7,9,9,-7,-20,-5,-12,-12
15:36:23:303060,33,-8,8,-7,3,3,9,33
15:36:23:310526,33,-8,8,-7,3,3,9,33
15:36:23:317964,-21,-2,-2,-5,14,7,9,2
15:36:23:325414,-23,8,19,21,6,22,1,-39
15:36:23:333746,-23,8,19,21,6,22,1,-39
15:36:23:334528,7,-30,1,0,-33,-15,5,12
15:36:23:348085,-5,-44,-43,0,57,14,8,-9
15:36:23:356187,-5,-44,-43,0,57,14,8,-9
15:36:23:356998,4,25,-35,-19,-17,-4,7,-5
15:36:23:362973,-12,-11,-4,-9,-17,-12,-10,-6
15:36:23:370570,-12,-11,-4,-9,-17,-12,-10,-6
15:36:23:377972,-12,-21,-2,10,-2,9,2,2
15:36:23:385511,14,-15,-3,4,-24,-1,7,-25
15:36:23:393681,14,-15,-3,4,-24,-1,7,-25
15:36:23:394500,0,35,12,-6,8,-6,-3,-22
15:36:23:408005,-5,-13,-8,-3,-35,-12,9,28
15:36:23:416235,-5,-13,-8,-3,-35,-12,9,28
15:36:23:416968,6,41,28,9,22,1,1,-16
15:36:23:422978,7,-3,25,-14,-6,-14,-18,5
15:36:23:430618,7,-3,25,-14,-6,-14,-18,5
15:36:23:446118,-47,-35,37,-5,-3,-2,-26,-50
15:36:23:446936,17,7,25,8,21,3,0,-17
15:36:23:453723,17,7,25,8,21,3,0,-17
15:36:23:454546,14,-1,-8,-12,-26,-11,6,30
15:36:23:467999,-7,33,-2,5,16,15,-18,10
15:36:23:476198,-7,33,-2,5,16,15,-18,10
15:36:23:476963,19,9,25,8,8,-12,-11,-10
15:36:23:483000,3,-7,-9,5,-5,-5,8,22
15:36:23:490558,3,-7,-9,5,-5,-5,8,22
15:36:23:498033,13,-5,-10,-19,-43,-11,4,4
15:36:23:505496,0,6,26,4,44,28,12,5
15:36:23:513019,0,6,26,4,44,28,12,5
15:36:23:520550,-3,-42,-18,1,5,3,-8,-35
15:36:23:527969,-30,15,12,-4,-27,-13,2,-9
15:36:23:536239,-30,15,12,-4,-27,-13,2,-9
15:36:23:536990,20,19,-14,-3,11,6,28,46
15:36:23:551284,12,-14,-4,-1,-22,-2,-4,-10
15:36:23:552016,12,-14,-4,-1,-22,-2,-4,-10
15:36:23:557997,7,27,-5,3,10,10,-25,15
15:36:23:565546,27,37,18,5,-12,-23,-13,-4
15:36:23:573013,27,37,18,5,-12,-23,-13,-4
15:36:23:580533,-14,-10,23,-11,25,3,9,1
15:36:23:588022,-5,6,19,-13,-15,-10,4,-2
15:36:23:596201,-5,6,19,-13,-15,-10,4,-2
15:36:23:596972,-17,-20,7,-5,-18,-1,-2,1
15:36:23:611142,-5,-28,-21,-2,8,-1,7,-11
15:36:23:611945,-5,-28,-21,-2,8,-1,7,-11
15:36:23:618026,-3,15,0,9,9,6,8,10
15:36:23:625501,13,-15,-53,-10,-10,2,-16,-16
15:36:23:633042,13,-15,-53,-10,-10,2,-16,-16
15:36:23:640469,-9,-9,-3,3,8,8,-38,-54
15:36:23:648000,-14,-10,-42,4,25,7,11,7
15:36:23:656229,-14,-10,-42,4,25,7,11,7
15:36:23:657000,13,-28,-13,2,15,-9,7,39
15:36:23:671225,7,33,-49,-22,11,-12,-13,-31
15:36:23:672034,7,33,-49,-22,11,-12,-13,-31
15:36:23:677927,17,8,-35,3,-1,-5,-3,-19
15:36:23:685566,0,-29,19,11,6,1,15,26
15:36:23:693030,0,-29,19,11,6,1,15,26
15:36:23:700505,-3,-6,9,-10,-32,-2,9,19
15:36:23:707981,1,-5,3,-2,-22,-7,20,12
15:36:23:723708,1,-5,3,-2,-22,-7,20,12
15:36:23:724510,11,25,11,5,-7,1,19,1
15:36:23:731181,-17,-4,3,-2,-1,-3,-12,-40
15:36:23:731973,-17,-4,3,-2,-1,-3,-12,-40
15:36:23:737983,-23,-30,-102,-25,-12,-5,-1,-4
15:36:23:745453,-4,6,30,5,-4,0,11,21
15:36:23:753099,-4,6,30,5,-4,0,11,21
15:36:23:760447,19,-10,-56,-1,10,4,16,8
15:36:23:768005,-6,-10,-35,-15,-42,-14,7,23
15:36:23:783757,-6,-10,-35,-15,-42,-14,7,23
15:36:23:784549,-20,9,64,15,54,32,0,-17
15:36:23:791195,-11,18,60,10,10,3,-7,-2
15:36:23:792033,-11,18,60,10,10,3,-7,-2
15:36:23:797979,8,13,45,8,-32,-10,-6,-2
15:36:23:805528,3,1,17,11,22,12,-11,-9
15:36:23:813093,3,1,17,11,22,12,-11,-9
15:36:23:820548,-21,-10,9,-8,-12,-12,-11,5
15:36:23:827964,-11,-11,21,3,22,3,-16,8
15:36:23:836257,-11,-11,21,3,22,3,-16,8
15:36:23:836961,3,13,6,7,-4,-4,5,12
15:36:23:851248,3,37,15,1,-41,-24,-23,-32
15:36:23:852001,3,37,15,1,-41,-24,-23,-32
15:36:23:858018,-10,10,4,-1,14,-5,-12,-5
15:36:23:873719,-12,5,-13,-4,-13,-1,10,4
15:36:23:874487,-12,5,-13,-4,-13,-1,10,4
15:36:23:880484,-7,-8,15,-18,16,-1,-19,-19
15:36:23:888008,0,-21,-14,-8,13,6,3,-6
15:36:23:896194,0,-21,-14,-8,13,6,3,-6
15:36:23:897044,13,-16,-12,-13,-36,0,5,6
15:36:23:911190,-2,-17,-24,-7,9,4,-28,-9
15:36:23:912011,-2,-17,-24,-7,9,4,-28,-9
15:36:23:918020,18,-3,-26,0,10,-23,6,4
15:36:23:925478,6,-4,-10,10,8,9,0,7
15:36:23:933071,6,-4,-10,10,8,9,0,7
15:36:23:940504,14,10,-1,12,-24,9,-2,13
15:36:23:948031,-6,11,-49,2,13,6,20,20
15:36:23:956177,-6,11,-49,2,13,6,20,20
15:36:23:956978,-4,5,9,3,-15,-11,8,-43
15:36:23:971253,-7,-2,-4,-18,-14,-4,-26,-7
15:36:23:972018,-7,-2,-4,-18,-14,-4,-26,-7
15:36:23:978018,-9,14,16,8,-17,-1,-11,-2
15:36:23:985552,11,48,21,-4,18,14,4,6
15:36:24:1316,11,48,21,-4,18,14,4,6
15:36:24:2033,-9,10,9,0,9,6,4,-28
15:36:24:7978,-11,-30,-40,-4,-14,-21,-7,-5
15:36:24:16255,-11,-30,-40,-4,-14,-21,-7,-5
15:36:24:17031,0,4,15,9,-26,-11,5,27
15:36:24:31218,7,-25,-29,9,62,30,25,3
15:36:24:32043,7,-25,-29,9,62,30,25,3
15:36:24:37988,-23,-30,-12,15,23,8,-3,-8
15:36:24:45486,9,4,13,0,-31,-13,4,13
15:36:24:53095,9,4,13,0,-31,-13,4,13
15:36:24:60507,4,-7,-24,-8,-3,-2,-15,6
15:36:24:68036,-4,5,27,-14,-28,4,2,21
15:36:24:76177,-4,5,27,-14,-28,4,2,21
15:36:24:76978,29,-2,-16,-3,-2,-9,-38,-14
15:36:24:91176,-14,2,18,-16,-30,-14,9,-11
15:36:24:91995,-14,2,18,-16,-30,-14,9,-11
15:36:24:98032,-11,-22,-26,7,38,-4,1,17
15:36:24:105511,-1,15,-11,-10,-17,-17,-5,-17
