Time,EMG1,EMG2,EMG3,EMG4,EMG5,EMG6,EMG7,EMG8
15:04:14:384659,-1,-1,-2,2,4,1,0,-4
15:04:14:385495,0,-1,-1,-1,3,1,-4,-2
15:04:14:391436,-1,-2,-4,-4,-1,-1,-3,0
15:04:14:407191,-1,-2,-4,-4,-1,-1,-3,0
15:04:14:407947,1,-4,1,-3,-4,1,-3,1
15:04:14:413944,0,-2,-2,-6,-4,-4,0,3
15:04:14:422201,0,-2,-2,-6,-4,-4,0,3
15:04:14:423014,0,0,9,3,-4,-5,-3,-1
15:04:14:436510,-5,-3,-1,-4,-2,-4,3,-10
15:04:14:444711,-5,-3,-1,-4,-2,-4,3,-10
15:04:14:445446,-8,2,-2,2,2,3,-1,-4
15:04:14:451437,0,-1,-8,-4,-6,-2,-2,-1
15:04:14:467175,0,-1,-8,-4,-6,-2,-2,-1
15:04:14:467951,2,-2,1,-3,-9,-5,-3,-4
15:04:14:473919,-3,-1,0,2,-3,2,-3,-3
15:04:14:482993,-3,-1,0,2,-3,2,-3,-3
15:04:14:483146,3,1,-2,0,9,4,8,4
15:04:14:496406,0,0,1,-1,1,-2,1,5
15:04:14:504715,0,0,1,-1,1,-2,1,5
15:04:14:505486,0,-1,-4,-6,-6,-4,-3,-1
15:04:14:511401,-2,-1,-1,-1,-4,-3,-2,-2
15:04:14:527166,-2,-1,-1,-1,-4,-3,-2,-2
15:04:14:527977,0,-1,-5,-2,2,-1,-2,-4
15:04:14:534008,2,0,-2,3,-1,2,-2,2
15:04:14:542211,2,0,-2,3,-1,2,-2,2
15:04:14:543013,3,0,-2,-3,-4,-3,3,-1
15:04:14:556455,-10,-2,0,-4,-2,0,-1,1
15:04:14:564649,-10,-2,0,-4,-2,0,-1,1
15:04:14:565475,-1,1,-2,1,8,1,-3,-3
15:04:14:571479,2,1,-2,1,0,2,1,-1
15:04:14:587157,2,1,-2,1,0,2,1,-1
15:04:14:587960,-1,-2,-2,-5,-8,-5,-5,1
15:04:14:593989,2,1,2,0,0,-3,-3,-2
15:04:14:602172,2,1,2,0,0,-3,-3,-2
15:04:14:602975,0,2,-2,1,1,3,5,3
15:04:14:616501,0,-4,-2,0,5,-1,-2,0
15:04:14:624614,0,-4,-2,0,5,-1,-2,0
15:04:14:625433,1,-2,1,1,-6,-7,0,-2
15:04:14:631445,1,-2,1,0,0,-1,5,1
15:04:14:647125,1,-2,1,0,0,-1,5,1
15:04:14:647934,-1,-1,1,-2,1,5,-4,-1
15:04:14:653968,-3,-1,-2,-2,-3,-2,-3,-2
15:04:14:662177,-3,-1,-2,-2,-3,-2,-3,-2
15:04:14:662935,-2,-4,-4,-3,-1,-3,-5,-3
15:04:14:676458,-1,-6,-12,-7,0,1,-3,-1
15:04:14:684638,-1,-6,-12,-7,0,1,-3,-1
15:04:14:685436,-3,-4,-5,-2,-4,2,4,0
15:04:14:691440,3,3,2,0,-4,-4,-3,-3
15:04:14:707224,3,3,2,0,-4,-4,-3,-3
15:04:14:707998,0,1,0,-1,3,0,4,-5
15:04:14:713951,-1,0,0,0,-1,-3,-2,1
15:04:14:722170,-1,0,0,0,-1,-3,-2,1
15:04:14:722919,-1,3,3,2,-9,3,-3,-1
15:04:14:736545,3,2,0,2,2,0,4,-2
15:04:14:744647,3,2,0,2,2,0,4,-2
15:04:14:745466,-1,-1,-1,2,3,-5,0,-2
15:04:14:751517,1,-3,2,2,2,-3,0,0
15:04:14:767208,1,-3,2,2,2,-3,0,0
15:04:14:767981,-1,-3,-7,-6,-2,-5,-3,0
15:04:14:773949,-5,2,-3,2,6,2,2,-3
15:04:14:782136,-5,2,-3,2,6,2,2,-3
15:04:14:782899,0,-2,-6,-1,-5,0,-1,0
15:04:14:796445,0,1,3,2,0,0,-4,1
15:04:14:804703,0,1,3,2,0,0,-4,1
15:04:14:805499,-3,1,1,-3,1,-4,-5,-2
15:04:14:819006,-3,-2,2,1,-1,2,4,2
15:04:14:827206,-3,-2,2,1,-1,2,4,2
15:04:14:827966,-3,-1,-3,-2,-3,-1,-2,0
15:04:14:833961,-1,-1,12,4,-5,-1,-1,-1
15:04:14:841510,-1,-1,12,4,-5,-1,-1,-1
15:04:14:848974,0,-3,-9,-2,-2,3,4,-6
15:04:14:856429,2,-2,-6,-10,-11,-8,-7,-2
15:04:14:864640,2,-2,-6,-10,-11,-8,-7,-2
15:04:14:865419,-3,-3,8,-1,8,3,-2,0
15:04:14:878927,-11,-4,-6,-4,0,3,1,-7
15:04:14:887234,-11,-4,-6,-4,0,3,1,-7
15:04:14:888000,0,-2,1,0,-2,-3,0,2
15:04:14:893963,-1,-1,-7,-1,1,-2,-6,-1
15:04:14:901493,-1,-1,-7,-1,1,-2,-6,-1
15:04:14:908964,-3,-1,4,4,-2,-2,3,-3
15:04:14:916493,1,2,-5,-1,1,-4,3,-1
15:04:14:924641,1,2,-5,-1,1,-4,3,-1
15:04:14:925418,2,-1,6,-2,-1,0,1,3
15:04:14:938964,3,0,9,1,-2,2,-4,-1
15:04:14:947138,3,0,9,1,-2,2,-4,-1
15:04:14:947919,3,-2,-5,-4,-1,0,-1,1
15:04:14:953995,-5,0,-3,1,1,-1,3,-2
15:04:14:961502,-5,0,-3,1,1,-1,3,-2
15:04:14:968941,-7,-3,-15,-3,-2,-4,-10,-5
15:04:14:976449,3,1,6,0,2,-2,-2,0
15:04:14:984396,3,1,6,0,2,-2,-2,0
15:04:14:991417,3,4,5,-1,-2,0,-6,-5
15:04:14:998986,-6,-8,-8,-10,-6,-2,-4,0
15:04:15:7185,-6,-8,-8,-10,-6,-2,-4,0
15:04:15:7939,-2,-1,14,8,4,-6,-3,1
15:04:15:13914,-3,-2,-7,1,-3,0,-2,1
15:04:15:21530,-3,-2,-7,1,-3,0,-2,1
15:04:15:28920,-11,-4,-2,-2,-5,0,1,-2
15:04:15:36465,0,0,-2,-1,0,1,-2,-2
15:04:15:44610,0,0,-2,-1,0,1,-2,-2
15:04:15:45429,2,-1,-9,1,3,0,1,0
15:04:15:58935,1,-6,-1,0,0,-3,1,-5
15:04:15:67200,1,-6,-1,0,0,-3,1,-5
15:04:15:68006,0,2,10,-1,-5,2,2,-1
15:04:15:73940,-2,-1,-11,-2,-1,0,1,1
15:04:15:81502,-2,-1,-11,-2,-1,0,1,1
15:04:15:88978,2,-2,3,-1,0,0,3,1
15:04:15:96487,3,-1,2,0,-2,-1,3,0
15:04:15:104671,3,-1,2,0,-2,-1,3,0
15:04:15:105451,1,5,-1,2,0,1,1,0
15:04:15:118986,3,2,5,-7,-3,0,-2,-1
15:04:15:127171,3,2,5,-7,-3,0,-2,-1
15:04:15:127972,-1,-3,-1,-4,-1,-5,0,2
15:04:15:133977,2,0,5,-2,-2,-4,-2,2
15:04:15:141462,2,0,5,-2,-2,-4,-2,2
15:04:15:148946,-5,-1,-19,-6,-1,-2,-5,-1
15:04:15:165361,-3,-3,3,6,1,0,-1,1
15:04:15:166168,-3,-3,3,6,1,0,-1,1
15:04:15:166901,2,-1,-2,2,-4,-1,-3,-2
15:04:15:178935,1,-3,-8,-5,1,0,0,-3
15:04:15:187258,1,-3,-8,-5,1,0,0,-3
15:04:15:188012,14,2,11,4,-1,-1,1,-4
15:04:15:193991,-11,2,1,3,-4,-3,0,-4
15:04:15:201536,-11,2,1,3,-4,-3,0,-4
15:04:15:208968,4,-1,-6,-1,4,7,2,-1
15:04:15:216517,3,4,18,22,1,-9,-3,4
15:04:15:224640,3,4,18,22,1,-9,-3,4
15:04:15:225444,-5,-4,-9,-7,1,-3,-5,1
15:04:15:238973,0,-1,-7,2,1,1,-2,-1
15:04:15:247179,0,-1,-7,2,1,1,-2,-1
15:04:15:247932,-2,1,14,10,-3,4,3,-3
15:04:15:254005,3,-4,6,1,-1,4,0,9
15:04:15:261478,3,-4,6,1,-1,4,0,9
15:04:15:268930,-3,-2,-13,-11,-2,-7,-2,-5
15:04:15:285334,-4,1,11,4,4,1,0,-2
15:04:15:286181,-4,1,11,4,4,1,0,-2
15:04:15:286943,1,-2,-23,-11,-5,-4,6,4
15:04:15:298988,4,-2,1,-3,2,3,6,-4
15:04:15:307133,4,-2,1,-3,2,3,6,-4
15:04:15:307997,-3,1,27,15,3,1,-6,-8
15:04:15:322196,-1,-1,-26,-17,-4,1,-5,-3
15:04:15:322993,-1,-1,-26,-17,-4,1,-5,-3
15:04:15:328981,1,0,1,1,-1,-3,-5,1
15:04:15:336507,-6,-5,-59,-21,-4,-1,-2,4
15:04:15:344722,-6,-5,-59,-21,-4,-1,-2,4
15:04:15:345501,-8,-2,-9,-9,-2,-2,-1,-4
15:04:15:359448,2,0,9,-2,-2,-2,1,2
15:04:15:367195,2,0,9,-2,-2,-2,1,2
15:04:15:368019,-4,0,1,2,0,2,-10,-1
15:04:15:373945,19,-1,5,2,-2,-5,-4,2
15:04:15:381496,19,-1,5,2,-2,-5,-4,2
15:04:15:388994,-5,4,28,15,1,-2,-7,-3
15:04:15:396435,3,-4,-6,-7,-2,-1,4,-3
15:04:15:404482,3,-4,-6,-7,-2,-1,4,-3
15:04:15:411498,-3,0,-8,-20,-2,-2,2,-3
15:04:15:418986,-7,0,10,-4,-4,0,-4,-5
15:04:15:427177,-7,0,10,-4,-4,0,-4,-5
15:04:15:427966,-2,-4,-9,4,0,4,0,0
15:04:15:442158,-9,1,15,10,9,8,1,-4
15:04:15:442969,-9,1,15,10,9,8,1,-4
15:04:15:448982,4,1,0,-3,-1,-1,12,7
15:04:15:456446,-7,0,-2,1,-6,-3,-6,-2
15:04:15:464659,-7,0,-2,1,-6,-3,-6,-2
15:04:15:465520,5,-4,-15,-4,1,-2,-4,-4
15:04:15:478990,-5,-3,-19,-16,-4,-2,2,-2
15:04:15:487225,-5,-3,-19,-16,-4,-2,2,-2
15:04:15:487964,-2,-5,3,0,-1,1,-2,-1
15:04:15:493973,-12,-5,0,0,-6,-4,-2,-5
15:04:15:501558,-12,-5,0,0,-6,-4,-2,-5
15:04:15:508938,-5,0,-11,-4,-1,-4,1,-2
15:04:15:516426,-1,3,14,6,6,1,0,0
15:04:15:524699,-1,3,14,6,6,1,0,0
15:04:15:525486,-1,0,1,3,2,-1,-4,-2
15:04:15:538933,0,-1,12,1,-8,-7,2,-9
15:04:15:547157,0,-1,12,1,-8,-7,2,-9
15:04:15:547937,-3,-3,-8,-6,-1,2,1,3
15:04:15:553923,2,1,8,7,-3,-4,-8,2
15:04:15:561494,2,1,8,7,-3,-4,-8,2
15:04:15:568960,-1,-3,-10,1,0,1,4,1
15:04:15:576470,2,3,10,7,5,5,2,-3
15:04:15:584681,2,3,10,7,5,5,2,-3
15:04:15:585500,-3,1,-6,-7,-11,-10,-7,3
15:04:15:598957,0,-3,-10,-10,-1,-1,-1,5
15:04:15:607172,0,-3,-10,-10,-1,-1,-1,5
15:04:15:607945,-13,0,8,-2,-3,0,-7,-8
15:04:15:613915,1,-1,4,0,-2,0,-3,-3
15:04:15:621531,1,-1,4,0,-2,0,-3,-3
15:04:15:628940,4,-2,7,4,-2,-1,1,-2
15:04:15:636465,-3,-2,2,0,0,-1,0,-6
15:04:15:644655,-3,-2,2,0,0,-1,0,-6
15:04:15:645468,3,0,11,10,-3,-1,1,-3
15:04:15:658943,5,0,0,1,1,-1,-1,3
15:04:15:667160,5,0,0,1,1,-1,-1,3
15:04:15:667983,-1,0,9,1,1,2,4,0
15:04:15:673981,-1,-1,-7,-2,-4,-1,-1,1
15:04:15:681509,-1,-1,-7,-2,-4,-1,-1,1
15:04:15:688961,2,-1,-1,2,2,-2,6,-1
15:04:15:696445,-2,0,0,4,-2,2,-7,-1
15:04:15:704687,-2,0,0,4,-2,2,-7,-1
15:04:15:705443,0,-4,-10,-13,-7,-7,-6,2
15:04:15:718974,-1,1,9,8,6,1,5,6
15:04:15:727149,-1,1,9,8,6,1,5,6
15:04:15:727914,-2,3,8,6,3,2,2,-4
15:04:15:742143,-1,0,7,-3,-4,-2,6,-4
15:04:15:742954,-1,0,7,-3,-4,-2,6,-4
15:04:15:749007,-3,-5,-18,-9,-1,-2,-8,1
15:04:15:756434,-2,0,-5,-13,-8,5,1,-4
15:04:15:763977,-2,0,-5,-13,-8,5,1,-4
15:04:15:771475,2,-3,-6,-5,5,5,1,-4
15:04:15:778958,-4,-1,-9,3,6,-5,-5,-2
15:04:15:787209,-4,-1,-9,3,6,-5,-5,-2
15:04:15:787952,2,1,1,-3,-6,-2,-8,11
15:04:15:802180,-4,-4,-5,-5,-5,-5,-11,-1
15:04:15:802948,-4,-4,-5,-5,-5,-5,-11,-1
15:04:15:808965,2,-5,3,4,1,-2,-6,-6
15:04:15:816487,2,-5,-7,-2,-2,-3,-1,0
15:04:15:823970,2,-5,-7,-2,-2,-3,-1,0
15:04:15:831468,-1,3,24,9,-2,-2,6,7
15:04:15:838933,-10,-2,-31,-6,5,3,-3,-6
15:04:15:847139,-10,-2,-31,-6,5,3,-3,-6
15:04:15:847995,11,7,15,19,3,0,3,-3
15:04:15:862133,-6,-3,-25,-3,0,1,6,-7
15:04:15:862949,-6,-3,-25,-3,0,1,6,-7
15:04:15:868939,-3,-3,5,-5,-3,-2,4,7
15:04:15:876442,-2,-2,9,5,0,1,3,0
15:04:15:884015,-2,-2,9,5,0,1,3,0
15:04:15:891440,0,-2,-17,-8,5,0,-9,-10
15:04:15:898930,-6,1,14,5,-2,-1,1,4
15:04:15:907164,-6,1,14,5,-2,-1,1,4
15:04:15:907961,19,7,-23,0,3,3,12,10
15:04:15:922186,14,0,23,2,-1,-2,1,6
15:04:15:922978,14,0,23,2,-1,-2,1,6
15:04:15:928949,-4,-3,-4,-2,0,0,-3,-2
15:04:15:936454,2,-2,9,-2,-5,-5,4,-2
15:04:15:944013,2,-2,9,-2,-5,-5,4,-2
15:04:15:951485,-28,-4,-3,0,2,0,-1,-11
15:04:15:958977,-8,0,10,7,3,-1,-7,2
15:04:15:967150,-8,0,10,7,3,-1,-7,2
15:04:15:968003,-7,-13,-2,-9,-6,-6,-7,-4
15:04:15:982211,5,1,5,-8,-1,-3,0,1
15:04:15:982974,5,1,5,-8,-1,-3,0,1
15:04:15:997095,-4,-6,-33,-18,-6,2,-1,-3
15:04:15:997879,-3,6,-6,-5,-3,1,5,-2
15:04:16:4041,-3,6,-6,-5,-3,1,5,-2
15:04:16:11470,13,0,14,0,-3,0,-1,-4
15:04:16:18940,-7,-22,-9,-6,-3,0,-4,-7
15:04:16:27207,-7,-22,-9,-6,-3,0,-4,-7
15:04:16:28002,-3,-6,3,-6,-4,-2,-2,2
15:04:16:42170,0,5,0,-2,0,-5,-2,-1
15:04:16:42985,0,5,0,-2,0,-5,-2,-1
15:04:16:48956,-1,9,6,5,3,-4,-1,1
15:04:16:56415,0,2,5,1,-8,-2,-5,-5
15:04:16:64005,0,2,5,1,-8,-2,-5,-5
15:04:16:71443,-3,0,-13,-2,-9,-2,-4,2
15:04:16:78923,4,2,7,3,9,7,2,-3
15:04:16:87183,4,2,7,3,9,7,2,-3
15:04:16:87931,-2,-4,-1,-3,-3,-1,7,-8
15:04:16:102223,-1,-3,-19,-16,-9,-3,-4,1
15:04:16:102958,-1,-3,-19,-16,-9,-3,-4,1
15:04:16:108940,-5,3,12,5,6,-1,-2,0
15:04:16:116428,-4,-6,-2,-2,-2,-4,-2,-1
15:04:16:123992,-4,-6,-2,-2,-2,-4,-2,-1
15:04:16:131511,1,-2,1,-3,-5,3,-2,-6
15:04:16:138966,3,10,14,4,1,0,-1,-3
15:04:16:147115,3,10,14,4,1,0,-1,-3
15:04:16:147946,-10,-3,4,7,2,0,-3,0
15:04:16:162115,-2,-3,-6,-6,-2,1,3,0
15:04:16:162943,-2,-3,-6,-6,-2,1,3,0
15:04:16:168966,-1,6,-5,-15,-3,-1,-2,3
15:04:16:176483,1,-3,-8,-2,1,-1,-4,2
15:04:16:184036,1,-3,-8,-2,1,-1,-4,2
15:04:16:191427,0,-5,9,6,0,-3,0,-2
15:04:16:198927,-2,-9,4,5,-3,-3,-3,-3
15:04:16:207183,-2,-9,4,5,-3,-3,-3,-3
15:04:16:207945,5,22,-15,-9,-5,0,0,0
15:04:16:222163,-1,-8,6,-1,2,-4,-1,4
15:04:16:222954,-1,-8,6,-1,2,-4,-1,4
15:04:16:228916,-5,-17,10,2,-2,-4,-2,-2
15:04:16:236460,-3,-3,-6,1,-1,4,-3,-3
15:04:16:243971,-3,-3,-6,1,-1,4,-3,-3
15:04:16:251487,-2,-7,-8,-2,1,-2,-3,11
15:04:16:258930,-2,1,-12,-10,-19,-7,-1,1
15:04:16:267175,-2,1,-12,-10,-19,-7,-1,1
15:04:16:267973,3,9,-4,9,13,5,5,0
15:04:16:282160,5,12,7,3,0,-2,-1,-4
15:04:16:282936,5,12,7,3,0,-2,-1,-4
15:04:16:288900,3,7,16,-4,-2,-7,-8,-8
15:04:16:296400,-4,2,5,-2,-4,-1,2,0
15:04:16:304004,-4,2,5,-2,-4,-1,2,0
15:04:16:311495,0,8,6,-4,-7,1,3,-1
15:04:16:318961,-5,-26,-35,-26,6,4,-1,3
15:04:16:327199,-5,-26,-35,-26,6,4,-1,3
15:04:16:327999,1,-16,-4,5,5,3,0,-5
15:04:16:342205,2,17,1,15,0,-5,-8,-10
15:04:16:343043,2,17,1,15,0,-5,-8,-10
15:04:16:348963,-4,-17,-11,-3,3,1,-2,2
15:04:16:356415,3,1,26,1,4,2,3,-7
15:04:16:364019,3,1,26,1,4,2,3,-7
15:04:16:371463,-3,15,9,0,-4,1,0,-11
15:04:16:378942,-49,7,4,-1,-2,-6,-3,1
15:04:16:387186,-49,7,4,-1,-2,-6,-3,1
15:04:16:387962,6,10,-13,-2,-2,-1,-4,-8
15:04:16:402207,12,9,1,5,-2,4,1,-4
15:04:16:403012,12,9,1,5,-2,4,1,-4
15:04:16:408926,2,-25,-11,-2,-3,-6,-4,-2
15:04:16:416447,8,-9,7,5,-2,-3,1,2
15:04:16:423997,8,-9,7,5,-2,-3,1,2
15:04:16:431529,7,9,2,0,-5,-3,3,7
15:04:16:438985,4,-32,-16,1,-2,3,0,6
15:04:16:447174,4,-32,-16,1,-2,3,0,6
15:04:16:447992,-3,28,40,2,5,0,3,-1
15:04:16:462118,-4,22,2,-3,-1,0,-1,-2
15:04:16:463005,-4,22,2,-3,-1,0,-1,-2
15:04:16:469028,0,-6,3,4,2,-3,-3,-6
15:04:16:476469,5,2,-18,-2,2,2,2,0
15:04:16:483994,5,2,-18,-2,2,2,2,0
15:04:16:491434,-4,-5,-7,-1,-9,-2,-7,1
15:04:16:498911,6,-1,-18,-7,5,1,-2,-1
15:04:16:507176,6,-1,-18,-7,5,1,-2,-1
15:04:16:507929,-23,-62,-38,-11,-3,-5,1,-2
15:04:16:522146,-5,-10,-2,2,-5,1,6,-4
15:04:16:522939,-5,-10,-2,2,-5,1,6,-4
15:04:16:528922,6,19,1,2,3,2,1,9
15:04:16:536481,-3,0,-10,0,-3,-7,-6,0
15:04:16:544027,-3,0,-10,0,-3,-7,-6,0
15:04:16:551487,9,0,-7,-5,-2,-1,0,3
15:04:16:558913,6,10,8,7,4,-3,-5,3
15:04:16:567155,6,10,8,7,4,-3,-5,3
15:04:16:567982,-1,5,4,5,-2,2,-1,-4
15:04:16:582141,0,13,13,7,-5,2,2,-5
15:04:16:582991,0,13,13,7,-5,2,2,-5
15:04:16:588923,-5,-16,-46,-14,2,-1,1,-3
15:04:16:596421,4,-8,-2,-4,-12,-9,-5,2
15:04:16:604021,4,-8,-2,-4,-12,-9,-5,2
15:04:16:611474,4,9,5,9,12,11,4,5
15:04:16:619666,6,10,8,4,8,1,-1,0
15:04:16:620472,6,10,8,4,8,1,-1,0
15:04:16:626477,-6,8,3,4,-5,-7,-3,-1
15:04:16:642174,15,-21,-5,-5,-2,-6,1,9
15:04:16:642995,15,-21,-5,-5,-2,-6,1,9
15:04:16:648991,-1,12,12,0,-6,1,-3,-3
15:04:16:656418,6,-12,-21,-8,0,2,-1,-4
15:04:16:663982,6,-12,-21,-8,0,2,-1,-4
15:04:16:671491,-3,9,7,-10,-11,-7,-6,-4
15:04:16:679594,-9,-1,13,3,10,7,-2,-1
15:04:16:680415,-9,-1,13,3,10,7,-2,-1
15:04:16:694007,1,3,13,0,0,-1,1,0
15:04:16:702163,0,16,4,-2,-3,-2,-1,-1
15:04:16:702938,0,16,4,-2,-3,-2,-1,-1
15:04:16:708976,11,1,-17,-2,-2,-2,2,6
15:04:16:724648,0,-1,3,6,2,1,1,-7
15:04:16:725465,0,-1,3,6,2,1,1,-7
15:04:16:731481,-5,-5,21,13,0,-3,0,-2
15:04:16:738955,-5,5,2,1,4,2,2,3
15:04:16:754697,-5,5,2,1,4,2,2,3
15:04:16:755484,-4,-5,-11,-5,3,7,-5,-3
15:04:16:762169,-4,-17,-9,-7,-6,-8,-2,-8
15:04:16:762977,-4,-17,-9,-7,-6,-8,-2,-8
15:04:16:768930,-12,-1,1,-2,1,-7,-3,-2
15:04:16:784728,-9,-8,-12,5,5,1,1,0
15:04:16:785521,-9,-8,-12,5,5,1,1,0
15:04:16:791416,2,-3,2,-6,-8,-2,-2,-3
15:04:16:798969,2,4,4,-3,-3,-1,-1,0
15:04:16:806491,2,4,4,-3,-3,-1,-1,0
15:04:16:813935,0,22,-6,-2,-1,-2,-2,0
15:04:16:822122,-1,-2,-2,-2,-4,0,-2,-2
15:04:16:822910,-1,-2,-2,-2,-4,0,-2,-2
15:04:16:828930,2,3,9,13,1,-4,0,1
15:04:16:844684,-14,-11,-46,-12,-3,-4,6,-1
15:04:16:845475,-14,-11,-46,-12,-3,-4,6,-1
15:04:16:851527,4,4,-12,-1,14,11,4,1
15:04:16:858994,2,8,16,-3,-2,-2,-1,1
15:04:16:866479,2,8,16,-3,-2,-2,-1,1
15:04:16:873981,-3,-2,1,-19,-18,-5,-2,-1
15:04:16:882171,0,1,16,2,-1,0,-8,3
15:04:16:882980,0,1,16,2,-1,0,-8,3
15:04:16:888904,-1,0,9,4,2,-1,-5,-1
15:04:16:904627,-11,-54,-1,-4,-4,-5,-4,-10
15:04:16:905443,-11,-54,-1,-4,-4,-5,-4,-10
15:04:16:911460,17,49,22,6,6,5,4,9
15:04:16:918959,8,22,30,10,-5,-5,-3,0
15:04:16:926507,8,22,30,10,-5,-5,-3,0
15:04:16:933930,-3,-3,-12,2,10,3,10,16
15:04:16:942140,5,12,-1,-1,3,2,-1,-1
15:04:16:942956,5,12,-1,-1,3,2,-1,-1
15:04:16:948917,-10,-16,3,-1,-14,-7,-3,-12
15:04:16:964705,-3,-3,-9,-7,5,4,0,3
15:04:16:965495,-3,-3,-9,-7,5,4,0,3
15:04:16:971447,-8,-20,-4,1,-4,-6,-3,0
15:04:16:979751,-2,12,-10,-10,9,4,-3,-9
15:04:16:980441,-2,12,-10,-10,9,4,-3,-9
15:04:16:994403,-11,-7,-5,-4,2,5,-2,0
15:04:17:2184,-5,-11,-41,6,1,2,8,11
15:04:17:2960,-5,-11,-41,6,1,2,8,11
15:04:17:8900,1,-20,-69,-17,-7,-7,-6,-5
15:04:17:24667,2,14,13,-2,-5,-4,-2,2
15:04:17:25460,2,14,13,-2,-5,-4,-2,2
15:04:17:31499,15,-16,6,7,5,3,3,-9
15:04:17:38978,-4,18,5,2,-1,-3,-2,-11
15:04:17:46499,-4,18,5,2,-1,-3,-2,-11
15:04:17:53912,-3,-35,8,-8,-9,-7,5,-9
15:04:17:62190,-2,-2,18,5,4,5,2,-2
15:04:17:62952,-2,-2,18,5,4,5,2,-2
15:04:17:68932,-5,5,2,0,3,-2,-6,-7
15:04:17:84697,-7,-8,10,0,-18,-13,-12,-1
15:04:17:85478,-7,-8,10,0,-18,-13,-12,-1
15:04:17:91431,-3,-4,-3,13,24,13,6,4
15:04:17:115335,3,4,-4,-9,2,0,1,-1
15:04:17:116058,3,4,-4,-9,2,0,1,-1
15:04:17:116906,-3,6,17,-3,-4,0,-3,-3
15:04:17:122123,-3,6,17,-3,-4,0,-3,-3
15:04:17:122931,-2,-28,-1,-3,-12,-6,-5,-5
15:04:17:128946,-3,-5,3,3,3,-5,-2,-4
15:04:17:144638,-3,-5,3,3,3,-5,-2,-4
15:04:17:145438,3,10,-1,2,7,5,5,5
15:04:17:151435,0,5,15,0,-4,-4,-7,2
15:04:17:167160,0,5,15,0,-4,-4,-7,2
15:04:17:167985,1,1,-18,0,0,4,8,0
15:04:17:173912,-1,10,13,3,-4,-3,-3,-2
15:04:17:182160,-1,10,13,3,-4,-3,-3,-2
15:04:17:182946,-3,-5,-21,-3,3,2,-13,2
15:04:17:188965,-1,-9,8,-4,-3,-1,0,9
15:04:17:204701,-1,-9,8,-4,-3,-1,0,9
15:04:17:205450,-5,5,16,-2,-10,-6,-6,-1
15:04:17:211435,2,3,6,-3,-9,-1,-4,-2
15:04:17:227201,2,3,6,-3,-9,-1,-4,-2
15:04:17:227959,2,-2,-1,-1,-8,-8,-5,0
15:04:17:233966,-2,3,4,4,6,6,2,-9
15:04:17:242202,-2,3,4,4,6,6,2,-9
15:04:17:242963,-2,13,10,-3,-8,-3,4,-7
15:04:17:248988,-8,-41,-27,-6,-4,-6,-4,-3
15:04:17:264740,-8,-41,-27,-6,-4,-6,-4,-3
15:04:17:265536,3,-6,-11,-8,-5,-5,0,3
15:04:17:271449,0,13,-13,-5,2,0,8,0
15:04:17:287269,0,13,-13,-5,2,0,8,0
15:04:17:287949,-1,-15,-5,-7,-6,-5,-5,1
15:04:17:293949,-1,28,-1,5,7,12,-2,3
15:04:17:302175,-1,28,-1,5,7,12,-2,3
15:04:17:303000,2,9,-2,0,5,6,4,-3
15:04:17:308959,-3,0,-8,-15,-17,-7,-2,-3
15:04:17:324679,-3,0,-8,-15,-17,-7,-2,-3
15:04:17:325437,-1,1,-7,7,11,10,9,4
15:04:17:331466,-1,-3,5,0,-6,-6,-1,-3
15:04:17:347156,-1,-3,5,0,-6,-6,-1,-3
15:04:17:347943,1,-5,7,3,0,-2,-5,-4
15:04:17:353942,0,9,2,-1,3,4,0,0
15:04:17:362189,0,9,2,-1,3,4,0,0
15:04:17:362949,-4,3,19,5,-5,-10,-8,-1
15:04:17:368957,-12,-1,-5,-2,0,-1,-10,-18
15:04:17:392778,-12,-1,-5,-2,0,-1,-10,-18
15:04:17:393659,4,10,-2,-1,-1,-1,4,-3
15:04:17:394409,2,-6,-2,-3,-9,-7,3,5
15:04:17:407145,2,-6,-2,-3,-9,-7,3,5
15:04:17:407921,0,4,9,9,7,3,3,-3
15:04:17:413948,2,14,9,-3,-8,-7,-5,-4
15:04:17:422166,2,14,9,-3,-8,-7,-5,-4
15:04:17:422961,-2,-8,3,1,6,3,1,-2
15:04:17:428929,0,-24,-12,-3,2,2,5,0
15:04:17:444657,0,-24,-12,-3,2,2,5,0
15:04:17:445464,-17,-5,-33,-9,-1,-1,-1,-6
15:04:17:451470,0,-15,-19,-11,-7,-3,-10,-1
15:04:17:467192,0,-15,-19,-11,-7,-3,-10,-1
15:04:17:467984,2,0,4,-1,6,5,4,0
15:04:17:473954,4,2,9,6,9,-2,1,2
15:04:17:482092,4,2,9,6,9,-2,1,2
15:04:17:482927,0,-7,-1,0,1,0,-2,3
15:04:17:488963,0,6,0,3,-1,-3,0,4
15:04:17:512839,0,6,0,3,-1,-3,0,4
15:04:17:513609,2,-23,8,1,-9,-5,-2,-4
15:04:17:514414,-1,-23,-6,-4,2,4,2,1
15:04:17:527193,-1,-23,-6,-4,2,4,2,1
15:04:17:527978,1,-4,-11,-2,-1,-2,-1,0
15:04:17:533913,-2,4,4,4,0,1,4,2
15:04:17:542155,-2,4,4,4,0,1,4,2
15:04:17:542941,-2,-9,-8,-12,-9,-3,-2,2
15:04:17:548967,-11,3,9,1,-1,-2,-8,-6
15:04:17:564719,-11,3,9,1,-1,-2,-8,-6
15:04:17:565494,7,-4,0,7,5,-5,-3,-4
15:04:17:571435,-1,-20,-13,-14,-12,-3,6,-5
15:04:17:587269,-1,-20,-13,-14,-12,-3,6,-5
15:04:17:587964,-5,12,2,-12,-16,-4,1,-4
15:04:17:593988,2,15,4,7,5,0,1,1
15:04:17:602195,2,15,4,7,5,0,1,1
15:04:17:602991,0,14,-2,-13,6,1,-3,-8
15:04:17:608899,5,7,8,-10,-19,-6,2,15
15:04:17:624696,5,7,8,-10,-19,-6,2,15
15:04:17:625434,-17,-27,0,1,7,1,-5,4
15:04:17:631435,-5,6,-6,4,1,2,3,-4
15:04:17:639035,-5,6,-6,4,1,2,3,-4
15:04:17:646427,-3,-8,-3,4,2,7,1,-3
15:04:17:653915,2,2,5,12,3,1,-5,1
15:04:17:662160,2,2,5,12,3,1,-5,1
15:04:17:662959,6,18,-4,4,2,-6,-1,-3
15:04:17:676453,-2,1,-9,5,7,-4,0,-9
15:04:17:684674,-2,1,-9,5,7,-4,0,-9
15:04:17:685470,-29,-18,17,6,-12,-5,-5,-2
15:04:17:691409,-1,-6,-5,1,-4,-3,-10,-4
15:04:17:698983,-1,-6,-5,1,-4,-3,-10,-4
15:04:17:706458,15,25,-5,-4,0,-7,9,2
15:04:17:713938,5,27,13,11,1,4,-4,-18
15:04:17:722243,5,27,13,11,1,4,-4,-18
15:04:17:722962,0,5,16,5,-22,-8,-5,13
15:04:17:736511,7,-4,-5,1,0,-6,-8,-3
15:04:17:744709,7,-4,-5,1,0,-6,-8,-3
15:04:17:745472,6,19,19,5,21,6,3,-3
15:04:17:751470,-1,-12,-7,-14,-4,2,2,25
15:04:17:759022,-1,-12,-7,-14,-4,2,2,25
15:04:17:766460,-23,3,-12,-9,9,-4,-8,3
15:04:17:773959,-9,15,-4,-6,3,-3,-3,-1
15:04:17:789647,-9,15,-4,-6,3,-3,-3,-1
15:04:17:790458,16,-1,-18,16,32,23,4,13
15:04:17:796455,2,-25,16,-3,-12,-7,10,5
15:04:17:804696,2,-25,16,-3,-12,-7,10,5
15:04:17:805500,3,4,6,-8,-24,-4,2,-12
15:04:17:811424,5,7,-10,-13,-8,-7,4,-18
15:04:17:819002,5,7,-10,-13,-8,-7,4,-18
15:04:17:826486,0,-5,5,3,0,-2,3,-1
15:04:17:833958,7,-13,-6,-2,7,4,-7,-8
15:04:17:842146,7,-13,-6,-2,7,4,-7,-8
15:04:17:842963,-9,-11,-25,-11,-7,-10,-11,-9
15:04:17:856446,-6,0,-8,-9,0,5,-3,-6
15:04:17:864631,-6,0,-8,-9,0,5,-3,-6
15:04:17:865449,8,-1,11,-8,-20,4,1,11
15:04:17:871480,0,4,-6,3,-7,-10,-7,-8
15:04:17:878953,0,4,-6,3,-7,-10,-7,-8
15:04:17:886441,-2,6,31,13,12,8,3,-3
15:04:17:893959,-9,0,-2,-4,-7,-4,7,4
15:04:17:902187,-9,0,-2,-4,-7,-4,7,4
15:04:17:902997,-1,-9,-20,-11,-24,-14,-8,-10
15:04:17:916520,4,-4,0,4,10,28,1,10
15:04:17:924638,4,-4,0,4,10,28,1,10
15:04:17:925451,13,0,-2,6,10,1,-5,-10
15:04:17:931431,-5,26,7,-3,-16,-23,-4,0
15:04:17:939026,-5,26,7,-3,-16,-23,-4,0
15:04:17:954669,-8,0,-24,0,14,9,-7,-4
15:04:17:955458,0,-16,-12,1,-5,7,-1,-3
15:04:17:962149,0,-16,-12,1,-5,7,-1,-3
15:04:17:962952,-1,-23,0,-3,1,-6,1,6
15:04:17:976496,-5,-6,-15,-2,-2,-5,-2,3
15:04:17:984691,-5,-6,-15,-2,-2,-5,-2,3
15:04:17:985454,6,10,-1,-1,5,-5,11,0
15:04:17:991441,2,-1,19,4,9,8,-9,-2
15:04:17:998971,2,-1,19,4,9,8,-9,-2
15:04:18:6407,2,-9,-20,-13,-17,0,-5,0
15:04:18:13897,-15,-28,-11,0,24,6,3,7
15:04:18:22160,-15,-28,-11,0,24,6,3,7
15:04:18:22958,11,4,3,8,2,-3,3,3
15:04:18:36517,-12,-18,-13,-11,-6,-6,-8,-4
15:04:18:44612,-12,-18,-13,-11,-6,-6,-8,-4
15:04:18:45472,-19,-5,-74,-25,-3,-1,-6,-24
15:04:18:51453,-2,5,5,-7,13,-3,-6,-22
15:04:18:67135,-2,5,5,-7,13,-3,-6,-22
15:04:18:67961,-2,11,7,3,10,-2,-1,5
15:04:18:73998,5,9,-8,0,-11,-6,6,12
15:04:18:82163,5,9,-8,0,-11,-6,6,12
15:04:18:82924,-2,-4,26,4,0,-7,1,0
15:04:18:96459,7,7,-13,17,14,12,0,6
15:04:18:104708,7,7,-13,17,14,12,0,6
15:04:18:105409,0,2,29,3,-14,-9,-1,4
15:04:18:111482,2,-4,8,0,3,-4,0,-8
15:04:18:118996,2,-4,8,0,3,-4,0,-8
15:04:18:126424,-5,-41,-19,-7,-20,-1,3,13
15:04:18:133910,2,-12,5,7,8,7,7,-1
15:04:18:142153,2,-12,5,7,8,7,7,-1
15:04:18:142948,-11,8,5,1,-8,-5,5,0
15:04:18:156457,-8,-1,-19,11,1,-5,-1,-24
15:04:18:164648,-8,-1,-19,11,1,-5,-1,-24
15:04:18:165425,1,8,2,6,-12,28,5,6
15:04:18:171411,4,10,20,14,15,6,4,20
15:04:18:178993,4,10,20,14,15,6,4,20
15:04:18:186474,-3,-31,-12,-19,-25,-29,-17,-9
15:04:18:193962,-10,-25,-4,0,5,11,0,4
15:04:18:202179,-10,-25,-4,0,5,11,0,4
15:04:18:202977,6,24,6,7,6,1,-5,-9
15:04:18:225331,0,5,-4,-12,-21,-13,-1,13
15:04:18:226172,0,5,-4,-12,-21,-13,-1,13
15:04:18:226923,5,-1,-7,-1,10,1,3,-5
15:04:18:231435,0,21,17,1,4,-3,3,-14
15:04:18:239009,0,21,17,1,4,-3,3,-14
15:04:18:246461,2,17,9,0,-4,4,-3,-3
15:04:18:253993,1,14,10,8,-1,4,-6,-5
15:04:18:262204,1,14,10,8,-1,4,-6,-5
15:04:18:263011,9,25,26,3,-7,-17,-3,-7
15:04:18:276495,2,4,5,-19,-9,-7,-5,6
15:04:18:284665,2,4,5,-19,-9,-7,-5,6
15:04:18:285495,2,9,5,-1,18,27,6,21
15:04:18:291409,6,6,-14,1,-14,-9,3,4
15:04:18:299015,6,6,-14,1,-14,-9,3,4
15:04:18:306449,3,-13,-14,-13,-5,-9,12,-2
15:04:18:313917,-1,1,-2,8,-2,2,-1,-2
15:04:18:322163,-1,1,-2,8,-2,2,-1,-2
15:04:18:322990,-1,14,5,4,-5,-8,-19,-15
15:04:18:345334,4,-1,-14,-23,7,9,2,1
15:04:18:346125,4,-1,-14,-23,7,9,2,1
15:04:18:346914,-6,7,2,7,16,6,6,3
15:04:18:351428,-4,-8,-2,-8,-15,-12,-4,-9
15:04:18:358994,-4,-8,-2,-8,-15,-12,-4,-9
15:04:18:366394,-12,-7,8,4,15,4,-3,-7
15:04:18:373929,-9,-9,29,4,-14,-10,2,7
15:04:18:382183,-9,-9,29,4,-14,-10,2,7
15:04:18:382951,23,-14,-2,2,3,15,6,-12
15:04:18:396445,3,15,-21,1,11,-3,0,18
15:04:18:404712,3,15,-21,1,11,-3,0,18
15:04:18:405442,9,7,-10,0,3,2,0,11
15:04:18:411431,8,-14,-4,-7,7,-2,-4,-15
15:04:18:419029,8,-14,-4,-7,7,-2,-4,-15
15:04:18:426468,-9,-10,-3,-2,-7,-7,-8,-8
15:04:18:433946,-2,9,26,7,-9,-7,-4,2
15:04:18:442191,-2,9,26,7,-9,-7,-4,2
15:04:18:443016,-9,-7,-10,-11,-7,-2,4,4
15:04:18:456395,-6,-10,-16,-20,-20,-5,-3,1
15:04:18:464663,-6,-10,-16,-20,-20,-5,-3,1
15:04:18:465475,-2,5,11,9,34,5,1,13
15:04:18:471473,-14,-32,10,3,1,-3,-6,-20
15:04:18:479014,-14,-32,10,3,1,-3,-6,-20
15:04:18:486460,-4,-24,-33,-5,-8,9,5,1
15:04:18:493978,8,4,-7,-5,-7,-3,1,-3
15:04:18:502190,8,4,-7,-5,-7,-3,1,-3
15:04:18:502940,-5,4,5,0,-10,-1,-7,1
15:04:18:516529,5,2,8,12,16,4,6,6
15:04:18:524669,5,2,8,12,16,4,6,6
15:04:18:525525,-7,8,9,11,-14,-12,-7,-1
15:04:18:531468,-8,4,9,-16,-6,2,0,-19
15:04:18:538981,-8,4,9,-16,-6,2,0,-19
15:04:18:546464,2,5,1,-5,-8,0,12,5
15:04:18:554014,-18,-5,-39,-7,-21,-4,-7,-26
15:04:18:562163,-18,-5,-39,-7,-21,-4,-7,-26
15:04:18:562942,2,-12,14,8,22,16,3,-4
15:04:18:576471,0,6,6,2,-4,-14,-10,15
15:04:18:584651,0,6,6,2,-4,-14,-10,15
15:04:18:585484,2,13,8,-4,-8,-9,-5,0
15:04:18:599692,4,3,-10,0,-4,-6,-6,-1
15:04:18:600418,4,3,-10,0,-4,-6,-6,-1
15:04:18:606408,6,5,22,6,7,-2,-8,4
15:04:18:622200,1,-1,-6,-9,7,7,-1,28
15:04:18:622933,1,-1,-6,-9,7,7,-1,28
15:04:18:628926,-17,-23,-2,-9,-14,-7,3,-16
15:04:18:636496,-10,13,6,2,-7,-6,0,5
15:04:18:644622,-10,13,6,2,-7,-6,0,5
15:04:18:645406,-2,15,-22,4,28,12,5,16
15:04:18:659675,7,-13,-2,-8,-22,5,6,-2
15:04:18:660553,7,-13,-2,-8,-22,5,6,-2
15:04:18:666479,-11,-21,0,-4,-9,2,-8,-4
15:04:18:673943,-4,7,6,4,-2,-5,-4,2
15:04:18:681455,-4,7,6,4,-2,-5,-4,2
15:04:18:688963,6,10,-19,-18,-10,-10,1,-1
15:04:18:696448,-14,-22,-21,-17,16,4,-1,-4
15:04:18:704622,-14,-22,-21,-17,16,4,-1,-4
15:04:18:705429,0,-7,20,-2,3,-12,-15,-3
15:04:18:719674,6,20,10,8,8,8,6,-26
15:04:18:720409,6,20,10,8,8,8,6,-26
15:04:18:726440,13,16,-5,7,-1,-9,-2,0
15:04:18:733951,0,3,-8,6,5,4,-13,-25
15:04:18:741483,0,3,-8,6,5,4,-13,-25
15:04:18:748965,-15,-7,-5,4,-15,-7,1,4
15:04:18:756442,-6,-8,-7,5,5,-2,-6,8
15:04:18:764670,-6,-8,-7,5,5,-2,-6,8
15:04:18:765444,2,3,5,-9,0,2,-9,3
15:04:18:780071,-4,-2,20,7,-3,-12,0,6
15:04:18:780954,-4,-2,20,7,-3,-12,0,6
15:04:18:786421,8,-7,1,7,14,7,9,-22
15:04:18:794019,5,-2,-24,-5,0,5,9,11
15:04:18:801557,5,-2,-24,-5,0,5,9,11
15:04:18:808937,-7,-13,-11,-14,-35,-30,-4,-1
15:04:18:816431,4,15,22,27,34,17,16,8
15:04:18:824625,4,15,22,27,34,17,16,8
15:04:18:825468,8,-2,7,0,-3,3,-1,-4
15:04:18:839601,8,-5,-6,-12,-14,-13,-5,13
15:04:18:840468,8,-5,-6,-12,-14,-13,-5,13
15:04:18:846393,-16,-5,6,4,9,0,3,5
15:04:18:853946,14,18,1,0,11,21,9,-1
15:04:18:861506,14,18,1,0,11,21,9,-1
15:04:18:868959,-6,-21,5,-6,-7,-12,-11,-12
15:04:18:876438,3,-17,-14,-5,13,9,-2,10
15:04:18:884691,3,-17,-14,-5,13,9,-2,10
15:04:18:885466,-12,9,-3,10,4,14,13,3
15:04:18:899646,-5,-8,2,-4,-21,-15,-7,-10
15:04:18:900456,-5,-8,2,-4,-21,-15,-7,-10
15:04:18:906425,1,10,-20,-14,-2,0,-7,0
15:04:18:913921,-5,-8,2,-14,-16,-7,-5,0
15:04:18:921531,-5,-8,2,-14,-16,-7,-5,0
15:04:18:928945,4,-1,9,6,-1,6,6,3
15:04:18:936479,7,-2,3,5,14,0,-2,-4
15:04:18:944646,7,-2,3,5,14,0,-2,-4
15:04:18:945438,-8,-8,11,-5,-2,0,7,-10
15:04:18:959654,-13,3,3,-7,-25,-7,3,-10
15:04:18:960524,-13,3,3,-7,-25,-7,3,-10
15:04:18:966465,18,8,2,20,11,9,3,1
15:04:18:973958,-8,2,5,-2,5,2,-2,-6
15:04:18:981515,-8,2,5,-2,5,2,-2,-6
15:04:18:988975,-1,-15,-7,-7,2,3,-7,0
15:04:18:996422,5,16,-9,-10,-17,-13,-10,-15
15:04:19:4726,5,16,-9,-10,-17,-13,-10,-15
15:04:19:5448,0,-1,-7,1,11,-3,-1,-1
15:04:19:19723,-3,0,-9,-8,-11,-6,-11,-13
15:04:19:20434,-3,0,-9,-8,-11,-6,-11,-13
15:04:19:26462,-5,8,3,3,-9,5,10,17
15:04:19:33927,-11,-18,16,8,7,6,2,0
15:04:19:41476,-11,-18,16,8,7,6,2,0
15:04:19:57109,0,-4,-2,-12,-11,-4,-17,-4
15:04:19:57946,26,5,-14,3,8,8,4,18
15:04:19:64686,26,5,-14,3,8,8,4,18
15:04:19:65437,-3,-1,1,-15,-27,-22,-10,-4
15:04:19:79680,-10,2,1,8,26,7,4,-1
15:04:19:80467,-10,2,1,8,26,7,4,-1
15:04:19:86501,-6,3,27,10,1,-3,2,-20
15:04:19:93982,-21,-1,-2,-2,-14,-10,5,-3
15:04:19:101549,-21,-1,-2,-2,-14,-10,5,-3
15:04:19:108951,-5,-1,-11,4,15,-7,-2,-1
15:04:19:116458,3,-12,-19,-18,-11,-6,-9,20
15:04:19:124624,3,-12,-19,-18,-11,-6,-9,20
15:04:19:125433,7,-4,-20,-8,7,-4,-11,-26
15:04:19:139655,19,16,6,6,4,-3,-7,3
15:04:19:140445,19,16,6,6,4,-3,-7,3
15:04:19:146405,-29,-10,-8,-4,-5,-1,-3,-1
15:04:19:153945,0,-26,2,6,5,8,2,4
15:04:19:161459,0,-26,2,6,5,8,2,4
15:04:19:168938,4,17,-12,-10,-18,-14,-9,1
15:04:19:176455,8,2,-36,13,25,22,10,7
15:04:19:184693,8,2,-36,13,25,22,10,7
15:04:19:185447,-1,-4,-10,1,9,2,0,1
15:04:19:199691,4,17,22,0,-6,6,0,-9
15:04:19:200426,4,17,22,0,-6,6,0,-9
15:04:19:214647,2,18,1,3,2,-3,9,8
15:04:19:215411,-2,-4,12,-11,-19,-8,-10,-13
15:04:19:221498,-2,-4,12,-11,-19,-8,-10,-13
15:04:19:228888,5,12,17,3,-8,7,-4,11
15:04:19:236496,-11,2,8,-6,1,-2,2,-5
15:04:19:244671,-11,2,8,-6,1,-2,2,-5
15:04:19:245485,4,-6,-33,-10,0,-4,-3,-1
15:04:19:259663,-15,-6,-15,2,-2,-9,-3,3
15:04:19:260465,-15,-6,-15,2,-2,-9,-3,3
15:04:19:266419,1,-5,-6,-11,-12,0,-3,-8
15:04:19:273993,-5,0,-1,4,11,-3,-7,-18
15:04:19:281503,-5,0,-1,4,11,-3,-7,-18
15:04:19:288938,2,-7,2,-3,9,15,1,4
15:04:19:296407,11,0,6,11,14,5,2,10
15:04:19:304662,11,0,6,11,14,5,2,10
15:04:19:305484,5,0,4,-2,-13,-16,2,-4
15:04:19:319725,-37,-16,7,5,-2,2,-1,-2
15:04:19:320457,-37,-16,7,5,-2,2,-1,-2
15:04:19:334665,1,-11,2,0,14,2,-3,-5
15:04:19:335420,9,6,12,-4,-13,-7,-2,-9
15:04:19:341466,9,6,12,-4,-13,-7,-2,-9
15:04:19:348932,3,2,3,11,7,1,2,4
15:04:19:356380,1,-10,-8,-7,-1,2,4,8
15:04:19:364671,1,-10,-8,-7,-1,2,4,8
15:04:19:365472,-1,-15,-3,11,24,9,-7,-14
15:04:19:379629,7,8,16,6,7,-5,1,-5
15:04:19:380420,7,8,16,6,7,-5,1,-5
15:04:19:386446,14,8,7,-6,-14,15,5,12
15:04:19:393917,-9,-12,-6,0,-5,5,8,-6
15:04:19:401537,-9,-12,-6,0,-5,5,8,-6
15:04:19:408914,4,12,6,-9,-19,-18,4,9
15:04:19:416435,3,-4,5,1,-8,11,-1,18
15:04:19:424642,3,-4,5,1,-8,11,-1,18
15:04:19:425462,0,-3,-10,3,-1,-5,-8,4
15:04:19:439605,-13,20,-13,-15,-7,-13,-8,-20
15:04:19:440427,-13,20,-13,-15,-7,-13,-8,-20
15:04:19:446401,-5,-11,10,5,23,15,3,4
15:04:19:453967,12,13,2,-17,-14,-4,-4,-4
15:04:19:461524,12,13,2,-17,-14,-4,-4,-4
15:04:19:468919,-9,-8,-6,-8,-8,-12,0,4
15:04:19:476459,-7,-27,1,13,22,6,7,16
15:04:19:485721,-7,-27,1,13,22,6,7,16
15:04:19:491440,7,14,9,3,-2,1,12,13
15:04:19:499649,12,-21,-4,3,-11,-2,5,24
15:04:19:500471,12,-21,-4,3,-11,-2,5,24
15:04:19:506436,0,4,1,5,-12,-14,-6,-4
15:04:19:522186,1,18,3,3,1,-6,-1,-1
15:04:19:522967,1,18,3,3,1,-6,-1,-1
15:04:19:528912,-17,-40,-12,-16,-13,0,-6,-1
15:04:19:536448,0,-4,-4,13,0,2,1,-8
15:04:19:543947,0,-4,-4,13,0,2,1,-8
15:04:19:551470,5,12,2,13,14,8,-7,-11
15:04:19:559598,3,-5,-7,-23,-25,-19,-7,6
15:04:19:560449,3,-5,-7,-23,-25,-19,-7,6
15:04:19:566524,-2,-2,-8,0,20,10,8,-10
15:04:19:582208,-7,-7,-4,-4,5,2,-8,0
15:04:19:582969,-7,-7,-4,-4,5,2,-8,0
15:04:19:588952,-1,11,33,4,-11,-8,7,13
15:04:19:596449,0,6,-6,2,-3,4,-4,-10
15:04:19:603970,0,6,-6,2,-3,4,-4,-10
15:04:19:611415,-8,-9,-21,-3,-3,4,7,6
15:04:19:619627,0,1,6,-2,0,-2,-3,-4
15:04:19:620426,0,1,6,-2,0,-2,-3,-4
15:04:19:626439,15,8,-15,-12,-13,-10,-15,-2
15:04:19:642146,-1,-5,-13,-6,20,15,-1,-33
15:04:19:642939,-1,-5,-13,-6,20,15,-1,-33
15:04:19:648905,3,10,0,3,14,2,9,-7
15:04:19:656376,-10,-12,8,4,1,-13,2,2
15:04:19:663975,-10,-12,8,4,1,-13,2,2
15:04:19:671479,1,9,13,0,7,14,9,3
15:04:19:679611,-6,-6,-8,-10,-15,-7,-2,2
15:04:19:680450,-6,-6,-8,-10,-15,-7,-2,2
15:04:19:686518,-10,-9,-7,-12,-26,-15,-18,-7
15:04:19:702202,19,14,-6,6,7,-3,5,-2
15:04:19:702960,19,14,-6,6,7,-3,5,-2
15:04:19:708917,-23,-10,-22,-3,-10,-6,-10,-7
15:04:19:716432,12,5,7,4,8,3,-14,5
15:04:19:723990,12,5,7,4,8,3,-14,5
15:04:19:731485,7,0,5,-2,1,4,10,18
15:04:19:739639,-8,8,8,-9,-7,6,-6,-18
15:04:19:740458,-8,8,8,-9,-7,6,-6,-18
15:04:19:746433,-7,-19,10,0,-9,-15,-7,-9
15:04:19:770354,14,14,7,10,14,-2,0,8
15:04:19:771138,14,14,7,10,14,-2,0,8
15:04:19:771949,-5,6,-23,-15,-1,3,3,-2
15:04:19:776429,-23,-24,20,4,-12,-7,1,-1
15:04:19:783954,-23,-24,20,4,-12,-7,1,-1
15:04:19:791427,4,2,0,5,13,-4,4,5
15:04:19:799673,-8,-10,-15,-7,-10,-4,5,-1
15:04:19:800484,-8,-10,-15,-7,-10,-4,5,-1
15:04:19:806407,-1,14,23,4,-4,-3,-3,12
15:04:19:822170,14,5,-1,-11,0,-8,8,4
15:04:19:822923,14,5,-1,-11,0,-8,8,4
15:04:19:828908,1,1,-23,-13,-7,12,-2,-8
15:04:19:836428,8,5,-13,0,7,1,4,2
15:04:19:844022,8,5,-13,0,7,1,4,2
15:04:19:851437,4,22,21,8,-1,0,-3,-8
15:04:19:859688,-20,-4,5,4,1,4,5,5
15:04:19:860505,-20,-4,5,4,1,4,5,5
15:04:19:866470,2,-17,-5,3,-7,-12,1,-5
15:04:19:882195,-6,9,10,1,-6,10,-1,7
15:04:19:882948,-6,9,10,1,-6,10,-1,7
15:04:19:888954,-4,-4,1,7,20,8,1,-19
15:04:19:896425,-4,-12,-26,-13,-22,-9,-11,-13
15:04:19:904017,-4,-12,-26,-13,-22,-9,-11,-13
15:04:19:911467,3,7,17,-1,5,14,-2,1
15:04:19:919682,-9,-20,12,10,-14,-14,-11,-10
15:04:19:920496,-9,-20,12,10,-14,-14,-11,-10
15:04:19:926487,13,7,-8,8,21,4,2,2
15:04:19:942188,4,14,1,-12,0,-2,-1,14
15:04:19:942986,4,14,1,-12,0,-2,-1,14
15:04:19:948993,-5,-6,-9,1,-22,-1,-6,-14
15:04:19:956449,9,1,-8,7,14,6,2,4
15:04:19:963915,9,1,-8,7,14,6,2,4
15:04:19:971463,-4,-6,-10,-6,-2,-12,-16,-5
15:04:19:979625,-5,7,-4,5,2,-2,6,-5
15:04:19:980427,-5,7,-4,5,2,-2,6,-5
15:04:19:986413,-1,-19,2,5,-2,-10,-8,-7
15:04:20:2243,8,9,-17,-11,-6,-10,-3,0
15:04:20:2935,8,9,-17,-11,-6,-10,-3,0
15:04:20:8997,-14,11,3,-3,-15,-7,1,-4
15:04:20:16446,-1,15,18,14,8,5,8,1
15:04:20:24018,-1,15,18,14,8,5,8,1
15:04:20:31396,-9,-12,-8,-11,-22,-6,-1,13
15:04:20:47769,-4,-16,-10,8,1,2,-2,-1
15:04:20:48606,-4,-16,-10,8,1,2,-2,-1
15:04:20:49412,8,-5,8,3,4,-9,-2,-17
15:04:20:62135,1,-12,-3,10,30,20,7,12
15:04:20:62888,1,-12,-3,10,30,20,7,12
15:04:20:68946,-4,7,-9,-8,-4,10,1,14
15:04:20:76417,-4,-12,-24,-18,-22,-23,-1,-5
15:04:20:83998,-4,-12,-24,-18,-22,-23,-1,-5
15:04:20:91419,11,12,-4,8,39,12,10,-5
15:04:20:99680,-7,6,27,0,-6,-4,-8,7
15:04:20:100489,-7,6,27,0,-6,-4,-8,7
15:04:20:106414,2,-14,-25,-12,-6,0,-4,0
15:04:20:122138,1,3,15,13,-1,12,-2,-15
15:04:20:122966,1,3,15,13,-1,12,-2,-15
15:04:20:128866,-2,-1,3,5,-13,-10,-1,6
15:04:20:136495,-8,1,1,-9,-14,-6,-9,-14
15:04:20:144027,-8,1,1,-9,-14,-6,-9,-14
15:04:20:151469,-2,11,30,21,18,19,10,-1
15:04:20:159644,1,11,-6,-16,-3,4,2,-10
15:04:20:160475,1,11,-6,-16,-3,4,2,-10
15:04:20:166446,-14,-23,-31,-9,11,1,-4,-21
15:04:20:182178,7,12,4,-9,-8,-9,-7,-7
15:04:20:182968,7,12,4,-9,-8,-9,-7,-7
15:04:20:188933,-5,-6,5,-16,-18,6,1,0
15:04:20:196421,3,-1,-4,4,14,3,4,7
15:04:20:204059,3,-1,-4,4,14,3,4,7
15:04:20:211475,-2,-20,0,-4,-9,-15,-5,5
15:04:20:219679,0,4,10,18,8,8,-1,2
15:04:20:220479,0,4,10,18,8,8,-1,2
15:04:20:226485,4,-4,1,2,-2,-9,-3,17
15:04:20:242129,-5,-9,-6,-9,-6,-5,-11,-8
15:04:20:242984,-5,-9,-6,-9,-6,-5,-11,-8
15:04:20:248931,-15,4,-10,-3,6,9,3,-16
15:04:20:256422,-19,-18,-8,-21,-22,-13,0,-11
15:04:20:264019,-19,-18,-8,-21,-22,-13,0,-11
15:04:20:271506,4,7,-10,8,-1,-5,0,-5
15:04:20:279623,6,-2,3,4,21,6,2,1
15:04:20:280452,6,-2,3,4,21,6,2,1
15:04:20:286525,-3,-10,3,-4,-17,-6,-5,0
15:04:20:302212,2,-16,-17,-2,-3,0,-3,-6
15:04:20:302976,2,-16,-17,-2,-3,0,-3,-6
15:04:20:308974,-1,10,11,4,7,-8,7,18
15:04:20:324669,1,0,2,-1,-10,11,7,30
15:04:20:325451,1,0,2,-1,-10,11,7,30
15:04:20:331449,-6,-11,-17,4,15,-10,-6,-16
15:04:20:339583,-4,4,6,1,0,3,1,-17
15:04:20:340442,-4,4,6,1,0,3,1,-17
15:04:20:346467,6,25,-5,10,21,9,7,14
15:04:20:362201,-6,-3,-17,4,0,-11,-7,-4
15:04:20:363019,-6,-3,-17,4,0,-11,-7,-4
15:04:20:368956,11,4,21,-4,-7,-1,-2,-22
15:04:20:376470,6,-7,-1,-5,-4,-1,-6,0
15:04:20:384021,6,-7,-1,-5,-4,-1,-6,0
15:04:20:391455,3,-9,-4,0,-3,-4,1,-4
15:04:20:399647,20,10,10,8,19,3,7,10
15:04:20:400460,20,10,10,8,19,3,7,10
15:04:20:406468,-10,-9,-18,-13,-11,2,-3,-5
15:04:20:422159,-25,-11,-11,-4,-1,8,7,-3
15:04:20:422930,-25,-11,-11,-4,-1,8,7,-3
15:04:20:436466,-3,9,18,1,12,13,9,-5
15:04:20:444719,-3,9,18,1,12,13,9,-5
15:04:20:445498,-1,-6,-16,-11,-17,-22,-7,7
15:04:20:451503,-8,-10,-13,-8,-8,-3,-5,-19
15:04:20:459688,-8,-10,-13,-8,-8,-3,-5,-19
15:04:20:460446,13,16,4,5,0,3,2,2
15:04:20:473953,-2,-4,-14,-3,-7,-3,-10,-8
15:04:20:482162,-2,-4,-14,-3,-7,-3,-10,-8
15:04:20:482971,10,11,34,16,-1,1,-4,-8
15:04:20:489023,4,11,10,-1,-2,5,6,9
15:04:20:504690,4,11,10,-1,-2,5,6,9
15:04:20:505474,2,1,-3,2,3,-10,2,9
15:04:20:511428,11,-13,12,22,9,0,2,12
15:04:20:519656,11,-13,12,22,9,0,2,12
15:04:20:520424,-6,-10,11,-10,-19,-4,-1,-11
15:04:20:533941,8,11,-7,-16,6,2,3,18
15:04:20:542165,8,11,-7,-16,6,2,3,18
15:04:20:543009,0,10,-15,-5,0,-1,-8,-23
15:04:20:548959,-10,4,-9,6,-5,-5,-11,-1
15:04:20:564714,-10,4,-9,6,-5,-5,-11,-1
15:04:20:565476,-14,7,-12,-4,1,9,-6,-13
15:04:20:571471,1,9,11,1,-9,-8,-8,5
15:04:20:579703,1,9,11,1,-9,-8,-8,5
15:04:20:580466,4,8,-12,3,5,-13,1,12
15:04:20:602832,-3,-14,-14,-3,11,6,9,11
15:04:20:603611,-3,-14,-14,-3,11,6,9,11
15:04:20:604424,-7,-12,2,-1,-6,-8,-3,6
15:04:20:608937,6,20,15,-16,-21,-8,-10,8
15:04:20:624665,6,20,15,-16,-21,-8,-10,8
15:04:20:625437,3,-10,2,-5,3,1,4,7
15:04:20:631451,-7,-11,4,12,10,10,2,-5
15:04:20:639615,-7,-11,4,12,10,10,2,-5
15:04:20:640476,-5,-5,14,18,8,2,3,15
15:04:20:654024,24,-4,-6,-3,-15,-5,-4,13
15:04:20:662152,24,-4,-6,-3,-15,-5,-4,13
15:04:20:662932,-9,-20,-31,-12,-5,-1,-6,-12
15:04:20:668960,-6,8,8,-2,4,-13,-1,-7
15:04:20:684629,-6,8,8,-2,4,-13,-1,-7
15:04:20:685449,0,-10,5,-12,-27,-7,-4,2
15:04:20:691453,5,1,12,1,19,2,0,-16
15:04:20:699672,5,1,12,1,19,2,0,-16
15:04:20:700422,-5,6,-9,-7,-6,-8,-4,-17
15:04:20:713931,-9,-31,4,-1,0,6,5,6
15:04:20:722167,-9,-31,4,-1,0,6,5,6
15:04:20:722923,11,8,-15,-2,7,2,-4,4
15:04:20:728936,0,4,-13,-8,-5,-2,-12,6
15:04:20:744649,0,4,-13,-8,-5,-2,-12,6
15:04:20:745433,-21,-3,9,7,5,3,4,16
15:04:20:751473,-6,-12,-19,-8,-21,-4,10,11
15:04:20:759650,-6,-12,-19,-8,-21,-4,10,11
15:04:20:760436,0,-7,21,7,14,15,7,13
15:04:20:773971,-7,3,3,-2,-9,-3,-5,-13
15:04:20:782145,-7,3,3,-2,-9,-3,-5,-13
15:04:20:782955,-1,-6,-17,-23,-28,-7,-1,-11
15:04:20:788989,2,-3,0,8,20,18,4,0
15:04:20:804726,2,-3,0,8,20,18,4,0
15:04:20:805483,4,14,10,4,-15,-13,-2,-2
15:04:20:811461,3,11,-2,-1,-18,-11,-7,-11
15:04:20:819685,3,11,-2,-1,-18,-11,-7,-11
15:04:20:820432,-6,-1,9,5,11,7,-2,-10
15:04:20:833955,-7,0,-7,0,4,4,-2,-7
15:04:20:842159,-7,0,-7,0,4,4,-2,-7
15:04:20:842954,16,9,-3,4,8,-4,-3,26
15:04:20:848944,-10,-5,-7,-12,-14,-15,-10,-1
15:04:20:864685,-10,-5,-7,-12,-14,-15,-10,-1
15:04:20:865501,-3,-11,-2,2,10,0,1,-12
15:04:20:871491,-3,15,16,-3,-24,-8,-3,3
15:04:20:879683,-3,15,16,-3,-24,-8,-3,3
15:04:20:880503,6,9,25,0,11,6,6,-5
15:04:20:893997,-1,-6,3,13,1,13,9,0
15:04:20:902211,-1,-6,3,13,1,13,9,0
15:04:20:902966,-6,-17,-30,-15,-11,-6,-2,9
15:04:20:908971,8,18,10,0,8,8,8,10
15:04:20:924681,8,18,10,0,8,8,8,10
15:04:20:925446,2,-25,0,0,1,-1,-2,7
15:04:20:931462,-5,-21,-5,-9,-15,-16,-2,-1
15:04:20:939647,-5,-21,-5,-9,-15,-16,-2,-1
15:04:20:940466,13,6,-6,8,-1,1,-4,-13
15:04:20:953975,-12,-14,-7,2,-4,3,18,-2
15:04:20:962182,-12,-14,-7,2,-4,3,18,-2
15:04:20:963001,-10,4,12,3,6,7,0,-5
15:04:20:968957,3,8,6,-4,7,11,7,-39
15:04:20:984679,3,8,6,-4,7,11,7,-39
15:04:20:985443,-7,-4,9,-13,-22,-23,-11,-22
15:04:20:991454,-6,-8,20,14,14,3,-6,-14
15:04:20:999680,-6,-8,20,14,14,3,-6,-14
15:04:21:454,-5,-32,-3,1,2,-5,-5,-13
15:04:21:13900,0,-3,-9,-22,-21,-14,-14,3
15:04:21:22170,0,-3,-9,-22,-21,-14,-14,3
15:04:21:22928,-3,16,-7,-1,13,7,-5,-1
15:04:21:28897,-4,4,-4,14,31,5,2,14
15:04:21:44679,-4,4,-4,14,31,5,2,14
15:04:21:45438,6,0,15,10,11,2,8,15
15:04:21:51404,1,6,7,10,3,-7,-5,9
15:04:21:67175,1,6,7,10,3,-7,-5,9
15:04:21:67950,1,-8,-13,-16,-25,-11,-11,-4
15:04:21:73988,7,3,3,7,23,9,2,15
15:04:21:82204,7,3,3,7,23,9,2,15
15:04:21:82966,0,21,1,9,-5,0,1,2
15:04:21:88942,9,0,-10,-18,-25,-13,-11,7
15:04:21:104666,9,0,-10,-18,-25,-13,-11,7
15:04:21:105457,-4,5,-5,17,28,12,1,4
15:04:21:111492,-2,6,-4,-19,-5,-14,3,-2
15:04:21:119706,-2,6,-4,-19,-5,-14,3,-2
15:04:21:120469,-2,-3,-7,-14,-8,-10,-1,-2
15:04:21:133991,-6,-13,-4,17,9,4,-5,-2
15:04:21:142167,-6,-13,-4,17,9,4,-5,-2
15:04:21:142963,-3,-12,-17,-6,-15,3,5,-16
15:04:21:156504,17,12,-5,-2,-12,-3,-5,-11
15:04:21:164621,17,12,-5,-2,-12,-3,-5,-11
15:04:21:165458,12,6,-14,-1,12,9,12,18
15:04:21:171495,-19,-13,6,2,-14,-3,-3,-3
15:04:21:179650,-19,-13,6,2,-14,-3,-3,-3
15:04:21:180407,-1,14,0,2,-5,0,-6,-13
15:04:21:194011,0,3,-15,1,1,-2,-15,-10
15:04:21:202166,0,3,-15,1,1,-2,-15,-10
15:04:21:202922,10,12,-3,7,-14,-7,-3,-5
15:04:21:208976,6,13,-2,1,1,1,2,14
15:04:21:224671,6,13,-2,1,1,1,2,14
15:04:21:225483,-14,-14,8,2,8,-4,-10,-6
15:04:21:240342,7,-1,-3,-12,-2,-6,0,-4
15:04:21:241133,7,-1,-3,-12,-2,-6,0,-4
15:04:21:241914,-1,-2,6,8,35,11,3,-17
15:04:21:253997,-10,-11,-8,-1,5,-1,-2,-12
15:04:21:262197,-10,-11,-8,-1,5,-1,-2,-12
15:04:21:262948,-6,-11,-11,-8,-16,-3,-2,-3
15:04:21:268959,-9,8,-14,-3,-5,0,1,-12
15:04:21:284709,-9,8,-14,-3,-5,0,1,-12
15:04:21:285510,4,20,1,-4,-4,0,-12,-5
15:04:21:291412,-5,-5,12,2,6,-4,-4,-5
15:04:21:299687,-5,-5,12,2,6,-4,-4,-5
15:04:21:300483,6,-35,-31,-13,-13,-15,2,2
15:04:21:313898,-5,2,8,11,9,15,3,12
15:04:21:322166,-5,2,8,11,9,15,3,12
15:04:21:322973,-3,15,13,-10,3,11,8,16
15:04:21:328916,1,-26,-17,-5,-6,-6,-1,-5
15:04:21:344667,1,-26,-17,-5,-6,-6,-1,-5
15:04:21:345442,-5,6,-11,-1,3,2,0,4
15:04:21:351418,3,12,25,-2,2,4,9,-10
15:04:21:359665,3,12,25,-2,2,4,9,-10
15:04:21:360487,0,-15,22,9,-9,-1,5,4
15:04:21:373989,-17,-20,-21,-4,5,1,0,3
15:04:21:382147,-17,-20,-21,-4,5,1,0,3
15:04:21:382922,6,-12,4,-3,-2,-5,3,17
15:04:21:388932,1,-3,6,-3,6,4,0,9
15:04:21:404698,1,-3,6,-3,6,4,0,9
15:04:21:405468,2,19,1,-9,-12,-7,-10,-5
15:04:21:411423,5,13,-17,-14,-10,-3,-3,-7
15:04:21:419029,5,13,-17,-14,-10,-3,-3,-7
15:04:21:434626,-9,-1,18,4,-6,0,1,-3
15:04:21:435501,-5,-10,-6,-9,-7,-7,-5,-4
15:04:21:442148,-5,-10,-6,-9,-7,-7,-5,-4
15:04:21:442976,0,12,-8,12,8,5,3,2
15:04:21:456481,13,11,29,4,-2,-7,7,-1
15:04:21:465337,13,11,29,4,-2,-7,7,-1
15:04:21:466128,-8,-17,-17,3,7,11,6,-25
15:04:21:471510,5,-7,-4,1,-6,1,-1,-5
15:04:21:478988,5,-7,-4,1,-6,1,-1,-5
15:04:21:486447,13,5,4,-6,-2,-1,-7,12
15:04:21:493952,-12,-14,14,4,2,-4,-8,3
15:04:21:502185,-12,-14,14,4,2,-4,-8,3
15:04:21:502917,-5,3,10,1,-7,-3,6,12
15:04:21:516504,-3,-9,-26,7,-5,-3,-1,7
15:04:21:524627,-3,-9,-26,7,-5,-3,-1,7
15:04:21:525412,-13,7,11,3,13,6,3,0
15:04:21:531410,-12,1,-13,-2,-5,-6,6,-3
15:04:21:538991,-12,1,-13,-2,-5,-6,6,-3
15:04:21:546392,-22,-11,-11,-4,-6,-6,-2,-4
15:04:21:553913,-4,4,8,0,6,-3,5,-10
15:04:21:562193,-4,4,8,0,6,-3,5,-10
15:04:21:562952,-8,12,6,-4,-4,-5,-5,-6
15:04:21:576402,3,-10,-5,-13,-12,-9,-3,12
15:04:21:584666,3,-10,-5,-13,-12,-9,-3,12
15:04:21:585504,17,-1,5,-8,7,8,2,-14
15:04:21:591430,2,4,-12,-3,0,8,-9,-21
15:04:21:599057,2,4,-12,-3,0,8,-9,-21
15:04:21:606441,7,-16,5,-6,-17,-8,-9,-5
15:04:21:613955,3,25,11,-5,-6,-4,0,4
15:04:21:622186,3,25,11,-5,-6,-4,0,4
15:04:21:622926,-5,3,13,19,18,9,-4,-1
15:04:21:636507,2,7,2,-1,8,4,-1,-1
15:04:21:644686,2,7,2,-1,8,4,-1,-1
15:04:21:645460,-3,-6,-21,-9,-15,-7,-8,1
15:04:21:651434,4,12,-2,0,-2,-1,4,4
15:04:21:659008,4,12,-2,0,-2,-1,4,4
15:04:21:666442,8,-3,5,-7,5,-10,-5,-7
15:04:21:673966,11,-5,-3,-5,-7,6,9,2
15:04:21:682183,11,-5,-3,-5,-7,6,9,2
15:04:21:682934,10,-5,-17,-2,-14,5,4,1
15:04:21:696434,-2,2,-14,-1,4,7,-1,-6
15:04:21:712798,-2,2,-14,-1,4,7,-1,-6
15:04:21:713595,1,8,2,17,18,5,2,-3
15:04:21:714405,-4,-3,5,-8,0,-6,-8,1
15:04:21:719029,-4,-3,5,-8,0,-6,-8,1
15:04:21:726459,-5,-2,-20,2,5,-2,-1,1
15:04:21:733937,-6,-3,10,10,1,6,-6,4
15:04:21:742131,-6,-3,10,10,1,6,-6,4
15:04:21:742921,-7,-1,-24,-14,3,-3,-2,12
15:04:21:756458,-11,-3,15,8,0,-10,-6,-30
15:04:21:764720,-11,-3,15,8,0,-10,-6,-30
15:04:21:765500,9,9,28,0,-5,-4,-4,-15
15:04:21:771464,-4,-56,-8,0,-9,-8,-6,-6
15:04:21:787177,-4,-56,-8,0,-9,-8,-6,-6
15:04:21:787991,4,-12,-11,6,18,9,7,2
15:04:21:793941,1,12,-6,2,-19,-3,-1,3
15:04:21:802208,1,12,-6,2,-19,-3,-1,3
15:04:21:803007,-2,-2,2,-8,-29,-15,0,15
15:04:21:816478,-4,3,-13,-8,28,10,7,11
15:04:21:824725,-4,3,-13,-8,28,10,7,11
15:04:21:825483,0,-12,-18,-18,-15,0,4,8
15:04:21:831497,0,-4,10,11,5,3,1,1
15:04:21:839063,0,-4,10,11,5,3,1,1
15:04:21:846450,1,-12,9,-3,3,1,4,12
15:04:21:854001,-1,-3,3,-4,-10,-7,-2,5
15:04:21:862138,-1,-3,3,-4,-10,-7,-2,5
15:04:21:862962,-14,12,16,3,-4,4,6,17
15:04:21:876506,2,10,5,-2,6,10,3,5
15:04:21:884743,2,10,5,-2,6,10,3,5
15:04:21:885515,-4,3,-15,-4,-9,-15,-10,-1
15:04:21:891518,4,-2,9,2,-8,-11,-2,-11
15:04:21:899048,4,-2,9,2,-8,-11,-2,-11
15:04:21:906510,5,8,3,15,15,5,0,-1
15:04:21:913935,-8,8,-35,3,11,-6,0,21
15:04:21:922151,-8,8,-35,3,11,-6,0,21
15:04:21:922933,-17,-2,5,-8,-14,-16,-14,-23
15:04:21:936551,-5,-6,-19,4,32,28,9,4
15:04:21:944674,-5,-6,-19,4,32,28,9,4
15:04:21:945489,8,-12,-7,-3,-6,4,-2,-4
15:04:21:951493,7,11,11,-16,-19,-14,-11,-14
15:04:21:958950,7,11,11,-16,-19,-14,-11,-14
15:04:21:966431,-8,8,10,9,12,-4,-1,-5
15:04:21:973921,6,7,-2,-3,-18,-6,6,-9
15:04:21:989637,6,7,-2,-3,-18,-6,6,-9
15:04:21:990454,-9,-14,-18,-4,-1,1,-5,-7
15:04:21:996459,3,9,2,-2,-13,2,-10,-11
15:04:22:4640,3,9,2,-2,-13,2,-10,-11
15:04:22:5446,3,12,11,8,15,2,4,10
15:04:22:11439,-2,-2,-7,2,11,2,5,4
15:04:22:19037,-2,-2,-7,2,11,2,5,4
15:04:22:26475,-7,-1,6,-7,-31,-11,-10,-25
15:04:22:33924,-6,-4,-2,-4,3,-1,8,6
15:04:22:42188,-6,-4,-2,-4,3,-1,8,6
15:04:22:43003,6,-3,-8,-14,-12,2,-5,-9
15:04:22:56401,-5,2,8,6,8,-2,10,25
15:04:22:64688,-5,2,8,6,8,-2,10,25
15:04:22:65473,6,7,-1,-1,-4,-6,2,0
15:04:22:71452,-4,-34,-6,-7,3,-5,-8,0
15:04:22:78997,-4,-34,-6,-7,3,-5,-8,0
15:04:22:86512,0,-6,2,0,-1,2,3,12
15:04:22:102915,-5,9,9,6,-7,-1,-6,-2
15:04:22:103642,-5,9,9,6,-7,-1,-6,-2
15:04:22:104412,-5,2,-4,-4,-9,-10,-10,-11
15:04:22:116476,14,20,19,15,15,1,-1,-16
15:04:22:124667,14,20,19,15,15,1,-1,-16
15:04:22:125451,8,13,18,6,17,17,11,-4
15:04:22:131396,-9,-2,-1,-10,-24,-11,-13,-19
15:04:22:139043,-9,-2,-1,-10,-24,-11,-13,-19
15:04:22:146426,-11,-8,-2,-5,0,6,2,1
15:04:22:153926,6,0,-17,-11,-8,4,2,1
15:04:22:162194,6,0,-17,-11,-8,4,2,1
15:04:22:162971,-12,-8,4,-2,-6,3,-4,4
15:04:22:176446,-1,-23,-4,11,3,-5,-13,-22
15:04:22:184642,-1,-23,-4,11,3,-5,-13,-22
15:04:22:185435,3,4,0,8,-1,-5,-2,5
15:04:22:191452,-7,-22,-1,-26,-22,-20,-1,18
15:04:22:199025,-7,-22,-1,-26,-22,-20,-1,18
15:04:22:206439,4,-7,5,8,35,15,12,11
15:04:22:213946,4,1,-7,-6,-7,-16,-7,-1
15:04:22:222198,4,1,-7,-6,-7,-16,-7,-1
15:04:22:222963,-11,14,1,-15,-6,-4,-5,11
15:04:22:236468,-4,10,-4,-3,-2,8,-6,-4
15:04:22:244693,-4,10,-4,-3,-2,8,-6,-4
15:04:22:245455,9,22,20,8,-6,-10,5,-1
15:04:22:251489,-2,-6,12,4,4,8,1,4
15:04:22:267182,-2,-6,12,4,4,8,1,4
15:04:22:267945,3,-8,-2,-7,1,-3,1,5
15:04:22:273922,3,-3,-27,-5,-16,-8,-6,11
15:04:22:282221,3,-3,-27,-5,-16,-8,-6,11
15:04:22:282938,0,-23,-30,-6,6,0,-7,-38
15:04:22:296404,-2,-15,-9,10,7,8,8,8
15:04:22:312804,-2,-15,-9,10,7,8,8,8
15:04:22:313579,17,14,-10,1,6,-10,-9,7
15:04:22:314364,-9,11,12,12,1,4,1,-17
15:04:22:327133,-9,11,12,12,1,4,1,-17
15:04:22:327900,3,-6,-26,5,11,12,-1,-8
15:04:22:333929,-9,1,31,1,7,-4,1,-3
15:04:22:342100,-9,1,31,1,7,-4,1,-3
15:04:22:342927,-6,1,3,9,3,-10,2,-1
15:04:22:356437,3,10,-3,-5,-3,5,1,3
15:04:22:364622,3,10,-3,-5,-3,5,1,3
15:04:22:365418,-10,7,8,-4,-12,-1,3,3
15:04:22:379654,-7,3,3,-21,-9,-4,-4,-5
15:04:22:380461,-7,3,3,-21,-9,-4,-4,-5
15:04:22:386457,-8,-12,9,-3,-22,-4,-3,3
15:04:22:393988,-15,3,0,4,4,4,0,-16
15:04:22:401499,-15,3,0,4,4,4,0,-16
15:04:22:408950,6,10,15,16,7,6,4,-3
15:04:22:416494,10,-5,-8,-10,-10,-13,-5,1
15:04:22:424633,10,-5,-8,-10,-10,-13,-5,1
15:04:22:425434,0,-16,-2,-2,-7,2,-5,-10
15:04:22:439608,3,-27,-36,-12,3,10,2,10
15:04:22:440429,3,-27,-36,-12,3,10,2,10
15:04:22:446447,1,2,-26,-24,-29,-10,-7,3
15:04:22:453981,-2,11,4,13,45,21,0,13
15:04:22:461501,-2,11,4,13,45,21,0,13
15:04:22:468946,-5,-2,11,-4,1,-6,1,-15
15:04:22:476429,-4,-5,7,-4,-16,-8,-3,-20
15:04:22:484650,-4,-5,7,-4,-16,-8,-3,-20
15:04:22:485438,7,-8,-12,-1,7,-10,1,-4
15:04:22:499717,5,12,-5,2,-4,-3,4,2
15:04:22:500481,5,12,-5,2,-4,-3,4,2
15:04:22:506441,-9,-14,-15,-17,-3,5,8,24
15:04:22:513902,4,3,-26,-4,0,-7,3,-3
15:04:22:521472,4,3,-26,-4,0,-7,3,-3
15:04:22:528919,0,6,7,4,3,2,0,15
15:04:22:545342,-9,1,-4,-12,5,-5,-5,-1
15:04:22:546085,-9,1,-4,-12,5,-5,-5,-1
15:04:22:546919,7,-1,4,5,7,12,0,17
15:04:22:559614,7,-27,-5,2,-20,-10,2,16
15:04:22:560455,7,-27,-5,2,-20,-10,2,16
15:04:22:566463,3,-2,-24,2,11,12,-3,0
15:04:22:582142,8,11,8,3,-3,-7,-4,-12
15:04:22:582921,8,11,8,3,-3,-7,-4,-12
15:04:22:588968,-14,8,16,8,4,-2,-5,-22
15:04:22:596446,0,-6,2,3,-2,1,-3,-9
15:04:22:604637,0,-6,2,3,-2,1,-3,-9
15:04:22:605454,2,-3,-6,-6,-18,-5,0,2
15:04:22:619619,0,21,21,10,26,10,5,7
15:04:22:620402,0,21,21,10,26,10,5,7
15:04:22:626438,-4,-25,-20,-14,-23,-17,-4,11
15:04:22:633966,-7,-2,-2,10,4,2,-1,13
15:04:22:641486,-7,-2,-2,10,4,2,-1,13
15:04:22:648961,19,12,8,-1,12,11,6,48
15:04:22:656390,-7,7,21,0,-14,-5,-6,-8
15:04:22:664671,-7,7,21,0,-14,-5,-6,-8
15:04:22:665476,-1,-2,30,11,12,9,-5,-17
15:04:22:679624,7,14,-2,2,1,-4,-2,19
15:04:22:680470,7,14,-2,2,1,-4,-2,19
15:04:22:686450,-12,-2,5,4,-14,-20,-7,-25
15:04:22:702126,7,1,-2,3,9,12,6,-16
15:04:22:702945,7,1,-2,3,9,12,6,-16
15:04:22:708898,-3,-3,-24,3,-1,-6,-2,-6
15:04:22:716469,-3,10,8,-10,-25,-11,3,5
15:04:22:724640,-3,10,8,-10,-25,-11,3,5
15:04:22:725437,2,1,10,-1,21,8,3,7
15:04:22:739614,18,-2,15,3,0,5,-8,6
15:04:22:740467,18,-2,15,3,0,5,-8,6
15:04:22:746395,-12,-6,-43,-27,-6,-5,-1,-17
15:04:22:754000,-6,-19,33,2,-5,-3,-1,4
15:04:22:761477,-6,-19,33,2,-5,-3,-1,4
15:04:22:768942,2,7,5,2,-11,-10,-11,-12
15:04:22:776419,-5,-3,3,4,-1,7,-1,-12
15:04:22:784689,-5,-3,3,4,-1,7,-1,-12
15:04:22:785445,-10,1,-6,10,23,16,8,3
15:04:22:799638,3,-7,-23,-15,-1,-1,-2,-11
15:04:22:800423,3,-7,-23,-15,-1,-1,-2,-11
15:04:22:806424,3,-5,-16,-5,-10,-17,2,16
15:04:22:822116,-6,-4,-21,-9,-1,-5,-4,1
15:04:22:822951,-6,-4,-21,-9,-1,-5,-4,1
15:04:22:828870,15,16,29,14,21,6,2,1
15:04:22:836412,-9,-15,-23,-10,-8,-4,-2,-18
15:04:22:844670,-9,-15,-23,-10,-8,-4,-2,-18
15:04:22:845434,-2,-9,-11,-7,-16,-3,-6,-7
15:04:22:859645,-1,-9,0,3,-8,-4,2,23
15:04:22:860467,-1,-9,0,3,-8,-4,2,23
15:04:22:866409,-7,5,-1,-2,-7,-3,-3,-7
15:04:22:873927,-1,-5,-20,1,6,4,-7,-7
15:04:22:881505,-1,-5,-20,1,6,4,-7,-7
15:04:22:888953,3,4,1,8,4,3,6,-6
15:04:22:905308,1,11,15,3,-7,-8,-4,9
15:04:22:906076,1,11,15,3,-7,-8,-4,9
15:04:22:906899,-3,8,12,4,-10,-5,0,8
15:04:22:919636,-3,8,11,31,39,17,8,-1
15:04:22:920437,-3,8,11,31,39,17,8,-1
15:04:22:926505,0,-21,-12,-10,-4,-5,-3,-12
15:04:22:933962,-2,-19,9,-2,-9,-5,-8,0
15:04:22:941525,-2,-19,9,-2,-9,-5,-8,0
15:04:22:948904,3,15,17,2,5,0,4,6
15:04:22:956403,0,3,21,0,-1,-5,1,-11
15:04:22:964899,0,3,21,0,-1,-5,1,-11
15:04:22:965471,-4,1,-11,-19,-13,-2,-5,-8
15:04:22:980058,-11,-8,-25,-4,-1,-3,0,-5
15:04:22:980895,-11,-8,-25,-4,-1,-3,0,-5
15:04:22:986434,-10,-32,-6,-2,-11,11,-8,-17
15:04:22:993875,13,15,4,4,9,0,8,18
15:04:23:1508,13,15,4,4,9,0,8,18
15:04:23:8934,-3,-2,-2,-8,-18,-8,-1,2
15:04:23:17143,-2,-3,-22,-5,-20,-3,1,-5
15:04:23:17972,-2,-3,-22,-5,-20,-3,1,-5
15:04:23:23954,-17,8,9,12,14,-2,-7,-16
15:04:23:39635,15,7,-4,-9,-13,-13,-2,10
15:04:23:40439,15,7,-4,-9,-13,-13,-2,10
15:04:23:46401,12,-12,-6,0,14,9,9,7
15:04:23:53967,-4,-9,0,-1,-12,-7,-7,4
15:04:23:61508,-4,-9,0,-1,-12,-7,-7,4
15:04:23:68937,7,9,-6,5,10,-6,0,12
15:04:23:76435,0,17,-13,-16,8,8,0,0
15:04:23:84703,0,17,-13,-16,8,8,0,0
15:04:23:85527,-6,3,7,-3,-9,-6,-5,-13
15:04:23:100112,-8,-14,-2,8,5,7,4,-2
15:04:23:100947,-8,-14,-2,8,5,7,4,-2
15:04:23:106416,7,7,3,-1,-12,-6,-4,-5
15:04:23:113964,-4,-4,3,-5,-9,-5,-3,-1
15:04:23:121532,-4,-4,3,-5,-9,-5,-3,-1
15:04:23:128920,4,10,4,-2,-13,-6,1,-4
15:04:23:137192,-6,-17,-17,0,29,17,1,-3
15:04:23:137944,-6,-17,-17,0,29,17,1,-3
15:04:23:143992,2,-2,-12,-13,-6,0,12,-9
15:04:23:159698,5,10,17,7,-6,3,6,-2
15:04:23:160486,5,10,17,7,-6,3,6,-2
15:04:23:166481,-7,-21,9,0,3,2,1,30
15:04:23:173930,-1,-14,12,-15,-16,-13,-12,-7
15:04:23:181481,-1,-14,12,-15,-16,-13,-12,-7
15:04:23:188975,0,15,8,15,8,10,-7,-6
15:04:23:197127,-2,-5,-8,2,2,-10,-9,-14
15:04:23:197941,-2,-5,-8,2,2,-10,-9,-14
15:04:23:211470,18,4,11,8,12,2,-1,2
15:04:23:219675,-8,11,-8,6,-3,9,3,-8
15:04:23:220464,-8,11,-8,6,-3,9,3,-8
15:04:23:226484,-10,-9,-2,-3,-10,-3,5,3
15:04:23:233957,-15,-17,0,-2,6,-10,-5,-16
15:04:23:241524,-15,-17,0,-2,6,-10,-5,-16
15:04:23:248936,-3,8,3,-5,-6,-10,-14,-25
15:04:23:265308,-4,11,6,-4,0,-5,-13,-4
15:04:23:266188,-4,11,6,-4,0,-5,-13,-4
15:04:23:266903,-11,5,-13,-4,-2,-5,-13,-7
15:04:23:279672,7,9,0,-3,-10,-1,14,12
15:04:23:280469,7,9,0,-3,-10,-1,14,12
15:04:23:286457,-1,9,-17,-5,3,-3,-3,3
15:04:23:293967,-4,-2,-26,-15,3,-1,-3,4
15:04:23:301463,-4,-2,-26,-15,3,-1,-3,4
15:04:23:308955,-10,-11,2,2,-2,5,4,9
15:04:23:317108,6,-7,3,-1,-4,3,0,-5
15:04:23:317948,6,-7,3,-1,-4,3,0,-5
15:04:23:331442,2,-16,-13,2,5,21,23,11
15:04:23:339594,1,27,-15,1,-5,-10,-2,3
15:04:23:340413,1,27,-15,1,-5,-10,-2,3
15:04:23:346454,-3,3,14,14,-6,4,1,-11
15:04:23:362184,-9,-34,-21,11,13,8,12,1
15:04:23:362945,-9,-34,-21,11,13,8,12,1
15:04:23:377812,0,5,12,-4,-8,-14,-5,-1
15:04:23:378596,4,15,2,-5,1,-5,-3,-3
15:04:23:379433,4,15,2,-5,1,-5,-3,-3
15:04:23:391422,-7,-16,5,-7,-6,-1,-11,-2
15:04:23:399659,5,3,9,1,-9,-8,-9,-10
15:04:23:400455,5,3,9,1,-9,-8,-9,-10
15:04:23:406424,3,13,0,-8,0,-3,-2,16
15:04:23:422176,15,7,3,-7,-6,11,5,13
15:04:23:422969,15,7,3,-7,-6,11,5,13
15:04:23:428923,-4,-4,-19,-4,-10,-5,-10,-20
15:04:23:437181,7,1,19,26,19,5,-5,-4
15:04:23:438006,7,1,19,26,19,5,-5,-4
15:04:23:451456,5,-13,-19,-7,-7,-9,-7,5
15:04:23:459612,-6,2,10,4,11,5,7,13
15:04:23:460498,-6,2,10,4,11,5,7,13
15:04:23:466456,1,8,-10,-7,4,-1,2,-8
15:04:23:499179,-5,-23,-15,-13,-30,-31,-8,-3
15:04:23:499960,-5,-23,-15,-13,-30,-31,-8,-3
15:04:23:500758,4,-6,17,3,3,4,-3,-17
15:04:23:501575,0,-11,2,3,12,15,4,-3
15:04:23:504034,0,-11,2,3,12,15,4,-3
15:04:23:511435,-13,-7,-17,9,14,3,-5,-14
15:04:23:519676,-16,13,10,-9,-25,-2,-3,-11
15:04:23:520426,-16,13,10,-9,-25,-2,-3,-11
15:04:23:526465,3,8,13,-3,6,3,-2,-11
15:04:23:542193,-1,-3,-11,-13,-4,0,-4,-5
15:04:23:542978,-1,-3,-11,-13,-4,0,-4,-5
15:04:23:548934,1,-4,17,22,4,3,4,19
15:04:23:557116,4,8,2,1,1,-2,-7,-18
15:04:23:557911,4,8,2,1,1,-2,-7,-18
15:04:23:571469,-9,-13,-14,-5,-2,-10,-3,0
15:04:23:579632,-2,11,9,7,0,5,-4,10
15:04:23:580465,-2,11,9,7,0,5,-4,10
15:04:23:586422,7,0,-18,-6,-8,0,14,24
15:04:23:602243,15,7,-6,-1,9,-3,15,18
15:04:23:603020,15,7,-6,-1,9,-3,15,18
15:04:23:608933,-22,9,8,-7,-13,-7,-15,-15
15:04:23:617161,-11,-4,0,-6,21,6,2,21
15:04:23:618036,-11,-4,0,-6,21,6,2,21
15:04:23:631439,11,5,-4,-1,0,1,1,-6
15:04:23:639653,2,-8,18,5,-8,-4,-1,-9
15:04:23:640489,2,-8,18,5,-8,-4,-1,-9
15:04:23:653991,-2,12,-16,-11,-12,-8,-9,-1
15:04:23:662161,2,1,-1,-7,18,14,0,7
15:04:23:662943,2,1,-1,-7,18,14,0,7
15:04:23:668948,-22,-10,9,0,-8,-5,15,-15
15:04:23:677165,-4,-20,-16,2,-11,-2,-2,-9
15:04:23:677984,-4,-20,-16,2,-11,-2,-2,-9
15:04:23:691406,7,-4,21,1,8,2,-5,-3
15:04:23:699643,-1,6,-9,-6,-17,-9,-5,-11
15:04:23:700462,-1,6,-9,-6,-17,-9,-5,-11
15:04:23:706419,-2,-19,-23,-19,-13,-5,-14,9
15:04:23:722168,-2,-9,10,14,35,12,-2,1
15:04:23:722931,-2,-9,10,14,35,12,-2,1
15:04:23:728929,11,0,1,-1,-1,2,0,-16
15:04:23:737157,-6,-2,-24,-16,-12,-3,2,-1
15:04:23:737942,-6,-2,-24,-16,-12,-3,2,-1
15:04:23:751424,11,2,-2,-1,6,7,2,2
15:04:23:759685,11,2,-2,-1,6,7,2,2
15:04:23:760468,0,8,9,12,-14,-8,-2,-11
15:04:23:773968,3,17,14,1,-10,-1,0,15
15:04:23:782116,3,17,14,1,-10,-1,0,15
15:04:23:782895,-3,5,7,4,11,-3,6,4
15:04:23:788931,-7,4,26,-3,0,2,4,27
15:04:23:804645,-7,4,26,-3,0,2,4,27
15:04:23:805442,-8,-13,-28,-7,-7,-1,-10,-5
15:04:23:811453,5,3,-12,1,-8,-6,-11,-25
15:04:23:819652,5,3,-12,1,-8,-6,-11,-25
15:04:23:820459,-4,3,5,8,-8,5,4,-17
15:04:23:826412,-6,-7,-5,-9,3,-2,-1,5
15:04:23:842136,-6,-7,-5,-9,3,-2,-1,5
15:04:23:842919,-2,6,-8,-11,-8,-7,-4,11
15:04:23:848956,11,-24,-15,2,22,2,3,-1
15:04:23:864622,11,-24,-15,2,22,2,3,-1
15:04:23:865482,-1,-4,1,-3,-5,-12,-3,4
15:04:23:871449,5,-2,-12,2,5,2,8,9
15:04:23:879658,5,-2,-12,2,5,2,8,9
15:04:23:880481,-3,-14,-7,-22,-18,2,-1,3
15:04:23:886456,-1,9,-2,8,-4,4,-4,9
15:04:23:902158,-1,9,-2,8,-4,4,-4,9
15:04:23:902982,-1,14,8,5,-7,-6,-1,4
15:04:23:908961,7,8,11,2,1,-7,-3,-9
15:04:23:924699,7,8,11,2,1,-7,-3,-9
15:04:23:925477,-12,-16,-14,-5,5,0,-1,-6
15:04:23:931443,-6,0,-11,-8,-20,-5,-10,-8
15:04:23:939630,-6,0,-11,-8,-20,-5,-10,-8
15:04:23:940448,4,7,31,2,6,7,-4,-6
15:04:23:946446,-7,5,3,2,3,0,7,-9
15:04:23:962117,-7,5,3,2,3,0,7,-9
15:04:23:962893,10,18,19,0,26,20,-5,2
15:04:23:968951,-12,-9,17,10,-2,-8,6,2
15:04:23:984738,-12,-9,17,10,-2,-8,6,2
15:04:23:985471,6,-5,-17,2,-4,-10,6,17
15:04:23:991442,9,11,4,1,12,0,-7,-14
15:04:23:999656,9,11,4,1,12,0,-7,-14
15:04:24:505,1,-11,-18,-15,-13,-9,-14,-16
15:04:24:6440,0,-9,-14,11,18,6,13,17
15:04:24:22239,0,-9,-14,11,18,6,13,17
15:04:24:22966,0,5,17,13,-7,2,-9,-13
15:04:24:28939,-2,-3,11,-20,-26,-13,-29,2
15:04:24:52870,-2,-3,11,-20,-26,-13,-29,2
15:04:24:53635,-6,-6,-15,-2,18,13,7,14
15:04:24:54414,-6,-21,1,9,-5,-3,3,26
15:04:24:59664,-6,-21,1,9,-5,-3,3,26
15:04:24:60452,-4,4,-4,-13,-10,-8,3,-4
15:04:24:66407,-16,-11,-16,-6,5,-10,1,-2
15:04:24:82228,-16,-11,-16,-6,5,-10,1,-2
15:04:24:82924,-1,-11,-28,1,15,0,3,-4
15:04:24:88876,3,6,-3,-12,-7,-6,-5,-13
15:04:24:104669,3,6,-3,-12,-7,-6,-5,-13
15:04:24:105440,4,5,10,1,-9,3,18,-5
15:04:24:111486,-14,-15,-6,2,-3,2,5,-10
15:04:24:119699,-14,-15,-6,2,-3,2,5,-10
15:04:24:120467,-17,-8,-27,-5,-27,7,-8,13
15:04:24:126428,4,12,32,21,20,15,7,-2
15:04:24:142135,4,12,32,21,20,15,7,-2
15:04:24:142904,20,-3,24,24,1,-14,4,6
15:04:24:148981,-2,9,-29,-8,-7,1,-16,0
15:04:24:164655,-2,9,-29,-8,-7,1,-16,0
15:04:24:165441,-3,10,27,2,-6,-5,-4,-15
15:04:24:171500,-1,-2,-6,-8,-4,-2,-9,-5
15:04:24:179621,-1,-2,-6,-8,-4,-2,-9,-5
15:04:24:180434,1,-15,8,0,-4,-3,1,-2
15:04:24:186400,4,-7,-6,6,8,4,5,10
15:04:24:202179,4,-7,-6,6,8,4,5,10
15:04:24:202942,-17,-14,0,-6,-17,-10,-9,4
15:04:24:208993,-1,2,2,-15,-4,-5,3,-13
15:04:24:224662,-1,2,2,-15,-4,-5,3,-13
15:04:24:225541,10,12,5,7,21,-3,1,-26
15:04:24:231459,0,-2,-10,-11,-11,0,-11,7
15:04:24:239619,0,-2,-10,-11,-11,0,-11,7
15:04:24:240474,-4,14,-6,-6,6,-2,-2,-9
15:04:24:254034,5,-6,15,-4,3,9,7,2
15:04:24:262186,5,-6,15,-4,3,9,7,2
15:04:24:263006,-1,8,-22,-7,-5,2,0,3
15:04:24:268963,-6,5,2,0,-1,-3,2,-18
15:04:24:276526,-6,5,2,0,-1,-3,2,-18
15:04:24:284042,3,10,19,-3,-2,-1,-6,15
15:04:24:291464,7,3,-11,4,7,3,4,12
15:04:24:299708,7,3,-11,4,7,3,4,12
15:04:24:300470,7,-11,3,-4,-8,-10,-6,-8
15:04:24:313944,-14,-54,6,8,4,15,11,-15
15:04:24:330329,-14,-54,6,8,4,15,11,-15
15:04:24:331159,-1,6,-13,4,11,3,2,7
15:04:24:331947,7,17,0,4,-19,-14,-13,-1
15:04:24:336524,7,17,0,4,-19,-14,-13,-1
15:04:24:343968,0,-9,-12,-4,-3,4,7,1
15:04:24:351460,-1,15,-1,-2,11,1,2,5
15:04:24:359643,-1,15,-1,-2,11,1,2,5
15:04:24:360455,-7,-9,12,1,-6,-12,-12,-5
15:04:24:373970,0,16,16,2,-2,0,5,-9
15:04:24:382164,0,16,16,2,-2,0,5,-9
15:04:24:382969,16,-11,-3,-22,-7,-1,-2,9
15:04:24:388955,4,3,7,-2,7,4,-4,7
15:04:24:396482,4,3,7,-2,7,4,-4,7
15:04:24:403982,-13,0,-7,5,10,2,19,-15
15:04:24:411457,5,8,3,-4,-13,-13,-2,-1
15:04:24:419667,5,8,3,-4,-13,-13,-2,-1
15:04:24:420439,-12,-10,-10,-1,0,4,-10,-23
15:04:24:433985,-4,-1,-7,-10,-5,-5,-1,4
15:04:24:450329,-4,-1,-7,-10,-5,-5,-1,4
15:04:24:451143,-3,1,-20,-35,-7,-2,-4,11
15:04:24:451990,-2,-1,-13,-18,-3,-4,-5,-6
15:04:24:456450,-2,-1,-13,-18,-3,-4,-5,-6
15:04:24:463963,-17,-6,4,12,-2,-1,-1,0
15:04:24:471475,16,5,15,12,0,-1,-1,24
15:04:24:479629,16,5,15,12,0,-1,-1,24
15:04:24:480414,-28,-6,15,8,-1,6,-7,-10
15:04:24:493979,10,7,33,25,11,9,12,33
15:04:24:502146,10,7,33,25,11,9,12,33
15:04:24:502956,18,-5,11,7,-6,-12,0,19
15:04:24:508975,-6,-10,-23,-6,4,3,4,-14
15:04:24:516462,-6,-10,-23,-6,4,3,4,-14
15:04:24:523921,3,21,8,1,-2,-1,-4,3
15:04:24:531481,-7,-6,2,5,8,4,-1,-10
15:04:24:539634,-7,-6,2,5,8,4,-1,-10
15:04:24:540441,0,-13,-10,13,15,8,12,-9
15:04:24:554013,-7,-1,-12,-11,-13,-5,-3,4
15:04:24:562158,-7,-1,-12,-11,-13,-5,-3,4
15:04:24:562960,10,-10,-16,-9,-3,-2,-23,-7
15:04:24:568936,7,-24,-8,3,0,2,2,3
15:04:24:576530,7,-24,-8,3,0,2,2,3
15:04:24:583953,-2,10,-7,-14,-9,-11,4,-3
15:04:24:591394,-3,10,4,-6,0,-6,-3,-6
15:04:24:607149,-3,10,4,-6,0,-6,-3,-6
15:04:24:607903,-4,-9,6,15,31,9,-1,0
15:04:24:613889,-1,2,-8,-1,21,1,6,-4
15:04:24:622162,-1,2,-8,-1,21,1,6,-4
15:04:24:622935,8,7,3,15,-5,-2,-2,5
15:04:24:628924,-6,1,-11,-16,-20,-8,-9,-3
15:04:24:636507,-6,1,-11,-16,-20,-8,-9,-3
15:04:24:643942,-1,-6,-12,-10,-3,7,1,4
15:04:24:651432,-10,-6,-12,-2,-5,-4,-1,-14
15:04:24:659696,-10,-6,-12,-2,-5,-4,-1,-14
15:04:24:660477,4,10,14,-12,-10,2,-7,10
15:04:24:673945,-23,-24,11,23,23,16,10,2
15:04:24:682185,-23,-24,11,23,23,16,10,2
15:04:24:682964,-11,-7,4,-2,-12,-9,-5,-23
15:04:24:688914,1,23,-4,-10,-7,-8,-5,-8
15:04:24:696487,1,23,-4,-10,-7,-8,-5,-8
15:04:24:703945,10,-6,-14,5,-2,-5,4,-6
15:04:24:711458,2,3,13,12,-22,-12,-2,-14
15:04:24:727218,2,3,13,12,-22,-12,-2,-14
15:04:24:727972,3,18,23,24,32,13,4,18
15:04:24:733921,1,-5,-24,-9,-6,-6,-9,-9
15:04:24:742174,1,-5,-24,-9,-6,-6,-9,-9
15:04:24:742982,-8,-8,-20,-21,-17,-1,6,2
15:04:24:748927,12,7,14,-4,-3,-8,-5,21
15:04:24:756462,12,7,14,-4,-3,-8,-5,21
15:04:24:763942,-11,-4,0,2,-8,0,-2,-6
15:04:24:771498,-8,-4,-8,-14,-13,-5,-3,-16
15:04:24:779648,-8,-4,-8,-14,-13,-5,-3,-16
15:04:24:780424,-6,3,4,-2,18,11,3,11
15:04:24:793984,10,3,-3,-11,7,3,0,-5
15:04:24:802126,10,3,-3,-11,7,3,0,-5
15:04:24:802938,-3,-17,-23,-14,-27,-23,-10,-8
15:04:24:808958,-3,-3,-4,15,1,3,-1,-6
15:04:24:816449,-3,-3,-4,15,1,3,-1,-6
15:04:24:823914,18,4,2,-1,6,7,2,-6
15:04:24:831420,-5,-5,-5,5,2,5,4,6
15:04:24:839633,-5,-5,-5,5,2,5,4,6
15:04:24:840443,5,28,13,7,-4,-16,-5,-4
15:04:24:854057,-14,-27,-3,-24,-11,-3,4,-8
15:04:24:862144,-14,-27,-3,-24,-11,-3,4,-8
15:04:24:862924,4,1,-12,7,13,2,6,11
15:04:24:868955,7,4,-4,13,8,9,-3,-17
15:04:24:884653,7,4,-4,13,8,9,-3,-17
15:04:24:885439,-5,7,16,2,-13,-6,-5,-1
15:04:24:891472,-6,12,-35,-18,3,0,-4,-3
15:04:24:899640,-6,12,-35,-18,3,0,-4,-3
15:04:24:900412,-7,-22,-8,0,-3,-14,-2,-25
15:04:24:913953,8,7,6,14,23,25,10,22
15:04:24:922146,8,7,6,14,23,25,10,22
15:04:24:922951,-11,-21,14,-9,-24,-13,-8,-6
15:04:24:928955,6,1,8,10,8,-1,-4,2
15:04:24:936526,6,1,8,10,8,-1,-4,2
15:04:24:943936,7,14,10,-7,-3,3,-5,7
15:04:24:951425,7,12,11,-1,-2,-6,8,6
15:04:24:959675,7,12,11,-1,-2,-6,8,6
15:04:24:960408,6,12,-10,-11,3,7,-2,4
15:04:24:973970,-3,7,-20,-1,-4,-3,-8,-3
15:04:24:982171,-3,7,-20,-1,-4,-3,-8,-3
15:04:24:982941,-9,-23,-19,4,-2,-9,1,1
15:04:24:988938,-3,-11,13,-2,-11,-6,-2,10
15:04:25:4706,-3,-11,13,-2,-11,-6,-2,10
15:04:25:5459,-1,1,6,-4,7,11,-3,-14
15:04:25:11470,-4,-19,-8,-15,-6,-9,-9,3
15:04:25:19692,-4,-19,-8,-15,-6,-9,-9,3
15:04:25:20467,10,-7,1,11,13,6,8,10
15:04:25:34042,-1,-15,-3,13,0,-2,0,4
15:04:25:42142,-1,-15,-3,13,0,-2,0,4
15:04:25:42974,-3,-8,-21,-2,-3,3,0,4
15:04:25:48896,2,6,24,0,-3,-1,1,6
15:04:25:56481,2,6,24,0,-3,-1,1,6
15:04:25:63901,-6,4,16,-2,-4,4,-7,-14
15:04:25:71432,0,-4,-10,-1,0,-6,-6,-24
15:04:25:79632,0,-4,-10,-1,0,-6,-6,-24
15:04:25:80447,6,25,12,-1,-8,-8,6,9
15:04:25:93942,-9,14,9,5,8,2,-6,-26
15:04:25:102179,-9,14,9,5,8,2,-6,-26
15:04:25:102924,-1,-29,-49,-9,12,7,1,0
15:04:25:108908,2,-8,0,1,-14,-2,0,5
15:04:25:116491,2,-8,0,1,-14,-2,0,5
15:04:25:123927,4,4,28,-3,-14,-12,-6,-7
15:04:25:131459,-13,2,-7,-10,14,14,2,-2
15:04:25:139710,-13,2,-7,-10,14,14,2,-2
15:04:25:140488,3,5,-6,0,-10,-2,2,3
15:04:25:162778,8,4,-3,6,-4,-1,0,1
15:04:25:163599,8,4,-3,6,-4,-1,0,1
15:04:25:164390,-11,7,3,-3,-9,-16,-3,-2
15:04:25:168901,8,8,-2,4,23,1,-1,8
15:04:25:176501,8,8,-2,4,23,1,-1,8
15:04:25:183993,3,-1,-3,-1,-5,2,22,26
15:04:25:191439,-5,-14,-2,-12,-19,-4,0,-10
15:04:25:199001,-5,-14,-2,-12,-19,-4,0,-10
15:04:25:206471,-5,2,2,6,9,6,1,-1
15:04:25:213924,-3,-12,1,-8,-7,0,8,10
15:04:25:222168,-3,-12,1,-8,-7,0,8,10
15:04:25:222896,9,-1,-9,-7,12,14,-3,-9
15:04:25:237177,-1,17,13,11,1,-10,-1,8
15:04:25:237955,-1,17,13,11,1,-10,-1,8
15:04:25:243955,-11,-1,-5,-4,9,-4,-6,-8
15:04:25:251431,0,3,-23,-17,6,0,-4,-1
15:04:25:259076,0,3,-23,-17,6,0,-4,-1
15:04:25:266485,5,-18,15,-3,-23,-28,-15,-50
15:04:25:273975,4,6,-4,-6,6,4,-6,-7
15:04:25:282112,4,6,-4,-6,6,4,-6,-7
15:04:25:282947,-2,6,6,0,-5,-5,-12,-20
15:04:25:297079,-4,7,5,8,7,1,-4,-30
15:04:25:297888,-4,7,5,8,7,1,-4,-30
15:04:25:303946,2,-29,-20,-6,-11,-5,-1,9
15:04:25:311442,0,10,14,15,2,10,9,3
15:04:25:319008,0,10,14,15,2,10,9,3
15:04:25:326406,4,21,20,6,-14,1,-3,4
15:04:25:334004,-2,-24,-13,-5,-4,-5,-5,-6
15:04:25:342159,-2,-24,-13,-5,-4,-5,-5,-6
15:04:25:342955,-4,2,14,-1,4,2,8,12
15:04:25:357131,-11,-4,5,-18,-5,-4,-4,20
15:04:25:357927,-11,-4,5,-18,-5,-4,-4,20
15:04:25:363883,-2,3,-2,8,18,14,10,17
15:04:25:371436,19,2,17,0,-15,-9,-19,3
15:04:25:378964,19,2,17,0,-15,-9,-19,3
15:04:25:386427,-16,-11,15,5,1,-13,-7,-26
15:04:25:393924,-7,-7,8,9,0,5,3,13
15:04:25:402189,-7,-7,8,9,0,5,3,13
15:04:25:402935,-3,6,-23,0,9,17,-5,-13
15:04:25:417118,0,2,5,16,9,1,7,2
15:04:25:417958,0,2,5,16,9,1,7,2
15:04:25:440288,-4,0,1,-1,-4,2,5,12
15:04:25:441062,-11,-22,-23,-12,-13,-6,-9,-9
15:04:25:441880,-11,-22,-23,-12,-13,-6,-9,-9
15:04:25:446434,-2,-8,-34,-2,-17,-5,-1,8
15:04:25:454015,7,-7,-1,-11,1,1,9,4
15:04:25:462134,7,-7,-1,-11,1,1,9,4
15:04:25:462948,-1,13,15,-3,-1,-4,10,17
15:04:25:477137,-7,4,6,-1,-9,-8,-1,8
15:04:25:477924,-7,4,6,-1,-9,-8,-1,8
15:04:25:483935,-6,4,10,5,1,6,4,12
15:04:25:491448,-1,7,-10,1,0,-9,-6,7
15:04:25:499023,-1,7,-10,1,0,-9,-6,7
15:04:25:506425,3,7,-10,-6,6,-7,-1,0
15:04:25:513899,-3,-8,-3,-1,20,21,4,-15
15:04:25:522188,-3,-8,-3,-1,20,21,4,-15
15:04:25:522962,-2,-8,4,0,10,1,-3,2
15:04:25:537191,2,-4,-15,-2,-12,-7,4,-9
15:04:25:537933,2,-4,-15,-2,-12,-7,4,-9
15:04:25:543907,-18,-7,-4,-6,5,8,-7,-13
15:04:25:551435,-12,-5,3,9,-19,-10,-11,-11
15:04:25:558964,-12,-5,3,9,-19,-10,-11,-11
15:04:25:566447,4,-1,-4,1,10,12,4,-10
15:04:25:573949,-19,5,3,-6,-9,1,1,-1
15:04:25:582152,-19,5,3,-6,-9,1,1,-1
15:04:25:582983,0,-10,-10,-7,-13,-10,-2,-10
15:04:25:597135,2,-6,2,1,5,-7,-5,-32
15:04:25:597936,2,-6,2,1,5,-7,-5,-32
15:04:25:603998,-6,12,-3,-3,-1,6,-5,11
15:04:25:611471,2,-3,-5,4,4,0,-3,13
15:04:25:619025,2,-3,-5,4,4,0,-3,13
15:04:25:626449,6,16,5,9,6,6,0,5
15:04:25:633948,10,28,32,-3,-1,-7,3,-3
15:04:25:642228,10,28,32,-3,-1,-7,3,-3
15:04:25:642987,1,7,-3,-20,-12,-13,-3,-1
15:04:25:657150,-2,12,5,-4,-10,9,1,2
15:04:25:657949,-2,12,5,-4,-10,9,1,2
15:04:25:663882,10,-6,2,11,14,4,-2,10
15:04:25:671469,4,2,0,0,0,0,-4,4
15:04:25:679001,4,2,0,0,0,0,-4,4
15:04:25:686505,8,-19,6,-3,-4,-11,-5,0
15:04:25:694006,3,-8,0,4,9,12,6,14
15:04:25:702150,3,-8,0,4,9,12,6,14
15:04:25:702944,4,23,-8,10,1,-3,6,9
15:04:25:717570,-1,7,-7,-6,-21,-14,-8,-3
15:04:25:718430,-1,7,-7,-6,-21,-14,-8,-3
15:04:25:723979,-8,-5,4,14,12,11,0,3
15:04:25:731480,-3,-9,-5,7,22,-5,4,8
15:04:25:738984,-3,-9,-5,7,22,-5,4,8
15:04:25:746451,8,-2,-16,-7,-7,-8,-5,-10
15:04:25:753948,6,-8,-9,-2,-10,-8,-2,-7
15:04:25:762149,6,-8,-9,-2,-10,-8,-2,-7
15:04:25:762933,-2,-14,0,-14,-1,-1,1,-15
15:04:25:777147,-3,-12,-21,-2,5,-1,4,7
15:04:25:777911,-3,-12,-21,-2,5,-1,4,7
15:04:25:783951,-1,-15,-16,1,-16,-2,8,2
15:04:25:791439,1,-11,6,5,1,3,9,-1
15:04:25:798971,1,-11,6,5,1,3,9,-1
15:04:25:806402,5,-9,16,1,-16,-10,-12,-2
15:04:25:813885,-6,3,0,5,-3,11,1,3
15:04:25:822172,-6,3,0,5,-3,11,1,3
15:04:25:822972,-6,1,16,6,4,10,4,3
15:04:25:837612,-12,-5,-20,-10,0,-3,9,9
15:04:25:838424,-12,-5,-20,-10,0,-3,9,9
15:04:25:843903,-5,-3,2,5,-3,-13,0,16
15:04:25:851426,3,-6,3,-10,8,8,-2,-29
15:04:25:858964,3,-6,3,-10,8,8,-2,-29
15:04:25:866409,-10,13,7,-3,-5,-2,-10,-16
15:04:25:873896,-1,8,-5,9,9,3,-3,-6
15:04:25:882193,-1,8,-5,9,9,3,-3,-6
15:04:25:882926,12,12,-11,2,-2,-8,-4,2
15:04:25:897124,-1,-11,-6,-10,-12,-14,-5,8
15:04:25:897933,-1,-11,-6,-10,-12,-14,-5,8
15:04:25:903927,0,-3,-6,-11,32,14,8,1
15:04:25:911444,-1,6,-11,0,6,2,-8,-5
15:04:25:918993,-1,6,-11,0,6,2,-8,-5
15:04:25:926447,-5,7,11,11,-15,-10,-9,-14
15:04:25:933931,5,-6,15,-3,-9,-2,8,5
15:04:25:942169,5,-6,15,-3,-9,-2,8,5
15:04:25:942961,-9,0,7,-8,-7,-8,-2,-9
15:04:25:957107,-1,-10,-1,2,-10,4,-4,6
15:04:25:957988,-1,-10,-1,2,-10,4,-4,6
15:04:25:972100,-3,-15,-1,-8,-6,2,-2,1
15:04:25:972887,4,22,1,0,-8,-4,4,-6
15:04:25:979002,4,22,1,0,-8,-4,4,-6
15:04:25:986500,-6,0,8,8,6,0,6,20
15:04:25:993959,-11,-18,-16,-18,-14,-9,-8,-21
15:04:26:2199,-11,-18,-16,-18,-14,-9,-8,-21
15:04:26:2987,-2,1,-13,-20,-4,1,0,6
15:04:26:17171,-1,2,6,-3,2,-2,-4,15
15:04:26:17937,-1,2,6,-3,2,-2,-4,15
15:04:26:23935,-4,-5,-15,-4,3,17,-5,-18
15:04:26:31432,16,7,-2,-2,23,6,4,7
15:04:26:39018,16,7,-2,-2,23,6,4,7
15:04:26:46474,-1,-6,-2,-8,-19,-1,0,-13
15:04:26:53979,-11,10,2,-2,-16,-11,-6,-4
15:04:26:62201,-11,10,2,-2,-16,-11,-6,-4
15:04:26:62991,5,5,6,10,9,-3,-4,-7
15:04:26:77174,-16,-7,8,0,-7,-7,-7,-5
15:04:26:77969,-16,-7,8,0,-7,-7,-7,-5
15:04:26:83909,-2,-1,-6,-3,14,17,8,2
15:04:26:91425,5,1,4,-3,9,-1,6,8
15:04:26:98996,5,1,4,-3,9,-1,6,8
15:04:26:106479,2,-11,-9,-3,-41,-21,-9,-8
15:04:26:113947,3,-5,0,3,27,31,-4,4
15:04:26:122132,3,-5,0,3,27,31,-4,4
15:04:26:122909,9,21,13,-4,10,4,-1,-5
15:04:26:137127,0,-20,-24,-17,-34,-18,-5,-4
15:04:26:137946,0,-20,-24,-17,-34,-18,-5,-4
15:04:26:143954,-3,-7,17,7,17,3,-6,-8
15:04:26:159707,-3,-1,-8,-2,-2,-8,-2,-22
15:04:26:160470,-3,-1,-8,-2,-2,-8,-2,-22
15:04:26:166444,-15,-20,1,-9,-8,-14,-7,-3
15:04:26:173941,-9,-12,11,8,-3,7,5,0
15:04:26:181524,-9,-12,11,8,-3,7,5,0
15:04:26:188955,1,2,-4,16,5,-2,8,27
15:04:26:197144,4,19,4,1,2,4,0,6
15:04:26:197959,4,19,4,1,2,4,0,6
15:04:26:203956,5,5,-8,-6,-15,1,-1,-1
15:04:26:219664,4,11,-12,0,-4,-1,-3,-5
15:04:26:220447,4,11,-12,0,-4,-1,-3,-5
15:04:26:226489,-9,-1,-5,-7,-5,-8,6,-1
15:04:26:233973,-5,2,24,4,0,-6,-1,9
15:04:26:241464,-5,2,24,4,0,-6,-1,9
15:04:26:257813,1,-12,-21,-1,-5,-8,-4,4
15:04:26:258565,0,-50,1,-1,5,-1,13,0
15:04:26:259440,0,-50,1,-1,5,-1,13,0
15:04:26:263945,1,10,-3,1,19,0,3,-3
15:04:26:279611,-6,6,-1,-3,-10,-11,-8,-31
15:04:26:280423,-6,6,-1,-3,-10,-11,-8,-31
15:04:26:286515,-10,-12,-15,-7,2,2,-4,-9
15:04:26:293982,-8,23,-1,-2,5,5,2,5
15:04:26:301472,-8,23,-1,-2,5,5,2,5
15:04:26:308962,5,10,4,0,7,-3,3,-8
15:04:26:317103,6,10,4,-2,4,-4,-4,1
15:04:26:317928,6,10,4,-2,4,-4,-4,1
15:04:26:323913,3,6,14,8,-4,2,-5,13
15:04:26:339659,-4,-29,-6,3,6,8,-1,13
15:04:26:340422,-4,-29,-6,3,6,8,-1,13
15:04:26:346471,1,-11,15,10,0,4,3,46
15:04:26:354006,-1,5,-5,3,-11,-11,-9,-9
15:04:26:361492,-1,5,-5,3,-11,-11,-9,-9
15:04:26:368939,5,-2,-2,-12,-5,6,-4,-20
15:04:26:377168,11,2,16,7,15,3,0,9
15:04:26:377969,11,2,16,7,15,3,0,9
15:04:26:383926,-1,3,0,3,-11,-5,-3,-1
15:04:26:399680,2,1,-23,-1,6,5,4,-1
15:04:26:400446,2,1,-23,-1,6,5,4,-1
15:04:26:406435,7,-8,-38,-12,-11,-18,-8,-11
15:04:26:413928,5,0,2,8,18,21,3,6
15:04:26:421522,5,0,2,8,18,21,3,6
15:04:26:428964,-2,6,-23,-13,3,3,1,-6
15:04:26:437153,-6,6,6,-4,-21,-21,1,38
15:04:26:437978,-6,6,6,-4,-21,-21,1,38
15:04:26:443951,-11,-9,17,26,21,8,1,-3
15:04:26:459660,-6,3,-11,-7,-25,-6,-13,-25
15:04:26:460498,-6,3,-11,-7,-25,-6,-13,-25
15:04:26:466454,-2,2,12,10,5,6,2,-2
15:04:26:473931,5,7,18,10,18,-3,0,-5
15:04:26:489660,5,7,18,10,18,-3,0,-5
15:04:26:490462,-1,2,-5,-15,-16,-3,-2,-9
15:04:26:497113,6,19,-22,-18,-25,-10,-17,-4
15:04:26:497960,6,19,-22,-18,-25,-10,-17,-4
15:04:26:503968,2,-3,-3,0,33,14,7,-6
15:04:26:519698,5,7,10,-3,-3,-1,5,11
15:04:26:520506,5,7,10,-3,-3,-1,5,11
15:04:26:526470,-14,1,5,3,-6,-8,-1,-3
15:04:26:533879,-10,6,47,16,4,-3,-4,-59
15:04:26:541518,-10,6,47,16,4,-3,-4,-59
15:04:26:548950,3,6,6,-9,-25,-12,-7,2
15:04:26:557161,-8,-6,-14,8,24,8,4,4
15:04:26:557963,-8,-6,-14,8,24,8,4,4
15:04:26:563913,-18,4,-7,-7,-15,-9,-5,-15
15:04:26:579630,-6,-10,4,3,-2,1,1,5
15:04:26:580452,-6,-10,4,3,-2,1,1,5
15:04:26:586451,15,11,0,4,4,5,0,9
15:04:26:593937,-11,-11,-27,-21,-16,-15,-4,14
15:04:26:601523,-11,-11,-27,-21,-16,-15,-4,14
15:04:26:608922,3,3,14,12,19,5,-7,-16
15:04:26:617088,10,15,18,-2,-20,-5,0,6
15:04:26:617931,10,15,18,-2,-20,-5,0,6
15:04:26:623950,2,7,-14,-7,11,10,-6,5
15:04:26:639325,18,1,-2,4,10,3,-2,-8
15:04:26:647156,18,1,-2,4,10,3,-2,-8
15:04:26:647966,-5,-24,-5,-4,-13,-6,3,-12
15:04:26:653926,-6,-14,-3,0,-4,-3,-6,-4
15:04:26:661465,-6,-14,-3,0,-4,-3,-6,-4
15:04:26:669009,5,-7,3,3,-1,-8,2,19
15:04:26:677147,-2,2,9,15,26,11,12,20
15:04:26:677925,-2,2,9,15,26,11,12,20
15:04:26:683898,1,1,-6,-5,-10,-8,4,6
15:04:26:699603,3,23,14,3,-10,-9,-2,2
15:04:26:700429,3,23,14,3,-10,-9,-2,2
15:04:26:706437,-4,1,-20,-14,-4,2,0,-1
15:04:26:713947,5,1,2,-9,-2,0,-6,-9
15:04:26:721450,5,1,2,-9,-2,0,-6,-9
15:04:26:728917,-6,-15,-9,-4,-7,1,-7,-6
15:04:26:745270,-12,-33,-39,-13,-10,0,11,-1
15:04:26:746070,-12,-33,-39,-13,-10,0,11,-1
15:04:26:746874,9,9,13,6,9,-6,2,-12
15:04:26:759683,11,9,-8,4,31,14,0,7
15:04:26:760495,11,9,-8,4,31,14,0,7
15:04:26:766433,-9,-6,-1,0,-3,-6,-4,-1
15:04:26:773949,-13,-8,-14,-14,-17,-3,-6,-10
15:04:26:781469,-13,-8,-14,-14,-17,-3,-6,-10
15:04:26:788972,-15,3,6,-2,-4,2,0,-24
15:04:26:797103,-20,-11,-32,-2,-7,-14,-10,-8
15:04:26:797918,-20,-11,-32,-2,-7,-14,-10,-8
15:04:26:803904,-3,5,-2,-4,1,9,-13,12
15:04:26:819691,1,-23,-13,4,0,2,2,4
15:04:26:820472,1,-23,-13,4,0,2,2,4
15:04:26:826480,10,0,12,3,-17,-10,12,-5
15:04:26:833984,1,3,8,1,0,1,5,3
15:04:26:841482,1,3,8,1,0,1,5,3
15:04:26:848912,-1,-2,5,-10,-11,-4,-6,11
15:04:26:857122,-8,12,9,-4,-3,5,10,-3
15:04:26:857934,-8,12,9,-4,-3,5,10,-3
15:04:26:863918,-1,-1,-30,1,11,10,4,-10
15:04:26:879586,-15,-3,1,-7,-27,-27,-9,4
15:04:26:880402,-15,-3,1,-7,-27,-27,-9,4
15:04:26:886448,5,-19,5,9,20,11,-1,2
15:04:26:893909,-3,5,-11,-15,5,6,-4,-29
15:04:26:901496,-3,5,-11,-15,5,6,-4,-29
15:04:26:908935,-5,-8,-12,-7,-15,-10,2,4
15:04:26:925260,5,-4,1,-1,-3,-9,-7,17
15:04:26:926091,5,-4,1,-1,-3,-9,-7,17
15:04:26:926903,1,4,7,-1,-4,2,1,1
15:04:26:939601,9,16,13,0,14,11,-2,-6
15:04:26:940393,9,16,13,0,14,11,-2,-6
15:04:26:946426,-8,-7,19,6,7,0,-3,7
15:04:26:954001,-1,-18,-20,-15,-14,-8,-5,45
15:04:26:961495,-1,-18,-20,-15,-14,-8,-5,45
15:04:26:968944,4,7,-8,6,13,9,11,11
15:04:26:977108,-1,5,-2,7,-2,-1,-3,-17
15:04:26:977951,-1,5,-2,7,-2,-1,-3,-17
15:04:26:983926,-9,-5,33,15,9,-7,-8,-16
15:04:26:999674,5,-8,-7,-8,-1,6,4,-4
15:04:27:455,5,-8,-7,-8,-1,6,4,-4
15:04:27:6409,2,12,-8,-11,-5,0,2,-13
15:04:27:13915,2,14,37,22,3,-4,3,-18
15:04:27:21531,2,14,37,22,3,-4,3,-18
15:04:27:28922,4,14,-1,1,1,-3,-6,8
15:04:27:37165,5,-1,-8,7,4,5,2,14
15:04:27:37993,5,-1,-8,7,4,5,2,14
15:04:27:43943,-11,-9,-13,-9,-13,-16,2,-5
15:04:27:59681,-11,-9,-13,-9,-13,-16,2,-5
15:04:27:60458,-12,-1,7,8,24,18,3,-23
15:04:27:66432,13,-5,-19,-4,-7,3,-3,21
15:04:27:82192,13,-5,-19,-4,-7,3,-3,21
15:04:27:82983,0,-2,-5,-9,-29,-17,-11,-11
15:04:27:88911,2,-11,21,10,21,1,8,6
15:04:27:97144,2,-11,21,10,21,1,8,6
15:04:27:97936,-9,-49,-35,-14,-5,4,-8,-15
15:04:27:111441,2,-3,-7,-14,-3,-4,-5,2
15:04:27:119664,2,-3,-7,-14,-3,-4,-5,2
15:04:27:120467,4,11,3,3,7,8,1,-12
15:04:27:126450,-10,3,-5,2,-15,0,3,1
15:04:27:142184,-10,3,-5,2,-15,0,3,1
15:04:27:142995,-12,-1,2,-14,-5,-15,0,3
15:04:27:148929,4,8,5,-2,-2,2,-21,-30
15:04:27:157162,4,8,5,-2,-2,2,-21,-30
15:04:27:157977,1,3,-12,12,29,11,11,25
15:04:27:171501,-7,-1,9,-5,-5,-4,2,-26
15:04:27:179642,-7,-1,9,-5,-5,-4,2,-26
15:04:27:180448,12,28,42,0,-12,-12,-3,-4
15:04:27:186483,-4,-34,-22,1,-2,-5,0,-16
15:04:27:202221,-4,-34,-22,1,-2,-5,0,-16
15:04:27:202928,-5,-25,-10,3,-3,-4,-7,-2
15:04:27:208936,6,7,13,5,-1,0,0,10
15:04:27:217139,6,7,13,5,-1,0,0,10
15:04:27:217908,4,1,-4,-9,-8,-1,-5,1
15:04:27:231465,1,-7,-6,1,-8,-5,2,10
15:04:27:239639,1,-7,-6,1,-8,-5,2,10
15:04:27:240436,4,5,4,1,2,-1,2,-2
15:04:27:246418,3,-7,2,-7,12,4,-2,19
15:04:27:262146,3,-7,2,-7,12,4,-2,19
15:04:27:262919,-5,1,6,-5,-9,-6,1,-15
15:04:27:269006,-21,23,-21,-5,-3,1,-2,1
15:04:27:277193,-21,23,-21,-5,-3,1,-2,1
15:04:27:277927,1,2,-2,-6,-17,-3,2,-15
15:04:27:291394,3,2,24,2,3,-2,3,-3
15:04:27:299687,3,2,24,2,3,-2,3,-3
15:04:27:300430,-3,-4,22,22,6,0,0,5
15:04:27:306436,-2,-12,-6,1,12,14,4,11
15:04:27:322175,-2,-12,-6,1,12,14,4,11
15:04:27:322980,-1,7,-3,-8,-6,-7,-8,-1
15:04:27:328931,0,6,10,6,9,-6,6,2
15:04:27:337170,0,6,10,6,9,-6,6,2
15:04:27:337978,1,-1,-9,-3,-8,2,-4,6
15:04:27:351445,-3,8,-2,-9,-12,1,3,-1
15:04:27:359626,-3,8,-2,-9,-12,1,3,-1
15:04:27:360484,-27,-3,4,-3,7,9,2,18
15:04:27:366458,1,6,7,-5,-12,-15,-12,-2
15:04:27:382185,1,6,7,-5,-12,-15,-12,-2
15:04:27:382963,6,-26,-30,-7,3,5,5,4
15:04:27:388956,5,-3,-1,-2,0,-2,2,1
15:04:27:397094,5,-3,-1,-2,0,-2,2,1
15:04:27:397911,4,15,20,-11,-8,-6,-7,-5
15:04:27:411459,0,-16,-13,-4,5,2,1,-3
15:04:27:419710,0,-16,-13,-4,5,2,1,-3
15:04:27:420479,-1,29,7,10,7,8,1,-2
15:04:27:426431,-4,-7,-4,1,-21,-10,-7,-19
15:04:27:442156,-4,-7,-4,1,-21,-10,-7,-19
15:04:27:442989,20,15,15,8,26,9,2,10
15:04:27:448995,-14,7,13,2,-5,-6,3,-13
15:04:27:457156,-14,7,13,2,-5,-6,3,-13
15:04:27:458020,2,-18,-3,-1,-10,-12,-5,-32
15:04:27:471469,12,3,-1,-8,-3,-5,-11,3
15:04:27:479669,12,3,-1,-8,-3,-5,-11,3
15:04:27:480459,1,3,5,4,8,14,1,7
15:04:27:486469,-6,-1,-19,-11,-1,-1,2,-2
15:04:27:502236,-6,-1,-19,-11,-1,-1,2,-2
15:04:27:503047,-4,-11,-2,-19,-19,-15,-10,0
15:04:27:508915,4,-1,0,11,8,11,3,10
15:04:27:517180,4,-1,0,11,8,11,3,10
15:04:27:517967,1,-10,-9,0,-6,-5,10,10
15:04:27:531439,12,0,10,9,3,0,2,1
15:04:27:539639,12,0,10,9,3,0,2,1
15:04:27:540442,-25,-22,-26,-5,0,2,-7,-21
15:04:27:546444,-11,-30,-22,-4,-15,-17,-8,-13
15:04:27:562158,-11,-30,-22,-4,-15,-17,-8,-13
15:04:27:562940,-3,-18,-20,1,16,10,-3,-14
15:04:27:568920,-2,11,18,9,-3,-1,-2,9
15:04:27:577146,-2,11,18,9,-3,-1,-2,9
15:04:27:577997,0,9,-10,1,-13,-13,-4,5
15:04:27:591465,5,1,6,17,19,7,3,2
15:04:27:599642,5,1,6,17,19,7,3,2
15:04:27:600456,11,27,32,1,2,6,2,-4
15:04:27:606424,-8,19,4,-9,-11,-6,-7,-1
15:04:27:622173,-8,19,4,-9,-11,-6,-7,-1
15:04:27:622936,-3,4,-6,-1,7,-1,4,-7
15:04:27:628942,-9,-4,2,-4,-1,-3,-7,-8
15:04:27:637183,-9,-4,2,-4,-1,-3,-7,-8
15:04:27:637986,-13,-23,-16,-11,-13,-6,-1,3
15:04:27:651457,2,-6,2,-5,-1,1,1,2
15:04:27:659661,2,-6,2,-5,-1,1,1,2
15:04:27:660444,15,5,-6,7,8,4,4,7
15:04:27:666448,6,5,6,-2,3,12,-4,-2
15:04:27:690358,6,5,6,-2,3,12,-4,-2
15:04:27:691176,-3,5,8,-3,-5,-7,4,8
15:04:27:691928,-4,7,-18,1,2,-2,-4,-14
15:04:27:697077,-4,7,-18,1,2,-2,-4,-14
15:04:27:697861,-6,-8,1,-6,-13,-10,-9,-2
15:04:27:711453,10,35,28,3,0,0,-1,14
15:04:27:719734,10,35,28,3,0,0,-1,14
15:04:27:720472,-8,3,-23,-6,-8,-4,-6,-6
15:04:27:726477,1,-5,-8,-5,3,-1,0,9
15:04:27:742182,1,-5,-8,-5,3,-1,0,9
15:04:27:743004,12,18,29,5,7,2,7,2
15:04:27:748923,12,-18,-23,12,6,11,0,-2
15:04:27:757144,12,-18,-23,12,6,11,0,-2
15:04:27:757939,-1,-6,-4,-10,-42,-21,-9,-11
15:04:27:771449,-3,3,-10,-9,7,-8,-4,10
15:04:27:779632,-3,3,-10,-9,7,-8,-4,10
15:04:27:780418,-6,0,3,17,16,5,2,4
15:04:27:786443,-11,-4,17,8,-10,-7,2,-5
15:04:27:802188,-11,-4,17,8,-10,-7,2,-5
15:04:27:802954,8,6,16,0,4,4,-3,6
15:04:27:808891,-3,-6,-21,-16,-6,0,-1,-14
15:04:27:817182,-3,-6,-21,-16,-6,0,-1,-14
15:04:27:817937,-9,6,-2,-6,-9,-5,-6,-9
15:04:27:831466,9,-24,-5,0,6,3,3,16
15:04:27:839652,9,-24,-5,0,6,3,3,16
15:04:27:840452,1,-2,-1,9,9,3,-7,-11
15:04:27:846464,2,3,0,-7,-11,-5,0,-6
15:04:27:862182,2,3,0,-7,-11,-5,0,-6
15:04:27:862942,-10,-11,-10,-6,7,5,4,4
15:04:27:868955,-1,6,18,-11,-10,-8,-6,-18
15:04:27:877187,-1,6,18,-11,-10,-8,-6,-18
15:04:27:877946,2,0,-21,-14,5,16,10,0
15:04:27:891443,-2,8,16,-4,9,6,6,-4
15:04:27:899657,-2,8,16,-4,9,6,6,-4
15:04:27:900415,-8,1,14,-8,-11,-10,-12,7
15:04:27:906414,-15,-13,-27,-4,1,-3,-3,-8
15:04:27:922168,-15,-13,-27,-4,1,-3,-3,-8
15:04:27:922936,14,22,8,5,8,5,9,6
15:04:27:928922,0,1,6,2,-9,-1,-4,-2
15:04:27:937173,0,1,6,2,-9,-1,-4,-2
15:04:27:937939,-14,-21,0,-1,-5,-12,-7,-4
15:04:27:951461,13,-9,1,-3,-3,3,4,30
15:04:27:959674,13,-9,1,-3,-3,3,4,30
15:04:27:960478,8,-2,7,9,33,9,0,-4
15:04:27:966461,-2,22,10,-9,-12,-5,-6,-8
15:04:27:982169,-2,22,10,-9,-12,-5,-6,-8
15:04:27:982946,-1,-29,-27,-3,-2,3,4,15
15:04:27:988890,-4,0,0,0,-7,-11,4,7
15:04:27:997150,-4,0,0,0,-7,-11,4,7
15:04:27:997927,2,-8,1,-1,-10,-3,-12,-18
15:04:28:11455,-2,-29,-13,-5,1,4,0,-11
15:04:28:19709,-2,-29,-13,-5,1,4,0,-11
15:04:28:20465,9,17,20,-1,-9,-8,2,0
15:04:28:26455,-8,5,-24,3,4,3,-1,-4
15:04:28:42139,-8,5,-24,3,4,3,-1,-4
15:04:28:42921,0,-15,8,4,4,2,5,5
15:04:28:48995,-6,-4,6,-2,-12,-8,-11,-4
15:04:28:56475,-6,-4,6,-2,-12,-8,-11,-4
15:04:28:63938,-2,12,-10,-1,0,-4,8,-3
15:04:28:71453,-4,-8,-18,-21,16,8,-1,-6
15:04:28:79678,-4,-8,-18,-21,16,8,-1,-6
15:04:28:80443,1,-5,9,3,-1,1,-1,-6
15:04:28:94010,19,22,-6,16,-3,-6,5,4
15:04:28:102158,19,22,-6,16,-3,-6,5,4
15:04:28:102971,4,24,-10,-6,-6,1,-3,1
15:04:28:108948,-11,5,9,3,-1,-1,6,-5
15:04:28:116485,-11,5,9,3,-1,-1,6,-5
15:04:28:123956,-5,-13,3,5,-3,-2,-6,9
15:04:28:131457,-18,-33,-1,10,1,2,-4,-12
15:04:28:139624,-18,-33,-1,10,1,2,-4,-12
15:04:28:140450,-10,-6,-4,-2,-3,-4,-9,-11
15:04:28:153947,8,3,13,8,20,11,4,2
15:04:28:162146,8,3,13,8,20,11,4,2
15:04:28:162937,-5,-13,-3,-3,14,-2,-1,-2
15:04:28:168976,2,-7,5,5,-12,-3,-1,-4
15:04:28:176496,2,-7,5,5,-12,-3,-1,-4
15:04:28:183949,5,13,-50,-17,-16,-10,-6,3
15:04:28:191430,5,4,6,0,0,-1,0,4
15:04:28:199676,5,4,6,0,0,-1,0,4
15:04:28:200480,-13,0,-8,-2,-3,-1,2,-6
15:04:28:213897,-3,11,-9,-10,-10,-4,-1,15
15:04:28:222193,-3,11,-9,-10,-10,-4,-1,15
15:04:28:222965,5,5,0,9,7,5,-8,-10
15:04:28:228961,-2,-6,7,-1,1,-2,-4,-8
15:04:28:236551,-2,-6,7,-1,1,-2,-4,-8
15:04:28:244001,4,-1,8,0,-4,-7,0,9
15:04:28:251480,2,10,-9,0,7,-1,3,-5
15:04:28:259670,2,10,-9,0,7,-1,3,-5
15:04:28:260501,-4,-13,-13,-5,-15,0,-1,-3
15:04:28:273914,-18,-4,3,13,19,0,-1,-3
15:04:28:282190,-18,-4,3,13,19,0,-1,-3
15:04:28:282956,-2,-3,16,1,-2,-1,2,5
15:04:28:288941,1,6,-9,-10,-2,4,-5,-5
15:04:28:296486,1,6,-9,-10,-2,4,-5,-5
15:04:28:303990,2,9,11,3,6,-1,17,-8
15:04:28:311465,-3,-3,11,-11,-18,-14,-9,0
15:04:28:319683,-3,-3,11,-11,-18,-14,-9,0
15:04:28:320481,15,-4,15,13,29,23,9,12
15:04:28:333978,9,11,-5,-11,-1,5,4,-2
15:04:28:342167,9,11,-5,-11,-1,5,4,-2
15:04:28:342938,-3,9,9,-5,-28,-13,-12,7
15:04:28:349007,-4,-13,-4,16,23,23,3,9
15:04:28:356432,-4,-13,-4,16,23,23,3,9
15:04:28:363908,-10,3,9,-1,-3,-12,-4,-7
15:04:28:371458,2,1,15,-11,-22,-12,-4,13
15:04:28:379635,2,1,15,-11,-22,-12,-4,13
15:04:28:380411,-4,1,-15,10,10,6,1,9
15:04:28:393997,-13,-2,-1,1,-9,-7,2,17
15:04:28:402172,-13,-2,-1,1,-9,-7,2,17
15:04:28:402960,-6,-6,-16,-12,2,-3,-1,5
15:04:28:408920,3,-13,-4,21,3,7,5,-6
15:04:28:416461,3,-13,-4,21,3,7,5,-6
15:04:28:423965,-2,-9,-8,-8,-29,-12,-6,3
15:04:28:431413,4,8,24,7,16,2,4,3
15:04:28:439638,4,8,24,7,16,2,4,3
15:04:28:440468,4,-3,-7,-1,12,-1,-5,-10
15:04:28:453966,2,18,-6,-10,-11,-5,-5,1
15:04:28:462547,2,18,-6,-10,-11,-5,-5,1
15:04:28:469635,-13,-19,-11,-7,-6,2,10,21
15:04:28:470466,1,-2,-28,-5,2,-5,16,9
15:04:28:476473,1,-2,-28,-5,2,-5,16,9
15:04:28:483984,-2,-21,-11,-8,-4,3,-3,8
15:04:28:491428,15,-13,-10,-10,-9,-9,-7,-9
15:04:28:499647,15,-13,-10,-10,-9,-9,-7,-9
15:04:28:500460,4,18,10,17,13,14,3,-6
15:04:28:513930,-4,5,-4,-8,11,4,-9,-15
15:04:28:522179,-4,5,-4,-8,11,4,-9,-15
15:04:28:522960,-2,3,15,4,1,-2,0,3
15:04:28:528935,1,2,-18,-10,-11,-1,-7,10
15:04:28:536534,1,2,-18,-10,-11,-1,-7,10
15:04:28:543955,-4,-4,12,1,-8,-10,-7,-10
15:04:28:551431,-5,-8,3,-4,-4,-1,5,18
15:04:28:559641,-5,-8,3,-4,-4,-1,5,18
15:04:28:560427,1,7,-7,-5,-1,-6,-6,-11
15:04:28:573932,-9,-18,20,-3,-8,-9,-14,-24
15:04:28:582608,-9,-18,20,-3,-8,-9,-14,-24
15:04:28:589577,-3,-12,3,-3,1,10,0,-6
15:04:28:590427,10,2,17,-5,-12,-2,5,2
15:04:28:596495,10,2,17,-5,-12,-2,5,2
15:04:28:603919,5,30,7,1,12,-3,-1,-5
15:04:28:611448,-9,6,-5,7,7,11,-9,-23
15:04:28:619663,-9,6,-5,7,7,11,-9,-23
15:04:28:620460,1,13,-3,-9,-11,-6,-10,-3
15:04:28:633951,0,10,0,-5,-18,-16,-7,-8
15:04:28:642125,0,10,0,-5,-18,-16,-7,-8
15:04:28:642931,6,-1,-7,0,4,12,4,-5
15:04:28:648931,-11,-28,-4,-3,-1,1,11,29
15:04:28:656492,-11,-28,-4,-3,-1,1,11,29
15:04:28:663902,2,12,5,0,-7,-8,-13,-3
15:04:28:671459,-6,7,-2,5,5,7,1,-3
15:04:28:679640,-6,7,-2,5,5,7,1,-3
15:04:28:680419,-5,-9,-12,4,11,0,3,-14
15:04:28:693939,-4,-5,-13,-9,-12,-4,-3,-10
15:04:28:702169,-4,-5,-13,-9,-12,-4,-3,-10
15:04:28:702956,1,-1,24,22,19,15,11,3
15:04:28:708907,2,-19,-12,-2,14,0,-2,4
15:04:28:716471,2,-19,-12,-2,14,0,-2,4
15:04:28:723948,1,-15,-10,-8,-8,-5,-5,0
15:04:28:731457,-3,12,8,4,-9,-8,-6,0
15:04:28:739643,-3,12,8,4,-9,-8,-6,0
15:04:28:740483,-1,11,-1,-2,-1,-8,-5,-2
15:04:28:753937,3,26,-5,11,12,9,5,-10
15:04:28:762168,3,26,-5,11,12,9,5,-10
15:04:28:762918,2,-8,-15,-13,-17,-13,1,16
15:04:28:768930,-9,-18,-13,-1,16,4,-2,-5
15:04:28:776514,-9,-18,-13,-1,16,4,-2,-5
15:04:28:783955,-3,-3,7,4,-7,-4,-2,-6
15:04:28:791415,5,-4,7,1,8,-2,-2,-1
15:04:28:799629,5,-4,7,1,8,-2,-2,-1
15:04:28:800451,-4,-5,4,1,-8,0,-1,-21
15:04:28:813927,11,10,13,7,14,21,8,-4
15:04:28:822167,11,10,13,7,14,21,8,-4
15:04:28:822960,1,-13,-13,-9,-1,-6,-2,14
15:04:28:828925,2,-2,21,8,4,0,1,-8
15:04:28:836499,2,-2,21,8,4,0,1,-8
15:04:28:843990,7,-6,-2,0,-2,-2,-10,13
15:04:28:851468,-2,6,-8,-8,-17,-11,-7,6
15:04:28:859471,-2,6,-8,-8,-17,-11,-7,6
15:04:28:866474,-9,-3,-4,1,6,1,9,4
15:04:28:873972,2,9,6,-4,-13,-8,-10,-4
15:04:28:882112,2,9,6,-4,-13,-8,-10,-4
15:04:28:882936,-5,0,-4,-3,0,-2,0,-8
15:04:28:888930,-5,-4,-26,-9,12,2,2,5
15:04:28:896452,-5,-4,-26,-9,12,2,2,5
15:04:28:903969,1,5,0,-9,4,2,5,-4
15:04:28:911477,-5,-6,-10,-4,-19,-17,-2,-3
15:04:28:919716,-5,-6,-10,-4,-19,-17,-2,-3
15:04:28:920487,-19,0,19,7,7,12,-3,-15
15:04:28:933940,1,-9,-6,3,4,4,1,-19
15:04:28:942180,1,-9,-6,3,4,4,1,-19
15:04:28:942959,-16,-3,13,-3,-24,-9,-5,-8
15:04:28:948920,-13,-19,11,-4,-2,0,-4,-3
15:04:28:956493,-13,-19,11,-4,-2,0,-4,-3
15:04:28:963915,6,1,-13,15,7,6,2,-3
15:04:28:971462,13,11,5,5,-11,-2,-3,12
15:04:28:979004,13,11,5,5,-11,-2,-3,12
15:04:28:986464,-5,-3,-14,-4,-9,-9,-5,2
15:04:28:993959,-9,-22,-25,-6,4,-4,-3,-10
15:04:29:2151,-9,-22,-25,-6,4,-4,-3,-10
15:04:29:2913,9,7,-4,-3,8,-3,3,8
15:04:29:17084,11,8,5,2,0,-6,3,15
15:04:29:17917,11,8,5,2,0,-6,3,15
15:04:29:23964,0,-4,-3,3,28,5,0,7
15:04:29:31461,1,10,1,-5,-8,-6,-11,3
15:04:29:38960,1,10,1,-5,-8,-6,-11,3
15:04:29:46460,6,10,7,0,-14,-11,-6,-11
15:04:29:53988,3,0,8,10,14,12,10,-11
15:04:29:62156,3,0,8,10,14,12,10,-11
15:04:29:62949,-4,0,6,3,-14,-2,6,11
15:04:29:77146,-2,-6,-10,-10,-14,-18,-7,-1
15:04:29:77978,-2,-6,-10,-10,-14,-18,-7,-1
15:04:29:83944,1,-11,21,11,10,21,4,1
15:04:29:91439,4,32,4,3,-2,0,6,3
15:04:29:99046,4,32,4,3,-2,0,6,3
15:04:29:106465,-1,-10,-21,-13,-10,-12,-1,3
15:04:29:113901,-8,11,-3,0,-1,-3,-5,-2
15:04:29:122145,-8,11,-3,0,-1,-3,-5,-2
15:04:29:122950,1,0,-16,-11,0,7,1,-4
15:04:29:137186,4,-2,6,6,9,4,5,11
15:04:29:137972,4,-2,6,6,9,4,5,11
15:04:29:143929,-1,-13,-7,-2,-2,-1,-2,-3
15:04:29:151515,-4,-19,-10,-2,-17,-2,4,-1
15:04:29:159001,-4,-19,-10,-2,-17,-2,4,-1
15:04:29:166481,21,19,-23,5,5,0,4,9
15:04:29:173907,3,1,2,0,2,1,0,13
15:04:29:182212,3,1,2,0,2,1,0,13
15:04:29:182989,-4,2,-2,-13,-2,-7,-5,-16
15:04:29:197124,4,-2,-13,1,-26,3,-3,-8
15:04:29:197932,4,-2,-13,1,-26,3,-3,-8
15:04:29:203909,0,-10,9,2,9,2,-1,-6
15:04:29:211477,-12,-10,-18,-7,8,-6,2,-7
15:04:29:219006,-12,-10,-18,-7,8,-6,2,-7
15:04:29:226500,-2,-7,-17,-9,-15,-7,-2,-2
15:04:29:233977,-3,3,8,2,2,1,-3,9
15:04:29:242073,-3,3,8,2,2,1,-3,9
15:04:29:242903,-8,-6,9,-8,-11,0,0,-36
15:04:29:257167,-5,15,17,-4,4,4,-2,-24
15:04:29:258006,-5,15,17,-4,4,4,-2,-24
15:04:29:263925,-5,8,22,8,1,7,0,16
15:04:29:271453,1,-17,-2,-3,-11,-13,-8,-6
15:04:29:279026,1,-17,-2,-3,-11,-13,-8,-6
15:04:29:286501,6,3,13,3,19,0,2,11
15:04:29:294005,-8,4,-3,-6,1,3,3,1
15:04:29:302163,-8,4,-3,-6,1,3,3,1
15:04:29:302928,-4,-2,-14,-8,-18,-8,-2,14
15:04:29:317113,2,-4,-20,-5,1,4,-5,7
15:04:29:317941,2,-4,-20,-5,1,4,-5,7
15:04:29:323978,-8,-11,5,-10,-12,-7,-6,-10
15:04:29:331507,0,14,26,7,10,4,-6,14
15:04:29:338984,0,14,26,7,10,4,-6,14
15:04:29:346508,1,2,0,-3,6,2,2,5
15:04:29:354028,0,-2,-15,-11,-9,-13,-1,-18
15:04:29:362158,0,-2,-15,-11,-9,-13,-1,-18
15:04:29:362970,-9,-1,-18,1,11,-3,-6,-16
15:04:29:377102,3,-8,9,9,5,1,4,3
15:04:29:377913,3,-8,9,9,5,1,4,3
15:04:29:383932,8,10,-4,12,6,9,0,-4
15:04:29:391427,-9,-20,-6,-9,0,6,1,5
15:04:29:398992,-9,-20,-6,-9,0,6,1,5
15:04:29:406455,-1,0,11,3,-8,-5,0,1
15:04:29:413927,-3,-5,3,2,-1,-8,-9,-9
15:04:29:422158,-3,-5,3,2,-1,-8,-9,-9
15:04:29:422935,3,12,-3,-9,3,2,-5,-11
15:04:29:437166,-2,-12,11,0,-4,3,8,7
15:04:29:437950,-2,-12,11,0,-4,3,8,7
15:04:29:443898,-1,22,8,4,0,-10,4,19
15:04:29:451540,3,3,-28,3,4,0,-1,4
15:04:29:459005,3,3,-28,3,4,0,-1,4
15:04:29:466484,5,2,-5,-2,-1,-3,0,3
15:04:29:473954,-3,4,-7,1,-3,-4,-4,-15
15:04:29:482148,-3,4,-7,1,-3,-4,-4,-15
15:04:29:482962,10,-15,-7,-3,-1,8,-4,-18
15:04:29:497140,1,11,6,0,-19,-9,-1,-12
15:04:29:497957,1,11,6,0,-19,-9,-1,-12
15:04:29:503949,-15,-12,-10,1,15,-1,-2,12
15:04:29:511477,-2,-3,10,0,-6,1,-3,-19
15:04:29:519029,-2,-3,10,0,-6,1,-3,-19
15:04:29:526451,-6,-16,-23,-11,-10,0,3,16
15:04:29:533936,-1,-13,11,7,8,7,5,0
15:04:29:542131,-1,-13,11,7,8,7,5,0
15:04:29:542954,12,-4,10,3,1,-2,-6,4
15:04:29:557184,2,1,3,-14,-4,-4,-3,-20
15:04:29:557982,2,1,3,-14,-4,-4,-3,-20
15:04:29:563904,4,9,9,-7,-11,-2,5,-2
15:04:29:571461,-9,0,-16,-11,2,-2,-1,10
15:04:29:578963,-9,0,-16,-11,2,-2,-1,10
15:04:29:586469,-19,-7,4,8,3,0,-7,-33
15:04:29:593979,1,-4,-8,-2,10,4,0,-3
15:04:29:602144,1,-4,-8,-2,10,4,0,-3
15:04:29:602940,-1,1,-9,0,-14,-14,-1,13
15:04:29:617128,-3,9,-2,4,13,8,0,0
15:04:29:617924,-3,9,-2,4,13,8,0,0
15:04:29:623989,15,0,1,-5,-10,-7,-3,19
15:04:29:631450,-5,10,11,11,1,-2,-5,-6
15:04:29:639010,-5,10,11,11,1,-2,-5,-6
15:04:29:646464,-7,-31,2,-1,9,2,6,-1
15:04:29:654016,-3,-2,6,-1,-3,-1,-8,3
15:04:29:662147,-3,-2,6,-1,-3,-1,-8,3
15:04:29:662952,9,3,-7,-3,-9,0,1,-3
15:04:29:677159,4,0,7,-5,7,-2,3,10
15:04:29:677905,4,0,7,-5,7,-2,3,10
15:04:29:683891,-22,-1,-10,-21,-8,-1,-5,-11
15:04:29:691476,6,4,-15,5,-3,4,10,17
15:04:29:698976,6,4,-15,5,-3,4,10,17
15:04:29:706436,-1,-1,-7,11,7,-3,-6,-12
15:04:29:713896,7,1,8,-7,-10,-8,-5,28
15:04:29:722182,7,1,8,-7,-10,-8,-5,28
15:04:29:722974,-4,5,-12,-1,-3,-7,-4,-16
15:04:29:737173,-2,11,-17,-3,-2,-9,-6,-6
15:04:29:737942,-2,11,-17,-3,-2,-9,-6,-6
15:04:29:743912,2,-6,-2,-8,-6,2,-2,8
15:04:29:751446,-6,-10,-3,1,18,7,4,-17
15:04:29:758982,-6,-10,-3,1,18,7,4,-17
15:04:29:766451,-1,12,7,-10,-4,-3,-3,6
15:04:29:774617,-1,-11,6,-1,1,0,-1,-22
15:04:29:775452,-1,-11,6,-1,1,0,-1,-22
15:04:29:781450,6,4,16,4,0,1,-4,-18
15:04:29:797141,9,-5,-8,-6,-11,-1,-4,9
15:04:29:797956,9,-5,-8,-6,-11,-1,-4,9
15:04:29:803955,-6,10,7,20,4,13,1,-9
15:04:29:811465,-6,-7,7,5,7,-6,2,14
15:04:29:819058,-6,-7,7,5,7,-6,2,14
15:04:29:826466,-11,-14,-28,-11,-6,-14,1,10
15:04:29:834623,8,6,3,2,1,9,2,11
15:04:29:835478,8,6,3,2,1,9,2,11
15:04:29:841449,-7,2,13,13,15,4,3,3
15:04:29:857173,3,0,-3,-8,-20,-4,-1,-28
15:04:29:857962,3,0,-3,-8,-20,-4,-1,-28
15:04:29:863957,1,-15,-9,-13,-2,4,-11,-8
15:04:29:871506,-22,0,1,5,-2,2,-1,-10
15:04:29:878966,-22,0,1,5,-2,2,-1,-10
15:04:29:886518,2,-1,-2,-1,-2,-1,-1,7
15:04:29:894628,2,2,10,-4,-10,-3,-5,6
15:04:29:895470,2,2,10,-4,-10,-3,-5,6
15:04:29:901440,7,-2,31,10,11,3,13,26
15:04:29:917145,0,-18,-22,-3,-20,-15,-4,-10
15:04:29:917916,0,-18,-22,-3,-20,-15,-4,-10
15:04:29:923946,3,11,-8,7,6,-1,1,9
15:04:29:939588,3,-10,-18,-9,-2,-6,-5,9
15:04:29:940430,3,-10,-18,-9,-2,-6,-5,9
15:04:29:946450,-9,9,15,-3,-5,1,3,-10
15:04:29:954633,-5,-1,8,-4,-16,-4,2,2
15:04:29:955428,-5,-1,8,-4,-16,-4,2,2
15:04:29:968954,1,-16,5,6,1,-8,1,-4
15:04:29:977103,-5,16,15,-2,7,12,6,22
15:04:29:977915,-5,16,15,-2,7,12,6,22
15:04:29:983924,-14,-18,2,-8,-4,0,-8,-24
15:04:29:999710,2,11,-18,6,7,5,-3,1
15:04:30:452,2,11,-18,6,7,5,-3,1
15:04:30:6473,9,-4,0,1,-9,-2,-9,-7
15:04:30:14562,-8,-17,1,0,7,-1,-11,-8
15:04:30:15443,-8,-17,1,0,7,-1,-11,-8
15:04:30:28953,9,6,-32,-5,10,-1,4,10
15:04:30:37149,4,16,2,5,4,-5,-4,-23
15:04:30:38016,4,16,2,5,4,-5,-4,-23
15:04:30:43916,3,-1,-22,-9,-9,-2,-6,-9
15:04:30:59663,5,-21,5,11,4,-3,5,18
15:04:30:60466,5,-21,5,11,4,-3,5,18
15:04:30:66460,-9,7,-3,0,-8,-2,-4,-9
15:04:30:74611,1,-1,11,6,-2,2,-3,-30
15:04:30:75487,1,-1,11,6,-2,2,-3,-30
15:04:30:88929,-5,-4,26,13,7,2,5,0
15:04:30:97158,14,12,0,-4,4,1,-6,14
15:04:30:97983,14,12,0,-4,4,1,-6,14
15:04:30:103934,-8,-9,-4,-9,-7,-2,-3,3
15:04:30:119692,-4,-14,1,-7,2,-1,4,1
15:04:30:120477,-4,-14,1,-7,2,-1,4,1
15:04:30:126467,4,-2,-15,-10,-5,-4,3,7
15:04:30:134668,-6,-16,-12,2,0,-5,5,-1
15:04:30:135534,-6,-16,-12,2,0,-5,5,-1
15:04:30:148966,-6,8,14,6,1,-2,2,-3
15:04:30:157182,-4,5,-18,-2,-3,3,0,-2
15:04:30:157975,-4,5,-18,-2,-3,3,0,-2
15:04:30:163969,0,8,15,-2,-8,4,-2,0
15:04:30:179629,10,6,17,-6,-16,-2,5,39
15:04:30:180448,10,6,17,-6,-16,-2,5,39
15:04:30:186504,9,-2,10,5,5,7,-11,6
15:04:30:194638,-8,-7,-9,-3,7,-6,10,-21
15:04:30:195435,-8,-7,-9,-3,7,-6,10,-21
15:04:30:208927,-1,-15,5,-7,-2,-7,2,13
15:04:30:217145,-3,6,-10,-16,-6,1,-5,-7
15:04:30:217958,-3,6,-10,-16,-6,1,-5,-7
15:04:30:223925,-8,0,5,1,-20,-11,-1,-8
15:04:30:239629,-3,10,23,11,0,3,-5,-8
15:04:30:240459,-3,10,23,11,0,3,-5,-8
15:04:30:246479,-1,3,-21,-3,3,7,1,-6
15:04:30:254674,-8,-2,-26,4,0,-4,-4,0
15:04:30:255470,-8,-2,-26,4,0,-4,-4,0
15:04:30:269066,6,8,-3,-8,-10,-15,1,12
15:04:30:277162,-6,-8,8,-10,1,4,-3,-24
15:04:30:277962,-6,-8,8,-10,1,4,-3,-24
15:04:30:283908,-3,-11,-10,2,-1,2,21,15
15:04:30:299666,-24,-1,-37,-15,5,8,-3,19
15:04:30:300443,-24,-1,-37,-15,5,8,-3,19
15:04:30:306476,3,4,5,6,-1,-4,-7,-15
15:04:30:314585,14,-6,34,10,-3,5,-2,-3
15:04:30:315458,14,-6,34,10,-3,5,-2,-3
15:04:30:329018,-2,0,-10,13,22,3,7,0
15:04:30:337186,-1,16,10,3,5,-2,-1,-1
15:04:30:337992,-1,16,10,3,5,-2,-1,-1
15:04:30:343946,-3,-4,15,-16,-5,0,-4,-19
15:04:30:359616,-7,-1,3,3,6,-7,7,3
15:04:30:360498,-7,-1,3,3,6,-7,7,3
15:04:30:366454,2,-7,-23,-9,-4,0,-6,3
15:04:30:382189,2,-7,-23,-9,-4,0,-6,3
15:04:30:382996,9,-6,-9,1,-5,-3,-4,2
15:04:30:388925,11,9,1,6,3,-3,-6,-17
15:04:30:397090,11,9,1,6,3,-3,-6,-17
15:04:30:397908,-5,-6,-6,-3,-12,-5,1,-1
15:04:30:403944,3,-12,-6,-1,3,7,5,24
15:04:30:427841,3,-12,-6,-1,3,7,5,24
15:04:30:428614,4,12,10,2,-1,3,1,9
15:04:30:429425,-15,-8,7,1,-14,-10,-10,-31
15:04:30:442168,-15,-8,7,1,-14,-10,-10,-31
15:04:30:442911,0,-13,4,-11,13,-1,-1,-17
15:04:30:448891,10,5,-12,-3,10,4,-2,0
15:04:30:457136,10,5,-12,-3,10,4,-2,0
15:04:30:457927,7,9,10,3,-13,-2,-6,-8
15:04:30:463883,-11,8,5,3,9,0,5,22
15:04:30:479638,-11,8,5,3,9,0,5,22
15:04:30:480443,19,-36,-8,1,-5,-10,-9,6
15:04:30:486456,1,16,7,-3,-13,3,-9,8
15:04:30:502191,1,16,7,-3,-13,3,-9,8
15:04:30:502935,-2,20,-3,0,1,1,7,9
15:04:30:508921,-1,-10,27,-6,-10,0,1,-20
15:04:30:517187,-1,-10,27,-6,-10,0,1,-20
15:04:30:517998,3,-5,-33,-16,-7,-6,-8,2
15:04:30:523964,-8,5,-11,3,7,6,-2,-7
15:04:30:539677,-8,5,-11,3,7,6,-2,-7
15:04:30:540458,-11,6,12,15,23,12,12,14
15:04:30:546507,0,-12,-19,-7,-2,-10,-1,4
15:04:30:562168,0,-12,-19,-7,-2,-10,-1,4
15:04:30:562954,-5,7,4,4,0,-3,-3,-7
15:04:30:568931,-11,-7,16,6,-5,-3,0,-1
15:04:30:585334,-11,-7,16,6,-5,-3,0,-1
15:04:30:586129,-22,8,0,-10,-12,-6,2,1
15:04:30:586949,3,4,-11,2,10,5,1,16
15:04:30:599672,3,4,-11,2,10,5,1,16
15:04:30:600460,5,-10,-11,-9,-5,10,3,-12
15:04:30:606441,12,13,-10,2,-3,-2,5,3
15:04:30:622179,12,13,-10,2,-3,-2,5,3
15:04:30:622951,-1,-1,-4,-5,-3,-5,7,8
15:04:30:628963,8,10,-4,-1,-8,-5,-1,-2
15:04:30:637239,8,10,-4,-1,-8,-5,-1,-2
15:04:30:637992,-3,-10,-13,4,-3,-1,-5,-5
15:04:30:643955,-17,-3,23,4,12,6,-1,-23
15:04:30:659739,-17,-3,23,4,12,6,-1,-23
15:04:30:660482,-7,-9,-6,-3,-7,-2,-3,1
15:04:30:666460,-28,-7,-21,-8,-7,-10,-2,1
15:04:30:681931,-28,-7,-21,-8,-7,-10,-2,1
15:04:30:689567,4,-10,16,-1,6,4,2,-10
15:04:30:690443,-4,-1,5,1,-13,-5,-2,-1
15:04:30:697146,-4,-1,5,1,-13,-5,-2,-1
15:04:30:697932,-4,-3,14,-2,6,10,-6,-23
15:04:30:703945,9,0,14,19,40,10,4,-17
15:04:30:719702,9,0,14,19,40,10,4,-17
15:04:30:720451,3,16,1,-10,-9,-12,-10,2
15:04:30:726485,3,8,-19,-8,-9,2,-5,14
15:04:30:742172,3,8,-19,-8,-9,2,-5,14
15:04:30:742923,-1,-6,-19,-1,-5,-9,-3,-5
15:04:30:748923,15,3,5,0,-6,-3,-7,-10
15:04:30:757158,15,3,5,0,-6,-3,-7,-10
15:04:30:757945,-12,-30,0,5,1,1,-6,6
15:04:30:763898,10,1,-8,-8,-11,-5,2,-7
15:04:30:779626,10,1,-8,-8,-11,-5,2,-7
15:04:30:780435,-5,23,4,3,7,1,3,1
15:04:30:786463,-2,-7,2,-10,-16,-9,1,2
15:04:30:802183,-2,-7,2,-10,-16,-9,1,2
15:04:30:802925,4,0,8,-8,-4,-6,-1,-5
15:04:30:808908,-1,3,4,-10,16,8,1,-2
15:04:30:817116,-1,3,4,-10,16,8,1,-2
15:04:30:817935,-6,12,4,4,-6,-1,-2,4
15:04:30:823914,-3,-15,-7,2,-8,-3,-7,-25
15:04:30:839640,-3,-15,-7,2,-8,-3,-7,-25
15:04:30:840448,11,-8,-3,-1,4,-2,9,16
15:04:30:846459,6,-2,-5,-1,-13,-8,-10,0
15:04:30:862135,6,-2,-5,-1,-13,-8,-10,0
15:04:30:862929,-12,-11,-7,-4,-2,-3,-5,-36
15:04:30:868912,-1,-1,-12,-8,1,2,4,14
15:04:30:877147,-1,-1,-12,-8,1,2,4,14
15:04:30:877941,-3,0,-17,-14,-27,-4,-7,10
15:04:30:891466,1,13,5,0,4,3,4,-3
15:04:30:899642,1,13,5,0,4,3,4,-3
15:04:30:900456,-6,5,-11,-9,-11,-16,-9,-4
15:04:30:906375,-1,2,0,-3,-1,-1,-4,2
15:04:30:913969,-1,2,0,-3,-1,-1,-4,2
15:04:30:921482,4,19,5,3,6,1,-2,-2
15:04:30:928916,10,8,-12,-3,-1,4,4,17
15:04:30:944665,10,8,-12,-3,-1,4,4,17
15:04:30:945493,-8,-13,8,5,3,3,2,-14
15:04:30:951474,-22,-15,-1,7,-4,1,-4,-4
15:04:30:959676,-22,-15,-1,7,-4,1,-4,-4
15:04:30:960477,5,6,20,15,3,-5,-12,1
15:04:30:966465,15,-1,5,5,14,10,17,3
15:04:30:974030,15,-1,5,5,14,10,17,3
15:04:30:981444,0,-11,-16,3,0,-1,-3,4
15:04:30:988956,0,3,3,1,-10,2,0,2
15:04:30:997160,0,3,3,1,-10,2,0,2
15:04:30:997927,14,14,13,8,5,3,3,6
15:04:31:11475,-3,-3,-5,-11,-8,-15,-10,0
15:04:31:19730,-3,-3,-5,-11,-8,-15,-10,0
15:04:31:20615,-3,-6,-9,-8,1,-4,-3,4
15:04:31:26494,-9,1,6,3,-12,-4,-5,-10
15:04:31:34038,-9,1,6,3,-12,-4,-5,-10
15:04:31:41466,6,1,-8,7,15,2,2,-5
15:04:31:49036,0,-6,17,10,23,4,1,-9
15:04:31:57125,0,-6,17,10,23,4,1,-9
15:04:31:57894,-10,0,-8,-14,-7,1,1,5
15:04:31:71507,0,-12,0,4,-1,-13,-16,-4
15:04:31:79653,0,-12,0,4,-1,-13,-16,-4
15:04:31:80456,13,11,9,-3,-6,4,2,19
15:04:31:86506,-5,-6,26,-10,-5,0,0,6
15:04:31:94036,-5,-6,26,-10,-5,0,0,6
15:04:31:101500,-5,1,-10,1,13,7,7,-3
15:04:31:108930,-4,-1,-4,4,-1,-4,2,18
15:04:31:117100,-4,-1,-4,4,-1,-4,2,18
15:04:31:117943,-5,-5,2,0,-6,0,-3,-7
15:04:31:131501,1,-7,-5,-6,-13,-5,7,-9
15:04:31:139607,1,-7,-5,-6,-13,-5,7,-9
15:04:31:140433,-10,-19,-13,4,5,3,3,-13
15:04:31:146493,-15,6,-9,0,-3,2,-3,1
15:04:31:154025,-15,6,-9,0,-3,2,-3,1
15:04:31:161453,7,-19,-10,11,0,-9,-2,-12
15:04:31:168921,-4,6,-5,8,12,3,0,-9
15:04:31:177166,-4,6,-5,8,12,3,0,-9
15:04:31:177952,-6,5,8,-6,-14,-9,-4,4
15:04:31:191485,3,5,16,-3,-13,3,-7,-14
15:04:31:199632,3,5,16,-3,-13,3,-7,-14
15:04:31:200437,-4,-4,-6,-6,-8,10,-1,-2
15:04:31:206390,6,7,14,-10,1,-2,-4,5
15:04:31:213945,6,7,14,-10,1,-2,-4,5
15:04:31:221496,-2,11,13,15,14,1,-1,6
15:04:31:228920,12,1,-17,-10,-2,4,-8,-16
15:04:31:237167,12,1,-17,-10,-2,4,-8,-16
15:04:31:237954,-6,25,30,-11,-2,-8,-3,-2
15:04:31:251418,0,12,15,8,-8,3,7,19
15:04:31:259676,0,12,15,8,-8,3,7,19
15:04:31:260487,12,-10,-7,2,5,-5,-2,-8
15:04:31:266450,-7,-9,-15,-7,-10,-10,8,-10
15:04:31:273984,-7,-9,-15,-7,-10,-10,8,-10
15:04:31:281468,-1,-8,7,3,-3,5,-1,-5
15:04:31:288965,-9,-7,-10,7,14,15,-9,2
15:04:31:297161,-9,-7,-10,7,14,15,-9,2
15:04:31:297953,-3,-9,-20,-8,-8,-5,2,-4
15:04:31:311494,0,5,-13,2,3,3,-2,7
15:04:31:319481,0,5,-13,2,3,3,-2,7
15:04:31:327078,-15,-30,-25,-7,-5,-1,-5,15
15:04:31:327905,-11,-21,-15,-1,-5,-1,-2,-9
15:04:31:333991,-11,-21,-15,-1,-5,-1,-2,-9
15:04:31:341497,8,-2,-20,6,5,0,7,3
15:04:31:348969,-4,-2,4,-4,-17,-18,-16,-14
15:04:31:357120,-4,-2,4,-4,-17,-18,-16,-14
15:04:31:357925,17,29,9,2,24,10,5,12
15:04:31:371513,19,-10,-10,-15,-3,-8,-3,6
15:04:31:379651,19,-10,-10,-15,-3,-8,-3,6
15:04:31:380451,-5,-3,-29,-22,-16,-7,-5,-16
15:04:31:386485,-9,4,-16,3,6,5,2,4
15:04:31:393967,-9,4,-16,3,6,5,2,4
15:04:31:401535,-9,-1,-2,-16,-14,-6,-10,2
15:04:31:408923,-3,4,3,2,12,2,10,7
15:04:31:417136,-3,4,3,2,12,2,10,7
15:04:31:417945,13,3,16,7,2,-1,0,-3
15:04:31:431478,-3,-10,0,-2,-17,-17,-1,29
15:04:31:439668,-3,-10,0,-2,-17,-17,-1,29
15:04:31:440520,-1,-12,5,13,9,1,-6,-25
15:04:31:446459,6,8,14,-1,-9,-4,3,-9
15:04:31:454024,6,8,14,-1,-9,-4,3,-9
15:04:31:461404,-6,9,25,16,16,13,10,15
15:04:31:468917,-31,1,-23,-19,-18,-19,-4,2
15:04:31:477146,-31,1,-23,-19,-18,-19,-4,2
15:04:31:477955,4,-13,14,2,-9,-4,-7,16
15:04:31:491523,10,38,33,19,31,6,-3,-7
15:04:31:499652,10,38,33,19,31,6,-3,-7
15:04:31:500451,6,6,16,-5,-13,1,1,7
15:04:31:506370,2,-8,5,3,-17,-4,-7,0
15:04:31:513953,2,-8,5,3,-17,-4,-7,0
15:04:31:521507,6,-1,-33,-2,-5,-6,-1,-12
15:04:31:528944,2,0,-2,-4,9,6,3,-9
15:04:31:537188,2,0,-2,-4,9,6,3,-9
15:04:31:537953,-13,-17,14,-6,1,-2,-3,-24
15:04:31:551389,6,-6,-15,3,-4,-2,10,8
15:04:31:559659,6,-6,-15,3,-4,-2,10,8
15:04:31:560460,-8,-18,-3,-5,-1,-18,-9,-22
15:04:31:566466,4,-22,-23,-6,15,14,-2,-12
15:04:31:574002,4,-22,-23,-6,15,14,-2,-12
15:04:31:581457,2,0,10,4,-13,-6,0,11
15:04:31:588948,-4,-12,-12,-2,16,8,6,-1
15:04:31:597154,-4,-12,-12,-2,16,8,6,-1
15:04:31:597943,5,1,-16,-11,-2,-4,3,8
15:04:31:611498,-3,7,11,6,-8,-2,-10,-4
15:04:31:619680,-3,7,11,6,-8,-2,-10,-4
15:04:31:620510,-5,4,11,-6,11,6,0,4
15:04:31:626461,-3,0,-1,-1,-11,-5,-3,-23
15:04:31:633991,-3,0,-1,-1,-11,-5,-3,-23
15:04:31:641467,1,-3,-5,8,7,1,3,35
15:04:31:648938,-9,-45,-12,-3,-4,0,-4,-23
15:04:31:657169,-9,-45,-12,-3,-4,0,-4,-23
15:04:31:657963,-23,4,-15,-19,-19,-5,-2,-6
15:04:31:671565,3,12,-2,-3,3,7,5,20
15:04:31:679685,3,12,-2,-3,3,7,5,20
15:04:31:680441,11,4,-23,-2,6,3,5,-2
15:04:31:686508,-3,4,-5,2,-4,-6,2,0
15:04:31:694001,-3,4,-5,2,-4,-6,2,0
15:04:31:701468,3,4,3,21,16,6,-5,-6
15:04:31:708968,0,0,0,1,-6,-2,-2,16
15:04:31:717099,0,0,0,1,-6,-2,-2,16
15:04:31:717915,10,17,24,10,6,12,6,-2
15:04:31:731455,6,2,-4,-1,7,0,-13,0
15:04:31:739611,6,2,-4,-1,7,0,-13,0
15:04:31:740435,-10,11,10,2,-1,-2,0,-3
15:04:31:746444,13,-1,1,-6,-15,-9,7,-3
15:04:31:753985,13,-1,1,-6,-15,-9,7,-3
15:04:31:761421,-3,-12,2,-9,-18,1,-4,-1
15:04:31:768923,-4,9,2,5,15,4,0,2
15:04:31:777139,-4,9,2,5,15,4,0,2
15:04:31:777944,0,-3,-21,-21,-14,-6,0,1
15:04:31:791473,-5,-1,2,7,-5,-6,-5,-4
15:04:31:799625,-5,-1,2,7,-5,-6,-5,-4
15:04:31:800450,-9,-2,-8,-2,-7,-3,-7,-30
15:04:31:806372,7,-8,-21,-3,11,3,5,2
15:04:31:813962,7,-8,-21,-3,11,3,5,2
15:04:31:821492,-7,9,-18,-3,-7,-3,-3,1
15:04:31:828931,-19,-11,8,-5,-5,8,-2,-12
15:04:31:836520,-19,-11,8,-5,-5,8,-2,-12
15:04:31:843954,12,8,-8,1,5,-4,4,6
15:04:31:851456,-6,6,-9,-9,-22,-11,-3,8
15:04:31:859677,-6,6,-9,-9,-22,-11,-3,8
15:04:31:860480,-11,-3,6,6,15,12,-3,-23
15:04:31:874380,3,-3,12,-4,9,1,2,-17
15:04:31:882160,3,-3,12,-4,9,1,2,-17
15:04:31:882981,4,-9,-3,3,5,-7,-1,-15
15:04:31:888966,-6,-6,3,-7,-17,-3,6,15
15:04:31:896499,-6,-6,3,-7,-17,-3,6,15
15:04:31:903994,2,15,31,15,8,1,0,-1
15:04:31:911495,8,4,-13,-10,-18,-11,-5,-9
15:04:31:919646,8,4,-13,-10,-18,-11,-5,-9
15:04:31:920500,-13,-6,-2,-1,8,10,3,-6
15:04:31:934668,-7,0,7,-4,-7,-6,-7,-1
15:04:31:935522,-7,0,7,-4,-7,-6,-7,-1
15:04:31:941473,-20,-14,5,-10,-5,-13,0,1
15:04:31:948977,4,12,4,-7,5,5,-5,-33
15:04:31:956488,4,12,4,-7,5,5,-5,-33
15:04:31:963967,8,0,-24,-11,-6,-8,0,36
15:04:31:971509,0,6,2,18,27,10,2,-3
15:04:31:979638,0,6,2,18,27,10,2,-3
15:04:31:980522,7,-16,-21,-4,-21,-13,-9,-4
15:04:31:994692,6,8,-2,-8,-1,13,4,17
15:04:31:995501,6,8,-2,-8,-1,13,4,17
15:04:32:1530,-10,-6,14,8,0,1,0,8
15:04:32:8978,-12,27,-2,19,7,0,3,-16
15:04:32:16528,-12,27,-2,19,7,0,3,-16
15:04:32:23906,-7,-9,5,-13,-15,-2,-4,-1
15:04:32:31398,-4,-15,10,-1,-6,-5,-9,4
15:04:32:39646,-4,-15,10,-1,-6,-5,-9,4
15:04:32:40499,4,3,-17,-4,6,9,1,-7
15:04:32:54638,5,3,16,6,0,1,-1,7
15:04:32:55490,5,3,16,6,0,1,-1,7
15:04:32:61410,6,-6,-20,-13,-5,-2,-5,2
15:04:32:68914,-1,-19,-10,-13,-5,-6,-5,0
15:04:32:76473,-1,-19,-10,-13,-5,-6,-5,0
15:04:32:83914,14,-6,11,-1,-1,-5,2,8
15:04:32:91466,-15,-20,-9,-5,7,-4,-2,16
15:04:32:99670,-15,-20,-9,-5,7,-4,-2,16
15:04:32:100448,-2,9,12,9,8,3,10,12
15:04:32:114626,6,6,-8,0,2,0,5,28
15:04:32:115533,6,6,-8,0,2,0,5,28
15:04:32:121519,-1,7,14,6,-11,-7,-12,-10
15:04:32:128932,10,0,-6,5,11,8,7,-8
15:04:32:136532,10,0,-6,5,11,8,7,-8
15:04:32:143904,1,0,8,10,10,-3,-1,-3
15:04:32:151507,-2,1,-4,-7,-3,-9,-9,-3
15:04:32:159687,-2,1,-4,-7,-3,-9,-9,-3
15:04:32:160493,-6,-8,-15,-3,6,0,0,-3
15:04:32:174672,14,2,9,11,4,13,13,20
15:04:32:175504,14,2,9,11,4,13,13,20
15:04:32:181455,-12,-13,-21,-3,-9,-6,0,-8
15:04:32:188978,0,1,18,-2,-15,-1,-4,-13
15:04:32:196493,0,1,18,-2,-15,-1,-4,-13
15:04:32:204010,0,-9,-8,-8,12,3,-3,2
15:04:32:211457,-15,5,2,-1,-2,-10,-7,-1
15:04:32:219613,-15,5,2,-1,-2,-10,-7,-1
15:04:32:220458,-5,5,-18,7,5,-3,1,-8
15:04:32:234635,4,-13,-9,-10,0,0,-3,-18
15:04:32:235468,4,-13,-9,-10,0,0,-3,-18
15:04:32:241459,3,3,4,1,2,7,6,16
15:04:32:248940,-7,8,-12,1,24,2,7,25
15:04:32:256505,-7,8,-12,1,24,2,7,25
15:04:32:263918,8,6,29,1,3,4,1,-10
15:04:32:271496,1,3,4,-5,-17,-11,-6,-11
15:04:32:279598,1,3,4,-5,-17,-11,-6,-11
15:04:32:280444,1,6,-6,-19,-5,-1,0,1
15:04:32:294630,-6,-12,-12,-3,-9,-6,-13,-15
15:04:32:295464,-6,-12,-12,-3,-9,-6,-13,-15
15:04:32:301480,-2,-5,-6,9,-11,-3,-5,-21
15:04:32:308976,-1,11,16,9,1,-2,2,5
15:04:32:316453,-1,11,16,9,1,-2,2,5
15:04:32:323931,1,-16,-11,-12,-5,1,6,25
15:04:32:331414,-5,-28,-3,-4,9,-4,-6,3
15:04:32:339607,-5,-28,-3,-4,9,-4,-6,3
15:04:32:340461,13,20,48,4,-8,-5,2,-1
15:04:32:354607,4,5,-7,10,5,-4,-3,1
15:04:32:355476,4,5,-7,10,5,-4,-3,1
15:04:32:361426,-12,-8,9,8,13,4,3,3
15:04:32:368922,-4,6,11,-4,-6,3,-1,-8
15:04:32:376507,-4,6,11,-4,-6,3,-1,-8
15:04:32:383921,14,8,10,1,-8,0,-1,29
15:04:32:391399,10,1,-5,-12,-4,-3,10,25
15:04:32:399698,10,1,-5,-12,-4,-3,10,25
15:04:32:400451,-4,-13,6,-3,-2,-5,5,1
15:04:32:414613,-5,2,-17,-4,5,-8,0,-2
15:04:32:415452,-5,2,-17,-4,5,-8,0,-2
15:04:32:421543,4,11,-3,6,-14,5,-3,-19
15:04:32:428937,-4,-1,-3,3,1,6,1,-2
15:04:32:436559,-4,-1,-3,3,1,6,1,-2
15:04:32:443962,-7,-7,-14,-16,-14,-13,-5,-9
15:04:32:451485,-3,1,1,18,14,9,4,-3
15:04:32:459669,-3,1,1,18,14,9,4,-3
15:04:32:460482,1,-3,10,1,-7,-6,-14,-5
15:04:32:474654,12,23,15,-6,-13,3,-7,15
15:04:32:475462,12,23,15,-6,-13,3,-7,15
15:04:32:481467,-24,-59,-27,0,2,0,-2,3
15:04:32:488939,4,-15,4,2,-5,-10,-2,-20
15:04:32:496484,4,-15,4,2,-5,-10,-2,-20
15:04:32:503922,12,24,-10,-2,20,-2,-2,13
15:04:32:511501,-1,1,-1,4,5,5,8,3
15:04:32:519627,-1,1,-1,4,5,5,8,3
15:04:32:520496,-4,9,-8,0,-7,-2,-10,-13
15:04:32:534583,-6,-4,-10,-5,10,10,1,-2
15:04:32:535472,-6,-4,-10,-5,10,10,1,-2
15:04:32:541452,-6,8,6,7,-7,-6,-2,-15
15:04:32:548923,-4,-19,-14,-19,-13,-4,4,15
15:04:32:556460,-4,-19,-14,-19,-13,-4,4,15
15:04:32:563964,6,21,14,-1,3,3,3,-6
15:04:32:571471,-20,-2,0,-3,-2,-8,-12,-27
15:04:32:579642,-20,-2,0,-3,-2,-8,-12,-27
15:04:32:580486,2,-14,1,0,-10,1,-9,-2
15:04:32:594631,3,9,8,4,7,-11,0,-19
15:04:32:595488,3,9,8,4,7,-11,0,-19
15:04:32:601483,1,1,-24,-2,1,16,8,1
15:04:32:608968,-3,-5,-2,5,-19,-5,-2,2
15:04:32:616514,-3,-5,-2,5,-19,-5,-2,2
15:04:32:623907,-7,-3,1,0,7,0,2,-1
15:04:32:631396,4,-5,-15,-21,-1,9,-2,-3
15:04:32:639374,4,-5,-15,-21,-1,9,-2,-3
15:04:32:646397,0,-3,-3,-1,-6,-7,-5,11
15:04:32:654649,5,8,22,20,4,-1,5,16
15:04:32:655457,5,8,22,20,4,-1,5,16
15:04:32:661466,5,8,-8,0,5,-6,1,-9
15:04:32:668978,-12,-18,-18,-10,-6,-11,-12,-41
15:04:32:676549,-12,-18,-18,-10,-6,-11,-12,-41
15:04:32:683914,7,-1,1,2,33,21,9,9
15:04:32:691464,1,2,1,-7,-11,2,-6,-10
15:04:32:699639,1,2,1,-7,-11,2,-6,-10
15:04:32:700435,-2,4,-4,-10,-5,-1,1,5
15:04:32:714659,6,-1,7,4,6,3,3,11
15:04:32:715454,6,-1,7,4,6,3,3,11
15:04:32:721478,-4,-21,-23,11,-8,-16,-6,0
15:04:32:737139,0,3,-1,6,-9,16,5,7
15:04:32:737924,0,3,-1,6,-9,16,5,7
15:04:32:743953,13,9,18,11,9,6,7,-6
15:04:32:751506,-3,6,-5,0,-10,-4,-2,-33
15:04:32:759685,-3,6,-5,0,-10,-4,-2,-33
15:04:32:760501,-5,-4,6,1,-9,-6,-12,-7
15:04:32:774604,-11,-1,-13,-6,12,-10,1,12
15:04:32:775451,-11,-1,-13,-6,12,-10,1,12
15:04:32:781460,3,6,-1,-11,5,5,5,17
15:04:32:797113,16,-2,-6,0,8,9,-2,9
15:04:32:797949,16,-2,-6,0,8,9,-2,9
15:04:32:803957,-10,-14,9,-14,-20,-16,-14,-15
15:04:32:811506,-4,-11,15,-12,-17,-14,-1,1
15:04:32:819008,-4,-11,15,-12,-17,-14,-1,1
15:04:32:826445,4,15,9,4,12,10,9,4
15:04:32:834604,-3,-2,-6,1,-4,-2,-6,1
15:04:32:835511,-3,-2,-6,1,-4,-2,-6,1
15:04:32:841487,-6,4,23,-3,-4,5,1,1
15:04:32:857191,19,15,21,-1,-4,-4,-3,14
15:04:32:857931,19,15,21,-1,-4,-4,-3,14
15:04:32:863946,-9,-10,2,1,-5,-5,-3,-31
15:04:32:871519,-5,7,-7,-12,-22,1,-3,12
15:04:32:878993,-5,7,-7,-12,-22,1,-3,12
15:04:32:886534,-1,20,0,2,18,5,-1,-13
15:04:32:894597,-6,-12,-12,-10,-14,-18,-6,-2
15:04:32:895477,-6,-12,-12,-10,-14,-18,-6,-2
15:04:32:901479,-7,-7,-24,-6,13,4,0,4
15:04:32:917090,-8,-21,-18,8,9,5,3,2
15:04:32:917958,-8,-21,-18,8,9,5,3,2
15:04:32:923966,0,-2,-7,-7,-21,-12,-2,5
15:04:32:931466,-1,5,-6,-2,13,16,5,-2
15:04:32:938995,-1,5,-6,-2,13,16,5,-2
15:04:32:946398,-2,11,10,-13,-17,-16,-5,5
15:04:32:954631,-10,-2,13,15,-7,-9,-4,-3
15:04:32:955516,-10,-2,13,15,-7,-9,-4,-3
15:04:32:961428,7,10,-5,16,23,18,3,4
15:04:32:977081,-2,12,-1,-1,-3,-3,-4,2
15:04:32:977895,-2,12,-1,-1,-3,-3,-4,2
15:04:32:983897,3,-9,-2,1,-7,-7,-7,-3
15:04:32:991401,-2,-9,-11,-2,-9,-4,-3,1
15:04:32:998986,-2,-9,-11,-2,-9,-4,-3,1
15:04:33:6388,3,-2,-18,-8,-6,3,-4,-15
15:04:33:14639,-2,2,9,8,18,1,6,12
15:04:33:15509,-2,2,9,8,18,1,6,12
15:04:33:21434,9,2,-4,-10,-17,-9,2,-1
15:04:33:37141,-10,-4,-15,-3,7,9,4,-8
15:04:33:37956,-10,-4,-15,-3,7,9,4,-8
15:04:33:43924,-1,16,12,4,5,-1,-6,20
15:04:33:51465,12,-1,4,-5,-8,-12,5,2
15:04:33:58966,12,-1,4,-5,-8,-12,5,2
15:04:33:66483,-10,3,-22,-12,3,6,3,-4
15:04:33:74613,-3,12,4,2,-4,-7,-2,7
15:04:33:75448,-3,12,4,2,-4,-7,-2,7
15:04:33:81491,-13,-6,3,-1,0,-6,-5,-22
15:04:33:97118,-4,-5,2,1,4,7,2,-8
15:04:33:97951,-4,-5,2,1,4,7,2,-8
15:04:33:103976,4,-24,-7,2,-10,-11,-8,-13
15:04:33:111446,-13,3,-3,-8,-1,7,-9,-11
15:04:33:119013,-13,3,-3,-8,-1,7,-9,-11
15:04:33:126501,-2,-6,-10,8,1,6,10,19
15:04:33:134603,7,-6,-17,-8,-7,-3,-1,7
15:04:33:135491,7,-6,-17,-8,-7,-3,-1,7
15:04:33:141443,0,-4,16,2,-13,-8,2,6
15:04:33:157120,-7,9,14,15,33,8,-1,-14
15:04:33:158029,-7,9,14,15,33,8,-1,-14
15:04:33:163910,-7,-6,6,-6,-9,-4,-3,10
15:04:33:171498,12,-9,7,-8,-7,-1,2,-6
15:04:33:178986,12,-9,7,-8,-7,-1,2,-6
15:04:33:186534,-24,-3,11,4,0,4,4,-2
15:04:33:194617,3,12,0,-2,-6,-1,-2,2
15:04:33:195507,3,12,0,-2,-6,-1,-2,2
15:04:33:201445,2,-4,-9,6,7,6,6,6
15:04:33:217082,6,-2,9,1,2,0,-2,-11
15:04:33:217912,6,-2,9,1,2,0,-2,-11
15:04:33:223934,-9,-4,1,-9,-4,-7,-12,1
15:04:33:231466,5,0,-3,9,30,21,1,-6
15:04:33:238992,5,0,-3,9,30,21,1,-6
15:04:33:246402,5,9,-2,16,7,-1,-1,-10
15:04:33:254606,10,-25,-24,-13,-26,-20,-12,7
15:04:33:255437,10,-25,-24,-13,-26,-20,-12,7
15:04:33:261405,-2,19,9,-7,-3,-1,-6,-12
15:04:33:277131,-17,-6,-13,-6,-5,0,-3,-2
15:04:33:277907,-17,-6,-13,-6,-5,0,-3,-2
15:04:33:283913,15,5,10,-4,-8,-3,-12,-14
15:04:33:291371,-14,4,-5,0,8,7,-1,4
15:04:33:298991,-14,4,-5,0,8,7,-1,4
15:04:33:306380,6,-19,-18,-7,8,4,7,8
15:04:33:314672,-1,-2,12,1,-1,-11,-6,-10
15:04:33:315491,-1,-2,12,1,-1,-11,-6,-10
15:04:33:321494,-3,-8,8,-6,-8,-2,5,9
15:04:33:337185,-2,8,29,8,-16,-6,5,5
15:04:33:337954,-2,8,29,8,-16,-6,5,5
15:04:33:343907,-5,3,7,4,-2,-1,10,10
15:04:33:351432,4,-16,1,2,6,11,6,-2
15:04:33:359003,4,-16,1,2,6,11,6,-2
15:04:33:366491,-4,3,-31,0,9,0,-2,-5
15:04:33:374656,-5,-20,-37,-19,-4,-7,-1,-3
15:04:33:375492,-5,-20,-37,-19,-4,-7,-1,-3
15:04:33:381516,4,-3,8,-2,-1,-1,-1,10
15:04:33:397128,2,4,17,4,4,1,0,2
15:04:33:397969,2,4,17,4,4,1,0,2
15:04:33:403951,-2,2,-2,-2,1,-2,1,16
15:04:33:411410,-10,5,-1,12,9,5,10,-13
15:04:33:418984,-10,5,-1,12,9,5,10,-13
15:04:33:426497,2,4,-9,3,1,2,1,-10
15:04:33:434589,-18,-21,1,-10,-23,-10,-6,7
15:04:33:435480,-18,-21,1,-10,-23,-10,-6,7
15:04:33:441495,14,-8,9,16,13,2,-3,-9
15:04:33:457187,11,15,-4,-4,-1,-5,-3,1
15:04:33:458001,11,15,-4,-4,-1,-5,-3,1
15:04:33:463954,6,-6,-4,-18,-9,-1,2,8
15:04:33:471503,2,-5,-1,-10,-6,-4,1,-18
15:04:33:478963,2,-5,-1,-10,-6,-4,1,-18
15:04:33:486499,-2,2,1,1,6,3,-1,-3
15:04:33:494616,2,8,8,3,5,1,-2,16
15:04:33:495501,2,8,8,3,5,1,-2,16
15:04:33:501392,-18,-42,-4,-10,-10,-2,-4,-4
15:04:33:517583,6,-7,-7,1,-3,-8,-9,-16
15:04:33:518404,6,-7,-7,1,-3,-8,-9,-16
15:04:33:523951,1,13,26,5,0,-12,-3,-8
15:04:33:531443,-13,-13,9,3,-7,-16,5,10
15:04:33:538976,-13,-13,9,3,-7,-16,5,10
15:04:33:546400,3,-1,-10,-2,21,9,1,-35
15:04:33:554587,-1,17,10,11,1,2,-2,-3
15:04:33:555485,-1,17,10,11,1,2,-2,-3
15:04:33:561424,-1,0,3,3,-10,-3,-8,0
15:04:33:577172,7,12,24,2,11,7,2,11
15:04:33:577953,7,12,24,2,11,7,2,11
15:04:33:583925,-4,9,-4,-3,-4,0,5,6
15:04:33:591433,4,-14,-5,0,-6,5,6,-4
15:04:33:599027,4,-14,-5,0,-6,5,6,-4
15:04:33:606386,10,18,-9,1,-2,-6,1,-13
15:04:33:614625,-14,-7,-6,1,4,-3,0,-17
15:04:33:615480,-14,-7,-6,1,4,-3,0,-17
15:04:33:621502,-17,2,-17,3,11,8,-1,3
15:04:33:637221,5,3,-3,-22,-21,-13,-17,6
15:04:33:637960,5,3,-3,-22,-21,-13,-17,6
15:04:33:643936,0,4,16,8,6,9,6,-3
15:04:33:651444,-1,0,-12,4,-9,0,3,3
15:04:33:658993,-1,0,-12,4,-9,0,3,3
15:04:33:666539,4,4,-10,-15,-25,-9,-3,10
15:04:33:674616,-4,3,-10,8,16,4,-2,-7
15:04:33:675461,-4,3,-10,8,16,4,-2,-7
15:04:33:681525,1,1,-27,-12,-3,-4,-2,4
15:04:33:697185,1,1,-27,-12,-3,-4,-2,4
15:04:33:697942,7,-2,-1,-2,-2,0,-7,-11
15:04:33:703932,-3,-24,4,-4,-11,-9,-9,5
15:04:33:719722,-3,-24,4,-4,-11,-9,-9,5
15:04:33:720449,22,5,1,4,7,13,-3,7
15:04:33:726421,1,-9,-4,4,8,14,-6,0
15:04:33:734431,1,-9,-4,4,8,14,-6,0
15:04:33:741482,12,20,5,-4,3,-10,5,5
15:04:33:748965,4,13,18,-9,-24,-15,-2,4
15:04:33:757104,4,13,18,-9,-24,-15,-2,4
15:04:33:757908,-8,-1,-14,-13,-4,2,-1,-6
15:04:33:763929,-5,-2,2,-8,5,-2,4,3
15:04:33:779692,-5,-2,2,-8,5,-2,4,3
15:04:33:780504,-6,4,5,-7,-11,2,-8,-3
15:04:33:786503,3,3,4,-2,13,9,-5,-1
15:04:33:794617,3,3,4,-2,13,9,-5,-1
15:04:33:795477,-1,-6,-19,6,2,7,9,11
15:04:33:808943,1,-4,3,12,8,-7,6,12
15:04:33:817596,1,-4,3,12,8,-7,6,12
15:04:33:824609,-4,-22,13,9,-6,-9,-3,11
15:04:33:825499,9,-2,-22,-4,-7,-5,6,9
15:04:33:839651,9,-2,-22,-4,-7,-5,6,9
15:04:33:840485,-6,-1,0,-2,3,4,-5,-16
15:04:33:846420,-9,14,-8,-3,1,0,6,6
15:04:33:854692,-9,14,-8,-3,1,0,6,6
15:04:33:855483,1,9,11,-6,-13,-9,1,1
15:04:33:868964,-7,-13,-3,4,10,-8,-12,-12
15:04:33:877155,-7,-13,-3,4,10,-8,-12,-12
15:04:33:877949,-13,2,8,24,34,12,12,9
15:04:33:883949,3,-8,-18,-4,-8,-2,-8,-21
15:04:33:899680,3,-8,-18,-4,-8,-2,-8,-21
15:04:33:900479,-4,-11,11,-15,-18,-14,-10,-1
15:04:33:906406,7,7,17,11,10,7,12,29
15:04:33:914659,7,7,17,11,10,7,12,29
15:04:33:915484,-7,-16,-24,-8,-4,-1,-19,2
15:04:33:928938,-15,-23,2,-9,-8,-7,1,-39
15:04:33:937233,-15,-23,2,-9,-8,-7,1,-39
15:04:33:937976,5,6,-4,3,6,5,12,-1
15:04:33:943942,3,-4,-9,-7,-14,6,5,-18
15:04:33:959655,3,-4,-9,-7,-14,6,5,-18
15:04:33:960489,-8,6,-10,-1,9,-1,1,-12
15:04:33:966451,1,4,-5,9,1,-6,-4,6
15:04:33:974621,1,4,-5,9,1,-6,-4,6
15:04:33:975471,5,-10,7,-4,-4,-3,-8,6
15:04:33:988919,-2,2,11,-3,-11,-12,-4,-13
15:04:33:997141,-2,2,11,-3,-11,-12,-4,-13
15:04:33:997925,10,-15,4,-10,-15,-4,-3,-4
15:04:34:3935,-6,1,-4,7,7,11,-2,6
15:04:34:19663,-6,1,-4,7,7,11,-2,6
15:04:34:20508,1,10,-10,-3,0,1,7,-5
15:04:34:26385,0,-3,-9,-10,-19,-13,-12,-5
15:04:34:34667,0,-3,-9,-10,-19,-13,-12,-5
15:04:34:35469,1,0,8,3,9,0,-1,7
15:04:34:48971,-3,-4,5,6,-1,3,-4,7
15:04:34:57145,-3,-4,5,6,-1,3,-4,7
15:04:34:57971,1,-6,-4,-4,-6,-1,-2,-1
15:04:34:63893,2,4,5,-5,3,0,6,25
15:04:34:79639,2,4,5,-5,3,0,6,25
15:04:34:80500,-1,17,-10,2,-7,-1,4,15
15:04:34:86425,14,16,23,2,-7,-1,-1,7
15:04:34:102201,14,16,23,2,-7,-1,-1,7
15:04:34:102967,-13,-17,-11,2,-6,-6,7,-18
15:04:34:108935,-3,-4,-7,0,0,1,4,0
15:04:34:117132,-3,-4,-7,0,0,1,4,0
15:04:34:117950,16,16,17,-12,-4,-8,-2,-1
15:04:34:123902,2,-4,-11,-3,11,14,-2,12
15:04:34:139630,2,-4,-11,-3,11,14,-2,12
15:04:34:140499,-6,-15,-9,5,8,3,-4,8
15:04:34:146503,-8,-5,-9,-5,-5,-4,7,6
15:04:34:154664,-8,-5,-9,-5,-5,-4,7,6
15:04:34:155488,-4,21,-2,-9,-19,-6,-11,-18
15:04:34:168973,-4,6,37,15,15,7,-14,-17
15:04:34:177121,-4,6,37,15,15,7,-14,-17
15:04:34:177935,-5,7,-1,-1,-2,-6,-3,15
15:04:34:183935,-5,7,-12,-10,-7,-9,-1,-22
15:04:34:199629,-5,7,-12,-10,-7,-9,-1,-22
15:04:34:200498,2,-19,9,9,25,14,2,-3
15:04:34:206487,0,3,-3,-3,3,-6,-2,6
15:04:34:214647,0,3,-3,-3,3,-6,-2,6
15:04:34:215496,-4,2,-8,-4,-1,0,4,-3
15:04:34:228967,4,0,-12,2,-4,1,2,-4
15:04:34:237130,4,0,-12,2,-4,1,2,-4
15:04:34:237917,-11,-25,-3,-4,5,0,12,-4
15:04:34:243968,-13,-3,7,-3,-8,-3,-7,-13
15:04:34:260102,-13,-3,7,-3,-8,-3,-7,-13
15:04:34:260889,-11,13,5,-4,-9,-8,-9,-25
15:04:34:266506,1,10,4,13,18,3,-5,-5
15:04:34:274614,1,10,4,13,18,3,-5,-5
15:04:34:275502,5,3,-48,-8,-6,3,2,6
15:04:34:297809,8,2,-22,1,-3,-13,-1,1
15:04:34:298646,8,2,-22,1,-3,-13,-1,1
15:04:34:299504,-3,3,21,7,8,0,1,5
15:04:34:303912,12,3,-4,-12,-26,-10,-10,-5
15:04:34:319731,12,3,-4,-12,-26,-10,-10,-5
15:04:34:320520,6,-8,-2,7,2,-1,-12,4
15:04:34:326463,-5,0,10,8,5,0,-6,-24
15:04:34:334630,-5,0,10,8,5,0,-6,-24
15:04:34:335483,-1,-5,-7,-6,-5,-9,0,-4
15:04:34:348898,-7,-9,12,6,15,16,9,20
15:04:34:357148,-7,-9,12,6,15,16,9,20
15:04:34:357920,-2,0,9,7,-4,-4,-11,0
15:04:34:363906,-6,6,-8,-10,-10,-7,7,-2
15:04:34:379642,-6,6,-8,-10,-10,-7,7,-2
15:04:34:380490,-4,-2,12,-12,0,6,3,1
15:04:34:386398,4,-3,20,-3,-10,-5,-5,11
15:04:34:394664,4,-3,20,-3,-10,-5,-5,11
15:04:34:395495,3,-9,-12,4,2,5,4,-4
15:04:34:408952,-13,-3,-4,-2,-4,0,-12,-24
15:04:34:417142,-13,-3,-4,-2,-4,0,-12,-24
15:04:34:417954,-10,6,-5,-4,6,5,1,2
15:04:34:423867,-4,-17,-8,7,3,12,0,4
15:04:34:439624,-4,-17,-8,7,3,12,0,4
15:04:34:440478,0,20,22,-7,-2,1,3,-4
15:04:34:446505,-4,2,-4,-1,-3,-10,2,1
15:04:34:454633,-4,2,-4,-1,-3,-10,2,1
15:04:34:455504,5,4,10,9,5,-2,3,6
15:04:34:468984,-8,-2,-8,-15,-2,-3,0,-1
15:04:34:477113,-8,-2,-8,-15,-2,-3,0,-1
15:04:34:477906,6,1,-2,-2,-2,2,-1,7
15:04:34:483937,-7,-6,2,-2,6,-4,-12,-31
15:04:34:507811,-7,-6,2,-2,6,-4,-12,-31
15:04:34:508598,4,-13,15,3,-10,-4,-8,4
15:04:34:509504,-1,-1,-12,-3,0,-2,-4,-1
15:04:34:514617,-1,-1,-12,-3,0,-2,-4,-1
15:04:34:515533,-6,-6,-21,-11,-13,-9,-6,-11
15:04:34:537887,8,1,6,2,9,2,9,19
15:04:34:538635,8,1,6,2,9,2,9,19
15:04:34:539513,12,8,2,5,15,4,0,-25
15:04:34:543918,7,-2,-22,15,19,10,14,-4
15:04:34:559630,7,-2,-22,15,19,10,14,-4
15:04:34:560487,-17,-3,-4,0,-7,6,5,-6
15:04:34:566435,2,6,2,-4,-10,-4,-2,15
15:04:34:574665,2,6,2,-4,-10,-4,-2,15
15:04:34:575460,-7,-13,-29,1,1,-5,-6,-11
15:04:34:588946,-2,-4,-1,-8,-12,-5,-5,1
15:04:34:597243,-2,-4,-1,-8,-12,-5,-5,1
15:04:34:597946,11,10,15,1,-7,-2,-2,6
15:04:34:603934,7,-3,13,4,8,2,2,4
15:04:34:619671,7,-3,13,4,8,2,2,4
15:04:34:620499,5,-1,4,3,-4,3,0,7
15:04:34:626537,-11,-9,8,-8,-9,4,1,-1
15:04:34:634617,-11,-9,8,-8,-9,4,1,-1
15:04:34:635481,1,-10,-20,6,5,4,0,14
15:04:34:657794,2,0,-17,-2,5,0,2,7
15:04:34:658602,2,0,-17,-2,5,0,2,7
15:04:34:659515,-17,5,6,-10,-10,-9,5,1
15:04:34:671403,-7,-13,-13,-4,-9,-3,-6,-4
15:04:34:679634,-7,-13,-13,-4,-9,-3,-6,-4
15:04:34:680482,3,-19,11,2,1,-5,-15,-16
15:04:34:686487,15,-5,-2,5,8,1,5,45
15:04:34:693989,15,-5,-2,5,8,1,5,45
15:04:34:701438,6,31,17,-2,-3,-2,-1,-6
15:04:34:708920,0,6,11,2,-6,-4,-3,-11
15:04:34:717161,0,6,11,2,-6,-4,-3,-11
15:04:34:717916,3,-2,-3,-7,1,1,-2,1
15:04:34:731437,-7,6,16,0,-10,-11,-3,-12
15:04:34:739639,-7,6,16,0,-10,-11,-3,-12
15:04:34:740491,-1,-15,-5,-3,4,1,2,5
15:04:34:746435,-11,-25,-19,-8,-4,4,12,-4
15:04:34:753987,-11,-25,-19,-8,-4,4,12,-4
15:04:34:761536,4,-5,-14,-2,-8,-6,-1,17
15:04:34:768989,-5,16,14,5,-3,1,0,10
15:04:34:777111,-5,16,14,5,-3,1,0,10
15:04:34:777911,-10,-10,3,-3,2,-3,5,12
15:04:34:791441,-3,-5,4,5,2,4,9,2
15:04:34:799627,-3,-5,4,5,2,4,9,2
15:04:34:800505,-6,-20,-13,-8,-4,-4,-8,-9
15:04:34:806501,-5,12,19,-6,-2,0,-7,-23
15:04:34:813947,-5,12,19,-6,-2,0,-7,-23
15:04:34:821412,2,7,9,21,25,14,12,6
15:04:34:828970,4,3,-43,-30,-21,-9,-5,-6
15:04:34:837151,4,3,-43,-30,-21,-9,-5,-6
15:04:34:837969,-4,7,-1,-7,-13,-3,-8,-12
15:04:34:851500,-21,-5,-6,5,5,0,-4,-16
15:04:34:859620,-21,-5,-6,5,5,0,-4,-16
15:04:34:860483,-12,-8,-9,-4,-4,7,14,-1
15:04:34:866400,4,3,-9,4,6,2,-3,-21
15:04:34:873980,4,3,-9,4,6,2,-3,-21
15:04:34:881411,-3,8,15,-10,-14,-13,-10,-2
15:04:34:888899,8,15,11,-1,4,5,0,-1
15:04:34:897136,8,15,11,-1,4,5,0,-1
15:04:34:897921,6,4,-16,6,8,-2,-8,-6
15:04:34:911441,-5,2,-6,-12,-9,-14,-7,-1
15:04:34:919636,-5,2,-6,-12,-9,-14,-7,-1
15:04:34:920482,2,2,8,2,0,1,-2,-22
15:04:34:926409,0,-13,10,4,-10,-7,-7,0
15:04:34:933951,0,-13,10,4,-10,-7,-7,0
15:04:34:941415,2,13,-2,4,28,12,11,28
15:04:34:948946,15,0,-4,8,-8,-6,-1,18
15:04:34:957182,15,0,-4,8,-8,-6,-1,18
15:04:34:957993,10,13,-5,-2,-5,-4,-14,-18
15:04:34:971428,3,8,46,-3,7,4,5,22
15:04:34:979635,3,8,46,-3,7,4,5,22
15:04:34:980476,4,1,-1,-1,-5,-6,-3,3
15:04:34:986433,-6,-6,-23,-5,0,10,7,-12
15:04:34:994031,-6,-6,-23,-5,0,10,7,-12
15:04:35:1412,6,21,22,26,4,-5,2,3
15:04:35:8917,-12,-15,1,-11,-6,-11,-6,-3
15:04:35:17102,-12,-15,1,-11,-6,-11,-6,-3
15:04:35:17897,-5,-22,-18,-5,-1,3,0,-4
15:04:35:31409,-13,-15,-29,4,5,11,2,11
15:04:35:39642,-13,-15,-29,4,5,11,2,11
15:04:35:40464,3,17,10,-11,-18,-12,0,10
15:04:35:46424,-4,-15,-20,2,2,0,-1,-9
15:04:35:53986,-4,-15,-20,2,2,0,-1,-9
15:04:35:61483,-8,-3,-1,1,-7,-1,0,-16
15:04:35:68938,7,1,3,14,28,7,-2,-3
15:04:35:77118,7,1,3,14,28,7,-2,-3
15:04:35:77899,-1,3,-28,-24,1,-4,-2,-22
15:04:35:91416,4,7,-10,2,-7,0,-4,-3
15:04:35:99659,4,7,-10,2,-7,0,-4,-3
15:04:35:100405,-11,-23,2,-10,-7,4,-2,11
15:04:35:106473,2,-1,2,0,-8,-11,-2,4
15:04:35:113966,2,-1,2,0,-8,-11,-2,4
15:04:35:121425,-10,4,-10,4,0,-1,4,14
15:04:35:128887,-10,-18,10,1,1,11,0,5
15:04:35:137222,-10,-18,10,1,1,11,0,5
15:04:35:137947,3,-2,12,2,-9,-4,1,13
15:04:35:151527,6,21,20,5,4,9,3,-6
15:04:35:159634,6,21,20,5,4,9,3,-6
15:04:35:160533,-12,-31,-6,-3,-2,-2,0,-12
15:04:35:166392,5,2,-8,-3,-3,-2,0,-2
15:04:35:173991,5,2,-8,-3,-3,-2,0,-2
15:04:35:181409,3,-4,3,9,2,-4,-5,1
15:04:35:188947,1,-5,0,-2,-12,-7,-2,-1
15:04:35:197151,1,-5,0,-2,-12,-7,-2,-1
15:04:35:198042,3,10,10,3,-2,-2,5,4
15:04:35:211413,2,-3,2,1,4,0,-8,-25
15:04:35:219649,2,-3,2,1,4,0,-8,-25
15:04:35:220484,2,10,10,-8,-10,-7,-1,8
15:04:35:226391,0,3,-4,6,24,1,0,5
15:04:35:233965,0,3,-4,6,24,1,0,5
15:04:35:241405,7,-1,-7,0,7,4,4,-8
15:04:35:248925,-2,-18,6,-7,-17,-8,-8,0
15:04:35:257130,-2,-18,6,-7,-17,-8,-8,0
15:04:35:257932,-11,-1,10,-2,-9,0,-4,-2
15:04:35:271446,10,3,-14,-5,9,4,3,13
15:04:35:279650,10,3,-14,-5,9,4,3,13
15:04:35:280503,2,-12,-41,-27,-3,0,2,-2
15:04:35:286430,-5,11,11,-9,-2,-4,1,-27
15:04:35:294006,-5,11,11,-9,-2,-4,1,-27
15:04:35:301413,1,-2,-4,8,5,1,5,26
15:04:35:308921,-16,-17,-6,-3,-9,-2,0,13
15:04:35:317092,-16,-17,-6,-3,-9,-2,0,13
15:04:35:317883,-3,-12,-27,-1,-8,0,-6,-14
15:04:35:331416,-7,-7,-14,4,-1,-6,3,4
15:04:35:339654,-7,-7,-14,4,-1,-6,3,4
15:04:35:340481,-5,-23,5,4,6,7,-1,-1
15:04:35:346429,7,-2,-8,-4,-9,-5,-13,-13
