Time,EMG1,EMG2,EMG3,EMG4,EMG5,EMG6,EMG7,EMG8
15:05:39:374704,0,-5,-4,-3,-4,-3,-2,1
15:05:39:375497,-2,-2,3,6,-1,-3,0,2
15:05:39:381527,-4,3,9,1,3,2,0,-1
15:05:39:389694,-4,3,9,1,3,2,0,-1
15:05:39:390526,3,-4,-11,-6,-2,-4,-4,0
15:05:39:404116,1,3,7,14,6,2,-2,1
15:05:39:412373,1,3,7,14,6,2,-2,1
15:05:39:412988,-2,2,2,-1,0,1,-3,0
15:05:39:419052,2,-3,-8,-5,-3,-2,2,3
15:05:39:434779,2,-3,-8,-5,-3,-2,2,3
15:05:39:435560,0,0,5,0,0,-3,-1,-2
15:05:39:441506,-2,0,4,9,1,-1,0,0
15:05:39:449722,-2,0,4,9,1,-1,0,0
15:05:39:450467,-3,1,-7,-6,2,4,0,-2
15:05:39:464024,0,-4,-8,-12,-3,-5,-1,0
15:05:39:472275,0,-4,-8,-12,-3,-5,-1,0
15:05:39:473068,-1,5,5,0,-1,-2,3,3
15:05:39:479030,-3,0,5,-9,-3,2,-2,-4
15:05:39:494769,-3,0,5,-9,-3,2,-2,-4
15:05:39:495555,-4,-2,3,-2,-5,-3,-4,-12
15:05:39:501531,-2,-4,-8,-3,-4,0,0,-1
15:05:39:509751,-2,-4,-8,-3,-4,0,0,-1
15:05:39:510569,-2,3,-3,-2,-4,2,2,-2
15:05:39:523989,0,-1,-3,2,0,0,-5,-1
15:05:39:532284,0,-1,-3,2,0,0,-5,-1
15:05:39:533097,-1,-5,-15,-5,-5,-5,-3,0
15:05:39:539054,0,4,-2,-1,3,-2,2,1
15:05:39:554793,0,4,-2,-1,3,-2,2,1
15:05:39:555669,-4,2,5,8,7,0,-1,-4
15:05:39:561569,-2,-4,-7,0,-3,-1,-2,-3
15:05:39:569792,-2,-4,-7,0,-3,-1,-2,-3
15:05:39:570606,1,8,8,10,2,2,-3,4
15:05:39:584089,-6,-6,-17,-20,-13,1,0,-2
15:05:39:592288,-6,-6,-17,-20,-13,1,0,-2
15:05:39:593112,4,1,9,9,1,-4,0,-3
15:05:39:599022,-1,2,0,-2,0,-2,-2,-3
15:05:39:614738,-1,2,0,-2,0,-2,-2,-3
15:05:39:615514,0,-3,2,-5,-1,0,3,5
15:05:39:621562,-3,-1,-5,-3,-1,-6,-3,4
15:05:39:629741,-3,-1,-5,-3,-1,-6,-3,4
15:05:39:630513,-7,-2,-3,5,3,5,16,0
15:05:39:644000,1,-2,11,3,7,0,4,1
15:05:39:660445,1,-2,11,3,7,0,4,1
15:05:39:661220,1,-2,-2,-8,-7,-9,-9,-3
15:05:39:661978,-5,-5,-8,-1,-3,1,3,-7
15:05:39:674765,-5,-5,-8,-1,-3,1,3,-7
15:05:39:675503,1,-10,2,-1,-2,-1,-4,-2
15:05:39:681527,2,15,15,13,4,-6,-10,1
15:05:39:697240,2,15,15,13,4,-6,-10,1
15:05:39:698044,-3,-18,-27,-14,-9,4,-3,-1
15:05:39:704016,2,-3,4,7,7,3,4,-1
15:05:39:712217,2,-3,4,7,7,3,4,-1
15:05:39:712981,-3,6,13,-2,-16,-18,-2,0
15:05:39:719034,3,1,1,5,7,25,27,2
15:05:39:734781,3,1,1,5,7,25,27,2
15:05:39:735532,-2,6,-3,1,1,3,6,1
15:05:39:741505,0,-2,-5,-6,-17,-30,-18,-3
15:05:39:757239,0,-2,-5,-6,-17,-30,-18,-3
15:05:39:758038,0,-1,-24,-13,3,17,0,-2
15:05:39:764025,1,12,13,0,10,1,-5,4
15:05:39:772287,1,12,13,0,10,1,-5,4
15:05:39:773072,-6,-3,-3,-3,4,-7,-5,0
15:05:39:779051,-3,-1,3,4,-2,-17,-15,-6
15:05:39:794822,-3,-1,3,4,-2,-17,-15,-6
15:05:39:795537,2,4,16,9,7,16,-13,0
15:05:39:801525,1,-2,10,8,14,9,-1,0
15:05:39:817245,1,-2,10,8,14,9,-1,0
15:05:39:818021,3,0,11,7,-2,-8,15,1
15:05:39:823986,-6,-5,4,-1,-4,11,-4,-4
15:05:39:832303,-6,-5,4,-1,-4,11,-4,-4
15:05:39:833041,3,-9,-5,-2,-7,-7,6,-1
15:05:39:846554,-8,-14,-21,-9,-25,-10,-6,-2
15:05:39:854743,-8,-14,-21,-9,-25,-10,-6,-2
15:05:39:855566,5,-1,17,-1,18,0,0,-5
15:05:39:861528,-1,5,3,9,1,-33,3,5
15:05:39:877265,-1,5,3,9,1,-33,3,5
15:05:39:878043,0,4,-20,-6,3,13,-7,8
15:05:39:883992,3,-2,-6,1,-7,2,1,3
15:05:39:892233,3,-2,-6,1,-7,2,1,3
15:05:39:893077,-4,0,-1,-10,-26,-10,-13,-9
15:05:39:906536,1,1,6,1,9,10,8,-4
15:05:39:914723,1,1,6,1,9,10,8,-4
15:05:39:915531,-6,-1,5,-4,-1,-15,-7,-1
15:05:39:921500,0,-6,10,9,5,0,-19,-6
15:05:39:929106,0,-6,10,9,5,0,-19,-6
15:05:39:936538,8,6,-5,4,7,7,-1,-1
15:05:39:944023,-2,-5,-3,-12,-9,9,-3,-4
15:05:39:952261,-2,-5,-3,-12,-9,9,-3,-4
15:05:39:953061,0,8,15,10,21,2,6,3
15:05:39:966511,-4,-5,-26,-23,-12,-22,-6,-6
15:05:39:974706,-4,-5,-26,-23,-12,-22,-6,-6
15:05:39:975569,0,-5,-4,1,1,17,5,-1
15:05:39:981502,-4,-8,-1,-7,-12,-5,4,4
15:05:39:989101,-4,-8,-1,-7,-12,-5,4,4
15:05:39:996532,0,-1,4,21,10,-3,-4,-1
15:05:40:4099,-2,-2,6,6,4,2,1,-3
15:05:40:12222,-2,-2,6,6,4,2,1,-3
15:05:40:12977,-6,-2,-3,-7,-15,-9,-5,-3
15:05:40:26571,2,6,-2,17,28,23,4,-1
15:05:40:42919,2,6,-2,17,28,23,4,-1
15:05:40:43732,-1,-2,-3,-10,-13,-9,-1,-6
15:05:40:44518,7,3,3,4,-6,2,13,1
15:05:40:49065,7,3,3,4,-6,2,13,1
15:05:40:56543,6,3,-21,-4,2,-6,2,-1
15:05:40:64002,2,10,7,0,-8,-8,-3,7
15:05:40:72250,2,10,7,0,-8,-8,-3,7
15:05:40:73032,-5,-9,-22,-8,-4,-2,-6,-4
15:05:40:86507,-5,0,-2,-1,-11,12,6,2
15:05:40:94768,-5,0,-2,-1,-11,12,6,2
15:05:40:95556,3,1,12,5,6,-6,1,6
15:05:40:101569,5,-17,-9,-4,-7,8,1,-2
15:05:40:109086,5,-17,-9,-4,-7,8,1,-2
15:05:40:116529,-10,-35,-6,0,-5,-4,8,0
15:05:40:124006,-2,8,13,0,1,-6,-4,-2
15:05:40:132221,-2,8,13,0,1,-6,-4,-2
15:05:40:133006,3,10,12,-25,-13,-13,-1,-1
15:05:40:146535,5,2,-1,-5,16,6,-6,0
15:05:40:154763,5,2,-1,-5,16,6,-6,0
15:05:40:155552,5,8,9,3,-3,2,-7,0
15:05:40:161539,-2,2,-7,-2,-3,5,-4,0
15:05:40:169076,-2,2,-7,-2,-3,5,-4,0
15:05:40:176565,-5,3,4,5,7,2,1,3
15:05:40:184012,-5,7,-1,-17,-1,-14,2,-1
15:05:40:192240,-5,7,-1,-17,-1,-14,2,-1
15:05:40:193011,-1,-12,2,0,-1,4,-7,-2
15:05:40:206523,-9,-2,-13,-3,-18,-9,-6,-9
15:05:40:222936,-9,-2,-13,-3,-18,-9,-6,-9
15:05:40:223719,2,3,-22,7,7,3,2,-4
15:05:40:224552,2,-1,1,3,20,0,6,4
15:05:40:229056,2,-1,1,3,20,0,6,4
15:05:40:236580,-2,19,5,-9,0,2,-5,0
15:05:40:244069,-4,-7,4,-11,-15,-8,-12,-2
15:05:40:252241,-4,-7,4,-11,-15,-8,-12,-2
15:05:40:253019,-12,0,-2,8,15,-1,0,-1
15:05:40:275414,-2,4,0,-5,-4,10,2,-1
15:05:40:276204,-2,4,0,-5,-4,10,2,-1
15:05:40:277059,14,7,16,6,-17,-5,-3,-15
15:05:40:281482,-1,-5,4,3,15,31,-3,-6
15:05:40:289076,-1,-5,4,3,15,31,-3,-6
15:05:40:296543,-2,-1,-9,-1,2,7,2,1
15:05:40:304091,2,-9,1,-12,-5,-17,2,2
15:05:40:312950,2,-9,1,-12,-5,-17,2,2
15:05:40:313758,-2,4,5,-2,0,20,-3,-1
15:05:40:326510,-2,-22,5,11,10,-11,2,2
15:05:40:334686,-2,-22,5,11,10,-11,2,2
15:05:40:335507,-8,-28,-24,-8,-11,-14,0,0
15:05:40:341531,3,1,-12,4,-8,9,1,2
15:05:40:349070,3,1,-12,4,-8,9,1,2
15:05:40:356573,3,6,-1,3,8,0,-2,6
15:05:40:364053,-1,5,7,0,0,-5,-3,-7
15:05:40:372228,-1,5,7,0,0,-5,-3,-7
15:05:40:373052,2,-13,3,-7,-10,-3,-4,1
15:05:40:386587,-8,-2,-12,1,0,-6,-3,-2
15:05:40:394745,-8,-2,-12,1,0,-6,-3,-2
15:05:40:395502,1,15,-3,1,4,15,1,-1
15:05:40:401538,-4,8,-21,2,0,1,3,-4
15:05:40:409043,-4,8,-21,2,0,1,3,-4
15:05:40:416523,-10,1,2,-7,-9,-15,-5,7
15:05:40:423968,-2,0,-5,0,-8,-2,-4,9
15:05:40:439739,-2,0,-5,0,-8,-2,-4,9
15:05:40:440489,6,8,2,-1,-2,-3,6,0
15:05:40:446526,12,0,5,-1,-6,-12,-7,-8
15:05:40:454711,12,0,5,-1,-6,-12,-7,-8
15:05:40:455539,1,6,2,2,1,8,5,2
15:05:40:461503,4,8,15,3,7,5,6,-2
15:05:40:469080,4,8,15,3,7,5,6,-2
15:05:40:476496,-7,-12,-9,-1,-5,-10,-4,-5
15:05:40:483999,-4,-33,-36,-2,2,-2,2,-5
15:05:40:492221,-4,-33,-36,-2,2,-2,2,-5
15:05:40:493052,-11,-11,4,-2,-27,-28,-5,-9
15:05:40:506477,-2,12,12,4,13,17,4,1
15:05:40:514714,-2,12,12,4,13,17,4,1
15:05:40:515548,3,-3,2,6,6,-3,-2,2
15:05:40:521513,0,6,-10,-12,14,5,-3,-3
15:05:40:529106,0,6,-10,-12,14,5,-3,-3
15:05:40:536548,-8,-9,-6,4,14,2,-1,-8
15:05:40:544044,-1,-10,-8,-5,-17,-2,0,2
15:05:40:552307,-1,-10,-8,-5,-17,-2,0,2
15:05:40:553072,9,-7,-1,-1,-7,-4,-3,-5
15:05:40:566586,-2,-1,7,3,-7,-9,-4,-1
15:05:40:574752,-2,-1,7,3,-7,-9,-4,-1
15:05:40:575574,1,3,4,-8,13,20,0,2
15:05:40:581508,-2,4,9,6,-1,-6,-2,-1
15:05:40:589140,-2,4,9,6,-1,-6,-2,-1
15:05:40:596564,-4,-1,2,0,-5,-1,-1,-2
15:05:40:604042,-1,10,11,-3,-7,-6,-4,-1
15:05:40:612262,-1,10,11,-3,-7,-6,-4,-1
15:05:40:613014,-2,9,8,-2,1,0,0,-1
15:05:40:626525,2,-3,2,0,-10,-13,-5,4
15:05:40:634756,2,-3,2,0,-10,-13,-5,4
15:05:40:635539,-2,8,7,-1,6,-4,-3,2
15:05:40:641534,6,8,0,9,4,0,0,1
15:05:40:649022,6,8,0,9,4,0,0,1
15:05:40:656563,3,-3,-4,-10,-13,-7,-4,-7
15:05:40:664009,-4,0,5,-2,3,-5,2,-5
15:05:40:672242,-4,0,5,-2,3,-5,2,-5
15:05:40:673038,-5,-6,0,7,1,2,2,2
15:05:40:686599,-2,2,1,-4,-9,-3,-5,-1
15:05:40:694732,-2,2,1,-4,-9,-3,-5,-1
15:05:40:695513,-13,11,-2,-2,11,18,-2,-6
15:05:40:701514,-4,-17,-12,4,-1,-5,-4,-1
15:05:40:709048,-4,-17,-12,4,-1,-5,-4,-1
15:05:40:716500,5,1,0,2,-4,-14,0,0
15:05:40:723950,-4,9,-2,1,1,16,6,0
15:05:40:731602,-4,9,-2,1,1,16,6,0
15:05:40:739022,14,9,10,-4,-4,-7,-2,1
15:05:40:746482,5,-9,10,-11,-8,-8,-7,3
15:05:40:754774,5,-9,10,-11,-8,-8,-7,3
15:05:40:755563,-4,-5,2,2,7,-2,-2,-2
15:05:40:769772,-13,6,1,-7,2,12,1,-4
15:05:40:770557,-13,6,1,-7,2,12,1,-4
15:05:40:776549,-5,-4,0,-3,4,-1,1,-5
15:05:40:784031,0,3,1,-1,-24,-8,-1,-2
15:05:40:791586,0,3,1,-1,-24,-8,-1,-2
15:05:40:798999,-5,-5,-8,4,4,21,4,1
15:05:40:806506,4,6,11,0,1,-6,-1,4
15:05:40:814756,4,6,11,0,1,-6,-1,4
15:05:40:815553,7,25,13,1,-11,-3,-6,3
15:05:40:829719,-5,-7,-15,-2,5,8,2,-1
15:05:40:830560,-5,-7,-15,-2,5,8,2,-1
15:05:40:836593,1,1,-15,-3,0,0,0,3
15:05:40:844053,7,-11,-6,-4,0,-7,1,1
15:05:40:851589,7,-11,-6,-4,0,-7,1,1
15:05:40:859044,-1,-8,12,3,7,-3,-1,0
15:05:40:866537,0,-19,-2,2,4,10,-7,-1
15:05:40:874749,0,-19,-2,2,4,10,-7,-1
15:05:40:875521,-1,-6,-13,-17,-8,-4,3,1
15:05:40:890159,5,3,-3,0,2,-7,-2,-3
15:05:40:891013,5,3,-3,0,2,-7,-2,-3
15:05:40:896551,-1,-4,19,8,1,1,1,5
15:05:40:904063,-1,-3,-10,-2,-4,4,1,2
15:05:40:911583,-1,-3,-10,-2,-4,4,1,2
15:05:40:919061,2,-9,-7,0,-9,-7,-5,3
15:05:40:926518,-7,18,20,6,3,-2,4,6
15:05:40:934706,-7,18,20,6,3,-2,4,6
15:05:40:935489,1,9,-4,-8,-14,-14,-3,-4
15:05:40:949745,-3,4,-8,-6,4,1,0,-3
15:05:40:950505,-3,4,-8,-6,4,1,0,-3
15:05:40:956561,-8,-21,-2,2,3,0,-2,-8
15:05:40:964027,4,-13,-12,3,17,11,5,-1
15:05:40:971609,4,-13,-12,3,17,11,5,-1
15:05:40:978969,1,9,1,3,-12,-5,0,0
15:05:40:986504,-2,5,7,0,-5,-2,-3,-4
15:05:40:994739,-2,5,7,0,-5,-2,-3,-4
15:05:40:995583,0,-4,-5,0,6,3,1,7
15:05:41:9682,-4,-10,-8,-12,-6,-7,-2,-5
15:05:41:10567,-4,-10,-8,-12,-6,-7,-2,-5
15:05:41:16540,-6,-24,-12,-6,13,0,3,-6
15:05:41:23972,0,3,0,12,5,14,3,0
15:05:41:31559,0,3,0,12,5,14,3,0
15:05:41:39048,5,28,15,0,-3,-5,-1,-1
15:05:41:46525,5,-2,4,2,-11,-14,-3,10
15:05:41:54818,5,-2,4,2,-11,-14,-3,10
15:05:41:55562,-1,17,-9,1,13,6,0,-5
15:05:41:69804,1,21,12,4,0,-3,-2,-8
15:05:41:70596,1,21,12,4,0,-3,-2,-8
15:05:41:76507,0,-6,4,-3,-11,-6,-2,-3
15:05:41:83988,-2,-4,19,4,0,5,-3,-3
15:05:41:91613,-2,-4,19,4,0,5,-3,-3
15:05:41:99076,1,-9,-5,4,8,7,1,-3
15:05:41:106521,5,-27,-28,-19,-31,-18,-3,-1
15:05:41:114757,5,-27,-28,-19,-31,-18,-3,-1
15:05:41:115544,-8,-26,-11,10,12,35,2,3
15:05:41:129742,-9,8,14,6,9,-4,5,-3
15:05:41:130582,-9,8,14,6,9,-4,5,-3
15:05:41:136557,-5,-24,-38,-22,-24,-16,-11,-3
15:05:41:144028,-5,-12,-8,-4,9,5,-1,-3
15:05:41:151596,-5,-12,-8,-4,9,5,-1,-3
15:05:41:159067,-2,12,2,6,2,-5,2,7
15:05:41:166549,-4,9,2,-4,-2,-9,-2,-4
15:05:41:174715,-4,9,2,-4,-2,-9,-2,-4
15:05:41:175531,6,13,12,4,-26,-15,-6,-4
15:05:41:189682,3,3,3,-7,17,11,-2,-1
15:05:41:190532,3,3,3,-7,17,11,-2,-1
15:05:41:196525,0,0,14,8,11,0,4,1
15:05:41:204055,-6,-1,-5,-12,-15,-8,-7,-10
15:05:41:211544,-6,-1,-5,-12,-15,-8,-7,-10
15:05:41:219051,2,6,17,8,14,5,-3,1
15:05:41:226538,-3,-5,-10,-6,-4,-8,-2,7
15:05:41:234714,-3,-5,-10,-6,-4,-8,-2,7
15:05:41:235484,-3,-9,3,5,2,4,-2,-1
15:05:41:249694,-2,-4,-48,-2,-14,-2,4,10
15:05:41:250523,-2,-4,-48,-2,-14,-2,4,10
15:05:41:256538,5,-7,1,-2,3,-14,0,-4
15:05:41:264030,0,-7,12,4,7,0,0,-1
15:05:41:271592,0,-7,12,4,7,0,0,-1
15:05:41:279003,-5,-4,-9,-15,-3,-11,-7,-10
15:05:41:286542,-5,1,16,6,0,7,0,-7
15:05:41:294729,-5,1,16,6,0,7,0,-7
15:05:41:295551,0,-20,-15,-4,17,12,2,2
15:05:41:309668,-4,-6,3,0,-3,-10,-2,-1
15:05:41:310551,-4,-6,3,0,-3,-10,-2,-1
15:05:41:316505,-9,-12,-17,-7,-12,-5,-10,-6
15:05:41:323982,5,15,10,14,29,18,6,6
15:05:41:331535,5,15,10,14,29,18,6,6
15:05:41:339033,3,-5,10,-8,-22,-9,-3,-5
15:05:41:346500,2,31,-14,-12,-13,-18,-4,-8
15:05:41:354755,2,31,-14,-12,-13,-18,-4,-8
15:05:41:355562,4,40,17,3,3,11,2,4
15:05:41:369756,1,-3,-6,-22,-18,-2,-6,-4
15:05:41:370598,1,-3,-6,-22,-18,-2,-6,-4
15:05:41:376518,-2,0,-8,-12,10,16,0,2
15:05:41:384033,2,6,15,15,7,6,2,2
15:05:41:391574,2,6,15,15,7,6,2,2
15:05:41:399032,-1,-9,8,4,-12,-3,0,-2
15:05:41:406537,-9,-60,-39,-18,-18,-32,-9,-5
15:05:41:414723,-9,-60,-39,-18,-18,-32,-9,-5
15:05:41:415566,-9,8,16,10,16,2,4,-3
15:05:41:429698,-10,3,5,-7,-15,-13,-3,2
15:05:41:430554,-10,3,5,-7,-15,-13,-3,2
15:05:41:436529,-7,-11,-13,-4,2,21,2,3
15:05:41:444046,8,11,12,4,10,11,5,-5
15:05:41:451617,8,11,12,4,10,11,5,-5
15:05:41:459051,-4,-7,-15,-8,-9,-16,-8,-2
15:05:41:466498,2,-4,14,9,10,11,1,-2
15:05:41:474697,2,-4,14,9,10,11,1,-2
15:05:41:475527,-3,-45,-35,-7,-17,-14,-2,0
15:05:41:489697,-4,-23,2,5,1,2,0,6
15:05:41:490523,-4,-23,2,5,1,2,0,6
15:05:41:496532,7,12,3,3,-6,-10,-4,-3
15:05:41:504060,2,-6,-5,2,5,7,-3,-7
15:05:41:511548,2,-6,-5,2,5,7,-3,-7
15:05:41:519044,1,8,12,-5,-16,-16,-7,5
15:05:41:526545,1,8,-11,-19,6,17,7,-1
15:05:41:534758,1,8,-11,-19,6,17,7,-1
15:05:41:535512,-12,-3,-12,1,15,1,2,-5
15:05:41:549711,5,15,23,16,-5,0,1,2
15:05:41:550537,5,15,23,16,-5,0,1,2
15:05:41:556565,0,3,-1,2,-4,-15,-2,2
15:05:41:564022,-3,10,-10,0,5,13,1,0
15:05:41:571578,-3,10,-10,0,5,13,1,0
15:05:41:579009,2,13,-5,0,8,5,3,8
15:05:41:586497,-6,-9,-24,-13,-14,-9,-2,-4
15:05:41:594755,-6,-9,-24,-13,-14,-9,-2,-4
15:05:41:595571,-13,-4,3,-7,13,15,6,-3
15:05:41:609690,-16,-3,4,-9,-10,3,-6,-2
15:05:41:610536,-16,-3,4,-9,-10,3,-6,-2
15:05:41:616502,5,9,1,5,22,12,3,0
15:05:41:623974,4,36,22,2,1,-11,-2,-2
15:05:41:631563,4,36,22,2,1,-11,-2,-2
15:05:41:639043,-4,-9,7,5,-18,1,-3,-11
15:05:41:646499,-2,-20,-24,-1,-5,-13,-9,2
15:05:41:654743,-2,-20,-24,-1,-5,-13,-9,2
15:05:41:655512,5,11,27,-3,-17,-11,-4,0
15:05:41:669813,-4,-3,6,20,15,26,8,1
15:05:41:670546,-4,-3,6,20,15,26,8,1
15:05:41:676532,2,-5,-9,-10,-27,2,-6,-1
15:05:41:692232,6,10,12,8,16,-1,0,2
15:05:41:693023,6,10,12,8,16,-1,0,2
15:05:41:698985,3,11,11,-1,0,-2,2,-3
15:05:41:706537,3,-8,-8,-11,-9,-16,-7,-16
15:05:41:714057,3,-8,-8,-11,-9,-16,-7,-16
15:05:41:721526,2,-4,-22,7,11,8,5,4
15:05:41:729681,-3,-14,-9,0,-29,-35,-9,4
15:05:41:730523,-3,-14,-9,0,-29,-35,-9,4
15:05:41:736498,-1,7,17,4,28,9,6,7
15:05:41:752277,0,-6,-37,-26,8,12,4,-3
15:05:41:753055,0,-6,-37,-26,8,12,4,-3
15:05:41:758998,3,-6,-19,-3,-18,-12,-5,-5
15:05:41:766519,-2,17,10,4,2,-3,-7,2
15:05:41:774080,-2,17,10,4,2,-3,-7,2
15:05:41:781505,-7,-5,-7,-1,3,2,-6,1
15:05:41:789678,-7,-27,-9,7,9,2,-3,-2
15:05:41:790506,-7,-27,-9,7,9,2,-3,-2
15:05:41:796530,-9,-19,6,-9,-2,-12,-6,-2
15:05:41:812255,9,2,18,3,2,2,4,-3
15:05:41:813063,9,2,18,3,2,2,4,-3
15:05:41:819034,-2,-7,-31,-11,3,8,1,12
15:05:41:826491,6,7,0,0,-2,4,-1,-3
15:05:41:834021,6,7,0,0,-2,4,-1,-3
15:05:41:841550,-1,-59,-5,7,-5,-23,-3,-5
15:05:41:849694,-5,3,7,9,-1,3,3,-2
15:05:41:850496,-5,3,7,9,-1,3,3,-2
15:05:41:856502,3,26,3,5,-6,-8,2,-4
15:05:41:872270,4,-2,-4,3,18,13,-1,-1
15:05:41:873030,4,-2,-4,3,18,13,-1,-1
15:05:41:879048,0,7,-14,0,-6,-2,-2,-15
15:05:41:886582,-13,-3,6,-6,-11,-7,-6,-3
15:05:41:894012,-13,-3,6,-6,-11,-7,-6,-3
15:05:41:901492,-5,20,1,17,18,8,1,7
15:05:41:909725,2,0,31,-4,-12,-13,-2,-2
15:05:41:910529,2,0,31,-4,-12,-13,-2,-2
15:05:41:916523,-1,-12,2,-7,-9,14,-2,-11
15:05:41:932257,9,-14,-7,7,25,14,8,1
15:05:41:933006,9,-14,-7,7,25,14,8,1
15:05:41:947180,-9,-15,-23,-9,-4,-18,3,7
15:05:41:947970,-8,13,13,0,-4,0,-1,-9
15:05:41:962264,-8,13,13,0,-4,0,-1,-9
15:05:41:963017,2,20,41,2,-5,-6,-5,-5
15:05:41:969739,0,-33,-24,-12,-3,-5,-7,1
15:05:41:970575,0,-33,-24,-12,-3,-5,-7,1
15:05:41:976506,-2,5,23,7,3,-1,-7,-1
15:05:41:992214,9,7,-13,-24,7,6,-1,2
15:05:41:993064,9,7,-13,-24,7,6,-1,2
15:05:41:999033,-2,-21,-19,-12,-10,14,6,-1
15:05:42:6552,-8,15,-30,-5,-10,-24,-2,-4
15:05:42:14087,-8,15,-30,-5,-10,-24,-2,-4
15:05:42:21563,0,19,-36,-13,0,3,-1,2
15:05:42:29661,-1,-18,2,15,11,-1,4,4
15:05:42:30523,-1,-18,2,15,11,-1,4,4
15:05:42:36520,-2,-3,-4,-2,-29,-21,-5,-1
15:05:42:52176,-5,9,-1,13,23,16,4,6
15:05:42:52991,-5,9,-1,13,23,16,4,6
15:05:42:59014,6,5,-8,3,16,14,-2,0
15:05:42:66554,-19,-6,-2,-3,-17,-3,-5,2
15:05:42:74055,-19,-6,-2,-3,-17,-3,-5,2
15:05:42:81510,2,0,0,-2,-3,0,3,-2
15:05:42:89711,2,5,20,4,-11,-11,-5,2
15:05:42:90526,2,5,20,4,-11,-11,-5,2
15:05:42:96480,-2,4,24,0,1,-4,-6,-13
15:05:42:112226,3,9,12,-8,-10,-7,-1,8
15:05:42:112981,3,9,12,-8,-10,-7,-1,8
15:05:42:119069,6,-3,4,-4,6,8,3,1
15:05:42:126537,3,14,-6,-30,-34,-7,-7,-7
15:05:42:134068,3,14,-6,-30,-34,-7,-7,-7
15:05:42:141473,6,0,13,9,23,9,6,9
15:05:42:149725,-1,-23,-21,-4,-7,-10,-5,-4
15:05:42:150525,-1,-23,-21,-4,-7,-10,-5,-4
15:05:42:156497,0,-3,-4,5,-3,-3,2,-1
15:05:42:172202,-1,5,-28,-6,-24,-20,-2,-5
15:05:42:173023,-1,5,-28,-6,-24,-20,-2,-5
15:05:42:178997,2,3,-4,1,4,-5,-3,-5
15:05:42:186531,1,5,23,10,3,15,-4,-3
15:05:42:194123,1,5,23,10,3,15,-4,-3
15:05:42:201523,7,5,-17,-6,-2,-7,0,-5
15:05:42:225364,3,-5,-5,0,1,1,2,-5
15:05:42:226168,3,-5,-5,0,1,1,2,-5
15:05:42:227023,-8,10,19,10,-5,-6,1,0
15:05:42:232196,-2,-10,24,8,21,11,-1,-7
15:05:42:233050,-2,-10,24,8,21,11,-1,-7
15:05:42:239065,-5,-1,2,-9,-19,-19,-7,4
15:05:42:246528,10,13,2,6,27,15,6,6
15:05:42:254101,10,13,2,6,27,15,6,6
15:05:42:261509,-16,-50,-35,-10,-3,-5,-7,-14
15:05:42:269706,-8,-7,9,8,5,15,0,-1
15:05:42:270579,-8,-7,9,8,5,15,0,-1
15:05:42:276492,9,20,19,10,9,1,3,4
15:05:42:292233,-6,-15,-22,-11,-12,-6,-6,1
15:05:42:292993,-6,-15,-22,-11,-12,-6,-6,1
15:05:42:298972,2,24,20,-2,-6,6,-1,13
15:05:42:306497,-4,-44,5,3,-5,2,0,0
15:05:42:314025,-4,-44,5,3,-5,2,0,0
15:05:42:321507,4,-6,6,0,-1,-7,-1,-2
15:05:42:329704,7,23,15,11,32,3,4,1
15:05:42:330525,7,23,15,11,32,3,4,1
15:05:42:336545,-6,-5,-3,-5,4,-10,0,-4
15:05:42:352239,2,31,9,-5,-4,6,2,-14
15:05:42:353089,2,31,9,-5,-4,6,2,-14
15:05:42:358966,7,6,-9,-7,4,4,2,-2
15:05:42:366539,1,14,9,-7,-15,-23,-5,3
15:05:42:391073,1,14,9,-7,-15,-23,-5,3
15:05:42:391860,4,-22,11,12,10,15,7,14
15:05:42:392667,-7,-2,0,-8,-20,-20,-8,-1
15:05:42:393526,-7,-2,0,-8,-20,-20,-8,-1
15:05:42:396492,-12,-6,-21,-22,6,12,7,11
15:05:42:412203,4,-18,9,7,-3,-7,0,2
15:05:42:413016,4,-18,9,7,-3,-7,0,2
15:05:42:419013,2,-2,-4,-2,-10,0,-3,-7
15:05:42:426484,-7,-5,-17,-10,-21,-7,-3,-1
15:05:42:434077,-7,-5,-17,-10,-21,-7,-3,-1
15:05:42:441487,5,-31,10,14,15,1,2,5
15:05:42:449755,7,14,3,0,0,11,2,2
15:05:42:450532,7,14,3,0,0,11,2,2
15:05:42:456493,-11,10,-6,7,-10,-8,-5,-6
15:05:42:472014,-3,2,7,9,12,4,4,-3
15:05:42:479766,-3,2,7,9,12,4,4,-3
15:05:42:480528,0,21,-6,-10,-16,-11,-6,-8
15:05:42:495176,0,21,-6,-10,-16,-11,-6,-8
15:05:42:502133,-1,7,-39,-8,-2,3,-1,0
15:05:42:503010,-21,-5,-1,8,-1,3,-8,-10
15:05:42:509732,-21,-5,-1,8,-1,3,-8,-10
15:05:42:510521,19,5,18,8,3,1,4,4
15:05:42:516511,4,-2,0,-10,-6,3,1,4
15:05:42:532262,4,-2,0,-10,-6,3,1,4
15:05:42:533054,-4,10,17,12,8,-5,-4,3
15:05:42:539020,-2,-2,-13,-16,-25,-4,-9,-5
15:05:42:554745,-2,-2,-13,-16,-25,-4,-9,-5
15:05:42:555504,-2,-2,-4,7,21,7,5,2
15:05:42:561558,7,19,-18,7,7,1,1,-3
15:05:42:569712,7,19,-18,7,7,1,1,-3
15:05:42:570556,-13,-53,-14,-18,-37,-25,-9,-6
15:05:42:576468,6,15,7,13,14,27,7,4
15:05:42:592197,6,15,7,13,14,27,7,4
15:05:42:593006,-3,0,-10,17,22,11,3,-2
15:05:42:606575,-6,-1,5,-22,-29,-30,-8,-2
15:05:42:614690,-6,-1,5,-22,-29,-30,-8,-2
15:05:42:615492,-16,9,5,-9,3,15,2,-3
15:05:42:621540,1,3,8,11,10,7,3,4
15:05:42:629714,1,3,8,11,10,7,3,4
15:05:42:630510,1,20,-12,-23,-10,-21,-12,-5
15:05:42:644076,0,12,9,2,9,8,8,-2
15:05:42:652231,0,12,9,2,9,8,8,-2
15:05:42:653008,-2,-40,-38,-11,-11,-2,1,-5
15:05:42:675388,-1,3,1,-8,5,5,-5,0
15:05:42:676207,-1,3,1,-8,5,5,-5,0
15:05:42:677007,2,3,-21,-25,-20,-2,2,-1
15:05:42:681490,9,-6,-2,-2,7,-6,-5,-3
15:05:42:689740,9,-6,-2,-2,7,-6,-5,-3
15:05:42:690525,-4,3,14,17,8,-2,-8,-2
15:05:42:704060,-2,-3,-2,-3,-31,-8,17,4
15:05:42:713302,-2,-3,-2,-3,-31,-8,17,4
15:05:42:719724,2,-2,5,16,35,29,13,6
15:05:42:720495,-1,-1,-5,9,-1,-11,-12,-9
15:05:42:734799,-1,-1,-5,9,-1,-11,-12,-9
15:05:42:735560,0,9,23,5,-12,-16,-4,-3
15:05:42:741487,-1,-13,-4,-8,-5,-8,-7,-4
15:05:42:749522,-1,-13,-4,-8,-5,-8,-7,-4
15:05:42:756522,1,11,13,4,-3,-16,-2,-2
15:05:42:764021,-4,-6,-14,-2,-13,-18,-3,-4
15:05:42:772222,-4,-6,-14,-2,-13,-18,-3,-4
15:05:42:773080,-8,-1,-1,4,15,31,12,-8
15:05:42:779014,7,3,11,10,6,7,1,0
15:05:42:794757,7,3,11,10,6,7,1,0
15:05:42:795515,-8,-7,-18,-17,-31,-26,-16,-12
15:05:42:801519,-4,2,1,1,26,12,14,0
15:05:42:809741,-4,2,1,1,26,12,14,0
15:05:42:810558,3,-2,3,3,5,10,-1,4
15:05:42:824006,-4,-8,3,-3,6,-5,-11,-2
15:05:42:832245,-4,-8,3,-3,6,-5,-11,-2
15:05:42:833031,0,4,9,9,8,2,5,5
15:05:42:839030,-4,-16,-14,-8,-16,-1,-5,-10
15:05:42:854750,-4,-16,-14,-8,-16,-1,-5,-10
15:05:42:855534,7,2,-13,-11,-10,-6,-3,-3
15:05:42:861531,-9,1,-14,-3,9,6,-4,3
15:05:42:869745,-9,1,-14,-3,9,6,-4,3
15:05:42:870547,-3,3,10,-1,-12,-8,-8,2
15:05:42:892907,-3,-34,-15,-1,16,19,4,-1
15:05:42:893678,-3,-34,-15,-1,16,19,4,-1
15:05:42:894510,0,-6,-10,3,-5,0,4,8
15:05:42:899058,2,16,14,4,5,2,3,2
15:05:42:914514,2,16,14,4,5,2,3,2
15:05:42:922245,5,-6,3,1,1,-13,-5,-2
15:05:42:923040,4,1,41,18,17,16,-3,3
15:05:42:929688,4,1,41,18,17,16,-3,3
15:05:42:930505,-20,-34,-2,5,10,15,2,-4
15:05:42:944048,1,-24,-11,-7,-22,-26,-9,-7
15:05:42:952257,1,-24,-11,-7,-22,-26,-9,-7
15:05:42:953049,4,8,-18,-8,-2,3,0,3
15:05:42:959018,2,-1,-39,0,3,0,1,7
15:05:42:974784,2,-1,-39,0,3,0,1,7
15:05:42:975545,-3,17,31,4,-8,-10,-3,-1
15:05:42:981499,5,13,9,4,15,12,4,4
15:05:42:990389,5,13,9,4,15,12,4,4
15:05:42:991213,-4,-1,-14,-12,-18,-6,-1,0
15:05:43:4081,-10,4,-9,-16,-20,-9,-5,-3
15:05:43:12306,-10,4,-9,-16,-20,-9,-5,-3
15:05:43:13073,3,2,22,14,9,2,0,1
15:05:43:19059,4,3,34,24,3,3,0,-4
15:05:43:34821,4,3,34,24,3,3,0,-4
15:05:43:35580,-10,-59,-38,-10,-2,-1,-3,-5
15:05:43:41520,14,2,0,-5,-12,-9,-4,1
15:05:43:49750,14,2,0,-5,-12,-9,-4,1
15:05:43:50492,-24,22,0,-3,-2,-3,-5,-5
15:05:43:64007,-4,11,8,-1,-2,-1,2,-3
15:05:43:72293,-4,11,8,-1,-2,-1,2,-3
15:05:43:73090,5,2,-20,-27,-20,0,4,1
15:05:43:79045,-1,27,33,8,26,12,2,10
15:05:43:94791,-1,27,33,8,26,12,2,10
15:05:43:95592,-4,31,35,7,-2,-7,-1,-2
15:05:43:101510,-3,-10,-21,-14,-14,-12,3,-2
15:05:43:117268,-3,-10,-21,-14,-14,-12,3,-2
15:05:43:118029,10,7,15,9,9,0,0,-1
15:05:43:124023,-6,2,2,16,12,4,-2,-3
15:05:43:132255,-6,2,2,16,12,4,-2,-3
15:05:43:133046,4,17,8,-12,-4,0,2,-6
15:05:43:139023,0,14,-10,-2,10,-8,0,-4
15:05:43:154807,0,14,-10,-2,10,-8,0,-4
15:05:43:155526,4,-6,-35,-4,-14,-12,-13,-7
15:05:43:161520,-4,-11,2,0,-9,5,-1,7
15:05:43:177252,-4,-11,2,0,-9,5,-1,7
15:05:43:178091,6,-4,0,6,5,2,-1,7
15:05:43:184010,-12,-13,29,-3,-1,-2,-1,-2
15:05:43:192212,-12,-13,29,-3,-1,-2,-1,-2
15:05:43:192988,6,-7,2,4,10,10,6,3
15:05:43:199028,3,7,-12,-16,-20,-10,-11,-10
15:05:43:214714,3,7,-12,-16,-20,-10,-11,-10
15:05:43:215573,6,-6,-17,0,12,17,5,-2
15:05:43:221497,-4,-6,-15,-12,-8,-5,-3,-6
15:05:43:229130,-4,-6,-15,-12,-8,-5,-3,-6
15:05:43:236558,-6,-18,-37,-18,-4,4,-1,13
15:05:43:244022,-12,-34,-19,-10,-13,-6,-5,-5
15:05:43:252251,-12,-34,-19,-10,-13,-6,-5,-5
15:05:43:253079,10,-9,12,12,2,-4,5,4
15:05:43:258986,7,4,-1,-7,3,1,1,2
15:05:43:274790,7,4,-1,-7,3,1,1,2
15:05:43:275563,-2,8,4,2,7,4,-3,-4
15:05:43:281547,-4,-2,-40,-3,-22,-17,-4,-3
15:05:43:289776,-4,-2,-40,-3,-22,-17,-4,-3
15:05:43:290551,15,18,5,0,2,0,0,8
15:05:43:304095,1,10,6,-3,-2,2,-6,-1
15:05:43:312248,1,10,6,-3,-2,2,-6,-1
15:05:43:313027,-4,49,11,17,5,1,-3,-5
15:05:43:319073,-4,-17,-2,-5,-3,-1,4,-1
15:05:43:334813,-4,-17,-2,-5,-3,-1,4,-1
15:05:43:335618,-1,7,11,4,-4,-4,4,-6
15:05:43:341547,5,10,7,-2,3,0,0,-2
15:05:43:349793,5,10,7,-2,3,0,0,-2
15:05:43:350561,-18,-32,-10,-8,-1,-3,-4,-5
15:05:43:364009,8,-26,16,13,4,1,1,2
15:05:43:372262,8,-26,16,13,4,1,1,2
15:05:43:373044,-1,4,1,-15,-10,-2,-2,-5
15:05:43:379027,-1,5,20,12,2,1,-2,-4
15:05:43:394733,-1,5,20,12,2,1,-2,-4
15:05:43:395571,-1,-11,-1,-1,-6,-2,-2,-5
15:05:43:401516,-1,10,14,18,-3,-4,-4,-1
15:05:43:409744,-1,10,14,18,-3,-4,-4,-1
15:05:43:410516,-3,-9,-9,0,4,-2,-1,-1
15:05:43:424020,-2,10,-12,-14,-6,-5,-2,-1
15:05:43:432244,-2,10,-12,-14,-6,-5,-2,-1
15:05:43:433052,0,10,16,15,7,-2,-6,-3
15:05:43:439020,-7,-17,-29,-11,-4,-3,0,-3
15:05:43:454748,-7,-17,-29,-11,-4,-3,0,-3
15:05:43:455546,3,-6,-4,-1,-6,-5,-2,-1
15:05:43:461550,0,16,3,10,13,14,7,-1
15:05:43:469759,0,16,3,10,13,14,7,-1
15:05:43:470543,-4,-17,-13,-21,-9,-3,6,7
15:05:43:484073,4,0,-6,-10,-4,-7,-1,-2
15:05:43:492225,4,0,-6,-10,-4,-7,-1,-2
15:05:43:493033,-8,-28,-15,-6,-11,-13,-13,-10
15:05:43:498987,-4,-5,-4,29,45,18,5,2
15:05:43:514723,-4,-5,-4,29,45,18,5,2
15:05:43:515540,6,15,11,1,-9,-8,-3,5
15:05:43:521531,2,7,10,0,-7,2,-2,1
15:05:43:530398,2,7,10,0,-7,2,-2,1
15:05:43:531210,0,9,8,-1,-2,-3,0,-3
15:05:43:544063,-11,-6,3,-9,-14,-3,0,2
15:05:43:552291,-11,-6,3,-9,-14,-3,0,2
15:05:43:553010,-8,-6,-5,-1,5,2,2,-4
15:05:43:559031,1,-7,-10,-8,-12,-15,-8,-4
15:05:43:574795,1,-7,-10,-8,-12,-15,-8,-4
15:05:43:575546,-5,1,6,14,17,14,3,3
15:05:43:581514,4,13,16,-5,-4,-3,-1,-2
15:05:43:589105,4,13,16,-5,-4,-3,-1,-2
15:05:43:596592,-1,-2,-14,-4,5,1,3,-2
15:05:43:604066,-1,10,13,-4,0,1,2,2
15:05:43:612195,-1,10,13,-4,0,1,2,2
15:05:43:613037,2,11,9,-5,-3,-3,-3,-3
15:05:43:626582,-2,-3,-11,16,6,-1,-4,0
15:05:43:634689,-2,-3,-11,16,6,-1,-4,0
15:05:43:635492,2,7,13,6,3,-3,-4,-7
15:05:43:641545,-1,-9,0,-5,-11,-5,0,-3
15:05:43:649069,-1,-9,0,-5,-11,-5,0,-3
15:05:43:656502,-5,0,-4,-2,-5,-1,-2,0
15:05:43:663986,-8,-38,-11,-9,-9,-3,-2,-3
15:05:43:672677,-8,-38,-11,-9,-9,-3,-2,-3
15:05:43:679028,-1,-32,0,0,-2,-5,-2,0
15:05:43:686568,11,18,11,-1,3,0,0,13
15:05:43:694765,11,18,11,-1,3,0,0,13
15:05:43:695581,-1,9,1,-4,-13,-3,-3,-3
15:05:43:701506,0,-5,-17,-1,11,11,3,-3
15:05:43:709107,0,-5,-17,-1,11,11,3,-3
15:05:43:716532,5,1,12,12,10,-1,8,0
15:05:43:724023,-15,-5,-16,0,-11,-5,-7,-6
15:05:43:732211,-15,-5,-16,0,-11,-5,-7,-6
15:05:43:733004,-6,-38,-10,8,7,-5,-4,-7
15:05:43:746542,-7,4,-20,-4,-3,-1,1,-8
15:05:43:754802,-7,4,-20,-4,-3,-1,1,-8
15:05:43:755565,15,20,14,13,-9,-2,4,27
15:05:43:761519,1,12,3,-15,-5,0,-2,-9
15:05:43:769069,1,12,3,-15,-5,0,-2,-9
15:05:43:776532,-7,-2,-4,-6,-1,6,4,-3
15:05:43:792877,-7,-6,-22,-7,2,-5,-1,-1
15:05:43:793723,-7,-6,-22,-7,2,-5,-1,-1
15:05:43:794543,0,-4,-5,2,9,9,1,-1
15:05:43:806510,1,10,-1,-4,-10,-11,-8,-5
15:05:43:814730,1,10,-1,-4,-10,-11,-8,-5
15:05:43:815568,5,-2,17,2,-20,-3,-11,-6
15:05:43:821486,10,3,8,16,17,9,6,4
15:05:43:829133,10,3,8,16,17,9,6,4
15:05:43:844726,-3,7,-3,-6,-8,-4,2,-4
15:05:43:845502,-1,-6,0,-1,-6,5,0,-1
15:05:43:852251,-1,-6,0,-1,-6,5,0,-1
15:05:43:853068,-3,7,-16,-6,1,-1,-2,-4
15:05:43:866546,-2,3,9,-9,0,-4,8,-7
15:05:43:874739,-2,3,9,-9,0,-4,8,-7
15:05:43:875523,11,9,13,1,16,8,10,28
15:05:43:881500,-6,-15,11,-8,-25,-11,-7,-9
15:05:43:889100,-6,-15,11,-8,-25,-11,-7,-9
15:05:43:904686,0,-7,-12,-2,-6,-9,-15,-19
15:05:43:905444,0,-1,10,5,17,7,1,0
15:05:43:912233,0,-1,10,5,17,7,1,0
15:05:43:912999,-15,18,22,3,-16,0,-1,-9
15:05:43:926491,-5,-15,-26,-10,-24,-4,0,0
15:05:43:934744,-5,-15,-26,-10,-24,-4,0,0
15:05:43:935527,5,9,-11,6,30,8,3,5
15:05:43:941543,1,5,-22,-6,1,-3,-4,5
15:05:43:957210,1,5,-22,-6,1,-3,-4,5
15:05:43:958022,-4,-14,-7,-5,-24,-12,-5,-9
15:05:43:964007,2,-3,-3,11,4,4,-3,5
15:05:43:972255,2,-3,-3,11,4,4,-3,5
15:05:43:973058,-10,-5,-16,-2,-3,-2,-3,-7
15:05:43:986592,16,33,1,1,10,4,0,25
15:05:43:994750,16,33,1,1,10,4,0,25
15:05:43:995520,-34,-14,6,-6,8,-7,4,-2
15:05:44:1508,-6,-3,0,0,7,10,-13,-11
15:05:44:17271,-6,-3,0,0,7,10,-13,-11
15:05:44:18051,10,10,-7,-5,2,1,-5,-4
15:05:44:24040,-7,-8,2,-11,-26,-15,6,1
15:05:44:32215,-7,-8,2,-11,-26,-15,6,1
15:05:44:33010,3,-3,-7,-8,2,5,0,-1
15:05:44:46536,1,-3,11,1,-7,-10,-1,0
15:05:44:54727,1,-3,11,1,-7,-10,-1,0
15:05:44:55510,2,3,-9,1,1,-8,-2,4
15:05:44:61566,5,-20,6,6,5,8,0,6
15:05:44:69080,5,-20,6,6,5,8,0,6
15:05:44:76482,-11,-27,-10,-7,-7,-10,7,11
15:05:44:83994,-2,-15,3,7,18,2,2,9
15:05:44:92206,-2,-15,3,7,18,2,2,9
15:05:44:93000,8,8,-1,4,3,6,-4,-3
15:05:44:106563,3,4,7,7,11,1,1,-7
15:05:44:114707,3,4,7,7,11,1,1,-7
15:05:44:115540,2,15,-8,-12,13,9,5,-7
15:05:44:121519,-6,12,-4,-7,-16,-15,-13,-4
15:05:44:129092,-6,12,-4,-7,-16,-15,-13,-4
15:05:44:136598,-11,1,0,2,-6,0,-3,-5
15:05:44:144028,-9,21,14,-11,22,0,8,12
15:05:44:152339,-9,21,14,-11,22,0,8,12
15:05:44:153094,7,-14,0,23,7,9,4,4
15:05:44:166522,1,-5,-5,21,9,-2,0,-28
15:05:44:174728,1,-5,-5,21,9,-2,0,-28
15:05:44:175521,1,-7,-14,-27,-21,-13,-6,26
15:05:44:181492,-4,-4,-1,14,4,-3,-1,5
15:05:44:189103,-4,-4,-1,14,4,-3,-1,5
15:05:44:196525,0,-8,2,5,12,5,-3,-21
15:05:44:204079,2,14,1,-23,-43,-16,3,-1
15:05:44:212226,2,14,1,-23,-43,-16,3,-1
15:05:44:213004,-5,-19,-5,13,13,7,4,0
15:05:44:226570,-1,4,-6,-16,-4,11,1,-6
15:05:44:234761,-1,4,-6,-16,-4,11,1,-6
15:05:44:235591,-8,14,24,11,0,4,-1,9
15:05:44:241527,-6,-18,-1,1,-8,-11,-14,-44
15:05:44:249130,-6,-18,-1,1,-8,-11,-14,-44
15:05:44:256561,3,4,1,-8,-20,-12,-3,11
15:05:44:264032,5,30,12,-10,9,17,1,7
15:05:44:272245,5,30,12,-10,9,17,1,7
15:05:44:272986,1,-4,-4,0,-6,-3,-8,-31
15:05:44:295355,0,-13,-27,-1,-4,0,-2,0
15:05:44:296169,0,-13,-27,-1,-4,0,-2,0
15:05:44:297002,2,7,8,-16,-9,-3,1,3
15:05:44:309742,4,7,-1,-18,-6,-1,0,13
15:05:44:310583,4,7,-1,-18,-6,-1,0,13
15:05:44:316539,-13,-37,-20,-11,0,0,-1,-9
15:05:44:324015,-4,-15,1,-8,-6,-4,11,-3
15:05:44:332258,-4,-15,1,-8,-6,-4,11,-3
15:05:44:333092,9,19,-1,-2,-10,14,-5,4
15:05:44:346483,-7,-36,-1,7,-8,-15,1,-3
15:05:44:354773,-7,-36,-1,7,-8,-15,1,-3
15:05:44:355522,3,4,-25,0,32,9,-2,4
15:05:44:361521,-1,8,0,6,-4,0,-8,-11
15:05:44:369069,-1,8,0,6,-4,0,-8,-11
15:05:44:376514,-4,-6,3,9,-11,-10,3,-2
15:05:44:384035,5,3,15,-9,4,1,-5,-8
15:05:44:392217,5,3,15,-9,4,1,-5,-8
15:05:44:393019,0,12,4,-12,-11,-13,-7,-16
15:05:44:406518,-14,-54,3,4,22,18,1,12
15:05:44:414721,-14,-54,3,4,22,18,1,12
15:05:44:415558,3,-3,6,9,11,-10,3,-2
15:05:44:421566,7,20,-21,-10,-6,9,-15,-24
15:05:44:429142,7,20,-21,-10,-6,9,-15,-24
15:05:44:436539,13,-1,6,0,1,-9,-9,-4
15:05:44:444045,-12,-9,-7,-3,-9,-9,-8,5
15:05:44:459779,-12,-9,-7,-3,-9,-9,-8,5
15:05:44:460577,2,8,-7,-15,-22,3,3,-8
15:05:44:466493,7,21,4,2,9,12,11,22
15:05:44:474712,7,21,4,2,9,12,11,22
15:05:44:475571,-14,-27,8,4,-7,-7,-2,4
15:05:44:481497,1,2,-2,10,-5,-8,-5,-25
15:05:44:489062,1,2,-2,10,-5,-8,-5,-25
15:05:44:496554,5,5,28,7,17,13,19,8
15:05:44:504042,-6,8,7,11,-5,-29,-14,8
15:05:44:511564,-6,8,7,11,-5,-29,-14,8
15:05:44:519032,-8,-5,-9,-8,9,4,-4,-8
15:05:44:527227,1,-4,-16,-8,-11,1,3,5
15:05:44:528049,1,-4,-16,-8,-11,1,3,5
15:05:44:534024,7,10,-16,1,-14,-5,-3,7
15:05:44:549729,-6,-7,-21,-21,-10,-4,1,1
15:05:44:550565,-6,-7,-21,-21,-10,-4,1,1
15:05:44:572922,-2,4,4,-5,3,-2,-11,-7
15:05:44:573664,-1,7,13,11,20,15,3,-25
15:05:44:574562,-1,7,13,11,20,15,3,-25
15:05:44:579066,6,19,1,0,-18,-15,-5,-25
15:05:44:587218,19,8,-20,3,13,5,3,27
15:05:44:588036,19,8,-20,3,13,5,3,27
15:05:44:594056,-4,-5,-3,3,-1,21,6,-3
15:05:44:609747,0,4,5,-19,-28,-18,-5,-9
15:05:44:610569,0,4,5,-19,-28,-18,-5,-9
15:05:44:616543,-5,-10,-16,-3,2,5,-2,7
15:05:44:624011,-3,7,7,6,12,6,3,-2
15:05:44:631511,-3,7,7,6,12,6,3,-2
15:05:44:639026,-14,-11,0,2,-18,-14,5,25
15:05:44:647207,-3,1,10,-4,-12,3,-7,4
15:05:44:648005,-3,1,10,-4,-12,3,-7,4
15:05:44:654033,9,11,-4,-18,8,8,3,-4
15:05:44:677960,4,-17,-1,-4,-10,-19,-5,0
15:05:44:678758,4,-17,-1,-4,-10,-19,-5,0
15:05:44:679516,-9,-19,13,10,14,26,-6,11
15:05:44:684021,-9,-11,-24,35,21,8,9,13
15:05:44:691620,-9,-11,-24,35,21,8,9,13
15:05:44:699027,0,7,4,-26,-20,-21,-3,-14
15:05:44:707218,-9,0,14,-14,-11,1,-2,-8
15:05:44:708039,-9,0,14,-14,-11,1,-2,-8
15:05:44:714057,3,-2,-9,-4,6,-2,-21,-8
15:05:44:737917,6,13,12,3,5,5,2,0
15:05:44:738695,6,13,12,3,5,5,2,0
15:05:44:739508,4,1,6,0,-4,-9,2,5
15:05:44:744060,-4,2,11,-3,-1,-19,3,2
15:05:44:751632,-4,2,11,-3,-1,-19,3,2
15:05:44:758995,5,3,5,21,28,8,-6,-27
15:05:44:767189,0,5,-1,-4,-2,11,4,1
15:05:44:768034,0,5,-1,-4,-2,11,4,1
15:05:44:774031,4,2,5,10,-1,-1,14,-3
15:05:44:789778,-11,-9,8,-4,4,12,-13,-14
15:05:44:790522,-11,-9,8,-4,4,12,-13,-14
15:05:44:796540,-9,5,-9,0,26,-1,1,10
15:05:44:804063,-7,-39,-4,3,-15,-6,0,2
15:05:44:811545,-7,-39,-4,3,-15,-6,0,2
15:05:44:819022,3,-6,-19,-12,-4,-12,-1,9
15:05:44:827206,4,16,-11,-4,3,7,-2,5
15:05:44:827999,4,16,-11,-4,3,7,-2,5
15:05:44:834041,0,-7,-11,7,-17,-18,-5,13
15:05:44:849702,-10,10,2,2,-16,-13,-2,-7
15:05:44:850504,-10,10,2,2,-16,-13,-2,-7
15:05:44:856574,-13,3,-1,6,1,18,9,22
15:05:44:863995,19,24,2,4,6,0,4,45
15:05:44:871546,19,24,2,4,6,0,4,45
15:05:44:879024,-7,5,21,0,7,-9,-6,-12
15:05:44:887212,3,6,9,-17,5,2,6,-8
15:05:44:888050,3,6,9,-17,5,2,6,-8
15:05:44:901601,2,4,-2,0,4,12,2,10
15:05:44:909724,-2,-8,-12,-10,-6,-11,-8,-9
15:05:44:910526,-2,-8,-12,-10,-6,-11,-8,-9
15:05:44:916512,-2,1,0,-11,-8,-1,1,5
15:05:44:924005,-8,-4,-4,11,19,6,-2,1
15:05:44:931561,-8,-4,-4,11,19,6,-2,1
15:05:44:939049,-2,8,-10,-5,-28,-15,-12,-5
15:05:44:947247,2,11,3,12,18,9,5,2
15:05:44:948044,2,11,3,12,18,9,5,2
15:05:44:954013,-1,-11,8,-7,0,-2,-2,-14
15:05:44:969759,5,-4,5,4,-10,1,2,-9
15:05:44:970568,5,-4,5,4,-10,1,2,-9
15:05:44:976503,1,-18,-9,1,-14,-2,0,-10
15:05:44:984036,2,5,2,0,16,6,-3,-12
15:05:44:991585,2,5,2,0,16,6,-3,-12
15:05:45:7870,-4,-26,2,1,9,0,4,-4
15:05:45:8690,1,-3,3,-7,-6,-1,5,17
15:05:45:9531,1,-3,3,-7,-6,-1,5,17
15:05:45:14029,-4,1,-11,-11,-9,-7,-2,-3
15:05:45:29717,-6,-17,-6,-2,-15,-5,-3,19
15:05:45:30539,-6,-17,-6,-2,-15,-5,-3,19
15:05:45:36524,2,9,17,5,6,-4,2,4
15:05:45:44064,6,-3,-11,-6,14,2,3,-14
15:05:45:51595,6,-3,-11,-6,14,2,3,-14
15:05:45:59021,2,21,-10,-1,7,10,0,-7
15:05:45:67279,-3,-1,6,4,-15,-9,-3,0
15:05:45:68074,-3,-1,6,4,-15,-9,-3,0
15:05:45:74004,0,2,2,5,11,8,7,0
15:05:45:89762,-1,-2,-5,-1,-11,-3,-4,-6
15:05:45:90547,-1,-2,-5,-1,-11,-3,-4,-6
15:05:45:96501,-6,-11,-19,-2,-9,0,-5,-12
15:05:45:104072,-24,-13,-18,-9,0,-3,-3,10
15:05:45:111579,-24,-13,-18,-9,0,-3,-3,10
15:05:45:119038,14,7,24,13,0,-9,-7,15
15:05:45:127248,-23,-22,-18,-5,27,11,-6,-34
15:05:45:128127,-23,-22,-18,-5,27,11,-6,-34
15:05:45:134039,0,11,22,0,1,-7,3,-14
15:05:45:149795,8,12,6,-7,-17,-2,-3,1
15:05:45:150523,8,12,6,-7,-17,-2,-3,1
15:05:45:156558,6,5,2,7,8,8,8,-2
15:05:45:164011,10,8,-4,8,-8,-8,2,1
15:05:45:171607,10,8,-4,8,-8,-8,2,1
15:05:45:179041,-9,-9,-7,-6,2,5,-8,-30
15:05:45:187230,1,-1,7,-1,-1,-19,-19,0
15:05:45:188056,1,-1,7,-1,-1,-19,-19,0
15:05:45:194077,-12,-5,-18,-10,-6,3,1,-11
15:05:45:209685,9,-4,-1,-10,9,-7,3,-1
15:05:45:210517,9,-4,-1,-10,9,-7,3,-1
15:05:45:216504,3,6,1,-4,-5,-1,-5,8
15:05:45:224008,7,10,21,1,4,0,7,17
15:05:45:231540,7,10,21,1,4,0,7,17
15:05:45:239040,-5,-2,-1,-5,-26,-18,-6,5
15:05:45:247210,-3,-11,-13,13,20,22,7,-13
15:05:45:248011,-3,-11,-13,13,20,22,7,-13
15:05:45:254042,6,3,-22,-10,-10,-2,-3,1
15:05:45:269752,-10,-3,14,-2,-21,-5,9,1
15:05:45:270566,-10,-3,14,-2,-21,-5,9,1
15:05:45:276574,18,8,0,13,27,8,13,34
15:05:45:284078,5,0,8,-1,3,-16,-7,-20
15:05:45:291573,5,0,8,-1,3,-16,-7,-20
15:05:45:299098,-6,-17,5,5,2,10,8,11
15:05:45:307196,3,9,-9,-11,-40,9,-4,-8
15:05:45:308046,3,9,-9,-11,-40,9,-4,-8
15:05:45:314018,10,19,6,6,24,1,6,0
15:05:45:329706,-8,13,-11,-2,-2,-11,-4,0
15:05:45:330529,-8,13,-11,-2,-2,-11,-4,0
15:05:45:336512,0,0,3,3,-5,4,-4,-5
15:05:45:344035,9,8,-8,6,26,8,2,8
15:05:45:351598,9,8,-8,6,26,8,2,8
15:05:45:359024,-1,-8,0,-7,-36,-17,-3,37
15:05:45:367215,-11,-1,11,9,9,16,8,3
15:05:45:368036,-11,-1,11,9,9,16,8,3
15:05:45:374005,-16,4,-8,-8,-12,-9,-2,-13
15:05:45:389755,-3,-22,-28,-3,-18,-9,-7,1
15:05:45:390542,-3,-22,-28,-3,-18,-9,-7,1
15:05:45:396511,3,-2,5,7,14,17,1,-3
15:05:45:404073,-2,16,14,4,-19,-11,-7,10
15:05:45:411591,-2,16,14,4,-19,-11,-7,10
15:05:45:419022,-1,-10,-6,-8,0,11,-7,-15
15:05:45:427248,-8,-11,-4,-13,0,2,5,-6
15:05:45:428104,-8,-11,-4,-13,0,2,5,-6
15:05:45:434004,-11,-9,-2,-10,-18,-16,-6,-16
15:05:45:449752,4,7,3,4,7,4,7,-10
15:05:45:450541,4,7,3,4,7,4,7,-10
15:05:45:456529,5,11,3,-8,-5,-5,-15,-5
15:05:45:472245,-7,12,-16,-10,-9,-3,-1,-1
15:05:45:473066,-7,12,-16,-10,-9,-3,-1,-1
15:05:45:479039,-1,3,12,0,-1,-6,-3,1
15:05:45:487272,4,7,17,15,9,11,-2,-14
15:05:45:488099,4,7,17,15,9,11,-2,-14
15:05:45:501504,-17,-14,-13,7,25,3,4,-9
15:05:45:509710,2,-6,-10,-14,-11,-10,-21,-18
15:05:45:510569,2,-6,-10,-14,-11,-10,-21,-18
15:05:45:516509,-2,0,12,-1,-3,3,6,-10
15:05:45:532257,1,-32,-1,6,15,14,5,0
15:05:45:533045,1,-32,-1,6,15,14,5,0
15:05:45:539049,-12,-8,-10,-4,-10,-4,-1,4
15:05:45:547288,3,0,-15,-5,4,-20,-2,12
15:05:45:548050,3,0,-15,-5,4,-20,-2,12
15:05:45:561504,7,-8,-1,1,16,11,2,2
15:05:45:569745,-1,0,4,-8,-31,-6,2,13
15:05:45:570518,-1,0,4,-8,-31,-6,2,13
15:05:45:576511,0,8,9,11,14,10,-2,-3
15:05:45:592185,12,18,10,2,-2,-2,-2,-6
15:05:45:593035,12,18,10,2,-2,-2,-2,-6
15:05:45:599052,7,-7,-4,6,-9,-13,-11,6
15:05:45:607221,2,6,14,2,-1,2,2,5
15:05:45:608071,2,6,14,2,-1,2,2,5
15:05:45:621531,0,-7,-4,2,2,-13,-10,-2
15:05:45:629679,-5,15,0,2,8,-16,5,13
15:05:45:630511,-5,15,0,2,8,-16,5,13
15:05:45:636481,-3,-5,2,4,19,15,3,-10
15:05:45:652306,-5,-6,-17,-21,-25,-20,-5,-10
15:05:45:653086,-5,-6,-17,-21,-25,-20,-5,-10
15:05:45:659060,11,3,0,3,6,7,16,11
15:05:45:667225,-2,-27,-4,0,13,6,-5,-3
15:05:45:668050,-2,-27,-4,0,13,6,-5,-3
15:05:45:681545,-6,-22,-6,-14,-18,-7,-3,-11
15:05:45:689713,16,15,19,6,17,2,-6,-10
15:05:45:690504,16,15,19,6,17,2,-6,-10
15:05:45:696469,-7,5,-4,-6,-12,-8,-1,20
15:05:45:712151,-6,-1,16,19,-2,8,2,1
15:05:45:713002,-6,-1,16,19,-2,8,2,1
15:05:45:719040,2,8,23,7,-4,-2,3,4
15:05:45:727189,-1,-11,-27,-14,-18,-6,-9,-30
15:05:45:728039,-1,-11,-27,-14,-18,-6,-9,-30
15:05:45:741549,5,-3,-9,2,0,12,-2,2
15:05:45:749726,-9,10,12,5,-16,-8,0,-2
15:05:45:750534,-9,10,12,5,-16,-8,0,-2
15:05:45:756559,-15,-27,-16,-3,-8,0,-9,-39
15:05:45:772245,-9,12,6,4,25,19,11,-12
15:05:45:773001,-9,12,6,4,25,19,11,-12
15:05:45:779022,0,-1,-23,-11,-8,-12,-6,-25
15:05:45:787223,4,-5,-7,-3,-12,-7,3,2
15:05:45:788014,4,-5,-7,-3,-12,-7,3,2
15:05:45:801526,0,-5,-30,-14,5,-1,2,28
15:05:45:809704,0,-5,-30,-14,5,-1,2,28
15:05:45:810503,-3,-8,2,-7,-2,-1,-7,5
15:05:45:816568,11,28,19,2,-7,-12,-6,-2
15:05:45:832348,11,28,19,2,-7,-12,-6,-2
15:05:45:833073,-15,-11,6,9,29,5,6,14
15:05:45:839033,-12,-12,7,-12,-10,-5,-2,-15
15:05:45:846538,-12,-12,7,-12,-10,-5,-2,-15
15:05:45:854022,2,-11,-3,-6,12,5,-6,3
15:05:45:861559,4,3,6,1,-3,-5,17,-25
15:05:45:869716,4,3,6,1,-3,-5,17,-25
15:05:45:870511,8,12,2,6,1,13,12,18
15:05:45:876471,-7,-17,-3,-9,-5,-9,-11,-16
15:05:45:892195,-7,-17,-3,-9,-5,-9,-11,-16
15:05:45:893035,0,-5,-15,-11,-11,-10,-2,7
15:05:45:899054,-2,17,3,-3,-8,-1,-5,10
15:05:45:906583,-2,17,3,-3,-8,-1,-5,10
15:05:45:914038,2,-4,-1,-5,-5,6,-5,-2
15:05:45:921496,2,4,1,-1,13,0,0,19
15:05:45:929749,2,4,1,-1,13,0,0,19
15:05:45:930540,4,9,10,5,-16,-8,-4,4
15:05:45:936510,1,5,-9,4,-7,-2,-2,-6
15:05:45:952261,1,5,-9,4,-7,-2,-2,-6
15:05:45:953077,-2,-6,-1,-3,6,5,0,-5
15:05:45:959041,6,-7,-8,3,0,7,8,39
15:05:45:966619,6,-7,-8,3,0,7,8,39
15:05:45:974011,-2,11,4,-8,-24,1,-5,-7
15:05:45:981489,-11,6,14,17,13,13,4,8
15:05:45:989743,-11,6,14,17,13,13,4,8
15:05:45:990523,-2,1,-22,-8,2,-1,-4,32
15:05:45:996473,2,8,12,4,-1,3,0,-11
15:05:46:12255,2,8,12,4,-1,3,0,-11
15:05:46:13004,-4,3,9,9,-1,-11,1,-11
15:05:46:19048,7,6,-10,0,-5,0,-3,8
15:05:46:26575,7,6,-10,0,-5,0,-3,8
15:05:46:34048,-12,-30,-16,2,6,4,-6,-5
15:05:46:41519,1,0,-6,-3,15,-1,-2,-23
15:05:46:49783,1,0,-6,-3,15,-1,-2,-23
15:05:46:50555,-5,0,1,-9,-7,5,-3,-11
15:05:46:56519,5,-16,7,0,-4,-9,3,7
15:05:46:72265,5,-16,7,0,-4,-9,3,7
15:05:46:73050,-14,-16,-9,3,6,-14,-11,-49
15:05:46:79026,-5,2,7,1,-5,0,-5,0
15:05:46:86622,-5,2,7,1,-5,0,-5,0
15:05:46:94040,17,14,11,1,1,1,0,-2
15:05:46:101547,-5,-5,-18,-15,-13,-7,-1,3
15:05:46:109717,-5,-5,-18,-15,-13,-7,-1,3
15:05:46:110530,-3,-3,6,0,-7,-7,-3,-8
15:05:46:116538,8,-16,-5,5,13,11,7,4
15:05:46:132295,8,-16,-5,5,13,11,7,4
15:05:46:133067,9,0,3,10,10,-7,-4,2
15:05:46:139028,-17,1,-47,-14,-7,3,2,11
15:05:46:146535,-17,1,-47,-14,-7,3,2,11
15:05:46:154032,-2,-10,1,7,9,11,4,13
15:05:46:161525,-4,0,-3,15,3,-7,-6,-25
15:05:46:169752,-4,0,-3,15,3,-7,-6,-25
15:05:46:170532,-9,-15,-9,-9,-26,-4,-5,-2
15:05:46:176458,4,10,12,6,3,5,-6,3
15:05:46:192217,4,10,12,6,3,5,-6,3
15:05:46:193052,0,8,7,5,3,2,11,-2
15:05:46:207166,9,-10,-1,-15,-9,-5,-5,-2
15:05:46:208037,9,-10,-1,-15,-9,-5,-5,-2
15:05:46:214005,2,-3,-4,-8,-1,-1,3,22
15:05:46:221527,-3,6,24,13,9,2,1,3
15:05:46:229685,-3,6,24,13,9,2,1,3
15:05:46:230477,0,3,-13,-22,-8,-25,-1,-1
15:05:46:236550,2,25,18,13,31,13,-2,-1
15:05:46:252231,2,25,18,13,31,13,-2,-1
15:05:46:253032,-22,-19,-19,-8,-19,0,0,-8
15:05:46:259044,-13,-11,-9,-13,-11,-7,1,0
15:05:46:267207,-13,-11,-9,-13,-11,-7,1,0
15:05:46:268015,7,4,-14,6,6,0,-1,-8
15:05:46:281496,-1,-14,4,-8,-12,0,-3,-10
15:05:46:289729,-1,-14,4,-8,-12,0,-3,-10
15:05:46:290481,6,6,35,9,5,4,1,2
15:05:46:296534,-2,2,-2,-9,-13,-14,-22,-17
15:05:46:312243,-2,2,-2,-9,-13,-14,-22,-17
15:05:46:313027,-2,-3,5,3,26,14,14,11
15:05:46:319024,2,4,-10,-9,-9,-9,6,-6
15:05:46:327209,2,4,-10,-9,-9,-9,6,-6
15:05:46:328018,6,5,-9,-6,-9,-3,-3,26
15:05:46:341512,-2,-13,15,3,17,2,3,29
15:05:46:349772,-2,-13,15,3,17,2,3,29
15:05:46:350528,15,12,7,-12,-8,10,1,0
15:05:46:356528,-5,6,-9,-4,-13,-10,4,7
15:05:46:372271,-5,6,-9,-4,-13,-10,4,7
15:05:46:373068,1,6,-5,0,0,-2,-4,-3
15:05:46:379038,-14,-3,-6,6,8,10,-5,-27
15:05:46:387276,-14,-3,-6,6,8,10,-5,-27
15:05:46:388070,-8,-6,-4,-5,-13,-2,-13,-26
15:05:46:401543,-1,-11,-24,-1,2,-1,1,12
15:05:46:409741,-1,-11,-24,-1,2,-1,1,12
15:05:46:410557,1,13,7,6,0,-11,-8,-22
15:05:46:424047,4,-12,22,4,-4,-1,2,-17
15:05:46:432236,4,-12,22,4,-4,-1,2,-17
15:05:46:433050,-1,4,9,6,12,-1,-6,-2
15:05:46:439081,8,9,3,-3,-9,3,5,1
15:05:46:446604,8,9,3,-3,-9,3,5,1
15:05:46:454061,-6,3,-6,2,5,2,-1,-1
15:05:46:461561,-5,8,18,0,-14,-6,-4,-4
15:05:46:469790,-5,8,18,0,-14,-6,-4,-4
15:05:46:470574,3,-8,-19,-9,4,3,4,-20
15:05:46:484069,0,-18,-22,-19,-18,-5,-13,-9
15:05:46:492238,0,-18,-22,-19,-18,-5,-13,-9
15:05:46:493039,-4,-13,-23,0,-13,14,0,13
15:05:46:499066,0,7,10,10,5,-4,1,1
15:05:46:506618,0,7,10,10,5,-4,1,1
15:05:46:514045,4,18,14,0,-16,-36,-5,7
15:05:46:521564,-8,-2,-10,-7,11,20,9,6
15:05:46:529732,-8,-2,-10,-7,11,20,9,6
15:05:46:530531,-5,-2,0,4,16,14,13,14
15:05:46:544127,4,-20,-31,-7,-14,-16,-10,0
15:05:46:552225,4,-20,-31,-7,-14,-16,-10,0
15:05:46:553089,-7,-4,-1,6,-4,-8,-8,-18
15:05:46:559009,-9,7,19,9,11,6,3,17
15:05:46:566536,-9,7,19,9,11,6,3,17
15:05:46:574044,-4,-8,-34,-17,-1,-6,-8,9
15:05:46:581534,2,3,-1,15,20,10,8,1
15:05:46:589710,2,3,-1,15,20,10,8,1
15:05:46:590519,2,5,18,9,-9,-2,5,11
15:05:46:604119,-11,-3,-14,-23,-28,-13,-2,8
15:05:46:612209,-11,-3,-14,-23,-28,-13,-2,8
15:05:46:613008,-3,-5,14,1,6,8,0,-9
15:05:46:619019,6,-4,14,-9,-4,-14,2,-11
15:05:46:626561,6,-4,14,-9,-4,-14,2,-11
15:05:46:634019,-5,-11,-15,-7,4,4,2,6
15:05:46:641472,9,7,-15,-3,-1,-2,2,-6
15:05:46:649721,9,7,-15,-3,-1,-2,2,-6
15:05:46:650498,-2,-2,12,-5,2,6,-4,-4
15:05:46:664056,6,-7,2,4,-9,-7,3,5
15:05:46:672229,6,-7,2,4,-9,-7,3,5
15:05:46:673008,8,9,0,11,9,7,9,-2
15:05:46:679020,-22,4,7,-5,-12,-10,-13,-26
15:05:46:686549,-22,4,7,-5,-12,-10,-13,-26
15:05:46:694041,-1,-12,-23,-3,1,3,-1,9
15:05:46:701513,1,5,-5,9,-2,0,-6,0
15:05:46:709712,1,5,-5,9,-2,0,-6,0
15:05:46:710555,4,16,12,-12,4,-2,4,5
15:05:46:724036,8,6,18,6,8,8,3,5
15:05:46:732254,8,6,18,6,8,8,3,5
15:05:46:733032,-10,-6,25,6,-14,-4,-4,-2
15:05:46:739051,1,11,0,-8,-6,-5,-4,4
15:05:46:746582,1,11,0,-8,-6,-5,-4,4
15:05:46:754145,2,-17,-6,5,2,3,-2,1
15:05:46:761557,2,3,4,-1,-5,-11,-4,0
15:05:46:769765,2,3,4,-1,-5,-11,-4,0
15:05:46:770507,-1,3,-8,-10,-3,-1,1,-4
15:05:46:784033,3,-18,7,15,19,4,-6,-19
15:05:46:792219,3,-18,7,15,19,4,-6,-19
15:05:46:793050,-1,0,-18,-4,-15,1,3,7
15:05:46:799017,10,9,4,8,0,-4,0,-1
15:05:46:806618,10,9,4,8,0,-4,0,-1
15:05:46:814041,-5,-11,13,3,-1,-19,-17,-9
15:05:46:821544,-1,-6,0,-2,19,15,4,5
15:05:46:829718,-1,-6,0,-2,19,15,4,5
15:05:46:830514,3,3,-1,-4,-35,-23,-3,7
15:05:46:844057,-9,-5,1,1,12,2,8,4
15:05:46:852184,-9,-5,1,1,12,2,8,4
15:05:46:853016,-5,28,12,10,9,5,-1,-18
15:05:46:859023,3,-10,-5,-8,-8,-8,1,5
15:05:46:866558,3,-10,-5,-8,-8,-8,1,5
15:05:46:874023,10,-16,-14,7,5,12,-2,-10
15:05:46:881522,-22,-7,3,6,-1,5,-4,-6
15:05:46:889726,-22,-7,3,6,-1,5,-4,-6
15:05:46:890493,-3,-15,-7,-11,-8,0,3,0
15:05:46:904063,3,-1,-3,2,2,8,-3,1
15:05:46:912187,3,-1,-3,2,2,8,-3,1
15:05:46:913015,-4,-2,-9,-7,7,1,1,-2
15:05:46:919053,4,5,1,-7,-5,-5,-3,20
15:05:46:926583,4,5,1,-7,-5,-5,-3,20
15:05:46:934027,-13,-3,1,7,5,12,0,-5
15:05:46:941502,-5,10,3,-7,-15,-12,0,-32
15:05:46:949746,-5,10,3,-7,-15,-12,0,-32
15:05:46:950513,2,-21,-15,-9,-5,-9,-6,11
15:05:46:964023,-6,-19,-21,0,4,11,-13,-15
15:05:46:972231,-6,-19,-21,0,4,11,-13,-15
15:05:46:973012,-1,3,7,2,16,6,11,3
15:05:46:979043,6,8,-1,-9,-9,-5,2,-13
15:05:46:986584,6,8,-1,-9,-9,-5,2,-13
15:05:46:994031,0,3,5,2,2,-5,-8,-2
15:05:47:1520,-1,2,-10,-15,-4,-6,-1,6
15:05:47:9732,-1,2,-10,-15,-4,-6,-1,6
15:05:47:10547,2,10,3,5,1,0,3,6
15:05:47:24031,-15,1,5,6,4,11,-4,1
15:05:47:32274,-15,1,5,6,4,11,-4,1
15:05:47:33038,-10,-2,7,-2,8,-3,-11,8
15:05:47:39075,2,-24,-7,-13,-22,-25,1,11
15:05:47:46564,2,-24,-7,-13,-22,-25,1,11
15:05:47:54055,6,11,-6,7,16,14,-4,-28
15:05:47:61516,1,12,-9,-8,-4,2,4,0
15:05:47:69719,1,12,-9,-8,-4,2,4,0
15:05:47:70519,11,3,-4,16,6,4,6,16
15:05:47:84058,3,3,-5,6,10,1,-9,-17
15:05:47:92267,3,3,-5,6,10,1,-9,-17
15:05:47:93045,5,-5,-11,-13,-14,-9,-4,10
15:05:47:99055,-5,-5,0,0,4,5,-2,2
15:05:47:106591,-5,-5,0,0,4,5,-2,2
15:05:47:114068,-8,-11,11,-5,-7,-4,-3,-4
15:05:47:121539,2,1,-1,-5,-14,-5,-2,8
15:05:47:129707,2,1,-1,-5,-14,-5,-2,8
15:05:47:130478,3,5,-6,0,2,-8,-3,1
15:05:47:144072,3,5,17,8,-2,18,12,33
15:05:47:152242,3,5,17,8,-2,18,12,33
15:05:47:153084,-4,19,4,4,-3,-1,-2,-2
15:05:47:159024,4,-12,10,4,3,11,22,9
15:05:47:166572,4,-12,10,4,3,11,22,9
15:05:47:174032,-13,-13,0,-13,-8,-4,-1,1
15:05:47:181515,4,13,-13,-8,-14,-15,2,12
15:05:47:189745,4,13,-13,-8,-14,-15,2,12
15:05:47:190505,-2,-8,3,2,12,10,12,0
15:05:47:204138,2,1,-13,-13,4,-3,-13,-9
15:05:47:212240,2,1,-13,-13,4,-3,-13,-9
15:05:47:213006,1,0,-5,2,7,0,-6,-9
15:05:47:219040,3,1,5,10,6,-5,-10,-1
15:05:47:226583,3,1,5,10,6,-5,-10,-1
15:05:47:234032,0,-6,-3,-4,-11,-6,-5,-9
15:05:47:241512,-5,-1,-12,-4,-6,-4,-9,-2
15:05:47:249746,-5,-1,-12,-4,-6,-4,-9,-2
15:05:47:250517,-4,-5,-11,4,10,6,-2,-26
15:05:47:264026,-9,4,5,16,9,-1,-7,-13
15:05:47:272268,-9,4,5,16,9,-1,-7,-13
15:05:47:273074,-4,19,14,-7,-11,-8,4,10
15:05:47:279062,2,2,12,-8,-11,-12,-5,-6
15:05:47:286623,2,2,12,-8,-11,-12,-5,-6
15:05:47:294063,-1,13,5,3,19,8,7,7
15:05:47:301527,1,5,16,9,26,9,3,2
15:05:47:309718,1,5,16,9,26,9,3,2
15:05:47:310558,-4,-2,7,-13,-14,-3,-5,-4
15:05:47:324041,1,0,-1,12,-3,5,0,-30
15:05:47:332253,1,0,-1,12,-3,5,0,-30
15:05:47:333033,6,-7,-7,-9,-11,-5,-3,18
15:05:47:339034,-2,4,-8,1,1,4,-15,-1
15:05:47:346594,-2,4,-8,1,1,4,-15,-1
15:05:47:354056,2,-31,-1,-2,-9,-11,-1,11
15:05:47:361533,-7,-17,-20,-13,2,4,-1,-4
15:05:47:369130,-7,-17,-20,-13,2,4,-1,-4
15:05:47:376527,-3,-22,-8,-6,-2,-4,-10,-27
15:05:47:384004,14,-6,8,-4,-11,-11,5,3
15:05:47:392219,14,-6,8,-4,-11,-11,5,3
15:05:47:393051,6,20,-1,0,-7,3,8,6
15:05:47:407225,-7,-5,-3,2,3,13,19,-4
15:05:47:408060,-7,-5,-3,2,3,13,19,-4
15:05:47:414016,3,9,0,-7,-7,-3,-7,8
15:05:47:421518,0,5,5,8,11,-1,10,-19
15:05:47:429025,0,5,5,8,11,-1,10,-19
15:05:47:436525,-8,0,20,10,7,6,0,1
15:05:47:444055,10,5,1,0,-8,-9,-1,-5
15:05:47:452210,10,5,1,0,-8,-9,-1,-5
15:05:47:453093,-1,11,-2,-6,18,4,-1,-11
15:05:47:467242,0,-6,-13,-7,-16,0,39,-1
15:05:47:468099,0,-6,-13,-7,-16,0,39,-1
15:05:47:474038,2,-8,11,9,4,0,20,13
15:05:47:481479,0,-20,-31,-18,-22,-5,-17,23
15:05:47:489109,0,-20,-31,-18,-22,-5,-17,23
15:05:47:496493,-4,-8,-23,-2,1,-11,-6,-4
15:05:47:504052,-1,3,-2,-9,-5,-4,-1,13
15:05:47:512275,-1,3,-2,-9,-5,-4,-1,13
15:05:47:513040,-5,9,-23,-10,4,5,-4,-4
15:05:47:527234,-6,5,-2,0,-4,2,-2,3
15:05:47:528076,-6,5,-2,0,-4,2,-2,3
15:05:47:534039,5,-6,6,15,0,0,2,24
15:05:47:541526,-14,-7,-16,-2,-9,-10,-21,12
15:05:47:549098,-14,-7,-16,-2,-9,-10,-21,12
15:05:47:556550,-15,-18,-6,0,-13,-3,-2,6
15:05:47:564065,-7,6,3,-4,13,5,0,-17
15:05:47:572284,-7,6,3,-4,13,5,0,-17
15:05:47:573050,7,10,0,-2,2,24,0,-9
15:05:47:587335,-22,-16,15,8,6,-6,1,8
15:05:47:588033,-22,-16,15,8,6,-6,1,8
15:05:47:594068,-8,-5,-1,-9,-24,-12,-10,-10
15:05:47:601523,10,14,16,1,6,-1,-5,-4
15:05:47:609100,10,14,16,1,6,-1,-5,-4
15:05:47:616504,-1,10,-8,-2,-8,-7,-6,-9
15:05:47:624069,4,12,11,-1,8,6,-8,3
15:05:47:632225,4,12,11,-1,8,6,-8,3
15:05:47:633039,-2,-2,3,4,3,-3,-2,-4
15:05:47:647215,2,-10,9,3,-14,-9,-3,-8
15:05:47:648047,2,-10,9,3,-14,-9,-3,-8
15:05:47:654039,-1,1,1,2,14,-3,4,10
15:05:47:661508,10,0,-2,-3,12,11,7,5
15:05:47:669060,10,0,-2,-3,12,11,7,5
15:05:47:676568,11,1,-16,-5,-11,-13,6,-11
15:05:47:684034,-13,2,10,4,3,9,20,-16
15:05:47:692225,-13,2,10,4,3,9,20,-16
15:05:47:693022,2,-10,14,-2,-4,-4,-8,1
15:05:47:707148,-1,-8,-10,3,7,-2,-3,5
15:05:47:708038,-1,-8,-10,3,7,-2,-3,5
15:05:47:714019,3,0,-7,1,9,3,-2,1
15:05:47:721574,-6,-8,-5,-2,-22,-12,-15,-5
15:05:47:729042,-6,-8,-5,-2,-22,-12,-15,-5
15:05:47:736510,3,9,2,-4,-4,-3,-2,14
15:05:47:744045,0,5,-14,-7,7,-10,-8,-6
15:05:47:752281,0,5,-14,-7,7,-10,-8,-6
15:05:47:753069,-6,7,19,9,-4,0,-1,-8
15:05:47:767174,11,5,-6,-14,-1,-4,-13,-14
15:05:47:768043,11,5,-6,-14,-1,-4,-13,-14
15:05:47:774022,8,-7,-20,-7,9,12,-4,-22
15:05:47:781481,-18,-5,-2,-4,-11,-11,-4,-9
15:05:47:789076,-18,-5,-2,-4,-11,-11,-4,-9
15:05:47:796488,-5,-9,-14,0,-1,-1,-23,-18
15:05:47:804052,8,-8,-9,3,5,0,-9,0
15:05:47:812209,8,-8,-9,3,5,0,-9,0
15:05:47:813007,-4,2,12,3,-15,-9,8,3
15:05:47:827233,1,22,7,-4,6,15,6,13
15:05:47:828072,1,22,7,-4,6,15,6,13
15:05:47:834070,-2,-31,-15,-12,2,4,3,2
15:05:47:841533,-5,4,21,1,4,3,3,8
15:05:47:849090,-5,4,21,1,4,3,3,8
15:05:47:856555,-1,8,0,-6,-11,-8,-1,8
15:05:47:864026,4,1,-3,-4,-20,-15,4,6
15:05:47:872274,4,1,-3,-4,-20,-15,4,6
15:05:47:873045,-14,19,10,10,24,10,16,3
15:05:47:887274,2,-7,-29,0,1,-12,-16,-10
15:05:47:888052,2,-7,-29,0,1,-12,-16,-10
15:05:47:894059,-15,-25,-4,0,-7,5,2,-6
15:05:47:901540,3,12,12,7,-16,-6,-10,-9
15:05:47:909078,3,12,12,7,-16,-6,-10,-9
15:05:47:916541,8,13,-19,1,20,3,-13,7
15:05:47:924031,1,0,11,1,-7,3,3,14
15:05:47:932251,1,0,11,1,-7,3,3,14
15:05:47:933067,-2,-10,9,-6,-11,-10,-9,-8
15:05:47:947205,6,6,6,-3,-7,1,6,-5
15:05:47:948037,6,6,6,-3,-7,1,6,-5
15:05:47:954060,-1,1,-1,-10,-4,-5,-1,-1
15:05:47:961535,-7,-8,-29,-6,15,8,-2,-1
15:05:47:969056,-7,-8,-29,-6,15,8,-2,-1
15:05:47:976528,-12,7,0,20,17,8,4,-23
15:05:47:984040,-11,-7,-14,1,12,9,18,22
15:05:47:992174,-11,-7,-14,1,12,9,18,22
15:05:47:993009,-1,2,15,-11,-23,-5,-5,0
15:05:48:7137,5,-4,29,9,16,15,-2,-4
15:05:48:8036,5,-4,29,9,16,15,-2,-4
15:05:48:22202,3,2,14,3,-3,-2,6,6
15:05:48:23033,-1,-4,-1,-5,-6,-13,-8,-3
15:05:48:29115,-1,-4,-1,-5,-6,-13,-8,-3
15:05:48:36554,10,5,-9,-7,-4,0,0,16
15:05:48:44048,3,-2,1,3,0,3,9,-1
15:05:48:52222,3,-2,1,3,0,3,9,-1
15:05:48:53038,3,-23,-5,3,0,-3,-2,24
15:05:48:67230,-11,10,0,-11,-25,9,3,-14
15:05:48:68017,-11,10,0,-11,-25,9,3,-14
15:05:48:74056,-2,20,10,8,4,-3,0,1
15:05:48:81536,0,-2,0,5,-1,-11,-8,-5
15:05:48:89079,0,-2,0,5,-1,-11,-8,-5
15:05:48:96588,-2,0,0,4,0,3,6,-15
15:05:48:104088,-2,-4,-18,-3,-5,-5,14,7
15:05:48:112211,-2,-4,-18,-3,-5,-5,14,7
15:05:48:113044,0,-6,6,4,1,0,2,-16
15:05:48:127204,2,-4,-9,0,10,11,11,-9
15:05:48:128080,2,-4,-9,0,10,11,11,-9
15:05:48:134060,-2,-19,-10,-3,-6,-9,-8,-24
15:05:48:141562,0,8,12,7,16,14,3,13
15:05:48:149042,0,8,12,7,16,14,3,13
15:05:48:156520,-3,-30,5,-5,-9,-24,-13,5
15:05:48:164030,-8,-4,-1,9,0,0,4,-14
15:05:48:172247,-8,-4,-1,9,0,0,4,-14
15:05:48:173084,2,7,-5,-8,-2,0,-6,9
15:05:48:187279,4,-8,-16,-19,-16,-6,4,6
15:05:48:188056,4,-8,-16,-19,-16,-6,4,6
15:05:48:194058,-1,0,2,-2,5,0,3,-17
15:05:48:201534,8,4,-1,9,3,-6,-19,1
15:05:48:209069,8,4,-1,9,3,-6,-19,1
15:05:48:216530,-7,0,6,-1,-16,33,5,14
15:05:48:224011,-1,3,26,15,22,-5,-11,15
15:05:48:232233,-1,3,26,15,22,-5,-11,15
15:05:48:233015,0,8,-26,-10,-3,1,-2,7
15:05:48:247194,0,-2,-14,-14,-7,-10,-17,-15
15:05:48:248022,0,-2,-14,-14,-7,-10,-17,-15
15:05:48:254033,-4,-4,5,0,-2,-6,-1,-3
15:05:48:261502,12,-13,8,1,-2,-9,-15,-1
15:05:48:269092,12,-13,8,1,-2,-9,-15,-1
15:05:48:276536,0,15,-3,-1,-1,7,1,-5
15:05:48:284039,9,17,12,-8,-19,-10,-12,-16
15:05:48:292224,9,17,12,-8,-19,-10,-12,-16
15:05:48:293027,-5,-13,-29,1,23,5,1,-3
15:05:48:307218,-15,1,-17,2,3,9,1,-14
15:05:48:308009,-15,1,-17,2,3,9,1,-14
15:05:48:314032,8,20,13,1,-14,-20,-3,-1
15:05:48:329734,-7,-21,-9,1,7,2,-5,-7
15:05:48:330562,-7,-21,-9,1,7,2,-5,-7
15:05:48:336533,3,-7,-8,-10,7,6,5,23
15:05:48:344067,-3,7,-4,-13,-10,-9,-3,10
15:05:48:351626,-3,7,-4,-13,-10,-9,-3,10
15:05:48:359037,3,-7,-2,-6,-15,2,3,-8
15:05:48:367185,-6,-13,14,0,1,10,3,6
15:05:48:368025,-6,-13,14,0,1,10,3,6
15:05:48:374019,-4,-9,-9,1,-11,2,2,-3
15:05:48:389735,0,5,9,4,-6,-2,13,-3
15:05:48:390551,0,5,9,4,-6,-2,13,-3
15:05:48:396529,1,4,-1,-3,-1,-12,-11,4
15:05:48:404145,2,-6,-4,14,17,11,4,8
15:05:48:411614,2,-6,-4,14,17,11,4,8
15:05:48:419107,4,10,12,6,0,-7,15,7
15:05:48:427155,-2,13,-2,-8,-9,-5,-10,-14
15:05:48:428045,-2,13,-2,-8,-9,-5,-10,-14
15:05:48:434047,13,-25,-20,-9,5,-9,-23,-10
15:05:48:449703,-9,-19,-25,-14,6,6,14,3
15:05:48:450463,-9,-19,-25,-14,6,6,14,3
15:05:48:456570,-16,21,25,10,0,5,20,16
15:05:48:464088,-8,-2,-16,-7,-26,-16,-12,-9
15:05:48:471556,-8,-2,-16,-7,-26,-16,-12,-9
15:05:48:479056,-5,-1,3,-6,-7,-1,-4,2
15:05:48:487227,-4,0,10,3,7,-1,-9,10
15:05:48:488113,-4,0,10,3,7,-1,-9,10
15:05:48:494045,-11,-6,-11,-6,-8,-21,2,-15
15:05:48:509736,0,-17,-2,-3,21,6,3,8
15:05:48:510541,0,-17,-2,-3,21,6,3,8
15:05:48:516517,-5,5,11,-2,0,-2,-11,0
15:05:48:524036,5,11,5,-5,-1,0,-9,1
15:05:48:531550,5,11,5,-5,-1,0,-9,1
15:05:48:539054,-6,-3,-2,1,-3,5,-4,1
15:05:48:547177,5,8,23,15,-2,-11,-3,4
15:05:48:548022,5,8,23,15,-2,-11,-3,4
15:05:48:554063,8,-12,-9,0,-8,-2,-4,11
15:05:48:569731,0,-3,6,10,2,-11,-15,-18
15:05:48:570511,0,-3,6,10,2,-11,-15,-18
15:05:48:576502,8,17,8,6,18,10,4,-13
15:05:48:584056,-8,-5,-24,-15,-10,-13,-5,-12
15:05:48:591560,-8,-5,-24,-15,-10,-13,-5,-12
15:05:48:599058,-9,-5,8,0,-2,5,-4,-24
15:05:48:607240,-5,13,2,3,-4,-2,10,12
15:05:48:608060,-5,13,2,3,-4,-2,10,12
15:05:48:614065,0,-9,-17,-9,12,4,3,5
15:05:48:629749,0,4,7,-8,4,14,-1,6
15:05:48:630575,0,4,7,-8,4,14,-1,6
15:05:48:636490,-2,8,-5,-1,-14,-19,-11,-7
15:05:48:644061,2,-9,18,-4,-3,6,2,-15
15:05:48:651578,2,-9,18,-4,-3,6,2,-15
15:05:48:659057,17,12,4,4,1,11,13,-31
15:05:48:667812,-6,0,-13,6,1,7,8,-1
15:05:48:668645,-6,0,-13,6,1,7,8,-1
15:05:48:674035,2,-1,-5,-1,-4,1,-4,2
15:05:48:689710,-5,-1,8,-2,-6,-6,4,-3
15:05:48:690547,-5,-1,8,-2,-6,-6,4,-3
15:05:48:696529,2,13,17,2,-4,-10,-7,0
15:05:48:704087,3,-4,12,-5,15,-1,-2,-7
15:05:48:711587,3,-4,12,-5,15,-1,-2,-7
15:05:48:719092,-9,-11,-7,13,18,16,6,23
15:05:48:727199,-5,-21,-9,-4,-18,-8,0,23
15:05:48:728078,-5,-21,-9,-4,-18,-8,0,23
15:05:48:733967,-2,-6,5,-1,-17,-16,-1,-22
15:05:48:749753,-12,-9,-19,-3,1,-4,1,-9
15:05:48:750491,-12,-9,-19,-3,1,-4,1,-9
15:05:48:756512,-1,-2,-5,-5,1,-2,7,13
15:05:48:764033,7,-2,-1,4,1,1,-6,-2
15:05:48:771572,7,-2,-1,4,1,1,-6,-2
15:05:48:778992,-7,1,-28,-2,1,-21,-8,-13
15:05:48:787244,6,8,14,5,10,9,4,3
15:05:48:788047,6,8,14,5,10,9,4,3
15:05:48:794089,-10,-9,15,-4,1,-3,-20,-43
15:05:48:809729,7,13,13,-3,-7,1,-11,-14
15:05:48:810548,7,13,13,-3,-7,1,-11,-14
15:05:48:816476,1,12,12,-2,-24,-4,-13,-19
15:05:48:823963,16,26,1,-4,4,6,5,17
15:05:48:831555,16,26,1,-4,4,6,5,17
15:05:48:839044,5,16,5,-2,3,-1,0,22
15:05:48:847183,2,-3,-4,1,-6,0,1,10
15:05:48:848041,2,-3,-4,1,-6,0,1,10
15:05:48:854030,-4,-12,-22,8,10,12,11,30
15:05:48:877840,-6,-2,-18,-10,-15,-15,-18,-21
15:05:48:878664,-6,-2,-18,-10,-15,-15,-18,-21
15:05:48:879487,-3,-12,5,-1,5,7,-2,-14
15:05:48:884045,-3,-3,-7,5,0,-2,13,29
15:05:48:891534,-3,-3,-7,5,0,-2,13,29
15:05:48:899048,-10,-7,11,-7,-18,-2,1,-1
15:05:48:907196,-11,-17,-47,-12,-3,4,-2,-17
15:05:48:908064,-11,-17,-47,-12,-3,4,-2,-17
15:05:48:914026,12,11,-6,-13,-4,-4,3,14
15:05:48:929686,1,-4,14,8,7,-7,9,3
15:05:48:930503,1,-4,14,8,7,-7,9,3
15:05:48:936503,-5,-6,2,0,12,9,-2,-1
15:05:48:943982,8,10,-17,-2,-1,-2,4,11
15:05:48:951532,8,10,-17,-2,-1,-2,4,11
15:05:48:959053,-1,9,15,8,-1,-1,4,4
15:05:48:967245,-2,-2,10,7,6,14,-4,4
15:05:48:968061,-2,-2,10,7,6,14,-4,4
15:05:48:974031,5,-5,-10,9,18,13,7,29
15:05:48:989731,7,-7,-5,-11,-22,-14,-10,-13
15:05:48:990517,7,-7,-5,-11,-22,-14,-10,-13
15:05:48:996499,-7,-1,8,-3,4,-5,-12,-21
15:05:49:4080,-4,-11,-2,-2,3,-2,7,4
15:05:49:11573,-4,-11,-2,-2,3,-2,7,4
15:05:49:19123,-9,-16,-15,0,-9,-7,4,-9
15:05:49:27291,3,4,17,5,-4,-3,-6,-3
15:05:49:28086,3,4,17,5,-4,-3,-6,-3
15:05:49:34141,-4,1,-5,-5,4,8,-3,11
15:05:49:49790,-2,-2,15,-1,9,1,0,-14
15:05:49:50587,-2,-2,15,-1,9,1,0,-14
15:05:49:56548,-6,-6,-20,-20,6,8,10,8
15:05:49:64043,1,15,5,-3,-15,-10,2,-7
15:05:49:71599,1,15,5,-3,-15,-10,2,-7
15:05:49:79064,7,3,-18,1,-7,-3,-2,-18
15:05:49:87183,-18,-15,-5,-6,-8,-10,-25,-3
15:05:49:88054,-18,-15,-5,-6,-8,-10,-25,-3
15:05:49:94045,-13,-13,-6,-3,-8,-7,-7,-12
15:05:49:109759,-5,-9,4,2,14,9,11,-14
15:05:49:110533,-5,-9,4,2,14,9,11,-14
15:05:49:116513,2,-15,32,6,-3,-7,-6,-5
15:05:49:124045,-10,-14,3,0,-20,-15,-8,34
15:05:49:131545,-10,-14,3,0,-20,-15,-8,34
15:05:49:139076,13,18,8,5,25,13,11,13
15:05:49:147206,13,18,8,5,25,13,11,13
15:05:49:148039,7,12,8,-3,-7,5,0,-9
15:05:49:154037,-1,-3,-28,-1,-14,-11,-2,1
15:05:49:169820,-1,-3,-28,-1,-14,-11,-2,1
15:05:49:170594,0,15,-21,1,10,16,5,12
15:05:49:176522,-13,11,-7,-4,-3,-4,-17,-55
15:05:49:192217,-13,11,-7,-4,-3,-4,-17,-55
15:05:49:193066,7,-3,4,0,-3,-7,14,2
15:05:49:199071,6,-7,4,2,6,-2,-5,20
15:05:49:207190,6,-7,4,2,6,-2,-5,20
15:05:49:208091,-1,9,1,3,2,2,-2,10
15:05:49:214058,8,-1,-2,-6,-11,-9,7,25
15:05:49:229684,8,-1,-2,-6,-11,-9,7,25
15:05:49:230524,-5,-5,-15,7,14,-2,3,13
15:05:49:236546,-3,2,17,8,4,1,2,9
15:05:49:252266,-3,2,17,8,4,1,2,9
15:05:49:253067,-7,-6,-1,-2,5,1,14,-4
15:05:49:259037,-7,-2,1,-10,-9,-8,-11,-27
15:05:49:274771,-7,-2,1,-10,-9,-8,-11,-27
15:05:49:275528,8,21,9,4,7,7,25,7
15:05:49:281509,0,-10,12,0,0,8,3,-3
15:05:49:289770,0,-10,12,0,0,8,3,-3
15:05:49:290556,-8,-11,16,-2,-18,-14,-15,-15
15:05:49:296498,4,12,-6,-1,9,6,5,13
15:05:49:312295,4,12,-6,-1,9,6,5,13
15:05:49:313055,10,-2,5,3,-1,-2,-15,-17
15:05:49:319034,1,-4,9,14,6,10,0,-8
15:05:49:327241,1,-4,9,14,6,10,0,-8
15:05:49:328066,-6,-4,-8,-2,3,2,-5,-11
15:05:49:341531,-3,-9,-21,-7,-8,-11,0,18
15:05:49:349806,-3,-9,-21,-7,-8,-11,0,18
15:05:49:350603,-1,-9,-14,-2,-5,1,3,-1
15:05:49:363959,-9,-11,-15,3,-6,-10,-3,-5
15:05:49:372266,-9,-11,-15,3,-6,-10,-3,-5
15:05:49:373062,-6,-18,5,0,20,6,-4,-19
15:05:49:379065,-7,5,11,-8,-19,-10,-1,11
15:05:49:387270,-7,5,11,-8,-19,-10,-1,11
15:05:49:388034,-2,0,2,0,1,3,-7,-6
15:05:49:401485,-5,1,1,6,0,-5,28,-9
15:05:49:409738,-5,1,1,6,0,-5,28,-9
15:05:49:410540,10,11,12,-10,-7,2,-1,0
15:05:49:416535,8,18,-6,-18,-7,-4,-8,16
15:05:49:432184,8,18,-6,-18,-7,-4,-8,16
15:05:49:433022,-5,-6,-22,0,-17,-13,-8,14
15:05:49:447831,7,0,12,0,29,12,-6,10
15:05:49:448648,7,0,12,0,29,12,-6,10
15:05:49:449475,4,7,-4,-11,-6,-8,-10,19
15:05:49:461571,-13,-2,-2,7,18,5,7,17
15:05:49:469729,-13,-2,-2,7,18,5,7,17
15:05:49:470547,-1,-26,-22,-6,-3,1,3,-3
15:05:49:476532,-1,-5,-12,-4,-3,4,-3,-20
15:05:49:492305,-1,-5,-12,-4,-3,4,-3,-20
15:05:49:493041,0,-6,21,13,4,-2,5,-6
15:05:49:499100,10,7,4,-2,-8,-5,-11,-6
15:05:49:507222,10,7,4,-2,-8,-5,-11,-6
15:05:49:508047,4,14,6,1,-12,11,-1,-27
15:05:49:521655,6,2,13,11,1,-2,-4,-6
15:05:49:529742,6,2,13,11,1,-2,-4,-6
15:05:49:530546,-5,2,3,6,0,-4,-4,-10
15:05:49:536626,5,2,-7,-10,-15,-4,-12,16
15:05:49:552358,5,2,-7,-10,-15,-4,-12,16
15:05:49:553059,-5,1,16,6,8,-3,4,-6
15:05:49:559046,13,8,7,-1,-11,-9,2,-5
15:05:49:567311,13,8,7,-1,-11,-9,2,-5
15:05:49:568066,1,-2,-30,-5,16,10,5,-32
15:05:49:581521,-20,-4,7,4,9,-4,4,11
15:05:49:589784,-20,-4,7,4,9,-4,4,11
15:05:49:590552,-12,4,9,-8,-4,-6,-5,7
15:05:49:596504,-6,-13,0,0,10,6,-8,-7
15:05:49:612281,-6,-13,0,0,10,6,-8,-7
15:05:49:613051,25,9,-7,2,8,6,11,28
15:05:49:619078,-8,-2,12,6,-6,6,-4,-2
15:05:49:627247,-8,-2,12,6,-6,6,-4,-2
15:05:49:628047,-1,-11,-5,-7,-3,-4,-4,0
15:05:49:641549,-1,-13,-24,-9,-16,-10,12,-1
15:05:49:649773,-1,-13,-24,-9,-16,-10,12,-1
15:05:49:650511,1,7,6,2,17,-2,-11,-7
15:05:49:656505,6,-6,-5,2,-6,-6,-4,-5
15:05:49:672247,6,-6,-5,2,-6,-6,-4,-5
15:05:49:673034,-9,-3,-2,-1,-6,-4,-5,11
15:05:49:679088,9,-3,2,-7,-7,2,-4,-17
15:05:49:687275,9,-3,2,-7,-7,2,-4,-17
15:05:49:688071,-1,0,0,-1,-8,2,-6,1
15:05:49:701507,-11,2,-11,4,14,11,3,-7
15:05:49:709760,-11,2,-11,4,14,11,3,-7
15:05:49:710540,2,-21,-21,-5,-17,-11,-9,-4
15:05:49:724058,-3,-20,1,-8,-4,-5,-3,-5
15:05:49:732208,-3,-20,1,-8,-4,-5,-3,-5
15:05:49:733061,-12,7,-11,-5,-3,0,0,-1
15:05:49:738995,-18,11,19,9,-15,-14,-4,-4
15:05:49:747218,-18,11,19,9,-15,-14,-4,-4
15:05:49:748047,0,6,23,11,29,13,12,12
15:05:49:761536,2,8,-2,-13,-6,3,3,27
15:05:49:769749,2,8,-2,-13,-6,3,3,27
15:05:49:770531,-8,-12,5,2,-3,-8,-6,-13
15:05:49:776494,10,-1,-19,-4,2,-1,0,8
15:05:49:792215,10,-1,-19,-4,2,-1,0,8
15:05:49:793039,10,11,-2,-12,-11,-4,-2,-2
15:05:49:798989,3,14,5,-1,4,0,-6,-15
15:05:49:807230,3,14,5,-1,4,0,-6,-15
15:05:49:808063,-13,1,-10,-1,-5,-9,6,-8
15:05:49:821563,16,2,0,12,28,19,11,11
15:05:49:829687,16,2,0,12,28,19,11,11
15:05:49:830484,-2,-4,14,-1,3,-3,7,25
15:05:49:836489,1,5,12,-2,-12,-2,-6,-1
15:05:49:852270,1,5,12,-2,-12,-2,-6,-1
15:05:49:853064,-2,-2,7,4,-5,5,3,-7
15:05:49:859046,-1,2,-3,-4,-2,3,-4,-7
15:05:49:867234,-1,2,-3,-4,-2,3,-4,-7
15:05:49:868079,0,1,-4,-1,-9,-1,-5,-4
15:05:49:881521,-4,6,-4,8,2,-7,-4,-9
15:05:49:889739,-4,6,-4,8,2,-7,-4,-9
15:05:49:890510,-2,-7,-2,0,15,3,1,-1
15:05:49:896517,-1,4,-5,2,-5,-4,-3,-4
15:05:49:912216,-1,4,-5,2,-5,-4,-3,-4
15:05:49:913044,4,-8,-2,-7,-9,-1,-3,-9
15:05:49:919081,-4,10,-4,-2,-3,-5,1,2
15:05:49:927235,-4,10,-4,-2,-3,-5,1,2
15:05:49:928076,1,0,-4,-4,-8,4,-9,-22
15:05:49:941548,5,-9,-9,-1,4,-1,14,6
15:05:49:949703,5,-9,-9,-1,4,-1,14,6
15:05:49:950513,-18,-12,-16,-1,-3,-3,-10,-6
15:05:49:956554,-7,-1,27,-4,-1,-1,-3,-10
15:05:49:972283,-7,-1,27,-4,-1,-1,-3,-10
15:05:49:973083,-2,2,-18,-8,0,-8,9,17
15:05:49:979046,-3,-27,3,-7,-19,-18,-8,9
15:05:49:987239,-3,-27,3,-7,-19,-18,-8,9
15:05:49:988060,1,-4,3,3,27,19,-5,-17
15:05:50:1517,-3,-1,-2,10,11,2,-7,-14
15:05:50:9736,-3,-1,-2,10,11,2,-7,-14
15:05:50:10568,3,7,-10,-10,-13,-13,5,8
15:05:50:16603,-7,-18,-30,-16,-11,-2,1,11
15:05:50:32306,-7,-18,-30,-16,-11,-2,1,11
15:05:50:33097,0,5,7,4,3,4,2,13
15:05:50:39053,-3,7,4,-3,0,5,8,3
15:05:50:47229,-3,7,4,-3,0,5,8,3
15:05:50:48041,3,10,10,0,-18,-13,-10,1
15:05:50:61539,8,-14,-23,-1,29,20,10,-4
15:05:50:69782,8,-14,-23,-1,29,20,10,-4
15:05:50:70539,7,-4,5,-5,-17,-8,-5,5
15:05:50:76512,-3,5,3,-5,-7,-13,-6,-5
15:05:50:92247,-3,5,3,-5,-7,-13,-6,-5
15:05:50:93035,-6,1,3,10,-1,-3,-5,-5
15:05:50:99080,-2,17,17,-1,13,10,-1,-7
15:05:50:107252,-2,17,17,-1,13,10,-1,-7
15:05:50:108056,-3,-11,-12,-4,-6,5,1,-7
15:05:50:121567,5,-2,-1,1,-13,-6,-1,4
15:05:50:129727,5,-2,-1,1,-13,-6,-1,4
15:05:50:130511,-1,4,-2,1,6,-7,-5,5
15:05:50:136542,-15,-13,-8,3,-9,5,12,2
15:05:50:152257,-15,-13,-8,3,-9,5,12,2
15:05:50:153073,-8,7,-16,0,5,9,5,-19
15:05:50:158973,19,2,-8,-4,-13,-17,-14,-1
15:05:50:167261,19,2,-8,-4,-13,-17,-14,-1
15:05:50:168045,-9,-14,-1,-2,-3,1,1,-3
15:05:50:181476,-4,-27,-3,-11,-9,-5,-2,-8
15:05:50:189732,-4,-27,-3,-11,-9,-5,-2,-8
15:05:50:190517,4,-12,-16,-6,0,2,-6,0
15:05:50:204120,3,8,4,3,-8,-3,-9,1
15:05:50:212254,3,8,4,3,-8,-3,-9,1
15:05:50:213053,-1,8,9,-6,15,5,-3,-9
15:05:50:219010,11,21,-9,6,5,1,12,13
15:05:50:226585,11,21,-9,6,5,1,12,13
15:05:50:234023,-4,4,7,-2,-10,-8,-14,5
15:05:50:241495,-5,-12,1,-3,-1,0,2,6
15:05:50:249726,-5,-12,1,-3,-1,0,2,6
15:05:50:250510,12,-18,-12,-1,-6,0,0,1
15:05:50:263958,-13,-2,-33,-4,-2,-9,-13,-14
15:05:50:280352,-13,-2,-33,-4,-2,-9,-13,-14
15:05:50:281120,-1,0,5,7,6,9,10,10
15:05:50:282063,-5,-9,8,4,-3,-3,2,-12
15:05:50:286583,-5,-9,8,4,-3,-3,2,-12
15:05:50:293998,5,14,9,-2,0,-11,-7,1
15:05:50:301499,1,7,12,3,19,15,12,0
15:05:50:309749,1,7,12,3,19,15,12,0
15:05:50:310532,-2,2,5,3,-6,-3,-2,0
15:05:50:324006,-13,-10,-15,-1,-3,-4,-7,-5
15:05:50:332257,-13,-10,-15,-1,-3,-4,-7,-5
15:05:50:333107,-2,0,4,-7,-2,-4,-3,-5
15:05:50:339024,8,10,8,-11,-13,-7,-16,-2
15:05:50:346554,8,10,8,-11,-13,-7,-16,-2
15:05:50:354122,3,10,-3,9,15,9,5,-10
15:05:50:361521,-3,8,20,1,-1,-1,-11,7
15:05:50:369790,-3,8,20,1,-1,-1,-11,7
15:05:50:370557,0,-10,1,-1,-7,-6,1,-4
15:05:50:384030,4,6,1,-3,-6,-4,-2,-6
15:05:50:392212,4,6,1,-3,-6,-4,-2,-6
15:05:50:393047,0,-4,-13,-7,-8,0,1,-2
15:05:50:399046,-2,1,-4,7,21,11,8,-14
15:05:50:406588,-2,1,-4,7,21,11,8,-14
15:05:50:414044,-6,-3,-12,-7,-1,-3,3,5
15:05:50:421517,-3,-2,-1,4,-14,-2,1,0
15:05:50:429675,-3,-2,-1,4,-14,-2,1,0
15:05:50:430502,4,3,3,6,-6,-3,0,3
15:05:50:444065,4,10,-1,-5,2,-5,-5,12
15:05:50:452273,4,10,-1,-5,2,-5,-5,12
15:05:50:453038,-5,-5,0,-2,-4,0,7,4
15:05:50:459062,2,-9,-17,-9,-6,-3,1,-6
15:05:50:466551,2,-9,-17,-9,-6,-3,1,-6
15:05:50:474061,3,-5,2,-1,14,7,4,18
15:05:50:481514,-15,-20,-18,-5,-8,-4,-4,7
15:05:50:489738,-15,-20,-18,-5,-8,-4,-4,7
15:05:50:490502,-7,1,15,-12,-14,-10,-6,-11
15:05:50:504157,8,5,13,-5,13,-12,-1,12
15:05:50:512247,8,5,13,-5,13,-12,-1,12
15:05:50:513052,-6,3,-3,15,21,24,-1,-10
15:05:50:527256,2,-14,-24,-25,-18,0,-7,3
15:05:50:528085,2,-14,-24,-25,-18,0,-7,3
15:05:50:534078,7,6,-2,-8,-14,-13,-9,3
15:05:50:541524,1,0,20,12,5,4,7,-5
15:05:50:549716,1,0,20,12,5,4,7,-5
15:05:50:550506,6,-9,-24,-6,-7,-3,3,14
15:05:50:564064,-1,0,0,1,-5,1,-10,0
15:05:50:572260,-1,0,0,1,-5,1,-10,0
15:05:50:573057,-4,6,16,14,3,-5,-2,2
15:05:50:579059,1,8,12,12,14,4,-8,-27
15:05:50:586563,1,8,12,12,14,4,-8,-27
15:05:50:594053,-10,-19,-5,-3,-2,-4,-7,-6
15:05:50:601557,-13,-7,-4,-3,-11,-5,6,-7
15:05:50:609715,-13,-7,-4,-3,-11,-5,6,-7
15:05:50:610543,1,-3,13,0,-2,-3,10,14
15:05:50:632892,-8,-16,-3,-4,-9,4,-2,1
15:05:50:633726,-8,-16,-3,-4,-9,4,-2,1
15:05:50:634505,-1,-17,-5,7,3,3,-1,-13
15:05:50:639035,5,2,-13,-3,-3,0,21,0
15:05:50:646580,5,2,-13,-3,-3,0,21,0
15:05:50:654090,-1,10,10,-2,0,6,5,-3
15:05:50:661509,3,12,18,7,8,1,-5,11
15:05:50:669720,3,12,18,7,8,1,-5,11
15:05:50:670518,-2,-5,-4,-2,-8,-1,-5,11
15:05:50:684127,-11,-19,17,7,1,-1,-2,9
15:05:50:692238,-11,-19,17,7,1,-1,-2,9
15:05:50:693034,10,5,4,-12,-8,-2,-12,-19
15:05:50:699040,-1,-3,-4,2,4,-1,4,20
15:05:50:706549,-1,-3,-4,2,4,-1,4,20
15:05:50:714051,-4,20,-10,-4,-3,2,-3,-1
15:05:50:721525,-1,9,-4,-1,2,-4,1,-5
15:05:50:729688,-1,9,-4,-1,2,-4,1,-5
15:05:50:730496,1,-8,-7,-9,2,-1,-3,-12
15:05:50:753014,2,8,2,-1,-7,-4,-5,2
15:05:50:753790,2,8,2,-1,-7,-4,-5,2
15:05:50:754527,-5,-4,-3,-5,1,6,-5,-3
15:05:50:759038,-3,-14,-18,-2,9,2,-13,-6
15:05:50:766623,-3,-14,-18,-2,9,2,-13,-6
15:05:50:774071,-6,5,23,10,-5,-4,-4,-9
15:05:50:781507,-2,3,10,0,-3,9,18,-2
15:05:50:789702,-2,3,10,0,-3,9,18,-2
15:05:50:790471,-2,4,4,2,0,-6,1,4
15:05:50:804104,-16,-15,-11,-1,14,-3,-15,-23
15:05:50:812235,-16,-15,-11,-1,14,-3,-15,-23
15:05:50:813050,-1,-13,13,6,1,-6,1,4
15:05:50:819044,5,6,24,-5,-13,1,-4,2
15:05:50:826528,5,6,24,-5,-13,1,-4,2
15:05:50:834045,-9,4,-1,-12,-8,-10,-7,-7
15:05:50:841551,5,4,12,3,-1,0,3,-3
15:05:50:849714,5,4,12,3,-1,0,3,-3
15:05:50:850513,-11,-18,-41,-16,0,4,5,2
15:05:50:864055,-5,7,-3,0,-2,-1,2,-12
15:05:50:872208,-5,7,-3,0,-2,-1,2,-12
15:05:50:873060,-5,-4,-17,-8,-11,-6,7,-1
15:05:50:879065,30,8,-4,4,14,2,3,18
15:05:50:886544,30,8,-4,4,14,2,3,18
15:05:50:893975,-5,-1,-7,0,-2,-2,-9,-19
15:05:50:901487,-4,-2,-24,-1,-2,6,3,-3
15:05:50:909708,-4,-2,-24,-1,-2,6,3,-3
15:05:50:910539,0,-8,2,6,-7,-6,-1,2
15:05:50:924113,-3,2,-16,4,-4,-3,-8,-7
15:05:50:932240,-3,2,-16,4,-4,-3,-8,-7
15:05:50:933116,0,12,13,6,14,7,3,9
15:05:50:939013,-4,-9,-1,-4,-15,-8,0,-12
15:05:50:946574,-4,-9,-1,-4,-15,-8,0,-12
15:05:50:954045,2,2,-3,-11,6,-5,-2,-42
15:05:50:961476,1,7,-13,0,5,0,2,-4
15:05:50:969758,1,7,-13,0,5,0,2,-4
15:05:50:970564,-11,-7,3,7,5,1,-6,-24
15:05:50:984046,2,-2,20,2,2,-3,-13,-15
15:05:50:992211,2,-2,20,2,2,-3,-13,-15
15:05:50:993062,8,13,1,-7,-31,-9,-3,6
15:05:50:998980,-5,8,-28,-9,6,-3,-2,3
15:05:51:6594,-5,8,-28,-9,6,-3,-2,3
15:05:51:14076,1,0,-22,11,13,1,2,11
15:05:51:21546,7,10,8,-6,-8,7,5,6
15:05:51:29748,7,10,8,-6,-8,7,5,6
15:05:51:30548,-14,-18,-19,2,1,3,-9,-7
15:05:51:44036,-13,-15,3,10,16,24,23,6
15:05:51:52269,-13,-15,3,10,16,24,23,6
15:05:51:53080,11,8,22,12,24,11,6,17
15:05:51:59044,-4,-6,17,-8,-27,-26,-18,-5
15:05:51:66620,-4,-6,17,-8,-27,-26,-18,-5
15:05:51:74041,0,-11,-9,-8,-4,-4,-4,20
15:05:51:81507,-1,0,6,-3,-10,-7,-4,8
15:05:51:89721,-1,0,6,-3,-10,-7,-4,8
15:05:51:90493,4,8,9,3,0,-2,5,3
15:05:51:104127,-1,1,11,19,12,5,-1,6
15:05:51:112211,-1,1,11,19,12,5,-1,6
15:05:51:113032,8,15,16,-1,2,-2,0,12
15:05:51:119055,-8,-8,-31,-5,-10,-6,-7,-26
15:05:51:126527,-8,-8,-31,-5,-10,-6,-7,-26
15:05:51:133936,3,-3,-3,-4,-7,8,10,-18
15:05:51:141519,0,-2,20,4,0,-12,-3,-8
15:05:51:149063,0,-2,20,4,0,-12,-3,-8
15:05:51:156498,-8,-7,-25,-9,4,-3,2,14
15:05:51:163977,1,9,34,-20,-11,2,-3,-2
15:05:51:172255,1,9,34,-20,-11,2,-3,-2
15:05:51:173089,3,2,19,9,20,3,5,11
15:05:51:187231,-8,-29,1,2,8,11,3,14
15:05:51:188039,-8,-29,1,2,8,11,3,14
15:05:51:194008,2,5,-38,-18,-19,-8,-18,-12
15:05:51:201501,7,12,-7,-6,0,-15,-18,-16
15:05:51:209045,7,12,-7,-6,0,-15,-18,-16
15:05:51:216509,-5,-19,4,2,-4,4,25,11
15:05:51:223993,10,6,3,-9,-2,4,11,10
15:05:51:232257,10,6,3,-9,-2,4,11,10
15:05:51:233100,0,11,5,9,21,-2,-12,13
15:05:51:247202,-2,-8,-11,-5,-4,1,2,2
15:05:51:248040,-2,-8,-11,-5,-4,1,2,2
15:05:51:253992,2,-6,-48,-19,-15,-2,4,17
15:05:51:261498,0,9,0,6,11,3,-9,-17
15:05:51:269090,0,9,0,6,11,3,-9,-17
15:05:51:276528,-2,28,29,2,-7,-3,-13,-23
15:05:51:284644,8,1,-6,-3,-11,-10,-8,1
15:05:51:285470,8,1,-6,-3,-11,-10,-8,1
15:05:51:291543,-1,-4,11,8,7,-3,16,-15
15:05:51:307212,7,3,27,2,4,6,14,19
15:05:51:308073,7,3,27,2,4,6,14,19
15:05:51:314052,2,8,-6,-16,-25,-23,-13,-6
15:05:51:321535,-5,-15,4,5,23,16,8,7
15:05:51:329099,-5,-15,4,5,23,16,8,7
15:05:51:336571,-4,-1,23,8,5,3,-2,-6
15:05:51:344699,1,8,-12,-8,-18,-6,-3,1
15:05:51:345519,1,8,-12,-8,-18,-6,-3,1
15:05:51:351531,-5,0,-41,-9,4,-1,-8,-7
15:05:51:367159,-9,-4,-24,-1,-8,-9,-5,-7
15:05:51:368057,-9,-4,-24,-1,-8,-9,-5,-7
15:05:51:374074,0,-19,10,2,2,6,8,15
15:05:51:381506,-6,-6,11,-1,6,5,16,6
15:05:51:389078,-6,-6,11,-1,6,5,16,6
15:05:51:396465,0,-3,25,0,-5,-2,-10,2
15:05:51:404703,-18,-5,-25,0,-18,-23,-7,-4
15:05:51:405549,-18,-5,-25,0,-18,-23,-7,-4
15:05:51:411522,-3,-18,13,8,17,11,-1,5
15:05:51:427234,-4,13,-14,-6,-6,-6,-12,1
15:05:51:428086,-4,13,-14,-6,-6,-6,-12,1
15:05:51:433991,2,13,-2,6,-10,-1,1,-5
15:05:51:441562,7,-2,-1,23,15,5,5,1
15:05:51:449087,7,-2,-1,23,15,5,5,1
15:05:51:456486,4,-6,-13,-9,-18,-15,-29,-50
15:05:51:464694,3,-10,6,4,8,19,13,6
15:05:51:465527,3,-10,6,4,8,19,13,6
15:05:51:471516,-7,8,5,-5,-8,-2,-2,3
15:05:51:487260,8,-15,-6,-9,-7,7,15,2
15:05:51:488077,8,-15,-6,-9,-7,7,15,2
15:05:51:493980,-3,0,1,4,6,5,5,5
15:05:51:501533,-1,-1,0,-6,-23,-5,-10,-6
15:05:51:509077,-1,-1,0,-6,-23,-5,-10,-6
15:05:51:516510,-14,-16,-39,-19,7,8,10,7
15:05:51:524737,-7,-3,-21,-3,-2,-9,-15,-12
15:05:51:525558,-7,-3,-21,-3,-2,-9,-15,-12
15:05:51:531490,0,-7,3,4,-2,1,-3,-1
15:05:51:547212,6,19,15,-4,12,-4,-12,-14
15:05:51:548050,6,19,15,-4,12,-4,-12,-14
15:05:51:553998,-1,-14,0,3,-7,1,17,11
15:05:51:561512,-3,-11,-14,3,-3,-2,6,13
15:05:51:569072,-3,-11,-14,3,-3,-2,6,13
15:05:51:576528,-4,13,27,7,-3,-4,-9,-9
15:05:51:584680,-8,-19,4,-15,-5,0,-2,-6
15:05:51:585514,-8,-19,4,-15,-5,0,-2,-6
15:05:51:591535,8,8,-18,-15,-2,-5,-4,-3
15:05:51:607219,0,9,0,-22,-9,-7,-9,-5
15:05:51:608081,0,9,0,-22,-9,-7,-9,-5
15:05:51:614054,11,-6,3,-15,20,9,9,-6
15:05:51:621553,-15,1,3,5,-10,-6,-4,13
15:05:51:629108,-15,1,3,5,-10,-6,-4,13
15:05:51:636597,-2,12,1,4,-8,-12,-14,12
15:05:51:644657,-1,5,-12,5,3,-1,-5,-9
15:05:51:645495,-1,5,-12,5,3,-1,-5,-9
15:05:51:651488,-13,-20,-8,5,-5,3,9,13
15:05:51:667218,8,10,-1,-4,-6,-6,0,-3
15:05:51:668059,8,10,-1,-4,-6,-6,0,-3
15:05:51:674031,-2,-11,-12,1,6,0,-1,-3
15:05:51:681514,-2,-7,-12,-2,-6,-3,1,-6
15:05:51:689103,-2,-7,-12,-2,-6,-3,1,-6
15:05:51:696463,-2,0,4,-2,-9,3,-3,0
15:05:51:704749,-11,0,14,0,9,6,7,-22
15:05:51:705563,-11,0,14,0,9,6,7,-22
15:05:51:711494,3,1,6,3,-9,-11,-17,-8
15:05:51:727215,1,9,14,4,-18,-3,-3,-1
15:05:51:728081,1,9,14,4,-18,-3,-3,-1
15:05:51:733944,7,13,22,13,16,6,5,3
15:05:51:741493,3,-11,-2,6,-4,-5,-5,9
15:05:51:749102,3,-11,-2,6,-4,-5,-5,9
15:05:51:756511,-7,2,-23,-14,-7,-8,-2,-2
15:05:51:764677,7,-19,-5,-6,-4,0,-3,6
15:05:51:765530,7,-19,-5,-6,-4,0,-3,6
15:05:51:771535,0,-1,15,11,9,5,5,1
15:05:51:787269,-6,-4,11,5,7,-3,-4,-4
15:05:51:788084,-6,-4,11,5,7,-3,-4,-4
15:05:51:793992,-17,-2,2,3,-5,-3,-5,-4
15:05:51:801490,-10,-4,2,4,5,2,7,3
15:05:51:809048,-10,-4,2,4,5,2,7,3
15:05:51:816538,7,-8,-6,-4,-15,-7,6,34
15:05:51:824717,-9,-6,18,14,28,16,10,-6
15:05:51:825518,-9,-6,18,14,28,16,10,-6
15:05:51:831534,4,21,11,1,-12,-5,-4,-18
15:05:51:847231,1,1,-35,-21,-3,-4,-2,3
15:05:51:848096,1,1,-35,-21,-3,-4,-2,3
15:05:51:854026,4,-7,0,9,5,2,1,3
15:05:51:861536,3,9,-7,-8,-15,-3,-9,-3
15:05:51:869078,3,9,-7,-8,-15,-3,-9,-3
15:05:51:876490,9,12,6,3,14,4,-3,-27
15:05:51:884668,-19,-30,-35,-7,-5,-1,0,-26
15:05:51:885464,-19,-30,-35,-7,-5,-1,0,-26
15:05:51:891498,-2,-17,-36,-9,2,2,-7,-19
15:05:51:907223,4,1,-10,-6,-18,-33,-11,3
15:05:51:908067,4,1,-10,-6,-18,-33,-11,3
15:05:51:914053,9,3,7,12,12,18,24,17
15:05:51:921564,10,13,-2,-3,7,5,1,15
15:05:51:929080,10,13,-2,-3,7,5,1,15
15:05:51:936523,-5,-12,-24,-14,-13,-8,-10,-16
15:05:51:944699,0,-9,14,7,-1,4,-3,4
15:05:51:945492,0,-9,14,7,-1,4,-3,4
15:05:51:951477,-6,-3,2,-10,0,-1,-7,-21
15:05:51:967220,5,6,4,-1,-5,2,1,-6
15:05:51:968076,5,6,4,-1,-5,2,1,-6
15:05:51:974056,-22,-2,29,5,3,9,7,12
15:05:51:981538,2,6,2,-7,-7,3,5,13
15:05:51:989088,2,6,2,-7,-7,3,5,13
15:05:51:996458,5,-8,-1,-8,-11,-12,-2,-11
15:05:52:4723,-5,-6,19,7,3,1,-12,-19
15:05:52:5550,-5,-6,19,7,3,1,-12,-19
15:05:52:11492,-4,7,-17,-14,-13,-14,-8,10
15:05:52:27202,-6,-16,-21,-1,6,0,-3,11
15:05:52:28072,-6,-16,-21,-1,6,0,-3,11
15:05:52:33945,4,9,7,5,-1,-6,4,5
15:05:52:41545,-2,5,-9,-9,2,-2,-5,-17
15:05:52:49087,-2,5,-9,-9,2,-2,-5,-17
15:05:52:56505,-6,-20,-22,-6,6,7,5,8
15:05:52:64683,8,9,-1,12,17,4,-2,6
15:05:52:65521,8,9,-1,12,17,4,-2,6
15:05:52:71498,-7,4,-1,-9,-14,-2,-2,-4
15:05:52:87241,16,17,16,10,-1,4,5,20
15:05:52:88120,16,17,16,10,-1,4,5,20
15:05:52:94037,2,4,22,0,-10,-13,-5,8
15:05:52:109735,-5,6,-7,-11,-2,-3,2,5
15:05:52:110588,-5,6,-7,-11,-2,-3,2,5
15:05:52:116509,7,-25,6,4,-2,4,18,12
15:05:52:124723,-5,-6,9,3,7,1,0,13
15:05:52:125551,-5,-6,9,3,7,1,0,13
15:05:52:139124,0,2,-18,-9,-8,-8,-14,-9
15:05:52:147211,2,-6,12,6,7,2,2,-6
15:05:52:148083,2,-6,12,6,7,2,2,-6
15:05:52:154044,2,-1,-22,2,14,9,-9,3
15:05:52:169752,-11,2,-19,-3,-10,0,0,-7
15:05:52:170568,-11,2,-19,-3,-10,0,0,-7
15:05:52:176549,8,-3,-17,-3,-5,-7,-3,4
15:05:52:184718,-2,-11,1,-6,-9,-7,-13,-22
15:05:52:185533,-2,-11,1,-6,-9,-7,-13,-22
15:05:52:199104,-5,-12,19,0,1,7,-5,12
15:05:52:207182,0,21,33,12,3,1,21,2
15:05:52:208094,0,21,33,12,3,1,21,2
15:05:52:213970,-12,25,-13,2,-1,-4,2,-25
15:05:52:229654,2,-6,-11,-13,-17,-10,-11,-5
15:05:52:230479,2,-6,-11,-13,-17,-10,-11,-5
15:05:52:236597,1,10,13,8,20,3,2,-1
15:05:52:244686,2,3,14,-10,0,1,-3,2
15:05:52:245515,2,3,14,-10,0,1,-3,2
15:05:52:259092,4,1,-23,-6,-4,-7,0,-5
15:05:52:267201,18,-5,1,-10,-6,3,2,0
15:05:52:268068,18,-5,1,-10,-6,3,2,0
15:05:52:274080,-12,-3,38,16,-5,-2,-6,-21
15:05:52:289744,5,-11,-9,10,11,6,-5,-7
15:05:52:290568,5,-11,-9,10,11,6,-5,-7
15:05:52:296486,8,17,7,0,-7,-3,-3,-4
15:05:52:304707,3,-2,4,-4,3,-5,-7,-9
15:05:52:305519,3,-2,4,-4,3,-5,-7,-9
15:05:52:319074,8,-6,-11,-3,-2,8,-2,-1
15:05:52:327213,-15,-6,-18,0,-5,-4,-1,9
15:05:52:328107,-15,-6,-18,0,-5,-4,-1,9
15:05:52:334080,-6,9,24,-1,-8,0,2,3
15:05:52:349748,1,1,-6,5,15,3,-1,8
15:05:52:350595,1,1,-6,5,15,3,-1,8
15:05:52:356540,6,2,-7,-5,-2,1,7,22
15:05:52:364660,9,11,5,3,0,7,25,10
15:05:52:365511,9,11,5,3,0,7,25,10
15:05:52:379028,0,-3,3,-7,1,-2,-2,21
15:05:52:387253,-22,-9,-22,-4,-2,-7,-11,-25
15:05:52:388132,-22,-9,-22,-4,-2,-7,-11,-25
15:05:52:393994,10,8,-2,7,4,2,5,-6
15:05:52:409691,-7,-7,-4,1,-4,9,-3,8
15:05:52:410534,-7,-7,-4,1,-4,9,-3,8
15:05:52:416574,-11,-1,-12,-3,-2,-6,-6,-6
15:05:52:424742,4,2,-9,-7,9,-1,4,9
15:05:52:425555,4,2,-9,-7,9,-1,4,9
15:05:52:439034,0,-6,16,-5,-3,-2,-4,1
15:05:52:447194,-3,3,-8,-9,-12,-6,-16,-17
15:05:52:448062,-3,3,-8,-9,-12,-6,-16,-17
15:05:52:454058,-23,-2,-4,-9,-3,-4,1,3
15:05:52:470255,-23,-2,-4,-9,-3,-4,1,3
15:05:52:471141,0,4,5,-1,-4,-6,-4,-15
15:05:52:476491,8,-20,-19,2,-9,-4,-15,-3
15:05:52:492210,8,-20,-19,2,-9,-4,-15,-3
15:05:52:493074,-2,10,36,10,11,2,6,1
15:05:52:498996,-1,-2,-7,5,2,5,6,-4
15:05:52:507208,-1,-2,-7,5,2,5,6,-4
15:05:52:508091,0,4,18,6,-6,-4,-1,-5
15:05:52:513984,-3,-1,7,-11,18,7,0,3
15:05:52:529727,-3,-1,7,-11,18,7,0,3
15:05:52:530519,-5,0,-20,-9,-11,-11,-5,-1
15:05:52:536545,5,15,-23,5,-4,-4,2,-15
15:05:52:552315,5,15,-23,5,-4,-4,2,-15
15:05:52:553151,8,-3,3,1,2,4,10,37
15:05:52:559014,5,-1,14,-3,4,6,-3,-12
15:05:52:567299,5,-1,14,-3,4,6,-3,-12
15:05:52:568081,2,2,9,8,-9,-1,-8,-13
15:05:52:573973,-4,-10,-4,4,15,0,-2,-7
15:05:52:589740,-4,-10,-4,4,15,0,-2,-7
15:05:52:590500,-1,3,1,3,3,4,2,19
15:05:52:596454,-5,2,18,1,-13,-12,-6,-1
15:05:52:612210,-5,2,18,1,-13,-12,-6,-1
15:05:52:613059,-12,-12,-6,-9,-20,-19,-6,8
15:05:52:619140,-10,-15,5,-16,10,11,4,5
15:05:52:627263,-10,-15,5,-16,10,11,4,5
15:05:52:628108,4,9,18,2,16,7,5,3
15:05:52:633988,7,1,-3,-2,-15,-8,-2,-14
15:05:52:649805,7,1,-3,-2,-15,-8,-2,-14
15:05:52:650542,7,14,-20,-2,5,2,-3,-5
15:05:52:656512,0,-17,-33,-8,-10,-10,-16,-2
15:05:52:672224,0,-17,-33,-8,-10,-10,-16,-2
15:05:52:673115,-12,-7,6,10,9,13,6,-17
15:05:52:679067,-1,-1,0,5,2,3,13,6
15:05:52:687248,-1,-1,0,5,2,3,13,6
15:05:52:688083,-6,-5,-3,-4,-13,-9,-12,-26
15:05:52:693989,2,4,-4,6,5,5,8,5
15:05:52:709740,2,4,-4,6,5,5,8,5
15:05:52:710507,-11,1,0,9,3,8,8,-1
15:05:52:716571,0,-1,9,-8,-13,-10,-11,-11
15:05:52:732290,0,-1,9,-8,-13,-10,-11,-11
15:05:52:733084,-5,-12,4,18,3,9,-1,3
15:05:52:739109,3,3,15,21,9,4,4,4
15:05:52:747190,3,3,15,21,9,4,4,4
15:05:52:748064,-2,-12,-20,-22,-24,-20,-10,-1
15:05:52:754075,-7,15,12,6,4,8,3,19
15:05:52:769724,-7,15,12,6,4,8,3,19
15:05:52:770496,2,2,-7,-3,-4,-3,-5,5
15:05:52:776518,-2,1,9,11,-1,-6,-7,-10
15:05:52:792282,-2,1,9,11,-1,-6,-7,-10
15:05:52:793060,-5,-13,-12,-6,19,7,5,-10
15:05:52:799008,-2,-11,-2,-6,-15,-7,-5,4
15:05:52:807202,-2,-11,-2,-6,-15,-7,-5,4
15:05:52:808004,8,19,14,3,3,3,0,3
15:05:52:814052,-13,5,-6,-14,-12,-13,-10,-18
15:05:52:829713,-13,5,-6,-14,-12,-13,-10,-18
15:05:52:830519,6,-1,-1,19,15,7,8,18
15:05:52:836504,-7,-3,29,0,-7,0,1,13
15:05:52:844085,-7,-3,29,0,-7,0,1,13
15:05:52:851520,0,-4,-13,-6,-1,-4,-1,0
15:05:52:859081,2,-12,7,1,20,4,3,-6
15:05:52:867191,2,-12,7,1,20,4,3,-6
15:05:52:868056,4,2,7,2,5,4,2,10
15:05:52:873998,7,8,-10,-4,-10,-5,1,34
15:05:52:889714,7,8,-10,-4,-10,-5,1,34
15:05:52:890510,-4,-1,8,-12,-10,-6,-9,9
15:05:52:896514,7,-9,-16,2,-1,-1,-13,-8
15:05:52:904139,7,-9,-16,2,-1,-1,-13,-8
15:05:52:911472,8,6,-21,-2,-2,1,-5,-5
15:05:52:927859,4,-5,-4,4,3,0,3,1
15:05:52:928670,4,-5,-4,4,3,0,3,1
15:05:52:929472,12,-10,-6,5,-13,-3,-2,-7
15:05:52:934051,0,9,6,-9,16,4,5,4
15:05:52:949706,0,9,6,-9,16,4,5,4
15:05:52:950490,-1,9,1,-10,8,2,5,-2
15:05:52:956539,-7,-6,-3,0,-9,-2,-12,-4
15:05:52:964078,-7,-6,-3,0,-9,-2,-12,-4
15:05:52:971552,0,-8,9,-8,-9,-6,12,-16
15:05:52:979104,2,1,5,1,-3,5,16,-13
15:05:52:987278,2,1,5,1,-3,5,16,-13
15:05:52:988072,-28,-14,-19,-6,-1,-8,-3,-40
15:05:52:994007,0,-2,-14,-2,8,-3,-7,-3
15:05:53:9729,0,-2,-14,-2,8,-3,-7,-3
15:05:53:10508,-2,3,7,-4,-8,-8,-2,-7
15:05:53:16516,-9,-9,-26,-3,-8,2,-3,-7
15:05:53:24123,-9,-9,-26,-3,-8,2,-3,-7
15:05:53:31477,-4,-43,-9,-6,-5,-5,-7,13
15:05:53:38967,6,11,9,13,5,-4,-6,2
15:05:53:47197,6,11,9,13,5,-4,-6,2
15:05:53:48065,4,12,11,5,7,17,-1,9
15:05:53:61577,-1,-7,-14,-14,-5,4,3,-7
15:05:53:69758,-1,-7,-14,-14,-5,4,3,-7
15:05:53:70572,-21,-2,-25,-9,-1,-5,2,-7
15:05:53:76469,-9,7,-3,-2,1,5,11,-11
15:05:53:84076,-9,7,-3,-2,1,5,11,-11
15:05:53:91503,-6,1,-3,-5,-15,-7,-6,-2
15:05:53:99018,-4,-9,-1,3,4,-1,-5,-15
15:05:53:107215,-4,-9,-1,3,4,-1,-5,-15
15:05:53:108060,-1,4,7,-3,-10,0,8,15
15:05:53:121551,1,9,19,0,-4,-5,1,9
15:05:53:129728,1,9,19,0,-4,-5,1,9
15:05:53:130533,9,3,17,3,-3,-4,-15,-9
15:05:53:136572,3,14,-3,-2,-2,-4,-8,6
15:05:53:144091,3,14,-3,-2,-2,-4,-8,6
15:05:53:151499,3,-3,-4,5,4,-3,3,-13
15:05:53:159030,-5,-11,2,-11,-21,-11,16,13
15:05:53:167162,-5,-11,2,-11,-21,-11,16,13
15:05:53:167979,10,9,10,2,10,8,-4,17
15:05:53:181489,5,-3,12,7,11,7,-2,-3
15:05:53:189754,5,-3,12,7,11,7,-2,-3
15:05:53:190514,9,7,-2,-4,-14,-7,-3,-12
15:05:53:196522,-1,2,-7,3,-5,-1,-2,-7
15:05:53:204156,-1,2,-7,3,-5,-1,-2,-7
15:05:53:211558,1,-7,15,17,5,2,-3,24
15:05:53:218996,-1,-11,-9,-6,-7,-1,16,2
15:05:53:227232,-1,-11,-9,-6,-7,-1,16,2
15:05:53:228104,3,7,5,-3,6,4,5,4
15:05:53:241499,11,10,-10,1,1,-2,-20,-25
15:05:53:249758,11,10,-10,1,1,-2,-20,-25
15:05:53:250502,4,-13,1,-3,-5,-2,-10,6
15:05:53:256514,-7,-7,-7,-4,6,-1,-8,-25
15:05:53:264067,-7,-7,-7,-4,6,-1,-8,-25
15:05:53:271495,5,33,15,-9,8,8,3,-17
15:05:53:279083,0,-4,11,14,-8,-8,-2,9
15:05:53:287204,0,-4,11,14,-8,-8,-2,9
15:05:53:288052,-1,6,-9,3,4,1,14,13
15:05:53:301521,-9,-2,-3,-7,-5,-6,-10,13
15:05:53:309706,-9,-2,-3,-7,-5,-6,-10,13
15:05:53:310499,-12,5,3,6,-10,1,3,4
15:05:53:316592,5,-5,2,-1,6,1,1,7
15:05:53:324063,5,-5,2,-1,6,1,1,7
15:05:53:331483,2,-14,-4,1,-1,4,18,1
15:05:53:338995,1,7,16,-1,3,1,-1,-14
15:05:53:354832,1,7,16,-1,3,1,-1,-14
15:05:53:355521,-8,-18,-3,-7,-3,-6,-15,-23
15:05:53:361533,-3,-3,-17,-6,-7,2,10,28
15:05:53:369774,-3,-3,-17,-6,-7,2,10,28
15:05:53:370514,0,-14,5,-9,2,-4,-2,16
15:05:53:376542,-1,9,1,5,8,5,-4,7
15:05:53:384089,-1,9,1,5,8,5,-4,7
15:05:53:391507,1,1,13,1,-1,-5,-17,-17
15:05:53:398996,-6,-5,-6,-1,-8,-3,-10,1
15:05:53:407235,-6,-5,-6,-1,-8,-3,-10,1
15:05:53:408080,6,13,-10,1,-1,-4,-4,-13
15:05:53:421538,12,-10,-7,1,1,-2,-15,-48
15:05:53:429717,12,-10,-7,1,1,-2,-15,-48
15:05:53:430501,-13,-4,-5,2,-10,-8,-6,-7
15:05:53:436502,-9,-16,1,5,7,4,1,4
15:05:53:444097,-9,-16,1,5,7,4,1,4
15:05:53:451489,5,5,-5,4,-8,-8,3,-3
15:05:53:459052,7,7,22,12,12,3,8,16
15:05:53:467278,7,7,22,12,12,3,8,16
15:05:53:468101,-1,-7,-35,-14,0,11,-15,10
15:05:53:481499,1,4,0,-1,-4,-4,-8,-4
15:05:53:489764,1,4,0,-1,-4,-4,-8,-4
15:05:53:490556,-1,0,2,-3,-6,-10,-2,2
15:05:53:496510,-2,9,10,0,-1,1,5,9
15:05:53:504102,-2,9,10,0,-1,1,5,9
15:05:53:511517,13,4,1,2,1,-1,-3,-26
15:05:53:519013,-2,5,-9,-14,-7,2,6,23
15:05:53:527213,-2,5,-9,-14,-7,2,6,23
15:05:53:528036,1,-27,10,7,8,0,7,24
15:05:53:541603,-3,-14,-15,-11,-15,-9,-11,-11
15:05:53:549699,-3,-14,-15,-11,-15,-9,-11,-11
15:05:53:550473,0,-10,-13,2,14,4,4,-6
15:05:53:556527,-13,-20,-21,-7,-1,-6,-3,11
15:05:53:564075,-13,-20,-21,-7,-1,-6,-3,11
15:05:53:571471,-5,-10,-48,-2,13,3,7,-3
15:05:53:579078,1,3,-20,-14,4,1,5,-7
15:05:53:587241,1,3,-20,-14,4,1,5,-7
15:05:53:588076,-10,6,33,-8,-15,-8,-16,1
15:05:53:601495,-1,-5,-2,6,7,5,6,-8
15:05:53:609683,-1,-5,-2,6,7,5,6,-8
15:05:53:610494,-4,2,-7,-3,-1,-6,-15,-20
15:05:53:616564,1,-4,-15,-5,-9,-1,-4,-14
15:05:53:624066,1,-4,-15,-5,-9,-1,-4,-14
15:05:53:631449,3,-9,-4,-4,-10,-2,1,3
15:05:53:638963,3,13,27,20,17,6,11,14
15:05:53:647194,3,13,27,20,17,6,11,14
15:05:53:648041,-13,-17,-31,-22,1,-1,2,5
15:05:53:661507,-2,0,14,18,-8,-6,-3,0
15:05:53:669732,-2,0,14,18,-8,-6,-3,0
15:05:53:670556,0,18,20,13,-3,-3,-6,15
15:05:53:676487,1,-5,2,-5,-4,-4,-3,6
15:05:53:684095,1,-5,2,-5,-4,-4,-3,6
15:05:53:691489,-22,-2,-11,-2,-4,-1,1,13
15:05:53:699055,-26,-20,-8,-4,-1,1,-4,-14
15:05:53:707226,-26,-20,-8,-4,-1,1,-4,-14
15:05:53:708061,0,2,2,0,0,-1,1,-25
15:05:53:721547,4,24,13,-12,-6,1,3,-1
15:05:53:729690,4,24,13,-12,-6,1,3,-1
15:05:53:730507,-7,6,20,1,-9,-1,6,8
15:05:53:736518,6,2,-10,-1,2,-3,0,1
15:05:53:744121,6,2,-10,-1,2,-3,0,1
15:05:53:751512,12,15,12,-5,-4,-1,3,1
15:05:53:759038,1,1,6,4,-6,-5,-9,-5
15:05:53:767208,1,1,6,4,-6,-5,-9,-5
15:05:53:768001,-6,2,-3,4,15,10,12,21
15:05:53:781516,-13,-14,11,-4,-7,-6,-6,-13
15:05:53:789736,-13,-14,11,-4,-7,-6,-6,-13
15:05:53:790550,-4,-7,3,-1,-7,-2,8,-16
15:05:53:796524,6,8,-4,-6,-3,-1,9,1
15:05:53:804075,6,8,-4,-6,-3,-1,9,1
15:05:53:811546,16,-1,-2,0,3,-1,-6,18
15:05:53:819001,14,4,3,4,10,12,5,9
15:05:53:827196,14,4,3,4,10,12,5,9
15:05:53:828057,7,9,-16,4,1,-6,6,15
15:05:53:841511,0,2,12,13,15,-1,-12,23
15:05:53:849492,0,2,12,13,15,-1,-12,23
15:05:53:857161,8,-14,-3,-10,0,2,1,-2
15:05:53:857962,-6,-4,-35,-7,-11,-1,13,-18
15:05:53:864060,-6,-4,-35,-7,-11,-1,13,-18
15:05:53:871477,-23,-9,-14,7,9,0,-11,-27
15:05:53:879086,2,-9,0,1,-15,-9,-5,11
15:05:53:887234,2,-9,0,1,-15,-9,-5,11
15:05:53:888066,4,6,1,7,7,6,12,-38
15:05:53:910425,-1,-5,22,2,-3,3,1,3
15:05:53:911233,-1,-5,22,2,-3,3,1,3
15:05:53:912070,-2,-12,4,-7,-15,-9,-5,-17
15:05:53:916538,-4,23,-7,-7,-5,-10,-17,-11
15:05:53:924071,-4,23,-7,-7,-5,-10,-17,-11
15:05:53:931501,0,5,28,-4,-7,7,-9,-6
15:05:53:939064,-3,3,-9,-3,7,10,-1,-8
15:05:53:947159,-3,3,-9,-3,7,10,-1,-8
15:05:53:947960,-16,-6,-6,-8,-5,-9,12,20
15:05:53:961540,8,-2,11,7,38,12,-6,10
15:05:53:969764,8,-2,11,7,38,12,-6,10
15:05:53:970542,10,16,9,5,1,-1,3,9
15:05:53:984698,1,-16,-3,0,-20,-8,-11,-38
15:05:53:985494,1,-16,-3,0,-20,-8,-11,-38
15:05:53:991509,5,0,3,-3,1,1,-4,5
15:05:53:999012,-3,-1,-1,-7,-10,-8,0,3
15:05:54:6536,-3,-1,-1,-7,-10,-8,0,3
15:05:54:14065,7,-16,-8,-12,-2,-2,-2,-1
15:05:54:21550,-8,-19,-9,-15,-19,-10,7,-4
15:05:54:37290,-8,-19,-9,-15,-19,-10,7,-4
15:05:54:38109,-14,8,-12,7,16,6,-2,13
15:05:54:44684,3,8,-30,-8,3,-7,-12,14
15:05:54:45517,3,8,-30,-8,3,-7,-12,14
15:05:54:51555,-7,9,-6,3,-16,-6,-7,1
15:05:54:58990,-5,-5,-20,5,4,-2,11,7
15:05:54:66534,-5,-5,-20,5,4,-2,11,7
15:05:54:73986,4,3,-1,-1,1,-5,-13,0
15:05:54:81468,1,-3,15,-3,6,8,8,3
15:05:54:89734,1,-3,15,-3,6,8,8,3
15:05:54:90503,-2,1,14,1,-10,1,3,-6
15:05:54:104802,-1,1,7,-4,-6,-1,-5,-3
15:05:54:105515,-1,1,7,-4,-6,-1,-5,-3
15:05:54:111522,-5,12,5,-5,2,2,11,1
15:05:54:118970,-18,1,10,13,15,17,28,3
15:05:54:126557,-18,1,10,13,15,17,28,3
15:05:54:133995,0,7,-1,3,5,5,-4,-9
15:05:54:141495,16,20,1,-6,-19,-9,-10,-13
15:05:54:149768,16,20,1,-6,-19,-9,-10,-13
15:05:54:150549,-15,-20,4,-7,-14,-13,-13,-6
15:05:54:164681,-1,-4,8,10,21,9,-2,8
15:05:54:165496,-1,-4,8,10,21,9,-2,8
15:05:54:171535,8,0,-3,1,-8,2,0,-17
15:05:54:178997,-2,-6,-9,-7,-15,-4,-7,1
15:05:54:186617,-2,-6,-9,-7,-15,-4,-7,1
15:05:54:194009,3,-3,16,-11,-3,-8,-10,12
15:05:54:201488,-4,-8,5,2,-1,-8,-11,-6
15:05:54:209742,-4,-8,5,2,-1,-8,-11,-6
15:05:54:210550,7,-19,-27,-9,4,-5,0,12
15:05:54:224741,2,-1,-34,-7,-16,-8,-6,-20
15:05:54:225549,2,-1,-34,-7,-16,-8,-6,-20
15:05:54:231534,10,15,-15,6,21,17,-4,-18
15:05:54:239017,-1,-1,11,-15,-8,-8,-5,5
15:05:54:246667,-1,-1,11,-15,-8,-8,-5,5
15:05:54:254041,-9,-2,2,2,-10,-2,4,-6
15:05:54:261556,2,9,11,1,5,0,8,38
15:05:54:269720,2,9,11,1,5,0,8,38
15:05:54:270487,-5,-15,4,1,-1,0,-10,-2
15:05:54:284772,-5,1,12,5,-10,-5,-3,-8
15:05:54:285561,-5,1,12,5,-10,-5,-3,-8
15:05:54:291529,-14,-3,-10,11,24,2,12,28
15:05:54:299001,2,-6,-2,2,-24,-7,6,-15
15:05:54:306581,2,-6,-2,2,-24,-7,6,-15
15:05:54:314057,-4,17,18,9,15,9,13,-27
15:05:54:321530,4,-15,-9,-6,-2,-7,-1,13
15:05:54:329691,4,-15,-9,-6,-2,-7,-1,13
15:05:54:330527,5,-3,0,-4,-2,-2,0,-1
15:05:54:344684,-2,3,-17,0,12,9,4,-7
15:05:54:345516,-2,3,-17,0,12,9,4,-7
15:05:54:351511,2,4,-12,-8,-5,-6,-26,5
15:05:54:359019,3,8,0,3,-4,-5,4,3
15:05:54:366574,3,8,0,3,-4,-5,4,3
15:05:54:373987,-4,-5,-13,3,-13,-12,-5,6
15:05:54:381447,-13,-7,-8,-8,15,16,9,41
15:05:54:389760,-13,-7,-8,-8,15,16,9,41
15:05:54:390504,11,13,22,2,-3,2,6,-1
15:05:54:412839,6,17,15,6,2,1,2,-9
15:05:54:413631,6,17,15,6,2,1,2,-9
15:05:54:414448,0,-2,9,-8,-12,-4,-14,-11
15:05:54:419021,-3,5,3,-11,0,-1,0,-9
15:05:54:426531,-3,5,3,-11,0,-1,0,-9
15:05:54:434045,15,-15,-17,-8,-4,-4,10,26
15:05:54:441532,10,-10,-7,2,-7,0,-7,-12
15:05:54:449701,10,-10,-7,2,-7,0,-7,-12
15:05:54:450501,-10,-7,-1,2,7,-1,2,17
15:05:54:465155,5,-9,5,-9,-2,-4,-12,-10
15:05:54:465968,5,-9,5,-9,-2,-4,-12,-10
15:05:54:471565,0,16,3,0,-11,-1,1,-15
15:05:54:479000,-11,-13,-44,-12,0,-4,2,3
15:05:54:486556,-11,-13,-44,-12,0,-4,2,3
15:05:54:494018,0,5,5,-1,1,-1,2,-23
15:05:54:501445,-11,-2,10,-2,-5,-10,-15,-28
15:05:54:509714,-11,-2,10,-2,-5,-10,-15,-28
15:05:54:510503,3,-10,8,8,5,4,7,-13
15:05:54:524699,8,21,0,4,5,3,-5,-3
15:05:54:525513,8,21,0,4,5,3,-5,-3
15:05:54:531494,-8,-7,-20,-10,-2,-4,1,2
15:05:54:538963,0,3,9,7,9,-1,-2,4
15:05:54:546542,0,3,9,7,9,-1,-2,4
15:05:54:553998,-3,5,-6,5,6,5,-1,6
15:05:54:561504,0,-15,5,6,-4,1,1,19
15:05:54:569740,0,-15,5,6,-4,1,1,19
15:05:54:570589,-11,-3,7,7,-5,3,5,19
15:05:54:592851,-4,8,-24,-10,-8,-4,-5,-24
15:05:54:593686,-4,8,-24,-10,-8,-4,-5,-24
15:05:54:594493,-10,-6,-33,-8,-8,-1,3,11
15:05:54:599032,1,-1,10,9,10,2,5,-7
15:05:54:606528,1,-1,10,9,10,2,5,-7
15:05:54:613980,3,20,20,2,-5,-12,-10,-13
15:05:54:621475,-13,-13,-10,0,11,5,4,6
15:05:54:629734,-13,-13,-10,0,11,5,4,6
15:05:54:630528,7,3,3,1,2,-3,-3,-1
15:05:54:644720,5,-11,21,-4,-10,-4,-3,-4
15:05:54:645505,5,-11,21,-4,-10,-4,-3,-4
15:05:54:651488,2,-25,-17,-13,-2,3,-6,5
15:05:54:658987,-8,-4,7,-4,-3,1,-13,-19
15:05:54:666569,-8,-4,7,-4,-3,1,-13,-19
15:05:54:673986,2,12,-12,-6,-3,-1,-8,-16
15:05:54:690328,-3,2,8,3,11,8,13,21
15:05:54:691202,-3,2,8,3,11,8,13,21
15:05:54:692010,-13,-1,10,-4,-5,-6,1,-6
15:05:54:704776,1,6,17,1,-12,-4,-3,14
15:05:54:705511,1,6,17,1,-12,-4,-3,14
15:05:54:711499,-6,-32,9,4,-2,0,-1,4
15:05:54:719008,11,5,-10,-2,7,-3,-9,-19
15:05:54:726558,11,5,-10,-2,7,-3,-9,-19
15:05:54:742234,3,-11,9,-2,-3,-5,0,-8
15:05:54:743006,4,-16,5,-5,5,-4,2,7
15:05:54:749723,4,-16,5,-5,5,-4,2,7
15:05:54:750540,-6,-20,12,-4,-3,5,8,-17
15:05:54:764708,14,13,-8,-2,-11,3,2,-2
15:05:54:765500,14,13,-8,-2,-11,3,2,-2
15:05:54:771511,3,17,-14,-1,-2,-7,3,2
15:05:54:779034,-3,-1,1,-1,-6,-1,3,-10
15:05:54:786554,-3,-1,1,-1,-6,-1,3,-10
15:05:54:793986,-5,8,-38,-15,-9,-3,-3,-7
15:05:54:801498,-13,-18,-4,1,-3,2,-6,-2
15:05:54:809717,-13,-18,-4,1,-3,2,-6,-2
15:05:54:810518,7,26,26,1,12,8,-2,-6
15:05:54:824724,-1,0,-13,-11,-20,-15,-2,8
15:05:54:825493,-1,0,-13,-11,-20,-15,-2,8
15:05:54:831456,-2,-14,-14,12,16,6,2,15
15:05:54:838992,12,-17,10,-5,-6,1,4,-7
15:05:54:846537,12,-17,10,-5,-6,1,4,-7
15:05:54:854006,7,3,-16,2,3,-5,-7,-12
15:05:54:861502,-12,3,-6,-1,-3,-6,-7,12
15:05:54:869758,-12,3,-6,-1,-3,-6,-7,12
15:05:54:870531,-4,0,9,5,-5,-2,-5,0
15:05:54:884710,-7,-2,-15,-2,5,3,7,-8
15:05:54:885522,-7,-2,-15,-2,5,3,7,-8
15:05:54:891501,-3,6,3,-1,-4,-3,-12,-4
15:05:54:898996,-1,12,-2,0,-3,0,-1,1
15:05:54:906586,-1,12,-2,0,-3,0,-1,1
15:05:54:913969,1,2,14,-9,-7,-12,-5,-10
15:05:54:921516,0,-8,3,7,19,13,13,6
15:05:54:929133,0,-8,3,7,19,13,13,6
15:05:54:936533,-14,-23,-28,-9,-8,-4,11,25
15:05:54:944683,-8,10,18,3,-7,-9,-15,15
15:05:54:945510,-8,10,18,3,-7,-9,-15,15
15:05:54:951555,2,3,-9,-2,3,3,6,19
15:05:54:966941,3,11,9,6,-1,-2,-1,-17
15:05:54:974778,3,11,9,6,-1,-2,-1,-17
15:05:54:975516,6,-3,16,1,-4,-7,1,10
15:05:54:981508,-7,-2,-7,-3,13,8,-3,-10
15:05:54:989013,-7,-2,-7,-3,13,8,-3,-10
15:05:54:996507,2,-13,-18,9,2,1,-4,-3
15:05:55:4727,4,2,-26,-3,-7,-8,-4,2
15:05:55:5510,4,2,-26,-3,-7,-8,-4,2
15:05:55:11475,-7,10,7,-8,-3,7,-6,-26
15:05:55:27186,0,-7,-3,-23,-10,4,0,9
15:05:55:27974,0,-7,-3,-23,-10,4,0,9
15:05:55:33999,-3,-6,11,28,1,0,-2,-17
15:05:55:41505,5,-2,-3,10,6,4,-1,-9
15:05:55:49090,5,-2,-3,10,6,4,-1,-9
15:05:55:56475,-2,-4,-2,-7,-4,-3,-12,9
15:05:55:64684,1,3,9,4,-6,-6,-6,-6
15:05:55:65525,1,3,9,4,-6,-6,-6,-6
15:05:55:71494,7,11,8,2,2,4,4,-1
15:05:55:87258,-2,7,3,-5,-4,-11,1,4
15:05:55:88019,-2,7,3,-5,-4,-11,1,4
15:05:55:93978,-5,-15,-2,-7,-2,-5,-3,-6
15:05:55:101467,-25,-9,-12,1,14,6,2,0
15:05:55:109077,-25,-9,-12,1,14,6,2,0
15:05:55:116555,9,-2,4,-2,1,3,1,-4
15:05:55:124695,-1,14,22,11,-16,-8,1,0
15:05:55:125558,-1,14,22,11,-16,-8,1,0
15:05:55:131460,-13,-17,5,-1,12,4,3,2
15:05:55:147191,1,-14,-12,-9,3,0,-2,-4
15:05:55:148052,1,-14,-12,-9,3,0,-2,-4
15:05:55:153980,3,11,2,-5,-14,-2,-12,-5
15:05:55:161522,4,1,2,0,8,4,-1,-11
15:05:55:169098,4,1,2,0,8,4,-1,-11
15:05:55:176507,5,1,-8,-4,-9,-5,2,7
15:05:55:184705,-18,-2,-14,1,-1,0,-5,-6
15:05:55:185556,-18,-2,-14,1,-1,0,-5,-6
15:05:55:191513,14,-11,-3,0,5,-3,14,19
15:05:55:207199,-3,-16,-9,-6,-5,-7,-15,11
15:05:55:208096,-3,-16,-9,-6,-5,-7,-15,11
15:05:55:213979,-9,7,8,9,3,5,-1,-4
15:05:55:221513,3,3,8,-2,5,4,-4,-14
15:05:55:229112,3,3,8,-2,5,4,-4,-14
15:05:55:236559,4,6,-5,-2,2,-1,2,-16
15:05:55:244705,2,-3,-41,-1,-7,-2,0,-7
15:05:55:245499,2,-3,-41,-1,-7,-2,0,-7
15:05:55:251498,-4,12,2,-2,12,2,-10,-11
15:05:55:267201,3,0,20,1,4,1,9,16
15:05:55:267966,3,0,20,1,4,1,9,16
15:05:55:274007,7,3,8,4,-6,-1,-3,-18
15:05:55:281507,7,-10,1,-1,-4,-2,9,6
15:05:55:289056,7,-10,1,-1,-4,-2,9,6
15:05:55:296495,-16,14,11,-1,-3,-7,0,3
15:05:55:304732,8,-1,-20,-5,-2,-2,-5,-15
15:05:55:305515,8,-1,-20,-5,-2,-2,-5,-15
15:05:55:311481,11,6,-7,0,-1,-6,5,12
15:05:55:327214,3,-2,8,13,14,10,6,23
15:05:55:328023,3,-2,8,13,14,10,6,23
15:05:55:334039,-4,-15,-10,-16,-2,3,-5,-7
15:05:55:341562,-2,2,3,-5,-13,-12,3,-18
15:05:55:349145,-2,2,3,-5,-13,-12,3,-18
15:05:55:356497,-12,-19,-14,-7,-6,0,1,12
15:05:55:364732,-14,2,15,3,-8,1,3,-15
15:05:55:365523,-14,2,15,3,-8,1,3,-15
15:05:55:371509,1,-4,3,7,0,-5,-1,-6
15:05:55:387237,13,8,-2,-2,13,10,-1,7
15:05:55:388095,13,8,-2,-2,13,10,-1,7
15:05:55:393992,-17,-7,8,3,4,0,5,-4
15:05:55:401468,6,-11,-14,-5,-2,-9,-6,-20
15:05:55:409101,6,-11,-14,-5,-2,-9,-6,-20
15:05:55:416530,-14,-20,-2,-7,-11,-5,-2,1
15:05:55:424726,-3,12,-6,-1,7,4,-5,-6
15:05:55:425533,-3,12,-6,-1,7,4,-5,-6
15:05:55:431484,-3,10,-15,-21,2,3,-1,-16
15:05:55:447173,0,3,32,6,2,0,2,4
15:05:55:448069,0,3,32,6,2,0,2,4
15:05:55:454010,15,6,-14,9,11,3,-8,10
15:05:55:461497,-15,1,-9,-8,-14,-13,-13,-4
15:05:55:469106,-15,1,-9,-8,-14,-13,-13,-4
15:05:55:476506,0,-11,-15,3,4,-2,11,7
15:05:55:484687,-8,-27,-22,1,-5,-1,-2,11
15:05:55:485478,-8,-27,-22,1,-5,-1,-2,11
15:05:55:491525,0,3,0,1,-7,-2,-4,-37
15:05:55:507185,5,7,17,-10,1,-3,0,5
15:05:55:508093,5,7,17,-10,1,-3,0,5
15:05:55:513978,7,5,8,8,-11,4,-6,17
15:05:55:521551,-3,6,-24,-24,5,1,6,7
15:05:55:529133,-3,6,-24,-24,5,1,6,7
15:05:55:536564,3,8,0,-5,7,-8,-4,-8
15:05:55:544684,2,0,-7,0,3,12,6,17
15:05:55:545485,2,0,-7,0,3,12,6,17
15:05:55:551519,-13,0,16,-5,-18,-9,-9,10
15:05:55:575422,16,2,35,10,-2,-6,-4,-5
15:05:55:576190,16,2,35,10,-2,-6,-4,-5
15:05:55:577015,-2,-11,-25,2,-1,5,2,0
15:05:55:581477,-1,0,-6,7,3,-4,-1,-9
15:05:55:589123,-1,0,-6,7,3,-4,-1,-9
15:05:55:596506,21,11,-3,-6,-16,0,-3,-7
15:05:55:604739,10,3,-2,2,18,6,5,6
15:05:55:605556,10,3,-2,2,18,6,5,6
15:05:55:611556,-5,-5,-10,-1,-3,-1,8,4
15:05:55:627234,-8,-5,-1,5,-7,-4,4,-19
15:05:55:628151,-8,-5,-1,5,-7,-4,4,-19
15:05:55:634096,7,-4,18,0,-1,2,-5,7
15:05:55:641542,0,-18,-41,-17,-13,-10,-11,11
15:05:55:649035,0,-18,-41,-17,-13,-10,-11,11
15:05:55:656548,-4,8,7,10,17,12,1,-9
15:05:55:664697,-25,-2,19,12,-2,-10,-3,-13
15:05:55:665513,-25,-2,19,12,-2,-10,-3,-13
15:05:55:671539,0,4,-14,11,8,-3,1,-1
15:05:55:687250,1,-2,-10,8,-12,5,-1,-5
15:05:55:688040,1,-2,-10,8,-12,5,-1,-5
15:05:55:694048,-8,-4,20,-10,-5,-3,1,19
15:05:55:701539,-6,-3,-3,-3,-14,-9,-5,1
15:05:55:709097,-6,-3,-3,-3,-14,-9,-5,1
15:05:55:716452,14,11,-1,-2,5,1,-2,0
15:05:55:724713,0,-17,13,-1,-6,-2,-6,-1
15:05:55:725559,0,-17,13,-1,-6,-2,-6,-1
15:05:55:731488,6,-15,3,-1,7,8,7,-24
15:05:55:747142,7,31,29,6,9,7,-9,-21
15:05:55:747973,7,31,29,6,9,7,-9,-21
15:05:55:753965,-5,4,19,7,-18,-10,-2,9
15:05:55:761509,7,15,-12,2,12,10,7,7
15:05:55:769103,7,15,-12,2,12,10,7,7
15:05:55:776473,-15,1,5,2,6,-5,2,-3
15:05:55:784709,-14,-3,-6,-12,-9,-9,1,8
15:05:55:785519,-14,-3,-6,-12,-9,-9,1,8
15:05:55:791490,-5,-9,-4,12,0,-7,-3,4
15:05:55:807218,-5,-9,-4,12,0,-7,-3,4
15:05:55:808112,-9,-24,-30,0,3,2,-3,-11
15:05:55:813989,-3,1,-11,-5,1,1,-4,-7
15:05:55:829685,-3,1,-11,-5,1,1,-4,-7
15:05:55:830508,-14,18,19,0,-10,-4,3,-34
15:05:55:836491,1,-17,7,-4,13,4,2,17
15:05:55:844736,1,-17,7,-4,13,4,2,17
15:05:55:845512,-1,-6,24,-1,-4,0,-2,-9
15:05:55:851533,-3,18,-10,-16,-11,-9,-7,6
15:05:55:867231,-3,18,-10,-16,-11,-9,-7,6
15:05:55:868023,10,-3,-17,4,10,0,6,25
15:05:55:873985,-7,-21,-22,5,10,2,3,-3
15:05:55:889725,-7,-21,-22,5,10,2,3,-3
15:05:55:890479,10,-5,11,7,-5,1,-1,10
15:05:55:896454,-2,-9,5,-1,-12,-9,6,-6
15:05:55:904708,-2,-9,5,-1,-12,-9,6,-6
15:05:55:905527,-10,10,2,-4,-5,-4,-5,5
15:05:55:919047,3,1,8,9,12,6,-9,-24
15:05:55:927220,3,1,8,9,12,6,-9,-24
15:05:55:927988,9,7,-7,-9,1,-4,0,7
15:05:55:933958,-9,12,2,0,-14,0,6,7
15:05:55:949565,-9,12,2,0,-14,0,6,7
15:05:55:957206,3,-16,-18,-10,-5,-1,-5,-3
15:05:55:958050,3,8,-3,4,11,5,-8,-3
15:05:55:964685,3,8,-3,4,11,5,-8,-3
15:05:55:965478,5,11,23,-2,-7,-4,-4,6
15:05:55:979054,-5,-8,-11,-4,-5,-1,-3,-4
15:05:55:987303,-5,-8,-11,-4,-5,-1,-3,-4
15:05:55:988012,-1,-8,-1,5,-4,-2,-3,5
15:05:55:994052,2,-1,11,-4,6,1,-3,14
15:05:56:9709,2,-1,11,-4,6,1,-3,14
15:05:56:10486,-5,8,-17,-6,8,-1,-2,6
15:05:56:16539,3,17,20,-4,-7,5,3,-19
15:05:56:24698,3,17,20,-4,-7,5,3,-19
15:05:56:25466,14,-14,11,7,13,9,27,-1
15:05:56:39070,-4,-9,-7,-8,-1,-1,-3,-17
15:05:56:47165,-4,-9,-7,-8,-1,-1,-3,-17
15:05:56:47964,-1,6,-10,-4,1,2,-8,-10
15:05:56:54057,-2,1,-3,-8,-9,-7,4,10
15:05:56:69750,-2,1,-3,-8,-9,-7,4,10
15:05:56:70559,5,5,-2,1,-1,-5,0,-1
15:05:56:76512,-2,-7,3,3,-1,-2,-8,-2
15:05:56:84688,-2,-7,3,3,-1,-2,-8,-2
15:05:56:85497,-9,-2,-4,-5,-6,-1,3,-2
15:05:56:99042,0,1,-6,-9,-10,0,-9,-16
15:05:56:107212,0,1,-6,-9,-10,0,-9,-16
15:05:56:108136,-1,6,1,6,5,-3,-14,-9
15:05:56:113985,-14,7,-9,-6,-3,3,5,-2
15:05:56:130186,-14,7,-9,-6,-3,3,5,-2
15:05:56:130980,-13,-5,7,-1,-8,-7,4,21
15:05:56:136548,13,-3,-5,11,4,-1,12,36
15:05:56:144705,13,-3,-5,11,4,-1,12,36
15:05:56:145495,-4,-23,7,-1,-2,-1,2,-4
15:05:56:159008,0,9,19,2,-3,-14,-7,-4
15:05:56:167216,0,9,19,2,-3,-14,-7,-4
15:05:56:168093,4,-2,-6,-8,2,5,-1,-7
15:05:56:173977,2,0,-3,-5,-5,3,2,6
15:05:56:189751,2,0,-3,-5,-5,3,2,6
15:05:56:190518,-6,-2,19,10,19,2,-11,-11
15:05:56:196489,-4,4,-21,-13,-1,-3,0,28
15:05:56:204759,-4,4,-21,-13,-1,-3,0,28
15:05:56:205523,4,-11,-8,-1,-10,1,13,15
15:05:56:219037,4,5,0,3,0,-8,-2,-12
15:05:56:227276,4,5,0,3,0,-8,-2,-12
15:05:56:228152,-12,-31,-49,-6,-11,-2,-14,-1
15:05:56:234012,-3,-7,-5,1,0,7,10,-9
15:05:56:249763,-3,-7,-5,1,0,7,10,-9
15:05:56:250547,4,21,15,-2,-11,-7,-12,-15
15:05:56:256478,-5,-15,-7,2,-1,3,-7,-6
15:05:56:264729,-5,-15,-7,2,-1,3,-7,-6
15:05:56:265493,-2,4,20,8,-3,-8,-1,10
15:05:56:279018,15,24,-3,-5,0,-3,2,4
15:05:56:287202,15,24,-3,-5,0,-3,2,4
15:05:56:288112,-8,-5,-3,-7,-7,-5,0,-10
15:05:56:294008,-3,0,-17,-5,6,-3,-10,-3
15:05:56:309698,-3,0,-17,-5,6,-3,-10,-3
15:05:56:310538,-1,10,18,-7,-9,-2,2,-24
15:05:56:316483,0,-2,-1,7,18,3,-12,-7
15:05:56:324777,0,-2,-1,7,18,3,-12,-7
15:05:56:325502,-17,-4,-11,3,10,4,-7,1
15:05:56:339016,0,-6,-13,-1,-8,-2,-5,15
15:05:56:347202,0,-6,-13,-1,-8,-2,-5,15
15:05:56:348006,1,5,29,1,-7,-6,-4,-4
15:05:56:354006,-11,1,3,4,12,8,3,-1
15:05:56:369780,-11,1,3,4,12,8,3,-1
15:05:56:370538,10,7,-5,-9,6,0,14,9
15:05:56:376466,-10,-12,28,2,-11,-7,5,9
15:05:56:384737,-10,-12,28,2,-11,-7,5,9
15:05:56:385552,7,3,-41,-21,0,-1,-6,-23
15:05:56:399062,5,2,22,2,-7,-5,-7,-9
15:05:56:407200,5,2,22,2,-7,-5,-7,-9
15:05:56:407993,-8,2,5,13,7,6,4,-8
15:05:56:413996,-5,1,-17,-1,-1,-6,-12,-32
15:05:56:429719,-5,1,-17,-1,-1,-6,-12,-32
15:05:56:430508,0,-9,-1,0,-2,9,3,15
15:05:56:436598,-6,-15,2,-2,4,5,8,-3
15:05:56:444711,-6,-15,2,-2,4,5,8,-3
15:05:56:445520,6,1,3,-7,-7,-4,-9,13
15:05:56:459034,-10,-12,-9,5,-11,-5,-6,7
15:05:56:467218,-10,-12,-9,5,-11,-5,-6,7
15:05:56:468002,-7,-7,1,2,1,1,4,-3
15:05:56:473996,0,12,13,-2,-3,-3,0,-6
15:05:56:489719,0,12,13,-2,-3,-3,0,-6
15:05:56:490506,-1,4,-5,1,-1,0,4,-6
15:05:56:496507,12,2,-10,-10,-6,-3,5,9
15:05:56:504763,12,2,-10,-10,-6,-3,5,9
15:05:56:505521,1,1,1,9,19,6,-7,-5
15:05:56:519041,-3,-8,-16,-5,-5,-2,6,-36
15:05:56:527229,-3,-8,-16,-5,-5,-2,6,-36
15:05:56:528014,-11,-10,-27,-15,-11,-5,-13,-21
15:05:56:534044,5,1,25,6,8,8,37,9
15:05:56:549774,5,1,25,6,8,8,37,9
15:05:56:550548,-10,10,18,-1,-1,1,10,12
15:05:56:556493,-4,-3,-3,-16,-8,-5,-15,2
15:05:56:564680,-4,-3,-3,-16,-8,-5,-15,2
15:05:56:565488,-1,-5,9,0,-8,-6,-6,7
15:05:56:579031,2,14,-2,8,8,2,-7,11
15:05:56:587246,2,14,-2,8,8,2,-7,11
15:05:56:588040,6,-7,-4,3,-3,-7,-10,2
15:05:56:593991,-8,-14,-51,-13,-14,-4,-6,-9
15:05:56:609739,-8,-14,-51,-13,-14,-4,-6,-9
15:05:56:610555,7,5,2,11,11,3,11,-5
15:05:56:616495,2,-3,12,6,3,1,-8,30
15:05:56:624465,2,-3,12,6,3,1,-8,30
15:05:56:631503,-3,-11,2,-3,-12,-9,-1,-7
15:05:56:639036,4,-2,10,8,3,6,1,-2
15:05:56:647170,4,-2,10,8,3,6,1,-2
15:05:56:647989,10,-12,6,2,5,3,2,7
15:05:56:654046,-8,-17,18,-7,-11,0,-7,-16
15:05:56:669829,-8,-17,18,-7,-11,0,-7,-16
15:05:56:670497,4,2,4,0,-2,5,10,7
15:05:56:676574,2,-4,-4,-5,-1,-4,1,2
15:05:56:684716,2,-4,-4,-5,-1,-4,1,2
15:05:56:685525,-8,-8,1,-8,-4,-4,-7,-3
15:05:56:699002,1,9,0,3,-1,-5,10,6
15:05:56:707165,1,9,0,3,-1,-5,10,6
15:05:56:707975,-5,7,-4,3,5,-1,-7,9
15:05:56:721617,3,-5,-7,-8,0,-2,-1,-7
15:05:56:729704,3,-5,-7,-8,0,-2,-1,-7
15:05:56:730524,4,2,4,6,7,6,-7,-12
15:05:56:745406,-1,6,2,-8,-8,-7,-11,-8
15:05:56:746216,-1,6,2,-8,-8,-7,-11,-8
15:05:56:746968,7,10,4,-1,-4,-4,-2,-5
15:05:56:758983,9,3,-1,-9,3,2,-8,1
15:05:56:767190,9,3,-1,-9,3,2,-8,1
15:05:56:767978,-3,0,12,2,-7,-5,4,19
15:05:56:773965,0,9,10,15,5,-5,-5,-8
15:05:56:789750,0,9,10,15,5,-5,-5,-8
15:05:56:790474,-9,-3,-13,2,4,4,-8,-2
15:05:56:796439,-1,-8,-11,-5,0,10,37,15
15:05:56:804759,-1,-8,-11,-5,0,10,37,15
15:05:56:805556,11,-2,-2,-13,1,0,0,1
15:05:56:819034,-6,-13,-3,2,-2,-4,-9,0
15:05:56:827269,-6,-13,-3,2,-2,-4,-9,0
15:05:56:828008,-9,-5,-1,-4,-7,-5,6,-12
15:05:56:841567,-16,14,-2,6,17,9,-3,2
15:05:56:849717,-16,14,-2,6,17,9,-3,2
15:05:56:850517,-2,1,-10,-2,-9,-1,-5,1
15:05:56:856517,0,-22,-57,-25,-11,-2,-7,-5
15:05:56:864154,0,-22,-57,-25,-11,-2,-7,-5
15:05:56:871554,-21,-8,-3,2,0,-6,-1,-19
15:05:56:878956,1,1,9,4,-11,-4,-5,3
15:05:56:887299,1,1,9,4,-11,-4,-5,3
15:05:56:888128,7,-4,-28,-13,0,2,-2,6
15:05:56:901515,-2,6,12,5,-1,-7,-3,6
15:05:56:909733,-2,6,12,5,-1,-7,-3,6
15:05:56:910557,-11,4,12,9,-1,-7,-11,-12
15:05:56:916517,-14,-1,-2,-6,-4,-3,-4,-16
15:05:56:924144,-14,-1,-2,-6,-4,-3,-4,-16
15:05:56:931560,12,-3,-2,2,2,2,5,30
15:05:56:939062,11,2,7,-8,-11,-9,-9,0
15:05:56:947243,11,2,7,-8,-11,-9,-9,0
15:05:56:948103,-4,-15,7,9,19,7,-1,-11
15:05:56:970482,8,6,24,16,11,6,-1,-18
15:05:56:971241,8,6,24,16,11,6,-1,-18
15:05:56:971989,12,33,1,-7,-16,-4,4,6
15:05:56:976498,-2,-2,-1,15,15,4,-2,1
15:05:56:984077,-2,-2,-1,15,15,4,-2,1
15:05:56:991512,-6,-2,-3,-3,-5,-8,-1,2
15:05:56:999007,-3,-7,18,1,-9,-13,-8,23
15:05:57:7254,-3,-7,18,1,-9,-13,-8,23
15:05:57:8149,1,-2,4,-6,-5,-6,-10,-1
15:05:57:22026,5,7,14,-3,0,7,-3,-6
15:05:57:29700,5,7,14,-3,0,7,-3,-6
15:05:57:30527,2,-6,-9,-4,0,4,5,9
15:05:57:36536,0,4,13,8,7,4,5,13
15:05:57:44170,0,4,13,8,7,4,5,13
15:05:57:51515,4,-7,-26,-3,-12,-8,-3,-12
15:05:57:59015,0,4,2,-1,8,6,-6,-4
15:05:57:67181,0,4,2,-1,8,6,-6,-4
15:05:57:67973,2,6,-9,-2,0,4,-8,15
15:05:57:81482,12,-21,-55,-8,-10,-8,-7,6
15:05:57:89749,12,-21,-55,-8,-10,-8,-7,6
15:05:57:90512,-1,-1,1,-3,0,2,-3,14
15:05:57:96500,9,17,2,4,5,-5,-2,3
15:05:57:104060,9,17,2,4,5,-5,-2,3
15:05:57:111537,-9,-11,-19,-2,-2,4,2,-6
15:05:57:119051,-10,-10,-9,-13,4,7,11,-6
15:05:57:134782,-10,-10,-9,-13,4,7,11,-6
15:05:57:135552,-7,4,26,8,2,1,5,-12
15:05:57:141540,-13,-2,16,4,-13,-3,7,-2
15:05:57:149684,-13,-2,16,4,-13,-3,7,-2
15:05:57:150504,-4,-8,9,2,11,6,2,-11
15:05:57:156539,-8,-4,-21,-1,-9,-6,-6,18
15:05:57:164047,-8,-4,-21,-1,-9,-6,-6,18
15:05:57:171488,8,1,9,4,-16,-11,-9,-22
15:05:57:178957,-4,20,41,12,26,14,-3,-37
15:05:57:187241,-4,20,41,12,26,14,-3,-37
15:05:57:188011,-14,8,-4,-6,1,2,2,7
15:05:57:201521,1,0,2,1,-8,-8,-2,0
15:05:57:209692,1,0,2,1,-8,-8,-2,0
15:05:57:210535,4,-1,-9,0,-5,-4,-5,1
15:05:57:216504,-2,-10,-17,-15,-13,-4,-4,-1
15:05:57:224037,-2,-10,-17,-15,-13,-4,-4,-1
15:05:57:231484,0,-41,-13,-3,5,1,-4,3
15:05:57:239004,3,14,0,-5,-5,-5,-15,7
15:05:57:247226,3,14,0,-5,-5,-5,-15,7
15:05:57:247999,0,12,-4,-5,8,6,-3,1
15:05:57:261532,8,10,-20,-14,-14,-5,3,-16
15:05:57:269774,8,10,-20,-14,-14,-5,3,-16
15:05:57:270543,7,1,-20,-11,-9,-6,-2,-6
15:05:57:276526,-2,3,8,8,10,4,7,4
15:05:57:284111,-2,3,8,8,10,4,7,4
15:05:57:291508,-3,0,3,1,-4,-3,2,1
15:05:57:299015,-19,-33,-10,2,-4,-4,-1,-28
15:05:57:307260,-19,-33,-10,2,-4,-4,-1,-28
15:05:57:308133,-9,-5,14,7,8,-6,-21,-24
15:05:57:321520,-2,-10,-7,3,13,1,9,34
15:05:57:329719,-2,-10,-7,3,13,1,9,34
15:05:57:330521,-8,6,20,3,-11,-6,-9,-6
15:05:57:336498,3,10,7,-2,-3,5,9,0
15:05:57:344130,3,10,7,-2,-3,5,9,0
15:05:57:351492,5,19,27,17,7,-8,6,3
15:05:57:359029,21,0,-4,-8,-10,-5,0,11
15:05:57:367194,21,0,-4,-8,-10,-5,0,11
15:05:57:367982,2,10,-7,-4,17,9,11,4
15:05:57:381487,-7,3,-22,-21,-11,-10,-9,-17
15:05:57:389773,-7,3,-22,-21,-11,-10,-9,-17
15:05:57:390525,16,-4,-8,-4,-13,-3,2,-2
15:05:57:396503,0,1,-13,4,-2,5,12,-1
15:05:57:412237,0,1,-13,4,-2,5,12,-1
15:05:57:413118,1,23,14,6,1,6,8,19
15:05:57:418990,-7,-14,-30,-14,-4,-2,-9,-9
15:05:57:427227,-7,-14,-30,-14,-4,-2,-9,-9
15:05:57:428093,-2,-4,-18,-11,-11,-6,0,10
15:05:57:441490,9,-19,18,21,6,1,4,-8
15:05:57:449710,9,-19,18,21,6,1,4,-8
15:05:57:450546,-36,-12,-15,-7,-7,3,1,-3
15:05:57:456529,-4,-10,-7,-9,-3,-2,-4,1
15:05:57:464102,-4,-10,-7,-9,-3,-2,-4,1
15:05:57:479661,1,-1,8,-13,-7,-4,-8,-8
15:05:57:480450,-14,9,8,-2,3,-2,-13,-17
15:05:57:487274,-14,9,8,-2,3,-2,-13,-17
15:05:57:488128,1,-4,3,-1,-5,-3,2,16
15:05:57:501466,4,-10,11,9,3,-1,-12,9
15:05:57:509684,4,-10,11,9,3,-1,-12,9
15:05:57:510540,-3,-8,-36,-5,5,1,6,-12
15:05:57:524711,-2,8,9,-4,-8,-6,-1,-12
15:05:57:525527,-2,8,9,-4,-8,-6,-1,-12
15:05:57:531470,4,6,15,5,5,16,2,-3
15:05:57:538980,-11,-1,-1,2,3,2,-2,7
15:05:57:547221,-11,-1,-1,2,3,2,-2,7
15:05:57:548014,1,-15,24,8,-11,-8,-1,-9
15:05:57:561520,0,3,11,-15,-4,2,3,-3
15:05:57:569725,0,3,11,-15,-4,2,3,-3
15:05:57:570557,4,-3,8,-1,2,-5,8,2
15:05:57:576508,7,-1,8,8,2,1,-2,6
15:05:57:584147,7,-1,8,8,2,1,-2,6
15:05:57:591487,-4,-15,-78,-20,-2,-6,4,-10
15:05:57:598987,2,11,-13,6,6,13,5,10
15:05:57:607221,2,11,-13,6,6,13,5,10
15:05:57:608129,4,-7,21,1,-2,-2,4,27
15:05:57:621568,0,14,16,-2,-12,-11,-4,-7
15:05:57:637960,0,14,16,-2,-12,-11,-4,-7
15:05:57:638713,4,10,7,10,32,11,2,-3
15:05:57:639497,-1,2,-1,-7,-2,-6,-2,6
15:05:57:644115,-1,2,-1,-7,-2,-6,-2,6
15:05:57:651480,-6,-17,-10,1,-5,-1,-2,-11
15:05:57:658974,-4,-11,-31,-6,-1,1,4,-5
15:05:57:667235,-4,-11,-31,-6,-1,1,4,-5
15:05:57:668013,-14,-2,1,-13,-11,-1,-3,4
15:05:57:681478,-3,1,5,1,0,-2,8,21
15:05:57:689731,-3,1,5,1,0,-2,8,21
15:05:57:690497,-2,5,13,5,-4,-1,-9,-5
15:05:57:696507,1,-19,-25,3,-5,-4,-5,-11
15:05:57:704161,1,-19,-25,3,-5,-4,-5,-11
15:05:57:711514,-1,-1,-22,-15,-13,-4,-11,-20
15:05:57:718995,2,-5,-6,-8,-1,9,-2,-6
15:05:57:727166,2,-5,-6,-8,-1,9,-2,-6
15:05:57:727998,8,13,12,1,-2,1,3,-13
15:05:57:757834,-4,-8,-11,-4,-4,-12,-5,-13
15:05:57:758651,-4,-8,-11,-4,-4,-12,-5,-13
15:05:57:759424,-10,1,0,-1,-2,-3,0,6
15:05:57:764681,-5,5,15,11,-6,-5,-4,3
15:05:57:765503,-5,5,15,11,-6,-5,-4,3
15:05:57:771490,5,6,-14,-8,4,2,0,-12
15:05:57:778942,-1,11,5,-10,-5,9,-7,-15
15:05:57:786579,-1,11,5,-10,-5,9,-7,-15
15:05:57:802162,-1,-5,12,6,-6,-3,7,8
15:05:57:802905,11,14,13,3,18,6,1,0
15:05:57:809672,11,14,13,3,18,6,1,0
15:05:57:810544,-9,0,-12,-2,-7,-9,-5,-20
15:05:57:824692,-9,-23,2,8,-1,-2,-4,-11
15:05:57:825459,-9,-23,2,8,-1,-2,-4,-11
15:05:57:831427,6,-4,-8,4,6,1,4,11
15:05:57:839033,3,3,-4,-14,-8,-9,-9,-3
15:05:57:846527,3,3,-4,-14,-8,-9,-9,-3
15:05:57:862184,8,-8,8,12,-3,0,-6,-8
15:05:57:862964,5,-5,3,13,5,-6,0,8
15:05:57:869714,5,-5,3,13,5,-6,0,8
15:05:57:870504,2,10,12,-1,-5,0,1,6
15:05:57:884687,-5,-1,9,-2,-2,1,3,9
15:05:57:885507,-5,-1,9,-2,-2,1,3,9
15:05:57:891528,-2,8,-20,-12,-4,2,8,9
15:05:57:899048,-17,8,-8,1,0,0,-4,-11
15:05:57:914731,-17,8,-8,1,0,0,-4,-11
15:05:57:915564,1,1,0,4,15,2,4,11
15:05:57:921513,5,7,11,-1,-1,3,10,3
15:05:57:929664,5,7,11,-1,-1,3,10,3
15:05:57:930448,-4,-17,-18,-7,-4,0,-7,-6
15:05:57:944734,-2,0,-7,-7,-8,-5,-5,-6
15:05:57:945537,-2,0,-7,-7,-8,-5,-5,-6
15:05:57:951495,4,-14,5,1,-4,-7,-17,5
15:05:57:958979,-3,-11,2,5,13,4,-1,1
15:05:57:966551,-3,-11,2,5,13,4,-1,1
15:05:57:974004,9,5,8,8,5,-1,-20,-27
15:05:57:981509,1,-6,0,3,-2,-5,-14,1
15:05:57:989805,1,-6,0,3,-2,-5,-14,1
15:05:57:990486,-16,-8,-14,-3,1,-2,-3,-7
15:05:58:4705,1,-14,-31,-8,-6,0,8,5
15:05:58:5508,1,-14,-31,-8,-6,0,8,5
15:05:58:11543,3,7,-25,-21,-9,-5,1,-3
15:05:58:27238,5,13,3,2,-1,-2,3,14
15:05:58:28142,5,13,3,2,-1,-2,3,14
15:05:58:34014,-3,-11,22,17,14,4,5,12
15:05:58:41519,-8,-9,-8,-6,-7,-4,3,-7
15:05:58:49730,-8,-9,-8,-6,-7,-4,3,-7
15:05:58:50476,0,5,20,-10,-6,2,8,2
15:05:58:64700,1,10,10,8,9,4,9,-14
15:05:58:65578,1,10,10,8,9,4,9,-14
15:05:58:71576,-4,4,-7,-3,-3,-3,-1,2
15:05:58:78999,-9,-2,-24,-7,-4,-5,-3,-3
15:05:58:94791,-9,-2,-24,-7,-4,-5,-3,-3
15:05:58:95520,5,18,5,5,-2,3,1,7
15:05:58:101499,7,21,16,7,7,0,0,5
15:05:58:109724,7,21,16,7,7,0,0,5
15:05:58:110546,-13,-12,2,2,5,2,1,-19
15:05:58:124478,6,-11,-51,-13,-7,-10,-10,-22
15:05:58:140386,6,-11,-51,-13,-7,-10,-10,-22
15:05:58:141153,1,4,16,5,10,1,7,21
15:05:58:141993,0,0,30,11,2,3,0,1
15:05:58:146545,0,0,30,11,2,3,0,1
15:05:58:154050,1,18,9,-3,-11,-3,-22,-3
15:05:58:161510,3,1,3,-2,1,4,9,10
15:05:58:169737,3,1,3,-2,1,4,9,10
15:05:58:170536,6,-4,-8,5,4,2,7,0
15:05:58:192870,8,15,16,-4,-13,-4,-4,-19
15:05:58:193685,8,15,16,-4,-13,-4,-4,-19
15:05:58:194495,-9,-2,5,4,0,-5,-6,-4
15:05:58:198964,3,-3,-17,-4,6,8,-1,18
15:05:58:206578,3,-3,-17,-4,6,8,-1,18
15:05:58:213997,6,-5,9,6,3,-4,12,-3
15:05:58:222232,-13,-18,-48,-29,-13,-7,-15,-1
15:05:58:223055,-13,-18,-48,-29,-13,-7,-15,-1
15:05:58:229022,-5,-3,-3,-6,-15,-6,-4,15
15:05:58:244751,6,-13,32,17,19,4,7,-4
15:05:58:245534,6,-13,32,17,19,4,7,-4
15:05:58:251501,17,2,-4,-4,-3,8,18,6
15:05:58:259010,-2,5,-1,2,2,4,6,13
15:05:58:266540,-2,5,-1,2,2,4,6,13
15:05:58:273962,-5,7,17,-1,-4,-7,-11,-14
15:05:58:282163,6,-3,-6,9,-4,-7,7,12
15:05:58:282974,6,-3,-6,9,-4,-7,7,12
15:05:58:289030,-18,-32,-1,8,29,3,-5,-2
15:05:58:305152,-5,-16,10,6,-9,0,-2,3
15:05:58:305973,-5,-16,10,6,-9,0,-2,3
15:05:58:311523,2,-1,-13,-8,-14,-5,-7,-5
15:05:58:319028,-1,6,12,-5,-3,-6,3,-6
15:05:58:326571,-1,6,12,-5,-3,-6,3,-6
15:05:58:334065,-1,-3,-6,2,-1,-5,-7,-25
15:05:58:342220,-5,-11,2,-12,-11,-8,-11,-3
15:05:58:342994,-5,-11,2,-12,-11,-8,-11,-3
15:05:58:349041,8,7,-14,3,8,6,8,16
15:05:58:364685,10,-2,-3,10,13,1,2,8
15:05:58:365533,10,-2,-3,10,13,1,2,8
15:05:58:371548,-3,-1,-2,3,-18,-8,-13,2
15:05:58:379026,-6,1,5,-20,4,3,0,-5
15:05:58:386559,-6,1,5,-20,4,3,0,-5
15:05:58:394074,-3,-4,18,5,4,0,3,21
15:05:58:402194,-21,-19,11,-1,-5,-3,-8,-5
15:05:58:403036,-21,-19,11,-1,-5,-3,-8,-5
15:05:58:416610,15,10,-21,-18,-10,-1,-10,8
15:05:58:424664,-9,-12,2,5,-6,-2,-1,-21
15:05:58:425500,-9,-12,2,5,-6,-2,-1,-21
15:05:58:431527,3,5,24,7,4,4,4,-11
15:05:58:439028,5,12,-18,-8,-9,-6,3,10
15:05:58:446580,5,12,-18,-8,-9,-6,3,10
15:05:58:454060,-3,-11,-7,-5,-4,-1,10,-27
15:05:58:477925,1,11,-43,-13,-4,1,-2,9
15:05:58:478748,1,11,-43,-13,-4,1,-2,9
15:05:58:479531,-22,-8,-1,-3,1,1,1,7
15:05:58:484691,0,-6,25,9,-6,-5,-5,-2
15:05:58:485525,0,-6,25,9,-6,-5,-5,-2
15:05:58:491517,0,12,2,6,-2,3,2,-7
15:05:58:499019,-1,-10,-5,-14,-5,0,-6,2
15:05:58:506564,-1,-10,-5,-14,-5,0,-6,2
15:05:58:513960,-17,-16,-25,-23,-11,-4,4,5
15:05:58:522582,9,27,8,14,18,3,6,1
15:05:58:529676,9,27,8,14,18,3,6,1
15:05:58:530509,-6,12,13,0,-5,-5,-2,1
15:05:58:544703,0,19,-2,1,5,3,0,-2
15:05:58:545491,0,19,-2,1,5,3,0,-2
15:05:58:551481,-15,2,7,-3,0,-2,-7,-10
15:05:58:559041,2,-8,-2,7,-1,2,-5,-6
15:05:58:566555,2,-8,-2,7,-1,2,-5,-6
15:05:58:582903,14,1,9,1,-4,-5,-6,4
15:05:58:583615,-2,-8,5,4,6,3,5,1
15:05:58:584464,-2,-8,5,4,6,3,5,1
15:05:58:588996,9,0,2,-11,-3,1,4,-16
15:05:58:604718,-1,-12,-11,-11,-10,-8,-4,-3
15:05:58:605500,-1,-12,-11,-11,-10,-8,-4,-3
15:05:58:611551,-11,-32,-15,-8,18,11,4,-3
15:05:58:619061,9,-5,9,3,6,-4,0,-9
15:05:58:626502,9,-5,9,3,6,-4,0,-9
15:05:58:642855,13,13,0,-3,-10,-6,-2,1
15:05:58:643689,-14,-11,-17,-8,-7,-2,-4,3
15:05:58:644525,-14,-11,-17,-8,-7,-2,-4,3
15:05:58:649046,0,2,0,2,1,1,-6,-5
15:05:58:664670,-8,-12,-9,-10,-4,-3,1,-13
15:05:58:665522,-8,-12,-9,-10,-4,-3,1,-13
15:05:58:671550,-2,-5,-9,1,0,1,-2,8
15:05:58:679043,-12,1,-2,9,-4,0,-4,-17
15:05:58:694741,-12,1,-2,9,-4,0,-4,-17
15:05:58:695510,4,4,3,2,2,-10,-6,-8
15:05:58:702176,0,2,6,6,0,-4,-8,1
15:05:58:702992,0,2,6,6,0,-4,-8,1
15:05:58:716509,-9,0,-8,3,-2,1,14,19
15:05:58:724720,9,20,8,-11,3,8,9,28
15:05:58:725554,9,20,8,-11,3,8,9,28
15:05:58:731531,8,4,-4,3,2,2,-7,14
15:05:58:755383,-13,-3,6,11,-3,-5,-5,10
15:05:58:756162,-13,-3,6,11,-3,-5,-5,10
15:05:58:756965,-5,-1,-9,0,0,1,4,-7
15:05:58:762210,8,8,7,-6,-12,-6,0,-20
15:05:58:763010,8,8,7,-6,-12,-6,0,-20
15:05:58:776563,-8,-7,3,7,3,2,0,-3
15:05:58:784676,-1,4,36,8,13,7,-5,-11
15:05:58:785499,-1,4,36,8,13,7,-5,-11
15:05:58:791446,1,-10,-17,-12,-11,-7,3,-4
15:05:58:807173,14,-3,5,-4,-13,-1,5,13
15:05:58:807980,14,-3,5,-4,-13,-1,5,13
15:05:58:814000,4,4,9,-1,-3,-5,-9,12
15:05:58:822192,-12,-1,-15,-4,8,12,8,15
15:05:58:823011,-12,-1,-15,-4,8,12,8,15
15:05:58:836621,5,0,-24,5,12,3,2,-13
15:05:58:844697,-8,-9,-29,-20,-20,-15,-10,-5
15:05:58:845482,-8,-9,-29,-20,-20,-15,-10,-5
15:05:58:851535,8,8,15,2,-2,7,6,8
15:05:58:867204,4,8,-8,11,7,2,-6,-3
15:05:58:867996,4,8,-8,11,7,2,-6,-3
15:05:58:874007,-4,5,0,-9,-11,-7,-6,-20
15:05:58:882235,3,8,8,8,7,1,2,3
15:05:58:883037,3,8,8,8,7,1,2,3
15:05:58:896487,-13,-16,-8,-6,-7,-8,-16,-13
15:05:58:904751,0,6,-3,-7,-11,-2,-3,9
15:05:58:905494,0,6,-3,-7,-11,-2,-3,9
15:05:58:919001,9,7,25,12,15,1,-14,-2
15:05:58:927148,-20,-14,-17,-8,-11,-2,0,-27
15:05:58:928049,-20,-14,-17,-8,-11,-2,0,-27
15:05:58:934009,13,-18,10,6,5,2,4,27
15:05:58:942147,3,-12,22,3,0,-9,2,3
15:05:58:942986,3,-12,22,3,0,-9,2,3
15:05:58:956543,-2,3,-15,-4,0,0,4,-10
15:05:58:964637,-4,-3,-14,2,3,0,-2,6
15:05:58:965502,-4,-3,-14,2,3,0,-2,6
15:05:58:971560,3,-3,-3,-11,2,-5,-4,16
15:05:58:987244,2,8,5,6,5,1,3,21
15:05:58:988029,2,8,5,6,5,1,3,21
15:05:58:993996,-9,10,-4,2,-3,-1,-2,-31
15:05:59:2163,2,-15,15,-2,-1,-1,8,1
15:05:59:2970,2,-15,15,-2,-1,-1,8,1
15:05:59:16526,1,-11,10,4,-1,2,16,24
15:05:59:32892,-1,-10,-2,4,0,3,3,-13
15:05:59:33707,-1,-10,-2,4,0,3,3,-13
15:05:59:34481,-5,7,-2,-4,-11,-1,4,6
15:05:59:47191,3,1,-5,2,6,1,9,-3
15:05:59:47973,3,1,-5,2,6,1,9,-3
15:05:59:53982,-11,-24,19,11,2,-4,-4,2
15:05:59:62222,5,5,-11,-1,-2,0,-1,13
15:05:59:62981,5,5,-11,-1,-2,0,-1,13
15:05:59:76571,2,8,7,10,-2,-2,-2,21
15:05:59:84669,-6,18,17,19,16,1,-2,-1
15:05:59:85484,-6,18,17,19,16,1,-2,-1
15:05:59:91470,5,-8,5,1,8,0,-19,-38
15:05:59:107193,1,-10,-1,-11,-9,-6,-6,-14
15:05:59:108010,1,-10,-1,-11,-9,-6,-6,-14
15:05:59:113979,-5,15,-2,-1,-2,6,6,-6
15:05:59:129670,-5,15,-2,-1,-2,6,6,-6
15:05:59:130497,5,7,7,-7,-8,-3,-6,-5
15:05:59:136555,-6,-8,-13,-13,2,5,5,-11
15:05:59:144680,-6,-8,-13,-13,2,5,5,-11
15:05:59:145517,4,-3,-8,-4,-3,-1,0,5
15:05:59:151446,-11,-13,1,-4,-13,-7,1,12
15:05:59:167219,-11,-13,1,-4,-13,-7,1,12
15:05:59:168001,-10,-9,0,-9,-2,-1,-8,11
15:05:59:174027,6,-3,-1,2,0,-1,8,-10
15:05:59:197914,6,-3,-1,2,0,-1,8,-10
15:05:59:198660,0,0,-10,-2,-4,-2,-9,-14
15:05:59:199493,-12,4,-4,1,4,-1,-2,8
15:05:59:204778,-12,4,-4,1,4,-1,-2,8
15:05:59:205506,1,4,-3,1,-3,-4,0,-20
15:05:59:219023,3,8,-2,-5,-8,-8,-3,-6
15:05:59:227273,3,8,-2,-5,-8,-8,-3,-6
15:05:59:228068,-4,-17,-35,5,12,10,-3,-2
15:05:59:241476,0,-19,5,-3,-4,0,1,6
15:05:59:249697,0,-19,5,-3,-4,0,1,6
15:05:59:250533,1,-1,-18,-14,-5,6,7,-5
15:05:59:256499,-6,-2,-25,-2,-3,-6,-3,4
15:05:59:264727,-6,-2,-25,-2,-3,-6,-3,4
15:05:59:265509,-17,-29,12,0,-9,-2,-12,-7
15:05:59:271493,5,6,-5,-13,-2,-1,2,16
15:05:59:287045,5,6,-5,-13,-2,-1,2,16
15:05:59:294640,1,13,14,0,1,-3,2,-2
15:05:59:295457,-5,7,6,6,-2,-6,-6,-10
15:05:59:310220,-5,7,6,6,-2,-6,-6,-10
15:05:59:311018,-13,4,-3,1,21,17,2,-6
15:05:59:316487,0,2,-3,-10,-8,-6,-4,-1
15:05:59:324697,0,2,-3,-10,-8,-6,-4,-1
15:05:59:325532,6,17,25,4,-12,-14,1,9
15:05:59:331457,5,9,-30,-17,-4,0,1,-3
15:05:59:347195,5,9,-30,-17,-4,0,1,-3
15:05:59:347989,1,-12,5,-2,-1,-1,3,-9
15:05:59:353990,-10,3,20,12,2,3,5,4
15:05:59:369793,-10,3,20,12,2,3,5,4
15:05:59:370523,10,5,6,1,2,-3,-11,-9
15:05:59:376481,5,6,-22,-10,-5,-2,-7,-22
15:05:59:384702,5,6,-22,-10,-5,-2,-7,-22
15:05:59:385523,4,-9,12,-1,-5,-1,-3,-13
15:05:59:391517,1,-9,5,8,2,2,2,22
15:05:59:407224,1,-9,5,8,2,2,2,22
15:05:59:408026,5,10,7,-6,5,-1,2,9
15:05:59:413973,-1,0,12,-2,-4,-1,-2,0
15:05:59:429674,-1,0,12,-2,-4,-1,-2,0
15:05:59:430482,2,-14,7,10,2,-3,1,5
15:05:59:436527,-5,-14,-48,-8,-4,-2,1,2
15:05:59:444755,-5,-14,-48,-8,-4,-2,1,2
15:05:59:445504,-1,10,-3,-5,-1,1,-7,-8
15:05:59:451483,1,-12,18,3,-7,-4,-3,-10
15:05:59:467204,1,-12,18,3,-7,-4,-3,-10
15:05:59:467989,1,11,3,-4,10,-1,-8,-43
15:05:59:474018,-8,-6,8,1,11,5,-5,-15
15:05:59:489707,-8,-6,8,1,11,5,-5,-15
15:05:59:490487,-3,-21,4,4,-10,-4,7,14
15:05:59:496479,2,7,16,3,1,-3,-8,-6
15:05:59:504699,2,7,16,3,1,-3,-8,-6
15:05:59:505503,-9,-1,4,8,-3,-6,-1,1
15:05:59:511533,-1,20,-16,1,-5,-1,0,5
15:05:59:527219,-1,20,-16,1,-5,-1,0,5
15:05:59:527993,0,12,-24,-7,-2,3,-1,12
15:05:59:534004,16,12,13,2,4,5,-3,-7
15:05:59:549750,16,12,13,2,4,5,-3,-7
15:05:59:550533,0,4,0,5,-15,-3,1,5
15:05:59:556507,7,20,11,0,5,1,6,2
15:05:59:564676,7,20,11,0,5,1,6,2
15:05:59:565470,11,-7,-14,4,13,0,-7,39
15:05:59:571552,-3,-6,-2,5,6,1,19,30
15:05:59:587311,-3,-6,-2,5,6,1,19,30
15:05:59:588063,-14,4,-3,4,-11,-10,-7,-12
15:05:59:594037,-2,-9,11,1,1,-1,-2,6
15:05:59:609782,-2,-9,11,1,1,-1,-2,6
15:05:59:610499,-5,-10,-18,-14,-10,-2,-3,0
15:05:59:616484,3,2,17,1,6,5,-1,11
15:05:59:624757,3,2,17,1,6,5,-1,11
15:05:59:625519,3,10,-12,-3,10,1,-5,8
15:05:59:631543,-11,-13,-12,-10,-17,-5,-4,-5
15:05:59:647288,-11,-13,-12,-10,-17,-5,-4,-5
15:05:59:648052,-10,-10,-5,4,-9,-4,8,2
15:05:59:654066,-7,-13,-22,-5,4,0,-2,-23
15:05:59:661633,-7,-13,-22,-5,4,0,-2,-23
15:05:59:669043,-18,7,10,-8,1,0,-12,-10
15:05:59:676520,1,-3,9,8,0,0,-8,-17
15:05:59:684683,1,-3,9,8,0,0,-8,-17
15:05:59:685535,9,1,-3,-3,-9,-16,-12,-2
15:05:59:699008,-2,3,2,-5,6,9,29,16
15:05:59:707168,-2,3,2,-5,6,9,29,16
15:05:59:707965,14,21,21,-3,-3,0,2,0
15:05:59:713985,0,5,9,-7,-15,-7,-10,-9
15:05:59:721575,0,5,9,-7,-15,-7,-10,-9
15:05:59:729034,7,-9,36,15,3,-3,4,7
15:05:59:736562,-4,-2,-2,4,6,0,-3,-10
15:05:59:744715,-4,-2,-2,4,6,0,-3,-10
15:05:59:745504,2,-12,-13,3,0,4,6,-9
15:05:59:759025,7,6,9,-2,-5,-3,-4,-4
15:05:59:767221,7,6,9,-2,-5,-3,-4,-4
15:05:59:768010,-12,1,-8,-10,-7,0,-9,-16
15:05:59:774021,-10,-8,-11,-10,-3,-8,-5,3
15:05:59:781527,-10,-8,-11,-10,-3,-8,-5,3
15:05:59:789006,-2,-7,8,3,13,11,11,-8
15:05:59:796453,2,-14,-24,4,-7,-8,-11,-1
15:05:59:804768,2,-14,-24,4,-7,-8,-11,-1
15:05:59:805538,7,22,-11,-7,1,6,7,14
15:05:59:819074,7,10,13,0,4,-3,2,-4
15:05:59:827237,7,10,13,0,4,-3,2,-4
15:05:59:828034,8,-15,-32,-13,-11,-3,1,-23
15:05:59:833971,3,11,-20,-1,4,3,-4,5
15:05:59:841540,3,11,-20,-1,4,3,-4,5
15:05:59:849023,1,5,8,-6,-7,-7,1,4
15:05:59:856514,-11,-19,-3,3,-8,-2,-2,2
15:05:59:864714,-11,-19,-3,3,-8,-2,-2,2
15:05:59:865501,-3,-4,-15,-4,-5,-5,-4,22
15:05:59:878985,3,7,16,6,8,15,24,25
15:05:59:887240,3,7,16,6,8,15,24,25
15:05:59:888041,-2,5,1,1,4,-3,-9,12
15:05:59:893962,-5,-5,-31,-11,-12,-9,-14,-20
15:05:59:901563,-5,-5,-31,-11,-12,-9,-14,-20
15:05:59:909022,-1,5,12,2,0,6,6,-12
15:05:59:916577,-9,3,25,1,-6,-7,-9,-8
15:05:59:924666,-9,3,25,1,-6,-7,-9,-8
15:05:59:925484,-3,6,-1,-5,8,1,-2,-16
15:05:59:939029,-7,-8,-10,-2,-4,1,-4,-2
15:05:59:947238,-7,-8,-10,-2,-4,1,-4,-2
15:05:59:948015,1,-4,6,13,11,-1,0,2
15:05:59:954052,3,-8,-12,-9,1,-7,-8,-30
15:05:59:961610,3,-8,-12,-9,1,-7,-8,-30
15:05:59:969010,-12,1,5,-4,-1,10,7,-21
15:05:59:976514,4,2,21,-2,-8,-10,-10,-4
15:05:59:984693,4,2,21,-2,-8,-10,-10,-4
15:05:59:985511,3,-5,14,0,-3,-1,6,11
15:05:59:999165,-4,13,4,2,11,6,1,1
15:06:00:7234,-4,13,4,2,11,6,1,1
15:06:00:8029,7,-8,-10,-7,-9,-3,2,14
15:06:00:14037,6,5,11,11,6,2,-1,5
15:06:00:21596,6,5,11,11,6,2,-1,5
15:06:00:28992,-13,-2,-24,-7,-3,-1,-12,-24
15:06:00:36553,14,-2,13,-5,-5,1,23,-12
15:06:00:44726,14,-2,13,-5,-5,1,23,-12
15:06:00:45505,-4,-3,-26,-7,-7,-5,-6,-4
15:06:00:59016,-12,0,-13,-1,-4,-4,-8,-10
15:06:00:67189,-12,0,-13,-1,-4,-4,-8,-10
15:06:00:68010,5,13,-2,5,5,-1,-2,-3
15:06:00:73938,-3,-3,-25,-10,-5,-2,-6,7
15:06:00:81514,-3,-3,-25,-10,-5,-2,-6,7
15:06:00:88993,5,-8,3,5,3,-1,4,11
15:06:00:96463,-5,-1,10,1,-7,1,-6,1
15:06:00:104738,-5,-1,10,1,-7,1,-6,1
15:06:00:105522,-2,-3,13,0,6,-5,-1,14
15:06:00:118990,-2,-15,-39,-11,-3,0,-13,-11
15:06:00:127243,-2,-15,-39,-11,-3,0,-13,-11
15:06:00:128039,-24,0,-1,-1,-4,3,-6,-19
15:06:00:134017,2,24,14,5,-1,-8,-8,-18
15:06:00:141578,2,24,14,5,-1,-8,-8,-18
15:06:00:149002,-3,-14,21,8,1,-5,-10,-12
15:06:00:156512,0,-7,-4,-6,-4,1,2,13
15:06:00:164731,0,-7,-4,-6,-4,1,2,13
15:06:00:165527,6,7,-25,-11,-2,-4,1,-5
15:06:00:179009,2,10,21,14,15,7,8,17
15:06:00:187258,2,10,21,14,15,7,8,17
15:06:00:188058,12,-3,-1,-6,-10,-4,-3,9
15:06:00:194039,0,-3,11,3,19,5,-1,3
15:06:00:201593,0,-3,11,3,19,5,-1,3
15:06:00:209050,0,-3,-15,0,-4,-5,2,18
15:06:00:216544,-5,-14,-2,-13,-14,-8,-11,9
15:06:00:224705,-5,-14,-2,-13,-14,-8,-11,9
15:06:00:225466,2,-5,-28,6,7,6,5,-1
15:06:00:239007,3,-13,-5,5,-2,2,9,-8
15:06:00:247210,3,-13,-5,5,-2,2,9,-8
15:06:00:247999,4,-6,20,8,3,5,7,5
15:06:00:254041,5,0,-5,-4,-3,-3,4,2
15:06:00:261520,5,0,-5,-4,-3,-3,4,2
15:06:00:269018,-1,1,1,-1,-10,-3,4,1
15:06:00:276506,-11,-9,-3,-10,-5,-5,-10,6
15:06:00:284701,-11,-9,-3,-10,-5,-5,-10,6
15:06:00:285500,10,1,7,-4,2,0,-1,-12
