Time,EMG1,EMG2,EMG3,EMG4,EMG5,EMG6,EMG7,EMG8
18:03:35:389726,-2,-3,2,-4,-3,-1,1,1
18:03:35:397600,-2,-3,2,-4,-3,-1,1,1
18:03:35:405343,3,-2,1,-4,5,0,-3,-1
18:03:35:406114,-4,-1,2,-4,3,1,-6,-5
18:03:35:412179,-4,-1,2,-4,3,1,-6,-5
18:03:35:419786,-4,1,2,-3,-3,0,0,-3
18:03:35:427154,1,-2,-4,-2,3,-4,0,0
18:03:35:442836,1,-2,-4,-2,3,-4,0,0
18:03:35:443651,-2,-1,-4,-1,-6,-1,-3,-1
18:03:35:449654,-2,-1,4,-1,-3,-4,0,2
18:03:35:457965,-2,-1,4,-1,-3,-4,0,2
18:03:35:458664,1,-3,0,1,0,3,-1,-1
18:03:35:472994,-1,-4,0,2,4,-3,0,1
18:03:35:473708,-1,-4,0,2,4,-3,0,1
18:03:35:479666,-4,0,-5,-2,2,2,-3,2
18:03:35:487233,-5,-4,0,-1,-1,1,-2,-8
18:03:35:503009,-5,-4,0,-1,-1,1,-2,-8
18:03:35:503653,3,1,0,-1,1,-6,-1,-6
18:03:35:509707,1,2,-2,3,-1,-1,-1,0
18:03:35:517916,1,2,-2,3,-1,-1,-1,0
18:03:35:518647,-5,-3,-1,2,-2,1,-3,-1
18:03:35:524716,0,-1,-1,-2,-4,1,-1,3
18:03:35:532242,0,-1,-1,-2,-4,1,-1,3
18:03:35:539740,-2,-1,-6,-1,-1,-3,2,-3
18:03:35:547134,2,-1,0,0,3,-1,-3,-6
18:03:35:555561,2,-1,0,0,3,-1,-3,-6
18:03:35:556184,-1,-3,0,3,1,3,-1,3
18:03:35:570413,0,-1,-3,-6,-4,-2,-5,-1
18:03:35:571226,0,-1,-3,-6,-4,-2,-5,-1
18:03:35:585560,-3,3,-2,-3,0,0,-3,2
18:03:35:586131,-3,1,-2,1,3,0,1,-7
18:03:35:592220,-3,1,-2,1,3,0,1,-7
18:03:35:599634,-1,-2,-2,0,-1,0,-1,1
18:03:35:607233,-1,-3,1,-2,-5,-1,1,0
18:03:35:622903,-1,-3,1,-2,-5,-1,1,0
18:03:35:623625,-1,3,0,-4,-5,-4,-1,-2
18:03:35:630976,-1,-1,-2,0,1,-3,-2,-3
18:03:35:631876,-1,-1,-2,0,1,-3,-2,-3
18:03:35:645385,-3,0,-1,1,0,1,-3,6
18:03:35:646135,0,-4,0,2,2,-4,-1,1
18:03:35:660375,0,-4,0,2,2,-4,-1,1
18:03:35:661140,0,1,0,-3,0,-2,-1,-2
18:03:35:667224,0,-1,-7,1,0,3,-1,4
18:03:35:683290,0,-1,-7,1,0,3,-1,4
18:03:35:691186,-2,0,-2,0,-2,-1,-2,-4
18:03:35:691771,-1,1,0,-1,4,0,1,-5
18:03:35:692629,-1,1,0,-1,4,0,1,-5
18:03:35:697162,1,1,-3,-1,-1,0,1,-2
18:03:35:704794,-3,0,-3,-4,-3,-2,-3,-2
18:03:35:712223,-3,0,-3,-4,-3,-2,-3,-2
18:03:35:719908,3,-6,3,1,1,2,-3,-4
18:03:35:727188,2,-3,-2,-3,0,-2,-1,4
18:03:35:735614,2,-3,-2,-3,0,-2,-1,4
18:03:35:736173,-3,-1,-1,0,-5,2,1,-3
18:03:35:749696,-7,-2,0,1,-7,-6,-4,1
18:03:35:757927,-7,-2,0,1,-7,-6,-4,1
18:03:35:758620,3,-1,-3,-1,3,-4,-2,0
18:03:35:764643,2,2,0,0,1,0,2,-4
18:03:35:772335,2,2,0,0,1,0,2,-4
18:03:35:779651,-1,-4,-4,-2,2,2,-1,2
18:03:35:787281,-1,-3,1,-3,-1,0,-2,0
18:03:35:795458,-1,-3,1,-3,-1,0,-2,0
18:03:35:796160,-2,-2,1,-4,-2,-4,-3,-7
18:03:35:809703,-1,-1,-3,2,-3,-3,-2,1
18:03:35:817878,-1,-1,-3,2,-3,-3,-2,1
18:03:35:818733,1,-1,0,2,-1,2,2,-1
18:03:35:824618,0,1,2,-2,-5,1,-4,1
18:03:35:832238,0,1,2,-2,-5,1,-4,1
18:03:35:839775,-6,0,-3,0,-3,-1,-3,-4
18:03:35:847151,0,2,0,1,-2,-3,4,2
18:03:35:862873,0,2,0,1,-2,-3,4,2
18:03:35:863678,-1,-3,-1,0,3,2,-1,2
18:03:35:869758,-2,-2,-1,3,0,3,-7,-3
18:03:35:878946,-2,-2,-1,3,0,3,-7,-3
18:03:35:885567,-2,1,1,-4,0,-3,-4,-3
18:03:35:886143,0,-2,1,3,-4,1,0,-1
18:03:35:892233,0,-2,1,3,-4,1,0,-1
18:03:35:907939,-4,-1,1,2,0,1,-1,-1
18:03:35:908609,0,-6,-1,-1,0,2,1,-3
18:03:35:922980,0,-6,-1,-1,0,2,1,-3
18:03:35:923698,0,3,-1,-2,-2,-4,-1,-6
18:03:35:929643,-1,3,-5,-1,0,-3,-2,-2
18:03:35:938373,-1,3,-5,-1,0,-3,-2,-2
18:03:35:945311,1,-3,-6,-3,-4,-1,-4,0
18:03:35:946112,0,-1,-4,-3,1,-1,-1,0
18:03:35:960453,0,-1,-4,-3,1,-1,-1,0
18:03:35:961126,3,-2,0,-1,-4,0,3,0
18:03:35:967146,0,1,-1,-2,1,-1,1,-3
18:03:35:975453,0,1,-1,-2,1,-1,1,-3
18:03:35:976165,2,1,2,0,-2,-3,1,2
18:03:35:998569,-1,-1,-1,-1,-6,-3,-1,1
18:03:35:999286,-1,-1,-1,-1,-6,-3,-1,1
18:03:36:82,-5,-2,1,0,-3,0,-4,-4
18:03:36:4800,-1,-1,-1,-1,-2,-3,-5,-4
18:03:36:12190,-1,-1,-1,-1,-2,-3,-5,-4
18:03:36:19808,0,-1,-4,2,-1,2,1,2
18:03:36:27146,-4,2,1,-1,3,3,-1,-3
18:03:36:35598,-4,2,1,-1,3,3,-1,-3
18:03:36:36155,1,0,2,-2,4,-4,0,-1
18:03:36:49687,-4,-4,-3,1,-2,1,1,4
18:03:36:65997,-4,-4,-3,1,-2,1,1,4
18:03:36:66768,-1,-3,1,1,0,-2,2,-3
18:03:36:67612,4,0,-5,-1,-3,-1,-4,-1
18:03:36:72276,4,0,-5,-1,-3,-1,-4,-1
18:03:36:87916,-5,-1,-1,-1,-2,-1,0,1
18:03:36:88656,1,0,1,0,-1,-1,5,0
18:03:36:95395,1,0,1,0,-1,-1,5,0
18:03:36:96145,2,-2,0,-2,1,0,1,-3
18:03:36:110474,-2,-1,-2,-6,0,-2,-3,-2
18:03:36:111184,-2,-1,-2,-6,0,-2,-3,-2
18:03:36:117215,-5,-1,-2,-3,2,0,-1,0
18:03:36:124658,0,-1,-1,-4,-3,-2,0,0
18:03:36:140542,0,-1,-1,-4,-3,-2,0,0
18:03:36:141138,-3,-2,-4,-2,-6,-1,-3,-1
18:03:36:147147,-3,-4,-3,-2,1,0,-1,4
18:03:36:162868,-3,-4,-3,-2,1,0,-1,4
18:03:36:163636,2,-1,2,-3,2,1,2,-4
18:03:36:170442,0,-2,0,2,-4,0,2,-5
18:03:36:171179,0,-2,0,2,-4,0,2,-5
18:03:36:185499,2,-1,-1,-3,0,0,-4,3
18:03:36:186113,-1,-1,-2,-5,4,3,-2,0
18:03:36:192208,-1,-1,-2,-5,4,3,-2,0
18:03:36:199630,1,0,-1,-1,-6,-4,-1,-4
18:03:36:207245,-2,2,1,-2,2,-1,-3,-7
18:03:36:214769,-2,2,1,-2,2,-1,-3,-7
18:03:36:222283,2,-4,-6,2,-6,-7,2,2
18:03:36:230921,-1,-4,-2,0,-6,-1,-3,1
18:03:36:231778,-1,-4,-2,0,-6,-1,-3,1
18:03:36:237262,3,0,3,-4,6,-1,-3,-4
18:03:36:253057,-6,2,-2,1,-4,-2,-1,0
18:03:36:253697,-6,2,-2,1,-4,-2,-1,0
18:03:36:259644,-1,0,-3,0,-1,1,0,-1
18:03:36:267184,-1,1,1,0,9,1,-2,-1
18:03:36:274727,-1,1,1,0,9,1,-2,-1
18:03:36:282250,-1,2,1,-1,0,1,-3,0
18:03:36:290446,-6,-2,0,1,-4,-3,-5,-5
18:03:36:291174,-6,-2,0,1,-4,-3,-5,-5
18:03:36:297158,-2,2,-1,1,-2,-3,0,-2
18:03:36:312839,4,0,-2,-4,-1,-4,1,2
18:03:36:313660,4,0,-2,-4,-1,-4,1,2
18:03:36:319817,0,-2,-2,-2,-3,1,0,-1
18:03:36:327168,-4,0,-1,-4,0,-3,1,-4
18:03:36:334681,-4,0,-1,-4,0,-3,1,-4
18:03:36:342168,-3,-2,-2,2,0,1,0,4
18:03:36:350348,5,-3,-3,-1,1,-3,1,-4
18:03:36:351167,5,-3,-3,-1,1,-3,1,-4
18:03:36:357199,-4,-1,-2,-3,-1,2,-1,-3
18:03:36:381044,6,1,-1,4,-2,2,2,0
18:03:36:381843,6,1,-1,4,-2,2,2,0
18:03:36:382699,1,-3,-5,-2,-1,-2,1,1
18:03:36:387268,-1,-3,0,3,-1,1,0,-2
18:03:36:394724,-1,-3,0,3,-1,1,0,-2
18:03:36:402342,0,-1,1,0,0,-2,-2,-5
18:03:36:410327,-1,-1,-1,-2,0,0,-5,-1
18:03:36:411120,-1,-1,-1,-2,0,0,-5,-1
18:03:36:417147,-2,4,-1,1,-6,-5,-6,0
18:03:36:432670,-3,-5,-2,-3,-3,1,2,-1
18:03:36:440393,-3,-5,-2,-3,-3,1,2,-1
18:03:36:441136,1,-4,0,-1,2,2,0,0
18:03:36:447152,-3,0,-1,-4,0,0,0,-2
18:03:36:462876,-3,0,-1,-4,0,0,0,-2
18:03:36:463675,0,-4,1,2,-3,0,-2,-3
18:03:36:470836,2,-1,-1,1,-1,0,-5,1
18:03:36:477845,2,-1,-1,1,-1,0,-5,1
18:03:36:478625,3,-1,-2,0,1,-2,-2,1
18:03:36:492890,-2,0,-2,1,-1,-2,-2,-4
18:03:36:493674,-2,0,-2,1,-1,-2,-2,-4
18:03:36:499665,-3,2,-1,-4,-2,0,0,0
18:03:36:515357,3,1,1,0,1,-4,-1,-2
18:03:36:516159,3,1,1,0,1,-4,-1,-2
18:03:36:522267,-1,0,-2,-5,-1,0,-4,-5
18:03:36:530318,-3,-1,2,0,0,-1,-6,2
18:03:36:531123,-3,-1,2,0,0,-1,-6,2
18:03:36:537235,0,-1,-2,-3,1,-2,6,-3
18:03:36:561001,0,-2,-2,-5,-4,-2,1,-2
18:03:36:561803,0,-2,-2,-5,-4,-2,1,-2
18:03:36:562624,-4,-2,-1,-3,0,-2,0,-1
18:03:36:567151,0,-1,0,-1,-4,-3,0,3
18:03:36:574708,0,-1,0,-1,-4,-3,0,3
18:03:36:582152,2,2,-1,-2,0,0,-3,-5
18:03:36:590440,-2,3,-1,-2,1,3,2,-9
18:03:36:591187,-2,3,-1,-2,1,3,2,-9
18:03:36:597127,0,-2,-1,-2,0,1,-1,2
18:03:36:613256,-3,-1,0,-3,-1,-4,-1,-3
18:03:36:620555,-3,-1,0,-3,-1,-4,-1,-3
18:03:36:621105,-1,0,0,0,-1,3,-1,0
18:03:36:627152,-1,1,-1,0,1,-2,-1,-3
18:03:36:642857,-1,1,-1,0,1,-2,-1,-3
18:03:36:643638,-7,-3,-3,0,3,-3,-3,1
18:03:36:650379,0,-1,-4,2,6,0,0,-1
18:03:36:651175,0,-1,-4,2,6,0,0,-1
18:03:36:657243,-1,0,0,2,-2,1,-1,5
18:03:36:672957,-2,-2,-2,-2,-1,1,0,0
18:03:36:673669,-2,-2,-2,-2,-1,1,0,0
18:03:36:679606,-2,-3,1,-1,-7,-1,-1,-4
18:03:36:695341,1,-1,-2,0,-7,-1,-3,2
18:03:36:696183,1,-1,-2,0,-7,-1,-3,2
18:03:36:702316,2,-3,1,-2,-7,-2,2,-2
18:03:36:726019,2,-4,1,1,-3,0,-1,-1
18:03:36:726842,2,-4,1,1,-3,0,-1,-1
18:03:36:727627,-2,-1,-2,1,8,3,-5,-2
18:03:36:757415,-6,-1,-2,-2,-6,-4,1,4
18:03:36:758121,-6,-1,-2,-2,-6,-4,1,4
18:03:36:758967,0,0,-5,1,3,-6,1,-4
18:03:36:759760,-1,0,1,-3,2,1,-6,-5
18:03:36:763301,-1,0,1,-3,2,1,-6,-5
18:03:36:771127,2,-5,-1,-2,-1,-5,0,3
18:03:36:771814,-5,-2,-2,-2,0,0,-1,-1
18:03:36:772621,-5,-2,-2,-2,0,0,-1,-1
18:03:36:777115,-2,5,-3,1,-1,-4,2,-4
18:03:36:801031,-1,-3,2,0,-2,0,-3,-1
18:03:36:801925,-1,-3,2,0,-2,0,-3,-1
18:03:36:802666,1,-1,-1,-1,-1,-2,2,-5
18:03:36:807294,0,1,-2,0,-1,1,-3,-3
18:03:36:831746,0,1,-2,0,-1,1,-3,-3
18:03:36:832514,-6,1,1,-2,-3,-4,-2,-1
18:03:36:833299,0,-2,-1,-1,-6,1,-3,-2
18:03:36:834177,0,-2,-1,-1,-6,1,-3,-2
18:03:36:844693,0,-3,-2,0,0,0,-3,-4
18:03:36:853005,-3,-1,-1,-6,-2,-1,3,2
18:03:36:853635,-3,-1,-1,-6,-2,-1,3,2
18:03:36:859641,-1,1,0,-1,-2,3,1,6
18:03:36:867203,0,-2,-3,0,3,-5,0,0
18:03:36:874722,0,-2,-3,0,3,-5,0,0
18:03:36:882197,-2,2,-1,-4,-5,-1,0,-2
18:03:36:890464,2,-2,2,-2,-1,-4,-1,-2
18:03:36:891166,2,-2,2,-2,-1,-4,-1,-2
18:03:36:904818,-3,-5,0,1,-3,0,-3,0
18:03:36:929179,-1,-1,-3,-1,-2,0,4,3
18:03:36:929966,-1,-1,-3,-1,-2,0,4,3
18:03:36:930777,1,-2,1,0,-4,0,-3,-1
18:03:36:931592,4,-3,-1,1,3,-2,0,-2
18:03:36:934755,4,-3,-1,1,3,-2,0,-2
18:03:36:942170,0,-4,0,-3,5,2,-1,-6
18:03:36:950366,-8,2,-2,2,-5,0,-4,-4
18:03:36:951137,-8,2,-2,2,-5,0,-4,-4
18:03:36:957287,-1,2,2,-2,-1,-2,-2,2
18:03:36:972880,1,-2,-2,-1,-3,-4,1,1
18:03:36:973594,1,-2,-2,-1,-3,-4,1,1
18:03:36:979628,2,1,-1,-2,5,0,-2,2
18:03:36:995756,-1,-3,3,2,1,-1,-1,-3
18:03:37:3005,-1,-3,3,2,1,-1,-1,-3
18:03:37:3707,-4,-2,-1,0,-1,-1,-1,-1
18:03:37:10299,0,1,-1,2,1,2,0,-6
18:03:37:11108,0,1,-1,2,1,2,0,-6
18:03:37:17187,1,-2,-4,0,1,-1,-2,-2
18:03:37:32951,-4,0,2,-5,-3,-1,-2,4
18:03:37:33659,-4,0,2,-5,-3,-1,-2,4
18:03:37:47806,0,-1,-3,1,-5,-3,1,-6
18:03:37:48574,-3,-2,-4,-1,4,2,-4,-2
18:03:37:54800,-3,-2,-4,-1,4,2,-4,-2
18:03:37:71109,-4,1,2,-1,-2,-3,-1,3
18:03:37:71782,1,1,0,-5,-3,1,2,-1
18:03:37:72625,1,1,0,-5,-3,1,2,-1
18:03:37:77105,1,0,0,-2,1,-1,0,0
18:03:37:92823,5,0,-4,1,0,-1,-3,0
18:03:37:93620,5,0,-4,1,0,-1,-3,0
18:03:37:107855,1,-1,-2,2,-3,2,0,-6
18:03:37:108623,-4,-3,0,0,-3,-3,1,6
18:03:37:114660,-4,-3,0,0,-3,-3,1,6
18:03:37:130981,-1,-1,1,-3,0,-2,-2,-2
18:03:37:131755,0,0,1,-1,-4,-1,-2,-4
18:03:37:132606,0,0,1,-1,-4,-1,-2,-4
18:03:37:137298,0,-4,1,-2,-4,-2,-1,2
18:03:37:152993,0,0,-3,-3,4,0,4,-1
18:03:37:153663,0,0,-3,-3,4,0,4,-1
18:03:37:159659,-1,-2,-2,-1,2,1,-4,3
18:03:37:167172,2,-1,1,-1,3,0,-4,-3
18:03:37:182899,2,-1,1,-1,3,0,-4,-3
18:03:37:183642,0,-1,-3,0,-2,-1,-1,-2
18:03:37:206160,-3,-1,1,0,0,3,-1,-5
18:03:37:206843,-3,-1,1,0,0,3,-1,-5
18:03:37:207654,-1,-1,2,-1,-2,-1,-1,1
18:03:37:212817,2,-3,-4,-1,1,-4,-2,-5
18:03:37:213668,2,-3,-4,-1,1,-4,-2,-5
18:03:37:227159,2,3,0,-1,-4,-4,-3,-7
18:03:37:235594,-3,2,0,-1,1,1,-3,0
18:03:37:236148,-3,2,0,-1,1,1,-3,0
18:03:37:242146,-3,-5,-3,0,1,-1,1,1
18:03:37:257892,-2,-2,0,0,-3,-3,-3,2
18:03:37:258615,-2,-2,0,0,-3,-3,-3,2
18:03:37:273624,-4,0,0,-7,-1,0,2,1
18:03:37:274327,-1,2,-1,-1,-4,-2,2,1
18:03:37:275138,-1,2,-1,-1,-4,-2,2,1
18:03:37:279633,-1,-3,-2,1,1,-2,-1,-5
18:03:37:295382,0,-6,-1,-4,-1,0,1,0
18:03:37:296156,0,-6,-1,-4,-1,0,1,0
18:03:37:311011,5,-2,-1,-3,-3,0,-2,-1
18:03:37:311801,5,-2,-1,-3,-3,0,-2,-1
18:03:37:312633,1,3,-1,1,3,1,-5,-2
18:03:37:333518,-3,-2,1,-3,2,2,1,0
18:03:37:334295,-3,-2,1,-3,2,2,1,0
18:03:37:335201,-2,1,2,-2,-1,-4,-2,3
18:03:37:339770,-1,1,-2,0,-3,1,1,-5
18:03:37:363545,-1,1,-2,0,-3,1,1,-5
18:03:37:364333,-2,-4,1,1,-2,1,-4,-1
18:03:37:365148,-3,1,-4,3,-3,-1,0,1
18:03:37:370544,-3,1,-4,3,-3,-1,0,1
18:03:37:371200,1,-1,-2,1,-3,0,-1,-2
18:03:37:385311,0,-2,-1,2,0,-2,-4,4
18:03:37:392877,0,-2,-1,2,0,-2,-4,4
18:03:37:393660,-2,-3,-2,1,1,-3,-1,0
18:03:37:407282,1,2,-3,-5,-2,-3,-2,-4
18:03:37:415801,1,2,-3,-5,-2,-3,-2,-4
18:03:37:422887,-5,-4,-2,-6,3,-3,-1,1
18:03:37:423597,0,-3,-2,-3,1,-3,-2,0
18:03:37:430347,0,-3,-2,-3,1,-3,-2,0
18:03:37:431168,-1,-1,-4,0,1,2,1,-3
18:03:37:444633,-4,-1,0,4,-3,2,-6,-4
18:03:37:461012,-4,-1,0,4,-3,2,-6,-4
18:03:37:461803,0,0,-3,1,0,1,1,-4
18:03:37:462595,1,-2,1,-1,0,1,2,1
18:03:37:475447,1,-2,1,-1,0,1,2,1
18:03:37:476178,-2,2,1,-3,-1,-3,0,-1
18:03:37:498590,-2,-2,-3,1,-2,3,-1,-5
18:03:37:499345,-2,-2,-3,1,-2,3,-1,-5
18:03:37:500125,3,-1,-1,-4,0,-1,-1,0
18:03:37:504742,-1,-2,2,-5,-3,-2,1,0
18:03:37:512841,-1,-2,2,-5,-3,-2,1,0
18:03:37:513653,-4,-2,0,0,-9,-2,0,2
18:03:37:519800,-2,-1,1,1,-1,-5,-1,-2
18:03:37:536006,-2,-1,1,1,-1,-5,-1,-2
18:03:37:536642,0,-1,2,-2,-2,1,-1,0
18:03:37:551737,3,-2,-4,-1,4,0,2,3
18:03:37:552515,3,-2,-4,-1,4,0,2,3
18:03:37:553291,-2,0,-2,-1,-1,1,-2,-6
18:03:37:564663,0,1,-3,-3,0,-1,-2,-3
18:03:37:572974,0,1,-3,-3,0,-1,-2,-3
18:03:37:573684,4,-3,-3,-3,-2,-2,-6,0
18:03:37:587280,1,-2,1,-2,3,1,-4,-3
18:03:37:620011,1,-2,1,-2,3,1,-4,-3
18:03:37:620667,-6,-1,2,-2,2,-3,0,1
18:03:37:621450,-2,2,4,1,-4,2,0,1
18:03:37:622290,-2,2,4,1,-4,2,0,1
18:03:37:625323,-1,-1,-1,1,-1,0,-1,-9
18:03:37:626105,-5,0,-1,-6,-4,-1,-3,0
18:03:37:632837,-5,0,-1,-6,-4,-1,-3,0
18:03:37:633677,0,-1,0,-3,1,-3,0,2
18:03:37:639819,1,-3,-2,0,2,0,0,-3
18:03:37:663535,1,-3,-2,0,2,0,0,-3
18:03:37:664318,2,0,0,0,-2,-1,-1,2
18:03:37:665115,-1,-2,-5,-5,5,-4,-1,0
18:03:37:694890,-1,-2,-5,-5,5,-4,-1,0
18:03:37:695633,0,-2,-3,-1,1,-3,2,-1
18:03:37:696463,3,-2,0,1,-3,0,-4,-3
18:03:37:697293,3,-2,0,1,-3,0,-4,-3
18:03:37:700272,-1,-1,-2,1,1,-1,-1,-1
18:03:37:701071,-4,1,1,5,-4,-2,2,-4
18:03:37:715353,-4,1,1,5,-4,-2,2,-4
18:03:37:716140,-2,-2,0,-2,2,-1,-3,-3
18:03:37:722237,2,-3,0,-2,-1,-2,1,5
18:03:37:738098,2,-3,0,-2,-1,-2,1,5
18:03:37:738689,-1,1,-1,-2,1,1,-3,-2
18:03:37:744640,-4,-2,-3,1,-3,-5,-3,-3
18:03:37:753436,-4,-2,-3,1,-3,-5,-3,-3
18:03:37:760336,-1,-6,-2,-1,-2,2,-1,-2
18:03:37:761101,-3,3,-3,1,-2,4,-5,0
18:03:37:775431,-3,3,-3,1,-2,4,-5,0
18:03:37:776177,-2,-2,-4,-2,1,-4,0,-3
18:03:37:782153,-1,-2,0,-5,-3,1,0,-2
18:03:37:790444,-1,-2,0,-5,-3,1,0,-2
18:03:37:791141,1,-2,-2,-1,-1,2,-2,0
18:03:37:814166,3,-4,-2,0,1,0,1,4
18:03:37:814958,3,-4,-2,0,1,0,1,4
18:03:37:815791,-2,1,0,1,-7,-2,-1,-6
18:03:37:819783,-2,-1,1,-1,1,-2,2,-4
18:03:37:835615,-2,-1,1,-1,1,-2,2,-4
18:03:37:836141,-1,-2,-2,-3,2,1,1,1
18:03:37:842123,-1,0,1,3,3,-3,-7,-6
18:03:37:866071,-1,0,1,3,3,-3,-7,-6
18:03:37:866774,1,-2,1,-1,1,2,-1,-1
18:03:37:867589,-4,-2,-2,-2,2,2,0,2
18:03:37:881445,-4,-2,-2,-2,2,2,0,2
18:03:37:882245,-2,4,3,-2,-1,-3,-1,2
18:03:37:887266,-4,-6,-5,-3,1,-5,-1,1
18:03:37:895336,-4,-6,-5,-3,1,-5,-1,1
18:03:37:896112,-1,1,1,-1,-6,-1,0,-5
18:03:37:910970,1,1,0,-3,-3,-4,-2,0
18:03:37:911793,1,1,0,-3,-3,-4,-2,0
18:03:37:912588,0,-6,-1,1,0,2,0,2
18:03:37:933544,1,3,1,1,9,-1,0,2
18:03:37:934322,1,3,1,1,9,-1,0,2
18:03:37:935217,-7,0,1,-1,-7,-2,-3,2
18:03:37:939726,3,-3,-2,-3,-2,1,1,-4
18:03:37:955349,3,-3,-2,-3,-2,1,1,-4
18:03:37:962794,0,3,0,0,0,0,-1,-5
18:03:37:963573,-2,-2,-1,-3,-5,-2,-5,-4
18:03:37:970441,-2,-2,-1,-3,-5,-2,-5,-4
18:03:37:971149,-2,1,-1,-3,2,0,-1,-4
18:03:37:984674,-2,1,2,0,-5,-3,-3,1
18:03:37:992820,-2,1,2,0,-5,-3,-3,1
18:03:37:993636,3,-6,-1,0,-2,-3,2,3
18:03:38:7240,1,4,-1,0,-2,1,1,-1
18:03:38:15350,1,4,-1,0,-2,1,1,-1
18:03:38:16151,-1,-2,-2,0,1,-3,-3,-2
18:03:38:38629,-2,-7,-5,-3,-1,-2,2,1
18:03:38:39349,-2,-7,-5,-3,-1,-2,2,1
18:03:38:40154,3,3,-6,-2,-1,-3,1,-1
18:03:38:44621,-1,0,-4,-2,1,0,0,5
18:03:38:61088,-1,0,-4,-2,1,0,0,5
18:03:38:61811,-7,-3,4,-1,-3,-3,-5,-4
18:03:38:62633,0,4,1,-5,-4,-1,-3,-8
18:03:38:75386,0,4,1,-5,-4,-1,-3,-8
18:03:38:76165,-2,-5,-4,-2,-4,2,-1,4
18:03:38:82140,0,-6,0,-1,-5,0,0,1
18:03:38:90478,0,-6,0,-1,-5,0,0,1
18:03:38:91212,3,7,2,0,5,0,-2,-5
18:03:38:113525,-7,-4,-5,-1,-4,-3,0,-3
18:03:38:114323,-7,-4,-5,-1,-4,-3,0,-3
18:03:38:115101,-2,-2,-4,0,-5,1,0,0
18:03:38:136246,2,-3,0,2,3,1,-3,0
18:03:38:136843,2,-3,0,2,3,1,-3,0
18:03:38:137669,0,4,-4,1,3,-1,-1,-4
18:03:38:142148,-4,-2,1,1,-2,0,-2,-2
18:03:38:157966,-4,-2,1,1,-2,0,-2,-2
18:03:38:158659,0,0,2,3,2,0,-3,-3
18:03:38:164647,0,-3,-4,1,5,-1,0,-2
18:03:38:180354,0,-3,-4,1,5,-1,0,-2
18:03:38:181137,0,-3,4,-1,-1,0,-3,2
18:03:38:187327,-2,-2,0,-4,-2,-3,-2,-1
18:03:38:195414,-2,-2,0,-4,-2,-3,-2,-1
18:03:38:196145,0,0,-3,-3,-3,-2,0,2
18:03:38:202415,-2,4,-1,5,3,2,0,3
18:03:38:209711,-2,4,-1,5,3,2,0,3
18:03:38:217151,0,0,-2,0,1,-1,-1,1
18:03:38:224732,-2,-1,4,1,-3,-2,-1,-2
18:03:38:232918,-2,-1,4,1,-3,-2,-1,-2
18:03:38:233672,0,-3,1,1,-10,-1,-1,-2
18:03:38:247157,7,9,0,1,0,0,0,-2
18:03:38:255474,7,9,0,1,0,0,0,-2
18:03:38:256188,-1,-1,-1,-2,-1,0,-1,-6
18:03:38:262133,-6,-3,-1,-8,3,1,-4,-10
18:03:38:269934,-6,-3,-1,-8,3,1,-4,-10
18:03:38:277165,-5,-3,-4,-4,1,0,-2,-4
18:03:38:284677,3,-9,-3,-3,0,-7,1,7
18:03:38:292858,3,-9,-3,-3,0,-7,1,7
18:03:38:293619,-1,4,-1,-2,2,2,1,7
18:03:38:307221,0,3,-2,1,-4,2,-2,0
18:03:38:315424,0,3,-2,1,-4,2,-2,0
18:03:38:316175,2,-2,-2,-2,3,1,-1,-3
18:03:38:322300,8,4,4,-3,0,-2,4,-1
18:03:38:329669,8,4,4,-3,0,-2,4,-1
18:03:38:337271,0,-4,-1,0,0,0,-2,-7
18:03:38:344671,-8,0,-2,-1,-3,-1,-3,-2
18:03:38:353032,-8,0,-2,-1,-3,-1,-3,-2
18:03:38:353657,-1,0,0,-1,-3,-3,0,0
18:03:38:367216,-1,4,-3,0,-4,2,1,-2
18:03:38:375363,-1,4,-3,0,-4,2,1,-2
18:03:38:376174,2,3,2,1,0,-1,0,-1
18:03:38:390425,-1,2,-2,-2,-5,0,-4,-2
18:03:38:391125,-1,2,-2,-2,-5,0,-4,-2
18:03:38:397139,-3,-4,-1,-1,-1,-4,-1,3
18:03:38:404748,2,4,2,-3,3,-5,-3,-10
18:03:38:412852,2,4,2,-3,3,-5,-3,-10
18:03:38:413617,-2,-6,-1,-1,-6,-5,1,10
18:03:38:427143,0,-3,-3,2,-4,-1,1,5
18:03:38:443515,0,-3,-3,2,-4,-1,1,5
18:03:38:444317,1,2,2,0,-4,-1,-5,-9
18:03:38:445112,-4,-2,-2,-1,3,1,-4,-1
18:03:38:449739,-4,-2,-2,-1,3,1,-4,-1
18:03:38:457247,-2,-2,-4,-2,2,-2,1,-1
18:03:38:480995,-2,0,2,-1,0,0,-1,-2
18:03:38:481791,-2,0,2,-1,0,0,-1,-2
18:03:38:482588,-3,-5,-4,-4,1,2,-2,0
18:03:38:504635,-2,-6,-3,-2,-3,-1,0,-5
18:03:38:505434,-2,-6,-3,-2,-3,-1,0,-5
18:03:38:506221,2,-4,-1,0,-3,0,-2,-5
18:03:38:518755,-3,-2,2,0,1,-5,-1,-1
18:03:38:519385,-3,-2,2,0,1,-5,-1,-1
18:03:38:520161,0,-2,-1,1,-1,-1,2,2
18:03:38:533542,-3,-3,-2,4,-1,2,-3,-8
18:03:38:534292,-3,-3,-2,4,-1,2,-3,-8
18:03:38:535141,-1,4,-1,-5,-3,-3,-2,1
18:03:38:547177,1,-4,-4,-1,-1,-1,1,4
18:03:38:563488,1,-4,-4,-1,-1,-1,1,4
18:03:38:564264,-2,-2,4,-1,3,-2,0,-3
18:03:38:565085,-3,-1,-1,0,1,2,2,-3
18:03:38:569839,-3,-1,-1,0,1,2,2,-3
18:03:38:585549,2,-3,-3,0,-2,-2,-2,-6
18:03:38:586146,0,-1,4,-1,0,1,2,3
18:03:38:592832,0,-1,4,-1,0,1,2,3
18:03:38:593608,-3,4,-1,-2,5,5,-2,-3
18:03:38:616106,2,-1,-3,0,-9,-4,-3,5
18:03:38:616812,2,-1,-3,0,-9,-4,-3,5
18:03:38:617627,-1,-4,-1,-1,-4,-3,-2,-3
18:03:38:622303,1,-10,-5,-5,2,-4,0,0
18:03:38:629712,1,-10,-5,-5,2,-4,0,0
18:03:38:637212,-1,-1,2,1,-6,0,1,7
18:03:38:644645,-7,3,4,-2,3,4,-3,-5
18:03:38:660393,-7,3,4,-2,3,4,-3,-5
18:03:38:661169,-1,3,-2,-3,-1,-1,0,1
18:03:38:667197,0,-4,1,-2,0,-4,-2,-1
18:03:38:675373,0,-4,1,-2,0,-4,-2,-1
18:03:38:676169,-3,-3,-1,-1,3,-3,1,-4
18:03:38:690445,-3,1,-4,-4,1,2,-5,-5
18:03:38:691171,-3,1,-4,-4,1,2,-5,-5
18:03:38:697110,3,-5,-2,-1,-8,1,0,5
18:03:38:704782,0,-3,0,-2,2,-3,0,3
18:03:38:712832,0,-3,0,-2,2,-3,0,3
18:03:38:713645,-1,-2,-2,1,-2,-2,-1,-2
18:03:38:727145,-3,0,-1,-2,2,1,-1,-3
18:03:38:735574,-3,0,-1,-2,2,1,-1,-3
18:03:38:736185,-5,5,0,-2,3,1,-5,-9
18:03:38:742132,2,-5,-3,-3,1,-4,1,5
18:03:38:749716,2,-5,-3,-3,1,-4,1,5
18:03:38:757219,-6,-2,2,-3,0,0,-3,-1
18:03:38:764662,-2,-1,-2,0,-6,0,-4,1
18:03:38:772927,-2,-1,-2,0,-6,0,-4,1
18:03:38:773627,-1,-1,-2,-1,0,0,-2,-5
18:03:38:787213,-3,4,-1,-2,1,-1,0,-6
18:03:38:795318,-3,4,-1,-2,1,-1,0,-6
18:03:38:796122,4,-5,-5,-1,2,0,-2,-2
18:03:38:802336,-2,0,3,1,-2,0,-4,-4
18:03:38:809719,-2,0,3,1,-2,0,-4,-4
18:03:38:817148,-1,4,-1,-2,1,-2,0,-4
18:03:38:824808,2,-1,1,0,-5,2,-3,6
18:03:38:832935,2,-1,1,0,-5,2,-3,6
18:03:38:833631,1,2,2,0,-2,-2,0,0
18:03:38:847179,1,-2,1,-2,1,-3,1,0
18:03:38:863553,1,-2,1,-2,1,-3,1,0
18:03:38:864355,-2,-4,0,-3,-3,-1,0,2
18:03:38:865169,-1,-1,-3,1,-5,-6,-10,-7
18:03:38:869867,-1,-1,-3,1,-5,-6,-10,-7
18:03:38:877157,-4,-1,0,-3,2,-4,4,7
18:03:38:884712,-3,4,-3,2,-2,4,6,3
18:03:38:892835,-3,4,-3,2,-2,4,6,3
18:03:38:893633,1,-1,0,0,1,3,-2,-1
18:03:38:907252,-1,0,-2,1,1,1,3,-1
18:03:38:915332,-1,0,-2,1,1,1,3,-1
18:03:38:916118,1,1,0,4,2,5,-3,-1
18:03:38:922331,-2,-6,1,1,-8,-3,-3,-7
18:03:38:938042,-2,-6,1,1,-8,-3,-3,-7
18:03:38:938734,3,2,-2,1,-4,-4,2,3
18:03:38:944668,2,2,1,-1,8,5,2,0
18:03:38:953022,2,2,1,-1,8,5,2,0
18:03:38:953640,-4,-5,-1,1,0,-1,-2,-4
18:03:38:967145,7,3,2,1,-5,-2,0,2
18:03:38:975333,7,3,2,1,-5,-2,0,2
18:03:38:976123,-1,-4,-1,-6,-3,-2,-2,3
18:03:38:982140,-6,0,-4,-2,-1,0,0,-4
18:03:38:989749,-6,0,-4,-2,-1,0,0,-4
18:03:38:997106,2,4,1,-4,-5,1,1,-1
18:03:39:4725,-2,5,-4,-4,4,-5,-5,-1
18:03:39:12839,-2,5,-4,-4,4,-5,-5,-1
18:03:39:13634,1,-1,-1,-2,-2,-1,1,-7
18:03:39:27159,0,-4,-4,1,-3,3,-2,1
18:03:39:35559,0,-4,-4,1,-3,3,-2,1
18:03:39:36341,2,0,-4,-2,0,-1,-3,-5
18:03:39:42142,-4,-3,0,-2,3,-4,3,-6
18:03:39:49726,-4,-3,0,-2,3,-4,3,-6
18:03:39:65326,-3,1,-2,5,-3,2,-4,0
18:03:39:66125,-4,0,1,-5,5,-5,-3,0
18:03:39:72259,-4,0,1,-5,5,-5,-3,0
18:03:39:79617,4,-1,-1,3,0,-3,2,10
18:03:39:87320,3,-5,5,1,-2,-3,0,5
18:03:39:95368,3,-5,5,1,-2,-3,0,5
18:03:39:96185,-10,2,1,-5,2,2,-5,-4
18:03:39:110346,2,0,-3,-3,1,-2,-1,4
18:03:39:111141,2,0,-3,-3,1,-2,-1,4
18:03:39:117124,-1,-2,2,6,1,-5,-2,-6
18:03:39:124741,2,-2,-1,-1,-7,3,1,-4
18:03:39:140430,2,-2,-1,-1,-7,3,1,-4
18:03:39:141129,-1,1,-2,-3,1,0,2,-4
18:03:39:147171,-3,1,0,1,2,-5,-6,-5
18:03:39:155491,-3,1,0,1,2,-5,-6,-5
18:03:39:156171,-1,-1,1,0,-1,0,-9,-7
18:03:39:170489,-1,-8,-3,-1,-5,1,1,5
18:03:39:171149,-1,-8,-3,-1,-5,1,1,5
18:03:39:177196,1,0,0,-1,-4,8,10,0
18:03:39:192912,1,-2,-2,4,-3,2,-10,-2
18:03:39:193695,1,-2,-2,4,-3,2,-10,-2
18:03:39:199640,-4,-6,0,-2,-7,-3,4,14
18:03:39:207224,0,6,-3,-4,3,-13,4,-8
18:03:39:215282,0,6,-3,-4,3,-13,4,-8
18:03:39:216171,-6,-1,-2,-5,6,15,3,-4
18:03:39:230405,-2,-2,0,-2,-5,-5,-2,-11
18:03:39:231190,-2,-2,0,-2,-5,-5,-2,-11
18:03:39:237195,-3,3,-2,-6,2,-11,8,-1
18:03:39:244657,3,0,0,-1,1,2,5,1
18:03:39:268754,3,0,0,-1,1,2,5,1
18:03:39:269333,3,2,5,-1,0,-7,-10,-2
18:03:39:270099,-8,-5,-1,-5,-1,6,2,0
18:03:39:275398,-8,-5,-1,-5,-1,6,2,0
18:03:39:276178,2,2,-2,1,-5,-19,-4,2
18:03:39:290431,0,-2,4,-2,7,4,-4,-4
18:03:39:291208,0,-2,4,-2,7,4,-4,-4
18:03:39:297123,1,-8,-4,1,-3,-5,-2,-2
18:03:39:304684,-2,8,7,0,0,10,1,1
18:03:39:312229,-2,8,7,0,0,10,1,1
18:03:39:319775,1,-3,-2,-3,0,12,-11,-6
18:03:39:327146,2,-6,-6,0,-7,8,5,6
18:03:39:342854,2,-6,-6,0,-7,8,5,6
18:03:39:343666,-8,-4,-2,-1,2,13,-2,-16
18:03:39:350369,-3,-1,-1,2,-2,12,1,-4
18:03:39:351151,-3,-1,-1,2,-2,12,1,-4
18:03:39:357223,4,-5,2,-2,-3,-23,-1,16
18:03:39:364632,-1,5,-1,-7,3,-11,2,5
18:03:39:372338,-1,5,-1,-7,3,-11,2,5
18:03:39:379628,-6,0,1,-3,1,4,-3,-9
18:03:39:395991,5,8,2,-2,2,-7,-3,3
18:03:39:396797,5,8,2,-2,2,-7,-3,3
18:03:39:397626,-5,-4,-3,-4,0,15,-3,-9
18:03:39:418621,1,-11,-4,-1,-7,-5,-6,-7
18:03:39:419354,1,-11,-4,-1,-7,-5,-6,-7
18:03:39:420117,-5,-1,-2,-2,0,-17,0,-2
18:03:39:424718,3,0,-3,-2,-1,-15,3,7
18:03:39:432238,3,0,-3,-2,-1,-15,3,7
18:03:39:439730,-1,4,-1,0,3,-11,-4,-11
18:03:39:447134,-4,-1,-2,-2,-4,-4,-1,-3
18:03:39:455492,-4,-1,-2,-2,-4,-4,-1,-3
18:03:39:456175,3,-11,-3,1,1,-13,-1,11
18:03:39:470428,-8,-6,-7,-3,4,4,-4,-2
18:03:39:471151,-8,-6,-7,-3,4,4,-4,-2
18:03:39:477120,1,-10,-11,3,2,20,6,10
18:03:39:492838,-1,-7,-10,2,0,12,-1,9
18:03:39:493617,-1,-7,-10,2,0,12,-1,9
18:03:39:499639,9,3,-1,-3,-5,-13,-10,1
18:03:39:507215,-1,-5,-2,-5,0,13,7,0
18:03:39:515340,-1,-5,-2,-5,0,13,7,0
18:03:39:516146,-2,0,-7,0,-1,6,4,4
18:03:39:530336,1,6,7,-2,-5,7,-3,3
18:03:39:531135,1,6,7,-2,-5,7,-3,3
18:03:39:545388,-4,-3,-3,-3,-1,13,-1,-5
18:03:39:546105,-2,8,3,0,-6,-24,-6,-17
18:03:39:552410,-2,8,3,0,-6,-24,-6,-17
18:03:39:559702,-6,-18,1,-2,-4,-5,-12,-7
18:03:39:567198,0,8,3,1,4,-1,7,4
18:03:39:575425,0,8,3,1,4,-1,7,4
18:03:39:576138,3,9,3,-2,-3,3,11,4
18:03:39:590414,-3,-6,-3,-1,-1,-3,-1,-6
18:03:39:591147,-3,-6,-3,-1,-1,-3,-1,-6
18:03:39:597176,-7,5,-3,-4,2,-3,6,-5
18:03:39:604786,1,8,7,2,-1,7,-3,6
18:03:39:620543,1,8,7,2,-1,7,-3,6
18:03:39:621105,-1,4,6,3,0,19,-1,-13
18:03:39:627150,-9,0,1,-8,-4,-2,-2,-5
18:03:39:635528,-9,0,1,-8,-4,-2,-2,-5
18:03:39:636169,6,6,4,1,1,-4,-5,11
18:03:39:650313,1,-2,5,3,7,10,1,-3
18:03:39:651132,1,-2,5,3,7,10,1,-3
18:03:39:657262,0,5,-1,0,-5,-15,1,4
18:03:39:664631,1,-4,-6,-2,5,-6,-3,-6
18:03:39:680380,1,-4,-6,-2,5,-6,-3,-6
18:03:39:681162,-9,-14,-2,-2,-9,-17,-3,8
18:03:39:695117,-5,-4,-2,1,-8,-5,-2,-15
18:03:39:703032,-5,-4,-2,1,-8,-5,-2,-15
18:03:39:703690,-3,11,15,-3,2,-13,-4,-1
18:03:39:710351,1,-7,-3,2,-5,2,0,-1
18:03:39:711157,1,-7,-3,2,-5,2,0,-1
18:03:39:717181,5,2,-7,-4,-6,5,-1,2
18:03:39:724705,-4,-10,6,-2,-4,-1,-2,11
18:03:39:732230,-4,-10,6,-2,-4,-1,-2,11
18:03:39:747808,6,11,2,1,3,-1,5,-6
18:03:39:748563,5,3,1,-3,0,3,-6,15
18:03:39:755495,5,3,1,-3,0,3,-6,15
18:03:39:756160,1,1,2,-1,2,1,-1,2
18:03:39:770238,3,7,1,-1,-1,-13,2,2
18:03:39:786201,3,7,1,-1,-1,-13,2,2
18:03:39:786769,6,4,1,-2,-1,-4,-3,1
18:03:39:787603,-5,-18,1,-7,1,4,-12,-8
18:03:39:792197,-5,-18,1,-7,1,4,-12,-8
18:03:39:799632,1,3,0,0,-1,7,-3,-2
18:03:39:807286,2,6,-2,2,-6,-10,-4,-4
18:03:39:822943,2,6,-2,2,-6,-10,-4,-4
18:03:39:823642,-3,-19,-11,1,1,8,0,18
18:03:39:830303,5,0,-2,0,2,8,8,22
18:03:39:831154,5,0,-2,0,2,8,8,22
18:03:39:837210,-2,1,-2,0,2,6,1,-5
18:03:39:844630,1,-2,-2,-3,-4,-3,8,20
18:03:39:852441,1,-2,-2,-3,-4,-3,8,20
18:03:39:859640,-12,-14,-6,-1,-2,-24,-4,-13
18:03:39:867150,-5,1,-9,-1,7,-1,-11,-27
18:03:39:875387,-5,1,-9,-1,7,-1,-11,-27
18:03:39:876150,8,9,7,4,-4,0,5,6
18:03:39:898500,2,-7,-5,1,0,6,5,20
18:03:39:899288,2,-7,-5,1,0,6,5,20
18:03:39:900084,-5,-12,-7,-7,2,5,-6,-19
18:03:39:904722,-7,10,-6,3,5,10,-4,-40
18:03:39:912198,-7,10,-6,3,5,10,-4,-40
18:03:39:919787,8,11,-4,-1,-7,-14,4,8
18:03:39:927137,-1,-21,-7,3,3,-11,4,18
18:03:39:935612,-1,-21,-7,3,3,-11,4,18
18:03:39:936191,-7,-6,-4,-10,-4,-18,-9,-16
18:03:39:950387,4,1,-3,-4,0,-6,1,-1
18:03:39:951198,4,1,-3,-4,0,-6,1,-1
18:03:39:957219,-2,-3,1,-1,2,10,-6,-7
18:03:39:964608,1,29,5,-2,-4,10,-10,-10
18:03:39:972364,1,29,5,-2,-4,10,-10,-10
18:03:39:987882,-4,-17,-3,3,1,-1,15,8
18:03:39:988611,1,-6,-3,-4,3,-4,-11,-1
18:03:39:995356,1,-6,-3,-4,3,-4,-11,-1
18:03:39:996162,-8,21,-2,-1,0,15,-2,4
18:03:40:10344,11,-11,-4,-4,-10,-6,0,18
18:03:40:11143,11,-11,-4,-4,-10,-6,0,18
18:03:40:17127,-16,-22,7,1,-3,16,-5,-24
18:03:40:32904,-5,24,12,1,0,0,-5,-25
18:03:40:33645,-5,24,12,1,0,0,-5,-25
18:03:40:47826,3,-19,-11,4,-1,9,14,17
18:03:40:48619,-15,-21,6,-3,-4,-19,-11,-33
18:03:40:54743,-15,-21,6,-3,-4,-19,-11,-33
18:03:40:62149,5,15,0,-1,-3,-23,-5,-14
18:03:40:70473,2,-13,-8,-3,-3,-17,6,44
18:03:40:71161,2,-13,-8,-3,-3,-17,6,44
18:03:40:77119,-9,7,10,5,1,-2,-7,-23
18:03:40:92838,-2,4,1,5,-2,2,12,5
18:03:40:93631,-2,4,1,5,-2,2,12,5
18:03:40:99688,6,-11,-1,-5,3,12,6,19
18:03:40:107302,-6,16,8,1,2,-5,-12,-45
18:03:40:114685,-6,16,8,1,2,-5,-12,-45
18:03:40:122280,13,-9,0,0,-1,-8,2,23
18:03:40:130319,-10,-4,-8,-8,6,6,-4,-13
18:03:40:131151,-10,-4,-8,-8,6,6,-4,-13
18:03:40:137245,-3,14,-3,-3,-4,-1,-2,-15
18:03:40:153043,8,-15,-2,-1,-5,-6,11,51
18:03:40:153652,8,-15,-2,-1,-5,-6,11,51
18:03:40:159635,-10,22,1,-4,0,-17,-22,-24
18:03:40:167160,0,-3,-5,0,-3,6,1,-13
18:03:40:174692,0,-3,-5,0,-3,6,1,-13
18:03:40:191051,0,-25,1,-7,2,11,6,33
18:03:40:191774,3,16,-1,-2,-3,10,-5,-10
18:03:40:192611,3,16,-1,-2,-3,10,-5,-10
18:03:40:197074,-9,-15,-11,-2,-1,0,-4,-15
18:03:40:212791,-3,-5,-5,1,0,-6,-9,-5
18:03:40:213634,-3,-5,-5,1,0,-6,-9,-5
18:03:40:219885,13,-4,-8,-4,-1,-1,10,33
18:03:40:235541,-20,-12,-2,4,1,11,-11,-33
18:03:40:236178,-20,-12,-2,4,1,11,-11,-33
18:03:40:251041,11,11,6,3,-3,-4,1,-14
18:03:40:251887,-2,-20,3,-5,0,12,13,19
18:03:40:252780,-2,-20,3,-5,0,12,13,19
18:03:40:257247,-1,47,4,2,5,41,-12,-29
18:03:40:272943,9,-2,-2,0,-6,4,17,34
18:03:40:273668,9,-2,-2,0,-6,4,17,34
18:03:40:279618,-12,15,3,2,-3,-11,-2,-1
18:03:40:287286,-3,-8,-1,1,1,6,-3,-12
18:03:40:311729,-3,-8,-1,1,1,6,-3,-12
18:03:40:312506,-2,-17,-8,-4,-4,-27,-4,-8
18:03:40:313332,3,14,-5,-8,-2,-22,1,2
18:03:40:314140,3,14,-5,-8,-2,-22,1,2
18:03:40:324700,-4,-32,-8,0,0,0,-2,4
18:03:40:332903,2,10,-1,-1,3,2,0,-19
18:03:40:333647,2,10,-1,-1,3,2,0,-19
18:03:40:339753,-8,-19,-6,4,-5,7,9,10
18:03:40:347154,-1,7,-2,-2,-6,-2,-7,-1
18:03:40:362900,-1,7,-2,-2,-6,-2,-7,-1
18:03:40:363672,2,-7,2,-2,6,-3,4,17
18:03:40:378525,0,-16,2,1,1,8,-7,-10
18:03:40:379330,0,-16,2,1,1,8,-7,-10
18:03:40:380148,9,16,3,-2,-6,-29,-4,7
18:03:40:392836,-1,16,1,1,2,-14,-6,3
18:03:40:393633,-1,16,1,1,2,-14,-6,3
18:03:40:399660,0,0,4,1,3,6,6,17
18:03:40:415363,-7,-12,2,0,1,-11,-1,-15
18:03:40:416153,-7,-12,2,0,1,-11,-1,-15
18:03:40:422289,9,29,2,1,-2,-1,-5,-6
18:03:40:430330,-2,-17,-1,1,-4,3,9,17
18:03:40:431168,-2,-17,-1,1,-4,3,9,17
18:03:40:444610,4,2,-2,-1,1,5,-1,-5
18:03:40:453037,-11,-17,-1,1,1,-5,-3,-9
18:03:40:453716,-11,-17,-1,1,1,-5,-3,-9
18:03:40:459642,8,8,5,-3,4,8,1,10
18:03:40:467155,-17,-29,-4,-1,-6,6,3,-24
18:03:40:474837,-17,-29,-4,-1,-6,6,3,-24
18:03:40:482155,-3,18,4,3,-1,-8,-6,-13
18:03:40:490887,-4,-22,-7,1,6,-8,4,11
18:03:40:497872,-4,-22,-7,1,6,-8,4,11
18:03:40:498675,-10,-2,6,0,-5,6,-6,-33
18:03:40:512866,-6,-2,1,1,-3,-4,-3,-10
18:03:40:513668,-6,-2,1,1,-3,-4,-3,-10
18:03:40:519794,-10,-12,-8,-6,1,-16,-10,-10
18:03:40:527140,15,20,0,-3,2,4,5,28
18:03:40:534735,15,20,0,-3,2,4,5,28
18:03:40:542184,7,17,5,1,-4,13,-2,1
18:03:40:550366,7,17,5,1,-4,13,-2,1
18:03:40:551114,15,6,0,-6,-2,3,-9,-5
18:03:40:557265,-7,-30,-14,1,-2,1,3,2
18:03:40:573043,-7,-30,-14,1,-2,1,3,2
18:03:40:573672,-4,14,-2,3,-5,22,-2,-8
18:03:40:579640,1,-9,-1,-1,-4,-2,1,8
18:03:40:603680,1,-9,-1,-1,-4,-2,1,8
18:03:40:604300,-2,-22,-14,-4,6,-3,2,7
18:03:40:605113,1,0,-2,-4,3,-13,-7,21
18:03:40:610341,1,0,-2,-4,3,-13,-7,21
18:03:40:611140,-2,5,1,-2,-2,3,-6,-21
18:03:40:617171,11,12,3,-1,-1,5,3,-2
18:03:40:632880,11,12,3,-1,-1,5,3,-2
18:03:40:633639,-1,6,-6,1,-1,-7,-4,0
18:03:40:639724,-14,-19,2,1,-2,4,3,-11
18:03:40:655456,-14,-19,2,1,-2,4,3,-11
18:03:40:656165,3,9,8,-2,1,6,-3,16
18:03:40:671097,-8,-14,-15,-3,-1,-8,6,-5
18:03:40:671798,-8,-14,-15,-3,-1,-8,6,-5
18:03:40:672610,1,9,-4,-2,2,0,5,-37
18:03:40:684650,-11,-22,-7,-2,0,14,-5,-56
18:03:40:692906,-11,-22,-7,-2,0,14,-5,-56
18:03:40:693680,9,-4,-3,-2,-4,-10,1,17
18:03:40:707237,13,7,3,-2,2,-9,0,11
18:03:40:715364,13,7,3,-2,2,-9,0,11
18:03:40:716210,0,14,9,0,-6,2,2,-6
18:03:40:722260,-3,0,6,-4,4,13,3,4
18:03:40:730367,-3,0,6,-4,4,13,3,4
18:03:40:731174,5,21,13,1,-6,-3,6,25
18:03:40:737237,0,10,-2,0,-3,1,7,20
18:03:40:753040,0,10,-2,0,-3,1,7,20
18:03:40:753687,-6,6,11,-5,4,4,-13,10
18:03:40:784173,-8,-16,4,-1,0,2,2,6
18:03:40:784969,-8,-16,4,-1,0,2,2,6
18:03:40:785803,8,17,4,2,-2,-18,3,22
18:03:40:786608,-8,-24,-5,-2,-2,3,-5,-21
18:03:40:790497,-8,-24,-5,-2,-2,3,-5,-21
18:03:40:791176,11,7,-11,-4,1,0,-1,-2
18:03:40:804763,-5,-9,-8,1,-3,9,-1,19
18:03:40:812909,-5,-9,-8,1,-3,9,-1,19
18:03:40:813672,-11,-2,-2,1,-7,2,-9,-12
18:03:40:819829,5,-2,-6,-2,-1,-3,-3,14
18:03:40:835599,5,-2,-6,-2,-1,-3,-3,14
18:03:40:836156,-12,-19,-8,-4,0,15,-4,-18
18:03:40:842128,6,7,6,-2,0,-23,3,2
18:03:40:850394,6,7,6,-2,0,-23,3,2
18:03:40:851196,-4,-19,-1,-2,-1,-6,5,6
18:03:40:864662,1,7,2,-1,0,-15,-7,1
18:03:40:872971,1,7,2,-1,0,-15,-7,1
18:03:40:873663,0,9,15,2,2,8,2,15
18:03:40:895960,-4,2,-5,2,-4,17,-2,-27
18:03:40:896799,-4,2,-5,2,-4,17,-2,-27
18:03:40:897608,-7,-13,-7,-7,-2,-13,0,-20
18:03:40:902311,9,9,6,2,-3,-3,0,-5
18:03:40:910382,9,9,6,2,-3,-3,0,-5
18:03:40:911145,3,-7,-1,1,0,13,-5,-2
18:03:40:917150,-5,15,8,-2,0,19,-2,-1
18:03:40:932929,-5,15,8,-2,0,19,-2,-1
18:03:40:933629,1,-6,-4,-3,-2,0,-4,12
18:03:40:939714,-3,-4,-2,-6,2,-10,-2,2
18:03:40:963478,-3,-4,-2,-6,2,-10,-2,2
18:03:40:964260,-7,6,0,1,4,11,11,-12
18:03:40:965082,-7,-8,-5,0,1,-1,0,1
18:03:40:971134,-7,-8,-5,0,1,-1,0,1
18:03:40:971855,4,0,-7,-1,-1,-2,1,-3
18:03:40:984668,-5,-16,2,-3,-2,-22,-2,9
18:03:40:992831,-5,-16,2,-3,-2,-22,-2,9
18:03:40:993602,4,8,3,5,-1,-2,-2,7
18:03:41:7228,15,12,3,1,-2,-10,4,31
18:03:41:15354,15,12,3,1,-2,-10,4,31
18:03:41:16218,-4,4,-4,-2,-2,6,-8,-22
18:03:41:22282,3,1,-2,-1,-2,31,3,-14
18:03:41:30334,3,1,-2,-1,-2,31,3,-14
18:03:41:31157,-1,-3,-6,-5,-4,-21,-1,13
18:03:41:44662,1,9,-1,0,0,2,-2,-6
18:03:41:53042,1,9,-1,0,0,2,-2,-6
18:03:41:53757,-1,-8,-4,0,2,-12,0,-4
18:03:41:59677,0,14,2,0,-9,-8,-1,-7
18:03:41:83525,0,14,2,0,-9,-8,-1,-7
18:03:41:84325,6,7,0,-7,3,-3,2,1
18:03:41:85161,-5,8,18,-4,5,8,3,-11
18:03:41:90895,-5,8,18,-4,5,8,3,-11
18:03:41:97128,5,-3,0,-3,0,13,-3,14
18:03:41:104785,1,-6,-1,0,-2,-1,-12,-19
18:03:41:112894,1,-6,-1,0,-2,-1,-12,-19
18:03:41:113687,3,23,-2,-2,1,11,3,-13
18:03:41:119788,-8,-20,-11,1,-2,-14,-4,-4
18:03:41:135570,-8,-20,-11,1,-2,-14,-4,-4
18:03:41:136169,-4,-3,6,1,-3,-9,-4,8
18:03:41:142159,-4,-2,-5,-1,-1,-2,0,8
18:03:41:151023,-4,-2,-5,-1,-1,-2,0,8
18:03:41:151812,-8,-23,0,5,-7,-8,-1,-30
18:03:41:173669,0,-1,-8,-1,1,-4,-1,16
18:03:41:174307,0,-1,-8,-1,1,-4,-1,16
18:03:41:175105,7,-3,-9,3,3,-30,-4,-6
18:03:41:179658,10,9,1,0,-5,-13,-7,9
18:03:41:187284,10,9,1,0,-5,-13,-7,9
18:03:41:194670,-21,-15,-5,1,-1,4,-2,-16
18:03:41:202417,9,-2,-2,2,2,4,6,16
18:03:41:210390,9,-2,-2,2,2,4,6,16
18:03:41:211174,2,7,-4,-2,-6,5,0,18
18:03:41:224667,-7,5,3,-2,-1,15,4,5
18:03:41:241181,-7,5,3,-2,-1,15,4,5
18:03:41:241779,0,-6,0,-2,-1,-4,7,26
18:03:41:242602,-5,-3,1,2,-3,-5,1,-1
18:03:41:247178,-5,-3,1,2,-3,-5,1,-1
18:03:41:262850,3,-2,2,2,-2,0,-1,-21
18:03:41:263592,0,-22,-6,-2,1,0,6,9
18:03:41:270476,0,-22,-6,-2,1,0,6,9
18:03:41:271129,-5,15,4,-4,-2,4,-5,-5
18:03:41:284667,-6,-2,0,1,-1,5,-3,-26
18:03:41:292907,-6,-2,0,1,-1,5,-3,-26
18:03:41:293669,-7,-10,0,1,-1,13,-4,-15
18:03:41:299668,-10,-11,-6,-4,5,6,1,-13
18:03:41:315369,-10,-11,-6,-4,5,6,1,-13
18:03:41:316133,2,-1,4,-2,0,-26,-8,-9
18:03:41:322295,5,10,0,-3,-1,-7,-3,-1
18:03:41:330435,5,10,0,-3,-1,-7,-3,-1
18:03:41:331194,1,15,7,-2,4,-4,-3,3
18:03:41:345121,-7,-22,-7,0,-1,-2,-7,-24
18:03:41:361006,-7,-22,-7,0,-1,-2,-7,-24
18:03:41:361829,0,2,-9,-4,-2,2,3,4
18:03:41:362610,-3,10,3,-3,-1,-9,-5,19
18:03:41:376311,-3,10,3,-3,-1,-9,-5,19
18:03:41:391655,2,-9,5,-1,9,-17,-5,0
18:03:41:392446,4,14,3,-6,-3,-3,-7,8
18:03:41:393247,4,14,3,-6,-3,-3,-7,8
18:03:41:394074,5,-3,-5,-3,-6,3,1,5
18:03:41:404747,-1,-7,-1,-2,1,8,-1,6
18:03:41:412875,-1,-7,-1,-2,1,8,-1,6
18:03:41:413675,-4,-4,3,-1,-3,13,2,2
18:03:41:419798,1,14,-8,-3,0,-8,-6,-18
18:03:41:435591,1,14,-8,-3,0,-8,-6,-18
18:03:41:436201,-2,-16,-6,-2,-2,6,-5,1
18:03:41:442226,5,-2,-3,2,6,15,5,16
18:03:41:450411,5,-2,-3,2,6,15,5,16
18:03:41:451178,4,15,1,-3,2,9,-4,20
18:03:41:464660,-1,6,6,-3,-3,-7,-1,-20
18:03:41:472982,-1,6,6,-3,-3,-7,-1,-20
18:03:41:473652,0,-14,-4,-1,-1,6,5,9
18:03:41:487248,-12,0,-2,2,-1,-13,-10,-45
18:03:41:495391,-12,0,-2,2,-1,-13,-10,-45
18:03:41:496165,-1,-9,-5,1,0,-7,1,-17
18:03:41:502390,6,0,-2,3,-4,-10,1,-4
18:03:41:510374,6,0,-2,3,-4,-10,1,-4
18:03:41:511144,2,6,-7,1,-1,1,-3,-7
18:03:41:524746,-9,-17,-2,0,-4,-8,5,14
18:03:41:532928,-9,-17,-2,0,-4,-8,5,14
18:03:41:533642,-2,4,-9,-1,3,6,8,15
18:03:41:539794,-6,-9,-7,-3,-5,-4,1,-20
18:03:41:555889,-6,-9,-7,-3,-5,-4,1,-20
18:03:41:571791,-8,-12,-3,-4,-3,-2,-4,-17
18:03:41:572475,5,4,-2,-2,2,3,-1,30
18:03:41:573304,5,4,-2,-2,2,3,-1,30
18:03:41:574094,-6,-5,1,1,-5,-9,-1,2
18:03:41:584654,-2,-3,-3,3,0,3,9,16
18:03:41:592811,-2,-3,-3,3,0,3,9,16
18:03:41:593618,13,13,2,1,1,-9,-3,0
18:03:41:599665,-10,-8,4,-3,-2,5,-1,-10
18:03:41:615378,-10,-8,4,-3,-2,5,-1,-10
18:03:41:616203,1,13,4,-2,-3,-29,-3,-14
18:03:41:622251,4,-7,1,-3,2,-2,-9,14
18:03:41:630776,4,-7,1,-3,2,-2,-9,14
18:03:41:637235,-26,-13,6,-3,-2,7,-5,-60
18:03:41:644665,1,0,1,-3,4,9,1,-6
18:03:41:653040,1,0,1,-3,4,9,1,-6
18:03:41:653605,19,15,-4,3,1,0,3,43
18:03:41:659617,-7,-9,-6,-2,0,1,0,-26
18:03:41:692360,-7,-9,-6,-2,0,1,0,-26
18:03:41:693164,3,7,1,-3,-1,12,4,7
18:03:41:693972,0,-12,-3,-2,4,1,-7,0
18:03:41:694788,0,-12,-3,-2,4,1,-7,0
18:03:41:697120,1,-6,-2,2,0,11,2,-4
18:03:41:704847,5,3,1,-4,-2,8,0,16
18:03:41:712863,5,3,1,-4,-2,8,0,16
18:03:41:713640,-8,-14,-2,-1,1,9,-5,10
18:03:41:719820,-1,8,4,-2,-7,-18,-7,-14
18:03:41:735650,-1,8,4,-2,-7,-18,-7,-14
18:03:41:736152,2,0,8,-1,-3,-1,5,-3
18:03:41:742136,3,3,3,-3,0,-4,-3,20
18:03:41:750135,3,3,3,-3,0,-4,-3,20
18:03:41:757224,1,-5,-4,2,8,-22,-2,-16
18:03:41:764644,0,5,-4,4,-3,-23,-1,1
18:03:41:788580,0,5,-4,4,-3,-23,-1,1
18:03:41:789270,-1,-5,-4,0,-7,-10,0,19
18:03:41:790126,-1,10,5,-5,-1,0,-3,0
18:03:41:795334,-1,10,5,-5,-1,0,-3,0
18:03:41:796141,-3,-11,-4,-1,-4,5,-4,16
18:03:41:802302,2,2,4,-4,-6,5,-3,-12
18:03:41:817888,2,2,4,-4,-6,5,-3,-12
18:03:41:818661,-3,11,-6,-3,-1,2,1,-30
18:03:41:824801,9,2,-7,0,-2,6,1,22
18:03:41:832861,9,2,-7,0,-2,6,1,22
18:03:41:833660,-7,-13,-2,-3,3,0,-4,-1
18:03:41:839711,12,6,-2,2,-3,-2,0,13
18:03:41:855441,12,6,-2,2,-3,-2,0,13
18:03:41:856130,-7,-1,5,-4,-12,-13,-8,-34
18:03:41:862136,-3,9,2,1,6,-8,-6,-2
18:03:41:870451,-3,9,2,1,6,-8,-6,-2
18:03:41:871169,9,22,5,3,-2,11,2,18
18:03:41:884688,-10,-19,-8,-2,-2,1,-3,-13
18:03:41:892861,-10,-19,-8,-2,-2,1,-3,-13
18:03:41:893629,-6,-6,10,-3,2,-2,-4,-23
18:03:41:899675,-9,-8,-6,-1,3,0,-7,-17
18:03:41:915354,-9,-8,-6,-1,3,0,-7,-17
18:03:41:916116,-10,-20,-9,1,0,2,-1,1
18:03:41:922288,1,11,-4,-1,-2,6,2,-23
18:03:41:929662,1,11,-4,-1,-2,6,2,-23
18:03:41:937248,2,11,6,-2,-9,-4,-2,4
18:03:41:944635,-6,-12,0,0,4,7,3,8
18:03:41:952997,-6,-12,0,0,4,7,3,8
18:03:41:953652,-5,-1,-4,-4,-3,-11,5,9
18:03:41:967644,-10,-27,-5,-3,-4,4,-3,-6
18:03:41:975340,-10,-27,-5,-3,-4,4,-3,-6
18:03:41:976107,9,7,1,-1,7,2,3,10
18:03:41:990428,6,11,-3,1,16,11,10,33
18:03:41:991128,6,11,-3,1,16,11,10,33
18:03:41:997134,0,6,8,-4,1,11,-3,-5
18:03:42:4779,-2,2,5,1,-7,6,0,-9
18:03:42:12854,-2,2,5,1,-7,6,0,-9
18:03:42:13636,8,1,-6,-4,-2,18,-5,11
18:03:42:27837,-1,-5,-1,-1,-4,6,-5,-15
18:03:42:28635,-1,-5,-1,-1,-4,6,-5,-15
18:03:42:42811,-2,6,-8,2,3,-9,5,-30
18:03:42:43606,1,-23,0,-3,-8,-7,2,14
18:03:42:49715,1,-23,0,-3,-8,-7,2,14
18:03:42:65332,1,-7,4,-3,1,-27,-8,2
18:03:42:66086,4,8,0,-4,-2,6,7,-21
18:03:42:72983,4,8,0,-4,-2,6,7,-21
18:03:42:73669,7,4,-6,-2,-2,7,0,28
18:03:42:87228,1,11,3,-3,5,-3,9,12
18:03:42:95403,1,11,3,-3,5,-3,9,12
18:03:42:96165,-14,-4,-4,-2,7,15,2,-13
18:03:42:102308,-3,14,6,0,1,-1,5,16
18:03:42:109745,-3,14,6,0,1,-1,5,16
18:03:42:117152,8,21,1,3,-3,4,-2,4
18:03:42:124772,5,-16,-5,-1,-7,17,-3,10
18:03:42:132830,5,-16,-5,-1,-7,17,-3,10
18:03:42:133589,-13,-9,13,-1,3,0,-7,-34
18:03:42:147869,6,41,10,-7,7,0,-2,34
18:03:42:148684,6,41,10,-7,7,0,-2,34
18:03:42:154749,-28,-14,-7,-3,-4,0,-12,-1
18:03:42:162178,-18,-25,-9,3,1,-9,1,-10
18:03:42:169839,-18,-25,-9,3,1,-9,1,-10
18:03:42:177183,10,-29,-6,-2,-7,14,2,1
18:03:42:193519,10,-2,-2,-1,-11,-17,-3,-6
18:03:42:194329,10,-2,-2,-1,-11,-17,-3,-6
18:03:42:195162,16,0,-6,1,9,4,3,12
18:03:42:207995,7,9,-5,-3,3,6,2,-25
18:03:42:208664,7,9,-5,-3,3,6,2,-25
18:03:42:214641,-6,-13,-3,-1,1,-21,-6,8
18:03:42:222264,1,13,4,1,0,-8,-6,-6
18:03:42:229724,1,13,4,1,0,-8,-6,-6
18:03:42:237282,6,-6,-1,4,6,4,4,28
18:03:42:244696,3,8,4,-4,-2,-12,-16,-25
18:03:42:252943,3,8,4,-4,-2,-12,-16,-25
18:03:42:253649,4,-5,1,-4,-6,-4,6,13
18:03:42:267840,-9,-5,-4,0,0,4,-3,-1
18:03:42:268773,-9,-5,-4,0,0,4,-3,-1
18:03:42:274671,-10,6,-2,-4,2,-3,0,-7
18:03:42:282124,-8,-28,2,2,2,-11,0,-4
18:03:42:289751,-8,-28,2,2,2,-11,0,-4
18:03:42:297151,12,2,-3,-1,5,1,5,8
18:03:42:304823,-7,-3,-3,-1,-1,2,0,-2
18:03:42:312830,-7,-3,-3,-1,-1,2,0,-2
18:03:42:313636,-3,10,-3,1,-7,-4,-4,-8
18:03:42:327834,4,-13,-4,-1,1,-4,5,0
18:03:42:328637,4,-13,-4,-1,1,-4,5,0
18:03:42:334683,9,17,-3,-3,-4,-6,6,10
18:03:42:342192,-9,0,-2,-1,1,-14,-4,-8
18:03:42:349687,-9,0,-2,-1,1,-14,-4,-8
18:03:42:357200,4,-10,-2,0,-7,-10,-1,15
18:03:42:364632,-4,16,3,1,-15,-5,-1,-13
18:03:42:380334,-4,16,3,1,-15,-5,-1,-13
18:03:42:381166,-12,-4,3,-3,2,0,-3,-17
18:03:42:387906,-1,-14,-2,4,-3,-21,-6,15
18:03:42:388634,-1,-14,-2,4,-3,-21,-6,15
18:03:42:394661,11,26,1,-1,-1,-1,4,4
18:03:42:402394,4,22,2,0,0,19,1,19
18:03:42:409727,4,22,2,0,0,19,1,19
18:03:42:417152,-3,-1,-1,4,-2,-33,-8,9
18:03:42:424760,-3,-17,-7,-4,6,5,-6,-11
18:03:42:432901,-3,-17,-7,-4,6,5,-6,-11
18:03:42:433628,-2,-14,-2,-3,-1,17,0,-1
18:03:42:447867,-3,4,-8,-1,6,1,0,5
18:03:42:448635,-3,4,-8,-1,6,1,0,5
18:03:42:454739,-6,-20,2,0,-3,-1,-6,-2
18:03:42:470481,-2,-5,-1,-2,-2,-1,3,1
18:03:42:471136,-2,-5,-1,-2,-2,-1,3,1
18:03:42:477133,-8,-1,-2,1,-7,6,-2,-32
18:03:42:484684,3,-4,3,-5,1,11,-1,-6
18:03:42:492862,3,-4,3,-5,1,11,-1,-6
18:03:42:493635,-5,-6,6,1,-9,-11,0,-13
18:03:42:507945,5,5,2,2,-3,-11,2,3
18:03:42:508617,5,5,2,2,-3,-11,2,3
18:03:42:514595,-4,-7,-5,1,0,-1,-4,-25
18:03:42:522221,-4,-2,0,-1,-3,12,0,9
18:03:42:529688,-4,-2,0,-1,-3,12,0,9
18:03:42:545326,-12,-20,0,-6,-1,4,-1,-21
18:03:42:546111,8,20,3,-5,-8,-1,6,3
18:03:42:553035,8,20,3,-5,-8,-1,6,3
18:03:42:553638,4,-7,-2,-1,2,5,-6,-12
18:03:42:567836,-11,-11,2,-2,-1,5,-2,-11
18:03:42:568694,-11,-11,2,-2,-1,5,-2,-11
18:03:42:574673,2,16,-1,0,3,7,-3,16
18:03:42:582137,-3,-5,-3,2,0,-13,-3,-18
18:03:42:589763,-3,-5,-3,2,0,-13,-3,-18
18:03:42:597123,-1,11,4,-3,6,-3,0,10
18:03:42:604724,1,1,0,0,-4,13,3,22
18:03:42:620381,1,1,0,0,-4,13,3,22
18:03:42:621173,7,9,-5,0,-2,10,-2,1
18:03:42:627825,-4,-6,-1,-2,-4,-1,-3,-12
18:03:42:628642,-4,-6,-1,-2,-4,-1,-3,-12
18:03:42:634678,-8,-11,-3,-5,5,-1,-3,0
18:03:42:642124,-1,-6,3,1,5,5,-2,3
18:03:42:649740,-1,-6,3,1,5,5,-2,3
18:03:42:657232,-2,-11,0,-4,1,-9,0,2
18:03:42:664636,-4,0,0,0,0,-15,-2,9
18:03:42:672991,-4,0,0,0,0,-15,-2,9
18:03:42:673656,10,4,-7,0,3,-1,4,3
18:03:42:687954,-13,-5,-3,0,0,-3,-3,-28
18:03:42:688693,-13,-5,-3,0,0,-3,-3,-28
18:03:42:694619,-13,-12,0,-2,-11,-13,-6,-13
18:03:42:702419,-3,-2,-6,0,-3,-2,2,-31
18:03:42:709729,-3,-2,-6,0,-3,-2,2,-31
18:03:42:717195,1,3,3,-1,0,5,8,5
18:03:42:724742,9,-2,1,-3,-6,-3,-4,12
18:03:42:732958,9,-2,1,-3,-6,-3,-4,12
18:03:42:733684,5,13,5,2,3,-1,0,3
18:03:42:747858,-6,-18,-5,0,2,2,-3,-25
18:03:42:748693,-6,-18,-5,0,2,2,-3,-25
18:03:42:754734,3,3,-3,1,-5,-11,-3,5
18:03:42:762153,-4,6,0,-1,-2,-3,-6,25
18:03:42:769959,-4,6,0,-1,-2,-3,-6,25
18:03:42:777166,-1,-2,-2,-3,-3,16,0,-1
18:03:42:784692,5,-2,-6,-4,-2,10,6,14
18:03:42:792839,5,-2,-6,-4,-2,10,6,14
18:03:42:793666,-3,4,-2,-1,-1,28,-1,4
18:03:42:807940,-1,3,0,1,8,-2,-2,-13
18:03:42:808634,-1,3,0,1,8,-2,-2,-13
18:03:42:822918,0,2,1,0,-2,-11,3,0
18:03:42:823596,-2,-17,0,-5,-1,1,1,13
18:03:42:829703,-2,-17,0,-5,-1,1,1,13
18:03:42:837327,5,9,2,2,0,-27,-2,10
18:03:42:844651,-9,-18,-4,-1,1,-4,0,-2
18:03:42:852455,-9,-18,-4,-1,1,-4,0,-2
18:03:42:859645,9,26,1,0,2,-15,2,13
18:03:42:867841,-3,-3,-4,-1,3,-10,1,-3
18:03:42:868675,-3,-3,-4,-1,3,-10,1,-3
18:03:42:874764,-18,-23,-6,2,8,7,-2,-12
18:03:42:898540,12,18,2,-1,-5,3,2,3
18:03:42:899295,12,18,2,-1,-5,3,2,3
18:03:42:900117,-4,-8,0,-4,-9,7,-4,-3
18:03:42:904728,2,5,-2,-2,-4,-1,3,8
18:03:42:912208,2,5,-2,-2,-4,-1,3,8
18:03:42:919775,0,1,1,0,-3,0,2,14
18:03:42:927807,-22,6,4,-8,-5,0,-7,-41
18:03:42:928612,-22,6,4,-8,-5,0,-7,-41
18:03:42:934666,1,-2,-2,-3,1,-29,-1,5
18:03:42:950400,12,2,0,-7,-5,-3,-5,30
18:03:42:951157,12,2,0,-7,-5,-3,-5,30
18:03:42:957242,-13,-7,-4,-6,-13,-7,-5,-36
18:03:42:964602,11,7,1,3,3,-17,2,7
18:03:42:972297,11,7,1,3,3,-17,2,7
18:03:42:979661,2,-6,5,-3,3,13,2,4
18:03:42:987904,-10,2,-4,1,4,10,-7,-19
18:03:42:988651,-10,2,-4,1,4,10,-7,-19
18:03:43:2338,7,2,0,-1,-4,-8,0,4
18:03:43:10308,-2,-5,-5,-1,-5,-3,-1,4
18:03:43:11108,-2,-5,-5,-1,-5,-3,-1,4
18:03:43:25306,-2,-3,0,0,3,24,-2,-16
18:03:43:26081,2,-4,-6,1,3,0,-5,0
18:03:43:32189,2,-4,-6,1,3,0,-5,0
18:03:43:39735,-2,-10,-12,0,-3,5,6,12
18:03:43:47783,-9,4,4,-4,0,-12,-4,-6
18:03:43:48617,-9,4,4,-4,0,-12,-4,-6
18:03:43:54739,-14,-7,-5,5,1,8,-2,-15
18:03:43:70510,-4,-11,2,-1,0,7,0,-8
18:03:43:71181,-4,-11,2,-1,0,7,0,-8
18:03:43:77161,6,1,-1,-6,4,2,-3,6
18:03:43:84728,9,3,5,-1,3,-14,-1,11
18:03:43:100394,9,3,5,-1,3,-14,-1,11
18:03:43:101186,-7,-4,-1,5,-7,1,-8,-12
18:03:43:107919,4,2,-3,2,-6,12,-1,5
18:03:43:108636,4,2,-3,2,-6,12,-1,5
18:03:43:114679,2,0,0,-3,0,-15,0,0
18:03:43:130394,-8,3,1,1,1,-1,-2,-10
18:03:43:131190,-8,3,1,1,1,-1,-2,-10
18:03:43:137316,8,10,3,0,0,-1,-3,-3
18:03:43:144686,7,-8,4,-3,-4,-10,1,18
18:03:43:152423,7,-8,4,-3,-4,-10,1,18
18:03:43:159666,8,-7,0,-3,-3,-16,1,20
18:03:43:175970,-3,10,-2,1,-1,2,-1,-14
18:03:43:176789,-3,10,-2,1,-1,2,-1,-14
18:03:43:177587,5,-6,-3,-3,-5,4,-4,-5
18:03:43:190464,-3,-12,-4,-5,2,-16,4,15
18:03:43:191191,-3,-12,-4,-5,2,-16,4,15
18:03:43:197145,-7,0,-9,-4,-3,4,-2,4
18:03:43:204849,-3,1,4,-5,1,-27,-3,-13
18:03:43:212229,-3,1,4,-5,1,-27,-3,-13
18:03:43:219794,5,-1,-2,-1,0,-1,6,11
18:03:43:227811,10,20,6,0,1,5,-6,11
18:03:43:228646,10,20,6,0,1,5,-6,11
18:03:43:234692,-7,0,2,4,3,2,-5,-17
18:03:43:250333,-5,-16,-10,-1,-3,9,1,-4
18:03:43:251149,-5,-16,-10,-1,-3,9,1,-4
18:03:43:257229,-13,-5,-2,1,6,20,-4,-5
18:03:43:264658,5,-14,-3,4,6,13,-4,1
18:03:43:272351,5,-14,-3,4,6,13,-4,1
18:03:43:279594,5,-5,-5,-4,2,-18,6,21
18:03:43:287983,-9,7,2,-3,-3,-3,-5,-16
18:03:43:288675,-9,7,2,-3,-3,-3,-5,-16
18:03:43:294620,-13,-1,2,1,7,2,-4,-34
18:03:43:310336,4,8,14,-6,2,-4,5,0
18:03:43:311121,4,8,14,-6,2,-4,5,0
18:03:43:317134,7,4,6,0,10,-16,5,16
18:03:43:324715,-4,-17,-12,1,-1,5,-4,-6
18:03:43:332193,-4,-17,-12,1,-1,5,-4,-6
18:03:43:339723,-6,2,13,-4,-10,16,-1,8
18:03:43:348466,4,3,-8,1,-10,4,-1,3
18:03:43:349298,4,3,-8,1,-10,4,-1,3
18:03:43:354740,-2,5,6,-1,-4,1,-1,-18
18:03:43:378514,-8,-7,-1,1,-13,18,7,-23
18:03:43:379273,-8,-7,-1,1,-13,18,7,-23
18:03:43:380104,6,17,2,-3,-12,2,1,7
18:03:43:384706,4,-2,1,-2,-5,6,1,9
18:03:43:392187,4,-2,1,-2,-5,6,1,9
18:03:43:399622,-4,-9,0,-3,-11,-9,-2,-5
18:03:43:407947,-1,16,19,-4,6,-2,-3,1
18:03:43:408630,-1,16,19,-4,6,-2,-3,1
18:03:43:414619,7,13,2,-1,5,11,1,0
18:03:43:430376,-2,-2,-8,-1,8,-7,-6,-7
18:03:43:431139,-2,-2,-8,-1,8,-7,-6,-7
18:03:43:437250,-7,-2,-1,2,4,10,-5,-14
18:03:43:453023,0,4,12,-4,-5,-8,-6,4
18:03:43:453625,0,4,12,-4,-5,-8,-6,4
18:03:43:459659,-7,-12,-12,-2,0,-21,3,-2
18:03:43:467867,6,4,-6,-4,-11,0,6,6
18:03:43:468676,6,4,-6,-4,-11,0,6,6
18:03:43:474726,3,2,0,-2,-3,-13,-8,7
18:03:43:490478,3,-5,-7,0,3,-7,2,-3
18:03:43:491130,3,-5,-7,0,3,-7,2,-3
18:03:43:497132,-1,-14,-6,2,4,23,2,9
18:03:43:504825,-14,-13,-6,2,-2,6,1,-11
18:03:43:512167,-14,-13,-6,2,-2,6,1,-11
18:03:43:519719,3,4,2,-1,-6,3,9,10
18:03:43:527832,-2,-3,4,1,5,11,-5,-2
18:03:43:528633,-2,-3,4,1,5,11,-5,-2
18:03:43:534665,0,-4,-5,-6,3,8,-3,7
18:03:43:550106,-2,-9,-10,-2,5,-2,3,8
18:03:43:557946,-2,-9,-10,-2,5,-2,3,8
18:03:43:558624,-3,2,-5,-1,-3,11,-1,-7
18:03:43:564620,-5,4,-1,0,-8,-11,1,-7
18:03:43:572308,-5,4,-1,0,-8,-11,1,-7
18:03:43:579618,1,-6,3,2,3,-9,-5,1
18:03:43:587915,2,-6,-4,-2,2,10,-4,6
18:03:43:588674,2,-6,-4,-2,2,10,-4,6
18:03:43:594626,0,7,-1,-2,0,6,1,-11
18:03:43:610337,5,9,0,-2,4,11,-4,-1
18:03:43:611125,5,9,0,-2,4,11,-4,-1
18:03:43:617183,2,1,4,-2,2,-11,-7,-4
18:03:43:624727,-2,6,9,-2,3,-3,2,3
18:03:43:632220,-2,6,9,-2,3,-3,2,3
18:03:43:639874,-8,-5,-6,-2,4,2,-2,3
18:03:43:649032,-2,-3,-8,-6,1,19,-4,-8
18:03:43:655541,-2,-3,-8,-6,1,19,-4,-8
18:03:43:656167,-4,-1,0,1,-5,-17,-7,-10
18:03:43:670400,-3,-9,-3,-5,-2,-11,8,14
18:03:43:671158,-3,-9,-3,-5,-2,-11,8,14
18:03:43:677132,3,1,7,-7,1,-2,5,3
18:03:43:684663,0,3,5,-4,-2,9,-4,-16
18:03:43:692207,0,3,5,-4,-2,9,-4,-16
18:03:43:699696,3,-12,-10,-2,-5,1,1,9
18:03:43:708037,2,-2,0,-1,-3,-32,-4,6
18:03:43:708641,2,-2,0,-1,-3,-32,-4,6
18:03:43:714646,0,7,5,-3,5,4,-7,-20
18:03:43:730359,-10,-5,-5,3,0,10,4,-10
18:03:43:731158,-10,-5,-5,3,0,10,4,-10
18:03:43:737244,2,1,4,-4,0,6,4,7
18:03:43:744669,2,-1,-2,-4,6,-5,-6,12
18:03:43:752400,2,-1,-2,-4,6,-5,-6,12
18:03:43:759644,-5,2,-1,-1,-3,-41,-9,-12
18:03:43:767871,0,-1,-6,1,1,6,3,-1
18:03:43:768699,0,-1,-6,1,1,6,3,-1
18:03:43:774757,-7,-4,-9,-2,-7,-7,-5,-13
18:03:43:790496,-7,-4,-9,-2,-7,-7,-5,-13
18:03:43:791138,2,0,1,3,-2,-15,-6,-2
18:03:43:797140,-4,3,1,1,-5,12,2,2
18:03:43:812834,-4,3,1,1,-5,12,2,2
18:03:43:813608,-4,0,-1,-3,0,13,0,-1
18:03:43:819814,4,-7,-7,5,-2,9,7,13
18:03:43:827838,4,-7,-7,5,-2,9,7,13
18:03:43:828610,-16,-8,-3,-3,5,-7,2,-23
18:03:43:842192,1,2,3,-7,1,9,0,-11
18:03:43:852490,1,2,3,-7,1,9,0,-11
18:03:43:857936,10,-2,-4,4,-9,-8,-6,18
18:03:43:858624,2,7,7,0,2,-6,-6,-2
18:03:43:873043,2,7,7,0,2,-6,-6,-2
18:03:43:873669,-2,-5,0,-3,-5,-22,-2,-7
18:03:43:879646,-4,7,-1,-5,-1,-6,6,2
18:03:43:887944,-4,7,-1,-5,-1,-6,6,2
18:03:43:888632,-10,-10,-9,-3,-5,8,-2,1
18:03:43:902351,-4,-12,-4,1,4,0,-3,-11
18:03:43:910333,-4,-12,-4,1,4,0,-3,-11
18:03:43:911109,6,6,9,-4,1,-5,-1,0
18:03:43:917167,-7,-20,-7,2,-8,4,2,1
18:03:43:932923,-7,-20,-7,2,-8,4,2,1
18:03:43:933663,14,15,0,0,7,35,-2,12
18:03:43:939751,-6,5,-3,-4,2,-11,5,-14
18:03:43:947814,-6,5,-3,-4,2,-11,5,-14
18:03:43:948613,-1,-9,-4,2,0,3,-2,-2
18:03:43:962158,-1,1,-2,5,7,9,6,5
18:03:43:970423,-1,1,-2,5,7,9,6,5
18:03:43:971174,-7,-10,-7,-1,5,-6,4,-1
18:03:43:977125,1,-1,6,-2,-1,-7,-12,1
18:03:43:992885,1,-1,6,-2,-1,-7,-12,1
18:03:43:993646,5,18,5,2,-3,-2,6,-1
18:03:44:8529,2,-5,-7,-2,3,10,-7,10
18:03:44:9325,2,-5,-7,-2,3,10,-7,10
18:03:44:10102,-3,-2,3,-2,-2,7,-4,1
18:03:44:22265,8,11,6,-2,0,-23,-1,14
18:03:44:30338,8,11,6,-2,0,-23,-1,14
18:03:44:31151,-2,-5,1,4,-1,-6,2,-5
18:03:44:37201,-6,-13,-4,-2,-3,-6,-5,-15
18:03:44:53003,-6,-13,-4,-2,-3,-6,-5,-15
18:03:44:53643,-2,4,10,-2,1,-15,-6,-10
18:03:44:59620,-1,-10,-2,2,4,16,10,8
18:03:44:67893,-1,-10,-2,2,4,16,10,8
18:03:44:68674,-10,-5,-4,-2,-4,-6,-3,-13
18:03:44:82193,-7,2,5,-9,-2,-24,-3,-11
18:03:44:90467,-7,2,5,-9,-2,-24,-3,-11
18:03:44:91150,0,1,-3,-5,-3,-8,-6,2
18:03:44:97087,-6,-7,-2,-1,-9,-8,-1,-10
18:03:44:112841,-6,-7,-2,-1,-9,-8,-1,-10
18:03:44:113610,-3,-11,-7,0,7,-18,0,2
18:03:44:119831,3,-6,-10,-6,3,10,-4,3
18:03:44:127844,3,-6,-10,-6,3,10,-4,3
18:03:44:128637,-2,0,1,-1,0,-3,4,-10
18:03:44:142167,0,3,3,5,5,12,4,9
18:03:44:150360,0,3,3,5,5,12,4,9
18:03:44:151159,2,11,8,-4,6,13,-5,1
18:03:44:157230,3,4,-10,3,-1,-8,-4,8
18:03:44:172897,3,4,-10,3,-1,-8,-4,8
18:03:44:173615,-6,-3,-6,1,-2,18,3,-3
18:03:44:188604,-2,0,4,-1,1,7,1,2
18:03:44:189345,-2,0,4,-1,1,7,1,2
18:03:44:190153,3,0,-2,-2,0,-2,0,6
18:03:44:202375,0,11,1,4,-6,5,5,-11
18:03:44:210385,0,11,1,4,-6,5,5,-11
18:03:44:211191,-2,-14,-6,-1,-3,-5,3,2
18:03:44:217155,1,-7,3,-7,-1,-33,-7,8
18:03:44:232917,1,-7,3,-7,-1,-33,-7,8
18:03:44:233648,-19,-9,-8,-2,-4,-15,6,-13
18:03:44:239742,-5,-4,1,-6,-2,3,0,-3
18:03:44:247845,-5,-4,1,-6,-2,3,0,-3
18:03:44:248682,14,1,-1,1,-3,-6,-5,8
18:03:44:262168,0,-1,-7,3,0,10,0,-7
18:03:44:270493,0,-1,-7,3,0,10,0,-7
18:03:44:271148,8,10,-5,-2,8,4,-2,-1
18:03:44:284717,9,-2,-6,2,14,17,1,10
18:03:44:292850,9,-2,-6,2,14,17,1,10
18:03:44:293650,-3,-5,-1,0,-55,-9,2,2
18:03:44:299601,-2,-1,-9,-1,-55,-11,-3,-11
18:03:44:315359,-2,-1,-9,-1,-55,-11,-3,-11
18:03:44:316147,-5,3,3,-5,-40,8,-4,-1
18:03:44:322362,-14,-5,-5,-1,40,-22,-4,-17
18:03:44:330340,-14,-5,-5,-1,40,-22,-4,-17
18:03:44:331155,-2,-1,-10,3,58,3,0,-4
18:03:44:337233,9,14,3,-2,22,16,-6,5
18:03:44:352999,9,14,3,-2,22,16,-6,5
18:03:44:353662,7,1,4,-4,7,1,-4,9
18:03:44:359663,7,-8,4,-1,-10,11,-3,4
18:03:44:367851,7,-8,4,-1,-10,11,-3,4
18:03:44:368711,-5,-4,-5,1,-2,10,-2,-5
18:03:44:382284,-3,-2,3,-3,-19,-6,-2,-8
18:03:44:390516,-3,-2,3,-3,-19,-6,-2,-8
18:03:44:391161,2,-3,2,4,7,-22,-3,15
18:03:44:397091,-12,-6,4,-4,2,3,6,-1
18:03:44:412816,-12,-6,4,-4,2,3,6,-1
18:03:44:413613,2,13,0,-5,4,-15,-3,4
18:03:44:419798,-3,0,3,5,4,-8,3,5
18:03:44:427880,-3,0,3,5,4,-8,3,5
18:03:44:428612,-4,-12,2,2,5,4,6,-4
18:03:44:442612,1,1,-6,-3,-1,-2,-2,1
18:03:44:450385,1,1,-6,-3,-1,-2,-2,1
18:03:44:451161,0,1,-3,-9,-4,-7,-7,-8
18:03:44:457312,4,-3,7,2,-2,2,-1,3
18:03:44:472979,4,-3,7,2,-2,2,-1,3
18:03:44:473699,-9,-2,-4,-5,-8,21,6,5
18:03:44:488596,-1,4,-6,-2,-1,-1,-5,-7
18:03:44:489321,-1,4,-6,-2,-1,-1,-5,-7
18:03:44:490111,12,8,1,0,11,10,-1,0
18:03:44:502354,4,-1,9,-3,1,16,0,5
18:03:44:511494,4,-1,9,-3,1,16,0,5
18:03:44:517806,-6,7,2,0,2,5,-1,-18
18:03:44:518630,5,18,7,-2,2,-9,0,-4
18:03:44:532886,5,18,7,-2,2,-9,0,-4
18:03:44:533666,11,4,6,2,0,16,-1,13
18:03:44:539765,-4,13,12,-6,-5,-23,-7,-16
18:03:44:547880,-4,13,12,-6,-5,-23,-7,-16
18:03:44:548642,-1,-7,-5,-1,-1,-12,-3,-1
18:03:44:562105,-4,-23,-12,1,-1,9,3,2
18:03:44:570422,-4,-23,-12,1,-1,9,3,2
18:03:44:571148,0,-6,1,2,-11,-3,-8,0
18:03:44:577111,-6,-3,-8,-5,4,2,2,7
18:03:44:601034,-6,-3,-8,-5,4,2,2,7
18:03:44:601750,7,-1,-5,1,-14,2,5,10
18:03:44:602608,-7,-4,-3,4,4,10,0,-1
18:03:44:615361,-7,-4,-3,4,4,10,0,-1
18:03:44:616149,-24,-20,-9,-1,8,-4,-2,-30
18:03:44:631051,-2,-9,-12,1,3,12,-1,-5
18:03:44:631832,-2,-9,-12,1,3,12,-1,-5
18:03:44:632614,4,-3,-2,-4,-5,-17,3,9
18:03:44:644638,4,4,4,-5,-12,-7,-4,-1
18:03:44:653010,4,4,4,-5,-12,-7,-4,-1
18:03:44:653672,-5,12,2,-5,5,7,-7,-10
18:03:44:675980,6,-1,-11,-3,4,6,3,14
18:03:44:676775,6,-1,-11,-3,4,6,3,14
18:03:44:677588,8,-1,10,-3,-9,-12,-2,-3
18:03:44:691055,-7,-2,-2,0,-4,-22,-3,-8
18:03:44:691778,-7,-2,-2,0,-4,-22,-3,-8
18:03:44:692594,-3,-6,-7,3,4,-9,3,7
18:03:44:697160,-4,1,11,5,-1,10,-4,-7
18:03:44:721179,-4,1,11,5,-1,10,-4,-7
18:03:44:721868,-9,-11,2,5,0,22,-5,-12
18:03:44:722661,-6,-7,-4,-1,-2,-9,3,-1
18:03:44:727866,-6,-7,-4,-1,-2,-9,3,-1
18:03:44:728668,-3,-2,-5,1,-3,2,-2,-6
18:03:44:751517,9,2,7,3,9,9,-3,0
18:03:44:752344,9,2,7,3,9,9,-3,0
18:03:44:753100,-1,7,8,-2,2,-13,-1,18
18:03:44:764627,4,2,-4,-7,-12,-26,-5,7
18:03:44:772921,4,2,-4,-7,-12,-26,-5,7
18:03:44:773604,2,13,6,-1,5,25,-3,-15
18:03:44:779620,6,2,4,-6,-7,9,-1,4
18:03:44:795372,6,2,4,-6,-7,9,-1,4
18:03:44:796150,-4,5,-4,-4,2,-5,9,-5
18:03:44:802460,-4,-8,-7,1,0,-4,-10,-1
18:03:44:817909,-4,-8,-7,1,0,-4,-10,-1
18:03:44:818690,3,10,11,-4,1,-24,-2,8
18:03:44:824803,0,9,1,-7,4,12,7,1
18:03:44:832949,0,9,1,-7,4,12,7,1
18:03:44:833658,3,-5,-4,-6,2,-17,-4,8
18:03:44:839743,-11,-5,-3,-8,5,11,0,-13
18:03:44:847209,-11,-5,-3,-8,5,11,0,-13
18:03:44:854804,1,2,-4,-3,16,16,1,4
18:03:44:871108,11,14,2,1,-8,-10,1,10
18:03:44:871846,11,14,2,1,-8,-10,1,10
18:03:44:872664,2,-2,0,-4,-1,-3,1,-1
18:03:44:893884,-3,-3,-6,1,2,6,0,-6
18:03:44:894707,-3,-3,-6,1,2,6,0,-6
18:03:44:900261,-12,-18,-4,1,-5,4,0,-13
18:03:44:901091,-1,-13,-9,0,-4,-28,-5,4
18:03:44:907319,-1,-13,-9,0,-4,-28,-5,4
18:03:44:922865,0,-16,-11,0,-4,-4,-4,-3
18:03:44:923569,-6,-17,-5,-2,9,10,-5,-6
18:03:44:930341,-6,-17,-5,-2,9,10,-5,-6
18:03:44:931112,7,11,-3,-2,0,13,-1,5
18:03:44:953690,-6,11,14,-3,2,16,-8,-18
18:03:44:954352,-6,11,14,-3,2,16,-8,-18
18:03:44:955181,4,-4,3,-4,-10,14,-3,3
18:03:44:967862,1,2,9,-2,-4,10,8,6
18:03:44:968733,1,2,9,-2,-4,10,8,6
18:03:44:974779,-2,3,5,-8,2,19,1,-9
18:03:44:982191,1,-1,3,1,1,-5,4,8
18:03:44:990456,1,-1,3,1,1,-5,4,8
18:03:44:991174,10,1,-4,-2,3,-11,1,33
18:03:45:4731,0,8,-4,0,20,6,2,-17
18:03:45:29218,0,8,-4,0,20,6,2,-17
18:03:45:30019,-11,-11,-7,3,5,2,1,-2
18:03:45:30815,-5,13,7,-3,-18,-16,5,-1
18:03:45:31640,-5,13,7,-3,-18,-16,5,-1
18:03:45:59167,-2,-12,-12,3,-7,9,-8,-13
18:03:45:59941,5,-4,-10,1,-9,-9,-4,7
18:03:45:60789,5,-4,-10,1,-9,-9,-4,7
18:03:45:61561,3,8,9,2,-11,-4,1,18
18:03:45:64609,-9,-7,-6,0,2,-18,-9,-2
18:03:45:72936,-9,-7,-6,0,2,-18,-9,-2
18:03:45:73662,-3,2,1,3,-4,-28,0,-9
18:03:45:79594,9,-7,-4,-7,-5,-1,1,17
18:03:45:103628,9,-7,-4,-7,-5,-1,1,17
18:03:45:104271,-17,-11,0,-2,-3,-24,-5,-29
18:03:45:105076,-10,-4,-4,5,5,2,5,-7
18:03:45:110736,-10,-4,-4,5,5,2,5,-7
18:03:45:134136,-5,11,15,-6,-1,1,3,-6
18:03:45:134884,3,3,9,-2,-6,10,-3,-22
18:03:45:135820,3,3,9,-2,-6,10,-3,-22
18:03:45:136584,1,-5,-4,-6,6,-9,0,1
18:03:45:156099,11,-4,-2,-6,8,-28,-4,31
18:03:45:156815,11,-4,-2,-6,8,-28,-4,31
18:03:45:157633,-2,0,0,-7,3,-12,-4,-12
18:03:45:178486,-3,7,-4,0,-5,1,-4,-11
18:03:45:179244,-3,7,-4,0,-5,1,-4,-11
18:03:45:180058,3,0,-9,2,1,-6,-2,6
18:03:45:193516,2,9,11,-1,-7,-6,4,-2
18:03:45:194342,2,9,11,-1,-7,-6,4,-2
18:03:45:195119,-2,2,-8,-1,3,3,1,-11
18:03:45:199662,1,-7,-13,-1,4,5,-1,4
18:03:45:207254,1,-7,-13,-1,4,5,-1,4
18:03:45:214652,12,11,-1,-4,1,4,1,0
18:03:45:231017,-2,-3,-5,-1,0,15,0,-10
18:03:45:231818,-2,-3,-5,-1,0,15,0,-10
18:03:45:232661,-10,-2,2,1,4,15,-2,-5
18:03:45:254030,2,-3,4,-4,8,6,5,4
18:03:45:254811,2,-3,4,-4,8,6,5,4
18:03:45:255573,3,-4,1,-4,-5,0,2,0
18:03:45:259612,3,-3,-14,-4,0,-5,-5,6
18:03:45:267252,3,-3,-14,-4,0,-5,-5,6
18:03:45:282817,6,12,0,-1,2,-23,3,18
18:03:45:283548,-6,-3,-1,-9,-8,1,0,-10
18:03:45:290484,-6,-3,-1,-9,-8,1,0,-10
18:03:45:291136,-11,-1,5,-1,5,-25,-11,-25
18:03:45:322317,-8,-11,0,6,0,1,-2,-8
18:03:45:322937,-8,-11,0,6,0,1,-2,-8
18:03:45:323756,-6,-16,-7,1,-8,10,4,13
18:03:45:324542,3,7,-1,7,1,5,-2,9
18:03:45:327177,3,7,-1,7,1,5,-2,9
18:03:45:334673,0,-3,-3,-2,0,7,4,-1
18:03:45:342151,-4,-5,-2,-2,2,20,4,-6
18:03:45:357941,-4,-5,-2,-2,2,20,4,-6
18:03:45:358658,4,3,-5,-1,1,9,-1,-2
18:03:45:364600,-9,-3,7,-2,-1,-9,-9,-3
18:03:45:374016,-9,-3,7,-2,-1,-9,-9,-3
18:03:45:380263,6,8,-8,-5,-8,-12,-2,-1
18:03:45:381086,-6,-1,0,-2,-4,-4,0,-10
18:03:45:395385,-6,-1,0,-2,-4,-4,0,-10
18:03:45:396156,3,-3,0,-1,3,-12,-8,10
18:03:45:402356,3,16,0,1,-3,-5,4,-5
18:03:45:410407,3,16,0,1,-3,-5,4,-5
18:03:45:411156,1,-8,-6,2,-2,-7,-3,-5
18:03:45:424785,-11,-13,-10,2,5,-11,-3,-3
18:03:45:432925,-11,-13,-10,2,5,-11,-3,-3
18:03:45:433681,-1,18,10,1,4,11,4,0
18:03:45:447831,-9,-4,4,0,-10,-24,4,-7
18:03:45:448671,-9,-4,4,0,-10,-24,4,-7
18:03:45:454740,0,2,-3,-11,1,7,-5,-2
18:03:45:462134,8,-3,-9,-8,3,14,-2,7
18:03:45:470429,8,-3,-9,-8,3,14,-2,7
18:03:45:471202,-4,-11,0,3,4,10,-5,0
18:03:45:485065,4,-12,-10,-10,9,9,-3,-2
18:03:45:492864,4,-12,-10,-10,9,9,-3,-2
18:03:45:493625,3,1,4,-3,-2,7,-5,-4
18:03:45:499651,-12,-13,-4,3,-5,0,-8,-4
18:03:45:507329,-12,-13,-4,3,-5,0,-8,-4
18:03:45:522849,-7,-6,1,-4,-1,3,3,4
18:03:45:523557,-1,-3,7,-5,-3,2,5,7
18:03:45:530329,-1,-3,7,-5,-3,2,5,7
18:03:45:531121,-7,-3,-7,5,3,-8,-3,-34
18:03:45:544648,-5,-3,-4,0,3,2,2,-3
18:03:45:560976,-5,-3,-4,0,3,2,2,-3
18:03:45:561779,-1,-8,5,-2,1,21,0,14
18:03:45:562574,4,1,-8,0,-4,12,-7,-1
18:03:45:567166,4,1,-8,0,-4,12,-7,-1
18:03:45:582841,7,7,-3,-3,-9,-4,5,15
18:03:45:583592,-2,-9,5,-3,2,-7,-1,-5
18:03:45:590420,-2,-9,5,-3,2,-7,-1,-5
18:03:45:591105,-3,-2,-3,-1,-6,-10,-2,-4
18:03:45:604725,7,1,0,-3,3,1,3,5
18:03:45:612865,7,1,0,-3,3,1,3,5
18:03:45:613642,-4,2,0,-1,0,-17,-1,11
18:03:45:619832,-3,11,9,-2,-7,-16,-2,-5
18:03:45:635589,-3,11,9,-2,-7,-16,-2,-5
18:03:45:636173,10,3,-4,-6,-7,22,0,17
18:03:45:651011,0,4,-1,-1,3,3,-1,11
18:03:45:657928,0,4,-1,-1,3,3,-1,11
18:03:45:658628,-5,-5,7,-4,9,13,-1,-21
18:03:45:673621,0,2,2,5,-4,2,1,-10
18:03:45:674331,0,2,2,5,-4,2,1,-10
18:03:45:675110,3,9,2,-3,-2,0,0,5
18:03:45:687934,3,2,1,-5,6,18,2,3
18:03:45:688625,3,2,1,-5,6,18,2,3
18:03:45:710958,-5,-13,-4,0,-5,-2,-4,-10
18:03:45:711749,3,-1,1,0,3,-13,-2,2
18:03:45:712577,3,-1,1,0,3,-13,-2,2
18:03:45:725293,-4,-11,-6,-2,0,-25,1,-1
18:03:45:726074,1,-7,-6,0,-4,-25,-7,-1
18:03:45:732917,1,-7,-6,0,-4,-25,-7,-1
18:03:45:733690,6,4,3,4,3,5,3,13
18:03:45:748233,0,-3,-3,2,-5,3,0,14
18:03:45:763486,0,-3,-3,2,-5,3,0,14
18:03:45:764295,1,9,5,-2,3,6,5,2
18:03:45:765104,-3,2,1,3,2,-2,4,1
18:03:45:786278,-3,2,1,3,2,-2,4,1
18:03:45:786817,0,-6,-6,0,2,-12,-3,-6
18:03:45:787627,-2,-2,-2,-4,1,3,-5,-15
18:03:45:792889,-2,-2,-2,-4,1,3,-5,-15
18:03:45:793664,-7,-6,1,2,-6,-36,-4,-5
18:03:45:815996,-2,-1,-1,5,9,0,-5,-17
18:03:45:816766,-2,-1,-1,5,9,0,-5,-17
18:03:45:817620,-1,-4,-7,0,0,5,-4,2
18:03:45:830335,10,15,0,-8,-5,-10,5,9
18:03:45:831143,10,15,0,-8,-5,-10,5,9
18:03:45:837305,3,0,-1,1,0,-16,-1,7
18:03:45:861006,-4,-5,0,-5,-1,10,0,3
18:03:45:861806,-4,-5,0,-5,-1,10,0,3
18:03:45:862625,-1,9,5,-8,1,5,-3,-6
18:03:45:892309,-4,-3,-2,-4,-1,7,-2,-3
18:03:45:893112,-4,-3,-2,-4,-1,7,-2,-3
18:03:45:893930,-12,-10,-2,0,-4,10,3,-17
18:03:45:894729,-1,5,3,2,-4,-3,0,0
18:03:45:906164,-1,5,3,2,-4,-3,0,0
18:03:45:906830,6,-1,-5,-3,13,13,0,14
18:03:45:907600,-8,-4,-5,-4,-7,-6,0,-4
18:03:45:912856,-8,-4,-5,-4,-7,-6,0,-4
18:03:45:913662,-6,-5,5,0,-6,7,0,-14
18:03:45:928237,2,-6,-2,3,-1,-6,3,9
18:03:45:935501,2,-6,-2,3,-1,-6,3,9
18:03:45:936130,0,-8,-6,-2,-10,-15,-2,-7
18:03:45:942151,6,-1,2,-3,2,14,0,7
18:03:45:949753,6,-1,2,-3,2,14,0,7
18:03:45:957258,-4,1,-1,-4,-3,1,1,0
18:03:45:964611,-3,6,8,-1,7,-8,-5,-10
18:03:45:972981,-3,6,8,-1,7,-8,-5,-10
18:03:45:973659,5,0,4,-1,1,9,-5,4
18:03:45:987961,-3,-3,-3,-6,3,-3,-3,-3
18:03:45:988680,-3,-3,-3,-6,3,-3,-3,-3
18:03:46:2761,-1,6,3,-4,1,-9,0,6
18:03:46:18514,-1,-8,-9,2,-5,-16,-7,-8
18:03:46:19321,-1,-8,-9,2,-5,-16,-7,-8
18:03:46:20106,-1,-8,-10,-3,1,11,6,-3
18:03:46:24696,-10,-8,-10,2,-1,7,-3,1
18:03:46:32874,-10,-8,-10,2,-1,7,-3,1
18:03:46:33640,-2,5,-1,0,0,1,-3,3
18:03:46:47800,0,1,0,-1,-5,-4,0,-9
18:03:46:48676,0,1,0,-1,-5,-4,0,-9
18:03:46:62817,-3,-6,-1,-4,-2,8,0,-6
18:03:46:63589,8,4,3,-5,-4,16,7,3
18:03:46:69883,8,4,3,-5,-4,16,7,3
18:03:46:77172,7,8,8,0,-6,7,-1,2
18:03:46:93501,-4,2,0,-1,2,7,4,2
18:03:46:94359,-4,2,0,-1,2,7,4,2
18:03:46:95156,-1,-2,-7,1,2,-4,-5,-3
18:03:46:116009,1,6,12,-3,0,-9,-7,-7
18:03:46:116812,1,6,12,-3,0,-9,-7,-7
18:03:46:117645,0,2,-3,2,-2,0,-4,-3
18:03:46:122239,-5,-3,-6,-2,-10,-17,-5,-12
18:03:46:138030,-5,-3,-6,-2,-10,-17,-5,-12
18:03:46:138699,0,-7,1,1,-4,-1,3,-14
18:03:46:153680,0,4,2,-4,-4,10,0,-20
18:03:46:154267,0,4,2,-4,-4,10,0,-20
18:03:46:155085,-15,-3,-3,-3,-3,-9,-4,-15
18:03:46:176012,-5,-5,2,-3,3,-7,-4,-6
18:03:46:176826,-5,-5,2,-3,3,-7,-4,-6
18:03:46:177623,8,-4,-3,-1,2,3,8,25
18:03:46:182090,2,-2,-8,-3,4,-2,2,16
18:03:46:189811,2,-2,-8,-3,4,-2,2,16
18:03:46:197133,-3,-2,6,-4,0,-14,-11,-4
18:03:46:213491,0,-6,2,-2,0,-2,-6,2
18:03:46:214360,0,-6,2,-2,0,-2,-6,2
18:03:46:215110,-1,8,2,0,5,4,3,-7
18:03:46:227832,7,0,0,1,-6,9,-3,-11
18:03:46:228638,7,0,0,1,-6,9,-3,-11
18:03:46:234645,-7,-1,0,-2,-17,3,-2,-9
18:03:46:242132,1,3,-1,1,3,-9,7,16
18:03:46:257929,1,3,-1,1,3,-9,7,16
18:03:46:258650,-4,-8,-4,-2,4,-17,0,-3
18:03:46:265322,-1,-9,-4,-1,5,0,-7,6
18:03:46:266172,-1,-9,-4,-1,5,0,-7,6
18:03:46:272269,5,-1,-2,0,3,16,9,12
18:03:46:288544,-9,-3,2,-2,0,17,1,-7
18:03:46:289239,-9,-3,2,-2,0,17,1,-7
18:03:46:294619,-5,-8,-1,-3,5,-24,-5,-4
18:03:46:302454,6,3,-2,1,-2,-8,0,7
18:03:46:317905,6,3,-2,1,-2,-8,0,7
18:03:46:318607,-2,1,0,1,-6,7,2,-6
18:03:46:325337,-11,-7,3,2,-3,-2,-1,-7
18:03:46:326143,-11,-7,3,2,-3,-2,-1,-7
18:03:46:332103,-5,14,10,-3,0,-9,-7,-3
18:03:46:356131,-3,1,-2,-1,1,-17,6,8
18:03:46:356819,-3,1,-2,-1,1,-17,6,8
18:03:46:357634,4,-5,-4,-4,-2,5,0,0
18:03:46:362107,0,5,1,-1,-2,-12,-2,14
18:03:46:369915,0,5,1,-1,-2,-12,-2,14
18:03:46:377153,-7,-12,-5,0,-2,8,1,5
18:03:46:385536,8,15,-4,-4,0,9,-2,10
18:03:46:386145,8,15,-4,-4,0,9,-2,10
18:03:46:392191,-1,0,-4,0,2,-3,0,-17
18:03:46:408343,4,-13,-5,-3,-3,5,0,-17
18:03:46:409093,4,-13,-5,-3,-3,5,0,-17
18:03:46:422924,3,-4,-3,4,2,0,-1,8
18:03:46:423631,3,9,2,0,2,15,-4,3
18:03:46:429697,3,9,2,0,2,15,-4,3
18:03:46:437213,-1,5,3,-3,-3,0,-4,-9
18:03:46:445307,-5,-6,3,-2,6,16,-2,3
18:03:46:446111,-5,-6,3,-2,6,16,-2,3
18:03:46:459638,1,-2,-1,-2,4,-11,-3,11
18:03:46:467868,-12,-9,-3,-5,-8,-16,2,-37
18:03:46:468722,-12,-9,-3,-5,-8,-16,2,-37
18:03:46:474795,1,-8,-3,-2,-3,-17,-2,8
18:03:46:497597,3,-9,-4,-2,-5,-4,2,23
18:03:46:506804,3,-9,-4,-2,-5,-4,2,23
18:03:46:507526,5,19,4,-4,1,20,2,-8
18:03:46:508304,-5,1,0,-4,0,5,-3,-13
18:03:46:509135,-5,1,0,-4,0,5,-3,-13
18:03:46:512102,-2,-1,-5,0,-9,-20,-2,-2
18:03:46:527831,2,-11,-4,-2,2,-3,1,17
18:03:46:528640,2,-11,-4,-2,2,-3,1,17
18:03:46:534660,0,-5,-7,-2,0,14,4,-9
18:03:46:542134,3,1,-3,-3,-3,-3,-4,19
18:03:46:549721,3,1,-3,-3,-3,-3,-4,19
18:03:46:557227,-3,-5,2,0,-5,0,-3,13
18:03:46:564623,-3,15,3,1,4,3,-4,-6
18:03:46:580336,-3,15,3,1,4,3,-4,-6
18:03:46:581147,-3,-8,-3,-1,5,-4,-6,-9
18:03:46:587913,2,-7,-3,3,2,-16,1,17
18:03:46:588660,2,-7,-3,3,2,-16,1,17
18:03:46:594619,-1,0,3,-1,-5,6,-1,13
18:03:46:602322,6,5,-2,4,-3,-4,1,3
18:03:46:609721,6,5,-2,4,-3,-4,1,3
18:03:46:617133,5,-6,-6,-1,2,9,-3,19
18:03:46:624727,1,-3,2,-1,4,-3,1,-11
18:03:46:632876,1,-3,2,-1,4,-3,1,-11
18:03:46:633653,-9,-18,-3,-2,0,-11,2,-2
18:03:46:647829,-8,-2,7,-3,2,-3,-7,-20
18:03:46:648691,-8,-2,7,-3,2,-3,-7,-20
18:03:46:654812,-2,2,-1,1,-5,-17,-3,-9
18:03:46:670487,-1,-2,1,-5,-5,12,0,1
18:03:46:671167,-1,-2,1,-5,-5,12,0,1
18:03:46:677120,-5,5,6,-2,-1,-7,2,-18
18:03:46:709820,-6,-7,0,-3,-5,11,-5,-14
18:03:46:710628,-6,-7,0,-3,-5,11,-5,-14
18:03:46:711467,0,-3,-5,-4,2,6,-2,-8
18:03:46:712209,-6,-3,-6,0,0,12,-4,2
18:03:46:715322,-6,-3,-6,0,0,12,-4,2
18:03:46:716192,-14,11,3,-2,2,17,3,-19
18:03:46:730356,-2,-13,-2,-4,-2,-13,2,-12
18:03:46:731161,-2,-13,-2,-4,-2,-13,2,-12
18:03:46:737256,-3,-4,-1,2,1,-1,-1,-16
18:03:46:745377,0,3,0,1,4,10,8,-5
18:03:46:746181,0,3,0,1,4,10,8,-5
18:03:46:776659,10,19,4,-5,4,14,0,32
18:03:46:777503,6,-3,6,-5,-2,11,2,1
18:03:46:778193,6,-3,6,-5,-2,11,2,1
18:03:46:779037,5,9,-2,-1,0,-39,1,0
18:03:46:790478,-1,-6,-3,-1,-1,1,-11,25
18:03:46:791175,-1,-6,-3,-1,-1,1,-11,25
18:03:46:797120,7,-6,-5,-3,-1,16,4,-2
18:03:46:805382,-6,-2,-4,-2,-5,-27,8,18
18:03:46:806101,-6,-2,-4,-2,-5,-27,8,18
18:03:46:819825,-7,-11,-4,3,-6,0,-7,13
18:03:46:827869,-2,17,7,2,-2,1,-8,-26
18:03:46:828675,-2,17,7,2,-2,1,-8,-26
18:03:46:834681,6,-15,-1,0,-1,-10,0,8
18:03:46:850381,-7,5,-8,1,-1,6,-5,-20
18:03:46:851177,-7,5,-8,1,-1,6,-5,-20
18:03:46:857273,5,13,-2,1,-2,15,-1,11
18:03:46:865378,2,7,5,-2,-4,-2,6,3
18:03:46:866178,2,7,5,-2,-4,-2,6,3
18:03:46:896644,8,5,6,-2,-8,8,5,-2
18:03:46:897486,-18,-20,1,3,-5,23,2,-3
18:03:46:898165,-18,-20,1,3,-5,23,2,-3
18:03:46:899071,-5,-7,-1,-1,3,-24,-14,-5
18:03:46:910364,2,-1,-14,1,-1,-15,2,-10
18:03:46:911149,2,-1,-14,1,-1,-15,2,-10
18:03:46:917151,0,10,4,2,3,9,2,-10
18:03:46:925525,-13,-10,3,-4,1,-14,-1,1
18:03:46:926117,-13,-10,3,-4,1,-14,-1,1
18:03:46:939749,-6,-13,-8,-2,-7,15,4,-14
18:03:46:947863,6,43,7,1,1,-5,5,-21
18:03:46:948655,6,43,7,1,1,-5,5,-21
18:03:46:978198,-1,-4,0,-6,-2,-11,-7,-2
18:03:46:987394,-2,-30,-7,-5,-4,13,-1,13
18:03:46:988124,-2,-30,-7,-5,-4,13,-1,13
18:03:46:988942,8,13,6,3,-2,12,-2,-3
18:03:46:989764,16,26,1,-1,1,-4,-10,8
18:03:46:992134,16,26,1,-1,1,-4,-10,8
18:03:46:999606,-20,4,-1,-1,4,-20,-16,-29
18:03:47:7969,4,-12,1,3,-4,16,-1,8
18:03:47:8666,4,-12,1,3,-4,16,-1,8
18:03:47:22268,-5,-38,-14,-4,6,22,10,14
18:03:47:30356,-5,-38,-14,-4,6,22,10,14
18:03:47:31128,1,4,0,-3,-1,-25,-4,-17
18:03:47:54294,2,14,2,-3,-5,-12,-7,-6
18:03:47:61024,2,14,2,-3,-5,-12,-7,-6
18:03:47:61816,-6,-19,-10,-3,8,-13,-2,4
18:03:47:62659,3,-10,1,7,-3,12,-3,-13
18:03:47:67889,3,-10,1,7,-3,12,-3,-13
18:03:47:68744,3,0,-5,0,-4,3,1,10
18:03:47:74693,7,1,4,-8,-5,-5,-8,13
18:03:47:98544,7,1,4,-8,-5,-5,-8,13
18:03:47:99255,-11,-18,0,1,3,27,4,14
18:03:47:100082,-5,5,0,-3,-7,1,1,5
18:03:47:121144,-5,5,0,-3,-7,1,1,5
18:03:47:121831,5,16,-3,1,4,-41,-2,-22
18:03:47:122640,-8,-8,-1,-2,1,17,7,-31
18:03:47:127831,-8,-8,-1,-2,1,17,7,-31
18:03:47:128634,2,-8,-3,-6,8,34,6,37
18:03:47:134684,11,10,-3,-1,-4,11,5,17
18:03:47:150401,11,10,-3,-1,-4,11,5,17
18:03:47:151178,3,29,5,-4,2,-21,-6,-17
18:03:47:157293,-1,1,-4,-6,1,-14,0,2
18:03:47:180992,-1,1,-4,-6,1,-14,0,2
18:03:47:181804,3,-19,-3,1,-5,0,0,5
18:03:47:182589,3,16,-2,5,-5,-13,5,7
18:03:47:196724,3,16,-2,5,-5,-13,5,7
18:03:47:197523,4,-4,0,-4,3,6,-9,4
18:03:47:198285,0,20,7,2,8,-20,-6,-9
18:03:47:210340,0,20,7,2,8,-20,-6,-9
18:03:47:211126,-7,-17,0,5,-4,24,10,3
18:03:47:217173,-10,-15,13,-6,-2,-19,-8,-32
18:03:47:232936,-10,-15,13,-6,-2,-19,-8,-32
18:03:47:233685,-6,8,3,-1,-3,-3,-4,-5
18:03:47:239728,-10,-10,3,2,-4,-21,-8,-45
18:03:47:247802,-10,-10,3,2,-4,-21,-8,-45
18:03:47:248661,0,-9,-3,0,3,7,-3,-14
18:03:47:254788,12,-2,-2,-1,0,-32,-11,32
18:03:47:270549,12,-2,-2,-1,0,-32,-11,32
18:03:47:271187,-9,-16,10,2,-4,-42,-22,-41
18:03:47:277124,22,13,-10,5,-5,8,-2,32
18:03:47:292891,22,13,-10,5,-5,8,-2,32
18:03:47:293676,-10,-24,-4,-7,-2,12,8,-6
18:03:47:309161,-16,-27,-1,-2,-1,4,1,-7
18:03:47:309964,-16,-27,-1,-2,-1,4,1,-7
18:03:47:310790,-6,28,-2,6,-2,4,6,-3
18:03:47:322284,-6,-29,-7,-1,-4,-2,5,12
18:03:47:331039,-6,-29,-7,-1,-4,-2,5,12
18:03:47:331849,11,12,-2,-2,-5,-3,-2,46
18:03:47:337194,10,10,-6,-6,-2,15,1,19
18:03:47:344706,10,10,-6,-6,-2,15,1,19
18:03:47:352480,2,-11,-5,0,-5,-19,6,-6
18:03:47:359655,-12,-15,-1,-1,-1,31,11,-21
18:03:47:367890,-12,-15,-1,-1,-1,31,11,-21
18:03:47:368646,13,5,-6,-4,1,3,-3,13
18:03:47:374738,-25,-27,-6,1,5,-1,3,-19
18:03:47:390926,-25,-27,-6,1,5,-1,3,-19
18:03:47:406042,16,17,5,-6,-8,3,-9,15
18:03:47:406805,14,-3,-6,0,-6,8,-9,-3
18:03:47:407616,14,-3,-6,0,-6,8,-9,-3
18:03:47:412092,-1,-16,4,-2,3,4,-5,7
18:03:47:419814,4,20,-2,-6,4,-8,4,-2
18:03:47:428287,4,20,-2,-6,4,-8,4,-2
18:03:47:442789,0,-4,1,2,-4,-70,-12,-19
18:03:47:443586,-14,-15,2,-1,-4,-2,-5,-8
18:03:47:458522,-14,-15,2,-1,-4,-2,-5,-8
18:03:47:459274,4,28,0,-2,8,31,3,4
18:03:47:460057,-18,10,9,6,8,5,-2,-8
18:03:47:464636,-18,10,9,6,8,5,-2,-8
18:03:47:472248,-1,-8,-2,-2,-5,10,5,19
18:03:47:479598,-10,-14,-3,-3,-5,-7,0,14
18:03:47:487947,-10,-14,-3,-3,-5,-7,0,14
18:03:47:488625,-17,18,7,5,-3,-10,-16,-45
18:03:47:494616,9,4,7,-5,-6,-14,8,10
18:03:47:518754,9,4,7,-5,-6,-14,8,10
18:03:47:519358,-12,15,6,-2,4,12,8,-6
18:03:47:520121,-1,4,-7,0,-8,8,-5,1
18:03:47:525331,-1,4,-7,0,-8,8,-5,1
18:03:47:526100,-24,-18,4,-2,-2,10,2,-40
18:03:47:548511,20,34,-7,3,-4,-30,-10,42
18:03:47:549322,20,34,-7,3,-4,-30,-10,42
18:03:47:550095,-15,-44,-8,-1,-2,2,-3,-1
18:03:47:554721,9,12,2,1,6,26,5,2
18:03:47:570494,9,12,2,1,6,26,5,2
18:03:47:571145,13,-7,-9,1,2,21,4,14
18:03:47:577120,-8,-4,5,2,-1,12,-3,-6
18:03:47:584702,-8,-4,5,2,-1,12,-3,-6
18:03:47:592170,10,10,1,-5,-5,-11,-6,6
18:03:47:599672,-12,-17,-8,-2,1,-7,9,-13
18:03:47:607988,-12,-17,-8,-2,1,-7,9,-13
18:03:47:608649,-16,-35,-14,-1,5,7,7,-12
18:03:47:622246,20,45,11,4,-1,-26,-1,37
18:03:47:630391,20,45,11,4,-1,-26,-1,37
18:03:47:631171,-9,13,-8,-4,-3,18,2,-7
18:03:47:645340,1,-5,0,-6,-2,8,-2,-9
18:03:47:646150,1,-5,0,-6,-2,8,-2,-9
18:03:47:652335,8,10,-2,5,-2,-13,6,13
18:03:47:668615,10,8,-10,1,5,15,-7,15
18:03:47:669277,10,8,-10,1,5,15,-7,15
18:03:47:670157,5,17,-2,-6,1,13,-6,17
18:03:47:682171,5,-15,-6,-6,7,0,5,5
18:03:47:690389,5,-15,-6,-6,7,0,5,5
18:03:47:691105,10,-9,-5,-3,-4,0,0,29
18:03:47:697155,-4,-27,-11,3,-5,4,-8,-22
18:03:47:721145,-4,-27,-11,3,-5,4,-8,-22
18:03:47:721804,10,5,-7,-2,0,-6,1,-11
18:03:47:722629,-9,1,6,-7,4,8,-2,-5
18:03:47:727850,-9,1,6,-7,4,8,-2,-5
18:03:47:728645,-5,4,6,-4,-7,-22,-4,-8
18:03:47:742103,-14,-14,0,-4,-8,-47,-6,-6
18:03:47:750381,-14,-14,0,-4,-8,-47,-6,-6
18:03:47:751158,6,-7,3,0,1,7,1,-7
18:03:47:757203,2,17,10,5,4,2,2,-11
18:03:47:764688,2,17,10,5,4,2,2,-11
18:03:47:772217,7,-6,-4,-7,2,-8,9,20
18:03:47:779636,6,3,-4,2,12,13,-3,40
18:03:47:787975,6,3,-4,2,12,13,-3,40
18:03:47:788663,5,17,6,0,3,3,-12,-15
18:03:47:802337,-8,5,2,-11,0,6,-2,-23
18:03:47:826708,-8,5,2,-11,0,6,-2,-23
18:03:47:827503,-6,-18,-1,0,3,-15,3,5
18:03:47:828328,11,18,-1,-4,0,2,7,-9
18:03:47:829117,11,18,-1,-4,0,2,7,-9
18:03:47:832117,-9,-16,-1,0,-1,14,-4,-36
18:03:47:848550,-22,-9,0,-1,-6,4,11,-20
18:03:47:849280,-22,-9,0,-1,-6,4,11,-20
18:03:47:850063,-1,10,5,3,-2,-12,-5,-1
18:03:47:862150,-4,-21,-1,-3,-1,-2,-6,7
18:03:47:870426,-4,-21,-1,-3,-1,-2,-6,7
18:03:47:871152,-5,-1,-5,-5,1,-1,0,3
18:03:47:877137,15,1,-5,1,1,-10,-1,24
18:03:47:901075,15,1,-5,1,1,-10,-1,24
18:03:47:901800,6,-1,-3,-3,-11,-6,-2,-3
18:03:47:902659,-16,-9,1,0,2,29,-2,-44
18:03:47:908014,-16,-9,1,0,2,29,-2,-44
18:03:47:908642,3,18,7,3,-11,-8,4,1
18:03:47:922312,5,0,-5,1,-6,6,2,4
18:03:47:930100,5,0,-5,1,-6,6,2,4
18:03:47:937666,-17,-18,-4,-4,5,-18,-5,-34
18:03:47:945358,8,8,0,1,-6,20,5,-16
18:03:47:946141,8,8,0,1,-6,20,5,-16
18:03:47:952335,-15,-5,-7,1,0,10,-5,-28
18:03:47:959620,4,-8,0,-4,-2,-25,-7,18
18:03:47:975369,4,-8,0,-4,-2,-25,-7,18
18:03:47:976116,-6,3,-3,2,-1,-24,2,12
18:03:47:991491,-8,-11,0,-4,5,-10,-2,-7
18:03:47:992174,-8,-11,0,-4,5,-10,-2,-7
18:03:47:997731,-5,-7,-8,0,3,14,-1,4
18:03:47:998562,-9,-19,-8,1,-3,-11,0,-20
18:03:48:4756,-9,-19,-8,1,-3,-11,0,-20
18:03:48:12120,6,14,9,1,2,14,3,3
18:03:48:28512,-3,-6,-5,1,0,5,-3,7
18:03:48:29280,-3,-6,-5,1,0,5,-3,7
18:03:48:30134,7,4,0,1,-2,-36,-13,7
18:03:48:51084,-1,-5,1,-2,0,-6,-3,2
18:03:48:51837,-1,-5,1,-2,0,-6,-3,2
18:03:48:52672,11,6,5,-5,7,5,5,23
18:03:48:57235,6,4,-1,0,2,3,-9,10
18:03:48:64664,6,4,-1,0,2,3,-9,10
18:03:48:80294,-13,-17,-7,-4,6,29,3,-37
18:03:48:81066,6,-3,0,-2,-5,14,10,19
18:03:48:103659,6,-3,0,-2,-5,14,10,19
18:03:48:104285,3,1,2,-1,3,2,-1,-4
18:03:48:105064,-5,14,2,-1,-1,-5,5,12
18:03:48:110346,-5,14,2,-1,-1,-5,5,12
18:03:48:111122,3,-4,1,-3,-5,6,4,-4
18:03:48:125325,-4,2,-3,0,-1,10,6,0
18:03:48:126120,-4,2,-3,0,-1,10,6,0
18:03:48:132142,3,0,0,3,-1,4,-5,15
18:03:48:139733,-8,-7,-2,-1,0,-6,-2,-35
18:03:48:155421,-8,-7,-2,-1,0,-6,-2,-35
18:03:48:156107,4,20,-1,2,-3,-14,-2,-8
18:03:48:162148,-10,3,-2,-2,-5,-35,-7,-29
18:03:48:178518,-10,3,-2,-2,-5,-35,-7,-29
18:03:48:179349,-6,-17,3,-6,-4,-14,-3,11
18:03:48:180139,4,23,2,0,3,14,8,15
18:03:48:184734,4,23,2,0,3,14,8,15
18:03:48:192167,2,-8,0,0,-8,4,-2,31
18:03:48:208441,1,-11,0,-2,-2,-8,-2,-15
18:03:48:209252,1,-11,0,-2,-2,-8,-2,-15
18:03:48:210092,-7,-8,1,-2,2,4,-3,-7
18:03:48:239217,0,7,3,2,-4,11,-10,-8
18:03:48:239968,0,7,3,2,-4,11,-10,-8
18:03:48:240760,8,10,0,-1,-4,1,9,18
18:03:48:241536,-5,-21,-3,-4,-3,1,-10,-9
18:03:48:253040,-5,-21,-3,-4,-3,1,-10,-9
18:03:48:253676,5,1,-2,-3,7,-12,-7,30
18:03:48:259651,3,-14,-7,-2,-7,-8,4,4
18:03:48:267837,3,-14,-7,-2,-7,-8,4,4
18:03:48:268624,11,17,4,-4,1,22,-3,12
18:03:48:282616,2,4,-6,-3,1,-4,3,12
18:03:48:290459,2,4,-6,-3,1,-4,3,12
18:03:48:291157,-15,-20,2,-7,7,1,2,-7
18:03:48:313508,3,6,0,0,-1,-3,-14,13
18:03:48:314284,3,6,0,0,-1,-3,-14,13
18:03:48:315095,-3,1,-4,-4,-3,-18,-2,-17
18:03:48:328520,-5,11,-1,-4,11,5,0,9
18:03:48:329324,-5,11,-1,-4,11,5,0,9
18:03:48:330134,-5,2,-8,4,-4,-17,1,-25
18:03:48:342153,4,-13,-2,2,-2,-1,1,15
18:03:48:358529,4,-13,-2,2,-2,-1,1,15
18:03:48:359319,-2,4,8,-1,-3,-10,0,-4
18:03:48:360135,-7,-12,-1,0,-2,11,-4,-22
18:03:48:364651,-7,-12,-1,0,-2,11,-4,-22
18:03:48:389236,0,-1,-2,-1,0,12,6,-14
18:03:48:389943,-10,-11,4,1,3,5,-2,-17
18:03:48:390795,-10,-11,4,1,3,5,-2,-17
18:03:48:391588,-3,-1,3,2,-3,8,7,-4
18:03:48:418234,0,-1,-3,0,-2,-4,2,-15
18:03:48:419158,0,-1,-3,0,-2,-4,2,-15
18:03:48:434216,-1,6,2,2,1,5,-2,-8
18:03:48:434921,2,4,10,2,-5,-33,-9,-2
18:03:48:435825,2,4,10,2,-5,-33,-9,-2
18:03:48:436733,-6,-12,-4,-2,-8,15,-2,-10
18:03:48:439688,-1,3,0,-3,4,14,-1,-10
18:03:48:463520,-1,3,0,-3,4,14,-1,-10
18:03:48:464366,7,8,-6,1,-3,-2,2,-7
18:03:48:465141,8,16,3,-3,4,16,5,5
18:03:48:470435,8,16,3,-3,4,16,5,5
18:03:48:471114,-11,-10,-5,-4,6,-8,-3,-1
18:03:48:485513,-3,0,3,-5,-3,-17,0,-1
18:03:48:486203,-3,0,3,-5,-3,-17,0,-1
18:03:48:492164,-1,-5,-5,-4,-8,2,1,31
18:03:48:499697,8,8,-1,-2,-2,-8,-2,9
18:03:48:507989,8,8,-1,-2,-2,-8,-2,9
18:03:48:508646,2,6,3,-3,-1,-6,-2,-11
18:03:48:538665,4,1,-2,2,-3,-3,2,10
18:03:48:539278,4,1,-2,2,-3,-3,2,10
18:03:48:540097,-5,-8,-4,-4,3,-1,-1,-20
18:03:48:552775,4,-6,-5,-5,0,9,3,11
18:03:48:570127,4,-6,-5,-5,0,9,3,11
18:03:48:570685,-6,-4,-4,-2,3,-5,-5,-2
18:03:48:571493,-6,1,-4,-2,-5,-2,-1,0
18:03:48:572307,-6,1,-4,-2,-5,-2,-1,0
18:03:48:574678,1,-6,-6,-2,-3,5,-2,-4
18:03:48:582139,-2,-3,-3,-1,-6,-8,3,8
18:03:48:590439,-2,-3,-3,-1,-6,-8,3,8
18:03:48:591122,9,3,2,0,-4,-20,-5,24
18:03:48:613540,-1,-2,0,-2,6,-5,1,-12
18:03:48:614297,-1,-2,0,-2,6,-5,1,-12
18:03:48:615117,-2,-1,1,-1,0,-4,1,3
18:03:48:619785,-2,1,0,-2,-4,3,5,-4
18:03:48:627181,-2,1,0,-2,-4,3,5,-4
18:03:48:634838,-4,-6,0,-2,0,2,-1,-8
18:03:48:650950,-9,-7,-3,-1,0,6,-2,-29
18:03:48:657940,-9,-7,-3,-1,0,6,-2,-29
18:03:48:658637,0,1,-4,-2,-2,-1,1,-3
18:03:48:681624,0,0,2,-3,-7,-8,-10,-2
18:03:48:682564,0,0,2,-3,-7,-8,-10,-2
18:03:48:683215,-1,1,3,-3,2,-2,-4,-1
18:03:48:684052,2,-5,-4,-1,1,-4,-1,10
18:03:48:687198,2,-5,-4,-1,1,-4,-1,10
18:03:48:702946,5,5,2,0,-4,10,8,8
18:03:48:703618,-6,2,-2,-2,-2,0,-4,1
18:03:48:710328,-6,2,-2,-2,-2,0,-4,1
18:03:48:711087,1,-5,-4,-2,-4,3,3,5
18:03:48:741645,-2,3,3,-4,-3,-4,-4,-1
18:03:48:742502,-2,3,3,-4,-3,-4,-4,-1
18:03:48:743192,-4,-5,-1,-4,1,1,-6,-1
18:03:48:744049,1,-9,-5,-6,3,9,6,11
18:03:48:755501,1,-9,-5,-6,3,9,6,11
18:03:48:756118,3,6,2,0,1,-3,-9,-3
18:03:48:762148,-1,9,6,-2,-3,6,-1,-3
18:03:48:778281,-1,9,6,-2,-3,6,-1,-3
18:03:48:786277,-4,-4,-1,5,4,5,-1,2
18:03:48:786764,-4,-10,-6,2,-4,-5,1,4
18:03:48:787623,-4,-10,-6,2,-4,-5,1,4
18:03:48:792159,3,11,0,-4,-3,-1,-1,0
18:03:48:816019,-5,-15,-13,-1,1,1,-7,-7
18:03:48:816801,-5,-15,-13,-1,1,1,-7,-7
18:03:48:817604,0,3,4,-4,-3,1,0,-9
18:03:48:822257,2,10,2,-3,-1,13,2,1
18:03:48:830346,2,10,2,-3,-1,13,2,1
18:03:48:831148,-10,-12,-5,-1,-1,-9,-10,-7
18:03:48:845350,1,-3,-3,-2,2,0,0,9
18:03:48:846130,1,-3,-3,-2,2,0,0,9
18:03:48:852392,3,4,-1,2,4,13,6,4
18:03:48:859629,2,2,3,-2,-4,2,-7,-11
18:03:48:867229,2,2,3,-2,-4,2,-7,-11
18:03:48:874777,-3,-10,-3,1,-3,-9,2,-4
18:03:48:882110,-1,-3,1,4,-4,-19,2,11
18:03:48:897858,-1,-3,1,4,-4,-19,2,11
18:03:48:898656,1,1,0,-8,-2,2,-2,5
18:03:48:905433,-2,0,-3,-4,-3,-11,1,-5
18:03:48:906171,-2,0,-3,-4,-3,-11,1,-5
18:03:48:912114,-2,-6,-4,-2,0,-8,5,3
18:03:48:919820,-1,-4,-6,0,3,-3,2,1
18:03:48:935498,-1,-4,-6,0,3,-3,2,1
18:03:48:936161,0,2,-4,-2,2,17,2,-1
18:03:48:942138,-1,-2,12,-6,3,20,0,-1
18:03:48:957687,-1,-2,12,-6,3,20,0,-1
18:03:48:966015,-1,4,-2,-2,-6,-9,-2,1
18:03:48:966775,5,-5,-7,3,-2,9,-4,1
18:03:48:967609,5,-5,-7,3,-2,9,-4,1
18:03:48:972200,-8,-12,-13,3,-5,11,-2,0
18:03:48:979628,-2,-1,1,-2,-4,-10,-1,-3
18:03:48:987360,-2,-1,1,-2,-4,-10,-1,-3
18:03:49:19290,1,-2,1,2,-2,-5,1,0
18:03:49:19904,0,6,9,-1,-3,-15,0,-8
18:03:49:20731,0,6,9,-1,-3,-15,0,-8
18:03:49:21567,-1,-3,8,0,-1,-11,-3,-3
18:03:49:25286,-16,-6,-5,6,0,-16,-4,-16
18:03:49:26133,-16,-6,-5,6,0,-16,-4,-16
18:03:49:32085,0,5,-4,1,-1,-4,-5,-14
18:03:49:39730,3,-3,-3,-1,-1,15,-1,-4
18:03:49:72482,3,-3,-3,-1,-1,15,-1,-4
18:03:49:73174,-7,-10,0,1,4,-21,-3,-14
18:03:49:73965,-2,-1,2,-4,0,13,-1,0
18:03:49:74815,-2,-1,2,-4,0,13,-1,0
18:03:49:77134,6,5,6,-1,-2,-13,1,6
18:03:49:93556,3,1,4,-5,-3,14,-3,4
18:03:49:94279,3,1,4,-5,-3,14,-3,4
18:03:49:95102,-3,-3,14,-5,1,-3,-4,1
18:03:49:99585,-6,-1,-1,-9,-2,-8,2,-2
18:03:49:107320,-6,-1,-1,-9,-2,-8,2,-2
18:03:49:114627,-8,0,10,2,-5,-6,3,-6
18:03:49:138591,3,11,6,-2,5,0,0,12
18:03:49:139274,3,11,6,-2,5,0,0,12
18:03:49:140097,0,-8,-10,0,-3,-9,-3,-11
18:03:49:145301,2,-12,-14,4,1,-12,-3,0
18:03:49:146129,2,-12,-14,4,1,-12,-3,0
18:03:49:168525,7,14,5,-8,1,-7,-2,8
18:03:49:169313,-3,-6,-11,0,-5,-1,-5,0
18:03:49:170194,-3,-6,-11,0,-5,-1,-5,0
18:03:49:174737,-2,16,9,-13,-12,0,-1,1
18:03:49:182166,1,-9,-2,2,1,20,-1,2
18:03:49:190475,1,-9,-2,2,1,20,-1,2
18:03:49:191172,4,-3,0,-2,3,20,-1,14
18:03:49:213539,-3,0,-7,3,4,-17,-1,-1
18:03:49:214316,-3,0,-7,3,4,-17,-1,-1
18:03:49:215114,1,-6,-18,-3,2,-1,-1,-1
18:03:49:219729,-5,9,14,-7,0,-8,7,-9
18:03:49:243547,-5,9,14,-7,0,-8,7,-9
18:03:49:244321,0,-4,-8,4,-7,9,2,6
18:03:49:245114,-2,15,8,0,5,-11,-1,-3
18:03:49:250187,-2,15,8,0,5,-11,-1,-3
18:03:49:266024,-4,-6,0,-2,-2,-2,-7,-5
18:03:49:266793,3,-11,-6,4,-9,1,-2,7
18:03:49:267671,3,-11,-6,4,-9,1,-2,7
18:03:49:272280,1,-4,1,7,4,10,3,-5
18:03:49:295995,-3,0,-11,0,-3,2,2,-6
18:03:49:296807,-3,0,-11,0,-3,2,2,-6
18:03:49:297602,-4,-11,0,4,3,-22,-14,2
18:03:49:302468,4,-3,0,-6,-5,-12,-6,1
18:03:49:317871,4,-3,0,-6,-5,-12,-6,1
18:03:49:318613,2,5,5,-10,-12,8,2,-3
18:03:49:325339,-2,-4,-1,5,6,1,-3,-3
18:03:49:326143,-2,-4,-1,5,6,1,-3,-3
18:03:49:340380,5,12,5,0,1,0,1,0
18:03:49:341125,6,15,14,-9,-2,9,0,-3
18:03:49:347148,6,15,14,-9,-2,9,0,-3
18:03:49:354744,-5,-6,-10,3,5,18,4,-8
18:03:49:362190,-5,8,13,-5,4,17,2,-9
18:03:49:370472,-5,8,13,-5,4,17,2,-9
18:03:49:371150,3,-5,-3,3,4,5,-9,-3
18:03:49:393534,0,-4,-17,2,-1,1,0,4
18:03:49:394317,0,-4,-17,2,-1,1,0,4
18:03:49:395135,-2,2,2,-19,-3,-40,-7,-3
18:03:49:399618,-10,-17,-19,-2,-8,-40,0,7
18:03:49:415402,-10,-17,-19,-2,-8,-40,0,7
18:03:49:416149,-11,-10,-7,4,6,1,2,-5
18:03:49:422225,6,-8,7,-1,-4,-8,-8,5
18:03:49:430365,6,-8,7,-1,-4,-8,-8,5
18:03:49:431200,-4,0,-4,4,-3,-9,0,-7
18:03:49:445362,-1,-8,-12,1,6,-14,0,1
18:03:49:446131,-1,-8,-12,1,6,-14,0,1
18:03:49:476678,7,5,-3,3,2,20,8,12
18:03:49:477517,-7,0,6,6,0,12,0,-3
18:03:49:478317,-7,0,6,6,0,12,0,-3
18:03:49:479101,7,0,-5,-4,-12,-18,-4,5
18:03:49:498497,-1,-15,-4,-2,-3,31,1,-7
18:03:49:499290,-1,-15,-4,-2,-3,31,1,-7
18:03:49:500081,0,9,9,-2,5,-9,5,10
18:03:49:505853,-5,-6,-9,0,-5,-2,2,5
18:03:49:512832,-5,-6,-9,0,-5,-2,2,5
18:03:49:513651,-7,-10,-6,-1,-5,-15,-4,-3
18:03:49:527838,1,7,11,-4,2,4,0,3
18:03:49:528635,1,7,11,-4,2,4,0,3
18:03:49:534618,4,5,-1,-1,-2,-5,1,0
18:03:49:542145,-2,0,-3,-1,2,-4,1,-3
18:03:49:566711,-2,0,-3,-1,2,-4,1,-3
18:03:49:567498,2,21,15,-6,-4,-3,3,2
18:03:49:568321,-3,3,6,-2,1,-1,6,-9
18:03:49:569162,-3,3,6,-2,1,-1,6,-9
18:03:49:572211,-11,-17,-6,-5,-1,31,-4,-11
18:03:49:587937,2,2,-2,-1,-3,3,-6,-5
18:03:49:588661,2,2,-2,-1,-3,3,-6,-5
18:03:49:594622,4,-1,-6,3,-1,-8,-2,4
18:03:49:602342,3,-2,5,-9,0,3,-2,9
18:03:49:617882,3,-2,5,-9,0,3,-2,9
18:03:49:618667,-6,-12,-5,2,2,13,1,-4
18:03:49:625343,2,4,-6,0,-1,-17,-8,-3
18:03:49:626157,2,4,-6,0,-1,-17,-8,-3
18:03:49:632113,-1,-4,-4,1,3,-9,-4,-4
18:03:49:647831,1,7,5,-4,-10,1,2,1
18:03:49:648612,1,7,5,-4,-10,1,2,1
18:03:49:662783,-4,-3,-6,7,2,20,2,1
18:03:49:663552,3,-1,-17,2,-1,-1,0,8
18:03:49:669787,3,-1,-17,2,-1,-1,0,8
18:03:49:677135,0,-3,-2,-1,2,1,4,9
18:03:49:685436,5,1,5,-2,12,-26,1,9
18:03:49:686192,5,1,5,-2,12,-26,1,9
18:03:49:692139,-3,-7,-5,0,0,-6,-1,-5
18:03:49:707957,0,-11,-5,3,-1,15,-5,-5
18:03:49:708620,0,-11,-5,3,-1,15,-5,-5
18:03:49:714614,1,-7,-3,-5,0,4,-8,-5
18:03:49:722245,-9,-5,-15,-3,-3,20,2,-11
18:03:49:729700,-9,-5,-15,-3,-3,20,2,-11
18:03:49:737275,-4,-2,-8,-3,-6,25,4,1
18:03:49:745366,1,0,13,-1,4,-29,-8,-8
18:03:49:746158,1,0,13,-1,4,-29,-8,-8
18:03:49:759623,4,-5,-10,-4,-4,-5,3,5
18:03:49:767824,-4,-5,-2,0,-1,-15,5,1
18:03:49:768657,-4,-5,-2,0,-1,-15,5,1
18:03:49:774690,-4,11,10,-4,-1,-16,-3,-1
18:03:49:782090,3,10,1,-1,4,13,-3,-2
18:03:49:789833,3,10,1,-1,4,13,-3,-2
18:03:49:797117,0,6,2,-8,5,-19,-6,-9
18:03:49:805371,-11,-9,2,1,-3,1,-9,-19
18:03:49:806125,-11,-9,2,1,-3,1,-9,-19
18:03:49:812149,5,5,-1,-3,-2,29,5,1
18:03:49:827862,11,-1,-3,2,-10,48,4,14
18:03:49:828662,11,-1,-3,2,-10,48,4,14
18:03:49:834669,-1,7,4,-4,-5,-19,0,-3
18:03:49:842111,1,2,-1,3,-13,19,9,9
18:03:49:849653,1,2,-1,3,-13,19,9,9
18:03:49:857278,-4,-12,-4,2,11,41,-4,-3
18:03:49:865313,-5,-1,2,-10,2,-14,-9,-1
18:03:49:866181,-5,-1,2,-10,2,-14,-9,-1
18:03:49:872237,-2,-9,-9,3,-1,-12,0,3
18:03:49:887912,-4,2,2,2,1,-8,0,-10
18:03:49:888665,-4,2,2,2,1,-8,0,-10
18:03:49:894660,-4,-7,-3,-1,-3,-5,5,0
18:03:49:902370,5,4,7,-6,2,-11,-4,2
18:03:49:909698,5,4,7,-6,2,-11,-4,2
18:03:49:917125,-4,-10,-4,3,-3,-15,-9,-6
18:03:49:925353,5,9,-1,-6,-5,-23,-8,-6
18:03:49:926159,5,9,-1,-6,-5,-23,-8,-6
18:03:49:932083,2,5,7,-6,-2,-4,2,-4
18:03:49:947820,-6,-8,-6,-1,5,5,7,2
18:03:49:948625,-6,-8,-6,-1,5,5,7,2
18:03:49:962820,-4,4,9,-7,-3,-14,-1,3
18:03:49:963581,-11,-6,-2,-3,-11,-28,-5,-6
18:03:49:969800,-11,-6,-2,-3,-11,-28,-5,-6
18:03:49:977165,-1,-2,4,0,2,1,-2,4
18:03:49:985537,0,0,2,-10,0,17,-4,1
18:03:49:986137,0,0,2,-10,0,17,-4,1
18:03:49:992116,-15,-15,-5,6,-3,2,3,-13
18:03:50:7939,-1,1,1,0,-9,-8,5,-4
18:03:50:8646,-1,1,1,0,-9,-8,5,-4
18:03:50:14585,9,6,8,-4,7,7,4,20
18:03:50:22369,0,0,-3,-3,6,23,3,-5
18:03:50:37939,0,0,-3,-3,6,23,3,-5
18:03:50:38628,-13,-9,-9,-2,0,-26,0,-14
18:03:50:45302,1,0,-4,1,3,7,1,1
18:03:50:46112,1,0,-4,1,3,7,1,1
18:03:50:52323,6,1,-10,-5,-4,-1,-3,-3
18:03:50:67824,-13,-13,-4,4,4,-11,1,-11
18:03:50:68671,-13,-13,-4,4,4,-11,1,-11
18:03:50:74676,11,0,2,-1,3,-20,-5,7
18:03:50:90413,2,1,-6,-2,7,17,0,-3
18:03:50:91097,2,1,-6,-2,7,17,0,-3
18:03:50:97139,8,-4,-4,-1,-9,0,-11,-6
18:03:50:105212,-4,-10,-3,-5,3,-8,0,0
18:03:50:112822,-4,-10,-3,-5,3,-8,0,0
18:03:50:113623,3,7,1,0,-1,8,-2,3
18:03:50:127803,4,16,22,-5,-1,-10,2,7
18:03:50:128638,4,16,22,-5,-1,-10,2,7
18:03:50:134716,3,1,4,-4,0,-9,0,0
18:03:50:142140,3,5,-3,-3,6,16,3,-4
18:03:50:149642,3,5,-3,-3,6,16,3,-4
18:03:50:165981,-1,7,0,-2,1,12,-4,-1
18:03:50:166767,0,-4,-6,-1,7,0,3,6
18:03:50:167596,0,-4,-6,-1,7,0,3,6
18:03:50:172299,-8,-9,-3,1,-1,3,0,-15
18:03:50:196007,6,-7,-2,5,-1,-19,-9,2
18:03:50:196806,6,-7,-2,5,-1,-19,-9,2
18:03:50:197590,0,16,8,-3,-3,-13,5,2
18:03:50:202380,-4,-8,-5,-4,-3,4,-2,-5
18:03:50:217883,-4,-8,-5,-4,-3,4,-2,-5
18:03:50:218619,-14,-4,-5,1,2,4,2,-9
18:03:50:225322,-4,-6,-7,1,6,-13,1,0
18:03:50:226139,-4,-6,-7,1,6,-13,1,0
18:03:50:239758,7,8,-2,-4,4,6,4,6
18:03:50:247829,7,8,-2,-4,4,6,4,6
18:03:50:248638,3,-6,-3,3,-4,-1,5,10
18:03:50:254719,3,0,-4,-9,7,23,6,8
18:03:50:270440,3,0,-4,-9,7,23,6,8
18:03:50:271175,3,22,13,-3,-3,8,-1,-9
18:03:50:277167,-7,-11,-2,2,4,7,-3,-4
18:03:50:285508,-7,-11,-2,2,4,7,-3,-4
18:03:50:286150,-7,-9,0,-1,-1,19,-1,2
18:03:50:292111,-3,-4,-1,-2,-6,-13,-8,-4
18:03:50:316128,-3,-4,-1,-2,-6,-13,-8,-4
18:03:50:316809,3,1,-2,-6,-2,-5,0,6
18:03:50:317613,3,0,3,1,-5,-4,-3,-1
18:03:50:330360,3,0,3,1,-5,-4,-3,-1
18:03:50:331138,-6,-3,-2,-6,0,12,-3,-8
18:03:50:337240,-5,-8,8,5,-7,-7,0,-4
18:03:50:345358,-5,-8,8,5,-7,-7,0,-4
18:03:50:346149,-4,0,-5,-1,-2,-28,-10,-5
18:03:50:352363,6,-11,-5,2,-9,-16,-6,1
18:03:50:367886,6,-11,-5,2,-9,-16,-6,1
18:03:50:368665,3,1,6,-1,-8,-8,-4,6
18:03:50:374756,-1,6,5,-5,2,-12,-3,-4
18:03:50:390455,-1,6,5,-5,2,-12,-3,-4
18:03:50:391107,2,3,0,1,2,4,-2,-3
18:03:50:397091,4,-3,-2,-1,-2,-25,-6,17
18:03:50:405492,4,-3,-2,-1,-2,-25,-6,17
18:03:50:406151,0,-3,-6,4,-5,-25,-2,-1
18:03:50:412110,1,-2,-4,-2,7,18,1,-4
18:03:50:427847,1,-2,-4,-2,7,18,1,-4
18:03:50:428639,-8,0,-1,-4,-5,-13,0,-11
18:03:50:442171,-3,2,7,-3,1,16,-1,-1
18:03:50:450394,-3,2,7,-3,1,16,-1,-1
18:03:50:451178,-3,2,10,2,0,-16,-7,-9
18:03:50:457211,-8,-1,-8,-5,3,4,4,-5
18:03:50:465354,-8,-1,-8,-5,3,4,4,-5
18:03:50:466159,-7,-9,1,2,2,11,0,-12
18:03:50:496692,1,-6,-4,2,1,-4,1,5
18:03:50:497505,1,-6,-4,2,1,-4,1,5
18:03:50:498263,3,10,11,-2,5,-18,-1,6
18:03:50:499063,6,9,6,-4,1,-13,-4,-5
18:03:50:518776,6,9,6,-4,1,-13,-4,-5
18:03:50:519353,0,-9,-8,-5,-2,9,-1,5
18:03:50:520093,-9,-4,2,0,8,-6,0,-5
18:03:50:525336,-9,-4,2,0,8,-6,0,-5
18:03:50:526130,-3,-10,-9,-7,2,0,-12,-11
18:03:50:539734,-1,-2,-9,-1,-2,9,3,2
18:03:50:547803,-1,-2,-9,-1,-2,9,3,2
18:03:50:548647,-3,-1,-3,-2,-3,5,1,7
18:03:50:554762,4,-2,-2,4,-4,12,-2,-1
18:03:50:570379,4,-2,-2,4,-4,12,-2,-1
18:03:50:571090,7,2,1,-3,-2,12,6,11
18:03:50:577136,1,1,-4,1,-3,-21,-6,-5
18:03:50:585422,1,1,-4,1,-3,-21,-6,-5
18:03:50:586141,-9,-8,-2,5,-4,-19,-8,-18
18:03:50:599656,0,2,-2,2,-3,-7,5,-2
18:03:50:607840,0,2,-2,2,-3,-7,5,-2
18:03:50:608584,4,14,2,2,2,0,7,2
18:03:50:614607,-5,2,7,-4,-1,3,-1,1
18:03:50:630771,-5,2,7,-4,-1,3,-1,1
18:03:50:646672,5,4,-6,-5,4,20,-1,7
18:03:50:647510,-2,-3,-6,0,0,9,-1,-2
18:03:50:648226,-2,-3,-6,0,0,9,-1,-2
18:03:50:649076,1,3,-8,7,0,-7,1,0
18:03:50:659620,-12,-1,7,-3,-6,-1,-5,-15
18:03:50:667865,-12,-1,7,-3,-6,-1,-5,-15
18:03:50:668685,8,-1,-1,-3,6,3,1,10
18:03:50:674713,-2,-11,-9,2,13,15,-8,-3
18:03:50:690953,-2,-11,-9,2,13,15,-8,-3
18:03:50:691618,-8,-4,-8,0,-6,-11,3,-8
18:03:50:697096,-3,-13,-13,-5,0,15,0,4
18:03:50:705480,-3,-13,-13,-5,0,15,0,4
18:03:50:706163,-1,-3,-3,-4,-2,11,1,3
18:03:50:719796,2,7,9,5,-4,25,8,-7
18:03:50:727860,2,7,9,5,-4,25,8,-7
18:03:50:728627,6,-4,9,3,8,3,3,4
18:03:50:734656,0,7,-4,-10,1,19,1,8
18:03:50:750387,0,7,-4,-10,1,19,1,8
18:03:50:751153,-6,8,9,-4,-10,-14,-4,-13
18:03:50:765984,5,5,6,-2,-5,-12,0,7
18:03:50:766766,5,5,6,-2,-5,-12,0,7
18:03:50:767602,-5,-10,-6,-2,-1,7,-7,-7
18:03:50:779665,-7,9,13,-8,-1,-18,0,-8
18:03:50:796005,-7,9,13,-8,-1,-18,0,-8
18:03:50:796831,-5,-9,1,4,-4,-7,3,10
18:03:50:797601,10,3,-7,-2,0,6,1,14
18:03:50:810337,10,3,-7,-2,0,6,1,14
18:03:50:811122,-2,-7,-1,-5,7,-1,-5,-5
18:03:50:817117,0,0,-2,-4,-2,-1,2,0
18:03:50:825373,0,0,-2,-4,-2,-1,2,0
18:03:50:826170,-1,-2,-12,1,-12,-33,-5,-10
18:03:50:839753,0,-11,-6,-1,2,-16,1,-2
18:03:50:847823,0,-11,-6,-1,2,-16,1,-2
18:03:50:848618,2,5,5,-5,-2,2,-3,6
18:03:50:854719,-2,-7,-12,2,2,-10,-6,9
18:03:50:870434,-2,-7,-12,2,2,-10,-6,9
18:03:50:871115,-7,1,-4,-7,5,12,3,-5
18:03:50:877095,-2,9,8,4,-6,17,-5,-21
18:03:50:892826,-2,9,8,4,-6,17,-5,-21
18:03:50:893585,-5,-11,2,3,11,17,8,-8
18:03:50:899634,4,1,0,1,2,0,-2,6
18:03:50:923702,4,1,0,1,2,0,-2,6
18:03:50:924296,1,-4,-7,0,-1,15,1,6
18:03:50:925106,1,7,7,-11,-1,-15,0,-10
18:03:50:938701,1,7,7,-11,-1,-15,0,-10
18:03:50:939300,3,0,-3,3,6,0,-4,0
18:03:50:940127,-1,-6,6,-3,1,-12,0,14
18:03:50:945338,-1,-6,6,-3,1,-12,0,14
18:03:50:946135,4,15,13,-17,-2,5,1,3
18:03:50:959675,-3,14,6,-4,-1,3,-2,-13
18:03:50:967868,-3,14,6,-4,-1,3,-2,-13
18:03:50:968610,5,-1,10,4,0,-1,-3,4
18:03:50:974772,0,-1,-1,4,-3,3,-4,2
18:03:50:999046,0,-1,-1,4,-3,3,-4,2
18:03:50:999704,-6,0,-4,-1,-1,9,-5,-11
18:03:51:565,-5,-9,-2,6,-3,2,5,-4
18:03:51:5467,-5,-9,-2,6,-3,2,5,-4
18:03:51:6126,3,-7,-7,9,-7,-20,1,-2
18:03:51:19791,7,2,-1,0,4,1,2,8
18:03:51:27878,7,2,-1,0,4,1,2,8
18:03:51:28649,-11,-4,-2,-8,-8,-9,-6,-3
18:03:51:34669,-8,-5,-13,1,7,0,-2,-13
18:03:51:50438,-8,-5,-13,1,7,0,-2,-13
18:03:51:51171,-1,-7,-9,3,0,-3,5,7
18:03:51:66025,-4,-12,-7,3,2,8,-4,-1
18:03:51:66796,-4,-12,-7,3,2,8,-4,-1
18:03:51:67594,-4,2,-2,-2,-2,-1,-4,-14
18:03:51:79658,-2,-14,-6,2,-7,-21,-8,-9
18:03:51:87926,-2,-14,-6,2,-7,-21,-8,-9
18:03:51:88619,7,-3,-1,-6,3,-15,-6,13
18:03:51:94617,-7,0,-11,-5,-1,5,-5,-8
18:03:51:110326,-7,0,-11,-5,-1,5,-5,-8
18:03:51:111110,-5,-13,2,-6,-4,3,2,-6
18:03:51:117100,8,1,-1,-12,1,-45,-1,19
18:03:51:125353,8,1,-1,-12,1,-45,-1,19
18:03:51:126108,-3,5,0,-5,2,12,-7,-15
18:03:51:148461,-4,-10,-2,0,-6,-8,3,2
18:03:51:149264,-4,-10,-2,0,-6,-8,3,2
18:03:51:150091,7,-2,-1,2,-2,-8,5,19
18:03:51:154734,-8,12,4,-3,-1,4,-2,-17
18:03:51:178553,-8,12,4,-3,-1,4,-2,-17
18:03:51:179291,-2,7,-2,-1,1,8,6,-11
18:03:51:180127,20,5,11,-6,0,-22,7,24
18:03:51:184738,20,5,11,-6,0,-22,7,24
18:03:51:192140,-3,3,2,-6,2,2,-3,-2
18:03:51:199632,-4,-1,-6,-3,1,18,-11,-22
18:03:51:208020,-4,-1,-6,-3,1,18,-11,-22
18:03:51:208647,0,-10,-2,1,-3,-21,6,26
18:03:51:222254,2,10,12,-1,-2,13,0,2
18:03:51:238655,2,10,12,-1,-2,13,0,2
18:03:51:239295,1,12,-1,2,-1,24,-5,-16
18:03:51:240116,-1,-13,-4,2,-10,-17,6,12
18:03:51:253031,-1,-13,-4,2,-10,-17,6,12
18:03:51:253628,5,1,-1,-2,4,-30,-1,10
18:03:51:277362,-9,11,8,-3,0,25,-7,-18
18:03:51:278152,-9,11,8,-3,0,25,-7,-18
18:03:51:278950,-2,-8,-4,2,0,9,1,-3
18:03:51:279755,10,-7,-7,1,0,-7,-3,11
18:03:51:290493,10,-7,-7,1,0,-7,-3,11
18:03:51:291189,-8,-4,-3,-5,-1,15,-3,-19
18:03:51:297114,-6,-4,-6,-2,1,14,0,-11
18:03:51:305541,-6,-4,-6,-2,1,14,0,-11
18:03:51:306158,-1,-4,-1,4,-2,-11,3,10
18:03:51:328482,0,-5,-12,-1,0,3,-4,-6
18:03:51:329291,0,-5,-12,-1,0,3,-4,-6
18:03:51:330102,-5,2,0,-3,4,3,-7,-15
18:03:51:334610,-1,5,1,-3,-4,-11,6,5
18:03:51:350843,-1,5,1,-3,-4,-11,6,5
18:03:51:351570,3,-5,-4,4,1,4,-5,13
18:03:51:357229,-6,-5,1,1,4,7,-2,-14
18:03:51:365335,-6,-5,1,1,4,7,-2,-14
18:03:51:366124,-4,2,8,-2,-1,-17,2,-11
18:03:51:379666,3,-16,-5,0,-1,-3,1,21
18:03:51:387958,3,-16,-5,0,-1,-3,1,21
18:03:51:388610,-1,-6,-11,5,1,-2,-4,3
18:03:51:402383,-1,4,-6,4,-2,6,0,-3
18:03:51:410325,-1,4,-6,4,-2,6,0,-3
18:03:51:411084,0,2,3,-3,-1,18,0,-6
18:03:51:425362,-8,-11,-6,4,-3,-20,2,-5
18:03:51:426147,-8,-11,-6,4,-3,-20,2,-5
18:03:51:432141,2,-5,1,-5,-1,1,1,13
18:03:51:439746,6,8,-1,-4,4,-8,-3,-3
18:03:51:447822,6,8,-1,-4,4,-8,-3,-3
18:03:51:448637,-1,3,-7,-1,-1,1,-1,-7
18:03:51:462863,7,-7,0,2,-5,2,3,12
18:03:51:463654,7,-7,0,2,-5,2,3,12
18:03:51:477810,1,1,-5,0,0,11,2,4
18:03:51:478587,-2,7,2,-4,1,-18,-2,-7
18:03:51:501010,-2,7,2,-4,1,-18,-2,-7
18:03:51:501768,1,3,5,-1,5,6,3,3
18:03:51:502667,-1,-3,4,0,-1,8,-12,-4
18:03:51:507869,-1,-3,4,0,-1,8,-12,-4
18:03:51:508637,-2,-7,0,-3,-11,-14,-1,6
18:03:51:522942,4,6,-7,-4,-5,15,3,2
18:03:51:523658,4,6,-7,-4,-5,15,3,2
18:03:51:529649,1,1,2,3,-6,-1,1,-2
18:03:51:553638,-5,-1,7,-3,-1,-4,-1,-2
18:03:51:554327,-5,-1,7,-3,-1,-4,-1,-2
18:03:51:555090,6,6,12,-12,-3,-6,-4,3
18:03:51:559645,-4,-3,0,-4,-2,0,5,1
18:03:51:567925,-4,-3,0,-4,-2,0,5,1
18:03:51:568705,-4,-5,-1,1,6,-22,-9,-6
18:03:51:582834,0,7,11,-11,4,-18,4,5
18:03:51:583681,0,7,11,-11,4,-18,4,5
18:03:51:589702,-2,4,-4,-4,-4,-15,-5,-24
18:03:51:613518,-1,-10,-11,9,8,10,-8,-9
18:03:51:614287,-1,-10,-11,9,8,10,-8,-9
18:03:51:615081,3,-5,-2,2,-3,2,9,4
18:03:51:628470,1,-7,-5,-4,-2,9,0,2
18:03:51:629266,1,-7,-5,-4,-2,9,0,2
18:03:51:630120,-7,-8,-17,5,3,15,-11,-6
18:03:51:642864,-10,4,1,1,-1,-1,0,-6
18:03:51:643656,-10,4,1,1,-1,-1,0,-6
18:03:51:649631,-4,2,4,-4,6,33,1,-7
18:03:51:657229,3,-6,-8,1,0,-23,-3,9
18:03:51:664694,3,-6,-8,1,0,-23,-3,9
18:03:51:680276,3,1,-2,-11,-2,-39,0,13
18:03:51:681077,-1,-2,6,-3,-1,16,-3,-6
18:03:51:687923,-1,-2,6,-3,-1,16,-3,-6
18:03:51:688662,3,-1,-4,3,-3,3,1,1
18:03:51:703455,-1,7,3,4,-3,-7,-5,-6
18:03:51:704089,-1,7,3,4,-3,-7,-5,-6
18:03:51:709636,-12,-10,-3,0,0,3,-1,-5
18:03:51:717139,2,-8,-4,1,-4,-4,0,6
18:03:51:724840,2,-8,-4,1,-4,-4,0,6
18:03:51:732132,5,19,17,-7,-1,-7,0,-4
18:03:51:756065,-11,0,-1,-2,1,0,2,-16
18:03:51:756794,-11,0,-1,-2,1,0,2,-16
18:03:51:757589,1,-1,-4,-1,-2,-4,-4,0
18:03:51:762825,1,6,-2,-2,2,12,-2,0
18:03:51:763646,1,6,-2,-2,2,12,-2,0
18:03:51:777808,-3,-5,3,-4,-1,-8,4,0
18:03:51:778600,5,-4,-4,1,-6,-20,-3,11
18:03:51:784691,5,-4,-4,1,-6,-20,-3,11
18:03:51:792109,2,10,5,-5,-3,16,-1,9
18:03:51:799632,-7,-6,0,2,-1,14,1,-12
18:03:51:807914,-7,-6,0,2,-1,14,1,-12
18:03:51:808628,-5,-4,-7,0,-4,4,-1,-1
18:03:51:830950,-4,2,0,1,4,-1,0,2
18:03:51:831763,-4,2,0,1,4,-1,0,2
18:03:51:832557,-3,-20,-8,7,2,13,-2,3
18:03:51:837226,8,4,3,-6,1,-1,-1,6
18:03:51:844656,8,4,3,-6,1,-1,-1,6
18:03:51:860311,4,3,1,-1,-2,-5,-1,5
18:03:51:861074,-3,-4,1,-1,-6,-33,-2,-4
18:03:51:868265,-3,-4,1,-1,-6,-33,-2,-4
18:03:51:883570,-1,6,1,-1,3,-4,-2,-9
18:03:51:884282,1,-4,-3,-1,4,11,6,10
18:03:51:885131,1,-4,-3,-1,4,11,6,10
18:03:51:889781,6,-6,4,-4,-4,-7,-5,3
18:03:51:905426,2,3,-5,-4,1,-2,-8,-6
18:03:51:906174,2,3,-5,-4,1,-2,-8,-6
18:03:51:912128,2,2,-4,-2,-3,12,0,-5
18:03:51:919818,-11,-2,-1,-4,4,15,-1,-9
18:03:51:927604,-11,-2,-1,-4,4,15,-1,-9
18:03:51:934653,-5,-3,1,-3,-3,-2,4,11
18:03:51:942805,2,1,5,-2,-5,-5,-1,5
18:03:51:943601,2,1,5,-2,-5,-5,-1,5
18:03:51:957831,0,1,4,-1,2,2,0,-6
18:03:51:958566,3,4,1,-3,4,8,0,6
18:03:51:964680,3,4,1,-3,4,8,0,6
18:03:51:980277,-2,2,-2,-5,-5,-34,0,-6
18:03:51:981061,5,2,2,-2,-1,-11,4,5
18:03:51:987985,5,2,2,-2,-1,-11,4,5
18:03:51:988683,-5,0,-4,1,3,-11,1,2
18:03:52:10977,4,12,4,-11,-4,12,1,-9
18:03:52:11781,4,12,4,-11,-4,12,1,-9
18:03:52:12585,-5,-10,-7,-2,2,10,-1,-14
18:03:52:33587,0,-9,-1,1,-3,4,-1,3
18:03:52:34301,0,-9,-1,1,-3,4,-1,3
18:03:52:35129,-4,-1,1,0,3,-7,-5,-2
18:03:52:39722,1,4,-6,-5,4,11,0,0
18:03:52:63496,1,4,-6,-5,4,11,0,0
18:03:52:64269,1,-1,-3,-2,3,17,-4,-4
18:03:52:65086,-12,-16,-8,3,-5,-6,0,-15
18:03:52:70460,-12,-16,-8,3,-5,-6,0,-15
18:03:52:71235,-8,-1,0,-1,-4,-4,0,-9
18:03:52:77146,-4,-1,3,0,-4,-12,-3,-3
18:03:52:84726,-4,-1,3,0,-4,-12,-3,-3
18:03:52:116655,3,8,4,-6,-2,3,1,4
18:03:52:117394,-7,-8,-3,2,-2,9,-2,-10
18:03:52:118237,-7,-8,-3,2,-2,9,-2,-10
18:03:52:119098,6,-2,-2,4,0,-5,1,7
18:03:52:122948,3,-1,-4,-1,0,-16,-2,5
18:03:52:123634,3,-1,-4,-1,0,-16,-2,5
18:03:52:129656,-3,-7,-8,3,-7,5,0,-4
18:03:52:137243,3,0,-3,3,2,4,2,6
18:03:52:144665,3,0,-3,3,2,4,2,6
18:03:52:152317,3,2,1,-4,1,-6,-1,18
18:03:52:159655,5,0,0,-6,-2,-10,-8,-6
18:03:52:167861,5,0,0,-6,-2,-10,-8,-6
18:03:52:168656,-3,-8,-2,-2,-8,-10,-3,-8
18:03:52:182165,-3,-2,-5,1,0,6,2,4
18:03:52:190492,-3,-2,-5,1,0,6,2,4
18:03:52:191136,3,-4,1,-2,2,11,2,-1
18:03:52:197148,1,-7,-1,0,-4,-17,-6,-5
18:03:52:204779,1,-7,-1,0,-4,-17,-6,-5
18:03:52:212104,-2,0,0,-2,-2,8,-1,-2
18:03:52:219772,0,4,4,-3,-2,6,-2,-2
18:03:52:235370,0,4,4,-3,-2,6,-2,-2
18:03:52:236119,-8,0,0,-1,0,2,-2,-9
18:03:52:242202,-3,-2,1,-5,-4,11,-4,-6
18:03:52:266715,-3,-2,1,-5,-4,11,-4,-6
18:03:52:267535,1,1,2,-2,1,-7,-3,-5
18:03:52:268187,-2,-6,-3,-1,1,-13,2,3
18:03:52:269198,-2,-6,-3,-1,1,-13,2,3
18:03:52:289274,-1,-1,-7,1,2,-5,-2,-2
18:03:52:289949,-2,-1,-6,5,2,8,1,5
18:03:52:290766,-2,-1,-6,5,2,8,1,5
18:03:52:291575,-1,6,-3,-4,2,-6,3,-2
18:03:52:302405,-7,4,10,-3,-5,11,-3,12
18:03:52:310336,-7,4,10,-3,-5,11,-3,12
18:03:52:311102,-7,-5,-1,-3,-10,-16,3,-10
18:03:52:325329,5,1,-3,-1,4,33,6,-2
18:03:52:326101,5,1,-3,-1,4,33,6,-2
18:03:52:332121,4,5,-1,-7,0,-3,-6,11
18:03:52:339816,-2,-5,4,-5,-3,-10,0,-45
18:03:52:347172,-2,-5,4,-5,-3,-10,0,-45
18:03:52:354703,0,-3,-6,1,2,-10,-1,-4
18:03:52:362128,13,5,2,-2,-2,-11,-1,38
18:03:52:370403,13,5,2,-2,-2,-11,-1,38
18:03:52:371135,3,-1,2,1,-3,5,-5,-10
18:03:52:385366,-7,-8,-6,1,0,3,-4,4
18:03:52:386152,-7,-8,-6,1,0,3,-4,4
18:03:52:392074,3,3,1,-1,-1,18,2,15
18:03:52:399673,4,-1,-5,-3,-3,-15,-8,-4
18:03:52:407334,4,-1,-5,-3,-3,-15,-8,-4
18:03:52:414588,-6,-4,-2,-4,-6,0,-3,-8
18:03:52:422289,-6,-8,-2,0,1,-44,-4,-9
18:03:52:430389,-6,-8,-2,0,1,-44,-4,-9
18:03:52:431136,-3,1,-2,1,-4,-9,-3,-10
18:03:52:445341,-7,-1,-2,-1,-2,13,2,-18
18:03:52:446182,-7,-1,-2,-1,-2,13,2,-18
18:03:52:452332,-1,-1,0,-1,2,15,3,1
18:03:52:459615,-2,-6,-2,0,-1,12,9,8
18:03:52:467208,-2,-6,-2,0,-1,12,9,8
18:03:52:474764,-1,-5,-1,-5,2,5,3,14
18:03:52:482084,0,10,0,1,-1,-5,5,42
18:03:52:490478,0,10,0,1,-1,-5,5,42
18:03:52:491168,-7,-6,0,0,-3,-10,0,10
18:03:52:505424,-8,-2,0,-2,-6,1,-7,-21
18:03:52:506168,-8,-2,0,-2,-6,1,-7,-21
18:03:52:512113,7,-2,0,1,0,8,-3,-45
18:03:52:519798,-1,-3,1,2,3,3,-7,-21
18:03:52:527210,-1,-3,1,2,3,3,-7,-21
18:03:52:542783,3,1,2,2,1,6,-5,20
18:03:52:543552,3,0,1,-4,1,11,-5,-11
18:03:52:550372,3,0,1,-4,1,11,-5,-11
18:03:52:551143,6,1,-2,-4,6,9,-1,3
18:03:52:565352,5,-2,-3,-1,1,9,4,21
18:03:52:566157,5,-2,-3,-1,1,9,4,21
18:03:52:572291,1,-3,-1,2,-5,5,-4,8
18:03:52:587974,2,2,-5,-4,-1,-6,0,-9
18:03:52:588699,2,2,-5,-4,-1,-6,0,-9
18:03:52:594604,0,3,0,-1,6,-9,-2,-7
18:03:52:602323,11,4,-2,-6,-2,-25,-6,25
18:03:52:610349,11,4,-2,-6,-2,-25,-6,25
18:03:52:611135,1,0,1,-2,-6,-2,8,16
18:03:52:625312,-1,10,0,1,0,10,2,33
18:03:52:626151,-1,10,0,1,0,10,2,33
18:03:52:632081,-14,-3,-1,-2,3,-26,-4,-15
18:03:52:639709,-4,-6,2,-3,-1,1,1,-16
18:03:52:647167,-4,-6,2,-3,-1,1,1,-16
18:03:52:654727,1,2,0,1,-8,-18,5,1
18:03:52:662122,2,-1,-2,1,1,-8,-6,1
18:03:52:670434,2,-1,-2,1,1,-8,-6,1
18:03:52:671145,8,-6,-4,-4,1,-10,-4,-9
18:03:52:685473,-8,-5,-1,-2,-7,-3,12,-9
18:03:52:686172,-8,-5,-1,-2,-7,-3,12,-9
18:03:52:692136,-12,1,-5,0,-2,5,3,0
18:03:52:699633,3,0,-2,-5,5,2,-1,-7
18:03:52:715370,3,0,-2,-5,5,2,-1,-7
18:03:52:716138,-3,-3,0,-4,3,17,-7,0
18:03:52:722199,-5,-4,2,2,-3,-38,-6,-8
18:03:52:731006,-5,-4,2,2,-3,-38,-6,-8
18:03:52:731782,0,2,0,-4,2,13,-3,-4
18:03:52:745336,-4,0,-2,4,-2,1,1,-20
18:03:52:746123,-4,0,-2,4,-2,1,1,-20
18:03:52:752274,-2,-2,4,0,-6,5,0,-21
18:03:52:759598,5,1,2,-1,-4,-6,-2,2
18:03:52:767184,5,1,2,-1,-4,-6,-2,2
18:03:52:774760,-2,-7,-2,-1,-7,-14,-6,20
18:03:52:790172,6,4,1,-4,-3,2,1,9
18:03:52:806809,6,4,1,-4,-3,2,1,9
18:03:52:807572,0,-3,-5,1,-3,-13,-1,-2
18:03:52:808294,-9,-5,-6,-2,7,26,-5,2
18:03:52:809124,-9,-5,-6,-2,7,26,-5,2
18:03:52:812096,0,3,-1,2,1,12,1,11
18:03:52:819749,1,11,4,-1,9,5,1,11
18:03:52:827195,1,11,4,-1,9,5,1,11
18:03:52:834634,3,2,1,-4,-4,-3,-5,-8
18:03:52:842845,-1,-5,1,-4,1,-10,-2,6
18:03:52:843635,-1,-5,1,-4,1,-10,-2,6
18:03:52:857203,6,4,2,-1,-2,-1,2,10
18:03:52:865359,5,-3,-2,0,-5,-7,-8,-3
18:03:52:866116,5,-3,-2,0,-5,-7,-8,-3
18:03:52:888561,-13,-5,3,-2,-4,-15,-4,-36
18:03:52:889219,0,0,-2,-2,-3,14,-2,-7
18:03:52:890140,0,0,-2,-2,-3,14,-2,-7
18:03:52:894621,-9,-6,-5,2,-4,-16,-4,0
18:03:52:902986,-3,-2,0,2,-6,19,5,-7
18:03:52:903594,-3,-2,0,2,-6,19,5,-7
18:03:52:909687,-2,2,-2,-2,4,-5,5,4
18:03:52:933568,1,-1,-4,-8,-4,3,3,-10
18:03:52:934239,1,-1,-4,-8,-4,3,3,-10
18:03:52:935109,-3,-9,-2,0,5,5,-1,-6
18:03:52:939774,-4,3,2,0,-4,-4,0,-20
18:03:52:947167,-4,3,2,0,-4,-4,0,-20
18:03:52:954752,-6,-1,0,-1,0,1,-3,-8
18:03:52:962797,-2,-6,-1,1,-5,-33,-4,0
18:03:52:963596,-2,-6,-1,1,-5,-33,-4,0
18:03:52:969764,-3,-1,1,3,6,28,2,-2
18:03:52:985425,0,3,0,3,5,-14,3,17
18:03:52:986181,0,3,0,3,5,-14,3,17
18:03:52:992150,6,3,0,-1,-7,7,5,2
18:03:52:999613,-7,8,1,-3,-2,15,1,12
18:03:53:7301,-7,8,1,-3,-2,15,1,12
18:03:53:14637,-2,0,4,-2,-2,-20,0,-3
18:03:53:22923,-4,-9,0,-3,-6,-27,-2,-3
18:03:53:23649,-4,-9,0,-3,-6,-27,-2,-3
18:03:53:29633,7,-3,5,-5,-4,2,-2,7
18:03:53:45291,2,-7,-3,-3,-2,22,-2,11
18:03:53:46105,2,-7,-3,-3,-2,22,-2,11
18:03:53:52291,11,4,-1,-6,8,16,1,11
18:03:53:59642,-2,4,4,0,-7,21,0,-11
18:03:53:67169,-2,4,4,0,-7,21,0,-11
18:03:53:74744,-1,-3,-2,-3,-1,-9,-5,-16
18:03:53:82801,-2,-7,-2,-2,-3,-46,-8,-8
18:03:53:83610,-2,-7,-2,-2,-3,-46,-8,-8
18:03:53:89724,-13,-1,-6,0,6,-10,-2,-28
18:03:53:114160,2,-4,-2,-2,-1,-10,-17,4
18:03:53:114983,2,-4,-2,-2,-1,-10,-17,4
18:03:53:115784,1,-8,-5,-2,0,-29,-4,8
18:03:53:119803,-8,3,2,-2,5,6,8,-20
18:03:53:127165,-8,3,2,-2,5,6,8,-20
18:03:53:134631,1,2,-2,3,-1,6,8,13
18:03:53:142811,-2,2,-3,-2,4,12,-4,7
18:03:53:143624,-2,2,-3,-2,4,12,-4,7
18:03:53:149618,5,7,-2,-1,-3,16,4,26
18:03:53:165286,-2,2,-4,-1,1,2,4,-2
18:03:53:166127,-2,2,-4,-1,1,2,4,-2
18:03:53:172253,-7,-4,-1,2,-4,0,-8,-14
18:03:53:179613,-7,-9,-2,-4,-5,4,1,-8
18:03:53:187290,-7,-9,-2,-4,-5,4,1,-8
18:03:53:194620,12,2,-1,0,-4,3,-3,9
18:03:53:202994,-5,5,4,-1,2,-3,6,-13
18:03:53:203656,-5,5,4,-1,2,-3,6,-13
18:03:53:209618,-7,0,6,-2,2,9,7,4
18:03:53:225318,8,3,-6,2,4,4,-2,12
18:03:53:226108,8,3,-6,2,4,4,-2,12
18:03:53:232079,-1,7,4,-5,-2,15,5,-2
18:03:53:239725,-4,-5,3,0,5,4,-1,-45
18:03:53:247176,-4,-5,3,0,5,4,-1,-45
18:03:53:254709,-11,-9,-3,1,5,-2,-2,-10
18:03:53:262817,7,-5,-7,-1,-8,-3,-8,23
18:03:53:263624,7,-5,-7,-1,-8,-3,-8,23
18:03:53:277103,-1,-1,2,-3,-5,-2,-1,-6
18:03:53:293466,0,1,1,1,-1,12,-1,-3
18:03:53:294306,0,1,1,1,-1,12,-1,-3
18:03:53:295092,-3,-1,5,-3,-3,8,-5,-2
18:03:53:307848,4,5,3,-2,-5,4,1,-8
18:03:53:308597,4,5,3,-2,-5,4,1,-8
18:03:53:314619,4,4,-1,-1,0,-14,-4,3
18:03:53:322959,0,0,0,-5,0,-7,-1,31
18:03:53:323676,0,0,0,-5,0,-7,-1,31
18:03:53:337238,-4,-3,0,0,-3,-12,-1,-3
18:03:53:345044,-3,0,-1,-2,1,-32,-3,2
18:03:53:352997,-3,0,-1,-2,1,-32,-3,2
18:03:53:353602,2,-5,-7,-2,1,-11,-2,-2
18:03:53:367882,7,4,-1,1,-2,-7,2,1
18:03:53:368636,7,4,-1,1,-2,-7,2,1
18:03:53:374769,0,-2,-3,0,1,-7,-3,-7
18:03:53:382796,-6,-9,-9,-3,-2,-14,-9,-9
18:03:53:383592,-6,-9,-9,-3,-2,-14,-9,-9
18:03:53:397138,0,1,-4,-3,1,0,-5,1
18:03:53:405449,1,-5,-2,-2,-4,29,1,-6
18:03:53:406163,1,-5,-2,-2,-4,29,1,-6
18:03:53:412130,0,-1,-3,-4,3,3,0,-3
18:03:53:427875,-10,-4,-1,-1,7,6,5,-1
18:03:53:428700,-10,-4,-1,-1,7,6,5,-1
18:03:53:434707,0,-6,-2,-1,-1,1,1,19
18:03:53:442874,-3,-1,3,-5,-1,11,1,-5
18:03:53:443672,-3,-1,3,-5,-1,11,1,-5
18:03:53:457228,-2,5,0,0,-4,-3,-4,-3
18:03:53:465388,-2,5,0,0,-4,-3,-4,-3
18:03:53:466143,5,1,1,1,-6,4,2,-2
18:03:53:472232,2,-10,-2,-2,-9,30,0,-2
18:03:53:487978,2,-10,-2,-2,-9,30,0,-2
18:03:53:488657,-1,-2,-4,-1,10,29,1,-6
18:03:53:494609,-2,-1,-5,-2,1,-13,1,1
18:03:53:503006,-2,-1,-5,-2,1,-13,1,1
18:03:53:503659,-1,-2,3,3,-2,0,1,6
18:03:53:517150,-3,1,-1,0,0,-11,2,-4
18:03:53:525345,-3,1,-1,0,0,-11,2,-4
18:03:53:526139,-6,1,-2,-5,-6,-26,0,-10
18:03:53:532111,5,0,1,1,-1,0,-3,12
18:03:53:556082,5,0,1,1,-1,0,-3,12
18:03:53:556818,-2,-13,-4,-1,-3,8,-2,-7
18:03:53:557567,-10,-5,2,3,2,-20,3,-11
18:03:53:562843,-10,-5,2,3,2,-20,3,-11
18:03:53:563636,1,-1,-1,0,1,3,3,-4
18:03:53:577137,5,4,0,-5,1,11,-1,9
18:03:53:585459,5,4,0,-5,1,11,-1,9
18:03:53:586212,-9,-6,1,-1,3,2,-6,-23
18:03:53:592155,-14,-5,-4,0,0,4,0,-12
18:03:53:607970,-14,-5,-4,0,0,4,0,-12
18:03:53:608598,2,1,-1,0,-3,-22,1,15
18:03:53:623579,3,0,-5,-2,0,-14,-4,-9
18:03:53:624305,3,0,-5,-2,0,-14,-4,-9
18:03:53:625118,-5,-5,4,2,2,4,2,-1
18:03:53:645976,-5,-3,-1,-1,-1,1,-3,-6
18:03:53:646794,-5,-3,-1,-1,-1,1,-3,-6
18:03:53:647597,-2,-1,1,-2,7,-1,-1,-5
18:03:53:659645,3,0,1,-2,4,22,-1,8
18:03:53:667883,3,0,1,-2,4,22,-1,8
18:03:53:668573,-3,0,-3,2,-6,-12,-5,3
18:03:53:674751,-1,-3,-3,0,-2,-7,2,2
18:03:53:682806,-1,-3,-3,0,-2,-7,2,2
18:03:53:683614,7,3,-4,0,-3,9,-5,-1
18:03:53:697145,-1,-2,0,-5,-7,-9,-4,-22
18:03:53:705397,-1,-2,0,-5,-7,-9,-4,-22
18:03:53:706148,1,-6,1,1,0,29,-1,0
18:03:53:719825,4,6,2,1,5,-12,-7,3
18:03:53:727884,4,6,2,1,5,-12,-7,3
18:03:53:728671,-1,2,1,-4,0,-21,-1,4
18:03:53:734653,-5,-5,-2,-1,-3,1,0,-5
18:03:53:750427,-5,-5,-2,-1,-3,1,0,-5
18:03:53:751170,1,-4,-1,-2,-5,-2,-5,8
18:03:53:757219,-1,0,2,-1,0,0,-4,-4
18:03:53:765292,-1,0,2,-1,0,0,-4,-4
18:03:53:766089,3,-1,-3,-5,-1,-8,4,0
18:03:53:772258,0,9,5,-6,-3,-14,2,8
18:03:53:787999,0,9,5,-6,-3,-14,2,8
18:03:53:788675,-2,-3,2,-1,-3,-6,-2,-17
18:03:53:794631,1,-6,-3,3,3,-9,3,13
18:03:53:802994,1,-6,-3,3,3,-9,3,13
18:03:53:803623,-3,6,-8,-7,3,1,0,0
18:03:53:817128,7,-4,-5,-4,2,-5,1,13
18:03:53:825394,7,-4,-5,-4,2,-5,1,13
18:03:53:826146,1,0,2,-2,-2,-17,1,7
18:03:53:832120,-3,2,-1,-3,-3,-8,-6,-4
18:03:53:847838,-3,2,-1,-3,-3,-8,-6,-4
18:03:53:848659,-1,-2,-5,-3,1,9,2,4
18:03:53:854682,4,2,-2,-1,-4,-3,1,5
18:03:53:878479,4,2,-2,-1,-4,-3,1,5
18:03:53:879279,-2,2,4,1,-1,-1,-6,9
18:03:53:880064,-4,-4,1,-8,2,2,-3,-5
18:03:53:885508,-4,-4,1,-8,2,2,-3,-5
18:03:53:886181,5,1,0,-3,0,-1,2,-1
18:03:53:892094,0,0,2,-1,-3,-6,6,0
18:03:53:915884,0,0,2,-1,-3,-6,6,0
18:03:53:916548,-1,-3,-2,-2,-2,9,-2,1
18:03:53:923542,-5,-9,-2,-6,-3,7,-3,1
18:03:53:924299,-5,-9,-2,-6,-3,7,-3,1
18:03:53:925069,-8,0,-4,3,0,-14,-4,-8
18:03:53:937159,-5,0,0,1,-3,8,-5,-24
18:03:53:953661,-5,0,0,1,-3,8,-5,-24
18:03:53:954287,6,4,-5,-2,3,-5,-5,6
18:03:53:955101,3,-4,-2,0,1,8,-3,-1
18:03:53:967865,3,-4,-2,0,1,8,-3,-1
18:03:53:968725,-3,-1,-3,-6,-7,-13,3,6
18:03:53:974666,-8,-3,-6,2,-1,-9,1,3
18:03:53:982844,-8,-3,-6,2,-1,-9,1,3
18:03:53:983620,2,7,7,-3,0,0,4,-2
18:03:53:997137,2,2,1,-3,-3,17,-2,-6
18:03:54:5486,2,2,1,-3,-3,17,-2,-6
18:03:54:6133,-15,-15,-2,-1,-3,-9,-4,-16
18:03:54:12107,7,4,9,-2,-1,-9,2,10
18:03:54:27836,7,4,9,-2,-1,-9,2,10
18:03:54:28633,-5,-2,4,3,-1,-3,3,-5
18:03:54:34638,0,3,-5,0,5,12,0,1
18:03:54:42860,0,3,-5,0,5,12,0,1
18:03:54:43616,4,-2,2,1,-3,-6,-4,-3
18:03:54:57255,0,3,-1,-6,-1,1,-3,5
18:03:54:65328,0,3,-1,-6,-1,1,-3,5
18:03:54:66130,-3,0,-4,-3,2,-4,-2,-3
18:03:54:88628,-2,6,5,0,-5,-4,3,-4
18:03:54:89287,-2,6,5,0,-5,-4,3,-4
18:03:54:90111,3,-2,3,1,-1,-1,-1,-12
18:03:54:103625,-2,-6,-6,0,-4,-13,3,3
18:03:54:104294,-2,-6,-6,0,-4,-13,3,3
18:03:54:105083,5,5,-4,-3,-1,1,2,8
18:03:54:117124,2,-5,-3,0,-5,4,0,-7
18:03:54:125347,2,-5,-3,0,-5,4,0,-7
18:03:54:126107,-6,-5,1,-5,1,3,0,-3
18:03:54:132095,-2,-10,-5,3,-3,-10,-5,17
18:03:54:147860,-2,-10,-5,3,-3,-10,-5,17
18:03:54:148621,5,6,-2,-3,0,-1,2,0
18:03:54:154705,3,1,-1,-4,4,8,-1,8
18:03:54:162896,3,1,-1,-4,4,8,-1,8
18:03:54:163629,4,1,-3,-5,-2,-3,-2,1
18:03:54:177153,-5,-12,-7,1,-5,-12,-3,-8
18:03:54:185495,-5,-12,-7,1,-5,-12,-3,-8
18:03:54:186170,-1,-11,-5,1,0,-7,-6,-4
18:03:54:192116,3,5,3,4,-1,4,2,9
18:03:54:216050,3,5,3,4,-1,4,2,9
18:03:54:216791,-2,2,4,1,-5,-9,4,0
18:03:54:217641,1,-1,0,1,-1,-2,-1,-10
18:03:54:222268,1,-1,0,1,-1,-2,-1,-10
18:03:54:229648,-1,2,2,-3,0,14,-5,7
18:03:54:237245,-5,3,0,-2,-2,-6,-3,-27
18:03:54:245338,-5,3,0,-2,-2,-6,-3,-27
18:03:54:246133,-2,-5,-1,-1,-4,14,-2,-3
18:03:54:259659,-9,-10,-3,3,2,6,1,-12
18:03:54:267888,-9,-10,-3,3,2,6,1,-12
18:03:54:268598,1,1,-4,2,-2,3,-1,19
18:03:54:274775,2,-1,-1,-2,0,5,0,16
18:03:54:282164,2,-1,-1,-2,0,5,0,16
18:03:54:289711,2,2,-2,1,0,-5,-1,-9
18:03:54:297081,3,2,-2,-3,0,-4,0,-3
18:03:54:305514,3,2,-2,-3,0,-4,0,-3
18:03:54:306138,-7,-4,-3,1,1,5,1,-4
18:03:54:319825,-6,-2,-2,-2,-3,-6,-6,-12
18:03:54:327825,-6,-2,-2,-2,-3,-6,-6,-12
18:03:54:328618,4,-1,0,-9,2,3,-1,7
18:03:54:334603,-9,-8,-3,-5,-3,2,-6,-9
18:03:54:342173,-9,-8,-3,-5,-3,2,-6,-9
18:03:54:349604,-1,1,-2,-1,0,-10,-2,-4
18:03:54:365978,0,1,1,-2,1,2,2,3
18:03:54:366773,0,1,1,-2,1,2,2,3
18:03:54:367631,-4,-3,-1,1,-6,8,-6,-14
18:03:54:379648,4,3,1,2,-2,2,4,17
18:03:54:387928,4,3,1,2,-2,2,4,17
18:03:54:388645,-4,-6,-1,-2,1,-20,-1,-17
18:03:54:402793,4,3,-1,0,0,3,0,-5
18:03:54:418518,4,3,-1,0,0,3,0,-5
18:03:54:419379,0,1,1,3,-1,-9,1,8
18:03:54:420139,-1,7,1,-2,1,2,-2,1
18:03:54:425388,-1,7,1,-2,1,2,-2,1
18:03:54:426150,4,-1,-3,-2,0,9,-2,0
18:03:54:439707,-6,-5,4,-6,-7,-13,-4,-13
18:03:54:447831,-6,-5,4,-6,-7,-13,-4,-13
18:03:54:448674,-13,-10,-2,-4,-4,-16,-2,-13
18:03:54:454759,4,-2,-1,-4,0,3,5,5
18:03:54:462251,4,-2,-1,-4,0,3,5,5
18:03:54:469772,-1,3,0,2,1,-2,2,33
18:03:54:477156,1,5,3,-3,0,-14,-4,-2
18:03:54:485349,1,5,3,-3,0,-14,-4,-2
18:03:54:486201,1,-1,2,-2,1,2,-2,9
18:03:54:499699,2,0,-8,0,-1,4,0,1
18:03:54:508012,2,0,-8,0,-1,4,0,1
18:03:54:508662,-3,6,-1,-1,0,5,2,-4
18:03:54:514620,-4,-8,0,-2,-4,-3,-5,-2
18:03:54:522319,-4,-8,0,-2,-4,-3,-5,-2
18:03:54:529655,-3,-2,-1,-2,-2,9,-3,-22
18:03:54:537264,-13,-13,0,4,1,9,3,-9
18:03:54:553117,-13,-13,0,4,1,9,3,-9
18:03:54:553688,-5,-2,-2,-2,-1,-5,0,-9
18:03:54:559636,4,1,-7,-5,1,-11,-3,11
18:03:54:567885,4,1,-7,-5,1,-11,-3,11
18:03:54:568600,1,-1,-1,1,1,-2,-1,-2
18:03:54:582833,-2,-3,-3,0,-3,3,-1,4
18:03:54:583607,-2,-3,-3,0,-3,3,-1,4
18:03:54:589747,-1,-3,-4,0,3,-6,1,-3
18:03:54:597135,2,5,6,2,4,13,1,-1
18:03:54:605444,2,5,6,2,4,13,1,-1
18:03:54:606136,3,-4,1,-7,0,6,1,-11
18:03:54:628933,1,-1,-1,2,-2,7,4,8
18:03:54:629711,1,-1,-1,2,-2,7,4,8
18:03:54:635413,2,0,-1,-8,0,8,3,1
18:03:54:636087,-5,0,-6,-2,2,7,-3,-5
18:03:54:642200,-5,0,-6,-2,2,7,-3,-5
18:03:54:649663,5,2,-3,-4,-2,1,-4,4
18:03:54:657203,6,-1,1,-4,-5,-1,-2,-2
18:03:54:665334,6,-1,1,-4,-5,-1,-2,-2
18:03:54:666113,3,3,1,1,5,3,-4,7
18:03:54:679613,1,5,1,-1,-5,7,0,2
18:03:54:688005,1,5,1,-1,-5,7,0,2
18:03:54:688672,1,-2,-4,0,-4,-1,-2,-2
18:03:54:694644,-4,-1,0,-2,-4,-25,0,4
18:03:54:710353,-4,-1,0,-2,-4,-25,0,4
18:03:54:711149,2,6,-3,1,-6,5,0,6
18:03:54:725989,-2,-8,-1,-2,1,0,-4,-9
18:03:54:726807,-2,-8,-1,-2,1,0,-4,-9
18:03:54:727598,-9,-6,-2,-2,-1,-7,6,10
18:03:54:739680,6,4,4,0,-3,11,-1,-2
18:03:54:747805,6,4,4,0,-3,11,-1,-2
18:03:54:748649,0,-3,4,1,0,14,-2,-3
18:03:54:754718,-4,-4,1,-4,-5,-4,2,-5
18:03:54:770452,-4,-4,1,-4,-5,-4,2,-5
18:03:54:771116,0,-1,2,-1,-2,-5,-2,1
18:03:54:786767,-3,-4,-2,0,5,2,-1,1
18:03:54:787536,-3,-4,-2,0,5,2,-1,1
18:03:54:788226,-1,2,-2,0,3,7,-2,-6
18:03:54:800574,-2,-7,-7,-1,-1,-16,0,-10
18:03:54:807937,-2,-7,-7,-1,-1,-16,0,-10
18:03:54:808589,2,0,0,-1,-4,-9,-3,9
18:03:54:822883,-1,3,0,-4,4,2,-1,-1
18:03:54:823606,-1,3,0,-4,4,2,-1,-1
18:03:54:846620,-4,-7,-2,-4,-5,-20,-4,-8
18:03:54:847423,5,0,2,-1,1,0,-2,4
18:03:54:848264,5,0,2,-1,1,0,-2,4
18:03:54:849106,-6,-3,-3,5,-1,12,-2,-12
18:03:54:884805,-1,-1,-4,1,-1,0,-7,-9
18:03:54:885608,-1,-1,-4,1,-1,0,-7,-9
18:03:54:886465,2,-5,-3,-1,-1,-6,-3,2
18:03:54:887214,-11,-5,-5,-1,-3,-3,3,-15
18:03:54:898489,-11,-5,-5,-1,-3,-3,3,-15
18:03:54:899263,-1,-4,-3,-2,-3,3,1,2
18:03:54:900047,5,-1,2,-3,2,5,-2,3
18:03:54:921102,5,-1,2,-3,2,5,-2,3
18:03:54:921775,1,2,-3,2,-6,2,2,1
18:03:54:922590,-1,5,-6,-3,-1,-4,-1,6
18:03:54:927848,-1,5,-6,-3,-1,-4,-1,6
18:03:54:928624,2,0,-1,-2,3,-3,-3,-8
18:03:54:934626,1,5,1,-1,1,-1,1,6
18:03:54:958489,1,5,1,-1,1,-1,1,6
18:03:54:959282,-2,2,2,-6,2,-11,-1,-1
18:03:54:960077,2,-4,-2,-2,0,-5,-1,3
18:03:54:972956,2,-4,-2,-2,0,-5,-1,3
18:03:54:973685,-1,-2,1,-3,3,4,-3,0
18:03:55:4904,1,-4,1,-3,0,-1,2,-1
18:03:55:5617,1,-4,1,-3,0,-1,2,-1
18:03:55:6432,-8,2,4,0,-2,-6,-6,-16
18:03:55:7235,2,3,1,-1,-4,5,-1,4
18:03:55:11009,2,3,1,-1,-4,5,-1,4
18:03:55:11826,6,-4,2,3,-2,8,3,15
18:03:55:40806,5,2,2,-2,0,-11,0,-3
18:03:55:49884,5,2,2,-2,0,-11,0,-3
18:03:55:50655,-2,0,-2,-2,1,9,1,11
18:03:55:51484,1,-4,0,3,-2,-5,-1,1
18:03:55:52353,1,-4,0,3,-2,-5,-1,1
18:03:55:62577,-2,0,-2,-5,1,-1,-5,-7
18:03:55:71498,-9,-1,-3,2,0,1,0,-3
18:03:55:72261,-9,-1,-3,2,0,1,0,-3
18:03:55:77764,-3,-1,-1,3,-3,4,-1,1
18:03:55:78548,5,10,0,-2,0,-10,-3,-2
18:03:55:100817,5,10,0,-2,0,-10,-3,-2
18:03:55:101558,3,-2,-1,-3,-4,-4,0,0
18:03:55:117083,1,2,0,-5,0,-2,-3,8
18:03:55:117882,1,2,0,-5,0,-2,-3,8
18:03:55:118734,-2,-1,0,1,-2,1,3,0
18:03:55:122956,-2,-2,-2,1,0,-3,-1,-1
18:03:55:123666,-2,-2,-2,1,0,-3,-1,-1
18:03:55:147276,-3,-6,-4,0,3,6,-3,-3
18:03:55:148051,-5,-4,-3,-2,1,25,-1,-8
18:03:55:148911,-5,-4,-3,-2,1,25,-1,-8
18:03:55:152220,-1,-1,0,-3,-4,-6,2,-7
18:03:55:168504,-13,-10,-2,0,1,4,2,-14
18:03:55:169393,-13,-10,-2,0,1,4,2,-14
18:03:55:170165,3,2,3,-3,-1,-7,-4,2
18:03:55:191088,0,-8,-2,1,-1,11,-7,1
18:03:55:191808,0,-8,-2,1,-1,11,-7,1
18:03:55:192600,-5,0,-1,-3,1,-1,0,-13
18:03:55:228903,-8,-13,-2,-2,-2,-10,4,-8
18:03:55:244872,-8,-13,-2,-2,-2,-10,4,-8
18:03:55:245633,1,-1,-1,-2,3,-7,-1,4
18:03:55:246432,-3,-1,-5,-3,1,-2,-2,0
18:03:55:247281,-3,-1,-5,-3,1,-2,-2,0
18:03:55:251657,1,4,-2,-2,-7,2,2,-1
18:03:55:252536,-1,7,3,0,-5,0,-1,2
18:03:55:253295,-1,7,3,0,-5,0,-1,2
18:03:55:254105,5,2,-5,-1,1,-4,0,9
18:03:55:265321,4,6,3,-5,-2,-2,-5,-2
18:03:55:266178,4,6,3,-5,-2,-2,-5,-2
18:03:55:296641,-7,-7,-4,-5,3,10,-3,-4
18:03:55:297439,0,-2,0,1,0,-5,4,0
18:03:55:298267,0,-2,0,1,0,-5,4,0
18:03:55:299126,-1,-10,-2,1,-2,-6,0,-11
18:03:55:319365,4,4,3,0,0,-17,-4,-1
18:03:55:319944,4,4,3,0,0,-17,-4,-1
18:03:55:320755,2,0,1,-3,0,-3,-2,4
18:03:55:321558,1,-3,0,-3,-4,0,-4,2
18:03:55:324664,1,-3,0,-3,-4,0,-4,2
18:03:55:340390,-6,2,0,-1,1,0,-1,-7
18:03:55:341084,-2,1,0,-3,1,-5,3,2
18:03:55:347835,-2,1,0,-3,1,-5,3,2
18:03:55:348694,-5,4,1,-1,-2,-1,0,9
18:03:55:371094,-7,-2,1,2,-1,2,2,0
18:03:55:371792,-7,-2,1,2,-1,2,2,0
18:03:55:372579,-1,2,-2,-2,-1,-2,-1,0
18:03:55:393521,6,-1,-5,-3,-3,3,-1,-1
18:03:55:394318,6,-1,-5,-3,-3,3,-1,-1
18:03:55:395113,-3,-2,-1,-2,-5,-3,2,2
18:03:55:399614,-3,-1,-2,-2,-3,0,-4,-2
18:03:55:415410,-3,-1,-2,-2,-3,0,-4,-2
18:03:55:416130,3,-7,-2,4,-2,0,-3,0
18:03:55:422921,0,-4,-1,-4,-2,4,-3,1
18:03:55:423671,0,-4,-1,-4,-2,4,-3,1
18:03:55:445976,-1,-6,0,-4,-2,8,-2,-7
18:03:55:446782,-4,-5,-3,1,-3,-4,1,-3
18:03:55:447611,-4,-5,-3,1,-3,-4,1,-3
18:03:55:452313,3,1,-1,-3,2,-6,-1,3
18:03:55:468482,-2,1,2,1,2,11,-2,-6
18:03:55:469391,-2,1,2,1,2,11,-2,-6
18:03:55:470114,-10,-7,-3,-4,-5,-3,2,-3
18:03:55:492081,0,3,-3,0,0,2,1,2
18:03:55:498534,0,3,-3,0,0,2,1,2
18:03:55:499264,1,-1,1,3,-2,-6,-3,1
18:03:55:500105,2,-3,-1,-2,-5,-8,-1,-5
18:03:55:521079,2,-3,-1,-2,-5,-8,-1,-5
18:03:55:521800,1,-2,-2,2,-1,-1,-4,3
18:03:55:522595,-5,-4,1,0,0,-4,0,1
18:03:55:527831,-5,-4,1,0,0,-4,0,1
18:03:55:528658,-3,-3,0,-5,2,-7,-4,-6
18:03:55:542626,2,2,0,-2,-4,-7,-2,1
18:03:55:575039,2,2,0,-2,-4,-7,-2,1
18:03:55:575654,1,-6,1,-1,1,-17,2,-1
18:03:55:576458,0,-1,-6,-2,-3,-1,0,2
18:03:55:577313,0,-1,-6,-2,-3,-1,0,2
18:03:55:604962,-2,3,0,-1,-1,6,0,0
18:03:55:605613,-2,-6,-3,1,2,-2,-2,-3
18:03:55:606473,-2,-6,-3,1,2,-2,-2,-3
18:03:55:607236,-1,2,-2,-1,-2,3,1,2
18:03:55:610069,4,4,-3,-5,2,7,-1,6
18:03:55:618563,4,4,-3,-5,2,7,-1,6
18:03:55:619393,-4,-1,-5,-3,-3,3,0,-5
18:03:55:620113,5,3,-3,0,1,-4,4,2
18:03:55:633334,5,3,-3,0,1,-4,4,2
18:03:55:649308,0,3,-5,-1,-2,10,-2,1
18:03:55:649923,2,-7,-2,-3,-1,-1,0,-4
18:03:55:650765,2,-7,-2,-3,-1,-1,0,-4
18:03:55:651544,-3,4,3,-2,2,0,-1,-8
18:03:55:671052,1,7,1,-2,-1,-1,-2,8
18:03:55:671827,1,7,1,-2,-1,-1,-2,8
18:03:55:672585,1,-3,-2,-2,-3,0,-3,-10
18:03:55:677120,1,-7,3,-4,2,-28,-6,-4
18:03:55:684684,1,-7,3,-4,2,-28,-6,-4
18:03:55:692161,3,0,2,-2,0,0,2,9
18:03:55:708461,0,-3,1,2,-2,14,-2,0
18:03:55:709257,0,-3,1,2,-2,14,-2,0
18:03:55:710068,-2,-6,-3,-2,-1,3,1,1
18:03:55:722979,-5,1,-3,3,0,13,-4,-15
18:03:55:723659,-5,1,-3,3,0,13,-4,-15
18:03:55:729611,-6,-3,-1,-1,-2,-6,5,3
18:03:55:737252,0,1,1,1,1,0,0,4
18:03:55:744713,0,1,1,1,1,0,0,4
18:03:55:752285,-7,2,2,-2,-1,0,-3,-11
18:03:55:759651,-10,-5,-3,-2,-4,-7,-1,-2
18:03:55:767856,-10,-5,-3,-2,-4,-7,-1,-2
18:03:55:768596,4,0,1,1,-1,-8,-1,8
18:03:55:783285,3,2,-2,-3,-2,1,4,5
18:03:55:784060,3,2,-2,-3,-2,1,4,5
18:03:55:789760,2,6,2,-2,-3,1,1,-9
18:03:55:797111,-6,-2,0,-2,2,0,-2,0
18:03:55:804761,-6,-2,0,-2,2,0,-2,0
18:03:55:812158,-1,-2,-1,0,5,-5,-4,1
18:03:55:819809,-2,2,1,-1,-3,9,-3,-5
18:03:55:827852,-2,2,1,-1,-3,9,-3,-5
18:03:55:828612,3,0,-3,1,-2,-5,-4,-3
18:03:55:843912,0,3,-1,-2,-5,-8,2,-3
18:03:55:850789,0,3,-1,-2,-5,-8,2,-3
18:03:55:857676,-1,2,-1,1,-5,-3,0,6
18:03:55:865297,-2,-7,-4,-1,1,-10,-1,-1
18:03:55:866119,-2,-7,-4,-1,1,-10,-1,-1
18:03:55:872182,-2,-2,0,-2,-1,-2,-1,-3
18:03:55:879604,-7,-4,-1,-1,1,-1,-4,-1
18:03:55:887922,-7,-4,-1,-1,1,-1,-4,-1
18:03:55:888615,0,-4,0,1,-3,3,0,2
18:03:55:919311,3,-2,0,1,0,1,-3,-2
18:03:55:919958,3,-2,0,1,0,1,-3,-2
18:03:55:925954,-6,1,0,-2,0,-2,-1,-7
18:03:55:926759,-6,-1,-1,-2,-2,1,-1,3
18:03:55:927576,-6,-1,-1,-2,-2,1,-1,3
18:03:55:932108,1,3,2,-3,0,3,0,-4
18:03:55:939747,3,1,-1,-7,-1,-10,-5,-2
18:03:55:947816,3,1,-1,-7,-1,-10,-5,-2
18:03:55:948592,3,-4,-1,-5,-3,-7,1,5
18:03:55:962801,-1,2,-5,-3,-3,0,-2,0
18:03:55:963594,-1,2,-5,-3,-3,0,-2,0
18:03:55:969742,-7,-4,-2,-3,-3,0,1,-2
18:03:55:985027,-1,-2,1,-5,2,3,2,-3
18:03:55:992852,-1,-2,1,-5,2,3,2,-3
18:03:55:993644,0,-7,-3,3,4,0,-2,1
18:03:55:999618,-2,3,2,1,-1,3,-2,5
18:03:56:7972,-2,3,2,1,-1,3,-2,5
18:03:56:8647,-3,2,2,-2,-2,7,2,-10
18:03:56:22946,5,-3,-2,-1,-1,-3,4,-2
18:03:56:23643,5,-3,-2,-1,-1,-3,4,-2
18:03:56:29626,2,2,-2,-1,0,-14,-2,-3
18:03:56:37201,0,-3,2,-7,-4,9,-3,0
18:03:56:44703,0,-3,2,-7,-4,9,-3,0
18:03:56:52273,1,-4,-5,0,-2,-2,0,12
18:03:56:59636,-1,1,0,-2,0,13,-2,5
18:03:56:68290,-1,1,0,-2,0,13,-2,5
18:03:56:74756,0,-1,-2,-3,0,0,-3,-3
18:03:56:82805,0,-1,-1,-1,-2,-5,-1,-3
18:03:56:83614,0,-1,-1,-1,-2,-5,-1,-3
18:03:56:89709,2,0,3,-1,1,10,-1,7
18:03:56:97078,0,2,0,-6,-1,-4,-6,-11
18:03:56:129209,0,2,0,-6,-1,-4,-6,-11
18:03:56:129985,-7,-9,1,-3,-4,14,1,-9
18:03:56:130806,7,-2,-3,2,5,4,3,4
18:03:56:131643,7,-2,-3,2,5,4,3,4
18:03:56:134642,6,6,0,2,4,9,0,-9
18:03:56:142823,-13,-8,-3,0,2,0,0,9
18:03:56:143635,-13,-8,-3,0,2,0,0,9
18:03:56:149616,-14,-12,-1,3,-3,-11,-6,-12
18:03:56:165362,3,-1,0,0,-2,-8,4,7
18:03:56:166138,3,-1,0,0,-2,-8,4,7
18:03:56:172184,12,4,-1,-8,-4,-40,-13,-4
18:03:56:196475,5,1,1,1,-3,9,6,11
18:03:56:197207,5,1,1,1,-3,9,6,11
18:03:56:203603,11,1,-4,1,0,-9,3,12
18:03:56:204276,-7,14,-2,-2,-2,3,-3,-10
18:03:56:205076,-7,14,-2,-2,-2,3,-3,-10
18:03:56:209608,-8,-9,-3,-6,-2,2,-5,-8
18:03:56:225257,7,9,5,6,-3,-5,3,-9
18:03:56:226119,7,9,5,6,-3,-5,3,-9
18:03:56:232123,-10,-6,1,-3,0,5,-5,-4
18:03:56:239738,17,-5,-3,-8,-4,4,0,4
18:03:56:247157,17,-5,-3,-8,-4,4,0,4
18:03:56:263475,-3,0,-2,-3,-3,10,4,3
18:03:56:264246,-7,-8,-1,0,-1,-2,-6,-2
18:03:56:265074,-7,-8,-1,0,-1,-2,-6,-2
18:03:56:269848,11,2,-2,-2,5,17,1,10
18:03:56:285288,-17,-12,-3,-3,-3,-18,-5,-25
18:03:56:286173,-17,-12,-3,-3,-3,-18,-5,-25
18:03:56:292146,-10,2,1,0,0,-13,-2,-4
18:03:56:299641,9,3,-1,1,-2,15,-1,3
18:03:56:324323,9,3,-1,1,-2,15,-1,3
18:03:56:325026,-2,-5,2,-1,0,-34,1,5
18:03:56:325824,-7,-3,-1,1,0,-5,-5,9
18:03:56:326647,-7,-3,-1,1,0,-5,-5,9
18:03:56:329595,2,1,-3,-1,1,-5,2,0
18:03:56:345963,4,-2,1,-3,1,-10,0,-16
18:03:56:346774,4,-2,1,-3,1,-10,0,-16
18:03:56:352113,3,-3,-2,2,0,-20,-4,-5
18:03:56:359624,-19,-15,-3,5,0,-10,-6,-6
18:03:56:375303,-19,-15,-3,5,0,-10,-6,-6
18:03:56:376116,6,3,1,4,-2,15,1,9
18:03:56:383218,0,-5,-7,-7,0,-1,-5,10
18:03:56:390427,0,-5,-7,-7,0,-1,-5,10
18:03:56:391127,-17,-4,2,1,-3,14,-2,-25
18:03:56:405923,0,9,2,-3,-6,-3,5,1
18:03:56:406639,0,9,2,-3,-6,-3,5,1
18:03:56:412066,0,-2,1,-5,1,4,1,-22
18:03:56:419764,-12,0,2,-4,1,11,6,-5
18:03:56:427171,-12,0,2,-4,1,11,6,-5
18:03:56:434669,1,9,-2,-4,-2,12,-1,22
18:03:56:442833,-1,-11,3,0,-1,-3,-3,-1
18:03:56:443625,-1,-11,3,0,-1,-3,-3,-1
18:03:56:449592,-19,-12,-6,-3,-6,3,-4,-18
18:03:56:465322,9,0,-3,1,2,-2,-3,-7
18:03:56:466154,9,0,-3,1,2,-2,-3,-7
18:03:56:472270,-1,-9,0,2,4,-3,1,-2
18:03:56:479605,8,-5,-6,-7,-3,-14,-1,12
18:03:56:487369,8,-5,-6,-7,-3,-14,-1,12
18:03:56:494629,9,15,-3,3,-3,1,7,12
18:03:56:502952,17,3,-3,5,-1,-11,0,-4
18:03:56:503654,17,3,-3,5,-1,-11,0,-4
18:03:56:517204,1,8,4,-1,1,15,-5,-7
18:03:56:525358,-2,6,4,0,-3,0,-5,-3
18:03:56:526142,-2,6,4,0,-3,0,-5,-3
18:03:56:532104,16,-3,-7,1,1,-2,0,14
18:03:56:539714,-11,-6,-3,1,3,18,-1,5
18:03:56:555223,-11,-6,-3,1,3,18,-1,5
18:03:56:563480,2,6,-1,-9,1,-12,-3,41
18:03:56:564284,-11,0,-5,-6,-2,-16,2,-8
18:03:56:565113,-11,0,-5,-6,-2,-16,2,-8
18:03:56:569742,-7,3,7,-1,-3,-5,-3,-1
18:03:56:593215,-3,3,0,-1,-1,-17,-1,-6
18:03:56:594019,-3,3,0,-1,-1,-17,-1,-6
18:03:56:600250,-13,-13,-3,0,-5,-1,-5,-23
18:03:56:601045,-12,-8,2,-3,-1,4,0,-9
18:03:56:607326,-12,-8,2,-3,-1,4,0,-9
18:03:56:624230,27,7,-1,0,3,-4,5,16
18:03:56:624925,11,6,-1,-3,-2,11,-2,13
18:03:56:625739,11,6,-1,-3,-2,11,-2,13
18:03:56:629566,-11,2,0,-4,1,-2,-1,-12
18:03:56:645302,0,8,3,-5,-2,-14,-4,11
18:03:56:646131,0,8,3,-5,-2,-14,-4,11
18:03:56:652139,20,17,7,-2,0,10,10,4
18:03:56:659639,4,14,2,4,2,12,0,7
18:03:56:667176,4,14,2,4,2,12,0,7
18:03:56:674767,-4,-3,-7,-1,0,-4,-7,-11
18:03:56:682824,-4,-3,-7,-1,0,-4,-7,-11
18:03:56:683609,-5,-6,-7,0,1,16,0,2
18:03:56:697090,4,0,-1,1,3,2,2,-4
18:03:56:705436,4,0,-1,1,3,2,2,-4
18:03:56:706144,-31,-14,-7,-2,-4,8,0,-21
18:03:56:712101,-15,-23,-7,-4,-5,-7,-8,8
18:03:56:727821,-15,-23,-7,-4,-5,-7,-8,8
18:03:56:728636,8,1,0,-2,0,0,4,-8
18:03:56:734633,-12,-9,-7,-2,0,2,1,7
18:03:56:750996,-12,-9,-7,-2,0,2,1,7
18:03:56:751765,4,6,-4,3,-1,-20,-7,3
18:03:56:752668,29,16,-3,0,-5,11,1,2
18:03:56:773590,29,16,-3,0,-5,11,1,2
18:03:56:774296,33,15,4,1,5,13,0,-7
18:03:56:775065,-8,-3,1,0,-2,3,1,1
18:03:56:788336,-8,-3,1,0,-2,3,1,1
18:03:56:795259,14,1,1,-5,-3,-2,-1,13
18:03:56:796105,16,6,-1,-5,-3,0,2,6
18:03:56:802977,16,6,-1,-5,-3,0,2,6
18:03:56:803680,-10,-4,-3,-2,0,3,-4,-5
18:03:56:809624,-20,-19,-5,-4,-2,-6,2,-30
18:03:56:825349,-20,-19,-5,-4,-2,-6,2,-30
18:03:56:826114,16,0,1,0,-5,-9,1,2
18:03:56:832116,-16,-12,1,2,4,9,-1,-7
18:03:56:847833,-16,-12,1,2,4,9,-1,-7
18:03:56:848602,-22,-20,-10,-7,0,-25,-3,-9
18:03:56:854751,5,7,0,5,2,1,-8,-6
18:03:56:871496,5,7,0,5,2,1,-8,-6
18:03:56:872209,-10,5,0,2,-1,7,7,7
18:03:56:877082,-18,-7,1,-4,-3,-16,-10,-3
