Time,EMG1,EMG2,EMG3,EMG4,EMG5,EMG6,EMG7,EMG8
20:38:58:970940,0,-1,-1,-2,-1,-1,-1,0
20:38:58:971806,-1,-3,-2,-2,-1,-3,-2,-1
20:38:58:978458,-1,-3,-2,-2,-1,-3,-2,-1
20:38:58:979331,-1,-1,-1,-3,-1,0,0,0
20:38:58:993566,-1,0,1,2,-1,-1,0,-3
20:38:58:994349,-1,0,1,2,-1,-1,0,-3
20:38:59:406,0,1,-2,0,0,0,-1,-1
20:38:59:7793,-1,-2,0,-1,-3,0,-1,-1
20:38:59:23548,-1,-2,0,-1,-3,0,-1,-1
20:38:59:24288,-1,-1,0,0,-1,-1,-1,-1
20:38:59:30311,-1,0,-1,0,0,-3,-1,-2
20:38:59:38567,-1,0,-1,0,0,-3,-1,-2
20:38:59:39290,-2,-2,-2,1,1,-1,0,-2
20:38:59:61554,0,0,-3,-3,-1,0,-1,-1
20:38:59:62440,0,0,-3,-3,-1,0,-1,-1
20:38:59:63313,-2,-1,0,-2,0,-1,-1,-2
20:38:59:67847,-1,1,-2,-1,0,-1,-1,0
20:38:59:83576,-1,1,-2,-1,0,-1,-1,0
20:38:59:84291,-1,-2,-2,-2,-2,-1,-1,0
20:38:59:90178,-2,-1,0,0,0,-1,-1,-1
20:38:59:105930,-2,-1,0,0,0,-1,-1,-1
20:38:59:106798,-1,-1,-1,-2,-2,-2,0,-1
20:38:59:113424,-1,-1,-2,0,-2,-1,-2,-1
20:38:59:114308,-1,-1,-2,0,-2,-1,-2,-1
20:38:59:120305,-2,-2,-1,1,-3,-2,-2,-1
20:38:59:135982,-1,-1,1,-1,-2,-1,-1,0
20:38:59:136792,-1,-1,1,-1,-2,-1,-1,0
20:38:59:142796,1,-1,1,0,0,-1,-1,-2
20:38:59:150332,-1,-1,-1,0,-2,-1,0,-3
20:38:59:158543,-1,-1,-1,0,-2,-1,0,-3
20:38:59:159296,-2,2,-2,-1,-1,0,-2,0
20:38:59:173442,0,-3,-1,-1,-2,-1,-2,-2
20:38:59:174308,0,-3,-1,-1,-2,-1,-2,-2
20:38:59:180195,-1,-1,-1,-1,1,0,0,-1
20:38:59:195950,-2,-1,-1,-2,0,-1,-1,0
20:38:59:196813,-2,-1,-1,-2,0,-1,-1,0
20:38:59:202849,-2,1,-2,-2,-1,-2,-1,-1
20:38:59:210281,-1,-2,-1,0,-1,-1,0,-2
20:38:59:217855,-1,-2,-1,0,-1,-1,0,-2
20:38:59:225173,-1,-3,-1,-3,-2,0,0,0
20:38:59:233587,-2,0,-2,-1,-2,0,0,0
20:38:59:234160,-2,0,-2,-1,-2,0,0,0
20:38:59:240326,-1,1,-1,0,-3,-2,-3,-2
20:38:59:255935,-1,0,1,1,0,-1,-2,-1
20:38:59:256811,-1,0,1,1,0,-1,-2,-1
20:38:59:271343,2,-2,0,-2,0,-1,-1,0
20:38:59:278428,0,0,-2,-2,-2,-1,0,1
20:38:59:279315,0,0,-2,-2,-2,-1,0,1
20:38:59:285323,-1,-2,-2,-1,0,-2,-1,0
20:38:59:293405,-1,0,-2,-1,-1,-1,-1,-2
20:38:59:294303,-1,0,-2,-1,-1,-1,-1,-2
20:38:59:300210,1,0,-2,0,-3,0,1,1
20:38:59:315970,0,0,1,0,-2,-1,0,-2
20:38:59:316830,0,0,1,0,-2,-1,0,-2
20:38:59:322781,-3,0,0,-2,0,-1,-1,-1
20:38:59:330320,-1,-2,-1,-1,-2,-1,0,-1
20:38:59:337809,-1,-2,-1,-1,-2,-1,0,-1
20:38:59:345196,1,-3,-1,-1,-2,-2,-1,-1
20:38:59:361553,-1,-1,-1,-2,-2,-2,-1,-1
20:38:59:362416,-1,-1,-1,-2,-2,-2,-1,-1
20:38:59:363204,-2,-2,-1,1,-1,-1,0,-1
20:38:59:384207,1,-1,0,-1,-1,-1,0,-2
20:38:59:384917,1,-1,0,-1,-1,-1,0,-2
20:38:59:385815,-1,-2,-1,0,0,-2,-1,-3
20:38:59:390299,0,-1,0,-1,-2,0,-2,0
20:38:59:397831,0,-1,0,-1,-2,0,-2,0
20:38:59:405330,-2,-2,0,-2,0,-2,-1,-1
20:38:59:413425,-1,-1,-2,-1,1,-3,-1,-1
20:38:59:414306,-1,-1,-2,-1,1,-3,-1,-1
20:38:59:420296,-1,-1,0,0,-1,0,-1,-1
20:38:59:435941,-1,0,0,-1,0,-1,-1,0
20:38:59:436814,-1,0,0,-1,0,-1,-1,0
20:38:59:442789,-1,-1,-1,0,0,-2,-1,0
20:38:59:450333,-2,-2,-2,-2,2,1,-3,0
20:38:59:457784,-2,-2,-2,-2,2,1,-3,0
20:38:59:465331,0,-1,-1,0,-2,-1,0,-3
20:38:59:473448,-1,-1,-2,-2,-1,0,-1,-2
20:38:59:474311,-1,-1,-2,-2,-1,0,-1,-2
20:38:59:480167,1,2,-4,-2,0,1,0,-2
20:38:59:495928,0,-2,-1,0,-1,-1,0,0
20:38:59:496790,0,-2,-1,0,-1,-1,0,0
20:38:59:502829,-2,-4,-2,-1,-1,0,0,-1
20:38:59:510298,-3,1,-1,0,-2,-2,-2,-2
20:38:59:525950,-3,1,-1,0,-2,-2,-2,-2
20:38:59:526799,-3,-1,0,0,-1,-1,-2,0
20:38:59:533478,-1,-2,0,-1,0,-1,-1,0
20:38:59:534345,-1,-2,0,-1,0,-1,-1,0
20:38:59:547837,0,0,-2,-3,-2,-2,-3,-1
20:38:59:555921,-1,0,-1,0,-1,0,0,0
20:38:59:556793,-1,0,-1,0,-1,0,0,0
20:38:59:562801,-2,0,-1,0,-1,1,-1,0
20:38:59:570311,0,0,-2,1,-1,-1,-3,-2
20:38:59:586047,0,0,-2,1,-1,-1,-3,-2
20:38:59:586794,0,-2,0,-2,-1,-2,0,-1
20:38:59:593429,-3,-1,-2,-1,-3,0,0,-1
20:38:59:594303,-3,-1,-2,-1,-3,0,0,-1
20:38:59:600308,-3,-2,-2,1,0,-1,-1,0
20:38:59:615919,1,-1,0,0,0,-1,-1,-1
20:38:59:616799,1,-1,0,0,0,-1,-1,-1
20:38:59:622787,0,1,2,-1,-2,-1,-3,-1
20:38:59:630309,0,-1,-1,-1,-2,-2,-1,0
20:38:59:637798,0,-1,-1,-1,-2,-2,-1,0
20:38:59:645328,0,-1,-1,0,-1,-1,0,-1
20:38:59:661679,0,-2,0,-2,-2,0,-1,-3
20:38:59:662592,0,-2,0,-2,-2,0,-1,-3
20:38:59:663291,-1,1,-2,-1,-4,1,0,0
20:38:59:675951,-1,-2,-3,-1,1,-2,-1,-1
20:38:59:676835,-1,-2,-3,-1,1,-2,-1,-1
20:38:59:682830,-1,-2,1,-2,-1,0,-1,-1
20:38:59:690314,0,1,0,0,-1,0,-1,1
20:38:59:697883,0,1,0,0,-1,0,-1,1
20:38:59:705335,0,-1,-3,0,0,0,0,-2
20:38:59:713430,-2,-1,-1,-1,-1,0,0,-2
20:38:59:714357,-2,-1,-1,-1,-1,0,0,-2
20:38:59:720296,0,0,-4,-1,-2,-2,-2,-1
20:38:59:735973,-1,-1,-2,-1,-2,-1,-2,0
20:38:59:736800,-1,-1,-2,-1,-2,-1,-2,0
20:38:59:742802,0,-1,0,-1,-1,-1,0,-2
20:38:59:750315,0,-1,-3,-1,-3,-1,-1,-1
20:38:59:757809,0,-1,-3,-1,-3,-1,-1,-1
20:38:59:765310,-1,0,-1,-1,0,-2,0,-1
20:38:59:773451,-1,-2,-2,-2,-3,0,0,-1
20:38:59:774297,-1,-2,-2,-2,-3,0,0,-1
20:38:59:780186,-2,1,0,0,-1,0,-1,-2
20:38:59:796435,-1,-1,0,-1,-3,-1,-2,-1
20:38:59:803469,-1,-1,0,-1,-3,-1,-2,-1
20:38:59:804297,-1,-2,-2,-2,-1,-1,-2,-1
20:38:59:810292,0,-1,0,-2,-1,-2,0,-4
20:38:59:817860,0,-1,0,-2,-1,-2,0,-4
20:38:59:825191,-1,-2,-2,-2,-1,-1,-1,0
20:38:59:833580,-1,-3,0,-1,-1,0,-1,-1
20:38:59:834212,-1,-3,0,-1,-1,0,-1,-1
20:38:59:840303,-2,-1,0,0,-2,-1,-3,-1
20:38:59:855938,1,0,-1,1,-2,-3,0,-1
20:38:59:856800,1,0,-1,1,-2,-3,0,-1
20:38:59:862692,-1,1,-1,-2,-2,-1,-1,-1
20:38:59:870182,1,-1,-2,-1,2,-1,-2,-1
20:38:59:877793,1,-1,-2,-1,2,-1,-2,-1
20:38:59:885306,-2,0,1,-1,0,-2,-2,-1
20:38:59:893554,-3,-2,-2,0,-1,-1,-2,0
20:38:59:894314,-3,-2,-2,0,-1,-1,-2,0
20:38:59:900368,-4,0,-2,-1,-2,-1,-1,0
20:38:59:915954,0,0,1,-1,-1,-1,0,-1
20:38:59:916808,0,0,1,-1,-1,-1,0,-1
20:38:59:922795,1,-2,0,-1,-2,0,1,0
20:38:59:938424,-2,-1,-1,-3,-1,-2,0,0
20:38:59:939311,-2,-1,-1,-3,-1,-2,0,0
20:38:59:945183,-1,0,-2,1,-1,-2,-2,-1
20:38:59:953548,-2,0,-2,-2,0,-1,-1,-1
20:38:59:954162,-2,0,-2,-2,0,-1,-1,-1
20:38:59:960301,-1,-1,-2,-2,-1,0,-2,-1
20:38:59:975952,-1,-1,0,-1,-2,1,-2,-1
20:38:59:976828,-1,-1,0,-1,-2,1,-2,-1
20:38:59:982714,2,-2,-1,0,-2,-1,-1,-1
20:38:59:990190,0,0,-3,-1,0,0,0,-1
20:38:59:997840,0,0,-3,-1,0,0,0,-1
20:39:00:5302,-1,-1,-1,0,-1,0,-1,1
20:39:00:13556,0,-1,0,0,-1,-1,0,0
20:39:00:14352,0,-1,0,0,-1,-1,0,0
20:39:00:20296,0,-1,-1,-2,-1,-2,1,-1
20:39:00:35987,-2,-1,-2,-1,0,-1,-1,-2
20:39:00:36804,-2,-1,-2,-1,0,-1,-1,-2
20:39:00:42806,-1,-2,0,0,0,0,-1,0
20:39:00:50343,1,-2,-1,0,0,-1,0,0
20:39:00:57804,1,-2,-1,0,0,-1,0,0
20:39:00:65308,-2,1,-1,-2,-1,-1,-1,-2
20:39:00:73474,0,2,0,-1,-2,-1,0,0
20:39:00:74339,0,2,0,-1,-2,-1,0,0
20:39:00:80332,-1,0,-4,-1,-2,-1,-4,-2
20:39:00:95956,-2,1,0,-1,-1,-1,-2,-2
20:39:00:96812,-2,1,0,-1,-1,-1,-2,-2
20:39:00:102822,0,-1,-1,-2,2,-1,-1,-2
20:39:00:110305,-2,-1,-1,-2,-1,-1,-2,-1
20:39:00:117825,-2,-1,-1,-2,-1,-1,-2,-1
20:39:00:125320,-2,-2,0,1,-1,-2,0,-2
20:39:00:133463,-1,-1,-1,1,-2,-1,-1,-1
20:39:00:134324,-1,-1,-1,1,-2,-1,-1,-1
20:39:00:147818,0,-2,-2,0,-2,-3,-1,0
20:39:00:155964,-1,-2,-3,-2,-2,0,1,0
20:39:00:156817,-1,-2,-3,-2,-2,0,1,0
20:39:00:162812,-1,0,-2,-2,-1,0,-1,0
20:39:00:178564,-1,0,-1,1,-1,-1,-2,-1
20:39:00:179299,-1,0,-1,1,-1,-1,-2,-1
20:39:00:185329,-1,0,-1,-1,-3,-2,1,0
20:39:00:193444,-1,-1,-1,-3,-1,-1,0,-1
20:39:00:194298,-1,-1,-1,-3,-1,-1,0,-1
20:39:00:216757,-1,1,1,0,0,-1,-2,-1
20:39:00:217455,1,-3,-1,-2,0,-1,-2,0
20:39:00:218326,1,-3,-1,-2,0,-1,-2,0
20:39:00:222831,1,-1,0,-2,-2,-1,-1,-1
20:39:00:238431,-1,0,-1,-2,-1,0,-2,-3
20:39:00:239303,-1,0,-1,-2,-1,0,-2,-3
20:39:00:245184,0,-1,-1,0,-1,-1,0,-1
20:39:00:253553,-1,-1,-1,1,-2,-3,-1,-1
20:39:00:254166,-1,-1,-1,1,-2,-3,-1,-1
20:39:00:267683,0,-2,-1,-3,-3,-2,-1,-1
20:39:00:275935,-1,0,0,0,0,-1,-1,-2
20:39:00:276798,-1,0,0,0,0,-1,-1,-2
20:39:00:282846,-2,0,-1,-1,-3,-1,0,0
20:39:00:298441,-1,0,-2,-1,-2,-1,-3,-2
20:39:00:299280,-1,0,-2,-1,-2,-1,-3,-2
20:39:00:305198,1,0,-3,0,1,-1,0,0
20:39:00:313462,-1,-4,0,-2,-4,-1,-3,-1
20:39:00:314328,-1,-4,0,-2,-4,-1,-3,-1
20:39:00:327814,-2,0,0,-2,0,-1,-2,-1
20:39:00:335968,-1,0,-2,-2,0,0,-1,0
20:39:00:336802,-1,0,-2,-2,0,0,-1,0
20:39:00:342685,0,-1,0,0,0,-2,-2,-1
20:39:00:358429,-2,0,-1,-1,0,0,2,-2
20:39:00:359306,-2,0,-1,-1,0,0,2,-2
20:39:00:365216,0,-1,-2,-1,0,1,0,0
20:39:00:373477,-1,1,-2,-1,-2,0,0,-1
20:39:00:374295,-1,1,-2,-1,-2,0,0,-1
20:39:00:387813,-2,-2,0,-3,0,-1,0,-2
20:39:00:395972,0,-1,-3,-1,-1,-2,-1,-1
20:39:00:396828,0,-1,-3,-1,-1,-2,-1,-1
20:39:00:402735,-1,-2,-1,-1,-2,-2,0,-1
20:39:00:418463,0,-1,0,0,0,-1,-2,-1
20:39:00:419343,0,-1,0,0,0,-1,-2,-1
20:39:00:425319,-2,-3,-2,-1,-1,-1,-2,-2
20:39:00:432862,-2,-3,-2,-1,-1,-1,-2,-2
20:39:00:440231,1,-1,0,0,0,-1,0,-1
20:39:00:447687,-1,-1,0,-1,-1,0,-1,-2
20:39:00:455917,-1,-1,0,-1,-1,0,-1,-2
20:39:00:456792,-2,0,-3,-1,-2,-1,-2,-1
20:39:00:462665,0,0,-1,-1,-2,-2,-1,-1
20:39:00:478811,0,0,-1,-1,-2,-2,-1,-1
20:39:00:494072,0,-2,-1,-2,-1,-1,0,-3
20:39:00:494936,-2,0,-1,0,-2,-1,0,0
20:39:00:495688,-2,0,-1,0,-2,-1,0,0
20:39:00:500317,0,-3,-1,0,-1,-1,-1,1
20:39:00:507798,0,1,-3,-2,0,-3,0,-2
20:39:00:515963,0,1,-3,-2,0,-3,0,-2
20:39:00:516881,-2,-1,0,1,-1,-2,-2,-1
20:39:00:522748,-1,-1,0,-1,-1,-1,-1,0
20:39:00:538459,-1,-1,0,-1,-1,-1,-1,0
20:39:00:539295,0,1,-1,-2,0,-1,-2,-1
20:39:00:545324,-1,-2,0,0,-2,-2,-3,-1
20:39:00:552824,-1,-2,0,0,-2,-2,-3,-1
20:39:00:560204,-1,-3,0,-2,-2,0,-1,-1
20:39:00:567718,-3,-1,-1,-1,-2,0,-2,-1
20:39:00:575964,-3,-1,-1,-1,-2,0,-2,-1
20:39:00:576810,-1,0,-1,-1,-2,-1,-1,-1
20:39:00:582691,-1,0,0,-1,-1,-2,-2,0
20:39:00:606582,-1,0,0,-1,-1,-2,-2,0
20:39:00:607448,-2,0,0,-3,-1,0,-1,-1
20:39:00:608171,-1,-1,0,-1,-1,0,0,-2
20:39:00:612836,-1,-1,0,-1,-1,0,0,-2
20:39:00:620176,0,0,-1,-1,0,0,0,0
20:39:00:627672,0,-2,-1,0,-1,0,1,0
20:39:00:635982,0,-2,-1,0,-1,0,1,0
20:39:00:636823,-2,-1,-1,-1,-2,-2,-1,-1
20:39:00:642683,-1,0,-2,-3,0,-1,0,1
20:39:00:658448,-1,0,-2,-3,0,-1,0,1
20:39:00:659316,0,0,-1,-2,0,-1,0,0
20:39:00:665204,0,-1,0,-1,0,-1,-3,-3
20:39:00:672798,0,-1,0,-1,0,-1,-3,-3
20:39:00:680199,-1,-1,-1,-1,0,0,0,-1
20:39:00:687672,-2,-1,-1,-2,1,0,0,-2
20:39:00:704067,-2,-1,-1,-2,1,0,0,-2
20:39:00:704950,-1,0,0,1,-2,-1,-1,-1
20:39:00:705696,1,0,-1,-1,-2,0,0,0
20:39:00:718448,1,0,-1,-1,-2,0,0,0
20:39:00:719328,0,0,-2,-2,1,-2,-2,-3
20:39:00:725316,-2,-1,-2,0,-2,-1,-1,-1
20:39:00:732848,-2,-1,-2,0,-2,-1,-1,-1
20:39:00:740212,-1,-2,-2,-4,-2,1,-3,-2
20:39:00:747762,0,-1,-2,0,0,-1,-2,0
20:39:00:755946,0,-1,-2,0,0,-1,-2,0
20:39:00:756805,-2,-1,0,0,0,-2,0,-1
20:39:00:770329,-2,-2,0,-1,-2,-1,1,-1
20:39:00:778572,-2,-2,0,-1,-2,-1,1,-1
20:39:00:779199,-2,-1,-1,0,-2,0,-1,-2
20:39:00:785193,0,0,-1,0,-1,-2,-2,-2
20:39:00:792818,0,0,-1,0,-1,-2,-2,-2
20:39:00:800213,0,-2,-1,-2,-1,0,1,0
20:39:00:807804,-2,0,-3,-1,-2,0,-2,0
20:39:00:815970,-2,0,-3,-1,-2,0,-2,0
20:39:00:816804,0,0,-2,0,-2,-3,-2,0
20:39:00:822813,-1,-2,1,-2,0,-2,-2,-3
20:39:00:838582,-1,-2,1,-2,0,-2,-2,-3
20:39:00:839311,-2,-2,-1,0,-1,0,0,1
20:39:00:845347,0,0,-1,-2,-1,-1,-2,-1
20:39:00:852847,0,0,-1,-2,-1,-1,-2,-1
20:39:00:860294,-1,-2,1,-1,0,-2,-1,-2
20:39:00:867865,-2,-3,-2,0,-1,0,-1,-2
20:39:00:884204,-2,-3,-2,0,-1,0,-1,-2
20:39:00:884947,-2,-2,-1,-1,-2,-2,-1,0
20:39:00:885856,-1,-1,-2,0,-1,-1,-2,-1
20:39:00:898562,-1,-1,-2,0,-1,-1,-2,-1
20:39:00:899302,-3,-2,-1,1,0,-1,-3,-1
20:39:00:905187,0,0,-1,-1,-2,-1,1,-1
20:39:00:912821,0,0,-1,-1,-2,-1,1,-1
20:39:00:920304,-1,-1,0,-2,-2,-1,-2,1
20:39:00:927815,-2,0,-1,0,-2,-1,-1,-2
20:39:00:935938,-2,0,-1,0,-2,-1,-1,-2
20:39:00:936829,1,0,-2,0,-2,1,0,-1
20:39:00:950210,1,0,0,-3,1,-1,-1,1
20:39:00:958568,1,0,0,-3,1,-1,-1,1
20:39:00:959304,-2,-1,-1,-2,-3,-2,-2,-1
20:39:00:965357,-2,-1,0,-2,-2,-2,-1,-1
20:39:00:972841,-2,-1,0,-2,-2,-2,-1,-1
20:39:00:980314,0,-1,-2,-1,1,0,-1,-2
20:39:00:996718,-1,-3,-1,-1,-1,-2,-2,0
20:39:00:997455,-1,-3,-1,-1,-1,-2,-2,0
20:39:00:998314,0,-1,-1,-1,-2,0,-1,-3
20:39:01:2830,1,-2,1,1,-1,-1,0,-1
20:39:01:18584,1,-2,1,1,-1,-1,0,-1
20:39:01:19336,-1,0,-2,0,0,-2,-1,0
20:39:01:25190,1,0,-1,-2,0,-1,-1,0
20:39:01:32822,1,0,-1,-2,0,-1,-1,0
20:39:01:48463,0,1,-1,-2,-1,-1,0,-1
20:39:01:49193,-1,-1,-2,-1,-1,-4,0,-2
20:39:01:55939,-1,-1,-2,-1,-1,-4,0,-2
20:39:01:56800,-1,-2,-1,2,-1,-1,0,0
20:39:01:62700,-3,-3,-2,0,-2,-1,0,-1
20:39:01:78434,-3,-3,-2,0,-2,-1,0,-1
20:39:01:79326,0,0,0,-3,-1,-1,-1,1
20:39:01:85202,-2,1,-1,-2,-2,0,-1,-2
20:39:01:92801,-2,1,-1,-2,-2,0,-1,-2
20:39:01:100222,0,0,0,-1,-1,-1,-1,-1
20:39:01:107709,-1,1,-1,-1,2,0,-2,-2
20:39:01:116013,-1,1,-1,-1,2,0,-2,-2
20:39:01:116825,-2,-2,-2,-1,-1,-2,0,-2
20:39:01:130203,-2,0,-2,-2,-2,-2,-1,0
20:39:01:138576,-2,0,-2,-2,-2,-2,-1,0
20:39:01:139311,-1,-2,-1,-2,1,0,0,1
20:39:01:145174,0,0,-2,-1,-1,0,0,-1
20:39:01:152833,0,0,-2,-1,-1,0,0,-1
20:39:01:160319,-1,-2,0,1,-1,-1,-1,-1
20:39:01:167819,-1,-1,0,-2,0,-1,-2,-2
20:39:01:175980,-1,-1,0,-2,0,-1,-2,-2
20:39:01:176703,1,-1,0,-1,-3,-1,0,-1
20:39:01:199888,0,-2,1,-1,-2,-2,-1,-2
20:39:01:200599,0,-2,1,-1,-2,-2,-1,-2
20:39:01:201482,-1,-1,-2,-2,-2,0,-1,1
20:39:01:205223,0,-2,-2,-1,0,0,-1,-2
20:39:01:212839,0,-2,-2,-1,0,0,-1,-2
20:39:01:220325,-1,-1,0,-3,-2,-2,-1,5
20:39:01:227818,-3,-1,-2,-1,-1,0,-1,-14
20:39:01:236445,-3,-1,-2,-1,-1,0,-1,-14
20:39:01:242799,1,1,-1,2,-2,-1,-7,-11
20:39:01:250333,5,2,2,0,-1,2,17,29
20:39:01:258435,5,2,2,0,-1,2,17,29
20:39:01:259332,-8,-3,-1,-1,0,3,-5,-15
20:39:01:265354,19,1,3,3,8,4,3,2
20:39:01:272818,19,1,3,3,8,4,3,2
20:39:01:280186,-33,-21,-9,-7,-9,-9,-19,-54
20:39:01:287712,-7,-12,0,-2,-9,-12,-10,26
20:39:01:295942,-7,-12,0,-2,-9,-12,-10,26
20:39:01:296832,22,5,2,-1,7,3,12,23
20:39:01:310325,-19,18,-6,-6,-3,-23,-21,-68
20:39:01:318463,-19,18,-6,-6,-3,-23,-21,-68
20:39:01:319331,-3,-5,-1,2,2,3,-1,22
20:39:01:325195,8,0,2,-1,-3,1,-8,10
20:39:01:340947,8,0,2,-1,-3,1,-8,10
20:39:01:341804,-2,5,-2,2,10,-10,-8,-11
20:39:01:347826,-6,-6,-5,-2,0,-8,-5,-6
20:39:01:355949,-6,-6,-5,-2,0,-8,-5,-6
20:39:01:356807,5,6,1,-5,-6,22,8,-10
20:39:01:370337,-9,-3,-2,-1,2,0,3,-5
20:39:01:378474,-9,-3,-2,-1,2,0,3,-5
20:39:01:379320,17,7,4,-2,-3,-5,6,30
20:39:01:385310,-2,-11,-2,1,-4,3,0,3
20:39:01:400990,-2,-11,-2,1,-4,3,0,3
20:39:01:401689,-6,0,-2,0,0,-14,-5,0
20:39:01:407800,4,2,3,4,2,11,7,7
20:39:01:415981,4,2,3,4,2,11,7,7
20:39:01:416817,-4,-1,-22,-6,4,4,0,-8
20:39:01:430325,0,-3,1,-8,-13,6,1,8
20:39:01:438443,0,-3,1,-8,-13,6,1,8
20:39:01:439318,-2,12,16,-10,-19,-16,-4,1
20:39:01:445369,-4,-11,-6,-3,-1,-4,1,-2
20:39:01:460956,-4,-11,-6,-3,-1,-4,1,-2
20:39:01:461799,-7,-7,-3,-11,-2,-1,3,4
20:39:01:467807,-2,9,3,4,-5,8,-3,-4
20:39:01:475937,-2,9,3,4,-5,8,-3,-4
20:39:01:476708,-4,-3,-4,11,5,-18,1,2
20:39:01:490357,-2,-4,3,2,-1,3,1,1
20:39:01:498612,-2,-4,3,2,-1,3,1,1
20:39:01:499334,3,6,3,3,-3,12,3,3
20:39:01:505339,3,-2,13,5,3,5,0,3
20:39:01:520939,3,-2,13,5,3,5,0,3
20:39:01:521808,0,-6,-2,0,1,9,0,-1
20:39:01:527809,-1,2,0,-2,-3,-1,-1,0
20:39:01:535973,-1,2,0,-2,-3,-1,-1,0
20:39:01:536831,-3,-6,-1,0,-6,-5,-3,0
20:39:01:550266,3,1,-6,-8,3,0,0,-1
20:39:01:558562,3,1,-6,-8,3,0,0,-1
20:39:01:559313,0,-5,-1,0,-3,-2,-2,0
20:39:01:565389,1,0,-5,-3,3,-3,1,0
20:39:01:580975,1,0,-5,-3,3,-3,1,0
20:39:01:581871,4,1,-6,2,2,2,0,-1
20:39:01:596601,-1,1,-5,-2,-2,-4,-2,-2
20:39:01:597459,-1,1,-5,-2,-2,-4,-2,-2
20:39:01:598187,1,5,-7,0,0,3,-1,0
20:39:01:610317,-3,-2,0,4,-2,-4,-1,-2
20:39:01:618460,-3,-2,0,4,-2,-4,-1,-2
20:39:01:619341,-2,5,-19,1,2,1,0,1
20:39:01:625183,-1,1,2,0,1,-1,0,-1
20:39:01:640944,-1,1,2,0,1,-1,0,-1
20:39:01:641808,-2,-8,9,0,1,0,-1,-2
20:39:01:647833,-1,-1,-6,-6,-1,-1,0,-1
20:39:01:655957,-1,-1,-6,-6,-1,-1,0,-1
20:39:01:656828,-3,-3,16,6,-4,-5,-1,0
20:39:01:670320,1,-2,15,9,5,2,0,0
20:39:01:678459,1,-2,15,9,5,2,0,0
20:39:01:679315,0,-4,-2,9,1,0,-3,-2
20:39:01:685346,-2,-4,11,-1,3,0,1,0
20:39:01:700969,-2,-4,11,-1,3,0,1,0
20:39:01:701713,7,3,-26,-22,-1,0,0,3
20:39:01:707832,-3,-1,-12,-10,-2,-3,-3,-2
20:39:01:715983,-3,-1,-12,-10,-2,-3,-3,-2
20:39:01:716848,1,-2,-10,-24,-3,-1,0,6
20:39:01:730373,-1,-5,-13,-2,-1,1,2,-1
20:39:01:738463,-1,-5,-13,-2,-1,1,2,-1
20:39:01:739187,-8,-9,-21,-10,-1,-1,0,-4
20:39:01:745341,-23,-12,9,-7,-6,-5,3,-8
20:39:01:760951,-23,-12,9,-7,-6,-5,3,-8
20:39:01:761811,27,3,19,3,3,6,26,8
20:39:01:767817,15,7,-9,3,-1,0,8,3
20:39:01:775974,15,7,-9,3,-1,0,8,3
20:39:01:776694,-4,-2,12,8,-5,-5,-5,-6
20:39:01:790323,-2,-1,-24,7,-1,-2,0,-3
20:39:01:806597,-2,-1,-24,7,-1,-2,0,-3
20:39:01:807433,-5,-1,10,16,0,-1,3,-6
20:39:01:808172,-2,3,-13,-11,2,0,-8,2
20:39:01:820952,-2,3,-13,-11,2,0,-8,2
20:39:01:821847,-9,-2,-1,-3,-1,1,1,-2
20:39:01:827709,2,-2,0,-3,-4,-2,-3,0
20:39:01:835966,2,-2,0,-3,-4,-2,-3,0
20:39:01:836803,-3,3,23,10,1,-2,-10,1
20:39:01:850241,-3,-1,6,21,2,-1,-4,-1
20:39:01:858821,-3,-1,6,21,2,-1,-4,-1
20:39:01:865957,-4,1,11,6,-3,-4,-4,1
20:39:01:866723,1,-1,3,-2,-4,-3,-2,-1
20:39:01:880978,1,-1,3,-2,-4,-3,-2,-1
20:39:01:881851,-4,-6,-12,-3,-2,-2,-3,-5
20:39:01:887714,-1,3,3,-4,-3,-2,0,1
20:39:01:896009,-1,3,3,-4,-3,-2,0,1
20:39:01:896822,-3,-3,-6,-8,-1,-1,-7,-3
20:39:01:910336,0,-1,7,3,-1,-2,-11,-2
20:39:01:926712,0,-1,7,3,-1,-2,-11,-2
20:39:01:927444,-2,0,-4,2,-1,-2,-4,-3
20:39:01:928338,0,1,-7,-5,-2,0,-3,0
20:39:01:940959,0,1,-7,-5,-2,0,-3,0
20:39:01:941826,-3,-1,-1,-4,-4,0,-1,-1
20:39:01:947872,1,0,-1,-6,-5,-1,-1,-2
20:39:01:955952,1,0,-1,-6,-5,-1,-1,-2
20:39:01:956825,-3,-2,5,7,0,-2,-2,-1
20:39:01:970245,-1,0,-1,-3,4,3,1,0
20:39:01:978637,-1,0,-1,-3,4,3,1,0
20:39:01:979343,1,0,-1,-9,0,-1,-3,-2
20:39:01:985386,-3,-2,-7,-9,-8,-6,-1,-1
20:39:02:1020,-3,-2,-7,-9,-8,-6,-1,-1
20:39:02:1832,0,0,-4,-16,-2,0,-1,0
20:39:02:7708,0,-1,5,17,-5,-3,-2,-2
20:39:02:15979,0,-1,5,17,-5,-3,-2,-2
20:39:02:16837,-2,-3,-5,4,2,0,-1,-2
20:39:02:30229,-1,1,-2,-1,4,1,-1,0
20:39:02:38580,-1,1,-2,-1,4,1,-1,0
20:39:02:39312,-1,0,0,-2,-5,-3,-2,-1
20:39:02:52732,2,-3,-1,2,6,-1,0,-1
20:39:02:60969,2,-3,-1,2,6,-1,0,-1
20:39:02:61836,-2,1,-1,1,-1,0,-2,0
20:39:02:67731,-1,0,2,3,-2,-1,-1,-1
20:39:02:75312,-1,0,2,3,-2,-1,-1,-1
20:39:02:82837,-2,-2,-1,-6,-1,1,1,0
20:39:02:90203,-17,1,-1,-15,-2,-1,0,0
20:39:02:98667,-17,1,-1,-15,-2,-1,0,0
20:39:02:99320,-4,-2,0,2,-1,-3,-1,-1
20:39:02:112693,6,2,-4,-2,-3,0,-1,0
20:39:02:120965,6,2,-4,-2,-3,0,-1,0
20:39:02:121817,0,-2,-3,0,0,1,-1,-13
20:39:02:127832,-4,-11,-2,-1,-2,-2,-1,-1
20:39:02:135340,-4,-11,-2,-1,-2,-2,-1,-1
20:39:02:142818,5,1,0,-1,-5,-2,-2,1
20:39:02:150364,9,4,-3,-4,4,-1,0,0
20:39:02:165951,9,4,-3,-4,4,-1,0,0
20:39:02:166821,-5,1,-1,7,11,3,2,2
20:39:02:172715,9,3,2,-4,-6,-4,0,5
20:39:02:180949,9,3,2,-4,-6,-4,0,5
20:39:02:181828,-11,-8,-6,-3,-9,-4,-7,-3
20:39:02:187818,-2,2,2,0,0,2,0,-1
20:39:02:195344,-2,2,2,0,0,2,0,-1
20:39:02:202835,4,3,0,-2,1,-2,0,2
20:39:02:210326,-1,-2,-1,-6,-1,1,-1,-4
20:39:02:218487,-1,-2,-1,-6,-1,1,-1,-4
20:39:02:219319,0,-2,0,2,1,-1,0,0
20:39:02:232869,-6,-2,-4,-1,0,-1,-2,-3
20:39:02:240973,-6,-2,-4,-1,0,-1,-2,-3
20:39:02:241685,0,1,-1,-5,-12,-6,-13,-2
20:39:02:247821,-1,1,3,4,12,8,-2,-1
20:39:02:255347,-1,1,3,4,12,8,-2,-1
20:39:02:262728,2,0,-1,0,-3,-2,2,-3
20:39:02:270236,-5,-5,4,-1,-8,-8,-23,2
20:39:02:285991,-5,-5,4,-1,-8,-8,-23,2
20:39:02:286682,1,0,2,0,-2,-1,-1,0
20:39:02:293434,-3,-3,-3,0,2,2,-12,0
20:39:02:294304,-3,-3,-3,0,2,2,-12,0
20:39:02:300233,-2,1,4,1,1,1,-2,2
20:39:02:307705,11,3,3,2,-4,-2,-5,2
20:39:02:315370,11,3,3,2,-4,-2,-5,2
20:39:02:322716,-4,-1,-2,1,2,-1,7,-1
20:39:02:330199,-8,-3,-4,1,0,2,14,-3
20:39:02:338453,-8,-3,-4,1,0,2,14,-3
20:39:02:339337,10,3,-1,-5,-3,-3,-7,2
20:39:02:352737,-1,-2,-1,-5,-9,-5,1,-15
20:39:02:360951,-1,-2,-1,-5,-9,-5,1,-15
20:39:02:361842,5,0,-6,0,4,1,1,-2
20:39:02:367726,3,0,-2,-2,-1,0,9,-1
20:39:02:375321,3,0,-2,-2,-1,0,9,-1
20:39:02:382738,-1,-5,-5,1,-1,1,3,3
20:39:02:390217,-15,23,0,-1,-3,-1,4,-16
20:39:02:398640,-15,23,0,-1,-3,-1,4,-16
20:39:02:399337,47,4,3,-2,5,3,8,21
20:39:02:412713,0,-12,-5,8,-8,-8,-18,-29
20:39:02:420959,0,-12,-5,8,-8,-8,-18,-29
20:39:02:421823,-25,-15,0,6,-7,-3,-3,-8
20:39:02:427728,8,-3,3,5,-3,0,10,23
20:39:02:435330,8,-3,3,5,-3,0,10,23
20:39:02:442706,6,-2,-7,2,2,-4,-5,-8
20:39:02:450356,19,4,8,9,10,2,3,3
20:39:02:458437,19,4,8,9,10,2,3,3
20:39:02:459221,9,10,14,-9,3,0,-1,1
20:39:02:473511,-1,-8,-8,-3,-3,-2,3,-9
20:39:02:474378,-1,-8,-8,-3,-3,-2,3,-9
20:39:02:480320,-18,1,0,-3,-7,-1,-21,20
20:39:02:487833,10,4,0,-6,-9,-6,-18,9
20:39:02:495334,10,4,0,-6,-9,-6,-18,9
20:39:02:502843,-9,-11,0,12,2,2,8,1
20:39:02:510342,-1,-7,-6,-23,10,-2,0,-4
20:39:02:518478,-1,-7,-6,-23,10,-2,0,-4
20:39:02:519216,-3,14,0,3,0,2,0,-12
20:39:02:533493,-17,-6,-11,-3,-7,-5,5,5
20:39:02:534212,-17,-6,-11,-3,-7,-5,5,5
20:39:02:540347,-16,-9,-5,-9,2,0,5,-8
20:39:02:547868,-2,-5,-4,-5,-1,0,8,2
20:39:02:555322,-2,-5,-4,-5,-1,0,8,2
20:39:02:562723,-26,5,1,6,0,3,3,5
20:39:02:570213,39,2,2,4,-2,0,11,-2
20:39:02:578457,39,2,2,4,-2,0,11,-2
20:39:02:579335,-7,0,1,2,0,0,3,-11
20:39:02:593471,8,0,3,9,1,2,3,17
20:39:02:594341,8,0,3,9,1,2,3,17
20:39:02:600226,-15,-12,2,-3,-1,-4,-16,-21
20:39:02:607714,-11,5,-1,0,-6,-1,-6,3
20:39:02:615328,-11,5,-1,0,-6,-1,-6,3
20:39:02:622690,7,8,-2,-19,-3,0,13,5
20:39:02:630262,-31,-14,-2,3,8,4,-4,-5
20:39:02:638585,-31,-14,-2,3,8,4,-4,-5
20:39:02:639210,33,5,-2,-5,-4,-4,2,5
20:39:02:653463,-12,-12,-1,-6,-6,0,-1,-3
20:39:02:654326,-12,-12,-1,-6,-6,0,-1,-3
20:39:02:660197,32,31,-2,12,0,-1,-2,5
20:39:02:667737,-20,-14,-8,-13,-5,-4,-2,-8
20:39:02:675330,-20,-14,-8,-13,-5,-4,-2,-8
20:39:02:682722,4,2,4,-14,-1,-2,-1,4
20:39:02:690215,-4,4,3,9,-2,-1,-5,-16
20:39:02:698629,-4,4,3,9,-2,-1,-5,-16
20:39:02:699328,-14,-9,-1,8,0,0,3,1
20:39:02:713465,13,14,-9,-5,-5,-3,-4,4
20:39:02:714365,13,14,-9,-5,-5,-3,-4,4
20:39:02:720190,-30,-18,-6,-17,-8,-4,-6,-6
20:39:02:727711,0,10,3,-13,3,5,4,20
20:39:02:735346,0,10,3,-13,3,5,4,20
20:39:02:742842,-3,-1,-3,3,-2,-1,0,6
20:39:02:750372,-21,1,2,-2,1,-2,-5,-4
20:39:02:758463,-21,1,2,-2,1,-2,-5,-4
20:39:02:759191,-9,-19,4,2,-1,0,-3,-9
20:39:02:773458,15,8,2,6,5,3,6,-1
20:39:02:774364,15,8,2,6,5,3,6,-1
20:39:02:780316,-20,-1,-3,0,-7,-5,4,-33
20:39:02:787848,-5,-5,-1,3,-7,1,6,13
20:39:02:795335,-5,-5,-1,3,-7,1,6,13
20:39:02:802830,3,5,0,-11,1,1,4,13
20:39:02:810331,4,-19,-1,-5,6,5,-1,-6
20:39:02:818462,4,-19,-1,-5,6,5,-1,-6
20:39:02:819223,-3,2,-6,5,-4,-1,-4,1
20:39:02:833464,-2,0,4,10,-3,-8,-7,-10
20:39:02:834372,-2,0,4,10,-3,-8,-7,-10
20:39:02:840337,8,-1,-1,0,3,3,1,-15
20:39:02:847870,-3,3,0,4,-1,-1,-1,3
20:39:02:855342,-3,3,0,4,-1,-1,-1,3
20:39:02:862710,4,-4,-3,-2,-1,-4,-6,-11
20:39:02:870230,-6,6,-1,-7,-2,0,-3,-16
20:39:02:878483,-6,6,-1,-7,-2,0,-3,-16
20:39:02:879351,20,-7,-3,3,-10,-2,-7,10
20:39:02:893458,3,-2,-3,-4,0,0,-4,0
20:39:02:894351,3,-2,-3,-4,0,0,-4,0
20:39:02:900266,-4,0,-3,-2,-6,-6,3,16
20:39:02:907718,0,-4,1,0,4,4,-3,1
20:39:02:915372,0,-4,1,0,4,4,-3,1
20:39:02:922718,28,7,-3,-1,0,-4,-13,-17
20:39:02:930219,1,-1,-5,-4,-5,-6,-11,6
20:39:02:938470,1,-1,-5,-4,-5,-6,-11,6
20:39:02:939335,-7,3,2,2,2,1,19,8
20:39:02:953455,-2,-1,4,2,1,-1,7,-2
20:39:02:954359,-2,-1,4,2,1,-1,7,-2
20:39:02:960191,6,-2,-1,1,4,3,-10,-9
20:39:02:975960,41,-8,-19,-20,-5,-15,-8,3
20:39:02:976823,41,-8,-19,-20,-5,-15,-8,3
20:39:02:982745,-2,-1,4,-1,-8,-4,-5,6
20:39:02:990218,-2,10,19,1,2,7,16,-10
20:39:02:997864,-2,10,19,1,2,7,16,-10
20:39:03:5216,4,-20,-42,-5,0,0,18,-8
20:39:03:13507,3,3,-8,4,-9,0,23,6
20:39:03:14374,3,3,-8,4,-9,0,23,6
20:39:03:20210,-21,-2,2,8,13,6,27,3
20:39:03:35988,4,-1,10,-1,-1,-3,7,0
20:39:03:36833,4,-1,10,-1,-1,-3,7,0
20:39:03:42698,-19,0,0,-21,-7,-4,-34,1
20:39:03:50261,-7,11,-2,24,14,2,-16,4
20:39:03:57863,-7,11,-2,24,14,2,-16,4
20:39:03:65229,-6,7,29,27,-1,2,-6,-2
20:39:03:72712,-18,-1,41,3,-10,-4,16,4
20:39:03:80945,-18,-1,41,3,-10,-4,16,4
20:39:03:81821,16,-10,1,-2,14,5,-17,6
20:39:03:95989,-68,-1,1,6,2,2,-9,6
20:39:03:96846,-68,-1,1,6,2,2,-9,6
20:39:03:102710,-9,-15,-34,-75,-31,-16,4,-7
20:39:03:110198,17,-3,-17,-4,6,5,-7,-4
20:39:03:117834,17,-3,-17,-4,6,5,-7,-4
20:39:03:125335,-15,0,-1,19,6,0,-10,-4
20:39:03:132858,1,-3,-3,-15,-6,-4,-7,-3
20:39:03:140981,1,-3,-3,-15,-6,-4,-7,-3
20:39:03:141706,-8,27,7,16,15,1,9,6
20:39:03:155966,-16,-8,-3,-7,-6,-5,-21,-14
20:39:03:156708,-16,-8,-3,-7,-6,-5,-21,-14
20:39:03:162833,-5,-3,8,-59,8,2,1,-19
20:39:03:170333,32,-2,-12,1,-14,-4,3,8
20:39:03:177835,32,-2,-12,1,-14,-4,3,8
20:39:03:185290,-15,-3,19,37,7,4,-4,0
20:39:03:193476,27,8,-17,-10,3,6,18,-2
20:39:03:194342,27,8,-17,-10,3,6,18,-2
20:39:03:200258,-14,-22,-4,7,-7,-8,-25,-69
20:39:03:215958,-62,2,3,-45,3,-3,-12,-38
20:39:03:216716,-62,2,3,-45,3,-3,-12,-38
20:39:03:222694,39,-20,13,-51,-5,-2,2,28
20:39:03:230369,-6,-22,-9,-4,-10,0,4,9
20:39:03:237827,-6,-22,-9,-4,-10,0,4,9
20:39:03:245211,-7,-10,-8,20,-6,-5,-1,9
20:39:03:252771,-6,7,17,11,3,3,6,3
20:39:03:260971,-6,7,17,11,3,3,6,3
20:39:03:261856,3,1,-2,13,-4,3,2,19
20:39:03:275965,9,-2,-17,11,5,-1,-9,10
20:39:03:276818,9,-2,-17,11,5,-1,-9,10
20:39:03:282732,26,12,-3,1,-6,-5,2,-10
20:39:03:290230,26,-1,-7,25,5,2,-7,-5
20:39:03:297837,26,-1,-7,25,5,2,-7,-5
20:39:03:305227,0,19,4,-3,-9,-2,0,15
20:39:03:312716,6,6,-14,-20,-10,-3,-1,18
20:39:03:328480,6,6,-14,-20,-10,-3,-1,18
20:39:03:329202,-25,-44,-5,3,-5,-6,-6,-6
20:39:03:335990,-4,0,7,-11,9,6,4,15
20:39:03:336819,-4,0,7,-11,9,6,4,15
20:39:03:342711,-9,26,-6,31,4,3,6,15
20:39:03:350212,-28,-18,-9,-38,-8,-11,-11,-1
20:39:03:357864,-28,-18,-9,-38,-8,-11,-11,-1
20:39:03:365208,4,9,2,13,0,1,2,-24
20:39:03:373479,16,1,8,35,-4,-5,-6,-12
20:39:03:374340,16,1,8,35,-4,-5,-6,-12
20:39:03:380376,0,-5,11,1,0,2,2,5
20:39:03:395968,21,-9,-13,-25,12,0,-2,14
20:39:03:396827,21,-9,-13,-25,12,0,-2,14
20:39:03:402712,-20,13,7,-9,9,0,13,-1
20:39:03:410218,11,14,33,43,5,4,-2,11
20:39:03:417877,11,14,33,43,5,4,-2,11
20:39:03:425267,-9,17,1,0,-2,0,4,16
20:39:03:433500,-16,7,8,-3,-2,-1,-10,-17
20:39:03:434227,-16,7,8,-3,-2,-1,-10,-17
20:39:03:440336,16,2,-4,-12,-3,-1,-3,17
20:39:03:455968,-5,-17,-8,8,-5,-5,-8,-33
20:39:03:456713,-5,-17,-8,8,-5,-5,-8,-33
20:39:03:462838,-3,-1,-24,0,3,-2,-4,0
20:39:03:470215,23,11,0,-7,-2,1,9,-66
20:39:03:477888,23,11,0,-7,-2,1,9,-66
20:39:03:485369,12,-3,-8,-65,2,3,-6,2
20:39:03:493493,5,21,0,2,-3,-4,1,16
20:39:03:494366,5,21,0,2,-3,-4,1,16
20:39:03:500236,20,-9,8,40,10,9,-4,-31
20:39:03:515980,-13,-3,-8,-9,-7,-2,3,0
20:39:03:516750,-13,-3,-8,-9,-7,-2,3,0
20:39:03:522749,-14,3,6,11,-5,-6,-7,9
20:39:03:530390,-2,-15,-22,-14,2,3,12,19
20:39:03:537847,-2,-15,-22,-14,2,3,12,19
20:39:03:545231,15,-4,2,26,4,7,3,5
20:39:03:553458,-19,-22,0,-5,-5,-1,-2,11
20:39:03:554327,-19,-22,0,-5,-5,-1,-2,11
20:39:03:560215,-51,0,-1,1,-2,3,6,7
20:39:03:575996,-8,-6,-11,9,-4,-2,6,22
20:39:03:576833,-8,-6,-11,9,-4,-2,6,22
20:39:03:582728,-18,-39,-21,17,-11,-7,0,34
20:39:03:590244,-29,9,15,3,9,3,-12,-2
20:39:03:597853,-29,9,15,3,9,3,-12,-2
20:39:03:605228,40,11,-3,0,-14,-6,1,9
20:39:03:613515,24,-4,0,-3,-5,-13,-18,-5
20:39:03:614336,24,-4,0,-3,-5,-13,-18,-5
20:39:03:620215,0,6,3,-8,-8,-3,-3,14
20:39:03:635971,15,-25,-5,4,-1,-1,4,-26
20:39:03:636833,15,-25,-5,4,-1,-1,4,-26
20:39:03:642722,-17,-11,-4,18,-4,1,4,0
20:39:03:650256,24,17,2,-4,21,9,12,21
20:39:03:657837,24,17,2,-4,21,9,12,21
20:39:03:665218,-2,-25,-24,-42,7,0,-3,-18
20:39:03:673475,13,8,5,11,-5,0,0,20
20:39:03:674206,13,8,5,11,-5,0,0,20
20:39:03:687754,-28,33,7,6,9,-1,4,-10
20:39:03:695987,-3,1,-5,5,-10,-5,-5,13
20:39:03:696848,-3,1,-5,5,-10,-5,-5,13
20:39:03:702746,29,6,5,9,-4,0,5,4
20:39:03:718465,-10,-1,-13,0,-8,-2,-4,-16
20:39:03:719353,-10,-1,-13,0,-8,-2,-4,-16
20:39:03:725212,4,11,-1,-35,-1,0,4,9
20:39:03:733504,-42,-16,4,3,-6,-4,-16,-27
20:39:03:734360,-42,-16,4,3,-6,-4,-16,-27
20:39:03:740218,12,4,18,23,-5,-5,-4,16
20:39:03:756003,4,-16,-7,-6,1,-4,-14,-8
20:39:03:756868,4,-16,-7,-6,1,-4,-14,-8
20:39:03:762766,-11,-10,7,37,-4,-13,-5,-13
20:39:03:770211,45,40,8,29,5,4,12,1
20:39:03:777849,45,40,8,29,5,4,12,1
20:39:03:785227,3,-19,-17,-18,2,5,7,5
20:39:03:793493,-11,5,16,-14,-4,-1,-5,-46
20:39:03:794345,-11,5,16,-14,-4,-1,-5,-46
20:39:03:800374,-6,-3,-3,5,-13,-1,1,-6
20:39:03:815997,4,-5,-8,12,-5,-1,-2,27
20:39:03:816836,4,-5,-8,12,-5,-1,-2,27
20:39:03:822722,14,-11,-2,-10,-8,-6,-23,-3
20:39:03:830249,-2,-11,2,14,4,-1,-5,-25
20:39:03:837847,-2,-11,2,14,4,-1,-5,-25
20:39:03:845348,-2,9,5,-9,7,1,6,7
20:39:03:853484,-12,-1,-2,-9,-1,1,0,-19
20:39:03:854212,-12,-1,-2,-9,-1,1,0,-19
20:39:03:860346,7,4,-2,-2,-6,0,0,-36
20:39:03:875962,-23,-2,-1,-10,2,0,0,26
20:39:03:876732,-23,-2,-1,-10,2,0,0,26
20:39:03:882874,22,14,-1,4,-3,-1,-3,-2
20:39:03:890336,3,3,-2,-11,-21,-12,-11,3
20:39:03:897881,3,3,-2,-11,-21,-12,-11,3
20:39:03:905348,-3,4,6,4,6,4,2,4
20:39:03:913472,7,6,-11,-14,7,11,5,-5
20:39:03:914339,7,6,-11,-14,7,11,5,-5
20:39:03:927882,18,21,8,22,-2,-3,-5,-1
20:39:03:935984,3,-8,-4,-13,-9,-4,2,46
20:39:03:936716,3,-8,-4,-13,-9,-4,2,46
20:39:03:942713,-26,-17,-1,-13,-7,2,-1,6
20:39:03:958474,12,-1,6,11,10,7,-3,11
20:39:03:959231,12,-1,6,11,10,7,-3,11
20:39:03:965288,-12,-8,-4,-6,-9,-6,-1,-1
20:39:03:973477,-1,4,-8,-18,-9,-1,8,1
20:39:03:974218,-1,4,-8,-18,-9,-1,8,1
20:39:03:987726,-1,-9,1,2,10,4,-5,-24
20:39:03:995980,-36,-4,-22,21,8,-5,1,-13
20:39:03:996707,-36,-4,-22,21,8,-5,1,-13
20:39:04:2845,-2,-4,-8,-6,1,-6,1,4
20:39:04:18469,12,-2,5,8,-3,1,2,1
20:39:04:19218,12,-2,5,8,-3,1,2,1
20:39:04:25221,6,-14,10,-14,12,4,9,13
20:39:04:33480,-9,-3,9,-1,-5,-10,-17,-13
20:39:04:34224,-9,-3,9,-1,-5,-10,-17,-13
20:39:04:47775,-2,6,-3,-33,3,5,-6,-34
20:39:04:55982,25,35,1,-12,-3,-1,6,-20
20:39:04:56720,25,35,1,-12,-3,-1,6,-20
20:39:04:62748,4,-5,-23,11,-5,-6,-9,-12
20:39:04:78470,-19,-1,-9,-8,0,3,10,-17
20:39:04:79338,-19,-1,-9,-8,0,3,10,-17
20:39:04:85238,-19,5,10,0,2,0,-4,21
20:39:04:93478,-5,-1,5,-7,-6,3,-4,-2
20:39:04:94212,-5,-1,5,-7,-6,3,-4,-2
20:39:04:107766,10,-3,-1,-4,5,-1,-6,-7
20:39:04:115992,4,1,-3,2,-2,-4,-6,8
20:39:04:116855,4,1,-3,2,-2,-4,-6,8
20:39:04:122720,7,-9,-9,-29,-14,-8,-6,-1
20:39:04:138488,-16,-9,0,-14,2,1,9,18
20:39:04:139329,-16,-9,0,-14,2,1,9,18
20:39:04:145218,3,1,-6,23,8,0,0,12
20:39:04:153464,10,0,3,8,9,3,8,28
20:39:04:154361,10,0,3,8,9,3,8,28
20:39:04:167758,11,26,0,4,5,4,3,12
20:39:04:175957,-20,-2,-9,-2,-8,-7,-10,-17
20:39:04:176839,-20,-2,-9,-2,-8,-7,-10,-17
20:39:04:190222,-9,-8,-3,2,-1,2,14,-16
20:39:04:198529,7,13,20,8,3,6,7,-7
20:39:04:199340,7,13,20,8,3,6,7,-7
20:39:04:205210,-7,0,3,4,-3,0,8,2
20:39:04:213529,-12,-14,-2,-2,-12,-1,1,29
20:39:04:214353,-12,-14,-2,-2,-12,-1,1,29
20:39:04:227714,34,11,-3,-11,4,-5,-8,-17
20:39:04:236584,-19,-28,-27,-16,6,4,-1,-7
20:39:04:237467,-19,-28,-27,-16,6,4,-1,-7
20:39:04:242713,4,-2,-3,9,8,-3,-4,13
20:39:04:258486,21,6,-7,-25,3,-2,-2,4
20:39:04:259335,21,6,-7,-25,3,-2,-2,4
20:39:04:265233,-6,-30,-9,20,-4,-5,-5,-19
20:39:04:273484,16,10,3,23,5,4,10,16
20:39:04:274368,16,10,3,23,5,4,10,16
20:39:04:287732,-38,-1,-6,-7,-5,-2,-9,-31
20:39:04:296033,-38,-1,-6,-7,-5,-2,-9,-31
20:39:04:296854,1,-6,-1,10,1,-1,-6,-12
20:39:04:302731,-17,-14,-10,-2,4,3,-2,1
20:39:04:318493,-17,-14,-10,-2,4,3,-2,1
20:39:04:319255,-3,-6,10,10,2,-5,-6,-14
20:39:04:325209,15,15,11,-17,-14,-8,1,13
20:39:04:340986,15,15,11,-17,-14,-8,1,13
20:39:04:341715,23,-1,8,-1,1,1,-3,-14
20:39:04:356601,-3,-6,15,11,-20,2,-3,-11
20:39:04:357476,-3,-6,15,11,-20,2,-3,-11
20:39:04:358206,-2,-6,0,3,-4,-2,6,45
20:39:04:362735,-13,6,20,24,8,3,-3,17
20:39:04:378593,-13,6,20,24,8,3,-3,17
20:39:04:379255,-6,-8,0,-9,-9,-7,-8,-28
20:39:04:385328,-20,-8,-5,-1,3,1,4,10
20:39:04:401004,-20,-8,-5,-1,3,1,4,10
20:39:04:401873,5,1,-7,-32,4,2,3,-18
20:39:04:407711,3,-1,-1,3,0,0,2,-46
20:39:04:416026,3,-1,-1,3,0,0,2,-46
20:39:04:416857,-10,-14,-10,-10,-15,-7,-1,20
20:39:04:422737,16,3,-5,-42,-5,-6,-9,-4
20:39:04:438486,16,3,-5,-42,-5,-6,-9,-4
20:39:04:439349,18,-9,10,1,-2,4,-6,-22
20:39:04:445226,27,-11,-4,3,-10,1,-5,9
20:39:04:460990,27,-11,-4,3,-10,1,-5,9
20:39:04:461851,-9,3,-1,12,1,-5,-15,3
20:39:04:467740,-9,6,-1,2,-2,-3,-5,6
20:39:04:475958,-9,6,-1,2,-2,-3,-5,6
20:39:04:476906,-7,7,-4,10,2,-2,-3,19
20:39:04:482755,-26,27,6,-3,0,3,5,-23
20:39:04:498508,-26,27,6,-3,0,3,5,-23
20:39:04:499360,-14,-9,-4,-12,1,0,7,-31
20:39:04:505268,-8,3,-34,-40,2,0,4,22
20:39:04:520992,-8,3,-34,-40,2,0,4,22
20:39:04:521723,-15,7,11,8,0,-7,-2,-11
20:39:04:527739,-9,-7,-7,12,-5,-4,0,-23
20:39:04:535999,-9,-7,-7,12,-5,-4,0,-23
20:39:04:536888,-35,-2,-12,0,-6,-2,1,13
20:39:04:542736,25,-3,3,2,12,2,5,59
20:39:04:558490,25,-3,3,2,12,2,5,59
20:39:04:559407,-3,-8,-31,-10,4,-5,-9,-16
20:39:04:565233,-2,-14,-24,8,3,4,-9,1
20:39:04:581009,-2,-14,-24,8,3,4,-9,1
20:39:04:581742,7,10,27,5,-1,1,10,9
20:39:04:587722,21,14,12,0,-11,-5,1,26
20:39:04:596038,21,14,12,0,-11,-5,1,26
20:39:04:596838,4,-4,-8,22,-2,3,9,33
20:39:04:602749,11,8,3,10,-2,-3,-3,-8
20:39:04:618496,11,8,3,10,-2,-3,-3,-8
20:39:04:619260,0,-15,2,-6,-12,-6,-7,0
20:39:04:632794,2,3,1,-7,-6,11,12,19
20:39:04:640985,2,3,1,-7,-6,11,12,19
20:39:04:641722,5,6,5,-4,3,2,-3,-30
20:39:04:647787,-1,-4,11,7,3,-4,3,9
20:39:04:655993,-1,-4,11,7,3,-4,3,9
20:39:04:656731,-7,-13,3,6,11,6,-1,44
20:39:04:662777,-8,-2,5,2,3,10,0,-15
20:39:04:678496,-8,-2,5,2,3,10,0,-15
20:39:04:679244,-4,9,5,-19,2,1,-7,22
20:39:04:685221,13,-10,-1,12,8,4,3,6
20:39:04:701016,13,-10,-1,12,8,4,3,6
20:39:04:701723,16,-13,-7,-16,-15,-6,-9,-62
20:39:04:707848,-12,1,12,-21,-15,-6,-3,-19
20:39:04:716025,-12,1,12,-21,-15,-6,-3,-19
20:39:04:716773,-10,16,2,-1,-3,-9,8,23
20:39:04:722729,13,13,6,-5,-6,-4,0,-68
20:39:04:746636,13,13,6,-5,-6,-4,0,-68
20:39:04:747521,6,7,11,11,-8,2,-3,-21
20:39:04:748237,-15,2,1,12,0,-8,-13,2
20:39:04:760985,-15,2,1,12,0,-8,-13,2
20:39:04:761732,15,4,3,2,-1,2,6,-5
20:39:04:767762,-35,0,0,5,-16,-6,-2,-44
20:39:04:776005,-35,0,0,5,-16,-6,-2,-44
20:39:04:776868,5,4,-1,9,9,4,16,16
20:39:04:782761,10,11,0,0,-2,-8,-11,-22
20:39:04:798279,10,11,0,0,-2,-8,-11,-22
20:39:04:806016,12,6,4,-16,-3,-2,0,-41
20:39:04:806741,0,-7,-8,14,13,8,-3,22
20:39:04:820988,0,-7,-8,14,13,8,-3,22
20:39:04:821712,7,-3,-10,-2,6,0,7,2
20:39:04:827728,-10,6,4,-11,-4,-1,1,-13
20:39:04:836024,-10,6,4,-11,-4,-1,1,-13
20:39:04:836860,-35,-7,-12,-1,-8,-12,-27,-25
20:39:04:842727,1,-1,10,17,1,-2,14,3
20:39:04:858981,1,-1,10,17,1,-2,14,3
20:39:04:859747,-15,-5,-6,-2,5,3,-1,6
20:39:04:865264,-1,-9,-1,-3,9,-5,-7,24
20:39:04:881041,-1,-9,-1,-3,9,-5,-7,24
20:39:04:881739,-3,-12,-25,6,-9,2,13,19
20:39:04:887760,-3,0,-6,8,-1,3,9,30
20:39:04:895997,-3,0,-6,8,-1,3,9,30
20:39:04:896731,10,0,-6,18,9,16,22,23
20:39:04:910232,23,-6,-31,1,-2,-7,-5,10
20:39:04:918517,23,-6,-31,1,-2,-7,-5,10
20:39:04:919253,-2,6,7,-1,-14,-13,-15,13
20:39:04:925215,-6,-4,-9,-24,3,1,-3,-3
20:39:04:932880,-6,-4,-9,-24,3,1,-3,-3
20:39:04:940224,5,0,-8,11,20,3,-10,-22
20:39:04:947740,-7,-11,9,18,-11,-6,-4,0
20:39:04:955979,-7,-11,9,18,-11,-6,-4,0
20:39:04:956849,4,-6,12,1,-6,-4,-9,-70
20:39:04:979611,-17,-18,-14,-18,1,-4,5,2
20:39:04:980341,-17,-18,-14,-18,1,-4,5,2
20:39:04:981213,5,-18,4,-14,4,0,4,24
20:39:04:985371,-17,-9,6,-3,-6,0,-3,-38
20:39:04:992860,-17,-9,6,-3,-6,0,-3,-38
20:39:05:303,-8,12,6,0,-2,0,-14,8
20:39:05:7720,12,2,5,-2,4,5,9,18
20:39:05:23502,12,2,5,-2,4,5,9,18
20:39:05:24237,-17,-11,4,-14,-8,-1,1,-7
20:39:05:30236,22,7,0,2,1,-6,-2,1
20:39:05:38504,22,7,0,2,1,-6,-2,1
20:39:05:39240,-13,-23,-16,-5,0,1,2,5
20:39:05:45238,-4,1,3,-8,-10,-2,0,17
20:39:05:52858,-4,1,3,-8,-10,-2,0,17
20:39:05:60232,-2,15,7,-16,-3,-4,7,-2
20:39:05:67762,-3,8,4,3,2,9,16,7
20:39:05:83589,-3,8,4,3,2,9,16,7
20:39:05:84253,-16,1,-3,5,6,-4,-6,11
20:39:05:90266,7,12,12,1,-5,-5,-14,-24
20:39:05:98517,7,12,12,1,-5,-5,-14,-24
20:39:05:99368,15,11,0,18,0,1,7,-3
20:39:05:105226,-14,-17,-20,-8,1,-4,-8,1
20:39:05:112878,-14,-17,-20,-8,1,-4,-8,1
20:39:05:120215,22,-7,-1,-9,-6,-3,-6,-47
20:39:05:136626,-9,-11,-17,-8,-7,-2,8,2
20:39:05:137473,-9,-11,-17,-8,-7,-2,8,2
20:39:05:138230,-11,-10,3,-9,3,-6,-7,33
20:39:05:150283,-8,5,-4,-7,-1,0,0,4
20:39:05:158470,-8,5,-4,-7,-1,0,0,4
20:39:05:159217,-10,24,3,-25,-1,-1,3,-7
20:39:05:165238,-9,-6,-6,13,1,-2,-20,-3
20:39:05:172888,-9,-6,-6,13,1,-2,-20,-3
20:39:05:180240,-6,-13,-3,22,3,4,4,7
20:39:05:196642,10,26,16,17,1,-2,3,8
20:39:05:197507,10,26,16,17,1,-2,3,8
20:39:05:198247,13,10,11,11,-1,5,16,26
20:39:05:210238,-1,2,16,-11,-4,-4,-12,-3
20:39:05:218499,-1,2,16,-11,-4,-4,-12,-3
20:39:05:219262,1,-1,-17,-11,-6,7,6,11
20:39:05:225237,-7,0,-9,2,14,5,4,13
20:39:05:232858,-7,0,-9,2,14,5,4,13
20:39:05:248489,-9,0,-26,-29,-11,-10,-10,21
20:39:05:249235,2,-4,5,6,3,4,-3,4
20:39:05:255975,2,-4,5,6,3,4,-3,4
20:39:05:256715,18,6,9,30,-3,1,-2,23
20:39:05:270245,-1,-7,-9,-14,-1,-5,-5,-13
20:39:05:278474,-1,-7,-9,-14,-1,-5,-5,-13
20:39:05:279214,-6,-7,25,10,2,-2,-19,-22
20:39:05:285218,43,12,6,1,-7,-6,14,41
20:39:05:292853,43,12,6,1,-7,-6,14,41
20:39:05:308482,-6,-19,-28,2,1,-4,-6,2
20:39:05:309230,2,-24,-13,-1,-2,4,2,-23
20:39:05:315977,2,-24,-13,-1,-2,4,2,-23
20:39:05:316744,-6,8,-3,30,5,-3,0,-21
20:39:05:330262,14,-6,6,4,-6,-3,6,59
20:39:05:338479,14,-6,6,4,-6,-3,6,59
20:39:05:339229,-5,-13,-5,6,-1,1,3,-14
20:39:05:345220,-11,3,30,-8,-1,-1,-12,7
20:39:05:360989,-11,3,30,-8,-1,-1,-12,7
20:39:05:361872,3,-2,11,-5,-10,-10,-15,22
20:39:05:367753,-15,0,-7,-16,0,3,6,-29
20:39:05:375963,-15,0,-7,-16,0,3,6,-29
20:39:05:376720,16,11,18,-1,3,2,4,20
20:39:05:390238,-4,8,-9,8,-2,-2,-10,-63
20:39:05:398620,-4,8,-9,8,-2,-2,-10,-63
20:39:05:399374,1,12,6,-8,-1,-5,0,-24
20:39:05:405274,-14,5,3,8,2,2,-9,-8
20:39:05:421009,-14,5,3,8,2,2,-9,-8
20:39:05:421738,12,1,-17,-5,-2,-7,5,6
20:39:05:427778,-19,-2,-6,-4,-5,-5,-7,-19
20:39:05:436013,-19,-2,-6,-4,-5,-5,-7,-19
20:39:05:436858,-23,-20,-6,-18,-1,3,-1,-21
20:39:05:450256,-6,-10,16,6,2,2,1,-7
20:39:05:458527,-6,-10,16,6,2,2,1,-7
20:39:05:459344,-4,13,-14,-12,-9,-2,-1,23
20:39:05:473503,-5,1,-6,-1,-1,-3,-7,28
20:39:05:474262,-5,1,-6,-1,-1,-3,-7,28
20:39:05:488349,7,-14,12,-1,0,-4,-15,-2
20:39:05:489214,5,-9,-24,-19,-1,1,3,13
20:39:05:495981,5,-9,-24,-19,-1,1,3,13
20:39:05:496737,-1,-19,-9,-13,-11,-2,-12,2
20:39:05:510219,-8,8,2,1,2,-3,2,-35
20:39:05:519612,-8,8,2,1,2,-3,2,-35
20:39:05:534219,16,13,11,-3,-1,3,12,13
20:39:05:534906,-13,5,8,12,-3,1,7,9
20:39:05:535729,-13,5,8,12,-3,1,7,9
20:39:05:540234,10,13,3,-1,0,1,-2,-16
20:39:05:547761,-15,-1,-28,-1,-2,-8,-8,30
20:39:05:555998,-15,-1,-28,-1,-2,-8,-8,30
20:39:05:556736,-5,4,-3,-37,2,0,-2,-34
20:39:05:570249,-6,2,23,-9,-4,-4,-12,-3
20:39:05:579612,-6,2,23,-9,-4,-4,-12,-3
20:39:05:586033,9,5,-12,-3,-5,-9,-52,4
20:39:05:586720,5,-30,-8,-4,1,1,4,-1
20:39:05:592852,5,-30,-8,-4,1,1,4,-1
20:39:05:600264,4,1,0,14,-5,-2,12,-15
20:39:05:616667,2,-4,-2,-5,4,0,-4,-7
20:39:05:617383,2,-4,-2,-5,4,0,-4,-7
20:39:05:618240,-15,-19,-4,18,-1,0,10,18
20:39:05:630261,9,6,1,2,5,3,11,21
20:39:05:646661,9,6,1,2,5,3,11,21
20:39:05:647503,-10,-14,8,1,7,7,20,23
20:39:05:648222,0,0,-1,4,1,-1,-4,-12
20:39:05:652876,0,0,-1,4,1,-1,-4,-12
20:39:05:660238,-6,-2,-4,2,4,0,-1,-20
20:39:05:667766,3,-1,-18,-8,-5,0,7,23
20:39:05:675979,3,-1,-18,-8,-5,0,7,23
20:39:05:676847,-8,12,2,18,-6,-6,7,-8
20:39:05:699119,21,-6,4,-9,2,5,4,-16
20:39:05:699992,21,-6,4,-9,2,5,4,-16
20:39:05:700800,-9,11,-1,1,-1,0,13,13
20:39:05:705231,-12,6,16,12,4,3,-6,2
20:39:05:712863,-12,6,16,12,4,3,-6,2
20:39:05:720238,4,11,13,-4,4,-2,-13,-4
20:39:05:727762,-10,1,-6,-6,-1,0,-3,1
20:39:05:735990,-10,1,-6,-6,-1,0,-3,1
20:39:05:736846,-9,-2,-14,2,5,2,-1,10
20:39:05:750858,18,13,6,9,-5,-3,6,7
20:39:05:758502,18,13,6,9,-5,-3,6,7
20:39:05:759350,-2,1,-1,-33,-5,-1,-3,-11
20:39:05:765272,-16,-6,-9,3,-6,-6,-5,-28
20:39:05:772894,-16,-6,-9,3,-6,-6,-5,-28
20:39:05:780252,26,2,-9,14,-2,1,-2,-12
20:39:05:787741,4,-14,-4,-15,1,-3,-3,6
20:39:05:811625,4,-14,-4,-15,1,-3,-3,6
20:39:05:812505,-22,-12,19,7,2,2,-1,-12
20:39:05:813268,-4,-20,-4,-22,-7,-2,-20,-6
20:39:05:818492,-4,-20,-4,-22,-7,-2,-20,-6
20:39:05:819257,8,-6,-7,-4,-2,-2,2,-24
20:39:05:833554,4,-9,-26,-3,6,3,5,13
20:39:05:834252,4,-9,-26,-3,6,3,5,13
20:39:05:840241,20,-9,0,-4,-9,-7,-15,7
20:39:05:847745,-13,13,16,9,-2,-4,6,-3
20:39:05:863520,-13,13,16,9,-2,-4,6,-3
20:39:05:864260,27,-7,11,5,9,8,18,17
20:39:05:870271,-10,-6,1,-3,-8,-5,-1,-10
20:39:05:878485,-10,-6,1,-3,-8,-5,-1,-10
20:39:05:879260,-17,8,-12,-14,-7,-7,-16,14
20:39:05:893509,4,6,-24,-3,-3,1,4,25
20:39:05:894234,4,6,-24,-3,-3,1,4,25
20:39:05:900264,-15,-1,11,8,2,0,-1,10
20:39:05:915991,-4,0,-17,-12,-10,0,0,-15
20:39:05:916760,-4,0,-17,-12,-10,0,0,-15
20:39:05:922747,3,2,-1,-2,-1,0,10,30
20:39:05:930248,-22,-12,-2,3,1,-1,-2,8
20:39:05:938498,-22,-12,-2,3,1,-1,-2,8
20:39:05:939231,-14,-3,-11,-6,-1,1,14,4
20:39:05:953489,24,16,19,5,2,-2,-22,-23
20:39:05:954244,24,16,19,5,2,-2,-22,-23
20:39:05:960231,-6,4,6,-15,-1,1,-4,-8
20:39:05:967734,3,-3,5,1,-7,-1,4,13
20:39:05:975361,3,-3,5,1,-7,-1,4,13
20:39:05:982741,19,16,9,5,-1,0,-1,-17
20:39:05:990260,-6,-4,-5,4,6,3,12,-13
20:39:05:998512,-6,-4,-5,4,6,3,12,-13
20:39:05:999253,-6,2,9,5,-1,-1,3,12
20:39:06:13493,12,2,4,-4,4,4,1,-11
20:39:06:14242,12,2,4,-4,4,4,1,-11
20:39:06:28429,-16,-8,-36,-11,-1,-2,-6,-35
20:39:06:29304,0,6,19,14,-1,-2,-4,-18
20:39:06:35377,0,6,19,14,-1,-2,-4,-18
20:39:06:42766,11,6,13,13,-3,-5,-6,-31
20:39:06:50285,17,7,3,-9,-5,-2,-3,-7
20:39:06:58499,17,7,3,-9,-5,-2,-3,-7
20:39:06:59218,-8,-8,-12,3,-4,-2,3,9
20:39:06:73500,13,0,-10,-10,3,0,6,22
20:39:06:74240,13,0,-10,-10,3,0,6,22
20:39:06:88380,8,7,-6,16,11,8,-2,-23
20:39:06:89227,-33,6,7,7,-1,-2,-2,10
20:39:06:95373,-33,6,7,7,-1,-2,-2,10
20:39:06:102760,-39,-4,19,14,-4,-2,-5,7
20:39:06:110237,2,-9,-13,2,-2,-9,-5,-23
20:39:06:118500,2,-9,-13,2,-2,-9,-5,-23
20:39:06:119262,15,-2,-19,-16,2,6,2,5
20:39:06:133524,-20,-18,1,3,-5,-5,-6,-30
20:39:06:134241,-20,-18,1,3,-5,-5,-6,-30
20:39:06:140252,4,-7,-11,1,2,0,8,0
20:39:06:147802,32,11,-8,-1,-1,-2,1,-2
20:39:06:155369,32,11,-8,-1,-1,-2,1,-2
20:39:06:162754,-9,-21,-17,-15,-1,-2,-1,-2
20:39:06:170238,-13,-3,-12,-3,-5,-4,-11,4
20:39:06:178504,-13,-3,-12,-3,-5,-4,-11,4
20:39:06:179371,20,4,4,13,-8,-6,-4,8
20:39:06:193501,-2,9,14,-10,4,1,-1,8
20:39:06:194237,-2,9,14,-10,4,1,-1,8
20:39:06:200244,-1,-9,13,-2,-6,-2,4,8
20:39:06:207750,-3,18,32,11,2,1,16,-11
20:39:06:215410,-3,18,32,11,2,1,16,-11
20:39:06:222742,2,4,-12,-16,-4,-2,4,8
20:39:06:230248,11,6,9,7,1,2,5,9
20:39:06:238494,11,6,9,7,1,2,5,9
20:39:06:239365,-35,-15,-10,-6,2,-4,-14,-11
20:39:06:253496,-7,-6,-9,-13,-8,-3,-9,-12
20:39:06:254349,-7,-6,-9,-13,-8,-3,-9,-12
20:39:06:260244,2,-3,6,2,0,5,-1,-10
20:39:06:267826,19,6,-13,0,0,2,4,25
20:39:06:275392,19,6,-13,0,0,2,4,25
20:39:06:282784,4,6,8,2,4,1,2,44
20:39:06:290249,-2,-8,-7,3,0,5,1,2
20:39:06:298512,-2,-8,-7,3,0,5,1,2
20:39:06:299258,22,-4,0,-13,-2,0,5,3
20:39:06:313536,-8,-21,-27,16,7,0,3,-1
20:39:06:314220,-8,-21,-27,16,7,0,3,-1
20:39:06:320237,0,-10,-33,5,3,-2,8,3
20:39:06:327757,-13,11,-12,-12,1,0,-13,-9
20:39:06:335255,-13,11,-12,-12,1,0,-13,-9
20:39:06:342740,-14,6,6,-6,2,-2,7,0
20:39:06:350259,-11,-7,7,-2,-4,0,2,-10
20:39:06:358474,-11,-7,7,-2,-4,0,2,-10
20:39:06:359225,-1,10,2,-9,1,-3,-14,-22
20:39:06:373489,-24,5,-21,-28,-9,-3,-8,8
20:39:06:374318,-24,5,-21,-28,-9,-3,-8,8
20:39:06:380271,-10,-11,-13,-14,-3,-3,-13,-25
20:39:06:387745,-3,-6,21,35,6,2,-11,-13
20:39:06:395380,-3,-6,21,35,6,2,-11,-13
20:39:06:402751,2,-4,2,-7,-8,-6,-6,-8
20:39:06:410233,7,-6,2,-19,-7,-5,6,11
20:39:06:418888,7,-6,2,-19,-7,-5,6,11
20:39:06:425235,-6,15,1,-5,-1,-1,-2,0
20:39:06:433521,12,-3,11,23,5,-2,0,-11
20:39:06:434399,12,-3,11,23,5,-2,0,-11
20:39:06:440241,1,-3,3,0,-3,1,0,14
20:39:06:447748,2,1,-1,-8,-8,-5,-4,-20
20:39:06:463506,2,1,-1,-8,-8,-5,-4,-20
20:39:06:464249,-7,1,19,38,9,4,-2,13
20:39:06:470251,36,2,2,0,-1,0,-3,11
20:39:06:478491,36,2,2,0,-1,0,-3,11
20:39:06:479274,11,5,-3,-26,-5,-1,9,18
20:39:06:493512,-7,-1,1,-4,-4,-7,-9,-53
20:39:06:494246,-7,-1,1,-4,-4,-7,-9,-53
20:39:06:500270,-5,-12,9,10,-5,-5,-7,2
20:39:06:516002,-29,3,-2,-7,-2,-1,6,30
20:39:06:516761,-29,3,-2,-7,-2,-1,6,30
20:39:06:522762,2,-2,5,8,2,-1,-5,-45
20:39:06:530266,-10,-21,-12,-19,1,0,-9,-24
20:39:06:538508,-10,-21,-12,-19,1,0,-9,-24
20:39:06:539253,10,20,14,-6,-8,-1,-3,-2
20:39:06:553514,-8,-5,-12,2,-6,0,-6,-68
20:39:06:554241,-8,-5,-12,2,-6,0,-6,-68
20:39:06:560240,-10,-14,-13,-2,-1,3,9,6
20:39:06:575995,5,2,7,10,-4,0,10,42
20:39:06:576761,5,2,7,10,-4,0,10,42
20:39:06:582769,15,-2,6,-1,3,-4,2,-17
20:39:06:590264,9,0,-5,4,6,3,10,41
20:39:06:598524,9,0,-5,4,6,3,10,41
20:39:06:599285,1,0,-3,10,1,1,-9,10
20:39:06:613534,-10,-8,-8,7,3,-1,-9,-23
20:39:06:614251,-10,-8,-8,7,3,-1,-9,-23
20:39:06:628497,-7,-2,-8,-24,3,-1,-1,-24
20:39:06:629258,-12,-18,-21,-22,-9,-4,5,14
20:39:06:635245,-12,-18,-21,-22,-9,-4,5,14
20:39:06:642744,5,4,-4,10,3,0,5,3
20:39:06:650269,4,10,-14,-2,2,-1,-5,15
20:39:06:658491,4,10,-14,-2,2,-1,-5,15
20:39:06:659236,-35,-20,6,-18,-13,-5,-3,31
20:39:06:673531,-9,12,13,2,-4,-3,-1,-14
20:39:06:674246,-9,12,13,2,-4,-3,-1,-14
20:39:06:680277,33,12,5,8,-10,-2,0,4
20:39:06:696043,3,-17,-5,9,6,1,4,22
20:39:06:696769,3,-17,-5,9,6,1,4,22
20:39:06:702767,-9,5,29,0,-3,-1,-3,0
20:39:06:710232,1,-4,12,-1,-4,-2,11,5
20:39:06:718518,1,-4,12,-1,-4,-2,11,5
20:39:06:719248,-6,11,-17,-16,6,0,1,11
20:39:06:741633,-2,16,-4,5,1,0,2,26
20:39:06:742499,-2,16,-4,5,1,0,2,26
20:39:06:743257,9,-4,-22,20,2,1,1,-20
20:39:06:747768,-1,-2,20,-22,-7,-2,5,7
20:39:06:755376,-1,-2,20,-22,-7,-2,5,7
20:39:06:762763,5,16,28,8,3,2,1,-32
20:39:06:770235,5,18,12,5,-1,-3,-6,-12
20:39:06:777759,5,18,12,5,-1,-3,-6,-12
20:39:06:785313,-5,-4,-6,-16,-1,-2,-3,3
20:39:06:794166,-5,8,21,0,-6,-2,-1,1
20:39:06:794893,-5,8,21,0,-6,-2,-1,1
20:39:06:807770,-3,-13,-40,-10,1,0,12,45
20:39:06:815911,3,-5,9,23,3,0,-4,22
20:39:06:816753,3,-5,9,23,3,0,-4,22
20:39:06:822751,-10,-26,11,11,1,-1,5,-24
20:39:06:830267,-4,-4,-18,-2,2,0,4,7
20:39:06:837741,-4,-4,-18,-2,2,0,4,7
20:39:06:862282,37,17,5,1,4,6,12,60
20:39:06:863131,-6,6,-1,5,-2,0,-6,-15
20:39:06:863879,-6,6,-1,5,-2,0,-6,-15
20:39:06:864776,-25,-6,2,-12,2,3,-4,-6
20:39:06:875994,6,-2,-4,11,5,0,0,42
20:39:06:876877,6,-2,-4,11,5,0,0,42
20:39:06:882772,-14,15,-9,23,6,2,6,-4
20:39:06:890256,-9,-9,2,-41,5,1,-4,-26
20:39:06:897905,-9,-9,2,-41,5,1,-4,-26
20:39:06:905261,12,9,13,4,-1,-2,3,-8
20:39:06:913518,-7,-4,25,4,-7,-2,-1,5
20:39:06:914284,-7,-4,25,4,-7,-2,-1,5
20:39:06:920256,10,-10,6,-8,-12,-7,-10,-20
20:39:06:935940,18,-18,-12,12,-4,-1,-7,-24
20:39:06:936735,18,-18,-12,12,-4,-1,-7,-24
20:39:06:942737,-7,-8,-4,-6,-3,-4,-13,-42
20:39:06:950266,14,4,-17,-16,2,-4,-6,-15
20:39:06:957757,14,4,-17,-16,2,-4,-6,-15
20:39:06:974138,-8,-30,-17,6,-6,-7,-10,6
20:39:06:974861,-1,2,-15,3,-3,-1,-4,-2
20:39:06:975758,-1,2,-15,3,-3,-1,-4,-2
20:39:06:980247,8,3,-15,-15,-3,-1,-3,-4
20:39:06:996009,19,14,7,1,-2,0,1,-18
20:39:06:996894,19,14,7,1,-2,0,1,-18
20:39:07:2785,-14,-8,-12,21,0,1,-2,-12
20:39:07:10254,-25,-15,-5,12,0,-2,-3,-12
20:39:07:17806,-25,-15,-5,12,0,-2,-3,-12
20:39:07:25272,-45,-14,9,-20,8,-3,-14,-57
20:39:07:33551,-6,-39,-22,-29,-11,-3,1,5
20:39:07:34267,-6,-39,-22,-29,-11,-3,1,5
20:39:07:40249,-3,-4,12,-4,-5,-2,-6,-22
20:39:07:56002,-6,19,-1,2,7,3,-6,3
20:39:07:56733,-6,19,-1,2,7,3,-6,3
20:39:07:62756,24,13,-4,3,-7,-1,4,24
20:39:07:70262,15,5,-7,1,-3,3,8,-15
20:39:07:86042,15,5,-7,1,-3,3,8,-15
20:39:07:86750,-5,2,-1,-13,0,1,9,44
20:39:07:93384,-11,-10,5,-4,-3,-3,-8,4
20:39:07:94252,-11,-10,5,-4,-3,-3,-8,4
20:39:07:100256,3,9,6,0,-4,0,-5,-7
20:39:07:116032,39,14,-4,-5,-5,-2,-6,-34
20:39:07:116911,39,14,-4,-5,-5,-2,-6,-34
20:39:07:122743,0,3,-7,-25,-8,-3,-3,12
20:39:07:130322,-5,18,12,14,-1,-3,-8,8
20:39:07:137775,-5,18,12,14,-1,-3,-8,8
20:39:07:145287,-2,-8,-9,18,2,-2,1,1
20:39:07:153532,-1,3,5,2,9,3,8,21
20:39:07:154290,-1,3,5,2,9,3,8,21
20:39:07:160236,6,7,13,12,-6,-8,-19,-21
20:39:07:175999,-15,-8,-11,-14,1,2,5,5
20:39:07:176759,-15,-8,-11,-14,1,2,5,5
20:39:07:182753,-2,7,-4,0,2,2,6,-4
20:39:07:198435,-4,-3,-7,-14,3,-2,-1,6
20:39:07:199273,-4,-3,-7,-14,3,-2,-1,6
20:39:07:205270,-2,-4,18,11,-4,-2,1,15
20:39:07:213535,7,-8,-13,-16,-3,-3,2,11
20:39:07:214258,7,-8,-13,-16,-3,-3,2,11
20:39:07:220254,22,10,-3,5,1,-1,4,27
20:39:07:235950,-12,-2,9,19,2,-2,4,7
20:39:07:236754,-12,-2,9,19,2,-2,4,7
20:39:07:250907,-3,8,2,-1,2,0,-2,-6
20:39:07:251756,-3,-12,-6,4,-2,-1,1,5
20:39:07:257875,-3,-12,-6,4,-2,-1,1,5
20:39:07:265293,-6,-10,-1,-8,-4,-3,-10,-24
20:39:07:273503,-10,-10,-1,2,-5,-1,-4,-7
20:39:07:274303,-10,-10,-1,2,-5,-1,-4,-7
20:39:07:280293,5,1,-22,-16,-2,0,0,1
20:39:07:295909,6,12,15,-8,-6,0,-3,-14
20:39:07:296766,6,12,15,-8,-6,0,-3,-14
20:39:07:302821,-7,4,7,6,3,1,6,-37
20:39:07:310296,7,6,1,-16,1,2,2,-9
20:39:07:317803,7,6,1,-16,1,2,2,-9
20:39:07:325262,-3,-13,28,0,0,2,2,6
20:39:07:333572,-2,2,3,18,1,2,-1,11
20:39:07:334303,-2,2,3,18,1,2,-1,11
20:39:07:340239,0,-11,-25,-15,1,-1,1,28
20:39:07:364140,3,1,1,1,0,-2,2,29
20:39:07:365003,3,1,1,1,0,-2,2,29
20:39:07:365799,1,4,2,9,2,1,7,14
20:39:07:370247,-8,4,-2,13,2,-1,-5,-20
20:39:07:377883,-8,4,-2,13,2,-1,-5,-20
20:39:07:385310,6,2,-2,2,-4,-3,-7,-10
20:39:07:393421,4,-11,4,9,-1,0,0,-16
20:39:07:394242,4,-11,4,9,-1,0,0,-16
20:39:07:400281,2,15,-4,28,17,3,-2,-8
20:39:07:415918,2,-1,-18,2,-2,-2,1,-2
20:39:07:416744,2,-1,-18,2,-2,-2,1,-2
20:39:07:422750,-6,1,-7,8,-11,-1,-11,-12
20:39:07:430251,2,-15,21,-13,-3,-4,-12,-38
20:39:07:437760,2,-15,21,-13,-3,-4,-12,-38
20:39:07:445254,-8,-18,-3,-7,-6,-6,2,22
20:39:07:453514,-2,0,-13,18,-4,2,7,21
20:39:07:454254,-2,0,-13,18,-4,2,7,21
20:39:07:460267,-2,-23,16,-7,-4,-1,-5,-8
20:39:07:476011,-9,6,-6,5,-2,-2,2,4
20:39:07:476738,-9,6,-6,5,-2,-2,2,4
20:39:07:490893,-2,5,-7,-7,2,3,3,-7
20:39:07:491735,-11,7,3,-28,2,2,1,18
20:39:07:497951,-11,7,3,-28,2,2,1,18
20:39:07:505266,-16,-3,0,-13,-1,0,-6,-24
20:39:07:513504,-2,-8,-1,-8,16,2,1,-5
20:39:07:514234,-2,-8,-1,-8,16,2,1,-5
20:39:07:527748,9,-7,-1,7,-1,-2,0,13
20:39:07:535888,-19,-10,6,-9,6,0,-10,-25
20:39:07:536764,-19,-10,6,-9,6,0,-10,-25
20:39:07:542753,-10,11,3,-18,-10,-5,6,15
20:39:07:550278,-7,-17,-3,3,-14,-6,-3,5
20:39:07:557748,-7,-17,-3,3,-14,-6,-3,5
20:39:07:565327,-6,-2,-7,-1,5,-1,4,13
20:39:07:581697,-16,8,-9,-30,3,1,0,-8
20:39:07:582394,-16,8,-9,-30,3,1,0,-8
20:39:07:583299,-3,-15,-17,13,-3,-4,2,12
20:39:07:596293,15,3,-7,14,-10,-2,-4,15
20:39:07:603500,15,3,-7,14,-10,-2,-4,15
20:39:07:604272,-5,3,-9,-6,8,2,-4,-21
20:39:07:610276,-11,-11,-22,27,1,-3,2,-23
20:39:07:617772,-11,-11,-22,27,1,-3,2,-23
20:39:07:625289,3,26,4,14,-1,3,0,19
20:39:07:633519,-8,14,10,39,-9,-4,-6,-14
20:39:07:634370,-8,14,10,39,-9,-4,-6,-14
20:39:07:640258,-1,0,2,-7,-5,-5,0,-3
20:39:07:655886,7,18,16,-11,-5,0,1,5
20:39:07:656757,7,18,16,-11,-5,0,1,5
20:39:07:662744,-18,-34,-20,-19,4,2,-5,-23
20:39:07:670264,13,-1,1,2,6,1,10,20
20:39:07:677763,13,-1,1,2,6,1,10,20
20:39:07:694175,23,5,11,-12,-3,0,-1,-15
20:39:07:694868,-1,-1,-7,-16,-5,1,-1,5
20:39:07:695764,-1,-1,-7,-16,-5,1,-1,5
20:39:07:700285,20,2,13,-10,-3,-4,-2,19
20:39:07:715886,-4,2,2,-5,-5,-6,-14,-15
20:39:07:716770,-4,2,2,-5,-5,-6,-14,-15
20:39:07:722761,2,11,5,26,1,-2,-4,-10
20:39:07:738388,11,-7,9,-2,2,2,8,30
20:39:07:739260,11,-7,9,-2,2,2,8,30
20:39:07:745267,-3,1,-1,-9,1,0,-4,-4
20:39:07:753513,-18,-4,-7,-12,-4,-1,-3,10
20:39:07:754254,-18,-4,-7,-12,-4,-1,-3,10
20:39:07:767760,-17,8,-17,-21,-4,0,2,8
20:39:07:775871,17,3,6,-17,0,-1,8,26
20:39:07:776750,17,3,6,-17,0,-1,8,26
20:39:07:782769,-5,-4,-5,3,2,2,1,-16
20:39:07:798553,-13,4,9,-18,0,-1,-3,-16
20:39:07:799274,-13,4,9,-18,0,-1,-3,-16
20:39:07:805258,7,15,6,-9,-2,1,3,9
20:39:07:813375,18,10,5,5,-4,-3,-10,-1
20:39:07:814263,18,10,5,5,-4,-3,-10,-1
20:39:07:836652,4,-1,-4,10,6,4,2,3
20:39:07:837384,1,-3,1,8,0,-1,5,-10
20:39:07:838260,1,-3,1,8,0,-1,5,-10
20:39:07:842762,-2,-1,3,12,-5,0,7,26
20:39:07:858886,-3,-16,-4,9,-9,-5,-2,-10
20:39:07:859744,-3,-16,-4,9,-9,-5,-2,-10
20:39:07:865303,6,-4,-2,-9,2,1,4,-3
20:39:07:872761,2,1,15,-12,3,1,-7,2
20:39:07:880274,2,1,15,-12,3,1,-7,2
20:39:07:887747,13,-1,0,6,-7,-6,-6,4
20:39:07:896007,-10,-5,-4,13,0,-3,-3,-35
20:39:07:896752,-10,-5,-4,13,0,-3,-3,-35
20:39:07:902748,-4,-5,-5,-17,1,-2,1,-7
20:39:07:918538,-2,1,-20,24,-1,2,1,-31
20:39:07:919285,-2,1,-20,24,-1,2,1,-31
20:39:07:925330,6,19,11,27,-2,-3,-4,-9
20:39:07:933530,-2,2,-11,-8,0,-1,0,6
20:39:07:934328,-2,2,-11,-8,0,-1,0,6
20:39:07:947799,-14,-23,-18,-8,-7,-6,-10,-37
20:39:07:956009,-22,-9,-4,-9,-4,-4,-5,0
20:39:07:956751,-22,-9,-4,-9,-4,-4,-5,0
20:39:07:962764,-1,-5,-7,-7,-3,-1,0,-16
20:39:07:978516,-4,-11,-10,-19,2,-1,-2,-8
20:39:07:979254,-4,-11,-10,-19,2,-1,-2,-8
20:39:07:985297,5,-5,-2,5,2,1,6,24
20:39:07:993492,2,15,19,-3,1,-2,-3,16
20:39:07:994242,2,15,19,-3,1,-2,-3,16
20:39:08:7753,-17,-7,-12,5,-8,-4,0,12
20:39:08:16001,0,8,22,28,-1,2,-2,-8
20:39:08:16821,0,8,22,28,-1,2,-2,-8
20:39:08:22781,-6,-6,1,-8,1,1,-1,-1
20:39:08:38518,13,-3,-14,13,-2,2,3,7
20:39:08:39268,13,-3,-14,13,-2,2,3,7
20:39:08:45273,-10,-6,4,0,1,3,8,30
20:39:08:53511,0,2,-3,-14,-2,-3,2,24
20:39:08:54261,0,2,-3,-14,-2,-3,2,24
20:39:08:67801,-10,-13,2,-13,-1,-2,-6,0
20:39:08:76020,15,-14,-17,4,-4,-1,-2,7
20:39:08:76760,15,-14,-17,4,-4,-1,-2,7
20:39:08:82840,11,8,-10,13,0,-3,0,-5
20:39:08:98491,-18,-18,5,-3,-7,-4,-2,-6
20:39:08:99308,-18,-18,5,-3,-7,-4,-2,-6
20:39:08:105269,10,5,-2,-4,2,-1,-10,-41
20:39:08:113539,-20,3,-2,-9,-4,-2,-6,2
20:39:08:114275,-20,3,-2,-9,-4,-2,-6,2
20:39:08:127772,-4,-18,15,-1,-6,-4,-14,-16
20:39:08:135903,0,-2,4,-10,1,0,-2,-3
20:39:08:136762,0,-2,4,-10,1,0,-2,-3
20:39:08:142749,-4,10,-4,8,-11,-1,2,47
20:39:08:158519,-4,10,-4,8,-11,-1,2,47
20:39:08:159266,-6,21,-12,-5,-3,-1,-5,9
20:39:08:165269,9,0,-9,1,-8,-3,-1,2
20:39:08:181055,9,0,-9,1,-8,-3,-1,2
20:39:08:181781,-3,6,-2,-5,4,3,6,24
20:39:08:187776,17,7,10,-3,1,-3,-1,-18
20:39:08:196019,17,7,10,-3,1,-3,-1,-18
20:39:08:196788,-3,-11,-10,-8,3,-2,-3,-18
20:39:08:202757,2,-1,1,-12,4,2,0,-8
20:39:08:218521,2,-1,1,-12,4,2,0,-8
20:39:08:219273,13,-6,1,-10,-1,-3,3,4
20:39:08:225299,-26,-1,3,-6,5,2,-6,-19
20:39:08:241017,-26,-1,3,-6,5,2,-6,-19
20:39:08:241758,-2,16,-6,27,10,4,2,9
20:39:08:247776,3,3,-4,-16,11,1,-2,-9
20:39:08:256010,3,3,-4,-16,11,1,-2,-9
20:39:08:256760,33,2,-5,14,-4,-2,-3,2
20:39:08:262768,0,18,12,5,-2,-1,6,22
20:39:08:278532,0,18,12,5,-2,-1,6,22
20:39:08:279278,-6,-8,-1,-14,0,2,-1,-20
20:39:08:285262,-4,-2,-7,-8,-6,-1,-2,-7
20:39:08:301031,-4,-2,-7,-8,-6,-1,-2,-7
20:39:08:301763,-11,-15,-2,-11,-5,-1,3,19
20:39:08:307764,0,-7,-19,-10,-9,-4,-2,9
20:39:08:316116,0,-7,-19,-10,-9,-4,-2,9
20:39:08:316752,-3,-3,-8,3,-4,-5,-7,-27
20:39:08:322750,-6,1,-3,-2,3,1,4,23
20:39:08:338543,-6,1,-3,-2,3,1,4,23
20:39:08:339275,0,-13,3,-2,-4,-1,2,21
20:39:08:345300,-6,6,5,8,1,-1,-5,-2
20:39:08:361017,-6,6,5,8,1,-1,-5,-2
20:39:08:361767,-12,6,12,0,-6,-2,-5,-14
20:39:08:367811,12,10,8,-11,0,1,2,-8
20:39:08:375998,12,10,8,-11,0,1,2,-8
20:39:08:376769,-7,-2,-1,-3,0,0,3,-4
20:39:08:390278,11,26,7,29,0,3,10,14
20:39:08:398527,11,26,7,29,0,3,10,14
20:39:08:399335,-7,-14,-19,-10,0,-2,-1,0
20:39:08:405286,0,-3,-8,2,-4,-3,-1,-17
20:39:08:421015,0,-3,-8,2,-4,-3,-1,-17
20:39:08:421771,-5,-2,13,14,2,1,-2,-10
20:39:08:427756,3,1,13,-1,-8,-6,-3,-7
20:39:08:436037,3,1,13,-1,-8,-6,-3,-7
20:39:08:436766,-3,0,-3,-22,1,-2,-10,-32
20:39:08:442756,-7,-6,-5,-2,-4,-3,-8,-16
20:39:08:458553,-7,-6,-5,-2,-4,-3,-8,-16
20:39:08:459278,4,-4,-8,3,-7,-3,6,28
20:39:08:465312,-8,-23,-4,-11,6,1,-4,-5
20:39:08:481033,-8,-23,-4,-11,6,1,-4,-5
20:39:08:481790,18,1,-10,-3,1,0,1,12
20:39:08:487779,-9,12,-4,-13,-1,-1,-1,1
20:39:08:495753,-9,12,-4,-13,-1,-1,-1,1
20:39:08:503397,14,-10,-1,-1,-1,-3,-5,-7
20:39:08:504259,-2,-9,9,9,-2,-1,-5,-13
20:39:08:518541,-2,-9,9,9,-2,-1,-5,-13
20:39:08:519281,-5,7,2,-1,-3,-1,-4,-18
20:39:08:525264,-2,-3,-4,7,6,3,1,3
20:39:08:541035,-2,-3,-4,7,6,3,1,3
20:39:08:541747,-10,-5,0,13,2,-1,0,-5
20:39:08:547824,-3,-4,-3,17,-1,-2,-4,5
20:39:08:556077,-3,-4,-3,17,-1,-2,-4,5
20:39:08:556790,8,17,4,15,0,1,0,-3
20:39:08:562766,6,-1,8,13,1,-1,3,3
20:39:08:578537,6,-1,8,13,1,-1,3,3
20:39:08:579260,-5,7,-1,-1,0,1,0,3
20:39:08:585295,-17,-15,-2,5,-2,-1,-2,-16
20:39:08:601040,-17,-15,-2,5,-2,-1,-2,-16
20:39:08:601768,-2,3,-6,-7,1,-3,4,6
20:39:08:607755,-6,-1,4,-11,2,1,3,6
20:39:08:616034,-6,-1,4,-11,2,1,3,6
20:39:08:616763,-13,5,6,-12,-6,-2,0,21
20:39:08:622770,-6,-16,-1,-1,-1,-5,-8,-19
20:39:08:638395,-6,-16,-1,-1,-1,-5,-8,-19
20:39:08:639241,5,-11,5,-7,-1,2,3,-9
20:39:08:645272,7,-11,-16,12,-2,-1,-1,5
20:39:08:661009,7,-11,-16,12,-2,-1,-1,5
20:39:08:661752,-22,13,11,1,1,-1,-2,-7
20:39:08:667848,9,-2,11,19,2,2,-6,-23
20:39:08:676033,9,-2,11,19,2,2,-6,-23
20:39:08:676753,0,-17,-18,-22,-7,-6,-10,-3
20:39:08:690261,16,5,-4,-9,-7,-3,-3,-19
20:39:08:698552,16,5,-4,-9,-7,-3,-3,-19
20:39:08:699268,12,1,-1,2,-1,1,4,13
20:39:08:705280,-1,-16,5,-12,-4,-3,3,17
20:39:08:721044,-1,-16,5,-12,-4,-3,3,17
20:39:08:721798,-3,-9,-1,13,3,-1,3,-14
20:39:08:727789,-4,21,0,-15,9,-2,1,12
20:39:08:736039,-4,21,0,-15,9,-2,1,12
20:39:08:736766,8,6,-1,-2,11,4,7,0
20:39:08:750295,0,5,-12,-12,-8,-2,5,17
20:39:08:758527,0,5,-12,-12,-8,-2,5,17
20:39:08:759277,-13,-13,-5,-2,-6,-7,-12,-12
20:39:08:765312,-7,-10,-7,-3,4,2,0,-7
20:39:08:772898,-7,-10,-7,-3,4,2,0,-7
20:39:08:780275,21,4,8,2,4,5,3,20
20:39:08:787774,-6,18,7,-18,-7,-3,-3,11
20:39:08:795999,-6,18,7,-18,-7,-3,-3,11
20:39:08:796744,3,10,2,-7,4,0,-7,-21
20:39:08:810289,-4,2,-1,11,2,1,-3,-2
20:39:08:818525,-4,2,-1,11,2,1,-3,-2
20:39:08:819275,-6,-8,9,-8,-7,-2,2,7
20:39:08:833543,0,-20,-16,-2,0,-1,2,1
20:39:08:834300,0,-20,-16,-2,0,-1,2,1
20:39:08:840268,-1,11,0,6,-2,-1,-2,4
20:39:08:847798,0,5,4,8,-5,-7,-7,8
20:39:08:856014,0,5,4,8,-5,-7,-7,8
20:39:08:856759,1,-8,-8,2,-7,-4,0,7
20:39:08:870278,-13,5,-8,-4,-5,-3,-4,-14
20:39:08:878531,-13,5,-8,-4,-5,-3,-4,-14
20:39:08:879259,-4,-3,7,12,-4,-2,-4,-1
20:39:08:885302,4,-4,-3,-7,0,1,8,31
20:39:08:892751,4,-4,-3,-7,0,1,8,31
20:39:08:900306,1,-34,-25,1,-3,-1,3,7
20:39:08:907785,1,5,-1,-7,-4,2,3,-3
20:39:08:916062,1,5,-1,-7,-4,2,3,-3
20:39:08:916761,-7,6,-1,-19,2,4,-3,-7
20:39:08:930274,9,6,7,-5,-4,-2,-2,-7
20:39:08:946644,9,6,7,-5,-4,-2,-2,-7
20:39:08:947564,6,-19,-17,7,-6,-5,-1,4
20:39:08:948292,-10,1,-1,-9,-1,-1,-3,8
20:39:08:952898,-10,1,-1,-9,-1,-1,-3,8
20:39:08:960287,-6,7,1,1,7,1,-3,-20
20:39:08:967807,-1,-4,-13,-14,-1,-1,-4,-16
20:39:08:976011,-1,-4,-13,-14,-1,-1,-4,-16
20:39:08:976779,4,11,13,3,-2,-3,3,14
20:39:08:990288,-4,-3,1,37,-2,-5,-3,8
20:39:08:998547,-4,-3,1,37,-2,-5,-3,8
20:39:08:999280,-4,-3,11,1,-4,-4,-4,2
20:39:09:5279,17,4,6,3,3,4,-3,-28
20:39:09:12770,17,4,6,3,3,4,-3,-28
20:39:09:20264,-2,-3,1,-6,1,1,-4,-14
20:39:09:27771,2,-6,-7,5,5,5,4,-1
20:39:09:36062,2,-6,-7,5,5,5,4,-1
20:39:09:36765,3,-24,-34,-4,0,1,3,27
20:39:09:50314,-1,2,5,6,5,2,6,14
20:39:09:58527,-1,2,5,6,5,2,6,14
20:39:09:59271,10,14,5,26,-6,0,-1,9
20:39:09:65261,9,-6,3,-4,-6,-2,3,27
20:39:09:72793,9,-6,3,-4,-6,-2,3,27
20:39:09:80268,-6,-1,1,11,0,3,3,4
20:39:09:87763,-15,5,5,-16,-4,-4,-11,-33
20:39:09:96053,-15,5,5,-16,-4,-4,-11,-33
20:39:09:96793,-3,22,7,-13,-1,-4,-3,-16
20:39:09:110304,-8,-13,-1,18,0,-1,7,33
20:39:09:118528,-8,-13,-1,18,0,-1,7,33
20:39:09:119270,-7,-2,-1,-9,3,-1,-8,-24
20:39:09:125257,-7,-5,1,-19,-2,0,-6,-18
20:39:09:132808,-7,-5,1,-19,-2,0,-6,-18
20:39:09:140269,8,6,21,0,-1,-1,1,-9
20:39:09:147767,-8,-26,-29,0,-1,-2,0,-9
20:39:09:156052,-8,-26,-29,0,-1,-2,0,-9
20:39:09:156786,0,-1,0,-11,1,0,-2,-18
20:39:09:170287,10,21,7,1,-3,-2,-1,2
20:39:09:178527,10,21,7,1,-3,-2,-1,2
20:39:09:179256,10,-1,3,25,-1,2,2,9
20:39:09:185294,4,13,4,-3,2,2,-1,-11
20:39:09:192884,4,13,4,-3,2,2,-1,-11
20:39:09:200315,-9,-13,-5,-20,-4,1,4,16
20:39:09:207761,-7,-5,-1,-12,-4,-2,-2,-6
20:39:09:216023,-7,-5,-1,-12,-4,-2,-2,-6
20:39:09:216764,-7,-9,-9,-5,-7,-5,-4,2
20:39:09:230321,-6,13,22,7,-3,-4,-2,4
20:39:09:246704,-6,13,22,7,-3,-4,-2,4
20:39:09:247419,-4,7,0,9,3,2,2,-17
20:39:09:248296,-7,-11,-3,12,-3,2,1,16
20:39:09:261039,-7,-11,-3,12,-3,2,1,16
20:39:09:261785,-4,19,0,-45,0,0,2,7
20:39:09:267794,1,-7,-7,5,-2,-2,-1,-11
20:39:09:276037,1,-7,-7,5,-2,-2,-1,-11
20:39:09:276766,-2,0,-5,11,11,4,-2,-1
20:39:09:290302,3,3,1,12,2,-2,-5,-13
20:39:09:298591,3,3,1,12,2,-2,-5,-13
20:39:09:299292,-4,4,0,3,-5,-2,-6,-11
20:39:09:305351,1,11,6,-23,2,0,-5,2
20:39:09:312791,1,11,6,-23,2,0,-5,2
20:39:09:320293,14,-1,-1,14,2,2,3,-2
20:39:09:327771,1,24,9,4,0,-1,-1,-8
20:39:09:336090,1,24,9,4,0,-1,-1,-8
20:39:09:336766,7,-1,-7,-11,-3,-4,6,32
20:39:09:350309,1,0,-3,-20,11,3,1,-2
20:39:09:358511,1,0,-3,-20,11,3,1,-2
20:39:09:359264,-1,-6,-2,13,1,-3,4,16
20:39:09:365286,3,-7,0,8,-4,0,-3,-26
20:39:09:372914,3,-7,0,8,-4,0,-3,-26
20:39:09:380302,-1,-1,-6,-30,0,2,3,3
20:39:09:387784,-3,-5,-10,-12,0,-1,3,10
20:39:09:396019,-3,-5,-10,-12,0,-1,3,10
20:39:09:396797,-16,-1,2,2,-5,-3,-4,-32
20:39:09:410277,-7,-9,-1,6,-6,-1,3,21
20:39:09:418529,-7,-9,-1,6,-6,-1,3,21
20:39:09:419296,16,26,9,-16,-4,0,-1,-16
20:39:09:425263,3,1,14,15,0,-1,-1,-2
20:39:09:432917,3,1,14,15,0,-1,-1,-2
20:39:09:440273,-3,-10,1,5,-2,-3,-1,-25
20:39:09:447852,-3,-4,-5,14,-1,-2,-7,-32
20:39:09:456036,-3,-4,-5,14,-1,-2,-7,-32
20:39:09:456795,-10,-15,-24,-5,-1,-2,1,6
20:39:09:470276,-8,-1,1,-25,2,-1,-6,-11
20:39:09:478545,-8,-1,1,-25,2,-1,-6,-11
20:39:09:479260,3,-6,-3,2,-2,-1,2,12
20:39:09:485284,14,-13,2,-4,1,-1,6,33
20:39:09:492774,14,-13,2,-4,1,-1,6,33
20:39:09:500289,-15,-5,4,-20,-5,-7,-16,-34
20:39:09:507786,0,3,-11,-16,-4,2,0,7
20:39:09:516044,0,3,-11,-16,-4,2,0,7
20:39:09:516773,12,9,6,12,-5,-2,2,25
20:39:09:530291,-12,-21,-15,-19,-6,-5,-4,-14
20:39:09:538544,-12,-21,-15,-19,-6,-5,-4,-14
20:39:09:539279,1,2,1,-15,3,-1,-2,30
20:39:09:545329,-4,13,5,6,-5,-5,-1,-15
20:39:09:552790,-4,13,5,6,-5,-5,-1,-15
20:39:09:560276,-3,8,-2,7,2,-2,-8,-14
20:39:09:567813,-2,3,-8,2,3,5,6,2
20:39:09:576018,-2,3,-8,2,3,5,6,2
20:39:09:576778,-2,-2,6,-8,1,3,-4,1
20:39:09:590273,-2,-5,-2,5,-7,-3,-3,2
20:39:09:598563,-2,-5,-2,5,-7,-3,-3,2
20:39:09:599311,-4,-1,-8,-7,2,1,1,-3
20:39:09:613409,6,-16,-7,-21,-8,-1,3,25
20:39:09:614286,6,-16,-7,-21,-8,-1,3,25
20:39:09:620277,-24,-11,-18,11,-8,-2,2,-3
20:39:09:627773,4,20,7,12,-2,-3,-10,-8
20:39:09:635286,4,20,7,12,-2,-3,-10,-8
20:39:09:642778,1,9,9,-13,7,4,2,-18
20:39:09:650278,-15,-22,1,7,2,1,-4,20
20:39:09:658524,-15,-22,1,7,2,1,-4,20
20:39:09:659265,-6,10,1,17,-3,-3,-3,10
20:39:09:673540,11,8,-8,-19,5,1,-9,-34
20:39:09:674293,11,8,-8,-19,5,1,-9,-34
20:39:09:680292,-4,-22,-2,-3,3,-1,2,-6
20:39:09:687783,15,-1,-1,14,-1,1,3,20
20:39:09:695299,15,-1,-1,14,-1,1,3,20
20:39:09:702787,4,-10,-21,9,-4,-2,-2,0
20:39:09:710287,4,10,-3,10,2,0,3,6
20:39:09:718538,4,10,-3,10,2,0,3,6
20:39:09:719298,25,-4,8,6,-5,1,-1,26
20:39:09:733528,-6,11,-8,10,0,0,5,6
20:39:09:734287,-6,11,-8,10,0,0,5,6
20:39:09:740286,-15,0,15,12,-3,-6,-21,-57
20:39:09:747798,-10,-11,-15,8,-4,-1,3,-6
20:39:09:755412,-10,-11,-15,8,-4,-1,3,-6
20:39:09:762788,28,9,3,6,-5,-2,2,28
20:39:09:770299,-8,6,6,11,-4,-2,-4,-21
20:39:09:778419,-8,6,6,11,-4,-2,-4,-21
20:39:09:779296,-4,-26,-22,5,-3,0,0,-3
20:39:09:793549,13,5,3,-12,0,1,1,4
20:39:09:794266,13,5,3,-12,0,1,1,4
20:39:09:800273,-7,-9,5,-5,-5,1,4,-12
20:39:09:807783,9,6,10,-2,-1,-4,3,10
20:39:09:815304,9,6,10,-2,-1,-4,3,10
20:39:09:822824,-4,18,1,-6,9,3,0,-4
20:39:09:830311,-6,2,-3,-19,4,1,-5,-9
20:39:09:838536,-6,2,-3,-19,4,1,-5,-9
20:39:09:839293,-29,16,7,-2,-2,0,8,21
20:39:09:853899,-6,-15,-3,-1,-5,-4,-10,-19
20:39:09:860914,-6,-15,-3,-1,-5,-4,-10,-19
20:39:09:861775,-2,-4,-9,-8,7,1,9,22
20:39:09:867785,2,-7,1,9,-4,-2,3,4
20:39:09:875277,2,-7,1,9,-4,-2,3,4
20:39:09:882814,8,-11,-17,-25,-3,-3,-3,18
20:39:09:890296,1,-3,-9,-8,1,0,0,12
20:39:09:898594,1,-3,-9,-8,1,0,0,12
20:39:09:899291,-2,-10,4,8,-3,-1,-1,2
20:39:09:913432,-5,-5,0,-4,-1,-4,-7,-48
20:39:09:914282,-5,-5,0,-4,-1,-4,-7,-48
20:39:09:928418,-3,4,0,-6,-3,-3,-3,-20
20:39:09:929288,-5,-3,4,1,2,4,4,3
20:39:09:935289,-5,-3,4,1,2,4,4,3
20:39:09:942770,3,0,4,10,-5,-4,-13,-26
20:39:09:950305,-10,-4,-10,-24,-1,-1,0,-9
20:39:09:958524,-10,-4,-10,-24,-1,-1,0,-9
20:39:09:959276,1,-13,-3,20,-2,1,0,-6
20:39:09:973416,2,2,6,17,-1,0,-1,26
20:39:09:974274,2,2,6,17,-1,0,-1,26
20:39:09:980294,-6,10,12,0,-3,-1,-6,-30
20:39:09:987796,-4,0,6,4,0,0,2,-3
20:39:09:995279,-4,0,6,4,0,0,2,-3
20:39:10:2797,14,6,-9,2,2,-2,2,-7
20:39:10:10278,4,-23,-10,-15,-5,-2,-2,10
20:39:10:18567,4,-23,-10,-15,-5,-2,-2,10
20:39:10:19303,1,-5,6,2,-4,-1,3,16
20:39:10:33417,9,16,-3,-13,1,0,-1,-6
20:39:10:34290,9,16,-3,-13,1,0,-1,-6
20:39:10:40285,0,15,-7,-1,-3,-2,3,15
20:39:10:47782,-4,-7,8,22,-2,-1,5,37
20:39:10:55311,-4,-7,8,22,-2,-1,5,37
20:39:10:62775,-11,6,-3,-8,-1,-1,-1,-12
20:39:10:70289,0,-16,-20,-2,-2,0,3,-1
20:39:10:78545,0,-16,-20,-2,-2,0,3,-1
20:39:10:79283,7,-4,-6,14,-3,-3,-7,-9
20:39:10:93538,1,7,7,6,-7,-6,-3,12
20:39:10:94280,1,7,7,6,-7,-6,-3,12
20:39:10:100309,-25,-16,-10,-26,-3,-1,-7,-18
20:39:10:107775,1,25,-2,-2,-2,0,1,14
20:39:10:115294,1,25,-2,-2,-2,0,1,14
20:39:10:122791,-25,-4,6,-22,-4,-3,0,-20
20:39:10:130302,-4,-3,-1,1,5,5,-2,21
20:39:10:138523,-4,-3,-1,1,5,5,-2,21
20:39:10:139272,8,0,6,16,0,0,5,19
20:39:10:153545,-8,-11,6,-4,15,4,6,-4
20:39:10:154270,-8,-11,6,-4,15,4,6,-4
20:39:10:160285,-16,-11,-26,-10,0,-1,4,10
20:39:10:167794,27,22,32,-3,-8,-5,-6,-17
20:39:10:175260,27,22,32,-3,-8,-5,-6,-17
20:39:10:182773,7,12,15,-5,3,-1,-5,0
20:39:10:190281,-28,-11,-6,5,-7,-7,-6,-18
20:39:10:206052,-28,-11,-6,5,-7,-7,-6,-18
20:39:10:206785,14,4,14,7,-1,2,-1,-9
20:39:10:213540,-6,-3,-2,11,0,-3,-2,-1
20:39:10:214283,-6,-3,-2,11,0,-3,-2,-1
20:39:10:220278,17,-10,3,9,-4,-3,3,16
20:39:10:227783,-10,-14,-22,-7,-2,0,-3,-13
20:39:10:235290,-10,-14,-22,-7,-2,0,-3,-13
20:39:10:242791,17,-3,0,0,3,3,1,12
20:39:10:250299,0,6,4,4,0,-1,0,-5
20:39:10:258410,0,6,4,4,0,-1,0,-5
20:39:10:259279,-9,-11,1,-11,7,3,-2,5
20:39:10:273404,1,-5,-2,-4,-2,-1,-3,12
20:39:10:274293,1,-5,-2,-4,-2,-1,-3,12
20:39:10:280298,-2,2,2,10,-7,-5,2,-5
20:39:10:287786,5,-10,-2,-1,-3,-1,-4,-8
20:39:10:295295,5,-10,-2,-1,-3,-1,-4,-8
20:39:10:302790,3,16,-8,-6,-3,-3,-16,-52
20:39:10:310279,-12,8,0,-12,-4,-2,-3,-20
20:39:10:318561,-12,8,0,-12,-4,-2,-3,-20
20:39:10:319285,-5,-14,-9,10,4,1,1,32
20:39:10:333424,5,-9,-9,-4,-5,-2,2,25
20:39:10:334325,5,-9,-9,-4,-5,-2,2,25
20:39:10:340277,-7,14,11,-6,0,-1,0,10
20:39:10:347822,5,-10,-5,3,-1,2,6,1
20:39:10:355321,5,-10,-5,3,-1,2,6,1
20:39:10:370933,-5,-8,5,-15,-1,-3,-4,6
20:39:10:371679,4,12,23,24,4,-1,1,8
20:39:10:378550,4,12,23,24,4,-1,1,8
20:39:10:379288,12,0,-5,8,2,2,3,-10
20:39:10:393430,-2,-7,-8,-15,-2,-2,-1,-15
20:39:10:394271,-2,-7,-8,-15,-2,-2,-1,-15
20:39:10:400350,16,1,-10,13,10,1,0,14
20:39:10:407794,1,9,4,16,7,1,9,18
20:39:10:415301,1,9,4,16,7,1,9,18
20:39:10:422785,-18,-2,10,-17,-7,-6,-6,7
20:39:10:430309,-6,9,-9,-7,3,1,-4,-30
20:39:10:438531,-6,9,-9,-7,3,1,-4,-30
20:39:10:439276,9,1,3,5,-2,-1,4,1
20:39:10:453421,3,-15,-36,-5,-10,-4,-2,4
20:39:10:454275,3,-15,-36,-5,-10,-4,-2,4
20:39:10:460276,-7,-7,-8,26,-8,-4,-5,-24
20:39:10:467840,-2,-5,1,-8,-2,-4,-14,-51
20:39:10:483435,-2,-5,1,-8,-2,-4,-14,-51
20:39:10:484293,-28,-5,3,15,2,0,-10,-22
20:39:10:490305,23,17,12,-1,1,-1,0,14
20:39:10:498544,23,17,12,-1,1,-1,0,14
20:39:10:499297,6,6,4,-13,-10,-4,-4,7
20:39:10:513442,-13,7,8,-5,-2,0,1,15
20:39:10:514300,-13,7,8,-5,-2,0,1,15
20:39:10:520291,-10,-2,-7,-17,4,5,3,3
20:39:10:527792,-6,-9,-4,-11,-7,-2,0,-7
20:39:10:535301,-6,-9,-4,-11,-7,-2,0,-7
20:39:10:542782,-6,-1,-5,4,-3,0,12,17
20:39:10:550324,2,-2,10,4,3,1,-1,8
20:39:10:557803,2,-2,10,4,3,1,-1,8
20:39:10:565341,0,3,-13,-27,-5,-2,-2,-28
20:39:10:573559,-3,-20,-14,-27,0,-5,-11,-58
20:39:10:574324,-3,-20,-14,-27,0,-5,-11,-58
20:39:10:580296,-5,-16,7,2,4,1,4,16
20:39:10:595919,-8,4,3,-4,-1,-2,-1,11
20:39:10:596789,-8,4,3,-4,-1,-2,-1,11
20:39:10:602794,8,11,0,4,-1,-3,-9,14
20:39:10:610281,-5,12,-7,12,-2,-1,-2,14
20:39:10:617861,-5,12,-7,12,-2,-1,-2,14
20:39:10:625332,15,7,-4,11,-3,0,-1,20
20:39:10:633405,-5,-17,5,-8,-1,-3,-2,5
20:39:10:634271,-5,-17,5,-8,-1,-3,-2,5
20:39:10:640293,17,21,16,7,2,2,13,5
20:39:10:656091,-2,-11,5,8,-7,-3,3,13
20:39:10:656819,-2,-11,5,8,-7,-3,3,13
20:39:10:662810,6,-11,-5,-5,-2,-3,0,12
20:39:10:670293,-15,11,5,9,4,1,-1,11
20:39:10:677803,-15,11,5,9,4,1,-1,11
20:39:10:685310,-5,-9,-16,-6,-5,-5,-3,-6
20:39:10:693408,-2,14,0,-4,1,-1,-7,-17
20:39:10:694318,-2,14,0,-4,1,-1,-7,-17
20:39:10:700331,-9,-4,2,4,4,0,0,0
20:39:10:715906,7,-3,-2,7,2,2,12,20
20:39:10:716838,7,-3,-2,7,2,2,12,20
20:39:10:722834,-1,9,-1,-12,-7,-3,-9,-39
20:39:10:730338,0,-12,-6,1,1,1,0,-3
20:39:10:737828,0,-12,-6,1,1,1,0,-3
20:39:10:745326,-8,1,1,0,-2,3,7,7
20:39:10:753415,11,10,8,-2,-2,-1,1,18
20:39:10:754300,11,10,8,-2,-2,-1,1,18
20:39:10:760292,1,-9,8,0,-4,-2,-5,-4
20:39:10:775932,10,2,-3,-10,-10,0,-5,-21
20:39:10:776804,10,2,-3,-10,-10,0,-5,-21
20:39:10:782821,-9,-12,-5,2,1,-2,-1,1
20:39:10:790307,2,-28,-19,-2,-1,-5,-1,13
20:39:10:797815,2,-28,-19,-2,-1,-5,-1,13
20:39:10:805311,-5,3,1,2,3,0,-11,-10
20:39:10:813425,5,-1,6,-15,7,2,2,12
20:39:10:814282,5,-1,6,-15,7,2,2,12
20:39:10:827813,-15,-4,3,-5,0,1,4,14
20:39:10:835943,-11,-7,-13,-12,-6,-3,-9,-17
20:39:10:836774,-11,-7,-13,-12,-6,-3,-9,-17
20:39:10:842779,9,-2,-6,-4,-4,-3,-1,-10
20:39:10:850313,-5,-1,1,5,-6,-3,2,-19
20:39:10:857790,-5,-1,1,5,-6,-3,2,-19
20:39:10:865354,5,3,-24,-27,-8,-3,-12,-1
20:39:10:873544,7,1,4,-5,5,0,-1,-13
20:39:10:874290,7,1,4,-5,5,0,-1,-13
20:39:10:880333,3,10,12,1,1,2,5,4
20:39:10:896049,-9,-4,8,-6,-1,2,-1,1
20:39:10:896776,-9,-4,8,-6,-1,2,-1,1
20:39:10:902792,14,-12,2,-2,0,-3,0,-12
20:39:10:910306,1,-10,-7,19,-5,-4,-2,0
20:39:10:917840,1,-10,-7,19,-5,-4,-2,0
20:39:10:925300,-5,-5,-5,4,3,1,5,7
20:39:10:941679,-5,4,-4,18,-4,-2,-1,-3
20:39:10:942399,-5,4,-4,18,-4,-2,-1,-3
20:39:10:943270,-17,3,2,5,-4,0,1,1
20:39:10:955914,-13,7,11,2,2,0,-6,-8
20:39:10:956785,-13,7,11,2,2,0,-6,-8
20:39:10:962774,-1,4,6,-2,-2,-2,3,-5
20:39:10:970286,6,26,7,-4,-5,-2,1,-13
20:39:10:977797,6,26,7,-4,-5,-2,1,-13
20:39:10:985300,3,-10,-11,0,-1,1,-2,-1
20:39:10:993550,2,-3,-5,-2,3,0,-2,4
20:39:10:994277,2,-3,-5,-2,3,0,-2,4
20:39:11:357,-3,5,-5,1,0,-2,2,3
20:39:11:16068,-13,-3,-1,4,-3,-4,-11,-1
20:39:11:16788,-13,-3,-1,4,-3,-4,-11,-1
20:39:11:22821,4,4,1,-18,-2,-1,3,3
20:39:11:30306,-11,-7,-9,-3,0,2,1,-8
20:39:11:37807,-11,-7,-9,-3,0,2,1,-8
20:39:11:45299,8,12,14,-10,-4,-2,-1,2
20:39:11:53405,-3,1,-12,2,-3,-4,-1,-9
20:39:11:54290,-3,1,-12,2,-3,-4,-1,-9
20:39:11:60300,-1,7,10,2,0,0,-2,-7
20:39:11:75925,-1,-15,-12,5,7,2,0,-1
20:39:11:76784,-1,-15,-12,5,7,2,0,-1
20:39:11:82817,-29,-7,3,0,0,-6,-5,3
20:39:11:90296,-1,-2,-9,-6,-1,-5,-2,12
20:39:11:97871,-1,-2,-9,-6,-1,-5,-2,12
20:39:11:105305,8,7,-6,-4,-5,-1,1,2
20:39:11:113443,15,4,10,-16,-1,1,3,5
20:39:11:114291,15,4,10,-16,-1,1,3,5
20:39:11:120286,11,0,4,7,-1,-2,-6,-21
20:39:11:135930,4,2,-1,1,1,2,5,8
20:39:11:136792,4,2,-1,1,1,2,5,8
20:39:11:142802,8,-1,-5,0,7,3,1,8
20:39:11:150305,0,15,9,-12,3,0,1,10
20:39:11:166052,0,15,9,-12,3,0,1,10
20:39:11:166790,10,-12,2,15,-3,-1,2,28
20:39:11:173430,14,13,2,6,0,-1,-3,-3
20:39:11:174288,14,13,2,6,0,-1,-3,-3
20:39:11:180299,5,2,-2,-11,-3,0,-4,-10
20:39:11:195934,-7,-8,-18,-5,-5,-3,-4,-19
20:39:11:196797,-7,-8,-18,-5,-5,-3,-4,-19
20:39:11:202797,-2,-1,-4,13,4,0,5,32
20:39:11:210293,-7,2,0,2,-2,-1,-3,2
20:39:11:217809,-7,2,0,2,-2,-1,-3,2
20:39:11:225309,-7,-4,-2,3,-1,-1,1,-15
20:39:11:233460,-4,-4,9,-11,-8,-2,0,-1
20:39:11:234320,-4,-4,9,-11,-8,-2,0,-1
20:39:11:240308,5,-1,4,9,3,3,-3,-4
20:39:11:255926,9,1,8,4,-4,-2,3,1
20:39:11:256788,9,1,8,4,-4,-2,3,1
20:39:11:262797,-2,0,2,-7,-2,-1,-2,-10
20:39:11:270286,-3,-4,11,12,-1,1,1,21
20:39:11:277799,-3,-4,11,12,-1,1,1,21
20:39:11:285337,16,-4,-12,0,-2,-3,-10,-17
20:39:11:293409,1,-1,0,0,3,-1,2,-8
20:39:11:294293,1,-1,0,0,3,-1,2,-8
20:39:11:300327,-9,0,-5,-6,-4,-2,0,9
20:39:11:315965,-16,-7,-10,-3,0,-1,-4,-8
20:39:11:316796,-16,-7,-10,-3,0,-1,-4,-8
20:39:11:322790,-1,0,-1,1,1,1,3,0
20:39:11:330325,-8,5,4,5,1,2,1,2
20:39:11:337787,-8,5,4,5,1,2,1,2
20:39:11:354194,-5,4,3,-1,0,-3,-5,-16
20:39:11:354939,3,2,8,-7,-1,0,2,-3
20:39:11:355801,3,2,8,-7,-1,0,2,-3
20:39:11:360294,-8,-3,4,0,0,2,-2,-5
20:39:11:375921,3,-3,4,14,0,-3,-2,-7
20:39:11:376847,3,-3,4,14,0,-3,-2,-7
20:39:11:382793,1,-5,-2,8,-5,-3,-1,-18
20:39:11:390323,1,-3,-8,5,-1,-2,-4,18
20:39:11:397848,1,-3,-8,5,-1,-2,-4,18
20:39:11:405321,-2,5,-8,-6,5,1,-3,-17
20:39:11:413570,7,-8,-6,-15,-2,-3,3,-4
20:39:11:414288,7,-8,-6,-15,-2,-3,3,-4
20:39:11:420310,4,-3,-6,0,0,-1,4,21
20:39:11:435935,0,11,0,-10,-8,-2,-4,-8
20:39:11:436791,0,11,0,-10,-8,-2,-4,-8
20:39:11:442794,-5,-3,2,-7,0,-1,-5,-1
20:39:11:450333,18,-9,-2,1,-1,2,3,0
20:39:11:465940,18,-9,-2,1,-1,2,3,0
20:39:11:466803,-8,-8,2,-2,-4,-4,2,23
20:39:11:473429,-20,-2,-1,-6,3,3,-1,2
20:39:11:474279,-20,-2,-1,-6,3,3,-1,2
20:39:11:480294,-3,-15,-1,2,-3,-3,-10,-25
20:39:11:495924,3,-5,0,-8,1,-1,-2,-16
20:39:11:496838,3,-5,0,-8,1,-1,-2,-16
20:39:11:502811,-16,0,2,1,1,-1,2,-2
20:39:11:518431,-4,-9,-9,0,-3,-5,-7,-24
20:39:11:519302,-4,-9,-9,0,-3,-5,-7,-24
20:39:11:525375,1,0,-6,-11,-3,1,1,-18
20:39:11:533470,-1,0,-7,-1,0,2,0,12
20:39:11:534365,-1,0,-7,-1,0,2,0,12
20:39:11:547851,-1,-3,-20,-1,1,-1,-1,9
20:39:11:555925,3,6,-2,-2,-3,-2,-5,10
20:39:11:556822,3,6,-2,-2,-3,-2,-5,10
20:39:11:562808,9,8,3,-1,-3,2,0,-4
20:39:11:578933,-4,-11,0,3,-1,-2,0,-4
20:39:11:579802,-4,-11,0,3,-1,-2,0,-4
20:39:11:585346,-1,-10,1,-3,2,1,-3,-20
20:39:11:593448,9,-5,-15,2,-1,-2,5,17
20:39:11:594320,9,-5,-15,2,-1,-2,5,17
20:39:11:607810,-16,10,1,-5,0,-2,-7,-29
20:39:11:615918,-2,1,9,7,4,0,7,32
20:39:11:616789,-2,1,9,7,4,0,7,32
20:39:11:622818,-3,1,4,-1,-5,-2,1,29
20:39:11:638445,-7,1,3,-2,-3,0,1,-7
20:39:11:639297,-7,1,3,-2,-3,0,1,-7
20:39:11:645291,-11,-1,3,3,-3,-4,0,-7
20:39:11:653440,-3,-10,-6,1,2,-2,1,17
20:39:11:654297,-3,-10,-6,1,2,-2,1,17
20:39:11:667827,-6,-1,-6,4,1,0,-4,-16
20:39:11:675925,1,8,0,-9,-4,-3,-5,-22
20:39:11:676795,1,8,0,-9,-4,-3,-5,-22
20:39:11:690334,1,7,2,5,0,-2,3,41
20:39:11:698605,4,-2,1,0,-1,1,-1,-1
20:39:11:699328,4,-2,1,0,-1,1,-1,-1
20:39:11:705309,7,7,6,12,-3,2,-1,18
20:39:11:720945,-1,6,10,-5,0,-3,-8,-19
20:39:11:721813,-1,6,10,-5,0,-3,-8,-19
20:39:11:727806,18,1,7,-2,-2,1,6,-6
20:39:11:744171,-5,17,-8,0,0,0,0,27
20:39:11:744917,-5,17,-8,0,0,0,0,27
20:39:11:745806,-4,-8,-6,-4,-3,-2,0,-8
20:39:11:766704,0,1,1,11,-2,0,2,4
20:39:11:767440,0,1,1,11,-2,0,2,4
20:39:11:768297,-5,-13,-2,-6,-4,-2,-2,-18
20:39:11:773170,-10,-10,-5,0,-4,-3,-5,-16
20:39:11:780321,-10,-10,-5,0,-4,-3,-5,-16
20:39:11:787818,1,-8,-9,-7,1,3,0,-33
20:39:11:795940,-3,1,5,2,-1,2,2,-22
20:39:11:796807,-3,1,5,2,-1,2,2,-22
20:39:11:802825,-2,2,-4,-10,1,-1,-5,-1
20:39:11:818434,0,-4,-2,-6,0,0,3,-4
20:39:11:819303,0,-4,-2,-6,0,0,3,-4
20:39:11:825298,-7,-10,0,11,-2,-2,0,14
20:39:11:833450,-7,-7,0,-1,-4,-2,0,25
20:39:11:834310,-7,-7,0,-1,-4,-2,0,25
20:39:11:856688,4,-1,2,-3,1,-3,1,-1
20:39:11:857411,7,2,3,-4,-1,1,0,12
20:39:11:858163,7,2,3,-4,-1,1,0,12
20:39:11:862820,-9,-7,-2,8,4,3,2,14
20:39:11:878495,-10,0,-3,1,-1,-2,-8,-26
20:39:11:879305,-10,0,-3,1,-1,-2,-8,-26
20:39:11:885343,-14,-1,-7,-8,-2,-4,0,9
20:39:11:893550,10,2,-2,2,-1,1,2,9
20:39:11:894294,10,2,-2,2,-1,1,2,9
20:39:11:908181,15,-2,15,5,-2,-2,-3,-1
20:39:11:916095,-1,-16,-5,-17,0,-1,-5,-20
20:39:11:916793,-1,-16,-5,-17,0,-1,-5,-20
20:39:11:922805,14,5,-5,-11,-1,-1,1,19
20:39:11:938443,-18,0,-3,2,5,3,7,0
20:39:11:939309,-18,0,-3,2,5,3,7,0
20:39:11:945295,3,5,2,-4,-4,1,2,8
20:39:11:961666,4,-10,-10,-5,3,0,-3,-10
20:39:11:962402,4,-10,-10,-5,3,0,-3,-10
20:39:11:967811,0,-2,2,3,-1,-2,-10,-49
20:39:11:975915,-9,-8,-4,-2,-3,-1,-4,-5
20:39:11:976785,-9,-8,-4,-2,-3,-1,-4,-5
20:39:11:982816,16,22,6,-2,0,1,6,52
20:39:11:998604,16,22,6,-2,0,1,6,52
20:39:11:999329,7,10,1,3,-2,-3,-3,-3
20:39:12:12853,-8,-4,-4,-5,1,0,3,-8
20:39:12:20931,-8,-4,-4,-5,1,0,3,-8
20:39:12:21803,-2,-9,-19,1,0,-4,-2,8
20:39:12:27793,-9,-17,-13,-1,-4,-1,-3,-10
20:39:12:36040,-9,-17,-13,-1,-4,-1,-3,-10
20:39:12:36790,4,2,2,14,-4,-4,-7,-5
20:39:12:42809,6,12,6,16,4,3,6,10
20:39:12:58936,6,12,6,16,4,3,6,10
20:39:12:65947,-19,-7,0,-2,-3,0,-2,-34
20:39:12:66683,2,-6,-2,-10,-3,-3,0,-13
20:39:12:80948,2,-6,-2,-10,-3,-3,0,-13
20:39:12:81828,22,-4,0,-1,2,3,13,41
20:39:12:87819,3,2,-6,-2,-5,-2,-7,-31
20:39:12:95933,3,2,-6,-2,-5,-2,-7,-31
20:39:12:96806,-1,7,2,-6,1,-2,-1,9
20:39:12:102799,1,0,-6,3,-1,-3,-1,22
20:39:12:126695,1,0,-6,3,-1,-3,-1,22
20:39:12:127437,-3,12,6,2,-5,0,-1,-8
20:39:12:128309,-4,6,1,0,6,1,-2,-14
20:39:12:141040,-4,6,1,0,6,1,-2,-14
20:39:12:141792,5,-4,5,-1,-3,-3,-6,-23
20:39:12:147830,1,-7,3,0,-5,-4,-4,-6
20:39:12:155912,1,-7,3,0,-5,-4,-4,-6
20:39:12:156794,-17,6,0,-10,-4,-3,-9,-12
20:39:12:162829,-9,-4,-4,12,7,1,-7,-11
20:39:12:178592,-9,-4,-4,12,7,1,-7,-11
20:39:12:179302,-3,-10,-6,-1,-2,-4,0,-6
20:39:12:185324,-9,-14,-7,-3,-5,-4,-3,4
20:39:12:201059,-9,-14,-7,-3,-5,-4,-3,4
20:39:12:201794,3,6,2,3,5,1,8,35
20:39:12:207819,-4,10,-2,-5,-3,-3,-9,-23
20:39:12:215829,-4,10,-2,-5,-3,-3,-9,-23
20:39:12:223447,-1,13,9,-1,1,2,-2,-9
20:39:12:224290,-7,-8,-3,-14,-4,-4,-4,9
20:39:12:238551,-7,-8,-3,-14,-4,-4,-4,9
20:39:12:239288,1,13,-14,-10,3,1,0,2
20:39:12:245316,15,1,-1,3,3,2,6,15
20:39:12:261068,15,1,-1,3,3,2,6,15
20:39:12:261818,-7,-1,-7,3,0,-3,-7,-35
20:39:12:267836,0,-5,-3,0,0,0,6,-8
20:39:12:276046,0,-5,-3,0,0,0,6,-8
20:39:12:276815,12,-2,4,0,-3,0,2,12
20:39:12:282812,-7,1,-3,1,0,2,2,-1
20:39:12:298587,-7,1,-3,1,0,2,2,-1
20:39:12:299324,-9,-5,0,1,0,-1,-8,-34
20:39:12:305324,-6,0,3,-12,-2,-4,-8,-5
20:39:12:320932,-6,0,3,-12,-2,-4,-8,-5
20:39:12:321811,6,-4,0,1,0,0,-6,-14
20:39:12:327806,-10,-2,5,-5,-1,2,6,7
20:39:12:336050,-10,-2,5,-5,-1,2,6,7
20:39:12:336806,16,-22,-3,-5,-1,-1,-4,-8
20:39:12:342805,-18,3,7,16,3,-4,-8,-50
20:39:12:358441,-18,3,7,16,3,-4,-8,-50
20:39:12:359290,8,-3,4,-4,-5,-2,5,30
20:39:12:365343,7,1,0,-3,-2,1,1,35
20:39:12:380960,7,1,0,-3,-2,1,1,35
20:39:12:381814,0,-1,6,2,-2,-1,0,2
20:39:12:387812,13,5,-4,3,-3,-5,2,15
20:39:12:395964,13,5,-4,3,-3,-5,2,15
20:39:12:396818,-7,-9,-4,8,5,-1,-1,6
20:39:12:402803,8,-3,0,-24,-6,1,5,-21
20:39:12:418437,8,-3,0,-24,-6,1,5,-21
20:39:12:419322,-2,8,-1,-6,-4,-3,-3,4
20:39:12:425303,0,0,1,6,1,-1,-5,-2
20:39:12:440928,0,0,1,6,1,-1,-5,-2
20:39:12:441787,-24,-17,-11,4,1,-1,-1,1
20:39:12:447809,-3,-4,-11,-3,-2,-1,-1,-7
20:39:12:455927,-3,-4,-11,-3,-2,-1,-1,-7
20:39:12:456806,-7,7,1,8,0,3,8,16
20:39:12:470316,5,-1,-1,0,-3,0,3,21
20:39:12:478443,5,-1,-1,0,-3,0,3,21
20:39:12:479320,9,9,5,-14,1,0,0,5
20:39:12:485341,-14,-4,5,5,0,-1,-2,-1
20:39:12:500949,-14,-4,5,5,0,-1,-2,-1
20:39:12:501835,7,9,13,-4,-2,-3,2,25
20:39:12:507811,-2,-7,-5,-10,3,-1,-9,3
20:39:12:515984,-2,-7,-5,-10,3,-1,-9,3
20:39:12:516816,1,0,-2,-10,-1,-3,-6,10
20:39:12:530313,4,-6,-2,12,2,2,7,8
20:39:12:538430,4,-6,-2,12,2,2,7,8
20:39:12:539304,5,6,-3,6,-7,-4,-7,-11
20:39:12:545324,-1,12,2,7,-3,-1,-6,0
20:39:12:561063,-1,12,2,7,-3,-1,-6,0
20:39:12:561788,-5,2,2,5,2,0,3,11
20:39:12:567831,6,0,8,0,-4,-3,0,7
20:39:12:575921,6,0,8,0,-4,-3,0,7
20:39:12:576826,2,-15,5,0,1,2,-3,-4
20:39:12:590315,-11,9,-7,-24,-5,-4,-1,-24
20:39:12:598593,-11,9,-7,-24,-5,-4,-1,-24
20:39:12:599334,-5,-15,-11,-9,-6,-5,-4,-9
20:39:12:605313,3,-9,4,-3,2,2,-3,-25
20:39:12:612832,3,-9,4,-3,2,2,-3,-25
20:39:12:620315,-28,1,-14,1,-6,-3,-2,-22
20:39:12:627827,4,-17,-13,-7,-2,-2,-3,13
20:39:12:635951,4,-17,-13,-7,-2,-2,-3,13
20:39:12:636795,12,8,0,-7,1,2,4,11
20:39:12:650328,-5,5,-4,7,-5,0,1,13
20:39:12:658443,-5,5,-4,7,-5,0,1,13
20:39:12:659323,0,3,-14,-8,-2,-4,2,4
20:39:12:665334,-10,8,-1,6,2,2,0,-18
20:39:12:672818,-10,8,-1,6,2,2,0,-18
20:39:12:680297,-7,-5,3,8,-5,-4,-10,-16
20:39:12:687819,3,21,4,7,0,2,10,23
20:39:12:695946,3,21,4,7,0,2,10,23
20:39:12:696801,1,-20,-2,-3,3,2,-2,-9
20:39:12:710312,-4,-6,1,-11,-1,-3,0,15
20:39:12:718455,-4,-6,1,-11,-1,-3,0,15
20:39:12:719313,5,-4,-28,-3,1,2,2,-4
20:39:12:725302,5,-11,-12,-1,0,0,-3,8
20:39:12:732851,5,-11,-12,-1,0,0,-3,8
20:39:12:740322,-7,-1,-7,8,1,0,-4,-30
20:39:12:747818,-10,-10,-2,-2,1,-3,-4,-29
20:39:12:756061,-10,-10,-2,-2,1,-3,-4,-29
20:39:12:756816,0,8,21,3,-2,-2,3,11
20:39:12:770328,-5,-6,3,-4,-5,-3,-1,-16
20:39:12:778436,-5,-6,3,-4,-5,-3,-1,-16
20:39:12:779300,-2,13,-9,-2,-3,-2,0,6
20:39:12:785321,0,3,-6,-7,-2,1,3,5
20:39:12:792788,0,3,-6,-7,-2,1,3,5
20:39:12:800331,-2,5,18,4,0,0,-3,2
20:39:12:807810,14,6,-7,4,-1,-2,-7,-42
20:39:12:816082,14,6,-7,4,-1,-2,-7,-42
20:39:12:816801,0,-7,4,-3,-1,-2,-6,9
20:39:12:830317,3,-11,-2,0,-1,0,1,7
20:39:12:838575,3,-11,-2,0,-1,0,1,7
20:39:12:839314,-6,2,-5,-1,-2,-2,-1,-16
20:39:12:845319,-17,-26,-3,0,0,-1,0,7
20:39:12:861069,-17,-26,-3,0,0,-1,0,7
20:39:12:861803,-1,-2,1,4,0,-1,0,4
20:39:12:867824,1,9,-5,-2,-2,-1,0,8
20:39:12:876047,1,9,-5,-2,-2,-1,0,8
20:39:12:876805,-9,-1,5,-5,-1,-3,-1,14
20:39:12:890340,-9,-1,-12,-2,-2,-3,-10,-5
20:39:12:898659,-9,-1,-12,-2,-2,-3,-10,-5
20:39:12:899303,19,7,-2,0,-3,-3,3,5
20:39:12:913450,4,4,-5,1,2,1,8,49
20:39:12:914350,4,4,-5,1,2,1,8,49
20:39:12:920319,3,-6,3,4,1,-1,-4,-1
20:39:12:927794,1,-10,10,2,3,0,1,-6
20:39:12:936060,1,-10,10,2,3,0,1,-6
20:39:12:936803,4,3,1,-3,-2,1,3,3
20:39:12:950377,3,-2,6,3,1,-3,-12,-39
20:39:12:959182,3,-2,6,3,1,-3,-12,-39
20:39:12:959942,-6,-3,-1,-2,-3,-2,-4,8
20:39:12:973450,4,25,6,-2,-3,0,1,17
20:39:12:974315,4,25,6,-2,-3,0,1,17
20:39:12:980339,6,5,-5,-4,-2,-3,0,-25
20:39:12:987810,2,-10,-4,-10,-2,-2,8,14
20:39:12:996058,2,-10,-4,-10,-2,-2,8,14
20:39:12:996830,-2,7,10,-2,-1,1,-1,1
20:39:13:10309,4,8,10,0,-2,-1,-4,-18
20:39:13:19702,4,8,10,0,-2,-1,-4,-18
20:39:13:25957,-2,-6,-1,-12,0,0,3,11
20:39:13:26674,-23,-9,-3,6,2,1,-1,16
20:39:13:32799,-23,-9,-3,6,2,1,-1,16
20:39:13:40305,3,11,2,0,2,1,0,-16
20:39:13:47849,-4,4,1,3,1,-3,-2,11
20:39:13:56064,-4,4,1,3,1,-3,-2,11
20:39:13:56799,8,-18,-13,3,0,0,-1,-5
20:39:13:70326,2,-3,2,-4,-3,0,0,-19
20:39:13:86718,2,-3,2,-4,-3,0,0,-19
20:39:13:87457,-7,-5,-4,-1,-4,-1,-2,-2
20:39:13:88310,5,9,-6,-4,-3,0,5,29
20:39:13:92800,5,9,-6,-4,-3,0,5,29
20:39:13:108451,4,-3,3,-1,0,0,1,8
20:39:13:109173,-4,9,7,-9,-3,-2,-6,-8
20:39:13:115954,-4,9,7,-9,-3,-2,-6,-8
20:39:13:116844,-1,0,1,4,-1,-1,-5,-13
20:39:13:139111,-10,-7,-17,-6,-8,-5,-4,7
20:39:13:139953,-10,-7,-17,-6,-8,-5,-4,7
20:39:13:140828,-3,4,2,1,-3,-1,4,16
20:39:13:145356,17,3,-2,11,2,-1,3,10
20:39:13:152821,17,3,-2,11,2,-1,3,10
20:39:13:160309,-24,-9,-6,0,-2,1,-3,-5
20:39:13:167865,-3,0,9,-3,-2,-1,1,-7
20:39:13:175940,-3,0,9,-3,-2,-1,1,-7
20:39:13:176805,4,-8,-9,-3,-5,-4,0,2
20:39:13:190322,-12,4,5,-8,2,-1,-2,-8
20:39:13:198466,-12,4,5,-8,2,-1,-2,-8
20:39:13:199314,-2,6,1,1,-2,-2,-3,-25
20:39:13:205310,6,4,-2,-3,4,1,3,10
20:39:13:212826,6,4,-2,-3,4,1,3,10
20:39:13:220321,-11,-3,-4,3,1,0,1,18
20:39:13:227829,3,2,-4,3,-2,-2,-5,-4
20:39:13:235992,3,2,-4,3,-2,-2,-5,-4
20:39:13:236823,12,4,4,-1,5,3,1,-13
20:39:13:250319,-9,-11,-1,3,-3,-2,-5,10
20:39:13:258447,-9,-11,-1,3,-3,-2,-5,10
20:39:13:259330,5,14,9,-3,0,0,4,19
20:39:13:265322,-3,2,-13,-10,-3,-1,-3,-15
20:39:13:272830,-3,2,-13,-10,-3,-1,-3,-15
20:39:13:280326,5,-8,5,1,0,-2,-9,-18
20:39:13:287838,4,5,-3,0,-2,1,3,12
20:39:13:296072,4,5,-3,0,-2,1,3,12
20:39:13:296833,-12,-13,-17,-8,-2,-5,-5,-26
20:39:13:310326,-2,-9,6,4,-2,-1,-1,-16
20:39:13:318571,-2,-9,6,4,-2,-1,-1,-16
20:39:13:319326,9,1,6,1,0,-1,0,-2
20:39:13:325314,4,7,-1,3,1,1,0,5
20:39:13:332865,4,7,-1,3,1,1,0,5
20:39:13:340310,3,-6,-15,1,0,1,-3,10
20:39:13:347821,2,-2,1,-2,0,-2,-1,6
20:39:13:355925,2,-2,1,-2,0,-2,-1,6
20:39:13:356815,-2,7,20,-7,-1,-1,1,19
20:39:13:370320,-9,-12,2,10,1,-1,-6,-6
20:39:13:386708,-9,-12,2,10,1,-1,-6,-6
20:39:13:387442,-9,-5,-2,-1,-3,-2,-1,11
20:39:13:388319,18,-14,-2,-3,-2,-1,5,-3
20:39:13:392829,18,-14,-2,-3,-2,-1,5,-3
20:39:13:400329,-5,5,4,-3,-2,-2,-4,-29
20:39:13:407823,-3,-3,11,-4,-3,-3,-5,-9
20:39:13:415351,-3,-3,11,-4,-3,-3,-5,-9
20:39:13:422801,1,2,2,-1,-2,-2,0,7
20:39:13:430331,1,-1,-3,8,-2,-5,-1,-2
20:39:13:438458,1,-1,-3,8,-2,-5,-1,-2
20:39:13:439315,5,5,-3,6,-1,0,1,8
20:39:13:453444,2,1,-2,-1,-1,0,2,-7
20:39:13:454317,2,1,-2,-1,-1,0,2,-7
20:39:13:460324,4,-1,13,-3,-3,-1,2,10
20:39:13:467834,4,-3,11,-4,2,2,-5,-10
20:39:13:475314,4,-3,11,-4,2,2,-5,-10
20:39:13:482898,-5,-6,-16,-9,0,1,2,7
20:39:13:490352,-5,1,4,2,-2,-2,-5,-15
20:39:13:498447,-5,1,4,2,-2,-2,-5,-15
20:39:13:499356,4,-11,-3,1,-2,-2,1,-16
20:39:13:513475,-6,-5,-2,-2,-2,-2,-3,-3
20:39:13:514347,-6,-5,-2,-2,-2,-2,-3,-3
20:39:13:520333,-15,6,-5,1,-1,-2,-2,11
20:39:13:527818,2,-1,-2,-2,-1,0,6,14
20:39:13:535319,2,-1,-2,-2,-1,0,6,14
20:39:13:542821,2,-9,-28,-6,-1,-2,-5,3
20:39:13:550235,-7,-14,-9,-3,3,1,-2,5
20:39:13:558422,-7,-14,-9,-3,3,1,-2,5
20:39:13:559297,1,15,16,6,2,1,1,-8
20:39:13:573473,2,6,-13,-2,0,1,8,23
20:39:13:574305,2,6,-13,-2,0,1,8,23
20:39:13:580322,-11,-18,3,3,-2,-1,-1,22
20:39:13:587896,-11,6,-4,-7,-2,-3,4,10
20:39:13:595332,-11,6,-4,-7,-2,-3,4,10
20:39:13:602852,-7,2,-6,-12,2,0,1,-17
20:39:13:610370,-1,-9,-9,5,-5,-1,-2,1
20:39:13:618484,-1,-9,-9,5,-5,-1,-2,1
20:39:13:619365,4,4,-3,-6,2,1,-2,-4
20:39:13:633460,2,-5,18,-3,-1,0,-2,4
20:39:13:634344,2,-5,18,-3,-1,0,-2,4
20:39:13:640320,4,-5,0,3,-5,-1,-2,-5
20:39:13:647829,1,-5,6,-3,0,1,2,3
20:39:13:663446,1,-5,6,-3,0,1,2,3
20:39:13:664302,-6,-1,1,-3,-1,-1,-1,-13
20:39:13:679099,-3,1,6,4,0,-2,-6,-29
20:39:13:679939,-3,1,6,4,0,-2,-6,-29
20:39:13:680815,3,2,-12,-8,-3,-3,-1,-6
20:39:13:693436,-4,-18,-4,-4,-5,-3,-2,15
20:39:13:694328,-4,-18,-4,-4,-5,-3,-2,15
20:39:13:700333,5,2,10,14,1,2,2,6
20:39:13:707799,2,-1,4,-7,1,-2,-7,-12
20:39:13:715400,2,-1,4,-7,1,-2,-7,-12
20:39:13:722892,2,1,-6,2,-3,-1,3,24
20:39:13:730213,0,4,2,2,-2,-3,-5,-20
20:39:13:738485,0,4,2,2,-2,-3,-5,-20
20:39:13:739326,3,-8,-12,5,-3,-2,1,11
20:39:13:753450,-5,9,-5,-17,-5,-2,-2,10
20:39:13:754314,-5,9,-5,-17,-5,-2,-2,10
20:39:13:760318,-1,10,-1,7,0,-3,-6,-23
20:39:13:767728,-2,6,-1,4,3,4,3,-17
20:39:13:775337,-2,6,-1,4,3,4,3,-17
20:39:13:782837,4,3,15,3,0,0,1,-7
20:39:13:790303,-3,0,-11,6,0,-3,-1,9
20:39:13:798488,-3,0,-11,6,0,-3,-1,9
20:39:13:799320,13,8,-1,1,1,0,2,-7
20:39:13:813464,1,-14,-15,-3,4,-1,-4,-19
20:39:13:814356,1,-14,-15,-3,4,-1,-4,-19
20:39:13:820322,-3,-5,8,-15,-5,-2,-5,2
20:39:13:827841,-9,22,7,3,-6,-2,0,-10
20:39:13:843458,-9,22,7,3,-6,-2,0,-10
20:39:13:844339,-4,5,2,-4,-4,0,1,1
20:39:13:850342,-2,-5,-9,-11,-3,-4,-13,-27
20:39:13:858449,-2,-5,-9,-11,-3,-4,-13,-27
20:39:13:859311,-2,-5,-9,-12,-3,-1,-2,0
20:39:13:873490,4,3,0,-5,-6,-4,0,12
20:39:13:874308,4,3,0,-5,-6,-4,0,12
20:39:13:880366,1,-13,-13,-5,-3,-3,-3,-42
20:39:13:887842,5,-6,-5,15,4,4,-3,-21
20:39:13:895320,5,-6,-5,15,4,4,-3,-21
20:39:13:902809,-12,-10,10,-2,5,1,3,21
20:39:13:910325,-4,18,7,7,4,1,2,1
20:39:13:918451,-4,18,7,7,4,1,2,1
20:39:13:919322,19,33,0,1,4,2,5,10
20:39:13:933470,0,-4,10,-11,-2,-1,2,4
20:39:13:934379,0,-4,10,-11,-2,-1,2,4
20:39:13:940332,-8,-8,-4,8,-1,-5,-4,29
20:39:13:955968,-4,-5,-10,-2,-8,-5,-4,-7
20:39:13:956826,-4,-5,-10,-2,-8,-5,-4,-7
20:39:13:962821,-3,-1,-3,4,-4,0,-6,-26
20:39:13:970323,0,-1,-10,4,-5,-3,-2,-19
20:39:13:978447,0,-1,-10,4,-5,-3,-2,-19
20:39:13:979337,-5,-3,-3,-30,-2,1,1,6
20:39:13:993194,-1,-12,0,3,2,-1,-8,-30
20:39:14:1011,-1,-12,0,3,2,-1,-8,-30
20:39:14:1832,-14,-10,2,10,-1,-1,-1,5
20:39:14:7817,5,5,6,-2,-2,-2,5,-1
20:39:14:15348,5,5,6,-2,-2,-2,5,-1
20:39:14:22824,0,13,-8,-5,-5,-4,-11,-6
20:39:14:30344,4,9,0,-14,-2,2,4,27
20:39:14:38567,4,9,0,-14,-2,2,4,27
20:39:14:39316,3,3,12,-11,-4,-2,-1,0
20:39:14:53470,-13,-6,2,9,3,0,0,-18
20:39:14:54330,-13,-6,2,9,3,0,0,-18
20:39:14:60320,-2,-3,12,5,-4,0,5,8
20:39:14:67878,-1,-14,0,2,-1,-1,2,1
20:39:14:75349,-1,-14,0,2,-1,-1,2,1
20:39:14:82836,-22,-11,1,10,-2,-3,-8,-18
20:39:14:90334,15,9,-11,-3,-4,0,4,38
20:39:14:98463,15,9,-11,-3,-4,0,4,38
20:39:14:99327,3,-15,-10,5,-3,0,1,-4
20:39:14:113964,0,6,-8,8,5,-2,2,11
20:39:14:121069,0,6,-8,8,5,-2,2,11
20:39:14:121834,7,-3,2,5,-3,-3,-2,14
20:39:14:127825,2,4,1,2,0,0,0,23
20:39:14:135330,2,4,1,2,0,0,0,23
20:39:14:142842,-6,-11,-4,3,1,-1,-5,3
20:39:14:150365,0,15,-19,10,-3,0,-4,6
20:39:14:158442,0,15,-19,10,-3,0,-4,6
20:39:14:159323,-8,-5,4,0,0,1,-1,-21
20:39:14:173445,-7,-4,7,0,-1,-1,5,12
20:39:14:174310,-7,-4,7,0,-1,-1,5,12
20:39:14:180322,5,3,-8,-6,-3,-4,0,4
20:39:14:187835,-4,-17,-6,-8,-2,-1,-10,-34
20:39:14:195383,-4,-17,-6,-8,-2,-1,-10,-34
20:39:14:202712,7,6,-2,-7,-1,-2,-2,1
20:39:14:210220,-5,-4,14,-22,3,0,-1,1
20:39:14:218460,-5,-4,14,-22,3,0,-1,1
20:39:14:219334,1,-5,1,-4,-4,0,-1,-27
20:39:14:233498,-10,-20,-28,9,-3,-2,-5,-13
20:39:14:234319,-10,-20,-28,9,-3,-2,-5,-13
20:39:14:240201,-3,12,8,-10,7,3,1,15
20:39:14:247715,-12,-8,3,-4,1,1,-3,-9
20:39:14:255333,-12,-8,3,-4,1,1,-3,-9
20:39:14:262815,2,5,-13,6,-2,1,1,7
20:39:14:270322,5,-2,5,-1,-5,-2,-2,-4
20:39:14:278470,5,-2,5,-1,-5,-2,-2,-4
20:39:14:279341,2,-3,-1,-1,2,-1,-1,4
20:39:14:292719,17,0,-1,-4,-3,-2,2,-12
20:39:14:300990,17,0,-1,-4,-3,-2,2,-12
20:39:14:301823,-4,-14,-3,2,0,-2,-3,-16
20:39:14:307803,2,-6,-3,-5,-4,-2,1,15
20:39:14:315315,2,-6,-3,-5,-4,-2,1,15
20:39:14:322855,-1,4,8,2,1,-1,4,4
20:39:14:330347,7,22,0,10,5,-1,-5,5
20:39:14:338593,7,22,0,10,5,-1,-5,5
20:39:14:339313,2,-14,-19,-25,-5,1,0,5
20:39:14:353463,-6,-26,-9,-12,-1,-2,2,7
20:39:14:354332,-6,-26,-9,-12,-1,-2,2,7
20:39:14:360307,0,-6,-22,10,5,1,0,-9
20:39:14:375944,-5,-10,-4,-1,-4,-4,-2,6
20:39:14:376819,-5,-10,-4,-1,-4,-4,-2,6
20:39:14:382831,-13,-3,8,-13,-3,-3,-5,-16
20:39:14:390316,3,12,7,-4,0,1,6,17
20:39:14:397845,3,12,7,-4,0,1,6,17
20:39:14:405322,0,26,7,8,3,1,1,11
20:39:14:413487,4,5,1,4,-6,0,3,12
20:39:14:414341,4,5,1,4,-6,0,3,12
20:39:14:420330,-8,-17,10,4,2,-1,-1,-3
20:39:14:435996,0,1,-5,-7,-3,2,0,-2
20:39:14:436816,0,1,-5,-7,-3,2,0,-2
20:39:14:442843,7,10,2,-5,-1,-1,0,37
20:39:14:450373,-5,15,18,5,-1,-1,-1,-14
20:39:14:457828,-5,15,18,5,-1,-1,-1,-14
20:39:14:465386,2,-16,3,-1,-1,4,0,-10
20:39:14:473458,-13,-5,-2,7,10,1,1,-5
20:39:14:474323,-13,-5,-2,7,10,1,1,-5
20:39:14:480368,-2,-2,-7,0,-4,-3,-3,4
20:39:14:496000,8,6,14,2,-4,-1,-3,-2
20:39:14:496833,8,6,14,2,-4,-1,-3,-2
20:39:14:502832,0,12,-7,-8,-1,-2,5,35
20:39:14:510340,5,0,13,3,-3,-4,-3,12
20:39:14:517881,5,0,13,3,-3,-4,-3,12
20:39:14:525307,8,4,2,-3,-4,-4,-4,-28
20:39:14:533473,-2,-15,-4,14,8,5,1,-6
20:39:14:534324,-2,-15,-4,14,8,5,1,-6
20:39:14:540208,6,0,8,9,1,0,4,-13
20:39:14:555949,-9,-21,-11,-4,-2,-3,-3,-11
20:39:14:556818,-9,-21,-11,-4,-2,-3,-3,-11
20:39:14:562833,-11,12,-28,-19,4,1,-5,-57
20:39:14:570358,22,2,3,-2,-3,0,-1,-12
20:39:14:577823,22,2,3,-2,-3,0,-1,-12
20:39:14:585197,1,-13,-19,0,-6,-5,0,-4
20:39:14:593493,-5,2,-20,4,-5,-4,0,-11
20:39:14:594340,-5,2,-20,4,-5,-4,0,-11
20:39:14:600351,-4,-12,5,17,2,-2,-7,11
20:39:14:615978,-4,7,4,6,-3,-5,0,9
20:39:14:616821,-4,7,4,6,-3,-5,0,9
20:39:14:622731,-3,-9,-2,-6,-3,-2,0,3
20:39:14:630228,-9,1,-4,-14,-2,-2,-3,3
20:39:14:637831,-9,1,-4,-14,-2,-2,-3,3
20:39:14:645329,-6,10,13,1,-2,-2,-3,-10
20:39:14:653446,3,-2,-2,-11,-4,1,0,-10
20:39:14:654343,3,-2,-2,-11,-4,1,0,-10
20:39:14:660331,-2,-3,4,4,-2,0,3,29
20:39:14:675945,-28,2,-1,-12,3,1,0,-12
20:39:14:676825,-28,2,-1,-12,3,1,0,-12
20:39:14:682895,7,11,-6,4,-4,-1,0,1
20:39:14:690383,7,-4,-4,1,-1,-5,-9,-5
20:39:14:697830,7,-4,-4,1,-1,-5,-9,-5
20:39:14:705346,1,18,10,7,4,0,1,1
20:39:14:713511,-1,-2,14,0,0,-2,-3,-5
20:39:14:714340,-1,-2,14,0,0,-2,-3,-5
20:39:14:720333,6,-10,-2,-19,-9,-4,-1,-3
20:39:14:735982,5,2,-8,-6,2,-2,1,7
20:39:14:736828,5,2,-8,-6,2,-2,1,7
20:39:14:742830,5,-11,-5,-2,0,-1,0,9
20:39:14:750354,0,-5,0,8,8,2,-2,-11
20:39:14:757820,0,-5,0,8,8,2,-2,-11
20:39:14:765337,-13,-14,-8,3,0,-2,0,-1
20:39:14:773461,4,9,0,-6,-8,1,4,16
20:39:14:774307,4,9,0,-6,-8,1,4,16
20:39:14:780356,1,16,18,9,2,1,-2,-12
20:39:14:795981,1,-5,-9,0,3,-1,-1,6
20:39:14:796834,1,-5,-9,0,3,-1,-1,6
20:39:14:802832,-8,-8,0,-7,-3,-1,-1,-6
20:39:14:810320,-3,-23,7,17,0,1,6,18
20:39:14:817852,-3,-23,7,17,0,1,6,18
20:39:14:825320,-2,-11,1,7,4,1,1,11
20:39:14:833485,-3,-1,0,2,-7,-5,-12,-55
20:39:14:834322,-3,-1,0,2,-7,-5,-12,-55
20:39:14:840205,2,3,5,-7,-2,-1,3,4
20:39:14:855956,14,10,2,-1,2,3,2,4
20:39:14:856845,14,10,2,-1,2,3,2,4
20:39:14:862834,6,5,22,10,1,0,-1,-8
20:39:14:870374,-2,3,6,-14,-2,-2,-1,7
20:39:14:877858,-2,3,6,-14,-2,-2,-1,7
20:39:14:885205,-3,-3,-12,-16,-1,-1,-2,10
20:39:14:893461,-2,3,-11,-3,-3,-4,-3,8
20:39:14:894320,-2,3,-11,-3,-3,-4,-3,8
20:39:14:900354,-17,-16,-28,-11,5,1,-7,-27
20:39:14:915967,-5,-4,-4,-5,-2,1,4,17
20:39:14:916823,-5,-4,-4,-5,-2,1,4,17
20:39:14:922735,8,-2,-5,9,-1,0,0,3
20:39:14:930213,-13,-3,-4,-17,-1,0,-8,-15
20:39:14:937861,-13,-3,-4,-17,-1,0,-8,-15
20:39:14:945351,0,2,-4,-2,-2,-2,-1,8
20:39:14:953458,-4,3,13,1,-3,-2,0,1
20:39:14:954323,-4,3,13,1,-3,-2,0,1
20:39:14:960324,-7,-6,-19,-10,-4,-3,-1,-6
20:39:14:984139,-19,-3,7,-15,-6,-2,-9,-23
20:39:14:984960,-19,-3,7,-15,-6,-2,-9,-23
20:39:14:985740,-9,-6,7,-6,2,-1,-4,-6
20:39:14:990348,2,4,0,5,-3,-3,2,4
20:39:14:997896,2,4,0,5,-3,-3,2,4
20:39:15:5197,-1,7,10,5,-8,-5,-1,3
20:39:15:12693,3,-4,3,-1,0,2,2,10
20:39:15:20960,3,-4,3,-1,0,2,2,10
20:39:15:21839,0,-20,-6,-13,-2,-3,-3,13
20:39:15:36000,10,3,-9,6,2,0,1,1
20:39:15:36834,10,3,-9,6,2,0,1,1
20:39:15:50983,0,7,12,12,1,-5,-5,22
20:39:15:51836,9,-7,-2,0,-1,-1,-1,0
20:39:15:57814,9,-7,-2,0,-1,-1,-1,0
20:39:15:65230,5,19,-3,-13,-3,2,1,-25
20:39:15:73495,4,1,1,1,-3,-4,-2,3
20:39:15:74331,4,1,1,1,-3,-4,-2,3
20:39:15:80233,-11,2,-4,-1,-3,-2,3,-6
20:39:15:95976,-5,-8,-12,-3,7,2,2,14
20:39:15:96862,-5,-8,-12,-3,7,2,2,14
20:39:15:102753,2,12,10,3,3,2,2,-1
20:39:15:110199,-6,1,-4,2,-1,-1,0,4
20:39:15:117860,-6,1,-4,2,-1,-1,0,4
20:39:15:125212,5,-12,6,10,4,0,-3,3
20:39:15:132765,-2,-3,-8,-5,-7,-1,-2,-2
20:39:15:140960,-2,-3,-8,-5,-7,-1,-2,-2
20:39:15:141828,4,2,-7,-13,-1,2,3,3
20:39:15:155954,-5,-7,-8,-17,-2,-3,-8,16
20:39:15:156818,-5,-7,-8,-17,-2,-3,-8,16
20:39:15:162695,-6,-15,-18,28,2,3,5,-1
20:39:15:170197,-4,3,6,-3,-1,-3,-2,-3
20:39:15:177820,-4,3,6,-3,-1,-3,-2,-3
20:39:15:185339,4,1,0,4,-2,-1,-2,1
20:39:15:192825,17,11,7,11,-2,-1,4,-3
20:39:15:200954,17,11,7,11,-2,-1,4,-3
20:39:15:201843,-3,-11,6,12,-2,-4,-8,-28
20:39:15:215970,-2,4,7,6,4,-1,-1,3
20:39:15:216830,-2,4,7,6,4,-1,-1,3
20:39:15:222839,-14,6,0,1,1,2,2,6
20:39:15:230336,-3,-7,-1,-16,-7,-3,-2,-6
20:39:15:237847,-3,-7,-1,-16,-7,-3,-2,-6
20:39:15:253483,6,-2,-6,-22,-9,-5,-3,-1
20:39:15:254220,8,2,-5,8,-1,-2,-1,8
20:39:15:260960,8,2,-5,8,-1,-2,-1,8
20:39:15:261843,9,12,24,-1,-6,0,-2,-17
20:39:15:275967,4,15,12,10,-3,-3,0,-5
20:39:15:276828,4,15,12,10,-3,-3,0,-5
20:39:15:282849,0,-9,-7,-4,0,1,1,-2
20:39:15:298448,-5,14,20,15,1,0,-1,-60
20:39:15:299314,-5,14,20,15,1,0,-1,-60
20:39:15:305212,-2,0,1,-3,-4,-5,-1,22
20:39:15:312713,-7,-3,-8,9,1,3,0,8
20:39:15:320327,-7,-3,-8,9,1,3,0,8
20:39:15:327848,-3,7,1,-15,-1,-3,-5,-14
20:39:15:335961,-3,-7,-3,-4,1,-1,2,-5
20:39:15:336841,-3,-7,-3,-4,1,-1,2,-5
20:39:15:342837,1,-8,0,6,6,2,-2,-4
20:39:15:359075,-9,-13,-10,-40,-1,0,-2,-1
20:39:15:359953,-9,-13,-10,-40,-1,0,-2,-1
20:39:15:365371,20,4,-2,1,-4,-3,0,0
20:39:15:372854,-6,-20,-18,7,-1,0,0,-10
20:39:15:380366,-6,-20,-18,7,-1,0,0,-10
20:39:15:387866,-2,-5,-13,0,-3,-4,-8,-10
20:39:15:395992,-6,-9,-6,4,0,-3,-3,20
20:39:15:396840,-6,-9,-6,4,0,-3,-3,20
20:39:15:402849,0,-8,-6,4,-1,-3,0,18
20:39:15:418985,-3,22,9,14,-6,0,1,10
20:39:15:419693,-3,22,9,14,-6,0,1,10
20:39:15:425343,-9,-8,-7,5,-9,-1,-4,-7
20:39:15:432877,3,-15,-5,-2,1,2,0,15
20:39:15:440336,3,-15,-5,-2,1,2,0,15
20:39:15:456601,1,0,7,7,-3,-2,4,11
20:39:15:457468,-25,-12,5,-7,-6,-1,1,-6
20:39:15:458233,-25,-12,5,-7,-6,-1,1,-6
20:39:15:462849,11,1,-7,-3,-1,-1,-11,-65
20:39:15:478488,4,5,-23,1,-2,-4,-1,-6
20:39:15:479351,4,5,-23,1,-2,-4,-1,-6
20:39:15:485361,-8,-8,0,31,9,1,4,43
20:39:15:492838,2,2,-26,-16,12,6,-1,-4
20:39:15:508453,2,2,-26,-16,12,6,-1,-4
20:39:15:509343,4,26,9,-8,1,2,6,-5
20:39:15:515998,4,-3,-10,-1,8,0,1,7
20:39:15:516827,4,-3,-10,-1,8,0,1,7
20:39:15:522834,-2,-4,-18,-35,-1,0,1,-1
20:39:15:538469,-19,4,13,7,-10,-4,-4,-7
20:39:15:539345,-19,4,13,7,-10,-4,-4,-7
20:39:15:545353,-5,-18,-14,-9,-8,-3,-2,19
20:39:15:552845,11,18,1,3,-6,-4,2,10
20:39:15:560318,11,18,1,3,-6,-4,2,10
20:39:15:567860,-11,-27,-18,14,-6,-3,3,17
20:39:15:575954,9,-2,12,6,0,1,1,6
20:39:15:576823,9,-2,12,6,0,1,1,6
20:39:15:590337,-2,11,4,5,3,2,1,-8
20:39:15:606731,5,-14,-2,-14,-1,-3,-1,8
20:39:15:607461,5,-14,-2,-14,-1,-3,-1,8
20:39:15:608323,4,4,0,-3,-2,-1,-2,5
20:39:15:612723,2,6,0,-6,-1,1,-4,-3
20:39:15:620336,2,6,0,-6,-1,1,-4,-3
20:39:15:627849,2,19,9,-9,-4,-4,-3,-9
20:39:15:635980,0,-5,0,-9,1,-2,1,23
20:39:15:636850,0,-5,0,-9,1,-2,1,23
20:39:15:642832,-7,-2,9,3,3,-2,-1,9
20:39:15:658467,-17,-40,-11,37,-1,-1,-2,-2
20:39:15:659349,-17,-40,-11,37,-1,-1,-2,-2
20:39:15:665411,-7,0,12,-5,-9,-3,-2,-8
20:39:15:673455,8,6,5,-2,-8,-4,-6,-32
20:39:15:674344,8,6,5,-2,-8,-4,-6,-32
20:39:15:687873,-4,0,1,-15,1,-1,-1,-20
20:39:15:695975,10,-3,8,-8,0,0,2,11
20:39:15:696837,10,-3,8,-8,0,0,2,11
20:39:15:702846,13,4,2,3,3,3,1,7
20:39:15:718460,-3,8,-1,-13,4,-1,-9,-17
20:39:15:719316,-3,8,-1,-13,4,-1,-9,-17
20:39:15:725328,-1,0,-9,12,3,0,-5,-34
20:39:15:732733,3,0,1,4,2,0,0,-1
20:39:15:740363,3,0,1,4,2,0,0,-1
20:39:15:747845,-4,7,-14,7,1,1,3,7
20:39:15:755971,-11,-2,-5,-11,-9,-5,-2,2
20:39:15:756845,-11,-2,-5,-11,-9,-5,-2,2
20:39:15:762870,-4,-9,4,-2,2,1,0,16
20:39:15:778498,-3,-18,-21,18,3,0,0,-14
20:39:15:779336,-3,-18,-21,18,3,0,0,-14
20:39:15:785355,1,-3,-5,12,1,-2,-3,3
20:39:15:792864,-24,8,4,4,2,1,0,-14
20:39:15:800371,-24,8,4,4,2,1,0,-14
20:39:15:807854,-1,2,7,-8,-5,-4,-6,21
20:39:15:816059,11,6,-1,1,-1,4,3,8
20:39:15:816857,11,6,-1,1,-1,4,3,8
20:39:15:822725,-7,-12,0,-3,1,1,3,6
20:39:15:838471,6,7,8,6,-3,-1,-1,-5
20:39:15:839349,6,7,8,6,-3,-1,-1,-5
20:39:15:845322,0,1,2,-5,-7,-3,-4,-30
20:39:15:860982,0,1,2,-5,-7,-3,-4,-30
20:39:15:861842,3,17,-3,-22,-4,-2,-4,-21
20:39:15:867856,7,5,4,-15,4,2,2,-19
20:39:15:875967,7,5,4,-15,4,2,2,-19
20:39:15:876832,10,29,29,-4,-1,2,3,2
20:39:15:882848,-7,-2,-7,2,-1,0,-3,-16
20:39:15:898564,-7,-2,-7,2,-1,0,-3,-16
20:39:15:899225,3,-4,-1,0,-3,-3,-1,-4
20:39:15:905368,-12,-2,3,10,2,0,-1,-8
20:39:15:920978,-12,-2,3,10,2,0,-1,-8
20:39:15:921838,0,-2,0,-16,-9,-4,-3,-4
20:39:15:927847,-10,-13,3,-16,-12,-6,-5,2
20:39:15:936108,-10,-13,3,-16,-12,-6,-5,2
20:39:15:936843,-7,-11,-14,-7,-2,0,1,20
20:39:15:942837,6,0,-9,-13,2,-1,0,20
20:39:15:958502,6,0,-9,-13,2,-1,0,20
20:39:15:959333,4,-7,2,13,4,4,5,25
20:39:15:965350,-8,0,7,-24,-9,-4,-6,3
20:39:15:980971,-8,0,7,-24,-9,-4,-6,3
20:39:15:981863,-1,-4,-21,-8,2,-1,-1,7
20:39:15:987855,9,-10,-4,-14,1,2,3,-4
20:39:15:995963,9,-10,-4,-14,1,2,3,-4
20:39:15:996851,-12,-1,3,-35,1,-3,-6,-25
20:39:16:2838,4,5,0,11,-9,-5,-1,0
20:39:16:18486,4,5,0,11,-9,-5,-1,0
20:39:16:19344,-5,-9,-1,14,-8,-5,-4,11
20:39:16:25332,10,9,3,6,4,2,0,9
20:39:16:40965,10,9,3,6,4,2,0,9
20:39:16:41847,6,13,28,13,0,-2,2,11
20:39:16:47709,5,-9,-3,4,1,1,4,26
20:39:16:55969,5,-9,-3,4,1,1,4,26
20:39:16:56837,-1,1,3,8,2,1,0,4
20:39:16:62833,-5,-4,-17,13,3,-1,3,5
20:39:16:78471,-5,-4,-17,13,3,-1,3,5
20:39:16:79331,-2,-7,-16,-9,-2,-3,2,11
20:39:16:85210,2,10,7,5,2,0,-4,-6
20:39:16:101010,2,10,7,5,2,0,-4,-6
20:39:16:101833,0,-7,2,9,0,0,-1,-10
20:39:16:107709,-1,13,-3,0,4,1,-3,-12
20:39:16:115974,-1,13,-3,0,4,1,-3,-12
20:39:16:116835,5,-2,-4,-14,-2,-1,-1,-7
20:39:16:122699,3,-2,-1,11,-2,-2,-1,-2
20:39:16:146741,3,-2,-1,11,-2,-2,-1,-2
20:39:16:147460,-5,-10,-11,-10,-2,0,1,3
20:39:16:148212,-2,1,5,-23,4,0,2,8
20:39:16:160970,-2,1,5,-23,4,0,2,8
20:39:16:161836,-4,0,17,7,-2,-3,-3,-8
20:39:16:167882,-8,4,-3,4,-7,-4,-1,-23
20:39:16:175830,-8,4,-3,4,-7,-4,-1,-23
20:39:16:183484,4,1,-3,-13,0,-2,-3,-7
20:39:16:184231,11,8,-3,-2,-4,-3,-5,1
20:39:16:198499,11,8,-3,-2,-4,-3,-5,1
20:39:16:199368,-5,-16,-3,5,-2,-5,-6,-5
20:39:16:205346,-8,-5,7,15,3,1,0,-1
20:39:16:220996,-8,-5,7,15,3,1,0,-1
20:39:16:221852,19,9,14,16,1,4,8,52
20:39:16:227854,-4,0,-3,4,-3,-1,-1,-12
20:39:16:235957,-4,0,-3,4,-3,-1,-1,-12
20:39:16:236721,-5,-4,-15,0,1,-1,-2,-3
20:39:16:250361,-6,-3,-11,-6,-5,0,3,-9
20:39:16:258468,-6,-3,-11,-6,-5,0,3,-9
20:39:16:259343,-6,0,-9,-8,-6,-5,-6,-10
20:39:16:265401,-11,-16,-13,2,-1,1,0,-17
20:39:16:280987,-11,-16,-13,2,-1,1,0,-17
20:39:16:281884,-9,2,-3,9,4,-1,-7,-17
20:39:16:287867,-10,-16,3,3,-1,-3,-5,-24
20:39:16:295986,-10,-16,3,3,-1,-3,-5,-24
20:39:16:296855,0,0,5,7,1,0,1,-31
20:39:16:310220,10,25,11,-21,1,-1,-1,26
20:39:16:318477,10,25,11,-21,1,-1,-1,26
20:39:16:319339,-8,-16,-17,1,-6,-2,-4,-13
20:39:16:325334,-1,0,5,3,2,0,2,22
20:39:16:340976,-1,0,5,3,2,0,2,22
20:39:16:341841,-1,7,-3,-8,1,0,-3,12
20:39:16:347727,-7,-3,0,2,0,1,1,6
20:39:16:355983,-7,-3,0,2,0,1,1,6
20:39:16:356869,1,-6,2,-2,1,2,5,-8
20:39:16:370233,13,4,-5,-34,-5,-1,0,16
20:39:16:378481,13,4,-5,-34,-5,-1,0,16
20:39:16:379356,3,2,5,5,1,3,3,7
20:39:16:385216,3,-9,10,13,4,-2,0,27
20:39:16:400980,3,-9,10,13,4,-2,0,27
20:39:16:401859,3,16,-1,-6,-4,-4,-2,3
20:39:16:407723,-6,-20,-5,-5,-4,-4,-2,-11
20:39:16:416011,-6,-20,-5,-5,-4,-4,-2,-11
20:39:16:416856,-2,9,14,2,-4,-3,-6,23
20:39:16:439092,2,2,-7,-10,-4,-2,-8,-21
20:39:16:439993,2,2,-7,-10,-4,-2,-8,-21
20:39:16:440725,-1,-2,-4,10,2,-1,-1,14
20:39:16:445359,-8,-4,-3,3,1,0,0,2
20:39:16:460980,-8,-4,-3,3,1,0,0,2
20:39:16:461852,5,-3,0,-2,-2,-1,5,23
20:39:16:467855,0,7,-5,-20,-2,1,2,19
20:39:16:475976,0,7,-5,-20,-2,1,2,19
20:39:16:476726,-22,-15,9,7,1,0,0,2
20:39:16:490378,-1,15,-1,8,-2,1,3,-6
20:39:16:498477,-1,15,-1,8,-2,1,3,-6
20:39:16:499351,14,-2,-8,0,-2,-3,-7,-11
20:39:16:505357,-10,-4,6,30,-3,0,1,-5
20:39:16:520993,-10,-4,6,30,-3,0,1,-5
20:39:16:521851,-2,-3,-9,1,0,3,4,-10
20:39:16:527831,-3,-2,-19,5,3,-1,-5,-9
20:39:16:536030,-3,-2,-19,5,3,-1,-5,-9
20:39:16:536725,16,5,1,14,3,-2,-3,-14
20:39:16:550271,-4,-15,1,-1,0,1,1,14
20:39:16:558474,-4,-15,1,-1,0,1,1,14
20:39:16:559355,5,-2,-8,-18,-6,-3,3,11
20:39:16:565396,-1,-10,9,6,1,0,0,-9
20:39:16:581026,-1,-10,9,6,1,0,0,-9
20:39:16:581879,3,29,1,-7,-6,-2,-1,-3
20:39:16:587718,-1,18,4,1,-3,-1,-4,-25
20:39:16:603484,-1,18,4,1,-3,-1,-4,-25
20:39:16:604345,-3,-6,-3,-5,-4,2,1,-18
20:39:16:610214,4,4,0,-12,-6,-3,-7,-4
20:39:16:618474,4,4,0,-12,-6,-3,-7,-4
20:39:16:619332,-2,-7,1,-11,0,-2,0,-1
20:39:16:625204,-9,-6,0,18,-1,2,4,14
20:39:16:640978,-9,-6,0,18,-1,2,4,14
20:39:16:641836,-14,-9,-11,-4,-2,-3,-7,-17
20:39:16:647753,-1,-3,4,0,-6,-3,-1,12
20:39:16:655996,-1,-3,4,0,-6,-3,-1,12
20:39:16:656845,-22,-21,-6,1,-1,-6,-15,-16
20:39:16:670257,7,11,7,-5,-7,-5,-3,-15
20:39:16:678504,7,11,7,-5,-7,-5,-3,-15
20:39:16:679356,-4,7,4,-6,-2,-1,0,-4
20:39:16:685231,-1,-11,-4,-5,0,-3,1,3
20:39:16:700992,-1,-11,-4,-5,0,-3,1,3
20:39:16:701851,-6,4,2,-3,-2,0,-2,-3
20:39:16:707709,-3,-15,1,5,10,2,-1,-12
20:39:16:716014,-3,-15,1,5,10,2,-1,-12
20:39:16:716846,4,7,17,3,4,2,5,18
20:39:16:730229,-7,-1,-15,-5,-4,-2,-6,-33
20:39:16:738498,-7,-1,-15,-5,-4,-2,-6,-33
20:39:16:739357,6,20,5,8,-2,3,2,5
20:39:16:745212,3,-16,-4,-37,0,0,3,0
20:39:16:768232,3,-16,-4,-37,0,0,3,0
20:39:16:777205,12,-3,-5,12,0,0,2,-23
20:39:16:778179,14,11,1,12,-1,0,0,13
20:39:16:779013,14,11,1,12,-1,0,0,13
20:39:16:779804,2,-24,1,-8,0,0,-4,-11
20:39:16:790398,-2,-4,3,-2,5,-2,-3,27
20:39:16:798497,-2,-4,3,-2,5,-2,-3,27
20:39:16:799386,-7,10,-8,-6,-2,0,8,10
20:39:16:805357,-28,-5,-6,7,2,-2,0,9
20:39:16:820991,-28,-5,-6,7,2,-2,0,9
20:39:16:821868,-1,-4,-2,4,-1,-4,0,14
20:39:16:827836,-1,19,7,15,0,0,-4,-28
20:39:16:835983,-1,19,7,15,0,0,-4,-28
20:39:16:836839,1,-1,-2,-22,1,-2,-4,-16
20:39:16:850240,3,-10,-27,-4,1,-1,3,14
20:39:16:858473,3,-10,-27,-4,1,-1,3,14
20:39:16:859337,1,4,3,7,-10,-4,-3,-12
20:39:16:865387,8,3,6,-3,-1,3,6,3
20:39:16:881006,8,3,6,-3,-1,3,6,3
20:39:16:881864,8,1,-7,-7,-4,-1,0,8
20:39:16:887712,9,-5,-2,-3,-2,1,0,-43
20:39:16:895983,9,-5,-2,-3,-2,1,0,-43
20:39:16:896848,-3,0,3,2,0,-3,-8,-28
20:39:16:910249,9,18,7,-54,4,0,-4,4
20:39:16:918480,9,18,7,-54,4,0,-4,4
20:39:16:919336,-17,0,-7,11,2,-2,-3,8
20:39:16:932727,-15,-9,6,22,-2,-1,-3,-9
20:39:16:940992,-15,-9,6,22,-2,-1,-3,-9
20:39:16:941847,9,-5,-9,-6,1,3,-1,4
20:39:16:947739,-7,-30,-31,-25,-10,-4,-5,0
20:39:16:956077,-7,-30,-31,-25,-10,-4,-5,0
20:39:16:956841,1,-1,1,6,2,1,0,11
20:39:16:970230,-4,5,-9,-12,-3,-1,-4,1
20:39:16:978480,-4,5,-9,-12,-3,-1,-4,1
20:39:16:979337,17,1,-1,-2,4,3,4,17
20:39:16:985236,7,6,10,17,-3,-2,0,-5
20:39:17:1023,7,6,10,17,-3,-2,0,-5
20:39:17:1882,3,17,8,-12,-3,0,8,27
20:39:17:7703,26,-4,-6,7,-2,-2,0,13
20:39:17:15999,26,-4,-6,7,-2,-2,0,13
20:39:17:16878,-11,-21,-13,13,1,1,0,-18
20:39:17:30385,-8,-2,-4,-1,-4,-3,-8,-2
20:39:17:46750,-8,-2,-4,-1,-4,-3,-8,-2
20:39:17:47493,-2,11,1,-10,-1,-2,-3,-10
20:39:17:48225,-5,9,14,13,9,1,0,-4
20:39:17:60985,-5,9,14,13,9,1,0,-4
20:39:17:61836,2,-12,-2,-14,-5,-3,-4,5
20:39:17:67905,-15,-8,-3,7,-3,-3,-7,-28
20:39:17:75963,-15,-8,-3,7,-3,-3,-7,-28
20:39:17:76714,-7,10,5,9,0,-3,0,-2
20:39:17:90353,-12,-3,1,-27,1,4,2,11
20:39:17:98517,-12,-3,1,-27,1,4,2,11
20:39:17:99351,-12,-19,-7,4,-3,0,-4,6
20:39:17:105351,-12,16,5,12,-2,-1,-5,-11
20:39:17:121482,-12,16,5,12,-2,-1,-5,-11
20:39:17:128480,1,5,-3,-16,-3,-2,-2,4
20:39:17:129208,2,-7,1,2,-3,-1,2,16
20:39:17:135976,2,-7,1,2,-3,-1,2,16
20:39:17:136718,0,-2,-3,0,-4,-4,-8,-2
20:39:17:150247,19,-14,-18,-13,0,-1,4,12
20:39:17:158493,19,-14,-18,-13,0,-1,4,12
20:39:17:159353,-12,6,-1,10,4,1,4,-2
20:39:17:165389,-7,2,15,-6,-10,-4,-1,7
20:39:17:180974,-7,2,15,-6,-10,-4,-1,7
20:39:17:181850,1,10,16,1,-3,-2,-4,-28
20:39:17:187727,1,3,-3,10,-2,-4,-3,-20
20:39:17:195362,1,3,-3,10,-2,-4,-3,-20
20:39:17:210984,-3,-11,-3,-11,-3,-2,-4,-22
20:39:17:211719,14,-13,7,-11,0,-2,2,18
20:39:17:218511,14,-13,7,-11,0,-2,2,18
20:39:17:219397,9,4,-9,-4,1,1,2,5
20:39:17:232758,-18,6,-5,19,7,3,5,22
20:39:17:240976,-18,6,-5,19,7,3,5,22
20:39:17:241868,11,-2,-1,8,-2,-2,0,2
20:39:17:247726,17,1,-15,0,-4,1,3,7
20:39:17:255351,17,1,-15,0,-4,1,3,7
20:39:17:262842,3,-9,-4,-1,-1,-1,1,0
20:39:17:270383,-10,6,10,-8,1,0,-11,-33
20:39:17:278470,-10,6,10,-8,1,0,-11,-33
20:39:17:279212,4,-4,-13,-26,6,0,6,16
20:39:17:292739,0,-5,7,5,1,3,4,-1
20:39:17:300979,0,-5,7,5,1,3,4,-1
20:39:17:301843,11,-1,4,17,-2,1,-1,1
20:39:17:307851,-5,-3,-11,1,0,-1,-2,-10
20:39:17:315380,-5,-3,-11,1,0,-1,-2,-10
20:39:17:322852,1,4,3,-1,-3,1,-2,8
20:39:17:330433,-3,-7,1,8,5,0,2,27
20:39:17:338506,-3,-7,1,8,5,0,2,27
20:39:17:339259,-15,-13,3,-3,-1,0,-3,-7
20:39:17:352867,6,15,10,19,-2,0,4,1
20:39:17:360980,6,15,10,19,-2,0,4,1
20:39:17:361738,0,1,-7,-1,2,-1,0,22
20:39:17:367906,3,1,-7,3,4,2,6,8
20:39:17:375345,3,1,-7,3,4,2,6,8
20:39:17:382718,17,5,6,5,-5,-2,-1,-5
20:39:17:390355,4,-1,1,-8,5,2,-1,-11
20:39:17:398490,4,-1,1,-8,5,2,-1,-11
20:39:17:399366,-15,-8,-7,4,1,-1,-9,-24
20:39:17:412851,-17,-14,-8,10,3,0,1,32
20:39:17:420979,-17,-14,-8,10,3,0,1,32
20:39:17:421846,13,-1,-6,0,2,0,1,-1
20:39:17:436058,-6,12,13,-10,-4,0,-5,-16
20:39:17:436734,-6,12,13,-10,-4,0,-5,-16
20:39:17:442871,-15,-19,-19,-14,-5,-4,0,9
20:39:17:450385,4,13,-1,-2,-2,-3,-6,-6
20:39:17:458471,4,13,-1,-2,-2,-3,-6,-6
20:39:17:459364,6,3,7,7,2,-1,-2,-31
20:39:17:472912,-16,0,-12,1,-2,-6,-13,-1
20:39:17:481021,-16,0,-12,1,-2,-6,-13,-1
20:39:17:481734,-8,8,6,11,-1,-1,4,0
20:39:17:487879,-10,0,6,-12,-5,-1,4,-12
20:39:17:495365,-10,0,6,-12,-5,-1,4,-12
20:39:17:502720,5,6,6,-9,-4,-5,-9,-6
20:39:17:510222,1,-7,-1,-5,-3,-1,2,-3
20:39:17:518516,1,-7,-1,-5,-3,-1,2,-3
20:39:17:519360,-20,10,10,1,-8,-7,-9,-22
20:39:17:532915,1,-14,-31,-10,3,2,-2,-12
20:39:17:541011,1,-14,-31,-10,3,2,-2,-12
20:39:17:541880,2,24,19,10,3,3,3,24
20:39:17:547744,2,-7,2,9,-9,-2,2,6
20:39:17:555360,2,-7,2,9,-9,-2,2,6
20:39:17:562741,10,-4,-22,-7,10,4,3,20
20:39:17:570238,2,6,5,-23,-3,-4,-4,-17
20:39:17:578484,2,6,5,-23,-3,-4,-4,-17
20:39:17:579364,-13,-32,-17,-14,-11,-5,-1,-24
20:39:17:592734,8,-3,-4,-1,-6,-9,-5,-20
20:39:17:601001,8,-3,-4,-1,-6,-9,-5,-20
20:39:17:601854,-5,-15,0,-4,4,0,2,8
20:39:17:607730,6,7,9,1,-5,-3,-1,9
20:39:17:615350,6,7,9,1,-5,-3,-1,9
20:39:17:622746,11,2,-3,-10,-3,0,4,9
20:39:17:630253,0,-7,12,15,-3,-1,2,18
20:39:17:638483,0,-7,12,15,-3,-1,2,18
20:39:17:639339,-13,-6,17,-2,-1,2,3,9
20:39:17:652739,0,-3,-4,2,-5,0,1,0
20:39:17:660998,0,-3,-4,2,-5,0,1,0
20:39:17:661872,-3,14,0,11,-1,0,-2,25
20:39:17:667769,-6,13,-2,1,-2,0,-2,-15
20:39:17:675348,-6,13,-2,1,-2,0,-2,-15
20:39:17:690978,-11,-15,-27,1,1,-3,1,2
20:39:17:691727,5,4,-1,-2,-2,1,9,34
20:39:17:698535,5,4,-1,-2,-2,1,9,34
20:39:17:699397,-2,4,6,-2,1,2,-3,-11
20:39:17:712782,1,-14,-11,-15,3,1,-1,0
20:39:17:720983,1,-14,-11,-15,3,1,-1,0
20:39:17:721845,1,5,10,10,-6,-1,-2,-15
20:39:17:727736,1,-5,0,5,2,0,2,4
20:39:17:735386,1,-5,0,5,2,0,2,4
20:39:17:742884,-5,2,-6,-2,1,-1,-4,-20
20:39:17:750419,4,4,-1,-3,-2,1,-2,-18
20:39:17:758505,4,4,-1,-3,-2,1,-2,-18
20:39:17:759223,1,-13,-8,1,10,1,-2,-1
20:39:17:772753,-6,-1,1,1,1,1,-3,-3
20:39:17:780999,-6,-1,1,1,1,1,-3,-3
20:39:17:781875,-6,-2,-3,-5,-8,-4,-7,1
20:39:17:787855,4,7,11,-5,2,-2,-4,2
20:39:17:795384,4,7,11,-5,2,-2,-4,2
20:39:17:802880,15,-9,-9,-39,4,1,6,17
20:39:17:810380,-3,-9,-1,14,-2,-4,-11,-12
20:39:17:818515,-3,-9,-1,14,-2,-4,-11,-12
20:39:17:819253,-24,11,7,14,0,-3,-3,-8
20:39:17:832756,-10,-12,-25,-9,-7,-5,-9,-20
20:39:17:841001,-10,-12,-25,-9,-7,-5,-9,-20
20:39:17:841737,5,8,9,2,3,1,0,14
20:39:17:847896,-1,-1,6,3,-2,-1,1,9
20:39:17:855383,-1,-1,6,3,-2,-1,1,9
20:39:17:862742,2,-7,-3,-12,-10,-4,-1,-7
20:39:17:870221,9,16,10,0,-2,4,6,10
20:39:17:878838,9,16,10,0,-2,4,6,10
20:39:17:885229,-9,-6,-9,-4,0,1,-3,0
20:39:17:892722,6,10,-3,-3,10,4,4,23
20:39:17:901015,6,10,-3,-3,10,4,4,23
20:39:17:901859,-1,2,2,-2,-1,-1,-2,-18
20:39:17:907723,-12,-19,-14,2,-4,-3,2,-2
20:39:17:915395,-12,-19,-14,2,-4,-3,2,-2
20:39:17:922879,2,2,-12,10,-1,-1,-5,-12
20:39:17:930265,-2,-8,7,3,4,0,0,-17
20:39:17:938504,-2,-8,7,3,4,0,0,-17
20:39:17:939238,8,-6,3,-1,-7,-3,0,7
20:39:17:952764,-8,-5,5,8,1,-4,-3,4
20:39:17:969124,-8,-5,5,8,1,-4,-3,4
20:39:17:970006,0,-3,16,5,0,-3,-3,1
20:39:17:970729,-1,5,7,5,0,0,-3,-5
20:39:17:975366,-1,5,7,5,0,0,-3,-5
20:39:17:982762,7,11,31,8,-3,-2,-2,-19
20:39:17:990254,3,-4,-14,-24,-6,-3,-2,-1
20:39:17:998518,3,-4,-14,-24,-6,-3,-2,-1
20:39:17:999260,-4,-10,-10,0,0,4,1,-3
20:39:18:12768,3,18,5,-3,2,-2,-2,-9
20:39:18:20990,3,18,5,-3,2,-2,-2,-9
20:39:18:21888,8,-2,-13,-22,0,-1,2,-4
20:39:18:27748,2,-8,-14,-2,-6,-5,-3,-14
20:39:18:35366,2,-8,-14,-2,-6,-5,-3,-14
20:39:18:42875,6,15,1,-5,1,-2,2,19
20:39:18:50255,-2,11,20,-18,1,1,0,-13
20:39:18:58506,-2,11,20,-18,1,1,0,-13
20:39:18:59230,-10,-12,-10,-11,-4,0,4,13
20:39:18:72758,10,-3,-8,-2,-8,-2,-4,4
20:39:18:81009,10,-3,-8,-2,-8,-2,-4,4
20:39:18:81758,-27,-6,-1,3,0,0,-6,-7
20:39:18:87862,-6,2,1,8,0,0,0,4
20:39:18:95360,-6,2,1,8,0,0,0,4
20:39:18:102730,3,-1,5,8,-4,-3,-3,-1
20:39:18:110364,1,8,14,6,1,0,0,11
20:39:18:118494,1,8,14,6,1,0,0,11
20:39:18:119396,17,-2,-7,15,2,0,0,0
20:39:18:132862,-1,-4,-17,0,0,-3,-8,-34
20:39:18:140973,-1,-4,-17,0,0,-3,-8,-34
20:39:18:141736,2,4,6,-6,-1,-2,0,4
20:39:18:155994,-3,0,1,10,0,-5,-4,-6
20:39:18:156743,-3,0,1,10,0,-5,-4,-6
20:39:18:162871,-6,-10,-8,10,-1,-2,0,-4
20:39:18:170376,-3,-5,0,4,-1,3,5,6
20:39:18:177868,-3,-5,0,4,-1,3,5,6
20:39:18:185274,9,6,-13,0,0,-1,1,-2
20:39:18:192732,-15,-13,4,-1,-1,-1,2,-3
20:39:18:201012,-15,-13,4,-1,-1,-1,2,-3
20:39:18:201869,-5,9,11,7,2,0,-1,-8
20:39:18:216032,-3,-2,-10,8,1,2,0,8
20:39:18:216716,-3,-2,-10,8,1,2,0,8
20:39:18:222721,-2,-4,-7,0,-4,-2,0,3
20:39:18:230238,-1,-8,-4,-3,-5,-2,-1,5
20:39:18:254235,-1,-8,-4,-3,-5,-2,-1,5
20:39:18:254992,8,4,1,1,-3,0,-4,-8
20:39:18:255749,9,0,1,-2,-2,-2,2,12
20:39:18:260988,9,0,1,-2,-2,-2,2,12
20:39:18:261726,0,3,-5,-7,-4,-4,-3,8
20:39:18:276022,2,3,0,-9,-4,-2,-6,-1
20:39:18:276865,2,3,0,-9,-4,-2,-6,-1
20:39:18:282784,-12,2,-5,-6,-1,-2,0,-27
20:39:18:290249,5,0,-3,-1,-2,-5,-11,-2
20:39:18:297936,5,0,-3,-1,-2,-5,-11,-2
20:39:18:305412,0,-7,4,1,-4,-2,-1,4
20:39:18:312770,1,-6,4,-5,-2,0,4,5
20:39:18:321007,1,-6,4,-5,-2,0,4,5
20:39:18:321752,-4,-16,3,-2,-2,-1,-2,1
20:39:18:336012,8,5,5,1,3,-1,-1,-3
20:39:18:336725,8,5,5,1,3,-1,-1,-3
20:39:18:342854,4,23,6,1,-1,2,2,-2
20:39:18:350403,-5,-3,-12,2,5,3,1,-4
20:39:18:366002,-5,-3,-12,2,5,3,1,-4
20:39:18:366893,3,2,-2,0,2,3,2,-4
20:39:18:372730,3,24,7,-1,0,-2,0,-4
20:39:18:381034,3,24,7,-1,0,-2,0,-4
20:39:18:381762,11,-12,-3,-4,-5,-1,3,-2
20:39:18:396009,-9,-7,6,3,-4,-1,4,13
20:39:18:396890,-9,-7,6,3,-4,-1,4,13
20:39:18:402721,-4,0,9,3,4,1,-1,-2
20:39:18:410223,-2,-6,-14,-10,-2,-3,-3,13
20:39:18:417890,-2,-6,-14,-10,-2,-3,-3,13
20:39:18:425366,-5,-13,-12,0,-3,1,1,10
20:39:18:432769,4,-9,-3,-22,0,0,0,1
20:39:18:440979,4,-9,-3,-22,0,0,0,1
20:39:18:441734,-9,1,-5,6,4,-2,-3,-2
20:39:18:456007,-1,1,7,7,-5,1,1,-2
20:39:18:456731,-1,1,7,7,-5,1,1,-2
20:39:18:462892,-5,-5,-2,1,-4,-4,-5,-28
20:39:18:470365,1,-2,-6,-5,-3,0,3,20
20:39:18:477852,1,-2,-6,-5,-3,0,3,20
20:39:18:485300,-5,7,-4,-9,-1,1,0,9
20:39:18:492735,-9,-5,9,-3,0,-1,-3,-19
20:39:18:501022,-9,-5,9,-3,0,-1,-3,-19
20:39:18:501855,10,10,10,10,-1,-3,0,15
20:39:18:516018,-7,-7,-33,-15,1,0,2,-3
20:39:18:516763,-7,-7,-33,-15,1,0,2,-3
20:39:18:522756,-8,-1,15,-1,-4,-3,-5,-21
20:39:18:530241,3,2,8,1,-2,0,-2,-14
20:39:18:546011,3,2,8,1,-2,0,-2,-14
20:39:18:546747,-3,-1,-12,-9,-2,0,5,9
20:39:18:552869,-7,-24,2,2,-1,-2,-2,-1
20:39:18:560998,-7,-24,2,2,-1,-2,-2,-1
20:39:18:561732,0,-14,3,1,3,2,1,7
20:39:18:575999,-3,13,-7,-1,6,1,-4,-2
20:39:18:576737,-3,13,-7,-1,6,1,-4,-2
20:39:18:582762,-18,-1,-5,0,-4,-3,-5,-6
20:39:18:590383,6,10,8,-3,-5,-1,5,25
20:39:18:597886,6,10,8,-3,-5,-1,5,25
20:39:18:605253,5,7,-15,-8,4,1,-1,0
20:39:18:612752,-17,-2,0,8,-3,-2,2,7
20:39:18:620989,-17,-2,0,8,-3,-2,2,7
20:39:18:621863,-5,-1,-3,3,-6,-5,-12,-19
20:39:18:636012,19,11,5,3,-1,-2,0,-16
20:39:18:636860,19,11,5,3,-1,-2,0,-16
20:39:18:642745,-4,-3,3,4,4,1,0,10
20:39:18:650297,2,-6,-12,-1,-6,-5,-5,2
20:39:18:657870,2,-6,-12,-1,-6,-5,-5,2
20:39:18:665276,-2,-6,2,0,-1,0,-1,-11
20:39:18:672767,5,7,-2,-11,-2,-2,0,-8
20:39:18:681015,5,7,-2,-11,-2,-2,0,-8
20:39:18:681870,8,-5,-11,-2,-5,-3,-1,14
20:39:18:696035,-29,6,10,7,-1,1,-3,-19
20:39:18:696872,-29,6,10,7,-1,1,-3,-19
20:39:18:702773,4,1,-10,-10,1,1,-2,-8
20:39:18:710241,5,-1,-2,5,-2,-4,2,4
20:39:18:717897,5,-1,-2,5,-2,-4,2,4
20:39:18:725274,-4,-3,2,-4,-1,-2,-1,8
20:39:18:732771,2,-4,2,7,3,2,-1,-4
20:39:18:740989,2,-4,2,7,3,2,-1,-4
20:39:18:741754,-2,10,-1,-12,1,-2,2,0
20:39:18:755990,0,0,-3,2,-2,-3,-10,-18
20:39:18:756866,0,0,-3,2,-2,-3,-10,-18
20:39:18:762739,0,-1,-3,0,-6,-3,-6,-13
20:39:18:770242,-2,-11,-6,10,5,2,2,7
20:39:18:777874,-2,-11,-6,10,5,2,2,7
20:39:18:785381,18,-7,-6,-4,-3,-2,1,3
20:39:18:792748,9,4,18,-6,1,-1,4,14
20:39:18:801011,9,4,18,-6,1,-1,4,14
20:39:18:801756,8,3,10,8,0,0,3,8
20:39:18:824150,0,-5,-8,-22,-3,-1,-3,-8
20:39:18:824970,0,-5,-8,-22,-3,-1,-3,-8
20:39:18:825746,-6,-4,3,4,0,0,3,14
20:39:18:830243,13,-20,-14,-25,0,-1,-5,-14
20:39:18:837877,13,-20,-14,-25,0,-1,-5,-14
20:39:18:845273,-5,-5,-15,0,-2,-3,-3,5
20:39:18:852751,-5,-8,1,9,0,-1,3,-4
20:39:18:861007,-5,-8,1,9,0,-1,3,-4
20:39:18:861739,-18,0,8,2,4,1,-4,-5
20:39:18:875991,-13,-1,-4,3,-2,-2,-3,11
20:39:18:876854,-13,-1,-4,3,-2,-2,-3,11
20:39:18:882758,1,20,4,-7,-6,-6,-5,-5
20:39:18:890233,-6,-4,-8,10,-2,-1,1,30
20:39:18:897910,-6,-4,-8,10,-2,-1,1,30
20:39:18:905386,11,-3,-4,-1,-3,1,1,-1
20:39:18:912886,10,5,7,16,-3,-1,-3,-3
20:39:18:921005,10,5,7,16,-3,-1,-3,-3
20:39:18:921755,7,-9,-1,0,-3,-2,-2,2
20:39:18:936044,-7,-5,0,4,-2,-1,1,2
20:39:18:936739,-7,-5,0,4,-2,-1,1,2
20:39:18:942853,-7,-11,0,7,-2,0,1,7
20:39:18:950267,-6,0,-4,-12,-3,-2,-6,-15
20:39:18:957877,-6,0,-4,-12,-3,-2,-6,-15
20:39:18:965303,2,-10,-1,-4,-3,-3,-5,-14
20:39:18:972760,0,3,3,-4,1,0,0,-10
20:39:18:981028,0,3,3,-4,1,0,0,-10
20:39:18:981743,-8,0,-7,1,5,1,2,-2
20:39:18:996003,2,3,-10,-5,-2,-2,-4,3
20:39:18:996764,2,3,-10,-5,-2,-2,-4,3
20:39:19:2741,-8,10,1,-1,-4,-1,-8,-23
20:39:19:10239,4,3,-1,4,0,0,2,-4
20:39:19:17901,4,3,-1,4,0,0,2,-4
20:39:19:25281,3,3,3,-7,1,-1,2,15
20:39:19:32796,7,14,8,-10,-3,-1,-2,17
20:39:19:41007,7,14,8,-10,-3,-1,-2,17
20:39:19:41876,-5,3,4,-10,3,0,-1,-4
20:39:19:56016,-15,-10,3,19,5,3,2,-5
20:39:19:56866,-15,-10,3,19,5,3,2,-5
20:39:19:62731,-10,-10,7,-10,0,-1,0,-2
20:39:19:70245,0,0,-4,0,-2,-3,-4,-33
20:39:19:77878,0,0,-4,0,-2,-3,-4,-33
20:39:19:85271,8,-2,0,-6,-3,1,3,10
20:39:19:92734,-4,-5,-6,-6,0,0,6,20
20:39:19:100393,-4,-5,-6,-6,0,0,6,20
20:39:19:107742,0,-9,-17,1,-3,-1,3,1
20:39:19:116005,-3,-3,-4,4,2,-1,-1,-4
20:39:19:116758,-3,-3,-4,4,2,-1,-1,-4
20:39:19:122859,-4,0,1,4,-2,-1,-3,6
20:39:19:138530,10,1,-1,-7,-4,-1,4,18
20:39:19:139407,10,1,-1,-7,-4,-1,4,18
20:39:19:145282,-7,-5,7,-1,-2,-2,-6,-8
20:39:19:152770,-3,-6,-2,1,-6,-5,-4,-6
20:39:19:160374,-3,-6,-2,1,-6,-5,-4,-6
20:39:19:167824,13,10,0,9,-3,-1,4,4
20:39:19:176027,-12,-9,-4,-3,9,2,-4,2
20:39:19:176754,-12,-9,-4,-3,9,2,-4,2
20:39:19:182770,8,1,-1,-6,1,0,1,-19
20:39:19:198521,-2,-1,0,0,-3,0,-1,5
20:39:19:199251,-2,-1,0,0,-3,0,-1,5
20:39:19:205360,-3,8,-16,-9,-2,1,-1,-14
20:39:19:212878,2,1,1,1,-2,-3,-5,-6
20:39:19:220379,2,1,1,1,-2,-3,-5,-6
20:39:19:227750,0,1,1,6,1,0,-1,14
20:39:19:235996,-3,-5,-13,3,-4,-3,2,20
20:39:19:236743,-3,-5,-13,3,-4,-3,2,20
20:39:19:242741,6,5,13,4,-5,-1,0,3
20:39:19:258486,2,6,1,1,-1,-2,-2,-2
20:39:19:259232,2,6,1,1,-1,-2,-2,-2
20:39:19:265273,-15,-11,-5,0,-3,-4,-1,7
20:39:19:272757,11,14,3,-4,-5,0,5,-33
20:39:19:280418,11,14,3,-4,-5,0,5,-33
20:39:19:287754,-5,0,6,-1,2,-3,-4,-5
20:39:19:296012,2,-3,5,1,0,1,-2,-11
20:39:19:296908,2,-3,5,1,0,1,-2,-11
20:39:19:302744,-3,7,7,0,-2,-1,1,-1
20:39:19:318541,0,8,-3,-5,-3,-3,-4,-7
20:39:19:319365,0,8,-3,-5,-3,-3,-4,-7
20:39:19:325280,8,-12,3,-1,3,2,2,23
20:39:19:332794,11,5,7,-1,0,1,0,-3
20:39:19:340392,11,5,7,-1,0,1,0,-3
20:39:19:347754,-7,-4,0,-3,-2,0,1,-1
20:39:19:356020,-4,-1,-1,-4,-1,-3,-2,36
20:39:19:356855,-4,-1,-1,-4,-1,-3,-2,36
20:39:19:362744,-1,-1,-1,5,1,1,-3,-12
20:39:19:378512,-10,-9,8,1,1,0,2,13
20:39:19:379377,-10,-9,8,1,1,0,2,13
20:39:19:385280,2,-2,-4,-1,0,-2,1,8
20:39:19:392738,-2,-15,-9,-4,-1,-1,-3,-17
20:39:19:400398,-2,-15,-9,-4,-1,-1,-3,-17
20:39:19:407739,-12,-7,-6,-1,-4,-3,-8,-19
20:39:19:416033,-8,-7,7,3,3,3,-2,-10
20:39:19:416730,-8,-7,7,3,3,3,-2,-10
20:39:19:422744,17,-1,-15,-11,3,0,-6,-17
20:39:19:438518,-7,-6,-9,-6,-4,-3,1,9
20:39:19:439384,-7,-6,-9,-6,-4,-3,1,9
20:39:19:445301,13,4,-1,-4,4,0,-3,8
20:39:19:452810,-5,1,-2,-15,1,-2,-3,-14
20:39:19:460363,-5,1,-2,-15,1,-2,-3,-14
20:39:19:467943,-9,-7,5,0,-5,-3,-3,-5
20:39:19:476016,-5,0,-4,-6,-3,-4,-5,-8
20:39:19:476750,-5,0,-4,-6,-3,-4,-5,-8
20:39:19:482743,-12,5,-2,2,-2,0,-6,-5
20:39:19:498586,6,3,3,3,-2,-4,-2,-1
20:39:19:499256,6,3,3,3,-2,-4,-2,-1
20:39:19:505406,-11,-1,2,5,-2,-2,0,-4
20:39:19:512756,-12,-4,-4,-1,-1,-2,-4,-16
20:39:19:520368,-12,-4,-4,-1,-1,-2,-4,-16
20:39:19:536648,-8,-17,-11,4,-1,-2,0,10
20:39:19:537359,8,-23,-16,0,-1,2,0,11
20:39:19:538249,8,-23,-16,0,-1,2,0,11
20:39:19:542863,-6,1,3,-4,-1,-1,2,6
20:39:19:558886,4,16,10,5,3,3,3,-10
20:39:19:559755,4,16,10,5,3,3,3,-10
20:39:19:565296,2,2,-6,-8,-4,-4,-1,8
20:39:19:572744,5,9,5,3,0,0,3,13
20:39:19:580275,5,9,5,3,0,0,3,13
20:39:19:587763,15,9,0,-5,0,2,1,2
20:39:19:596005,-5,-5,2,3,1,-1,-4,2
20:39:19:596747,-5,-5,2,3,1,-1,-4,2
20:39:19:602752,11,3,2,-6,-2,-1,6,30
20:39:19:618507,-1,7,7,0,-2,2,1,-13
20:39:19:619263,-1,7,7,0,-2,2,1,-13
20:39:19:625391,-6,8,1,2,-1,2,-2,-8
20:39:19:632817,-3,5,-3,-11,0,-1,-6,-15
20:39:19:640395,-3,5,-3,-11,0,-1,-6,-15
20:39:19:647791,-5,3,2,3,-3,-3,-3,-21
20:39:19:656019,0,2,6,7,-1,-2,2,-5
20:39:19:656758,0,2,6,7,-1,-2,2,-5
20:39:19:670247,5,-15,-8,-15,-7,-4,-2,1
20:39:19:678525,-1,2,-4,-14,-6,-2,2,10
20:39:19:679241,-1,2,-4,-14,-6,-2,2,10
20:39:19:685308,-7,2,1,8,-2,-4,-5,-1
20:39:19:692757,6,0,-1,0,-1,2,3,23
20:39:19:700403,6,0,-1,0,-1,2,3,23
20:39:19:707740,-3,7,0,6,6,0,-14,-17
20:39:19:716028,-3,7,0,6,6,0,-14,-17
20:39:19:716885,-17,-9,-8,5,1,-1,-4,-4
20:39:19:730277,-5,-13,-9,-1,0,-2,1,5
20:39:19:738498,-5,-13,-9,-1,0,-2,1,5
20:39:19:739236,4,9,5,5,1,2,8,22
20:39:19:745286,-20,-16,1,2,-2,-2,-7,-39
20:39:19:761015,-20,-16,1,2,-2,-2,-7,-39
20:39:19:761755,8,8,7,2,-6,-3,-2,3
20:39:19:767776,-6,0,-1,-1,-1,-1,-1,20
20:39:19:775986,-6,0,-1,-1,-1,-1,-1,20
20:39:19:776869,-8,3,6,-6,4,1,0,-44
20:39:19:782775,1,-12,-2,5,-3,-3,-1,0
20:39:19:798534,1,-12,-2,5,-3,-3,-1,0
20:39:19:799268,1,-6,-1,2,-1,-1,4,14
20:39:19:805283,12,1,-5,-5,2,2,4,-18
20:39:19:821020,12,1,-5,-5,2,2,4,-18
20:39:19:821791,2,-7,-3,-1,-2,-3,-6,-5
20:39:19:827789,-1,-16,-16,-1,-2,0,5,23
20:39:19:836041,-1,-16,-16,-1,-2,0,5,23
20:39:19:836741,-5,-7,-4,-3,-2,-3,-5,-6
20:39:19:842744,9,6,3,1,0,2,-1,-3
20:39:19:858521,9,6,3,1,0,2,-1,-3
20:39:19:859243,-6,-3,-6,-2,-1,-4,-7,4
20:39:19:865290,-9,9,4,7,-1,-1,-1,-22
20:39:19:881011,-9,9,4,7,-1,-1,-1,-22
20:39:19:881770,25,9,-2,5,2,1,3,3
20:39:19:887896,3,11,6,0,-3,-4,-5,-4
20:39:19:896019,3,11,6,0,-3,-4,-5,-4
20:39:19:896763,3,-4,-9,-6,-4,-2,-2,-18
20:39:19:902740,-8,-3,10,-2,-3,-2,2,21
20:39:19:918537,-8,-3,10,-2,-3,-2,2,21
20:39:19:919263,-4,-2,12,2,-1,1,3,-5
20:39:19:925378,-4,6,1,-10,-1,-2,-6,-3
20:39:19:941016,-4,6,1,-10,-1,-2,-6,-3
20:39:19:941760,2,3,-7,-7,-4,-1,-4,3
20:39:19:947804,-2,-15,2,-2,2,1,3,-6
20:39:19:956054,-2,-15,2,-2,2,1,3,-6
20:39:19:956759,-3,4,-13,-6,-2,-6,-5,22
20:39:19:962735,0,-4,-4,1,2,1,2,20
20:39:19:978511,0,-4,-4,1,2,1,2,20
20:39:19:979253,-18,-9,8,5,-1,-1,-2,-3
20:39:19:985274,12,7,-3,-3,0,2,4,-3
20:39:20:1019,12,7,-3,-3,0,2,4,-3
20:39:20:1876,-9,-16,-7,-5,-1,-2,-8,-3
20:39:20:7765,8,2,-3,-9,-4,-4,-7,-14
20:39:20:16016,8,2,-3,-9,-4,-4,-7,-14
20:39:20:16767,-1,4,-8,1,1,0,3,4
20:39:20:22773,-1,4,4,-4,-1,-1,0,10
20:39:20:38506,-1,4,4,-4,-1,-1,0,10
20:39:20:39383,1,1,-1,0,-2,0,-3,-4
20:39:20:45303,0,3,-4,2,-3,-3,-1,-38
20:39:20:61017,0,3,-4,2,-3,-3,-1,-38
20:39:20:61875,-11,-10,-5,4,1,-2,-4,-17
20:39:20:67769,-5,-6,-16,-2,0,3,-5,1
20:39:20:76021,-5,-6,-16,-2,0,3,-5,1
20:39:20:76764,-6,0,1,3,-1,-3,0,-3
20:39:20:90293,4,4,6,4,2,1,4,5
20:39:20:98521,4,4,6,4,2,1,4,5
20:39:20:99380,12,-12,-2,-9,0,-1,-3,4
20:39:20:105258,-19,-8,0,1,-1,0,1,-5
20:39:20:121007,-19,-8,0,1,-1,0,1,-5
20:39:20:121881,5,-2,-9,-1,-1,2,9,0
20:39:20:127756,0,13,0,8,-3,-5,-6,23
