Time,EMG1,EMG2,EMG3,EMG4,EMG5,EMG6,EMG7,EMG8
13:24:54:742330,7,-1,-1,-4,-1,1,12,1
13:24:54:749786,-23,-4,1,-1,1,-2,-4,-13
13:24:54:757977,-23,-4,1,-1,1,-2,-4,-13
13:24:54:758792,30,5,-3,-1,-5,-6,0,4
13:24:54:772956,7,2,0,-1,-1,-3,-3,6
13:24:54:773763,7,2,0,-1,-1,-3,-3,6
13:24:54:779802,-28,-8,-2,-5,-1,-6,-17,-2
13:24:54:787303,20,3,-2,-1,-2,-4,-17,-8
13:24:54:802951,20,3,-2,-1,-2,-4,-17,-8
13:24:54:803778,5,-1,-2,1,0,-3,-1,-12
13:24:54:809774,-6,-5,-1,0,-2,-2,-5,10
13:24:54:817962,-6,-5,-1,0,-2,-2,-5,10
13:24:54:818782,30,1,0,-1,0,-1,0,2
13:24:54:832939,17,2,-2,1,-2,1,8,20
13:24:54:833758,17,2,-2,1,-2,1,8,20
13:24:54:839790,-4,-1,0,-4,0,-4,-12,-3
13:24:54:847259,-5,-1,0,-2,0,-1,-6,-1
13:24:54:854795,-5,-1,0,-2,0,-1,-6,-1
13:24:54:862279,6,-1,3,3,-1,1,-9,3
13:24:54:869749,-30,-10,-3,-4,-2,-1,20,-17
13:24:54:877961,-30,-10,-3,-4,-2,-1,20,-17
13:24:54:878767,8,0,-1,-1,2,3,19,15
13:24:54:892963,-21,-3,-3,1,-3,-1,-4,8
13:24:54:893749,-21,-3,-3,1,-3,-1,-4,8
13:24:54:899786,8,3,0,0,0,1,11,6
13:24:54:907232,26,-2,-2,-2,-2,0,15,31
13:24:54:914821,26,-2,-2,-2,-2,0,15,31
13:24:54:922244,-21,-2,0,-5,0,5,-3,-12
13:24:54:929728,16,1,0,1,-2,0,-11,-21
13:24:54:938045,16,1,0,1,-2,0,-11,-21
13:24:54:938807,-14,-4,1,-1,0,-3,5,-9
13:24:54:952988,-5,-1,1,-2,1,5,3,22
13:24:54:953800,-5,-1,1,-2,1,5,3,22
13:24:54:959745,7,5,-2,-1,1,1,10,26
13:24:54:967252,-8,3,0,2,0,0,-5,-12
13:24:54:974846,-8,3,0,2,0,0,-5,-12
13:24:54:982277,-31,-5,-3,-2,-4,-2,3,-7
13:24:54:989776,-10,1,0,0,0,-3,-7,-8
13:24:54:997765,-10,1,0,0,0,-3,-7,-8
13:24:55:4776,-2,-6,-4,-2,-1,-6,-29,-27
13:24:55:12941,3,-2,1,-4,0,2,20,-13
13:24:55:13763,3,-2,1,-4,0,2,20,-13
13:24:55:19781,7,-1,0,1,-2,-3,-10,-2
13:24:55:35488,-26,6,3,0,3,3,6,-5
13:24:55:36322,-26,6,3,0,3,3,6,-5
13:24:55:42275,22,0,-2,2,-1,-1,-5,-2
13:24:55:49777,46,-4,-5,0,-5,-3,0,6
13:24:55:57315,46,-4,-5,0,-5,-3,0,6
13:24:55:64817,15,1,1,1,-1,3,13,1
13:24:55:73328,6,-2,-1,-2,0,-3,-5,2
13:24:55:80468,6,-2,-1,-2,0,-3,-5,2
13:24:55:81251,-15,2,-2,-3,-4,-1,-1,0
13:24:55:95457,-17,-2,-1,-2,-2,-4,-6,3
13:24:55:96258,-17,-2,-1,-2,-2,-4,-6,3
13:24:55:102333,-2,-1,0,3,0,-2,13,-1
13:24:55:109777,-9,0,0,-2,-1,-1,0,-3
13:24:55:117317,-9,0,0,-2,-1,-1,0,-3
13:24:55:124736,-11,-3,0,-4,-1,-2,0,3
13:24:55:132949,-39,-9,-2,-5,1,0,6,-5
13:24:55:133796,-39,-9,-2,-5,1,0,6,-5
13:24:55:139731,23,1,-3,0,-4,-3,-10,11
13:24:55:155432,-23,-3,-2,-1,-1,-5,-25,-18
13:24:55:156264,-23,-3,-2,-1,-1,-5,-25,-18
13:24:55:162251,-3,0,4,-4,1,0,9,-4
13:24:55:169782,11,-1,-3,4,-3,-1,-11,-9
13:24:55:177344,11,-1,-3,4,-3,-1,-11,-9
13:24:55:184772,0,4,0,1,-2,-4,-20,-20
13:24:55:192998,11,-4,-1,-2,0,1,-2,-15
13:24:55:193785,11,-4,-1,-2,0,1,-2,-15
13:24:55:199785,-22,-5,1,-1,1,3,0,-7
13:24:55:215490,2,5,0,0,0,0,2,16
13:24:55:216269,2,5,0,0,0,0,2,16
13:24:55:222280,-12,-5,-2,-2,-2,-3,-1,-1
13:24:55:229749,-22,-1,0,-3,-1,-1,-6,3
13:24:55:237334,-22,-1,0,-3,-1,-1,-6,3
13:24:55:244785,3,-2,-3,0,1,1,3,25
13:24:55:253051,7,-1,0,3,2,0,9,4
13:24:55:253811,7,-1,0,3,2,0,9,4
13:24:55:259761,13,-3,-1,1,-2,-1,6,-7
13:24:55:276148,-6,-3,-3,0,-2,-2,-1,15
13:24:55:276957,-6,-3,-3,0,-2,-2,-1,15
13:24:55:282276,11,0,-1,0,3,3,-1,9
13:24:55:289774,-17,-5,-2,-4,-3,-7,-14,-27
13:24:55:297358,-17,-5,-2,-4,-3,-7,-14,-27
13:24:55:304781,-11,2,2,-3,0,2,-4,-15
13:24:55:312945,33,5,2,2,1,5,-8,-4
13:24:55:313783,33,5,2,2,1,5,-8,-4
13:24:55:319793,3,-1,0,1,-1,-1,-4,0
13:24:55:335405,-1,0,1,1,0,4,13,-6
13:24:55:336259,-1,0,1,1,0,4,13,-6
13:24:55:342275,7,0,-2,-1,-1,-6,-12,-5
13:24:55:349783,33,2,-1,0,1,-1,6,27
13:24:55:357321,33,2,-1,0,1,-1,6,27
13:24:55:364835,-20,-4,-3,-4,-3,-2,5,-6
13:24:55:381093,13,-2,-1,-3,-2,-5,-9,-24
13:24:55:381917,13,-2,-1,-3,-2,-5,-9,-24
13:24:55:382694,-9,-2,-3,-2,0,-3,-7,2
13:24:55:403624,-2,2,-2,0,-1,-3,-6,9
13:24:55:404418,-2,2,-2,0,-1,-3,-6,9
13:24:55:405265,-18,-4,-2,-1,0,8,21,6
13:24:55:409744,-23,-1,1,-3,-2,0,-2,7
13:24:55:417314,-23,-1,1,-3,-2,0,-2,7
13:24:55:424753,-6,-1,-2,-1,-1,-5,-3,6
13:24:55:433055,-41,-8,-4,-2,-4,-2,3,-9
13:24:55:433722,-41,-8,-4,-2,-4,-2,3,-9
13:24:55:439767,19,-1,1,-1,1,2,1,-7
13:24:55:455484,14,-1,-2,2,-4,1,11,17
13:24:55:456286,14,-1,-2,2,-4,1,11,17
13:24:55:462269,-3,0,-2,-1,-4,-4,-1,-2
13:24:55:477974,3,3,-3,-3,2,-2,-4,-9
13:24:55:478813,3,3,-3,-3,2,-2,-4,-9
13:24:55:484774,-24,0,-1,-1,-1,-1,-11,1
13:24:55:492962,14,-1,2,-1,1,1,5,2
13:24:55:493823,14,-1,2,-1,1,1,5,2
13:24:55:499773,6,2,2,1,-5,0,1,-11
13:24:55:515459,-35,-4,-1,0,0,1,5,-15
13:24:55:516301,-35,-4,-1,0,0,1,5,-15
13:24:55:522290,2,-6,1,-4,0,-4,4,4
13:24:55:529748,5,-3,-1,-1,-2,-3,-13,-6
13:24:55:537334,5,-3,-1,-1,-2,-3,-13,-6
13:24:55:544771,45,5,-5,-1,-4,-4,-14,-15
13:24:55:552938,-4,-4,-3,-1,-3,-4,-9,13
13:24:55:553730,-4,-4,-3,-1,-3,-4,-9,13
13:24:55:567243,-11,-5,1,-2,4,2,-1,10
13:24:55:575480,2,-1,1,-1,0,0,0,0
13:24:55:576292,2,-1,1,-1,0,0,0,0
13:24:55:582275,-24,-3,0,-3,-3,-2,-1,7
13:24:55:589761,18,-2,-1,1,1,-2,0,-9
13:24:55:597357,18,-2,-1,1,1,-2,0,-9
13:24:55:604780,-3,-1,-2,-1,-2,-4,-4,-8
13:24:55:612939,10,8,3,1,-3,-6,-9,-9
13:24:55:613743,10,8,3,1,-3,-6,-9,-9
13:24:55:619798,3,2,2,-3,1,1,9,-5
13:24:55:635901,33,5,0,-1,1,1,3,7
13:24:55:636708,33,5,0,-1,1,1,3,7
13:24:55:642262,13,2,0,2,0,0,2,3
13:24:55:649769,7,-3,-1,-5,0,-5,-6,-22
13:24:55:657313,7,-3,-1,-5,0,-5,-6,-22
13:24:55:664810,19,5,-3,2,0,2,7,30
13:24:55:672956,-26,-6,-3,-3,0,1,10,10
13:24:55:673759,-26,-6,-3,-3,0,1,10,10
13:24:55:679729,-20,-9,-2,-2,0,-3,-21,-19
13:24:55:695446,0,-3,-2,-1,0,1,-4,1
13:24:55:696270,0,-3,-2,-1,0,1,-4,1
13:24:55:702297,17,4,0,2,1,-1,-2,4
13:24:55:709782,37,1,-1,5,3,9,18,0
13:24:55:717295,37,1,-1,5,3,9,18,0
13:24:55:724752,-32,-4,-4,-3,-1,-2,0,-14
13:24:55:732964,-23,-1,2,-2,1,-3,1,-6
13:24:55:733819,-23,-1,2,-2,1,-3,1,-6
13:24:55:739759,-19,-6,-2,-3,-1,1,0,0
13:24:55:755437,4,-4,-3,-5,-5,-4,4,11
13:24:55:756257,4,-4,-3,-5,-5,-4,4,11
13:24:55:762239,-32,-2,0,-1,-1,-3,3,-5
13:24:55:769740,-33,-4,-1,0,-3,0,12,27
13:24:55:777335,-33,-4,-1,0,-3,0,12,27
13:24:55:784754,38,0,-1,0,-3,-2,-3,8
13:24:55:792978,11,3,-2,-2,1,-1,-17,18
13:24:55:793790,11,3,-2,-2,1,-1,-17,18
13:24:55:799756,-25,-4,-2,2,-3,-5,-26,-19
13:24:55:823596,7,-2,1,-4,0,-5,-15,-30
13:24:55:824423,7,-2,1,-4,0,-5,-15,-30
13:24:55:825258,-27,-4,-1,-4,-4,-6,-16,-34
13:24:55:829825,-10,0,-1,4,0,-1,9,-7
13:24:55:837296,-10,0,-1,4,0,-1,9,-7
13:24:55:844753,-3,1,0,-2,-1,0,-5,-10
13:24:55:852974,-4,0,2,0,-1,5,4,-1
13:24:55:853790,-4,0,2,0,-1,5,4,-1
13:24:55:859741,13,4,2,0,1,4,17,13
13:24:55:875454,-8,-4,-2,0,0,-1,-8,10
13:24:55:876274,-8,-4,-2,0,0,-1,-8,10
13:24:55:882252,-17,-1,0,-1,2,3,9,5
13:24:55:889755,0,-4,-3,-1,-1,-3,-6,-2
13:24:55:897335,0,-4,-3,-1,-1,-3,-6,-2
13:24:55:904747,10,0,-1,-5,-2,-2,-3,0
13:24:55:912981,-26,-4,-3,1,-2,0,2,29
13:24:55:913832,-26,-4,-3,1,-2,0,2,29
13:24:55:919778,34,1,-3,1,-1,-4,-7,-5
13:24:55:935461,30,0,-3,-3,-6,-7,-20,-26
13:24:55:936312,30,0,-3,-3,-6,-7,-20,-26
13:24:55:942242,30,-2,-2,-3,-3,-3,-5,-5
13:24:55:949748,-9,-2,-2,-2,-1,-3,-7,-17
13:24:55:957357,-9,-2,-2,-2,-1,-3,-7,-17
13:24:55:964780,-10,-2,0,-2,1,3,16,11
13:24:55:972945,-15,0,-2,-3,-2,-2,-2,-10
13:24:55:973754,-15,0,-2,-3,-2,-2,-2,-10
13:24:55:987258,-39,-5,-1,1,1,2,-1,-7
13:24:55:995476,12,6,-1,0,0,2,2,-6
13:24:55:996311,12,6,-1,0,0,2,2,-6
13:24:56:2295,-10,-2,-2,-2,1,0,7,12
13:24:56:17985,0,-8,-2,-1,-3,-3,-8,13
13:24:56:18789,0,-8,-2,-1,-3,-3,-8,13
13:24:56:24758,-37,2,0,-1,0,3,14,-8
13:24:56:32983,-19,-2,-1,2,0,-1,-16,-18
13:24:56:33795,-19,-2,-1,2,0,-1,-16,-18
13:24:56:47250,23,1,1,0,0,-2,-15,-9
13:24:56:55466,-37,-1,0,-1,-1,5,17,2
13:24:56:56306,-37,-1,0,-1,-1,5,17,2
13:24:56:62248,5,3,1,0,-1,-3,-8,12
13:24:56:77955,19,3,0,0,1,-2,-9,-7
13:24:56:78816,19,3,0,0,1,-2,-9,-7
13:24:56:84762,6,-5,-3,-1,-2,-1,2,19
13:24:56:93087,6,-5,-3,-1,-2,-1,2,19
13:24:56:93930,-2,-2,5,-2,3,1,15,-5
13:24:56:107243,12,0,-1,1,0,-2,4,9
13:24:56:115477,12,0,-1,1,0,-2,4,9
13:24:56:116311,85,6,2,-2,1,4,16,17
13:24:56:122256,2,-4,-1,-1,-1,-4,-18,-1
13:24:56:137985,2,-4,-1,-1,-1,-4,-18,-1
13:24:56:138787,3,0,0,1,0,0,22,0
13:24:56:144753,7,-5,0,-3,0,3,12,12
13:24:56:153002,7,-5,0,-3,0,3,12,12
13:24:56:153783,-30,-2,-1,-1,1,3,-14,-23
13:24:56:167248,-9,1,-1,0,-2,1,1,-3
13:24:56:175471,-9,1,-1,0,-2,1,1,-3
13:24:56:176274,0,-2,0,0,0,-3,-6,15
13:24:56:182246,31,2,0,0,-2,2,-5,-12
13:24:56:197977,31,2,0,0,-2,2,-5,-12
13:24:56:198789,18,3,0,1,-3,-2,-7,-5
13:24:56:204740,3,3,-4,-2,1,-2,-4,4
13:24:56:212985,3,3,-4,-2,1,-2,-4,4
13:24:56:213779,9,0,-2,-1,-2,-6,-13,-20
13:24:56:227272,4,0,1,-1,-3,-3,-1,-7
13:24:56:235456,4,0,1,-1,-3,-3,-1,-7
13:24:56:236296,-19,-3,-3,-1,0,-5,-17,-13
13:24:56:242232,-25,-2,0,-3,-1,-2,3,-9
13:24:56:257956,-25,-2,0,-3,-1,-2,3,-9
13:24:56:258744,-15,-3,-3,-2,-2,-1,12,14
13:24:56:264787,-15,-4,-1,-2,1,-3,-9,-3
13:24:56:272981,-15,-4,-1,-2,1,-3,-9,-3
13:24:56:273754,13,-2,-2,0,-4,-4,-4,13
13:24:56:287260,14,-2,-2,1,-1,0,10,29
13:24:56:295449,14,-2,-2,1,-1,0,10,29
13:24:56:296267,-13,-6,-3,-5,1,2,28,11
13:24:56:309773,22,2,1,-2,0,0,11,0
13:24:56:317962,22,2,1,-2,0,0,11,0
13:24:56:318746,-61,-6,2,-3,3,3,-1,0
13:24:56:324799,11,1,-1,0,-4,-5,-15,11
13:24:56:332967,11,1,-1,0,-4,-5,-15,11
13:24:56:333781,-12,-1,0,-2,0,-4,-13,3
13:24:56:347262,-15,0,2,1,2,8,25,-6
13:24:56:355449,-15,0,2,1,2,8,25,-6
13:24:56:356264,29,-1,-3,-2,-4,-8,-14,-9
13:24:56:362289,-22,-6,-3,-1,-3,-2,5,-5
13:24:56:378091,-22,-6,-3,-1,-3,-2,5,-5
13:24:56:378811,20,-1,-3,-2,-2,-2,-4,-18
13:24:56:384806,-16,-5,-1,-3,0,0,-4,-14
13:24:56:392943,-16,-5,-1,-3,0,0,-4,-14
13:24:56:393748,-13,-2,-3,1,-2,-5,-31,-8
13:24:56:407283,14,6,1,3,0,0,10,21
13:24:56:415475,14,6,1,3,0,0,10,21
13:24:56:416224,-14,-2,-3,1,-3,-5,-20,3
13:24:56:422293,11,4,3,-3,2,4,9,-10
13:24:56:438068,11,4,3,-3,2,4,9,-10
13:24:56:438790,15,4,1,-1,-3,-1,4,23
13:24:56:444795,2,-2,-4,-2,-4,-7,-29,-21
13:24:56:452955,2,-2,-4,-2,-4,-7,-29,-21
13:24:56:453761,-8,2,-2,-2,0,3,14,-17
13:24:56:467259,4,-2,-2,-6,-3,-8,-22,-13
13:24:56:475587,4,-2,-2,-6,-3,-8,-22,-13
13:24:56:476309,3,1,1,-1,0,1,5,-3
13:24:56:482282,-3,0,-1,2,1,3,14,14
13:24:56:498080,-3,0,-1,2,1,3,14,14
13:24:56:498725,14,2,1,-1,1,1,4,15
13:24:56:504763,20,-2,-1,-1,0,-4,-10,-32
13:24:56:513051,20,-2,-1,-1,0,-4,-10,-32
13:24:56:513801,-15,-2,0,1,0,0,9,-8
13:24:56:527233,-3,0,-3,1,-5,-3,-9,-7
13:24:56:535483,-3,0,-3,1,-5,-3,-9,-7
13:24:56:536302,0,-2,2,-3,1,4,24,5
13:24:56:542273,-62,-12,-2,-3,0,3,8,46
13:24:56:557976,-62,-12,-2,-3,0,3,8,46
13:24:56:558813,-51,-9,-3,-4,1,0,9,8
13:24:56:564742,31,8,0,4,-1,-5,-12,15
13:24:56:573056,31,8,0,4,-1,-5,-12,15
13:24:56:573705,-1,8,-3,-5,-1,-1,5,23
13:24:56:587286,-2,-6,1,-1,0,-4,-21,-31
13:24:56:595466,-2,-6,1,-1,0,-4,-21,-31
13:24:56:596266,32,0,-2,0,0,-4,-8,-25
13:24:56:602249,-5,0,-2,0,-1,-1,11,5
13:24:56:617986,-5,0,-2,0,-1,-1,11,5
13:24:56:618790,-5,0,-2,4,1,4,-2,-4
13:24:56:624758,19,-2,0,2,-1,1,-12,-13
13:24:56:632980,19,-2,0,2,-1,1,-12,-13
13:24:56:633801,3,-2,-1,1,0,2,-5,13
13:24:56:647236,23,4,-1,0,-1,-1,-6,-2
13:24:56:655497,23,4,-1,0,-1,-1,-6,-2
13:24:56:656283,55,7,-2,0,-3,-1,-5,1
13:24:56:662242,17,-2,-1,1,-2,-3,-6,-8
13:24:56:677959,17,-2,-1,1,-2,-3,-6,-8
13:24:56:678744,-3,-3,1,-1,0,1,15,5
13:24:56:684719,-36,0,-1,-1,1,3,27,-14
13:24:56:693012,-36,0,-1,-1,1,3,27,-14
13:24:56:693755,6,-1,2,-5,-3,0,-5,-5
13:24:56:707269,-5,-5,-1,-3,2,0,-5,3
13:24:56:715444,-5,-5,-1,-3,2,0,-5,3
13:24:56:716286,-20,-3,-1,1,-1,-3,-20,-6
13:24:56:722228,-18,1,3,-5,1,8,26,22
13:24:56:737949,-18,1,3,-5,1,8,26,22
13:24:56:738749,17,4,0,2,0,-3,-11,3
13:24:56:744788,-10,-1,0,2,4,9,43,25
13:24:56:752973,-10,-1,0,2,4,9,43,25
13:24:56:753783,-25,-4,-1,-4,0,-4,-2,-22
13:24:56:767320,-7,-1,1,-3,-3,-3,-12,-25
13:24:56:775475,-7,-1,1,-3,-3,-3,-12,-25
13:24:56:776270,11,-2,-1,2,1,-5,-15,-9
13:24:56:782273,2,0,-1,-5,0,-4,-14,-13
13:24:56:797961,2,0,-1,-5,0,-4,-14,-13
13:24:56:798771,3,0,-1,-1,-3,-1,5,8
13:24:56:804803,-1,-2,1,2,1,2,15,22
13:24:56:812947,-1,-2,1,2,1,2,15,22
13:24:56:813741,-19,-3,-2,0,-2,-2,-4,6
13:24:56:827272,3,-2,-3,-2,-2,3,29,5
13:24:56:835461,3,-2,-3,-2,-2,3,29,5
13:24:56:836256,-14,0,-1,0,3,2,-19,-8
13:24:56:842275,11,4,-1,2,-3,-5,-29,5
13:24:56:866130,11,4,-1,2,-3,-5,-29,5
13:24:56:866946,4,-4,-2,-4,-1,-8,-51,-31
13:24:56:867767,-33,-7,-5,-3,-3,-12,-58,-5
13:24:56:872970,-33,-7,-5,-3,-3,-12,-58,-5
13:24:56:873799,10,0,0,3,-3,1,6,31
13:24:56:887281,28,5,-2,-2,-7,-5,-15,-15
13:24:56:895471,28,5,-2,-2,-7,-5,-15,-15
13:24:56:896317,-4,-2,-3,-4,-1,-1,11,-5
13:24:56:902244,-4,0,0,-2,0,0,18,-1
13:24:56:917994,-4,0,0,-2,0,0,18,-1
13:24:56:918767,9,2,-1,-2,0,3,16,-1
13:24:56:924759,-1,-5,-1,-1,1,-7,-32,-9
13:24:56:932336,-1,-5,-1,-1,1,-7,-32,-9
13:24:56:939766,-10,-2,2,-2,2,3,19,1
13:24:56:947262,-18,0,0,1,-1,1,4,-10
13:24:56:955488,-18,0,0,1,-1,1,4,-10
13:24:56:956327,-5,2,-3,0,-4,0,13,16
13:24:56:969791,0,-2,-1,-2,-1,2,22,33
13:24:56:977983,0,-2,-1,-2,-1,2,22,33
13:24:56:978779,-18,0,1,-4,0,0,1,-6
13:24:56:984788,11,-1,-3,-4,-1,-4,-8,-19
13:24:56:992402,11,-1,-3,-4,-1,-4,-8,-19
13:24:56:999799,1,-3,-1,-1,-1,0,3,-12
13:24:57:7308,16,2,-2,-1,-2,-2,-13,-1
13:24:57:15434,16,2,-2,-1,-2,-2,-13,-1
13:24:57:16260,-14,-2,-1,0,1,0,13,-4
13:24:57:29757,0,-2,0,-1,-2,-2,6,23
13:24:57:37977,0,-2,0,-1,-2,-2,6,23
13:24:57:38831,-11,-3,-3,2,-2,-6,-24,-16
13:24:57:44800,-12,-6,-4,-4,-1,-2,-2,-14
13:24:57:52284,-12,-6,-4,-4,-1,-2,-2,-14
13:24:57:59774,11,-3,-1,1,-1,0,9,27
13:24:57:67297,31,9,1,3,-1,3,14,6
13:24:57:75454,31,9,1,3,-1,3,14,6
13:24:57:76249,-12,-3,-3,-3,-1,-3,-26,-18
13:24:57:89780,4,-4,-3,-1,0,-3,-10,-27
13:24:57:97994,4,-4,-3,-1,0,-3,-10,-27
13:24:57:98765,-11,-1,0,-2,-1,0,12,1
13:24:57:104772,-13,-2,0,0,1,-1,-2,2
13:24:57:112344,-13,-2,0,0,1,-1,-2,2
13:24:57:119734,-6,0,1,-4,0,0,2,-7
13:24:57:127242,-5,-1,1,0,1,4,10,5
13:24:57:142958,-5,-1,1,0,1,4,10,5
13:24:57:143765,-3,-4,0,-2,-1,-4,-7,3
13:24:57:149788,20,-3,0,1,-1,5,40,6
13:24:57:157981,20,-3,0,1,-1,5,40,6
13:24:57:158746,43,3,6,0,1,0,-6,5
13:24:57:164831,-54,-4,-2,-3,-2,-8,-31,-16
13:24:57:172313,-54,-4,-2,-3,-2,-8,-31,-16
13:24:57:179740,-9,0,-1,-2,-3,1,17,-5
13:24:57:187218,2,0,-1,0,1,1,2,7
13:24:57:195482,2,0,-1,0,1,1,2,7
13:24:57:196285,-11,-2,-2,-1,1,1,3,-7
13:24:57:209746,-46,-8,-5,-7,-3,-4,-4,3
13:24:57:217964,-46,-8,-5,-7,-3,-4,-4,3
13:24:57:218779,-7,-3,-3,0,0,1,18,6
13:24:57:224754,-2,-6,-1,-3,1,-4,-5,-12
13:24:57:232321,-2,-6,-1,-3,1,-4,-5,-12
13:24:57:239773,-19,-2,-3,0,-3,-2,-3,-4
13:24:57:247292,3,1,0,-2,-4,-3,-15,-9
13:24:57:255486,3,1,0,-2,-4,-3,-15,-9
13:24:57:256335,46,3,-2,1,0,-2,-12,5
13:24:57:269750,-4,-1,-1,-1,2,8,42,45
13:24:57:278000,-4,-1,-1,-1,2,8,42,45
13:24:57:278779,12,4,1,1,-2,4,19,-16
13:24:57:284775,-29,-3,0,1,-2,-9,-33,-16
13:24:57:292339,-29,-3,0,1,-2,-9,-33,-16
13:24:57:299770,5,-1,1,-4,-1,-3,4,7
13:24:57:307293,37,2,-1,1,-1,1,9,4
13:24:57:315454,37,2,-1,1,-1,1,9,4
13:24:57:316245,-2,-3,-2,-3,-3,-7,-25,-20
13:24:57:329780,6,-1,0,-1,-1,2,6,-11
13:24:57:337984,6,-1,0,-1,-1,2,6,-11
13:24:57:338824,2,-2,-3,1,1,2,23,37
13:24:57:344783,9,3,1,-3,2,2,-2,-16
13:24:57:352288,9,3,1,-3,2,2,-2,-16
13:24:57:359810,-23,1,-1,-3,-1,-4,-23,-1
13:24:57:367311,-5,-2,-1,-2,0,-1,2,10
13:24:57:375471,-5,-2,-1,-2,0,-1,2,10
13:24:57:376263,4,2,1,0,-2,-1,-1,-12
13:24:57:389782,-11,1,-3,3,-4,-7,-39,-9
13:24:57:397977,-11,1,-3,3,-4,-7,-39,-9
13:24:57:398767,11,2,0,-1,2,-2,-11,23
13:24:57:404793,12,1,0,0,0,-5,-14,-15
13:24:57:420516,12,1,0,0,0,-5,-14,-15
13:24:57:421299,-26,-7,-3,2,-2,-3,-7,-3
13:24:57:427272,18,-4,0,-3,-3,-5,2,-4
13:24:57:435452,18,-4,0,-3,-3,-5,2,-4
13:24:57:436265,6,-1,1,-5,-1,1,4,-15
13:24:57:458620,16,3,-1,0,-3,-4,4,22
13:24:57:459476,16,3,-1,0,-3,-4,4,22
13:24:57:460258,22,-6,-2,-1,-2,-2,-11,-11
13:24:57:464756,4,2,1,-2,2,3,-14,4
13:24:57:472335,4,2,1,-2,2,3,-14,4
13:24:57:479775,8,2,-2,5,0,-2,-19,-1
13:24:57:487266,20,-3,0,-1,0,1,25,10
13:24:57:495485,20,-3,0,-1,0,1,25,10
13:24:57:496325,-26,-3,-1,2,-2,-2,-12,-12
13:24:57:509763,-3,2,0,-1,-1,1,6,13
13:24:57:517991,-3,2,0,-1,-1,1,6,13
13:24:57:518796,4,-1,-2,-2,-1,-5,2,10
13:24:57:524761,-9,-4,-2,2,0,3,12,31
13:24:57:532339,-9,-4,-2,2,0,3,12,31
13:24:57:539797,-22,0,1,0,0,4,18,5
13:24:57:547260,-36,1,-2,-3,-2,4,28,-4
13:24:57:555456,-36,1,-2,-3,-2,4,28,-4
13:24:57:556241,10,-2,-2,-1,0,7,43,50
13:24:57:569763,-61,-10,-4,-4,-2,-3,10,-8
13:24:57:577987,-61,-10,-4,-4,-2,-3,10,-8
13:24:57:578809,-21,-4,-1,-2,-2,-6,-20,-23
13:24:57:584815,-6,0,-1,-4,0,-10,-48,-26
13:24:57:592302,-6,0,-1,-4,0,-10,-48,-26
13:24:57:599800,13,4,-1,-1,-1,3,14,25
13:24:57:607303,35,2,-1,1,-1,2,6,-38
13:24:57:615472,35,2,-1,1,-1,2,6,-38
13:24:57:616247,17,-3,-1,-3,-3,-6,-6,-18
13:24:57:629798,3,-3,-1,-1,0,-2,-15,-22
13:24:57:637967,3,-3,-1,-1,0,-2,-15,-22
13:24:57:638754,-1,-3,0,-2,-1,0,0,-3
13:24:57:644786,23,3,1,1,0,3,19,3
13:24:57:652310,23,3,1,1,0,3,19,3
13:24:57:659752,-30,-2,1,-1,0,7,27,-12
13:24:57:667249,1,0,0,0,-1,0,-2,32
13:24:57:675503,1,0,0,0,-1,0,-2,32
13:24:57:676314,13,-1,-2,-1,-1,-6,-34,-36
13:24:57:698582,10,2,2,-1,1,0,-4,-9
13:24:57:699407,10,2,2,-1,1,0,-4,-9
13:24:57:700265,-16,0,-1,0,-4,-7,-4,-2
13:24:57:704808,-17,-2,-1,-2,0,-4,-15,17
13:24:57:712303,-17,-2,-1,-2,0,-4,-15,17
13:24:57:719785,23,3,2,-2,-1,2,6,21
13:24:57:727297,-2,-2,-2,-5,-3,-1,12,-19
13:24:57:735474,-2,-2,-2,-5,-3,-1,12,-19
13:24:57:736277,0,-3,-3,0,0,1,-8,0
13:24:57:749820,6,1,-3,2,-1,1,-5,-9
13:24:57:757964,6,1,-3,2,-1,1,-5,-9
13:24:57:758759,19,-1,-1,-4,-1,4,31,-1
13:24:57:764788,-8,-3,1,-2,2,5,22,9
13:24:57:772340,-8,-3,1,-2,2,5,22,9
13:24:57:779733,8,1,0,3,1,-1,-8,-13
13:24:57:787243,4,-5,0,-2,-2,-6,-8,-4
13:24:57:795466,4,-5,0,-2,-2,-6,-8,-4
13:24:57:796307,1,1,1,-2,0,3,18,-8
13:24:57:809851,-11,-1,-2,-1,-1,3,11,14
13:24:57:817988,-11,-1,-2,-1,-1,3,11,14
13:24:57:818780,20,3,3,0,1,2,7,13
13:24:57:824767,-5,1,-1,-1,-2,0,-7,12
13:24:57:832315,-5,1,-1,-1,-2,0,-7,12
13:24:57:839774,3,-1,-2,1,0,2,1,11
13:24:57:847270,6,1,-1,-1,-1,-3,-8,-34
13:24:57:855503,6,1,-1,-1,-1,-3,-8,-34
13:24:57:856299,-7,-1,-1,-1,-2,-4,-1,32
13:24:57:869744,-21,-7,0,-4,-2,-6,-21,-4
13:24:57:877974,-21,-7,0,-4,-2,-6,-21,-4
13:24:57:878763,-3,-1,0,2,2,7,25,12
13:24:57:892956,-17,2,-3,0,-1,-7,-15,3
13:24:57:893767,-17,2,-3,0,-1,-7,-15,3
13:24:57:899726,16,1,2,0,3,4,-13,-28
13:24:57:907259,18,3,3,3,4,5,16,0
13:24:57:914824,18,3,3,3,4,5,16,0
13:24:57:922281,-23,-2,-1,0,-2,-4,-11,-6
13:24:57:929779,20,-2,-4,1,-3,-2,1,-5
13:24:57:938006,20,-2,-4,1,-3,-2,1,-5
13:24:57:938790,12,0,0,-3,-2,-6,-6,5
13:24:57:952962,-1,2,-3,1,-1,-2,-1,4
13:24:57:953829,-1,2,-3,1,-1,-2,-1,4
13:24:57:959810,-26,-5,-1,-1,1,1,5,-12
13:24:57:967313,3,-1,-4,0,-2,0,-1,8
13:24:57:974884,3,-1,-4,0,-2,0,-1,8
13:24:57:982315,-35,-3,-2,-2,-3,-7,-12,-20
13:24:57:998678,-8,-6,1,-4,-1,-2,1,-3
13:24:57:999453,-8,-6,1,-4,-1,-2,1,-3
13:24:58:286,15,1,-2,2,-2,3,26,39
13:24:58:12974,-4,-4,-4,-5,0,-5,-13,-4
13:24:58:13805,-4,-4,-4,-5,0,-5,-13,-4
13:24:58:19761,-57,-10,-3,-6,-3,-5,-16,-13
13:24:58:27282,10,0,1,1,1,2,-2,-7
13:24:58:34853,10,0,1,1,1,2,-2,-7
13:24:58:42277,11,-1,-4,0,-4,-1,-5,-13
13:24:58:49765,-11,-4,0,0,1,3,5,7
13:24:58:58001,-11,-4,0,0,1,3,5,7
13:24:58:58821,-1,-4,-1,-2,1,-4,-17,-7
13:24:58:72982,10,1,-2,-2,-2,-1,-7,-8
13:24:58:73811,10,1,-2,-2,-2,-1,-7,-8
13:24:58:79767,3,1,1,-1,1,-2,10,27
13:24:58:87267,-20,-2,-2,-3,1,-1,-1,0
13:24:58:94846,-20,-2,-2,-3,1,-1,-1,0
13:24:58:102304,-16,-2,-2,0,1,-3,-15,-10
13:24:58:109787,5,1,-1,-1,-4,-3,-1,10
13:24:58:117956,5,1,-1,-1,-4,-3,-1,10
13:24:58:118771,37,5,0,-2,-2,-8,-9,-7
13:24:58:133422,11,-4,-2,-3,-2,-6,-16,-26
13:24:58:134217,11,-4,-2,-3,-2,-6,-16,-26
13:24:58:139756,19,3,-2,1,-1,-4,-17,2
13:24:58:147299,9,5,1,2,2,6,30,10
13:24:58:154817,9,5,1,2,2,6,30,10
13:24:58:179311,-10,-3,-1,-3,-2,-1,0,-9
13:24:58:180074,-12,-1,1,-2,0,-2,-5,10
13:24:58:180917,-12,-1,1,-2,0,-2,-5,10
13:24:58:181758,-15,-2,0,-3,1,-1,-5,-9
13:24:58:192941,6,1,1,0,-1,2,11,8
13:24:58:193803,6,1,1,0,-1,2,11,8
13:24:58:199739,-40,-5,2,-4,-1,-2,-6,0
13:24:58:207242,3,-1,-1,-3,-1,-4,-14,-6
13:24:58:214832,3,-1,-1,-3,-1,-4,-14,-6
13:24:58:222282,1,-3,-3,1,-1,2,7,12
13:24:58:229799,-31,0,0,2,18,15,1,10
13:24:58:237977,-31,0,0,2,18,15,1,10
13:24:58:238794,4,-2,-1,-3,-3,-11,2,-5
13:24:58:253436,-3,-14,-2,-5,-44,-2,14,0
13:24:58:254266,-3,-14,-2,-5,-44,-2,14,0
13:24:58:259759,8,6,0,0,-3,-15,-3,2
13:24:58:267274,11,4,2,5,40,69,8,0
13:24:58:274849,11,4,2,5,40,69,8,0
13:24:58:282286,7,4,0,0,17,-21,-15,-10
13:24:58:289778,9,5,0,-4,-20,-10,0,15
13:24:58:297976,9,5,0,-4,-20,-10,0,15
13:24:58:298792,1,-12,-4,-2,2,9,-2,11
13:24:58:312987,1,4,3,-2,0,3,-2,-2
13:24:58:313854,1,4,3,-2,0,3,-2,-2
13:24:58:319771,6,-11,-4,-10,-8,-7,-2,16
13:24:58:327300,-7,6,-1,2,4,-8,6,-8
13:24:58:334824,-7,6,-1,2,4,-8,6,-8
13:24:58:342322,4,7,-2,-13,-60,-1,3,-22
13:24:58:349837,-3,-8,-3,1,0,-43,-22,-12
13:24:58:357974,-3,-8,-3,1,0,-43,-22,-12
13:24:58:358796,-10,-13,0,3,-9,15,-4,-2
13:24:58:372959,6,4,-1,-9,-20,-36,-3,9
13:24:58:373774,6,4,-1,-9,-20,-36,-3,9
13:24:58:379809,-8,-2,-5,5,41,49,-2,-16
13:24:58:387297,13,2,3,6,5,5,1,7
13:24:58:394807,13,2,3,6,5,5,1,7
13:24:58:402271,-3,0,0,-3,8,-4,-2,-7
13:24:58:409760,-4,-1,-3,-8,6,10,-7,-10
13:24:58:418014,-4,-1,-3,-8,6,10,-7,-10
13:24:58:418772,2,8,0,-17,-3,-13,6,10
13:24:58:432979,-4,-5,9,11,-2,0,-5,-5
13:24:58:433765,-4,-5,9,11,-2,0,-5,-5
13:24:58:439766,1,1,-1,6,-2,-5,0,2
13:24:58:447250,-3,-1,-15,-33,2,-6,-4,-6
13:24:58:454852,-3,-1,-15,-33,2,-6,-4,-6
13:24:58:462265,-1,-1,7,5,-2,5,0,-4
13:24:58:469741,2,2,5,12,1,-5,2,3
13:24:58:478009,2,2,5,12,1,-5,2,3
13:24:58:478795,-2,-2,-3,0,-1,-1,3,-1
13:24:58:492234,-1,-6,-14,-8,2,-8,-4,-4
13:24:58:500473,-1,-6,-14,-8,2,-8,-4,-4
13:24:58:501295,-6,-11,2,12,-5,-7,-1,1
13:24:58:507229,-3,-5,1,0,1,4,0,-2
13:24:58:514833,-3,-5,1,0,1,4,0,-2
13:24:58:522275,-1,5,-1,4,2,-11,-6,-1
13:24:58:529781,-1,-2,-2,-3,-5,-1,-3,-4
13:24:58:537994,-1,-2,-2,-3,-5,-1,-3,-4
13:24:58:538796,-6,-1,4,11,2,-1,-2,0
13:24:58:552979,-4,-12,-16,3,7,-5,-3,-1
13:24:58:553812,-4,-12,-16,3,7,-5,-3,-1
13:24:58:559778,0,6,1,-6,4,9,4,1
13:24:58:567272,-3,0,4,3,-4,-4,-3,-1
13:24:58:574850,-3,0,4,3,-4,-4,-3,-1
13:24:58:582280,-1,0,5,2,-4,-2,0,-2
13:24:58:589789,1,2,13,14,2,1,-1,-2
13:24:58:597959,1,2,13,14,2,1,-1,-2
13:24:58:598781,2,3,-8,-6,-1,-5,-2,-4
13:24:58:612994,0,1,1,-7,-5,-2,-2,2
13:24:58:613813,0,1,1,-7,-5,-2,-2,2
13:24:58:619777,-1,-6,-5,-5,-3,1,2,2
13:24:58:627287,0,0,4,6,0,-4,-2,-2
13:24:58:634821,0,0,4,6,0,-4,-2,-2
13:24:58:642324,1,-2,6,1,-6,-5,-3,-2
13:24:58:649867,-1,5,4,-4,-1,2,1,-1
13:24:58:657985,-1,5,4,-4,-1,2,1,-1
13:24:58:658798,3,4,-1,2,17,6,2,2
13:24:58:672972,-1,0,4,-9,-5,-4,-4,-2
13:24:58:673801,-1,0,4,-9,-5,-4,-4,-2
13:24:58:679796,-3,-7,-7,-10,-4,2,-1,-2
13:24:58:687315,-2,-2,-4,-2,-6,1,1,1
13:24:58:694811,-2,-2,-4,-2,-6,1,1,1
13:24:58:702253,-2,0,-5,-3,-1,-6,-1,-4
13:24:58:709776,-1,-4,-2,0,2,-1,-1,-3
13:24:58:717991,-1,-4,-2,0,2,-1,-1,-3
13:24:58:718774,2,4,3,-1,-4,-10,-5,-2
13:24:58:732958,-2,-7,-7,6,3,1,2,0
13:24:58:733777,-2,-7,-7,6,3,1,2,0
13:24:58:739746,2,-2,-4,30,24,17,5,2
13:24:58:755444,-1,0,0,-2,-6,5,-2,-1
13:24:58:756259,-1,0,0,-2,-6,5,-2,-1
13:24:58:762318,0,0,1,-3,7,5,4,4
13:24:58:769804,-1,4,0,3,-7,-7,-1,1
13:24:58:777972,-1,4,0,3,-7,-7,-1,1
13:24:58:778764,0,-1,-1,-10,-18,-5,-4,-2
13:24:58:792976,-1,-1,0,-6,0,-3,-7,-1
13:24:58:793763,-1,-1,0,-6,0,-3,-7,-1
13:24:58:799761,-1,1,-1,-11,2,3,0,6
13:24:58:807335,-1,-1,-4,1,2,1,-3,1
13:24:58:814824,-1,-1,-4,1,2,1,-3,1
13:24:58:822277,-2,1,2,0,-7,-5,-4,0
13:24:58:829747,-4,-3,-6,10,0,1,2,-1
13:24:58:837315,-4,-3,-6,10,0,1,2,-1
13:24:58:844764,-2,-3,-2,-3,-7,-1,-2,-4
13:24:58:852977,-4,-13,-16,-8,6,-2,1,0
13:24:58:853818,-4,-13,-16,-8,6,-2,1,0
13:24:58:859781,1,3,7,1,-6,-2,2,2
13:24:58:875505,1,5,7,-3,-5,-5,-2,-3
13:24:58:876324,1,5,7,-3,-5,-5,-2,-3
13:24:58:890392,-4,-5,-6,-3,-3,-3,-1,-4
13:24:58:891238,-2,-2,5,-4,-5,-8,1,-1
13:24:58:897326,-2,-2,5,-4,-5,-8,1,-1
13:24:58:904766,-1,-2,1,4,2,1,4,2
13:24:58:913008,3,12,-4,-2,-6,-4,-3,-1
13:24:58:913806,3,12,-4,-2,-6,-4,-3,-1
13:24:58:919811,-2,0,-4,-2,6,-4,0,-2
13:24:58:935927,2,11,7,14,20,11,4,1
13:24:58:936772,2,11,7,14,20,11,4,1
13:24:58:942263,-3,2,-2,-6,-1,-1,-5,-2
13:24:58:949744,1,-1,3,-13,-4,-2,-1,-1
13:24:58:957348,1,-1,3,-13,-4,-2,-1,-1
13:24:58:964765,1,1,-3,-1,-4,-1,-4,-2
13:24:58:972969,-3,-12,-6,-6,-2,2,4,-4
13:24:58:973796,-3,-12,-6,-6,-2,2,4,-4
13:24:58:979791,-5,-4,-2,-5,1,-2,-1,-2
13:24:58:995493,-1,-1,-2,2,-1,-1,-1,0
13:24:58:996339,-1,-1,-2,2,-1,-1,-1,0
13:24:59:2295,-1,-7,-1,1,-6,-4,-4,-5
13:24:59:9751,0,-7,-4,6,6,6,0,1
13:24:59:17351,0,-7,-4,6,6,6,0,1
13:24:59:24807,3,3,5,-2,-2,-6,1,7
13:24:59:32934,1,6,-6,-5,-13,-3,-2,0
13:24:59:33737,1,6,-6,-5,-13,-3,-2,0
13:24:59:39789,-2,-2,-7,2,6,2,0,-1
13:24:59:55480,-5,-11,-20,-5,-5,-2,-2,4
13:24:59:56302,-5,-11,-20,-5,-5,-2,-2,4
13:24:59:62280,1,2,2,-3,5,2,-1,1
13:24:59:69796,-1,5,4,0,8,3,-3,-8
13:24:59:77302,-1,5,4,0,8,3,-3,-8
13:24:59:84768,1,-5,-7,-3,1,-1,0,-1
13:24:59:92964,0,-3,4,-1,-6,-6,3,12
13:24:59:93794,0,-3,4,-1,-6,-6,3,12
13:24:59:99754,-3,5,8,-5,-6,-5,-11,-17
13:24:59:115428,-1,-3,1,-2,-1,-7,-2,-3
13:24:59:116269,-1,-3,1,-2,-1,-7,-2,-3
13:24:59:122322,-2,-3,-7,-7,-8,-7,-2,-1
13:24:59:129778,0,-4,0,5,-11,3,9,20
13:24:59:137306,0,-4,0,5,-11,3,9,20
13:24:59:144780,-15,-1,2,-8,-3,-6,-26,-53
13:24:59:152950,9,17,31,-1,-9,1,7,13
13:24:59:153771,9,17,31,-1,-9,1,7,13
13:24:59:159748,3,-2,1,0,0,1,3,12
13:24:59:175440,-1,3,6,1,6,0,-3,-4
13:24:59:176292,-1,3,6,1,6,0,-3,-4
13:24:59:182264,0,0,-9,0,3,-1,4,13
13:24:59:189724,-4,-5,-14,-7,-5,-9,-7,-17
13:24:59:197340,-4,-5,-14,-7,-5,-9,-7,-17
13:24:59:213641,5,5,-2,0,-10,-4,4,9
13:24:59:214425,-11,-16,-3,-2,0,-12,-12,-22
13:24:59:215273,-11,-16,-3,-2,0,-12,-12,-22
13:24:59:219754,3,4,8,1,-6,2,10,22
13:24:59:235445,1,4,-4,-4,-2,-1,-6,-13
13:24:59:236289,1,4,-4,-4,-2,-1,-6,-13
13:24:59:242323,2,-4,-1,16,2,1,2,6
13:24:59:249796,4,6,-2,-3,-9,2,-2,0
13:24:59:257318,4,6,-2,-3,-9,2,-2,0
13:24:59:264771,-7,-38,8,-12,6,6,-6,-9
13:24:59:272943,-2,-3,-2,2,-4,-4,2,14
13:24:59:273781,-2,-3,-2,2,-4,-4,2,14
13:24:59:279759,-2,8,-6,19,22,8,4,3
13:24:59:295459,9,2,4,3,1,8,14,33
13:24:59:296281,9,2,4,3,1,8,14,33
13:24:59:302265,8,26,3,-5,1,2,-10,-14
13:24:59:309795,-7,4,-14,-1,3,0,0,-3
13:24:59:325466,-7,4,-14,-1,3,0,0,-3
13:24:59:326295,12,7,0,8,-4,0,7,12
13:24:59:332955,-3,-19,0,-2,1,-4,-2,0
13:24:59:333788,-3,-19,0,-2,1,-4,-2,0
13:24:59:339766,-10,5,-1,8,3,5,0,-1
13:24:59:355463,-2,-1,-1,2,1,1,-4,-18
13:24:59:356269,-2,-1,-1,2,1,1,-4,-18
13:24:59:362247,-6,6,0,-14,-12,-8,3,12
13:24:59:369731,9,6,3,2,-10,-2,-2,-1
13:24:59:377326,9,6,3,2,-10,-2,-2,-1
13:24:59:384769,6,-5,-8,-15,-13,-15,-2,4
13:24:59:392982,3,-2,-1,1,6,3,-1,-7
13:24:59:393808,3,-2,-1,1,6,3,-1,-7
13:24:59:399767,-4,-9,-1,-1,-13,-10,-7,-1
13:24:59:415458,-10,7,5,15,16,4,-11,-19
13:24:59:416273,-10,7,5,15,16,4,-11,-19
13:24:59:422273,-8,-13,-7,-6,0,-1,-2,-6
13:24:59:429756,-6,-24,-4,-9,-13,-7,-5,-4
13:24:59:437357,-6,-24,-4,-9,-13,-7,-5,-4
13:24:59:444761,4,-4,7,9,-8,-3,4,7
13:24:59:452987,3,8,-29,-8,7,5,9,6
13:24:59:453802,3,8,-29,-8,7,5,9,6
13:24:59:459784,-5,-32,-23,-18,-10,0,-1,-4
13:24:59:475482,-6,-3,14,2,-4,-1,-2,0
13:24:59:476316,-6,-3,14,2,-4,-1,-2,0
13:24:59:482262,-4,16,11,-8,1,4,4,-10
13:24:59:489747,-18,-3,2,-2,6,-2,-6,-5
13:24:59:497369,-18,-3,2,-2,6,-2,-6,-5
13:24:59:504815,-3,6,8,0,-15,-6,-15,-30
13:24:59:512931,7,-5,-24,8,4,4,4,4
13:24:59:513746,7,-5,-24,8,4,4,4,4
13:24:59:519794,4,14,1,7,12,4,-3,-6
13:24:59:535460,-23,-40,-8,-11,2,4,4,3
13:24:59:536312,-23,-40,-8,-11,2,4,4,3
13:24:59:542291,-21,-52,-10,-8,-1,1,3,5
13:24:59:549795,1,9,18,-10,-5,-5,2,5
13:24:59:557291,1,9,18,-10,-5,-5,2,5
13:24:59:564788,3,17,0,15,34,10,3,-11
13:24:59:572986,17,5,3,0,4,3,-4,-1
13:24:59:573806,17,5,3,0,4,3,-4,-1
13:24:59:579740,4,6,-1,2,1,-1,-1,1
13:24:59:595448,9,17,-5,-7,-5,-3,-3,-5
13:24:59:596261,9,17,-5,-7,-5,-3,-3,-5
13:24:59:602273,5,16,-8,8,-3,-2,2,15
13:24:59:609807,1,13,11,5,-5,-4,-3,2
13:24:59:617335,1,13,11,5,-5,-4,-3,2
13:24:59:624753,-12,-6,-1,-8,-4,-2,-8,-16
13:24:59:632984,-6,14,6,9,2,-2,-3,-6
13:24:59:633825,-6,14,6,9,2,-2,-3,-6
13:24:59:639792,18,26,-5,-10,-16,-8,0,3
13:24:59:655481,8,-9,13,19,21,4,-4,-7
13:24:59:656271,8,-9,13,19,21,4,-4,-7
13:24:59:662264,-2,-6,12,1,-8,-4,1,3
13:24:59:669740,2,18,7,-7,-10,-2,0,4
13:24:59:677315,2,18,7,-7,-10,-2,0,4
13:24:59:684760,-2,12,-4,0,3,-3,-6,-1
13:24:59:692978,-3,9,-8,-1,18,1,-4,-17
13:24:59:693795,-3,9,-8,-1,18,1,-4,-17
13:24:59:699773,3,-2,-3,-5,1,3,6,13
13:24:59:715471,4,9,-3,-20,-7,-5,-5,-1
13:24:59:716297,4,9,-3,-20,-7,-5,-5,-1
13:24:59:722261,5,1,-1,12,7,7,1,0
13:24:59:729774,-17,-17,-9,-7,-7,-4,-2,-8
13:24:59:737367,-17,-17,-9,-7,-7,-4,-2,-8
13:24:59:744768,4,7,10,-8,2,0,6,6
13:24:59:753009,-14,-17,-12,-8,-15,-7,-1,-2
13:24:59:753814,-14,-17,-12,-8,-15,-7,-1,-2
13:24:59:759802,-3,-1,-3,0,-1,-1,-7,3
13:24:59:775502,2,-40,-6,0,2,-2,4,14
13:24:59:776311,2,-40,-6,0,2,-2,4,14
13:24:59:782265,-10,-23,8,11,10,-1,-4,-11
13:24:59:797954,9,22,17,17,-3,-1,3,11
13:24:59:798798,9,22,17,17,-3,-1,3,11
13:24:59:804758,-2,-2,-10,-3,-7,-4,-9,-15
13:24:59:820466,-7,4,3,0,2,4,-3,-5
13:24:59:821284,-7,4,3,0,2,4,-3,-5
13:24:59:827287,2,7,-1,-1,-1,-1,6,7
13:24:59:835460,7,31,3,-12,-1,-6,-9,-8
13:24:59:836304,7,31,3,-12,-1,-6,-9,-8
13:24:59:842261,-8,-23,-10,-12,2,0,-3,-6
13:24:59:857992,10,-4,1,1,-13,-6,0,7
13:24:59:858778,10,-4,1,1,-13,-6,0,7
13:24:59:873606,-6,-17,-1,2,23,4,2,-5
13:24:59:874409,-8,0,21,-7,11,5,7,11
13:24:59:875251,-8,0,21,-7,11,5,7,11
13:24:59:887291,4,-21,-1,-9,-7,-3,-4,-4
13:24:59:895428,6,-21,-15,10,3,1,1,3
13:24:59:896251,6,-21,-15,10,3,1,1,3
13:24:59:902286,6,28,31,1,-11,1,6,18
13:24:59:917992,4,14,-15,2,-3,-1,-3,-7
13:24:59:918816,4,14,-15,2,-3,-1,-3,-7
13:24:59:924801,-3,1,2,3,-6,-3,-1,-5
13:24:59:932956,19,22,-10,-11,0,6,0,4
13:24:59:933746,19,22,-10,-11,0,6,0,4
13:24:59:947286,2,-19,-30,-16,-17,-9,-1,7
13:24:59:955492,-13,-3,-4,-6,-9,-8,-5,-17
13:24:59:956303,-13,-3,-4,-6,-9,-8,-5,-17
13:24:59:962307,-2,0,2,7,5,1,2,6
13:24:59:977985,-6,-1,-9,0,-3,3,3,-1
13:24:59:978816,-6,-1,-9,0,-3,3,3,-1
13:24:59:984797,-19,8,-1,-2,6,-1,-2,-1
13:24:59:992962,-5,0,4,9,-5,0,3,12
13:24:59:993764,-5,0,4,9,-5,0,3,12
13:25:00:7739,-2,-2,-8,3,7,1,-8,-16
13:25:00:15481,-3,-17,-12,1,1,1,8,9
13:25:00:16328,-3,-17,-12,1,1,1,8,9
13:25:00:22247,15,26,5,-14,-7,0,1,1
13:25:00:38007,15,26,5,-14,-7,0,1,1
13:25:00:38776,0,-38,-1,5,6,3,-2,-13
13:25:00:44766,3,-5,3,9,17,2,1,-5
13:25:00:53657,3,-5,3,9,17,2,1,-5
13:25:00:54463,12,6,-1,-11,-5,-2,1,13
13:25:00:76136,6,6,-3,-4,-4,-4,-4,-8
13:25:00:76942,6,6,-3,-4,-4,-4,-4,-8
13:25:00:77770,-19,0,-4,-5,0,-1,-7,-17
13:25:00:82243,-3,27,5,2,-14,-4,-2,-11
13:25:00:98413,-3,27,5,2,-14,-4,-2,-11
13:25:00:105435,8,18,8,13,9,1,4,11
13:25:00:106241,-5,3,0,-7,-5,-2,-5,-10
13:25:00:112976,-5,3,0,-7,-5,-2,-5,-10
13:25:00:113772,-21,-13,-5,-3,2,-6,-4,-3
13:25:00:127293,-14,-45,-23,5,5,1,3,13
13:25:00:135480,-14,-45,-23,5,5,1,3,13
13:25:00:136244,9,-2,-2,-1,-2,-3,-2,-2
13:25:00:142238,4,8,15,-2,-9,-5,-2,3
13:25:00:157981,4,8,15,-2,-9,-5,-2,3
13:25:00:158769,-2,-16,-5,-14,-3,-3,-2,-7
13:25:00:164796,2,2,-13,-6,2,10,-1,-5
13:25:00:172977,2,2,-13,-6,2,10,-1,-5
13:25:00:173786,6,22,15,-4,-10,-3,1,5
13:25:00:187292,-20,-32,-7,5,-5,-2,1,5
13:25:00:203676,-20,-32,-7,5,-5,-2,1,5
13:25:00:204460,-26,16,-7,-1,10,-4,-19,-25
13:25:00:205265,-10,-18,1,1,3,2,5,9
13:25:00:218003,-10,-18,1,1,3,2,5,9
13:25:00:218774,5,1,-1,-2,-3,-1,2,2
13:25:00:224765,-5,-14,-6,-2,-7,-8,-7,-2
13:25:00:232992,-5,-14,-6,-2,-7,-8,-7,-2
13:25:00:233814,-7,-28,5,3,1,-1,-8,-13
13:25:00:247254,-4,-9,-20,-9,-8,-5,2,-1
13:25:00:255475,-4,-9,-20,-9,-8,-5,2,-1
13:25:00:256305,5,-1,-2,-4,-4,5,4,1
13:25:00:262265,-14,-21,1,-2,6,-4,-4,-1
13:25:00:278013,-14,-21,1,-2,6,-4,-4,-1
13:25:00:278790,4,-8,-28,3,-4,1,10,12
13:25:00:284783,8,20,-8,-15,4,0,0,-3
13:25:00:293001,8,20,-8,-15,4,0,0,-3
13:25:00:293776,3,-4,5,-4,5,5,1,-4
13:25:00:307245,3,9,1,7,0,0,-3,-6
13:25:00:315470,3,9,1,7,0,0,-3,-6
13:25:00:316278,8,2,1,0,4,0,0,2
13:25:00:322270,-11,-9,11,-4,-5,-5,-6,-10
13:25:00:338008,-11,-9,11,-4,-5,-5,-6,-10
13:25:00:338817,-9,0,17,-4,-6,-7,-9,-5
13:25:00:344770,8,-5,-1,1,4,3,4,10
13:25:00:353006,8,-5,-1,1,4,3,4,10
13:25:00:353791,2,-36,-5,-6,3,-6,-5,-6
13:25:00:367311,-7,-13,-18,4,-3,0,2,3
13:25:00:375466,-7,-13,-18,4,-3,0,2,3
13:25:00:376297,14,15,6,13,-11,0,6,11
13:25:00:382235,10,21,9,6,-3,-1,3,7
13:25:00:397972,10,21,9,6,-3,-1,3,7
13:25:00:398749,-22,-23,-16,-13,1,2,-2,1
13:25:00:404806,-1,8,1,5,4,2,1,5
13:25:00:412328,-1,8,1,5,4,2,1,5
13:25:00:419754,12,8,8,5,2,-3,-10,6
13:25:00:427244,-18,-33,-3,-12,-4,-3,-7,-21
13:25:00:435502,-18,-33,-3,-12,-4,-3,-7,-21
13:25:00:436287,4,-4,-4,14,6,1,6,2
13:25:00:442263,14,25,7,3,1,4,-6,-2
13:25:00:457973,14,25,7,3,1,4,-6,-2
13:25:00:458801,-14,18,5,-17,-21,-7,0,-1
13:25:00:464756,6,3,7,4,11,6,5,2
13:25:00:472332,6,3,7,4,11,6,5,2
13:25:00:479785,-2,1,-3,-1,-6,-3,-3,-5
13:25:00:487271,-7,-16,-9,-5,1,-4,-4,-10
13:25:00:495525,-7,-16,-9,-5,1,-4,-4,-10
13:25:00:496306,-8,-7,1,-4,-4,-2,7,7
13:25:00:502275,13,20,3,2,0,0,1,5
13:25:00:518001,13,20,3,2,0,0,1,5
13:25:00:518810,-10,-16,5,1,2,0,2,6
13:25:00:524765,23,12,-12,-10,-11,-10,-3,-1
13:25:00:532364,23,12,-12,-10,-11,-10,-3,-1
13:25:00:539782,-3,2,10,7,6,2,-4,-4
13:25:00:547267,-1,-9,4,3,-1,0,0,6
13:25:00:555515,-1,-9,4,3,-1,0,0,6
13:25:00:556321,4,-13,-6,12,12,-5,-5,-9
13:25:00:562291,-2,-3,6,7,-6,4,2,13
13:25:00:578007,-2,-3,6,7,-6,4,2,13
13:25:00:578793,23,36,-3,-14,-5,0,-2,-3
13:25:00:584784,4,25,3,3,11,0,2,4
13:25:00:592352,4,25,3,3,11,0,2,4
13:25:00:599795,11,23,-19,1,14,-1,0,-4
13:25:00:607299,3,23,10,-7,-5,1,1,-4
13:25:00:616190,3,23,10,-7,-5,1,1,-4
13:25:00:616961,-3,8,5,-2,-8,-1,-4,4
13:25:00:622325,-7,-8,4,14,14,9,3,1
13:25:00:637947,-7,-8,4,14,14,9,3,1
13:25:00:638767,7,9,-4,-9,-6,1,-3,-4
13:25:00:644781,-3,13,7,-2,-10,-5,-2,0
13:25:00:652286,-3,13,7,-2,-10,-5,-2,0
13:25:00:659750,-6,2,5,3,6,6,1,-9
13:25:00:667332,-4,4,-1,3,-5,-3,-2,-6
13:25:00:675464,-4,4,-1,3,-5,-3,-2,-6
13:25:00:676294,-18,-22,4,5,-1,-5,-3,-3
13:25:00:682249,-5,-15,-12,-5,2,-3,3,4
13:25:00:698452,-5,-15,-12,-5,2,-3,3,4
13:25:00:699255,4,-21,-20,-4,-1,0,-1,-7
13:25:00:704757,1,-12,-8,1,8,-2,-2,-1
13:25:00:712349,1,-12,-8,1,8,-2,-2,-1
13:25:00:719771,2,-1,9,1,-3,-3,0,1
13:25:00:727244,-6,-14,-9,-3,-4,-4,-6,-5
13:25:00:735482,-6,-14,-9,-3,-4,-4,-6,-5
13:25:00:736282,-13,3,9,2,3,1,0,-10
13:25:00:749759,4,10,4,12,-3,-4,0,12
13:25:00:757991,4,10,4,12,-3,-4,0,12
13:25:00:758799,0,-1,0,-5,-11,-2,4,12
13:25:00:764771,-1,-2,0,-16,-2,0,6,-7
13:25:00:772352,-1,-2,0,-16,-2,0,6,-7
13:25:00:779761,-3,-10,17,-5,-12,-8,-1,2
13:25:00:787249,16,6,6,-5,-7,-4,-6,-11
13:25:00:795576,16,6,6,-5,-7,-4,-6,-11
13:25:00:796344,19,31,9,12,11,11,8,18
13:25:00:810266,3,-10,4,-9,-5,-2,1,7
13:25:00:817991,3,-10,4,-9,-5,-2,1,7
13:25:00:818805,-11,-4,-16,4,-8,-8,-12,-15
13:25:00:824775,-8,1,-4,-7,-4,-5,-7,-13
13:25:00:832371,-8,1,-4,-7,-4,-5,-7,-13
13:25:00:839790,1,-9,-10,7,2,2,4,3
13:25:00:847263,-6,-3,4,-10,-3,-4,-5,-6
13:25:00:855459,-6,-3,4,-10,-3,-4,-5,-6
13:25:00:856262,-1,10,-2,2,4,2,-2,6
13:25:00:869794,3,1,2,2,-4,2,0,-1
13:25:00:878014,3,1,2,2,-4,2,0,-1
13:25:00:878798,-1,-13,-12,-9,1,-5,-8,-6
13:25:00:884784,-5,-18,-5,6,2,0,1,5
13:25:00:892336,-5,-18,-5,6,2,0,1,5
13:25:00:899783,-9,3,0,-3,-1,-4,0,0
13:25:00:907287,0,9,9,-1,1,-1,-4,-1
13:25:00:915489,0,9,9,-1,1,-1,-4,-1
13:25:00:916240,12,-8,-32,-4,-3,-1,0,0
13:25:00:929766,-9,-16,-2,0,-3,1,1,-2
13:25:00:938003,-9,-16,-2,0,-3,1,1,-2
13:25:00:938769,-8,-21,11,-4,-1,1,-2,-3
13:25:00:944826,2,13,-4,-4,-8,-2,-2,-6
13:25:00:952301,2,13,-4,-4,-8,-2,-2,-6
13:25:00:959756,1,-13,2,6,-5,0,4,-4
13:25:00:967285,-8,-14,-1,-3,3,1,-9,-21
13:25:00:975479,-8,-14,-1,-3,3,1,-9,-21
13:25:00:976306,-5,3,3,-4,3,3,5,-3
13:25:00:998645,12,36,-1,1,0,-1,-1,13
13:25:00:999452,12,36,-1,1,0,-1,-1,13
13:25:01:289,-11,-12,0,-5,-1,-3,-10,-1
13:25:01:4780,0,8,3,10,3,-1,4,6
13:25:01:12325,0,8,3,10,3,-1,4,6
13:25:01:19854,3,-14,-15,-3,-7,-2,0,5
13:25:01:27324,-3,-20,-1,-2,3,0,-2,3
13:25:01:35474,-3,-20,-1,-2,3,0,-2,3
13:25:01:36291,1,10,3,-5,-3,-3,-7,-11
13:25:01:49792,-3,3,-5,1,2,0,-3,-16
13:25:01:57949,-3,3,-5,1,2,0,-3,-16
13:25:01:58766,-1,22,10,-6,-3,-4,-1,-12
13:25:01:64806,-12,-2,3,1,2,2,11,6
13:25:01:72325,-12,-2,3,1,2,2,11,6
13:25:01:79758,4,25,-2,-3,11,2,-3,-3
13:25:01:87257,-2,9,-2,-6,-2,-1,-5,-5
13:25:01:95477,-2,9,-2,-6,-2,-1,-5,-5
13:25:01:96324,3,-3,-2,0,-4,-4,0,9
13:25:01:109805,-1,-12,3,-1,-3,-3,-5,-1
13:25:01:117989,-1,-12,3,-1,-3,-3,-5,-1
13:25:01:118779,-8,-12,-3,-15,-9,-4,0,-1
13:25:01:124748,-7,-21,-7,12,3,-1,2,10
13:25:01:132333,-7,-21,-7,12,3,-1,2,10
13:25:01:139742,-15,-20,-2,-2,11,10,2,1
13:25:01:147245,-3,-4,-3,-12,-5,-4,-2,-4
13:25:01:155505,-3,-4,-3,-12,-5,-4,-2,-4
13:25:01:156300,-2,15,10,5,3,-2,-4,-7
13:25:01:169777,-6,9,1,1,5,0,-3,-11
13:25:01:177979,-6,9,1,1,5,0,-3,-11
13:25:01:178784,7,15,-1,9,1,-1,6,8
13:25:01:184728,4,0,0,-3,2,-3,1,10
13:25:01:192318,4,0,0,-3,2,-3,1,10
13:25:01:199754,17,6,0,0,-1,3,-5,-2
13:25:01:207315,9,2,-1,-3,-7,-1,1,16
13:25:01:215513,9,2,-1,-3,-7,-1,1,16
13:25:01:216333,0,-2,23,-16,-3,4,1,5
13:25:01:229764,-3,-3,-3,1,-4,-1,-3,-7
13:25:01:238008,-3,-3,-3,1,-4,-1,-3,-7
13:25:01:238817,-3,-15,4,2,-4,-7,-2,-3
13:25:01:244782,-3,7,-2,8,8,2,2,3
13:25:01:252375,-3,7,-2,8,8,2,2,3
13:25:01:267955,-1,17,-4,-6,-7,-5,-2,-2
13:25:01:268731,-3,-14,-9,0,-6,-1,-1,-6
13:25:01:275526,-3,-14,-9,0,-6,-1,-1,-6
13:25:01:276305,1,1,-7,-2,-3,-7,0,-3
13:25:01:289758,6,-16,11,-4,-7,-3,3,8
13:25:01:306179,6,-16,11,-4,-7,-3,3,8
13:25:01:306920,-13,-19,-5,5,3,1,0,-3
13:25:01:307762,7,-24,-8,-14,-7,-3,-1,1
13:25:01:312333,7,-24,-8,-14,-7,-3,-1,1
13:25:01:319774,-1,-7,5,5,-8,-3,-1,3
13:25:01:327260,-1,11,-4,0,-1,0,2,-6
13:25:01:335520,-1,11,-4,0,-1,0,2,-6
13:25:01:336279,3,11,1,2,4,1,3,-1
13:25:01:349759,-6,-18,-17,-7,2,-4,-5,-7
13:25:01:357983,-6,-18,-17,-7,2,-4,-5,-7
13:25:01:358781,-3,0,-5,10,-3,1,-3,-2
13:25:01:372968,13,35,9,16,15,4,-1,0
13:25:01:373776,13,35,9,16,15,4,-1,0
13:25:01:379754,-11,-34,-1,-3,3,1,-1,1
13:25:01:387316,-4,5,8,-2,-7,-2,0,8
13:25:01:395475,-4,5,8,-2,-7,-2,0,8
13:25:01:396277,5,17,1,-5,2,2,3,4
13:25:01:409803,-6,7,9,-16,-7,-4,-8,-11
13:25:01:418000,-6,7,9,-16,-7,-4,-8,-11
13:25:01:418781,-10,-5,-4,-6,-9,-7,-8,-15
13:25:01:432987,0,8,0,-3,-3,0,1,-6
13:25:01:433783,0,8,0,-3,-3,0,1,-6
13:25:01:439835,-9,-33,-24,-2,-3,-2,2,-3
13:25:01:447301,0,18,2,-5,-2,1,7,12
13:25:01:455476,0,18,2,-5,-2,1,7,12
13:25:01:456296,8,13,2,-1,1,-2,-2,-3
13:25:01:469794,-3,-28,-10,4,4,2,1,10
13:25:01:477986,-3,-28,-10,4,4,2,1,10
13:25:01:478779,-2,3,20,0,-5,0,-5,-10
13:25:01:484826,-8,1,-1,0,-2,-3,-1,-2
13:25:01:492316,-8,1,-1,0,-2,-3,-1,-2
13:25:01:499770,5,24,-2,-3,-3,-1,-2,8
13:25:01:507255,2,8,0,7,5,-1,-6,-9
13:25:01:515469,2,8,0,7,5,-1,-6,-9
13:25:01:516294,-5,-16,8,-4,15,3,2,3
13:25:01:529830,-17,-36,5,-5,-2,2,-7,-12
13:25:01:538694,-17,-36,5,-5,-2,2,-7,-12
13:25:01:539454,5,-16,-10,-11,-6,-3,1,6
13:25:01:544770,6,-10,-31,3,-2,4,0,-8
13:25:01:552341,6,-10,-31,3,-2,4,0,-8
13:25:01:559757,-18,-2,7,-9,0,1,4,4
13:25:01:567252,-6,-10,3,-9,-7,-5,3,3
13:25:01:575511,-6,-10,3,-9,-7,-5,3,3
13:25:01:576314,-7,-17,-15,-7,-8,-4,-6,-7
13:25:01:589752,16,38,12,-1,5,0,0,-1
13:25:01:597985,16,38,12,-1,5,0,0,-1
13:25:01:598795,-7,-19,1,16,5,-3,-4,1
13:25:01:604752,0,8,1,-2,-10,-7,-2,-4
13:25:01:612356,0,8,1,-2,-10,-7,-2,-4
13:25:01:619779,4,6,8,6,-3,-2,3,-1
13:25:01:627279,7,0,-1,4,2,2,3,17
13:25:01:635508,7,0,-1,4,2,2,3,17
13:25:01:636292,11,12,8,3,2,1,6,17
13:25:01:649791,-8,10,2,-8,-8,-5,-4,-13
13:25:01:658015,-8,10,2,-8,-8,-5,-4,-13
13:25:01:658811,12,7,-13,6,8,4,5,9
13:25:01:673023,9,26,-4,6,6,0,-3,-2
13:25:01:673825,9,26,-4,6,6,0,-3,-2
13:25:01:679783,-1,7,-10,-8,-4,1,-5,-16
13:25:01:687251,-5,-10,3,0,1,-5,-3,3
13:25:01:694854,-5,-10,3,0,1,-5,-3,3
13:25:01:702296,11,8,1,-3,-11,-6,-3,13
13:25:01:709793,-3,-1,4,7,10,6,-6,-9
13:25:01:718024,-3,-1,4,7,10,6,-6,-9
13:25:01:718816,-1,6,-5,2,1,1,6,0
13:25:01:732987,-9,-27,-1,-22,-8,-5,-2,-10
13:25:01:733814,-9,-27,-1,-22,-8,-5,-2,-10
13:25:01:739786,-1,11,-8,0,0,1,-1,-5
13:25:01:747279,-4,16,4,2,2,3,2,-4
13:25:01:754869,-4,16,4,2,2,3,2,-4
13:25:01:762284,0,14,4,-5,5,1,-3,-10
13:25:01:769795,-2,-11,-17,5,4,1,1,4
13:25:01:777943,-2,-11,-17,5,4,1,1,4
13:25:01:778755,4,14,2,1,-2,-3,0,11
13:25:01:792958,7,-9,-2,2,0,-3,-5,3
13:25:01:793756,7,-9,-2,2,0,-3,-5,3
13:25:01:799787,-12,-18,-3,-7,-3,-1,3,-10
13:25:01:807311,-2,20,5,-3,-5,-3,4,0
13:25:01:814817,-2,20,5,-3,-5,-3,4,0
13:25:01:822317,0,-8,-2,-2,1,-6,-3,-8
13:25:01:829816,-6,23,-1,0,-5,1,0,2
13:25:01:837998,-6,23,-1,0,-5,1,0,2
13:25:01:838784,-1,-20,-4,-4,1,2,0,-11
13:25:01:852966,11,-8,-5,-2,-7,-3,3,14
13:25:01:853775,11,-8,-5,-2,-7,-3,3,14
13:25:01:859816,-12,-37,-9,0,7,-1,-5,2
13:25:01:867306,-13,-55,-2,3,12,4,-5,-14
13:25:01:874813,-13,-55,-2,3,12,4,-5,-14
13:25:01:882257,-5,11,4,7,7,1,-5,1
13:25:01:889773,-16,-5,1,0,0,-1,3,-6
13:25:01:898023,-16,-5,1,0,0,-1,3,-6
13:25:01:898825,6,22,1,6,3,3,1,-1
13:25:01:921131,15,39,5,-3,1,0,-2,7
13:25:01:921930,15,39,5,-3,1,0,-2,7
13:25:01:922725,-2,18,-2,1,-5,-1,-5,-13
13:25:01:927299,0,-3,1,-3,-10,-1,0,1
13:25:01:934821,0,-3,1,-3,-10,-1,0,1
13:25:01:942319,8,9,12,-2,-8,0,1,14
13:25:01:958633,-3,-9,0,-4,-5,-6,-11,-14
13:25:01:959430,-3,-9,0,-4,-5,-6,-11,-14
13:25:01:960249,2,3,17,-1,13,3,-1,-1
13:25:01:972995,1,-15,3,-1,-1,0,2,5
13:25:01:973832,1,-15,3,-1,-1,0,2,5
13:25:01:979792,-16,-21,-13,2,-3,-5,-3,-4
13:25:01:987286,-13,-2,4,0,-1,-1,0,1
13:25:01:994836,-13,-2,4,0,-1,-1,0,1
13:25:02:2311,6,15,-3,0,-9,2,3,11
13:25:02:9815,-2,9,-7,5,1,2,-1,-1
13:25:02:18007,-2,9,-7,5,1,2,-1,-1
13:25:02:18795,9,12,-7,-3,-2,1,-1,5
13:25:02:32967,-5,-11,1,-2,0,-3,-7,-4
13:25:02:33773,-5,-11,1,-2,0,-3,-7,-4
13:25:02:39823,-13,-13,7,-8,-10,0,0,-2
13:25:02:47302,-16,-13,0,-12,-6,-9,-3,-7
13:25:02:54813,-16,-13,0,-12,-6,-9,-3,-7
13:25:02:62274,-10,-18,-14,-4,-6,-3,-7,-24
13:25:02:69779,-4,-10,-3,0,-2,-6,-1,0
13:25:02:77975,-4,-10,-3,0,-2,-6,-1,0
13:25:02:78799,6,12,7,2,9,6,2,0
13:25:02:101125,-3,-12,2,0,-3,-2,-4,-6
13:25:02:101913,-3,-12,2,0,-3,-2,-4,-6
13:25:02:102736,3,-8,2,0,-4,-5,3,2
13:25:02:107272,3,-7,-21,8,15,7,7,-5
13:25:02:114816,3,-7,-21,8,15,7,7,-5
13:25:02:122306,-2,-4,-1,0,-5,-5,-3,0
13:25:02:129799,6,4,-1,5,-5,-2,-2,1
13:25:02:137983,6,4,-1,5,-5,-2,-2,1
13:25:02:138789,-7,-10,-10,-6,2,-8,-5,-12
13:25:02:152965,1,-17,-5,-8,1,2,-2,-6
13:25:02:153792,1,-17,-5,-8,1,2,-2,-6
13:25:02:159755,3,22,-6,-10,-16,-12,-2,4
13:25:02:167322,-7,-18,4,4,-2,-2,2,11
13:25:02:174795,-7,-18,4,4,-2,-2,2,11
13:25:02:182253,-8,-3,-4,-10,0,-2,-4,-2
13:25:02:189756,8,20,12,2,4,0,5,18
13:25:02:198008,8,20,12,2,4,0,5,18
13:25:02:198804,6,3,3,4,-2,0,-3,1
13:25:02:213004,3,7,-12,-6,2,2,-1,1
13:25:02:213775,3,7,-12,-6,2,2,-1,1
13:25:02:227962,-7,-24,-3,-1,4,0,3,7
13:25:02:228781,2,0,4,1,-3,-6,-1,-3
13:25:02:234799,2,0,4,1,-3,-6,-1,-3
13:25:02:242243,-9,10,-7,-3,-2,-5,-7,-17
13:25:02:249813,0,3,-5,-10,-10,-2,4,5
13:25:02:257959,0,3,-5,-10,-10,-2,4,5
13:25:02:258786,-1,-14,0,1,4,9,4,-1
13:25:02:272965,0,-14,-12,-2,5,0,-4,-5
13:25:02:273787,0,-14,-12,-2,5,0,-4,-5
13:25:02:279755,-12,-58,-15,-14,1,-3,-4,-4
13:25:02:295450,7,13,17,-2,-7,-1,-3,-10
13:25:02:296276,7,13,17,-2,-7,-1,-3,-10
13:25:02:302293,7,-9,2,0,0,-3,-2,-2
13:25:02:309807,1,-5,-6,1,10,-2,1,0
13:25:02:317982,1,-5,-6,1,10,-2,1,0
13:25:02:318770,12,26,10,2,-9,-1,-2,0
13:25:02:332927,5,28,4,15,10,1,-1,2
13:25:02:333749,5,28,4,15,10,1,-1,2
13:25:02:339786,9,34,2,10,0,1,6,5
13:25:02:347310,3,19,-1,3,-5,-4,-4,1
13:25:02:354827,3,19,-1,3,-5,-4,-4,1
13:25:02:362247,2,-1,8,8,11,7,5,6
13:25:02:369747,4,21,-6,3,2,-3,-2,-13
13:25:02:377986,4,21,-6,3,2,-3,-2,-13
13:25:02:378786,-3,12,3,9,15,2,2,7
13:25:02:392969,-2,2,8,-12,-14,-5,-2,0
13:25:02:393792,-2,2,8,-12,-14,-5,-2,0
13:25:02:399805,-13,-18,4,-1,-3,0,-3,-12
13:25:02:407256,-24,-51,-5,-4,-3,0,-4,-5
13:25:02:414825,-24,-51,-5,-4,-3,0,-4,-5
13:25:02:422271,2,-5,3,-3,3,2,4,11
13:25:02:429765,5,12,4,-13,-16,-2,-1,2
13:25:02:438018,5,12,4,-13,-16,-2,-1,2
13:25:02:438815,3,-18,-14,9,6,3,4,19
13:25:02:453002,-3,-9,2,-2,3,2,-1,-6
13:25:02:453778,-3,-9,2,-2,3,2,-1,-6
13:25:02:459777,11,24,3,-11,-5,-1,-3,-4
13:25:02:467270,-14,-30,-5,-4,-2,-3,-4,-3
13:25:02:474857,-14,-30,-5,-4,-2,-3,-4,-3
13:25:02:482274,1,4,-8,-6,-13,-9,-6,0
13:25:02:489787,4,-29,-2,2,8,5,0,15
13:25:02:498027,4,-29,-2,2,8,5,0,15
13:25:02:498822,-12,-7,-4,-5,-4,3,-6,-23
13:25:02:512993,6,18,-4,12,4,3,4,-1
13:25:02:513823,6,18,-4,12,4,3,4,-1
13:25:02:519764,-17,-23,2,4,0,-4,-3,-14
13:25:02:527266,2,23,-4,-3,-5,-5,-6,-7
13:25:02:534842,2,23,-4,-3,-5,-5,-6,-7
13:25:02:542292,10,10,-7,-9,-6,-4,-4,-1
13:25:02:549790,13,20,-10,3,8,8,1,3
13:25:02:557983,13,20,-10,3,8,8,1,3
13:25:02:558746,3,5,3,4,13,2,-2,-3
13:25:02:573014,1,14,3,-3,-4,-1,8,18
13:25:02:573793,1,14,3,-3,-4,-1,8,18
13:25:02:579806,-24,-33,-14,-4,4,2,-1,-3
13:25:02:587296,-6,5,0,5,4,2,2,7
13:25:02:594790,-6,5,0,5,4,2,2,7
13:25:02:602292,13,29,6,0,-4,-6,-9,-2
13:25:02:609790,-5,-14,0,-3,-1,2,9,-1
13:25:02:617319,-5,-14,0,-3,-1,2,9,-1
13:25:02:624741,3,-5,2,5,0,-1,0,11
13:25:02:632958,-11,-8,-9,8,-3,-5,-10,-7
13:25:02:633786,-11,-8,-9,8,-3,-5,-10,-7
13:25:02:639769,7,25,-9,2,-9,-7,-4,-3
13:25:02:655447,-6,-23,-3,5,24,7,3,-8
13:25:02:656286,-6,-23,-3,5,24,7,3,-8
13:25:02:662286,-7,-14,-4,4,-5,2,7,11
13:25:02:669750,0,1,-10,-15,-10,-7,-6,-8
13:25:02:677324,0,1,-10,-15,-10,-7,-6,-8
13:25:02:684758,1,-16,-1,-5,0,1,6,6
13:25:02:693003,7,7,7,-11,-8,-3,-1,5
13:25:02:693820,7,7,7,-11,-8,-3,-1,5
13:25:02:699759,-7,11,5,-5,-9,-6,-5,-20
13:25:02:715450,2,-8,-5,-6,-11,-5,2,-6
13:25:02:716275,2,-8,-5,-6,-11,-5,2,-6
13:25:02:722285,2,31,14,3,1,0,-1,-8
13:25:02:729765,-3,-4,8,3,1,-3,-3,-4
13:25:02:737345,-3,-4,8,3,1,-3,-3,-4
13:25:02:744766,-14,-2,-7,-4,-1,-3,-8,-11
13:25:02:753043,3,-9,5,-7,-8,-4,-1,5
13:25:02:753815,3,-9,5,-7,-8,-4,-1,5
13:25:02:759788,0,-15,8,2,-6,-2,-2,6
13:25:02:775480,-2,-5,-8,6,8,15,1,-1
13:25:02:776315,-2,-5,-8,6,8,15,1,-1
13:25:02:782272,-11,-22,8,-20,-1,4,-2,-3
13:25:02:789792,-2,4,-3,1,1,-5,-4,7
13:25:02:797378,-2,4,-3,1,1,-5,-4,7
13:25:02:804785,9,11,4,1,-6,-2,3,8
13:25:02:812672,1,9,-4,0,6,-2,-2,-1
13:25:02:820456,1,9,-4,0,6,-2,-2,-1
13:25:02:821266,-6,-25,-11,-5,4,-4,0,2
13:25:02:835516,2,8,4,-1,-5,1,-3,-6
13:25:02:836336,2,8,4,-1,-5,1,-3,-6
13:25:02:842297,-16,3,2,3,9,0,-5,-29
13:25:02:849790,-6,1,7,0,-4,-5,2,-2
13:25:02:857302,-6,1,7,0,-4,-5,2,-2
13:25:02:864791,1,5,-16,0,8,8,4,10
13:25:02:872960,0,3,0,-1,-3,-1,4,-3
13:25:02:873770,0,3,0,-1,-3,-1,4,-3
13:25:02:879761,18,11,-11,5,-3,-5,-3,5
13:25:02:895436,-1,-1,-7,-3,0,-2,0,15
13:25:02:896261,-1,-1,-7,-3,0,-2,0,15
13:25:02:902294,5,6,6,6,10,7,2,-1
13:25:02:909822,-7,-19,5,0,7,8,-3,-11
13:25:02:917350,-7,-19,5,0,7,8,-3,-11
13:25:02:924764,-2,11,1,-5,-12,-5,-2,4
13:25:02:932957,-1,-12,-6,-5,-6,-6,-3,8
13:25:02:933764,-1,-12,-6,-5,-6,-6,-3,8
13:25:02:939791,-9,-27,2,-1,1,3,0,-3
13:25:02:955491,-13,1,-3,-6,-4,0,-1,-3
13:25:02:956290,-13,1,-3,-6,-4,0,-1,-3
13:25:02:962238,0,-12,-1,-2,-4,-5,2,3
13:25:02:969742,3,16,6,17,8,-2,-3,0
13:25:02:977345,3,16,6,17,8,-2,-3,0
13:25:02:984791,4,22,2,3,-1,-1,-1,1
13:25:02:993017,9,22,-4,7,12,-3,7,7
13:25:02:993811,9,22,-4,7,12,-3,7,7
13:25:02:999774,-9,-48,-10,-13,-4,-8,-3,5
13:25:03:15467,-15,0,12,-5,4,0,-6,-11
13:25:03:16302,-15,0,12,-5,4,0,-6,-11
13:25:03:22256,-11,-49,-16,-4,1,-3,-7,-10
13:25:03:29771,3,-13,2,-15,-9,-5,-5,-3
13:25:03:37352,3,-13,2,-15,-9,-5,-5,-3
13:25:03:44772,4,30,7,1,0,0,6,8
13:25:03:53010,3,-3,5,-4,-13,-4,-1,-3
13:25:03:53817,3,-3,5,-4,-13,-4,-1,-3
13:25:03:59778,3,28,-3,11,6,4,-3,-2
13:25:03:75512,1,-15,-11,4,0,4,0,3
13:25:03:76320,1,-15,-11,4,0,4,0,3
13:25:03:82273,0,-13,2,11,6,2,0,5
13:25:03:89799,11,7,-12,-3,-3,0,3,9
13:25:03:97352,11,7,-12,-3,-3,0,3,9
13:25:03:104805,-15,-10,3,-11,-6,-5,-5,-10
13:25:03:112970,0,-1,-5,-2,-6,-5,-13,-6
13:25:03:113793,0,-1,-5,-2,-6,-5,-13,-6
13:25:03:119812,12,30,2,-3,-2,-1,-4,3
13:25:03:135482,-10,-8,3,-5,1,0,-5,-16
13:25:03:136303,-10,-8,3,-5,1,0,-5,-16
13:25:03:142302,3,1,-18,-3,-3,-3,-1,-2
13:25:03:149815,-2,-5,0,7,12,7,9,1
13:25:03:157316,-2,-5,0,7,12,7,9,1
13:25:03:164807,4,17,17,-4,-12,-5,2,1
13:25:03:172978,-1,4,-10,1,4,0,-2,-4
13:25:03:173810,-1,4,-10,1,4,0,-2,-4
13:25:03:179755,1,-10,1,-2,2,8,2,-5
13:25:03:195427,8,10,4,-1,-9,-5,-1,1
13:25:03:196269,8,10,4,-1,-9,-5,-1,1
13:25:03:202338,11,22,5,2,2,5,4,9
13:25:03:209809,-21,-26,-14,-17,-12,-7,-3,-9
13:25:03:217354,-21,-26,-14,-17,-12,-7,-3,-9
13:25:03:224757,3,-1,2,4,4,-2,0,2
13:25:03:232990,-8,7,7,1,1,1,-1,-7
13:25:03:233808,-8,7,7,1,1,1,-1,-7
13:25:03:239800,0,-8,-8,0,2,-5,0,0
13:25:03:255469,2,7,1,-2,-10,-7,2,8
13:25:03:256298,2,7,1,-2,-10,-7,2,8
13:25:03:262253,-2,0,5,5,13,3,-2,-4
13:25:03:269767,14,12,5,7,1,-1,-1,-5
13:25:03:277343,14,12,5,7,1,-1,-1,-5
13:25:03:284782,1,-19,-12,-16,-4,4,-1,-1
13:25:03:292999,4,3,1,-2,-5,-4,-1,-1
13:25:03:293813,4,3,1,-2,-5,-4,-1,-1
13:25:03:299782,-22,0,2,-4,-4,-5,-3,-10
13:25:03:315462,-2,0,3,-1,4,0,0,-15
13:25:03:316276,-2,0,3,-1,4,0,0,-15
13:25:03:322278,4,-4,-4,2,-2,0,3,3
13:25:03:329777,-2,-23,4,-1,5,5,1,7
13:25:03:337365,-2,-23,4,-1,5,5,1,7
13:25:03:344799,1,5,5,1,-12,-9,-2,1
13:25:03:352997,-1,-1,5,4,9,-5,-2,6
13:25:03:353830,-1,-1,5,4,9,-5,-2,6
13:25:03:359796,-5,9,-1,-5,-3,-3,-8,-1
13:25:03:375506,3,-3,2,-9,-2,4,6,10
13:25:03:376330,3,-3,2,-9,-2,4,6,10
13:25:03:382261,-6,-3,-1,0,-1,-5,-3,10
13:25:03:389798,6,1,-20,-2,1,-4,-4,6
13:25:03:397374,6,1,-20,-2,1,-4,-4,6
13:25:03:404809,3,14,1,0,0,4,7,0
13:25:03:412700,1,12,-1,-1,-10,-9,-1,3
13:25:03:420460,1,12,-1,-1,-10,-9,-1,3
13:25:03:421275,7,-2,-2,-9,-10,-8,-3,-8
13:25:03:435463,8,10,-7,-1,-4,-2,-7,-4
13:25:03:436273,8,10,-7,-1,-4,-2,-7,-4
13:25:03:442303,-5,8,-1,-3,-1,1,-6,-9
13:25:03:449805,-3,-4,-3,-3,-2,4,-3,2
13:25:03:457317,-3,-4,-3,-3,-2,4,-3,2
13:25:03:464814,4,4,5,2,1,-2,-4,-4
13:25:03:472976,1,9,4,-7,1,4,6,9
13:25:03:473784,1,9,4,-7,1,4,6,9
13:25:03:479764,-4,-18,-18,-1,0,1,-1,-2
13:25:03:495443,-9,-6,-18,-8,-7,-4,-5,-9
13:25:03:496270,-9,-6,-18,-8,-7,-4,-5,-9
13:25:03:502256,1,-23,3,3,3,1,1,5
13:25:03:509800,1,6,0,-5,-4,0,-2,-5
13:25:03:517334,1,6,0,-5,-4,0,-2,-5
13:25:03:524758,2,-6,3,9,14,5,2,0
13:25:03:532986,-3,-14,7,6,-1,-3,1,-3
13:25:03:533800,-3,-14,7,6,-1,-3,1,-3
13:25:03:539773,2,-10,-12,-9,-4,-2,-3,-7
13:25:03:555486,3,12,1,1,2,-2,-1,-8
13:25:03:556296,3,12,1,1,2,-2,-1,-8
13:25:03:562283,2,0,4,2,-5,-1,7,10
13:25:03:577957,-12,-38,-6,10,6,1,-4,-9
13:25:03:578777,-12,-38,-6,10,6,1,-4,-9
13:25:03:584749,-9,14,4,5,9,5,0,-4
13:25:03:592976,-1,-1,4,5,5,3,4,2
13:25:03:593820,-1,-1,4,5,5,3,4,2
13:25:03:607309,3,1,-2,-5,-4,1,-1,-6
13:25:03:615486,4,-21,-18,1,3,-2,0,-5
13:25:03:616273,4,-21,-18,1,3,-2,0,-5
13:25:03:622279,2,-10,4,-9,-12,-5,0,5
13:25:03:637983,2,20,6,-2,-12,-5,-1,2
13:25:03:638798,2,20,6,-2,-12,-5,-1,2
13:25:03:644796,-3,-2,-2,-7,-8,-6,-7,-12
13:25:03:652978,-4,25,3,-5,-3,-3,-1,-9
13:25:03:653807,-4,25,3,-5,-3,-3,-1,-9
13:25:03:667319,-7,4,-1,-4,-2,-8,0,5
13:25:03:675475,4,-8,8,3,3,0,-1,4
13:25:03:676278,4,-8,8,3,3,0,-1,4
13:25:03:682326,-19,-27,-19,-2,3,-2,1,-4
13:25:03:697974,-2,15,8,2,14,11,3,0
13:25:03:698772,-2,15,8,2,14,11,3,0
13:25:03:704832,-5,13,7,2,-3,0,-2,4
13:25:03:712950,-5,1,3,-8,-13,-4,-4,-6
13:25:03:713758,-5,1,3,-8,-13,-4,-4,-6
13:25:03:727286,5,2,-1,4,6,7,4,4
13:25:03:735451,0,-12,3,2,1,-2,-5,-2
13:25:03:736302,0,-12,3,2,1,-2,-5,-2
13:25:03:742335,1,-11,7,5,-1,-3,-4,0
13:25:03:758025,-13,-45,-9,-5,0,-2,-4,-8
13:25:03:758849,-13,-45,-9,-5,0,-2,-4,-8
13:25:03:764773,2,7,-1,-3,0,-2,-11,-19
13:25:03:772948,-14,6,-3,-3,-6,-7,-3,-14
13:25:03:773771,-14,6,-3,-3,-6,-7,-3,-14
13:25:03:787280,-2,5,0,-1,-2,0,0,1
13:25:03:795506,4,6,2,-14,-4,-3,2,4
13:25:03:796322,4,6,2,-14,-4,-3,2,4
13:25:03:802303,6,7,9,1,-3,1,6,15
13:25:03:817989,0,-3,2,-1,0,-1,-1,-1
13:25:03:818827,0,-3,2,-1,0,-1,-1,-1
13:25:03:824824,5,1,-3,2,1,1,7,8
13:25:03:833014,-1,8,-5,4,2,4,-3,1
13:25:03:833820,-1,8,-5,4,2,4,-3,1
13:25:03:847289,3,-1,-1,-4,-5,-5,-4,-4
13:25:03:855485,10,16,-2,0,-9,-7,-4,9
13:25:03:856313,10,16,-2,0,-9,-7,-4,9
13:25:03:862296,5,12,1,-2,-4,-3,-4,-1
13:25:03:877983,-1,-12,-12,3,-4,1,3,3
13:25:03:878786,-1,-12,-12,3,-4,1,3,3
13:25:03:884771,3,7,5,0,7,4,5,2
13:25:03:892990,-1,3,-11,1,9,1,5,6
13:25:03:893835,-1,3,-11,1,9,1,5,6
13:25:03:907301,-9,-18,-4,3,3,0,-7,-5
13:25:03:915485,-1,-17,5,-2,0,-1,-3,6
13:25:03:916333,-1,-17,5,-2,0,-1,-3,6
13:25:03:922280,-3,-8,1,2,-1,-2,-2,4
13:25:03:938010,-4,-9,10,4,-3,1,0,1
13:25:03:938840,-4,-9,10,4,-3,1,0,1
13:25:03:944764,-3,-21,-14,-7,-5,-2,4,14
13:25:03:952988,-2,4,5,-4,-4,2,1,2
13:25:03:953822,-2,4,5,-4,-4,2,1,2
13:25:03:967287,-9,-5,-9,-3,0,-1,4,-8
13:25:03:975470,3,-10,-4,-2,-2,-9,-2,1
13:25:03:976295,3,-10,-4,-2,-2,-9,-2,1
13:25:03:982272,-12,-1,5,3,1,-1,-2,-7
13:25:03:997997,-12,-1,5,3,1,-1,-2,-7
13:25:03:998826,4,19,3,-1,0,-1,0,9
13:25:04:4769,2,-11,3,2,0,-2,-1,0
13:25:04:20496,2,-11,3,2,0,-2,-1,0
13:25:04:21271,-2,-9,7,-2,1,0,-3,-3
13:25:04:27264,0,-17,5,6,1,5,-3,5
13:25:04:35487,0,-17,5,6,1,5,-3,5
13:25:04:36305,-13,-3,-10,-3,-1,0,-3,-7
13:25:04:42252,3,7,-3,0,-3,0,-3,-6
13:25:04:58004,3,7,-3,0,-3,0,-3,-6
13:25:04:58777,4,10,0,-2,0,0,2,-3
13:25:04:64780,-7,3,2,-5,4,-3,-8,-18
13:25:04:80464,-7,3,2,-5,4,-3,-8,-18
13:25:04:81274,6,4,8,4,-3,0,0,-5
13:25:04:87291,8,20,5,9,14,4,-1,-5
13:25:04:95489,8,20,5,9,14,4,-1,-5
13:25:04:96298,-9,-11,-4,2,-1,-4,1,4
13:25:04:102243,-4,6,-2,-14,-4,-3,5,-2
13:25:04:117976,-4,6,-2,-14,-4,-3,5,-2
13:25:04:118788,7,8,8,0,3,4,2,5
13:25:04:124787,1,10,4,6,-5,0,5,7
13:25:04:140964,1,10,4,6,-5,0,5,7
13:25:04:141715,-3,-21,-5,-4,-7,-4,-7,-6
13:25:04:147296,5,9,-4,7,2,5,6,11
13:25:04:155492,5,9,-4,7,2,5,6,11
13:25:04:156273,0,-2,-5,2,8,3,0,-1
13:25:04:162340,-9,-5,-7,-9,-5,-3,-4,-1
13:25:04:186210,-9,-5,-7,-9,-5,-3,-4,-1
13:25:04:186982,-11,-14,-6,-5,1,-4,-6,-7
13:25:04:187781,2,-7,-5,10,-2,-4,0,4
13:25:04:200503,2,-7,-5,10,-2,-4,0,4
13:25:04:201302,-6,-14,-8,-11,-10,-9,-2,-4
13:25:04:207272,0,13,1,-8,-5,-7,-4,-13
13:25:04:215516,0,13,1,-8,-5,-7,-4,-13
13:25:04:216307,-4,5,2,1,2,2,-3,7
13:25:04:222303,1,-39,-17,-6,-3,-8,-6,9
13:25:04:237998,1,-39,-17,-6,-3,-8,-6,9
13:25:04:238812,8,28,5,-1,-8,-2,0,-4
13:25:04:244802,-6,1,-1,-2,-1,-3,-5,9
13:25:04:260502,-6,1,-1,-2,-1,-3,-5,9
13:25:04:261304,4,15,2,-1,1,-2,0,1
13:25:04:267257,2,1,10,1,11,5,1,-4
13:25:04:275529,2,1,10,1,11,5,1,-4
13:25:04:276294,4,8,-2,4,0,1,0,-5
13:25:04:282278,-2,-22,-1,-5,-4,-1,-3,-4
13:25:04:297987,-2,-22,-1,-5,-4,-1,-3,-4
13:25:04:298822,5,11,0,0,-3,-2,5,2
13:25:04:304770,-6,-13,3,-3,-1,5,1,2
13:25:04:328697,-6,-13,3,-3,-1,5,1,2
13:25:04:329470,-3,-20,-4,10,-1,-2,-4,-3
13:25:04:330326,-2,9,-8,5,5,0,2,0
13:25:04:336194,-2,9,-8,5,5,0,2,0
13:25:04:336962,3,-4,2,0,-1,-3,0,-2
13:25:04:342316,5,19,-2,-1,1,-4,-1,-2
13:25:04:358040,5,19,-2,-1,1,-4,-1,-2
13:25:04:358834,-6,-20,-9,-4,4,5,2,3
13:25:04:364812,-6,8,9,-1,-8,-5,-5,-9
13:25:04:380535,-6,8,9,-1,-8,-5,-5,-9
13:25:04:381307,-8,6,7,1,-1,0,2,1
13:25:04:387300,9,15,0,3,2,-6,-4,7
13:25:04:395499,9,15,0,3,2,-6,-4,7
13:25:04:396286,-7,-28,-3,-3,-1,2,-6,-4
13:25:04:402319,3,10,7,-6,-7,-2,-2,0
13:25:04:418014,3,10,7,-6,-7,-2,-2,0
13:25:04:418792,4,21,-4,-4,0,-2,-5,-6
13:25:04:424793,-4,-2,-5,-2,-7,-9,-7,-1
13:25:04:440517,-4,-2,-5,-2,-7,-9,-7,-1
13:25:04:441336,10,23,-5,5,0,-3,4,9
13:25:04:447293,-2,-9,-3,-6,-3,3,5,5
13:25:04:455510,-2,-9,-3,-6,-3,3,5,5
13:25:04:456327,-14,-27,-18,-8,-3,-3,-1,-4
13:25:04:469760,1,-5,-2,1,0,5,6,0
13:25:04:478035,1,-5,-2,1,0,5,6,0
13:25:04:478788,0,-14,11,2,0,-1,-2,0
13:25:04:484778,-7,-9,-4,-5,-2,0,-4,-8
13:25:04:500483,-7,-9,-4,-5,-2,0,-4,-8
13:25:04:501314,-3,9,3,-1,-7,-4,1,-4
13:25:04:516135,0,-12,4,-2,-1,-1,0,-2
13:25:04:516958,0,-12,4,-2,-1,-1,0,-2
13:25:04:517762,11,9,-5,-1,-1,-3,-5,-5
13:25:04:529827,3,4,2,-2,1,2,2,-5
13:25:04:537994,3,4,2,-2,1,2,2,-5
13:25:04:538782,-21,-27,-1,5,11,8,1,-2
13:25:04:544783,4,9,-9,-1,-6,-3,-4,1
13:25:04:560456,4,9,-9,-1,-6,-3,-4,1
13:25:04:561298,2,26,-10,-1,2,7,-1,-1
13:25:04:567294,-6,-19,2,-3,-2,-3,0,-2
13:25:04:575513,-6,-19,2,-3,-2,-3,0,-2
13:25:04:576289,9,11,4,0,-5,-1,-1,6
13:25:04:589781,7,-5,-6,-3,-3,-2,-1,10
13:25:04:597978,7,-5,-6,-3,-3,-2,-1,10
13:25:04:598781,-4,0,1,-2,0,-2,4,2
13:25:04:604835,0,-2,6,3,-2,-2,-4,-5
13:25:04:612401,0,-2,6,3,-2,-2,-4,-5
13:25:04:619865,1,-4,2,-16,-2,-5,0,3
13:25:04:627296,-7,-3,-7,-2,0,-3,0,-8
13:25:04:642978,-7,-3,-7,-2,0,-3,0,-8
13:25:04:643775,0,2,3,-2,-8,-6,-4,-4
13:25:04:649835,-2,2,8,9,11,2,2,-4
13:25:04:658001,-2,2,8,9,11,2,2,-4
13:25:04:658891,-7,13,5,-10,-6,-4,-2,-1
13:25:04:664783,-6,-16,-31,-7,-14,-7,-3,0
13:25:04:672337,-6,-16,-31,-7,-14,-7,-3,0
13:25:04:687924,0,-3,3,-1,-5,1,-1,1
13:25:04:688725,-5,15,17,4,8,5,0,-7
13:25:04:702969,-5,15,17,4,8,5,0,-7
13:25:04:703745,9,4,-3,2,6,-1,2,1
13:25:04:709785,0,11,13,-8,-4,-3,-3,-6
13:25:04:717986,0,11,13,-8,-4,-3,-3,-6
13:25:04:718766,-15,-13,6,5,7,0,2,4
13:25:04:724825,11,12,2,-3,-1,3,0,2
13:25:04:732356,11,12,2,-3,-1,3,0,2
13:25:04:739784,7,7,-12,-12,-12,-4,-1,-3
13:25:04:747248,-4,-15,2,0,3,-3,-2,-1
13:25:04:755511,-4,-15,2,0,3,-3,-2,-1
13:25:04:756316,4,-8,-12,10,1,6,-1,2
13:25:04:769782,-5,0,-12,-1,-3,-8,-3,-11
13:25:04:778013,-5,0,-12,-1,-3,-8,-3,-11
13:25:04:778801,4,3,-7,4,16,8,1,-6
13:25:04:784780,10,25,3,2,2,1,3,5
13:25:04:792350,10,25,3,2,2,1,3,5
13:25:04:799813,2,5,-4,2,-4,-4,-7,-4
13:25:04:807266,-5,-10,0,-5,-2,-1,2,4
13:25:04:815511,-5,-10,0,-5,-2,-1,2,4
13:25:04:816310,-3,-2,-6,0,0,-3,-3,-3
13:25:04:829762,-9,-12,8,11,13,6,-6,-16
13:25:04:837992,-9,-12,8,11,13,6,-6,-16
13:25:04:838794,-4,-10,3,9,14,4,-2,-2
13:25:04:844760,-13,-2,-2,-7,0,-1,0,8
13:25:04:852347,-13,-2,-2,-7,0,-1,0,8
13:25:04:859810,1,-4,0,-1,-9,-2,7,3
13:25:04:876136,4,-12,-8,-3,-4,1,2,8
13:25:04:876978,4,-12,-8,-3,-4,1,2,8
13:25:04:877782,-1,-8,0,-4,-7,-8,-3,0
13:25:04:889763,2,7,-6,-2,-7,-3,-8,-22
13:25:04:897979,2,7,-6,-2,-7,-3,-8,-22
13:25:04:898826,-7,-34,-4,2,-1,2,0,-6
13:25:04:904780,1,4,-12,-9,-9,-5,-3,1
13:25:04:912369,1,4,-12,-9,-9,-5,-3,1
13:25:04:919812,8,1,6,-5,-1,-3,2,5
13:25:04:927328,1,-8,4,2,-5,-1,2,10
13:25:04:935508,1,-8,4,2,-5,-1,2,10
13:25:04:936332,2,14,-1,-3,-3,-4,-2,-1
13:25:04:949756,10,9,-4,-1,3,1,3,12
13:25:04:958043,10,9,-4,-1,3,1,3,12
13:25:04:958825,-14,18,2,0,-2,0,-3,-13
13:25:04:964790,-2,8,0,-8,0,2,2,-3
13:25:04:972380,-2,8,0,-8,0,2,2,-3
13:25:04:979822,7,7,4,1,-10,-5,-4,-1
13:25:04:987300,-7,3,0,2,-1,-5,-9,-15
13:25:04:995487,-7,3,0,2,-1,-5,-9,-15
13:25:04:996293,3,-11,-7,-11,-2,0,0,-4
13:25:05:9806,5,3,18,8,-2,-3,0,2
13:25:05:18032,5,3,18,8,-2,-3,0,2
13:25:05:18841,-9,-3,11,-3,0,2,1,0
13:25:05:24816,0,0,-11,-11,-5,-4,-3,-6
13:25:05:32326,0,0,-11,-11,-5,-4,-3,-6
13:25:05:39835,6,14,2,-6,-15,-6,1,4
13:25:05:47313,-2,-7,4,-7,-3,2,1,1
13:25:05:55500,-2,-7,4,-7,-3,2,1,1
13:25:05:56301,-7,-26,0,7,1,-5,-2,1
13:25:05:78700,7,10,0,5,2,3,4,9
13:25:05:79476,7,10,0,5,2,3,4,9
13:25:05:80287,-4,-36,-2,-1,4,-2,-5,2
13:25:05:84796,-1,-6,7,-6,3,-2,-7,-6
13:25:05:92333,-1,-6,7,-6,3,-2,-7,-6
13:25:05:99826,7,24,1,-1,4,-2,5,2
13:25:05:107275,4,7,-20,-1,-5,-3,-1,8
13:25:05:115462,4,7,-20,-1,-5,-3,-1,8
13:25:05:116272,9,3,2,2,7,3,-2,0
13:25:05:129804,-2,-11,2,6,6,0,0,-7
13:25:05:137982,-2,-11,2,6,6,0,0,-7
13:25:05:138780,-4,10,-3,-1,-4,-3,-2,-2
13:25:05:144806,-1,4,5,0,0,-2,-1,4
13:25:05:152327,-1,4,5,0,0,-2,-1,4
13:25:05:159764,0,7,2,-7,5,2,-4,0
13:25:05:167264,-14,-14,-5,12,-2,2,1,-3
13:25:05:175502,-14,-14,-5,12,-2,2,1,-3
13:25:05:176280,-2,-17,-15,-10,-1,-4,-8,-8
13:25:05:189817,-3,8,-11,-5,1,-2,-4,-8
13:25:05:198005,-3,8,-11,-5,1,-2,-4,-8
13:25:05:198791,-3,3,6,1,-1,1,4,7
13:25:05:204784,2,-6,8,5,8,2,1,-5
13:25:05:212369,2,-6,8,5,8,2,1,-5
13:25:05:219788,-3,-26,5,-1,-1,-1,-1,-6
13:25:05:227308,-4,12,3,-2,-5,-3,-1,9
13:25:05:236157,-4,12,3,-2,-5,-3,-1,9
13:25:05:236977,-5,2,-3,0,-1,0,-3,2
13:25:05:249780,-4,-24,-9,-10,-3,-2,-3,-5
13:25:05:257994,-4,-24,-9,-10,-3,-2,-3,-5
13:25:05:258785,2,-7,-7,4,-2,0,2,0
13:25:05:264809,-4,3,0,0,-5,-4,-2,0
13:25:05:272353,-4,3,0,0,-5,-4,-2,0
13:25:05:279793,1,7,4,-3,0,4,1,-9
13:25:05:287276,11,15,2,-4,0,-2,1,3
13:25:05:295540,11,15,2,-4,0,-2,1,3
13:25:05:296336,5,14,-11,-4,-5,-4,-8,-4
13:25:05:309833,-4,-2,0,-2,-6,-2,-1,2
13:25:05:318043,-4,-2,0,-2,-6,-2,-1,2
13:25:05:318802,-7,-4,0,0,2,0,3,1
13:25:05:324794,0,1,3,2,-1,1,1,-1
13:25:05:332375,0,1,3,2,-1,1,1,-1
13:25:05:339792,-1,10,6,-2,5,-1,-3,-11
13:25:05:347295,-3,-10,-7,2,-3,-2,3,2
13:25:05:355474,-3,-10,-7,2,-3,-2,3,2
13:25:05:356286,-1,16,2,-4,-2,0,2,6
13:25:05:370256,-1,8,5,-10,1,6,7,0
13:25:05:378050,-1,8,5,-10,1,6,7,0
13:25:05:378827,3,-3,-5,5,5,3,12,19
13:25:05:384807,-13,-15,-1,-1,1,-8,-4,-1
13:25:05:392307,-13,-15,-1,-1,1,-8,-4,-1
13:25:05:399782,-12,-5,4,1,-3,-3,-3,-16
13:25:05:407293,-6,-12,-1,-1,-3,-7,-3,-6
13:25:05:423025,-6,-12,-1,-1,-3,-7,-3,-6
13:25:05:423820,9,6,2,5,2,-1,-7,-4
13:25:05:429832,14,14,2,3,6,6,5,-5
13:25:05:437966,14,14,2,3,6,6,5,-5
13:25:05:438777,-1,0,-8,-4,-9,-2,0,5
13:25:05:444775,-8,-11,2,6,9,4,-2,6
13:25:05:452328,-8,-11,2,6,9,4,-2,6
13:25:05:459753,6,19,6,3,0,-1,-3,-3
13:25:05:475447,3,7,1,0,3,2,3,2
13:25:05:476299,3,7,1,0,3,2,3,2
13:25:05:482336,-16,-7,-1,-2,-4,-4,-4,-5
13:25:05:489772,-3,-10,0,0,-5,1,4,9
13:25:05:498749,-3,-10,0,0,-5,1,4,9
13:25:05:499496,2,-10,2,-2,-2,-2,-6,-11
13:25:05:521166,4,24,15,0,-6,-3,-6,-3
13:25:05:521962,4,24,15,0,-6,-3,-6,-3
13:25:05:522796,-3,3,-4,-7,0,-1,-2,0
13:25:05:527295,-5,-22,1,-3,-1,-2,-2,-5
13:25:05:534933,-5,-22,1,-3,-1,-2,-2,-5
13:25:05:542302,3,-4,-9,-3,-6,-2,2,-5
13:25:05:558663,-2,7,-1,-19,-2,-2,-7,-6
13:25:05:559510,-2,7,-1,-19,-2,-2,-7,-6
13:25:05:560285,-4,-7,-1,0,-3,-8,-7,-2
13:25:05:573003,2,-31,-7,4,5,8,8,5
13:25:05:573840,2,-31,-7,4,5,8,8,5
13:25:05:579775,-2,-5,0,1,5,3,-2,-8
13:25:05:587297,6,-1,-11,3,-1,-3,-13,-11
13:25:05:594861,6,-1,-11,3,-1,-3,-13,-11
13:25:05:610431,-1,14,10,4,4,1,-1,2
13:25:05:611236,-8,-1,-3,-4,-5,-4,-6,-10
13:25:05:617995,-8,-1,-3,-4,-5,-4,-6,-10
13:25:05:618822,0,13,4,0,1,2,5,11
13:25:05:632990,-13,-7,-6,0,-6,-7,-5,1
13:25:05:633839,-13,-7,-6,0,-6,-7,-5,1
13:25:05:639806,3,3,1,-2,-4,-3,4,4
13:25:05:647275,4,18,-5,1,0,-3,-8,7
13:25:05:654878,4,18,-5,1,0,-3,-8,7
13:25:05:662279,6,-14,-5,-5,-1,-3,-7,0
13:25:05:669777,8,7,-5,-3,1,-2,2,-8
13:25:05:678051,8,7,-5,-3,1,-2,2,-8
13:25:05:678817,3,-10,-5,0,0,5,5,8
13:25:05:693009,2,1,2,6,3,5,16,25
13:25:05:693834,2,1,2,6,3,5,16,25
13:25:05:699807,-3,10,3,1,-4,-7,-1,0
13:25:05:707301,-11,-12,0,2,1,-4,-2,-7
13:25:05:714879,-11,-12,0,2,1,-4,-2,-7
13:25:05:722283,3,-5,-6,0,2,3,3,7
13:25:05:729797,-23,-43,-16,-11,-5,-3,-3,0
13:25:05:754400,-23,-43,-16,-11,-5,-3,-3,0
13:25:05:755175,-1,6,12,-2,-4,-1,-1,-8
13:25:05:755993,9,25,3,-6,-5,3,1,-5
13:25:05:756812,9,25,3,-6,-5,3,1,-5
13:25:05:759767,-9,-39,-13,-8,3,-1,-4,-5
13:25:05:767256,1,3,3,2,2,-1,-5,-12
13:25:05:774876,1,3,3,2,2,-1,-5,-12
13:25:05:782310,7,14,-13,0,-1,0,5,3
13:25:05:798648,6,2,11,2,0,-3,-5,-1
13:25:05:799468,6,2,11,2,0,-3,-5,-1
13:25:05:800292,-8,-23,0,0,1,-3,-4,-3
13:25:05:812993,4,16,4,8,-4,-1,10,14
13:25:05:813787,4,16,4,8,-4,-1,10,14
13:25:05:819783,-1,-3,-4,0,5,0,-7,-5
13:25:05:827294,-7,-45,-4,-4,-2,-2,-3,3
13:25:05:834861,-7,-45,-4,-4,-2,-2,-3,3
13:25:05:842303,-5,-2,-1,4,9,9,3,1
13:25:05:849789,5,24,-21,-8,0,-1,-4,-4
13:25:05:858021,5,24,-21,-8,0,-1,-4,-4
13:25:05:858862,-1,-11,-3,-4,-10,-4,-1,6
13:25:05:873019,-1,12,4,-4,-3,2,-1,-11
13:25:05:873840,-1,12,4,-4,-3,2,-1,-11
13:25:05:879782,4,6,2,6,3,0,0,3
13:25:05:887284,4,11,0,-5,-6,-1,-4,-15
13:25:05:894892,4,11,0,-5,-6,-1,-4,-15
13:25:05:902328,-4,-5,4,1,-3,-4,-1,-8
13:25:05:909805,6,-2,3,0,-2,-4,-4,-11
13:25:05:917981,6,-2,3,0,-2,-4,-4,-11
13:25:05:918784,5,6,-3,-4,2,-4,-2,1
13:25:05:933025,-1,-15,-1,-9,-3,3,-2,-3
13:25:05:933846,-1,-15,-1,-9,-3,3,-2,-3
13:25:05:939810,-2,-1,-13,-11,-7,-2,-2,3
13:25:05:947302,3,15,6,6,-1,-1,7,10
13:25:05:954829,3,15,6,6,-1,-1,7,10
13:25:05:962293,-8,-30,0,-7,-7,-3,-1,-8
13:25:05:969820,-4,9,1,-4,2,-3,-4,-6
13:25:05:978736,-4,9,1,-4,2,-3,-4,-6
13:25:05:979499,3,30,8,8,-4,-3,2,-4
13:25:05:992974,6,7,5,20,-1,-4,3,16
13:25:05:993808,6,7,5,20,-1,-4,3,16
13:25:05:999811,2,1,5,14,14,6,-1,-4
13:25:06:7346,-5,-12,-10,-3,3,-2,-5,-11
13:25:06:14825,-5,-12,-10,-3,3,-2,-5,-11
13:25:06:22249,-1,11,-2,-7,-3,-1,-5,-3
13:25:06:29768,-8,-3,-3,6,3,3,-1,6
13:25:06:38003,-8,-3,-3,6,3,3,-1,6
13:25:06:38794,3,-5,-3,-4,0,-1,2,5
13:25:06:52999,-2,-9,1,-6,2,-3,-1,6
13:25:06:53784,-2,-9,1,-6,2,-3,-1,6
13:25:06:59768,1,5,-2,11,8,0,-2,-6
13:25:06:67242,-2,6,-5,-7,-6,-1,-3,0
13:25:06:74834,-2,6,-5,-7,-6,-1,-3,0
13:25:06:82280,-15,-15,-3,3,-6,2,3,9
13:25:06:89787,-6,-10,11,-3,1,1,-3,-8
13:25:06:98042,-6,-10,11,-3,1,1,-3,-8
13:25:06:98822,-1,14,3,-6,-11,-6,-3,9
13:25:06:112975,-9,-18,-3,-6,-4,-7,-3,4
13:25:06:113811,-9,-18,-3,-6,-4,-7,-3,4
13:25:06:119800,2,-9,-2,-8,-7,-4,0,0
13:25:06:127289,-2,1,0,3,5,1,0,8
13:25:06:134867,-2,1,0,3,5,1,0,8
13:25:06:142279,-1,7,3,-1,6,0,-2,0
13:25:06:149751,4,-6,-1,9,3,1,7,-4
13:25:06:158032,4,-6,-1,9,3,1,7,-4
13:25:06:158815,-1,-20,-2,-14,10,3,0,0
13:25:06:173009,7,7,-2,-2,0,1,4,3
13:25:06:173835,7,7,-2,-2,0,1,4,3
13:25:06:179791,6,14,-6,-1,-2,-5,-6,-15
13:25:06:187310,0,-14,-6,-3,0,-1,-5,-11
13:25:06:194856,0,-14,-6,-3,0,-1,-5,-11
13:25:06:202316,-3,-16,-7,-2,-7,1,0,-1
13:25:06:209823,2,23,0,4,3,5,3,3
13:25:06:217988,2,23,0,4,3,5,3,3
13:25:06:218805,-1,2,8,3,0,-1,5,11
13:25:06:232987,-12,-16,-11,-8,-2,-4,-5,-7
13:25:06:233788,-12,-16,-11,-8,-2,-4,-5,-7
13:25:06:239789,1,3,-2,-2,-4,-1,1,1
13:25:06:247337,9,17,4,-7,-5,-1,0,-1
13:25:06:254794,9,17,4,-7,-5,-1,0,-1
13:25:06:262314,4,11,0,3,-5,0,-1,6
13:25:06:269801,11,18,2,-2,-5,-3,-3,0
13:25:06:277968,11,18,2,-2,-5,-3,-3,0
13:25:06:278798,-1,-5,4,-2,7,-2,0,-4
13:25:06:293610,-9,-9,-4,-2,0,-2,-7,-5
13:25:06:294418,-9,-9,-4,-2,0,-2,-7,-5
13:25:06:299798,0,-1,-2,-1,-5,-5,3,0
13:25:06:307297,6,10,2,-5,-3,-5,-4,-15
13:25:06:314847,6,10,2,-5,-3,-5,-4,-15
13:25:06:322253,4,16,9,-3,-4,-6,-10,-4
13:25:06:329768,2,7,8,1,-2,-2,-2,-6
13:25:06:338031,2,7,8,1,-2,-2,-2,-6
13:25:06:338802,-8,3,6,0,-3,1,-2,-10
13:25:06:352985,-5,-5,7,2,3,0,-3,-1
13:25:06:353799,-5,-5,7,2,3,0,-3,-1
13:25:06:359793,-9,-4,-6,-19,-6,-2,0,-4
13:25:06:367248,5,-2,-14,3,-8,-1,2,10
13:25:06:374832,5,-2,-14,3,-8,-1,2,10
13:25:06:390459,-2,-23,-5,-7,-2,-1,-3,5
13:25:06:391234,-6,-2,4,9,11,3,-1,-2
13:25:06:398029,-6,-2,4,9,11,3,-1,-2
13:25:06:398827,6,4,-11,4,-3,0,-1,0
13:25:06:412962,-2,1,-8,-3,-4,-3,-4,-9
13:25:06:413806,-2,1,-8,-3,-4,-3,-4,-9
13:25:06:419775,9,5,0,8,11,0,-2,0
13:25:06:435487,-1,0,1,8,14,3,2,3
13:25:06:436281,-1,0,1,8,14,3,2,3
13:25:06:450452,-3,-15,5,7,3,1,1,0
13:25:06:451257,-5,-1,-2,0,-5,-2,3,4
13:25:06:457361,-5,-1,-2,0,-5,-2,3,4
13:25:06:464795,-3,11,-3,1,2,2,-1,9
13:25:06:481187,-3,-8,-2,-5,-3,-1,-2,-1
13:25:06:481984,-3,-8,-2,-5,-3,-1,-2,-1
13:25:06:482806,-1,1,-11,3,7,-6,-2,0
13:25:06:495498,4,15,2,-9,1,5,-2,5
13:25:06:496305,4,15,2,-9,1,5,-2,5
13:25:06:502298,4,7,2,-3,-6,4,12,3
13:25:06:509805,-5,-12,-3,0,-4,-2,0,10
13:25:06:517371,-5,-12,-3,0,-4,-2,0,10
13:25:06:533677,-13,-31,-10,-5,-5,0,4,0
13:25:06:534442,-1,-4,-1,-4,-4,-1,2,4
13:25:06:535305,-1,-4,-1,-4,-4,-1,2,4
13:25:06:539779,-4,-6,0,-8,-6,-2,-11,-22
13:25:06:555493,-8,-13,6,6,10,6,2,-10
13:25:06:556299,-8,-13,6,6,10,6,2,-10
13:25:06:562284,4,7,7,3,-1,-4,-8,-6
13:25:06:569806,8,5,2,-2,-2,-4,-3,-7
13:25:06:577374,8,5,2,-2,-2,-4,-3,-7
13:25:06:584795,3,-4,0,0,-3,0,-3,0
13:25:06:593038,4,14,-4,4,-1,-2,6,15
13:25:06:593842,4,14,-4,4,-1,-2,6,15
13:25:06:599797,-6,-24,-6,-3,-4,-4,-10,7
13:25:06:615486,2,7,-7,-11,0,-1,-3,-11
13:25:06:616324,2,7,-7,-11,0,-1,-3,-11
13:25:06:622307,-5,9,0,-1,0,0,2,-2
13:25:06:629787,-9,-25,4,-14,-8,-3,0,2
13:25:06:637348,-9,-25,4,-14,-8,-3,0,2
13:25:06:644827,-3,14,-4,0,-1,1,2,1
13:25:06:652973,3,16,-12,-1,-6,-5,-3,-2
13:25:06:653778,3,16,-12,-1,-6,-5,-3,-2
13:25:06:659821,-14,-32,-1,3,1,1,1,-1
13:25:06:675461,-9,-5,-3,4,0,-5,-3,-6
13:25:06:676274,-9,-5,-3,4,0,-5,-3,-6
13:25:06:682322,1,33,2,4,-1,10,2,1
13:25:06:689804,-6,-14,0,2,3,0,11,2
13:25:06:697314,-6,-14,0,2,3,0,11,2
13:25:06:704829,1,11,1,-5,-1,-4,-4,-7
13:25:06:712986,11,13,2,-1,-5,2,-7,5
13:25:06:713803,11,13,2,-1,-5,2,-7,5
13:25:06:719780,1,-4,3,1,-2,-4,1,-5
13:25:06:735466,-2,-1,11,7,-2,-2,0,5
13:25:06:736305,-2,-1,11,7,-2,-2,0,5
13:25:06:742296,6,-7,-3,2,7,1,-3,-1
13:25:06:749818,5,25,6,0,-8,-4,-4,-5
13:25:06:757317,5,25,6,0,-8,-4,-4,-5
13:25:06:764756,4,19,-3,5,0,0,-1,3
13:25:06:772987,-12,-19,-6,-4,-1,-1,-6,-6
13:25:06:773804,-12,-19,-6,-4,-1,-1,-6,-6
13:25:06:779792,1,-5,-10,-5,-5,-3,-2,-2
13:25:06:795484,-2,-14,4,-1,-4,0,-2,2
13:25:06:796304,-2,-14,4,-1,-4,0,-2,2
13:25:06:802271,4,-8,0,-12,-2,5,0,-5
13:25:06:809772,-7,-33,-39,-25,18,2,2,-1
13:25:06:817337,-7,-33,-39,-25,18,2,2,-1
13:25:06:824799,4,-16,2,7,8,1,0,5
13:25:06:832974,-1,6,9,-2,-6,-7,-6,-18
13:25:06:833817,-1,6,9,-2,-6,-7,-6,-18
13:25:06:839796,-3,-28,-17,-6,-4,-5,6,14
13:25:06:855478,4,8,14,15,0,-1,1,2
13:25:06:856313,4,8,14,15,0,-1,1,2
13:25:06:862298,10,31,10,10,6,1,0,1
13:25:06:869791,-4,17,8,7,0,2,1,-4
13:25:06:877356,-4,17,8,7,0,2,1,-4
13:25:06:884803,3,17,11,-7,6,-3,-1,-5
13:25:06:893416,-2,7,6,-4,-6,-3,-3,-2
13:25:06:900597,-2,7,6,-4,-6,-3,-3,-2
13:25:06:901355,-15,-13,0,3,-1,1,-7,-7
13:25:06:915520,-6,9,1,6,-3,-2,-2,-6
13:25:06:916357,-6,9,1,6,-3,-2,-2,-6
13:25:06:922298,-3,10,0,-4,-6,-2,-2,-12
13:25:06:929825,6,-5,-8,0,2,1,4,10
13:25:06:945519,6,-5,-8,0,2,1,4,10
13:25:06:946312,0,5,-19,-5,-4,-4,-3,-4
13:25:06:953007,0,-3,-11,-18,-4,-2,-2,2
13:25:06:953830,0,-3,-11,-18,-4,-2,-2,2
13:25:06:959806,-1,2,-4,-6,-9,0,2,5
13:25:06:975507,3,-4,-13,-11,2,0,0,3
13:25:06:976317,3,-4,-13,-11,2,0,0,3
13:25:06:982327,7,31,-1,-12,-13,-6,-5,-2
13:25:06:989786,6,5,-3,11,-9,-1,-5,-5
13:25:06:997348,6,5,-3,11,-9,-1,-5,-5
13:25:07:12960,-2,-1,-7,2,5,4,3,4
13:25:07:13746,-6,-4,6,1,4,-1,-4,-2
13:25:07:20539,-6,-4,6,1,4,-1,-4,-2
13:25:07:21324,-7,-13,3,-1,-3,-2,0,-4
13:25:07:35513,5,7,-2,0,-1,2,1,8
13:25:07:36350,5,7,-2,0,-1,2,1,8
13:25:07:42286,-10,-19,5,-3,3,-1,-1,-5
13:25:07:49814,-2,-10,14,-7,-5,-6,-5,-6
13:25:07:57363,-2,-10,14,-7,-5,-6,-5,-6
13:25:07:64818,-9,-4,3,0,-7,-8,-2,-5
13:25:07:72931,1,-9,-8,1,-5,-2,3,7
13:25:07:73800,1,-9,-8,1,-5,-2,3,7
13:25:07:79863,-1,11,-1,3,2,2,3,9
13:25:07:95463,-9,-19,-5,-4,-4,-2,-2,-6
13:25:07:96314,-9,-19,-5,-4,-4,-2,-2,-6
13:25:07:102341,1,-8,15,1,1,-3,-2,-4
13:25:07:109775,-5,-9,2,6,1,3,1,4
13:25:07:117376,-5,-9,2,6,1,3,1,4
13:25:07:124841,3,-5,3,11,9,2,-2,-3
13:25:07:132959,4,8,0,-6,7,-4,-2,-10
13:25:07:133820,4,8,0,-6,7,-4,-2,-10
13:25:07:139816,3,0,-4,-6,-6,-3,0,1
13:25:07:155503,-12,-15,-10,2,2,-3,-4,-15
13:25:07:156324,-12,-15,-10,2,2,-3,-4,-15
13:25:07:162309,1,-6,-5,1,-3,1,3,5
13:25:07:169812,-4,20,16,-2,-2,-2,-4,-6
13:25:07:177312,-4,20,16,-2,-2,-2,-4,-6
13:25:07:184821,2,11,-2,2,-2,-1,-1,-8
13:25:07:192318,5,9,3,-1,-5,1,-1,9
13:25:07:200499,5,9,3,-1,-5,1,-1,9
13:25:07:201303,3,3,-11,-6,3,3,2,5
13:25:07:215481,-6,-14,-6,1,10,2,0,-4
13:25:07:216298,-6,-14,-6,1,10,2,0,-4
13:25:07:222259,-7,-1,1,-3,-5,-6,-3,-1
13:25:07:229823,9,4,-16,-1,5,3,3,7
13:25:07:237327,9,4,-16,-1,5,3,3,7
13:25:07:244765,-8,5,-2,-4,-5,-1,-5,2
13:25:07:252264,-3,-16,1,1,3,-1,3,1
13:25:07:260491,-3,-16,1,1,3,-1,3,1
13:25:07:261341,-4,-8,1,0,-2,-3,-2,-10
13:25:07:275455,-1,3,1,5,8,-1,-1,0
13:25:07:276341,-1,3,1,5,8,-1,-1,0
13:25:07:290489,-3,-20,0,-1,-9,-6,-5,-2
13:25:07:291294,4,-12,-5,-4,-7,-4,-2,1
13:25:07:297329,4,-12,-5,-4,-7,-4,-2,1
13:25:07:304776,5,5,-3,-6,4,3,-1,10
13:25:07:312275,-4,2,7,0,-2,-1,0,2
13:25:07:320504,-4,2,7,0,-2,-1,0,2
13:25:07:321298,-11,-10,-9,8,4,-2,6,5
13:25:07:335470,-2,1,-1,-4,-7,-2,-2,3
13:25:07:336308,-2,1,-1,-4,-7,-2,-2,3
13:25:07:342267,0,2,5,-1,-1,1,-3,-12
13:25:07:366179,10,11,-2,-3,-3,-2,1,1
13:25:07:366993,10,11,-2,-3,-3,-2,1,1
13:25:07:367812,6,-3,-9,5,6,0,-2,1
13:25:07:372299,0,2,0,-9,-4,-2,-2,-6
13:25:07:379827,0,2,0,-9,-4,-2,-2,-6
13:25:07:387351,-12,-28,8,6,2,2,3,-2
13:25:07:395463,-2,5,-4,0,-10,-3,3,-10
13:25:07:396310,-2,5,-4,0,-10,-3,3,-10
13:25:07:402267,1,-3,-3,-9,-7,-4,-1,-4
13:25:07:417974,5,9,5,2,-4,1,2,2
13:25:07:418803,5,9,5,2,-4,1,2,2
13:25:07:424797,-2,8,4,-2,-2,1,2,13
13:25:07:432306,-3,3,-2,3,0,0,-3,5
13:25:07:439842,-3,3,-2,3,0,0,-3,5
13:25:07:447268,-6,-25,0,-3,0,-3,-3,-5
13:25:07:455502,-7,-17,-2,2,-1,-2,-2,-1
13:25:07:456308,-7,-17,-2,2,-1,-2,-2,-1
13:25:07:462267,6,13,1,1,-2,0,-1,0
13:25:07:477966,-2,-9,1,5,5,1,7,-2
13:25:07:478771,-2,-9,1,5,5,1,7,-2
13:25:07:484783,1,-3,-7,1,-2,-5,-8,-11
13:25:07:492311,1,20,-4,4,3,2,5,4
13:25:07:499874,1,20,-4,4,3,2,5,4
13:25:07:507257,10,3,0,-3,-1,-1,2,-14
13:25:07:515471,-2,-2,1,-8,-3,-3,-2,-7
13:25:07:516299,-2,-2,1,-8,-3,-3,-2,-7
13:25:07:522318,-5,-23,5,1,1,-2,-5,-4
13:25:07:537986,-4,-3,9,-3,-1,-1,-8,-10
13:25:07:538829,-4,-3,9,-3,-1,-1,-8,-10
13:25:07:544766,3,10,0,3,1,1,0,5
13:25:07:552275,-8,-14,-5,-6,1,6,9,18
13:25:07:559857,-8,-14,-5,-6,1,6,9,18
13:25:07:567306,2,9,6,-4,-4,1,3,12
13:25:07:575468,1,-11,-10,-2,0,-5,-5,5
13:25:07:576335,1,-11,-10,-2,0,-5,-5,5
13:25:07:582281,-11,-18,-8,-4,-3,-1,9,-2
13:25:07:598009,4,14,2,-3,-2,-2,-9,-8
13:25:07:598822,4,14,2,-3,-2,-2,-9,-8
13:25:07:604802,2,21,5,0,2,-2,-4,-1
13:25:07:612295,-4,-4,5,1,-3,-2,0,-8
13:25:07:619861,-4,-4,5,1,-3,-2,0,-8
13:25:07:627296,-4,1,0,-4,-2,1,-10,2
13:25:07:643668,-8,-25,-9,-7,-3,-3,-1,-2
13:25:07:644468,-8,-25,-9,-7,-3,-3,-1,-2
13:25:07:645297,1,11,-3,2,-2,1,-1,0
13:25:07:658462,-2,-7,-5,-1,-3,-2,-8,-3
13:25:07:659272,-2,-7,-5,-1,-3,-2,-8,-3
13:25:07:672923,-2,0,-8,-8,-7,-9,-6,-8
13:25:07:673719,-3,-18,-12,-1,-4,0,-1,-3
13:25:07:679845,-3,-18,-12,-1,-4,0,-1,-3
13:25:07:687305,10,-3,-6,0,6,2,-3,7
13:25:07:695510,7,18,3,3,0,-2,0,15
13:25:07:696341,7,18,3,3,0,-2,0,15
13:25:07:702270,2,-3,-6,-6,-3,-4,-5,-4
13:25:07:717974,-1,-15,2,3,2,3,11,8
13:25:07:718811,-1,-15,2,3,2,3,11,8
13:25:07:724786,4,13,2,0,-2,-1,-1,5
13:25:07:732290,4,20,-10,3,-1,0,-1,-1
13:25:07:739850,4,20,-10,3,-1,0,-1,-1
13:25:07:747260,1,-15,-2,-2,6,1,2,-3
13:25:07:755508,-24,-9,1,-3,-2,-1,-1,1
13:25:07:756314,-24,-9,1,-3,-2,-1,-1,1
13:25:07:762306,-1,8,-2,3,4,4,3,-2
13:25:07:778000,1,-1,-5,-2,3,-1,-9,-19
13:25:07:778831,1,-1,-5,-2,3,-1,-9,-19
13:25:07:784761,-1,-6,11,4,0,3,9,4
13:25:07:792281,14,0,7,1,-3,0,-1,4
13:25:07:799892,14,0,7,1,-3,0,-1,4
13:25:07:807302,-3,7,-9,-14,6,-1,-2,-6
13:25:07:815536,1,29,1,5,-4,-1,-3,-1
13:25:07:816341,1,29,1,5,-4,-1,-3,-1
13:25:07:829804,2,13,1,-4,-5,-5,11,1
13:25:07:838012,-4,11,-1,-5,0,-4,-3,-3
13:25:07:838818,-4,11,-1,-5,0,-4,-3,-3
13:25:07:844806,-12,-15,9,5,-5,-1,-7,-8
13:25:07:852300,11,4,3,0,-2,-3,-3,-1
13:25:07:859822,11,4,3,0,-2,-3,-3,-1
13:25:07:867299,-2,-19,-3,6,-1,0,-4,1
13:25:07:875474,-6,4,4,-2,-6,-1,1,6
13:25:07:876306,-6,4,4,-2,-6,-1,1,6
13:25:07:882328,3,10,10,3,-4,-4,-1,-2
13:25:07:897989,-6,-14,-1,-11,-8,-3,-2,0
13:25:07:898780,-6,-14,-1,-11,-8,-3,-2,0
13:25:07:904854,-14,-2,-5,1,-6,-3,-1,9
13:25:07:921100,-2,7,-4,2,3,3,8,7
13:25:07:921937,-2,7,-4,2,3,3,8,7
13:25:07:936112,-3,8,-11,0,5,2,-2,-3
13:25:07:936918,-3,8,-11,0,5,2,-2,-3
13:25:07:937763,2,-5,-8,-3,0,-3,-5,-4
13:25:07:942313,4,4,5,-2,-3,1,0,-9
13:25:07:966203,4,4,5,-2,-3,1,0,-9
13:25:07:966975,0,5,9,9,6,0,-1,-3
13:25:07:967775,-23,-3,-1,1,-3,-1,-5,-12
13:25:07:980487,-23,-3,-1,1,-3,-1,-5,-12
13:25:07:981293,1,-5,0,-4,-2,-2,0,-2
13:25:07:987334,3,-5,-8,-5,-1,-1,2,8
13:25:07:995497,3,-5,-8,-5,-1,-1,2,8
13:25:07:996303,-10,-23,-6,1,1,0,-6,-9
13:25:08:2309,11,12,6,0,1,-3,-2,-5
13:25:08:17989,11,12,6,0,1,-3,-2,-5
13:25:08:18789,5,6,6,-3,-4,0,4,2
13:25:08:24773,-19,-4,-3,2,4,-3,-2,-3
13:25:08:40507,-19,-4,-3,2,4,-3,-2,-3
13:25:08:41270,7,4,-2,-6,1,3,0,-1
13:25:08:47290,10,16,5,-2,-3,3,7,4
13:25:08:55493,10,16,5,-2,-3,3,7,4
13:25:08:56309,-6,-5,-2,-1,-7,-6,0,-2
13:25:08:62275,6,-12,2,-2,2,2,-5,-2
13:25:08:77985,6,-12,2,-2,2,2,-5,-2
13:25:08:78792,2,9,1,-4,2,0,-4,-14
13:25:08:84839,-9,-3,0,-1,-1,-2,-3,-9
13:25:08:100523,-9,-3,0,-1,-1,-2,-3,-9
13:25:08:101339,-7,-15,2,1,1,1,3,5
13:25:08:107308,2,-5,-1,-9,-5,-5,3,0
13:25:08:115459,2,-5,-1,-9,-5,-5,3,0
13:25:08:116308,0,1,-1,23,19,7,5,7
13:25:08:122325,-2,3,3,-3,-3,-4,-7,-1
13:25:08:137985,-2,3,3,-3,-3,-4,-7,-1
13:25:08:138770,6,26,-10,-15,-6,-7,-3,0
13:25:08:144821,7,-2,-4,7,2,2,2,5
13:25:08:160534,7,-2,-4,7,2,2,2,5
13:25:08:161345,-4,5,-1,2,2,1,-5,-4
13:25:08:167323,-10,-23,1,-2,-4,-2,-5,-5
13:25:08:175474,-10,-23,1,-2,-4,-2,-5,-5
13:25:08:176278,4,1,2,1,-3,-3,-2,-10
13:25:08:182310,-9,-19,-4,9,4,6,0,-5
13:25:08:198041,-9,-19,-4,9,4,6,0,-5
13:25:08:198825,-24,-27,1,-5,0,-2,-7,-7
13:25:08:204808,4,-16,-9,-1,1,4,-6,1
13:25:08:220538,4,-16,-9,-1,1,4,-6,1
13:25:08:221332,7,3,1,-4,-9,-3,-5,3
13:25:08:227309,5,6,5,-1,-4,-3,1,10
13:25:08:235522,5,6,5,-1,-4,-3,1,10
13:25:08:236333,-3,5,-6,-8,-5,-5,-10,-21
13:25:08:242302,2,7,-4,-2,-3,-3,-2,0
13:25:08:258481,2,7,-4,-2,-3,-3,-2,0
13:25:08:259294,-6,-6,7,3,0,3,4,13
13:25:08:264820,4,9,4,-6,-2,-2,8,7
13:25:08:281194,4,9,4,-6,-2,-2,8,7
13:25:08:281966,3,2,-7,-2,-4,-3,-8,-1
13:25:08:287272,4,10,7,2,2,2,2,7
13:25:08:295513,4,10,7,2,2,2,2,7
13:25:08:296316,4,-19,3,-4,-1,-1,2,6
13:25:08:309795,6,21,2,6,-6,-6,-5,-3
13:25:08:318001,6,21,2,6,-6,-6,-5,-3
13:25:08:318807,-3,21,1,1,-3,-2,-2,-9
13:25:08:324782,-2,-3,-7,-2,4,-3,-3,0
13:25:08:340511,-2,-3,-7,-2,4,-3,-3,0
13:25:08:341309,0,-4,-4,-1,3,-4,-8,-10
13:25:08:347287,-2,-11,-2,-2,0,-1,3,0
13:25:08:355509,-2,-11,-2,-2,0,-1,3,0
13:25:08:356326,5,9,-11,-3,5,1,-2,3
13:25:08:369752,-12,-34,-11,-8,-1,-4,-5,-17
13:25:08:378015,-12,-34,-11,-8,-1,-4,-5,-17
13:25:08:378811,3,5,2,-1,-4,-2,6,6
13:25:08:392358,1,15,-3,-3,-1,5,5,-14
13:25:08:400508,1,15,-3,-3,-1,5,5,-14
13:25:08:401320,-10,-5,-10,-5,0,2,3,-3
13:25:08:407268,-20,-42,-6,0,2,-3,-3,2
13:25:08:415501,-20,-42,-6,0,2,-3,-3,2
13:25:08:416343,2,-8,3,2,5,2,0,-3
13:25:08:429827,10,14,2,-2,-6,-3,-8,0
13:25:08:438043,10,14,2,-2,-6,-3,-8,0
13:25:08:438810,-4,-14,-4,2,-2,-1,0,9
13:25:08:444776,6,5,-1,-2,-3,-3,1,3
13:25:08:460486,6,5,-1,-2,-3,-3,1,3
13:25:08:461297,3,-19,0,4,-6,0,5,4
13:25:08:467271,5,24,1,5,2,2,-3,1
13:25:08:475530,5,24,1,5,2,2,-3,1
13:25:08:476302,0,10,3,-2,-7,-2,-2,7
13:25:08:489833,6,6,-14,1,14,4,-2,-4
13:25:08:497981,6,6,-14,1,14,4,-2,-4
13:25:08:498819,-7,-9,1,-1,-1,-4,1,-7
13:25:08:504789,-7,18,3,-4,-4,-2,-1,9
13:25:08:520526,-7,18,3,-4,-4,-2,-1,9
13:25:08:521286,-6,-11,1,-5,-1,0,-3,-4
13:25:08:527359,0,-7,2,-7,-6,-3,-2,7
13:25:08:535502,0,-7,2,-7,-6,-3,-2,7
13:25:08:536305,-5,3,1,-2,-5,-5,1,-1
13:25:08:549831,-3,-15,2,-1,-4,2,1,7
13:25:08:558011,-3,-15,2,-1,-4,2,1,7
13:25:08:558785,-8,16,-6,-5,-5,-1,-6,-16
13:25:08:564844,-8,-39,-23,-1,2,-5,3,0
13:25:08:580495,-8,-39,-23,-1,2,-5,3,0
13:25:08:581274,-7,-10,0,-3,1,0,5,2
13:25:08:587337,2,8,10,-1,-4,-2,-3,-5
13:25:08:595493,2,8,10,-1,-4,-2,-3,-5
13:25:08:596332,5,-4,0,-2,2,-1,-3,2
13:25:08:609816,3,-1,-4,0,-4,-1,0,-2
13:25:08:617976,3,-1,-4,0,-4,-1,0,-2
13:25:08:618783,4,7,4,-5,-2,-3,-1,8
13:25:08:624798,-4,11,6,1,-4,1,-2,-8
13:25:08:640294,-4,11,6,1,-4,1,-2,-8
13:25:08:647952,5,-9,-7,5,10,2,-5,-10
13:25:08:648777,-4,5,3,-1,6,-1,-1,-10
13:25:08:655475,-4,5,3,-1,6,-1,-1,-10
13:25:08:656285,-16,-10,8,0,1,-1,2,3
13:25:08:669809,4,-1,8,7,7,-2,-2,3
13:25:08:678046,4,-1,8,7,7,-2,-2,3
13:25:08:678815,7,-9,0,0,-6,-1,3,8
13:25:08:684783,-12,0,-1,-11,-10,-3,-2,0
13:25:08:700986,-12,0,-1,-11,-10,-3,-2,0
13:25:08:701808,16,17,0,3,2,2,1,5
13:25:08:707284,14,8,-7,1,-1,-2,-1,-1
13:25:08:715583,14,8,-7,1,-1,-2,-1,-1
13:25:08:716330,-22,-32,-7,-3,-3,-1,0,3
13:25:08:729785,0,-3,3,0,1,0,-1,-2
13:25:08:738015,0,-3,3,0,1,0,-1,-2
13:25:08:738852,10,6,-5,-3,0,0,3,1
13:25:08:752295,-8,-12,2,-4,-1,-2,11,-17
13:25:08:760512,-8,-12,2,-4,-1,-2,11,-17
13:25:08:761310,4,19,5,1,0,2,-3,-7
13:25:08:767286,-4,-2,2,2,-2,-2,-5,1
13:25:08:775506,-4,-2,2,2,-2,-2,-5,1
13:25:08:776320,3,-1,-3,2,3,-2,1,-1
13:25:08:789789,-8,-16,-5,-5,-1,2,-4,-7
13:25:08:798014,-8,-16,-5,-5,-1,2,-4,-7
13:25:08:798818,5,4,-3,-2,-4,-1,-1,4
13:25:08:804805,5,22,4,3,0,-1,-7,0
13:25:08:820526,5,22,4,3,0,-1,-7,0
13:25:08:821306,-5,-6,-2,-4,-6,-2,-2,0
13:25:08:827296,0,6,-1,-3,-3,-2,-4,2
13:25:08:835508,0,6,-1,-3,-3,-2,-4,2
13:25:08:836318,-2,15,7,0,1,-3,-3,-9
13:25:08:849755,-9,-21,-4,-14,-7,-4,-1,-2
13:25:08:858009,-9,-21,-4,-14,-7,-4,-1,-2
13:25:08:858817,-6,-3,10,4,-3,-3,-3,-3
13:25:08:864763,12,9,-4,2,0,-1,4,4
13:25:08:888683,12,9,-4,2,0,-1,4,4
13:25:08:889526,-1,8,-8,0,-1,0,-2,-4
13:25:08:890310,6,5,-1,2,-1,1,1,8
13:25:08:895473,6,5,-1,2,-1,1,1,8
13:25:08:896261,-7,-43,-13,-1,-4,1,-1,-3
13:25:08:909794,1,7,5,2,-1,0,-4,4
13:25:08:917794,1,7,5,2,-1,0,-4,4
13:25:08:925461,-12,-5,-2,3,-2,0,5,13
13:25:08:926282,-8,-4,-27,-12,-3,-4,-6,-5
13:25:08:940518,-8,-4,-27,-12,-3,-4,-6,-5
13:25:08:941330,7,4,3,-4,-1,-2,-4,1
13:25:08:947305,-10,-4,6,1,1,3,-1,-3
13:25:08:955532,-10,-4,6,1,1,3,-1,-3
13:25:08:956346,-7,-23,6,1,3,2,1,-2
13:25:08:969785,1,-7,1,4,-1,0,-4,-5
13:25:08:978018,1,-7,1,4,-1,0,-4,-5
13:25:08:978831,-17,-25,8,-3,-4,-4,-2,-3
13:25:08:984826,0,-15,-3,2,1,-1,4,9
13:25:09:529,0,-15,-3,2,1,-1,4,9
13:25:09:1324,14,34,-2,-7,1,0,-5,-1
13:25:09:7278,-5,-15,-7,-5,1,-1,0,0
13:25:09:15518,-5,-15,-7,-5,1,-1,0,0
13:25:09:16322,9,14,-3,-2,2,-2,-2,-7
13:25:09:29784,-8,-5,12,2,-3,1,-2,-4
13:25:09:38018,-8,-5,12,2,-3,1,-2,-4
13:25:09:38822,10,3,2,0,5,0,1,7
13:25:09:44773,-9,-14,-7,5,-4,-3,-7,-14
13:25:09:60525,-9,-14,-7,5,-4,-3,-7,-14
13:25:09:61301,-4,-9,-1,0,-3,1,2,2
13:25:09:76194,12,28,-23,-2,6,0,0,4
13:25:09:76954,12,28,-23,-2,6,0,0,4
13:25:09:77804,12,18,2,4,1,0,-2,-4
13:25:09:89819,2,13,7,-3,-5,-3,1,-4
13:25:09:98016,2,13,7,-3,-5,-3,1,-4
13:25:09:98772,1,7,-5,1,0,0,3,6
13:25:09:104818,-8,5,7,-3,-3,-2,-3,-20
13:25:09:120495,-8,5,7,-3,-3,-2,-3,-20
13:25:09:121281,-4,-2,6,4,1,0,3,-1
13:25:09:127297,-1,-5,-2,7,-4,-3,1,5
13:25:09:135478,-1,-5,-2,7,-4,-3,1,5
13:25:09:136320,-6,-15,-5,-7,-5,-3,-3,2
13:25:09:149834,6,-7,8,-4,-1,1,0,5
13:25:09:157999,6,-7,8,-4,-1,1,0,5
13:25:09:158781,-14,-3,-12,-8,-1,-3,-3,-2
13:25:09:164829,-1,-11,2,-8,4,-1,-4,-4
13:25:09:180554,-1,-11,2,-8,4,-1,-4,-4
13:25:09:181324,10,3,-10,-3,-1,-3,-4,7
13:25:09:187319,5,7,-12,1,4,1,1,2
13:25:09:195494,5,7,-12,1,4,1,1,2
13:25:09:196310,1,1,3,2,-3,-3,-5,-2
13:25:09:209780,9,13,1,-4,-4,-2,1,8
13:25:09:218055,9,13,1,-4,-4,-2,1,8
13:25:09:218819,11,1,4,-8,2,1,2,-4
13:25:09:224828,-4,-5,15,6,7,5,3,2
13:25:09:240519,-4,-5,15,6,7,5,3,2
13:25:09:241328,10,6,9,7,1,0,1,1
13:25:09:247280,-2,-9,-3,-5,-2,-3,3,-5
13:25:09:254875,-2,-9,-3,-5,-2,-3,3,-5
13:25:09:262328,-5,10,10,3,-5,-1,-2,-5
13:25:09:269822,0,-14,-2,2,-4,-1,-2,2
13:25:09:277985,0,-14,-2,2,-4,-1,-2,2
13:25:09:278768,-8,-11,-7,1,2,-1,-1,-6
13:25:09:292290,-15,-32,5,-3,-3,1,-2,-8
13:25:09:300498,-15,-32,5,-3,-3,1,-2,-8
13:25:09:301293,-5,-24,7,10,10,4,0,-1
13:25:09:307331,0,-10,-5,-17,3,-1,-1,4
13:25:09:314874,0,-10,-5,-17,3,-1,-1,4
13:25:09:322294,-20,-4,-9,-6,-4,0,-7,-16
13:25:09:329833,9,17,6,-2,-4,-3,-3,7
13:25:09:338026,9,17,6,-2,-4,-3,-3,7
13:25:09:338825,5,14,-1,1,3,-1,1,9
13:25:09:352320,-10,-1,-9,-3,-4,-3,0,2
13:25:09:360488,-10,-1,-9,-3,-4,-3,0,2
13:25:09:361277,-11,-5,-11,-6,-5,-4,-3,-3
13:25:09:367323,1,15,7,10,4,-3,-1,2
13:25:09:374854,1,15,7,10,4,-3,-1,2
13:25:09:382310,-6,-11,2,4,8,3,0,-8
13:25:09:389818,3,4,-7,-1,-2,-2,1,10
13:25:09:398007,3,4,-7,-1,-2,-2,1,10
13:25:09:398808,6,10,1,-5,-7,-3,1,-1
13:25:09:412276,-17,-4,-11,-6,3,0,-5,-8
13:25:09:420494,-17,-4,-11,-6,3,0,-5,-8
13:25:09:421305,-4,0,6,-4,-5,-5,-3,1
13:25:09:427259,5,7,4,0,0,2,-1,4
13:25:09:434859,5,7,4,0,0,2,-1,4
13:25:09:442303,2,3,-4,0,0,0,4,0
13:25:09:449792,6,13,-4,2,-3,1,4,-1
13:25:09:458028,6,13,-4,2,-3,1,4,-1
13:25:09:458838,2,-13,-2,-3,-1,-2,-5,-7
13:25:09:472318,-5,19,8,8,9,1,-3,-11
13:25:09:480523,-5,19,8,8,9,1,-3,-11
13:25:09:481308,-4,-6,-6,0,4,1,2,2
13:25:09:495499,-13,-9,-1,-6,-1,-1,2,-5
13:25:09:496343,-13,-9,-1,-6,-1,-1,2,-5
13:25:09:502308,-5,-4,3,-6,-7,-4,-2,-6
13:25:09:509786,6,6,-5,-9,-8,-2,-1,1
13:25:09:518028,6,6,-5,-9,-8,-2,-1,1
13:25:09:518852,19,15,-1,1,-2,1,-3,7
13:25:09:532264,2,-4,-2,0,-1,3,13,-6
13:25:09:540517,2,-4,-2,0,-1,3,13,-6
13:25:09:541302,0,2,-2,-2,-4,-4,0,2
13:25:09:547291,2,-24,10,3,-2,-3,-4,2
13:25:09:554869,2,-24,10,3,-2,-3,-4,2
13:25:09:562292,4,34,-8,-6,1,-2,-4,-2
13:25:09:569794,1,6,0,-5,-4,-4,-8,6
13:25:09:578053,1,6,0,-5,-4,-4,-8,6
13:25:09:578837,-8,-18,-1,13,1,1,-1,3
13:25:09:592314,-14,2,1,2,-4,1,-2,-1
13:25:09:600915,-14,2,1,2,-4,1,-2,-1
13:25:09:607950,-5,5,-5,-5,-1,-5,-10,0
13:25:09:608763,7,9,2,6,-2,-1,-3,-1
13:25:09:614872,7,9,2,6,-2,-1,-3,-1
13:25:09:622322,-18,-22,4,-6,-1,-4,-6,-14
13:25:09:629818,2,1,-5,1,0,-3,5,6
13:25:09:637996,2,1,-5,1,0,-3,5,6
13:25:09:638775,6,11,1,2,1,6,8,5
13:25:09:652297,2,4,-6,1,0,-1,0,2
13:25:09:660461,2,4,-6,1,0,-1,0,2
13:25:09:661286,4,6,-3,-1,-2,-1,10,6
13:25:09:667327,-8,-13,-20,-1,4,-1,-4,1
13:25:09:674825,-8,-13,-20,-1,4,-1,-4,1
13:25:09:682316,1,-1,3,0,0,-1,-7,-6
13:25:09:689807,-7,-10,-9,-6,0,-4,-13,-7
13:25:09:698030,-7,-10,-9,-6,0,-4,-13,-7
13:25:09:698808,2,-16,-7,-3,-1,2,1,1
13:25:09:712320,5,-7,5,6,8,1,-1,-7
13:25:09:720495,5,-7,5,6,8,1,-1,-7
13:25:09:721294,2,-6,6,0,-1,1,2,-1
13:25:09:727318,5,5,2,3,1,-1,10,-2
13:25:09:734832,5,5,2,3,1,-1,10,-2
13:25:09:742260,8,0,1,0,-9,-2,5,9
13:25:09:749768,3,12,-9,-3,-3,-3,-2,-2
13:25:09:758018,3,12,-9,-3,-3,-3,-2,-2
13:25:09:758815,-3,0,4,-4,-3,-4,-10,-14
13:25:09:772320,7,-11,1,1,-3,1,-4,8
13:25:09:780498,7,-11,1,1,-3,1,-4,8
13:25:09:781325,0,3,-6,-4,-1,0,-2,-2
13:25:09:787263,2,9,15,-2,1,0,-3,5
13:25:09:794847,2,9,15,-2,1,0,-3,5
13:25:09:802292,-13,-26,-2,-1,2,0,-2,-5
13:25:09:809783,-1,4,4,-10,-6,-1,-4,0
13:25:09:818018,-1,4,4,-10,-6,-1,-4,0
13:25:09:818824,1,11,5,-3,1,-1,15,4
13:25:09:832257,-1,-24,4,-1,-4,0,0,1
13:25:09:840529,-1,-24,4,-1,-4,0,0,1
13:25:09:841313,-1,7,-5,-5,-6,-3,-8,-11
13:25:09:847311,1,10,0,9,13,3,-4,-3
13:25:09:854868,1,10,0,9,13,3,-4,-3
13:25:09:862300,-14,-35,-3,-1,1,1,5,13
13:25:09:869815,-12,16,-37,-16,-3,-5,-5,-6
13:25:09:885533,-12,16,-37,-16,-3,-5,-5,-6
13:25:09:886322,1,0,-7,1,9,3,-3,-6
13:25:09:892295,1,-1,6,-1,-6,1,6,3
13:25:09:900537,1,-1,6,-1,-6,1,6,3
13:25:09:901371,7,1,-2,-5,-4,-4,-8,-5
13:25:09:907313,3,0,7,3,-2,-2,-5,-3
13:25:09:914846,3,0,7,3,-2,-2,-5,-3
13:25:09:922322,4,7,9,-4,-1,1,0,6
13:25:09:929834,11,12,0,-1,-8,-4,3,-6
13:25:09:938008,11,12,0,-1,-8,-4,3,-6
13:25:09:938801,0,9,4,5,-1,-4,-6,-4
13:25:09:952302,-5,8,4,2,-2,-5,-1,-2
13:25:09:960482,-5,8,4,2,-2,-5,-1,-2
13:25:09:961286,5,13,-6,3,-2,-2,-2,11
13:25:09:967330,-7,-22,2,-1,-1,4,3,5
13:25:09:974821,-7,-22,2,-1,-1,4,3,5
13:25:09:982293,-5,0,-6,-5,-2,-3,-6,-3
13:25:09:989830,-3,-16,5,2,7,1,-1,-2
13:25:09:998008,-3,-16,5,2,7,1,-1,-2
13:25:09:998818,-1,-6,-16,1,-3,1,6,4
13:25:10:12328,-4,4,-2,0,0,0,-1,-1
13:25:10:20511,-4,4,-2,0,0,0,-1,-1
13:25:10:21284,3,-2,-5,-2,-5,-6,-5,0
13:25:10:27269,-4,-8,-8,-4,-4,-3,-1,-6
13:25:10:34857,-4,-8,-8,-4,-4,-3,-1,-6
13:25:10:42280,-5,3,2,-2,2,3,-3,-2
13:25:10:49780,0,-4,6,-1,-3,1,17,-1
13:25:10:58026,0,-4,6,-1,-3,1,17,-1
13:25:10:58810,-3,-9,8,0,-3,-5,-9,-16
13:25:10:72296,-8,-12,-5,-3,-1,-3,-7,-6
13:25:10:80493,-8,-12,-5,-3,-1,-3,-7,-6
13:25:10:81319,-5,3,1,0,1,0,15,11
13:25:10:87285,2,16,1,2,-3,-3,-8,-1
13:25:10:94864,2,16,1,2,-3,-3,-8,-1
13:25:10:110417,-21,-14,-3,12,19,8,-3,1
13:25:10:111213,1,7,6,-3,-3,0,6,9
13:25:10:117993,1,7,6,-3,-3,0,6,9
13:25:10:118810,5,11,7,0,-3,-8,-9,-16
13:25:10:132328,-3,0,-1,-1,0,0,-1,-1
13:25:10:140518,-3,0,-1,-1,0,0,-1,-1
13:25:10:141296,-5,-1,-6,-2,-6,-1,0,-9
13:25:10:147276,5,14,10,-5,-7,-2,-8,1
13:25:10:154843,5,14,10,-5,-7,-2,-8,1
13:25:10:162320,9,-3,0,-3,-2,-2,-1,13
13:25:10:169795,-6,-38,-3,1,3,6,18,8
13:25:10:178032,-6,-38,-3,1,3,6,18,8
13:25:10:178812,0,-7,-2,1,-2,0,-2,5
13:25:10:192264,3,-5,-4,2,9,-2,-5,4
13:25:10:200519,3,-5,-4,2,9,-2,-5,4
13:25:10:201298,2,-4,2,1,8,4,7,2
13:25:10:215490,1,23,-5,-10,-8,-6,-9,-10
13:25:10:216314,1,23,-5,-10,-8,-6,-9,-10
13:25:10:222274,1,-3,0,-6,-1,0,-4,3
13:25:10:229770,-1,-6,2,4,-1,1,-2,2
13:25:10:237367,-1,-6,2,4,-1,1,-2,2
13:25:10:244789,8,22,0,3,-7,-2,5,3
13:25:10:252320,1,-3,6,1,-1,2,1,0
13:25:10:260514,1,-3,6,1,-1,2,1,0
13:25:10:261335,1,14,-2,-3,2,1,3,-7
13:25:10:275501,-2,-4,0,5,-3,-4,-7,-5
13:25:10:276325,-2,-4,0,5,-3,-4,-7,-5
13:25:10:282323,3,3,2,1,1,1,-1,-10
13:25:10:289760,-6,-21,-6,1,0,-1,-8,-14
13:25:10:297361,-6,-21,-6,1,0,-1,-8,-14
13:25:10:304802,4,-1,5,-6,-8,-7,-5,-7
13:25:10:312323,2,-7,-10,-4,-1,-1,-8,-4
13:25:10:320527,2,-7,-10,-4,-1,-1,-8,-4
13:25:10:321356,2,2,-2,-6,1,-2,-3,6
13:25:10:335475,1,19,-1,3,8,-2,-3,1
13:25:10:336306,1,19,-1,3,8,-2,-3,1
13:25:10:342329,-7,-10,-6,1,4,1,5,1
13:25:10:349819,-1,10,-8,-6,1,1,5,4
13:25:10:357391,-1,10,-8,-6,1,1,5,4
13:25:10:364790,0,-28,-19,-12,2,-2,-2,5
13:25:10:372328,-7,-9,7,-2,-4,-2,-4,-4
13:25:10:380476,-7,-9,7,-2,-4,-2,-4,-4
13:25:10:381293,2,2,8,1,-3,0,4,12
13:25:10:395458,-1,-1,-3,-1,-2,-1,-3,-14
13:25:10:396317,-1,-1,-3,-1,-2,-1,-3,-14
13:25:10:402356,0,-1,2,4,-7,-1,-6,-3
13:25:10:409799,-7,-33,8,5,1,1,2,6
13:25:10:417326,-7,-33,8,5,1,1,2,6
13:25:10:424813,1,3,1,0,-2,-2,-3,-1
13:25:10:432332,2,-3,1,2,0,-1,-1,-10
13:25:10:440501,2,-3,1,2,0,-1,-1,-10
13:25:10:441300,-2,1,0,-2,-2,0,6,0
13:25:10:455465,0,0,-1,-4,-7,-1,5,9
13:25:10:456299,0,0,-1,-4,-7,-1,5,9
13:25:10:462253,4,22,21,9,-1,1,-4,-9
13:25:10:469822,6,1,-2,-2,1,-1,0,6
13:25:10:477352,6,1,-2,-2,1,-1,0,6
13:25:10:484773,-2,0,-14,2,2,-2,-5,5
13:25:10:492273,4,20,1,0,-3,0,8,9
13:25:10:500499,4,20,1,0,-3,0,8,9
13:25:10:501336,-7,-2,-4,-6,0,-2,1,2
13:25:10:515472,5,11,-8,-2,-2,-4,-1,2
13:25:10:516320,5,11,-8,-2,-2,-4,-1,2
13:25:10:522269,-5,7,-2,-3,-4,-2,-5,-10
13:25:10:529769,-4,10,-1,-7,-2,-3,-6,-7
13:25:10:537371,-4,10,-1,-7,-2,-3,-6,-7
13:25:10:544784,5,-11,3,4,-1,1,2,0
13:25:10:552278,-4,-8,3,-1,-4,-9,-15,0
13:25:10:560544,-4,-8,3,-1,-4,-9,-15,0
13:25:10:561325,-6,-18,0,-5,-3,0,-4,-4
13:25:10:575499,5,-15,-5,-2,-5,-4,-4,6
13:25:10:576342,5,-15,-5,-2,-5,-4,-4,6
13:25:10:582340,0,17,0,-3,-5,-3,-1,-15
13:25:10:589796,-3,-6,0,2,-2,-3,-2,3
13:25:10:597393,-3,-6,0,2,-2,-3,-2,3
13:25:10:604790,-5,1,-7,-4,2,-3,-8,5
13:25:10:612297,-1,9,2,3,1,-2,-11,-5
13:25:10:620535,-1,9,2,3,1,-2,-11,-5
13:25:10:621330,-1,-1,-3,-5,0,0,2,2
13:25:10:635506,1,4,-22,-4,0,5,2,-2
13:25:10:636340,1,4,-22,-4,0,5,2,-2
13:25:10:642332,-8,-22,-3,-3,0,-1,4,1
13:25:10:649835,-2,4,9,-3,1,-3,2,-8
13:25:10:657367,-2,4,9,-3,1,-3,2,-8
13:25:10:664810,4,5,-1,0,-2,2,-3,15
13:25:10:672359,-7,-7,-1,-7,-2,-2,-13,-18
13:25:10:680507,-7,-7,-1,-7,-2,-2,-13,-18
13:25:10:681288,-1,-8,11,-2,-5,-3,2,0
13:25:10:695453,-5,19,0,0,-2,0,0,2
13:25:10:696332,-5,19,0,0,-2,0,0,2
13:25:10:702325,4,2,-5,-2,1,2,14,0
13:25:10:709805,-16,-13,-3,3,4,1,6,-11
13:25:10:717338,-16,-13,-3,3,4,1,6,-11
13:25:10:724785,-1,3,-5,7,6,1,-8,-1
13:25:10:732360,7,4,5,2,11,6,11,7
13:25:10:740511,7,4,5,2,11,6,11,7
13:25:10:741294,-5,-26,1,0,3,1,-8,-10
13:25:10:755486,0,-4,1,-2,-5,-2,5,4
13:25:10:756305,0,-4,1,-2,-5,-2,5,4
13:25:10:762289,4,11,4,0,-3,-1,-2,-10
13:25:10:769847,0,-5,2,-1,-2,-2,-3,5
13:25:10:777369,0,-5,2,-1,-2,-2,-3,5
13:25:10:784793,-10,-10,-1,-2,-4,-4,3,10
13:25:10:792281,-1,8,14,-9,5,2,1,-2
13:25:10:800508,-1,8,14,-9,5,2,1,-2
13:25:10:801306,2,-4,-10,-2,-5,-4,-3,1
13:25:10:815465,4,7,7,2,-3,1,3,-5
13:25:10:816302,4,7,7,2,-3,1,3,-5
13:25:10:822281,-11,-15,8,-4,0,-4,-4,-8
13:25:10:829781,0,18,4,7,6,3,-5,3
13:25:10:837364,0,18,4,7,6,3,-5,3
13:25:10:844789,3,8,6,1,-5,-4,-2,7
13:25:10:852296,7,10,-23,-9,-7,-5,-3,0
13:25:10:860523,7,10,-23,-9,-7,-5,-3,0
13:25:10:861318,-2,7,1,-2,-1,0,-5,-7
13:25:10:875519,-7,7,0,-5,-7,-6,-2,6
13:25:10:876337,-7,7,0,-5,-7,-6,-2,6
13:25:10:882358,3,-5,3,-4,-1,-1,-3,-6
13:25:10:889780,-6,-30,-4,-6,-4,-4,0,3
13:25:10:897379,-6,-30,-4,-6,-4,-4,0,3
13:25:10:904816,8,7,-5,2,-2,3,11,7
13:25:10:912337,0,-14,6,0,1,6,2,-1
13:25:10:920518,0,-14,6,0,1,6,2,-1
13:25:10:921299,-2,-6,-8,-4,2,-2,-5,-5
13:25:10:935507,4,1,-6,3,-6,-3,0,-2
13:25:10:936355,4,1,-6,3,-6,-3,0,-2
13:25:10:942312,-4,-6,-6,3,-1,-5,-5,-8
13:25:10:949793,-4,-1,15,3,1,-2,1,2
13:25:10:957361,-4,-1,15,3,1,-2,1,2
13:25:10:964811,-12,-21,-20,1,1,0,-7,-11
13:25:10:972342,1,15,-3,5,6,6,9,-5
13:25:10:980506,1,15,-3,5,6,6,9,-5
13:25:10:981325,3,9,8,0,-4,-3,3,5
13:25:10:995447,0,0,3,-1,-2,-1,-3,-4
13:25:10:996344,0,0,3,-1,-2,-1,-3,-4
13:25:11:2349,7,0,5,-4,-4,-3,-5,-4
13:25:11:9816,1,10,-8,0,0,-5,-5,-7
13:25:11:17351,1,10,-8,0,0,-5,-5,-7
13:25:11:24785,-1,15,13,0,-2,0,-4,2
13:25:11:32333,-1,-10,-15,-4,-4,-4,0,7
13:25:11:40497,-1,-10,-15,-4,-4,-4,0,7
13:25:11:41293,0,8,14,-3,-1,-2,-4,-5
13:25:11:55456,-2,-6,-5,-3,-5,0,-2,0
13:25:11:56301,-2,-6,-5,-3,-5,0,-2,0
13:25:11:62271,4,3,-5,0,4,3,6,10
13:25:11:69799,1,-10,-1,1,-2,-2,-5,1
13:25:11:77357,1,-10,-1,1,-2,-2,-5,1
13:25:11:84800,-3,-11,-7,-19,-9,-4,-2,-3
13:25:11:92298,-1,-24,-12,-11,-6,-4,-3,0
13:25:11:100493,-1,-24,-12,-11,-6,-4,-3,0
13:25:11:101314,-5,-3,-11,-5,3,0,1,-7
13:25:11:115466,-3,5,-6,-7,-7,-4,-3,-7
13:25:11:116312,-3,5,-6,-7,-7,-4,-3,-7
13:25:11:122271,2,-1,-5,0,-2,-4,-3,1
13:25:11:129779,-15,-26,-3,18,10,7,1,0
13:25:11:137363,-15,-26,-3,18,10,7,1,0
13:25:11:144782,14,24,30,13,7,0,1,4
13:25:11:152318,3,29,19,0,-2,-1,-3,-11
13:25:11:159866,3,29,19,0,-2,-1,-3,-11
13:25:11:167314,-6,-9,-13,-3,3,-1,-2,-2
13:25:11:175467,3,5,-4,0,1,-2,-1,1
13:25:11:176289,3,5,-4,0,1,-2,-1,1
13:25:11:182327,-1,1,-9,4,3,1,-1,0
13:25:11:198030,-21,-46,-19,2,3,2,-1,-3
13:25:11:198818,-21,-46,-19,2,3,2,-1,-3
13:25:11:204829,-12,4,-11,-5,-8,-5,-1,-3
13:25:11:212315,9,-5,10,-4,-3,-1,-2,2
13:25:11:219915,9,-5,10,-4,-3,-1,-2,2
13:25:11:227328,-1,-33,10,5,-5,1,6,3
13:25:11:235487,5,1,19,1,0,1,2,4
13:25:11:236326,5,1,19,1,0,1,2,4
13:25:11:242264,-10,-25,-29,-14,-3,-2,-3,-1
13:25:11:257951,5,26,-15,0,-3,-4,-6,-6
13:25:11:258769,5,26,-15,0,-3,-4,-6,-6
13:25:11:264831,10,2,19,10,1,2,1,11
13:25:11:272324,3,21,-3,2,0,-1,1,0
13:25:11:279848,3,21,-3,2,0,-1,1,0
13:25:11:287266,5,1,-1,-2,-4,-1,-1,2
13:25:11:295481,-1,-15,4,-3,-3,-2,0,3
13:25:11:296325,-1,-15,4,-3,-3,-2,0,3
13:25:11:302285,2,28,6,-3,5,0,4,2
13:25:11:317977,1,5,10,-1,7,6,6,18
13:25:11:318815,1,5,10,-1,7,6,6,18
13:25:11:324799,-4,8,-10,-4,-5,-3,-7,-12
13:25:11:332346,-1,4,-3,-10,-7,-3,-2,-7
13:25:11:339853,-1,4,-3,-10,-7,-3,-2,-7
13:25:11:347315,-10,0,11,2,-1,0,-2,-2
13:25:11:355513,-4,0,-5,2,-2,-5,-5,-7
13:25:11:356341,-4,0,-5,2,-2,-5,-5,-7
13:25:11:362326,-5,6,-11,-3,2,-3,-5,-11
13:25:11:377993,4,-14,4,-9,4,-1,0,0
13:25:11:378829,4,-14,4,-9,4,-1,0,0
13:25:11:384787,-7,18,12,10,8,-1,0,-7
13:25:11:392282,3,-3,-19,-11,1,-3,0,-3
13:25:11:399863,3,-3,-19,-11,1,-3,0,-3
13:25:11:407296,6,7,4,4,-3,-1,0,-1
13:25:11:415222,10,4,10,8,-2,1,2,4
13:25:11:423041,10,4,10,8,-2,1,2,4
13:25:11:423831,0,5,5,-2,0,-3,-3,-2
13:25:11:438011,-10,-20,1,-9,-5,-6,-1,-3
13:25:11:438837,-10,-20,1,-9,-5,-6,-1,-3
13:25:11:444795,-6,-22,-2,0,-1,3,-2,-5
13:25:11:452296,-7,-5,8,7,-5,0,-2,-3
13:25:11:459894,-7,-5,8,7,-5,0,-2,-3
13:25:11:467326,1,-5,-12,-10,-6,-2,7,5
13:25:11:475451,0,-9,2,1,-3,-2,-1,6
13:25:11:476286,0,-9,2,1,-3,-2,-1,6
13:25:11:482326,1,-1,-5,-8,-2,-1,-1,4
13:25:11:498025,-12,7,-8,-4,5,-1,4,3
13:25:11:498841,-12,7,-8,-4,5,-1,4,3
13:25:11:504812,13,1,-6,-3,0,-4,1,6
13:25:11:512339,3,3,-3,3,4,2,-6,-4
13:25:11:519822,3,3,-3,3,4,2,-6,-4
13:25:11:527329,-8,-10,-8,-1,1,-1,-1,-2
13:25:11:535481,-2,-2,2,4,1,5,-2,-9
13:25:11:536334,-2,-2,2,4,1,5,-2,-9
13:25:11:542247,-3,-8,1,-3,-3,-3,-2,-3
13:25:11:557982,-9,-5,-5,-3,0,-2,-3,11
13:25:11:558789,-9,-5,-5,-3,0,-2,-3,11
13:25:11:564829,1,5,-19,-1,-2,-2,-5,-7
13:25:11:572338,-12,2,1,-2,2,-1,-5,-11
13:25:11:579847,-12,2,1,-2,2,-1,-5,-11
13:25:11:587258,-5,-18,-11,1,3,-1,-7,-1
13:25:11:595472,9,10,-8,3,1,8,-2,-1
13:25:11:596311,9,10,-8,3,1,8,-2,-1
13:25:11:602292,1,2,12,-9,0,4,3,3
13:25:11:617988,-5,-10,-5,-7,-6,-7,-7,-12
13:25:11:618822,-5,-10,-5,-7,-6,-7,-7,-12
13:25:11:624778,-7,-3,2,-4,-6,-1,-5,2
13:25:11:632273,14,36,10,4,-1,2,9,12
13:25:11:639849,14,36,10,4,-1,2,9,12
13:25:11:647282,5,8,-3,4,-1,-2,-9,2
13:25:11:655499,4,6,6,4,-1,2,13,5
13:25:11:656348,4,6,6,4,-1,2,13,5
13:25:11:662284,7,-17,5,2,0,-2,-1,2
13:25:11:677981,6,1,-1,-2,-2,-2,-2,2
13:25:11:678793,6,1,-1,-2,-2,-2,-2,2
13:25:11:684779,-15,-14,0,2,2,3,6,-4
13:25:11:692284,-8,-2,-6,-6,-1,-6,-10,-4
13:25:11:699859,-8,-2,-6,-6,-1,-6,-10,-4
13:25:11:707302,-6,13,1,-3,-5,-5,-8,-5
13:25:11:715521,-4,-4,-10,-1,3,-6,-9,-13
13:25:11:716338,-4,-4,-10,-1,3,-6,-9,-13
13:25:11:722334,8,-3,1,-9,1,-1,15,11
13:25:11:738018,3,13,5,-4,-8,-4,-10,-7
13:25:11:738834,3,13,5,-4,-8,-4,-10,-7
13:25:11:744789,-11,4,6,0,-5,-3,-3,-11
13:25:11:752301,-1,-5,0,-2,-5,-1,5,10
13:25:11:759864,-1,-5,0,-2,-5,-1,5,10
13:25:11:767314,4,17,4,5,4,10,2,5
13:25:11:775476,-1,2,6,-3,2,6,3,-7
13:25:11:776301,-1,2,6,-3,2,6,3,-7
13:25:11:782328,9,-11,1,4,0,1,1,3
13:25:11:798014,5,1,0,2,1,-3,0,-3
13:25:11:798848,5,1,0,2,1,-3,0,-3
13:25:11:804816,-5,5,-4,4,1,1,-6,-5
13:25:11:812312,-3,-14,-7,7,1,0,-4,-5
13:25:11:819838,-3,-14,-7,7,1,0,-4,-5
13:25:11:827343,6,-5,-2,-2,-6,-6,-4,1
13:25:11:835497,-11,-14,-4,-7,-4,-3,4,1
13:25:11:836326,-11,-14,-4,-7,-4,-3,4,1
13:25:11:842276,-5,-19,-24,-2,-1,-4,8,7
13:25:11:857987,8,13,3,4,2,0,-1,7
13:25:11:858793,8,13,3,4,2,0,-1,7
13:25:11:864808,3,37,1,-1,3,2,-1,-2
13:25:11:880510,3,37,1,-1,3,2,-1,-2
13:25:11:881274,-4,-5,2,-5,-6,-6,-8,5
13:25:11:887310,-3,10,10,1,8,6,3,-4
13:25:11:895496,-3,10,10,1,8,6,3,-4
13:25:11:896311,6,-4,2,1,3,-4,-2,-10
13:25:11:902306,-3,-24,15,0,-3,-4,-4,0
13:25:11:918711,-3,-24,15,0,-3,-4,-4,0
13:25:11:919520,-6,-2,8,-6,-3,-3,-2,-9
13:25:11:924827,9,-1,6,-7,-2,-2,4,0
13:25:11:940552,9,-1,6,-7,-2,-2,4,0
13:25:11:941339,3,13,0,4,-4,4,5,3
13:25:11:947307,2,-1,-2,2,-1,-1,-8,-4
13:25:11:955494,2,-1,-2,2,-1,-1,-8,-4
13:25:11:956289,2,-9,-12,-4,4,6,14,7
13:25:11:962306,-18,-10,-6,0,-1,-2,-6,-8
13:25:11:978036,-18,-10,-6,0,-1,-2,-6,-8
13:25:11:978838,0,-14,-1,3,-3,-3,-5,2
13:25:11:984815,8,13,-11,-3,-4,-3,-5,-3
13:25:12:533,8,13,-11,-3,-4,-3,-5,-3
13:25:12:1313,-2,-4,3,-1,-6,-6,2,6
13:25:12:7298,0,-1,3,-1,0,1,3,0
13:25:12:15576,0,-1,3,-1,0,1,3,0
13:25:12:16355,3,-9,-9,-11,9,1,-5,2
13:25:12:22336,0,6,-2,-2,-9,-5,-3,-1
13:25:12:38028,0,6,-2,-2,-9,-5,-3,-1
13:25:12:38843,-2,20,-5,-3,-6,0,0,-1
13:25:12:44819,3,-10,-3,9,10,6,3,5
13:25:12:60546,3,-10,-3,9,10,6,3,5
13:25:12:61304,-6,-13,-7,2,4,1,-2,-2
13:25:12:67348,-4,-17,-3,1,-1,-4,-2,-5
13:25:12:75502,-4,-17,-3,1,-1,-4,-2,-5
13:25:12:76332,-24,-38,-4,-2,-3,-4,-1,-17
13:25:12:82346,-7,-6,-2,1,0,4,0,4
13:25:12:98038,-7,-6,-2,1,0,4,0,4
13:25:12:98841,-4,-14,-12,1,-1,4,4,-2
13:25:12:112279,-6,1,-7,-1,2,-4,-5,4
13:25:12:120531,-6,1,-7,-1,2,-4,-5,4
13:25:12:121322,-4,0,3,-5,-7,-5,-6,4
13:25:12:127279,3,9,2,2,1,3,4,6
13:25:12:135534,3,9,2,2,1,3,4,6
13:25:12:136343,2,13,15,-7,-4,-4,-4,-11
13:25:12:149803,2,-2,9,-7,-7,-5,-5,-8
13:25:12:158019,2,-2,9,-7,-7,-5,-5,-8
13:25:12:158808,-3,-16,2,5,-4,1,14,19
13:25:12:164791,0,2,-7,-5,-3,-3,-2,-7
13:25:12:180545,0,2,-7,-5,-3,-3,-2,-7
13:25:12:181315,-2,-22,-4,2,2,1,-4,-2
13:25:12:187302,-4,-16,-5,-1,-1,1,0,1
13:25:12:195528,-4,-16,-5,-1,-1,1,0,1
13:25:12:196304,3,17,4,-14,4,2,-5,2
13:25:12:209776,0,-8,3,2,5,-3,-2,-6
13:25:12:218028,0,-8,3,2,5,-3,-2,-6
13:25:12:218801,0,2,-1,-2,-3,-6,-3,2
13:25:12:224810,-5,-8,-4,-5,-1,-1,3,-14
13:25:12:240525,-5,-8,-4,-5,-1,-1,3,-14
13:25:12:241321,7,0,-7,0,8,8,15,9
13:25:12:247258,-17,-28,3,4,-1,-1,-4,0
13:25:12:255505,-17,-28,3,4,-1,-1,-4,0
13:25:12:256317,-4,-26,4,1,-5,-4,-6,-5
13:25:12:269834,10,15,-2,-7,-7,-2,1,-5
13:25:12:278012,10,15,-2,-7,-7,-2,1,-5
13:25:12:278809,7,17,-9,-3,2,-1,-5,14
13:25:12:284779,7,-11,-2,-3,-3,-2,-4,9
13:25:12:300506,7,-11,-2,-3,-3,-2,-4,9
13:25:12:301285,-10,-10,-7,3,-5,-6,-8,-20
13:25:12:307322,-3,-6,0,-11,-5,-2,2,-5
13:25:12:315485,-3,-6,0,-11,-5,-2,2,-5
13:25:12:316316,8,10,7,3,-5,-4,5,3
13:25:12:329838,-11,24,1,4,3,-3,-1,4
13:25:12:337999,-11,24,1,4,3,-3,-1,4
13:25:12:338779,-3,0,-1,5,3,-2,-6,-4
13:25:12:344804,-2,-12,5,5,5,1,-1,-3
13:25:12:360505,-2,-12,5,5,5,1,-1,-3
13:25:12:361287,4,-3,2,5,-4,0,-2,4
13:25:12:367314,-11,-15,-4,0,1,-1,0,-2
13:25:12:375471,-11,-15,-4,0,1,-1,0,-2
13:25:12:376280,0,4,-9,-7,4,-2,-8,-6
13:25:12:389813,0,20,3,2,4,3,14,17
13:25:12:398000,0,20,3,2,4,3,14,17
13:25:12:398786,-2,1,3,0,-1,2,3,0
13:25:12:404828,1,4,1,-6,-5,-2,-3,-9
13:25:12:420538,1,4,1,-6,-5,-2,-3,-9
13:25:12:421336,0,-4,1,-3,-1,2,-2,-6
13:25:12:427315,13,32,-2,0,-5,-8,-19,-17
13:25:12:435490,13,32,-2,0,-5,-8,-19,-17
13:25:12:436282,3,17,1,-3,3,2,5,-1
13:25:12:449798,2,8,2,-1,-3,-7,2,16
13:25:12:458063,2,8,2,-1,-3,-7,2,16
13:25:12:458866,-5,-6,-10,-1,-4,-7,-4,1
13:25:12:464821,1,-17,-7,-3,0,0,-7,-4
13:25:12:480526,1,-17,-7,-3,0,0,-7,-4
13:25:12:481339,8,27,5,-1,-4,4,-2,-6
13:25:12:487290,-2,6,0,2,-3,0,-3,-9
13:25:12:495479,-2,6,0,2,-3,0,-3,-9
13:25:12:496289,9,11,2,0,-1,-1,1,0
13:25:12:509795,-2,-1,-1,4,7,5,6,7
13:25:12:518011,-2,-1,-1,4,7,5,6,7
13:25:12:518863,1,4,2,3,-2,2,-11,-1
13:25:12:524818,-2,-6,-5,-8,-6,-1,-2,-4
13:25:12:540555,-2,-6,-5,-8,-6,-1,-2,-4
13:25:12:541316,-4,1,-8,6,5,-2,-2,3
13:25:12:547291,-23,-20,-10,-5,-5,-7,-1,-7
13:25:12:555518,-23,-20,-10,-5,-5,-7,-1,-7
13:25:12:556357,-16,-6,-5,-8,-4,-5,-10,-15
13:25:12:569795,7,3,-2,0,-2,2,3,-8
13:25:12:578030,7,3,-2,0,-2,2,3,-8
13:25:12:578820,-2,-3,9,1,0,0,1,2
13:25:12:584806,10,6,4,-3,-1,-1,2,10
13:25:12:600522,10,6,4,-3,-1,-1,2,10
13:25:12:601317,8,26,-1,3,3,1,0,5
13:25:12:607299,5,19,12,4,-1,2,-1,7
13:25:12:615528,5,19,12,4,-1,2,-1,7
13:25:12:616336,0,8,8,0,-3,-1,0,-3
13:25:12:629774,-4,-4,8,-3,-3,-6,0,-4
13:25:12:638046,-4,-4,8,-3,-3,-6,0,-4
13:25:12:638818,-4,-19,-2,2,6,2,1,2
13:25:12:644809,-13,-10,-7,-5,0,-1,-6,-9
13:25:12:660500,-13,-10,-7,-5,0,-1,-6,-9
13:25:12:661350,-21,-16,-5,-4,0,-1,11,-9
13:25:12:667279,2,-14,-7,2,0,0,5,-1
13:25:12:675532,2,-14,-7,2,0,0,5,-1
13:25:12:676298,0,-10,-4,-5,-1,-2,-3,2
13:25:12:689782,4,-2,0,3,3,0,-4,5
13:25:12:698007,4,-2,0,3,3,0,-4,5
13:25:12:698868,9,0,-11,-4,-5,-5,-6,2
13:25:12:704790,16,18,4,-5,-4,1,0,4
13:25:12:720523,16,18,4,-5,-4,1,0,4
13:25:12:721315,2,9,-1,2,0,2,-8,-6
13:25:12:727257,-5,-6,-1,4,-2,-1,0,-2
13:25:12:735511,-5,-6,-1,4,-2,-1,0,-2
13:25:12:736316,0,7,8,-2,-10,-3,7,-7
13:25:12:749816,-5,-13,-5,-5,-1,-7,-3,-10
13:25:12:758019,-5,-13,-5,-5,-1,-7,-3,-10
13:25:12:758783,-5,-1,4,-5,-6,-3,-9,-7
13:25:12:764779,-4,-6,-23,-4,6,2,1,1
13:25:12:780513,-4,-6,-23,-4,6,2,1,1
13:25:12:781285,-17,-26,-7,-1,9,4,7,-1
13:25:12:787328,-2,-5,11,8,4,2,-6,-3
13:25:12:795541,-2,-5,11,8,4,2,-6,-3
13:25:12:796336,8,5,-2,4,0,4,2,5
13:25:12:809869,3,9,3,-6,-5,1,0,3
13:25:12:818008,3,9,3,-6,-5,1,0,3
13:25:12:818779,-6,2,-6,-6,-4,-3,3,3
13:25:12:824830,0,18,-3,1,-4,-4,-8,6
13:25:12:840483,0,18,-3,1,-4,-4,-8,6
13:25:12:841299,4,-7,1,-1,-1,-3,-7,2
13:25:12:847326,3,-15,2,10,2,1,6,4
13:25:12:855538,3,-15,2,10,2,1,6,4
13:25:12:856290,2,4,-1,-3,1,-2,-1,-3
13:25:12:869806,-1,4,-11,-4,-1,-3,0,-4
13:25:12:878009,-1,4,-11,-4,-1,-3,0,-4
13:25:12:878804,2,10,5,19,11,2,2,0
13:25:12:884839,0,14,-12,-9,-3,-6,-11,-9
13:25:12:900302,0,14,-12,-9,-3,-6,-11,-9
13:25:12:908001,1,-14,4,-4,-5,-4,-8,-3
13:25:12:908773,0,6,3,-1,-1,2,3,8
13:25:12:915499,0,6,3,-1,-1,2,3,8
13:25:12:916283,8,1,-8,-6,-6,-3,-1,-3
13:25:12:929797,3,4,0,-6,-8,-1,2,-1
13:25:12:938067,3,4,0,-6,-8,-1,2,-1
13:25:12:938861,-3,-10,-2,0,2,1,-1,0
13:25:12:944823,-12,-37,3,-6,0,-4,-12,-15
13:25:12:960542,-12,-37,3,-6,0,-4,-12,-15
13:25:12:961344,0,14,-3,-3,2,2,-4,-1
13:25:12:967316,8,6,-12,1,-1,-2,-7,-7
13:25:12:975498,8,6,-12,1,-1,-2,-7,-7
13:25:12:976289,3,-6,4,1,0,-1,4,6
13:25:12:989810,-5,6,4,-7,4,-2,4,8
13:25:12:998038,-5,6,4,-7,4,-2,4,8
13:25:12:998838,-3,5,0,-5,-5,-3,5,1
13:25:13:4806,6,-3,3,2,-6,-3,2,4
13:25:13:20533,6,-3,3,2,-6,-3,2,4
13:25:13:21329,-17,-14,1,-6,-3,-5,-9,-1
13:25:13:27288,-7,-13,-3,2,-1,-2,-4,-3
13:25:13:34873,-7,-13,-3,2,-1,-2,-4,-3
13:25:13:42308,2,-8,3,1,-3,4,-3,-3
13:25:13:49857,8,28,14,5,4,3,5,8
13:25:13:57986,8,28,14,5,4,3,5,8
13:25:13:58777,-4,-4,9,-1,-3,-3,-1,-5
13:25:13:72355,-1,6,3,-1,1,0,-7,-16
13:25:13:80547,-1,6,3,-1,1,0,-7,-16
13:25:13:81367,4,2,-4,-4,-1,-6,-5,5
13:25:13:87313,1,-18,-3,-3,-2,-3,3,3
13:25:13:94853,1,-18,-3,-3,-2,-3,3,3
13:25:13:102322,-3,-15,-8,-1,-2,-5,1,7
13:25:13:109833,-10,-48,-7,-2,1,-2,-14,2
13:25:13:117995,-10,-48,-7,-2,1,-2,-14,2
13:25:13:118822,1,-1,-4,1,1,2,6,0
13:25:13:132311,5,26,3,5,-1,6,9,-3
13:25:13:140486,5,26,3,5,-1,6,9,-3
13:25:13:141290,-12,3,-1,2,-1,-1,-1,0
13:25:13:147338,4,-13,-12,5,1,-3,0,-1
13:25:13:154834,4,-13,-12,5,1,-3,0,-1
13:25:13:162270,11,17,-1,1,-1,0,4,-3
13:25:13:169809,-2,2,-9,-4,-4,0,1,-2
13:25:13:178009,-2,2,-9,-4,-4,0,1,-2
13:25:13:178825,8,-11,-7,1,1,-1,-6,0
13:25:13:192337,2,6,-1,3,2,2,0,0
13:25:13:200516,2,6,-1,3,2,2,0,0
13:25:13:201300,1,-2,-13,-9,-4,-6,-6,3
13:25:13:207280,-4,9,0,-8,-1,2,-1,-5
13:25:13:214858,-4,9,0,-8,-1,2,-1,-5
13:25:13:222260,-1,5,-1,-3,-1,0,0,-4
13:25:13:229786,-16,-21,5,-2,1,4,-2,-18
13:25:13:245510,-16,-21,5,-2,1,4,-2,-18
13:25:13:246320,3,15,5,1,0,4,3,-9
13:25:13:252295,5,8,-1,-1,-5,-3,2,6
13:25:13:260526,5,8,-1,-1,-5,-3,2,6
13:25:13:261325,-5,-18,5,-7,0,-1,0,5
13:25:13:267300,-1,-11,11,5,5,-4,0,14
13:25:13:274864,-1,-11,11,5,5,-4,0,14
13:25:13:282300,4,14,2,5,3,3,6,11
13:25:13:289810,-3,7,2,-4,-7,-5,-3,0
13:25:13:298036,-3,7,2,-4,-7,-5,-3,0
13:25:13:298862,-25,-21,-8,-6,-6,-8,-12,-14
13:25:13:312299,-6,3,-3,-2,0,6,26,-2
13:25:13:320536,-6,3,-3,-2,0,6,26,-2
13:25:13:321341,-3,-3,-3,-5,-5,0,-5,-10
13:25:13:327333,-4,3,-1,-1,-1,-3,-4,-6
13:25:13:334888,-4,3,-1,-1,-1,-3,-4,-6
13:25:13:342301,-8,-11,-1,-3,7,9,1,-13
13:25:13:358670,5,-2,0,-3,1,-8,-7,5
13:25:13:359499,5,-2,0,-3,1,-8,-7,5
13:25:13:360300,-6,-12,-2,3,-3,-1,4,3
13:25:13:381136,-3,-1,-4,-5,0,2,5,6
13:25:13:381953,-3,-1,-4,-5,0,2,5,6
13:25:13:382779,2,-26,-3,1,4,-3,5,5
13:25:13:387338,6,1,0,0,-4,-3,-9,-2
13:25:13:394854,6,1,0,0,-4,-3,-9,-2
13:25:13:402296,-15,-27,6,3,3,1,-3,1
13:25:13:409780,-3,-12,-5,-5,-5,-4,-9,-8
13:25:13:418044,-3,-12,-5,-5,-5,-4,-9,-8
13:25:13:418822,22,35,15,2,-5,-3,3,9
13:25:13:432338,-6,7,6,-1,-3,5,13,1
13:25:13:440520,-6,7,6,-1,-3,5,13,1
13:25:13:441393,-5,21,-1,3,1,-4,-7,-5
13:25:13:447277,14,17,5,1,2,-2,-1,2
13:25:13:454859,14,17,5,1,2,-2,-1,2
13:25:13:462296,15,32,0,1,-4,-1,7,5
13:25:13:469806,-17,-9,-5,2,-1,-4,-14,3
13:25:13:478024,-17,-9,-5,2,-1,-4,-14,3
13:25:13:478819,-16,-24,-9,-10,-5,-9,-2,-8
13:25:13:492275,-8,-4,3,3,0,-2,5,-11
13:25:13:500526,-8,-4,3,3,0,-2,5,-11
13:25:13:501330,-4,-46,0,6,6,6,9,-4
13:25:13:507291,-1,15,-2,0,2,0,-5,-1
13:25:13:514883,-1,15,-2,0,2,0,-5,-1
13:25:13:522331,6,15,-4,-4,-4,-2,-6,7
13:25:13:529823,2,-7,10,-2,0,-2,-7,-5
13:25:13:537981,2,-7,10,-2,0,-2,-7,-5
13:25:13:538793,13,-16,-7,-1,-4,-4,-13,2
13:25:13:552304,-7,-6,-2,-3,-6,-8,-8,-5
13:25:13:560530,-7,-6,-2,-3,-6,-8,-8,-5
13:25:13:561351,-9,-13,-1,-2,-1,0,-3,2
13:25:13:567300,4,-1,-9,-2,1,4,4,-6
13:25:13:574841,4,-1,-9,-2,1,4,4,-6
13:25:13:582330,3,23,1,-3,-1,-5,4,4
13:25:13:589822,-20,-29,2,-1,7,-2,-3,3
13:25:13:597999,-20,-29,2,-1,7,-2,-3,3
13:25:13:598814,6,13,9,2,1,2,-2,-4
13:25:13:612317,8,-4,-3,-2,1,4,9,9
13:25:13:620504,8,-4,-3,-2,1,4,9,9
13:25:13:621295,-9,-4,-7,-1,4,4,-1,-7
13:25:13:627314,2,6,2,0,-11,-4,-9,5
13:25:13:634844,2,6,2,0,-11,-4,-9,5
13:25:13:642261,8,18,0,-1,-1,-2,4,1
13:25:13:649830,9,10,-5,1,1,3,6,7
13:25:13:658012,9,10,-5,1,1,3,6,7
13:25:13:658810,-14,-29,-6,-5,0,-2,-7,-13
13:25:13:672360,6,6,2,-1,-2,-3,-7,-3
13:25:13:680514,6,6,2,-1,-2,-3,-7,-3
13:25:13:681324,6,27,-8,-6,-2,5,-2,4
13:25:13:687291,6,5,-7,-2,1,0,-11,-2
13:25:13:694846,6,5,-7,-2,1,0,-11,-2
13:25:13:702296,-26,-34,-2,-5,-1,1,14,-13
13:25:13:709804,-1,6,6,0,-4,-3,-3,2
13:25:13:718036,-1,6,6,0,-4,-3,-3,2
13:25:13:718825,7,4,2,5,4,-2,-5,5
13:25:13:732315,0,6,-5,-1,-1,1,8,0
13:25:13:740555,0,6,-5,-1,-1,1,8,0
13:25:13:741321,8,16,7,2,-4,-7,-20,-3
13:25:13:755523,8,5,-4,0,-4,-2,-11,-1
13:25:13:756310,8,5,-4,0,-4,-2,-11,-1
13:25:13:762323,0,15,-4,-4,-6,-3,-3,-1
13:25:13:769792,2,-10,-2,0,2,2,8,-2
13:25:13:778034,2,-10,-2,0,2,2,8,-2
13:25:13:778821,-11,-16,1,-3,0,-4,-2,-3
13:25:13:792334,1,-4,-2,-3,0,-1,7,-3
13:25:13:800528,1,-4,-2,-3,0,-1,7,-3
13:25:13:801326,16,18,-1,7,6,12,-3,-2
13:25:13:807285,-4,-4,4,-2,-5,-6,-4,0
13:25:13:814854,-4,-4,4,-2,-5,-6,-4,0
13:25:13:822278,2,11,5,2,4,0,12,8
13:25:13:829777,-8,1,5,-1,2,-1,4,-6
13:25:13:838038,-8,1,5,-1,2,-1,4,-6
13:25:13:838870,-7,-2,5,1,-4,1,-7,-2
13:25:13:852322,-5,-15,-5,-3,-2,1,14,6
13:25:13:860498,-5,-15,-5,-3,-2,1,14,6
13:25:13:861323,-20,-18,-6,-5,-3,-5,8,-13
13:25:13:875521,1,14,-4,0,0,4,-10,-1
13:25:13:876349,1,14,-4,0,0,4,-10,-1
13:25:13:882291,1,-12,-8,-4,-4,-6,-5,4
13:25:13:889779,-16,-4,4,-1,3,2,-2,-16
13:25:13:898047,-16,-4,4,-1,3,2,-2,-16
13:25:13:898843,-11,-29,2,-3,-1,-5,-14,-7
13:25:13:912283,4,-12,3,-5,1,0,2,7
13:25:13:920538,4,-12,3,-5,1,0,2,7
13:25:13:921343,5,9,-10,1,-4,-3,3,6
13:25:13:927275,-10,-12,-5,-4,-4,-7,-8,-7
13:25:13:943029,-10,-12,-5,-4,-4,-7,-8,-7
13:25:13:943812,7,-1,-4,-4,-9,-9,-17,-3
13:25:13:958667,5,15,0,1,-2,-7,-13,-3
13:25:13:959490,5,15,0,1,-2,-7,-13,-3
13:25:13:960270,8,10,2,0,0,3,2,8
13:25:13:972306,0,-7,-6,0,1,-2,-8,-9
13:25:13:980485,0,-7,-6,0,1,-2,-8,-9
13:25:13:981286,7,38,5,2,-1,2,8,1
13:25:13:995469,-7,10,0,-2,-2,-2,3,-2
13:25:13:996299,-7,10,0,-2,-2,-2,3,-2
13:25:14:2331,0,11,2,0,0,-5,0,-3
13:25:14:9864,-9,-8,-8,0,-1,-3,-7,2
13:25:14:17335,-9,-8,-8,0,-1,-3,-7,2
13:25:14:24797,-4,-19,-7,-9,0,3,17,4
13:25:14:32343,1,-12,4,4,0,0,4,2
13:25:14:40506,1,-12,4,4,0,0,4,2
13:25:14:41313,5,9,-3,0,-1,0,1,5
13:25:14:55484,1,-2,-2,-1,1,0,-1,6
13:25:14:56315,1,-2,-2,-1,1,0,-1,6
13:25:14:62296,0,1,4,8,4,8,4,7
13:25:14:69790,0,18,0,-2,1,1,-4,-7
13:25:14:77367,0,18,0,-2,1,1,-4,-7
13:25:14:84791,-6,-2,4,2,-1,1,-4,-3
13:25:14:92311,6,0,2,1,-3,-5,4,3
13:25:14:100547,6,0,2,1,-3,-5,4,3
13:25:14:101331,6,6,1,1,-3,-5,-7,-6
13:25:14:115495,8,-10,-3,1,2,9,21,12
13:25:14:116293,8,-10,-3,1,2,9,21,12
13:25:14:122286,4,2,20,2,4,2,1,5
13:25:14:129790,1,-8,-4,-1,-1,-2,-8,-1
13:25:14:137371,1,-8,-4,-1,-1,-2,-8,-1
13:25:14:152955,-1,-8,-8,-4,-4,-2,-1,1
13:25:14:153773,-8,-3,0,-1,-3,-3,0,-2
13:25:14:160547,-8,-3,0,-1,-3,-3,0,-2
13:25:14:161314,4,24,-2,3,6,4,0,-7
13:25:14:175510,6,2,1,-1,-4,-1,-5,13
13:25:14:176323,6,2,1,-1,-4,-1,-5,13
13:25:14:182283,-15,-19,-5,-6,-5,-5,-2,-4
13:25:14:189849,3,-6,-6,0,3,-2,-7,0
13:25:14:197349,3,-6,-6,0,3,-2,-7,0
13:25:14:204818,1,-3,0,-2,-4,-2,6,-4
13:25:14:212283,-11,-16,-5,-4,-4,-9,-5,-6
13:25:14:220513,-11,-16,-5,-4,-4,-9,-5,-6
13:25:14:221335,-4,-5,-2,0,0,-4,-5,-6
13:25:14:235477,2,-2,3,0,1,-1,-5,-3
13:25:14:236345,2,-2,3,0,1,-1,-5,-3
13:25:14:242282,-12,-14,-4,-5,-1,1,5,0
13:25:14:249782,0,19,-1,1,-2,2,10,-2
13:25:14:257403,0,19,-1,1,-2,2,10,-2
13:25:14:264828,8,-8,1,-1,0,-2,-1,8
13:25:14:272287,-5,1,1,-2,0,1,-3,-8
13:25:14:280547,-5,1,1,-2,0,1,-3,-8
13:25:14:281326,-8,8,-8,-1,1,2,-3,-11
13:25:14:295509,-1,16,9,1,3,1,-1,-10
13:25:14:296321,-1,16,9,1,3,1,-1,-10
13:25:14:310450,-9,-33,-7,-6,-2,-5,1,-7
13:25:14:311233,-2,13,2,-6,-5,-4,-5,0
13:25:14:317412,-2,13,2,-6,-5,-4,-5,0
13:25:14:332948,9,22,5,2,2,6,-9,11
13:25:14:333754,-2,-29,-4,-4,-2,0,-2,-7
13:25:14:340527,-2,-29,-4,-4,-2,0,-2,-7
13:25:14:341333,1,9,4,2,-3,-4,-9,12
13:25:14:355498,-1,1,-7,-1,0,-5,-9,-9
13:25:14:356326,-1,1,-7,-1,0,-5,-9,-9
13:25:14:362256,-6,-2,-4,-2,-3,-4,-6,3
13:25:14:369860,9,12,-2,-1,0,-4,-6,2
13:25:14:377367,9,12,-2,-1,0,-4,-6,2
13:25:14:384788,-3,0,6,-1,0,1,7,-9
13:25:14:392284,-10,-9,0,-9,1,-2,1,-3
13:25:14:400522,-10,-9,0,-9,1,-2,1,-3
13:25:14:401353,5,3,-1,0,-5,-6,5,1
13:25:14:415490,11,-2,8,6,-1,1,4,9
13:25:14:416307,11,-2,8,6,-1,1,4,9
13:25:14:430487,2,-13,-8,2,1,0,-1,1
13:25:14:431268,-15,-16,2,-2,1,0,1,-7
13:25:14:437350,-15,-16,2,-2,1,0,1,-7
13:25:14:452995,-13,-27,-2,-1,1,3,21,-1
13:25:14:453797,-2,-16,-3,-1,-2,2,3,4
13:25:14:460510,-2,-16,-3,-1,-2,2,3,4
13:25:14:461281,4,11,-12,1,-2,-2,-8,-8
13:25:14:475506,-1,7,-6,-1,-1,-2,1,2
13:25:14:476368,-1,7,-6,-1,-1,-2,1,2
13:25:14:482321,2,10,9,-1,2,2,0,6
13:25:14:489816,4,6,3,3,-1,0,-17,-2
13:25:14:497347,4,6,3,3,-1,0,-17,-2
13:25:14:504823,-16,-30,-6,-3,-2,0,-2,0
13:25:14:512328,-2,-2,-5,-3,-1,0,-6,-7
13:25:14:520507,-2,-2,-5,-3,-1,0,-6,-7
13:25:14:521324,4,16,28,2,-2,-1,0,-3
13:25:14:535479,5,-8,-2,2,1,4,15,3
13:25:14:536292,5,-8,-2,2,1,4,15,3
13:25:14:542326,-2,-8,0,-3,-1,-3,0,0
13:25:14:549819,-2,14,11,-3,-3,1,3,5
13:25:14:557342,-2,14,11,-3,-3,1,3,5
13:25:14:564817,-3,-12,-24,-1,3,6,-4,-2
13:25:14:572264,5,2,-15,-1,-2,-4,0,-6
13:25:14:580535,5,2,-15,-1,-2,-4,0,-6
13:25:14:581303,2,23,11,0,2,-4,-6,-8
13:25:14:595499,-4,-29,1,5,-1,3,6,9
13:25:14:596314,-4,-29,1,5,-1,3,6,9
13:25:14:602297,-4,8,-2,-2,1,-4,-6,-8
13:25:14:609803,-8,15,0,-6,0,-3,-1,-2
13:25:14:617353,-8,15,0,-6,0,-3,-1,-2
13:25:14:633003,-5,-11,-10,-2,-2,-5,-9,-7
13:25:14:633795,-6,-6,-2,-2,-3,-2,-5,-3
13:25:14:640489,-6,-6,-2,-2,-3,-2,-5,-3
13:25:14:641347,4,12,-4,0,8,6,-5,-7
13:25:14:655462,6,11,-1,0,2,7,10,-2
13:25:14:656314,6,11,-1,0,2,7,10,-2
13:25:14:662371,-4,-28,-1,-3,-8,-6,0,-5
13:25:14:678467,6,17,14,2,-4,-4,-1,2
13:25:14:685495,6,17,14,2,-4,-4,-1,2
13:25:14:686297,2,14,4,-1,-5,-4,-3,2
13:25:14:692324,0,-14,-1,-3,-2,-2,2,3
13:25:14:708037,0,-14,-1,-3,-2,-2,2,3
13:25:14:708842,7,-3,-7,-3,-3,-5,-3,4
13:25:14:715458,-8,-8,-4,-4,-6,-6,-6,4
13:25:14:716291,-8,-8,-4,-4,-6,-6,-6,4
13:25:14:730471,6,2,-5,1,-2,-3,6,7
13:25:14:731275,-3,-6,-4,1,4,-2,-5,-2
13:25:14:737398,-3,-6,-4,1,4,-2,-5,-2
13:25:14:752971,0,14,2,0,0,5,3,0
13:25:14:753771,10,20,-6,0,-2,-2,-2,1
13:25:14:760532,10,20,-6,0,-2,-2,-2,1
13:25:14:761348,9,0,-1,-1,-2,-2,-2,-2
13:25:14:775498,-5,29,8,1,3,8,-2,-2
13:25:14:776368,-5,29,8,1,3,8,-2,-2
13:25:14:782300,0,-13,3,2,0,2,1,10
13:25:14:798010,-8,-30,0,-2,4,5,8,5
13:25:14:798812,-8,-30,0,-2,4,5,8,5
13:25:14:804794,-1,-5,-7,-7,0,-4,-20,-22
13:25:14:812298,15,6,-2,-2,-2,-3,4,6
13:25:14:820542,15,6,-2,-2,-2,-3,4,6
13:25:14:821342,7,5,1,1,-2,0,3,18
13:25:14:835503,0,-2,-6,-2,1,-6,-7,-8
13:25:14:836323,0,-2,-6,-2,1,-6,-7,-8
13:25:14:842296,-5,-3,-5,-2,-2,-4,0,-2
13:25:14:849804,2,-16,1,-2,-1,0,0,4
13:25:14:857409,2,-16,1,-2,-1,0,0,4
13:25:14:864822,-6,-15,1,-2,-1,3,3,-8
13:25:14:872319,-8,-9,-6,-1,-2,-2,13,11
13:25:14:880552,-8,-9,-6,-1,-2,-2,13,11
13:25:14:881348,1,14,-1,2,-1,0,-4,-4
13:25:14:895531,2,4,-6,1,-4,1,-5,-1
13:25:14:896350,2,4,-6,1,-4,1,-5,-1
13:25:14:902325,5,4,-19,-5,-2,0,6,3
13:25:14:918009,-25,-34,0,-5,-1,-8,-17,-28
13:25:14:918818,-25,-34,0,-5,-1,-8,-17,-28
13:25:14:924794,-11,-22,-4,-2,-1,-1,-8,-1
13:25:14:932305,-11,11,-1,1,-3,-9,19,10
13:25:14:939906,-11,11,-1,1,-3,-9,19,10
13:25:14:947303,3,10,6,-1,-5,-5,4,5
13:25:14:955517,9,16,-2,-3,-3,-4,-2,-6
13:25:14:956348,9,16,-2,-3,-3,-4,-2,-6
13:25:14:962321,4,34,2,-5,0,-1,3,1
13:25:14:986143,-13,-9,0,-2,0,0,-8,-5
13:25:14:986964,-13,-9,0,-2,0,0,-8,-5
13:25:14:987807,-2,6,-3,0,-3,3,5,-1
13:25:14:992323,3,14,-7,-1,-3,-4,-5,-17
13:25:14:999849,3,14,-7,-1,-3,-4,-5,-17
13:25:15:7302,-8,-20,10,-2,-4,-4,2,-7
13:25:15:23642,6,27,-5,-2,3,5,-2,1
13:25:15:24464,6,27,-5,-2,3,5,-2,1
13:25:15:25275,9,-27,3,3,0,2,-6,4
13:25:15:37990,-11,-5,-3,-3,-1,-7,-6,6
13:25:15:38813,-11,-5,-3,-3,-1,-7,-6,6
13:25:15:44760,-6,26,6,-3,0,3,-8,-16
13:25:15:52325,4,-10,-4,1,-1,-1,-1,3
13:25:15:59870,4,-10,-4,1,-1,-1,-1,3
13:25:15:67305,3,-10,-15,-4,-4,-11,0,13
13:25:15:75538,-5,-2,14,0,-3,-2,4,-3
13:25:15:76330,-5,-2,14,0,-3,-2,4,-3
13:25:15:82304,-12,-1,-7,-2,-2,-6,-9,-5
13:25:15:98028,4,14,-3,-2,1,2,3,15
13:25:15:98800,4,14,-3,-2,1,2,3,15
13:25:15:104821,-5,-13,3,4,0,-6,-6,-14
13:25:15:112330,6,-12,-5,-1,0,3,-5,-2
13:25:15:119880,6,-12,-5,-1,0,3,-5,-2
13:25:15:127293,-9,-37,-4,-4,2,-3,-9,-4
13:25:15:135542,7,2,3,1,-1,0,4,1
13:25:15:136367,7,2,3,1,-1,0,4,1
13:25:15:142336,-2,20,4,3,3,4,11,10
13:25:15:158005,7,12,-5,-5,-3,-5,-6,-4
13:25:15:158844,7,12,-5,-5,-3,-5,-6,-4
13:25:15:164803,6,22,7,3,-2,-3,-5,2
13:25:15:172301,2,-11,2,2,2,4,4,-4
13:25:15:179912,2,-11,2,2,2,4,4,-4
13:25:15:187339,4,6,0,0,-1,2,8,-7
13:25:15:195470,-10,-45,-1,0,0,8,33,-13
13:25:15:196292,-10,-45,-1,0,0,8,33,-13
13:25:15:202338,8,14,-1,-2,2,-8,-5,-4
13:25:15:218671,1,12,-3,1,-5,-5,-7,7
13:25:15:219489,1,12,-3,1,-5,-5,-7,7
13:25:15:224846,-6,-11,-4,-3,-3,1,-8,-4
13:25:15:232322,-12,1,2,-3,1,3,-14,-4
13:25:15:239836,-12,1,2,-3,1,3,-14,-4
13:25:15:247335,-1,1,-1,1,-1,0,0,1
13:25:15:255495,3,4,-6,-1,-3,-2,-2,9
13:25:15:256303,3,4,-6,-1,-3,-2,-2,9
13:25:15:269834,3,2,6,-1,-1,1,-5,3
13:25:15:277993,7,19,1,-1,3,6,18,8
13:25:15:278797,7,19,1,-1,3,6,18,8
13:25:15:284840,-7,-9,-4,-1,-2,3,14,-2
13:25:15:292334,8,17,1,1,-3,-5,-12,2
13:25:15:299849,8,17,1,1,-3,-5,-12,2
13:25:15:316180,4,5,1,-1,3,0,2,2
13:25:15:316952,1,-11,-4,-3,-1,2,0,-1
13:25:15:317754,1,-11,-4,-3,-1,2,0,-1
13:25:15:322314,-3,6,-3,0,0,0,-13,-8
13:25:15:338007,0,22,6,-1,-2,-9,-13,5
13:25:15:338866,0,22,6,-1,-2,-9,-13,5
13:25:15:344841,-3,-3,-4,0,1,1,-1,-1
13:25:15:360525,-12,-8,-8,-1,1,-5,-15,-18
13:25:15:361355,-12,-8,-8,-1,1,-5,-15,-18
13:25:15:367308,3,-21,1,-1,-8,-2,14,6
13:25:15:375576,-2,21,-5,-3,-1,-4,-2,1
13:25:15:376401,-2,21,-5,-3,-1,-4,-2,1
13:25:15:382335,6,14,7,1,-2,-1,-1,-9
13:25:15:398023,7,-1,-5,-7,0,0,7,1
13:25:15:398825,7,-1,-5,-7,0,0,7,1
13:25:15:404820,3,33,-4,-2,2,1,3,1
13:25:15:412291,0,-26,3,4,-1,-2,-8,6
13:25:15:419904,0,-26,3,4,-1,-2,-8,6
13:25:15:427318,1,-8,-13,-8,0,-1,7,14
13:25:15:435485,-4,-7,-3,1,1,1,-6,-9
13:25:15:436303,-4,-7,-3,1,1,1,-6,-9
13:25:15:442329,-12,-72,15,12,1,5,-1,3
13:25:15:457977,-8,-1,-6,-3,-3,-1,0,-5
13:25:15:458809,-8,-1,-6,-3,-3,-1,0,-5
13:25:15:464823,-5,1,-6,-8,-4,-3,-6,-2
13:25:15:472314,1,-8,16,11,6,7,3,3
13:25:15:479806,1,-8,16,11,6,7,3,3
13:25:15:487332,-4,9,-3,-1,0,-2,-7,-2
13:25:15:495509,5,-7,1,-4,-1,-3,-5,-7
13:25:15:496322,5,-7,1,-4,-1,-3,-5,-7
13:25:15:502278,-3,-2,2,-1,3,1,0,-11
13:25:15:517970,-11,-45,2,-2,-4,-4,18,1
13:25:15:518796,-11,-45,2,-2,-4,-4,18,1
13:25:15:524756,18,22,7,0,-4,-5,4,15
13:25:15:532311,-6,15,-8,-6,1,-2,-7,2
13:25:15:539863,-6,15,-8,-6,1,-2,-7,2
13:25:15:547329,1,0,-1,1,3,4,10,6
13:25:15:555496,6,12,1,2,-2,1,2,2
13:25:15:556321,6,12,1,2,-2,1,2,2
13:25:15:562293,4,22,-12,-2,1,2,-7,1
13:25:15:577989,2,36,-1,0,-1,-1,-5,-8
13:25:15:578816,2,36,-1,0,-1,-1,-5,-8
13:25:15:584790,1,6,0,-2,4,-1,1,1
13:25:15:592272,2,-34,-11,-6,-1,2,-7,0
13:25:15:599876,2,-34,-11,-6,-1,2,-7,0
13:25:15:607293,-2,8,6,6,-1,1,1,2
13:25:15:615508,-11,-15,-8,-6,-2,-3,-1,-1
13:25:15:616363,-11,-15,-8,-6,-2,-3,-1,-1
13:25:15:622306,-7,-14,-15,-6,-5,-4,-14,-8
13:25:15:638006,-27,-29,1,1,5,4,-12,-30
13:25:15:638833,-27,-29,1,1,5,4,-12,-30
13:25:15:652918,-3,-37,-10,-2,-3,-3,-6,-6
13:25:15:653746,12,10,2,0,-3,-2,8,20
13:25:15:659874,12,10,2,0,-3,-2,8,20
13:25:15:667280,2,25,-8,-5,5,-4,-8,-10
13:25:15:675525,5,-8,3,2,1,-1,2,6
13:25:15:676345,5,-8,3,2,1,-1,2,6
13:25:15:682327,11,-8,2,2,-4,-2,5,10
13:25:15:697982,-24,-34,-10,-5,2,-2,-2,-15
13:25:15:698836,-24,-34,-10,-5,2,-2,-2,-15
13:25:15:704803,-6,1,3,-2,2,0,5,1
13:25:15:712293,6,22,4,1,-4,-3,-4,3
13:25:15:719860,6,22,4,1,-4,-3,-4,3
13:25:15:727317,-23,-21,1,0,3,4,0,-6
13:25:15:735518,-3,11,-11,-5,0,-2,2,6
13:25:15:736381,-3,11,-11,-5,0,-2,2,6
13:25:15:742306,13,17,12,4,-2,1,-1,2
13:25:15:758002,14,24,3,-3,-2,0,3,6
13:25:15:758831,14,24,3,-3,-2,0,3,6
13:25:15:764838,-11,-48,-18,-11,-3,0,-3,-3
13:25:15:772291,23,41,18,-2,-4,-6,-6,-11
13:25:15:779880,23,41,18,-2,-4,-6,-6,-11
13:25:15:787330,5,-3,13,-9,25,14,2,-16
13:25:15:795479,-8,8,8,8,3,0,4,-6
13:25:15:796298,-8,8,8,8,3,0,4,-6
13:25:15:802350,-9,28,-2,-9,-8,-6,0,-1
13:25:15:818052,-9,28,-2,-9,-8,-6,0,-1
13:25:15:818845,14,6,8,6,-4,-1,-1,7
13:25:15:824832,13,-1,2,6,-4,-1,0,13
13:25:15:840521,13,-1,2,6,-4,-1,0,13
13:25:15:841341,0,-8,-7,2,-3,2,8,9
13:25:15:847303,-6,4,-6,-1,-5,-4,0,6
13:25:15:855278,-6,4,-6,-1,-5,-4,0,6
13:25:15:862984,-2,12,-33,-19,-2,-5,-9,-14
13:25:15:863772,2,-5,-3,4,-4,-5,-2,8
13:25:15:878064,2,-5,-3,4,-4,-5,-2,8
13:25:15:878826,-12,-25,4,-3,-4,-1,-3,-7
13:25:15:884814,8,-36,0,2,-10,-4,-4,-6
13:25:15:900536,8,-36,0,2,-10,-4,-4,-6
13:25:15:901322,4,-22,19,11,1,0,-5,7
13:25:15:907328,-31,-32,-3,1,7,-3,-2,-6
13:25:15:915541,-31,-32,-3,1,7,-3,-2,-6
13:25:15:916314,4,-9,1,-5,-1,4,9,11
13:25:15:929796,7,35,-1,4,0,1,-2,-2
13:25:15:938044,7,35,-1,4,0,1,-2,-2
13:25:15:938831,-13,19,-16,-2,2,-2,-9,-8
13:25:15:944794,-4,3,34,-2,0,3,5,0
13:25:15:977517,-4,3,34,-2,0,3,5,0
13:25:15:978301,10,23,-6,-7,-3,-4,1,5
13:25:15:979127,-5,3,-3,-2,-10,-8,-6,-5
13:25:15:979945,-5,3,-3,-2,-10,-8,-6,-5
13:25:15:990507,-5,-55,9,2,4,2,5,16
13:25:15:991254,-25,3,-6,-7,-4,-1,-6,-11
13:25:15:997988,-25,3,-6,-7,-4,-1,-6,-11
13:25:15:998818,1,-3,-7,0,-8,-1,2,-2
13:25:16:4840,14,-3,-5,-2,-2,-2,0,-3
13:25:16:20542,14,-3,-5,-2,-2,-2,0,-3
13:25:16:21362,-16,-39,2,1,3,0,5,-1
13:25:16:27310,13,16,-6,0,1,3,1,10
13:25:16:35498,13,16,-6,0,1,3,1,10
13:25:16:36317,-7,5,-6,-16,-1,-2,-10,-22
13:25:16:49807,-2,30,-8,-9,-4,-4,-3,-3
13:25:16:58028,-2,30,-8,-9,-4,-4,-3,-3
13:25:16:58857,7,5,2,3,-2,0,9,14
13:25:16:64806,-3,-34,10,8,1,5,1,8
13:25:16:80541,-3,-34,10,8,1,5,1,8
13:25:16:81328,-1,-23,-3,-6,-4,-5,-9,-14
13:25:16:87322,17,12,-7,1,1,-2,2,5
13:25:16:95516,17,12,-7,1,1,-2,2,5
13:25:16:96368,-3,-2,10,2,-3,1,-3,-4
13:25:16:109819,6,12,-1,-3,-7,-2,-4,-15
13:25:16:118049,6,12,-1,-3,-7,-2,-4,-15
13:25:16:118822,-3,12,4,5,8,-1,-9,-16
13:25:16:124837,1,17,4,0,1,-1,-3,3
