Time,EMG1,EMG2,EMG3,EMG4,EMG5,EMG6,EMG7,EMG8
13:34:30:117109,1,-4,-5,-2,1,0,0,0
13:34:30:133496,1,-4,-5,-2,1,0,0,0
13:34:30:134336,1,-8,-4,-3,-2,-3,-1,-2
13:34:30:135106,-2,-4,-4,-4,-3,0,-1,0
13:34:30:139598,-2,-4,-4,-4,-3,0,-1,0
13:34:30:147082,-1,-6,2,4,0,0,-2,-2
13:34:30:163461,-3,-1,-2,-1,1,0,-2,-3
13:34:30:164355,-3,-1,-2,-1,1,0,-2,-3
13:34:30:165100,3,-8,-6,-2,0,-2,-1,0
13:34:30:177085,1,-1,-1,1,2,1,-1,0
13:34:30:185367,1,-1,-1,1,2,1,-1,0
13:34:30:186100,-3,-6,-3,-2,1,1,-2,1
13:34:30:192069,1,30,1,-3,0,2,-1,-1
13:34:30:199772,1,30,1,-3,0,2,-1,-1
13:34:30:207092,-3,-3,1,2,0,-1,0,-1
13:34:30:214664,-3,-9,-1,1,-1,-3,-1,-2
13:34:30:222834,-3,-9,-1,1,-1,-3,-1,-2
13:34:30:223575,7,8,-2,-2,-2,-3,-2,-1
13:34:30:245967,-1,-5,1,6,1,-1,-3,-2
13:34:30:246833,-1,-5,1,6,1,-1,-3,-2
13:34:30:247592,-2,-11,1,-3,-2,-2,0,-1
13:34:30:252104,-2,-5,-3,-2,0,-1,0,2
13:34:30:259678,-2,-5,-3,-2,0,-1,0,2
13:34:30:275198,-3,1,-4,-1,-3,-1,-1,-1
13:34:30:276078,0,-5,-1,-3,-3,-4,0,-1
13:34:30:282901,0,-5,-1,-3,-3,-4,0,-1
13:34:30:283584,-1,-20,-6,-4,-3,-2,-2,3
13:34:30:297075,2,-7,2,3,-3,-1,-3,0
13:34:30:305313,2,-7,2,3,-3,-1,-3,0
13:34:30:306058,-3,9,5,4,2,-1,0,1
13:34:30:328473,1,-14,-5,-4,-2,-3,-1,0
13:34:30:329314,1,-14,-5,-4,-2,-3,-1,0
13:34:30:330061,-4,-1,-8,-3,1,2,-1,-5
13:34:30:334621,-1,6,-1,-3,-3,-3,-1,-3
13:34:30:342094,-1,6,-1,-3,-3,-3,-1,-3
13:34:30:357727,-4,4,2,1,0,-3,-2,-2
13:34:30:358572,-1,-7,-8,2,0,-1,0,-3
13:34:30:365353,-1,-7,-8,2,0,-1,0,-3
13:34:30:366090,-3,-3,-1,-2,-1,0,-2,-3
13:34:30:380725,-2,-15,-4,-2,-1,-1,-3,2
13:34:30:381602,-2,-15,-4,-2,-1,-1,-3,2
13:34:30:387096,-2,12,4,1,-2,-1,-1,1
13:34:30:394589,-2,-5,-3,-2,0,0,0,-3
13:34:30:402214,-2,-5,-3,-2,0,0,0,-3
13:34:30:409560,5,-10,-3,-1,-2,-4,-2,-3
13:34:30:417085,3,19,0,-1,-1,0,-4,0
13:34:30:425189,3,19,0,-1,-1,0,-4,0
13:34:30:426086,0,-2,-6,4,0,1,-2,-2
13:34:30:440704,-2,-1,4,-1,3,1,0,2
13:34:30:441557,-2,-1,4,-1,3,1,0,2
13:34:30:447129,-4,2,-1,-2,-1,1,-1,0
13:34:30:454648,1,4,1,-5,0,0,-1,-2
13:34:30:462218,1,4,1,-5,0,0,-1,-2
13:34:30:469593,-2,-8,0,-2,2,0,0,-1
13:34:30:477079,-4,-2,3,-1,-1,-1,-3,-3
13:34:30:485332,-4,-2,3,-1,-1,-1,-3,-3
13:34:30:486085,3,-3,-3,0,-3,-4,-1,-5
13:34:30:500187,-4,-7,-2,-1,1,0,1,-2
13:34:30:501098,-4,-7,-2,-1,1,0,1,-2
13:34:30:507077,-1,-3,2,0,-3,1,-1,-1
13:34:30:522853,-2,-1,1,-1,-3,-3,-1,-4
13:34:30:523577,-2,-1,1,-1,-3,-3,-1,-4
13:34:30:529596,2,-6,-5,-2,0,0,-1,0
13:34:30:537703,-6,3,1,1,-2,-1,2,0
13:34:30:545184,-6,3,1,1,-2,-1,2,0
13:34:30:546110,-1,-3,-2,-2,-2,-3,-2,0
13:34:30:560319,1,3,9,3,0,-1,-2,-1
13:34:30:561079,1,3,9,3,0,-1,-2,-1
13:34:30:567107,-3,0,-7,0,-1,1,-1,-1
13:34:30:574577,-2,-3,2,1,1,0,-1,0
13:34:30:582120,-2,-3,2,1,1,0,-1,0
13:34:30:589588,-4,-1,2,-8,-3,-4,-2,0
13:34:30:605957,-2,-12,-9,-4,-2,-1,-2,-3
13:34:30:606836,-2,-12,-9,-4,-2,-1,-2,-3
13:34:30:607565,-2,-1,-2,1,0,-1,0,-2
13:34:30:620337,-1,2,-4,-5,0,-2,0,-2
13:34:30:621067,-1,2,-4,-5,0,-2,0,-2
13:34:30:635224,-4,10,3,-2,0,0,1,0
13:34:30:636089,-1,-1,-4,-3,-1,0,-1,-1
13:34:30:642084,-1,-1,-4,-3,-1,0,-1,-1
13:34:30:649638,4,-16,-1,2,2,0,0,-1
13:34:30:657073,0,-3,-4,-1,-3,-1,0,0
13:34:30:665344,0,-3,-4,-1,-3,-1,0,0
13:34:30:666084,-1,-6,0,3,0,0,-2,0
13:34:30:680346,0,-1,-5,0,-2,-2,-1,-2
13:34:30:681072,0,-1,-5,0,-2,-2,-1,-2
13:34:30:687099,-3,-17,-1,0,1,-1,0,0
13:34:30:694600,-4,0,13,3,-1,-3,-4,-4
13:34:30:702198,-4,0,13,3,-1,-3,-4,-4
13:34:30:717724,0,3,-5,0,-1,-2,-1,0
13:34:30:718585,-2,-5,-5,-1,1,0,0,-1
13:34:30:725345,-2,-5,-5,-1,1,0,0,-1
13:34:30:726077,0,8,-1,-1,-1,-1,-2,-2
13:34:30:740260,1,4,-2,3,-2,-1,-1,2
13:34:30:741076,1,4,-2,3,-2,-1,-1,2
13:34:30:747119,-1,29,2,-2,-1,0,-1,0
13:34:30:754618,-4,-6,-1,-1,-2,-2,-1,-2
13:34:30:762085,-4,-6,-1,-1,-2,-2,-1,-2
13:34:30:769614,1,-1,2,0,-2,-2,-2,0
13:34:30:777088,1,7,2,-4,-1,-2,0,-1
13:34:30:785336,1,7,2,-4,-1,-2,0,-1
13:34:30:786089,-1,5,-2,-2,-4,-1,-1,-1
13:34:30:800732,-5,-2,-3,-2,3,0,-1,0
13:34:30:801599,-5,-2,-3,-2,3,0,-1,0
13:34:30:807096,-4,-4,8,1,1,0,-1,0
13:34:30:814587,4,12,5,3,-1,-2,-3,1
13:34:30:830346,4,12,5,3,-1,-2,-3,1
13:34:30:831139,-2,0,-4,-1,0,-1,-2,-5
13:34:30:845985,8,-4,-4,-1,-3,-2,-1,2
13:34:30:846720,8,-4,-4,-1,-3,-2,-1,2
13:34:30:847559,1,-7,-3,1,0,-2,-1,-3
13:34:30:860246,0,-10,-1,-4,-3,-2,-2,-3
13:34:30:861089,0,-10,-1,-4,-3,-2,-2,-3
13:34:30:867073,-3,-4,-6,-8,-4,-3,-1,1
13:34:30:882856,-2,-5,0,0,0,0,-1,2
13:34:30:883572,-2,-5,0,0,0,0,-1,2
13:34:30:889587,3,6,-3,0,0,-3,-2,-2
13:34:30:897132,0,4,1,0,-1,-1,-1,-1
13:34:30:912851,0,4,1,0,-1,-1,-1,-1
13:34:30:913591,-5,-25,-7,-2,0,1,0,0
13:34:30:920340,0,28,-1,2,0,0,-1,1
13:34:30:921074,0,28,-1,2,0,0,-1,1
13:34:30:935223,-9,6,3,0,1,1,-2,0
13:34:30:936088,-6,-10,0,-1,0,0,-2,-3
13:34:30:942208,-6,-10,0,-1,0,0,-2,-3
13:34:30:949624,2,3,5,2,0,-1,0,-1
13:34:30:957100,-4,2,-3,-8,-6,-4,-4,-1
13:34:30:965210,-4,2,-3,-8,-6,-4,-4,-1
13:34:30:966107,3,-8,-3,1,-1,0,0,-2
13:34:30:980353,2,-4,-6,-3,0,-3,2,-1
13:34:30:981089,2,-4,-6,-3,0,-3,2,-1
13:34:30:995223,-3,-3,-3,-2,-2,-2,-2,-1
13:34:30:996076,-1,-6,-2,-1,-4,-2,-3,-2
13:34:31:2204,-1,-6,-2,-1,-4,-2,-3,-2
13:34:31:9594,0,-22,-5,-2,-2,-2,-2,-2
13:34:31:17077,-7,-5,3,1,1,1,1,-1
13:34:31:25333,-7,-5,3,1,1,1,1,-1
13:34:31:26080,-1,3,0,1,-1,0,-1,-1
13:34:31:40332,1,-7,-6,-6,-1,-2,-3,-2
13:34:31:41069,1,-7,-6,-6,-1,-2,-3,-2
13:34:31:47121,-1,-1,-1,-1,1,1,1,-1
13:34:31:62823,4,-9,2,-1,-1,-1,-1,0
13:34:31:63604,4,-9,2,-1,-1,-1,-1,0
13:34:31:77742,4,4,-3,-8,-4,-3,-2,0
13:34:31:78602,0,-2,-7,-1,-3,-1,-1,0
13:34:31:85331,0,-2,-7,-1,-3,-1,-1,0
13:34:31:86068,-2,7,11,3,1,0,-4,1
13:34:31:108504,-1,-1,-1,1,1,2,0,-4
13:34:31:109205,-1,-1,-1,1,1,2,0,-4
13:34:31:110086,-3,4,0,-6,-1,-1,1,-2
13:34:31:114572,1,-4,-5,1,2,-2,-2,2
13:34:31:122085,1,-4,-5,1,2,-2,-2,2
13:34:31:129585,0,1,-6,2,0,-1,0,-1
13:34:31:137074,-7,-5,-1,-1,0,0,-1,-3
13:34:31:145399,-7,-5,-1,-1,0,0,-1,-3
13:34:31:146092,-2,7,5,0,-1,-2,0,-1
13:34:31:160702,-3,5,2,-1,-4,-2,-1,0
13:34:31:161607,-3,5,2,-1,-4,-2,-1,0
13:34:31:167091,-4,14,-2,-2,-4,-3,-2,1
13:34:31:174577,-10,2,9,-1,1,-3,0,8
13:34:31:190269,-10,2,9,-1,1,-3,0,8
13:34:31:191066,0,4,7,1,1,0,0,1
13:34:31:197071,-1,-11,-13,-5,-2,-1,-1,-4
13:34:31:212848,-1,-11,-13,-5,-2,-1,-1,-4
13:34:31:213595,-4,-17,-4,-3,-2,-2,-2,-3
13:34:31:220233,5,-3,-1,-1,1,-1,-1,-2
13:34:31:221075,5,-3,-1,-1,1,-1,-1,-2
13:34:31:227087,3,22,0,0,0,0,-1,-1
13:34:31:243203,1,-3,-4,-1,1,1,-2,-2
13:34:31:244069,1,-3,-4,-1,1,1,-2,-2
13:34:31:249609,-4,-8,-7,0,0,0,0,-1
13:34:31:257093,-3,7,-1,1,-1,-2,-1,-2
13:34:31:272857,-3,7,-1,1,-1,-2,-1,-2
13:34:31:273572,2,-3,-3,2,0,-3,-1,0
13:34:31:280373,-2,-6,9,-1,-3,-3,-3,-5
13:34:31:281086,-2,-6,9,-1,-3,-3,-3,-5
13:34:31:294651,0,-4,-3,1,1,1,2,0
13:34:31:302850,1,3,-2,1,-1,1,-2,0
13:34:31:303579,1,3,-2,1,-1,1,-2,0
13:34:31:309631,-2,-3,9,0,-3,-4,-5,-3
13:34:31:317095,0,3,-3,-2,-2,-1,1,0
13:34:31:324696,0,3,-3,-2,-2,-1,1,0
13:34:31:332120,-1,-5,-1,0,-2,-1,-2,-1
13:34:31:340226,-1,-7,-6,-6,-2,0,-3,-1
13:34:31:341100,-1,-7,-6,-6,-2,0,-3,-1
13:34:31:354599,-3,-9,-7,-1,0,0,-1,-3
13:34:31:362743,3,2,-4,-1,-2,-1,1,0
13:34:31:363616,3,2,-4,-1,-2,-1,1,0
13:34:31:369594,2,-3,-1,2,0,0,0,0
13:34:31:385342,0,3,-2,-3,-1,-1,-1,-2
13:34:31:386125,0,3,-2,-3,-1,-1,-1,-2
13:34:31:392095,-2,0,2,-3,-4,-2,-1,-1
13:34:31:400205,-1,2,2,4,2,0,1,2
13:34:31:401084,-1,2,2,4,2,0,1,2
13:34:31:407107,0,0,-2,0,1,-1,-1,-1
13:34:31:422827,-1,-2,1,0,0,-4,-1,1
13:34:31:423589,-1,-2,1,0,0,-4,-1,1
13:34:31:437745,-2,-4,-7,-4,-1,-1,-1,-2
13:34:31:438598,-1,-1,-2,2,-1,-2,-1,-3
13:34:31:444610,-1,-1,-2,2,-1,-2,-1,-3
13:34:31:452090,-1,4,0,-4,-3,-2,0,-1
13:34:31:468496,0,-2,-1,3,0,1,1,-1
13:34:31:469238,0,-2,-1,3,0,1,1,-1
13:34:31:470093,0,-2,-2,-4,0,0,-1,2
13:34:31:490984,-3,-1,0,-1,-1,-1,-2,-3
13:34:31:491843,-3,-1,0,-1,-1,-1,-2,-3
13:34:31:492593,1,0,-2,-2,-1,-3,-1,-2
13:34:31:497122,-3,1,1,-2,-2,-2,-1,-2
13:34:31:504582,-3,1,1,-2,-2,-2,-1,-2
13:34:31:520964,0,3,1,1,0,0,-2,2
13:34:31:521700,-1,5,-1,-3,-1,0,-2,1
13:34:31:522591,-1,5,-1,-3,-1,0,-2,1
13:34:31:527114,-3,-11,-1,1,0,0,0,-5
13:34:31:551025,-2,-12,-6,-1,-2,0,-2,-1
13:34:31:551720,-2,-12,-6,-1,-2,0,-2,-1
13:34:31:552673,-2,4,0,3,1,0,0,0
13:34:31:557098,-1,-3,-1,-5,-4,-2,-2,0
13:34:31:572875,-1,-3,-1,-5,-4,-2,-2,0
13:34:31:573612,-2,-2,-3,-4,-2,-1,-1,-2
13:34:31:580219,1,13,-2,1,-1,-2,0,-2
13:34:31:581090,1,13,-2,1,-1,-2,0,-2
13:34:31:587091,-2,12,12,-1,2,1,-2,-1
13:34:31:603260,-2,0,3,0,-1,-2,-1,-1
13:34:31:604090,-2,0,3,0,-1,-2,-1,-1
13:34:31:609585,-10,-28,0,3,3,1,-1,-5
13:34:31:625203,1,28,9,6,-1,1,0,-1
13:34:31:626101,1,28,9,6,-1,1,0,-1
13:34:31:632168,-1,-15,-9,-1,-5,-4,-4,1
13:34:31:640245,-5,-28,-17,-1,2,0,-1,0
13:34:31:641102,-5,-28,-17,-1,2,0,-1,0
13:34:31:654580,9,25,0,0,2,4,3,1
13:34:31:662718,6,21,-8,-1,0,1,1,0
13:34:31:663575,6,21,-8,-1,0,1,1,0
13:34:31:686009,-7,-26,-18,-13,3,-1,0,-4
13:34:31:686723,-1,13,2,1,0,1,-2,-2
13:34:31:687576,-1,13,2,1,0,1,-2,-2
13:34:31:692082,4,25,9,-1,-9,-4,-2,1
13:34:31:700742,0,3,15,16,5,-4,-4,0
13:34:31:707841,0,3,15,16,5,-4,-4,0
13:34:31:708639,0,11,9,-2,-2,-3,-3,1
13:34:31:722844,-5,-20,-39,-5,-6,-4,0,-2
13:34:31:723604,-5,-20,-39,-5,-6,-4,0,-2
13:34:31:729594,-3,-4,-8,7,-5,-4,-5,-1
13:34:31:737098,-1,-10,7,-3,4,4,0,-1
13:34:31:744767,-1,-10,7,-3,4,4,0,-1
13:34:31:760964,0,-8,-22,-11,-2,-1,1,-1
13:34:31:761726,-4,-11,22,-4,-6,-6,-5,-4
13:34:31:762593,-4,-11,22,-4,-6,-6,-5,-4
13:34:31:767105,-4,-5,-15,-1,0,3,-3,-4
13:34:31:782938,10,22,65,18,27,18,6,6
13:34:31:783617,10,22,65,18,27,18,6,6
13:34:31:789602,-3,-7,-14,-20,-16,-20,-9,-6
13:34:31:797109,-11,-24,-30,-29,-26,-10,-6,-4
13:34:31:804614,-11,-24,-30,-29,-26,-10,-6,-4
13:34:31:812106,9,16,34,18,14,6,8,6
13:34:31:820342,-1,1,43,27,16,8,6,3
13:34:31:821072,-1,1,43,27,16,8,6,3
13:34:31:827103,2,-17,-52,-2,-21,-9,-3,33
13:34:31:843227,-5,-20,-33,-11,-9,-4,-2,-12
13:34:31:844090,-5,-20,-33,-11,-9,-4,-2,-12
13:34:31:849603,-5,12,16,12,12,8,12,-8
13:34:31:857103,-5,-6,-46,-51,-11,-7,-6,14
13:34:31:864713,-5,-6,-46,-51,-11,-7,-6,14
13:34:31:872105,-10,-17,21,27,20,11,7,17
13:34:31:880254,-7,-16,-31,13,-3,-8,-9,-14
13:34:31:881095,-7,-16,-31,13,-3,-8,-9,-14
13:34:31:887100,16,-10,9,8,0,1,-3,8
13:34:31:902840,3,17,1,19,7,3,5,41
13:34:31:903600,3,17,1,19,7,3,5,41
13:34:31:909595,-4,3,-7,-11,-5,0,-2,4
13:34:31:917129,3,-7,52,-2,0,5,7,-8
13:34:31:924600,3,-7,52,-2,0,5,7,-8
13:34:31:932150,5,8,-33,-23,-4,-4,-6,-46
13:34:31:947611,3,-37,-12,-11,-5,-5,-1,-14
13:34:31:964127,3,-37,-12,-11,-5,-5,-1,-14
13:34:31:964990,-7,-1,6,-7,-4,-3,-3,-6
13:34:31:965776,9,14,-56,-11,-1,-1,-1,-16
13:34:31:966610,9,14,-56,-11,-1,-1,-1,-16
13:34:31:977723,-5,17,-5,8,-1,-5,-10,-20
13:34:31:978611,-6,10,14,8,-1,-1,-2,-4
13:34:31:984631,-6,10,14,8,-1,-1,-2,-4
13:34:31:992105,3,-20,7,-10,-8,-6,-5,41
13:34:32:367,0,4,12,1,-4,-6,-14,-28
13:34:32:1083,0,4,12,1,-4,-6,-14,-28
13:34:32:14605,-1,6,5,3,3,3,0,-16
13:34:32:22871,-15,-9,-6,-3,-4,-2,2,7
13:34:32:23599,-15,-9,-6,-3,-4,-2,2,7
13:34:32:37720,-3,-20,-15,-14,-4,-5,-1,10
13:34:32:38589,-5,-5,2,1,0,0,0,3
13:34:32:44603,-5,-5,2,1,0,0,0,3
13:34:32:60981,-2,6,20,-9,1,4,2,-6
13:34:32:61707,6,7,-7,-7,-3,-2,2,4
13:34:32:62589,6,7,-7,-7,-3,-2,2,4
13:34:32:67133,5,8,-36,-13,-3,-2,3,13
13:34:32:82731,-5,-8,-1,3,1,3,0,-14
13:34:32:83597,-5,-8,-1,3,1,3,0,-14
13:34:32:89605,25,15,16,-3,-3,-3,-5,-12
13:34:32:97108,4,7,14,1,-1,-1,0,10
13:34:32:104605,4,7,14,1,-1,-1,0,10
13:34:32:120979,-5,0,4,6,3,2,3,-3
13:34:32:121711,-4,0,-24,2,0,-1,-3,1
13:34:32:122595,-4,0,-24,2,0,-1,-3,1
13:34:32:127135,-2,24,43,13,-1,0,0,-9
13:34:32:143226,-2,24,43,13,-1,0,0,-9
13:34:32:144099,13,-45,-9,4,-1,0,0,24
13:34:32:149618,-4,-5,15,11,6,2,-5,-50
13:34:32:165384,-4,-5,15,11,6,2,-5,-50
13:34:32:166095,1,20,35,12,1,-1,3,5
13:34:32:172116,-14,-11,-8,9,-1,1,2,10
13:34:32:187837,-14,-11,-8,9,-1,1,2,10
13:34:32:188600,-11,18,24,-1,-1,0,1,-23
13:34:32:194596,-15,-21,3,-6,-4,-3,1,31
13:34:32:202853,-15,-21,3,-6,-4,-3,1,31
13:34:32:203602,-12,-3,-11,0,-4,-5,-9,-2
13:34:32:225961,-2,-19,-2,-10,-3,0,1,13
13:34:32:226720,-2,-19,-2,-10,-3,0,1,13
13:34:32:227590,-3,-22,8,14,2,1,3,20
13:34:32:232118,-4,5,-41,-14,-7,-3,-5,24
13:34:32:240352,-4,5,-41,-14,-7,-3,-5,24
13:34:32:241079,-4,6,-4,-7,0,0,-1,-13
13:34:32:254622,11,8,12,7,3,2,5,4
13:34:32:262864,11,8,12,7,3,2,5,4
13:34:32:263586,1,32,-19,3,-2,-2,-4,30
13:34:32:269589,8,-5,-2,-5,-1,-3,0,-15
13:34:32:285359,8,-5,-2,-5,-1,-3,0,-15
13:34:32:286128,3,7,-47,-30,-2,-2,0,-3
13:34:32:292112,-5,13,-1,1,4,2,-2,-20
13:34:32:300405,-5,13,-1,1,4,2,-2,-20
13:34:32:301133,3,-36,-15,2,2,-1,1,26
13:34:32:314638,-10,-6,1,-2,-1,-1,-3,-19
13:34:32:322850,-10,-6,1,-2,-1,-1,-3,-19
13:34:32:323591,-2,1,8,-13,-6,-3,-1,-5
13:34:32:329620,-1,1,18,12,-2,-5,-3,3
13:34:32:345206,-1,1,18,12,-2,-5,-3,3
13:34:32:346097,4,21,23,2,3,3,1,-12
13:34:32:352100,3,38,-20,-11,-4,-3,2,6
13:34:32:360339,3,38,-20,-11,-4,-3,2,6
13:34:32:361086,-6,11,10,-6,-4,-4,-7,-28
13:34:32:374592,-18,-40,-5,-6,-2,-2,-7,-41
13:34:32:382749,-18,-40,-5,-6,-2,-2,-7,-41
13:34:32:383619,3,-1,-12,1,2,-3,1,-4
13:34:32:389633,0,-4,-14,2,3,2,-1,-2
13:34:32:405217,0,-4,-14,2,3,2,-1,-2
13:34:32:406079,-2,-23,5,3,-1,-2,-3,-35
13:34:32:412098,2,-8,-18,-2,-3,-1,-1,9
13:34:32:420239,2,-8,-18,-2,-3,-1,-1,9
13:34:32:421089,6,14,9,2,-4,-2,0,18
13:34:32:434604,1,2,19,4,1,6,2,4
13:34:32:442727,1,2,19,4,1,6,2,4
13:34:32:443617,-2,6,-1,2,1,0,-1,-1
13:34:32:449610,-10,-37,-5,-7,-3,-3,-3,1
13:34:32:473488,-10,-37,-5,-7,-3,-3,-3,1
13:34:32:474221,4,-1,14,7,1,-2,-1,-6
13:34:32:475078,10,56,24,9,2,1,0,-30
13:34:32:480351,10,56,24,9,2,1,0,-30
13:34:32:481086,0,-7,-58,-10,-3,-2,0,17
13:34:32:503482,3,1,-5,1,1,1,3,10
13:34:32:504207,3,1,-5,1,1,1,3,10
13:34:32:505078,-2,-6,-10,-7,0,3,5,3
13:34:32:509614,-7,-1,20,7,-2,-3,-1,21
13:34:32:525239,-7,-1,20,7,-2,-3,-1,21
13:34:32:526092,-11,-44,-23,-16,-2,-2,1,20
13:34:32:532104,-4,-17,-4,-3,-1,-2,-4,-26
13:34:32:540226,-4,-17,-4,-3,-1,-2,-4,-26
13:34:32:541084,3,12,13,11,-1,-2,-3,-9
13:34:32:554599,4,10,1,-3,-1,-1,-1,3
13:34:32:562723,4,10,1,-3,-1,-1,-1,3
13:34:32:563620,-2,0,14,1,1,1,1,-7
13:34:32:569596,2,-3,-7,-1,0,1,3,21
13:34:32:585377,2,-3,-7,-1,0,1,3,21
13:34:32:586170,1,11,24,0,-5,-3,-3,-2
13:34:32:592127,-5,-11,-16,0,-1,0,7,-14
13:34:32:600249,-5,-11,-16,0,-1,0,7,-14
13:34:32:601082,-6,-3,4,-4,-1,-2,-6,-12
13:34:32:614601,6,17,4,3,1,0,-1,-6
13:34:32:622859,6,17,4,3,1,0,-1,-6
13:34:32:623593,0,-21,-11,-4,-6,-4,-1,8
13:34:32:629600,1,-2,3,-6,-3,1,-2,7
13:34:32:645389,1,-2,3,-6,-3,1,-2,7
13:34:32:646126,0,4,-1,0,2,0,-2,-2
13:34:32:652094,1,-4,-7,-13,0,-3,-3,6
13:34:32:660370,1,-4,-7,-13,0,-3,-3,6
13:34:32:661098,0,9,7,2,-3,-3,-1,-6
13:34:32:674587,1,7,7,8,1,1,3,7
13:34:32:682899,1,7,7,8,1,1,3,7
13:34:32:683655,-2,4,13,8,1,-1,1,-2
13:34:32:689592,1,6,-52,-25,-11,-9,-9,-9
13:34:32:705396,1,6,-52,-25,-11,-9,-9,-9
13:34:32:706097,6,35,12,2,1,1,1,3
13:34:32:712106,-2,-7,16,6,2,0,1,4
13:34:32:720356,-2,-7,16,6,2,0,1,4
13:34:32:721099,2,-1,-6,-6,1,0,0,-1
13:34:32:734654,-2,-3,8,4,2,-1,-4,2
13:34:32:742857,-2,-3,8,4,2,-1,-4,2
13:34:32:743630,2,19,24,7,0,0,-2,2
13:34:32:749615,-3,-9,21,-1,-10,-11,-11,-7
13:34:32:765363,-3,-9,21,-1,-10,-11,-11,-7
13:34:32:766103,-10,-1,-54,-14,-6,-3,-7,-29
13:34:32:772127,-7,5,-18,-6,-2,1,0,-3
13:34:32:787862,-7,5,-18,-6,-2,1,0,-3
13:34:32:788583,0,10,9,9,3,1,-1,-1
13:34:32:794680,3,-12,11,7,4,1,2,12
13:34:32:811009,3,-12,11,7,4,1,2,12
13:34:32:811728,-4,-13,2,-7,-6,-3,-3,-20
13:34:32:812601,-7,-28,6,-1,-1,0,2,1
13:34:32:825232,-7,-28,6,-1,-1,0,2,1
13:34:32:826092,4,13,19,2,2,2,3,3
13:34:32:832132,1,-5,-1,-3,-3,-4,0,30
13:34:32:840219,1,-5,-1,-3,-3,-4,0,30
13:34:32:841094,0,-13,-6,-4,-5,-1,0,11
13:34:32:854622,-3,-8,-16,-3,-1,-3,-4,7
13:34:32:862726,-3,-8,-16,-3,-1,-3,-4,7
13:34:32:863609,-6,-19,-16,-3,2,1,2,11
13:34:32:869606,2,8,0,3,1,0,0,-14
13:34:32:885361,2,8,0,3,1,0,0,-14
13:34:32:886097,-2,-14,-35,-3,3,2,-2,-3
13:34:32:892123,11,21,27,3,-1,0,6,32
13:34:32:900221,11,21,27,3,-1,0,6,32
13:34:32:901127,1,-1,-9,-3,-3,-1,2,20
13:34:32:914629,-2,-3,-9,4,5,1,-1,-11
13:34:32:922726,-2,-3,-9,4,5,1,-1,-11
13:34:32:923616,2,5,14,1,1,-1,-2,-2
13:34:32:929636,-9,18,15,2,-1,0,0,-10
13:34:32:945347,-9,18,15,2,-1,0,0,-10
13:34:32:946084,-9,-47,-2,0,-4,-2,-2,-5
13:34:32:952120,4,12,-4,-2,-3,-1,2,-7
13:34:32:960216,4,12,-4,-2,-3,-1,2,-7
13:34:32:961115,1,-2,19,6,1,0,1,-2
13:34:32:974630,-3,0,12,0,-1,-2,-5,-34
13:34:32:982902,-3,0,12,0,-1,-2,-5,-34
13:34:32:983633,-2,-3,6,-1,-2,-1,-1,-2
13:34:32:989597,0,11,-9,-2,-1,-2,-1,1
13:34:33:5346,0,11,-9,-2,-1,-2,-1,1
13:34:33:6085,2,9,5,-4,-3,-3,-3,-4
13:34:33:12091,3,14,10,9,1,1,-2,-2
13:34:33:20368,3,14,10,9,1,1,-2,-2
13:34:33:21091,1,11,-6,0,2,2,1,6
13:34:33:34628,4,22,-1,-1,-3,0,0,12
13:34:33:42835,4,22,-1,-1,-3,0,0,12
13:34:33:43589,-1,12,1,-1,-3,-1,-4,6
13:34:33:49593,-2,-11,-4,-1,1,1,-2,-1
13:34:33:65400,-2,-11,-4,-1,1,1,-2,-1
13:34:33:66099,0,-9,0,-6,-6,-4,-9,-4
13:34:33:72102,-4,-15,-2,2,-1,1,2,1
13:34:33:80366,-4,-15,-2,2,-1,1,2,1
13:34:33:81109,-2,-11,-10,-1,1,-2,-2,-23
13:34:33:94611,-8,-18,-8,-5,-2,-1,2,10
13:34:33:102851,-8,-18,-8,-5,-2,-1,2,10
13:34:33:103600,2,1,9,4,1,0,-6,10
13:34:33:109599,-2,19,2,-8,-5,-3,-8,-14
13:34:33:125367,-2,19,2,-8,-5,-3,-8,-14
13:34:33:126401,-4,4,5,-1,-2,-1,-1,-23
13:34:33:132137,-2,-10,-6,5,6,1,-1,-2
13:34:33:139599,-2,-10,-6,5,6,1,-1,-2
13:34:33:147122,2,6,-6,1,-1,-2,2,4
13:34:33:154612,1,-23,-5,-11,-8,-5,-3,-4
13:34:33:162856,1,-23,-5,-11,-8,-5,-3,-4
13:34:33:163611,2,-1,3,10,9,5,5,6
13:34:33:177111,-3,-10,-15,-4,-1,-1,0,2
13:34:33:185364,-3,-10,-15,-4,-1,-1,0,2
13:34:33:186103,-7,-28,-3,-6,-4,-2,0,0
13:34:33:192110,-2,-7,5,1,0,-2,-2,-3
13:34:33:199613,-2,-7,5,1,0,-2,-2,-3
13:34:33:207109,-10,-2,-6,-3,1,-1,-1,0
13:34:33:214625,-4,-18,-7,2,2,1,-3,0
13:34:33:222746,-4,-18,-7,2,2,1,-3,0
13:34:33:223606,-2,-1,-13,-7,-1,-1,-3,1
13:34:33:237117,1,13,2,-1,1,2,2,-2
13:34:33:245370,1,13,2,-1,1,2,2,-2
13:34:33:246114,1,31,9,-7,-3,-2,1,-1
13:34:33:252088,-1,-4,-6,3,2,-2,-2,-3
13:34:33:267866,-1,-4,-6,3,2,-2,-2,-3
13:34:33:268621,-1,-9,-2,-1,-1,-1,1,2
13:34:33:274591,-3,-4,-4,-11,-4,-2,-1,0
13:34:33:282890,-3,-4,-4,-11,-4,-2,-1,0
13:34:33:283607,7,24,3,1,-1,-2,1,1
13:34:33:297127,1,10,6,3,-3,-1,-1,-2
13:34:33:305337,1,10,6,3,-3,-1,-1,-2
13:34:33:306120,2,3,0,-1,-1,0,2,1
13:34:33:312107,-1,-10,-10,-4,-2,0,-1,-2
13:34:33:319627,-1,-10,-10,-4,-2,0,-1,-2
13:34:33:327093,-2,17,1,1,-5,-4,-1,-1
13:34:33:334639,1,10,6,1,-1,0,3,2
13:34:33:350396,1,10,6,1,-1,0,3,2
13:34:33:351129,-1,-16,-4,-1,-2,-2,-8,-1
13:34:33:357108,0,4,-6,-5,-4,0,10,3
13:34:33:365292,0,4,-6,-5,-4,0,10,3
13:34:33:366118,1,3,3,1,-3,-2,7,-1
13:34:33:380390,-2,-11,2,5,5,3,-5,-1
13:34:33:381113,-2,-11,2,5,5,3,-5,-1
13:34:33:387123,-3,-6,-2,-5,-3,0,4,2
13:34:33:394665,-5,-6,1,-3,-1,-2,-2,-6
13:34:33:402844,-5,-6,1,-3,-1,-2,-2,-6
13:34:33:403590,1,-1,4,7,6,3,12,3
13:34:33:426001,2,-19,-4,-3,-5,-5,-9,-1
13:34:33:426723,2,-19,-4,-3,-5,-5,-9,-1
13:34:33:427628,-9,-23,-3,1,3,2,6,0
13:34:33:432122,-3,-8,-8,-3,-2,0,-3,-5
13:34:33:439617,-3,-8,-8,-3,-2,0,-3,-5
13:34:33:447132,3,6,-4,-11,0,-1,-4,0
13:34:33:463544,-1,16,-2,-2,-4,-3,-8,-3
13:34:33:464255,-1,16,-2,-2,-4,-3,-8,-3
13:34:33:465107,-4,-10,-4,-1,-4,-2,-4,1
13:34:33:477115,3,15,-1,-2,-2,-3,-1,-2
13:34:33:485238,3,15,-1,-2,-2,-3,-1,-2
13:34:33:486123,1,13,-2,-11,-6,-3,-11,-6
13:34:33:492111,-1,2,-3,1,2,0,1,5
13:34:33:499597,-1,2,-3,1,2,0,1,5
13:34:33:507112,0,-4,3,2,-2,-2,-5,-3
13:34:33:514629,1,1,3,5,3,1,2,-1
13:34:33:522863,1,1,3,5,3,1,2,-1
13:34:33:523610,4,-1,5,1,-2,-2,-3,-1
13:34:33:537119,-1,15,3,-6,-3,-4,-4,-1
13:34:33:545373,-1,15,3,-6,-3,-4,-4,-1
13:34:33:546132,0,-9,-3,-1,1,-2,4,0
13:34:33:552114,2,-10,-2,-5,-2,-1,-7,-12
13:34:33:559627,2,-10,-2,-5,-2,-1,-7,-12
13:34:33:575259,-1,2,2,1,-3,-2,-8,-1
13:34:33:575980,-3,-19,0,0,-1,-3,13,7
13:34:33:582877,-3,-19,0,0,-1,-3,13,7
13:34:33:583623,-3,-2,-6,1,0,2,6,-1
13:34:33:597127,0,-14,-10,-1,-2,-1,-1,1
13:34:33:605259,0,-14,-10,-1,-2,-1,-1,1
13:34:33:606095,-4,-10,-5,-1,-1,-1,-8,-3
13:34:33:612119,2,4,3,3,-3,-1,1,3
13:34:33:619634,2,4,3,3,-3,-1,1,3
13:34:33:627128,0,5,2,0,1,0,3,3
13:34:33:634646,0,6,3,1,-1,-3,-7,-4
13:34:33:642850,0,6,3,1,-1,-3,-7,-4
13:34:33:643604,-3,2,3,3,2,1,3,0
13:34:33:657612,-6,-21,-10,0,2,-2,-4,-3
13:34:33:665368,-6,-21,-10,0,2,-2,-4,-3
13:34:33:666128,2,-5,-1,-2,-3,-5,-3,-4
13:34:33:672113,-2,5,3,3,3,7,6,1
13:34:33:679620,-2,5,3,3,3,7,6,1
13:34:33:687114,-1,3,-4,-2,-2,-3,-8,-8
13:34:33:694614,-3,-6,-6,-1,-1,-2,0,-2
13:34:33:702855,-3,-6,-6,-1,-1,-2,0,-2
13:34:33:703600,-2,4,-1,5,3,4,4,1
13:34:33:717112,4,17,-2,-2,-2,-1,0,1
13:34:33:725367,4,17,-2,-2,-2,-1,0,1
13:34:33:726091,0,20,3,-1,-2,-1,1,0
13:34:33:732151,-4,-4,0,-5,-2,-1,0,-1
13:34:33:739600,-4,-4,0,-5,-2,-1,0,-1
13:34:33:747143,-2,2,-1,-4,-3,-2,-3,-4
13:34:33:754631,-1,4,0,1,-1,-3,0,1
13:34:33:762762,-1,4,0,1,-1,-3,0,1
13:34:33:763614,-2,-15,-3,1,1,0,1,-1
13:34:33:777119,-3,-15,-3,-2,-2,-1,-3,-2
13:34:33:785279,-3,-15,-3,-2,-2,-1,-3,-2
13:34:33:786149,-4,-27,-7,0,-1,-1,-5,-4
13:34:33:792129,3,14,9,0,-1,0,2,2
13:34:33:799628,3,14,9,0,-1,0,2,2
13:34:33:807109,-5,-2,0,-6,-5,-3,-4,-1
13:34:33:814633,1,0,2,3,0,1,2,1
13:34:33:822724,1,0,2,3,0,1,2,1
13:34:33:823614,-1,-1,1,0,0,0,0,1
13:34:33:837120,-4,0,-3,-2,-2,1,-2,-2
13:34:33:845266,-4,0,-3,-2,-2,1,-2,-2
13:34:33:846173,-2,-17,-6,0,-2,-2,-1,0
13:34:33:852113,1,-2,1,2,2,-1,-4,-2
13:34:33:859630,1,-2,1,2,2,-1,-4,-2
13:34:33:867109,-2,1,-1,-4,-4,-1,1,0
13:34:33:874630,-1,6,6,-3,-2,0,0,-2
13:34:33:882924,-1,6,6,-3,-2,0,0,-2
13:34:33:883610,-1,4,2,6,2,-1,-2,1
13:34:33:897150,-6,0,2,0,-2,-2,-3,-4
13:34:33:905264,-6,0,2,0,-2,-2,-3,-4
13:34:33:906105,-5,-5,-7,0,2,-1,-2,0
13:34:33:912099,1,-7,-2,-4,-1,-1,1,2
13:34:33:919623,1,-7,-2,-4,-1,-1,1,2
13:34:33:927114,2,-7,-2,4,0,-1,1,-1
13:34:33:934638,1,11,-2,-2,1,0,-1,-1
13:34:33:942855,1,11,-2,-2,1,0,-1,-1
13:34:33:943601,1,-7,-7,-4,-2,0,-2,-2
13:34:33:957112,4,18,7,-1,-3,-2,0,-1
13:34:33:965417,4,18,7,-1,-3,-2,0,-1
13:34:33:966155,1,-2,-3,-5,-3,-1,-2,0
13:34:33:972125,-10,-34,-11,-5,1,-2,-4,-5
13:34:33:979684,-10,-34,-11,-5,1,-2,-4,-5
13:34:33:987133,3,26,10,-4,0,0,1,3
13:34:33:994616,3,10,3,5,-2,-2,-1,2
13:34:34:2766,3,10,3,5,-2,-2,-1,2
13:34:34:3623,-5,-9,-2,-9,3,-1,-2,-4
13:34:34:17132,1,2,3,2,2,-1,-4,-1
13:34:34:25434,1,2,3,2,2,-1,-4,-1
13:34:34:26097,6,5,1,-1,-2,0,0,0
13:34:34:32135,0,-4,6,-2,-5,-2,-1,0
13:34:34:39610,0,-4,6,-2,-5,-2,-1,0
13:34:34:47117,-8,-2,11,10,-1,-4,-5,-5
13:34:34:54646,-4,10,5,-8,-5,-2,0,-5
13:34:34:62098,-4,10,5,-8,-5,-2,0,-5
13:34:34:69660,63,19,6,-3,-1,1,2,7
13:34:34:77109,-27,-18,-18,6,10,1,-1,-4
13:34:34:85266,-27,-18,-18,6,10,1,-1,-4
13:34:34:86112,-3,-5,-8,-2,-1,-1,-1,-3
13:34:34:100309,20,16,4,-4,1,2,3,5
13:34:34:101130,20,16,4,-4,1,2,3,5
13:34:34:107100,-10,5,-13,-3,1,0,-2,-1
13:34:34:114611,-5,3,-7,-3,-5,-4,-1,0
13:34:34:122117,-5,3,-7,-3,-5,-4,-1,0
13:34:34:129622,2,2,8,1,-2,-1,-1,-1
13:34:34:137121,-22,2,1,-6,-2,-4,-6,-7
13:34:34:145396,-22,2,1,-6,-2,-4,-6,-7
13:34:34:146106,-25,0,-8,-4,-3,-4,1,-1
13:34:34:160241,17,-30,-2,1,-3,-2,1,7
13:34:34:161106,17,-30,-2,1,-3,-2,1,7
13:34:34:167151,-22,-19,-4,-1,-4,-4,-1,-4
13:34:34:174608,7,0,0,-4,2,0,7,-2
13:34:34:182148,7,0,0,-4,2,0,7,-2
13:34:34:189622,-5,0,0,-9,-4,-2,0,-2
13:34:34:197137,5,-4,-13,-28,5,4,2,7
13:34:34:205738,5,-4,-13,-28,5,4,2,7
13:34:34:212103,-18,-23,-17,-5,-5,-6,-5,-5
13:34:34:220284,4,3,1,13,3,3,0,-1
13:34:34:221117,4,3,1,13,3,3,0,-1
13:34:34:227127,-9,-9,0,-11,-14,-4,-5,-2
13:34:34:234671,16,-11,-6,0,-3,-1,-3,-4
13:34:34:242156,16,-11,-6,0,-3,-1,-3,-4
13:34:34:257747,-31,-4,6,3,-3,-2,-1,-5
13:34:34:258628,-19,-2,-3,8,1,-1,-3,1
13:34:34:265306,-19,-2,-3,8,1,-1,-3,1
13:34:34:266108,12,30,6,5,-1,0,-3,-3
13:34:34:280396,12,16,12,11,-5,-3,0,1
13:34:34:281096,12,16,12,11,-5,-3,0,1
13:34:34:287148,21,17,0,5,12,4,1,3
13:34:34:294612,-22,-38,-15,-5,-8,-5,-2,-3
13:34:34:302122,-22,-38,-15,-5,-8,-5,-2,-3
13:34:34:309608,14,7,16,-3,-3,-1,0,1
13:34:34:317173,5,2,8,4,0,0,-1,-2
13:34:34:325239,5,2,8,4,0,0,-1,-2
13:34:34:326126,-49,-6,-1,-2,2,0,1,4
13:34:34:340248,4,-30,-12,-4,-5,-4,-4,-9
13:34:34:341108,4,-30,-12,-4,-5,-4,-4,-9
13:34:34:347149,14,-32,-6,0,-5,-4,-2,4
13:34:34:354634,-1,14,5,9,3,-1,-4,-7
13:34:34:362145,-1,14,5,9,3,-1,-4,-7
13:34:34:369622,16,-21,-11,-2,6,6,7,4
13:34:34:377123,-20,12,1,-9,0,1,-2,-5
13:34:34:385267,-20,12,1,-9,0,1,-2,-5
13:34:34:386111,-4,12,5,4,0,-2,-1,-2
13:34:34:400248,-1,8,-6,-5,2,2,2,4
13:34:34:401105,-1,8,-6,-5,2,2,2,4
13:34:34:407124,1,-15,-16,-4,1,1,0,0
13:34:34:414657,5,0,4,5,0,0,-2,3
13:34:34:422122,5,0,4,5,0,0,-2,3
13:34:34:429649,-4,-5,11,1,-2,-2,-2,-5
13:34:34:437126,-31,-6,-5,-1,-6,-3,-2,-5
13:34:34:445116,-31,-6,-5,-1,-6,-3,-2,-5
13:34:34:452161,-3,9,6,0,-2,-4,-5,-3
13:34:34:460245,7,-10,-7,-2,-2,-1,10,9
13:34:34:461107,7,-10,-7,-2,-2,-1,10,9
13:34:34:467140,-14,-2,-6,-1,2,2,-1,-1
13:34:34:474604,14,24,0,2,-2,-6,-2,0
13:34:34:482164,14,24,0,2,-2,-6,-2,0
13:34:34:489628,9,-42,-27,-4,2,3,3,-4
13:34:34:497131,2,-6,-5,-1,2,-3,-5,-1
13:34:34:505310,2,-6,-5,-1,2,-3,-5,-1
13:34:34:506118,5,13,9,2,-4,-1,-2,-2
13:34:34:520256,-7,1,7,-3,0,2,1,-2
13:34:34:521102,-7,1,7,-3,0,2,1,-2
13:34:34:527127,4,15,1,-1,-1,-1,0,1
13:34:34:534637,5,15,7,6,-3,0,-5,-2
13:34:34:542112,5,15,7,6,-3,0,-5,-2
13:34:34:549676,16,21,2,1,-3,-5,3,2
13:34:34:557103,-9,-37,-11,1,1,1,-2,-5
13:34:34:565289,-9,-37,-11,1,1,1,-2,-5
13:34:34:566110,12,10,6,-3,1,4,5,-1
13:34:34:580264,-8,-15,-2,-2,-2,0,7,3
13:34:34:581113,-8,-15,-2,-2,-2,0,7,3
13:34:34:587126,6,-5,1,-5,3,-2,-1,-2
13:34:34:594631,11,43,10,0,-2,5,-3,-4
13:34:34:602163,11,43,10,0,-2,5,-3,-4
13:34:34:609636,-6,6,-2,-7,-5,-1,-10,-3
13:34:34:617154,-16,17,-3,-13,4,-2,-6,-3
13:34:34:625398,-16,17,-3,-13,4,-2,-6,-3
13:34:34:626119,-11,1,0,8,1,0,1,-3
13:34:34:640241,-3,-11,-3,-1,-2,-1,-9,-1
13:34:34:641110,-3,-11,-3,-1,-2,-1,-9,-1
13:34:34:647129,-5,9,4,-2,-2,0,-1,1
13:34:34:654607,-2,-8,0,-1,-1,-2,-6,-1
13:34:34:662153,-2,-8,0,-1,-1,-2,-6,-1
13:34:34:669613,9,-20,1,2,-4,-2,-4,-2
13:34:34:677128,-3,9,8,-5,-4,-5,-6,-6
13:34:34:685368,-3,9,8,-5,-4,-5,-6,-6
13:34:34:686110,-6,5,0,8,2,-3,-1,4
13:34:34:700302,12,-7,6,-2,-4,-4,0,-3
13:34:34:701109,12,-7,6,-2,-4,-4,0,-3
13:34:34:707114,-12,-11,-7,-8,1,-4,-5,-4
13:34:34:714659,4,12,11,5,-1,-2,18,5
13:34:34:722131,4,12,11,5,-1,-2,18,5
13:34:34:729689,-3,-27,-25,5,-1,-4,-7,-2
13:34:34:737175,12,11,2,3,0,-2,-5,1
13:34:34:745262,12,11,2,3,0,-2,-5,1
13:34:34:746129,9,9,2,2,-2,-9,-13,-1
13:34:34:760268,12,-4,-6,2,2,2,3,4
13:34:34:761132,12,-4,-6,2,2,2,3,4
13:34:34:767133,4,-18,-9,0,-2,1,-2,-5
13:34:34:774625,-27,9,3,-1,-4,2,-3,-7
13:34:34:782140,-27,9,3,-1,-4,2,-3,-7
13:34:34:789620,-9,6,10,-5,-6,-2,2,-6
13:34:34:797127,6,14,-13,-10,-2,-2,-3,-1
13:34:34:805234,6,14,-13,-10,-2,-2,-3,-1
13:34:34:806112,4,7,7,-1,4,4,3,-2
13:34:34:820280,-2,0,-2,-2,-1,-4,-3,-3
13:34:34:821129,-2,0,-2,-2,-1,-4,-3,-3
13:34:34:827147,10,-11,4,-5,-5,-5,-3,7
13:34:34:834669,-26,-16,-3,4,2,0,4,1
13:34:34:850382,-26,-16,-3,4,2,0,4,1
13:34:34:851154,-13,-4,2,1,-1,1,-2,-5
13:34:34:857100,14,14,4,1,1,2,0,0
13:34:34:865275,14,14,4,1,1,2,0,0
13:34:34:866124,-1,19,10,0,3,5,5,1
13:34:34:880424,15,-8,-12,-2,-2,1,3,4
13:34:34:881117,15,-8,-12,-2,-2,1,3,4
13:34:34:887122,10,2,-3,3,0,0,-7,-14
13:34:34:894638,-46,-26,2,10,9,7,-8,-12
13:34:34:902122,-46,-26,2,10,9,7,-8,-12
13:34:34:909607,-31,-15,1,0,-1,-2,-1,-1
13:34:34:917124,6,-5,-7,-12,-4,-4,-6,-5
13:34:34:925236,6,-5,-7,-12,-4,-4,-6,-5
13:34:34:926114,0,22,15,1,-3,-2,13,6
13:34:34:940265,11,20,8,-1,-2,-4,0,2
13:34:34:941117,11,20,8,-1,-2,-4,0,2
13:34:34:947129,9,-48,-15,-10,5,-1,-1,-3
13:34:34:954651,0,-25,-29,-10,-10,-11,-4,-3
13:34:34:962115,0,-25,-29,-10,-10,-11,-4,-3
13:34:34:969625,-4,16,-3,9,3,4,11,7
13:34:34:977135,22,5,12,4,-1,1,3,5
13:34:34:985266,22,5,12,4,-1,1,3,5
13:34:34:986117,8,-6,-13,-9,-5,-6,-11,-1
13:34:35:260,-5,22,-8,1,0,-1,11,-1
13:34:35:1124,-5,22,-8,1,0,-1,11,-1
13:34:35:7135,-3,-14,-10,-11,0,-3,-3,1
13:34:35:22774,13,6,-3,6,3,-1,-5,1
13:34:35:23644,13,6,-3,6,3,-1,-5,1
13:34:35:29621,10,25,4,4,1,0,-3,-3
13:34:35:37138,13,11,-4,-18,-1,1,-2,-5
13:34:35:44627,13,11,-4,-18,-1,1,-2,-5
13:34:35:52133,-33,-5,5,-5,-6,-1,-1,4
13:34:35:60247,-11,-30,0,-1,-6,-12,0,10
13:34:35:61120,-11,-30,0,-1,-6,-12,0,10
13:34:35:67172,-2,-36,11,6,0,1,0,-1
13:34:35:82795,-12,-16,1,3,3,4,-4,-8
13:34:35:83635,-12,-16,1,3,3,4,-4,-8
13:34:35:89637,2,28,9,8,4,1,7,7
13:34:35:97132,-2,4,4,4,3,2,7,2
13:34:35:104631,-2,4,4,4,3,2,7,2
13:34:35:112116,-4,-7,-6,-4,7,4,0,-6
13:34:35:120256,1,-38,-8,-1,-10,-3,-3,-1
13:34:35:121108,1,-38,-8,-1,-10,-3,-3,-1
13:34:35:127130,5,0,-23,2,0,2,-4,-5
13:34:35:142755,2,-14,-5,0,0,-9,-10,-8
13:34:35:143619,2,-14,-5,0,0,-9,-10,-8
13:34:35:149651,12,17,8,0,-9,-8,-3,2
13:34:35:157136,3,7,17,4,-7,0,-3,-2
13:34:35:164682,3,7,17,4,-7,0,-3,-2
13:34:35:172141,25,6,-16,-7,2,0,-1,5
13:34:35:180413,-26,43,4,-4,-4,-3,0,-6
13:34:35:181116,-26,43,4,-4,-4,-3,0,-6
13:34:35:187134,4,6,-4,3,3,5,5,-3
13:34:35:202774,-1,-22,-22,6,6,3,-2,-1
13:34:35:203633,-1,-22,-22,6,6,3,-2,-1
13:34:35:209640,5,17,10,0,-9,-3,-10,4
13:34:35:217142,21,18,-8,-3,-5,0,-16,4
13:34:35:224643,21,18,-8,-3,-5,0,-16,4
13:34:35:232123,-27,7,5,-4,-3,-5,-7,-7
13:34:35:240244,-16,-29,-14,-5,12,8,8,2
13:34:35:241110,-16,-29,-14,-5,12,8,8,2
13:34:35:247118,-30,21,12,9,2,-2,-4,-18
13:34:35:262757,14,12,-2,-9,-6,1,-10,-7
13:34:35:263620,14,12,-2,-9,-6,1,-10,-7
13:34:35:269648,-43,-25,-5,0,-1,1,5,3
13:34:35:277129,-4,-13,8,1,-5,-8,-10,-11
13:34:35:284648,-4,-13,8,1,-5,-8,-10,-11
13:34:35:292135,21,23,0,-1,-1,1,4,4
13:34:35:300278,-22,-21,-6,6,-1,-2,5,0
13:34:35:301115,-22,-21,-6,6,-1,-2,5,0
13:34:35:307130,29,-16,-4,-8,-6,-2,-6,1
13:34:35:322777,0,0,-15,5,-5,-5,1,0
13:34:35:323624,0,0,-15,5,-5,-5,1,0
13:34:35:329645,-6,6,1,-8,-10,-8,-17,-6
13:34:35:337163,2,-32,2,4,11,8,10,2
13:34:35:344647,2,-32,2,4,11,8,10,2
13:34:35:352121,-16,-19,6,-25,-1,-3,4,-1
13:34:35:360001,2,-11,-27,-4,1,0,5,-1
13:34:35:367775,2,-11,-27,-4,1,0,5,-1
13:34:35:368667,-26,-22,-8,0,-6,-6,-3,-4
13:34:35:382799,0,22,14,0,-6,-7,-16,0
13:34:35:383643,0,22,14,0,-6,-7,-16,0
13:34:35:389632,-19,-26,-8,12,3,8,20,0
13:34:35:397119,11,8,8,-3,-3,-1,7,-2
13:34:35:404638,11,8,8,-3,-3,-1,7,-2
13:34:35:412109,18,-13,-4,10,6,2,0,-5
13:34:35:420243,-13,-8,9,2,-1,-4,-2,5
13:34:35:421110,-13,-8,9,2,-1,-4,-2,5
13:34:35:427130,39,15,-8,-1,-2,-5,0,3
13:34:35:442764,15,13,13,-2,2,5,8,2
13:34:35:443631,15,13,13,-2,2,5,8,2
13:34:35:449641,-18,-30,-16,3,-1,-2,-3,-9
13:34:35:457118,8,18,5,0,-2,1,7,8
13:34:35:464630,8,18,5,0,-2,1,7,8
13:34:35:472139,30,22,26,15,10,6,-7,1
13:34:35:480276,-1,-8,-2,-1,7,7,9,2
13:34:35:481121,-1,-8,-2,-1,7,7,9,2
13:34:35:487148,-17,-27,-24,-9,-6,-3,-9,-3
13:34:35:502812,-10,-13,-24,-33,-1,-3,-3,0
13:34:35:503632,-10,-13,-24,-33,-1,-3,-3,0
13:34:35:509630,4,15,4,1,-6,-4,9,4
13:34:35:517142,-8,-1,1,4,-4,-7,0,-2
13:34:35:524608,-8,-1,1,4,-4,-7,0,-2
13:34:35:532124,-21,-24,-4,3,5,2,-8,-8
13:34:35:540247,2,9,-5,1,-3,-6,-17,-22
13:34:35:541116,2,9,-5,1,-3,-6,-17,-22
13:34:35:546985,12,-3,6,-9,-11,0,1,-5
13:34:35:562745,19,18,16,-2,-6,-1,2,19
13:34:35:563657,19,18,16,-2,-6,-1,2,19
13:34:35:577746,13,6,4,2,1,-1,-2,0
13:34:35:578655,-19,-14,-1,5,-4,5,7,8
13:34:35:584662,-19,-14,-1,5,-4,5,7,8
13:34:35:592150,-5,-7,-20,-8,-7,-3,3,2
13:34:35:600257,15,25,32,14,7,2,10,3
13:34:35:601120,15,25,32,14,7,2,10,3
13:34:35:607130,2,-16,-7,-12,1,-2,-16,1
13:34:35:622769,3,-2,-21,-7,-1,-1,-4,-7
13:34:35:623614,3,-2,-21,-7,-1,-1,-4,-7
13:34:35:629640,-44,-16,15,8,7,3,5,-2
13:34:35:637128,-26,10,0,-5,3,-4,-4,-5
13:34:35:644620,-26,10,0,-5,3,-4,-4,-5
13:34:35:652155,21,24,15,0,1,2,-2,5
13:34:35:660264,-1,17,8,6,-6,-2,1,-4
13:34:35:661142,-1,17,8,6,-6,-2,1,-4
13:34:35:667054,23,29,-7,-14,-3,-3,6,7
13:34:35:682770,11,-1,3,9,1,5,-2,0
13:34:35:683625,11,-1,3,9,1,5,-2,0
13:34:35:689639,6,2,12,20,5,-4,-2,-1
13:34:35:697145,-8,-55,-25,-9,0,3,3,-1
13:34:35:704628,-8,-55,-25,-9,0,3,3,-1
13:34:35:712132,-36,-35,-21,-3,-4,-2,7,-4
13:34:35:720265,-5,-11,-10,1,-7,-6,-10,-6
13:34:35:721113,-5,-11,-10,1,-7,-6,-10,-6
13:34:35:727123,21,49,9,1,3,5,3,-15
13:34:35:742749,14,-12,-2,-6,0,-2,10,-1
13:34:35:743656,14,-12,-2,-6,0,-2,10,-1
13:34:35:749682,-17,19,4,-3,-6,-7,-8,-5
13:34:35:756986,-12,23,2,-6,-5,-4,0,0
13:34:35:764613,-12,23,2,-6,-5,-4,0,0
13:34:35:772125,-5,-35,-15,-7,2,5,18,4
13:34:35:780263,11,-7,19,2,-2,-2,1,7
13:34:35:781142,11,-7,19,2,-2,-2,1,7
13:34:35:787132,-1,12,-47,-16,-6,-2,-12,0
13:34:35:802772,-38,-1,9,-1,0,1,-7,-5
13:34:35:803626,-38,-1,9,-1,0,1,-7,-5
13:34:35:809633,-5,-9,11,-1,-2,-6,-3,0
13:34:35:817151,12,56,18,3,1,2,-16,2
13:34:35:824636,12,56,18,3,1,2,-16,2
13:34:35:832164,6,-59,-18,-5,0,0,-13,-18
13:34:35:840247,4,-7,2,-1,-3,-3,-8,-6
13:34:35:841132,4,-7,2,-1,-3,-3,-8,-6
13:34:35:854625,-5,15,9,5,0,-2,-2,7
13:34:35:862742,-21,-33,-24,-6,-6,-8,-13,-7
13:34:35:863630,-21,-33,-24,-6,-6,-8,-13,-7
13:34:35:869623,-4,52,9,0,3,1,-2,0
13:34:35:877119,3,13,-11,3,14,2,0,3
13:34:35:884668,3,13,-11,3,14,2,0,3
13:34:35:892118,47,64,10,10,6,3,9,10
13:34:35:900291,11,22,19,8,-1,4,18,-1
13:34:35:901118,11,22,19,8,-1,4,18,-1
13:34:35:907129,18,-43,2,-1,-3,-7,14,10
13:34:35:922756,14,7,16,0,-3,-5,-3,10
13:34:35:923627,14,7,16,0,-3,-5,-3,10
13:34:35:937761,-34,10,-15,-15,-10,-7,-9,3
13:34:35:938617,10,-27,-15,1,-1,1,6,-3
13:34:35:944636,10,-27,-15,1,-1,1,6,-3
13:34:35:952125,29,22,17,5,8,1,3,0
13:34:35:960236,-5,2,3,-6,-2,1,-23,1
13:34:35:961112,-5,2,3,-6,-2,1,-23,1
13:34:35:967197,-19,-50,-9,-4,-3,5,-2,-8
13:34:35:982789,-9,-25,-4,3,3,11,14,1
13:34:35:983653,-9,-25,-4,3,3,11,14,1
13:34:35:989627,-4,1,13,4,-2,-2,23,8
13:34:36:5258,1,38,-6,-11,-9,-9,-1,-1
13:34:36:6131,1,38,-6,-11,-9,-9,-1,-1
13:34:36:12123,-27,-29,-7,3,-1,3,4,-6
13:34:36:20272,4,-7,-1,-10,-8,-6,-1,-5
13:34:36:21142,4,-7,-1,-10,-8,-6,-1,-5
13:34:36:34698,11,50,9,-7,-3,1,-8,1
13:34:36:42754,-16,-23,-5,-2,0,-8,-5,-11
13:34:36:43621,-16,-23,-5,-2,0,-8,-5,-11
13:34:36:49639,5,-69,-20,-12,-8,-7,-22,0
13:34:36:65283,11,-5,5,8,-5,-1,7,5
13:34:36:66132,11,-5,5,8,-5,-1,7,5
13:34:36:72133,4,25,21,1,1,2,1,4
13:34:36:80250,-5,-1,-18,-2,2,-1,-12,-3
13:34:36:81133,-5,-1,-18,-2,2,-1,-12,-3
13:34:36:94639,-15,19,13,10,1,-1,-11,0
13:34:36:102758,-21,-42,-13,-14,-6,0,3,0
13:34:36:103626,-21,-42,-13,-14,-6,0,3,0
13:34:36:109638,-9,-3,-8,-11,0,-1,-8,0
13:34:36:126403,-9,-3,-8,-11,0,-1,-8,0
13:34:36:141627,-11,0,-3,6,-1,-4,-9,-1
13:34:36:142396,4,23,-4,9,-8,-6,-3,0
13:34:36:143255,4,23,-4,9,-8,-6,-3,0
13:34:36:144005,24,9,4,3,1,-2,2,4
13:34:36:154641,-8,-28,-13,-3,-1,-2,-1,-7
13:34:36:162796,-8,-28,-13,-3,-1,-2,-1,-7
13:34:36:163645,-7,-4,-7,-1,7,8,7,-6
13:34:36:169664,10,49,18,3,0,0,8,1
13:34:36:185416,10,49,18,3,0,0,8,1
13:34:36:186122,-17,-7,1,12,-8,-6,-1,8
13:34:36:192117,32,1,4,1,-5,-2,-3,-1
13:34:36:200264,32,1,4,1,-5,-2,-3,-1
13:34:36:201128,12,11,13,-3,-5,-2,5,1
13:34:36:215030,-19,-10,11,2,9,6,-1,3
13:34:36:222750,-19,-10,11,2,9,6,-1,3
13:34:36:223641,26,-35,6,-6,4,0,-9,-3
13:34:36:229640,-3,6,22,18,4,1,7,-10
13:34:36:245403,-3,6,22,18,4,1,7,-10
13:34:36:246162,-2,-11,-34,-8,-1,-3,-4,-10
13:34:36:252143,-14,20,-4,-4,7,4,8,-1
13:34:36:260243,-14,20,-4,-4,7,4,8,-1
13:34:36:261130,24,41,15,11,6,-1,-10,2
13:34:36:274699,6,17,-9,-5,-5,4,7,7
13:34:36:282930,6,17,-9,-5,-5,4,7,7
13:34:36:283640,14,23,-3,-18,-5,-9,-2,-5
13:34:36:289632,-14,-28,-34,-9,0,-3,-10,-4
13:34:36:305301,-14,-28,-34,-9,0,-3,-10,-4
13:34:36:306133,-12,-2,0,-2,-10,-4,4,2
13:34:36:312128,20,-10,15,-11,-5,-4,-1,-4
13:34:36:320394,20,-10,15,-11,-5,-4,-1,-4
13:34:36:321126,-29,-74,-14,-4,-6,-1,0,-8
13:34:36:334711,24,-21,-17,-2,-2,-2,-3,2
13:34:36:342766,24,-21,-17,-2,-2,-2,-3,2
13:34:36:343632,-46,-13,2,-18,-1,-4,5,-10
13:34:36:349647,0,-32,-9,-1,-1,-3,6,-1
13:34:36:365269,0,-32,-9,-1,-1,-3,6,-1
13:34:36:366131,34,41,5,-2,-4,3,10,6
13:34:36:372132,-20,22,-7,1,8,-4,-5,-4
13:34:36:380393,-20,22,-7,1,8,-4,-5,-4
13:34:36:381130,1,19,-8,12,5,0,-5,-1
13:34:36:394645,-36,69,29,6,-4,-1,-13,8
13:34:36:402787,-36,69,29,6,-4,-1,-13,8
13:34:36:403657,-1,-17,-2,-7,-3,-2,-8,-2
13:34:36:409629,13,-12,9,9,-7,1,-3,-2
13:34:36:425304,13,-12,9,9,-7,1,-3,-2
13:34:36:426135,-6,117,21,24,5,4,12,10
13:34:36:432053,22,-7,0,-16,0,-5,-6,-2
13:34:36:440280,22,-7,0,-16,0,-5,-6,-2
13:34:36:441143,-39,-25,8,3,0,2,2,-11
13:34:36:454634,-17,-51,-13,-5,-1,0,-7,-8
13:34:36:462769,-17,-51,-13,-5,-1,0,-7,-8
13:34:36:463636,0,-9,0,-4,-3,-2,4,11
13:34:36:469683,15,30,3,4,-6,-9,-8,0
13:34:36:493570,15,30,3,4,-6,-9,-8,0
13:34:36:494274,3,-25,4,-9,1,4,2,7
13:34:36:495147,-67,-23,-22,-5,-4,-5,3,-14
13:34:36:500291,-67,-23,-22,-5,-4,-5,3,-14
13:34:36:501125,-1,54,15,4,0,-8,-17,-4
13:34:36:514641,17,-9,7,3,1,10,15,-3
13:34:36:522756,17,-9,7,3,1,10,15,-3
13:34:36:523632,3,-23,7,-1,1,4,4,-16
13:34:36:529658,-5,59,-16,-10,-6,-5,-14,-7
13:34:36:545426,-5,59,-16,-10,-6,-5,-14,-7
13:34:36:546166,30,-33,-3,-2,8,0,-14,0
13:34:36:552172,9,-8,9,8,-2,2,8,-7
13:34:36:560279,9,-8,9,8,-2,2,8,-7
13:34:36:561124,7,-25,-12,0,-2,-2,-1,0
13:34:36:574666,17,-17,5,-1,-1,-4,-6,8
13:34:36:591012,17,-17,5,-1,-1,-4,-6,8
13:34:36:591742,-6,-43,-33,4,3,2,7,-2
13:34:36:592668,26,-40,-16,-1,-2,0,-6,6
13:34:36:605275,26,-40,-16,-1,-2,0,-6,6
13:34:36:606132,-13,6,-11,-3,-5,-4,-3,-5
13:34:36:612068,10,34,-16,0,-7,0,6,0
13:34:36:620271,10,34,-16,0,-7,0,6,0
13:34:36:621133,22,60,6,-4,-1,3,-2,13
13:34:36:634649,10,-35,6,-5,4,8,6,-9
13:34:36:642654,10,-35,6,-5,4,8,6,-9
13:34:36:650282,-8,-9,-2,2,-3,-10,4,-10
13:34:36:651021,-25,-2,-14,-2,7,9,17,-10
13:34:36:665326,-25,-2,-14,-2,7,9,17,-10
13:34:36:666159,-9,-29,8,-2,-4,-4,-12,-11
13:34:36:672038,0,-13,0,-5,0,-2,-6,-4
13:34:36:680306,0,-13,0,-5,0,-2,-6,-4
13:34:36:681130,-29,-18,-3,-17,-10,0,-7,3
13:34:36:694700,-13,-44,-5,2,6,3,-1,3
13:34:36:702768,-13,-44,-5,2,6,3,-1,3
13:34:36:703636,-18,-43,12,13,0,-13,3,1
13:34:36:709646,-10,-32,-2,-4,-8,-7,6,-22
13:34:36:725293,-10,-32,-2,-4,-8,-7,6,-22
13:34:36:726140,53,25,7,4,3,-5,-4,6
13:34:36:732239,-62,-13,8,16,-2,-8,-29,9
13:34:36:740262,-62,-13,8,16,-2,-8,-29,9
13:34:36:741132,5,-28,-16,4,0,0,-8,-5
13:34:36:755133,16,32,9,1,3,-4,6,5
13:34:36:762758,16,32,9,1,3,-4,6,5
13:34:36:763643,-2,17,12,1,-1,8,3,-2
13:34:36:769660,14,-16,23,7,0,-1,5,4
13:34:36:785284,14,-16,23,7,0,-1,5,4
13:34:36:786148,23,40,-2,-7,1,-1,-3,7
13:34:36:792135,4,60,5,-1,-1,-4,-11,13
13:34:36:800351,4,60,5,-1,-1,-4,-11,13
13:34:36:801152,25,18,-18,-3,-4,4,-1,3
13:34:36:814689,18,28,10,-11,-8,-6,0,13
13:34:36:822787,18,28,10,-11,-8,-6,0,13
13:34:36:823660,-12,22,-13,-24,-5,6,-11,-8
13:34:36:829650,5,-72,-5,-8,-1,9,4,2
13:34:36:845302,5,-72,-5,-8,-1,9,4,2
13:34:36:846149,-12,1,-19,-7,18,12,-1,6
13:34:36:852151,15,9,-1,-6,-4,-3,-2,-7
13:34:36:867772,15,9,-1,-6,-4,-3,-2,-7
13:34:36:868646,-4,0,-7,8,0,-1,3,-3
13:34:36:874644,-19,12,-11,2,-4,-18,-2,-20
13:34:36:882934,-19,12,-11,2,-4,-18,-2,-20
13:34:36:883644,-32,18,29,11,2,-1,16,8
13:34:36:889661,-24,-26,-22,-13,-8,-9,-9,-5
13:34:36:905298,-24,-26,-22,-13,-8,-9,-9,-5
13:34:36:906167,-1,-39,-34,-7,-14,-6,-9,-4
13:34:36:912162,20,-13,1,-14,0,-3,0,7
13:34:36:919631,20,-13,1,-14,0,-3,0,7
13:34:36:927141,5,-5,10,8,0,5,20,5
13:34:36:934771,-29,-34,-31,13,20,14,3,4
13:34:36:942753,-29,-34,-31,13,20,14,3,4
13:34:36:943643,20,23,22,10,-2,-5,3,0
13:34:36:966059,31,33,-4,1,3,10,12,4
13:34:36:966795,31,33,-4,1,3,10,12,4
13:34:36:967656,-26,-45,-13,12,4,-3,-2,-1
13:34:36:972136,3,37,16,0,-7,-3,-1,-5
13:34:36:979670,3,37,16,0,-7,-3,-1,-5
13:34:36:987132,-19,5,2,-13,-6,-2,1,-3
13:34:36:994625,-8,6,3,7,-3,3,-1,7
13:34:37:2897,-8,6,3,7,-3,3,-1,7
13:34:37:3654,8,-23,17,-2,-4,-7,-11,-2
13:34:37:17182,4,-49,-8,-19,-2,-2,6,-9
13:34:37:25273,4,-49,-8,-19,-2,-2,6,-9
13:34:37:26149,-25,-60,-22,-15,-5,-3,-2,-12
13:34:37:32193,-19,-42,13,17,8,-8,-4,-3
13:34:37:47879,-19,-42,13,17,8,-8,-4,-3
13:34:37:48669,-7,-18,-9,0,2,-3,1,1
13:34:37:54688,12,24,3,6,4,-2,-4,7
13:34:37:62820,12,24,3,6,4,-2,-4,7
13:34:37:63648,15,15,-10,-3,-7,-5,15,2
13:34:37:77020,-1,12,-17,-6,-6,4,-1,0
13:34:37:85266,-1,12,-17,-6,-6,4,-1,0
13:34:37:86144,17,34,9,9,3,10,-5,0
13:34:37:92173,-1,39,29,-8,-6,-4,-3,6
13:34:37:99710,-1,39,29,-8,-6,-4,-3,6
13:34:37:107162,-1,-2,22,-4,7,1,2,4
13:34:37:114690,5,18,-5,6,-6,0,-14,6
13:34:37:122898,5,18,-5,6,-6,0,-14,6
13:34:37:123645,0,-55,-32,-15,-6,-8,-9,-18
13:34:37:137156,-13,-51,-40,-24,-8,3,8,-6
13:34:37:145291,-13,-51,-40,-24,-8,3,8,-6
13:34:37:146155,8,67,15,14,8,6,10,3
13:34:37:152196,10,1,11,4,-5,-13,-16,0
13:34:37:159636,10,1,11,4,-5,-13,-16,0
13:34:37:167165,-21,-3,21,2,3,-1,-23,-10
13:34:37:174643,-23,3,20,4,1,-1,-19,-3
13:34:37:182789,-23,3,20,4,1,-1,-19,-3
13:34:37:183669,4,13,15,-19,7,5,6,2
13:34:37:197152,0,-37,-7,-3,-3,-7,20,-14
13:34:37:205287,0,-37,-7,-3,-3,-7,20,-14
13:34:37:206137,19,48,12,8,-11,-8,-15,2
13:34:37:212141,11,38,6,-1,2,5,0,7
13:34:37:219637,11,38,6,-1,2,5,0,7
13:34:37:227010,-2,-20,-1,7,0,7,18,7
13:34:37:243406,-2,53,21,-2,1,2,-8,-2
13:34:37:244270,-2,53,21,-2,1,2,-8,-2
13:34:37:245007,6,37,6,-7,-5,-9,-7,-2
13:34:37:266059,13,-48,-36,-7,3,7,26,-9
13:34:37:266800,13,-48,-36,-7,3,7,26,-9
13:34:37:267655,-21,-84,-7,2,-4,2,-3,-2
13:34:37:272161,45,20,39,18,0,-4,-4,21
13:34:37:279687,45,20,39,18,0,-4,-4,21
13:34:37:287170,-14,-66,-24,-3,0,-2,0,3
13:34:37:294652,-9,25,-7,7,-4,-5,-8,1
13:34:37:302781,-9,25,-7,7,-4,-5,-8,1
13:34:37:303650,-4,19,-7,12,-2,-4,-12,10
13:34:37:326020,-23,-61,-6,-3,-7,-6,-6,-2
13:34:37:326764,-23,-61,-6,-3,-7,-6,-6,-2
13:34:37:327669,-3,56,12,10,3,3,6,-6
13:34:37:332184,-6,-20,-22,5,3,-1,-4,-10
13:34:37:339665,-6,-20,-22,5,3,-1,-4,-10
13:34:37:347188,-1,1,24,0,-6,-5,4,-8
13:34:37:354650,7,33,0,-7,-3,-11,-9,-7
13:34:37:362785,7,33,0,-7,-3,-11,-9,-7
13:34:37:363650,6,-3,-3,-2,0,0,-3,-10
13:34:37:377147,-3,24,0,-3,6,8,14,-4
13:34:37:385412,-3,24,0,-3,6,8,14,-4
13:34:37:386137,20,-12,-16,-11,-4,5,7,4
13:34:37:392130,19,7,5,-6,-4,-4,-10,-2
13:34:37:399696,19,7,5,-6,-4,-4,-10,-2
13:34:37:407150,-16,-23,-18,-5,3,-10,-6,-5
13:34:37:414653,5,-13,-18,-9,-8,-2,5,11
13:34:37:422784,5,-13,-18,-9,-8,-2,5,11
13:34:37:423636,-14,-21,-13,-10,5,5,3,-11
13:34:37:437176,13,18,1,0,-3,5,6,3
13:34:37:445280,13,18,1,0,-3,5,6,3
13:34:37:446154,-5,-7,7,4,12,4,3,-9
13:34:37:452139,-41,6,9,4,2,-5,-8,3
13:34:37:459647,-41,6,9,4,2,-5,-8,3
13:34:37:467047,12,70,6,-11,-3,1,2,9
13:34:37:474665,5,-38,-3,-8,0,4,0,-1
13:34:37:482787,5,-38,-3,-8,0,4,0,-1
13:34:37:483644,7,21,10,6,-12,-5,-4,5
13:34:37:497152,-9,42,7,2,1,3,-1,9
13:34:37:505310,-9,42,7,2,1,3,-1,9
13:34:37:506143,10,2,5,-12,-23,-19,-19,-4
13:34:37:520267,4,-28,-17,1,-2,5,8,-7
13:34:37:521132,4,-28,-17,1,-2,5,8,-7
13:34:37:527025,37,-56,-36,4,-2,0,-1,1
13:34:37:543402,-20,6,8,-14,-1,1,-17,-11
13:34:37:544277,-20,6,8,-14,-1,1,-17,-11
13:34:37:545014,-7,14,3,4,0,1,19,4
13:34:37:557024,33,-12,-27,9,8,4,13,9
13:34:37:565338,33,-12,-27,9,8,4,13,9
13:34:37:566176,-28,-10,12,0,-4,-7,-10,-7
13:34:37:572145,-11,36,-16,0,-2,5,30,8
13:34:37:587775,-11,36,-16,0,-2,5,30,8
13:34:37:588637,11,21,5,-5,6,4,19,5
13:34:37:594686,-2,-34,-42,-17,-6,-11,-6,-9
13:34:37:602804,-2,-34,-42,-17,-6,-11,-6,-9
13:34:37:603643,-11,2,-3,-4,2,-4,-24,-3
13:34:37:617042,-79,-17,23,1,-2,-5,-6,-27
13:34:37:625275,-79,-17,23,1,-2,-5,-6,-27
13:34:37:626146,-19,36,20,-3,-2,3,0,1
13:34:37:632162,-3,-62,-14,-16,-12,-5,3,-6
13:34:37:639662,-3,-62,-14,-16,-12,-5,3,-6
13:34:37:647190,24,-3,-8,17,4,4,-5,3
13:34:37:654657,-8,41,23,8,2,-16,-10,2
13:34:37:662759,-8,41,23,8,2,-16,-10,2
13:34:37:663644,-15,21,-15,-3,0,7,-6,5
13:34:37:677139,25,44,46,19,11,6,-10,5
13:34:37:685313,25,44,46,19,11,6,-10,5
13:34:37:686140,-19,-41,-14,0,12,-1,-8,-2
13:34:37:692145,31,2,10,14,-5,-11,-12,8
13:34:37:699651,31,2,10,14,-5,-11,-12,8
13:34:37:707147,-14,-33,-13,0,-8,-3,-6,-2
13:34:37:714641,12,39,8,-3,-1,7,2,-9
13:34:37:722769,12,39,8,-3,-1,7,2,-9
13:34:37:723654,-12,-34,-7,-4,-5,-6,-11,-7
13:34:37:737139,0,8,-15,-18,-8,-9,0,-4
13:34:37:745278,0,8,-15,-18,-8,-9,0,-4
13:34:37:746155,1,56,16,3,14,10,4,-20
13:34:37:752178,1,-4,13,8,2,0,-12,-8
13:34:37:759662,1,-4,13,8,2,0,-12,-8
13:34:37:767141,-9,18,-29,-14,-10,-12,12,0
13:34:37:774646,-29,-13,2,17,11,12,5,6
13:34:37:782811,-29,-13,2,17,11,12,5,6
13:34:37:783658,17,38,18,4,1,-14,-12,-4
13:34:37:797187,-14,-30,-70,-28,-6,-4,-2,-10
13:34:37:805305,-14,-30,-70,-28,-6,-4,-2,-10
13:34:37:806154,-5,-5,0,-1,1,10,29,11
13:34:37:820283,25,-4,8,5,6,5,2,-2
13:34:37:821135,25,-4,8,5,6,5,2,-2
13:34:37:827024,4,-42,-16,-5,-2,-10,-17,-5
13:34:37:834694,-31,-24,-24,-18,-14,-8,-8,7
13:34:37:842775,-31,-24,-24,-18,-14,-8,-8,7
13:34:37:843641,-2,-18,-14,-2,-8,-6,7,6
13:34:37:857148,-7,-45,-47,-14,-3,-2,-5,-5
13:34:37:865301,-7,-45,-47,-14,-3,-2,-5,-5
13:34:37:866161,6,-16,-9,-3,-4,-8,3,9
13:34:37:880272,11,5,17,-4,0,3,17,2
13:34:37:881143,11,5,17,-4,0,3,17,2
13:34:37:887150,-1,-11,20,11,9,4,-10,-10
13:34:37:902798,3,25,6,9,1,6,6,9
13:34:37:903658,3,25,6,9,1,6,6,9
13:34:37:909678,14,-18,-3,-7,-4,-1,-9,12
13:34:37:917173,13,31,40,8,2,-4,-11,4
13:34:37:925270,13,31,40,8,2,-4,-11,4
13:34:37:926016,24,-6,14,16,9,6,4,-2
13:34:37:940041,-24,11,-32,-8,-9,3,17,-8
13:34:37:947808,-24,11,-32,-8,-9,3,17,-8
13:34:37:948686,-13,-35,-18,-15,-6,-9,-5,-7
13:34:37:954644,49,41,50,13,3,-7,13,25
13:34:37:962168,49,41,50,13,3,-7,13,25
13:34:37:969670,-4,-60,2,0,7,3,9,-3
13:34:37:977158,-30,-18,19,-2,14,6,-19,-14
13:34:37:985279,-30,-18,19,-2,14,6,-19,-14
13:34:37:986141,-5,-19,-16,-11,-7,2,1,-9
13:34:38:299,31,4,4,-1,-6,-16,4,0
13:34:38:1152,31,4,4,-1,-6,-16,4,0
13:34:38:7173,0,47,-4,5,-6,-12,-22,-3
13:34:38:14675,8,-51,-8,0,4,0,-6,-6
13:34:38:22144,8,-51,-8,0,4,0,-6,-6
13:34:38:29661,14,51,35,6,-3,2,-3,-12
13:34:38:37042,-26,38,17,-3,-2,-4,-22,-28
13:34:38:45282,-26,38,17,-3,-2,-4,-22,-28
13:34:38:46167,10,20,-2,0,0,-1,14,9
13:34:38:60290,-13,-22,-35,-3,-1,8,-13,-10
13:34:38:61132,-13,-22,-35,-3,-1,8,-13,-10
13:34:38:67057,-18,-7,13,-4,-6,1,-6,-3
13:34:38:74643,-4,44,-14,-6,-13,-10,8,10
13:34:38:82168,-4,44,-14,-6,-13,-10,8,10
13:34:38:97806,0,-17,-16,-7,-1,1,-10,7
13:34:38:98523,0,-64,-32,-7,-15,-8,-7,-3
13:34:38:105289,0,-64,-32,-7,-15,-8,-7,-3
13:34:38:106157,-19,25,-11,5,0,7,4,4
13:34:38:120295,-41,-29,13,10,12,12,-6,15
13:34:38:121146,-41,-29,13,10,12,12,-6,15
13:34:38:127057,5,13,13,-6,-3,-8,-12,-9
13:34:38:134691,46,19,13,-10,-8,1,-20,-4
13:34:38:142139,46,19,13,-10,-8,1,-20,-4
13:34:38:149677,12,25,35,9,3,7,-1,17
13:34:38:157025,-26,1,27,19,14,-2,19,-4
13:34:38:165298,-26,1,27,19,14,-2,19,-4
13:34:38:166186,-5,23,-4,7,0,5,30,-24
13:34:38:180801,15,-102,-23,-12,-10,-3,-4,-1
13:34:38:181682,15,-102,-23,-12,-10,-3,-4,-1
13:34:38:187030,-42,-17,-30,12,1,-4,13,1
13:34:38:194652,19,15,-13,-1,-4,2,-7,-4
13:34:38:202201,19,15,-13,-1,-4,2,-7,-4
13:34:38:209650,31,-56,-39,-13,-2,1,4,15
13:34:38:217044,-7,42,3,3,4,2,-4,-3
13:34:38:225283,-7,42,3,3,4,2,-4,-3
13:34:38:226138,8,18,48,-1,-5,-5,16,5
13:34:38:240330,-13,-46,-8,17,4,-2,0,-6
13:34:38:241151,-13,-46,-8,17,4,-2,0,-6
13:34:38:247040,32,22,-32,0,1,-5,-16,-3
13:34:38:254648,-23,-10,7,-11,0,1,9,-1
13:34:38:262159,-23,-10,7,-11,0,1,9,-1
13:34:38:269690,-5,-16,-13,1,7,0,11,0
13:34:38:277163,-7,27,-1,-10,-8,1,-3,-2
13:34:38:285286,-7,27,-1,-10,-8,1,-3,-2
13:34:38:286140,-8,8,25,3,-10,-2,-19,-9
13:34:38:300307,2,-33,4,5,3,1,-2,7
13:34:38:301164,2,-33,4,5,3,1,-2,7
13:34:38:307159,1,18,13,5,0,-3,13,13
13:34:38:314680,-11,3,-55,-13,-13,-14,-12,-3
13:34:38:322152,-11,3,-55,-13,-13,-14,-12,-3
13:34:38:329659,-19,-22,-9,-5,-3,-1,-8,-7
13:34:38:337151,-3,-22,-23,-14,-2,-6,-3,8
13:34:38:345286,-3,-22,-23,-14,-2,-6,-3,8
13:34:38:346178,-19,-52,-16,-4,7,2,-13,-11
13:34:38:360286,-8,-2,27,23,5,2,19,-16
13:34:38:361180,-8,-2,27,23,5,2,19,-16
13:34:38:375286,-14,7,-6,-6,-4,0,3,-22
13:34:38:376025,22,91,42,9,1,10,1,-3
13:34:38:382152,22,91,42,9,1,10,1,-3
13:34:38:389665,14,1,7,-15,-4,1,-5,3
13:34:38:397161,-20,19,-55,-24,-20,-21,-9,0
13:34:38:405308,-20,19,-55,-24,-20,-21,-9,0
13:34:38:406036,23,80,5,0,3,-5,5,10
13:34:38:420786,9,12,19,28,24,10,7,5
13:34:38:421548,9,12,19,28,24,10,7,5
13:34:38:427158,7,-32,8,13,-2,-1,-8,-4
13:34:38:434728,40,27,14,-2,-3,1,-3,6
13:34:38:442152,40,27,14,-2,-3,1,-3,6
13:34:38:449655,-15,-41,-4,-6,11,5,-12,2
13:34:38:457141,-1,-43,41,4,-3,-12,-15,-5
13:34:38:465327,-1,-43,41,4,-3,-12,-15,-5
13:34:38:466170,-1,33,-2,-16,-6,11,20,8
13:34:38:480336,-9,-55,6,2,6,7,14,1
13:34:38:481185,-9,-55,6,2,6,7,14,1
13:34:38:495308,-8,-21,-5,-1,0,6,5,0
13:34:38:496024,6,22,18,3,2,3,3,8
13:34:38:502179,6,22,18,3,2,3,3,8
13:34:38:509655,-16,-65,-13,-3,7,0,-7,-10
13:34:38:517167,14,2,21,-8,-11,-15,-2,7
13:34:38:525298,14,2,21,-8,-11,-15,-2,7
13:34:38:526164,-19,15,-27,-22,-6,1,3,-1
13:34:38:540335,34,39,22,0,-8,-9,-4,-10
13:34:38:541159,34,39,22,0,-8,-9,-4,-10
13:34:38:547187,-29,-62,-9,5,-12,-14,15,-21
13:34:38:554664,6,-6,-1,-11,-11,-14,-10,-7
13:34:38:562178,6,-6,-1,-11,-11,-14,-10,-7
13:34:38:569680,72,50,10,-12,4,3,-2,23
13:34:38:577156,-9,-22,-49,-16,-3,11,13,-1
13:34:38:585280,-9,-22,-49,-16,-3,11,13,-1
13:34:38:586158,0,-8,54,11,7,-5,2,5
13:34:38:600294,9,18,24,15,6,8,-14,5
13:34:38:601166,9,18,24,15,6,8,-14,5
13:34:38:607055,-22,7,-24,0,-7,1,0,-4
13:34:38:614709,1,2,-26,8,4,9,3,-2
13:34:38:622192,1,2,-26,8,4,9,3,-2
13:34:38:629652,-16,-25,4,1,7,-1,-26,-11
13:34:38:637035,14,18,2,1,1,2,13,10
13:34:38:645294,14,18,2,1,1,2,13,10
13:34:38:646187,-69,2,22,9,-8,-1,-19,-9
13:34:38:660278,-2,47,57,2,13,-2,11,0
13:34:38:661139,-2,47,57,2,13,-2,11,0
13:34:38:667095,1,-14,-68,-6,-1,1,-15,-13
13:34:38:674669,-50,-52,-3,0,3,-12,-10,-7
13:34:38:682185,-50,-52,-3,0,3,-12,-10,-7
13:34:38:689667,-46,-50,-45,-22,-10,-5,-11,4
13:34:38:697036,-6,14,-13,-13,0,6,-14,-9
13:34:38:705306,-6,14,-13,-13,0,6,-14,-9
13:34:38:706161,71,0,40,19,4,1,4,15
13:34:38:720306,-41,-37,-10,-14,1,9,6,-9
13:34:38:721143,-41,-37,-10,-14,1,9,6,-9
13:34:38:727178,-4,115,26,9,11,15,19,9
13:34:38:734689,-36,-4,-45,-2,-3,-9,-2,-10
13:34:38:742172,-36,-4,-45,-2,-3,-9,-2,-10
13:34:38:749701,20,-29,-22,-8,-14,-8,6,-2
13:34:38:757040,4,-15,9,10,11,10,22,20
13:34:38:765349,4,-15,9,10,11,10,22,20
13:34:38:766054,24,110,-13,-9,-9,-11,1,5
13:34:38:780337,32,21,-33,0,14,3,0,14
13:34:38:781134,32,21,-33,0,14,3,0,14
13:34:38:787190,19,5,34,4,3,-1,0,7
13:34:38:794676,4,-1,21,-7,-20,-27,-43,-10
13:34:38:802187,4,-1,21,-7,-20,-27,-43,-10
13:34:38:809674,-20,-68,-2,1,-2,-15,-18,-13
13:34:38:817148,35,36,-16,-6,-16,1,14,-10
13:34:38:824650,35,36,-16,-6,-16,1,14,-10
13:34:38:832034,-8,6,-1,1,4,18,18,0
13:34:38:840657,-5,-14,13,8,-21,-15,-30,-6
13:34:38:847806,-5,-14,13,8,-21,-15,-30,-6
13:34:38:848648,2,40,17,-11,-1,4,11,-1
13:34:38:862845,10,-30,-23,-6,3,6,10,2
13:34:38:863685,10,-30,-23,-6,3,6,10,2
13:34:38:869669,-21,-91,-18,16,1,-12,-13,2
13:34:38:877041,-15,24,-23,-14,2,-3,6,1
13:34:38:884688,-15,24,-23,-14,2,-3,6,1
13:34:38:892033,38,1,19,6,-6,0,1,5
13:34:38:900323,-7,-54,-21,9,4,3,10,11
13:34:38:901162,-7,-54,-21,9,4,3,10,11
13:34:38:907049,6,-34,-36,-5,-1,-9,-10,-22
13:34:38:922808,42,53,31,-4,-3,5,-1,10
13:34:38:923660,42,53,31,-4,-3,5,-1,10
13:34:38:929704,-7,13,17,7,3,-2,-12,-8
13:34:38:937028,11,-35,1,3,1,7,18,-8
13:34:38:944681,11,-35,1,3,1,7,18,-8
13:34:38:952026,10,24,-23,-10,-11,-12,-5,-16
13:34:38:960274,-15,-76,-34,-38,-8,8,-9,-4
13:34:38:961147,-15,-76,-34,-38,-8,8,-9,-4
13:34:38:974686,-27,38,1,1,0,11,-16,-7
13:34:38:982833,-87,55,48,15,4,0,0,-23
13:34:38:983666,-87,55,48,15,4,0,0,-23
13:34:38:989646,12,-77,-47,-25,6,7,4,18
13:34:38:997037,34,-83,-36,-7,-6,-6,14,8
13:34:39:4654,34,-83,-36,-7,-6,-6,14,8
13:34:39:12158,-19,9,21,-9,-20,1,12,8
13:34:39:20298,19,-3,-32,5,-7,-3,-9,3
13:34:39:21023,19,-3,-32,5,-7,-3,-9,3
13:34:39:27155,-10,0,-19,-3,-3,-11,-23,3
13:34:39:42802,27,37,37,15,23,11,-3,-6
13:34:39:43656,27,37,37,15,23,11,-3,-6
13:34:39:49695,-8,2,6,-3,-6,-18,39,-10
13:34:39:57156,19,9,-20,-3,-7,9,29,-6
13:34:39:64704,19,9,-20,-3,-7,9,29,-6
13:34:39:72165,-10,42,12,7,-4,-11,16,4
13:34:39:80320,-20,49,70,9,-6,-8,-22,2
13:34:39:81157,-20,49,70,9,-6,-8,-22,2
13:34:39:87038,6,-34,7,-1,-12,-8,3,1
13:34:39:102786,-58,0,15,-1,4,-1,-1,-37
13:34:39:103677,-58,0,15,-1,4,-1,-1,-37
13:34:39:109655,43,35,23,11,14,9,-22,11
13:34:39:125296,7,-10,33,8,1,-9,-22,20
13:34:39:126181,7,-10,33,8,1,-9,-22,20
13:34:39:132215,-26,-44,-4,1,2,-12,-13,-28
13:34:39:140293,-20,-10,26,21,13,6,19,24
13:34:39:141020,-20,-10,26,21,13,6,19,24
13:34:39:147187,28,49,24,7,16,31,37,33
13:34:39:162850,13,19,-11,-17,-20,-43,-36,-17
13:34:39:163678,13,19,-11,-17,-20,-43,-36,-17
13:34:39:169672,-55,-25,24,8,6,5,-24,-10
13:34:39:177169,17,9,-71,-26,-7,12,-16,-12
13:34:39:184713,17,9,-71,-26,-7,12,-16,-12
13:34:39:192181,1,-47,6,12,-1,-4,4,-2
13:34:39:208546,-1,-84,-4,7,9,3,-35,25
13:34:39:209291,-1,-84,-4,7,9,3,-35,25
13:34:39:210186,28,71,-3,-11,-16,-6,17,12
13:34:39:222780,-5,36,-11,-18,-10,-1,-28,-6
13:34:39:223664,-5,36,-11,-18,-10,-1,-28,-6
13:34:39:229684,32,54,14,-6,7,-5,-15,-2
13:34:39:237031,16,38,-39,3,-10,1,12,-5
13:34:39:252791,16,38,-39,3,-10,1,12,-5
13:34:39:253654,-16,-62,-40,5,-1,0,-16,-12
13:34:39:268422,10,-24,-17,10,9,2,37,4
13:34:39:269339,10,-24,-17,10,9,2,37,4
13:34:39:270059,-25,14,-44,-17,5,-1,-11,-6
13:34:39:282843,-25,-53,11,-10,0,-1,-1,-8
13:34:39:283658,-25,-53,11,-10,0,-1,-1,-8
13:34:39:289674,19,-43,-38,1,16,6,24,8
13:34:39:297169,14,26,31,-1,-10,2,-4,-4
13:34:39:304662,14,26,31,-1,-10,2,-4,-4
13:34:39:312043,30,-11,23,4,-3,-1,-12,6
13:34:39:320310,-10,34,-27,2,10,7,28,17
13:34:39:321157,-10,34,-27,2,10,7,28,17
13:34:39:327048,43,-16,31,3,-4,-6,-16,-12
13:34:39:342785,-37,-8,69,17,7,8,10,2
13:34:39:343657,-37,-8,69,17,7,8,10,2
13:34:39:349689,-6,-38,-5,-4,-12,2,2,15
13:34:39:357026,-10,-41,-5,-3,9,-4,-4,-4
13:34:39:364686,-10,-41,-5,-3,9,-4,-4,-4
13:34:39:372044,-43,-42,-6,-34,-13,-12,-13,-16
13:34:39:380324,-6,2,44,-2,-10,-1,29,-3
13:34:39:381181,-6,2,44,-2,-10,-1,29,-3
13:34:39:387191,14,56,27,1,0,2,29,17
13:34:39:403286,20,2,-32,-27,-14,-8,-10,-6
13:34:39:404029,20,2,-32,-27,-14,-8,-10,-6
13:34:39:409664,10,18,-8,19,15,7,-30,-12
13:34:39:417077,11,-13,-26,11,-1,-11,5,-12
13:34:39:424682,11,-13,-26,11,-1,-11,5,-12
13:34:39:432166,-6,53,-5,12,-3,12,15,5
13:34:39:440283,-17,-6,19,2,-2,-6,-1,-9
13:34:39:441025,-17,-6,19,2,-2,-6,-1,-9
13:34:39:447169,-18,-10,-51,-15,-8,-3,-8,1
13:34:39:462806,-35,-100,-98,-15,-20,-2,-15,-3
13:34:39:463674,-35,-100,-98,-15,-20,-2,-15,-3
13:34:39:469661,-6,-42,13,24,31,20,19,9
13:34:39:477171,6,31,10,14,2,-6,3,5
13:34:39:484719,6,31,10,14,2,-6,3,5
13:34:39:492180,-31,36,1,-6,-10,5,23,7
13:34:39:500319,-31,19,17,-16,4,-3,-5,-2
13:34:39:501042,-31,19,17,-16,4,-3,-5,-2
13:34:39:507178,25,86,32,1,-1,-4,-10,-4
13:34:39:522570,58,-24,10,1,-1,-8,22,9
13:34:39:530319,58,-24,10,1,-1,-8,22,9
13:34:39:531053,43,80,30,9,-13,-11,3,0
13:34:39:537145,68,98,51,9,2,8,-6,10
13:34:39:544689,68,98,51,9,2,8,-6,10
13:34:39:552071,-13,-44,-14,-1,5,-4,10,8
13:34:39:560296,-27,-63,-61,-35,-12,-4,3,-14
13:34:39:561171,-27,-63,-61,-35,-12,-4,3,-14
13:34:39:567071,-11,-47,15,-4,-5,7,-19,-5
13:34:39:582817,43,-9,-19,11,33,11,-9,18
13:34:39:583687,43,-9,-19,11,33,11,-9,18
13:34:39:597867,-45,-91,-22,-18,-21,-25,-27,-14
13:34:39:598711,-27,6,18,7,-6,29,13,4
13:34:39:604665,-27,6,18,7,-6,29,13,4
13:34:39:612188,-4,6,-1,-1,-12,-24,-23,12
13:34:39:620319,-41,40,10,19,8,20,5,-12
13:34:39:621190,-41,40,10,19,8,20,5,-12
13:34:39:627066,2,2,6,18,10,8,29,-20
13:34:39:642802,29,37,-9,-9,-12,-11,16,-2
13:34:39:643704,29,37,-9,-9,-12,-11,16,-2
13:34:39:649703,1,-1,-4,14,7,2,10,-15
13:34:39:657163,9,42,-1,-15,-9,-8,-15,-10
13:34:39:664686,9,42,-1,-15,-9,-8,-15,-10
13:34:39:680921,4,36,10,-11,-4,3,-5,7
13:34:39:681795,-41,-6,17,14,0,-10,-20,-8
13:34:39:682685,-41,-6,17,14,0,-10,-20,-8
13:34:39:687051,-9,-45,-10,-24,-9,-23,-31,-16
13:34:39:702826,-6,-40,-21,16,14,5,21,-5
13:34:39:703681,-6,-40,-21,16,14,5,21,-5
13:34:39:709674,2,19,15,11,1,8,-9,-24
13:34:39:717173,8,1,-38,-22,-6,-14,-33,-6
13:34:39:724655,8,1,-38,-22,-6,-14,-33,-6
13:34:39:732127,44,80,19,-17,-11,-1,-15,27
13:34:39:740312,61,57,57,24,-5,-7,-10,-2
13:34:39:741153,61,57,57,24,-5,-7,-10,-2
13:34:39:747060,-3,36,-33,-6,9,14,-12,-10
13:34:39:762823,-14,65,54,2,8,4,-4,27
13:34:39:763662,-14,65,54,2,8,4,-4,27
13:34:39:769665,14,-33,-23,-4,-2,-15,8,0
13:34:39:785361,-50,-128,-35,-11,-24,-25,4,-18
13:34:39:786055,-50,-128,-35,-11,-24,-25,4,-18
13:34:39:792159,-12,20,13,24,26,23,13,1
13:34:39:800318,10,41,1,-5,-2,-1,5,-22
13:34:39:801170,10,41,1,-5,-2,-1,5,-22
13:34:39:814691,-28,-58,-43,-26,-10,-9,-15,-9
13:34:39:822798,-4,28,12,9,6,-5,-26,28
13:34:39:823654,-4,28,12,9,6,-5,-26,28
13:34:39:829721,-17,22,68,23,21,8,-26,-7
13:34:39:845333,16,-59,24,1,-1,1,-21,5
13:34:39:846081,16,-59,24,1,-1,1,-21,5
13:34:39:852185,-15,-14,-24,0,-8,-3,-4,14
13:34:39:860304,25,70,2,-19,14,-2,11,16
13:34:39:861038,25,70,2,-19,14,-2,11,16
13:34:39:874682,-25,40,54,14,0,-4,14,2
13:34:39:882843,12,5,-49,-13,-23,-3,2,-5
13:34:39:883672,12,5,-49,-13,-23,-3,2,-5
13:34:39:889669,33,-27,0,-15,-15,8,6,-11
13:34:39:905367,-34,-23,14,16,23,14,-1,4
13:34:39:906214,-34,-23,14,16,23,14,-1,4
13:34:39:912060,37,-3,-10,-10,-2,8,31,27
13:34:39:920307,-22,2,-7,-12,-7,9,25,6
13:34:39:921059,-22,2,-7,-12,-7,9,25,6
13:34:39:934693,-10,-77,-72,9,-1,6,4,4
13:34:39:942811,-35,42,3,11,0,-17,5,6
13:34:39:943682,-35,42,3,11,0,-17,5,6
13:34:39:957061,7,-11,-8,0,-9,4,-5,-4
13:34:39:965314,0,-53,-51,-2,4,5,-11,-21
13:34:39:966192,0,-53,-51,-2,4,5,-11,-21
13:34:39:972065,-26,-10,-34,-17,-6,-20,32,6
13:34:39:980304,-26,-26,9,0,6,17,-4,0
13:34:39:981188,-26,-26,9,0,6,17,-4,0
13:34:39:994679,2,-29,28,-8,-1,-2,9,17
13:34:40:2828,-50,-24,25,-6,-16,5,13,-9
13:34:40:3694,-50,-24,25,-6,-16,5,13,-9
13:34:40:9680,28,11,-20,-4,14,17,19,5
13:34:40:25294,27,102,-13,10,11,3,-19,-23
13:34:40:26156,27,102,-13,10,11,3,-19,-23
13:34:40:32092,-24,-31,33,0,-23,-22,4,-3
13:34:40:40293,58,-2,-6,31,24,33,15,16
13:34:40:41158,58,-2,-6,31,24,33,15,16
13:34:40:54698,44,25,25,13,-6,0,15,-6
13:34:40:62797,-32,13,18,-4,-3,3,41,20
13:34:40:63700,-32,13,18,-4,-3,3,41,20
13:34:40:69665,-49,-5,-72,-28,-3,-9,-16,-9
13:34:40:85335,-49,-5,-72,-28,-3,-9,-16,-9
13:34:40:86186,32,-48,-8,-7,-9,-13,34,-14
13:34:40:92054,-34,67,-22,-9,-1,6,7,-32
13:34:40:99719,-34,67,-22,-9,-1,6,7,-32
13:34:40:107080,9,-29,-34,-21,-12,-2,19,35
13:34:40:114730,-22,58,33,15,15,-9,44,9
13:34:40:122786,-22,58,33,15,15,-9,44,9
13:34:40:123673,40,11,-45,-18,-2,-11,-23,-4
13:34:40:129698,-15,-68,-73,-16,9,7,-38,-33
13:34:40:145329,-15,-68,-73,-16,9,7,-38,-33
13:34:40:146177,1,33,62,12,-10,-6,0,-21
13:34:40:152050,-21,-75,35,19,3,-2,-20,-1
13:34:40:159671,-21,-75,35,19,3,-2,-20,-1
13:34:40:167099,-3,0,36,1,8,3,-21,1
13:34:40:174689,1,-32,35,13,13,-13,-24,-17
13:34:40:182810,1,-32,35,13,13,-13,-24,-17
13:34:40:183664,-41,-70,-19,6,0,-1,0,9
13:34:40:189685,15,60,-6,-15,-15,-14,-22,-12
13:34:40:205297,15,60,-6,-15,-15,-14,-22,-12
13:34:40:206155,-56,40,-23,8,-7,6,2,-17
13:34:40:212162,45,109,10,-14,-13,-3,13,-16
13:34:40:219685,45,109,10,-14,-13,-3,13,-16
13:34:40:235319,12,-15,-32,-24,-15,-15,-18,-2
13:34:40:236043,-51,14,32,4,-15,-2,-22,7
13:34:40:242815,-51,14,32,4,-15,-2,-22,7
13:34:40:243671,36,-24,29,12,10,-16,-5,3
13:34:40:249748,-69,-107,-64,-22,-11,1,26,-22
13:34:40:265345,-69,-107,-64,-22,-11,1,26,-22
13:34:40:266169,-9,-71,-9,-16,-18,-12,-46,1
13:34:40:272060,52,29,41,20,5,-14,8,10
13:34:40:279703,52,29,41,20,5,-14,8,10
13:34:40:287069,33,67,19,15,-3,-4,-7,-15
13:34:40:294681,-2,27,-50,-9,8,19,-24,8
13:34:40:302836,-2,27,-50,-9,8,19,-24,8
13:34:40:303669,16,20,32,17,3,-16,-24,4
13:34:40:309696,0,-14,16,28,10,8,-2,19
13:34:40:325305,0,-14,16,28,10,8,-2,19
13:34:40:326171,-20,-12,-21,-8,1,15,25,-1
13:34:40:332208,-20,-18,-10,22,12,10,-5,-10
13:34:40:339682,-20,-18,-10,22,12,10,-5,-10
13:34:40:347193,-23,44,68,19,-8,-1,-4,-5
13:34:40:354670,89,-7,41,-1,-5,9,11,19
13:34:40:362830,89,-7,41,-1,-5,9,11,19
13:34:40:363657,-35,66,-12,4,17,-1,-2,11
13:34:40:369665,-22,-4,-22,-19,-23,-25,21,-2
13:34:40:385301,-22,-4,-22,-19,-23,-25,21,-2
13:34:40:386039,40,-18,16,-29,-6,11,-8,-26
13:34:40:392246,-8,-30,14,-6,19,11,-11,7
13:34:40:399709,-8,-30,14,-6,19,11,-11,7
13:34:40:407050,-26,-63,-69,-17,-9,-14,-21,3
13:34:40:414685,-21,18,37,13,-11,-8,3,17
13:34:40:423434,-21,18,37,13,-11,-8,3,17
13:34:40:424289,4,32,1,19,1,2,56,16
13:34:40:429710,37,36,28,1,-5,3,-16,8
13:34:40:445305,37,36,28,1,-5,3,-16,8
13:34:40:446083,-11,-75,-51,-19,-5,-6,-34,-13
13:34:40:452040,14,57,27,-10,-5,6,30,-2
13:34:40:467824,14,57,27,-10,-5,6,30,-2
13:34:40:468677,-35,-27,-72,-32,-6,6,8,3
13:34:40:474681,5,-39,44,-6,-8,7,0,2
13:34:40:482828,5,-39,44,-6,-8,7,0,2
13:34:40:483686,45,-15,69,7,-1,8,27,5
13:34:40:489689,-17,50,-5,-16,-2,-5,-4,-14
13:34:40:513577,-17,50,-5,-16,-2,-5,-4,-14
13:34:40:514304,1,25,31,-11,-1,2,1,11
13:34:40:515051,26,-23,-7,1,7,5,-3,6
13:34:40:519663,26,-23,-7,1,7,5,-3,6
13:34:40:527184,48,7,-2,1,11,-12,11,-9
13:34:40:534705,-28,-45,-46,3,9,18,19,-11
13:34:40:542799,-28,-45,-46,3,9,18,19,-11
13:34:40:543672,-55,-69,-3,24,3,12,64,12
13:34:40:549575,33,14,12,0,4,-6,-33,10
13:34:40:565336,33,14,12,0,4,-6,-33,10
13:34:40:566066,29,10,58,21,5,8,-15,18
13:34:40:572168,-27,-32,-24,-19,2,-4,24,21
13:34:40:579684,-27,-32,-24,-19,2,-4,24,21
13:34:40:587073,4,37,40,11,-6,1,-30,-9
13:34:40:594557,7,23,3,39,41,7,5,-1
13:34:40:602812,7,23,3,39,41,7,5,-1
13:34:40:603671,18,4,40,-2,-9,3,-38,-13
13:34:40:609657,-10,-83,-33,-11,-32,-45,-47,-17
13:34:40:625300,-10,-83,-33,-11,-32,-45,-47,-17
13:34:40:626056,25,81,13,4,2,-16,-49,-29
13:34:40:632054,8,36,56,12,-5,14,13,10
13:34:40:639697,8,36,56,12,-5,14,13,10
13:34:40:647059,-4,15,1,-4,-8,-3,44,0
13:34:40:654700,-8,-80,-17,13,-7,-3,19,-9
13:34:40:662820,-8,-80,-17,13,-7,-3,19,-9
13:34:40:663703,6,-24,-17,-18,-5,-12,15,-11
13:34:40:669681,-22,57,-1,3,9,25,11,-2
13:34:40:685297,-22,57,-1,3,9,25,11,-2
13:34:40:686180,41,52,-16,-10,0,8,-2,18
13:34:40:692050,26,50,15,17,14,-8,-31,-33
13:34:40:708299,26,50,15,17,14,-8,-31,-33
13:34:40:709053,-28,-30,-86,-11,23,-8,-9,-10
13:34:40:714563,11,-105,-78,-35,-12,-18,-35,-8
13:34:40:722804,11,-105,-78,-35,-12,-18,-35,-8
13:34:40:723688,-9,-1,16,9,13,19,15,26
13:34:40:737188,-6,26,12,-6,-3,-9,-19,13
13:34:40:745350,-6,26,12,-6,-3,-9,-19,13
13:34:40:746106,-33,-70,-72,-28,-23,-15,-5,-6
13:34:40:752065,-27,12,50,13,9,12,8,8
13:34:40:759685,-27,12,50,13,9,12,8,8
13:34:40:767072,17,62,49,-3,5,-5,-14,4
13:34:40:774682,50,-1,6,8,-23,-2,36,34
13:34:40:790328,50,-1,6,8,-23,-2,36,34
13:34:40:791058,-61,-87,-37,-10,-14,-21,-63,-34
13:34:40:797067,7,-26,-35,3,9,5,10,-2
13:34:40:805336,7,-26,-35,3,9,5,10,-2
13:34:40:806171,-19,-103,13,5,8,9,-18,-9
13:34:40:812065,-6,49,-58,-37,-31,-8,3,5
13:34:40:819694,-6,49,-58,-37,-31,-8,3,5
13:34:40:827057,49,3,39,20,-6,-2,-1,4
13:34:40:834732,-20,-26,-52,-17,-8,-5,-25,7
13:34:40:842785,-20,-26,-52,-17,-8,-5,-25,7
13:34:40:843676,23,3,-27,-1,-16,-19,6,-23
13:34:40:857035,46,42,13,30,26,19,11,-5
13:34:40:865313,46,42,13,30,26,19,11,-5
13:34:40:866204,15,31,41,46,30,17,13,20
13:34:40:872089,-33,-29,-33,-27,-12,-12,28,-13
13:34:40:879727,-33,-29,-33,-27,-12,-12,28,-13
13:34:40:887075,-78,-70,-28,-22,-14,-11,-6,-12
13:34:40:894691,-33,68,38,-13,-18,-35,-50,3
13:34:40:902812,-33,68,38,-13,-18,-35,-50,3
13:34:40:903670,-33,-65,-34,4,3,-10,-3,15
13:34:40:917090,32,4,-5,21,6,13,-2,-16
13:34:40:925307,32,4,-5,21,6,13,-2,-16
13:34:40:926197,25,81,-85,-35,-15,5,59,-19
13:34:40:932074,-94,70,-40,2,17,-4,-29,-15
13:34:40:939687,-94,70,-40,2,17,-4,-29,-15
13:34:40:947193,2,-1,-13,-3,-3,1,6,24
13:34:40:954700,33,-35,43,16,16,6,43,6
13:34:40:962802,33,-35,43,16,16,6,43,6
13:34:40:963684,-10,2,37,20,14,0,18,2
13:34:40:985933,-17,-5,40,-1,-13,-2,20,14
13:34:40:986831,-17,-5,40,-1,-13,-2,20,14
13:34:40:987697,1,-34,-3,-22,-2,-11,-56,-34
13:34:40:992081,-9,-8,-23,-12,-4,-7,-77,-16
13:34:40:999719,-9,-8,-23,-12,-4,-7,-77,-16
13:34:41:7166,-3,49,47,19,0,1,-19,7
13:34:41:14701,-29,-1,1,-17,-15,-2,10,-7
13:34:41:22807,-29,-1,1,-17,-15,-2,10,-7
13:34:41:23704,-1,-75,-9,-30,-12,3,-3,30
13:34:41:37094,3,70,49,9,12,9,16,15
13:34:41:45314,3,70,49,9,12,9,16,15
13:34:41:46060,1,81,11,-21,-15,-11,25,10
13:34:41:52200,38,-6,14,3,11,15,9,-17
13:34:41:67859,38,-6,14,3,11,15,9,-17
13:34:41:68695,10,-29,-45,-5,5,8,-16,-18
13:34:41:74699,-15,49,-9,12,11,22,19,-9
13:34:41:82821,-15,49,-9,12,11,22,19,-9
13:34:41:83700,-21,-22,-81,-40,-14,-19,-19,6
13:34:41:97075,8,-30,-31,-18,-18,0,15,41
13:34:41:105317,8,-30,-31,-18,-18,0,15,41
13:34:41:106062,17,20,-4,13,8,6,39,5
13:34:41:112065,-17,-57,-31,2,-4,-1,10,3
13:34:41:119682,-17,-57,-31,2,-4,-1,10,3
13:34:41:127186,-29,-8,24,25,21,11,-7,-17
13:34:41:134712,-8,-25,35,-36,-24,-17,-3,-24
13:34:41:142823,-8,-25,35,-36,-24,-17,-3,-24
13:34:41:143678,41,34,52,17,-7,-8,-2,5
13:34:41:157061,-40,-11,-10,-20,11,3,-20,-17
13:34:41:165327,-40,-11,-10,-20,11,3,-20,-17
13:34:41:166065,-51,-57,-65,-2,-1,-4,-22,-14
13:34:41:172203,-15,-29,37,28,16,1,-47,10
13:34:41:179697,-15,-29,37,28,16,1,-47,10
13:34:41:187088,9,43,42,13,-6,0,26,-10
13:34:41:194577,29,15,-6,-8,-7,-11,-15,-20
13:34:41:202828,29,15,-6,-8,-7,-11,-15,-20
13:34:41:203683,35,104,74,24,38,31,31,8
13:34:41:217092,6,-55,-11,-12,-15,-13,-22,-2
13:34:41:225333,6,-55,-11,-12,-15,-13,-22,-2
13:34:41:226046,-12,24,35,-5,-18,-27,-14,-17
13:34:41:232091,-16,27,60,35,6,10,21,-6
13:34:41:239671,-16,27,60,35,6,10,21,-6
13:34:41:247103,24,9,-13,6,12,20,-4,14
13:34:41:254685,41,-74,-80,-23,-17,-39,-5,2
13:34:41:262819,41,-74,-80,-23,-17,-39,-5,2
13:34:41:263696,-20,55,26,1,5,5,1,24
13:34:41:277062,26,66,65,21,-2,29,20,-3
13:34:41:285328,26,66,65,21,-2,29,20,-3
13:34:41:286183,17,-58,-35,-10,-1,0,-19,-18
13:34:41:292066,7,-76,35,-7,2,-11,9,20
13:34:41:299736,7,-76,35,-7,2,-11,9,20
13:34:41:307065,-22,-51,-32,-13,-4,11,14,-19
13:34:41:314684,26,-53,7,10,6,-5,12,17
13:34:41:322815,26,-53,7,10,6,-5,12,17
13:34:41:323707,-29,-53,24,13,10,-15,-44,11
13:34:41:337049,42,-52,-41,2,2,28,43,9
13:34:41:345318,42,-52,-41,2,2,28,43,9
13:34:41:346211,1,-29,13,2,7,10,-6,11
13:34:41:352083,-19,94,12,-27,-12,-9,-58,-12
13:34:41:359672,-19,94,12,-27,-12,-9,-58,-12
13:34:41:367276,-52,-49,6,-4,-14,-24,-34,-33
13:34:41:374673,-14,-53,-77,-30,-2,2,2,-21
13:34:41:382844,-14,-53,-77,-30,-2,2,2,-21
13:34:41:383702,30,36,24,1,-12,12,20,-1
13:34:41:397088,5,36,-41,0,3,-10,25,21
13:34:41:405333,5,36,-41,0,3,-10,25,21
13:34:41:406062,0,-78,-115,8,-14,-8,22,-2
13:34:41:412175,15,44,26,10,11,16,21,-6
13:34:41:419694,15,44,26,10,11,16,21,-6
13:34:41:427116,14,43,17,6,-4,-28,-9,20
13:34:41:434640,16,-30,-20,14,-6,-20,-30,6
13:34:41:442824,16,-30,-20,14,-6,-20,-30,6
13:34:41:443684,11,12,-68,-54,-15,-5,32,13
13:34:41:457085,10,3,-19,-14,6,9,-23,-22
13:34:41:465339,10,3,-19,-14,6,9,-23,-22
13:34:41:466083,11,78,78,15,5,25,-6,-20
13:34:41:472066,-30,26,-19,-1,-2,-1,12,12
13:34:41:479672,-30,26,-19,-1,-2,-1,12,12
13:34:41:487065,-67,-16,-25,-1,2,-16,-23,-41
13:34:41:494675,0,69,92,13,-3,17,11,-11
13:34:41:502813,0,69,92,13,-3,17,11,-11
13:34:41:503695,32,-12,4,8,-6,3,0,13
13:34:41:517075,12,-23,7,1,-11,-34,9,11
13:34:41:525314,12,-23,7,1,-11,-34,9,11
13:34:41:526046,-40,-70,18,-6,-4,0,-26,-32
13:34:41:532100,-43,-11,-19,6,2,-7,18,3
13:34:41:539696,-43,-11,-19,6,2,-7,18,3
13:34:41:547080,-4,7,-22,-38,-20,-4,-17,3
13:34:41:554692,4,35,18,16,16,13,3,6
13:34:41:562842,4,35,18,16,16,13,3,6
13:34:41:563730,61,96,21,5,4,13,-2,7
13:34:41:577051,30,-20,15,-1,-12,-12,-6,-2
13:34:41:585357,30,-20,15,-1,-12,-12,-6,-2
13:34:41:586172,14,-68,-57,-15,-11,-8,19,15
13:34:41:592061,7,-28,-28,-9,-3,-12,-31,-44
13:34:41:599763,7,-28,-28,-9,-3,-12,-31,-44
13:34:41:607086,31,-27,12,-1,7,8,10,24
13:34:41:614691,-85,-6,44,2,6,13,29,-7
13:34:41:622842,-85,-6,44,2,6,13,29,-7
13:34:41:623699,11,62,85,29,23,2,23,14
13:34:41:637067,21,92,43,20,-4,-7,-40,14
13:34:41:645346,21,92,43,20,-4,-7,-40,14
13:34:41:646185,-33,-55,-34,11,-4,4,-21,-14
13:34:41:660308,-22,-11,-8,-12,-4,1,-9,-14
13:34:41:661166,-22,-11,-8,-12,-4,1,-9,-14
13:34:41:667083,5,70,34,15,10,-2,-30,-16
13:34:41:674681,60,-34,-51,17,7,14,-8,1
13:34:41:682222,60,-34,-51,17,7,14,-8,1
13:34:41:689763,-19,-37,-2,0,5,9,4,-23
13:34:41:697090,26,92,45,6,10,-10,17,-5
13:34:41:705340,26,92,45,6,10,-10,17,-5
13:34:41:706060,-11,-76,3,-19,7,12,19,-1
13:34:41:720368,-50,-103,-55,-19,-20,-1,40,6
13:34:41:721075,-50,-103,-55,-19,-20,-1,40,6
13:34:41:727060,7,86,56,-13,-22,-14,-4,-2
13:34:41:734744,1,34,30,5,20,23,12,0
13:34:41:742190,1,34,30,5,20,23,12,0
13:34:41:749722,25,15,-61,-10,-7,-4,-9,-1
13:34:41:757082,-6,-31,-33,-7,-34,-32,-39,-26
13:34:41:765365,-6,-31,-33,-7,-34,-32,-39,-26
13:34:41:766089,-28,-23,-103,-17,4,-2,4,22
13:34:41:780316,-7,-63,-16,-9,1,-4,-38,-9
13:34:41:781056,-7,-63,-16,-9,1,-4,-38,-9
13:34:41:787061,-3,7,32,20,-1,2,4,36
13:34:41:794721,1,-53,-5,-30,5,23,26,3
13:34:41:802245,1,-53,-5,-30,5,23,26,3
13:34:41:809559,-7,1,-22,-9,-15,-45,-51,-17
13:34:41:817087,83,35,47,10,4,-14,11,37
13:34:41:825321,83,35,47,10,4,-14,11,37
13:34:41:826057,-9,-88,48,-6,-16,-12,21,-18
13:34:41:840335,-68,-33,18,-5,-10,-7,-38,-16
13:34:41:841074,-68,-33,18,-5,-10,-7,-38,-16
13:34:41:847076,-56,-40,10,14,3,-11,-33,-17
13:34:41:854583,-52,13,24,13,10,4,-9,11
13:34:41:862203,-52,13,24,13,10,4,-9,11
13:34:41:869709,12,-19,-6,-8,19,6,-25,0
13:34:41:877066,-9,54,-13,2,-15,-28,-26,-35
13:34:41:885335,-9,54,-13,2,-15,-28,-26,-35
13:34:41:886179,-6,57,38,17,7,-8,-2,12
13:34:41:900339,-74,-85,-68,4,3,8,13,-16
13:34:41:901201,-74,-85,-68,4,3,8,13,-16
13:34:41:907078,78,33,-11,-4,8,20,42,34
13:34:41:914746,29,76,-9,-11,-9,-8,-46,0
13:34:41:922201,29,76,-9,-11,-9,-8,-46,0
13:34:41:929739,-13,-2,39,-7,-19,-5,33,-27
13:34:41:937057,28,-36,-69,-34,1,8,36,13
13:34:41:945338,28,-36,-69,-34,1,8,36,13
13:34:41:946194,0,7,31,6,2,-14,-28,-32
13:34:41:960352,10,-21,19,15,22,22,8,-5
13:34:41:961182,10,-21,19,15,22,22,8,-5
13:34:41:967077,-9,-25,-30,4,22,24,44,33
13:34:41:974700,50,31,-45,-18,-26,5,13,29
13:34:41:982232,50,31,-45,-18,-26,5,13,29
13:34:41:989689,-10,-25,32,11,6,-2,-29,3
13:34:41:997091,12,5,61,4,4,12,1,10
13:34:42:5380,12,5,61,4,4,12,1,10
13:34:42:6074,-35,-75,10,-21,-7,-12,-3,32
13:34:42:19700,-35,-31,-1,-12,-4,-24,-28,-21
13:34:42:27816,-35,-31,-1,-12,-4,-24,-28,-21
13:34:42:28669,61,63,40,28,2,17,-2,-7
13:34:42:34729,-18,64,12,11,-11,-10,27,-8
13:34:42:42186,-18,64,12,11,-11,-10,27,-8
13:34:42:49723,-10,77,-25,5,-14,4,26,32
13:34:42:57188,24,-67,-1,18,20,-2,-5,7
13:34:42:65355,24,-67,-1,18,20,-2,-5,7
13:34:42:66058,37,15,11,2,9,5,9,3
13:34:42:80349,39,-53,-4,4,-20,-24,-4,25
13:34:42:81091,39,-53,-4,4,-20,-24,-4,25
13:34:42:87056,-4,7,-1,3,9,23,15,-25
13:34:42:94690,-17,18,-32,-32,-9,-11,0,-2
13:34:42:102234,-17,18,-32,-32,-9,-11,0,-2
13:34:42:109583,4,48,-56,0,-8,1,-6,-27
13:34:42:117092,7,3,51,32,15,11,24,-4
13:34:42:125320,7,3,51,32,15,11,24,-4
13:34:42:126057,-24,-40,-49,-15,-13,-1,-1,-18
13:34:42:140349,30,17,55,14,15,16,11,-1
13:34:42:141060,30,17,55,14,15,16,11,-1
13:34:42:147096,-30,-2,3,19,0,11,21,-18
13:34:42:154570,12,-18,4,3,-10,-21,5,17
13:34:42:162228,12,-18,4,3,-10,-21,5,17
13:34:42:169689,-5,0,-61,-30,-8,-10,7,7
13:34:42:177078,-7,34,9,27,19,24,6,-25
13:34:42:185323,-7,34,9,27,19,24,6,-25
13:34:42:186176,-35,25,-8,-18,-7,-25,-15,-21
13:34:42:200335,-35,16,53,-19,-30,-37,-59,-35
13:34:42:201177,-35,16,53,-19,-30,-37,-59,-35
13:34:42:207060,-23,1,62,23,28,-3,-4,9
13:34:42:214705,-11,-36,-74,-19,-5,3,5,-12
13:34:42:222204,-11,-36,-74,-19,-5,3,5,-12
13:34:42:229723,57,40,2,-20,-26,-12,7,-9
13:34:42:237070,25,-8,-24,-1,18,13,70,-8
13:34:42:245325,25,-8,-24,-1,18,13,70,-8
13:34:42:246182,15,-108,-109,-18,8,13,17,52
13:34:42:260327,-8,22,33,13,-15,17,34,10
13:34:42:261185,-8,22,33,13,-15,17,34,10
13:34:42:267077,58,-23,-27,20,42,21,0,16
13:34:42:274681,-15,-93,-54,-4,-3,-19,-39,-15
13:34:42:290336,-15,-93,-54,-4,-3,-19,-39,-15
13:34:42:291196,-27,29,25,10,-23,-21,-38,-18
13:34:42:297099,70,106,61,-4,6,-17,-20,38
13:34:42:305349,70,106,61,-4,6,-17,-20,38
13:34:42:306222,-33,-72,-115,-53,-37,-3,-13,-13
13:34:42:320334,16,15,13,-1,5,-26,-63,-10
13:34:42:321190,16,15,13,-1,5,-26,-63,-10
13:34:42:327052,-53,67,62,39,33,4,22,2
13:34:42:334743,-58,10,-2,-10,-27,-7,-18,-34
13:34:42:342188,-58,10,-2,-10,-27,-7,-18,-34
13:34:42:349713,50,23,61,6,-5,6,18,23
13:34:42:357075,-16,-46,-101,-21,18,3,-25,-16
13:34:42:365361,-16,-46,-101,-21,18,3,-25,-16
13:34:42:366106,-9,-47,2,-6,-27,13,21,-20
13:34:42:380365,18,22,12,17,25,31,43,30
13:34:42:381188,18,22,12,17,25,31,43,30
13:34:42:387057,-87,33,49,12,-7,-21,-54,-28
13:34:42:394675,-86,-35,-77,-20,-6,-4,-1,-14
13:34:42:402096,-86,-35,-77,-20,-6,-4,-1,-14
13:34:42:409689,64,-10,-12,4,6,-5,16,34
13:34:42:417086,10,-9,-37,-18,-18,2,-2,19
13:34:42:425316,10,-9,-37,-18,-18,2,-2,19
13:34:42:426058,-14,-1,-66,-43,12,-3,-62,-24
13:34:42:440331,1,28,2,9,-4,3,20,6
13:34:42:441051,1,28,2,9,-4,3,20,6
13:34:42:447060,-4,-74,35,23,-10,8,46,15
13:34:42:454700,89,66,108,2,29,14,-34,27
13:34:42:462212,89,66,108,2,29,14,-34,27
13:34:42:469560,-5,72,-13,-13,-8,-9,34,12
13:34:42:477076,-13,-89,-18,-22,-19,7,28,5
13:34:42:485318,-13,-89,-18,-22,-19,7,28,5
13:34:42:486062,-21,-81,26,10,16,10,25,-26
13:34:42:500342,17,20,84,12,-12,-11,-20,-16
13:34:42:501083,17,20,84,12,-12,-11,-20,-16
13:34:42:507078,-49,40,46,0,19,5,-67,-8
13:34:42:514642,-46,-71,12,-2,-32,-35,-12,-100
13:34:42:522199,-46,-71,12,-2,-32,-35,-12,-100
13:34:42:529568,62,15,12,-32,-15,-13,-3,-11
13:34:42:537073,28,50,46,-5,-5,-21,40,72
13:34:42:545327,28,50,46,-5,-5,-21,40,72
13:34:42:546212,94,79,61,14,-10,-5,-26,18
13:34:42:560333,16,45,-34,-1,12,5,-1,26
13:34:42:561079,16,45,-34,-1,12,5,-1,26
13:34:42:567072,-40,5,-10,17,8,13,34,-11
13:34:42:574566,52,57,32,27,19,12,-20,20
13:34:42:582215,52,57,32,27,19,12,-20,20
13:34:42:589689,-17,73,7,0,-8,-21,-8,5
13:34:42:597102,-78,-113,-108,-34,-7,-16,11,-22
13:34:42:604696,-78,-113,-108,-34,-7,-16,11,-22
13:34:42:612088,12,-67,8,7,12,15,1,-15
13:34:42:620317,-2,-63,-46,-36,-31,-2,-4,5
13:34:42:621075,-2,-63,-46,-36,-31,-2,-4,5
13:34:42:627067,41,-77,-31,-1,17,14,-20,-3
13:34:42:642814,-30,-50,-86,-37,-19,-13,18,-11
13:34:42:643705,-30,-50,-86,-37,-19,-13,18,-11
13:34:42:649725,-15,25,4,4,-9,-13,-27,17
13:34:42:665388,27,-52,0,34,8,12,-31,-5
13:34:42:666212,27,-52,0,34,8,12,-31,-5
13:34:42:672078,-36,28,25,5,-6,-13,-21,2
13:34:42:680345,19,-5,39,60,5,21,40,-20
13:34:42:681226,19,-5,39,60,5,21,40,-20
13:34:42:687081,0,48,7,-35,0,-17,15,-24
13:34:42:702844,-4,-57,63,31,21,28,23,12
13:34:42:703699,-4,-57,63,31,21,28,23,12
13:34:42:709687,91,110,120,41,17,6,27,19
13:34:42:717112,16,30,42,-17,-4,-2,-28,-11
13:34:42:724711,16,30,42,-17,-4,-2,-28,-11
13:34:42:732082,-90,-43,-54,-24,-22,-11,26,20
13:34:42:740320,4,25,-16,15,31,7,26,49
13:34:42:741060,4,25,-16,15,31,7,26,49
13:34:42:747087,8,-15,-110,-35,-24,-10,16,-20
13:34:42:762835,-31,70,61,-2,-11,-5,-40,-6
13:34:42:763689,-31,70,61,-2,-11,-5,-40,-6
13:34:42:769710,-63,-82,-25,-12,8,-5,-18,-29
13:34:42:777077,22,28,35,18,3,2,13,0
13:34:42:784715,22,28,35,18,3,2,13,0
13:34:42:792078,45,-22,10,37,-7,-23,-12,7
13:34:42:800356,3,-36,-46,-2,34,4,-20,7
13:34:42:801107,3,-36,-46,-2,34,4,-20,7
13:34:42:807129,-39,-13,20,5,16,41,-36,-3
13:34:42:822838,-11,46,23,-11,-22,-4,11,-49
13:34:42:823699,-11,46,23,-11,-22,-4,11,-49
13:34:42:829731,21,-128,-88,-14,2,19,75,6
13:34:42:837119,-12,73,-41,-37,-12,-14,-42,6
13:34:42:844711,-12,73,-41,-37,-12,-14,-42,6
13:34:42:852073,-53,91,54,1,2,1,-50,-25
13:34:42:860320,-77,-82,-80,-40,-15,-11,-8,-14
13:34:42:861074,-77,-82,-80,-40,-15,-11,-8,-14
13:34:42:867110,43,-34,-89,-24,-47,-18,-8,33
13:34:42:882885,25,-61,28,20,20,12,-6,16
13:34:42:883758,25,-61,28,20,20,12,-6,16
13:34:42:889570,-3,-82,55,-30,24,38,27,-5
13:34:42:897074,40,-35,-2,4,-18,-21,71,37
13:34:42:904704,40,-35,-2,4,-18,-21,71,37
13:34:42:912064,8,124,-1,2,-5,-19,19,-18
13:34:42:920325,2,1,42,-10,3,3,-1,43
13:34:42:921197,2,1,42,-10,3,3,-1,43
13:34:42:927079,65,63,49,32,7,14,7,17
13:34:42:942829,-7,81,-24,-16,-18,-31,-13,16
13:34:42:943701,-7,81,-24,-16,-18,-31,-13,16
13:34:42:949594,11,-78,-6,17,27,16,-6,-26
13:34:42:957128,-15,9,-42,-7,-9,7,49,-38
13:34:42:964714,-15,9,-42,-7,-9,7,49,-38
13:34:42:972091,-32,11,56,22,2,3,68,7
13:34:42:980357,38,-47,14,7,26,18,-8,-17
13:34:42:981090,38,-47,14,7,26,18,-8,-17
13:34:42:987093,-1,4,-104,-7,-31,-21,-58,34
13:34:43:2900,-46,16,19,12,-12,-18,4,-12
13:34:43:3697,-46,16,19,12,-12,-18,4,-12
13:34:43:9771,17,60,21,10,16,-16,39,32
13:34:43:17116,21,-62,8,-2,9,25,18,13
13:34:43:24700,21,-62,8,-2,9,25,18,13
13:34:43:32112,15,44,17,-26,-22,-15,-11,-23
13:34:43:40375,-36,-64,-106,14,-6,-12,-52,-30
13:34:43:41101,-36,-64,-106,14,-6,-12,-52,-30
13:34:43:47099,-11,-104,-6,-3,-2,1,-32,-15
13:34:43:62832,-76,76,-4,-9,-9,6,27,-7
13:34:43:63589,-76,76,-4,-9,-9,6,27,-7
13:34:43:69699,-104,-101,21,12,7,22,-8,15
13:34:43:77062,41,57,48,4,25,31,29,-21
13:34:43:84688,41,57,48,4,25,31,29,-21
13:34:43:92088,-27,-27,-3,-37,-21,-34,-63,-67
13:34:43:100380,-21,-36,-53,-17,-13,-34,18,-15
13:34:43:101068,-21,-36,-53,-17,-13,-34,18,-15
13:34:43:107058,39,0,-6,1,-15,-16,-46,2
13:34:43:122826,48,27,19,16,-1,-10,-62,21
13:34:43:123696,48,27,19,16,-1,-10,-62,21
13:34:43:129724,-18,40,-90,-26,8,2,27,3
13:34:43:137076,7,-6,-13,-30,-13,-6,-80,-23
13:34:43:144730,7,-6,-13,-30,-13,-6,-80,-23
13:34:43:152088,54,-15,-43,-14,-10,6,14,7
13:34:43:160349,7,43,-12,16,10,6,-10,4
13:34:43:161073,7,43,-12,16,10,6,-10,4
13:34:43:167113,-11,39,8,-5,6,1,36,38
13:34:43:182897,-85,-89,15,-15,2,45,43,-13
13:34:43:183723,-85,-89,15,-15,2,45,43,-13
13:34:43:189604,67,16,60,21,5,10,40,30
13:34:43:197063,21,-23,53,9,-4,-6,-40,7
13:34:43:204720,21,-23,53,9,-4,-6,-40,7
13:34:43:212084,-14,14,69,31,3,-10,-28,-16
13:34:43:220329,33,97,93,22,-4,14,11,10
13:34:43:221198,33,97,93,22,-4,14,11,10
13:34:43:227085,25,23,45,-8,10,-20,-68,-13
13:34:43:242831,-26,15,-61,2,-2,-18,-20,-7
13:34:43:243744,-26,15,-61,2,-2,-18,-20,-7
13:34:43:249761,-27,-28,-61,6,21,22,13,-1
13:34:43:257083,3,87,29,17,8,-11,52,82
13:34:43:264774,3,87,29,17,8,-11,52,82
13:34:43:272078,42,22,17,-4,-34,-24,24,3
13:34:43:280344,-11,-26,-31,-27,9,-2,-42,-33
13:34:43:281062,-11,-26,-31,-27,9,-2,-42,-33
13:34:43:287057,-53,59,51,20,11,-6,-8,-5
13:34:43:302849,48,45,-11,58,28,-4,21,9
13:34:43:303721,48,45,-11,58,28,-4,21,9
13:34:43:309732,31,1,39,13,-5,-8,42,-29
13:34:43:317109,-33,-85,-46,-33,-22,-20,-29,-9
13:34:43:324726,-33,-85,-46,-33,-22,-20,-29,-9
13:34:43:332077,46,-68,29,-19,1,18,-14,0
13:34:43:340356,42,76,-2,-71,-22,4,-14,16
13:34:43:341092,42,76,-2,-71,-22,4,-14,16
13:34:43:347115,-1,24,-49,-6,3,26,14,-44
13:34:43:362853,-59,-89,-12,-21,-9,3,-50,-30
13:34:43:363580,-59,-89,-12,-21,-9,3,-50,-30
13:34:43:369703,-64,95,55,-7,-11,19,-4,3
13:34:43:377062,15,31,-60,12,15,30,32,11
13:34:43:384773,15,31,-60,12,15,30,32,11
13:34:43:392071,-23,-12,11,10,-35,-21,-46,-22
13:34:43:400343,-2,14,92,-3,12,-7,23,1
13:34:43:401063,-2,14,92,-3,12,-7,23,1
13:34:43:407098,20,31,-7,-4,-5,-8,22,32
13:34:43:422839,-63,-76,-73,12,-13,1,2,-34
13:34:43:423714,-63,-76,-73,12,-13,1,2,-34
13:34:43:429634,7,-12,-60,-52,-38,-43,14,7
13:34:43:437099,9,-58,14,35,38,8,64,-41
13:34:43:444710,9,-58,14,35,38,8,64,-41
13:34:43:452116,-44,-53,-44,-2,11,-3,-31,8
13:34:43:460334,46,70,64,8,-5,13,-71,25
13:34:43:461062,46,70,64,8,-5,13,-71,25
13:34:43:467073,15,-56,-39,-10,24,12,31,7
13:34:43:482870,-21,-36,-2,-12,-1,-4,-24,-1
13:34:43:483728,-21,-36,-2,-12,-1,-4,-24,-1
13:34:43:489592,29,-23,85,42,10,-8,-53,-1
13:34:43:497089,-43,-43,-29,-12,-14,-10,17,24
13:34:43:504752,-43,-43,-29,-12,-14,-10,17,24
13:34:43:512077,-25,18,-18,6,-9,5,-3,-20
13:34:43:520321,71,-49,-28,-18,-36,-27,-19,-22
13:34:43:521187,71,-49,-28,-18,-36,-27,-19,-22
13:34:43:527064,-27,69,-59,1,51,9,-20,-7
13:34:43:542835,-2,-2,-28,11,-20,-16,29,49
13:34:43:543719,-2,-2,-28,11,-20,-16,29,49
13:34:43:549601,21,-91,-21,11,13,20,11,6
13:34:43:565409,15,100,42,-21,10,17,52,-2
13:34:43:566094,15,100,42,-21,10,17,52,-2
13:34:43:572100,-27,-57,-87,-15,3,-4,5,26
13:34:43:580374,1,-46,-23,9,4,11,3,-5
13:34:43:581089,1,-46,-23,9,4,11,3,-5
13:34:43:594588,33,27,107,-21,-34,-3,48,11
13:34:43:602862,-12,100,41,6,-6,6,6,8
13:34:43:603694,-12,100,41,6,-6,6,6,8
13:34:43:609601,66,-76,-88,-9,7,-23,-75,-9
13:34:43:625343,-77,-82,-14,13,18,-3,-27,-6
13:34:43:626066,-77,-82,-14,13,18,-3,-27,-6
13:34:43:632072,0,22,74,-2,-46,-11,-25,23
13:34:43:640342,63,-16,37,-26,12,11,44,12
13:34:43:641070,63,-16,37,-26,12,11,44,12
13:34:43:654605,-13,23,-33,-34,-8,7,-4,19
13:34:43:662830,-55,-27,80,29,-9,-30,30,-3
13:34:43:663738,-55,-27,80,29,-9,-30,30,-3
13:34:43:669620,-58,-1,-3,16,20,30,-7,-25
13:34:43:685360,-4,25,15,-12,-3,-10,-18,-14
13:34:43:686089,-4,25,15,-12,-3,-10,-18,-14
13:34:43:692078,22,59,32,-1,-32,16,51,-85
13:34:43:700356,45,83,-39,-5,31,18,88,16
13:34:43:701095,45,83,-39,-5,31,18,88,16
13:34:43:714759,-56,-106,6,21,-19,-35,-38,4
13:34:43:722849,-6,-2,36,24,-3,3,-49,-38
13:34:43:723686,-6,-2,36,24,-3,3,-49,-38
13:34:43:729606,-28,89,41,15,1,-3,21,-2
13:34:43:745363,-9,-66,-66,7,-6,-13,-5,10
13:34:43:746103,-9,-66,-66,7,-6,-13,-5,10
13:34:43:752099,92,-54,49,-9,11,12,-14,50
13:34:43:760339,18,65,58,26,32,-1,-26,-15
13:34:43:761077,18,65,58,26,32,-1,-26,-15
13:34:43:774712,-15,-98,-28,4,20,4,-4,17
13:34:43:782837,57,-50,-107,-48,-10,-19,-22,11
13:34:43:783710,57,-50,-107,-48,-10,-19,-22,11
13:34:43:789713,5,70,20,31,-7,-10,26,-1
13:34:43:805333,6,-2,26,6,6,-8,-27,-24
13:34:43:806079,6,-2,26,6,6,-8,-27,-24
13:34:43:812082,-14,88,-62,4,10,13,15,9
13:34:43:820332,0,-2,25,0,-49,-9,-32,-2
13:34:43:821086,0,-2,25,0,-49,-9,-32,-2
13:34:43:834751,16,-34,13,4,35,-10,11,-33
13:34:43:842710,-13,-66,-38,-13,14,34,31,38
13:34:43:843589,-13,-66,-38,-13,14,34,31,38
13:34:43:849719,9,24,72,1,-18,-9,-4,-23
13:34:43:865324,-28,-18,60,-5,-26,-32,-48,-35
13:34:43:866242,-28,-18,60,-5,-26,-32,-48,-35
13:34:43:872085,62,53,29,16,-1,-14,24,-5
13:34:43:880338,2,-32,-60,-4,22,19,68,-2
13:34:43:881089,2,-32,-60,-4,22,19,68,-2
13:34:43:894722,-42,51,21,-5,-7,0,-46,-4
13:34:43:902718,-27,21,22,-15,4,9,-44,0
13:34:43:903589,-27,21,22,-15,4,9,-44,0
13:34:43:909707,-56,16,-2,-14,1,12,-24,-33
13:34:43:925334,-39,24,-79,-6,7,25,16,-5
13:34:43:926199,-39,24,-79,-6,7,25,16,-5
13:34:43:932113,31,-74,14,2,-8,-6,23,35
13:34:43:940205,44,127,41,-1,-16,-18,-29,25
13:34:43:941062,44,127,41,-1,-16,-18,-29,25
13:34:43:954583,-30,-91,-52,-7,23,16,69,54
13:34:43:970984,10,-98,-61,-39,-19,-5,56,7
13:34:43:971860,10,-98,-61,-39,-19,-5,56,7
13:34:43:972592,20,15,27,1,-23,-25,-14,21
13:34:43:985345,-18,-38,-4,46,71,20,-86,-5
13:34:43:986084,-18,-38,-4,46,71,20,-86,-5
13:34:43:992073,-22,51,-90,-37,-27,-19,4,-21
13:34:44:384,-34,-57,-91,10,-33,-5,39,-2
13:34:44:1105,-34,-57,-91,10,-33,-5,39,-2
13:34:44:14761,-44,-122,-29,4,10,-10,-20,-23
13:34:44:22839,-11,-57,90,16,-20,-35,-57,-45
13:34:44:23701,-11,-57,90,16,-20,-35,-57,-45
13:34:44:29625,2,-27,5,2,1,18,7,12
13:34:44:45372,2,-27,5,2,1,18,7,12
13:34:44:46103,10,24,18,-9,9,22,-9,0
13:34:44:52109,13,-52,10,-7,9,-2,-25,6
13:34:44:67881,13,-52,10,-7,9,-2,-25,6
13:34:44:68586,63,25,7,10,-25,-25,29,41
13:34:44:74707,-95,-45,-57,-42,-1,-11,-20,1
13:34:44:82839,-95,-45,-57,-42,-1,-11,-20,1
13:34:44:83749,32,34,3,24,14,8,10,-6
13:34:44:89576,23,-8,-25,8,-5,13,37,37
13:34:44:105365,23,-8,-25,8,-5,13,37,37
13:34:44:106086,-84,75,58,-38,-22,3,51,-37
13:34:44:112112,20,35,-12,28,25,36,72,-2
13:34:44:127848,20,35,-12,28,25,36,72,-2
13:34:44:128704,23,0,21,3,18,15,-68,-20
13:34:44:134744,-18,68,28,17,-36,-13,8,-18
13:34:44:142827,-18,68,28,17,-36,-13,8,-18
13:34:44:143592,17,-14,3,-4,15,9,1,31
13:34:44:149724,46,89,5,-20,-6,-4,4,-3
13:34:44:165358,46,89,5,-20,-6,-4,4,-3
13:34:44:166210,22,20,42,27,-5,29,22,21
13:34:44:172080,-3,-26,-103,-39,-16,-23,-48,-28
13:34:44:187849,-3,-26,-103,-39,-16,-23,-48,-28
13:34:44:188705,28,-90,5,9,-13,-39,-19,-46
13:34:44:194725,20,-76,5,-37,2,-2,14,-16
13:34:44:202843,20,-76,5,-37,2,-2,14,-16
13:34:44:203579,-15,9,-41,-20,3,-42,-53,-39
13:34:44:209711,34,-39,45,22,3,-2,-10,-9
13:34:44:225357,34,-39,45,22,3,-2,-10,-9
13:34:44:226083,-32,21,80,25,21,3,51,12
13:34:44:232105,-15,93,-1,-11,-3,7,0,35
13:34:44:248369,-15,93,-1,-11,-3,7,0,35
13:34:44:249100,13,23,-9,31,13,-17,-34,-23
13:34:44:254573,6,-21,-52,-11,-7,-3,-39,-38
13:34:44:262852,6,-21,-52,-11,-7,-3,-39,-38
13:34:44:263703,-41,-53,-25,-12,-4,19,23,-26
13:34:44:269718,-2,9,39,28,37,-16,-19,39
13:34:44:285330,-2,9,39,28,37,-16,-19,39
13:34:44:286079,47,-23,41,-9,-28,-14,-47,1
13:34:44:292096,-16,40,-5,8,11,-7,-6,-10
13:34:44:307850,-16,40,-5,8,11,-7,-6,-10
13:34:44:308710,22,69,54,40,-9,14,21,-1
13:34:44:314617,-41,-70,-53,-65,-26,-29,-17,2
13:34:44:322820,-41,-70,-53,-65,-26,-29,-17,2
13:34:44:323713,-61,65,-58,-32,-25,13,50,13
13:34:44:337098,-27,-32,9,37,2,7,0,-5
13:34:44:345361,-27,-32,9,37,2,7,0,-5
13:34:44:346097,4,-22,22,-4,5,-14,4,26
13:34:44:352117,-14,10,53,14,12,12,49,-23
13:34:44:367881,-14,10,53,14,12,12,49,-23
13:34:44:368721,20,45,27,-7,-3,7,35,26
13:34:44:374576,-13,-30,-85,-39,-15,-6,-50,-18
13:34:44:382860,-13,-30,-85,-39,-15,-6,-50,-18
13:34:44:383730,14,-104,-24,-9,6,-23,-32,14
13:34:44:389595,32,28,55,44,-8,-3,13,30
13:34:44:405364,32,28,55,44,-8,-3,13,30
13:34:44:406082,-42,-82,-10,-23,-27,-22,-19,-62
13:34:44:412113,53,6,33,-2,29,36,78,19
13:34:44:435965,53,6,33,-2,29,36,78,19
13:34:44:436835,-70,-4,-21,-12,-28,-20,8,20
13:34:44:437719,-32,10,-5,0,-2,18,-95,-32
13:34:44:442851,-32,10,-5,0,-2,18,-95,-32
13:34:44:443600,21,25,-15,8,44,30,1,22
13:34:44:449787,95,84,72,20,8,9,4,23
13:34:44:465355,95,84,72,20,8,9,4,23
13:34:44:466209,-10,-21,-24,32,-15,-22,-32,-13
13:34:44:472081,-15,-79,-42,-21,-17,2,-28,7
13:34:44:487861,-15,-79,-42,-21,-17,2,-28,7
13:34:44:488737,36,62,-28,-22,-5,31,-6,31
13:34:44:494610,-46,-114,-35,29,19,-13,11,-37
13:34:44:502862,-46,-114,-35,29,19,-13,11,-37
13:34:44:503593,-72,-82,1,3,-2,-5,-19,-16
13:34:44:525973,37,16,-8,-11,-18,-4,17,-34
13:34:44:526863,37,16,-8,-11,-18,-4,17,-34
13:34:44:527628,0,28,-2,-23,23,17,-3,-26
13:34:44:532168,0,86,21,15,-8,-2,1,14
13:34:44:547862,0,86,21,15,-8,-2,1,14
13:34:44:548730,-39,46,65,-9,-11,-6,-12,-8
13:34:44:554595,-35,-61,-41,8,-1,4,36,24
13:34:44:562836,-35,-61,-41,8,-1,4,36,24
13:34:44:563755,-3,-91,-113,-8,19,15,6,1
13:34:44:577073,-63,10,46,-25,-5,-7,-32,31
13:34:44:585351,-63,10,46,-25,-5,-7,-32,31
13:34:44:586083,15,37,75,11,22,0,39,53
13:34:44:592089,-21,-7,-47,8,13,12,5,3
13:34:44:607848,-21,-7,-47,8,13,12,5,3
13:34:44:608580,94,36,-19,-9,-5,-20,55,33
13:34:44:614753,62,-57,20,5,-9,-8,50,6
13:34:44:622845,62,-57,20,5,-9,-8,50,6
13:34:44:623712,-77,-122,-74,-42,-27,-17,-28,4
13:34:44:637105,62,74,16,1,-5,-29,-37,-29
13:34:44:645362,62,74,16,1,-5,-29,-37,-29
13:34:44:646122,-36,-12,85,47,2,11,-4,-11
13:34:44:652092,-4,29,46,18,0,-4,36,6
13:34:44:667857,-4,29,46,18,0,-4,36,6
13:34:44:668596,45,109,25,-38,-25,26,26,31
13:34:44:674705,6,17,20,43,25,5,18,32
13:34:44:682893,6,17,20,43,25,5,18,32
13:34:44:683592,-4,44,3,6,-6,3,-53,-61
13:34:44:697077,-4,55,-49,-36,19,22,-10,18
13:34:44:705373,-4,55,-49,-36,19,22,-10,18
13:34:44:706085,9,34,5,17,-7,-1,30,-1
13:34:44:712100,29,68,79,6,-28,-27,32,-36
13:34:44:719714,29,68,79,6,-28,-27,32,-36
13:34:44:727079,-6,9,-31,19,-12,-31,-76,-15
13:34:44:734658,-32,-111,34,41,42,47,-28,24
13:34:44:742845,-32,-111,34,41,42,47,-28,24
13:34:44:743723,1,-81,-21,-9,-11,-13,-61,-28
13:34:44:757088,-75,-90,-58,-51,-21,-24,-28,-10
13:34:44:765353,-75,-90,-58,-51,-21,-24,-28,-10
13:34:44:766137,53,40,64,3,18,32,17,20
13:34:44:772088,11,38,60,24,4,27,-13,-16
13:34:44:779720,11,38,60,24,4,27,-13,-16
13:34:44:787118,-21,7,-42,-5,-16,-24,-18,-16
13:34:44:794632,-42,-58,-36,-9,19,28,43,7
13:34:44:802841,-42,-58,-36,-9,19,28,43,7
13:34:44:803703,57,31,-59,16,5,17,55,13
13:34:44:817111,15,-33,39,-45,-7,-12,-43,20
13:34:44:825337,15,-33,39,-45,-7,-12,-43,20
13:34:44:826100,26,22,45,32,34,10,62,42
13:34:44:832100,-21,123,-45,-12,-27,-35,4,27
13:34:44:839734,-21,123,-45,-12,-27,-35,4,27
13:34:44:847098,7,-1,-37,-7,-7,9,25,3
13:34:44:854604,-56,33,21,-32,0,-12,-38,-23
13:34:44:862858,-56,33,21,-32,0,-12,-38,-23
13:34:44:863715,-41,44,4,-6,20,-2,-9,-38
13:34:44:877100,42,30,-16,-9,-32,-28,-72,-18
13:34:44:885355,42,30,-16,-9,-32,-28,-72,-18
13:34:44:886095,-21,-111,22,17,21,19,37,-34
13:34:44:892100,2,19,48,-22,-28,-10,-7,4
13:34:44:899724,2,19,48,-22,-28,-10,-7,4
13:34:44:907088,-18,-66,-105,-25,-19,-7,3,-21
13:34:44:914737,72,13,61,40,3,13,-5,12
13:34:44:922841,72,13,61,40,3,13,-5,12
13:34:44:923598,26,39,26,-33,-26,-29,72,7
13:34:44:937089,-49,-11,-43,0,12,16,-1,-17
13:34:44:945369,-49,-11,-43,0,12,16,-1,-17
13:34:44:946089,30,-5,-60,-28,-19,-29,-40,40
13:34:44:952127,-39,11,1,19,1,5,22,-42
13:34:44:959719,-39,11,1,19,1,5,22,-42
13:34:44:967103,-3,-28,-14,14,0,43,-2,23
13:34:44:974750,-9,-128,-13,14,19,15,51,-17
13:34:44:982859,-9,-128,-13,14,19,15,51,-17
13:34:44:983754,-46,81,112,5,-21,-15,-24,4
13:34:44:997119,64,3,16,12,27,-7,61,38
13:34:45:5344,64,3,16,12,27,-7,61,38
13:34:45:6101,-3,-91,59,-10,-2,-16,-41,20
13:34:45:12097,-28,-39,-11,9,-22,-20,9,8
13:34:45:19740,-28,-39,-11,9,-22,-20,9,8
13:34:45:27116,33,121,-51,-16,-5,4,-9,-14
13:34:45:34647,50,-7,-31,-4,3,2,-8,43
13:34:45:42833,50,-7,-31,-4,3,2,-8,43
13:34:45:43717,-21,26,72,15,23,38,13,20
13:34:45:57110,15,27,9,-6,7,28,42,14
13:34:45:65374,15,27,9,-6,7,28,42,14
13:34:45:66108,21,-28,26,23,32,4,-56,7
13:34:45:72111,-22,-104,-27,-23,-5,-27,-40,13
13:34:45:87856,-22,-104,-27,-23,-5,-27,-40,13
13:34:45:88598,-29,51,-51,-53,-5,-25,-33,-54
13:34:45:94715,-17,5,34,-9,-11,-13,-38,1
13:34:45:102876,-17,5,34,-9,-11,-13,-38,1
13:34:45:103737,5,-24,73,27,17,-4,4,21
13:34:45:117144,28,95,49,7,-18,-13,18,-29
13:34:45:125356,28,95,49,7,-18,-13,18,-29
13:34:45:126100,24,12,13,26,16,-1,-19,11
13:34:45:132115,22,41,-29,-3,13,-4,-57,-71
13:34:45:147894,22,41,-29,-3,13,-4,-57,-71
13:34:45:148643,7,17,-85,-59,-21,1,-11,-8
13:34:45:154710,-53,0,-70,15,-10,11,-5,-39
13:34:45:162856,-53,0,-70,15,-10,11,-5,-39
13:34:45:163657,-56,-26,62,9,-17,-5,38,-20
13:34:45:177106,46,62,65,25,6,7,-40,-10
13:34:45:185384,46,62,65,25,6,7,-40,-10
13:34:45:186109,6,36,7,5,-16,-9,-19,-43
13:34:45:192090,8,-65,-66,-3,-12,-23,20,7
13:34:45:207836,8,-65,-66,-3,-12,-23,20,7
13:34:45:208604,11,-18,3,-31,-20,-8,30,48
13:34:45:214727,-14,-30,-14,-9,24,11,6,-18
13:34:45:222846,-14,-30,-14,-9,24,11,6,-18
13:34:45:223598,56,-7,39,16,-25,-22,-33,5
13:34:45:237121,-33,-42,-19,-37,4,-1,13,-10
13:34:45:245355,-33,-42,-19,-37,4,-1,13,-10
13:34:45:246093,-55,-128,-41,6,0,-16,-1,-15
13:34:45:252148,18,-32,13,-4,-11,-11,-11,-9
13:34:45:267904,18,-32,13,-4,-11,-11,-11,-9
13:34:45:268735,-29,-57,-6,-39,12,1,44,2
13:34:45:283483,-25,48,-92,-52,-27,7,52,38
13:34:45:284433,-25,48,-92,-52,-27,7,52,38
13:34:45:285095,18,69,-48,52,55,46,-7,13
13:34:45:297091,15,16,47,6,-22,-11,-38,17
13:34:45:305378,15,16,47,6,-22,-11,-38,17
13:34:45:306087,20,13,-49,-13,2,8,5,10
13:34:45:312118,69,-33,9,29,11,0,-19,32
13:34:45:327847,69,-33,9,29,11,0,-19,32
13:34:45:328593,29,71,25,-11,-6,9,31,2
13:34:45:334605,-37,-86,-95,-33,-34,-36,-20,21
13:34:45:342874,-37,-86,-95,-33,-34,-36,-20,21
13:34:45:343732,36,24,43,11,3,11,13,-5
13:34:45:357088,-3,11,71,48,25,4,4,-6
13:34:45:365401,-3,11,71,48,25,4,4,-6
13:34:45:366092,-34,-15,37,53,25,16,61,12
13:34:45:372092,5,18,24,13,12,-30,-24,-5
13:34:45:387857,5,18,24,13,12,-30,-24,-5
13:34:45:388616,2,13,29,-16,-28,-11,-23,25
13:34:45:394636,26,58,63,-10,18,32,43,-5
13:34:45:402839,26,58,63,-10,18,32,43,-5
13:34:45:403708,-21,-8,-6,14,-12,-27,-72,-39
13:34:45:417129,-11,14,-65,-16,-8,-9,49,-55
13:34:45:425349,-11,14,-65,-16,-8,-9,49,-55
13:34:45:426088,-52,28,46,42,-20,-29,-6,-8
13:34:45:432128,-35,4,67,14,11,22,-15,-15
13:34:45:447888,-35,4,67,14,11,22,-15,-15
13:34:45:448588,6,14,-35,-6,15,-1,-13,7
13:34:45:454728,-31,71,-119,-63,-20,7,8,4
13:34:45:462107,-31,71,-119,-63,-20,7,8,4
13:34:45:469604,-61,-55,-14,24,3,-9,-11,-61
13:34:45:477098,33,49,17,1,11,8,2,20
13:34:45:485370,33,49,17,1,11,8,2,20
13:34:45:486101,36,9,-33,-20,7,-3,-25,24
13:34:45:499798,-52,-117,-38,4,-1,10,-2,-11
13:34:45:507850,-52,-117,-38,4,-1,10,-2,-11
13:34:45:508585,3,-23,-12,-27,-10,0,36,-29
13:34:45:514613,-6,-71,59,34,-2,3,-36,8
13:34:45:522100,-6,-71,59,34,-2,3,-36,8
13:34:45:529661,3,58,73,4,-14,20,37,-58
13:34:45:537108,-5,-13,-1,41,24,42,27,0
13:34:45:545365,-5,-13,-1,41,24,42,27,0
13:34:45:546087,-5,-57,-20,-3,0,-6,0,33
13:34:45:559602,-2,-44,32,-26,-13,-25,-37,-20
13:34:45:567893,-2,-44,32,-26,-13,-25,-37,-20
13:34:45:568732,49,-9,-18,-2,15,11,23,26
13:34:45:574586,10,11,36,-7,-6,5,-31,31
13:34:45:582223,10,11,36,-7,-6,5,-31,31
13:34:45:589599,2,39,-8,-9,6,-1,-52,7
13:34:45:597101,-16,127,51,2,8,-1,13,-30
13:34:45:605365,-16,127,51,2,8,-1,13,-30
13:34:45:606096,43,41,45,28,-9,-13,11,6
13:34:45:619616,-7,-75,-79,-22,-5,2,47,5
13:34:45:635985,-7,-75,-79,-22,-5,2,47,5
13:34:45:636739,29,58,50,25,14,-20,16,34
13:34:45:637615,4,80,-15,-11,-4,-11,5,6
13:34:45:642221,4,80,-15,-11,-4,-11,5,6
13:34:45:649636,6,-25,-83,-52,-39,-3,1,12
13:34:45:657083,-30,-57,78,35,10,3,-9,-20
13:34:45:665365,-30,-57,78,35,10,3,-9,-20
13:34:45:666088,9,-98,-48,-41,-5,0,35,-6
13:34:45:679652,-8,-51,37,47,18,23,40,15
13:34:45:687861,-8,-51,37,47,18,23,40,15
13:34:45:688719,24,20,-10,23,12,19,-29,-25
13:34:45:694611,41,12,13,-14,-9,-21,-63,-17
13:34:45:702241,41,12,13,-14,-9,-21,-63,-17
13:34:45:709590,14,-43,19,28,9,-33,-60,-26
13:34:45:717120,84,74,-4,-11,-33,-17,3,-3
13:34:45:725341,84,74,-4,-11,-33,-17,3,-3
13:34:45:726121,-36,2,-73,-23,-10,-20,-43,-45
13:34:45:739593,-11,33,7,19,10,7,11,24
13:34:45:747898,-11,33,7,19,10,7,11,24
13:34:45:748742,-91,-49,-35,-18,16,23,8,28
13:34:45:754624,-9,9,-60,-26,-7,-13,-39,24
13:34:45:762111,-9,9,-60,-26,-7,-13,-39,24
13:34:45:769767,-16,50,48,-7,-11,14,24,26
13:34:45:777115,3,26,-24,-2,-8,10,18,-43
13:34:45:785369,3,26,-24,-2,-8,10,18,-43
13:34:45:786095,-10,-9,29,7,5,20,10,22
13:34:45:799668,18,-70,-30,-27,1,-10,25,-21
13:34:45:807852,18,-70,-30,-27,1,-10,25,-21
13:34:45:808617,-8,-68,-17,-1,16,9,0,7
13:34:45:814637,-29,-58,25,33,16,8,-8,31
13:34:45:822112,-29,-58,25,33,16,8,-8,31
13:34:45:829619,6,85,-9,-3,14,10,-49,-14
13:34:45:837111,-30,12,-2,-21,-43,-20,-18,-3
13:34:45:845340,-30,12,-2,-21,-43,-20,-18,-3
13:34:45:846107,-9,-55,16,12,15,-6,-10,-20
13:34:45:859723,-14,18,-38,25,-3,4,-24,13
13:34:45:867873,-14,18,-38,25,-3,4,-24,13
13:34:45:868600,-3,6,-26,-43,-27,-23,65,-37
13:34:45:874597,41,91,20,6,40,19,8,25
13:34:45:882135,41,91,20,6,40,19,8,25
13:34:45:889665,5,-29,27,4,3,13,27,-14
13:34:45:897138,-22,-37,-42,-38,13,-9,-40,-41
13:34:45:905353,-22,-37,-42,-38,13,-9,-40,-41
13:34:45:906087,89,80,45,34,10,8,9,51
13:34:45:919639,-27,37,39,12,19,-9,-60,-12
13:34:45:927857,-27,37,39,12,19,-9,-60,-12
13:34:45:928616,-40,-74,-28,-1,-39,-45,-88,23
13:34:45:934654,-8,-63,12,9,14,5,3,9
13:34:45:942229,-8,-63,12,9,14,5,3,9
13:34:45:949634,29,-9,69,2,-8,2,-3,2
13:34:45:957111,22,-6,6,8,2,8,28,-4
13:34:45:965397,22,-6,6,8,2,8,28,-4
13:34:45:966118,-13,-47,-19,7,10,11,-4,-27
13:34:45:979605,12,-96,-44,-34,-12,-9,19,10
13:34:45:987868,12,-96,-44,-34,-12,-9,19,10
13:34:45:988730,6,101,14,1,12,19,20,4
13:34:45:994602,-21,68,-83,6,-9,0,-18,7
13:34:46:2263,-21,68,-83,6,-9,0,-18,7
13:34:46:9609,-15,74,57,-2,5,-4,29,12
13:34:46:17166,-43,24,60,4,-30,-11,10,2
13:34:46:25374,-43,24,60,4,-30,-11,10,2
13:34:46:26107,43,52,6,-40,-5,-27,0,15
13:34:46:39600,-41,-18,17,34,-3,-21,33,-9
13:34:46:47917,-41,-18,17,34,-3,-21,33,-9
13:34:46:48724,40,-88,-23,3,0,-11,-39,-18
13:34:46:54605,-40,20,-91,-60,-19,16,-48,11
13:34:46:62113,-40,20,-91,-60,-19,16,-48,11
13:34:46:69726,-55,14,21,-6,-16,-14,14,2
13:34:46:77136,4,54,52,-14,9,25,57,-10
13:34:46:85371,4,54,52,-14,9,25,57,-10
13:34:46:86107,7,-102,-128,-79,-17,-13,-40,21
13:34:46:99686,-17,-43,34,10,5,-2,64,-11
13:34:46:107889,-17,-43,34,10,5,-2,64,-11
13:34:46:108611,-64,16,21,12,0,-2,79,0
13:34:46:114630,13,-59,-1,-58,-23,-20,-23,13
13:34:46:122118,13,-59,-1,-58,-23,-20,-23,13
13:34:46:129607,34,25,-39,6,22,25,-2,-14
13:34:46:137111,-9,6,-64,-3,4,12,38,-35
13:34:46:145405,-9,6,-64,-3,4,12,38,-35
13:34:46:146114,28,-52,-19,-4,-23,9,-13,-18
13:34:46:159805,3,-17,20,36,31,29,8,50
13:34:46:167903,3,-17,20,36,31,29,8,50
13:34:46:168590,-7,-31,19,13,-10,-1,11,-12
13:34:46:174619,52,-15,4,10,-5,-22,11,7
13:34:46:182130,52,-15,4,10,-5,-22,11,7
13:34:46:189594,-51,-96,-11,-6,-20,-7,-24,28
13:34:46:197098,10,-15,22,25,8,-14,-83,12
13:34:46:205354,10,-15,22,25,8,-14,-83,12
13:34:46:206095,-17,16,22,21,-1,4,-24,-25
13:34:46:219624,7,72,68,22,-14,-1,5,15
13:34:46:227877,7,72,68,22,-14,-1,5,15
13:34:46:228609,9,64,-4,33,12,-11,26,-7
13:34:46:234657,18,-78,0,21,15,9,34,-6
13:34:46:242236,18,-78,0,21,15,9,34,-6
13:34:46:249659,27,10,17,15,7,9,-28,20
13:34:46:257107,19,71,101,15,-7,-8,-17,-6
13:34:46:265412,19,71,101,15,-7,-8,-17,-6
13:34:46:266136,17,10,10,28,7,27,2,-19
13:34:46:279635,-19,-12,28,54,19,1,-18,-58
13:34:46:287882,-19,-12,28,54,19,1,-18,-58
13:34:46:288739,3,79,34,-13,-12,-29,-34,49
13:34:46:294640,12,-8,-28,-19,-5,-9,-44,-6
13:34:46:302282,12,-8,-28,-19,-5,-9,-44,-6
13:34:46:309598,-32,-28,62,13,1,4,37,-12
13:34:46:317117,27,13,39,-32,-9,9,48,18
13:34:46:325340,27,13,39,-32,-9,9,48,18
13:34:46:326107,30,26,-19,-3,6,12,4,-5
13:34:46:339625,-37,81,21,13,-4,-39,-32,-38
13:34:46:347866,-37,81,21,13,-4,-39,-32,-38
13:34:46:348733,-1,-25,-50,-21,1,20,17,0
13:34:46:354621,16,13,41,-10,-7,-5,40,38
13:34:46:362122,16,13,41,-10,-7,-5,40,38
13:34:46:369757,18,3,-1,-17,-29,-19,-10,-14
13:34:46:377098,-18,11,11,13,21,28,2,0
13:34:46:385370,-18,11,11,13,21,28,2,0
13:34:46:386101,-6,34,22,-34,-23,-17,5,0
13:34:46:399645,-5,-57,-49,-2,-1,26,63,27
13:34:46:407863,-5,-57,-49,-2,-1,26,63,27
13:34:46:408596,-12,14,-42,33,22,-13,-52,-21
13:34:46:422749,4,20,2,-16,-2,8,-41,-28
13:34:46:423587,4,20,2,-16,-2,8,-41,-28
13:34:46:429653,-70,-63,-78,-39,14,12,4,22
13:34:46:437105,-3,-45,10,11,5,17,2,9
13:34:46:444740,-3,-45,10,11,5,17,2,9
13:34:46:452147,-11,-4,7,10,9,-2,9,3
13:34:46:459731,22,-96,-26,-20,3,19,-13,13
13:34:46:467897,22,-96,-26,-20,3,19,-13,13
13:34:46:468621,-3,-8,16,16,-15,-10,-2,27
13:34:46:482784,34,52,7,-29,-17,3,8,9
13:34:46:483606,34,52,7,-29,-17,3,8,9
13:34:46:489641,-18,-89,-49,23,32,12,-6,-46
13:34:46:497123,-20,78,1,4,8,-8,-41,-23
13:34:46:504724,-20,78,1,4,8,-8,-41,-23
13:34:46:512120,14,80,-8,-11,-1,-2,56,-7
13:34:46:519597,-16,-10,-22,27,11,9,-7,-9
13:34:46:527891,-16,-10,-22,27,11,9,-7,-9
13:34:46:528623,15,-17,41,10,-22,-4,-7,38
13:34:46:542862,44,-40,-53,-28,-9,-3,-2,38
13:34:46:543618,44,-40,-53,-28,-9,-3,-2,38
13:34:46:549655,22,9,39,-10,3,8,4,19
13:34:46:557120,34,-90,-55,-1,-16,-26,-40,-5
13:34:46:564744,34,-90,-55,-1,-16,-26,-40,-5
13:34:46:572103,21,-25,6,-7,-28,-20,-25,-4
13:34:46:579613,-4,-22,-35,-22,-21,-30,-33,-3
13:34:46:587855,-4,-22,-35,-22,-21,-30,-33,-3
13:34:46:588725,54,90,76,73,37,31,84,-8
13:34:46:602891,-36,20,66,49,12,-22,-28,24
13:34:46:603739,-36,20,66,49,12,-22,-28,24
13:34:46:609610,-6,-52,-7,-54,-26,-3,-43,38
13:34:46:617138,-71,-33,-10,2,11,11,41,-33
13:34:46:624726,-71,-33,-10,2,11,11,41,-33
13:34:46:632135,-70,-64,-10,-23,-28,-24,-63,-66
13:34:46:639653,-15,-31,-30,-25,1,-37,-19,-26
13:34:46:647886,-15,-31,-30,-25,1,-37,-19,-26
13:34:46:648732,1,-44,-8,-2,21,18,40,22
13:34:46:662858,35,127,83,50,-8,12,31,-76
13:34:46:663726,35,127,83,50,-8,12,31,-76
13:34:46:669599,5,115,-45,32,20,-8,-38,28
13:34:46:677108,11,-12,25,-17,2,0,48,-11
13:34:46:684728,11,-12,25,-17,2,0,48,-11
13:34:46:692130,-73,-120,-65,-52,-6,-16,-11,-18
13:34:46:699629,-27,0,-34,-28,-19,-13,-29,7
13:34:46:707894,-27,0,-34,-28,-19,-13,-29,7
13:34:46:708615,64,-95,-82,-16,3,7,-5,6
13:34:46:722781,-66,-4,-46,-55,-3,35,57,18
13:34:46:723638,-66,-4,-46,-55,-3,35,57,18
13:34:46:729638,-29,44,16,18,15,-2,-21,-34
13:34:46:737110,41,47,-33,-12,4,3,0,30
13:34:46:744759,41,47,-33,-12,4,3,0,30
13:34:46:752121,-8,61,62,42,7,5,40,-4
13:34:46:759732,43,-2,53,12,-7,0,-54,26
13:34:46:767868,43,-2,53,12,-7,0,-54,26
13:34:46:768602,27,-50,37,42,-22,-22,-25,-12
13:34:46:782750,-31,27,-91,-24,8,-3,-19,-27
13:34:46:783623,-31,27,-91,-24,8,-3,-19,-27
13:34:46:789640,-9,8,-22,-8,-21,14,34,-11
13:34:46:797171,46,41,79,9,-1,-19,-19,33
13:34:46:804742,46,41,79,9,-1,-19,-19,33
13:34:46:812105,-27,5,27,12,21,0,4,-33
13:34:46:819628,-29,-38,36,19,-7,-1,-7,66
13:34:46:827906,-29,-38,36,19,-7,-1,-7,66
13:34:46:828649,23,18,9,-5,37,19,-27,20
13:34:46:842866,10,-11,-37,-35,2,13,-10,-2
13:34:46:843607,10,-11,-37,-35,2,13,-10,-2
13:34:46:849622,-18,127,58,7,12,9,12,-15
13:34:46:857116,-14,-121,-71,-30,-51,-37,36,-33
13:34:46:864752,-14,-121,-71,-30,-51,-37,36,-33
13:34:46:872118,-32,-72,3,1,9,0,-69,-22
13:34:46:879620,-59,7,3,-22,-7,-8,26,-64
13:34:46:887871,-59,7,3,-22,-7,-8,26,-64
13:34:46:888746,34,19,-29,-23,-12,-2,-11,14
13:34:46:902867,-6,28,16,-4,-4,17,50,-3
13:34:46:903727,-6,28,16,-4,-4,17,50,-3
13:34:46:909606,10,-15,-28,-9,-8,-2,22,49
13:34:46:917155,0,119,39,86,34,2,-8,-13
13:34:46:924764,0,119,39,86,34,2,-8,-13
13:34:46:932161,-5,2,11,-19,-6,-31,-52,5
13:34:46:939631,-7,-69,-2,14,12,18,-3,48
13:34:46:947788,-7,-69,-2,14,12,18,-3,48
13:34:46:948653,-39,24,59,-10,-18,-27,-17,-38
13:34:46:962849,18,6,-29,-19,-4,-13,-54,69
13:34:46:963754,18,6,-29,-19,-4,-13,-54,69
13:34:46:969615,2,-61,62,53,-9,-2,30,-9
13:34:46:977105,-25,1,-45,-43,-19,-31,6,-4
13:34:46:984632,-25,1,-45,-43,-19,-31,6,-4
13:34:46:992113,-20,-32,-29,-2,-3,1,33,-15
13:34:46:999638,15,-128,-114,-38,-38,15,15,-38
13:34:47:7863,15,-128,-114,-38,-38,15,15,-38
13:34:47:8621,30,78,-19,-12,4,7,49,15
13:34:47:22749,57,44,19,6,15,7,-17,-10
13:34:47:23622,57,44,19,6,15,7,-17,-10
13:34:47:29755,-23,-128,-115,-69,-34,-17,-23,1
13:34:47:37137,13,11,-24,-67,-35,-30,1,-14
13:34:47:44730,13,11,-24,-67,-35,-30,1,-14
13:34:47:52138,-20,-92,-98,6,19,-7,-9,7
13:34:47:59596,-5,13,60,11,13,18,-9,-4
13:34:47:67926,-5,13,60,11,13,18,-9,-4
13:34:47:68625,88,127,75,24,15,26,35,11
13:34:47:82769,-58,-8,77,48,6,-4,-64,-20
13:34:47:83617,-58,-8,77,48,6,-4,-64,-20
13:34:47:89628,-57,26,-33,-14,10,-7,-42,4
13:34:47:97108,-9,-43,29,11,1,-9,5,4
13:34:47:104766,-9,-43,29,11,1,-9,5,4
13:34:47:112114,20,17,39,-9,-15,15,55,-10
13:34:47:119621,-1,77,-3,54,-3,-20,-35,-72
13:34:47:127881,-1,77,-3,54,-3,-20,-35,-72
13:34:47:128763,-14,37,-46,-26,16,1,-36,-15
13:34:47:142868,34,-49,-13,-14,-18,-5,49,-7
13:34:47:143618,34,-49,-13,-14,-18,-5,49,-7
13:34:47:149644,13,90,60,16,7,-5,40,2
13:34:47:157111,-31,1,-17,-6,22,14,-19,37
13:34:47:164758,-31,1,-17,-6,22,14,-19,37
13:34:47:172117,43,18,78,15,-2,7,-13,23
13:34:47:179638,11,3,15,26,-28,-9,1,-31
13:34:47:187857,11,3,15,26,-28,-9,1,-31
13:34:47:188735,9,-84,18,-12,-7,-4,-30,-12
13:34:47:202889,10,-15,-61,30,32,20,-35,-31
13:34:47:203747,10,-15,-61,30,32,20,-35,-31
13:34:47:209612,-25,-76,-54,-4,-33,-15,23,-26
13:34:47:217158,-51,-109,-63,-36,0,-8,11,9
13:34:47:224726,-51,-109,-63,-36,0,-8,11,9
13:34:47:232101,-35,-90,14,7,3,13,43,-16
13:34:47:239629,-25,-84,-58,-11,5,-17,-16,3
13:34:47:247786,-25,-84,-58,-11,5,-17,-16,3
13:34:47:248708,-20,-84,-59,-14,-26,-17,-32,15
13:34:47:262905,-6,57,-17,48,26,27,29,24
13:34:47:263745,-6,57,-17,48,26,27,29,24
13:34:47:269618,-13,16,39,27,28,-5,4,9
13:34:47:277098,60,6,79,-28,-35,2,26,-43
13:34:47:284631,60,6,79,-28,-35,2,26,-43
13:34:47:292116,21,78,22,3,11,-1,-10,1
13:34:47:299689,-10,77,58,28,22,13,14,33
13:34:47:307857,-10,77,58,28,22,13,14,33
13:34:47:308614,52,70,23,2,8,8,8,-6
13:34:47:322754,7,-69,36,2,-15,-25,4,-8
13:34:47:323618,7,-69,36,2,-15,-25,4,-8
13:34:47:329612,19,-40,-41,-25,-16,-13,-31,8
13:34:47:345266,-26,-42,-7,49,31,21,9,15
13:34:47:346138,-26,-42,-7,49,31,21,9,15
13:34:47:352133,-50,-103,-8,-7,-20,-7,3,20
13:34:47:359614,34,82,17,-40,-13,-6,-33,29
13:34:47:367189,34,82,17,-40,-13,-6,-33,29
13:34:47:383556,6,-44,-2,0,-19,-40,-26,13
13:34:47:384271,-7,-3,-30,6,7,21,-6,-18
13:34:47:385123,-7,-3,-30,6,7,21,-6,-18
13:34:47:389603,57,44,12,16,21,25,16,45
13:34:47:405355,6,42,51,5,-3,-23,-7,-5
13:34:47:406115,6,42,51,5,-3,-23,-7,-5
13:34:47:412114,-50,-41,-15,-18,-27,-19,3,-64
13:34:47:419621,37,33,19,-12,26,12,8,28
13:34:47:427149,37,33,19,-12,26,12,8,28
13:34:47:434651,30,-41,-67,-19,10,25,2,-12
13:34:47:442756,-13,-57,-11,-42,-34,-2,-4,-2
13:34:47:443634,-13,-57,-11,-42,-34,-2,-4,-2
13:34:47:449635,18,-37,-40,-22,6,4,35,6
13:34:47:465237,12,-36,-20,8,25,11,-4,1
13:34:47:466127,12,-36,-20,8,25,11,-4,1
13:34:47:472115,5,-6,-58,-28,-21,0,-26,-14
13:34:47:479628,-16,37,-26,16,-6,-12,48,7
13:34:47:487109,-16,37,-26,16,-6,-12,48,7
13:34:47:494634,-14,35,72,20,11,-1,-86,9
13:34:47:502749,1,-14,16,-1,3,-31,-31,22
13:34:47:503617,1,-14,16,-1,3,-31,-31,22
13:34:47:509608,8,35,14,-31,-8,-9,-8,9
13:34:47:525236,9,-40,-1,-27,-20,12,27,3
13:34:47:526098,9,-40,-1,-27,-20,12,27,3
13:34:47:532116,-66,66,35,-12,-27,-2,-1,3
13:34:47:539633,11,101,38,12,12,2,18,12
13:34:47:547180,11,101,38,12,12,2,18,12
13:34:47:554621,-36,-4,7,-11,-17,-13,4,-15
13:34:47:562887,-25,70,29,13,4,6,-54,-35
13:34:47:563605,-25,70,29,13,4,6,-54,-35
13:34:47:569623,1,48,4,27,10,-12,-41,41
13:34:47:585265,34,6,-61,-6,9,13,40,-6
13:34:47:586110,34,6,-61,-6,9,13,40,-6
13:34:47:592134,-3,1,-35,6,20,31,107,16
13:34:47:599614,-11,-55,-41,-81,-14,-25,-14,1
13:34:47:607141,-11,-55,-41,-81,-14,-25,-14,1
13:34:47:614631,13,22,-44,10,7,-25,-40,-49
13:34:47:622865,2,-2,10,13,-32,-20,-23,-14
13:34:47:623747,2,-2,10,13,-32,-20,-23,-14
13:34:47:629619,51,-66,-21,-22,-9,10,0,-4
13:34:47:645293,-30,80,35,-21,-13,-14,8,21
13:34:47:646132,-30,80,35,-21,-13,-14,8,21
13:34:47:652181,-4,-75,31,27,7,10,-2,-14
13:34:47:659619,83,2,59,40,46,9,75,52
13:34:47:667129,83,2,59,40,46,9,75,52
13:34:47:674608,17,50,32,3,-2,9,64,26
13:34:47:682772,-58,-63,4,-3,-21,3,0,15
13:34:47:683625,-58,-63,4,-3,-21,3,0,15
13:34:47:689615,-13,-67,-84,-12,21,9,4,-4
13:34:47:705370,55,-41,8,5,-19,2,-24,-8
13:34:47:706110,55,-41,8,5,-19,2,-24,-8
13:34:47:712136,27,82,64,36,-11,-2,21,-9
13:34:47:719631,-45,-54,-36,-26,-19,-23,-101,-35
13:34:47:727129,-45,-54,-36,-26,-19,-23,-101,-35
13:34:47:734652,-3,-14,-15,-9,3,29,-5,-18
13:34:47:742735,-18,8,22,-3,-13,-12,24,-22
13:34:47:743608,-18,8,22,-3,-13,-12,24,-22
13:34:47:749659,-18,-55,8,11,25,26,15,10
13:34:47:765361,-10,17,2,20,26,15,-3,1
13:34:47:766157,-10,17,2,20,26,15,-3,1
13:34:47:772137,-24,-18,30,27,13,-5,29,-38
13:34:47:779627,30,102,6,2,-4,-16,5,27
13:34:47:787148,30,102,6,2,-4,-16,5,27
13:34:47:794620,-39,21,23,-3,-2,-18,-50,-18
13:34:47:802764,8,-29,27,46,27,35,41,18
13:34:47:803621,8,-29,27,46,27,35,41,18
13:34:47:809621,29,-4,44,13,-17,-8,-49,-10
13:34:47:825288,-22,-26,-28,-54,-29,-40,-15,-9
13:34:47:826131,-22,-26,-28,-54,-29,-40,-15,-9
13:34:47:832138,12,3,48,21,4,5,-13,22
13:34:47:839620,-4,-44,-107,-14,-13,-11,-4,-12
13:34:47:847181,-4,-44,-107,-14,-13,-11,-4,-12
13:34:47:854629,21,-34,-91,-11,-12,-16,18,-6
13:34:47:862871,-33,-19,-19,4,-16,4,-25,-9
13:34:47:863623,-33,-19,-19,4,-16,4,-25,-9
13:34:47:869638,47,101,29,-8,56,26,41,53
13:34:47:885261,2,102,67,19,28,40,-4,18
13:34:47:886111,2,102,67,19,28,40,-4,18
13:34:47:892120,-18,69,28,-21,-37,-30,30,4
13:34:47:899639,-17,-34,16,-3,2,9,-4,-29
13:34:47:907122,-17,-34,16,-3,2,9,-4,-29
13:34:47:914620,7,35,24,13,-12,8,8,21
13:34:47:922884,52,34,10,36,33,35,9,-34
13:34:47:923755,52,34,10,36,33,35,9,-34
13:34:47:929636,0,50,2,-25,-12,3,12,25
13:34:47:945389,12,10,-6,-9,-2,10,76,3
13:34:47:946113,12,10,-6,-9,-2,10,76,3
13:34:47:952155,31,103,32,-7,25,-7,17,-41
13:34:47:959633,-55,-55,-71,-38,-24,-16,-18,9
13:34:47:967293,-55,-55,-71,-38,-24,-16,-18,9
13:34:47:974614,-9,-111,-125,-10,-22,-10,-10,-75
13:34:47:982773,82,64,47,-3,3,-25,-8,-7
13:34:47:983644,82,64,47,-3,3,-25,-8,-7
13:34:47:989616,28,15,103,9,4,3,-46,11
13:34:48:5391,-47,-25,35,47,-2,-17,-52,-55
13:34:48:6183,-47,-25,35,47,-2,-17,-52,-55
13:34:48:12120,-14,-78,-93,-7,-3,-18,-26,-15
13:34:48:27907,-14,-78,-93,-7,-3,-18,-26,-15
13:34:48:28771,-6,-19,10,-10,-1,1,24,31
13:34:48:34647,-49,8,28,-3,10,-8,-24,7
13:34:48:42750,-49,8,28,-3,10,-8,-24,7
13:34:48:43622,6,64,22,-12,9,3,-24,38
13:34:48:49643,-8,-52,-90,-5,-13,-6,-50,12
13:34:48:65447,-8,-52,-90,-5,-13,-6,-50,12
13:34:48:66124,-25,-49,-36,-31,-23,-9,2,4
13:34:48:72122,-33,61,79,11,10,0,-7,46
13:34:48:87900,-33,61,79,11,10,0,-7,46
13:34:48:88624,53,-58,-57,0,-2,3,-8,13
13:34:48:94633,20,-46,-14,16,3,10,43,1
13:34:48:102896,20,-46,-14,16,3,10,43,1
13:34:48:103774,16,6,-8,17,12,-22,60,-14
13:34:48:109646,-19,11,-8,-32,5,18,-22,-9
13:34:48:125412,-19,11,-8,-32,5,18,-22,-9
13:34:48:126115,12,-85,-14,26,-27,-7,38,-11
13:34:48:132150,7,2,72,8,-2,16,-6,-7
13:34:48:147931,7,2,72,8,-2,16,-6,-7
13:34:48:148638,-53,15,-39,-25,-3,5,15,34
13:34:48:154630,-34,39,-35,6,-3,19,5,17
13:34:48:162924,-34,39,-35,6,-3,19,5,17
13:34:48:163759,-46,0,43,-46,-16,-4,-22,-67
13:34:48:169637,40,14,20,15,4,-1,5,28
13:34:48:185384,40,14,20,15,4,-1,5,28
13:34:48:186125,-34,-5,-51,-16,3,-15,-93,0
13:34:48:192144,-31,-28,-37,3,-24,-14,-78,-42
13:34:48:207896,-31,-28,-37,3,-24,-14,-78,-42
13:34:48:208623,35,49,27,19,11,17,-47,-5
13:34:48:214643,-12,56,51,1,-8,-15,52,-12
13:34:48:222871,-12,56,51,1,-8,-15,52,-12
13:34:48:223619,-63,91,9,22,30,49,34,11
13:34:48:229633,18,-87,-30,2,-10,-2,51,-14
13:34:48:245370,18,-87,-30,2,-10,-2,51,-14
13:34:48:246126,66,-58,7,-36,6,4,2,24
13:34:48:252165,-9,-46,-29,-31,-9,8,10,-9
13:34:48:267796,-9,-46,-29,-31,-9,8,10,-9
13:34:48:268622,-11,-37,-54,15,14,4,-1,12
13:34:48:274612,19,-106,-41,-15,-12,12,8,17
13:34:48:282912,19,-106,-41,-15,-12,12,8,17
13:34:48:283616,-63,-59,0,9,-12,0,-3,-6
13:34:48:297142,41,75,7,8,5,0,20,26
13:34:48:305367,41,75,7,8,5,0,20,26
13:34:48:306114,9,14,44,8,10,5,2,-2
13:34:48:312141,-24,68,-42,22,6,-25,-10,-24
13:34:48:327760,-24,68,-42,22,6,-25,-10,-24
13:34:48:328630,8,49,50,7,-2,-12,-11,-12
13:34:48:334632,33,71,73,22,14,20,91,-22
13:34:48:342885,33,71,73,22,14,20,91,-22
13:34:48:343628,3,-20,-47,8,4,-6,-6,9
13:34:48:357137,4,-49,-1,-39,-15,-7,-69,29
13:34:48:365286,4,-49,-1,-39,-15,-7,-69,29
13:34:48:366131,1,36,41,3,-5,-4,0,-1
13:34:48:372119,-91,93,-18,3,0,7,-8,-76
13:34:48:387780,-91,93,-18,3,0,7,-8,-76
13:34:48:388621,19,-34,1,-8,-28,-14,-23,4
13:34:48:394646,-4,2,-57,-45,-2,8,-14,32
13:34:48:402785,-4,2,-57,-45,-2,8,-14,32
13:34:48:403641,18,64,-10,-10,-11,-8,7,-27
13:34:48:417144,0,-8,55,-3,-23,-22,16,19
13:34:48:425263,0,-8,55,-3,-23,-22,16,19
13:34:48:426115,-1,-59,36,7,16,-11,4,22
13:34:48:432128,17,-58,15,9,11,-19,0,-29
13:34:48:447902,17,-58,15,9,11,-19,0,-29
13:34:48:448770,72,68,60,18,-11,-3,40,38
13:34:48:454640,10,-45,3,11,-28,-3,-9,-31
13:34:48:462777,10,-45,3,11,-28,-3,-9,-31
13:34:48:463638,-10,50,17,20,13,8,45,-2
13:34:48:477145,-45,-104,-30,-38,-4,1,-1,18
13:34:48:485288,-45,-104,-30,-38,-4,1,-1,18
13:34:48:486124,-47,1,-23,-39,14,20,33,-55
13:34:48:492130,25,72,20,-14,-6,-3,-48,2
13:34:48:507875,25,72,20,-14,-6,-3,-48,2
13:34:48:508773,-25,-33,-9,-29,-7,-44,-70,-13
13:34:48:514644,-10,21,9,15,26,3,-20,-4
13:34:48:522755,-10,21,9,15,26,3,-20,-4
13:34:48:523689,40,-79,-18,10,-4,20,-52,-3
13:34:48:537130,-27,-79,-63,-10,6,4,-20,14
13:34:48:545378,-27,-79,-63,-10,6,4,-20,14
13:34:48:546126,-12,11,-30,-9,-34,-29,3,-4
13:34:48:552160,10,-42,-38,-11,19,9,51,-19
13:34:48:567896,10,-42,-38,-11,19,9,51,-19
13:34:48:568634,19,-1,19,23,5,-11,11,37
13:34:48:574618,12,7,35,24,2,11,-2,-35
13:34:48:582879,12,7,35,24,2,11,-2,-35
13:34:48:583765,3,15,41,18,10,28,9,-31
13:34:48:597149,6,42,12,7,11,-8,-15,43
13:34:48:605384,6,42,12,7,11,-8,-15,43
13:34:48:606147,10,-59,-84,-43,-8,9,31,-23
13:34:48:612161,-22,38,38,14,7,22,23,11
13:34:48:627895,-22,38,38,14,7,22,23,11
13:34:48:628635,-8,-19,-4,30,20,34,22,27
13:34:48:634629,2,-2,22,-30,-38,-52,-31,-31
13:34:48:642867,2,-2,22,-30,-38,-52,-31,-31
13:34:48:643614,-33,-21,-23,-2,36,6,-7,3
13:34:48:657131,-7,-23,-24,12,-12,-26,5,41
13:34:48:665440,-7,-23,-24,12,-12,-26,5,41
13:34:48:666176,-9,-57,-19,3,-21,-11,35,-9
13:34:48:672137,-34,25,-37,20,-4,-7,-33,3
13:34:48:688275,-34,25,-37,20,-4,-7,-33,3
13:34:48:689162,13,-52,-4,-18,1,20,-23,-23
13:34:48:694627,41,27,15,13,7,21,60,17
13:34:48:702914,41,27,15,13,7,21,60,17
13:34:48:703648,-18,80,39,32,29,15,-10,20
13:34:48:717145,3,-5,56,17,20,-4,-40,-9
13:34:48:725386,3,-5,56,17,20,-4,-40,-9
13:34:48:726148,19,-25,-49,-34,-33,-17,4,34
13:34:48:732155,-8,35,-27,13,10,56,45,-10
13:34:48:747901,-8,35,-27,13,10,56,45,-10
13:34:48:748633,5,64,23,5,-22,-33,14,-15
13:34:48:754639,-19,11,-1,-16,-12,-10,-35,-14
13:34:48:762875,-19,11,-1,-16,-12,-10,-35,-14
13:34:48:763655,-8,-33,-12,-14,18,10,-40,-44
13:34:48:777120,0,-8,-11,29,-3,-17,-18,-6
13:34:48:785307,0,-8,-11,29,-3,-17,-18,-6
13:34:48:786128,36,35,-7,28,18,9,18,20
13:34:48:792133,-14,-49,-10,-17,-10,-10,24,-31
13:34:48:807755,-14,-49,-10,-17,-10,-10,24,-31
13:34:48:808630,-18,18,14,-14,-11,-18,-65,9
13:34:48:814640,26,-18,-48,-15,5,14,-31,3
13:34:48:822874,26,-18,-48,-15,5,14,-31,3
13:34:48:823642,-20,0,37,-1,-3,-24,-68,-36
13:34:48:837148,10,67,59,-23,-15,-20,5,25
13:34:48:845279,10,67,59,-23,-15,-20,5,25
13:34:48:846126,-14,76,22,-18,-25,-3,-5,9
13:34:48:852189,10,27,38,10,36,29,26,-21
13:34:48:867800,10,27,38,10,36,29,26,-21
13:34:48:868645,4,52,11,3,-10,-8,7,-8
13:34:48:874630,-3,-1,-19,-13,-8,1,25,19
13:34:48:882775,-3,-1,-19,-13,-8,1,25,19
13:34:48:883631,-37,-29,35,-15,-13,4,35,17
13:34:48:897158,70,41,57,24,16,-15,-10,39
13:34:48:905267,70,41,57,24,16,-15,-10,39
13:34:48:906146,19,-82,-93,28,0,-10,58,18
13:34:48:912139,-10,-49,-25,-22,10,38,14,-18
13:34:48:927909,-10,-49,-25,-22,10,38,14,-18
13:34:48:928634,-5,16,18,-18,-2,21,51,40
13:34:48:934649,-18,49,10,2,11,-1,-4,45
13:34:48:942758,-18,49,10,2,11,-1,-4,45
13:34:48:943631,-38,30,-6,-20,-12,-3,-2,-2
13:34:48:957133,-2,-23,-10,1,-4,1,21,2
13:34:48:965414,-2,-23,-10,1,-4,1,21,2
13:34:48:966163,37,26,-15,31,-3,-18,-37,-13
13:34:48:972166,-27,-77,-89,-35,-26,-29,-12,-14
13:34:48:987968,-27,-77,-89,-35,-26,-29,-12,-14
13:34:48:988819,9,-9,33,13,7,14,31,-1
13:34:48:994653,19,-37,-32,-12,-15,0,18,6
13:34:49:2754,19,-37,-32,-12,-15,0,18,6
13:34:49:3621,3,-21,10,3,3,-14,-75,-17
13:34:49:17173,-67,21,-7,-17,-33,-21,8,-21
13:34:49:25387,-67,21,-7,-17,-33,-21,8,-21
13:34:49:26125,-65,-52,39,11,8,15,11,-5
13:34:49:32190,-18,-31,-8,0,-13,-15,-36,-55
13:34:49:47927,-18,-31,-8,0,-13,-15,-36,-55
13:34:49:48652,6,-95,-29,24,51,39,11,8
13:34:49:54638,7,62,78,18,-20,-12,20,18
13:34:49:62930,7,62,78,18,-20,-12,20,18
13:34:49:63808,12,6,-64,-13,3,-32,8,9
13:34:49:77125,-3,-47,1,13,12,16,-14,18
13:34:49:85415,-3,-47,1,13,12,16,-14,18
13:34:49:86136,54,52,21,-11,-16,-6,0,52
13:34:49:92122,13,-72,3,-6,15,6,-57,4
13:34:49:107900,13,-72,3,-6,15,6,-57,4
13:34:49:108663,20,18,-33,-37,5,12,29,-1
13:34:49:114664,23,-63,-39,22,7,-21,-24,10
13:34:49:122904,23,-63,-39,22,7,-21,-24,10
13:34:49:123665,-13,15,-11,14,-2,4,16,-76
13:34:49:137154,23,123,56,-5,8,-19,27,5
13:34:49:145386,23,123,56,-5,8,-19,27,5
13:34:49:146122,-11,25,-32,9,20,15,-36,-15
13:34:49:152179,-24,55,-2,80,-1,5,19,-2
13:34:49:167912,-24,55,-2,80,-1,5,19,-2
13:34:49:168679,-26,-35,22,-17,1,1,22,-3
13:34:49:174641,27,34,4,-20,13,17,-11,-1
13:34:49:182899,27,34,4,-20,13,17,-11,-1
13:34:49:183634,-39,-52,-12,-26,-30,-14,48,25
13:34:49:206020,-16,-41,12,-6,0,27,-72,19
13:34:49:206746,-16,-41,12,-6,0,27,-72,19
13:34:49:207653,-5,-77,8,-12,-2,-7,-66,-15
13:34:49:212151,7,33,-23,-36,-39,-11,-4,25
13:34:49:227921,7,33,-23,-36,-39,-11,-4,25
13:34:49:228778,58,55,66,33,15,-7,-15,-32
13:34:49:234662,17,26,0,7,-22,-35,-29,21
13:34:49:242144,17,26,0,7,-22,-35,-29,21
13:34:49:249684,-9,-19,-28,-6,-30,-29,46,-17
13:34:49:257120,6,-90,-8,7,52,26,19,10
13:34:49:265292,6,-90,-8,7,52,26,19,10
13:34:49:266149,-20,8,-50,-24,-19,-18,-45,-4
13:34:49:279652,7,-43,-62,-47,-20,-13,11,20
13:34:49:287769,7,-43,-62,-47,-20,-13,11,20
13:34:49:288671,-12,-43,30,-33,0,28,28,5
13:34:49:294643,18,-3,-28,-19,-2,-2,-23,-10
13:34:49:302146,18,-3,-28,-19,-2,-2,-23,-10
13:34:49:309625,-10,72,21,9,9,12,32,40
13:34:49:317155,-15,6,68,21,23,32,85,14
13:34:49:325397,-15,6,68,21,23,32,85,14
13:34:49:326141,48,57,-5,17,2,2,-21,18
13:34:49:339650,-40,9,-20,-7,11,-28,-42,-34
13:34:49:347779,-40,9,-20,-7,11,-28,-42,-34
13:34:49:348638,-10,-110,-29,8,0,-4,8,-84
13:34:49:354633,12,-58,-2,-14,-2,-3,-39,-30
13:34:49:362164,12,-58,-2,-14,-2,-3,-39,-30
13:34:49:369651,38,62,76,51,14,-11,-22,-8
13:34:49:377126,-10,-18,33,14,-14,7,13,-28
13:34:49:385407,-10,-18,33,14,-14,7,13,-28
13:34:49:386141,18,12,-13,-10,-21,-12,5,19
13:34:49:399663,-12,46,56,-1,-12,-3,-14,-22
13:34:49:407891,-12,46,56,-1,-12,-3,-14,-22
13:34:49:408629,-40,48,16,-7,19,8,-18,56
13:34:49:414647,-37,-67,33,31,-10,-21,2,-3
13:34:49:422142,-37,-67,33,31,-10,-21,2,-3
13:34:49:429662,10,-30,-20,12,-21,5,-14,0
13:34:49:437146,-2,43,22,30,12,-5,61,26
13:34:49:445388,-2,43,22,30,12,-5,61,26
13:34:49:446127,-15,74,-31,-16,-8,6,79,5
13:34:49:459623,-4,-33,23,-24,-11,-15,38,-2
13:34:49:467904,-4,-33,23,-24,-11,-15,38,-2
13:34:49:468673,-14,-41,25,-24,-9,-4,-58,-14
13:34:49:474653,-2,18,-37,8,11,-19,5,-3
13:34:49:482148,-2,18,-37,8,11,-19,5,-3
13:34:49:489653,-5,-91,-10,10,21,4,-52,-22
13:34:49:497156,3,-64,-90,-38,-7,14,-7,9
13:34:49:505301,3,-64,-90,-38,-7,14,-7,9
13:34:49:506140,18,5,-26,-14,0,-11,-18,1
13:34:49:520142,16,36,-9,-5,-1,-11,-56,5
13:34:49:527902,16,36,-9,-5,-1,-11,-56,5
13:34:49:528781,-27,-22,12,1,-12,-8,-1,-11
13:34:49:534662,-14,18,4,7,-6,30,43,-8
13:34:49:542146,-14,18,4,7,-6,30,43,-8
13:34:49:549703,-3,5,-7,-20,-22,23,90,8
13:34:49:557155,-2,-22,0,19,55,40,-34,3
13:34:49:565302,-2,-22,0,19,55,40,-34,3
13:34:49:566187,13,36,26,6,2,-26,-50,0
13:34:49:579637,-23,0,-78,-24,-34,-9,17,-84
13:34:49:587758,-23,0,-78,-24,-34,-9,17,-84
13:34:49:588646,1,-61,-70,-47,-15,-12,-23,-5
13:34:49:594674,44,48,35,-5,11,-5,-15,48
13:34:49:602197,44,48,35,-5,11,-5,-15,48
13:34:49:609661,5,-60,3,20,-24,-7,-5,6
13:34:49:617147,-1,-19,14,5,31,-2,-16,-9
13:34:49:625399,-1,-19,14,5,31,-2,-16,-9
13:34:49:626158,-20,97,-24,11,6,-16,-41,-27
13:34:49:639664,-1,22,27,-7,-27,12,15,4
13:34:49:647766,-1,22,27,-7,-27,12,15,4
13:34:49:648642,37,-41,-10,3,16,-4,-39,-1
13:34:49:654641,4,9,0,4,-10,-4,18,25
13:34:49:662136,4,9,0,4,-10,-4,18,25
13:34:49:669640,-41,2,10,19,24,11,31,-9
13:34:49:677140,-27,3,19,1,-17,-16,0,-2
13:34:49:685387,-27,3,19,1,-17,-16,0,-2
13:34:49:686166,44,89,60,-10,27,20,1,6
13:34:49:699678,22,125,46,3,-26,-1,86,-11
13:34:49:707880,22,125,46,3,-26,-1,86,-11
13:34:49:708617,5,46,-27,-11,-17,1,72,19
13:34:49:714670,-8,-52,-26,-13,-18,-29,-19,19
13:34:49:722157,-8,-52,-26,-13,-18,-29,-19,19
13:34:49:729660,-14,3,31,22,14,21,51,16
13:34:49:737142,-33,-87,17,31,29,10,-27,20
13:34:49:745279,-33,-87,17,31,29,10,-27,20
13:34:49:746186,-57,-60,12,-26,-40,-20,18,-48
13:34:49:759647,-20,-40,10,-23,-6,-6,-73,-45
13:34:49:767938,-20,-40,10,-23,-6,-6,-73,-45
13:34:49:768665,10,-89,-23,21,21,4,-27,22
13:34:49:774646,12,-78,-19,5,7,-15,10,24
13:34:49:782150,12,-78,-19,5,7,-15,10,24
13:34:49:789651,-15,-48,26,-22,-26,-28,1,-12
13:34:49:797166,14,-1,-6,-5,9,20,9,-6
13:34:49:805278,14,-1,-6,-5,9,20,9,-6
13:34:49:806128,23,63,12,8,6,-3,44,71
13:34:49:819649,-24,50,-35,-51,-32,-20,-29,-14
13:34:49:827761,-24,50,-35,-51,-32,-20,-29,-14
13:34:49:828644,3,-2,-4,72,42,6,-61,-30
13:34:49:834653,-9,-45,-67,-16,-15,-22,-10,-43
13:34:49:842146,-9,-45,-67,-16,-15,-22,-10,-43
13:34:49:849680,-100,-79,-59,-14,-4,-5,-102,-9
13:34:49:857137,25,-46,-25,29,4,6,-8,3
13:34:49:865284,25,-46,-25,29,4,6,-8,3
13:34:49:866149,34,93,27,-8,46,37,-16,31
13:34:49:879642,6,11,35,12,7,5,-6,-28
13:34:49:887775,6,11,35,12,7,5,-6,-28
13:34:49:888646,-20,-49,13,-8,-25,-15,-32,-2
13:34:49:894649,46,20,1,-10,29,20,37,45
13:34:49:902181,46,20,1,-10,29,20,37,45
13:34:49:909632,-27,21,-14,-16,-39,0,27,-12
13:34:49:917173,-25,-14,-3,-6,-27,6,-5,19
13:34:49:925399,-25,-14,-3,-6,-27,6,-5,19
13:34:49:926153,-7,-28,-5,-12,15,-1,16,-23
13:34:49:939647,32,64,-45,-39,-16,-12,31,41
13:34:49:947777,32,64,-45,-39,-16,-12,31,41
13:34:49:948671,28,20,10,-23,-34,11,32,-17
13:34:49:954636,51,3,26,8,33,-15,58,52
13:34:49:962160,51,3,26,8,33,-15,58,52
13:34:49:969638,2,82,-28,-12,-10,-30,-16,6
13:34:49:977144,-33,57,-2,-16,-4,9,-32,-30
13:34:49:992778,-33,57,-2,-16,-4,9,-32,-30
13:34:49:993632,27,24,9,14,0,3,59,16
13:34:49:999670,-57,29,-30,44,24,-2,-41,-63
13:34:50:7882,-57,29,-30,44,24,-2,-41,-63
13:34:50:8624,-33,36,21,3,-5,14,70,4
13:34:50:14661,23,89,51,13,-11,5,-26,-35
13:34:50:22143,23,89,51,13,-11,5,-26,-35
13:34:50:29677,4,-80,-12,18,3,-12,-53,35
13:34:50:37133,-36,-15,5,-9,-4,-21,-8,-13
13:34:50:45308,-36,-15,5,-9,-4,-21,-8,-13
13:34:50:46164,42,25,41,9,-17,-5,23,-19
13:34:50:59630,-19,-77,30,4,-9,-2,-34,-8
13:34:50:67913,-19,-77,30,4,-9,-2,-34,-8
13:34:50:68668,-20,-122,-72,-15,6,13,52,-11
13:34:50:74674,56,15,27,10,-6,20,-18,41
13:34:50:82163,56,15,27,10,-6,20,-18,41
13:34:50:89650,-26,-59,-26,-26,-2,6,4,2
13:34:50:97131,-36,-5,-26,-18,3,1,83,-17
13:34:50:105286,-36,-5,-26,-18,3,1,83,-17
13:34:50:106146,28,-17,-27,-36,-13,-6,-14,-25
