Time,EMG1,EMG2,EMG3,EMG4,EMG5,EMG6,EMG7,EMG8
18:20:44:989962,0,-1,2,-1,-1,-1,-1,-1
18:20:44:998235,-1,-2,0,0,-2,-2,-1,-1
18:20:44:998992,-1,-2,0,0,-2,-2,-1,-1
18:20:45:12479,-1,1,-2,-2,-2,1,0,-1
18:20:45:20720,1,-4,-1,-1,-1,0,-2,0
18:20:45:21525,1,-4,-1,-1,-1,0,-2,0
18:20:45:27472,0,-2,-1,0,0,0,-2,-2
18:20:45:35003,-1,-2,-3,-2,-1,-2,0,-2
18:20:45:42591,-1,-2,-3,-2,-1,-2,0,-2
18:20:45:49996,0,1,-1,-1,1,-1,0,-2
18:20:45:58221,-3,-2,-1,0,-2,-2,0,0
18:20:45:59087,-3,-2,-1,0,-2,-2,0,0
18:20:45:64969,-3,-4,0,-2,-1,0,0,-1
18:20:45:80729,-2,1,-1,1,-1,0,-1,-2
18:20:45:81493,-2,1,-1,1,-1,0,-1,-2
18:20:45:95721,0,1,-1,-1,-1,-2,-1,1
18:20:45:96450,-1,-2,1,-1,0,-1,-2,0
18:20:45:102623,-1,-2,1,-1,0,-1,-2,0
18:20:45:109979,-2,0,-2,1,-2,-2,-3,-2
18:20:45:118216,-1,-2,-1,-3,-1,0,0,-2
18:20:45:118982,-1,-2,-1,-3,-1,0,0,-2
18:20:45:124972,-1,-2,-1,-2,-2,0,-2,-1
18:20:45:140755,-2,-1,0,-1,-1,-1,-1,0
18:20:45:141499,-2,-1,0,-1,-1,-1,-1,0
18:20:45:147492,-2,-4,0,1,0,-2,0,-1
18:20:45:154976,-1,-1,-3,0,0,-1,-1,0
18:20:45:162589,-1,-1,-3,0,0,-1,-1,0
18:20:45:169979,0,0,-1,-3,0,0,-1,0
18:20:45:178293,-1,1,-1,-3,-2,-1,0,-1
18:20:45:179141,-1,1,-1,-3,-2,-1,0,-1
18:20:45:185051,-1,-2,1,-2,-1,-1,1,-1
18:20:45:200738,-1,-1,-1,-2,-2,0,-2,0
18:20:45:201485,-1,-1,-1,-2,-2,0,-2,0
18:20:45:207489,-1,-2,-3,0,-2,-2,-1,-1
18:20:45:214995,0,-1,0,-2,-3,-1,-1,0
18:20:45:222610,0,-1,0,-2,-3,-1,-1,0
18:20:45:229987,1,1,-1,-3,-1,-1,-1,1
18:20:45:238239,0,-9,1,1,0,0,-1,-1
18:20:45:239039,0,-9,1,1,0,0,-1,-1
18:20:45:244978,-2,-1,-2,1,-1,0,-2,-1
18:20:45:260741,0,1,-3,-1,1,-1,-1,-2
18:20:45:261613,0,1,-3,-1,1,-1,-1,-2
18:20:45:267491,0,1,0,-1,-2,-1,-4,-1
18:20:45:274971,-1,0,1,0,1,0,0,0
18:20:45:282639,-1,0,1,0,1,0,0,0
18:20:45:289994,0,0,-2,-1,-1,-2,-1,-1
18:20:45:298251,0,1,0,-3,0,-1,-1,-3
18:20:45:298971,0,1,0,-3,0,-1,-1,-3
18:20:45:312536,0,-1,-1,0,0,1,-1,0
18:20:45:320748,-2,-1,-2,-2,0,-2,-2,-2
18:20:45:321520,-2,-1,-2,-2,0,-2,-2,-2
18:20:45:327496,-3,-2,0,-1,-1,-2,0,-1
18:20:45:343263,-1,0,-2,1,-2,1,0,2
18:20:45:344112,-1,0,-2,1,-2,1,0,2
18:20:45:350029,-1,-3,-1,0,-2,-2,-1,-1
18:20:45:358236,0,-3,-2,-2,-1,-2,-1,-2
18:20:45:358981,0,-3,-2,-2,-1,-2,-1,-2
18:20:45:373003,0,-1,-2,-1,1,-1,-1,-2
18:20:45:380757,-2,1,-2,0,-2,-2,-1,-2
18:20:45:381635,-2,1,-2,0,-2,-2,-1,-2
18:20:45:387487,-1,0,-3,-2,-1,-1,-1,0
18:20:45:403227,-1,-1,-2,1,0,-1,-1,-1
18:20:45:404111,-1,-1,-2,1,0,-1,-1,-1
18:20:45:409995,0,-2,0,-1,0,-1,-2,-1
18:20:45:418291,-1,-2,0,-1,-2,-1,0,0
18:20:45:419145,-1,-2,0,-1,-2,-1,0,0
18:20:45:432514,-1,1,0,0,-2,0,-1,-1
18:20:45:440730,-2,-8,0,1,-1,-1,-1,-1
18:20:45:441595,-2,-8,0,1,-1,-1,-1,-1
18:20:45:447505,-1,-1,-1,-1,-2,2,-1,-2
18:20:45:463248,-2,1,0,-1,0,-1,0,0
18:20:45:464007,-2,1,0,-1,0,-1,0,0
18:20:45:470080,-1,-1,-1,-2,0,-2,-2,0
18:20:45:478340,-1,-1,-1,-2,0,-2,-2,0
18:20:45:479117,1,0,-2,-1,-2,0,0,1
18:20:45:492480,-3,0,-2,0,-1,-2,1,0
18:20:45:500767,-3,0,-2,0,-1,-2,1,0
18:20:45:501627,-1,1,-2,-2,-1,-2,-2,0
18:20:45:507489,0,-9,0,0,-1,0,-1,-3
18:20:45:523231,0,-9,0,0,-1,0,-1,-3
18:20:45:523970,-2,-1,0,1,-2,-1,-1,-3
18:20:45:529985,-2,1,1,-1,-2,-2,-1,-2
18:20:45:538259,-2,1,1,-1,-2,-2,-1,-2
18:20:45:538989,-1,0,-1,-1,-2,-2,-3,0
18:20:45:552530,2,-1,-1,-1,-1,-1,-1,-1
18:20:45:568914,2,-1,-1,-1,-1,-1,-1,-1
18:20:45:569827,0,2,-1,0,-1,-1,-1,-2
18:20:45:570495,1,4,0,0,-1,-2,-1,-1
18:20:45:583233,1,4,0,0,-1,-2,-1,-1
18:20:45:583992,-1,0,-2,0,1,0,-1,-3
18:20:45:590027,-1,-1,-1,1,0,-4,-4,0
18:20:45:598244,-1,-1,-1,1,0,-4,-4,0
18:20:45:598997,0,-3,-2,-4,-1,-2,-1,1
18:20:45:621377,0,-2,-1,-1,-4,-2,0,-1
18:20:45:622211,0,-2,-1,-1,-4,-2,0,-1
18:20:45:622980,-5,-4,-4,-1,-3,-3,1,-4
18:20:45:627468,5,13,18,14,4,2,-2,-7
18:20:45:643719,5,13,18,14,4,2,-2,-7
18:20:45:644463,1,-1,0,0,-2,1,9,-10
18:20:45:649983,1,-1,-8,-5,-1,3,12,0
18:20:45:665729,1,-1,-8,-5,-1,3,12,0
18:20:45:666489,-2,1,1,1,-3,-2,-5,10
18:20:45:672479,-3,-7,-5,-3,-1,-1,-2,0
18:20:45:681091,-3,-7,-5,-3,-1,-1,-2,0
18:20:45:688240,5,-1,3,-2,-1,1,17,5
18:20:45:688977,0,-3,-7,-7,-3,-1,2,-10
18:20:45:703283,0,-3,-7,-7,-3,-1,2,-10
18:20:45:703983,-2,-1,-1,-3,-2,-4,-8,-3
18:20:45:709984,0,-2,-24,6,3,0,2,29
18:20:45:725718,0,-2,-24,6,3,0,2,29
18:20:45:726475,1,2,29,-1,0,-1,-6,-3
18:20:45:732481,-11,-19,-44,-39,-10,-9,-19,-9
18:20:45:740758,-11,-19,-44,-39,-10,-9,-19,-9
18:20:45:741485,1,-4,-5,6,1,2,0,-6
18:20:45:747485,1,18,38,22,4,3,18,-2
18:20:45:763220,1,18,38,22,4,3,18,-2
18:20:45:763966,-6,-43,-9,-9,0,2,2,52
18:20:45:769982,-2,-7,11,7,-4,-4,-10,3
18:20:45:785738,-2,-7,11,7,-4,-4,-10,3
18:20:45:786481,-2,8,3,1,5,6,34,-59
18:20:45:801404,-2,-26,-30,-6,-2,4,14,-3
18:20:45:802235,-2,-26,-30,-6,-2,4,14,-3
18:20:45:802987,0,19,-22,-1,-4,-6,-14,2
18:20:45:807480,4,43,35,-1,-1,-4,-12,-13
18:20:45:823224,4,43,35,-1,-1,-4,-12,-13
18:20:45:824088,-5,-15,-23,-13,-7,-6,-14,-6
18:20:45:829969,-3,-2,-8,3,-1,-3,-6,12
18:20:45:845754,-3,-2,-8,3,-1,-3,-6,12
18:20:45:846486,-1,11,11,0,1,1,-3,0
18:20:45:852494,-2,-7,6,1,-1,-2,-1,-3
18:20:45:860758,-2,-7,6,1,-1,-2,-1,-3
18:20:45:861600,-1,1,-2,-3,-2,-4,-12,-3
18:20:45:867511,0,-4,-2,-4,0,-2,-3,-5
18:20:45:891373,0,-4,-2,-4,0,-2,-3,-5
18:20:45:892237,-1,-2,-6,-5,-4,-3,-3,8
18:20:45:892990,-1,-2,4,-2,1,1,0,-1
18:20:45:905743,-1,-2,4,-2,1,1,0,-1
18:20:45:906481,0,2,4,3,-1,-2,0,0
18:20:45:921413,-2,-5,-5,0,0,2,5,-4
18:20:45:922239,-2,-5,-5,0,0,2,5,-4
18:20:45:922983,1,3,3,6,7,4,-3,0
18:20:45:927490,-2,-3,-6,-2,-5,-6,-7,2
18:20:45:943242,-2,-3,-6,-2,-5,-6,-7,2
18:20:45:944112,0,1,4,5,-7,0,1,-1
18:20:45:949982,-1,-3,3,9,9,3,-2,0
18:20:45:965734,-1,-3,3,9,9,3,-2,0
18:20:45:966486,-1,-1,0,-1,-5,0,-1,1
18:20:45:972482,-1,-2,0,3,0,1,0,-1
18:20:45:980716,-1,-2,0,3,0,1,0,-1
18:20:45:981605,0,0,-2,14,0,-2,-2,1
18:20:45:987473,-3,-2,-1,-4,-1,1,4,0
18:20:46:3236,-3,-2,-1,-4,-1,1,4,0
18:20:46:4093,0,2,1,-2,1,-1,1,0
18:20:46:9977,1,0,0,3,6,2,-3,-1
18:20:46:25772,1,0,0,3,6,2,-3,-1
18:20:46:26509,-1,-3,-1,-7,0,-4,-3,0
18:20:46:32480,-1,-1,0,-9,-10,-5,-4,-1
18:20:46:40768,-1,-1,0,-9,-10,-5,-4,-1
18:20:46:41635,-1,-1,-4,-17,-6,-7,-4,0
18:20:46:47477,-2,-3,0,-1,2,1,0,0
18:20:46:63224,-2,-3,0,-1,2,1,0,0
18:20:46:63974,-1,0,-2,3,1,0,-2,-1
18:20:46:70033,0,-1,-1,-4,-4,-4,-2,-1
18:20:46:85740,0,-1,-1,-4,-4,-4,-2,-1
18:20:46:86496,1,1,-2,-8,-1,-2,-3,0
18:20:46:92518,0,-1,0,1,0,-2,-1,1
18:20:46:100766,0,-1,0,1,0,-2,-1,1
18:20:46:101522,-1,1,2,4,6,3,0,-1
18:20:46:107506,-1,0,-1,-3,-3,-3,-4,-1
18:20:46:123240,-1,0,-1,-3,-3,-3,-4,-1
18:20:46:123988,-2,-3,-1,2,-1,-4,-2,-1
18:20:46:129987,-1,-1,-1,-1,-2,-2,-1,-1
18:20:46:145737,-1,-1,-1,-1,-2,-2,-1,-1
18:20:46:146471,0,0,-1,-2,0,-2,-3,-1
18:20:46:152524,0,-1,3,1,-3,-2,-2,-2
18:20:46:160778,0,-1,3,1,-3,-2,-2,-2
18:20:46:161520,-1,-2,-3,0,-3,-2,-6,-3
18:20:46:167547,1,0,-4,1,0,0,-1,-3
18:20:46:183240,1,0,-4,1,0,0,-1,-3
18:20:46:184007,0,-1,0,-1,3,-1,-1,2
18:20:46:190003,-2,-3,-3,0,-4,-2,0,1
18:20:46:205754,-2,-3,-3,0,-4,-2,0,1
18:20:46:206494,-3,1,-1,2,2,1,1,-2
18:20:46:221410,0,-2,-2,-2,0,-2,-2,-2
18:20:46:222124,0,-2,-2,-2,0,-2,-2,-2
18:20:46:222996,-2,-2,0,-1,-1,2,4,-3
18:20:46:227500,0,-2,-5,-3,-1,2,-2,-1
18:20:46:243755,0,-2,-5,-3,-1,2,-2,-1
18:20:46:244500,-1,-1,-1,0,-2,-1,-1,-1
18:20:46:250004,-2,0,-1,0,0,0,1,-1
18:20:46:265748,-2,0,-1,0,0,0,1,-1
18:20:46:266484,-3,-1,4,-2,0,3,2,-1
18:20:46:281364,-2,0,-2,-5,-5,-4,-2,2
18:20:46:282259,-2,0,-2,-5,-5,-4,-2,2
18:20:46:282987,1,-2,-2,-2,2,2,0,-1
18:20:46:295000,-2,-1,1,-1,-1,-1,-2,-1
18:20:46:303284,-2,-1,1,-1,-1,-1,-2,-1
18:20:46:304003,0,-2,-3,1,-1,-1,-2,0
18:20:46:309980,-1,0,-4,0,2,1,2,-1
18:20:46:326267,-1,0,-4,0,2,1,2,-1
18:20:46:326999,-2,0,-3,-3,-2,-1,-1,-2
18:20:46:332507,-1,-1,1,0,-1,0,-2,-1
18:20:46:340745,-1,-1,1,0,-1,0,-2,-1
18:20:46:341489,0,-1,0,1,-2,-4,-3,-2
18:20:46:355010,-1,1,3,-9,-8,-2,-1,-3
18:20:46:363225,-1,1,3,-9,-8,-2,-1,-3
18:20:46:363981,0,-3,-4,1,-4,-2,0,0
18:20:46:370057,0,-1,0,0,1,-1,-2,-1
18:20:46:385745,0,-1,0,0,1,-1,-2,-1
18:20:46:386482,0,1,1,1,-3,-5,-2,-1
18:20:46:392496,-2,-6,-16,-4,0,0,1,-1
18:20:46:400793,-2,-6,-16,-4,0,0,1,-1
18:20:46:401506,-1,0,-4,2,-3,-2,0,-2
18:20:46:415004,-1,1,0,-1,1,0,-3,-1
18:20:46:423241,-1,1,0,-1,1,0,-3,-1
18:20:46:423997,-1,-1,2,-1,-1,-1,-1,-1
18:20:46:429971,0,-12,5,5,-1,-2,-1,-1
18:20:46:445750,0,-12,5,5,-1,-2,-1,-1
18:20:46:446493,-1,-1,4,-3,-2,0,0,1
18:20:46:452518,-2,-2,-32,-4,-1,-1,-2,-3
18:20:46:460749,-2,-2,-32,-4,-1,-1,-2,-3
18:20:46:461517,-3,-25,-6,-5,0,0,0,-2
18:20:46:475507,0,1,28,20,4,2,0,0
18:20:46:483270,0,1,28,20,4,2,0,0
18:20:46:484032,-3,-3,-16,-27,-9,-6,-4,-14
18:20:46:489978,-7,3,-56,-3,0,1,1,-11
18:20:46:505748,-7,3,-56,-3,0,1,1,-11
18:20:46:506598,10,45,68,33,6,3,5,23
18:20:46:512491,-18,-1,7,-3,-1,0,1,-54
18:20:46:520771,-18,-1,7,-3,-1,0,1,-54
18:20:46:521532,2,-4,-55,-9,3,-2,-5,-55
18:20:46:535015,1,-1,7,-13,-3,-4,-5,25
18:20:46:543234,1,-1,7,-13,-3,-4,-5,25
18:20:46:544113,-4,8,52,21,4,5,8,51
18:20:46:550001,-6,-8,-13,-23,-1,1,51,-23
18:20:46:565764,-6,-8,-13,-23,-1,1,51,-23
18:20:46:566518,-4,-4,-25,-13,-3,-3,3,35
18:20:46:572479,28,-16,-33,5,1,-1,-22,120
18:20:46:580755,28,-16,-33,5,1,-1,-22,120
18:20:46:581500,1,-10,1,4,1,3,13,6
18:20:46:594976,-15,17,-3,10,3,6,33,-63
18:20:46:603255,-15,17,-3,10,3,6,33,-63
18:20:46:603998,0,-5,-45,-5,-3,-1,-9,11
18:20:46:610000,9,5,35,10,0,-3,-22,13
18:20:46:625756,9,5,35,10,0,-3,-22,13
18:20:46:626498,-10,-4,11,-14,-3,-4,-6,-42
18:20:46:632479,2,1,9,8,0,-1,2,-18
18:20:46:640736,2,1,9,8,0,-1,2,-18
18:20:46:641477,5,4,18,4,-2,-1,0,74
18:20:46:655044,3,-18,-3,3,-5,-6,-18,28
18:20:46:663232,3,-18,-3,3,-5,-6,-18,28
18:20:46:663970,-3,-3,-3,4,-3,-2,0,-3
18:20:46:670014,-9,-2,21,-12,-2,-1,-4,-22
18:20:46:685774,-9,-2,21,-12,-2,-1,-4,-22
18:20:46:686518,-1,-4,-7,-11,-1,0,14,8
18:20:46:692508,0,-5,8,-2,-1,0,-3,10
18:20:46:700773,0,-5,8,-2,-1,0,-3,10
18:20:46:701519,-1,-4,1,1,-1,-4,-11,-17
18:20:46:715013,-2,4,-4,-3,3,1,1,6
18:20:46:731393,-2,4,-4,-3,3,1,1,6
18:20:46:732133,-4,-9,-7,-4,-2,-1,-3,-22
18:20:46:733011,-1,1,19,-4,-5,-2,-8,-8
18:20:46:745756,-1,1,19,-4,-5,-2,-8,-8
18:20:46:746502,2,6,4,2,0,-3,-12,-18
18:20:46:752539,1,1,14,-6,-7,-5,-7,-1
18:20:46:760758,1,1,14,-6,-7,-5,-7,-1
18:20:46:761477,-2,3,0,5,3,3,2,-7
18:20:46:775005,-3,5,-2,4,2,1,-5,-3
18:20:46:783258,-3,5,-2,4,2,1,-5,-3
18:20:46:784000,-1,-7,-7,-8,-6,-5,-6,-12
18:20:46:789996,1,1,-4,-3,0,-1,-1,-1
18:20:46:805753,1,1,-4,-3,0,-1,-1,-1
18:20:46:806501,1,3,-6,-3,-2,-1,-2,-2
18:20:46:812525,-1,3,-5,-10,4,-2,-1,1
18:20:46:820747,-1,3,-5,-10,4,-2,-1,1
18:20:46:821514,-3,-13,0,7,-4,0,-3,-5
18:20:46:835025,-5,-34,-12,-11,-4,-3,-3,-5
18:20:46:843015,-5,-34,-12,-11,-4,-3,-3,-5
18:20:46:850754,0,-2,-6,-5,-2,-2,-1,-4
18:20:46:851489,3,9,-2,5,-2,0,-1,0
18:20:46:865793,3,9,-2,5,-2,0,-1,0
18:20:46:866508,-1,0,3,-1,-2,-3,-2,0
18:20:46:872526,0,8,1,2,1,1,-1,-1
18:20:46:880735,0,8,1,2,1,1,-1,-1
18:20:46:881489,0,4,1,-1,-1,1,-3,-2
18:20:46:895000,0,2,-5,1,-2,0,-1,0
18:20:46:903302,0,2,-5,1,-2,0,-1,0
18:20:46:904003,0,-4,0,-3,-1,-1,0,-4
18:20:46:910007,-1,3,2,5,2,-2,-6,-1
18:20:46:917509,-1,3,2,5,2,-2,-6,-1
18:20:46:925021,1,5,-5,-4,2,1,-6,15
18:20:46:932508,-2,2,-1,-4,-4,-2,-8,1
18:20:46:940757,-2,2,-1,-4,-4,-2,-8,1
18:20:46:941508,-3,-4,-2,1,4,0,2,-5
18:20:46:955027,-1,-9,-3,-1,-2,1,3,-2
18:20:46:971413,-1,-9,-3,-1,-2,1,3,-2
18:20:46:972261,0,-1,0,0,-3,-1,1,-1
18:20:46:972991,1,8,3,1,-1,-2,2,-5
18:20:46:985776,1,8,3,1,-1,-2,2,-5
18:20:46:986523,-1,-3,-2,-1,-1,-3,-2,-5
18:20:46:992478,1,1,1,-2,-1,-1,0,-3
18:20:47:745,1,1,1,-2,-1,-1,0,-3
18:20:47:1496,-1,-1,-1,-1,0,0,0,-5
18:20:47:14992,1,0,-1,-4,-4,-1,5,3
18:20:47:23265,1,0,-1,-4,-4,-1,5,3
18:20:47:23983,-2,0,-2,1,0,2,2,-3
18:20:47:29996,-2,-3,-2,0,-1,-1,-3,-1
18:20:47:45767,-2,-3,-2,0,-1,-1,-3,-1
18:20:47:46519,-5,-14,-4,-4,-2,-1,-3,-1
18:20:47:52525,-1,2,0,1,9,0,0,0
18:20:47:60760,-1,2,0,1,9,0,0,0
18:20:47:61496,-2,1,-3,-3,-2,-3,-2,-1
18:20:47:74986,-2,13,-2,-1,-4,-3,-1,0
18:20:47:83256,-2,13,-2,-1,-4,-3,-1,0
18:20:47:84004,1,2,4,2,0,-1,-3,-4
18:20:47:89986,0,3,0,0,-2,1,-2,-1
18:20:47:105759,0,3,0,0,-2,1,-2,-1
18:20:47:106482,-1,1,0,-1,-1,-2,-2,-2
18:20:47:112516,0,-6,-3,-2,-2,0,0,0
18:20:47:120754,0,-6,-3,-2,-2,0,0,0
18:20:47:121508,-8,-7,-18,-4,-2,-2,1,-4
18:20:47:134997,-1,-2,1,1,-2,-3,-1,0
18:20:47:151446,-1,-2,1,1,-2,-3,-1,0
18:20:47:152162,6,5,2,-1,-2,-2,0,0
18:20:47:153005,-7,-4,-3,-4,-8,-2,0,0
18:20:47:165756,-7,-4,-3,-4,-8,-2,0,0
18:20:47:166523,4,7,8,1,-1,1,2,-1
18:20:47:172507,0,-4,-7,-7,-5,-5,-4,-2
18:20:47:180756,0,-4,-7,-7,-5,-5,-4,-2
18:20:47:181508,-2,4,-1,3,2,-1,0,0
18:20:47:194996,2,-1,3,1,0,-1,-2,1
18:20:47:203276,2,-1,3,1,0,-1,-2,1
18:20:47:204019,-3,-9,2,0,0,-1,1,-1
18:20:47:217523,-2,-7,-18,-5,-2,-3,-3,-3
18:20:47:225765,-2,-7,-18,-5,-2,-3,-3,-3
18:20:47:226505,-2,-4,1,-2,-2,-2,-1,0
18:20:47:232508,-1,2,5,0,-2,-1,-2,1
18:20:47:240119,-1,2,5,0,-2,-1,-2,1
18:20:47:247487,1,6,3,-2,1,-1,-2,-2
18:20:47:255021,1,0,2,2,0,-2,-4,-1
18:20:47:263268,1,0,2,2,0,-2,-4,-1
18:20:47:264013,-5,-2,-1,0,1,-1,0,-1
18:20:47:277499,0,2,2,0,1,0,-3,-2
18:20:47:285786,0,2,2,0,1,0,-3,-2
18:20:47:286545,1,1,-8,-5,-3,0,-2,-3
18:20:47:292487,1,-2,5,-1,-1,0,1,1
18:20:47:300013,1,-2,5,-1,-1,0,1,1
18:20:47:307533,0,-2,1,1,2,-2,-2,1
18:20:47:315031,0,3,-4,-1,-4,-2,-1,-1
18:20:47:323255,0,3,-4,-1,-4,-2,-1,-1
18:20:47:323994,-3,-5,-3,0,3,-1,-2,0
18:20:47:337515,-1,-2,-1,-2,2,1,0,-2
18:20:47:345768,-1,-2,-1,-2,2,1,0,-2
18:20:47:346510,0,1,3,-2,-4,-2,-1,-2
18:20:47:352529,-3,-6,3,4,1,-2,2,0
18:20:47:360081,-3,-6,3,4,1,-2,2,0
18:20:47:367537,4,-2,-2,-2,0,-1,1,1
18:20:47:391389,-4,-2,-6,8,7,1,0,-2
18:20:47:392251,-4,-2,-6,8,7,1,0,-2
18:20:47:393014,0,10,6,1,-1,-2,0,1
18:20:47:397502,1,0,2,-4,-5,-1,0,2
18:20:47:405761,1,0,2,-4,-5,-1,0,2
18:20:47:406508,-10,-1,2,4,1,0,-2,-4
18:20:47:412509,-4,-4,-2,-3,-2,2,-1,-4
18:20:47:420052,-4,-4,-2,-3,-2,2,-1,-4
18:20:47:427509,10,-7,-4,-3,3,-2,-1,-1
18:20:47:435033,5,-9,4,-1,-3,-1,0,-4
18:20:47:443260,5,-9,4,-1,-3,-1,0,-4
18:20:47:444004,-14,-10,0,4,-2,0,1,-2
18:20:47:458127,-1,6,0,5,-3,-3,-2,0
18:20:47:459020,-1,6,0,5,-3,-3,-2,0
18:20:47:465013,6,-5,0,-6,-4,1,-1,1
18:20:47:472486,3,0,0,-3,-3,-1,-2,-1
18:20:47:480032,3,0,0,-3,-3,-1,-2,-1
18:20:47:487510,6,0,-2,2,-3,0,1,4
18:20:47:503913,-2,1,-5,-2,-2,0,0,-2
18:20:47:504779,-2,1,-5,-2,-2,0,0,-2
18:20:47:505508,-4,-1,-2,4,7,1,-3,-3
18:20:47:518264,-3,6,-1,-9,-4,-2,-1,-1
18:20:47:519134,-3,6,-1,-9,-4,-2,-1,-1
18:20:47:525012,-19,-6,-4,-5,-7,-1,4,4
18:20:47:532516,-29,-13,-1,-13,-5,-5,-5,-11
18:20:47:539996,-29,-13,-1,-13,-5,-5,-5,-11
18:20:47:547503,-3,2,-4,-8,-5,-2,-2,0
18:20:47:555051,-1,22,22,12,9,2,2,3
18:20:47:563302,-1,22,22,12,9,2,2,3
18:20:47:564043,0,1,3,12,5,-1,-1,0
18:20:47:578265,3,-28,-9,-2,2,0,0,2
18:20:47:578990,3,-28,-9,-2,2,0,0,2
18:20:47:593133,12,2,1,4,1,-1,0,-2
18:20:47:594002,19,-16,-33,-5,2,0,-1,-2
18:20:47:600171,19,-16,-33,-5,2,0,-1,-2
18:20:47:607506,40,-1,7,-3,-5,1,0,2
18:20:47:615007,8,15,-29,-15,10,3,3,2
18:20:47:623273,8,15,-29,-15,10,3,3,2
18:20:47:624007,11,8,12,-16,-3,-1,-2,0
18:20:47:638210,-20,25,17,12,12,2,1,-11
18:20:47:639008,-20,25,17,12,12,2,1,-11
18:20:47:645026,-26,23,-6,-1,-5,0,1,-2
18:20:47:660410,-29,8,-9,-11,-16,-6,0,-14
18:20:47:668286,-29,8,-9,-11,-16,-6,0,-14
18:20:47:669044,-21,11,-3,-19,-11,-5,-5,-16
18:20:47:675019,-28,-22,6,-5,-10,-6,-2,2
18:20:47:683329,-28,-22,6,-5,-10,-6,-2,2
18:20:47:684028,-10,-15,-8,2,-2,-1,-2,-2
18:20:47:698260,6,-27,-15,0,-7,-5,-1,4
18:20:47:698992,6,-27,-15,0,-7,-5,-1,4
18:20:47:705022,-45,-15,-5,4,-7,-4,-8,-5
18:20:47:712515,12,-1,8,5,-1,-2,0,5
18:20:47:720048,12,-1,8,5,-1,-2,0,5
18:20:47:727512,15,-5,-11,-5,-9,-6,-7,-8
18:20:47:735054,14,-21,-8,-5,-3,0,-5,0
18:20:47:743251,14,-21,-8,-5,-3,0,-5,0
18:20:47:743984,31,15,-4,6,12,-1,-13,-2
18:20:47:758145,62,-50,-19,-1,-13,-6,-6,4
18:20:47:759004,62,-50,-19,-1,-13,-6,-6,4
18:20:47:764997,23,-4,-20,-13,-1,3,13,18
18:20:47:772549,24,8,10,-7,1,2,3,16
18:20:47:780023,24,8,10,-7,1,2,3,16
18:20:47:787519,1,-15,32,4,-3,-1,-11,-17
18:20:47:795002,-24,22,14,3,-5,0,1,12
18:20:47:803251,-24,22,14,3,-5,0,1,12
18:20:47:804015,-28,33,11,7,3,1,11,14
18:20:47:818266,-12,28,24,2,-3,-5,-19,-11
18:20:47:819011,-12,28,24,2,-3,-5,-19,-11
18:20:47:825047,32,-43,-17,4,1,-2,4,2
18:20:47:832498,13,19,11,6,5,-1,-13,-12
18:20:47:840000,13,19,11,6,5,-1,-13,-12
18:20:47:847535,-25,-12,0,0,6,1,1,-8
18:20:47:855016,29,-5,-14,-14,4,1,4,6
18:20:47:863264,29,-5,-14,-14,4,1,4,6
18:20:47:864024,-21,-39,-20,-16,-8,-8,-5,-41
18:20:47:878251,4,-30,-19,1,-1,1,8,2
18:20:47:879013,4,-30,-19,1,-1,1,8,2
18:20:47:885025,0,22,7,4,5,2,4,16
18:20:47:892511,14,5,4,8,3,1,-3,-10
18:20:47:900145,14,5,4,8,3,1,-3,-10
18:20:47:907493,4,11,-5,5,7,3,-3,-13
18:20:47:915012,-23,25,14,-3,13,-1,-13,15
18:20:47:923253,-23,25,14,-3,13,-1,-13,15
18:20:47:923995,61,-23,0,-11,-11,-4,4,8
18:20:47:938317,8,-5,-17,-3,-7,-3,17,-2
18:20:47:939013,8,-5,-17,-3,-7,-3,17,-2
18:20:47:944998,-78,17,-24,-10,-4,-1,-1,2
18:20:47:952565,-26,-6,-17,5,-3,-1,7,-2
18:20:47:960185,-26,-6,-17,5,-3,-1,7,-2
18:20:47:967545,3,-22,15,17,3,-1,-5,11
18:20:47:975012,-37,-15,5,-11,2,2,0,9
18:20:47:983268,-37,-15,5,-11,2,2,0,9
18:20:47:983988,-59,-27,4,1,-4,0,6,15
18:20:47:998278,12,1,-23,-7,5,-1,-3,-7
18:20:47:999027,12,1,-23,-7,5,-1,-3,-7
18:20:48:5087,4,3,8,-16,-10,0,-3,-5
18:20:48:12514,-16,-16,10,5,-5,-1,7,-8
18:20:48:20047,-16,-16,10,5,-5,-1,7,-8
18:20:48:27509,-50,29,2,-11,-5,-3,-2,-9
18:20:48:35010,23,47,28,16,3,4,13,11
18:20:48:43247,23,47,28,16,3,4,13,11
18:20:48:43987,40,61,29,30,10,2,3,4
18:20:48:58141,-8,9,3,11,18,7,-1,-10
18:20:48:59025,-8,9,3,11,18,7,-1,-10
18:20:48:65024,-27,-6,4,-6,1,2,1,-2
18:20:48:72498,-1,12,-13,-14,-7,-2,-3,0
18:20:48:80032,-1,12,-13,-14,-7,-2,-3,0
18:20:48:95371,21,-4,-8,10,3,-2,-1,-1
18:20:48:103891,15,-34,-25,0,-8,-8,-8,-3
18:20:48:104778,15,-34,-25,0,-8,-8,-8,-3
18:20:48:105501,48,-32,-31,-13,0,-1,-12,7
18:20:48:118161,-15,14,5,3,-2,-4,0,2
18:20:48:119014,-15,14,5,3,-2,-4,0,2
18:20:48:125028,15,30,-8,-6,-3,1,-3,-18
18:20:48:132529,6,-28,-3,-17,1,-1,-7,-10
18:20:48:140004,6,-28,-3,-17,1,-1,-7,-10
18:20:48:147528,-32,-37,24,3,1,-1,3,3
18:20:48:155062,0,9,12,-11,-8,1,22,3
18:20:48:162521,0,9,12,-11,-8,1,22,3
18:20:48:170025,4,-20,-11,-2,-1,-4,-3,-8
18:20:48:178268,-24,-18,-18,-14,-15,-5,2,6
18:20:48:179002,-24,-18,-18,-14,-15,-5,2,6
18:20:48:185029,21,3,6,-4,-4,-4,-10,6
18:20:48:200785,-6,-23,1,0,-6,-5,-12,-11
18:20:48:201507,-6,-23,1,0,-6,-5,-12,-11
18:20:48:215791,73,24,-2,9,6,2,11,19
18:20:48:216529,-1,-14,11,13,-1,-1,-7,9
18:20:48:222499,-1,-14,11,13,-1,-1,-7,9
18:20:48:229987,-1,-8,0,2,3,0,4,-1
18:20:48:238257,23,-12,-51,-12,-2,-3,-6,-4
18:20:48:238987,23,-12,-51,-12,-2,-3,-6,-4
18:20:48:244997,8,2,3,-10,-2,0,4,1
18:20:48:260748,29,39,20,24,5,5,-3,20
18:20:48:261491,29,39,20,24,5,5,-3,20
18:20:48:267498,-2,-41,-20,0,-1,-8,-28,-17
18:20:48:274992,2,54,14,1,-4,1,-8,-5
18:20:48:282503,2,54,14,1,-4,1,-8,-5
18:20:48:290023,45,13,-3,2,-9,-3,2,-12
18:20:48:298279,23,-12,12,-3,-3,-2,1,-13
18:20:48:299078,23,-12,12,-3,-3,-2,1,-13
18:20:48:305034,-18,16,8,12,7,1,-3,10
18:20:48:320786,-22,-26,10,8,0,-3,-6,-5
18:20:48:321534,-22,-26,10,8,0,-3,-6,-5
18:20:48:335828,7,15,18,0,-2,2,2,16
18:20:48:336550,-1,-11,-10,12,10,0,7,-6
18:20:48:342493,-1,-11,-10,12,10,0,7,-6
18:20:48:350031,19,39,-11,-5,-6,-1,7,6
18:20:48:358273,-20,1,14,-9,-10,-3,-8,-4
18:20:48:359034,-20,1,14,-9,-10,-3,-8,-4
18:20:48:372507,-9,0,-13,-15,-5,0,16,3
18:20:48:388890,12,13,2,15,6,-2,-5,2
18:20:48:389757,12,13,2,15,6,-2,-5,2
18:20:48:390506,-16,14,14,13,-3,-3,-4,-4
18:20:48:395006,-13,-4,8,14,2,3,16,14
18:20:48:402512,-13,-4,8,14,2,3,16,14
18:20:48:410016,-17,-17,-13,6,-1,-1,0,-23
18:20:48:418304,-2,22,4,-14,-3,1,4,-7
18:20:48:419035,-2,22,4,-14,-3,1,4,-7
18:20:48:425033,-5,-6,12,-13,-2,-1,0,9
18:20:48:440769,-3,-2,-3,-6,7,4,4,1
18:20:48:441542,-3,-2,-3,-6,7,4,4,1
18:20:48:447492,-27,-27,-6,-2,2,-3,-12,-10
18:20:48:455060,-11,-27,-11,1,0,-2,-5,-6
18:20:48:462499,-11,-27,-11,1,0,-2,-5,-6
18:20:48:470030,5,9,1,4,4,0,-17,6
18:20:48:478276,2,6,-13,-2,-4,-3,-14,-24
18:20:48:479037,2,6,-13,-2,-4,-3,-14,-24
18:20:48:485042,-6,-32,-1,9,-1,1,14,14
18:20:48:500781,-4,15,7,-18,-8,-4,-10,-5
18:20:48:501519,-4,15,7,-18,-8,-4,-10,-5
18:20:48:507523,9,11,-4,8,5,0,7,7
18:20:48:523149,2,-7,-3,-9,1,-1,-1,-3
18:20:48:524031,2,-7,-3,-9,1,-1,-1,-3
18:20:48:538899,-3,-15,-12,-16,-5,-2,-2,-3
18:20:48:539638,-4,-19,2,1,-2,-2,-1,0
18:20:48:540508,-4,-19,2,1,-2,-2,-1,0
18:20:48:545005,-14,-5,7,0,0,1,2,-7
18:20:48:560771,8,-9,-15,-15,-14,-5,-1,2
18:20:48:561549,8,-9,-15,-15,-14,-5,-1,2
18:20:48:575767,2,-8,-7,-1,4,0,-3,-7
18:20:48:576512,3,0,21,-4,-1,1,-3,2
18:20:48:582660,3,0,21,-4,-1,1,-3,2
18:20:48:590022,-10,7,10,0,-2,-5,-2,-11
18:20:48:598138,-2,15,5,2,-2,-2,-4,3
18:20:48:599011,-2,15,5,2,-2,-2,-4,3
18:20:48:605045,5,-13,-21,-6,-4,-1,4,4
18:20:48:620786,-16,17,9,21,2,-1,-2,-19
18:20:48:621549,-16,17,9,21,2,-1,-2,-19
18:20:48:627506,-6,25,4,-14,-3,-3,-8,-1
18:20:48:635009,-8,-21,-7,-7,-7,-5,-2,1
18:20:48:642515,-8,-21,-7,-7,-7,-5,-2,1
18:20:48:650014,-6,8,2,-4,-3,-4,-3,-6
18:20:48:658133,-1,10,-4,8,7,1,5,2
18:20:48:659010,-1,10,-4,8,7,1,5,2
18:20:48:665016,2,34,31,-19,-16,0,0,2
18:20:48:681125,4,-4,3,-13,-2,1,-10,1
18:20:48:682048,4,-4,3,-13,-2,1,-10,1
18:20:48:695768,-9,-15,-33,-15,-1,-5,-4,-3
18:20:48:696497,6,-5,-8,-8,-3,-4,-1,0
18:20:48:702645,6,-5,-8,-8,-3,-4,-1,0
18:20:48:710014,-7,-27,15,5,3,-3,-5,-3
18:20:48:718156,-3,-9,-1,7,0,-1,8,0
18:20:48:719028,-3,-9,-1,7,0,-1,8,0
18:20:48:732523,-4,-5,15,11,-5,0,-1,-1
18:20:48:740773,-13,-38,24,7,0,-3,-2,-3
18:20:48:741502,-13,-38,24,7,0,-3,-2,-3
18:20:48:747506,9,-10,-34,-6,3,1,1,4
18:20:48:755025,4,-5,-1,3,-2,-2,-4,0
18:20:48:762502,4,-5,-1,3,-2,-2,-4,0
18:20:48:770066,-1,27,14,3,-2,1,3,-1
18:20:48:778157,1,-6,3,20,18,4,9,3
18:20:48:779049,1,-6,3,20,18,4,9,3
18:20:48:785034,4,-19,-13,4,-4,-1,-5,-3
18:20:48:800763,-11,13,-7,-1,-6,-2,-3,-2
18:20:48:801549,-11,13,-7,-1,-6,-2,-3,-2
18:20:48:807498,7,-7,1,3,-6,-5,-2,-1
18:20:48:815016,-27,16,23,-12,-3,2,1,1
18:20:48:822516,-27,16,23,-12,-3,2,1,1
18:20:48:838892,-40,-19,11,5,6,0,3,-3
18:20:48:839631,8,-22,-16,-7,-5,-2,-14,-1
18:20:48:840507,8,-22,-16,-7,-5,-2,-14,-1
18:20:48:845009,11,3,28,-7,-2,0,-5,-1
18:20:48:860749,20,36,15,3,10,2,-9,0
18:20:48:861495,20,36,15,3,10,2,-9,0
18:20:48:867537,-3,-11,-30,-7,-2,-3,-3,-3
18:20:48:875014,21,18,-14,6,4,0,1,-1
18:20:48:882502,21,18,-14,6,4,0,1,-1
18:20:48:890030,-76,24,19,10,1,-2,1,-7
18:20:48:898151,25,-29,-23,-8,0,0,4,-5
18:20:48:899020,25,-29,-23,-8,0,0,4,-5
18:20:48:905043,-4,-49,-1,1,0,-3,-5,-3
18:20:48:920765,8,-1,-17,-11,-5,-3,2,8
18:20:48:921539,8,-1,-17,-11,-5,-3,2,8
18:20:48:927527,42,6,-3,-3,-7,-6,-16,-2
18:20:48:935077,-48,31,-17,8,12,3,1,-9
18:20:48:942515,-48,31,-17,8,12,3,1,-9
18:20:48:950022,0,11,-44,-10,-3,2,7,-6
18:20:48:958275,6,6,-6,7,-8,-4,2,27
18:20:48:959025,6,6,-6,7,-8,-4,2,27
18:20:48:965013,-10,-35,-5,7,7,2,2,1
18:20:48:980771,29,-25,-6,4,-8,-4,-2,13
18:20:48:981514,29,-25,-6,4,-8,-4,-2,13
18:20:48:987584,42,18,10,18,6,3,7,6
18:20:48:995017,-21,40,15,4,-9,-2,-1,1
18:20:49:2556,-21,40,15,4,-9,-2,-1,1
18:20:49:10064,-4,25,12,-1,1,-3,-12,-54
18:20:49:18311,-19,1,-21,-21,-5,0,-1,-15
18:20:49:19028,-19,1,-21,-21,-5,0,-1,-15
18:20:49:32517,0,-8,5,3,1,0,7,6
18:20:49:40765,27,-18,-11,-17,2,-5,2,-1
18:20:49:41515,27,-18,-11,-17,2,-5,2,-1
18:20:49:47530,5,-14,-22,-17,-13,-7,-8,14
18:20:49:55047,-33,-58,15,-11,-6,-1,3,-15
18:20:49:62698,-33,-58,15,-11,-6,-1,3,-15
18:20:49:70039,-1,-6,-7,-23,-4,1,1,-17
18:20:49:78256,1,-22,27,3,2,4,38,-1
18:20:49:79014,1,-22,27,3,2,4,38,-1
18:20:49:92536,5,7,-5,6,-4,-5,1,2
18:20:49:100770,22,11,2,5,0,2,5,7
18:20:49:101524,22,11,2,5,0,2,5,7
18:20:49:107556,42,47,8,18,3,1,5,24
18:20:49:123261,-5,22,41,14,-10,-3,-13,0
18:20:49:124003,-5,22,41,14,-10,-3,-13,0
18:20:49:130038,16,13,24,2,4,-1,10,13
18:20:49:138296,21,16,2,-3,4,-1,-16,0
18:20:49:139017,21,16,2,-3,4,-1,-16,0
18:20:49:152543,-3,18,-6,1,4,0,14,19
18:20:49:160780,-37,7,-21,-18,-7,-2,-14,-19
18:20:49:161523,-37,7,-21,-18,-7,-2,-14,-19
18:20:49:167523,-37,-52,-44,-30,-7,-1,4,-8
18:20:49:183292,-10,-48,-18,3,3,-2,-9,-6
18:20:49:184023,-10,-48,-18,3,3,-2,-9,-6
18:20:49:190032,26,-1,-11,14,11,1,-19,16
18:20:49:198277,-6,-14,-15,2,6,3,5,-7
18:20:49:199013,-6,-14,-15,2,6,3,5,-7
18:20:49:212526,45,37,18,4,0,3,1,5
18:20:49:220788,10,22,4,-10,0,0,-2,6
18:20:49:221573,10,22,4,-10,0,0,-2,6
18:20:49:227533,-28,-16,26,0,-6,-2,-10,-16
18:20:49:243158,3,5,-4,1,12,0,-3,-1
18:20:49:244071,3,5,-4,1,12,0,-3,-1
18:20:49:250057,-37,31,-4,-4,-7,-4,-4,-7
18:20:49:258289,39,-3,20,12,-2,2,7,-8
18:20:49:259066,39,-3,20,12,-2,2,7,-8
18:20:49:272543,24,-14,-7,-16,-6,-6,-2,5
18:20:49:280759,-5,27,-23,17,1,-3,1,9
18:20:49:281555,-5,27,-23,17,1,-3,1,9
18:20:49:287527,-1,-60,-7,-7,-10,-3,-4,-12
18:20:49:311401,-22,8,17,-6,-2,-4,-6,-4
18:20:49:312263,-22,8,17,-6,-2,-4,-6,-4
18:20:49:313001,15,4,-38,-11,1,-1,-29,12
18:20:49:318135,-15,-8,-17,-10,-14,-7,-8,-7
18:20:49:319056,-15,-8,-17,-10,-14,-7,-8,-7
18:20:49:332536,-11,27,24,4,14,7,18,-5
18:20:49:340811,50,48,13,-25,-11,-2,3,15
18:20:49:341529,50,48,13,-25,-11,-2,3,15
18:20:49:347569,-77,-17,16,15,0,-2,-1,-11
18:20:49:363263,27,-20,7,-5,-5,-3,-8,1
18:20:49:364031,27,-20,7,-5,-5,-3,-8,1
18:20:49:370069,4,47,16,42,22,6,-13,11
18:20:49:378220,-76,-53,11,6,-4,-5,-10,-24
18:20:49:379033,-76,-53,11,6,-4,-5,-10,-24
18:20:49:392581,-19,-54,-14,-17,-14,-6,-7,-10
18:20:49:400797,16,14,4,3,-1,1,1,3
18:20:49:401530,16,14,4,3,-1,1,1,3
18:20:49:407530,53,-8,-14,-23,-6,-4,14,19
18:20:49:423272,-10,6,7,32,6,7,12,2
18:20:49:424013,-10,6,7,32,6,7,12,2
18:20:49:430020,-44,-20,4,-10,-6,1,13,-9
18:20:49:438305,-40,-10,-27,-7,-6,-3,-2,-10
18:20:49:439020,-40,-10,-27,-7,-6,-3,-2,-10
18:20:49:452581,39,35,26,6,-1,-1,7,-16
18:20:49:468957,-8,24,-2,-3,4,1,-10,-4
18:20:49:469833,-8,24,-2,-3,4,1,-10,-4
18:20:49:470535,52,-41,-24,-24,-13,-8,-5,0
18:20:49:483156,10,-12,-32,-13,-1,-1,-2,10
18:20:49:484083,10,-12,-32,-13,-1,-1,-2,10
18:20:49:490019,17,8,19,-4,3,3,-1,6
18:20:49:505801,17,8,19,-4,3,3,-1,6
18:20:49:506526,87,-13,-5,0,-1,-4,-5,-6
18:20:49:512534,-22,6,1,21,-5,-3,-27,10
18:20:49:520786,-22,6,1,21,-5,-3,-27,10
18:20:49:521545,4,44,25,6,3,7,16,8
18:20:49:527535,-6,11,3,1,2,1,-1,-9
18:20:49:543157,-6,11,3,1,2,1,-1,-9
18:20:49:544014,-14,-34,-24,10,4,1,-7,-2
18:20:49:550043,-2,-1,-31,20,7,2,-3,2
18:20:49:565795,-2,-1,-31,20,7,2,-3,2
18:20:49:566535,0,2,10,13,1,-4,10,13
18:20:49:572552,-28,10,18,-5,-3,-4,-3,-4
18:20:49:580800,-28,10,18,-5,-3,-4,-3,-4
18:20:49:581539,5,15,-16,-3,13,1,3,-15
18:20:49:587561,7,-3,-3,-1,0,0,9,9
18:20:49:603198,7,-3,-3,-1,0,0,9,9
18:20:49:604035,-1,-29,9,-1,-6,-5,-13,-4
18:20:49:610041,-4,-23,-13,-17,-9,-1,11,-4
18:20:49:626170,-4,-23,-13,-17,-9,-1,11,-4
18:20:49:627025,-43,-13,5,-11,-11,-2,11,7
18:20:49:632529,23,-51,-24,-16,-4,-1,-7,-21
18:20:49:640777,23,-51,-24,-16,-4,-1,-7,-21
18:20:49:641534,-39,0,-21,-3,3,0,-11,-35
18:20:49:647532,-17,-34,-10,12,-2,-5,0,2
18:20:49:663277,-17,-34,-10,12,-2,-5,0,2
18:20:49:664017,-41,-29,-8,3,-5,-4,-7,2
18:20:49:670049,12,28,-15,4,5,3,12,-3
18:20:49:685779,12,28,-15,4,5,3,12,-3
18:20:49:686514,-3,-20,-2,-10,-11,-3,-14,14
18:20:49:692534,12,27,13,13,-2,4,2,-5
18:20:49:700785,12,27,13,13,-2,4,2,-5
18:20:49:701540,20,-4,-3,-15,-2,-4,-2,20
18:20:49:707542,79,32,25,8,2,-2,5,16
18:20:49:723284,79,32,25,8,2,-2,5,16
18:20:49:724019,27,-20,-5,-3,21,7,9,0
18:20:49:730066,-7,21,9,-10,2,-2,-3,9
18:20:49:745770,-7,21,9,-10,2,-2,-3,9
18:20:49:746519,5,35,17,-1,-10,-4,-10,-2
18:20:49:752547,-43,-21,9,3,-3,1,-5,12
18:20:49:760782,-43,-21,9,3,-3,1,-5,12
18:20:49:761557,8,-32,6,-9,-6,-4,15,-7
18:20:49:767556,24,6,-11,-7,0,-5,2,2
18:20:49:783284,24,6,-11,-7,0,-5,2,2
18:20:49:784039,17,-4,9,3,3,-1,6,-3
18:20:49:790050,-44,24,13,8,2,4,3,0
18:20:49:805793,-44,24,13,8,2,4,3,0
18:20:49:806538,-8,-5,-33,-19,-1,3,3,4
18:20:49:812538,-20,-1,2,-9,-3,-1,6,1
18:20:49:820801,-20,-1,2,-9,-3,-1,6,1
18:20:49:821575,14,49,42,8,-3,0,0,5
18:20:49:827545,-44,-21,-19,-5,-1,-2,-13,-14
18:20:49:843296,-44,-21,-19,-5,-1,-2,-13,-14
18:20:49:844031,15,-8,-11,-3,-4,-2,-18,-11
18:20:49:850043,8,36,22,8,-4,-3,-6,-8
18:20:49:865777,8,36,22,8,-4,-3,-6,-8
18:20:49:866554,9,4,1,19,0,-3,-6,2
18:20:49:872535,-11,59,36,4,2,3,-6,-3
18:20:49:880774,-11,59,36,4,2,3,-6,-3
18:20:49:881519,-16,3,-2,3,2,5,15,6
18:20:49:887562,-3,-33,-33,-28,-5,-3,1,-24
18:20:49:903346,-3,-33,-33,-28,-5,-3,1,-24
18:20:49:904022,50,13,1,14,11,4,10,19
18:20:49:910035,-8,22,-6,-1,2,2,1,5
18:20:49:925793,-8,22,-6,-1,2,2,1,5
18:20:49:926528,-8,-50,-50,-28,-14,-7,-5,-7
18:20:49:932556,29,-26,-12,9,0,1,5,4
18:20:49:940769,29,-26,-12,9,0,1,5,4
18:20:49:941509,-78,13,15,-11,-2,1,7,-3
18:20:49:947538,-10,-44,-27,-19,-2,-5,-5,1
18:20:49:963272,-10,-44,-27,-19,-2,-5,-5,1
18:20:49:964048,51,-2,-5,-16,-6,-2,-5,1
18:20:49:970109,10,-10,10,19,0,-2,-6,-10
18:20:49:985876,10,-10,10,19,0,-2,-6,-10
18:20:49:986584,-10,4,11,8,-10,-4,-5,0
18:20:49:992524,7,-22,-5,3,6,1,2,-6
18:20:50:829,7,-22,-5,3,6,1,2,-6
18:20:50:1589,-57,28,22,35,10,1,-1,-6
18:20:50:7525,-10,-9,-3,-10,2,0,3,-3
18:20:50:23166,-10,-9,-3,-10,2,0,3,-3
18:20:50:24034,39,-18,-5,2,-3,-4,-9,-5
18:20:50:30050,-28,10,-31,8,3,1,-3,15
18:20:50:45809,-28,10,-31,8,3,1,-3,15
18:20:50:46568,38,18,-3,-9,-4,-5,7,8
18:20:50:52555,11,27,18,4,3,-2,-2,0
18:20:50:60796,11,27,18,4,3,-2,-2,0
18:20:50:61547,-91,-4,-3,-24,-1,-1,-8,-17
18:20:50:75069,-35,-15,9,6,-3,0,6,-6
18:20:50:83138,-35,-15,9,6,-3,0,6,-6
18:20:50:84127,33,8,9,6,0,-2,-2,2
18:20:50:90034,39,43,16,-28,-16,-3,2,8
18:20:50:105768,39,43,16,-28,-16,-3,2,8
18:20:50:106529,14,11,14,39,24,6,-7,1
18:20:50:112532,-52,14,-24,-3,-3,-2,2,-5
18:20:50:120814,-52,14,-24,-3,-3,-2,2,-5
18:20:50:121545,15,13,8,-6,-1,0,-4,2
18:20:50:135099,38,-1,7,-2,-3,-3,-5,10
18:20:50:143284,38,-1,7,-2,-3,-3,-5,10
18:20:50:144019,-29,-4,-10,-6,-10,-4,-7,3
18:20:50:150048,-6,-9,11,-4,-3,-1,5,0
18:20:50:157545,-6,-9,11,-4,-3,-1,5,0
18:20:50:165073,20,-36,-14,3,-3,-3,6,9
18:20:50:172548,-11,-17,8,15,5,2,-11,-15
18:20:50:180811,-11,-17,8,15,5,2,-11,-15
18:20:50:181565,35,29,-21,-14,-15,-5,1,-7
18:20:50:195021,-24,84,9,2,4,6,1,-48
18:20:50:203203,-24,84,9,2,4,6,1,-48
18:20:50:204025,5,-2,14,32,14,1,-13,-36
18:20:50:210031,7,-51,-27,-12,-6,-3,3,24
18:20:50:217569,7,-51,-27,-12,-6,-3,3,24
18:20:50:225053,9,10,-4,-7,-4,0,-3,-4
18:20:50:232527,24,-7,9,1,1,1,11,4
18:20:50:240785,24,-7,9,1,1,1,11,4
18:20:50:241534,23,-13,6,-12,-4,0,-2,12
18:20:50:255060,15,8,-20,6,-5,0,-9,11
18:20:50:263298,15,8,-20,6,-5,0,-9,11
18:20:50:264034,-12,-38,-23,-5,5,1,1,10
18:20:50:270055,27,-14,25,17,3,-1,-2,23
18:20:50:277530,27,-14,25,17,3,-1,-2,23
18:20:50:285040,-18,-33,-19,-18,-4,-6,-27,-6
18:20:50:292565,15,-22,-16,-2,-2,-4,-8,12
18:20:50:300807,15,-22,-16,-2,-2,-4,-8,12
18:20:50:301542,-46,-1,10,16,3,2,15,-21
18:20:50:315041,53,-40,33,28,13,2,-25,-10
18:20:50:323283,53,-40,33,28,13,2,-25,-10
18:20:50:324030,-47,12,9,2,-10,-3,7,13
18:20:50:330037,1,4,16,7,2,-1,12,5
18:20:50:337529,1,4,16,7,2,-1,12,5
18:20:50:345047,35,21,2,19,6,1,4,-9
18:20:50:352542,-22,13,-1,-10,-2,0,-10,-21
18:20:50:360788,-22,13,-1,-10,-2,0,-10,-21
18:20:50:361535,20,-23,-13,-29,-14,-6,-7,-39
18:20:50:375046,-15,-12,3,-8,-6,-4,-1,-15
18:20:50:383281,-15,-12,3,-8,-6,-4,-1,-15
18:20:50:384061,-15,28,15,7,5,1,-2,20
18:20:50:390027,31,4,-17,-16,-5,-1,3,22
18:20:50:397538,31,4,-17,-16,-5,-1,3,22
18:20:50:405054,25,-1,-17,-50,-9,-4,6,12
18:20:50:412527,-13,2,-25,-1,15,5,20,3
18:20:50:420803,-13,2,-25,-1,15,5,20,3
18:20:50:421565,27,-1,-15,-9,4,2,-8,8
18:20:50:435030,16,-20,2,-6,-4,1,12,0
18:20:50:443296,16,-20,2,-6,-4,1,12,0
18:20:50:444018,13,-18,5,-2,-1,-7,-16,8
18:20:50:450044,27,18,6,11,-2,1,-12,15
18:20:50:457526,27,18,6,11,-2,1,-12,15
18:20:50:465074,4,18,13,7,-6,-8,-10,-1
18:20:50:472561,-34,-21,-10,-7,-5,-5,-18,-17
18:20:50:480802,-34,-21,-10,-7,-5,-5,-18,-17
18:20:50:481538,-9,11,5,6,-8,2,8,-10
18:20:50:495039,-81,11,0,-1,-2,-7,2,-6
18:20:50:511401,-81,11,0,-1,-2,-7,2,-6
18:20:50:512140,-54,3,-1,-7,-3,3,4,-5
18:20:50:513025,-9,-14,4,1,-9,-7,-31,-60
18:20:50:525783,-9,-14,4,1,-9,-7,-31,-60
18:20:50:526528,8,-9,19,6,2,3,-10,-5
18:20:50:532562,29,22,7,-13,-7,1,8,11
18:20:50:540796,29,22,7,-13,-7,1,8,11
18:20:50:541554,3,-25,-12,3,12,1,2,-4
18:20:50:555083,16,14,1,12,14,-1,-8,4
18:20:50:563283,16,14,1,12,14,-1,-8,4
18:20:50:564012,-35,5,-4,-2,-1,3,15,9
18:20:50:570048,-35,-12,-12,4,-4,-1,2,-21
18:20:50:577534,-35,-12,-12,4,-4,-1,2,-21
18:20:50:585068,19,-8,-12,3,-8,-9,1,7
18:20:50:592544,23,25,35,-1,2,3,14,21
18:20:50:600824,23,25,35,-1,2,3,14,21
18:20:50:601588,33,-11,-26,-13,-6,-4,-1,-5
18:20:50:615527,12,-38,-20,-12,0,0,4,8
18:20:50:623292,12,-38,-20,-12,0,0,4,8
18:20:50:624036,32,11,-17,-18,-8,0,16,14
18:20:50:630064,32,-10,-19,4,3,-1,-4,-12
18:20:50:637574,32,-10,-19,4,3,-1,-4,-12
18:20:50:645029,-44,-23,-6,13,13,3,-3,2
18:20:50:652586,-30,20,23,-9,-10,-1,4,11
18:20:50:660798,-30,20,23,-9,-10,-1,4,11
18:20:50:661553,48,11,15,10,-3,-2,-4,-10
18:20:50:675058,7,-22,-12,-1,6,0,-19,22
18:20:50:683172,7,-22,-12,-1,6,0,-19,22
18:20:50:684037,1,14,23,8,5,5,7,-18
18:20:50:690022,22,-21,-17,-14,-12,-3,12,-8
18:20:50:697522,22,-21,-17,-14,-12,-3,12,-8
18:20:50:705059,-10,-11,-20,-2,-5,-1,-2,-2
18:20:50:712521,-31,50,31,13,-9,-4,0,2
18:20:50:720807,-31,50,31,13,-9,-4,0,2
18:20:50:721562,-19,-32,-4,1,-1,0,-2,-8
18:20:50:735053,-91,20,-8,1,2,0,-16,-1
18:20:50:743154,-91,20,-8,1,2,0,-16,-1
18:20:50:744057,-18,0,8,4,2,-1,0,1
18:20:50:750064,7,-12,-8,10,7,0,1,1
18:20:50:757555,7,-12,-8,10,7,0,1,1
18:20:50:765048,5,17,-5,0,0,1,9,18
18:20:50:772536,-56,-16,-3,6,2,3,34,-14
18:20:50:780817,-56,-16,-3,6,2,3,34,-14
18:20:50:781561,2,-8,16,7,-8,-5,-8,-43
18:20:50:795042,75,-18,-19,-12,-6,-7,-3,5
18:20:50:803273,75,-18,-19,-12,-6,-7,-3,5
18:20:50:804061,-21,22,3,-2,-4,-5,-4,10
18:20:50:810039,-14,17,13,-2,-2,-4,1,-34
18:20:50:817575,-14,17,13,-2,-2,-4,1,-34
18:20:50:825045,15,3,0,3,3,2,-1,6
18:20:50:832568,35,-18,-16,-9,1,-1,-8,26
18:20:50:840794,35,-18,-16,-9,1,-1,-8,26
18:20:50:841540,-51,6,-5,-8,2,0,13,-10
18:20:50:855090,4,-23,-14,15,10,0,-2,17
18:20:50:863283,4,-23,-14,15,10,0,-2,17
18:20:50:864043,16,-22,4,-17,-4,-3,-7,7
18:20:50:870076,-12,-7,-2,-6,-3,2,2,4
18:20:50:877547,-12,-7,-2,-6,-3,2,2,4
18:20:50:885043,15,6,-7,-5,-4,-5,-12,0
18:20:50:892542,54,55,19,-1,-2,4,5,14
18:20:50:900793,54,55,19,-1,-2,4,5,14
18:20:50:901550,2,5,10,7,-1,0,4,10
18:20:50:915050,15,-36,-17,-6,-13,-3,12,-2
18:20:50:923322,15,-36,-17,-6,-13,-3,12,-2
18:20:50:924042,40,-8,-8,-7,-1,1,3,-2
18:20:50:930032,-18,-53,-1,17,-1,-1,2,0
18:20:50:937558,-18,-53,-1,17,-1,-1,2,0
18:20:50:945028,22,-6,-6,0,0,-1,6,-5
18:20:50:952574,-16,-1,-8,-6,0,-3,3,-3
18:20:50:960786,-16,-1,-8,-6,0,-3,3,-3
18:20:50:961538,-16,6,0,-3,-8,-6,-10,13
18:20:50:975047,-11,16,-1,3,-4,-2,-10,4
18:20:50:983223,-11,16,-1,3,-4,-2,-10,4
18:20:50:984044,-52,12,13,-9,-9,-4,-5,3
18:20:50:998163,6,-28,3,45,16,3,-20,-6
18:20:50:999065,6,-28,3,45,16,3,-20,-6
18:20:51:13155,20,1,6,1,2,1,0,-6
18:20:51:14078,-4,-17,-10,-22,-8,-8,0,-49
18:20:51:20049,-4,-17,-10,-22,-8,-8,0,-49
18:20:51:27543,-22,40,6,12,12,3,-11,-6
18:20:51:35062,13,26,8,11,27,7,27,15
18:20:51:43173,13,26,8,11,27,7,27,15
18:20:51:44021,-22,-2,-13,-7,-6,-3,3,-2
18:20:51:58313,-6,0,-18,-36,-14,-7,-17,-27
18:20:51:59050,-6,0,-18,-36,-14,-7,-17,-27
18:20:51:65058,20,3,-17,8,1,0,4,5
18:20:51:72543,-27,3,5,0,-4,2,27,7
18:20:51:80095,-27,3,5,0,-4,2,27,7
18:20:51:87550,17,13,7,-2,-3,3,-2,-5
18:20:51:95049,32,-2,5,-30,-17,-9,-41,-18
18:20:51:103191,32,-2,5,-30,-17,-9,-41,-18
18:20:51:104049,-20,-24,4,12,16,4,6,15
18:20:51:118222,12,6,17,-5,-9,6,19,23
18:20:51:119043,12,6,17,-5,-9,6,19,23
18:20:51:125053,25,43,12,-3,-2,1,-3,5
18:20:51:132536,1,14,7,-10,-6,-2,-16,-10
18:20:51:140043,1,14,7,-10,-6,-2,-16,-10
18:20:51:147552,8,-15,-2,-1,-1,1,2,-7
18:20:51:155095,-3,0,-1,2,-2,0,3,11
18:20:51:163180,-3,0,-1,2,-2,0,3,11
18:20:51:164052,-16,-41,-11,-19,-4,-2,-8,-8
18:20:51:178197,-2,-17,-17,18,6,8,32,13
18:20:51:179037,-2,-17,-17,18,6,8,32,13
18:20:51:185069,28,-7,-8,-4,-6,-11,-4,17
18:20:51:192541,4,6,-2,-6,9,-6,-49,3
18:20:51:200086,4,6,-2,-6,9,-6,-49,3
18:20:51:207539,-20,-11,-15,-2,-4,-5,-38,-26
18:20:51:215054,-10,18,20,14,2,-1,30,-3
18:20:51:223299,-10,18,20,14,2,-1,30,-3
18:20:51:224041,-14,-7,-4,-9,-1,-14,-43,-6
18:20:51:238197,-4,-10,-3,2,6,2,-28,2
18:20:51:239045,-4,-10,-3,2,6,2,-28,2
18:20:51:245034,-2,48,0,-8,-6,1,-3,-5
18:20:51:252559,-27,-4,-12,-22,-2,4,-18,-3
18:20:51:260059,-27,-4,-12,-22,-2,4,-18,-3
18:20:51:267534,-19,-23,2,9,9,8,65,-7
18:20:51:275069,-4,1,-2,-5,-7,-8,-15,-7
18:20:51:283304,-4,1,-2,-5,-7,-8,-15,-7
18:20:51:284029,25,-20,-5,-20,4,5,-7,-6
18:20:51:298191,5,-7,-14,-4,-1,7,46,8
18:20:51:299033,5,-7,-14,-4,-1,7,46,8
18:20:51:305072,13,4,10,6,-7,2,67,-2
18:20:51:312534,-4,8,-3,10,2,-7,-9,10
18:20:51:320070,-4,8,-3,10,2,-7,-9,10
18:20:51:327533,-33,1,9,-1,0,-3,-22,3
18:20:51:335048,-4,10,-5,-14,-11,-2,22,-9
18:20:51:343159,-4,10,-5,-14,-11,-2,22,-9
18:20:51:344023,-1,-12,0,3,2,8,7,7
18:20:51:358299,8,16,0,-14,-3,-5,-77,12
18:20:51:359042,8,16,0,-14,-3,-5,-77,12
18:20:51:365041,29,18,3,10,1,5,50,17
18:20:51:372584,22,-2,6,7,0,-6,-15,-6
18:20:51:380058,22,-2,6,7,0,-6,-15,-6
18:20:51:387562,14,-18,-5,13,6,1,-12,2
18:20:51:395046,-12,-13,-15,-19,-6,-4,-12,-8
18:20:51:403201,-12,-13,-15,-19,-6,-4,-12,-8
18:20:51:404053,9,-2,-8,-19,-7,-4,-10,-15
18:20:51:418251,-21,-13,3,9,5,2,8,0
18:20:51:419095,-21,-13,3,9,5,2,8,0
18:20:51:425058,-5,29,3,4,-5,-6,-37,-10
18:20:51:432559,36,43,8,7,2,4,27,4
18:20:51:440059,36,43,8,7,2,4,27,4
18:20:51:447556,-30,-17,-3,15,14,0,-36,16
18:20:51:455054,9,9,6,-3,-2,-4,15,4
18:20:51:463278,9,9,6,-3,-2,-4,15,4
18:20:51:464022,11,-1,7,1,-5,-6,-29,0
18:20:51:478194,-11,1,-3,-9,-11,1,58,3
18:20:51:479058,-11,1,-3,-9,-11,1,58,3
18:20:51:485056,-7,2,-2,2,-5,-10,-22,-5
18:20:51:492547,-16,39,15,9,-4,-4,-37,-4
18:20:51:500051,-16,39,15,9,-4,-4,-37,-4
18:20:51:507546,-28,-45,-19,-7,-3,1,9,11
18:20:51:515047,-35,-27,3,-8,-19,-5,-14,2
18:20:51:523306,-35,-27,3,-8,-19,-5,-14,2
18:20:51:524048,10,7,9,-11,-6,-1,-5,-10
18:20:51:538244,5,-34,-11,-5,-1,8,24,-2
18:20:51:539055,5,-34,-11,-5,-1,8,24,-2
18:20:51:545037,-84,-14,-2,3,-3,2,59,-16
18:20:51:552563,14,-22,-6,5,7,-10,-14,-3
18:20:51:560042,14,-22,-6,5,7,-10,-14,-3
18:20:51:567563,11,-32,-17,0,4,-5,-44,-18
18:20:51:575046,-20,-7,-3,10,6,-6,-9,-17
18:20:51:583332,-20,-7,-3,10,6,-6,-9,-17
18:20:51:584082,20,10,-9,9,17,2,1,18
18:20:51:598165,6,-19,-8,17,5,-4,-21,6
18:20:51:599076,6,-19,-8,17,5,-4,-21,6
18:20:51:605054,9,26,15,-1,-8,-4,-12,-10
18:20:51:612559,31,6,-11,-6,6,-3,14,15
18:20:51:620065,31,6,-11,-6,6,-3,14,15
18:20:51:627553,20,-8,-2,-10,-9,-5,-26,23
18:20:51:635028,4,3,3,-12,-4,9,41,-3
18:20:51:643175,4,3,3,-12,-4,9,41,-3
18:20:51:644050,16,7,-2,0,-2,2,22,2
18:20:51:658315,-22,-30,-10,-7,-4,-1,15,-20
18:20:51:659060,-22,-30,-10,-7,-4,-1,15,-20
18:20:51:665051,-31,5,7,-1,-3,1,37,13
18:20:51:672576,-1,-6,-8,9,4,-3,-33,13
18:20:51:680068,-1,-6,-8,9,4,-3,-33,13
18:20:51:687557,26,-24,2,0,-4,-2,10,3
18:20:51:695050,-64,4,3,-2,-1,5,7,-3
18:20:51:710812,-64,4,3,-2,-1,5,7,-3
18:20:51:711544,15,28,6,-8,-6,-10,-56,-11
18:20:51:718180,0,9,-2,-18,-5,-11,-46,-10
18:20:51:719091,0,9,-2,-18,-5,-11,-46,-10
18:20:51:733165,-29,-17,-4,19,9,6,5,-6
18:20:51:734044,13,4,-22,-7,-1,11,31,-13
18:20:51:740055,13,4,-22,-7,-1,11,31,-13
18:20:51:747551,12,4,-16,-3,-2,-6,1,-6
18:20:51:755046,27,3,9,8,2,-5,13,5
18:20:51:763191,27,3,9,8,2,-5,13,5
18:20:51:764048,26,32,7,4,20,31,94,-7
18:20:51:778294,17,4,3,-15,-15,-5,-10,12
18:20:51:779036,17,4,3,-15,-15,-5,-10,12
18:20:51:785064,19,7,7,2,-9,-6,-19,-1
18:20:51:792586,15,-5,2,6,-3,4,9,-4
18:20:51:800079,15,-5,2,6,-3,4,9,-4
18:20:51:807553,-28,-11,2,0,-2,3,-4,1
18:20:51:815067,-6,-11,4,-2,4,-5,-51,-14
18:20:51:823185,-6,-11,4,-2,4,-5,-51,-14
18:20:51:824060,2,-2,-17,-8,-6,-2,-4,4
18:20:51:838201,3,-2,2,-1,0,0,5,-58
18:20:51:839047,3,-2,2,-1,0,0,5,-58
18:20:51:845067,12,-10,0,-9,-2,-9,-22,0
18:20:51:852578,4,-10,0,21,15,2,-20,21
18:20:51:860066,4,-10,0,21,15,2,-20,21
18:20:51:867578,-10,4,2,-5,-7,2,65,-7
18:20:51:875061,-18,-14,14,10,13,3,14,24
18:20:51:883196,-18,-14,14,10,13,3,14,24
18:20:51:884054,-13,13,6,0,-5,-4,-40,-4
18:20:51:898181,28,15,-2,-5,-11,-10,-40,3
18:20:51:899054,28,15,-2,-5,-11,-10,-40,3
18:20:51:905043,-2,-21,-1,-2,-1,-4,-1,4
18:20:51:912539,-29,22,2,-3,0,-1,-28,13
18:20:51:920115,-29,22,2,-3,0,-1,-28,13
18:20:51:927571,-5,-2,-4,-3,-2,-5,-8,0
18:20:51:935052,19,-1,-6,-8,-3,0,13,20
18:20:51:942547,19,-1,-6,-8,-3,0,13,20
18:20:51:950072,-1,-2,-1,8,8,9,37,2
18:20:51:958302,-17,15,6,-3,-3,6,35,-4
18:20:51:959061,-17,15,6,-3,-3,6,35,-4
18:20:51:965033,-19,-1,-5,-9,-6,3,30,-5
18:20:51:980795,4,1,-2,-1,-1,-1,-1,-14
18:20:51:981535,4,1,-2,-1,-1,-1,-1,-14
18:20:51:987558,11,-2,4,1,-3,-1,-48,-6
18:20:51:995059,4,3,-2,-4,-4,-9,-44,-6
18:20:52:2550,4,3,-2,-4,-4,-9,-44,-6
18:20:52:10064,-11,-8,3,-7,-2,-5,-47,2
18:20:52:18197,-5,-4,-6,0,-5,-1,4,15
18:20:52:19075,-5,-4,-6,0,-5,-1,4,15
18:20:52:25056,-8,24,2,6,2,0,15,8
18:20:52:40670,-2,-7,7,-1,-2,-5,11,-9
18:20:52:41532,-2,-7,7,-1,-2,-5,11,-9
18:20:52:47565,12,-5,-11,3,4,-11,-51,-5
18:20:52:55109,12,14,-3,2,0,0,-17,-3
18:20:52:62552,12,14,-3,2,0,0,-17,-3
18:20:52:70125,-6,1,3,-3,-4,-3,-10,-1
18:20:52:78218,-20,-17,-3,-3,1,3,11,28
18:20:52:79058,-20,-17,-3,-3,1,3,11,28
18:20:52:85080,-1,-3,-2,-1,-5,-12,-35,-1
18:20:52:108958,2,-23,-13,-1,-4,-1,6,-8
18:20:52:109820,2,-23,-13,-1,-4,-1,6,-8
18:20:52:110565,12,-17,-19,-10,-5,-10,9,-15
18:20:52:115055,-2,-2,-5,0,5,-5,-11,-19
18:20:52:122584,-2,-2,-5,0,5,-5,-11,-19
18:20:52:130051,5,-4,3,1,0,-1,5,-1
18:20:52:137580,-19,29,5,4,-4,2,18,-1
18:20:52:145820,-19,29,5,4,-4,2,18,-1
18:20:52:146568,-21,10,18,10,10,14,58,-53
18:20:52:160685,-54,-7,0,5,5,-4,5,1
18:20:52:161548,-54,-7,0,5,5,-4,5,1
18:20:52:167570,7,-7,-11,-7,-4,-6,-40,23
18:20:52:175036,35,2,5,-1,1,0,10,-9
18:20:52:182540,35,2,5,-1,1,0,10,-9
18:20:52:190065,-5,-12,-6,-1,-4,-11,-42,0
18:20:52:197604,17,6,1,-2,-1,2,-10,7
18:20:52:205794,17,6,1,-2,-1,2,-10,7
18:20:52:206537,-13,12,7,0,-3,-2,-6,47
18:20:52:228927,-5,36,-4,-6,-2,1,65,-12
18:20:52:229797,-5,36,-4,-6,-2,1,65,-12
18:20:52:230546,25,-1,0,-3,-9,-2,57,7
18:20:52:235076,-3,-24,1,0,1,0,-21,3
18:20:52:242571,-3,-24,1,0,1,0,-21,3
18:20:52:250064,-5,3,-2,-8,-3,-8,-4,4
18:20:52:257571,8,-24,0,0,1,15,44,-15
18:20:52:265821,8,-24,0,0,1,15,44,-15
18:20:52:266559,-2,-34,-10,-2,1,2,-40,-13
18:20:52:280669,-2,23,9,-2,-2,1,-21,38
18:20:52:281571,-2,23,9,-2,-2,1,-21,38
18:20:52:287555,-6,4,-3,0,0,12,7,62
18:20:52:295040,-12,-8,-7,1,-1,-13,-36,-6
18:20:52:302572,-12,-8,-7,1,-1,-13,-36,-6
18:20:52:310045,-8,14,7,1,2,14,63,-3
18:20:52:317551,3,9,10,3,3,15,34,-7
18:20:52:325824,3,9,10,3,3,15,34,-7
18:20:52:326553,15,-15,-7,1,-1,-3,16,-39
18:20:52:341844,10,-24,-12,-14,-11,-14,-25,-68
18:20:52:348204,10,-24,-12,-14,-11,-14,-25,-68
18:20:52:349063,-28,-3,4,10,5,0,-26,-18
18:20:52:355057,13,7,0,3,2,-2,-53,11
18:20:52:362552,13,7,0,3,2,-2,-53,11
18:20:52:370071,5,9,3,-2,-4,2,8,6
18:20:52:377557,7,-5,-3,-2,-1,-4,-12,-19
18:20:52:385838,7,-5,-3,-2,-1,-4,-12,-19
18:20:52:386602,-19,-13,0,-2,-2,-11,-48,9
18:20:52:400837,-16,-28,-8,-2,2,5,-9,3
18:20:52:401557,-16,-28,-8,-2,2,5,-9,3
18:20:52:407571,21,-3,-12,-2,-2,-6,0,-11
18:20:52:415066,-12,5,-2,1,1,-4,-50,14
18:20:52:422572,-12,5,-2,1,1,-4,-50,14
18:20:52:430064,0,3,0,0,3,10,18,-57
18:20:52:437604,-13,-10,-21,-7,-7,1,75,-6
18:20:52:445806,-13,-10,-21,-7,-7,1,75,-6
18:20:52:446550,22,15,0,0,2,0,-24,1
18:20:52:460807,19,-5,4,-2,-1,-10,-31,21
18:20:52:461549,19,-5,4,-2,-1,-10,-31,21
18:20:52:467592,16,-3,0,-1,-1,0,13,1
18:20:52:475087,2,4,5,2,1,7,99,30
18:20:52:482576,2,4,5,2,1,7,99,30
18:20:52:490087,0,-17,3,5,3,-5,-20,-33
18:20:52:497564,-25,2,6,-2,-3,-4,-18,7
18:20:52:505812,-25,2,6,-2,-3,-4,-18,7
18:20:52:506429,1,-2,-10,-6,-6,6,31,23
18:20:52:520865,45,-21,-11,-3,-3,-8,-12,14
18:20:52:521615,45,-21,-11,-3,-3,-8,-12,14
18:20:52:527586,-9,8,-1,-1,-3,-9,-24,7
18:20:52:535082,2,8,0,0,1,4,24,14
18:20:52:542583,2,8,0,0,1,4,24,14
18:20:52:550096,-20,8,2,-2,-1,1,13,17
18:20:52:557598,3,0,0,-2,0,2,16,-17
18:20:52:565825,3,0,0,-2,0,2,16,-17
18:20:52:566577,-5,1,-1,2,3,8,52,6
18:20:52:580717,-11,-21,-4,3,1,2,59,-5
18:20:52:581591,-11,-21,-4,3,1,2,59,-5
18:20:52:587620,6,-1,4,-1,-2,-7,-14,-74
18:20:52:595057,-19,14,-1,-1,-2,-8,-39,1
18:20:52:602611,-19,14,-1,-1,-2,-8,-39,1
18:20:52:610054,26,0,-2,-4,-1,-3,10,20
18:20:52:617571,-18,1,-2,0,-2,5,64,20
18:20:52:625856,-18,1,-2,0,-2,5,64,20
18:20:52:626586,14,24,7,-1,-2,-8,-42,-14
18:20:52:640836,2,-3,1,0,1,-3,-60,-2
18:20:52:641576,2,-3,1,0,1,-3,-60,-2
18:20:52:647568,-13,-21,-11,-3,-1,0,10,15
18:20:52:655058,-15,5,8,5,1,13,77,-51
18:20:52:662559,-15,5,8,5,1,13,77,-51
18:20:52:670096,-6,-10,-3,-5,-2,4,21,-28
18:20:52:677575,13,2,-3,-6,-5,-10,-39,19
18:20:52:685835,13,2,-3,-6,-5,-10,-39,19
18:20:52:686590,-28,-8,-2,-3,-3,-8,1,-53
18:20:52:700826,2,4,2,-1,0,-11,-124,-9
18:20:52:701566,2,4,2,-1,0,-11,-124,-9
18:20:52:707565,3,35,12,5,2,-3,9,64
18:20:52:715070,-1,4,1,2,2,-4,17,-49
18:20:52:722576,-1,4,1,2,2,-4,17,-49
18:20:52:730064,10,-11,-5,-4,-1,4,4,30
18:20:52:737569,-34,10,2,-3,0,0,-34,14
18:20:52:745806,-34,10,2,-3,0,0,-34,14
18:20:52:746563,-41,10,2,0,-4,-3,-23,22
18:20:52:760836,12,-4,-1,-2,1,12,40,23
18:20:52:761581,12,-4,-1,-2,1,12,40,23
18:20:52:767577,1,5,5,3,0,4,28,-7
18:20:52:775057,11,-3,-8,-1,0,-1,-38,-2
18:20:52:782586,11,-3,-8,-1,0,-1,-38,-2
18:20:52:790069,7,-16,-7,-2,-1,-9,-58,-29
18:20:52:797572,2,-2,-3,-4,-2,-1,53,-47
18:20:52:805817,2,-2,-3,-4,-2,-1,53,-47
18:20:52:806421,17,-5,-3,1,3,6,-26,16
18:20:52:820694,-39,-9,-3,-1,-2,-6,-42,-2
18:20:52:821580,-39,-9,-3,-1,-2,-6,-42,-2
18:20:52:827563,2,3,-4,-3,-5,-10,-17,22
18:20:52:835051,7,9,5,3,-1,1,-20,22
18:20:52:842583,7,9,5,3,-1,1,-20,22
18:20:52:850117,2,8,6,2,2,-8,-53,34
18:20:52:857561,-28,-10,-2,-3,-5,-5,-63,-4
18:20:52:865809,-28,-10,-2,-3,-5,-5,-63,-4
18:20:52:866592,-18,-16,0,3,-2,1,37,-30
18:20:52:880686,4,-4,-2,-3,1,2,-6,-45
18:20:52:881557,4,-4,-2,-3,1,2,-6,-45
18:20:52:887578,6,1,1,0,0,1,12,4
18:20:52:903226,-19,-2,-2,-1,-5,-9,15,29
18:20:52:904072,-19,-2,-2,-1,-5,-9,15,29
18:20:52:910044,2,2,-5,-5,-3,-4,-15,-18
18:20:52:917600,29,5,1,0,-1,-6,22,10
18:20:52:925095,29,5,1,0,-1,-6,22,10
18:20:52:932624,-3,-6,-2,-1,0,0,7,-26
18:20:52:940810,23,35,7,4,1,3,-13,28
18:20:52:941446,23,35,7,4,1,3,-13,28
18:20:52:955086,-13,-8,-4,-1,3,10,43,6
18:20:52:963204,3,-14,-6,-3,0,12,87,0
18:20:52:964089,3,-14,-6,-3,0,12,87,0
18:20:52:969977,-17,-11,-2,2,-1,4,4,6
18:20:52:977552,-3,-7,-2,-1,-3,-1,34,-2
18:20:52:985056,-3,-7,-2,-1,-3,-1,34,-2
18:20:52:992573,-4,-2,4,-2,-1,1,15,-13
18:20:53:824,11,-11,-7,-4,-1,-6,61,-7
18:20:53:1561,11,-11,-7,-4,-1,-6,61,-7
18:20:53:7567,-23,2,-5,-7,-2,9,103,-15
18:20:53:23223,-53,0,-2,-2,-5,-8,-26,-93
18:20:53:24066,-53,0,-2,-2,-5,-8,-26,-93
18:20:53:30070,25,9,-1,-3,-4,-15,9,27
18:20:53:37570,20,-11,-3,-3,1,-5,-65,18
18:20:53:45066,20,-11,-3,-3,1,-5,-65,18
18:20:53:61424,0,5,-2,-4,-3,-9,-75,6
18:20:53:62185,5,-2,4,5,2,10,16,52
18:20:53:63048,5,-2,4,5,2,10,16,52
18:20:53:75095,31,-10,-6,-2,0,0,-24,15
18:20:53:83186,27,-1,0,-4,-4,1,11,10
18:20:53:84061,27,-1,0,-4,-4,1,11,10
18:20:53:90046,-6,-1,0,1,2,26,108,-83
18:20:53:97582,-2,14,-1,-4,0,-4,-61,24
18:20:53:105077,-2,14,-1,-4,0,-4,-61,24
18:20:53:112584,-1,13,0,-1,-3,-14,-37,-36
18:20:53:120822,2,-8,-4,-3,-2,-3,24,-7
18:20:53:121576,2,-8,-4,-3,-2,-3,24,-7
18:20:53:127564,21,9,-1,-1,-1,2,2,31
18:20:53:143221,2,-11,-3,-2,-3,9,74,-2
18:20:53:144087,2,-11,-3,-2,-3,9,74,-2
18:20:53:150054,13,-5,0,1,2,0,-5,35
18:20:53:157561,-11,-13,-2,-2,0,0,-30,21
18:20:53:165059,-11,-13,-2,-2,0,0,-30,21
18:20:53:172560,3,-40,-4,0,3,7,13,-2
18:20:53:180827,3,15,6,5,2,-3,-29,-19
18:20:53:181553,3,15,6,5,2,-3,-29,-19
18:20:53:195063,-2,-3,-3,-3,-3,-16,-51,26
18:20:53:203186,3,1,-4,-2,0,-7,-56,1
18:20:53:204082,3,1,-4,-2,0,-7,-56,1
18:20:53:210085,-12,15,7,3,2,-4,-17,-32
18:20:53:217582,-41,7,-1,-2,-2,-5,-9,3
18:20:53:225086,-41,7,-1,-2,-2,-5,-9,3
18:20:53:232584,-11,1,1,3,1,1,8,31
18:20:53:240700,-11,-57,-10,-4,-3,-6,55,-16
18:20:53:241572,-11,-57,-10,-4,-3,-6,55,-16
18:20:53:247591,-3,5,1,2,-1,-2,-47,-8
18:20:53:263215,5,-4,-3,-1,-1,2,8,19
18:20:53:264074,5,-4,-3,-1,-1,2,8,19
18:20:53:270129,-13,-2,2,-1,-5,-9,-20,63
18:20:53:277596,13,-2,3,1,0,0,2,4
18:20:53:285068,13,-2,3,1,0,0,2,4
18:20:53:292583,-3,7,-1,-2,0,-3,-67,-8
18:20:53:300695,13,7,2,0,-1,-11,-24,11
18:20:53:301564,13,7,2,0,-1,-11,-24,11
18:20:53:307563,4,-13,-4,0,-2,-6,16,2
18:20:53:323205,7,-40,-10,-5,-4,-5,-15,-19
18:20:53:324076,7,-40,-10,-5,-4,-5,-15,-19
18:20:53:330065,3,-4,-6,-6,-4,-9,-9,1
18:20:53:337582,6,10,0,-2,-3,5,41,-7
18:20:53:345047,6,10,0,-2,-3,5,41,-7
18:20:53:352569,0,-4,-2,-4,-3,-4,-53,6
18:20:53:360799,-7,-1,-4,-2,1,4,12,-4
18:20:53:361436,-7,-1,-4,-2,1,4,12,-4
18:20:53:367616,11,11,1,1,1,5,54,-2
18:20:53:383205,10,19,0,0,0,-2,-31,1
18:20:53:384081,10,19,0,0,0,-2,-31,1
18:20:53:398194,0,-5,-3,0,1,-2,-58,3
18:20:53:399080,5,45,4,-2,-1,13,75,-72
18:20:53:405076,5,45,4,-2,-1,13,75,-72
18:20:53:412559,10,1,-1,-1,-3,-5,-64,13
18:20:53:420717,-20,-6,5,4,2,9,38,46
18:20:53:421595,-20,-6,5,4,2,9,38,46
18:20:53:435083,-13,-5,-3,-3,-3,-5,50,-60
18:20:53:443184,-35,-21,-5,-2,1,-24,-128,33
18:20:53:444050,-35,-21,-5,-2,1,-24,-128,33
18:20:53:450088,-31,0,1,2,1,1,-4,-2
18:20:53:457584,19,2,-2,-1,-2,0,16,0
18:20:53:465081,19,2,-2,-1,-2,0,16,0
18:20:53:472576,7,-8,0,0,-1,8,65,-9
18:20:53:480838,-25,4,0,1,-2,-10,-45,3
18:20:53:481467,-25,4,0,1,-2,-10,-45,3
18:20:53:495082,2,-3,-3,-3,-1,-2,-53,21
18:20:53:503226,2,-3,-3,-3,-1,-2,-53,21
18:20:53:504078,15,-4,1,-2,-3,-1,-10,-66
18:20:53:517584,13,23,1,0,1,2,-49,-8
18:20:53:533977,13,23,1,0,1,2,-49,-8
18:20:53:534858,16,0,-2,0,-1,-3,-20,29
18:20:53:535576,17,-5,-6,-4,-2,4,10,4
18:20:53:540810,17,-5,-6,-4,-2,4,10,4
18:20:53:541571,32,0,-3,-3,0,9,29,-28
18:20:53:547559,13,-1,1,-2,-4,-3,46,27
18:20:53:563306,13,-1,1,-2,-4,-3,46,27
18:20:53:564086,-10,-12,-3,-4,-2,6,18,55
18:20:53:577574,-14,-1,0,-1,-3,1,-43,26
18:20:53:585825,-14,-1,0,-1,-3,1,-43,26
18:20:53:586571,-7,4,0,1,-2,-4,-31,14
18:20:53:592581,-5,-9,-5,-3,1,17,92,32
18:20:53:608945,-5,-9,-5,-3,1,17,92,32
18:20:53:609746,8,5,4,0,-5,-20,-53,-3
18:20:53:610604,7,0,2,-1,0,-11,-38,-42
18:20:53:623205,7,0,2,-1,0,-11,-38,-42
18:20:53:624074,-14,-11,0,1,4,4,-57,2
18:20:53:630060,-6,-3,-3,-3,-6,10,116,19
18:20:53:645809,-6,-3,-3,-3,-6,10,116,19
18:20:53:646569,-16,-9,0,-1,2,1,-25,10
18:20:53:652440,2,12,2,-1,-1,0,-8,-71
18:20:53:660816,2,12,2,-1,-1,0,-8,-71
18:20:53:661562,-61,3,-1,-1,-1,2,13,-29
18:20:53:667585,-21,-5,-5,-4,-1,1,-2,41
18:20:53:683198,-21,-5,-5,-4,-1,1,-2,41
18:20:53:684067,36,12,3,4,1,3,3,-5
18:20:53:689966,-14,3,3,3,0,-10,-29,-9
18:20:53:705826,-14,3,3,3,0,-10,-29,-9
18:20:53:706453,-13,-3,-2,2,0,12,61,-50
18:20:53:712569,11,21,2,1,1,-5,71,5
18:20:53:720814,11,21,2,1,1,-5,71,5
18:20:53:721582,-16,1,0,1,2,9,102,-15
18:20:53:727567,-29,-14,1,2,6,4,-69,-4
18:20:53:743200,-29,-14,1,2,6,4,-69,-4
18:20:53:744063,10,8,1,-1,-2,-5,-46,14
18:20:53:750065,21,-7,-6,-5,-5,-3,25,1
18:20:53:765683,21,-7,-6,-5,-5,-3,25,1
18:20:53:766550,23,3,1,2,4,23,102,-25
18:20:53:772554,26,23,2,1,-1,3,-18,-17
18:20:53:780809,26,23,2,1,-1,3,-18,-17
18:20:53:781432,4,3,-1,-3,-6,-14,-4,-7
18:20:53:787558,-26,14,8,3,1,-19,-100,3
18:20:53:803229,-26,14,8,3,1,-19,-100,3
18:20:53:804086,1,-1,-3,-5,-4,-6,67,14
18:20:53:817625,-35,-19,-4,-1,-1,-2,-49,-17
18:20:53:825840,-35,-19,-4,-1,-1,-2,-49,-17
18:20:53:826580,22,5,0,-2,-1,3,-17,34
18:20:53:832601,13,-16,-5,-6,-3,-2,-5,-6
18:20:53:840742,13,-16,-5,-6,-3,-2,-5,-6
18:20:53:841598,5,4,-1,-6,-3,11,32,-21
18:20:53:855102,-22,-2,0,0,-3,-14,-43,12
18:20:53:863338,-22,-2,0,0,-3,-14,-43,12
18:20:53:864086,-10,-1,3,-1,-4,-8,-59,58
18:20:53:870128,41,4,-3,-3,-4,2,81,0
18:20:53:885827,41,4,-3,-3,-4,2,81,0
18:20:53:886612,-21,-7,-5,1,1,-12,-85,25
18:20:53:892599,5,-12,-3,1,3,3,41,45
18:20:53:900841,5,-12,-3,1,3,3,41,45
18:20:53:901598,1,-2,1,1,2,7,30,-3
18:20:53:915088,-11,-2,-1,0,-2,-1,50,-16
18:20:53:922959,-11,-2,-1,0,-2,-1,50,-16
18:20:53:930704,11,4,-1,1,-1,-8,-22,8
18:20:53:931468,-6,-4,-3,-2,-4,-3,59,2
18:20:53:945835,-6,-4,-3,-2,-4,-3,59,2
18:20:53:946578,-55,12,4,1,-1,-5,-43,31
18:20:53:952598,-42,38,5,2,5,11,19,-4
18:20:53:960835,-42,38,5,2,5,11,19,-4
18:20:53:961565,18,7,-1,1,1,-5,-10,-3
18:20:53:975097,-5,-16,-1,-1,-1,-3,-62,11
18:20:53:983236,-5,-16,-1,-1,-1,-3,-62,11
18:20:53:984115,8,9,1,-1,-4,-5,-24,-21
18:20:53:990080,3,-18,-4,-4,-3,4,21,-24
18:20:54:5832,3,-18,-4,-4,-3,4,21,-24
18:20:54:6578,31,-15,-4,-5,-7,-8,-56,-48
18:20:54:12597,35,-11,-5,-2,1,6,-32,-54
18:20:54:20844,35,-11,-5,-2,1,6,-32,-54
18:20:54:21587,11,7,-2,-3,-3,2,61,26
18:20:54:34978,-8,21,7,2,-2,-2,-23,4
18:20:54:42965,-8,21,7,2,-2,-2,-23,4
18:20:54:50807,-8,-5,-5,-3,-1,-6,27,-10
18:20:54:51475,0,2,-1,-1,-2,9,103,26
18:20:54:65845,0,2,-1,-1,-2,9,103,26
18:20:54:66601,-9,1,3,-1,3,4,-19,9
18:20:54:72455,18,-22,-4,-3,-3,-2,-47,-36
18:20:54:88210,18,-22,-4,-3,-3,-2,-47,-36
18:20:54:89055,-35,-12,-3,-2,-1,7,-18,34
18:20:54:94934,13,-1,-2,-2,-3,5,80,6
18:20:54:103221,13,-1,-2,-2,-3,5,80,6
18:20:54:104079,-36,-4,0,1,0,-7,-7,-42
18:20:54:110077,-11,-8,-5,-6,-5,-10,-12,13
18:20:54:126458,-11,-8,-5,-6,-5,-10,-12,13
18:20:54:127198,16,3,-2,1,2,7,13,16
18:20:54:132458,4,-3,-1,-1,2,2,-44,-17
18:20:54:140856,4,-3,-1,-1,2,2,-44,-17
18:20:54:141602,3,-9,1,2,4,6,-13,8
18:20:54:155119,-11,4,1,2,-1,-8,-53,11
18:20:54:163181,-11,4,1,2,-1,-8,-53,11
18:20:54:164071,16,-3,-8,-4,-2,-1,40,-1
18:20:54:177594,17,7,0,-1,0,0,-11,2
18:20:54:185849,17,7,0,-1,0,0,-11,2
18:20:54:186495,1,-9,-1,-1,-3,-16,-72,-10
18:20:54:192573,-24,2,2,0,1,-24,-119,-12
18:20:54:200846,-24,2,2,0,1,-24,-119,-12
18:20:54:201607,3,-6,-1,-1,-3,-15,-7,-79
18:20:54:215581,4,-5,1,1,-2,1,8,2
18:20:54:223207,4,-5,1,1,-2,1,8,2
18:20:54:224084,18,22,5,1,2,3,-6,24
18:20:54:229963,9,-9,-3,1,5,13,14,5
18:20:54:253976,9,-9,-3,1,5,13,14,5
18:20:54:254850,1,2,2,0,0,-2,-35,6
18:20:54:255462,-18,-7,-7,-7,-4,4,47,25
18:20:54:260839,-18,-7,-7,-7,-4,4,47,25
18:20:54:261565,-21,-10,-1,2,2,-4,-44,9
18:20:54:275082,6,-10,-10,-6,-4,11,127,4
18:20:54:283215,6,-10,-10,-6,-4,11,127,4
18:20:54:284082,8,-5,-8,-3,-4,7,-66,-23
18:20:54:290083,-19,-6,0,0,0,-11,-65,-2
18:20:54:305864,-19,-6,0,0,0,-11,-65,-2
18:20:54:306577,5,9,-3,-4,-2,3,35,19
18:20:54:312568,-13,-3,3,2,1,10,6,49
18:20:54:320808,-13,-3,3,2,1,10,6,49
18:20:54:321613,-5,-2,7,3,1,0,40,-55
18:20:54:334979,9,1,-2,-2,-1,-2,-1,17
18:20:54:343208,9,1,-2,-2,-1,-2,-1,17
18:20:54:344077,3,1,-2,-3,1,4,-28,7
18:20:54:350078,8,19,4,3,-1,-17,-84,13
18:20:54:365852,8,19,4,3,-1,-17,-84,13
18:20:54:366588,-4,0,4,1,0,5,70,1
18:20:54:372463,14,6,-2,-4,2,7,-39,25
18:20:54:380830,14,6,-2,-4,2,7,-39,25
18:20:54:381569,17,-4,-12,-6,-5,-6,23,46
18:20:54:394961,-48,-9,3,-1,-1,11,119,4
18:20:54:403272,-48,-9,3,-1,-1,11,119,4
18:20:54:404094,11,-14,-3,-5,0,5,49,10
18:20:54:410095,14,-6,1,4,2,-6,-57,-35
18:20:54:433996,14,-6,1,4,2,-6,-57,-35
18:20:54:434850,-14,-6,-2,-1,0,11,85,39
18:20:54:435616,-24,-22,-5,-4,-2,20,109,23
18:20:54:440721,-24,-22,-5,-4,-2,20,109,23
18:20:54:441609,-4,4,3,2,4,1,-29,21
18:20:54:455117,28,0,-1,-2,-3,-14,-2,-22
18:20:54:463333,28,0,-1,-2,-3,-14,-2,-22
18:20:54:464077,1,-10,-5,-2,-2,4,50,10
18:20:54:470125,11,7,-1,0,-1,-3,-76,-20
18:20:54:485818,11,7,-1,0,-1,-3,-76,-20
18:20:54:486589,19,24,4,-5,-3,-8,-60,-40
18:20:54:492580,-18,4,-1,-1,-3,10,68,-1
18:20:54:500713,-18,4,-1,-1,-3,10,68,-1
18:20:54:501596,23,-4,-5,-2,-2,-12,-6,-26
18:20:54:515082,-4,-7,-4,-1,0,-3,10,-36
18:20:54:523334,-4,-7,-4,-1,0,-3,10,-36
18:20:54:524085,11,3,1,1,-3,-10,14,20
18:20:54:530082,-20,-11,1,3,1,-8,-31,12
18:20:54:545828,-20,-11,1,3,1,-8,-31,12
18:20:54:546585,-1,-10,-6,-6,-8,-13,-12,-87
18:20:54:552584,16,21,1,4,7,5,0,22
18:20:54:560826,16,21,1,4,7,5,0,22
18:20:54:561568,-61,17,2,6,6,6,2,-82
18:20:54:575074,12,-4,-6,-3,-1,1,38,-4
18:20:54:583200,12,-4,-6,-3,-1,1,38,-4
18:20:54:584080,8,-3,0,-1,3,15,13,44
18:20:54:590082,4,-16,2,-3,-7,-10,24,-19
18:20:54:605853,4,-16,2,-3,-7,-10,24,-19
18:20:54:606592,13,-18,-5,-5,-3,-7,-12,47
18:20:54:612583,8,-12,2,-1,-3,-1,45,-1
18:20:54:620846,8,-12,2,-1,-3,-1,45,-1
18:20:54:621595,12,4,5,1,-1,3,35,15
18:20:54:635087,-41,2,-10,-3,2,-2,-112,-61
18:20:54:643208,-41,2,-10,-3,2,-2,-112,-61
18:20:54:644098,-5,-10,-2,3,2,15,-2,66
18:20:54:650099,28,8,0,0,-1,8,-2,45
18:20:54:665841,28,8,0,0,-1,8,-2,45
18:20:54:666603,19,-19,-6,-8,-7,-10,-36,28
18:20:54:672456,18,7,4,4,5,14,-9,56
18:20:54:680832,18,7,4,4,5,14,-9,56
18:20:54:681593,-10,-14,-2,0,0,-3,11,42
18:20:54:694971,-10,-4,1,-3,-5,-5,28,-7
18:20:54:703259,-10,-4,1,-3,-5,-5,28,-7
18:20:54:704082,-41,-4,-2,-2,-3,-10,6,-47
18:20:54:710083,20,18,2,1,-2,-11,-30,-59
18:20:54:725842,20,18,2,1,-2,-11,-30,-59
18:20:54:726454,8,-13,-4,3,2,-5,-40,32
18:20:54:732454,-7,24,3,-2,0,-7,-49,97
18:20:54:740853,-7,24,3,-2,0,-7,-49,97
18:20:54:741598,12,-4,1,4,1,-2,111,23
18:20:54:755082,10,-16,-4,1,0,-12,-26,-41
18:20:54:763199,10,-16,-4,1,0,-12,-26,-41
18:20:54:764064,-17,3,-1,-4,-1,1,-24,2
18:20:54:769981,-11,-9,-6,-6,-10,-15,32,-18
18:20:54:785741,-11,-9,-6,-6,-10,-15,32,-18
18:20:54:786611,14,8,-2,-4,-4,4,33,-32
18:20:54:792605,5,-9,-3,-2,1,12,38,-1
18:20:54:800088,5,-9,-3,-2,1,12,38,-1
18:20:54:807462,35,0,-4,-5,-5,-8,-33,-25
18:20:54:814962,-5,-6,-2,-4,-4,1,24,21
18:20:54:823220,-5,-6,-2,-4,-4,1,24,21
18:20:54:824102,-35,-12,-3,-5,-4,-8,13,-42
18:20:54:837595,-14,-8,0,0,-2,-6,-69,-40
18:20:54:845843,-14,-8,0,0,-2,-6,-69,-40
18:20:54:846491,27,22,11,3,3,0,-37,8
18:20:54:852505,7,19,2,-1,-3,-9,-12,-12
18:20:54:860082,7,19,2,-1,-3,-9,-12,-12
18:20:54:867581,2,0,-2,3,5,19,-26,16
18:20:54:874963,-4,5,-3,2,5,13,5,-101
18:20:54:883229,-4,5,-3,2,5,13,5,-101
18:20:54:884078,-6,14,11,6,2,4,-5,17
18:20:54:897466,-13,7,4,-1,-4,-7,2,9
18:20:54:905831,-13,7,4,-1,-4,-7,2,9
18:20:54:906571,-33,11,-1,-2,-2,-9,-49,-25
18:20:54:912588,12,-14,4,4,4,-5,12,-4
18:20:54:920122,12,-14,4,4,4,-5,12,-4
18:20:54:935724,5,-3,-7,-4,-5,-21,-16,-1
18:20:54:936473,-3,-3,-1,-4,0,4,28,13
18:20:54:943211,-3,-3,-1,-4,0,4,28,13
18:20:54:944079,-11,3,-2,0,-2,-8,-14,-37
18:20:54:957468,28,1,-1,-3,-3,-11,-42,31
18:20:54:965834,28,1,-1,-3,-3,-11,-42,31
18:20:54:966569,4,15,-2,1,2,-6,-57,-13
18:20:54:972576,0,9,-1,-3,-6,-8,0,14
18:20:54:980121,0,9,-1,-3,-6,-8,0,14
18:20:54:987575,-40,-5,-1,-1,-2,-5,15,-61
18:20:55:3834,-11,3,-4,-1,-2,-1,11,5
18:20:55:4734,-11,3,-4,-1,-2,-1,11,5
18:20:55:5607,25,-11,-3,-3,0,8,65,45
18:20:55:26360,-45,-9,-1,-1,3,14,-22,10
18:20:55:27228,-45,-9,-1,-1,3,14,-22,10
18:20:55:27995,-1,-16,2,2,2,7,-18,8
18:20:55:40836,16,8,-1,-3,-5,-8,-48,7
18:20:55:41586,16,8,-1,-3,-5,-8,-48,7
18:20:55:47572,-30,1,5,0,-3,4,40,-4
18:20:55:55080,-4,14,3,0,0,3,42,40
18:20:55:63229,-4,14,3,0,0,3,42,40
18:20:55:64086,-19,-5,-1,2,-1,1,40,-12
18:20:55:77585,-4,-6,-1,0,4,5,0,10
18:20:55:85895,-4,-6,-1,0,4,5,0,10
18:20:55:86586,17,15,3,-1,0,7,1,24
18:20:55:92590,-51,0,-2,-1,-3,-8,8,-17
18:20:55:100083,-51,0,-2,-1,-3,-8,8,-17
18:20:55:107589,1,-11,-3,0,3,0,-100,58
18:20:55:123961,6,-4,-1,-2,-4,-9,-56,-66
18:20:55:124843,6,-4,-1,-2,-4,-9,-56,-66
18:20:55:125473,9,21,13,1,1,3,-6,13
18:20:55:137488,-19,-6,-4,-1,1,8,41,4
18:20:55:145865,-19,-6,-4,-1,1,8,41,4
18:20:55:146605,-18,-47,-16,-9,-3,-9,11,-38
18:20:55:152606,19,0,-2,-4,-2,-4,-46,0
18:20:55:160098,19,0,-2,-4,-2,-4,-46,0
18:20:55:167629,21,0,-4,-3,-2,5,16,-15
18:20:55:175084,-37,-17,-5,0,-2,-4,-60,-14
18:20:55:190838,-37,-17,-5,0,-2,-4,-60,-14
18:20:55:191578,36,6,-3,-1,2,-2,3,43
18:20:55:197616,45,40,3,4,6,14,18,23
18:20:55:205849,45,40,3,4,6,14,18,23
18:20:55:206577,8,-11,-7,-2,-1,-4,26,-39
18:20:55:212602,-17,-20,-5,-3,-3,-7,24,4
18:20:55:220106,-17,-20,-5,-3,-3,-7,24,4
18:20:55:227594,9,30,4,0,-4,-5,-15,14
18:20:55:235114,-24,19,1,-2,-6,-6,21,-21
18:20:55:243234,-24,19,1,-2,-6,-6,21,-21
18:20:55:244096,-3,0,0,-1,-2,10,7,-31
18:20:55:257597,9,1,0,4,3,-9,1,-1
18:20:55:265751,9,1,0,4,3,-9,1,-1
18:20:55:266620,-18,3,3,5,-1,5,-55,11
18:20:55:272587,23,-17,3,-2,-1,0,-10,-24
18:20:55:288259,23,-17,3,-2,-1,0,-10,-24
18:20:55:289080,16,0,0,-6,-5,-7,-18,-10
18:20:55:295078,37,-18,-6,-11,-6,-4,11,27
18:20:55:303277,37,-18,-6,-11,-6,-4,11,27
18:20:55:303975,4,-10,-4,-7,9,4,14,24
18:20:55:317629,-28,-26,1,-4,-2,5,21,10
18:20:55:325859,-28,-26,1,-4,-2,5,21,10
18:20:55:326597,43,12,2,-2,-16,-8,33,11
18:20:55:332585,23,-7,-10,-4,-1,-3,-10,7
18:20:55:340096,23,-7,-10,-4,-1,-3,-10,7
18:20:55:347600,-6,-46,-17,-2,-5,-5,4,1
18:20:55:355092,0,3,-7,2,-7,-11,-72,-18
18:20:55:363244,0,3,-7,2,-7,-11,-72,-18
18:20:55:364094,-16,8,4,8,10,16,54,-18
18:20:55:377585,16,37,15,4,5,10,36,5
18:20:55:385744,16,37,15,4,5,10,36,5
18:20:55:386662,-13,-14,-2,-10,-10,-8,-14,-9
18:20:55:392604,-47,-2,0,5,1,8,56,-42
18:20:55:400089,-47,-2,0,5,1,8,56,-42
18:20:55:407488,15,4,-8,-2,0,-1,26,9
18:20:55:414985,19,19,4,-5,-5,-6,-23,-21
18:20:55:423214,19,19,4,-5,-5,-6,-23,-21
18:20:55:424078,-20,13,-1,0,7,-1,-11,1
18:20:55:437609,45,-7,-2,-1,1,-5,0,37
18:20:55:445725,45,-7,-2,-1,1,-5,0,37
18:20:55:446594,19,3,-2,-3,-3,-10,-44,0
18:20:55:452482,-26,-3,-4,40,27,8,39,7
18:20:55:460087,-26,-3,-4,40,27,8,39,7
18:20:55:467507,-26,-17,-2,-1,-5,-8,-65,33
18:20:55:474966,-14,10,27,-17,-13,9,17,0
18:20:55:483224,-14,10,27,-17,-13,9,17,0
18:20:55:484092,27,9,7,19,12,10,28,16
18:20:55:497466,-11,-9,-24,-3,-9,-7,84,-7
18:20:55:505855,-11,-9,-24,-3,-9,-7,84,-7
18:20:55:506594,-16,18,11,-5,-3,5,-4,-21
18:20:55:512462,38,-11,-2,-6,1,2,-50,5
18:20:55:520093,38,-11,-2,-6,1,2,-50,5
18:20:55:527613,-54,-22,-13,-4,-8,-11,3,-10
18:20:55:543861,-14,-58,-16,10,-1,-13,-49,-50
18:20:55:544712,-14,-58,-16,10,-1,-13,-49,-50
18:20:55:545601,-8,27,5,-7,-3,-5,-15,-11
18:20:55:557599,0,5,0,-11,-10,-6,-16,22
18:20:55:565710,0,5,0,-11,-10,-6,-16,22
18:20:55:566590,4,-7,17,13,6,3,-16,-33
18:20:55:572458,4,-13,-3,-13,-2,-1,20,30
18:20:55:580087,4,-13,-3,-13,-2,-1,20,30
18:20:55:587481,-33,-11,-7,-8,-5,-3,2,-23
18:20:55:594960,-1,10,1,-15,-5,-8,-28,2
18:20:55:603251,-1,10,1,-15,-5,-8,-28,2
18:20:55:604084,-23,-16,-8,21,8,2,9,15
18:20:55:617459,0,-6,-11,-11,-3,-9,-56,6
18:20:55:625834,0,-6,-11,-11,-3,-9,-56,6
18:20:55:626607,20,3,-3,-7,-3,5,-13,11
18:20:55:632590,9,17,10,3,3,13,94,44
18:20:55:640104,9,17,10,3,3,13,94,44
18:20:55:655713,-41,-16,6,-3,-3,-4,8,22
18:20:55:656459,-1,12,14,9,5,3,-4,16
18:20:55:663216,-1,12,14,9,5,3,-4,16
18:20:55:664085,17,4,2,11,5,-1,-9,2
18:20:55:686371,-8,-10,-23,-23,-11,-9,-23,-49
18:20:55:687229,-8,-10,-23,-23,-11,-9,-23,-49
18:20:55:688004,30,3,-3,-18,-7,-5,-12,-23
18:20:55:692592,-42,11,15,1,3,3,-3,-4
18:20:55:700099,-42,11,15,1,3,3,-3,-4
18:20:55:707471,58,36,17,-3,-7,-4,-4,20
18:20:55:714951,24,10,16,21,11,8,-12,-1
18:20:55:722602,24,10,16,21,11,8,-12,-1
18:20:55:730001,8,-18,-30,-13,1,-1,10,0
18:20:55:737494,29,37,1,-5,10,-3,-38,-16
18:20:55:745853,29,37,1,-5,10,-3,-38,-16
18:20:55:746602,1,5,9,-15,-10,0,22,-10
18:20:55:760720,4,-13,7,-3,-2,1,2,10
18:20:55:761577,4,-13,7,-3,-2,1,2,10
18:20:55:775724,-9,-46,-5,-6,-1,-3,-15,-22
18:20:55:776447,13,9,8,21,1,3,9,4
18:20:55:782581,13,9,8,21,1,3,9,4
18:20:55:789993,11,10,-3,-6,-1,0,16,29
18:20:55:797495,-20,-8,-13,-2,-6,-5,-18,-8
18:20:55:813259,-20,-8,-13,-2,-6,-5,-18,-8
18:20:55:814109,-35,-16,-17,-1,2,-2,15,-12
18:20:55:820737,-15,-11,-25,19,7,2,4,27
18:20:55:821644,-15,-11,-25,19,7,2,4,27
18:20:55:827489,-6,38,2,1,0,-3,-27,7
18:20:55:835053,7,-14,10,-1,-3,-6,6,-23
18:20:55:850749,7,-14,10,-1,-3,-6,6,-23
18:20:55:851606,-2,9,-12,-13,4,0,12,2
18:20:55:857598,-31,40,3,-29,-11,-2,-16,-9
18:20:55:865743,-31,40,3,-29,-11,-2,-16,-9
18:20:55:866617,6,13,15,8,-4,1,2,-2
18:20:55:880734,-8,-8,3,-7,-3,-1,2,3
18:20:55:881607,-8,-8,3,-7,-3,-1,2,3
18:20:55:895715,-34,22,2,10,-3,-2,-8,0
18:20:55:896468,22,-61,-7,22,-1,-4,13,11
18:20:55:902599,22,-61,-7,22,-1,-4,13,11
18:20:55:918253,-6,-29,-3,10,0,-2,-1,-11
18:20:55:919013,26,32,-20,-3,-6,2,18,15
18:20:55:925849,26,32,-20,-3,-6,2,18,15
18:20:55:926606,20,-8,4,9,2,-7,-3,-7
18:20:55:940856,-39,-39,5,3,-3,-1,0,-22
18:20:55:941467,-39,-39,5,3,-3,-1,0,-22
18:20:55:947583,-8,13,1,20,15,6,6,-4
18:20:55:963222,8,52,23,-4,8,8,5,14
18:20:55:964089,8,52,23,-4,8,8,5,14
18:20:55:970131,-42,-42,-9,-13,-14,-7,-8,-5
18:20:55:977468,10,-11,16,-3,4,-1,5,5
18:20:55:985836,10,-11,16,-3,4,-1,5,5
18:20:55:986618,42,-37,-17,-8,-9,1,-1,-36
18:20:56:1350,-29,-31,-17,5,12,-2,-15,-5
18:20:56:2248,-29,-31,-17,5,12,-2,-15,-5
18:20:56:7466,55,21,-2,-22,-4,0,1,21
18:20:56:14963,-3,9,13,-8,-10,-4,1,0
18:20:56:22603,-3,9,13,-8,-10,-4,1,0
18:20:56:30086,13,42,23,-2,-1,0,1,-19
18:20:56:37584,-9,-2,-22,-15,-9,-5,-4,5
18:20:56:45835,-9,-2,-22,-15,-9,-5,-4,5
18:20:56:46582,-30,-8,26,1,-7,-2,1,8
18:20:56:60861,-55,-62,-10,-21,-7,-7,-4,-36
18:20:56:61476,-55,-62,-10,-21,-7,-7,-4,-36
18:20:56:67603,3,-13,-13,-20,-2,-2,-7,1
18:20:56:74965,2,57,50,20,2,-1,11,10
18:20:56:82608,2,57,50,20,2,-1,11,10
18:20:56:90121,36,0,0,0,-1,-1,-11,-30
18:20:56:97620,33,-12,-16,-20,-19,-3,4,-12
18:20:56:105755,33,-12,-16,-20,-19,-3,4,-12
18:20:56:106479,-1,6,-34,-2,-2,1,21,25
18:20:56:120846,25,-54,-8,0,-2,-2,11,16
18:20:56:121645,25,-54,-8,0,-2,-2,11,16
18:20:56:127609,-4,8,4,-14,-3,-3,-5,-17
18:20:56:135138,-6,14,-1,8,-1,2,2,9
18:20:56:142596,-6,14,-1,8,-1,2,2,9
18:20:56:150116,-12,47,10,19,6,4,13,20
18:20:56:157638,-8,16,-10,10,6,2,7,-1
18:20:56:165733,-8,16,-10,10,6,2,7,-1
18:20:56:166604,3,-18,-53,3,-4,-2,-3,9
18:20:56:180797,28,54,4,-2,4,5,0,14
18:20:56:181652,28,54,4,-2,4,5,0,14
18:20:56:187490,-82,-34,-5,-8,-8,-3,4,20
18:20:56:195106,-14,-24,-61,7,-6,-3,-6,-1
18:20:56:202624,-14,-24,-61,7,-6,-3,-6,-1
18:20:56:209982,-3,-48,1,38,25,4,-16,12
18:20:56:217491,-35,-24,-4,-9,-7,-5,-7,-6
18:20:56:225905,-35,-24,-4,-9,-7,-5,-7,-6
18:20:56:226487,5,17,41,11,-1,2,-2,4
18:20:56:240746,12,-4,13,-34,4,-2,4,-5
18:20:56:241622,12,-4,13,-34,4,-2,4,-5
18:20:56:247474,-10,-16,-33,-24,9,2,14,6
18:20:56:255005,26,-6,35,13,1,1,-14,-8
18:20:56:262589,26,-6,35,13,1,1,-14,-8
18:20:56:270015,46,-8,8,2,-23,-9,-3,3
18:20:56:277471,0,17,15,19,9,2,-8,-1
18:20:56:285887,0,17,15,19,9,2,-8,-1
18:20:56:286635,-22,1,34,-2,0,-3,-7,19
18:20:56:300769,40,-17,-16,-3,-7,-2,2,12
18:20:56:301659,40,-17,-16,-3,-7,-2,2,12
18:20:56:307467,12,29,-19,-20,5,1,-11,-20
18:20:56:315024,16,10,-9,-7,0,0,17,13
18:20:56:322607,16,10,-9,-7,0,0,17,13
18:20:56:330079,-78,7,20,-2,-1,-5,-5,-36
18:20:56:337600,-70,18,-4,-2,1,3,6,-2
18:20:56:346517,-70,18,-4,-2,1,3,6,-2
18:20:56:347246,55,11,35,-1,5,3,-6,12
18:20:56:360834,24,6,30,21,11,-1,-7,-21
18:20:56:361461,24,6,30,21,11,-1,-7,-21
18:20:56:367686,-6,2,-23,2,13,3,11,-12
18:20:56:374988,-61,-3,-13,-16,-11,-8,-14,-35
18:20:56:382612,-61,-3,-13,-16,-11,-8,-14,-35
18:20:56:390122,23,2,-12,2,-4,-6,0,2
18:20:56:397619,-38,-16,3,22,0,-3,-1,-1
18:20:56:405779,-38,-16,3,22,0,-3,-1,-1
18:20:56:406488,-70,4,25,11,-9,-6,-36,-29
18:20:56:420737,14,39,-52,-31,-5,-1,-3,9
18:20:56:421500,14,39,-52,-31,-5,-1,-3,9
18:20:56:427600,15,7,-53,-27,-14,-4,8,1
18:20:56:435139,-13,-4,5,26,14,0,7,-16
18:20:56:442590,-13,-4,5,26,14,0,7,-16
18:20:56:449977,6,42,1,12,2,2,10,16
18:20:56:457632,-3,-8,-20,-31,-11,-6,-11,-44
18:20:56:465755,-3,-8,-20,-31,-11,-6,-11,-44
18:20:56:466639,-20,-43,13,-8,-5,5,8,-9
18:20:56:480745,-15,20,-3,9,-2,1,10,2
18:20:56:481613,-15,20,-3,9,-2,1,10,2
18:20:56:487458,34,20,26,28,7,-1,-3,-14
18:20:56:495094,55,-24,-8,8,6,1,-3,33
18:20:56:510730,55,-24,-8,8,6,1,-3,33
18:20:56:511478,63,-1,34,-18,8,4,18,-3
18:20:56:517624,-8,-1,-6,-20,-11,-4,6,8
18:20:56:525711,-8,-1,-6,-20,-11,-4,6,8
18:20:56:526589,26,-19,0,-5,-7,-1,6,32
18:20:56:540730,63,11,14,24,28,11,-6,13
18:20:56:541463,63,11,14,24,28,11,-6,13
18:20:56:547583,-3,5,-42,-5,12,-1,6,-11
18:20:56:555107,-31,-46,-102,-33,-8,-6,-23,-16
18:20:56:562588,-31,-46,-102,-33,-8,-6,-23,-16
18:20:56:570005,29,-20,-31,-13,3,-1,-1,-11
18:20:56:577628,87,35,49,-7,-17,-5,-1,31
18:20:56:585738,87,35,49,-7,-17,-5,-1,31
18:20:56:586614,-10,52,34,3,-10,2,14,12
18:20:56:600720,-27,-20,-12,-14,-2,-2,-2,-3
18:20:56:601619,-27,-20,-12,-14,-2,-2,-2,-3
18:20:56:607480,-12,-8,9,22,-8,-7,-30,-27
18:20:56:614987,-46,16,30,-9,1,0,5,-31
18:20:56:622614,-46,16,30,-9,1,0,5,-31
18:20:56:629980,-23,-33,-12,-9,-13,-9,-2,4
18:20:56:637479,10,-10,4,0,-9,-2,-9,-11
18:20:56:645858,10,-10,4,0,-9,-2,-9,-11
18:20:56:646477,-7,-9,-16,-8,-4,3,-32,1
18:20:56:661097,-25,48,40,32,16,4,-9,-34
18:20:56:668249,-25,48,40,32,16,4,-9,-34
18:20:56:669108,-30,-42,18,7,1,0,8,4
18:20:56:683217,-6,-32,6,-8,-21,-9,-8,17
18:20:56:684106,-6,-32,6,-8,-21,-9,-8,17
18:20:56:689988,42,-4,-24,0,7,0,16,18
18:20:56:697519,-24,25,12,-5,-9,-3,-16,-9
18:20:56:705095,-24,25,12,-5,-9,-3,-16,-9
18:20:56:712495,-24,-17,-72,-31,-14,-12,-6,-17
18:20:56:720746,15,-15,-31,6,1,-4,-3,8
18:20:56:721629,15,-15,-31,6,1,-4,-3,8
18:20:56:727466,12,33,7,64,62,16,-2,-5
18:20:56:743244,-22,-16,36,16,1,7,39,-2
18:20:56:744105,-22,-16,36,16,1,7,39,-2
18:20:56:749981,-7,-16,1,-31,-23,-8,-16,-45
18:20:56:757476,32,-11,-3,1,-1,-3,-5,-19
18:20:56:765117,32,-11,-3,1,-1,-3,-5,-19
18:20:56:772603,-18,-34,27,7,-8,-7,-2,-9
18:20:56:780848,21,25,46,36,7,3,4,23
18:20:56:781463,21,25,46,36,7,3,4,23
18:20:56:787626,4,2,-1,-14,-7,1,-5,6
18:20:56:803242,12,-21,-13,-15,-3,1,31,25
18:20:56:804096,12,-21,-13,-15,-3,1,31,25
18:20:56:810106,-12,-7,-4,17,6,3,25,16
18:20:56:817484,5,-44,-17,-27,-19,-10,-22,1
18:20:56:825110,5,-44,-17,-27,-19,-10,-22,1
18:20:56:832632,23,-7,-20,-27,-19,-7,-7,12
18:20:56:840762,-12,-34,8,-14,-6,-2,2,-11
18:20:56:841495,-12,-34,8,-14,-6,-2,2,-11
18:20:56:847616,0,79,69,11,2,2,1,15
18:20:56:863246,8,9,-10,2,11,1,-10,7
18:20:56:864109,8,9,-10,2,11,1,-10,7
18:20:56:870128,-11,11,23,-16,4,7,4,9
18:20:56:877610,4,2,-17,19,11,4,4,30
18:20:56:885103,4,2,-17,19,11,4,4,30
18:20:56:892614,-1,-21,43,12,-2,3,17,-3
18:20:56:900753,-10,-12,15,13,9,6,-13,-8
18:20:56:901638,-10,-12,15,13,9,6,-13,-8
18:20:56:907519,-13,-37,-36,-15,-10,-2,-4,7
18:20:56:923241,6,6,-3,3,-4,-7,-18,-1
18:20:56:923991,6,6,-3,3,-4,-7,-18,-1
18:20:56:930122,-6,-31,-49,9,14,-4,-6,24
18:20:56:937643,2,36,-18,-3,-12,-8,15,-19
18:20:56:945137,2,36,-18,-3,-12,-8,15,-19
18:20:56:952545,-5,-52,-23,-3,-8,-7,-9,2
18:20:56:960748,4,0,20,-14,-5,-5,-4,0
18:20:56:961633,4,0,20,-14,-5,-5,-4,0
18:20:56:967475,-11,20,-41,2,-5,-6,-33,-42
18:20:56:983295,1,10,47,23,3,5,26,41
18:20:56:984133,1,10,47,23,3,5,26,41
18:20:56:989979,-3,-36,-8,-33,-19,-13,-42,-28
18:20:56:997484,-5,-2,-2,-2,0,1,0,-7
18:20:57:5114,-5,-2,-2,-2,0,1,0,-7
18:20:57:12508,26,39,22,9,3,6,17,12
18:20:57:20742,3,-29,-103,-44,-16,-10,-14,5
18:20:57:21613,3,-29,-103,-44,-16,-10,-14,5
18:20:57:27473,7,34,18,28,-1,2,23,17
18:20:57:43249,-17,-18,29,15,8,5,-5,-30
18:20:57:44093,-17,-18,29,15,8,5,-5,-30
18:20:57:58236,-13,23,2,-13,-13,-4,-2,-26
18:20:57:58979,5,16,11,29,17,2,-7,-12
18:20:57:65105,5,16,11,29,17,2,-7,-12
18:20:57:72492,-18,58,60,44,31,7,9,39
18:20:57:80730,-32,72,-37,-38,-4,-3,-60,-51
18:20:57:81612,-32,72,-37,-38,-4,-3,-60,-51
18:20:57:87493,3,-6,-26,-5,-1,2,20,6
18:20:57:103263,3,-51,12,-11,-11,-10,-30,-8
18:20:57:104094,3,-51,12,-11,-11,-10,-30,-8
18:20:57:109986,-18,-14,-25,-18,-10,-3,-2,-35
18:20:57:117464,13,-21,-1,2,13,5,23,48
18:20:57:125096,13,-21,-1,2,13,5,23,48
18:20:57:132493,-5,-14,47,-15,-12,-11,-9,-26
18:20:57:140734,-37,43,-23,-6,-7,3,24,0
18:20:57:141607,-37,43,-23,-6,-7,3,24,0
18:20:57:147600,3,-21,-22,-17,-12,-2,-1,8
18:20:57:163242,8,19,41,3,-8,0,19,-2
18:20:57:164116,8,19,41,3,-8,0,19,-2
18:20:57:169999,-31,6,20,-5,23,10,2,6
18:20:57:177466,22,-12,-4,6,7,3,5,14
18:20:57:185119,22,-12,-4,6,7,3,5,14
18:20:57:192613,-58,-13,8,6,-7,-5,2,11
18:20:57:200748,85,51,23,-7,-6,5,27,6
18:20:57:201522,85,51,23,-7,-6,5,27,6
18:20:57:207606,42,16,17,-4,1,0,-4,3
18:20:57:223246,-17,-62,-3,-32,-18,-6,-5,3
18:20:57:224118,-17,-62,-3,-32,-18,-6,-5,3
18:20:57:230135,33,29,-13,20,-1,1,-2,-17
18:20:57:237625,7,-27,-13,0,-3,-5,-13,13
18:20:57:245089,7,-27,-13,0,-3,-5,-13,13
18:20:57:252646,8,-54,-19,-4,-8,-6,-16,-24
18:20:57:260725,-69,-17,-6,13,-2,0,3,-22
18:20:57:261479,-69,-17,-6,13,-2,0,3,-22
18:20:57:267628,9,35,-11,10,-4,-5,-3,21
18:20:57:283236,24,-31,-12,-1,0,-3,-15,-2
18:20:57:283976,24,-31,-12,-1,0,-3,-15,-2
18:20:57:290115,41,6,-24,-18,-1,-2,-27,-11
18:20:57:305865,-17,10,3,44,29,4,1,-17
18:20:57:306512,-17,10,3,44,29,4,1,-17
18:20:57:312609,15,-30,7,-32,-18,-10,2,-10
18:20:57:320752,15,18,22,4,-4,-3,0,10
18:20:57:321507,15,18,22,4,-4,-3,0,10
18:20:57:327594,-40,16,-10,-9,-10,-1,8,-13
18:20:57:343281,16,3,-48,-14,-16,-4,16,5
18:20:57:344097,16,3,-48,-14,-16,-4,16,5
18:20:57:350117,-25,45,12,-24,-15,-5,-2,2
18:20:57:357479,-51,50,37,8,5,2,5,3
18:20:57:373266,-51,50,37,8,5,2,5,3
18:20:57:374177,-45,-37,-26,-20,-6,2,-8,2
18:20:57:380889,5,-17,5,-3,4,-1,-10,7
18:20:57:381487,5,-17,5,-3,4,-1,-10,7
18:20:57:387666,-40,19,3,11,3,4,25,14
18:20:57:403278,-4,-27,-1,-17,-11,-7,-21,-10
18:20:57:404101,-4,-27,-1,-17,-11,-7,-21,-10
18:20:57:410120,14,-30,-22,13,15,6,-2,-15
18:20:57:417480,-20,-57,-47,25,27,5,-60,-29
18:20:57:425126,-20,-57,-47,25,27,5,-60,-29
18:20:57:432636,41,5,-20,14,17,4,-1,-4
18:20:57:440786,28,11,11,12,-2,-1,10,3
18:20:57:441490,28,11,11,12,-2,-1,10,3
18:20:57:447662,52,-3,33,18,13,6,7,-5
18:20:57:463238,-1,0,7,-9,-1,2,3,9
18:20:57:463986,-1,0,7,-9,-1,2,3,9
18:20:57:470162,39,-7,2,-21,-18,-8,-18,20
18:20:57:485895,39,-7,2,-21,-18,-8,-18,20
18:20:57:486713,30,41,23,-19,-2,-1,11,4
18:20:57:492500,35,8,6,-7,-7,-2,2,1
18:20:57:500764,35,8,6,-7,-7,-2,2,1
18:20:57:501503,-50,-6,-14,3,-1,0,0,-13
18:20:57:507622,-12,1,14,9,9,3,13,-4
18:20:57:523255,-12,1,14,9,9,3,13,-4
18:20:57:524116,10,32,-11,1,-4,-3,7,3
18:20:57:530144,-91,2,14,29,-4,-3,-14,15
18:20:57:545897,-91,2,14,29,-4,-3,-14,15
18:20:57:546512,-26,9,12,10,-8,-14,-36,7
18:20:57:552516,34,-15,41,-11,-14,-10,-16,5
18:20:57:560873,34,-15,41,-11,-14,-10,-16,5
18:20:57:561613,-11,-12,3,-3,-1,4,5,6
18:20:57:567664,9,35,5,-3,-4,-3,18,5
18:20:57:583791,9,35,5,-3,-4,-3,18,5
18:20:57:584534,3,-21,-7,-7,-1,1,12,-2
18:20:57:590007,86,1,-10,59,29,5,12,24
18:20:57:605876,86,1,-10,59,29,5,12,24
18:20:57:606488,24,12,33,6,-6,-5,15,-13
18:20:57:612520,-35,-19,-7,-16,1,1,-5,-8
18:20:57:620882,-35,-19,-7,-16,1,1,-5,-8
18:20:57:621647,6,16,31,3,7,2,21,7
18:20:57:635063,17,-7,9,4,5,2,4,0
18:20:57:643258,17,-7,9,4,5,2,4,0
18:20:57:644103,25,-30,-30,-13,5,5,9,2
18:20:57:650012,-86,-27,-20,-16,-4,-2,-8,-56
18:20:57:665763,-86,-27,-20,-16,-4,-2,-8,-56
18:20:57:666631,48,50,8,7,-9,-2,19,5
18:20:57:672526,38,44,36,1,-1,6,9,7
18:20:57:680881,38,44,36,1,-1,6,9,7
18:20:57:681497,-24,-41,-24,-15,7,4,0,-9
18:20:57:694989,-8,-23,26,-2,-11,-1,13,-2
18:20:57:703252,-8,-23,26,-2,-11,-1,13,-2
18:20:57:704119,-9,1,-103,-63,-13,-4,-19,-7
18:20:57:709997,-47,-4,-6,9,13,4,-4,-19
18:20:57:725759,-47,-4,-6,9,13,4,-4,-19
18:20:57:726615,-18,-11,27,8,-8,-4,-1,-39
18:20:57:732494,-4,37,-32,-11,-7,-6,4,16
18:20:57:740749,-4,37,-32,-11,-7,-6,4,16
18:20:57:741637,-32,-23,0,2,-4,-3,5,-13
18:20:57:755041,-36,-3,-32,-12,-13,-6,1,10
18:20:57:763247,-36,-3,-32,-12,-13,-6,1,10
18:20:57:764098,14,21,15,5,8,0,2,26
18:20:57:786403,67,-40,-6,5,13,1,-4,22
18:20:57:787237,67,-40,-6,5,13,1,-4,22
18:20:57:788112,24,48,-53,-16,-2,-3,-9,14
18:20:57:792511,2,-38,-9,-4,-1,1,11,4
18:20:57:800745,2,-38,-9,-4,-1,1,11,4
18:20:57:801532,25,-18,10,11,-1,0,1,-3
18:20:57:815005,2,-36,-19,12,8,2,-5,15
18:20:57:823237,2,-36,-19,12,8,2,-5,15
18:20:57:824121,41,26,56,11,4,3,-16,11
18:20:57:830110,-9,19,21,11,0,-1,-6,-39
18:20:57:845871,-9,19,21,11,0,-1,-6,-39
18:20:57:846491,27,-4,-41,-17,-12,-8,-14,5
18:20:57:852499,-25,70,-2,-25,-22,-6,-1,23
18:20:57:860870,-25,70,-2,-25,-22,-6,-1,23
18:20:57:861618,41,-20,9,22,12,5,-2,4
18:20:57:874998,2,7,-8,-4,-3,-8,-52,-26
18:20:57:883256,2,7,-8,-4,-3,-8,-52,-26
18:20:57:884121,-71,19,8,42,6,0,15,19
18:20:57:889989,17,-14,-13,-8,1,3,6,17
18:20:57:905745,17,-14,-13,-8,1,3,6,17
18:20:57:906611,4,-26,-3,0,-4,-7,-19,-13
18:20:57:912513,-23,4,-42,35,29,4,-7,-29
18:20:57:920876,-23,4,-42,35,29,4,-7,-29
18:20:57:921497,-64,39,31,5,-6,2,12,1
18:20:57:935539,45,4,-8,-18,-17,-9,13,7
18:20:57:943276,45,4,-8,-18,-17,-9,13,7
18:20:57:944096,35,-7,6,-3,-3,0,-9,-4
18:20:57:950040,-4,-23,-3,5,-1,-3,-47,3
18:20:57:965752,-4,-23,-3,5,-1,-3,-47,3
18:20:57:966651,-23,-28,-5,-31,-11,-7,-2,11
18:20:57:972485,1,-6,4,-5,-4,5,24,20
18:20:57:980875,1,-6,4,-5,-4,5,24,20
18:20:57:981508,-38,-66,-21,-12,-12,-4,-4,-3
18:20:57:995001,19,-2,20,2,-8,2,12,3
18:20:58:3290,19,-2,20,2,-8,2,12,3
18:20:58:4142,81,-2,-14,-22,-7,-4,-3,7
18:20:58:9991,-31,14,39,-5,-2,2,5,3
18:20:58:25747,-31,14,39,-5,-2,2,5,3
18:20:58:26613,-8,11,-23,-4,7,1,7,7
18:20:58:32519,-13,4,18,9,14,1,1,-44
18:20:58:40779,-13,4,18,9,14,1,1,-44
18:20:58:41617,-10,4,18,20,11,8,9,0
18:20:58:55111,-49,8,1,9,4,-1,8,-28
18:20:58:63254,-49,8,1,9,4,-1,8,-28
18:20:58:64124,-50,-8,-28,11,23,3,-2,-28
18:20:58:70031,6,-41,-63,-15,-8,-5,-21,6
18:20:58:85776,6,-41,-63,-15,-8,-5,-21,6
18:20:58:86504,21,-1,20,1,-13,-4,0,-3
18:20:58:92502,21,0,12,-34,-9,0,4,1
18:20:58:100777,21,0,12,-34,-9,0,4,1
18:20:58:101521,-3,19,40,-3,-9,4,-12,-4
18:20:58:115131,-22,-6,-17,-19,-12,-4,-10,6
18:20:58:123234,-22,-6,-17,-19,-12,-4,-10,6
18:20:58:123984,-31,25,25,17,-5,-2,7,1
18:20:58:130011,-2,-9,-45,-2,1,-2,5,10
18:20:58:146271,-2,-9,-45,-2,1,-2,5,10
18:20:58:147020,25,-40,-18,-30,-24,-10,-10,17
18:20:58:152674,10,-7,29,15,0,-1,19,31
18:20:58:160734,10,-7,29,15,0,-1,19,31
18:20:58:161477,7,-31,-25,-17,-9,-5,-2,6
18:20:58:174980,48,9,8,1,2,0,-2,4
18:20:58:183274,48,9,8,1,2,0,-2,4
18:20:58:184011,-15,6,-2,2,1,1,18,-25
18:20:58:190109,-6,-6,9,46,14,2,2,-4
18:20:58:205874,-6,-6,9,46,14,2,2,-4
18:20:58:206607,-1,-5,18,-4,-2,-2,5,-5
18:20:58:212485,11,8,15,-10,-18,-4,-7,-5
18:20:58:220745,11,8,15,-10,-18,-4,-7,-5
18:20:58:221507,-51,15,-2,11,14,3,-1,1
18:20:58:235008,-5,10,16,7,6,-2,-39,-38
18:20:58:244394,-5,10,16,7,6,-2,-39,-38
18:20:58:250740,17,10,-4,-7,8,2,-5,-5
18:20:58:251564,-5,-8,-21,-1,7,3,13,15
18:20:58:265894,-5,-8,-21,-1,7,3,13,15
18:20:58:266546,4,12,6,-26,-14,-6,-9,-11
18:20:58:272490,46,42,29,-4,-3,-3,3,9
18:20:58:280756,46,42,29,-4,-3,-3,3,9
18:20:58:281519,30,-12,-6,-1,12,3,12,5
18:20:58:294995,51,5,15,-3,-5,-2,8,32
18:20:58:303315,51,5,15,-3,-5,-2,8,32
18:20:58:304120,-60,23,26,11,8,8,8,3
18:20:58:310007,-20,-40,-14,12,14,4,1,-1
18:20:58:325784,-20,-40,-14,12,14,4,1,-1
18:20:58:326601,18,-27,-45,-34,3,1,11,13
18:20:58:332499,-26,-3,-37,-26,-16,-7,9,-1
18:20:58:340897,-26,-3,-37,-26,-16,-7,9,-1
18:20:58:341504,2,1,-6,-15,-11,-5,-5,-22
18:20:58:355019,-14,0,-14,-22,-18,-5,13,-16
18:20:58:363235,-14,0,-14,-22,-18,-5,13,-16
18:20:58:364116,10,-42,11,13,-5,-7,0,-21
18:20:58:370028,-18,-20,2,5,3,0,-2,1
18:20:58:385756,-18,-20,2,5,3,0,-2,1
18:20:58:386613,-1,-7,-29,-9,4,-2,-7,11
18:20:58:392492,-4,-28,-9,-5,-2,-3,-9,3
18:20:58:400906,-4,-28,-9,-5,-2,-3,-9,3
18:20:58:401538,38,33,27,23,4,3,1,4
18:20:58:415017,-24,15,-39,-23,1,0,-12,-23
18:20:58:423247,-24,15,-39,-23,1,0,-12,-23
18:20:58:424122,17,-26,6,6,-6,-6,6,14
18:20:58:430004,-21,-12,-9,1,13,-4,-9,7
18:20:58:445778,-21,-12,-9,1,13,-4,-9,7
18:20:58:446611,-20,-26,-22,6,3,3,-20,-6
18:20:58:452533,13,41,32,11,11,5,0,-8
18:20:58:460732,13,41,32,11,11,5,0,-8
18:20:58:461603,41,6,-8,26,12,2,6,7
18:20:58:475017,16,-9,6,2,-9,-5,-2,-13
18:20:58:483249,16,-9,6,2,-9,-5,-2,-13
18:20:58:484107,8,23,17,13,-4,-3,-7,-4
18:20:58:489999,-32,-24,-13,16,5,-3,-14,8
18:20:58:505761,-32,-24,-13,16,5,-3,-14,8
18:20:58:506511,5,2,-15,-17,18,4,-19,3
18:20:58:512525,5,0,25,9,0,4,13,14
18:20:58:520780,5,0,25,9,0,4,13,14
18:20:58:521674,-24,-9,0,2,-10,-4,-3,-7
18:20:58:535173,36,9,8,15,3,0,-3,4
18:20:58:543262,36,9,8,15,3,0,-3,4
18:20:58:544000,-6,3,-11,-8,-7,-3,8,-12
18:20:58:549996,-5,-17,-12,0,-8,-2,22,-1
18:20:58:565816,-5,-17,-12,0,-8,-2,22,-1
18:20:58:566510,6,-10,3,7,-5,-5,2,-12
18:20:58:572524,3,16,17,-8,-1,-2,-7,3
18:20:58:580122,3,16,17,-8,-1,-2,-7,3
18:20:58:587557,-14,-19,-31,-5,-7,0,19,-14
18:20:58:594987,-9,10,22,11,1,-2,5,-12
18:20:58:603267,-9,10,22,11,1,-2,5,-12
18:20:58:604160,-11,27,27,9,-4,-2,-5,5
18:20:58:617658,-21,-43,-16,-23,-7,1,-4,-2
18:20:58:625755,-21,-43,-16,-23,-7,1,-4,-2
18:20:58:626617,-10,30,33,14,10,8,7,-25
18:20:58:632496,-1,21,-4,-5,-3,-6,-22,-13
18:20:58:640117,-1,21,-4,-5,-3,-6,-22,-13
18:20:58:647516,2,-33,-27,18,7,0,-8,14
18:20:58:655042,11,-17,-7,4,-1,2,21,-1
18:20:58:663294,11,-17,-7,4,-1,2,21,-1
18:20:58:664137,3,9,5,-8,-5,-3,-23,-20
18:20:58:677521,5,15,-16,10,7,-2,3,11
18:20:58:685766,5,15,-16,10,7,-2,3,11
18:20:58:686661,14,12,-40,-28,-7,-3,-2,11
18:20:58:692526,20,14,11,-18,2,5,-6,-7
18:20:58:700161,20,14,11,-18,2,5,-6,-7
18:20:58:707503,-17,8,15,-7,8,-1,-13,3
18:20:58:715011,-3,-4,10,3,-10,-5,5,2
18:20:58:723248,-3,-4,10,3,-10,-5,5,2
18:20:58:723999,-1,-32,-20,-8,-3,2,6,26
18:20:58:737524,37,14,2,-10,-10,-1,-22,6
18:20:58:745883,37,14,2,-10,-10,-1,-22,6
18:20:58:746506,-5,-1,14,5,-2,-3,-1,0
18:20:58:752513,35,-10,-4,-4,-1,1,4,-21
18:20:58:760125,35,-10,-4,-4,-1,1,4,-21
18:20:58:767670,-30,52,7,13,-2,-5,6,15
18:20:58:775007,-33,-18,-12,0,3,0,-9,-9
18:20:58:783270,-33,-18,-12,0,3,0,-9,-9
18:20:58:784009,-1,-10,16,-9,-12,-5,14,-5
18:20:58:797516,-8,21,0,-28,-11,-3,10,26
18:20:58:805763,-8,21,0,-28,-11,-3,10,26
18:20:58:806513,-33,-25,17,6,-3,3,-23,-18
18:20:58:820770,-17,7,-11,-15,0,-6,6,5
18:20:58:821635,-17,7,-11,-15,0,-6,6,5
18:20:58:827497,0,4,-2,-14,-7,-5,-4,-13
18:20:58:834995,-10,-4,-1,9,1,-4,-30,-14
18:20:58:843260,-10,-4,-1,9,1,-4,-30,-14
18:20:58:844001,4,-13,-5,-12,6,-1,-7,5
18:20:58:857493,-59,-2,-3,14,0,0,-3,-1
18:20:58:873912,-59,-2,-3,14,0,0,-3,-1
18:20:58:874772,8,-2,0,-6,-6,-6,-26,-25
18:20:58:875531,12,-25,-7,-6,1,0,4,-5
18:20:58:880144,12,-25,-7,-6,1,0,4,-5
18:20:58:887515,-18,-6,1,-10,-9,-8,-7,-17
18:20:58:895002,-15,3,-2,2,-4,-5,1,-20
18:20:58:903304,-15,3,-2,2,-4,-5,1,-20
18:20:58:904134,17,1,-2,18,14,6,22,19
18:20:58:917503,-34,-18,-8,7,11,-1,-16,11
18:20:58:925753,-34,-18,-8,7,11,-1,-16,11
18:20:58:926625,11,-7,-5,0,-5,-2,-25,-4
18:20:58:932518,33,1,8,6,-9,-8,6,8
18:20:58:940143,33,1,8,6,-9,-8,6,8
18:20:58:947507,-14,34,2,7,-4,-6,-14,-14
18:20:58:955005,31,27,9,-20,-6,-4,-22,0
18:20:58:963266,31,27,9,-20,-6,-4,-22,0
18:20:58:964011,-3,23,17,0,-7,-3,17,15
18:20:58:977508,0,7,-6,-11,-3,1,11,27
18:20:58:985941,0,7,-6,-11,-3,1,11,27
18:20:58:986561,10,-4,-3,0,2,2,-11,18
18:20:58:992520,-15,6,10,6,2,18,62,-24
18:20:59:138,-15,6,10,6,2,18,62,-24
18:20:59:7628,-3,-57,-11,0,1,1,-3,9
18:20:59:15018,5,-23,-11,1,-1,-11,-28,9
18:20:59:23263,5,-23,-11,1,-1,-11,-28,9
18:20:59:24008,-45,-25,-3,2,9,2,-3,18
18:20:59:37533,-3,8,-2,5,-5,11,24,-34
18:20:59:45759,-3,8,-2,5,-5,11,24,-34
18:20:59:46504,47,21,-5,-15,-8,7,3,-22
18:20:59:52686,-7,3,-8,2,10,0,-8,4
18:20:59:60129,-7,3,-8,2,10,0,-8,4
18:20:59:67510,-10,21,10,-16,-7,5,32,10
18:20:59:74986,16,-16,-2,-7,-10,-5,-18,-6
18:20:59:83275,16,-16,-2,-7,-10,-5,-18,-6
18:20:59:84167,4,7,-2,-9,-1,-1,22,4
18:20:59:97629,-7,-21,-1,3,-2,-3,-3,25
18:20:59:105771,-7,-21,-1,3,-2,-3,-3,25
18:20:59:106511,-4,-17,-7,5,-5,-5,21,6
18:20:59:112504,12,-9,-9,7,3,-4,-6,14
18:20:59:120141,12,-9,-9,7,3,-4,-6,14
18:20:59:127528,-9,9,-10,15,1,-5,-13,-43
18:20:59:135105,-10,9,10,-8,-1,5,15,-9
18:20:59:143272,-10,9,10,-8,-1,5,15,-9
18:20:59:144155,7,11,6,1,2,-5,-9,8
18:20:59:157522,-40,-2,-6,-3,-2,-12,-38,-16
18:20:59:165765,-40,-2,-6,-3,-2,-12,-38,-16
18:20:59:166635,-18,-20,6,13,11,1,0,6
18:20:59:172520,19,15,9,11,3,-3,12,-10
18:20:59:180137,19,15,9,11,3,-3,12,-10
18:20:59:187521,4,-16,-7,-16,0,-1,-6,15
18:20:59:195006,-24,-2,-10,-5,1,-1,-12,-15
18:20:59:203263,-24,-2,-10,-5,1,-1,-12,-15
18:20:59:204169,20,4,-10,-10,-3,-1,-8,-21
18:20:59:217508,26,13,4,4,-1,1,14,8
18:20:59:225754,26,13,4,4,-1,1,14,8
18:20:59:226623,16,-13,3,1,-1,2,17,17
18:20:59:232532,4,5,-5,4,3,9,-25,-2
18:20:59:240133,4,5,-5,4,3,9,-25,-2
18:20:59:247518,3,2,-6,-5,-6,-11,4,-44
18:20:59:255036,-1,4,5,1,3,8,8,-6
18:20:59:263254,-1,4,5,1,3,8,8,-6
18:20:59:263999,24,21,10,1,0,1,7,-13
18:20:59:277517,2,-5,-1,-5,-1,-3,19,-3
18:20:59:285913,2,-5,-1,-5,-1,-3,19,-3
18:20:59:286515,3,-10,-5,21,12,4,23,14
18:20:59:292545,5,3,1,20,5,-11,-45,-10
18:20:59:300152,5,3,1,20,5,-11,-45,-10
18:20:59:307651,15,-14,-5,-3,-6,5,1,21
18:20:59:315139,-3,-5,-4,-14,-5,9,27,-4
18:20:59:323266,-3,-5,-4,-14,-5,9,27,-4
18:20:59:324007,13,11,-6,-2,-1,-1,-29,23
18:20:59:337518,-9,-20,5,-7,-5,-4,16,16
18:20:59:345769,-9,-20,5,-7,-5,-4,16,16
18:20:59:346532,-2,14,2,-3,-4,2,13,13
18:20:59:360767,-23,4,-6,-1,-4,2,76,-12
18:20:59:361521,-23,4,-6,-1,-4,2,76,-12
18:20:59:367509,-20,-7,0,-3,-1,-4,-10,-7
18:20:59:375060,18,32,11,0,-3,6,11,44
18:20:59:383278,18,32,11,0,-3,6,11,44
18:20:59:384009,7,-4,0,-4,-3,-14,-63,-19
18:20:59:397520,-23,2,2,9,7,-25,-44,-14
18:20:59:405761,-23,2,2,9,7,-25,-44,-14
18:20:59:406509,8,-5,-8,-5,1,-2,-1,-47
18:20:59:412521,20,-18,-2,-3,-5,10,40,-3
18:20:59:420141,20,-18,-2,-3,-5,10,40,-3
18:20:59:427508,-55,-1,3,3,0,1,11,-2
18:20:59:435138,-7,8,-3,-8,-1,0,-56,-7
18:20:59:443295,-7,8,-3,-8,-1,0,-56,-7
18:20:59:444036,11,-4,2,2,2,5,-4,43
18:20:59:457518,6,-12,-3,-6,-3,3,94,-21
18:20:59:465781,6,-12,-3,-6,-3,3,94,-21
18:20:59:466549,-8,-7,0,1,-1,8,71,18
18:20:59:472647,12,-2,-4,-4,-3,-5,7,5
18:20:59:480157,12,-2,-4,-4,-3,-5,7,5
18:20:59:487516,-8,7,-2,-2,-3,27,111,2
18:20:59:495010,8,3,-7,-3,-3,-9,-41,73
18:20:59:503256,8,3,-7,-3,-3,-9,-41,73
18:20:59:504182,5,5,1,-1,-9,-9,55,-59
18:20:59:517547,-8,7,-1,0,-1,-8,-18,2
18:20:59:525760,-8,7,-1,0,-1,-8,-18,2
18:20:59:526497,-3,-31,-3,-1,-2,-6,-36,62
18:20:59:540801,23,-3,0,-2,-4,-9,-74,-75
18:20:59:541542,23,-3,0,-2,-4,-9,-74,-75
18:20:59:547524,-2,4,-2,-2,0,-3,-32,-31
18:20:59:555022,-14,0,4,1,2,-2,-54,9
18:20:59:562652,-14,0,4,1,2,-2,-54,9
18:20:59:570048,-23,6,0,-1,-3,1,-13,-71
18:20:59:577513,3,-5,-4,-2,-3,-2,4,-23
18:20:59:585800,3,-5,-4,-2,-3,-2,4,-23
18:20:59:586633,11,-7,-5,-1,0,-11,-88,18
18:20:59:600785,-10,1,-1,-3,-1,7,35,15
18:20:59:601529,-10,1,-1,-3,-1,7,35,15
18:20:59:607508,0,3,4,3,3,-16,8,84
18:20:59:615042,-4,-20,-4,-3,0,2,4,23
18:20:59:622638,-4,-20,-4,-3,0,2,4,23
18:20:59:630031,-15,-1,-3,0,-1,-11,-73,-8
18:20:59:637513,9,9,0,-1,1,16,97,-5
18:20:59:645794,9,9,0,-1,1,16,97,-5
18:20:59:646663,-9,2,2,-2,-4,-8,-69,0
18:20:59:660763,-5,-15,-1,2,5,10,27,-86
18:20:59:661617,-5,-15,-1,2,5,10,27,-86
18:20:59:667552,10,5,0,-2,5,21,45,16
18:20:59:675013,-11,-40,-7,-2,-3,-10,-92,33
18:20:59:682621,-11,-40,-7,-2,-3,-10,-92,33
18:20:59:690005,20,5,-5,0,4,18,62,6
18:20:59:697527,-28,-10,-3,-1,-2,-1,-9,22
18:20:59:705762,-28,-10,-3,-1,-2,-1,-9,22
18:20:59:706506,4,5,-3,-2,-1,-15,-112,-5
18:20:59:720767,6,12,4,4,4,8,-40,-8
18:20:59:721645,6,12,4,4,4,8,-40,-8
18:20:59:727507,7,5,-1,-2,-5,-10,8,5
18:20:59:735068,-3,3,-2,-1,1,4,1,10
18:20:59:742646,-3,3,-2,-1,1,4,1,10
18:20:59:758288,-14,0,0,1,-2,-9,-15,-40
18:20:59:759029,9,-1,-1,1,-1,11,52,12
18:20:59:765786,9,-1,-1,1,-1,11,52,12
18:20:59:766502,5,-4,2,1,6,17,116,29
18:20:59:780789,-20,-33,-4,-3,0,-5,-10,0
18:20:59:781648,-20,-33,-4,-3,0,-5,-10,0
18:20:59:787526,-14,-6,-1,1,-1,-10,-16,-18
18:20:59:795005,13,22,-1,-2,-3,-15,-47,-49
18:20:59:802653,13,22,-1,-2,-3,-15,-47,-49
18:20:59:810010,-9,1,-2,-3,-5,-1,9,-34
18:20:59:817507,8,13,4,3,2,-8,-65,55
18:20:59:825771,8,13,4,3,2,-8,-65,55
18:20:59:826592,4,22,10,4,1,5,-1,-25
18:20:59:840789,7,-15,1,-3,-1,-11,-65,-8
18:20:59:841521,7,-15,1,-3,-1,-11,-65,-8
18:20:59:847534,3,-7,-1,0,-2,1,-41,30
18:20:59:855017,-2,12,0,0,-4,-2,-9,-8
18:20:59:862662,-2,12,0,0,-4,-2,-9,-8
18:20:59:878270,0,7,-3,-1,-4,-20,-81,-24
18:20:59:879027,9,6,-3,-6,-4,6,59,25
18:20:59:885770,9,6,-3,-6,-4,6,59,25
18:20:59:886581,3,-15,-6,-1,1,24,117,43
18:20:59:900767,-3,0,-2,-1,-5,-6,14,26
18:20:59:901545,-3,0,-2,-1,-5,-6,14,26
18:20:59:907531,-9,-24,-5,-1,0,-5,-19,-15
18:20:59:915046,0,9,2,3,0,-15,-62,4
18:20:59:922657,0,9,2,3,0,-15,-62,4
18:20:59:930060,6,-4,-10,-6,-3,-5,-35,7
18:20:59:937521,-9,24,2,5,4,-4,-29,-12
18:20:59:945758,-9,24,2,5,4,-4,-29,-12
18:20:59:946519,7,3,0,0,-2,-3,-29,-85
18:20:59:960777,1,-10,-2,1,4,19,49,-78
18:20:59:961499,1,-10,-2,1,4,19,49,-78
18:20:59:967557,8,-2,11,5,5,3,30,92
18:20:59:975151,29,-11,-5,-6,-8,-11,31,-81
18:20:59:982625,29,-11,-5,-6,-8,-11,31,-81
18:20:59:998254,0,1,-1,-6,-6,-22,-79,-12
18:20:59:998998,-12,1,-1,-1,1,6,24,3
18:21:00:5775,-12,1,-1,-1,1,6,24,3
18:21:00:6502,-12,-3,-3,-1,2,24,45,-21
18:21:00:20781,-8,-10,0,-4,-7,-15,23,76
18:21:00:21503,-8,-10,0,-4,-7,-15,23,76
18:21:00:27520,-3,2,1,4,3,10,35,35
18:21:00:35049,1,-6,0,3,0,-5,-42,18
18:21:00:42651,1,-6,0,3,0,-5,-42,18
18:21:00:50039,-9,13,4,2,2,-1,-8,36
18:21:00:57531,4,9,4,0,2,5,6,-27
18:21:00:65772,4,9,4,0,2,5,6,-27
18:21:00:66524,-15,2,-1,-4,-8,-11,41,-10
18:21:00:80778,-7,3,-4,-1,5,13,-49,17
18:21:00:81532,-7,3,-4,-1,5,13,-49,17
18:21:00:87532,0,-9,-1,-2,3,2,-3,18
18:21:00:95005,-12,-1,2,4,1,8,82,-44
18:21:00:102630,-12,-1,2,4,1,8,82,-44
18:21:00:118264,7,2,-4,-3,1,8,-2,-10
18:21:00:119006,0,-5,-8,-7,-6,-4,5,16
18:21:00:125768,0,-5,-8,-7,-6,-4,5,16
18:21:00:126519,-1,26,8,2,-1,0,37,-60
18:21:00:140784,-4,-9,-4,-5,-4,-1,76,74
18:21:00:141524,-4,-9,-4,-5,-4,-1,76,74
18:21:00:147524,-1,-13,-3,1,-1,-12,-32,17
18:21:00:155008,-6,5,3,2,0,5,-17,12
18:21:00:162688,-6,5,3,2,0,5,-17,12
18:21:00:170043,1,-5,-4,-3,-2,0,-19,-11
18:21:00:177567,9,-4,3,-1,-4,-9,-20,4
18:21:00:185782,9,-4,3,-1,-4,-9,-20,4
18:21:00:186513,-11,-2,-4,-4,-5,0,18,-6
18:21:00:200830,1,1,-9,0,0,-6,-17,90
18:21:00:201523,1,1,-9,0,0,-6,-17,90
18:21:00:207541,20,3,25,10,-5,-3,-8,66
18:21:00:215066,-7,-7,-3,-9,0,4,0,5
18:21:00:222642,-7,-7,-3,-9,0,4,0,5
18:21:00:238186,-1,-3,-13,-9,0,-5,-49,-5
18:21:00:239017,6,-10,3,-4,-2,-3,-45,32
18:21:00:245787,6,-10,3,-4,-2,-3,-45,32
18:21:00:246540,-11,-8,-4,-3,1,-10,-60,62
18:21:00:260774,0,1,-3,-4,0,-3,-53,46
18:21:00:261505,0,1,-3,-4,0,-3,-53,46
18:21:00:267572,-9,5,9,6,-2,-6,-23,-39
18:21:00:275024,-15,34,-9,-1,4,6,3,-81
18:21:00:282730,-15,34,-9,-1,4,6,3,-81
18:21:00:290003,0,12,-2,0,-1,2,-15,10
18:21:00:297594,14,-9,2,0,-4,-8,116,22
18:21:00:305768,14,-9,2,0,-4,-8,116,22
18:21:00:306509,-10,-8,-35,-15,0,12,49,4
18:21:00:320782,0,11,1,-2,-4,-13,-50,-7
18:21:00:321569,0,11,1,-2,-4,-13,-50,-7
18:21:00:327518,-13,-13,9,4,-1,-7,42,-40
18:21:00:335034,-8,-1,-1,-2,-5,1,26,-100
18:21:00:342652,-8,-1,-1,-2,-5,1,26,-100
18:21:00:350054,-4,-22,-11,-1,3,2,-9,-108
18:21:00:357530,-2,-2,14,2,-2,-4,27,17
18:21:00:365807,-2,-2,14,2,-2,-4,27,17
18:21:00:366664,-1,16,9,1,-4,-7,-16,15
18:21:00:380755,2,4,7,5,5,13,10,-51
18:21:00:381630,2,4,7,5,5,13,10,-51
18:21:00:387519,-9,-10,-7,-4,-2,-10,-57,29
18:21:00:395044,-6,2,29,15,3,9,43,-29
18:21:00:402735,-6,2,29,15,3,9,43,-29
18:21:00:410023,26,4,3,3,4,15,45,51
18:21:00:417504,0,-9,-6,3,-3,-9,-63,21
18:21:00:425775,0,-9,-6,3,-3,-9,-63,21
18:21:00:426645,-5,-2,-2,-2,0,2,-8,-127
18:21:00:440777,0,-13,-18,-14,-3,-1,-13,6
18:21:00:441657,0,-13,-18,-14,-3,-1,-13,6
18:21:00:447519,-5,-4,-3,-5,-1,7,24,52
18:21:00:455030,1,5,-7,-4,-1,-4,39,-43
18:21:00:462520,1,5,-7,-4,-1,-4,39,-43
18:21:00:470100,-1,1,9,4,-2,-1,6,-10
18:21:00:477511,-3,-15,-8,-1,1,6,-27,17
18:21:00:485163,-3,-15,-8,-1,1,6,-27,17
18:21:00:492543,2,16,6,14,3,9,-7,22
18:21:00:500791,6,3,-14,-3,-3,-2,23,-2
18:21:00:501513,6,3,-14,-3,-3,-2,23,-2
18:21:00:507588,-3,1,6,1,-2,3,95,93
18:21:00:531427,-16,0,-3,-3,-3,-6,-9,-16
18:21:00:532303,-16,0,-3,-3,-3,-6,-9,-16
18:21:00:533037,0,-7,1,-4,0,-4,70,-2
18:21:00:537537,0,-9,-3,-11,-7,-11,-57,28
18:21:00:545018,0,-9,-3,-11,-7,-11,-57,28
18:21:00:552512,5,-3,13,7,-2,-6,-17,-26
18:21:00:560755,7,3,22,16,1,12,60,81
18:21:00:561500,7,3,22,16,1,12,60,81
18:21:00:567557,3,-2,-29,-11,-2,5,44,-12
18:21:00:583276,-2,5,1,-3,1,3,22,16
18:21:00:584046,-2,5,1,-3,1,3,22,16
18:21:00:590023,18,-1,-7,-2,-4,-23,-127,-70
18:21:00:597550,6,10,4,-10,-1,3,42,-49
18:21:00:605138,6,10,4,-10,-1,3,42,-49
18:21:00:612546,-5,0,-23,-8,-3,-3,-7,-48
18:21:00:620807,3,-6,2,-3,-6,-13,-62,17
18:21:00:621563,3,-6,2,-3,-6,-13,-62,17
18:21:00:627532,5,2,20,16,-2,-16,-19,127
18:21:00:643316,-5,-1,-46,-19,5,29,89,-36
18:21:00:644012,-5,-1,-46,-19,5,29,89,-36
18:21:00:650054,11,2,0,-7,0,3,45,104
18:21:00:657546,4,3,14,14,1,-10,-43,-19
18:21:00:665163,4,3,14,14,1,-10,-43,-19
18:21:00:672547,10,6,19,10,4,16,-21,-14
18:21:00:688918,2,-9,-46,-11,-3,-6,-40,5
18:21:00:689789,2,-9,-46,-11,-3,-6,-40,5
18:21:00:690539,-13,-2,-4,-3,2,-9,-86,-31
18:21:00:703307,-2,21,7,5,2,5,54,63
18:21:00:704053,-2,21,7,5,2,5,54,63
18:21:00:710029,-10,-9,-11,6,-5,-7,23,-39
18:21:00:717570,-12,-15,12,2,1,19,21,-28
18:21:00:725161,-12,-15,12,2,1,19,21,-28
18:21:00:732537,-2,-3,6,0,-1,-8,-26,-11
18:21:00:740763,0,2,19,7,0,-5,-23,1
18:21:00:741510,0,2,19,7,0,-5,-23,1
18:21:00:747516,-4,0,13,2,0,0,-14,-30
18:21:00:763278,5,19,-1,-2,-3,-12,-5,42
18:21:00:764018,5,19,-1,-2,-3,-12,-5,42
18:21:00:770098,-17,9,2,2,0,-8,-47,-37
18:21:00:777552,-5,-22,-2,-1,0,-11,-81,-12
18:21:00:785142,-5,-22,-2,-1,0,-11,-81,-12
18:21:00:792542,8,-4,-23,-18,-9,-4,60,41
18:21:00:808925,-9,-9,-5,-1,-2,-11,-44,-34
18:21:00:809805,-9,-9,-5,-1,-2,-11,-44,-34
18:21:00:810526,-2,-4,-4,-5,2,-5,-74,20
18:21:00:823276,31,5,11,2,-2,-2,16,31
18:21:00:824016,31,5,11,2,-2,-2,16,31
18:21:00:830052,-22,-42,-11,-9,-5,3,5,-85
18:21:00:837536,25,10,-5,-1,-2,-1,7,5
18:21:00:845139,25,10,-5,-1,-2,-1,7,5
18:21:00:852534,-32,-10,0,6,2,8,22,1
18:21:00:860771,-4,1,-7,-6,1,-13,-40,18
18:21:00:861541,-4,1,-7,-6,1,-13,-40,18
18:21:00:867537,11,17,5,0,3,13,44,2
18:21:00:883252,-2,-8,1,-1,-3,-6,12,-22
18:21:00:884041,-2,-8,1,-1,-3,-6,12,-22
18:21:00:890021,15,4,-3,-3,-2,-10,17,42
18:21:00:897509,-12,-12,5,2,-3,0,13,25
18:21:00:905152,-12,-12,5,2,-3,0,13,25
18:21:00:912508,1,0,4,-2,0,-3,-35,-7
18:21:00:920790,-22,-10,1,1,1,-10,-78,-21
18:21:00:921644,-22,-10,1,1,1,-10,-78,-21
18:21:00:927503,-7,6,-11,-6,-3,7,32,-4
18:21:00:943276,-10,0,0,2,0,25,107,-79
18:21:00:944015,-10,0,0,2,0,25,107,-79
18:21:00:950039,-14,16,-21,-12,-2,3,-16,4
18:21:00:957533,-15,-25,-4,-3,-4,-16,-110,-79
18:21:00:965139,-15,-25,-4,-3,-4,-16,-110,-79
18:21:00:972509,9,-5,11,1,-3,-11,16,14
18:21:00:980807,1,0,-1,0,1,-2,-35,57
18:21:00:981686,1,0,-1,0,1,-2,-35,57
18:21:00:987530,-16,-4,2,1,-1,-5,-27,12
18:21:01:3319,8,-2,-16,-6,-2,11,64,-40
18:21:01:4165,8,-2,-16,-6,-2,11,64,-40
18:21:01:10044,19,-2,0,0,4,18,41,6
18:21:01:17553,2,-12,8,5,1,-2,-58,34
18:21:01:25174,2,-12,8,5,1,-2,-58,34
18:21:01:32538,-15,-5,-4,-5,-2,9,36,51
18:21:01:40799,17,8,-9,-5,1,-1,32,14
18:21:01:41543,17,8,-9,-5,1,-1,32,14
18:21:01:47534,8,-3,9,2,-1,-12,-32,-1
18:21:01:63290,6,21,7,0,1,-4,-32,50
18:21:01:64037,6,21,7,0,1,-4,-32,50
18:21:01:70034,26,6,1,0,-2,-7,-27,-31
18:21:01:77538,-13,0,-3,0,-5,4,58,3
18:21:01:85092,-13,0,-3,0,-5,4,58,3
18:21:01:92542,39,6,2,0,1,10,40,70
18:21:01:100780,3,1,4,0,-2,-4,5,82
18:21:01:101527,3,1,4,0,-2,-4,5,82
18:21:01:107540,-2,4,0,-2,0,-12,-61,4
18:21:01:131407,5,-6,-8,-1,-5,-15,-44,-36
18:21:01:132274,5,-6,-8,-1,-5,-15,-44,-36
18:21:01:133022,-2,-13,1,-8,-5,-5,-2,33
18:21:01:137537,20,9,4,3,2,-4,-29,55
18:21:01:145153,20,9,4,3,2,-4,-29,55
18:21:01:152548,2,2,9,3,-3,-6,-17,-101
18:21:01:160777,-10,-5,0,-2,1,-1,-37,-2
18:21:01:161527,-10,-5,0,-2,1,-1,-37,-2
18:21:01:167531,-11,-4,-4,-4,-2,6,95,3
18:21:01:183635,-2,-1,-2,0,7,25,27,-21
18:21:01:190796,-2,-1,-2,0,7,25,27,-21
18:21:01:191526,-17,-8,2,-2,-2,0,-14,45
18:21:01:197567,-2,0,5,0,-1,-6,27,-8
18:21:01:205044,-2,0,5,0,-1,-6,27,-8
18:21:01:212517,7,-7,-7,-2,1,-7,-54,36
18:21:01:220785,-1,5,0,-2,-5,-9,58,-2
18:21:01:221533,-1,5,0,-2,-5,-9,58,-2
18:21:01:227519,-2,-7,-4,-1,-1,6,5,-35
18:21:01:243279,1,2,-1,2,1,1,-18,48
18:21:01:244006,1,2,-1,2,1,1,-18,48
18:21:01:250057,-54,-3,1,0,0,6,47,-28
18:21:01:257529,-19,3,6,-3,-5,-24,-76,-73
18:21:01:265138,-19,3,6,-3,-5,-24,-76,-73
18:21:01:272536,17,-2,4,0,-4,-9,4,-10
18:21:01:280767,-16,-5,3,-2,-2,5,-27,-2
18:21:01:281516,-16,-5,3,-2,-2,5,-27,-2
18:21:01:287535,4,3,4,1,-1,-9,-35,49
18:21:01:303336,4,-7,-5,-3,-1,-4,9,25
18:21:01:304035,4,-7,-5,-3,-1,-4,9,25
18:21:01:310017,6,4,9,0,0,-2,33,-22
18:21:01:317534,-1,-7,0,2,0,12,58,-8
18:21:01:325168,-1,-7,0,2,0,12,58,-8
18:21:01:332536,-5,-7,-22,-14,-7,-19,-82,-19
18:21:01:340784,-16,2,-5,4,5,18,13,-61
18:21:01:341659,-16,2,-5,4,5,18,13,-61
18:21:01:347516,5,3,9,9,4,6,-19,-28
18:21:01:363278,-13,13,25,15,4,4,45,35
18:21:01:364067,-13,13,25,15,4,4,45,35
18:21:01:370099,-9,-1,-2,-2,-3,-11,-14,-27
18:21:01:377519,6,7,0,-7,1,-2,-59,-19
18:21:01:385173,6,7,0,-7,1,-2,-59,-19
18:21:01:392534,5,1,8,3,0,-1,-68,-18
18:21:01:400829,-5,-1,-9,-5,-2,2,23,4
18:21:01:401568,-5,-1,-9,-5,-2,2,23,4
18:21:01:415032,36,-13,-3,-1,2,15,62,71
18:21:01:423284,-4,-3,3,-5,-4,-1,10,14
18:21:01:424157,-4,-3,3,-5,-4,-1,10,14
18:21:01:430051,-3,3,-12,0,0,12,99,2
18:21:01:445824,-6,-6,-6,-2,0,1,21,8
18:21:01:446568,-6,-6,-6,-2,0,1,21,8
18:21:01:452556,-19,-1,-2,-4,-4,-12,-19,-84
18:21:01:460787,6,-2,-1,-3,-8,-14,15,-9
18:21:01:461657,6,-2,-1,-3,-8,-14,15,-9
18:21:01:475052,6,17,-6,-2,-3,-9,-17,-40
18:21:01:483319,6,17,-6,-2,-3,-9,-17,-40
18:21:01:484065,7,0,-6,1,-2,-3,5,4
18:21:01:490053,1,-7,-14,-9,-4,5,22,47
18:21:01:506315,1,-7,-14,-9,-4,5,22,47
18:21:01:507054,-27,6,-5,-3,-2,0,-53,2
18:21:01:512546,-37,3,5,5,6,11,-11,-16
18:21:01:520777,-37,3,5,5,6,11,-11,-16
18:21:01:521574,16,-5,-15,-5,0,1,-21,71
18:21:01:535061,-12,-13,-2,0,-1,-3,-4,48
18:21:01:543282,-12,-13,-2,0,-1,-3,-4,48
18:21:01:544022,6,-7,9,2,0,-5,-24,-43
18:21:01:550038,-4,-2,0,-2,-8,-19,-66,-70
18:21:01:565769,-4,-2,0,-2,-8,-19,-66,-70
18:21:01:566567,20,2,2,-2,-5,-16,-8,-8
18:21:01:572567,-23,-4,-2,0,3,-2,-42,-20
18:21:01:580803,-23,-4,-2,0,3,-2,-42,-20
18:21:01:581573,23,-2,-6,-1,2,-10,-106,-18
18:21:01:595025,-10,3,7,3,1,6,29,127
18:21:01:603273,-10,3,7,3,1,6,29,127
18:21:01:604030,-7,11,2,3,2,20,77,54
18:21:01:610041,30,4,5,1,-1,6,52,-5
18:21:01:625798,30,4,5,1,-1,6,52,-5
18:21:01:626559,-1,-9,-3,-3,0,12,71,49
18:21:01:632543,18,5,-3,-5,-1,1,-2,85
18:21:01:648272,18,5,-3,-5,-1,1,-2,85
18:21:01:649027,-3,-2,-3,-2,-2,-2,27,51
18:21:01:655054,0,-9,-1,1,1,0,-16,-17
18:21:01:663314,0,-9,-1,1,1,0,-16,-17
18:21:01:664059,0,-11,-1,2,-1,-5,-3,15
18:21:01:670043,32,5,-3,-2,-3,-7,-38,23
18:21:01:685865,32,5,-3,-2,-3,-7,-38,23
18:21:01:686575,-9,-8,0,2,2,-13,-81,16
18:21:01:692550,5,7,0,1,3,4,6,-10
18:21:01:708286,5,7,0,1,3,4,6,-10
18:21:01:709136,-14,-10,-4,-4,-4,-15,-44,-29
18:21:01:715021,29,-23,-9,-4,-3,3,17,14
18:21:01:723299,29,-23,-9,-4,-3,3,17,14
18:21:01:724040,-2,12,2,2,3,8,12,-78
18:21:01:730033,-17,0,-2,1,-1,9,121,-59
18:21:01:745801,-17,0,-2,1,-1,9,121,-59
18:21:01:746533,-5,-2,-2,-5,-1,13,52,35
18:21:01:752572,-5,3,-3,-5,-6,-11,-20,-29
18:21:01:760790,-5,3,-3,-5,-6,-11,-20,-29
18:21:01:761568,-24,20,9,2,-4,-5,72,-66
18:21:01:783933,-15,-4,1,0,-1,-10,6,6
18:21:01:784797,-15,-4,1,0,-1,-10,6,6
18:21:01:785599,22,-15,-8,-4,-2,-6,-23,1
18:21:01:790032,30,5,-1,-1,1,2,-39,-88
18:21:01:805776,30,5,-1,-1,1,2,-39,-88
18:21:01:806514,21,-3,0,2,1,-3,-13,4
18:21:01:812528,44,-4,2,3,3,12,22,9
18:21:01:820773,44,-4,2,3,3,12,22,9
18:21:01:821660,3,-8,-1,0,3,14,25,93
18:21:01:835098,-32,-7,4,0,1,0,-47,29
18:21:01:843285,-32,-7,4,0,1,0,-47,29
18:21:01:844031,-3,-17,-4,-4,-3,-3,13,-45
18:21:01:850036,-7,-8,-4,-6,-7,-11,16,-14
18:21:01:865821,-7,-8,-4,-6,-7,-11,16,-14
18:21:01:866569,8,-2,-5,-1,2,6,20,-28
18:21:01:872525,-45,0,-1,1,4,-7,-112,59
18:21:01:880782,-45,0,-1,1,4,-7,-112,59
18:21:01:881538,-5,8,-1,0,-3,-21,-74,-90
18:21:01:895033,18,14,6,2,0,-10,-4,25
18:21:01:903303,18,14,6,2,0,-10,-4,25
18:21:01:904032,-28,-30,-14,-8,-4,0,11,-36
18:21:01:910021,-9,-5,-6,-4,-2,3,29,-17
18:21:01:926300,-9,-5,-6,-4,-2,3,29,-17
18:21:01:927042,11,-20,-5,-3,-9,-28,-88,-8
18:21:01:932568,-26,1,-3,-1,3,23,80,92
18:21:01:940811,-26,1,-3,-1,3,23,80,92
18:21:01:941552,-40,0,1,2,0,2,-13,49
18:21:01:955062,-6,2,-5,-3,-2,-3,-26,-21
18:21:01:963330,-6,2,-5,-3,-2,-3,-26,-21
18:21:01:964075,15,35,6,4,4,11,24,6
18:21:01:970065,-39,-16,-5,-3,2,16,-21,34
18:21:01:985801,-39,-16,-5,-3,2,16,-21,34
18:21:01:986546,11,10,1,-1,-6,1,-22,79
18:21:01:992535,-16,14,7,2,-4,-27,-95,-111
18:21:02:835,-16,14,7,2,-4,-27,-95,-111
18:21:02:1582,-46,-5,1,1,4,1,-16,19
18:21:02:15074,-4,-15,-5,-5,-6,-15,-77,-5
18:21:02:23287,-4,-15,-5,-5,-6,-15,-77,-5
18:21:02:24016,7,7,2,-2,0,3,-18,-31
18:21:02:46425,5,2,0,0,-2,4,34,-19
18:21:02:47297,5,2,0,0,-2,4,34,-19
18:21:02:48049,-6,-11,-8,-5,-6,-1,67,-80
18:21:02:52557,20,3,1,-2,-6,-17,-33,16
18:21:02:60802,20,3,1,-2,-6,-17,-33,16
18:21:02:61530,10,-14,-8,-6,-7,-10,-13,46
18:21:02:75048,-45,9,1,3,7,10,-40,48
18:21:02:83308,-45,9,1,3,7,10,-40,48
18:21:02:84041,11,10,3,3,1,-6,13,53
18:21:02:90062,9,7,2,0,-1,2,44,122
18:21:02:105803,9,7,2,0,-1,2,44,122
18:21:02:106546,6,6,-2,-3,4,19,20,13
18:21:02:112561,-6,-28,-4,-1,-3,0,30,-9
18:21:02:120810,-6,-28,-4,-1,-3,0,30,-9
18:21:02:121617,34,19,1,0,-1,-4,53,-18
18:21:02:135100,-14,13,-5,-4,-1,12,79,-40
18:21:02:143915,-14,13,-5,-4,-1,12,79,-40
18:21:02:144774,20,-8,-2,-2,-2,0,-80,15
18:21:02:150092,16,17,-1,-1,-2,5,3,-55
18:21:02:165778,16,17,-1,-1,-2,5,3,-55
18:21:02:166535,-7,5,2,1,1,-1,-15,-49
18:21:02:172542,-11,7,6,4,3,2,13,0
18:21:02:180795,-11,7,6,4,3,2,13,0
18:21:02:181546,-57,-1,-1,-1,-2,-10,30,32
18:21:02:195041,7,-5,-3,-2,-3,-3,1,-84
18:21:02:203369,7,-5,-3,-2,-3,-3,1,-84
18:21:02:204063,-9,11,3,-2,-6,-10,25,-81
18:21:02:210044,42,0,-1,1,2,5,5,68
18:21:02:225822,42,0,-1,1,2,5,5,68
18:21:02:226556,12,-11,-4,-3,-3,0,-17,50
18:21:02:232547,-5,1,0,0,-1,-6,-72,-22
18:21:02:240793,-5,1,0,0,-1,-6,-72,-22
18:21:02:241534,6,0,-1,2,0,0,113,17
18:21:02:262920,-44,7,5,3,3,-1,32,7
18:21:02:271428,-44,7,5,3,3,-1,32,7
18:21:02:272295,2,21,7,-3,-1,-10,-91,-88
18:21:02:273036,-41,-23,-5,-2,-2,-6,-36,37
18:21:02:285802,-41,-23,-5,-2,-2,-6,-36,37
18:21:02:286625,23,-29,-4,-1,-2,2,-8,10
18:21:02:292560,31,11,1,-2,1,1,49,-13
18:21:02:300829,31,11,1,-2,1,1,49,-13
18:21:02:301562,-31,-6,-6,-3,0,11,-47,75
18:21:02:315047,20,-12,-3,-3,-6,-11,-3,8
18:21:02:323312,20,-12,-3,-3,-6,-11,-3,8
18:21:02:324056,36,-6,-4,-2,-1,2,4,87
18:21:02:330064,3,10,7,6,6,6,26,5
18:21:02:345792,3,10,7,6,6,6,26,5
18:21:02:346536,-30,6,5,3,2,1,-16,1
18:21:02:352563,57,-14,-10,-8,-10,-13,6,10
18:21:02:360155,57,-14,-10,-8,-10,-13,6,10
18:21:02:367543,20,44,9,6,3,10,-1,-35
18:21:02:375062,9,-38,-14,-8,-2,-9,7,-28
18:21:02:383345,9,-38,-14,-8,-2,-9,7,-28
18:21:02:384073,-5,-18,-5,-4,-3,-10,-33,-28
18:21:02:397546,-7,2,1,1,-3,-18,-44,-50
18:21:02:405821,-7,2,1,1,-3,-18,-44,-50
18:21:02:406545,-21,-24,0,4,6,2,18,-9
18:21:02:412543,-81,-7,-8,-4,-4,-2,-27,4
18:21:02:420107,-81,-7,-8,-4,-4,-2,-27,4
18:21:02:427526,15,-12,-5,-5,-5,-8,10,21
18:21:02:435093,22,6,-1,0,5,15,91,37
18:21:02:443303,22,6,-1,0,5,15,91,37
18:21:02:444051,-23,-21,-8,-2,-3,5,-25,-70
18:21:02:466471,7,4,2,-1,0,9,10,-21
18:21:02:467316,7,4,2,-1,0,9,10,-21
18:21:02:468081,42,9,-2,-3,-5,-17,-41,-35
18:21:02:472551,5,3,4,2,7,19,-70,-23
18:21:02:480189,5,3,4,2,7,19,-70,-23
18:21:02:495688,27,27,4,2,2,4,-22,34
18:21:02:496543,18,22,0,0,-3,-1,5,26
18:21:02:503323,18,22,0,0,-3,-1,5,26
18:21:02:504053,8,-33,-6,-3,1,23,52,104
18:21:02:518061,-8,-26,-8,0,-1,4,47,50
18:21:02:525793,-8,-26,-8,0,-1,4,47,50
18:21:02:526552,-59,14,8,1,1,7,17,15
18:21:02:532571,-7,40,7,4,14,24,71,59
18:21:02:540167,-7,40,7,4,14,24,71,59
18:21:02:547554,3,44,17,9,5,-14,-64,-19
18:21:02:555057,14,10,-3,-3,-5,-9,-69,9
18:21:02:563319,14,10,-3,-3,-5,-9,-69,9
18:21:02:564047,6,-2,0,-3,-6,-9,-2,1
18:21:02:577541,37,0,-2,-5,-3,-2,29,9
18:21:02:585841,37,0,-2,-5,-3,-2,29,9
18:21:02:586615,22,-1,-12,-5,-6,2,52,22
18:21:02:592561,-77,-14,-12,-4,-2,3,-15,-61
18:21:02:600026,-77,-14,-12,-4,-2,3,-15,-61
18:21:02:607533,-5,-33,-5,-4,-4,5,65,2
18:21:02:615059,23,-27,5,3,0,-5,-13,4
18:21:02:623345,23,-27,5,3,0,-5,-13,4
18:21:02:624078,-5,-5,-29,-7,0,-2,-4,-35
18:21:02:637555,-45,-7,3,-7,-8,-15,-17,-3
18:21:02:645809,-45,-7,3,-7,-8,-15,-17,-3
18:21:02:646549,-1,5,5,1,-1,-1,-83,22
18:21:02:652594,7,-55,-3,-1,-5,-7,-36,-3
18:21:02:660051,7,-55,-3,-1,-5,-7,-36,-3
18:21:02:675805,-6,4,-5,10,16,6,-1,-7
18:21:02:676550,6,-9,-14,-5,-7,-9,29,-17
18:21:02:683286,6,-9,-14,-5,-7,-9,29,-17
18:21:02:684030,1,-1,-3,-4,0,6,30,-49
18:21:02:697532,2,21,6,2,-1,-1,33,-14
18:21:02:705787,2,21,6,2,-1,-1,33,-14
18:21:02:706531,0,-4,2,1,-3,2,-9,-31
18:21:02:712559,-19,-7,4,0,-1,3,-32,40
18:21:02:720112,-19,-7,4,0,-1,3,-32,40
18:21:02:735690,19,-4,5,-4,-2,-3,15,53
18:21:02:736571,36,31,14,7,2,-7,-14,24
18:21:02:743277,36,31,14,7,2,-7,-14,24
18:21:02:744038,-41,-45,-1,6,4,4,24,-10
18:21:02:757553,30,14,-5,1,-3,1,10,1
18:21:02:765848,30,14,-5,1,-3,1,10,1
18:21:02:766597,-5,20,28,20,5,-6,-14,-3
18:21:02:772558,-9,3,7,-6,4,-1,-18,11
18:21:02:780045,-9,3,7,-6,4,-1,-18,11
18:21:02:787577,6,-25,-9,-3,-11,-3,23,44
18:21:02:795038,-8,9,-22,-6,1,0,0,-4
18:21:02:803348,-8,9,-22,-6,1,0,0,-4
18:21:02:804050,-14,13,3,-2,-4,-3,-1,-9
18:21:02:817583,30,6,8,1,-7,-20,6,-51
18:21:02:833988,30,6,8,1,-7,-20,6,-51
18:21:02:834869,18,5,-27,-17,4,2,17,21
18:21:02:835612,43,11,3,3,4,5,2,47
18:21:02:840186,43,11,3,3,4,5,2,47
18:21:02:855684,-5,18,19,-20,-8,-5,-4,-8
18:21:02:856550,0,-6,0,-7,-2,0,-1,-9
18:21:02:863315,0,-6,0,-7,-2,0,-1,-9
18:21:02:864063,12,32,-2,5,-5,-5,-15,-7
18:21:02:877557,-31,8,7,2,-3,-5,-2,-25
18:21:02:885823,-31,8,7,2,-3,-5,-2,-25
18:21:02:886549,-19,-26,-2,-4,-5,-3,-5,8
18:21:02:892553,-37,7,3,4,11,5,-7,-13
18:21:02:908302,-37,7,3,4,11,5,-7,-13
18:21:02:909040,22,0,-7,-5,-6,-2,27,-1
18:21:02:915069,-5,-6,-2,13,-2,1,5,-59
18:21:02:923304,-5,-6,-2,13,-2,1,5,-59
18:21:02:924043,8,-22,7,5,1,-3,-7,2
18:21:02:937560,42,9,-3,11,2,3,-9,37
18:21:02:945780,42,9,-3,11,2,3,-9,37
18:21:02:946543,35,0,-18,-13,-7,-4,7,-34
18:21:02:952551,-11,36,21,4,2,2,10,15
18:21:02:960178,-11,36,21,4,2,2,10,15
18:21:02:967545,-76,-5,-7,3,-2,-4,10,3
18:21:02:975033,-7,-2,0,-14,-2,-2,-10,-6
18:21:02:990792,-7,-2,0,-14,-2,-2,-10,-6
18:21:02:991529,8,27,14,0,-3,1,-20,1
18:21:02:997561,-21,-27,-14,-6,-12,-12,-22,-71
18:21:03:13935,-21,-27,-14,-6,-12,-12,-22,-71
18:21:03:14685,61,30,14,10,10,8,19,7
18:21:03:15572,0,-15,-12,-8,-2,-4,0,38
18:21:03:28288,0,-15,-12,-8,-2,-4,0,38
18:21:03:29047,-79,-15,-5,-8,-4,-4,-9,-18
18:21:03:35104,-9,-59,-4,0,0,-1,5,2
18:21:03:43337,-9,-59,-4,0,0,-1,5,2
18:21:03:44063,34,-5,0,7,-3,-1,3,28
18:21:03:66426,21,-15,4,12,1,1,9,27
18:21:03:67321,21,-15,4,12,1,1,9,27
18:21:03:68051,-15,-1,-16,-13,0,1,-1,13
18:21:03:72532,-62,7,0,-9,-9,1,-12,3
18:21:03:80154,-62,7,0,-9,-9,1,-12,3
18:21:03:87543,-32,-42,-2,-15,-1,-4,-15,-18
18:21:03:95037,10,-19,-8,-7,-1,0,-4,13
18:21:03:103305,10,-19,-8,-7,-1,0,-4,13
18:21:03:104102,11,55,15,-2,-3,-2,-13,-9
18:21:03:117575,25,7,19,-8,-4,1,22,11
18:21:03:133976,25,7,19,-8,-4,1,22,11
18:21:03:134814,22,-18,1,2,-9,-5,-2,23
18:21:03:135551,39,25,3,3,5,4,14,0
18:21:03:140213,39,25,3,3,5,4,14,0
18:21:03:147565,-26,-35,-37,21,1,0,13,-7
18:21:03:155078,-38,28,-10,-6,0,-1,18,10
18:21:03:170798,-38,28,-10,-6,0,-1,18,10
18:21:03:171550,2,-6,18,-1,-2,0,13,-8
18:21:03:177529,22,0,-14,8,1,-2,0,-5
18:21:03:185791,22,0,-14,8,1,-2,0,-5
18:21:03:186619,-92,-20,-1,-10,-5,-1,8,-33
18:21:03:192577,21,39,15,35,16,5,-16,-19
18:21:03:200180,21,39,15,35,16,5,-16,-19
18:21:03:207535,-8,-12,23,4,-3,-3,-20,-34
18:21:03:215035,-29,-66,-18,-9,-9,-1,6,-12
18:21:03:223306,-29,-66,-18,-9,-9,-1,6,-12
18:21:03:224062,7,-8,29,-11,-2,-1,14,28
18:21:03:237561,45,32,-1,-10,7,-2,6,6
18:21:03:253942,45,32,-1,-10,7,-2,6,6
18:21:03:254812,79,-26,-75,-28,-9,-10,-54,-43
18:21:03:255544,5,-12,-22,-24,-13,-7,0,9
18:21:03:260159,5,-12,-22,-24,-13,-7,0,9
18:21:03:267546,-8,27,-14,4,1,1,0,5
18:21:03:275054,-7,8,15,9,-8,-13,-47,-73
18:21:03:290823,-7,8,15,9,-8,-13,-47,-73
18:21:03:291549,42,19,11,-15,-6,0,2,17
18:21:03:297544,-24,-30,12,10,-5,3,18,18
18:21:03:305835,-24,-30,12,10,-5,3,18,18
18:21:03:306565,15,7,-24,-3,2,-3,-7,7
18:21:03:328933,4,9,-23,-10,6,2,-6,-18
18:21:03:329703,4,9,-23,-10,6,2,-6,-18
18:21:03:330568,-27,-8,-20,20,-3,0,2,-23
18:21:03:335049,-6,42,15,-5,1,3,-26,-11
18:21:03:342551,-6,42,15,-5,1,3,-26,-11
18:21:03:350055,11,13,4,8,4,-4,7,9
18:21:03:366429,-55,-1,-11,3,-4,-1,11,18
18:21:03:367170,-55,-1,-11,3,-4,-1,11,18
18:21:03:368043,9,-30,10,15,-3,-4,-8,-67
18:21:03:380666,34,7,-9,-13,3,4,9,26
18:21:03:381536,34,7,-9,-13,3,4,9,26
18:21:03:387562,38,36,13,1,6,2,13,25
18:21:03:395054,-43,41,26,-10,9,5,22,-1
18:21:03:402552,-43,41,26,-10,9,5,22,-1
18:21:03:410059,27,24,-14,-20,-1,2,15,69
18:21:03:417547,1,-41,-41,-20,8,0,-6,-53
18:21:03:425818,1,-41,-41,-20,8,0,-6,-53
18:21:03:426559,-9,7,9,27,-3,0,-8,-37
18:21:03:440555,-7,-12,-3,6,6,-5,-11,28
18:21:03:448918,-7,-12,-3,6,6,-5,-11,28
18:21:03:449813,-28,-7,15,11,3,0,6,26
18:21:03:455057,10,-68,-30,-2,-12,-10,-48,-53
18:21:03:462557,10,-68,-30,-2,-12,-10,-48,-53
18:21:03:470130,-65,-80,-10,-16,-6,-1,-3,-5
18:21:03:477580,46,38,19,-4,-4,1,27,35
18:21:03:485819,46,38,19,-4,-4,1,27,35
18:21:03:486587,-18,-25,-8,-2,6,-4,19,-9
18:21:03:500834,75,-27,3,2,-8,-5,-15,1
18:21:03:501566,75,-27,3,2,-8,-5,-15,1
18:21:03:507555,4,16,43,0,2,2,5,-20
18:21:03:523313,-27,-50,-15,-15,-15,-5,5,-40
18:21:03:524070,-27,-50,-15,-15,-15,-5,5,-40
18:21:03:530079,-46,-68,21,8,5,5,13,27
18:21:03:537562,-1,-7,21,22,-10,-5,7,51
18:21:03:545799,-1,-7,21,22,-10,-5,7,51
18:21:03:546547,39,105,18,12,20,5,1,0
18:21:03:560792,-32,-46,-24,-15,-14,-5,-15,27
18:21:03:561541,-32,-46,-24,-15,-14,-5,-15,27
18:21:03:567567,16,35,-38,-12,-8,-4,-4,-37
18:21:03:575098,-105,-52,7,17,1,-4,-23,-28
18:21:03:582702,-105,-52,7,17,1,-4,-23,-28
18:21:03:590063,-4,8,-19,21,6,-5,-25,-5
18:21:03:597562,-70,46,12,11,1,2,34,-2
18:21:03:605814,-70,46,12,11,1,2,34,-2
18:21:03:606554,76,1,-3,-17,-10,-1,-23,63
18:21:03:620816,100,42,12,4,6,3,2,45
18:21:03:621556,100,42,12,4,6,3,2,45
18:21:03:627549,-4,16,42,1,-5,2,-1,-11
18:21:03:635092,42,9,-10,-31,5,3,-13,18
18:21:03:642673,42,9,-10,-31,5,3,-13,18
18:21:03:650119,-67,-63,-3,7,-4,-7,-8,-14
18:21:03:657569,-18,35,17,5,2,13,64,9
18:21:03:665819,-18,35,17,5,2,13,64,9
18:21:03:666629,53,63,15,-10,4,4,-7,15
18:21:03:680825,43,53,-5,2,-5,-2,6,-5
18:21:03:681558,43,53,-5,2,-5,-2,6,-5
18:21:03:687547,-16,-59,-16,-23,-26,-6,0,13
18:21:03:695049,12,2,-44,-10,-13,-14,-19,13
18:21:03:702565,12,2,-44,-10,-13,-14,-19,13
18:21:03:710062,29,27,-10,5,-8,-3,18,1
18:21:03:717546,-24,-10,-3,9,5,0,0,3
18:21:03:725813,-24,-10,-3,9,5,0,0,3
18:21:03:726547,-2,34,1,-1,-3,-3,-3,-19
18:21:03:740730,-19,-2,12,5,-2,-4,-30,-41
18:21:03:741567,-19,-2,12,5,-2,-4,-30,-41
18:21:03:747544,0,-6,-18,-17,5,4,25,9
18:21:03:755117,24,-6,32,38,29,10,6,-5
18:21:03:762564,24,-6,32,38,29,10,6,-5
18:21:03:770118,-14,-4,-14,-10,0,-4,-21,-40
18:21:03:777553,34,38,10,-16,-12,-3,18,24
18:21:03:785844,34,38,10,-16,-12,-3,18,24
18:21:03:786553,16,19,12,17,12,4,28,29
18:21:03:800695,7,-45,-13,-12,-8,-1,-3,4
18:21:03:801589,7,-45,-13,-12,-8,-1,-3,4
18:21:03:807569,7,44,-17,-17,-7,-8,-36,-2
18:21:03:815078,28,13,0,-35,3,-4,-16,7
18:21:03:822572,28,13,0,-35,3,-4,-16,7
18:21:03:830081,54,-44,-26,-19,-2,1,-7,1
18:21:03:837561,5,15,30,15,-1,-1,-6,8
18:21:03:845813,5,15,30,15,-1,-1,-6,8
18:21:03:846563,3,-20,12,20,7,-1,-29,-11
18:21:03:860818,6,1,-25,-12,-2,0,-22,-41
18:21:03:861550,6,1,-25,-12,-2,0,-22,-41
18:21:03:867611,-68,31,-11,-1,-11,-9,5,7
18:21:03:875066,48,40,-9,23,39,10,-3,-3
18:21:03:882561,48,40,-9,23,39,10,-3,-3
18:21:03:890069,-29,-59,-8,11,-1,0,4,7
18:21:03:897561,-1,21,11,4,-9,1,16,8
18:21:03:905827,-1,21,11,4,-9,1,16,8
18:21:03:906576,-11,-27,21,-5,-4,1,22,7
18:21:03:920820,-16,-21,12,4,-9,-2,2,14
18:21:03:921559,-16,-21,12,4,-9,-2,2,14
18:21:03:935714,22,-6,-5,-4,-7,-6,-33,-50
18:21:03:936627,61,-1,-44,19,25,8,15,10
18:21:03:942563,61,-1,-44,19,25,8,15,10
18:21:03:950135,9,-10,-15,-3,11,5,47,1
18:21:03:957590,-126,-67,11,-19,-22,-3,16,-5
18:21:03:965839,-126,-67,11,-19,-22,-3,16,-5
18:21:03:966578,-12,-27,-18,16,15,5,-2,16
18:21:03:980813,2,-1,1,11,-7,-8,-34,-19
18:21:03:981547,2,-1,1,11,-7,-8,-34,-19
18:21:03:987599,-7,-22,-34,-17,-1,-6,-4,0
18:21:03:995050,16,62,-1,-12,-13,-2,16,3
18:21:04:2692,16,62,-1,-12,-13,-2,16,3
18:21:04:10094,-10,-4,5,-5,1,4,-10,-36
18:21:04:17563,20,-55,-13,-15,-10,-5,29,6
18:21:04:33344,20,-55,-13,-15,-10,-5,29,6
18:21:04:34055,7,14,26,18,7,2,-36,19
18:21:04:40088,30,18,15,-16,-6,0,-9,9
18:21:04:48343,30,18,15,-16,-6,0,-9,9
18:21:04:49069,37,-9,-19,-20,-6,-1,40,12
18:21:04:55067,12,-50,-1,-6,-2,-9,-36,-1
18:21:04:62688,12,-50,-1,-6,-2,-9,-36,-1
18:21:04:70119,-31,-40,-37,-7,-6,-3,7,3
18:21:04:77551,-37,-16,-6,-15,-39,-6,-1,-7
18:21:04:85843,-37,-16,-6,-15,-39,-6,-1,-7
18:21:04:86602,-26,-72,6,2,-9,-6,-26,-3
18:21:04:100756,-24,-82,-37,-27,-12,-12,-17,-2
18:21:04:101620,-24,-82,-37,-27,-12,-12,-17,-2
18:21:04:107567,31,-8,54,25,11,1,-18,-44
18:21:04:115048,-19,91,-30,21,28,8,5,-4
18:21:04:122544,-19,91,-30,21,28,8,5,-4
18:21:04:130059,-9,24,22,11,-4,-3,12,20
18:21:04:137591,22,-12,22,25,21,5,9,-4
18:21:04:145818,22,-12,22,25,21,5,9,-4
18:21:04:146591,-7,31,4,-6,-5,4,13,-3
18:21:04:160059,-43,6,12,-7,-6,0,6,23
18:21:04:168229,-43,6,12,-7,-6,0,6,23
18:21:04:169068,22,37,38,-18,-5,1,10,2
18:21:04:175082,33,-34,-25,-17,10,6,18,12
18:21:04:182590,33,-34,-25,-17,10,6,18,12
18:21:04:190078,66,5,-12,6,-2,-2,-17,21
18:21:04:197574,13,14,24,9,-5,3,-5,17
18:21:04:205818,13,14,24,9,-5,3,-5,17
18:21:04:206546,-10,10,-11,-19,-3,0,9,-4
18:21:04:220134,-112,-22,-18,-1,2,-4,4,-48
18:21:04:228308,-112,-22,-18,-1,2,-4,4,-48
18:21:04:229053,-28,7,-6,5,1,0,-15,-6
18:21:04:235065,10,-1,39,13,11,3,5,4
18:21:04:242625,10,-1,39,13,11,3,5,4
18:21:04:250078,-24,-9,-7,1,-1,-8,-9,-3
18:21:04:257560,41,-27,-29,18,14,6,16,8
18:21:04:265174,41,-27,-29,18,14,6,16,8
18:21:04:272570,-78,-97,-41,1,5,1,1,9
18:21:04:280051,-2,-6,-22,-19,-19,-8,-9,-32
18:21:04:288328,-2,-6,-22,-19,-19,-8,-9,-32
18:21:04:289060,66,66,21,9,10,5,1,13
18:21:04:303330,-86,-7,6,-6,-9,-7,-30,-54
18:21:04:304067,-86,-7,6,-6,-9,-7,-30,-54
18:21:04:310049,10,-2,-31,-20,-5,0,5,1
18:21:04:317633,-15,-20,47,12,0,1,-6,-30
18:21:04:325195,-15,-20,47,12,0,1,-6,-30
18:21:04:332545,-27,-22,-36,0,-4,-1,-8,-14
18:21:04:340069,57,-11,13,-6,-13,-6,10,14
18:21:04:348224,57,-11,13,-6,-13,-6,10,14
18:21:04:349075,34,37,42,9,-5,3,26,10
18:21:04:363947,63,56,4,5,10,0,2,26
18:21:04:364702,63,56,4,5,10,0,2,26
18:21:04:370095,-11,20,25,4,-2,-2,7,-4
18:21:04:377551,-3,-32,22,9,5,-1,11,1
18:21:04:385089,-3,-32,22,9,5,-1,11,1
18:21:04:392584,-41,96,40,3,7,8,-13,7
18:21:04:400101,37,-12,-18,-5,2,2,-5,12
18:21:04:415857,37,-12,-18,-5,2,2,-5,12
18:21:04:416573,36,12,17,-12,-12,-7,-18,-14
18:21:04:423224,-18,6,-24,-14,-1,1,-2,7
18:21:04:424066,-18,6,-24,-14,-1,1,-2,7
18:21:04:430070,5,-26,28,13,2,-5,15,11
18:21:04:437583,-60,44,-20,-7,-12,-9,-13,-17
18:21:04:445068,-60,44,-20,-7,-12,-9,-13,-17
18:21:04:452593,2,-3,-25,-11,-9,-2,-7,-18
18:21:04:460074,29,45,25,23,6,1,2,14
18:21:04:475713,29,45,25,23,6,1,2,14
18:21:04:476559,-4,4,-51,-4,-4,-4,-5,7
18:21:04:483184,11,-5,21,-8,-12,-6,-9,-15
18:21:04:484064,11,-5,21,-8,-12,-6,-9,-15
18:21:04:490046,19,-5,-4,2,4,0,10,-22
18:21:04:497583,-57,-23,-10,7,6,2,-18,-10
18:21:04:505076,-57,-23,-10,7,6,2,-18,-10
18:21:04:512592,3,-20,-26,-28,0,1,12,-2
18:21:04:520059,-26,-29,1,5,8,0,-9,-4
18:21:04:528306,-26,-29,1,5,8,0,-9,-4
18:21:04:529061,51,-11,34,-16,-13,-8,-14,27
18:21:04:543310,32,13,-1,-21,-11,-6,-11,6
18:21:04:544053,32,13,-1,-21,-11,-6,-11,6
18:21:04:550093,-36,4,8,6,11,4,3,-14
18:21:04:557590,24,19,-13,-1,-6,-2,2,-23
18:21:04:565066,24,19,-13,-1,-6,-2,2,-23
18:21:04:572561,6,1,24,13,-5,-2,12,12
18:21:04:580058,18,2,2,1,-2,-3,-8,20
18:21:04:588339,18,2,2,1,-2,-3,-8,20
18:21:04:589053,-1,-21,-7,7,6,-1,-3,-5
18:21:04:611449,-19,3,2,-4,-8,-3,10,14
18:21:04:612191,-19,3,2,-4,-8,-3,10,14
18:21:04:613066,-8,51,25,-11,-4,-2,-6,7
18:21:04:617613,23,42,36,15,12,7,9,6
18:21:04:625077,23,42,36,15,12,7,9,6
18:21:04:632587,-2,-44,-28,3,8,-1,-27,2
18:21:04:640089,-54,5,-11,-32,-9,-2,2,-24
18:21:04:648335,-54,5,-11,-32,-9,-2,2,-24
18:21:04:649063,-12,-9,-9,21,4,-2,4,18
18:21:04:671481,-51,-95,-1,12,-3,-4,-7,-8
18:21:04:672184,-51,-95,-1,12,-3,-4,-7,-8
18:21:04:673057,-14,59,-19,-11,-7,1,15,6
18:21:04:677575,35,6,-22,-12,-1,-1,6,7
18:21:04:685084,35,6,-22,-12,-1,-1,6,7
18:21:04:692556,-47,-33,-14,-2,-2,-2,-1,-21
18:21:04:700106,-2,-36,-42,-8,3,3,15,-23
18:21:04:708326,-2,-36,-42,-8,3,3,15,-23
18:21:04:709074,20,11,33,6,-8,-5,-12,-3
18:21:04:723189,8,-51,-17,5,-5,-3,-1,3
18:21:04:724058,8,-51,-17,5,-5,-3,-1,3
18:21:04:730090,-31,-10,-15,-8,-6,-1,-4,-29
18:21:04:737603,54,47,27,-4,-5,1,0,20
18:21:04:745082,54,47,27,-4,-5,1,0,20
18:21:04:752577,42,9,4,0,-1,0,0,17
18:21:04:769002,29,30,-16,11,5,-2,-9,10
18:21:04:769739,29,30,-16,11,5,-2,-9,10
18:21:04:770608,-18,-13,-6,16,22,9,0,13
18:21:04:783228,5,-11,14,-8,2,2,10,-7
18:21:04:784072,5,-11,14,-8,2,2,10,-7
18:21:04:790094,-22,-15,-6,-11,-14,-7,8,6
18:21:04:797586,-10,20,24,18,21,5,-2,10
18:21:04:805098,-10,20,24,18,21,5,-2,10
18:21:04:812559,29,-22,6,4,-7,-2,-4,-4
18:21:04:820858,-34,-2,-1,-9,-6,-2,-14,3
18:21:04:821574,-34,-2,-1,-9,-6,-2,-14,3
18:21:04:827564,6,4,-28,2,7,5,-3,7
18:21:04:843328,20,17,-6,4,-8,1,13,13
18:21:04:844067,20,17,-6,4,-8,1,13,13
18:21:04:850100,9,8,28,1,-9,-3,2,-6
18:21:04:857575,-13,57,49,20,-1,0,8,-7
18:21:04:865085,-13,57,49,20,-1,0,8,-7
18:21:04:872561,74,-17,-35,3,25,7,0,7
18:21:04:880829,-36,0,-16,-38,-24,-12,-14,-24
18:21:04:881571,-36,0,-16,-38,-24,-12,-14,-24
18:21:04:887564,-31,5,13,16,6,5,-3,-13
18:21:04:903346,44,5,-25,-13,-6,-6,-6,-6
18:21:04:904084,44,5,-25,-13,-6,-6,-6,-6
18:21:04:910092,2,-22,-24,-13,-8,-9,7,1
18:21:04:917586,-9,-32,-25,7,6,2,12,15
18:21:04:925194,-9,-32,-25,7,6,2,12,15
18:21:04:932576,24,1,19,-16,-9,-4,-1,-8
18:21:04:940697,-20,-25,-11,-4,-14,-3,4,-11
18:21:04:941569,-20,-25,-11,-4,-14,-3,4,-11
18:21:04:947574,-80,-14,-1,29,4,-3,-3,-6
18:21:04:963196,17,0,15,-1,4,2,-2,20
18:21:04:964059,17,0,15,-1,4,2,-2,20
18:21:04:970154,15,-12,5,-9,0,-1,4,16
18:21:04:977555,3,-36,4,17,11,1,-14,1
18:21:04:985122,3,-36,4,17,11,1,-14,1
18:21:04:992590,16,37,-19,8,-5,-1,3,5
18:21:05:762,-10,-32,-41,-2,6,3,1,-4
18:21:05:1616,-10,-32,-41,-2,6,3,1,-4
18:21:05:7578,-24,14,38,24,18,4,-1,1
18:21:05:23210,-70,2,-4,-11,-14,-9,-26,-48
18:21:05:24066,-70,2,-4,-11,-14,-9,-26,-48
18:21:05:30093,30,49,25,2,-1,-1,8,5
18:21:05:37573,67,50,2,-5,-3,-3,8,7
18:21:05:45069,67,50,2,-5,-3,-3,8,7
18:21:05:52624,9,-53,1,-36,-25,-8,0,-8
18:21:05:60834,4,-6,-25,-16,-13,-1,-6,10
18:21:05:61569,4,-6,-25,-16,-13,-1,-6,10
18:21:05:67610,22,-3,-4,2,-3,-1,14,19
18:21:05:83249,-12,23,8,26,19,5,-3,1
18:21:05:84119,-12,23,8,26,19,5,-3,1
18:21:05:90098,-7,-27,-50,-22,-10,-5,-17,-12
18:21:05:97596,8,3,23,2,2,2,2,8
18:21:05:105112,8,3,23,2,2,2,2,8
18:21:05:112610,6,-10,-15,3,-10,-9,-12,-50
18:21:05:120869,-43,59,4,15,11,5,18,-1
18:21:05:121586,-43,59,4,15,11,5,18,-1
18:21:05:127590,-10,-49,-6,33,5,-1,-11,-9
18:21:05:143349,39,-10,-48,-22,-10,-2,-6,15
18:21:05:144079,39,-10,-48,-22,-10,-2,-6,15
18:21:05:150095,-43,36,8,-7,-3,0,-11,-5
18:21:05:157587,-13,-19,3,17,7,3,29,10
18:21:05:165085,-13,-19,3,17,7,3,29,10
18:21:05:172584,-10,-33,-32,-8,3,3,10,1
18:21:05:180097,-13,-25,4,3,5,-2,-7,-28
18:21:05:188237,-13,-25,4,3,5,-2,-7,-28
18:21:05:189074,-47,-35,-10,23,1,2,1,-6
18:21:05:203341,-5,-18,11,-6,-14,-7,-12,-9
18:21:05:204087,-5,-18,11,-6,-14,-7,-12,-9
18:21:05:210083,9,41,25,-11,-3,-1,-1,11
18:21:05:225852,-10,44,45,-8,2,1,-35,-2
18:21:05:226573,-10,44,45,-8,2,1,-35,-2
18:21:05:232634,-16,3,-6,-37,-10,-5,7,-38
18:21:05:240808,10,-9,0,16,6,1,5,8
18:21:05:241568,10,-9,0,16,6,1,5,8
18:21:05:255068,5,-20,-4,-6,-5,-2,4,30
18:21:05:263333,1,-27,23,8,-9,-3,-7,-14
18:21:05:264082,1,-27,23,8,-9,-3,-7,-14
18:21:05:270075,-4,19,15,8,2,2,1,0
18:21:05:285717,11,-26,-49,-19,-5,1,25,26
18:21:05:286597,11,-26,-49,-19,-5,1,25,26
18:21:05:292586,30,12,-2,-9,-9,-4,5,16
18:21:05:300915,-12,9,7,-27,-7,3,4,-16
18:21:05:301622,-12,9,7,-27,-7,3,4,-16
18:21:05:315097,-26,11,1,-15,-5,-7,-32,-27
18:21:05:323319,-9,44,46,-10,-12,-2,24,19
18:21:05:324066,-9,44,46,-10,-12,-2,24,19
18:21:05:330106,14,-2,15,-3,7,1,2,-26
18:21:05:345707,10,-10,-10,-1,4,-2,-5,-20
18:21:05:346571,10,-10,-10,-1,4,-2,-5,-20
18:21:05:352596,-10,17,-12,12,11,5,0,5
18:21:05:360816,41,-13,-10,2,3,-4,9,-1
18:21:05:361571,41,-13,-10,2,3,-4,9,-1
18:21:05:375091,16,-13,-1,-2,-3,2,13,20
18:21:05:383240,-7,-17,-2,17,5,-3,-14,5
18:21:05:384085,-7,-17,-2,17,5,-3,-14,5
18:21:05:390078,-4,21,-34,-8,11,4,-8,-5
18:21:05:405702,-35,-31,-20,-12,-5,-9,-43,1
18:21:05:406567,-35,-31,-20,-12,-5,-9,-43,1
18:21:05:412592,40,10,21,9,-5,-5,-13,37
18:21:05:428206,-10,-11,-4,5,4,4,24,27
18:21:05:429098,-10,-11,-4,5,4,4,24,27
18:21:05:435115,-22,-12,2,-10,-8,-9,-27,-2
18:21:05:443207,-14,13,6,2,-1,0,3,-3
18:21:05:444074,-14,13,6,2,-1,0,3,-3
18:21:05:450091,48,6,3,0,1,5,25,33
18:21:05:465692,48,6,3,0,1,5,25,33
18:21:05:466615,4,15,-7,-5,0,-2,-37,-4
18:21:05:480091,-17,12,9,-9,-7,0,4,1
18:21:05:488224,-17,12,9,-9,-7,0,4,1
18:21:05:489057,24,4,-3,-3,-3,-8,-29,6
18:21:05:495083,-65,-26,2,0,-4,0,-13,-15
