Time,EMG1,EMG2,EMG3,EMG4,EMG5,EMG6,EMG7,EMG8
20:56:39:268651,-1,-1,0,-2,0,-1,-1,-1
20:56:39:276885,-1,-1,0,-2,0,-1,-1,-1
20:56:39:277648,-2,1,0,1,1,0,2,1
20:56:39:283621,-5,-1,-1,0,-1,0,-3,-3
20:56:39:299362,-5,-1,-1,0,-1,0,-3,-3
20:56:39:300148,3,1,2,-2,-2,-3,-2,0
20:56:39:306116,-4,-3,-1,1,-1,0,2,-1
20:56:39:314354,-4,-3,-1,1,-1,0,2,-1
20:56:39:315147,-1,2,-2,-1,-1,-1,0,-2
20:56:39:328616,3,0,0,-1,-1,-2,0,2
20:56:39:336845,3,0,0,-1,-1,-2,0,2
20:56:39:337631,-5,-6,-2,-2,-2,-1,0,-2
20:56:39:343615,-3,0,-3,-1,0,0,0,-1
20:56:39:359356,-3,0,-3,-1,0,0,0,-1
20:56:39:360154,-2,2,-2,-1,-2,-2,-1,0
20:56:39:366111,0,-1,-2,0,-2,-2,0,0
20:56:39:374371,0,-1,-2,0,-2,-2,0,0
20:56:39:375147,1,-2,-2,0,-1,0,-1,0
20:56:39:388690,-1,-1,1,0,-2,-2,-1,0
20:56:39:396850,-1,-1,1,0,-2,-2,-1,0
20:56:39:397637,1,0,0,-1,-1,1,0,0
20:56:39:403640,1,-2,-2,-3,-1,-1,-1,-1
20:56:39:419334,1,-2,-2,-3,-1,-1,-1,-1
20:56:39:420119,-1,-1,0,-1,-2,-2,-1,0
20:56:39:426165,-2,-3,-1,0,1,0,-2,-3
20:56:39:434374,-2,-3,-1,0,1,0,-2,-3
20:56:39:435189,-6,-1,-1,-1,-1,-3,-1,-2
20:56:39:448714,-1,0,0,2,-2,-2,0,-1
20:56:39:456815,-1,0,0,2,-2,-2,0,-1
20:56:39:457629,3,0,1,0,-1,-1,-2,1
20:56:39:471163,-2,1,-1,-2,0,1,-2,-1
20:56:39:479335,-2,1,-1,-2,0,1,-2,-1
20:56:39:480132,0,-2,-1,-2,0,0,-1,0
20:56:39:486179,2,0,0,-1,-1,-2,0,-1
20:56:39:494357,2,0,0,-1,-1,-2,0,-1
20:56:39:495131,0,1,-1,-2,-1,0,0,-1
20:56:39:508666,-2,-1,0,-1,-3,-1,-2,-1
20:56:39:516802,-2,-1,0,-1,-3,-1,-2,-1
20:56:39:517614,-7,-3,2,1,0,-2,-1,0
20:56:39:523659,0,-1,-2,-2,-2,-1,1,-1
20:56:39:539340,0,-1,-2,-2,-2,-1,1,-1
20:56:39:540112,1,-1,-2,-2,0,-3,-1,-2
20:56:39:546134,-3,0,0,-2,-2,0,-1,-1
20:56:39:554341,-3,0,0,-2,-2,0,-1,-1
20:56:39:555128,-1,-1,-2,-1,-2,-2,1,-1
20:56:39:568648,-3,0,-3,-3,1,-3,0,-2
20:56:39:576853,-3,0,-3,-3,1,-3,0,-2
20:56:39:577607,-4,-2,-4,-2,-1,1,0,-1
20:56:39:583628,2,-3,1,1,1,0,-2,-1
20:56:39:599372,2,-3,1,1,1,0,-2,-1
20:56:39:600153,0,-1,-1,0,-1,-2,-2,-2
20:56:39:606150,-4,-1,-2,-3,-1,-2,0,0
20:56:39:614300,-4,-1,-2,-3,-1,-2,0,0
20:56:39:615113,0,1,-1,-1,1,0,-3,-1
20:56:39:628630,0,0,1,-2,-1,0,-1,-1
20:56:39:636905,0,0,1,-2,-1,0,-1,-1
20:56:39:637744,0,-1,-1,-2,-2,-2,0,0
20:56:39:643633,0,-1,-1,1,0,-3,-1,0
20:56:39:659363,0,-1,-1,1,0,-3,-1,0
20:56:39:660155,1,0,-4,-3,-2,-1,0,1
20:56:39:666141,1,-5,-1,-2,-2,-1,-2,-1
20:56:39:673766,1,-5,-1,-2,-2,-1,-2,-1
20:56:39:681159,6,-2,-1,-1,-2,-2,-1,-1
20:56:39:688634,-4,-1,-2,-1,-2,-1,-1,-1
20:56:39:696838,-4,-1,-2,-1,-2,-1,-1,-1
20:56:39:697601,-3,0,1,0,-1,-2,0,-2
20:56:39:711158,1,0,-4,-3,-1,-2,0,-1
20:56:39:719357,1,0,-4,-3,-1,-2,0,-1
20:56:39:720172,-1,1,1,2,1,-1,0,0
20:56:39:726165,-3,-2,-3,1,-2,-3,-2,0
20:56:39:733740,-3,-2,-3,1,-2,-3,-2,0
20:56:39:749302,-2,-1,-1,1,0,1,-2,-1
20:56:39:750101,0,1,0,-1,0,-3,-1,-2
20:56:39:756807,0,1,0,-1,0,-3,-1,-2
20:56:39:757609,-2,1,-2,-3,-1,-1,-3,-1
20:56:39:771190,-2,-3,-1,-1,-1,-1,-1,1
20:56:39:779396,-2,-3,-1,-1,-1,-1,-1,1
20:56:39:780147,-6,-4,1,-1,-1,-1,-2,-2
20:56:39:786138,-5,-2,0,0,-2,1,-3,-2
20:56:39:793666,-5,-2,0,0,-2,1,-3,-2
20:56:39:801123,3,-2,0,0,-3,0,2,1
20:56:39:808671,7,0,1,-1,-1,1,0,2
20:56:39:816828,7,0,1,-1,-1,1,0,2
20:56:39:817623,-5,0,-1,-1,-1,-2,-1,-4
20:56:39:831122,0,-2,0,-3,-1,1,-2,-1
20:56:39:839354,0,-2,0,-3,-1,1,-2,-1
20:56:39:840103,2,-1,-4,-2,0,-2,1,-1
20:56:39:846140,0,-1,-2,-3,-1,-1,0,-2
20:56:39:853674,0,-1,-2,-3,-1,-1,0,-2
20:56:39:861089,-2,0,0,1,0,-1,0,-1
20:56:39:868610,-2,-2,-1,-1,-1,0,-1,-1
20:56:39:876855,-2,-2,-1,-1,-1,0,-1,-1
20:56:39:877629,0,2,1,0,-2,-1,-1,-1
20:56:39:891173,-5,-1,-2,0,0,1,-1,0
20:56:39:899373,-5,-1,-2,0,0,1,-1,0
20:56:39:900125,0,-4,0,0,-2,0,-1,-1
20:56:39:906115,-2,1,-2,0,-1,-2,-2,-2
20:56:39:913762,-2,1,-2,0,-1,-2,-2,-2
20:56:39:921142,0,-1,-2,-1,-1,0,0,0
20:56:39:928631,-1,0,-2,-1,0,-2,1,0
20:56:39:936850,-1,0,-2,-1,0,-2,1,0
20:56:39:937727,-1,0,-3,-3,-1,-3,-1,0
20:56:39:951150,-2,-1,-2,1,-1,0,-2,-2
20:56:39:959398,-2,-1,-2,1,-1,0,-2,-2
20:56:39:960161,-2,-4,-1,-2,-2,0,-1,-2
20:56:39:966112,-3,0,1,-2,1,-2,-1,-2
20:56:39:973748,-3,0,1,-2,1,-2,-1,-2
20:56:39:981154,-10,-3,1,-2,-3,-2,0,-2
20:56:39:988610,-6,-1,0,1,-2,-2,-1,1
20:56:39:996885,-6,-1,0,1,-2,-2,-1,1
20:56:39:997737,1,0,-2,2,0,0,-3,0
20:56:40:11149,0,0,-2,1,-2,-1,1,-1
20:56:40:20016,0,0,-2,1,-2,-1,1,-1
20:56:40:20826,2,-2,-2,-2,1,-2,1,0
20:56:40:26176,-7,-1,0,-1,-1,-2,-1,-2
20:56:40:33728,-7,-1,0,-1,-1,-2,-1,-2
20:56:40:41178,3,1,-1,-3,-3,-2,-2,-4
20:56:40:48627,1,-4,-1,-2,-2,0,-2,-2
20:56:40:56834,1,-4,-1,-2,-2,0,-2,-2
20:56:40:57611,1,-4,0,-2,-1,0,0,-1
20:56:40:71138,-3,16,1,2,0,0,0,0
20:56:40:79365,-3,16,1,2,0,0,0,0
20:56:40:80171,-2,-5,-1,-1,0,-1,-1,0
20:56:40:86152,3,-4,-1,-3,-2,-3,0,-2
20:56:40:93667,3,-4,-1,-3,-2,-3,0,-2
20:56:40:101172,0,3,0,2,0,1,-1,-1
20:56:40:108629,2,-5,-2,2,0,0,-1,-1
20:56:40:116827,2,-5,-2,2,0,0,-1,-1
20:56:40:117604,-1,-4,0,-1,-2,-3,0,-1
20:56:40:131150,-1,-6,-3,-1,-3,-2,-1,1
20:56:40:139304,-1,-6,-3,-1,-3,-2,-1,1
20:56:40:140118,0,1,1,-1,-1,-1,-1,-3
20:56:40:146151,3,0,1,1,2,2,-2,-1
20:56:40:153684,3,0,1,1,2,2,-2,-1
20:56:40:161121,-2,2,-3,-2,-1,-1,-3,-1
20:56:40:168627,2,-4,-2,-3,-1,-2,0,0
20:56:40:176859,2,-4,-2,-3,-1,-2,0,0
20:56:40:177641,0,-2,-1,-1,0,-1,-1,-2
20:56:40:191163,0,-1,-3,-4,0,-5,-1,-1
20:56:40:199360,0,-1,-3,-4,0,-5,-1,-1
20:56:40:200148,0,0,-3,1,1,-2,-1,-1
20:56:40:206107,4,-1,1,-1,-3,-1,0,-2
20:56:40:213733,4,-1,1,-1,-3,-1,0,-2
20:56:40:221105,1,-1,-1,0,-1,-1,-2,-1
20:56:40:228632,-3,0,-4,-4,-2,1,1,-2
20:56:40:236852,-3,0,-4,-4,-2,1,1,-2
20:56:40:237637,-3,-5,-3,-6,-3,-1,-1,0
20:56:40:260000,0,0,1,2,0,-2,-1,-3
20:56:40:260789,0,0,1,2,0,-2,-1,-3
20:56:40:261582,-1,0,0,-2,0,-2,0,-2
20:56:40:274299,-3,-5,-4,-13,-4,-2,-1,-1
20:56:40:275101,-3,-5,-4,-13,-4,-2,-1,-1
20:56:40:281123,0,1,0,7,0,-1,-2,0
20:56:40:288677,-4,0,-4,-9,-3,-2,-3,-4
20:56:40:304438,-4,0,-4,-9,-3,-2,-3,-4
20:56:40:305165,7,1,-1,7,-2,-2,-1,1
20:56:40:311155,-4,-5,-2,5,1,0,-2,-1
20:56:40:319327,-4,-5,-2,5,1,0,-2,-1
20:56:40:320094,-3,-5,-1,-2,1,1,-1,-2
20:56:40:326141,-4,2,12,6,-2,-3,-1,1
20:56:40:333693,-4,2,12,6,-2,-3,-1,1
20:56:40:341089,-3,0,-7,-12,-4,0,-3,-1
20:56:40:348608,7,1,-16,13,2,-2,5,-5
20:56:40:356830,7,1,-16,13,2,-2,5,-5
20:56:40:357629,6,0,7,7,-4,1,10,0
20:56:40:371155,5,-1,7,5,13,6,21,-5
20:56:40:379333,5,-1,7,5,13,6,21,-5
20:56:40:380135,-5,-2,7,-10,-10,-9,-28,3
20:56:40:386074,-3,-1,9,8,-4,-9,-37,7
20:56:40:393729,-3,-1,9,8,-4,-9,-37,7
20:56:40:401154,-2,0,3,2,8,14,34,5
20:56:40:408634,-21,-1,1,-12,-6,-11,-37,6
20:56:40:416891,-21,-1,1,-12,-6,-11,-37,6
20:56:40:417633,-3,-6,-7,-5,-4,1,-10,-8
20:56:40:431083,-4,10,-1,5,9,3,-11,-8
20:56:40:439337,-4,10,-1,5,9,3,-11,-8
20:56:40:440128,-6,-4,-12,0,2,9,28,-24
20:56:40:446139,7,-5,-5,-1,-6,0,52,0
20:56:40:453729,7,-5,-5,-1,-6,0,52,0
20:56:40:461119,-1,-8,-5,0,0,-5,-28,-9
20:56:40:468608,-1,-9,-10,-5,-5,-4,-37,-1
20:56:40:476900,-1,-9,-10,-5,-5,-4,-37,-1
20:56:40:477724,-3,0,-2,-14,-1,-7,11,9
20:56:40:491144,1,-9,6,-6,-6,-2,-2,11
20:56:40:499333,1,-9,6,-6,-6,-2,-2,11
20:56:40:500152,2,6,12,-7,4,3,-9,5
20:56:40:506155,13,2,-3,-5,-2,6,18,-2
20:56:40:513769,13,2,-3,-5,-2,6,18,-2
20:56:40:521156,-3,-7,-5,6,-2,-7,-16,-2
20:56:40:528647,1,-3,-22,-12,-2,-1,14,2
20:56:40:536826,1,-3,-22,-12,-2,-1,14,2
20:56:40:537607,15,10,7,11,1,-1,-2,-26
20:56:40:551129,-1,4,8,4,-2,-2,-2,-5
20:56:40:559367,-1,4,8,4,-2,-2,-2,-5
20:56:40:560161,0,0,-10,-3,2,2,4,7
20:56:40:582483,-1,2,6,2,-1,7,17,0
20:56:40:583284,-1,2,6,2,-1,7,17,0
20:56:40:584124,-9,-3,-1,-3,-1,-8,-36,2
20:56:40:588581,-6,0,3,-3,-2,-5,-15,1
20:56:40:596846,-6,0,3,-3,-2,-5,-15,1
20:56:40:597637,-4,-5,-5,0,-3,-2,1,2
20:56:40:611136,3,-2,1,3,3,1,-1,-5
20:56:40:619335,3,-2,1,3,3,1,-1,-5
20:56:40:620131,-4,2,-2,-9,-3,-5,-11,2
20:56:40:634335,-5,-6,-3,0,-2,-2,10,-2
20:56:40:635143,-5,-6,-3,0,-2,-2,10,-2
20:56:40:641095,-2,-4,11,4,-2,-3,10,4
20:56:40:656827,-2,5,7,0,-4,-2,-3,-5
20:56:40:657609,-2,5,7,0,-4,-2,-3,-5
20:56:40:663656,-1,-4,-12,1,0,0,7,1
20:56:40:671134,-3,1,-11,-7,-2,-4,-11,-2
20:56:40:679317,-3,1,-11,-7,-2,-4,-11,-2
20:56:40:680142,-3,-1,-5,-4,0,1,9,2
20:56:40:694285,-2,-4,2,1,-3,-2,-1,-2
20:56:40:695103,-2,-4,2,1,-3,-2,-1,-2
20:56:40:701133,0,2,0,-1,3,1,2,2
20:56:40:708644,-1,-4,-1,-9,-2,-1,-1,-3
20:56:40:716158,-1,-4,-1,-9,-2,-1,-1,-3
20:56:40:723617,-1,2,3,0,-5,-3,-3,1
20:56:40:731104,-1,0,1,11,3,-2,1,-1
20:56:40:739350,-1,0,1,11,3,-2,1,-1
20:56:40:740136,0,-3,2,-11,1,2,1,2
20:56:40:754336,-2,1,0,1,-2,0,0,0
20:56:40:755128,-2,1,0,1,-2,0,0,0
20:56:40:761120,0,0,-6,-23,0,0,3,-1
20:56:40:768584,-2,-6,-5,-11,-1,-1,0,-1
20:56:40:776183,-2,-6,-5,-11,-1,-1,0,-1
20:56:40:783630,-1,-2,1,6,-4,-2,0,-1
20:56:40:791106,2,1,0,4,2,1,1,-1
20:56:40:799362,2,1,0,4,2,1,1,-1
20:56:40:800152,-2,1,2,1,-1,-3,1,-1
20:56:40:814359,0,-5,0,-1,-4,-1,-3,0
20:56:40:815142,0,-5,0,-1,-4,-1,-3,0
20:56:40:821163,-1,-1,1,8,-1,-2,-3,-1
20:56:40:828610,-6,-3,0,-2,-2,-2,-1,-2
20:56:40:836200,-6,-3,0,-2,-2,-2,-1,-2
20:56:40:843608,0,0,-3,6,1,-3,0,-1
20:56:40:851135,-1,-1,-3,0,0,-2,0,-1
20:56:40:859376,-1,-1,-3,0,0,-2,0,-1
20:56:40:860166,1,10,16,5,-1,0,-1,0
20:56:40:874342,-3,-8,12,-2,-4,-3,-5,-3
20:56:40:875154,-3,-8,12,-2,-4,-3,-5,-3
20:56:40:881110,-4,-2,-7,0,-4,-2,-2,-1
20:56:40:888628,1,7,1,1,1,1,2,0
20:56:40:896226,1,7,1,1,1,1,2,0
20:56:40:903633,-1,-2,3,3,-5,-2,-2,-3
20:56:40:911182,-2,-2,-7,1,3,-3,0,0
20:56:40:919354,-2,-2,-7,1,3,-3,0,0
20:56:40:920105,0,-1,-6,12,-4,0,-1,-1
20:56:40:934297,-1,-1,-11,-39,4,2,1,1
20:56:40:935106,-1,-1,-11,-39,4,2,1,1
20:56:40:941160,-2,-5,-3,-2,-4,-6,-1,-2
20:56:40:956889,-1,-1,4,13,-3,-1,-2,-1
20:56:40:957737,-1,-1,4,13,-3,-1,-2,-1
20:56:40:963617,-2,-3,-5,-2,-2,-3,0,-2
20:56:40:971121,1,2,-3,-1,-1,0,-2,-2
20:56:40:979296,1,2,-3,-1,-1,0,-2,-2
20:56:40:980131,-3,0,0,3,2,1,0,0
20:56:40:994340,0,2,-1,2,-5,-3,0,0
20:56:40:995158,0,2,-1,2,-5,-3,0,0
20:56:41:1189,0,0,-3,-7,3,0,-3,-2
20:56:41:8701,-1,-1,-2,4,-7,-2,-2,-2
20:56:41:16138,-1,-1,-2,4,-7,-2,-2,-2
20:56:41:23684,0,0,-2,-6,-1,0,-1,0
20:56:41:31162,-2,0,6,10,6,1,1,0
20:56:41:39341,-2,0,6,10,6,1,1,0
20:56:41:40113,-1,-2,-2,-6,1,-5,0,1
20:56:41:54293,2,13,1,3,-6,-2,-2,-2
20:56:41:55116,2,13,1,3,-6,-2,-2,-2
20:56:41:61143,-8,2,12,5,1,3,0,-2
20:56:41:68670,-8,-6,-1,0,-1,-3,-1,0
20:56:41:76154,-8,-6,-1,0,-1,-3,-1,0
20:56:41:83650,3,0,-7,-4,0,-3,-1,0
20:56:41:91136,-13,-2,-1,-4,1,-3,-2,-5
20:56:41:99337,-13,-2,-1,-4,1,-3,-2,-5
20:56:41:100171,0,-5,1,0,-1,2,0,3
20:56:41:114340,-4,-11,-1,0,0,-2,-1,-6
20:56:41:115110,-4,-11,-1,0,0,-2,-1,-6
20:56:41:121087,5,-8,-13,-6,-3,-2,-1,-2
20:56:41:128635,-5,-3,-5,-6,0,1,1,-2
20:56:41:136174,-5,-3,-5,-6,0,1,1,-2
20:56:41:143629,4,7,3,1,0,-1,-2,0
20:56:41:151096,3,1,6,4,2,0,-1,-1
20:56:41:159347,3,1,6,4,2,0,-1,-1
20:56:41:160135,-5,6,3,0,-1,-1,0,-3
20:56:41:174324,12,17,-2,-6,-4,-2,0,7
20:56:41:175150,12,17,-2,-6,-4,-2,0,7
20:56:41:181138,4,3,-6,7,9,-2,-2,-6
20:56:41:188639,-16,-33,-20,16,-4,-3,1,1
20:56:41:196184,-16,-33,-20,16,-4,-3,1,1
20:56:41:203632,2,-16,4,21,5,0,0,2
20:56:41:211132,0,-10,2,3,1,-2,-3,-2
20:56:41:219358,0,-10,2,3,1,-2,-3,-2
20:56:41:220168,5,-9,-16,-24,-6,1,0,-1
20:56:41:234357,-7,-2,-14,-10,-4,-2,-1,-4
20:56:41:235150,-7,-2,-14,-10,-4,-2,-1,-4
20:56:41:241161,5,-20,10,0,0,-2,0,0
20:56:41:248676,15,-21,3,-4,-1,-3,-3,-16
20:56:41:256212,15,-21,3,-4,-1,-3,-3,-16
20:56:41:263624,-2,-4,-5,-1,0,0,1,3
20:56:41:271160,-1,15,1,8,1,-1,-1,4
20:56:41:279349,-1,15,1,8,1,-1,-1,4
20:56:41:280115,-12,11,1,16,-4,-4,-1,-6
20:56:41:294403,6,14,4,-21,0,2,0,6
20:56:41:295174,6,14,4,-21,0,2,0,6
20:56:41:301136,-6,-14,-7,-6,0,-1,-2,0
20:56:41:308626,-2,4,3,14,3,1,-1,0
20:56:41:316182,-2,4,3,14,3,1,-1,0
20:56:41:323636,20,9,-1,0,-7,-5,-1,-5
20:56:41:331151,18,-4,-15,-5,5,1,1,4
20:56:41:339332,18,-4,-15,-5,5,1,1,4
20:56:41:340108,-10,1,-15,3,2,-2,-2,1
20:56:41:354306,2,10,-2,4,-7,-6,-2,-3
20:56:41:355126,2,10,-2,4,-7,-6,-2,-3
20:56:41:361139,-14,2,5,3,1,2,2,-1
20:56:41:368640,1,9,4,-19,-3,-1,2,1
20:56:41:376144,1,9,4,-19,-3,-1,2,1
20:56:41:383610,9,10,2,-6,-6,-4,-3,1
20:56:41:391164,1,14,8,3,0,1,-1,5
20:56:41:399322,1,14,8,3,0,1,-1,5
20:56:41:400142,-23,9,5,-2,1,0,0,-1
20:56:41:414299,-10,-10,-8,14,-1,-1,-3,-3
20:56:41:415121,-10,-10,-8,14,-1,-1,-3,-3
20:56:41:421103,-17,-7,1,-33,-2,-2,-2,-4
20:56:41:428591,-8,-9,8,3,1,3,-1,-1
20:56:41:436181,-8,-9,8,3,1,3,-1,-1
20:56:41:443594,7,4,-1,-5,-6,-2,-1,-2
20:56:41:451111,-7,0,-9,1,-3,-3,-2,-5
20:56:41:459339,-7,0,-9,1,-3,-3,-2,-5
20:56:41:460129,-8,-7,-3,2,0,-1,0,0
20:56:41:474329,3,-4,-1,4,0,0,-1,-2
20:56:41:475147,3,-4,-1,4,0,0,-1,-2
20:56:41:481084,8,6,2,0,1,1,0,1
20:56:41:488637,-12,-15,-10,-5,-1,-4,-2,-3
20:56:41:496175,-12,-15,-10,-5,-1,-4,-2,-3
20:56:41:503666,1,-4,-4,-20,0,0,-1,-1
20:56:41:511123,7,-1,7,-7,1,-2,-1,-1
20:56:41:519396,7,-1,7,-7,1,-2,-1,-1
20:56:41:520161,-3,1,8,11,-2,-2,-1,-1
20:56:41:534336,-8,-9,-3,6,-5,-2,-3,-3
20:56:41:535142,-8,-9,-3,6,-5,-2,-3,-3
20:56:41:541133,5,3,-7,-12,-7,-3,-1,0
20:56:41:556828,4,9,15,32,12,1,-1,2
20:56:41:557655,4,9,15,32,12,1,-1,2
20:56:41:563609,6,-3,7,13,-6,-2,-3,-5
20:56:41:571110,2,4,-5,-2,-3,-1,0,1
20:56:41:578757,2,4,-5,-2,-3,-1,0,1
20:56:41:586120,-4,-7,-9,-8,0,-3,0,-2
20:56:41:594394,-6,3,2,-9,-3,-1,1,-6
20:56:41:595170,-6,3,2,-9,-3,-1,1,-6
20:56:41:601125,9,-6,-8,0,-2,1,1,5
20:56:41:616834,-12,-4,-11,-14,-4,-1,-3,-2
20:56:41:617656,-12,-4,-11,-14,-4,-1,-3,-2
20:56:41:623665,3,-5,6,8,2,2,0,0
20:56:41:631131,-6,1,7,-19,-2,0,-4,-6
20:56:41:638782,-6,1,7,-19,-2,0,-4,-6
20:56:41:646163,3,4,6,5,1,1,-1,0
20:56:41:654307,2,-3,10,12,-1,-3,0,2
20:56:41:655123,2,-3,10,12,-1,-3,0,2
20:56:41:661153,-6,-3,-2,-17,-1,-1,2,-2
20:56:41:676781,14,3,-9,5,-1,-3,0,2
20:56:41:677626,14,3,-9,5,-1,-3,0,2
20:56:41:683672,-6,-13,10,13,-3,-4,-5,-4
20:56:41:691152,-11,-7,2,3,5,2,2,0
20:56:41:698647,-11,-7,2,3,5,2,2,0
20:56:41:706178,-4,12,0,-2,-4,2,-3,-4
20:56:41:714312,-2,-6,0,-17,-7,-3,-1,1
20:56:41:715119,-2,-6,0,-17,-7,-3,-1,1
20:56:41:721092,-4,-1,-18,-3,4,-3,1,1
20:56:41:736805,5,-2,-9,-7,-3,-1,0,-3
20:56:41:737613,5,-2,-9,-7,-3,-1,0,-3
20:56:41:743661,1,-9,-24,-8,-1,-2,-4,-3
20:56:41:751197,-1,-21,0,5,-2,-2,-3,-1
20:56:41:758673,-1,-21,0,5,-2,-2,-3,-1
20:56:41:766157,13,-5,1,-12,-1,1,1,-2
20:56:41:774368,7,14,8,25,5,0,-1,-1
20:56:41:775161,7,14,8,25,5,0,-1,-1
20:56:41:781114,-15,-8,-3,1,0,0,0,0
20:56:41:796814,1,8,0,-7,0,1,-1,0
20:56:41:797629,1,8,0,-7,0,1,-1,0
20:56:41:803736,-7,7,15,5,1,0,-4,0
20:56:41:811118,-5,2,-3,-13,-5,-1,-1,1
20:56:41:818663,-5,2,-3,-13,-5,-1,-1,1
20:56:41:826139,1,0,-6,-7,0,-1,1,1
20:56:41:834327,0,-5,-4,2,-4,-1,-3,-2
20:56:41:835137,0,-5,-4,2,-4,-1,-3,-2
20:56:41:841109,2,1,6,-9,-5,-1,0,-1
20:56:41:856848,-3,-5,-10,-16,-3,-3,-1,-1
20:56:41:857644,-3,-5,-10,-16,-3,-3,-1,-1
20:56:41:863629,4,5,4,12,0,1,-1,2
20:56:41:871095,-3,-3,-4,4,-1,-3,-2,-1
20:56:41:878693,-3,-3,-4,4,-1,-3,-2,-1
20:56:41:886119,-3,1,-6,1,3,2,0,2
20:56:41:894375,-5,-12,4,-1,0,0,1,-2
20:56:41:895170,-5,-12,4,-1,0,0,1,-2
20:56:41:901120,1,23,10,11,0,-3,-1,-1
20:56:41:916839,-7,4,6,14,1,-1,1,-2
20:56:41:917651,-7,4,6,14,1,-1,1,-2
20:56:41:923620,-6,-14,-4,-27,-5,0,0,-3
20:56:41:931130,3,8,5,-10,-1,-1,-1,3
20:56:41:938802,3,8,5,-10,-1,-1,-1,3
20:56:41:946147,-1,1,3,6,1,-3,-1,-4
20:56:41:954310,0,-8,-13,10,-1,0,-1,-2
20:56:41:955123,0,-8,-13,10,-1,0,-1,-2
20:56:41:961160,14,14,3,7,2,1,2,2
20:56:41:976812,-22,-4,-11,-4,5,0,0,-4
20:56:41:977598,-22,-4,-11,-4,5,0,0,-4
20:56:41:983670,-11,-5,-13,2,-3,-3,0,-1
20:56:41:991123,8,-7,-11,-11,-2,-1,-4,-2
20:56:41:998651,8,-7,-11,-11,-2,-1,-4,-2
20:56:42:6148,-4,-8,3,-1,0,-3,-4,-2
20:56:42:14318,4,2,-11,-7,-2,-2,2,0
20:56:42:15117,4,2,-11,-7,-2,-2,2,0
20:56:42:21098,-3,-1,2,1,0,-2,0,-3
20:56:42:36599,-1,27,15,-1,-4,-1,-2,-1
20:56:42:44321,-1,27,15,-1,-4,-1,-2,-1
20:56:42:45146,3,0,-7,-11,-3,-1,-1,1
20:56:42:51134,7,4,6,6,0,0,0,-2
20:56:42:58683,7,4,6,6,0,0,0,-2
20:56:42:66116,7,1,9,30,2,-2,-3,-1
20:56:42:74326,5,-8,-2,-2,-4,-1,-2,-1
20:56:42:75146,5,-8,-2,-2,-4,-1,-2,-1
20:56:42:81123,-3,12,13,-5,-3,0,-1,-2
20:56:42:96801,-6,-12,9,5,0,-3,-2,-1
20:56:42:97632,-6,-12,9,5,0,-3,-2,-1
20:56:42:103639,-6,3,-1,-2,-2,-1,0,0
20:56:42:111129,-4,-4,-14,-1,0,-1,-2,-2
20:56:42:118684,-4,-4,-14,-1,0,-1,-2,-2
20:56:42:126159,-4,-4,0,-5,-1,1,0,-2
20:56:42:134362,-4,-4,0,-5,-1,1,0,-2
20:56:42:135141,6,2,-4,-10,-3,-1,-2,-1
20:56:42:141131,6,-4,-2,0,0,0,-2,-1
20:56:42:156925,6,-4,-2,0,0,0,-2,-1
20:56:42:157656,3,-3,5,-2,-2,0,0,-1
20:56:42:163647,1,-9,3,-1,0,-1,3,0
20:56:42:179324,1,-9,3,-1,0,-1,3,0
20:56:42:180140,3,4,1,-7,-1,1,2,2
20:56:42:186106,-8,-10,-3,6,1,-1,-1,-3
20:56:42:202476,-8,-10,-3,6,1,-1,-1,-3
20:56:42:203299,-8,8,11,7,3,-1,0,-1
20:56:42:204087,4,-6,-5,-11,0,-3,-1,-2
20:56:42:216823,4,-6,-5,-11,0,-3,-1,-2
20:56:42:217603,-2,4,10,9,-2,-3,-2,0
20:56:42:223647,9,-15,-6,3,-5,-1,0,0
20:56:42:239823,9,-15,-6,3,-5,-1,0,0
20:56:42:240576,6,-1,-19,-6,-1,0,-1,0
20:56:42:246122,-4,2,8,0,-2,-1,-2,-3
20:56:42:254304,-4,2,8,0,-2,-1,-2,-3
20:56:42:255114,6,-4,4,-5,-2,-3,0,0
20:56:42:261165,-3,0,-10,-7,-1,-1,-1,5
20:56:42:276832,-3,0,-10,-7,-1,-1,-1,5
20:56:42:277604,-2,5,4,-4,0,2,-5,1
20:56:42:283645,-2,0,7,3,0,-1,-5,-1
20:56:42:299348,-2,0,7,3,0,-1,-5,-1
20:56:42:300137,-4,-5,2,-1,-4,-2,-2,-2
20:56:42:306116,-8,2,-1,5,-1,0,-3,-2
20:56:42:314300,-8,2,-1,5,-1,0,-3,-2
20:56:42:315092,-1,1,-7,-12,-6,-2,1,-3
20:56:42:321141,-9,8,4,-22,4,3,0,1
20:56:42:336883,-9,8,4,-22,4,3,0,1
20:56:42:337658,-2,-10,-4,-1,1,-3,-1,0
20:56:42:343637,3,-3,4,1,-2,0,-2,-3
20:56:42:359827,3,-3,4,1,-2,0,-2,-3
20:56:42:360624,-4,-4,0,18,-3,0,1,0
20:56:42:366174,-2,-10,-10,10,-4,-5,0,-3
20:56:42:374411,-2,-10,-10,10,-4,-5,0,-3
20:56:42:375171,14,13,8,-8,0,2,2,2
20:56:42:381137,8,-6,-8,-2,0,-3,-1,-1
20:56:42:396902,8,-6,-8,-2,0,-3,-1,-1
20:56:42:397665,-11,-4,-1,-6,0,-3,13,-2
20:56:42:403674,3,4,6,0,-1,-2,-2,-2
20:56:42:419382,3,4,6,0,-1,-2,-2,-2
20:56:42:420139,-2,-1,1,-5,-1,-1,-4,8
20:56:42:426106,-7,3,0,-1,1,3,8,5
20:56:42:434397,-7,3,0,-1,1,3,8,5
20:56:42:435184,2,-2,-3,-2,-1,0,-6,-5
20:56:42:441127,-4,-5,0,-2,1,0,-5,-4
20:56:42:456899,-4,-5,0,-2,1,0,-5,-4
20:56:42:457625,-2,0,1,-1,-1,-3,-4,-6
20:56:42:463620,4,0,-5,-2,-2,-3,-4,-14
20:56:42:479843,4,0,-5,-2,-2,-3,-4,-14
20:56:42:480614,-6,-3,0,13,3,-1,-1,4
20:56:42:486104,-8,-6,-3,-1,-1,-2,-2,0
20:56:42:494114,-8,-6,-3,-1,-1,-2,-2,0
20:56:42:501164,7,6,3,-2,-1,1,-9,-1
20:56:42:517486,-6,0,-1,-1,-3,-5,-44,-5
20:56:42:518301,-6,0,-1,-1,-3,-5,-44,-5
20:56:42:519121,4,-4,-2,-2,0,1,-5,-1
20:56:42:523598,0,4,1,0,-2,-1,10,4
20:56:42:539348,0,4,1,0,-2,-1,10,4
20:56:42:540110,4,-9,-6,-6,-2,-1,8,-8
20:56:42:546104,6,10,2,1,-1,-2,2,-2
20:56:42:554360,6,10,2,1,-1,-2,2,-2
20:56:42:555161,1,3,3,3,7,7,11,-22
20:56:42:568686,-17,-1,3,3,0,-3,0,2
20:56:42:576878,-17,-1,3,3,0,-3,0,2
20:56:42:577648,2,-3,-4,-7,-6,-1,9,-2
20:56:42:583600,2,-6,-8,-10,1,2,0,2
20:56:42:599308,2,-6,-8,-10,1,2,0,2
20:56:42:600118,-17,2,3,0,-3,-5,-9,1
20:56:42:606152,10,2,8,16,-2,1,7,1
20:56:42:614343,10,2,8,16,-2,1,7,1
20:56:42:615115,-11,-7,-2,1,-3,-1,-8,9
20:56:42:628635,-6,-2,-8,-5,-2,-1,-4,17
20:56:42:636832,-6,-2,-8,-5,-2,-1,-4,17
20:56:42:637602,-6,-1,-4,-3,-2,-4,-2,2
20:56:42:643572,1,-5,-4,1,1,1,7,-12
20:56:42:659302,1,-5,-4,1,1,1,7,-12
20:56:42:660113,-5,-3,0,-7,-1,0,7,11
20:56:42:666166,2,-4,-3,-6,-3,1,7,-7
20:56:42:674342,2,-4,-3,-6,-3,1,7,-7
20:56:42:675120,-1,-2,1,1,1,-4,-12,-10
20:56:42:688654,-2,0,5,-2,1,0,-1,1
20:56:42:696842,-2,0,5,-2,1,0,-1,1
20:56:42:697600,9,-2,-12,-4,-1,2,18,-1
20:56:42:711122,-4,-8,-10,-5,-2,-1,4,0
20:56:42:719325,-4,-8,-10,-5,-2,-1,4,0
20:56:42:720103,-2,2,-1,0,2,-3,-6,-3
20:56:42:726129,2,1,1,2,-1,0,-5,-1
20:56:42:734297,2,1,1,2,-1,0,-5,-1
20:56:42:735110,4,2,-1,-3,-4,-4,-5,-3
20:56:42:748670,-4,-6,-4,-4,-2,-1,-5,-6
20:56:42:756809,-4,-6,-4,-4,-2,-1,-5,-6
20:56:42:757605,-1,4,7,2,-2,-1,2,5
20:56:42:763630,13,7,-2,5,-2,-3,2,-1
20:56:42:779374,13,7,-2,5,-2,-3,2,-1
20:56:42:780154,-5,-5,-5,4,1,-4,-6,2
20:56:42:786136,1,0,-1,1,-2,1,-1,1
20:56:42:794325,1,0,-1,1,-2,1,-1,1
20:56:42:795088,-2,2,6,-1,-2,-1,-3,-4
20:56:42:808648,-18,-9,-7,1,0,-1,-4,-3
20:56:42:816908,-18,-9,-7,1,0,-1,-4,-3
20:56:42:817683,0,-12,-6,-3,-2,-2,-5,-6
20:56:42:823635,5,0,-6,-10,-3,-3,-2,-3
20:56:42:839397,5,0,-6,-10,-3,-3,-2,-3
20:56:42:840148,-6,-3,-2,0,-2,-4,-4,0
20:56:42:846127,-5,-1,1,-4,-3,-3,3,19
20:56:42:854381,-5,-1,1,-4,-3,-3,3,19
20:56:42:855150,-4,7,-3,-5,-2,0,-3,-3
20:56:42:868631,1,3,3,-1,0,1,2,-6
20:56:42:876880,1,3,3,-1,0,1,2,-6
20:56:42:877676,11,5,-2,3,0,0,1,5
20:56:42:883630,-4,-2,2,15,1,-2,1,-2
20:56:42:899399,-4,-2,2,15,1,-2,1,-2
20:56:42:900158,-3,-20,-7,-4,-1,-1,-1,-4
20:56:42:906114,4,1,-1,-5,-2,-1,0,-2
20:56:42:914406,4,1,-1,-5,-2,-1,0,-2
20:56:42:915141,2,-3,-2,-1,0,1,0,2
20:56:42:928627,5,-2,5,-5,-4,-4,-1,-3
20:56:42:936855,5,-2,5,-5,-4,-4,-1,-3
20:56:42:937675,0,-5,3,-3,-2,-2,2,-4
20:56:42:943605,-5,7,-14,-5,1,0,-3,-2
20:56:42:959354,-5,7,-14,-5,1,0,-3,-2
20:56:42:960136,-1,6,-1,-2,-2,-2,-4,2
20:56:42:966136,-2,0,4,-5,0,-3,-2,-3
20:56:42:974367,-2,0,4,-5,0,-3,-2,-3
20:56:42:975147,3,2,5,-2,-3,0,-5,-2
20:56:42:988611,-12,-5,-7,-4,0,0,-1,0
20:56:43:5050,-12,-5,-7,-4,0,0,-1,0
20:56:43:5770,-1,1,1,-24,0,0,-1,-5
20:56:43:6570,5,5,5,-3,-2,0,1,-4
20:56:43:19305,5,5,5,-3,-2,0,1,-4
20:56:43:20106,6,-1,-2,-4,3,0,1,3
20:56:43:26144,-4,-10,-6,0,0,-2,4,0
20:56:43:34332,-4,-10,-6,0,0,-2,4,0
20:56:43:35110,1,0,-7,6,-2,1,0,-4
20:56:43:57510,0,-3,0,-3,-2,-1,-2,0
20:56:43:58307,0,-3,0,-3,-2,-1,-2,0
20:56:43:59134,-8,-1,-4,-1,-2,-2,3,1
20:56:43:63626,-1,-4,0,1,0,-1,-5,-2
20:56:43:79351,-1,-4,0,1,0,-1,-5,-2
20:56:43:80147,-8,-2,-7,-9,-3,-2,-2,0
20:56:43:86113,9,-1,5,-4,-3,-3,-3,-3
20:56:43:94359,9,-1,5,-4,-3,-3,-3,-3
20:56:43:95136,4,0,1,6,-1,-1,0,-2
20:56:43:108655,4,-4,3,-3,-2,-2,-2,-2
20:56:43:116860,4,-4,3,-3,-2,-2,-2,-2
20:56:43:117648,3,2,4,2,-3,0,1,-2
20:56:43:123601,0,6,-10,-1,2,-1,0,-1
20:56:43:139359,0,6,-10,-1,2,-1,0,-1
20:56:43:140139,-3,-4,0,1,-1,-2,0,0
20:56:43:146158,-19,1,-3,-1,1,1,0,-3
20:56:43:154325,-19,1,-3,-1,1,1,0,-3
20:56:43:155142,-2,-13,-7,-25,1,3,-3,1
20:56:43:168597,5,3,-7,11,-3,-2,-1,-1
20:56:43:176857,5,3,-7,11,-3,-2,-1,-1
20:56:43:177618,-12,-5,1,23,2,-4,-1,-4
20:56:43:183612,4,-1,4,-48,-3,2,1,1
20:56:43:199361,4,-1,4,-48,-3,2,1,1
20:56:43:200136,-9,-31,-27,-2,-3,-3,-3,-4
20:56:43:206106,6,-2,-4,-2,-2,-2,-2,-1
20:56:43:214361,6,-2,-4,-2,-2,-2,-2,-1
20:56:43:215160,-1,0,-8,1,-1,-2,-1,-2
20:56:43:228636,6,-2,0,19,3,0,1,3
20:56:43:236844,6,-2,0,19,3,0,1,3
20:56:43:237640,2,14,12,5,0,-2,-3,-3
20:56:43:243619,-4,-10,4,-2,-3,0,0,1
20:56:43:259328,-4,-10,4,-2,-3,0,0,1
20:56:43:260120,-1,17,0,1,0,-1,0,-3
20:56:43:266085,-6,-6,-15,-8,-2,-3,-2,-3
20:56:43:274388,-6,-6,-15,-8,-2,-3,-2,-3
20:56:43:275140,9,17,16,5,-2,-1,1,2
20:56:43:288660,2,4,-6,-4,-1,-1,-3,0
20:56:43:296834,2,4,-6,-4,-1,-1,-3,0
20:56:43:297614,-3,27,4,2,-1,1,0,0
20:56:43:303596,-4,6,12,36,5,1,0,-1
20:56:43:319417,-4,6,12,36,5,1,0,-1
20:56:43:320102,-1,-13,-8,-19,-6,-4,-1,-1
20:56:43:326146,0,0,-9,-37,-10,-4,-2,-5
20:56:43:334331,0,0,-9,-37,-10,-4,-2,-5
20:56:43:335113,-2,19,9,-2,-2,-1,1,-2
20:56:43:348658,-2,-24,-7,13,-3,-5,0,-3
20:56:43:356808,-2,-24,-7,13,-3,-5,0,-3
20:56:43:357608,0,-11,-17,0,-1,-2,-3,1
20:56:43:363629,1,1,-6,0,-1,-2,-1,1
20:56:43:379312,1,1,-6,0,-1,-2,-1,1
20:56:43:380094,-10,-9,10,3,3,2,1,-2
20:56:43:386159,-2,-11,0,6,2,0,0,-2
20:56:43:394327,-2,-11,0,6,2,0,0,-2
20:56:43:395122,3,-18,-15,-3,2,-1,-1,2
20:56:43:408635,8,-7,-4,4,-2,-2,0,-1
20:56:43:416826,8,-7,-4,4,-2,-2,0,-1
20:56:43:417608,-8,-11,-6,11,-5,1,-2,-6
20:56:43:423638,-6,14,16,17,4,2,0,-1
20:56:43:439366,-6,14,16,17,4,2,0,-1
20:56:43:440152,10,-8,-1,5,2,-1,0,2
20:56:43:446144,-9,18,14,25,1,-3,-3,-2
20:56:43:453637,-9,18,14,25,1,-3,-3,-2
20:56:43:461147,-1,3,5,-39,-3,-1,0,3
20:56:43:468628,-5,-10,-3,-2,-3,-2,-3,0
20:56:43:476822,-5,-10,-3,-2,-3,-2,-3,0
20:56:43:477617,-5,-1,7,-13,-1,-2,-2,1
20:56:43:491147,-21,34,-14,-5,-1,4,1,-2
20:56:43:499306,-21,34,-14,-5,-1,4,1,-2
20:56:43:500093,1,3,6,15,2,-1,-3,-4
20:56:43:506195,-2,-15,-6,-3,-2,-3,-1,1
20:56:43:513648,-2,-15,-6,-3,-2,-3,-1,1
20:56:43:521165,1,4,2,5,-4,-1,-1,0
20:56:43:528613,6,-4,2,-13,-2,0,1,1
20:56:43:536854,6,-4,2,-13,-2,0,1,1
20:56:43:537636,4,13,0,-1,-4,-3,-1,-2
20:56:43:551145,0,0,10,4,1,0,-2,-2
20:56:43:559322,0,0,10,4,1,0,-2,-2
20:56:43:560125,5,-4,-7,-24,-3,-2,0,-1
20:56:43:566077,-1,4,-4,-5,-3,0,-1,-4
20:56:43:573683,-1,4,-4,-5,-3,0,-1,-4
20:56:43:581119,6,-5,-14,-8,-2,-5,-1,-3
20:56:43:588620,5,-8,3,-16,3,0,0,2
20:56:43:596864,5,-8,3,-16,3,0,0,2
20:56:43:597635,-6,12,10,7,0,0,-2,0
20:56:43:611087,13,4,4,1,-3,-4,-2,-3
20:56:43:619355,13,4,4,1,-3,-4,-2,-3
20:56:43:620121,-9,-14,0,7,-1,-1,1,1
20:56:43:626116,1,-10,-4,12,0,0,0,-2
20:56:43:633709,1,-10,-4,12,0,0,0,-2
20:56:43:641121,-10,-4,4,12,-1,-2,-2,0
20:56:43:648615,-2,1,4,-8,-2,-1,-1,0
20:56:43:656887,-2,1,4,-8,-2,-1,-1,0
20:56:43:657658,-6,-20,2,-15,0,-2,0,0
20:56:43:671114,3,-3,1,6,-2,-2,-2,-2
20:56:43:679355,3,-3,1,6,-2,-2,-2,-2
20:56:43:680167,-6,-24,-18,-2,1,2,1,-1
20:56:43:686137,2,8,-1,-9,-3,-2,-2,-1
20:56:43:693749,2,8,-1,-9,-3,-2,-2,-1
20:56:43:701112,8,2,4,-2,0,0,-1,0
20:56:43:708643,-10,-8,-9,-2,-2,-1,0,2
20:56:43:716855,-10,-8,-9,-2,-2,-1,0,2
20:56:43:717610,1,0,-2,0,-1,-1,-3,2
20:56:43:731595,-5,-1,3,-3,0,0,0,1
20:56:43:739382,-5,-1,3,-3,0,0,0,1
20:56:43:740158,4,10,2,10,-2,0,0,-1
20:56:43:746148,1,-18,3,-10,-2,-4,0,-5
20:56:43:753657,1,-18,3,-10,-2,-4,0,-5
20:56:43:761128,-3,-14,1,16,5,1,-2,-2
20:56:43:768673,-3,-2,-5,4,-2,-1,-2,-2
20:56:43:776807,-3,-2,-5,4,-2,-1,-2,-2
20:56:43:777608,6,43,5,17,-1,-1,-2,-3
20:56:43:791143,0,9,5,2,-3,0,0,2
20:56:43:799334,0,9,5,2,-3,0,0,2
20:56:43:800110,-1,-1,-5,-11,-4,-1,-13,-7
20:56:43:806133,2,5,-7,-4,0,2,4,20
20:56:43:813663,2,5,-7,-4,0,2,4,20
20:56:43:821091,2,-3,-1,6,-2,0,0,9
20:56:43:828613,5,-4,-5,-3,1,1,0,-9
20:56:43:836859,5,-4,-5,-3,1,1,0,-9
20:56:43:837638,6,0,-10,-11,-3,-5,-3,-6
20:56:43:851157,-4,-7,-7,-12,-1,-1,-1,-8
20:56:43:859355,-4,-7,-7,-12,-1,-1,-1,-8
20:56:43:860123,0,-5,2,2,0,2,2,-4
20:56:43:866073,0,-13,2,6,2,-2,-2,-2
20:56:43:873655,0,-13,2,6,2,-2,-2,-2
20:56:43:881112,-6,-6,8,-4,-1,-1,4,-1
20:56:43:888607,9,5,6,-2,-1,-1,-3,-3
20:56:43:896830,9,5,6,-2,-1,-1,-3,-3
20:56:43:897632,-5,-1,-4,-4,-2,-3,5,-2
20:56:43:911091,-4,6,1,0,-1,0,-5,-5
20:56:43:919344,-4,6,1,0,-1,0,-5,-5
20:56:43:920132,-2,2,-2,1,-2,0,7,2
20:56:43:926115,-4,0,7,2,-1,3,20,-4
20:56:43:933690,-4,0,7,2,-1,3,20,-4
20:56:43:941139,-5,-10,-6,-3,-1,-2,-2,0
20:56:43:948607,-11,4,-3,3,0,-5,-10,-4
20:56:43:956865,-11,4,-3,3,0,-5,-10,-4
20:56:43:957670,4,4,3,2,3,0,-10,17
20:56:43:971165,-3,1,0,-9,-4,-4,37,-2
20:56:43:979337,-3,1,0,-9,-4,-4,37,-2
20:56:43:980161,-14,-9,4,1,-1,0,0,-14
20:56:43:986113,6,-1,-4,-2,-2,0,-8,5
20:56:43:993714,6,-1,-4,-2,-2,0,-8,5
20:56:44:1139,2,-11,-5,-5,-5,-3,-1,-6
20:56:44:8653,-3,3,-1,4,-2,-1,-14,-3
20:56:44:16856,-3,3,-1,4,-2,-1,-14,-3
20:56:44:17610,-7,-2,0,5,0,0,-8,-1
20:56:44:31131,-10,-10,-3,0,-2,-4,-17,-4
20:56:44:39336,-10,-10,-3,0,-2,-4,-17,-4
20:56:44:40117,-5,3,0,-2,-2,-2,10,-10
20:56:44:46152,3,1,-3,-1,0,-2,-2,17
20:56:44:53674,3,1,-3,-1,0,-2,-2,17
20:56:44:61102,-1,11,-6,-1,-1,0,-4,1
20:56:44:68635,5,-2,-2,-1,0,-3,-32,-12
20:56:44:76845,5,-2,-2,-1,0,-3,-32,-12
20:56:44:77636,4,2,5,1,-1,2,5,-1
20:56:44:91155,1,4,5,-2,-1,-2,-5,-4
20:56:44:99330,1,4,5,-2,-1,-2,-5,-4
20:56:44:100122,8,1,1,-1,0,0,2,-6
20:56:44:106149,-8,-5,-2,-3,-1,0,7,0
20:56:44:113671,-8,-5,-2,-3,-1,0,7,0
20:56:44:121087,-6,-11,0,3,-2,-4,-2,-1
20:56:44:128606,-1,-12,-4,12,3,4,3,0
20:56:44:136864,-1,-12,-4,12,3,4,3,0
20:56:44:137636,4,-2,4,5,-1,0,-3,2
20:56:44:151142,-16,-5,0,1,2,-1,9,1
20:56:44:167511,-16,-5,0,1,2,-1,9,1
20:56:44:168264,1,3,0,1,-3,-3,-3,3
20:56:44:169092,1,8,0,2,-2,-1,-4,-24
20:56:44:173666,1,8,0,2,-2,-1,-4,-24
20:56:44:181089,4,4,-2,-8,-3,-2,-5,-12
20:56:44:188598,3,-3,-1,-5,1,-1,2,4
20:56:44:196854,3,-3,-1,-5,1,-1,2,4
20:56:44:197647,5,-8,-15,-6,-1,-2,3,2
20:56:44:211167,0,-6,-15,-5,-5,-1,-4,-2
20:56:44:219360,0,-6,-15,-5,-5,-1,-4,-2
20:56:44:220119,1,2,8,2,3,2,11,5
20:56:44:226182,5,6,-2,-4,-3,2,-3,4
20:56:44:233731,5,6,-2,-4,-3,2,-3,4
20:56:44:241144,0,-2,-6,-6,-1,-1,-10,2
20:56:44:248601,-4,2,2,3,-1,-1,-1,0
20:56:44:256863,-4,2,2,3,-1,-1,-1,0
20:56:44:257645,-7,-8,-2,-27,-5,-3,0,-6
20:56:44:271155,5,-6,-2,-17,0,2,-1,3
20:56:44:279315,5,-6,-2,-17,0,2,-1,3
20:56:44:280134,-7,2,1,6,0,-2,-2,1
20:56:44:286083,6,0,-2,1,-1,-1,2,23
20:56:44:293670,6,0,-2,1,-1,-1,2,23
20:56:44:301128,3,1,1,2,0,-3,-3,-2
20:56:44:308613,-12,-4,2,3,0,-3,-3,-12
20:56:44:316866,-12,-4,2,3,0,-3,-3,-12
20:56:44:317643,-1,6,-2,1,-1,-4,-3,3
20:56:44:331176,-1,4,5,0,-1,0,1,-3
20:56:44:339380,-1,4,5,0,-1,0,1,-3
20:56:44:340136,-5,-5,1,3,0,3,-2,-6
20:56:44:346160,-6,3,4,-10,-3,-1,-2,-2
20:56:44:353693,-6,3,4,-10,-3,-1,-2,-2
20:56:44:361140,0,-5,-5,-2,-2,-2,-3,-2
20:56:44:368601,0,-13,1,2,-1,-3,1,1
20:56:44:376801,0,-13,1,2,-1,-3,1,1
20:56:44:377602,-3,-2,2,4,-1,1,5,-4
20:56:44:391110,1,1,-5,1,0,-4,-1,-6
20:56:44:399346,1,1,-5,1,0,-4,-1,-6
20:56:44:400162,-15,-17,2,4,3,-2,2,5
20:56:44:414334,-1,-1,-5,-3,-2,-3,-3,-4
20:56:44:415132,-1,-1,-5,-3,-2,-3,-3,-4
20:56:44:421148,15,1,-2,-3,-2,-3,-5,-25
20:56:44:428663,0,6,3,3,0,1,3,-2
20:56:44:436207,0,6,3,3,0,1,3,-2
20:56:44:443690,5,8,1,1,-2,0,1,5
20:56:44:451139,1,6,2,2,2,-1,-4,-2
20:56:44:459327,1,6,2,2,2,-1,-4,-2
20:56:44:460103,-11,3,0,-5,-2,0,-2,1
20:56:44:474386,-3,-3,1,6,0,0,0,3
20:56:44:475163,-3,-3,1,6,0,0,0,3
20:56:44:481182,-1,7,3,1,-2,-2,-1,3
20:56:44:488657,1,0,-2,2,-4,-1,-2,-3
20:56:44:496190,1,0,-2,2,-4,-1,-2,-3
20:56:44:503661,4,0,-6,2,-2,-1,-1,8
20:56:44:511157,1,5,2,-6,-1,1,3,-1
20:56:44:519328,1,5,2,-6,-1,1,3,-1
20:56:44:520114,1,-1,-4,-9,-3,-3,-2,1
20:56:44:534317,0,-4,-9,0,-2,-1,-2,2
20:56:44:535124,0,-4,-9,0,-2,-1,-2,2
20:56:44:541182,-6,0,2,3,-2,-3,-1,-3
20:56:44:548652,0,-5,-3,-4,0,-1,-1,-2
20:56:44:556156,0,-5,-3,-4,0,-1,-1,-2
20:56:44:563609,1,-4,0,-1,1,0,-1,-1
20:56:44:571080,-1,-3,-3,-4,-2,-3,1,5
20:56:44:579332,-1,-3,-3,-4,-2,-3,1,5
20:56:44:580147,-8,-4,0,7,1,-3,-2,-4
20:56:44:594323,7,0,-12,11,-1,0,0,-4
20:56:44:595157,7,0,-12,11,-1,0,0,-4
20:56:44:601106,-6,-4,-4,3,4,1,0,1
20:56:44:608606,-1,-6,-20,1,-2,-4,-3,-2
20:56:44:616213,-1,-6,-20,1,-2,-4,-3,-2
20:56:44:623675,2,3,3,-2,-1,0,-2,0
20:56:44:631112,-8,-13,3,-5,2,-1,-2,-3
20:56:44:639381,-8,-13,3,-5,2,-1,-2,-3
20:56:44:640181,-3,4,-2,-3,-1,-2,-4,-3
20:56:44:654334,0,-8,1,-6,-2,1,-7,-17
20:56:44:655135,0,-8,1,-6,-2,1,-7,-17
20:56:44:661133,1,-7,1,1,-4,0,-1,3
20:56:44:668579,0,24,1,-4,-1,-3,0,3
20:56:44:676169,0,24,1,-4,-1,-3,0,3
20:56:44:683642,-19,-4,-7,-6,0,0,-1,-4
20:56:44:691151,-3,4,1,8,0,-4,-1,1
20:56:44:699362,-3,4,1,8,0,-4,-1,1
20:56:44:700156,5,-5,-17,-6,-4,-3,1,1
20:56:44:714327,-15,21,11,8,-1,-1,0,1
20:56:44:715154,-15,21,11,8,-1,-1,0,1
20:56:44:721148,7,1,-18,-18,-2,-2,0,-1
20:56:44:728619,7,-12,-2,-2,-2,-1,0,2
20:56:44:736189,7,-12,-2,-2,-2,-1,0,2
20:56:44:743649,-4,2,9,2,-2,-1,-3,-4
20:56:44:751122,5,4,1,-7,-4,-3,-1,0
20:56:44:759334,5,4,1,-7,-4,-3,-1,0
20:56:44:760118,2,-9,9,-2,0,1,1,1
20:56:44:774279,13,-9,-1,-3,-1,1,-2,2
20:56:44:775107,13,-9,-1,-3,-1,1,-2,2
20:56:44:781200,-12,3,5,4,-1,-2,-3,-2
20:56:44:788607,-2,30,8,-4,0,1,2,-2
20:56:44:796188,-2,30,8,-4,0,1,2,-2
20:56:44:803629,3,-9,-6,15,0,-2,0,1
20:56:44:811172,-5,-26,1,-2,-1,-2,0,-1
20:56:44:819324,-5,-26,1,-2,-1,-2,0,-1
20:56:44:820120,-3,-2,3,3,-3,-2,-1,-2
20:56:44:834307,-2,9,-4,-9,0,0,0,-1
20:56:44:835132,-2,9,-4,-9,0,0,0,-1
20:56:44:841148,7,1,0,-2,-1,-2,0,2
20:56:44:848667,-10,-20,0,-11,-5,-3,0,-3
20:56:44:856179,-10,-20,0,-11,-5,-3,0,-3
20:56:44:863597,5,17,-4,6,-1,-3,-1,-3
20:56:44:871142,-2,-4,-5,-1,-2,-2,-3,0
20:56:44:879317,-2,-4,-5,-1,-2,-2,-3,0
20:56:44:880130,-2,-13,4,-7,-1,0,-2,-3
20:56:44:894315,2,1,5,4,-1,0,2,1
20:56:44:895143,2,1,5,4,-1,0,2,1
20:56:44:901122,-6,-17,7,1,0,-1,-2,0
20:56:44:908640,-15,-12,-11,1,2,0,2,-1
20:56:44:916182,-15,-12,-11,1,2,0,2,-1
20:56:44:923627,9,6,2,1,-1,0,0,1
20:56:44:931094,1,-19,-10,-13,-2,-3,-3,-2
20:56:44:939366,1,-19,-10,-13,-2,-3,-3,-2
20:56:44:940130,-5,0,5,-25,-3,1,1,0
20:56:44:954335,-1,-2,-17,5,-1,-2,-4,-1
20:56:44:955140,-1,-2,-17,5,-1,-2,-4,-1
20:56:44:961116,7,19,1,-4,-3,2,0,5
20:56:44:968665,-6,-4,7,5,4,0,1,-1
20:56:44:976186,-6,-4,7,5,4,0,1,-1
20:56:44:983661,-11,-13,-12,12,-1,-2,0,-3
20:56:44:991108,-3,1,8,2,-3,0,-3,-3
20:56:44:998726,-3,1,8,2,-3,0,-3,-3
20:56:45:6131,4,-8,-5,-2,0,-2,-2,-2
20:56:45:14303,-9,16,0,10,2,1,0,-3
20:56:45:15127,-9,16,0,10,2,1,0,-3
20:56:45:21141,-2,-9,-8,-4,-1,0,-1,-3
20:56:45:28670,13,20,12,7,0,-2,0,7
20:56:45:36153,13,20,12,7,0,-2,0,7
20:56:45:43618,0,5,-3,-3,-2,-2,-3,0
20:56:45:51138,-6,-6,7,-5,-4,0,0,0
20:56:45:59327,-6,-6,7,-5,-4,0,0,0
20:56:45:60137,4,8,-8,-4,-1,-2,-1,-1
20:56:45:74301,-7,-31,5,19,0,-1,-3,-4
20:56:45:75108,-7,-31,5,19,0,-1,-3,-4
20:56:45:81108,-6,16,9,-14,-3,1,2,-2
20:56:45:88622,7,1,-4,-1,-3,-2,0,-1
20:56:45:96200,7,1,-4,-1,-3,-2,0,-1
20:56:45:103601,-1,14,6,10,-1,-2,-4,-4
20:56:45:111116,-6,0,7,0,0,0,0,-2
20:56:45:119373,-6,0,7,0,0,0,0,-2
20:56:45:120139,6,0,-6,-6,-2,-1,-1,1
20:56:45:134340,6,17,7,-2,-2,0,1,1
20:56:45:135146,6,17,7,-2,-2,0,1,1
20:56:45:141086,-2,-5,7,6,1,-1,0,-1
20:56:45:148619,-7,-2,-7,-16,-1,-1,-1,-4
20:56:45:156172,-7,-2,-7,-16,-1,-1,-1,-4
20:56:45:163662,-1,-38,-8,11,2,0,-1,-4
20:56:45:171165,13,1,-5,-7,-5,-2,0,-3
20:56:45:179355,13,1,-5,-7,-5,-2,0,-3
20:56:45:180157,0,-12,-7,0,-3,0,-1,4
20:56:45:194315,-3,-4,-16,-6,-2,-4,-3,1
20:56:45:195142,-3,-4,-16,-6,-2,-4,-3,1
20:56:45:201131,-3,4,8,1,1,-1,-1,-2
20:56:45:208694,-5,7,-11,4,-2,1,-1,-1
20:56:45:216244,-5,7,-11,4,-2,1,-1,-1
20:56:45:223613,-7,8,4,-11,0,0,-1,-3
20:56:45:231127,0,-23,3,-2,0,-4,-2,1
20:56:45:239319,0,-23,3,-2,0,-4,-2,1
20:56:45:240112,-14,24,-3,-33,-7,0,-1,0
20:56:45:254349,4,18,9,5,2,1,-1,0
20:56:45:255172,4,18,9,5,2,1,-1,0
20:56:45:261126,-3,0,-1,23,4,-3,-1,-3
20:56:45:268612,-13,-2,-9,-13,-3,-2,-1,-2
20:56:45:276165,-13,-2,-9,-13,-3,-2,-1,-2
20:56:45:283650,3,-2,-8,-3,-2,1,-3,-2
20:56:45:291142,-10,-31,6,2,0,-2,-1,-3
20:56:45:299330,-10,-31,6,2,0,-2,-1,-3
20:56:45:300107,6,-19,3,-12,-2,0,0,-2
20:56:45:314306,-3,-4,-1,4,-3,-2,-3,-2
20:56:45:315113,-3,-4,-1,4,-3,-2,-3,-2
20:56:45:321165,6,6,6,-4,1,-3,1,3
20:56:45:328698,6,5,3,-7,-1,0,-1,0
20:56:45:344353,6,5,3,-7,-1,0,-1,0
20:56:45:345168,0,1,1,17,0,-3,-1,0
20:56:45:351118,-1,4,0,-5,-2,-2,-1,-1
20:56:45:358692,-1,4,0,-5,-2,-2,-1,-1
20:56:45:366173,0,-5,-5,1,-2,-1,0,-1
20:56:45:374337,-4,-4,-3,0,-5,-2,-3,-3
20:56:45:375113,-4,-4,-3,0,-5,-2,-3,-3
20:56:45:381104,4,1,-12,-14,-1,-2,-2,-3
20:56:45:396812,4,7,-3,7,-1,0,-1,-1
20:56:45:397625,4,7,-3,7,-1,0,-1,-1
20:56:45:403669,-1,3,2,14,0,0,-3,1
20:56:45:411142,2,-17,-2,-8,-1,0,0,-2
20:56:45:418657,2,-17,-2,-8,-1,0,0,-2
20:56:45:426092,-4,-2,-3,-2,-1,-2,0,-4
20:56:45:434351,-3,15,4,0,1,2,-4,-4
20:56:45:435139,-3,15,4,0,1,2,-4,-4
20:56:45:441092,0,-6,4,-7,-4,-2,1,1
20:56:45:456791,-7,-14,2,1,0,-2,2,2
20:56:45:457613,-7,-14,2,1,0,-2,2,2
20:56:45:463631,-7,10,-10,-3,-1,-5,-2,-1
20:56:45:471088,8,3,5,-2,-1,-2,-2,1
20:56:45:478677,8,3,5,-2,-1,-2,-2,1
20:56:45:486112,-4,-5,9,-3,0,-1,0,-2
20:56:45:494349,-4,4,-1,2,2,0,-1,-3
20:56:45:495148,-4,4,-1,2,2,0,-1,-3
20:56:45:501119,-5,-16,6,-1,1,1,0,2
20:56:45:516820,3,2,-3,-3,-2,1,0,0
20:56:45:517623,3,2,-3,-3,-2,1,0,0
20:56:45:523602,-1,-3,-2,1,1,-3,-1,2
20:56:45:531146,0,-7,-12,-3,1,-1,-2,-2
20:56:45:538670,0,-7,-12,-3,1,-1,-2,-2
20:56:45:546148,13,28,2,1,1,1,0,-1
20:56:45:554365,-1,-4,-4,-2,-3,-1,1,-3
20:56:45:555176,-1,-4,-4,-2,-3,-1,1,-3
20:56:45:561149,0,-1,6,12,-2,0,-3,-1
20:56:45:576849,-9,-6,-6,-4,-3,0,1,-1
20:56:45:577643,-9,-6,-6,-4,-3,0,1,-1
20:56:45:583642,3,-12,-12,-5,-4,-2,0,-6
20:56:45:591146,6,-3,-1,0,1,-1,-9,12
20:56:45:598727,6,-3,-1,0,1,-1,-9,12
20:56:45:606160,-16,2,-1,1,2,-1,-32,-8
20:56:45:614307,-1,11,1,-4,0,0,28,-24
20:56:45:615116,-1,11,1,-4,0,0,28,-24
20:56:45:621160,1,-4,0,-5,-3,-3,-1,-7
20:56:45:636803,0,-11,-11,-1,-1,-3,-19,-4
20:56:45:637600,0,-11,-11,-1,-1,-3,-19,-4
20:56:45:643628,-1,-15,-4,-4,-2,0,10,-2
20:56:45:651163,6,10,5,2,-3,-1,6,4
20:56:45:658651,6,10,5,2,-3,-1,6,4
20:56:45:674963,-5,-1,1,-18,0,-1,-1,4
20:56:45:675765,-2,-1,2,4,1,2,0,5
20:56:45:676592,-2,-1,2,4,1,2,0,5
20:56:45:681148,2,6,5,3,-1,0,0,3
20:56:45:696907,1,-47,-11,-14,-5,-7,-4,-4
20:56:45:697658,1,-47,-11,-14,-5,-7,-4,-4
20:56:45:703628,5,-8,-3,5,-1,-2,8,-2
20:56:45:711126,5,11,-7,-2,-1,0,-6,2
20:56:45:718667,5,11,-7,-2,-1,0,-6,2
20:56:45:726130,-1,-3,-3,0,0,0,3,3
20:56:45:734319,4,11,12,-1,1,0,-3,-3
20:56:45:735131,4,11,12,-1,1,0,-3,-3
20:56:45:741111,0,10,1,2,0,3,9,-3
20:56:45:756795,-13,6,-1,-2,-3,-1,3,-5
20:56:45:757613,-13,6,-1,-2,-3,-1,3,-5
20:56:45:763613,0,-15,-13,-2,-1,-3,-5,2
20:56:45:771167,5,8,0,2,2,0,0,4
20:56:45:778667,5,8,0,2,2,0,0,4
20:56:45:786070,-8,-1,-4,-4,-3,-2,7,-5
20:56:45:794331,-10,2,3,-3,-1,-2,-2,0
20:56:45:795128,-10,2,3,-3,-1,-2,-2,0
20:56:45:801115,-1,2,-2,4,1,-3,-21,-3
20:56:45:816834,1,-5,2,-3,-2,0,-5,1
20:56:45:817619,1,-5,2,-3,-2,0,-5,1
20:56:45:823710,-8,1,7,1,0,0,-9,-1
20:56:45:839301,3,10,1,0,-2,0,8,-1
20:56:45:840106,3,10,1,0,-2,0,8,-1
20:56:45:846145,0,0,-8,-2,0,-1,4,-2
20:56:45:854384,-5,-1,2,0,-2,-3,-2,1
20:56:45:855116,-5,-1,2,0,-2,-3,-2,1
20:56:45:861088,-6,1,6,-1,-2,-4,0,2
20:56:45:876816,0,14,-5,-2,-1,-4,0,-6
20:56:45:877639,0,14,-5,-2,-1,-4,0,-6
20:56:45:883616,-1,-1,4,4,0,1,9,3
20:56:45:891144,-4,-5,0,-1,-1,2,5,16
20:56:45:898687,-4,-5,0,-1,-1,2,5,16
20:56:45:906109,3,2,-1,-2,-1,0,23,13
20:56:45:914360,3,2,-1,-2,-1,0,23,13
20:56:45:915153,-1,4,2,-1,-1,-4,-13,-10
20:56:45:921113,0,-8,-6,-1,-1,2,-8,-10
20:56:45:936824,0,-8,-6,-1,-1,2,-8,-10
20:56:45:937621,0,1,0,1,0,1,7,1
20:56:45:943617,3,10,1,-4,-2,-4,-1,-3
20:56:45:959301,3,10,1,-4,-2,-4,-1,-3
20:56:45:960120,-7,-7,-10,-1,-1,-2,-5,-3
20:56:45:966062,5,0,-2,-1,0,-1,-1,2
20:56:45:974348,5,0,-2,-1,0,-1,-1,2
20:56:45:975113,4,0,0,0,-1,-1,-12,-20
20:56:45:981149,1,-10,-7,-5,-3,-2,1,6
20:56:45:996866,1,-10,-7,-5,-3,-2,1,6
20:56:45:997612,3,-26,-5,-3,-1,-1,0,-1
20:56:46:3594,-10,-9,-7,7,1,-1,-5,-9
20:56:46:19297,-10,-9,-7,7,1,-1,-5,-9
20:56:46:20123,-2,-9,-6,-4,0,0,1,-3
20:56:46:26160,4,9,6,-5,-2,-1,-2,0
20:56:46:34323,4,9,6,-5,-2,-1,-2,0
20:56:46:35115,9,-1,-4,-14,-3,-2,0,2
20:56:46:41139,-12,5,5,2,-1,-1,-2,-3
20:56:46:56833,-12,5,5,2,-1,-1,-2,-3
20:56:46:57607,-4,15,7,5,1,0,0,7
20:56:46:63629,3,-2,4,-3,-1,-1,-4,-7
20:56:46:79359,3,-2,4,-3,-1,-1,-4,-7
20:56:46:80145,-8,-4,2,3,-1,-2,0,0
20:56:46:86122,2,1,0,-1,-1,0,2,8
20:56:46:94298,2,1,0,-1,-1,0,2,8
20:56:46:95112,-2,38,2,9,1,2,2,3
20:56:46:101144,-2,-5,7,-1,0,0,-3,0
20:56:46:116846,-2,-5,7,-1,0,0,-3,0
20:56:46:117603,-4,-6,8,-4,-2,-2,-2,0
20:56:46:123639,1,9,-8,-8,-4,0,1,2
20:56:46:139359,1,9,-8,-8,-4,0,1,2
20:56:46:140158,2,-14,-11,0,-2,-1,-2,-5
20:56:46:154983,1,-5,2,-1,0,-2,-4,10
20:56:46:155801,1,-5,2,-1,0,-2,-4,10
20:56:46:156625,7,-1,-1,3,-1,0,1,-1
20:56:46:161106,-6,1,-4,-1,-3,-2,-2,-13
20:56:46:176858,-6,1,-4,-1,-3,-2,-2,-13
20:56:46:177623,-3,-3,-2,-1,-2,-1,2,5
20:56:46:183625,-11,4,1,2,-2,-2,-2,-4
20:56:46:199334,-11,4,1,2,-2,-2,-2,-4
20:56:46:200122,-10,-6,-3,1,-1,0,-3,4
20:56:46:206101,5,2,-3,-3,-1,-4,1,-2
20:56:46:214349,5,2,-3,-3,-1,-4,1,-2
20:56:46:215119,0,20,14,4,3,1,-1,0
20:56:46:221141,-8,-3,-11,-4,-1,-2,-2,-3
20:56:46:236881,-8,-3,-11,-4,-1,-2,-2,-3
20:56:46:237662,7,-1,2,-1,-2,-4,-1,-1
20:56:46:243598,-2,6,4,8,0,0,-1,-6
20:56:46:259314,-2,6,4,8,0,0,-1,-6
20:56:46:260115,-5,-15,-4,-8,-4,-2,-2,-4
20:56:46:266088,10,25,5,-2,0,0,3,0
20:56:46:274338,10,25,5,-2,0,0,3,0
20:56:46:275115,-2,-4,-6,-2,-1,-3,-3,-3
20:56:46:281102,-3,-43,-9,-3,-2,-1,0,0
20:56:46:296806,-3,-43,-9,-3,-2,-1,0,0
20:56:46:297604,0,-5,-11,0,-2,-2,-1,-4
20:56:46:303577,-1,-19,-19,-10,-3,-1,0,9
20:56:46:319355,-1,-19,-19,-10,-3,-1,0,9
20:56:46:320110,-8,-5,0,-3,-3,-2,1,2
20:56:46:326174,-14,-8,9,2,-1,0,-1,-5
20:56:46:334358,-14,-8,9,2,-1,0,-1,-5
20:56:46:335111,-1,-18,-5,-1,-4,-4,-1,-3
20:56:46:348695,5,12,2,-9,-1,-2,-3,-5
20:56:46:356807,5,12,2,-9,-1,-2,-3,-5
20:56:46:357625,0,26,9,3,0,1,2,-3
20:56:46:363650,0,-6,3,7,1,-1,-1,-1
20:56:46:379324,0,-6,3,7,1,-1,-1,-1
20:56:46:380094,-9,-6,-10,-7,1,-2,-1,0
20:56:46:386137,7,27,-10,-38,-5,-2,0,-1
20:56:46:394323,7,27,-10,-38,-5,-2,0,-1
20:56:46:395113,6,-24,3,-2,-2,1,0,0
20:56:46:408657,-3,8,20,19,5,2,1,-1
20:56:46:416965,-3,8,20,19,5,2,1,-1
20:56:46:417599,-16,-7,-7,4,-2,-4,-3,-3
20:56:46:423633,-8,5,-1,-6,-1,-2,-1,-9
20:56:46:439361,-8,5,-1,-6,-1,-2,-1,-9
20:56:46:440137,10,24,12,2,1,0,-1,-1
20:56:46:446181,18,-12,-11,-2,-4,-1,-1,1
20:56:46:454390,18,-12,-11,-2,-4,-1,-1,1
20:56:46:455087,1,-12,-2,2,0,-1,0,-1
20:56:46:468656,1,-16,-14,14,-1,-4,-3,1
20:56:46:476858,1,-16,-14,14,-1,-4,-3,1
20:56:46:477652,6,2,4,-15,1,4,0,0
20:56:46:483637,0,-31,-15,0,-1,-1,0,-2
20:56:46:499563,0,-31,-15,0,-1,-1,0,-2
20:56:46:500142,-1,-12,-7,21,3,0,-1,-1
20:56:46:506133,0,4,9,2,2,0,-1,2
20:56:46:514403,0,4,9,2,2,0,-1,2
20:56:46:515155,-4,-1,-8,-35,-5,-1,-1,-1
20:56:46:528632,0,34,24,11,1,1,1,2
20:56:46:536890,0,34,24,11,1,1,1,2
20:56:46:537655,4,4,2,10,0,-2,-1,2
20:56:46:543625,-8,0,4,-9,-4,-2,-2,-3
20:56:46:559344,-8,0,4,-9,-4,-2,-2,-3
20:56:46:560158,-2,-10,-3,-5,1,-2,-1,0
20:56:46:566125,4,0,-3,8,-2,-2,-2,-3
20:56:46:574356,4,0,-3,8,-2,-2,-2,-3
20:56:46:575147,11,5,-3,1,-3,-4,0,-3
20:56:46:588675,-2,6,0,18,3,0,-2,-4
20:56:46:596868,-2,6,0,18,3,0,-2,-4
20:56:46:597637,0,-11,-13,-4,-5,-5,-2,-1
20:56:46:603631,-3,6,8,-3,2,1,0,-3
20:56:46:619352,-3,6,8,-3,2,1,0,-3
20:56:46:620151,0,18,19,15,-2,-3,-1,-4
20:56:46:626119,-1,-16,-9,7,-1,1,0,4
20:56:46:634353,-1,-16,-9,7,-1,1,0,4
20:56:46:635147,-5,-6,-3,3,3,0,0,-2
20:56:46:648603,3,-17,-1,-1,-2,-3,-3,-1
20:56:46:656845,3,-17,-1,-1,-2,-3,-3,-1
20:56:46:657626,-11,0,1,-2,-4,-1,-1,-1
20:56:46:671141,0,-4,-6,-4,2,1,2,1
20:56:46:679338,0,-4,-6,-4,2,1,2,1
20:56:46:680119,14,-5,0,-4,-2,-1,-3,-1
20:56:46:686086,-2,-2,2,-17,-4,-2,0,0
20:56:46:694357,-2,-2,2,-17,-4,-2,0,0
20:56:46:695132,0,5,-2,2,-1,1,0,-2
20:56:46:708629,-7,-2,-11,7,-2,-3,-3,-9
20:56:46:716848,-7,-2,-11,7,-2,-3,-3,-9
20:56:46:717632,-2,8,2,-3,-3,-2,-1,-4
20:56:46:723628,-14,-11,5,-5,1,0,2,0
20:56:46:739337,-14,-11,5,-5,1,0,2,0
20:56:46:740093,-2,-9,7,18,4,0,0,1
20:56:46:746089,0,-1,4,4,-3,-3,-1,-3
20:56:46:754300,0,-1,4,4,-3,-3,-1,-3
20:56:46:755114,-7,-4,-5,-9,-1,2,2,1
20:56:46:768656,-1,4,-10,-11,-1,-2,-3,-1
20:56:46:776808,-1,4,-10,-11,-1,-2,-3,-1
20:56:46:777613,8,8,-1,-4,0,0,0,0
20:56:46:783569,-6,15,1,-4,-3,-2,1,2
20:56:46:799313,-6,15,1,-4,-3,-2,1,2
20:56:46:800096,-3,7,-5,-11,3,3,-1,0
20:56:46:806132,-3,4,5,7,0,0,1,0
20:56:46:814323,-3,4,5,7,0,0,1,0
20:56:46:815113,-1,-12,7,-8,-5,-3,0,2
20:56:46:828651,5,8,9,4,1,-2,-3,-5
20:56:46:836858,5,8,9,4,1,-2,-3,-5
20:56:46:837628,2,-1,-20,13,3,-1,1,1
20:56:46:843630,-1,4,-1,-1,-5,-4,-3,-1
20:56:46:859303,-1,4,-1,-1,-5,-4,-3,-1
20:56:46:860130,-4,-4,4,6,1,-3,-1,-2
20:56:46:866139,1,-3,-2,-7,-2,1,0,-4
20:56:46:874295,1,-3,-2,-7,-2,1,0,-4
20:56:46:875100,-7,1,-3,-9,2,1,-2,-1
20:56:46:888626,4,-6,-6,0,1,-1,-2,2
20:56:46:896805,4,-6,-6,0,1,-1,-2,2
20:56:46:897601,-3,6,2,-1,-2,-2,-2,-1
20:56:46:903629,3,8,9,3,-2,0,-2,0
20:56:46:919373,3,8,9,3,-2,0,-2,0
20:56:46:920148,3,9,7,-10,0,-3,-1,4
20:56:46:926118,-1,4,0,-3,-3,-4,-2,0
20:56:46:934321,-1,4,0,-3,-3,-4,-2,0
20:56:46:935087,-7,-14,-1,2,-1,0,-1,-3
20:56:46:948603,-4,0,-5,-7,-2,1,5,0
20:56:46:956869,-4,0,-5,-7,-2,1,5,0
20:56:46:957652,0,0,-2,-2,-6,-4,-2,-2
20:56:46:963640,0,-3,-3,-7,-2,-1,1,1
20:56:46:979356,0,-3,-3,-7,-2,-1,1,1
20:56:46:980164,-3,11,2,1,-1,0,-22,-5
20:56:46:986140,-2,-5,-2,4,0,5,36,-1
20:56:46:994348,-2,-5,-2,4,0,5,36,-1
20:56:46:995137,-5,-5,0,-3,-4,-1,-2,-4
20:56:47:8614,1,-2,-8,-7,-1,-6,-21,-2
20:56:47:16846,1,-2,-8,-7,-1,-6,-21,-2
20:56:47:17635,-9,-6,3,-6,-2,0,6,-4
20:56:47:23631,3,-13,0,11,3,-1,-2,0
20:56:47:39345,3,-13,0,11,3,-1,-2,0
20:56:47:40116,-11,2,-3,-20,-3,0,0,-2
20:56:47:46132,6,9,7,2,-2,-1,-1,1
20:56:47:54333,6,9,7,2,-2,-1,-1,1
20:56:47:55152,4,21,2,3,1,-2,1,2
20:56:47:68591,-6,28,4,0,1,1,-14,0
20:56:47:76857,-6,28,4,0,1,1,-14,0
20:56:47:77621,2,-2,0,3,1,6,70,10
20:56:47:83625,7,-14,-9,-3,0,-4,-30,-16
20:56:47:99349,7,-14,-9,-3,0,-4,-30,-16
20:56:47:100116,1,-1,-2,-2,-2,-2,-32,-7
20:56:47:106140,-9,-16,3,-3,-1,-2,-6,-3
20:56:47:114375,-9,-16,3,-3,-1,-2,-6,-3
20:56:47:115118,2,-27,-7,12,1,-3,-3,-5
20:56:47:128659,-13,-11,0,-2,-2,1,-6,2
20:56:47:136868,-13,-11,0,-2,-2,1,-6,2
20:56:47:137635,-7,-11,2,8,-1,-2,1,0
20:56:47:143619,8,0,4,-7,-2,-1,8,7
20:56:47:159320,8,0,4,-7,-2,-1,8,7
20:56:47:160127,4,9,4,1,-1,-2,-23,-5
20:56:47:166082,0,-3,-6,-6,0,1,13,-2
20:56:47:174366,0,-3,-6,-6,0,1,13,-2
20:56:47:175144,4,7,-3,-5,-4,1,-7,3
20:56:47:188651,8,-19,-8,-2,-1,1,-6,9
20:56:47:196824,8,-19,-8,-2,-1,1,-6,9
20:56:47:197647,-2,-14,-1,-10,-3,-5,-10,1
20:56:47:203583,-3,0,-5,-1,-1,-2,-5,-4
20:56:47:219325,-3,0,-5,-1,-1,-2,-5,-4
20:56:47:220109,3,16,5,-1,-1,-3,1,3
20:56:47:226162,-5,-1,2,2,-1,-4,-3,-12
20:56:47:233658,-5,-1,2,2,-1,-4,-3,-12
20:56:47:241096,-3,0,-12,-22,-4,1,7,-2
20:56:47:248616,-5,7,-4,-6,-3,-4,5,2
20:56:47:256845,-5,7,-4,-6,-3,-4,5,2
20:56:47:257630,-3,-11,-3,6,0,-2,-3,-2
20:56:47:271119,-1,3,-7,-3,1,0,4,1
20:56:47:279303,-1,3,-7,-3,1,0,4,1
20:56:47:280116,1,-2,-10,2,-1,-3,3,-2
20:56:47:286111,10,-2,-4,-3,-2,-2,3,0
20:56:47:293669,10,-2,-4,-3,-2,-2,3,0
20:56:47:301113,-4,-6,-4,-4,0,-2,-3,-14
20:56:47:308613,-8,-4,-1,5,2,0,0,0
20:56:47:316855,-8,-4,-1,5,2,0,0,0
20:56:47:317630,-1,4,-1,8,0,1,2,-13
20:56:47:331103,1,-6,-15,-5,-5,-3,-2,-4
20:56:47:339366,1,-6,-15,-5,-5,-3,-2,-4
20:56:47:340137,4,-5,-15,-1,-2,-2,-9,-2
20:56:47:346116,5,22,6,8,1,1,2,2
20:56:47:353714,5,22,6,8,1,1,2,2
20:56:47:361131,-3,-5,-1,-14,1,0,3,5
20:56:47:368606,-10,-14,4,-2,-3,-1,3,0
20:56:47:376804,-10,-14,4,-2,-3,-1,3,0
20:56:47:377607,-1,4,6,5,-2,-3,11,7
20:56:47:391138,-6,-27,-1,1,0,1,-16,-5
20:56:47:399337,-6,-27,-1,1,0,1,-16,-5
20:56:47:400150,-6,-7,2,0,-1,-2,-6,7
20:56:47:406108,0,6,1,-1,-4,-4,-4,-3
20:56:47:413640,0,6,1,-1,-4,-4,-4,-3
20:56:47:421149,-9,20,4,2,-1,-2,-6,-1
20:56:47:428650,2,9,5,-10,-1,-1,-8,-6
20:56:47:437108,2,9,5,-10,-1,-1,-8,-6
20:56:47:437635,-4,-11,-4,0,-1,-2,0,3
20:56:47:451122,-10,19,-8,-10,0,0,3,3
20:56:47:459290,-10,19,-8,-10,0,0,3,3
20:56:47:460098,8,5,2,13,3,2,0,3
20:56:47:466149,-18,-15,-14,-2,2,0,4,0
20:56:47:473652,-18,-15,-14,-2,2,0,4,0
20:56:47:481084,2,-5,3,2,0,1,-4,4
20:56:47:488669,8,6,8,2,-1,-1,7,1
20:56:47:496871,8,6,8,2,-1,-1,7,1
20:56:47:497610,3,-3,-2,0,-1,1,-7,-1
20:56:47:511175,-2,20,5,3,0,-4,-2,3
20:56:47:519336,-2,20,5,3,0,-4,-2,3
20:56:47:520113,-1,-1,1,-6,-2,-1,-11,-2
20:56:47:526101,0,-18,-6,-3,-2,-2,5,-3
20:56:47:533691,0,-18,-6,-3,-2,-2,5,-3
20:56:47:541087,4,2,5,0,-1,-3,-1,-3
20:56:47:548598,4,-3,13,9,2,-1,5,5
20:56:47:556835,4,-3,13,9,2,-1,5,5
20:56:47:557633,-9,-3,9,-5,-3,-2,5,-2
20:56:47:571088,4,-22,-10,-2,-2,1,13,-2
20:56:47:579323,4,-22,-10,-2,-2,1,13,-2
20:56:47:580124,-8,-5,-7,-8,0,-2,0,-10
20:56:47:586084,1,1,1,0,0,-2,-11,-10
20:56:47:593659,1,1,1,0,0,-2,-11,-10
20:56:47:601120,-2,2,-6,-2,-4,-1,5,-1
20:56:47:608667,-5,5,2,-19,-4,-1,0,2
20:56:47:616838,-5,5,2,-19,-4,-1,0,2
20:56:47:617654,5,8,6,2,-1,-2,-2,-3
20:56:47:631105,2,6,-4,3,-2,-2,-8,-1
20:56:47:639353,2,6,-4,3,-2,-2,-8,-1
20:56:47:640129,-7,-12,-3,-3,-2,-3,8,6
20:56:47:646117,2,0,-9,0,-2,-1,0,-6
20:56:47:653770,2,0,-9,0,-2,-1,0,-6
20:56:47:661151,8,2,0,3,0,0,-2,-2
20:56:47:668648,-10,5,5,12,2,-2,-7,5
20:56:47:676853,-10,5,5,12,2,-2,-7,5
20:56:47:677584,5,0,-1,4,-2,1,-2,-5
20:56:47:691136,11,-20,-8,-1,-4,-2,-4,-3
20:56:47:699386,11,-20,-8,-1,-4,-2,-4,-3
20:56:47:700159,-12,4,-2,3,-1,-2,-7,2
20:56:47:706166,-5,4,7,3,2,1,4,19
20:56:47:713643,-5,4,7,3,2,1,4,19
20:56:47:721182,1,-10,-1,-4,0,-1,-1,1
20:56:47:728721,-4,2,4,-11,-5,0,1,-7
20:56:47:736836,-4,2,4,-11,-5,0,1,-7
20:56:47:737630,5,2,-3,-4,1,1,2,-2
20:56:47:751606,0,-4,1,-2,-1,0,0,-2
20:56:47:759307,0,-4,1,-2,-1,0,0,-2
20:56:47:760121,-4,-6,-6,-1,-1,-2,0,0
20:56:47:766135,1,3,-3,-20,-2,-1,-3,-1
20:56:47:773649,1,3,-3,-20,-2,-1,-3,-1
20:56:47:781129,2,34,-3,-3,4,4,-1,-2
20:56:47:788600,8,3,2,8,1,-2,0,-4
20:56:47:796829,8,3,2,8,1,-2,0,-4
20:56:47:797632,-5,-16,0,0,-1,-1,-2,0
20:56:47:811142,-9,8,1,0,-4,-1,-2,-6
20:56:47:819313,-9,8,1,0,-4,-1,-2,-6
20:56:47:820102,-4,-9,0,-2,-3,-2,-1,1
20:56:47:826088,2,-28,-19,1,-2,-2,1,0
20:56:47:833673,2,-28,-19,1,-2,-2,1,0
20:56:47:841181,-1,-19,-7,-9,-3,-3,-2,-2
20:56:47:848614,6,21,0,5,2,-1,-1,-1
20:56:47:856857,6,21,0,5,2,-1,-1,-1
20:56:47:857626,-4,-5,1,-17,-5,-1,-1,4
20:56:47:871093,-3,-11,-10,4,-1,-1,-3,-2
20:56:47:879349,-3,-11,-10,4,-1,-1,-3,-2
20:56:47:880126,10,9,8,-1,-2,1,3,3
20:56:47:886141,-1,14,-8,0,1,2,-2,-4
20:56:47:893709,-1,14,-8,0,1,2,-2,-4
20:56:47:901145,2,-8,-3,3,-1,-2,-2,-3
20:56:47:908661,5,30,3,6,1,0,0,1
20:56:47:916857,5,30,3,6,1,0,0,1
20:56:47:917671,-2,4,1,3,3,0,2,0
20:56:47:931110,-4,3,9,-10,-5,-3,-1,-5
20:56:47:939357,-4,3,9,-10,-5,-3,-1,-5
20:56:47:940155,-8,-7,-16,-5,-3,-2,0,-5
20:56:47:946124,-5,-10,-1,-9,-1,-1,-2,-1
20:56:47:953711,-5,-10,-1,-9,-1,-1,-2,-1
20:56:47:961162,-1,-5,-3,5,0,-4,-4,-3
20:56:47:968629,-3,1,0,1,2,1,-2,0
20:56:47:976811,-3,1,0,1,2,1,-2,0
20:56:47:977584,2,7,6,8,0,0,3,0
20:56:47:991126,-1,-9,6,-4,0,0,0,-1
20:56:47:999362,-1,-9,6,-4,0,0,0,-1
20:56:48:167,4,-5,1,0,2,-1,-3,-3
20:56:48:6106,-3,-10,-2,4,0,-1,-1,0
20:56:48:13676,-3,-10,-2,4,0,-1,-1,0
20:56:48:21133,-3,9,0,-2,-1,0,-2,-4
20:56:48:28669,-2,-14,3,3,-1,-1,0,0
20:56:48:36808,-2,-14,3,3,-1,-1,0,0
20:56:48:37620,-5,-8,-6,-2,-1,-1,-1,2
20:56:48:51129,0,3,-4,-4,-2,-2,-2,-8
20:56:48:59368,0,3,-4,-4,-2,-2,-2,-8
20:56:48:60107,-5,2,7,-6,-2,0,-2,-1
20:56:48:66179,9,-36,-8,-2,0,1,3,5
20:56:48:73659,9,-36,-8,-2,0,1,3,5
20:56:48:81116,-6,3,9,6,-1,0,-1,-2
20:56:48:88584,-2,-12,2,3,-1,-3,-1,-3
20:56:48:96809,-2,-12,2,3,-1,-3,-1,-3
20:56:48:97627,5,0,-22,-5,-2,-2,0,-1
20:56:48:111154,-16,-21,-21,-28,-5,0,0,-1
20:56:48:119344,-16,-21,-21,-28,-5,0,0,-1
20:56:48:120101,-5,43,6,-3,-3,-1,-1,0
20:56:48:126086,0,11,15,6,-1,-3,-4,-1
20:56:48:133700,0,11,15,6,-1,-3,-4,-1
20:56:48:141158,9,-18,-7,-11,-3,0,2,-1
20:56:48:148612,0,5,3,11,-1,1,2,0
20:56:48:156837,0,5,3,11,-1,1,2,0
20:56:48:157644,1,8,12,20,3,0,-2,0
20:56:48:171099,-1,-10,-3,-29,-7,1,-1,1
20:56:48:179339,-1,-10,-3,-29,-7,1,-1,1
20:56:48:180160,3,-19,-19,-7,3,0,0,0
20:56:48:194308,-9,-14,-13,-6,-3,-2,-2,-4
20:56:48:195144,-9,-14,-13,-6,-3,-2,-2,-4
20:56:48:201160,-12,-6,1,-6,-2,-2,-1,-3
20:56:48:208590,-15,-1,17,18,3,-1,-2,-2
20:56:48:216175,-15,-1,17,18,3,-1,-2,-2
20:56:48:223606,5,-8,4,4,-4,-4,0,0
20:56:48:231155,6,21,-4,-17,1,-2,-1,-2
20:56:48:239367,6,21,-4,-17,1,-2,-1,-2
20:56:48:240137,0,-2,2,4,2,-1,-3,0
20:56:48:262501,-1,14,8,18,-1,-2,1,1
20:56:48:263287,-1,14,8,18,-1,-2,1,1
20:56:48:264101,-6,5,-3,-1,-3,-1,-3,0
20:56:48:268584,3,4,-5,10,3,-1,1,-1
20:56:48:276197,3,4,-5,10,3,-1,1,-1
20:56:48:283593,-2,-10,6,1,-3,0,-1,-2
20:56:48:291120,4,11,11,-16,-5,0,-1,1
20:56:48:299332,4,11,11,-16,-5,0,-1,1
20:56:48:300122,-9,-34,-21,-8,1,-2,-1,-2
20:56:48:314339,0,-23,-7,3,-2,-1,-2,-1
20:56:48:315145,0,-23,-7,3,-2,-1,-2,-1
20:56:48:321118,1,22,7,-17,-3,-2,-1,1
20:56:48:328614,-6,-10,-9,2,-1,-2,1,-2
20:56:48:336156,-6,-10,-9,2,-1,-2,1,-2
20:56:48:343626,4,-3,5,23,2,-1,-1,-9
20:56:48:351117,5,12,9,-7,-5,-2,-1,8
20:56:48:359375,5,12,9,-7,-5,-2,-1,8
20:56:48:360176,3,-2,2,-7,-2,0,-1,1
20:56:48:374325,5,3,-2,3,1,1,-3,-4
20:56:48:375131,5,3,-2,3,1,1,-3,-4
20:56:48:381131,0,-47,-3,-24,-8,-4,0,-1
20:56:48:388647,-5,13,11,5,3,0,-1,-2
20:56:48:396205,-5,13,11,5,3,0,-1,-2
20:56:48:403655,2,-9,-6,2,-2,-2,0,-1
20:56:48:411139,0,3,1,-4,1,-2,0,2
20:56:48:419294,0,3,1,-4,1,-2,0,2
20:56:48:420109,-9,-5,-13,-8,1,2,-1,-3
20:56:48:434297,-8,32,-1,10,1,1,-1,-3
20:56:48:435092,-8,32,-1,10,1,1,-1,-3
20:56:48:441122,-4,24,-1,9,-2,-2,0,12
20:56:48:448639,1,-14,-10,-7,-4,-1,-2,-3
20:56:48:456140,1,-14,-10,-7,-4,-1,-2,-3
20:56:48:463654,2,9,5,12,2,1,0,-3
20:56:48:471173,-11,-3,-4,4,0,-2,0,-2
20:56:48:479357,-11,-3,-4,4,0,-2,0,-2
20:56:48:480127,5,1,-3,4,3,1,1,-1
20:56:48:494805,-7,-7,-5,-10,-4,-2,-3,-6
20:56:48:501796,-7,-7,-5,-10,-4,-2,-3,-6
20:56:48:502614,6,0,2,6,-3,-2,-1,-4
20:56:48:508665,1,-4,4,1,-1,0,0,2
20:56:48:516154,1,-4,4,1,-1,0,0,2
20:56:48:523643,-4,-27,-2,-8,-3,-1,-3,-7
20:56:48:539966,1,16,11,34,6,1,-1,1
20:56:48:540798,1,16,11,34,6,1,-1,1
20:56:48:541593,-9,0,-3,-24,-7,-2,-1,-3
20:56:48:554335,6,-1,3,-9,-4,-4,-1,-9
20:56:48:555146,6,-1,3,-9,-4,-4,-1,-9
20:56:48:561156,-1,-14,5,-1,0,-3,-2,-1
20:56:48:568664,-2,-10,2,1,0,0,-1,3
20:56:48:576167,-2,-10,2,1,0,0,-1,3
20:56:48:583596,3,7,0,-17,1,-2,-2,-5
20:56:48:591119,-7,-23,1,1,2,0,-1,1
20:56:48:599352,-7,-23,1,1,2,0,-1,1
20:56:48:600109,-8,-20,-6,-6,0,1,0,3
20:56:48:614976,1,6,2,3,-3,-1,-2,-4
20:56:48:615798,1,6,2,3,-3,-1,-2,-4
20:56:48:621106,7,29,9,10,1,1,-1,2
20:56:48:628591,-1,-10,-8,-24,-5,-1,-3,-1
20:56:48:636166,-1,-10,-8,-24,-5,-1,-3,-1
20:56:48:643590,-3,-1,-4,6,0,-2,-1,-2
20:56:48:651084,4,7,0,2,-2,-2,0,4
20:56:48:659365,4,7,0,2,-2,-2,0,4
20:56:48:660135,-6,8,-6,-4,-2,-3,-3,-7
20:56:48:674322,-4,-23,-6,-8,-2,0,-1,-8
20:56:48:675149,-4,-23,-6,-8,-2,0,-1,-8
20:56:48:681110,7,9,2,19,2,-1,0,2
20:56:48:688586,-6,1,-7,4,-2,-5,-1,2
20:56:48:696183,-6,1,-7,4,-2,-5,-1,2
20:56:48:703628,-1,1,-5,-2,-2,0,-2,-1
20:56:48:711152,-1,3,-10,-3,0,-2,-1,0
20:56:48:719366,-1,3,-10,-3,0,-2,-1,0
20:56:48:720155,2,25,-2,12,2,0,0,-1
20:56:48:735237,-5,-4,-1,-17,-3,-2,-2,-3
20:56:48:736044,-5,-4,-1,-17,-3,-2,-2,-3
20:56:48:741126,-5,-13,-1,-3,1,-2,-2,-1
20:56:48:748697,3,-11,1,-7,-3,-1,0,-2
20:56:48:756141,3,-11,1,-7,-3,-1,0,-2
20:56:48:763616,9,4,0,-9,0,1,0,1
20:56:48:771140,3,1,-2,0,-3,-3,-2,-3
20:56:48:779300,3,1,-2,0,-3,-3,-2,-3
20:56:48:780119,-12,1,10,0,-3,-1,1,-7
20:56:48:794276,12,3,0,4,2,-1,1,4
20:56:48:795096,12,3,0,4,2,-1,1,4
20:56:48:801161,-18,-6,-1,-4,-2,0,0,6
20:56:48:808609,0,2,-19,-15,-2,1,-1,1
20:56:48:816150,0,2,-19,-15,-2,1,-1,1
20:56:48:823565,4,3,13,5,2,1,-1,1
20:56:48:831131,-4,-5,6,9,-1,-2,-3,-1
20:56:48:839323,-4,-5,6,9,-1,-2,-3,-1
20:56:48:840115,6,0,-5,-3,-2,-3,-1,-2
20:56:48:854303,-6,-51,-11,-2,-1,0,-4,-12
20:56:48:855107,-6,-51,-11,-2,-1,0,-4,-12
20:56:48:861082,-4,-10,-1,1,0,0,3,-3
20:56:48:868677,15,11,2,2,-1,-1,-6,-5
20:56:48:876158,15,11,2,2,-1,-1,-6,-5
20:56:48:883593,-6,-14,-9,-22,-3,-2,-6,3
20:56:48:891099,-2,11,5,4,1,1,5,3
20:56:48:899357,-2,11,5,4,1,1,5,3
20:56:48:900143,0,-19,2,1,-2,-2,-11,20
20:56:48:914302,-3,7,-1,0,-1,-4,-21,-2
20:56:48:915114,-3,7,-1,0,-1,-4,-21,-2
20:56:48:921115,3,-4,-3,3,0,-2,4,-3
20:56:48:928600,-7,7,-5,-8,-4,-2,-10,0
20:56:48:936159,-7,7,-5,-8,-4,-2,-10,0
20:56:48:943658,-4,14,-2,8,0,0,-2,-15
20:56:48:951095,10,8,5,0,2,1,27,-1
20:56:48:959390,10,8,5,0,2,1,27,-1
20:56:48:960132,-4,5,-8,-4,-2,2,0,3
20:56:48:974343,-8,-3,-9,6,2,-2,5,-5
20:56:48:975139,-8,-3,-9,6,2,-2,5,-5
20:56:48:981115,4,0,3,1,-1,-3,-11,2
20:56:48:988657,-4,-3,2,-2,-1,1,-6,-8
20:56:48:996195,-4,-3,2,-2,-1,1,-6,-8
20:56:49:3632,0,4,-4,0,0,0,-8,-13
20:56:49:11128,0,-1,0,-5,-2,-2,-5,-5
20:56:49:19307,0,-1,0,-5,-2,-2,-5,-5
20:56:49:20087,-1,-2,-1,1,-3,-3,34,7
20:56:49:34357,-8,19,-3,1,-1,0,-17,5
20:56:49:35175,-8,19,-3,1,-1,0,-17,5
20:56:49:41142,-12,1,-5,-2,1,0,-8,-1
20:56:49:56832,1,6,3,0,-3,-4,9,7
20:56:49:57635,1,6,3,0,-3,-4,9,7
20:56:49:63613,-2,7,6,10,0,1,0,-1
20:56:49:71132,3,-2,1,8,1,2,-4,-4
20:56:49:79306,3,-2,1,8,1,2,-4,-4
20:56:49:80084,4,-1,-1,-2,-4,-1,5,-3
20:56:49:94328,2,-7,3,1,-1,0,4,-5
20:56:49:95148,2,-7,3,1,-1,0,4,-5
20:56:49:101110,0,4,1,-4,-1,-2,0,-4
20:56:49:108628,-5,25,2,9,0,-1,7,11
20:56:49:116218,-5,25,2,9,0,-1,7,11
20:56:49:123617,-6,20,0,-3,-2,-1,-8,-7
20:56:49:139332,1,-33,-16,-15,-4,-3,4,3
20:56:49:140153,1,-33,-16,-15,-4,-3,4,3
20:56:49:146122,3,-9,4,-4,1,-1,-4,1
20:56:49:154265,-5,0,5,9,2,-1,-21,-18
20:56:49:155092,-5,0,5,9,2,-1,-21,-18
20:56:49:161162,12,-3,-5,-7,-3,-1,-9,-1
20:56:49:176868,-16,13,5,0,-2,-1,-10,-15
20:56:49:177653,-16,13,5,0,-2,-1,-10,-15
20:56:49:183640,-6,-3,-1,1,-2,0,6,-2
20:56:49:191126,3,-10,-1,-4,-2,-2,3,3
20:56:49:198644,3,-10,-1,-4,-2,-2,3,3
20:56:49:206157,1,-8,-9,-5,-2,0,-5,0
20:56:49:214325,-3,-4,-10,-1,-1,-1,6,9
20:56:49:215133,-3,-4,-10,-1,-1,-1,6,9
20:56:49:221168,-8,-11,-1,2,0,-1,-7,-1
20:56:49:236814,8,7,0,-4,2,1,5,2
20:56:49:237589,8,7,0,-4,2,1,5,2
20:56:49:243614,-1,-27,-13,-3,-2,-6,-8,20
20:56:49:259351,2,4,4,2,-2,-2,6,-1
20:56:49:260130,2,4,4,2,-2,-2,6,-1
20:56:49:266115,-3,0,2,3,-2,-1,3,-10
20:56:49:274031,-1,-8,2,-3,-2,-2,5,6
20:56:49:281819,-1,-8,2,-3,-2,-2,5,6
20:56:49:282594,-3,5,7,6,1,-2,-1,-4
20:56:49:304991,2,18,-5,-20,-4,0,-1,-1
20:56:49:305803,2,18,-5,-20,-4,0,-1,-1
20:56:49:306592,-6,1,2,-4,0,-1,1,-1
20:56:49:311104,2,-8,2,3,0,0,-7,0
20:56:49:318699,2,-8,2,3,0,0,-7,0
20:56:49:326138,8,35,-4,-2,-3,-1,0,-3
20:56:49:334281,2,-1,1,1,-1,0,6,7
20:56:49:335106,2,-1,1,1,-1,0,6,7
20:56:49:341154,0,-5,5,-2,-1,-1,1,-16
20:56:49:356818,0,2,3,2,-1,-2,-2,5
20:56:49:357643,0,2,3,2,-1,-2,-2,5
20:56:49:363621,2,-15,-6,-2,-3,-1,3,2
20:56:49:371126,-3,-15,-2,0,-3,-1,-2,-5
20:56:49:378704,-3,-15,-2,0,-3,-1,-2,-5
20:56:49:386136,-11,-6,-2,-2,-3,-2,-2,-12
20:56:49:394306,0,4,-4,-18,-1,0,2,3
20:56:49:395090,0,4,-4,-18,-1,0,2,3
20:56:49:401132,-4,40,2,1,-1,-2,-6,-3
20:56:49:416830,-1,-14,-19,1,-2,-1,12,3
20:56:49:417591,-1,-14,-19,1,-2,-1,12,3
20:56:49:423618,6,41,20,10,3,2,2,2
20:56:49:431185,-6,0,-4,5,2,-3,-3,0
20:56:49:438666,-6,0,-4,5,2,-3,-3,0
20:56:49:446173,0,-22,-14,-1,-2,-3,-1,5
20:56:49:454317,3,7,3,4,-1,0,-4,-2
20:56:49:455119,3,7,3,4,-1,0,-4,-2
20:56:49:461090,-2,7,1,-1,1,2,1,-1
20:56:49:476829,5,1,2,-2,-2,-2,-4,-6
20:56:49:477620,5,1,2,-2,-2,-2,-4,-6
20:56:49:483570,-4,-18,-10,-6,-2,-1,-1,1
20:56:49:491150,9,30,4,-13,-2,0,-1,2
20:56:49:498659,9,30,4,-13,-2,0,-1,2
20:56:49:506126,10,-10,-2,-4,-1,-1,2,4
20:56:49:514302,-8,-11,1,4,2,-1,-3,-1
20:56:49:515107,-8,-11,1,4,2,-1,-3,-1
20:56:49:521105,11,-4,0,-2,0,0,4,-2
20:56:49:536977,5,16,22,5,0,2,2,-1
20:56:49:537620,5,16,22,5,0,2,2,-1
20:56:49:543615,-13,-20,5,-1,-3,-5,-4,-2
20:56:49:551148,-8,-4,2,1,-1,-3,1,4
20:56:49:558752,-8,-4,2,1,-1,-3,1,4
20:56:49:566106,-2,-13,-2,0,-2,-2,-5,3
20:56:49:574320,8,-25,-7,3,-1,-2,-4,0
20:56:49:575143,8,-25,-7,3,-1,-2,-4,0
20:56:49:581149,-2,-9,-9,-3,0,0,1,-4
20:56:49:596811,-10,11,-2,5,0,-1,-1,-3
20:56:49:597626,-10,11,-2,5,0,-1,-1,-3
20:56:49:603607,2,-15,-12,-16,-3,-3,-2,-1
20:56:49:611099,0,-11,-5,-19,-6,-3,-2,-5
20:56:49:618675,0,-11,-5,-19,-6,-3,-2,-5
20:56:49:626139,5,12,0,-2,-2,-1,1,3
20:56:49:634292,-2,-11,1,9,1,-1,0,-1
20:56:49:635097,-2,-11,1,9,1,-1,0,-1
20:56:49:641140,-18,-17,-11,2,1,2,-1,-4
20:56:49:656831,1,3,4,9,3,-1,-1,-1
20:56:49:657666,1,3,4,9,3,-1,-1,-1
20:56:49:663640,-4,9,5,6,-1,-3,2,-2
20:56:49:671121,-10,-46,-11,-1,-1,-3,-2,-2
20:56:49:678688,-10,-46,-11,-1,-1,-3,-2,-2
20:56:49:686136,5,-9,-1,-8,-1,-1,-2,-3
20:56:49:694289,-5,-5,-3,-2,-3,-2,-1,-3
20:56:49:695098,-5,-5,-3,-2,-3,-2,-1,-3
20:56:49:701125,0,7,5,4,1,-2,-3,11
20:56:49:716809,0,7,5,4,1,-2,-3,11
20:56:49:717655,-5,9,0,-1,-1,-3,-9,-4
20:56:49:723625,-3,33,5,2,-2,1,4,11
20:56:49:739364,-3,33,5,2,-2,1,4,11
20:56:49:740152,5,6,3,0,-2,0,1,-4
20:56:49:746142,1,-13,-4,-1,-2,-2,-7,-12
20:56:49:754332,1,-13,-4,-1,-2,-2,-7,-12
20:56:49:755138,3,2,-8,-4,-3,-1,8,6
20:56:49:761117,2,-2,0,1,-2,0,11,-2
20:56:49:776883,2,-2,0,1,-2,0,11,-2
20:56:49:777659,1,8,1,-2,0,-2,-2,-1
20:56:49:783617,-2,-5,0,5,0,-1,-7,-8
20:56:49:799354,-2,-5,0,5,0,-1,-7,-8
20:56:49:800136,0,1,3,5,0,1,4,-8
20:56:49:806122,-2,-6,-1,-5,-3,-3,1,-3
20:56:49:814380,-2,-6,-1,-5,-3,-3,1,-3
20:56:49:815140,-15,4,-5,-9,-4,-1,-3,3
20:56:49:821144,-3,-9,1,2,0,-1,15,23
20:56:49:836860,-3,-9,1,2,0,-1,15,23
20:56:49:837679,7,0,-2,2,0,2,14,-3
20:56:49:843616,10,-2,2,-4,0,-1,2,-2
20:56:49:859356,10,-2,2,-4,0,-1,2,-2
20:56:49:860117,-4,-24,-7,-3,0,-3,-3,4
20:56:49:866104,0,4,-2,-2,0,-3,-1,-2
20:56:49:874382,0,4,-2,-2,0,-3,-1,-2
20:56:49:875155,4,1,0,-2,0,0,-8,0
20:56:49:881184,-4,-13,-6,-2,-2,-1,1,-4
20:56:49:896862,-4,-13,-6,-2,-2,-1,1,-4
20:56:49:897624,-14,-1,-12,0,-2,-1,-10,-3
20:56:49:903599,-2,4,9,1,-2,-2,-6,-9
20:56:49:919336,-2,4,9,1,-2,-2,-6,-9
20:56:49:920137,3,2,-7,-2,-2,-2,-3,1
20:56:49:926094,1,-2,-12,-4,-1,1,-7,-10
20:56:49:934323,1,-2,-12,-4,-1,1,-7,-10
20:56:49:935131,6,2,1,4,5,2,6,3
20:56:49:941095,-2,2,1,1,0,1,-1,-7
20:56:49:956850,-2,2,1,1,0,1,-1,-7
20:56:49:957628,3,5,5,-2,-6,-2,-3,5
20:56:49:963592,-2,-5,-10,-3,-2,-2,-5,4
20:56:49:979320,-2,-5,-10,-3,-2,-2,-5,4
20:56:49:980118,-5,15,0,2,-2,0,-1,-3
20:56:49:986098,-3,0,-3,-6,-3,-1,-2,0
20:56:49:994337,-3,0,-3,-6,-3,-1,-2,0
20:56:49:995108,-9,-10,2,-9,-4,-1,-1,-9
20:56:50:1165,2,-1,-1,-4,1,0,-5,-2
20:56:50:16836,2,-1,-1,-4,1,0,-5,-2
20:56:50:17645,1,-2,-2,-5,2,1,0,-2
20:56:50:23626,4,2,3,1,1,2,12,-1
20:56:50:39308,4,2,3,1,1,2,12,-1
20:56:50:40119,0,8,4,-1,1,-4,-8,4
20:56:50:46066,-21,-25,-11,-4,-3,-4,-9,-6
20:56:50:54334,-21,-25,-11,-4,-3,-4,-9,-6
20:56:50:55110,-2,1,-1,1,-1,-1,-1,-3
20:56:50:61111,7,5,8,2,1,1,-2,2
20:56:50:76826,7,5,8,2,1,1,-2,2
20:56:50:77619,-4,-18,-10,2,0,0,-3,-1
20:56:50:83606,3,2,4,2,-2,-3,-5,-14
20:56:50:99320,3,2,4,2,-2,-3,-5,-14
20:56:50:100379,5,2,4,-2,-1,-2,2,0
20:56:50:106157,0,-1,2,1,-1,0,3,2
20:56:50:114362,0,-1,2,1,-1,0,3,2
20:56:50:115110,5,-4,-2,-3,0,-3,0,-3
20:56:50:128660,-6,5,-2,-1,-2,-2,-8,-9
20:56:50:136836,-6,5,-2,-1,-2,-2,-8,-9
20:56:50:137600,0,-3,-2,1,0,-1,-8,2
20:56:50:143625,12,3,-5,-3,-2,-3,0,7
20:56:50:159334,12,3,-5,-3,-2,-3,0,7
20:56:50:160092,2,7,2,2,-2,0,1,-3
20:56:50:166161,-2,-2,1,0,-1,-2,-4,-16
20:56:50:174307,-2,-2,1,0,-1,-2,-4,-16
20:56:50:175097,0,7,4,-7,-2,0,0,-2
20:56:50:188627,1,3,-3,-5,-2,-2,-7,-1
20:56:50:196840,1,3,-3,-5,-2,-2,-7,-1
20:56:50:197811,-12,-13,1,5,1,-1,4,0
20:56:50:203635,-4,0,1,-1,0,-1,-3,6
20:56:50:219373,-4,0,1,-1,0,-1,-3,6
20:56:50:220141,-2,17,-3,0,-2,1,-4,5
20:56:50:226099,-3,1,4,-3,-2,-3,1,7
20:56:50:234296,-3,1,4,-3,-2,-3,1,7
20:56:50:235088,2,-10,-1,1,-3,-1,-1,-7
20:56:50:248637,-1,3,-1,4,-1,-1,-3,4
20:56:50:256863,-1,3,-1,4,-1,-1,-3,4
20:56:50:257659,5,-1,-2,-5,0,-2,-4,-3
20:56:50:263629,0,-9,1,-1,-1,1,16,6
20:56:50:279351,0,-9,1,-1,-1,1,16,6
20:56:50:280143,-1,-3,-4,-2,-2,-1,0,0
20:56:50:286112,-9,-1,-4,2,0,1,-4,-3
20:56:50:294308,-9,-1,-4,2,0,1,-4,-3
20:56:50:295095,-11,-2,2,1,1,-2,-5,-20
20:56:50:308613,-1,-3,3,-1,-2,-2,8,-2
20:56:50:316861,-1,-3,3,-1,-2,-2,8,-2
20:56:50:317657,6,3,8,1,0,-2,-2,2
20:56:50:323616,0,-14,-5,-2,0,-3,-7,-2
20:56:50:339342,0,-14,-5,-2,0,-3,-7,-2
20:56:50:340118,0,-4,2,5,-1,-2,2,0
20:56:50:346128,7,1,7,4,0,-1,-3,4
20:56:50:354333,7,1,7,4,0,-1,-3,4
20:56:50:355156,-11,-2,-12,2,1,1,-1,1
20:56:50:368620,0,3,-2,-3,0,0,-6,-3
20:56:50:376833,0,3,-2,-3,0,0,-6,-3
20:56:50:377630,-1,-11,-2,-3,-3,-2,-8,4
20:56:50:383602,-10,-1,-4,-4,0,-1,-4,-6
20:56:50:399336,-10,-1,-4,-4,0,-1,-4,-6
20:56:50:400112,3,2,2,-2,-1,1,1,3
20:56:50:406107,3,12,-1,1,-2,-1,0,1
20:56:50:414347,3,12,-1,1,-2,-1,0,1
20:56:50:415125,-1,-2,-2,-2,0,-2,2,4
20:56:50:428592,-7,2,-2,-1,-1,0,2,-4
20:56:50:436832,-7,2,-2,-1,-1,0,2,-4
20:56:50:437626,1,-1,0,-7,-5,-3,0,-3
20:56:50:443604,2,-5,-2,-11,-1,2,0,2
20:56:50:459308,2,-5,-2,-11,-1,2,0,2
20:56:50:460121,3,-7,-6,8,-1,-3,0,1
20:56:50:466126,-2,2,11,9,0,-2,1,-1
20:56:50:474361,-2,2,11,9,0,-2,1,-1
20:56:50:475147,-5,-46,-1,-16,-4,-1,0,-2
20:56:50:488585,-11,-8,-6,-3,-2,-1,-1,-2
20:56:50:496858,-11,-8,-6,-3,-2,-1,-1,-2
20:56:50:497665,1,5,-1,6,1,0,-1,-5
20:56:50:503580,0,7,7,-3,-2,0,-3,7
20:56:50:519330,0,7,7,-3,-2,0,-3,7
20:56:50:520094,4,8,0,-3,1,-1,-2,0
20:56:50:526103,0,5,-4,2,-1,-1,-1,-1
20:56:50:534346,0,5,-4,2,-1,-1,-1,-1
20:56:50:535126,2,12,5,-5,-2,-1,0,-3
20:56:50:548674,-5,-10,-4,1,-1,0,-1,1
20:56:50:556984,-5,-10,-4,1,-1,0,-1,1
20:56:50:557603,0,15,3,-2,1,0,2,1
20:56:50:563575,-7,2,-12,-1,-3,-3,-2,-4
20:56:50:579343,-7,2,-12,-1,-3,-3,-2,-4
20:56:50:580092,-6,1,-7,-12,0,0,0,1
20:56:50:586123,9,1,-3,-4,-1,-1,-1,-3
20:56:50:594404,9,1,-3,-4,-1,-1,-1,-3
20:56:50:595151,2,-3,-2,2,-1,-3,-1,-1
20:56:50:608640,5,1,2,2,-1,-1,0,-1
20:56:50:616814,5,1,2,2,-1,-1,0,-1
20:56:50:617620,-14,5,0,3,0,1,3,7
20:56:50:623636,5,4,-2,1,-3,-1,2,1
20:56:50:639313,5,4,-2,1,-3,-1,2,1
20:56:50:640093,-2,-1,0,0,-2,0,-3,-4
20:56:50:646127,-2,-1,4,0,0,0,-3,-2
20:56:50:654312,-2,-1,4,0,0,0,-3,-2
20:56:50:655113,1,3,1,-2,0,-2,1,1
20:56:50:668636,-2,2,0,-2,-1,-2,-1,0
20:56:50:676810,-2,2,0,-2,-1,-2,-1,0
20:56:50:677604,0,-17,-3,0,-1,-1,-2,-5
20:56:50:683620,-5,-52,-15,-10,-4,-5,-1,-4
20:56:50:699341,-5,-52,-15,-10,-4,-5,-1,-4
20:56:50:700154,1,-4,-1,-3,-2,-2,1,-1
20:56:50:706128,0,12,1,1,0,-1,-1,-1
20:56:50:714344,0,12,1,1,0,-1,-1,-1
20:56:50:715112,1,0,-4,-9,0,-1,-3,-1
20:56:50:728651,-2,12,8,-2,2,2,-1,-1
20:56:50:736838,-2,12,8,-2,2,2,-1,-1
20:56:50:737579,-4,4,6,6,-2,1,-3,0
20:56:50:743649,-3,0,-5,-1,-1,-1,-8,-3
20:56:50:759355,-3,0,-5,-1,-1,-1,-8,-3
20:56:50:760144,0,-16,0,0,-1,-1,-2,-3
20:56:50:766106,-2,13,1,-15,-4,-1,-1,-1
20:56:50:774288,-2,13,1,-15,-4,-1,-1,-1
20:56:50:775095,-5,3,11,6,1,-1,0,-6
20:56:50:788616,1,1,-19,0,-3,-3,-4,-6
20:56:50:796837,1,1,-19,0,-3,-3,-4,-6
20:56:50:797635,-3,-18,3,1,-3,-5,-1,-5
20:56:50:803624,-2,-5,-18,1,-2,-2,2,0
20:56:50:819342,-2,-5,-18,1,-2,-2,2,0
20:56:50:820123,2,7,-2,2,2,-1,0,2
20:56:50:826119,-6,-16,20,4,-1,-1,0,13
20:56:50:834326,-6,-16,20,4,-1,-1,0,13
20:56:50:835155,-2,11,-10,4,-1,0,3,12
20:56:50:848606,6,-3,-12,-15,-4,-2,-2,-20
20:56:50:856869,6,-3,-12,-15,-4,-2,-2,-20
20:56:50:857638,2,6,-36,-13,2,2,-2,-8
20:56:50:863599,-3,17,25,14,-2,0,6,7
20:56:50:879317,-3,17,25,14,-2,0,6,7
20:56:50:880121,3,-2,-4,-5,-6,-5,-7,-1
20:56:50:886091,-8,-2,-7,-2,5,3,-1,4
20:56:50:894363,-8,-2,-7,-2,5,3,-1,4
20:56:50:895203,1,4,-3,3,-1,-2,-8,-1
20:56:50:908645,-4,-4,-3,0,-4,-1,-4,8
20:56:50:916836,-4,-4,-3,0,-4,-1,-4,8
20:56:50:917613,7,-10,1,-6,-4,-2,-8,-11
20:56:50:923608,2,13,14,8,0,0,2,-1
20:56:50:939333,2,13,14,8,0,0,2,-1
20:56:50:940114,1,4,14,-3,0,-2,-1,-6
20:56:50:946125,2,9,10,9,5,2,3,4
20:56:50:954327,2,9,10,9,5,2,3,4
20:56:50:955137,-1,4,5,-6,-2,-1,4,5
20:56:50:968618,-5,5,16,-4,-1,-2,2,-3
20:56:50:976846,-5,5,16,-4,-1,-2,2,-3
20:56:50:977616,-6,2,-17,-2,-2,0,4,-1
20:56:50:983574,-7,-27,-27,-18,2,-1,-5,-12
20:56:50:999308,-7,-27,-27,-18,2,-1,-5,-12
20:56:51:98,-2,-10,4,5,-8,-5,0,2
20:56:51:6110,3,-12,8,4,-1,3,11,0
20:56:51:14360,3,-12,8,4,-1,3,11,0
20:56:51:15167,-1,2,15,-6,6,3,0,4
20:56:51:28671,-2,-1,-23,-4,-3,-4,-5,-3
20:56:51:36817,-2,-1,-23,-4,-3,-4,-5,-3
20:56:51:37616,-2,5,0,5,-3,-5,-3,-3
20:56:51:51127,3,2,-6,-2,1,-1,-1,3
20:56:51:59292,3,2,-6,-2,1,-1,-1,3
20:56:51:60102,-2,6,13,11,3,1,-1,-2
20:56:51:66127,-1,-4,8,-3,-4,-3,-5,-1
20:56:51:73662,-1,-4,8,-3,-4,-3,-5,-1
20:56:51:81085,1,-1,-12,-4,-1,0,2,-1
20:56:51:88592,2,4,2,5,-5,-3,-2,-2
20:56:51:96836,2,4,2,5,-5,-3,-2,-2
20:56:51:97665,1,-4,-11,11,6,2,2,0
20:56:51:111139,6,-11,-20,-7,-3,-3,-3,-2
20:56:51:119370,6,-11,-20,-7,-3,-3,-3,-2
20:56:51:120108,-8,2,16,8,-1,-2,2,-1
20:56:51:126137,-1,1,-1,-32,1,3,-3,-2
20:56:51:133674,-1,1,-1,-32,1,3,-3,-2
20:56:51:141329,-3,1,-6,9,-3,-5,-1,-2
20:56:51:148618,-1,5,3,-5,3,4,0,0
20:56:51:156854,-1,5,3,-5,3,4,0,0
20:56:51:157651,-14,-8,-2,-22,-4,0,-2,-1
20:56:51:171097,1,4,12,14,-4,-6,-5,-2
20:56:51:179334,1,4,12,14,-4,-6,-5,-2
20:56:51:180123,1,-21,-41,-22,-4,-2,1,2
20:56:51:186089,-4,-1,-33,20,1,-3,1,-3
20:56:51:193668,-4,-1,-33,20,1,-3,1,-3
20:56:51:201109,8,9,20,3,0,-1,-1,0
20:56:51:208632,5,16,18,8,3,1,0,3
20:56:51:216842,5,16,18,8,3,1,0,3
20:56:51:217634,-4,-1,-9,-13,-3,-1,-2,0
20:56:51:231107,-5,-2,1,2,-3,-4,1,0
20:56:51:239345,-5,-2,1,2,-3,-4,1,0
20:56:51:240142,-1,-1,10,5,0,5,-2,-3
20:56:51:246134,1,-4,-4,-9,-7,-5,-3,-3
20:56:51:253704,1,-4,-4,-9,-7,-5,-3,-3
20:56:51:269269,8,9,11,10,-1,-2,0,1
20:56:51:270077,-11,-13,-2,-7,0,-2,-2,-2
20:56:51:276865,-11,-13,-2,-7,0,-2,-2,-2
20:56:51:277652,-13,6,0,-5,0,-2,-2,-3
20:56:51:291081,-4,0,9,8,2,0,-3,1
20:56:51:299359,-4,0,9,8,2,0,-3,1
20:56:51:300122,3,-5,-5,2,-2,-3,1,-1
20:56:51:306118,5,2,8,-4,-3,-4,-1,1
20:56:51:313680,5,2,8,-4,-3,-4,-1,1
20:56:51:321116,1,1,0,-2,3,0,-3,-2
20:56:51:328625,-6,0,-3,-1,-3,-1,-2,-2
20:56:51:344339,-6,0,-3,-1,-3,-1,-2,-2
20:56:51:345134,-1,6,4,-1,-3,-4,-1,-4
20:56:51:351117,1,-14,-16,0,-2,1,-2,-2
20:56:51:359341,1,-14,-16,0,-2,1,-2,-2
20:56:51:360146,9,-3,-7,-1,2,4,2,2
20:56:51:366162,-14,-10,5,2,6,4,1,-5
20:56:51:381838,-14,-10,5,2,6,4,1,-5
20:56:51:382650,8,0,8,14,0,-2,-1,0
20:56:51:388621,-7,-1,0,-17,-12,-7,-5,-4
20:56:51:404383,-7,-1,0,-17,-12,-7,-5,-4
20:56:51:405120,0,2,1,0,1,-2,0,0
20:56:51:411114,8,6,8,1,-3,-3,1,-1
20:56:51:419352,8,6,8,1,-3,-3,1,-1
20:56:51:420160,3,0,0,0,-3,2,2,-1
20:56:51:426119,3,1,-3,2,-1,-2,-4,-1
20:56:51:441889,3,1,-3,2,-1,-2,-4,-1
20:56:51:442629,-8,-5,7,-2,-3,-1,-3,-1
20:56:51:448609,1,4,-4,-1,2,2,-1,1
20:56:51:456813,1,4,-4,-1,2,2,-1,1
20:56:51:457587,-6,-3,-6,-5,-3,-3,-1,-2
20:56:51:471093,2,3,-5,1,1,2,1,0
20:56:51:479351,2,3,-5,1,1,2,1,0
20:56:51:480151,8,5,-6,-6,-1,-3,3,-1
20:56:51:486111,-2,0,-2,1,1,1,-2,0
20:56:51:493710,-2,0,-2,1,1,1,-2,0
20:56:51:501126,-7,3,-1,0,-3,-1,-3,-1
20:56:51:508604,-2,-3,2,-1,0,-2,1,0
20:56:51:516830,-2,-3,2,-1,0,-2,1,0
20:56:51:517577,2,-4,0,-2,-1,-3,-1,-1
20:56:51:531142,2,1,-3,-4,0,0,0,-1
20:56:51:539305,2,1,-3,-4,0,0,0,-1
20:56:51:540091,-7,1,-1,-3,-2,1,-3,-1
20:56:51:546132,-2,-2,5,0,2,3,0,0
20:56:51:553686,-2,-2,5,0,2,3,0,0
20:56:51:561106,-6,-9,0,-4,-3,-2,-3,-1
20:56:51:568630,5,1,-1,2,1,2,-2,0
20:56:51:576844,5,1,-1,2,1,2,-2,0
20:56:51:577627,1,-7,-2,-4,0,-1,-1,3
20:56:51:591151,-2,-1,2,-2,-2,0,-1,-2
20:56:51:599320,-2,-1,2,-2,-2,0,-1,-2
20:56:51:600103,5,-1,0,1,-1,-2,-1,6
20:56:51:606147,2,14,1,0,-3,-1,-2,-1
20:56:51:613672,2,14,1,0,-3,-1,-2,-1
20:56:51:621087,1,2,-4,-2,-1,-1,0,-6
20:56:51:628622,-6,-4,-1,-1,-2,-4,-1,-1
20:56:51:636838,-6,-4,-1,-1,-2,-4,-1,-1
20:56:51:637650,4,4,-2,2,-1,1,0,3
20:56:51:651062,-6,-8,-1,1,0,-2,0,-2
20:56:51:659341,-6,-8,-1,1,0,-2,0,-2
20:56:51:660117,-6,-2,-3,1,0,-1,-1,-2
20:56:51:666104,0,-10,-5,-2,-2,-3,0,-4
20:56:51:673688,0,-10,-5,-2,-2,-3,0,-4
20:56:51:681148,1,2,2,1,0,1,-2,-2
20:56:51:688592,2,-3,-2,0,-1,-3,0,2
20:56:51:696850,2,-3,-2,0,-1,-3,0,2
20:56:51:697641,-6,-6,-2,-5,0,0,-1,-5
20:56:51:711098,1,-1,-4,-7,0,0,-2,-1
20:56:51:719309,1,-1,-4,-7,0,0,-2,-1
20:56:51:720134,0,-6,-6,-16,-6,-2,0,-3
20:56:51:726085,2,0,-1,-2,0,-1,-3,1
20:56:51:733677,2,0,-1,-2,0,-1,-3,1
20:56:51:741127,-9,1,-4,0,0,-2,0,0
20:56:51:748609,-2,-4,1,1,-3,-1,-2,-2
20:56:51:756884,-2,-4,1,1,-3,-1,-2,-2
20:56:51:757662,2,-1,0,2,-1,-2,-2,0
20:56:51:771112,-3,-2,-3,3,-2,-2,0,-1
20:56:51:779340,-3,-2,-3,3,-2,-2,0,-1
20:56:51:780133,4,-10,-2,-2,-3,-1,0,-1
20:56:51:786107,-3,-3,-2,-2,-1,-2,0,-4
20:56:51:793676,-3,-3,-2,-2,-1,-2,0,-4
20:56:51:801134,-3,1,-2,1,-1,-1,0,-1
20:56:51:808657,0,1,4,-1,0,1,0,0
20:56:51:816816,0,1,4,-1,0,1,0,0
20:56:51:817615,0,3,1,2,-1,-1,-1,0
20:56:51:839976,1,2,1,2,-3,1,0,0
20:56:51:840810,1,2,1,2,-3,1,0,0
20:56:51:841609,1,0,0,0,-2,-2,-3,-1
20:56:51:846122,-7,-3,-4,0,-1,-1,1,-1
20:56:51:853709,-7,-3,-4,0,-1,-1,1,-1
20:56:51:861134,-1,3,-2,1,1,-1,0,-2
20:56:51:868624,-15,-3,-1,-2,1,-3,-2,-2
20:56:51:876809,-15,-3,-1,-2,1,-3,-2,-2
20:56:51:877626,-4,1,-2,-3,-2,-1,-1,0
20:56:51:891101,10,2,-1,-1,-1,0,-2,-1
20:56:51:899342,10,2,-1,-1,-1,0,-2,-1
20:56:51:900143,0,-4,2,0,-1,-1,-2,-3
20:56:51:906117,-2,-4,-3,-3,-1,-1,1,0
20:56:51:913667,-2,-4,-3,-3,-1,-1,1,0
20:56:51:921107,4,0,0,-1,0,-1,0,-1
20:56:51:928612,1,-4,-1,-2,-2,0,-1,-2
20:56:51:936815,1,-4,-1,-2,-2,0,-1,-2
20:56:51:937593,2,3,0,0,2,-2,-1,-1
20:56:51:951598,4,-3,-1,-1,0,-2,0,2
20:56:51:959305,4,-3,-1,-1,0,-2,0,2
20:56:51:960130,-3,-5,0,-2,-3,-1,0,-2
20:56:51:966146,-4,-1,-1,1,0,-1,-2,-2
20:56:51:973660,-4,-1,-1,1,0,-1,-2,-2
20:56:51:981119,-2,0,-2,1,1,0,-1,1
20:56:51:988584,0,1,-1,-1,-1,-1,1,-2
20:56:51:996202,0,1,-1,-1,-1,-1,1,-2
20:56:52:3596,-1,0,1,1,-1,-3,-2,-2
20:56:52:11128,6,-2,-1,-1,-4,0,0,-1
20:56:52:19346,6,-2,-1,-1,-4,0,0,-1
20:56:52:20128,-7,-1,-3,-1,-3,-1,-1,-2
20:56:52:34845,-1,0,-2,-1,0,-3,-1,0
20:56:52:35742,-1,0,-2,-1,0,-3,-1,0
20:56:52:41125,-5,-1,-1,-2,-1,-1,0,-2
20:56:52:48608,-3,1,0,2,1,-1,-2,-2
20:56:52:56173,-3,1,0,2,1,-1,-2,-2
20:56:52:71744,0,-4,-1,-3,0,-1,-1,-1
20:56:52:72575,6,-2,0,0,-1,1,-2,-1
20:56:52:79342,6,-2,0,0,-1,1,-2,-1
20:56:52:80131,-2,10,0,0,0,-1,-2,0
20:56:52:94295,1,2,-2,-1,-2,0,-1,0
20:56:52:95137,1,2,-2,-1,-2,0,-1,0
20:56:52:101096,-3,-4,-1,3,-1,0,-1,-2
20:56:52:116845,-2,0,0,-1,-2,-4,1,-3
20:56:52:117611,-2,0,0,-1,-2,-4,1,-3
20:56:52:123600,-1,-4,-3,-2,-2,-2,0,-2
20:56:52:131121,-3,-1,-1,-2,-3,-3,-3,-2
20:56:52:139363,-3,-1,-1,-2,-3,-3,-3,-2
20:56:52:140144,-3,-1,-3,-3,0,-1,-2,-1
20:56:52:154297,-6,0,0,1,-1,0,-1,0
20:56:52:155127,-6,0,0,1,-1,0,-1,0
20:56:52:161090,2,0,0,-1,-3,1,0,0
20:56:52:168609,-2,1,0,-2,0,-1,-1,-1
20:56:52:176170,-2,1,0,-2,0,-1,-1,-1
20:56:52:183585,-3,-6,-2,0,-2,-2,-1,-2
20:56:52:191116,2,0,-2,-3,-1,-2,-1,0
20:56:52:199341,2,0,-2,-3,-1,-2,-1,0
20:56:52:200132,-2,-1,1,-4,-1,-3,-2,-2
20:56:52:214319,1,-1,-1,0,-1,-2,1,-2
20:56:52:215156,1,-1,-1,0,-1,-2,1,-2
20:56:52:221091,3,-2,-2,-1,-3,0,-2,0
20:56:52:228605,-9,-4,-2,-4,0,-1,-1,-1
20:56:52:236175,-9,-4,-2,-4,0,-1,-1,-1
20:56:52:243656,2,-2,1,0,-2,-2,1,0
20:56:52:251110,1,3,1,-2,-1,-2,0,-1
20:56:52:259339,1,3,1,-2,-1,-2,0,-1
20:56:52:260078,-6,0,-2,0,1,-1,1,1
20:56:52:274330,-2,-1,-4,0,-1,-2,-2,0
20:56:52:275130,-2,-1,-4,0,-1,-2,-2,0
20:56:52:281123,4,0,-1,-2,1,-2,-3,-2
20:56:52:288624,-5,-3,1,-1,0,-1,-2,-1
20:56:52:296112,-5,-3,1,-1,0,-1,-2,-1
20:56:52:303637,-1,0,0,1,0,0,0,-2
20:56:52:311131,-2,-2,0,0,-1,1,-1,-1
20:56:52:319312,-2,-2,0,0,-1,1,-1,-1
20:56:52:320106,0,-1,-2,-2,-3,0,0,-1
20:56:52:334306,-1,-3,-2,1,-1,1,0,1
20:56:52:335085,-1,-3,-2,1,-1,1,0,1
20:56:52:341124,-3,-2,-1,-1,-2,0,-1,-1
20:56:52:348611,0,0,-2,0,0,-2,-1,-1
20:56:52:356133,0,0,-2,0,0,-2,-1,-1
20:56:52:363582,-3,-1,-1,-2,-1,-1,-1,0
20:56:52:371075,-2,-1,-1,-1,-2,-1,-2,-1
20:56:52:379327,-2,-1,-1,-1,-2,-1,-2,-1
20:56:52:380105,-1,-1,0,-2,2,0,0,1
20:56:52:394298,1,-4,-1,-2,-2,-3,-1,-1
20:56:52:395124,1,-4,-1,-2,-2,-3,-1,-1
20:56:52:401113,-6,-4,0,-2,-1,-1,-1,-3
20:56:52:408588,0,2,1,-1,0,0,0,-3
20:56:52:416169,0,2,1,-1,0,0,0,-3
20:56:52:423617,0,1,-4,1,-1,-1,-2,-1
20:56:52:431111,-3,-7,-3,0,-2,-1,-3,1
20:56:52:439318,-3,-7,-3,0,-2,-1,-3,1
20:56:52:440130,-2,0,0,0,-2,0,-1,-1
20:56:52:454333,1,0,-1,-2,1,-1,-1,-2
20:56:52:455118,1,0,-1,-2,1,-1,-1,-2
20:56:52:461095,1,-1,0,-3,2,-2,-2,-1
20:56:52:468617,0,0,-2,-1,-2,1,0,2
20:56:52:476169,0,0,-2,-1,-2,1,0,2
20:56:52:483598,-1,-1,-1,-1,-3,-3,-2,-2
20:56:52:491093,-3,0,0,1,0,-3,-3,-2
20:56:52:499347,-3,0,0,1,0,-3,-3,-2
20:56:52:500135,-5,-1,-1,-1,-2,1,-1,-1
20:56:52:514316,2,-2,-1,-1,-2,-1,-2,-2
20:56:52:515145,2,-2,-1,-1,-2,-1,-2,-2
20:56:52:521103,-1,-4,1,-2,1,-1,-2,-1
20:56:52:528595,1,1,-3,-2,-2,0,-3,-1
20:56:52:536168,1,1,-3,-2,-2,0,-3,-1
20:56:52:543645,-3,-2,-2,0,-1,-2,0,-3
20:56:52:551175,4,1,1,-1,-1,1,2,-1
20:56:52:559299,4,1,1,-1,-1,1,2,-1
20:56:52:560083,-13,-8,-2,0,-2,0,1,-1
20:56:52:574354,-1,-1,0,0,-2,-1,-2,-1
20:56:52:575139,-1,-1,0,0,-2,-1,-2,-1
20:56:52:581134,6,1,1,-1,0,-1,-2,0
20:56:52:588614,-3,-2,1,0,1,0,0,0
20:56:52:596153,-3,-2,1,0,1,0,0,0
20:56:52:603618,1,5,-1,0,0,-1,-2,0
20:56:52:611136,4,-5,-3,-2,-1,-5,-2,-1
20:56:52:619292,4,-5,-3,-2,-1,-5,-2,-1
20:56:52:620110,2,-1,-1,-2,-2,-3,-1,0
20:56:52:634280,-1,-1,-3,-2,-2,0,0,-2
20:56:52:635093,-1,-1,-3,-2,-2,0,0,-2
20:56:52:641142,0,2,-2,0,-2,0,-1,0
20:56:52:648619,-5,-1,-1,2,0,-1,0,-1
20:56:52:656156,-5,-1,-1,2,0,-1,0,-1
20:56:52:663607,4,2,0,-3,1,0,0,0
20:56:52:671066,-2,-4,0,-2,-2,-1,0,-2
20:56:52:679364,-2,-4,0,-2,-2,-1,0,-2
20:56:52:680113,3,-2,-1,1,-1,-1,-3,-1
20:56:52:694297,-6,0,-1,-2,-2,0,0,-2
20:56:52:695118,-6,0,-1,-2,-2,0,0,-2
20:56:52:701079,-3,-2,1,0,-2,-2,0,-1
20:56:52:708630,0,3,-1,1,0,-2,-1,0
20:56:52:716167,0,3,-1,1,0,-2,-1,0
20:56:52:723612,-1,-4,-3,-1,-1,-2,-3,-3
20:56:52:731141,1,-1,-2,-3,0,-2,0,-1
20:56:52:739345,1,-1,-2,-3,0,-2,0,-1
20:56:52:740133,-2,-2,0,1,-1,0,-1,-1
20:56:52:754302,1,-1,-1,-1,-1,0,-1,0
20:56:52:755125,1,-1,-1,-1,-1,0,-1,0
20:56:52:761087,-2,0,0,-2,-2,-2,-2,0
20:56:52:768659,3,1,-1,-2,-2,-1,0,-1
20:56:52:776166,3,1,-1,-2,-2,-1,0,-1
20:56:52:783620,-2,-6,-1,-3,-2,-3,-2,-1
20:56:52:791144,-1,0,-1,-2,0,-2,0,-2
20:56:52:799365,-1,0,-1,-2,0,-2,0,-2
20:56:52:800137,0,3,-1,-3,0,-2,-1,-1
20:56:52:814373,-2,-4,0,0,-1,0,-1,-1
20:56:52:815158,-2,-4,0,0,-1,0,-1,-1
20:56:52:821141,0,2,-2,-2,0,-1,0,0
20:56:52:828688,0,-1,-1,-1,0,-2,-1,0
20:56:52:836202,0,-1,-1,-1,0,-2,-1,0
20:56:52:843616,1,0,-1,-2,0,1,-1,-1
20:56:52:851116,0,1,-1,-1,-3,-2,-1,1
20:56:52:859326,0,1,-1,-1,-3,-2,-1,1
20:56:52:860082,-2,-1,-1,0,-1,-1,-1,-1
20:56:52:874377,-1,0,-1,0,0,-1,0,1
20:56:52:875146,-1,0,-1,0,0,-1,0,1
20:56:52:881129,-3,-3,-1,-1,-2,0,-1,-2
20:56:52:888635,2,1,0,-2,-2,-1,1,-2
20:56:52:896173,2,1,0,-2,-2,-1,1,-2
20:56:52:903619,-2,-7,1,-1,-1,-1,0,-1
20:56:52:911138,-1,-3,-2,-3,-2,-2,-1,-1
20:56:52:918659,-1,-3,-2,-3,-2,-2,-1,-1
20:56:52:926079,2,3,-3,-2,-2,-1,1,-1
20:56:52:934320,-1,1,-2,2,0,-1,-2,-1
20:56:52:935110,-1,1,-2,2,0,-1,-2,-1
20:56:52:941129,-3,1,-1,-2,-1,1,-3,-1
20:56:52:956866,-2,0,1,-2,0,0,0,0
20:56:52:957623,-2,0,1,-2,0,0,0,0
20:56:52:971844,-1,-3,0,-1,-2,0,-2,-2
20:56:52:972583,1,-1,-1,-1,2,0,0,0
20:56:52:978626,1,-1,-1,-1,2,0,0,0
20:56:52:986128,-5,-3,1,0,-1,-2,0,-3
20:56:52:994298,-3,0,-1,-1,0,1,-1,-2
20:56:52:995108,-3,0,-1,-1,0,1,-1,-2
20:56:53:1058,1,-2,-1,-3,-1,-4,0,0
20:56:53:16871,-2,-2,0,-2,-3,-1,-1,-2
20:56:53:17592,-2,-2,0,-2,-3,-1,-1,-2
20:56:53:23642,4,5,-3,0,-2,0,-2,0
20:56:53:31145,-11,-6,-1,-2,-2,-1,-2,-2
20:56:53:38681,-11,-6,-1,-2,-2,-1,-2,-2
20:56:53:46091,-1,-1,-1,0,0,0,-2,0
20:56:53:54287,-1,1,-1,-1,-1,-1,-3,-2
20:56:53:55108,-1,1,-1,-1,-1,-1,-3,-2
20:56:53:61091,-1,-12,-2,-1,-1,-1,0,-1
20:56:53:76843,-1,-2,-1,-3,-2,-2,-1,-2
20:56:53:77631,-1,-2,-1,-3,-2,-2,-1,-2
20:56:53:83593,-2,-2,-1,-1,1,-2,-1,-2
20:56:53:91066,3,2,-1,-1,-2,-1,0,-3
20:56:53:98675,3,2,-1,-1,-2,-1,0,-3
20:56:53:106088,1,1,-1,-1,-1,0,0,-2
20:56:53:114309,8,0,-1,-1,-1,-1,-1,0
20:56:53:115136,8,0,-1,-1,-1,-1,-1,0
20:56:53:121092,-5,-1,-1,-3,-1,-1,0,0
20:56:53:136847,1,-2,-2,0,0,-1,-1,-1
20:56:53:137619,1,-2,-2,0,0,-1,-1,-1
20:56:53:143590,-1,3,-3,0,-1,0,0,-2
20:56:53:151088,-4,-1,1,-2,-1,-2,1,-2
20:56:53:158688,-4,-1,1,-2,-1,-2,1,-2
20:56:53:166101,1,1,-1,-1,0,-2,0,-1
20:56:53:174357,-6,0,-1,0,1,0,-2,-1
20:56:53:175145,-6,0,-1,0,1,0,-2,-1
20:56:53:181145,1,-4,-1,-3,-1,-2,-1,-2
20:56:53:196842,-4,-2,-2,-1,-1,-2,-1,-1
20:56:53:197639,-4,-2,-2,-1,-1,-2,-1,-1
20:56:53:203655,-2,-2,0,1,0,-1,-2,0
20:56:53:211097,-3,-1,0,-2,0,-1,0,0
20:56:53:218692,-3,-1,0,-2,0,-1,0,0
20:56:53:226124,2,1,-1,0,-2,1,0,-1
20:56:53:234278,-2,-5,-2,-2,-1,-2,-2,-2
20:56:53:235104,-2,-5,-2,-2,-1,-2,-2,-2
20:56:53:241118,-1,-2,-2,0,0,-1,-1,-1
20:56:53:256831,-6,0,0,2,-2,0,0,-2
20:56:53:257609,-6,0,0,2,-2,0,0,-2
20:56:53:263624,-3,-2,-2,-5,-2,0,0,-1
20:56:53:271141,3,-1,-3,-4,-1,-3,-1,0
20:56:53:278639,3,-1,-3,-4,-1,-3,-1,0
20:56:53:286121,1,0,-1,-2,-1,-2,-1,0
20:56:53:302445,2,-2,0,-1,-1,1,-1,1
20:56:53:303246,2,-2,0,-1,-1,1,-1,1
20:56:53:304066,-4,0,-1,-1,2,-2,-2,-2
20:56:53:316835,0,0,-1,0,0,-2,0,-2
20:56:53:317643,0,0,-1,0,0,-2,0,-2
20:56:53:323604,-4,0,2,-1,-2,-2,-1,-1
20:56:53:331115,1,1,0,0,-1,-1,-3,0
20:56:53:338629,1,1,0,0,-1,-1,-3,0
20:56:53:346154,-1,-2,1,-2,-3,0,-1,-1
20:56:53:354282,-1,-1,-1,0,-1,-1,-1,-1
20:56:53:355117,-1,-1,-1,0,-1,-1,-1,-1
20:56:53:361066,5,0,1,0,-1,-3,-1,0
20:56:53:376833,-1,-3,0,0,0,1,-1,0
20:56:53:377596,-1,-3,0,0,0,1,-1,0
20:56:53:383622,0,2,-3,-1,-1,-1,-2,0
20:56:53:391150,-1,1,-1,-1,-2,1,-1,-3
20:56:53:398618,-1,1,-1,-1,-2,1,-1,-3
20:56:53:406100,-2,-2,-2,-2,-1,-2,-2,1
