Time,EMG1,EMG2,EMG3,EMG4,EMG5,EMG6,EMG7,EMG8
20:57:36:19446,4,-2,0,-2,-1,-3,-1,-2
20:57:36:33609,-1,-1,-2,-3,-1,-2,-3,0
20:57:36:34414,-1,-1,-2,-3,-1,-2,-3,0
20:57:36:40349,-7,-1,-2,-2,-1,-1,-1,0
20:57:36:47878,-6,-1,-1,0,1,-1,-1,-1
20:57:36:55607,-6,-1,-1,0,1,-1,-1,-1
20:57:36:62882,3,1,0,-2,0,0,1,-1
20:57:36:70409,0,0,0,0,-2,1,-1,0
20:57:36:78613,0,0,0,0,-2,1,-1,0
20:57:36:79433,0,-4,-1,0,-3,-2,-2,-3
20:57:36:101762,2,5,0,-1,2,-1,0,-1
20:57:36:102551,2,5,0,-1,2,-1,0,-1
20:57:36:103671,-6,-3,-2,-1,-2,-1,-1,-1
20:57:36:107859,-3,2,-3,0,-1,-1,0,0
20:57:36:115470,-3,2,-3,0,-1,-1,0,0
20:57:36:122915,5,-2,0,-3,-2,-2,-3,0
20:57:36:130377,-5,-5,-2,-1,-2,-1,-1,-4
20:57:36:138625,-5,-5,-2,-1,-2,-1,-1,-4
20:57:36:139418,5,5,-1,-1,0,-1,-1,1
20:57:36:153600,-4,-12,-2,-1,-1,-1,-3,-1
20:57:36:154399,-4,-12,-2,-1,-1,-1,-3,-1
20:57:36:160403,-5,0,-2,-1,-1,0,-1,-2
20:57:36:167902,5,0,-3,-1,-1,1,1,0
20:57:36:175454,5,0,-3,-1,-1,1,1,0
20:57:36:182878,-3,-1,3,0,0,0,-1,1
20:57:36:190394,4,-1,0,-1,-3,-3,-1,-2
20:57:36:198612,4,-1,0,-1,-3,-3,-1,-2
20:57:36:199411,-2,-9,-5,-3,-3,-4,0,0
20:57:36:214016,2,3,0,1,-1,-1,0,0
20:57:36:214818,2,3,0,1,-1,-1,0,0
20:57:36:220402,2,3,-1,-1,0,0,-2,-2
20:57:36:227889,-3,0,-1,-2,0,-2,-1,-1
20:57:36:235487,-3,0,-1,-2,0,-2,-1,-1
20:57:36:242905,-7,-15,-5,-3,0,0,-1,-3
20:57:36:250425,-18,-5,-3,0,0,-1,-1,-2
20:57:36:266128,-18,-5,-3,0,0,-1,-1,-2
20:57:36:266905,2,2,-1,0,-2,-1,1,-1
20:57:36:273525,4,2,1,0,-1,-1,-1,-1
20:57:36:274368,4,2,1,0,-1,-1,-1,-1
20:57:36:280432,-2,-4,-2,-3,-1,-2,-1,-2
20:57:36:296146,1,0,-2,-2,0,-2,0,0
20:57:36:296909,1,0,-2,-2,0,-2,0,0
20:57:36:302880,-4,4,2,1,-2,-1,0,-2
20:57:36:310385,2,0,-4,-2,0,-1,-1,-2
20:57:36:318566,2,0,-4,-2,0,-1,-1,-2
20:57:36:319363,-2,2,-3,-1,-1,-1,0,-1
20:57:36:333611,1,10,0,-1,-1,1,1,-1
20:57:36:334421,1,10,0,-1,-1,1,1,-1
20:57:36:340390,-6,4,-2,-2,-2,0,-2,-1
20:57:36:347888,-6,-7,-2,-4,-1,0,-2,0
20:57:36:355429,-6,-7,-2,-4,-1,0,-2,0
20:57:36:362924,-6,4,1,-1,-2,-1,-2,0
20:57:36:370443,2,-4,1,-1,-1,-3,0,-1
20:57:36:378585,2,-4,1,-1,-1,-3,0,-1
20:57:36:379393,-2,-6,-1,2,0,-3,0,-1
20:57:36:394009,3,1,1,0,0,2,-3,0
20:57:36:394848,3,1,1,0,0,2,-3,0
20:57:36:408561,1,1,-1,-4,-1,-3,0,-1
20:57:36:409357,1,1,1,-3,0,-1,1,-1
20:57:36:415457,1,1,1,-3,0,-1,1,-1
20:57:36:422919,6,2,0,-3,0,-1,-2,0
20:57:36:430415,1,-7,1,0,-3,-2,-1,-2
20:57:36:438583,1,-7,1,0,-3,-2,-1,-2
20:57:36:439375,-3,-5,0,1,0,-1,-1,-1
20:57:36:453522,-7,-1,-4,-1,-3,0,0,-1
20:57:36:454364,-7,-1,-4,-1,-3,0,0,-1
20:57:36:460426,-4,4,-1,1,0,2,0,-1
20:57:36:467879,2,-2,-2,-2,-4,-1,-2,-1
20:57:36:475429,2,-2,-2,-2,-4,-1,-2,-1
20:57:36:482913,9,0,-1,-2,-1,-2,-1,0
20:57:36:490398,-5,-3,-2,-2,1,-1,-2,-3
20:57:36:498594,-5,-3,-2,-2,1,-1,-2,-3
20:57:36:499378,0,-2,-2,2,-3,-1,-2,0
20:57:36:513571,6,0,5,3,-2,-4,0,-1
20:57:36:514380,6,0,5,3,-2,-4,0,-1
20:57:36:520369,-2,-1,1,1,-2,-2,0,-3
20:57:36:527858,-2,1,-9,-5,0,0,-2,-1
20:57:36:535435,-2,1,-9,-5,0,0,-2,-1
20:57:36:542876,-5,-6,6,4,-3,0,-1,-1
20:57:36:550372,-3,1,3,2,0,-4,-1,-1
20:57:36:558607,-3,1,3,2,0,-4,-1,-1
20:57:36:559399,-1,-2,-16,-6,1,1,-1,2
20:57:36:573573,-2,2,-3,1,-3,0,0,-1
20:57:36:574409,-2,2,-3,1,-3,0,0,-1
20:57:36:580354,1,-3,0,-1,-2,-2,0,-1
20:57:36:587886,-4,-1,-6,-5,-1,-1,1,-1
20:57:36:595491,-4,-1,-6,-5,-1,-1,1,-1
20:57:36:602920,1,3,2,-3,-2,-3,-1,-3
20:57:36:610401,0,-3,2,2,-2,0,0,-1
20:57:36:618660,0,-3,2,2,-2,0,0,-1
20:57:36:619400,-2,-3,14,6,1,-2,-1,-1
20:57:36:633589,-7,-5,-6,-3,-1,-2,-2,-1
20:57:36:634403,-7,-5,-6,-3,-1,-2,-2,-1
20:57:36:640433,7,4,-3,-5,-3,1,1,1
20:57:36:647921,-3,-3,5,1,5,0,0,1
20:57:36:655453,-3,-3,5,1,5,0,0,1
20:57:36:671037,1,-1,1,-3,2,1,-1,-1
20:57:36:671828,-2,0,-1,3,-3,-2,-3,-1
20:57:36:678589,-2,0,-1,3,-3,-2,-3,-1
20:57:36:679402,-2,-3,-4,-1,-2,-2,-2,-1
20:57:36:693560,0,-2,3,-2,0,0,-2,-1
20:57:36:694393,0,-2,3,-2,0,0,-2,-1
20:57:36:700363,-1,3,-6,-1,-3,-4,-5,-1
20:57:36:707862,1,0,-3,-5,0,1,4,2
20:57:36:715443,1,0,-3,-5,0,1,4,2
20:57:36:722916,-1,-3,-1,-1,0,1,0,-3
20:57:36:730400,5,1,-2,-3,-4,-4,-4,-2
20:57:36:738620,5,1,-2,-3,-4,-4,-4,-2
20:57:36:739398,-14,-3,11,0,-3,-2,-5,-2
20:57:36:754131,-1,0,-8,-4,-3,1,1,0
20:57:36:754875,-1,0,-8,-4,-3,1,1,0
20:57:36:760416,-15,-11,3,0,-1,-2,1,-1
20:57:36:767877,4,1,-2,3,3,1,4,2
20:57:36:775471,4,1,-2,3,3,1,4,2
20:57:36:782912,5,5,1,3,7,0,-2,0
20:57:36:790400,-3,2,-6,1,0,1,-5,-3
20:57:36:798555,-3,2,-6,1,0,1,-5,-3
20:57:36:799352,-4,-5,-5,-5,-3,-2,2,-2
20:57:36:813637,1,-3,-4,-1,-2,-5,-4,-1
20:57:36:814401,1,-3,-4,-1,-2,-5,-4,-1
20:57:36:820377,4,2,-4,-1,-2,-1,2,0
20:57:36:827899,1,1,5,0,-2,-1,3,-2
20:57:36:835413,1,1,5,0,-2,-1,3,-2
20:57:36:842940,-1,-2,-4,-2,-2,-2,1,1
20:57:36:850400,6,4,4,1,0,-4,-12,1
20:57:36:866142,6,4,4,1,0,-4,-12,1
20:57:36:866913,-18,-7,-3,-3,-3,-3,-8,-5
20:57:36:873551,0,-4,-6,-3,2,-1,-3,-1
20:57:36:874346,0,-4,-6,-3,2,-1,-3,-1
20:57:36:880449,8,2,-5,-3,-4,-3,0,0
20:57:36:887880,-1,-2,3,-1,-4,-2,0,-2
20:57:36:895406,-1,-2,3,-1,-4,-2,0,-2
20:57:36:902904,2,0,4,1,0,-2,3,0
20:57:36:910409,-5,-2,5,-3,2,1,2,-4
20:57:36:918603,-5,-2,5,-3,2,1,2,-4
20:57:36:919372,5,3,-6,1,4,8,6,1
20:57:36:933601,-5,-4,-6,-6,-5,-5,-9,-2
20:57:36:934380,-5,-4,-6,-6,-5,-5,-9,-2
20:57:36:940355,1,-4,-12,0,-3,9,47,1
20:57:36:956053,-1,-1,-1,1,-1,0,6,3
20:57:36:956876,-1,-1,-1,1,-1,0,6,3
20:57:36:962938,7,1,-3,-3,0,-5,-13,-2
20:57:36:978804,-4,-4,1,5,-3,-2,-6,-2
20:57:36:979427,-4,-4,1,5,-3,-2,-6,-2
20:57:36:985412,-4,1,5,1,-2,-3,-10,-4
20:57:36:993572,-6,-7,-37,-9,-1,-5,-22,-6
20:57:36:994376,-6,-7,-37,-9,-1,-5,-22,-6
20:57:37:406,-3,0,15,4,-3,-1,-9,0
20:57:37:16123,2,1,10,4,3,0,9,0
20:57:37:16933,2,1,10,4,3,0,9,0
20:57:37:22913,1,-3,-35,-23,-10,-10,-13,-1
20:57:37:30429,3,6,32,28,9,6,13,1
20:57:37:37915,3,6,32,28,9,6,13,1
20:57:37:45436,-9,-4,12,12,2,4,-8,-6
20:57:37:53607,-1,-2,-11,-16,-5,-2,0,-1
20:57:37:54378,-1,-2,-11,-16,-5,-2,0,-1
20:57:37:60363,4,1,0,0,-3,-4,4,1
20:57:37:76152,0,1,12,3,0,4,-4,-4
20:57:37:76883,0,1,12,3,0,4,-4,-4
20:57:37:91077,-9,-5,-11,-12,-3,1,35,11
20:57:37:91853,-11,0,20,2,-2,-3,-2,-12
20:57:37:106139,-11,0,20,2,-2,-3,-2,-12
20:57:37:106909,0,-1,7,1,0,-5,-16,-5
20:57:37:113594,3,-5,-3,-6,-3,-5,-8,9
20:57:37:114410,3,-5,-3,-6,-3,-5,-8,9
20:57:37:120398,11,1,22,7,3,2,-12,18
20:57:37:136125,0,2,-19,-11,-5,-2,-3,-2
20:57:37:136885,0,2,-19,-11,-5,-2,-3,-2
20:57:37:142859,-4,-2,-4,4,0,-3,1,-7
20:57:37:150392,-1,-2,0,-2,1,6,15,-6
20:57:37:157943,-1,-2,0,-2,1,6,15,-6
20:57:37:165390,9,6,5,-2,3,-6,-33,6
20:57:37:173535,-6,-6,-3,2,0,-1,29,3
20:57:37:174353,-6,-6,-3,2,0,-1,29,3
20:57:37:187856,-8,0,6,2,2,19,87,-44
20:57:37:204234,14,2,-8,-8,-6,-3,-3,6
20:57:37:205113,14,2,-8,-8,-6,-3,-3,6
20:57:37:205876,14,-2,-11,-3,-1,-6,-25,38
20:57:37:210356,-1,-2,-17,-2,1,0,9,0
20:57:37:217929,-1,-2,-17,-2,1,0,9,0
20:57:37:225398,-11,3,0,9,0,3,-13,-32
20:57:37:233579,13,1,5,3,0,-5,-32,8
20:57:37:234403,13,1,5,3,0,-5,-32,8
20:57:37:240384,-2,5,1,5,2,1,-13,0
20:57:37:256128,-10,-3,-4,3,-3,-2,-25,-14
20:57:37:256905,-10,-3,-4,3,-3,-2,-25,-14
20:57:37:262901,5,-3,-16,-5,-1,2,3,1
20:57:37:270391,2,0,3,-4,-2,3,5,-3
20:57:37:277970,2,0,3,-4,-2,3,5,-3
20:57:37:285390,6,-1,10,-5,-1,-13,-44,-5
20:57:37:293578,-12,-2,2,-1,1,-1,0,12
20:57:37:294350,-12,-2,2,-1,1,-1,0,12
20:57:37:300396,-5,-8,-6,-4,-3,0,3,-10
20:57:37:316126,5,-3,2,1,-3,-3,1,-4
20:57:37:316913,5,-3,2,1,-3,-3,1,-4
20:57:37:322908,-7,-4,-8,-4,1,0,11,6
20:57:37:330395,-7,-10,-3,-5,-3,1,6,0
20:57:37:337943,-7,-10,-3,-5,-3,1,6,0
20:57:37:345419,-5,-2,19,8,1,-3,-7,1
20:57:37:353592,-3,2,-8,0,3,-1,5,-7
20:57:37:354381,-3,2,-8,0,3,-1,5,-7
20:57:37:360355,2,5,-7,-13,-2,-2,4,2
20:57:37:376081,-1,2,8,2,-1,-2,12,0
20:57:37:376856,-1,2,8,2,-1,-2,12,0
20:57:37:382902,-4,0,4,-6,-4,3,25,5
20:57:37:390375,-6,-5,-9,-3,-1,-1,-7,-6
20:57:37:397928,-6,-5,-9,-3,-1,-1,-7,-6
20:57:37:405354,-1,1,0,-2,-3,-4,-12,-3
20:57:37:413567,-6,1,4,0,-3,-2,-6,-3
20:57:37:414400,-6,1,4,0,-3,-2,-6,-3
20:57:37:420348,0,0,-7,-2,-1,-5,-9,1
20:57:37:436117,2,3,2,0,2,1,3,0
20:57:37:436877,2,3,2,0,2,1,3,0
20:57:37:442887,3,1,-7,-1,-2,-3,-4,0
20:57:37:450352,-6,-4,8,36,5,-2,1,-3
20:57:37:457990,-6,-4,8,36,5,-2,1,-3
20:57:37:465409,-2,-1,-4,-15,-6,-4,-6,-1
20:57:37:473630,2,3,0,-6,1,4,-2,3
20:57:37:474412,2,3,0,-6,1,4,-2,3
20:57:37:480384,-3,-3,0,6,4,0,-4,0
20:57:37:496137,0,0,-3,4,-8,-7,-2,-1
20:57:37:496901,0,0,-3,4,-8,-7,-2,-1
20:57:37:502873,-1,-1,-4,-9,3,1,2,0
20:57:37:510376,2,-1,0,-5,-4,-3,1,-1
20:57:37:517943,2,-1,0,-5,-4,-3,1,-1
20:57:37:525404,-3,-3,0,8,0,0,-2,0
20:57:37:533589,-3,0,-1,-9,-3,-5,-7,-1
20:57:37:534411,-3,0,-1,-9,-3,-5,-7,-1
20:57:37:540381,-2,-4,-3,2,-4,1,0,-1
20:57:37:556162,7,3,-1,-11,3,2,2,0
20:57:37:556962,7,3,-1,-11,3,2,2,0
20:57:37:562905,-11,-6,-5,3,0,-1,0,-3
20:57:37:570361,6,-6,-4,-12,-5,-2,-1,2
20:57:37:577960,6,-6,-4,-12,-5,-2,-1,2
20:57:37:585410,6,5,3,2,-1,-1,-1,1
20:57:37:593623,-5,-5,2,-8,-5,-2,1,-4
20:57:37:594350,-5,-5,2,-8,-5,-2,1,-4
20:57:37:600406,1,-2,-2,-4,2,1,0,1
20:57:37:616062,-3,2,-2,0,-2,2,9,-1
20:57:37:616857,-3,2,-2,0,-2,2,9,-1
20:57:37:622892,-2,-1,0,-1,1,3,14,0
20:57:37:630405,-2,-1,-8,-1,-3,-2,1,0
20:57:37:637928,-2,-1,-8,-1,-3,-2,1,0
20:57:37:645412,-1,0,-1,1,-3,-4,-7,-2
20:57:37:653565,-3,0,-7,11,10,2,-2,-1
20:57:37:654381,-3,0,-7,11,10,2,-2,-1
20:57:37:667892,-5,-1,-5,-22,-8,-5,-2,0
20:57:37:676119,7,2,-1,-9,-1,1,-3,-1
20:57:37:676863,7,2,-1,-9,-1,1,-3,-1
20:57:37:682839,-6,-10,4,9,-2,-2,-3,-1
20:57:37:690529,4,-9,26,6,1,0,-1,1
20:57:37:697931,4,-9,26,6,1,0,-1,1
20:57:37:714228,-5,-6,9,0,-1,2,0,0
20:57:37:715017,-9,-33,-18,1,-3,-2,-8,-3
20:57:37:715867,-9,-33,-18,1,-3,-2,-8,-3
20:57:37:720370,-2,3,-11,-5,-4,-2,-3,-1
20:57:37:736081,3,7,2,-4,3,2,0,-1
20:57:37:736883,3,7,2,-4,3,2,0,-1
20:57:37:742927,1,2,3,1,0,-1,-3,-3
20:57:37:750397,-3,6,10,-36,-1,-2,-5,-2
20:57:37:757939,-3,6,10,-36,-1,-2,-5,-2
20:57:37:765367,-5,-6,23,6,1,1,19,-1
20:57:37:773592,-15,17,9,13,-1,-6,-7,-6
20:57:37:774386,-15,17,9,13,-1,-6,-7,-6
20:57:37:780390,16,-10,-17,-3,-1,-4,2,7
20:57:37:796162,-6,5,0,13,-1,-1,2,-1
20:57:37:796889,-6,5,0,13,-1,-1,2,-1
20:57:37:802857,-20,-7,11,1,-1,-2,-2,-7
20:57:37:810367,-13,8,-18,-8,-7,-4,-3,-4
20:57:37:817962,-13,8,-18,-8,-7,-4,-3,-4
20:57:37:825364,2,-4,1,4,0,4,6,-11
20:57:37:833610,2,1,-8,1,2,-2,-10,-2
20:57:37:834438,2,1,-8,1,2,-2,-10,-2
20:57:37:840417,8,-1,-32,0,0,-3,-9,-2
20:57:37:856121,1,0,-23,3,3,2,0,1
20:57:37:856904,1,0,-23,3,3,2,0,1
20:57:37:862884,15,6,15,4,1,-3,-8,-2
20:57:37:870393,7,-9,-18,0,0,1,0,4
20:57:37:877956,7,-9,-18,0,0,1,0,4
20:57:37:894280,7,-1,-6,-8,-6,-6,-2,0
20:57:37:895130,7,2,35,16,1,2,3,3
20:57:37:895819,7,2,35,16,1,2,3,3
20:57:37:907942,-7,-2,-12,-18,-5,0,-2,1
20:57:37:916118,-7,-2,-12,-18,-5,0,-2,1
20:57:37:916886,-9,12,11,-23,-6,-2,0,-9
20:57:37:922871,0,12,4,6,3,1,-1,4
20:57:37:938788,0,12,4,6,3,1,-1,4
20:57:37:939390,6,-9,-2,-7,-4,0,6,1
20:57:37:945344,0,-5,-5,9,5,3,-3,0
20:57:37:953590,0,-5,-5,9,5,3,-3,0
20:57:37:954375,-6,-11,17,16,2,-3,0,0
20:57:37:967937,2,19,4,13,-1,-7,-8,-3
20:57:37:976151,2,19,4,13,-1,-7,-8,-3
20:57:37:976897,-10,-18,-59,-19,-6,-2,0,-2
20:57:37:982879,-4,-3,34,1,-1,-1,1,16
20:57:37:998613,-4,-3,34,1,-1,-1,1,16
20:57:37:999357,-4,5,9,-10,-4,-1,0,-3
20:57:38:5397,7,7,-8,-5,2,3,4,-4
20:57:38:13569,7,7,-8,-5,2,3,4,-4
20:57:38:14382,5,-9,-23,-10,-3,-2,-2,-3
20:57:38:27900,-6,0,5,0,-2,-1,-7,-3
20:57:38:36118,-6,0,5,0,-2,-1,-7,-3
20:57:38:36883,2,-8,-12,7,-1,-4,-1,-3
20:57:38:42899,-8,6,14,4,-1,-4,0,-3
20:57:38:58575,-8,6,14,4,-1,-4,0,-3
20:57:38:59381,4,2,22,19,5,-4,-4,1
20:57:38:65423,-12,-3,10,-33,-7,-1,-5,-6
20:57:38:73580,-12,-3,10,-33,-7,-1,-5,-6
20:57:38:74392,-5,-4,-30,-17,-8,-10,-24,-7
20:57:38:87908,2,-7,-14,2,2,-2,-4,0
20:57:38:96112,2,-7,-14,2,2,-2,-4,0
20:57:38:96865,-4,12,-19,1,1,1,1,0
20:57:38:102900,-1,-11,-22,5,-5,-2,0,-5
20:57:38:118631,-1,-11,-22,5,-5,-2,0,-5
20:57:38:119411,10,0,16,0,-3,-2,-1,-2
20:57:38:125409,-4,-2,2,6,1,-1,-5,-3
20:57:38:133571,-4,-2,2,6,1,-1,-5,-3
20:57:38:134367,-7,19,-10,-5,4,3,7,3
20:57:38:147900,4,8,11,7,-4,-1,1,3
20:57:38:156072,4,8,11,7,-4,-1,1,3
20:57:38:156886,4,-7,33,15,3,1,4,1
20:57:38:162914,-8,-10,-38,-22,-1,-1,-1,-3
20:57:38:178640,-8,-10,-38,-22,-1,-1,-1,-3
20:57:38:179429,-8,6,29,3,-1,0,-1,-9
20:57:38:185390,-4,-7,7,1,3,1,11,-1
20:57:38:193604,-4,-7,7,1,3,1,11,-1
20:57:38:194356,-5,4,10,-1,1,-2,-6,0
20:57:38:207921,1,-3,-2,2,-2,-3,-11,-5
20:57:38:216172,1,-3,-2,2,-2,-3,-11,-5
20:57:38:216921,13,1,16,-12,-3,-1,3,3
20:57:38:222911,10,3,-1,-13,-3,0,-1,0
20:57:38:238614,10,3,-1,-13,-3,0,-1,0
20:57:38:239412,-6,-29,-34,3,2,2,-3,2
20:57:38:245367,3,-12,-5,6,4,1,3,3
20:57:38:253647,3,-12,-5,6,4,1,3,3
20:57:38:254410,6,1,1,9,0,0,-1,1
20:57:38:267899,-5,18,5,7,1,2,9,1
20:57:38:276134,-5,18,5,7,1,2,9,1
20:57:38:276912,4,8,11,-4,-3,-3,0,-13
20:57:38:282867,3,13,-11,-31,-2,-3,-3,-3
20:57:38:298653,3,13,-11,-31,-2,-3,-3,-3
20:57:38:299385,10,-1,4,3,-5,0,3,0
20:57:38:305393,1,-2,-1,19,3,2,-5,-1
20:57:38:313611,1,-2,-1,19,3,2,-5,-1
20:57:38:314412,-8,-10,-11,-4,-1,-1,-3,-2
20:57:38:327858,-1,-6,-9,-2,-2,-3,3,2
20:57:38:336116,-1,-6,-9,-2,-2,-3,3,2
20:57:38:336904,1,-3,-2,11,-3,0,1,2
20:57:38:342950,-7,-1,-13,-3,1,0,-4,-1
20:57:38:358618,-7,-1,-13,-3,1,0,-4,-1
20:57:38:359405,-8,-4,19,4,7,5,3,2
20:57:38:365413,-4,-5,-7,4,-4,-3,-2,-2
20:57:38:373638,-4,-5,-7,4,-4,-3,-2,-2
20:57:38:374390,4,-8,-7,-5,-5,-3,1,3
20:57:38:387861,18,-3,21,-2,13,8,2,5
20:57:38:396134,18,-3,21,-2,13,8,2,5
20:57:38:396903,2,3,2,-11,4,-1,2,1
20:57:38:402877,-4,6,-17,11,-7,-5,-3,-2
20:57:38:418605,-4,6,-17,11,-7,-5,-3,-2
20:57:38:419381,-7,1,5,-11,-1,2,9,-1
20:57:38:425390,-2,1,8,1,-3,-2,1,6
20:57:38:433620,-2,1,8,1,-3,-2,1,6
20:57:38:434381,-8,-9,1,-7,-5,-3,-6,2
20:57:38:447902,-10,-3,5,1,-1,-3,-5,-5
20:57:38:456178,-10,-3,5,1,-1,-3,-5,-5
20:57:38:456893,19,-2,-12,-8,-1,-4,0,-2
20:57:38:462842,-7,-8,-12,-4,-3,2,3,-5
20:57:38:478599,-7,-8,-12,-4,-3,2,3,-5
20:57:38:479367,-12,3,-46,-5,-4,-5,-2,-4
20:57:38:485364,-6,5,9,4,0,0,1,2
20:57:38:493579,-6,5,9,4,0,0,1,2
20:57:38:494379,1,4,13,13,0,1,-2,2
20:57:38:507901,7,2,4,-10,-5,-5,-4,-5
20:57:38:516192,7,2,4,-10,-5,-5,-4,-5
20:57:38:516874,-22,7,1,-2,1,3,-4,-2
20:57:38:522845,-17,-1,7,-1,-1,1,0,9
20:57:38:538572,-17,-1,7,-1,-1,1,0,9
20:57:38:539375,3,-2,1,-6,-3,-2,-1,0
20:57:38:545441,6,0,9,13,-2,-1,-4,-10
20:57:38:553562,6,0,9,13,-2,-1,-4,-10
20:57:38:554382,-10,-7,-23,17,-4,-1,-1,2
20:57:38:567900,16,-4,-1,10,5,-1,-1,-2
20:57:38:576128,16,-4,-1,10,5,-1,-1,-2
20:57:38:576908,6,9,1,0,2,-2,-6,-6
20:57:38:582927,0,-22,2,-12,-6,-6,-1,-6
20:57:38:598664,0,-22,2,-12,-6,-6,-1,-6
20:57:38:599418,-5,-4,25,5,1,3,-4,5
20:57:38:605402,-1,4,4,-7,0,3,10,20
20:57:38:613600,-1,4,4,-7,0,3,10,20
20:57:38:614362,-2,2,20,-10,-2,-2,-1,-1
20:57:38:627904,-4,0,9,13,-1,-1,-3,-7
20:57:38:636058,-4,0,9,13,-1,-1,-3,-7
20:57:38:636870,2,-5,-18,-8,-1,-1,-1,-2
20:57:38:642908,5,4,2,8,-1,-4,-2,-4
20:57:38:658629,5,4,2,8,-1,-4,-2,-4
20:57:38:659411,16,-1,32,-9,2,3,10,7
20:57:38:665371,-9,-17,-40,-17,-7,-4,-6,-7
20:57:38:673608,-9,-17,-40,-17,-7,-4,-6,-7
20:57:38:674364,-2,-22,-10,11,-4,-3,4,-6
20:57:38:687906,2,6,12,-4,2,0,-8,-20
20:57:38:696123,2,6,12,-4,2,0,-8,-20
20:57:38:696895,1,-2,-20,2,0,-3,0,-4
20:57:38:702864,-7,-1,-7,-4,-7,-4,-7,0
20:57:38:718649,-7,-1,-7,-4,-7,-4,-7,0
20:57:38:719411,-15,11,18,-5,2,2,-3,-1
20:57:38:725380,5,-3,11,5,-3,5,49,-3
20:57:38:733662,5,-3,11,5,-3,5,49,-3
20:57:38:734410,-3,6,-2,-1,-1,-1,-8,-5
20:57:38:747943,0,-9,-18,-15,1,-1,-12,-8
20:57:38:756134,0,-9,-18,-15,1,-1,-12,-8
20:57:38:756908,6,4,9,-6,-3,1,9,-1
20:57:38:762900,-8,7,-24,-1,3,-2,-11,-5
20:57:38:778608,-8,7,-24,-1,3,-2,-11,-5
20:57:38:779407,2,4,9,-16,-2,0,-9,1
20:57:38:785382,7,2,-13,-9,-8,-3,2,10
20:57:38:793615,7,2,-13,-9,-8,-3,2,10
20:57:38:794421,-9,-11,-13,-18,-6,-6,-5,-2
20:57:38:807855,-8,-1,17,-35,-2,-2,-4,3
20:57:38:816147,-8,-1,17,-35,-2,-2,-4,3
20:57:38:816916,0,-1,-7,6,-4,-1,6,-13
20:57:38:822870,-8,2,-3,8,2,6,1,-8
20:57:38:838582,-8,2,-3,8,2,6,1,-8
20:57:38:839392,-13,3,1,3,1,0,-4,-1
20:57:38:845391,-4,12,8,7,1,-4,-34,-7
20:57:38:852924,-4,12,8,7,1,-4,-34,-7
20:57:38:860370,-5,14,-4,9,0,6,9,7
20:57:38:867894,6,-7,2,4,1,-3,-1,5
20:57:38:876175,6,-7,2,4,1,-3,-1,5
20:57:38:876904,9,-1,8,-22,-3,-8,-9,3
20:57:38:890405,-3,7,13,7,0,-1,9,-5
20:57:38:898599,-3,7,13,7,0,-1,9,-5
20:57:38:899393,2,4,-52,-2,-3,0,4,2
20:57:38:905403,-4,-4,6,4,6,2,-1,-5
20:57:38:912955,-4,-4,6,4,6,2,-1,-5
20:57:38:920408,6,4,-2,2,-1,0,4,21
20:57:38:927887,-2,-3,-21,-12,-9,-8,-18,2
20:57:38:936073,-2,-3,-21,-12,-9,-8,-18,2
20:57:38:936862,-2,3,-8,3,-2,3,17,-19
20:57:38:950393,3,-9,-2,7,-3,-4,-21,91
20:57:38:958616,3,-9,-2,7,-3,-4,-21,91
20:57:38:959413,-1,-1,5,-2,-3,-5,-11,-17
20:57:38:965365,-19,-16,-25,-8,-1,-2,-9,-42
20:57:38:972897,-19,-16,-25,-8,-1,-2,-9,-42
20:57:38:980421,7,12,30,14,5,2,3,12
20:57:38:987902,13,7,12,4,1,0,6,-5
20:57:38:996156,13,7,12,4,1,0,6,-5
20:57:38:996864,-2,-7,10,6,3,2,19,-1
20:57:39:10397,4,-3,-12,-8,-3,2,5,-1
20:57:39:18578,4,-3,-12,-8,-3,2,5,-1
20:57:39:19361,-5,-27,-11,-7,-3,-3,-7,-13
20:57:39:25396,-2,-6,-8,3,0,0,18,15
20:57:39:32931,-2,-6,-8,3,0,0,18,15
20:57:39:40344,-2,-11,-7,-3,-5,-7,-20,3
20:57:39:47860,0,-3,5,4,-3,-2,-12,-13
20:57:39:56135,0,-3,5,4,-3,-2,-12,-13
20:57:39:56873,2,5,4,1,4,4,10,6
20:57:39:70425,5,7,5,2,-3,1,29,-12
20:57:39:78593,5,7,5,2,-3,1,29,-12
20:57:39:79379,2,-11,-4,-4,-4,-4,-8,-8
20:57:39:85340,-3,11,17,4,-2,-7,-13,-20
20:57:39:92965,-3,11,17,4,-2,-7,-13,-20
20:57:39:100376,-2,-7,-7,2,-1,0,0,-8
20:57:39:107907,-2,-6,-5,-1,-1,0,-1,5
20:57:39:116168,-2,-6,-5,-1,-1,0,-1,5
20:57:39:116902,0,22,4,4,4,-2,-13,5
20:57:39:130366,-3,-6,-1,-2,-3,0,6,19
20:57:39:138587,-3,-6,-1,-2,-3,0,6,19
20:57:39:139392,1,0,8,1,-5,-8,-15,2
20:57:39:145340,-14,6,-15,-9,0,-2,-17,-12
20:57:39:152929,-14,6,-15,-9,0,-2,-17,-12
20:57:39:160380,-8,-5,-5,1,-3,-1,-12,-4
20:57:39:167878,0,-7,-3,1,3,4,34,5
20:57:39:176132,0,-7,-3,1,3,4,34,5
20:57:39:176900,-6,-6,-21,-7,-1,3,15,0
20:57:39:190391,0,-3,14,7,0,-1,-9,2
20:57:39:198617,0,-3,14,7,0,-1,-9,2
20:57:39:199391,-4,-4,-5,5,4,-1,-3,-3
20:57:39:205428,6,-3,-4,1,-3,2,21,24
20:57:39:212995,6,-3,-4,1,-3,2,21,24
20:57:39:220398,5,-2,-6,-6,-2,1,-10,2
20:57:39:227912,3,1,0,-4,2,-1,-13,-4
20:57:39:236045,3,1,0,-4,2,-1,-13,-4
20:57:39:236881,-2,-3,11,1,-2,-2,6,-6
20:57:39:250654,-3,1,-13,1,1,3,-3,-4
20:57:39:258623,-3,1,-13,1,1,3,-3,-4
20:57:39:259417,0,15,-8,-3,3,-3,-3,19
20:57:39:265391,-3,-11,-1,3,-2,-3,-5,-14
20:57:39:272945,-3,-11,-1,3,-2,-3,-5,-14
20:57:39:280414,-5,-20,-3,-3,-5,-2,3,-7
20:57:39:287900,0,-16,9,3,1,-3,-5,-8
20:57:39:296180,0,-16,9,3,1,-3,-5,-8
20:57:39:296871,3,-8,-8,-3,0,4,17,-9
20:57:39:310384,6,4,0,-2,-3,-4,-14,-17
20:57:39:318581,6,4,0,-2,-3,-4,-14,-17
20:57:39:319573,6,11,8,7,2,-3,-8,-3
20:57:39:325403,-18,-7,-9,-5,-3,-3,-2,-6
20:57:39:332930,-18,-7,-9,-5,-3,-3,-2,-6
20:57:39:340355,8,10,-6,-1,3,0,-7,2
20:57:39:347851,-2,1,16,-14,-5,-4,-7,-8
20:57:39:356139,-2,1,16,-14,-5,-4,-7,-8
20:57:39:356874,0,-7,11,0,-1,-2,2,4
20:57:39:370883,-6,-8,-5,9,5,3,4,-2
20:57:39:378596,-6,-8,-5,9,5,3,4,-2
20:57:39:379377,1,-6,10,1,-6,-3,-3,-4
20:57:39:385380,13,5,-2,-2,-4,-1,6,-1
20:57:39:401179,13,5,-2,-2,-4,-1,6,-1
20:57:39:401892,-5,-14,-1,-3,-3,1,5,1
20:57:39:407857,2,1,-9,-7,0,0,6,-6
20:57:39:416135,2,1,-9,-7,0,0,6,-6
20:57:39:416867,-4,-10,12,-5,-2,-8,-3,15
20:57:39:439206,-13,2,10,0,1,0,-24,-21
20:57:39:440020,-13,2,10,0,1,0,-24,-21
20:57:39:440810,-7,6,2,-3,-2,3,-5,-11
20:57:39:445371,-7,8,-11,-6,-7,-9,-9,2
20:57:39:452902,-7,8,-11,-6,-7,-9,-9,2
20:57:39:460391,-1,-2,-14,2,1,2,13,14
20:57:39:467843,-1,-2,-6,-4,-3,-3,-6,-17
20:57:39:483570,-1,-2,-6,-4,-3,-3,-6,-17
20:57:39:484365,-9,4,-2,3,2,-1,2,-20
20:57:39:490405,-5,-2,10,5,-4,-3,3,-3
20:57:39:498603,-5,-2,10,5,-4,-3,3,-3
20:57:39:499359,-3,-2,-1,-6,-1,2,-1,-2
20:57:39:513545,2,-4,4,2,6,0,-3,6
20:57:39:514373,2,-4,4,2,6,0,-3,6
20:57:39:520402,-5,-3,-12,-2,-4,-7,-12,-5
20:57:39:527881,1,13,-3,4,2,5,21,16
20:57:39:536132,1,13,-3,4,2,5,21,16
20:57:39:536822,-7,-6,-11,-3,-2,-3,-8,-7
20:57:39:550385,2,7,-4,4,0,1,-7,5
20:57:39:558586,2,7,-4,4,0,1,-7,5
20:57:39:559371,-3,-1,14,-3,-4,-1,1,2
20:57:39:573547,5,-1,13,1,2,1,4,7
20:57:39:574377,5,-1,13,1,2,1,4,7
20:57:39:580377,-1,7,-1,-2,1,2,6,15
20:57:39:596759,-1,11,-10,-1,1,2,27,11
20:57:39:597579,-1,11,-10,-1,1,2,27,11
20:57:39:598374,0,-17,-27,-4,-5,-4,-6,12
20:57:39:610373,-1,-3,4,4,-1,-1,-9,-7
20:57:39:626779,-1,-3,4,4,-1,-1,-9,-7
20:57:39:627537,2,1,16,4,4,1,2,-6
20:57:39:628344,11,-12,-18,-21,-8,1,27,4
20:57:39:632923,11,-12,-18,-21,-8,1,27,4
20:57:39:640347,5,9,-14,10,-1,-1,-9,-8
20:57:39:647867,-3,-8,-9,-6,-3,-4,-10,-5
20:57:39:656151,-3,-8,-9,-6,-3,-4,-10,-5
20:57:39:656920,-11,-1,-3,-10,-3,-3,-8,-5
20:57:39:679233,-1,52,16,9,2,4,1,-3
20:57:39:680025,-1,52,16,9,2,4,1,-3
20:57:39:680844,6,-5,-4,0,1,0,-1,-4
20:57:39:685407,-1,-16,7,4,-4,-3,-9,-4
20:57:39:701094,-1,-16,7,4,-4,-3,-9,-4
20:57:39:701866,-3,-3,8,21,1,1,3,-2
20:57:39:707902,-14,3,-4,-13,0,-1,-7,-10
20:57:39:716131,-14,3,-4,-13,0,-1,-7,-10
20:57:39:716806,-35,-5,-13,-6,-2,-3,-2,-6
20:57:39:730391,4,31,7,11,-1,-2,-6,0
20:57:39:738567,4,31,7,11,-1,-2,-6,0
20:57:39:739377,16,-17,33,-5,0,-3,5,2
20:57:39:745439,7,0,7,5,2,0,-2,7
20:57:39:752901,7,0,7,5,2,0,-2,7
20:57:39:760353,8,-17,-27,-44,4,0,-5,-47
20:57:39:767871,-20,-3,-8,-3,-1,-1,-3,-8
20:57:39:776145,-20,-3,-8,-3,-1,-1,-3,-8
20:57:39:776873,-6,5,-5,3,-9,-7,-2,0
20:57:39:790419,-69,-30,-34,-4,-1,-4,-4,-7
20:57:39:798592,-69,-30,-34,-4,-1,-4,-4,-7
20:57:39:799380,4,43,38,22,0,1,-3,27
20:57:39:821820,36,11,36,5,0,-1,-1,5
20:57:39:822581,36,11,36,5,0,-1,-1,5
20:57:39:823379,5,-2,-49,-18,3,0,-2,5
20:57:39:827875,15,-27,-26,-16,-6,-4,-6,11
20:57:39:835447,15,-27,-26,-16,-6,-4,-6,11
20:57:39:842924,13,17,27,4,5,3,4,-9
20:57:39:850408,-10,-23,-32,-18,-1,-1,1,-6
20:57:39:858601,-10,-23,-32,-18,-1,-1,1,-6
20:57:39:859386,-17,42,5,5,-6,-3,-2,13
20:57:39:873563,1,-40,4,12,-2,-2,-5,-8
20:57:39:874374,1,-40,4,12,-2,-2,-5,-8
20:57:39:880395,8,-15,-11,-9,3,2,2,11
20:57:39:887906,22,23,-8,-1,-4,-5,-9,-21
20:57:39:895453,22,23,-8,-1,-4,-5,-9,-21
20:57:39:902887,-3,16,8,-2,0,0,5,-27
20:57:39:910466,28,22,7,7,3,2,37,58
20:57:39:918606,28,22,7,7,3,2,37,58
20:57:39:919374,-24,-38,-2,-4,-5,-4,-4,20
20:57:39:934050,-4,7,14,-2,-1,-1,-14,-21
20:57:39:934869,-4,7,14,-2,-1,-1,-14,-21
20:57:39:940360,30,-25,-12,10,-3,-1,1,-6
20:57:39:947878,-23,-15,-16,-8,5,-1,-9,-4
20:57:39:955440,-23,-15,-16,-8,5,-1,-9,-4
20:57:39:962865,3,1,-8,12,1,-4,-5,-4
20:57:39:970359,11,10,-16,-4,-4,1,4,5
20:57:39:978652,11,10,-16,-4,-4,1,4,5
20:57:39:979386,-22,-5,12,24,-4,-6,-5,-15
20:57:39:993630,-5,80,42,-5,1,4,-2,-3
20:57:39:994410,-5,80,42,-5,1,4,-2,-3
20:57:40:369,-9,-40,-30,-19,-6,-3,-4,-12
20:57:40:16069,5,-20,8,6,-2,-1,0,7
20:57:40:16870,5,-20,8,6,-2,-1,0,7
20:57:40:22863,1,10,30,1,-3,-3,10,9
20:57:40:30368,4,-17,-4,-6,-3,-4,-15,-10
20:57:40:38601,4,-17,-4,-6,-3,-4,-15,-10
20:57:40:39408,-2,-2,-20,-5,-1,0,-15,-1
20:57:40:53568,-6,-13,0,-6,2,-1,-1,-2
20:57:40:54410,-6,-13,0,-6,2,-1,-1,-2
20:57:40:60355,-7,15,19,0,4,1,0,-6
20:57:40:67871,5,-5,15,6,-5,-1,0,0
20:57:40:75429,5,-5,15,6,-5,-1,0,0
20:57:40:82848,-40,-8,12,3,-1,-1,-2,18
20:57:40:90382,13,-11,-1,-2,0,-3,-1,-1
20:57:40:98659,13,-11,-1,-2,0,-3,-1,-1
20:57:40:99411,14,11,-11,-2,-3,2,2,16
20:57:40:113600,-12,-22,2,-2,-1,-4,20,-7
20:57:40:114394,-12,-22,2,-2,-1,-4,20,-7
20:57:40:120354,14,6,-1,-3,1,-1,1,13
20:57:40:127851,-17,-3,-15,3,0,-3,-14,-3
20:57:40:135460,-17,-3,-15,3,0,-3,-14,-3
20:57:40:142874,1,-11,-21,-6,-5,-3,0,-7
20:57:40:150374,7,-15,4,17,-1,-1,-8,-4
20:57:40:158608,7,-15,4,17,-1,-1,-8,-4
20:57:40:159423,6,0,-1,-17,-5,2,-2,-2
20:57:40:173632,-1,-18,6,6,0,3,4,-10
20:57:40:174398,-1,-18,6,6,0,3,4,-10
20:57:40:180393,9,3,-3,-7,-3,-4,-22,-62
20:57:40:187925,-8,-11,18,0,3,4,8,-17
20:57:40:195478,-8,-11,18,0,3,4,8,-17
20:57:40:202871,-5,5,3,-1,3,3,1,11
20:57:40:210401,3,5,3,1,0,7,39,9
20:57:40:218554,3,5,3,1,0,7,39,9
20:57:40:219377,6,8,16,7,4,-1,8,5
20:57:40:233532,-24,-10,-21,-10,-2,-4,-24,-53
20:57:40:234341,-24,-10,-21,-10,-2,-4,-24,-53
20:57:40:240380,1,13,26,9,-1,-3,5,3
20:57:40:247893,-3,3,-4,-8,0,-1,31,-1
20:57:40:255422,-3,3,-4,-8,0,-1,31,-1
20:57:40:262850,5,3,15,5,-1,2,8,33
20:57:40:270459,16,12,-5,-5,-5,-5,-30,13
20:57:40:278579,16,12,-5,-5,-5,-5,-30,13
20:57:40:279387,6,4,1,-1,0,4,-1,4
20:57:40:293564,-16,-22,-7,7,-1,-2,-1,10
20:57:40:294371,-16,-22,-7,7,-1,-2,-1,10
20:57:40:300367,8,-10,-5,7,1,-10,-27,-15
20:57:40:307835,3,-20,-13,-14,0,1,39,51
20:57:40:315484,3,-20,-13,-14,0,1,39,51
20:57:40:322926,7,3,-6,-4,-3,-1,10,8
20:57:40:330419,8,25,-1,-1,1,-5,-29,2
20:57:40:338589,8,25,-1,-1,1,-5,-29,2
20:57:40:339394,1,-3,4,-3,3,11,42,14
20:57:40:353985,-12,5,15,9,-2,-3,-29,-33
20:57:40:361131,-12,5,15,9,-2,-3,-29,-33
20:57:40:361892,-18,10,-21,-8,-6,-1,10,-9
20:57:40:367858,1,23,7,1,3,-1,-6,8
20:57:40:375431,1,23,7,1,3,-1,-6,8
20:57:40:382852,-2,4,-13,-4,-1,3,8,-2
20:57:40:390350,-13,1,-20,-2,-1,-6,-7,-13
20:57:40:398607,-13,1,-20,-2,-1,-6,-7,-13
20:57:40:399392,8,-2,12,1,-3,-7,-23,-4
20:57:40:413596,8,-3,-12,-26,-4,1,-15,-1
20:57:40:414414,8,-3,-12,-26,-4,1,-15,-1
20:57:40:420348,-7,-13,-9,4,0,-1,6,-46
20:57:40:427880,-3,-10,-10,0,-3,-6,-23,0
20:57:40:435447,-3,-10,-10,0,-3,-6,-23,0
20:57:40:442909,-17,-5,3,-2,2,2,-5,-30
20:57:40:450390,-1,3,9,6,0,-2,17,10
20:57:40:458569,-1,3,9,6,0,-2,17,10
20:57:40:459343,-1,-23,-26,-8,1,-1,4,-14
20:57:40:474014,0,-13,3,-12,-9,-1,3,-23
20:57:40:474831,0,-13,3,-12,-9,-1,3,-23
20:57:40:480381,3,-8,-19,-11,-2,-5,-11,7
20:57:40:487902,6,-5,0,-10,-3,-3,-13,13
20:57:40:495407,6,-5,0,-10,-3,-3,-13,13
20:57:40:502930,-2,3,6,8,-2,5,38,14
20:57:40:510402,15,-2,-14,1,-2,-2,6,40
20:57:40:518575,15,-2,-14,1,-2,-2,6,40
20:57:40:519366,-13,5,6,3,2,-7,-30,17
20:57:40:533569,-2,1,-2,6,0,2,7,-14
20:57:40:534378,-2,1,-2,6,0,2,7,-14
20:57:40:540439,9,-3,-3,1,-2,-4,-9,7
20:57:40:547885,-2,6,16,2,7,5,9,-7
20:57:40:555442,-2,6,16,2,7,5,9,-7
20:57:40:571060,-10,-4,-24,-12,-4,-6,4,10
20:57:40:571866,1,-16,11,18,-6,-2,-2,5
20:57:40:578567,1,-16,11,18,-6,-2,-2,5
20:57:40:579367,-6,0,-17,-2,3,1,-44,-25
20:57:40:593542,6,-10,-7,0,0,7,13,46
20:57:40:594346,6,-10,-7,0,0,7,13,46
20:57:40:600388,15,7,7,-1,-3,-2,-3,1
20:57:40:607917,-12,0,9,7,-3,0,-3,-34
20:57:40:615406,-12,0,9,7,-3,0,-3,-34
20:57:40:622844,-1,-12,-5,-23,-2,2,4,33
20:57:40:630380,2,5,2,-8,-4,-2,7,-3
20:57:40:638591,2,5,2,-8,-4,-2,7,-3
20:57:40:639372,-5,3,24,-10,0,-1,4,-9
20:57:40:653579,-11,-5,-36,-5,-2,-4,-5,-6
20:57:40:654389,-11,-5,-36,-5,-2,-4,-5,-6
20:57:40:660336,8,28,-5,6,2,0,-8,-6
20:57:40:667866,3,5,5,-9,-3,-2,6,32
20:57:40:675444,3,5,5,-9,-3,-2,6,32
20:57:40:682859,4,-4,19,9,3,0,9,3
20:57:40:690378,-7,13,-8,-4,-3,-6,-25,-25
20:57:40:698589,-7,13,-8,-4,-3,-6,-25,-25
20:57:40:699406,0,-24,4,1,-7,-1,24,6
20:57:40:714222,7,1,17,6,1,-1,7,1
20:57:40:715027,7,1,17,6,1,-1,7,1
20:57:40:720363,-16,6,2,7,1,-1,-3,-61
20:57:40:736080,-4,9,5,1,-1,0,5,-1
20:57:40:736881,-4,9,5,1,-1,0,5,-1
20:57:40:742862,-2,-1,9,-1,-1,-2,5,12
20:57:40:750370,6,29,-14,0,3,4,4,-25
20:57:40:757923,6,29,-14,0,3,4,4,-25
20:57:40:765410,1,9,4,4,-2,-2,-21,-8
20:57:40:773607,-17,-26,-3,5,1,1,0,-5
20:57:40:774409,-17,-26,-3,5,1,1,0,-5
20:57:40:780365,-8,6,3,8,1,-4,-4,9
20:57:40:796078,-2,5,-24,6,1,-1,3,7
20:57:40:796888,-2,5,-24,6,1,-1,3,7
20:57:40:802865,4,-20,3,2,-2,0,3,16
20:57:40:810373,0,-10,-3,-3,-4,-6,-8,-20
20:57:40:817942,0,-10,-3,-3,-4,-6,-8,-20
20:57:40:825385,-4,-3,-9,2,-2,-1,6,7
20:57:40:833622,10,-14,5,-5,0,-2,-8,9
20:57:40:834406,10,-14,5,-5,0,-2,-8,9
20:57:40:840417,0,-12,-5,-2,0,-1,0,4
20:57:40:856147,5,-5,-2,-6,-1,-2,-2,-1
20:57:40:856940,5,-5,-2,-6,-1,-2,-2,-1
20:57:40:862903,1,30,-4,0,-2,0,2,0
20:57:40:870360,2,-5,-37,-4,0,-1,-4,3
20:57:40:877958,2,-5,-37,-4,0,-1,-4,3
20:57:40:885397,1,-13,-13,-17,-3,1,7,6
20:57:40:893572,-8,6,22,1,-3,-1,-1,4
20:57:40:894365,-8,6,22,1,-3,-1,-1,4
20:57:40:900378,8,0,-4,10,0,-3,-14,3
20:57:40:916044,2,-15,-14,-4,0,-5,-4,-3
20:57:40:916857,2,-15,-14,-4,0,-5,-4,-3
20:57:40:922917,-7,-3,20,-7,2,1,8,-13
20:57:40:930390,-2,7,18,10,-1,-3,-16,-13
20:57:40:937948,-2,7,18,10,-1,-3,-16,-13
20:57:40:945390,1,-8,-2,-5,-2,-4,-17,-10
20:57:40:953598,-8,-14,11,-6,1,-2,16,31
20:57:40:954381,-8,-14,11,-6,1,-2,16,31
20:57:40:960366,3,-15,-22,-7,-5,-2,3,2
20:57:40:976044,4,3,16,8,2,0,-1,-15
20:57:40:976881,4,3,16,8,2,0,-1,-15
20:57:40:982838,3,-4,7,10,0,-1,-3,2
20:57:40:990421,2,1,-3,-4,-1,0,7,3
20:57:40:997946,2,1,-3,-4,-1,0,7,3
20:57:41:5369,-12,5,4,-1,-4,1,4,-16
20:57:41:13567,-9,1,2,-1,1,0,-6,0
20:57:41:14445,-9,1,2,-1,1,0,-6,0
20:57:41:20358,1,6,6,6,-1,-2,-1,14
20:57:41:36078,-7,-18,4,8,2,2,-3,-9
20:57:41:36899,-7,-18,4,8,2,2,-3,-9
20:57:41:42903,11,3,11,-26,1,1,-1,-9
20:57:41:50379,1,-11,-19,-7,-2,-1,-6,-1
20:57:41:57942,1,-11,-19,-7,-2,-1,-6,-1
20:57:41:65386,5,4,-4,2,-2,-2,0,-6
20:57:41:73597,2,-3,-3,0,0,-1,-18,-31
20:57:41:74408,2,-3,-3,0,0,-1,-18,-31
20:57:41:80385,-1,4,5,-2,-1,0,5,8
20:57:41:96732,2,14,6,0,-3,-2,0,-7
20:57:41:97525,2,14,6,0,-3,-2,0,-7
20:57:41:111677,-5,-18,-43,8,-2,-2,-5,8
20:57:41:112453,16,12,-12,-17,-2,-1,3,-5
20:57:41:117945,16,12,-12,-17,-2,-1,3,-5
20:57:41:125372,-10,1,-11,9,2,-5,-1,11
20:57:41:133563,1,-3,7,-22,-5,-3,3,3
20:57:41:134400,1,-3,7,-22,-5,-3,3,3
20:57:41:140381,5,2,-6,11,2,1,1,-1
20:57:41:156082,7,41,15,-5,-3,0,-4,36
20:57:41:156889,7,41,15,-5,-3,0,-4,36
20:57:41:162903,3,-7,-2,-8,-2,0,9,1
20:57:41:170371,1,-14,14,14,0,-1,2,4
20:57:41:177951,1,-14,14,14,0,-1,2,4
20:57:41:185373,2,12,2,-3,-5,-1,-11,-3
20:57:41:193612,-8,-15,-8,5,-1,-1,-1,-12
20:57:41:194431,-8,-15,-8,5,-1,-1,-1,-12
20:57:41:200381,-8,25,14,0,4,1,3,1
20:57:41:216077,13,6,29,23,-1,-1,0,-5
20:57:41:216915,13,6,29,23,-1,-1,0,-5
20:57:41:222889,-2,2,9,-1,-6,-5,-3,-3
20:57:41:230406,-6,9,-7,23,2,-2,-1,-25
20:57:41:237982,-6,9,-7,23,2,-2,-1,-25
20:57:41:245418,-4,9,-4,-7,2,4,1,-2
20:57:41:253569,-8,-13,13,-11,-3,-3,10,0
20:57:41:254359,-8,-13,13,-11,-3,-3,10,0
20:57:41:260391,2,-5,-15,4,0,1,7,17
20:57:41:276150,-3,-4,-8,-10,-3,0,1,7
20:57:41:276919,-3,-4,-8,-10,-3,0,1,7
20:57:41:282887,4,45,11,-8,-2,-5,-9,-1
20:57:41:290395,3,-3,-22,-7,-2,-1,-4,-1
20:57:41:297916,3,-3,-22,-7,-2,-1,-4,-1
20:57:41:305397,-4,4,6,2,1,-2,-5,-4
20:57:41:313581,-12,-10,-19,-20,-5,-1,-3,1
20:57:41:314373,-12,-10,-19,-20,-5,-1,-3,1
20:57:41:320330,12,-63,-26,-23,5,0,0,-7
20:57:41:336065,0,-4,-12,-10,1,-2,-1,5
20:57:41:336870,0,-4,-12,-10,1,-2,-1,5
20:57:41:342891,-12,-15,22,11,-1,2,-5,-23
20:57:41:350377,6,-5,11,10,0,-3,-4,-3
20:57:41:357922,6,-5,11,10,0,-3,-4,-3
20:57:41:365339,-20,-8,-26,-6,-4,-2,-3,-7
20:57:41:373600,-14,0,-3,3,0,0,2,15
20:57:41:374379,-14,0,-3,3,0,0,2,15
20:57:41:380355,-4,24,24,3,-3,0,-4,1
20:57:41:396037,-6,-11,2,10,0,-1,2,5
20:57:41:396932,-6,-11,2,10,0,-1,2,5
20:57:41:402843,-7,-18,13,7,-4,-6,-1,-2
20:57:41:410356,-5,4,-16,-37,-4,2,2,-8
20:57:41:417924,-5,4,-16,-37,-4,2,2,-8
20:57:41:425385,-7,8,-5,-25,2,4,2,4
20:57:41:433611,-1,-4,9,9,-2,-1,-4,17
20:57:41:434413,-1,-4,9,9,-2,-1,-4,17
20:57:41:440371,10,-9,-9,12,0,-3,-5,3
20:57:41:456207,7,6,-2,4,5,2,-5,-16
20:57:41:456895,7,6,-2,4,5,2,-5,-16
20:57:41:462883,0,29,-6,9,1,-1,2,1
20:57:41:470362,-19,12,18,14,-3,1,15,4
20:57:41:477985,-19,12,18,14,-3,1,15,4
20:57:41:485396,12,-5,10,-11,-5,0,-4,-6
20:57:41:493593,0,-18,-4,-5,-2,-5,-8,-11
20:57:41:494413,0,-18,-4,-5,-2,-5,-8,-11
20:57:41:500420,-3,7,-5,5,3,2,3,1
20:57:41:516075,-3,-10,-2,3,0,3,2,11
20:57:41:516922,-3,-10,-2,3,0,3,2,11
20:57:41:522862,5,-8,-16,-49,-10,-2,-6,11
20:57:41:530374,-3,-4,-16,17,3,-1,-4,-5
20:57:41:537938,-3,-4,-16,17,3,-1,-4,-5
20:57:41:545416,13,-8,3,12,3,-1,2,-1
20:57:41:553575,-14,6,5,0,-3,-3,-5,-7
20:57:41:554363,-14,6,5,0,-3,-3,-5,-7
20:57:41:560405,-4,-6,9,8,1,-2,-1,10
20:57:41:576175,20,0,-4,3,0,-2,-3,-4
20:57:41:576925,20,0,-4,3,0,-2,-3,-4
20:57:41:582896,3,25,11,4,-2,-2,-16,-36
20:57:41:590422,-3,30,8,-20,-5,-3,2,-5
20:57:41:597902,-3,30,8,-20,-5,-3,2,-5
20:57:41:614200,15,-13,6,9,3,-1,13,-8
20:57:41:615009,9,-15,-16,-2,-3,-4,-7,4
20:57:41:615840,9,-15,-16,-2,-3,-4,-7,4
20:57:41:620427,-19,-2,23,7,-7,-6,-7,4
20:57:41:636157,6,-9,7,-16,0,-2,6,-2
20:57:41:636977,6,-9,7,-16,0,-2,6,-2
20:57:41:642898,-6,-13,-23,-4,-2,-5,10,1
20:57:41:650373,-2,6,-3,-4,0,1,2,1
20:57:41:657903,-2,6,-3,-4,0,1,2,1
20:57:41:665427,-5,-18,6,13,-1,0,6,4
20:57:41:673579,4,-19,-28,-10,-2,-1,-10,-26
20:57:41:674359,4,-19,-28,-10,-2,-1,-10,-26
20:57:41:687927,-2,17,-20,-9,-5,-3,-3,-1
20:57:41:696049,3,-2,3,5,-2,-1,-6,1
20:57:41:696864,3,-2,3,5,-2,-1,-6,1
20:57:41:702913,1,-11,-10,4,0,2,11,11
20:57:41:718627,1,2,3,1,-3,-2,7,3
20:57:41:719455,1,2,3,1,-3,-2,7,3
20:57:41:725403,-19,-7,-12,13,3,-2,-6,2
20:57:41:733606,-19,-7,-12,13,3,-2,-6,2
20:57:41:734366,-5,7,-11,-4,-1,0,-5,2
20:57:41:747916,6,-18,15,21,3,1,-2,-2
20:57:41:756180,6,-18,15,21,3,1,-2,-2
20:57:41:756921,6,15,8,-5,1,0,-8,0
20:57:41:762913,0,7,4,-10,-2,0,9,-1
20:57:41:778603,0,7,4,-10,-2,0,9,-1
20:57:41:779412,-2,26,22,13,1,3,-5,-11
20:57:41:785361,3,0,-5,-8,-2,-5,-13,-1
20:57:41:793582,3,0,-5,-8,-2,-5,-13,-1
20:57:41:794358,-17,-10,-7,-1,0,-1,-2,2
20:57:41:807888,-2,2,-3,-6,1,-1,-2,-1
20:57:41:816143,-2,2,-3,-6,1,-1,-2,-1
20:57:41:816902,2,8,-6,7,-1,-1,4,-4
20:57:41:822879,-4,2,-5,-16,-1,1,0,2
20:57:41:838632,-4,2,-5,-16,-1,1,0,2
20:57:41:839381,3,-27,-28,-10,0,-3,-1,-1
20:57:41:845393,-6,-19,-11,4,3,-1,-2,2
20:57:41:853611,-6,-19,-11,4,3,-1,-2,2
20:57:41:854401,21,1,-10,-14,-3,-4,-1,-14
20:57:41:867872,-6,-16,-4,0,-8,-6,-31,8
20:57:41:876160,-6,-16,-4,0,-8,-6,-31,8
20:57:41:876898,1,-1,7,4,-1,-1,-15,3
20:57:41:882867,-2,-2,0,-7,-2,-1,-8,-7
20:57:41:898597,-2,-2,0,-7,-2,-1,-8,-7
20:57:41:899381,-38,-12,5,5,3,2,15,-11
20:57:41:905363,0,11,3,1,1,-1,12,3
20:57:41:913607,0,11,3,1,1,-1,12,3
20:57:41:914435,7,-5,6,0,-4,0,2,9
20:57:41:927849,9,15,12,4,2,4,7,3
20:57:41:936143,9,15,12,4,2,4,7,3
20:57:41:936887,-7,12,9,6,-3,-5,-14,3
20:57:41:942871,7,-8,-9,-10,-3,-3,-7,7
20:57:41:958599,7,-8,-9,-10,-3,-3,-7,7
20:57:41:959383,0,-13,-1,-5,2,5,34,10
20:57:41:965342,-8,-7,-24,4,-5,-10,-4,-2
20:57:41:973587,-8,-7,-24,4,-5,-10,-4,-2
20:57:41:974383,7,-6,-3,-5,-4,-4,-4,45
20:57:41:987842,8,-2,-8,-9,-5,4,8,28
20:57:41:996075,8,-2,-8,-9,-5,4,8,28
20:57:41:996899,14,7,16,-6,3,5,10,7
20:57:42:2859,-7,4,-5,-5,-1,-6,-32,-19
20:57:42:18582,-7,4,-5,-5,-1,-6,-32,-19
20:57:42:19361,-11,13,25,16,0,1,3,-10
20:57:42:25405,4,17,14,-26,-4,2,-4,9
20:57:42:33611,4,17,14,-26,-4,2,-4,9
20:57:42:34396,1,13,-2,-2,3,2,15,-14
20:57:42:47907,1,-7,1,15,0,-5,-24,-29
20:57:42:56082,1,-7,1,15,0,-5,-24,-29
20:57:42:56863,1,-9,-22,-13,-5,-7,-37,13
20:57:42:62867,-2,1,-2,2,1,8,29,-37
20:57:42:78573,-2,1,-2,2,1,8,29,-37
20:57:42:79375,10,12,-5,7,0,4,17,9
20:57:42:85378,1,-29,0,1,0,-1,3,-7
20:57:42:93576,1,-29,0,1,0,-1,3,-7
20:57:42:94384,5,4,1,0,-4,-3,19,-6
20:57:42:107963,0,-6,-22,-8,-1,-5,9,5
20:57:42:116075,0,-6,-22,-8,-1,-5,9,5
20:57:42:116892,-1,9,-1,-2,-1,-2,11,13
20:57:42:122853,1,-2,12,4,-1,0,32,-33
20:57:42:138592,1,-2,12,4,-1,0,32,-33
20:57:42:139366,-12,-11,-1,9,1,-6,-22,-28
20:57:42:145404,-3,7,13,2,1,4,19,19
20:57:42:154024,-3,7,13,2,1,4,19,19
20:57:42:160342,-3,-11,-6,-3,2,6,3,-5
20:57:42:167849,14,4,9,-6,0,-2,-23,15
20:57:42:176081,14,4,9,-6,0,-2,-23,15
20:57:42:176889,0,-7,8,-1,-3,-6,-23,-5
20:57:42:182858,-3,4,2,3,3,4,11,11
20:57:42:198597,-3,4,2,3,3,4,11,11
20:57:42:199366,-2,-10,-9,3,1,-1,-7,-6
20:57:42:205413,-14,3,30,9,-1,-3,1,45
20:57:42:213625,-14,3,30,9,-1,-3,1,45
20:57:42:214379,9,26,-15,-7,-2,-5,-19,-30
20:57:42:227899,-12,-11,-38,-3,-2,1,6,-43
20:57:42:236068,-12,-11,-38,-3,-2,1,6,-43
20:57:42:236856,-11,-18,-1,-4,2,-2,-2,8
20:57:42:242852,-5,6,-4,6,1,-3,22,-9
20:57:42:258593,-5,6,-4,6,1,-3,22,-9
20:57:42:259356,-7,-15,0,-5,-4,-6,-19,-12
20:57:42:265409,-2,0,11,4,1,-1,-23,-13
20:57:42:273583,-2,0,11,4,1,-1,-23,-13
20:57:42:274384,-12,5,7,2,-1,0,2,5
20:57:42:287915,-4,-3,4,-24,-3,-3,-8,-2
20:57:42:296077,-4,-3,4,-24,-3,-3,-8,-2
20:57:42:296867,-5,-3,-12,-3,-6,-1,2,-10
20:57:42:302861,15,-21,-21,2,1,3,4,-1
20:57:42:318577,15,-21,-21,2,1,3,4,-1
20:57:42:319361,-2,-5,-7,-1,0,-3,41,-20
20:57:42:325398,7,-11,-21,0,-2,0,7,14
20:57:42:333606,7,-11,-21,0,-2,0,7,14
20:57:42:334362,-5,-11,-14,1,1,-1,-18,-1
20:57:42:347879,-1,10,14,4,1,1,13,-1
20:57:42:356049,-1,10,14,4,1,1,13,-1
20:57:42:356869,16,2,-1,-1,0,-1,-10,-1
20:57:42:362901,-1,0,-16,-4,-4,-5,-18,7
20:57:42:378567,-1,0,-16,-4,-4,-5,-18,7
20:57:42:379358,5,0,17,0,-1,2,5,14
20:57:42:385375,5,17,12,6,4,1,7,-9
20:57:42:393557,5,17,12,6,4,1,7,-9
20:57:42:394357,-12,-4,22,-3,-3,-3,-8,9
20:57:42:407870,-34,3,5,11,-2,-8,-22,-10
20:57:42:416045,-34,3,5,11,-2,-8,-22,-10
20:57:42:416860,1,4,-14,-5,2,0,-18,23
20:57:42:422869,4,-6,2,7,4,0,-7,30
20:57:42:438600,4,-6,2,7,4,0,-7,30
20:57:42:439436,-6,-16,3,1,-3,-6,-11,-7
20:57:42:445372,5,14,0,6,-2,0,17,-2
20:57:42:453558,5,14,0,6,-2,0,17,-2
20:57:42:454356,1,-4,0,-16,-4,1,1,-8
20:57:42:467874,-13,-18,-23,-8,-4,-1,1,-7
20:57:42:476190,-13,-18,-23,-8,-4,-1,1,-7
20:57:42:476892,1,2,5,2,-1,3,10,14
20:57:42:482903,-3,10,-2,0,0,1,0,10
20:57:42:498622,-3,10,-2,0,0,1,0,10
20:57:42:499392,-1,6,5,7,1,0,-3,-26
20:57:42:505379,0,-10,2,-8,-2,0,-6,-7
20:57:42:513613,0,-10,2,-8,-2,0,-6,-7
20:57:42:514418,-1,1,-7,0,-1,0,16,-3
20:57:42:527893,0,-1,0,-5,-2,-2,-12,-8
20:57:42:536189,0,-1,0,-5,-2,-2,-12,-8
20:57:42:536893,-4,-1,5,2,-1,-1,-8,-2
20:57:42:550381,4,-21,-12,-7,-4,-3,-7,14
20:57:42:558606,4,-21,-12,-7,-4,-3,-7,14
20:57:42:559388,14,-3,-2,3,2,-1,1,-8
20:57:42:565363,-5,-27,-44,-11,-1,-1,-2,-11
20:57:42:573643,-5,-27,-44,-11,-1,-1,-2,-11
20:57:42:574383,-12,-1,10,3,-2,1,11,37
20:57:42:587858,-7,11,25,3,-1,-1,2,-8
20:57:42:596162,-7,11,25,3,-1,-1,2,-8
20:57:42:596845,3,-1,-24,-8,-2,-3,-34,-3
20:57:42:602902,2,10,14,4,-3,-2,5,2
20:57:42:618612,2,10,14,4,-3,-2,5,2
20:57:42:619393,-1,1,4,1,1,1,9,-1
20:57:42:625365,7,-15,1,-7,-3,-4,-23,-21
20:57:42:632980,7,-15,1,-7,-3,-4,-23,-21
20:57:42:640378,-3,-29,-9,-5,-5,-2,-6,-7
20:57:42:647876,4,-6,-18,-2,-3,-3,-3,-12
20:57:42:656187,4,-6,-18,-2,-3,-3,-3,-12
20:57:42:656896,8,1,28,5,-1,-1,8,23
20:57:42:670388,-3,-1,24,7,2,4,6,11
20:57:42:678610,-3,-1,24,7,2,4,6,11
20:57:42:679394,-5,5,7,14,-2,-4,0,-14
20:57:42:685407,5,20,3,0,2,-2,-1,2
20:57:42:692959,5,20,3,0,2,-2,-1,2
20:57:42:700375,2,12,-1,-6,-2,-1,4,-5
20:57:42:707871,-2,-19,-4,-7,-2,-3,-15,-2
20:57:42:716044,-2,-19,-4,-7,-2,-3,-15,-2
20:57:42:716858,10,-8,-24,9,0,-5,3,2
20:57:42:730418,-1,5,8,0,0,1,-8,-9
20:57:42:738610,-1,5,8,0,0,1,-8,-9
20:57:42:739428,-6,7,-1,-18,0,-1,-11,-25
20:57:42:745411,-7,-11,-1,-5,-3,-5,-15,6
20:57:42:752924,-7,-11,-1,-5,-3,-5,-15,6
20:57:42:760398,1,-2,10,4,1,4,23,2
20:57:42:767937,0,3,7,4,2,-5,-11,-9
20:57:42:776116,0,3,7,4,2,-5,-11,-9
20:57:42:776862,-1,8,0,-4,-1,0,8,25
20:57:42:790402,0,1,-20,-7,-4,-2,-2,-6
20:57:42:798581,0,1,-20,-7,-4,-2,-2,-6
20:57:42:799380,-26,-8,7,-4,-1,-1,8,26
20:57:42:805408,-19,-4,-5,-1,-1,0,11,-1
20:57:42:812931,-19,-4,-5,-1,-1,0,11,-1
20:57:42:820344,-15,-1,-29,-1,-1,0,18,-1
20:57:42:827839,-4,-4,2,-2,-4,1,27,1
20:57:42:836123,-4,-4,2,-2,-4,1,27,1
20:57:42:836896,4,-7,-18,-11,0,-3,-15,-5
20:57:42:850440,1,3,11,5,1,0,1,-4
20:57:42:858590,1,3,11,5,1,0,1,-4
20:57:42:859383,1,3,-9,-3,-5,-1,-9,-13
20:57:42:865358,4,9,10,-3,1,-5,-11,8
20:57:42:872927,4,9,10,-3,1,-5,-11,8
20:57:42:880343,-8,-4,-10,-4,-3,0,4,4
20:57:42:887842,0,-14,3,-30,0,0,2,6
20:57:42:896177,0,-14,3,-30,0,0,2,6
20:57:42:896818,-5,0,12,-1,-1,-3,-7,-1
20:57:42:910392,-9,22,24,-10,-5,-5,-3,-7
20:57:42:918577,-9,22,24,-10,-5,-5,-3,-7
20:57:42:919395,3,-11,-16,5,3,3,-6,-9
20:57:42:925353,9,6,9,7,-3,1,1,2
20:57:42:932963,9,6,9,7,-3,1,1,2
20:57:42:940374,-7,6,4,5,-4,-3,-4,-2
20:57:42:947872,-1,-27,-29,9,3,-2,0,-23
20:57:42:956160,-1,-27,-29,9,3,-2,0,-23
20:57:42:956905,-1,-11,5,-3,-3,-2,-6,-14
20:57:42:970370,1,-5,20,16,0,0,2,3
20:57:42:978614,1,-5,20,16,0,0,2,3
20:57:42:979410,2,22,-12,-21,-4,0,-4,-8
20:57:42:985368,0,12,-17,6,-3,1,0,7
20:57:42:992994,0,12,-17,6,-3,1,0,7
20:57:43:395,-8,3,22,9,0,0,2,7
20:57:43:7886,-7,-3,-13,10,-2,1,-3,-2
20:57:43:16329,-7,-3,-13,10,-2,1,-3,-2
20:57:43:16871,9,-26,-3,2,3,-2,-2,-7
20:57:43:30378,-15,12,-4,17,4,3,1,-9
20:57:43:38607,-15,12,-4,17,4,3,1,-9
20:57:43:39426,0,2,-12,-3,-4,-5,0,2
20:57:43:53588,11,0,-9,-11,-4,-1,-4,-1
20:57:43:54397,11,0,-9,-11,-4,-1,-4,-1
20:57:43:60391,6,5,4,-4,-1,0,-3,-6
20:57:43:67880,5,10,11,-8,-3,-1,0,7
20:57:43:76153,5,10,11,-8,-3,-1,0,7
20:57:43:76899,-1,-15,7,3,0,-1,-2,-7
20:57:43:90356,11,1,7,13,-1,-2,-1,0
20:57:43:98635,11,1,7,13,-1,-2,-1,0
20:57:43:99388,11,32,-18,-8,0,0,-1,-5
20:57:43:105377,-6,-1,10,0,4,3,2,-2
20:57:43:113030,-6,-1,10,0,4,3,2,-2
20:57:43:120371,2,-16,2,6,-1,-3,-5,-6
20:57:43:127889,-9,25,-10,4,-1,-3,0,12
20:57:43:136043,-9,25,-10,4,-1,-3,0,12
20:57:43:136841,3,7,-3,-34,-8,0,-3,1
20:57:43:150409,-3,-1,16,-1,-1,0,-11,0
20:57:43:158601,-3,-1,16,-1,-1,0,-11,0
20:57:43:159370,-9,12,-2,-3,-1,-1,-2,-10
20:57:43:165372,15,-5,-8,0,1,0,10,8
20:57:43:172944,15,-5,-8,0,1,0,10,8
20:57:43:180320,0,-8,4,-13,0,-1,-4,-3
20:57:43:187914,-3,-3,-19,-11,-3,-5,-4,-6
20:57:43:196073,-3,-3,-19,-11,-3,-5,-4,-6
20:57:43:196867,-5,-9,12,16,1,-2,10,-5
20:57:43:219213,7,-1,6,0,-3,-3,0,2
20:57:43:220010,7,-1,6,0,-3,-3,0,2
20:57:43:220823,5,42,12,-3,1,2,-2,2
20:57:43:225381,-2,38,-14,-3,0,2,-8,-4
20:57:43:232913,-2,38,-14,-3,0,2,-8,-4
20:57:43:240424,-6,-18,-1,18,1,-3,11,7
20:57:43:247895,8,-2,0,-12,-3,-1,-3,-5
20:57:43:256078,8,-2,0,-12,-3,-1,-3,-5
20:57:43:256875,-4,2,0,-2,2,-3,-9,9
20:57:43:270406,-2,-34,11,-10,0,1,5,2
20:57:43:278562,-2,-34,11,-10,0,1,5,2
20:57:43:279373,2,-13,20,16,-3,0,-3,1
20:57:43:285409,-12,-15,-1,-34,-10,0,-6,-13
20:57:43:292898,-12,-15,-1,-34,-10,0,-6,-13
20:57:43:300363,-1,-1,-26,6,7,3,-1,-1
20:57:43:307854,3,-27,-25,8,-2,-2,3,-2
20:57:43:316104,3,-27,-25,8,-2,-2,3,-2
20:57:43:316876,-3,-7,11,10,1,-3,-4,1
20:57:43:339233,-5,-12,0,-4,3,-2,1,3
20:57:43:340070,-5,-12,0,-4,3,-2,1,3
20:57:43:340857,-13,-24,-18,-22,-5,-2,-10,25
20:57:43:345385,3,0,-10,-5,-4,-5,3,7
20:57:43:352900,3,0,-10,-5,-4,-5,3,7
20:57:43:360376,5,0,-15,0,1,-1,-3,-14
20:57:43:367847,-7,4,-5,3,-1,-2,17,1
20:57:43:376120,-7,4,-5,3,-1,-2,17,1
20:57:43:376879,3,-3,5,0,-2,-1,-1,-7
20:57:43:390387,4,-14,-6,10,6,-2,-7,-7
20:57:43:398580,4,-14,-6,10,6,-2,-7,-7
20:57:43:399368,-13,1,7,0,-2,-2,-16,-9
20:57:43:405328,2,-2,4,8,1,-1,-9,14
20:57:43:412902,2,-2,4,8,1,-1,-9,14
20:57:43:420345,23,-11,-18,2,-1,0,-9,8
20:57:43:427867,-3,0,1,-8,-1,-1,9,5
20:57:43:436089,-3,0,1,-8,-1,-1,9,5
20:57:43:436895,7,10,21,5,-1,-2,16,-8
20:57:43:450376,1,6,10,6,1,3,4,2
20:57:43:458630,1,6,10,6,1,3,4,2
20:57:43:459372,-13,7,-16,-1,1,-2,37,-19
20:57:43:465377,2,-7,-6,1,-1,-2,2,-2
20:57:43:472965,2,-7,-6,1,-1,-2,2,-2
20:57:43:480407,-7,-5,-6,-5,-4,0,25,32
20:57:43:487893,2,9,4,5,4,-1,0,-23
20:57:43:496184,2,9,4,5,4,-1,0,-23
20:57:43:496910,-1,-5,17,11,4,0,-2,-19
20:57:43:510357,-3,-17,-21,-20,-7,-1,-12,9
20:57:43:518579,-3,-17,-21,-20,-7,-1,-12,9
20:57:43:519401,6,-26,9,-8,-4,-1,-11,-6
20:57:43:525355,-11,-6,20,11,-2,-2,-12,-14
20:57:43:532982,-11,-6,20,11,-2,-2,-12,-14
20:57:43:540375,-1,-8,-5,-2,-3,-4,-4,-1
20:57:43:547881,0,0,7,-7,-3,-3,14,-27
20:57:43:556057,0,0,7,-7,-3,-3,14,-27
20:57:43:556848,3,7,-1,-4,1,-1,-4,2
20:57:43:570353,0,7,-29,-6,-5,-3,-10,4
20:57:43:578612,0,7,-29,-6,-5,-3,-10,4
20:57:43:579389,-7,4,7,-2,2,-1,-9,3
20:57:43:593635,3,-6,-11,-2,-1,-2,2,3
20:57:43:594396,3,-6,-11,-2,-1,-2,2,3
20:57:43:600391,0,4,-19,-4,-5,0,29,12
20:57:43:607882,-19,2,13,2,1,3,36,-14
20:57:43:615481,-19,2,13,2,1,3,36,-14
20:57:43:622913,5,8,13,-1,0,-1,-27,2
20:57:43:630412,22,-18,-3,-5,-4,-3,-20,-3
20:57:43:638577,22,-18,-3,-5,-4,-3,-20,-3
20:57:43:639343,-5,1,-8,-28,-5,-4,23,-14
20:57:43:653540,-2,1,-4,-17,1,-2,-16,7
20:57:43:654340,-2,1,-4,-17,1,-2,-16,7
20:57:43:660421,0,2,-4,5,-1,-4,-27,-21
20:57:43:667874,-3,14,4,8,4,2,-9,-9
20:57:43:675430,-3,14,4,8,4,2,-9,-9
20:57:43:682911,-10,-5,-9,-6,-4,-3,-8,20
20:57:43:699211,-14,5,11,11,0,1,18,-9
20:57:43:700040,-14,5,11,11,0,1,18,-9
20:57:43:700833,-10,1,6,5,0,0,-22,3
20:57:43:713598,0,5,-6,2,0,-6,-10,23
20:57:43:714391,0,5,-6,2,0,-6,-10,23
20:57:43:720368,-13,-8,-10,0,0,5,16,-4
20:57:43:727870,-3,5,22,7,-2,-1,-3,-10
20:57:43:735438,-3,5,22,7,-2,-1,-3,-10
20:57:43:742873,2,10,10,5,0,1,-14,4
20:57:43:750433,-2,-2,0,1,-3,-1,22,2
20:57:43:758568,-2,-2,0,1,-3,-1,22,2
20:57:43:759378,1,-8,-3,-11,-4,-2,33,21
20:57:43:773534,0,-7,8,-5,2,0,-1,24
20:57:43:774346,0,-7,8,-5,2,0,-1,24
20:57:43:780371,-8,-6,3,6,2,-1,-5,-43
20:57:43:787872,6,4,17,4,-2,-4,-25,-9
20:57:43:795420,6,4,17,4,-2,-4,-25,-9
20:57:43:802878,1,-7,-18,-6,-4,-6,-11,-6
20:57:43:810353,3,-3,-4,-8,0,4,13,12
20:57:43:818599,3,-3,-4,-8,0,4,13,12
20:57:43:819368,2,12,16,4,-1,-1,5,16
20:57:43:833570,-2,7,-18,-5,-1,-2,-23,30
20:57:43:834373,-2,7,-18,-5,-1,-2,-23,30
20:57:43:840401,10,-18,-9,-1,-1,1,22,7
20:57:43:847870,1,-5,-23,-8,3,-3,-40,-7
20:57:43:855427,1,-5,-23,-8,3,-3,-40,-7
20:57:43:862865,-8,5,20,6,3,4,-10,-2
20:57:43:870368,17,10,-11,0,-5,-2,0,23
20:57:43:878620,17,10,-11,0,-5,-2,0,23
20:57:43:879406,4,6,-10,-11,-1,0,-3,-8
20:57:43:893615,-4,-3,0,6,1,-2,-30,-39
20:57:43:894399,-4,-3,0,6,1,-2,-30,-39
20:57:43:900382,8,2,-7,7,-1,1,-12,9
20:57:43:907870,-16,-3,-7,-4,-2,-3,2,-48
20:57:43:915434,-16,-3,-7,-4,-2,-3,2,-48
20:57:43:922859,-4,7,-2,-7,-1,4,18,18
20:57:43:930390,-4,-2,5,16,0,0,10,-20
20:57:43:938613,-4,-2,5,16,0,0,10,-20
20:57:43:939390,1,11,4,-2,-2,-3,-19,-23
20:57:43:953604,-7,6,4,-3,-1,-2,16,3
20:57:43:954407,-7,6,4,-3,-1,-2,16,3
20:57:43:960354,0,3,-24,-5,-5,-4,-5,1
20:57:43:967872,-6,32,0,0,0,1,13,18
20:57:43:975425,-6,32,0,0,0,1,13,18
20:57:43:982895,5,1,15,11,4,-2,-9,-22
20:57:43:990370,10,-11,10,-5,-4,-3,29,9
20:57:43:998577,10,-11,10,-5,-4,-3,29,9
20:57:43:999379,-10,-7,-8,-2,-1,-3,4,-5
20:57:44:13557,-3,-11,-4,-1,0,4,5,5
20:57:44:14352,-3,-11,-4,-1,0,4,5,5
20:57:44:20377,-7,-6,1,5,0,-3,-19,16
20:57:44:27899,18,-12,-9,-5,-4,-5,2,21
20:57:44:35423,18,-12,-9,-5,-4,-5,2,21
20:57:44:42886,-1,-5,-23,-11,-4,-5,-14,-7
20:57:44:50373,-12,-3,9,-12,1,4,-1,-5
20:57:44:58594,-12,-3,9,-12,1,4,-1,-5
20:57:44:59364,-3,-14,-5,3,-1,-1,2,-3
20:57:44:73547,-7,3,3,-6,3,3,18,-3
20:57:44:74351,-7,3,3,-6,3,3,18,-3
20:57:44:80372,-3,0,7,4,-3,-2,13,10
20:57:44:87882,-4,29,14,4,0,-2,-13,-58
20:57:44:95404,-4,29,14,4,0,-2,-13,-58
20:57:44:102866,-6,7,21,1,0,-1,8,-8
20:57:44:110375,-2,-14,-21,-3,-3,-3,-7,14
20:57:44:118586,-2,-14,-21,-3,-3,-3,-7,14
20:57:44:119385,14,-6,7,1,-3,1,29,-3
20:57:44:133565,5,0,-38,-6,-1,1,-8,3
20:57:44:134379,5,0,-38,-6,-1,1,-8,3
20:57:44:140360,0,-3,1,-18,-2,-1,-8,-10
20:57:44:147832,-8,-14,7,8,-4,1,10,14
20:57:44:163623,-8,-14,7,8,-4,1,10,14
20:57:44:164373,1,-8,-6,12,2,-3,3,-11
20:57:44:170324,5,-3,8,-12,-3,-5,-22,-6
20:57:44:178582,5,-3,8,-12,-3,-5,-22,-6
20:57:44:179368,-6,-6,2,-6,-2,-1,-9,-3
20:57:44:193573,-8,-11,1,11,2,-2,-3,2
20:57:44:194376,-8,-11,1,11,2,-2,-3,2
20:57:44:200325,-11,-1,-3,0,-2,1,-7,13
20:57:44:207825,7,-20,0,-5,-2,-2,-9,6
20:57:44:215402,7,-20,0,-5,-2,-2,-9,6
20:57:44:222862,5,10,6,0,3,2,-6,5
20:57:44:230398,-7,-8,-8,-9,-4,-2,4,12
20:57:44:238599,-7,-8,-8,-9,-4,-2,4,12
20:57:44:239384,3,-4,1,9,0,-1,7,18
20:57:44:253571,4,9,7,2,0,1,1,3
20:57:44:254386,4,9,7,2,0,1,1,3
20:57:44:260365,-5,9,-13,0,1,-1,-25,-6
20:57:44:267860,-3,2,22,4,-1,2,-6,24
20:57:44:275474,-3,2,22,4,-1,2,-6,24
20:57:44:282877,-1,5,-5,-4,-5,-3,-2,-15
20:57:44:290376,-18,-12,-15,-8,-3,-5,-3,-15
20:57:44:299248,-18,-12,-15,-8,-3,-5,-3,-15
20:57:44:300076,-5,-12,-8,-19,-3,-2,-2,4
20:57:44:313617,9,19,-5,-3,-1,-1,3,2
20:57:44:314396,9,19,-5,-3,-1,-1,3,2
20:57:44:320396,1,15,8,16,1,-2,-5,-10
20:57:44:327885,-5,-11,-16,-15,-5,-3,-16,-36
20:57:44:335449,-5,-11,-16,-15,-5,-3,-16,-36
20:57:44:342927,12,10,20,12,2,-1,-5,-7
20:57:44:350394,6,9,-12,3,-1,-4,1,-5
20:57:44:358576,6,9,-12,3,-1,-4,1,-5
20:57:44:359345,5,28,-12,-3,0,2,1,9
20:57:44:373620,-5,10,13,9,1,-1,3,10
20:57:44:374421,-5,10,13,9,1,-1,3,10
20:57:44:380391,2,-10,-16,-16,-6,-2,2,2
20:57:44:387893,-2,-35,-17,-16,1,1,3,0
20:57:44:395382,-2,-35,-17,-16,1,1,3,0
20:57:44:402889,-10,1,32,16,3,1,0,-2
20:57:44:419207,3,-25,-8,7,-4,-4,-6,-18
20:57:44:420011,3,-25,-8,7,-4,-4,-6,-18
20:57:44:420880,7,-10,-4,-5,-2,5,17,-1
20:57:44:441730,-5,-12,5,9,5,2,6,3
20:57:44:442549,-5,-12,5,9,5,2,6,3
20:57:44:443360,-2,5,8,-6,-4,-3,-6,-6
20:57:44:447883,6,49,17,29,5,2,-3,-8
20:57:44:455436,6,49,17,29,5,2,-3,-8
20:57:44:462876,8,-10,2,-57,-11,-3,-1,6
20:57:44:470380,-26,-11,2,-2,-4,-5,0,7
20:57:44:478588,-26,-11,2,-2,-4,-5,0,7
20:57:44:479404,-13,-80,-30,11,-2,-5,-4,-5
20:57:44:493585,14,16,0,5,-2,0,2,5
20:57:44:494404,14,16,0,5,-2,0,2,5
20:57:44:500357,-1,-64,-15,-25,-3,-5,-7,-7
20:57:44:507859,-3,-5,-16,4,0,-2,1,-4
20:57:44:515449,-3,-5,-16,4,0,-2,1,-4
20:57:44:522925,-9,18,6,16,4,0,-13,5
20:57:44:530411,13,9,14,-10,1,3,1,11
20:57:44:537931,13,9,14,-10,1,3,1,11
20:57:44:554254,-11,26,-14,0,3,3,-1,-7
20:57:44:555036,-9,-7,19,10,1,1,2,-6
20:57:44:555879,-9,-7,19,10,1,1,2,-6
20:57:44:560382,-1,-2,-2,-22,-3,-2,-2,-13
20:57:44:576084,4,-16,13,-28,-3,-2,1,1
20:57:44:576914,4,-16,13,-28,-3,-2,1,1
20:57:44:582865,-3,20,12,16,3,1,1,5
20:57:44:590394,3,21,-14,3,3,1,-13,0
20:57:44:597938,3,21,-14,3,3,1,-13,0
20:57:44:605410,1,39,4,21,1,0,-4,-5
20:57:44:613545,4,-20,4,6,-2,-4,1,17
20:57:44:614352,4,-20,4,6,-2,-4,1,17
20:57:44:620384,4,1,-11,2,-4,-3,0,-5
20:57:44:636540,2,9,-5,-2,-1,1,-2,-10
20:57:44:637355,2,9,-5,-2,-1,1,-2,-10
20:57:44:642882,8,18,4,-14,-8,-2,4,4
20:57:44:650398,9,-10,1,0,-2,-1,4,14
20:57:44:657901,9,-10,1,0,-2,-1,4,14
20:57:44:665381,4,5,5,26,3,0,-3,4
20:57:44:673557,-20,-9,-26,3,-6,-3,2,1
20:57:44:674369,-20,-9,-26,3,-6,-3,2,1
20:57:44:680350,-7,-3,2,9,1,-1,-1,-5
20:57:44:696590,-10,-41,2,13,2,-1,2,2
20:57:44:697347,-10,-41,2,13,2,-1,2,2
20:57:44:702894,15,0,-5,2,-1,1,-3,-9
20:57:44:710384,7,-10,11,-12,-6,-3,0,-5
20:57:44:717928,7,-10,11,-12,-6,-3,0,-5
20:57:44:725349,3,-32,-10,0,2,-4,-1,3
20:57:44:733578,-3,19,-2,-10,-3,0,1,2
20:57:44:734375,-3,19,-2,-10,-3,0,1,2
20:57:44:740364,3,15,11,5,3,0,-2,2
20:57:44:756062,-2,17,18,10,4,-2,-8,-23
20:57:44:756858,-2,17,18,10,4,-2,-8,-23
20:57:44:762831,3,-26,-2,3,-5,-6,-1,-2
20:57:44:770334,2,12,9,-6,-2,0,1,1
20:57:44:777910,2,12,9,-6,-2,0,1,1
20:57:44:785367,-21,0,-12,-35,-7,0,1,6
20:57:44:793596,2,20,1,2,-1,1,-1,-10
20:57:44:794396,2,20,1,2,-1,1,-1,-10
20:57:44:800362,-3,-6,5,4,1,-1,2,5
20:57:44:816067,1,-3,7,3,0,-3,13,11
20:57:44:816885,1,-3,7,3,0,-3,13,11
20:57:44:830993,1,-25,2,-1,-2,5,14,1
20:57:44:831796,-9,-8,-18,-3,2,-2,-32,1
20:57:44:837922,-9,-8,-18,-3,2,-2,-32,1
20:57:44:845332,10,72,-2,4,-1,-3,1,19
20:57:44:853585,8,6,-1,2,3,-1,-1,2
20:57:44:854373,8,6,-1,2,3,-1,-1,2
20:57:44:860353,4,-13,10,9,3,-2,-8,-9
20:57:44:876076,-6,0,0,-9,-5,0,2,0
20:57:44:876891,-6,0,0,-9,-5,0,2,0
20:57:44:891047,-4,-3,3,6,1,-4,-15,-21
20:57:44:891862,-4,-22,-39,-16,-4,6,46,3
20:57:44:897921,-4,-22,-39,-16,-4,6,46,3
20:57:44:914245,-9,-4,-9,-11,1,1,1,4
20:57:44:914976,-1,2,1,6,-2,-2,9,-6
20:57:44:915821,-1,2,1,6,-2,-2,9,-6
20:57:44:920401,-1,-22,-6,8,-4,-5,-4,-7
20:57:44:936090,-12,-10,2,-2,-2,-5,-26,-10
20:57:44:936910,-12,-10,2,-2,-2,-5,-26,-10
20:57:44:942897,-5,2,-8,-7,-5,-2,-23,-38
20:57:44:950367,0,27,12,-2,4,-2,-11,3
20:57:44:957910,0,27,12,-2,4,-2,-11,3
20:57:44:965387,-9,-36,-7,-6,-5,-4,17,0
20:57:44:973538,0,-5,7,-14,-5,0,6,8
20:57:44:974358,0,-5,7,-14,-5,0,6,8
20:57:44:980348,2,6,-1,-3,-1,1,27,10
20:57:44:996032,5,-13,-8,8,1,-6,-7,-23
20:57:44:996859,5,-13,-8,8,1,-6,-7,-23
20:57:45:2914,6,12,8,1,-2,2,-2,58
20:57:45:10386,1,6,8,-2,-1,-7,0,8
20:57:45:17926,1,6,8,-2,-1,-7,0,8
20:57:45:25386,-7,-3,-11,-7,2,2,-19,-23
20:57:45:33557,-2,-18,-17,-10,-4,0,-10,-13
20:57:45:34376,-2,-18,-17,-10,-4,0,-10,-13
20:57:45:40439,-1,-2,10,7,1,-1,3,-3
20:57:45:56068,9,-18,-2,-3,-1,-2,4,3
20:57:45:56972,9,-18,-2,-3,-1,-2,4,3
20:57:45:62860,-9,5,7,9,0,-6,-34,-6
20:57:45:70356,1,0,2,-3,-2,2,-5,5
20:57:45:77934,1,0,2,-3,-2,2,-5,5
20:57:45:85340,3,-1,6,-4,0,0,-4,-15
20:57:45:93575,-2,3,-18,10,2,3,-2,-1
20:57:45:94390,-2,3,-18,10,2,3,-2,-1
20:57:45:100358,-7,-4,-3,-5,0,-1,21,1
20:57:45:116102,13,5,4,0,-3,0,3,2
20:57:45:116880,13,5,4,0,-3,0,3,2
20:57:45:122941,-2,-11,-7,-23,0,1,7,3
20:57:45:130357,2,28,-3,-2,-3,-6,-16,-34
20:57:45:137961,2,28,-3,-2,-3,-6,-16,-34
20:57:45:145389,-12,-38,-12,0,-4,-3,0,-1
20:57:45:153583,-13,-11,-13,12,1,0,-11,0
20:57:45:154408,-13,-11,-13,12,1,0,-11,0
20:57:45:167865,7,22,-7,4,4,0,0,18
20:57:45:176080,-7,-8,-4,12,0,1,19,4
20:57:45:176887,-7,-8,-4,12,0,1,19,4
20:57:45:182864,0,14,13,0,-3,-1,-4,15
20:57:45:190366,-4,1,4,-9,-5,-1,10,78
20:57:45:197940,-4,1,4,-9,-5,-1,10,78
20:57:45:205373,3,5,3,1,0,-3,-3,8
20:57:45:213549,1,-9,13,-8,-1,-3,14,-2
20:57:45:214356,1,-9,13,-8,-1,-3,14,-2
20:57:45:220386,-1,-22,-1,3,0,1,7,0
20:57:45:236109,6,81,19,-1,2,6,30,-10
20:57:45:236906,6,81,19,-1,2,6,30,-10
20:57:45:242872,-3,-6,2,11,-2,-4,-6,-18
20:57:45:250387,9,-10,11,-2,-1,-1,-30,-12
20:57:45:257930,9,-10,11,-2,-1,-1,-30,-12
20:57:45:265444,10,46,-1,16,2,3,5,17
20:57:45:273572,-4,-13,-1,-14,-7,-5,-6,-3
20:57:45:274358,-4,-13,-1,-14,-7,-5,-6,-3
20:57:45:280343,-2,-6,-12,1,-4,-4,-1,12
20:57:45:296071,-21,-21,-29,-3,0,8,24,-65
20:57:45:296908,-21,-21,-29,-3,0,8,24,-65
20:57:45:302920,-2,12,5,-6,4,0,4,-3
20:57:45:310384,4,13,3,-3,-1,-5,-5,-5
20:57:45:317915,4,13,3,-3,-1,-5,-5,-5
20:57:45:325352,-5,-7,-34,-14,-8,-4,-14,-24
20:57:45:333611,-3,-21,2,1,-1,-5,-11,-11
20:57:45:334386,-3,-21,2,1,-1,-5,-11,-11
20:57:45:340359,3,0,6,-1,3,3,-9,10
20:57:45:356041,-17,14,14,1,2,1,-5,12
20:57:45:356868,-17,14,14,1,2,1,-5,12
20:57:45:362859,2,0,-4,-2,-2,-4,-40,-36
20:57:45:370340,4,-13,5,2,4,0,-28,-5
20:57:45:377923,4,-13,5,2,4,0,-28,-5
20:57:45:385423,-12,37,16,1,1,1,0,3
20:57:45:393621,-6,-5,1,7,-2,0,28,13
20:57:45:394383,-6,-5,1,7,-2,0,28,13
20:57:45:400413,4,-13,-20,-2,1,0,15,17
20:57:45:416076,2,-20,-15,-13,-6,-3,2,-12
20:57:45:416883,2,-20,-15,-13,-6,-3,2,-12
20:57:45:422862,-2,-3,17,7,-1,-1,4,-5
20:57:45:430361,-3,-19,-6,-10,-2,-4,-38,-9
20:57:45:437914,-3,-19,-6,-10,-2,-4,-38,-9
20:57:45:445365,2,10,-4,-7,-2,-1,40,11
20:57:45:453609,6,-11,-3,2,-1,7,23,-4
20:57:45:454421,6,-11,-3,2,-1,7,23,-4
20:57:45:460364,-2,-26,-19,-10,-5,-3,-8,-17
20:57:45:476079,0,-5,-1,10,3,-4,-5,18
20:57:45:476893,0,-5,-1,10,3,-4,-5,18
20:57:45:482875,4,-17,-15,-8,-3,-2,-5,-12
20:57:45:498600,-3,6,1,-1,3,0,-15,-20
20:57:45:499386,-3,6,1,-1,3,0,-15,-20
20:57:45:505361,-4,7,9,-4,1,4,11,-7
20:57:45:513612,1,4,1,6,1,-4,-11,-1
20:57:45:514404,1,4,1,6,1,-4,-11,-1
20:57:45:527844,10,-3,2,-5,-1,-4,-1,-6
20:57:45:536067,-2,-8,-1,1,-4,-1,-14,-1
20:57:45:536886,-2,-8,-1,1,-4,-1,-14,-1
20:57:45:542873,-4,-14,22,-9,-5,-3,19,-6
20:57:45:558584,-4,-14,22,-9,-5,-3,19,-6
20:57:45:559395,-5,-4,-1,-2,0,-4,0,8
20:57:45:565359,3,1,15,6,3,0,-11,0
20:57:45:573593,3,1,15,6,3,0,-11,0
20:57:45:574392,3,-3,-4,-2,-2,-3,1,-7
20:57:45:587885,6,-5,-1,5,0,-12,-50,-47
20:57:45:596077,6,-5,-1,5,0,-12,-50,-47
20:57:45:596882,5,8,-7,-6,-2,-5,-9,-1
20:57:45:602836,2,10,9,0,-1,1,9,16
20:57:45:618584,2,10,9,0,-1,1,9,16
20:57:45:619367,-4,-2,-6,-1,-1,0,9,-1
20:57:45:625340,-9,-7,0,3,-3,0,21,5
20:57:45:633587,-9,-7,0,3,-3,0,21,5
20:57:45:634377,-2,-26,-25,-6,-1,1,-7,4
20:57:45:647949,1,5,16,0,0,2,-20,21
20:57:45:656092,1,5,16,0,0,2,-20,21
20:57:45:656855,-1,4,0,-3,-3,-3,6,4
20:57:45:662850,-4,5,6,4,-2,-6,-23,31
20:57:45:678586,-4,5,6,4,-2,-6,-23,31
20:57:45:679372,-6,11,16,-10,-2,2,3,1
20:57:45:685333,-12,1,-11,0,0,-5,-17,4
20:57:45:693604,-12,1,-11,0,0,-5,-17,4
20:57:45:694350,4,-5,-5,-1,-3,1,11,10
20:57:45:707897,5,-9,-8,-4,-4,-1,4,-7
20:57:45:716068,5,-9,-8,-4,-4,-1,4,-7
20:57:45:716868,4,6,2,9,0,-4,-6,-4
20:57:45:722849,4,2,-3,6,0,4,5,-25
20:57:45:738566,4,2,-3,6,0,4,5,-25
20:57:45:739365,-9,-8,-30,-5,-4,-1,10,6
20:57:45:745388,-5,-19,-14,-4,-2,2,10,-6
20:57:45:753598,-5,-19,-14,-4,-2,2,10,-6
20:57:45:754355,8,12,7,7,7,1,-2,11
20:57:45:767897,11,5,-3,-6,-5,3,4,0
20:57:45:776054,11,5,-3,-6,-5,3,4,0
20:57:45:776871,-7,5,17,7,2,-2,-11,5
20:57:45:782887,-4,14,4,-11,-1,0,-12,-14
20:57:45:798566,-4,14,4,-11,-1,0,-12,-14
20:57:45:799328,0,6,7,3,-2,0,-22,-22
20:57:45:805410,-16,-1,3,-3,-2,-2,-7,36
20:57:45:813588,-16,-1,3,-3,-2,-2,-7,36
20:57:45:814372,-8,15,12,-3,-2,-2,-4,-18
20:57:45:827889,1,-14,-7,2,-2,1,10,3
20:57:45:836053,1,-14,-7,2,-2,1,10,3
20:57:45:836864,5,8,19,11,3,0,-4,2
20:57:45:842910,-9,-4,4,8,1,-1,18,-2
20:57:45:858611,-9,-4,4,8,1,-1,18,-2
20:57:45:859384,8,7,4,1,-3,-1,1,5
20:57:45:865389,-2,-17,-19,0,0,2,12,-8
20:57:45:873630,-2,-17,-19,0,0,2,12,-8
20:57:45:874382,-8,-6,-1,2,-1,-1,16,5
20:57:45:887896,0,2,1,-7,-1,-2,6,5
20:57:45:896108,0,2,1,-7,-1,-2,6,5
20:57:45:896908,-4,-18,-31,-11,-1,-2,-28,5
20:57:45:902888,6,5,3,-2,0,-2,-14,-13
20:57:45:918645,6,5,3,-2,0,-2,-14,-13
20:57:45:919399,1,-2,1,-6,-5,1,-17,51
20:57:45:925405,4,-7,-11,4,1,3,11,-10
20:57:45:933629,4,-7,-11,4,1,3,11,-10
20:57:45:934406,-12,-9,-9,-11,-4,-4,-2,3
20:57:45:947845,-2,-1,8,7,-1,0,9,2
20:57:45:956094,-2,-1,8,7,-1,0,9,2
20:57:45:956888,-2,-8,16,0,2,-3,17,-3
20:57:45:962863,-5,-2,-4,-4,-4,-4,-29,-21
20:57:45:978592,-5,-2,-4,-4,-4,-4,-29,-21
20:57:45:979402,3,-28,2,3,0,1,0,-13
20:57:45:985354,4,14,-3,0,3,-2,-9,-12
20:57:45:993592,4,14,-3,0,3,-2,-9,-12
20:57:45:994382,3,-3,-5,0,-1,4,17,-1
20:57:46:7868,0,1,5,2,-1,4,2,17
20:57:46:16098,0,1,5,2,-1,4,2,17
20:57:46:16878,4,15,-4,-2,1,1,5,1
20:57:46:22945,-2,5,0,1,0,-5,-3,0
20:57:46:38608,-2,5,0,1,0,-5,-3,0
20:57:46:39395,-5,-1,18,9,1,2,13,13
20:57:46:45360,0,-12,-4,-12,-4,-1,34,18
20:57:46:53611,0,-12,-4,-12,-4,-1,34,18
20:57:46:54439,3,27,-3,-5,-5,-5,-4,15
20:57:46:67948,1,-4,7,0,-2,-5,-18,-6
20:57:46:76102,1,-4,7,0,-2,-5,-18,-6
20:57:46:76882,-3,18,-4,3,1,-1,7,-6
20:57:46:82873,-2,0,-12,-10,-3,2,2,1
20:57:46:98603,-2,0,-12,-10,-3,2,2,1
20:57:46:99365,-15,-6,-10,-11,-4,-4,-13,-13
20:57:46:105343,-11,-7,2,1,-1,-5,-26,-1
20:57:46:113579,-11,-7,2,1,-1,-5,-26,-1
20:57:46:114394,4,-4,-4,-5,-2,-1,5,-19
20:57:46:127882,0,2,2,-2,0,3,14,2
20:57:46:136070,0,2,2,-2,0,3,14,2
20:57:46:136869,-1,-11,-9,-4,3,-3,-2,-5
20:57:46:142849,1,-6,4,6,-1,-4,3,-10
20:57:46:158644,1,-6,4,6,-1,-4,3,-10
20:57:46:159364,3,-3,-2,1,2,0,-15,-26
20:57:46:165342,5,-20,-3,-1,1,3,31,3
20:57:46:173591,5,-20,-3,-1,1,3,31,3
20:57:46:174354,2,-16,-3,-5,-5,-8,-21,66
20:57:46:187936,-7,-16,-6,-3,-3,-3,-22,1
20:57:46:196075,-7,-16,-6,-3,-3,-3,-22,1
20:57:46:196877,-3,3,-3,-7,-3,-1,2,-29
20:57:46:202867,10,10,-7,2,0,-3,19,8
20:57:46:218549,10,10,-7,2,0,-3,19,8
20:57:46:219360,-1,-1,-1,0,-3,-3,-12,-7
20:57:46:225401,-7,15,1,-2,-1,0,-11,-13
20:57:46:233580,-7,15,1,-2,-1,0,-11,-13
20:57:46:234355,10,28,15,11,5,2,11,6
20:57:46:247891,0,-3,-20,6,0,-2,4,21
20:57:46:256102,0,-3,-20,6,0,-2,4,21
20:57:46:256876,-11,-10,-9,-9,-5,1,6,0
20:57:46:262887,-5,5,0,0,-1,-3,-21,-38
20:57:46:278569,-5,5,0,0,-1,-3,-21,-38
20:57:46:279352,3,8,6,-2,-3,1,20,-17
20:57:46:285362,-12,1,6,-5,-1,2,15,-9
20:57:46:293585,-12,1,6,-5,-1,2,15,-9
20:57:46:294376,5,-16,-4,-2,-3,-1,0,-15
20:57:46:307870,-1,0,7,2,-4,0,10,-3
20:57:46:316045,-1,0,7,2,-4,0,10,-3
20:57:46:316857,-6,-8,-5,1,-1,-1,-8,-1
20:57:46:330407,5,8,-9,1,3,-1,14,5
20:57:46:338610,5,8,-9,1,3,-1,14,5
20:57:46:339407,1,-7,-3,5,3,3,17,-19
20:57:46:345380,-1,-8,-13,-13,-5,-2,-3,-21
20:57:46:353567,-1,-8,-13,-13,-5,-2,-3,-21
20:57:46:354374,-5,23,7,-11,-3,1,-5,-7
20:57:46:367866,5,21,6,6,2,-2,-11,4
20:57:46:376113,5,21,6,6,2,-2,-11,4
20:57:46:376883,0,-8,10,-3,-1,-7,-11,10
20:57:46:382860,-1,0,-2,-5,-4,-3,-23,8
20:57:46:398603,-1,0,-2,-5,-4,-3,-23,8
20:57:46:399386,4,6,3,6,2,-3,-3,2
20:57:46:405373,0,-15,-1,2,1,-2,0,1
20:57:46:412992,0,-15,-1,2,1,-2,0,1
20:57:46:420374,-4,-10,0,0,0,1,-1,1
20:57:46:427883,-4,-3,-5,-3,-1,3,39,-4
20:57:46:436071,-4,-3,-5,-3,-1,3,39,-4
20:57:46:436877,2,2,0,2,0,-2,-5,-2
20:57:46:450391,-9,0,1,6,-3,-3,-23,-2
20:57:46:458603,-9,0,1,6,-3,-3,-23,-2
20:57:46:459389,-6,-10,-9,-2,3,3,18,0
20:57:46:465375,2,60,2,-11,-1,0,-13,0
20:57:46:472939,2,60,2,-11,-1,0,-13,0
20:57:46:480407,-2,-8,-5,-5,-3,0,-9,-19
20:57:46:487901,-3,-23,5,-1,-1,-1,1,11
20:57:46:496075,-3,-23,5,-1,-1,-1,1,11
20:57:46:496861,-3,18,0,6,2,0,4,12
20:57:46:510388,6,-11,5,3,-1,-1,-1,-4
20:57:46:526785,6,-11,5,3,-1,-1,-1,-4
20:57:46:527566,2,-8,-8,-8,-4,-5,1,0
20:57:46:528375,-6,-15,-3,2,2,2,-1,-12
20:57:46:532888,-6,-15,-3,2,2,2,-1,-12
20:57:46:540376,1,-8,0,-1,-3,-5,12,-3
20:57:46:547886,11,3,1,4,2,-2,-13,2
20:57:46:563616,11,3,1,4,2,-2,-13,2
20:57:46:564389,-1,10,1,0,-3,-1,-13,4
20:57:46:570377,0,-9,-6,-13,-4,1,3,3
20:57:46:578573,0,-9,-6,-13,-4,1,3,3
20:57:46:579336,2,-5,4,11,-2,-2,-5,7
20:57:46:585362,2,-9,0,-11,-7,-1,-5,1
20:57:46:592925,2,-9,0,-11,-7,-1,-5,1
20:57:46:600330,5,9,-3,-5,2,2,5,-6
20:57:46:607907,-5,-4,-17,1,1,-3,-5,4
20:57:46:616071,-5,-4,-17,1,1,-3,-5,4
20:57:46:616860,2,-8,-8,2,-2,-2,-2,-1
20:57:46:630393,-2,0,-4,0,3,0,0,-13
20:57:46:638595,-2,0,-4,0,3,0,0,-13
20:57:46:639382,-2,1,-11,-3,1,-3,-28,2
20:57:46:645393,-5,34,10,-2,1,0,-8,-3
20:57:46:652938,-5,34,10,-2,1,0,-8,-3
20:57:46:660357,-8,-10,-4,-8,-3,-2,2,-1
20:57:46:667852,2,-12,6,2,-1,-3,-4,-4
20:57:46:676090,2,-12,6,2,-1,-3,-4,-4
20:57:46:676876,-3,4,-1,-5,-4,0,4,2
20:57:46:690447,5,-10,-1,2,1,3,21,28
20:57:46:698597,5,-10,-1,2,1,3,21,28
20:57:46:699376,-16,-10,1,-6,-4,0,13,9
20:57:46:705415,-7,-8,-11,-1,0,2,57,-13
20:57:46:712961,-7,-8,-11,-1,0,2,57,-13
20:57:46:728556,10,-6,3,2,-1,-3,-15,-11
20:57:46:729280,-4,7,-8,0,2,0,-37,-17
20:57:46:736074,-4,7,-8,0,2,0,-37,-17
20:57:46:736881,-6,-4,-4,6,0,5,27,38
20:57:46:750402,3,-6,1,2,-1,0,3,0
20:57:46:758570,3,-6,1,2,-1,0,3,0
20:57:46:759373,2,68,28,6,3,4,-9,-6
20:57:46:765414,0,-7,-8,-4,-3,-3,-8,8
20:57:46:772894,0,-7,-8,-4,-3,-3,-8,8
20:57:46:780412,3,-15,-7,-1,-4,-5,-12,-10
20:57:46:787852,-5,-1,4,20,0,-1,-1,3
20:57:46:796120,-5,-1,4,20,0,-1,-1,3
20:57:46:796893,4,-12,3,3,-2,-2,2,-22
20:57:46:810352,-1,-8,2,-4,-3,-6,-28,-6
20:57:46:818590,-1,-8,2,-4,-3,-6,-28,-6
20:57:46:819359,0,-6,-4,-1,2,3,26,-4
20:57:46:825365,-2,-4,2,-5,-1,0,-7,10
20:57:46:832927,-2,-4,2,-5,-1,0,-7,10
20:57:46:840356,-5,-5,-5,-1,2,-4,-22,-8
20:57:46:847849,0,-6,-3,-8,-5,-2,7,-3
20:57:46:856113,0,-6,-3,-8,-5,-2,7,-3
20:57:46:856950,-2,-34,-7,3,3,0,-5,0
20:57:46:870358,-5,3,21,2,-1,-1,-7,5
20:57:46:878576,-5,3,21,2,-1,-1,-7,5
20:57:46:879388,14,-5,-1,-18,-7,-3,4,2
20:57:46:885357,-7,6,-2,-9,1,-1,-4,-4
20:57:46:892949,-7,6,-2,-9,1,-1,-4,-4
20:57:46:900379,-15,-10,-4,-4,-1,1,15,-19
20:57:46:907866,-5,0,0,4,-1,-5,5,30
20:57:46:916043,-5,0,0,4,-1,-5,5,30
20:57:46:916837,7,7,-4,0,-1,-2,-21,4
20:57:46:930410,-3,0,-2,-5,-2,-1,-15,-19
20:57:46:938602,-3,0,-2,-5,-2,-1,-15,-19
20:57:46:939385,-1,-8,4,3,-4,-2,5,4
20:57:46:945403,3,-26,-16,-3,-1,-1,0,0
20:57:46:952871,3,-26,-16,-3,-1,-1,0,0
20:57:46:960369,0,1,1,2,1,-2,0,-3
20:57:46:967887,-5,-4,1,0,-3,0,4,-4
20:57:46:976046,-5,-4,1,0,-3,0,4,-4
20:57:46:976844,-1,1,0,-10,-2,-1,-7,1
20:57:46:990390,1,6,1,-4,3,2,4,-3
20:57:46:998583,1,6,1,-4,3,2,4,-3
20:57:46:999335,-2,6,-2,3,-3,-3,8,6
20:57:47:5403,5,7,1,1,1,-1,0,-1
20:57:47:12942,5,7,1,1,1,-1,0,-1
20:57:47:20343,-4,-1,-9,-4,0,-1,-1,1
20:57:47:27919,7,2,2,2,-1,-2,-2,-10
20:57:47:36145,7,2,2,2,-1,-2,-2,-10
20:57:47:36883,-3,-1,-4,-1,-3,-1,-2,-2
20:57:47:50383,1,1,-2,3,0,1,-4,1
20:57:47:58606,1,1,-2,3,0,1,-4,1
20:57:47:59393,-2,-49,-7,-9,-3,-3,-6,-5
20:57:47:65319,0,-33,-8,6,2,0,2,1
20:57:47:72942,0,-33,-8,6,2,0,2,1
20:57:47:80403,4,-7,2,-26,-1,1,-5,-1
20:57:47:87868,-13,-9,13,-4,1,-1,-1,-3
20:57:47:96085,-13,-9,13,-4,1,-1,-1,-3
20:57:47:96891,-1,10,-3,10,-2,-3,0,1
20:57:47:110347,-6,18,2,-1,-4,-4,-1,-1
20:57:47:118574,-6,18,2,-1,-4,-4,-1,-1
20:57:47:119405,0,18,5,3,-2,-2,-2,4
20:57:47:125335,5,0,-17,-1,-3,-5,-9,25
20:57:47:132932,5,0,-17,-1,-3,-5,-9,25
20:57:47:140346,-2,8,2,3,-1,-1,-6,-10
20:57:47:147857,3,5,-2,-4,-2,-1,-1,-5
20:57:47:156117,3,5,-2,-4,-2,-1,-1,-5
20:57:47:156913,2,-10,-14,4,0,-3,0,4
20:57:47:170361,2,1,-15,-60,-9,1,2,-5
20:57:47:178617,2,1,-15,-60,-9,1,2,-5
20:57:47:179394,-7,16,6,11,5,1,2,-5
20:57:47:185355,1,14,10,20,4,-1,0,-3
20:57:47:192953,1,14,10,20,4,-1,0,-3
20:57:47:200406,1,4,3,5,0,1,3,6
20:57:47:207876,-4,2,-8,3,-1,3,4,-2
20:57:47:216098,-4,2,-8,3,-1,3,4,-2
20:57:47:216842,0,9,5,1,3,0,1,7
20:57:47:230368,2,-1,-10,4,-4,-4,-3,-9
20:57:47:238634,2,-1,-10,4,-4,-4,-3,-9
20:57:47:239426,-9,-3,6,9,8,6,3,0
20:57:47:253591,1,-8,-8,16,-1,-3,-1,-4
20:57:47:254396,1,-8,-8,16,-1,-3,-1,-4
20:57:47:260372,-3,-17,-9,-7,-6,-6,-3,-4
20:57:47:267841,-2,-13,12,-29,-5,0,-2,-1
20:57:47:276049,-2,-13,12,-29,-5,0,-2,-1
20:57:47:276855,7,-7,-1,-7,-2,-2,-4,-1
20:57:47:290354,-4,-1,7,8,1,-1,0,-1
20:57:47:298581,-4,-1,7,8,1,-1,0,-1
20:57:47:299420,-6,6,-16,0,-2,2,-1,-2
20:57:47:305361,-2,4,-5,9,-1,-2,0,1
20:57:47:312884,-2,4,-5,9,-1,-2,0,1
20:57:47:320378,0,12,11,2,0,0,-1,0
20:57:47:327908,-1,3,12,3,3,0,1,-2
20:57:47:336077,-1,3,12,3,3,0,1,-2
20:57:47:336847,3,1,-4,-17,-4,-2,-3,1
20:57:47:350408,0,42,13,17,2,0,-2,0
20:57:47:359278,0,42,13,17,2,0,-2,0
20:57:47:360057,-1,-1,-1,6,-4,-2,-2,2
20:57:47:374240,-1,-1,7,4,0,0,-8,-1
20:57:47:375049,-1,-1,7,4,0,0,-8,-1
20:57:47:380404,0,4,5,-4,-3,-2,1,-3
20:57:47:387892,2,-8,1,0,3,4,16,4
20:57:47:395406,2,-8,1,0,3,4,16,4
20:57:47:402884,-1,-5,-12,-8,-3,-5,-37,-4
20:57:47:410401,-11,-11,-12,-11,-3,0,24,12
20:57:47:418599,-11,-11,-12,-11,-3,0,24,12
20:57:47:419340,0,2,15,6,-3,-2,9,2
20:57:47:433567,0,3,8,-3,1,-5,-13,-9
20:57:47:434346,0,3,8,-3,1,-5,-13,-9
20:57:47:440375,0,2,-9,-7,-3,2,-1,0
20:57:47:447903,-2,-8,-10,0,-3,-2,-3,-4
20:57:47:455420,-2,-8,-10,0,-3,-2,-3,-4
20:57:47:462874,-3,2,-23,-8,1,-3,0,4
20:57:47:470331,-5,-25,-4,-13,-10,-5,-3,7
20:57:47:478562,-5,-25,-4,-13,-10,-5,-3,7
20:57:47:479375,0,12,17,5,0,-2,4,-8
20:57:47:493557,9,-5,8,1,11,7,2,20
20:57:47:494376,9,-5,8,1,11,7,2,20
20:57:47:500328,-8,1,25,7,-5,-4,-2,-7
20:57:47:507831,-2,-10,-12,-3,-10,-7,-37,-9
20:57:47:515402,-2,-10,-12,-3,-10,-7,-37,-9
20:57:47:522858,1,2,-18,3,7,12,34,-2
20:57:47:530391,5,18,-20,5,6,4,7,5
20:57:47:538665,5,18,-20,5,6,4,7,5
20:57:47:539377,-2,2,15,14,-10,-12,-9,-9
20:57:47:553550,-2,-6,14,3,-3,-4,-5,-9
20:57:47:554394,-2,-6,14,3,-3,-4,-5,-9
20:57:47:560352,8,11,20,-16,14,9,6,7
20:57:47:567902,-3,0,96,31,-9,-7,-4,-15
20:57:47:575438,-3,0,96,31,-9,-7,-4,-15
20:57:47:582861,-4,-6,32,12,-8,-6,-5,2
20:57:47:590353,1,10,-10,-17,6,6,4,-9
20:57:47:598617,1,10,-10,-17,6,6,4,-9
20:57:47:599404,-5,-15,-28,7,-9,-6,-5,-2
20:57:47:613633,4,10,-19,-1,-3,-2,2,-1
20:57:47:614412,4,10,-19,-1,-3,-2,2,-1
20:57:47:620358,1,-2,-11,-10,3,3,-2,-1
20:57:47:627860,0,7,-5,12,2,8,2,-1
20:57:47:635476,0,7,-5,12,2,8,2,-1
20:57:47:642882,-2,-7,-25,-1,3,0,-1,-1
20:57:47:650394,-4,-11,-23,-13,2,0,-2,-3
20:57:47:658560,-4,-11,-23,-13,2,0,-2,-3
20:57:47:659340,5,13,6,4,7,3,5,3
20:57:47:673562,-2,3,-24,-2,-6,-7,-5,-4
20:57:47:674346,-2,3,-24,-2,-6,-7,-5,-4
20:57:47:680384,-2,-4,5,16,7,8,4,-1
20:57:47:687880,-1,-10,-12,-21,-1,0,-5,-4
20:57:47:695387,-1,-10,-12,-21,-1,0,-5,-4
20:57:47:702889,-1,-7,-18,-20,-9,-9,-6,-2
20:57:47:710388,-2,-5,-9,12,-1,-3,1,-2
20:57:47:718583,-2,-5,-9,12,-1,-3,1,-2
20:57:47:719373,2,-1,-4,0,-4,-3,-3,-3
20:57:47:733530,-17,-12,-10,-8,-7,-6,-1,-1
20:57:47:734342,-17,-12,-10,-8,-7,-6,-1,-1
20:57:47:740383,-4,-4,7,-5,-2,-3,-3,-2
20:57:47:747894,-3,1,-25,0,-2,-3,3,-3
20:57:47:755428,-3,1,-25,0,-2,-3,3,-3
20:57:47:762828,1,-7,-14,-1,-3,-5,-7,-3
20:57:47:770347,4,1,23,8,0,1,1,0
20:57:47:778581,4,1,23,8,0,1,1,0
20:57:47:779371,-1,-2,-12,-5,-4,0,1,-1
20:57:47:793565,0,-3,-10,-14,-5,-7,-3,-4
20:57:47:794390,0,-3,-10,-14,-5,-7,-3,-4
20:57:47:800379,-1,-2,-5,-19,6,3,-4,0
20:57:47:807845,2,1,7,-14,6,0,1,0
20:57:47:815415,2,1,7,-14,6,0,1,0
20:57:47:822861,-1,0,-7,3,-10,-4,1,-2
20:57:47:830378,1,-5,-8,-6,-2,0,0,0
20:57:47:838608,1,-5,-8,-6,-2,0,0,0
20:57:47:839382,-2,-2,1,0,-2,1,-1,0
20:57:47:854040,-1,-5,0,4,4,-1,-3,-4
20:57:47:854848,-1,-5,0,4,4,-1,-3,-4
20:57:47:860360,-9,1,4,0,5,-2,4,2
20:57:47:867862,-3,-6,-13,-3,-8,-5,-1,1
20:57:47:875446,-3,-6,-13,-3,-8,-5,-1,1
20:57:47:891030,4,-7,1,6,-4,-2,2,-3
20:57:47:891812,-3,4,3,6,6,2,2,0
20:57:47:898599,-3,4,3,6,6,2,2,0
20:57:47:899378,0,2,0,-12,-7,-2,-4,-1
20:57:47:913998,3,1,-8,-2,-1,-1,2,1
20:57:47:921127,3,1,-8,-2,-1,-1,2,1
20:57:47:921876,2,2,0,4,0,-3,-7,-3
20:57:47:927829,1,5,5,-4,-3,1,-3,-1
20:57:47:935403,1,5,5,-4,-3,1,-3,-1
20:57:47:942876,-4,-6,-5,-2,2,0,1,0
20:57:47:950352,0,-5,-2,-3,-6,-5,-3,-2
20:57:47:966065,0,-5,-2,-3,-6,-5,-3,-2
20:57:47:966887,7,3,2,1,3,1,1,2
20:57:47:981712,-1,0,7,1,-3,1,0,-4
20:57:47:982518,-1,0,7,1,-3,1,0,-4
20:57:47:983318,-2,-1,-5,-3,-1,-1,-2,-5
20:57:47:987841,-20,-7,-1,2,-1,-6,-3,0
20:57:47:995439,-20,-7,-1,2,-1,-6,-3,0
20:57:48:2849,-7,-1,3,2,1,0,0,3
20:57:48:10355,2,0,4,-2,5,0,-1,3
20:57:48:18654,2,0,4,-2,5,0,-1,3
20:57:48:19374,-1,-1,-5,-1,-3,-2,-1,-3
20:57:48:33594,2,7,13,-6,3,3,2,-1
20:57:48:34379,2,7,13,-6,3,3,2,-1
20:57:48:40380,-2,-3,-8,-4,-4,-1,1,0
20:57:48:47835,7,0,-2,-6,-4,-3,-2,-2
20:57:48:55417,7,0,-2,-6,-4,-3,-2,-2
20:57:48:62881,0,13,5,3,2,-1,-1,1
20:57:48:70403,-7,-10,-6,2,4,0,2,-3
20:57:48:86085,-7,-10,-6,2,4,0,2,-3
20:57:48:86874,1,-5,-15,-2,0,-1,0,-1
20:57:48:93588,2,0,-1,2,0,3,1,-1
20:57:48:94375,2,0,-1,2,0,3,1,-1
20:57:48:100368,0,-5,7,0,-1,-2,-1,-4
20:57:48:107883,2,-3,0,-1,-3,1,-2,-1
20:57:48:115450,2,-3,0,-1,-3,1,-2,-1
20:57:48:122869,-1,-3,5,-1,2,2,3,-2
20:57:48:139247,-6,-1,0,1,-5,-2,0,-2
20:57:48:140064,-6,-1,0,1,-5,-2,0,-2
20:57:48:140854,-3,-2,7,-3,0,2,-1,-1
20:57:48:153552,5,2,9,8,0,-2,0,1
20:57:48:154369,5,2,9,8,0,-2,0,1
20:57:48:160367,-5,-1,-26,-6,-6,-2,-4,-2
20:57:48:167868,0,1,-13,-2,-1,0,-2,1
20:57:48:175445,0,1,-13,-2,-1,0,-2,1
20:57:48:182869,9,1,8,4,5,1,1,4
20:57:48:190408,6,-1,-9,4,2,6,-1,1
20:57:48:198587,6,-1,-9,4,2,6,-1,1
20:57:48:199399,-3,2,2,-2,-2,-1,-4,-3
20:57:48:213566,7,3,1,2,0,1,2,-3
20:57:48:214378,7,3,1,2,0,1,2,-3
20:57:48:220367,2,-4,1,-3,-4,-1,3,-2
20:57:48:227908,-2,1,-1,-7,-6,-5,-2,0
20:57:48:235467,-2,1,-1,-7,-6,-5,-2,0
20:57:48:242865,-16,1,8,1,-1,-2,-3,-2
20:57:48:259234,-4,-2,1,-1,-3,-1,0,-3
20:57:48:260033,-4,-2,1,-1,-3,-1,0,-3
20:57:48:260851,1,0,3,-1,0,-2,3,0
20:57:48:273580,1,6,-2,-1,3,1,0,1
20:57:48:274373,1,6,-2,-1,3,1,0,1
20:57:48:280360,7,-6,3,0,-1,-3,-3,-2
20:57:48:296067,8,2,2,6,4,1,-1,-1
20:57:48:296874,8,2,2,6,4,1,-1,-1
20:57:48:302836,-3,-12,-7,-2,-2,-2,-2,-1
20:57:48:310336,0,-1,4,-1,2,-1,0,-2
20:57:48:317943,0,-1,4,-1,2,-1,0,-2
20:57:48:325360,-1,2,8,1,0,-2,-1,-4
20:57:48:333588,-7,-3,5,-2,-6,-5,-5,-5
20:57:48:334371,-7,-3,5,-2,-6,-5,-5,-5
20:57:48:340370,-1,4,-2,-3,-4,-1,-2,1
20:57:48:356068,-3,1,-3,-3,-2,-2,-1,-7
20:57:48:356901,-3,1,-3,-3,-2,-2,-1,-7
20:57:48:362867,-2,1,-4,-1,-2,-2,0,-1
20:57:48:370365,3,-1,-4,-4,-3,-2,-1,1
20:57:48:377943,3,-1,-4,-4,-3,-2,-1,1
20:57:48:385359,1,-10,-3,-1,-2,-2,0,-2
20:57:48:393515,-8,-12,-1,-2,0,0,0,2
20:57:48:394353,-8,-12,-1,-2,0,0,0,2
20:57:48:400380,-4,7,-8,-4,0,-2,-3,1
20:57:48:416061,-1,1,-1,-2,-3,-1,-3,0
20:57:48:416922,-1,1,-1,-2,-3,-1,-3,0
20:57:48:422861,3,-2,3,-2,-2,0,-1,0
20:57:48:430384,0,-1,-1,-3,-2,-1,1,0
20:57:48:437910,0,-1,-1,-3,-2,-1,1,0
20:57:48:445423,-4,2,2,0,0,-2,-2,-5
20:57:48:453557,3,-1,-4,-2,-1,-2,-1,1
20:57:48:454347,3,-1,-4,-2,-1,-2,-1,1
20:57:48:460361,2,-4,-4,5,-3,1,0,-2
20:57:48:476037,-6,3,4,-1,-1,-3,-3,-1
20:57:48:476855,-6,3,4,-1,-1,-3,-3,-1
20:57:48:482877,1,0,0,1,-2,-2,-1,-3
20:57:48:490373,-12,-11,1,-6,-3,0,-2,-2
20:57:48:497961,-12,-11,1,-6,-3,0,-2,-2
20:57:48:505361,6,-4,-1,-4,0,-1,-1,1
20:57:48:513545,4,1,-4,-1,-1,-1,0,-2
20:57:48:514404,4,1,-4,-1,-1,-1,0,-2
20:57:48:520331,-4,0,0,-3,2,0,-2,1
20:57:48:536039,-1,-9,-9,1,-3,-3,-1,0
20:57:48:536873,-1,-9,-9,1,-3,-3,-1,0
20:57:48:542855,-2,2,-3,-3,0,-4,0,-1
20:57:48:550381,-1,-3,1,-1,-1,0,1,1
20:57:48:557920,-1,-3,1,-1,-1,0,1,1
20:57:48:565401,-5,1,-1,0,-1,-3,-2,-1
20:57:48:573610,-1,1,1,1,-1,-1,-1,-2
20:57:48:574384,-1,1,1,1,-1,-1,-1,-2
20:57:48:587842,-3,-1,0,0,0,1,-1,0
20:57:48:596062,5,4,0,-2,1,1,-2,0
20:57:48:596900,5,4,0,-2,1,1,-2,0
20:57:48:602841,-7,-2,0,-2,0,2,1,-1
20:57:48:610351,7,2,3,2,3,2,0,1
20:57:48:617905,7,2,3,2,3,2,0,1
20:57:48:625408,-4,-5,-1,-1,-3,-1,-1,1
20:57:48:633570,-3,2,2,1,-1,-2,-1,-1
20:57:48:634414,-3,2,2,1,-1,-2,-1,-1
20:57:48:640388,8,0,-2,1,0,-2,1,-1
20:57:48:656078,3,-3,-2,-4,-3,-2,-3,0
20:57:48:656889,3,-3,-2,-4,-3,-2,-3,0
20:57:48:662867,0,8,-1,-5,-2,-2,-1,-2
20:57:48:678608,1,2,3,1,0,1,-3,0
20:57:48:679405,1,2,3,1,0,1,-3,0
20:57:48:685363,2,-1,3,0,0,-1,-1,-1
20:57:48:693577,-10,2,-3,-3,-2,-1,-2,-2
20:57:48:694389,-10,2,-3,-3,-2,-1,-2,-2
20:57:48:700391,-8,-7,2,3,1,-1,-1,-1
20:57:48:716079,5,-2,-4,-12,4,0,-1,0
20:57:48:716890,5,-2,-4,-12,4,0,-1,0
20:57:48:722863,0,-4,-3,1,-1,0,0,1
20:57:48:730371,0,1,0,-2,-4,-4,2,-1
20:57:48:737975,0,1,0,-2,-4,-4,2,-1
20:57:48:745366,0,-3,-3,0,-1,-1,-2,-1
20:57:48:753568,-6,-4,-1,0,-3,0,-1,-1
20:57:48:754366,-6,-4,-1,0,-3,0,-1,-1
20:57:48:760387,4,-4,-1,1,-2,-2,-1,-2
20:57:48:776077,1,-9,-5,0,-4,-1,-1,0
20:57:48:776917,1,-9,-5,0,-4,-1,-1,0
20:57:48:782873,0,2,-1,-2,0,0,-1,0
20:57:48:798578,-3,3,1,2,0,0,1,-1
20:57:48:799393,-3,3,1,2,0,0,1,-1
20:57:48:805355,2,-1,-1,-4,-2,0,0,4
20:57:48:813556,3,1,0,3,-1,-3,-1,-2
20:57:48:814357,3,1,0,3,-1,-3,-1,-2
20:57:48:820354,-8,0,1,-4,-3,-4,-2,-5
20:57:48:836056,0,-1,-4,2,-1,0,-2,-2
20:57:48:836875,0,-1,-4,2,-1,0,-2,-2
20:57:48:842876,-2,-3,-1,-3,-2,-1,0,-1
20:57:48:850353,-5,-5,-1,0,1,0,-1,-2
20:57:48:857941,-5,-5,-1,0,1,0,-1,-2
20:57:48:865368,-1,-2,-4,-2,0,1,0,-1
20:57:48:873538,4,2,2,0,-1,-1,-1,-1
20:57:48:874353,4,2,2,0,-1,-1,-1,-1
20:57:48:880386,-2,-11,-2,-2,1,-1,0,0
20:57:48:896040,-8,-3,-1,0,-1,-3,-1,-2
20:57:48:896864,-8,-3,-1,0,-1,-3,-1,-2
20:57:48:902909,-2,4,-2,-1,-1,0,-4,-1
20:57:48:918572,0,0,1,-2,0,-2,0,1
20:57:48:919429,0,0,1,-2,0,-2,0,1
20:57:48:925375,4,4,1,0,0,-1,-1,-3
20:57:48:933531,-1,5,-1,-1,-2,0,0,1
20:57:48:934365,-1,5,-1,-1,-2,0,0,1
20:57:48:947862,1,1,2,1,-3,0,-1,-1
20:57:48:956067,0,-2,-1,-2,-1,-2,0,-4
20:57:48:956886,0,-2,-1,-2,-1,-2,0,-4
20:57:48:962880,-2,-1,-2,0,1,0,-1,1
20:57:48:970374,3,1,0,-1,-2,-2,-1,0
20:57:48:977885,3,1,0,-1,-2,-2,-1,0
20:57:48:985372,3,1,-1,2,-2,-1,0,-3
20:57:48:993549,-2,-2,-1,0,-2,-1,-1,-3
20:57:48:994357,-2,-2,-1,0,-2,-1,-1,-3
20:57:49:346,-5,-1,-1,-1,-1,1,0,-4
20:57:49:16065,1,-6,-1,0,-2,0,1,1
20:57:49:16854,1,-6,-1,0,-2,0,1,1
20:57:49:22867,-5,-4,-2,0,0,-1,-1,-1
20:57:49:30413,-1,3,0,-1,0,-1,0,-1
20:57:49:37918,-1,3,0,-1,0,-1,0,-1
20:57:49:45341,-5,-7,-2,-3,-2,-2,-3,-1
20:57:49:53615,5,2,0,0,1,0,-2,2
20:57:49:54368,5,2,0,0,1,0,-2,2
20:57:49:60376,-17,3,-1,1,-2,0,0,-3
20:57:49:76121,6,-7,-11,-4,-1,-2,-2,-1
20:57:49:76922,6,-7,-11,-4,-1,-2,-2,-1
20:57:49:82862,7,-7,-1,-3,-2,-1,0,1
20:57:49:90376,-5,-2,-2,0,0,0,-1,-2
20:57:49:97955,-5,-2,-2,0,0,0,-1,-2
20:57:49:105344,3,-2,-3,-1,-1,-2,-2,1
20:57:49:113605,0,-1,0,-1,0,-2,-1,-2
20:57:49:114379,0,-1,0,-1,0,-2,-1,-2
20:57:49:127930,-4,3,1,-2,-2,-2,1,-1
20:57:49:136048,-12,-4,0,0,-1,1,0,-6
20:57:49:136903,-12,-4,0,0,-1,1,0,-6
20:57:49:142865,3,0,-2,-1,1,1,-2,-1
20:57:49:150366,-6,-6,-2,-2,-2,-2,-2,-1
20:57:49:158014,-6,-6,-2,-2,-2,-2,-2,-1
20:57:49:165397,4,3,1,0,-2,-1,0,-1
20:57:49:173592,-3,3,-1,-2,-2,-2,-1,-2
20:57:49:174389,-3,3,-1,-2,-2,-2,-1,-2
20:57:49:180407,6,-5,0,-2,0,-2,-2,1
20:57:49:196129,-1,-3,3,-4,0,-1,0,-1
20:57:49:196945,-1,-3,3,-4,0,-1,0,-1
20:57:49:202874,9,2,-3,-1,-2,-1,0,-2
