Time,EMG1,EMG2,EMG3,EMG4,EMG5,EMG6,EMG7,EMG8
13:43:38:502191,-3,-4,-2,2,8,0,-10,-1
13:43:38:510252,-3,-4,-2,2,8,0,-10,-1
13:43:38:511020,-4,-4,-7,20,10,4,4,0
13:43:38:525313,-3,-1,-15,-17,-35,-33,-16,-8
13:43:38:526133,-3,-1,-15,-17,-35,-33,-16,-8
13:43:38:532094,1,4,2,-12,38,53,12,2
13:43:38:539566,-1,1,4,7,-5,2,-2,-2
13:43:38:547119,-1,1,4,7,-5,2,-2,-2
13:43:38:554638,-2,-1,-4,-3,-14,-15,-5,-2
13:43:38:562215,-1,0,-4,-10,-8,1,2,2
13:43:38:570309,-1,0,-4,-10,-8,1,2,2
13:43:38:571063,-1,-1,2,44,-30,-10,-1,-2
13:43:38:585344,-1,0,7,11,29,31,3,4
13:43:38:586040,-1,0,7,11,29,31,3,4
13:43:38:592084,-1,-2,10,-4,-12,-1,-2,-4
13:43:38:599658,-1,-3,-3,-10,-17,-23,-11,-2
13:43:38:615320,-1,-3,-3,-10,-17,-23,-11,-2
13:43:38:616116,-1,3,0,-16,-3,-2,1,-1
13:43:38:622134,-1,-1,-2,4,6,7,8,-1
13:43:38:637877,-1,-1,-2,4,6,7,8,-1
13:43:38:638603,-1,-4,0,-9,29,10,2,-2
13:43:38:645279,1,0,-4,-18,-4,-16,-2,0
13:43:38:646040,1,0,-4,-18,-4,-16,-2,0
13:43:38:660279,-4,-1,1,-9,-4,-13,-6,-5
13:43:38:661062,-2,2,3,-2,-7,-2,-3,-4
13:43:38:667347,-2,2,3,-2,-7,-2,-3,-4
13:43:38:674588,2,0,-9,-6,7,13,6,1
13:43:38:682151,-8,-5,4,4,-8,-28,-12,-10
13:43:38:690236,-8,-5,4,4,-8,-28,-12,-10
13:43:38:691116,3,5,-6,2,34,35,9,4
13:43:38:705315,-2,-2,-9,0,-19,-10,-4,-2
13:43:38:706097,-2,-2,-9,0,-19,-10,-4,-2
13:43:38:712148,-5,-9,-7,-13,-15,-24,-10,-7
13:43:38:719561,2,-2,-4,-19,15,25,14,6
13:43:38:727167,2,-2,-4,-19,15,25,14,6
13:43:38:734700,1,2,-3,-18,-19,-14,0,3
13:43:38:742086,0,2,7,1,-11,-6,-1,-2
13:43:38:750421,0,2,7,1,-11,-6,-1,-2
13:43:38:751075,0,2,2,7,-9,-10,-6,-2
13:43:38:765345,-4,-7,-10,35,1,14,-1,-3
13:43:38:766037,-4,-7,-10,35,1,14,-1,-3
13:43:38:772136,0,-3,-2,-6,-3,-4,-12,0
13:43:38:779645,-2,2,4,1,-8,-14,-2,-4
13:43:38:787134,-2,2,4,1,-8,-14,-2,-4
13:43:38:794553,-4,-6,1,3,-28,-12,0,-4
13:43:38:802161,1,3,-4,-9,11,26,13,6
13:43:38:810276,1,3,-4,-9,11,26,13,6
13:43:38:811078,0,2,10,0,-8,-3,3,3
13:43:38:825231,-3,1,27,26,3,0,-3,-4
13:43:38:826033,-3,1,27,26,3,0,-3,-4
13:43:38:832051,5,-1,-10,-12,1,-2,0,2
13:43:38:839577,-1,2,5,-5,-14,-7,7,2
13:43:38:847171,-1,2,5,-5,-14,-7,7,2
13:43:38:854561,-2,-2,-6,6,11,14,9,-1
13:43:38:862167,3,2,6,-8,25,3,-7,-3
13:43:38:870343,3,2,6,-8,25,3,-7,-3
13:43:38:871090,-1,0,-6,-2,13,-5,-2,-3
13:43:38:885704,-1,-1,-2,6,-5,-5,-7,-2
13:43:38:892808,-1,-1,-2,6,-5,-5,-7,-2
13:43:38:893549,-4,-1,7,4,-10,-7,-13,-7
13:43:38:899686,2,1,-6,7,12,7,4,3
13:43:38:915324,2,1,-6,7,12,7,4,3
13:43:38:916086,2,4,8,16,14,-11,4,-2
13:43:38:922058,1,1,1,12,0,-8,1,0
13:43:38:930752,1,1,1,12,0,-8,1,0
13:43:38:937115,1,-5,-1,12,2,-2,3,-1
13:43:38:945477,-3,-3,-13,-16,6,-2,-8,-2
13:43:38:946108,-3,-3,-13,-16,6,-2,-8,-2
13:43:38:952137,-1,-3,-4,-12,6,4,-5,0
13:43:38:967889,-1,-3,-9,-18,-10,-7,-4,-3
13:43:38:968590,-1,-3,-9,-18,-10,-7,-4,-3
13:43:38:982767,-2,-2,6,-2,-12,7,4,0
13:43:38:983485,-3,0,2,-7,2,26,0,-2
13:43:38:990245,-3,0,2,-7,2,26,0,-2
13:43:38:991059,1,-1,9,-5,-4,11,4,1
13:43:39:5270,-2,-1,3,-10,-25,-26,-8,-1
13:43:39:6033,-2,-1,3,-10,-25,-26,-8,-1
13:43:39:12155,2,8,1,3,11,3,1,0
13:43:39:19624,-1,-4,2,-4,7,7,0,-2
13:43:39:27161,-1,-4,2,-4,7,7,0,-2
13:43:39:34687,-3,0,-2,-28,-15,-2,-4,-1
13:43:39:42044,0,-3,-8,10,35,27,7,0
13:43:39:49702,0,-3,-8,10,35,27,7,0
13:43:39:57074,-1,-1,-4,-18,-16,-17,-3,-2
13:43:39:73441,1,-2,-5,-8,-13,-12,1,2
13:43:39:74256,1,-2,-5,-8,-13,-12,1,2
13:43:39:75033,-2,0,-2,20,6,0,-4,0
13:43:39:87834,-1,0,-19,-10,-29,-19,-4,-1
13:43:39:88622,-1,0,-19,-10,-29,-19,-4,-1
13:43:39:94529,-6,-7,-17,-21,1,-10,0,-4
13:43:39:102138,5,1,19,-5,11,4,-1,-2
13:43:39:109645,5,1,19,-5,11,4,-1,-2
13:43:39:117143,-2,0,-26,-25,-18,-4,0,-1
13:43:39:125274,1,4,1,15,16,10,4,3
13:43:39:126077,1,4,1,15,16,10,4,3
13:43:39:132117,-1,-3,11,0,-13,-16,-5,-4
13:43:39:147829,-2,-3,-8,-6,2,-8,-6,-1
13:43:39:148563,-2,-3,-8,-6,2,-8,-6,-1
13:43:39:154572,-3,-6,1,4,-7,9,5,-3
13:43:39:162194,-2,-2,5,8,0,9,2,2
13:43:39:169679,-2,-2,5,8,0,9,2,2
13:43:39:177061,2,3,0,-7,-6,-4,-6,3
13:43:39:185327,-1,-2,5,12,-15,-21,-3,-4
13:43:39:186120,-1,-2,5,12,-15,-21,-3,-4
13:43:39:192057,-1,-3,-4,15,40,19,4,0
13:43:39:207837,2,0,2,3,8,0,-2,-2
13:43:39:208565,2,0,2,3,8,0,-2,-2
13:43:39:214581,0,-2,7,22,-27,-9,0,1
13:43:39:222072,-1,-6,-24,-7,17,-1,-6,6
13:43:39:229747,-1,-6,-24,-7,17,-1,-6,6
13:43:39:237076,-10,-6,9,-4,10,-9,-11,-10
13:43:39:245404,6,5,6,28,27,10,12,1
13:43:39:246098,6,5,6,28,27,10,12,1
13:43:39:252184,0,-6,-17,-3,-15,-18,-11,2
13:43:39:267842,-9,-6,-14,-18,-32,-14,-17,-7
13:43:39:268602,-9,-6,-14,-18,-32,-14,-17,-7
13:43:39:282784,-4,-5,1,-4,2,12,8,-5
13:43:39:283522,4,-8,4,-6,-2,16,-1,28
13:43:39:289586,4,-8,4,-6,-2,16,-1,28
13:43:39:297143,-10,-6,-18,-3,6,-9,-6,-7
13:43:39:305336,-8,2,-1,8,35,4,-3,-16
13:43:39:306091,-8,2,-1,8,35,4,-3,-16
13:43:39:312211,10,18,7,16,4,24,12,7
13:43:39:327788,-4,8,1,-10,-14,-14,-17,-12
13:43:39:328573,-4,8,1,-10,-14,-14,-17,-12
13:43:39:334630,6,-1,5,11,-3,-13,-8,-2
13:43:39:342099,4,-27,-29,-25,-14,-12,3,12
13:43:39:349691,4,-27,-29,-25,-14,-12,3,12
13:43:39:357064,-2,53,38,15,16,13,4,5
13:43:39:365272,3,-17,3,-8,-7,-1,5,-2
13:43:39:366039,3,-17,3,-8,-7,-1,5,-2
13:43:39:372090,-7,-66,-33,-13,-2,-7,-6,-25
13:43:39:387765,9,7,-5,-5,-13,-6,3,6
13:43:39:388534,9,7,-5,-5,-13,-6,3,6
13:43:39:394614,-9,-6,16,18,2,5,-7,0
13:43:39:402145,1,-15,-7,-4,-28,-6,0,-7
13:43:39:409618,1,-15,-7,-4,-28,-6,0,-7
13:43:39:417156,-6,17,2,-11,-18,-1,-7,-1
13:43:39:425237,-3,11,33,15,12,0,3,-2
13:43:39:426021,-3,11,33,15,12,0,3,-2
13:43:39:432096,13,-18,-5,-5,-4,-23,1,13
13:43:39:447774,-22,3,-4,14,18,1,4,8
13:43:39:448576,-22,3,-4,14,18,1,4,8
13:43:39:454621,-14,-9,-20,-5,-14,-12,-5,-20
13:43:39:462204,20,7,6,-17,-13,-5,-6,-6
13:43:39:469647,20,7,6,-17,-13,-5,-6,-6
13:43:39:477050,-8,24,24,4,23,11,1,5
13:43:39:485329,-2,-2,-18,-19,12,7,0,-7
13:43:39:486082,-2,-2,-18,-19,12,7,0,-7
13:43:39:492074,26,11,-4,-9,-28,-20,4,16
13:43:39:507767,-3,9,11,19,-6,-3,-3,-6
13:43:39:508597,-3,9,11,19,-6,-3,-3,-6
13:43:39:514591,2,16,7,16,16,11,3,2
13:43:39:522064,-2,15,30,1,-15,-5,2,-5
13:43:39:529714,-2,15,30,1,-15,-5,2,-5
13:43:39:537094,-8,-28,-25,-27,-28,-16,-7,-11
13:43:39:545284,4,34,18,30,34,27,0,-1
13:43:39:546125,4,34,18,30,34,27,0,-1
13:43:39:552158,2,-7,-8,-29,-33,-10,-6,0
13:43:39:567865,-2,-5,-14,-23,-20,-1,1,-4
13:43:39:568600,-2,-5,-14,-23,-20,-1,1,-4
13:43:39:574570,5,21,-14,12,20,11,6,-15
13:43:39:582104,-26,-18,-43,-20,19,10,-7,17
13:43:39:589643,-26,-18,-43,-20,19,10,-7,17
13:43:39:597154,-3,-35,-1,0,-2,-6,-4,2
13:43:39:605264,-12,-22,19,3,-22,-23,-8,-15
13:43:39:606028,-12,-22,19,3,-22,-23,-8,-15
13:43:39:612102,-10,14,-12,2,28,10,-7,-3
13:43:39:627816,8,0,7,3,3,2,2,2
13:43:39:628603,8,0,7,3,3,2,2,2
13:43:39:634693,6,23,28,0,-14,13,9,6
13:43:39:642088,5,-29,-4,-26,-8,-11,1,0
13:43:39:649721,5,-29,-4,-26,-8,-11,1,0
13:43:39:657100,4,-3,13,18,19,8,4,8
13:43:39:665296,-4,-16,-21,-13,-20,-16,-6,-14
13:43:39:666077,-4,-16,-21,-13,-20,-16,-6,-14
13:43:39:672153,-22,-14,-16,-17,40,33,14,-20
13:43:39:687762,-1,-11,1,23,-2,12,7,1
13:43:39:688572,-1,-11,1,23,-2,12,7,1
13:43:39:694594,1,-10,-12,-4,-8,-21,-2,5
13:43:39:702163,-15,24,-10,8,10,-4,-6,2
13:43:39:709617,-15,24,-10,8,10,-4,-6,2
13:43:39:717128,6,-19,-4,-1,2,11,-6,-3
13:43:39:725260,6,-28,6,6,4,-5,1,1
13:43:39:726029,6,-28,6,6,4,-5,1,1
13:43:39:732067,2,9,-1,7,15,28,3,5
13:43:39:747763,6,9,-7,-11,-15,-9,1,-1
13:43:39:748549,6,9,-7,-11,-15,-9,1,-1
13:43:39:754582,0,-1,9,-5,-4,-12,-6,-5
13:43:39:762181,2,2,-7,1,-14,-4,-7,-8
13:43:39:769661,2,2,-7,1,-14,-4,-7,-8
13:43:39:777062,12,9,5,-16,-22,-15,-6,11
13:43:39:785369,13,37,-45,-26,-8,19,8,6
13:43:39:786103,13,37,-45,-26,-8,19,8,6
13:43:39:792062,8,29,1,9,18,8,3,15
13:43:39:807757,3,-3,12,1,-32,-20,-3,4
13:43:39:808570,3,-3,12,1,-32,-20,-3,4
13:43:39:822762,0,-12,-6,-1,12,4,0,5
13:43:39:823506,-2,7,21,30,13,1,1,-2
13:43:39:829656,-2,7,21,30,13,1,1,-2
13:43:39:837090,-4,11,17,9,2,0,2,-1
13:43:39:845256,-4,-21,-9,15,15,1,0,-6
13:43:39:846057,-4,-21,-9,15,15,1,0,-6
13:43:39:852113,-4,-3,18,11,-10,-9,-8,-6
13:43:39:867850,-2,1,23,-11,-20,5,4,2
13:43:39:868599,-2,1,23,-11,-20,5,4,2
13:43:39:874524,1,-6,-12,2,-4,15,10,3
13:43:39:882124,-2,7,-3,-11,-21,-18,-3,-2
13:43:39:889626,-2,7,-3,-11,-21,-18,-3,-2
13:43:39:897105,-4,-6,-10,-4,-9,-16,-2,-4
13:43:39:905303,-3,7,-13,-24,-7,-5,-3,-2
13:43:39:906096,-3,7,-13,-24,-7,-5,-3,-2
13:43:39:912231,-3,-21,19,5,10,4,-2,-4
13:43:39:927761,-5,-2,3,6,-2,-4,-1,-3
13:43:39:928613,-5,-2,3,6,-2,-4,-1,-3
13:43:39:934650,-2,-4,4,-15,0,-4,-2,-4
13:43:39:942095,-4,-16,7,-25,2,2,-2,-3
13:43:39:949776,-4,-16,7,-25,2,2,-2,-3
13:43:39:957095,0,6,-7,2,8,11,2,0
13:43:39:965386,-2,6,-4,3,0,-1,0,-3
13:43:39:966131,-2,6,-4,3,0,-1,0,-3
13:43:39:972101,-5,-4,-9,7,-18,-34,-6,-2
13:43:39:987826,4,5,25,31,58,24,10,4
13:43:39:988632,4,5,25,31,58,24,10,4
13:43:39:994599,-3,0,-19,-10,-22,-19,-9,-4
13:43:40:10385,-5,-3,-24,-30,5,-3,-5,-4
13:43:40:11160,-5,-3,-24,-30,5,-3,-5,-4
13:43:40:17148,5,12,-10,-8,9,9,4,3
13:43:40:25292,4,1,9,-3,-21,7,37,7
13:43:40:26100,4,1,9,-3,-21,7,37,7
13:43:40:39595,-6,-6,-7,5,-10,-3,-10,-7
13:43:40:47812,6,5,9,24,28,15,3,0
13:43:40:48588,6,5,9,24,28,15,3,0
13:43:40:54569,1,-12,-4,16,17,20,17,1
13:43:40:70779,-1,-1,8,6,16,4,-3,-7
13:43:40:71554,-1,-1,8,6,16,4,-3,-7
13:43:40:77090,-2,-2,8,-39,-35,-26,-19,-5
13:43:40:92775,-6,-6,-20,5,-8,4,-9,-2
13:43:40:93556,-6,-6,-20,5,-8,4,-9,-2
13:43:40:99615,-1,4,25,14,11,18,9,-2
13:43:40:107772,-4,-4,-3,-15,-35,-53,-41,-9
13:43:40:108581,-4,-4,-3,-15,-35,-53,-41,-9
13:43:40:114654,-1,4,-12,17,53,32,10,-1
13:43:40:130341,-1,4,-12,17,53,32,10,-1
13:43:40:131073,2,-4,14,17,0,-15,-5,-5
13:43:40:137045,0,-5,-15,3,-11,-17,0,1
13:43:40:145409,0,-5,-15,3,-11,-17,0,1
13:43:40:146076,5,7,33,0,4,14,5,6
13:43:40:159539,2,6,3,6,21,3,-1,1
13:43:40:167865,2,6,3,6,21,3,-1,1
13:43:40:168552,-5,-12,-5,-20,-38,-24,-5,-3
13:43:40:174545,3,1,-16,-9,-1,17,10,6
13:43:40:190284,3,1,-16,-9,-1,17,10,6
13:43:40:191052,3,5,-4,6,37,27,37,6
13:43:40:197079,-6,-2,34,-19,-47,-40,-15,-8
13:43:40:205289,-6,-2,34,-19,-47,-40,-15,-8
13:43:40:206095,-4,-1,-7,-4,-13,-3,-18,-5
13:43:40:228430,-6,-17,1,3,1,5,-5,0
13:43:40:229207,-6,-17,1,3,1,5,-5,0
13:43:40:230039,-1,-1,-8,11,15,0,-13,-2
13:43:40:234698,-1,-3,-2,-11,-4,-19,-15,-7
13:43:40:258511,-1,-3,-2,-11,-4,-19,-15,-7
13:43:40:259243,2,2,-7,26,16,39,15,1
13:43:40:260044,4,3,-3,3,-1,-9,-9,0
13:43:40:265343,4,3,-3,3,-1,-9,-9,0
13:43:40:266132,-5,-3,-3,-19,-31,-26,-9,-5
13:43:40:279578,-1,6,20,10,15,5,3,0
13:43:40:287822,-1,6,20,10,15,5,3,0
13:43:40:288599,-8,-13,-20,-25,-12,-2,-5,-8
13:43:40:294645,2,10,-19,-20,0,11,7,3
13:43:40:310358,2,10,-19,-20,0,11,7,3
13:43:40:311108,-4,2,0,10,-12,-21,-12,-6
13:43:40:317172,4,3,0,13,44,21,30,7
13:43:40:332905,4,3,0,13,44,21,30,7
13:43:40:333539,-3,-15,-17,-15,-3,-19,-4,10
13:43:40:339555,2,9,-14,0,-31,-9,-8,-11
13:43:40:347829,2,9,-14,0,-31,-9,-8,-11
13:43:40:348593,2,12,1,-5,-8,-2,-4,-7
13:43:40:354606,-1,-11,-6,6,-5,0,-6,0
13:43:40:370356,-1,-11,-6,6,-5,0,-6,0
13:43:40:371070,1,-6,-3,6,7,33,7,3
13:43:40:377074,1,3,-1,15,-50,-48,-13,-4
13:43:40:392753,1,3,-1,15,-50,-48,-13,-4
13:43:40:393578,2,8,-17,15,45,38,15,10
13:43:40:399723,-3,-12,10,-21,-14,1,5,2
13:43:40:407826,-3,-12,10,-21,-14,1,5,2
13:43:40:408557,-3,0,-2,-11,-32,-44,-26,-5
13:43:40:414627,0,-1,-7,19,46,40,3,-3
13:43:40:430795,0,-1,-7,19,46,40,3,-3
13:43:40:437715,3,-12,3,-10,-25,-5,-3,-6
13:43:40:438514,-8,-11,-4,-16,-26,-20,-17,-4
13:43:40:452626,-8,-11,-4,-16,-26,-20,-17,-4
13:43:40:460379,-1,-15,3,1,19,7,5,4
13:43:40:461075,-5,-24,3,-5,7,14,2,18
13:43:40:467881,-5,-24,3,-5,7,14,2,18
13:43:40:468610,-11,-18,-14,-9,-17,-19,-9,-16
13:43:40:474592,2,-5,-22,-4,27,-1,7,-4
13:43:40:490242,2,-5,-22,-4,27,-1,7,-4
13:43:40:491021,-7,7,29,24,52,36,32,-7
13:43:40:497164,-6,0,-12,-21,-34,-17,-10,-7
13:43:40:512868,-6,0,-12,-21,-34,-17,-10,-7
13:43:40:513569,6,4,1,-12,-9,-11,-8,4
13:43:40:519590,0,-5,-14,3,3,10,3,9
13:43:40:527766,0,-5,-14,3,3,10,3,9
13:43:40:528543,7,14,-7,-9,-12,-8,6,7
13:43:40:534632,4,18,-3,5,18,12,2,-3
13:43:40:550348,4,18,-3,5,18,12,2,-3
13:43:40:551029,2,-2,13,2,-8,-19,-9,-1
13:43:40:557076,-6,-12,15,18,-9,-5,-1,-14
13:43:40:572835,-6,-12,15,18,-9,-5,-1,-14
13:43:40:573581,-14,-2,3,12,10,-4,-13,-33
13:43:40:579655,3,-5,-13,0,2,1,4,11
13:43:40:587787,3,-5,-13,0,2,1,4,11
13:43:40:588550,4,2,-10,-21,2,-3,-3,18
13:43:40:594573,-1,6,-9,-15,-7,3,-1,-3
13:43:40:610329,-1,6,-9,-15,-7,3,-1,-3
13:43:40:611090,3,21,10,-2,-5,-5,-8,3
13:43:40:617181,-2,-13,0,-6,-12,5,0,6
13:43:40:632874,-2,-13,0,-6,-12,5,0,6
13:43:40:633624,2,-14,-6,-2,-16,10,-3,-9
13:43:40:639535,-14,17,16,4,-25,-31,-10,-14
13:43:40:647838,-14,17,16,4,-25,-31,-10,-14
13:43:40:648609,4,46,11,3,5,15,5,1
13:43:40:654577,-1,16,-20,4,21,3,7,9
13:43:40:670327,-1,16,-20,4,21,3,7,9
13:43:40:671108,-4,-15,-28,-13,-10,0,7,5
13:43:40:677073,-4,6,21,-7,-16,-14,-14,-9
13:43:40:692784,-4,6,21,-7,-16,-14,-14,-9
13:43:40:693555,-2,5,3,14,31,15,-4,12
13:43:40:699619,-1,-32,7,-6,0,1,-3,-5
13:43:40:707821,-1,-32,7,-6,0,1,-3,-5
13:43:40:708594,-4,-16,8,2,-15,-11,-5,3
13:43:40:714573,2,9,11,-6,-12,8,-1,-3
13:43:40:730332,2,9,11,-6,-12,8,-1,-3
13:43:40:731099,2,2,4,12,20,-2,5,2
13:43:40:737093,0,7,14,-3,-11,-14,10,-7
13:43:40:752832,0,7,14,-3,-11,-14,10,-7
13:43:40:753592,-7,-51,44,0,-1,12,1,7
13:43:40:759587,7,2,-3,1,0,19,19,20
13:43:40:767849,7,2,-3,1,0,19,19,20
13:43:40:768594,7,6,-11,2,6,-7,0,12
13:43:40:774544,-4,-15,2,-1,4,-9,-20,-9
13:43:40:790280,-4,-15,2,-1,4,-9,-20,-9
13:43:40:791086,-2,8,-16,-12,-10,-14,-4,-11
13:43:40:797092,1,-17,-18,16,38,19,7,3
13:43:40:805318,1,-17,-18,16,38,19,7,3
13:43:40:806122,-3,-2,-3,-5,-10,-4,-1,2
13:43:40:819570,-4,-20,-51,-19,-7,-3,0,-3
13:43:40:827813,-4,-20,-51,-19,-7,-3,0,-3
13:43:40:828552,0,3,-10,8,4,-4,-4,-1
13:43:40:834663,-4,-5,4,3,1,2,-10,-6
13:43:40:850401,-4,-5,4,3,1,2,-10,-6
13:43:40:851167,1,14,-3,-2,-18,1,5,-5
13:43:40:857029,-2,13,8,-1,-4,-8,-3,16
13:43:40:865356,-2,13,8,-1,-4,-8,-3,16
13:43:40:866106,5,-4,1,0,-5,-2,-2,5
13:43:40:879615,-1,26,41,13,11,8,-3,-5
13:43:40:887833,-1,26,41,13,11,8,-3,-5
13:43:40:888613,-4,-18,9,-10,-17,-8,-6,-11
13:43:40:894559,3,12,9,-4,-6,-2,4,-5
13:43:40:910321,3,12,9,-4,-6,-2,4,-5
13:43:40:911073,2,13,-2,0,9,13,1,0
13:43:40:917090,3,-3,-6,-25,-28,-6,-2,18
13:43:40:925320,3,-3,-6,-25,-28,-6,-2,18
13:43:40:926051,3,5,-11,-9,-15,-8,-4,-3
13:43:40:939574,-9,-4,12,10,-3,-2,0,-14
13:43:40:955342,-9,-4,12,10,-3,-2,0,-14
13:43:40:956100,-16,-7,-12,-4,-4,-10,-10,-35
13:43:40:962104,6,1,-13,5,14,-1,5,-4
13:43:40:978472,6,1,-13,5,14,-1,5,-4
13:43:40:979287,4,17,7,-1,14,17,10,10
13:43:40:980106,-7,8,0,-12,14,0,-8,-15
13:43:40:984678,-7,8,0,-12,14,0,-8,-15
13:43:40:992095,5,7,17,17,-1,-6,-6,7
13:43:40:999702,1,-16,-21,10,7,-8,-3,6
13:43:41:7774,1,-16,-21,10,7,-8,-3,6
13:43:41:8549,2,-33,-12,-13,-3,2,-7,2
13:43:41:22134,-4,-3,8,4,-11,2,2,0
13:43:41:30318,-4,-3,8,4,-11,2,2,0
13:43:41:31042,-4,1,-3,-5,-8,-4,3,-36
13:43:41:37108,-1,-20,-7,0,3,4,8,-4
13:43:41:44617,-1,-20,-7,0,3,4,8,-4
13:43:41:52084,-2,20,18,8,6,2,-4,4
13:43:41:59534,-1,24,-5,-3,-19,-13,-8,-7
13:43:41:67859,-1,24,-5,-3,-19,-13,-8,-7
13:43:41:68602,-7,-24,-6,5,17,4,-1,4
13:43:41:82154,1,1,4,-2,-6,-4,-2,3
13:43:41:90264,1,1,4,-2,-6,-4,-2,3
13:43:41:91059,-2,-5,-44,-11,8,18,-9,6
13:43:41:97053,0,17,-4,-8,2,-14,-32,-10
13:43:41:104616,0,17,-4,-8,2,-14,-32,-10
13:43:41:112156,-9,-16,10,6,14,-3,26,11
13:43:41:119595,5,-12,3,-3,0,3,3,9
13:43:41:127787,5,-12,3,-3,0,3,3,9
13:43:41:128562,-1,0,-10,0,25,4,-3,8
13:43:41:142009,-5,-25,-7,-10,-7,-8,2,3
13:43:41:150433,-5,-25,-7,-10,-7,-8,2,3
13:43:41:151060,2,7,11,-8,-19,-6,-4,-3
13:43:41:157075,7,52,-16,4,2,1,4,-6
13:43:41:164677,7,52,-16,4,2,1,4,-6
13:43:41:172095,0,12,-4,-19,5,-3,-3,0
13:43:41:179629,0,1,8,6,-16,-2,-1,-1
13:43:41:187843,0,1,8,6,-16,-2,-1,-1
13:43:41:188613,1,-4,7,20,19,18,-8,-7
13:43:41:202214,-25,-26,-16,-6,-2,9,13,-21
13:43:41:210332,-25,-26,-16,-6,-2,9,13,-21
13:43:41:211163,-7,5,5,4,-18,-13,-7,-1
13:43:41:217147,-1,-7,4,10,1,2,-2,-6
13:43:41:232906,-1,-7,4,10,1,2,-2,-6
13:43:41:233573,-4,-44,-30,-10,-18,-10,-5,9
13:43:41:239539,8,-1,-3,1,-3,-5,0,4
13:43:41:247794,8,-1,-3,1,-3,-5,0,4
13:43:41:248572,7,0,-25,-6,-14,-7,8,6
13:43:41:262177,3,-1,2,5,35,32,-1,0
13:43:41:270316,3,-1,2,5,35,32,-1,0
13:43:41:271102,-3,-8,0,-6,-18,-18,-6,-5
13:43:41:277088,2,-8,5,-2,-8,-12,-4,-2
13:43:41:284718,2,-8,5,-2,-8,-12,-4,-2
13:43:41:292067,2,-4,-2,1,-3,6,-1,-2
13:43:41:299683,-12,-3,-1,2,-2,11,37,21
13:43:41:307821,-12,-3,-1,2,-2,11,37,21
13:43:41:308587,-9,-10,6,2,-4,-11,5,-13
13:43:41:322091,1,-38,-6,0,15,3,-11,-17
13:43:41:330355,1,-38,-6,0,15,3,-11,-17
13:43:41:331101,3,29,30,1,-10,0,-1,3
13:43:41:337070,1,6,9,-3,-17,-6,-7,7
13:43:41:344638,1,6,9,-3,-17,-6,-7,7
13:43:41:352167,0,-13,-3,5,25,3,-8,-11
13:43:41:359600,-8,-62,-20,-2,-5,-5,0,5
13:43:41:367884,-8,-62,-20,-2,-5,-5,0,5
13:43:41:368542,-9,25,9,14,19,4,0,6
13:43:41:382207,4,20,12,5,8,-3,-11,-1
13:43:41:390238,4,20,12,5,8,-3,-11,-1
13:43:41:391082,-4,-34,-3,-5,-7,3,2,-4
13:43:41:397141,4,-2,-30,-14,-20,-24,-2,4
13:43:41:404619,4,-2,-30,-14,-20,-24,-2,4
13:43:41:412092,2,26,-1,-1,13,4,-1,-4
13:43:41:419721,7,26,30,5,5,7,7,12
13:43:41:427776,7,26,30,5,5,7,7,12
13:43:41:428551,-6,-15,-3,-7,-22,-11,-12,-7
13:43:41:442104,9,9,14,4,7,12,16,3
13:43:41:450358,9,9,14,4,7,12,16,3
13:43:41:451053,13,31,4,2,-10,0,1,2
13:43:41:457102,10,30,-17,-12,7,6,-12,-5
13:43:41:464647,10,30,-17,-12,7,6,-12,-5
13:43:41:472069,5,8,-2,-7,-1,7,-2,5
13:43:41:479611,-10,-3,-7,-2,-8,-13,-4,-5
13:43:41:487823,-10,-3,-7,-2,-8,-13,-4,-5
13:43:41:488589,3,4,-8,-2,-9,0,8,-3
13:43:41:510988,-8,11,14,2,-3,-9,-12,-12
13:43:41:511688,-8,11,14,2,-3,-9,-12,-12
13:43:41:512503,17,26,16,5,-4,-1,3,-12
13:43:41:517146,-5,-19,-9,-18,-10,-14,-18,5
13:43:41:524633,-5,-19,-9,-18,-10,-14,-18,5
13:43:41:532084,4,56,14,16,42,41,18,2
13:43:41:539601,-2,18,8,3,-13,-14,-8,-13
13:43:41:547818,-2,18,8,3,-13,-14,-8,-13
13:43:41:548566,-6,-23,-9,-11,-13,-20,-8,3
13:43:41:562215,1,-8,-1,-1,0,-1,-7,3
13:43:41:570309,1,-8,-1,-1,0,-1,-7,3
13:43:41:571051,-4,-8,-1,3,-5,-5,2,2
13:43:41:577066,-6,-22,3,5,13,10,1,0
13:43:41:584678,-6,-22,3,5,13,10,1,0
13:43:41:592073,-3,-10,-12,-9,-3,-12,-13,-12
13:43:41:599629,1,0,1,-13,8,11,5,-6
13:43:41:607805,1,0,1,-13,8,11,5,-6
13:43:41:608555,-7,-9,-8,-3,3,-1,-16,5
13:43:41:622068,14,20,-1,-1,-10,5,0,-3
13:43:41:630276,14,20,-1,-1,-10,5,0,-3
13:43:41:631077,5,5,7,14,6,0,8,11
13:43:41:637081,4,-13,-19,5,-3,-8,4,15
13:43:41:644599,4,-13,-19,5,-3,-8,4,15
13:43:41:652126,-2,-1,-2,5,-9,-2,3,-1
13:43:41:659568,-7,28,13,-3,-9,-15,-2,-11
13:43:41:667848,-7,28,13,-3,-9,-15,-2,-11
13:43:41:668577,-19,-57,-22,-4,18,8,1,-3
13:43:41:682090,10,-4,8,9,-2,-1,-1,-2
13:43:41:690277,10,-4,8,9,-2,-1,-1,-2
13:43:41:691062,0,-1,-1,-14,-15,-9,-8,-10
13:43:41:697106,-1,-7,-4,-6,-4,16,24,9
13:43:41:704673,-1,-7,-4,-6,-4,16,24,9
13:43:41:712100,-13,15,-21,-10,-18,-3,-5,15
13:43:41:719553,-9,28,8,6,6,1,-4,-2
13:43:41:727836,-9,28,8,6,6,1,-4,-2
13:43:41:728540,3,10,17,-9,-34,-19,-6,2
13:43:41:742057,-2,30,10,11,18,12,5,-5
13:43:41:750395,-2,30,10,11,18,12,5,-5
13:43:41:751081,20,-7,-6,-9,-3,-17,-13,-19
13:43:41:757055,1,-15,-2,4,-2,-17,-1,-4
13:43:41:764622,1,-15,-2,4,-2,-17,-1,-4
13:43:41:772132,3,6,12,11,19,22,15,3
13:43:41:779670,-12,-14,-8,-6,1,-7,-8,-4
13:43:41:787812,-12,-14,-8,-6,1,-7,-8,-4
13:43:41:788581,-9,-28,-1,4,15,0,-10,-14
13:43:41:802186,-12,-25,0,-1,-18,-18,-15,-7
13:43:41:810319,-12,-25,0,-1,-18,-18,-15,-7
13:43:41:811037,8,-32,2,-1,8,5,5,3
13:43:41:817256,-3,-22,-14,-6,-5,-1,-1,-14
13:43:41:824589,-3,-22,-14,-6,-5,-1,-1,-14
13:43:41:832122,-1,11,-8,-5,-24,-8,14,3
13:43:41:839525,4,7,-9,-3,4,32,10,4
13:43:41:847833,4,7,-9,-3,4,32,10,4
13:43:41:848612,-1,17,4,7,-1,2,5,21
13:43:41:862241,4,25,-3,-3,8,-14,-12,-9
13:43:41:870275,4,25,-3,-3,8,-14,-12,-9
13:43:41:871078,-5,20,16,-6,-6,-7,-2,-1
13:43:41:877036,-1,9,10,5,-1,4,-1,1
13:43:41:884732,-1,9,10,5,-1,4,-1,1
13:43:41:892066,4,7,-1,-4,12,3,-4,-1
13:43:41:899662,1,-7,-12,-5,-5,-13,-7,-1
13:43:41:907130,1,-7,-12,-5,-5,-13,-7,-1
13:43:41:914612,-7,2,-9,6,4,15,5,1
13:43:41:922123,11,-35,-10,1,11,1,-4,-3
13:43:41:930340,11,-35,-10,1,11,1,-4,-3
13:43:41:931102,1,1,6,-7,-26,-13,-5,-5
13:43:41:945370,-4,1,-9,11,11,20,15,2
13:43:41:946066,-4,1,-9,11,11,20,15,2
13:43:41:952144,-1,-20,0,-1,8,7,-1,-20
13:43:41:959578,-1,-9,3,-10,-16,-14,-1,21
13:43:41:967220,-1,-9,3,-10,-16,-14,-1,21
13:43:41:974589,1,-9,-9,7,-4,-6,-13,0
13:43:41:982147,-4,27,11,4,-7,2,-3,-2
13:43:41:990240,-4,27,11,4,-7,2,-3,-2
13:43:41:991044,-9,-18,-9,-2,-2,-4,1,-2
13:43:42:5240,-5,-41,-14,-9,6,3,0,-8
13:43:42:6072,-5,-41,-14,-9,6,3,0,-8
13:43:42:12174,0,-9,-10,-11,-31,-5,14,4
13:43:42:19597,5,19,19,14,8,7,9,0
13:43:42:27115,5,19,19,14,8,7,9,0
13:43:42:34687,3,7,-13,2,16,0,-5,1
13:43:42:42086,-2,27,3,-5,-15,-16,-10,-2
13:43:42:50342,-2,27,3,-5,-15,-16,-10,-2
13:43:42:51033,-2,-2,4,-9,-9,-5,-4,0
13:43:42:65319,6,1,2,-1,6,1,-1,-2
13:43:42:66036,6,1,2,-1,6,1,-1,-2
13:43:42:72094,7,11,-15,1,5,2,-1,8
13:43:42:79614,-2,-14,-14,-3,6,0,-2,-11
13:43:42:87095,-2,-14,-14,-3,6,0,-2,-11
13:43:42:94529,-3,-14,-9,6,21,18,13,8
13:43:42:102060,5,-31,3,-3,-10,-12,-11,-7
13:43:42:110335,5,-31,3,-3,-10,-12,-11,-7
13:43:42:111059,2,-4,-1,-2,14,-18,-16,-3
13:43:42:125223,-8,15,-4,-6,-14,9,20,8
13:43:42:126042,-8,15,-4,-6,-14,9,20,8
13:43:42:132103,-5,-18,6,-2,-17,-6,13,5
13:43:42:139524,-6,-2,3,3,-5,-8,-23,-16
13:43:42:147168,-6,-2,3,3,-5,-8,-23,-16
13:43:42:154553,-1,16,29,14,19,16,-1,-6
13:43:42:162206,-4,7,3,3,4,0,2,4
13:43:42:170357,-4,7,3,3,4,0,2,4
13:43:42:171113,-4,-14,-13,-5,-8,-6,-11,-9
13:43:42:185385,3,-6,2,-5,-11,-1,3,10
13:43:42:186060,3,-6,2,-5,-11,-1,3,10
13:43:42:192066,-4,7,10,11,-12,-17,-19,-9
13:43:42:199639,-1,16,4,7,16,18,36,-5
13:43:42:207109,-1,16,4,7,16,18,36,-5
13:43:42:214639,5,-3,-3,-4,3,10,27,15
13:43:42:222088,-4,-7,1,-7,-19,-18,-26,-9
13:43:42:230393,-4,-7,1,-7,-19,-18,-26,-9
13:43:42:231157,-4,8,-5,-8,-16,5,-5,-3
13:43:42:245274,8,2,9,8,14,8,4,8
13:43:42:246127,8,2,9,8,14,8,4,8
13:43:42:252160,-4,-3,-39,-7,4,-11,-6,-1
13:43:42:259601,-5,6,3,-6,2,0,-1,1
13:43:42:267214,-5,6,3,-6,2,0,-1,1
13:43:42:274606,-2,-7,-2,-5,-1,-8,-5,0
13:43:42:282145,-1,-11,-16,4,4,7,-3,5
13:43:42:290284,-1,-11,-16,4,4,7,-3,5
13:43:42:291073,7,8,7,-8,-6,-3,-4,0
13:43:42:305280,0,5,14,5,2,-4,-5,-7
13:43:42:306062,0,5,14,5,2,-4,-5,-7
13:43:42:312113,-9,-24,50,30,-4,-16,-20,8
13:43:42:319584,2,10,-9,-20,-21,-10,9,35
13:43:42:327266,2,10,-9,-20,-21,-10,9,35
13:43:42:334681,-1,-7,35,32,19,6,-30,-9
13:43:42:342092,1,22,-19,-4,-10,3,-12,-14
13:43:42:350339,1,22,-19,-4,-10,3,-12,-14
13:43:42:351068,3,5,-9,-15,-8,22,18,3
13:43:42:365307,-6,-33,-4,-1,-2,-9,-8,-8
13:43:42:366067,-6,-33,-4,-1,-2,-9,-8,-8
13:43:42:372170,0,1,-5,-4,2,-12,-6,-13
13:43:42:379659,2,-4,-8,-1,2,2,4,0
13:43:42:387136,2,-4,-8,-1,2,2,4,0
13:43:42:394528,-3,31,-6,-11,-9,-11,5,1
13:43:42:402151,0,-13,7,9,35,14,7,5
13:43:42:410263,0,-13,7,9,35,14,7,5
13:43:42:411053,-9,-2,4,-11,-17,-3,9,1
13:43:42:425251,-5,-27,22,17,2,7,-10,14
13:43:42:426049,-5,-27,22,17,2,7,-10,14
13:43:42:432118,11,14,-8,7,13,3,0,9
13:43:42:439573,-3,12,-19,-11,-12,-10,0,-8
13:43:42:447252,-3,12,-19,-11,-12,-10,0,-8
13:43:42:454594,3,10,-8,-8,-7,-7,1,3
13:43:42:462098,12,-1,7,-1,3,13,19,-7
13:43:42:470319,12,-1,7,-1,3,13,19,-7
13:43:42:471111,3,-9,-6,-4,3,8,3,3
13:43:42:485411,8,24,11,-9,-19,-10,-24,-5
13:43:42:486112,8,24,11,-9,-19,-10,-24,-5
13:43:42:492119,-5,1,-9,-1,7,0,2,-8
13:43:42:499637,-3,-1,32,17,11,-7,9,5
13:43:42:507114,-3,-1,32,17,11,-7,9,5
13:43:42:514578,3,-2,13,0,7,14,6,5
13:43:42:522121,-6,1,-4,-6,-20,-2,-3,-1
13:43:42:530275,-6,1,-4,-6,-20,-2,-3,-1
13:43:42:531052,-6,-30,-14,0,0,0,0,-6
13:43:42:545344,-5,-5,4,-7,-5,-17,-17,-6
13:43:42:546088,-5,-5,4,-7,-5,-17,-17,-6
13:43:42:552149,-7,3,-12,-11,-12,-1,21,-5
13:43:42:559562,-3,-13,-14,3,5,0,-2,-7
13:43:42:567220,-3,-13,-14,3,5,0,-2,-7
13:43:42:574628,-3,6,1,-4,-5,-13,-20,-10
13:43:42:582104,-4,68,6,-6,19,28,-3,-3
13:43:42:590288,-4,68,6,-6,19,28,-3,-3
13:43:42:591025,2,-2,-17,-2,-14,-16,-15,-5
13:43:42:613466,-4,-27,-48,-14,-6,-4,7,-1
13:43:42:614258,-4,-27,-48,-14,-6,-4,7,-1
13:43:42:615057,1,24,12,3,5,2,12,7
13:43:42:619584,-4,-12,-2,4,2,-5,3,-4
13:43:42:627171,-4,-12,-2,4,2,-5,3,-4
13:43:42:634681,1,-14,6,13,0,8,30,17
13:43:42:642107,4,-14,0,31,44,17,-55,-30
13:43:42:650348,4,-14,0,31,44,17,-55,-30
13:43:42:651063,-4,1,-6,-8,-16,-13,-28,-13
13:43:42:665396,0,-12,-28,-18,-22,-16,20,7
13:43:42:666146,0,-12,-28,-18,-22,-16,20,7
13:43:42:672120,0,8,-3,-3,8,4,-1,-3
13:43:42:679718,-1,-14,1,-6,-12,-8,2,2
13:43:42:687163,-1,-14,1,-6,-12,-8,2,2
13:43:42:694613,1,15,4,-2,2,0,1,5
13:43:42:702097,9,-6,8,0,-14,6,44,15
13:43:42:710324,9,-6,8,0,-14,6,44,15
13:43:42:711063,5,3,8,21,44,-18,-88,-20
13:43:42:725243,4,7,7,-25,-17,21,65,65
13:43:42:726095,4,7,7,-25,-17,21,65,65
13:43:42:732178,-3,-23,-21,-7,7,0,-75,-29
13:43:42:739570,-26,30,30,21,-1,-21,-61,-13
13:43:42:747137,-26,30,30,21,-1,-21,-61,-13
13:43:42:754570,1,-3,12,1,-17,-5,39,-3
13:43:42:762159,-1,-25,-9,-19,-19,-9,-104,-63
13:43:42:770328,-1,-25,-9,-19,-19,-9,-104,-63
13:43:42:771101,-1,-11,-3,-2,8,3,31,13
13:43:42:785354,8,-27,9,10,36,30,31,23
13:43:42:786078,8,-27,9,10,36,30,31,23
13:43:42:792089,1,9,-11,-12,-15,1,22,25
13:43:42:799699,-14,-4,8,-10,-16,-26,0,-14
13:43:42:807110,-14,-4,8,-10,-16,-26,0,-14
13:43:42:814620,5,4,-2,-12,-25,6,38,4
13:43:42:822088,-3,-8,-44,7,30,-2,-23,-8
13:43:42:830310,-3,-8,-44,7,30,-2,-23,-8
13:43:42:831072,-12,23,27,4,-17,-6,7,-6
13:43:42:845369,11,-18,-31,5,-7,-9,6,-15
13:43:42:846081,11,-18,-31,5,-7,-9,6,-15
13:43:42:852094,-4,-16,-42,11,-1,-8,-8,-9
13:43:42:867854,-4,15,13,-2,0,10,15,-9
13:43:42:868586,-4,15,13,-2,0,10,15,-9
13:43:42:874577,-3,-13,1,-1,3,1,8,6
13:43:42:882070,4,6,-3,-12,-13,3,-25,38
13:43:42:889609,4,6,-3,-12,-13,3,-25,38
13:43:42:897065,-4,-13,-8,-9,-13,-7,-33,-9
13:43:42:905289,1,9,5,-17,-14,-7,16,-2
13:43:42:906084,1,9,5,-17,-14,-7,16,-2
13:43:42:912231,-2,-13,5,17,8,3,22,13
13:43:42:927760,-12,-3,-33,-2,12,-2,-10,-15
13:43:42:928570,-12,-3,-33,-2,12,-2,-10,-15
13:43:42:934600,9,22,4,-11,-5,-9,47,14
13:43:42:942072,-6,-8,47,6,-13,-17,-31,-33
13:43:42:949730,-6,-8,47,6,-13,-17,-31,-33
13:43:42:957085,30,35,-20,10,-2,19,10,11
13:43:42:965274,2,-5,6,8,26,4,37,21
13:43:42:966040,2,-5,6,8,26,4,37,21
13:43:42:972081,-7,12,34,-19,-2,-2,-6,-5
13:43:42:987819,-2,35,22,17,-14,-17,1,-5
13:43:42:988590,-2,35,22,17,-14,-17,1,-5
13:43:42:994573,-13,-22,-28,1,-14,1,19,16
13:43:43:2126,-18,-6,-27,-6,-9,5,-11,-15
13:43:43:9639,-18,-6,-27,-6,-9,5,-11,-15
13:43:43:17137,-18,0,-4,-12,9,6,-110,-79
13:43:43:25235,8,-14,-2,0,-5,-8,29,-1
13:43:43:26061,8,-14,-2,0,-5,-8,29,-1
13:43:43:32181,-5,-51,-23,-5,9,0,20,26
13:43:43:47730,1,4,20,12,1,3,-2,-5
13:43:43:48519,1,4,20,12,1,3,-2,-5
13:43:43:54582,-9,-3,-16,-9,0,-5,-15,-10
13:43:43:62052,16,48,0,-31,-14,1,11,63
13:43:43:69607,16,48,0,-31,-14,1,11,63
13:43:43:77086,-8,-14,29,6,14,6,14,17
13:43:43:85309,8,12,-5,-25,-4,6,44,80
13:43:43:86071,8,12,-5,-25,-4,6,44,80
13:43:43:92062,15,10,32,32,-3,4,4,7
13:43:43:107760,-9,-25,7,3,-15,-11,-14,-34
13:43:43:108595,-9,-25,7,3,-15,-11,-14,-34
13:43:43:114555,-10,8,4,-8,-11,-8,-19,-40
13:43:43:122102,8,13,-91,0,11,30,48,0
13:43:43:129664,8,13,-91,0,11,30,48,0
13:43:43:137074,-10,14,0,-13,3,-2,3,-29
13:43:43:145391,5,-11,-19,-4,6,-8,-33,-27
13:43:43:146078,5,-11,-19,-4,6,-8,-33,-27
13:43:43:152092,2,-2,8,-6,18,16,18,13
13:43:43:167864,-11,-17,14,-2,-8,-17,-5,-16
13:43:43:168605,-11,-17,14,-2,-8,-17,-5,-16
13:43:43:174568,-5,10,-43,-10,-21,-15,-39,-7
13:43:43:182130,4,-3,3,13,-1,-4,4,-8
13:43:43:189653,4,-3,3,13,-1,-4,4,-8
13:43:43:197126,10,-6,-9,-16,3,21,18,26
13:43:43:205320,-9,-21,-7,-14,-7,1,-7,-1
13:43:43:206095,-9,-21,-7,-14,-7,1,-7,-1
13:43:43:212104,-1,-31,-11,11,11,-13,-19,0
13:43:43:227796,-5,-5,19,9,2,8,-21,-17
13:43:43:228573,-5,-5,19,9,2,8,-21,-17
13:43:43:234650,-4,8,27,-22,-10,-7,15,12
13:43:43:242084,-2,-24,3,2,-2,-8,-11,-8
13:43:43:249703,-2,-24,3,2,-2,-8,-11,-8
13:43:43:257075,5,-15,-12,-14,-6,6,23,5
13:43:43:265303,6,10,8,3,-6,-10,-12,3
13:43:43:266054,6,10,8,3,-6,-10,-12,3
13:43:43:272093,3,17,12,7,10,9,52,42
13:43:43:287805,-9,-17,25,3,-2,0,0,-10
13:43:43:288595,-9,-17,25,3,-2,0,0,-10
13:43:43:294577,-3,7,-17,-5,-11,-25,-31,-18
13:43:43:302130,2,5,23,0,24,10,1,5
13:43:43:309585,2,5,23,0,24,10,1,5
13:43:43:317126,-12,-27,-18,0,-10,6,-26,-20
13:43:43:325258,0,35,1,32,16,0,16,2
13:43:43:326038,0,35,1,32,16,0,16,2
13:43:43:332104,-1,43,-11,27,7,-17,-29,-14
13:43:43:347728,2,-34,-25,-13,-4,5,-4,-7
13:43:43:348534,2,-34,-25,-13,-4,5,-4,-7
13:43:43:354595,6,4,58,16,9,7,13,-12
13:43:43:362104,-13,-11,-5,-20,-16,-23,-8,1
13:43:43:369667,-13,-11,-5,-20,-16,-23,-8,1
13:43:43:377073,10,-4,-48,-20,-5,-22,11,11
13:43:43:385357,-2,1,20,3,4,22,33,12
13:43:43:386092,-2,1,20,3,4,22,33,12
13:43:43:392071,-7,10,22,13,-14,-3,-13,18
13:43:43:407785,-7,10,22,13,-14,-3,-13,18
13:43:43:408563,-13,-43,34,12,-17,-15,-14,2
13:43:43:414531,23,-38,18,10,12,10,13,-7
13:43:43:430273,23,-38,18,10,12,10,13,-7
13:43:43:431017,18,26,-34,-16,11,9,10,-7
13:43:43:437076,-8,-34,-9,-8,-1,-3,-13,-16
13:43:43:445286,-8,-34,-9,-8,-1,-3,-13,-16
13:43:43:446069,10,-1,-25,-25,-13,-21,-2,19
13:43:43:452097,-6,29,17,-11,-6,31,64,6
13:43:43:467856,-6,29,17,-11,-6,31,64,6
13:43:43:468548,10,36,-13,-3,21,27,29,1
13:43:43:474585,-6,-13,-38,-2,24,8,-40,-10
13:43:43:490249,-6,-13,-38,-2,24,8,-40,-10
13:43:43:491030,-7,-13,-2,4,-15,-14,-29,-11
13:43:43:497130,-12,-22,11,1,-16,-27,-6,4
13:43:43:505272,-12,-22,11,1,-16,-27,-6,4
13:43:43:506044,9,4,-33,-14,6,9,7,-2
13:43:43:512129,-12,23,42,9,-10,-9,-30,-22
13:43:43:527757,-12,23,42,9,-10,-9,-30,-22
13:43:43:528521,-6,-6,4,-17,-18,-13,-10,-7
13:43:43:534656,-4,1,-48,-26,-6,-7,1,7
13:43:43:550405,-4,1,-48,-26,-6,-7,1,7
13:43:43:551103,-3,16,40,14,21,25,54,5
13:43:43:557069,3,9,29,-3,-6,-3,-26,-23
13:43:43:565311,3,9,29,-3,-6,-3,-26,-23
13:43:43:566066,-2,-4,-6,-1,-16,-13,-6,5
13:43:43:572101,2,11,18,14,1,-3,-16,-17
13:43:43:587845,2,11,18,14,1,-3,-16,-17
13:43:43:588606,4,20,19,-3,2,-5,-31,-5
13:43:43:594575,11,15,29,14,15,19,32,18
13:43:43:610343,11,15,29,14,15,19,32,18
13:43:43:611101,-3,-10,17,-20,-10,-2,-13,-6
13:43:43:617168,-6,7,-37,31,15,6,4,-3
13:43:43:625286,-6,7,-37,31,15,6,4,-3
13:43:43:626049,-1,8,19,-4,-11,-3,15,10
13:43:43:632092,8,19,14,4,-3,0,-36,-15
13:43:43:647820,8,19,14,4,-3,0,-36,-15
13:43:43:648572,-12,-51,-31,-14,-1,0,-21,-13
13:43:43:654581,7,-16,6,-12,-3,-8,19,10
13:43:43:670319,7,-16,6,-12,-3,-8,19,10
13:43:43:671098,-1,21,17,26,17,12,4,-7
13:43:43:677058,-2,1,-14,-15,-6,-12,3,5
13:43:43:685395,-2,1,-14,-15,-6,-12,3,5
13:43:43:686083,7,21,2,59,11,-10,-2,1
13:43:43:692102,0,-27,-14,-7,1,6,-10,-9
13:43:43:707817,0,-27,-14,-7,1,6,-10,-9
13:43:43:708573,-5,-6,-2,-13,-12,-8,-8,4
13:43:43:714548,0,24,5,-10,-9,0,2,-19
13:43:43:730320,0,24,5,-10,-9,0,2,-19
13:43:43:731099,1,-11,-23,-42,16,20,-5,-12
13:43:43:737078,-7,-39,-1,-14,-9,-1,20,3
13:43:43:745279,-7,-39,-1,-14,-9,-1,20,3
13:43:43:746112,-11,-3,6,14,-10,-11,-14,-7
13:43:43:752156,1,-6,-19,-10,-9,2,14,7
13:43:43:767898,1,-6,-19,-10,-9,2,14,7
13:43:43:768601,-8,-56,-54,-10,-11,-10,-20,-9
13:43:43:774544,6,2,-16,32,17,2,28,27
13:43:43:790283,6,2,-16,32,17,2,28,27
13:43:43:791040,22,7,8,13,-3,-7,-25,-1
13:43:43:797081,-4,-14,-56,15,10,9,-4,4
13:43:43:805312,-4,-14,-56,15,10,9,-4,4
13:43:43:806054,0,-7,16,-4,-16,12,-6,0
13:43:43:819538,4,34,37,-20,-19,-14,-19,-12
13:43:43:827846,4,34,37,-20,-19,-14,-19,-12
13:43:43:828566,-12,14,70,17,2,-9,-18,-15
13:43:43:834625,-11,-34,-17,-9,2,-4,-7,-8
13:43:43:850355,-11,-34,-17,-9,2,-4,-7,-8
13:43:43:851124,0,7,-21,2,16,10,2,-7
13:43:43:857014,-5,26,16,-18,-16,1,-7,6
13:43:43:865354,-5,26,16,-18,-16,1,-7,6
13:43:43:866071,-5,-16,-32,-21,-7,-7,28,10
13:43:43:879699,-4,4,18,24,0,5,1,-5
13:43:43:887794,-4,4,18,24,0,5,1,-5
13:43:43:888593,8,24,-5,3,-2,23,26,-2
13:43:43:894576,24,39,20,19,2,0,16,16
13:43:43:910264,24,39,20,19,2,0,16,16
13:43:43:911035,-7,-46,16,4,-1,-29,-40,-3
13:43:43:917174,-25,-56,4,-1,12,8,-7,2
13:43:43:925248,-25,-56,4,-1,12,8,-7,2
13:43:43:926047,-6,11,-42,-4,-1,-2,4,5
13:43:43:939604,-16,22,-16,-14,-6,0,-1,-11
13:43:43:947807,-16,22,-16,-14,-6,0,-1,-11
13:43:43:948540,-6,-2,-27,-16,-6,-12,1,3
13:43:43:954556,16,-18,-30,-37,-9,-11,8,3
13:43:43:962219,16,-18,-30,-37,-9,-11,8,3
13:43:43:969599,-4,22,-21,7,1,-4,-40,-11
13:43:43:977063,5,2,-8,-14,-5,-2,-11,-6
13:43:43:985349,5,2,-8,-14,-5,-2,-11,-6
13:43:43:986088,-4,7,49,11,-3,-14,4,-8
13:43:43:999653,-12,-32,17,29,13,6,3,-6
13:43:44:7770,-12,-32,17,29,13,6,3,-6
13:43:44:8590,3,5,-3,28,13,-7,-27,-14
13:43:44:14573,-7,-1,-35,2,4,4,4,4
13:43:44:22117,-7,-1,-35,2,4,4,4,4
13:43:44:29614,-5,12,-1,14,10,10,-6,-2
13:43:44:37102,2,-2,35,17,5,-1,14,16
13:43:44:45287,2,-2,35,17,5,-1,14,16
13:43:44:46116,1,-9,-55,-19,-18,-13,-13,1
13:43:44:59578,-1,-8,-11,-20,-3,0,0,3
13:43:44:67907,-1,-8,-11,-20,-3,0,0,3
13:43:44:68581,4,12,4,-23,-5,0,2,17
13:43:44:74534,1,23,29,-5,-14,-13,-15,0
13:43:44:82175,1,23,29,-5,-14,-13,-15,0
13:43:44:89562,5,-38,6,19,-3,-16,-8,11
13:43:44:97125,6,8,13,7,6,17,21,-17
13:43:44:105265,6,8,13,7,6,17,21,-17
13:43:44:106037,7,22,3,-4,-11,-11,-8,-16
13:43:44:119586,-19,-11,-21,-37,-4,-14,-26,-18
13:43:44:127789,-19,-11,-21,-37,-4,-14,-26,-18
13:43:44:128564,-11,-9,39,38,-1,17,23,3
13:43:44:134651,14,-13,-23,2,-8,1,9,17
13:43:44:142077,14,-13,-23,2,-8,1,9,17
13:43:44:149711,5,12,-11,-28,-3,11,30,13
13:43:44:157103,1,-12,7,10,13,11,36,9
13:43:44:165318,1,-12,7,10,13,11,36,9
13:43:44:166064,7,0,10,3,14,16,-19,-20
13:43:44:179669,-8,-4,-2,-1,-11,-17,-15,4
13:43:44:187788,-8,-4,-2,-1,-11,-17,-15,4
13:43:44:188590,3,-7,0,-19,15,35,12,4
13:43:44:194593,-5,10,14,-8,0,-1,6,6
13:43:44:202194,-5,10,14,-8,0,-1,6,6
13:43:44:209506,8,2,-1,-10,-19,-14,23,10
13:43:44:217085,6,-11,-18,2,2,-5,-20,-4
13:43:44:225311,6,-11,-18,2,2,-5,-20,-4
13:43:44:226048,-4,5,-3,0,1,-1,-3,-6
13:43:44:239583,6,-6,19,30,1,-5,-13,-7
13:43:44:247785,6,-6,19,30,1,-5,-13,-7
13:43:44:248542,-6,-22,-50,-1,15,3,18,4
13:43:44:254561,-1,8,-20,-22,-14,0,-6,2
13:43:44:262227,-1,8,-20,-22,-14,0,-6,2
13:43:44:269584,-1,25,-5,9,-1,-2,1,-14
13:43:44:277069,10,5,0,-18,1,20,32,3
13:43:44:285332,10,5,0,-18,1,20,32,3
13:43:44:286088,-6,4,31,-1,-10,-26,-28,-2
13:43:44:299639,7,6,24,14,11,14,13,7
13:43:44:307796,7,6,24,14,11,14,13,7
13:43:44:308565,2,-46,-14,8,-13,-25,1,9
13:43:44:314554,-7,-8,29,-5,1,5,4,5
13:43:44:322178,-7,-8,29,-5,1,5,4,5
13:43:44:329633,7,51,57,10,9,6,11,14
13:43:44:337102,12,14,-44,-23,-12,-14,-12,-2
13:43:44:345294,12,14,-44,-23,-12,-14,-12,-2
13:43:44:346102,0,-1,11,-14,0,14,15,-2
13:43:44:359571,-5,-4,12,11,-2,-8,-1,-11
13:43:44:367861,-5,-4,12,11,-2,-8,-1,-11
13:43:44:368573,-9,12,-10,21,8,3,-8,-7
13:43:44:374552,-17,1,-11,1,1,-1,-10,-6
13:43:44:382219,-17,1,-11,1,1,-1,-10,-6
13:43:44:389565,-16,3,-3,6,-2,5,-2,-5
13:43:44:397101,-8,-29,-27,-8,-14,-43,-43,-16
13:43:44:405287,-8,-29,-27,-8,-14,-43,-43,-16
13:43:44:406060,4,-7,-31,-12,3,16,39,20
13:43:44:419626,-3,-6,-32,0,-12,-12,-25,-3
13:43:44:427820,-3,-6,-32,0,-12,-12,-25,-3
13:43:44:428618,-8,-7,6,3,-2,-1,-31,-20
13:43:44:434696,-7,-28,-6,25,8,4,6,0
13:43:44:442064,-7,-28,-6,25,8,4,6,0
13:43:44:449643,-1,10,10,-20,-9,3,18,4
13:43:44:457100,-5,12,12,3,6,5,-3,-4
13:43:44:465319,-5,12,12,3,6,5,-3,-4
13:43:44:466042,-10,-29,-10,-18,-1,3,-12,7
13:43:44:479652,9,19,24,-1,10,13,-29,-6
13:43:44:487814,9,19,24,-1,10,13,-29,-6
13:43:44:488583,3,-12,-12,-4,5,-24,-46,-21
13:43:44:494589,10,8,17,28,3,15,30,20
13:43:44:502123,10,8,17,28,3,15,30,20
13:43:44:509576,-5,7,-3,1,-4,-2,4,-7
13:43:44:517133,1,18,30,4,4,-16,-11,3
13:43:44:525301,1,18,30,4,4,-16,-11,3
13:43:44:526053,11,12,-4,-8,-7,-18,-4,-6
13:43:44:539622,-13,0,-21,-26,-5,-12,-7,-8
13:43:44:547800,-13,0,-21,-26,-5,-12,-7,-8
13:43:44:548555,-1,-20,-9,-21,14,15,17,10
13:43:44:554563,5,32,-7,-10,0,-3,-4,-1
13:43:44:562205,5,32,-7,-10,0,-3,-4,-1
13:43:44:569543,-6,-1,4,3,-12,7,18,-7
13:43:44:577029,0,-18,-15,-20,-4,23,16,-1
13:43:44:585380,0,-18,-15,-20,-4,23,16,-1
13:43:44:586104,6,-2,8,6,-6,-20,-17,10
13:43:44:599621,-1,0,23,7,6,11,-38,-19
13:43:44:607809,-1,0,23,7,6,11,-38,-19
13:43:44:608567,9,3,-3,5,-3,-3,-35,0
13:43:44:614557,10,-5,-8,2,5,11,47,18
13:43:44:622153,10,-5,-8,2,5,11,47,18
13:43:44:629641,-4,-26,-15,-3,-14,-19,-2,12
13:43:44:637061,10,14,1,12,3,3,8,2
13:43:44:645411,10,14,1,12,3,3,8,2
13:43:44:646263,6,20,20,-2,-8,16,11,-1
13:43:44:659564,-6,-4,9,3,-8,-4,8,1
13:43:44:667921,-6,-4,9,3,-8,-4,8,1
13:43:44:668604,-2,-4,5,29,-5,-3,9,-3
13:43:44:674573,17,-9,4,-9,-3,7,11,-7
13:43:44:682234,17,-9,4,-9,-3,7,11,-7
13:43:44:689587,0,7,-7,-14,0,3,17,0
13:43:44:697059,-19,10,4,13,4,1,10,-7
13:43:44:705288,-19,10,4,13,4,1,10,-7
13:43:44:706035,-18,9,12,4,1,-10,-21,-15
13:43:44:719638,-5,-21,3,11,28,15,30,22
13:43:44:727754,-5,-21,3,11,28,15,30,22
13:43:44:728548,8,18,2,-17,13,1,-12,-16
13:43:44:742812,0,-8,-13,-9,-3,-4,20,-9
13:43:44:743616,0,-8,-13,-9,-3,-4,20,-9
13:43:44:749657,5,31,-39,-27,-9,-1,2,7
13:43:44:757070,-17,-7,-17,9,-1,8,4,-3
13:43:44:764591,-17,-7,-17,9,-1,8,4,-3
13:43:44:772108,10,-24,-3,-7,2,4,23,9
13:43:44:779639,-5,4,-31,-19,-4,-13,-10,-10
13:43:44:787791,-5,4,-31,-19,-4,-13,-10,-10
13:43:44:788551,-12,5,5,8,6,5,4,3
13:43:44:802750,-11,7,41,3,-7,-23,-41,-8
13:43:44:803537,-11,7,41,3,-7,-23,-41,-8
13:43:44:809570,11,-20,12,8,-11,7,-14,-13
13:43:44:817236,7,15,-10,0,-1,0,15,8
13:43:44:832860,7,15,-10,0,-1,0,15,8
13:43:44:833634,-1,-4,-35,21,2,-10,2,3
13:43:44:839547,-8,-13,-19,-15,-18,-5,-18,-10
13:43:44:847802,-8,-13,-19,-15,-18,-5,-18,-10
13:43:44:848557,-24,0,14,11,-3,0,10,-3
13:43:44:862884,4,3,9,-1,-3,-20,-35,-15
13:43:44:863632,4,3,9,-1,-3,-20,-35,-15
13:43:44:869618,4,42,14,1,2,8,19,1
13:43:44:877108,-1,-39,-48,-40,-5,-8,-3,9
13:43:44:884690,-1,-39,-48,-40,-5,-8,-3,9
13:43:44:892086,10,19,0,-10,6,1,8,10
13:43:44:899658,1,6,-4,24,6,3,-6,-5
13:43:44:907794,1,6,-4,24,6,3,-6,-5
13:43:44:908558,3,-1,12,19,10,4,2,5
13:43:44:922746,4,-6,12,0,-12,2,-1,0
13:43:44:923529,4,-6,12,0,-12,2,-1,0
13:43:44:929676,-9,-13,-1,-13,8,11,-17,-5
13:43:44:937162,-6,16,52,12,-7,0,1,9
13:43:44:944636,-6,16,52,12,-7,0,1,9
13:43:44:952088,-17,-39,-10,-13,-9,-11,-22,-10
13:43:44:959518,-6,-16,-1,-4,-8,-8,-17,-19
13:43:44:967876,-6,-16,-1,-4,-8,-8,-17,-19
13:43:44:968557,18,9,9,-2,-2,6,14,9
13:43:44:982869,-5,-25,-1,-14,4,6,13,6
13:43:44:983570,-5,-25,-1,-14,4,6,13,6
13:43:44:989526,8,4,-13,3,2,1,-3,5
13:43:44:997115,7,12,-24,-8,3,-2,-20,-6
13:43:45:4658,7,12,-24,-8,3,-2,-20,-6
13:43:45:12178,2,-8,-13,-10,-16,-5,36,-14
13:43:45:19584,3,13,13,19,4,-4,1,3
13:43:45:27797,3,13,13,19,4,-4,1,3
13:43:45:28564,3,5,13,-9,6,-6,-5,-7
13:43:45:42752,22,23,7,-9,4,24,43,11
13:43:45:43564,22,23,7,-9,4,24,43,11
13:43:45:49627,-12,-8,12,-6,-17,-15,-9,-4
13:43:45:57027,1,-3,-13,-15,29,12,3,0
13:43:45:64608,1,-3,-13,-15,29,12,3,0
13:43:45:72096,-18,-28,-35,-7,-5,8,-6,-14
13:43:45:79694,-8,15,-12,55,11,-6,-16,-8
13:43:45:87785,-8,15,-12,55,11,-6,-16,-8
13:43:45:88613,-13,-17,-26,-15,-9,-24,-53,-15
13:43:45:102787,2,-15,-13,-8,-6,22,49,6
13:43:45:103590,2,-15,-13,-8,-6,22,49,6
13:43:45:109587,5,8,33,8,-8,-8,-9,13
13:43:45:117203,-35,5,15,-11,-3,-17,-51,-20
13:43:45:124679,-35,5,15,-11,-3,-17,-51,-20
13:43:45:132128,13,1,-5,-11,-2,-2,-12,-4
13:43:45:139580,13,29,15,9,13,-5,-13,-3
13:43:45:147766,13,29,15,9,13,-5,-13,-3
13:43:45:148603,-21,-19,3,17,-2,10,62,20
13:43:45:162811,-5,-15,-39,-35,-25,-6,-16,-20
13:43:45:163576,-5,-15,-39,-35,-25,-6,-16,-20
13:43:45:169628,13,1,5,7,7,24,52,15
13:43:45:177087,-28,-19,21,3,-12,1,-6,-15
13:43:45:184688,-28,-19,21,3,-12,1,-6,-15
13:43:45:192139,9,-2,-11,4,10,-13,-56,-14
13:43:45:199662,2,23,39,-5,-5,-3,10,-12
13:43:45:207775,2,23,39,-5,-5,-3,10,-12
13:43:45:208559,-4,-5,-11,-52,-16,-10,-13,-3
13:43:45:222717,1,-17,-25,-21,16,-1,9,18
13:43:45:223549,1,-17,-25,-21,16,-1,9,18
13:43:45:229709,-10,28,24,1,15,-1,-4,-5
13:43:45:237106,10,18,-8,33,-6,-3,14,11
13:43:45:244607,10,18,-8,33,-6,-3,14,11
13:43:45:252103,-6,-17,-60,-9,-7,-5,-37,-17
13:43:45:259543,22,18,14,-2,-18,-10,1,-1
13:43:45:267928,22,18,14,-2,-18,-10,1,-1
13:43:45:268584,-5,7,-4,12,23,9,1,4
13:43:45:282893,-7,-8,-17,-9,4,4,-16,6
13:43:45:283632,-7,-8,-17,-9,4,4,-16,6
13:43:45:289543,-1,-41,5,2,0,8,21,1
13:43:45:297137,1,-24,45,10,-17,-30,-12,19
13:43:45:304647,1,-24,45,10,-17,-30,-12,19
13:43:45:312035,2,-3,30,9,0,10,2,-3
13:43:45:319584,1,8,15,-6,1,12,-9,-1
13:43:45:327807,1,8,15,-6,1,12,-9,-1
13:43:45:328546,10,30,17,15,-19,-27,12,27
13:43:45:342748,3,-11,-11,-8,-6,6,25,11
13:43:45:343592,3,-11,-11,-8,-6,6,25,11
13:43:45:349685,-6,-3,21,-6,-4,1,73,-5
13:43:45:357046,4,11,-14,2,-4,0,12,-7
13:43:45:364677,4,11,-14,2,-4,0,12,-7
13:43:45:372104,2,11,-5,7,8,-6,-42,-5
13:43:45:379677,2,-1,-10,5,-8,-5,9,-6
13:43:45:387768,2,-1,-10,5,-8,-5,9,-6
13:43:45:388563,-10,-64,-13,12,7,13,8,2
13:43:45:402744,0,-3,-19,-46,-15,-19,-48,14
13:43:45:403590,0,-3,-19,-46,-15,-19,-48,14
13:43:45:409553,0,5,-10,9,26,8,-2,4
13:43:45:417140,3,-22,3,-2,4,5,25,12
13:43:45:424650,3,-22,3,-2,4,5,25,12
13:43:45:432724,5,25,19,1,-16,6,50,15
13:43:45:439570,15,3,3,26,-1,7,-13,-10
13:43:45:447758,15,3,3,26,-1,7,-13,-10
13:43:45:448542,-22,-14,0,-2,8,-4,-29,-16
13:43:45:462749,-6,-6,23,4,0,-6,-1,-4
13:43:45:463588,-6,-6,23,4,0,-6,-1,-4
13:43:45:469657,27,14,3,2,0,5,-32,-6
13:43:45:477184,-8,-34,-7,-8,3,1,-1,-6
13:43:45:484693,-8,-34,-7,-8,3,1,-1,-6
13:43:45:492037,-6,14,38,-7,-16,-9,-18,-17
13:43:45:499726,-15,45,45,20,11,9,14,1
13:43:45:507793,-15,45,45,20,11,9,14,1
13:43:45:508539,4,-3,-8,5,0,17,29,9
13:43:45:522744,-8,-2,-31,-6,-4,-8,-10,-1
13:43:45:523547,-8,-2,-31,-6,-4,-8,-10,-1
13:43:45:529657,-14,11,-19,-25,-1,-13,-26,-10
13:43:45:537083,-12,1,-3,0,11,18,22,-11
13:43:45:544621,-12,1,-3,0,11,18,22,-11
13:43:45:552115,-1,-27,-22,18,-1,-26,-49,1
13:43:45:559551,-11,-6,-28,-3,-11,-4,-24,-12
13:43:45:567926,-11,-6,-28,-3,-11,-4,-24,-12
13:43:45:568622,-5,35,14,23,10,6,9,3
13:43:45:582812,-5,-1,-26,-20,9,-3,-14,-8
13:43:45:583595,-5,-1,-26,-20,9,-3,-14,-8
13:43:45:589544,5,-3,-3,-5,-12,-7,-2,8
13:43:45:597132,9,24,1,11,-6,-15,10,2
13:43:45:604656,9,24,1,11,-6,-15,10,2
13:43:45:612077,3,14,19,5,1,22,27,-9
13:43:45:619595,11,-11,0,12,5,3,-13,2
13:43:45:627797,11,-11,0,12,5,3,-13,2
13:43:45:628565,2,2,-11,-16,-14,-12,6,-2
13:43:45:642764,12,11,11,-16,-3,0,-35,-11
13:43:45:643581,12,11,11,-16,-3,0,-35,-11
13:43:45:649655,-6,10,-32,-7,1,20,38,-2
13:43:45:657035,-2,-8,-7,-12,-17,-21,-16,-3
13:43:45:664651,-2,-8,-7,-12,-17,-21,-16,-3
13:43:45:672099,4,-7,16,8,25,-15,-30,4
13:43:45:679706,1,19,14,43,9,12,9,6
13:43:45:687124,1,19,14,43,9,12,9,6
13:43:45:694600,-5,-6,-11,-7,-11,-15,-31,-10
13:43:45:702791,-4,-19,-18,-4,-5,-8,14,-6
13:43:45:703605,-4,-19,-18,-4,-5,-8,14,-6
13:43:45:709552,-19,-3,-25,-6,-9,-13,-17,1
13:43:45:725254,-8,-7,-5,-28,-18,-2,5,-9
13:43:45:726017,-8,-7,-5,-28,-18,-2,5,-9
13:43:45:732206,0,-5,-21,-29,-10,3,-21,-8
13:43:45:739543,0,-7,14,-1,7,35,47,29
13:43:45:747114,0,-7,14,-1,7,35,47,29
13:43:45:754555,9,5,17,3,-18,-3,27,1
13:43:45:762800,27,8,-2,12,15,19,9,5
13:43:45:763565,27,8,-2,12,15,19,9,5
13:43:45:769600,30,-9,31,26,-15,-9,0,-10
13:43:45:785286,-13,-17,-11,-14,-12,-21,-21,-12
13:43:45:786034,-13,-17,-11,-14,-12,-21,-21,-12
13:43:45:792022,-5,-22,-15,-19,-2,21,12,16
13:43:45:799545,-20,11,-2,-7,5,-11,2,3
13:43:45:807078,-20,11,-2,-7,5,-11,2,3
13:43:45:814515,-22,7,14,25,8,-22,-9,3
13:43:45:822805,12,-10,-8,-8,-6,-12,-18,-1
13:43:45:823569,12,-10,-8,-8,-6,-12,-18,-1
13:43:45:829631,0,1,15,3,15,10,-32,-10
13:43:45:845350,-1,-21,-11,1,-7,-16,-13,-4
13:43:45:846085,-1,-21,-11,1,-7,-16,-13,-4
13:43:45:852116,-9,7,21,-7,5,5,3,-10
13:43:45:859579,-20,4,-35,-14,-3,8,31,19
13:43:45:867227,-20,4,-35,-14,-3,8,31,19
13:43:45:874564,10,1,1,-7,-4,-14,-7,-15
13:43:45:882933,2,-7,-23,1,-5,8,-19,-16
13:43:45:883631,2,-7,-23,1,-5,8,-19,-16
13:43:45:889541,-18,-1,5,2,3,-5,-23,2
13:43:45:905313,-3,-25,-14,-15,-8,-4,18,13
13:43:45:906073,-3,-25,-14,-15,-8,-4,18,13
13:43:45:912079,-15,24,-2,23,5,2,-8,-1
13:43:45:919616,4,33,30,25,18,34,55,9
13:43:45:927258,4,33,30,25,18,34,55,9
13:43:45:934681,7,-5,10,-2,-6,-2,10,-1
13:43:45:942724,-9,-8,8,7,4,-26,-43,-7
13:43:45:943528,-9,-8,8,7,4,-26,-43,-7
13:43:45:949662,8,1,0,-15,-2,-1,18,10
13:43:45:965345,-11,12,17,3,-9,-2,-21,-5
13:43:45:966084,-11,12,17,3,-9,-2,-21,-5
13:43:45:972068,2,-20,-26,0,13,1,-8,-5
13:43:45:979609,-8,-10,-9,-24,0,-7,1,-11
13:43:45:987130,-8,-10,-9,-24,0,-7,1,-11
13:43:45:994576,0,3,-43,-14,-6,16,10,6
13:43:46:2777,3,-12,-1,-11,-1,-10,-1,2
13:43:46:3589,3,-12,-1,-11,-1,-10,-1,2
13:43:46:9552,22,-23,-7,2,3,11,7,7
13:43:46:25268,8,3,1,11,-1,-21,-29,-11
13:43:46:26041,8,3,1,11,-1,-21,-29,-11
13:43:46:32103,-6,25,-25,-1,-7,-10,-3,0
13:43:46:39555,-1,-2,-25,-16,9,-4,-8,-4
13:43:46:47167,-1,-2,-25,-16,9,-4,-8,-4
13:43:46:54557,-7,4,12,-4,-5,10,14,-7
13:43:46:62818,-1,13,8,9,-3,-9,-40,-19
13:43:46:63601,-1,13,8,9,-3,-9,-40,-19
13:43:46:69593,-6,6,-21,-12,-4,11,21,8
13:43:46:85319,-15,-18,-10,12,5,-18,-42,1
13:43:46:86053,-15,-18,-10,12,5,-18,-42,1
13:43:46:92024,8,-4,23,1,-9,-21,-9,-1
13:43:46:99643,28,3,-3,7,4,14,6,19
13:43:46:107081,28,3,-3,7,4,14,6,19
13:43:46:114585,8,-13,-25,16,4,1,6,8
13:43:46:122770,7,-22,8,22,2,-1,13,4
13:43:46:123570,7,-22,8,22,2,-1,13,4
13:43:46:129657,-17,5,15,8,-3,-13,-16,-3
13:43:46:145365,-5,1,12,0,1,24,55,-6
13:43:46:146067,-5,1,12,0,1,24,55,-6
13:43:46:152148,-3,-3,22,4,2,16,-7,-14
13:43:46:159528,-15,-8,-9,-13,-8,-3,12,1
13:43:46:167196,-15,-8,-9,-13,-8,-3,12,1
13:43:46:174570,-1,-27,12,2,-4,-19,-17,-3
13:43:46:182867,8,37,20,10,4,10,18,12
13:43:46:183530,8,37,20,10,4,10,18,12
13:43:46:189564,6,-4,14,14,4,7,23,3
13:43:46:205309,-6,-5,-3,-8,-13,-16,-8,-6
13:43:46:206090,-6,-5,-3,-8,-13,-16,-8,-6
13:43:46:220222,-4,9,-22,-10,19,5,-51,0
13:43:46:221001,6,-8,-9,1,-11,-10,-1,-6
13:43:46:227164,6,-8,-9,1,-11,-10,-1,-6
13:43:46:234591,4,2,-13,-26,-9,-5,16,7
13:43:46:242779,-6,-19,-19,-13,-8,-12,-16,-3
13:43:46:243601,-6,-19,-19,-13,-8,-12,-16,-3
13:43:46:249655,4,-1,-3,16,21,17,9,-3
13:43:46:265326,-4,-3,-19,-3,2,8,4,-4
13:43:46:266101,-4,-3,-19,-3,2,8,4,-4
13:43:46:272087,2,-4,9,-10,-17,-5,30,22
13:43:46:279654,6,-4,19,-2,4,16,11,-7
13:43:46:287175,6,-4,19,-2,4,16,11,-7
13:43:46:294608,6,1,-3,-3,2,-1,2,7
13:43:46:302770,9,-10,52,13,10,7,-20,6
13:43:46:303557,9,-10,52,13,10,7,-20,6
13:43:46:309558,-11,-24,11,-2,-13,-14,-11,-22
13:43:46:325272,-6,8,-2,6,-2,-8,-29,-17
13:43:46:326079,-6,8,-2,6,-2,-8,-29,-17
13:43:46:332120,-10,-9,-9,21,18,27,25,10
13:43:46:339564,-14,3,-7,-3,6,-7,-20,-9
13:43:46:347220,-14,3,-7,-3,6,-7,-20,-9
13:43:46:354591,-4,6,-2,-8,-16,-24,-15,-9
13:43:46:362823,10,10,34,-2,-5,-5,7,9
13:43:46:363591,10,10,34,-2,-5,-5,7,9
13:43:46:369551,-3,3,-18,-46,-11,-5,-12,-4
13:43:46:385309,7,-4,-17,-1,-5,16,18,15
13:43:46:386056,7,-4,-17,-1,-5,16,18,15
13:43:46:392134,3,-18,3,14,4,-1,23,-3
13:43:46:399657,-52,-16,-10,-6,7,7,-21,-27
13:43:46:407119,-52,-16,-10,-6,7,7,-21,-27
13:43:46:414556,12,6,-3,12,24,-11,-44,-12
13:43:46:422719,16,-4,-3,-22,-12,-14,6,9
13:43:46:423583,16,-4,-3,-22,-12,-14,6,9
13:43:46:429670,-3,16,4,-16,2,6,7,7
13:43:46:445243,2,9,13,7,4,5,19,2
13:43:46:446039,2,9,13,7,4,5,19,2
13:43:46:452109,-6,27,10,1,-9,-8,-13,-2
13:43:46:459519,9,6,-12,-13,-1,0,12,15
13:43:46:467200,9,6,-12,-13,-1,0,12,15
13:43:46:474579,-24,-19,-3,6,0,-5,-39,-44
13:43:46:482949,-3,19,6,26,-3,13,39,-1
13:43:46:483563,-3,19,6,26,-3,13,39,-1
13:43:46:489518,-5,-7,0,-10,-9,-5,4,3
13:43:46:505296,2,-9,-17,20,-4,-4,10,6
13:43:46:506068,2,-9,-17,20,-4,-4,10,6
13:43:46:512074,4,-1,-24,-17,-15,9,-6,-4
13:43:46:519610,14,28,20,6,-2,21,35,3
13:43:46:527193,14,28,20,6,-2,21,35,3
13:43:46:534628,6,19,24,1,-3,0,7,10
13:43:46:542883,14,-6,-13,-15,0,-4,-27,-7
13:43:46:543609,14,-6,-13,-15,0,-4,-27,-7
13:43:46:549639,5,0,7,-12,-6,-1,32,14
13:43:46:565299,-20,-17,-31,-13,-11,-35,-33,-10
13:43:46:566075,-20,-17,-31,-13,-11,-35,-33,-10
13:43:46:572049,4,-5,23,21,11,27,43,-3
13:43:46:579640,-1,29,12,-11,5,13,-11,-8
13:43:46:587176,-1,29,12,-11,5,13,-11,-8
13:43:46:594579,9,5,-15,-13,-18,-20,-15,4
13:43:46:602740,-19,-11,-2,-14,-13,-7,10,-9
13:43:46:603552,-19,-11,-2,-14,-13,-7,10,-9
13:43:46:609600,-12,-14,9,8,6,18,33,2
13:43:46:625350,5,-36,-7,8,8,-11,-46,-12
13:43:46:626082,5,-36,-7,8,8,-11,-46,-12
13:43:46:632166,-4,-11,-31,1,-8,-8,-4,3
13:43:46:647856,5,21,12,21,-6,-1,7,7
13:43:46:648594,5,21,12,21,-6,-1,7,7
13:43:46:654603,-5,19,-1,5,10,-16,-8,7
13:43:46:662305,-5,19,-1,5,10,-16,-8,7
13:43:46:669591,5,17,-6,-5,19,17,30,14
13:43:46:677071,-7,-6,7,14,9,-9,-14,0
13:43:46:685303,-7,-6,7,14,9,-9,-14,0
13:43:46:686032,-9,-19,-8,-3,-1,11,9,4
13:43:46:692120,-1,-20,-29,-20,-12,-3,-42,-5
13:43:46:707750,-1,-20,-29,-20,-12,-3,-42,-5
13:43:46:708527,-16,3,12,-10,-2,-9,-26,-24
13:43:46:723434,10,22,-1,22,6,-2,1,5
13:43:46:724273,10,22,-1,22,6,-2,1,5
13:43:46:725055,-2,-25,-17,-2,-5,0,-3,3
13:43:46:737111,10,-14,10,-6,-18,-8,1,-4
13:43:46:745383,10,-14,10,-6,-18,-8,1,-4
13:43:46:746075,11,2,1,-12,0,-10,8,3
13:43:46:752167,2,3,42,-3,-2,-1,12,3
13:43:46:767831,2,3,42,-3,-2,-1,12,3
13:43:46:768546,12,-11,-2,-1,1,11,14,-1
13:43:46:774565,-1,3,-22,-23,-7,-7,-9,3
13:43:46:782990,-1,3,-22,-23,-7,-7,-9,3
13:43:46:783596,3,-14,-27,-7,-17,-18,-29,-4
13:43:46:797087,-22,1,-3,-4,12,17,31,7
13:43:46:805364,-22,1,-3,-4,12,17,31,7
13:43:46:806065,-3,-7,-36,-17,2,-3,-13,9
13:43:46:812061,2,17,-11,-24,-15,-11,-23,-14
13:43:46:827780,2,17,-11,-24,-15,-11,-23,-14
13:43:46:828543,4,12,29,-2,11,6,22,7
13:43:46:834605,2,15,14,2,4,-1,14,2
13:43:46:842787,2,15,14,2,4,-1,14,2
13:43:46:843555,3,10,14,3,1,20,-10,-9
13:43:46:857113,-10,-33,25,16,4,-7,20,-5
13:43:46:865326,-10,-33,25,16,4,-7,20,-5
13:43:46:866067,-19,17,0,4,1,-8,0,-10
13:43:46:872037,6,-18,-20,10,2,13,42,-4
13:43:46:887764,6,-18,-20,10,2,13,42,-4
13:43:46:888537,3,2,-17,-3,-20,-29,-3,0
13:43:46:894520,-25,48,-1,2,13,8,-40,-20
13:43:46:902784,-25,48,-1,2,13,8,-40,-20
13:43:46:903567,12,12,0,-2,-9,-8,-2,7
13:43:46:917134,12,-2,2,33,-5,-4,-15,4
13:43:46:925270,12,-2,2,33,-5,-4,-15,4
13:43:46:926023,-2,14,8,12,1,-18,-21,-4
13:43:46:932066,-5,-50,0,-13,-10,4,1,0
13:43:46:947785,-5,-50,0,-13,-10,4,1,0
13:43:46:948516,11,-12,19,-7,6,2,19,9
13:43:46:954605,-6,-12,-30,-20,-15,-16,4,-11
13:43:46:962815,-6,-12,-30,-20,-15,-16,4,-11
13:43:46:963576,8,10,-19,1,8,7,-10,6
13:43:46:977075,5,-2,7,7,0,-1,-29,10
13:43:46:985362,5,-2,7,7,0,-1,-29,10
13:43:46:986028,-8,18,10,-16,-8,-1,1,-6
13:43:46:992109,5,-3,4,-10,6,-1,4,10
13:43:47:7747,5,-3,4,-10,6,-1,4,10
13:43:47:8556,4,-50,-36,-29,16,13,16,6
13:43:47:14643,1,7,2,-2,0,-4,-4,-4
13:43:47:22754,1,7,2,-2,0,-4,-4,-4
13:43:47:23561,-13,-38,19,7,2,-2,14,-5
13:43:47:37097,10,24,1,0,-12,-8,28,-8
13:43:47:45243,10,24,1,0,-12,-8,28,-8
13:43:47:46050,-3,-32,-2,-2,-9,2,-24,-15
13:43:47:52190,12,5,-11,5,3,1,-34,-6
13:43:47:67834,12,5,-11,5,3,1,-34,-6
13:43:47:68572,2,10,9,-16,-14,-4,-2,-5
13:43:47:74541,-3,-1,-33,-29,2,-2,-6,4
13:43:47:82817,-3,-1,-33,-29,2,-2,-6,4
13:43:47:83558,4,16,-20,7,9,21,16,2
13:43:47:97113,-2,-21,2,18,4,13,32,21
13:43:47:105330,-2,-21,2,18,4,13,32,21
13:43:47:106085,-15,22,28,22,2,3,0,3
13:43:47:112126,19,-11,6,-3,-1,29,23,-5
13:43:47:127818,19,-11,6,-3,-1,29,23,-5
13:43:47:128599,11,9,2,8,6,1,12,10
13:43:47:134660,-4,23,33,-1,-8,-7,-4,1
13:43:47:142801,-4,23,33,-1,-8,-7,-4,1
13:43:47:143576,9,-14,-11,-6,-7,-3,-15,-1
13:43:47:157040,-7,-1,15,-3,11,-5,-8,1
13:43:47:165347,-7,-1,15,-3,11,-5,-8,1
13:43:47:166084,-4,5,12,3,-3,-20,-12,-10
13:43:47:172063,-8,9,5,4,1,-4,2,4
13:43:47:187815,-8,9,5,4,1,-4,2,4
13:43:47:188583,-3,13,-22,-24,-11,9,-12,5
13:43:47:194558,-22,-9,-24,0,-15,-2,-13,-21
13:43:47:202815,-22,-9,-24,0,-15,-2,-13,-21
13:43:47:203570,7,-33,9,11,11,5,0,8
13:43:47:217158,5,-9,-6,-22,2,1,-5,3
13:43:47:225258,5,-9,-6,-22,2,1,-5,3
13:43:47:226026,-15,-22,-42,-21,-5,7,-5,-24
13:43:47:232145,-9,-21,-38,-16,9,-14,-10,-12
13:43:47:247850,-9,-21,-38,-16,9,-14,-10,-12
13:43:47:248647,8,35,-5,-1,-11,-10,17,15
13:43:47:254576,5,10,9,26,0,-17,-23,-8
13:43:47:262893,5,10,9,26,0,-17,-23,-8
13:43:47:263611,9,27,17,0,13,-2,16,-2
13:43:47:277039,-26,5,7,-9,-11,-3,-11,-6
13:43:47:285327,-26,5,7,-9,-11,-3,-11,-6
13:43:47:286061,-12,3,3,26,15,-3,-16,-8
13:43:47:292051,1,11,15,-16,-11,-3,3,5
13:43:47:307753,1,11,15,-16,-11,-3,3,5
13:43:47:308568,-16,-25,10,3,-8,-9,-10,-5
13:43:47:314568,24,-8,-12,26,12,13,10,8
13:43:47:322769,24,-8,-12,26,12,13,10,8
13:43:47:323563,4,3,-1,-12,-19,-12,7,11
13:43:47:337047,6,-6,-23,8,-1,-4,-8,-8
13:43:47:345240,6,-6,-23,8,-1,-4,-8,-8
13:43:47:346067,-10,-50,-38,-10,-1,27,33,-3
13:43:47:352095,5,-6,-17,0,-5,8,12,7
13:43:47:367889,5,-6,-17,0,-5,8,12,7
13:43:47:368555,-9,-20,34,23,-1,11,-4,5
13:43:47:374507,2,2,-21,27,22,-1,0,6
13:43:47:382820,2,2,-21,27,22,-1,0,6
13:43:47:383606,12,26,1,14,-16,-25,-17,3
13:43:47:397151,-4,-3,28,-7,7,6,-12,-12
13:43:47:405302,-4,-3,28,-7,7,6,-12,-12
13:43:47:406086,0,2,-1,17,16,0,7,1
13:43:47:412179,-1,20,2,0,13,16,12,3
13:43:47:427856,-1,20,2,0,13,16,12,3
13:43:47:428572,-5,7,3,-16,-8,-23,-41,-7
13:43:47:434709,11,-9,21,17,1,-1,-1,17
13:43:47:442788,11,-9,21,17,1,-1,-1,17
13:43:47:443561,0,2,12,-3,1,29,54,-3
13:43:47:457061,2,20,12,-18,-13,-15,-49,-35
13:43:47:465276,2,20,12,-18,-13,-15,-49,-35
13:43:47:466051,14,26,9,7,1,-19,-32,2
13:43:47:472110,-2,-26,5,-15,-9,7,41,9
13:43:47:487755,-2,-26,5,-15,-9,7,41,9
13:43:47:488557,0,7,18,-3,-8,-5,-5,-1
13:43:47:494574,-1,-29,-14,6,8,-7,-12,2
13:43:47:502769,-1,-29,-14,6,8,-7,-12,2
13:43:47:503558,3,-14,-28,13,-2,5,-1,19
13:43:47:517117,-11,-26,-34,-14,-20,-8,-5,-5
13:43:47:525236,-11,-26,-34,-14,-20,-8,-5,-5
13:43:47:526045,0,6,-13,1,16,10,-6,-7
13:43:47:532098,7,12,3,-2,4,4,-8,-2
13:43:47:547792,7,12,3,-2,4,4,-8,-2
13:43:47:548545,-6,-11,-2,8,9,-2,1,0
13:43:47:554609,-4,12,31,-15,-17,-18,9,4
13:43:47:562931,-4,12,31,-15,-17,-18,9,4
13:43:47:563616,-9,-9,-10,-6,1,-8,-14,-12
13:43:47:577153,-7,1,-4,21,5,9,17,1
13:43:47:592849,-7,1,-4,21,5,9,17,1
13:43:47:593600,-6,-8,8,-13,-10,-4,-5,-4
13:43:47:599669,1,14,14,-19,-10,0,-5,8
13:43:47:607795,1,14,14,-19,-10,0,-5,8
13:43:47:608551,-8,-5,-23,-11,-6,-14,14,-8
13:43:47:614574,-2,1,-12,0,-7,-10,-24,2
13:43:47:622164,-2,1,-12,0,-7,-10,-24,2
13:43:47:629671,2,8,2,-5,6,10,4,6
13:43:47:637084,7,4,-6,0,5,7,13,7
13:43:47:645269,7,4,-6,0,5,7,13,7
13:43:47:646050,0,-7,5,-11,-8,0,-4,-6
13:43:47:659538,-7,-25,3,47,21,6,24,-5
13:43:47:667822,-7,-25,3,47,21,6,24,-5
13:43:47:668575,2,8,-30,-22,-8,-5,-8,15
13:43:47:674581,-5,-2,-14,-11,-12,5,-12,-2
13:43:47:682160,-5,-2,-14,-11,-12,5,-12,-2
13:43:47:689553,-7,0,23,16,21,33,40,-2
13:43:47:697111,-13,-9,-3,-5,-5,-23,-32,-11
13:43:47:705270,-13,-9,-3,-5,-5,-23,-32,-11
13:43:47:706073,-3,1,-5,-1,-7,-5,8,9
13:43:47:719657,-5,4,35,2,-9,1,-8,-11
13:43:47:727804,-5,4,35,2,-9,1,-8,-11
13:43:47:728558,6,-2,-4,18,12,19,31,1
13:43:47:734620,17,29,-8,-7,-3,-5,-7,3
13:43:47:742137,17,29,-8,-7,-3,-5,-7,3
13:43:47:749663,-6,13,-24,-23,-21,-13,0,-5
13:43:47:757019,3,-9,-5,15,5,-1,-5,-1
13:43:47:765348,3,-9,-5,15,5,-1,-5,-1
13:43:47:766064,-5,-3,31,5,3,-3,-22,-7
13:43:47:779643,6,-7,-6,9,0,2,19,-6
13:43:47:787789,6,-7,-6,9,0,2,19,-6
13:43:47:788591,-23,-17,12,2,0,-7,-2,5
13:43:47:794531,-27,-2,-11,-12,-2,-7,-8,-5
13:43:47:802157,-27,-2,-11,-12,-2,-7,-8,-5
13:43:47:809598,9,-4,-19,-8,-4,-2,-9,-4
13:43:47:817187,-8,-21,-10,22,2,6,16,8
13:43:47:825304,-8,-21,-10,22,2,6,16,8
13:43:47:826047,12,-9,-8,-6,-11,-15,-34,-26
13:43:47:839532,-1,9,17,-11,-4,8,27,7
13:43:47:847843,-1,9,17,-11,-4,8,27,7
13:43:47:848550,3,-11,-13,5,-2,1,0,-8
13:43:47:854582,-2,8,18,17,6,-8,-19,-7
13:43:47:862246,-2,8,18,17,6,-8,-19,-7
13:43:47:869571,9,8,-18,6,15,1,-17,6
13:43:47:877087,-6,-4,12,4,3,7,41,-5
13:43:47:885337,-6,-4,12,4,3,7,41,-5
13:43:47:885995,-26,-18,9,4,-6,-20,-20,-35
13:43:47:899635,38,23,14,-2,1,13,-27,12
13:43:47:907807,38,23,14,-2,1,13,-27,12
13:43:47:908546,-4,-5,6,-16,-5,0,6,15
13:43:47:914637,-5,-36,-50,-31,-6,-14,-26,-10
13:43:47:922097,-5,-36,-50,-31,-6,-14,-26,-10
13:43:47:929716,11,11,7,4,-5,-3,3,5
13:43:47:937077,-1,-1,-6,-7,17,13,13,9
13:43:47:945276,-1,-1,-6,-7,17,13,13,9
13:43:47:946060,1,-22,-23,-9,-6,-8,7,1
13:43:47:959573,-5,-7,-7,-9,-8,8,5,2
13:43:47:967826,-5,-7,-7,-9,-8,8,5,2
13:43:47:968544,6,19,14,8,-2,-6,-3,3
13:43:47:974561,-1,15,45,16,7,-11,-3,3
13:43:47:982161,-1,15,45,16,7,-11,-3,3
13:43:47:989522,8,10,-20,-5,-8,6,11,10
13:43:47:997156,-2,-2,-11,-16,-10,-18,-19,-15
13:43:48:5306,-2,-2,-11,-16,-10,-18,-19,-15
13:43:48:6053,-17,-3,18,2,2,12,16,-2
13:43:48:19634,-19,5,-9,8,-9,-9,-10,-2
13:43:48:27832,-19,5,-9,8,-9,-9,-10,-2
13:43:48:28546,-19,-10,-3,7,-7,9,-21,-17
13:43:48:34653,22,36,0,9,15,4,6,-4
13:43:48:42136,22,36,0,9,15,4,6,-4
13:43:48:49630,-6,1,12,10,8,4,14,5
13:43:48:57049,3,-28,-12,-11,0,-8,-30,4
13:43:48:65359,3,-28,-12,-11,0,-8,-30,4
13:43:48:66085,-5,7,20,-3,1,22,35,-2
13:43:48:79642,-20,1,-13,-17,-13,4,29,4
13:43:48:87784,-20,1,-13,-17,-13,4,29,4
13:43:48:88616,14,49,17,0,27,-5,-63,-14
13:43:48:94589,-12,-19,7,-7,-16,-12,-8,7
13:43:48:102233,-12,-19,7,-7,-16,-12,-8,7
13:43:48:109594,4,13,0,-27,-23,-15,-14,-2
13:43:48:117168,-8,-11,-12,-20,-2,-1,-15,-6
13:43:48:125306,-8,-11,-12,-20,-2,-1,-15,-6
13:43:48:126069,-13,-3,3,16,28,21,27,13
13:43:48:139511,-13,-45,-14,-12,-3,5,14,6
13:43:48:147825,-13,-45,-14,-12,-3,5,14,6
13:43:48:148556,7,-30,-64,1,-21,-27,-29,-3
13:43:48:154597,16,-5,2,-5,3,10,-3,-2
13:43:48:162246,16,-5,2,-5,3,10,-3,-2
13:43:48:169613,4,10,32,9,8,8,11,-1
13:43:48:177087,2,-16,-8,3,-9,-6,9,-5
13:43:48:185332,2,-16,-8,3,-9,-6,9,-5
13:43:48:186046,4,-6,-5,-6,-21,-17,-14,-3
13:43:48:199610,-2,8,-7,4,15,11,7,-7
13:43:48:207813,-2,8,-7,4,15,11,7,-7
13:43:48:208577,3,0,-8,11,16,9,51,28
13:43:48:214590,14,14,6,-20,-14,-12,-11,6
13:43:48:222133,14,14,6,-20,-14,-12,-11,6
13:43:48:229678,-14,-13,14,-29,-13,-14,-12,-10
13:43:48:237110,12,52,32,11,17,7,6,3
13:43:48:245281,12,52,32,11,17,7,6,3
13:43:48:246061,-2,-3,25,12,-8,6,0,-5
13:43:48:259586,3,7,-11,-5,-19,-6,-26,-8
13:43:48:267893,3,7,-11,-5,-19,-6,-26,-8
13:43:48:268559,-1,-3,45,18,15,15,32,5
13:43:48:274642,-3,-6,-14,-3,-2,-6,4,3
13:43:48:282159,-3,-6,-14,-3,-2,-6,4,3
13:43:48:289533,1,-11,-32,-15,-17,-17,-14,18
13:43:48:297086,-3,-18,-22,23,8,2,-18,-18
13:43:48:305282,-3,-18,-22,23,8,2,-18,-18
13:43:48:306052,2,-7,-3,-19,-3,0,-7,-6
13:43:48:319600,-3,-4,4,-4,-3,-6,8,0
13:43:48:327813,-3,-4,4,-4,-3,-6,8,0
13:43:48:328549,0,-6,10,-2,-5,-10,-16,-5
13:43:48:334656,8,10,5,-4,4,21,16,6
13:43:48:342129,8,10,5,-4,4,21,16,6
13:43:48:349620,-5,2,-28,4,1,-5,-22,1
13:43:48:357024,-24,5,0,7,5,-1,-10,-12
13:43:48:365333,-24,5,0,7,5,-1,-10,-12
13:43:48:366101,9,18,17,54,23,7,-4,3
13:43:48:379602,-2,-5,-27,-9,-15,-15,-8,3
13:43:48:387821,-2,-5,-27,-9,-15,-15,-8,3
13:43:48:388619,-8,-12,-32,-15,-11,-18,-38,-30
13:43:48:394532,4,5,-3,-6,1,15,41,0
13:43:48:402131,4,5,-3,-6,1,15,41,0
13:43:48:409559,20,43,15,-5,-6,0,23,8
13:43:48:417130,-20,-4,11,4,3,9,-6,-23
13:43:48:425323,-20,-4,11,4,3,9,-6,-23
13:43:48:426062,8,-22,4,-5,0,3,18,-2
13:43:48:439573,-13,-6,23,-3,-5,-15,2,-1
13:43:48:447832,-13,-6,23,-3,-5,-15,2,-1
13:43:48:448557,-12,-56,-3,4,-6,-11,-1,1
13:43:48:454607,5,7,5,5,4,5,-8,-1
13:43:48:462156,5,7,5,5,4,5,-8,-1
13:43:48:469592,-22,-9,-17,-10,3,6,-12,-6
13:43:48:477123,-12,3,11,12,-10,-8,5,6
13:43:48:485338,-12,3,11,12,-10,-8,5,6
13:43:48:486109,-14,17,-3,-2,-1,22,34,0
13:43:48:499674,-2,14,5,-22,-1,-4,-17,4
13:43:48:507814,-2,14,5,-22,-1,-4,-17,4
13:43:48:508560,13,45,8,-29,6,-4,0,6
13:43:48:522788,0,-24,0,25,0,-11,-7,9
13:43:48:523557,0,-24,0,25,0,-11,-7,9
13:43:48:529663,-6,5,18,4,-6,5,-24,-19
13:43:48:537071,-1,-5,-20,-5,8,19,27,0
13:43:48:544658,-1,-5,-20,-5,8,19,27,0
13:43:48:552171,13,-11,-7,-21,-18,-24,-15,6
13:43:48:559599,10,-11,-2,22,4,13,43,11
13:43:48:567804,10,-11,-2,22,4,13,43,11
13:43:48:568532,5,-8,0,12,15,9,10,-3
13:43:48:582821,24,21,4,-37,-1,-5,-10,5
13:43:48:583544,24,21,4,-37,-1,-5,-10,5
13:43:48:589548,-21,-16,-4,2,-12,-12,-12,-10
13:43:48:597066,12,-5,-5,-7,-7,10,15,28
13:43:48:604595,12,-5,-5,-7,-7,10,15,28
13:43:48:612151,9,2,0,10,13,-3,3,20
13:43:48:619534,-18,-4,0,-2,6,3,-59,-43
13:43:48:627745,-18,-4,0,-2,6,3,-59,-43
13:43:48:628512,-14,8,-14,5,4,13,2,-8
13:43:48:642741,10,5,4,-3,-19,-18,1,-1
13:43:48:643544,10,5,4,-3,-19,-18,1,-1
13:43:48:649599,-11,11,10,-3,-5,-10,-11,-1
13:43:48:657056,-4,3,11,-10,12,8,-12,-4
13:43:48:664647,-4,3,11,-10,12,8,-12,-4
13:43:48:672094,10,2,4,-17,-13,3,16,-18
13:43:48:679638,-22,-18,-10,-1,-4,-8,-49,-2
13:43:48:687809,-22,-18,-10,-1,-4,-8,-49,-2
13:43:48:688621,0,8,3,-4,-6,9,-4,-7
13:43:48:703160,5,4,-15,-1,-12,-31,-27,-7
13:43:48:710279,5,4,-15,-1,-12,-31,-27,-7
13:43:48:711033,3,-11,-14,-1,-9,-11,-6,12
13:43:48:717119,9,24,22,47,17,9,9,1
13:43:48:724603,9,24,22,47,17,9,9,1
13:43:48:732083,10,-2,4,-3,-5,16,15,-11
13:43:48:739500,1,-1,0,-8,-2,9,22,2
13:43:48:755275,1,-1,0,-8,-2,9,22,2
13:43:48:756062,6,-10,-11,11,2,-19,-32,-4
13:43:48:762875,-1,-1,-17,0,8,7,7,0
13:43:48:763561,-1,-1,-17,0,8,7,7,0
13:43:48:769611,10,14,26,7,6,-4,9,16
13:43:48:777032,-9,-22,-32,5,-3,-17,-21,-23
13:43:48:784682,-9,-22,-32,5,-3,-17,-21,-23
13:43:48:792058,10,-9,3,1,-3,9,17,10
13:43:48:799622,3,2,5,-20,-14,-9,8,15
13:43:48:807733,3,2,5,-20,-14,-9,8,15
13:43:48:808509,-24,-4,4,2,18,24,15,-1
13:43:48:822770,-15,3,10,-7,-3,-6,5,-3
13:43:48:823536,-15,3,10,-7,-3,-6,5,-3
13:43:48:829614,2,-3,0,-1,-4,22,43,-1
13:43:48:837077,-6,6,6,-5,-2,-2,-10,-7
13:43:48:844608,-6,6,6,-5,-2,-2,-10,-7
13:43:48:852184,-5,5,-7,-5,-17,-28,-25,0
13:43:48:859574,-6,-13,-2,2,13,1,8,5
13:43:48:867881,-6,-13,-2,2,13,1,8,5
13:43:48:868550,-4,-12,-47,-22,-7,9,9,9
13:43:48:882764,0,-10,18,22,11,0,8,-3
13:43:48:883548,0,-10,18,22,11,0,8,-3
13:43:48:889545,-24,-7,34,11,16,-1,61,0
13:43:48:897137,18,-7,22,2,-7,9,1,10
13:43:48:904623,18,-7,22,2,-7,9,1,10
13:43:48:912145,9,10,9,12,1,-8,-18,5
13:43:48:919552,4,-2,-7,-1,2,4,10,9
13:43:48:927785,4,-2,-7,-1,2,4,10,9
13:43:48:928535,-12,-3,10,13,18,20,-5,0
13:43:48:942721,3,2,-21,-30,-14,5,26,9
13:43:48:943532,3,2,-21,-30,-14,5,26,9
13:43:48:949602,-7,-8,-38,-11,-2,-27,-65,-14
13:43:48:965326,10,24,29,-19,-25,-7,-17,-12
13:43:48:966045,10,24,29,-19,-25,-7,-17,-12
13:43:48:972064,10,-8,1,19,0,-2,5,1
13:43:48:988400,-1,4,-9,-15,-3,1,12,-8
13:43:48:989222,-1,4,-9,-15,-3,1,12,-8
13:43:48:990026,4,7,8,-8,-12,-33,-54,-18
13:43:49:2743,-4,6,11,5,10,34,47,6
13:43:49:3620,-4,6,11,5,10,34,47,6
13:43:49:9582,15,-16,-18,-7,-6,4,-37,-18
13:43:49:17163,-3,5,-8,-12,2,-10,-25,-2
13:43:49:24599,-3,5,-8,-12,2,-10,-25,-2
13:43:49:32178,2,-3,13,0,-4,-17,8,10
13:43:49:39555,-7,-12,6,33,-9,-7,-14,-12
13:43:49:47756,-7,-12,6,33,-9,-7,-14,-12
13:43:49:48556,1,-2,-39,-9,-4,-8,-27,-2
13:43:49:62810,-19,-33,-14,1,2,3,13,5
13:43:49:63540,-19,-33,-14,1,2,3,13,5
13:43:49:69624,14,-19,-11,-2,1,6,6,11
13:43:49:77142,8,3,18,8,-1,-6,-4,0
13:43:49:84660,8,3,18,8,-1,-6,-4,0
13:43:49:92048,-8,-2,5,10,10,13,21,-7
13:43:49:99686,7,-4,7,1,3,11,9,3
13:43:49:107792,7,-4,7,1,3,11,9,3
13:43:49:108533,-18,-11,-2,-14,-17,13,41,-15
13:43:49:122776,0,17,-3,-1,-8,-13,-17,-12
13:43:49:123559,0,17,-3,-1,-8,-13,-17,-12
13:43:49:129663,-11,5,16,14,-8,-5,-2,3
13:43:49:137095,-9,-3,-43,-6,0,-16,-20,-4
13:43:49:144591,-9,-3,-43,-6,0,-16,-20,-4
13:43:49:152081,4,20,12,-26,-2,-4,-13,-5
13:43:49:159543,2,-1,-26,-9,6,-6,-1,0
13:43:49:167902,2,-1,-26,-9,6,-6,-1,0
13:43:49:168628,8,11,10,5,-4,8,12,6
13:43:49:182873,9,6,-9,-12,-1,-4,4,-5
13:43:49:183613,9,6,-9,-12,-1,-4,4,-5
13:43:49:189525,-3,6,-17,-4,-9,-7,10,9
13:43:49:197161,14,54,16,1,-10,-4,-2,7
13:43:49:204672,14,54,16,1,-10,-4,-2,7
13:43:49:212155,10,2,18,-1,24,2,-30,-16
13:43:49:219619,-11,-5,4,12,2,5,-2,-3
13:43:49:227865,-11,-5,4,12,2,5,-2,-3
13:43:49:228613,5,4,-4,-13,-10,-7,3,0
13:43:49:243171,-10,56,26,-5,-4,7,5,1
13:43:49:244028,-10,56,26,-5,-4,7,5,1
13:43:49:249719,-10,-2,8,9,2,-21,-28,9
13:43:49:265307,-19,-44,14,-7,-9,-2,9,0
13:43:49:266113,-19,-44,14,-7,-9,-2,9,0
13:43:49:272077,1,18,9,6,19,23,19,-7
13:43:49:279674,5,0,27,25,4,-3,-26,-5
13:43:49:287806,5,0,27,25,4,-3,-26,-5
13:43:49:288588,-1,-11,12,-12,-13,-10,-1,1
13:43:49:302770,-5,-33,0,-10,-2,-9,4,3
13:43:49:303564,-5,-33,0,-10,-2,-9,4,3
13:43:49:309538,12,-22,-43,-17,-9,16,4,2
13:43:49:317160,10,-17,-56,-31,-16,-8,-9,-3
13:43:49:324631,10,-17,-56,-31,-16,-8,-9,-3
13:43:49:332108,-1,1,-13,-4,-5,-22,2,-10
13:43:49:339541,4,-5,-8,16,10,-5,24,-1
13:43:49:347714,4,-5,-8,16,10,-5,24,-1
13:43:49:348499,-17,-7,10,-4,3,-13,-22,-2
13:43:49:362979,-21,-22,5,-1,11,5,-20,-32
13:43:49:363585,-21,-22,5,-1,11,5,-20,-32
13:43:49:369561,-23,-14,28,-10,-6,-2,-2,-1
13:43:49:377153,10,25,-9,-3,-4,-1,-2,15
13:43:49:384718,10,25,-9,-3,-4,-1,-2,15
13:43:49:392056,5,4,-43,-20,-1,7,17,5
13:43:49:399623,5,-4,8,31,4,-15,-15,13
13:43:49:407777,5,-4,8,31,4,-15,-15,13
13:43:49:408534,13,12,7,14,-4,10,-13,5
13:43:49:422767,3,35,10,0,2,1,-12,-2
13:43:49:423534,3,35,10,0,2,1,-12,-2
13:43:49:429633,-26,-16,-6,9,10,7,35,-5
13:43:49:437103,2,-19,12,-11,-12,-15,-25,-10
13:43:49:444594,2,-19,12,-11,-12,-15,-25,-10
13:43:49:452091,9,-9,-4,-9,-11,-3,-5,8
13:43:49:459593,-5,-13,-44,-32,-4,-1,9,3
13:43:49:467199,-5,-13,-44,-32,-4,-1,9,3
13:43:49:474556,-3,-2,-8,6,23,28,27,3
13:43:49:482899,-23,-12,13,12,3,12,32,5
13:43:49:483594,-23,-12,13,12,3,12,32,5
13:43:49:497094,5,10,-28,-15,-14,-12,16,1
13:43:49:505311,11,0,-7,0,-2,3,3,6
13:43:49:506101,11,0,-7,0,-2,3,3,6
13:43:49:520936,6,7,29,14,-3,-12,-9,-2
13:43:49:521744,-3,-23,-21,-18,-6,-9,-20,-10
13:43:49:522566,-3,-23,-21,-18,-6,-9,-20,-10
13:43:49:543434,-1,7,-27,-10,-4,14,11,-9
13:43:49:544165,-47,4,-2,-1,-6,7,17,-11
13:43:49:545035,-47,4,-2,-1,-6,7,17,-11
13:43:49:549686,4,-11,-2,11,7,-6,-22,-15
13:43:49:565343,12,-21,-14,1,-12,1,20,1
13:43:49:566116,12,-21,-14,1,-12,1,20,1
13:43:49:572048,-3,5,-6,-1,-2,17,4,1
13:43:49:580381,3,0,10,23,6,-13,-20,4
13:43:49:581092,3,0,10,23,6,-13,-20,4
13:43:49:594526,13,2,16,6,-2,-26,-20,2
13:43:49:602822,-2,3,-11,1,23,10,-15,-8
13:43:49:603603,-2,3,-11,1,23,10,-15,-8
13:43:49:609571,11,0,-4,7,7,-8,4,26
13:43:49:625254,7,59,7,-16,-4,8,-1,-9
13:43:49:626047,7,59,7,-16,-4,8,-1,-9
13:43:49:632099,-25,-7,1,15,-9,1,-3,1
13:43:49:640299,20,-10,-61,-33,-3,2,3,4
13:43:49:641101,20,-10,-61,-33,-3,2,3,4
13:43:49:654566,-7,22,27,-7,-4,-5,1,-7
13:43:49:662826,14,-11,19,15,-3,1,36,-8
13:43:49:663621,14,-11,19,15,-3,1,36,-8
13:43:49:669556,-15,-17,-6,-4,-3,1,-10,6
13:43:49:685297,-7,-26,11,-24,-13,-7,-15,0
13:43:49:686093,-7,-26,11,-24,-13,-7,-15,0
13:43:49:692046,-2,-11,2,-5,8,11,6,-7
13:43:49:700311,2,-27,23,-5,-10,-7,-6,12
13:43:49:701048,2,-27,23,-5,-10,-7,-6,12
13:43:49:714519,20,15,-31,-4,-3,-5,-25,-7
13:43:49:722770,1,-2,7,0,-8,-15,-4,-3
13:43:49:723553,1,-2,7,0,-8,-15,-4,-3
13:43:49:729671,17,-8,2,8,7,-15,-8,6
13:43:49:745290,-7,0,-30,-4,-2,0,8,6
13:43:49:746115,-7,0,-30,-4,-2,0,8,6
13:43:49:752138,-7,2,-6,1,21,-2,-17,-16
13:43:49:760314,-11,-14,5,11,2,3,-4,2
13:43:49:761067,-11,-14,5,11,2,3,-4,2
13:43:49:775082,2,-18,6,-8,-19,-5,-1,-2
13:43:49:782827,-2,0,13,8,0,1,34,8
13:43:49:783549,-2,0,13,8,0,1,34,8
13:43:49:797125,3,7,34,-6,0,3,-35,-16
13:43:49:805286,13,-8,12,3,-3,5,-12,-6
13:43:49:806066,13,-8,12,3,-3,5,-12,-6
13:43:49:812161,-6,5,12,17,-6,-8,4,-9
13:43:49:820272,-1,8,9,3,14,4,-8,6
13:43:49:821055,-1,8,9,3,14,4,-8,6
13:43:49:834636,-3,40,16,9,4,12,0,2
13:43:49:842717,-8,3,-7,10,17,10,-4,-6
13:43:49:843541,-8,3,-7,10,17,10,-4,-6
13:43:49:849646,2,-37,-28,-20,-13,2,18,-1
13:43:49:865287,13,10,14,25,1,5,18,8
13:43:49:866025,13,10,14,25,1,5,18,8
13:43:49:872062,-2,8,-15,-4,-6,-10,23,9
13:43:49:880278,14,13,-2,1,8,13,-8,-6
13:43:49:881024,14,13,-2,1,8,13,-8,-6
13:43:49:894679,4,14,0,-8,5,-2,-3,-9
13:43:49:902778,24,16,-18,-22,-6,15,43,3
13:43:49:903560,24,16,-18,-22,-6,15,43,3
13:43:49:909560,-3,-18,-25,-19,-8,-12,-43,-6
13:43:49:925215,-3,-18,-25,-19,-8,-12,-43,-6
13:43:49:926043,-11,-3,3,-5,-8,-20,0,-5
13:43:49:932140,-10,-34,-6,1,-6,-5,13,-2
13:43:49:947789,-10,-34,-6,1,-6,-5,13,-2
13:43:49:948548,-4,-14,15,25,10,-5,-16,12
13:43:49:954558,-4,9,-5,2,-4,-17,-17,0
13:43:49:962803,-4,9,-5,2,-4,-17,-17,0
13:43:49:963527,-23,10,5,-3,1,9,9,6
13:43:49:969600,-13,-16,11,15,-6,19,36,0
13:43:49:985331,-13,-16,11,15,-6,19,36,0
13:43:49:986104,-5,-1,-34,-4,5,-9,-38,-17
13:43:49:992035,-1,5,3,-2,-10,-14,-1,-3
13:43:50:7809,-1,5,3,-2,-10,-14,-1,-3
13:43:50:8565,2,-9,15,6,14,12,29,-5
13:43:50:14619,-6,41,0,7,4,12,22,5
13:43:50:22786,-6,41,0,7,4,12,22,5
13:43:50:23595,-7,-12,-6,-11,-12,-7,-5,2
13:43:50:29623,10,11,23,-4,2,13,-2,2
13:43:50:53475,10,11,23,-4,2,13,-2,2
13:43:50:54252,6,9,3,-12,-16,-17,-13,16
13:43:50:55094,12,10,-2,-2,4,1,-8,6
13:43:50:75950,12,10,-2,-2,4,1,-8,6
13:43:50:76771,-10,-11,8,-10,-16,-7,-1,-10
13:43:50:77558,-14,-5,2,-10,18,-3,-3,1
13:43:50:82797,-14,-5,2,-10,18,-3,-3,1
13:43:50:83537,11,32,52,9,-10,-9,-15,3
13:43:50:89546,4,-21,-33,-7,5,8,16,24
13:43:50:105708,4,-21,-33,-7,5,8,16,24
13:43:50:106506,7,2,-11,-8,2,2,-26,3
13:43:50:112063,-4,-3,-2,-13,-12,-4,7,-2
13:43:50:127883,-4,-3,-2,-13,-12,-4,7,-2
13:43:50:128553,-10,-24,-11,11,-1,-5,-12,-2
13:43:50:134601,4,3,-9,-3,4,-1,-23,-8
13:43:50:142777,4,3,-9,-3,4,-1,-23,-8
13:43:50:143592,8,-6,-27,13,20,12,6,-8
13:43:50:149718,-3,-1,8,18,-1,-7,6,5
13:43:50:165377,-3,-1,8,18,-1,-7,6,5
13:43:50:166122,-5,2,-6,-14,-8,-14,-38,-14
13:43:50:172062,5,11,27,-21,-7,-2,-26,-7
13:43:50:187818,5,11,27,-21,-7,-2,-26,-7
13:43:50:188567,5,-1,-3,13,5,12,5,-2
13:43:50:194615,1,-6,2,-2,-8,-13,-3,-3
13:43:50:202828,1,-6,2,-2,-8,-13,-3,-3
13:43:50:203570,-8,-29,-7,-4,-5,-4,19,-5
13:43:50:209606,6,4,-3,9,-8,-4,23,14
13:43:50:225248,6,4,-3,9,-8,-4,23,14
13:43:50:226033,-2,-12,11,-4,-3,7,5,2
13:43:50:232112,-6,-7,5,1,-10,-22,-29,-6
13:43:50:247766,-6,-7,5,1,-10,-22,-29,-6
13:43:50:248548,-8,-11,-20,-4,4,6,11,-3
13:43:50:254558,-3,-16,14,1,5,2,8,0
13:43:50:262935,-3,-16,14,1,5,2,8,0
13:43:50:263600,6,11,13,-9,22,2,-7,-6
13:43:50:269556,2,-7,-11,-2,5,24,62,2
13:43:50:285283,2,-7,-11,-2,5,24,62,2
13:43:50:286097,-6,17,-17,-11,-24,-23,-27,-8
13:43:50:292037,-20,8,-28,-1,-3,5,3,0
13:43:50:307829,-20,8,-28,-1,-3,5,3,0
13:43:50:308530,-10,27,11,-10,-14,1,1,-4
13:43:50:314549,8,17,5,17,15,7,-7,0
13:43:50:322782,8,17,5,17,15,7,-7,0
13:43:50:323555,4,24,2,-15,-4,-10,-5,2
13:43:50:329611,-7,-5,2,-3,-8,-15,-20,-7
13:43:50:345294,-7,-5,2,-3,-8,-15,-20,-7
13:43:50:346060,4,-14,5,5,-6,3,15,-1
13:43:50:352186,7,-21,-4,16,-3,-4,-9,-14
13:43:50:367816,7,-21,-4,16,-3,-4,-9,-14
13:43:50:368515,-15,-10,-16,31,12,2,5,4
13:43:50:374556,-17,-9,14,14,9,-6,-20,-16
13:43:50:382815,-17,-9,14,14,9,-6,-20,-16
13:43:50:383548,9,28,-14,40,10,6,2,9
13:43:50:389494,-10,3,6,-15,-10,14,21,0
13:43:50:405293,-10,3,6,-15,-10,14,21,0
13:43:50:406075,0,-28,-5,-14,-4,16,6,-8
13:43:50:412111,7,-7,-33,-8,-1,-5,-19,-2
13:43:50:427870,7,-7,-33,-8,-1,-5,-19,-2
13:43:50:428549,12,-32,4,-15,5,1,19,11
13:43:50:434672,-1,0,24,-3,-12,-8,-20,-7
13:43:50:442773,-1,0,24,-3,-12,-8,-20,-7
13:43:50:443534,-8,-19,-12,15,1,2,-3,9
13:43:50:457059,-3,-5,-1,-2,0,2,8,-19
13:43:50:465346,-3,-5,-1,-2,0,2,8,-19
13:43:50:466047,-15,5,22,2,-8,7,41,-2
13:43:50:472106,6,4,-17,-4,-11,-2,10,5
13:43:50:479673,6,4,-17,-4,-11,-2,10,5
13:43:50:487101,0,5,2,1,2,0,-18,-7
13:43:50:494537,6,-8,-34,11,12,2,11,15
13:43:50:502758,6,-8,-34,11,12,2,11,15
13:43:50:503580,-5,15,12,-36,7,-7,-12,3
13:43:50:517211,6,-2,-20,-32,-6,-5,-12,11
13:43:50:525277,6,-2,-20,-32,-6,-5,-12,11
13:43:50:526028,-33,-9,-13,-18,-8,-12,-23,-20
13:43:50:532101,3,14,12,5,-1,-5,-35,-10
13:43:50:539604,3,14,12,5,-1,-5,-35,-10
13:43:50:547114,18,1,-7,0,1,-3,5,7
13:43:50:554562,-6,12,7,-5,-2,0,-8,-4
13:43:50:562902,-6,12,7,-5,-2,0,-8,-4
13:43:50:563560,3,3,7,22,20,14,11,0
13:43:50:577072,1,-11,17,1,9,15,10,3
13:43:50:585366,1,-11,17,1,9,15,10,3
13:43:50:586099,-39,-7,8,0,-18,-14,-18,-14
13:43:50:592047,-10,-15,1,2,-10,-16,-1,13
13:43:50:599717,-10,-15,1,2,-10,-16,-1,13
13:43:50:607085,31,-6,-8,3,3,17,10,3
13:43:50:614551,-4,-6,9,6,-2,-2,10,-14
13:43:50:622779,-4,-6,9,6,-2,-2,10,-14
13:43:50:623600,20,5,-9,-31,-11,3,3,11
13:43:50:637089,7,4,15,24,15,5,7,6
13:43:50:645305,7,4,15,24,15,5,7,6
13:43:50:646097,9,-3,28,3,-2,-4,-18,0
13:43:50:652130,-8,8,15,3,-7,-5,16,-8
13:43:50:659638,-8,8,15,3,-7,-5,16,-8
13:43:50:667119,22,12,26,-1,-4,-7,10,7
13:43:50:674564,6,30,-1,3,4,-2,-28,-27
13:43:50:683103,6,30,-1,3,4,-2,-28,-27
13:43:50:683560,9,27,21,30,-6,-6,-4,7
13:43:50:697116,8,-38,2,-5,0,11,22,12
13:43:50:705239,8,-38,2,-5,0,11,22,12
13:43:50:706067,-8,9,-2,33,-8,-8,-9,-14
13:43:50:712107,15,-30,-42,-16,-4,-10,-19,6
13:43:50:719651,15,-30,-42,-16,-4,-10,-19,6
13:43:50:727099,-18,-12,-42,-25,-6,-8,0,-9
13:43:50:734694,6,23,-3,-2,-6,-9,4,3
13:43:50:742776,6,23,-3,-2,-6,-9,4,3
13:43:50:743555,-12,-15,-24,-20,10,17,24,5
13:43:50:757097,-3,-1,-13,7,2,11,-5,-2
13:43:50:765300,-3,-1,-13,7,2,11,-5,-2
13:43:50:766038,5,-6,-16,-8,6,-9,-13,0
13:43:50:772101,-6,3,17,0,3,4,17,5
13:43:50:779775,-6,3,17,0,3,4,17,5
13:43:50:787129,1,8,-6,-6,-3,2,-10,-9
13:43:50:794589,-11,-52,-1,-25,-5,-9,-10,-4
13:43:50:802824,-11,-52,-1,-25,-5,-9,-10,-4
13:43:50:803583,7,-12,21,-7,-1,-7,-5,3
13:43:50:817177,-10,14,-5,2,3,21,52,8
13:43:50:825279,-10,14,-5,2,3,21,52,8
13:43:50:826065,4,-8,-2,-9,-17,-17,-25,5
13:43:50:832097,9,36,14,9,6,-5,-26,-5
13:43:50:839617,9,36,14,9,6,-5,-26,-5
13:43:50:847120,-10,-13,-21,0,-3,-9,-11,-9
13:43:50:854564,-1,-16,-17,-4,-11,-7,-1,2
13:43:50:862898,-1,-16,-17,-4,-11,-7,-1,2
13:43:50:863587,7,2,-24,-13,3,8,6,9
13:43:50:877188,4,2,29,5,13,6,-9,-2
13:43:50:885379,4,2,29,5,13,6,-9,-2
13:43:50:886060,-9,-1,25,9,9,1,-24,-23
13:43:50:892083,0,35,11,-8,-13,-14,-7,-6
13:43:50:899725,0,35,11,-8,-13,-14,-7,-6
13:43:50:907048,-8,-32,-1,-16,-11,-5,6,-3
13:43:50:914580,-18,-17,-7,-11,0,-5,5,1
13:43:50:922745,-18,-17,-7,-11,0,-5,5,1
13:43:50:923527,0,-39,9,-5,-3,-5,-10,2
13:43:50:937137,3,6,3,-10,-10,9,-19,0
13:43:50:945343,3,6,3,-10,-10,9,-19,0
13:43:50:946065,-11,20,23,40,7,0,4,-6
13:43:50:952192,-2,-1,-27,-24,-5,7,-12,1
13:43:50:959656,-2,-1,-27,-24,-5,7,-12,1
13:43:50:967154,-10,-4,-29,-32,3,3,4,-1
13:43:50:974589,-10,-9,6,17,0,-9,-21,-5
13:43:50:982763,-10,-9,6,17,0,-9,-21,-5
13:43:50:983562,1,7,-11,1,1,-8,4,-1
13:43:50:997113,10,-23,-7,-14,-14,4,0,4
13:43:51:5280,10,-23,-7,-14,-14,4,0,4
13:43:51:6051,6,2,-28,16,15,6,36,9
13:43:51:12049,8,15,-5,1,9,-5,-6,1
13:43:51:19617,8,15,-5,1,9,-5,-6,1
13:43:51:27090,1,-5,8,-1,-10,-10,-23,-2
13:43:51:34662,-3,15,-8,9,14,15,17,-11
13:43:51:42759,-3,15,-8,9,14,15,17,-11
13:43:51:43536,-4,22,40,0,-4,-5,-1,3
13:43:51:57072,-21,-16,9,13,-4,-11,4,3
13:43:51:65274,-21,-16,9,13,-4,-11,4,3
13:43:51:66048,6,0,-21,-43,2,2,-14,2
13:43:51:72157,2,-10,-11,13,26,16,19,10
13:43:51:79670,2,-10,-11,13,26,16,19,10
13:43:51:87088,4,12,21,15,-4,-2,7,-3
13:43:51:94559,-5,-36,-33,-18,-14,5,-7,-4
13:43:51:102799,-5,-36,-33,-18,-14,5,-7,-4
13:43:51:103573,-5,23,24,10,-6,7,21,-11
13:43:51:117114,-8,-13,-6,2,-10,-14,-5,-21
13:43:51:125291,-8,-13,-6,2,-10,-14,-5,-21
13:43:51:126027,-15,-26,-41,-24,-9,0,-8,-3
13:43:51:132096,-11,0,33,6,0,-2,-3,3
13:43:51:139600,-11,0,33,6,0,-2,-3,3
13:43:51:147156,-1,-3,-43,44,26,12,1,12
13:43:51:154524,6,6,3,-22,-17,-11,6,1
13:43:51:162899,6,6,3,-22,-17,-11,6,1
13:43:51:163617,9,-12,16,-3,-8,-11,-10,-8
13:43:51:177189,10,20,21,8,-7,-12,-14,6
13:43:51:185423,10,20,21,8,-7,-12,-14,6
13:43:51:186161,10,-11,-39,-39,-8,9,8,0
13:43:51:192088,-10,26,14,7,10,-11,-8,0
13:43:51:199724,-10,26,14,7,10,-11,-8,0
13:43:51:207092,-9,11,-1,4,-16,0,3,9
13:43:51:214587,9,-9,-35,-8,9,5,-20,-12
13:43:51:222757,9,-9,-35,-8,9,5,-20,-12
13:43:51:223530,-5,1,20,5,0,-1,16,-16
13:43:51:237067,-5,-1,-3,10,-6,-11,10,1
13:43:51:245407,-5,-1,-3,10,-6,-11,10,1
13:43:51:246058,-8,-18,-34,-28,-2,-14,-4,14
13:43:51:252076,5,-8,20,-13,-4,-2,-5,-5
13:43:51:259585,5,-8,20,-13,-4,-2,-5,-5
13:43:51:267137,-7,1,14,21,7,-3,-7,6
13:43:51:274597,-15,-9,-29,-5,-2,-5,-14,-5
13:43:51:282870,-15,-9,-29,-5,-2,-5,-14,-5
13:43:51:283537,9,-7,12,23,-9,0,-24,-14
13:43:51:297161,-10,9,11,37,8,6,19,4
13:43:51:305259,-10,9,11,37,8,6,19,4
13:43:51:306051,-10,12,-9,-9,-3,-2,7,2
13:43:51:312092,12,3,-5,-17,-5,7,29,4
13:43:51:319574,12,3,-5,-17,-5,7,29,4
13:43:51:327142,4,17,14,4,10,7,37,12
13:43:51:334575,11,-5,-18,-8,-4,-12,-21,-8
13:43:51:342762,11,-5,-18,-8,-4,-12,-21,-8
13:43:51:343543,-1,13,26,25,14,1,-14,-4
13:43:51:357100,-7,-1,18,-6,6,6,2,12
13:43:51:365305,-7,-1,18,-6,6,6,2,12
13:43:51:366044,9,-7,-8,-22,-1,-9,-39,-4
13:43:51:380285,2,-17,-8,-8,-16,-5,-2,-4
13:43:51:381067,2,-17,-8,-8,-16,-5,-2,-4
13:43:51:387114,9,32,18,-4,-5,-12,-1,8
13:43:51:394615,5,8,5,-9,-4,6,39,7
13:43:51:402134,5,8,5,-9,-4,6,39,7
13:43:51:409509,-4,-30,8,4,-2,6,-11,-6
13:43:51:417146,-8,10,12,10,-3,-1,2,2
13:43:51:425300,-8,10,12,10,-3,-1,2,2
13:43:51:426060,-2,12,12,-3,8,9,12,-4
13:43:51:440266,-4,10,4,1,5,11,6,-6
13:43:51:441052,-4,10,4,1,5,11,6,-6
13:43:51:447159,-39,26,6,4,-9,-4,-47,-36
13:43:51:454577,-2,-19,-15,-28,-7,-6,-2,3
13:43:51:462268,-2,-19,-15,-28,-7,-6,-2,3
13:43:51:469561,22,15,24,-1,3,-2,12,14
13:43:51:477081,-16,16,1,10,-1,-1,-2,-3
13:43:51:492727,-16,16,1,10,-1,-1,-2,-3
13:43:51:493556,16,-19,-20,-25,-8,-19,-27,4
13:43:51:500265,24,-11,-13,1,4,-2,9,15
13:43:51:501049,24,-11,-13,1,4,-2,9,15
13:43:51:507060,1,-8,-18,-11,0,10,-10,-20
13:43:51:514558,-1,-8,-10,2,5,3,-13,-1
13:43:51:522156,-1,-8,-10,2,5,3,-13,-1
13:43:51:529668,-10,-16,7,4,-10,-10,6,9
13:43:51:537097,-12,13,15,0,-7,-8,-21,-11
13:43:51:545422,-12,13,15,0,-7,-8,-21,-11
13:43:51:546100,5,-29,-3,15,5,11,26,14
13:43:51:560319,8,19,25,-9,-9,11,23,10
13:43:51:561097,8,19,25,-9,-9,11,23,10
13:43:51:567156,8,-5,-14,2,-2,-17,-25,-9
13:43:51:574567,2,-33,-37,-4,-5,-18,-14,-3
13:43:51:582194,2,-33,-37,-4,-5,-18,-14,-3
13:43:51:589537,-13,4,-1,5,0,8,31,-4
13:43:51:597120,5,-1,-4,-1,-8,-7,-9,-4
13:43:51:605275,5,-1,-4,-1,-8,-7,-9,-4
13:43:51:606050,5,-7,-13,-9,-13,-13,2,20
13:43:51:620330,1,17,-16,-5,23,14,-10,-2
13:43:51:621106,1,17,-16,-5,23,14,-10,-2
13:43:51:627147,-8,-14,4,-14,-11,-18,-10,2
13:43:51:634679,21,21,26,18,0,3,12,7
13:43:51:642117,21,21,26,18,0,3,12,7
13:43:51:649703,-1,12,-2,-3,1,-1,2,-4
13:43:51:657042,-28,-10,5,-18,12,13,13,-2
13:43:51:665299,-28,-10,5,-18,12,13,13,-2
13:43:51:666047,11,19,6,-1,3,-7,-29,7
13:43:51:680297,4,-17,13,26,35,20,28,10
13:43:51:681072,4,-17,13,26,35,20,28,10
13:43:51:687096,11,6,2,22,-5,34,19,-9
13:43:51:694587,-11,0,-26,4,-7,0,-21,-1
13:43:51:702105,-11,0,-26,4,-7,0,-21,-1
13:43:51:709537,-22,-25,-26,-31,-12,-23,-18,-21
13:43:51:717199,14,8,-4,-16,-5,2,7,8
13:43:51:725264,14,8,-4,-16,-5,2,7,8
13:43:51:726053,0,10,5,-14,-6,10,28,12
13:43:51:740252,5,-9,-18,-22,-19,-26,-30,-1
13:43:51:741082,5,-9,-18,-22,-19,-26,-30,-1
13:43:51:747156,7,-19,-7,14,24,27,20,9
13:43:51:754601,-30,-2,0,6,-15,-22,-41,-26
13:43:51:762175,-30,-2,0,6,-15,-22,-41,-26
13:43:51:769558,-3,9,-5,5,-4,-4,13,-4
13:43:51:777131,13,-22,4,0,-11,-34,-25,-6
13:43:51:785325,13,-22,4,0,-11,-34,-25,-6
13:43:51:786092,-27,16,24,29,20,16,24,4
13:43:51:800324,28,10,43,1,0,6,7,7
13:43:51:801091,28,10,43,1,0,6,7,7
13:43:51:807075,19,18,2,-17,-4,-5,-5,-18
13:43:51:814637,-15,10,-7,-6,-3,19,24,-11
13:43:51:822148,-15,10,-7,-6,-3,19,24,-11
13:43:51:829674,-9,-10,-9,-4,-8,-9,4,-11
13:43:51:837112,-18,1,12,13,0,-5,-15,-3
13:43:51:845268,-18,1,12,13,0,-5,-15,-3
13:43:51:846074,10,15,-6,-7,-15,-10,-20,1
13:43:51:860290,-12,-36,1,35,14,28,16,-6
13:43:51:861080,-12,-36,1,35,14,28,16,-6
13:43:51:867124,-14,-22,7,8,-7,-10,8,11
13:43:51:874557,-6,10,0,-19,9,18,19,-2
13:43:51:882169,-6,10,0,-19,9,18,19,-2
13:43:51:889537,7,-12,-5,-6,-12,-9,-13,4
13:43:51:897130,11,0,-5,5,0,-3,-15,0
13:43:51:905275,11,0,-5,5,0,-3,-15,0
13:43:51:906089,8,19,8,14,11,3,-1,8
13:43:51:920274,13,16,2,5,-10,-13,-10,2
13:43:51:921070,13,16,2,5,-10,-13,-10,2
13:43:51:927115,1,8,8,6,6,-4,-8,-6
13:43:51:934667,-6,-45,-8,23,-5,-6,7,7
13:43:51:942164,-6,-45,-8,23,-5,-6,7,7
13:43:51:949654,-3,5,14,16,6,5,17,8
13:43:51:957062,0,20,-38,-22,-12,-4,26,10
13:43:51:965324,0,20,-38,-22,-12,-4,26,10
13:43:51:966037,-13,9,-22,-18,4,-5,2,-1
13:43:51:980334,6,15,12,-11,14,17,1,-3
13:43:51:981090,6,15,12,-11,14,17,1,-3
13:43:51:987097,11,-12,9,-5,-11,0,-2,-10
13:43:51:994534,-1,7,-6,-3,-9,-4,-6,1
13:43:52:2188,-1,7,-6,-3,-9,-4,-6,1
13:43:52:9538,7,-21,6,0,5,16,1,6
13:43:52:17202,-20,-21,-27,-15,-7,-29,-48,-21
13:43:52:25310,-20,-21,-27,-15,-7,-29,-48,-21
13:43:52:26040,-20,0,13,11,13,1,-7,3
13:43:52:40243,7,19,30,1,-1,4,-10,-3
13:43:52:41064,7,19,30,1,-1,4,-10,-3
13:43:52:47093,11,30,10,3,-8,-4,-7,-6
13:43:52:54577,10,14,-16,-11,3,-6,6,3
13:43:52:62217,10,14,-16,-11,3,-6,6,3
13:43:52:69861,3,-20,-54,-23,-14,2,8,6
13:43:52:77100,16,9,18,15,8,15,10,8
13:43:52:85382,16,9,18,15,8,15,10,8
13:43:52:86136,1,-13,-6,-12,-8,-12,-33,-15
13:43:52:100338,13,-9,5,-21,-10,-4,-5,-1
13:43:52:101131,13,-9,5,-21,-10,-4,-5,-1
13:43:52:107040,2,-14,-21,-26,-4,-9,-7,-8
13:43:52:114595,-3,-15,-8,6,-7,0,1,2
13:43:52:122163,-3,-15,-8,6,-7,0,1,2
13:43:52:129727,-3,1,-1,14,7,-9,0,-3
13:43:52:137114,-20,-11,-16,-23,-7,0,28,14
13:43:52:145253,-20,-11,-16,-23,-7,0,28,14
13:43:52:146049,-8,-19,-3,15,6,6,-3,-12
13:43:52:160333,-30,-18,-3,0,-5,-24,-42,-16
13:43:52:161052,-30,-18,-3,0,-5,-24,-42,-16
13:43:52:167101,11,14,40,8,8,3,3,2
13:43:52:174601,6,-33,-36,7,3,2,8,-2
13:43:52:182127,6,-33,-36,7,3,2,8,-2
13:43:52:189571,2,19,-3,3,-2,-1,10,3
13:43:52:197122,0,-8,-19,-36,-13,-11,-3,3
13:43:52:205266,0,-8,-19,-36,-13,-11,-3,3
13:43:52:206057,-1,-4,12,3,12,13,14,8
13:43:52:220258,-10,21,13,8,-3,0,-10,-1
13:43:52:221070,-10,21,13,8,-3,0,-10,-1
13:43:52:227161,-8,1,-6,11,-8,-3,-5,4
13:43:52:234675,4,-3,-11,-7,1,5,11,2
13:43:52:242108,4,-3,-11,-7,1,5,11,2
13:43:52:249593,-9,27,7,-13,-5,4,1,-5
13:43:52:257077,0,2,-4,-2,-11,-1,-4,-7
13:43:52:265249,0,2,-4,-2,-11,-1,-4,-7
13:43:52:266041,5,-12,-9,13,13,21,19,5
13:43:52:280264,28,29,8,-2,0,-10,10,9
13:43:52:281020,28,29,8,-2,0,-10,10,9
13:43:52:287092,3,-6,1,-4,-15,-8,-6,-5
13:43:52:302745,-7,0,35,20,5,26,37,-7
13:43:52:303543,-7,0,35,20,5,26,37,-7
13:43:52:309560,16,-12,-14,-1,-1,-12,-8,-8
13:43:52:317168,1,-12,29,16,8,3,17,2
13:43:52:324652,1,-12,29,16,8,3,17,2
13:43:52:332188,-3,4,-6,-30,-2,-1,-3,2
13:43:52:340314,-22,4,22,27,-4,-13,-15,-7
13:43:52:341090,-22,4,22,27,-4,-13,-15,-7
13:43:52:347151,-2,-7,-23,-10,6,-2,-2,3
13:43:52:362836,10,9,7,5,6,7,1,9
13:43:52:363605,10,9,7,5,6,7,1,9
13:43:52:369513,5,-11,7,4,-1,18,20,-2
13:43:52:377105,1,-20,-10,-5,3,-1,-3,-4
13:43:52:384667,1,-20,-10,-5,3,-1,-3,-4
13:43:52:392113,-6,-28,-20,-5,-11,-19,-2,-3
13:43:52:400313,-12,-12,-38,2,0,-8,-22,-9
13:43:52:401092,-12,-12,-38,2,0,-8,-22,-9
13:43:52:407048,-5,12,19,-23,-3,2,-9,2
13:43:52:422770,6,-9,-13,-1,-5,-4,-2,-1
13:43:52:423548,6,-9,-13,-1,-5,-4,-2,-1
13:43:52:429709,-14,5,-3,5,-9,-13,-19,-2
13:43:52:437078,5,20,7,-8,10,9,-1,-1
13:43:52:444665,5,20,7,-8,10,9,-1,-1
13:43:52:452216,7,0,1,14,12,27,33,-9
13:43:52:460231,11,1,-15,-7,-8,-13,-11,12
13:43:52:461045,11,1,-15,-7,-8,-13,-11,12
13:43:52:467163,-6,2,-9,7,-10,-23,-18,0
13:43:52:482913,-13,-29,16,13,6,15,4,-13
13:43:52:483632,-13,-29,16,13,6,15,4,-13
13:43:52:489559,5,10,11,11,0,-1,-17,3
13:43:52:497149,-10,10,2,-11,-3,5,0,-3
13:43:52:504673,-10,10,2,-11,-3,5,0,-3
13:43:52:512239,-13,-21,-7,12,0,-14,-37,-4
13:43:52:520277,8,9,5,-15,11,13,6,6
13:43:52:521089,8,9,5,-15,11,13,6,6
13:43:52:527105,-17,-1,-39,-36,3,4,8,5
13:43:52:542728,4,11,-7,-7,-17,-18,-9,-10
13:43:52:543539,4,11,-7,-7,-17,-18,-9,-10
13:43:52:549709,-9,-6,11,2,-3,-14,-15,-4
13:43:52:557112,6,26,12,10,8,6,5,7
13:43:52:564624,6,26,12,10,8,6,5,7
13:43:52:572114,9,14,3,24,6,6,12,-2
13:43:52:580304,-1,-12,-42,-8,-2,2,0,-2
13:43:52:581084,-1,-12,-42,-8,-2,2,0,-2
13:43:52:587105,5,5,-14,-10,-15,-8,21,-9
13:43:52:602740,13,-13,16,17,6,15,31,6
13:43:52:603596,13,-13,16,17,6,15,31,6
13:43:52:609564,-4,-19,-3,-10,-10,-8,0,-5
13:43:52:617193,-15,-7,-19,-7,0,-25,-45,-15
13:43:52:624639,-15,-7,-19,-7,0,-25,-45,-15
13:43:52:632145,11,-5,4,-17,7,14,7,9
13:43:52:640257,-2,12,1,-26,-7,-9,5,6
13:43:52:641100,-2,12,1,-26,-7,-9,5,6
13:43:52:647149,-19,-4,30,37,-8,0,-14,-2
13:43:52:662935,2,2,15,-6,11,27,12,-4
13:43:52:663585,2,2,15,-6,11,27,12,-4
13:43:52:669557,11,-10,-2,-14,-8,34,61,5
13:43:52:677193,-17,4,11,-10,-13,-25,-33,-5
13:43:52:684718,-17,4,11,-10,-13,-25,-33,-5
13:43:52:692084,-8,6,10,-5,5,-4,-19,0
13:43:52:700349,9,4,0,2,7,-1,-15,-4
13:43:52:701090,9,4,0,2,7,-1,-15,-4
13:43:52:707098,0,18,0,-1,-1,-19,-20,-2
13:43:52:722790,-4,-15,6,17,-3,3,29,22
13:43:52:723563,-4,-15,6,17,-3,3,29,22
13:43:52:729656,4,9,18,6,-7,-10,-26,-13
13:43:52:737132,-6,-23,-3,3,12,4,0,-7
13:43:52:744617,-6,-23,-3,3,12,4,0,-7
13:43:52:752150,1,-8,20,1,4,-1,17,2
13:43:52:760220,20,17,1,-32,0,-1,7,3
13:43:52:761053,20,17,1,-32,0,-1,7,3
13:43:52:767132,21,11,-30,-5,2,-11,-20,8
13:43:52:782906,-18,-12,-2,10,-16,1,-6,-7
13:43:52:783653,-18,-12,-2,10,-16,1,-6,-7
13:43:52:789526,-6,3,-23,-4,13,5,-1,1
13:43:52:797110,1,27,-1,16,-9,-20,-15,-6
13:43:52:804648,1,27,-1,16,-9,-20,-15,-6
13:43:52:812085,-4,-6,11,7,-5,17,74,0
13:43:52:820234,8,-25,13,-7,-8,-1,-30,-25
13:43:52:821048,8,-25,13,-7,-8,-1,-30,-25
13:43:52:827095,-8,-18,-37,20,-2,-3,0,13
13:43:52:842759,8,4,-19,3,0,-10,-25,-18
13:43:52:843586,8,4,-19,3,0,-10,-25,-18
13:43:52:849736,4,25,23,-4,-4,0,-12,-2
13:43:52:857079,-6,1,-8,-5,-3,-7,13,17
13:43:52:864563,-6,1,-8,-5,-3,-7,13,17
13:43:52:872114,-9,7,25,-16,-10,-2,-9,0
13:43:52:880298,-7,-11,-11,0,-10,2,36,7
13:43:52:881047,-7,-11,-11,0,-10,2,36,7
13:43:52:887090,-11,12,38,6,14,18,49,-6
13:43:52:902754,24,-17,-2,9,7,0,-26,-2
13:43:52:903547,24,-17,-2,9,7,0,-26,-2
13:43:52:909535,-4,-11,-29,6,2,-22,-61,-4
13:43:52:917184,-18,4,18,3,-1,12,33,6
13:43:52:924636,-18,4,18,3,-1,12,33,6
13:43:52:932159,8,-4,21,4,11,4,-2,1
13:43:52:940240,-25,16,31,11,18,6,-14,1
13:43:52:941067,-25,16,31,11,18,6,-14,1
13:43:52:947135,-8,-1,3,-10,-8,2,1,-5
13:43:52:962958,-1,3,23,-7,-8,3,10,2
13:43:52:963600,-1,3,23,-7,-8,3,10,2
13:43:52:969566,-6,6,15,-11,-3,-12,-28,-3
13:43:52:977081,-7,-32,-18,-8,-10,-18,-15,-25
13:43:52:984699,-7,-32,-18,-8,-10,-18,-15,-25
13:43:52:992082,8,-16,-31,10,-11,-15,-11,6
13:43:53:354,32,54,-16,-33,3,8,9,19
13:43:53:1101,32,54,-16,-33,3,8,9,19
13:43:53:7056,-6,-5,-20,-12,14,5,-6,-6
13:43:53:22798,9,-7,-15,4,-1,0,15,9
13:43:53:23552,9,-7,-15,4,-1,0,15,9
13:43:53:29632,2,4,0,2,-10,-7,-12,-3
13:43:53:37138,-8,22,-10,4,4,2,-3,4
13:43:53:44634,-8,22,-10,4,4,2,-3,4
13:43:53:52164,1,0,32,28,-10,-10,-3,3
13:43:53:60328,7,24,15,1,14,12,-13,-22
13:43:53:61045,7,24,15,1,14,12,-13,-22
13:43:53:67176,-18,-15,11,12,-1,4,18,-8
13:43:53:82795,-8,14,1,17,-4,-9,-9,-3
13:43:53:83514,-8,14,1,17,-4,-9,-9,-3
13:43:53:89536,-20,9,-25,-36,8,6,-9,-9
13:43:53:97137,-11,-23,-11,-1,3,-5,3,-1
13:43:53:104640,-11,-23,-11,-1,3,-5,3,-1
13:43:53:112092,9,-15,-35,-45,-14,-4,1,5
13:43:53:120273,-8,-1,-4,-7,-10,2,-6,9
13:43:53:121040,-8,-1,-4,-7,-10,2,-6,9
13:43:53:127153,22,-2,26,28,13,30,22,7
13:43:53:142736,19,-12,9,13,-4,-6,-11,20
13:43:53:143543,19,-12,9,13,-4,-6,-11,20
13:43:53:149684,-3,-14,14,4,-14,-12,17,-10
13:43:53:157084,23,-4,10,13,15,10,-2,-6
13:43:53:164599,23,-4,10,13,15,10,-2,-6
13:43:53:172100,-9,17,-31,-18,2,-8,-23,-19
13:43:53:180308,-16,-25,-16,44,3,-9,3,0
13:43:53:181068,-16,-25,-16,44,3,-9,3,0
13:43:53:187092,14,-4,12,0,1,4,0,8
13:43:53:202833,14,-4,12,0,1,4,0,8
13:43:53:203551,-19,2,-12,-33,-1,3,0,-13
13:43:53:209535,1,-4,-2,1,-3,-4,-5,-13
13:43:53:225272,1,-4,-2,1,-3,-4,-5,-13
13:43:53:226042,11,24,8,5,8,2,-18,1
13:43:53:232122,1,-15,-76,-10,-4,18,39,7
13:43:53:240244,1,-15,-76,-10,-4,18,39,7
13:43:53:241071,-2,-7,19,15,7,-1,5,-8
13:43:53:254654,-19,-3,12,-3,0,-11,-30,-7
13:43:53:262837,-19,-3,12,-3,0,-11,-30,-7
13:43:53:263563,-1,47,11,8,4,10,13,9
13:43:53:269597,1,-9,-18,1,-1,-3,1,-1
13:43:53:285300,1,-9,-18,1,-1,-3,1,-1
13:43:53:286049,-7,-18,-10,7,-5,-10,-1,-6
13:43:53:292045,19,27,18,23,4,8,-19,8
13:43:53:300330,19,27,18,23,4,8,-19,8
13:43:53:301038,-5,-23,-17,-18,-16,-20,-46,-16
13:43:53:314562,4,-25,0,-21,-6,-5,-29,0
13:43:53:322766,4,-25,0,-21,-6,-5,-29,0
13:43:53:323546,5,-19,-15,-3,-11,-12,-6,1
13:43:53:329600,11,2,13,-19,1,-3,-3,12
13:43:53:345231,11,2,13,-19,1,-3,-3,12
13:43:53:346080,2,5,9,-22,-12,-6,7,1
13:43:53:352151,-1,-5,-10,-7,-2,6,9,6
13:43:53:360239,-1,-5,-10,-7,-2,6,9,6
13:43:53:361076,-17,-3,-23,-16,3,8,8,-8
13:43:53:374616,-19,1,16,4,-7,-22,-12,-14
13:43:53:382818,-19,1,16,4,-7,-22,-12,-14
13:43:53:383548,7,12,48,13,-4,14,48,23
13:43:53:389551,-1,4,34,12,2,-12,-18,-9
13:43:53:405318,-1,4,34,12,2,-12,-18,-9
13:43:53:406063,-6,14,-41,-25,-8,-3,-1,4
13:43:53:412119,-3,3,-24,10,-2,15,23,-2
13:43:53:420270,-3,3,-24,10,-2,15,23,-2
13:43:53:421091,-2,-9,21,16,3,34,25,-6
13:43:53:434627,-4,-7,-10,16,12,4,4,6
13:43:53:442804,-4,-7,-10,16,12,4,4,6
13:43:53:443578,-11,-20,-22,-7,-14,-30,-12,10
13:43:53:449639,-13,-15,-23,-6,-4,-3,-12,1
13:43:53:465378,-13,-15,-23,-6,-4,-3,-12,1
13:43:53:466057,-3,17,33,5,0,-21,-48,-14
13:43:53:472115,1,19,-1,-6,11,28,42,14
13:43:53:480370,1,19,-1,-6,11,28,42,14
13:43:53:481079,-24,-18,-17,-10,-2,-5,2,-14
13:43:53:494528,16,8,5,-2,3,-20,-18,-11
13:43:53:502771,16,8,5,-2,3,-20,-18,-11
13:43:53:503545,5,-26,-21,-2,1,2,-4,11
13:43:53:509542,5,37,25,-6,-4,-1,11,5
13:43:53:525265,5,37,25,-6,-4,-1,11,5
13:43:53:526085,-12,-33,-18,15,10,3,3,-24
13:43:53:532131,-24,-10,-7,53,18,-1,-10,-11
13:43:53:540306,-24,-10,-7,53,18,-1,-10,-11
13:43:53:541091,4,15,19,2,27,17,16,-2
13:43:53:554568,6,-11,2,-23,-28,-18,-11,2
13:43:53:562836,6,-11,2,-23,-28,-18,-11,2
13:43:53:563622,6,9,17,-2,-6,-1,10,4
13:43:53:569554,-25,-38,-14,-22,-8,-6,12,-9
13:43:53:585370,-25,-38,-14,-22,-8,-6,12,-9
13:43:53:586076,-9,-1,1,-7,-7,-5,23,-8
13:43:53:592063,10,38,14,-17,4,-12,-20,0
13:43:53:600354,10,38,14,-17,4,-12,-20,0
13:43:53:601065,6,5,-1,27,14,4,-2,14
13:43:53:614540,-4,-14,-4,5,-5,8,2,-15
13:43:53:622759,-4,-14,-4,5,-5,8,2,-15
13:43:53:623542,8,0,8,-12,-9,0,-28,0
13:43:53:629580,-5,-30,-24,-8,-15,-4,-44,14
13:43:53:645349,-5,-30,-24,-8,-15,-4,-44,14
13:43:53:646047,24,2,-6,-9,-9,0,-8,7
13:43:53:652135,3,-4,-4,-1,-3,-4,4,8
13:43:53:660271,3,-4,-4,-1,-3,-4,4,8
13:43:53:661066,-16,-42,8,9,26,7,0,-12
13:43:53:674541,2,12,28,8,11,1,7,2
13:43:53:682787,2,12,28,8,11,1,7,2
13:43:53:683552,-3,8,-3,-5,-25,-10,8,4
13:43:53:689502,-12,-30,5,-11,7,3,5,-5
13:43:53:705300,-12,-30,5,-11,7,3,5,-5
13:43:53:706068,8,18,-3,-20,-16,-3,5,-2
13:43:53:712089,8,24,-19,8,4,11,14,-10
13:43:53:720261,8,24,-19,8,4,11,14,-10
13:43:53:721076,2,6,-6,-8,0,6,4,-1
13:43:53:734622,-5,4,21,6,-10,-17,4,-8
13:43:53:742748,-5,4,21,6,-10,-17,4,-8
13:43:53:743531,-19,-11,-24,-13,-2,-3,-13,-12
13:43:53:749669,-1,5,21,34,4,-9,-18,2
13:43:53:765246,-1,5,21,34,4,-9,-18,2
13:43:53:766062,-8,-26,-18,-13,-13,-2,17,4
13:43:53:772094,-7,-6,-10,-2,9,12,-7,4
13:43:53:780341,-7,-6,-10,-2,9,12,-7,4
13:43:53:781079,23,41,12,-2,-10,1,-6,-1
13:43:53:794573,9,19,12,3,-9,-7,-2,5
13:43:53:802760,9,19,12,3,-9,-7,-2,5
13:43:53:803547,12,-7,-14,14,6,-6,26,12
13:43:53:809560,32,23,-3,-21,12,15,5,-1
13:43:53:825266,32,23,-3,-21,12,15,5,-1
13:43:53:826077,1,-12,-39,-34,-12,-19,-49,-13
13:43:53:832141,4,-18,-3,-6,-1,-1,27,-3
13:43:53:840251,4,-18,-3,-6,-1,-1,27,-3
13:43:53:841084,-20,21,28,5,-8,-9,-10,-10
13:43:53:854596,-8,-1,-27,25,-8,-9,-18,-8
13:43:53:862831,-8,-1,-27,25,-8,-9,-18,-8
13:43:53:863546,9,-10,14,-10,7,10,4,5
13:43:53:869563,12,2,-12,0,11,1,8,6
13:43:53:885345,12,2,-12,0,11,1,8,6
13:43:53:886056,-5,-16,-6,-14,-24,-10,-11,2
13:43:53:892091,-5,-14,14,7,3,23,53,2
13:43:53:900338,-5,-14,14,7,3,23,53,2
13:43:53:901070,-9,1,-6,-9,0,-9,0,4
13:43:53:914576,-18,-15,-11,-14,-15,-25,-48,-13
13:43:53:922813,-18,-15,-11,-14,-15,-25,-48,-13
13:43:53:923550,2,-39,6,10,10,19,1,-5
13:43:53:929617,5,-6,-6,-9,-1,0,9,3
13:43:53:945285,5,-6,-6,-9,-1,0,9,3
13:43:53:946075,-1,5,7,8,2,1,3,12
13:43:53:952125,-7,-5,24,2,2,5,-20,-24
13:43:53:960315,-7,-5,24,2,2,5,-20,-24
13:43:53:961064,-14,-8,-13,14,8,34,67,-3
13:43:53:974553,6,3,-27,-18,-10,-4,-21,8
13:43:53:982906,6,3,-27,-18,-10,-4,-21,8
13:43:53:983564,-29,3,9,-19,8,-8,-18,-1
13:43:53:989525,-10,-4,19,-4,-12,-7,-5,-1
13:43:54:5297,-10,-4,19,-4,-12,-7,-5,-1
13:43:54:6061,16,6,5,7,-6,-5,-3,1
13:43:54:12100,-2,6,0,14,-4,-13,-22,-4
13:43:54:20316,-2,6,0,14,-4,-13,-22,-4
13:43:54:21045,3,-16,-18,3,-1,29,30,18
13:43:54:34622,0,-21,-47,-13,-8,-3,5,-6
13:43:54:42747,0,-21,-47,-13,-8,-3,5,-6
13:43:54:43578,1,38,43,7,-7,-36,-48,-16
13:43:54:49620,-1,-7,0,8,10,27,34,32
13:43:54:65333,-1,-7,0,8,10,27,34,32
13:43:54:66073,2,-15,-10,12,14,10,-1,-7
13:43:54:72114,-34,-4,38,-10,-23,-23,17,2
13:43:54:80333,-34,-4,38,-10,-23,-23,17,2
13:43:54:81061,3,-7,2,28,16,14,0,2
13:43:54:94544,-13,-2,1,-19,3,7,-21,-2
13:43:54:102803,-13,-2,1,-19,3,7,-21,-2
13:43:54:103578,0,-11,-40,-8,-12,-13,-2,-9
13:43:54:109527,5,7,4,-2,2,-12,-13,-8
13:43:54:125273,5,7,4,-2,2,-12,-13,-8
13:43:54:126094,12,1,-3,-9,-2,-13,-45,-17
13:43:54:132186,13,19,1,-8,6,15,33,7
13:43:54:140252,13,19,1,-8,6,15,33,7
13:43:54:141088,11,-3,-28,-24,14,-10,-8,11
13:43:54:154557,15,29,-35,-8,3,29,40,6
13:43:54:162918,15,29,-35,-8,3,29,40,6
13:43:54:163547,-6,10,21,21,-2,5,20,5
13:43:54:169551,7,22,-16,1,2,-9,-37,-16
13:43:54:185291,7,22,-16,1,2,-9,-37,-16
13:43:54:186103,-8,-11,20,3,-6,-6,2,-3
13:43:54:192005,-11,-22,16,7,-10,-17,-26,2
13:43:54:199690,-11,-22,16,7,-10,-17,-26,2
13:43:54:207094,7,-8,4,-14,4,-2,17,20
13:43:54:214537,-15,-10,29,6,-3,2,-17,-5
13:43:54:222797,-15,-10,29,6,-3,2,-17,-5
13:43:54:223572,3,26,-6,-16,-9,-7,-10,-15
13:43:54:237099,11,-5,2,-24,-3,-11,-12,2
13:43:54:245381,11,-5,2,-24,-3,-11,-12,2
13:43:54:246060,9,-9,-19,-25,-3,1,-18,-8
13:43:54:252115,8,28,-8,15,34,10,-8,-3
13:43:54:259602,8,28,-8,15,34,10,-8,-3
13:43:54:267143,-15,-11,-30,-6,-19,-10,4,-18
13:43:54:274530,9,-10,-4,-13,-9,0,23,24
13:43:54:282891,9,-10,-4,-13,-9,0,23,24
13:43:54:283560,-8,-2,-15,6,-9,-15,-42,-29
13:43:54:297203,-9,-7,6,22,5,-2,7,-17
13:43:54:305280,-9,-7,6,22,5,-2,7,-17
13:43:54:306073,7,3,23,14,1,20,25,13
13:43:54:312167,-16,-2,-16,21,3,-1,23,-1
13:43:54:319646,-16,-2,-16,21,3,-1,23,-1
13:43:54:327075,-16,55,1,14,12,-6,-4,-4
13:43:54:334624,-11,-12,-23,-16,-11,-14,2,-3
13:43:54:342720,-11,-12,-23,-16,-11,-14,2,-3
13:43:54:343520,0,-2,24,11,-4,0,4,-4
13:43:54:357084,6,6,27,-6,-4,-1,26,8
13:43:54:365366,6,6,27,-6,-4,-1,26,8
13:43:54:366088,4,-12,-12,-2,11,14,22,28
13:43:54:372096,-1,-19,-1,-7,-14,-12,-31,-9
13:43:54:379687,-1,-19,-1,-7,-14,-12,-31,-9
13:43:54:387138,-4,14,17,-45,-5,0,-5,3
13:43:54:394558,14,27,-5,-18,-7,-8,11,16
13:43:54:402788,14,27,-5,-18,-7,-8,11,16
13:43:54:403569,8,-8,-18,-27,-10,-12,-15,2
13:43:54:417146,-12,-15,17,11,11,18,10,-2
13:43:54:425243,-12,-15,17,11,11,18,10,-2
13:43:54:426032,-7,14,31,4,-10,4,21,-4
13:43:54:432202,8,-20,-22,8,1,1,-2,3
13:43:54:439597,8,-20,-22,8,1,1,-2,3
13:43:54:455242,-15,-8,31,17,0,-3,-5,2
13:43:54:456099,5,33,27,6,-2,-5,-29,-8
13:43:54:462835,5,33,27,6,-2,-5,-29,-8
13:43:54:463573,-3,-23,-10,-7,7,5,0,-4
13:43:54:477108,-17,-13,15,-4,-6,5,-5,-14
13:43:54:485276,-17,-13,15,-4,-6,5,-5,-14
13:43:54:486097,7,-9,-24,2,6,-4,21,7
13:43:54:492069,18,-43,-11,1,3,10,14,7
13:43:54:499719,18,-43,-11,1,3,10,14,7
13:43:54:506998,-8,-23,-17,11,-1,-11,-21,-10
13:43:54:514567,-8,-16,-27,-28,-7,11,2,-18
13:43:54:522760,-8,-16,-27,-28,-7,11,2,-18
13:43:54:523522,-4,-6,35,11,2,-4,-8,5
13:43:54:537111,19,4,-13,-5,-1,3,27,7
13:43:54:545242,19,4,-13,-5,-1,3,27,7
13:43:54:546073,3,-8,-1,4,-2,-6,-6,-2
13:43:54:552119,5,3,-10,-8,-9,-6,-3,-1
13:43:54:559584,5,3,-10,-8,-9,-6,-3,-1
13:43:54:567181,8,23,3,19,16,27,72,1
13:43:54:574523,-2,41,40,18,1,-11,-26,-1
13:43:54:582819,-2,41,40,18,1,-11,-26,-1
13:43:54:583543,0,12,12,11,-6,-11,-18,1
13:43:54:597030,-5,-36,-21,-12,-3,-3,2,7
13:43:54:605288,-5,-36,-21,-12,-3,-3,2,7
13:43:54:606076,7,6,-24,-18,-11,-10,-16,13
13:43:54:612094,-8,-3,-7,-5,-4,2,12,15
13:43:54:619651,-8,-3,-7,-5,-4,2,12,15
13:43:54:627150,-6,-18,-13,0,-1,-8,-24,-15
13:43:54:634681,-10,-21,-23,5,3,-11,-15,-10
13:43:54:642807,-10,-21,-23,5,3,-11,-15,-10
13:43:54:643586,3,-4,11,-44,-23,-9,6,1
13:43:54:657122,9,4,16,3,-1,10,-7,-12
13:43:54:665359,9,4,16,3,-1,10,-7,-12
13:43:54:666094,-5,-7,-3,4,-5,5,18,-2
13:43:54:672111,3,9,5,13,14,21,34,-2
13:43:54:679681,3,9,5,13,14,21,34,-2
13:43:54:687124,-6,13,-26,2,-3,12,37,2
13:43:54:694542,-11,5,2,3,1,-11,-4,-6
13:43:54:702753,-11,5,2,3,1,-11,-4,-6
13:43:54:703534,-9,-22,4,23,6,-5,-30,-9
13:43:54:717192,15,41,-14,-12,7,-5,-18,-2
13:43:54:725286,15,41,-14,-12,7,-5,-18,-2
13:43:54:726062,-3,9,1,-2,10,-3,-7,0
13:43:54:732141,-10,10,12,3,3,-4,-10,-8
13:43:54:739580,-10,10,12,3,3,-4,-10,-8
13:43:54:747108,4,12,-9,-13,-8,-12,-25,-15
13:43:54:754578,-8,-7,6,1,-1,38,34,7
13:43:54:762870,-8,-7,6,1,-1,38,34,7
13:43:54:763535,2,-2,39,11,-7,-16,-10,-1
13:43:54:777108,8,-10,-2,4,2,-12,-48,-3
13:43:54:785396,8,-10,-2,4,2,-12,-48,-3
13:43:54:786180,8,41,-8,4,6,6,-9,0
13:43:54:792090,-12,-3,-5,-1,-15,-24,-11,-6
13:43:54:799710,-12,-3,-5,-1,-15,-24,-11,-6
13:43:54:806997,-11,-31,-28,-28,1,8,0,-17
13:43:54:814550,1,26,8,2,-5,-12,1,-5
13:43:54:822800,1,26,8,2,-5,-12,1,-5
13:43:54:823525,-8,-15,-38,-17,-4,-8,-13,-19
13:43:54:837091,7,12,-5,22,9,-5,16,2
13:43:54:845235,7,12,-5,22,9,-5,16,2
13:43:54:846083,23,-2,-1,14,-3,5,20,33
13:43:54:852088,-4,0,-8,6,-2,-1,-16,-13
13:43:54:859581,-4,0,-8,6,-2,-1,-16,-13
13:43:54:867189,-31,-4,7,8,10,-2,-5,-8
13:43:54:874555,-17,-20,11,-3,-6,-4,-1,4
13:43:54:882812,-17,-20,11,-3,-6,-4,-1,4
13:43:54:883519,3,1,-11,-35,-6,-1,7,1
13:43:54:897043,0,-24,-7,-15,-8,-1,5,5
13:43:54:905271,0,-24,-7,-15,-8,-1,5,5
13:43:54:906100,-20,-20,-20,24,-6,-9,-18,-11
13:43:54:912244,9,-7,-30,-5,6,12,31,3
13:43:54:919682,9,-7,-30,-5,6,12,31,3
13:43:54:927106,25,15,3,1,-4,0,-1,-3
13:43:54:934587,-4,-9,10,-31,-19,-6,1,14
13:43:54:942773,-4,-9,10,-31,-19,-6,1,14
13:43:54:943588,-8,16,26,-2,-14,-7,-19,-18
13:43:54:957095,-11,-34,-3,17,10,-4,-23,-6
13:43:54:965297,-11,-34,-3,17,10,-4,-23,-6
13:43:54:966134,-3,-56,-21,-3,-3,-3,-9,9
13:43:54:972063,-4,-11,-5,1,-3,2,18,-9
13:43:54:979791,-4,-11,-5,1,-3,2,18,-9
13:43:54:987103,-10,64,31,23,11,-4,-13,-1
13:43:54:994599,3,13,28,-8,-4,3,5,10
13:43:55:2777,3,13,28,-8,-4,3,5,10
13:43:55:3536,-3,9,-13,-21,-1,3,2,5
13:43:55:17154,5,19,-15,-3,-7,-11,-17,13
13:43:55:25299,5,19,-15,-3,-7,-11,-17,13
13:43:55:26039,2,-24,3,6,12,15,2,6
13:43:55:32139,1,-17,-9,3,-6,-6,-10,-14
13:43:55:39567,1,-17,-9,3,-6,-6,-10,-14
13:43:55:47134,0,-3,18,21,1,7,9,-10
13:43:55:54596,10,19,12,-9,5,2,-6,-3
13:43:55:62834,10,19,12,-9,5,2,-6,-3
13:43:55:63579,-2,2,-4,13,0,32,71,16
13:43:55:77096,-2,7,4,18,-1,13,-1,-12
13:43:55:85322,-2,7,4,18,-1,13,-1,-12
13:43:55:86069,3,-14,-34,-4,-10,-10,5,3
13:43:55:92100,-5,-12,-17,-10,-3,4,13,10
13:43:55:99695,-5,-12,-17,-10,-3,4,13,10
13:43:55:106993,-8,4,28,4,-1,-7,4,-6
13:43:55:114567,6,-17,-42,-22,-6,4,29,-8
13:43:55:122773,6,-17,-42,-22,-6,4,29,-8
13:43:55:123530,0,-14,-40,-30,-2,4,-10,3
13:43:55:137126,-12,-24,-5,-4,5,-8,-5,-11
13:43:55:145316,-12,-24,-5,-4,5,-8,-5,-11
13:43:55:146103,9,15,13,-9,-4,-15,-5,5
13:43:55:160306,5,-1,-21,-12,-3,-23,-52,-12
13:43:55:161124,5,-1,-21,-12,-3,-23,-52,-12
13:43:55:167072,18,-29,27,2,-3,-9,-9,0
13:43:55:174587,2,12,26,19,12,1,-17,0
13:43:55:182078,2,12,26,19,12,1,-17,0
13:43:55:189521,4,-9,7,5,0,-10,-24,8
13:43:55:197090,9,0,-8,18,18,24,26,4
13:43:55:205286,9,0,-8,18,18,24,26,4
13:43:55:206091,-6,5,-15,-6,-8,-26,-49,-5
13:43:55:220266,0,19,11,1,-19,-4,-13,-5
13:43:55:221093,0,19,11,1,-19,-4,-13,-5
13:43:55:227070,13,7,-14,-17,-2,-6,-5,-1
13:43:55:234601,-32,2,2,-13,6,9,20,2
13:43:55:242068,-32,2,2,-13,6,9,20,2
13:43:55:249649,-15,-2,-24,2,-1,1,28,-6
13:43:55:257093,35,51,23,3,0,-3,-2,11
13:43:55:265373,35,51,23,3,0,-3,-2,11
13:43:55:266063,-2,17,9,-9,4,19,23,19
13:43:55:280326,-19,-27,-2,-2,-6,-26,17,-14
13:43:55:281073,-19,-27,-2,-2,-6,-26,17,-14
13:43:55:287121,2,-2,17,9,8,-4,5,-6
13:43:55:294571,-16,-5,-40,-4,-9,-19,-35,-8
13:43:55:302192,-16,-5,-40,-4,-9,-19,-35,-8
13:43:55:309529,-17,-26,16,38,-11,8,13,-7
13:43:55:317191,17,2,14,22,23,12,-4,2
13:43:55:325231,17,2,14,22,23,12,-4,2
13:43:55:326057,8,2,-20,-4,-8,-4,-16,15
13:43:55:340272,-8,-6,24,-8,2,-1,-15,18
13:43:55:341098,-8,-6,24,-8,2,-1,-15,18
13:43:55:347157,13,21,-3,1,-2,-7,-23,13
13:43:55:354573,17,-5,47,12,-1,7,8,10
13:43:55:362101,17,-5,47,12,-1,7,8,10
13:43:55:369592,28,-13,-24,-5,0,13,12,-19
13:43:55:377125,-3,-21,-26,-19,-4,1,-11,-10
13:43:55:385332,-3,-21,-26,-19,-4,1,-11,-10
13:43:55:386077,-18,-9,0,-19,-1,-11,6,-13
13:43:55:400262,-5,-9,-3,-7,-16,-14,-6,-14
13:43:55:401095,-5,-9,-3,-7,-16,-14,-6,-14
13:43:55:407094,4,6,26,16,7,9,5,-4
13:43:55:414583,7,22,4,5,8,-1,-10,-5
13:43:55:422131,7,22,4,5,8,-1,-10,-5
13:43:55:429584,-15,18,8,24,0,-7,-12,5
13:43:55:437819,10,3,2,-24,-9,2,28,3
13:43:55:438569,10,3,2,-24,-9,2,28,3
13:43:55:444580,-6,-9,-32,-13,18,6,-2,-7
13:43:55:460283,-8,-5,16,16,-8,-9,-16,-5
13:43:55:461087,-8,-5,16,16,-8,-9,-16,-5
13:43:55:467052,4,-4,-3,-41,-1,18,34,3
13:43:55:474511,-11,36,26,-10,-14,-18,8,-5
13:43:55:482191,-11,36,26,-10,-14,-18,8,-5
13:43:55:489506,-10,-14,7,9,10,1,1,-5
13:43:55:497828,19,-19,-6,30,16,5,-16,4
13:43:55:498591,19,-19,-6,30,16,5,-16,4
13:43:55:504564,-7,10,-9,11,2,-1,-4,-4
13:43:55:520310,-7,-6,-44,-22,-15,-8,-21,-6
13:43:55:521113,-7,-6,-44,-22,-15,-8,-21,-6
13:43:55:527063,10,33,-8,4,-3,-2,-17,-4
13:43:55:534604,8,-14,-40,-45,-9,3,17,8
13:43:55:542134,8,-14,-40,-45,-9,3,17,8
13:43:55:549717,-33,-19,0,9,-10,-11,-4,-14
13:43:55:557822,-6,41,28,25,14,4,-4,-5
13:43:55:558582,-6,41,28,25,14,4,-4,-5
13:43:55:564584,6,-8,-6,-23,-17,-14,-23,-5
13:43:55:580325,-3,10,19,4,-1,5,28,2
13:43:55:581082,-3,10,19,4,-1,5,28,2
13:43:55:587155,-3,-5,31,14,8,10,9,8
13:43:55:594586,-5,-32,-22,-17,-6,-15,-23,4
13:43:55:602184,-5,-32,-22,-17,-6,-15,-23,4
13:43:55:609546,7,-8,9,2,2,-3,-5,4
13:43:55:617808,7,5,-4,-25,-7,2,-3,-4
13:43:55:618526,7,5,-4,-25,-7,2,-3,-4
13:43:55:624562,-4,-7,-23,-16,-4,-14,-15,-4
13:43:55:640253,-4,-21,-7,2,-2,0,4,-11
13:43:55:641097,-4,-21,-7,2,-2,0,4,-11
13:43:55:647216,18,8,3,10,-4,-6,25,16
13:43:55:654589,-20,-42,-42,8,-2,-2,-6,-3
13:43:55:662253,-20,-42,-42,8,-2,-2,-6,-3
13:43:55:669609,-10,-8,4,20,0,1,-2,-2
13:43:55:677847,9,16,39,33,10,13,10,-2
13:43:55:678544,9,16,39,33,10,13,10,-2
13:43:55:684618,-13,-4,-28,-38,-10,-2,-5,-5
13:43:55:700332,0,19,2,2,-5,-3,0,10
13:43:55:701104,0,19,2,2,-5,-3,0,10
13:43:55:707094,-1,6,23,16,4,2,-11,5
13:43:55:714617,-24,-11,-15,-2,0,1,1,-9
13:43:55:722131,-24,-11,-15,-2,0,1,1,-9
13:43:55:729672,10,7,-18,-8,-2,-5,-12,-6
13:43:55:737785,6,2,27,-8,-5,4,-7,-2
13:43:55:738609,6,2,27,-8,-5,4,-7,-2
13:43:55:744519,9,3,-25,-5,-1,0,1,-4
13:43:55:760304,1,-20,2,-6,-7,-6,-10,-4
13:43:55:761086,1,-20,2,-6,-7,-6,-10,-4
13:43:55:767062,-5,-8,6,7,-2,5,17,2
13:43:55:774556,-9,-36,13,-10,1,11,23,-6
13:43:55:782158,-9,-36,13,-10,1,11,23,-6
13:43:55:789516,-3,13,29,-5,-8,8,8,0
13:43:55:797785,2,21,-15,37,21,14,7,2
13:43:55:798576,2,21,-15,37,21,14,7,2
13:43:55:804578,-1,-16,8,-21,-1,-9,-6,8
13:43:55:820268,1,10,0,-12,-3,1,-15,5
13:43:55:821093,1,10,0,-12,-3,1,-15,5
13:43:55:827164,-1,13,-28,-5,4,3,-7,-11
13:43:55:834586,-8,-18,-59,4,-6,-7,0,-13
13:43:55:842102,-8,-18,-59,4,-6,-7,0,-13
13:43:55:849714,10,-2,-8,-24,7,4,20,1
13:43:55:857804,32,52,8,-22,-3,-8,-5,18
13:43:55:858574,32,52,8,-22,-3,-8,-5,18
13:43:55:864584,10,-9,27,10,-6,-5,-36,-11
13:43:55:880308,-15,-24,13,7,8,-1,-3,-13
13:43:55:881073,-15,-24,13,7,8,-1,-3,-13
13:43:55:887142,-2,0,10,21,-3,-1,12,5
13:43:55:894530,-7,2,-20,-17,2,2,1,-5
13:43:55:902241,-7,2,-20,-17,2,2,1,-5
13:43:55:909535,10,20,27,5,-2,4,2,8
13:43:55:917861,-6,4,9,20,-1,3,15,6
13:43:55:918564,-6,4,9,20,-1,3,15,6
13:43:55:924569,-2,-1,4,8,8,-2,8,1
13:43:55:940213,22,-9,-13,-9,-3,-14,-16,7
13:43:55:941074,22,-9,-13,-9,-3,-14,-16,7
13:43:55:947158,-2,-6,-17,9,4,1,-12,-20
13:43:55:954609,-8,-12,5,3,-8,-20,-23,7
13:43:55:962105,-8,-12,5,3,-8,-20,-23,7
13:43:55:969619,-11,-4,4,0,4,7,10,-6
13:43:55:977768,-22,7,11,-1,-5,-2,1,-4
13:43:55:978538,-22,7,11,-1,-5,-2,1,-4
13:43:55:984607,-9,4,-73,-16,-7,-3,-6,0
13:43:56:302,8,45,10,22,9,5,21,4
13:43:56:1066,8,45,10,22,9,5,21,4
13:43:56:7082,4,2,28,-1,6,6,14,0
13:43:56:14600,-6,-15,-7,0,5,4,-15,-1
13:43:56:22123,-6,-15,-7,0,5,4,-15,-1
13:43:56:29583,-18,-1,9,4,-10,-5,-28,-10
13:43:56:37803,18,13,27,5,0,-6,-6,1
13:43:56:38586,18,13,27,5,0,-6,-6,1
13:43:56:44521,-8,-42,12,-25,-20,-21,-24,-6
13:43:56:60278,-7,-8,14,-7,12,11,-6,-11
13:43:56:61098,-7,-8,14,-7,12,11,-6,-11
13:43:56:67101,4,6,2,26,-1,-7,13,10
13:43:56:74514,-7,14,0,6,9,9,-4,-14
13:43:56:82229,-7,14,0,6,9,9,-4,-14
13:43:56:89494,9,-6,1,-8,-3,3,13,1
13:43:56:97843,2,-12,-13,-1,-12,-5,-41,0
13:43:56:98584,2,-12,-13,-1,-12,-5,-41,0
13:43:56:112041,30,8,-20,-3,24,29,40,32
13:43:56:120289,-14,-11,-11,-19,-13,-12,1,-5
13:43:56:121098,-14,-11,-11,-19,-13,-12,1,-5
13:43:56:127164,3,0,10,-7,-12,-9,-12,-7
13:43:56:142753,10,-2,4,-10,-6,-12,-8,11
13:43:56:143560,10,-2,4,-10,-6,-12,-8,11
13:43:56:149604,-7,8,3,-12,-9,-13,-16,-8
13:43:56:157027,0,6,-8,3,-2,1,20,3
13:43:56:164657,0,6,-8,3,-2,1,20,3
13:43:56:172124,4,-17,-24,-12,7,5,14,1
13:43:56:180306,-11,-4,-11,2,-1,-9,-10,-4
13:43:56:181084,-11,-4,-11,2,-1,-9,-10,-4
13:43:56:187114,-18,20,26,22,26,-7,-57,-10
13:43:56:202789,-2,-9,-12,-3,-9,25,48,-1
13:43:56:203561,-2,-9,-12,-3,-9,25,48,-1
13:43:56:209532,12,-15,10,5,-11,-5,-2,8
13:43:56:217821,3,-9,16,24,5,-4,-30,-17
13:43:56:218613,3,-9,16,24,5,-4,-30,-17
13:43:56:232089,-11,11,26,-3,-8,-14,6,-6
13:43:56:240245,5,-3,11,-3,-1,-2,13,-6
13:43:56:241066,5,-3,11,-3,-1,-2,13,-6
13:43:56:247190,14,44,-27,-29,9,24,19,5
13:43:56:262818,5,-7,-15,-19,-13,-19,-14,2
13:43:56:263601,5,-7,-15,-19,-13,-19,-14,2
13:43:56:269566,8,22,5,7,11,18,52,-1
13:43:56:277821,-21,-33,-18,1,-2,3,17,-1
13:43:56:278539,-21,-33,-18,1,-2,3,17,-1
13:43:56:292100,-3,-14,-13,-13,-5,-7,-1,12
13:43:56:300328,4,3,-32,-3,-3,-2,9,2
13:43:56:301119,4,3,-32,-3,-3,-2,9,2
13:43:56:307005,13,13,-6,2,-15,-12,-44,-7
13:43:56:322766,-3,-4,7,4,-1,22,50,11
13:43:56:323550,-3,-4,7,4,-1,22,50,11
13:43:56:329594,-8,-9,-21,13,-2,-4,18,-3
13:43:56:337843,7,8,3,-9,4,-7,-21,-3
13:43:56:338591,7,8,3,-9,4,-7,-21,-3
13:43:56:352170,-37,-26,12,4,-13,-19,-30,-13
13:43:56:360294,10,25,14,2,12,22,0,7
13:43:56:361076,10,25,14,2,12,22,0,7
13:43:56:367116,2,-11,-6,-19,-5,-8,-13,-4
13:43:56:382887,0,3,0,-6,4,-14,13,27
13:43:56:383549,0,3,0,-6,4,-14,13,27
13:43:56:389535,-13,-18,12,4,10,3,7,-3
13:43:56:397844,6,-7,39,-11,-7,-11,-19,-4
13:43:56:398562,6,-7,39,-11,-7,-11,-19,-4
13:43:56:412148,12,-11,-4,5,-9,-6,1,2
13:43:56:420330,2,-5,7,14,-2,-2,-5,2
13:43:56:421165,2,-5,7,14,-2,-2,-5,2
13:43:56:427125,11,-3,-20,-1,5,6,4,-2
13:43:56:442730,-8,1,0,6,7,-5,-15,-1
13:43:56:443514,-8,1,0,6,7,-5,-15,-1
13:43:56:449652,-5,15,19,9,2,18,10,-11
13:43:56:457779,-9,11,-9,-4,-5,-5,-4,-3
13:43:56:458541,-9,11,-9,-4,-5,-5,-4,-3
13:43:56:472171,-19,16,-8,-22,-15,-17,-36,-8
13:43:56:480292,-19,16,-8,-22,-15,-17,-36,-8
13:43:56:481118,-17,-22,-24,-21,4,6,6,-8
13:43:56:487039,-1,-15,-23,-4,-6,-17,-23,1
13:43:56:502780,-1,-15,-23,-4,-6,-17,-23,1
13:43:56:503524,13,6,42,11,8,-4,3,11
13:43:56:509541,-5,-15,6,8,-2,-19,-30,-1
13:43:56:525318,-5,-15,6,8,-2,-19,-30,-1
13:43:56:526074,-24,9,-15,-7,-7,5,0,-16
13:43:56:532171,-11,-37,20,-6,0,5,2,-2
13:43:56:540255,-11,-37,20,-6,0,5,2,-2
13:43:56:541143,2,13,1,-19,-10,2,-1,-15
13:43:56:547272,-6,-7,-11,18,-3,-6,13,4
13:43:56:562839,-6,-7,-11,18,-3,-6,13,4
13:43:56:563569,-5,-1,-10,-5,19,7,5,-8
13:43:56:569592,11,28,-12,-3,1,0,4,5
13:43:56:585394,11,28,-12,-3,1,0,4,5
13:43:56:586106,7,3,-7,16,-20,-13,-36,4
13:43:56:592131,-16,-5,-5,-2,14,24,-6,-4
13:43:56:600305,-16,-5,-5,-2,14,24,-6,-4
13:43:56:601117,-17,-27,-38,-21,-11,-13,-6,15
13:43:56:607057,21,38,8,-18,-8,-4,22,7
13:43:56:622811,21,38,8,-18,-8,-4,22,7
13:43:56:623557,6,-3,21,1,11,29,31,-1
13:43:56:629663,-2,-14,-8,-4,-6,-10,-6,3
13:43:56:645306,-2,-14,-8,-4,-6,-10,-6,3
13:43:56:646088,13,2,-10,-8,1,21,58,6
13:43:56:652117,-22,-11,12,-5,-5,-12,-38,-5
13:43:56:660353,-22,-11,12,-5,-5,-12,-38,-5
13:43:56:661074,5,-7,-24,15,-2,-6,-7,-15
13:43:56:667199,0,-1,0,-23,-4,0,10,-2
13:43:56:682913,0,-1,0,-23,-4,0,10,-2
13:43:56:683551,-3,-8,-10,7,-1,-3,0,-1
13:43:56:689522,-3,18,7,22,-4,-18,-20,-12
13:43:56:705286,-3,18,7,22,-4,-18,-20,-12
13:43:56:706093,18,5,19,1,1,0,-16,1
13:43:56:712159,6,-14,0,11,3,11,19,2
13:43:56:720310,6,-14,0,11,3,11,19,2
13:43:56:721090,-23,10,17,9,-11,-23,-17,-4
13:43:56:727147,-5,-33,6,2,-3,-4,9,-13
13:43:56:742744,-5,-33,6,2,-3,-4,9,-13
13:43:56:743545,0,-19,-14,-34,-10,-19,-3,8
13:43:56:749591,21,0,-5,14,-1,10,34,12
13:43:56:757111,21,0,-5,14,-1,10,34,12
13:43:56:764579,3,-13,-17,-2,16,19,7,3
13:43:56:772111,-11,0,-2,32,-4,-4,-29,-12
13:43:56:780292,-11,0,-2,32,-4,-4,-29,-12
13:43:56:781091,21,2,-19,3,-9,-8,-17,8
13:43:56:787103,6,4,1,-22,8,-3,-22,0
13:43:56:802772,6,4,1,-22,8,-3,-22,0
13:43:56:803577,-6,3,16,9,-3,-9,-23,9
13:43:56:809534,14,6,15,12,-2,5,19,15
13:43:56:817179,14,6,15,12,-2,5,19,15
13:43:56:824577,6,-28,3,-4,1,-4,-11,-22
13:43:56:832183,-11,6,-37,-13,1,-9,-6,-6
13:43:56:840288,-11,6,-37,-13,1,-9,-6,-6
13:43:56:841083,-14,-5,3,20,9,15,17,8
13:43:56:847179,16,-4,-16,-4,17,8,13,2
13:43:56:862811,16,-4,-16,-4,17,8,13,2
13:43:56:863536,-10,-8,-34,-14,-15,-13,-16,-9
13:43:56:869579,-7,-33,1,-42,-3,23,27,14
13:43:56:877114,-7,-33,1,-42,-3,23,27,14
13:43:56:884587,0,2,-6,-35,-7,-1,11,2
13:43:56:892086,0,-6,-26,-1,-10,-7,-20,-8
13:43:56:900364,0,-6,-26,-1,-10,-7,-20,-8
13:43:56:901161,-13,29,9,9,-1,2,-3,-22
13:43:56:907029,-7,23,19,2,0,11,13,-2
13:43:56:922797,-7,23,19,2,0,11,13,-2
13:43:56:923545,5,16,4,11,1,-4,-19,4
13:43:56:929630,14,-3,6,12,1,-5,0,2
13:43:56:937164,14,-3,6,12,1,-5,0,2
13:43:56:944518,-6,38,27,9,-3,-6,4,-5
13:43:56:952064,-9,-31,-39,-23,-2,2,1,3
13:43:56:960321,-9,-31,-39,-23,-2,2,1,3
13:43:56:961066,-6,-5,5,0,6,-5,20,-6
13:43:56:967172,-4,25,19,12,-9,-21,-15,-4
13:43:56:982825,-4,25,19,12,-9,-21,-15,-4
13:43:56:983576,-7,-33,-10,13,-4,5,5,5
13:43:56:989513,-9,29,-1,6,7,8,22,-3
13:43:56:997186,-9,29,-1,6,7,8,22,-3
13:43:57:4588,25,2,26,9,30,14,-12,-10
13:43:57:12132,-28,-10,9,16,12,1,-10,-11
13:43:57:20318,-28,-10,9,16,12,1,-10,-11
13:43:57:21100,4,4,-16,-14,3,5,-24,-1
13:43:57:34616,17,21,15,3,-3,9,29,8
13:43:57:42758,17,21,15,3,-3,9,29,8
13:43:57:43567,6,2,-7,-5,-12,-15,6,7
13:43:57:49616,-9,-4,0,-22,-9,-17,-45,-39
13:43:57:57113,-9,-4,0,-22,-9,-17,-45,-39
13:43:57:64595,3,-33,-18,-7,-5,10,10,8
13:43:57:72085,9,11,-12,-16,-9,-2,8,4
13:43:57:80302,9,11,-12,-16,-9,-2,8,4
13:43:57:81094,-3,14,-6,-13,11,13,11,8
13:43:57:94575,-8,-27,18,5,-11,5,34,-7
13:43:57:102796,-8,-27,18,5,-11,5,34,-7
13:43:57:103563,5,-18,14,1,-13,-5,-31,-16
13:43:57:109536,-11,10,20,5,-1,-14,-35,-1
13:43:57:117186,-11,10,20,5,-1,-14,-35,-1
13:43:57:124542,-13,-3,2,-1,-7,2,43,2
13:43:57:132143,3,9,-4,-4,1,-4,-13,8
13:43:57:140241,3,9,-4,-4,1,-4,-13,8
13:43:57:141103,-9,9,6,3,-6,2,2,5
13:43:57:154571,1,32,15,12,3,-3,3,8
13:43:57:162792,1,32,15,12,3,-3,3,8
13:43:57:163506,-6,-9,-15,1,-8,-16,-1,4
13:43:57:169608,-14,-39,-28,-5,-10,4,5,13
13:43:57:177143,-14,-39,-28,-5,-10,4,5,13
13:43:57:184627,6,-4,7,4,-2,-6,1,-2
13:43:57:192008,5,-31,-5,4,1,-5,-38,-11
13:43:57:200353,5,-31,-5,4,1,-5,-38,-11
13:43:57:201071,1,2,15,6,0,-2,9,-5
13:43:57:214583,7,16,19,8,8,-4,-6,-2
13:43:57:222760,7,16,19,8,8,-4,-6,-2
13:43:57:223522,6,-4,5,-10,18,3,-12,-4
13:43:57:229587,-3,-10,-4,-16,5,21,58,3
13:43:57:237121,-3,-10,-4,-16,5,21,58,3
13:43:57:244532,-5,4,-2,1,-6,-6,-9,-16
13:43:57:252072,1,-3,-18,11,1,-11,-10,-6
13:43:57:260317,1,-3,-18,11,1,-11,-10,-6
13:43:57:261084,0,5,8,5,-10,5,28,1
13:43:57:274515,-6,46,11,14,-4,-1,12,-1
13:43:57:282864,-6,46,11,14,-4,-1,12,-1
13:43:57:283575,-4,20,13,10,-2,-1,-20,4
13:43:57:289508,14,-7,-11,-11,3,5,0,6
13:43:57:297145,14,-7,-11,-11,3,5,0,6
13:43:57:304542,-14,-3,-30,-8,14,2,-10,7
13:43:57:312043,-12,-17,-19,-20,1,0,3,-7
13:43:57:320320,-12,-17,-19,-20,1,0,3,-7
13:43:57:321089,1,-6,2,2,-5,-2,15,-1
13:43:57:334625,-4,-15,-21,10,4,7,-27,-7
13:43:57:342765,-4,-15,-21,10,4,7,-27,-7
13:43:57:343556,-10,-34,-53,-25,-3,-11,-10,-12
13:43:57:349601,8,9,4,11,-6,-1,1,5
13:43:57:357140,8,9,4,11,-6,-1,1,5
13:43:57:364542,-1,5,7,15,18,8,-5,6
13:43:57:372142,1,20,10,-1,4,4,3,-2
13:43:57:380255,1,20,10,-1,4,4,3,-2
13:43:57:381064,9,8,10,-5,-12,-16,-25,-5
13:43:57:394596,-5,1,53,10,0,-3,-22,-3
13:43:57:402816,-5,1,53,10,0,-3,-22,-3
13:43:57:403581,-5,4,-6,-16,-4,2,-3,-6
13:43:57:409559,-2,-9,-23,-28,0,-4,3,-12
13:43:57:417210,-2,-9,-23,-28,0,-4,3,-12
13:43:57:424553,6,6,13,0,-12,-5,-4,7
13:43:57:432195,-6,-35,-19,14,2,7,9,-3
13:43:57:440235,-6,-35,-19,14,2,7,9,-3
13:43:57:441118,14,25,23,13,7,1,-1,6
13:43:57:454593,3,1,-12,20,-14,-4,16,4
13:43:57:462831,3,1,-12,20,-14,-4,16,4
13:43:57:463526,1,18,-18,-10,8,4,7,6
13:43:57:469555,6,6,21,2,-5,-27,-33,4
13:43:57:477162,6,6,21,2,-5,-27,-33,4
13:43:57:484598,2,0,1,12,1,8,18,5
13:43:57:492009,2,38,15,-5,0,-3,18,12
13:43:57:500305,2,38,15,-5,0,-3,18,12
13:43:57:501093,-24,-51,-15,-13,-14,-13,-20,-21
13:43:57:514574,-24,-38,-5,-15,-12,-9,-41,-37
13:43:57:522774,-24,-38,-5,-15,-12,-9,-41,-37
13:43:57:523513,12,-27,-10,-3,6,2,-1,8
13:43:57:529567,9,-6,-16,-16,9,34,14,18
13:43:57:537135,9,-6,-16,-16,9,34,14,18
13:43:57:544532,-2,4,2,5,-4,-7,-23,-3
13:43:57:552083,5,31,-10,-3,-6,-3,19,4
13:43:57:560319,5,31,-10,-3,-6,-3,19,4
13:43:57:561057,5,15,-11,-2,-18,-21,-27,1
13:43:57:574550,-6,-17,-2,-8,1,13,44,10
13:43:57:582917,-6,-17,-2,-8,1,13,44,10
13:43:57:583541,-4,16,4,-6,-4,9,6,-3
13:43:57:589497,9,4,-9,12,8,-7,-6,2
13:43:57:597148,9,4,-9,12,8,-7,-6,2
13:43:57:604571,-20,2,14,10,5,17,-2,-5
13:43:57:612151,-8,-28,10,-1,-7,-7,2,-19
13:43:57:620311,-8,-28,10,-1,-7,-7,2,-19
13:43:57:621123,4,-1,37,9,2,4,19,-9
13:43:57:634626,2,-26,-11,-20,-15,-15,-12,11
13:43:57:642787,2,-26,-11,-20,-15,-15,-12,11
13:43:57:643579,13,8,-34,-9,-9,9,3,-13
13:43:57:649661,3,6,9,5,13,19,3,3
13:43:57:657115,3,6,9,5,13,19,3,3
13:43:57:664604,3,-1,11,-5,-2,0,17,11
13:43:57:672158,-12,6,20,4,7,-3,-28,-18
13:43:57:680291,-12,6,20,4,7,-3,-28,-18
13:43:57:681119,25,40,4,-1,-2,-2,10,14
13:43:57:694590,1,5,-14,1,-7,-18,-18,8
13:43:57:702747,1,5,-14,1,-7,-18,-18,8
13:43:57:703524,-18,-20,-31,0,-4,-4,3,-16
13:43:57:709573,17,-12,-42,-12,11,0,10,12
13:43:57:717218,17,-12,-42,-12,11,0,10,12
13:43:57:724550,-11,11,23,33,17,16,3,-8
13:43:57:732177,-4,-4,15,14,3,14,15,-7
13:43:57:740237,-4,-4,15,14,3,14,15,-7
13:43:57:741129,4,-27,-3,-14,-6,-13,6,1
13:43:57:754614,11,2,6,30,8,-3,2,5
13:43:57:762816,11,2,6,30,8,-3,2,5
13:43:57:763505,-11,6,-6,13,-5,-6,3,-5
13:43:57:769588,-16,-14,-5,-8,3,-3,4,-5
13:43:57:777136,-16,-14,-5,-8,3,-3,4,-5
13:43:57:784562,-8,-12,13,-2,-2,1,-3,7
13:43:57:792034,6,22,54,3,5,9,-9,0
13:43:57:800342,6,22,54,3,5,9,-9,0
13:43:57:801084,5,-11,-3,-5,-7,-16,-13,7
13:43:57:814534,-9,2,-9,-5,-12,-29,-26,-3
13:43:57:822787,-9,2,-9,-5,-12,-29,-26,-3
13:43:57:823558,-7,-12,-11,-17,-5,-3,22,-2
13:43:57:829581,-2,-10,6,-4,-14,-18,-1,0
13:43:57:845342,-2,-10,6,-4,-14,-18,-1,0
13:43:57:846097,34,31,-5,20,16,9,0,17
13:43:57:852053,-1,6,-26,-2,19,-2,-1,10
13:43:57:860314,-1,6,-26,-2,19,-2,-1,10
13:43:57:861098,11,34,28,6,-11,-4,2,18
13:43:57:874598,2,10,15,4,-1,1,0,5
13:43:57:882805,2,10,15,4,-1,1,0,5
13:43:57:883515,-15,-8,-22,-14,-9,-20,4,-12
13:43:57:889521,-14,4,-3,-26,-16,5,-9,-7
13:43:57:897198,-14,4,-3,-26,-16,5,-9,-7
13:43:57:904547,-1,-23,2,-7,-1,-9,-10,-5
13:43:57:912129,7,40,6,16,4,15,11,-6
13:43:57:920286,7,40,6,16,4,15,11,-6
13:43:57:921117,3,-17,25,5,7,17,4,-12
13:43:57:934585,12,-13,-11,7,-4,-2,-9,3
13:43:57:942738,12,-13,-11,7,-4,-2,-9,3
13:43:57:943551,-8,-19,-20,-31,-3,-16,-25,-12
13:43:57:949559,-5,-8,8,-1,-9,4,21,2
13:43:57:957091,-5,-8,8,-1,-9,4,21,2
13:43:57:964566,-16,-36,-4,9,1,3,-1,4
13:43:57:972070,-3,-11,-17,-10,-6,-4,-11,-2
13:43:57:979690,-3,-11,-17,-10,-6,-4,-11,-2
13:43:57:987060,-7,-7,8,-3,5,10,-16,3
13:43:57:994536,-11,7,19,12,0,3,24,-1
13:43:58:2735,-11,7,19,12,0,3,24,-1
13:43:58:3550,-19,-8,-28,-9,-7,-12,-7,8
13:43:58:17871,-4,-46,-3,4,-2,-5,-31,-18
13:43:58:18611,-4,-46,-3,4,-2,-5,-31,-18
13:43:58:24586,-2,-11,5,-17,-9,13,4,-11
13:43:58:32069,6,6,-25,-17,1,5,29,12
13:43:58:39573,6,6,-25,-17,1,5,29,12
13:43:58:47134,3,7,-5,5,10,1,-15,-8
13:43:58:54601,-2,15,-12,-2,2,12,0,-15
13:43:58:62837,-2,15,-12,-2,2,12,0,-15
13:43:58:63518,-1,31,2,13,2,-4,-6,11
13:43:58:77835,0,3,-22,-12,-6,-10,6,0
13:43:58:78516,0,3,-22,-12,-6,-10,6,0
13:43:58:84633,23,-8,-24,0,-1,36,101,39
13:43:58:92088,0,5,37,7,3,4,-42,0
13:43:58:99654,0,5,37,7,3,4,-42,0
13:43:58:107001,9,11,6,-2,-10,-16,-38,-23
13:43:58:114508,-4,-19,7,25,2,-2,11,4
13:43:58:122810,-4,-19,7,25,2,-2,11,4
13:43:58:123570,14,3,-58,-9,0,-4,-2,-3
13:43:58:137764,17,12,8,-29,-2,-4,-9,-6
13:43:58:138601,17,12,8,-29,-2,-4,-9,-6
13:43:58:144536,-7,38,32,8,-3,22,29,0
13:43:58:152147,-29,-38,-46,-20,-13,-21,-53,-21
13:43:58:159592,-29,-38,-46,-20,-13,-21,-53,-21
13:43:58:167100,-2,-14,7,0,3,-29,-53,-32
13:43:58:174561,3,25,14,25,7,3,8,4
13:43:58:182885,3,25,14,25,7,3,8,4
13:43:58:183533,-13,18,15,0,-8,-2,-12,-9
13:43:58:197723,1,12,9,1,13,24,34,7
13:43:58:198528,1,12,9,1,13,24,34,7
13:43:58:204544,3,4,-1,11,10,7,18,0
13:43:58:211995,-1,-15,-19,-9,-11,-18,-51,-6
13:43:58:219618,-1,-15,-19,-9,-11,-18,-51,-6
13:43:58:227114,3,-15,10,2,-4,-4,-18,8
13:43:58:234631,-3,-15,-24,2,-4,2,12,1
13:43:58:242754,-3,-15,-24,2,-4,2,12,1
13:43:58:243621,-3,18,-10,-6,-2,-9,0,8
13:43:58:257800,-1,5,7,21,0,-3,7,-3
13:43:58:258570,-1,5,7,21,0,-3,7,-3
13:43:58:264582,-4,-24,-3,7,12,-2,-1,0
13:43:58:272093,-3,1,-8,-5,-9,1,24,5
13:43:58:279736,-3,1,-8,-5,-9,1,24,5
13:43:58:287108,-20,-14,-12,-35,-12,27,70,-7
13:43:58:294630,-2,-22,17,-10,3,-17,8,-2
13:43:58:302808,-2,-22,17,-10,3,-17,8,-2
13:43:58:303571,-15,1,5,-1,-6,-24,-52,-6
13:43:58:317762,-11,-7,-7,-4,-2,14,9,-6
13:43:58:318548,-11,-7,-7,-4,-2,14,9,-6
13:43:58:324550,11,3,-33,0,7,-1,2,0
13:43:58:332081,-2,-7,6,-2,-10,-12,-16,5
13:43:58:339580,-2,-7,6,-2,-10,-12,-16,5
13:43:58:347144,-12,-15,21,8,-3,-12,-12,-16
13:43:58:354587,10,15,-9,-5,1,3,13,5
13:43:58:362838,10,15,-9,-5,1,3,13,5
13:43:58:363526,2,8,15,-10,-4,-12,-11,1
13:43:58:377839,10,11,10,3,7,-6,-5,6
13:43:58:378534,10,11,10,3,7,-6,-5,6
13:43:58:384673,4,13,9,2,-1,-12,-34,-8
13:43:58:392145,19,3,-1,-14,-11,5,16,0
13:43:58:399694,19,3,-1,-14,-11,5,16,0
13:43:58:406993,1,12,29,10,0,6,3,3
13:43:58:414506,-35,-25,28,21,7,40,36,-15
13:43:58:422799,-35,-25,28,21,7,40,36,-15
13:43:58:423550,-1,-12,15,13,1,10,31,1
13:43:58:437758,2,11,-10,-5,5,-13,-13,-7
13:43:58:438572,2,11,-10,-5,5,-13,-13,-7
13:43:58:444580,13,-11,-27,-21,-9,0,-11,3
13:43:58:452086,2,-17,-6,-28,9,-13,-2,17
13:43:58:459583,2,-17,-6,-28,9,-13,-2,17
13:43:58:467116,7,1,-50,-15,-7,-38,-39,3
13:43:58:474509,-8,6,-4,5,-6,8,13,-10
13:43:58:482912,-8,6,-4,5,-6,8,13,-10
13:43:58:483564,18,7,42,14,7,12,-13,16
13:43:58:497763,-4,8,13,-1,-4,-14,-5,-10
13:43:58:498545,-4,8,13,-1,-4,-14,-5,-10
13:43:58:504527,-8,-12,1,-4,-4,-7,-8,-12
13:43:58:512001,14,50,-6,-10,12,7,-3,-2
13:43:58:519619,14,50,-6,-10,12,7,-3,-2
13:43:58:527072,2,-5,18,5,11,-4,-9,5
13:43:58:534632,-14,-31,-2,18,-18,-20,-35,-10
13:43:58:542757,-14,-31,-2,18,-18,-20,-35,-10
13:43:58:543537,-15,-2,-17,5,-4,-8,5,3
13:43:58:557801,29,26,12,1,-4,-11,-1,14
13:43:58:558581,29,26,12,1,-4,-11,-1,14
13:43:58:564570,3,-2,-14,-12,9,10,11,-3
13:43:58:572074,9,-20,-17,7,-4,-3,-16,4
13:43:58:579749,9,-20,-17,7,-4,-3,-16,4
13:43:58:587145,0,20,5,0,0,2,0,-5
13:43:58:594563,3,-6,-20,-11,-8,-12,-4,2
13:43:58:602757,3,-6,-20,-11,-8,-12,-4,2
13:43:58:603548,-11,-4,-5,2,-6,17,11,-22
13:43:58:617768,-1,4,12,-3,-8,2,28,19
13:43:58:618528,-1,4,12,-3,-8,2,28,19
13:43:58:624557,-2,-17,11,-12,0,-1,11,0
13:43:58:632063,-4,15,12,-12,9,13,-26,-1
13:43:58:639555,-4,15,12,-12,9,13,-26,-1
13:43:58:647024,5,8,12,19,4,-2,-7,5
13:43:58:654562,-30,-51,-28,-5,-4,-7,0,-22
13:43:58:662806,-30,-51,-28,-5,-4,-7,0,-22
13:43:58:663502,-2,-18,-6,-20,-8,-18,-26,5
13:43:58:677728,-6,14,2,-2,3,16,15,-1
13:43:58:678506,-6,14,2,-2,3,16,15,-1
13:43:58:684613,-13,2,-6,15,1,-7,-28,9
13:43:58:692031,-4,1,5,-3,-3,1,-5,3
13:43:58:699725,-4,1,5,-3,-3,1,-5,3
13:43:58:707013,-1,-5,-12,-4,-6,-7,-20,-6
13:43:58:714522,5,28,26,8,-5,-9,15,3
13:43:58:722755,5,28,26,8,-5,-9,15,3
13:43:58:723562,0,-22,3,13,5,2,-5,-6
13:43:58:737726,-14,11,-4,-12,6,2,12,-9
13:43:58:738568,-14,11,-4,-12,6,2,12,-9
13:43:58:744551,12,24,5,-12,-8,-12,-7,-5
13:43:58:752115,4,0,4,21,5,9,5,-8
13:43:58:759588,4,0,4,21,5,9,5,-8
13:43:58:767141,-10,-50,-6,2,0,11,25,5
13:43:58:774531,-10,-23,-26,-8,-2,-4,-8,3
13:43:58:782924,-10,-23,-26,-8,-2,-4,-8,3
13:43:58:783539,-11,-12,-2,16,1,2,4,-9
13:43:58:797766,13,-8,-4,27,2,-5,-15,8
13:43:58:798561,13,-8,-4,27,2,-5,-15,8
13:43:58:804564,-30,13,-16,-3,-7,4,3,-12
13:43:58:812057,-2,6,-5,28,9,-19,-27,-5
