Time,EMG1,EMG2,EMG3,EMG4,EMG5,EMG6,EMG7,EMG8
13:44:44:980363,0,-2,-4,-10,-3,0,-2,1
13:44:44:981088,0,-2,-4,-10,-3,0,-2,1
13:44:44:987089,-2,-1,-4,0,-3,-6,3,-1
13:44:44:994577,2,5,2,-3,1,2,-1,2
13:44:45:2201,2,5,2,-3,1,2,-1,2
13:44:45:9583,-6,-4,-4,-4,-4,-3,-4,-1
13:44:45:17882,-1,-4,-1,7,5,1,4,-2
13:44:45:18483,-1,-4,-1,7,5,1,4,-2
13:44:45:24581,0,0,-1,-4,-5,-1,-4,-1
13:44:45:40172,-4,-3,-4,-2,-6,-5,-3,-2
13:44:45:40985,-4,-3,-4,-2,-6,-5,-3,-2
13:44:45:47089,0,-4,-5,-1,-2,-1,1,0
13:44:45:54572,-1,-1,-1,1,1,0,-1,-2
13:44:45:62087,-1,-1,-1,1,1,0,-1,-2
13:44:45:69573,-1,-3,-1,-2,-3,-6,-30,-4
13:44:45:77701,-2,2,2,5,-7,-5,4,-1
13:44:45:78518,-2,2,2,5,-7,-5,4,-1
13:44:45:84550,2,4,11,16,6,6,8,1
13:44:45:100274,-3,-7,-1,0,0,-4,-11,-3
13:44:45:100997,-3,-7,-1,0,0,-4,-11,-3
13:44:45:106972,-1,-2,-3,-4,2,2,-1,-1
13:44:45:114639,0,-2,5,2,-3,0,13,2
13:44:45:122115,0,-2,5,2,-3,0,13,2
13:44:45:129565,-2,-2,-1,-3,-3,-3,-4,-2
13:44:45:137712,-2,-3,-5,-6,-2,-2,-5,-1
13:44:45:138525,-2,-3,-5,-6,-2,-2,-5,-1
13:44:45:144536,-2,-1,-5,-8,2,-1,-16,-3
13:44:45:160201,-4,-12,-5,1,7,4,-1,-2
13:44:45:161033,-4,-12,-5,1,7,4,-1,-2
13:44:45:167104,0,0,-1,-1,-2,0,6,-2
13:44:45:174516,0,1,-1,-1,-5,0,-7,-1
13:44:45:182141,0,1,-1,-1,-5,0,-7,-1
13:44:45:189548,-3,-7,0,-4,-9,-2,9,-3
13:44:45:197730,0,-1,-4,-7,2,0,6,0
13:44:45:198541,0,-1,-4,-7,2,0,6,0
13:44:45:204534,-1,4,0,-3,-4,-6,-18,-3
13:44:45:220270,1,2,-5,-2,-3,-4,-4,-3
13:44:45:221018,1,2,-5,-2,-3,-4,-4,-3
13:44:45:227008,4,3,1,-4,-4,-2,9,1
13:44:45:234622,0,-2,-3,3,9,-2,-16,0
13:44:45:242117,0,-2,-3,3,9,-2,-16,0
13:44:45:249651,1,3,-1,2,-1,2,8,2
13:44:45:257687,-4,-5,-6,-1,-9,-3,8,-3
13:44:45:258477,-4,-5,-6,-1,-9,-3,8,-3
13:44:45:264545,-1,-1,1,6,2,-3,0,-1
13:44:45:280229,-4,-4,0,-5,-5,0,3,0
13:44:45:281030,-4,-4,0,-5,-5,0,3,0
13:44:45:287073,-1,-4,-6,-8,-2,-2,5,-3
13:44:45:294550,1,1,0,-2,-5,-3,-2,-2
13:44:45:302183,1,1,0,-2,-5,-3,-2,-2
13:44:45:309514,1,-2,-2,-2,0,-1,-15,1
13:44:45:317744,-1,-3,-2,-3,0,-1,-25,-2
13:44:45:318485,-1,-3,-2,-3,0,-1,-25,-2
13:44:45:324453,-4,-2,-2,-2,-2,-1,5,0
13:44:45:340189,-1,3,6,3,0,-2,5,0
13:44:45:340994,-1,3,6,3,0,-2,5,0
13:44:45:347102,0,4,3,5,6,0,-8,-4
13:44:45:354600,1,-2,-6,-4,-8,-8,-6,-2
13:44:45:362067,1,-2,-6,-4,-8,-8,-6,-2
13:44:45:369532,1,2,1,-1,8,17,21,2
13:44:45:377709,0,2,2,3,5,1,4,-1
13:44:45:378507,0,2,2,3,5,1,4,-1
13:44:45:384618,-2,-2,-3,-2,-8,-6,3,-2
13:44:45:400251,-2,0,8,1,-3,-2,-5,1
13:44:45:401009,-2,0,8,1,-3,-2,-5,1
13:44:45:406970,1,-1,3,3,8,3,6,1
13:44:45:414570,1,0,-6,-4,-2,-1,10,0
13:44:45:422122,1,0,-6,-4,-2,-1,10,0
13:44:45:429566,-1,1,-3,0,-6,-4,-5,-1
13:44:45:438160,-1,-2,-5,-5,0,-1,-6,-6
13:44:45:445223,-1,-2,-5,-5,0,-1,-6,-6
13:44:45:446060,0,2,-2,-3,-5,-6,-5,-1
13:44:45:460190,3,3,1,-3,2,3,9,2
13:44:45:461021,3,3,1,-3,2,3,9,2
13:44:45:467062,-1,-3,-4,-4,-8,-9,-6,-3
13:44:45:474494,-1,1,5,6,3,5,9,0
13:44:45:482148,-1,1,5,6,3,5,9,0
13:44:45:489539,-1,-4,-5,-7,-2,-4,-15,-2
13:44:45:497693,-2,-3,-3,-3,-12,-8,-2,-2
13:44:45:498526,-2,-3,-3,-3,-12,-8,-2,-2
13:44:45:504544,0,0,0,4,3,12,9,0
13:44:45:520227,-1,2,2,7,18,7,3,0
13:44:45:521037,-1,2,2,7,18,7,3,0
13:44:45:526999,-3,-5,2,-2,10,-6,0,-1
13:44:45:534568,0,-2,0,4,2,11,-3,0
13:44:45:542104,0,-2,0,4,2,11,-3,0
13:44:45:549578,-1,3,0,-4,-16,-14,-4,-1
13:44:45:557678,0,-9,-4,-3,3,0,9,-1
13:44:45:558502,0,-9,-4,-3,3,0,9,-1
13:44:45:564569,-2,-4,-2,3,-2,-1,1,-5
13:44:45:580300,1,4,-1,-2,-3,0,4,0
13:44:45:581024,1,4,-1,-2,-3,0,4,0
13:44:45:587076,-1,1,2,7,5,-1,-15,-2
13:44:45:602716,-3,2,0,-1,-6,-3,-7,-3
13:44:45:603524,-3,2,0,-1,-6,-3,-7,-3
13:44:45:609583,-3,-3,-3,-3,-2,-1,13,1
13:44:45:617860,-4,-4,-7,-9,-12,-13,-2,-2
13:44:45:618579,-4,-4,-7,-9,-12,-13,-2,-2
13:44:45:632074,-2,0,-2,1,15,4,-9,-1
13:44:45:640253,0,-1,0,-1,13,9,5,0
13:44:45:641010,0,-1,0,-1,13,9,5,0
13:44:45:647054,-3,-4,0,-3,-11,-7,8,-2
13:44:45:662836,-2,3,5,2,-1,-3,-12,-2
13:44:45:663550,-2,3,5,2,-1,-3,-12,-2
13:44:45:669479,1,0,-1,-2,-2,-2,-7,0
13:44:45:677751,0,2,2,5,-4,2,6,1
13:44:45:678524,0,2,2,5,-4,2,6,1
13:44:45:692044,0,-1,-3,-4,-2,-1,2,1
13:44:45:700314,0,-4,-4,-5,-6,-5,-8,-2
13:44:45:701053,0,-4,-4,-5,-6,-5,-8,-2
13:44:45:707013,-3,-3,-2,-4,-5,-6,-32,-3
13:44:45:723198,0,2,-3,-5,-3,-2,2,-1
13:44:45:723972,0,2,-3,-5,-3,-2,2,-1
13:44:45:729600,-1,-1,1,4,1,7,0,-2
13:44:45:737766,-3,-3,-2,-3,-7,-8,-10,-5
13:44:45:738537,-3,-3,-2,-3,-7,-8,-10,-5
13:44:45:752052,-2,2,3,-1,-2,-1,3,2
13:44:45:760192,1,-3,-2,2,1,0,1,2
13:44:45:761025,1,-3,-2,2,1,0,1,2
13:44:45:767054,-1,-1,-1,-2,0,3,5,-1
13:44:45:782734,-2,-5,-3,-7,-10,-9,-4,-3
13:44:45:783581,-2,-5,-3,-7,-10,-9,-4,-3
13:44:45:789517,2,1,-2,0,2,3,6,0
13:44:45:805263,0,6,2,3,0,1,3,-2
13:44:45:806039,0,6,2,3,0,1,3,-2
13:44:45:811987,-1,-2,-2,-1,-3,2,6,3
13:44:45:820006,-4,-6,-5,-9,-5,-5,7,2
13:44:45:827763,-4,-6,-5,-9,-5,-5,7,2
13:44:45:828487,-1,-4,-3,-1,-11,6,3,-2
13:44:45:842713,2,1,1,-1,3,2,-2,1
13:44:45:843475,2,1,1,-1,3,2,-2,1
13:44:45:849486,-1,-2,-2,-6,5,-3,2,-1
13:44:45:857694,-3,-2,0,0,-2,-2,-3,-4
13:44:45:858481,-3,-2,0,0,-2,-2,-3,-4
13:44:45:872063,1,5,7,7,22,11,-18,-4
13:44:45:880284,1,5,7,7,22,11,-18,-4
13:44:45:881030,-2,-1,-4,-6,-5,-4,-13,-3
13:44:45:887039,0,-3,-3,-3,-8,-3,17,-1
13:44:45:902782,0,-3,-3,-3,-8,-3,17,-1
13:44:45:903523,1,-1,-1,1,0,-3,-1,-1
13:44:45:909560,-2,0,0,-3,-1,-2,-3,0
13:44:45:917156,-2,0,0,-3,-1,-2,-3,0
13:44:45:924503,-1,-5,-3,5,4,4,-14,0
13:44:45:932042,0,0,4,4,-2,-5,4,-1
13:44:45:940249,0,0,4,4,-2,-5,4,-1
13:44:45:941005,0,2,2,4,6,1,-7,-2
13:44:45:947043,-3,3,0,-1,-4,-4,4,0
13:44:45:962913,-3,3,0,-1,-4,-4,4,0
13:44:45:963546,0,-2,-2,-2,-10,-5,-5,-1
13:44:45:977716,-2,0,4,0,-6,-2,6,-2
13:44:45:978507,-2,0,4,0,-6,-2,6,-2
13:44:45:984530,-2,-3,-11,-9,-1,4,9,-2
13:44:46:9007,1,0,-4,-5,4,5,3,0
13:44:46:9852,1,0,-4,-5,4,5,3,0
13:44:46:10663,-1,-1,0,-3,-10,-17,-27,-5
13:44:46:11448,-1,-1,-2,-2,-4,0,-3,-3
13:44:46:22762,-1,-1,-2,-2,-4,0,-3,-3
13:44:46:23513,-1,-2,-1,2,-1,1,7,0
13:44:46:29591,0,1,3,8,-3,-6,-8,0
13:44:46:37744,0,1,3,8,-3,-6,-8,0
13:44:46:38566,0,1,3,1,3,-3,-2,2
13:44:46:52080,0,-6,-6,-11,-3,15,-1,0
13:44:46:60208,0,-6,-6,-11,-3,15,-1,0
13:44:46:60998,-1,-1,-1,1,7,6,13,1
13:44:46:67085,-1,1,0,1,-5,-11,5,0
13:44:46:82819,-1,1,0,1,-5,-11,5,0
13:44:46:83536,-2,-4,-4,-5,1,0,-8,-3
13:44:46:89508,-6,-10,-3,-1,-13,-9,6,-3
13:44:46:98143,-6,-10,-3,-1,-13,-9,6,-3
13:44:46:104519,0,2,3,0,7,1,0,1
13:44:46:111987,-3,-3,-9,-6,-1,-8,-13,-3
13:44:46:120244,-3,-3,-9,-6,-1,-8,-13,-3
13:44:46:121048,-2,-5,-3,-2,8,14,10,-2
13:44:46:126984,1,1,2,9,5,3,8,1
13:44:46:142735,1,1,2,9,5,3,8,1
13:44:46:143491,2,1,-3,-6,-4,-6,-19,-2
13:44:46:149575,-4,-7,-7,-4,1,-4,-9,-6
13:44:46:157739,-4,-7,-7,-4,1,-4,-9,-6
13:44:46:158542,1,1,5,11,-2,2,13,5
13:44:46:172040,-3,-4,0,3,5,-2,-10,-1
13:44:46:180291,-3,-4,0,3,5,-2,-10,-1
13:44:46:181068,-3,-3,-4,1,-4,-3,20,1
13:44:46:187016,3,5,-3,-1,-2,-5,-9,-1
13:44:46:202808,3,5,-3,-1,-2,-5,-9,-1
13:44:46:203543,4,6,4,6,2,-3,18,1
13:44:46:209535,-3,-6,-5,-7,5,-1,0,-2
13:44:46:217824,-3,-6,-5,-7,5,-1,0,-2
13:44:46:218539,-2,1,0,-10,-14,-6,0,-3
13:44:46:232034,1,-2,-3,1,0,5,7,3
13:44:46:240248,1,-2,-3,1,0,5,7,3
13:44:46:241000,-2,-7,-1,1,-3,2,-1,-3
13:44:46:247055,-3,-9,6,6,-7,-2,0,-3
13:44:46:262778,-3,-9,6,6,-7,-2,0,-3
13:44:46:263521,-6,-3,-4,0,0,-6,-18,-5
13:44:46:278390,2,3,1,-9,2,2,2,1
13:44:46:279154,2,3,1,-9,2,2,2,1
13:44:46:279978,-1,-5,1,-3,3,2,-3,-2
13:44:46:292060,2,7,-5,-6,-15,1,-1,-3
13:44:46:300277,2,7,-5,-6,-15,1,-1,-3
13:44:46:300987,8,25,26,-7,6,10,7,3
13:44:46:314564,3,10,3,4,1,-9,-8,-1
13:44:46:322735,3,10,3,4,1,-9,-8,-1
13:44:46:323572,-7,-17,-15,1,-5,-10,-16,-5
13:44:46:329519,6,-9,-10,-14,-5,-3,-13,-1
13:44:46:337803,6,-9,-10,-14,-5,-3,-13,-1
13:44:46:338513,4,0,4,9,11,4,4,3
13:44:46:352047,-13,-22,-12,-31,-3,-5,-7,-3
13:44:46:360269,-13,-22,-12,-31,-3,-5,-7,-3
13:44:46:361050,-2,7,10,6,14,6,3,0
13:44:46:367085,-6,-8,-25,-26,2,1,6,1
13:44:46:382790,-6,-8,-25,-26,2,1,6,1
13:44:46:383553,-6,-15,-44,-13,15,7,4,0
13:44:46:389513,-6,-14,6,11,2,2,0,0
13:44:46:398197,-6,-14,6,11,2,2,0,0
13:44:46:404564,5,-12,12,6,-12,-6,1,4
13:44:46:412026,-1,-3,19,14,0,-1,-18,-5
13:44:46:420255,-1,-3,19,14,0,-1,-18,-5
13:44:46:421013,0,16,21,71,-3,-6,-6,-4
13:44:46:427019,-2,39,28,33,8,2,6,1
13:44:46:442791,-2,39,28,33,8,2,6,1
13:44:46:443551,-4,8,-26,-45,-15,-9,-6,-3
13:44:46:449670,-2,5,-38,-19,-6,-5,8,-6
13:44:46:465290,-2,5,-38,-19,-6,-5,8,-6
13:44:46:466019,5,19,0,-10,-7,-1,0,0
13:44:46:480941,0,13,25,-44,-19,-9,-5,-2
13:44:46:481719,0,13,25,-44,-19,-9,-5,-2
13:44:46:482466,-10,-28,-22,-49,-25,-9,-4,-4
13:44:46:487024,0,-9,-5,-11,13,3,2,-2
13:44:46:510943,0,-9,-5,-11,13,3,2,-2
13:44:46:511654,0,-6,-5,-26,-11,2,-4,-1
13:44:46:512475,-5,-16,-11,15,5,26,17,3
13:44:46:525326,-5,-16,-11,15,5,26,17,3
13:44:46:526025,-2,13,19,-56,-10,-2,-1,-1
13:44:46:532064,10,21,26,22,6,-3,-4,1
13:44:46:540190,10,21,26,22,6,-3,-4,1
13:44:46:541024,4,2,-4,52,6,-5,-4,-4
13:44:46:555022,6,-5,-7,8,7,21,17,2
13:44:46:562804,6,-5,-7,8,7,21,17,2
13:44:46:563576,4,31,59,30,-1,-18,-17,-2
13:44:46:569609,9,14,6,21,4,3,8,7
13:44:46:593447,9,14,6,21,4,3,8,7
13:44:46:594219,-5,-19,-26,9,5,2,1,-4
13:44:46:594945,0,-9,-43,-8,-4,-44,-41,-3
13:44:46:600330,0,-9,-43,-8,-4,-44,-41,-3
13:44:46:601012,0,-5,29,29,24,37,17,5
13:44:46:614539,-3,-3,-13,-47,-3,-1,3,-2
13:44:46:622775,-3,-3,-13,-47,-3,-1,3,-2
13:44:46:623535,0,-23,-7,-16,-10,-13,-8,-1
13:44:46:629635,-13,-12,-16,4,-11,-16,4,-8
13:44:46:645274,-13,-12,-16,4,-11,-16,4,-8
13:44:46:646015,0,9,6,-25,6,4,8,2
13:44:46:652081,8,-4,34,20,-12,5,5,12
13:44:46:660235,8,-4,34,20,-12,5,5,12
13:44:46:661016,7,25,5,8,8,44,35,9
13:44:46:674547,0,-4,-11,13,2,-9,-18,-9
13:44:46:682748,0,-4,-11,13,2,-9,-18,-9
13:44:46:683521,-13,-12,-17,17,-4,-25,-40,-15
13:44:46:689532,6,0,26,7,-7,-7,-5,-5
13:44:46:705248,6,0,26,7,-7,-7,-5,-5
13:44:46:705996,-12,-17,-67,-43,-9,-12,-4,-11
13:44:46:712031,-4,-11,-20,-3,7,12,-6,4
13:44:46:720219,-4,-11,-20,-3,7,12,-6,4
13:44:46:721023,-1,-17,-37,-31,-31,-30,-10,-4
13:44:46:734617,10,11,-29,-4,6,-14,-1,29
13:44:46:742726,10,11,-29,-4,6,-14,-1,29
13:44:46:743474,9,-3,36,5,20,17,-16,-3
13:44:46:749566,7,0,46,5,6,-15,-12,1
13:44:46:765284,7,0,46,5,6,-15,-12,1
13:44:46:765977,-8,-14,-30,-8,0,-3,16,10
13:44:46:772022,-19,6,-2,0,-4,-11,1,-34
13:44:46:780301,-19,6,-2,0,-4,-11,1,-34
13:44:46:780985,-7,-19,51,26,33,43,19,-9
13:44:46:794505,-16,-11,24,-4,-29,-7,20,-20
13:44:46:802813,-16,-11,24,-4,-29,-7,20,-20
13:44:46:803513,-3,-16,-66,-8,6,-59,-52,-2
13:44:46:809548,-5,-8,-21,9,7,45,15,3
13:44:46:825275,-5,-8,-21,9,7,45,15,3
13:44:46:826048,-19,-17,56,3,-3,-12,-9,5
13:44:46:832091,7,-9,12,12,13,11,2,-4
13:44:46:840214,7,-9,12,12,13,11,2,-4
13:44:46:840991,-3,23,14,22,8,-5,10,-16
13:44:46:854575,-14,4,-4,-19,-13,11,8,12
13:44:46:862888,-14,4,-4,-19,-13,11,8,12
13:44:46:863567,5,23,26,19,3,-13,-12,6
13:44:46:869514,-6,-11,-29,-42,-67,-63,-33,-12
13:44:46:885782,-6,-11,-29,-42,-67,-63,-33,-12
13:44:46:886514,3,41,59,18,58,103,41,-14
13:44:46:892014,3,6,0,23,54,10,-16,-19
13:44:46:900411,3,6,0,23,54,10,-16,-19
13:44:46:901041,0,-7,-12,-17,-51,-57,-3,-6
13:44:46:914558,-7,11,17,3,-2,-17,-18,-13
13:44:46:922776,-7,11,17,3,-2,-17,-18,-13
13:44:46:923553,-7,-34,-63,-23,-26,-10,-7,3
13:44:46:929620,5,-5,21,0,10,3,9,13
13:44:46:945240,5,-5,21,0,10,3,9,13
13:44:46:946006,13,3,-20,22,26,16,-2,14
13:44:46:952088,5,-11,-18,-1,-27,7,-13,7
13:44:46:960215,5,-11,-18,-1,-27,7,-13,7
13:44:46:961036,-1,9,9,-4,1,-30,-36,-7
13:44:46:974475,5,16,-2,12,-16,15,40,10
13:44:46:982901,5,16,-2,12,-16,15,40,10
13:44:46:983537,4,-12,-15,-16,-18,-7,8,2
13:44:46:989523,-6,-18,4,-12,8,2,-4,1
13:44:47:5250,-6,-18,4,-12,8,2,-4,1
13:44:47:6039,1,-6,-11,-33,-6,10,7,1
13:44:47:12038,-1,-9,-7,14,-8,-25,-40,-7
13:44:47:20291,-1,-9,-7,14,-8,-25,-40,-7
13:44:47:21059,7,4,23,18,24,40,29,11
13:44:47:34540,-5,17,-4,15,17,32,9,0
13:44:47:42766,-5,17,-4,15,17,32,9,0
13:44:47:43511,0,-5,-1,-13,-35,-4,17,2
13:44:47:49614,-3,-5,-21,12,-8,12,30,5
13:44:47:65230,-3,-5,-21,12,-8,12,30,5
13:44:47:66009,2,11,21,1,-28,20,7,3
13:44:47:71983,-1,6,1,16,40,-3,-10,-2
13:44:47:80304,-1,6,1,16,40,-3,-10,-2
13:44:47:81034,-5,-1,-42,-23,-32,-36,-17,-5
13:44:47:94534,-1,3,11,-28,5,-8,1,-4
13:44:47:102711,-1,3,11,-28,5,-8,1,-4
13:44:47:103509,2,8,22,18,8,-1,-22,-1
13:44:47:109475,0,6,-24,-10,4,25,19,2
13:44:47:125249,0,6,-24,-10,4,25,19,2
13:44:47:125964,-10,-4,1,12,-22,-19,14,-11
13:44:47:132103,3,0,16,17,80,11,-11,-3
13:44:47:140217,3,0,16,17,80,11,-11,-3
13:44:47:141038,5,4,-18,-14,5,9,-16,1
13:44:47:154546,4,16,20,31,-9,-5,4,4
13:44:47:162901,4,16,20,31,-9,-5,4,4
13:44:47:163548,-4,-2,8,-4,-26,-50,-27,-11
13:44:47:169585,-2,-10,-6,-10,-11,26,44,-11
13:44:47:185268,-2,-10,-6,-10,-11,26,44,-11
13:44:47:185993,0,-9,12,3,12,2,-32,7
13:44:47:192036,-13,-15,-7,-27,-53,-90,-65,-11
13:44:47:200279,-13,-15,-7,-27,-53,-90,-65,-11
13:44:47:200990,1,-4,-24,5,59,38,46,10
13:44:47:214535,8,22,2,-5,-14,9,20,11
13:44:47:222749,8,22,2,-5,-14,9,20,11
13:44:47:223490,5,29,11,11,-4,-23,-10,0
13:44:47:229661,1,2,5,20,-30,-12,-18,-5
13:44:47:237121,1,2,5,20,-30,-12,-18,-5
13:44:47:244489,3,-6,-5,-9,14,-13,-17,3
13:44:47:252045,3,-11,2,4,61,64,40,9
13:44:47:260201,3,-11,2,4,61,64,40,9
13:44:47:261016,-2,-9,24,0,-36,-45,-53,-3
13:44:47:274534,-6,-21,-45,-27,-28,-17,-26,1
13:44:47:282833,-6,-21,-45,-27,-28,-17,-26,1
13:44:47:283542,-2,3,-7,12,28,20,14,1
13:44:47:289532,-1,-1,-38,8,10,-1,-4,-2
13:44:47:297103,-1,-1,-38,8,10,-1,-4,-2
13:44:47:304523,-6,-18,-33,-58,-56,-34,-18,-6
13:44:47:312035,0,-16,8,-5,38,49,36,1
13:44:47:320294,0,-16,8,-5,38,49,36,1
13:44:47:321060,2,-7,24,53,11,23,30,1
13:44:47:334547,2,3,5,-14,-22,-24,-34,-4
13:44:47:342760,2,3,5,-14,-22,-24,-34,-4
13:44:47:343505,-1,21,13,-5,1,23,27,2
13:44:47:349612,-1,6,25,5,-17,-4,18,-3
13:44:47:357064,-1,6,25,5,-17,-4,18,-3
13:44:47:364538,5,-3,-10,7,-6,1,11,2
13:44:47:372039,0,1,-4,-28,-5,-24,-29,-2
13:44:47:380357,0,1,-4,-28,-5,-24,-29,-2
13:44:47:381085,-2,-25,-21,29,13,37,20,1
13:44:47:394555,5,30,29,9,6,-5,1,4
13:44:47:402862,5,30,29,9,6,-5,1,4
13:44:47:403576,-3,2,-27,-44,-25,-16,10,1
13:44:47:409529,0,-17,1,18,16,61,99,10
13:44:47:417224,0,-17,1,18,16,61,99,10
13:44:47:424530,-5,0,2,-15,-11,-11,-5,-7
13:44:47:432065,-8,-44,-2,-16,-12,-33,-41,-10
13:44:47:440226,-8,-44,-2,-16,-12,-33,-41,-10
13:44:47:441025,2,13,10,26,19,18,1,0
13:44:47:454559,2,-3,4,-12,13,1,-7,2
13:44:47:470271,2,-3,4,-12,13,1,-7,2
13:44:47:471025,-2,-9,-9,-22,-3,-9,-12,-4
13:44:47:477733,-3,9,-18,1,-22,-24,-29,-6
13:44:47:478536,-3,9,-18,1,-22,-24,-29,-6
13:44:47:484601,2,1,-19,1,9,2,-4,-5
13:44:47:492006,-4,-21,-20,-13,-15,-14,-25,2
13:44:47:499709,-4,-21,-20,-13,-15,-14,-25,2
13:44:47:506988,2,6,17,20,-1,4,3,-1
13:44:47:514513,5,21,-34,5,23,1,-14,1
13:44:47:522697,5,21,-34,5,23,1,-14,1
13:44:47:523472,-3,-6,-11,-20,-11,-12,1,-2
13:44:47:537761,0,-23,21,17,4,5,1,1
13:44:47:538528,0,-23,21,17,4,5,1,1
13:44:47:544531,1,-8,-9,12,14,16,2,-6
13:44:47:560240,-7,24,22,17,-3,-11,-25,-9
13:44:47:561045,-7,24,22,17,-3,-11,-25,-9
13:44:47:567120,-4,-6,22,-17,-14,-28,-36,-10
13:44:47:574532,0,15,14,7,2,1,22,-2
13:44:47:582758,0,15,14,7,2,1,22,-2
13:44:47:583495,-4,63,18,8,3,23,25,10
13:44:47:597800,3,-15,-15,-14,-23,-10,-16,1
13:44:47:598557,3,-15,-15,-14,-23,-10,-16,1
13:44:47:604527,-4,-9,-4,-11,-18,-32,-7,-1
13:44:47:612044,5,16,7,-9,13,27,-3,0
13:44:47:619561,5,16,7,-9,13,27,-3,0
13:44:47:627053,-1,-24,-21,-10,6,24,24,8
13:44:47:643387,-3,1,13,-22,-47,-43,-30,-10
13:44:47:644186,-3,1,13,-22,-47,-43,-30,-10
13:44:47:644976,1,-8,9,14,21,50,56,9
13:44:47:657720,3,-1,9,6,-19,7,14,0
13:44:47:658565,3,-1,9,6,-19,7,14,0
13:44:47:664538,-1,22,45,66,13,-14,-20,-7
13:44:47:672066,3,40,33,-10,29,-7,-8,0
13:44:47:679735,3,40,33,-10,29,-7,-8,0
13:44:47:687047,3,0,-26,-12,2,9,-5,3
13:44:47:694533,-8,-36,-33,-7,-23,-11,-12,-6
13:44:47:702730,-8,-36,-33,-7,-23,-11,-12,-6
13:44:47:703511,-4,0,-4,-19,-7,-9,-14,1
13:44:47:717805,9,6,-27,3,13,30,42,23
13:44:47:718550,9,6,-27,3,13,30,42,23
13:44:47:724487,0,8,0,-1,-14,-10,-10,-9
13:44:47:732143,-3,-7,-69,-39,-1,3,-4,-5
13:44:47:747802,-3,-7,-69,-39,-1,3,-4,-5
13:44:47:748582,0,-16,18,26,-5,-28,-26,-1
13:44:47:754534,-6,-2,12,6,1,-14,-1,-2
13:44:47:762822,-6,-2,12,6,1,-14,-1,-2
13:44:47:763604,-4,-51,5,-20,1,-17,-55,-7
13:44:47:777724,5,-6,8,2,-13,-1,16,5
13:44:47:778505,5,-6,8,2,-13,-1,16,5
13:44:47:784600,-1,9,9,9,-8,-5,-2,-2
13:44:47:791998,-5,16,0,7,-3,-5,-8,0
13:44:47:799676,-5,16,0,7,-3,-5,-8,0
13:44:47:806992,-2,0,-16,-10,2,-12,-12,-1
13:44:47:814531,-1,-2,7,8,19,0,1,-4
13:44:47:822725,-1,-2,7,8,19,0,1,-4
13:44:47:823485,-4,-1,-8,-2,-5,7,41,-5
13:44:47:837764,-6,-5,2,-12,-3,3,-9,-12
13:44:47:838523,-6,-5,2,-12,-3,3,-9,-12
13:44:47:852754,3,21,-4,-10,4,0,8,-4
13:44:47:853491,-2,5,-1,1,-6,-9,-17,-9
13:44:47:859582,-2,5,-1,1,-6,-9,-17,-9
13:44:47:867069,6,15,-3,-2,9,53,78,10
13:44:47:874510,-3,-21,10,31,-5,5,11,1
13:44:47:882913,-3,-21,10,31,-5,5,11,1
13:44:47:883537,-4,-22,-12,-26,-8,-15,-20,-2
13:44:47:897721,1,-23,2,-1,19,2,-2,0
13:44:47:898538,1,-23,2,-1,19,2,-2,0
13:44:47:904533,5,8,1,-5,10,-10,-8,2
13:44:47:920237,-5,20,20,10,-8,1,0,-4
13:44:47:921028,-5,20,20,10,-8,1,0,-4
13:44:47:926991,-1,-6,-2,3,1,-16,-8,-6
13:44:47:934570,2,5,-4,12,44,9,-18,-7
13:44:47:942740,2,5,-4,12,44,9,-18,-7
13:44:47:943499,-5,-1,-20,-23,-19,-28,-37,-6
13:44:47:957723,-3,-16,4,-22,-21,-8,-19,-6
13:44:47:958524,-3,-16,4,-22,-21,-8,-19,-6
13:44:47:964528,-3,-19,-9,7,3,-7,-17,-3
13:44:47:972017,-3,-13,0,-15,-12,-4,-2,-1
13:44:47:979639,-3,-13,0,-15,-12,-4,-2,-1
13:44:47:987022,0,1,-2,-4,-13,7,17,-1
13:44:47:994545,-1,4,-4,6,-5,8,-2,0
13:44:48:2773,-1,4,-4,6,-5,8,-2,0
13:44:48:3555,-5,-48,-2,4,-1,-4,-11,-7
13:44:48:25885,2,-12,-6,-16,-11,-20,-16,18
13:44:48:26682,2,-12,-6,-16,-11,-20,-16,18
13:44:48:27490,0,9,7,19,0,11,34,4
13:44:48:32006,-12,-28,-15,-5,8,20,11,-6
13:44:48:39607,-12,-28,-15,-5,8,20,11,-6
13:44:48:47043,-3,-3,-13,-3,-2,-10,-12,-6
13:44:48:54542,13,27,18,5,25,65,75,16
13:44:48:62790,13,27,18,5,25,65,75,16
13:44:48:63542,-2,5,3,-8,-17,-7,-18,6
13:44:48:77727,1,28,17,20,7,-22,-4,-1
13:44:48:78514,1,28,17,20,7,-22,-4,-1
13:44:48:92640,2,0,-3,-5,15,-1,-8,2
13:44:48:93447,-3,13,4,3,-16,-18,0,-2
13:44:48:99584,-3,13,4,3,-16,-18,0,-2
13:44:48:107018,3,13,5,-9,7,10,-6,0
13:44:48:114550,-4,-19,-11,-11,4,-23,-46,-9
13:44:48:122775,-4,-19,-11,-11,4,-23,-46,-9
13:44:48:123537,3,10,-4,-6,-19,8,27,8
13:44:48:137748,-5,-2,-6,0,-14,23,51,2
13:44:48:138577,-5,-2,-6,0,-14,23,51,2
13:44:48:144513,-1,-6,18,22,28,11,-2,8
13:44:48:152076,0,-13,-34,-6,-10,-37,-38,-4
13:44:48:159635,0,-13,-34,-6,-10,-37,-38,-4
13:44:48:167127,-4,-35,-9,-9,1,16,10,-6
13:44:48:174489,8,19,5,-6,-10,10,11,-3
13:44:48:182811,8,19,5,-6,-10,10,11,-3
13:44:48:183535,3,34,-16,3,11,-8,-14,-3
13:44:48:198205,-2,-18,4,22,-7,-26,-17,-7
13:44:48:198954,-2,-18,4,22,-7,-26,-17,-7
13:44:48:204523,2,5,5,3,12,13,0,5
13:44:48:212028,-4,27,14,2,-2,-1,5,-3
13:44:48:219598,-4,27,14,2,-2,-1,5,-3
13:44:48:227019,-5,-13,-26,-22,-28,-23,-8,-8
13:44:48:234572,4,9,2,-14,8,13,8,1
13:44:48:242674,4,9,2,-14,8,13,8,1
13:44:48:243467,-5,-1,24,6,-5,5,-22,-9
13:44:48:257651,7,10,-8,-6,-11,-8,-3,5
13:44:48:258482,7,10,-8,-6,-11,-8,-3,5
13:44:48:264523,2,1,-4,-6,5,-3,-14,-1
13:44:48:272052,-2,-7,9,-11,3,6,14,-1
13:44:48:279632,-2,-7,9,-11,3,6,14,-1
13:44:48:287020,0,2,-17,5,25,42,16,-4
13:44:48:303408,-2,10,-26,-19,-19,-11,-7,-2
13:44:48:304181,-2,10,-26,-19,-19,-11,-7,-2
13:44:48:304961,-2,10,22,0,-18,-22,-11,-4
13:44:48:317773,-7,-10,2,3,9,15,13,-2
13:44:48:318523,-7,-10,2,3,9,15,13,-2
13:44:48:324482,-1,-3,0,17,13,10,14,1
13:44:48:332104,-3,-30,-9,1,6,-7,-6,-2
13:44:48:339532,-3,-30,-9,1,6,-7,-6,-2
13:44:48:347067,-1,-4,-26,-22,-18,-20,-22,-2
13:44:48:354539,-3,2,-3,18,-5,-1,18,6
13:44:48:370283,-3,2,-3,18,-5,-1,18,6
13:44:48:371016,-2,-1,21,16,10,8,19,-2
13:44:48:377662,0,-5,7,0,-8,-18,-26,0
13:44:48:378467,0,-5,7,0,-8,-18,-26,0
13:44:48:384568,-1,-2,0,-4,-12,-13,-8,3
13:44:48:392023,1,5,20,9,22,12,-2,-4
13:44:48:399654,1,5,20,9,22,12,-2,-4
13:44:48:406985,-6,-40,-1,-13,-11,-7,0,-5
13:44:48:414486,-7,-19,-14,-16,-12,6,26,-6
13:44:48:422063,-7,-19,-14,-16,-12,6,26,-6
13:44:48:429582,-5,-14,-5,8,5,-8,-33,-2
13:44:48:437730,6,-3,5,5,1,6,28,11
13:44:48:438533,6,-3,5,5,1,6,28,11
13:44:48:444527,-9,1,-5,1,-1,1,20,-5
13:44:48:460182,-2,20,-1,-1,13,0,-34,-12
13:44:48:460999,-2,20,-1,-1,13,0,-34,-12
13:44:48:467047,4,6,24,15,1,0,4,-1
13:44:48:474471,-2,-1,8,-17,-19,-4,-3,-5
13:44:48:482140,-2,-1,8,-17,-19,-4,-3,-5
13:44:48:489524,3,14,38,-11,-10,-22,-10,1
13:44:48:497781,-1,-4,5,4,-4,-3,-18,-3
13:44:48:498576,-1,-4,5,4,-4,-3,-18,-3
13:44:48:504522,0,-35,-4,7,1,8,11,8
13:44:48:520245,-3,-9,-5,-12,-7,-10,2,1
13:44:48:521023,-3,-9,-5,-12,-7,-10,2,1
13:44:48:526970,2,11,-4,0,23,15,-13,-1
13:44:48:534573,-7,8,-10,16,5,-21,-26,-17
13:44:48:542083,-7,8,-10,16,5,-21,-26,-17
13:44:48:549627,-1,9,-9,-10,6,7,-7,2
13:44:48:557658,0,-1,22,5,-2,1,-5,1
13:44:48:558445,0,-1,22,5,-2,1,-5,1
13:44:48:564576,0,4,22,13,-18,-10,-2,-5
13:44:48:580275,-4,8,-11,4,0,0,-13,-2
13:44:48:581056,-4,8,-11,4,0,0,-13,-2
13:44:48:587038,-1,3,-30,-25,2,-1,-1,3
13:44:48:594576,-5,-36,3,-16,1,1,2,13
13:44:48:602116,-5,-36,3,-16,1,1,2,13
13:44:48:609543,-1,13,-6,3,-20,-21,-21,-4
13:44:48:617793,-1,-11,-13,4,-26,-15,-8,-8
13:44:48:618532,-1,-11,-13,4,-26,-15,-8,-8
13:44:48:624500,0,-3,6,10,5,14,0,4
13:44:48:640194,-7,-3,22,39,17,13,-2,6
13:44:48:641017,-7,-3,22,39,17,13,-2,6
13:44:48:647015,-1,9,-12,-16,-18,-22,1,-4
13:44:48:654526,-1,-13,5,7,11,16,-3,-1
13:44:48:662034,-1,-13,5,7,11,16,-3,-1
13:44:48:669530,-1,5,-5,12,7,-6,6,5
13:44:48:677697,-1,2,31,7,7,-1,-17,2
13:44:48:678479,-1,2,31,7,7,-1,-17,2
13:44:48:684643,3,17,16,-1,-4,5,14,-5
13:44:48:700307,-5,-21,-25,-7,5,6,-3,6
13:44:48:701032,-5,-21,-25,-7,5,6,-3,6
13:44:48:706968,-9,-16,-28,-4,0,7,10,6
13:44:48:714571,-5,-16,-29,-18,-12,-12,-3,-8
13:44:48:722070,-5,-16,-29,-18,-12,-12,-3,-8
13:44:48:729579,-2,2,-14,-13,-4,-6,3,-7
13:44:48:737753,4,36,27,-4,-1,-8,7,-9
13:44:48:738543,4,36,27,-4,-1,-8,7,-9
13:44:48:744527,0,-8,40,30,-9,-16,-27,-11
13:44:48:760173,8,13,8,2,14,6,21,9
13:44:48:760990,8,13,8,2,14,6,21,9
13:44:48:767031,-1,0,-17,-16,-8,-2,-4,-4
13:44:48:774482,-4,6,1,4,-16,-7,5,-5
13:44:48:782159,-4,6,1,4,-16,-7,5,-5
13:44:48:789497,-1,2,23,-11,6,7,7,2
13:44:48:797766,1,6,-7,-6,-5,-1,9,4
13:44:48:798501,1,6,-7,-6,-5,-1,9,4
13:44:48:804524,7,-14,-16,-8,4,2,11,-9
13:44:48:820725,-2,-14,-9,-7,3,22,4,1
13:44:48:821521,-2,-14,-9,-7,3,22,4,1
13:44:48:827032,-5,8,-10,-6,-4,-3,1,2
13:44:48:834558,2,14,-3,-3,-7,-17,-24,0
13:44:48:842059,2,14,-3,-3,-7,-17,-24,0
13:44:48:849583,0,-4,-7,1,21,41,72,7
13:44:48:857664,-12,-6,2,-2,-5,-8,-4,-7
13:44:48:858525,-12,-6,2,-2,-5,-8,-4,-7
13:44:48:864572,5,46,19,8,5,-6,-17,2
13:44:48:880248,2,-49,-23,1,-2,-2,-4,-3
13:44:48:880973,2,-49,-23,1,-2,-2,-4,-3
13:44:48:887047,-2,-10,-21,-8,-4,-6,-12,8
13:44:48:894570,1,6,-11,-14,12,-16,-18,-6
13:44:48:902156,1,6,-11,-14,12,-16,-18,-6
13:44:48:909529,-3,-25,-21,-2,-3,-9,-20,-3
13:44:48:917775,3,10,-5,-5,-12,4,7,2
13:44:48:918512,3,10,-5,-5,-12,4,7,2
13:44:48:924488,1,12,19,3,-3,-4,-9,-6
13:44:48:940215,0,-3,-10,-12,9,9,10,1
13:44:48:940993,0,-3,-10,-12,9,9,10,1
13:44:48:947089,-2,43,56,48,-4,-14,-9,-4
13:44:48:954533,-2,16,-9,0,-6,16,2,4
13:44:48:962048,-2,16,-9,0,-6,16,2,4
13:44:48:969500,-1,-7,-41,-20,-11,11,30,1
13:44:48:977703,-4,-13,-20,-7,0,2,-4,-6
13:44:48:978515,-4,-13,-20,-7,0,2,-4,-6
13:44:48:984552,-7,-73,-13,-2,-8,-26,-26,-6
13:44:49:265,2,7,20,16,23,6,-8,-2
13:44:49:993,2,7,20,16,23,6,-8,-2
13:44:49:6987,-4,-19,-3,-25,-17,10,29,-3
13:44:49:14525,12,25,6,0,0,-47,-62,-13
13:44:49:22111,12,25,6,0,0,-47,-62,-13
13:44:49:29515,-1,-20,-7,-6,14,-28,-53,-7
13:44:49:37709,7,25,47,9,-3,-1,29,15
13:44:49:38528,7,25,47,9,-3,-1,29,15
13:44:49:44548,4,15,-40,-6,5,9,0,3
13:44:49:60243,0,-8,-6,-1,-15,-16,-5,-6
13:44:49:60994,0,-8,-6,-1,-15,-16,-5,-6
13:44:49:67113,4,19,37,18,8,18,5,0
13:44:49:74490,0,7,-30,14,11,10,-14,1
13:44:49:82123,0,7,-30,14,11,10,-14,1
13:44:49:89513,3,25,9,23,21,15,46,7
13:44:49:97716,-4,-32,-6,-21,-21,1,-31,1
13:44:49:98525,-4,-32,-6,-21,-21,1,-31,1
13:44:49:104560,-2,1,-2,1,1,-3,-7,-4
13:44:49:120264,-5,-15,-9,-5,6,4,5,-3
13:44:49:121035,-5,-15,-9,-5,6,4,5,-3
13:44:49:127003,-3,-18,9,-24,-26,-10,-10,-5
13:44:49:134623,-6,-18,-1,-6,-1,12,19,-1
13:44:49:142072,-6,-18,-1,-6,-1,12,19,-1
13:44:49:149586,-7,-8,-12,-6,-5,-4,-10,-9
13:44:49:157663,5,55,-1,-4,-13,-4,25,-2
13:44:49:158464,5,55,-1,-4,-13,-4,25,-2
13:44:49:164582,18,26,3,-21,-7,-22,-10,8
13:44:49:180218,18,26,3,-21,-7,-22,-10,8
13:44:49:180964,-5,-15,1,0,12,13,10,1
13:44:49:187071,-5,10,-6,12,26,7,-13,-29
13:44:49:202833,-5,10,-6,12,26,7,-13,-29
13:44:49:203525,-10,13,-3,-2,-11,-19,37,8
13:44:49:209521,-1,-24,1,9,-6,1,2,10
13:44:49:217785,-1,-24,1,9,-6,1,2,10
13:44:49:218480,-5,-18,-21,-8,-3,5,-9,-13
13:44:49:224511,1,3,3,-6,6,14,-5,-21
13:44:49:240229,1,3,3,-6,6,14,-5,-21
13:44:49:241000,-2,-23,-7,13,13,22,38,13
13:44:49:247107,-31,0,21,-1,-15,-13,26,18
13:44:49:262808,-31,0,21,-1,-15,-13,26,18
13:44:49:263542,-7,0,24,-11,0,-2,-31,-44
13:44:49:269531,0,-36,19,7,-4,2,9,5
13:44:49:277820,0,-36,19,7,-4,2,9,5
13:44:49:278523,-6,-24,-43,2,-6,-15,-1,32
13:44:49:284637,-9,-17,-33,-21,-7,3,14,17
13:44:49:300314,-9,-17,-33,-21,-7,3,14,17
13:44:49:301032,27,10,-9,-15,8,9,19,11
13:44:49:307016,13,-7,-12,-5,-5,8,-24,-7
13:44:49:322747,13,-7,-12,-5,-5,8,-24,-7
13:44:49:323483,1,-4,18,3,6,-4,-18,-16
13:44:49:329606,-12,-3,-34,-4,-11,-7,82,26
13:44:49:337760,-12,-3,-34,-4,-11,-7,82,26
13:44:49:338551,-14,-6,17,3,-22,-41,-114,-74
13:44:49:344502,10,-9,2,22,11,2,-27,-13
13:44:49:360224,10,-9,2,22,11,2,-27,-13
13:44:49:360995,23,55,14,10,-1,8,54,29
13:44:49:367083,-3,29,-10,0,18,25,8,0
13:44:49:382791,-3,29,-10,0,18,25,8,0
13:44:49:383508,8,9,-11,6,3,-8,12,18
13:44:49:389522,-3,5,-6,-1,-10,0,3,-3
13:44:49:397774,-3,5,-6,-1,-10,0,3,-3
13:44:49:398529,-5,-50,-53,-27,-17,5,47,14
13:44:49:412644,10,20,7,-25,1,-5,19,22
13:44:49:420254,10,20,7,-25,1,-5,19,22
13:44:49:421033,-20,-47,13,14,6,-4,13,15
13:44:49:426983,-8,-22,-66,5,11,-15,-95,-50
13:44:49:442710,-8,-22,-66,5,11,-15,-95,-50
13:44:49:443492,-16,-2,5,-20,-16,-18,-35,-16
13:44:49:449576,7,-13,14,-7,-18,10,53,25
13:44:49:457732,7,-13,14,-7,-18,10,53,25
13:44:49:458521,-7,15,14,7,12,8,30,-20
13:44:49:472052,-5,-48,25,10,5,-11,1,19
13:44:49:480250,-5,-48,25,10,5,-11,1,19
13:44:49:481028,-18,17,1,-13,-4,9,-36,5
13:44:49:486981,26,-20,6,15,-4,-4,-6,-9
13:44:49:502763,26,-20,6,15,-4,-4,-6,-9
13:44:49:503471,-19,17,27,-13,-16,3,-19,-45
13:44:49:509512,-3,14,-63,10,2,2,-41,-9
13:44:49:517857,-3,14,-63,10,2,2,-41,-9
13:44:49:518510,20,4,-5,7,15,13,47,43
13:44:49:532102,7,9,14,-5,-4,-2,7,0
13:44:49:540204,7,9,14,-5,-4,-2,7,0
13:44:49:541013,35,2,21,5,-1,7,12,8
13:44:49:547063,17,17,56,6,-2,9,29,-4
13:44:49:562820,17,17,56,6,-2,9,29,-4
13:44:49:563485,-8,45,-8,11,1,-11,-25,-3
13:44:49:569528,5,9,-3,-13,-4,-6,18,33
13:44:49:577710,5,9,-3,-13,-4,-6,18,33
13:44:49:578487,10,2,-6,-6,-8,-10,2,-4
13:44:49:592049,-17,6,43,1,4,-11,-39,-21
13:44:49:600287,-17,6,43,1,4,-11,-39,-21
13:44:49:601001,5,27,35,3,-1,0,-1,14
13:44:49:607001,-2,-7,4,-4,9,13,-13,-30
13:44:49:622699,-2,-7,4,-4,9,13,-13,-30
13:44:49:623453,13,-39,-14,-4,3,-37,-33,6
13:44:49:629602,-16,20,-19,8,1,17,67,14
13:44:49:637731,-16,20,-19,8,1,17,67,14
13:44:49:638495,-17,-38,-35,7,-3,10,42,25
13:44:49:652127,-4,56,29,2,-20,-23,-5,13
13:44:49:660178,-4,56,29,2,-20,-23,-5,13
13:44:49:660993,-12,-3,22,25,3,0,-24,-4
13:44:49:667136,-5,5,37,8,7,1,19,3
13:44:49:682771,-5,5,37,8,7,1,19,3
13:44:49:683537,28,7,23,20,10,15,5,-4
13:44:49:689522,3,-20,-20,-7,9,20,53,-8
13:44:49:697740,3,-20,-20,-7,9,20,53,-8
13:44:49:698489,7,1,-19,-13,-16,25,54,13
13:44:49:711992,-15,-12,-31,-21,0,-7,-63,-21
13:44:49:720229,-15,-12,-31,-21,0,-7,-63,-21
13:44:49:721051,-31,-4,-2,-32,1,-8,-34,-35
13:44:49:726992,-27,-1,-27,-24,-18,-14,-10,10
13:44:49:742719,-27,-1,-27,-24,-18,-14,-10,10
13:44:49:743510,-17,10,-26,-7,5,-2,0,6
13:44:49:749528,12,17,-1,49,10,1,-17,-1
13:44:49:757738,12,17,-1,49,10,1,-17,-1
13:44:49:758539,5,-17,8,-2,-5,-9,-19,-12
13:44:49:772054,6,-14,26,9,15,52,42,15
13:44:49:780279,6,-14,26,9,15,52,42,15
13:44:49:781044,14,7,-12,11,12,34,61,15
13:44:49:786997,-1,7,-15,-13,-12,-18,-30,-15
13:44:49:802757,-1,7,-15,-13,-12,-18,-30,-15
13:44:49:803545,3,-1,16,1,4,-10,-33,-7
13:44:49:809488,14,9,-15,-7,-11,-26,-56,-20
13:44:49:817824,14,9,-15,-7,-11,-26,-56,-20
13:44:49:818567,-19,-14,8,5,3,-17,-58,-17
13:44:49:831998,2,-11,-47,-17,-1,9,24,4
13:44:49:840228,2,-11,-47,-17,-1,9,24,4
13:44:49:841006,16,-2,-9,2,1,-4,-27,-4
13:44:49:847051,-19,3,46,-10,0,-22,-29,-8
13:44:49:862825,-19,3,46,-10,0,-22,-29,-8
13:44:49:863559,-3,24,13,-14,-13,-9,-11,-9
13:44:49:869547,0,-18,14,-15,-9,-3,-1,-9
13:44:49:877752,0,-18,14,-15,-9,-3,-1,-9
13:44:49:878527,-2,-23,-1,8,-1,6,31,9
13:44:49:891998,9,0,7,-4,-7,-15,-30,6
13:44:49:900334,9,0,7,-4,-7,-15,-30,6
13:44:49:901022,-7,-3,-14,6,15,23,15,-7
13:44:49:907011,-3,-18,-19,-2,-22,-14,-21,3
13:44:49:922728,-3,-18,-19,-2,-22,-14,-21,3
13:44:49:923506,0,5,6,-9,-12,-11,-28,-6
13:44:49:929535,5,-27,-35,5,22,6,37,10
13:44:49:937774,5,-27,-35,5,22,6,37,10
13:44:49:938521,-32,-54,-44,2,-7,-10,-2,-4
13:44:49:952109,-9,12,3,4,-4,-2,-1,-3
13:44:49:960227,-9,12,3,4,-4,-2,-1,-3
13:44:49:961000,-2,20,13,-2,-16,13,70,-2
13:44:49:967113,-7,4,10,7,17,11,0,17
13:44:49:982793,-7,4,10,7,17,11,0,17
13:44:49:983497,13,7,-7,-6,-6,-18,-30,-13
13:44:49:989497,9,22,2,0,-9,-24,-22,-9
13:44:49:997741,9,22,2,0,-9,-24,-22,-9
13:44:49:998482,12,24,26,-9,-6,6,20,14
13:44:50:12003,1,10,4,-19,-7,-4,9,-10
13:44:50:20240,1,10,4,-19,-7,-4,9,-10
13:44:50:21001,16,7,17,5,8,-5,-10,11
13:44:50:26966,5,32,-4,2,-4,15,0,0
13:44:50:42756,5,32,-4,2,-4,15,0,0
13:44:50:43490,10,12,-1,-2,1,-1,-36,-24
13:44:50:49598,-4,11,-8,6,5,-1,6,0
13:44:50:57731,-4,11,-8,6,5,-1,6,0
13:44:50:58499,-15,-10,-27,-4,-1,-2,-11,6
13:44:50:72058,-5,-2,-16,1,-2,-7,-11,-15
13:44:50:80354,-5,-2,-16,1,-2,-7,-11,-15
13:44:50:80996,13,21,31,-12,0,-7,-3,9
13:44:50:87119,1,-39,-18,4,-7,7,19,0
13:44:50:102744,1,-39,-18,4,-7,7,19,0
13:44:50:103499,9,-20,-22,-1,-7,4,15,7
13:44:50:109516,-7,2,17,29,-10,-1,6,-1
13:44:50:117830,-7,2,17,29,-10,-1,6,-1
13:44:50:118550,-10,34,59,26,6,-4,2,-1
13:44:50:132051,5,-18,-5,-25,-2,-10,-43,1
13:44:50:140189,5,-18,-5,-25,-2,-10,-43,1
13:44:50:140963,-11,-11,-2,-15,2,6,61,-3
13:44:50:147074,1,-17,1,-8,-1,-1,18,-3
13:44:50:162807,1,-17,1,-8,-1,-1,18,-3
13:44:50:163536,1,-63,-23,-3,-3,-10,-41,6
13:44:50:169495,27,-6,-15,-6,-4,-10,2,-2
13:44:50:177703,27,-6,-15,-6,-4,-10,2,-2
13:44:50:178500,-9,-5,-26,32,12,2,6,5
13:44:50:192051,28,57,3,-20,11,12,-23,13
13:44:50:200309,28,57,3,-20,11,12,-23,13
13:44:50:201050,-8,2,-18,-19,-16,-19,-20,0
13:44:50:206971,0,-12,1,-7,6,-5,-49,-10
13:44:50:222745,0,-12,1,-7,6,-5,-49,-10
13:44:50:223484,-9,12,-24,-1,-6,7,23,17
13:44:50:229610,-13,-21,9,12,2,1,24,3
13:44:50:237755,-13,-21,9,12,2,1,24,3
13:44:50:238533,-10,-14,-19,-7,12,15,4,-10
13:44:50:252056,-29,-3,34,15,12,-19,-15,-13
13:44:50:260251,-29,-3,34,15,12,-19,-15,-13
13:44:50:260978,-9,-12,5,6,-4,9,14,-8
13:44:50:267081,-13,-31,-22,-11,-2,2,2,-12
13:44:50:282824,-13,-31,-22,-11,-2,2,2,-12
13:44:50:283584,-4,2,11,-23,-14,-5,4,2
13:44:50:289531,-17,-68,-9,10,4,11,6,0
13:44:50:297153,-17,-68,-9,10,4,11,6,0
13:44:50:304544,7,-13,11,-4,-4,-13,-34,-8
13:44:50:312041,-3,-2,14,3,-9,-29,-36,-1
13:44:50:320218,-3,-2,14,3,-9,-29,-36,-1
13:44:50:320994,-7,20,12,4,0,-7,-22,-9
13:44:50:334571,-4,16,5,1,1,1,1,5
13:44:50:350983,-4,16,5,1,1,1,1,5
13:44:50:351681,12,8,-8,4,10,-10,17,-2
13:44:50:352490,9,15,-17,0,7,58,101,-2
13:44:50:357019,9,15,-17,0,7,58,101,-2
13:44:50:364514,6,6,12,6,1,9,-6,-3
13:44:50:372071,-18,18,25,10,-18,-29,-33,-20
13:44:50:380304,-18,18,25,10,-18,-29,-33,-20
13:44:50:381071,-10,-18,-48,-12,9,7,8,8
13:44:50:394563,-6,-2,-15,-15,-3,2,-6,-1
13:44:50:402812,-6,-2,-15,-15,-3,2,-6,-1
13:44:50:403493,5,-7,9,-5,-7,-19,-56,-20
13:44:50:409519,2,-8,13,-5,-6,5,-1,1
13:44:50:417174,2,-8,13,-5,-6,5,-1,1
13:44:50:424511,6,3,-35,-5,-6,-12,-2,12
13:44:50:432040,8,-4,27,-49,-5,2,12,10
13:44:50:440156,8,-4,27,-49,-5,2,12,10
13:44:50:440983,18,47,26,16,13,13,1,3
13:44:50:454524,-14,4,-33,-25,-18,-14,-11,-3
13:44:50:462822,-14,4,-33,-25,-18,-14,-11,-3
13:44:50:463522,-9,-7,23,12,-7,5,5,-9
13:44:50:469517,16,41,30,-20,-4,-5,-29,11
13:44:50:477058,16,41,30,-20,-4,-5,-29,11
13:44:50:484645,7,11,24,5,-3,2,27,13
13:44:50:492019,-21,-44,-42,20,4,0,20,-4
13:44:50:500359,-21,-44,-42,20,4,0,20,-4
13:44:50:500987,-8,-5,15,1,1,-2,37,-2
13:44:50:514563,27,16,22,21,19,27,43,19
13:44:50:522737,27,16,22,21,19,27,43,19
13:44:50:523495,-29,24,-3,3,0,-20,-36,-11
13:44:50:529560,-5,-2,-4,10,-15,-24,-5,-5
13:44:50:537092,-5,-2,-4,10,-15,-24,-5,-5
13:44:50:544528,5,-14,-6,1,11,4,10,8
13:44:50:552084,7,18,6,33,20,4,-16,-4
13:44:50:560215,7,18,6,33,20,4,-16,-4
13:44:50:560998,10,0,-9,12,-6,10,3,3
13:44:50:574570,5,-1,-51,3,-9,5,32,-2
13:44:50:582741,5,-1,-51,3,-9,5,32,-2
13:44:50:583504,2,-2,-13,-13,1,9,-18,-15
13:44:50:589508,3,5,0,4,1,-18,-41,-1
13:44:50:597122,3,5,0,4,1,-18,-41,-1
13:44:50:604559,2,16,-19,-9,-6,-11,-22,1
13:44:50:611975,-24,-30,5,-4,0,-4,-16,-5
13:44:50:620264,-24,-30,5,-4,0,-4,-16,-5
13:44:50:621041,-6,-9,-1,1,3,-1,5,-8
13:44:50:635312,-2,18,-1,-18,-3,16,28,2
13:44:50:636031,-2,18,-1,-18,-3,16,28,2
13:44:50:642003,-7,-11,6,-5,4,4,5,9
13:44:50:649586,7,9,-19,-1,-9,-4,-10,0
13:44:50:657094,7,9,-19,-1,-9,-4,-10,0
13:44:50:664527,19,17,-6,0,-5,11,19,-3
13:44:50:672045,5,25,21,1,5,-4,-13,1
13:44:50:680294,5,25,21,1,5,-4,-13,1
13:44:50:681089,-2,2,-14,-6,-9,-6,-1,2
13:44:50:695280,-8,-3,-14,1,9,6,-5,-23
13:44:50:696018,-8,-3,-14,1,9,6,-5,-23
13:44:50:702116,-6,-19,11,-32,-13,-12,-18,-7
13:44:50:709555,-10,0,17,9,2,27,58,4
13:44:50:717206,-10,0,17,9,2,27,58,4
13:44:50:724509,-3,-45,1,-4,-11,-8,-4,-11
13:44:50:732033,16,-16,12,-3,6,-19,-32,-2
13:44:50:740181,16,-16,12,-3,6,-19,-32,-2
13:44:50:740983,0,2,16,14,4,4,29,11
13:44:50:755199,8,-7,7,-3,-13,-8,1,-1
13:44:50:755983,8,-7,7,-3,-13,-8,1,-1
13:44:50:762008,-7,19,-16,26,-5,6,-6,5
13:44:50:769537,3,30,30,16,20,10,-17,-3
13:44:50:777045,3,30,30,16,20,10,-17,-3
13:44:50:784595,4,-14,-4,-21,-9,-10,-18,2
13:44:50:800948,-18,6,37,-3,-3,3,-1,6
13:44:50:801702,-18,6,37,-3,-3,3,-1,6
13:44:50:802483,5,-2,4,4,17,-12,-29,-3
13:44:50:815277,14,-12,-10,-5,-5,2,0,-1
13:44:50:816048,14,-12,-10,-5,-5,2,0,-1
13:44:50:822042,20,13,-13,-4,-1,28,23,12
13:44:50:829629,-17,-2,-19,-10,2,-15,-32,-9
13:44:50:845239,-17,-2,-19,-10,2,-15,-32,-9
13:44:50:846011,-21,-36,5,-5,-6,-9,-6,-6
13:44:50:852039,0,24,-7,9,16,-14,-4,-1
13:44:50:860224,0,24,-7,9,16,-14,-4,-1
13:44:50:861000,10,9,14,7,10,12,8,5
13:44:50:875241,11,-35,-23,-13,-12,-19,-8,3
13:44:50:876021,11,-35,-23,-13,-12,-19,-8,3
13:44:50:882059,2,7,-6,5,-2,-11,-8,-3
13:44:50:889523,0,-1,-24,1,-2,29,35,2
13:44:50:897196,0,-1,-24,1,-2,29,35,2
13:44:50:904551,9,3,3,4,-4,-8,-15,-13
13:44:50:912013,-16,-23,-13,-1,-6,-17,-28,-15
13:44:50:920235,-16,-23,-13,-1,-6,-17,-28,-15
13:44:50:921036,-11,-11,2,3,-6,-1,-15,-11
13:44:50:935264,10,2,41,8,11,7,19,24
13:44:50:935999,10,2,41,8,11,7,19,24
13:44:50:942027,-32,-1,6,-5,-9,-8,29,-6
13:44:50:949584,-10,-6,-8,-3,-13,-1,22,6
13:44:50:957065,-10,-6,-8,-3,-13,-1,22,6
13:44:50:964551,-5,2,-6,-1,5,14,28,4
13:44:50:972049,-4,6,17,21,19,8,-10,-5
13:44:50:980281,-4,6,17,21,19,8,-10,-5
13:44:50:980987,-9,-6,13,-9,-8,-9,-14,1
13:44:50:995181,8,-7,-20,-14,-7,-6,-23,-3
13:44:50:995991,8,-7,-20,-14,-7,-6,-23,-3
13:44:51:2136,15,-2,5,-4,1,19,20,4
13:44:51:9555,0,-6,-7,-7,-12,-12,-14,11
13:44:51:17182,0,-6,-7,-7,-12,-12,-14,11
13:44:51:24494,2,-2,-14,11,24,23,61,14
13:44:51:32047,14,10,-9,-22,-21,-11,-27,-2
13:44:51:40219,14,10,-9,-22,-21,-11,-27,-2
13:44:51:40983,2,1,3,-5,-13,-21,-42,-5
13:44:51:55212,12,10,24,14,16,59,112,14
13:44:51:55998,12,10,24,14,16,59,112,14
13:44:51:61983,1,-3,-14,-5,-3,-11,-15,3
13:44:51:69532,-17,-17,-27,-4,-10,-17,-38,-16
13:44:51:77049,-17,-17,-27,-4,-10,-17,-38,-16
13:44:51:84603,3,1,17,-4,-6,-9,-31,-2
13:44:51:92039,-1,-11,-3,-11,-8,5,12,-7
13:44:51:100346,-1,-11,-3,-11,-8,5,12,-7
13:44:51:101065,15,-4,8,19,8,0,-13,4
13:44:51:115162,-4,-7,-16,19,5,-11,-4,-7
13:44:51:116002,-4,-7,-16,19,5,-11,-4,-7
13:44:51:121997,-25,-5,-42,-5,0,-15,22,-19
13:44:51:129613,-17,8,2,28,11,-13,-54,-25
13:44:51:137099,-17,8,2,28,11,-13,-54,-25
13:44:51:144593,-11,-26,22,-4,1,0,-26,-10
13:44:51:152110,5,-6,-11,-2,-4,-9,5,0
13:44:51:160226,5,-6,-11,-2,-4,-9,5,0
13:44:51:161003,-15,25,34,6,-8,-12,-25,0
13:44:51:175237,14,-14,-5,12,9,-2,-10,1
13:44:51:176022,14,-14,-5,12,9,-2,-10,1
13:44:51:182092,-3,-12,-13,-7,3,7,0,-4
13:44:51:189526,-4,25,19,-1,-7,0,-17,2
13:44:51:197167,-4,25,19,-1,-7,0,-17,2
13:44:51:204525,7,8,4,-5,-6,7,-2,1
13:44:51:212007,-6,-9,-12,-11,1,-1,30,11
13:44:51:220226,-6,-9,-12,-11,1,-1,30,11
13:44:51:221012,0,-4,-10,-9,-3,-16,-36,-21
13:44:51:235244,-7,14,6,-19,-12,-13,-15,-7
13:44:51:235977,-7,14,6,-19,-12,-13,-15,-7
13:44:51:242024,1,0,-28,-15,-11,-2,22,7
13:44:51:257727,11,-9,-2,-11,6,14,0,1
13:44:51:258551,11,-9,-2,-11,6,14,0,1
13:44:51:264562,-13,15,-11,9,13,12,-32,-1
13:44:51:272038,-16,1,-2,-16,-9,-12,5,-7
13:44:51:279686,-16,1,-2,-16,-9,-12,5,-7
13:44:51:287002,8,-14,-14,11,-17,-5,5,1
13:44:51:295186,15,-5,18,4,-1,-1,3,3
13:44:51:296006,15,-5,18,4,-1,-1,3,3
13:44:51:302149,-3,-9,-8,-7,18,22,63,13
13:44:51:317771,-9,-17,5,6,-2,-10,-6,-21
13:44:51:318540,-9,-17,5,6,-2,-10,-6,-21
13:44:51:324466,-2,-10,-15,-7,-2,-14,-43,-1
13:44:51:332109,-9,7,-20,-6,-3,0,-13,6
13:44:51:339568,-9,7,-20,-6,-3,0,-13,6
13:44:51:347030,20,23,1,1,-1,18,31,9
13:44:51:355189,3,-8,-11,-29,5,7,-2,-6
13:44:51:355993,3,-8,-11,-29,5,7,-2,-6
13:44:51:361978,5,8,-13,14,4,3,10,0
13:44:51:377690,11,3,7,6,-6,5,-16,-1
13:44:51:378498,11,3,7,6,-6,5,-16,-1
13:44:51:384601,5,-29,-6,-14,-1,15,32,-2
13:44:51:392056,6,13,-29,-5,-9,-12,38,11
13:44:51:399600,6,13,-29,-5,-9,-12,38,11
13:44:51:406981,-11,6,54,11,-5,-16,-24,-6
13:44:51:415207,-12,4,-1,8,6,-6,-21,-3
13:44:51:416018,-12,4,-1,8,6,-6,-21,-3
13:44:51:421998,1,2,12,19,11,-5,2,2
13:44:51:437710,-17,-21,-10,-7,8,4,-11,-1
13:44:51:438480,-17,-21,-10,-7,8,4,-11,-1
13:44:51:444523,-16,13,10,3,-5,3,3,-9
13:44:51:452025,-8,18,-14,6,-7,-5,6,2
13:44:51:459592,-8,18,-14,6,-7,-5,6,2
13:44:51:467033,-20,-13,-41,-20,3,-6,-5,-1
13:44:51:475203,-15,-1,-2,0,3,42,54,0
13:44:51:476031,-15,-1,-2,0,3,42,54,0
13:44:51:482073,20,30,-23,-28,-2,19,14,-8
13:44:51:497751,0,-11,10,-6,-8,-12,-4,-4
13:44:51:498536,0,-11,10,-6,-8,-12,-4,-4
13:44:51:504532,15,5,6,11,1,-4,-8,9
13:44:51:512002,6,24,-32,18,-4,-10,-11,-3
13:44:51:519614,6,24,-32,18,-4,-10,-11,-3
13:44:51:527007,-6,-35,21,35,21,-8,-10,-3
13:44:51:535235,6,-20,17,8,3,8,1,9
13:44:51:535966,6,-20,17,8,3,8,1,9
13:44:51:542025,25,33,17,-12,-9,1,-3,12
13:44:51:557720,6,-5,10,5,12,11,31,5
13:44:51:558536,6,-5,10,5,12,11,31,5
13:44:51:564595,-22,-11,-32,-13,-15,-3,7,-4
13:44:51:572061,-7,-27,-57,-29,-6,-17,-20,-1
13:44:51:579621,-7,-27,-57,-29,-6,-17,-20,-1
13:44:51:587050,3,1,34,2,-8,-1,7,-6
13:44:51:595199,-18,2,24,3,2,19,7,-12
13:44:51:596034,-18,2,24,3,2,19,7,-12
13:44:51:602075,-7,-5,-8,2,11,2,-25,-14
13:44:51:617757,19,5,6,-10,-16,-10,-32,-2
13:44:51:618528,19,5,6,-10,-16,-10,-32,-2
13:44:51:624517,-13,5,-1,13,-4,-11,-2,-5
13:44:51:632020,2,-15,3,-1,-7,-32,-32,-1
13:44:51:639569,2,-15,3,-1,-7,-32,-32,-1
13:44:51:647043,-6,-25,-17,-15,-1,5,10,-1
13:44:51:655223,14,12,20,14,16,6,-2,1
13:44:51:656015,14,12,20,14,16,6,-2,1
13:44:51:662020,11,-10,-33,-11,-16,-24,-12,-3
13:44:51:677723,-11,-2,-28,-5,-9,4,-11,-18
13:44:51:678495,-11,-2,-28,-5,-9,4,-11,-18
13:44:51:684565,10,16,-14,-12,-4,1,-10,10
13:44:51:692001,-4,-3,28,8,16,1,11,3
13:44:51:699627,-4,-3,28,8,16,1,11,3
13:44:51:706983,-7,16,1,-3,-7,-8,2,1
13:44:51:715206,-3,14,18,-6,-12,-13,-6,1
13:44:51:716013,-3,14,18,-6,-12,-13,-6,1
13:44:51:722001,-1,-13,-9,1,1,7,14,3
13:44:51:737711,-4,0,-34,3,13,-4,-13,-10
13:44:51:738512,-4,0,-34,3,13,-4,-13,-10
13:44:51:744541,-6,0,18,-2,-12,-17,-8,-6
13:44:51:752058,0,-9,25,12,-2,-2,22,10
13:44:51:759604,0,-9,25,12,-2,-2,22,10
13:44:51:767096,13,13,-24,4,18,8,-1,1
13:44:51:775215,-3,13,19,-2,-1,10,15,10
13:44:51:776083,-3,13,19,-2,-1,10,15,10
13:44:51:782071,-16,-11,5,-13,-13,37,34,7
13:44:51:797765,10,13,-8,4,4,-19,-18,1
13:44:51:798525,10,13,-8,4,4,-19,-18,1
13:44:51:804546,0,23,10,-3,2,2,36,2
13:44:51:811999,-22,-9,10,2,-2,8,25,-1
13:44:51:819562,-22,-9,10,2,-2,8,25,-1
13:44:51:827031,-3,-9,10,-4,8,-5,-16,-2
13:44:51:835261,22,14,-10,18,-10,-11,-7,9
13:44:51:835967,22,14,-10,18,-10,-11,-7,9
13:44:51:842031,4,17,34,11,2,14,25,2
13:44:51:857710,-2,-20,-26,-26,-5,-1,10,-4
13:44:51:858518,-2,-20,-26,-26,-5,-1,10,-4
13:44:51:864545,14,-14,26,6,-4,2,-21,-3
13:44:51:872021,-4,11,47,4,-8,-20,1,-9
13:44:51:879612,-4,11,47,4,-8,-20,1,-9
13:44:51:887034,15,-11,-7,2,2,-1,29,10
13:44:51:895178,-12,-11,-14,-4,-3,6,-12,-2
13:44:51:895992,-12,-11,-14,-4,-3,6,-12,-2
13:44:51:902032,-24,-28,-6,3,-3,-5,-16,-12
13:44:51:917747,-4,-6,1,0,4,0,-6,-3
13:44:51:918499,-4,-6,1,0,4,0,-6,-3
13:44:51:924514,4,-17,-32,-11,1,-8,-24,-1
13:44:51:932128,5,5,1,-27,-12,-2,7,-2
13:44:51:939585,5,5,1,-27,-12,-2,7,-2
13:44:51:947014,-5,2,6,-14,-9,-18,-45,-7
13:44:51:955230,10,9,-24,1,3,-6,5,1
13:44:51:956030,10,9,-24,1,3,-6,5,1
13:44:51:962026,-14,5,5,4,6,-10,-14,-6
13:44:51:977762,2,-13,-1,6,8,14,5,2
13:44:51:978508,2,-13,-1,6,8,14,5,2
13:44:51:984629,-8,3,8,4,-6,-18,-9,-6
13:44:51:991997,-5,18,9,12,11,17,36,3
13:44:51:999618,-5,18,9,12,11,17,36,3
13:44:52:6996,0,-6,-25,16,-11,-24,-8,5
13:44:52:15246,-13,1,16,-1,-5,6,5,-5
13:44:52:16015,-13,1,16,-1,-5,6,5,-5
13:44:52:21999,7,35,-1,-20,-3,0,1,-1
13:44:52:37724,-3,-10,13,-3,0,2,-19,2
13:44:52:38529,-3,-10,13,-3,0,2,-19,2
13:44:52:44520,-19,3,-24,7,-1,5,5,-6
13:44:52:52053,-1,-8,-6,-2,-3,-10,-10,-2
13:44:52:59594,-1,-8,-6,-2,-3,-10,-10,-2
13:44:52:67080,11,-6,13,-1,9,2,-21,-1
13:44:52:75243,15,-1,-21,4,2,-4,14,-1
13:44:52:75995,15,-1,-21,4,2,-4,14,-1
13:44:52:82088,2,-20,4,11,2,10,12,12
13:44:52:97809,-1,-11,5,9,1,3,-19,5
13:44:52:98590,-1,-11,5,9,1,3,-19,5
13:44:52:104541,-3,-4,26,-18,-6,-6,-8,-7
13:44:52:112021,-10,-18,-29,0,-9,0,-15,2
13:44:52:119623,-10,-18,-29,0,-9,0,-15,2
13:44:52:127033,1,-8,19,8,22,20,15,-7
13:44:52:135249,-13,7,28,-9,-4,-4,-23,-14
13:44:52:135981,-13,7,28,-9,-4,-4,-23,-14
13:44:52:142035,10,14,27,11,-4,-1,13,9
13:44:52:157726,-4,7,10,-1,-8,8,17,-6
13:44:52:158537,-4,7,10,-1,-8,8,17,-6
13:44:52:164532,-5,-3,-15,1,0,-17,-33,-4
13:44:52:172044,4,-10,-5,10,3,-3,-3,4
13:44:52:179637,4,-10,-5,10,3,-3,-3,4
13:44:52:187070,-1,-3,2,-12,-10,-4,-10,-8
13:44:52:195182,4,2,15,4,-12,-12,-2,6
13:44:52:196004,4,2,15,4,-12,-12,-2,6
13:44:52:209510,3,-3,-29,-28,3,5,18,4
13:44:52:217759,-5,-7,-26,-23,4,3,14,3
13:44:52:218501,-5,-7,-26,-23,4,3,14,3
13:44:52:224511,6,19,-3,-7,-3,18,33,-1
13:44:52:240146,1,2,14,1,-3,-3,-9,-4
13:44:52:240952,1,2,14,1,-3,-3,-9,-4
13:44:52:247067,7,-2,-15,21,0,-9,-13,5
13:44:52:255174,17,-2,-8,-7,9,-3,-36,-1
13:44:52:256005,17,-2,-8,-7,9,-3,-36,-1
13:44:52:269595,1,-27,-20,-1,-11,-1,0,1
13:44:52:277704,-3,13,-24,15,-10,-13,-12,-7
13:44:52:278483,-3,13,-24,15,-10,-13,-12,-7
13:44:52:284559,-5,-5,-36,-11,1,3,7,4
13:44:52:300307,6,-17,-6,-21,-13,-19,-12,-3
13:44:52:301025,6,-17,-6,-21,-13,-19,-12,-3
13:44:52:307001,-16,0,23,1,-6,-6,-5,-13
13:44:52:315212,-28,-8,20,6,8,5,2,-4
13:44:52:315967,-28,-8,20,6,8,5,2,-4
13:44:52:329630,14,-8,17,-1,-1,-11,-29,2
13:44:52:337754,12,4,-6,-15,-3,8,13,4
13:44:52:338564,12,4,-6,-15,-3,8,13,4
13:44:52:344600,4,-3,4,30,3,4,10,-1
13:44:52:360235,-15,-4,-4,-2,-9,8,5,-2
13:44:52:361030,-15,-4,-4,-2,-9,8,5,-2
13:44:52:367098,0,-5,-2,24,26,15,11,0
13:44:52:375173,-19,5,22,-8,-6,-3,-6,-7
13:44:52:375966,-19,5,22,-8,-6,-3,-6,-7
13:44:52:389555,-6,5,-7,-20,-14,2,4,0
13:44:52:397778,6,15,13,20,1,-8,-6,1
13:44:52:398533,6,15,13,20,1,-8,-6,1
13:44:52:404540,5,53,10,2,9,-3,1,1
13:44:52:420255,7,-12,-36,-9,10,7,4,-1
13:44:52:421008,7,-12,-36,-9,10,7,4,-1
13:44:52:426964,9,-23,3,-5,-2,-14,-18,-6
13:44:52:435300,-12,2,8,1,-9,-14,14,-6
13:44:52:436036,-12,2,8,1,-9,-14,14,-6
13:44:52:449595,-2,-7,2,3,1,9,1,8
13:44:52:457715,-2,-7,2,3,1,9,1,8
13:44:52:458521,10,-13,40,-4,14,8,18,1
13:44:52:464548,5,5,5,3,-13,-6,-8,-2
13:44:52:480316,5,5,5,3,-13,-6,-8,-2
13:44:52:481029,3,5,-13,7,-1,3,-5,0
13:44:52:487049,-9,25,38,3,-8,-4,7,5
13:44:52:495232,-9,25,38,3,-8,-4,7,5
13:44:52:496024,-23,-4,-3,2,-7,-1,8,-6
13:44:52:509554,1,-29,-14,9,7,3,8,-2
13:44:52:517841,1,-29,-14,9,7,3,8,-2
13:44:52:518528,-12,16,9,-8,-1,3,-13,2
13:44:52:524517,-8,12,27,1,-8,-8,-3,-18
13:44:52:540236,-8,12,27,1,-8,-8,-3,-18
13:44:52:541016,7,-7,-18,23,15,0,2,5
13:44:52:547019,-13,-25,-55,-3,3,-3,-11,-12
13:44:52:555288,-13,-25,-55,-3,3,-3,-11,-12
13:44:52:556061,-9,-2,-49,-7,-8,-16,-29,-13
13:44:52:569603,-13,-5,9,10,2,20,25,-2
13:44:52:577763,-13,-5,9,10,2,20,25,-2
13:44:52:578514,21,16,29,-9,11,15,17,15
13:44:52:584589,-2,12,19,-7,-1,3,22,2
13:44:52:600301,-2,12,19,-7,-1,3,22,2
13:44:52:600981,-2,1,1,10,-12,9,30,-2
13:44:52:606942,9,-6,-4,-17,-9,-14,-34,-2
13:44:52:615251,9,-6,-4,-17,-9,-14,-34,-2
13:44:52:615999,3,5,-20,2,3,-2,-7,-3
13:44:52:629632,-5,-3,-13,11,10,4,4,3
13:44:52:637713,-5,-3,-13,11,10,4,4,3
13:44:52:638512,4,-13,-5,-11,-8,9,18,-2
13:44:52:644563,-5,-5,-3,-10,-1,-2,-1,-5
13:44:52:660194,-5,-5,-3,-10,-1,-2,-1,-5
13:44:52:660973,33,4,29,26,-1,-13,8,9
13:44:52:667091,5,10,-1,-7,4,0,-17,3
13:44:52:675235,5,10,-1,-7,4,0,-17,3
13:44:52:675987,-5,9,10,0,-4,-1,-38,-11
13:44:52:689574,7,11,-63,-4,0,-4,23,0
13:44:52:697788,7,11,-63,-4,0,-4,23,0
13:44:52:698546,13,-5,30,-3,-3,-5,-8,2
13:44:52:704555,4,-3,1,0,-4,0,-9,8
13:44:52:720219,4,-3,1,0,-4,0,-9,8
13:44:52:721014,1,7,-15,-6,10,-16,-31,-3
13:44:52:727026,2,-3,19,-15,2,1,-5,-9
13:44:52:735297,2,-3,19,-15,2,1,-5,-9
13:44:52:736003,13,23,5,8,-1,-17,-46,-5
13:44:52:749599,-19,-9,0,-4,-9,-5,-22,-7
13:44:52:757679,-19,-9,0,-4,-9,-5,-22,-7
13:44:52:758566,-40,-57,-26,-23,1,-6,-23,-8
13:44:52:764583,-7,-17,24,-5,4,2,12,3
13:44:52:780291,-7,-17,24,-5,4,2,12,3
13:44:52:781030,3,2,-31,3,12,9,11,-1
13:44:52:787031,-1,-2,-4,2,-2,7,15,6
13:44:52:795179,-1,-2,-4,2,-2,7,15,6
13:44:52:795966,3,1,-4,-20,-15,-16,-32,0
13:44:52:809561,11,-9,-19,-3,-2,-4,-17,2
13:44:52:817852,11,-9,-19,-3,-2,-4,-17,2
13:44:52:818505,11,6,16,-1,-11,-6,10,8
13:44:52:824493,-19,-10,6,8,-1,10,21,-1
13:44:52:840228,-19,-10,6,8,-1,10,21,-1
13:44:52:841052,15,-2,-15,-5,-4,-3,5,2
13:44:52:847127,8,-20,-32,3,9,15,16,8
13:44:52:855214,8,-20,-32,3,9,15,16,8
13:44:52:856013,-12,-11,17,0,-7,-5,7,-4
13:44:52:869580,6,1,14,-24,-11,-21,-9,7
13:44:52:877773,6,1,14,-24,-11,-21,-9,7
13:44:52:878563,-6,-19,3,-21,-6,7,5,-2
13:44:52:884608,-4,5,15,22,5,-9,-25,-11
13:44:52:900282,-4,5,15,22,5,-9,-25,-11
13:44:52:901041,-19,-10,5,11,6,6,21,-2
13:44:52:907023,11,34,2,11,4,-2,-4,3
13:44:52:915317,11,34,2,11,4,-2,-4,3
13:44:52:916112,17,5,-11,2,0,13,52,0
13:44:52:929573,-1,49,15,-12,-8,-7,-2,3
13:44:52:937809,-1,49,15,-12,-8,-7,-2,3
13:44:52:938550,-2,0,9,2,-2,-12,-21,-6
13:44:52:944571,-1,-3,7,5,-4,-6,-5,-6
13:44:52:960213,-1,-3,7,5,-4,-6,-5,-6
13:44:52:960998,2,38,15,7,-5,-2,-7,1
13:44:52:967022,-10,-13,-15,-20,-1,-3,-9,-5
13:44:52:975238,-10,-13,-15,-20,-1,-3,-9,-5
13:44:52:975997,23,21,-5,0,13,27,28,12
13:44:52:989555,-4,-18,5,-1,-6,-13,-12,-7
13:44:52:997767,-4,-18,5,-1,-6,-13,-12,-7
13:44:52:998491,-13,-14,19,32,1,-8,-20,-9
13:44:53:4571,-1,-35,-10,-10,-7,-2,-13,0
13:44:53:20259,-1,-35,-10,-10,-7,-2,-13,0
13:44:53:21036,-19,-18,-11,2,-4,-1,-12,-9
13:44:53:26972,-6,5,-25,9,11,-2,-9,-6
13:44:53:35317,-6,5,-25,9,11,-2,-9,-6
13:44:53:36030,-3,11,-28,-29,-16,0,17,-6
13:44:53:49586,5,3,-37,-2,-1,7,15,0
13:44:53:57701,5,3,-37,-2,-1,7,15,0
13:44:53:58502,-26,-6,-40,-19,-5,-6,-16,-2
13:44:53:64587,15,26,15,-4,-5,-4,-3,9
13:44:53:80324,15,26,15,-4,-5,-4,-3,9
13:44:53:80974,1,-9,24,0,-4,-11,-6,-4
13:44:53:86992,-6,17,21,-7,-10,-3,17,2
13:44:53:95194,-6,17,21,-7,-10,-3,17,2
13:44:53:96032,-1,-6,-31,17,19,14,11,7
13:44:53:109580,-4,-29,-6,4,-3,-7,-3,-8
13:44:53:117854,-4,-29,-6,4,-3,-7,-3,-8
13:44:53:118508,4,-6,17,-2,9,7,13,5
13:44:53:124534,-5,-12,5,-1,6,14,28,1
13:44:53:140218,-5,-12,5,-1,6,14,28,1
13:44:53:140952,-5,-19,3,-7,-13,-4,3,-5
13:44:53:147073,0,-28,9,-1,-3,1,5,-1
13:44:53:154589,0,-28,9,-1,-3,1,5,-1
13:44:53:162038,3,-5,-50,-36,-10,-4,1,-4
13:44:53:169554,5,-8,-18,-7,3,3,3,5
13:44:53:177732,5,-8,-18,-7,3,3,3,5
13:44:53:178488,2,-2,6,-4,1,-7,-31,4
13:44:53:191982,-18,10,5,-5,-1,6,21,5
13:44:53:200357,-18,10,5,-5,-1,6,21,5
13:44:53:201078,-1,16,9,13,7,-2,2,3
13:44:53:206986,-3,-7,10,0,-4,-2,-2,-2
13:44:53:214593,-3,-7,10,0,-4,-2,-2,-2
13:44:53:222035,11,14,4,-3,-6,-11,-13,-1
13:44:53:229633,0,-1,1,7,-3,-17,-19,-4
13:44:53:237766,0,-1,1,7,-3,-17,-19,-4
13:44:53:238549,21,9,-11,9,16,10,20,6
13:44:53:252063,-13,5,2,-1,-5,-4,-19,-18
13:44:53:260225,-13,5,2,-1,-5,-4,-19,-18
13:44:53:261038,-18,-3,-11,4,7,-2,19,-5
13:44:53:267141,12,9,18,6,-12,-15,-3,4
13:44:53:274578,12,9,18,6,-12,-15,-3,4
13:44:53:282063,-3,-10,21,-7,-3,2,-11,-3
13:44:53:289566,8,9,-3,1,4,10,1,-2
13:44:53:297736,8,9,-3,1,4,10,1,-2
13:44:53:298514,2,11,27,4,-2,19,17,-3
13:44:53:312032,-27,4,5,10,1,-5,-2,-7
13:44:53:320248,-27,4,5,10,1,-5,-2,-7
13:44:53:321035,-2,-15,-18,-4,-6,10,38,1
13:44:53:327013,9,10,-9,-19,-2,14,-7,-7
13:44:53:334678,9,10,-9,-19,-2,14,-7,-7
13:44:53:342013,5,3,29,-1,-6,-8,-43,-3
13:44:53:349649,6,4,6,3,-1,-12,-19,1
13:44:53:357712,6,4,6,3,-1,-12,-19,1
13:44:53:358514,-29,-12,-5,4,-6,-9,-5,-2
13:44:53:372038,-12,-7,-8,-8,1,-12,-13,-5
13:44:53:380257,-12,-7,-8,-8,1,-12,-13,-5
13:44:53:381004,3,-13,-79,-19,-7,-13,-6,-4
13:44:53:387058,6,-11,-18,-23,-1,-5,-18,4
13:44:53:394602,6,-11,-18,-23,-1,-5,-18,4
13:44:53:402031,12,3,13,1,-2,10,24,16
13:44:53:409539,-14,-5,-18,-9,-3,7,-16,-13
13:44:53:417765,-14,-5,-18,-9,-3,7,-16,-13
13:44:53:418554,19,17,11,4,-10,-21,-17,2
13:44:53:432075,16,16,-16,5,-3,1,22,4
13:44:53:440221,16,16,-16,5,-3,1,22,4
13:44:53:440981,-18,4,26,6,2,8,24,-7
13:44:53:447088,1,25,6,8,-1,-2,-18,5
13:44:53:454610,1,25,6,8,-1,-2,-18,5
13:44:53:461972,18,19,11,-6,3,-6,-27,-7
13:44:53:469544,0,-12,-28,-5,-2,-5,20,0
13:44:53:477747,0,-12,-28,-5,-2,-5,20,0
13:44:53:478502,-4,-3,22,2,5,11,-5,8
13:44:53:491967,-4,-7,-1,4,-6,11,25,4
13:44:53:500286,-4,-7,-1,4,-6,11,25,4
13:44:53:500968,-16,-10,-15,-4,-6,-8,-4,-4
13:44:53:506962,-1,-8,-8,5,16,16,34,-2
13:44:53:514651,-1,-8,-8,5,16,16,34,-2
13:44:53:522012,0,6,-4,17,-4,15,11,6
13:44:53:529613,10,9,27,6,0,2,-3,-2
13:44:53:537775,10,9,27,6,0,2,-3,-2
13:44:53:538533,-4,-13,17,0,4,4,13,-1
13:44:53:552076,-1,-32,4,-1,2,-9,2,-4
13:44:53:560223,-1,-32,4,-1,2,-9,2,-4
13:44:53:561000,-6,1,29,4,4,-20,-34,-9
13:44:53:567091,6,-5,9,-13,-10,-8,-16,2
13:44:53:574585,6,-5,9,-13,-10,-8,-16,2
13:44:53:582016,15,-5,-14,4,25,17,-5,-4
13:44:53:589515,-13,-7,1,-1,-2,-9,15,4
13:44:53:597724,-13,-7,1,-1,-2,-9,15,4
13:44:53:598490,-20,-4,-16,-4,-9,-6,6,-1
13:44:53:612014,6,8,19,9,0,-5,-38,1
13:44:53:620250,6,8,19,9,0,-5,-38,1
13:44:53:621043,-10,-10,-17,-13,-13,-8,-10,-1
13:44:53:627018,3,1,16,7,13,10,9,5
13:44:53:634629,3,1,16,7,13,10,9,5
13:44:53:642033,10,49,1,2,3,8,11,-5
13:44:53:649633,-18,-11,-20,-5,-18,-8,-15,-13
13:44:53:657701,-18,-11,-20,-5,-18,-8,-15,-13
13:44:53:658493,-18,-8,-57,-7,-3,-8,44,-7
13:44:53:672048,7,25,7,16,10,-3,-18,3
13:44:53:680316,7,25,7,16,10,-3,-18,3
13:44:53:680996,12,-1,18,-3,-5,-8,-37,2
13:44:53:687064,-7,-35,-22,-2,12,14,-22,-20
13:44:53:694590,-7,-35,-22,-2,12,14,-22,-20
13:44:53:702084,14,5,44,5,-3,8,22,7
13:44:53:709531,0,-19,-42,9,-3,-10,-4,6
13:44:53:718225,0,-19,-42,9,-3,-10,-4,6
13:44:53:724533,38,31,2,-4,11,15,-12,15
13:44:53:731995,-8,10,14,-17,4,21,39,6
13:44:53:740196,-8,10,14,-17,4,21,39,6
13:44:53:741043,-42,-48,-11,-13,-10,2,12,-8
13:44:53:747083,0,16,13,-10,-8,-7,0,1
13:44:53:754540,0,16,13,-10,-8,-7,0,1
13:44:53:762027,0,-21,31,-7,-5,-7,-15,-6
13:44:53:769576,-2,25,6,3,2,-8,4,4
13:44:53:777753,-2,25,6,3,2,-8,4,4
13:44:53:778504,2,6,-17,0,-11,-6,22,-5
13:44:53:791989,-4,-12,-5,-5,-3,0,8,4
13:44:53:800292,-4,-12,-5,-5,-3,0,8,4
13:44:53:801041,-5,-24,-1,5,6,0,2,-3
13:44:53:806963,-8,-5,8,-16,0,-8,2,-5
13:44:53:814581,-8,-5,8,-16,0,-8,2,-5
13:44:53:822054,-6,4,5,5,-9,16,7,-3
13:44:53:829631,8,5,-4,-9,9,8,-2,1
13:44:53:837738,8,5,-4,-9,9,8,-2,1
13:44:53:838542,-25,-27,-15,-11,-9,-11,-7,0
13:44:53:852102,2,-7,-2,-9,-11,-9,-9,-2
13:44:53:860179,2,-7,-2,-9,-11,-9,-9,-2
13:44:53:860998,5,0,-40,-7,3,-2,-7,-2
13:44:53:867085,-10,-20,-14,-6,-3,1,44,-5
13:44:53:874536,-10,-20,-14,-6,-3,1,44,-5
13:44:53:882020,-7,3,23,9,14,6,-20,-12
13:44:53:898367,5,-1,-3,9,-3,0,-12,0
13:44:53:899170,5,-1,-3,9,-3,0,-12,0
13:44:53:899934,-5,-35,4,-1,-10,-19,-15,-4
13:44:53:912005,-3,0,18,7,16,15,-9,-1
13:44:53:920294,-3,0,18,7,16,15,-9,-1
13:44:53:921081,-10,-11,-1,-1,9,6,-6,-2
13:44:53:926987,2,15,37,18,-24,-21,-25,-4
13:44:53:934595,2,15,37,18,-24,-21,-25,-4
13:44:53:942079,10,7,-6,4,2,-4,22,16
13:44:53:949635,-18,-7,-18,4,3,21,27,-4
13:44:53:957731,-18,-7,-18,4,3,21,27,-4
13:44:53:958535,11,16,-21,4,12,-6,-12,-6
13:44:53:972072,8,13,-19,-17,-5,-11,-30,-3
13:44:53:980299,8,13,-19,-17,-5,-11,-30,-3
13:44:53:980983,-5,-19,-9,16,1,-8,-19,-4
13:44:53:987081,5,7,24,26,5,-10,-20,-6
13:44:54:2785,5,7,24,26,5,-10,-20,-6
13:44:54:3536,16,17,19,4,2,10,19,11
13:44:54:9543,-1,12,4,-1,-9,-10,-15,-2
13:44:54:17825,-1,12,4,-1,-9,-10,-15,-2
13:44:54:18560,-5,19,3,-13,-5,-8,-14,-6
13:44:54:40887,12,30,-28,-10,-9,-19,-28,1
13:44:54:41685,12,30,-28,-10,-9,-19,-28,1
13:44:54:42525,-8,3,-8,6,5,23,-3,-1
13:44:54:47056,-7,-38,-5,-7,0,9,30,-8
13:44:54:54605,-7,-38,-5,-7,0,9,30,-8
13:44:54:62006,-1,-12,-7,5,-14,-13,-2,6
13:44:54:69623,10,-13,-8,11,5,-5,-17,1
13:44:54:77734,10,-13,-8,11,5,-5,-17,1
13:44:54:78566,15,18,33,-1,-2,4,12,5
13:44:54:92072,-17,-45,-55,-5,-2,0,-5,-9
13:44:54:100356,-17,-45,-55,-5,-2,0,-5,-9
13:44:54:101077,-2,3,-32,-16,-7,-3,-16,-2
13:44:54:115227,9,12,13,-9,-5,7,13,7
13:44:54:115998,9,12,13,-9,-5,7,13,7
13:44:54:122094,-5,-1,17,9,-3,-12,-21,-7
13:44:54:129555,14,-16,6,5,14,10,-8,5
13:44:54:145278,14,-16,6,5,14,10,-8,5
13:44:54:146063,-1,9,-7,-17,-9,-10,-5,-1
13:44:54:152106,6,9,5,-9,-5,-4,2,-4
13:44:54:160284,6,9,5,-9,-5,-4,2,-4
13:44:54:161000,4,14,16,1,5,-12,-32,-8
13:44:54:175678,-10,2,-3,-9,-2,-2,2,-1
13:44:54:176492,-10,2,-3,-9,-2,-2,2,-1
13:44:54:181992,-4,0,-1,0,-4,-1,17,-4
13:44:54:189565,-9,-3,14,16,-8,-5,2,-2
13:44:54:197099,-9,-3,14,16,-8,-5,2,-2
13:44:54:204537,3,-3,11,19,20,16,12,5
13:44:54:212010,-7,-16,-5,-13,-9,-5,6,-3
13:44:54:220219,-7,-16,-5,-13,-9,-5,6,-3
13:44:54:221001,30,-11,1,-14,-15,-13,24,1
13:44:54:235298,-4,-12,-13,0,22,3,10,0
13:44:54:236021,-4,-12,-13,0,22,3,10,0
13:44:54:242032,-10,-26,-3,-7,1,-3,-23,-6
13:44:54:249587,12,11,9,3,-4,6,-6,3
13:44:54:257048,12,11,9,3,-4,6,-6,3
13:44:54:264562,-4,3,-5,6,-9,-15,-19,-5
13:44:54:280872,1,11,38,0,-7,3,-2,1
13:44:54:281634,1,11,38,0,-7,3,-2,1
13:44:54:282532,-11,0,-4,18,5,8,21,-1
13:44:54:295307,3,29,-11,-12,-11,-7,0,0
13:44:54:296037,3,29,-11,-12,-11,-7,0,0
13:44:54:302096,-7,-3,-26,-24,-4,8,-28,-4
13:44:54:317789,-5,0,-11,-11,-4,-23,-51,-5
13:44:54:318555,-5,0,-11,-11,-4,-23,-51,-5
13:44:54:324536,1,3,21,4,5,0,2,-1
13:44:54:332059,13,30,10,2,3,17,18,7
13:44:54:340211,13,30,10,2,3,17,18,7
13:44:54:340988,-6,7,-12,-15,-5,1,11,2
13:44:54:355230,-2,-2,2,-10,-5,0,3,0
13:44:54:356028,-2,-2,2,-10,-5,0,3,0
13:44:54:361982,10,23,-1,-1,5,3,15,4
13:44:54:369534,-8,11,13,2,8,29,52,7
13:44:54:385279,-8,11,13,2,8,29,52,7
13:44:54:386027,-17,-17,23,-1,-12,-14,-12,-7
13:44:54:391962,-5,1,27,12,-7,20,8,-5
13:44:54:400288,-5,1,27,12,-7,20,8,-5
13:44:54:401049,7,-21,2,10,6,3,0,3
13:44:54:415231,-16,7,16,-6,0,-12,-10,-2
13:44:54:416034,-16,7,16,-6,0,-12,-10,-2
13:44:54:422032,1,8,1,-13,-15,-5,-7,3
13:44:54:429659,6,16,-17,-8,3,-1,21,8
13:44:54:437095,6,16,-17,-8,3,-1,21,8
13:44:54:444567,-8,-16,3,12,13,-4,0,0
13:44:54:452084,7,-18,-35,-16,-13,-17,-14,0
13:44:54:460221,7,-18,-35,-16,-13,-17,-14,0
13:44:54:461024,2,17,-11,0,-8,6,-9,-2
13:44:54:475204,-22,-24,-17,9,11,-1,-16,-9
13:44:54:476040,-22,-24,-17,9,11,-1,-16,-9
13:44:54:490134,10,-3,14,-5,8,-1,-2,3
13:44:54:490938,4,5,-31,-14,-17,-3,-4,-1
13:44:54:497169,4,5,-31,-14,-17,-3,-4,-1
13:44:54:504564,6,27,2,5,11,1,-6,0
13:44:54:511995,-11,-10,26,4,-4,1,1,0
13:44:54:520241,-11,-10,26,4,-4,1,1,0
13:44:54:521024,-6,13,-12,-5,-6,1,9,4
13:44:54:535288,-6,-29,13,-4,-7,7,29,-7
13:44:54:536016,-6,-29,13,-4,-7,7,29,-7
13:44:54:542003,0,-11,-15,-11,0,9,11,1
13:44:54:557707,3,0,-15,5,12,2,-19,-6
13:44:54:558520,3,0,-15,5,12,2,-19,-6
13:44:54:564525,-7,-21,-16,-3,6,0,19,-1
13:44:54:571996,-3,-12,-18,1,-14,-16,-10,1
13:44:54:580304,-3,-12,-18,1,-14,-16,-10,1
13:44:54:580989,-2,-16,6,-3,-17,-14,-20,-7
13:44:54:595623,-4,33,52,28,13,7,5,-5
13:44:54:596533,-4,33,52,28,13,7,5,-5
13:44:54:602004,13,-11,-6,-4,-10,0,19,-1
13:44:54:609493,7,-9,-9,-25,-4,-5,21,2
13:44:54:617138,7,-9,-9,-25,-4,-5,21,2
13:44:54:624571,14,40,-8,16,4,11,26,-5
13:44:54:632070,10,-39,-15,11,4,-9,-25,-3
13:44:54:640225,10,-39,-15,11,4,-9,-25,-3
13:44:54:641005,16,27,39,-13,0,1,4,5
13:44:54:663480,-4,0,-15,2,7,-5,-8,-8
13:44:54:664204,-4,0,-15,2,7,-5,-8,-8
13:44:54:664941,-13,-6,13,-8,5,1,10,4
13:44:54:669619,-13,0,-12,10,-5,-17,-20,-6
13:44:54:677058,-13,0,-12,10,-5,-17,-20,-6
13:44:54:684533,-38,-5,-35,26,-2,-2,-9,-7
13:44:54:691965,18,9,5,11,-2,-4,15,18
13:44:54:700370,18,9,5,11,-2,-4,15,18
13:44:54:700987,-19,-18,-4,-15,-11,3,14,1
13:44:54:715229,-4,25,5,-4,-11,-11,-39,0
13:44:54:715999,-4,25,5,-4,-11,-11,-39,0
13:44:54:721985,2,16,27,10,-5,2,1,-2
13:44:54:729477,-15,3,14,-19,4,15,17,3
13:44:54:737072,-15,3,14,-19,4,15,17,3
13:44:54:744602,15,-35,-25,-9,6,-1,-7,5
13:44:54:752048,-3,7,-20,-25,-18,-14,1,0
13:44:54:767760,-3,7,-20,-25,-18,-14,1,0
13:44:54:768516,9,3,-7,40,34,16,5,-2
13:44:54:775225,8,-4,10,-3,-2,8,13,7
13:44:54:775991,8,-4,10,-3,-2,8,13,7
13:44:54:781997,-12,-32,-25,-40,-25,-11,-15,-8
13:44:54:789560,-9,18,18,11,8,-6,-7,-9
13:44:54:797126,-9,18,18,11,8,-6,-7,-9
13:44:54:804557,8,5,9,-21,-9,12,52,11
13:44:54:811991,7,-22,-22,9,7,4,-18,-15
13:44:54:820245,7,-22,-22,9,7,4,-18,-15
13:44:54:821051,-3,8,3,-2,-1,-13,-17,-5
13:44:54:835275,21,-10,7,0,7,5,21,8
13:44:54:836016,21,-10,7,0,7,5,21,8
13:44:54:841979,-7,-1,-10,3,-11,-9,-15,-2
13:44:54:849595,16,-5,10,7,-7,-15,-38,-11
13:44:54:857050,16,-5,10,7,-7,-15,-38,-11
13:44:54:864576,8,10,10,-10,2,7,3,-2
13:44:54:872062,-12,-26,-16,-1,4,2,2,-5
13:44:54:880258,-12,-26,-16,-1,4,2,2,-5
13:44:54:880972,-23,-13,5,-10,-6,-11,-21,-13
13:44:54:895323,-8,-13,18,-5,-1,4,9,4
13:44:54:896053,-8,-13,18,-5,-1,4,9,4
13:44:54:902107,-2,-6,-8,4,5,-9,-19,-2
13:44:54:909561,-6,-7,-20,-12,-8,15,47,1
13:44:54:917135,-6,-7,-20,-12,-8,15,47,1
13:44:54:924577,2,-11,-8,-9,-3,0,-5,-1
13:44:54:940814,14,6,-10,10,-6,-8,-9,8
13:44:54:941642,14,6,-10,10,-6,-8,-9,8
13:44:54:942451,-4,-12,4,-3,0,-7,-25,-3
13:44:54:954935,-27,-9,-24,-15,-2,-1,-8,-7
13:44:54:962815,-27,-9,-24,-15,-2,-1,-8,-7
13:44:54:963554,-12,-11,-26,-8,-18,-5,28,-4
13:44:54:969555,-10,-3,22,10,6,-12,7,-5
13:44:54:977020,-10,-3,22,10,6,-12,7,-5
13:44:54:984655,10,21,2,4,6,-15,-15,-3
13:44:54:992058,7,5,14,-7,5,6,-6,0
13:44:55:245,7,5,14,-7,5,6,-6,0
13:44:55:958,-4,-9,5,32,16,2,-5,0
13:44:55:15250,3,2,-9,-2,-1,8,23,-13
13:44:55:15971,3,2,-9,-2,-1,8,23,-13
13:44:55:22081,-1,8,-4,5,4,0,3,-8
13:44:55:45869,11,30,2,4,-8,-20,-42,3
13:44:55:46701,11,30,2,4,-8,-20,-42,3
13:44:55:47560,-7,-1,8,31,9,14,8,3
13:44:55:52051,-8,9,18,1,-5,5,5,-6
13:44:55:59593,-8,9,18,1,-5,5,5,-6
13:44:55:67097,14,-14,30,-3,-3,-4,-10,4
13:44:55:75243,-4,-8,-16,1,8,10,-11,-1
13:44:55:76010,-4,-8,-16,1,8,10,-11,-1
13:44:55:82049,-11,9,-8,-10,-12,-20,-4,-7
13:44:55:97716,-3,-5,-10,-14,-5,-1,-23,5
13:44:55:98530,-3,-5,-10,-14,-5,-1,-23,5
13:44:55:112642,-10,3,1,-12,-2,-3,-28,-12
13:44:55:113454,1,1,-12,6,-4,-5,-19,0
13:44:55:119608,1,1,-12,6,-4,-5,-19,0
13:44:55:126996,-9,2,15,8,-10,-8,0,-1
13:44:55:135325,6,-4,-4,-14,-5,-4,0,-2
13:44:55:136045,6,-4,-4,-14,-5,-4,0,-2
13:44:55:149592,4,-31,-8,-1,8,13,9,-2
13:44:55:157690,-5,-9,4,0,-6,15,16,-4
13:44:55:158534,-5,-9,4,0,-6,15,16,-4
13:44:55:164543,-11,-19,-19,-9,2,-9,11,-9
13:44:55:172013,1,-5,-7,2,-9,-16,-2,4
13:44:55:179671,1,-5,-7,2,-9,-16,-2,4
13:44:55:187007,2,-3,-4,13,3,2,-21,4
13:44:55:195218,4,-6,2,-3,0,-4,23,11
13:44:55:196026,4,-6,2,-3,0,-4,23,11
13:44:55:202074,-5,19,-17,-10,-11,16,26,0
13:44:55:218238,-1,7,28,6,-13,-14,-11,3
13:44:55:219010,-1,7,28,6,-13,-14,-11,3
13:44:55:224524,7,10,-2,-11,15,15,33,10
13:44:55:232071,-20,6,-10,11,14,0,14,-3
13:44:55:239578,-20,6,-10,11,14,0,14,-3
13:44:55:247069,-10,2,8,1,-7,-8,-11,-6
13:44:55:255204,2,-2,-15,-8,2,2,-2,-1
13:44:55:256000,2,-2,-15,-8,2,2,-2,-1
13:44:55:262031,25,15,24,-9,10,-4,-3,7
13:44:55:277754,2,-11,-14,6,6,10,15,1
13:44:55:278520,2,-11,-14,6,6,10,15,1
13:44:55:284631,0,-11,1,-13,-13,-14,-21,-9
13:44:55:291989,4,15,1,17,7,2,6,-4
13:44:55:299638,4,15,1,17,7,2,6,-4
13:44:55:307001,10,22,12,-3,6,18,4,8
13:44:55:323408,-17,-27,-22,9,-1,6,13,-4
13:44:55:324161,-17,-27,-22,9,-1,6,13,-4
13:44:55:325001,10,10,2,3,-11,-17,-30,3
13:44:55:337733,11,15,13,-1,-4,6,1,-3
13:44:55:338549,11,15,13,-1,-4,6,1,-3
13:44:55:344546,2,-5,-28,-12,4,4,-12,-4
13:44:55:352052,7,-21,-6,-2,-5,-2,-4,-5
13:44:55:359571,7,-21,-6,-2,-5,-2,-4,-5
13:44:55:367055,-20,-18,16,-2,-17,10,51,-6
13:44:55:375151,-5,6,-9,-5,2,-6,7,-1
13:44:55:375957,-5,6,-9,-5,2,-6,7,-1
13:44:55:382070,-2,1,13,4,6,2,-6,7
13:44:55:397654,0,11,9,4,1,-11,-10,-6
13:44:55:398537,0,11,9,4,1,-11,-10,-6
13:44:55:404581,-20,-24,1,0,-4,5,15,-4
13:44:55:412002,6,-12,16,12,1,0,-17,4
13:44:55:419568,6,-12,16,12,1,0,-17,4
13:44:55:427011,17,-5,-25,4,5,-6,4,6
13:44:55:435235,-1,2,2,-26,-4,10,0,-1
13:44:55:436012,-1,2,2,-26,-4,10,0,-1
13:44:55:441947,-2,22,15,2,-1,-5,-9,2
13:44:55:457661,5,14,6,3,13,-6,-29,-6
13:44:55:458522,5,14,6,3,13,-6,-29,-6
13:44:55:464585,10,-2,-5,6,-9,0,-25,10
13:44:55:472047,-7,29,14,-13,-2,5,8,-2
13:44:55:479671,-7,29,14,-13,-2,5,8,-2
13:44:55:495979,-2,-3,-27,-21,-9,-14,-5,-5
13:44:55:496600,-17,-5,-4,-12,-11,1,17,7
13:44:55:497562,-17,-5,-4,-12,-11,1,17,7
13:44:55:502042,-3,2,6,13,10,5,-10,-4
13:44:55:517773,1,-20,5,0,7,63,90,9
13:44:55:518518,1,-20,5,0,7,63,90,9
13:44:55:524532,0,-11,0,-10,-4,11,-7,-9
13:44:55:532084,-3,-27,-32,3,3,-20,-35,-8
13:44:55:539566,-3,-27,-32,3,3,-20,-35,-8
13:44:55:547005,12,14,-5,5,-6,-4,5,4
13:44:55:555236,-5,32,13,6,-4,-22,-10,-1
13:44:55:556019,-5,32,13,6,-4,-22,-10,-1
13:44:55:561961,-7,7,-11,-13,1,-13,-2,4
13:44:55:577744,-9,-8,9,-3,3,-2,-10,-6
13:44:55:578508,-9,-8,9,-3,3,-2,-10,-6
13:44:55:584548,-12,7,-6,-17,-7,-30,-53,-12
13:44:55:591973,-7,-10,-9,-2,9,13,15,15
13:44:55:599619,-7,-10,-9,-2,9,13,15,15
13:44:55:606987,11,-3,-6,30,-6,9,11,11
13:44:55:615224,7,-2,-14,-27,-14,-22,-27,-7
13:44:55:616004,7,-2,-14,-27,-14,-22,-27,-7
13:44:55:622035,-12,-11,-8,-10,1,-5,21,-7
13:44:55:637773,-7,3,2,4,0,-5,-7,-4
13:44:55:638564,-7,3,2,4,0,-5,-7,-4
13:44:55:644631,10,-1,5,4,1,-7,-8,-3
13:44:55:652069,17,-8,14,-5,-3,-9,-27,-5
13:44:55:659541,17,-8,14,-5,-3,-9,-27,-5
13:44:55:667061,-18,-21,10,0,-6,9,30,-2
13:44:55:675250,1,-5,-21,-7,-9,3,-20,-1
13:44:55:676029,1,-5,-21,-7,-9,3,-20,-1
13:44:55:682049,32,17,2,-11,-6,3,14,9
13:44:55:697769,-1,-1,-1,-9,2,-16,-16,-10
13:44:55:698552,-1,-1,-1,-9,2,-16,-16,-10
13:44:55:704604,17,8,5,8,-1,4,2,0
13:44:55:712007,-8,-1,-7,14,7,-10,-11,7
13:44:55:719611,-8,-1,-7,14,7,-10,-11,7
13:44:55:726990,8,21,-13,2,3,-5,-34,-21
13:44:55:735269,-14,-17,-29,-5,-2,21,73,0
13:44:55:736005,-14,-17,-29,-5,-2,21,73,0
13:44:55:741993,-51,-16,1,3,13,8,-19,-5
13:44:55:757767,-51,-16,1,3,13,8,-19,-5
13:44:55:758551,8,13,7,-5,1,-8,16,0
13:44:55:772057,-8,-8,-7,4,0,-5,11,2
13:44:55:780272,-8,-8,-7,4,0,-5,11,2
13:44:55:781011,2,-6,10,3,-3,-6,-12,1
13:44:55:795978,-9,-7,-7,-3,-2,-8,8,-5
13:44:55:796673,-9,-7,-7,-3,-2,-8,8,-5
13:44:55:797511,-1,-6,-3,10,3,5,-36,-10
13:44:55:802064,-4,-20,-19,-7,-3,2,-15,-2
13:44:55:817868,-4,-20,-19,-7,-3,2,-15,-2
13:44:55:818580,8,9,7,7,2,2,-5,-8
13:44:55:824461,14,-12,17,-2,4,2,12,10
13:44:55:840175,14,-12,17,-2,4,2,12,10
13:44:55:840994,14,48,1,-11,-12,-10,2,7
13:44:55:847058,-7,-1,5,-7,-4,-6,23,-8
13:44:55:855241,-7,-1,5,-7,-4,-6,23,-8
13:44:55:856047,-12,-3,-5,3,11,14,14,5
13:44:55:862014,13,2,-47,39,13,-7,-22,1
13:44:55:877756,13,2,-47,39,13,-7,-22,1
13:44:55:878532,-8,-10,8,6,2,4,-9,-7
13:44:55:884526,-9,-9,29,2,-1,5,-4,3
13:44:55:900291,-9,-9,29,2,-1,5,-4,3
13:44:55:900996,1,-3,6,2,-17,-19,-12,-1
13:44:55:906974,-29,-13,2,-12,-7,10,-7,-9
13:44:55:915228,-29,-13,2,-12,-7,10,-7,-9
13:44:55:916024,15,-4,-10,-8,0,3,4,5
13:44:55:921975,6,1,14,-4,-6,-12,-20,3
13:44:55:937740,6,1,14,-4,-6,-12,-20,3
13:44:55:938583,-13,-12,0,-11,-7,0,-2,-1
13:44:55:944507,15,8,9,19,10,2,-13,1
13:44:55:960208,15,8,9,19,10,2,-13,1
13:44:55:961005,11,28,-31,16,10,-2,5,2
13:44:55:967119,-1,1,10,0,8,12,8,5
13:44:55:975239,-1,1,10,0,8,12,8,5
13:44:55:975994,-7,-22,5,-5,-4,44,79,-11
13:44:55:989564,-11,19,7,-6,-4,16,19,3
13:44:55:997729,-11,19,7,-6,-4,16,19,3
13:44:55:998541,-7,9,22,1,-10,-28,-43,-6
13:44:56:4542,-12,-12,-21,-31,-14,-16,-7,-10
13:44:56:20220,-12,-12,-21,-31,-14,-16,-7,-10
13:44:56:20971,-27,-17,35,10,5,4,-4,-4
13:44:56:27017,12,5,-55,-17,6,-6,-12,-1
13:44:56:35284,12,5,-55,-17,6,-6,-12,-1
13:44:56:36010,16,-29,-12,1,-6,-40,-58,-7
13:44:56:49604,-21,-25,20,1,-9,-2,54,-8
13:44:56:57664,-21,-25,20,1,-9,-2,54,-8
13:44:56:58556,11,-4,-24,0,-2,-6,8,5
13:44:56:64549,14,3,19,9,3,-4,-6,-4
13:44:56:80314,14,3,19,9,3,-4,-6,-4
13:44:56:81011,-3,15,17,-1,4,-3,-18,-3
13:44:56:86989,12,12,10,40,9,5,3,7
13:44:56:95176,12,12,10,40,9,5,3,7
13:44:56:95996,-16,-11,19,14,8,15,-17,-5
13:44:56:109580,11,10,-7,-18,-8,-17,-34,0
13:44:56:117779,11,10,-7,-18,-8,-17,-34,0
13:44:56:118957,-3,-19,-35,5,8,2,31,1
13:44:56:124561,3,-10,-13,-4,5,-6,-18,0
13:44:56:140247,3,-10,-13,-4,5,-6,-18,0
13:44:56:140975,25,20,-8,-26,-17,-6,-2,-1
13:44:56:147072,-6,10,1,-18,7,10,10,3
13:44:56:155248,-6,10,1,-18,7,10,10,3
13:44:56:156054,-19,-2,22,8,11,-1,-3,-7
13:44:56:169584,-3,-11,-13,3,-18,-13,-3,-1
13:44:56:177850,-3,-11,-13,3,-18,-13,-3,-1
13:44:56:178540,-26,-4,2,-11,-8,-4,-33,5
13:44:56:184675,-16,-10,-8,-11,-5,-11,7,-9
13:44:56:200304,-16,-10,-8,-11,-5,-11,7,-9
13:44:56:201059,31,21,-12,-1,-3,-10,-6,1
13:44:56:207034,7,-3,18,-1,-3,3,-4,8
13:44:56:215278,7,-3,18,-1,-3,3,-4,8
13:44:56:216032,16,7,-23,-7,16,6,-2,2
13:44:56:229557,-9,11,48,2,-3,11,9,-6
13:44:56:237747,-9,11,48,2,-3,11,9,-6
13:44:56:238522,-6,-16,5,31,4,1,2,-5
13:44:56:244590,4,-1,-15,3,-3,22,24,-3
13:44:56:260204,4,-1,-15,3,-3,22,24,-3
13:44:56:261002,7,3,4,-8,-14,-4,-10,2
13:44:56:267039,1,-4,-22,-10,-11,-7,3,2
13:44:56:275276,1,-4,-22,-10,-11,-7,3,2
13:44:56:276002,-2,-46,-27,-20,-3,-3,8,-3
13:44:56:289525,1,-15,0,-11,-1,-12,-8,-4
13:44:56:297759,1,-15,0,-11,-1,-12,-8,-4
13:44:56:298536,-4,-1,-1,0,0,-10,-12,-4
13:44:56:304519,2,-3,13,-8,5,-3,-36,-6
13:44:56:320223,2,-3,13,-8,5,-3,-36,-6
13:44:56:320976,-13,0,14,-5,2,2,16,0
13:44:56:326955,-7,11,-12,13,-3,-3,1,2
13:44:56:335295,-7,11,-12,13,-3,-3,1,2
13:44:56:336020,3,-7,-6,9,5,18,0,4
13:44:56:349584,-1,3,1,9,-13,-21,-10,-12
13:44:56:357723,-1,3,1,9,-13,-21,-10,-12
13:44:56:358547,-2,-11,-1,-11,1,32,43,12
13:44:56:364607,17,13,9,-1,9,4,-32,6
13:44:56:380287,17,13,9,-1,9,4,-32,6
13:44:56:381014,-8,7,-14,-5,-19,-31,-13,-5
13:44:56:387021,-8,-6,-42,-9,-10,5,5,3
13:44:56:395209,-8,-6,-42,-9,-10,5,5,3
13:44:56:395987,8,17,-13,2,5,11,7,2
13:44:56:409541,9,-2,13,1,3,1,10,2
13:44:56:417770,9,-2,13,1,3,1,10,2
13:44:56:418548,-19,-10,7,5,6,16,43,5
13:44:56:424449,-20,-15,-23,4,-6,-14,-2,-3
13:44:56:440174,-20,-15,-23,4,-6,-14,-2,-3
13:44:56:440970,12,22,-5,-1,10,4,-9,3
13:44:56:447119,8,-3,5,6,3,4,8,13
13:44:56:455278,8,-3,5,6,3,4,8,13
13:44:56:456009,2,-6,-14,-1,-17,-17,-18,0
13:44:56:469653,-9,26,4,-11,-2,-22,-21,-4
13:44:56:477743,-9,26,4,-11,-2,-22,-21,-4
13:44:56:478538,4,-7,8,1,-1,4,0,-6
13:44:56:484624,7,-8,10,-12,5,3,-3,3
13:44:56:500302,7,-8,10,-12,5,3,-3,3
13:44:56:500998,-4,13,-9,26,-4,-18,-39,-3
13:44:56:506995,-6,3,-1,-10,13,16,32,-5
13:44:56:515224,-6,3,-1,-10,13,16,32,-5
13:44:56:515974,-12,-13,-4,-26,3,-7,-2,-1
13:44:56:529666,-15,16,21,-5,-3,5,4,-8
13:44:56:537705,-15,16,21,-5,-3,5,4,-8
13:44:56:538548,0,2,30,5,-2,5,17,1
13:44:56:544550,5,-17,18,-2,-1,20,17,3
13:44:56:560212,5,-17,18,-2,-1,20,17,3
13:44:56:560999,-4,4,5,-11,-8,-4,-13,-6
13:44:56:567055,19,32,3,-4,-1,-17,-10,4
13:44:56:575222,19,32,3,-4,-1,-17,-10,4
13:44:56:576020,-3,-15,-16,3,10,-2,-17,-1
13:44:56:589586,5,0,-6,-11,-18,-5,-7,-2
13:44:56:597798,5,0,-6,-11,-18,-5,-7,-2
13:44:56:598524,-2,14,-14,-19,-9,-5,1,1
13:44:56:604542,-7,-17,3,-2,-2,-8,-14,-3
13:44:56:620252,-7,-17,3,-2,-2,-8,-14,-3
13:44:56:620990,-18,6,15,3,3,-3,2,-5
13:44:56:627006,-7,17,5,15,8,10,-22,0
13:44:56:635310,-7,17,5,15,8,10,-22,0
13:44:56:636000,-12,0,8,-5,-20,-12,2,-5
13:44:56:649641,-13,-16,-27,35,18,4,-18,-8
13:44:56:657747,-13,-16,-27,35,18,4,-18,-8
13:44:56:658562,4,-11,-2,-7,-5,5,2,-1
13:44:56:664545,-1,-13,2,-10,-19,5,-2,-4
13:44:56:680241,-1,-13,2,-10,-19,5,-2,-4
13:44:56:681018,28,12,0,-3,0,0,-2,3
13:44:56:686990,9,13,-16,6,9,2,19,3
13:44:56:695247,9,13,-16,6,9,2,19,3
13:44:56:696018,8,35,12,-21,-16,-14,-18,-1
13:44:56:709517,15,3,-19,-3,-8,5,20,0
13:44:56:717766,15,3,-19,-3,-8,5,20,0
13:44:56:718531,4,-15,0,30,14,4,1,-11
13:44:56:724539,-5,-20,-2,-15,-6,-1,13,3
13:44:56:740235,-5,-20,-2,-15,-6,-1,13,3
13:44:56:741071,24,45,-5,10,-1,11,28,16
13:44:56:747083,-9,-11,4,-5,1,2,11,3
13:44:56:755309,-9,-11,4,-5,1,2,11,3
13:44:56:756090,-16,-17,13,2,7,1,-11,-3
13:44:56:769565,-4,23,13,13,10,8,0,1
13:44:56:777750,-4,23,13,13,10,8,0,1
13:44:56:778529,-7,-14,0,-25,-10,-1,1,-3
13:44:56:784591,-39,-27,14,29,26,13,4,-7
13:44:56:800295,-39,-27,14,29,26,13,4,-7
13:44:56:801012,-4,-32,-6,-10,-2,-14,-34,-2
13:44:56:806996,-1,0,-7,-14,-6,-24,-12,-6
13:44:56:815249,-1,0,-7,-14,-6,-24,-12,-6
13:44:56:816017,-15,14,4,-1,-4,-9,14,-10
13:44:56:829552,-4,-10,-30,-8,-11,0,10,-9
13:44:56:837752,-4,-10,-30,-8,-11,0,10,-9
13:44:56:838556,5,-20,-16,-13,12,4,-11,0
13:44:56:844525,7,15,6,-6,-11,-13,-9,-4
13:44:56:860166,7,15,6,-6,-11,-13,-9,-4
13:44:56:860976,-12,-16,13,-4,10,7,4,-4
13:44:56:867039,5,16,-10,3,3,8,-4,1
13:44:56:875224,5,16,-10,3,3,8,-4,1
13:44:56:875973,-14,-16,10,11,7,17,34,-2
13:44:56:889577,13,7,14,6,2,-4,-5,-3
13:44:56:897503,13,7,14,6,2,-4,-5,-3
13:44:56:905190,-4,11,-9,-1,-1,-13,-15,-2
13:44:56:905964,-14,-27,1,-20,-6,-14,-19,-1
13:44:56:912062,-14,-27,1,-20,-6,-14,-19,-1
13:44:56:919521,0,1,3,21,1,2,0,-5
13:44:56:926960,18,-1,50,-15,10,10,3,5
13:44:56:934711,18,-1,50,-15,10,10,3,5
13:44:56:942017,7,24,18,2,-9,-1,1,4
13:44:56:949542,8,23,-14,-2,-13,-14,-5,-1
13:44:56:957748,8,23,-14,-2,-13,-14,-5,-1
13:44:56:958589,-2,-25,-11,7,-9,-4,-8,7
13:44:56:972781,14,12,-4,-4,4,7,10,7
13:44:56:973657,14,12,-4,-4,4,7,10,7
13:44:56:979583,1,3,16,11,-15,-12,-12,-5
13:44:56:987023,-4,-17,-13,41,12,-2,8,5
13:44:56:994567,-4,-17,-13,41,12,-2,8,5
13:44:57:2057,7,8,16,13,32,14,16,-1
13:44:57:9566,-2,45,13,-17,-7,0,13,3
13:44:57:17767,-2,45,13,-17,-7,0,13,3
13:44:57:18551,4,-15,2,-2,-2,25,34,3
13:44:57:32762,-2,-53,-30,-15,-1,-10,-21,-7
13:44:57:33546,-2,-53,-30,-15,-1,-10,-21,-7
13:44:57:39599,-8,24,-15,-13,-6,-7,0,-8
13:44:57:47078,6,-10,10,0,-18,-2,-4,8
13:44:57:54579,6,-10,10,0,-18,-2,-4,8
13:44:57:62005,6,-4,-25,-17,-4,-10,-13,2
13:44:57:69646,-16,13,-13,-19,-3,-4,-8,-4
13:44:57:77692,-16,13,-13,-19,-3,-4,-8,-4
13:44:57:78541,2,40,0,34,6,-1,-1,2
13:44:57:92668,-6,-5,8,4,-6,-3,-21,-6
13:44:57:93522,-6,-5,8,4,-6,-3,-21,-6
13:44:57:99594,1,7,10,-19,-18,2,-6,2
13:44:57:106992,-12,9,1,2,-2,2,12,0
13:44:57:114597,-12,9,1,2,-2,2,12,0
13:44:57:121960,0,-23,-23,-31,-5,-27,-46,-4
13:44:57:129551,-3,-7,-12,0,5,-5,6,-8
13:44:57:137719,-3,-7,-12,0,5,-5,6,-8
13:44:57:138546,17,12,27,9,-2,45,95,5
13:44:57:152664,-10,-22,27,16,-3,6,11,-2
13:44:57:153559,-10,-22,27,16,-3,6,11,-2
13:44:57:159490,-16,-15,4,43,15,-35,-61,-12
13:44:57:167106,3,27,12,-3,-3,2,-4,-4
13:44:57:174582,3,27,12,-3,-3,2,-4,-4
13:44:57:182028,1,-18,-40,-36,-10,1,4,11
13:44:57:189531,0,7,4,-1,2,-7,-9,0
13:44:57:197766,0,7,4,-1,2,-7,-9,0
13:44:57:198575,3,13,2,-11,-6,12,25,1
13:44:57:212705,3,-28,-26,3,-7,24,49,3
13:44:57:213549,3,-28,-26,3,-7,24,49,3
13:44:57:219520,18,45,-11,14,20,4,-3,3
13:44:57:226982,4,-5,-9,3,0,-11,-9,-1
13:44:57:234637,4,-5,-9,3,0,-11,-9,-1
13:44:57:242022,-39,-24,18,8,-3,-12,-15,-4
13:44:57:249534,10,4,9,-18,-1,14,37,5
13:44:57:257798,10,4,9,-18,-1,14,37,5
13:44:57:258569,15,-8,6,-1,-9,14,-16,1
13:44:57:272707,0,-8,11,15,0,0,-8,-5
13:44:57:273546,0,-8,11,15,0,0,-8,-5
13:44:57:279661,-20,-16,-26,-1,-12,-25,-34,-7
13:44:57:287041,4,-12,-45,-22,4,0,-27,0
13:44:57:294620,4,-12,-45,-22,4,0,-27,0
13:44:57:302145,19,0,3,-24,-9,10,3,19
13:44:57:309616,-21,-22,-10,23,15,-5,-20,-11
13:44:57:317778,-21,-22,-10,23,15,-5,-20,-11
13:44:57:318569,3,-17,-1,-15,-2,12,18,0
13:44:57:332755,0,13,3,-6,-12,1,-15,-7
13:44:57:333550,0,13,3,-6,-12,1,-15,-7
13:44:57:339583,-27,-4,4,11,12,-10,-1,-8
13:44:57:347061,5,-9,-3,-2,-9,-20,-30,-2
13:44:57:354609,5,-9,-3,-2,-9,-20,-30,-2
13:44:57:362025,7,-1,-10,0,-11,-4,5,-2
13:44:57:369595,1,-15,12,-6,-5,0,13,-6
13:44:57:377691,1,-15,12,-6,-5,0,13,-6
13:44:57:378509,5,-6,-61,-16,-9,-19,-4,-4
13:44:57:392659,-9,8,1,-4,-3,-11,-13,4
13:44:57:393527,-9,8,1,-4,-3,-11,-13,4
13:44:57:399612,-12,-49,-4,12,5,-8,-4,0
13:44:57:406993,-6,29,5,0,2,13,9,6
13:44:57:414566,-6,29,5,0,2,13,9,6
13:44:57:421976,-3,-14,30,-1,-6,-3,-4,-10
13:44:57:429483,18,-4,0,-21,1,-6,-6,-5
13:44:57:437751,18,-4,0,-21,1,-6,-6,-5
13:44:57:438556,2,28,34,22,7,-4,-15,-12
13:44:57:452743,-5,-1,-29,1,-3,-14,-12,-4
13:44:57:453561,-5,-1,-29,1,-3,-14,-12,-4
13:44:57:459507,2,-1,-6,-9,-5,-2,0,1
13:44:57:467129,-14,-1,-19,-5,-5,-2,-15,-5
13:44:57:474560,-14,-1,-19,-5,-5,-2,-15,-5
13:44:57:482000,-1,8,2,2,-11,-14,-15,-8
13:44:57:489543,5,-24,9,4,13,11,-5,2
13:44:57:497767,5,-24,9,4,13,11,-5,2
13:44:57:498585,8,7,1,-4,3,8,11,4
13:44:57:512883,1,9,9,-1,-5,2,25,1
13:44:57:513566,1,9,9,-1,-5,2,25,1
13:44:57:519550,-11,-3,-14,-9,1,-1,-30,-9
13:44:57:526963,-3,26,11,-1,-4,-3,26,1
13:44:57:534652,-3,26,11,-1,-4,-3,26,1
13:44:57:542025,8,3,7,0,1,-8,-18,8
13:44:57:549546,-14,5,6,-1,1,-2,-24,-8
13:44:57:557674,-14,5,6,-1,1,-2,-24,-8
13:44:57:558568,0,27,17,-12,9,11,9,-1
13:44:57:572767,-23,9,5,30,15,17,14,8
13:44:57:573566,-23,9,5,30,15,17,14,8
13:44:57:579634,-4,-21,-13,3,5,7,-20,-12
13:44:57:587032,14,-12,-20,-19,-21,-30,-27,2
13:44:57:594615,14,-12,-20,-19,-21,-30,-27,2
13:44:57:602114,7,-6,-3,-2,5,5,29,8
13:44:57:609587,2,27,11,3,-8,-20,-62,-2
13:44:57:617806,2,27,11,3,-8,-20,-62,-2
13:44:57:618554,10,16,27,2,10,8,-2,3
13:44:57:632741,-9,-21,-18,2,2,1,1,-3
13:44:57:633580,-9,-21,-18,2,2,1,1,-3
13:44:57:639571,2,8,-2,-6,-13,-1,10,-2
13:44:57:647093,12,1,-13,-1,7,1,12,6
13:44:57:654578,12,1,-13,-1,7,1,12,6
13:44:57:662010,-2,-9,-15,-4,-3,-5,45,-4
13:44:57:669581,-19,-44,-14,-21,1,12,22,-11
13:44:57:677673,-19,-44,-14,-21,1,12,22,-11
13:44:57:678518,-8,-11,-13,-1,-10,-2,-9,0
13:44:57:692675,7,-1,9,3,1,15,25,0
13:44:57:693523,7,-1,9,3,1,15,25,0
13:44:57:699517,-2,-10,-9,-14,-28,-7,30,-1
13:44:57:707025,-8,-6,13,8,0,7,8,0
13:44:57:714584,-8,-6,13,8,0,7,8,0
13:44:57:721996,3,-13,-40,15,-9,-3,-25,-4
13:44:57:729573,27,14,15,8,18,3,7,7
13:44:57:737760,27,14,15,8,18,3,7,7
13:44:57:738580,7,39,21,-7,0,-4,-4,2
13:44:57:752742,6,28,0,-3,-8,-11,-32,-8
13:44:57:753580,6,28,0,-3,-8,-11,-32,-8
13:44:57:759495,0,-19,24,5,0,-4,-10,3
13:44:57:767088,5,-6,-6,-5,-2,8,6,-2
13:44:57:774571,5,-6,-6,-5,-2,8,6,-2
13:44:57:782025,-6,3,12,3,5,-2,-5,3
13:44:57:789520,-12,-4,0,10,7,-8,-10,-7
13:44:57:797792,-12,-4,0,10,7,-8,-10,-7
13:44:57:798600,-5,-3,1,1,10,12,7,-1
13:44:57:812826,-14,-9,20,11,-7,-9,12,1
13:44:57:813529,-14,-9,20,11,-7,-9,12,1
13:44:57:819493,-8,-9,7,5,16,37,4,-6
13:44:57:826984,-1,-11,-24,-10,-7,14,32,9
13:44:57:834664,-1,-11,-24,-10,-7,14,32,9
13:44:57:842009,5,12,2,-7,-9,-30,-30,-4
13:44:57:849530,5,9,-14,-9,-6,6,13,-5
13:44:57:857676,5,9,-14,-9,-6,6,13,-5
13:44:57:858536,7,-7,-19,1,6,-5,9,-4
13:44:57:872708,4,-10,22,0,5,-14,-38,3
13:44:57:873539,4,-10,22,0,5,-14,-38,3
13:44:57:879650,1,23,0,2,9,9,10,0
13:44:57:895173,2,-3,-27,-6,-4,21,26,14
13:44:57:896007,2,-3,-27,-6,-4,21,26,14
13:44:57:902074,10,-6,0,-15,0,-4,-8,-3
13:44:57:909470,-15,2,14,3,-1,-9,0,-11
13:44:57:917145,-15,2,14,3,-1,-9,0,-11
13:44:57:924573,-30,-31,-41,5,-6,-27,-56,-10
13:44:57:932765,23,-23,3,1,-5,-4,-17,-8
13:44:57:933542,23,-23,3,1,-5,-4,-17,-8
13:44:57:939540,9,11,20,-8,-17,-12,-21,-1
13:44:57:955199,-18,3,1,-6,3,3,16,-2
13:44:57:955995,-18,3,1,-6,3,3,16,-2
13:44:57:962017,2,-18,12,4,5,22,17,7
13:44:57:969484,1,-6,-1,6,-9,0,1,-1
13:44:57:977003,1,-6,-1,6,-9,0,1,-1
13:44:57:984642,1,15,3,-4,-8,-15,-6,5
13:44:57:992660,32,12,-18,-20,-11,-15,-26,5
13:44:57:993524,32,12,-18,-20,-11,-15,-26,5
13:44:57:999520,-11,-7,-1,7,2,5,17,-6
13:44:58:15189,12,9,0,-2,-8,-12,2,8
13:44:58:15961,12,9,0,-2,-8,-12,2,8
13:44:58:22003,-8,33,-6,2,8,7,18,2
13:44:58:29620,-12,-4,0,-10,-6,0,23,0
13:44:58:37098,-12,-4,0,-10,-6,0,23,0
13:44:58:44473,-11,-15,-17,-9,-9,-5,-23,-9
13:44:58:52701,-15,15,-26,10,12,4,-23,-10
13:44:58:53534,-15,15,-26,10,12,4,-23,-10
13:44:58:59454,14,3,-4,-16,-3,-2,1,0
13:44:58:75215,-28,-7,-6,-11,6,13,1,3
13:44:58:75970,-28,-7,-6,-11,6,13,1,3
13:44:58:81993,-1,4,17,-4,-7,33,41,1
13:44:58:89501,9,3,20,6,-4,-5,1,3
13:44:58:97141,9,3,20,6,-4,-5,1,3
13:44:58:104525,-22,19,27,1,-3,-14,-3,-7
13:44:58:112792,6,13,15,20,14,9,14,3
13:44:58:113534,6,13,15,20,14,9,14,3
13:44:58:119464,14,20,0,14,13,-8,-10,1
13:44:58:135229,-6,-5,2,-5,-10,-17,-23,-8
13:44:58:136029,-6,-5,2,-5,-10,-17,-23,-8
13:44:58:141964,-6,-20,-12,5,-2,12,52,9
13:44:58:149578,3,-4,17,1,14,37,7,-1
13:44:58:157057,3,-4,17,1,14,37,7,-1
13:44:58:164562,10,-32,-16,4,-1,-10,1,6
13:44:58:172761,-1,-3,10,-5,-4,-12,-8,-4
13:44:58:173529,-1,-3,10,-5,-4,-12,-8,-4
13:44:58:179672,-12,-23,-49,8,-2,-6,-19,-6
13:44:58:195179,15,-9,-16,-5,-6,-19,-17,4
13:44:58:196073,15,-9,-16,-5,-6,-19,-17,4
13:44:58:202091,18,3,25,-11,-17,-30,-32,0
13:44:58:209464,-16,-2,-5,2,-4,1,-9,-6
13:44:58:217214,-16,-2,-5,2,-4,1,-9,-6
13:44:58:224498,-1,-2,-6,-2,4,0,-16,0
13:44:58:232751,-8,2,6,-1,-7,-7,21,7
13:44:58:233573,-8,2,6,-1,-7,-7,21,7
13:44:58:239543,1,-7,18,35,19,23,-10,1
13:44:58:255283,-1,-4,-21,-9,1,10,26,2
13:44:58:256061,-1,-4,-21,-9,1,10,26,2
13:44:58:261988,6,4,5,3,4,16,26,11
13:44:58:269558,9,-10,3,-3,-3,6,19,2
13:44:58:277023,9,-10,3,-3,-3,6,19,2
13:44:58:284651,-6,2,-2,-7,6,13,28,3
13:44:58:292644,-14,32,0,-3,0,-8,-18,-10
13:44:58:293523,-14,32,0,-3,0,-8,-18,-10
13:44:58:299577,13,10,-14,-10,8,-6,17,5
13:44:58:315249,-4,-36,-75,-8,-2,-8,-16,-9
13:44:58:315977,-4,-36,-75,-8,-2,-8,-16,-9
13:44:58:322037,1,-6,-6,-16,-15,-7,-28,-4
13:44:58:329586,8,5,21,12,5,-4,-6,8
13:44:58:337046,8,5,21,12,5,-4,-6,8
13:44:58:344499,-11,-14,-16,2,-4,-18,-21,-1
13:44:58:352800,-4,1,1,-15,-1,-15,-33,-6
13:44:58:353533,-4,1,1,-15,-1,-15,-33,-6
13:44:58:359450,-7,13,9,4,1,-1,-12,-11
13:44:58:375175,13,-12,-9,20,3,-7,0,2
13:44:58:376005,13,-12,-9,20,3,-7,0,2
13:44:58:382030,16,9,8,-9,0,7,8,4
13:44:58:389479,16,-8,-13,-4,-8,4,11,-7
13:44:58:397126,16,-8,-13,-4,-8,4,11,-7
13:44:58:404525,-10,-3,18,0,-7,1,-10,-10
13:44:58:412718,-5,3,19,5,12,11,-2,0
13:44:58:413563,-5,3,19,5,12,11,-2,0
13:44:58:419582,-14,-2,-40,-14,-6,11,39,-5
13:44:58:435299,-7,9,-1,-1,-11,-6,16,-1
13:44:58:435978,-7,9,-1,-1,-11,-6,16,-1
13:44:58:442008,-7,12,27,5,18,4,-6,-4
13:44:58:449626,6,6,9,7,2,4,-5,4
13:44:58:457115,6,6,9,7,2,4,-5,4
13:44:58:464542,-3,-10,-19,-15,-5,-17,-20,-6
13:44:58:472691,20,23,31,-2,4,0,2,4
13:44:58:473477,20,23,31,-2,4,0,2,4
13:44:58:479677,-20,7,-31,-2,-4,4,25,-8
13:44:58:495193,15,23,8,-12,-2,2,9,8
13:44:58:496044,15,23,8,-12,-2,2,9,8
13:44:58:502121,7,2,5,3,0,-19,-34,-4
13:44:58:509519,-1,-39,-1,-21,-14,-12,10,-2
13:44:58:517139,-1,-39,-1,-21,-14,-12,10,-2
13:44:58:524497,42,-11,16,-5,-5,-9,1,11
13:44:58:532772,1,-30,38,6,5,19,-13,-7
13:44:58:533602,1,-30,38,6,5,19,-13,-7
13:44:58:539583,-2,0,4,-1,-11,-1,14,-4
13:44:58:555203,-15,-12,-9,6,-2,-2,-8,-14
13:44:58:556041,-15,-12,-9,6,-2,-2,-8,-14
13:44:58:562072,-27,-10,30,4,-6,-4,-12,-1
13:44:58:569623,2,60,20,-2,-1,-8,-10,4
13:44:58:577033,2,60,20,-2,-1,-8,-10,4
13:44:58:584627,5,7,4,-3,9,5,8,5
13:44:58:592691,-9,-3,-6,17,5,9,26,7
13:44:58:593563,-9,-3,-6,17,5,9,26,7
13:44:58:599500,-3,-6,-5,-4,-5,4,-8,-1
13:44:58:615217,-18,-29,-21,-5,-6,-19,-22,-5
13:44:58:616015,-18,-29,-21,-5,-6,-19,-22,-5
13:44:58:622076,1,-12,7,0,2,-3,8,-6
13:44:58:629664,-8,-17,-44,5,6,3,2,-3
13:44:58:637053,-8,-17,-44,5,6,3,2,-3
13:44:58:644477,-15,-54,-30,-8,-6,1,-1,-2
13:44:58:652722,-6,-3,-7,6,9,11,39,-2
13:44:58:653569,-6,-3,-7,6,9,11,39,-2
13:44:58:659468,7,22,0,-8,-4,2,-4,2
13:44:58:675224,-1,-21,16,-5,-17,-13,-14,-6
13:44:58:675986,-1,-21,16,-5,-17,-13,-14,-6
13:44:58:682013,1,3,7,4,6,6,5,2
13:44:58:689471,-1,17,2,-7,-9,-19,-7,-1
13:44:58:697105,-1,17,2,-7,-9,-19,-7,-1
13:44:58:704527,22,20,-3,3,0,2,-4,0
13:44:58:712705,2,17,9,0,-2,-1,-11,-1
13:44:58:713555,2,17,9,0,-2,-1,-11,-1
13:44:58:719622,-20,11,55,13,4,-3,-17,-2
13:44:58:735279,-4,0,-29,-2,4,5,-1,2
13:44:58:736001,-4,0,-29,-2,4,5,-1,2
13:44:58:742024,-25,3,-11,8,-2,3,1,-5
13:44:58:749540,-10,4,0,-26,-13,6,37,-8
13:44:58:757101,-10,4,0,-26,-13,6,37,-8
13:44:58:764506,-3,5,-30,-7,1,-3,-1,-5
13:44:58:772648,-9,-4,-16,2,-2,-21,-39,0
13:44:58:773442,-9,-4,-16,2,-2,-21,-39,0
13:44:58:779587,10,3,-2,-4,-2,-18,-3,0
13:44:58:795179,-3,-35,24,15,0,6,-4,-4
13:44:58:795998,-3,-35,24,15,0,6,-4,-4
13:44:58:802110,-9,0,-13,-10,-11,-22,-46,-5
13:44:58:809517,1,21,10,16,6,1,-13,-1
13:44:58:817161,1,21,10,16,6,1,-13,-1
13:44:58:824504,0,-14,-17,3,7,8,-3,-9
13:44:58:832791,-1,30,-7,-12,-2,21,13,6
13:44:58:833572,-1,30,-7,-12,-2,21,13,6
13:44:58:847086,10,-7,-18,-3,-5,-16,-38,0
13:44:58:855211,28,6,10,0,4,-2,7,13
13:44:58:856013,28,6,10,0,4,-2,7,13
13:44:58:862036,5,11,11,-9,-15,-12,-29,-9
13:44:58:877699,-3,-4,19,27,-5,3,-3,1
13:44:58:878526,-3,-4,19,27,-5,3,-3,1
13:44:58:884577,3,-12,-18,3,15,14,29,-3
13:44:58:892671,3,-10,0,-7,-7,8,5,-11
13:44:58:893436,3,-10,0,-7,-7,8,5,-11
13:44:58:906965,12,3,20,5,-8,10,35,-1
13:44:58:915290,2,-3,2,-38,-11,-8,-4,1
13:44:58:916022,2,-3,2,-38,-11,-8,-4,1
13:44:58:922013,-7,7,6,-7,5,1,-1,0
13:44:58:937758,-12,-5,-6,-20,-6,-9,2,-2
13:44:58:938575,-12,-5,-6,-20,-6,-9,2,-2
13:44:58:944510,-12,-15,12,-6,-4,-4,32,-1
13:44:58:952688,6,-5,-17,1,5,24,33,6
13:44:58:953464,6,-5,-17,1,5,24,33,6
13:44:58:967080,-9,-18,-10,4,6,4,-8,-3
13:44:58:975231,2,22,-1,23,6,-11,-13,-7
13:44:58:976005,2,22,-1,23,6,-11,-13,-7
13:44:58:982080,-1,-2,-5,-22,-5,-2,-2,4
13:44:58:997686,3,54,20,22,2,0,-2,3
13:44:58:998583,3,54,20,22,2,0,-2,3
13:44:59:13418,4,15,1,9,-4,-9,-5,8
13:44:59:14173,-3,-24,8,8,7,-8,-30,-11
13:44:59:14979,-3,-24,8,8,7,-8,-30,-11
13:44:59:27008,5,9,13,1,12,14,34,18
13:44:59:35065,5,9,13,1,12,14,34,18
13:44:59:42601,-10,-14,2,-15,-13,-28,1,-9
13:44:59:43415,-9,-2,8,-10,-2,-1,-15,-12
13:44:59:57716,-9,-2,8,-10,-2,-1,-15,-12
13:44:59:58560,-14,-24,-26,-1,7,0,-14,-3
13:44:59:64585,8,-22,5,9,-8,2,10,9
13:44:59:72698,8,-22,5,9,-8,2,10,9
13:44:59:73540,9,9,17,7,-2,2,-3,5
13:44:59:87048,-15,0,-2,3,22,2,-12,-6
13:44:59:95287,-15,0,-2,3,22,2,-12,-6
13:44:59:96028,-21,-10,-7,-11,4,15,0,-2
13:44:59:102131,6,10,1,6,-16,3,17,1
13:44:59:117772,6,10,1,6,-16,3,17,1
13:44:59:118477,3,-38,-34,-10,-5,-26,-39,-9
13:44:59:124503,-6,-31,23,14,2,0,-10,-4
13:44:59:132770,-6,-31,23,14,2,0,-10,-4
13:44:59:133601,7,6,7,9,9,15,31,14
13:44:59:147035,7,5,-14,-8,-9,-5,-4,0
13:44:59:155207,7,5,-14,-8,-9,-5,-4,0
13:44:59:155978,5,-28,-2,-10,10,-2,4,5
13:44:59:162007,7,3,-16,24,2,0,-3,0
13:44:59:177721,7,3,-16,24,2,0,-3,0
13:44:59:178527,-1,-16,4,-2,-8,9,3,-6
13:44:59:184550,16,57,3,4,6,5,8,10
13:44:59:192693,16,57,3,4,6,5,8,10
13:44:59:193489,5,11,11,8,4,13,-11,1
13:44:59:207049,-17,-5,-7,-10,-9,-2,-4,-3
13:44:59:215246,-17,-5,-7,-10,-9,-2,-4,-3
13:44:59:216089,-5,11,19,-5,-12,-2,25,-3
13:44:59:222040,-7,16,1,8,-1,15,12,9
13:44:59:237759,-7,16,1,8,-1,15,12,9
13:44:59:238549,17,55,15,5,11,-5,-10,2
13:44:59:244533,-6,-14,2,-13,0,-8,-20,-19
13:44:59:252740,-6,-14,2,-13,0,-8,-20,-19
13:44:59:253478,17,-7,-14,16,-3,-2,-9,3
13:44:59:267041,3,14,3,-5,-1,6,-9,-1
13:44:59:275241,3,14,3,-5,-1,6,-9,-1
13:44:59:276011,-18,-30,-62,7,4,1,-15,-15
13:44:59:282034,-4,-44,-25,1,2,-13,-9,-10
13:44:59:297746,-4,-44,-25,1,2,-13,-9,-10
13:44:59:298554,-6,-19,9,-13,-8,-28,-23,-1
13:44:59:304544,2,40,30,2,5,10,16,2
13:44:59:312813,2,40,30,2,5,10,16,2
13:44:59:313586,4,12,-15,-24,-5,-6,5,0
13:44:59:326985,3,-8,3,-15,-4,-10,-3,7
13:44:59:335286,3,-8,3,-15,-4,-10,-3,7
13:44:59:336026,14,5,-6,-4,-2,-4,50,6
13:44:59:342005,-7,-11,-13,-7,-7,28,59,0
13:44:59:357690,-7,-11,-13,-7,-7,28,59,0
13:44:59:358573,-18,16,-13,7,-2,-2,-3,-4
13:44:59:364483,1,-32,-32,11,-2,-13,6,7
13:44:59:372753,1,-32,-32,11,-2,-13,6,7
13:44:59:373562,3,-3,8,1,0,6,-5,6
13:44:59:387016,10,-2,25,-12,-5,-9,-26,-3
13:44:59:395282,10,-2,25,-12,-5,-9,-26,-3
13:44:59:396015,-7,-3,11,-26,-5,-8,-10,1
13:44:59:402070,-5,-8,-12,-7,1,8,19,-8
13:44:59:417752,-5,-8,-12,-7,1,8,19,-8
13:44:59:418612,2,14,7,9,9,30,22,8
13:44:59:424452,12,23,27,22,-7,-11,-11,6
13:44:59:432750,12,23,27,22,-7,-11,-11,6
13:44:59:433581,-12,-4,-3,-7,-11,-2,-36,-14
13:44:59:447081,-5,34,1,-5,4,-13,-5,3
13:44:59:455223,-5,34,1,-5,4,-13,-5,3
13:44:59:455956,-10,1,28,31,-1,-3,2,1
13:44:59:461996,-1,10,-5,-6,10,7,-5,-3
13:44:59:477735,-1,10,-5,-6,10,7,-5,-3
13:44:59:478485,-5,-9,-12,-20,9,-5,5,-8
13:44:59:484523,-12,-20,-25,-14,-13,-6,-19,-7
13:44:59:492681,-12,-20,-25,-14,-13,-6,-19,-7
13:44:59:493540,3,-3,-38,-9,-10,0,7,7
13:44:59:507045,6,8,15,-2,9,27,10,1
13:44:59:515234,6,8,15,-2,9,27,10,1
13:44:59:515987,-1,-14,-19,5,3,-4,-3,-2
13:44:59:522004,2,-16,5,12,-8,-14,-6,-3
13:44:59:537720,2,-16,5,12,-8,-14,-6,-3
13:44:59:538495,11,6,13,4,-1,-5,-10,-3
13:44:59:544631,-3,-28,-17,-6,-9,-9,-16,-9
13:44:59:552811,-3,-28,-17,-6,-9,-9,-16,-9
13:44:59:553558,0,8,22,5,21,7,11,2
13:44:59:567063,-5,-6,-27,-6,0,-15,-4,0
13:44:59:575189,-5,-6,-27,-6,0,-15,-4,0
13:44:59:575962,-8,-3,-12,13,-9,1,12,-2
13:44:59:582001,2,9,4,6,-8,-8,8,7
13:44:59:597711,2,9,4,6,-8,-8,8,7
13:44:59:598453,-5,-22,13,-18,-11,-11,-31,-9
13:44:59:604533,1,-18,-15,-4,1,2,4,1
13:44:59:612785,1,-18,-15,-4,1,2,4,1
13:44:59:613480,9,12,13,-12,-10,1,6,6
13:44:59:627001,0,-2,5,15,-12,-5,-7,-5
13:44:59:635247,0,-2,5,15,-12,-5,-7,-5
13:44:59:635991,-8,-15,-5,-6,-9,-7,-16,-9
13:44:59:641993,1,-3,-8,4,0,7,-4,-3
13:44:59:657763,1,-3,-8,4,0,7,-4,-3
13:44:59:658548,4,18,-15,5,0,-3,4,2
13:44:59:664550,-3,6,11,-13,-16,-8,-4,-2
13:44:59:672692,-3,6,11,-13,-16,-8,-4,-2
13:44:59:673477,-27,22,-1,-15,5,1,-6,-6
13:44:59:687058,-18,-3,5,6,20,-1,-28,-10
13:44:59:695237,-18,-3,5,6,20,-1,-28,-10
13:44:59:696043,-14,-1,8,11,7,8,20,-3
13:44:59:702097,-12,-8,14,2,-1,1,43,6
13:44:59:717812,-12,-8,14,2,-1,1,43,6
13:44:59:718599,13,-12,-25,3,12,4,-13,-8
13:44:59:724480,-2,-20,1,-4,-16,1,6,-7
13:44:59:732737,-2,-20,1,-4,-16,1,6,-7
13:44:59:733480,0,1,1,-25,-19,-8,3,1
13:44:59:747069,6,4,10,-14,8,-3,-7,7
13:44:59:755308,6,4,10,-14,8,-3,-7,7
13:44:59:756037,7,-25,9,5,5,16,25,3
13:44:59:769558,-1,-10,-39,0,-12,-12,-8,3
13:44:59:777747,-1,-10,-39,0,-12,-12,-8,3
13:44:59:778570,-1,29,16,-4,7,-17,-25,0
13:44:59:784602,-11,12,21,9,14,11,-1,-8
13:44:59:792049,-11,12,21,9,14,11,-1,-8
13:44:59:799607,-5,-9,9,49,3,-7,-5,-2
13:44:59:806994,15,21,-6,18,7,-5,-21,0
13:44:59:815263,15,21,-6,18,7,-5,-21,0
13:44:59:815951,7,-10,-2,0,-4,4,23,3
13:44:59:829573,-3,-16,-24,0,1,0,-12,0
13:44:59:837781,-3,-16,-24,0,1,0,-12,0
13:44:59:838598,-26,-13,-6,-12,-7,15,17,-2
13:44:59:844502,-2,-35,-1,-13,-2,1,7,-6
13:44:59:852125,-2,-35,-1,-13,-2,1,7,-6
13:44:59:859539,23,22,5,-2,2,-2,-10,2
13:44:59:867105,-2,-1,15,-23,-17,-12,-17,-6
13:44:59:875212,-2,-1,15,-23,-17,-12,-17,-6
13:44:59:875993,9,-22,28,-16,-14,-14,-16,-2
13:44:59:889535,26,34,8,8,7,11,8,10
13:44:59:897718,26,34,8,8,7,11,8,10
13:44:59:898483,-8,-3,-21,5,0,11,-6,-2
13:44:59:904528,4,1,15,-6,-10,7,31,3
13:44:59:912035,4,1,15,-6,-10,7,31,3
13:44:59:919502,-1,3,9,-4,-5,-1,-6,-2
13:44:59:926973,-14,-22,-20,3,8,5,3,-4
13:44:59:935285,-14,-22,-20,3,8,5,3,-4
13:44:59:935978,6,12,-16,-5,-1,-17,-9,5
13:44:59:949611,-17,-10,15,-14,1,3,10,2
13:44:59:957672,-17,-10,15,-14,1,3,10,2
13:44:59:958579,-10,-9,-14,41,-11,-9,-1,3
13:44:59:964463,5,16,14,-10,3,-2,-12,1
13:44:59:972063,5,16,14,-10,3,-2,-12,1
13:44:59:979556,6,6,13,-7,-8,-9,-16,0
13:44:59:987034,-1,11,-2,15,26,18,39,-5
13:44:59:995327,-1,11,-2,15,26,18,39,-5
13:44:59:996019,-14,-11,-4,-15,0,-4,8,-1
13:45:00:9483,-19,13,-48,-17,-10,-10,-6,0
13:45:00:17792,-19,13,-48,-17,-10,-10,-6,0
13:45:00:18545,7,13,-11,-4,7,15,19,-3
13:45:00:24462,10,-10,-26,-14,-10,-19,-29,1
13:45:00:32160,10,-10,-26,-14,-10,-19,-29,1
13:45:00:39488,-13,-31,-45,-12,3,-2,-15,-3
13:45:00:47009,-2,6,11,10,5,11,10,0
13:45:00:55261,-2,6,11,10,5,11,10,0
13:45:00:56035,5,5,17,6,-2,-2,-7,-3
13:45:00:69578,-3,-20,-67,-7,-9,-12,-29,-5
13:45:00:77720,-3,-20,-67,-7,-9,-12,-29,-5
13:45:00:78549,4,39,1,-9,-1,-22,38,-4
13:45:00:92721,-7,9,56,10,2,8,14,-7
13:45:00:93599,-7,9,56,10,2,8,14,-7
13:45:00:99560,-2,-16,10,-5,1,7,-11,2
13:45:00:106980,2,1,-4,-3,-4,-15,-25,-2
13:45:00:115188,2,1,-4,-3,-4,-15,-25,-2
13:45:00:116009,8,-15,-2,-25,-14,-10,-9,2
13:45:00:129604,-16,3,26,25,13,8,-15,-11
13:45:00:137733,-16,3,26,25,13,8,-15,-11
13:45:00:138583,13,-16,-14,6,2,6,-7,1
13:45:00:144534,23,5,-1,-8,-12,7,36,14
13:45:00:152143,23,5,-1,-8,-12,7,36,14
13:45:00:159474,7,-3,9,-8,-6,10,15,1
13:45:00:167022,-15,-16,10,4,-1,-7,17,-2
13:45:00:175242,-15,-16,10,4,-1,-7,17,-2
13:45:00:176024,-3,7,12,1,6,6,-1,0
13:45:00:189507,13,-7,24,2,9,-1,-6,8
13:45:00:197775,13,-7,24,2,9,-1,-6,8
13:45:00:198589,-7,40,4,-8,-3,-9,-19,-2
13:45:00:204508,8,14,5,-11,-15,-6,-8,4
13:45:00:212074,8,14,5,-11,-15,-6,-8,4
13:45:00:219612,-8,-6,-13,0,-3,-22,-26,-1
13:45:00:226979,-5,-9,-35,-6,5,20,21,0
13:45:00:235260,-5,-9,-35,-6,5,20,21,0
13:45:00:235965,2,-15,-31,-11,-14,-5,4,-1
13:45:00:249562,-4,2,16,48,12,-2,-29,-8
13:45:00:257664,-4,2,16,48,12,-2,-29,-8
13:45:00:258456,1,14,19,16,27,11,2,-2
13:45:00:264555,-18,15,-1,-9,-10,-12,-7,-3
13:45:00:272065,-18,15,-1,-9,-10,-12,-7,-3
13:45:00:279540,-6,-16,-1,-12,-6,-3,-14,-6
13:45:00:287057,5,-14,-4,-12,-7,2,21,-1
13:45:00:295269,5,-14,-4,-12,-7,2,21,-1
13:45:00:295993,1,13,16,-3,-8,6,9,5
13:45:00:309545,-4,-11,-2,-3,-3,-3,20,-1
13:45:00:317813,-4,-11,-2,-3,-3,-3,20,-1
13:45:00:318488,2,-5,8,11,23,18,15,-3
13:45:00:324486,3,-12,-9,-22,-15,-12,-18,2
13:45:00:332094,3,-12,-9,-22,-15,-12,-18,2
13:45:00:339540,2,-14,-14,13,8,4,3,0
13:45:00:347012,6,-9,-24,2,0,-19,-39,-2
13:45:00:355243,6,-9,-24,2,0,-19,-39,-2
13:45:00:355998,-12,-26,-9,15,-7,1,-9,-1
13:45:00:369526,0,3,-25,-9,-2,-3,-5,-5
13:45:00:377695,0,3,-25,-9,-2,-3,-5,-5
13:45:00:378548,13,0,-28,-9,-5,-8,36,3
13:45:00:384545,-5,31,12,2,11,11,0,3
13:45:00:392058,-5,31,12,2,11,11,0,3
13:45:00:399510,0,-9,13,-9,-1,-1,-6,-5
13:45:00:406977,4,-7,9,-8,-3,-4,-8,-6
13:45:00:415247,4,-7,9,-8,-3,-4,-8,-6
13:45:00:415979,8,7,13,12,4,3,-2,6
13:45:00:429528,-4,-8,-12,0,-2,-4,-9,-6
13:45:00:437763,-4,-8,-12,0,-2,-4,-9,-6
13:45:00:438572,-26,-7,-8,-7,-6,-11,-14,-6
13:45:00:444487,-41,-9,-13,-13,-1,12,22,-12
13:45:00:452157,-41,-9,-13,-13,-1,12,22,-12
13:45:00:459493,4,0,0,-8,-7,2,-3,-2
13:45:00:467086,9,-4,4,2,-6,-15,2,4
13:45:00:475254,9,-4,4,2,-6,-15,2,4
13:45:00:476000,-1,53,27,4,-1,-5,16,0
13:45:00:489506,7,-11,9,2,-3,3,1,2
13:45:00:497785,7,-11,9,2,-3,3,1,2
13:45:00:498578,50,-19,6,-4,-7,-14,-12,12
13:45:00:504506,-3,-6,14,-10,-9,-7,-1,-7
13:45:00:512123,-3,-6,14,-10,-9,-7,-1,-7
13:45:00:519599,6,-17,-4,-6,-8,5,-2,10
13:45:00:527000,3,-4,-2,3,4,-4,-21,4
13:45:00:535994,3,-4,-2,3,4,-4,-21,4
13:45:00:536705,-10,-1,-10,-13,-12,-3,-3,-5
13:45:00:549523,-5,16,0,-1,-1,4,7,-2
13:45:00:557667,-5,16,0,-1,-1,4,7,-2
13:45:00:558494,-24,0,-37,-1,3,9,9,-6
13:45:00:564557,1,0,-2,1,7,-4,3,-1
13:45:00:572040,1,0,-2,1,7,-4,3,-1
13:45:00:579624,-2,-23,-19,-4,23,-1,4,-3
13:45:00:587051,16,-3,-6,-10,-2,21,15,3
13:45:00:595186,16,-3,-6,-10,-2,21,15,3
13:45:00:596042,-3,-4,-23,-10,-10,-28,-23,-6
13:45:00:609973,2,-11,-2,2,-16,-9,-21,-5
13:45:00:617779,2,-11,-2,2,-16,-9,-21,-5
13:45:00:618499,6,10,29,-11,-5,2,-9,0
13:45:00:624422,-14,-22,12,6,5,0,-8,-1
13:45:00:632139,-14,-22,12,6,5,0,-8,-1
13:45:00:639484,0,10,25,4,-1,2,5,3
13:45:00:647038,3,-1,3,2,6,7,0,-4
13:45:00:655246,3,-1,3,2,6,7,0,-4
13:45:00:656006,-11,4,16,5,-2,5,-2,-7
13:45:00:669544,6,40,19,14,8,-17,5,4
13:45:00:677715,6,40,19,14,8,-17,5,4
13:45:00:678468,-15,-15,-13,14,-4,6,-4,-5
13:45:00:684536,9,-3,-7,-3,3,2,6,11
13:45:00:692051,9,-3,-7,-3,3,2,6,11
13:45:00:699565,-14,-30,1,-6,-11,-19,-46,-16
13:45:00:715253,-3,-36,-40,-20,-5,9,11,-8
13:45:00:715999,-3,-36,-40,-20,-5,9,11,-8
13:45:00:721987,4,0,-2,14,2,0,11,0
13:45:00:729476,4,4,22,-10,-2,-7,-2,2
13:45:00:737711,4,4,22,-10,-2,-7,-2,2
13:45:00:738593,3,5,3,-10,-3,0,11,-1
13:45:00:752786,9,11,23,9,8,-1,-29,2
13:45:00:753598,9,11,23,9,8,-1,-29,2
13:45:00:759444,-3,14,5,4,11,11,12,4
13:45:00:767056,8,-31,-37,-6,-7,-7,-4,3
13:45:00:774600,8,-31,-37,-6,-7,-7,-4,3
13:45:00:790131,10,-3,-15,2,5,6,7,-4
13:45:00:790910,2,19,5,11,0,10,31,0
13:45:00:797738,2,19,5,11,0,10,31,0
13:45:00:798566,0,8,1,3,6,21,40,7
13:45:00:812768,-9,-11,-6,-2,-3,-10,-4,-4
13:45:00:813478,-9,-11,-6,-2,-3,-10,-4,-4
13:45:00:819525,-7,-10,-23,16,1,-2,-11,-1
13:45:00:826995,-8,0,-18,-6,-3,-2,-16,-4
13:45:00:834694,-8,0,-18,-6,-3,-2,-16,-4
13:45:00:841971,-21,22,17,-3,0,-7,-15,-5
13:45:00:849530,2,41,7,2,-6,-12,-20,-8
13:45:00:857702,2,41,7,2,-6,-12,-20,-8
13:45:00:858624,19,26,-5,3,-9,-6,-4,8
13:45:00:872711,0,9,-7,-1,7,11,5,-1
13:45:00:873565,0,9,-7,-1,7,11,5,-1
13:45:00:879597,-15,-11,-2,-8,-13,-6,-29,-14
13:45:00:886973,7,7,30,7,12,34,57,10
13:45:00:894624,7,7,30,7,12,34,57,10
13:45:00:902096,23,-1,-19,-2,2,1,2,12
13:45:00:909478,-1,-4,-4,-3,-16,-16,-26,-2
13:45:00:917746,-1,-4,-4,-3,-16,-16,-26,-2
13:45:00:918574,3,-16,-40,-14,1,-6,-9,-5
13:45:00:932747,-6,12,-4,-8,-3,-10,-6,-3
13:45:00:933593,-6,12,-4,-8,-3,-10,-6,-3
13:45:00:939470,-21,4,37,-6,9,7,-5,-3
13:45:00:947063,-14,-8,6,-4,-4,12,-1,-5
13:45:00:954595,-14,-8,6,-4,-4,12,-1,-5
13:45:00:962018,8,-8,13,6,2,10,16,13
13:45:00:969599,16,23,34,2,-9,-18,-20,5
13:45:00:977697,16,23,34,2,-9,-18,-20,5
13:45:00:978478,2,-14,-13,-20,-5,-6,-6,-5
13:45:00:993109,-8,-3,-22,17,12,10,13,0
13:45:00:993910,-8,-3,-22,17,12,10,13,0
13:45:00:999544,-1,-20,4,-10,6,6,3,-7
13:45:01:7018,-3,-20,-4,-3,-7,-9,1,1
13:45:01:14663,-3,-20,-4,-3,-7,-9,1,1
13:45:01:22056,0,-11,-19,3,-7,-15,-21,-4
13:45:01:29599,15,-1,-23,-5,0,16,25,8
13:45:01:37708,15,-1,-23,-5,0,16,25,8
13:45:01:38517,-4,7,10,-16,-7,5,-10,-7
13:45:01:52745,-20,-23,-10,-10,0,-13,1,-16
13:45:01:53501,-20,-23,-10,-10,0,-13,1,-16
13:45:01:59520,19,20,14,6,1,0,32,2
13:45:01:67134,-6,-18,17,25,2,-1,-14,-1
13:45:01:74632,-6,-18,17,25,2,-1,-14,-1
13:45:01:81989,-10,-16,-22,17,-7,-21,-8,-3
13:45:01:89444,-6,16,36,-3,-8,-14,-19,-7
13:45:01:97726,-6,16,36,-3,-8,-14,-19,-7
13:45:01:98455,-13,-2,10,8,7,5,2,0
13:45:01:112671,-2,-19,-6,-8,-2,-6,-9,-4
13:45:01:113476,-2,-19,-6,-8,-2,-6,-9,-4
13:45:01:119489,-2,27,2,-2,-6,14,24,9
13:45:01:126934,-4,2,-18,-6,-6,-12,6,2
13:45:01:134690,-4,2,-18,-6,-6,-12,6,2
13:45:01:141970,13,-42,-15,-13,-4,-3,9,3
13:45:01:149539,6,11,-10,-12,-2,-7,-21,1
13:45:01:157700,6,11,-10,-12,-2,-7,-21,1
13:45:01:158561,-11,20,-2,17,24,10,-1,-4
13:45:01:172670,9,18,-21,-17,-11,-12,-6,1
13:45:01:173573,9,18,-21,-17,-11,-12,-6,1
13:45:01:179575,-14,0,11,-1,10,15,4,-9
13:45:01:186972,-16,-2,-18,6,3,3,-3,-4
13:45:01:194591,-16,-2,-18,6,3,3,-3,-4
13:45:01:202033,-17,-1,-14,-4,-15,-17,-18,-4
13:45:01:209498,-14,-19,4,-15,0,13,41,-4
13:45:01:217773,-14,-19,4,-15,0,13,41,-4
13:45:01:218581,4,-1,18,-19,-10,0,-3,-1
13:45:01:232810,0,14,17,14,1,-15,-35,-1
13:45:01:233596,0,14,17,14,1,-15,-35,-1
13:45:01:239465,-4,-19,-2,4,1,9,9,-4
13:45:01:247038,19,-22,-7,-11,-8,-9,-15,1
13:45:01:254661,19,-22,-7,-11,-8,-9,-15,1
13:45:01:262008,7,2,19,10,-4,-3,-8,3
13:45:01:269496,11,8,15,7,5,15,0,-1
13:45:01:277671,11,8,15,7,5,15,0,-1
13:45:01:278443,-1,8,16,-3,3,4,-15,-3
13:45:01:292668,-30,-3,-20,5,-8,-8,6,-2
13:45:01:293444,-30,-3,-20,5,-8,-8,6,-2
13:45:01:299604,6,34,6,-10,-4,-21,-8,-3
13:45:01:306958,-22,-8,-8,4,-1,9,-5,-6
13:45:01:314609,-22,-8,-8,4,-1,9,-5,-6
13:45:01:322055,-2,8,-23,2,3,3,12,6
13:45:01:329609,8,16,4,4,-1,-8,24,-3
13:45:01:337700,8,16,4,4,-1,-8,24,-3
13:45:01:338509,0,-15,-24,5,-7,-7,3,6
13:45:01:352677,6,5,1,-4,2,11,26,0
13:45:01:353504,6,5,1,-4,2,11,26,0
13:45:01:359488,5,-15,2,0,2,-11,-6,-6
13:45:01:367129,9,-2,2,7,10,13,5,8
13:45:01:374589,9,-2,2,7,10,13,5,8
13:45:01:382001,7,-4,7,-5,-3,11,18,2
13:45:01:389489,-4,-37,11,43,0,-10,-15,-2
13:45:01:397737,-4,-37,11,43,0,-10,-15,-2
13:45:01:398524,-7,-5,4,-3,8,-8,-49,-11
13:45:01:412712,-7,-1,11,-5,4,13,23,2
13:45:01:413523,-7,-1,11,-5,4,13,23,2
13:45:01:419497,13,-8,-4,3,-5,-22,-29,1
13:45:01:426955,0,-10,-26,-16,-12,-1,-2,-3
13:45:01:434682,0,-10,-26,-16,-12,-1,-2,-3
13:45:01:441999,-14,19,0,-5,-12,-16,-17,-8
13:45:01:449580,16,-4,8,-8,9,10,31,6
13:45:01:457714,16,-4,8,-8,9,10,31,6
13:45:01:458569,-4,-18,-44,-9,-8,6,28,2
13:45:01:472726,-9,5,-6,5,2,-10,-28,-7
13:45:01:473544,-9,5,-6,5,2,-10,-28,-7
13:45:01:479591,2,-21,-15,-4,-2,2,24,5
13:45:01:487011,4,31,-11,-24,-2,6,-6,4
13:45:01:494602,4,31,-11,-24,-2,6,-6,4
13:45:01:502110,-5,-4,16,3,2,4,-2,-2
13:45:01:509491,10,5,-9,-7,-9,-21,-19,-6
13:45:01:517770,10,5,-9,-7,-9,-21,-19,-6
13:45:01:518474,24,-7,-17,1,2,4,5,9
13:45:01:532778,16,4,2,-7,2,14,15,5
13:45:01:533592,16,4,2,-7,2,14,15,5
13:45:01:539513,-8,-17,-21,-20,8,-1,-11,-10
13:45:01:547071,-2,0,12,19,12,3,-20,2
13:45:01:554616,-2,0,12,19,12,3,-20,2
13:45:01:562019,3,3,18,-2,-3,-6,-1,3
13:45:01:569536,-1,-10,24,-2,-3,-18,-21,-7
13:45:01:577694,-1,-10,24,-2,-3,-18,-21,-7
13:45:01:578479,4,20,5,-3,-11,-22,-34,-10
13:45:01:592666,-16,4,-25,-3,-3,2,-1,-2
13:45:01:593471,-16,4,-25,-3,-3,2,-1,-2
13:45:01:599586,-6,3,11,6,-9,2,-7,3
13:45:01:606987,13,-9,-7,-2,13,3,2,3
13:45:01:614589,13,-9,-7,-2,13,3,2,3
13:45:01:621995,-3,11,-1,-18,-12,-2,-1,-1
13:45:01:629610,-3,-10,-16,-9,12,7,1,-6
13:45:01:637725,-3,-10,-16,-9,12,7,1,-6
13:45:01:638483,6,-7,-1,23,9,7,14,5
13:45:01:652706,-9,-10,-8,-6,-14,-10,-32,-8
13:45:01:653502,-9,-10,-8,-6,-14,-10,-32,-8
13:45:01:659490,-23,-4,35,1,3,3,10,-5
13:45:01:675172,-24,-12,-23,-6,4,14,18,-3
13:45:01:675997,-24,-12,-23,-6,4,14,18,-3
13:45:01:682055,5,-21,-9,6,0,12,6,-5
13:45:01:689542,-1,11,-5,-24,-10,-11,-9,-3
13:45:01:697120,-1,11,-5,-24,-10,-11,-9,-3
13:45:01:704484,6,-11,9,5,6,7,10,5
13:45:01:712737,8,11,21,15,-4,-7,2,-1
13:45:01:713612,8,11,21,15,-4,-7,2,-1
13:45:01:719559,-6,28,13,-14,-4,-1,-7,-1
13:45:01:735283,-12,-10,7,-2,-9,3,8,0
13:45:01:735978,-12,-10,7,-2,-9,3,8,0
13:45:01:741957,14,-5,12,-1,-2,-13,-15,1
13:45:01:749568,-30,-13,3,5,0,1,-38,-6
13:45:01:757051,-30,-13,3,5,0,1,-38,-6
13:45:01:764501,-2,4,-37,-11,-15,-7,3,-2
13:45:01:772701,2,1,15,15,14,1,-19,0
13:45:01:773548,2,1,15,15,14,1,-19,0
13:45:01:779501,-3,-23,3,9,13,13,5,-7
13:45:01:795200,29,-14,-7,2,-10,-4,27,15
13:45:01:796016,29,-14,-7,2,-10,-4,27,15
13:45:01:802040,-17,17,1,23,-3,-4,13,3
13:45:01:809476,9,-4,-19,-18,2,-1,7,-4
13:45:01:817100,9,-4,-19,-18,2,-1,7,-4
13:45:01:824503,-9,17,-26,2,4,-4,-15,-3
13:45:01:832776,-6,11,-9,-8,-5,8,31,3
13:45:01:833643,-6,11,-9,-8,-5,8,31,3
13:45:01:839523,-3,-22,-1,-7,-11,-8,3,1
13:45:01:855188,-2,9,-38,-13,1,-6,-14,-6
13:45:01:856013,-2,9,-38,-13,1,-6,-14,-6
13:45:01:862035,-17,-12,19,0,2,17,15,-2
13:45:01:869470,-8,-8,9,-2,-9,1,5,-3
13:45:01:877097,-8,-8,9,-2,-9,1,5,-3
13:45:01:884590,-2,8,-2,-1,-8,-11,-6,-7
13:45:01:892680,5,9,26,7,3,-21,-25,-1
13:45:01:893432,5,9,26,7,3,-21,-25,-1
13:45:01:899583,34,-6,3,4,17,36,51,23
13:45:01:915229,-3,-4,-14,4,2,-5,-13,-4
13:45:01:916056,-3,-4,-14,4,2,-5,-13,-4
13:45:01:922032,-13,-3,-40,-6,-4,-4,2,-13
13:45:01:929505,-8,-9,17,0,-6,-2,10,1
13:45:01:937056,-8,-9,17,0,-6,-2,10,1
13:45:01:944538,-3,14,-25,-38,-11,-6,-18,-3
13:45:01:952757,-7,-11,13,-8,7,3,-16,-6
13:45:01:953499,-7,-11,13,-8,7,3,-16,-6
13:45:01:959452,-6,-28,30,-5,-2,-2,-12,-8
13:45:01:975185,21,5,14,5,-7,-4,-7,-9
13:45:01:975966,21,5,14,5,-7,-4,-7,-9
13:45:01:982049,4,23,21,3,-17,-9,13,4
13:45:01:989561,14,-15,4,10,17,21,23,3
13:45:01:997101,14,-15,4,10,17,21,23,3
13:45:02:4478,-8,15,6,17,0,-16,-25,-4
13:45:02:12799,2,22,-23,-13,-10,-6,8,4
13:45:02:13585,2,22,-23,-13,-10,-6,8,4
13:45:02:19516,-9,-4,14,-5,1,31,83,-5
13:45:02:35296,-15,2,1,5,9,-9,-13,2
13:45:02:35984,-15,2,1,5,9,-9,-13,2
13:45:02:41965,4,7,5,5,11,-18,-42,-3
13:45:02:49544,-13,-7,4,1,-14,-5,1,-7
13:45:02:57101,-13,-7,4,1,-14,-5,1,-7
13:45:02:64541,5,-9,-2,-13,1,10,-7,2
13:45:02:72695,22,16,-4,7,-14,-7,-12,6
13:45:02:73605,22,16,-4,7,-14,-7,-12,6
13:45:02:79631,-3,-19,-37,-4,3,11,11,-5
13:45:02:95246,2,1,-2,1,-7,4,-28,5
13:45:02:96012,2,1,-2,1,-7,4,-28,5
13:45:02:102059,2,6,2,-6,-6,2,14,-8
13:45:02:109455,9,-21,2,-1,-6,-2,-2,3
13:45:02:117125,9,-21,2,-1,-6,-2,-2,3
13:45:02:124541,-4,11,7,17,17,10,-19,-1
13:45:02:132740,-15,-14,-3,-21,1,-14,-9,-11
13:45:02:133586,-15,-14,-3,-21,1,-14,-9,-11
13:45:02:139520,-10,3,2,15,-3,-17,-1,1
13:45:02:155259,26,11,-1,-13,-2,20,25,2
13:45:02:155999,26,11,-1,-13,-2,20,25,2
13:45:02:161975,-6,6,-1,8,14,12,3,9
13:45:02:169598,-10,27,5,7,-10,-27,-42,-5
13:45:02:177081,-10,27,5,7,-10,-27,-42,-5
13:45:02:184592,1,-9,10,-6,-14,-17,-6,0
13:45:02:192655,-13,12,-5,-3,8,-1,21,2
13:45:02:193453,-13,12,-5,-3,8,-1,21,2
13:45:02:199621,12,5,-43,7,-1,-9,-26,-2
13:45:02:215256,-12,-14,-13,2,22,30,21,-4
13:45:02:215987,-12,-14,-13,2,22,30,21,-4
13:45:02:222013,-6,9,7,-26,-15,-12,-25,-5
13:45:02:229577,3,-2,0,1,-4,5,17,-9
13:45:02:237059,3,-2,0,1,-4,5,17,-9
13:45:02:244526,-1,4,13,6,-10,-7,-14,0
13:45:02:252734,4,-11,-40,-18,-12,-10,-14,0
13:45:02:253499,4,-11,-40,-18,-12,-10,-14,0
13:45:02:259480,3,-6,-10,2,4,1,6,2
13:45:02:275184,-12,-6,-12,-1,-16,-23,-43,-12
13:45:02:275991,-12,-6,-12,-1,-16,-23,-43,-12
13:45:02:282132,-14,-14,15,3,-6,-4,-15,-4
13:45:02:289514,10,-6,40,11,1,23,70,24
13:45:02:297085,10,-6,40,11,1,23,70,24
13:45:02:304531,-4,6,-28,-4,10,15,9,-2
13:45:02:312798,-4,6,-28,-4,10,15,9,-2
13:45:02:313526,-13,-4,2,20,12,-8,-25,-4
13:45:02:319459,10,-9,22,-3,10,9,20,8
13:45:02:335286,10,-9,22,-3,10,9,20,8
13:45:02:335990,-9,-35,-23,-1,2,16,12,-10
13:45:02:342013,-6,-22,-38,-19,-4,-14,-8,-6
13:45:02:357690,-6,-22,-38,-19,-4,-14,-8,-6
13:45:02:358481,-15,-22,-20,-12,-3,-15,-18,-4
13:45:02:364557,3,18,41,1,-5,-12,-7,0
13:45:02:372739,3,18,41,1,-5,-12,-7,0
13:45:02:373486,13,25,28,7,1,12,45,8
13:45:02:379485,30,28,10,11,-3,-4,-1,9
13:45:02:395157,30,28,10,11,-3,-4,-1,9
13:45:02:395998,21,7,10,4,-7,-12,-27,5
13:45:02:402054,-17,1,14,-6,4,-1,-1,-10
13:45:02:417785,-17,1,14,-6,4,-1,-1,-10
13:45:02:418501,10,-6,23,20,3,11,-20,-3
13:45:02:424497,-3,-15,-2,3,6,0,-7,-7
13:45:02:432698,-3,-15,-2,3,6,0,-7,-7
13:45:02:433463,-9,17,3,-2,-3,0,60,11
13:45:02:439497,23,8,16,2,-2,11,-4,4
13:45:02:455187,23,8,16,2,-2,11,-4,4
13:45:02:455963,-15,-16,-21,-2,6,-13,-23,-9
13:45:02:462034,-12,8,6,0,-9,-8,0,2
13:45:02:477723,-12,8,6,0,-9,-8,0,2
13:45:02:478537,-34,-3,-2,-9,-5,-13,-24,-10
13:45:02:484558,-26,-11,5,-4,-1,-3,-9,-9
13:45:02:492692,-26,-11,5,-4,-1,-3,-9,-9
13:45:02:493435,-12,4,6,-5,1,-14,-36,-5
13:45:02:499561,12,-5,-26,9,-2,2,-1,-1
13:45:02:515182,12,-5,-26,9,-2,2,-1,-1
13:45:02:515956,15,8,0,-7,-12,-2,-50,2
13:45:02:522010,2,15,13,15,-2,-1,-1,3
13:45:02:537752,2,15,13,15,-2,-1,-1,3
13:45:02:538591,1,-5,-36,19,4,-13,-5,-2
13:45:02:544513,1,-8,-5,2,-1,10,13,-1
13:45:02:552730,1,-8,-5,2,-1,10,13,-1
13:45:02:553506,5,-18,-28,4,11,17,43,-1
13:45:02:559522,-3,0,-9,-8,-5,-20,-8,-2
13:45:02:575283,-3,0,-9,-8,-5,-20,-8,-2
13:45:02:576038,17,-17,12,-4,0,15,37,6
13:45:02:581995,-14,-11,28,9,-5,0,3,-6
13:45:02:597792,-14,-11,28,9,-5,0,3,-6
13:45:02:598538,-5,12,41,-1,0,1,21,-6
13:45:02:604558,3,-22,-30,-28,-11,-4,-1,-2
13:45:02:612739,3,-22,-30,-28,-11,-4,-1,-2
13:45:02:613670,3,11,28,8,-3,3,-5,-1
13:45:02:626983,3,-9,-16,1,3,2,-9,7
13:45:02:635317,3,-9,-16,1,3,2,-9,7
13:45:02:636042,-3,23,31,-13,-4,16,6,-2
13:45:02:642010,-24,-1,16,-12,-10,-2,-18,-10
13:45:02:657723,-24,-1,16,-12,-10,-2,-18,-10
13:45:02:658529,9,4,-5,4,0,-22,-32,0
13:45:02:664468,-3,-14,-1,6,3,4,6,2
13:45:02:672761,-3,-14,-1,6,3,4,6,2
13:45:02:673501,-11,3,-17,8,5,-3,-1,-4
13:45:02:687043,-3,31,-11,2,10,2,11,2
13:45:02:695206,-3,31,-11,2,10,2,11,2
13:45:02:696014,0,9,-4,-15,-6,-11,-19,-8
13:45:02:702028,5,-7,-50,-6,0,1,17,-2
13:45:02:717840,5,-7,-50,-6,0,1,17,-2
13:45:02:718542,-4,8,-31,-5,-4,-1,11,5
13:45:02:724448,5,-4,18,4,-1,-12,-32,-7
13:45:02:732793,5,-4,18,4,-1,-12,-32,-7
13:45:02:733578,-1,2,7,6,-8,-3,6,-5
13:45:02:747067,3,-29,2,-1,5,-1,10,6
13:45:02:755266,3,-29,2,-1,5,-1,10,6
13:45:02:755980,8,-1,21,2,14,17,6,5
13:45:02:761977,-5,1,2,-16,-23,-13,-25,-7
13:45:02:777675,-5,1,2,-16,-23,-13,-25,-7
13:45:02:778469,-10,-14,-16,-6,-33,-3,-2,-3
13:45:02:784544,15,12,38,9,-7,22,5,-1
13:45:02:792725,15,12,38,9,-7,22,5,-1
13:45:02:793476,9,2,-12,1,19,8,37,8
13:45:02:806994,-19,2,14,2,9,-9,-3,0
13:45:02:815264,-19,2,14,2,9,-9,-3,0
13:45:02:816011,1,-3,15,5,8,-4,-18,-10
13:45:02:821991,-3,-5,-6,24,34,16,14,0
13:45:02:837702,-3,-5,-6,24,34,16,14,0
13:45:02:838481,-3,-6,-1,-1,-4,-13,-9,0
13:45:02:844520,-1,-1,-16,-6,-5,-4,8,0
13:45:02:852806,-1,-1,-16,-6,-5,-4,8,0
13:45:02:853534,-1,-19,-6,-19,-11,-9,-16,-2
13:45:02:867076,14,0,-18,-20,-14,-8,-10,-7
13:45:02:875212,14,0,-18,-20,-14,-8,-10,-7
13:45:02:875965,9,4,-16,-4,13,33,43,8
13:45:02:881943,4,-50,-23,-13,-13,-16,-15,-8
13:45:02:897715,4,-50,-23,-13,-13,-16,-15,-8
13:45:02:898455,-4,16,6,11,7,-1,-20,-3
13:45:02:904502,1,-1,-16,-7,17,3,-5,2
13:45:02:912719,1,-1,-16,-7,17,3,-5,2
13:45:02:913533,-7,-10,9,-3,-9,8,16,-1
13:45:02:926995,-38,-28,22,8,-7,-7,-4,-6
13:45:02:935299,-38,-28,22,8,-7,-7,-4,-6
13:45:02:935995,3,10,4,-7,0,-17,5,2
13:45:02:942013,6,17,-12,-3,-5,9,28,1
13:45:02:957695,6,17,-12,-3,-5,9,28,1
13:45:02:958505,-1,2,6,-7,-18,-17,-9,-6
13:45:02:964595,-6,31,-6,8,15,7,-7,-2
13:45:02:972736,-6,31,-6,8,15,7,-7,-2
13:45:02:973505,19,13,-3,-12,8,1,-6,3
13:45:02:987010,7,8,25,4,0,5,-1,4
13:45:02:995244,7,8,25,4,0,5,-1,4
13:45:02:996005,-13,-9,-28,-4,-11,-15,-16,-4
13:45:03:2101,10,-16,-19,-8,-7,-16,-10,0
13:45:03:17823,10,-16,-19,-8,-7,-16,-10,0
13:45:03:18633,-11,16,2,6,4,26,66,8
13:45:03:24514,-5,11,3,7,1,-5,9,-2
13:45:03:32749,-5,11,3,7,1,-5,9,-2
13:45:03:33514,18,-2,-12,-5,-2,-7,-47,-5
13:45:03:47053,2,17,27,-8,-4,-6,-6,4
13:45:03:55253,2,17,27,-8,-4,-6,-6,4
13:45:03:56023,-7,-14,-11,-11,14,18,-4,-2
13:45:03:62006,1,-8,-35,-11,-10,-9,-28,-2
13:45:03:77718,1,-8,-35,-11,-10,-9,-28,-2
13:45:03:78592,-6,18,1,-3,-21,-3,-28,-8
13:45:03:84545,10,25,16,7,-1,37,63,7
13:45:03:92738,10,25,16,7,-1,37,63,7
13:45:03:93561,0,-58,9,9,2,-17,-10,1
13:45:03:106969,-4,-2,-12,-4,-2,-2,-18,4
13:45:03:115268,-4,-2,-12,-4,-2,-2,-18,4
13:45:03:116027,-6,-13,-12,0,5,-4,-4,-6
13:45:03:121992,-10,-28,-20,-16,-16,3,13,-1
13:45:03:129603,-10,-28,-20,-16,-16,3,13,-1
13:45:03:137026,-2,23,27,4,2,-9,-7,1
13:45:03:144501,0,7,-3,-1,-4,-23,-22,-4
13:45:03:152762,0,7,-3,-1,-4,-23,-22,-4
13:45:03:153534,1,9,15,1,1,-4,-30,5
13:45:03:167065,2,-16,5,4,2,-2,-35,1
13:45:03:175208,2,-16,5,4,2,-2,-35,1
13:45:03:175965,2,-13,8,6,-4,23,37,3
13:45:03:182093,7,5,-8,10,20,11,-1,4
13:45:03:189581,7,5,-8,10,20,11,-1,4
13:45:03:197043,-6,-11,-20,-6,-17,-18,2,-6
13:45:03:204537,3,16,12,9,6,0,11,-4
13:45:03:212581,3,16,12,9,6,0,11,-4
13:45:03:219449,4,20,-11,5,1,-12,-15,-3
13:45:03:226943,-13,-11,0,-4,5,21,44,-2
13:45:03:235308,-13,-11,0,-4,5,21,44,-2
13:45:03:235990,-14,-34,-3,9,9,19,28,-8
13:45:03:241992,3,-38,-2,-7,15,-2,-9,-7
13:45:03:249730,3,-38,-2,-7,15,-2,-9,-7
13:45:03:256969,-12,-16,-32,-15,-3,6,23,4
13:45:03:264507,4,13,2,-4,-13,-3,8,-3
13:45:03:272780,4,13,2,-4,-13,-3,8,-3
13:45:03:273609,27,14,8,6,12,-1,-8,6
13:45:03:287034,2,28,28,-1,-2,-21,-23,0
13:45:03:295196,2,28,28,-1,-2,-21,-23,0
13:45:03:296015,-2,7,3,-23,-17,-2,-30,-3
13:45:03:302075,-3,-9,-30,6,5,3,-20,-6
13:45:03:309616,-3,-9,-30,6,5,3,-20,-6
13:45:03:317066,-1,20,11,7,-3,-3,12,0
13:45:03:324486,-2,-3,-9,0,-3,-8,-4,3
13:45:03:332808,-2,-3,-9,0,-3,-8,-4,3
13:45:03:333509,1,-6,4,19,17,-1,-12,-3
13:45:03:347059,-4,-2,0,10,-3,-17,-36,-7
13:45:03:355257,-4,-2,0,10,-3,-17,-36,-7
13:45:03:355989,-2,16,23,3,-1,1,13,1
13:45:03:361998,-2,-18,-13,-5,-13,9,82,6
13:45:03:369495,-2,-18,-13,-5,-13,9,82,6
13:45:03:377024,-5,-15,-14,-5,7,3,-3,-3
13:45:03:384574,2,6,10,-1,-16,-18,-43,-10
13:45:03:392675,2,6,10,-1,-16,-18,-43,-10
13:45:03:393472,0,-4,-5,-3,7,0,4,-2
13:45:03:406991,-6,-8,4,-11,8,8,7,0
13:45:03:415191,-6,-8,4,-11,8,8,7,0
13:45:03:415941,-7,19,-11,-6,-11,7,14,-5
13:45:03:421997,2,53,33,6,4,12,3,0
13:45:03:429633,2,53,33,6,4,12,3,0
13:45:03:437019,1,12,3,5,-1,-22,-64,0
13:45:03:444473,5,-12,-7,6,24,12,14,-3
13:45:03:452755,5,-12,-7,6,24,12,14,-3
13:45:03:453512,-7,-13,-9,-11,-20,-27,-18,-2
13:45:03:467123,0,-3,29,9,6,-2,-10,0
13:45:03:475224,0,-3,29,9,6,-2,-10,0
13:45:03:476001,-2,24,11,-12,1,-1,11,-4
13:45:03:481990,-11,-25,-15,-7,-7,-7,-7,-10
13:45:03:489564,-11,-25,-15,-7,-7,-7,-7,-10
13:45:03:497059,-3,-10,-4,-6,-21,-2,-8,-1
13:45:03:504517,-1,-1,9,8,7,-1,-9,2
13:45:03:512734,-1,-1,9,8,7,-1,-9,2
13:45:03:513523,-5,-11,-15,-5,-8,-15,12,-11
13:45:03:526968,5,10,9,3,13,9,32,11
13:45:03:535295,5,10,9,3,13,9,32,11
13:45:03:536012,-1,-8,5,-3,-5,-3,-11,5
13:45:03:541970,2,-10,9,10,-7,-13,-22,0
13:45:03:549667,2,-10,9,10,-7,-13,-22,0
13:45:03:556974,2,-22,-14,1,7,8,2,1
13:45:03:564546,-13,14,-12,-32,-23,-3,3,-4
13:45:03:572071,-13,14,-12,-32,-23,-3,3,-4
13:45:03:579596,-3,2,18,0,5,6,6,0
13:45:03:587054,-1,1,3,-1,15,19,44,2
13:45:03:595276,-1,1,3,-1,15,19,44,2
13:45:03:595943,-5,6,-24,8,14,15,0,-3
13:45:03:610161,0,2,3,-1,-17,-11,-22,-3
13:45:03:610981,0,2,3,-1,-17,-11,-22,-3
13:45:03:617081,3,-5,10,2,-3,-10,-5,1
13:45:03:624514,2,-6,-15,-6,-2,-1,15,1
13:45:03:632030,2,-6,-15,-6,-2,-1,15,1
13:45:03:639557,-1,-6,2,6,-1,-4,4,0
13:45:03:647105,0,16,1,1,-2,-2,-5,0
13:45:03:655218,0,16,1,1,-2,-2,-5,0
13:45:03:656004,-2,1,-4,-3,-7,-9,-15,-2
13:45:03:670227,0,-14,-23,-6,-10,-12,-18,-1
13:45:03:671001,0,-14,-23,-6,-10,-12,-18,-1
13:45:03:676983,1,7,0,-7,3,0,5,4
13:45:03:684620,0,-20,-11,2,-4,0,-12,5
13:45:03:692033,0,-20,-11,2,-4,0,-12,5
13:45:03:699496,-3,8,9,12,-7,-6,-1,-2
13:45:03:706962,2,1,-8,-13,-2,-4,-9,-3
13:45:03:715260,2,1,-8,-13,-2,-4,-9,-3
13:45:03:715977,-2,-6,3,12,23,20,12,1
13:45:03:730283,6,9,-10,14,1,6,-8,-1
13:45:03:730998,6,9,-10,14,1,6,-8,-1
13:45:03:736971,-2,9,3,-8,-16,7,25,-7
13:45:03:744460,-4,-18,9,4,-4,4,12,0
13:45:03:752085,-4,-18,9,4,-4,4,12,0
13:45:03:759475,-3,-12,-9,-10,-11,-25,-22,0
13:45:03:767057,0,-8,-10,3,10,10,2,-3
13:45:03:775233,0,-8,-10,3,10,10,2,-3
13:45:03:775974,-3,-1,-40,-9,0,1,-1,-2
13:45:03:790226,-2,-9,5,15,1,-8,-8,-2
13:45:03:791013,-2,-9,5,15,1,-8,-8,-2
13:45:03:797117,-1,21,-9,-2,5,2,-5,-1
13:45:03:804537,-5,5,0,-2,-13,-14,-28,-4
13:45:03:812079,-5,5,0,-2,-13,-14,-28,-4
13:45:03:819553,5,-9,15,4,20,34,35,3
13:45:03:827014,2,10,-9,-12,-1,2,-11,-1
13:45:03:835305,2,10,-9,-12,-1,2,-11,-1
13:45:03:836005,5,32,32,4,-8,-17,-19,4
13:45:03:850308,-4,-18,-33,-6,-8,-5,5,-1
13:45:03:851049,-4,-18,-33,-6,-8,-5,5,-1
13:45:03:856958,0,-13,-22,0,-8,-3,-6,-1
13:45:03:864542,-7,-1,21,0,-7,-12,-27,-7
13:45:03:872122,-7,-1,21,0,-7,-12,-27,-7
13:45:03:879576,1,15,11,-1,3,9,5,1
13:45:03:887014,1,10,16,-5,5,1,10,-3
13:45:03:895199,1,10,16,-5,5,1,10,-3
13:45:03:895984,-6,-20,-6,-6,-12,-6,35,-3
13:45:03:910145,1,-8,18,-7,-3,-4,28,0
13:45:03:910957,1,-8,18,-7,-3,-4,28,0
13:45:03:917059,-4,-18,6,3,7,-3,-8,-5
13:45:03:924510,-1,-38,1,-2,2,6,1,2
13:45:03:932077,-1,-38,1,-2,2,6,1,2
13:45:03:939502,-12,-37,-48,-19,-5,-10,-16,-7
13:45:03:947120,0,10,23,6,-4,2,2,3
13:45:03:955222,0,10,23,6,-4,2,2,3
13:45:03:956035,3,1,36,11,10,-1,-9,0
13:45:03:970226,-1,-2,-25,-6,3,25,53,3
13:45:03:970953,-1,-2,-25,-6,3,25,53,3
13:45:03:976997,12,14,8,-11,-5,6,6,12
13:45:03:984554,2,70,61,10,8,-6,-12,-12
13:45:03:992050,2,70,61,10,8,-6,-12,-12
13:45:03:999552,-5,-11,44,26,-2,-2,-12,-11
13:45:04:6974,0,18,-71,-40,-12,-8,-18,-5
13:45:04:15271,0,18,-71,-40,-12,-8,-18,-5
13:45:04:15979,6,93,13,-12,-5,-5,-22,3
13:45:04:30259,3,-21,38,12,-8,-35,-33,0
13:45:04:31034,3,-21,38,12,-8,-35,-33,0
13:45:04:36989,-5,0,8,15,10,14,22,1
13:45:04:44474,-12,-19,-78,-48,-25,-1,44,-2
13:45:04:52170,-12,-19,-78,-48,-25,-1,44,-2
13:45:04:59539,-9,-78,-10,6,1,11,6,-3
13:45:04:67062,4,14,55,24,3,-8,-24,2
13:45:04:75247,4,14,55,24,3,-8,-24,2
13:45:04:75991,9,18,-35,0,-7,-2,-2,2
13:45:04:90216,8,-9,-19,0,1,1,-7,9
13:45:04:90992,8,-9,-19,0,1,1,-7,9
13:45:04:97032,-4,7,-6,20,3,-3,-1,-2
13:45:04:104494,1,60,0,-17,4,-5,-10,-3
13:45:04:112045,1,60,0,-17,4,-5,-10,-3
13:45:04:119553,-14,-14,-39,-27,-12,-18,-22,1
13:45:04:127022,0,0,8,33,14,7,16,5
13:45:04:135296,0,0,8,33,14,7,16,5
13:45:04:135979,-9,-3,-13,-12,7,0,-9,-8
13:45:04:150239,-6,-34,-30,19,-3,-1,-10,1
13:45:04:151018,-6,-34,-30,19,-3,-1,-10,1
13:45:04:156969,1,33,24,-8,-8,-10,11,1
13:45:04:164562,-1,-3,-24,7,0,-2,10,7
13:45:04:172052,-1,-3,-24,7,0,-2,10,7
13:45:04:179541,10,7,-2,-6,0,2,-4,12
13:45:04:187009,-2,-4,9,5,-8,-2,-66,-12
13:45:04:195277,-2,-4,9,5,-8,-2,-66,-12
13:45:04:195967,0,-9,33,22,3,-2,5,-7
13:45:04:210162,3,36,26,10,22,14,7,1
13:45:04:210971,3,36,26,10,22,14,7,1
13:45:04:217068,-6,-15,-13,-15,-10,-5,-4,-10
13:45:04:224513,-4,-52,-3,-8,-18,-14,-11,-9
13:45:04:232051,-4,-52,-3,-8,-18,-14,-11,-9
13:45:04:239502,-1,-6,-9,-10,4,6,9,1
13:45:04:247051,-12,-39,28,3,-10,-2,1,-10
13:45:04:255233,-12,-39,28,3,-10,-2,1,-10
13:45:04:256082,-7,2,-43,15,7,2,-12,0
13:45:04:270228,0,-17,-22,0,-7,-13,-28,-5
13:45:04:271023,0,-17,-22,0,-7,-13,-28,-5
13:45:04:276969,1,-7,2,1,-3,-21,-51,-6
13:45:04:284588,4,-5,12,-7,16,6,37,3
13:45:04:292052,4,-5,12,-7,16,6,37,3
13:45:04:299559,3,11,2,-6,-3,7,0,-6
13:45:04:307002,-6,-6,-5,0,-2,3,20,-1
13:45:04:315254,-6,-6,-5,0,-2,3,20,-1
13:45:04:316033,-2,-41,-73,-33,-2,8,20,-4
13:45:04:330194,3,18,-8,-4,6,8,-3,-3
13:45:04:330992,3,18,-8,-4,6,8,-3,-3
13:45:04:337025,-3,-5,13,-5,-16,-11,29,3
13:45:04:344464,-5,0,-16,-15,4,29,-4,-3
13:45:04:352137,-5,0,-16,-15,4,29,-4,-3
13:45:04:359487,3,9,20,8,9,1,-2,-4
13:45:04:367082,4,9,-23,4,15,-14,-15,2
13:45:04:375240,4,9,-23,4,15,-14,-15,2
13:45:04:376021,-3,-5,17,-13,-24,-12,1,-2
13:45:04:390223,-8,-22,-12,10,11,17,9,3
13:45:04:390986,-8,-22,-12,10,11,17,9,3
13:45:04:397082,2,-18,-9,-9,0,-5,-13,2
13:45:04:404513,4,10,3,-9,-1,-9,14,10
13:45:04:412071,4,10,3,-9,-1,-9,14,10
13:45:04:419551,10,11,31,2,-13,-12,-32,-6
13:45:04:426974,5,21,-1,10,8,12,12,2
13:45:04:435234,5,21,-1,10,8,12,12,2
13:45:04:435957,6,84,18,3,3,-6,-20,-1
13:45:04:450288,-2,-31,1,10,-12,-6,8,-3
13:45:04:451035,-2,-31,1,10,-12,-6,8,-3
13:45:04:456969,-3,-16,28,23,5,-1,0,-1
13:45:04:464546,1,-4,13,-10,-3,1,-5,-3
13:45:04:472052,1,-4,13,-10,-3,1,-5,-3
13:45:04:479549,-3,-43,-13,14,21,31,69,10
13:45:04:487049,1,14,0,-19,-11,-28,-51,-6
13:45:04:494623,1,14,0,-19,-11,-28,-51,-6
13:45:04:502063,0,-17,5,11,19,9,3,3
13:45:04:510142,0,5,13,17,12,6,-9,0
13:45:04:511001,0,5,13,17,12,6,-9,0
13:45:04:517095,-2,0,9,8,-4,-8,7,1
13:45:04:532751,-3,5,-22,-28,-2,12,6,-2
13:45:04:533466,-3,5,-22,-28,-2,12,6,-2
13:45:04:539479,-2,-17,-9,-9,-10,-4,-1,0
13:45:04:547036,4,24,25,8,2,39,50,8
13:45:04:554544,4,24,25,8,2,39,50,8
13:45:04:561969,-7,14,-5,4,-7,4,-11,-5
13:45:04:570217,-6,10,-5,-11,-16,-26,-10,-8
13:45:04:571016,-6,10,-5,-11,-16,-26,-10,-8
13:45:04:576977,-3,-32,0,-9,3,6,17,1
13:45:04:592687,3,11,10,17,14,16,9,3
13:45:04:593509,3,11,10,17,14,16,9,3
13:45:04:599489,0,6,-5,-6,-10,-19,-17,-8
13:45:04:606945,-4,-4,-23,-20,6,11,39,2
13:45:04:614651,-4,-4,-23,-20,6,11,39,2
13:45:04:622012,3,24,-6,1,3,10,-2,5
13:45:04:630234,-10,-6,3,2,-28,-29,-19,-4
13:45:04:631036,-10,-6,3,2,-28,-29,-19,-4
13:45:04:636962,5,-19,-24,-9,4,8,-8,1
