Time,EMG1,EMG2,EMG3,EMG4,EMG5,EMG6,EMG7,EMG8
13:45:49:628178,-4,-4,-23,-22,-26,-13,-1,-4
13:45:49:636454,-4,-4,-23,-22,-26,-13,-1,-4
13:45:49:637173,-3,-1,14,17,-8,8,-3,-2
13:45:49:643133,0,1,9,8,13,-9,-17,-3
13:45:49:658897,0,1,9,8,13,-9,-17,-3
13:45:49:659709,-3,-8,-21,0,9,-16,13,-4
13:45:49:665738,5,0,-1,8,11,8,-1,6
13:45:49:673906,5,0,-1,8,11,8,-1,6
13:45:49:674688,0,2,-5,-14,5,-4,-14,2
13:45:49:688178,-5,-4,7,10,-31,-9,-2,-3
13:45:49:696432,-5,-4,7,10,-31,-9,-2,-3
13:45:49:697180,-2,-2,6,-15,2,-2,-27,-4
13:45:49:703249,4,-6,-8,-5,24,6,-17,-2
13:45:49:718967,4,-6,-8,-5,24,6,-17,-2
13:45:49:719648,-7,4,5,9,-21,10,24,-6
13:45:49:725658,4,1,7,17,14,20,8,4
13:45:49:741336,4,1,7,17,14,20,8,4
13:45:49:742158,-10,-2,-11,-7,-14,-10,14,4
13:45:49:748255,-5,-1,-1,-7,6,-2,-9,-4
13:45:49:756398,-5,-1,-1,-7,6,-2,-9,-4
13:45:49:757155,-2,1,4,-2,9,-14,-9,-1
13:45:49:763153,-3,-3,-8,-11,-16,-7,15,-4
13:45:49:778949,-3,-3,-8,-11,-16,-7,15,-4
13:45:49:779629,-1,-8,-4,-4,-17,-25,-31,-7
13:45:49:785689,3,2,-26,-9,-19,-34,-21,3
13:45:49:793891,3,2,-26,-9,-19,-34,-21,3
13:45:49:794648,16,4,1,6,29,7,-15,15
13:45:49:808173,0,6,4,-3,-3,34,25,7
13:45:49:816423,0,6,4,-3,-3,34,25,7
13:45:49:817188,-2,-4,3,-6,-15,-18,-9,-3
13:45:49:823139,-5,-2,9,5,-13,-10,1,2
13:45:49:838905,-5,-2,9,5,-13,-10,1,2
13:45:49:839642,-4,-6,-19,15,1,-6,4,-10
13:45:49:845759,-7,-4,-5,-7,-24,-31,-2,-5
13:45:49:853906,-7,-4,-5,-7,-24,-31,-2,-5
13:45:49:854672,7,7,17,24,43,50,4,10
13:45:49:868735,1,-2,1,-13,-10,-20,-24,-9
13:45:49:876392,1,-2,1,-13,-10,-20,-24,-9
13:45:49:877137,0,-2,0,-14,-17,-20,14,-1
13:45:49:883295,2,-4,3,10,6,7,11,2
13:45:49:898886,2,-4,3,10,6,7,11,2
13:45:49:899627,-3,-4,-4,3,0,-1,-23,-1
13:45:49:905702,4,-2,-6,-3,18,13,5,0
13:45:49:913876,4,-2,-6,-3,18,13,5,0
13:45:49:914632,-2,-2,-3,-18,2,-3,-1,-6
13:45:49:928209,-4,-1,-1,10,24,14,-3,-1
13:45:49:936416,-4,-1,-1,10,24,14,-3,-1
13:45:49:937148,-2,0,-3,-10,5,6,30,-2
13:45:49:950754,0,2,-5,-6,-22,-17,-14,-3
13:45:49:958985,0,2,-5,-6,-22,-17,-14,-3
13:45:49:959698,2,2,-3,11,5,14,-4,3
13:45:49:965747,-2,3,-2,-3,-5,-13,-2,-4
13:45:49:973906,-2,3,-2,-3,-5,-13,-2,-4
13:45:49:974630,-1,-4,-17,-28,-2,-3,10,0
13:45:49:988183,-3,-3,7,28,41,19,12,-2
13:45:49:996418,-3,-3,7,28,41,19,12,-2
13:45:49:997148,2,4,-1,-4,-13,20,44,7
13:45:50:3230,-3,-1,-1,-20,-10,1,11,-4
13:45:50:35990,-3,-1,-1,-20,-10,1,11,-4
13:45:50:36665,-7,-9,1,-8,-20,10,-1,-6
13:45:50:37484,-6,-2,-4,15,1,4,4,-3
13:45:50:38298,-6,-2,-4,15,1,4,4,-3
13:45:50:40659,-2,1,21,11,-7,-9,-20,-1
13:45:50:48232,-1,0,-7,-14,-12,-12,-9,1
13:45:50:56401,-1,0,-7,-14,-12,-12,-9,1
13:45:50:57165,-4,-2,-8,-16,-24,-31,-8,-6
13:45:50:63234,2,0,11,16,-8,41,30,4
13:45:50:87119,2,0,11,16,-8,41,30,4
13:45:50:87894,3,0,-1,1,-10,-14,-6,0
13:45:50:88711,5,3,8,3,5,-17,-2,-1
13:45:50:93153,5,3,8,3,5,-17,-2,-1
13:45:50:100880,6,2,12,2,0,-17,-6,-1
13:45:50:108175,0,6,19,11,15,26,4,-4
13:45:50:116421,0,6,19,11,15,26,4,-4
13:45:50:117149,-2,-5,2,9,-2,-11,-4,-8
13:45:50:130787,-1,-5,2,0,-30,-28,-25,0
13:45:50:147117,-1,-5,2,0,-30,-28,-25,0
13:45:50:147852,2,2,-14,4,26,40,-3,3
13:45:50:148628,-3,-2,-5,-15,-2,-17,-26,-3
13:45:50:161426,-3,-2,-5,-15,-2,-17,-26,-3
13:45:50:162205,1,-2,-3,9,9,3,-22,-3
13:45:50:168237,1,-2,-7,-7,-16,30,15,3
13:45:50:176417,1,-2,-7,-7,-16,30,15,3
13:45:50:177177,7,0,-1,-3,6,-8,-7,-2
13:45:50:190659,-1,-4,-4,-28,-3,-12,-6,1
13:45:50:198984,-1,-4,-4,-28,-3,-12,-6,1
13:45:50:199735,-8,-3,4,3,-12,-13,12,-4
13:45:50:205681,-5,-8,-18,0,-16,-26,-10,-6
13:45:50:221880,-5,-8,-18,0,-16,-26,-10,-6
13:45:50:237732,-7,-1,-2,6,1,9,2,-1
13:45:50:238508,-5,-5,-8,-16,-27,-25,-14,-4
13:45:50:239326,-5,-5,-8,-16,-27,-25,-14,-4
13:45:50:240177,0,0,-4,4,18,5,-3,0
13:45:50:250767,3,2,-4,-3,3,5,17,0
13:45:50:258897,3,2,-4,-3,3,5,17,0
13:45:50:259653,-8,-2,-1,-31,-21,-8,3,-1
13:45:50:265622,-2,0,2,-6,29,0,-10,-1
13:45:50:273243,-2,0,2,-6,29,0,-10,-1
13:45:50:280815,-6,-3,-6,-9,-18,1,3,-5
13:45:50:297067,-1,-1,8,58,28,3,6,3
13:45:50:297823,-1,-1,8,58,28,3,6,3
13:45:50:298619,-1,-4,-2,-7,-7,-3,-5,-3
13:45:50:311186,-3,-3,4,-2,22,21,21,-1
13:45:50:318979,-3,-3,4,-2,22,21,21,-1
13:45:50:319651,0,-2,1,4,25,-19,-10,-1
13:45:50:325678,6,3,4,2,27,50,23,8
13:45:50:333309,6,3,4,2,27,50,23,8
13:45:50:340677,0,-1,-2,-12,-37,-20,-2,-6
13:45:50:356990,4,7,12,-9,18,13,-5,5
13:45:50:357820,4,7,12,-9,18,13,-5,5
13:45:50:358638,2,-3,-16,0,-13,-5,-2,2
13:45:50:370654,-6,-2,7,17,-25,-28,-13,-7
13:45:50:378908,-6,-2,7,17,-25,-28,-13,-7
13:45:50:379628,-1,-4,-5,24,6,2,2,0
13:45:50:385718,-3,-3,-16,-37,-29,-2,6,-1
13:45:50:393177,-3,-3,-16,-37,-29,-2,6,-1
13:45:50:400776,-5,0,-9,-10,15,-10,-12,-11
13:45:50:408132,-2,0,-11,1,0,4,11,-4
13:45:50:416929,-2,0,-11,1,0,4,11,-4
13:45:50:423159,3,-2,1,1,-3,6,-7,7
13:45:50:439556,-1,-4,-6,-2,-7,-29,-16,-3
13:45:50:440326,-1,-4,-6,-2,-7,-29,-16,-3
13:45:50:441089,0,4,25,6,-18,-16,-13,-2
13:45:50:445682,2,-3,-6,34,26,17,0,2
13:45:50:453270,2,-3,-6,34,26,17,0,2
13:45:50:460614,2,-2,-3,2,15,-2,7,1
13:45:50:468184,-1,-4,0,5,7,7,13,3
13:45:50:476430,-1,-4,0,5,7,7,13,3
13:45:50:477174,-9,-3,-3,-5,-23,-9,24,-8
13:45:50:490629,-2,5,-15,-53,-27,-22,-22,-5
13:45:50:498966,-2,5,-15,-53,-27,-22,-22,-5
13:45:50:499706,-1,3,-6,7,16,20,6,7
13:45:50:505660,-1,-4,9,20,1,-9,0,-3
13:45:50:513314,-1,-4,9,20,1,-9,0,-3
13:45:50:520673,3,4,-4,-12,-6,-3,-2,0
13:45:50:528174,1,-1,-25,-10,14,-2,10,-4
13:45:50:536392,1,-1,-25,-10,14,-2,10,-4
13:45:50:537223,-5,-2,9,-3,14,-8,-14,-6
13:45:50:550694,-4,0,4,-14,-10,-21,-38,-4
13:45:50:558885,-4,0,4,-14,-10,-21,-38,-4
13:45:50:559728,5,0,-5,0,1,20,44,5
13:45:50:565747,0,-3,7,0,-11,-14,-21,-6
13:45:50:573269,0,-3,7,0,-11,-14,-21,-6
13:45:50:580769,-3,-1,2,4,-21,6,-8,1
13:45:50:588237,-4,5,5,9,12,14,7,-4
13:45:50:596369,-4,5,5,9,12,14,7,-4
13:45:50:597212,-2,-1,-7,-3,5,2,-6,-3
13:45:50:610693,-3,2,9,-9,-22,-21,-3,-1
13:45:50:618986,-3,2,9,-9,-22,-21,-3,-1
13:45:50:619731,0,0,7,16,29,8,-20,0
13:45:50:625706,-4,-6,-4,-15,-22,-52,-16,-6
13:45:50:633263,-4,-6,-4,-15,-22,-52,-16,-6
13:45:50:640691,-5,-2,2,11,2,1,-27,-4
13:45:50:648215,-2,2,8,12,13,10,-2,6
13:45:50:656413,-2,2,8,12,13,10,-2,6
13:45:50:657161,-1,0,0,-3,3,1,13,-6
13:45:50:670668,-11,-10,-11,-25,-34,-14,-1,-4
13:45:50:678982,-11,-10,-11,-25,-34,-14,-1,-4
13:45:50:679650,-2,1,10,8,-1,2,-3,-11
13:45:50:685774,7,-1,1,4,6,17,13,6
13:45:50:693199,7,-1,1,4,6,17,13,6
13:45:50:700764,4,-2,-11,-24,-47,-25,-6,8
13:45:50:708135,7,8,4,16,46,32,-4,9
13:45:50:716405,7,8,4,16,46,32,-4,9
13:45:50:717165,-7,-2,-7,-2,2,20,31,-11
13:45:50:730685,22,-4,3,-4,-19,16,10,-8
13:45:50:738860,22,-4,3,-4,-19,16,10,-8
13:45:50:739637,-1,-4,-6,-2,-28,-36,-20,4
13:45:50:745612,-3,1,-8,0,12,22,-9,0
13:45:50:753288,-3,1,-8,0,12,22,-9,0
13:45:50:760636,-8,-3,-5,4,12,5,8,-5
13:45:50:768227,-1,-4,-14,-9,-7,-1,3,-2
13:45:50:776386,-1,-4,-14,-9,-7,-1,3,-2
13:45:50:777151,4,-9,0,-17,7,9,3,8
13:45:50:790641,1,8,17,28,14,5,4,4
13:45:50:798952,1,8,17,28,14,5,4,4
13:45:50:799652,-21,-5,-4,-19,-24,-21,-29,-34
13:45:50:805685,-12,-3,11,6,26,23,21,-3
13:45:50:813327,-12,-3,11,6,26,23,21,-3
13:45:50:820693,8,3,5,3,1,-1,7,27
13:45:50:828162,-8,-4,-6,-3,-18,-9,-10,-1
13:45:50:836434,-8,-4,-6,-3,-18,-9,-10,-1
13:45:50:837210,1,5,3,8,-10,-16,-4,-2
13:45:50:850772,-14,-14,-9,-4,-1,36,74,10
13:45:50:858892,-14,-14,-9,-4,-1,36,74,10
13:45:50:859646,5,-15,-18,1,15,16,17,14
13:45:50:865748,9,15,-9,-15,-41,-54,-55,-5
13:45:50:873250,9,15,-9,-15,-41,-54,-55,-5
13:45:50:880710,-11,19,2,9,-7,16,0,-13
13:45:50:888163,3,1,9,18,44,22,1,-8
13:45:50:896338,3,1,9,18,44,22,1,-8
13:45:50:897199,27,6,-4,2,-5,-18,-18,10
13:45:50:910682,-7,-3,16,-23,-39,-25,-12,12
13:45:50:918947,-7,-3,16,-23,-39,-25,-12,12
13:45:50:919659,7,10,17,1,30,15,13,8
13:45:50:925672,0,-13,-22,-10,17,6,2,0
13:45:50:933258,0,-13,-22,-10,17,6,2,0
13:45:50:940693,-1,-2,8,34,17,-1,-7,0
13:45:50:948213,2,-2,-17,2,2,11,27,6
13:45:50:956378,2,-2,-17,2,2,11,27,6
13:45:50:957173,-14,-53,-24,-32,-31,-23,1,-6
13:45:50:970667,-11,-7,-24,4,11,21,22,-12
13:45:50:978976,-11,-7,-24,4,11,21,22,-12
13:45:50:979668,-3,46,43,2,13,4,3,-13
13:45:50:985734,-5,-27,-7,-23,-29,-20,-19,4
13:45:50:993178,-5,-27,-7,-23,-29,-20,-19,4
13:45:51:709,-2,-11,-42,-29,-24,-8,-18,-8
13:45:51:8166,4,4,6,14,-14,3,-10,-8
13:45:51:15841,4,4,6,14,-14,3,-10,-8
13:45:51:23172,9,16,19,21,43,32,7,9
13:45:51:30683,0,5,13,-1,-7,13,37,3
13:45:51:38960,0,5,13,-1,-7,13,37,3
13:45:51:39669,1,-8,-12,1,13,24,24,2
13:45:51:53888,-22,-12,7,-1,-5,-51,-44,-20
13:45:51:54674,-22,-12,7,-1,-5,-51,-44,-20
13:45:51:60634,-6,-31,-13,6,15,-4,-9,-3
13:45:51:68241,-1,18,13,-12,-8,-24,-23,-11
13:45:51:75754,-1,18,13,-12,-8,-24,-23,-11
13:45:51:83171,-3,-2,-9,-14,7,6,-8,3
13:45:51:90720,3,13,59,12,14,33,21,11
13:45:51:98928,3,13,59,12,14,33,21,11
13:45:51:99658,1,-6,-3,-33,-76,-100,-100,-2
13:45:51:113961,29,1,4,15,22,60,31,22
13:45:51:114690,29,1,4,15,22,60,31,22
13:45:51:128829,23,19,1,9,-4,30,54,11
13:45:51:129607,-1,-20,-7,-24,-13,-31,-30,-9
13:45:51:135745,-1,-20,-7,-24,-13,-31,-30,-9
13:45:51:143140,-20,-8,20,7,-10,-12,-17,-17
13:45:51:150710,4,15,-24,19,11,1,4,7
13:45:51:158873,4,15,-24,19,11,1,4,7
13:45:51:159701,-5,-8,-10,-1,20,16,14,3
13:45:51:173860,-5,0,-18,-1,-2,-27,-15,-3
13:45:51:174650,-5,0,-18,-1,-2,-27,-15,-3
13:45:51:180675,15,13,21,8,10,29,51,30
13:45:51:188174,10,8,-38,-29,-6,-13,-28,-6
13:45:51:195701,10,8,-38,-29,-6,-13,-28,-6
13:45:51:203213,10,32,-9,5,-2,-10,-7,5
13:45:51:210649,-12,-12,-22,0,-14,-24,3,-10
13:45:51:218976,-12,-12,-22,0,-14,-24,3,-10
13:45:51:219716,-7,-8,-3,7,-5,-5,-8,-3
13:45:51:233968,-6,10,-8,-2,10,21,3,-6
13:45:51:234653,-6,10,-8,-2,10,21,3,-6
13:45:51:240673,-17,-7,18,8,0,-3,-11,-17
13:45:51:248191,4,-9,13,3,35,19,-11,14
13:45:51:255783,4,-9,13,3,35,19,-11,14
13:45:51:263343,-16,-10,6,1,-22,-29,0,-18
13:45:51:270705,-3,-8,2,-14,-31,7,11,-2
13:45:51:278885,-3,-8,2,-14,-31,7,11,-2
13:45:51:279675,-5,-1,-13,-9,-6,16,41,-7
13:45:51:293816,-6,-3,-1,18,13,-14,-18,-9
13:45:51:294615,-6,-3,-1,18,13,-14,-18,-9
13:45:51:300773,1,-9,-14,-14,-14,-17,-19,0
13:45:51:308144,1,12,3,20,24,9,-3,0
13:45:51:315766,1,12,3,20,24,9,-3,0
13:45:51:323208,4,5,0,15,3,-5,-5,3
13:45:51:330760,-9,-10,-1,-18,-29,-19,-3,-18
13:45:51:338894,-9,-10,-1,-18,-29,-19,-3,-18
13:45:51:339663,5,4,-10,1,31,16,-6,8
13:45:51:362056,-3,-9,-1,3,-26,-40,-18,-8
13:45:51:362891,-3,-9,-1,3,-26,-40,-18,-8
13:45:51:363637,6,6,11,-1,12,33,1,7
13:45:51:368204,-4,11,8,3,8,1,10,-1
13:45:51:375717,-4,11,8,3,8,1,10,-1
13:45:51:392058,0,-1,-10,-19,3,-5,2,-5
13:45:51:392791,0,-2,-2,-4,-13,-1,0,0
13:45:51:393630,0,-2,-2,-4,-13,-1,0,0
13:45:51:398156,1,-17,-12,4,39,-5,-8,-6
13:45:51:413943,8,-4,-1,0,-16,18,38,10
13:45:51:414663,8,-4,-1,0,-16,18,38,10
13:45:51:420711,6,9,-3,15,55,26,11,4
13:45:51:428179,1,8,11,-1,0,-9,-8,4
13:45:51:435835,1,8,11,-1,0,-9,-8,4
13:45:51:443217,-4,1,8,-35,-48,-26,-13,-4
13:45:51:452069,-5,-15,-16,-8,14,7,-5,-3
13:45:51:452751,-5,-15,-16,-8,14,7,-5,-3
13:45:51:465663,-3,-13,-5,-1,-4,5,-3,-1
13:45:51:473850,4,4,-4,-20,-17,-5,-3,0
13:45:51:474680,4,4,-4,-20,-17,-5,-3,0
13:45:51:480779,-4,-6,-4,2,15,34,25,-4
13:45:51:488207,5,4,15,5,12,-5,-5,-1
13:45:51:495800,5,4,15,5,12,-5,-5,-1
13:45:51:503198,-3,-22,23,-2,-48,-35,-9,-2
13:45:51:511339,-1,-1,-5,-3,8,12,-6,-6
13:45:51:512149,-1,-1,-5,-3,8,12,-6,-6
13:45:51:518220,2,11,-15,2,-24,-11,8,-2
13:45:51:534334,-5,-16,-7,-14,-4,-2,-3,-4
13:45:51:535106,-5,-16,-7,-14,-4,-2,-3,-4
13:45:51:540713,0,3,15,55,6,12,-3,0
13:45:51:548200,2,28,-3,8,12,-6,1,-1
13:45:51:555690,2,28,-3,8,12,-6,1,-1
13:45:51:563188,-7,3,-7,-29,-34,-32,-11,-3
13:45:51:571397,24,18,-1,17,30,39,20,20
13:45:51:572164,24,18,-1,17,30,39,20,20
13:45:51:585810,1,-16,33,-9,-23,-12,-9,14
13:45:51:593824,-22,3,-1,-14,-17,-30,-26,-33
13:45:51:594631,-22,3,-1,-14,-17,-30,-26,-33
13:45:51:600814,-5,-2,-21,10,14,27,3,-7
13:45:51:608215,4,-11,-5,22,9,16,-3,2
13:45:51:615750,4,-11,-5,22,9,16,-3,2
13:45:51:623184,-6,-3,-3,10,-9,-14,22,-4
13:45:51:632003,7,-1,6,1,19,0,4,20
13:45:51:632815,7,-1,6,1,19,0,4,20
13:45:51:638182,-10,-2,-10,-31,44,-2,-32,-4
13:45:51:662005,0,4,-1,-14,-23,-18,-12,-1
13:45:51:662805,0,4,-1,-14,-23,-18,-12,-1
13:45:51:663587,-13,-2,-14,-11,-14,-7,-9,-10
13:45:51:668242,-7,-10,7,20,7,-13,-18,-9
13:45:51:683856,-7,-10,7,20,7,-13,-18,-9
13:45:51:684617,-2,15,11,17,2,5,-1,-1
13:45:51:691314,9,-4,9,27,22,20,14,11
13:45:51:692152,9,-4,9,27,22,20,14,11
13:45:51:698176,5,-28,-8,-36,6,6,1,-2
13:45:51:713832,-2,-18,-8,-10,2,8,28,-4
13:45:51:714620,-2,-18,-8,-10,2,8,28,-4
13:45:51:720755,21,29,16,9,-15,-15,-17,7
13:45:51:728188,-4,19,4,-6,-27,-21,-11,-16
13:45:51:735784,-4,19,4,-6,-27,-21,-11,-16
13:45:51:743153,-1,16,-1,5,26,10,6,-2
13:45:51:751466,-10,4,15,8,-7,-11,-4,-4
13:45:51:752192,-10,4,15,8,-7,-11,-4,-4
13:45:51:758116,5,-6,1,-5,-15,9,11,3
13:45:51:773867,-4,12,7,21,12,14,-1,6
13:45:51:774649,-4,12,7,21,12,14,-1,6
13:45:51:780718,14,5,5,12,8,12,1,14
13:45:51:788179,-13,-29,-38,-81,-56,-29,-6,-33
13:45:51:795785,-13,-29,-38,-81,-56,-29,-6,-33
13:45:51:812035,-5,1,-16,-16,2,0,-3,-8
13:45:51:812785,-6,-73,-17,-9,-17,12,1,9
13:45:51:813640,-6,-73,-17,-9,-17,12,1,9
13:45:51:818212,6,22,11,40,-4,0,5,-3
13:45:51:833943,9,34,-2,-10,-4,-4,-14,19
13:45:51:834650,9,34,-2,-10,-4,-4,-14,19
13:45:51:840641,-10,-20,10,18,-4,-12,-9,6
13:45:51:848209,11,19,-2,9,1,22,37,15
13:45:51:855716,11,19,-2,9,1,22,37,15
13:45:51:863165,-1,37,-3,-14,-6,-6,-3,-8
13:45:51:871380,-6,25,35,17,12,10,1,4
13:45:51:872177,-6,25,35,17,12,10,1,4
13:45:51:878176,6,-43,-59,4,3,14,6,13
13:45:51:893859,-11,-20,-4,18,-20,-34,-28,-6
13:45:51:894665,-11,-20,-4,18,-20,-34,-28,-6
13:45:51:900762,-2,20,23,-7,26,31,8,-1
13:45:51:908195,-36,-81,-77,-39,-12,-1,7,-22
13:45:51:915794,-36,-81,-77,-39,-12,-1,7,-22
13:45:51:923204,-21,-32,-18,-6,-15,-38,-18,-15
13:45:51:931445,2,20,5,28,77,22,-14,-10
13:45:51:932191,2,20,5,28,77,22,-14,-10
13:45:51:938199,3,-14,1,-31,-28,-10,4,-3
13:45:51:953868,15,9,-19,0,10,2,-2,13
13:45:51:954694,15,9,-19,0,10,2,-2,13
13:45:51:960641,8,0,6,6,14,33,57,16
13:45:51:976364,-12,-17,-31,-24,-19,-40,4,-16
13:45:51:977158,-12,-17,-31,-24,-19,-40,4,-16
13:45:51:983202,-14,4,-1,-1,4,-5,-10,-37
13:45:51:991348,24,7,28,8,0,5,-10,13
13:45:51:992193,24,7,28,8,0,5,-10,13
13:45:52:5637,0,-19,-10,4,13,-14,-33,-9
13:45:52:13916,-3,3,31,39,-16,-7,-7,-6
13:45:52:14693,-3,3,31,39,-16,-7,-7,-6
13:45:52:20703,-4,8,-24,-51,-9,2,-7,-1
13:45:52:36458,12,12,4,-20,-7,8,-3,14
13:45:52:37177,12,12,4,-20,-7,8,-3,14
13:45:52:43100,2,13,5,5,-39,-8,5,20
13:45:52:51490,4,23,-11,-14,-11,-13,23,4
13:45:52:52150,4,23,-11,-14,-11,-13,23,4
13:45:52:65698,7,9,3,-7,14,16,-5,0
13:45:52:73869,-5,11,36,-42,-4,4,-8,0
13:45:52:74645,-5,11,36,-42,-4,4,-8,0
13:45:52:80758,-3,-3,-10,-5,6,-22,-7,-13
13:45:52:96466,2,20,16,17,5,16,0,3
13:45:52:97168,2,20,16,17,5,16,0,3
13:45:52:103206,-9,-19,-18,-24,-15,-9,-16,-10
13:45:52:111355,-1,3,43,46,27,-4,-20,2
13:45:52:112160,-1,3,43,46,27,-4,-20,2
13:45:52:125680,22,-12,4,-1,9,17,13,12
13:45:52:133870,-1,4,-31,14,-6,-11,-5,-10
13:45:52:134651,-1,4,-31,14,-6,-11,-5,-10
13:45:52:140602,-2,-5,-16,-16,12,-7,-9,2
13:45:52:156331,-8,13,6,-20,-5,-6,-2,-9
13:45:52:157317,-8,13,6,-20,-5,-6,-2,-9
13:45:52:163179,1,11,2,-11,-13,7,9,1
13:45:52:171348,-2,8,-2,24,14,16,13,3
13:45:52:172130,-2,8,-2,24,14,16,13,3
13:45:52:185759,-1,-3,18,15,10,9,-1,2
13:45:52:193812,-6,-21,1,-25,-22,-15,2,-2
13:45:52:194608,-6,-21,1,-25,-22,-15,2,-2
13:45:52:200701,-10,-25,-13,16,31,41,62,21
13:45:52:216482,-2,3,4,-4,-46,-22,-10,-8
13:45:52:217189,-2,3,4,-4,-46,-22,-10,-8
13:45:52:223208,-5,21,31,-2,-7,9,-11,-1
13:45:52:231140,8,-13,4,-3,22,18,22,22
13:45:52:238238,8,-13,4,-3,22,18,22,22
13:45:52:245763,-7,6,-23,6,-18,-30,-19,-14
13:45:52:253863,-4,18,-14,-14,-15,-12,-13,-4
13:45:52:254667,-4,18,-14,-14,-15,-12,-13,-4
13:45:52:260594,3,-6,12,12,3,22,-2,-5
13:45:52:276337,-7,4,-5,10,4,3,1,-4
13:45:52:277116,-7,4,-5,10,4,3,1,-4
13:45:52:283267,-9,-23,-23,-11,-19,-10,-6,-2
13:45:52:291352,-3,-16,-3,-1,10,17,6,-1
13:45:52:292175,-3,-16,-3,-1,10,17,6,-1
13:45:52:305721,2,7,-6,2,-15,-24,-15,0
13:45:52:313937,-5,-12,-21,-33,-10,-25,-14,-11
13:45:52:314666,-5,-12,-21,-33,-10,-25,-14,-11
13:45:52:320724,1,20,28,42,26,14,-13,3
13:45:52:336397,1,-8,2,4,13,4,-2,-4
13:45:52:337145,1,-8,2,4,13,4,-2,-4
13:45:52:343170,2,11,11,11,24,-2,2,-4
13:45:52:367146,2,11,11,11,24,-2,2,-4
13:45:52:367795,3,-2,-6,-20,-10,-1,-3,0
13:45:52:368608,-7,-9,0,20,-10,-24,-7,3
13:45:52:373832,-7,-9,0,20,-10,-24,-7,3
13:45:52:374687,3,-3,0,23,10,8,5,7
13:45:52:380708,-3,24,-6,-35,-2,2,-7,-6
13:45:52:396499,-3,24,-6,-35,-2,2,-7,-6
13:45:52:397171,0,16,-3,-22,-3,-1,4,7
13:45:52:403186,2,-13,-13,7,-12,-18,-4,-10
13:45:52:418950,2,-13,-13,7,-12,-18,-4,-10
13:45:52:419665,1,8,9,33,34,25,11,-2
13:45:52:425590,-1,-4,-11,-25,-17,0,8,-1
13:45:52:433990,-1,-4,-11,-25,-17,0,8,-1
13:45:52:434707,-2,-11,6,19,-2,6,-2,0
13:45:52:440654,4,-3,0,26,15,-1,3,2
13:45:52:456412,4,-3,0,26,15,-1,3,2
13:45:52:457181,-4,-7,-1,-16,-1,-7,-2,-7
13:45:52:463321,-13,-25,-20,-32,-42,-61,-47,-15
13:45:52:478887,-13,-25,-20,-32,-42,-61,-47,-15
13:45:52:479650,3,3,16,10,27,54,32,5
13:45:52:485742,3,4,3,3,-11,-16,7,3
13:45:52:493866,3,4,3,3,-11,-16,7,3
13:45:52:494645,-1,-8,-3,7,3,-5,-8,-2
13:45:52:500765,6,4,-1,11,0,4,3,0
13:45:52:516425,6,4,-1,11,0,4,3,0
13:45:52:517191,-3,-9,1,-12,-29,-11,-8,-5
13:45:52:523149,-1,0,2,-7,12,9,5,-3
13:45:52:538908,-1,0,2,-7,12,9,5,-3
13:45:52:539668,1,10,-5,-13,-14,-36,-34,-3
13:45:52:545727,-2,-1,-1,0,2,15,-5,-1
13:45:52:553872,-2,-1,-1,0,2,15,-5,-1
13:45:52:554664,-7,-8,-1,8,-8,-1,-13,-11
13:45:52:560603,-3,0,6,-4,18,8,13,1
13:45:52:576356,-3,0,6,-4,18,8,13,1
13:45:52:577117,0,0,-13,-8,-15,-26,-11,-7
13:45:52:583226,-3,5,17,31,19,9,-3,1
13:45:52:598926,-3,5,17,31,19,9,-3,1
13:45:52:599619,-4,-19,-33,-29,-21,-7,-4,-1
13:45:52:605686,-1,-25,-19,-21,-18,-8,0,0
13:45:52:613949,-1,-25,-19,-21,-18,-8,0,0
13:45:52:614633,0,-4,2,-13,6,-23,-23,0
13:45:52:620668,6,19,18,23,36,23,-11,5
13:45:52:644533,6,19,18,23,36,23,-11,5
13:45:52:645315,-3,-1,3,-1,-28,3,29,2
13:45:52:646114,2,-3,3,-7,1,1,-1,-3
13:45:52:658952,2,-3,3,-7,1,1,-1,-3
13:45:52:659676,2,8,5,26,-5,-22,-9,-2
13:45:52:665684,-2,-3,-7,13,21,22,19,4
13:45:52:673896,-2,-3,-7,13,21,22,19,4
13:45:52:674678,0,-1,7,4,-16,1,-3,-1
13:45:52:680696,0,4,-2,-3,-12,14,-2,-1
13:45:52:696516,0,4,-2,-3,-12,14,-2,-1
13:45:52:697147,1,6,13,-8,-5,20,21,1
13:45:52:703184,-5,1,3,0,-15,-35,-37,-6
13:45:52:718952,-5,1,3,0,-15,-35,-37,-6
13:45:52:719657,-3,-6,-16,-14,7,2,7,2
13:45:52:725593,-4,-8,6,1,11,-5,1,-5
13:45:52:733944,-4,-8,6,1,11,-5,1,-5
13:45:52:734664,4,3,6,18,26,12,-5,1
13:45:52:740654,-3,-6,-16,-19,-27,-18,0,-2
13:45:52:756448,-3,-6,-16,-19,-27,-18,0,-2
13:45:52:757171,-1,-3,-4,20,35,25,6,1
13:45:52:763246,0,5,-2,-14,-10,-3,6,-3
13:45:52:770764,0,5,-2,-14,-10,-3,6,-3
13:45:52:778165,-4,-3,4,13,7,4,-8,-9
13:45:52:785758,-1,8,4,-9,-5,1,-29,-7
13:45:52:793856,-1,8,4,-9,-5,1,-29,-7
13:45:52:794675,-4,-2,7,9,-17,-3,18,2
13:45:52:800775,1,4,-1,19,-4,23,29,3
13:45:52:816426,1,4,-1,19,-4,23,29,3
13:45:52:817173,2,-12,-11,7,-7,1,-9,-2
13:45:52:823124,-2,-6,-9,-19,-7,-10,3,-1
13:45:52:830746,-2,-6,-9,-19,-7,-10,3,-1
13:45:52:838162,-5,-9,-30,-32,-16,-25,-3,0
13:45:52:845752,1,-3,3,8,22,18,-1,3
13:45:52:853853,1,-3,3,8,22,18,-1,3
13:45:52:854622,1,16,13,-1,-28,-7,15,2
13:45:52:860675,-4,-20,-17,-29,-26,25,11,-5
13:45:52:876396,-4,-20,-17,-29,-26,25,11,-5
13:45:52:877189,1,-1,-8,-28,10,12,-15,-6
13:45:52:883231,-1,-2,12,-14,-37,-25,12,-4
13:45:52:890694,-1,-2,12,-14,-37,-25,12,-4
13:45:52:898255,-1,-3,-6,-2,4,-7,-6,-2
13:45:52:905694,1,3,14,9,-1,-5,2,3
13:45:52:921414,1,3,14,9,-1,-5,2,3
13:45:52:922168,2,1,5,41,6,-22,-29,-2
13:45:52:928203,0,2,-5,9,16,20,6,5
13:45:52:936400,0,2,-5,9,16,20,6,5
13:45:52:937155,0,3,4,-2,9,18,19,-2
13:45:52:943142,-1,-4,-12,9,29,-2,-6,-4
13:45:52:950776,-1,-4,-12,9,29,-2,-6,-4
13:45:52:958107,-3,-3,-8,3,-2,13,33,0
13:45:52:965663,-3,1,-5,-11,0,-9,4,1
13:45:52:973884,-3,1,-5,-11,0,-9,4,1
13:45:52:974661,-1,-5,-8,14,16,-6,-13,-2
13:45:52:988221,-1,6,28,23,-9,-36,-22,-5
13:45:52:996520,-1,6,28,23,-9,-36,-22,-5
13:45:52:997134,2,9,9,-1,39,39,6,4
13:45:53:3200,-2,-1,4,-3,6,-6,-13,0
13:45:53:10699,-2,-1,4,-3,6,-6,-13,0
13:45:53:18255,-4,-8,-6,-15,6,-10,-24,-5
13:45:53:25623,0,2,-6,-14,-16,-22,15,1
13:45:53:33954,0,2,-6,-14,-16,-22,15,1
13:45:53:34678,0,-9,-14,-33,-25,2,9,3
13:45:53:48234,1,6,6,4,-20,2,-6,-3
13:45:53:56393,1,6,6,4,-20,2,-6,-3
13:45:53:57195,-3,-6,6,-6,-15,-10,-12,-2
13:45:53:63155,-3,2,3,11,2,6,5,1
13:45:53:70741,-3,2,3,11,2,6,5,1
13:45:53:78160,0,1,-4,-20,2,-2,-2,-2
13:45:53:85741,-2,-8,2,15,20,17,-5,-2
13:45:53:93890,-2,-8,2,15,20,17,-5,-2
13:45:53:94744,3,3,-9,9,-26,-6,7,4
13:45:53:108179,0,-2,-7,1,8,-8,-16,-2
13:45:53:116467,0,-2,-7,1,8,-8,-16,-2
13:45:53:117164,-4,-3,6,0,-3,-12,3,7
13:45:53:123195,-1,-4,-14,-11,13,11,5,4
13:45:53:130783,-1,-4,-14,-11,13,11,5,4
13:45:53:138185,-5,3,14,14,-12,-5,-15,-7
13:45:53:145732,1,-2,2,7,3,9,8,0
13:45:53:153881,1,-2,2,7,3,9,8,0
13:45:53:154662,-1,-3,-2,4,8,21,12,-3
13:45:53:168260,-2,10,2,24,5,-8,-16,-3
13:45:53:176413,-2,10,2,24,5,-8,-16,-3
13:45:53:177179,2,-2,3,-7,-10,-1,38,5
13:45:53:183237,-2,-7,6,6,-8,2,13,0
13:45:53:190685,-2,-7,6,6,-8,2,13,0
13:45:53:198235,-4,-3,-13,-14,-8,-17,-27,-7
13:45:53:205716,6,2,6,-7,-5,4,21,11
13:45:53:213934,6,2,6,-7,-5,4,21,11
13:45:53:214681,0,-3,-5,-10,13,3,4,-2
13:45:53:228189,-2,-1,1,8,21,17,-8,-5
13:45:53:236441,-2,-1,1,8,21,17,-8,-5
13:45:53:237148,0,4,9,8,-5,-16,-11,0
13:45:53:243186,-6,1,3,-25,-34,-13,-4,-8
13:45:53:250806,-6,1,3,-25,-34,-13,-4,-8
13:45:53:258138,-1,0,-5,-5,7,2,-15,-1
13:45:53:265658,2,1,9,5,38,4,-7,0
13:45:53:273845,2,1,9,5,38,4,-7,0
13:45:53:274673,1,-1,12,-4,-12,-20,-4,1
13:45:53:288202,1,0,-8,-21,30,7,7,4
13:45:53:296390,1,0,-8,-21,30,7,7,4
13:45:53:297145,-1,3,1,-7,-3,0,3,0
13:45:53:303250,-3,-3,4,-4,-21,-7,-12,-4
13:45:53:310750,-3,-3,4,-4,-21,-7,-12,-4
13:45:53:318275,0,4,6,-1,-11,-16,-15,-5
13:45:53:325645,-5,-8,-25,-28,-37,-21,-22,-4
13:45:53:333928,-5,-8,-25,-28,-37,-21,-22,-4
13:45:53:334648,3,-6,-18,24,19,50,37,2
13:45:53:348190,-2,2,12,-3,0,-3,13,-2
13:45:53:356396,-2,2,12,-3,0,-3,13,-2
13:45:53:357167,-1,-1,-12,-18,4,7,-4,-2
13:45:53:363293,-3,-6,-6,1,-32,-20,-17,-4
13:45:53:370783,-3,-6,-6,1,-32,-20,-17,-4
13:45:53:378195,1,6,17,19,14,-2,-22,0
13:45:53:385766,0,-2,-9,-7,-2,-6,9,-1
13:45:53:393910,0,-2,-9,-7,-2,-6,9,-1
13:45:53:394695,-1,-13,-7,-28,-11,1,1,-1
13:45:53:408163,-1,1,-18,-12,2,-4,-2,-1
13:45:53:416446,-1,1,-18,-12,2,-4,-2,-1
13:45:53:417148,1,4,1,12,5,-8,-33,-2
13:45:53:423155,1,-4,1,9,15,44,52,10
13:45:53:430810,1,-4,1,9,15,44,52,10
13:45:53:438206,-5,-4,-5,-6,-10,-10,-1,-10
13:45:53:445719,-4,-2,-2,8,1,-27,-27,-8
13:45:53:453843,-4,-2,-2,8,1,-27,-27,-8
13:45:53:454643,-2,-5,2,8,23,18,18,4
13:45:53:468200,-3,0,7,10,7,-4,4,-3
13:45:53:476336,-3,0,7,10,7,-4,4,-3
13:45:53:477124,-1,-7,-2,-7,-2,-15,-8,-5
13:45:53:483248,2,-1,7,8,9,19,13,4
13:45:53:490729,2,-1,7,8,9,19,13,4
13:45:53:498268,-1,4,30,29,12,-5,6,1
13:45:53:505716,-1,-8,-17,-21,-9,-6,-44,-6
13:45:53:513946,-1,-8,-17,-21,-9,-6,-44,-6
13:45:53:514621,1,6,-38,-22,-26,-1,8,3
13:45:53:528158,6,0,-7,2,-15,-14,2,-5
13:45:53:536437,6,0,-7,2,-15,-14,2,-5
13:45:53:537133,-5,-13,-9,-3,12,8,2,-3
13:45:53:543181,-2,1,-5,-14,-23,-32,-22,-3
13:45:53:550771,-2,1,-5,-14,-23,-32,-22,-3
13:45:53:558117,3,4,5,6,13,25,24,7
13:45:53:565666,-1,-3,2,-11,19,28,25,3
13:45:53:573880,-1,-3,2,-11,19,28,25,3
13:45:53:574680,-2,5,-4,1,-27,-32,-27,-6
13:45:53:588212,-2,-1,14,14,11,17,35,4
13:45:53:596463,-2,-1,14,14,11,17,35,4
13:45:53:597134,-3,10,17,3,1,-6,-4,-5
13:45:53:603206,-3,6,5,17,-17,-2,-7,3
13:45:53:610703,-3,6,5,17,-17,-2,-7,3
13:45:53:626282,1,-10,-5,-13,-10,4,4,-1
13:45:53:627034,-2,3,-2,0,-24,-38,-26,-1
13:45:53:633903,-2,3,-2,0,-24,-38,-26,-1
13:45:53:634632,-1,-5,-11,5,57,13,-23,-2
13:45:53:648233,1,-2,-9,5,3,17,20,4
13:45:53:656386,1,-2,-9,5,3,17,20,4
13:45:53:657168,1,-3,-5,-21,-39,-26,-28,-5
13:45:53:663301,-3,-9,-12,5,-10,-9,-10,-6
13:45:53:670784,-3,-9,-12,5,-10,-9,-10,-6
13:45:53:678136,-2,-2,-8,-6,-10,-5,7,0
13:45:53:685791,2,1,-3,18,27,-2,7,-4
13:45:53:693892,2,1,-3,18,27,-2,7,-4
13:45:53:694650,-2,-5,12,-7,9,14,13,3
13:45:53:708131,-5,-1,1,-29,-10,16,-3,-5
13:45:53:716456,-5,-1,1,-29,-10,16,-3,-5
13:45:53:717172,1,-2,-2,-8,-8,-7,3,0
13:45:53:731448,3,2,14,5,-19,11,26,9
13:45:53:732145,3,2,14,5,-19,11,26,9
13:45:53:738181,-2,-2,41,2,17,13,7,-1
13:45:53:754521,1,-5,-14,-2,-13,-20,-19,1
13:45:53:755306,1,-5,-14,-2,-13,-20,-19,1
13:45:53:756135,-3,7,9,3,-13,-7,-8,0
13:45:53:768282,-5,-11,1,-8,1,16,-2,-6
13:45:53:776426,-5,-11,1,-8,1,16,-2,-6
13:45:53:777164,-2,-8,-13,-11,-3,-13,-16,-6
13:45:53:783246,-6,0,-11,13,9,-2,-4,-10
13:45:53:790663,-6,0,-11,13,9,-2,-4,-10
13:45:53:798305,5,8,-5,6,-14,5,18,11
13:45:53:805728,2,-4,20,-5,-2,29,-2,-3
13:45:53:814044,2,-4,20,-5,-2,29,-2,-3
13:45:53:814701,-2,-9,-30,3,-19,-3,-7,0
13:45:53:828178,0,-11,-16,-2,-18,-26,-14,-3
13:45:53:836432,0,-11,-16,-2,-18,-26,-14,-3
13:45:53:837198,-5,-3,11,17,-5,-3,1,-6
13:45:53:843196,-1,5,12,12,16,-1,-5,-1
13:45:53:850893,-1,5,12,12,16,-1,-5,-1
13:45:53:858136,-2,2,5,14,-4,-13,3,-5
13:45:53:865689,-4,13,3,-18,11,16,2,0
13:45:53:873257,-4,13,3,-18,11,16,2,0
13:45:53:880711,7,0,12,2,1,-16,-6,6
13:45:53:888189,-2,-20,-10,-3,17,55,88,14
13:45:53:896477,-2,-20,-10,-3,17,55,88,14
13:45:53:897169,1,10,-12,-6,22,6,14,-6
13:45:53:911366,-4,0,12,-10,-21,-54,-55,-12
13:45:53:912173,-4,0,12,-10,-21,-54,-55,-12
13:45:53:918213,-11,-3,5,-2,-9,-5,-1,2
13:45:53:925632,0,2,-6,-16,0,-9,-19,-1
13:45:53:933252,0,2,-6,-16,0,-9,-19,-1
13:45:53:940688,5,5,0,5,28,24,5,3
13:45:53:948202,-2,2,10,-12,-1,-23,-22,0
13:45:53:956831,-2,2,10,-12,-1,-23,-22,0
13:45:53:963228,-4,-4,-13,20,1,37,56,13
13:45:53:971369,6,-6,-7,20,-1,10,16,3
13:45:53:972162,6,-6,-7,20,-1,10,16,3
13:45:53:978196,-4,7,-2,-11,-22,-20,-26,-12
13:45:53:985768,-1,-1,12,-28,0,-9,-24,-2
13:45:53:993162,-1,-1,12,-28,0,-9,-24,-2
13:45:54:703,-1,-7,2,-24,-11,-2,-10,-6
13:45:54:8117,-2,-35,-44,-5,-12,-4,-11,-3
13:45:54:16432,-2,-35,-44,-5,-12,-4,-11,-3
13:45:54:17149,0,2,-15,-8,7,-10,-13,-2
13:45:54:31378,2,13,6,-1,-17,-21,-51,-3
13:45:54:32170,2,13,6,-1,-17,-21,-51,-3
13:45:54:38164,-6,-8,-14,11,17,21,34,-1
13:45:54:45718,-8,-7,2,11,-3,5,9,-4
13:45:54:53288,-8,-7,2,11,-3,5,9,-4
13:45:54:60630,-2,-2,-26,-16,-10,-27,-34,-7
13:45:54:68201,0,4,-32,-31,-8,-3,5,-2
13:45:54:76388,0,4,-32,-31,-8,-3,5,-2
13:45:54:77149,0,-1,16,5,-11,-5,-2,-4
13:45:54:91336,1,-5,3,25,13,24,18,6
13:45:54:92184,1,-5,3,25,13,24,18,6
13:45:54:98182,-1,-17,6,-6,-15,-24,-49,-2
13:45:54:105676,2,-8,9,1,-8,-20,5,2
13:45:54:113285,2,-8,9,1,-8,-20,5,2
13:45:54:120714,10,1,-7,0,1,4,-15,-3
13:45:54:128207,-2,14,-3,2,2,4,16,2
13:45:54:136464,-2,14,-3,2,2,4,16,2
13:45:54:137197,-4,-1,11,20,5,-15,-16,-3
13:45:54:151415,-3,-20,-21,-12,7,15,12,0
13:45:54:152204,-3,-20,-21,-12,7,15,12,0
13:45:54:158217,4,16,22,9,-8,18,12,1
13:45:54:165680,1,32,9,7,-4,-6,-5,-1
13:45:54:181398,1,32,9,7,-4,-6,-5,-1
13:45:54:182190,-6,-10,-2,-19,-5,-14,8,-6
13:45:54:188151,-4,8,-11,1,4,-11,2,-7
13:45:54:196383,-4,8,-11,1,4,-11,2,-7
13:45:54:197188,-1,4,-4,2,3,9,15,7
13:45:54:211381,2,-5,26,13,8,-7,-10,-5
13:45:54:212146,2,-5,26,13,8,-7,-10,-5
13:45:54:218173,-4,-6,2,27,15,7,8,-3
13:45:54:225660,-4,-3,14,0,-9,-16,-6,-3
13:45:54:233268,-4,-3,14,0,-9,-16,-6,-3
13:45:54:240689,4,8,-7,3,34,45,27,5
13:45:54:248208,1,10,17,-11,-6,9,2,-3
13:45:54:256422,1,10,17,-11,-6,9,2,-3
13:45:54:257228,-2,-5,6,-27,-37,-33,5,-1
13:45:54:271408,6,11,1,2,28,16,1,6
13:45:54:272198,6,11,1,2,28,16,1,6
13:45:54:278150,-4,-9,-12,-3,-12,-4,14,-1
13:45:54:293856,-3,-2,7,7,25,14,3,3
13:45:54:294644,-3,-2,7,7,25,14,3,3
13:45:54:308833,-2,-7,5,-3,5,-6,-10,-1
13:45:54:309591,-1,1,-1,-4,-8,-10,-12,-4
13:45:54:316433,-1,1,-1,-4,-8,-10,-12,-4
13:45:54:317161,0,-9,16,-10,-17,-10,-9,-5
13:45:54:331426,-5,-4,-16,-5,-16,-23,-14,-1
13:45:54:332154,-5,-4,-16,-5,-16,-23,-14,-1
13:45:54:338137,2,-5,-6,0,5,2,14,4
13:45:54:345709,5,-4,-5,1,15,6,12,8
13:45:54:353261,5,-4,-5,1,15,6,12,8
13:45:54:360637,-4,2,-7,-18,-14,-22,-38,-9
13:45:54:368212,-3,-2,-2,4,-25,-3,3,-5
13:45:54:376352,-3,-2,-2,4,-25,-3,3,-5
13:45:54:377167,2,5,7,0,7,-1,-13,1
13:45:54:391332,2,4,21,23,22,27,10,3
13:45:54:392168,2,4,21,23,22,27,10,3
13:45:54:398137,-2,3,-5,16,25,-1,-15,1
13:45:54:405673,-2,-7,-20,-16,-4,38,51,2
13:45:54:421442,-2,-7,-20,-16,-4,38,51,2
13:45:54:422183,2,6,-8,-2,-8,2,31,1
13:45:54:428139,-1,-5,1,-5,-11,-22,-24,-1
13:45:54:436404,-1,-5,1,-5,-11,-22,-24,-1
13:45:54:437182,2,11,-3,10,10,5,-3,3
13:45:54:459479,-7,1,7,-18,-4,0,-19,-14
13:45:54:460272,-7,1,7,-18,-4,0,-19,-14
13:45:54:461098,-1,-8,-21,-9,-1,11,-7,3
13:45:54:465738,-1,-9,-2,9,10,3,10,-5
13:45:54:473225,-1,-9,-2,9,10,3,10,-5
13:45:54:480729,-2,1,17,-1,-10,-5,-6,-6
13:45:54:497076,1,6,-25,-12,-8,-11,-4,6
13:45:54:497812,1,6,-25,-12,-8,-11,-4,6
13:45:54:498598,-8,2,-9,-15,-9,11,7,-5
13:45:54:511386,-3,-7,3,18,-5,-18,-21,-4
13:45:54:512178,-3,-7,3,18,-5,-18,-21,-4
13:45:54:518237,-4,-2,17,-1,-23,-17,-12,-5
13:45:54:525695,-5,-15,-3,-13,-22,-14,-11,-14
13:45:54:533255,-5,-15,-3,-13,-22,-14,-11,-14
13:45:54:540695,5,-6,-10,-10,26,46,28,8
13:45:54:548221,3,6,-5,11,23,-2,-1,8
13:45:54:556385,3,6,-5,11,23,-2,-1,8
13:45:54:557163,-6,-12,-21,-16,-17,-24,-22,-8
13:45:54:571371,-3,-9,24,13,-2,8,-15,1
13:45:54:572141,-3,-9,24,13,-2,8,-15,1
13:45:54:586382,3,0,27,19,-1,1,5,-3
13:45:54:587123,-10,-32,-11,-12,-4,-12,-16,-6
13:45:54:593200,-10,-32,-11,-12,-4,-12,-16,-6
13:45:54:600712,-4,-20,-16,-12,-21,-22,-15,-5
13:45:54:608175,8,23,-1,1,16,32,51,11
13:45:54:616416,8,23,-1,1,16,32,51,11
13:45:54:617126,-9,-52,-38,-2,7,26,22,-1
13:45:54:631376,4,14,-11,-7,-33,-30,-31,-7
13:45:54:632152,4,14,-11,-7,-33,-30,-31,-7
13:45:54:638206,1,35,49,36,10,-6,-24,1
13:45:54:645703,-1,22,0,-5,-19,2,32,-4
13:45:54:653205,-1,22,0,-5,-19,2,32,-4
13:45:54:660651,-5,6,27,8,-2,0,-1,-5
13:45:54:668228,-4,9,27,17,-1,-13,-7,0
13:45:54:676365,-4,9,27,17,-1,-13,-7,0
13:45:54:677152,3,-4,-16,-18,-10,6,32,-1
13:45:54:699576,4,10,-3,-8,29,34,-12,-1
13:45:54:700351,4,10,-3,-8,29,34,-12,-1
13:45:54:701159,-1,7,-20,-6,-9,-10,-14,0
13:45:54:705691,0,-29,-5,6,-6,-21,-12,-4
13:45:54:713265,0,-29,-5,6,-6,-21,-12,-4
13:45:54:720699,2,-4,-29,4,9,-7,-11,2
13:45:54:728152,4,18,-6,10,3,2,4,3
13:45:54:736391,4,18,-6,10,3,2,4,3
13:45:54:737185,6,-2,23,-11,20,9,20,5
13:45:54:751384,-2,-17,-16,-29,-5,-6,-11,-5
13:45:54:752112,-2,-17,-16,-29,-5,-6,-11,-5
13:45:54:758168,-2,16,-8,5,-13,-8,-7,-9
13:45:54:765673,-3,-7,-27,-11,-6,-6,4,-1
13:45:54:773218,-3,-7,-27,-11,-6,-6,4,-1
13:45:54:780679,-3,-6,13,-5,6,-17,-20,-1
13:45:54:788108,-3,2,7,13,17,13,7,-4
13:45:54:796377,-3,2,7,13,17,13,7,-4
13:45:54:797180,-1,-5,-9,0,-14,-8,5,-1
13:45:54:811378,-4,-42,-7,-15,-17,-2,6,4
13:45:54:812191,-4,-42,-7,-15,-17,-2,6,4
13:45:54:825660,3,53,13,4,3,-8,-20,-3
13:45:54:833895,-2,21,-2,-10,6,12,2,0
13:45:54:834636,-2,21,-2,-10,6,12,2,0
13:45:54:840640,1,0,-11,-2,-1,-3,-12,0
13:45:54:848249,0,6,19,7,14,1,1,0
13:45:54:855730,0,6,19,7,14,1,1,0
13:45:54:863230,-3,-9,5,-1,-1,-12,-9,-2
13:45:54:879636,3,4,8,1,-3,15,13,6
13:45:54:880307,3,4,8,1,-3,15,13,6
13:45:54:881129,8,6,3,12,7,4,2,4
13:45:54:893819,-4,-4,-53,3,-9,-12,-1,3
13:45:54:894613,-4,-4,-53,3,-9,-12,-1,3
13:45:54:900790,-1,-36,-12,-4,0,22,-19,1
13:45:54:908190,2,17,12,6,-6,0,-1,0
13:45:54:915743,2,17,12,6,-6,0,-1,0
13:45:54:923154,-2,-12,12,-3,-2,-9,3,-1
13:45:54:931388,-1,13,18,5,-1,-16,-14,-5
13:45:54:932174,-1,13,18,5,-1,-16,-14,-5
13:45:54:938193,-3,8,-9,7,4,9,11,1
13:45:54:953961,-1,1,-4,-8,-10,-9,-8,-4
13:45:54:954688,-1,1,-4,-8,-10,-9,-8,-4
13:45:54:960589,-5,-13,-6,7,21,5,-14,-3
13:45:54:968293,3,-4,9,-4,7,30,18,3
13:45:54:975699,3,-4,9,-4,7,30,18,3
13:45:54:983194,-1,36,-28,-12,-6,10,16,4
13:45:54:991382,-5,-22,-13,-12,-1,-13,-15,-6
13:45:54:992167,-5,-22,-13,-12,-1,-13,-15,-6
13:45:54:998210,-10,-11,-9,-6,-14,-14,4,-4
13:45:55:14390,0,2,-15,19,-6,-16,-10,-2
13:45:55:15139,0,2,-15,19,-6,-16,-10,-2
13:45:55:20667,-4,-6,17,-5,8,4,16,-6
13:45:55:28193,0,28,38,15,10,4,-2,1
13:45:55:35822,0,28,38,15,10,4,-2,1
13:45:55:43168,3,28,11,4,13,23,39,6
13:45:55:51446,-3,-13,-36,-4,-11,-4,12,3
13:45:55:52163,-3,-13,-36,-4,-11,-4,12,3
13:45:55:58162,0,-2,-4,-5,-6,5,7,0
13:45:55:73851,-6,-10,2,-15,4,12,14,-5
13:45:55:74680,-6,-10,2,-15,4,12,14,-5
13:45:55:80721,-2,-15,27,11,1,-16,-19,-3
13:45:55:88234,-3,1,6,-31,-48,-39,-19,-4
13:45:55:103936,-3,1,6,-31,-48,-39,-19,-4
13:45:55:104693,4,7,-7,22,54,42,8,3
13:45:55:111395,-2,-33,6,-2,4,-20,-43,-8
13:45:55:112191,-2,-33,6,-2,4,-20,-43,-8
13:45:55:118211,-5,-35,-68,-32,-40,-32,-18,-7
13:45:55:133959,-5,-26,14,-2,5,-9,-13,-5
13:45:55:134718,-5,-26,14,-2,5,-9,-13,-5
13:45:55:140641,-4,-37,-18,-5,-12,-9,-7,-3
13:45:55:148179,7,1,7,9,8,-2,-11,-1
13:45:55:155728,7,1,7,9,8,-2,-11,-1
13:45:55:163172,2,16,6,-5,0,19,44,5
13:45:55:171387,6,13,22,-1,1,7,15,-3
13:45:55:172184,6,13,22,-1,1,7,15,-3
13:45:55:178189,-3,17,-7,-16,-6,-16,-23,-3
13:45:55:193831,-4,20,4,7,4,12,-5,-1
13:45:55:194657,-4,20,4,7,4,12,-5,-1
13:45:55:200681,-3,6,11,29,6,-6,-25,-5
13:45:55:208111,8,18,16,18,7,-8,-8,2
13:45:55:215801,8,18,16,18,7,-8,-8,2
13:45:55:223192,-11,-38,4,-8,-22,1,21,1
13:45:55:231394,-1,17,3,6,28,21,37,-2
13:45:55:232121,-1,17,3,6,28,21,37,-2
13:45:55:238183,3,-15,14,12,4,-7,-10,-3
13:45:55:253889,-2,-10,7,13,-3,-14,-6,-1
13:45:55:254703,-2,-10,7,13,-3,-14,-6,-1
13:45:55:260681,-9,-10,6,-8,-10,-11,-14,-7
13:45:55:268231,-1,-3,-5,12,-5,0,4,4
13:45:55:275708,-1,-3,-5,12,-5,0,4,4
13:45:55:292004,4,-4,-12,0,-1,-11,-11,0
13:45:55:292778,-3,-28,-32,-12,0,27,42,9
13:45:55:293589,-3,-28,-32,-12,0,27,42,9
13:45:55:305650,6,64,-3,-19,-5,-5,15,-6
13:45:55:313950,-10,29,49,7,-1,-4,-31,-13
13:45:55:314700,-10,29,49,7,-1,-4,-31,-13
13:45:55:320685,7,42,14,-10,-1,-2,-6,8
13:45:55:328180,-1,-18,-31,-21,-25,-20,20,22
13:45:55:335805,-1,-18,-31,-21,-25,-20,20,22
13:45:55:343187,3,-10,10,14,39,16,2,-22
13:45:55:351426,17,6,-26,-61,2,4,11,35
13:45:55:352148,17,6,-26,-61,2,4,11,35
13:45:55:358165,3,-41,29,26,-39,-34,-52,-11
13:45:55:373959,5,5,-1,1,18,45,88,24
13:45:55:374729,5,5,-1,1,18,45,88,24
13:45:55:380763,-14,-36,2,-6,3,7,-20,-17
13:45:55:388232,-10,-13,-8,-5,-23,-21,-7,-2
13:45:55:395734,-10,-13,-8,-5,-23,-21,-7,-2
13:45:55:403282,9,7,21,29,21,20,32,27
13:45:55:419580,-20,-29,-14,10,7,-3,-106,-87
13:45:55:420315,-20,-29,-14,10,7,-3,-106,-87
13:45:55:421111,-8,10,-6,18,-11,-28,-65,-17
13:45:55:433969,-2,-2,-33,-2,5,21,53,11
13:45:55:434677,-2,-2,-33,-2,5,21,53,11
13:45:55:440646,2,-4,-8,-31,-15,1,36,21
13:45:55:448192,1,20,69,25,11,39,34,0
13:45:55:455753,1,20,69,25,11,39,34,0
13:45:55:463257,11,33,5,8,18,16,37,14
13:45:55:471366,3,37,-11,20,-12,-41,-54,-13
13:45:55:472130,3,37,-11,20,-12,-41,-54,-13
13:45:55:478207,-9,2,-20,-19,-14,1,41,15
13:45:55:493838,9,-20,-8,32,15,-10,-15,14
13:45:55:494667,9,-20,-8,32,15,-10,-15,14
13:45:55:500745,-5,44,-34,-32,-21,-14,-5,5
13:45:55:508195,10,4,23,-3,-4,-10,-51,-29
13:45:55:515710,10,4,23,-3,-4,-10,-51,-29
13:45:55:523200,-14,-24,-34,-21,-9,-13,-6,-4
13:45:55:531413,6,-1,-7,-9,15,15,34,17
13:45:55:532178,6,-1,-7,-9,15,15,34,17
13:45:55:538137,8,7,33,-8,7,4,-2,-7
13:45:55:553853,0,-11,-19,-34,-42,-34,-23,-3
13:45:55:554634,0,-11,-19,-34,-42,-34,-23,-3
13:45:55:568900,-8,2,-18,11,27,10,12,5
13:45:55:569609,-16,-2,-6,13,0,-8,-5,-12
13:45:55:575739,-16,-2,-6,13,0,-8,-5,-12
13:45:55:583251,17,-19,25,12,4,-3,-40,-20
13:45:55:591307,-6,6,-1,-6,2,7,37,25
13:45:55:592126,-6,6,-1,-6,2,7,37,25
13:45:55:598134,10,0,6,25,16,1,-19,3
13:45:55:613894,15,32,-22,-24,-11,-10,-17,7
13:45:55:614632,15,32,-22,-24,-11,-10,-17,7
13:45:55:620697,-5,-8,9,-27,-28,-5,3,3
13:45:55:628171,-10,-8,-14,-1,4,8,0,-2
13:45:55:635773,-10,-8,-14,-1,4,8,0,-2
13:45:55:643121,18,-13,2,6,1,-4,-18,-2
13:45:55:651411,10,24,24,-11,-1,24,44,10
13:45:55:652160,10,24,24,-11,-1,24,44,10
13:45:55:658098,-31,-17,-12,12,8,0,-23,-23
13:45:55:673870,-31,-17,-12,12,8,0,-23,-23
13:45:55:674613,19,-52,-47,-19,16,-12,-22,1
13:45:55:680738,4,4,37,17,-7,6,24,9
13:45:55:696377,4,4,37,17,-7,6,24,9
13:45:55:697169,5,5,57,3,-5,-16,-36,-8
13:45:55:703234,-18,-26,4,-20,-8,3,-2,-4
13:45:55:711372,-18,-26,4,-20,-8,3,-2,-4
13:45:55:712141,-18,-18,-7,-9,-11,-1,-26,-25
13:45:55:718194,-10,1,-15,-18,-12,15,29,0
13:45:55:733949,-10,1,-15,-18,-12,15,29,0
13:45:55:734684,-5,10,24,-3,-6,2,16,1
13:45:55:740667,10,-2,6,-4,3,-1,11,0
13:45:55:756383,10,-2,6,-4,3,-1,11,0
13:45:55:757175,6,-29,5,30,4,-1,29,11
13:45:55:763343,-4,7,-17,5,-5,-6,40,21
13:45:55:771385,-4,7,-17,5,-5,-6,40,21
13:45:55:772186,-13,4,-69,2,0,-10,-16,-9
13:45:55:785837,16,-4,-27,-24,-3,1,20,6
13:45:55:793819,16,-4,-27,-24,-3,1,20,6
13:45:55:794769,19,-3,19,-4,0,-9,-38,-8
13:45:55:800781,-2,7,22,18,7,2,5,0
13:45:55:816423,-2,7,22,18,7,2,5,0
13:45:55:817172,-11,-26,-26,-11,-6,-19,-18,-8
13:45:55:823168,3,32,19,13,5,9,11,14
13:45:55:831443,3,32,19,13,5,9,11,14
13:45:55:832146,-9,26,11,23,10,-18,-49,-14
13:45:55:846167,-7,-23,-18,-4,-17,-2,-25,-14
13:45:55:853936,-7,-23,-18,-4,-17,-2,-25,-14
13:45:55:854729,-14,-12,13,11,7,17,34,11
13:45:55:860662,-6,5,-9,0,13,-7,-24,-6
13:45:55:876372,-6,5,-9,0,13,-7,-24,-6
13:45:55:877128,27,26,24,36,-9,-5,0,4
13:45:55:883159,-13,-41,-31,0,-10,-11,-4,-6
13:45:55:891435,-13,-41,-31,0,-10,-11,-4,-6
13:45:55:892181,-6,-11,14,-5,11,11,22,8
13:45:55:905673,15,23,-1,11,2,-10,-15,0
13:45:55:913943,15,23,-1,11,2,-10,-15,0
13:45:55:914686,1,-23,-6,-9,-3,8,1,10
13:45:55:920652,11,-15,-14,-3,26,5,-9,-11
13:45:55:936446,11,-15,-14,-3,26,5,-9,-11
13:45:55:937152,-6,-2,0,-11,-19,-10,-1,4
13:45:55:943140,-4,29,21,-12,-10,-2,6,-5
13:45:55:951502,-4,29,21,-12,-10,-2,6,-5
13:45:55:952178,-1,-8,5,5,-7,-4,-6,-9
13:45:55:965623,0,57,-4,-13,-1,-9,-12,2
13:45:55:973883,0,57,-4,-13,-1,-9,-12,2
13:45:55:974639,-24,-8,-21,-44,-13,-2,20,4
13:45:55:988169,1,-23,5,11,11,27,19,4
13:45:55:996458,1,-23,5,11,11,27,19,4
13:45:55:997156,3,18,-17,-15,-1,-23,-25,-3
13:45:56:3154,-7,-25,-42,0,-5,-1,-22,1
13:45:56:11372,-7,-25,-42,0,-5,-1,-22,1
13:45:56:12130,8,-20,-22,1,12,15,1,-1
13:45:56:25643,-9,1,20,-24,-26,-14,-16,-22
13:45:56:33997,-9,1,20,-24,-26,-14,-16,-22
13:45:56:34651,-7,-31,-35,15,3,-12,-31,-11
13:45:56:40665,-5,5,5,-29,-7,20,39,5
13:45:56:56403,-5,5,5,-29,-7,20,39,5
13:45:56:57194,-9,16,12,10,12,12,21,-1
13:45:56:63270,10,-3,11,25,4,-13,-4,1
13:45:56:71415,10,-3,11,25,4,-13,-4,1
13:45:56:72160,-13,12,26,4,-5,2,6,-2
13:45:56:85690,13,-5,-7,-11,-13,-24,-31,-5
13:45:56:93856,13,-5,-7,-11,-13,-24,-31,-5
13:45:56:94655,3,-3,-20,-3,15,10,15,2
13:45:56:100718,0,18,-25,-34,-19,18,39,4
13:45:56:116433,0,18,-25,-34,-19,18,39,4
13:45:56:117127,0,27,3,-12,-8,-1,6,-1
13:45:56:123125,14,-16,-9,3,-2,-18,-34,-5
13:45:56:131412,14,-16,-9,3,-2,-18,-34,-5
13:45:56:132182,-17,-22,-20,-4,9,9,15,-2
13:45:56:145699,-3,-12,-5,-3,2,-1,-9,-10
13:45:56:153885,-3,-12,-5,-3,2,-1,-9,-10
13:45:56:154637,8,8,14,-3,-2,11,7,5
13:45:56:160621,-18,-17,-26,1,3,10,22,4
13:45:56:176336,-18,-17,-26,1,3,10,22,4
13:45:56:177140,-14,-12,43,31,26,-8,-37,-3
13:45:56:183250,-1,-23,20,6,2,-18,-14,-3
13:45:56:191345,-1,-23,20,6,2,-18,-14,-3
13:45:56:192144,-1,3,-18,-7,-2,9,6,-2
13:45:56:205674,2,-4,-8,1,-7,0,-7,0
13:45:56:213942,2,-4,-8,1,-7,0,-7,0
13:45:56:214668,19,6,17,21,0,-5,9,7
13:45:56:220672,-5,17,5,11,-7,-7,-6,-7
13:45:56:236453,-5,17,5,11,-7,-7,-6,-7
13:45:56:237145,-17,12,12,-14,-5,0,6,-4
13:45:56:243190,11,17,-25,-6,14,3,10,5
13:45:56:251416,11,17,-25,-6,14,3,10,5
13:45:56:252151,23,28,29,14,5,-8,-28,-9
13:45:56:265728,-19,8,25,33,11,16,26,-3
13:45:56:273840,-19,8,25,33,11,16,26,-3
13:45:56:274606,3,0,-30,-22,-21,-25,-6,-2
13:45:56:280725,0,3,-1,-11,-7,-10,-2,7
13:45:56:296447,0,3,-1,-11,-7,-10,-2,7
13:45:56:297104,-3,-21,-3,0,-17,-1,3,-10
13:45:56:303144,-13,-9,-18,7,3,3,-5,-2
13:45:56:311327,-13,-9,-18,7,3,3,-5,-2
13:45:56:312120,1,-3,-4,-33,-6,2,4,2
13:45:56:325685,-7,7,52,18,3,-24,-36,-7
13:45:56:333849,-7,7,52,18,3,-24,-36,-7
13:45:56:334607,-5,-2,-13,-1,-2,6,0,-6
13:45:56:340680,6,2,36,13,-2,-10,-12,-1
13:45:56:356403,6,2,36,13,-2,-10,-12,-1
13:45:56:357184,19,19,28,-6,-9,2,13,3
13:45:56:363241,-1,-11,-5,2,-14,-7,-9,-3
13:45:56:371368,-1,-11,-5,2,-14,-7,-9,-3
13:45:56:372133,0,-16,2,11,11,22,21,4
13:45:56:385746,-10,-15,-2,-8,-4,-1,-14,-16
13:45:56:402089,-10,-15,-2,-8,-4,-1,-14,-16
13:45:56:402814,-8,-3,-5,-1,-1,-7,-3,8
13:45:56:403605,-4,31,-22,-6,7,9,-1,1
13:45:56:416379,-4,31,-22,-6,7,9,-1,1
13:45:56:417132,0,1,18,-7,4,1,-3,-4
13:45:56:423145,1,-12,-8,-2,-11,-3,3,2
13:45:56:431435,1,-12,-8,-2,-11,-3,3,2
13:45:56:432177,-7,16,-14,44,13,2,17,2
13:45:56:445733,6,6,-16,-12,3,18,21,6
13:45:56:453889,6,6,-16,-12,3,18,21,6
13:45:56:454636,-8,-19,9,-13,-9,-5,-12,-2
13:45:56:460634,8,19,6,5,1,-10,8,0
13:45:56:476340,8,19,6,5,1,-10,8,0
13:45:56:477146,-20,-38,-30,-10,1,-3,-16,-4
13:45:56:483139,-10,-17,-11,-23,-6,-14,-9,6
13:45:56:491340,-10,-17,-11,-23,-6,-14,-9,6
13:45:56:492105,-23,-22,-11,-6,-7,-11,-14,-23
13:45:56:505679,22,15,-14,-2,3,13,25,6
13:45:56:513981,22,15,-14,-2,3,13,25,6
13:45:56:514650,10,2,8,0,2,3,3,4
13:45:56:528149,-6,-1,17,9,-7,-5,-19,-5
13:45:56:536349,-6,-1,17,9,-7,-5,-19,-5
13:45:56:537148,-4,18,8,-7,0,18,44,2
13:45:56:543214,5,-14,-26,-15,-14,-2,0,5
13:45:56:551412,5,-14,-26,-15,-14,-2,0,5
13:45:56:552137,15,13,-7,-8,-3,4,7,12
13:45:56:565758,0,13,19,0,8,13,10,-2
13:45:56:573877,0,13,19,0,8,13,10,-2
13:45:56:574641,7,9,4,5,9,-11,-11,6
13:45:56:580758,-25,-16,21,6,-1,-6,-6,-8
13:45:56:596399,-25,-16,21,6,-1,-6,-6,-8
13:45:56:597229,-1,-46,-12,10,-8,-1,-11,-5
13:45:56:603244,-16,-22,-18,21,13,1,-4,-6
13:45:56:611847,-16,-22,-18,21,13,1,-4,-6
13:45:56:618281,-5,6,-16,-16,-18,1,-3,-2
13:45:56:625717,1,-8,13,5,15,24,0,1
13:45:56:633997,1,-8,13,5,15,24,0,1
13:45:56:634699,-1,13,-8,-6,-13,-7,16,0
13:45:56:640651,6,13,11,5,8,34,47,5
13:45:56:656355,6,13,11,5,8,34,47,5
13:45:56:657158,-19,-23,-7,-21,1,5,-4,-6
13:45:56:663191,-9,-31,-5,-3,-3,-18,-18,-4
13:45:56:671386,-9,-31,-5,-3,-3,-18,-18,-4
13:45:56:672154,10,-13,4,-2,-5,-15,-18,-1
13:45:56:694497,-8,21,9,3,-5,-15,-10,-8
13:45:56:695276,-8,21,9,3,-5,-15,-10,-8
13:45:56:696066,-6,18,13,2,0,-14,-13,-1
13:45:56:708136,8,-1,-18,-18,-15,6,38,2
13:45:56:716455,8,-1,-18,-18,-15,6,38,2
13:45:56:717182,15,15,-6,9,11,-5,-14,2
13:45:56:723179,0,12,-10,-8,-7,-3,-9,1
13:45:56:730788,0,12,-10,-8,-7,-3,-9,1
13:45:56:738193,-1,28,-47,-1,-15,-7,-10,-2
13:45:56:745644,19,10,1,1,8,-5,-21,1
13:45:56:753871,19,10,1,1,8,-5,-21,1
13:45:56:754653,-6,-8,18,-15,1,15,23,10
13:45:56:768432,-4,-6,-1,-10,7,-1,1,1
13:45:56:776327,-4,-6,-1,-10,7,-1,1,1
13:45:56:777149,2,-1,6,4,0,16,14,1
13:45:56:783206,13,-11,-15,11,-4,2,-2,2
13:45:56:790692,13,-11,-15,11,-4,2,-2,2
13:45:56:798209,8,6,20,2,1,-13,-19,-3
13:45:56:805709,-9,-2,23,11,-22,-21,-22,-3
13:45:56:813934,-9,-2,23,11,-22,-21,-22,-3
13:45:56:814645,-9,3,-15,18,-3,-7,-8,-8
13:45:56:828172,-2,-39,8,7,1,1,7,2
13:45:56:836371,-2,-39,8,7,1,1,7,2
13:45:56:837140,-2,-1,-6,-15,14,7,3,-2
13:45:56:843207,5,6,-14,-22,-5,-11,-11,1
13:45:56:850792,5,6,-14,-22,-5,-11,-11,1
13:45:56:858145,-16,-3,8,2,-3,-11,-27,-15
13:45:56:865696,-1,-6,-23,-12,-3,17,54,3
13:45:56:873898,-1,-6,-23,-12,-3,17,54,3
13:45:56:874679,12,-4,8,-2,7,-8,5,3
13:45:56:897115,-4,7,-3,3,1,-2,-25,1
13:45:56:897825,-4,7,-3,3,1,-2,-25,1
13:45:56:898613,-1,-3,5,8,11,-1,-14,-2
13:45:56:903232,21,-12,2,-13,-4,-9,15,-3
13:45:56:910678,21,-12,2,-13,-4,-9,15,-3
13:45:56:918169,-4,6,11,-15,-18,-8,-2,-11
13:45:56:925620,-1,0,-11,21,0,14,0,3
13:45:56:933973,-1,0,-11,21,0,14,0,3
13:45:56:934675,2,-27,-9,8,-3,-3,-6,11
13:45:56:948244,-9,-2,-5,-14,-8,-15,-38,-15
13:45:56:956404,-9,-2,-5,-14,-8,-15,-38,-15
13:45:56:957171,13,-7,-27,2,-3,-2,10,9
13:45:56:963172,-8,10,13,6,-10,-10,-22,-4
13:45:56:970777,-8,10,13,6,-10,-10,-22,-4
13:45:56:978196,-17,4,15,-1,-3,6,-7,-7
13:45:56:985707,-1,17,33,12,24,15,14,3
13:45:56:993926,-1,17,33,12,24,15,14,3
13:45:56:994705,-16,-37,-2,0,-3,0,28,2
13:45:57:8138,-5,16,-12,-40,1,-8,-18,-1
13:45:57:16460,-5,16,-12,-40,1,-8,-18,-1
13:45:57:17192,12,22,-19,-17,4,4,1,0
13:45:57:23143,-8,-39,-32,-23,-6,-11,-2,-10
13:45:57:30824,-8,-39,-32,-23,-6,-11,-2,-10
13:45:57:38213,-20,9,2,-5,10,7,-1,-10
13:45:57:45689,-12,4,9,8,2,5,6,1
13:45:57:53944,-12,4,9,8,2,5,6,1
13:45:57:54683,27,29,26,7,-11,11,16,9
13:45:57:68203,4,16,7,-3,-2,-8,-8,4
13:45:57:76170,4,16,7,-3,-2,-8,-8,4
13:45:57:83920,-17,-1,1,-4,-4,-10,-25,-10
13:45:57:84654,-1,-6,-1,30,0,-1,-5,2
13:45:57:98883,-1,-6,-1,30,0,-1,-5,2
13:45:57:99664,15,17,-29,7,10,0,-13,-2
13:45:57:105657,4,15,9,4,12,24,17,-1
13:45:57:113949,4,15,9,4,12,24,17,-1
13:45:57:114687,0,-8,-12,-15,-19,3,17,4
13:45:57:128138,2,2,4,9,-6,-27,-30,-2
13:45:57:136368,2,2,4,9,-6,-27,-30,-2
13:45:57:137190,-4,12,-1,2,0,-1,23,5
13:45:57:143113,2,-31,-6,1,1,-2,-1,0
13:45:57:150762,2,-31,-6,1,1,-2,-1,0
13:45:57:158159,15,-18,-3,6,3,-6,-32,1
13:45:57:174482,-7,-9,5,44,0,-2,-2,-1
13:45:57:175286,-7,-9,5,44,0,-2,-2,-1
13:45:57:176138,0,-25,1,2,7,-4,-1,-2
13:45:57:188125,15,3,-17,-15,-1,17,11,-2
13:45:57:196503,15,3,-17,-15,-1,17,11,-2
13:45:57:197177,-1,13,0,11,-4,-6,-17,3
13:45:57:203201,-3,-12,8,9,-2,14,53,3
13:45:57:210687,-3,-12,8,9,-2,14,53,3
13:45:57:218226,-3,-14,-1,2,8,0,-11,-8
13:45:57:225614,-16,26,-5,-6,1,-8,-15,2
13:45:57:234075,-16,26,-5,-6,1,-8,-15,2
13:45:57:234739,23,26,13,-4,-5,-1,15,2
13:45:57:248664,-5,-12,30,-31,-10,-15,-17,-6
13:45:57:256391,-5,-12,30,-31,-10,-15,-17,-6
13:45:57:257161,-15,-12,3,-4,-4,10,6,-1
13:45:57:263238,-9,11,-24,-6,1,-2,-14,-3
13:45:57:270744,-9,11,-24,-6,1,-2,-14,-3
13:45:57:278184,-9,-5,-6,-3,6,-4,-9,-3
13:45:57:285723,-1,-16,-13,10,8,20,9,3
13:45:57:293812,-1,-16,-13,10,8,20,9,3
13:45:57:294601,-2,16,1,23,0,-5,-8,-3
13:45:57:308139,14,8,-6,8,-4,-3,3,1
13:45:57:324513,14,8,-6,8,-4,-3,3,1
13:45:57:325301,2,-4,-10,-32,-3,2,-1,-1
13:45:57:326106,12,-2,-10,-5,-6,-6,19,4
13:45:57:330779,12,-2,-10,-5,-6,-6,19,4
13:45:57:338176,-4,-17,-6,-7,-2,-9,2,-2
13:45:57:345753,13,-5,-12,-21,-1,-7,-29,-3
13:45:57:353923,13,-5,-12,-21,-1,-7,-29,-3
13:45:57:354675,-7,25,10,3,-8,-5,-5,-2
13:45:57:368216,-35,-11,25,18,-7,-6,-3,-11
13:45:57:376426,-35,-11,25,18,-7,-6,-3,-11
13:45:57:377153,7,-13,-8,9,-4,-3,-2,-3
13:45:57:383198,-6,-10,5,-22,1,-9,-10,-3
13:45:57:390743,-6,-10,5,-22,1,-9,-10,-3
13:45:57:398167,-5,-9,-21,-15,-3,-1,32,0
13:45:57:405671,9,-22,-9,2,10,12,16,9
13:45:57:413936,9,-22,-9,2,10,12,16,9
13:45:57:414611,-5,7,34,6,4,7,-3,-5
13:45:57:428162,7,17,46,4,-6,-11,-13,-3
13:45:57:436454,7,17,46,4,-6,-11,-13,-3
13:45:57:437185,-10,-13,-18,-16,-14,-3,-11,-8
13:45:57:451432,-2,9,-15,-8,0,25,33,10
13:45:57:452168,-2,9,-15,-8,0,25,33,10
13:45:57:458158,4,-10,-22,-7,0,1,4,0
13:45:57:465661,-9,18,-5,-18,-9,-12,-12,-6
13:45:57:473919,-9,18,-5,-18,-9,-12,-12,-6
13:45:57:474701,-9,-1,3,-2,6,10,-6,1
13:45:57:488181,-3,-10,-2,13,2,-5,-12,-5
13:45:57:496480,-3,-10,-2,13,2,-5,-12,-5
13:45:57:497165,-6,7,11,2,-2,-9,-20,-1
13:45:57:503160,-4,18,-18,-19,15,21,-5,-2
13:45:57:510691,-4,18,-18,-19,15,21,-5,-2
13:45:57:526331,19,26,-10,3,0,1,19,-4
13:45:57:527086,16,-16,-13,1,2,-6,0,9
13:45:57:533967,16,-16,-13,1,2,-6,0,9
13:45:57:534749,-2,-1,-6,11,9,1,-7,1
13:45:57:548209,2,2,3,10,-9,-19,-12,-8
13:45:57:556349,2,2,3,10,-9,-19,-12,-8
13:45:57:557171,6,5,34,7,-7,-3,11,3
13:45:57:563168,-6,-4,-4,4,8,10,24,7
13:45:57:570791,-6,-4,-4,4,8,10,24,7
13:45:57:578200,-17,-7,-5,-12,-6,0,-2,-2
13:45:57:585733,13,7,18,-5,-10,-24,-13,2
13:45:57:593899,13,7,18,-5,-10,-24,-13,2
13:45:57:594665,8,-34,-8,9,2,10,21,5
13:45:57:608158,-12,-24,-4,13,-1,-7,-1,-7
13:45:57:616424,-12,-24,-4,13,-1,-7,-1,-7
13:45:57:617150,6,4,-14,-20,-15,-9,-13,6
13:45:57:623171,-9,5,-7,3,-1,-2,-11,-6
13:45:57:638890,-9,5,-7,3,-1,-2,-11,-6
13:45:57:639667,-5,-6,11,19,9,11,2,-2
13:45:57:645685,-4,8,5,10,-8,-13,-31,-1
13:45:57:653196,-4,8,5,10,-8,-13,-31,-1
13:45:57:660677,-4,-17,3,1,2,2,12,3
13:45:57:668236,-8,-12,-14,-8,-3,-13,-18,-9
13:45:57:676338,-8,-12,-14,-8,-3,-13,-18,-9
13:45:57:677108,8,3,21,3,1,-5,-22,-4
13:45:57:691359,-10,-6,14,-9,-5,2,-8,-7
13:45:57:692168,-10,-6,14,-9,-5,2,-8,-7
13:45:57:698204,-4,0,14,-3,6,8,14,-3
13:45:57:705716,3,-5,-19,1,-6,5,10,-4
13:45:57:713359,3,-5,-19,1,-6,5,10,-4
13:45:57:728932,-11,-20,9,0,-9,-11,-7,-3
13:45:57:729599,-4,4,12,3,-5,14,17,6
13:45:57:736370,-4,4,12,3,-5,14,17,6
13:45:57:737223,-15,4,-40,0,2,-3,-4,-6
13:45:57:751413,-1,-5,-2,9,5,-6,-4,-1
13:45:57:752258,-1,-5,-2,9,5,-6,-4,-1
13:45:57:758147,12,-4,-21,-15,-15,-14,-4,5
13:45:57:765670,7,-7,27,-5,16,10,14,3
13:45:57:773274,7,-7,27,-5,16,10,14,3
13:45:57:788820,-2,11,0,0,2,-1,-10,-4
13:45:57:789628,1,9,-7,0,-6,-6,-13,5
13:45:57:803868,1,9,-7,0,-6,-6,-13,5
13:45:57:804648,-10,11,-15,-9,-3,-4,16,-4
13:45:57:811480,8,11,-44,-9,2,25,46,5
13:45:57:812168,8,11,-44,-9,2,25,46,5
13:45:57:818239,-13,13,20,17,10,2,-1,-3
13:45:57:825677,6,-4,14,-2,2,-18,-25,-8
13:45:57:833337,6,-4,14,-2,2,-18,-25,-8
13:45:57:840674,4,-34,-17,19,-7,5,-4,-4
13:45:57:848191,6,-8,2,-35,-6,-3,3,-7
13:45:57:856437,6,-8,2,-35,-6,-3,3,-7
13:45:57:857205,-9,-4,0,-21,-4,-13,-18,-3
13:45:57:871374,1,12,-16,4,-8,3,10,-1
13:45:57:872215,1,12,-16,4,-8,3,10,-1
13:45:57:878142,-1,-4,-3,-10,-8,-18,-33,-5
13:45:57:885734,-6,8,-22,-4,-3,17,66,5
13:45:57:893205,-6,8,-22,-4,-3,17,66,5
13:45:57:900740,25,2,2,14,12,2,1,1
13:45:57:908158,-22,-30,36,11,-2,-5,-23,-10
13:45:57:916413,-22,-30,36,11,-2,-5,-23,-10
13:45:57:917127,1,-1,26,2,3,12,18,2
13:45:57:931824,-19,-12,-2,17,15,-6,-9,-3
13:45:57:932617,-19,-12,-2,17,15,-6,-9,-3
13:45:57:938219,-5,13,6,-22,-11,2,8,-7
13:45:57:945675,-6,15,-11,-1,7,-1,-10,-2
13:45:57:953241,-6,15,-11,-1,7,-1,-10,-2
13:45:57:960653,-12,-12,4,-7,-6,-12,-26,-4
13:45:57:968251,7,9,34,-3,-3,-6,-10,-1
13:45:57:976370,7,9,34,-3,-3,-6,-10,-1
13:45:57:977110,9,6,-30,-33,-7,-2,-13,2
13:45:57:991325,-11,2,2,18,6,2,-3,12
13:45:57:992128,-11,2,2,18,6,2,-3,12
13:45:58:6364,-6,5,11,8,-10,-4,8,-2
13:45:58:7126,3,-14,-22,-7,-18,-16,5,-4
13:45:58:13392,3,-14,-22,-7,-18,-16,5,-4
13:45:58:20674,-3,19,3,-2,5,0,-21,4
13:45:58:28902,24,8,-12,4,2,10,9,8
13:45:58:29672,24,8,-12,4,2,10,9,8
13:45:58:35729,-9,-17,-20,-9,-19,-15,20,-11
13:45:58:51444,11,5,-6,8,12,10,-5,1
13:45:58:52179,11,5,-6,8,12,10,-5,1
13:45:58:58158,21,-3,-1,19,15,25,11,5
13:45:58:65721,2,7,3,10,-5,-3,-4,-4
13:45:58:73197,2,7,3,10,-5,-3,-4,-4
13:45:58:80772,10,-1,13,11,6,-5,-20,3
13:45:58:88832,-9,9,13,11,4,12,21,-1
13:45:58:89658,-9,9,13,11,4,12,21,-1
13:45:58:95744,-20,10,9,11,13,10,19,-1
13:45:58:111363,12,0,-24,-26,-20,-21,-31,0
13:45:58:112098,12,0,-24,-26,-20,-21,-31,0
13:45:58:118252,11,-2,-15,-6,-5,-17,-27,4
13:45:58:125705,-7,-12,-5,-5,-3,0,-8,-6
13:45:58:133268,-7,-12,-5,-5,-3,0,-8,-6
13:45:58:140639,-11,-3,3,-1,-8,-5,7,-7
13:45:58:148872,12,6,-6,3,9,3,-12,0
13:45:58:149621,12,6,-6,3,9,3,-12,0
13:45:58:155687,-5,0,-3,8,3,3,8,4
13:45:58:171404,-18,9,1,-4,-6,3,0,1
13:45:58:172182,-18,9,1,-4,-6,3,0,1
13:45:58:178121,10,19,1,-7,-4,25,18,9
13:45:58:185716,-26,-42,29,-2,-7,-7,-10,-7
13:45:58:193238,-26,-42,29,-2,-7,-7,-10,-7
13:45:58:209525,-7,-13,6,29,7,6,-2,-4
13:45:58:210287,14,13,9,4,2,-9,-15,-3
13:45:58:211155,14,13,9,4,2,-9,-15,-3
13:45:58:215630,5,9,2,-14,-1,3,6,-1
13:45:58:231356,1,10,4,-18,-12,-27,-2,-5
13:45:58:232194,1,10,4,-18,-12,-27,-2,-5
13:45:58:238155,-18,-42,-9,-14,-6,-11,-30,-13
13:45:58:245730,12,3,11,-5,-1,15,24,0
13:45:58:253279,12,3,11,-5,-1,15,24,0
13:45:58:260655,-7,0,12,17,-8,-5,16,-4
13:45:58:268961,-13,-9,-20,-15,-15,-6,-9,-1
13:45:58:269663,-13,-9,-20,-15,-15,-6,-9,-1
13:45:58:283234,6,-13,-32,-15,6,1,-4,-2
13:45:58:291362,18,5,-2,-6,-2,-1,-1,1
13:45:58:292143,18,5,-2,-6,-2,-1,-1,1
13:45:58:298179,-3,-12,-28,-6,-1,-6,10,-2
13:45:58:305659,-2,4,-10,0,6,6,12,1
13:45:58:313231,-2,4,-10,0,6,6,12,1
13:45:58:320713,18,44,18,4,11,19,23,12
13:45:58:328882,-10,-22,9,15,-6,-4,-9,1
13:45:58:329706,-10,-22,9,15,-6,-4,-9,1
13:45:58:335746,-13,-6,10,19,9,-3,5,-1
13:45:58:351410,5,-4,18,11,4,-7,-28,6
13:45:58:352162,5,-4,18,11,4,-7,-28,6
13:45:58:358111,3,-4,-42,-15,-8,2,-4,-2
13:45:58:365657,-3,18,-7,-19,6,0,9,-4
13:45:58:373254,-3,18,-7,-19,6,0,9,-4
13:45:58:380742,-4,1,-7,2,1,9,26,0
13:45:58:388843,-4,3,-9,-6,-1,9,20,-6
13:45:58:389676,-4,3,-9,-6,-1,9,20,-6
13:45:58:395672,-31,-44,6,-19,2,-11,-19,-8
13:45:58:411395,-9,-17,-14,-9,-3,-6,-15,-2
13:45:58:412164,-9,-17,-14,-9,-3,-6,-15,-2
13:45:58:418307,8,15,21,8,-13,-12,-28,-5
13:45:58:425664,4,7,-26,-8,16,3,1,1
13:45:58:433241,4,7,-26,-8,16,3,1,1
13:45:58:440699,-10,16,13,0,-12,0,10,2
13:45:58:448794,-6,2,47,-12,-8,13,23,-5
13:45:58:449614,-6,2,47,-12,-8,13,23,-5
13:45:58:455652,-4,21,27,2,0,-20,-25,4
13:45:58:471356,-5,-18,-10,4,2,-3,-11,-3
13:45:58:472142,-5,-18,-10,4,2,-3,-11,-3
13:45:58:486364,27,12,12,-11,-7,-3,0,1
13:45:58:487103,-6,8,6,2,-7,0,-5,-2
13:45:58:493186,-6,8,6,2,-7,0,-5,-2
13:45:58:500781,4,-25,28,2,6,-7,0,0
13:45:58:508840,1,-9,-6,-9,-20,-18,-75,-6
13:45:58:509661,1,-9,-6,-9,-20,-18,-75,-6
13:45:58:515717,10,-22,-24,9,-4,4,2,-1
13:45:58:531441,-8,8,-23,8,11,-11,-1,-3
13:45:58:532177,-8,8,-23,8,11,-11,-1,-3
13:45:58:538186,-10,1,-15,-10,-1,3,3,-8
13:45:58:545666,9,33,40,31,0,-7,5,7
13:45:58:561378,9,33,40,31,0,-7,5,7
13:45:58:562176,3,2,-16,13,4,-2,6,-1
13:45:58:568909,16,20,7,-13,4,10,20,2
13:45:58:569601,16,20,7,-13,4,10,20,2
13:45:58:575680,-9,1,6,-11,-11,-15,-27,-4
13:45:58:591438,11,6,-17,-4,-7,9,21,8
13:45:58:592175,11,6,-17,-4,-7,9,21,8
13:45:58:598194,-7,19,9,0,7,-6,-2,-4
13:45:58:622052,-7,-2,-5,-6,14,15,16,0
13:45:58:622819,-7,-2,-5,-6,14,15,16,0
13:45:58:623649,-14,-6,2,0,2,-5,-15,-3
13:45:58:628585,-11,-26,-28,-10,-1,-13,-17,-4
13:45:58:635749,-11,-26,-28,-10,-1,-13,-17,-4
13:45:58:643118,9,-4,-4,-1,7,35,44,5
13:45:58:651507,0,-14,-22,-9,5,-2,-2,-4
13:45:58:652187,0,-14,-22,-9,5,-2,-2,-4
13:45:58:658097,13,20,4,-4,-10,2,15,5
13:45:58:673895,-19,-12,14,5,-3,0,14,0
13:45:58:674685,-19,-12,14,5,-3,0,14,0
13:45:58:680702,-8,16,28,-24,-14,-7,-33,-3
13:45:58:688873,8,-14,-5,-16,-7,3,-7,-2
13:45:58:689668,8,-14,-5,-16,-7,3,-7,-2
13:45:58:703178,19,-5,-19,2,12,20,8,10
13:45:58:711390,10,9,12,-2,-18,1,22,5
13:45:58:712197,10,9,12,-2,-18,1,22,5
13:45:58:718230,-28,-2,-16,4,-11,-23,-15,-14
13:45:58:733933,1,5,-11,13,8,-2,-16,-3
13:45:58:734685,1,5,-11,13,8,-2,-16,-3
13:45:58:740634,9,-1,-3,0,1,-12,-8,0
13:45:58:748202,-11,4,2,-23,-7,-5,-3,-7
13:45:58:755702,-11,4,2,-23,-7,-5,-3,-7
13:45:58:763139,1,-25,1,-1,6,6,9,1
13:45:58:771410,-1,-11,14,7,-10,3,-7,3
13:45:58:772190,-1,-11,14,7,-10,3,-7,3
13:45:58:778142,12,-14,-19,1,6,20,39,6
13:45:58:793839,10,-2,1,3,-2,-13,-18,-6
13:45:58:794631,10,-2,1,3,-2,-13,-18,-6
13:45:58:800744,-11,-8,-31,1,-1,10,39,-7
13:45:58:808837,0,-13,10,14,21,12,16,1
13:45:58:809662,0,-13,10,14,21,12,16,1
13:45:58:823155,4,-14,-17,-38,-14,-26,-35,-4
13:45:58:839524,-15,-6,-20,28,-1,-7,-2,-2
13:45:58:840347,-15,-6,-20,28,-1,-7,-2,-2
13:45:58:841091,-5,-1,-1,-5,-1,13,-17,2
13:45:58:853860,3,15,-19,-11,-3,-1,1,0
13:45:58:854655,3,15,-19,-11,-3,-1,1,0
13:45:58:860615,-5,12,-5,9,1,-18,-49,-8
13:45:58:868952,-1,14,-2,1,-4,4,33,4
13:45:58:869663,-1,14,-2,1,-4,4,33,4
13:45:58:883225,1,7,15,2,-3,-8,-8,3
13:45:58:891359,-7,-4,11,-4,-6,-4,-5,-4
13:45:58:892151,-7,-4,11,-4,-6,-4,-5,-4
13:45:58:898167,1,-6,-4,33,23,2,1,2
13:45:58:913888,11,11,8,6,2,3,-5,-2
13:45:58:914624,11,11,8,6,2,3,-5,-2
13:45:58:920701,0,9,9,-12,3,2,15,8
13:45:58:928820,-4,-8,-9,-11,3,20,30,0
13:45:58:929632,-4,-8,-9,-11,3,20,30,0
13:45:58:943166,2,-12,-27,4,-3,5,16,1
13:45:58:951436,9,19,30,-14,-4,-15,-27,-1
13:45:58:952146,9,19,30,-14,-4,-15,-27,-1
13:45:58:958163,-5,-20,-12,-2,-6,-2,-7,-6
13:45:58:973858,2,-24,-23,0,-7,3,-14,1
13:45:58:974647,2,-24,-23,0,-7,3,-14,1
13:45:58:980746,-4,-24,3,-11,0,0,-5,-6
13:45:58:996496,-4,-24,3,-11,0,0,-5,-6
13:45:58:997176,10,-5,14,-9,-10,-20,-23,-5
13:45:59:3200,-11,-25,30,15,-2,2,-2,-2
13:45:59:11332,-11,-25,30,15,-2,2,-2,-2
13:45:59:12118,7,2,-4,4,4,7,13,2
13:45:59:18261,17,50,1,-3,6,-8,-4,0
13:45:59:33973,17,50,1,-3,6,-8,-4,0
13:45:59:34722,-10,-3,-6,6,-4,-8,-18,-6
13:45:59:40654,-4,1,11,14,10,7,7,-1
13:45:59:56410,-4,1,11,14,10,7,7,-1
13:45:59:57173,-15,-1,-8,6,3,-2,-9,-9
13:45:59:63176,6,28,-16,-11,-14,-21,-19,-4
13:45:59:71376,6,28,-16,-11,-14,-21,-19,-4
13:45:59:72115,7,-32,-16,2,-2,-13,-4,5
13:45:59:78230,-7,6,14,-7,0,22,46,2
13:45:59:93900,-7,6,14,-7,0,22,46,2
13:45:59:94654,-2,-7,-10,3,18,12,-2,4
13:45:59:100752,0,3,-14,-5,-1,-9,-14,-1
13:45:59:116481,0,3,-14,-5,-1,-9,-14,-1
13:45:59:117199,-8,11,35,3,-11,-16,-8,-5
13:45:59:123152,14,4,9,4,7,10,3,6
13:45:59:131435,14,4,9,4,7,10,3,6
13:45:59:132162,-29,-18,-16,-15,-7,15,11,-9
13:45:59:138183,0,-15,-18,-3,4,9,-3,-5
13:45:59:153918,0,-15,-18,-3,4,9,-3,-5
13:45:59:154684,8,-7,5,13,-11,-13,-8,1
13:45:59:160630,-3,-10,0,16,1,-18,-35,-2
13:45:59:176343,-3,-10,0,16,1,-18,-35,-2
13:45:59:177145,4,14,2,-8,-8,6,17,1
13:45:59:183194,7,12,-3,4,-9,-15,-5,4
13:45:59:191376,7,12,-3,4,-9,-15,-5,4
13:45:59:192144,-10,11,0,3,2,3,-2,3
13:45:59:198173,-16,-15,26,-4,6,14,-6,-7
13:45:59:213935,-16,-15,26,-4,6,14,-6,-7
13:45:59:214649,4,3,1,-13,-12,3,21,1
13:45:59:220654,2,-10,-2,5,-3,-6,4,-4
13:45:59:236433,2,-10,-2,5,-3,-6,4,-4
13:45:59:237149,4,15,-5,-2,12,1,-8,4
13:45:59:243109,-30,-5,-14,-17,-11,-8,8,-5
13:45:59:251481,-30,-5,-14,-17,-11,-8,8,-5
13:45:59:252168,-1,1,-13,-16,0,15,11,1
13:45:59:258126,14,21,-25,-2,-8,3,19,4
13:45:59:273876,14,21,-25,-2,-8,3,19,4
13:45:59:274625,-3,-40,-5,2,16,-14,-11,-5
13:45:59:280711,-5,5,0,-7,-10,-2,-5,-6
13:45:59:304596,-5,5,0,-7,-10,-2,-5,-6
13:45:59:305358,-1,-2,43,-1,3,-6,-1,-2
13:45:59:306113,4,-2,14,11,7,0,-2,5
13:45:59:312067,4,-2,14,11,7,0,-2,5
13:45:59:312827,10,9,-41,15,4,-5,-17,-2
13:45:59:318263,13,38,19,-10,-2,17,24,7
13:45:59:333973,13,38,19,-10,-2,17,24,7
13:45:59:334709,-1,-3,-5,-10,-11,13,34,-1
13:45:59:340656,-3,-38,4,-11,-6,-8,-13,-8
13:45:59:356405,-3,-38,4,-11,-6,-8,-13,-8
13:45:59:357173,20,16,16,-11,9,13,1,6
13:45:59:363268,-3,-6,0,-14,-19,-10,-9,-8
13:45:59:371377,-3,-6,0,-14,-19,-10,-9,-8
13:45:59:372142,-2,28,-22,-7,-12,-12,-7,-1
13:45:59:378146,-28,-24,-3,1,-1,-15,-16,-10
13:45:59:393859,-28,-24,-3,1,-1,-15,-16,-10
13:45:59:394643,-18,-13,-9,18,2,-1,9,-8
13:45:59:400745,-3,6,26,13,10,5,-6,-2
13:45:59:408210,-3,6,26,13,10,5,-6,-2
13:45:59:415752,1,11,20,3,4,16,22,6
13:45:59:423178,-12,1,-4,2,2,-11,-38,-5
13:45:59:431419,-12,1,-4,2,2,-11,-38,-5
13:45:59:432124,-3,25,-6,-9,-6,2,-3,-3
13:45:59:438191,8,16,-37,-26,-4,-6,-4,4
13:45:59:453873,8,16,-37,-26,-4,-6,-4,4
13:45:59:454636,-17,-10,-23,-4,-9,-20,-15,-3
13:45:59:460631,25,10,-10,2,16,24,26,4
13:45:59:468296,25,10,-10,2,16,24,26,4
13:45:59:475654,2,-16,3,7,-1,-1,-1,-5
13:45:59:483213,-10,2,2,22,3,3,2,-1
13:45:59:491376,-10,2,2,22,3,3,2,-1
13:45:59:492134,2,-9,-19,7,-7,-9,-13,3
13:45:59:498222,5,8,14,-1,-7,-2,15,-1
13:45:59:513957,5,8,14,-1,-7,-2,15,-1
13:45:59:514647,1,15,-14,-8,1,-1,9,-2
13:45:59:520638,12,5,-2,-12,-15,-23,-28,-2
13:45:59:528234,12,5,-2,-12,-15,-23,-28,-2
13:45:59:535711,-10,-23,-23,-9,2,-5,-28,-6
13:45:59:543114,-27,-20,-4,10,1,3,7,-2
13:45:59:551379,-27,-20,-4,10,1,3,7,-2
13:45:59:552146,6,35,24,11,17,8,4,0
13:45:59:565639,-8,-6,-27,-42,-14,-6,2,-2
13:45:59:573859,-8,-6,-27,-42,-14,-6,2,-2
13:45:59:574611,-9,-5,25,8,-11,2,-7,-4
13:45:59:580683,10,19,39,17,34,6,-5,4
13:45:59:588226,10,19,39,17,34,6,-5,4
13:45:59:595654,15,14,5,1,6,16,50,14
13:45:59:603162,2,6,0,20,-5,0,16,5
13:45:59:611489,2,6,0,20,-5,0,16,5
13:45:59:612169,-19,-26,-6,-1,-5,-8,-35,-13
13:45:59:625659,16,-9,11,-3,-1,12,25,9
13:45:59:633931,16,-9,11,-3,-1,12,25,9
13:45:59:634708,10,-22,-14,-10,-10,-5,-1,0
13:45:59:640658,-10,-6,-15,14,4,-4,-13,-5
13:45:59:648333,-10,-6,-15,14,4,-4,-13,-5
13:45:59:655652,10,-38,-6,-6,-14,-9,-3,1
13:45:59:663161,-2,-12,-12,5,8,12,7,-3
13:45:59:671362,-2,-12,-12,5,8,12,7,-3
13:45:59:672123,9,-3,-33,-18,11,19,9,0
13:45:59:685799,7,17,12,1,-18,-12,-8,-4
13:45:59:693899,7,17,12,1,-18,-12,-8,-4
13:45:59:694688,-14,-7,-9,18,-9,-22,-13,-8
13:45:59:700722,-6,-10,2,-18,0,-2,-4,-2
13:45:59:708161,-6,-10,2,-18,0,-2,-4,-2
13:45:59:715671,-13,18,3,-1,1,2,0,-1
13:45:59:723173,1,-19,40,5,-5,-9,-20,-3
13:45:59:731353,1,-19,40,5,-5,-9,-20,-3
13:45:59:732115,14,14,19,-5,-1,-5,2,0
13:45:59:745727,-6,-4,-33,-12,-2,-24,-18,-8
13:45:59:753858,-6,-4,-33,-12,-2,-24,-18,-8
13:45:59:754648,-2,-4,3,-4,-1,12,19,1
13:45:59:760652,3,0,-19,-2,-3,-1,-8,-2
13:45:59:768215,3,0,-19,-2,-3,-1,-8,-2
13:45:59:775610,-11,11,12,27,26,2,0,1
13:45:59:783160,4,16,-21,-4,-5,5,0,3
13:45:59:791346,4,16,-21,-4,-5,5,0,3
13:45:59:792156,8,-6,-18,-31,-12,-10,-18,-2
13:45:59:805751,-8,-2,-5,-6,-10,13,25,1
13:45:59:813924,-8,-2,-5,-6,-10,13,25,1
13:45:59:814650,0,31,23,-1,-7,-4,-1,0
13:45:59:820683,-9,-29,-11,5,12,6,1,-2
13:45:59:828200,-9,-29,-11,5,12,6,1,-2
13:45:59:835715,-5,-9,24,18,-2,-7,2,1
13:45:59:843132,-1,6,20,-4,-4,-5,-4,-2
13:45:59:858848,-1,6,20,-4,-4,-5,-4,-2
13:45:59:859635,7,-13,27,-13,-1,-3,5,6
13:45:59:865647,0,-9,0,-10,-12,1,-1,-3
13:45:59:873863,0,-9,0,-10,-12,1,-1,-3
13:45:59:874623,4,-18,-37,15,5,0,-9,-7
13:45:59:880739,-14,-27,-20,-4,0,0,-24,1
13:45:59:888244,-14,-27,-20,-4,0,0,-24,1
13:45:59:895673,-6,17,18,-21,15,12,11,2
13:45:59:903151,10,1,-2,-1,-22,-21,-7,-1
13:45:59:911413,10,1,-2,-1,-22,-21,-7,-1
13:45:59:912181,-5,9,-24,-27,-5,-9,-24,-8
13:45:59:925654,3,-9,-17,4,5,12,19,0
13:45:59:933950,3,-9,-17,4,5,12,19,0
13:45:59:934689,-20,-29,6,16,-8,-4,8,-3
13:45:59:940629,5,20,5,2,3,-8,-5,-2
13:45:59:948270,5,20,5,2,3,-8,-5,-2
13:45:59:955674,3,-35,-16,-24,-6,-2,-22,-1
13:45:59:963182,-12,11,17,22,1,1,11,2
13:45:59:971367,-12,11,17,22,1,1,11,2
13:45:59:972125,4,44,-19,1,10,2,-11,-3
13:45:59:985721,1,8,24,-7,2,3,-14,-1
13:45:59:993901,1,8,24,-7,2,3,-14,-1
13:45:59:994669,14,68,0,8,5,-4,5,-1
13:46:00:765,-8,6,-8,-4,-9,-14,-9,-3
13:46:00:8163,-8,6,-8,-4,-9,-14,-9,-3
13:46:00:15686,12,-49,-47,6,-16,-9,2,-2
13:46:00:23178,9,-15,-27,2,10,5,1,-1
13:46:00:31398,9,-15,-27,2,10,5,1,-1
13:46:00:32124,1,-2,8,0,3,-2,7,2
13:46:00:45645,-6,-16,6,-13,-7,3,14,0
13:46:00:53849,-6,-16,6,-13,-7,3,14,0
13:46:00:54645,-2,-42,-12,3,3,-4,-15,-3
13:46:00:60637,-20,-14,-2,-29,2,7,16,1
13:46:00:68247,-20,-14,-2,-29,2,7,16,1
13:46:00:75649,-5,3,12,-14,-17,14,28,-6
13:46:00:83162,5,2,22,7,-2,13,12,-2
13:46:00:91339,5,2,22,7,-2,13,12,-2
13:46:00:92127,0,-16,10,5,5,-8,-3,3
13:46:00:105681,10,1,-2,6,5,-1,-5,5
13:46:00:113897,10,1,-2,6,5,-1,-5,5
13:46:00:114620,6,27,49,17,-8,-12,-17,0
13:46:00:120671,7,7,6,9,6,11,9,3
13:46:00:128266,7,7,6,9,6,11,9,3
13:46:00:135766,-10,9,-4,-9,-4,-15,-21,-4
13:46:00:143148,9,-3,-6,-3,-9,-7,32,0
13:46:00:151492,9,-3,-6,-3,-9,-7,32,0
13:46:00:152167,0,-9,-66,10,7,-1,-1,1
13:46:00:165639,-3,-3,-8,-10,0,1,-10,-2
13:46:00:173878,-3,-3,-8,-10,0,1,-10,-2
13:46:00:174662,1,-1,11,-16,-21,-14,-2,-9
13:46:00:180721,-11,-1,-5,9,5,6,-6,-7
13:46:00:188234,-11,-1,-5,9,5,6,-6,-7
13:46:00:195771,-7,31,19,1,-2,8,7,6
13:46:00:203255,1,23,19,6,12,46,57,16
13:46:00:211383,1,23,19,6,12,46,57,16
13:46:00:212151,12,5,11,7,10,11,10,3
13:46:00:225625,-1,0,-9,-2,-14,-30,-43,-15
13:46:00:233951,-1,0,-9,-2,-14,-30,-43,-15
13:46:00:234667,-18,-7,0,-6,8,1,2,-1
13:46:00:240630,-9,14,6,-1,-4,-12,-9,-6
13:46:00:248271,-9,14,6,-1,-4,-12,-9,-6
13:46:00:255680,5,1,-12,-10,1,-12,-45,-3
13:46:00:263266,5,-23,-26,-11,5,6,-10,-4
13:46:00:271382,5,-23,-26,-11,5,6,-10,-4
13:46:00:272146,4,11,23,7,-12,0,-3,0
13:46:00:285714,2,-1,5,-2,-2,-13,2,0
13:46:00:302167,2,-1,5,-2,-2,-13,2,0
13:46:00:302817,-19,-11,4,-9,1,0,-19,-13
13:46:00:303616,4,-16,-2,-1,-4,1,2,6
13:46:00:308189,4,-16,-2,-1,-4,1,2,6
13:46:00:315695,2,-10,-11,-9,-8,7,8,0
13:46:00:323168,-14,1,-7,3,-2,-7,-16,-7
13:46:00:331417,-14,1,-7,3,-2,-7,-16,-7
13:46:00:332151,-7,-3,-7,14,10,-12,-23,1
13:46:00:345734,22,-1,-21,21,7,4,5,7
13:46:00:353877,22,-1,-21,21,7,4,5,7
13:46:00:354695,1,-16,3,-7,1,5,15,-5
13:46:00:360680,5,14,-1,-9,-9,-11,-23,0
13:46:00:368240,5,14,-1,-9,-9,-11,-23,0
13:46:00:375682,-6,-6,-22,3,-2,8,7,-2
13:46:00:383215,-10,0,8,22,0,-5,-2,-2
13:46:00:391367,-10,0,8,22,0,-5,-2,-2
13:46:00:392151,2,4,0,0,-5,1,7,3
13:46:00:405713,0,9,9,6,-1,-7,2,0
13:46:00:413906,0,9,9,6,-1,-7,2,0
13:46:00:414631,6,8,3,-19,-5,6,9,1
13:46:00:428798,3,22,4,-4,7,1,-8,-5
13:46:00:429641,3,22,4,-4,7,1,-8,-5
13:46:00:435790,9,-7,36,-13,8,-4,-1,3
13:46:00:443161,-4,-18,29,-2,0,-8,-9,-8
13:46:00:451439,-4,-18,29,-2,0,-8,-9,-8
13:46:00:452170,-2,17,5,6,-5,5,6,-1
13:46:00:465691,-3,-14,-11,0,-5,-9,4,0
13:46:00:473868,-3,-14,-11,0,-5,-9,4,0
13:46:00:474650,-5,-34,-10,-1,13,-5,0,-3
13:46:00:488874,0,-5,10,4,6,5,-2,2
13:46:00:489653,0,-5,10,4,6,5,-2,2
13:46:00:495745,-25,4,1,36,-1,-10,-14,0
13:46:00:503211,-5,-6,-2,-9,-3,-6,-9,-4
13:46:00:510661,-5,-6,-2,-9,-3,-6,-9,-4
13:46:00:518213,-9,-11,-17,-4,-18,8,11,-1
13:46:00:525649,-6,-1,-3,0,7,0,-10,0
13:46:00:533877,-6,-1,-3,0,7,0,-10,0
13:46:00:534629,9,-19,-28,-1,-5,4,11,-1
13:46:00:548800,6,5,-5,12,-4,4,19,8
13:46:00:549598,6,5,-5,12,-4,4,19,8
13:46:00:555698,14,-5,8,-15,4,-19,-15,-1
13:46:00:563260,3,-3,-6,-23,-11,0,-2,-3
13:46:00:578941,3,-3,-6,-23,-11,0,-2,-3
13:46:00:579681,-12,-13,0,5,-1,10,8,-2
13:46:00:585727,-5,19,-5,8,3,-4,-1,-3
13:46:00:593837,-5,19,-5,8,3,-4,-1,-3
13:46:00:594622,-4,-5,-9,-3,-6,-12,-7,-2
13:46:00:608850,4,-1,6,-3,2,22,24,2
13:46:00:609614,4,-1,6,-3,2,22,24,2
13:46:00:615680,3,-2,-1,-16,-5,-1,-1,-1
13:46:00:623192,10,-6,-4,-17,-5,-8,-13,0
13:46:00:630674,10,-6,-4,-17,-5,-8,-13,0
13:46:00:638179,-3,17,9,-3,-6,-3,-10,-7
13:46:00:654471,3,-3,-6,1,1,-3,-8,1
13:46:00:655271,3,-3,-6,1,1,-3,-8,1
13:46:00:656106,-2,9,5,9,0,3,3,0
13:46:00:668982,-3,28,33,-14,-18,-12,-12,-6
13:46:00:669680,-3,28,33,-14,-18,-12,-12,-6
13:46:00:675644,2,5,18,10,-5,-2,-6,2
13:46:00:691331,-6,6,-6,-12,3,-1,3,-3
13:46:00:692132,-6,6,-6,-12,3,-1,3,-3
13:46:00:698252,-10,-9,1,2,3,10,16,1
13:46:00:705641,-6,-21,-29,3,-10,-1,20,-2
13:46:00:713947,-6,-21,-29,3,-10,-1,20,-2
13:46:00:714678,10,-4,-1,-3,7,1,4,7
13:46:00:728888,-2,-19,-8,0,-6,0,-2,-8
13:46:00:729656,-2,-19,-8,0,-6,0,-2,-8
13:46:00:735733,-19,-41,3,-6,-7,-2,8,-4
13:46:00:743129,-12,-3,10,-11,-12,-13,-12,-5
13:46:00:750787,-12,-3,10,-11,-12,-13,-12,-5
13:46:00:766352,7,-2,-3,-12,2,8,15,0
13:46:00:767128,16,11,-1,11,23,25,28,11
13:46:00:773864,16,11,-1,11,23,25,28,11
13:46:00:774643,-4,0,-1,19,4,-12,-50,-1
13:46:00:788877,-8,-4,-3,-5,-3,-12,-8,-1
13:46:00:789646,-8,-4,-3,-5,-3,-12,-8,-1
13:46:00:795716,20,8,0,-13,-1,-11,-13,3
13:46:00:803187,-19,-19,-3,17,16,-16,-35,-13
13:46:00:810717,-19,-19,-3,17,16,-16,-35,-13
13:46:00:818243,-6,9,1,1,-6,-12,-4,-7
13:46:00:825636,12,6,5,-10,2,5,0,8
13:46:00:833953,12,6,5,-10,2,5,0,8
13:46:00:834672,-3,33,3,17,2,8,27,-8
13:46:00:857053,-5,-15,-78,3,-3,-1,-5,-6
13:46:00:857821,-5,-15,-78,3,-3,-1,-5,-6
13:46:00:858625,-8,5,-3,-1,-5,-10,-11,0
13:46:00:863107,4,11,25,-4,-8,6,6,5
13:46:00:870682,4,11,25,-4,-8,6,6,5
13:46:00:878154,8,3,3,-9,-6,1,14,-1
13:46:00:885726,13,1,-15,-20,-12,18,23,3
13:46:00:901423,13,1,-15,-20,-12,18,23,3
13:46:00:902151,2,-5,7,11,18,12,-3,2
13:46:00:908835,9,-8,2,-1,-12,-20,-27,1
13:46:00:909639,9,-8,2,-1,-12,-20,-27,1
13:46:00:915661,-8,-8,-39,-30,-6,-14,6,-4
13:46:00:923152,-8,-14,3,33,17,15,-8,-2
13:46:00:930795,-8,-14,3,33,17,15,-8,-2
13:46:00:938155,20,60,23,-3,12,0,-8,2
13:46:00:945711,2,-9,2,-12,-6,-11,0,-1
13:46:00:953938,2,-9,2,-12,-6,-11,0,-1
13:46:00:954683,-15,-17,-32,-8,-9,-11,-10,-4
13:46:00:968948,13,5,3,11,16,1,-27,2
13:46:00:969656,13,5,3,11,16,1,-27,2
13:46:00:975604,4,3,19,4,2,18,30,7
13:46:00:983205,-10,3,45,-10,-12,-20,22,-7
13:46:00:990730,-10,3,45,-10,-12,-20,22,-7
13:46:00:998215,-8,3,2,28,1,-7,-8,-1
13:46:01:5707,-8,9,19,-4,-4,-11,-12,-3
13:46:01:13892,-8,9,19,-4,-4,-11,-12,-3
13:46:01:14596,1,15,8,1,-3,13,8,6
13:46:01:28814,-29,-13,-12,-1,-5,3,7,-5
13:46:01:29611,-29,-13,-12,-1,-5,3,7,-5
13:46:01:35749,-8,13,5,-12,-12,-9,-32,-1
13:46:01:43176,3,12,16,-9,-7,12,29,4
13:46:01:58918,3,12,16,-9,-7,12,29,4
13:46:01:59671,-1,-25,0,10,2,-4,3,-5
13:46:01:65741,-16,-22,-3,-9,-5,0,-12,0
13:46:01:73881,-16,-22,-3,-9,-5,0,-12,0
13:46:01:74613,5,-13,5,-18,4,10,-2,-2
13:46:01:88846,-2,-20,-18,-4,-1,-5,-3,-2
13:46:01:89639,-2,-20,-18,-4,-1,-5,-3,-2
13:46:01:95745,10,0,1,-13,-6,-12,-15,-2
13:46:01:103280,2,23,-10,2,0,11,14,-2
13:46:01:118984,2,23,-10,2,0,11,14,-2
13:46:01:119679,-1,-29,-6,-12,-7,-1,-2,-3
13:46:01:125649,12,20,47,7,3,-3,4,4
13:46:01:133981,12,20,47,7,3,-3,4,4
13:46:01:134664,-10,-27,-10,11,-5,8,30,1
13:46:01:148916,3,-8,-17,21,4,-17,-27,-2
13:46:01:149676,3,-8,-17,21,4,-17,-27,-2
13:46:01:155625,-11,1,8,-4,-3,0,-3,1
13:46:01:163134,-7,4,10,9,-4,-3,-5,-4
13:46:01:178923,-7,4,10,9,-4,-3,-5,-4
13:46:01:179662,-1,-43,-3,-12,-2,-1,6,0
13:46:01:185755,4,7,10,12,3,2,-2,0
13:46:01:193872,4,7,10,12,3,2,-2,0
13:46:01:194667,1,10,-8,-1,1,-17,-20,-3
13:46:01:208824,-10,-5,10,-15,-3,1,-5,-1
13:46:01:209630,-10,-5,10,-15,-3,1,-5,-1
13:46:01:215671,7,0,-23,-5,-6,8,33,1
13:46:01:223185,-9,3,-16,-9,-4,-1,-2,-2
13:46:01:230802,-9,3,-16,-9,-4,-1,-2,-2
13:46:01:246429,-5,-11,-15,4,2,12,7,-4
13:46:01:247061,15,-6,-8,-12,-2,-2,10,1
13:46:01:253886,15,-6,-8,-12,-2,-2,10,1
13:46:01:254669,4,-2,-15,-5,-1,1,-17,-3
13:46:01:268931,1,14,-1,1,20,26,19,7
13:46:01:269653,1,14,-1,1,20,26,19,7
13:46:01:275643,4,5,-6,17,10,-3,-1,-1
13:46:01:283217,3,-10,-6,12,-10,-15,-14,-3
13:46:01:290732,3,-10,-6,12,-10,-15,-14,-3
13:46:01:298182,-9,30,29,10,21,9,13,5
13:46:01:305667,-2,1,4,-7,-6,-5,4,-4
13:46:01:321379,-2,1,4,-7,-6,-5,4,-4
13:46:01:322128,3,18,26,11,-8,12,13,1
13:46:01:328863,-1,7,-11,0,0,9,19,3
13:46:01:329666,-1,7,-11,0,0,9,19,3
13:46:01:335676,4,4,17,5,4,7,7,16
13:46:01:343150,6,8,-11,-3,-2,-3,-11,4
13:46:01:350783,6,8,-11,-3,-2,-3,-11,4
13:46:01:358129,0,-6,10,6,-9,-17,-15,-4
13:46:01:365675,-6,-5,-24,7,-5,-10,-15,-6
13:46:01:373799,-6,-5,-24,7,-5,-10,-15,-6
13:46:01:374617,-2,-1,-11,-13,7,0,-4,-7
13:46:01:397127,-8,0,-6,-16,-4,-8,-16,-6
13:46:01:397803,-8,0,-6,-16,-4,-8,-16,-6
13:46:01:398622,-2,4,-19,-1,-8,12,-7,1
13:46:01:403144,9,-25,-6,-1,10,-1,-37,-4
13:46:01:410665,9,-25,-6,-1,10,-1,-37,-4
13:46:01:418258,-8,-6,-6,-20,-9,-19,-3,-1
13:46:01:425653,4,-3,2,-12,-15,-14,-19,-8
13:46:01:433263,4,-3,2,-12,-15,-14,-19,-8
13:46:01:440702,-27,-22,21,-8,9,1,-6,-10
13:46:01:448825,-5,-5,13,37,4,-12,6,-4
13:46:01:449652,-5,-5,13,37,4,-12,6,-4
13:46:01:455681,-3,-4,-34,4,4,-5,2,-4
13:46:01:471390,-1,-14,-11,-20,-1,2,12,-6
13:46:01:472191,-1,-14,-11,-20,-1,2,12,-6
13:46:01:478203,5,6,12,10,-8,-9,-15,-1
13:46:01:485676,3,20,-28,-1,10,24,22,1
13:46:01:493222,3,20,-28,-1,10,24,22,1
13:46:01:500767,-1,-22,-15,-7,-14,-17,-38,-3
13:46:01:508849,20,-3,26,-2,-5,8,24,17
13:46:01:509623,20,-3,26,-2,-5,8,24,17
13:46:01:515655,-13,-20,-18,1,8,5,2,-4
13:46:01:531967,-18,2,-8,-11,-10,-9,-12,-3
13:46:01:532785,-18,2,-8,-11,-10,-9,-12,-3
13:46:01:538220,1,2,6,-4,-9,-3,2,-5
13:46:01:545752,0,-5,16,11,2,-6,7,0
13:46:01:553196,0,-5,16,11,2,-6,7,0
13:46:01:560594,8,-2,-9,6,-3,10,30,-3
13:46:01:568890,-2,-10,-30,-2,4,18,9,2
13:46:01:569653,-2,-10,-30,-2,4,18,9,2
13:46:01:575643,12,2,3,-1,7,0,-2,6
13:46:01:591305,-11,-1,-10,-23,-13,-11,-2,0
13:46:01:592109,-11,-1,-10,-23,-13,-11,-2,0
13:46:01:598172,6,12,-18,-17,-8,-34,-65,-4
13:46:01:605654,4,-2,-4,12,12,37,32,6
13:46:01:613374,4,-2,-4,12,12,37,32,6
13:46:01:620662,-2,-3,-4,-6,3,20,22,5
13:46:01:628889,-3,-1,-10,-7,-8,-17,-13,-5
13:46:01:629672,-3,-1,-10,-7,-8,-17,-13,-5
13:46:01:635720,7,-6,-23,-17,-11,-8,-2,-5
13:46:01:651363,8,-10,10,25,32,8,-1,0
13:46:01:652161,8,-10,10,25,32,8,-1,0
13:46:01:658130,-3,-12,6,6,-1,-2,5,0
13:46:01:665702,2,38,34,-3,-2,-9,-12,-5
13:46:01:673202,2,38,34,-3,-2,-9,-12,-5
13:46:01:689542,-4,17,25,-5,-5,13,21,2
13:46:01:690294,-5,-3,-7,-5,-12,-28,-43,4
13:46:01:691109,-5,-3,-7,-5,-12,-28,-43,4
13:46:01:695683,-23,14,17,1,-1,1,18,-2
13:46:01:711405,-2,-18,-5,-2,7,0,3,-2
13:46:01:712178,-2,-18,-5,-2,7,0,3,-2
13:46:01:718185,-4,2,1,-4,3,-6,-4,-4
13:46:01:725653,-7,-20,6,17,-14,3,0,-7
13:46:01:733292,-7,-20,6,17,-14,3,0,-7
13:46:01:740654,1,-12,6,11,17,5,8,1
13:46:01:748856,0,24,30,-8,-4,-5,-2,-3
13:46:01:749681,0,24,30,-8,-4,-5,-2,-3
13:46:01:755653,-14,-13,0,-3,-12,-6,-3,-4
13:46:01:771379,17,-6,-19,-12,-1,-11,0,3
13:46:01:772170,17,-6,-19,-12,-1,-11,0,3
13:46:01:778150,9,25,12,8,4,2,-8,-1
13:46:01:785762,-5,1,-17,4,5,25,14,-3
13:46:01:793205,-5,1,-17,4,5,25,14,-3
13:46:01:800747,7,-6,-11,8,-6,-15,3,1
13:46:01:808811,-17,-1,5,-6,-12,-6,4,-3
13:46:01:809640,-17,-1,5,-6,-12,-6,4,-3
13:46:01:815706,-15,1,3,4,-7,-2,-18,-9
13:46:01:831434,12,16,5,19,14,-2,-1,4
13:46:01:832191,12,16,5,19,14,-2,-1,4
13:46:01:838172,-1,-6,18,23,4,7,1,0
13:46:01:845706,-2,-5,-24,0,-11,-8,-1,-2
13:46:01:853194,-2,-5,-24,0,-11,-8,-1,-2
13:46:01:860657,11,5,2,3,3,-5,-9,1
13:46:01:868930,-5,-16,12,0,1,9,14,2
13:46:01:869612,-5,-16,12,0,1,9,14,2
13:46:01:875599,-2,-10,1,-10,-10,-16,-22,-1
13:46:01:891310,-8,-1,-7,-20,-9,14,44,0
13:46:01:892127,-8,-1,-7,-20,-9,14,44,0
13:46:01:898204,4,9,17,-1,-1,3,38,0
13:46:01:905677,8,10,2,8,12,-4,-13,0
13:46:01:913186,8,10,2,8,12,-4,-13,0
13:46:01:920634,15,44,-9,4,2,8,0,6
13:46:01:928852,-23,-14,-2,-17,-13,-15,-12,-7
13:46:01:929632,-23,-14,-2,-17,-13,-15,-12,-7
13:46:01:935752,9,6,-41,16,13,13,-4,-2
13:46:01:951368,-2,3,4,-3,17,12,5,-2
13:46:01:952146,-2,3,4,-3,17,12,5,-2
13:46:01:958106,-9,-15,10,-2,-9,-12,-2,-5
13:46:01:965602,-2,1,-21,-11,-15,-19,-23,-2
13:46:01:973222,-2,1,-21,-11,-15,-19,-23,-2
13:46:01:980701,-13,-16,-18,-29,-10,-12,-15,-7
13:46:01:988870,13,3,12,-1,-6,11,0,0
13:46:01:989658,13,3,12,-1,-6,11,0,0
13:46:01:995686,5,-10,11,1,7,-2,4,-2
13:46:02:11384,8,-13,-4,-12,-9,-7,6,-5
13:46:02:12131,8,-13,-4,-12,-9,-7,6,-5
13:46:02:18217,-7,11,-9,-4,3,-4,-14,4
13:46:02:25667,-1,-3,7,7,12,4,-15,1
13:46:02:33258,-1,-3,7,7,12,4,-15,1
13:46:02:40673,-16,7,7,-9,-1,0,-9,-8
13:46:02:48861,3,20,3,0,-5,-4,-12,1
13:46:02:49681,3,20,3,0,-5,-4,-12,1
13:46:02:55685,14,-18,27,3,-4,-6,12,1
13:46:02:71385,-16,-7,-26,-6,-2,11,10,0
13:46:02:72195,-16,-7,-26,-6,-2,11,10,0
13:46:02:78132,5,-21,-14,1,3,6,3,-4
13:46:02:85718,-2,-16,10,-14,-11,-21,-21,-6
13:46:02:93254,-2,-16,10,-14,-11,-21,-21,-6
13:46:02:100711,3,19,4,-1,-2,3,3,1
13:46:02:108852,-1,23,-1,-21,-2,0,2,-5
13:46:02:109638,-1,23,-1,-21,-2,0,2,-5
13:46:02:115710,4,2,4,-7,2,8,12,2
13:46:02:131383,-8,-2,27,31,0,-5,-4,1
13:46:02:132103,-8,-2,27,31,0,-5,-4,1
13:46:02:138175,-2,-5,-6,20,-5,-9,-8,-6
13:46:02:145691,10,16,-1,25,13,-3,4,3
13:46:02:153223,10,16,-1,25,13,-3,4,3
13:46:02:160660,-8,1,-6,5,-1,16,35,8
13:46:02:168912,7,-7,-16,-6,-4,-14,-6,-2
13:46:02:169660,7,-7,-16,-6,-4,-14,-6,-2
13:46:02:175671,1,-15,-2,-13,-4,3,-18,0
13:46:02:191318,4,-12,8,-4,-8,0,1,0
13:46:02:192131,4,-12,8,-4,-8,0,1,0
13:46:02:198282,-4,-3,7,-19,-8,9,18,4
13:46:02:205723,2,3,-23,8,17,-3,-6,-4
13:46:02:213272,2,3,-23,8,17,-3,-6,-4
13:46:02:229480,-14,-15,-3,2,4,-3,-2,-6
13:46:02:230296,0,48,9,9,3,12,43,-2
13:46:02:231117,0,48,9,9,3,12,43,-2
13:46:02:243162,8,47,-12,4,-9,-15,-14,0
13:46:02:251378,0,-19,-23,-30,3,-3,-21,1
13:46:02:252165,0,-19,-23,-30,3,-3,-21,1
13:46:02:258146,15,30,5,-11,-10,2,6,3
13:46:02:265720,-15,-37,22,10,-2,6,-7,-2
13:46:02:273213,-15,-37,22,10,-2,6,-7,-2
13:46:02:280686,2,-19,11,19,7,-4,-17,-3
13:46:02:288861,-5,-5,-6,-14,-13,-2,-8,-1
13:46:02:289667,-5,-5,-6,-14,-13,-2,-8,-1
13:46:02:295611,-10,-22,3,19,24,20,12,-2
13:46:02:311408,-10,-22,3,19,24,20,12,-2
13:46:02:312133,13,0,-3,5,3,1,8,7
13:46:02:318221,9,-9,11,-19,-22,-11,-10,4
13:46:02:333933,9,-9,11,-19,-22,-11,-10,4
13:46:02:334663,3,-9,6,4,-8,-10,-21,-5
13:46:02:340673,7,19,-21,-5,18,4,-1,0
13:46:02:348864,7,19,-21,-5,18,4,-1,0
13:46:02:349615,-10,-18,8,-15,-13,-2,-12,-4
13:46:02:355636,-9,-10,-47,1,-6,-12,-9,-7
13:46:02:371367,-9,-10,-47,1,-6,-12,-9,-7
13:46:02:372148,17,-8,-8,24,4,-2,4,10
13:46:02:378215,-4,0,-19,4,1,0,-9,-2
13:46:02:393827,-4,0,-19,4,1,0,-9,-2
13:46:02:394672,-7,-10,-13,-17,7,2,0,-4
13:46:02:400738,0,-9,11,-21,-14,-7,-11,-5
13:46:02:408887,0,-9,11,-21,-14,-7,-11,-5
13:46:02:409633,0,-10,8,-2,-8,1,0,-4
13:46:02:423195,-6,-8,-3,1,-2,2,-11,2
13:46:02:431351,-6,-8,-3,1,-2,2,-11,2
13:46:02:432112,-13,9,2,-8,-12,-16,3,-3
13:46:02:438177,-9,-11,-14,-4,-4,-15,-27,-7
13:46:02:453902,-9,-11,-14,-4,-4,-15,-27,-7
13:46:02:454674,-12,-5,-3,11,8,10,5,-1
13:46:02:460641,-1,18,-1,-4,-15,-7,4,-3
13:46:02:468906,-1,18,-1,-4,-15,-7,4,-3
13:46:02:469649,15,14,-25,0,5,5,3,4
13:46:02:483169,2,2,29,15,11,7,14,2
13:46:02:491372,2,2,29,15,11,7,14,2
13:46:02:492221,-3,29,-3,-13,-15,-5,-2,-2
13:46:02:498214,-13,-15,0,35,6,2,14,4
13:46:02:513907,-13,-15,0,35,6,2,14,4
13:46:02:514638,-10,-13,-4,-16,6,-14,-15,-7
13:46:02:520668,11,7,31,-15,1,9,15,4
13:46:02:528831,11,7,31,-15,1,9,15,4
13:46:02:529644,-3,9,26,18,13,5,1,0
13:46:02:543130,3,-16,-7,-13,-4,-12,-29,-4
13:46:02:551425,3,-16,-7,-13,-4,-12,-29,-4
13:46:02:552153,-6,-8,-19,-21,-17,-13,-6,1
13:46:02:558124,-11,-11,10,-21,-5,1,5,-3
13:46:02:573903,-11,-11,10,-21,-5,1,5,-3
13:46:02:574671,-7,13,7,21,3,-5,-13,-3
13:46:02:580794,24,12,22,-3,-1,19,46,11
13:46:02:588944,24,12,22,-3,-1,19,46,11
13:46:02:589682,-8,-10,-3,16,-7,5,-4,-3
13:46:02:603180,-4,24,3,-5,3,-7,-20,-4
13:46:02:611462,-4,24,3,-5,3,-7,-20,-4
13:46:02:612176,16,-17,-12,-2,-13,-15,-21,4
13:46:02:618253,4,-2,-5,9,33,36,24,2
13:46:02:633940,4,-2,-5,9,33,36,24,2
13:46:02:634684,-29,8,13,-9,-12,3,7,-10
13:46:02:649562,-6,1,-2,5,-9,-12,-20,-6
13:46:02:650301,-6,1,-2,5,-9,-12,-20,-6
13:46:02:651107,16,-11,-18,-33,-3,6,10,3
13:46:02:663166,2,8,-11,18,6,-3,9,-4
13:46:02:671372,2,8,-11,18,6,-3,9,-4
13:46:02:672137,23,-9,0,10,10,7,12,0
13:46:02:678112,6,22,-2,-6,-4,-8,-3,5
13:46:02:693857,6,22,-2,-6,-4,-8,-3,5
13:46:02:694642,-6,-1,10,-10,-10,6,-2,-5
13:46:02:700866,-20,-20,7,16,1,-3,-3,-4
13:46:02:708883,-20,-20,7,16,1,-3,-3,-4
13:46:02:709654,-1,-11,-20,14,8,3,-7,-1
13:46:02:723193,-14,-13,-22,-11,-11,25,32,-3
13:46:02:731410,-14,-13,-22,-11,-11,25,32,-3
13:46:02:732119,-12,4,32,0,2,2,15,-8
13:46:02:738205,9,13,-1,-4,-4,-14,-12,-1
13:46:02:753876,9,13,-1,-4,-4,-14,-12,-1
13:46:02:754590,5,-2,-29,-4,-4,-24,-27,2
13:46:02:760642,-11,-23,12,9,2,-5,-6,0
13:46:02:768911,-11,-23,12,9,2,-5,-6,0
13:46:02:769649,5,8,22,1,15,15,13,0
13:46:02:783184,16,-1,-16,-3,-4,-5,-12,1
13:46:02:791327,16,-1,-16,-3,-4,-5,-12,1
13:46:02:792116,1,0,4,-5,6,5,-6,5
13:46:02:798164,5,-13,7,-8,0,-8,-10,-2
13:46:02:813966,5,-13,7,-8,0,-8,-10,-2
13:46:02:814663,-7,3,-10,23,-8,-3,20,-4
13:46:02:820689,-7,-11,-20,-20,-5,2,-6,1
13:46:02:828823,-7,-11,-20,-20,-5,2,-6,1
13:46:02:829605,-9,-9,7,-10,7,8,1,1
13:46:02:843153,-7,-5,2,-5,-10,-14,-3,-1
13:46:02:851476,-7,-5,2,-5,-10,-14,-3,-1
13:46:02:852208,0,-5,14,21,-5,-2,-2,-1
13:46:02:858123,12,1,5,-9,21,-2,-23,-7
13:46:02:873896,12,1,5,-9,21,-2,-23,-7
13:46:02:874669,-17,-2,-2,-14,-14,-10,-8,-4
13:46:02:880682,-6,-2,9,2,-4,-3,-14,-4
13:46:02:896361,-6,-2,9,2,-4,-3,-14,-4
13:46:02:897158,-3,2,-8,-3,-10,-4,2,1
13:46:02:903220,-15,7,0,0,7,1,11,3
13:46:02:911475,-15,7,0,0,7,1,11,3
13:46:02:912139,-10,-31,-2,-5,0,9,3,9
13:46:02:918250,-5,28,-4,-2,-8,1,9,2
13:46:02:933943,-5,28,-4,-2,-8,1,9,2
13:46:02:934667,7,-14,-42,-31,-1,19,19,0
13:46:02:940640,-10,-9,-8,-6,-13,-5,-22,-5
13:46:02:948910,-10,-9,-8,-6,-13,-5,-22,-5
13:46:02:949665,13,48,9,-12,-2,-9,0,2
13:46:02:963133,14,0,-46,2,5,-5,0,-1
13:46:02:971401,14,0,-46,2,5,-5,0,-1
13:46:02:972167,-4,8,10,-6,-9,-12,-18,-9
13:46:02:978172,2,-6,-26,5,9,4,-8,1
13:46:02:994344,2,-6,-26,5,9,4,-8,1
13:46:02:995104,-4,-19,-7,7,2,-1,16,-12
13:46:03:666,4,-57,3,2,-9,-1,-1,1
13:46:03:8883,4,-57,3,2,-9,-1,-1,1
13:46:03:9668,-8,-22,27,11,-4,0,3,-6
13:46:03:23160,15,7,13,3,9,3,21,5
13:46:03:31438,15,7,13,3,9,3,21,5
13:46:03:32136,14,-3,-1,-6,-1,-11,-13,-1
13:46:03:38173,-19,-4,-31,1,-8,2,-6,-7
13:46:03:53747,-19,-4,-31,1,-8,2,-6,-7
13:46:03:61303,-4,5,12,11,-4,-4,-32,-2
13:46:03:62055,-8,15,14,10,11,0,22,-3
13:46:03:68908,-8,15,14,10,11,0,22,-3
13:46:03:69653,-9,-12,-34,-3,6,2,1,1
13:46:03:83136,-10,13,6,-34,-26,-17,-10,-6
13:46:03:91366,-10,13,6,-34,-26,-17,-10,-6
13:46:03:92106,9,-26,6,3,3,-1,13,3
13:46:03:98218,-7,8,11,-12,-3,-5,-1,-4
13:46:03:113903,-7,8,11,-12,-3,-5,-1,-4
13:46:03:114661,0,11,-1,12,22,26,29,8
13:46:03:120656,15,10,15,6,-1,-2,1,5
13:46:03:128945,15,10,15,6,-1,-2,1,5
13:46:03:129630,-1,11,-4,0,-18,-5,3,4
13:46:03:143152,6,40,32,10,5,-3,-12,-1
13:46:03:151444,6,40,32,10,5,-3,-12,-1
13:46:03:152135,-8,12,6,-3,20,20,52,-7
13:46:03:158115,3,-15,0,1,-12,-17,-9,4
13:46:03:173851,3,-15,0,1,-12,-17,-9,4
13:46:03:174639,-14,0,-30,-24,-12,-3,-6,-3
13:46:03:180750,-9,0,-20,-3,-2,-7,-10,-5
13:46:03:188880,-9,0,-20,-3,-2,-7,-10,-5
13:46:03:189612,8,6,12,-1,-4,-6,-20,-2
13:46:03:203265,-7,-27,-32,4,5,-2,-4,-9
13:46:03:211397,-7,-27,-32,4,5,-2,-4,-9
13:46:03:212117,7,5,-4,6,0,6,-14,3
13:46:03:218175,-12,5,5,13,12,-4,-7,-5
13:46:03:233916,-12,5,5,13,12,-4,-7,-5
13:46:03:234592,5,6,11,3,-3,-15,0,4
13:46:03:240649,19,-8,-30,-3,-2,23,41,5
13:46:03:248807,19,-8,-30,-3,-2,23,41,5
13:46:03:249610,1,-3,-7,-22,0,-10,-24,-2
13:46:03:263265,3,-9,28,-11,-5,6,5,1
13:46:03:271343,3,-9,28,-11,-5,6,5,1
13:46:03:272105,8,17,20,6,1,21,23,-1
13:46:03:278140,-1,11,5,3,-5,-5,-15,0
13:46:03:293874,-1,11,5,3,-5,-5,-15,0
13:46:03:294629,3,-4,-1,1,-15,-18,-34,-7
13:46:03:300751,1,-24,9,5,3,7,-3,-2
13:46:03:308832,1,-24,9,5,3,7,-3,-2
13:46:03:309573,-2,-5,-12,-3,-9,13,22,9
13:46:03:323167,5,7,13,4,3,21,45,6
13:46:03:331319,5,7,13,4,3,21,45,6
13:46:03:332090,1,-5,-17,-1,0,-5,10,-7
13:46:03:345739,-3,-5,-9,-18,-8,-11,-17,-6
13:46:03:353901,-3,-5,-9,-18,-8,-11,-17,-6
13:46:03:354649,-20,1,-32,3,7,0,-10,-6
13:46:03:360638,0,12,-8,-5,-8,-9,-9,0
13:46:03:368301,0,12,-8,-5,-8,-9,-9,0
13:46:03:383918,-8,-18,13,7,-1,-23,-40,-4
13:46:03:384631,4,-18,-5,3,5,41,39,7
13:46:03:391326,4,-18,-5,3,5,41,39,7
13:46:03:392125,-6,-12,-4,-9,2,9,39,-5
13:46:03:405699,2,-9,-26,-2,-10,-20,-9,-2
13:46:03:413955,2,-9,-26,-2,-10,-20,-9,-2
13:46:03:414686,19,28,23,7,11,-21,-38,-1
13:46:03:420719,-3,-8,15,-1,-16,-12,-1,-10
13:46:03:428248,-3,-8,15,-1,-16,-12,-1,-10
13:46:03:435784,-4,8,23,2,7,14,7,2
13:46:03:443200,1,30,3,-7,8,-9,-20,-1
13:46:03:451464,1,30,3,-7,8,-9,-20,-1
13:46:03:452154,8,-43,0,1,-10,-6,0,-5
13:46:03:466187,-15,-2,-6,-5,-2,12,-10,-10
13:46:03:473871,-15,-2,-6,-5,-2,12,-10,-10
13:46:03:474602,-16,9,-7,-6,-1,6,6,2
13:46:03:480821,-5,-3,-1,13,1,-14,-11,0
13:46:03:488153,-5,-3,-1,13,1,-14,-11,0
13:46:03:495707,-10,11,-2,-5,-4,-10,-26,-3
13:46:03:503277,-5,5,11,15,14,8,7,4
13:46:03:511389,-5,5,11,15,14,8,7,4
13:46:03:512113,-21,-9,-41,-24,-11,-14,-16,-11
13:46:03:525683,4,-24,14,4,-1,5,32,9
13:46:03:533925,4,-24,14,4,-1,5,32,9
13:46:03:534593,11,18,50,5,13,4,7,5
13:46:03:540717,-5,-34,-17,-10,-11,-13,-22,-3
13:46:03:548240,-5,-34,-17,-10,-11,-13,-22,-3
13:46:03:555616,13,1,-33,-5,-1,4,8,-1
13:46:03:563270,7,11,-17,1,-2,-8,-22,0
13:46:03:571417,7,11,-17,1,-2,-8,-22,0
13:46:03:572164,28,7,-8,11,10,30,56,27
13:46:03:585760,14,9,1,-6,-11,-10,-12,-2
13:46:03:593825,14,9,1,-6,-11,-10,-12,-2
13:46:03:594611,-12,1,4,5,2,-3,-5,-5
13:46:03:600668,-19,-37,2,-18,4,-8,-10,-9
13:46:03:608172,-19,-37,2,-18,4,-8,-10,-9
13:46:03:615617,-3,-4,-11,-18,-11,-11,-15,1
13:46:03:623155,-2,25,-34,-2,-3,-3,-7,-5
13:46:03:631441,-2,25,-34,-2,-3,-3,-7,-5
13:46:03:632153,2,-21,3,1,7,-2,-5,-5
13:46:03:645691,9,-1,9,23,16,3,-29,4
13:46:03:653898,9,-1,9,23,16,3,-29,4
13:46:03:654680,-2,17,0,2,-8,-5,-37,-5
13:46:03:660610,-1,1,10,-6,-6,-3,-1,-9
13:46:03:668432,-1,1,10,-6,-6,-3,-1,-9
13:46:03:675674,-3,-14,4,2,-2,-21,-25,-4
13:46:03:683223,-23,-65,-26,-16,-9,-5,8,-2
13:46:03:691295,-23,-65,-26,-16,-9,-5,8,-2
13:46:03:692117,-1,-4,-9,3,-13,-3,-1,-10
13:46:03:705663,3,-3,-36,9,5,6,4,3
13:46:03:713912,3,-3,-36,9,5,6,4,3
13:46:03:714692,-10,-10,3,0,5,8,7,0
13:46:03:720666,-3,11,5,18,2,4,7,4
13:46:03:728164,-3,11,5,18,2,4,7,4
13:46:03:735693,3,16,4,4,-1,2,9,-1
13:46:03:743143,6,15,22,-8,-7,12,-2,-1
13:46:03:752143,6,15,22,-8,-7,12,-2,-1
13:46:03:752809,-12,-13,-34,-3,2,5,7,-11
13:46:03:765669,16,15,33,4,17,-5,4,0
13:46:03:773805,16,15,33,4,17,-5,4,0
13:46:03:774593,-3,10,30,-8,3,-6,-22,-4
13:46:03:780715,9,20,16,-7,-1,0,6,6
13:46:03:788205,9,20,16,-7,-1,0,6,6
13:46:03:795697,8,10,-1,3,-2,-6,1,1
13:46:03:803170,-2,-12,-20,-17,0,9,16,1
13:46:03:811346,-2,-12,-20,-17,0,9,16,1
13:46:03:812136,2,12,28,10,-3,-2,15,2
13:46:03:825719,3,10,14,7,-14,-7,-12,-10
13:46:03:833933,3,10,14,7,-14,-7,-12,-10
13:46:03:834606,-1,-3,-26,2,0,11,27,-1
13:46:03:840591,-17,-9,-11,2,11,-7,-15,-6
13:46:03:848226,-17,-9,-11,2,11,-7,-15,-6
13:46:03:855681,2,-36,-16,-10,3,-4,-12,0
13:46:03:863208,-4,16,13,-10,-17,-4,8,1
13:46:03:871409,-4,16,13,-10,-17,-4,8,1
13:46:03:872129,3,11,31,8,5,6,4,5
13:46:03:885787,3,5,15,-3,-5,3,-12,1
13:46:03:893851,3,5,15,-3,-5,3,-12,1
13:46:03:894677,-17,2,6,9,-4,2,21,-7
13:46:03:900787,-6,5,-3,10,4,-4,6,2
13:46:03:908171,-6,5,-3,10,4,-4,6,2
13:46:03:915676,3,26,14,-1,4,6,-10,3
13:46:03:923183,-6,-18,-22,-18,-13,-3,-2,-1
13:46:03:931442,-6,-18,-22,-18,-13,-3,-2,-1
13:46:03:932171,11,10,-13,13,2,-16,3,2
13:46:03:945701,13,11,-26,-15,-11,-12,27,-9
13:46:03:953929,13,11,-26,-15,-11,-12,27,-9
13:46:03:954660,3,-4,2,-2,0,1,11,1
13:46:03:960645,9,18,18,-1,5,-13,-24,-5
13:46:03:968314,9,18,18,-1,5,-13,-24,-5
13:46:03:975665,5,-20,-23,-13,-3,-8,-20,0
13:46:03:983201,-3,4,22,3,-1,17,1,2
13:46:03:991315,-3,4,22,3,-1,17,1,2
13:46:03:992115,11,3,8,-29,-10,0,-11,4
13:46:04:5695,10,6,1,38,20,2,3,5
13:46:04:13978,10,6,1,38,20,2,3,5
13:46:04:14692,-5,4,-8,5,0,4,-8,-9
13:46:04:20686,10,22,19,-3,-5,6,17,6
13:46:04:28168,10,22,19,-3,-5,6,17,6
13:46:04:35753,-25,-23,-14,-3,-11,-20,-23,-8
13:46:04:43200,-20,-14,1,-5,-5,6,30,1
13:46:04:51418,-20,-14,1,-5,-5,6,30,1
13:46:04:52143,11,2,-14,1,2,4,7,3
13:46:04:65666,1,-12,20,7,-4,-15,-25,-1
13:46:04:73830,1,-12,20,7,-4,-15,-25,-1
13:46:04:74600,-2,33,-21,25,11,14,13,-1
13:46:04:80806,-2,7,-11,-16,-8,-8,-16,-2
13:46:04:88217,-2,7,-11,-16,-8,-8,-16,-2
13:46:04:95725,-13,-20,21,21,-2,8,-3,0
13:46:04:103103,5,-6,1,-6,-6,-12,-31,-5
13:46:04:111364,5,-6,1,-6,-6,-12,-31,-5
13:46:04:112137,-2,-20,2,-21,-7,0,-12,0
13:46:04:125693,-12,-20,-17,0,6,-1,1,-1
13:46:04:133935,-12,-20,-17,0,6,-1,1,-1
13:46:04:134631,-7,-37,-8,-11,-18,-15,-18,-11
13:46:04:140643,9,1,-7,1,2,4,-7,3
13:46:04:148220,9,1,-7,1,2,4,-7,3
13:46:04:155678,1,-15,-9,-12,-1,8,19,4
13:46:04:172030,-19,-46,-9,-18,-15,-16,-23,-15
13:46:04:172817,-19,-46,-9,-18,-15,-16,-23,-15
13:46:04:173604,5,23,19,-2,6,9,19,3
13:46:04:185803,-6,-5,2,-20,-1,7,7,-1
13:46:04:193824,-6,-5,2,-20,-1,7,7,-1
13:46:04:194619,-1,30,-26,-10,-1,-8,-8,0
13:46:04:200724,-17,-8,-9,1,-1,3,1,-1
13:46:04:208176,-17,-8,-9,1,-1,3,1,-1
13:46:04:215602,7,-9,49,8,-2,0,3,4
13:46:04:223102,1,60,1,13,20,5,5,5
13:46:04:231472,1,60,1,13,20,5,5,5
13:46:04:232191,-4,-4,10,3,-4,-18,-23,-7
13:46:04:245767,5,-14,9,-1,-1,22,36,-2
13:46:04:253908,5,-14,9,-1,-1,22,36,-2
13:46:04:254657,4,5,2,13,3,-8,-12,-8
13:46:04:268885,4,28,-10,-8,-5,-18,-19,4
13:46:04:269600,4,28,-10,-8,-5,-18,-19,4
13:46:04:275651,3,11,-30,0,-1,8,4,0
13:46:04:283285,1,-35,16,8,4,1,6,2
13:46:04:290714,1,-35,16,8,4,1,6,2
13:46:04:298132,-7,40,-4,-1,6,8,0,0
13:46:04:305604,1,13,20,4,0,2,2,-2
13:46:04:313937,1,13,20,4,0,2,2,-2
13:46:04:314716,-7,-36,-17,-3,-6,7,-17,6
13:46:04:328871,2,-7,-6,-1,0,-4,-9,-2
13:46:04:329663,2,-7,-6,-1,0,-4,-9,-2
13:46:04:335715,-11,-15,-13,-9,-2,-12,-4,-5
13:46:04:343119,-6,-11,-13,36,-2,-5,-9,-1
13:46:04:350897,-6,-11,-13,36,-2,-5,-9,-1
13:46:04:358102,6,6,-5,1,17,12,10,3
13:46:04:365744,7,11,-9,-3,-9,-4,14,-2
13:46:04:373891,7,11,-9,-3,-9,-4,14,-2
13:46:04:374624,9,-3,-5,-12,-10,-12,3,0
13:46:04:388864,-3,-36,-21,-12,0,8,-6,0
13:46:04:389681,-3,-36,-21,-12,0,8,-6,0
13:46:04:395663,-3,-15,-3,1,1,0,0,-2
13:46:04:403230,-7,-4,5,40,1,-5,-1,-3
13:46:04:410746,-7,-4,5,40,1,-5,-1,-3
13:46:04:418187,-11,25,9,-10,0,-9,-4,-5
13:46:04:425661,-1,11,0,-10,-5,1,-1,-2
13:46:04:433967,-1,11,0,-10,-5,1,-1,-2
13:46:04:434715,15,-7,27,11,-2,-5,-2,-3
13:46:04:449354,-12,-10,8,-12,-15,-3,-1,-3
13:46:04:450101,-12,-10,8,-12,-15,-3,-1,-3
13:46:04:455647,4,-21,2,-5,-5,0,3,1
13:46:04:463238,8,10,-12,-25,-6,-6,0,2
13:46:04:470747,8,10,-12,-25,-6,-6,0,2
13:46:04:478226,-4,-18,-17,25,13,34,39,5
13:46:04:485735,-6,3,-12,-13,-3,-11,-8,-4
13:46:04:493850,-6,3,-12,-13,-3,-11,-8,-4
13:46:04:494663,-7,24,10,5,9,-8,-15,-1
13:46:04:508855,-4,-4,-9,-18,7,5,7,5
13:46:04:509657,-4,-4,-9,-18,7,5,7,5
13:46:04:515682,-8,-19,32,40,3,-3,5,3
13:46:04:523187,9,-26,-4,1,0,-5,-10,-6
13:46:04:530723,9,-26,-4,1,0,-5,-10,-6
13:46:04:538154,-3,19,-17,-20,-3,-7,-13,1
13:46:04:545688,6,6,-5,-11,8,-1,-3,0
13:46:04:553872,6,6,-5,-11,8,-1,-3,0
13:46:04:554677,-1,0,-10,-10,1,5,-1,-2
13:46:04:568851,-12,14,7,-1,1,3,15,-5
13:46:04:569637,-12,14,7,-1,1,3,15,-5
13:46:04:575622,3,4,8,22,-5,-16,-29,-5
13:46:04:583217,-12,-2,-16,4,-1,-1,5,-5
13:46:04:590713,-12,-2,-16,4,-1,-1,5,-5
13:46:04:598183,-7,9,14,-28,-4,-2,-9,2
13:46:04:606356,-3,-16,-2,-2,-3,4,7,0
13:46:04:607161,-3,-16,-2,-2,-3,4,7,0
13:46:04:613142,-9,0,-13,-7,-11,-2,10,-2
13:46:04:628826,20,1,20,3,-4,-8,0,8
13:46:04:629655,20,1,20,3,-4,-8,0,8
13:46:04:635699,10,29,14,3,-3,-1,-1,0
13:46:04:643144,9,11,-15,2,9,28,27,0
13:46:04:650758,9,11,-15,2,9,28,27,0
13:46:04:658108,13,11,-26,-5,1,6,10,4
13:46:04:666380,21,9,31,1,-2,-21,-28,-3
13:46:04:667139,21,9,31,1,-2,-21,-28,-3
13:46:04:673138,1,-16,17,19,-4,2,-3,-1
13:46:04:688887,-17,0,-13,1,13,9,-1,0
13:46:04:689678,-17,0,-13,1,13,9,-1,0
13:46:04:695702,7,-8,6,-26,-1,5,7,4
13:46:04:703226,-10,12,5,8,2,6,0,-7
13:46:04:710684,-10,12,5,8,2,6,0,-7
13:46:04:718231,11,-2,-25,-9,-1,-34,-52,-11
13:46:04:726284,20,16,-14,-10,-11,1,8,-8
13:46:04:727110,20,16,-14,-10,-11,1,8,-8
13:46:04:733249,1,-32,-3,-1,-8,-17,14,12
13:46:04:748855,-4,-10,-10,-7,-3,-2,-11,1
13:46:04:749683,-4,-10,-10,-7,-3,-2,-11,1
13:46:04:755671,-10,-16,-7,-17,-1,-4,-20,-8
13:46:04:763274,-39,19,17,27,14,6,9,-10
13:46:04:770674,-39,19,17,27,14,6,9,-10
13:46:04:778161,-11,-32,-54,-15,-7,8,12,-5
13:46:04:786366,-3,-43,-60,-7,-17,2,7,6
13:46:04:787120,-3,-43,-60,-7,-17,2,7,6
13:46:04:793109,-2,5,11,8,8,59,62,4
13:46:04:808836,18,6,10,0,-7,-16,-16,10
13:46:04:809676,18,6,10,0,-7,-16,-16,10
13:46:04:815684,-22,3,-5,-1,10,-19,-13,-15
13:46:04:823194,-15,-1,28,-9,-1,-3,-9,10
13:46:04:830704,-15,-1,28,-9,-1,-3,-9,10
13:46:04:838160,5,9,9,-12,-17,-1,4,3
13:46:04:846062,2,-3,-44,-13,8,-10,-16,-7
13:46:04:853891,2,-3,-44,-13,8,-10,-16,-7
13:46:04:854640,10,-8,9,-6,-14,-12,0,-2
13:46:04:868903,7,10,21,1,3,5,15,5
13:46:04:869649,7,10,21,1,3,5,15,5
13:46:04:875638,-14,-1,13,4,-3,-3,-12,-1
13:46:04:883223,6,36,22,10,-1,6,25,-2
13:46:04:890724,6,36,22,10,-1,6,25,-2
13:46:04:898204,0,1,8,-3,0,5,25,-2
13:46:04:906369,19,-4,9,2,10,10,5,9
13:46:04:907187,19,-4,9,2,10,10,5,9
13:46:04:913256,2,-5,-17,6,2,-12,-23,-6
13:46:04:928826,-9,-53,-10,-8,-21,-10,-5,-4
13:46:04:929663,-9,-53,-10,-8,-21,-10,-5,-4
13:46:04:935700,6,18,15,6,7,-1,2,5
13:46:04:943140,10,7,4,-30,-8,-6,-12,0
13:46:04:950719,10,7,4,-30,-8,-6,-12,0
13:46:04:958165,-11,-5,10,-2,4,6,9,0
13:46:04:966401,1,28,17,9,8,3,6,-5
13:46:04:967184,1,28,17,9,8,3,6,-5
13:46:04:973164,-8,0,12,-3,-7,-5,-1,-4
13:46:04:988879,1,14,-6,8,0,-9,-30,-5
13:46:04:989663,1,14,-6,8,0,-9,-30,-5
13:46:04:995701,6,10,10,12,-5,-34,-65,1
13:46:05:3254,-13,-12,26,9,16,10,8,-4
13:46:05:10720,-13,-12,26,9,16,10,8,-4
13:46:05:18233,19,-4,-16,-3,-2,5,-6,3
13:46:05:26339,-9,-17,-24,-14,-12,-12,-6,-5
13:46:05:27124,-9,-17,-24,-14,-12,-12,-6,-5
13:46:05:33214,6,41,-3,-6,4,-3,-3,1
13:46:05:48838,-6,-28,-13,-7,-1,4,-4,-6
13:46:05:49591,-6,-28,-13,-7,-1,4,-4,-6
13:46:05:55667,-13,-26,-38,-5,-6,11,10,-7
13:46:05:63270,-15,-5,-5,17,4,-10,-21,0
13:46:05:70721,-15,-5,-5,17,4,-10,-21,0
13:46:05:78250,5,5,10,-11,-4,-2,5,-7
13:46:05:86406,-7,0,18,-23,-12,-16,17,1
13:46:05:87154,-7,0,18,-23,-12,-16,17,1
13:46:05:93165,-12,-2,12,3,20,11,2,0
13:46:05:117094,-3,-4,13,-11,-14,0,3,-8
13:46:05:117899,-3,-4,13,-11,-14,0,3,-8
13:46:05:118661,0,-14,3,6,6,2,5,0
13:46:05:123144,1,2,-1,-1,-4,-3,-2,4
13:46:05:130816,1,2,-1,-1,-4,-3,-2,4
13:46:05:138178,-7,-37,-28,1,-3,-2,1,0
13:46:05:146384,-3,18,-11,8,-3,-6,-5,-5
13:46:05:147156,-3,18,-11,8,-3,-6,-5,-5
13:46:05:153230,0,0,8,7,0,24,47,8
13:46:05:168873,5,-8,13,9,11,7,-3,3
13:46:05:169614,5,-8,13,9,11,7,-3,3
13:46:05:175660,-14,-18,-19,-8,-11,-7,-4,-8
13:46:05:183195,9,43,-2,-11,-6,-3,-13,0
13:46:05:190728,9,43,-2,-11,-6,-3,-13,0
13:46:05:207004,2,16,12,-21,-2,-9,-11,-4
13:46:05:207737,-16,-10,-8,-3,-1,-1,-1,-5
13:46:05:208575,-16,-10,-8,-3,-1,-1,-1,-5
13:46:05:220643,6,-3,1,6,-3,-2,8,9
13:46:05:228846,13,0,-17,2,9,4,-20,1
13:46:05:229646,13,0,-17,2,9,4,-20,1
13:46:05:235765,-5,4,0,14,8,13,-23,1
13:46:05:251453,23,11,-1,11,5,12,7,6
13:46:05:252194,23,11,-1,11,5,12,7,6
13:46:05:258156,10,43,-11,-6,-7,-10,-14,12
13:46:05:266396,-3,-19,1,7,-7,-6,-7,-5
13:46:05:267166,-3,-19,1,7,-7,-6,-7,-5
13:46:05:280718,-4,-2,20,7,-12,-16,0,-10
13:46:05:288896,9,2,3,-20,-8,-6,-1,5
13:46:05:289702,9,2,3,-20,-8,-6,-1,5
13:46:05:295663,1,-10,6,10,5,1,1,-9
13:46:05:311386,-7,14,14,-1,6,17,11,-7
13:46:05:312165,-7,14,14,-1,6,17,11,-7
13:46:05:318239,-10,-6,23,-3,-8,3,2,-7
13:46:05:326322,-13,-19,-6,8,4,-22,-21,-5
13:46:05:327131,-13,-19,-6,8,4,-22,-21,-5
13:46:05:340674,0,2,-38,7,6,20,33,3
13:46:05:348924,-5,-9,-23,5,3,-6,1,-3
13:46:05:349695,-5,-9,-23,5,3,-6,1,-3
13:46:05:355662,-6,5,11,1,-7,-12,-15,-5
13:46:05:371359,-12,-5,5,-7,17,9,4,-4
13:46:05:372160,-12,-5,5,-7,17,9,4,-4
13:46:05:378150,7,-4,-14,-6,-4,-8,15,2
13:46:05:386493,20,-15,-1,-18,-7,1,19,-3
13:46:05:387170,20,-15,-1,-18,-7,1,19,-3
13:46:05:400704,24,-12,-10,-16,-4,-6,-11,-18
13:46:05:408884,-5,-1,-2,-4,-13,1,13,4
13:46:05:409671,-5,-1,-2,-4,-13,1,13,4
13:46:05:415651,0,33,14,9,3,-6,8,8
13:46:05:431407,-1,-1,-42,-3,-9,4,7,4
13:46:05:432199,-1,-1,-42,-3,-9,4,7,4
13:46:05:438193,-19,-18,-4,-24,8,1,-9,-1
13:46:05:446335,-2,10,-16,-3,-9,-6,-4,0
13:46:05:447155,-2,10,-16,-3,-9,-6,-4,0
13:46:05:460663,-7,-7,-11,13,5,0,-15,-5
13:46:05:468900,12,-3,32,4,-4,-6,-3,1
13:46:05:469643,12,-3,32,4,-4,-6,-3,1
13:46:05:475644,-3,-11,4,-3,-6,1,-10,2
13:46:05:491350,-18,-6,-4,1,-9,-4,-9,-9
13:46:05:492136,-18,-6,-4,1,-9,-4,-9,-9
13:46:05:498202,-13,-1,6,10,-7,4,10,2
13:46:05:506354,2,7,10,1,1,7,-7,-2
13:46:05:507161,2,7,10,1,1,7,-7,-2
13:46:05:520683,-4,2,-13,-8,-6,-10,-12,-4
13:46:05:528831,-4,-6,7,-4,-5,4,-1,3
13:46:05:529637,-4,-6,7,-4,-5,4,-1,3
13:46:05:535666,-3,-20,-2,4,-1,24,23,-3
13:46:05:559492,-9,21,16,13,3,31,76,7
13:46:05:560288,-9,21,16,13,3,31,76,7
13:46:05:561121,0,-18,8,15,24,-3,-20,11
13:46:05:566475,-6,-1,-21,2,-16,-16,-44,-7
13:46:05:567193,-6,-1,-21,2,-16,-16,-44,-7
13:46:05:580692,8,19,-11,-20,-5,-11,-1,1
13:46:05:588887,6,-7,7,2,-4,-13,-18,6
13:46:05:589717,6,-7,7,2,-4,-13,-18,6
13:46:05:595767,11,-18,-34,-6,-6,-19,-17,5
13:46:05:611371,11,-18,-34,-6,-6,-19,-17,5
13:46:05:612141,1,-27,-10,-5,5,21,15,-2
13:46:05:618162,-4,1,-40,-14,-2,-15,-14,-8
13:46:05:633943,-4,1,-40,-14,-2,-15,-14,-8
13:46:05:634661,-7,5,6,8,0,-7,19,-4
13:46:05:640620,20,8,11,-3,3,9,1,-1
13:46:05:648888,20,8,11,-3,3,9,1,-1
13:46:05:649655,2,9,3,8,7,-3,-8,0
13:46:05:655636,-40,7,11,-3,-7,-12,-13,-16
13:46:05:671404,-40,7,11,-3,-7,-12,-13,-16
13:46:05:672183,-2,1,-9,-5,0,3,-3,-8
13:46:05:678175,9,-40,0,3,-4,2,8,7
13:46:05:693842,9,-40,0,3,-4,2,8,7
13:46:05:694664,3,-6,-7,1,6,-10,-19,-2
13:46:05:700686,-14,-8,-29,-5,-17,-10,-13,-4
13:46:05:708890,-14,-8,-29,-5,-17,-10,-13,-4
13:46:05:709642,-9,-14,-9,1,19,32,22,9
13:46:05:715666,11,16,2,1,14,13,1,-7
13:46:05:731427,11,16,2,1,14,13,1,-7
13:46:05:732173,-5,-5,-63,-14,-15,-33,-29,-8
13:46:05:738159,17,-1,26,21,5,-1,-1,5
13:46:05:753844,17,-1,26,21,5,-1,-1,5
13:46:05:754653,-6,-1,21,4,9,-7,-12,0
13:46:05:760685,4,19,28,-1,-5,-5,-1,1
13:46:05:768917,4,19,28,-1,-5,-5,-1,1
13:46:05:769642,7,16,33,-2,-5,-9,1,9
13:46:05:775649,-2,-23,12,9,6,17,21,2
13:46:05:791335,-2,-23,12,9,6,17,21,2
13:46:05:792121,5,3,11,-11,-2,-13,-12,13
13:46:05:798127,-13,-19,-48,-16,-8,-3,6,-4
13:46:05:813899,-13,-19,-48,-16,-8,-3,6,-4
13:46:05:814594,-16,-28,-3,3,-17,-6,-8,-12
13:46:05:820677,-12,-7,23,20,17,9,8,-1
13:46:05:828676,-12,-7,23,20,17,9,8,-1
13:46:05:836332,3,-1,-3,-8,-7,-4,1,-4
13:46:05:837067,-13,0,9,6,-10,-7,-14,-7
13:46:05:851393,-13,0,9,6,-10,-7,-14,-7
13:46:05:852153,12,28,9,13,20,40,35,9
13:46:05:858147,18,41,1,-5,4,-1,10,3
13:46:05:873853,18,41,1,-5,4,-1,10,3
13:46:05:874603,-19,3,16,1,-4,-18,-21,-6
13:46:05:880730,-5,-1,11,-9,-10,-3,-9,3
13:46:05:888856,-5,-1,11,-9,-10,-3,-9,3
13:46:05:889627,-5,-10,-5,-1,-9,-13,-1,-14
13:46:05:895682,-4,2,18,-20,-3,1,1,-3
13:46:05:911351,-4,2,18,-20,-3,1,1,-3
13:46:05:912100,-13,31,-12,-5,7,3,-6,-6
13:46:05:918252,12,13,7,6,-9,6,17,-3
13:46:05:933974,12,13,7,6,-9,6,17,-3
13:46:05:934674,20,-3,37,15,15,27,-2,-3
13:46:05:940698,-7,-10,3,1,7,-10,-27,-3
13:46:05:948850,-7,-10,3,1,7,-10,-27,-3
13:46:05:949639,-2,-35,-13,-6,-10,-26,-16,-1
13:46:05:955683,-2,1,-4,8,1,-3,-14,0
13:46:05:971190,-2,1,-4,8,1,-3,-14,0
13:46:05:978825,12,12,-23,-6,2,2,10,3
13:46:05:979614,-6,3,-15,-4,-9,-17,-22,-6
13:46:05:985772,-6,3,-15,-4,-9,-17,-22,-6
13:46:05:993131,-3,-3,14,-13,-4,8,21,3
13:46:06:746,-17,-19,-47,-24,-9,6,16,-3
13:46:06:8854,-17,-19,-47,-24,-9,6,16,-3
13:46:06:9617,-4,-39,-4,-2,2,0,-11,-6
13:46:06:15665,-1,-7,32,-6,-6,-7,-4,-1
13:46:06:31410,-1,-7,32,-6,-6,-7,-4,-1
13:46:06:32141,-8,-4,-18,-5,-2,-5,-5,4
13:46:06:38200,-4,12,10,-2,-1,-8,-2,-2
13:46:06:45788,-4,12,10,-2,-1,-8,-2,-2
13:46:06:53187,-7,1,3,-3,-8,-6,-4,-6
13:46:06:60639,2,-6,5,10,12,11,16,1
13:46:06:68964,2,-6,5,10,12,11,16,1
13:46:06:69685,13,16,7,20,10,12,19,7
13:46:06:75668,-12,6,1,-8,-12,-1,18,2
13:46:06:91324,-12,6,1,-8,-12,-1,18,2
13:46:06:92140,-17,14,1,4,-3,-8,11,-1
13:46:06:98164,6,-14,-6,11,-1,8,14,8
13:46:06:105710,6,-14,-6,11,-1,8,14,8
13:46:06:113239,-8,10,-13,13,9,4,-13,-6
13:46:06:120646,-6,3,2,10,-2,-12,-8,-2
13:46:06:128857,-6,3,2,10,-2,-12,-8,-2
13:46:06:129666,22,3,-7,-11,-5,-3,3,-2
13:46:06:135667,2,-7,-7,14,-3,7,1,1
13:46:06:151410,2,-7,-7,14,-3,7,1,1
13:46:06:152174,-16,-13,15,9,8,0,-6,-1
13:46:06:158098,3,29,0,-7,-2,-2,-13,0
13:46:06:165727,3,29,0,-7,-2,-2,-13,0
13:46:06:173158,4,-23,0,-4,-16,-3,-4,-7
13:46:06:180679,-4,-12,-8,-7,-1,-4,-1,-6
13:46:06:188920,-4,-12,-8,-7,-1,-4,-1,-6
13:46:06:189668,-1,11,-9,-9,-5,-10,-14,-4
13:46:06:203304,14,1,-12,0,16,14,-5,1
13:46:06:211366,14,1,-12,0,16,14,-5,1
13:46:06:212145,10,4,-5,-15,2,3,8,6
13:46:06:218162,5,-21,-9,2,-9,-16,-8,9
13:46:06:225704,5,-21,-9,2,-9,-16,-8,9
13:46:06:233186,5,16,20,5,6,3,-10,3
13:46:06:240674,-1,10,14,-1,5,7,-30,-10
13:46:06:248824,-1,10,14,-1,5,7,-30,-10
13:46:06:249586,6,4,4,-4,-2,11,35,9
13:46:06:263138,-1,-5,10,-38,-17,-14,-6,-5
13:46:06:271404,-1,-5,10,-38,-17,-14,-6,-5
13:46:06:272173,-4,-6,25,18,-12,-1,-10,-1
13:46:06:278202,-7,-8,-14,4,15,4,12,2
13:46:06:285813,-7,-8,-14,4,15,4,12,2
13:46:06:293156,1,4,13,-5,-4,-6,-5,-5
13:46:06:300762,4,17,5,-4,-7,-3,6,-1
13:46:06:308855,4,17,5,-4,-7,-3,6,-1
13:46:06:309684,1,-7,-7,-1,-3,-13,-25,-2
13:46:06:323216,11,1,3,6,0,8,0,-4
13:46:06:331407,11,1,3,6,0,8,0,-4
13:46:06:332136,-10,-3,1,-1,4,-4,-19,-4
13:46:06:338229,-14,2,-6,0,-5,11,22,0
13:46:06:345746,-14,2,-6,0,-5,11,22,0
13:46:06:353234,2,-26,-30,-3,-5,-4,-4,-2
13:46:06:360606,1,4,-6,-2,-2,0,3,0
13:46:06:368931,1,4,-6,-2,-2,0,3,0
13:46:06:369636,-9,20,-16,-18,-4,-10,-6,-5
13:46:06:391956,4,-9,-5,1,-6,-50,-35,-7
13:46:06:392768,4,-9,-5,1,-6,-50,-35,-7
13:46:06:393618,-4,17,-7,-12,0,4,12,5
13:46:06:398203,-22,7,7,8,7,-3,-3,-1
13:46:06:405675,-22,7,7,8,7,-3,-3,-1
13:46:06:413256,3,1,5,7,-14,-1,-3,-3
13:46:06:420689,1,-37,-10,-9,-1,6,-2,1
13:46:06:428842,1,-37,-10,-9,-1,6,-2,1
13:46:06:429643,-4,-19,-19,-6,10,10,7,-2
13:46:06:443178,15,11,1,3,-2,0,-14,-4
13:46:06:451422,15,11,1,3,-2,0,-14,-4
13:46:06:452131,4,-22,-19,8,-3,-3,0,-4
13:46:06:458151,-1,12,25,-1,2,8,12,2
13:46:06:465707,-1,12,25,-1,2,8,12,2
13:46:06:473144,6,10,13,1,4,-12,-11,3
13:46:06:480701,11,-2,-9,-3,-4,26,4,10
13:46:06:488901,11,-2,-9,-3,-4,26,4,10
13:46:06:489664,-2,-16,-4,-6,11,4,11,-7
13:46:06:503276,-13,-46,-8,-1,5,-4,-3,-3
13:46:06:511069,-13,-46,-8,-1,5,-4,-3,-3
13:46:06:518838,0,15,-21,-17,-11,-7,-3,-4
13:46:06:519564,-11,2,-17,-4,0,2,9,-4
13:46:06:525657,-11,2,-17,-4,0,2,9,-4
13:46:06:533274,4,-16,3,-12,-1,-3,-6,-3
13:46:06:540678,0,7,8,-1,-17,-24,-14,-4
13:46:06:548949,0,7,8,-1,-17,-24,-14,-4
13:46:06:549666,-11,24,18,10,18,34,24,2
13:46:06:563128,14,47,-3,0,7,3,6,4
13:46:06:571376,14,47,-3,0,7,3,6,4
13:46:06:572139,5,-9,1,17,-17,-14,1,5
13:46:06:578240,-23,-37,-26,-11,8,9,4,-7
13:46:06:585737,-23,-37,-26,-11,8,9,4,-7
13:46:06:593134,0,-4,9,5,12,7,9,2
13:46:06:600692,-2,15,18,20,-6,-7,-4,1
13:46:06:608794,-2,15,18,20,-6,-7,-4,1
13:46:06:609598,-13,-4,-15,-10,8,1,-1,-2
13:46:06:623179,-5,2,-12,3,-2,-2,-4,-4
13:46:06:631438,-5,2,-12,3,-2,-2,-4,-4
13:46:06:632171,-3,-2,16,3,-8,-12,-9,-5
13:46:06:638138,11,-4,15,4,3,10,15,3
13:46:06:645686,11,-4,15,4,3,10,15,3
13:46:06:653256,-26,-33,12,11,-5,-2,1,-4
13:46:06:660650,-7,-11,-10,12,-9,-7,-8,-5
13:46:06:668920,-7,-11,-10,12,-9,-7,-8,-5
13:46:06:669640,0,3,-15,-16,-1,1,-17,-1
13:46:06:683231,17,17,5,3,4,4,11,1
13:46:06:691299,17,17,5,3,4,4,11,1
13:46:06:692098,-20,20,0,6,-7,-5,-4,-3
13:46:06:698233,19,4,19,-27,-5,2,5,5
13:46:06:705717,19,4,19,-27,-5,2,5,5
13:46:06:713260,-6,-10,-10,4,2,-2,-15,-7
13:46:06:720667,-20,-5,-3,-24,0,-2,1,-6
13:46:06:728853,-20,-5,-3,-24,0,-2,1,-6
13:46:06:729634,24,14,-12,-13,-13,-8,-2,3
13:46:06:743201,1,7,-9,6,-4,-2,12,0
13:46:06:751407,1,7,-9,6,-4,-2,12,0
13:46:06:752104,4,-9,4,-22,3,5,11,-7
13:46:06:758098,-8,20,9,9,1,0,4,3
13:46:06:765750,-8,20,9,9,1,0,4,3
13:46:06:773136,3,1,9,6,-15,-10,-4,-3
13:46:06:780685,-24,-24,34,39,28,3,-8,-3
13:46:06:788891,-24,-24,34,39,28,3,-8,-3
13:46:06:789670,-11,-12,-3,7,2,-4,-19,-2
13:46:06:803150,0,-8,-8,-12,-11,-9,-8,0
13:46:06:811334,0,-8,-8,-12,-11,-9,-8,0
13:46:06:812136,17,3,-20,4,6,2,-1,2
13:46:06:818206,1,-9,-9,-4,-3,9,28,3
13:46:06:825726,1,-9,-9,-4,-3,9,28,3
13:46:06:833196,18,3,-24,-4,1,-9,-1,5
13:46:06:840656,12,-12,-12,-11,1,6,-9,-1
13:46:06:848873,12,-12,-12,-11,1,6,-9,-1
13:46:06:849654,-16,-48,10,5,-5,2,4,2
13:46:06:863219,25,49,43,-4,-7,-6,-7,-3
13:46:06:871391,25,49,43,-4,-7,-6,-7,-3
13:46:06:872152,9,28,17,-6,-4,2,11,1
13:46:06:878132,-8,-18,-25,-5,-6,-8,-10,-6
13:46:06:885777,-8,-18,-25,-5,-6,-8,-10,-6
13:46:06:893161,6,16,-12,7,-10,-1,6,2
13:46:06:900719,6,9,-17,20,12,4,-3,3
13:46:06:908830,6,9,-17,20,12,4,-3,3
13:46:06:909600,-5,29,-2,-11,15,5,0,3
13:46:06:923168,-7,-17,-5,1,-7,-24,-41,-11
13:46:06:931452,-7,-17,-5,1,-7,-24,-41,-11
13:46:06:932179,3,1,8,9,14,44,44,14
13:46:06:938160,0,7,14,-4,7,-4,23,1
13:46:06:945658,0,7,14,-4,7,-4,23,1
13:46:06:953241,6,42,16,-3,-6,-22,-18,-4
13:46:06:960662,-8,-12,-5,-12,-12,-12,-14,-5
13:46:06:968890,-8,-12,-5,-12,-12,-12,-14,-5
13:46:06:969611,-28,-51,-3,0,-1,-3,-8,-8
13:46:06:983190,-1,-8,4,-4,13,7,-1,0
13:46:06:991355,-1,-8,4,-4,13,7,-1,0
13:46:06:992152,11,11,6,0,-2,-13,-23,-1
13:46:06:998172,-11,-13,5,-11,-16,4,23,0
13:46:07:5750,-11,-13,5,-11,-16,4,23,0
13:46:07:13282,-12,-17,6,3,-2,-7,-16,-8
13:46:07:20673,5,6,7,2,6,4,-6,2
13:46:07:28852,5,6,7,2,6,4,-6,2
13:46:07:29649,2,3,-7,-17,-8,-13,-10,-9
13:46:07:43230,4,2,-16,-5,-3,23,28,13
13:46:07:51415,4,2,-16,-5,-3,23,28,13
13:46:07:52172,-6,7,8,3,10,20,17,5
13:46:07:58124,6,0,-3,2,-7,-5,-8,-4
13:46:07:65770,6,0,-3,2,-7,-5,-8,-4
13:46:07:73181,1,-21,-16,14,19,-4,-2,-1
13:46:07:80686,-15,12,-7,-3,4,1,-2,-2
13:46:07:88935,-15,12,-7,-3,4,1,-2,-2
13:46:07:89702,-1,-7,-21,7,-1,-2,-6,-3
13:46:07:103175,-2,-16,-19,-5,-7,-4,-13,-3
13:46:07:111356,-2,-16,-19,-5,-7,-4,-13,-3
13:46:07:112130,-4,7,1,-4,-9,-5,1,0
13:46:07:126344,-8,1,-20,-12,-15,2,-17,-8
13:46:07:127134,-8,1,-20,-12,-15,2,-17,-8
13:46:07:133172,8,-7,-7,-2,-1,5,18,3
13:46:07:140637,4,6,4,23,-1,-7,-1,-1
13:46:07:148246,4,6,4,23,-1,-7,-1,-1
13:46:07:155647,-1,-7,-4,-7,9,2,-5,-1
13:46:07:163190,25,-38,-39,-9,4,-5,4,7
13:46:07:171374,25,-38,-39,-9,4,-5,4,7
13:46:07:172138,-3,2,7,-10,-11,-5,-1,-1
13:46:07:186439,8,18,33,3,-2,-1,-11,-9
13:46:07:187181,8,18,33,3,-2,-1,-11,-9
13:46:07:193118,-7,-16,-9,4,-11,-12,-11,-5
13:46:07:200689,5,-6,-3,2,5,5,-4,2
13:46:07:208169,5,-6,-3,2,5,5,-4,2
13:46:07:223834,1,34,14,-14,-8,2,11,2
13:46:07:224564,-9,1,-9,-13,-5,3,6,-2
13:46:07:231390,-9,1,-9,-13,-5,3,6,-2
13:46:07:232150,-4,-20,10,-1,-9,2,-3,-1
13:46:07:246346,-7,4,30,-9,-11,-14,-2,-1
13:46:07:247202,-7,4,30,-9,-11,-14,-2,-1
13:46:07:253210,4,3,-7,2,-8,-6,2,-3
13:46:07:260612,-10,46,6,0,-1,-5,-5,-4
13:46:07:268283,-10,46,6,0,-1,-5,-5,-4
13:46:07:275651,3,-2,-6,8,6,20,21,2
13:46:07:283233,-24,-31,7,-5,5,17,15,-6
13:46:07:291365,-24,-31,7,-5,5,17,15,-6
13:46:07:292135,-5,9,-16,2,0,-13,-17,1
13:46:07:306358,12,1,7,8,-2,-3,15,2
13:46:07:307141,12,1,7,8,-2,-3,15,2
13:46:07:313234,-6,-12,-12,-15,-5,-6,-2,-6
13:46:07:320643,1,21,12,21,5,-1,-1,4
13:46:07:328216,1,21,12,21,5,-1,-1,4
13:46:07:335729,-8,0,12,25,21,2,-8,-1
13:46:07:343150,7,-3,-9,5,0,-7,-14,-2
13:46:07:351425,7,-3,-9,5,0,-7,-14,-2
13:46:07:352142,0,15,15,-6,-6,-20,-31,-9
13:46:07:366409,0,-19,-15,-7,-7,-6,6,19
13:46:07:367194,0,-19,-15,-7,-7,-6,6,19
13:46:07:373137,-19,-9,6,-3,-5,-10,14,-9
13:46:07:380744,-10,0,-12,-2,4,-2,-4,-9
13:46:07:388223,-10,0,-12,-2,4,-2,-4,-9
13:46:07:395801,19,1,1,-4,2,0,-15,6
13:46:07:403219,13,-12,-6,-6,-6,2,2,1
13:46:07:411336,13,-12,-6,-6,-6,2,2,1
13:46:07:412102,-1,19,5,-1,-1,17,35,2
13:46:07:426311,4,-11,-29,-3,11,2,-4,1
13:46:07:427100,4,-11,-29,-3,11,2,-4,1
13:46:07:433230,17,13,-2,-5,0,-2,-6,1
13:46:07:440635,-12,-4,26,0,-14,-17,-22,-13
13:46:07:448295,-12,-4,26,0,-14,-17,-22,-13
13:46:07:455636,-2,-16,-3,4,3,5,-8,3
13:46:07:463239,6,43,11,-1,6,10,-8,-8
13:46:07:471363,6,43,11,-1,6,10,-8,-8
13:46:07:472138,-12,-14,-4,-4,-12,0,2,-3
13:46:07:486405,7,-12,-2,9,16,9,21,2
13:46:07:487151,7,-12,-2,9,16,9,21,2
13:46:07:501464,4,8,-7,0,14,-4,-8,9
13:46:07:502071,-11,-38,-19,34,4,-2,-3,-2
13:46:07:508198,-11,-38,-19,34,4,-2,-3,-2
13:46:07:515734,-7,-8,0,4,0,-12,-20,-9
13:46:07:523204,4,8,-15,-31,-7,24,30,1
13:46:07:531446,4,8,-15,-31,-7,24,30,1
13:46:07:532145,7,-13,-16,-7,-6,8,25,-3
13:46:07:546432,-17,-2,-6,-4,-10,-2,1,-14
13:46:07:547161,-17,-2,-6,-4,-10,-2,1,-14
13:46:07:561310,-1,2,19,5,4,2,-18,0
13:46:07:562081,15,6,2,-2,-13,-16,-9,3
13:46:07:568320,15,6,2,-2,-13,-16,-9,3
13:46:07:575668,-3,-9,-19,6,-1,-16,-29,2
13:46:07:583175,-8,4,24,-6,-2,11,-13,-5
13:46:07:591298,-8,4,24,-6,-2,11,-13,-5
13:46:07:592099,9,1,-2,-6,-16,5,18,0
13:46:07:606308,8,5,9,15,16,-8,4,5
13:46:07:607112,8,5,9,15,16,-8,4,5
13:46:07:613153,-5,10,-8,19,2,1,5,-1
13:46:07:620708,-8,-7,-19,-13,1,-11,5,-2
13:46:07:628185,-8,-7,-19,-13,1,-11,5,-2
13:46:07:635670,-8,-26,-1,-16,-17,-9,8,-5
13:46:07:643202,7,-4,-6,-6,-1,0,9,12
13:46:07:651447,7,-4,-6,-6,-1,0,9,12
13:46:07:652117,-6,2,18,-5,4,26,4,5
13:46:07:666401,-16,-29,-16,-9,-7,-7,11,3
13:46:07:667192,-16,-29,-16,-9,-7,-7,11,3
13:46:07:673213,5,0,-4,-6,1,0,0,-1
13:46:07:680751,14,19,10,3,-12,-11,-19,-1
13:46:07:688224,14,19,10,3,-12,-11,-19,-1
13:46:07:695633,0,-17,9,4,3,-10,-28,-1
13:46:07:703222,-9,-7,24,-2,1,0,-1,-5
13:46:07:711375,-9,-7,24,-2,1,0,-1,-5
13:46:07:712140,13,26,8,2,6,-10,-6,0
13:46:07:726319,17,3,-1,2,1,-7,-48,0
13:46:07:727137,17,3,-1,2,1,-7,-48,0
13:46:07:733208,-9,-5,-20,-5,3,22,34,11
13:46:07:740642,5,16,6,2,14,4,-2,0
13:46:07:748249,5,16,6,2,14,4,-2,0
13:46:07:755656,-4,-12,3,-7,-12,-14,-10,-10
13:46:07:763275,-14,-1,-5,-1,1,2,1,-6
13:46:07:771178,-14,-1,-5,-1,1,2,1,-6
13:46:07:778182,-3,9,-10,-4,1,-2,6,10
13:46:07:786402,13,4,-11,-17,-13,-8,-4,-2
13:46:07:787122,13,4,-11,-17,-13,-8,-4,-2
13:46:07:793142,-3,32,10,22,4,0,-6,-5
13:46:07:800713,-4,-5,-18,-14,2,9,9,3
13:46:07:808203,-4,-5,-18,-14,2,9,9,3
13:46:07:815695,3,22,1,-6,-3,-5,2,1
13:46:07:823234,-11,-28,14,-2,-10,-2,11,-2
13:46:07:831369,-11,-28,14,-2,-10,-2,11,-2
13:46:07:832133,-9,-20,-13,0,-2,-4,-15,-10
13:46:07:846466,-5,6,6,0,-5,-4,-30,-4
13:46:07:847134,-5,6,6,0,-5,-4,-30,-4
13:46:07:853261,15,-8,2,5,-11,1,14,3
13:46:07:860665,3,31,4,-8,8,0,-9,1
13:46:07:868246,3,31,4,-8,8,0,-9,1
13:46:07:875634,-11,-4,-4,5,-1,-7,-9,-11
13:46:07:883168,-18,9,3,1,-8,12,25,0
13:46:07:891330,-18,9,3,1,-8,12,25,0
13:46:07:892144,-15,-5,10,-17,-10,-14,-6,-3
13:46:07:906346,9,20,7,8,7,9,-8,-1
13:46:07:907131,9,20,7,8,7,9,-8,-1
13:46:07:913138,-1,2,23,3,10,4,7,-4
13:46:07:920628,-9,-27,-18,-5,-9,-11,-1,-5
13:46:07:928249,-9,-27,-18,-5,-9,-11,-1,-5
13:46:07:935717,8,9,0,-2,-3,-9,-22,-3
13:46:07:943105,11,9,2,2,2,10,46,2
13:46:07:951468,11,9,2,2,2,10,46,2
13:46:07:952128,-14,-45,-54,-11,-10,-4,2,-6
13:46:07:966413,-34,-9,0,5,9,48,25,-5
13:46:07:967143,-34,-9,0,5,9,48,25,-5
13:46:07:973112,-15,-13,7,1,13,14,18,4
13:46:07:980760,2,18,11,6,-5,-27,-30,-4
13:46:07:988219,2,18,11,6,-5,-27,-30,-4
13:46:07:995650,-8,-2,5,-6,-7,2,-14,-1
13:46:08:3253,7,-18,1,-2,-7,-9,-8,-8
13:46:08:11358,7,-18,1,-2,-7,-9,-8,-8
13:46:08:12120,15,14,-10,-6,-1,-11,-7,2
13:46:08:26349,3,-10,-42,1,0,-1,18,0
13:46:08:27134,3,-10,-42,1,0,-1,18,0
13:46:08:33207,-29,-18,15,13,12,9,8,-4
13:46:08:40656,-10,-18,-7,-11,-9,-14,-30,-7
13:46:08:48346,-10,-18,-7,-11,-9,-14,-30,-7
13:46:08:55701,17,23,8,4,0,3,-5,-4
13:46:08:63259,13,-4,4,-15,-11,-16,-13,6
13:46:08:70694,13,-4,4,-15,-11,-16,-13,6
13:46:08:78189,1,-19,4,-2,3,0,0,3
13:46:08:86355,18,-5,1,7,-3,-13,6,1
13:46:08:87148,18,-5,1,7,-3,-13,6,1
13:46:08:93091,-2,18,-9,-15,0,3,2,3
13:46:08:108845,11,6,8,4,16,14,9,7
13:46:08:109621,11,6,8,4,16,14,9,7
13:46:08:115688,11,6,-7,-17,-16,-9,-2,-2
13:46:08:123201,-10,0,-12,-4,-10,-8,0,-1
13:46:08:130754,-10,0,-12,-4,-10,-8,0,-1
13:46:08:138168,0,22,-27,11,1,-1,-8,0
13:46:08:146443,-5,-12,-5,0,4,0,-14,-2
13:46:08:147168,-5,-12,-5,0,4,0,-14,-2
13:46:08:153212,-4,-30,8,28,1,-13,-12,-9
13:46:08:169014,-6,13,7,-4,5,1,3,3
13:46:08:170412,-6,13,7,-4,5,1,3,3
13:46:08:175659,8,14,-2,-5,10,12,22,2
13:46:08:183336,-4,-24,7,4,-1,-1,33,4
13:46:08:190776,-4,-24,7,4,-1,-1,33,4
13:46:08:198263,5,-12,-23,-10,-17,-11,-9,-2
13:46:08:206366,-1,4,-18,-2,-4,-6,-3,-6
13:46:08:207193,-1,4,-18,-2,-4,-6,-3,-6
13:46:08:213268,-14,-31,8,-2,3,-5,-18,-7
13:46:08:228826,-3,-4,22,10,11,12,-20,3
13:46:08:229670,-3,-4,22,10,11,12,-20,3
13:46:08:235670,15,-5,34,-6,-2,5,3,4
13:46:08:243164,-19,-48,15,41,20,1,-8,0
13:46:08:250890,-19,-48,15,41,20,1,-8,0
13:46:08:258147,6,3,21,-5,4,2,6,6
13:46:08:266349,6,12,8,7,-1,1,7,4
13:46:08:267121,6,12,8,7,-1,1,7,4
13:46:08:273168,0,21,16,5,-2,-4,1,0
13:46:08:288909,5,20,-8,-14,-11,22,34,2
13:46:08:289688,5,20,-8,-14,-11,22,34,2
13:46:08:295782,-7,32,-1,-3,2,4,9,6
13:46:08:303241,-24,-19,-2,-5,-9,-10,10,-9
13:46:08:310719,-24,-19,-2,-5,-9,-10,10,-9
13:46:08:318209,17,-1,2,-1,1,-2,2,2
13:46:08:326316,-6,-4,-6,-16,-12,-15,-30,-3
13:46:08:327107,-6,-4,-6,-16,-12,-15,-30,-3
13:46:08:333260,-5,-19,-27,-28,-14,-4,-7,-7
13:46:08:348852,5,18,5,-1,1,-1,1,-4
13:46:08:349608,5,18,5,-1,1,-1,1,-4
13:46:08:355684,-4,-14,-17,2,0,7,11,3
13:46:08:363256,7,-7,-17,-6,-8,-13,-21,0
13:46:08:370717,7,-7,-17,-6,-8,-13,-21,0
13:46:08:378106,-10,-9,18,-6,6,-1,0,-2
13:46:08:386405,3,15,-9,0,-3,-11,-11,-2
13:46:08:387156,3,15,-9,0,-3,-11,-11,-2
13:46:08:393094,-21,-9,13,2,0,-1,0,-4
13:46:08:408849,13,16,-11,-16,-7,-7,-8,4
13:46:08:409626,13,16,-11,-16,-7,-7,-8,4
13:46:08:415610,0,3,-8,18,-6,-2,-1,-1
13:46:08:423195,-5,2,-5,-2,2,1,-7,-6
13:46:08:430759,-5,2,-5,-2,2,1,-7,-6
13:46:08:438150,-2,-1,2,9,1,2,-7,-10
13:46:08:446374,2,15,26,1,6,6,-7,2
13:46:08:447160,2,15,26,1,6,6,-7,2
13:46:08:460592,-4,8,-21,-6,-6,-9,-6,-1
13:46:08:468956,9,-14,-28,-4,0,-7,-3,2
13:46:08:469631,9,-14,-28,-4,0,-7,-3,2
13:46:08:475626,15,-3,9,2,1,11,13,0
13:46:08:483139,0,24,4,3,1,-3,-7,-1
13:46:08:490733,0,24,4,3,1,-3,-7,-1
13:46:08:498152,-2,6,11,3,5,2,0,-4
13:46:08:506376,-12,-14,-23,-14,-9,-7,-11,-12
13:46:08:507183,-12,-14,-23,-14,-9,-7,-11,-12
13:46:08:513145,11,13,-1,-3,-4,0,-8,6
13:46:08:528835,-5,-1,-3,2,-3,-1,13,-3
13:46:08:529644,-5,-1,-3,2,-3,-1,13,-3
13:46:08:535689,-26,-31,-7,-3,1,1,7,-3
13:46:08:543155,10,-19,16,17,12,3,1,3
13:46:08:550791,10,-19,16,17,12,3,1,3
13:46:08:558151,12,-5,5,16,-1,-7,-11,2
13:46:08:566319,7,-20,9,13,-1,11,9,-1
13:46:08:567120,7,-20,9,13,-1,11,9,-1
13:46:08:573174,1,-7,4,-1,2,-9,-23,0
13:46:08:588914,-2,10,-39,-6,0,8,22,-1
13:46:08:589694,-2,10,-39,-6,0,8,22,-1
13:46:08:595879,14,35,10,0,5,0,6,4
13:46:08:603266,-14,-7,2,-7,-5,-7,-18,-12
13:46:08:610713,-14,-7,2,-7,-5,-7,-18,-12
13:46:08:618240,-6,-7,-11,1,-7,-3,-23,-1
13:46:08:626339,-8,44,7,-3,6,-3,-1,4
13:46:08:627128,-8,44,7,-3,6,-3,-1,4
13:46:08:633135,-1,-36,-14,-4,7,5,0,2
13:46:08:648830,-9,-2,-36,-11,-2,6,5,-5
13:46:08:649643,-9,-2,-36,-11,-2,6,5,-5
13:46:08:655711,13,7,3,-8,-10,-4,4,-4
13:46:08:663170,7,5,35,1,-1,-11,-15,6
13:46:08:670752,7,5,35,1,-1,-11,-15,6
13:46:08:678190,-2,-6,6,-20,-8,-3,2,-6
13:46:08:686392,16,-37,16,3,-3,-1,-4,2
13:46:08:687149,16,-37,16,3,-3,-1,-4,2
13:46:08:693091,-9,33,-14,1,1,-1,13,-2
13:46:08:708799,-4,-3,-7,-5,2,8,1,-7
13:46:08:709627,-4,-3,-7,-5,2,8,1,-7
13:46:08:715609,-1,-11,-7,-1,2,1,6,6
13:46:08:723205,-5,24,11,5,2,7,14,6
13:46:08:738897,-5,24,11,5,2,7,14,6
13:46:08:739656,1,-17,-8,-1,-7,-6,-11,-4
13:46:08:746296,-1,-7,30,2,5,11,30,13
13:46:08:747139,-1,-7,30,2,5,11,30,13
13:46:08:753163,7,6,-2,-1,-1,1,4,-1
13:46:08:768851,-22,4,0,-25,-20,-17,-20,-15
13:46:08:769615,-22,4,0,-25,-20,-17,-20,-15
13:46:08:775614,-3,-3,0,-4,1,11,14,2
13:46:08:783214,11,10,-3,0,-10,12,-25,-3
13:46:08:790665,11,10,-3,0,-10,12,-25,-3
13:46:08:798149,1,-4,1,14,8,10,7,-6
13:46:08:806348,-6,-12,4,9,-4,-20,8,-9
13:46:08:807150,-6,-12,4,9,-4,-20,8,-9
13:46:08:813229,7,-2,5,-6,-5,-15,-2,-2
13:46:08:828822,-18,-33,-10,3,3,0,1,-12
13:46:08:829602,-18,-33,-10,3,3,0,1,-12
13:46:08:835666,-26,11,20,6,4,1,3,-1
13:46:08:843096,7,-14,10,-1,1,4,-7,0
13:46:08:850776,7,-14,10,-1,1,4,-7,0
13:46:08:858118,1,-8,13,-7,-18,-11,-30,0
13:46:08:866428,-1,-1,-17,9,19,7,-20,2
13:46:08:867172,-1,-1,-17,9,19,7,-20,2
13:46:08:873143,-8,18,6,25,-13,-15,-17,-6
13:46:08:888856,10,8,1,6,21,6,-8,-3
13:46:08:889631,10,8,1,6,21,6,-8,-3
13:46:08:895655,-10,5,-17,-14,-14,-6,12,-4
13:46:08:911409,-10,5,-17,-14,-14,-6,12,-4
13:46:08:912166,25,2,-22,2,-10,-22,-1,11
13:46:08:918186,12,14,1,-16,0,-1,5,1
13:46:08:926387,12,14,1,-16,0,-1,5,1
13:46:08:927106,-12,-2,21,-2,12,1,11,-1
13:46:08:933190,-5,-28,-23,-7,3,0,-18,1
13:46:08:948882,-5,-28,-23,-7,3,0,-18,1
13:46:08:949629,1,-7,-22,-2,-8,9,15,1
13:46:08:955642,-10,-8,5,3,12,1,2,0
13:46:08:971392,-10,-8,5,3,12,1,2,0
13:46:08:972171,2,7,-16,-2,-12,1,4,-5
13:46:08:978172,6,14,-2,4,6,-2,-9,9
13:46:08:986477,6,14,-2,4,6,-2,-9,9
13:46:08:987156,4,4,-6,-8,-14,-19,-20,2
13:46:09:752,-5,18,-22,-5,-1,9,4,-3
13:46:09:17043,-5,18,-22,-5,-1,9,4,-3
13:46:09:17737,-5,16,6,5,3,-2,-11,-6
13:46:09:18568,9,1,4,-8,-9,-9,-2,-5
13:46:09:31403,9,1,4,-8,-9,-9,-2,-5
13:46:09:32134,2,-14,-5,-13,6,6,18,-1
13:46:09:38171,-9,-19,-7,-1,1,-1,4,-2
13:46:09:46497,-9,-19,-7,-1,1,-1,4,-2
13:46:09:47189,11,5,0,3,-2,20,13,6
13:46:09:60638,-18,-16,-9,-4,-6,-3,-6,-8
13:46:09:68960,-18,-16,-9,-4,-6,-3,-6,-8
13:46:09:69702,-10,-4,10,7,7,-5,-15,-1
13:46:09:75607,15,-5,-5,-7,-10,-2,10,2
13:46:09:91351,15,-5,-5,-7,-10,-2,10,2
13:46:09:92098,-1,-26,-19,-16,-15,1,12,-8
13:46:09:98198,5,-5,-3,5,3,1,6,2
13:46:09:106375,5,-5,-3,5,3,1,6,2
13:46:09:107147,-10,-5,0,-2,6,-17,-15,-1
13:46:09:120725,3,14,-13,-2,4,23,24,4
13:46:09:128865,3,14,-13,-2,4,23,24,4
13:46:09:129647,3,29,-2,-5,-8,-1,-16,-2
13:46:09:135696,1,-17,-3,-2,5,1,7,1
13:46:09:151445,1,-17,-3,-2,5,1,7,1
13:46:09:152140,6,9,10,0,-6,-6,-6,1
13:46:09:158112,-9,8,-2,0,7,4,10,-8
13:46:09:166399,-9,8,-2,0,7,4,10,-8
13:46:09:167159,-13,-20,15,12,2,-7,8,-8
13:46:09:180697,11,2,-17,-1,4,-1,3,6
13:46:09:188885,11,2,-17,-1,4,-1,3,6
13:46:09:189611,-1,12,5,-6,-9,2,-23,-4
13:46:09:195675,6,8,17,-4,-6,1,-17,-2
13:46:09:211351,6,8,17,-4,-6,1,-17,-2
13:46:09:212119,3,5,-18,1,-1,-6,-1,1
13:46:09:218175,22,37,4,8,3,10,3,1
13:46:09:226368,22,37,4,8,3,10,3,1
13:46:09:227102,2,-4,17,-6,2,2,9,0
13:46:09:240631,-11,4,6,-1,0,-15,-14,-6
13:46:09:248893,-11,4,6,-1,0,-15,-14,-6
13:46:09:249645,19,2,-17,0,-9,-1,-8,6
13:46:09:255615,-5,0,4,1,-3,20,9,0
13:46:09:271350,-5,0,4,1,-3,20,9,0
13:46:09:272150,-6,-41,-21,-3,-4,-9,2,-4
13:46:09:278107,-12,-37,-11,-2,0,-13,-9,-6
13:46:09:293821,-12,-37,-11,-2,0,-13,-9,-6
13:46:09:294588,2,-2,-10,-10,-2,-4,5,2
13:46:09:300724,-4,20,25,8,12,9,38,-4
13:46:09:308865,-4,20,25,8,12,9,38,-4
13:46:09:309635,0,8,19,-1,0,-6,-6,5
13:46:09:315635,-7,-23,8,-3,-12,-10,-11,1
13:46:09:331412,-7,-23,8,-3,-12,-10,-11,1
13:46:09:332137,-10,3,6,5,0,-7,-2,-4
13:46:09:338178,13,-10,-11,-3,-6,-16,-21,-8
13:46:09:346427,13,-10,-11,-3,-6,-16,-21,-8
13:46:09:347138,3,0,-8,-2,3,7,3,1
13:46:09:360694,-8,-3,1,-20,-13,-14,-18,-7
13:46:09:368911,-8,-3,1,-20,-13,-14,-18,-7
13:46:09:369594,-5,6,1,13,3,7,-3,0
13:46:09:375604,-6,2,6,5,15,8,-8,3
13:46:09:391340,-6,2,6,5,15,8,-8,3
13:46:09:392144,-1,3,6,1,5,12,16,8
13:46:09:398187,-6,-13,10,0,-7,-8,-8,4
13:46:09:406372,-6,-13,10,0,-7,-8,-8,4
13:46:09:407098,1,3,-21,3,-1,2,10,7
13:46:09:420659,11,3,-10,1,-4,-19,-11,-4
13:46:09:428828,11,3,-10,1,-4,-19,-11,-4
13:46:09:429623,8,7,1,1,-3,9,17,2
13:46:09:443137,-5,5,-3,-5,5,7,7,2
13:46:09:451466,-5,5,-3,-5,5,7,7,2
13:46:09:452154,-6,9,5,7,-4,-3,-3,-6
13:46:09:458137,2,-24,-43,-4,-4,-1,-5,-2
13:46:09:466390,2,-24,-43,-4,-4,-1,-5,-2
13:46:09:467143,0,2,4,7,-10,-21,-46,-3
13:46:09:480700,0,3,-2,-1,7,16,16,2
13:46:09:488917,0,3,-2,-1,7,16,16,2
13:46:09:489676,-18,-23,-5,-7,-2,-16,9,-7
13:46:09:495643,-3,-3,6,3,-2,-7,-17,-6
13:46:09:511422,-3,-3,6,3,-2,-7,-17,-6
13:46:09:512184,-12,2,7,-7,3,-4,-3,-5
13:46:09:518208,11,12,12,14,10,19,18,1
13:46:09:526387,11,12,12,14,10,19,18,1
13:46:09:527154,-12,-18,15,-3,10,13,10,-1
13:46:09:540648,23,30,22,-6,-7,-5,2,6
13:46:09:548916,23,30,22,-6,-7,-5,2,6
13:46:09:549691,7,12,5,-31,-10,-3,-1,-4
13:46:09:555664,-5,17,-4,7,5,-5,-10,-2
13:46:09:571394,-5,17,-4,7,5,-5,-10,-2
13:46:09:572148,11,1,-1,-6,-7,0,-7,-2
13:46:09:578220,-16,-1,7,0,-5,11,22,-1
13:46:09:586410,-16,-1,7,0,-5,11,22,-1
13:46:09:587152,-3,-7,-2,2,1,-4,-5,-10
13:46:09:600697,-5,-28,-24,-4,-3,-8,-13,-1
13:46:09:608894,-5,-28,-24,-4,-3,-8,-13,-1
13:46:09:609649,10,-7,9,11,12,-1,3,6
13:46:09:615655,-6,10,-5,3,11,7,4,-1
13:46:09:631362,-6,10,-5,3,11,7,4,-1
13:46:09:632142,-9,-3,-6,-9,-10,-5,-6,-2
13:46:09:638114,9,-6,6,-4,-1,0,1,3
13:46:09:646355,9,-6,6,-4,-1,0,1,3
13:46:09:647118,0,14,2,3,8,5,-3,-1
13:46:09:660600,-10,2,-4,-7,-18,-16,-12,2
13:46:09:668903,-10,2,-4,-7,-18,-16,-12,2
13:46:09:669628,15,19,5,5,6,7,11,-1
13:46:09:675586,-3,-5,-37,-9,-4,-17,-31,-6
13:46:09:691326,-3,-5,-37,-9,-4,-17,-31,-6
13:46:09:692136,-13,-27,-8,0,-5,5,21,-3
13:46:09:698164,-1,-1,20,3,3,-3,-5,-5
13:46:09:706384,-1,-1,20,3,3,-3,-5,-5
13:46:09:707143,16,-11,-8,-2,-10,1,-2,8
13:46:09:721132,-9,-4,12,-1,2,-1,-6,-3
13:46:09:728876,-9,-4,12,-1,2,-1,-6,-3
13:46:09:729634,-13,9,-18,-18,-8,-5,-1,-4
13:46:09:735737,-1,-10,-65,-8,-5,2,4,-3
13:46:09:751429,-1,-10,-65,-8,-5,2,4,-3
13:46:09:752127,-7,-14,-1,6,0,-5,1,3
13:46:09:758138,-14,-19,25,-7,-2,6,8,-3
13:46:09:766397,-14,-19,25,-7,-2,6,8,-3
13:46:09:767145,6,59,-12,-3,-11,-17,-16,-3
13:46:09:780721,0,-6,14,4,-5,5,17,1
13:46:09:788862,0,-6,14,4,-5,5,17,1
13:46:09:789619,3,-25,-2,1,-1,2,-4,6
13:46:09:795599,5,-5,-31,-2,-5,-8,-8,2
13:46:09:811330,5,-5,-31,-2,-5,-8,-8,2
13:46:09:812095,2,-4,6,16,4,9,-1,-6
13:46:09:818206,11,45,13,37,9,0,-1,3
13:46:09:826359,11,45,13,37,9,0,-1,3
13:46:09:827089,-12,-20,7,-1,-2,-5,0,-1
13:46:09:840681,-4,-8,17,7,13,-1,14,3
13:46:09:848899,-4,-8,17,7,13,-1,14,3
13:46:09:849584,-11,-7,-15,-11,-8,23,42,-8
13:46:09:855647,7,-19,-4,-6,4,-2,3,1
13:46:09:871338,7,-19,-4,-6,4,-2,3,1
13:46:09:872108,-4,0,9,3,2,-17,-24,-9
13:46:09:878223,-3,-2,4,-9,-6,3,-1,-3
13:46:09:886447,-3,-2,4,-9,-6,3,-1,-3
13:46:09:887153,3,11,21,4,6,-2,-12,2
13:46:09:900689,-6,-5,2,0,-5,-6,-5,-1
13:46:09:908824,-6,-5,2,0,-5,-6,-5,-1
13:46:09:909664,-12,-19,10,2,4,13,6,1
13:46:09:915661,2,-1,0,-2,13,-4,-13,-3
13:46:09:931393,2,-1,0,-2,13,-4,-13,-3
13:46:09:932160,2,1,-22,-5,-5,13,-1,-3
13:46:09:938166,-3,-1,10,0,-10,-6,19,-4
13:46:09:945773,-3,-1,10,0,-10,-6,19,-4
13:46:09:953206,9,31,-2,3,10,5,19,9
13:46:09:960635,3,9,11,-6,-12,0,-3,-2
13:46:09:968922,3,9,11,-6,-12,0,-3,-2
13:46:09:969618,11,-8,12,-1,-6,-11,-19,-1
13:46:09:983185,2,10,17,1,-5,-3,-3,2
13:46:09:991326,2,10,17,1,-5,-3,-3,2
13:46:09:992106,-8,-2,3,6,12,5,-7,0
13:46:09:998223,-4,2,-3,-9,-17,-18,-10,-3
13:46:10:5689,-4,2,-3,-9,-17,-18,-10,-3
13:46:10:13220,-4,3,-12,8,5,2,10,-2
13:46:10:20627,0,0,-31,-12,0,-1,-8,-1
13:46:10:28847,0,0,-31,-12,0,-1,-8,-1
13:46:10:29653,-11,0,-3,-6,-8,-14,21,-6
13:46:10:43192,-11,-13,8,-5,-3,1,-12,1
13:46:10:51441,-11,-13,8,-5,-3,1,-12,1
13:46:10:52137,-6,-18,3,-6,-1,-14,-26,-3
13:46:10:58100,8,20,-14,2,0,9,12,0
13:46:10:65675,8,20,-14,2,0,9,12,0
13:46:10:73117,1,1,-21,5,11,0,-7,2
13:46:10:80652,0,20,18,3,-4,19,-11,-7
