Time,EMG1,EMG2,EMG3,EMG4,EMG5,EMG6,EMG7,EMG8
15:13:51:240989,2,2,-8,-4,0,21,12,1
15:13:51:241766,2,2,-8,-4,0,21,12,1
15:13:51:247691,-7,-1,-3,-9,8,-51,-30,-8
15:13:51:255223,-3,-5,-14,-33,-11,-10,-54,-1
15:13:51:263469,-3,-5,-14,-33,-11,-10,-54,-1
15:13:51:264240,6,1,-20,-8,17,10,-3,1
15:13:51:286646,-2,-1,-11,2,-24,-1,21,19
15:13:51:287470,-2,-1,-11,2,-24,-1,21,19
15:13:51:288235,-6,-5,-18,-42,-30,7,-34,-16
15:13:51:309232,0,-3,-21,-15,-3,-36,-2,-5
15:13:51:309958,0,-3,-21,-15,-3,-36,-2,-5
15:13:51:310777,3,13,39,31,6,12,0,1
15:13:51:315262,0,0,-1,-20,-27,-6,25,0
15:13:51:330953,0,0,-1,-20,-27,-6,25,0
15:13:51:331800,4,1,-18,4,37,-3,18,4
15:13:51:346579,-1,10,29,14,8,-30,-45,-21
15:13:51:347383,-1,10,29,14,8,-30,-45,-21
15:13:51:348174,-4,1,31,52,-4,10,7,-11
15:13:51:361028,8,0,12,30,3,16,-19,3
15:13:51:361754,8,0,12,30,3,16,-19,3
15:13:51:375928,-7,-11,-26,-30,-16,-11,5,-6
15:13:51:376702,0,-10,-35,-11,28,10,40,4
15:13:51:390981,0,-10,-35,-11,28,10,40,4
15:13:51:391757,9,10,27,20,-3,-5,-5,9
15:13:51:398357,-2,0,6,44,-5,0,33,6
15:13:51:399205,-2,0,6,44,-5,0,33,6
15:13:51:412741,-1,2,2,-6,36,3,28,12
15:13:51:420966,-2,-6,-23,-36,-22,-20,-11,3
15:13:51:421778,-2,-6,-23,-36,-22,-20,-11,3
15:13:51:427754,-7,-15,-11,37,14,-3,-35,-2
15:13:51:435237,3,-5,0,-65,-21,16,4,4
15:13:51:442889,3,-5,0,-65,-21,16,4,4
15:13:51:459189,-4,-6,-10,-31,-12,23,-36,-11
15:13:51:459911,-3,1,9,33,24,16,6,7
15:13:51:460767,-3,1,9,33,24,16,6,7
15:13:51:465225,-6,-12,-7,6,-26,-29,6,-5
15:13:51:481389,-1,9,10,-5,29,23,12,6
15:13:51:482252,-1,9,10,-5,29,23,12,6
15:13:51:495854,0,-9,-17,-43,-7,-3,18,0
15:13:51:496710,-6,-11,-1,12,-19,-4,13,-6
15:13:51:502767,-6,-11,-1,12,-19,-4,13,-6
15:13:51:519103,2,7,10,4,6,-5,22,4
15:13:51:519906,-2,2,-4,-3,-7,0,21,-4
15:13:51:520713,-2,2,-4,-3,-7,0,21,-4
15:13:51:525208,-4,-11,-3,48,8,26,-1,-5
15:13:51:549156,-2,-9,-12,-35,-19,-28,-81,-4
15:13:51:549913,-2,-9,-12,-35,-19,-28,-81,-4
15:13:51:550704,-1,2,-17,-59,-38,-11,61,15
15:13:51:555235,1,-1,-9,-22,10,-2,7,3
15:13:51:562752,1,-1,-9,-22,10,-2,7,3
15:13:51:570265,1,6,26,45,18,-3,-22,-3
15:13:51:586669,2,11,35,37,4,-7,-13,-8
15:13:51:587445,2,11,35,37,4,-7,-13,-8
15:13:51:588202,-3,-4,-5,-25,-34,-8,29,-6
15:13:51:600916,-5,-2,-7,-46,-49,-38,49,-16
15:13:51:601748,-5,-2,-7,-46,-49,-38,49,-16
15:13:51:607813,1,4,10,11,-1,12,20,5
15:13:51:623466,-1,-5,-2,2,-7,3,-21,1
15:13:51:624287,-1,-5,-2,2,-7,3,-21,1
15:13:51:630209,4,-3,-14,18,-14,3,-8,-2
15:13:51:638454,-5,-4,-12,9,10,10,24,4
15:13:51:639246,-5,-4,-12,9,10,10,24,4
15:13:51:652780,2,6,22,2,36,7,-22,0
15:13:51:669059,2,-3,6,7,10,3,3,11
15:13:51:669870,2,-3,6,7,10,3,3,11
15:13:51:670700,-1,6,23,23,-7,-23,-6,0
15:13:51:675275,-8,0,-14,-20,-29,17,6,-8
15:13:51:691015,-8,0,-14,-20,-29,17,6,-8
15:13:51:691780,-2,5,12,-68,-43,8,-25,-1
15:13:51:698434,1,2,9,28,56,15,-4,-2
15:13:51:699239,1,2,9,28,56,15,-4,-2
15:13:51:705269,-1,-4,-38,34,-1,-8,41,5
15:13:51:720910,2,2,16,-1,-26,-4,2,-5
15:13:51:721685,2,2,16,-1,-26,-4,2,-5
15:13:51:735962,0,-1,20,6,30,19,-9,-4
15:13:51:736707,2,1,2,8,10,14,3,1
15:13:51:742800,2,1,2,8,10,14,3,1
15:13:51:759141,-2,-1,-14,-3,-17,-10,47,7
15:13:51:759890,3,0,-8,-23,1,23,-50,-3
15:13:51:760736,3,0,-8,-23,1,23,-50,-3
15:13:51:772735,-5,0,-5,-28,3,6,17,9
15:13:51:780910,-1,-1,-6,14,3,-33,14,4
15:13:51:781747,-1,-1,-6,14,3,-33,14,4
15:13:51:795897,-4,-12,-21,4,-8,-10,-39,-7
15:13:51:796710,-2,-1,16,-14,-8,-18,-9,-3
15:13:51:802767,-2,-1,16,-14,-8,-18,-9,-3
15:13:51:810207,-2,-5,-7,26,10,-8,-23,-9
15:13:51:826588,2,-3,2,18,57,42,25,-8
15:13:51:827380,2,-3,2,18,57,42,25,-8
15:13:51:828175,-2,2,13,-14,-29,39,0,-4
15:13:51:840946,-4,-4,-7,-23,-30,3,-20,2
15:13:51:841756,-4,-4,-7,-23,-30,3,-20,2
15:13:51:847740,-2,-5,-5,-38,-20,-31,-20,-12
15:13:51:863563,3,5,4,1,-12,-11,7,5
15:13:51:864264,3,5,4,1,-12,-11,7,5
15:13:51:870275,1,-1,-8,-53,-1,-6,-14,-3
15:13:51:878386,2,-3,-11,32,48,-5,23,6
15:13:51:879195,2,-3,-11,32,48,-5,23,6
15:13:51:885223,-1,-1,2,37,24,-13,51,17
15:13:51:901356,1,3,3,-13,-29,-11,36,8
15:13:51:902168,1,3,3,-13,-29,-11,36,8
15:13:51:907733,-2,1,-2,71,50,1,-40,-13
15:13:51:915236,0,2,6,13,-8,0,-20,-1
15:13:51:930982,0,2,6,13,-8,0,-20,-1
15:13:51:931745,-2,-5,2,-38,-21,-20,-7,-3
15:13:51:946602,-7,-6,-19,-61,10,-12,49,-6
15:13:51:947415,-7,-6,-19,-61,10,-12,49,-6
15:13:51:948234,4,11,18,7,3,26,-3,10
15:13:51:969077,-6,-10,-10,15,-34,11,-26,-17
15:13:51:969934,-6,-10,-10,15,-34,11,-26,-17
15:13:51:970709,1,-3,-22,37,18,9,16,5
15:13:51:975286,-3,-1,-5,-24,36,-13,1,0
15:13:51:982768,-3,-1,-5,-24,36,-13,1,0
15:13:51:990264,3,10,21,-46,-5,15,-40,-6
15:13:51:998449,1,1,8,0,-25,-13,-3,0
15:13:51:999249,1,1,8,0,-25,-13,-3,0
15:13:52:5267,-8,-10,-9,-15,28,1,5,-1
15:13:52:20943,0,-1,7,6,8,5,11,4
15:13:52:21763,0,-1,7,6,8,5,11,4
15:13:52:27726,1,5,15,25,-15,14,-12,0
15:13:52:35218,-2,-1,8,4,-25,-24,-54,-10
15:13:52:42837,-2,-1,8,4,-25,-24,-54,-10
15:13:52:50218,-2,-4,-18,-7,15,-4,-29,-1
15:13:52:58507,-2,0,8,-37,-24,-26,-9,-4
15:13:52:59275,-2,0,8,-37,-24,-26,-9,-4
15:13:52:65229,0,2,22,32,-10,2,-49,-13
15:13:52:80923,1,0,-13,33,5,-11,-19,7
15:13:52:81727,1,0,-13,33,5,-11,-19,7
15:13:52:95877,-10,-14,16,-28,-20,-24,41,-1
15:13:52:96707,-5,-4,-3,-36,-1,19,-18,-10
15:13:52:102779,-5,-4,-3,-36,-1,19,-18,-10
15:13:52:110206,2,0,-6,-16,7,-10,16,-3
15:13:52:118390,2,1,1,29,18,19,22,0
15:13:52:119260,2,1,1,29,18,19,22,0
15:13:52:125178,-6,-19,-38,-64,-12,-17,19,0
15:13:52:141034,6,-1,-6,17,51,32,32,12
15:13:52:141746,6,-1,-6,17,51,32,32,12
15:13:52:147702,2,5,14,44,-14,-14,-15,-5
15:13:52:155201,-5,-3,-18,-23,-27,-25,-11,-15
15:13:52:170904,-5,-3,-18,-23,-27,-25,-11,-15
15:13:52:171737,3,11,27,38,25,21,10,0
15:13:52:178389,0,-8,8,4,-14,-11,15,14
15:13:52:179211,0,-8,8,4,-14,-11,15,14
15:13:52:185211,-1,-6,-30,-66,51,8,-5,-9
15:13:52:200919,-4,0,12,64,27,7,8,0
15:13:52:201720,-4,0,12,64,27,7,8,0
15:13:52:207677,-1,-4,18,-18,-29,8,65,18
15:13:52:223425,-4,-2,7,-17,-9,-37,19,-1
15:13:52:224217,-4,-2,7,-17,-9,-37,19,-1
15:13:52:230248,1,1,-30,-25,4,-20,9,-2
15:13:52:238414,-6,1,-9,-46,-46,-7,-25,-1
15:13:52:239236,-6,1,-9,-46,-46,-7,-25,-1
15:13:52:252791,-8,0,-10,17,-17,9,-33,-1
15:13:52:260875,0,-3,-16,-72,-28,-2,15,15
15:13:52:261725,0,-3,-16,-72,-28,-2,15,15
15:13:52:275268,1,-1,-26,98,39,13,-5,-2
15:13:52:283374,-2,-2,6,76,41,36,-44,-13
15:13:52:284204,-2,-2,6,76,41,36,-44,-13
15:13:52:290261,0,-3,12,-1,-9,3,25,2
15:13:52:298417,1,1,-17,-59,24,6,-7,-2
15:13:52:299250,1,1,-17,-59,24,6,-7,-2
15:13:52:312731,0,-1,13,30,-32,-6,11,-4
15:13:52:329152,2,3,3,-65,-26,8,7,2
15:13:52:329915,2,3,3,-65,-26,8,7,2
15:13:52:330726,-8,-2,6,-33,-48,-68,-8,-16
15:13:52:343971,7,-2,43,49,-5,11,74,25
15:13:52:344729,7,-2,43,49,-5,11,74,25
15:13:52:350228,3,4,10,-3,52,20,17,5
15:13:52:358494,0,7,-24,20,0,-11,-26,-23
15:13:52:359255,0,7,-24,20,0,-11,-26,-23
15:13:52:372742,1,-6,-19,28,44,2,-11,6
15:13:52:380933,-2,-5,-7,25,34,-4,-50,-14
15:13:52:381747,-2,-5,-7,25,34,-4,-50,-14
15:13:52:395269,-5,-7,-12,-73,-51,-9,8,-13
15:13:52:403450,-4,4,20,27,-5,-25,-26,-17
15:13:52:404252,-4,4,20,27,-5,-25,-26,-17
15:13:52:410176,-8,2,-1,14,-30,26,-41,-7
15:13:52:418447,-2,4,35,7,-17,-3,-2,5
15:13:52:419272,-2,4,35,7,-17,-3,-2,5
15:13:52:432786,5,-2,-2,33,46,10,27,14
15:13:52:441591,8,2,-10,72,40,45,79,45
15:13:52:442368,8,2,-10,72,40,45,79,45
15:13:52:447705,-4,-13,-16,-99,-67,-32,-20,-1
15:13:52:463408,0,-3,-13,5,56,39,-6,0
15:13:52:464206,0,-3,-13,5,56,39,-6,0
15:13:52:470224,7,7,0,28,7,9,4,6
15:13:52:478428,-3,1,4,-44,-62,-1,-12,-18
15:13:52:479211,-3,1,4,-44,-62,-1,-12,-18
15:13:52:501543,-4,6,28,-25,-1,-18,-33,-14
15:13:52:502353,-4,6,28,-25,-1,-18,-33,-14
15:13:52:503178,-5,2,18,-7,2,-17,-81,5
15:13:52:507760,0,-2,14,23,-17,0,-20,-5
15:13:52:523493,0,-2,14,23,-17,0,-20,-5
15:13:52:524259,-11,-24,-11,86,35,-17,-39,-12
15:13:52:530194,-3,0,-8,-44,11,3,-16,0
15:13:52:538463,-3,0,-8,-44,11,3,-16,0
15:13:52:539231,2,1,-4,-41,-13,-6,48,4
15:13:52:552764,2,7,9,30,-36,-18,-8,0
15:13:52:560956,2,7,9,30,-36,-18,-8,0
15:13:52:561750,3,0,-16,-42,-19,12,62,2
15:13:52:567717,4,4,-11,-49,-31,-46,-21,-15
15:13:52:583474,4,4,-11,-49,-31,-46,-21,-15
15:13:52:584256,-6,-4,-9,9,8,-9,1,-2
15:13:52:590473,-4,-5,8,-1,-12,-25,-49,-12
15:13:52:598437,-4,-5,8,-1,-12,-25,-49,-12
15:13:52:599290,2,-2,4,22,33,47,39,14
15:13:52:612705,-7,0,-36,28,7,11,-33,-1
15:13:52:620990,-7,0,-36,28,7,11,-33,-1
15:13:52:621768,0,7,-5,-25,-57,-14,-33,-11
15:13:52:627733,-3,-6,21,-21,9,21,51,5
15:13:52:643490,-3,-6,21,-21,9,21,51,5
15:13:52:644252,4,0,-4,61,24,-23,-23,-11
15:13:52:657838,6,1,-13,55,12,14,75,25
15:13:52:665953,6,1,-13,55,12,14,75,25
15:13:52:666721,12,11,26,-19,-17,25,20,19
15:13:52:672737,-6,-18,30,68,6,18,-17,-4
15:13:52:680921,-6,-18,30,68,6,18,-17,-4
15:13:52:681752,-5,-6,-15,-5,17,-12,-22,-21
15:13:52:687739,-3,8,-12,-18,-3,2,7,4
15:13:52:703479,-3,8,-12,-18,-3,2,7,4
15:13:52:704266,-2,1,-6,32,-12,-15,-17,-5
15:13:52:710220,-9,-9,2,-4,-5,10,-3,2
15:13:52:725924,-9,-9,2,-4,-5,10,-3,2
15:13:52:726717,4,-7,-12,-16,7,21,71,21
15:13:52:732770,4,-2,-15,19,33,21,10,10
15:13:52:740938,4,-2,-15,19,33,21,10,10
15:13:52:741738,9,11,-2,-64,-33,-14,-10,-2
15:13:52:747689,2,-4,-41,-17,-6,-3,-2,5
15:13:52:763416,2,-4,-41,-17,-6,-3,-2,5
15:13:52:764229,-3,5,9,-5,14,8,2,-15
15:13:52:777735,3,4,-13,-7,-46,-10,1,-6
15:13:52:785942,3,4,-13,-7,-46,-10,1,-6
15:13:52:786701,-4,-21,-18,17,32,15,-41,-20
15:13:52:792743,5,-5,11,43,-1,14,-17,-28
15:13:52:800912,5,-5,11,43,-1,14,-17,-28
15:13:52:801704,-11,-11,-1,-3,-16,-10,-17,-7
15:13:52:807703,-1,3,7,2,-18,-22,13,-1
15:13:52:823519,-1,3,7,2,-18,-22,13,-1
15:13:52:824260,-5,-4,-4,30,-7,-14,-7,1
15:13:52:837718,-6,6,19,-49,-19,-8,-16,-8
15:13:52:845958,-6,6,19,-49,-19,-8,-16,-8
15:13:52:846756,-10,3,2,-59,-24,4,-2,5
15:13:52:852754,2,-5,28,24,33,16,20,23
15:13:52:860921,2,-5,28,24,33,16,20,23
15:13:52:861713,-1,3,2,-32,-48,-58,31,-7
15:13:52:867715,7,17,17,-48,33,42,27,27
15:13:52:883455,7,17,17,-48,33,42,27,27
15:13:52:884241,-4,-1,-15,30,-1,-7,32,5
15:13:52:890255,-15,-3,-7,-6,22,2,-13,-13
15:13:52:906001,-15,-3,-7,-6,22,2,-13,-13
15:13:52:906776,6,2,12,69,-20,-15,-18,10
15:13:52:912720,4,-3,18,-15,-5,-8,-26,8
15:13:52:920967,4,-3,18,-15,-5,-8,-26,8
15:13:52:921737,-12,-11,-25,-61,8,29,48,8
15:13:52:927750,-4,7,-4,41,-19,-34,-29,-12
15:13:52:943463,-4,7,-4,41,-19,-34,-29,-12
15:13:52:944326,-5,3,-21,-9,-14,-9,-40,-7
15:13:52:950230,3,-11,-8,-8,5,5,17,-2
15:13:52:965998,3,-11,-8,-8,5,5,17,-2
15:13:52:966724,0,5,17,-16,-12,-13,-9,3
15:13:52:972773,-13,-4,-21,-22,-17,0,32,12
15:13:52:980943,-13,-4,-21,-22,-17,0,32,12
15:13:52:981768,-3,28,41,37,29,29,11,7
15:13:52:987690,-1,0,1,5,6,-14,-26,-13
15:13:53:3507,-1,0,1,5,6,-14,-26,-13
15:13:53:4218,5,17,-14,-19,2,12,-4,-22
15:13:53:10228,0,7,11,68,5,-5,-17,-20
15:13:53:25988,0,7,11,68,5,-5,-17,-20
15:13:53:26737,5,-18,16,-5,-6,-15,-23,9
15:13:53:32723,6,-4,-10,-37,-43,-11,2,-8
15:13:53:40991,6,-4,-10,-37,-43,-11,2,-8
15:13:53:41743,3,-8,-6,-9,-3,0,-14,16
15:13:53:47723,5,9,37,-32,-12,-7,7,29
15:13:53:63457,5,9,37,-32,-12,-7,7,29
15:13:53:64242,14,-2,-1,-11,-6,-9,-38,1
15:13:53:70243,27,13,-1,33,71,10,25,-5
15:13:53:85919,27,13,-1,33,71,10,25,-5
15:13:53:86760,3,-4,-2,14,-18,-7,29,11
15:13:53:92699,-15,-15,-5,-19,-8,-9,4,-1
15:13:53:100925,-15,-15,-5,-19,-8,-9,4,-1
15:13:53:101708,-8,-10,4,23,-9,-9,-9,-20
15:13:53:107737,-5,-21,-14,-16,-3,7,-36,-21
15:13:53:123459,-5,-21,-14,-16,-3,7,-36,-21
15:13:53:124223,0,0,-16,-43,-35,-10,74,17
15:13:53:130214,1,-11,-28,-74,-12,3,6,3
15:13:53:138421,1,-11,-28,-74,-12,3,6,3
15:13:53:139221,7,10,31,-7,22,8,-18,-2
15:13:53:152800,6,6,-18,-66,-6,-18,-7,1
15:13:53:160941,6,6,-18,-66,-6,-18,-7,1
15:13:53:161741,-2,12,25,23,65,17,-22,-3
15:13:53:175292,-8,8,23,10,-32,-15,-14,-11
15:13:53:183393,-8,8,23,10,-32,-15,-14,-11
15:13:53:184196,-1,-7,13,10,-3,4,-11,-5
15:13:53:190235,-9,6,-3,12,-2,-6,-10,-13
15:13:53:197794,-9,6,-3,12,-2,-6,-10,-13
15:13:53:205219,-28,-9,-13,4,42,28,7,8
15:13:53:212712,9,9,-22,-14,-50,-10,-5,17
15:13:53:220946,9,9,-22,-14,-50,-10,-5,17
15:13:53:221771,6,11,5,-48,5,9,11,-12
15:13:53:244100,-8,-13,-7,74,16,-1,-31,-11
15:13:53:244909,-8,-13,-7,74,16,-1,-31,-11
15:13:53:245671,2,-13,-10,2,-11,20,13,14
15:13:53:250261,-3,-12,16,-7,4,2,1,-4
15:13:53:258022,-3,-12,16,-7,4,2,1,-4
15:13:53:265233,8,11,-4,9,0,-15,-8,20
15:13:53:272742,-11,-14,4,29,13,10,3,-9
15:13:53:280928,-11,-14,4,29,13,10,3,-9
15:13:53:281763,-4,-6,-3,-52,-87,-42,-16,-5
15:13:53:295274,4,11,1,-29,41,66,-1,11
15:13:53:303499,4,11,1,-29,41,66,-1,11
15:13:53:304298,-7,3,8,29,13,-9,-17,-20
15:13:53:310196,3,4,-42,-6,-33,-28,29,-1
15:13:53:317753,3,4,-42,-6,-33,-28,29,-1
15:13:53:325273,-1,-8,11,21,27,6,-18,-10
15:13:53:332769,10,3,-3,-11,23,-14,-54,-18
15:13:53:340971,10,3,-3,-11,23,-14,-54,-18
15:13:53:341733,0,-8,-8,16,-6,-11,5,-19
15:13:53:355197,17,12,13,-17,-20,0,31,34
15:13:53:363466,17,12,13,-17,-20,0,31,34
15:13:53:364264,0,-19,-34,10,52,58,2,-4
15:13:53:370232,-19,-18,9,30,15,-1,-21,-7
15:13:53:377822,-19,-18,9,30,15,-1,-21,-7
15:13:53:385223,-2,3,-5,13,4,-13,-12,3
15:13:53:392766,-9,-18,3,38,-12,-11,-15,-17
15:13:53:400936,-9,-18,3,38,-12,-11,-15,-17
15:13:53:401736,3,-3,-6,1,-4,-8,24,-8
15:13:53:415235,-9,-2,-5,-12,22,-5,8,8
15:13:53:423546,-9,-2,-5,-12,22,-5,8,8
15:13:53:424319,-19,-2,-27,-28,-14,-26,-42,-18
15:13:53:430233,-7,5,-7,22,42,29,-7,-5
15:13:53:437792,-7,5,-7,22,42,29,-7,-5
15:13:53:445249,5,-7,-23,-27,-20,-42,-13,2
15:13:53:452803,2,3,-5,18,44,14,16,-1
15:13:53:460923,2,3,-5,18,44,14,16,-1
15:13:53:461718,3,12,25,0,-33,-37,-57,-10
15:13:53:475289,9,16,19,-3,6,30,50,28
15:13:53:483474,9,16,19,-3,6,30,50,28
15:13:53:484296,0,-4,9,-23,-42,-30,-13,-13
15:13:53:490261,19,3,9,25,16,18,7,3
15:13:53:497748,19,3,9,25,16,18,7,3
15:13:53:505281,-5,-8,9,21,-2,11,36,17
15:13:53:512749,-11,-20,-13,-16,12,-23,0,-10
15:13:53:520958,-11,-20,-13,-16,12,-23,0,-10
15:13:53:521740,0,3,-44,-6,3,8,10,2
15:13:53:535208,-9,-1,-5,-26,-36,-43,-54,-35
15:13:53:543424,-9,-1,-5,-26,-36,-43,-54,-35
15:13:53:544208,-1,4,15,23,14,21,-25,10
15:13:53:550264,2,-3,-29,10,-38,-10,24,-11
15:13:53:557840,2,-3,-29,10,-38,-10,24,-11
15:13:53:565208,15,-9,-6,-58,-36,-19,-8,-13
15:13:53:572710,10,20,47,-18,58,39,21,-3
15:13:53:580935,10,20,47,-18,58,39,21,-3
15:13:53:581743,5,5,-8,23,29,-4,53,22
15:13:53:595257,-6,6,-22,-16,-35,-27,0,5
15:13:53:603163,-6,6,-22,-16,-35,-27,0,5
15:13:53:610884,-8,11,-5,24,30,24,78,8
15:13:53:611687,3,0,2,16,-38,2,0,8
15:13:53:617775,3,0,2,16,-38,2,0,8
15:13:53:625240,-1,4,16,4,-5,10,-70,-27
15:13:53:632744,-9,2,5,-24,-27,-10,20,0
15:13:53:640986,-9,2,5,-24,-27,-10,20,0
15:13:53:641724,6,3,-8,-9,37,36,3,16
15:13:53:655201,-1,-6,-22,17,-26,-7,-9,21
15:13:53:663471,-1,-6,-22,17,-26,-7,-9,21
15:13:53:664230,-6,1,6,-14,3,-14,-11,-3
15:13:53:670198,-6,-15,11,-31,-29,-19,-8,-3
15:13:53:677804,-6,-15,11,-31,-29,-19,-8,-3
15:13:53:685254,0,-5,10,9,-3,14,-9,-25
15:13:53:692734,24,-4,23,13,23,14,35,3
15:13:53:700926,24,-4,23,13,23,14,35,3
15:13:53:701774,-10,0,21,-15,-9,-1,-20,-15
15:13:53:715236,-14,-3,-2,-12,-16,-7,9,11
15:13:53:723449,-14,-3,-2,-12,-16,-7,9,11
15:13:53:724221,-2,-16,-11,-15,-33,-13,11,-3
15:13:53:730209,-5,9,-6,15,35,4,-50,-23
15:13:53:737775,-5,9,-6,15,35,4,-50,-23
15:13:53:745238,-6,3,12,22,9,-22,-42,-3
15:13:53:752717,-8,-3,-6,1,-8,-40,-4,4
15:13:53:760924,-8,-3,-6,1,-8,-40,-4,4
15:13:53:761706,21,3,11,13,0,-3,13,4
15:13:53:775273,-24,-11,-13,-10,19,10,-9,7
15:13:53:783375,-24,-11,-13,-10,19,10,-9,7
15:13:53:784153,-4,9,-2,-48,15,1,14,0
15:13:53:790274,7,-5,-4,-5,38,27,-5,-4
15:13:53:797734,7,-5,-4,-5,38,27,-5,-4
15:13:53:805259,-8,-5,-1,23,10,-2,-23,-5
15:13:53:812738,0,3,-5,6,-8,-15,-1,-1
15:13:53:820899,0,3,-5,6,-8,-15,-1,-1
15:13:53:821713,3,1,-23,-61,-44,-6,2,5
15:13:53:835212,3,1,24,29,4,4,-28,-13
15:13:53:843452,3,1,24,29,4,4,-28,-13
15:13:53:844238,-8,-2,-13,0,4,10,30,25
15:13:53:850227,-1,6,11,18,16,52,47,60
15:13:53:857785,-1,6,11,18,16,52,47,60
15:13:53:865194,-16,8,5,43,18,-12,-16,-6
15:13:53:872750,-2,-3,9,52,9,-16,-22,-9
15:13:53:880899,-2,-3,9,52,9,-16,-22,-9
15:13:53:881747,0,-1,4,-20,4,10,13,0
15:13:53:895240,-9,-7,-25,-32,-11,-9,-25,-18
15:13:53:903471,-9,-7,-25,-32,-11,-9,-25,-18
15:13:53:904204,10,-7,-14,19,-10,5,43,15
15:13:53:910193,-15,-2,-35,-9,-1,27,102,29
15:13:53:917756,-15,-2,-35,-9,-1,27,102,29
15:13:53:925228,8,0,4,-24,-26,-19,-19,-3
15:13:53:932736,1,0,-14,-25,-6,9,1,-17
15:13:53:940952,1,0,-14,-25,-6,9,1,-17
15:13:53:941724,-1,-1,12,56,36,24,7,-2
15:13:53:955184,-3,0,4,15,-9,-26,-87,-53
15:13:53:963423,-3,0,4,15,-9,-26,-87,-53
15:13:53:964232,1,-6,6,-4,-1,-9,-12,-3
15:13:53:970200,13,16,55,2,12,5,-2,25
15:13:53:977778,13,16,55,2,12,5,-2,25
15:13:53:985202,-13,8,-20,-13,-11,-2,-3,-4
15:13:53:992775,15,-6,16,-25,-40,-30,-15,-6
15:13:54:914,15,-6,16,-25,-40,-30,-15,-6
15:13:54:1755,7,-3,3,-8,51,33,4,3
15:13:54:15214,-7,-24,-26,-85,11,-30,-34,-20
15:13:54:23476,-7,-24,-26,-85,11,-30,-34,-20
15:13:54:24298,-1,-3,14,-2,-18,-18,-3,-8
15:13:54:30202,-6,2,-4,-6,-39,-11,-6,19
15:13:54:37779,-6,2,-4,-6,-39,-11,-6,19
15:13:54:45238,-5,-15,0,-16,9,0,-1,0
15:13:54:52748,5,-5,-20,-29,-12,5,10,-8
15:13:54:60914,5,-5,-20,-29,-12,5,10,-8
15:13:54:61724,-5,-2,16,30,-11,6,-3,11
15:13:54:75241,-5,0,-2,3,-33,-9,-48,1
15:13:54:83379,-5,0,-2,3,-33,-9,-48,1
15:13:54:84169,20,6,-10,23,-10,15,28,7
15:13:54:90241,-2,3,-5,9,26,-14,-6,-17
15:13:54:97742,-2,3,-5,9,26,-14,-6,-17
15:13:54:105241,-12,-9,-3,-3,-15,-20,-25,-13
15:13:54:112728,-7,1,4,4,-35,3,33,4
15:13:54:120268,-7,1,4,4,-35,3,33,4
15:13:54:127708,-1,-6,-5,-19,-7,5,-3,10
15:13:54:135180,11,6,19,27,43,12,11,0
15:13:54:143450,11,6,19,27,43,12,11,0
15:13:54:144208,-7,-8,-18,-17,18,-21,-69,-30
15:13:54:158488,-9,7,-2,32,14,8,53,-8
15:13:54:159257,-9,7,-2,32,14,8,53,-8
15:13:54:165256,-4,16,21,6,-21,-12,21,-30
15:13:54:172724,-13,-6,7,-5,21,14,9,-40
15:13:54:180300,-13,-6,7,-5,21,14,9,-40
15:13:54:187761,9,-10,4,-1,-6,-4,-8,15
15:13:54:195181,-8,-11,0,13,-8,-4,-1,20
15:13:54:203507,-8,-11,0,13,-8,-4,-1,20
15:13:54:204240,-6,7,8,21,-29,-3,14,-13
15:13:54:218418,-1,-13,-10,10,-17,14,27,4
15:13:54:219232,-1,-13,-10,10,-17,14,27,4
15:13:54:225220,4,-1,-10,-3,2,5,-16,-5
15:13:54:232704,21,5,10,-3,2,17,26,5
15:13:54:240306,21,5,10,-3,2,17,26,5
15:13:54:247714,-30,-17,1,-15,-1,-6,10,-32
15:13:54:255205,-5,3,-36,38,17,0,6,5
15:13:54:263471,-5,3,-36,38,17,0,6,5
15:13:54:264270,7,6,-16,-17,28,18,-8,15
15:13:54:278394,10,2,8,-58,-15,-16,-8,1
15:13:54:279224,10,2,8,-58,-15,-16,-8,1
15:13:54:285185,2,6,-11,5,-8,15,40,20
15:13:54:292739,6,12,-9,-34,-16,-9,-35,3
15:13:54:300273,6,12,-9,-34,-16,-9,-35,3
15:13:54:307738,-8,-17,-15,1,17,-14,-75,-17
15:13:54:315203,4,0,14,-39,-11,-12,-1,4
15:13:54:323454,4,0,14,-39,-11,-12,-1,4
15:13:54:324232,8,5,16,26,23,1,1,5
15:13:54:338359,-11,-4,18,13,19,-1,-13,-9
15:13:54:339211,-11,-4,18,13,19,-1,-13,-9
15:13:54:345249,-1,8,-1,-23,29,28,21,5
15:13:54:352736,-2,8,4,-10,0,-14,6,4
15:13:54:360254,-2,8,4,-10,0,-14,6,4
15:13:54:367740,-13,2,23,-1,-29,-20,37,17
15:13:54:375272,1,-1,10,-29,9,9,-3,1
15:13:54:383417,1,-1,10,-29,9,9,-3,1
15:13:54:384207,5,1,-35,-1,-14,2,31,28
15:13:54:398413,-5,0,23,14,-5,2,-2,-3
15:13:54:399244,-5,0,23,14,-5,2,-2,-3
15:13:54:405206,-24,-6,-15,-19,3,-12,-60,-42
15:13:54:412689,7,2,-14,30,0,10,43,9
15:13:54:420300,7,2,-14,30,0,10,43,9
15:13:54:427742,1,-1,4,18,0,13,6,-7
15:13:54:435187,4,5,33,34,-11,-8,11,-2
15:13:54:443448,4,5,33,34,-11,-8,11,-2
15:13:54:444254,9,-6,18,34,-4,-6,17,7
15:13:54:458437,7,-1,-18,15,-16,-6,-36,-5
15:13:54:459246,7,-1,-18,15,-16,-6,-36,-5
15:13:54:465234,3,-9,-11,-16,-1,-16,-5,-6
15:13:54:472760,-11,-15,10,21,14,-16,-76,-19
15:13:54:480295,-11,-15,10,21,14,-16,-76,-19
15:13:54:487769,6,16,19,-26,-6,8,27,3
15:13:54:495177,-4,4,-19,24,19,-9,-6,-5
15:13:54:503504,-4,4,-19,24,19,-9,-6,-5
15:13:54:504271,15,-16,-20,21,1,17,75,49
15:13:54:518418,2,-4,-6,-23,-24,-7,-6,-1
15:13:54:519282,2,-4,-6,-23,-24,-7,-6,-1
15:13:54:525271,7,12,29,23,23,18,-43,-6
15:13:54:532730,6,-5,-19,-26,5,19,24,8
15:13:54:540313,6,-5,-19,-26,5,19,24,8
15:13:54:547716,-3,-5,16,23,17,-3,3,-4
15:13:54:555255,-1,-6,-44,69,33,-2,-13,-4
15:13:54:563376,-1,-6,-44,69,33,-2,-13,-4
15:13:54:564166,-1,5,8,-48,-29,-19,-38,-7
15:13:54:578430,-3,7,3,-41,-20,-12,8,2
15:13:54:579259,-3,7,3,-41,-20,-12,8,2
15:13:54:585204,-7,3,-67,-4,18,4,0,-6
15:13:54:592758,2,1,-15,-19,11,23,14,3
15:13:54:600282,2,1,-15,-19,11,23,14,3
15:13:54:607755,7,28,-26,-48,-35,-13,-2,-4
15:13:54:615219,-2,9,-28,-62,-21,-11,-33,-10
15:13:54:630958,-2,9,-28,-62,-21,-11,-33,-10
15:13:54:631729,0,-10,-9,-15,-6,15,25,10
15:13:54:638391,-7,-11,11,5,-1,0,1,-4
15:13:54:639243,-7,-11,11,5,-1,0,1,-4
15:13:54:645273,-5,-7,-62,-2,-9,-5,39,4
15:13:54:652745,-13,-1,11,11,-12,10,-1,-3
15:13:54:660245,-13,-1,11,11,-12,10,-1,-3
15:13:54:667690,1,-8,30,29,5,-14,-50,-9
15:13:54:675203,11,-10,-11,-6,9,10,81,23
15:13:54:683449,11,-10,-11,-6,9,10,81,23
15:13:54:684202,1,1,14,-48,-16,-3,8,16
15:13:54:698423,1,0,-19,-31,-21,-13,-22,-4
15:13:54:699218,1,0,-19,-31,-21,-13,-22,-4
15:13:54:705216,-1,-4,26,6,21,-14,-56,-23
15:13:54:712674,3,3,-3,-15,-14,-10,-2,4
15:13:54:720309,3,3,-3,-15,-14,-10,-2,4
15:13:54:727686,-2,33,40,37,21,27,-40,-11
15:13:54:735175,-12,0,31,-2,28,12,-11,-21
15:13:54:743410,-12,0,31,-2,28,12,-11,-21
15:13:54:744251,-18,6,19,12,-1,-24,-26,-28
15:13:54:758483,-3,-16,2,-4,-5,4,0,4
15:13:54:759291,-3,-16,2,-4,-5,4,0,4
15:13:54:765190,8,-4,11,43,-25,-8,1,2
15:13:54:772721,-1,26,22,-7,-4,2,-10,1
15:13:54:780286,-1,26,22,-7,-4,2,-10,1
15:13:54:787750,-10,-21,-47,-34,-16,-6,0,-3
15:13:54:795177,-2,3,28,5,-9,-3,-40,-9
15:13:54:803473,-2,3,28,5,-9,-3,-40,-9
15:13:54:804283,3,-1,25,7,0,17,64,10
15:13:54:818418,0,-16,-44,-8,17,5,30,20
15:13:54:819255,0,-16,-44,-8,17,5,30,20
15:13:54:825219,-5,-25,-19,-3,3,-7,16,6
15:13:54:832713,-2,-19,19,108,48,7,-22,-10
15:13:54:840308,-2,-19,19,108,48,7,-22,-10
15:13:54:847763,2,7,13,14,-12,-10,-12,-11
15:13:54:855278,-4,-12,-11,-19,-16,-6,-13,2
15:13:54:863411,-4,-12,-11,-19,-16,-6,-13,2
15:13:54:864177,0,-28,23,-30,-14,4,1,-5
15:13:54:886654,-17,9,30,-3,-10,3,27,-6
15:13:54:887429,-17,9,30,-3,-10,3,27,-6
15:13:54:888213,4,11,-20,-7,-12,-22,-56,-1
15:13:54:892723,5,23,8,-40,-5,-2,10,-1
15:13:54:900258,5,23,8,-40,-5,-2,10,-1
15:13:54:907753,-6,-23,10,11,10,-10,-19,-8
15:13:54:915210,14,10,-11,10,21,18,27,12
15:13:54:923472,14,10,-11,10,21,18,27,12
15:13:54:924256,-1,-14,-4,-58,2,2,-20,6
15:13:54:938447,-12,-24,11,9,-26,-18,-40,-5
15:13:54:939310,-12,-24,11,9,-26,-18,-40,-5
15:13:54:945225,-4,-17,-28,2,6,7,10,6
15:13:54:952735,1,-4,-9,18,5,19,61,25
15:13:54:960312,1,-4,-9,18,5,19,61,25
15:13:54:967732,6,13,-40,-39,-24,14,88,19
15:13:54:975265,5,4,54,10,-22,-3,-26,-9
15:13:54:983401,5,4,54,10,-22,-3,-26,-9
15:13:54:984219,-3,0,-13,17,19,4,-2,-8
15:13:54:998408,-4,-2,-21,-23,-12,-1,3,-8
15:13:54:999204,-4,-2,-21,-23,-12,-1,3,-8
15:13:55:5215,0,-7,-67,13,14,-6,32,1
15:13:55:12715,8,3,-18,20,17,-7,27,12
15:13:55:20276,8,3,-18,20,17,-7,27,12
15:13:55:27719,4,16,58,39,4,9,-2,-1
15:13:55:35232,-5,-28,18,90,61,1,-37,-25
15:13:55:43414,-5,-28,18,90,61,1,-37,-25
15:13:55:44212,-4,3,-13,-6,-16,-3,-20,-4
15:13:55:58453,0,11,9,-56,-35,-9,-26,-3
15:13:55:59200,0,11,9,-56,-35,-9,-26,-3
15:13:55:65184,-10,3,2,32,14,-11,-89,-15
15:13:55:80882,0,40,4,-6,-3,3,98,29
15:13:55:81687,0,40,4,-6,-3,3,98,29
15:13:55:87729,-13,-16,1,-47,-33,-19,-19,-54
15:13:55:95202,-9,-21,-59,33,19,-4,-46,-7
15:13:55:102793,-9,-21,-59,33,19,-4,-46,-7
15:13:55:110174,-4,-14,47,-51,-7,-9,1,9
15:13:55:118401,-5,-1,-1,-20,-6,-12,-24,-3
15:13:55:119205,-5,-1,-1,-20,-6,-12,-24,-3
15:13:55:125205,8,23,-24,-11,-14,-9,4,11
15:13:55:140961,2,-11,-22,-28,-11,2,11,0
15:13:55:141710,2,-11,-22,-28,-11,2,11,0
15:13:55:147690,3,9,-3,10,17,16,73,14
15:13:55:155175,-1,-4,-13,-1,-20,-19,-50,-9
15:13:55:162745,-1,-4,-13,-1,-20,-19,-50,-9
15:13:55:170263,0,-4,42,53,22,0,3,4
15:13:55:178393,-20,-27,20,-52,-16,-16,-7,-35
15:13:55:179236,-20,-27,20,-52,-16,-16,-7,-35
15:13:55:185198,34,22,-7,27,-25,14,84,69
15:13:55:200902,-4,-6,-39,26,-9,-10,-68,-9
15:13:55:201708,-4,-6,-39,26,-9,-10,-68,-9
15:13:55:207713,-10,-20,5,-18,44,17,-33,-21
15:13:55:215259,6,17,23,15,15,7,0,-8
15:13:55:222800,6,17,23,15,15,7,0,-8
15:13:55:230176,-3,24,17,-10,-15,-7,-25,-3
15:13:55:238448,8,-19,-11,-109,-32,-11,-10,1
15:13:55:239245,8,-19,-11,-109,-32,-11,-10,1
15:13:55:245207,-9,-49,-80,-17,-1,-7,-25,-12
15:13:55:260942,-11,2,-19,-2,-53,-7,8,26
15:13:55:261744,-11,2,-19,-2,-53,-7,8,26
15:13:55:267674,-3,7,9,19,-2,8,-44,-6
15:13:55:275178,13,9,-14,-2,-2,4,-23,-2
15:13:55:282812,13,9,-14,-2,-2,4,-23,-2
15:13:55:290236,-9,0,3,-1,-24,-10,-20,-5
15:13:55:298381,2,14,28,57,53,13,30,11
15:13:55:299228,2,14,28,57,53,13,30,11
15:13:55:305217,4,12,4,-28,-6,-7,1,-5
15:13:55:320912,-2,25,-1,6,13,5,22,-5
15:13:55:321671,-2,25,-1,6,13,5,22,-5
15:13:55:327716,13,44,55,-12,27,28,93,25
15:13:55:335200,8,-13,-17,16,7,7,62,16
15:13:55:342741,8,-13,-17,16,7,7,62,16
15:13:55:350223,-8,-2,10,38,11,-7,-20,-12
15:13:55:358402,12,43,-11,-10,9,14,-7,-5
15:13:55:359236,12,43,-11,-10,9,14,-7,-5
15:13:55:365221,-1,-7,4,55,-3,-13,-15,-9
15:13:55:380883,4,13,21,11,-6,-2,-16,-4
15:13:55:381705,4,13,21,11,-6,-2,-16,-4
15:13:55:387732,-5,-33,1,-18,-1,1,-23,-7
15:13:55:395234,-1,-4,52,21,-15,-17,34,5
15:13:55:402781,-1,-4,52,21,-15,-17,34,5
15:13:55:410169,0,24,-41,6,12,2,54,8
15:13:55:418410,-1,-1,-10,-39,10,8,-4,-6
15:13:55:419252,-1,-1,-10,-39,10,8,-4,-6
15:13:55:425263,0,17,-4,55,17,2,-22,-5
15:13:55:440984,-15,-12,5,-18,-10,-8,-17,-8
15:13:55:441775,-15,-12,5,-18,-10,-8,-17,-8
15:13:55:447680,-1,8,-35,-60,-37,-18,-56,-15
15:13:55:455202,-1,-16,39,25,0,-3,53,12
15:13:55:462738,-1,-16,39,25,0,-3,53,12
15:13:55:470221,-4,-15,-29,-7,24,17,-14,-9
15:13:55:478443,-28,-18,-24,10,-9,5,21,10
15:13:55:479233,-28,-18,-24,10,-9,5,21,10
15:13:55:485169,2,-16,16,47,18,9,12,6
15:13:55:500899,0,-4,-47,23,-13,-18,-48,-12
15:13:55:501762,0,-4,-47,23,-13,-18,-48,-12
15:13:55:507759,-11,-30,3,-11,-16,-8,-19,-5
15:13:55:515202,-5,-28,-85,-42,4,-5,-88,-4
15:13:55:522825,-5,-28,-85,-42,4,-5,-88,-4
15:13:55:530213,-2,-6,-7,-34,-28,-6,0,-6
15:13:55:538426,-2,-9,-9,-9,1,3,-42,-26
15:13:55:539309,-2,-9,-9,-9,1,3,-42,-26
15:13:55:545193,-6,15,-11,-21,-23,-11,-25,11
15:13:55:560965,-2,-3,29,64,31,1,21,0
15:13:55:561743,-2,-3,29,64,31,1,21,0
15:13:55:567729,7,8,86,17,23,16,-3,-21
15:13:55:575212,10,14,-4,2,-8,3,35,9
15:13:55:582807,10,14,-4,2,-8,3,35,9
15:13:55:590276,-6,-4,48,16,-4,-6,6,-1
15:13:55:598395,3,10,46,-13,-23,-9,-31,-12
15:13:55:599242,3,10,46,-13,-23,-9,-31,-12
15:13:55:605214,4,6,39,-5,3,6,65,21
15:13:55:620918,-3,7,24,-12,-6,-1,-4,-6
15:13:55:621708,-3,7,24,-12,-6,-1,-4,-6
15:13:55:627759,-2,-16,-16,8,9,6,-32,-1
15:13:55:635216,-5,-24,0,26,22,6,16,4
15:13:55:642770,-5,-24,0,26,22,6,16,4
15:13:55:650243,2,-20,-34,4,6,-7,-18,-4
15:13:55:658448,3,-1,-20,-47,-13,-5,-13,-6
15:13:55:659247,3,-1,-20,-47,-13,-5,-13,-6
15:13:55:673024,8,40,-8,-30,-19,4,26,10
15:13:55:680884,-3,-7,11,14,-5,-2,13,12
15:13:55:681692,-3,-7,11,14,-5,-2,13,12
15:13:55:687734,4,-2,-11,-4,26,-2,-21,-3
15:13:55:695206,9,9,18,-8,9,38,0,2
15:13:55:702830,9,9,18,-8,9,38,0,2
15:13:55:710212,-5,19,8,-2,-28,-15,-13,-5
15:13:55:718432,1,-20,-7,-48,-26,-18,-22,-8
15:13:55:719240,1,-20,-7,-48,-26,-18,-22,-8
15:13:55:725202,-1,9,22,37,13,-1,6,4
15:13:55:740939,-4,4,-18,-16,-19,-11,12,-5
15:13:55:741768,-4,4,-18,-16,-19,-11,12,-5
15:13:55:747709,8,-5,-18,-12,-5,-4,6,1
15:13:55:755187,5,16,28,30,27,9,46,10
15:13:55:762753,5,16,28,30,27,9,46,10
15:13:55:770269,-7,-33,-71,-12,-10,-11,-14,-6
15:13:55:778421,-2,-6,12,-6,12,5,1,5
15:13:55:779210,-2,-6,12,-6,12,5,1,5
15:13:55:785182,-4,-3,3,-46,-10,-9,-12,-12
15:13:55:800923,-3,-1,-2,-11,8,-6,-21,-8
15:13:55:801733,-3,-1,-2,-11,8,-6,-21,-8
15:13:55:807744,-16,-25,18,-45,0,-1,-21,-11
15:13:55:815186,1,30,38,16,22,-4,-5,-2
15:13:55:822811,1,30,38,16,22,-4,-5,-2
15:13:55:830201,4,14,1,-7,0,-5,-4,8
15:13:55:846591,-2,-11,-26,-27,-26,-13,21,0
15:13:55:847411,-2,-11,-26,-27,-26,-13,21,0
15:13:55:848207,-4,31,7,22,7,2,2,-10
15:13:55:860949,-4,31,7,22,7,2,2,-10
15:13:55:861742,6,-9,2,-64,-43,-7,-11,-2
15:13:55:867698,-6,-16,3,30,7,21,2,4
15:13:55:883418,-6,-16,3,30,7,21,2,4
15:13:55:884191,17,29,-5,17,19,21,75,27
15:13:55:890215,3,-5,3,-7,-14,-11,-1,-5
15:13:55:898411,3,-5,3,-7,-14,-11,-1,-5
15:13:55:899242,-2,-11,-30,7,12,-8,-24,-9
15:13:55:905166,7,14,20,-35,-6,4,21,6
15:13:55:920920,7,14,20,-35,-6,4,21,6
15:13:55:921719,-10,-17,-4,-35,-14,-11,-56,-14
15:13:55:927728,-1,-6,-39,-39,-33,-4,31,8
15:13:55:943457,-1,-6,-39,-39,-33,-4,31,8
15:13:55:944248,-5,-19,3,-13,2,14,-27,7
15:13:55:950271,-2,-14,7,49,13,-10,-8,-2
15:13:55:958494,-2,-14,7,49,13,-10,-8,-2
15:13:55:959197,-18,-16,35,33,34,11,-11,-16
15:13:55:965205,2,10,-2,-5,-21,-8,30,19
15:13:55:980937,2,10,-2,-5,-21,-8,30,19
15:13:55:981710,7,31,3,38,21,2,17,-2
15:13:55:995214,-1,-19,-42,10,9,-3,-36,-7
15:13:56:3494,-1,-19,-42,10,9,-3,-36,-7
15:13:56:4259,-6,-2,2,28,-15,-6,12,3
15:13:56:10237,1,4,-6,-4,1,3,7,-4
15:13:56:18423,1,4,-6,-4,1,3,7,-4
15:13:56:19192,8,-3,-24,-32,9,8,25,4
15:13:56:32740,-5,-19,9,5,19,1,-29,-10
15:13:56:41005,-5,-19,9,5,19,1,-29,-10
15:13:56:41767,11,-8,-10,-16,-18,-5,24,11
15:13:56:47765,-6,-17,-12,-19,-2,23,83,24
15:13:56:63466,-6,-17,-12,-19,-2,23,83,24
15:13:56:64286,9,22,-25,-54,-21,-8,-29,-9
15:13:56:70248,-5,-11,-4,31,-31,-11,1,-2
15:13:56:78410,-5,-11,-4,31,-31,-11,1,-2
15:13:56:79209,-8,-11,0,-1,-15,-4,-2,-3
15:13:56:92804,-4,8,22,-29,0,-4,-23,-9
15:13:56:100928,-4,8,22,-29,0,-4,-23,-9
15:13:56:101733,-8,-32,-21,14,5,-8,-16,-10
15:13:56:107792,7,-15,-11,11,7,3,6,14
15:13:56:123467,7,-15,-11,11,7,3,6,14
15:13:56:124290,-7,5,-19,12,15,5,17,5
15:13:56:130238,-7,2,27,-40,-7,-1,14,-5
15:13:56:138496,-7,2,27,-40,-7,-1,14,-5
15:13:56:139263,-2,-2,-29,14,-32,-17,-18,-1
15:13:56:152775,-3,6,3,-39,8,9,-10,-9
15:13:56:169167,-3,6,3,-39,8,9,-10,-9
15:13:56:169881,2,22,54,7,8,2,10,-1
15:13:56:170712,-2,14,-7,16,-11,-6,39,4
15:13:56:183391,-2,14,-7,16,-11,-6,39,4
15:13:56:184185,-2,1,30,1,3,-4,-19,1
15:13:56:190224,-3,1,-37,0,4,-8,-51,-11
15:13:56:198419,-3,1,-37,0,4,-8,-51,-11
15:13:56:199250,13,40,17,13,24,44,95,43
15:13:56:212732,-1,8,-3,-13,-14,-6,-22,3
15:13:56:220929,-1,8,-3,-13,-14,-6,-22,3
15:13:56:221703,-5,-11,19,9,24,-3,-70,-25
15:13:56:227702,9,3,61,19,5,4,4,-4
15:13:56:243420,9,3,61,19,5,4,4,-4
15:13:56:244230,5,-6,-23,-35,-33,-16,-24,-10
15:13:56:250242,0,-9,-42,-6,-13,-12,-27,-14
15:13:56:258468,0,-9,-42,-6,-13,-12,-27,-14
15:13:56:259224,-12,-7,1,19,-4,-7,-1,-6
15:13:56:272799,-7,0,-7,22,16,4,26,7
15:13:56:280912,-7,0,-7,22,16,4,26,7
15:13:56:281714,2,-11,4,-15,7,3,41,34
15:13:56:287754,-20,9,1,25,27,3,-21,-14
15:13:56:303505,-20,9,1,25,27,3,-21,-14
15:13:56:304277,4,-6,6,40,-6,-2,-24,-14
15:13:56:310237,-2,-7,-25,-14,-16,-7,15,4
15:13:56:318375,-2,-7,-25,-14,-16,-7,15,4
15:13:56:319211,3,-5,-14,10,39,15,-8,2
15:13:56:332720,-7,-3,11,55,21,1,-16,-11
15:13:56:341002,-7,-3,11,55,21,1,-16,-11
15:13:56:341777,-7,-2,-9,-36,-12,-13,-3,-9
15:13:56:347787,25,0,0,3,4,0,5,-1
15:13:56:363477,25,0,0,3,4,0,5,-1
15:13:56:364256,9,7,11,18,-7,-4,-14,-1
15:13:56:370227,-38,-16,2,-28,-15,-8,-38,3
15:13:56:378429,-38,-16,2,-28,-15,-8,-38,3
15:13:56:379202,42,-11,15,-9,10,0,4,4
15:13:56:401561,10,-18,-3,6,-25,-16,-31,-7
15:13:56:402409,10,-18,-3,6,-25,-16,-31,-7
15:13:56:403200,21,30,-2,94,-24,0,-14,-4
15:13:56:407701,7,7,11,15,50,29,12,-4
15:13:56:423518,7,7,11,15,50,29,12,-4
15:13:56:424229,2,9,-15,-40,-16,-9,-1,-14
15:13:56:430171,2,26,-5,-52,-44,-15,4,4
15:13:56:438414,2,26,-5,-52,-44,-15,4,4
15:13:56:439225,-37,-27,-5,11,17,32,-10,-15
15:13:56:453140,-5,6,26,-9,9,9,9,0
15:13:56:460944,-5,6,26,-9,9,9,9,0
15:13:56:461709,-13,-3,3,-20,-13,-15,-31,-10
15:13:56:467694,-16,-14,-4,-40,-30,-13,14,11
15:13:56:483406,-16,-14,-4,-40,-30,-13,14,11
15:13:56:484245,-11,-7,0,-1,11,9,10,-4
15:13:56:490239,17,2,-17,-73,-40,-13,-17,-6
15:13:56:498465,17,2,-17,-73,-40,-13,-17,-6
15:13:56:499281,-20,-6,19,-21,-7,-11,0,-4
15:13:56:512739,11,25,4,-16,-24,8,7,2
15:13:56:520911,11,25,4,-16,-24,8,7,2
15:13:56:521705,7,-2,-24,10,45,13,6,-4
15:13:56:527788,11,-8,55,-21,3,-7,6,-3
15:13:56:543417,11,-8,55,-21,3,-7,6,-3
15:13:56:544247,-2,-7,20,16,-25,-18,1,1
15:13:56:550237,-5,-5,-20,41,27,7,-17,-4
15:13:56:558472,-5,-5,-20,41,27,7,-17,-4
15:13:56:559181,28,16,3,4,34,5,-34,-9
15:13:56:572769,21,-18,-18,48,-21,-18,-11,1
15:13:56:580931,21,-18,-18,48,-21,-18,-11,1
15:13:56:581709,-20,-23,-6,10,-32,5,7,0
15:13:56:587790,-6,-12,-15,13,7,-1,-8,-1
15:13:56:603497,-6,-12,-15,13,7,-1,-8,-1
15:13:56:604313,11,-6,-1,11,1,-7,7,3
15:13:56:610255,-5,-57,-25,14,14,-1,11,0
15:13:56:618395,-5,-57,-25,14,14,-1,11,0
15:13:56:619183,0,-30,0,-2,19,5,6,3
15:13:56:632735,5,14,47,58,13,1,2,-2
15:13:56:640936,5,14,47,58,13,1,2,-2
15:13:56:641723,-15,44,-22,30,-11,-13,-7,-2
15:13:56:647681,5,37,-21,-56,11,6,-15,12
15:13:56:663426,5,37,-21,-56,11,6,-15,12
15:13:56:664203,-1,-20,-56,-47,-23,-10,50,12
15:13:56:670194,-38,33,-16,-71,-12,-9,2,-6
15:13:56:678425,-38,33,-16,-71,-12,-9,2,-6
15:13:56:679174,-1,41,5,-37,-6,-7,-21,-7
15:13:56:692717,0,28,-29,-1,19,1,9,0
15:13:56:700947,0,28,-29,-1,19,1,9,0
15:13:56:701721,-30,26,39,35,21,11,8,10
15:13:56:707752,5,-16,-25,-16,-8,-2,-1,-9
15:13:56:731587,5,-16,-25,-16,-8,-2,-1,-9
15:13:56:732370,-15,-8,-8,49,-11,-13,-2,1
15:13:56:733198,-8,-10,54,-6,39,22,-1,-7
15:13:56:738425,-8,-10,54,-6,39,22,-1,-7
15:13:56:739256,33,-8,11,-26,12,-2,18,8
15:13:56:752724,-15,-30,11,22,-17,-7,-4,-6
15:13:56:760944,-15,-30,11,22,-17,-7,-4,-6
15:13:56:761714,-44,-11,7,-3,17,15,25,-2
15:13:56:767687,21,-11,-30,-43,-14,-3,7,1
15:13:56:783376,21,-11,-30,-43,-14,-3,7,1
15:13:56:784175,14,4,-25,-78,-41,-21,-21,-10
15:13:56:790279,-44,-13,15,-1,-15,-1,-4,2
15:13:56:798390,-44,-13,15,-1,-15,-1,-4,2
15:13:56:799217,-15,-25,-1,-60,-46,3,-9,-7
15:13:56:812748,13,9,-10,-4,-6,4,-3,-3
15:13:56:820940,13,9,-10,-4,-6,4,-3,-3
15:13:56:821699,4,3,-6,34,55,32,-2,-2
15:13:56:827706,43,14,4,39,27,3,4,2
15:13:56:843456,43,14,4,39,27,3,4,2
15:13:56:844239,5,-12,7,-43,-35,-24,-13,-3
15:13:56:850229,-1,0,3,40,22,7,-11,-3
15:13:56:859183,-1,0,3,40,22,7,-11,-3
15:13:56:859924,6,4,21,10,6,-16,-4,-3
15:13:56:872765,-15,4,-2,-6,3,-15,-10,-5
15:13:56:880881,-15,4,-2,-6,3,-15,-10,-5
15:13:56:881687,-6,-13,0,8,72,25,12,-1
15:13:56:887767,-43,-5,-31,39,3,-4,10,-2
15:13:56:903495,-43,-5,-31,39,3,-4,10,-2
15:13:56:904273,23,4,-4,20,-15,-20,-11,-5
15:13:56:910213,25,15,33,33,14,7,-10,2
15:13:56:918371,25,15,33,33,14,7,-10,2
15:13:56:919183,-13,0,-1,-31,-50,-16,-7,-5
15:13:56:932763,-36,-9,-19,45,15,9,4,-1
15:13:56:940944,-36,-9,-19,45,15,9,4,-1
15:13:56:941700,21,-9,-4,0,12,5,1,3
15:13:56:955268,7,5,11,-24,-51,-11,9,0
15:13:56:963498,7,5,11,-24,-51,-11,9,0
15:13:56:964252,-36,2,-28,67,-3,18,10,4
15:13:56:970269,-8,11,-11,-54,12,4,4,10
15:13:56:977781,-8,11,-11,-54,12,4,4,10
15:13:56:985223,-5,-22,-19,-30,-9,-10,-17,-6
15:13:56:992726,10,-2,-17,-58,-5,3,14,3
15:13:57:889,10,-2,-17,-58,-5,3,14,3
15:13:57:1707,3,-2,-25,-19,6,-3,-7,3
15:13:57:15253,16,0,-14,28,5,-1,0,1
15:13:57:23511,16,0,-14,28,5,-1,0,1
15:13:57:24276,-21,-5,23,20,-3,13,0,-3
15:13:57:30291,5,-6,10,18,20,6,-11,-2
15:13:57:37734,5,-6,10,18,20,6,-11,-2
15:13:57:45211,19,10,10,3,11,-11,-6,-3
15:13:57:52769,0,-11,19,-58,-22,-9,-1,7
15:13:57:60984,0,-11,19,-58,-22,-9,-1,7
15:13:57:61730,32,8,10,-61,-38,-16,-1,2
15:13:57:84132,-19,-11,36,35,11,6,-25,-14
15:13:57:84922,-19,-11,36,35,11,6,-25,-14
15:13:57:85688,-5,2,7,-4,-34,-16,4,3
15:13:57:90218,-6,-2,-2,17,18,4,7,-2
15:13:57:97758,-6,-2,-2,17,18,4,7,-2
15:13:57:105259,-5,3,9,-5,2,1,-2,-3
15:13:57:112762,-5,1,-13,-56,-22,-5,-6,-2
15:13:57:120907,-5,1,-13,-56,-22,-5,-6,-2
15:13:57:121723,0,-1,-14,-10,-2,-25,-13,-2
15:13:57:135222,-2,11,20,16,-5,0,-5,-5
15:13:57:143439,-2,11,20,16,-5,0,-5,-5
15:13:57:144164,-15,4,27,43,-5,8,1,-5
15:13:57:150199,21,7,6,31,9,5,-4,-4
15:13:57:157775,21,7,6,31,9,5,-4,-4
15:13:57:165156,-16,-4,-17,-25,-30,-17,-3,-1
15:13:57:172819,7,-15,-29,39,38,18,3,7
15:13:57:180889,7,-15,-29,39,38,18,3,7
15:13:57:181709,-4,-16,-19,-9,2,-2,5,0
15:13:57:195283,8,6,-3,-25,-16,-15,-16,-3
15:13:57:203435,8,6,-3,-25,-16,-15,-16,-3
15:13:57:204227,17,14,25,2,9,13,-6,-10
15:13:57:210237,-16,-16,4,23,7,18,31,15
15:13:57:217755,-16,-16,4,23,7,18,31,15
15:13:57:225198,-17,-28,-4,-12,4,-10,-11,0
15:13:57:232746,5,-1,9,26,-26,-14,-6,-6
15:13:57:241006,5,-1,9,26,-26,-14,-6,-6
15:13:57:241775,3,8,-8,46,33,4,16,9
15:13:57:255208,9,2,-31,-21,7,-5,-3,-3
15:13:57:263415,9,2,-31,-21,7,-5,-3,-3
15:13:57:264226,0,3,-26,20,-4,-1,-2,-6
15:13:57:270209,5,1,14,-20,-30,-20,-6,1
15:13:57:277793,5,1,14,-20,-30,-20,-6,1
15:13:57:285198,-1,8,0,1,2,2,-4,-6
15:13:57:301563,-12,-5,9,92,93,45,10,6
15:13:57:302372,-12,-5,9,92,93,45,10,6
15:13:57:303180,-15,-9,-4,-25,-9,3,1,7
15:13:57:315267,-1,-24,-22,-33,-8,-16,-12,-6
15:13:57:323457,-1,-24,-22,-33,-8,-16,-12,-6
15:13:57:324247,8,12,-47,16,15,-6,-100,-23
15:13:57:330188,2,22,-10,-20,-32,-12,5,-5
15:13:57:337840,2,22,-10,-20,-32,-12,5,-5
15:13:57:345208,9,1,-2,0,-11,-2,5,-4
15:13:57:352738,4,7,28,1,-23,4,-6,-5
15:13:57:360957,4,7,28,1,-23,4,-6,-5
15:13:57:361749,-34,-10,50,16,38,-14,9,9
15:13:57:375283,-2,1,-6,-101,-36,-27,11,2
15:13:57:383438,-2,1,-6,-101,-36,-27,11,2
15:13:57:384253,-3,-2,9,7,-8,1,30,7
15:13:57:390206,12,6,3,-17,-15,-6,4,1
15:13:57:397800,12,6,3,-17,-15,-6,4,1
15:13:57:405243,9,0,-12,-7,4,7,10,1
15:13:57:412709,11,0,28,12,0,24,45,12
15:13:57:421005,11,0,28,12,0,24,45,12
15:13:57:421791,14,9,1,38,-3,8,21,5
15:13:57:435194,-2,-20,-77,-22,-15,-23,-41,-24
15:13:57:443522,-2,-20,-77,-22,-15,-23,-41,-24
15:13:57:444275,-9,5,-38,-64,-21,19,70,13
15:13:57:450216,-17,4,18,47,-17,2,16,5
15:13:57:457852,-17,4,18,47,-17,2,16,5
15:13:57:465277,11,1,4,14,4,18,-13,-3
15:13:57:472721,-27,-6,32,-2,13,6,-14,-9
15:13:57:480881,-27,-6,32,-2,13,6,-14,-9
15:13:57:481734,9,5,4,13,5,-4,-28,0
15:13:57:495220,-2,2,-1,2,-16,-9,-9,-3
15:13:57:503458,-2,2,-1,2,-16,-9,-9,-3
15:13:57:504263,-1,-13,-13,19,4,-10,-21,-7
15:13:57:510254,6,12,8,-20,-19,-9,-16,-16
15:13:57:517748,6,12,8,-20,-19,-9,-16,-16
15:13:57:525270,-15,-9,9,-20,-3,4,13,-2
15:13:57:532786,8,-15,19,15,15,15,4,10
15:13:57:540952,8,-15,19,15,15,15,4,10
15:13:57:541701,1,-3,-9,-25,17,8,0,-6
15:13:57:555220,3,13,-13,35,14,24,25,18
15:13:57:563430,3,13,-13,35,14,24,25,18
15:13:57:564223,-8,-15,11,16,-20,-23,-28,-12
15:13:57:570299,39,10,-16,-41,-22,-19,23,7
15:13:57:577763,39,10,-16,-41,-22,-19,23,7
15:13:57:585176,-12,-2,25,1,12,-10,-15,3
15:13:57:592738,-5,-10,-4,-88,-6,-8,-24,0
15:13:57:600954,-5,-10,-4,-88,-6,-8,-24,0
15:13:57:601708,7,-2,-23,-13,69,7,-1,-2
15:13:57:615266,-17,0,-25,-39,-13,-19,-25,-10
15:13:57:623476,-17,0,-25,-39,-13,-19,-25,-10
15:13:57:624282,-4,3,-21,-11,-29,0,3,1
15:13:57:630187,-8,-32,-2,47,29,-2,-20,-2
15:13:57:637806,-8,-32,-2,47,29,-2,-20,-2
15:13:57:645182,36,16,12,0,-5,2,-6,1
15:13:57:652764,10,13,9,12,-19,-17,-14,-3
15:13:57:660948,10,13,9,12,-19,-17,-14,-3
15:13:57:661731,9,-1,28,-34,-19,-18,14,7
15:13:57:675298,-3,-1,-17,29,20,25,7,-2
15:13:57:683414,-3,-1,-17,29,20,25,7,-2
15:13:57:684202,-2,6,-8,7,-23,-12,-6,-7
15:13:57:690242,-7,-4,2,12,28,44,110,44
15:13:57:697760,-7,-4,2,12,28,44,110,44
15:13:57:705309,-35,1,-17,-5,-16,-4,-22,-10
15:13:57:712719,1,-7,38,24,-11,-35,-50,-24
15:13:57:720983,1,-7,38,24,-11,-35,-50,-24
15:13:57:721743,25,-6,0,95,72,51,30,14
15:13:57:735230,-9,10,40,-3,5,3,-5,-9
15:13:57:743483,-9,10,40,-3,5,3,-5,-9
15:13:57:744237,2,-17,42,-29,19,-28,-16,-8
15:13:57:750245,8,4,-18,38,29,1,-6,0
15:13:57:757737,8,4,-18,38,29,1,-6,0
15:13:57:765201,-2,1,0,-8,-26,17,55,7
15:13:57:772780,12,8,6,-78,-30,-10,-19,-5
15:13:57:780888,12,8,6,-78,-30,-10,-19,-5
15:13:57:781706,-2,4,52,50,-4,-16,-48,-1
15:13:57:795211,-15,2,-25,34,16,12,23,-2
15:13:57:803454,-15,2,-25,34,16,12,23,-2
15:13:57:804181,-30,-13,-5,-25,-39,-19,-58,-16
15:13:57:810248,3,-1,12,15,56,36,19,10
15:13:57:817722,3,-1,12,15,56,36,19,10
15:13:57:825152,3,9,-36,-18,-29,-15,-8,-12
15:13:57:832749,-3,-10,-11,-5,-12,-18,-19,-11
15:13:57:840930,-3,-10,-11,-5,-12,-18,-19,-11
15:13:57:841730,5,-3,-2,26,-4,9,15,4
15:13:57:855278,-3,2,-17,26,4,-4,0,-2
15:13:57:863463,-3,2,-17,26,4,-4,0,-2
15:13:57:864215,-41,-7,4,-5,0,-4,-24,-22
15:13:57:870260,-17,-25,-1,15,11,-5,-17,-6
15:13:57:877789,-17,-25,-1,15,11,-5,-17,-6
15:13:57:885170,4,3,-26,-49,-34,-14,1,-5
15:13:57:892740,19,3,-11,-20,-10,15,3,3
15:13:57:900249,19,3,-11,-20,-10,15,3,3
15:13:57:907771,-10,-10,13,0,-7,-2,7,-4
15:13:57:915671,4,-8,-15,-10,-34,-25,-12,-1
15:13:57:923511,4,-8,-15,-10,-34,-25,-12,-1
15:13:57:924248,17,12,14,2,14,22,-9,10
15:13:57:938426,-4,2,-9,-8,-12,-15,-6,-2
15:13:57:939292,-4,2,-9,-8,-12,-15,-6,-2
15:13:57:945196,-4,-1,0,-26,4,12,66,27
15:13:57:952742,-9,-9,-23,-4,-2,-5,-5,-1
15:13:57:960320,-9,-9,-23,-4,-2,-5,-5,-1
15:13:57:967737,16,3,-64,-38,-16,-11,-7,-3
15:13:57:975935,-1,10,2,17,-20,-19,-10,-6
15:13:57:976718,-1,10,2,17,-20,-19,-10,-6
15:13:57:982721,33,13,21,5,22,26,7,3
15:13:57:998419,-8,-22,24,-13,-42,-16,-40,-2
15:13:57:999267,-8,-22,24,-13,-42,-16,-40,-2
15:13:58:5239,1,2,2,64,8,6,8,-1
15:13:58:12710,1,1,-5,-3,-9,17,-3,-4
15:13:58:20310,1,1,-5,-3,-9,17,-3,-4
15:13:58:27722,1,4,0,-30,5,-6,3,-2
15:13:58:35889,-14,-10,-53,-9,11,-23,-30,-13
15:13:58:36710,-14,-10,-53,-9,11,-23,-30,-13
15:13:58:42726,-12,-1,-47,26,1,6,29,9
15:13:58:58456,-7,-14,40,15,5,-3,8,-5
15:13:58:59217,-7,-14,40,15,5,-3,8,-5
15:13:58:65252,7,13,25,-39,26,-11,-8,-6
15:13:58:72743,24,23,10,-60,16,5,16,7
15:13:58:80284,24,23,10,-60,16,5,16,7
15:13:58:87762,6,-20,49,2,-44,-18,-5,-4
15:13:58:95881,3,24,-17,-33,-1,11,-12,-4
15:13:58:96709,3,24,-17,-33,-1,11,-12,-4
15:13:58:102736,-3,-13,8,-18,-6,1,-10,-2
15:13:58:118876,-51,-4,19,27,-3,5,28,13
15:13:58:119718,-51,-4,19,27,-3,5,28,13
15:13:58:125278,-4,-20,-10,6,-5,-17,-21,-4
15:13:58:132752,21,14,-24,-24,-28,-13,5,5
15:13:58:140282,21,14,-24,-24,-28,-13,5,5
15:13:58:147732,-1,7,-3,-11,9,24,9,2
15:13:58:155923,6,3,24,23,23,39,40,11
15:13:58:156738,6,3,24,23,23,39,40,11
15:13:58:162702,-6,3,-3,3,-1,3,13,5
15:13:58:178411,-24,-9,-7,-6,-14,-22,23,7
15:13:58:179211,-24,-9,-7,-6,-14,-22,23,7
15:13:58:185199,0,-18,-38,-4,5,2,8,-3
15:13:58:192723,13,-28,-20,-27,10,-9,-28,-14
15:13:58:200270,13,-28,-20,-27,10,-9,-28,-14
15:13:58:207732,-6,-6,13,-18,-1,-19,-3,1
15:13:58:215928,11,7,-6,-6,14,-2,-11,-5
15:13:58:216729,11,7,-6,-6,14,-2,-11,-5
15:13:58:222729,5,15,15,-24,4,11,23,12
15:13:58:238429,3,5,30,17,6,-8,2,-2
15:13:58:239211,3,5,30,17,6,-8,2,-2
15:13:58:245171,-3,1,10,7,-12,-6,-29,-7
15:13:58:252740,7,2,15,15,5,5,-18,-3
15:13:58:260289,7,2,15,15,5,5,-18,-3
15:13:58:267725,-19,-37,-6,30,2,14,25,3
15:13:58:275959,15,8,-7,-21,-22,-11,-18,-10
15:13:58:276731,15,8,-7,-21,-22,-11,-18,-10
15:13:58:282733,13,11,-16,-8,-1,-4,-13,-2
15:13:58:298462,1,16,24,24,55,25,1,-4
15:13:58:299265,1,16,24,24,55,25,1,-4
15:13:58:305220,0,7,-3,-28,3,4,38,9
15:13:58:312714,10,3,-18,-13,-13,-5,13,4
15:13:58:320218,10,3,-18,-13,-13,-5,13,4
15:13:58:327740,2,-6,-18,45,13,-2,-24,-12
15:13:58:335871,-28,-3,-1,-2,-20,-4,25,-3
15:13:58:336749,-28,-3,-1,-2,-20,-4,25,-3
15:13:58:342741,-7,-4,17,30,2,-2,-19,-2
15:13:58:358418,-5,-15,16,62,28,10,-25,-3
15:13:58:359211,-5,-15,16,62,28,10,-25,-3
15:13:58:365232,3,18,19,-15,-8,5,9,1
15:13:58:372748,6,3,-14,-11,-18,-5,-6,-5
15:13:58:380277,6,3,-14,-11,-18,-5,-6,-5
15:13:58:387762,6,15,11,-28,-40,-12,-5,4
15:13:58:395901,9,2,-7,-18,5,8,4,2
15:13:58:396722,9,2,-7,-18,5,8,4,2
15:13:58:402732,-3,2,6,-21,-15,-24,-38,-5
15:13:58:418371,25,6,-2,2,-4,-6,13,8
15:13:58:419227,25,6,-2,2,-4,-6,13,8
15:13:58:425239,-5,-8,-14,-1,23,-6,35,13
15:13:58:432755,-18,-7,-10,-29,-3,-6,-8,-1
15:13:58:440246,-18,-7,-10,-29,-3,-6,-8,-1
15:13:58:447700,10,11,-5,53,74,2,-13,-4
15:13:58:455897,-4,3,14,2,-21,-9,2,-3
15:13:58:456759,-4,3,14,2,-21,-9,2,-3
15:13:58:462726,-7,-10,-40,-23,-22,6,-38,-11
15:13:58:478434,-15,-26,13,6,2,-10,-21,-5
15:13:58:479226,-15,-26,13,6,2,-10,-21,-5
15:13:58:485208,-15,-14,-24,5,0,-16,-32,-7
15:13:58:492780,39,19,23,9,-18,-6,-15,-9
15:13:58:500269,39,19,23,9,-18,-6,-15,-9
15:13:58:507822,1,-1,2,-67,-24,-2,0,-1
15:13:58:515952,-19,-19,-15,69,78,21,12,5
15:13:58:516778,-19,-19,-15,69,78,21,12,5
15:13:58:522736,-3,15,-9,4,17,9,10,-4
15:13:58:538403,-3,-6,6,-5,-24,3,7,3
15:13:58:539262,-3,-6,6,-5,-24,3,7,3
15:13:58:545205,-13,-6,0,-3,-39,-18,2,4
15:13:58:552759,-6,19,-10,-21,11,-16,-30,-6
15:13:58:560299,-6,19,-10,-21,11,-16,-30,-6
15:13:58:567705,39,1,20,-30,12,-10,9,-1
15:13:58:575892,-5,2,9,28,21,-7,10,6
15:13:58:576738,-5,2,9,28,21,-7,10,6
15:13:58:582735,25,10,29,29,3,14,21,6
15:13:58:598447,10,-12,-6,-34,-16,6,37,8
15:13:58:599279,10,-12,-6,-34,-16,6,37,8
15:13:58:605230,-19,-8,-19,13,24,16,11,-9
15:13:58:612726,-3,2,-7,-11,-33,5,-14,-10
15:13:58:620254,-3,2,-7,-11,-33,5,-14,-10
15:13:58:627767,-6,-3,-30,1,-34,-18,-10,-6
15:13:58:635883,-13,-31,-17,18,-20,9,-3,-5
15:13:58:636729,-13,-31,-17,18,-20,9,-3,-5
15:13:58:642758,-11,1,13,-24,-22,-16,-18,-11
15:13:58:658460,0,5,23,-27,6,2,17,7
15:13:58:659210,0,5,23,-27,6,2,17,7
15:13:58:665231,-18,-1,27,25,11,2,6,4
15:13:58:672730,18,32,-30,3,-13,-16,-20,-3
15:13:58:680247,18,32,-30,3,-13,-16,-20,-3
15:13:58:687739,9,-4,21,27,10,-5,-15,4
15:13:58:695894,-1,15,-48,-26,37,15,5,0
15:13:58:696727,-1,15,-48,-26,37,15,5,0
15:13:58:702739,3,1,-17,-17,-14,1,-12,-1
15:13:58:718403,6,-4,8,-32,-21,-26,-7,-8
15:13:58:719238,6,-4,8,-32,-21,-26,-7,-8
15:13:58:725206,-17,-3,2,8,28,29,6,-4
15:13:58:732722,-4,-1,25,10,-4,9,-7,-2
15:13:58:740277,-4,-1,25,10,-4,9,-7,-2
15:13:58:747724,10,-8,2,-3,-9,-10,5,-4
15:13:58:755937,11,-11,18,24,5,12,1,6
15:13:58:756751,11,-11,18,24,5,12,1,6
15:13:58:762705,2,-2,-22,-46,-11,3,1,-1
15:13:58:778430,-15,-7,19,-30,-33,-11,5,1
15:13:58:779207,-15,-7,19,-30,-33,-11,5,1
15:13:58:785207,-2,6,-19,-47,-15,9,5,1
15:13:58:792730,-5,-3,5,11,-2,-15,-21,-6
15:13:58:800256,-5,-3,5,11,-2,-15,-21,-6
15:13:58:807775,12,6,3,10,-14,-6,-1,3
15:13:58:815961,-74,-7,-63,2,-20,-4,46,11
15:13:58:816755,-74,-7,-63,2,-20,-4,46,11
15:13:58:822728,-8,-16,17,-37,10,7,-10,-10
15:13:58:838401,22,14,30,-40,-33,-22,-23,-3
15:13:58:839214,22,14,30,-40,-33,-22,-23,-3
15:13:58:845183,11,-5,4,26,34,4,18,9
15:13:58:860903,4,-16,37,15,-2,-4,-3,-5
15:13:58:861748,4,-16,37,15,-2,-4,-3,-5
15:13:58:867720,8,10,-3,13,20,-14,3,0
15:13:58:875943,-12,-10,-19,7,7,1,-7,-8
15:13:58:876766,-12,-10,-19,7,7,1,-7,-8
15:13:58:890210,-14,5,20,9,-37,-11,-6,-4
15:13:58:898431,-1,-14,10,52,53,15,-14,-5
15:13:58:899246,-1,-14,10,52,53,15,-14,-5
15:13:58:905242,-8,-6,-19,57,-1,1,7,1
15:13:58:920965,-5,3,0,-14,12,19,-10,-4
15:13:58:921762,-5,3,0,-14,12,19,-10,-4
15:13:58:927768,33,23,10,18,8,8,8,0
15:13:58:935912,21,-6,-20,-5,-8,-8,3,0
15:13:58:936744,21,-6,-20,-5,-8,-8,3,0
15:13:58:950191,-14,-9,28,17,31,19,-13,-2
15:13:58:958449,-9,-9,18,8,-26,-7,-1,0
15:13:58:959245,-9,-9,18,8,-26,-7,-1,0
15:13:58:965174,-3,-6,1,-14,-14,-19,-13,-7
15:13:58:980905,-4,19,-11,-2,7,-3,-10,-4
15:13:58:981748,-4,19,-11,-2,7,-3,-10,-4
15:13:58:987721,-20,-13,13,-5,-17,-11,-54,-13
15:13:58:995908,26,3,-26,-15,0,4,1,4
15:13:58:996726,26,3,-26,-15,0,4,1,4
15:13:59:10274,-22,-14,-71,-18,-21,-6,-4,-8
15:13:59:18387,20,8,23,3,74,22,14,7
15:13:59:19215,20,8,23,3,74,22,14,7
15:13:59:25221,6,4,-17,36,23,13,18,9
15:13:59:40963,-8,-5,16,-20,-28,-10,12,-4
15:13:59:41783,-8,-5,16,-20,-28,-10,12,-4
15:13:59:47750,-14,-2,-4,-26,-8,6,14,2
15:13:59:55955,-6,6,-15,-13,-51,-28,-16,-9
15:13:59:56774,-6,6,-15,-13,-51,-28,-16,-9
15:13:59:70284,11,-5,-2,-2,-37,27,2,14
15:13:59:78389,3,-2,18,24,11,29,35,5
15:13:59:79222,3,-2,18,24,11,29,35,5
15:13:59:85281,-10,-6,10,-47,-25,-14,10,-4
15:13:59:100940,-7,-1,-45,3,12,1,-9,-2
15:13:59:101742,-7,-1,-45,3,12,1,-9,-2
15:13:59:107804,0,1,-7,10,24,-2,5,3
15:13:59:115892,-5,-3,-2,12,0,-7,0,3
15:13:59:116751,-5,-3,-2,12,0,-7,0,3
15:13:59:130226,11,-1,4,4,16,0,4,4
15:13:59:138387,-31,-15,10,-9,-7,-5,27,1
15:13:59:139216,-31,-15,10,-9,-7,-5,27,1
15:13:59:145213,-27,-13,-1,-11,-4,-15,-13,-8
15:13:59:160952,-1,-11,-35,-75,-14,-6,-16,-2
15:13:59:161778,-1,-11,-35,-75,-14,-6,-16,-2
15:13:59:167725,17,7,18,57,11,2,13,2
15:13:59:175951,-10,-3,-7,-19,-30,-17,13,-13
15:13:59:176739,-10,-3,-7,-19,-30,-17,13,-13
15:13:59:190237,29,25,13,-12,-9,-4,-14,4
15:13:59:198342,29,1,-12,18,2,-2,-24,1
15:13:59:199224,29,1,-12,18,2,-2,-24,1
15:13:59:205231,-2,10,17,6,10,-16,7,-5
15:13:59:220970,-2,10,17,6,10,-16,7,-5
15:13:59:221742,0,-2,-12,-6,-8,-7,-15,-3
15:13:59:227735,-8,-8,-11,-17,-7,-4,-11,-3
15:13:59:243478,-8,-8,-11,-17,-7,-4,-11,-3
15:13:59:244216,8,1,-15,-11,-21,-1,94,16
15:13:59:250204,19,-6,-40,2,6,-5,-4,0
15:13:59:258492,19,-6,-40,2,6,-5,-4,0
15:13:59:259248,15,-5,12,17,3,5,-31,-1
15:13:59:265221,-13,-1,24,26,5,-6,15,0
15:13:59:280970,-13,-1,24,26,5,-6,15,0
15:13:59:281762,-5,-4,-57,-61,-10,4,-13,0
15:13:59:287729,-17,-25,-45,-54,-17,4,-12,-7
15:13:59:303460,-17,-25,-45,-54,-17,4,-12,-7
15:13:59:304278,-9,-2,34,21,31,27,13,-3
15:13:59:310218,-17,7,17,2,-18,-2,30,11
15:13:59:318439,-17,7,17,2,-18,-2,30,11
15:13:59:319217,22,15,32,-5,-21,0,-36,4
15:13:59:325243,19,25,41,21,4,10,27,3
15:13:59:340973,19,25,41,21,4,10,27,3
15:13:59:341811,2,-2,32,17,3,-6,-17,-5
15:13:59:347768,-5,3,4,34,10,8,-23,1
15:13:59:363437,-5,3,4,34,10,8,-23,1
15:13:59:364215,-12,0,1,61,16,3,-13,-5
15:13:59:370240,1,-12,-21,-12,-4,-12,-1,-10
15:13:59:378430,1,-12,-21,-12,-4,-12,-1,-10
15:13:59:379246,-16,3,16,12,25,17,13,2
15:13:59:385195,-2,1,12,-11,-11,0,-12,-6
15:13:59:400916,-2,1,12,-11,-11,0,-12,-6
15:13:59:401723,15,9,-7,-11,-1,1,-19,-2
15:13:59:407744,-21,-13,2,-26,-2,14,31,2
15:13:59:423429,-21,-13,2,-26,-2,14,31,2
15:13:59:424266,-3,-3,2,22,45,7,-17,-2
15:13:59:430187,11,13,6,3,3,-10,10,-1
15:13:59:438421,11,13,6,3,3,-10,10,-1
15:13:59:439227,-13,-9,-4,35,12,-9,9,-5
15:13:59:445197,3,10,1,0,-7,-9,-21,-3
15:13:59:460946,3,10,1,0,-7,-9,-21,-3
15:13:59:461750,-1,-3,13,22,-24,-4,-2,-2
15:13:59:467718,48,1,-20,-15,-11,4,-6,-1
15:13:59:475267,48,1,-20,-15,-11,4,-6,-1
15:13:59:482743,2,21,-13,-16,-5,-13,-9,-5
15:13:59:490272,-4,-8,9,-1,-3,-31,-10,-12
15:13:59:498412,-4,-8,9,-1,-3,-31,-10,-12
15:13:59:499238,-11,-6,26,-55,-24,1,4,0
15:13:59:505205,-9,-5,10,0,-18,-6,-4,-4
15:13:59:520933,-9,-5,10,0,-18,-6,-4,-4
15:13:59:521713,-3,1,-25,-47,-30,7,4,2
15:13:59:527727,-41,-17,-7,7,10,32,-7,2
15:13:59:543446,-41,-17,-7,7,10,32,-7,2
15:13:59:544217,12,2,-46,-39,-12,-13,-6,0
15:13:59:550170,-5,7,3,-1,-3,7,8,-9
15:13:59:558476,-5,7,3,-1,-3,7,8,-9
15:13:59:559214,6,-20,19,18,10,-7,-23,0
15:13:59:565159,-7,3,13,0,-2,-9,-1,1
15:13:59:580903,-7,3,13,0,-2,-9,-1,1
15:13:59:581702,3,-7,-3,-66,-10,-12,1,1
15:13:59:587777,9,4,-25,-65,20,9,-10,2
15:13:59:595233,9,4,-25,-65,20,9,-10,2
15:13:59:602740,7,12,8,16,12,14,-3,-3
15:13:59:610187,4,-5,-34,-3,-2,13,-5,-1
15:13:59:618426,4,-5,-34,-3,-2,13,-5,-1
15:13:59:619240,-28,-9,-18,15,-26,-3,56,12
15:13:59:625234,-9,-10,22,32,22,6,-1,-2
15:13:59:641006,-9,-10,22,32,22,6,-1,-2
15:13:59:641794,6,5,13,12,-6,-15,-28,-18
15:13:59:647760,-2,12,7,-29,10,0,4,5
15:13:59:655298,-2,12,7,-29,10,0,4,5
15:13:59:662728,-22,-19,-8,-4,22,-34,-24,-5
15:13:59:670260,2,5,-15,-19,-21,-9,-24,5
15:13:59:678402,2,5,-15,-19,-21,-9,-24,5
15:13:59:679179,-1,-4,32,14,-15,2,-19,-6
15:13:59:685219,11,13,33,17,6,-12,-12,-12
15:13:59:701603,11,13,33,17,6,-12,-12,-12
15:13:59:702366,6,12,14,-16,6,-4,3,4
15:13:59:715955,-34,-21,-10,91,14,6,19,2
15:13:59:716719,-34,-21,-10,91,14,6,19,2
15:13:59:722762,-42,-4,12,11,-29,-2,7,2
15:13:59:730204,22,0,-12,-27,-11,-3,43,14
15:13:59:738477,22,0,-12,-27,-11,-3,43,14
15:13:59:739237,6,9,-1,29,7,21,8,4
15:13:59:745232,-4,-15,-22,-7,-16,-20,-31,-7
15:13:59:760963,-4,-15,-22,-7,-16,-20,-31,-7
15:13:59:761722,21,8,37,18,39,13,4,2
15:13:59:767719,9,-9,15,-9,-4,-1,-37,-7
15:13:59:775290,9,-9,15,-9,-4,-1,-37,-7
15:13:59:782746,2,2,-30,46,29,19,12,2
15:13:59:790251,-13,-7,-2,9,-26,-39,-73,-17
15:13:59:798404,-13,-7,-2,9,-26,-39,-73,-17
15:13:59:799186,13,-1,-11,-5,2,1,-20,11
15:13:59:812783,16,2,-12,-4,-14,2,8,-5
15:13:59:820934,16,2,-12,-4,-14,2,8,-5
15:13:59:821742,7,-1,-60,9,17,-5,-5,-9
15:13:59:827721,-9,1,3,-25,-8,2,10,4
15:13:59:835224,-9,1,3,-25,-8,2,10,4
15:13:59:842762,10,-5,22,11,-9,1,30,2
15:13:59:850211,-12,2,-1,1,15,36,28,-1
15:13:59:858469,-12,2,-1,1,15,36,28,-1
15:13:59:859241,-15,-7,-5,12,4,15,8,-2
15:13:59:872789,-1,-13,10,27,3,-13,18,3
15:13:59:880902,-1,-13,10,27,3,-13,18,3
15:13:59:881747,6,-7,-12,-14,-9,-19,-14,-5
15:13:59:887790,20,15,17,-7,11,36,51,15
15:13:59:895232,20,15,17,-7,11,36,51,15
15:13:59:902783,-1,-2,8,-13,14,-6,16,-3
15:13:59:910262,2,1,-16,27,41,-6,-16,-4
15:13:59:918415,2,1,-16,27,41,-6,-16,-4
15:13:59:919219,-6,10,-27,-34,-20,15,3,1
15:13:59:932797,-9,0,11,23,-4,-17,6,0
15:13:59:941036,-9,0,11,23,-4,-17,6,0
15:13:59:941818,-5,-3,-9,-9,-6,-16,-36,-16
15:13:59:947794,1,-2,-2,-17,-9,-4,-33,-4
15:13:59:955328,1,-2,-2,-17,-9,-4,-33,-4
15:13:59:962741,17,-8,7,-2,-1,-8,6,1
15:13:59:970254,1,14,-2,-13,16,14,16,9
15:13:59:978451,1,14,-2,-13,16,14,16,9
15:13:59:979269,-4,-13,2,-2,-12,-13,-5,3
15:13:59:992750,10,10,28,-12,-23,-6,1,2
15:14:00:894,10,10,28,-12,-23,-6,1,2
15:14:00:1717,-13,-13,0,5,3,15,4,-2
15:14:00:7784,9,3,19,-36,-9,-15,-2,-7
15:14:00:15312,9,3,19,-36,-9,-15,-2,-7
15:14:00:22781,-3,3,11,-16,-1,1,12,3
15:14:00:30225,-11,-3,-12,-20,-22,-20,-14,3
15:14:00:38477,-11,-3,-12,-20,-22,-20,-14,3
15:14:00:39229,-4,1,3,-29,8,-2,-23,-3
15:14:00:52806,14,-5,-34,52,2,-5,7,-5
15:14:00:60968,14,-5,-34,52,2,-5,7,-5
15:14:00:61740,3,-3,4,1,-9,-7,-6,-6
15:14:00:67723,-28,-13,-6,-25,-10,7,-2,4
15:14:00:75317,-28,-13,-6,-25,-10,7,-2,4
15:14:00:82793,-9,26,20,47,-14,0,4,-2
15:14:00:90255,-15,-11,-14,-6,4,8,6,-10
15:14:00:98413,-15,-11,-14,-6,4,8,6,-10
15:14:00:99212,3,10,-18,-34,-20,-11,-5,3
15:14:00:112773,-24,-2,0,-14,13,20,74,16
15:14:00:120975,-24,-2,0,-14,13,20,74,16
15:14:00:121744,-2,-17,2,6,-2,-4,25,2
15:14:00:127762,10,2,11,8,2,-8,-7,2
15:14:00:135237,10,2,11,8,2,-8,-7,2
15:14:00:142787,-4,-10,-25,-12,37,21,-9,-1
15:14:00:150233,-6,4,8,54,32,5,-17,-5
15:14:00:158453,-6,4,8,54,32,5,-17,-5
15:14:00:159255,-8,-2,-13,-2,-28,-16,-13,-7
15:14:00:172774,17,7,-1,-14,-4,-5,-6,-4
15:14:00:180889,17,7,-1,-14,-4,-5,-6,-4
15:14:00:181754,18,19,6,6,9,9,8,3
15:14:00:187736,24,-5,-6,-1,63,13,-10,-4
15:14:00:195228,24,-5,-6,-1,63,13,-10,-4
15:14:00:202774,-6,-21,-27,-5,5,-5,-4,-5
15:14:00:210207,-30,-3,-1,-22,-40,9,-8,0
15:14:00:218421,-30,-3,-1,-22,-40,9,-8,0
15:14:00:219202,5,10,28,70,24,8,28,7
15:14:00:232761,0,-10,-8,-2,-5,-2,-2,-7
15:14:00:240969,0,-10,-8,-2,-5,-2,-2,-7
15:14:00:241764,-10,2,34,-13,-19,-2,-4,-8
15:14:00:247744,3,11,-1,-9,-32,-5,2,4
15:14:00:255279,3,11,-1,-9,-32,-5,2,4
15:14:00:262733,31,-9,-48,-25,-38,-26,-2,1
15:14:00:270240,-10,2,14,-63,-30,10,-17,-21
15:14:00:278488,-10,2,14,-63,-30,10,-17,-21
15:14:00:279258,3,13,-10,-8,-11,7,-23,-8
15:14:00:292740,-3,-2,-1,-16,-15,-10,1,6
15:14:00:300919,-3,-2,-1,-16,-15,-10,1,6
15:14:00:301711,-20,-7,-5,2,-13,-13,-5,-5
15:14:00:307794,9,0,12,47,27,-2,9,4
15:14:00:315319,9,0,12,47,27,-2,9,4
15:14:00:322782,18,6,17,5,9,-6,-53,-11
15:14:00:330229,-21,0,38,10,66,4,-11,6
15:14:00:338466,-21,0,38,10,66,4,-11,6
15:14:00:339240,-23,-9,12,61,13,3,-5,-1
15:14:00:352758,5,-12,18,44,13,14,-2,1
15:14:00:360954,5,-12,18,44,13,14,-2,1
15:14:00:361735,-9,7,44,27,4,-1,4,-3
15:14:00:367724,2,9,-3,28,-6,-12,7,-3
15:14:00:375372,2,9,-3,28,-6,-12,7,-3
15:14:00:390895,-11,-8,-9,-26,-19,0,-2,-5
15:14:00:391757,-11,-4,-24,-11,3,14,86,28
15:14:00:398452,-11,-4,-24,-11,3,14,86,28
15:14:00:399263,1,-14,5,-12,3,0,11,9
15:14:00:412737,-1,-17,-36,-36,-33,-24,-39,-20
15:14:00:420932,-1,-17,-36,-36,-33,-24,-39,-20
15:14:00:421740,-26,3,0,-18,-13,4,2,1
15:14:00:427748,17,8,33,20,31,7,-20,-8
15:14:00:435253,17,8,33,20,31,7,-20,-8
15:14:00:442795,17,8,30,-15,36,12,-19,2
15:14:00:450211,5,14,-20,-13,-8,-16,-7,0
15:14:00:458526,5,14,-20,-13,-8,-16,-7,0
15:14:00:459246,-5,-9,-15,-6,-6,-11,-1,-11
15:14:00:472788,-21,-2,-7,8,-13,-13,-17,-10
15:14:00:480955,-21,-2,-7,8,-13,-13,-17,-10
15:14:00:481765,15,6,-9,-51,-30,-8,-4,4
15:14:00:487747,10,-9,-14,13,-39,-5,-20,-2
15:14:00:495304,10,-9,-14,13,-39,-5,-20,-2
15:14:00:502763,-35,6,-5,24,24,10,16,6
15:14:00:510227,-2,-8,-20,-12,-9,10,-4,-4
15:14:00:518379,-2,-8,-20,-12,-9,10,-4,-4
15:14:00:519278,26,-8,10,-6,-6,-9,-23,-12
15:14:00:532775,9,5,-28,-36,-2,-3,27,0
15:14:00:540900,9,5,-28,-36,-2,-3,27,0
15:14:00:541744,5,-3,-10,-9,-10,-6,4,1
15:14:00:547745,-4,-22,-16,-25,-31,-8,-17,-4
15:14:00:555265,-4,-22,-16,-25,-31,-8,-17,-4
15:14:00:562653,-7,2,7,31,25,18,9,-3
15:14:00:570293,-27,-14,1,10,1,5,-3,8
15:14:00:578454,-27,-14,1,10,1,5,-3,8
15:14:00:579214,-27,-6,7,-22,0,17,4,2
15:14:00:592801,13,11,33,-6,6,5,-10,2
15:14:00:600923,13,11,33,-6,6,5,-10,2
15:14:00:601776,17,0,-33,20,9,3,23,2
15:14:00:607691,12,8,41,-3,-4,-10,-2,0
15:14:00:615295,12,8,41,-3,-4,-10,-2,0
15:14:00:622762,15,9,8,-88,0,-5,9,5
15:14:00:630245,5,8,-4,37,1,-3,-20,-7
15:14:00:638439,5,8,-4,37,1,-3,-20,-7
15:14:00:639229,-3,3,-23,-19,-2,-17,-1,-2
15:14:00:652763,-57,-13,-3,-14,12,-4,-31,-3
15:14:00:660940,-57,-13,-3,-14,12,-4,-31,-3
15:14:00:661759,-14,0,11,14,-30,-10,-17,5
15:14:00:667729,12,-11,-21,26,43,23,7,-7
15:14:00:675299,12,-11,-21,26,43,23,7,-7
15:14:00:682765,-50,-7,-30,4,9,2,34,8
15:14:00:690235,10,8,7,-38,-15,-7,19,1
15:14:00:698459,10,8,7,-38,-15,-7,19,1
15:14:00:699241,36,5,-23,-15,14,0,-5,0
15:14:00:712739,-26,-3,-1,-12,-25,-17,-5,-12
15:14:00:720961,-26,-3,-1,-12,-25,-17,-5,-12
15:14:00:721706,8,-7,30,38,15,8,8,6
15:14:00:735919,38,-2,-37,-4,-11,5,17,-2
15:14:00:736792,38,-2,-37,-4,-11,5,17,-2
15:14:00:742769,3,-8,7,25,22,20,28,2
15:14:00:750224,5,12,9,-5,-11,-11,2,9
15:14:00:757824,5,12,9,-5,-11,-11,2,9
15:14:00:765236,-1,-9,-39,10,-1,-9,-29,-12
15:14:00:772785,-6,-15,-21,25,1,-6,-5,-1
15:14:00:780935,-6,-15,-21,25,1,-6,-5,-1
15:14:00:781769,-10,7,17,26,-1,-17,-2,-4
15:14:00:795971,-2,1,-17,8,40,14,30,11
15:14:00:796751,-2,1,-17,8,40,14,30,11
15:14:00:802727,11,0,-1,-3,-14,0,61,2
15:14:00:818401,17,-2,-5,-24,-33,-13,-12,-6
15:14:00:819246,17,-2,-5,-24,-33,-13,-12,-6
15:14:00:825228,-20,1,13,-13,-19,-16,-26,-7
15:14:00:832763,-5,14,7,-63,16,11,-7,6
15:14:00:840995,-5,14,7,-63,16,11,-7,6
15:14:00:841765,13,20,16,13,2,5,-11,3
15:14:00:855951,1,3,8,-5,-10,11,-20,-1
15:14:00:856764,1,3,8,-5,-10,11,-20,-1
15:14:00:862765,20,9,5,-8,-9,3,-20,3
15:14:00:870212,3,-32,7,9,-13,-14,-1,-5
15:14:00:877830,3,-32,7,9,-13,-14,-1,-5
15:14:00:893375,-10,-30,10,4,6,2,26,3
15:14:00:894157,-3,10,28,2,-2,-1,-11,-5
15:14:00:900924,-3,10,28,2,-2,-1,-11,-5
15:14:00:901739,6,8,-10,48,28,3,-13,-2
15:14:00:915951,-35,-5,-11,-23,-50,-40,-11,-7
15:14:00:916766,-35,-5,-11,-23,-50,-40,-11,-7
15:14:00:922751,-5,5,-1,22,47,37,-2,0
15:14:00:930184,10,4,-6,15,-13,-8,-23,-5
15:14:00:937779,10,4,-6,15,-13,-8,-23,-5
15:14:00:945204,49,6,-2,-30,-31,-9,-28,-3
15:14:00:952772,10,4,8,7,33,8,1,-1
15:14:00:960928,10,4,8,7,33,8,1,-1
15:14:00:961750,-2,-1,-22,-49,-16,-16,0,-4
15:14:00:976398,10,2,-24,7,-5,-11,5,-3
15:14:00:977207,10,2,-24,7,-5,-11,5,-3
15:14:00:982756,-10,-8,-33,-26,-36,-6,-20,-8
15:14:00:990197,-16,3,2,-3,0,11,19,-6
15:14:00:997789,-16,3,2,-3,0,11,19,-6
15:14:01:5193,-1,1,11,-20,-21,9,29,9
15:14:01:12766,-38,-4,13,19,30,40,29,3
15:14:01:20969,-38,-4,13,19,30,40,29,3
15:14:01:21725,1,-7,-10,-1,-23,-16,51,4
15:14:01:36002,25,-1,39,-6,18,2,-5,-8
15:14:01:36788,25,-1,39,-6,18,2,-5,-8
15:14:01:42765,-2,-1,-29,-2,-7,-4,-31,-5
15:14:01:50231,13,5,-68,-6,5,-8,-1,5
15:14:01:57793,13,5,-68,-6,5,-8,-1,5
15:14:01:65231,-2,-4,21,18,31,-10,-13,-5
15:14:01:72815,-1,10,16,13,-41,-4,-3,-2
15:14:01:80939,-1,10,16,13,-41,-4,-3,-2
15:14:01:81738,-38,12,14,-8,-36,-26,-21,-16
15:14:01:95918,17,-7,-10,19,46,69,25,11
15:14:01:96814,17,-7,-10,19,46,69,25,11
15:14:01:102773,3,6,39,-12,-16,-8,-10,-3
15:14:01:110276,-5,-7,-14,16,-33,-34,-9,2
15:14:01:117756,-5,-7,-14,16,-33,-34,-9,2
15:14:01:125224,-5,-9,-16,-6,9,2,-17,-3
15:14:01:132767,-16,-7,-19,-26,-18,-9,1,3
15:14:01:140941,-16,-7,-19,-26,-18,-9,1,3
15:14:01:141725,-5,0,14,15,-15,21,-6,-2
15:14:01:155920,3,2,13,5,61,50,30,7
15:14:01:156782,3,2,13,5,61,50,30,7
15:14:01:162749,-20,-32,9,2,26,13,0,-5
15:14:01:170305,7,12,26,15,-33,-32,-22,-5
15:14:01:177803,7,12,26,15,-33,-32,-22,-5
15:14:01:185178,5,3,-10,-36,-13,3,-3,7
15:14:01:201538,-8,3,15,-25,-18,-11,-23,-4
15:14:01:202345,-8,3,15,-25,-18,-11,-23,-4
15:14:01:203140,-11,-18,-38,13,16,-15,13,-7
15:14:01:215871,15,17,41,8,-7,-1,32,11
15:14:01:216713,15,17,41,8,-7,-1,32,11
15:14:01:222755,7,11,18,-6,-7,-1,-3,1
15:14:01:230193,-11,-4,17,-8,-13,-21,-12,-10
15:14:01:237736,-11,-4,17,-8,-13,-21,-12,-10
15:14:01:245252,9,12,-13,-9,7,4,11,9
15:14:01:252771,26,2,-12,-12,-22,-15,-28,-9
15:14:01:260904,26,2,-12,-12,-22,-15,-28,-9
15:14:01:261738,-11,-3,4,3,9,23,15,0
15:14:01:275921,1,-4,-17,-30,-14,-9,-4,-2
15:14:01:276782,1,-4,-17,-30,-14,-9,-4,-2
15:14:01:282739,10,-1,0,10,6,14,-6,-2
15:14:01:290267,-8,-4,-94,12,10,4,-13,-12
15:14:01:297733,-8,-4,-94,12,10,4,-13,-12
15:14:01:305164,1,3,-4,-3,-1,-22,7,-6
15:14:01:312655,-41,-5,-4,-17,35,12,19,0
15:14:01:320933,-41,-5,-4,-17,35,12,19,0
15:14:01:321722,11,-3,0,2,-24,-21,-17,-8
15:14:01:335887,0,-7,17,8,12,7,-6,4
15:14:01:336757,0,-7,17,8,12,7,-6,4
15:14:01:342750,-7,2,11,9,-5,-6,-4,5
15:14:01:350161,6,-6,14,18,-17,-23,-17,-5
15:14:01:357835,6,-6,14,18,-17,-23,-17,-5
15:14:01:365192,-1,-9,-2,10,-12,12,-15,-4
15:14:01:372759,24,-4,12,6,2,12,22,8
15:14:01:380930,24,-4,12,6,2,12,22,8
15:14:01:381741,6,-9,-4,-6,-1,-1,-12,-3
15:14:01:395910,13,3,17,-18,-35,-29,-1,-1
15:14:01:396778,13,3,17,-18,-35,-29,-1,-1
15:14:01:402790,-3,10,-3,-40,-9,3,-3,1
15:14:01:410225,0,-4,15,-13,-21,-16,-28,-1
15:14:01:417801,0,-4,15,-13,-21,-16,-28,-1
15:14:01:425287,-12,-5,-18,-21,-3,-1,-12,-5
15:14:01:432764,-6,-2,7,18,16,7,-31,-3
15:14:01:440935,-6,-2,7,18,16,7,-31,-3
15:14:01:441792,-6,-2,24,7,56,3,-18,-5
15:14:01:455992,-23,-23,-29,-23,6,0,14,-6
15:14:01:456783,-23,-23,-29,-23,6,0,14,-6
15:14:01:462759,2,-6,3,-35,-32,-14,7,5
15:14:01:470205,-4,4,-6,6,10,-10,-4,0
15:14:01:477795,-4,4,-6,6,10,-10,-4,0
15:14:01:485229,-7,-4,-7,3,2,-1,14,0
15:14:01:492782,-6,2,11,7,-2,-14,-20,8
15:14:01:500895,-6,2,11,7,-2,-14,-20,8
15:14:01:501771,-20,8,-9,5,12,-7,9,-1
15:14:01:515912,-3,-8,-1,8,26,8,-1,-15
15:14:01:516726,-3,-8,-1,8,26,8,-1,-15
15:14:01:522750,9,-4,13,4,-7,0,11,4
15:14:01:538435,-12,8,-68,-14,3,2,0,-2
15:14:01:539298,-12,8,-68,-14,3,2,0,-2
15:14:01:545234,11,-8,7,5,22,8,3,1
15:14:01:552760,13,0,17,46,12,10,13,-2
15:14:01:560904,13,0,17,46,12,10,13,-2
15:14:01:561748,-10,9,17,8,-22,-17,-13,-5
15:14:01:575956,-7,-3,-2,0,23,7,35,12
15:14:01:576764,-7,-3,-2,0,23,7,35,12
15:14:01:582769,-16,-4,2,8,4,-5,-27,-4
15:14:01:590261,-8,-13,-8,-18,-51,-9,32,19
15:14:01:597748,-8,-13,-8,-18,-51,-9,32,19
15:14:01:605273,29,8,-24,19,29,18,5,1
15:14:01:612754,3,-1,-23,-61,-22,-19,-21,-14
15:14:01:620922,3,-1,-23,-61,-22,-19,-21,-14
15:14:01:621728,3,-2,-8,15,4,5,7,6
15:14:01:635902,0,2,23,4,9,3,7,2
15:14:01:636755,0,2,23,4,9,3,7,2
15:14:01:642770,8,4,-26,29,8,-5,-39,-16
15:14:01:650244,25,16,19,-2,34,24,74,25
15:14:01:657833,25,16,19,-2,34,24,74,25
15:14:01:665204,-6,-8,17,14,-1,-16,4,6
15:14:01:672702,-4,4,16,13,-7,-2,-37,-12
15:14:01:680251,-4,4,16,13,-7,-2,-37,-12
15:14:01:687786,3,17,5,86,44,9,17,1
15:14:01:695890,3,-4,6,-15,-6,-6,-8,-9
15:14:01:696773,3,-4,6,-15,-6,-6,-8,-9
15:14:01:702795,-3,-5,-10,-45,-29,-7,0,-6
15:14:01:718437,-25,-6,17,32,28,0,-24,-12
15:14:01:719257,-25,-6,17,32,28,0,-24,-12
15:14:01:725308,-23,-14,15,-18,-21,-8,8,7
15:14:01:732812,8,-19,-13,1,-6,-4,-17,-7
15:14:01:740270,8,-19,-13,1,-6,-4,-17,-7
15:14:01:756594,6,7,8,-3,-10,-3,42,12
15:14:01:757385,-1,10,-8,-6,19,22,5,2
15:14:01:758222,-1,10,-8,-6,19,22,5,2
15:14:01:762748,5,-8,-14,-7,-24,-26,-24,-4
15:14:01:778407,9,-4,-8,-10,-2,3,-1,-1
15:14:01:779222,9,-4,-8,-10,-2,3,-1,-1
15:14:01:785164,-1,-5,12,-6,25,15,3,5
15:14:01:792680,8,-11,-4,34,-27,-8,-35,-11
15:14:01:800288,8,-11,-4,34,-27,-8,-35,-11
15:14:01:807806,-35,-2,23,-9,-30,17,3,-2
15:14:01:815915,-1,-3,7,8,6,-1,10,0
15:14:01:816740,-1,-3,7,8,6,-1,10,0
15:14:01:822734,13,5,-10,-11,-7,9,24,5
15:14:01:838435,-8,-10,-28,-30,-31,-11,-18,-10
15:14:01:839234,-8,-10,-28,-30,-31,-11,-18,-10
15:14:01:845180,-4,-9,-13,-11,1,7,44,8
15:14:01:852940,-15,-4,6,-19,4,-12,-22,0
15:14:01:860274,-15,-4,6,-19,4,-12,-22,0
15:14:01:867723,11,14,-31,-11,-8,-24,-25,-9
15:14:01:875933,-31,11,17,0,-16,-7,4,1
15:14:01:876760,-31,11,17,0,-16,-7,4,1
15:14:01:882754,4,-11,-14,2,-19,-7,-19,-5
15:14:01:898431,19,11,17,41,-33,2,12,5
15:14:01:899254,19,11,17,41,-33,2,12,5
15:14:01:905197,2,0,-13,16,21,41,-5,3
15:14:01:912730,-2,-8,1,19,3,21,56,20
15:14:01:920300,-2,-8,1,19,3,21,56,20
15:14:01:927754,-3,3,27,-13,-12,-29,6,-4
15:14:01:935867,6,3,-17,-14,6,9,2,2
15:14:01:936755,6,3,-17,-14,6,9,2,2
15:14:01:942774,11,-2,-10,-22,6,5,-7,-2
15:14:01:958433,-7,-6,-57,14,15,-17,-7,-11
15:14:01:959217,-7,-6,-57,14,15,-17,-7,-11
15:14:01:965219,-3,-7,9,23,3,-16,-19,-6
15:14:01:972803,11,-4,6,-4,52,33,13,1
15:14:01:980230,11,-4,6,-4,52,33,13,1
15:14:01:987752,-6,2,9,-14,-7,-2,-1,-2
15:14:01:995857,-2,-1,10,-22,-35,-13,35,4
15:14:01:996764,-2,-1,10,-22,-35,-13,35,4
15:14:02:2682,15,6,5,-1,44,29,38,10
15:14:02:18406,-12,0,16,32,33,6,-12,4
15:14:02:19242,-12,0,16,32,33,6,-12,4
15:14:02:25238,-14,-17,-30,-2,-18,-25,-13,-10
15:14:02:32781,-15,0,9,-4,-1,-5,-13,-2
15:14:02:40280,-15,0,9,-4,-1,-5,-13,-2
15:14:02:47686,0,-2,14,1,25,-1,-16,-2
15:14:02:55941,-4,3,28,2,-10,-14,-19,-8
15:14:02:56771,-4,3,28,2,-10,-14,-19,-8
15:14:02:62728,10,0,20,-31,-9,8,2,-6
15:14:02:78163,34,5,-9,-15,-26,-28,-30,0
15:14:02:85896,34,5,-9,-15,-26,-28,-30,0
15:14:02:86756,20,12,-10,16,-16,10,-12,-4
15:14:02:92696,-5,4,-8,-18,-30,9,12,-6
15:14:02:100270,-5,4,-8,-18,-30,9,12,-6
15:14:02:107785,-9,5,-17,-15,-9,-5,-10,0
15:14:02:115935,-12,3,-13,-16,-16,-16,-7,-4
15:14:02:116776,-12,3,-13,-16,-16,-16,-7,-4
15:14:02:122766,-10,4,-15,8,32,11,-2,1
15:14:02:138461,-17,-18,-6,4,9,25,45,8
15:14:02:139288,-17,-18,-6,4,9,25,45,8
15:14:02:145169,-4,-5,-4,-5,12,-7,-16,-14
15:14:02:152776,-2,7,25,15,33,16,-5,-8
15:14:02:160336,-2,7,25,15,33,16,-5,-8
15:14:02:167728,16,-3,-36,19,-25,-12,16,10
15:14:02:175854,9,6,-1,11,-7,-9,-15,-3
15:14:02:176731,9,6,-1,11,-7,-9,-15,-3
15:14:02:182737,4,6,20,-35,-13,-6,-6,0
15:14:02:198400,-18,-10,-7,-20,3,-3,-9,4
15:14:02:199282,-18,-10,-7,-20,3,-3,-9,4
15:14:02:205239,-11,-10,15,15,40,11,-36,-11
15:14:02:212742,52,20,1,8,13,10,78,24
15:14:02:220275,52,20,1,8,13,10,78,24
15:14:02:227785,-30,-3,12,5,-40,-22,4,-1
15:14:02:235925,15,-4,-8,-25,-18,-3,-41,-11
15:14:02:236808,15,-4,-8,-25,-18,-3,-41,-11
15:14:02:242775,22,37,15,9,2,-3,-14,1
15:14:02:258421,-6,-9,41,4,11,-17,-13,-4
15:14:02:259198,-6,-9,41,4,11,-17,-13,-4
15:14:02:265227,-4,-10,5,-13,-2,-4,8,-1
15:14:02:272790,-4,12,12,-17,-13,-27,-35,-5
15:14:02:280231,-4,12,12,-17,-13,-27,-35,-5
15:14:02:287767,-18,-21,-4,12,9,48,28,5
15:14:02:295864,-8,-22,-12,30,-3,-15,-10,-9
15:14:02:296785,-8,-22,-12,30,-3,-15,-10,-9
15:14:02:302688,12,-1,-6,5,-21,-4,-4,4
15:14:02:318431,4,3,-20,-4,19,26,-36,-9
15:14:02:319217,4,3,-20,-4,19,26,-36,-9
15:14:02:325262,-54,-10,-5,3,0,-4,-7,-2
15:14:02:332780,3,4,-5,-5,-13,-13,-17,0
15:14:02:340288,3,4,-5,-5,-13,-13,-17,0
15:14:02:347675,6,9,27,-16,-34,-10,0,-1
15:14:02:355954,-7,7,-25,-7,15,6,14,6
15:14:02:356817,-7,7,-25,-7,15,6,14,6
15:14:02:362737,-5,-1,-14,-22,-16,0,2,-8
15:14:02:378400,-8,-8,6,34,4,-5,-27,-9
15:14:02:379235,-8,-8,6,34,4,-5,-27,-9
15:14:02:385210,4,-5,-15,31,56,10,-6,2
15:14:02:392709,11,-1,-3,-34,-11,-9,14,-7
15:14:02:400276,11,-1,-3,-34,-11,-9,14,-7
15:14:02:407690,21,-5,5,-9,-1,-8,15,3
15:14:02:415949,7,9,-14,-45,-16,-10,-6,-5
15:14:02:416765,7,9,-14,-45,-16,-10,-6,-5
15:14:02:422770,-5,3,39,40,-12,-10,4,1
15:14:02:438443,-9,-1,-10,6,-22,15,5,3
15:14:02:439232,-9,-1,-10,6,-22,15,5,3
15:14:02:445199,2,3,-20,-25,-20,16,11,6
15:14:02:452756,-5,-3,6,22,25,36,76,14
15:14:02:460298,-5,-3,6,22,25,36,76,14
15:14:02:467752,13,9,-1,27,-18,-12,8,-5
15:14:02:475888,-12,-13,-19,-37,-6,-19,-11,-6
15:14:02:476766,-12,-13,-19,-37,-6,-19,-11,-6
15:14:02:482735,3,-1,-3,55,31,3,-6,-3
15:14:02:498391,23,8,-3,-10,22,-17,-29,-3
15:14:02:499249,23,8,-3,-10,22,-17,-29,-3
15:14:02:505235,-31,-9,-14,-18,-4,-15,19,-4
15:14:02:512747,-3,-12,5,18,14,23,-9,-9
15:14:02:520325,-3,-12,5,18,14,23,-9,-9
15:14:02:527763,13,15,2,-44,-22,-11,10,9
15:14:02:535954,-2,7,-5,-4,-5,1,2,3
15:14:02:536782,-2,7,-5,-4,-5,1,2,3
15:14:02:542670,1,-4,4,-11,4,6,-13,-1
15:14:02:558407,-5,-11,-23,-3,-39,-27,-50,-7
15:14:02:559265,-5,-11,-23,-3,-39,-27,-50,-7
15:14:02:565216,34,-3,-5,-15,-16,-7,-6,2
15:14:02:580957,34,-3,-5,-15,-16,-7,-6,2
15:14:02:581744,-11,-16,8,34,-13,4,8,0
15:14:02:587796,-10,-20,-39,-24,45,0,-11,-8
15:14:02:595884,-10,-20,-39,-24,45,0,-11,-8
15:14:02:596752,-17,-2,42,13,8,-10,9,1
15:14:02:602756,5,10,14,-3,-18,3,37,3
15:14:02:618464,5,10,14,-3,-18,3,37,3
15:14:02:619252,-20,3,-28,4,22,10,-44,-2
15:14:02:625227,8,-11,-25,-13,9,-8,-19,-6
15:14:02:640974,8,-11,-25,-13,9,-8,-19,-6
15:14:02:641805,-27,-10,30,-31,-8,-17,-3,-7
15:14:02:647766,-6,-7,-5,-30,-34,-9,-11,-3
15:14:02:655898,-6,-7,-5,-30,-34,-9,-11,-3
15:14:02:656806,43,17,13,0,1,14,10,6
15:14:02:670194,-39,-17,17,-35,-30,-21,-5,-8
15:14:02:678468,-39,-17,17,-35,-30,-21,-5,-8
15:14:02:679229,15,3,-11,-7,9,20,29,12
15:14:02:685210,30,7,9,0,-4,3,7,13
15:14:02:700918,30,7,9,0,-4,3,7,13
15:14:02:701751,5,8,-8,6,-14,-4,-34,-7
15:14:02:707725,-23,-16,-22,5,5,-7,-30,-24
15:14:02:715942,-23,-16,-22,5,5,-7,-30,-24
15:14:02:716735,-10,-6,17,9,10,2,15,0
15:14:02:730195,11,15,32,62,9,2,-19,1
15:14:02:738452,11,15,32,62,9,2,-19,1
15:14:02:739235,-7,-6,-3,-19,-27,-23,-7,-5
15:14:02:745256,-3,6,11,-3,32,26,-38,-9
15:14:02:760954,-3,6,11,-3,32,26,-38,-9
15:14:02:761788,-3,2,0,3,38,10,22,7
15:14:02:767687,-15,0,-3,-37,-32,-19,-8,-8
15:14:02:775980,-15,0,-3,-37,-32,-19,-8,-8
15:14:02:776771,-16,-7,-2,18,-7,9,16,0
15:14:02:790310,3,-3,-19,1,3,3,5,2
15:14:02:798452,3,-3,-19,1,3,3,5,2
15:14:02:799280,17,-3,1,-3,-38,-30,-20,-6
15:14:02:805201,-2,6,5,18,40,36,20,4
15:14:02:820963,-2,6,5,18,40,36,20,4
15:14:02:821744,-10,-6,26,-2,-15,-5,16,-8
15:14:02:827700,-23,-15,10,-1,-18,-26,-9,-3
15:14:02:835909,-23,-15,10,-1,-18,-26,-9,-3
15:14:02:836761,15,-11,-41,-1,3,0,-3,2
15:14:02:850164,-5,-3,-48,-39,10,0,6,3
15:14:02:858442,-5,-3,-48,-39,10,0,6,3
15:14:02:859213,15,11,6,3,2,-6,-1,2
15:14:02:865195,23,8,-16,14,10,13,57,30
15:14:02:880904,23,8,-16,14,10,13,57,30
15:14:02:881791,-37,-11,-5,0,-9,-6,-4,-17
15:14:02:887742,2,11,-19,-1,4,-13,-29,-11
15:14:02:895901,2,11,-19,-1,4,-13,-29,-11
15:14:02:896782,7,6,19,-15,-25,-1,8,11
15:14:02:910284,-5,-9,-12,-27,-31,-18,-4,-3
15:14:02:918442,-5,-9,-12,-27,-31,-18,-4,-3
15:14:02:919195,-30,-6,-23,-6,12,-1,-20,-7
15:14:02:925231,5,-10,13,-1,34,12,32,8
15:14:02:941029,5,-10,13,-1,34,12,32,8
15:14:02:941802,15,1,-49,-8,-1,26,67,32
15:14:02:947769,-21,-9,19,10,-25,-18,-30,-32
15:14:02:955953,-21,-9,19,10,-25,-18,-30,-32
15:14:02:956774,-2,18,36,22,24,-10,-35,-16
15:14:02:970262,13,-5,18,2,-2,13,19,12
15:14:02:978439,13,-5,18,2,-2,13,19,12
15:14:02:979222,16,-9,-5,1,-41,-12,-7,-3
15:14:02:985235,1,5,24,34,36,10,4,-3
15:14:03:893,1,5,24,34,36,10,4,-3
15:14:03:1748,12,-1,24,-2,28,5,13,14
15:14:03:7788,6,-5,25,2,-15,-2,7,1
15:14:03:15895,6,-5,25,2,-15,-2,7,1
15:14:03:16746,4,12,3,14,8,10,10,0
15:14:03:30236,20,0,2,-3,-2,16,35,18
15:14:03:38379,20,0,2,-3,-2,16,35,18
15:14:03:39223,1,-22,-19,-12,-9,-3,-10,-5
15:14:03:45208,4,9,-13,1,6,-7,-37,-13
15:14:03:60988,4,9,-13,1,6,-7,-37,-13
15:14:03:61769,-5,14,10,8,8,-10,-6,-4
15:14:03:67749,-14,-2,-16,-4,-19,-30,-14,-4
15:14:03:75955,-14,-2,-16,-4,-19,-30,-14,-4
15:14:03:76781,12,4,-8,-16,-11,17,-10,-3
15:14:03:90284,-40,5,-28,-13,-29,-22,-28,-12
15:14:03:98388,-40,5,-28,-13,-29,-22,-28,-12
15:14:03:99185,-11,-6,-6,6,15,3,0,-1
15:14:03:105220,8,-14,15,-4,-16,-3,-19,-7
15:14:03:120963,8,-14,15,-4,-16,-3,-19,-7
15:14:03:121751,6,7,-3,13,-19,-7,12,-3
15:14:03:127778,-7,2,-17,8,43,14,-4,0
15:14:03:135951,-7,2,-17,8,43,14,-4,0
15:14:03:136795,-47,-13,-16,-21,-5,-20,-53,-28
15:14:03:150379,-23,-33,-16,33,16,18,32,21
15:14:03:158491,-23,-33,-16,33,16,18,32,21
15:14:03:159264,2,-13,2,16,2,-27,-25,-4
15:14:03:165194,4,7,27,-32,-13,16,10,6
15:14:03:180921,4,7,27,-32,-13,16,10,6
15:14:03:181747,11,15,6,10,-5,-3,0,-4
15:14:03:187673,19,15,8,19,5,-3,5,-1
15:14:03:195914,19,15,8,19,5,-3,5,-1
15:14:03:196794,24,-2,16,-7,-16,14,-7,1
15:14:03:219119,-3,8,-6,-26,22,-4,-12,-6
15:14:03:219909,-3,8,-6,-26,22,-4,-12,-6
15:14:03:220776,-4,-3,13,1,26,20,41,9
15:14:03:225224,11,1,16,3,-28,3,20,12
15:14:03:240967,11,1,16,3,-28,3,20,12
15:14:03:241798,11,-6,4,-28,-1,11,13,8
15:14:03:247757,-4,8,-6,0,-16,-9,2,-16
15:14:03:255935,-4,8,-6,0,-16,-9,2,-16
15:14:03:256759,-21,-3,-2,-1,12,20,67,32
15:14:03:270269,18,12,15,29,-28,-16,-6,0
15:14:03:278402,18,12,15,29,-28,-16,-6,0
15:14:03:279203,4,-3,-28,42,30,20,-27,-10
15:14:03:285248,-6,-3,-14,-11,0,13,3,-1
15:14:03:300877,-6,-3,-14,-11,0,13,3,-1
15:14:03:301776,5,-4,-16,-9,-25,-30,-14,-3
15:14:03:307785,-5,-12,1,10,0,-14,-29,-17
15:14:03:315868,-5,-12,1,10,0,-14,-29,-17
15:14:03:316785,-42,-3,-11,-25,-3,-5,39,7
15:14:03:330235,-4,-7,14,16,33,7,-21,-7
15:14:03:338391,-4,-7,14,16,33,7,-21,-7
15:14:03:339191,3,15,18,-5,-4,-5,-24,-10
15:14:03:345196,-17,-20,-10,-25,27,-14,-13,-1
15:14:03:360964,-17,-20,-10,-25,27,-14,-13,-1
15:14:03:361771,15,10,45,20,-16,-15,-12,-6
15:14:03:367754,1,2,-23,-3,-16,-19,-17,2
15:14:03:375905,1,2,-23,-3,-16,-19,-17,2
15:14:03:376766,5,-15,-6,10,33,20,-1,-11
15:14:03:390242,15,24,3,-18,-10,-7,-16,-8
15:14:03:398414,15,24,3,-18,-10,-7,-16,-8
15:14:03:399193,-25,-24,20,-13,-5,-10,-6,-5
15:14:03:405267,2,26,19,-2,2,9,-25,-4
15:14:03:421006,2,26,19,-2,2,9,-25,-4
15:14:03:421789,12,16,21,-32,-33,-16,-7,2
15:14:03:427774,6,4,-15,17,52,31,10,10
15:14:03:435998,6,4,-15,17,52,31,10,10
15:14:03:436792,4,-1,5,45,2,-1,-10,-4
15:14:03:450217,0,-8,-35,4,-27,-8,20,1
15:14:03:458502,0,-8,-35,4,-27,-8,20,1
15:14:03:459263,-7,-6,-12,-12,-7,8,1,9
15:14:03:465211,23,-10,24,7,-7,3,12,1
15:14:03:480931,23,-10,24,7,-7,3,12,1
15:14:03:481786,-15,-8,-16,-2,-3,-13,-34,-10
15:14:03:487733,2,-4,18,8,19,9,17,7
15:14:03:495975,2,-4,18,8,19,9,17,7
15:14:03:496784,24,9,-32,-30,-17,-2,-1,-4
15:14:03:510199,-25,-14,-25,-27,-19,7,13,-4
15:14:03:518417,-25,-14,-25,-27,-19,7,13,-4
15:14:03:519231,-9,0,-15,7,13,11,10,-1
15:14:03:525235,7,-14,-4,-31,-28,-19,3,1
15:14:03:540998,7,-14,-4,-31,-28,-19,3,1
15:14:03:541797,-12,2,-7,-1,35,3,-1,-6
15:14:03:547701,-21,-13,-32,57,17,-6,-9,-12
15:14:03:556010,-21,-13,-32,57,17,-6,-9,-12
15:14:03:556786,13,5,-27,8,-4,-6,21,-1
15:14:03:570216,2,14,12,-7,1,6,-5,-1
15:14:03:578442,2,14,12,-7,1,6,-5,-1
15:14:03:579228,-7,1,-7,-3,13,-9,-3,1
15:14:03:592715,-2,-12,13,-4,-24,-18,18,0
15:14:03:600907,-2,-12,13,-4,-24,-18,18,0
15:14:03:601741,-6,-5,13,-17,-18,0,-1,4
15:14:03:607745,-6,-18,6,11,0,0,-41,-6
15:14:03:615269,-6,-18,6,11,0,0,-41,-6
15:14:03:622698,22,15,5,-73,-9,17,8,1
15:14:03:630198,2,23,-7,33,-3,-1,-8,-4
15:14:03:638498,2,23,-7,33,-3,-1,-8,-4
15:14:03:639239,0,-10,15,-8,3,-8,-3,2
15:14:03:652708,29,11,12,-26,-25,-6,9,1
15:14:03:660912,29,11,12,-26,-25,-6,9,1
15:14:03:661784,21,9,2,30,10,25,-7,-8
15:14:03:667685,-8,-45,-3,-8,-24,10,113,42
15:14:03:675292,-8,-45,-3,-8,-24,10,113,42
15:14:03:682755,-17,-16,23,28,28,0,-3,1
15:14:03:690232,-6,17,-4,-96,-40,-15,-41,-8
15:14:03:698406,-6,17,-4,-96,-40,-15,-41,-8
15:14:03:699201,5,8,-29,4,-24,-18,4,2
15:14:03:712721,-24,4,9,-14,26,10,-15,-4
15:14:03:720956,-24,4,9,-14,26,10,-15,-4
15:14:03:721774,9,-17,13,12,17,4,-19,-2
15:14:03:727772,-7,-28,-6,18,10,-18,-17,-5
15:14:03:735228,-7,-28,-6,18,10,-18,-17,-5
15:14:03:742792,-10,-12,3,1,-31,-23,-33,-10
15:14:03:750245,3,7,-14,-2,-17,13,8,0
15:14:03:758427,3,7,-14,-2,-17,13,8,0
15:14:03:759228,-10,10,35,-29,-13,-7,2,-1
15:14:03:772807,-4,4,22,88,34,5,-11,-5
15:14:03:780878,-4,4,22,88,34,5,-11,-5
15:14:03:781768,-4,-4,-13,16,0,8,11,2
15:14:03:787775,23,6,-25,-7,13,-15,-5,1
15:14:03:795229,23,6,-25,-7,13,-15,-5,1
15:14:03:802689,-30,5,-21,13,2,-2,-17,2
15:14:03:810248,0,5,10,-9,-6,10,57,9
15:14:03:818438,0,5,10,-9,-6,10,57,9
15:14:03:819202,10,-13,5,-46,-21,13,20,2
15:14:03:832819,2,9,-9,-34,-7,-5,-27,-5
15:14:03:840901,2,9,-9,-34,-7,-5,-27,-5
15:14:03:841773,20,8,10,-2,-6,-8,-4,-6
15:14:03:847675,-23,6,-10,-15,24,21,20,6
15:14:03:855244,-23,6,-10,-15,24,21,20,6
15:14:03:862709,-7,-4,-50,25,9,-38,3,-11
15:14:03:870186,1,-7,11,8,3,21,23,18
15:14:03:878428,1,-7,11,8,3,21,23,18
15:14:03:879260,-18,-10,8,3,-24,-6,-3,-1
15:14:03:892672,0,6,30,29,26,-10,-42,-23
15:14:03:900910,0,6,30,29,26,-10,-42,-23
15:14:03:901769,37,6,16,18,14,7,10,7
15:14:03:907697,-17,-9,-21,-11,8,3,-9,-10
15:14:03:915264,-17,-9,-21,-11,8,3,-9,-10
15:14:03:922726,23,8,15,35,27,11,1,2
15:14:03:930171,4,10,-6,-18,-72,-39,-103,-31
15:14:03:938491,4,10,-6,-18,-72,-39,-103,-31
15:14:03:939273,-13,-20,-26,-9,17,39,4,-8
15:14:03:952758,2,-17,11,10,-8,-6,-2,-6
15:14:03:960946,2,-17,11,10,-8,-6,-2,-6
15:14:03:961798,0,4,3,-10,-18,-5,-4,5
15:14:03:967680,6,11,-2,-14,-16,-8,3,-3
15:14:03:975270,6,11,-2,-14,-16,-8,3,-3
15:14:03:982780,-45,-13,-1,-12,7,6,12,5
15:14:03:990260,20,20,5,-8,-1,-14,10,10
15:14:03:998414,20,20,5,-8,-1,-14,10,10
15:14:03:999193,-4,11,14,-13,-12,-5,-2,-11
15:14:04:12681,-6,-17,11,10,-12,4,-2,0
15:14:04:20948,-6,-17,11,10,-12,4,-2,0
15:14:04:21746,-16,-1,16,17,7,11,-6,-1
15:14:04:27756,0,-1,12,7,12,29,104,31
15:14:04:35200,0,-1,12,7,12,29,104,31
15:14:04:42781,28,11,1,-7,-9,-3,-3,2
15:14:04:50203,-14,4,3,-10,4,-2,-42,-13
15:14:04:58409,-14,4,3,-10,4,-2,-42,-13
15:14:04:59171,-19,-12,1,29,-30,-21,-1,0
15:14:04:72784,-21,-22,-28,-3,23,16,14,-3
15:14:04:80905,-21,-22,-28,-3,23,16,14,-3
15:14:04:81746,-30,-5,6,-6,-1,4,-9,-8
15:14:04:87771,-3,5,-16,0,-23,-6,-5,0
15:14:04:95214,-3,5,-16,0,-23,-6,-5,0
15:14:04:102706,6,11,20,-25,23,7,-29,-9
15:14:04:110223,0,17,-20,-51,-6,14,83,19
15:14:04:118442,0,17,-20,-51,-6,14,83,19
15:14:04:119242,-2,-2,8,-1,20,4,-11,6
15:14:04:132830,-14,4,-3,-42,-7,-16,-45,-17
15:14:04:140938,-14,4,-3,-42,-7,-16,-45,-17
15:14:04:141791,5,-16,-7,-32,-1,-7,5,-1
15:14:04:155871,-6,-12,2,21,21,-34,-25,-7
15:14:04:156762,-6,-12,2,21,21,-34,-25,-7
15:14:04:162787,-3,-6,-10,7,16,9,15,3
15:14:04:170257,18,5,12,16,-20,-11,-21,-5
15:14:04:178416,18,5,12,16,-20,-11,-21,-5
15:14:04:179197,-19,12,-30,-87,-56,-9,-3,-3
15:14:04:192789,19,-4,-10,63,18,7,-31,-5
15:14:04:200884,19,-4,-10,63,18,7,-31,-5
15:14:04:201748,38,17,-18,-1,-3,-5,-16,-2
15:14:04:207787,-17,-6,12,-1,34,13,-21,-2
15:14:04:215318,-17,-6,12,-1,34,13,-21,-2
15:14:04:222711,17,8,-13,23,12,-4,22,5
15:14:04:230218,8,-7,36,16,-27,-6,-2,-5
15:14:04:238428,8,-7,36,16,-27,-6,-2,-5
15:14:04:239301,-30,-18,4,18,12,4,10,-1
15:14:04:252865,-13,6,-3,-3,30,0,2,5
15:14:04:260966,-13,6,-3,-3,30,0,2,5
15:14:04:261803,31,-12,-3,2,-14,-6,-20,-7
15:14:04:267695,27,6,3,-9,-21,-4,7,-10
15:14:04:275275,27,6,3,-9,-21,-4,7,-10
15:14:04:282750,11,6,-1,-4,-10,20,50,28
15:14:04:290270,-2,-25,-26,-8,21,12,2,4
15:14:04:298418,-2,-25,-26,-8,21,12,2,4
15:14:04:299228,2,-3,0,0,-13,-8,-10,-10
15:14:04:312688,-26,5,-14,25,-11,4,5,1
15:14:04:320952,-26,5,-14,25,-11,4,5,1
15:14:04:321808,20,11,23,46,22,-22,-6,-2
15:14:04:327719,-19,-3,4,-2,15,17,13,4
15:14:04:335272,-19,-3,4,-2,15,17,13,4
15:14:04:342736,-11,4,11,0,-13,12,-14,-5
15:14:04:350207,15,-8,-8,-34,-30,-15,-25,-10
15:14:04:358497,15,-8,-8,-34,-30,-15,-25,-10
15:14:04:359267,-14,-15,-30,10,9,-2,2,-1
15:14:04:372716,-4,-10,-4,11,24,10,6,1
15:14:04:380959,-4,-10,-4,11,24,10,6,1
15:14:04:381798,-45,6,9,-10,-6,-19,-32,-11
15:14:04:387752,3,-7,-17,-13,-21,-21,-32,-13
15:14:04:395285,3,-7,-17,-13,-21,-21,-32,-13
15:14:04:402784,-12,-4,23,0,-3,8,-6,-10
15:14:04:410254,-9,10,13,-8,-30,-18,-5,-7
15:14:04:418409,-9,10,13,-8,-30,-18,-5,-7
15:14:04:419194,8,3,-25,6,-6,15,15,8
15:14:04:433159,21,-2,5,17,13,6,6,2
15:14:04:441009,21,-2,5,17,13,6,6,2
15:14:04:441778,30,-4,-31,-33,8,-17,-14,-5
15:14:04:447796,-14,5,-31,-41,14,11,27,9
15:14:04:455229,-14,5,-31,-41,14,11,27,9
15:14:04:462758,0,-11,28,-1,9,-14,-15,-8
15:14:04:470262,-10,9,-1,9,12,-3,20,4
15:14:04:478424,-10,9,-1,9,12,-3,20,4
15:14:04:479233,-2,-6,-13,11,11,-16,-5,-6
15:14:04:492816,-13,-1,-2,2,-28,-7,-13,-3
15:14:04:500882,-13,-1,-2,2,-28,-7,-13,-3
15:14:04:501756,-24,3,37,25,-30,1,-11,-4
15:14:04:507803,-11,-8,7,8,-7,-7,-6,3
15:14:04:515227,-11,-8,7,8,-7,-7,-6,3
15:14:04:522719,16,2,0,-3,10,20,29,12
15:14:04:530153,34,21,31,15,7,25,-5,5
15:14:04:537830,34,21,31,15,7,25,-5,5
15:14:04:545185,-11,-13,-18,-25,-8,-8,17,0
15:14:04:552701,5,6,4,-10,-15,-11,-11,-2
15:14:04:560957,5,6,4,-10,-15,-11,-11,-2
15:14:04:561789,31,1,-36,-60,-16,-13,-13,-2
15:14:04:575955,0,-6,24,-6,-18,19,5,3
15:14:04:576779,0,-6,24,-6,-18,19,5,3
15:14:04:582681,13,1,23,7,-17,-2,21,2
15:14:04:590219,0,-2,15,1,13,-5,-29,-10
15:14:04:597780,0,-2,15,1,13,-5,-29,-10
15:14:04:605210,-10,-8,-79,-12,-17,0,32,5
15:14:04:612683,6,0,2,14,12,3,-18,-1
15:14:04:621001,6,0,2,14,12,3,-18,-1
15:14:04:621822,-30,-15,18,-10,6,-8,-7,-4
15:14:04:635922,-39,-11,-16,-19,-6,-5,18,-1
15:14:04:636799,-39,-11,-16,-19,-6,-5,18,-1
15:14:04:642717,-22,4,3,3,5,14,-2,0
15:14:04:650184,13,-15,-6,0,19,3,25,-1
15:14:04:657812,13,-15,-6,0,19,3,25,-1
15:14:04:665235,-4,0,-7,17,-1,-14,-50,-9
15:14:04:672746,-8,-5,-11,-5,-12,-9,6,1
15:14:04:680900,-8,-5,-11,-5,-12,-9,6,1
15:14:04:681757,8,11,11,27,9,5,-23,-7
15:14:04:695893,-8,-2,-4,18,10,8,16,-4
15:14:04:696673,-8,-2,-4,18,10,8,16,-4
15:14:04:702810,-21,1,-12,18,32,-3,0,2
15:14:04:710266,4,-17,-27,-24,7,-19,27,4
15:14:04:717753,4,-17,-27,-24,7,-19,27,4
15:14:04:725341,24,5,17,7,-7,-7,21,5
15:14:04:732748,-3,3,0,18,-22,-18,-16,-7
15:14:04:740961,-3,3,0,18,-22,-18,-16,-7
15:14:04:741792,6,13,9,-12,15,6,-8,-4
15:14:04:755885,7,-2,-1,27,-1,-4,-13,-1
15:14:04:756782,7,-2,-1,27,-1,-4,-13,-1
15:14:04:762694,48,10,-24,9,11,32,14,8
15:14:04:770241,-13,-6,-12,-30,-4,9,13,4
15:14:04:777805,-13,-6,-12,-30,-4,9,13,4
15:14:04:785176,-1,-10,10,48,10,8,21,1
15:14:04:792701,-6,-5,1,-13,10,6,-50,-4
15:14:04:800882,-6,-5,1,-13,10,6,-50,-4
15:14:04:801748,-15,-6,1,-36,-7,-2,0,-4
15:14:04:815929,-4,11,-5,-15,-12,-4,-14,-4
15:14:04:816762,-4,11,-5,-15,-12,-4,-14,-4
15:14:04:822746,-14,-10,15,25,52,24,15,8
15:14:04:830197,10,-4,12,-2,-12,-7,37,15
15:14:04:837807,10,-4,12,-2,-12,-7,37,15
15:14:04:845199,7,4,-9,11,-4,-19,-8,-4
15:14:04:852775,4,9,16,-5,5,0,-12,-8
15:14:04:860980,4,9,16,-5,5,0,-12,-8
15:14:04:861837,-25,-10,-13,-36,-44,-12,-13,-2
15:14:04:875938,1,-4,-13,14,-26,-1,21,-4
15:14:04:876797,1,-4,-13,14,-26,-1,21,-4
15:14:04:882724,-95,-3,10,18,62,-15,2,-4
15:14:04:890229,11,-6,-6,5,15,2,13,16
15:14:04:897811,11,-6,-6,5,15,2,13,16
15:14:04:905233,30,17,-19,-20,-45,-12,-1,0
15:14:04:912713,-7,8,44,8,5,3,-12,-8
15:14:04:920985,-7,8,44,8,5,3,-12,-8
15:14:04:921783,16,9,-8,-9,4,7,-4,-5
15:14:04:935894,14,0,-9,14,48,18,-2,0
15:14:04:936816,14,0,-9,14,48,18,-2,0
15:14:04:942720,12,4,7,0,-16,-8,-17,-1
15:14:04:950186,15,-8,-11,-23,4,3,-18,-3
15:14:04:957806,15,-8,-11,-23,4,3,-18,-3
15:14:04:965264,-4,-10,-2,-13,-3,2,59,18
15:14:04:972808,2,6,9,3,-41,-21,10,9
15:14:04:980888,2,6,9,3,-41,-21,10,9
15:14:04:981792,14,-2,16,-35,-28,-4,-38,-12
15:14:04:995919,-8,-1,9,3,-14,-5,0,-2
15:14:04:996852,-8,-1,9,3,-14,-5,0,-2
15:14:05:2765,-3,-11,32,82,13,9,9,-4
15:14:05:10272,-5,0,-7,-4,17,3,-7,-10
15:14:05:17818,-5,0,-7,-4,17,3,-7,-10
15:14:05:25247,-24,-7,12,14,3,-12,-3,-1
15:14:05:32830,-6,1,-27,10,5,9,-11,1
15:14:05:40988,-6,1,-27,10,5,9,-11,1
15:14:05:41786,11,-4,7,-13,-24,-3,-31,-1
15:14:05:55962,5,3,-11,-39,-34,-11,-16,-11
15:14:05:56913,5,3,-11,-39,-34,-11,-16,-11
15:14:05:62667,-26,-20,-31,-20,-17,3,-6,-7
15:14:05:70287,31,0,23,-18,-4,2,8,2
15:14:05:77800,31,0,23,-18,-4,2,8,2
15:14:05:85162,23,-4,-28,29,45,16,1,-6
15:14:05:92715,-5,5,-10,-2,1,-9,12,-1
15:14:05:100895,-5,5,-10,-2,1,-9,12,-1
15:14:05:101753,15,-9,-7,-11,-12,-19,-32,-8
15:14:05:115917,20,4,-5,25,30,15,-13,5
15:14:05:116795,20,4,-5,25,30,15,-13,5
15:14:05:122683,15,-1,-5,-2,27,-12,8,-1
15:14:05:130179,7,18,9,-9,-11,2,4,0
15:14:05:137780,7,18,9,-9,-11,2,4,0
15:14:05:145184,-8,-3,-1,-23,-31,-14,10,8
15:14:05:152719,-14,-13,-3,-25,8,-5,17,-5
15:14:05:160991,-14,-13,-3,-25,8,-5,17,-5
15:14:05:161788,-7,-8,-3,-6,-6,7,5,-6
15:14:05:175952,-17,3,-6,39,-17,1,-3,-5
15:14:05:176793,-17,3,-6,39,-17,1,-3,-5
15:14:05:182712,3,1,-5,7,0,0,-5,7
15:14:05:190247,4,-14,7,16,10,1,-8,5
15:14:05:197775,4,-14,7,16,10,1,-8,5
15:14:05:205254,28,12,9,11,-25,-4,7,-4
15:14:05:212704,-4,-8,19,6,-13,12,-57,-10
15:14:05:220985,-4,-8,19,6,-13,12,-57,-10
15:14:05:221794,1,12,4,-22,29,-6,4,-10
15:14:05:235955,-31,2,5,25,21,-13,4,6
15:14:05:236798,-31,2,5,25,21,-13,4,6
15:14:05:242735,11,6,33,-19,-21,-1,11,9
15:14:05:250186,-37,-14,-29,1,5,2,33,4
15:14:05:265965,-37,-14,-29,1,5,2,33,4
15:14:05:266782,-17,2,32,5,19,5,1,-1
15:14:05:272744,18,10,-3,-15,15,-4,24,9
15:14:05:280941,18,10,-3,-15,15,-4,24,9
15:14:05:281759,7,0,-4,-2,-11,-7,-6,-3
15:14:05:295937,20,2,-2,24,-6,1,12,-1
15:14:05:296783,20,2,-2,24,-6,1,12,-1
15:14:05:302705,9,-24,-26,-2,2,9,13,-5
15:14:05:310210,-3,0,-4,22,19,-13,-6,-16
15:14:05:317801,-3,0,-4,22,19,-13,-6,-16
15:14:05:325263,-2,11,21,-3,17,-7,-3,21
15:14:05:333347,8,14,33,-6,34,8,-20,-3
15:14:05:334198,8,14,33,-6,34,8,-20,-3
15:14:05:340240,-1,-12,9,12,0,-1,0,-1
15:14:05:355971,-6,-2,-7,23,-25,-19,-22,-9
15:14:05:356792,-6,-2,-7,23,-25,-19,-22,-9
15:14:05:362687,-52,-6,-15,-14,-23,-6,6,-1
15:14:05:370243,9,15,-25,-41,-24,18,25,5
15:14:05:377784,9,15,-25,-41,-24,18,25,5
15:14:05:385215,16,-7,3,11,-30,11,-56,-12
15:14:05:393400,-8,-14,8,0,-18,4,0,1
15:14:05:394217,-8,-14,8,0,-18,4,0,1
15:14:05:400166,-7,17,2,-16,-6,10,-17,-8
15:14:05:415923,-5,-13,17,6,-20,-6,-8,-6
15:14:05:416672,-5,-13,17,6,-20,-6,-8,-6
15:14:05:422829,-19,-11,-18,-13,-8,-10,1,2
15:14:05:430225,4,4,33,50,12,-10,-31,-7
15:14:05:437806,4,4,33,50,12,-10,-31,-7
15:14:05:445179,-26,-14,4,-7,-10,24,36,0
15:14:05:453473,2,-19,-22,-18,33,-9,-32,-12
15:14:05:454234,2,-19,-22,-18,33,-9,-32,-12
15:14:05:467782,13,22,13,-7,2,-5,-7,-3
15:14:05:475915,-15,-10,-15,-42,-30,-3,1,0
15:14:05:476790,-15,-10,-15,-42,-30,-3,1,0
15:14:05:482699,11,-4,-48,50,16,4,14,5
15:14:05:498410,-7,-6,-26,4,-18,-8,12,-2
15:14:05:499196,-7,-6,-26,4,-18,-8,12,-2
15:14:05:505253,8,12,59,16,-17,0,-4,-4
15:14:05:513377,-2,3,13,-9,9,3,-14,1
15:14:05:514183,-2,3,13,-9,9,3,-14,1
15:14:05:527805,7,2,-3,-6,-9,-15,25,7
15:14:05:535894,-49,-6,16,-18,31,19,38,2
15:14:05:536788,-49,-6,16,-18,31,19,38,2
15:14:05:542688,-26,-28,-12,-9,-2,-5,-10,-12
15:14:05:558473,15,7,21,-31,21,7,-1,11
15:14:05:559249,15,7,21,-31,21,7,-1,11
15:14:05:565230,11,22,24,47,74,5,2,3
15:14:05:573474,6,12,11,29,-12,-15,-3,-4
15:14:05:574222,6,12,11,29,-12,-15,-3,-4
15:14:05:587743,10,-7,-12,-42,-14,-6,8,6
15:14:05:595843,-4,6,-15,-10,-34,-14,-24,3
15:14:05:596796,-4,6,-15,-10,-34,-14,-24,3
15:14:05:602825,-24,-34,-58,-10,5,-2,-43,-12
15:14:05:618415,11,5,-24,-10,-23,5,20,-1
15:14:05:619280,11,5,-24,-10,-23,5,20,-1
15:14:05:625216,7,18,-12,17,3,-4,-13,-11
15:14:05:633347,19,0,10,1,21,1,-10,0
15:14:05:634214,19,0,10,1,21,1,-10,0
15:14:05:647734,3,-4,3,-27,-19,-1,13,-2
15:14:05:655916,7,-10,-35,41,0,-1,9,-1
15:14:05:656805,7,-10,-35,41,0,-1,9,-1
15:14:05:662702,-21,-21,-2,-15,-11,3,-2,-2
15:14:05:678433,-8,-8,-11,-33,-28,1,-9,-4
15:14:05:679241,-8,-8,-11,-33,-28,1,-9,-4
15:14:05:685209,7,15,7,25,26,-5,7,3
15:14:05:693371,13,1,2,-6,-6,26,37,9
15:14:05:694187,13,1,2,-6,-6,26,37,9
15:14:05:707720,12,-4,3,-7,-21,-7,-4,1
15:14:05:715970,2,-10,-19,-50,-14,-16,8,-1
15:14:05:716769,2,-10,-19,-50,-14,-16,8,-1
15:14:05:722722,14,12,2,-4,12,1,7,5
15:14:05:738406,-17,-27,-7,27,11,8,-5,-4
15:14:05:739220,-17,-27,-7,27,11,8,-5,-4
15:14:05:745161,50,24,-16,6,6,11,1,0
15:14:05:753411,8,29,39,5,-5,-5,10,-7
15:14:05:754226,8,29,39,5,-5,-5,10,-7
15:14:05:767681,-3,-6,-12,4,2,4,2,2
15:14:05:775972,-6,4,44,0,-13,-12,-13,-5
15:14:05:776768,-6,4,44,0,-13,-12,-13,-5
15:14:05:782692,25,11,20,20,7,30,24,16
15:14:05:798431,-5,-20,-17,42,27,7,-28,-5
15:14:05:799263,-5,-20,-17,42,27,7,-28,-5
15:14:05:805184,-14,-6,-2,-22,37,-28,-18,-14
15:14:05:813405,9,13,5,-13,23,11,31,7
15:14:05:814205,9,13,5,-13,23,11,31,7
15:14:05:827702,-14,-1,6,-47,-31,-8,29,12
15:14:05:835944,-10,-18,-14,-31,-15,-12,-9,0
15:14:05:836778,-10,-18,-14,-31,-15,-12,-9,0
15:14:05:842731,-17,-1,5,33,-5,-8,-19,-9
15:14:05:858457,-14,2,14,2,-1,-13,-16,-5
15:14:05:859239,-14,2,14,2,-1,-13,-16,-5
15:14:05:865232,-23,-28,13,9,10,24,12,3
15:14:05:873424,16,-15,-33,16,1,5,11,3
15:14:05:874284,16,-15,-33,16,1,5,11,3
15:14:05:887687,-12,-9,-16,-3,1,5,-28,-7
15:14:05:895846,50,30,4,4,3,-5,-2,1
15:14:05:896793,50,30,4,4,3,-5,-2,1
15:14:05:902687,-3,-5,-4,-37,-11,-10,-6,-7
15:14:05:918415,-3,-5,-4,-37,-11,-10,-6,-7
15:14:05:919251,8,3,-11,-48,3,0,-7,-3
15:14:05:925186,2,5,11,31,-10,-12,-2,-1
15:14:05:940958,2,5,11,31,-10,-12,-2,-1
15:14:05:941691,16,18,21,-7,12,4,17,0
15:14:05:947783,-11,-7,24,5,-1,-8,15,2
15:14:05:964015,-11,-7,24,5,-1,-8,15,2
15:14:05:964871,-45,-20,-6,-11,-19,-4,-5,-2
15:14:05:965670,-10,16,1,42,4,7,-7,-20
15:14:05:978489,-10,16,1,42,4,7,-7,-20
15:14:05:979241,-14,-11,6,14,13,12,-1,-2
15:14:05:985190,10,18,-9,-9,-32,-8,14,9
15:14:06:911,10,18,-9,-9,-32,-8,14,9
15:14:06:1761,13,16,-10,20,19,-13,-15,-3
15:14:06:7689,14,6,-1,1,36,2,9,3
15:14:06:16006,14,6,-1,1,36,2,9,3
15:14:06:16816,-3,-33,-37,-12,-19,-5,-1,-1
15:14:06:22709,14,-7,-26,-3,-22,-13,-17,2
15:14:06:38445,14,-7,-26,-3,-22,-13,-17,2
15:14:06:39247,5,10,3,-3,10,2,-8,0
15:14:06:45216,-19,-13,-42,-40,-4,-5,-11,-9
15:14:06:60962,-19,-13,-42,-40,-4,-5,-11,-9
15:14:06:61819,-12,7,3,22,-13,-1,5,-2
15:14:06:67682,13,6,18,-8,7,-8,-15,1
15:14:06:75995,13,6,18,-8,7,-8,-15,1
15:14:06:76792,15,8,0,-4,-10,-11,6,3
15:14:06:82731,-30,-16,-8,-30,-15,2,-24,0
15:14:06:98444,-30,-16,-8,-30,-15,2,-24,0
15:14:06:99261,-14,8,-2,19,29,48,35,10
15:14:06:105206,23,4,9,3,-19,-7,25,6
15:14:06:120963,23,4,9,3,-19,-7,25,6
15:14:06:121765,-31,8,14,-36,-9,-8,-4,-2
15:14:06:127711,-6,6,16,5,-10,1,-8,-5
15:14:06:135910,-6,6,16,5,-10,1,-8,-5
15:14:06:136769,3,-12,24,7,-37,-14,-21,-8
15:14:06:142716,-21,-13,-4,1,-4,23,-6,2
15:14:06:158522,-21,-13,-4,1,-4,23,-6,2
15:14:06:159280,-5,7,12,16,9,-8,-1,9
15:14:06:165203,-6,-5,-6,-7,-30,-28,-20,-11
15:14:06:180915,-6,-5,-6,-7,-30,-28,-20,-11
15:14:06:181797,-7,-21,-16,-9,36,25,78,25
15:14:06:187688,5,-8,7,-10,13,17,2,-1
15:14:06:195885,5,-8,7,-10,13,17,2,-1
15:14:06:196757,0,-7,-6,-24,-30,-26,-38,-11
15:14:06:202694,0,-1,45,-5,9,7,14,-6
15:14:06:218377,0,-1,45,-5,9,7,14,-6
15:14:06:219215,-8,-13,-13,6,5,1,-6,1
15:14:06:225202,45,16,-10,-2,-21,-11,-11,-2
15:14:06:240925,45,16,-10,-2,-21,-11,-11,-2
15:14:06:241743,11,-8,-15,-17,24,12,-20,-11
15:14:06:247774,-3,-12,-9,22,7,-2,12,5
15:14:06:255937,-3,-12,-9,22,7,-2,12,5
15:14:06:256784,-9,1,11,4,15,-12,-1,-10
15:14:06:262678,0,12,8,0,-13,-10,-4,-2
15:14:06:278413,0,12,8,0,-13,-10,-4,-2
15:14:06:279202,-7,-8,-71,-7,-25,0,3,-6
15:14:06:285230,21,2,-9,-27,-11,-9,-11,-1
15:14:06:300922,21,2,-9,-27,-11,-9,-11,-1
15:14:06:301673,0,1,1,14,7,-4,-6,-7
15:14:06:307727,-13,6,2,-29,3,6,5,-3
15:14:06:315902,-13,6,2,-29,3,6,5,-3
15:14:06:316683,-16,5,11,-22,-19,-8,-46,-2
15:14:06:322811,-23,-9,-6,11,2,-19,-13,-6
15:14:06:338391,-23,-9,-6,11,2,-19,-13,-6
15:14:06:339182,-19,0,25,17,-7,-10,-4,4
15:14:06:345209,14,-1,7,12,20,21,9,7
15:14:06:360960,14,-1,7,12,20,21,9,7
15:14:06:361691,16,5,-22,11,-18,-9,-2,-5
15:14:06:367678,2,12,0,28,-3,4,12,1
15:14:06:375890,2,12,0,28,-3,4,12,1
15:14:06:376703,1,7,33,-36,2,5,-3,-5
15:14:06:382801,6,0,0,-2,18,-4,-34,2
15:14:06:398405,6,0,0,-2,18,-4,-34,2
15:14:06:399172,18,6,-1,6,18,-1,39,2
15:14:06:405212,-30,-32,-5,-14,-36,-28,-17,-10
15:14:06:421010,-30,-32,-5,-14,-36,-28,-17,-10
15:14:06:421781,14,4,-14,15,34,3,-4,-1
15:14:06:427706,-1,4,-34,21,22,4,8,1
15:14:06:435687,-1,4,-34,21,22,4,8,1
15:14:06:442732,8,3,2,-7,-37,-8,5,-1
15:14:06:450249,-3,1,-16,-5,14,-3,7,4
15:14:06:458465,-3,1,-16,-5,14,-3,7,4
15:14:06:459212,-1,-11,14,0,-8,13,-16,-6
15:14:06:465235,-16,13,31,-3,11,27,42,0
15:14:06:472824,-16,13,31,-3,11,27,42,0
15:14:06:480246,-7,-17,-3,1,-43,-26,-5,1
15:14:06:487674,4,-11,5,-32,-6,-7,-9,-2
15:14:06:495899,4,-11,5,-32,-6,-7,-9,-2
15:14:06:496775,2,18,40,36,1,8,-1,-2
15:14:06:510211,-4,-1,-4,-4,-13,-15,-9,-2
15:14:06:518415,-4,-1,-4,-4,-13,-15,-9,-2
15:14:06:519252,-16,-5,38,-1,-2,19,1,-2
15:14:06:525226,19,2,-1,-21,5,5,3,0
15:14:06:532818,19,2,-1,-21,5,5,3,0
15:14:06:540224,-8,-4,-14,-3,26,-11,-5,-6
15:14:06:547720,-60,-13,3,10,-6,-7,-26,-4
15:14:06:556125,-60,-13,3,10,-6,-7,-26,-4
15:14:06:556836,-1,-4,-38,-3,9,6,0,5
15:14:06:570243,-5,-9,24,44,28,20,-24,-7
15:14:06:578460,-5,-9,24,44,28,20,-24,-7
15:14:06:579207,-7,4,-3,3,-1,-13,3,-6
15:14:06:585205,24,4,54,40,-22,-16,-1,-2
15:14:06:592789,24,4,54,40,-22,-16,-1,-2
15:14:06:600181,4,1,9,37,5,14,5,4
15:14:06:607695,-3,-8,-15,6,-3,-2,1,-6
15:14:06:615968,-3,-8,-15,6,-3,-2,1,-6
15:14:06:616780,-3,-4,-15,-2,-13,-13,-5,1
15:14:06:630187,-5,-1,-11,-19,47,23,24,7
15:14:06:638446,-5,-1,-11,-19,47,23,24,7
15:14:06:639270,-38,-12,-33,-4,6,0,9,-8
15:14:06:645256,31,15,-6,-13,-2,-22,-30,-5
15:14:06:652758,31,15,-6,-13,-2,-22,-30,-5
15:14:06:660237,-4,5,-2,-29,-12,-1,4,-5
15:14:06:667701,10,10,-34,21,22,4,13,6
15:14:06:675932,10,10,-34,21,22,4,13,6
15:14:06:676723,11,-2,-5,-12,21,-1,-10,0
15:14:06:690256,-14,-2,-6,-41,-35,-3,1,2
15:14:06:698402,-14,-2,-6,-41,-35,-3,1,2
15:14:06:699207,-1,-7,-13,-13,-17,-9,-22,-5
15:14:06:705203,-9,-19,-15,-3,-12,27,12,-11
15:14:06:712790,-9,-19,-15,-3,-12,27,12,-11
15:14:06:720160,-1,-3,-4,-11,-12,-8,-11,-14
15:14:06:727736,-8,6,-14,0,2,-10,1,-5
15:14:06:735891,-8,6,-14,0,2,-10,1,-5
15:14:06:736716,10,5,13,12,-3,-1,2,7
15:14:06:750245,-33,-1,-8,-27,-13,1,13,4
15:14:06:758482,-33,-1,-8,-27,-13,1,13,4
15:14:06:759231,-7,-1,24,8,7,3,0,5
15:14:06:765222,11,2,16,15,13,-5,-9,1
15:14:06:772826,11,2,16,15,13,-5,-9,1
15:14:06:780176,0,-3,34,-11,-20,-10,-2,1
15:14:06:787709,36,-4,-12,-12,12,-7,-38,2
15:14:06:795915,36,-4,-12,-12,12,-7,-38,2
15:14:06:796824,-23,8,13,20,2,-8,1,-13
15:14:06:810199,18,3,10,8,-34,6,12,7
15:14:06:818404,18,3,10,8,-34,6,12,7
15:14:06:819203,7,-5,-23,-2,18,25,8,15
15:14:06:825198,-11,-5,2,41,-38,-23,-2,-7
15:14:06:832810,-11,-5,2,41,-38,-23,-2,-7
15:14:06:840224,6,0,7,-20,38,11,7,2
15:14:06:847678,10,5,-2,16,25,4,18,1
15:14:06:855938,10,5,-2,16,25,4,18,1
15:14:06:856792,4,-9,-33,24,-4,-10,-6,-3
15:14:06:870220,-8,14,-7,-4,-4,20,5,-10
15:14:06:878435,-8,14,-7,-4,-4,20,5,-10
15:14:06:879210,-14,-31,24,-26,-32,-15,8,1
15:14:06:885183,-27,-19,-65,8,-34,-36,-33,-6
15:14:06:892807,-27,-19,-65,8,-34,-36,-33,-6
15:14:06:900222,18,-10,-1,-11,11,25,38,9
15:14:06:907731,4,7,-5,-8,12,-1,0,3
15:14:06:915907,4,7,-5,-8,12,-1,0,3
15:14:06:916712,5,17,-5,3,-22,-20,-25,-7
15:14:06:930198,9,0,30,-31,9,7,3,3
15:14:06:938437,9,0,30,-31,9,7,3,3
15:14:06:939220,-4,5,-7,10,15,4,0,-4
15:14:06:945208,-8,-3,-53,-34,5,23,6,2
15:14:06:952705,-8,-3,-53,-34,5,23,6,2
15:14:06:960246,1,15,6,33,8,-1,6,-11
15:14:06:967699,-3,-3,7,66,27,-4,10,4
15:14:06:975922,-3,-3,7,66,27,-4,10,4
15:14:06:976709,14,8,-20,-24,7,3,-17,2
15:14:06:990256,-13,3,21,-11,-30,-6,3,2
15:14:06:998421,-13,3,21,-11,-30,-6,3,2
15:14:06:999212,-9,-13,11,12,-6,2,2,-2
15:14:07:5235,-22,-4,4,-13,3,11,40,6
15:14:07:12799,-22,-4,4,-13,3,11,40,6
15:14:07:20246,5,-8,-11,19,-18,-9,-4,4
15:14:07:27743,-12,-16,13,31,22,3,-14,-5
15:14:07:35980,-12,-16,13,31,22,3,-14,-5
15:14:07:36718,-2,17,20,0,-18,-4,-8,1
15:14:07:50252,23,8,19,-2,1,-4,1,-2
15:14:07:58470,23,8,19,-2,1,-4,1,-2
15:14:07:59205,-32,-3,16,-5,19,14,-2,-1
15:14:07:65190,0,14,22,-32,2,-8,-10,-6
15:14:07:72822,0,14,22,-32,2,-8,-10,-6
15:14:07:80185,20,5,16,19,10,-11,-1,3
15:14:07:87670,-1,-6,-11,11,5,-6,-13,0
15:14:07:95928,-1,-6,-11,11,5,-6,-13,0
15:14:07:96808,2,-3,-18,1,-27,-9,25,7
15:14:07:110187,17,17,14,5,35,7,-4,-2
15:14:07:118391,17,17,14,5,35,7,-4,-2
15:14:07:119227,-49,-14,-18,-17,-13,-10,-12,-4
15:14:07:125203,17,6,13,-19,-26,21,32,0
15:14:07:132805,17,6,13,-19,-26,21,32,0
15:14:07:140244,-19,6,-15,-15,17,14,70,42
15:14:07:147712,-14,-13,6,1,0,-18,-31,-24
15:14:07:155977,-14,-13,6,1,0,-18,-31,-24
15:14:07:156832,19,11,6,-4,-6,-5,-32,-5
15:14:07:170237,-5,5,22,-15,-9,-14,-12,-8
15:14:07:178445,-5,5,22,-15,-9,-14,-12,-8
15:14:07:179189,49,11,-16,-25,8,17,-8,6
15:14:07:185182,-5,-11,6,47,18,2,2,4
15:14:07:192818,-5,-11,6,47,18,2,2,4
15:14:07:200210,-10,-24,-21,-6,-18,-27,-9,-15
15:14:07:207735,27,-4,-13,-14,-4,6,12,6
15:14:07:215875,27,-4,-13,-14,-4,6,12,6
15:14:07:216684,2,2,5,10,-2,-9,26,18
15:14:07:230200,-5,-12,-12,-7,-21,-6,-36,-8
15:14:07:238411,-5,-12,-12,-7,-21,-6,-36,-8
15:14:07:239246,-45,-16,-11,-34,-30,-18,-48,-22
15:14:07:245219,-2,-5,-43,2,9,-3,6,2
15:14:07:252767,-2,-5,-43,2,9,-3,6,2
15:14:07:260230,21,10,7,-16,8,23,-1,0
15:14:07:267699,-15,-6,26,43,9,9,-2,-1
15:14:07:275910,-15,-6,26,43,9,9,-2,-1
15:14:07:276668,8,-16,12,14,7,4,19,0
15:14:07:290248,-26,-1,19,-18,-15,-7,-1,0
15:14:07:298424,-26,-1,19,-18,-15,-7,-1,0
15:14:07:299220,-24,-10,-21,9,9,-7,5,0
15:14:07:305235,39,19,11,-6,14,1,12,-6
15:14:07:312802,39,19,11,-6,14,1,12,-6
15:14:07:320178,3,-2,24,2,-5,-26,-50,-30
15:14:07:327708,-10,-16,-54,-19,9,29,22,14
15:14:07:335868,-10,-16,-54,-19,9,29,22,14
15:14:07:336739,27,15,0,-1,19,6,-14,5
15:14:07:350246,6,15,14,-13,-4,-5,4,6
15:14:07:358443,6,15,14,-13,-4,-5,4,6
15:14:07:359208,14,4,7,21,-7,7,4,-2
15:14:07:373423,9,0,-27,-17,-32,-11,-18,-10
15:14:07:374242,9,0,-27,-17,-32,-11,-18,-10
15:14:07:380221,-17,6,16,5,21,9,38,24
15:14:07:387717,26,9,-5,2,2,-17,12,4
15:14:07:395232,26,9,-5,2,2,-17,12,4
15:14:07:402679,-89,-22,8,-2,4,-12,-3,-46
15:14:07:410196,-15,-5,-4,30,9,0,-2,-4
15:14:07:418420,-15,-5,-4,30,9,0,-2,-4
15:14:07:419193,32,13,-42,-8,-11,10,-3,8
15:14:07:433408,-13,-11,21,-15,14,-9,-12,-6
15:14:07:434229,-13,-11,21,-15,14,-9,-12,-6
15:14:07:440171,19,-1,18,14,9,12,-3,0
15:14:07:447648,-3,13,0,-2,-17,-8,-6,5
15:14:07:455259,-3,13,0,-2,-17,-8,-6,5
15:14:07:462674,-48,-4,-6,-13,-17,13,37,28
15:14:07:470180,-2,-19,3,-11,18,-2,2,-7
15:14:07:478429,-2,-19,3,-11,18,-2,2,-7
15:14:07:479207,55,-4,3,-11,11,8,1,11
15:14:07:493391,-11,-8,-18,-29,-22,-18,-13,-2
15:14:07:494196,-11,-8,-18,-29,-22,-18,-13,-2
15:14:07:500183,32,10,6,-11,-23,-13,-10,-11
15:14:07:507719,42,3,-11,-8,19,14,-1,-2
15:14:07:515300,42,3,-11,-8,19,14,-1,-2
15:14:07:522740,-12,-10,-4,4,-7,-16,-19,-11
15:14:07:530218,-10,4,9,-15,-10,3,9,4
15:14:07:538391,-10,4,9,-15,-10,3,9,4
15:14:07:539232,53,25,-4,2,-1,15,44,9
15:14:07:553399,-10,-11,1,15,13,8,14,7
15:14:07:554250,-10,-11,1,15,13,8,14,7
15:14:07:560223,-13,-10,6,-27,-24,-23,-32,-16
15:14:07:567692,-3,10,-23,-7,-25,-1,13,4
15:14:07:575352,-3,10,-23,-7,-25,-1,13,4
15:14:07:582733,35,6,11,1,-9,-10,-17,-3
15:14:07:590224,-27,-14,9,9,0,1,-11,-1
15:14:07:598405,-27,-14,9,9,0,1,-11,-1
15:14:07:599225,-6,-9,-1,-5,-27,2,-18,-3
15:14:07:613348,5,4,16,1,-17,0,-15,1
15:14:07:614211,5,4,16,1,-17,0,-15,1
15:14:07:620249,-9,8,1,16,43,22,47,3
15:14:07:627732,-8,6,37,30,-18,-19,-13,-8
15:14:07:635229,-8,6,37,30,-18,-19,-13,-8
15:14:07:642721,5,5,-7,-10,-7,3,-9,4
15:14:07:650233,23,10,-21,-31,-38,-7,3,-2
15:14:07:658459,23,10,-21,-31,-38,-7,3,-2
15:14:07:659217,-14,-26,-2,-15,23,16,-17,-10
15:14:07:673416,-11,8,-3,-6,5,3,1,2
15:14:07:674205,-11,8,-3,-6,5,3,1,2
15:14:07:680203,-12,-10,1,-12,-2,-17,-30,-1
15:14:07:687721,-12,-2,-18,3,14,21,-1,-10
15:14:07:695232,-12,-2,-18,3,14,21,-1,-10
15:14:07:702716,-13,-12,9,11,-7,-9,-14,-14
15:14:07:710180,-22,-12,-15,-56,-42,-7,-10,-6
15:14:07:718402,-22,-12,-15,-56,-42,-7,-10,-6
15:14:07:719209,-27,9,-3,9,-17,0,2,4
15:14:07:733401,-3,5,-13,12,15,8,-9,1
15:14:07:734189,-3,5,-13,12,15,8,-9,1
15:14:07:740191,-25,-17,2,-27,-12,-15,1,-2
15:14:07:747665,1,-15,11,8,4,7,19,9
15:14:07:755249,1,-15,11,8,4,7,19,9
15:14:07:762689,-25,-1,-9,26,-1,-5,-10,-5
15:14:07:770194,-26,-9,33,-17,10,-6,-5,3
15:14:07:778431,-26,-9,33,-17,10,-6,-5,3
15:14:07:779213,24,20,-9,-7,-3,-3,7,6
15:14:07:793416,11,3,-6,5,36,5,5,-2
15:14:07:794239,11,3,-6,5,36,5,5,-2
15:14:07:800203,0,-18,-15,13,11,0,-31,-10
15:14:07:807750,14,11,-10,12,-41,-7,90,34
15:14:07:815300,14,11,-10,12,-41,-7,90,34
15:14:07:822753,4,-19,6,10,29,19,7,-1
15:14:07:830229,5,10,-20,39,-6,-12,-25,-4
15:14:07:838390,5,10,-20,39,-6,-12,-25,-4
15:14:07:839192,4,-9,-19,44,-5,-13,-13,-16
15:14:07:853435,-1,1,29,-1,-1,-2,-8,-4
15:14:07:854256,-1,1,29,-1,-1,-2,-8,-4
15:14:07:860225,11,12,-35,-19,-19,-13,2,4
15:14:07:867703,-10,7,1,-1,20,13,-5,-3
15:14:07:875327,-10,7,1,-1,20,13,-5,-3
15:14:07:882744,14,-11,-5,-25,-2,7,5,1
15:14:07:890254,13,-2,8,-13,-12,13,-30,-6
15:14:07:898426,13,-2,8,-13,-12,13,-30,-6
15:14:07:899233,6,9,28,-34,20,17,8,8
15:14:07:913406,9,-15,-11,-1,-3,-13,-32,-10
15:14:07:914205,9,-15,-11,-1,-3,-13,-32,-10
15:14:07:920252,4,25,-4,2,-18,-1,0,1
15:14:07:927732,-23,-7,-17,33,49,20,9,-3
15:14:07:935205,-23,-7,-17,33,49,20,9,-3
15:14:07:942695,-28,-9,-2,-9,-2,-13,9,0
15:14:07:950201,-7,1,-2,-6,-12,-14,21,0
15:14:07:958425,-7,1,-2,-6,-12,-14,21,0
15:14:07:959217,-6,-10,8,14,10,12,-25,-3
15:14:07:973445,3,9,20,3,7,21,83,18
15:14:07:974227,3,9,20,3,7,21,83,18
15:14:07:980145,22,2,12,-16,-5,-25,22,10
15:14:07:987696,11,-18,-34,18,50,-10,-31,-6
15:14:07:995294,11,-18,-34,18,50,-10,-31,-6
15:14:08:2689,-1,12,20,67,-4,2,6,0
15:14:08:10182,0,-2,-14,-17,-36,-21,-21,-10
15:14:08:18415,0,-2,-14,-17,-36,-21,-21,-10
15:14:08:19226,7,12,4,-10,-8,-7,-11,6
15:14:08:33413,17,0,17,8,-6,1,6,4
15:14:08:34233,17,0,17,8,-6,1,6,4
15:14:08:40208,-23,-15,10,-12,-10,2,-10,-13
15:14:08:47658,-42,0,-6,14,-5,-8,-17,-3
15:14:08:55223,-42,0,-6,14,-5,-8,-17,-3
15:14:08:62677,-2,8,-10,7,21,19,11,-3
15:14:08:70196,-15,-3,18,-17,-24,1,-3,-1
15:14:08:78435,-15,-3,18,-17,-24,1,-3,-1
15:14:08:79230,6,11,15,3,-4,19,6,8
15:14:08:93411,17,22,-7,-19,-19,-16,-12,-9
15:14:08:94252,17,22,-7,-19,-19,-16,-12,-9
15:14:08:100201,34,8,-6,-10,12,-6,-11,-7
15:14:08:107769,19,-9,20,-51,-12,-14,-15,3
15:14:08:115297,19,-9,20,-51,-12,-14,-15,3
15:14:08:122730,13,4,-1,-10,-17,-5,-8,-1
15:14:08:130221,18,1,-41,-20,4,3,3,5
15:14:08:138404,18,1,-41,-20,4,3,3,5
15:14:08:139194,3,-8,1,18,-2,-5,4,2
15:14:08:153420,-2,7,13,11,11,-5,1,-8
15:14:08:154247,-2,7,13,11,11,-5,1,-8
15:14:08:160221,-17,-5,-2,10,18,25,27,20
15:14:08:167679,-10,-36,-7,2,-11,-5,-11,-5
15:14:08:175301,-10,-36,-7,2,-11,-5,-11,-5
15:14:08:182765,9,7,-5,-20,-26,-16,-8,0
15:14:08:190273,-16,-19,-27,-34,-3,0,-9,-10
15:14:08:198434,-16,-19,-27,-34,-3,0,-9,-10
15:14:08:199227,-18,-7,-4,-13,-4,-5,-12,-13
15:14:08:213404,7,10,10,1,-14,-3,11,4
15:14:08:214220,7,10,10,1,-14,-3,11,4
15:14:08:220239,31,-6,-11,9,30,-1,-50,-22
15:14:08:227720,-10,1,17,20,1,-2,14,3
15:14:08:235219,-10,1,17,20,1,-2,14,3
15:14:08:242681,-31,-23,10,-44,0,-12,3,-3
15:14:08:250220,19,10,10,19,9,1,-13,-1
15:14:08:258445,19,10,10,19,9,1,-13,-1
15:14:08:259202,-5,5,20,-22,-26,-11,-13,-5
15:14:08:273437,2,9,-1,25,4,33,15,5
15:14:08:274201,2,9,-1,25,4,33,15,5
15:14:08:280170,37,22,-5,11,9,10,36,15
15:14:08:287670,-5,-19,-2,-3,-9,-29,-12,2
15:14:08:295244,-5,-19,-2,-3,-9,-29,-12,2
15:14:08:302696,-8,-10,-6,9,-15,1,-2,1
15:14:08:310208,4,2,28,58,25,5,-7,-5
15:14:08:317857,4,2,28,58,25,5,-7,-5
15:14:08:325244,-10,1,-31,2,-2,-19,-16,-9
15:14:08:333416,10,11,-4,-20,8,8,23,6
15:14:08:334204,10,11,-4,-20,8,8,23,6
15:14:08:340233,11,11,2,10,-19,-4,7,-4
15:14:08:355971,-6,-22,-9,9,5,8,-13,-8
15:14:08:356817,-6,-22,-9,9,5,8,-13,-8
15:14:08:362681,-14,2,-5,4,32,-8,-5,-9
15:14:08:370230,-24,4,29,4,-15,-23,-24,-14
15:14:08:377844,-24,4,29,4,-15,-23,-24,-14
15:14:08:385204,10,-12,-7,1,-10,11,61,15
15:14:08:393374,-2,-3,22,-7,6,-1,5,4
15:14:08:394207,-2,-3,22,-7,6,-1,5,4
15:14:08:400189,-17,-5,-10,-8,-7,-5,-8,1
15:14:08:415954,10,-5,-35,18,14,12,-23,-11
15:14:08:416801,10,-5,-35,18,14,12,-23,-11
15:14:08:422724,13,5,-6,-1,-1,11,-8,2
15:14:08:430211,-14,-1,-20,-14,30,6,3,8
15:14:08:437760,-14,-1,-20,-14,30,6,3,8
15:14:08:445226,-4,-16,2,2,-8,-10,-5,-2
15:14:08:453369,40,11,2,-5,-11,9,17,0
15:14:08:454238,40,11,2,-5,-11,9,17,0
15:14:08:460178,-5,8,-20,1,11,4,-50,-10
15:14:08:475885,-3,14,26,-30,-16,-13,-18,-4
15:14:08:476690,-3,14,26,-30,-16,-13,-18,-4
15:14:08:482742,0,-16,6,58,-22,-12,-11,-1
15:14:08:490239,1,11,5,5,-6,22,4,-5
15:14:08:497713,1,11,5,5,-6,22,4,-5
15:14:08:505179,-16,-4,15,8,-35,-7,0,-2
15:14:08:513389,-6,-3,-17,-19,-23,-6,-4,-4
15:14:08:514179,-6,-3,-17,-19,-23,-6,-4,-4
15:14:08:520216,-4,13,0,-23,-4,-9,13,2
15:14:08:535910,-12,-10,4,-2,-7,-12,-8,-1
15:14:08:536722,-12,-10,4,-2,-7,-12,-8,-1
15:14:08:542693,-17,-3,-11,6,23,13,-28,-9
15:14:08:550198,-33,1,23,7,-2,-4,-13,-2
15:14:08:557864,-33,1,23,7,-2,-4,-13,-2
15:14:08:565147,43,-2,25,4,16,-35,-90,-28
15:14:08:573463,-3,-2,-26,7,-13,1,26,0
15:14:08:574234,-3,-2,-26,7,-13,1,26,0
15:14:08:580202,-13,-10,-27,-9,-2,7,27,4
15:14:08:596382,15,2,-15,-23,20,-3,0,2
15:14:08:597206,15,2,-15,-23,20,-3,0,2
15:14:08:602723,-5,7,-3,-11,1,-1,4,3
15:14:08:610197,-27,-6,-31,-6,3,4,10,-2
15:14:08:617796,-27,-6,-31,-6,3,4,10,-2
15:14:08:625223,-51,-24,-5,-12,-4,-6,-3,-12
15:14:08:633401,-22,-13,20,-4,-13,-3,11,24
15:14:08:634205,-22,-13,20,-4,-13,-3,11,24
15:14:08:640230,1,1,1,15,23,9,16,2
15:14:08:655681,11,5,0,-41,36,2,-6,6
15:14:08:663455,11,5,0,-41,36,2,-6,6
15:14:08:664221,-1,-4,-24,-37,26,19,24,5
15:14:08:670235,19,-6,-11,-1,-8,-13,-2,2
15:14:08:677799,19,-6,-11,-1,-8,-13,-2,2
15:14:08:685190,-1,2,28,-7,-22,-9,4,0
15:14:08:693371,-38,-22,1,16,-13,1,-6,-18
15:14:08:694178,-38,-22,1,16,-13,1,-6,-18
15:14:08:700187,4,-13,2,9,-7,-1,19,12
15:14:08:715935,8,0,-4,-10,6,-17,6,-4
15:14:08:716789,8,0,-4,-10,6,-17,6,-4
15:14:08:722780,23,34,38,-3,6,32,56,25
15:14:08:730214,3,1,-9,13,-36,-24,-24,-13
15:14:08:737736,3,1,-9,13,-36,-24,-24,-13
15:14:08:745217,17,15,-17,-5,-21,-5,-22,-17
15:14:08:753401,1,2,-60,-14,4,9,1,-4
15:14:08:754188,1,2,-60,-14,4,9,1,-4
15:14:08:760147,-15,-2,2,23,19,7,-14,-7
15:14:08:775922,10,9,7,-5,-13,-17,-11,-2
15:14:08:776684,10,9,7,-5,-13,-17,-11,-2
15:14:08:782736,-17,-18,-20,-14,7,10,23,5
15:14:08:790261,-8,1,13,-25,15,7,-11,-1
15:14:08:797737,-8,1,13,-25,15,7,-11,-1
15:14:08:805147,7,0,-10,-24,-29,-24,-13,-3
15:14:08:813401,8,6,14,12,-2,22,4,0
15:14:08:814231,8,6,14,12,-2,22,4,0
15:14:08:820187,-3,-13,-5,11,32,20,57,18
15:14:08:835963,17,11,-37,8,-8,-6,-4,1
15:14:08:836760,17,11,-37,8,-8,-6,-4,1
15:14:08:842701,3,-3,-25,-15,-4,-14,-29,-8
15:14:08:850211,-15,-12,33,4,-11,5,6,-1
15:14:08:857884,-15,-12,33,4,-11,5,6,-1
15:14:08:874127,29,14,15,10,19,7,-10,-5
15:14:08:874910,0,6,23,21,13,5,1,-1
15:14:08:875722,0,6,23,21,13,5,1,-1
15:14:08:880216,-5,-11,4,-12,9,-11,5,2
15:14:08:895890,1,-5,-23,-8,28,1,-6,7
15:14:08:896704,1,-5,-23,-8,28,1,-6,7
15:14:08:902807,-8,8,7,1,-20,-19,-36,-20
15:14:08:910256,-18,-26,-43,12,-23,-18,-20,-8
15:14:08:917754,-18,-26,-43,12,-23,-18,-20,-8
15:14:08:925217,8,-13,26,5,-20,0,5,10
15:14:08:933382,4,11,32,18,-39,-9,-1,-3
15:14:08:934200,4,11,32,18,-39,-9,-1,-3
15:14:08:940180,-29,-17,-6,-22,-1,28,-3,0
15:14:08:955900,28,16,6,-8,10,12,28,0
15:14:08:956703,28,16,6,-8,10,12,28,0
15:14:08:962683,-14,21,-1,-1,-12,-9,-20,-5
15:14:08:970159,-2,-24,9,11,7,-2,3,2
15:14:08:977744,-2,-24,9,11,7,-2,3,2
15:14:08:985194,55,18,-16,-1,-45,-18,-16,8
15:14:08:993443,-3,4,1,-7,54,24,-4,-4
15:14:08:994227,-3,4,1,-7,54,24,-4,-4
15:14:09:159,4,-4,23,-15,19,5,11,2
15:14:09:15917,15,30,26,-7,-31,-17,-15,-3
15:14:09:16688,15,30,26,-7,-31,-17,-15,-3
15:14:09:22691,-18,-5,6,7,-6,-8,8,-7
15:14:09:30192,-6,-3,4,-1,-4,8,28,5
15:14:09:37832,-6,-3,4,-1,-4,8,28,5
15:14:09:45197,-23,-12,-10,4,-25,-20,27,-4
15:14:09:53435,-1,-8,2,16,60,44,-1,16
15:14:09:54273,-1,-8,2,16,60,44,-1,16
15:14:09:60214,8,-3,31,9,1,0,-14,-2
15:14:09:75934,-1,-28,-49,-8,-45,-30,-17,-10
15:14:09:76806,-1,-28,-49,-8,-45,-30,-17,-10
15:14:09:82710,-14,-5,-14,36,8,-1,-2,1
15:14:09:90182,20,16,18,-5,1,-9,-12,3
15:14:09:97793,20,16,18,-5,1,-9,-12,3
15:14:09:105206,-17,5,0,13,53,11,9,8
15:14:09:113392,-9,3,17,1,-2,-2,-16,-7
15:14:09:114236,-9,3,17,1,-2,-2,-16,-7
15:14:09:120237,-2,-4,-8,-5,-2,-24,-2,-4
15:14:09:135856,25,-2,-1,-1,5,1,36,12
15:14:09:136722,25,-2,-1,-1,5,1,36,12
15:14:09:142750,-55,-20,12,6,13,26,12,13
15:14:09:150210,-8,0,6,-5,-38,-23,-17,-15
15:14:09:157814,-8,0,6,-5,-38,-23,-17,-15
15:14:09:165221,18,9,-26,73,82,33,12,1
15:14:09:173444,-18,-2,24,13,-11,1,-4,-1
15:14:09:174214,-18,-2,24,13,-11,1,-4,-1
15:14:09:180180,-6,11,2,-24,-32,-21,-22,-5
15:14:09:195867,-15,-5,-22,-15,14,-11,8,4
15:14:09:196700,-15,-5,-22,-15,14,-11,8,4
15:14:09:202650,50,15,-3,-21,-3,15,22,-2
15:14:09:210221,6,1,6,-17,-37,-16,3,0
15:14:09:217754,6,1,6,-17,-37,-16,3,0
15:14:09:225234,-2,3,32,-4,-2,-3,-18,-3
15:14:09:233415,-7,-6,-26,-15,-10,1,-1,-3
15:14:09:234204,-7,-6,-26,-15,-10,1,-1,-3
15:14:09:247701,-3,8,-23,-37,-20,5,7,3
15:14:09:255958,3,-15,-5,10,16,5,-13,-2
15:14:09:256756,3,-15,-5,10,16,5,-13,-2
15:14:09:262698,-1,0,18,-29,-17,-40,-39,-8
15:14:09:278443,-1,0,18,-29,-17,-40,-39,-8
15:14:09:279243,8,8,0,14,35,-4,-2,-4
15:14:09:285144,-2,-19,-6,5,-4,-17,-14,-10
15:14:09:293452,-2,-19,-6,5,-4,-17,-14,-10
15:14:09:294224,5,2,-10,-7,-5,10,11,2
15:14:09:307779,-30,-16,-5,5,-36,-2,-6,-4
15:14:09:315937,-30,-16,-5,5,-36,-2,-6,-4
15:14:09:316695,-25,-19,-8,-33,-9,10,6,0
15:14:09:322651,1,-14,-53,-18,-11,-4,-7,-7
15:14:09:338397,1,-14,-53,-18,-11,-4,-7,-7
15:14:09:339152,-14,-3,10,-2,21,15,-6,12
15:14:09:345218,-6,-8,-7,8,18,0,2,-2
15:14:09:353443,-6,-8,-7,8,18,0,2,-2
15:14:09:354208,9,6,11,1,-3,-6,27,9
15:14:09:367724,-16,0,-1,1,13,10,52,2
15:14:09:375899,-16,0,-1,1,13,10,52,2
15:14:09:376713,16,-1,5,-6,-20,-12,-19,-10
15:14:09:382719,9,16,25,-6,1,0,-13,-1
15:14:09:398421,9,16,25,-6,1,0,-13,-1
15:14:09:399198,-22,-3,4,26,7,9,-9,-9
15:14:09:405209,8,-4,-4,-1,10,3,-14,0
15:14:09:413394,8,-4,-4,-1,10,3,-14,0
15:14:09:414210,27,17,-30,-9,13,12,4,1
15:14:09:427799,-27,-28,2,13,-36,-10,0,5
15:14:09:435914,-27,-28,2,13,-36,-10,0,5
15:14:09:436719,39,7,10,39,40,26,89,38
15:14:09:442760,9,5,5,-20,-30,-2,1,-5
15:14:09:458550,9,5,5,-20,-30,-2,1,-5
15:14:09:459249,25,-2,20,5,-30,-23,-13,-6
15:14:09:465233,-13,-2,2,-11,3,12,-10,-18
15:14:09:473395,-13,-2,2,-11,3,12,-10,-18
15:14:09:474197,-30,-15,-11,-37,-26,-12,-31,-20
15:14:09:487717,3,5,3,-7,40,5,-11,-1
15:14:09:495925,3,5,3,-7,40,5,-11,-1
15:14:09:496841,2,2,-27,-4,-19,-15,-40,-14
15:14:09:502736,31,16,-33,8,-3,3,35,16
15:14:09:518414,31,16,-33,8,-3,3,35,16
15:14:09:519278,-19,-25,13,-5,-10,-15,-15,-11
15:14:09:525193,-47,3,21,-7,-12,-8,-9,0
15:14:09:533436,-47,3,21,-7,-12,-8,-9,0
15:14:09:534226,-22,9,3,9,-1,-3,-17,-22
15:14:09:547676,15,-10,-3,37,-9,13,15,9
15:14:09:555927,15,-10,-3,37,-9,13,15,9
15:14:09:556826,-22,5,34,-4,-10,-3,3,5
15:14:09:562681,24,1,-20,-6,-2,7,20,11
15:14:09:578434,24,1,-20,-6,-2,7,20,11
15:14:09:579197,6,-2,-10,11,2,-12,17,5
15:14:09:585180,10,-1,16,33,-13,-20,-73,-20
15:14:09:593426,10,-1,16,33,-13,-20,-73,-20
15:14:09:594209,-26,-7,-43,-14,-4,10,10,6
15:14:09:607746,11,16,24,-13,-30,21,9,-12
15:14:09:615973,11,16,24,-13,-30,21,9,-12
15:14:09:616739,13,4,5,50,-29,-15,-15,-6
15:14:09:622696,1,11,3,-9,16,-1,-3,2
15:14:09:638469,1,11,3,-9,16,-1,-3,2
15:14:09:639237,3,-1,-39,-17,6,1,3,-2
15:14:09:645206,-13,-1,-18,-20,-17,-12,1,-2
15:14:09:653443,-13,-1,-18,-20,-17,-12,1,-2
15:14:09:654257,-8,-22,21,-4,44,-13,-14,7
15:14:09:667657,-10,5,-7,-16,2,-11,30,0
15:14:09:675910,-10,5,-7,-16,2,-11,30,0
15:14:09:676713,30,19,16,-2,-22,-16,-35,-7
15:14:09:682700,13,-10,2,-18,-10,-23,-35,3
15:14:09:698395,13,-10,2,-18,-10,-23,-35,3
15:14:09:699211,-1,1,5,-9,35,27,-4,-20
15:14:09:705169,-14,-4,-32,1,15,-9,-10,-7
15:14:09:713419,-14,-4,-32,1,15,-9,-10,-7
15:14:09:714209,-10,-13,-1,-38,-12,7,-2,4
15:14:09:727671,-2,4,0,0,-22,-10,-5,-1
15:14:09:735929,-2,4,0,0,-22,-10,-5,-1
15:14:09:736693,-14,-3,-3,5,15,31,23,9
15:14:09:742710,32,6,9,10,17,3,-11,-1
15:14:09:758473,32,6,9,10,17,3,-11,-1
15:14:09:759241,-6,11,-5,3,-20,-13,-49,-14
15:14:09:765160,41,6,21,3,12,23,12,11
15:14:09:773493,41,6,21,3,12,23,12,11
15:14:09:774209,1,-12,5,5,6,17,7,5
15:14:09:787698,-12,-6,-6,-4,-11,-6,13,1
15:14:09:795881,-12,-6,-6,-4,-11,-6,13,1
15:14:09:796670,1,0,19,52,7,-6,12,12
15:14:09:802721,10,0,-18,45,21,-2,9,-2
15:14:09:818396,10,0,-18,45,21,-2,9,-2
15:14:09:819197,7,2,41,-14,14,1,1,0
15:14:09:825246,-21,-22,-1,-17,6,-9,8,-1
15:14:09:833379,-21,-22,-1,-17,6,-9,8,-1
15:14:09:834209,8,7,-13,-24,-12,5,22,10
15:14:09:847766,-14,3,-22,-28,-13,-12,-18,-9
15:14:09:855916,-14,3,-22,-28,-13,-12,-18,-9
15:14:09:856680,3,14,-7,-14,-10,-4,33,6
15:14:09:862695,-21,-4,4,30,19,27,21,3
15:14:09:878403,-21,-4,4,30,19,27,21,3
15:14:09:879195,-1,-5,39,-2,26,6,6,-6
15:14:09:885212,-3,-9,8,-22,14,-4,-2,-3
15:14:09:893437,-3,-9,8,-22,14,-4,-2,-3
15:14:09:894223,-6,14,-9,30,-19,-10,-13,-6
15:14:09:907788,-22,-6,-24,-27,-22,-10,-12,4
15:14:09:915920,-22,-6,-24,-27,-22,-10,-12,4
15:14:09:916673,-15,-13,-23,-34,13,17,8,-7
15:14:09:922785,3,1,14,1,29,2,-8,2
15:14:09:938511,3,1,14,1,29,2,-8,2
15:14:09:939266,-5,-13,-29,6,3,-12,15,10
15:14:09:945241,25,4,23,-8,-37,-19,1,5
15:14:09:953406,25,4,23,-8,-37,-19,1,5
15:14:09:954225,-8,-3,4,2,57,21,-11,-4
15:14:09:967692,-15,-9,14,35,6,-4,-5,-3
15:14:09:975892,-15,-9,14,35,6,-4,-5,-3
15:14:09:976707,-3,7,23,13,-16,-19,-7,-6
15:14:09:982733,-6,1,1,-11,-13,1,-5,-4
15:14:09:998449,-6,1,1,-11,-13,1,-5,-4
15:14:09:999270,34,29,-27,-30,-38,41,96,59
15:14:10:5227,-6,-16,2,35,18,11,-1,-26
15:14:10:13393,-6,-16,2,35,18,11,-1,-26
15:14:10:14191,-17,-32,-8,-5,-59,-33,-46,-14
15:14:10:27718,12,11,-28,-14,-11,18,17,10
15:14:10:35961,12,11,-28,-14,-11,18,17,10
15:14:10:36809,9,-17,-11,4,-8,-11,-14,-2
15:14:10:42704,1,3,-14,-7,15,-5,-19,-6
15:14:10:58506,1,3,-14,-7,15,-5,-19,-6
15:14:10:59221,-1,9,0,5,9,-15,-8,-8
15:14:10:65197,14,19,-9,-11,26,-3,-7,-3
15:14:10:73435,14,19,-9,-11,26,-3,-7,-3
15:14:10:74233,-14,5,11,5,7,-10,7,-7
15:14:10:87695,-46,-16,8,5,11,-3,8,13
15:14:10:95916,-46,-16,8,5,11,-3,8,13
15:14:10:96726,-17,-20,13,23,1,-2,-30,-21
15:14:10:102671,33,10,8,-16,-21,-3,4,7
15:14:10:118459,33,10,8,-16,-21,-3,4,7
15:14:10:119204,8,-5,-4,25,-13,-13,-19,-4
15:14:10:125233,-22,0,13,17,26,1,6,2
15:14:10:133431,-22,0,13,17,26,1,6,2
15:14:10:134234,1,5,13,-35,-21,3,0,-7
15:14:10:147672,0,-4,0,-8,-29,5,-17,-12
15:14:10:155962,0,-4,0,-8,-29,5,-17,-12
15:14:10:156766,-10,16,-2,12,17,9,-9,-15
15:14:10:162687,-12,6,7,4,-4,1,9,-1
15:14:10:178436,-12,6,7,4,-4,1,9,-1
15:14:10:179204,-81,-10,3,-19,-13,-17,-15,-2
15:14:10:185151,14,-3,-13,-16,-24,-23,6,-12
15:14:10:192805,14,-3,-13,-16,-24,-23,6,-12
15:14:10:200191,30,0,-1,38,55,15,8,3
15:14:10:207779,13,17,24,-22,-27,-10,-4,15
15:14:10:215949,13,17,24,-22,-27,-10,-4,15
15:14:10:216720,16,0,-20,59,22,-1,-6,-1
15:14:10:230164,2,-13,-9,6,-2,-12,-3,0
15:14:10:238437,2,-13,-9,6,-2,-12,-3,0
15:14:10:239198,2,-2,6,-46,-18,6,-8,-2
15:14:10:245205,-47,-3,-16,0,-18,6,-11,-9
15:14:10:252837,-47,-3,-16,0,-18,6,-11,-9
15:14:10:260214,18,6,14,0,13,11,-19,-7
15:14:10:267686,18,-5,17,12,0,11,6,9
15:14:10:275915,18,-5,17,12,0,11,6,9
15:14:10:276700,-2,2,2,-13,-7,31,-14,-6
15:14:10:290272,-24,-21,2,-71,-5,-1,3,2
15:14:10:298428,-24,-21,2,-71,-5,-1,3,2
15:14:10:299248,-2,19,21,-29,1,-20,13,6
15:14:10:305187,9,-9,7,-27,-23,0,-2,-6
15:14:10:312706,9,-9,7,-27,-23,0,-2,-6
15:14:10:320257,4,-8,5,7,56,15,3,-4
15:14:10:327724,-6,2,-23,18,19,1,3,5
15:14:10:335906,-6,2,-23,18,19,1,3,5
15:14:10:336701,4,3,-8,-1,-33,-16,-16,-3
15:14:10:350181,26,7,1,20,23,15,27,13
15:14:10:358395,26,7,1,20,23,15,27,13
15:14:10:359207,2,-20,-41,-18,-37,-24,-2,-4
15:14:10:365225,24,14,-17,31,1,16,-9,-4
15:14:10:372720,24,14,-17,31,1,16,-9,-4
15:14:10:380153,12,-27,55,-2,41,-6,12,-3
15:14:10:387707,-1,-2,-10,9,-13,-34,-16,-14
15:14:10:395926,-1,-2,-10,9,-13,-34,-16,-14
15:14:10:396706,1,20,-21,-6,8,15,6,6
15:14:10:410296,10,1,9,7,29,14,6,6
15:14:10:418409,10,1,9,7,29,14,6,6
15:14:10:419182,-6,-15,-35,-19,-33,-28,-5,-2
15:14:10:425159,40,1,-23,-2,12,-9,-12,-7
15:14:10:432763,40,1,-23,-2,12,-9,-12,-7
15:14:10:440219,-11,-3,22,86,7,8,17,7
15:14:10:447682,-8,10,4,3,-9,-4,-1,-7
15:14:10:455919,-8,10,4,3,-9,-4,-1,-7
15:14:10:456723,16,14,-16,-1,-34,-15,-9,-3
15:14:10:470193,-4,-9,10,-11,-1,35,29,12
15:14:10:478424,-4,-9,10,-11,-1,35,29,12
15:14:10:479246,58,11,-2,-39,7,6,8,12
15:14:10:485138,-27,-22,-67,-21,-22,-17,-83,-42
15:14:10:492739,-27,-22,-67,-21,-22,-17,-83,-42
15:14:10:500209,8,-5,9,6,-18,-5,-6,-5
15:14:10:507736,-5,18,23,9,-13,-17,2,5
15:14:10:515917,-5,18,23,9,-13,-17,2,5
15:14:10:516698,-2,-11,-7,7,1,-10,-1,0
15:14:10:539093,-53,-25,1,3,-8,-4,2,-6
15:14:10:539925,-53,-25,1,3,-8,-4,2,-6
15:14:10:540722,-22,8,-11,-33,-58,-13,5,-6
15:14:10:545160,27,8,46,25,59,21,20,14
15:14:10:552803,27,8,46,25,59,21,20,14
15:14:10:560206,-3,11,12,-8,-19,-13,-4,-2
15:14:10:567656,-8,-7,-6,-22,-19,-2,38,16
15:14:10:575951,-8,-7,-6,-22,-19,-2,38,16
15:14:10:576735,-82,-30,-12,2,2,-3,-4,-11
15:14:10:590225,-11,3,-4,23,43,-2,-9,3
15:14:10:598410,-11,3,-4,23,43,-2,-9,3
15:14:10:599246,7,7,-9,-23,-18,-12,3,0
15:14:10:605186,10,-7,-16,-1,-5,-10,-7,-2
15:14:10:612729,10,-7,-16,-1,-5,-10,-7,-2
15:14:10:620223,24,2,-23,1,25,8,-8,1
15:14:10:627707,8,5,30,-16,-16,-2,-8,-7
15:14:10:635904,8,5,30,-16,-16,-2,-8,-7
15:14:10:636731,-28,-17,-8,-15,-9,1,0,1
15:14:10:650154,-2,12,21,-30,-24,-4,7,-5
15:14:10:658455,-2,12,21,-30,-24,-4,7,-5
15:14:10:659230,0,4,2,-9,42,43,-3,-2
15:14:10:665193,-8,0,-1,-14,-12,-12,-30,-16
15:14:10:672831,-8,0,-1,-14,-12,-12,-30,-16
15:14:10:680193,9,2,-8,5,3,-8,-16,-1
15:14:10:687677,5,-4,-12,12,5,5,6,-3
15:14:10:695857,5,-4,-12,12,5,5,6,-3
15:14:10:696688,33,2,10,-9,-10,-1,9,4
15:14:10:710219,-35,-33,-7,6,-20,-7,-11,-3
15:14:10:718423,-35,-33,-7,6,-20,-7,-11,-3
15:14:10:719228,-8,4,6,31,-1,-10,-10,-4
15:14:10:725213,12,13,29,2,-23,16,4,7
15:14:10:732730,12,13,29,2,-23,16,4,7
15:14:10:740230,2,10,10,11,5,9,9,-2
15:14:10:747713,-8,4,-6,3,-25,-8,7,0
15:14:10:755898,-8,4,-6,3,-25,-8,7,0
15:14:10:756722,-4,1,-10,-13,12,-1,32,9
15:14:10:770245,-7,-9,-20,5,29,9,23,1
15:14:10:778390,-7,-9,-20,5,29,9,23,1
15:14:10:779178,-29,-25,8,-12,8,-17,-17,-5
15:14:10:785194,10,7,4,27,14,5,-8,-7
15:14:10:792760,10,7,4,27,14,5,-8,-7
15:14:10:800163,2,19,25,31,9,-7,-6,-4
15:14:10:816550,9,0,-40,-20,-7,-11,-3,3
15:14:10:817315,9,0,-40,-20,-7,-11,-3,3
15:14:10:818152,6,13,11,16,1,1,8,6
15:14:10:830212,-2,-11,4,22,4,6,-3,-4
15:14:10:838375,-2,-11,4,22,4,6,-3,-4
15:14:10:839175,-19,6,-27,-28,3,-17,8,2
15:14:10:845195,-26,-1,-11,4,13,10,15,1
15:14:10:852741,-26,-1,-11,4,13,10,15,1
15:14:10:860183,9,-9,-15,-63,-61,-23,-14,-8
15:14:10:867699,-5,-15,21,-13,33,3,-2,1
15:14:10:875912,-5,-15,21,-13,33,3,-2,1
15:14:10:876706,4,-3,-2,-24,-10,1,5,-1
15:14:10:890237,24,-1,25,-28,8,15,2,4
15:14:10:898377,24,-1,25,-28,8,15,2,4
15:14:10:899206,23,-7,17,13,4,-12,-39,-2
15:14:10:905217,-14,-8,-8,4,46,36,27,20
15:14:10:912750,-14,-8,-8,4,46,36,27,20
15:14:10:920187,-13,-2,-1,28,27,17,0,-3
15:14:10:927708,17,15,-1,-16,-47,-41,-17,-5
15:14:10:935908,17,15,-1,-16,-47,-41,-17,-5
15:14:10:936722,-12,0,8,29,18,9,17,-2
15:14:10:950234,-23,-6,20,43,20,-1,-2,-3
15:14:10:958433,-23,-6,20,43,20,-1,-2,-3
15:14:10:959219,-2,6,-15,-6,-13,2,3,-4
15:14:10:965176,-11,-3,14,11,2,2,8,0
15:14:10:972800,-11,-3,14,11,2,2,8,0
15:14:10:980214,-44,-21,2,36,2,-32,-39,-8
15:14:10:987705,8,8,-25,-4,-40,1,-16,-6
15:14:10:995927,8,8,-25,-4,-40,1,-16,-6
15:14:10:996740,8,3,-6,-16,-4,6,1,-2
15:14:11:10236,-8,-21,-18,-6,-31,-27,-16,-7
15:14:11:18383,-8,-21,-18,-6,-31,-27,-16,-7
15:14:11:19216,19,2,8,-18,-1,20,7,2
15:14:11:25242,24,19,-29,-2,6,-10,-10,2
15:14:11:32775,24,19,-29,-2,6,-10,-10,2
15:14:11:40228,-21,5,-24,-3,13,14,11,4
15:14:11:47729,-32,-6,5,-4,39,-7,0,-4
15:14:11:55941,-32,-6,5,-4,39,-7,0,-4
15:14:11:56845,15,13,6,-2,2,17,50,11
15:14:11:70225,4,-11,-28,-20,-24,1,10,-1
15:14:11:78437,4,-11,-28,-20,-24,1,10,-1
15:14:11:79200,-4,-7,13,-2,0,17,-19,-7
15:14:11:85190,23,14,24,33,15,10,3,6
15:14:11:92726,23,14,24,33,15,10,3,6
15:14:11:100180,15,1,-17,22,-17,-16,-9,-2
15:14:11:107761,17,10,-22,-8,9,1,-4,0
15:14:11:115888,17,10,-22,-8,9,1,-4,0
15:14:11:116690,10,1,-2,-25,-19,-8,-6,-6
15:14:11:130231,-9,-6,-20,-19,-19,-7,-16,-4
15:14:11:138408,-9,-6,-20,-19,-19,-7,-16,-4
15:14:11:139195,28,-12,22,-18,-18,-9,-15,2
15:14:11:154380,13,11,25,-19,-10,23,22,8
15:14:11:154592,13,11,25,-19,-10,23,22,8
15:14:11:160238,3,1,15,19,27,12,13,-1
15:14:11:167686,-5,12,26,-4,-22,-21,-21,-6
15:14:11:175250,-5,12,26,-4,-22,-21,-21,-6
15:14:11:182711,24,16,25,0,-28,-10,5,0
15:14:11:199051,-13,5,15,-14,-19,15,16,-1
15:14:11:199882,-13,5,15,-14,-19,15,16,-1
15:14:11:200654,0,-7,4,60,22,2,-14,-2
