Time,EMG1,EMG2,EMG3,EMG4,EMG5,EMG6,EMG7,EMG8
15:15:21:55550,-3,-12,-7,43,-6,-1,19,-3
15:15:21:62969,-1,-1,11,14,-10,-6,14,-2
15:15:21:71261,-1,-1,11,14,-10,-6,14,-2
15:15:21:72049,-1,-6,-3,-9,-4,6,-16,-4
15:15:21:85467,-3,3,-1,-9,4,-8,-18,-5
15:15:21:93741,-3,3,-1,-9,4,-8,-18,-5
15:15:21:94527,-2,-5,-1,-24,19,3,-6,-3
15:15:21:100504,-3,-10,-4,11,-15,-1,1,3
15:15:21:108165,-3,-10,-4,11,-15,-1,1,3
15:15:21:123746,-2,1,-1,30,2,-9,-32,-6
15:15:21:124495,5,2,-7,5,-4,-3,3,0
15:15:21:131280,5,2,-7,5,-4,-3,3,0
15:15:21:132061,5,6,-3,-10,9,25,5,0
15:15:21:154445,3,3,-3,19,17,16,-2,1
15:15:21:155154,3,3,-3,19,17,16,-2,1
15:15:21:155965,-3,1,6,10,-6,-8,10,1
15:15:21:160431,-1,-10,-5,-5,-9,-6,11,-1
15:15:21:168059,-1,-10,-5,-5,-9,-6,11,-1
15:15:21:175612,0,2,5,-10,-14,-4,12,2
15:15:21:182990,-1,-3,-7,-10,-7,9,6,1
15:15:21:191249,-1,-3,-7,-10,-7,9,6,1
15:15:21:192009,-2,3,6,48,-25,-6,-21,-2
15:15:21:205513,-1,2,7,-31,-1,4,-18,0
15:15:21:213744,-1,2,7,-31,-1,4,-18,0
15:15:21:214475,0,-1,-7,-14,-11,-15,2,-5
15:15:21:228711,6,6,22,11,1,5,-19,-2
15:15:21:229454,6,6,22,11,1,5,-19,-2
15:15:21:235452,2,2,-8,-1,1,-1,7,-2
15:15:21:242973,-3,-2,2,4,4,-8,38,2
15:15:21:250526,-3,-2,2,4,4,-8,38,2
15:15:21:258000,-4,-4,5,-10,-8,3,1,1
15:15:21:274432,-3,-3,-14,-5,-19,-5,-22,-6
15:15:21:275173,-3,-3,-14,-5,-19,-5,-22,-6
15:15:21:275942,-7,-3,-2,-12,-4,1,-6,-4
15:15:21:288705,-2,4,-2,-2,15,8,11,1
15:15:21:289533,-2,4,-2,-2,15,8,11,1
15:15:21:295457,2,-8,1,-31,-7,-27,12,8
15:15:21:311186,-2,0,0,25,9,2,-14,2
15:15:21:311947,-2,0,0,25,9,2,-14,2
15:15:21:317975,-4,-12,-9,4,-2,-12,-10,-4
15:15:21:325515,-6,-10,-4,-25,-14,-9,-11,-6
15:15:21:333692,-6,-10,-4,-25,-14,-9,-11,-6
15:15:21:334480,-7,0,7,73,14,4,31,0
15:15:21:348649,-3,5,7,17,7,9,-14,-3
15:15:21:349451,-3,5,7,17,7,9,-14,-3
15:15:21:355549,-2,2,2,5,5,14,10,-1
15:15:21:362988,6,-10,-9,7,17,34,39,12
15:15:21:370547,6,-10,-9,7,17,34,39,12
15:15:21:377986,0,4,4,-48,-22,1,-6,-1
15:15:21:385519,-4,-1,-10,3,-1,-18,-10,-5
15:15:21:393720,-4,-1,-10,3,-1,-18,-10,-5
15:15:21:394473,3,3,-3,-80,-12,-12,-26,-4
15:15:21:408691,-7,0,7,-5,-19,0,9,0
15:15:21:409513,-7,0,7,-5,-19,0,9,0
15:15:21:415479,1,8,-1,-21,0,-13,-47,-1
15:15:21:422987,-8,-7,-10,28,-7,13,-14,-2
15:15:21:430519,-8,-7,-10,28,-7,13,-14,-2
15:15:21:437959,7,6,1,54,50,19,8,0
15:15:21:445493,-1,5,-5,-8,-2,-1,-44,-14
15:15:21:453695,-1,5,-5,-8,-2,-1,-44,-14
15:15:21:454463,5,4,-3,-14,10,10,1,4
15:15:21:468674,0,-8,-8,4,4,-15,6,0
15:15:21:469466,0,-8,-8,4,4,-15,6,0
15:15:21:475482,-3,5,-3,49,-8,-14,-3,4
15:15:21:482949,5,5,-2,-62,-10,-4,34,8
15:15:21:490572,5,5,-2,-62,-10,-4,34,8
15:15:21:497970,-1,-9,-9,-6,-16,-3,15,-4
15:15:21:505480,2,-6,-3,26,7,-23,-18,-3
15:15:21:513713,2,-6,-3,26,7,-23,-18,-3
15:15:21:514515,2,7,11,-69,5,14,20,4
15:15:21:528726,2,-2,8,-24,3,-23,-28,-3
15:15:21:529514,2,-2,8,-24,3,-23,-28,-3
15:15:21:535473,5,-10,-16,68,2,-18,-11,-6
15:15:21:542991,1,-1,4,29,10,-2,10,-4
15:15:21:558859,1,-1,4,29,10,-2,10,-4
15:15:21:559530,-9,0,-9,-20,-19,0,-36,-15
15:15:21:565504,0,1,2,4,-4,6,14,-1
15:15:21:573755,0,1,2,4,-4,6,14,-1
15:15:21:574580,-11,3,3,-17,-2,4,10,2
15:15:21:588663,-20,-7,-11,6,3,-4,-27,-9
15:15:21:589521,-20,-7,-11,6,3,-4,-27,-9
15:15:21:595506,-5,-17,-7,-65,-24,-11,-17,-5
15:15:21:603014,10,0,0,22,16,14,20,4
15:15:21:610603,10,0,0,22,16,14,20,4
15:15:21:617982,-1,-17,1,10,-11,-1,3,-2
15:15:21:625545,2,10,19,26,2,-16,-1,1
15:15:21:633770,2,10,19,26,2,-16,-1,1
15:15:21:634567,1,2,1,3,2,37,15,-1
15:15:21:648770,0,1,-3,-4,0,10,40,4
15:15:21:649542,0,1,-3,-4,0,10,40,4
15:15:21:655486,0,-2,7,11,11,6,24,0
15:15:21:662998,0,3,5,14,-2,2,-3,2
15:15:21:670577,0,3,5,14,-2,2,-3,2
15:15:21:678035,-1,-8,-7,-45,-23,-12,-3,4
15:15:21:685487,-3,-3,-7,-7,-24,-12,-15,-6
15:15:21:693701,-3,-3,-7,-7,-24,-12,-15,-6
15:15:21:694490,2,1,5,20,12,-5,-15,0
15:15:21:708786,-3,2,-4,-20,2,62,40,3
15:15:21:709563,-3,2,-4,-20,2,62,40,3
15:15:21:715528,1,4,2,8,-21,-21,0,-1
15:15:21:723001,8,-3,-3,-10,0,18,31,-6
15:15:21:730527,8,-3,-3,-10,0,18,31,-6
15:15:21:737988,0,4,1,-3,2,5,7,2
15:15:21:745502,-7,-6,-3,-41,-12,-26,-32,-5
15:15:21:753680,-7,-6,-3,-41,-12,-26,-32,-5
15:15:21:754482,2,0,-1,31,4,0,12,1
15:15:21:768634,-1,-2,1,5,-2,-6,-18,-5
15:15:21:769484,-1,-2,1,5,-2,-6,-18,-5
15:15:21:775513,-1,5,6,21,-5,17,20,-1
15:15:21:783026,-1,-7,-9,-17,-2,3,13,6
15:15:21:790569,-1,-7,-9,-17,-2,3,13,6
15:15:21:797983,-4,-2,-10,-31,-15,-13,37,1
15:15:21:805458,-3,5,-8,18,-12,10,-5,1
15:15:21:813748,-3,5,-8,18,-12,10,-5,1
15:15:21:814476,0,-3,0,12,2,-9,21,6
15:15:21:836898,2,-5,0,66,-3,-23,-20,0
15:15:21:837679,2,-5,0,66,-3,-23,-20,0
15:15:21:838438,-2,-3,4,-8,13,-6,-4,-5
15:15:21:843008,1,6,7,-4,18,-10,33,5
15:15:21:850545,1,6,7,-4,18,-10,33,5
15:15:21:858063,1,0,-1,34,12,14,-3,2
15:15:21:865508,-6,-4,-7,8,-12,-31,-30,-10
15:15:21:873792,-6,-4,-7,8,-12,-31,-30,-10
15:15:21:874577,3,5,-1,-23,7,4,-48,-1
15:15:21:888749,-9,-4,-1,-9,-11,-6,-19,-3
15:15:21:889532,-9,-4,-1,-9,-11,-6,-19,-3
15:15:21:895484,-6,3,-2,13,-14,-8,-20,-9
15:15:21:902989,7,2,3,-23,18,16,5,2
15:15:21:910547,7,2,3,-23,18,16,5,2
15:15:21:917989,-2,17,-11,-42,-8,-3,-10,-1
15:15:21:925494,-1,-1,4,-16,4,-20,-39,-9
15:15:21:933709,-1,-1,4,-16,4,-20,-39,-9
15:15:21:934497,0,-12,-20,-82,-7,8,12,-3
15:15:21:949199,1,-3,-2,29,2,-12,-18,0
15:15:21:950014,1,-3,-2,29,2,-12,-18,0
15:15:21:955439,-1,-9,7,23,27,5,-40,-3
15:15:21:971173,2,2,1,-10,-15,-1,15,4
15:15:21:971982,2,2,1,-10,-15,-1,15,4
15:15:21:986167,2,0,10,70,14,-5,6,-2
15:15:21:987002,0,-4,0,3,4,-3,8,4
15:15:21:993701,0,-4,0,3,4,-3,8,4
15:15:21:994494,5,-3,0,-25,-4,6,14,0
15:15:22:16912,-2,2,3,-48,0,4,1,-2
15:15:22:17692,-2,2,3,-48,0,4,1,-2
15:15:22:18453,-2,-2,-6,91,30,7,3,-2
15:15:22:23038,-3,-2,-4,-28,-4,0,-1,-2
15:15:22:30581,-3,-2,-4,-28,-4,0,-1,-2
15:15:22:38015,-2,-4,9,65,15,-4,-5,2
15:15:22:45509,-2,-2,-9,7,15,20,19,-2
15:15:22:53701,-2,-2,-9,7,15,20,19,-2
15:15:22:54497,-5,1,1,-32,-14,-13,-14,3
15:15:22:69119,-1,-2,0,-28,-15,5,-34,-7
15:15:22:76244,-1,-2,0,-28,-15,5,-34,-7
15:15:22:77053,-2,-1,1,-9,-5,-7,-19,-5
15:15:22:83020,2,7,-1,-1,7,3,-22,1
15:15:22:90524,2,7,-1,-1,7,3,-22,1
15:15:22:97995,-3,-1,1,7,1,6,15,1
15:15:22:114380,0,1,5,50,13,-2,13,1
15:15:22:115230,0,1,5,50,13,-2,13,1
15:15:22:116025,-10,1,2,-24,-1,-16,-1,-1
15:15:22:129196,0,-1,-6,-36,-7,-9,-15,-6
15:15:22:129969,0,-1,-6,-36,-7,-9,-15,-6
15:15:22:135456,-1,-4,-1,-12,-37,-14,-6,-3
15:15:22:151175,3,-1,-3,-3,16,12,83,8
15:15:22:152001,3,-1,-3,-3,16,12,83,8
15:15:22:158043,3,6,4,6,11,15,-7,-1
15:15:22:173813,0,2,-4,-32,-25,-1,-20,-2
15:15:22:174566,0,2,-4,-32,-25,-1,-20,-2
15:15:22:180460,2,6,-9,-18,-8,1,6,-6
15:15:22:188688,2,-5,-5,-88,-25,-10,-11,4
15:15:22:189485,2,-5,-5,-88,-25,-10,-11,4
15:15:22:195497,3,9,-5,32,-3,-3,-10,-1
15:15:22:211206,-2,-2,2,-15,4,-9,8,-3
15:15:22:211991,-2,-2,2,-15,4,-9,8,-3
15:15:22:217957,5,-2,2,-46,-15,18,2,8
15:15:22:233697,-6,-7,-6,33,3,6,-25,-1
15:15:22:234492,-6,-7,-6,33,3,6,-25,-1
15:15:22:240529,-3,-11,-6,-15,6,-13,-19,-4
15:15:22:248687,3,4,9,13,5,-6,-4,-4
15:15:22:249518,3,4,9,13,5,-6,-4,-4
15:15:22:255484,0,-6,-6,-51,-2,0,13,5
15:15:22:271200,-4,-2,1,25,12,-3,10,4
15:15:22:272001,-4,-2,1,25,12,-3,10,4
15:15:22:278010,1,4,-9,4,12,0,18,0
15:15:22:293696,0,2,5,59,23,8,10,-2
15:15:22:294492,0,2,5,59,23,8,10,-2
15:15:22:300515,-1,-3,3,22,2,1,5,-3
15:15:22:308700,-3,-3,0,0,-12,-7,2,0
15:15:22:309497,-3,-3,0,0,-12,-7,2,0
15:15:22:315468,-3,-2,0,-12,-19,-26,-48,-9
15:15:22:331193,0,-3,-9,1,0,11,-10,1
15:15:22:332028,0,-3,-9,1,0,11,-10,1
15:15:22:338022,-2,-4,-1,-10,-3,5,18,2
15:15:22:345514,-5,-3,-9,18,-10,-5,-19,-5
15:15:22:353047,-5,-3,-9,18,-10,-5,-19,-5
15:15:22:360523,-3,2,2,-5,-2,-8,-5,0
15:15:22:368694,-2,1,3,17,28,5,-11,-5
15:15:22:369485,-2,1,3,17,28,5,-11,-5
15:15:22:375529,3,1,0,-25,-11,-6,29,2
15:15:22:391697,3,1,-3,-14,-16,6,11,4
15:15:22:392500,3,1,-3,-14,-16,6,11,4
15:15:22:397987,0,-5,2,10,11,-7,-19,-1
15:15:22:405497,-5,2,3,6,-35,-20,56,3
15:15:22:413023,-5,2,3,6,-35,-20,56,3
15:15:22:420504,-1,-1,-12,22,2,6,-1,-4
15:15:22:428706,0,-1,3,12,4,-8,-20,-2
15:15:22:429492,0,-1,3,12,4,-8,-20,-2
15:15:22:435473,-2,-6,-10,-23,-16,-11,-1,-2
15:15:22:451162,0,0,1,-3,8,27,9,1
15:15:22:451975,0,0,1,-3,8,27,9,1
15:15:22:457985,-1,-5,3,12,13,0,-13,-1
15:15:22:465447,-2,0,6,-28,-22,-7,-13,-3
15:15:22:473034,-2,0,6,-28,-22,-7,-13,-3
15:15:22:480461,-5,-2,-4,9,5,11,87,3
15:15:22:488696,-2,-1,-3,-8,3,-1,-19,-6
15:15:22:489561,-2,-1,-3,-8,3,-1,-19,-6
15:15:22:495485,-4,-9,2,-15,-31,-23,5,-2
15:15:22:511677,-9,1,7,-9,18,-4,13,-3
15:15:22:512470,-9,1,7,-9,18,-4,13,-3
15:15:22:517980,-6,-1,5,2,-7,-23,-77,-11
15:15:22:525566,-2,-5,-13,-42,-2,-2,-56,0
15:15:22:533100,-2,-5,-13,-42,-2,-2,-56,0
15:15:22:540567,2,-4,-1,-10,15,8,-17,-4
15:15:22:548671,-1,1,7,31,2,-35,-22,5
15:15:22:549487,-1,1,7,31,2,-35,-22,5
15:15:22:555507,2,3,4,-3,20,-9,-24,-4
15:15:22:571243,-1,-7,-7,19,15,20,83,6
15:15:22:572025,-1,-7,-7,19,15,20,83,6
15:15:22:578000,2,4,4,53,-10,30,83,5
15:15:22:585465,-1,-5,3,4,-17,-17,17,-7
15:15:22:593087,-1,-5,3,4,-17,-17,17,-7
15:15:22:600531,5,5,-5,-17,9,29,16,8
15:15:22:608736,1,-1,7,56,-26,-6,-1,2
15:15:22:609480,1,-1,7,56,-26,-6,-1,2
15:15:22:615494,-13,-6,4,-21,8,-12,-34,-9
15:15:22:631594,1,5,-2,-12,5,-7,-49,-8
15:15:22:632489,1,5,-2,-12,5,-7,-49,-8
15:15:22:638053,11,5,-6,9,38,17,25,27
15:15:22:645499,2,1,-7,-9,-26,6,6,2
15:15:22:653069,2,1,-7,-9,-26,6,6,2
15:15:22:669384,3,-4,-2,87,30,35,-20,-3
15:15:22:670089,-4,0,-4,-33,12,41,41,-9
15:15:22:670945,-4,0,-4,-33,12,41,41,-9
15:15:22:675528,-7,-2,1,-20,-35,-51,-53,-9
15:15:22:691270,-1,-3,-23,-30,2,1,-59,-19
15:15:22:692057,-1,-3,-23,-30,2,1,-59,-19
15:15:22:697974,-9,-3,6,-12,-30,-19,-40,-41
15:15:22:705500,4,-1,6,-33,14,17,94,16
15:15:22:713073,4,-1,6,-33,14,17,94,16
15:15:22:729341,-4,-6,-11,-42,-16,-13,23,-1
15:15:22:730202,-4,-6,-11,-42,-16,-13,23,-1
15:15:22:730997,-2,-8,0,0,-3,-16,-37,-1
15:15:22:735505,-4,-3,-4,-19,-4,-26,24,-7
15:15:22:751722,-4,-3,-4,-19,-4,-26,24,-7
15:15:22:752473,6,4,8,17,16,28,-81,6
15:15:22:758020,-6,-1,9,-23,-23,-20,56,0
15:15:22:773770,-6,-1,9,-23,-23,-20,56,0
15:15:22:774512,0,2,6,45,1,-24,28,16
15:15:22:789436,1,-2,-4,-28,16,17,67,18
15:15:22:790187,1,-2,-4,-28,16,17,67,18
15:15:22:790998,6,12,2,59,53,75,86,18
15:15:22:795480,0,3,1,25,-11,-19,-47,2
15:15:22:811253,0,3,1,25,-11,-19,-47,2
15:15:22:812009,-4,2,3,-26,-48,-48,-18,-13
15:15:22:818025,-6,-5,4,32,-1,4,10,0
15:15:22:833685,-6,-5,4,32,-1,4,10,0
15:15:22:834460,-6,-11,-9,-2,-40,-38,-39,0
15:15:22:849414,5,3,3,31,20,45,-117,6
15:15:22:850154,5,3,3,31,20,45,-117,6
15:15:22:850954,-8,-8,-19,51,24,16,-44,-13
15:15:22:855529,-2,-8,-11,31,69,7,-5,-7
15:15:22:871226,-2,-8,-11,31,69,7,-5,-7
15:15:22:872013,-5,-9,-28,-58,-9,-10,7,-5
15:15:22:877993,0,0,-2,-11,-55,-11,-33,-15
15:15:22:893751,0,0,-2,-11,-55,-11,-33,-15
15:15:22:894497,5,2,8,-41,18,-14,-28,3
15:15:22:909385,2,3,-6,-12,49,32,18,13
15:15:22:910162,2,3,-6,-12,49,32,18,13
15:15:22:910987,-4,5,-5,-8,-8,-16,-29,-15
15:15:22:915472,-3,-12,-17,-16,-51,-18,4,5
15:15:22:931225,-3,-12,-17,-16,-51,-18,4,5
15:15:22:932016,8,-9,0,-56,-46,-7,5,1
15:15:22:945537,9,4,1,-18,-22,-2,8,-1
15:15:22:961910,9,4,1,-18,-22,-2,8,-1
15:15:22:962697,-8,-4,-4,-2,0,-16,-1,-12
15:15:22:963467,31,23,49,-8,-10,20,40,39
15:15:22:968654,31,23,49,-8,-10,20,40,39
15:15:22:969468,3,-1,12,1,11,13,10,-13
15:15:22:975527,-1,-1,-7,17,5,11,33,10
15:15:22:999412,-1,-1,-7,17,5,11,33,10
15:15:23:168,-2,-14,21,-24,-7,-24,-16,-9
15:15:23:1000,-10,0,-17,-6,28,9,-8,-7
15:15:23:13700,-10,0,-17,-6,28,9,-8,-7
15:15:23:14519,-9,-15,-19,69,39,13,-16,3
15:15:23:20469,-4,2,13,32,3,-21,-28,-10
15:15:23:28717,-4,2,13,32,3,-21,-28,-10
15:15:23:29492,8,10,13,12,-29,-3,47,8
15:15:23:35474,1,7,-2,-3,8,32,62,-2
15:15:23:51191,1,7,-2,-3,8,32,62,-2
15:15:23:52007,-12,-10,-15,-43,18,14,-19,9
15:15:23:57978,-8,1,3,-39,-37,-30,3,19
15:15:23:73725,-8,1,3,-39,-37,-30,3,19
15:15:23:74456,2,7,5,-2,-10,1,24,0
15:15:23:80447,-7,-2,11,23,-4,-4,-23,-19
15:15:23:88716,-7,-2,11,23,-4,-4,-23,-19
15:15:23:89520,0,4,-5,5,10,34,-1,7
15:15:23:103024,-20,-3,-3,-4,-7,16,8,-25
15:15:23:111207,-20,-3,-3,-4,-7,16,8,-25
15:15:23:111978,1,10,6,-22,2,-5,-36,-12
15:15:23:117964,-3,-5,11,11,29,25,18,11
15:15:23:133741,-3,-5,11,11,29,25,18,11
15:15:23:134463,-8,-2,-8,25,14,-14,35,-6
15:15:23:140523,19,-10,-24,-22,-49,-35,-26,1
15:15:23:148707,19,-10,-24,-22,-49,-35,-26,1
15:15:23:149494,29,2,-11,8,-1,22,10,18
15:15:23:163063,-5,-3,-45,-17,-27,-37,-53,-30
15:15:23:171245,-5,-3,-45,-17,-27,-37,-53,-30
15:15:23:172001,-2,8,20,4,-6,-14,25,17
15:15:23:178008,-34,2,21,-10,-6,-18,-16,-20
15:15:23:193683,-34,2,21,-10,-6,-18,-16,-20
15:15:23:194456,-21,3,-8,-8,-4,16,9,-14
15:15:23:200517,4,-10,-22,8,18,-1,-31,-7
15:15:23:208736,4,-10,-22,8,18,-1,-31,-7
15:15:23:209486,-10,-20,14,0,-29,-18,-10,4
15:15:23:223041,-2,0,6,-8,14,14,-33,-3
15:15:23:231141,-2,0,6,-8,14,14,-33,-3
15:15:23:231953,9,-5,0,-17,23,26,-8,-7
15:15:23:238035,10,-6,11,9,-9,-33,-52,6
15:15:23:253765,10,-6,11,9,-9,-33,-52,6
15:15:23:254491,6,1,25,2,-26,21,-2,7
15:15:23:260481,4,1,12,19,34,29,31,20
15:15:23:268665,4,1,12,19,34,29,31,20
15:15:23:269452,-3,1,-14,-31,-8,-20,-15,5
15:15:23:282988,2,-7,10,10,19,0,-1,-2
15:15:23:291242,2,-7,10,10,19,0,-1,-2
15:15:23:291937,-5,-9,-21,-72,-6,-14,5,10
15:15:23:297968,-4,0,-14,-37,-5,-5,14,-6
15:15:23:313724,-4,0,-14,-37,-5,-5,14,-6
15:15:23:314510,-4,1,-11,-31,-25,-24,5,-19
15:15:23:320507,-3,-11,-8,14,18,-22,95,-1
15:15:23:328664,-3,-11,-8,14,18,-22,95,-1
15:15:23:329422,-3,10,28,31,8,-43,-33,-16
15:15:23:342990,17,-10,-21,8,53,23,-31,-7
15:15:23:351213,17,-10,-21,8,53,23,-31,-7
15:15:23:351991,0,-4,-11,13,-18,-24,-22,-22
15:15:23:358085,-3,14,46,19,-29,1,-15,-2
15:15:23:373768,-3,14,46,19,-29,1,-15,-2
15:15:23:374537,4,7,-8,-27,1,21,-8,5
15:15:23:380528,-2,-3,-32,-37,-31,10,23,8
15:15:23:388741,-2,-3,-32,-37,-31,10,23,8
15:15:23:389519,-2,-3,8,41,4,16,43,0
15:15:23:403102,4,4,-20,-3,-25,1,24,51
15:15:23:411232,4,4,-20,-3,-25,1,24,51
15:15:23:412020,1,7,19,53,11,-1,16,-9
15:15:23:417978,-32,1,4,-28,-26,-1,-20,-21
15:15:23:433740,-32,1,4,-28,-26,-1,-20,-21
15:15:23:434503,1,-2,-14,-46,0,-8,-7,9
15:15:23:440520,9,4,-19,3,7,-8,-29,-2
15:15:23:448707,9,4,-19,3,7,-8,-29,-2
15:15:23:449566,-7,-6,13,21,3,-7,-12,3
15:15:23:463022,-6,-5,13,-11,18,32,-20,-9
15:15:23:471224,-6,-5,13,-11,18,32,-20,-9
15:15:23:472039,6,-3,-20,6,35,24,7,3
15:15:23:477976,2,-5,-5,16,-13,-22,2,-13
15:15:23:493714,2,-5,-5,16,-13,-22,2,-13
15:15:23:494507,-8,-11,-34,4,-14,-11,-22,5
15:15:23:500495,8,25,-9,37,0,-9,6,-2
15:15:23:508798,8,25,-9,37,0,-9,6,-2
15:15:23:509509,1,-1,-30,40,55,9,2,-1
15:15:23:522995,4,0,-6,0,-28,-20,-3,6
15:15:23:531216,4,0,-6,0,-28,-20,-3,6
15:15:23:532020,9,8,18,28,22,3,82,20
15:15:23:538020,-5,6,10,2,30,0,32,8
15:15:23:553762,-5,6,10,2,30,0,32,8
15:15:23:554530,-8,-3,30,-49,36,5,-36,-20
15:15:23:560477,11,-7,-9,-23,-8,6,11,-1
15:15:23:568695,11,-7,-9,-23,-8,6,11,-1
15:15:23:569514,-3,5,13,7,-35,-18,-26,-6
15:15:23:583055,-9,-3,7,-20,6,7,-54,-20
15:15:23:591257,-9,-3,7,-20,6,7,-54,-20
15:15:23:592012,-5,-2,-18,24,-44,-36,-20,-7
15:15:23:597964,-1,-3,-7,15,30,48,61,-2
15:15:23:605538,-1,-3,-7,15,30,48,61,-2
15:15:23:612962,5,3,-6,-9,-10,20,-28,-10
15:15:23:620504,-1,-11,-21,-33,-38,-24,-83,-9
15:15:23:628759,-1,-11,-21,-33,-38,-24,-83,-9
15:15:23:629514,-3,7,7,2,-21,-8,-19,2
15:15:23:643079,-20,-19,6,-25,-26,-10,1,-4
15:15:23:651206,-20,-19,6,-25,-26,-10,1,-4
15:15:23:652025,0,-1,3,22,19,4,-4,-5
15:15:23:657997,2,3,2,24,6,-17,23,-12
15:15:23:665540,2,3,2,24,6,-17,23,-12
15:15:23:673031,-9,-9,-11,-5,3,-31,38,12
15:15:23:680627,-6,-3,24,1,-2,9,-53,-43
15:15:23:688751,-6,-3,24,1,-2,9,-53,-43
15:15:23:689555,-15,-6,35,-16,-11,-11,-8,-8
15:15:23:702948,2,15,15,61,-3,-17,12,7
15:15:23:711227,2,15,15,61,-3,-17,12,7
15:15:23:712021,9,-4,8,-6,-14,10,-48,-6
15:15:23:717998,-2,-9,-35,-17,32,41,11,12
15:15:23:725626,-2,-9,-35,-17,32,41,11,12
15:15:23:733007,2,-10,-18,57,37,11,-5,1
15:15:23:740514,1,-9,-74,-16,-23,-43,-28,11
15:15:23:748665,1,-9,-74,-16,-23,-43,-28,11
15:15:23:749491,12,3,1,-7,7,65,47,16
15:15:23:763012,-6,0,22,-9,6,4,1,-31
15:15:23:771272,-6,0,22,-9,6,4,1,-31
15:15:23:772080,3,3,-38,-13,-41,-20,34,-7
15:15:23:778015,14,0,23,-54,-16,-7,-2,8
15:15:23:785532,14,0,23,-54,-16,-7,-2,8
15:15:23:793052,5,13,22,-19,2,-4,-16,0
15:15:23:800528,-1,-2,4,0,-4,-6,8,10
15:15:23:808789,-1,-2,4,0,-4,-6,8,10
15:15:23:809471,-7,-4,-12,2,8,-19,-5,0
15:15:23:823013,-2,-9,-28,14,31,40,45,10
15:15:23:831185,-2,-9,-28,14,31,40,45,10
15:15:23:831996,0,-15,-12,-27,-37,-20,16,12
15:15:23:838058,-11,12,13,22,14,20,6,17
15:15:23:845521,-11,12,13,22,14,20,6,17
15:15:23:852951,-8,-2,-17,-1,-35,-9,-63,-13
15:15:23:860475,2,1,17,2,-21,-21,-9,5
15:15:23:868681,2,1,17,2,-21,-21,-9,5
15:15:23:869518,-3,2,-2,2,2,0,-4,7
15:15:23:883082,0,-3,11,-29,18,-10,-7,-6
15:15:23:899396,0,-3,11,-29,18,-10,-7,-6
15:15:23:900158,3,-3,25,28,39,35,-13,9
15:15:23:900922,2,-1,-13,5,-1,-2,10,11
15:15:23:905535,2,-1,-13,5,-1,-2,10,11
15:15:23:912995,-1,9,3,33,8,-35,86,-12
15:15:23:920526,-9,8,13,-2,-3,-12,-6,-6
15:15:23:928709,-9,8,13,-2,-3,-12,-6,-6
15:15:23:929474,-6,-8,-5,-16,-18,-7,-25,-4
15:15:23:943025,5,1,-3,-2,7,-4,-13,-16
15:15:23:951172,5,1,-3,-2,7,-4,-13,-16
15:15:23:951984,5,1,5,-12,17,5,-13,-4
15:15:23:957969,5,-7,0,3,10,23,4,44
15:15:23:965519,5,-7,0,3,10,23,4,44
15:15:23:973022,2,2,11,0,-6,-5,3,4
15:15:23:980483,-9,3,-10,2,-10,5,63,7
15:15:23:988739,-9,3,-10,2,-10,5,63,7
15:15:23:989504,4,-7,-28,-52,-9,6,61,28
15:15:24:2953,9,3,19,-35,-22,-20,-21,1
15:15:24:11235,9,3,19,-35,-22,-20,-21,1
15:15:24:12023,-10,2,1,-7,0,1,-58,-2
15:15:24:17961,-5,-19,-1,1,-6,4,-2,-4
15:15:24:25565,-5,-19,-1,1,-6,4,-2,-4
15:15:24:33001,6,-1,5,22,3,-11,-21,-11
15:15:24:40539,-1,8,8,13,13,-1,-71,-38
15:15:24:48052,-1,8,8,13,13,-1,-71,-38
15:15:24:55506,-6,-10,-18,3,-4,-1,-40,-34
15:15:24:63006,15,9,-25,20,-18,6,11,-8
15:15:24:71185,15,9,-25,20,-18,6,11,-8
15:15:24:72024,5,4,-2,5,2,26,-5,6
15:15:24:86213,3,-4,5,6,6,-15,-11,3
15:15:24:87043,3,-4,5,6,6,-15,-11,3
15:15:24:93041,-9,-13,-10,11,-29,-4,4,-15
15:15:24:100510,5,2,-10,-58,-16,13,49,20
15:15:24:108045,5,2,-10,-58,-16,13,49,20
15:15:24:115478,-2,2,13,30,4,-5,-32,-13
15:15:24:123038,-8,-6,30,7,1,-7,3,-1
15:15:24:131163,-8,-6,30,7,1,-7,3,-1
15:15:24:131983,-8,-5,-8,12,-5,-1,14,-13
15:15:24:146166,-3,-1,-5,-4,-19,-32,-25,-7
15:15:24:146973,-3,-1,-5,-4,-19,-32,-25,-7
15:15:24:152992,5,4,-12,-30,5,39,69,48
15:15:24:160520,2,-1,6,31,17,49,29,15
15:15:24:168007,2,-1,6,31,17,49,29,15
15:15:24:175594,7,5,3,-8,25,-5,-5,-26
15:15:24:183030,1,3,27,-15,-20,-26,-16,14
15:15:24:191283,1,3,27,-15,-20,-26,-16,14
15:15:24:192022,0,-2,-5,-44,-20,-16,-5,7
15:15:24:206224,-6,1,-4,32,21,4,-19,-21
15:15:24:207028,-6,1,-4,32,21,4,-19,-21
15:15:24:212978,-19,-9,-4,-43,10,-8,-16,-10
15:15:24:220486,5,1,-31,23,-19,-9,-12,-2
15:15:24:228039,5,1,-31,23,-19,-9,-12,-2
15:15:24:235459,-2,3,12,1,61,34,35,-5
15:15:24:242994,-13,-1,9,-33,15,-6,4,-9
15:15:24:251213,-13,-1,9,-33,15,-6,4,-9
15:15:24:252027,4,4,36,15,-25,-33,-29,-1
15:15:24:266212,2,-9,0,-11,7,-4,-15,-9
15:15:24:267012,2,-9,0,-11,7,-4,-15,-9
15:15:24:272984,-1,-15,-2,-19,-13,5,-26,3
15:15:24:280483,-6,10,-4,-15,-9,4,52,1
15:15:24:288097,-6,10,-4,-15,-9,4,52,1
15:15:24:295444,6,2,27,-15,-31,-16,4,22
15:15:24:302959,-2,-2,-3,12,26,19,-26,-18
15:15:24:311257,-2,-2,-3,12,26,19,-26,-18
15:15:24:312010,7,1,-18,-5,5,-1,59,26
15:15:24:326237,-2,0,-10,-7,-37,-11,12,5
15:15:24:327025,-2,0,-10,-7,-37,-11,12,5
15:15:24:332987,-3,6,17,3,6,-3,-27,-8
15:15:24:340499,2,-5,-21,3,-10,4,32,6
15:15:24:348064,2,-5,-21,3,-10,4,32,6
15:15:24:355521,-18,0,0,2,-10,8,15,-8
15:15:24:362987,-3,-6,20,38,21,18,20,8
15:15:24:371178,-3,-6,20,38,21,18,20,8
15:15:24:371943,10,2,-13,-23,-8,7,24,43
15:15:24:386178,-1,6,-13,-11,-12,-15,-13,1
15:15:24:387004,-1,6,-13,-11,-12,-15,-13,1
15:15:24:392978,-2,-4,-31,106,33,4,-27,-20
15:15:24:400486,-1,-3,16,27,-13,-22,-22,-6
15:15:24:408046,-1,-3,16,27,-13,-22,-22,-6
15:15:24:415492,-1,-15,6,-1,24,-4,-29,-9
15:15:24:423002,-2,-7,-6,-6,-6,-9,31,7
15:15:24:431149,-2,-7,-6,-6,-6,-9,31,7
15:15:24:431978,6,2,-25,-32,-38,-4,3,-16
15:15:24:446153,14,-1,19,-8,8,7,-4,13
15:15:24:446975,14,-1,19,-8,8,7,-4,13
15:15:24:452991,6,16,-14,29,18,6,5,1
15:15:24:460499,-3,2,9,6,-35,-6,-26,-10
15:15:24:468058,-3,2,9,6,-35,-6,-26,-10
15:15:24:475508,-2,6,12,4,15,8,-1,-6
15:15:24:482935,-6,-3,-17,54,23,6,-22,0
15:15:24:491248,-6,-3,-17,54,23,6,-22,0
15:15:24:492008,-7,-4,-17,-37,-61,-39,-30,-19
15:15:24:506179,3,-6,0,-15,-1,19,48,6
15:15:24:506993,3,-6,0,-15,-1,19,48,6
15:15:24:512943,0,-2,14,10,19,19,29,11
15:15:24:520464,8,18,-12,-15,-5,-6,31,14
15:15:24:528037,8,18,-12,-15,-5,-6,31,14
15:15:24:535464,-8,-9,-15,31,-8,-6,-19,-8
15:15:24:542987,-5,13,0,2,-18,-3,-1,-3
15:15:24:551178,-5,13,0,2,-18,-3,-1,-3
15:15:24:552013,-9,-5,1,-16,-11,12,17,26
15:15:24:566217,-18,-10,-1,-10,37,10,-21,13
15:15:24:567029,-18,-10,-1,-10,37,10,-21,13
15:15:24:573017,-9,-1,-3,-16,-2,-13,-8,-13
15:15:24:580452,-16,0,0,-44,-17,-15,5,-8
15:15:24:588105,-16,0,0,-44,-17,-15,5,-8
15:15:24:595500,5,-1,-2,-36,11,0,-4,-5
15:15:24:611894,6,0,-38,-1,8,-18,-47,-16
15:15:24:612680,6,0,-38,-1,8,-18,-47,-16
15:15:24:613455,0,-5,11,3,-12,8,8,-9
15:15:24:626260,1,2,-19,-4,5,1,-21,-21
15:15:24:627013,1,2,-19,-4,5,1,-21,-21
15:15:24:632989,11,9,25,-21,-13,-5,14,5
15:15:24:640510,11,-2,-10,-26,-25,10,64,4
15:15:24:648064,11,-2,-10,-26,-25,10,64,4
15:15:24:655504,-6,-2,6,11,6,2,-31,-22
15:15:24:662998,2,-12,15,-64,-26,-18,-41,-9
15:15:24:671223,2,-12,15,-64,-26,-18,-41,-9
15:15:24:672035,-5,-14,4,17,32,11,4,0
15:15:24:686165,-7,-5,34,-4,-8,-11,4,-5
15:15:24:686999,-7,-5,34,-4,-8,-11,4,-5
15:15:24:692995,-15,-19,-15,-8,23,18,-69,-38
15:15:24:708742,-2,-8,-11,22,17,16,-103,-18
15:15:24:709515,-2,-8,-11,22,17,16,-103,-18
15:15:24:715456,20,9,21,17,-10,-15,24,-18
15:15:24:723006,-8,-10,20,94,19,-8,-5,-6
15:15:24:731243,-8,-10,20,94,19,-8,-5,-6
15:15:24:732039,-16,-15,-42,2,3,-9,-17,4
15:15:24:746210,4,-5,-29,17,20,-6,14,6
15:15:24:746989,4,-5,-29,17,20,-6,14,6
15:15:24:752987,0,14,1,23,-12,-11,24,12
15:15:24:760517,7,25,36,16,10,0,-17,-1
15:15:24:768070,7,25,36,16,10,0,-17,-1
15:15:24:775520,11,4,2,-15,7,0,19,10
15:15:24:782966,0,7,38,-51,-36,1,22,1
15:15:24:791232,0,7,38,-51,-36,1,22,1
15:15:24:792022,5,14,14,33,9,24,-17,8
15:15:24:806233,1,-9,15,-54,35,10,13,4
15:15:24:807026,1,-9,15,-54,35,10,13,4
15:15:24:813014,-1,3,17,-12,-23,-18,-3,4
15:15:24:820486,-13,-10,-46,-3,-3,22,39,-1
15:15:24:828089,-13,-10,-46,-3,-3,22,39,-1
15:15:24:835481,0,-2,-29,-24,0,4,35,6
15:15:24:843024,-5,-14,-35,19,-16,-4,34,3
15:15:24:851229,-5,-14,-35,19,-16,-4,34,3
15:15:24:852016,4,16,28,-24,-9,3,-10,15
15:15:24:866233,-4,-1,17,-2,10,-15,-18,-4
15:15:24:867033,-4,-1,17,-2,10,-15,-18,-4
15:15:24:873016,-2,-2,39,4,-5,-21,-9,-3
15:15:24:880491,3,8,10,9,14,-8,-22,3
15:15:24:888049,3,8,10,9,14,-8,-22,3
15:15:24:895511,-8,-5,-6,-24,12,-15,-31,-33
15:15:24:903033,-2,5,7,6,-18,8,2,6
15:15:24:911199,-2,5,7,6,-18,8,2,6
15:15:24:912005,1,-6,-7,-3,-18,18,11,3
15:15:24:926252,0,1,-17,4,18,-3,17,-4
15:15:24:926994,0,1,-17,4,18,-3,17,-4
15:15:24:933011,-12,-8,-5,-3,-20,-14,-11,-7
15:15:24:940572,3,11,57,-43,-35,-13,4,5
15:15:24:948049,3,11,57,-43,-35,-13,4,5
15:15:24:955529,5,4,0,15,4,-3,-15,-5
15:15:24:963016,-1,-3,-19,28,21,12,43,7
15:15:24:971201,-1,-3,-19,28,21,12,43,7
15:15:24:972005,-3,4,-30,-26,-1,-4,-17,4
15:15:24:986174,-5,1,6,11,17,12,-18,-7
15:15:24:987012,-5,1,6,11,17,12,-18,-7
15:15:24:993080,-3,-8,-57,8,-2,-8,3,1
15:15:25:8734,2,-4,40,-12,-29,-18,-37,-30
15:15:25:9525,2,-4,40,-12,-29,-18,-37,-30
15:15:25:15533,0,-6,-4,-27,18,36,44,13
15:15:25:23024,0,-5,-12,-1,9,22,23,2
15:15:25:30520,0,-5,-12,-1,9,22,23,2
15:15:25:37998,3,2,11,1,-21,-12,-16,-5
15:15:25:46166,6,-9,-28,-16,-6,-9,-57,-13
15:15:25:46986,6,-9,-28,-16,-6,-9,-57,-13
15:15:25:52979,3,8,11,11,18,-2,11,5
15:15:25:69134,10,25,-4,7,-4,-10,-17,15
15:15:25:69972,10,25,-4,7,-4,-10,-17,15
15:15:25:75492,-2,-3,-7,-4,5,-4,-1,-2
15:15:25:83009,0,5,-30,6,-9,-14,-10,6
15:15:25:90569,0,5,-30,6,-9,-14,-10,6
15:15:25:97984,0,5,1,12,5,-5,-30,-7
15:15:25:106216,-5,0,1,11,42,1,-18,-2
15:15:25:107008,-5,0,1,11,42,1,-18,-2
15:15:25:112961,-2,-13,-28,-5,-17,-20,24,8
15:15:25:128737,-4,-3,3,24,-6,-18,24,2
15:15:25:129485,-4,-3,3,24,-6,-18,24,2
15:15:25:135475,-1,8,31,-5,7,2,-1,-3
15:15:25:142982,-6,-16,-36,-32,-11,0,-6,-4
15:15:25:150570,-6,-16,-36,-32,-11,0,-6,-4
15:15:25:158006,-8,-21,-11,-13,-20,0,-18,-13
15:15:25:166218,-19,-17,-5,16,8,-1,7,8
15:15:25:167046,-19,-17,-5,16,8,-1,7,8
15:15:25:173005,-9,0,0,22,28,29,47,8
15:15:25:189178,0,7,15,20,-19,-11,-37,-12
15:15:25:189986,0,7,15,20,-19,-11,-37,-12
15:15:25:195475,-7,3,26,10,-9,-7,31,2
15:15:25:202990,-1,-14,-39,-42,-12,18,7,4
15:15:25:210565,-1,-14,-39,-42,-12,18,7,4
15:15:25:218009,-2,-30,-9,-9,4,-13,-19,-3
15:15:25:226197,8,13,-1,-1,-24,-10,6,-1
15:15:25:226995,8,13,-1,-1,-24,-10,6,-1
15:15:25:233033,1,10,13,-15,-13,-14,-42,-14
15:15:25:248728,-9,-22,-1,-11,24,21,-14,-6
15:15:25:249533,-9,-22,-1,-11,24,21,-14,-6
15:15:25:255522,13,14,15,15,-9,-4,11,5
15:15:25:262959,3,4,5,13,-4,8,23,-2
15:15:25:270571,3,4,5,13,-4,8,23,-2
15:15:25:278022,-2,9,1,7,-17,-5,-26,-1
15:15:25:286149,5,3,0,16,6,-7,-13,2
15:15:25:287016,5,3,0,16,6,-7,-13,2
15:15:25:293018,-1,-3,-8,-1,-27,-9,7,3
15:15:25:315956,-2,2,7,0,12,-1,-15,-17
15:15:25:324459,-2,2,7,0,12,-1,-15,-17
15:15:25:325190,16,-2,13,-21,11,9,22,1
15:15:25:325997,8,10,5,11,4,0,19,5
15:15:25:330555,8,10,5,11,4,0,19,5
15:15:25:338043,-1,6,2,-1,9,22,21,4
15:15:25:346166,-6,-8,36,-23,-6,-8,-17,-5
15:15:25:346959,-6,-8,36,-23,-6,-8,-17,-5
15:15:25:353008,-3,9,14,46,-1,-7,-12,0
15:15:25:368615,-1,-1,16,12,-18,-5,13,2
15:15:25:369445,-1,-1,16,12,-18,-5,13,2
15:15:25:375568,-7,-23,-62,-22,13,12,2,-1
15:15:25:382984,4,-12,-20,-20,2,1,64,24
15:15:25:390598,4,-12,-20,-20,2,1,64,24
15:15:25:398055,-17,-5,8,-4,-28,-15,-25,-13
15:15:25:406209,-3,-24,-14,-16,-14,-7,-35,-9
15:15:25:407046,-3,-24,-14,-16,-14,-7,-35,-9
15:15:25:412945,1,-2,-6,-12,25,10,-9,4
15:15:25:436926,-5,-6,-19,-7,37,10,1,-1
15:15:25:437715,-5,-6,-19,-7,37,10,1,-1
15:15:25:438496,3,8,-10,55,-6,-32,-41,-8
15:15:25:443073,3,19,9,16,23,9,11,8
15:15:25:450567,3,19,9,16,23,9,11,8
15:15:25:458132,2,3,6,-12,5,7,21,3
15:15:25:466224,2,-13,11,11,-25,-7,27,8
15:15:25:467053,2,-13,11,11,-25,-7,27,8
15:15:25:472999,-4,12,16,-8,-3,4,5,4
15:15:25:488685,2,0,-7,-15,-9,-3,-25,-4
15:15:25:489473,2,0,-7,-15,-9,-3,-25,-4
15:15:25:495529,4,-32,-15,-10,9,-1,19,9
15:15:25:503019,-5,-2,-28,-13,-2,-8,-9,-2
15:15:25:510521,-5,-2,-28,-13,-2,-8,-9,-2
15:15:25:518035,-7,-14,1,8,1,-5,0,-9
15:15:25:526193,-2,-3,-17,-40,-4,14,24,12
15:15:25:526986,-2,-3,-17,-40,-4,14,24,12
15:15:25:532946,-2,4,2,-27,-4,-18,-33,-12
15:15:25:549069,1,-1,8,10,21,15,16,-4
15:15:25:556198,1,-1,8,10,21,15,16,-4
15:15:25:557022,4,5,-15,-4,-13,7,-9,9
15:15:25:563002,-4,0,10,12,-31,-24,-29,-12
15:15:25:570533,-4,0,10,12,-31,-24,-29,-12
15:15:25:577958,-1,-3,-10,-10,12,16,31,-2
15:15:25:586177,-2,10,-23,31,0,6,-26,-4
15:15:25:587007,-2,10,-23,31,0,6,-26,-4
15:15:25:592988,4,2,33,2,-13,-14,-29,-4
15:15:25:608727,0,9,20,13,-8,-8,1,-3
15:15:25:609516,0,9,20,13,-8,-8,1,-3
15:15:25:615446,-3,-7,-28,18,14,7,12,5
15:15:25:622981,-1,19,24,2,-19,-5,-5,-2
15:15:25:630522,-1,19,24,2,-19,-5,-5,-2
15:15:25:638008,3,8,17,8,-16,-2,10,2
15:15:25:646172,0,-14,-7,-3,5,8,25,11
15:15:25:647009,0,-14,-7,-3,5,8,25,11
15:15:25:652981,-6,9,15,-9,4,7,0,-9
15:15:25:669088,6,7,-38,-5,7,-2,-21,12
15:15:25:676215,6,7,-38,-5,7,-2,-21,12
15:15:25:677059,-4,-14,-7,-6,-40,-16,-4,-4
15:15:25:683018,-7,-8,7,-9,0,23,18,-3
15:15:25:690654,-7,-8,7,-9,0,23,18,-3
15:15:25:698045,-3,-5,11,2,3,-2,24,17
15:15:25:706274,1,-2,66,29,20,4,3,1
15:15:25:707108,1,-2,66,29,20,4,3,1
15:15:25:720478,3,-6,-6,22,-7,8,-15,-8
15:15:25:728690,5,3,25,-35,-39,-27,31,8
15:15:25:729565,5,3,25,-35,-39,-27,31,8
15:15:25:735485,-7,5,14,0,28,15,52,12
15:15:25:743032,-2,-19,-32,-2,-9,5,-20,-14
15:15:25:750584,-2,-19,-32,-2,-9,5,-20,-14
15:15:25:758089,3,13,-5,-11,-29,-24,-56,0
15:15:25:766198,2,4,-13,27,22,2,8,2
15:15:25:767018,2,4,-13,27,22,2,8,2
15:15:25:773011,-2,4,2,-60,16,-5,-32,-13
15:15:25:796843,-1,-7,-21,3,25,9,-6,-1
15:15:25:797676,-1,-7,-21,3,25,9,-6,-1
15:15:25:798521,1,-9,-21,14,5,-5,-3,-4
15:15:25:802969,-8,2,-32,-16,-17,-16,-40,-19
15:15:25:810568,-8,2,-32,-16,-17,-16,-40,-19
15:15:25:817982,1,2,31,0,22,15,22,4
15:15:25:826271,3,-19,-8,0,-13,-5,56,15
15:15:25:827040,3,-19,-8,0,-13,-5,56,15
15:15:25:832993,7,7,-7,42,-6,11,22,2
15:15:25:848724,-3,3,10,-8,9,0,-37,-16
15:15:25:849545,-3,3,10,-8,9,0,-37,-16
15:15:25:855509,1,-19,-52,-33,16,-5,16,0
15:15:25:862972,1,29,11,19,-3,9,14,0
15:15:25:870628,1,29,11,19,-3,9,14,0
15:15:25:878014,-15,4,-8,-4,2,-1,-13,-3
15:15:25:886192,-6,-13,-5,17,30,-2,3,5
15:15:25:886978,-6,-13,-5,17,30,-2,3,5
15:15:25:893006,-2,6,-8,5,-27,-22,-73,-13
15:15:25:908738,0,1,0,-20,-25,-11,-19,-6
15:15:25:909553,0,1,0,-20,-25,-11,-19,-6
15:15:25:915477,-2,3,5,40,29,16,-34,-14
15:15:25:923062,2,5,37,-9,-29,-4,16,9
15:15:25:930518,2,5,37,-9,-29,-4,16,9
15:15:25:938074,-4,-3,47,-17,8,14,-2,-5
15:15:25:946177,-3,5,-2,-4,18,3,-12,-7
15:15:25:946988,-3,5,-2,-4,18,3,-12,-7
15:15:25:960533,0,-6,-21,-10,-16,-9,14,1
15:15:25:968659,-4,-9,-13,-2,-4,-6,-22,-11
15:15:25:969467,-4,-9,-13,-2,-4,-6,-22,-11
15:15:25:975519,9,14,11,16,-1,9,59,16
15:15:25:991271,0,5,-34,-42,-37,-12,10,5
15:15:25:991973,0,5,-34,-42,-37,-12,10,5
15:15:25:998021,4,-1,16,-6,36,39,-7,8
15:15:26:13719,-1,-3,10,13,15,4,-7,-7
15:15:26:14536,-1,-3,10,13,15,4,-7,-7
15:15:26:20511,-2,-1,22,-10,-36,-28,-23,-3
15:15:26:28677,-4,-16,10,-14,19,-11,-14,-3
15:15:26:29494,-4,-16,10,-14,19,-11,-14,-3
15:15:26:35502,-5,-28,-35,51,-22,-20,12,-2
15:15:26:51217,1,6,5,8,-6,-10,-15,-7
15:15:26:52015,1,6,5,8,-6,-10,-15,-7
15:15:26:58044,0,1,-18,-16,-1,3,4,-2
15:15:26:66176,0,1,-18,-16,-1,3,4,-2
15:15:26:66969,-7,-1,-29,45,0,6,8,-4
15:15:26:80501,2,1,3,-25,-14,3,42,15
15:15:26:88767,2,1,3,-25,-14,3,42,15
15:15:26:89509,0,-7,-2,17,4,-17,-4,3
15:15:26:95476,-2,1,-36,2,10,-9,-16,-7
15:15:26:119489,-2,1,-36,2,10,-9,-16,-7
15:15:26:120161,4,4,9,-22,-8,-15,-13,-3
15:15:26:120939,1,19,-5,-36,-4,-20,-9,-7
15:15:26:126207,1,19,-5,-36,-4,-20,-9,-7
15:15:26:126998,0,2,8,-6,3,15,13,9
15:15:26:140576,-4,-12,15,-2,-11,7,9,-1
15:15:26:148703,-4,-12,15,-2,-11,7,9,-1
15:15:26:149539,2,4,15,-14,-32,2,1,-1
15:15:26:155486,-2,-8,21,49,-1,22,20,4
15:15:26:171259,-2,-8,21,49,-1,22,20,4
15:15:26:171978,-6,-13,-12,9,3,-14,-25,-7
15:15:26:177991,-6,-24,-22,35,4,-1,-21,-9
15:15:26:186263,-6,-24,-22,35,4,-1,-21,-9
15:15:26:187004,1,8,9,-42,-26,-2,5,7
15:15:26:200593,-9,-12,-1,17,4,8,-42,-21
15:15:26:208795,-9,-12,-1,17,4,8,-42,-21
15:15:26:209480,1,-14,-23,2,14,11,28,0
15:15:26:215475,-2,-2,28,6,15,2,7,-1
15:15:26:231252,-2,-2,28,6,15,2,7,-1
15:15:26:232027,-2,0,10,20,6,9,-10,-5
15:15:26:238065,1,-5,-8,-35,-15,-7,2,3
15:15:26:246204,1,-5,-8,-35,-15,-7,2,3
15:15:26:246999,-3,4,-19,5,50,5,22,-1
15:15:26:260507,-4,16,52,-31,-16,-17,-13,-1
15:15:26:268727,-4,16,52,-31,-16,-17,-13,-1
15:15:26:269461,-4,3,0,-13,-9,5,-34,-3
15:15:26:275598,9,10,-20,-5,31,-6,22,8
15:15:26:291293,9,10,-20,-5,31,-6,22,8
15:15:26:292018,-1,-20,-66,-16,-12,-11,-8,-5
15:15:26:298037,2,18,-23,24,-1,-8,-29,0
15:15:26:306243,2,18,-23,24,-1,-8,-29,0
15:15:26:307022,2,13,15,14,-3,3,10,-1
15:15:26:320566,8,8,-13,8,-30,-4,18,2
15:15:26:328727,8,8,-13,8,-30,-4,18,2
15:15:26:329464,1,2,20,3,-53,-21,-12,0
15:15:26:335498,-13,-22,-31,-35,0,31,12,-2
15:15:26:351241,-13,-22,-31,-35,0,31,12,-2
15:15:26:351998,-3,-4,7,8,7,11,21,5
15:15:26:358045,-3,1,-21,8,3,12,8,-1
15:15:26:366206,-3,1,-21,8,3,12,8,-1
15:15:26:367001,-4,-8,10,-5,4,-9,-18,-10
15:15:26:380522,2,-5,5,-4,16,-15,12,5
15:15:26:396868,2,-5,5,-4,16,-15,12,5
15:15:26:397661,0,14,40,9,18,7,4,0
15:15:26:398475,-2,-6,11,-17,-24,-13,1,-5
15:15:26:411243,-2,-6,11,-17,-24,-13,1,-5
15:15:26:412009,3,1,2,-15,10,6,-2,2
15:15:26:418009,15,-4,23,-16,-3,-16,-38,-13
15:15:26:426259,15,-4,23,-16,-3,-16,-38,-13
15:15:26:426994,-11,-15,-6,8,26,14,46,2
15:15:26:440551,2,5,-4,-1,-7,22,50,4
15:15:26:448716,2,5,-4,-1,-7,22,50,4
15:15:26:449551,3,-10,7,-18,5,6,-7,7
15:15:26:455493,-2,-4,0,-9,19,-1,-4,9
15:15:26:471254,-2,-4,0,-9,19,-1,-4,9
15:15:26:471986,17,14,-23,2,4,-11,-29,-27
15:15:26:477991,-4,10,29,46,5,-14,-17,-2
15:15:26:486228,-4,10,29,46,5,-14,-17,-2
15:15:26:487047,-24,-19,-21,-18,-29,-17,-2,-2
15:15:26:500575,3,6,-14,-26,9,-4,-8,-1
15:15:26:508777,3,6,-14,-26,9,-4,-8,-1
15:15:26:509542,8,9,15,-11,-25,-9,15,7
15:15:26:515486,-6,7,-6,15,4,14,-18,-1
15:15:26:531171,-6,7,-6,15,4,14,-18,-1
15:15:26:531991,-6,-4,20,29,15,5,-11,0
15:15:26:538015,-21,-2,-7,-38,-1,-19,-11,-4
15:15:26:546215,-21,-2,-7,-38,-1,-19,-11,-4
15:15:26:546970,-2,-12,-8,7,-15,-15,-10,-1
15:15:26:560518,11,-4,16,-5,18,28,12,6
15:15:26:568707,11,-4,16,-5,18,28,12,6
15:15:26:569494,0,10,-5,-23,3,-3,2,2
15:15:26:575531,18,11,-12,-13,0,-15,-16,-6
15:15:26:591178,18,11,-12,-13,0,-15,-16,-6
15:15:26:591973,-17,-1,-8,-37,5,16,7,2
15:15:26:597980,3,-4,-21,12,0,2,1,1
15:15:26:606220,3,-4,-21,12,0,2,1,1
15:15:26:606987,37,20,34,45,26,7,1,4
15:15:26:620501,2,4,1,-1,-26,-6,11,-1
15:15:26:628691,2,4,1,-1,-26,-6,11,-1
15:15:26:629487,-11,-6,-1,1,-9,-8,7,-5
15:15:26:635502,0,-1,-23,-53,-14,2,8,-4
15:15:26:651212,0,-1,-23,-53,-14,2,8,-4
15:15:26:652014,-7,-19,-7,20,-9,-6,-31,-5
15:15:26:658000,-6,8,20,-13,-4,6,-10,8
15:15:26:673802,-6,8,20,-13,-4,6,-10,8
15:15:26:674542,2,-8,-24,-8,-4,-3,-6,-5
15:15:26:680465,-13,-10,-14,15,12,13,17,-4
15:15:26:688768,-13,-10,-14,15,12,13,17,-4
15:15:26:689547,-28,-21,-15,-31,-25,-5,13,3
15:15:26:695519,6,7,14,54,40,0,-9,-1
15:15:26:711267,6,7,14,54,40,0,-9,-1
15:15:26:712041,-2,1,14,15,-4,-8,-4,-6
15:15:26:717992,-15,-18,8,-22,-24,-17,10,-1
15:15:26:726223,-15,-18,8,-22,-24,-17,10,-1
15:15:26:726982,7,4,-11,46,8,5,-6,-1
15:15:26:740526,15,6,-5,13,-6,2,12,3
15:15:26:748715,15,6,-5,13,-6,2,12,3
15:15:26:749535,13,10,8,-27,3,12,36,12
15:15:26:755511,-2,-10,0,-3,-9,-6,6,-3
15:15:26:771218,-2,-10,0,-3,-9,-6,6,-3
15:15:26:771987,-14,-1,-14,-13,9,1,-8,-2
15:15:26:777981,-25,-7,29,-12,-5,-20,-21,-3
15:15:26:786256,-25,-7,29,-12,-5,-20,-21,-3
15:15:26:787022,27,23,28,-15,-2,-5,0,-2
15:15:26:800524,-18,7,-12,0,0,-1,-4,1
15:15:26:808763,-18,7,-12,0,0,-1,-4,1
15:15:26:809559,-21,-13,17,6,-8,14,-1,-1
15:15:26:815465,13,3,7,-1,7,7,5,1
15:15:26:831203,13,3,7,-1,7,7,5,1
15:15:26:832046,-9,22,14,-4,-11,-15,-9,-3
15:15:26:837973,4,-6,-68,-19,-11,8,-19,3
15:15:26:846184,4,-6,-68,-19,-11,8,-19,3
15:15:26:847012,28,-13,-39,2,-5,18,-13,-5
15:15:26:860538,-15,-23,-27,-3,8,-33,-11,-15
15:15:26:868744,-15,-23,-27,-3,8,-33,-11,-15
15:15:26:869562,-37,0,33,-10,10,9,2,4
15:15:26:882989,-4,-1,75,67,-22,-15,-6,-4
15:15:26:891281,-4,-1,75,67,-22,-15,-6,-4
15:15:26:892051,7,1,19,4,21,16,-32,-3
15:15:26:897981,5,14,-2,2,-5,3,2,-1
15:15:26:905554,5,14,-2,2,-5,3,2,-1
15:15:26:912984,-16,1,-20,3,-6,2,7,6
15:15:26:920517,-22,-3,-24,-51,-13,-8,-9,-1
15:15:26:928746,-22,-3,-24,-51,-13,-8,-9,-1
15:15:26:929521,4,4,10,-5,19,-1,1,-3
15:15:26:943040,8,-1,-1,-9,1,11,8,1
15:15:26:951222,8,-1,-1,-9,1,11,8,1
15:15:26:952014,25,13,-29,15,7,-14,-7,-1
15:15:26:958004,14,-12,-37,-11,10,13,-3,-2
15:15:26:965623,14,-12,-37,-11,10,13,-3,-2
15:15:26:973033,-1,-5,-3,6,-9,-27,-7,-1
15:15:26:980490,-6,-8,11,13,-15,-1,3,-1
15:15:26:988743,-6,-8,11,13,-15,-1,3,-1
15:15:26:989504,-4,-9,-14,-3,0,2,5,0
15:15:27:2995,-16,7,34,-79,-26,-10,1,-3
15:15:27:11251,-16,7,34,-79,-26,-10,1,-3
15:15:27:12037,14,4,11,-9,-36,4,3,-5
15:15:27:18003,-12,-5,13,-4,-1,20,-13,-3
15:15:27:25573,-12,-5,13,-4,-1,20,-13,-3
15:15:27:33024,3,-20,-15,-2,-15,-5,11,-1
15:15:27:40523,22,1,-20,20,-19,-12,-33,-1
15:15:27:48699,22,1,-20,20,-19,-12,-33,-1
15:15:27:49530,-4,14,30,14,35,13,-17,3
15:15:27:63005,-3,-8,29,9,12,-7,2,-3
15:15:27:71166,-3,-8,29,9,12,-7,2,-3
15:15:27:71968,-5,0,-14,-52,-4,-25,10,1
15:15:27:78004,-13,-8,-18,-4,6,8,31,4
15:15:27:85501,-13,-8,-18,-4,6,8,31,4
15:15:27:92968,-3,-1,-16,-9,7,-10,2,2
15:15:27:109384,-3,13,9,20,47,27,31,2
15:15:27:110164,-3,13,9,20,47,27,31,2
15:15:27:110933,-21,-9,36,-15,-8,-9,-9,-7
15:15:27:122980,39,5,-58,-22,-21,-19,-12,-1
15:15:27:131206,39,5,-58,-22,-21,-19,-12,-1
15:15:27:131998,-3,0,22,67,20,14,9,-3
15:15:27:138001,-6,9,11,42,-6,-1,3,-3
15:15:27:145519,-6,9,11,42,-6,-1,3,-3
15:15:27:152985,-14,-19,-39,11,-29,-25,-31,-6
15:15:27:160516,0,6,34,1,-9,-9,-4,1
15:15:27:168669,0,6,34,1,-9,-9,-4,1
15:15:27:169470,28,-5,31,-13,6,46,46,1
15:15:27:183034,19,2,22,16,3,-9,-12,0
15:15:27:191224,19,2,22,16,3,-9,-12,0
15:15:27:192000,25,10,-59,-16,-8,11,0,3
15:15:27:197998,-4,5,3,-48,-13,8,24,-1
15:15:27:205546,-4,5,3,-48,-13,8,24,-1
15:15:27:212943,-7,8,-30,-14,0,-9,-4,-2
15:15:27:220523,-21,-15,-8,-25,-25,-22,-22,-6
15:15:27:228747,-21,-15,-8,-25,-25,-22,-22,-6
15:15:27:229478,18,12,2,-6,1,1,-4,1
15:15:27:243074,-8,-13,-25,24,9,-1,21,7
15:15:27:251196,-8,-13,-25,24,9,-1,21,7
15:15:27:252010,7,-12,-35,23,5,11,4,8
15:15:27:257995,4,12,22,44,7,-2,11,7
15:15:27:265541,4,12,22,44,7,-2,11,7
15:15:27:273013,-19,6,24,37,2,-27,-14,-8
15:15:27:280471,10,-11,23,-19,10,27,-3,-4
15:15:27:288708,10,-11,23,-19,10,27,-3,-4
15:15:27:289549,-14,-6,-14,17,7,10,3,2
15:15:27:302949,2,-6,-3,13,-2,-16,-20,-5
15:15:27:311235,2,-6,-3,13,-2,-16,-20,-5
15:15:27:312037,-3,-7,-41,-48,-19,-13,47,2
15:15:27:318002,8,4,4,1,34,19,-2,1
15:15:27:325591,8,4,4,1,34,19,-2,1
15:15:27:332979,9,5,-7,-13,-4,1,-17,-7
15:15:27:340546,-33,-6,10,0,-5,-12,-9,-2
15:15:27:348761,-33,-6,10,0,-5,-12,-9,-2
15:15:27:349552,-8,8,23,-6,7,2,-23,-2
15:15:27:362998,-12,-5,-16,4,-9,-5,-11,-3
15:15:27:371239,-12,-5,-16,4,-9,-5,-11,-3
15:15:27:372045,-10,-6,-7,79,42,11,-14,-4
15:15:27:378000,-6,5,-10,-26,6,18,25,8
15:15:27:385544,-6,5,-10,-26,6,18,25,8
15:15:27:393032,-3,-7,14,-23,-11,-4,4,-7
15:15:27:400537,22,-9,-26,27,-6,-4,-3,-8
15:15:27:408695,22,-9,-26,27,-6,-4,-3,-8
15:15:27:409479,-5,-11,30,-21,-21,-12,-2,-2
15:15:27:422993,25,2,1,-17,-9,-8,4,3
15:15:27:431238,25,2,1,-17,-9,-8,4,3
15:15:27:432018,8,4,37,41,44,-1,-20,-2
15:15:27:438030,-4,3,18,24,5,-5,20,-5
15:15:27:445533,-4,3,18,24,5,-5,20,-5
15:15:27:452984,-11,-3,-7,-35,-24,-14,-2,-3
15:15:27:460505,-3,6,19,3,9,-18,-17,-4
15:15:27:468664,-3,6,19,3,9,-18,-17,-4
15:15:27:469492,-11,-12,18,-4,-11,-3,8,1
15:15:27:483030,-3,1,-14,-33,-18,-1,-9,-4
15:15:27:491225,-3,1,-14,-33,-18,-1,-9,-4
15:15:27:491978,-21,-8,6,25,20,9,1,7
15:15:27:498016,11,1,3,12,22,9,-4,3
15:15:27:505528,11,1,3,12,22,9,-4,3
15:15:27:512956,16,10,-17,-13,-6,-3,0,-3
15:15:27:520439,0,14,-39,-7,-15,23,0,0
15:15:27:528710,0,14,-39,-7,-15,23,0,0
15:15:27:529502,21,-1,15,-18,-28,-17,-16,-2
15:15:27:543046,-5,-8,-30,-18,24,15,7,-4
15:15:27:551187,-5,-8,-30,-18,24,15,7,-4
15:15:27:552010,-19,11,-3,5,0,7,12,2
15:15:27:557958,-5,1,2,-24,-3,-7,-9,-4
15:15:27:565508,-5,1,2,-24,-3,-7,-9,-4
15:15:27:572978,8,-1,-2,-19,-24,-18,-7,-8
15:15:27:580463,-21,-16,-19,-6,7,-11,-5,-4
15:15:27:588703,-21,-16,-19,-6,7,-11,-5,-4
15:15:27:589505,36,12,-26,-12,-3,12,18,8
15:15:27:602962,-21,-12,-6,-17,-25,2,-24,-7
15:15:27:611209,-21,-12,-6,-17,-25,2,-24,-7
15:15:27:612025,6,3,-18,-8,-16,-4,-2,-2
15:15:27:617960,9,24,22,-7,-12,-40,-76,-18
15:15:27:625613,9,24,22,-7,-12,-40,-76,-18
15:15:27:632978,-11,4,27,-10,30,26,11,14
15:15:27:640500,-16,-11,8,30,-9,-19,1,-2
15:15:27:648737,-16,-11,8,30,-9,-19,1,-2
15:15:27:649545,-12,-19,-6,-1,-13,-9,6,-5
15:15:27:663010,7,3,34,54,3,3,27,1
15:15:27:671218,7,3,34,54,3,3,27,1
15:15:27:671992,-21,11,31,14,7,34,8,-4
15:15:27:677988,-12,-22,-41,0,-8,-13,1,-6
15:15:27:685553,-12,-22,-41,0,-8,-13,1,-6
15:15:27:693006,-11,-2,1,-3,-5,0,-29,-10
15:15:27:700535,16,-3,35,22,35,11,16,4
15:15:27:708722,16,-3,35,22,35,11,16,4
15:15:27:709484,-14,-17,-10,2,8,1,-2,-4
15:15:27:723000,-1,1,-32,-7,-10,-5,18,4
15:15:27:731260,-1,1,-32,-7,-10,-5,18,4
15:15:27:732029,8,14,15,-1,24,20,-18,-10
15:15:27:738061,42,-7,-5,-31,-10,0,-10,4
15:15:27:745535,42,-7,-5,-31,-10,0,-10,4
15:15:27:752995,12,-15,-37,11,-10,25,40,-6
15:15:27:760544,10,13,23,16,6,23,6,5
15:15:27:768667,10,13,23,16,6,23,6,5
15:15:27:769497,-13,-16,-19,-10,-7,-34,12,3
15:15:27:783014,-55,-17,-15,-15,-22,-2,-1,-1
15:15:27:791261,-55,-17,-15,-15,-22,-2,-1,-1
15:15:27:792018,-14,-47,-17,-4,44,8,-6,2
15:15:27:806169,-3,6,10,-9,-12,-13,-5,4
15:15:27:806993,-3,6,10,-9,-12,-13,-5,4
15:15:27:812997,9,17,-29,-29,-23,7,8,4
15:15:27:820508,43,21,-10,-13,-7,-5,13,0
15:15:27:828020,43,21,-10,-13,-7,-5,13,0
15:15:27:835428,16,2,15,4,11,-11,5,-5
15:15:27:843023,8,17,9,-14,9,-12,11,1
15:15:27:851198,8,17,9,-14,9,-12,11,1
15:15:27:851993,-5,18,26,22,-11,-33,-10,4
15:15:27:866168,-14,-31,-4,27,-1,6,10,3
15:15:27:866998,-14,-31,-4,27,-1,6,10,3
15:15:27:872928,-4,19,-14,7,21,-10,-19,-3
15:15:27:880528,3,-1,19,-10,-7,2,10,-3
15:15:27:888025,3,-1,19,-10,-7,2,10,-3
15:15:27:895483,-1,3,4,34,-40,-30,-7,3
15:15:27:902974,-39,-33,-20,7,13,13,-58,-11
15:15:27:911217,-39,-33,-20,7,13,13,-58,-11
15:15:27:912000,10,21,-1,-36,-16,-3,14,2
15:15:27:926215,1,14,28,-3,-8,5,-5,12
15:15:27:927007,1,14,28,-3,-8,5,-5,12
15:15:27:932971,-18,-16,-54,-1,8,6,-7,1
15:15:27:940486,10,6,-24,76,39,18,9,1
15:15:27:948045,10,6,-24,76,39,18,9,1
15:15:27:955521,8,2,-6,-15,-24,-22,-16,-2
15:15:27:962978,-10,13,4,-19,-5,-11,12,2
15:15:27:971255,-10,13,4,-19,-5,-11,12,2
15:15:27:972003,-3,-20,7,55,-1,-16,-16,-6
15:15:27:986181,4,10,-30,-38,-9,11,15,-8
15:15:27:987016,4,10,-30,-38,-9,11,15,-8
15:15:27:992985,-18,3,35,-10,0,8,18,6
15:15:28:500,0,-7,-16,-48,13,5,-2,-2
15:15:28:8110,0,-7,-16,-48,13,5,-2,-2
15:15:28:15470,7,-13,11,87,55,19,-4,-1
15:15:28:23039,-7,-22,-48,-29,-16,-15,-11,-8
15:15:28:31157,-7,-22,-48,-29,-16,-15,-11,-8
15:15:28:32014,11,17,-5,-64,-36,-11,-10,-2
15:15:28:46235,7,3,-9,13,17,30,11,-2
15:15:28:47055,7,3,-9,13,17,30,11,-2
15:15:28:52960,-33,-5,-27,-21,18,21,-2,-6
15:15:28:60543,-3,5,21,-3,-19,-36,-32,-7
15:15:28:68047,-3,5,21,-3,-19,-36,-32,-7
15:15:28:75616,16,6,29,-13,-15,10,81,23
15:15:28:83037,-14,6,8,-10,41,0,-6,0
15:15:28:91210,-14,6,8,-10,41,0,-6,0
15:15:28:91995,16,-2,41,23,1,-11,-29,-7
15:15:28:106162,1,-14,-1,48,-5,-7,6,2
15:15:28:106971,1,-14,-1,48,-5,-7,6,2
15:15:28:112992,12,2,-9,-27,-13,2,-12,-2
15:15:28:120536,-2,4,34,-25,-16,-13,-8,-5
15:15:28:127999,-2,4,34,-25,-16,-13,-8,-5
15:15:28:135443,-5,-13,14,-12,-21,-3,-5,-2
15:15:28:142995,31,1,5,18,6,37,36,8
15:15:28:151175,31,1,5,18,6,37,36,8
15:15:28:151998,1,-2,-40,-25,0,4,-10,-5
15:15:28:166167,13,-5,5,46,20,-9,12,0
15:15:28:166971,13,-5,5,46,20,-9,12,0
15:15:28:173011,15,9,-16,12,-14,-14,-21,-1
15:15:28:180488,4,5,-26,-20,-25,-13,-12,7
15:15:28:188101,4,5,-26,-20,-25,-13,-12,7
15:15:28:195423,-14,-2,0,1,-2,-11,-19,-4
15:15:28:203004,-44,-24,-10,-13,-4,8,-9,-10
15:15:28:211208,-44,-24,-10,-13,-4,8,-9,-10
15:15:28:211978,4,3,7,-12,20,-1,-5,-5
15:15:28:226144,-11,10,-2,-29,-12,-4,-10,-2
15:15:28:226966,-11,10,-2,-29,-12,-4,-10,-2
15:15:28:232984,-8,-6,4,53,-3,2,12,-2
15:15:28:240506,10,-7,33,-14,-1,-7,-59,-10
15:15:28:248059,10,-7,33,-14,-1,-7,-59,-10
15:15:28:255472,-12,-4,28,-30,2,21,7,-4
15:15:28:263003,5,6,-2,-13,-24,-14,3,0
15:15:28:271214,5,6,-2,-13,-24,-14,3,0
15:15:28:272028,-28,5,2,-8,-6,-8,-45,-7
15:15:28:286263,-12,-17,-24,-63,-32,-5,6,-2
15:15:28:287029,-12,-17,-24,-63,-32,-5,6,-2
15:15:28:293007,20,-6,1,37,35,-7,16,1
15:15:28:300518,14,6,11,35,26,9,7,4
15:15:28:308171,14,6,11,35,26,9,7,4
15:15:28:315526,14,9,-3,-2,-38,-21,23,2
15:15:28:323030,5,1,-64,-16,24,-2,-1,-2
15:15:28:338732,5,1,-64,-16,24,-2,-1,-2
15:15:28:339559,-6,4,-16,-25,5,21,-27,0
15:15:28:346197,-15,5,7,25,-19,-3,27,0
15:15:28:347036,-15,5,7,25,-19,-3,27,0
15:15:28:352980,-12,0,-31,-27,5,20,36,6
15:15:28:360512,8,3,39,2,3,-8,20,2
15:15:28:368053,8,3,39,2,3,-8,20,2
15:15:28:375548,7,2,39,-25,18,26,23,2
15:15:28:382976,-22,-4,2,-21,-27,-11,-6,-5
15:15:28:391208,-22,-4,2,-21,-27,-11,-6,-5
15:15:28:392031,-15,-2,15,28,-25,-23,-18,-6
15:15:28:406142,-5,10,4,23,17,12,-19,1
15:15:28:407003,-5,10,4,23,17,12,-19,1
15:15:28:413022,24,9,-9,-4,9,29,91,41
15:15:28:420560,-18,-2,8,16,-5,-4,4,-6
15:15:28:428040,-18,-2,8,16,-5,-4,4,-6
15:15:28:435453,-9,-19,-14,-10,-29,-40,-56,-24
15:15:28:443031,9,-3,8,14,21,6,16,12
15:15:28:451168,9,-3,8,14,21,6,16,12
15:15:28:451999,-1,-12,3,4,11,9,-20,-5
15:15:28:466186,-6,-9,-38,-28,-19,-10,-10,-10
15:15:28:466984,-6,-9,-38,-28,-19,-10,-10,-10
15:15:28:472975,20,9,6,1,24,30,-3,-4
15:15:28:480494,4,-1,25,21,-17,-21,-42,4
15:15:28:488031,4,-1,25,21,-17,-21,-42,4
15:15:28:495485,-9,-16,9,-21,-8,-20,-63,-22
15:15:28:502986,2,1,-13,-9,-18,12,17,12
15:15:28:511238,2,1,-13,-9,-18,12,17,12
15:15:28:512021,14,17,4,6,48,14,5,0
15:15:28:526200,22,9,-27,65,28,4,-13,-1
15:15:28:527004,22,9,-27,65,28,4,-13,-1
15:15:28:532965,4,10,-10,-11,-29,2,-9,-4
15:15:28:540479,19,31,19,-24,-4,-1,31,0
15:15:28:548021,19,31,19,-24,-4,-1,31,0
15:15:28:555491,6,-13,4,15,-11,-24,1,-8
15:15:28:562971,-31,-8,-2,-3,19,22,10,-3
15:15:28:571254,-31,-8,-2,-3,19,22,10,-3
15:15:28:572009,6,10,34,73,33,-3,-5,5
15:15:28:586152,-2,-4,13,4,-18,8,6,-3
15:15:28:587006,-2,-4,13,4,-18,8,6,-3
15:15:28:593027,-4,2,-7,-28,-12,13,25,1
15:15:28:600513,-3,-7,-38,-29,-6,7,14,5
15:15:28:616188,-3,-7,-38,-29,-6,7,14,5
15:15:28:617018,-14,-3,-35,-17,-17,-21,-3,-4
15:15:28:623027,2,1,-46,-15,-12,-25,-23,-11
15:15:28:631256,2,1,-46,-15,-12,-25,-23,-11
15:15:28:632060,-6,12,-3,-2,-3,-10,33,4
15:15:28:646194,4,-2,42,89,48,6,2,3
15:15:28:647015,4,-2,42,89,48,6,2,3
15:15:28:652988,-5,9,24,15,-14,-17,-12,-4
15:15:28:660459,6,-1,34,-43,-9,-12,-13,-1
15:15:28:668026,6,-1,34,-43,-9,-12,-13,-1
15:15:28:675490,3,-11,13,-9,6,11,-2,6
15:15:28:683001,-38,1,-12,-7,-19,-14,6,-2
15:15:28:691298,-38,1,-12,-7,-19,-14,6,-2
15:15:28:692055,-9,-18,-8,-45,-21,-7,-24,-6
15:15:28:706211,26,-16,2,-91,-25,-5,-8,6
15:15:28:707042,26,-16,2,-91,-25,-5,-8,6
15:15:28:712966,-3,2,-18,8,-9,-2,7,4
15:15:28:720502,-38,-15,-12,-1,14,2,-15,-4
15:15:28:728089,-38,-15,-12,-1,14,2,-15,-4
15:15:28:735497,22,10,-10,-1,2,-6,-12,1
15:15:28:743016,28,8,2,-1,-16,-5,59,0
15:15:28:751154,28,8,2,-1,-16,-5,59,0
15:15:28:751967,-10,-2,-19,0,13,-18,-55,-10
15:15:28:766229,1,-15,13,21,-30,-12,-21,-2
15:15:28:767043,1,-15,13,21,-30,-12,-21,-2
15:15:28:772979,-2,4,-9,-43,-17,10,26,2
15:15:28:788727,6,18,-19,17,14,12,-3,-3
15:15:28:789506,6,18,-19,17,14,12,-3,-3
15:15:28:795500,-13,3,16,-30,5,11,-7,-1
15:15:28:802966,-19,-10,-5,46,-14,-9,12,-4
15:15:28:810575,-19,-10,-5,46,-14,-9,12,-4
15:15:28:817985,11,-1,-20,19,16,18,6,2
15:15:28:826169,13,10,30,16,7,4,6,-6
15:15:28:827051,13,10,30,16,7,4,6,-6
15:15:28:833049,-24,-18,-27,12,-13,-17,29,-4
15:15:28:848652,16,6,20,27,36,21,-96,5
15:15:28:849510,16,6,20,27,36,21,-96,5
15:15:28:855528,-10,9,16,-7,4,-11,17,-1
15:15:28:862951,0,-5,8,-29,-24,-27,-1,-10
15:15:28:870512,0,-5,8,-29,-24,-27,-1,-10
15:15:28:878057,11,-13,-2,34,3,-1,-6,3
15:15:28:886155,9,12,28,19,15,-3,8,0
15:15:28:887019,9,12,28,19,15,-3,8,0
15:15:28:893028,-1,-5,21,-13,-6,15,18,-6
15:15:28:908749,-40,-10,-26,-8,-9,5,3,1
15:15:28:909521,-40,-10,-26,-8,-9,5,3,1
15:15:28:915515,3,0,-11,17,17,24,-9,-2
15:15:28:923027,18,-1,9,-5,6,5,17,0
15:15:28:930544,18,-1,9,-5,6,5,17,0
15:15:28:937992,7,-8,11,10,-2,-16,7,2
15:15:28:946206,7,2,-8,4,-14,-29,39,10
15:15:28:947061,7,2,-8,4,-14,-29,39,10
15:15:28:952992,-21,-9,18,23,13,8,5,10
15:15:28:968671,-47,-14,0,-5,5,-9,-29,-4
15:15:28:969501,-47,-14,0,-5,5,-9,-29,-4
15:15:28:975547,-9,5,-22,-8,-8,-9,-1,-8
15:15:28:983013,-19,1,-10,-16,8,32,7,-4
15:15:28:990566,-19,1,-10,-16,8,32,7,-4
15:15:28:997987,-7,4,12,14,-14,-8,-23,-13
15:15:29:6197,22,5,4,-57,-3,5,-14,-2
15:15:29:7025,22,5,4,-57,-3,5,-14,-2
15:15:29:13000,-8,9,-5,-27,-24,-10,-25,3
15:15:29:28685,-1,-13,17,85,9,-6,13,-5
15:15:29:29529,-1,-13,17,85,9,-6,13,-5
15:15:29:35475,37,14,3,8,0,0,-21,5
15:15:29:42943,1,-22,-7,-27,16,27,23,10
15:15:29:50580,1,-22,-7,-27,16,27,23,10
15:15:29:58002,26,7,-7,7,-14,28,29,1
15:15:29:66190,24,8,6,4,12,7,-17,-4
15:15:29:67012,24,8,6,4,12,7,-17,-4
15:15:29:73001,5,-14,-2,-15,-21,-19,0,2
15:15:29:88746,4,13,10,41,20,2,-3,-5
15:15:29:89544,4,13,10,41,20,2,-3,-5
15:15:29:95522,-6,-4,-5,-6,21,-7,-20,2
15:15:29:103044,-20,-7,-43,-15,-13,12,-1,3
15:15:29:110602,-20,-7,-43,-15,-13,12,-1,3
15:15:29:117978,-23,-10,2,-2,19,1,18,-2
15:15:29:126195,-5,9,0,-29,7,12,-5,-1
15:15:29:126982,-5,9,0,-29,7,12,-5,-1
15:15:29:133009,-10,-8,-30,-12,-10,-13,3,1
15:15:29:148658,21,5,-23,-53,0,-24,-6,-8
15:15:29:149472,21,5,-23,-53,0,-24,-6,-8
15:15:29:155509,-6,1,11,5,2,-7,-5,-1
15:15:29:162993,-2,7,3,-3,-4,-14,-10,-9
15:15:29:170537,-2,7,3,-3,-4,-14,-10,-9
15:15:29:178033,-13,-31,-23,-11,-31,-9,-76,-19
15:15:29:186189,-49,-31,-22,4,33,4,8,-3
15:15:29:187004,-49,-31,-22,4,33,4,8,-3
15:15:29:192980,4,-5,40,25,-13,-10,-6,-3
15:15:29:208722,11,22,4,-14,-12,10,-7,-4
15:15:29:209517,11,22,4,-14,-12,10,-7,-4
15:15:29:215443,3,9,9,92,69,15,21,0
15:15:29:223008,11,9,15,23,7,-5,16,4
15:15:29:230539,11,9,15,23,7,-5,16,4
15:15:29:238007,-7,9,4,-29,-25,-19,0,7
15:15:29:246206,11,-12,-13,14,10,9,-34,2
15:15:29:247026,11,-12,-13,14,10,9,-34,2
15:15:29:253006,-2,-8,-12,-30,-50,-24,-4,-6
15:15:29:268672,-12,-3,4,-12,-21,-6,24,-1
15:15:29:269464,-12,-3,4,-12,-21,-6,24,-1
15:15:29:275470,10,15,18,-23,-2,2,8,-2
15:15:29:282964,17,-7,13,-24,-28,-35,0,-1
15:15:29:290585,17,-7,13,-24,-28,-35,0,-1
15:15:29:297955,-21,4,3,10,31,28,9,8
15:15:29:306213,13,5,10,28,2,41,59,4
15:15:29:307015,13,5,10,28,2,41,59,4
15:15:29:312978,12,7,1,-13,10,-2,115,12
15:15:29:328746,21,6,-24,-4,-1,-25,-46,-7
15:15:29:329525,21,6,-24,-4,-1,-25,-46,-7
15:15:29:335484,40,-10,-20,-19,-2,4,-23,-9
15:15:29:342991,28,-5,-4,-8,-2,-2,15,4
15:15:29:350563,28,-5,-4,-8,-2,-2,15,4
15:15:29:358002,5,11,18,56,58,13,-10,-1
15:15:29:366168,0,-6,-47,4,-3,-6,-44,-7
15:15:29:366937,0,-6,-47,4,-3,-6,-44,-7
15:15:29:372997,-7,-14,-35,-12,-31,-30,-21,-4
15:15:29:388748,-11,-10,6,15,4,17,94,6
15:15:29:389530,-11,-10,6,15,4,17,94,6
15:15:29:395524,-8,8,6,-22,-7,-2,25,9
15:15:29:411260,-8,8,6,-22,-7,-2,25,9
15:15:29:412026,23,2,18,-22,-8,-11,-24,0
15:15:29:417977,5,0,3,-9,0,-6,2,-6
15:15:29:426239,5,0,3,-9,0,-6,2,-6
15:15:29:427004,-18,1,-17,-4,-20,17,-7,-1
15:15:29:433001,0,6,21,5,6,28,-20,-2
15:15:29:448716,0,6,21,5,6,28,-20,-2
15:15:29:449518,-22,6,16,-26,-14,-10,-20,-3
15:15:29:455522,-14,-7,-27,-10,-7,-3,2,-6
15:15:29:471196,-14,-7,-27,-10,-7,-3,2,-6
15:15:29:471997,-6,-10,4,-20,-13,-21,-14,-5
15:15:29:477985,10,-9,7,-12,18,19,60,20
15:15:29:494361,10,-9,7,-12,18,19,60,20
15:15:29:495138,-52,-7,26,10,-42,-18,-9,-4
15:15:29:495949,18,25,1,5,-12,-2,-41,-2
15:15:29:508729,18,25,1,5,-12,-2,-41,-2
15:15:29:509532,16,-2,35,7,9,8,11,3
15:15:29:515447,6,4,-4,-29,-29,-14,-13,-5
15:15:29:531188,6,4,-4,-29,-29,-14,-13,-5
15:15:29:531992,4,-4,30,27,36,21,25,4
15:15:29:538007,-5,0,-15,17,-3,-18,-24,-10
15:15:29:546191,-5,0,-15,17,-3,-18,-24,-10
15:15:29:546977,-23,3,-2,-6,12,6,13,5
15:15:29:552988,-6,-11,31,12,0,17,14,2
15:15:29:568677,-6,-11,31,12,0,17,14,2
15:15:29:569451,32,16,-11,-10,26,-19,-39,-3
15:15:29:575569,-31,-6,-25,-27,-4,8,-34,-6
15:15:29:591342,-31,-6,-25,-27,-4,8,-34,-6
15:15:29:592126,7,-2,-26,-17,-39,-14,-12,-9
15:15:29:597998,-1,-3,4,-27,3,-17,-16,-7
15:15:29:606200,-1,-3,4,-27,3,-17,-16,-7
15:15:29:606975,5,-4,-15,-8,-5,-1,4,9
15:15:29:612997,-13,-12,-6,-9,2,21,24,1
15:15:29:628694,-13,-12,-6,-9,2,21,24,1
15:15:29:629460,-19,-17,-18,20,13,6,6,-5
15:15:29:635459,-11,-15,-21,-23,-32,-44,7,-3
15:15:29:651227,-11,-15,-21,-23,-32,-44,7,-3
15:15:29:652004,-27,-7,12,-16,-7,6,-19,-1
15:15:29:658019,19,9,-44,47,35,19,-18,-5
15:15:29:666192,19,9,-44,47,35,19,-18,-5
15:15:29:666933,-4,5,6,7,0,1,-27,-2
15:15:29:672988,18,-4,22,1,-4,-13,-14,-1
15:15:29:688724,18,-4,22,1,-4,-13,-14,-1
15:15:29:689525,15,9,20,81,6,-6,0,3
15:15:29:695495,4,12,35,1,-12,-2,7,2
15:15:29:711207,4,12,35,1,-12,-2,7,2
15:15:29:712031,-11,-3,10,-3,46,-1,8,4
15:15:29:717989,-32,-12,-12,-8,14,-2,-21,-10
15:15:29:726287,-32,-12,-12,-8,14,-2,-21,-10
15:15:29:727011,-7,8,-19,-48,-20,3,-3,-17
15:15:29:740566,-1,10,9,-1,-18,6,20,9
15:15:29:748716,-1,10,9,-1,-18,6,20,9
15:15:29:749512,24,-14,-36,8,-14,-7,-2,-2
15:15:29:755517,-1,-5,-14,6,-3,-4,29,0
15:15:29:771225,-1,-5,-14,6,-3,-4,29,0
15:15:29:772059,-10,-6,3,-41,-16,-14,-30,-2
15:15:29:786939,11,9,-28,-7,-13,11,-44,-3
15:15:29:787661,11,9,-28,-7,-13,11,-44,-3
15:15:29:788450,-13,-24,0,-32,14,16,26,-13
15:15:29:800552,29,-6,-2,46,-27,-27,14,1
15:15:29:808723,29,-6,-2,46,-27,-27,14,1
15:15:29:809546,10,10,14,10,26,15,-7,5
15:15:29:815434,-14,-6,-5,-49,-39,-15,-9,-9
15:15:29:831164,-14,-6,-5,-49,-39,-15,-9,-9
15:15:29:831945,-1,8,-5,13,-16,5,18,4
15:15:29:837998,-2,-1,10,-12,15,2,-13,2
15:15:29:846167,-2,-1,10,-12,15,2,-13,2
15:15:29:847013,-16,-3,-5,-9,-5,-10,-25,14
15:15:29:869370,-48,-28,-12,5,6,11,6,0
15:15:29:870201,-48,-28,-12,5,6,11,6,0
15:15:29:871031,4,-17,-39,31,3,-1,-24,-11
15:15:29:875548,6,8,-1,-12,30,-23,8,-2
15:15:29:891280,6,8,-1,-12,30,-23,8,-2
15:15:29:892107,-3,1,6,-26,-39,-20,20,-2
15:15:29:897952,-10,-15,2,4,26,7,-17,-20
15:15:29:906276,-10,-15,2,4,26,7,-17,-20
15:15:29:906990,27,27,14,-16,19,9,-11,1
15:15:29:920468,-31,1,-9,-3,30,19,30,11
15:15:29:928729,-31,1,-9,-3,30,19,30,11
15:15:29:929510,15,12,-41,3,-8,5,18,-3
15:15:29:935449,6,2,9,75,-7,-12,-4,0
15:15:29:951219,6,2,9,75,-7,-12,-4,0
15:15:29:951995,28,21,17,3,-21,-9,2,2
15:15:29:958000,28,6,29,-17,54,22,-1,2
15:15:29:966230,28,6,29,-17,54,22,-1,2
15:15:29:967018,5,0,37,-2,-10,-19,12,-8
15:15:29:989346,7,8,3,-7,8,34,54,19
15:15:29:990145,7,8,3,-7,8,34,54,19
15:15:29:990927,9,-3,21,14,11,-2,23,7
15:15:29:995500,-28,-8,-47,-18,-22,-7,-21,-15
15:15:30:11200,-28,-8,-47,-18,-22,-7,-21,-15
15:15:30:11969,-25,-5,-35,7,3,2,-9,-4
15:15:30:17982,18,13,27,34,-16,-15,-28,-9
15:15:30:26198,18,13,27,34,-16,-15,-28,-9
15:15:30:27006,-36,-18,8,25,-51,-41,-16,-14
15:15:30:40531,-17,-26,8,-36,26,48,-7,1
15:15:30:48649,-17,-26,8,-36,26,48,-7,1
15:15:30:49489,2,-15,24,-15,23,12,3,5
15:15:30:55503,-15,-3,-5,-8,-24,8,7,26
15:15:30:63034,-15,-3,-5,-8,-24,8,7,26
15:15:30:70441,-19,-9,-46,-20,1,11,24,3
15:15:30:78068,42,16,-5,-69,-45,-23,-27,-14
15:15:30:86182,42,16,-5,-69,-45,-23,-27,-14
15:15:30:86981,6,-18,3,9,3,17,-13,-1
15:15:30:100549,-2,0,-3,6,24,-6,-2,-4
15:15:30:108714,-2,0,-3,6,24,-6,-2,-4
15:15:30:109530,-4,5,-20,-13,4,5,7,-6
15:15:30:115437,0,-7,10,-18,-20,-27,20,0
15:15:30:123025,0,-7,10,-18,-20,-27,20,0
15:15:30:130508,9,1,-11,-44,-1,-9,-32,0
15:15:30:138004,-11,5,15,16,-65,-57,-35,-7
15:15:30:146197,-11,5,15,16,-65,-57,-35,-7
15:15:30:146961,-1,-4,5,30,44,55,-46,-7
15:15:30:160452,-15,-13,22,6,7,2,12,16
15:15:30:168702,-15,-13,22,6,7,2,12,16
15:15:30:169486,1,0,-8,-25,-61,-36,-2,5
15:15:30:175480,7,10,-42,5,8,1,-27,-7
15:15:30:183059,7,10,-42,5,8,1,-27,-7
15:15:30:190503,-35,-12,15,-17,-3,-8,3,-1
15:15:30:197949,3,4,0,5,29,13,10,-4
15:15:30:206266,3,4,0,5,29,13,10,-4
15:15:30:207057,13,19,16,14,65,18,3,-2
15:15:30:220550,-9,-13,-12,4,-14,4,15,-6
15:15:30:228720,-9,-13,-12,4,-14,4,15,-6
15:15:30:229492,-28,-10,2,17,22,20,-26,1
15:15:30:235451,7,7,8,-8,-41,-33,-14,-12
15:15:30:243046,7,7,8,-8,-41,-33,-14,-12
15:15:30:250537,-4,-6,0,-30,-50,-13,14,3
15:15:30:258116,-29,2,-14,22,-11,28,25,-3
15:15:30:266171,-29,2,-14,22,-11,28,25,-3
15:15:30:267004,3,27,-2,-1,4,-12,10,1
15:15:30:280536,7,-12,-1,4,7,-4,-6,-3
15:15:30:288737,7,-12,-1,4,7,-4,-6,-3
15:15:30:289534,-24,-23,12,13,9,1,3,-8
15:15:30:295546,32,27,27,-10,32,25,-8,3
15:15:30:302978,32,27,27,-10,32,25,-8,3
15:15:30:310544,-16,-3,-5,-2,-18,-20,-5,-10
15:15:30:317975,-15,-17,9,44,13,19,1,6
15:15:30:326231,-15,-17,9,44,13,19,1,6
15:15:30:326999,23,11,0,-13,-26,-25,-4,-6
15:15:30:340544,4,-7,-3,-8,13,12,-2,9
15:15:30:348674,4,-7,-3,-8,13,12,-2,9
15:15:30:349468,4,-17,15,17,-2,9,29,-1
15:15:30:355512,39,16,-28,-56,-18,-14,-8,-5
15:15:30:362977,39,16,-28,-56,-18,-14,-8,-5
15:15:30:370454,3,7,6,-58,-21,-5,10,3
15:15:30:377952,24,-9,15,9,11,40,32,2
15:15:30:386186,24,-9,15,9,11,40,32,2
15:15:30:386995,8,5,-27,28,33,5,19,1
15:15:30:400530,-8,2,-3,-10,-9,-18,-8,1
15:15:30:408744,-8,2,-3,-10,-9,-18,-8,1
15:15:30:409520,2,3,27,-6,1,22,-36,11
15:15:30:415439,1,-14,7,13,45,21,1,-2
15:15:30:423035,1,-14,7,13,45,21,1,-2
15:15:30:430465,22,25,-1,11,-2,-38,-40,0
15:15:30:438004,-8,1,-6,35,5,4,-15,-8
15:15:30:446199,-8,1,-6,35,5,4,-15,-8
15:15:30:447019,-33,-21,-17,26,-10,-6,-5,-1
15:15:30:460505,-24,-7,-14,-19,-25,-27,2,-3
15:15:30:468672,-24,-7,-14,-19,-25,-27,2,-3
15:15:30:469480,-13,13,-17,-1,-30,10,49,3
15:15:30:475471,-5,-6,-21,-55,-28,9,55,-3
15:15:30:483067,-5,-6,-21,-55,-28,9,55,-3
15:15:30:490523,2,-11,11,5,42,57,31,7
15:15:30:497994,-5,31,61,-13,-22,-31,-19,-5
15:15:30:506269,-5,31,61,-13,-22,-31,-19,-5
15:15:30:506999,-8,0,-15,52,2,-18,-6,-4
15:15:30:520534,1,0,14,29,-4,-12,-8,-1
15:15:30:528698,1,0,14,29,-4,-12,-8,-1
15:15:30:529526,-10,-9,24,-9,14,6,8,-4
15:15:30:535465,4,9,-3,-7,-6,-16,9,2
15:15:30:543067,4,9,-3,-7,-6,-16,9,2
15:15:30:550534,3,4,-10,-12,-28,-17,22,3
15:15:30:558039,14,-2,-4,28,24,9,-31,2
15:15:30:566190,14,-2,-4,28,24,9,-31,2
15:15:30:566985,2,-8,-44,-6,-14,1,2,-4
15:15:30:580464,-4,-12,-27,-8,-29,-4,25,14
15:15:30:588733,-4,-12,-27,-8,-29,-4,25,14
15:15:30:589518,-23,-15,20,-16,-2,5,-19,-4
15:15:30:595517,-3,-2,7,37,6,-25,-16,3
15:15:30:603013,-3,-2,7,37,6,-25,-16,3
15:15:30:610517,-28,-29,-26,-22,4,34,11,0
15:15:30:617973,11,3,-6,-19,1,0,5,-1
15:15:30:626191,11,3,-6,-19,1,0,5,-1
15:15:30:627006,18,6,-11,10,-18,-31,-77,-17
15:15:30:640539,-14,0,-20,14,30,-3,-13,-5
15:15:30:648668,-14,0,-20,14,30,-3,-13,-5
15:15:30:649461,-28,-5,-8,0,-5,-20,-13,-11
15:15:30:655482,-7,5,2,-17,-6,-2,-5,-2
15:15:30:663073,-7,5,2,-17,-6,-2,-5,-2
15:15:30:670451,-4,4,18,11,1,-7,10,2
15:15:30:677936,-51,-29,-52,-31,12,-28,-6,-6
15:15:30:685520,-51,-29,-52,-31,12,-28,-6,-6
15:15:30:692975,39,11,21,4,8,-21,0,8
15:15:30:700472,31,13,29,-3,0,8,-17,-1
15:15:30:708759,31,13,29,-3,0,8,-17,-1
15:15:30:709513,-15,-6,11,-15,5,-3,-18,-5
15:15:30:723417,-4,-12,-7,-21,-29,-17,-23,-12
15:15:30:731178,-4,-12,-7,-21,-29,-17,-23,-12
15:15:30:732000,29,4,-6,-13,19,27,21,10
15:15:30:737962,-39,-14,9,16,26,38,-8,-5
15:15:30:745567,-39,-14,9,16,26,38,-8,-5
15:15:30:752954,55,-10,-3,11,21,23,16,4
15:15:30:760489,3,17,7,-36,-5,-9,2,-3
15:15:30:768695,3,17,7,-36,-5,-9,2,-3
15:15:30:769500,-11,-17,-33,-2,-15,-27,-10,-2
15:15:30:783668,-30,-3,-28,26,11,12,4,-4
15:15:30:784495,-30,-3,-28,26,11,12,4,-4
15:15:30:790482,6,1,-1,34,-5,5,6,0
15:15:30:798018,15,14,23,21,-24,-3,66,13
15:15:30:805572,15,14,23,21,-24,-3,66,13
15:15:30:812999,-15,4,13,-18,-4,-2,-42,-14
15:15:30:820473,16,3,-15,3,13,-1,-27,-9
15:15:30:828659,16,3,-15,3,13,-1,-27,-9
15:15:30:829461,22,4,17,17,1,-6,2,6
15:15:30:843715,-3,0,29,23,-23,-23,-6,-2
15:15:30:844508,-3,0,29,23,-23,-23,-6,-2
15:15:30:850513,33,30,22,-37,10,17,15,0
15:15:30:858059,-25,-10,7,-1,22,15,1,0
15:15:30:865513,-25,-10,7,-1,22,15,1,0
15:15:30:873053,-28,-4,0,-14,18,17,48,16
15:15:30:880533,-2,-13,0,-25,0,5,-4,-3
15:15:30:888727,-2,-13,0,-25,0,5,-4,-3
15:15:30:889547,-7,-7,15,6,-20,-16,-9,-10
15:15:30:903021,9,7,-49,3,-4,-9,-30,-4
15:15:30:911220,9,7,-49,3,-4,-9,-30,-4
15:15:30:911997,-5,-4,-7,19,6,10,-5,0
15:15:30:918021,8,4,-9,2,-1,15,30,5
15:15:30:925600,8,4,-9,2,-1,15,30,5
15:15:30:932974,-53,-18,-33,-18,-25,-29,1,-8
15:15:30:940489,6,10,-6,-7,20,14,-14,-5
15:15:30:948654,6,10,-6,-7,20,14,-14,-5
15:15:30:949496,-17,-5,6,-9,14,3,3,4
15:15:30:963638,-8,-23,1,-2,-39,-22,-6,-4
15:15:30:964533,-8,-23,1,-2,-39,-22,-6,-4
15:15:30:970483,20,14,-50,-4,7,-1,-33,-1
15:15:30:977976,22,0,7,8,28,1,-10,2
15:15:30:993694,22,0,7,8,28,1,-10,2
15:15:30:994483,-4,1,-18,0,-1,-16,-23,-4
15:15:31:522,11,12,-15,-7,-13,-5,-5,-3
15:15:31:8722,11,12,-15,-7,-13,-5,-5,-3
15:15:31:9496,10,-2,14,-6,-23,-21,-5,-4
15:15:31:23725,-25,-10,-1,35,-39,6,3,-1
15:15:31:24523,-25,-10,-1,35,-39,6,3,-1
15:15:31:30536,8,5,2,-38,1,17,19,-4
15:15:31:38034,5,0,0,-45,23,24,-1,2
15:15:31:45592,5,0,0,-45,23,24,-1,2
15:15:31:52999,13,-5,17,51,24,4,1,2
15:15:31:60486,-8,-2,11,8,7,-15,15,2
15:15:31:68697,-8,-2,11,8,7,-15,15,2
15:15:31:69509,1,9,6,-10,-10,4,-1,2
15:15:31:83662,-5,-26,-5,12,15,-7,-9,-8
15:15:31:84511,-5,-26,-5,12,15,-7,-9,-8
15:15:31:90515,46,10,15,6,4,29,30,-5
15:15:31:97985,-8,1,-7,-11,39,71,43,9
15:15:31:105520,-8,1,-7,-11,39,71,43,9
15:15:31:112969,-9,3,1,-43,-36,-30,1,-1
15:15:31:120485,2,-9,-8,-23,-7,-25,-30,-3
15:15:31:128687,2,-9,-8,-23,-7,-25,-30,-3
15:15:31:129491,-5,8,8,16,31,8,0,5
15:15:31:143705,0,-1,-4,-24,-26,-28,-8,-5
15:15:31:144533,0,-1,-4,-24,-26,-28,-8,-5
15:15:31:150478,-24,-6,-5,10,-25,-17,-7,-8
15:15:31:157997,-3,4,26,17,27,22,-4,3
15:15:31:165568,-3,4,26,17,27,22,-4,3
15:15:31:173016,6,1,24,1,38,48,-15,2
15:15:31:180492,11,13,2,-41,-79,-50,-23,-8
15:15:31:188716,11,13,2,-41,-79,-50,-23,-8
15:15:31:189533,-41,-14,-33,-1,-13,-13,28,-3
15:15:31:203749,-2,7,-12,6,15,3,8,6
15:15:31:204563,-2,7,-12,6,15,3,8,6
15:15:31:210498,4,-4,-4,10,-7,-12,0,-5
15:15:31:218059,19,15,8,-6,-13,-12,-4,-2
15:15:31:225590,19,15,8,-6,-13,-12,-4,-2
15:15:31:233013,35,-1,-2,10,32,-20,-4,5
15:15:31:240558,22,2,10,28,75,54,58,-2
15:15:31:248683,22,2,10,28,75,54,58,-2
15:15:31:249470,0,14,14,8,-19,-10,3,-4
15:15:31:263668,11,-2,-4,1,-18,-30,-23,-3
15:15:31:264476,11,-2,-4,1,-18,-30,-23,-3
15:15:31:270568,-35,-24,-47,38,-21,-14,-11,-9
15:15:31:278066,-17,-4,18,65,15,-4,-16,1
15:15:31:285533,-17,-4,18,65,15,-4,-16,1
15:15:31:293076,26,4,2,31,18,-11,23,16
15:15:31:300523,-3,-2,-3,-37,-39,-4,-2,0
15:15:31:308705,-3,-2,-3,-37,-39,-4,-2,0
15:15:31:309534,16,-2,6,-29,22,45,-3,4
15:15:31:323701,29,10,10,-3,-6,-9,-9,0
15:15:31:324479,29,10,10,-3,-6,-9,-9,0
15:15:31:330430,-5,5,39,-20,-12,-9,-15,-5
15:15:31:338047,-17,-2,-25,12,-12,-2,-13,-6
15:15:31:345521,-17,-2,-25,12,-12,-2,-13,-6
15:15:31:352934,-4,1,13,22,-18,-11,-6,-2
15:15:31:360460,-6,-1,6,20,65,18,49,17
15:15:31:368706,-6,-1,6,20,65,18,49,17
15:15:31:369497,-8,-1,-2,8,4,11,-7,0
15:15:31:383678,-12,-4,-4,-20,-24,1,-7,-2
15:15:31:384491,-12,-4,-4,-20,-24,1,-7,-2
15:15:31:390470,-39,-17,10,-69,-29,-8,19,6
15:15:31:397967,-24,-22,15,7,6,-19,-10,-3
15:15:31:405566,-24,-22,15,7,6,-19,-10,-3
15:15:31:412966,12,11,10,-2,0,1,-23,-3
15:15:31:420507,7,-5,5,1,41,59,-9,4
15:15:31:428734,7,-5,5,1,41,59,-9,4
15:15:31:429545,5,5,-17,13,4,-8,-4,-3
15:15:31:443706,-11,0,-27,28,-32,-27,-11,-7
15:15:31:444543,-11,0,-27,28,-32,-27,-11,-7
15:15:31:450510,-18,-17,12,-39,-32,-5,-6,-5
15:15:31:458016,67,17,-7,-31,-29,-5,7,6
15:15:31:465562,67,17,-7,-31,-29,-5,7,6
15:15:31:472980,-2,22,15,42,10,-16,-4,-13
15:15:31:480528,-1,-12,13,-16,-29,11,64,0
15:15:31:488720,-1,-12,13,-16,-29,11,64,0
15:15:31:489541,29,23,-48,11,7,7,14,7
15:15:31:503692,-15,0,-11,0,-1,-4,-29,-9
15:15:31:504585,-15,0,-11,0,-1,-4,-29,-9
15:15:31:510533,-15,-11,-15,10,8,0,-4,-6
15:15:31:517986,-3,-1,34,-47,-56,-40,-17,-6
15:15:31:525624,-3,-1,34,-47,-56,-40,-17,-6
15:15:31:533007,-33,-9,8,-10,20,4,-13,3
15:15:31:540516,-23,-22,5,5,-2,-8,-21,-1
15:15:31:548688,-23,-22,5,5,-2,-8,-21,-1
15:15:31:549478,20,-3,5,1,8,50,14,7
15:15:31:563687,-3,2,-22,-3,9,5,31,1
15:15:31:564476,-3,2,-22,-3,9,5,31,1
15:15:31:570513,25,0,3,-2,5,-23,6,4
15:15:31:578024,7,0,-59,-25,-1,-11,-27,-8
15:15:31:585482,7,0,-59,-25,-1,-11,-27,-8
15:15:31:592950,-4,1,-8,18,-13,-7,-10,-8
15:15:31:600517,-40,3,0,-22,-27,-9,-13,-3
15:15:31:608118,-40,3,0,-22,-27,-9,-13,-3
15:15:31:615462,26,-14,10,-18,19,32,-5,-4
15:15:31:623724,15,2,-18,-8,19,8,25,-1
15:15:31:624543,15,2,-18,-8,19,8,25,-1
15:15:31:630459,-24,7,11,1,-12,-23,12,-5
15:15:31:646187,7,-5,-37,-23,-18,-4,-11,-1
15:15:31:647091,7,-5,-37,-23,-18,-4,-11,-1
15:15:31:652958,4,0,5,5,16,-14,6,-1
15:15:31:660516,-31,15,24,17,19,-16,-86,-7
15:15:31:668082,-31,15,24,17,19,-16,-86,-7
15:15:31:675545,-21,-3,-14,-33,-64,-22,-25,-10
15:15:31:683703,15,-2,15,18,52,30,11,2
15:15:31:684558,15,-2,15,18,52,30,11,2
15:15:31:690518,-23,-11,14,7,31,17,2,2
15:15:31:706232,11,7,-41,-6,7,-3,-19,-3
15:15:31:707034,11,7,-41,-6,7,-3,-19,-3
15:15:31:712990,19,1,8,-12,-14,-16,-19,2
15:15:31:720480,4,-7,19,24,-3,0,3,-6
15:15:31:728057,4,-7,19,24,-3,0,3,-6
15:15:31:735476,-9,-21,14,10,17,-11,-11,-5
15:15:31:743663,-27,-2,5,0,-34,-17,11,-2
15:15:31:744493,-27,-2,5,0,-34,-17,11,-2
15:15:31:750552,26,-9,5,47,9,-1,14,0
15:15:31:766202,2,0,31,-1,-18,13,5,3
15:15:31:767018,2,0,31,-1,-18,13,5,3
15:15:31:773014,-2,5,1,-5,-12,-15,-35,-1
15:15:31:780479,-6,-5,25,-8,-5,6,28,4
15:15:31:788111,-6,-5,25,-8,-5,6,28,4
15:15:31:795539,12,9,-18,21,27,11,-1,-5
15:15:31:803694,-2,3,28,-14,8,-3,-8,0
15:15:31:804577,-2,3,28,-14,8,-3,-8,0
15:15:31:810462,-12,-19,-2,-32,-45,-46,18,0
15:15:31:826231,-11,2,21,33,30,9,33,2
15:15:31:827007,-11,2,21,33,30,9,33,2
15:15:31:833017,14,10,-18,-32,-7,10,6,2
15:15:31:840557,-3,-5,5,-15,2,-11,-7,-6
15:15:31:848011,-3,-5,5,-15,2,-11,-7,-6
15:15:31:855453,-34,5,-19,6,2,3,-7,3
15:15:31:863635,-54,-31,-18,9,11,-8,96,15
15:15:31:864502,-54,-31,-18,9,11,-8,96,15
15:15:31:870476,14,17,-26,-20,4,19,-1,4
15:15:31:886149,11,10,4,18,36,-9,-25,-19
15:15:31:886990,11,10,4,18,36,-9,-25,-19
15:15:31:892973,-6,-11,4,14,-18,-17,0,-12
15:15:31:900474,21,-6,-55,-27,7,19,-8,8
15:15:31:908090,21,-6,-55,-27,7,19,-8,8
15:15:31:915444,-7,5,-16,24,-5,9,-22,-6
15:15:31:923704,2,4,10,-6,-21,-6,-13,4
15:15:31:924488,2,4,10,-6,-21,-6,-13,4
15:15:31:930468,-54,-18,6,-3,-10,9,-1,-19
15:15:31:946138,42,-2,14,9,-10,12,-8,0
15:15:31:947017,42,-2,14,9,-10,12,-8,0
15:15:31:952984,7,-7,9,-18,-7,-12,-7,1
15:15:31:960497,15,16,-8,-10,43,13,-18,-1
15:15:31:968020,15,16,-8,-10,43,13,-18,-1
15:15:31:975546,18,21,24,26,30,-3,-2,1
15:15:31:983714,33,11,-3,24,-42,-40,-7,11
15:15:31:984512,33,11,-3,24,-42,-40,-7,11
15:15:31:990499,27,16,10,-22,-2,22,-40,2
15:15:32:6211,-2,-9,15,63,-34,-11,-21,-3
15:15:32:7030,-2,-9,15,63,-34,-11,-21,-3
15:15:32:12976,31,1,26,16,7,-7,10,0
15:15:32:20478,-28,8,-15,-13,48,38,1,-3
15:15:32:28091,-28,8,-15,-13,48,38,1,-3
15:15:32:35455,31,14,9,14,-1,2,19,4
15:15:32:43664,-9,-5,-14,-46,56,40,14,0
15:15:32:44537,-9,-5,-14,-46,56,40,14,0
15:15:32:50514,-8,-13,-5,6,-6,-27,-14,-12
15:15:32:66251,-35,-15,-24,-15,-52,-28,66,23
15:15:32:67044,-35,-15,-24,-15,-52,-28,66,23
15:15:32:73017,2,-4,-1,-25,-20,-14,-5,6
15:15:32:80492,47,16,3,-12,-23,-1,-26,-4
15:15:32:88063,47,16,3,-12,-23,-1,-26,-4
15:15:32:95535,-34,-29,-26,-18,-5,14,26,2
15:15:32:103680,20,-15,-2,51,26,8,-18,-1
15:15:32:104464,20,-15,-2,51,26,8,-18,-1
15:15:32:110467,13,16,25,16,-19,4,9,-2
15:15:32:126242,-13,1,12,-32,-9,-25,-21,-10
15:15:32:126991,-13,1,12,-32,-9,-25,-21,-10
15:15:32:133007,-19,-6,-10,-30,-13,6,41,7
15:15:32:140530,-62,-19,34,20,2,1,76,8
15:15:32:148039,-62,-19,34,20,2,1,76,8
15:15:32:155492,-19,-12,6,-5,6,6,-13,4
15:15:32:163653,7,7,-19,-4,-18,-22,-55,-16
15:15:32:164545,7,7,-19,-4,-18,-22,-55,-16
15:15:32:170454,9,-3,-21,79,6,16,10,2
15:15:32:186155,-17,18,50,10,19,20,-21,4
15:15:32:186985,-17,18,50,10,19,20,-21,4
15:15:32:192970,37,17,19,-47,5,6,-17,0
15:15:32:200472,4,-8,-21,1,-16,-11,4,-7
15:15:32:208089,4,-8,-21,1,-16,-11,4,-7
15:15:32:215458,18,8,-26,-47,-2,-7,11,9
15:15:32:223777,2,6,-19,-9,-21,-27,-38,-14
15:15:32:224508,2,6,-19,-9,-21,-27,-38,-14
15:15:32:230450,-20,-10,-2,4,19,16,-4,-16
15:15:32:246210,33,8,11,6,-5,-6,-11,1
15:15:32:247004,33,8,11,6,-5,-6,-11,1
15:15:32:252969,-1,17,-4,-8,51,5,-9,-2
15:15:32:260486,8,4,-6,-8,-30,-22,-10,-6
15:15:32:268032,8,4,-6,-8,-30,-22,-10,-6
15:15:32:275524,-32,-28,-7,11,-21,-26,-1,0
15:15:32:283661,8,14,-17,-14,-2,9,0,4
15:15:32:284501,8,14,-17,-14,-2,9,0,4
15:15:32:290534,20,-5,-19,11,17,9,-11,-5
15:15:32:306248,17,-20,12,13,5,10,-2,-5
15:15:32:307051,17,-20,12,13,5,10,-2,-5
15:15:32:312956,10,-7,6,-9,16,-9,15,7
15:15:32:320481,-11,-17,11,-11,-2,-4,-4,-4
15:15:32:328070,-11,-17,11,-11,-2,-4,-4,-4
15:15:32:335478,-11,3,-20,4,-12,-8,-10,0
15:15:32:343652,20,13,14,24,30,22,-2,-1
15:15:32:344469,20,13,14,24,30,22,-2,-1
15:15:32:350492,19,4,4,-8,10,12,3,4
15:15:32:366204,-6,-3,2,-21,-12,-15,-45,-12
15:15:32:367018,-6,-3,2,-21,-12,-15,-45,-12
15:15:32:381178,18,-12,-32,0,42,20,-8,-3
15:15:32:381939,-25,-4,-46,26,17,-15,-2,-6
15:15:32:388068,-25,-4,-46,26,17,-15,-2,-6
15:15:32:395500,-36,-3,-44,-30,-29,-9,5,1
15:15:32:403713,-11,-1,11,-1,-11,17,9,3
15:15:32:404554,-11,-1,11,-1,-11,17,9,3
15:15:32:410506,15,18,29,-1,-21,-13,-18,-11
15:15:32:426275,-28,-12,-11,5,58,68,108,40
15:15:32:427015,-28,-12,-11,5,58,68,108,40
15:15:32:433028,-49,-16,20,-6,-30,-24,-4,5
15:15:32:440491,-3,-14,-9,1,-23,-48,-45,-15
15:15:32:448096,-3,-14,-9,1,-23,-48,-45,-15
15:15:32:455489,7,9,-52,-34,-52,4,-1,3
15:15:32:463614,14,11,-2,6,23,14,16,0
15:15:32:464490,14,11,-2,6,23,14,16,0
15:15:32:470527,6,12,13,0,9,0,-7,-4
15:15:32:486126,-39,8,6,-35,-27,-16,-8,-7
15:15:32:486938,-39,8,6,-35,-27,-16,-8,-7
15:15:32:492996,1,-5,11,24,-40,-21,-2,-6
15:15:32:500507,30,3,9,9,2,-9,-33,-2
15:15:32:508036,30,3,9,9,2,-9,-33,-2
15:15:32:515518,3,-11,14,2,3,20,24,8
15:15:32:523716,-11,3,-20,-26,-50,-24,-9,-5
15:15:32:524480,-11,3,-20,-26,-50,-24,-9,-5
15:15:32:530472,-20,-5,-19,8,17,15,9,1
15:15:32:546152,7,0,-5,-6,-11,-8,1,-3
15:15:32:547001,7,0,-5,-6,-11,-8,1,-3
15:15:32:553038,9,-1,26,12,36,5,-1,1
15:15:32:568631,-12,-19,-3,3,-12,-6,-21,-8
15:15:32:569463,-12,-19,-3,3,-12,-6,-21,-8
15:15:32:575493,-60,0,3,-2,-14,-23,-93,-26
15:15:32:583697,38,1,-5,-31,0,42,40,-5
15:15:32:584525,38,1,-5,-31,0,42,40,-5
15:15:32:598029,1,-8,16,22,17,-19,7,-11
15:15:32:606130,26,-7,-19,3,-19,-18,-24,3
15:15:32:607028,26,-7,-19,3,-19,-18,-24,3
15:15:32:613013,-4,-6,-3,-1,-12,40,24,1
15:15:32:628692,-1,4,-23,1,26,20,18,4
15:15:32:629486,-1,4,-23,1,26,20,18,4
15:15:32:635474,61,8,7,26,6,-15,9,11
15:15:32:643680,-33,-29,22,-3,-30,-12,-29,3
15:15:32:644438,-33,-29,22,-3,-30,-12,-29,3
15:15:32:658125,-9,3,21,-36,0,-6,-13,2
15:15:32:666197,-15,10,17,-8,19,-12,-47,-5
15:15:32:667003,-15,10,17,-8,19,-12,-47,-5
15:15:32:673021,13,6,-10,23,0,9,19,-3
15:15:32:688741,-4,15,18,-8,-9,0,67,11
15:15:32:689492,-4,15,18,-8,-9,0,67,11
15:15:32:695461,-17,12,9,-13,8,15,39,2
15:15:32:703738,-26,-7,-17,-9,18,16,-16,2
15:15:32:704453,-26,-7,-17,-9,18,16,-16,2
15:15:32:717950,-38,-15,-22,-52,-39,-9,2,2
15:15:32:726227,33,-3,-21,32,31,8,7,-3
15:15:32:726988,33,-3,-21,32,31,8,7,-3
15:15:32:732980,-12,-23,9,18,-13,-10,-32,-8
15:15:32:748701,-12,-23,9,18,-13,-10,-32,-8
15:15:32:749524,-5,1,24,3,-8,-13,-4,1
15:15:32:755545,-15,10,-26,-10,-9,-29,-16,-34
15:15:32:763711,-15,10,-26,-10,-9,-29,-16,-34
15:15:32:764520,1,1,-23,-5,-17,3,26,3
15:15:32:778007,-8,-21,-4,8,9,3,6,4
15:15:32:786237,-8,-21,-4,8,9,3,6,4
15:15:32:787026,-4,-12,36,-2,-40,-24,-33,-4
15:15:32:792953,44,26,5,10,-3,4,-17,3
15:15:32:808741,44,26,5,10,-3,4,-17,3
15:15:32:809542,-13,15,26,25,7,24,17,10
15:15:32:815509,-2,17,-1,-15,43,7,0,7
15:15:32:823727,-2,17,-1,-15,43,7,0,7
15:15:32:824569,12,-3,-11,-12,4,-27,-14,-8
15:15:32:837961,2,12,27,13,-11,24,58,20
15:15:32:846219,2,12,27,13,-11,24,58,20
15:15:32:847015,26,23,13,-10,2,-1,-27,-2
15:15:32:852965,-9,-20,-9,-3,-23,-8,-5,-1
15:15:32:868673,-9,-20,-9,-3,-23,-8,-5,-1
15:15:32:869534,-9,0,1,-49,-18,4,12,-6
15:15:32:875542,-3,5,25,-1,1,5,-21,-6
15:15:32:883737,-3,5,25,-1,1,5,-21,-6
15:15:32:884453,-15,11,-2,17,29,9,-15,-30
15:15:32:898021,-20,-33,-4,-7,3,-5,1,3
15:15:32:906217,-20,-33,-4,-7,3,-5,1,3
15:15:32:906999,42,29,13,21,-36,-35,-6,5
15:15:32:912935,-14,-11,6,17,20,7,14,-6
15:15:32:928712,-14,-11,6,17,20,7,14,-6
15:15:32:929475,-9,-15,-67,-26,2,-15,0,-4
15:15:32:935417,3,5,-34,10,26,-9,-1,11
15:15:32:943724,3,5,-34,10,26,-9,-1,11
15:15:32:944494,2,-20,6,22,29,27,0,3
15:15:32:958043,0,-16,-17,-26,-43,-51,71,3
15:15:32:966174,0,-16,-17,-26,-43,-51,71,3
15:15:32:967017,-45,-9,12,-3,5,28,81,19
15:15:32:973000,-31,-14,34,-2,-22,-19,-52,-13
15:15:32:988655,-31,-14,34,-2,-22,-19,-52,-13
15:15:32:989448,-28,-11,22,7,-30,-8,-15,-5
15:15:32:995497,17,41,33,69,41,14,5,3
15:15:33:3710,17,41,33,69,41,14,5,3
15:15:33:4469,7,-4,-3,47,-23,-14,-6,1
15:15:33:18011,5,-6,-5,3,16,5,-49,-7
15:15:33:26259,5,-6,-5,3,16,5,-49,-7
15:15:33:26990,-1,-8,-1,-6,13,20,-30,2
15:15:33:32998,12,8,-10,-25,0,49,-12,6
15:15:33:48692,12,8,-10,-25,0,49,-12,6
15:15:33:49478,-6,-1,-47,-27,9,-18,34,14
15:15:33:55477,-11,-15,-29,0,-6,-19,-23,-10
15:15:33:63690,-11,-15,-29,0,-6,-19,-23,-10
15:15:33:64508,27,11,-15,-11,6,9,-24,-4
15:15:33:78014,-12,1,13,-34,-5,-7,16,-3
15:15:33:86152,-12,1,13,-34,-5,-7,16,-3
15:15:33:86934,11,-6,6,-1,5,-23,-8,-12
15:15:33:92986,38,5,-21,-10,-14,41,10,0
15:15:33:108754,38,5,-21,-10,-14,41,10,0
15:15:33:109500,19,-2,21,19,-11,7,86,14
15:15:33:115486,15,7,1,-21,-18,-19,-10,7
15:15:33:123667,15,7,1,-21,-18,-19,-10,7
15:15:33:124457,20,-11,0,-27,-43,-33,-56,-23
15:15:33:137985,20,18,18,67,9,2,30,12
15:15:33:146204,20,18,18,67,9,2,30,12
15:15:33:147004,25,2,9,42,84,30,-15,-1
15:15:33:152959,-25,-2,-27,-31,-15,-10,-18,-7
15:15:33:168429,-25,-2,-27,-31,-15,-10,-18,-7
15:15:33:176176,-21,-2,34,13,-34,-4,40,3
15:15:33:176945,11,-3,-15,0,1,-12,-5,5
15:15:33:183717,11,-3,-15,0,1,-12,-5,5
15:15:33:184498,-6,11,-8,-26,3,4,-45,-13
15:15:33:197988,42,15,-7,-6,37,24,73,22
15:15:33:206225,42,15,-7,-6,37,24,73,22
15:15:33:207053,-4,-10,1,-15,9,-3,3,4
15:15:33:212980,18,8,39,-2,-15,-2,-26,-8
15:15:33:229202,18,8,39,-2,-15,-2,-26,-8
15:15:33:229943,-31,-4,-22,2,14,12,6,1
15:15:33:235477,-12,-3,-9,41,-14,-14,-4,-8
15:15:33:243712,-12,-3,-9,41,-14,-14,-4,-8
15:15:33:244498,31,1,-10,-9,-38,11,-21,-1
15:15:33:258043,-24,-14,-13,3,34,38,-6,-2
15:15:33:266221,-24,-14,-13,3,34,38,-6,-2
15:15:33:267044,17,3,-27,-6,-5,-14,-50,-11
15:15:33:272974,-8,-14,-17,-23,-3,4,36,-4
15:15:33:288724,-8,-14,-17,-23,-3,4,36,-4
15:15:33:289511,-22,6,28,-10,3,11,1,-2
15:15:33:295489,0,5,-16,-31,-29,-35,-14,0
15:15:33:303730,0,5,-16,-31,-29,-35,-14,0
15:15:33:304504,-2,2,13,-26,10,-4,-19,8
15:15:33:317966,-39,-20,-3,-15,-14,-35,-41,-15
15:15:33:326246,-39,-20,-3,-15,-14,-35,-41,-15
15:15:33:327036,4,2,-6,-14,-1,8,23,11
15:15:33:332996,14,-13,8,-6,18,1,-57,-8
15:15:33:348673,14,-13,8,-6,18,1,-57,-8
15:15:33:349509,-12,0,11,10,-1,-8,10,-5
15:15:33:355476,-3,0,-1,-35,-10,-15,-22,-4
15:15:33:363696,-3,0,-1,-35,-10,-15,-22,-4
15:15:33:364496,-4,-5,32,33,18,-13,-2,-5
15:15:33:377978,-25,-2,11,54,15,-2,15,1
15:15:33:386166,-25,-2,11,54,15,-2,15,1
15:15:33:386964,13,7,-8,7,-47,-30,35,2
15:15:33:392989,61,1,3,-3,8,63,-4,14
15:15:33:408707,61,1,3,-3,8,63,-4,14
15:15:33:409478,-28,-26,-13,3,11,12,6,-12
15:15:33:415453,39,22,14,10,13,-13,-17,-10
15:15:33:423750,39,22,14,10,13,-13,-17,-10
15:15:33:424492,20,-8,-59,8,26,2,-14,-8
15:15:33:438014,-9,-6,-34,1,-12,-23,-15,-1
15:15:33:446193,-9,-6,-34,1,-12,-23,-15,-1
15:15:33:446989,-19,-20,-16,-16,-19,-15,-2,-2
15:15:33:452961,5,3,1,20,5,8,16,3
15:15:33:468681,5,3,1,20,5,8,16,3
15:15:33:469457,0,-10,3,80,38,-1,-25,-3
15:15:33:475487,-5,10,9,-25,-42,-18,13,12
15:15:33:483651,-5,10,9,-25,-42,-18,13,12
15:15:33:484481,-10,-6,57,-17,20,26,25,6
15:15:33:498017,-15,-8,5,34,-7,-23,-47,-10
15:15:33:506187,-15,-8,5,34,-7,-23,-47,-10
15:15:33:507004,-11,-2,5,-18,-21,1,2,-3
15:15:33:520483,-14,-8,13,-26,-8,50,27,-4
15:15:33:528666,-14,-8,13,-26,-8,50,27,-4
15:15:33:529458,-37,14,14,12,10,16,2,7
15:15:33:535481,1,-6,-31,0,-7,-7,-4,-5
15:15:33:543057,1,-6,-31,0,-7,-7,-4,-5
15:15:33:550466,2,7,-11,-23,-20,-11,-1,4
15:15:33:558056,6,14,2,-26,-18,-7,35,6
15:15:33:566182,6,14,2,-26,-18,-7,35,6
15:15:33:566994,19,-1,-22,-24,1,5,4,-2
15:15:33:580530,10,-26,16,-18,-8,-21,-11,-7
15:15:33:588662,10,-26,16,-18,-8,-21,-11,-7
15:15:33:589471,-20,12,-2,-9,-13,-30,-12,4
15:15:33:595494,-53,-6,10,-5,2,1,16,-13
15:15:33:603031,-53,-6,10,-5,2,1,16,-13
15:15:33:610493,2,-3,18,-1,-7,-2,-10,-21
15:15:33:617938,-7,10,4,48,26,27,10,1
15:15:33:626224,-7,10,4,48,26,27,10,1
15:15:33:627046,-1,1,-28,-49,-50,-7,-3,4
15:15:33:640570,-5,-13,-2,4,14,7,-15,3
15:15:33:648723,-5,-13,-2,4,14,7,-15,3
15:15:33:649491,10,6,-7,-32,-28,-49,-28,5
15:15:33:655461,-27,17,35,41,79,29,42,1
15:15:33:663027,-27,17,35,41,79,29,42,1
15:15:33:670501,-3,-17,-10,14,0,10,-44,-11
15:15:33:677983,25,-2,1,-12,17,-8,-13,1
15:15:33:686193,25,-2,1,-12,17,-8,-13,1
15:15:33:687001,20,3,-32,17,-8,-17,-39,-10
15:15:33:700495,-18,-9,-28,-8,18,-17,-33,9
15:15:33:708777,-18,-9,-28,-8,18,-17,-33,9
15:15:33:709489,3,-7,-2,-2,28,21,17,0
15:15:33:715483,7,-2,-6,-21,-44,-27,-12,-7
15:15:33:723057,7,-2,-6,-21,-44,-27,-12,-7
15:15:33:730465,6,0,2,-1,8,13,36,7
15:15:33:738050,-2,-1,-21,-26,-61,-19,23,-3
15:15:33:746157,-2,-1,-21,-26,-61,-19,23,-3
15:15:33:746966,-8,10,-18,10,-4,13,15,3
15:15:33:760498,15,-5,-3,-15,4,2,-6,-3
15:15:33:768683,15,-5,-3,-15,4,2,-6,-3
15:15:33:769506,-9,-19,23,4,-11,-6,8,1
15:15:33:775518,19,15,10,15,0,7,1,-1
15:15:33:783007,19,15,10,15,0,7,1,-1
15:15:33:790548,-14,8,30,23,12,6,-8,-3
15:15:33:797991,10,11,13,-7,-24,3,14,8
15:15:33:806195,10,11,13,-7,-24,3,14,8
15:15:33:806992,17,-16,-11,-13,8,0,-5,-7
15:15:33:820467,-10,-17,-11,25,-8,-3,-10,-2
15:15:33:828657,-10,-17,-11,25,-8,-3,-10,-2
15:15:33:829471,27,13,-25,-5,20,-5,3,8
15:15:33:835477,-39,-18,-9,-46,-54,-14,10,-7
15:15:33:843001,-39,-18,-9,-46,-54,-14,10,-7
15:15:33:850445,-15,7,14,-41,13,4,13,-8
15:15:33:858047,4,8,-16,-18,17,-8,-36,6
15:15:33:866174,4,8,-16,-18,17,-8,-36,6
15:15:33:866999,-6,6,34,1,-5,-4,-1,3
15:15:33:880504,-4,-30,-28,-26,6,7,5,-9
15:15:33:888724,-4,-30,-28,-26,6,7,5,-9
15:15:33:889454,-6,-5,-17,2,-54,-19,43,7
15:15:33:895465,21,30,32,22,17,50,51,3
15:15:33:903020,21,30,32,22,17,50,51,3
15:15:33:910471,5,-4,28,8,9,6,5,2
15:15:33:917943,-52,-13,5,10,1,-28,-34,-12
15:15:33:926236,-52,-13,5,10,1,-28,-34,-12
15:15:33:927001,-12,-20,-19,-6,31,6,-15,-9
15:15:33:940484,18,-10,7,9,1,-6,-5,-7
15:15:33:948677,18,-10,7,9,1,-6,-5,-7
15:15:33:949495,-64,2,-18,-13,10,22,-23,0
15:15:33:955467,18,11,11,26,3,-6,19,8
15:15:33:963013,18,11,11,26,3,-6,19,8
15:15:33:970510,30,12,-5,41,37,12,41,6
15:15:33:977965,-47,-33,-64,-33,0,-6,-12,-5
15:15:33:986224,-47,-33,-64,-33,0,-6,-12,-5
15:15:33:987030,-2,-11,5,-1,13,-16,-28,-6
15:15:34:473,-3,6,-24,36,-17,-17,28,4
15:15:34:8740,-3,6,-24,36,-17,-17,28,4
15:15:34:9497,13,4,3,-9,-19,11,-57,-9
15:15:34:15448,-8,-13,-5,-30,8,9,-2,-14
15:15:34:23066,-8,-13,-5,-30,8,9,-2,-14
15:15:34:30470,26,4,-18,10,-6,4,-2,6
15:15:34:37987,25,22,18,5,-5,-11,-14,4
15:15:34:46147,25,22,18,5,-5,-11,-14,4
15:15:34:46989,4,6,-17,-13,-24,-22,-2,-3
15:15:34:60498,1,-1,12,35,8,-14,-8,-3
15:15:34:68695,1,-1,12,35,8,-14,-8,-3
15:15:34:69507,-5,3,28,9,42,10,22,7
15:15:34:75496,5,15,44,73,62,34,3,2
15:15:34:82998,5,15,44,73,62,34,3,2
15:15:34:90541,5,9,21,-18,-21,-12,-9,-4
15:15:34:97992,13,7,17,-34,-10,-7,11,-1
15:15:34:106221,13,7,17,-34,-10,-7,11,-1
15:15:34:106963,-3,-9,19,10,-10,16,20,-1
15:15:34:120491,0,-11,-9,-6,-41,-15,-48,-5
15:15:34:128666,0,-11,-9,-6,-41,-15,-48,-5
15:15:34:129464,0,-9,-23,26,-5,-16,-6,-1
15:15:34:135499,1,4,-13,-12,43,19,46,5
15:15:34:143043,1,4,-13,-12,43,19,46,5
15:15:34:150510,-14,1,6,22,3,2,12,0
15:15:34:157984,5,-5,-33,-51,-17,9,0,3
15:15:34:166231,5,-5,-33,-51,-17,9,0,3
15:15:34:167002,5,-8,-19,-16,-1,0,3,3
15:15:34:180495,24,15,17,10,-8,-11,-23,-3
15:15:34:188701,24,15,17,10,-8,-11,-23,-3
15:15:34:189483,7,6,-10,-13,-31,1,-4,-3
15:15:34:195458,16,2,15,-10,11,9,-15,9
15:15:34:203042,16,2,15,-10,11,9,-15,9
15:15:34:210501,-23,-14,-22,14,-8,-4,-6,-3
15:15:34:217949,-9,4,-6,22,5,-13,-6,-4
15:15:34:226265,-9,4,-6,22,5,-13,-6,-4
15:15:34:227043,4,-3,-47,8,25,-1,3,1
15:15:34:240484,-26,-4,-19,3,-33,-16,-6,-3
15:15:34:248678,-26,-4,-19,3,-33,-16,-6,-3
15:15:34:249484,51,27,23,-36,23,-3,-20,0
15:15:34:255476,5,-1,-7,-16,23,24,27,4
15:15:34:263027,5,-1,-7,-16,23,24,27,4
15:15:34:270471,-1,5,26,15,-6,1,-15,-4
15:15:34:277983,-26,-1,-36,-19,-19,-3,4,-8
15:15:34:286184,-26,-1,-36,-19,-19,-3,4,-8
15:15:34:287053,-4,24,-17,-21,-17,-15,-9,-8
15:15:34:300485,-11,-21,26,26,2,3,2,-2
15:15:34:308757,-11,-21,26,26,2,3,2,-2
15:15:34:309485,-38,-20,0,33,44,17,9,-2
15:15:34:315448,-5,0,-3,-16,-6,3,9,1
15:15:34:323082,-5,0,-3,-16,-6,3,9,1
15:15:34:330484,-11,-9,22,8,-19,-4,1,0
15:15:34:338016,3,-8,-6,-1,36,-16,-19,-14
15:15:34:346159,3,-8,-6,-1,36,-16,-19,-14
15:15:34:346957,16,2,34,31,-12,-1,39,13
15:15:34:360491,2,4,25,-7,11,-15,-69,-7
15:15:34:368699,2,4,25,-7,11,-15,-69,-7
15:15:34:369509,-23,-14,-3,-14,-42,-1,7,2
15:15:34:375534,-18,-10,14,4,-15,6,-2,-8
15:15:34:383012,-18,-10,14,4,-15,6,-2,-8
15:15:34:390579,11,3,3,-16,20,8,8,-5
15:15:34:397999,-2,4,13,16,-9,-5,-19,-1
15:15:34:406197,-2,4,13,16,-9,-5,-19,-1
15:15:34:406946,12,5,-18,29,-9,12,0,1
15:15:34:420535,-23,-3,-26,-2,-10,8,30,8
15:15:34:428636,-23,-3,-26,-2,-10,8,30,8
15:15:34:429461,3,3,15,-17,9,-1,13,6
15:15:34:435500,12,-15,39,-6,-25,1,22,10
15:15:34:443043,12,-15,39,-6,-25,1,22,10
15:15:34:450472,-64,-28,-14,-33,-32,-28,-28,-10
15:15:34:458005,17,22,2,-14,-8,-2,23,3
15:15:34:465530,17,22,2,-14,-8,-2,23,3
15:15:34:473032,31,10,31,3,-4,-9,-24,0
15:15:34:480434,3,-3,-22,-18,-16,-12,7,-3
15:15:34:488714,3,-3,-22,-18,-16,-12,7,-3
15:15:34:489482,-19,-15,-22,-12,-3,-7,-17,-7
15:15:34:503772,26,9,-55,-78,-19,-1,-1,2
15:15:34:504529,26,9,-55,-78,-19,-1,-1,2
15:15:34:510535,22,5,6,-21,-4,-1,2,-3
15:15:34:517940,-16,-10,22,9,31,8,8,-1
15:15:34:525596,-16,-10,22,9,31,8,8,-1
15:15:34:532973,-14,-16,-34,-14,2,6,1,-5
15:15:34:540575,5,8,-1,39,5,6,-34,-6
15:15:34:548677,5,8,-1,39,5,6,-34,-6
15:15:34:549527,3,6,-2,-1,6,11,4,0
15:15:34:563663,-4,14,19,11,-6,-5,36,11
15:15:34:564470,-4,14,19,11,-6,-5,36,11
15:15:34:570533,47,-14,8,-3,2,11,3,-1
15:15:34:578010,-43,-24,6,28,11,13,-16,-14
15:15:34:585531,-43,-24,6,28,11,13,-16,-14
15:15:34:592970,-1,12,-2,-49,-24,30,14,7
15:15:34:600471,18,-4,1,-14,-21,17,-2,-2
15:15:34:608734,18,-4,1,-14,-21,17,-2,-2
15:15:34:609469,-10,4,-36,-10,-26,-18,-9,-6
15:15:34:623703,6,-9,-12,-7,-4,-28,-14,-1
15:15:34:624423,6,-9,-12,-7,-4,-28,-14,-1
15:15:34:630510,39,8,-2,17,40,28,7,8
15:15:34:637980,-25,-15,-29,-4,-1,-4,63,1
15:15:34:645502,-25,-15,-29,-4,-1,-4,63,1
15:15:34:653042,-21,-11,24,16,38,10,1,-7
15:15:34:660565,13,1,14,-10,-28,-11,-19,-5
15:15:34:668705,13,1,14,-10,-28,-11,-19,-5
15:15:34:669495,-14,7,2,16,17,2,11,2
15:15:34:683661,24,16,-7,27,20,-4,-12,0
15:15:34:684445,24,16,-7,27,20,-4,-12,0
15:15:34:690503,-14,-28,-12,15,-6,-17,-16,-5
15:15:34:697986,-35,4,23,8,4,19,5,5
15:15:34:705551,-35,4,23,8,4,19,5,5
15:15:34:712937,4,-6,-40,0,8,-4,-6,-2
15:15:34:720483,3,-4,12,-10,-12,-16,-73,-1
15:15:34:728733,3,-4,12,-10,-12,-16,-73,-1
15:15:34:729472,9,6,18,-2,0,13,23,3
15:15:34:743710,27,-4,12,11,-10,-3,5,1
15:15:34:744511,27,-4,12,11,-10,-3,5,1
15:15:34:750473,46,11,33,-31,23,21,-4,2
15:15:34:758004,-12,-5,-1,19,22,10,14,-2
15:15:34:765566,-12,-5,-1,19,22,10,14,-2
15:15:34:772994,-47,-10,-1,15,-25,-34,-1,-4
15:15:34:780512,-6,11,-8,-3,-19,-21,0,-6
15:15:34:788717,-6,11,-8,-3,-19,-21,0,-6
15:15:34:789547,11,13,6,25,68,36,7,4
15:15:34:803714,14,-3,-25,-14,-1,-11,4,-1
15:15:34:804505,14,-3,-25,-14,-1,-11,4,-1
15:15:34:810442,-24,5,14,2,-56,-50,-37,-12
15:15:34:817920,27,13,32,-38,7,14,-56,3
15:15:34:825590,27,13,32,-38,7,14,-56,3
15:15:34:833005,2,2,-3,12,-19,6,21,10
15:15:34:840482,-16,5,-26,-42,-31,14,13,-7
15:15:34:848706,-16,5,-26,-42,-31,14,13,-7
15:15:34:849516,-9,-5,-6,-16,3,1,-28,1
15:15:34:863672,-3,-13,-23,13,27,4,27,11
15:15:34:864494,-3,-13,-23,13,27,4,27,11
15:15:34:870502,-10,2,-9,-10,-43,-34,-7,-8
15:15:34:877990,-4,17,-4,14,21,6,16,2
15:15:34:885530,-4,17,-4,14,21,6,16,2
15:15:34:892968,-7,15,-50,-18,-21,-22,-2,-6
15:15:34:900495,-11,-7,-46,52,26,-5,10,-8
15:15:34:908709,-11,-7,-46,52,26,-5,10,-8
15:15:34:909477,16,-27,20,-26,28,5,46,11
15:15:34:923669,-34,-15,-36,-22,-2,-14,-51,-16
15:15:34:924440,-34,-15,-36,-22,-2,-14,-51,-16
15:15:34:930459,-6,5,6,4,-7,-1,15,5
15:15:34:937998,28,11,26,-13,-25,-23,16,-2
15:15:34:945523,28,11,26,-13,-25,-23,16,-2
15:15:34:953034,-29,-9,-11,-1,-19,-9,-27,-9
15:15:34:960540,6,21,14,4,6,9,-12,-1
15:15:34:968667,6,21,14,4,6,9,-12,-1
15:15:34:969458,17,0,17,15,44,55,1,-7
15:15:34:983693,35,1,31,-9,28,14,32,14
15:15:34:984474,35,1,31,-9,28,14,32,14
15:15:34:990535,44,19,23,11,-18,-30,-4,4
15:15:34:998013,2,-1,11,1,-20,7,-16,-8
15:15:35:5492,2,-1,11,1,-20,7,-16,-8
15:15:35:12936,-8,-3,13,6,-6,-19,1,3
15:15:35:20497,-17,-8,4,-15,-31,-43,-13,0
15:15:35:28714,-17,-8,4,-15,-31,-43,-13,0
15:15:35:29459,-20,8,-10,-22,-17,10,8,-9
15:15:35:43703,-36,-7,-29,-1,7,3,-2,-15
15:15:35:44497,-36,-7,-29,-1,7,3,-2,-15
15:15:35:50475,-13,-15,-2,28,-5,2,-27,-14
15:15:35:57989,40,-3,-9,-12,11,2,8,6
15:15:35:65555,40,-3,-9,-12,11,2,8,6
15:15:35:72947,-7,-12,-47,2,16,-7,6,2
15:15:35:80445,0,-9,-6,-9,-5,9,2,4
15:15:35:88712,0,-9,-6,-9,-5,9,2,4
15:15:35:89493,2,-7,-4,12,-13,9,1,3
15:15:35:103721,9,31,34,-16,-29,-12,19,10
15:15:35:104530,9,31,34,-16,-29,-12,19,10
15:15:35:110482,15,-2,15,17,1,0,26,6
15:15:35:117965,-19,-7,-9,3,-10,-6,2,-7
15:15:35:125578,-19,-7,-9,3,-10,-6,2,-7
15:15:35:141165,7,-7,54,1,-11,-16,-55,-1
15:15:35:141956,3,0,-25,16,30,7,-24,-15
15:15:35:148658,3,0,-25,16,30,7,-24,-15
15:15:35:149486,-8,17,9,32,4,-21,-17,-5
15:15:35:163645,10,2,-12,28,-6,7,18,4
15:15:35:164468,10,2,-12,28,-6,7,18,4
15:15:35:170433,31,4,-31,20,-1,-3,12,1
15:15:35:177949,24,2,3,-17,3,15,1,8
15:15:35:185523,24,2,3,-17,3,15,1,8
15:15:35:192958,-20,-2,13,-33,-13,-13,-17,-9
15:15:35:200505,-56,-8,9,-27,-22,-3,2,1
15:15:35:208727,-56,-8,9,-27,-22,-3,2,1
15:15:35:209540,0,-28,-21,-22,14,21,49,16
15:15:35:223734,-10,-2,-1,-1,-8,-12,0,-11
15:15:35:224565,-10,-2,-1,-1,-8,-12,0,-11
15:15:35:230444,-15,7,19,0,-4,-5,-17,-10
15:15:35:238024,13,-7,-3,7,31,3,12,12
15:15:35:245548,13,-7,-3,7,31,3,12,12
15:15:35:252969,-9,15,-11,17,4,2,9,-1
15:15:35:260475,-6,-16,-22,11,-6,-4,-15,-13
15:15:35:268689,-6,-16,-22,11,-6,-4,-15,-13
15:15:35:269488,-15,-11,-11,-26,16,2,20,15
15:15:35:283884,21,-2,-23,-2,6,33,46,17
15:15:35:284465,21,-2,-23,-2,6,33,46,17
15:15:35:290486,1,25,-15,-9,2,3,-11,-25
15:15:35:297951,18,4,45,33,7,-16,-48,-17
15:15:35:305527,18,4,45,33,7,-16,-48,-17
15:15:35:312973,-19,-2,7,-12,-6,-3,-1,9
15:15:35:320560,12,10,1,3,-13,1,7,7
15:15:35:328683,12,10,1,3,-13,1,7,7
15:15:35:329479,-23,-5,9,37,36,14,-9,0
15:15:35:343654,42,2,-15,-6,22,8,31,10
15:15:35:344473,42,2,-15,-6,22,8,31,10
15:15:35:350469,14,-10,-12,-19,-25,-12,-31,-9
15:15:35:358040,-12,-12,5,0,-38,-21,-29,-8
15:15:35:365515,-12,-12,5,0,-38,-21,-29,-8
15:15:35:372949,-10,12,1,8,36,40,35,13
15:15:35:380500,-3,5,13,-9,-17,-2,-6,0
15:15:35:388023,-3,5,13,-9,-17,-2,-6,0
15:15:35:395468,-2,11,15,-6,-11,-10,-8,0
15:15:35:403663,-11,1,-30,-39,-5,-12,52,8
15:15:35:404495,-11,1,-30,-39,-5,-12,52,8
15:15:35:410446,22,6,-8,-2,-4,6,16,5
15:15:35:426227,-9,3,-3,-33,-6,-1,-28,-8
15:15:35:427023,-9,3,-3,-33,-6,-1,-28,-8
15:15:35:432984,-19,-13,3,-21,15,-1,-11,-8
15:15:35:440507,-6,-2,21,-14,10,28,1,-4
15:15:35:448039,-6,-2,21,-14,10,28,1,-4
15:15:35:455497,-3,-4,-17,9,-5,-7,-7,-5
15:15:35:463691,32,-29,-13,26,18,8,25,2
15:15:35:464481,32,-29,-13,26,18,8,25,2
15:15:35:470534,18,9,17,-21,-27,-27,-25,-8
15:15:35:486199,-42,0,-29,22,2,3,-14,-4
15:15:35:487011,-42,0,-29,22,2,3,-14,-4
15:15:35:492963,15,-1,11,-18,4,3,-6,0
15:15:35:500470,-7,-6,12,3,-27,-18,0,1
15:15:35:508080,-7,-6,12,3,-27,-18,0,1
15:15:35:515455,-8,7,-9,30,7,11,12,0
15:15:35:523704,-54,-23,17,15,11,-6,2,7
15:15:35:524454,-54,-23,17,15,11,-6,2,7
15:15:35:530493,-70,-42,-51,-32,-25,-9,10,-3
15:15:35:546172,-12,9,-62,-5,-12,17,13,-1
15:15:35:547056,-12,9,-62,-5,-12,17,13,-1
15:15:35:553007,29,6,21,4,11,37,31,9
15:15:35:560549,7,12,-7,9,-8,-11,-14,-7
15:15:35:568057,7,12,-7,9,-8,-11,-14,-7
15:15:35:575598,19,-9,-9,-6,-26,-17,-14,-3
15:15:35:583678,2,-33,11,33,23,-3,-6,-1
15:15:35:584468,2,-33,11,33,23,-3,-6,-1
15:15:35:590468,34,6,3,-13,-27,-16,-20,-3
15:15:35:606133,28,24,13,-9,28,7,8,14
15:15:35:606956,28,24,13,-9,28,7,8,14
15:15:35:612991,-11,-9,-35,12,18,13,0,0
15:15:35:620525,8,16,28,31,-10,-9,-18,-12
15:15:35:628000,8,16,28,31,-10,-9,-18,-12
15:15:35:635456,0,-2,17,-13,-8,-8,-1,-5
15:15:35:643683,14,17,17,-4,-18,-16,-46,-10
15:15:35:644497,14,17,17,-4,-18,-16,-46,-10
15:15:35:650470,22,-2,0,1,18,25,76,11
15:15:35:666192,-19,-27,-2,8,25,-4,-7,-8
15:15:35:667004,-19,-27,-2,8,25,-4,-7,-8
15:15:35:672953,5,-9,9,-23,-23,-28,-45,-9
15:15:35:680493,-12,2,8,-13,-7,15,12,-2
15:15:35:688013,-12,2,8,-13,-7,15,12,-2
15:15:35:695475,0,-14,2,15,27,5,-7,6
15:15:35:703686,2,24,16,-4,-2,-9,-3,1
15:15:35:704526,2,24,16,-4,-2,-9,-3,1
15:15:35:710449,-44,6,14,-7,-2,-11,-14,-14
15:15:35:726178,28,6,-12,-2,-3,-8,19,15
15:15:35:726997,28,6,-12,-2,-3,-8,19,15
15:15:35:732971,29,-2,1,9,-26,-22,0,1
15:15:35:740483,4,-8,-37,-3,5,24,1,0
15:15:35:748041,4,-8,-37,-3,5,24,1,0
15:15:35:755459,-25,1,-10,13,-3,-6,-25,-8
15:15:35:763683,-24,-7,12,-18,-9,-14,26,5
15:15:35:764537,-24,-7,12,-18,-9,-14,26,5
15:15:35:770495,39,-1,-11,-37,-5,2,68,10
15:15:35:786182,-69,-27,-15,-12,10,-10,-9,-13
15:15:35:787013,-69,-27,-15,-12,10,-10,-9,-13
15:15:35:792950,8,13,24,28,3,-4,-28,4
15:15:35:800475,5,12,35,4,-12,-5,1,-6
15:15:35:808067,5,12,35,4,-12,-5,1,-6
15:15:35:815504,-14,-7,-35,-10,11,8,-11,0
15:15:35:823709,2,6,11,11,4,-6,-15,-3
15:15:35:824492,2,6,11,11,4,-6,-15,-3
15:15:35:830528,-25,-15,12,-15,-30,-9,-2,-3
15:15:35:846221,-27,-15,6,-8,14,14,-7,5
15:15:35:847053,-27,-15,6,-8,14,14,-7,5
15:15:35:852983,4,5,-12,35,-32,-22,-6,-7
15:15:35:860515,-2,2,-25,-19,-9,0,-1,-3
15:15:35:867982,-2,2,-25,-19,-9,0,-1,-3
15:15:35:875514,-10,8,33,11,9,-3,-9,-2
15:15:35:883692,42,5,12,6,-18,-41,10,13
15:15:35:884461,42,5,12,6,-18,-41,10,13
15:15:35:890464,-35,-17,2,4,25,8,20,13
15:15:35:906146,-56,-31,13,2,-7,1,-21,-11
15:15:35:906958,-56,-31,13,2,-7,1,-21,-11
15:15:35:912987,10,15,7,-30,34,6,5,-10
15:15:35:920528,21,11,-11,-47,3,-6,-14,0
15:15:35:928036,21,11,-11,-47,3,-6,-14,0
15:15:35:935443,-30,10,1,7,21,15,-2,-11
15:15:35:943699,-1,10,29,0,-24,1,-6,-6
15:15:35:944499,-1,10,29,0,-24,1,-6,-6
15:15:35:950462,-10,-15,-4,-19,2,13,-12,-6
15:15:35:966193,-6,-1,4,5,5,6,5,-4
15:15:35:967000,-6,-1,4,5,5,6,5,-4
15:15:35:972913,20,14,8,19,-2,2,45,18
15:15:35:980465,2,5,-3,32,-3,2,3,-3
15:15:35:988057,2,5,-3,32,-3,2,3,-3
15:15:35:995490,45,6,-18,15,-16,23,-27,-1
15:15:36:3670,10,16,2,24,2,24,8,-6
15:15:36:4508,10,16,2,24,2,24,8,-6
15:15:36:10436,-43,-28,-52,10,10,-15,-12,-7
15:15:36:26236,-1,-20,11,-32,-27,-19,9,0
15:15:36:27006,-1,-20,11,-32,-27,-19,9,0
15:15:36:33004,19,24,14,-2,7,12,-19,-1
15:15:36:40522,-13,-9,-14,6,37,11,40,8
15:15:36:48082,-13,-9,-14,6,37,11,40,8
15:15:36:55468,1,-6,26,-8,-5,-17,-4,-8
15:15:36:63665,20,-7,-16,19,-10,-13,-25,-1
15:15:36:64552,20,-7,-16,19,-10,-13,-25,-1
15:15:36:70519,45,12,0,-4,-15,-13,-15,-1
15:15:36:86211,45,12,0,-4,-15,-13,-15,-1
15:15:36:87017,13,-1,-12,87,23,17,-3,0
15:15:36:92986,-16,13,10,-20,-5,-1,-10,-4
15:15:36:109267,-16,13,10,-20,-5,-1,-10,-4
15:15:36:109982,4,2,27,-25,43,7,10,2
15:15:36:115495,-6,8,-10,-9,7,10,-11,7
15:15:36:123751,-6,8,-10,-9,7,10,-11,7
15:15:36:124526,3,-6,-15,-21,-17,-7,-13,-2
15:15:36:130458,-15,-30,-13,-11,-21,-31,-31,-10
15:15:36:146198,-15,-30,-13,-11,-21,-31,-31,-10
15:15:36:146993,-76,-11,-30,-19,0,-10,4,-11
15:15:36:152960,-3,-7,3,-33,8,-8,7,6
15:15:36:168681,-3,-7,3,-33,8,-8,7,6
15:15:36:169486,8,4,-14,34,-5,-14,-2,5
15:15:36:175502,-7,-7,-11,22,9,10,0,-6
15:15:36:183721,-7,-7,-11,22,9,10,0,-6
15:15:36:184463,8,-6,-7,-28,-26,2,9,7
15:15:36:190501,5,12,12,1,-6,8,-4,-2
15:15:36:206208,5,12,12,1,-6,8,-4,-2
15:15:36:206980,43,8,-14,-15,-12,0,-18,-9
15:15:36:212956,-54,-6,17,7,-3,-11,11,-10
15:15:36:228682,-54,-6,17,7,-3,-11,11,-10
15:15:36:229471,-6,-8,27,-17,10,3,11,3
15:15:36:235459,16,1,-2,15,-9,25,24,11
15:15:36:243684,16,1,-2,15,-9,25,24,11
15:15:36:244467,12,13,-6,8,40,15,-2,-1
15:15:36:250472,-5,-5,-29,-2,-28,-28,-29,-14
15:15:36:266206,-5,-5,-29,-2,-28,-28,-29,-14
15:15:36:267000,11,15,-11,-23,4,-1,-4,1
15:15:36:272953,7,-10,15,-1,-6,-12,11,2
15:15:36:288666,7,-10,15,-1,-6,-12,11,2
15:15:36:289465,41,9,19,19,-10,-1,-38,-3
15:15:36:295477,-7,-20,-20,-3,-15,0,-2,-9
15:15:36:303673,-7,-20,-20,-3,-15,0,-2,-9
15:15:36:304464,0,-22,-27,-7,-10,-9,13,-5
15:15:36:310448,29,20,-19,-6,-8,-4,-2,-4
15:15:36:326176,29,20,-19,-6,-8,-4,-2,-4
15:15:36:326959,24,-6,17,-2,-2,-10,7,20
15:15:36:332985,21,15,2,3,32,-1,18,8
15:15:36:348665,21,15,2,3,32,-1,18,8
15:15:36:349482,-4,10,-16,11,7,15,-6,0
15:15:36:355516,5,-4,9,14,7,-4,-8,-9
15:15:36:363658,5,-4,9,14,7,-4,-8,-9
15:15:36:364463,-23,-5,-32,-22,-24,-23,-28,-15
15:15:36:378029,0,-11,-22,-6,-2,5,-1,1
15:15:36:386183,0,-11,-22,-6,-2,5,-1,1
15:15:36:386983,-10,5,22,-4,-27,-6,9,-4
15:15:36:393000,-1,-8,20,19,-5,10,1,3
15:15:36:408750,-1,-8,20,19,-5,10,1,3
15:15:36:409509,-21,-3,-41,-3,48,14,-6,-12
15:15:36:415481,8,18,16,-11,14,-3,-13,-2
15:15:36:423724,8,18,16,-11,14,-3,-13,-2
15:15:36:424476,-17,-7,37,-9,-32,-9,4,3
15:15:36:438024,-3,-8,-65,15,-23,-10,-1,0
15:15:36:446140,-3,-8,-65,15,-23,-10,-1,0
15:15:36:446967,-48,-6,10,-8,5,12,-4,-6
15:15:36:452966,-13,-15,-27,-11,-9,5,15,5
15:15:36:468711,-13,-15,-27,-11,-9,5,15,5
15:15:36:469498,13,0,-11,29,14,-3,13,0
15:15:36:475476,-8,10,-16,-16,-1,-9,0,13
15:15:36:483669,-8,10,-16,-16,-1,-9,0,13
15:15:36:484447,36,7,-4,9,-17,-11,0,-5
15:15:36:497965,-14,7,32,-25,-28,-5,-25,-13
15:15:36:506244,-14,7,32,-25,-28,-5,-25,-13
15:15:36:507025,-2,-11,18,27,24,34,7,4
15:15:36:512977,16,19,39,31,4,0,4,2
15:15:36:528712,16,19,39,31,4,0,4,2
15:15:36:529468,-9,8,-24,-1,-14,-12,0,1
15:15:36:535446,5,-8,-8,-9,-9,-2,1,-6
15:15:36:543725,5,-8,-8,-9,-9,-2,1,-6
15:15:36:544520,15,-11,-6,-42,-9,-2,-17,-1
15:15:36:558014,-16,-19,-15,2,-1,-3,-4,-6
15:15:36:566194,-16,-19,-15,2,-1,-3,-4,-6
15:15:36:566966,-8,0,4,-7,8,5,-10,-5
15:15:36:573011,-5,-1,4,-18,-5,-8,-33,-9
15:15:36:588694,-5,-1,4,-18,-5,-8,-33,-9
15:15:36:589482,7,-4,-7,-12,-16,-1,18,5
15:15:36:595463,14,17,-7,22,1,-5,7,2
15:15:36:603683,14,17,-7,22,1,-5,7,2
15:15:36:604495,37,7,0,-25,-24,8,-2,1
15:15:36:617919,-6,-14,2,-5,20,18,9,9
15:15:36:626239,-6,-14,2,-5,20,18,9,9
15:15:36:627022,21,1,20,6,39,-1,23,8
15:15:36:633022,-7,3,8,-12,-14,-10,-18,-7
15:15:36:648679,-7,3,8,-12,-14,-10,-18,-7
15:15:36:649492,-3,-1,8,-13,-23,-20,-29,-9
15:15:36:664381,-29,3,8,-1,19,10,23,-2
15:15:36:665177,-29,3,8,-1,19,10,23,-2
15:15:36:665953,19,9,11,-10,-11,-1,-5,1
15:15:36:678013,-8,3,15,3,16,-5,-20,-7
15:15:36:686204,-8,3,15,3,16,-5,-20,-7
15:15:36:687014,-37,-7,5,11,13,-7,9,6
15:15:36:692987,13,11,10,11,8,2,19,32
15:15:36:708739,13,11,10,11,8,2,19,32
15:15:36:709541,-29,-7,-24,-39,-29,-30,-31,-14
15:15:36:715479,-26,-10,2,6,4,27,30,1
15:15:36:723713,-26,-10,2,6,4,27,30,1
15:15:36:724478,-1,-6,-14,1,34,4,-3,-3
15:15:36:737969,14,-4,-5,-8,-25,-22,-23,-6
15:15:36:746117,14,-4,-5,-8,-25,-22,-23,-6
15:15:36:746947,3,9,13,23,-4,16,13,-1
15:15:36:753008,-5,-3,-2,0,2,10,10,-5
15:15:36:768689,-5,-3,-2,0,2,10,10,-5
15:15:36:769521,-27,-18,-21,-4,-2,-7,-25,-7
15:15:36:775477,-1,-3,3,16,47,5,13,-6
15:15:36:783753,-1,-3,3,16,47,5,13,-6
15:15:36:784531,-35,-6,-15,13,3,19,75,5
15:15:36:797999,12,-12,1,-22,-12,-11,7,-2
15:15:36:806242,12,-12,1,-22,-12,-11,7,-2
15:15:36:807058,20,17,22,7,5,-12,-18,-4
15:15:36:812936,-12,10,-1,-14,-6,0,-5,-10
15:15:36:828749,-12,10,-1,-14,-6,0,-5,-10
15:15:36:829475,9,0,-27,-13,-10,-3,15,9
15:15:36:835468,-35,-26,-12,-17,-12,-3,-5,5
15:15:36:843735,-35,-26,-12,-17,-12,-3,-5,5
15:15:36:844503,0,1,2,2,-16,-13,-11,-7
15:15:36:858023,-9,-5,10,11,12,18,20,10
15:15:36:866227,-9,-5,10,11,12,18,20,10
15:15:36:866998,3,-10,34,-13,-12,11,-6,2
15:15:36:872953,20,4,5,-10,-14,1,-14,8
15:15:36:888690,20,4,5,-10,-14,1,-14,8
15:15:36:889486,11,14,23,26,-16,-6,5,7
15:15:36:895480,-2,0,-2,14,-6,-13,-8,-1
15:15:36:903731,-2,0,-2,14,-6,-13,-8,-1
15:15:36:904492,34,7,-16,-23,-10,-2,-8,0
15:15:36:917982,16,-12,-13,16,5,-6,0,-5
15:15:36:926242,16,-12,-13,16,5,-6,0,-5
15:15:36:927007,-10,4,14,9,5,-3,-30,5
15:15:36:932977,13,-15,1,-18,-32,-26,-6,-15
15:15:36:948704,13,-15,1,-18,-32,-26,-6,-15
15:15:36:949494,-44,-29,-14,6,39,21,-20,-6
15:15:36:955497,29,11,-13,-5,-10,-14,36,4
15:15:36:963696,29,11,-13,-5,-10,-14,36,4
15:15:36:964513,17,5,-8,27,28,19,23,14
15:15:36:978034,32,26,-16,19,-4,2,-21,-2
15:15:36:986175,32,26,-16,19,-4,2,-21,-2
15:15:36:986994,-26,-14,4,-8,4,-14,-17,-21
15:15:36:992972,-10,14,48,-10,-13,-3,-1,-9
15:15:37:8771,-10,14,48,-10,-13,-3,-1,-9
15:15:37:9528,-40,-6,6,-6,1,-2,21,8
15:15:37:15519,4,-6,27,6,21,30,29,25
15:15:37:23718,4,-6,27,6,21,30,29,25
15:15:37:24511,21,-7,-6,-6,-36,-16,18,15
15:15:37:38030,-7,6,4,-1,-12,2,-20,-15
15:15:37:46171,-7,6,4,-1,-12,2,-20,-15
15:15:37:46956,-32,-24,13,-5,4,12,-13,-13
15:15:37:60480,-12,2,-3,6,9,-12,-12,-2
15:15:37:68672,-12,2,-3,6,9,-12,-12,-2
15:15:37:69488,-32,12,9,2,-2,0,-19,-10
15:15:37:75500,-13,-5,-9,-3,6,-1,-8,-4
15:15:37:83697,-13,-5,-9,-3,6,-1,-8,-4
15:15:37:84454,25,7,-25,-4,-7,5,-10,-7
15:15:37:98044,2,4,-20,-16,35,11,-9,-1
15:15:37:106194,2,4,-20,-16,35,11,-9,-1
15:15:37:106990,-13,-3,0,33,-3,-17,-11,-14
15:15:37:113020,14,9,-14,1,-2,-12,-2,-5
15:15:37:120530,14,9,-14,1,-2,-12,-2,-5
15:15:37:127957,-30,14,9,3,3,-8,27,0
15:15:37:135466,13,-12,-17,-4,-14,-7,-24,-2
15:15:37:143694,13,-12,-17,-4,-14,-7,-24,-2
15:15:37:144485,22,11,11,-13,-2,-7,-34,-15
15:15:37:158103,-18,6,-22,-4,-7,4,6,1
15:15:37:166218,-18,6,-22,-4,-7,4,6,1
15:15:37:167011,9,-22,20,7,13,-7,19,-2
15:15:37:172982,9,6,3,21,-12,-12,-22,-12
15:15:37:180536,9,6,3,21,-12,-12,-22,-12
15:15:37:188005,-4,-3,-10,-1,-18,-4,-8,1
15:15:37:195494,-21,-5,14,-27,-12,-2,8,7
15:15:37:203735,-21,-5,14,-27,-12,-2,8,7
15:15:37:204517,-16,-12,1,-15,-20,-9,-16,-6
15:15:37:217951,-24,-14,-44,-21,-2,9,8,-2
15:15:37:226246,-24,-14,-44,-21,-2,9,8,-2
15:15:37:227002,28,-10,-2,-8,7,18,-12,-3
15:15:37:232955,3,1,26,5,-12,-5,-6,1
15:15:37:240619,3,1,26,5,-12,-5,-6,1
15:15:37:247976,17,11,-37,-8,-12,-13,-5,-7
15:15:37:255474,4,-14,3,-4,-20,-2,12,-8
15:15:37:263635,4,-14,3,-4,-20,-2,12,-8
15:15:37:264490,14,16,2,-8,-31,10,12,6
15:15:37:277994,36,0,-10,3,3,22,-18,7
15:15:37:286196,36,0,-10,3,3,22,-18,7
15:15:37:287031,3,15,-8,-5,9,0,-27,10
15:15:37:301171,-11,-4,8,41,-4,9,6,4
15:15:37:301960,-11,-4,8,41,-4,9,6,4
15:15:37:308061,17,15,11,9,47,25,-16,8
15:15:37:315476,-6,-6,0,-18,19,-17,0,3
15:15:37:323094,-6,-6,0,-18,19,-17,0,3
15:15:37:330502,-6,-52,-27,26,0,-8,30,-2
15:15:37:337978,1,10,13,-11,5,2,1,-1
15:15:37:346132,1,10,13,-11,5,2,1,-1
15:15:37:346971,-13,2,-3,-16,25,11,19,6
15:15:37:361209,-23,2,6,16,12,-3,-12,-13
15:15:37:362016,-23,2,6,16,12,-3,-12,-13
15:15:37:368013,41,5,-24,-32,-25,-14,-21,-20
15:15:37:375492,-22,-13,2,-3,3,20,6,9
15:15:37:383019,-22,-13,2,-3,3,20,6,9
15:15:37:390542,-8,-13,-30,-33,-51,-15,13,12
15:15:37:397981,8,11,-7,-27,-23,-12,-25,-4
15:15:37:406179,8,11,-7,-27,-23,-12,-25,-4
15:15:37:406959,24,26,19,3,18,13,44,22
15:15:37:421144,0,-4,4,10,35,-7,-2,-4
15:15:37:422016,0,-4,4,10,35,-7,-2,-4
15:15:37:428025,-17,-6,-10,0,0,1,-19,-15
15:15:37:435468,15,-1,2,7,-4,15,35,7
15:15:37:443032,15,-1,2,7,-4,15,35,7
15:15:37:450512,8,-16,32,-24,18,-8,0,2
15:15:37:458021,11,11,-1,4,6,-5,-3,1
15:15:37:466200,11,11,-1,4,6,-5,-3,1
15:15:37:466956,-22,-4,-13,3,12,-13,21,5
15:15:37:481179,-44,-31,3,-13,-13,-18,-9,-11
15:15:37:481948,-44,-31,3,-13,-13,-18,-9,-11
15:15:37:496177,-11,13,7,-15,-12,-1,-22,-4
15:15:37:496944,-6,9,-18,14,21,-1,8,-3
15:15:37:502982,-6,9,-18,14,21,-1,8,-3
15:15:37:510532,-3,-5,7,43,-23,0,-6,-6
15:15:37:517988,10,-9,-34,-8,-31,-1,-9,-3
15:15:37:526197,10,-9,-34,-8,-31,-1,-9,-3
15:15:37:526989,44,24,41,11,4,1,27,13
15:15:37:541208,-7,-11,-5,-6,1,-7,1,11
15:15:37:541979,-7,-11,-5,-6,1,-7,1,11
15:15:37:547994,-26,-25,-8,21,-9,-7,-19,-2
15:15:37:555488,8,17,28,-2,-42,-18,0,-2
15:15:37:562967,8,17,28,-2,-42,-18,0,-2
15:15:37:570476,9,2,-14,2,-17,30,10,-11
15:15:37:577963,-44,-4,4,6,12,15,-3,-7
15:15:37:586160,-44,-4,4,6,12,15,-3,-7
15:15:37:586964,3,-5,13,-17,-13,-5,56,19
15:15:37:601151,23,3,15,-8,-5,-18,3,-4
15:15:37:601947,23,3,15,-8,-5,-18,3,-4
15:15:37:616184,-17,6,15,-5,-10,-10,-26,-12
15:15:37:616962,13,12,31,19,33,7,-10,-4
15:15:37:623025,13,12,31,19,33,7,-10,-4
15:15:37:630529,4,-5,-57,0,14,-4,-8,-2
15:15:37:638032,-1,-10,-11,-8,-20,-16,50,7
15:15:37:646169,-1,-10,-11,-8,-20,-16,50,7
15:15:37:646963,-9,-7,26,17,38,-1,1,-1
15:15:37:661213,5,6,-21,-9,13,19,13,14
15:15:37:661996,5,6,-21,-9,13,19,13,14
15:15:37:667950,-4,-16,11,-1,27,18,17,5
15:15:37:675510,21,0,8,-5,-17,-8,-11,-1
15:15:37:683043,21,0,8,-5,-17,-8,-11,-1
15:15:37:690506,16,23,-35,3,1,-6,-27,-10
15:15:37:697989,-21,-11,-6,1,-4,0,-6,-5
15:15:37:706237,-21,-11,-6,1,-4,0,-6,-5
15:15:37:707021,0,13,-21,0,0,-4,1,3
15:15:37:721198,2,7,33,-11,12,3,-7,-8
15:15:37:722008,2,7,33,-11,12,3,-7,-8
15:15:37:727969,50,16,-3,-10,-42,-31,-20,-1
15:15:37:735456,8,2,3,15,24,9,-2,-16
15:15:37:743050,8,2,3,15,24,9,-2,-16
15:15:37:750480,-27,-18,36,-8,15,20,-1,-7
15:15:37:757982,-5,-7,9,-18,-32,-17,-31,-8
15:15:37:766194,-5,-7,9,-18,-32,-17,-31,-8
15:15:37:767013,8,21,2,-13,-5,-2,7,-7
15:15:37:781211,28,10,-49,-15,25,16,46,17
15:15:37:781995,28,10,-49,-15,25,16,46,17
15:15:37:787995,-46,-38,5,-11,-9,-11,-16,-6
15:15:37:795506,15,6,-1,35,2,-2,-20,-5
15:15:37:803060,15,6,-1,35,2,-2,-20,-5
15:15:37:810502,-17,13,-28,5,-29,-12,-15,-4
15:15:37:817972,10,-1,-9,-8,21,38,1,6
15:15:37:826215,10,-1,-9,-8,21,38,1,6
15:15:37:826943,-27,-18,-13,-2,13,-1,11,4
15:15:37:841239,-10,3,14,-8,-31,-18,-55,1
15:15:37:842031,-10,3,14,-8,-31,-18,-55,1
15:15:37:848012,-11,1,5,8,17,9,-3,4
15:15:37:855515,-10,-4,-13,-4,15,-6,2,0
15:15:37:863015,-10,-4,-13,-4,15,-6,2,0
15:15:37:870505,4,9,13,-7,-13,-14,-19,-7
15:15:37:878030,16,-4,-8,30,-18,-4,-2,-11
15:15:37:886166,16,-4,-8,30,-18,-4,-2,-11
15:15:37:886962,5,8,33,37,-9,4,4,0
15:15:37:901136,-9,-1,18,-17,19,8,-1,1
15:15:37:901952,-9,-1,18,-17,19,8,-1,1
15:15:37:908012,-16,-8,1,5,11,-4,2,-2
15:15:37:915487,-12,-5,-9,-7,-7,-14,17,2
15:15:37:923002,-12,-5,-9,-7,-7,-14,17,2
15:15:37:930450,18,-9,-18,-9,24,5,-11,-5
15:15:37:937947,31,4,22,2,-2,-9,4,5
15:15:37:946218,31,4,22,2,-2,-9,4,5
15:15:37:946996,20,30,15,1,-13,-3,-5,-3
15:15:37:961195,1,-11,27,5,-8,-1,-4,-9
15:15:37:961995,1,-11,27,5,-8,-1,-4,-9
15:15:37:967951,18,-13,-8,6,18,1,30,0
15:15:37:975507,-38,0,8,8,-14,-17,17,6
15:15:37:983043,-38,0,8,8,-14,-17,17,6
15:15:37:990495,-8,-13,11,22,-16,3,5,8
15:15:37:997934,-7,-11,-34,-26,14,16,-14,-3
15:15:38:6190,-7,-11,-34,-26,14,16,-14,-3
15:15:38:7040,8,-3,-7,-23,-4,-2,-11,-4
15:15:38:21220,-14,-18,-8,-22,-13,-13,-12,-10
15:15:38:21963,-14,-18,-8,-22,-13,-13,-12,-10
15:15:38:27975,19,23,12,12,3,20,48,4
15:15:38:35504,6,-14,0,4,8,13,27,29
15:15:38:43074,6,-14,0,4,8,13,27,29
15:15:38:50504,1,3,-2,-12,-22,-25,-38,-6
15:15:38:57965,-26,5,31,18,-1,-2,-17,-16
15:15:38:66231,-26,5,31,18,-1,-2,-17,-16
15:15:38:67019,-72,-13,-8,-13,-4,-3,-1,-4
15:15:38:81204,-7,-8,-34,-11,1,-2,-9,-6
15:15:38:81995,-7,-8,-34,-11,1,-2,-9,-6
15:15:38:87970,22,17,-7,-2,-12,-13,-14,-4
15:15:38:103760,-18,-8,10,14,5,5,4,0
15:15:38:104549,-18,-8,10,14,5,5,4,0
15:15:38:110489,-1,-17,-23,-21,1,11,5,-1
15:15:38:117978,15,17,-24,-12,5,4,6,4
15:15:38:126281,15,17,-24,-12,5,4,6,4
15:15:38:127034,19,-16,14,0,10,-6,-2,-4
15:15:38:141269,5,-1,-1,-2,51,28,-26,-13
15:15:38:142051,5,-1,-1,-2,51,28,-26,-13
15:15:38:147986,-22,-5,9,6,-3,-9,10,12
15:15:38:155494,-10,-15,1,-21,-32,-23,-11,-9
15:15:38:171234,-10,-15,1,-21,-32,-23,-11,-9
15:15:38:171962,18,-15,-1,-34,-2,3,-19,-7
15:15:38:177996,-3,1,-9,-9,-40,3,0,0
15:15:38:186181,-3,1,-9,-9,-40,3,0,0
15:15:38:187027,-8,12,34,25,24,2,3,2
15:15:38:201193,9,2,11,11,17,8,6,-3
15:15:38:201996,9,2,11,11,17,8,6,-3
15:15:38:207955,28,2,-48,-9,-8,-3,0,3
15:15:38:215473,-50,-5,-2,-7,-6,-18,-8,-2
15:15:38:223044,-50,-5,-2,-7,-6,-18,-8,-2
15:15:38:230481,13,8,0,-3,9,1,-4,-3
15:15:38:237949,37,2,-24,-4,-1,-3,8,3
15:15:38:245546,37,2,-24,-4,-1,-3,8,3
15:15:38:252963,-5,-16,-1,-36,-16,-4,7,2
15:15:38:261146,23,10,-19,18,20,10,-4,3
15:15:38:261960,23,10,-19,18,20,10,-4,3
15:15:38:267971,-16,0,5,10,-4,0,0,-2
15:15:38:291896,18,15,6,-6,-11,-9,1,-2
15:15:38:292666,18,15,6,-6,-11,-9,1,-2
15:15:38:293506,2,16,-8,2,3,2,-10,0
15:15:38:297969,2,-12,18,4,7,-17,5,-5
15:15:38:305541,2,-12,18,4,7,-17,5,-5
15:15:38:312951,4,7,22,29,10,-5,4,9
15:15:38:321214,-25,-17,-13,5,-22,1,-4,-16
15:15:38:321963,-25,-17,-13,5,-22,1,-4,-16
15:15:38:328011,-3,-7,-54,-10,2,-1,-18,-6
15:15:38:343738,-22,6,14,-10,-15,-13,2,-2
15:15:38:344529,-22,6,14,-10,-15,-13,2,-2
15:15:38:350482,23,2,11,-8,-23,-8,-7,-1
15:15:38:358066,46,7,-10,-2,15,10,14,7
15:15:38:365468,46,7,-10,-2,15,10,14,7
15:15:38:372982,35,0,13,2,-34,-19,-19,7
15:15:38:381161,22,19,18,23,13,4,10,14
15:15:38:382027,22,19,18,23,13,4,10,14
15:15:38:387918,-5,-7,21,15,10,36,13,-2
15:15:38:403690,-20,-10,13,-17,-17,-11,-25,-4
15:15:38:404481,-20,-10,13,-17,-17,-11,-25,-4
15:15:38:410527,-28,4,-29,-4,-4,-18,-22,-14
15:15:38:417961,-43,-16,-5,5,-7,17,40,5
15:15:38:425539,-43,-16,-5,5,-7,17,40,5
15:15:38:432997,-3,-24,4,4,36,11,-22,-9
15:15:38:441580,12,13,5,-16,-6,-3,15,2
15:15:38:448733,12,13,5,-16,-6,-3,15,2
15:15:38:449509,6,8,-14,-11,-8,-3,2,-3
15:15:38:463661,9,10,-3,30,-49,-28,-17,-7
15:15:38:464509,9,10,-3,30,-49,-28,-17,-7
15:15:38:470508,-1,4,26,3,9,29,8,0
15:15:38:478041,0,11,19,13,22,7,0,-1
15:15:38:485508,0,11,19,13,22,7,0,-1
15:15:38:493004,-22,9,-7,-6,-29,-29,-1,3
15:15:38:501181,-71,-23,-11,-2,16,29,-12,-12
15:15:38:501984,-71,-23,-11,-2,16,29,-12,-12
15:15:38:508037,-23,3,-2,-22,0,-1,35,4
15:15:38:523706,57,30,-5,-10,-7,-6,-11,7
15:15:38:524555,57,30,-5,-10,-7,-6,-11,7
15:15:38:530526,0,-4,-4,-23,-1,-5,2,2
15:15:38:537997,1,-13,-66,-21,-23,4,-8,-3
15:15:38:545563,1,-13,-66,-21,-23,4,-8,-3
15:15:38:552969,2,0,1,-23,-33,-13,-2,0
15:15:38:569304,5,0,7,-17,10,8,3,0
15:15:38:570155,5,0,7,-17,10,8,3,0
15:15:38:570957,-26,17,-19,24,33,5,3,-6
15:15:38:583692,-2,-14,-7,14,5,-14,-29,-14
15:15:38:584485,-2,-14,-7,14,5,-14,-29,-14
15:15:38:590484,26,-2,37,27,16,16,16,0
15:15:38:597946,-6,11,-5,-1,16,-4,6,7
15:15:38:605524,-6,11,-5,-1,16,-4,6,7
15:15:38:612935,13,-7,3,11,-5,-23,-25,0
15:15:38:621197,7,-9,31,1,45,5,0,-1
15:15:38:622012,7,-9,31,1,45,5,0,-1
15:15:38:627998,1,7,5,13,-10,4,1,4
15:15:38:643701,-11,-26,8,-18,-42,-20,0,-1
15:15:38:644502,-11,-26,8,-18,-42,-20,0,-1
15:15:38:650501,-19,-17,4,12,-6,0,26,0
15:15:38:658027,-3,2,10,19,14,-5,-3,-1
15:15:38:665512,-3,2,10,19,14,-5,-3,-1
15:15:38:672946,-28,-6,3,8,13,1,-26,-10
15:15:38:681611,-67,8,20,-12,-32,-12,-13,-9
15:15:38:688755,-67,8,20,-12,-32,-12,-13,-9
15:15:38:689520,-22,5,-28,-3,2,24,45,7
15:15:38:703739,20,0,-12,-13,7,2,10,10
15:15:38:704548,20,0,-12,-13,7,2,10,10
15:15:38:710504,-11,-22,-48,-47,9,-11,-20,-11
15:15:38:726236,44,16,0,-4,-16,-25,-22,4
15:15:38:727013,44,16,0,-4,-16,-25,-22,4
15:15:38:732990,11,7,-2,13,19,23,5,7
15:15:38:741249,3,-26,3,-6,9,11,0,0
15:15:38:742037,3,-26,3,-6,9,11,0,0
15:15:38:748013,1,-1,17,7,-30,-16,-2,-1
15:15:38:763687,-36,0,-22,12,-4,-2,1,6
15:15:38:764524,-36,0,-22,12,-4,-2,1,6
15:15:38:770516,-3,-9,9,-10,-4,-5,-16,-5
15:15:38:777981,48,3,-9,20,10,11,5,-11
15:15:38:785517,48,3,-9,20,10,11,5,-11
15:15:38:793031,10,23,19,5,7,-7,-3,-1
15:15:38:801123,-11,-8,-16,-5,9,-1,4,-4
15:15:38:801939,-11,-8,-16,-5,9,-1,4,-4
15:15:38:807974,12,-8,23,12,13,-18,-6,-4
15:15:38:823759,3,4,0,1,-30,-9,-12,7
15:15:38:824533,3,4,0,1,-30,-9,-12,7
15:15:38:830488,-6,19,17,16,9,22,-3,1
15:15:38:846189,7,-6,-5,-4,-5,1,-10,-7
15:15:38:847024,7,-6,-5,-4,-5,1,-10,-7
15:15:38:852957,8,-1,-12,-1,6,-3,1,0
15:15:38:861295,-11,1,6,-48,-19,5,13,-6
15:15:38:862037,-11,1,6,-48,-19,5,13,-6
15:15:38:867960,4,-11,0,-3,1,-5,-6,-3
15:15:38:883726,18,3,4,3,8,0,10,6
15:15:38:884493,18,3,4,3,8,0,10,6
15:15:38:890545,-22,-10,21,-6,-5,8,-3,-2
15:15:38:898018,23,25,-7,-6,28,1,3,2
15:15:38:905559,23,25,-7,-6,28,1,3,2
15:15:38:912982,-9,-20,27,6,-2,-3,-11,-3
15:15:38:921185,-41,0,-6,-13,-18,-9,12,-2
15:15:38:921967,-41,0,-6,-13,-18,-9,12,-2
15:15:38:928010,11,13,-8,13,3,-1,-9,0
15:15:38:943738,-27,-10,17,25,6,1,-2,-1
15:15:38:944546,-27,-10,17,25,6,1,-2,-1
15:15:38:950530,3,-14,-22,-37,-51,-11,11,-3
15:15:38:966236,11,3,-2,31,45,14,-21,-4
15:15:38:967054,11,3,-2,31,45,14,-21,-4
15:15:38:972989,-22,-14,-51,-18,-24,-28,-93,-28
15:15:38:981126,-18,-16,-19,0,5,0,-21,-28
15:15:38:981949,-18,-16,-19,0,5,0,-21,-28
15:15:38:987992,-12,-2,-19,-12,6,-3,3,1
15:15:39:3728,-9,-8,51,7,-7,-9,2,16
15:15:39:4507,-9,-8,51,7,-7,-9,2,16
15:15:39:10508,21,17,0,46,-23,11,23,-1
15:15:39:17965,-8,-10,18,-15,-11,13,20,5
15:15:39:25589,-8,-10,18,-15,-11,13,20,5
15:15:39:32991,38,5,12,15,11,8,22,14
15:15:39:40550,-16,0,-23,-12,-17,-5,2,-2
15:15:39:48694,-16,0,-23,-12,-17,-5,2,-2
15:15:39:49498,1,-16,-13,-7,-4,0,6,4
15:15:39:63678,18,1,-6,-8,6,-5,4,3
15:15:39:64513,18,1,-6,-8,6,-5,4,3
15:15:39:70502,-1,-3,-6,-10,8,-1,9,6
15:15:39:78011,1,-10,10,16,-2,-2,-14,-3
15:15:39:85519,1,-10,10,16,-2,-2,-14,-3
15:15:39:92967,6,12,20,-24,5,-8,0,-4
15:15:39:101193,-28,-15,-24,2,28,-3,4,5
15:15:39:101996,-28,-15,-24,2,28,-3,4,5
15:15:39:108013,-28,2,2,1,24,-22,16,-20
15:15:39:124140,-10,6,-11,14,12,-3,-19,3
15:15:39:124963,-10,6,-11,14,12,-3,-19,3
15:15:39:130494,-15,-21,-25,-3,3,-6,-18,-20
15:15:39:138014,29,10,6,7,-6,-3,-15,-13
15:15:39:145568,29,10,6,7,-6,-3,-15,-13
15:15:39:152991,-5,-7,1,6,-14,9,13,9
15:15:39:161181,-22,-16,-19,15,10,19,2,3
15:15:39:161994,-22,-16,-19,15,10,19,2,3
15:15:39:167953,8,14,7,-12,-3,4,13,9
15:15:39:183690,5,7,-8,-18,-25,-13,7,8
15:15:39:184506,5,7,-8,-18,-25,-13,7,8
15:15:39:190497,-28,5,9,-17,2,14,-4,2
15:15:39:206166,-25,-15,9,-8,-23,-11,44,2
15:15:39:207012,-25,-15,9,-8,-23,-11,44,2
15:15:39:212928,10,-17,3,0,-30,3,-9,9
15:15:39:221179,10,19,19,3,-6,35,6,-5
15:15:39:221976,10,19,19,3,-6,35,6,-5
15:15:39:244319,29,23,-28,-5,17,-4,-13,4
15:15:39:245114,26,16,-4,3,15,-2,-12,-1
15:15:39:245940,26,16,-4,3,15,-2,-12,-1
15:15:39:250465,-25,-23,-17,-12,-5,0,-1,-6
15:15:39:266229,-15,-2,0,-12,-1,-6,-2,-5
15:15:39:266984,-15,-2,0,-12,-1,-6,-2,-5
15:15:39:272974,67,33,11,4,-6,-13,10,7
15:15:39:281123,42,-3,8,-4,-12,-9,-12,-10
15:15:39:281956,42,-3,8,-4,-12,-9,-12,-10
15:15:39:295562,-20,1,23,13,3,-9,20,-7
15:15:39:303739,11,21,10,11,-18,5,-20,12
15:15:39:304522,11,21,10,11,-18,5,-20,12
15:15:39:310473,-38,-27,-4,-3,9,-1,-40,-65
15:15:39:326192,-13,-33,-15,30,-4,-16,1,-6
15:15:39:326996,-13,-33,-15,30,-4,-16,1,-6
15:15:39:332983,1,3,5,27,20,23,11,26
15:15:39:341220,42,8,-31,13,36,-1,-3,-4
15:15:39:342046,42,8,-31,13,36,-1,-3,-4
15:15:39:355489,-11,-29,-27,-11,22,-3,10,6
15:15:39:363652,-9,5,0,-19,14,8,4,7
15:15:39:364499,-9,5,0,-19,14,8,4,7
15:15:39:370510,-8,17,-6,-34,-12,-4,4,4
15:15:39:386175,6,5,14,-16,-20,-13,1,0
15:15:39:387006,6,5,14,-16,-20,-13,1,0
15:15:39:401839,-57,-8,13,0,-17,-3,-11,4
15:15:39:402624,-57,-8,13,0,-17,-3,-11,4
15:15:39:403468,2,-5,8,3,-6,11,79,12
15:15:39:415508,-42,-13,11,-10,-3,14,11,11
15:15:39:423693,-42,-13,11,-10,-3,14,11,11
15:15:39:424503,-25,-19,9,31,-18,-21,-34,-11
15:15:39:430509,5,18,36,23,-14,12,9,9
15:15:39:446162,5,18,36,23,-14,12,9,9
15:15:39:446995,19,4,-26,-26,-1,2,-19,2
15:15:39:452976,18,-4,-19,-7,-7,-10,-10,0
15:15:39:461194,18,-4,-19,-7,-7,-10,-10,0
15:15:39:461971,38,24,27,-22,-15,0,-64,19
15:15:39:475533,60,10,1,6,35,6,-38,-4
15:15:39:483712,60,10,1,6,35,6,-38,-4
15:15:39:484464,41,-10,-23,-12,-5,-2,2,62
15:15:39:490506,16,2,-2,6,2,-7,-4,7
15:15:39:506244,16,2,-2,6,2,-7,-4,7
15:15:39:507022,-21,-10,12,-29,-14,-15,-38,-44
15:15:39:512982,12,13,-8,3,-2,5,21,0
15:15:39:521167,12,13,-8,3,-2,5,21,0
15:15:39:521947,-67,-11,41,-16,7,-10,22,-3
15:15:39:535487,3,8,34,23,4,2,-4,-14
15:15:39:543770,3,8,34,23,4,2,-4,-14
15:15:39:544504,-14,-17,-1,6,-2,4,19,0
15:15:39:558002,4,-10,8,18,-6,-8,-14,-4
15:15:39:566238,4,-10,8,18,-6,-8,-14,-4
15:15:39:567040,-8,-2,-43,-3,5,2,25,-3
15:15:39:572993,8,15,-29,-29,3,-2,14,3
15:15:39:581171,8,15,-29,-29,3,-2,14,3
15:15:39:581972,-15,1,-12,9,-3,-12,-48,-34
15:15:39:595527,61,10,4,-4,4,28,103,74
15:15:39:603745,61,10,4,-4,4,28,103,74
15:15:39:604554,-8,-24,-67,-6,-13,-3,4,-10
15:15:39:610501,5,-2,11,18,-11,-13,-32,-14
15:15:39:626249,5,-2,11,18,-11,-13,-32,-14
15:15:39:627026,-1,10,7,14,-11,-2,4,-4
15:15:39:632948,-40,-7,-47,-5,5,-4,-15,-23
15:15:39:641294,-40,-7,-47,-5,5,-4,-15,-23
15:15:39:642030,-8,-35,8,-8,-3,-4,-9,-11
15:15:39:655548,-5,7,-3,-11,-34,-15,-14,-8
15:15:39:663736,-5,7,-3,-11,-34,-15,-14,-8
15:15:39:664539,62,34,20,6,13,26,15,11
15:15:39:677961,-14,-10,7,-13,7,7,-8,-7
15:15:39:686217,-14,-10,7,-13,7,7,-8,-7
15:15:39:687005,1,-9,-19,-5,-3,-6,21,7
15:15:39:692960,-20,-36,-2,-22,-20,-13,-24,-13
15:15:39:701207,-20,-36,-2,-22,-20,-13,-24,-13
15:15:39:702002,5,16,-3,-4,10,-18,13,0
15:15:39:715491,24,4,77,3,-23,30,88,46
15:15:39:723709,24,4,77,3,-23,30,88,46
15:15:39:724486,-11,7,33,3,-3,11,4,-1
15:15:39:730515,-38,-3,-13,3,-5,-15,-29,-15
15:15:39:746181,-38,-3,-13,3,-5,-15,-29,-15
15:15:39:746998,-4,16,36,20,14,-1,-8,-6
15:15:39:752938,4,-3,-16,-32,1,-1,-15,-2
15:15:39:761221,4,-3,-16,-32,1,-1,-15,-2
15:15:39:762006,-8,-7,-28,-25,7,13,-18,-8
15:15:39:775556,-21,-2,-22,-2,5,10,56,5
15:15:39:783696,-21,-2,-22,-2,5,10,56,5
15:15:39:784517,9,20,7,4,-6,-5,19,7
15:15:39:798025,-12,8,-31,14,7,-12,-32,-6
15:15:39:806186,-12,8,-31,14,7,-12,-32,-6
15:15:39:806955,-31,-19,24,9,14,9,-7,0
15:15:39:812950,40,17,25,7,8,-8,-28,-7
15:15:39:821209,40,17,25,7,8,-8,-28,-7
15:15:39:822008,-5,15,-5,-16,-18,-6,-14,-5
15:15:39:835965,3,3,29,10,10,-4,1,-9
15:15:39:843705,3,3,29,10,10,-4,1,-9
15:15:39:844524,-9,-3,-8,4,-15,1,-10,13
15:15:39:850514,-1,-5,-5,4,22,23,-16,-6
15:15:39:866217,-1,-5,-5,4,22,23,-16,-6
15:15:39:866999,27,3,3,5,-1,-13,-14,-9
15:15:39:872992,-37,-40,-11,-11,-1,-5,10,9
15:15:39:888807,-37,-40,-11,-11,-1,-5,10,9
15:15:39:889515,7,-39,0,-3,28,-8,-8,5
15:15:39:895517,1,2,-66,-1,8,-3,-5,-4
15:15:39:903706,1,2,-66,-1,8,-3,-5,-4
15:15:39:904466,-6,31,21,49,-10,-5,5,-3
15:15:39:910502,-9,-13,-13,-22,1,-10,-14,-6
15:15:39:926177,-9,-13,-13,-22,1,-10,-14,-6
15:15:39:926946,1,3,-18,-29,3,8,8,-1
15:15:39:933008,-21,9,25,17,-10,-9,-13,-9
15:15:39:941215,-21,9,25,17,-10,-9,-13,-9
15:15:39:941995,-35,-4,-27,-18,-14,8,0,-14
15:15:39:955942,-7,-16,-12,6,2,0,-2,-7
15:15:39:963707,-7,-16,-12,6,2,0,-2,-7
15:15:39:964524,-9,-6,5,-5,-8,-1,-14,-6
15:15:39:970512,-25,-18,-1,-4,-4,-4,-12,-1
15:15:39:986199,-25,-18,-1,-4,-4,-4,-12,-1
15:15:39:986997,-7,-12,29,64,-10,-3,8,-1
15:15:39:992987,31,31,28,10,-21,-9,2,7
15:15:40:1127,31,31,28,10,-21,-9,2,7
15:15:40:1948,7,10,0,24,34,40,6,3
15:15:40:15523,-39,-8,-5,-4,-5,1,-9,1
15:15:40:23731,-39,-8,-5,-4,-5,1,-9,1
15:15:40:24516,-20,-19,-19,-32,-11,-12,2,2
15:15:40:30483,10,19,-8,-1,6,1,0,-6
15:15:40:46207,10,19,-8,-1,6,1,0,-6
15:15:40:46984,8,2,-32,-12,13,-7,6,2
15:15:40:52961,17,-8,5,-1,2,-8,-22,-2
15:15:40:61213,17,-8,5,-1,2,-8,-22,-2
15:15:40:62020,18,7,12,-8,-8,2,14,8
15:15:40:75530,15,-6,-6,-32,-6,-1,0,-2
15:15:40:83725,15,-6,-6,-32,-6,-1,0,-2
15:15:40:84512,-31,-10,-6,-14,-25,-14,-4,-3
15:15:40:90514,5,19,1,14,36,14,-2,-7
15:15:40:106900,5,19,1,14,36,14,-2,-7
15:15:40:107719,-21,-16,11,3,-14,-11,-4,-5
15:15:40:112980,15,22,1,-13,-36,-12,-5,-7
15:15:40:120555,15,22,1,-13,-36,-12,-5,-7
15:15:40:128005,34,-3,-31,4,18,22,-3,3
15:15:40:135544,7,-10,-21,2,4,-4,3,-2
15:15:40:143729,7,-10,-21,2,4,-4,3,-2
15:15:40:144542,16,18,45,-7,-6,-9,-5,-7
15:15:40:157989,-26,1,-4,8,1,3,-1,4
15:15:40:166239,-26,1,-4,8,1,3,-1,4
15:15:40:167026,7,-9,-16,-17,3,1,1,-5
15:15:40:172987,1,-2,15,23,14,1,-20,-4
15:15:40:180558,1,-2,15,23,14,1,-20,-4
15:15:40:187991,38,14,9,9,-5,-16,-32,-7
15:15:40:195517,-14,-17,12,7,-11,1,5,-2
15:15:40:203694,-14,-17,12,7,-11,1,5,-2
15:15:40:204486,-13,-4,-3,-2,-8,-7,-2,-7
15:15:40:218027,-11,15,-7,-31,-9,9,-4,0
15:15:40:234440,-11,15,-7,-31,-9,9,-4,0
15:15:40:235156,-15,-5,2,-21,-4,-8,-1,0
15:15:40:235969,20,16,16,-2,-8,0,11,3
15:15:40:240565,20,16,16,-2,-8,0,11,3
15:15:40:247977,0,2,14,29,33,21,5,2
15:15:40:255510,18,2,9,20,13,-11,11,-2
15:15:40:263699,18,2,9,20,13,-11,11,-2
15:15:40:264532,-52,-6,-15,-2,-13,-16,-65,-43
15:15:40:277968,40,2,-14,1,-11,-4,6,12
15:15:40:286202,40,2,-14,1,-11,-4,6,12
15:15:40:287001,4,-5,3,-8,-4,-8,-4,-3
15:15:40:292976,-35,-10,27,19,-7,-1,3,-3
15:15:40:300546,-35,-10,27,19,-7,-1,3,-3
15:15:40:308041,11,2,-23,2,-1,-2,9,12
15:15:40:315478,21,-10,-16,-8,28,5,11,9
15:15:40:323715,21,-10,-16,-8,28,5,11,9
15:15:40:324492,-21,10,-39,2,5,1,21,10
15:15:40:337999,15,-6,-2,-13,-19,-16,-6,-9
15:15:40:354400,15,-6,-2,-13,-19,-16,-6,-9
15:15:40:355177,-1,5,14,-7,1,1,-16,2
15:15:40:356002,-23,-8,-8,-6,-6,1,1,1
15:15:40:360564,-23,-8,-8,-6,-6,1,1,1
15:15:40:367975,20,2,9,-23,2,20,18,4
15:15:40:375561,32,22,20,18,11,4,-6,-6
15:15:40:391254,32,22,20,18,11,4,-6,-6
15:15:40:391995,-11,-8,19,-7,-11,-23,27,-6
15:15:40:397982,-7,6,-21,-7,20,2,29,16
15:15:40:406220,-7,6,-21,-7,20,2,29,16
15:15:40:406994,1,8,21,-14,4,-2,-9,-3
15:15:40:412939,-1,-10,18,11,-13,-4,-4,-3
15:15:40:420487,-1,-10,18,11,-13,-4,-4,-3
15:15:40:428019,1,-6,-30,3,-13,-15,-3,8
15:15:40:435485,-43,0,-20,-26,-2,33,78,15
15:15:40:443694,-43,0,-20,-26,-2,33,78,15
15:15:40:444474,30,-5,15,5,0,-2,8,4
15:15:40:458039,6,-3,-19,11,-30,-17,-36,-19
15:15:40:466890,6,-3,-19,11,-30,-17,-36,-19
15:15:40:467694,29,26,-28,3,-15,-6,12,17
15:15:40:472994,-8,-7,17,-10,11,8,-6,-5
15:15:40:480493,-8,-7,17,-10,11,8,-6,-5
15:15:40:487946,-2,-17,-2,-24,-1,3,-11,0
15:15:40:495497,-38,-17,-17,-10,-4,-7,-14,-6
15:15:40:511181,-38,-17,-17,-10,-4,-7,-14,-6
15:15:40:511983,-16,-17,21,9,4,2,-2,4
15:15:40:517959,-4,-1,12,2,2,-12,-29,-15
15:15:40:526217,-4,-1,12,2,2,-12,-29,-15
15:15:40:527001,24,17,10,-3,5,12,-10,-7
15:15:40:532946,22,-3,-27,-6,-34,-20,-26,-8
15:15:40:540568,22,-3,-27,-6,-34,-20,-26,-8
15:15:40:547945,-21,-20,-48,7,1,12,6,2
15:15:40:555494,4,7,18,2,0,-4,-15,-4
15:15:40:563680,4,7,18,2,0,-4,-15,-4
15:15:40:564495,3,10,-3,34,8,1,7,1
15:15:40:577951,-22,-2,2,-5,-3,-5,-3,3
15:15:40:586184,-22,-2,2,-5,-3,-5,-3,3
15:15:40:586978,-16,-13,16,25,14,8,-11,0
15:15:40:592982,11,-11,-7,3,7,10,-10,0
15:15:40:600552,11,-11,-7,3,7,10,-10,0
15:15:40:608032,1,8,11,-44,-11,-8,5,-3
15:15:40:615493,0,6,7,-9,-3,-2,35,13
15:15:40:631175,0,6,7,-9,-3,-2,35,13
15:15:40:632000,-5,5,-7,-9,6,-15,1,-7
15:15:40:637939,-45,-6,-8,-1,6,7,13,-4
15:15:40:654370,-45,-6,-8,-1,6,7,13,-4
15:15:40:655100,-23,-18,1,11,6,0,2,-7
15:15:40:655937,2,-4,-4,5,1,-4,-16,-5
15:15:40:660536,2,-4,-4,5,1,-4,-16,-5
15:15:40:667919,11,25,17,-8,-20,-20,-7,0
15:15:40:675506,19,2,-4,13,26,21,28,11
15:15:40:683701,19,2,-4,13,26,21,28,11
15:15:40:684460,33,7,-9,8,16,9,23,24
15:15:40:697951,32,2,0,8,-4,-17,-22,2
15:15:40:706258,32,2,0,8,-4,-17,-22,2
15:15:40:707079,-23,-1,16,-8,-6,-13,-32,-15
15:15:40:712914,-33,6,22,-6,-18,11,7,-5
15:15:40:720519,-33,6,22,-6,-18,11,7,-5
15:15:40:727981,-23,-24,-33,3,-34,6,3,-4
15:15:40:735479,-41,-20,3,1,-5,5,-3,-10
15:15:40:743703,-41,-20,3,1,-5,5,-3,-10
15:15:40:744511,14,-10,15,27,1,11,24,6
15:15:40:758007,35,-23,-5,-2,6,-3,51,34
15:15:40:766205,35,-23,-5,-2,6,-3,51,34
15:15:40:767012,5,12,0,-23,-17,-17,-16,0
15:15:40:772962,21,1,-12,35,14,5,-30,-8
15:15:40:780550,21,1,-12,35,14,5,-30,-8
15:15:40:788019,27,12,-30,-16,33,7,20,1
15:15:40:795532,21,13,-23,-27,7,6,16,2
15:15:40:803668,21,13,-23,-27,7,6,16,2
15:15:40:804518,-20,-18,-9,0,9,-10,-6,-15
15:15:40:818012,-17,9,9,-13,-18,-15,-64,-32
15:15:40:826288,-17,9,9,-13,-18,-15,-64,-32
15:15:40:827057,-20,-8,4,-3,7,16,13,9
15:15:40:832990,3,4,9,5,-7,-7,-20,-9
15:15:40:840597,3,4,9,5,-7,-7,-20,-9
15:15:40:848005,5,3,16,8,-3,-5,-4,-3
15:15:40:855657,43,-4,45,-30,-6,-12,-18,-2
15:15:40:863697,43,-4,45,-30,-6,-12,-18,-2
15:15:40:864501,14,2,-10,4,32,19,52,27
15:15:40:878024,-15,-11,-13,-17,-6,-9,2,-9
15:15:40:886144,-15,-11,-13,-17,-6,-9,2,-9
15:15:40:886984,10,-2,-2,-11,-12,-8,-26,-11
15:15:40:893018,5,1,-17,-2,4,-8,21,11
15:15:40:900503,5,1,-17,-2,4,-8,21,11
15:15:40:908025,-18,-9,-1,8,11,-9,-10,-2
15:15:40:915512,-4,-6,-13,9,-3,-5,-13,2
15:15:40:923686,-4,-6,-13,9,-3,-5,-13,2
15:15:40:924496,14,1,6,-24,-28,-18,-11,-10
15:15:40:938037,-26,-10,-10,-29,1,6,4,-3
15:15:40:946173,-26,-10,-10,-29,1,6,4,-3
15:15:40:946965,-8,8,26,4,-3,15,0,-8
15:15:40:952961,-9,3,-3,4,-4,-3,-5,-12
15:15:40:960557,-9,3,-3,4,-4,-3,-5,-12
15:15:40:967958,-31,-29,0,-13,1,-3,-12,-11
15:15:40:975541,-2,3,7,-6,8,1,-10,-8
15:15:40:983733,-2,3,7,-6,8,1,-10,-8
15:15:40:984508,-55,-7,0,18,19,5,8,0
15:15:40:997984,7,-11,-69,-3,1,2,-17,-7
15:15:41:6209,7,-11,-69,-3,1,2,-17,-7
15:15:41:7077,25,4,-24,-6,-16,-4,-8,19
15:15:41:12975,-1,18,20,-2,-5,-6,1,-7
15:15:41:20567,-1,18,20,-2,-5,-6,1,-7
15:15:41:27995,46,16,-18,12,-27,-12,-15,-4
15:15:41:35491,-15,-19,-12,21,31,17,4,7
15:15:41:43677,-15,-19,-12,21,31,17,4,7
15:15:41:44525,-6,7,20,13,-8,-6,3,-4
15:15:41:57989,2,-2,-15,-17,-40,-14,7,2
15:15:41:66231,2,-2,-15,-17,-40,-14,7,2
15:15:41:67024,-27,1,5,19,52,14,5,-2
15:15:41:81177,2,3,21,24,5,-3,0,-1
15:15:41:82035,2,3,21,24,5,-3,0,-1
15:15:41:87951,19,17,-2,-8,-23,1,12,-8
15:15:41:95541,5,1,15,2,-1,-2,-10,9
