Time,EMG1,EMG2,EMG3,EMG4,EMG5,EMG6,EMG7,EMG8
15:15:56:348660,1,3,11,47,3,8,2,-1
15:15:56:349472,-5,-6,5,40,7,12,-33,-5
15:15:56:356138,0,1,-4,-30,-3,3,8,-1
15:15:56:356922,0,1,-4,-30,-3,3,8,-1
15:15:56:362992,-1,0,1,-17,-3,-13,-7,-5
15:15:56:378659,-2,3,9,10,-5,7,-3,-4
15:15:56:379443,-2,3,9,10,-5,7,-3,-4
15:15:56:385411,0,-1,-9,-26,4,5,4,7
15:15:56:392932,-4,-7,-10,23,-3,7,-4,-3
15:15:56:401079,-4,-7,-10,23,-3,7,-4,-3
15:15:56:401892,-1,-2,-1,-50,-6,18,16,2
15:15:56:416154,-10,-5,-4,-29,-14,-13,-3,-4
15:15:56:416966,-10,-5,-4,-29,-14,-13,-3,-4
15:15:56:422960,-2,-5,7,0,-3,-10,-7,-5
15:15:56:430417,2,2,11,15,-7,0,-6,-3
15:15:56:437999,2,2,11,15,-7,0,-6,-3
15:15:56:445487,3,1,8,4,6,10,9,3
15:15:56:452935,2,-8,-1,1,1,-7,-25,-4
15:15:56:461225,2,-8,-1,1,1,-7,-25,-4
15:15:56:461993,1,3,-7,-21,0,6,47,9
15:15:56:476149,0,4,-5,7,-11,-6,8,-1
15:15:56:476954,0,4,-5,7,-11,-6,8,-1
15:15:56:482883,-5,-4,-7,50,6,-10,-19,-6
15:15:56:490496,-1,-6,4,-27,2,-3,0,-1
15:15:56:497974,-1,-6,4,-27,2,-3,0,-1
15:15:56:505388,-2,-4,-4,-4,-8,-15,-29,-3
15:15:56:512903,3,2,5,-3,9,-12,-9,0
15:15:56:521187,3,2,5,-3,9,-12,-9,0
15:15:56:521954,-9,-3,-8,-2,8,6,-16,-2
15:15:56:536117,0,-3,3,-18,-1,-4,-29,-5
15:15:56:536954,0,-3,3,-18,-1,-4,-29,-5
15:15:56:542907,1,1,7,13,0,-7,-5,-4
15:15:56:550393,2,9,-6,-56,3,12,4,0
15:15:56:558011,2,9,-6,-56,3,12,4,0
15:15:56:565437,-1,-4,-2,6,-11,-3,27,-1
15:15:56:572904,0,-2,-1,6,0,-8,0,-1
15:15:56:581128,0,-2,-1,6,0,-8,0,-1
15:15:56:581951,0,4,8,-15,8,-6,5,-1
15:15:56:596637,0,4,-11,-26,-19,-9,3,3
15:15:56:597408,0,4,-11,-26,-19,-9,3,3
15:15:56:602877,-3,-3,-5,-8,-3,5,11,-6
15:15:56:610417,-3,-4,7,15,3,-4,14,4
15:15:56:626205,-3,-4,7,15,3,-4,14,4
15:15:56:626903,-10,3,1,-26,-10,16,-3,4
15:15:56:632912,1,2,3,13,6,5,15,2
15:15:56:641151,1,2,3,13,6,5,15,2
15:15:56:642032,4,-6,-7,-11,-9,-13,-18,-5
15:15:56:656126,-3,1,-2,23,5,-5,-5,-1
15:15:56:656939,-3,1,-2,23,5,-5,-5,-1
15:15:56:662893,2,3,8,-21,-4,6,-14,-5
15:15:56:670385,1,-2,2,-17,11,-3,11,-1
15:15:56:677986,1,-2,2,-17,11,-3,11,-1
15:15:56:685386,1,1,1,-4,-18,-9,-1,-2
15:15:56:692910,-2,0,5,6,10,18,-11,-4
15:15:56:701145,-2,0,5,6,10,18,-11,-4
15:15:56:701911,2,-3,-9,7,-4,2,32,12
15:15:56:716150,-1,-5,-5,13,1,-11,-6,-1
15:15:56:716922,-1,-5,-5,13,1,-11,-6,-1
15:15:56:722904,2,-4,1,7,-6,27,-2,-4
15:15:56:730386,-2,2,-3,-9,-19,-10,-23,-3
15:15:56:738018,-2,2,-3,-9,-19,-10,-23,-3
15:15:56:745426,-1,1,-4,-11,-6,11,-4,-2
15:15:56:752923,2,-7,-7,16,8,9,-3,-5
15:15:56:761111,2,-7,-7,16,8,9,-3,-5
15:15:56:761885,-3,-7,-6,46,9,-4,-13,-8
15:15:56:776144,0,0,3,-28,-8,-1,18,5
15:15:56:776989,0,0,3,-28,-8,-1,18,5
15:15:56:782910,-3,-3,0,-34,-27,-27,-12,-2
15:15:56:790456,-2,2,4,44,-1,16,2,-1
15:15:56:797934,-2,2,4,44,-1,16,2,-1
15:15:56:805455,1,5,3,-2,14,-16,-26,-5
15:15:56:812958,-5,-6,-12,-33,-1,6,-30,-7
15:15:56:821096,-5,-6,-12,-33,-1,6,-30,-7
15:15:56:821911,1,-2,-1,3,-3,35,33,8
15:15:56:836070,-2,-5,-4,5,13,-3,23,3
15:15:56:836914,-2,-5,-4,5,13,-3,23,3
15:15:56:842983,1,-1,-12,-15,11,-11,20,9
15:15:56:850471,1,0,2,1,-14,1,4,1
15:15:56:857983,1,0,2,1,-14,1,4,1
15:15:56:873678,-10,0,4,-4,-2,2,5,-3
15:15:56:874386,1,-3,-6,16,6,-9,1,-4
15:15:56:881100,1,-3,-6,16,6,-9,1,-4
15:15:56:881878,0,-4,4,63,-4,-24,-14,-5
15:15:56:904336,1,6,3,-13,1,15,-11,0
15:15:56:905120,1,6,3,-13,1,15,-11,0
15:15:56:905916,-1,-1,-4,-54,-5,1,32,1
15:15:56:910439,2,0,4,16,-13,-34,10,-1
15:15:56:917969,2,0,4,16,-13,-34,10,-1
15:15:56:925450,0,0,4,9,-2,-1,-5,14
15:15:56:932933,-7,-10,-13,-76,-46,-14,-22,-5
15:15:56:941209,-7,-10,-13,-76,-46,-14,-22,-5
15:15:56:941959,-4,-1,-2,40,26,-19,-35,-15
15:15:56:956176,-4,2,10,76,13,9,0,1
15:15:56:956966,-4,2,10,76,13,9,0,1
15:15:56:962944,0,-2,-8,-12,-36,-13,-13,-6
15:15:56:970421,4,2,-1,-19,23,41,8,5
15:15:56:977998,4,2,-1,-19,23,41,8,5
15:15:56:985401,4,0,2,0,41,14,18,1
15:15:56:992952,-1,-3,4,15,30,-6,3,-4
15:15:57:1074,-1,-3,4,15,30,-6,3,-4
15:15:57:1849,2,1,-4,-16,-3,10,-25,-4
15:15:57:16134,-1,-2,-7,57,-14,-16,-6,0
15:15:57:16983,-1,-2,-7,57,-14,-16,-6,0
15:15:57:22988,0,-2,-5,2,16,21,5,2
15:15:57:38679,3,9,11,25,20,10,30,4
15:15:57:39503,3,9,11,25,20,10,30,4
15:15:57:45455,-5,-1,0,-30,-23,-39,-40,-11
15:15:57:52921,-3,-6,-1,-30,3,5,2,6
15:15:57:68631,-3,-6,-1,-30,3,5,2,6
15:15:57:69411,-6,-3,1,1,-9,-22,-15,-2
15:15:57:76166,-7,2,-6,-27,-17,-8,-38,-9
15:15:57:76934,-7,2,-6,-27,-17,-8,-38,-9
15:15:57:82943,5,-1,-2,-12,-2,6,1,1
15:15:57:98638,2,-2,2,28,0,-6,16,2
15:15:57:99423,2,-2,2,28,0,-6,16,2
15:15:57:105373,-1,-2,-2,-14,-2,2,30,0
15:15:57:112943,-5,-10,-17,-19,10,6,11,-2
15:15:57:120481,-5,-10,-17,-19,10,6,11,-2
15:15:57:127912,-2,3,1,-1,8,15,12,10
15:15:57:136105,0,0,-6,-5,-15,-14,15,2
15:15:57:136997,0,0,-6,-5,-15,-14,15,2
15:15:57:150436,-2,-1,0,-20,-27,-18,8,-4
15:15:57:158654,-5,-9,-12,66,-1,-9,-15,-5
15:15:57:159530,-5,-9,-12,66,-1,-9,-15,-5
15:15:57:165424,-2,0,4,25,19,-10,-7,-6
15:15:57:181120,-1,3,10,-31,-2,-4,-26,6
15:15:57:181950,-1,3,10,-31,-2,-4,-26,6
15:15:57:187962,8,-1,-1,-4,-7,-9,-9,0
15:15:57:196149,-6,-3,0,13,-19,-22,2,-9
15:15:57:196959,-6,-3,0,13,-19,-22,2,-9
15:15:57:202884,-1,4,11,20,22,5,-5,0
15:15:57:218613,2,5,-3,-37,-28,1,16,1
15:15:57:219414,2,5,-3,-37,-28,1,16,1
15:15:57:233601,3,2,-2,-22,-33,21,13,-2
15:15:57:234337,1,3,-2,-38,25,14,5,2
15:15:57:240560,1,3,-2,-38,25,14,5,2
15:15:57:247902,0,-1,-4,-25,-18,-30,3,3
15:15:57:256121,2,4,-1,-8,14,14,2,3
15:15:57:256989,2,4,-1,-8,14,14,2,3
15:15:57:262945,-5,-2,0,35,4,6,-24,-5
15:15:57:278633,0,3,2,6,-3,-10,2,-11
15:15:57:279419,0,3,2,6,-3,-10,2,-11
15:15:57:285365,-2,-8,0,-9,31,4,7,-3
15:15:57:292911,-8,1,4,-28,-22,-14,-11,-6
15:15:57:308672,-8,1,4,-28,-22,-14,-11,-6
15:15:57:309425,-3,-4,-1,44,23,17,6,4
15:15:57:316129,3,3,6,2,-9,9,-4,-2
15:15:57:316956,3,3,6,2,-9,9,-4,-2
15:15:57:322904,-4,-4,1,-15,-14,-14,-13,-4
15:15:57:339134,2,5,-1,-5,14,13,47,7
15:15:57:339909,2,5,-1,-5,14,13,47,7
15:15:57:345405,3,-3,-6,-12,-31,-12,44,12
15:15:57:352887,-1,-5,-1,-14,-7,3,-27,-5
15:15:57:368618,-1,-5,-1,-14,-7,3,-27,-5
15:15:57:369420,4,7,8,48,15,16,5,-2
15:15:57:376096,-6,-7,-8,20,-10,-12,0,-1
15:15:57:376963,-6,-7,-8,20,-10,-12,0,-1
15:15:57:382876,-7,-4,-4,13,20,8,-29,-3
15:15:57:399076,5,-3,1,34,14,12,0,-1
15:15:57:399929,5,-3,1,34,14,12,0,-1
15:15:57:405431,-1,3,6,-24,-5,7,13,-5
15:15:57:412903,6,-1,2,0,23,13,28,6
15:15:57:420557,6,-1,2,0,23,13,28,6
15:15:57:427929,-2,0,-7,-18,-4,-16,-2,-7
15:15:57:436110,2,-2,-1,-13,-7,0,25,3
15:15:57:436944,2,-2,-1,-13,-7,0,25,3
15:15:57:442897,-4,-3,-6,-25,-8,2,-17,-11
15:15:57:458731,-2,-5,-8,-8,-10,6,-27,-4
15:15:57:459438,-2,-5,-8,-8,-10,6,-27,-4
15:15:57:465419,0,-5,2,53,23,14,24,6
15:15:57:472931,-4,0,-2,-22,1,-14,-26,-5
15:15:57:480484,-4,0,-2,-22,1,-14,-26,-5
15:15:57:496777,1,1,-1,-22,-4,-3,-25,-5
15:15:57:497622,-3,-5,-4,1,20,-4,17,16
15:15:57:498432,-3,-5,-4,1,20,-4,17,16
15:15:57:510464,-1,-2,-4,-6,-8,-3,-2,7
15:15:57:526773,-2,2,4,-33,-19,-13,-30,-11
15:15:57:527641,-2,2,4,-33,-19,-13,-30,-11
15:15:57:528384,-3,-1,-3,-3,12,-2,17,12
15:15:57:541182,0,-5,-3,-22,-25,-12,-7,-1
15:15:57:541957,0,-5,-3,-22,-25,-12,-7,-1
15:15:57:547950,0,2,3,-14,-12,-10,-43,-12
15:15:57:556103,1,-4,4,20,24,8,44,12
15:15:57:556934,1,-4,4,20,24,8,44,12
15:15:57:562924,0,-4,-5,3,-17,-21,13,-3
15:15:57:578627,2,3,-20,-7,4,29,-32,-7
15:15:57:579426,2,3,-20,-7,4,29,-32,-7
15:15:57:585403,0,-5,-5,-13,16,40,18,4
15:15:57:592925,-5,1,1,86,29,10,-21,18
15:15:57:608708,-5,1,1,86,29,10,-21,18
15:15:57:609437,-2,-2,-2,-76,-42,-10,5,-14
15:15:57:616095,0,4,2,-7,4,-16,-3,-10
15:15:57:616901,0,4,2,-7,4,-16,-3,-10
15:15:57:622936,-1,1,-1,18,7,4,0,2
15:15:57:639042,-2,1,6,35,-12,-8,12,-7
15:15:57:639895,-2,1,6,35,-12,-8,12,-7
15:15:57:645454,-4,-2,-3,-4,7,-22,3,-3
15:15:57:652882,-1,0,-3,37,14,26,5,6
15:15:57:668617,-1,0,-3,37,14,26,5,6
15:15:57:669417,-1,-1,-15,27,-3,-42,-41,-10
15:15:57:676141,-3,0,5,1,-20,-20,38,0
15:15:57:676938,-3,0,5,1,-20,-20,38,0
15:15:57:682938,-3,-1,-5,-16,-35,-28,-16,7
15:15:57:698639,1,4,-4,-10,-30,3,5,-7
15:15:57:699464,1,4,-4,-10,-30,3,5,-7
15:15:57:705381,2,-3,-5,-65,27,29,3,0
15:15:57:712924,1,0,-1,-43,-3,-1,-54,-15
15:15:57:728627,1,0,-1,-43,-3,-1,-54,-15
15:15:57:729411,1,1,17,-12,-6,54,-63,-1
15:15:57:736155,1,1,17,-12,-6,54,-63,-1
15:15:57:736969,4,0,-6,-43,-8,-21,1,0
15:15:57:742942,-1,2,6,40,18,5,1,-6
15:15:57:758687,-1,2,6,40,18,5,1,-6
15:15:57:759467,-3,-7,-4,-54,-14,-30,-33,-13
15:15:57:765376,0,-4,-2,-11,-42,-36,-10,-5
15:15:57:789287,0,-4,-2,-11,-42,-36,-10,-5
15:15:57:790109,-7,-10,-15,-22,-9,-12,-7,-7
15:15:57:790942,1,1,-1,89,15,6,86,10
15:15:57:796115,1,1,-1,89,15,6,86,10
15:15:57:796940,0,-1,7,35,38,44,-11,-6
15:15:57:802929,-6,-5,-11,-38,-22,-27,92,-4
15:15:57:819059,-6,-5,-11,-38,-22,-27,92,-4
15:15:57:819866,0,1,3,32,17,5,81,17
15:15:57:825416,2,0,-1,-7,-3,39,43,4
15:15:57:841177,2,0,-1,-7,-3,39,43,4
15:15:57:841950,-4,2,0,-66,-7,-21,-12,1
15:15:57:856761,-8,-15,-5,3,7,-19,-54,-10
15:15:57:857620,-8,-15,-5,3,7,-19,-54,-10
15:15:57:858385,-1,0,16,5,-44,2,-20,-14
15:15:57:862924,-3,6,11,118,54,31,-44,1
15:15:57:886878,-3,6,11,118,54,31,-44,1
15:15:57:887623,1,6,10,6,36,30,49,0
15:15:57:888396,1,-1,-19,-30,7,27,-58,2
15:15:57:901110,1,-1,-19,-30,7,27,-58,2
15:15:57:901954,-8,-15,-6,36,-15,-30,-51,-10
15:15:57:916829,1,7,1,-29,-11,2,13,21
15:15:57:917657,1,7,1,-29,-11,2,13,21
15:15:57:918406,4,-9,-15,-4,-28,8,-42,-1
15:15:57:930492,-7,-1,16,-4,12,51,83,28
15:15:57:938699,-7,-1,16,-4,12,51,83,28
15:15:57:939451,-3,9,12,58,39,12,22,21
15:15:57:945470,1,-8,-22,-21,-42,-53,-86,-15
15:15:57:961148,1,-8,-22,-21,-42,-53,-86,-15
15:15:57:961915,-3,0,-10,-85,38,12,7,5
15:15:57:967945,4,10,13,-25,-26,-34,3,-10
15:15:57:976112,4,10,13,-25,-26,-34,3,-10
15:15:57:976966,2,5,1,-2,-57,-36,-44,-16
15:15:57:982943,0,-12,-19,-90,-5,-5,67,31
15:15:57:998651,0,-12,-19,-90,-5,-5,67,31
15:15:57:999413,-6,-16,-17,63,13,6,-6,-9
15:15:58:5455,-13,-5,30,60,33,16,-14,-12
15:15:58:21183,-13,-5,30,60,33,16,-14,-12
15:15:58:21942,5,13,-2,-26,-48,-38,-6,0
15:15:58:27934,7,4,-16,-13,8,5,-29,-11
15:15:58:36100,7,4,-16,-13,8,5,-29,-11
15:15:58:36899,-3,-2,15,-20,-27,-6,29,-4
15:15:58:42946,22,0,-1,50,44,-8,-18,-15
15:15:58:59111,22,0,-1,50,44,-8,-18,-15
15:15:58:73373,5,4,14,11,7,4,18,10
15:15:58:81785,-9,-4,-2,-3,-39,-18,15,-5
15:15:58:82618,-9,-4,-2,-3,-39,-18,15,-5
15:15:58:83414,8,-3,13,-33,7,28,-26,-2
15:15:58:87940,-10,-10,13,23,-5,2,-22,-13
15:15:58:96530,-10,-10,13,23,-5,2,-22,-13
15:15:58:102938,-3,-2,-5,-3,-33,-3,8,2
15:15:58:110445,13,17,7,-2,30,32,39,16
15:15:58:118619,13,17,7,-2,30,32,39,16
15:15:58:119419,-12,-20,-58,-7,8,-20,-2,-14
15:15:58:125362,-8,-1,-20,-9,12,-10,18,-13
15:15:58:141119,-8,-1,-20,-9,12,-10,18,-13
15:15:58:141962,1,7,9,16,13,2,-9,-1
15:15:58:147970,-31,-2,20,-34,-22,-36,-31,9
15:15:58:156108,-31,-2,20,-34,-22,-36,-31,9
15:15:58:156909,0,5,12,-12,34,13,65,19
15:15:58:170471,3,-11,28,32,-21,-36,-25,-8
15:15:58:178653,3,-11,28,32,-21,-36,-25,-8
15:15:58:179418,-16,-29,-1,-38,-10,-10,-37,-8
15:15:58:185402,9,11,-11,-7,-10,-4,-28,-3
15:15:58:201071,9,11,-11,-7,-10,-4,-28,-3
15:15:58:201890,3,2,-19,-6,-5,-2,-3,-10
15:15:58:207962,3,-4,-11,5,3,21,59,8
15:15:58:216116,3,-4,-11,5,3,21,59,8
15:15:58:216885,4,1,16,4,12,5,-62,-18
15:15:58:230400,11,2,-3,4,11,28,-34,-1
15:15:58:238648,11,2,-3,4,11,28,-34,-1
15:15:58:239598,0,9,34,75,40,8,29,15
15:15:58:245459,-5,-8,-43,-21,7,1,-6,-7
15:15:58:261147,-5,-8,-43,-21,7,1,-6,-7
15:15:58:261955,1,9,-23,9,-19,-27,-28,-4
15:15:58:267884,17,-2,-18,-5,-11,14,3,-1
15:15:58:276129,17,-2,-18,-5,-11,14,3,-1
15:15:58:276899,-9,4,-1,-24,-31,-20,-24,-7
15:15:58:290449,-1,9,13,-39,-27,-13,36,14
15:15:58:298618,-1,9,13,-39,-27,-13,36,14
15:15:58:299430,4,1,9,32,-1,7,0,4
15:15:58:305397,-10,-10,20,0,-19,-6,-42,-17
15:15:58:321158,-10,-10,20,0,-19,-6,-42,-17
15:15:58:321955,-6,-6,3,38,-6,10,30,4
15:15:58:327931,-5,2,-11,-10,17,-9,-25,-10
15:15:58:336129,-5,2,-11,-10,17,-9,-25,-10
15:15:58:336939,4,-1,23,-66,-18,-16,11,4
15:15:58:350449,-1,5,27,7,15,8,-29,4
15:15:58:358665,-1,5,27,7,15,8,-29,4
15:15:58:359501,10,-6,-15,-2,31,10,-12,8
15:15:58:365404,5,-4,-17,6,-7,-24,1,-5
15:15:58:381202,5,-4,-17,6,-7,-24,1,-5
15:15:58:381917,-1,1,-10,-6,25,-15,-27,-9
15:15:58:387959,-8,-25,12,88,26,7,0,-21
15:15:58:396170,-8,-25,12,88,26,7,0,-21
15:15:58:396936,3,-2,2,0,-46,-9,19,-1
15:15:58:410407,3,13,-3,6,15,65,42,28
15:15:58:418652,3,13,-3,6,15,65,42,28
15:15:58:419411,-15,-5,-12,-17,-31,-44,27,-8
15:15:58:425400,-13,3,-12,-17,-10,-28,-35,-28
15:15:58:441163,-13,3,-12,-17,-10,-28,-35,-28
15:15:58:441937,13,6,-7,7,-11,17,24,21
15:15:58:447912,0,4,17,11,5,-11,6,4
15:15:58:456111,0,4,17,11,5,-11,6,4
15:15:58:456929,-7,-5,-32,7,-7,-1,-23,-12
15:15:58:470376,-3,2,-3,-10,20,21,-3,2
15:15:58:478638,-3,2,-3,-10,20,21,-3,2
15:15:58:479454,1,1,8,-32,11,-6,11,21
15:15:58:485381,17,5,-4,-63,-26,11,-45,-1
15:15:58:492996,17,5,-4,-63,-26,11,-45,-1
15:15:58:500414,-11,-8,7,-2,-19,-15,-23,-15
15:15:58:516821,4,-1,-13,-1,50,-34,-1,-3
15:15:58:517657,4,-1,-13,-1,50,-34,-1,-3
15:15:58:518414,-3,3,4,26,30,10,10,-2
15:15:58:530460,-11,-4,15,-44,-11,-3,6,-5
15:15:58:538649,-11,-4,15,-44,-11,-3,6,-5
15:15:58:539444,-2,-1,10,-31,7,21,17,-6
15:15:58:545380,0,-1,-7,31,-2,-22,33,6
15:15:58:552997,0,-1,-7,31,-2,-22,33,6
15:15:58:560447,13,1,8,-2,18,32,26,11
15:15:58:567919,-21,-15,-35,-2,-25,2,-10,-18
15:15:58:576158,-21,-15,-35,-2,-25,2,-10,-18
15:15:58:576970,-6,0,-13,-23,-25,-25,-17,-19
15:15:58:590448,10,5,1,-18,-28,3,64,29
15:15:58:598660,10,5,1,-18,-28,3,64,29
15:15:58:599460,-5,-6,-17,51,36,27,-2,-2
15:15:58:605442,-8,-2,-8,-25,-51,-22,-2,-12
15:15:58:613001,-8,-2,-8,-25,-51,-22,-2,-12
15:15:58:620383,-2,-1,7,-33,8,17,16,-3
15:15:58:627988,2,-2,17,24,23,19,-34,12
15:15:58:636153,2,-2,17,24,23,19,-34,12
15:15:58:636939,7,-8,-41,16,-16,-7,-6,4
15:15:58:650457,8,-4,-24,-6,-9,3,7,2
15:15:58:658645,8,-4,-24,-6,-9,3,7,2
15:15:58:659420,-9,5,-6,-28,-28,-27,15,-3
15:15:58:665388,-4,-1,6,38,14,26,15,-3
15:15:58:673019,-4,-1,6,38,14,26,15,-3
15:15:58:680425,-4,-2,2,-4,-52,12,46,4
15:15:58:687949,-6,1,5,-8,15,-1,-23,-2
15:15:58:696165,-6,1,5,-8,15,-1,-23,-2
15:15:58:696898,3,7,40,10,6,2,20,18
15:15:58:710469,1,6,27,-23,-13,-5,-3,4
15:15:58:718629,1,6,27,-23,-13,-5,-3,4
15:15:58:719387,3,-12,-22,5,9,-1,-21,-6
15:15:58:725466,-12,-4,20,12,-16,-12,18,-8
15:15:58:732970,-12,-4,20,12,-16,-12,18,-8
15:15:58:740510,16,12,30,-6,-15,12,34,3
15:15:58:747918,-4,-9,-20,1,26,-12,-34,-8
15:15:58:756150,-4,-9,-20,1,26,-12,-34,-8
15:15:58:756932,5,0,4,-5,-4,-10,9,9
15:15:58:770451,10,18,2,8,-9,-13,-3,10
15:15:58:778637,10,18,2,8,-9,-13,-3,10
15:15:58:779403,-11,-5,-12,6,14,-7,-36,-13
15:15:58:793680,3,2,-10,-11,-2,-8,-7,-5
15:15:58:794413,3,2,-10,-11,-2,-8,-7,-5
15:15:58:800450,-6,-9,-32,-8,11,-12,-41,-13
15:15:58:808008,5,2,-10,24,62,43,10,1
15:15:58:816106,5,2,-10,24,62,43,10,1
15:15:58:816912,9,-4,17,-6,55,-14,-10,1
15:15:58:830416,-3,-2,11,0,-13,-18,-6,-5
15:15:58:838707,-3,-2,11,0,-13,-18,-6,-5
15:15:58:839420,-12,-7,-6,18,-22,-16,-32,-14
15:15:58:845458,0,-3,-12,24,-13,-8,-46,-4
15:15:58:852949,0,-3,-12,24,-13,-8,-46,-4
15:15:58:860491,2,8,7,-42,-9,2,-8,1
15:15:58:867964,-2,-2,-2,12,29,18,9,-4
15:15:58:876162,-2,-2,-2,12,29,18,9,-4
15:15:58:876900,-10,8,25,-10,18,18,8,0
15:15:58:890488,-6,-10,-8,43,34,-16,-10,-13
15:15:58:898647,-6,-10,-8,43,34,-16,-10,-13
15:15:58:899379,19,5,2,36,21,87,72,40
15:15:58:905417,20,2,28,-10,-31,-4,-21,3
15:15:58:912978,20,2,28,-10,-31,-4,-21,3
15:15:58:928660,-5,-2,34,-9,62,13,-8,-13
15:15:58:929390,-8,-5,-23,-39,-59,-29,12,-7
15:15:58:936109,-8,-5,-23,-39,-59,-29,12,-7
15:15:58:936906,0,-8,-27,-8,-15,-5,-19,-1
15:15:58:950425,-8,-2,15,-33,-14,-2,-10,-3
15:15:58:958687,-8,-2,15,-33,-14,-2,-10,-3
15:15:58:959436,-8,5,7,7,-12,-22,-14,-10
15:15:58:965439,-1,0,-37,-12,-32,-33,55,13
15:15:58:972963,-1,0,-37,-12,-32,-33,55,13
15:15:58:980423,-4,7,10,-13,30,28,32,2
15:15:58:987911,-4,-10,4,-9,16,39,1,-7
15:15:58:996120,-4,-10,4,-9,16,39,1,-7
15:15:58:996918,14,4,-8,-19,-11,-29,-53,-4
15:15:59:10506,4,3,21,-47,-24,-25,-28,-27
15:15:59:18632,4,3,21,-47,-24,-25,-28,-27
15:15:59:19410,3,-7,-8,-8,-14,10,-26,-5
15:15:59:33699,5,2,-8,7,21,14,-9,3
15:15:59:34438,5,2,-8,7,21,14,-9,3
15:15:59:40492,-6,0,-9,7,5,15,42,4
15:15:59:47964,-7,-3,4,0,-20,6,6,-3
15:15:59:55467,-7,-3,4,0,-20,6,6,-3
15:15:59:71119,-15,5,36,17,-22,-13,-34,-13
15:15:59:71882,0,-2,-5,2,5,12,5,13
15:15:59:78683,0,-2,-5,2,5,12,5,13
15:15:59:79441,-3,-4,3,1,4,-20,14,5
15:15:59:93635,1,8,8,46,24,-28,-33,3
15:15:59:94382,1,8,8,46,24,-28,-33,3
15:15:59:108662,-4,-3,-22,-4,11,-44,-77,-34
15:15:59:109365,1,0,-25,-27,-10,2,17,-1
15:15:59:115459,1,0,-25,-27,-10,2,17,-1
15:15:59:122936,-10,-6,-16,-25,-28,-20,-20,-11
15:15:59:130426,2,-1,-36,-29,4,19,35,13
15:15:59:138667,2,-1,-36,-29,4,19,35,13
15:15:59:139453,2,-6,-15,14,-20,-16,-8,2
15:15:59:153614,-10,7,15,47,12,18,6,2
15:15:59:154497,-10,7,15,47,12,18,6,2
15:15:59:160397,2,8,5,5,-9,-11,10,5
15:15:59:167906,-10,-6,1,10,-8,-24,-83,-19
15:15:59:175529,-10,-6,1,10,-8,-24,-83,-19
15:15:59:182926,-2,4,8,11,-6,4,-24,-26
15:15:59:190477,-4,0,18,16,45,2,-6,-16
15:15:59:198633,-4,0,18,16,45,2,-6,-16
15:15:59:199381,3,-8,-36,3,2,6,10,1
15:15:59:213548,-9,-4,-1,-5,-51,-15,17,3
15:15:59:214397,-9,-4,-1,-5,-51,-15,17,3
15:15:59:220462,0,-10,-11,51,44,31,20,10
15:15:59:227920,9,-2,6,50,18,36,18,6
15:15:59:235420,9,-2,6,50,18,36,18,6
15:15:59:242953,-3,-2,1,-2,-18,-8,35,12
15:15:59:250427,-6,5,7,1,-9,-23,100,16
15:15:59:258706,-6,5,7,1,-9,-23,100,16
15:15:59:259386,-1,-4,-4,-6,-3,-10,-7,20
15:15:59:273694,0,3,-48,-2,-19,-25,-27,-27
15:15:59:274404,0,3,-48,-2,-19,-25,-27,-27
15:15:59:280387,-14,5,12,-12,51,-4,14,-10
15:15:59:287907,2,-4,-15,5,32,10,-1,11
15:15:59:295492,2,-4,-15,5,32,10,-1,11
15:15:59:302944,9,3,20,14,-27,-14,-21,0
15:15:59:319240,-3,-6,16,-15,29,9,-20,6
15:15:59:320106,-3,-6,16,-15,29,9,-20,6
15:15:59:320915,6,-2,8,-29,-29,3,31,9
15:15:59:333650,-1,-1,9,-37,-44,-11,-9,9
15:15:59:334360,-1,-1,9,-37,-44,-11,-9,9
15:15:59:340509,-3,2,-20,-15,6,9,-5,0
15:15:59:347957,-9,-1,32,-7,-6,0,2,-8
15:15:59:355455,-9,-1,32,-7,-6,0,2,-8
15:15:59:362894,0,-4,8,-7,-31,-19,-12,2
15:15:59:370458,0,-6,-9,-30,4,16,20,-7
15:15:59:378657,0,-6,-9,-30,4,16,20,-7
15:15:59:379435,6,4,-9,1,30,14,50,11
15:15:59:393643,12,-2,-6,-2,-20,1,46,20
15:15:59:394411,12,-2,-6,-2,-20,1,46,20
15:15:59:400389,2,-4,-8,-14,-26,-13,-3,1
15:15:59:407947,3,6,26,-18,-8,-3,-28,-1
15:15:59:415462,3,6,26,-18,-8,-3,-28,-1
15:15:59:422891,-1,-15,-38,50,-15,1,13,3
15:15:59:430361,1,2,21,39,-7,7,8,-7
15:15:59:438623,1,2,21,39,-7,7,8,-7
15:15:59:439400,1,5,21,-33,-15,44,-60,-21
15:15:59:453636,13,-7,-20,-6,-31,19,48,41
15:15:59:454438,13,-7,-20,-6,-31,19,48,41
15:15:59:460383,-3,16,21,-15,7,-10,33,7
15:15:59:467879,0,11,-7,-8,-16,-8,-12,-18
15:15:59:475520,0,11,-7,-8,-16,-8,-12,-18
15:15:59:482941,-4,-11,-3,-60,-30,-21,-11,-12
15:15:59:490484,-2,-3,-4,-5,10,-3,-20,-1
15:15:59:498632,-2,-3,-4,-5,10,-3,-20,-1
15:15:59:499462,-2,-3,-8,33,35,6,-6,-4
15:15:59:513662,4,-3,-11,-14,17,-8,-15,-15
15:15:59:514468,4,-3,-11,-14,17,-8,-15,-15
15:15:59:520424,-2,1,22,-13,7,6,2,13
15:15:59:528577,4,-4,-29,1,0,-4,0,-10
15:15:59:535446,4,-4,-29,1,0,-4,0,-10
15:15:59:542943,-22,-4,4,-36,-37,-30,-17,-16
15:15:59:550428,-7,3,16,-19,18,30,30,3
15:15:59:558699,-7,3,16,-19,18,30,30,3
15:15:59:559458,1,-7,3,27,5,27,5,-6
15:15:59:573715,-16,-1,25,-12,20,8,-21,-9
15:15:59:574434,-16,-1,25,-12,20,8,-21,-9
15:15:59:580413,0,0,22,5,-18,-15,-16,3
15:15:59:587955,2,-9,-41,4,21,30,-4,8
15:15:59:595430,2,-9,-41,4,21,30,-4,8
15:15:59:603007,-5,2,5,-13,-5,-13,4,0
15:15:59:610470,-4,-7,-5,16,31,5,36,13
15:15:59:618652,-4,-7,-5,16,31,5,36,13
15:15:59:619425,5,6,-45,20,31,3,-17,18
15:15:59:633683,-6,-1,7,0,-32,-39,-25,4
15:15:59:634377,-6,-1,7,0,-32,-39,-25,4
15:15:59:640446,4,-10,-23,11,-27,-17,-1,-8
15:15:59:647960,1,-6,2,0,13,-3,-17,-2
15:15:59:655422,1,-6,2,0,13,-3,-17,-2
15:15:59:662886,7,8,-14,50,10,9,4,8
15:15:59:670462,-24,-2,6,27,-15,-1,-20,-15
15:15:59:678650,-24,-2,6,27,-15,-1,-20,-15
15:15:59:679463,0,-6,0,12,5,23,-7,-4
15:15:59:693648,33,6,11,-12,-43,-38,-19,2
15:15:59:694446,33,6,11,-12,-43,-38,-19,2
15:15:59:700427,-5,-8,-2,10,7,7,-8,-4
15:15:59:707892,-3,-1,3,-15,2,-13,-24,-7
15:15:59:715474,-3,-1,3,-15,2,-13,-24,-7
15:15:59:722888,17,0,3,-61,16,-12,20,-3
15:15:59:730372,-9,-6,18,1,-42,-41,9,-15
15:15:59:738698,-9,-6,18,1,-42,-41,9,-15
15:15:59:739424,-20,0,10,9,-24,-15,11,0
15:15:59:761803,-7,7,-30,-46,13,15,-15,9
15:15:59:762669,-7,7,-30,-46,13,15,-15,9
15:15:59:763307,5,-2,15,6,-2,4,-28,1
15:15:59:767921,-7,-5,12,-3,6,9,-18,-3
15:15:59:775490,-7,-5,12,-3,6,9,-18,-3
15:15:59:782927,3,2,-16,5,12,-3,36,26
15:15:59:790389,15,-1,-35,8,30,9,8,-14
15:15:59:798622,15,-1,-35,8,30,9,8,-14
15:15:59:799411,-8,-5,-6,10,3,0,-9,-13
15:15:59:813623,-18,0,-15,-19,-13,10,11,-6
15:15:59:814408,-18,0,-15,-19,-13,10,11,-6
15:15:59:820426,-16,1,-12,-30,-22,-10,-49,-18
15:15:59:827907,9,7,4,2,-8,17,-5,11
15:15:59:835435,9,7,4,2,-8,17,-5,11
15:15:59:842878,-1,2,20,15,14,21,13,-2
15:15:59:850405,-9,-3,6,4,-10,5,57,3
15:15:59:858684,-9,-3,6,4,-10,5,57,3
15:15:59:859428,0,8,2,7,-32,-18,8,22
15:15:59:873656,5,4,18,30,15,5,-9,4
15:15:59:874434,5,4,18,30,15,5,-9,4
15:15:59:880398,4,-2,1,26,-27,-5,4,-14
15:15:59:887916,7,-1,-2,-1,50,3,-17,-7
15:15:59:895471,7,-1,-2,-1,50,3,-17,-7
15:15:59:902928,-7,4,0,-25,0,-6,7,-2
15:15:59:910470,-1,-8,17,0,-4,-7,-15,-6
15:15:59:918634,-1,-8,17,0,-4,-7,-15,-6
15:15:59:919450,8,-12,-17,-24,27,12,21,2
15:15:59:934317,-3,13,-36,8,17,-29,-17,-15
15:15:59:935097,-3,13,-36,8,17,-29,-17,-15
15:15:59:940471,6,-1,22,-16,12,4,-1,-3
15:15:59:947953,-12,-16,-14,-9,-9,-15,-17,2
15:15:59:955489,-12,-16,-14,-9,-9,-15,-17,2
15:15:59:962928,1,-6,10,14,2,6,6,-9
15:15:59:970438,8,4,2,8,7,63,89,43
15:15:59:977976,8,4,2,8,7,63,89,43
15:15:59:985433,1,-23,-95,12,1,7,2,-4
15:15:59:993668,-12,1,3,-11,-26,-20,-36,-15
15:15:59:994449,-12,1,3,-11,-26,-20,-36,-15
15:16:00:377,1,2,-17,-19,13,10,-16,-3
15:16:00:16130,8,-13,-26,-28,13,20,-2,6
15:16:00:16948,8,-13,-26,-28,13,20,-2,6
15:16:00:22953,7,-1,-4,-31,-29,-20,-17,16
15:16:00:30459,-3,3,32,-4,-32,-23,-27,-7
15:16:00:38003,-3,3,32,-4,-32,-23,-27,-7
15:16:00:45425,-33,-11,45,8,-2,-6,1,3
15:16:00:53675,-6,-1,9,37,-10,-12,-12,-8
15:16:00:54413,-6,-1,9,37,-10,-12,-12,-8
15:16:00:60389,5,13,3,3,9,7,23,-6
15:16:00:76150,9,24,25,-50,-22,-3,3,5
15:16:00:76947,9,24,25,-50,-22,-3,3,5
15:16:00:82903,-3,-3,-18,-9,-43,-30,-32,-16
15:16:00:90419,2,-10,-28,12,3,9,-1,11
15:16:00:98030,2,-10,-28,12,3,9,-1,11
15:16:00:105449,3,1,-27,-2,21,18,-9,-14
15:16:00:113677,-21,-13,-32,-7,-5,14,18,-1
15:16:00:114453,-21,-13,-32,-7,-5,14,18,-1
15:16:00:120444,4,9,34,5,-6,-12,2,0
15:16:00:136150,-3,3,3,-19,19,-1,-18,-10
15:16:00:136953,-3,3,3,-19,19,-1,-18,-10
15:16:00:142934,0,-9,3,-14,19,15,2,-1
15:16:00:150412,3,14,-9,42,-29,-19,-2,-2
15:16:00:157999,3,14,-9,42,-29,-19,-2,-2
15:16:00:165404,3,-3,-32,-4,-17,-16,-33,-13
15:16:00:173605,0,-11,-2,-6,-8,8,45,7
15:16:00:174400,0,-11,-2,-6,-8,8,45,7
15:16:00:180410,-27,-5,35,33,22,19,4,-4
15:16:00:196140,0,-16,14,7,9,-7,-25,-18
15:16:00:196954,0,-16,14,7,9,-7,-25,-18
15:16:00:202914,17,41,-19,-20,10,3,7,-24
15:16:00:210414,6,-8,-58,-6,12,-7,-20,-4
15:16:00:217985,6,-8,-58,-6,12,-7,-20,-4
15:16:00:225425,1,-11,15,16,12,5,5,7
15:16:00:233582,-1,9,46,15,5,-10,-17,-5
15:16:00:234400,-1,9,46,15,5,-10,-17,-5
15:16:00:240460,0,-1,-10,24,60,15,96,34
15:16:00:256098,0,-17,-11,-3,12,-7,41,53
15:16:00:256895,0,-17,-11,-3,12,-7,41,53
15:16:00:262941,-9,-8,23,-23,-41,-12,-23,-10
15:16:00:270444,-2,23,1,3,-7,-19,-46,-38
15:16:00:277942,-2,23,1,3,-7,-19,-46,-38
15:16:00:285436,16,-1,13,-35,-28,0,61,52
15:16:00:293630,-3,6,17,-2,-4,10,-11,-5
15:16:00:294425,-3,6,17,-2,-4,10,-11,-5
15:16:00:300406,7,12,47,28,26,16,-38,-13
15:16:00:316069,1,-16,16,-43,-30,-17,-13,-13
15:16:00:316932,1,-16,16,-43,-30,-17,-13,-13
15:16:00:322967,5,-8,18,1,-2,18,23,-4
15:16:00:330435,-2,-13,-21,16,5,13,0,12
15:16:00:337940,-2,-13,-21,16,5,13,0,12
15:16:00:345408,3,29,30,-9,28,-12,-41,-8
15:16:00:353662,-4,-8,0,72,52,7,10,-4
15:16:00:354465,-4,-8,0,72,52,7,10,-4
15:16:00:360440,-1,-9,-7,8,-23,-17,-16,-8
15:16:00:376138,1,15,14,-35,-4,0,-8,-5
15:16:00:376943,1,15,14,-35,-4,0,-8,-5
15:16:00:382884,-4,-12,-20,19,31,0,-105,-38
15:16:00:390401,18,-5,-2,3,-45,-14,32,13
15:16:00:397993,18,-5,-2,3,-45,-14,32,13
15:16:00:405417,-18,-28,-44,-12,-19,8,-2,-6
15:16:00:413666,6,6,32,11,18,12,-9,-4
15:16:00:414457,6,6,32,11,18,12,-9,-4
15:16:00:420410,-7,3,25,-46,-36,-28,-11,-16
15:16:00:436109,-5,10,7,-37,-2,-4,15,2
15:16:00:436952,-5,10,7,-37,-2,-4,15,2
15:16:00:442890,8,-10,0,7,12,0,0,8
15:16:00:450385,-4,8,32,-12,0,-5,-4,0
15:16:00:458013,-4,8,32,-12,0,-5,-4,0
15:16:00:465402,2,-4,-34,1,-10,4,15,18
15:16:00:473594,-8,-24,-21,3,4,-11,0,-13
15:16:00:474387,-8,-24,-21,3,4,-11,0,-13
15:16:00:480424,8,25,66,15,-1,-10,24,0
15:16:00:496143,-6,5,-16,-24,-2,11,12,2
15:16:00:496938,-6,5,-16,-24,-2,11,12,2
15:16:00:502899,-6,-4,9,-4,-17,-13,4,0
15:16:00:510433,3,5,-20,37,5,13,13,8
15:16:00:517985,3,5,-20,37,5,13,13,8
15:16:00:525428,-2,1,-20,-18,7,-23,-19,-3
15:16:00:533603,4,-21,-44,11,40,7,-60,-26
15:16:00:534398,4,-21,-44,11,40,7,-60,-26
15:16:00:540496,3,3,-9,15,-1,-2,4,4
15:16:00:556119,22,14,64,-3,17,9,12,13
15:16:00:556912,22,14,64,-3,17,9,12,13
15:16:00:562913,-9,-25,-14,-16,-6,7,-2,-1
15:16:00:570418,-13,4,9,-11,-24,-30,-27,-15
15:16:00:577947,-13,4,9,-11,-24,-30,-27,-15
15:16:00:585462,5,3,-15,0,27,24,48,25
15:16:00:593696,-36,-19,6,9,8,5,-4,11
15:16:00:594426,-36,-19,6,9,8,5,-4,11
15:16:00:600414,-8,-8,-29,-30,-38,-10,-28,-15
15:16:00:616109,7,24,30,-6,-8,-9,-12,-6
15:16:00:616937,7,24,30,-6,-8,-9,-12,-6
15:16:00:622883,-6,-4,5,-9,-31,-4,7,-2
15:16:00:630371,2,-12,-66,-14,17,22,-3,-5
15:16:00:638016,2,-12,-66,-14,17,22,-3,-5
15:16:00:645399,4,-12,-82,-27,-8,-9,2,-4
15:16:00:653673,3,6,-21,0,-27,-23,-3,-4
15:16:00:654441,3,6,-21,0,-27,-23,-3,-4
15:16:00:660427,3,19,26,4,30,17,-8,-4
15:16:00:676153,4,-6,-13,-12,-36,-26,16,8
15:16:00:676930,4,-6,-13,-12,-36,-26,16,8
15:16:00:682938,0,9,-17,11,-6,9,-2,-4
15:16:00:690407,-1,-14,-46,33,13,12,10,1
15:16:00:697987,-1,-14,-46,33,13,12,10,1
15:16:00:705430,-13,-27,-56,-11,9,1,-16,1
15:16:00:713631,-3,-23,24,-19,-15,-9,8,3
15:16:00:714443,-3,-23,24,-19,-15,-9,8,3
15:16:00:720432,-2,-4,21,45,5,3,-60,-13
15:16:00:736120,-15,-4,-8,-16,-3,-9,-31,-9
15:16:00:736978,-15,-4,-8,-16,-3,-9,-31,-9
15:16:00:751061,12,11,33,-2,-22,-9,13,2
15:16:00:751852,3,15,43,18,8,12,3,-4
15:16:00:757993,3,15,43,18,8,12,3,-4
15:16:00:765422,0,8,35,3,-6,-9,5,1
15:16:00:774354,2,12,53,-19,-18,1,-13,-5
15:16:00:781174,2,12,53,-19,-18,1,-13,-5
15:16:00:781961,-20,17,-13,13,19,14,36,9
15:16:00:796116,-4,2,14,-41,-22,-16,-31,-4
15:16:00:796942,-4,2,14,-41,-22,-16,-31,-4
15:16:00:802902,-4,-4,3,4,0,-5,28,4
15:16:00:810437,-3,0,-39,-8,20,-6,-6,-2
15:16:00:817989,-3,0,-39,-8,20,-6,-6,-2
15:16:00:825445,4,3,34,-5,21,-3,-14,-3
15:16:00:833691,3,-4,-19,10,-23,3,64,8
15:16:00:834471,3,-4,-19,10,-23,3,64,8
15:16:00:840428,6,15,68,98,32,13,5,-3
15:16:00:864284,-3,-2,15,27,29,24,3,-2
15:16:00:865141,-3,-2,15,27,29,24,3,-2
15:16:00:865926,-2,-5,22,-35,-33,-8,-12,-3
15:16:00:870404,4,10,-7,9,22,30,27,2
15:16:00:877986,4,10,-7,9,22,30,27,2
15:16:00:885408,6,-1,-9,-26,-17,-4,-7,3
15:16:00:893681,4,0,41,-16,-23,-29,-68,-26
15:16:00:894476,4,0,41,-16,-23,-29,-68,-26
15:16:00:900417,-6,-71,-66,26,-24,-1,32,-1
15:16:00:916149,2,0,0,-9,-8,-14,22,3
15:16:00:916964,2,0,0,-9,-8,-14,22,3
15:16:00:922922,-1,3,17,29,4,7,5,1
15:16:00:938699,4,-8,19,44,-12,-10,-8,0
15:16:00:939474,4,-8,19,44,-12,-10,-8,0
15:16:00:954347,-1,6,-21,-3,21,-10,0,0
15:16:00:955103,-2,7,-25,24,7,15,-2,-4
15:16:00:955941,-2,7,-25,24,7,15,-2,-4
15:16:00:967974,0,47,49,-11,1,-4,1,-2
15:16:00:975896,-13,-9,17,-12,15,9,7,-9
15:16:00:983659,-13,-9,17,-12,15,9,7,-9
15:16:00:984427,6,-27,-25,-27,-7,-9,4,5
15:16:00:998577,5,-1,-7,-14,-11,-3,1,7
15:16:00:999420,5,-1,-7,-14,-11,-3,1,7
15:16:01:14297,-6,3,-9,31,20,2,-4,-3
15:16:01:15080,-3,-6,-22,41,29,3,9,7
15:16:01:15961,-3,-6,-22,41,29,3,9,7
15:16:01:27953,-3,0,-33,-25,-24,-10,-18,-4
15:16:01:36089,5,-5,-22,-20,-7,15,76,12
15:16:01:36931,5,-5,-22,-20,-7,15,76,12
15:16:01:42966,5,32,41,-8,28,20,-11,-1
15:16:01:58716,8,24,30,-14,0,-9,-14,-1
15:16:01:59485,8,24,30,-14,0,-9,-14,-1
15:16:01:65405,-1,-8,-3,-12,-18,-6,9,-3
15:16:01:73664,-1,-8,-3,-12,-18,-6,9,-3
15:16:01:74410,4,10,-6,0,-8,11,5,4
15:16:01:87911,-5,-6,36,14,-30,-8,-18,-5
15:16:01:96130,-5,-6,36,14,-30,-8,-18,-5
15:16:01:96897,10,5,9,-14,-6,16,6,15
15:16:01:102894,-6,-12,-33,-94,-41,-10,1,-3
15:16:01:118643,-6,-12,-33,-94,-41,-10,1,-3
15:16:01:119380,-1,1,-9,-18,6,6,-21,-8
15:16:01:125374,-1,1,-15,-7,1,-12,-2,-1
15:16:01:133671,-1,1,-15,-7,1,-12,-2,-1
15:16:01:134455,-9,-23,-31,-21,-2,-5,-11,-3
15:16:01:147989,7,-8,-37,15,22,9,18,4
15:16:01:156099,7,-8,-37,15,22,9,18,4
15:16:01:156918,-11,2,18,16,-16,-28,-17,-5
15:16:01:162890,0,2,2,-8,11,-4,-19,-11
15:16:01:178662,0,2,2,-8,11,-4,-19,-11
15:16:01:179425,2,-6,-13,-67,-20,-4,8,2
15:16:01:185432,-1,21,-40,64,20,15,4,0
15:16:01:193706,-1,21,-40,64,20,15,4,0
15:16:01:194428,-5,-1,-6,20,-9,-5,-19,-7
15:16:01:207999,-4,-10,-20,-22,-30,-23,-36,-11
15:16:01:216108,-4,-10,-20,-22,-30,-23,-36,-11
15:16:01:216907,-9,-11,-2,5,-4,6,-19,19
15:16:01:222899,0,7,52,17,-10,0,-23,-3
15:16:01:238678,0,7,52,17,-10,0,-23,-3
15:16:01:239412,-11,-12,-32,7,13,-2,-36,-27
15:16:01:254277,0,9,29,-35,0,5,26,10
15:16:01:255100,0,9,29,-35,0,5,26,10
15:16:01:255888,10,7,36,22,25,0,1,-1
15:16:01:267927,-3,-13,-9,-14,10,4,12,-1
15:16:01:276146,-3,-13,-9,-14,10,4,12,-1
15:16:01:276980,-4,-7,-23,-4,-9,-10,3,-4
15:16:01:282939,-3,-18,-13,-10,-1,-7,-23,-8
15:16:01:298638,-3,-18,-13,-10,-1,-7,-23,-8
15:16:01:299428,-3,-5,-6,1,14,28,-5,-1
15:16:01:305393,7,-6,-14,-8,0,4,14,3
15:16:01:313646,7,-6,-14,-8,0,4,14,3
15:16:01:314442,-1,22,15,28,-17,-17,11,-3
15:16:01:327936,-1,8,9,-17,7,13,8,3
15:16:01:336112,-1,8,9,-17,7,13,8,3
15:16:01:336937,0,-2,18,5,15,-22,-5,-2
15:16:01:342893,0,-4,-7,34,29,1,11,6
15:16:01:358762,0,-4,-7,34,29,1,11,6
15:16:01:359450,2,-2,18,-5,-11,4,33,2
15:16:01:365394,-23,-2,15,-4,-30,-11,-30,-6
15:16:01:373663,-23,-2,15,-4,-30,-11,-30,-6
15:16:01:374474,3,10,9,-13,3,0,-6,-4
15:16:01:387898,-2,-10,-28,-4,-34,-23,-14,-15
15:16:01:396150,-2,-10,-28,-4,-34,-23,-14,-15
15:16:01:396943,-4,1,0,-66,2,6,16,4
15:16:01:402895,-8,-40,0,17,11,0,16,8
15:16:01:418641,-8,-40,0,17,11,0,16,8
15:16:01:419409,-2,-13,-19,-20,-5,-7,-6,-4
15:16:01:434293,7,11,14,24,0,-4,8,3
15:16:01:435067,7,11,14,24,0,-4,8,3
15:16:01:435855,-3,-11,47,37,1,-23,-18,-6
15:16:01:447936,7,4,48,7,29,31,14,6
15:16:01:456125,7,4,48,7,29,31,14,6
15:16:01:456898,0,10,-26,4,-6,-4,-31,-3
15:16:01:462958,4,-8,7,0,10,-8,-28,-2
15:16:01:478628,4,-8,7,0,10,-8,-28,-2
15:16:01:479446,-4,-6,-20,3,-32,-10,-23,-7
15:16:01:485403,0,7,-25,42,-1,7,-19,-8
15:16:01:493665,0,7,-25,42,-1,7,-19,-8
15:16:01:494444,2,4,14,1,-3,5,14,7
15:16:01:507946,2,6,-37,-4,24,22,7,-4
15:16:01:516098,2,6,-37,-4,24,22,7,-4
15:16:01:516901,11,-5,-62,-6,16,8,-17,1
15:16:01:522928,0,14,6,-23,-68,-35,42,11
15:16:01:538677,0,14,6,-23,-68,-35,42,11
15:16:01:539468,0,-6,19,21,-9,31,6,1
15:16:01:545415,-1,-11,-24,25,-6,-6,-19,-3
15:16:01:553640,-1,-11,-24,25,-6,-6,-19,-3
15:16:01:554444,-12,0,-6,-6,-3,-9,9,-2
15:16:01:567895,-5,-8,23,-5,13,0,9,0
15:16:01:576180,-5,-8,23,-5,13,0,9,0
15:16:01:576976,-2,2,-29,1,1,-4,2,-1
15:16:01:582874,7,17,36,-33,0,-3,39,5
15:16:01:598673,7,17,36,-33,0,-3,39,5
15:16:01:599454,0,0,-2,20,15,-9,11,-1
15:16:01:605406,1,19,23,6,25,4,-3,1
15:16:01:613659,1,19,23,6,25,4,-3,1
15:16:01:614478,0,-5,25,-30,-24,21,37,12
15:16:01:627928,1,-5,-16,-15,-1,10,-5,-1
15:16:01:636153,1,-5,-16,-15,-1,10,-5,-1
15:16:01:636944,-3,-3,0,-24,27,2,-1,1
15:16:01:642907,-2,-13,3,-14,-14,-11,-7,-3
15:16:01:658737,-2,-13,3,-14,-14,-11,-7,-3
15:16:01:659458,-2,-22,-26,-2,-24,-8,29,0
15:16:01:665386,1,-11,35,-9,8,22,-18,-5
15:16:01:673712,1,-11,35,-9,8,22,-18,-5
15:16:01:674455,-2,-2,1,27,16,8,-2,-3
15:16:01:687949,-3,9,-24,-41,-18,-13,-11,-6
15:16:01:696129,-3,9,-24,-41,-18,-13,-11,-6
15:16:01:696919,-1,3,27,3,-8,-11,-16,-8
15:16:01:702913,6,37,37,20,44,-6,-1,0
15:16:01:718690,6,37,37,20,44,-6,-1,0
15:16:01:719413,1,9,17,16,-18,-19,-11,-3
15:16:01:725410,-6,-3,-13,5,-14,0,1,-2
15:16:01:732953,-6,-3,-13,5,-14,0,1,-2
15:16:01:740487,-6,-7,16,14,2,2,15,0
15:16:01:747942,-3,-25,-50,-4,-38,-14,7,-3
15:16:01:756190,-3,-25,-50,-4,-38,-14,7,-3
15:16:01:757002,-2,-5,23,-20,18,22,-9,6
15:16:01:762891,-9,-4,-12,1,4,6,-5,-1
15:16:01:778705,-9,-4,-12,1,4,6,-5,-1
15:16:01:779460,1,11,-10,18,21,-6,-3,2
15:16:01:785425,-3,0,-6,21,33,5,-9,-2
15:16:01:793721,-3,0,-6,21,33,5,-9,-2
15:16:01:794512,1,9,9,-3,69,2,-1,-4
15:16:01:808007,-5,-19,-39,-14,-11,-13,4,1
15:16:01:816152,-5,-19,-39,-14,-11,-13,4,1
15:16:01:816947,-2,-6,-17,-11,-42,-14,-14,-3
15:16:01:822922,3,23,42,16,52,11,-23,-1
15:16:01:846803,3,23,42,16,52,11,-23,-1
15:16:01:847564,-1,-17,-12,18,-18,-10,-7,-5
15:16:01:848429,-1,-13,-25,-43,-28,-8,-3,-3
15:16:01:852967,-1,-13,-25,-43,-28,-8,-3,-3
15:16:01:860425,4,20,9,-28,-11,1,1,0
15:16:01:867913,-3,-7,-34,-20,-23,-4,2,-1
15:16:01:876159,-3,-7,-34,-20,-23,-4,2,-1
15:16:01:876973,0,28,0,-11,-37,-3,-10,-1
15:16:01:890487,-1,-6,10,7,-7,9,-19,-17
15:16:01:898653,-1,-6,10,7,-7,9,-19,-17
15:16:01:899409,2,-6,-18,-7,-22,4,-9,-3
15:16:01:905364,-6,-3,0,-1,-16,-4,-11,3
15:16:01:912990,-6,-3,0,-1,-16,-4,-11,3
15:16:01:920393,1,0,13,20,28,-12,-3,-1
15:16:01:936762,-4,-13,12,20,18,7,9,3
15:16:01:937665,-4,-13,12,20,18,7,9,3
15:16:01:938333,-8,3,5,-6,-24,-7,8,3
15:16:01:950480,1,5,-9,13,29,-1,5,1
15:16:01:966799,1,5,-9,13,29,-1,5,1
15:16:01:967565,-7,-13,-30,4,-2,3,15,-1
15:16:01:968364,0,-13,-35,-16,14,3,10,3
15:16:01:972958,0,-13,-35,-16,14,3,10,3
15:16:01:980376,3,-12,-5,2,-33,-10,-5,1
15:16:01:987957,-5,1,0,1,-13,10,-57,-9
15:16:01:996113,-5,1,0,1,-13,10,-57,-9
15:16:01:996908,0,2,-16,2,21,24,-9,-2
15:16:02:10452,3,23,6,-3,-10,-15,-13,-6
15:16:02:18679,3,23,6,-3,-10,-15,-13,-6
15:16:02:19390,-9,-23,-18,-35,-9,-14,4,-2
15:16:02:25444,-1,-6,-11,10,33,12,14,0
15:16:02:32980,-1,-6,-11,10,33,12,14,0
15:16:02:40412,1,8,-5,-33,-11,-18,3,-1
15:16:02:47892,-1,-27,-18,21,-1,11,20,3
15:16:02:56174,-1,-27,-18,21,-1,11,20,3
15:16:02:56931,-2,-14,8,16,-3,3,-22,-5
15:16:02:70426,3,11,-19,-22,-44,2,19,7
15:16:02:78714,3,11,-19,-22,-44,2,19,7
15:16:02:79432,-1,-16,-7,5,-5,5,-1,3
15:16:02:85376,4,5,7,-2,-1,-3,25,9
15:16:02:92999,4,5,7,-2,-1,-3,25,9
15:16:02:100442,-1,-7,-6,-20,-10,-4,-20,-3
15:16:02:107928,2,11,28,11,18,-3,5,-2
15:16:02:116166,2,11,28,11,18,-3,5,-2
15:16:02:116939,-3,-1,17,-7,-26,-14,-8,-5
15:16:02:130391,-12,-16,-40,21,12,4,-14,-7
15:16:02:138665,-12,-16,-40,21,12,4,-14,-7
15:16:02:139431,2,12,-3,17,68,26,19,2
15:16:02:145390,2,-15,2,-10,-19,-18,3,-4
15:16:02:152971,2,-15,2,-10,-19,-18,3,-4
15:16:02:160413,-4,8,22,18,-19,-16,-30,-17
15:16:02:167931,8,3,-14,-8,17,27,25,16
15:16:02:176129,8,3,-14,-8,17,27,25,16
15:16:02:176923,5,22,3,-46,-19,-6,2,1
15:16:02:190458,-5,-9,3,8,-11,-7,-12,-5
15:16:02:198653,-5,-9,3,8,-11,-7,-12,-5
15:16:02:199424,4,5,-6,21,47,7,3,8
15:16:02:205402,0,8,11,3,-70,-56,-4,0
15:16:02:212955,0,8,11,3,-70,-56,-4,0
15:16:02:220457,-6,-4,7,9,10,12,13,0
15:16:02:227937,-1,-5,34,-23,-27,3,-2,0
15:16:02:236099,-1,-5,34,-23,-27,3,-2,0
15:16:02:236959,6,-5,7,5,25,8,-3,1
15:16:02:250432,-6,12,21,-33,-3,-6,-3,-9
15:16:02:258632,-6,12,21,-33,-3,-6,-3,-9
15:16:02:259432,2,-19,-73,-16,-11,-15,25,4
15:16:02:265427,-2,5,15,2,4,6,16,2
15:16:02:272934,-2,5,15,2,4,6,16,2
15:16:02:280369,-4,-2,11,37,-20,-13,-24,1
15:16:02:287918,-7,11,-2,-39,13,2,-15,-5
15:16:02:296157,-7,11,-2,-39,13,2,-15,-5
15:16:02:296951,3,8,28,-6,-3,-10,0,-4
15:16:02:310463,-9,-9,5,20,23,6,-12,-3
15:16:02:318669,-9,-9,5,20,23,6,-12,-3
15:16:02:319391,-10,3,-5,-10,-10,-3,5,2
15:16:02:325417,-3,-9,9,-20,-9,-6,2,-4
15:16:02:332985,-3,-9,9,-20,-9,-6,2,-4
15:16:02:340433,-27,-12,-15,-15,0,11,2,-7
15:16:02:347912,2,-8,-10,9,16,-1,-9,-4
15:16:02:356205,2,-8,-10,9,16,-1,-9,-4
15:16:02:356961,6,0,-9,-7,7,16,21,3
15:16:02:370421,23,13,4,-7,-31,-9,-1,-3
15:16:02:378717,23,13,4,-7,-31,-9,-1,-3
15:16:02:379446,-11,-4,16,-19,14,10,-3,-11
15:16:02:385372,-24,-8,3,6,-1,-9,-1,7
15:16:02:392999,-24,-8,3,6,-1,-9,-1,7
15:16:02:400426,5,1,-4,12,7,-2,0,0
15:16:02:407928,14,2,10,-14,3,-1,0,1
15:16:02:416113,14,2,10,-14,3,-1,0,1
15:16:02:416953,3,10,28,17,-9,-4,4,2
15:16:02:430398,-14,-2,-11,17,4,7,-7,2
15:16:02:438675,-14,-2,-11,17,4,7,-7,2
15:16:02:439420,-7,-1,-25,-2,5,0,-9,-4
15:16:02:445399,-15,0,-4,-59,27,8,-10,1
15:16:02:461201,-15,0,-4,-59,27,8,-10,1
15:16:02:461966,-15,-13,13,72,23,4,-9,-1
15:16:02:467873,23,9,0,6,30,0,1,-10
15:16:02:476170,23,9,0,6,30,0,1,-10
15:16:02:476944,21,-21,22,7,26,-5,22,3
15:16:02:490425,15,4,44,25,-16,-9,-1,-5
15:16:02:498639,15,4,44,25,-16,-9,-1,-5
15:16:02:499410,-4,9,-18,-7,-42,-5,-13,-1
15:16:02:505404,14,7,-1,-3,-16,-4,-14,-6
15:16:02:512961,14,7,-1,-3,-16,-4,-14,-6
15:16:02:520468,5,-3,17,17,14,20,28,5
15:16:02:527951,-5,-6,-24,31,-6,-20,2,1
15:16:02:536103,-5,-6,-24,31,-6,-20,2,1
15:16:02:536877,-51,-22,-26,-25,-13,-19,-11,-5
15:16:02:550446,-8,0,-9,53,15,-3,9,-1
15:16:02:558691,-8,0,-9,53,15,-3,9,-1
15:16:02:559489,-15,8,-81,8,-10,-3,-7,-3
15:16:02:565435,-11,8,44,4,-13,11,6,7
15:16:02:572931,-11,8,44,4,-13,11,6,7
15:16:02:580434,29,8,-26,-22,-59,-33,-40,-1
15:16:02:587939,1,-8,-25,41,10,14,36,-5
15:16:02:596140,1,-8,-25,41,10,14,36,-5
15:16:02:596898,16,14,7,8,26,36,28,6
15:16:02:610472,-12,-4,-26,-26,8,-9,-11,-8
15:16:02:618600,-12,-4,-26,-26,8,-9,-11,-8
15:16:02:619401,3,-3,3,-32,-18,-16,-8,0
15:16:02:625474,-3,12,9,-23,9,-1,-8,-1
15:16:02:632950,-3,12,9,-23,9,-1,-8,-1
15:16:02:640400,-1,-22,-12,11,-1,-17,-29,-5
15:16:02:647870,-18,-1,24,-55,-14,5,-10,3
15:16:02:656134,-18,-1,24,-55,-14,5,-10,3
15:16:02:656949,7,9,41,38,24,2,-5,-3
15:16:02:670467,-9,-21,-27,5,-24,-8,7,16
15:16:02:678678,-9,-21,-27,5,-24,-8,7,16
15:16:02:679337,-1,-11,19,-6,20,22,-10,-4
15:16:02:685364,15,5,11,8,63,14,4,-4
15:16:02:693013,15,5,11,8,63,14,4,-4
15:16:02:708715,32,21,32,27,29,-10,16,1
15:16:02:709444,-16,-8,-42,-11,-47,-16,5,-3
15:16:02:716136,-16,-8,-42,-11,-47,-16,5,-3
15:16:02:716941,-7,9,41,-40,9,30,-64,-14
15:16:02:739320,-9,-15,-56,5,-9,1,20,5
15:16:02:740156,-9,-15,-56,5,-9,1,20,5
15:16:02:740940,7,2,-37,-51,-7,-11,14,3
15:16:02:745437,-32,-1,-4,-15,-22,3,-11,-4
15:16:02:752984,-32,-1,-4,-15,-22,3,-11,-4
15:16:02:760431,-21,-12,-21,-31,-11,-8,12,0
15:16:02:767893,10,-6,18,33,-2,4,15,-3
15:16:02:776152,10,-6,18,33,-2,4,15,-3
15:16:02:776906,11,14,64,54,22,19,10,5
15:16:02:790442,25,2,-23,-15,3,7,0,-2
15:16:02:798600,25,2,-23,-15,3,7,0,-2
15:16:02:799403,-22,-3,-8,-6,-16,-21,-12,1
15:16:02:813723,7,-2,36,5,-2,6,-10,-8
15:16:02:814472,7,-2,36,5,-2,6,-10,-8
15:16:02:820458,-72,-17,-5,-23,-4,-12,7,1
15:16:02:827944,6,-20,-10,-32,-10,-14,-12,-2
15:16:02:835465,6,-20,-10,-32,-10,-14,-12,-2
15:16:02:842949,44,7,-13,-14,-26,1,0,1
15:16:02:850450,8,5,48,32,4,1,21,0
15:16:02:858716,8,5,48,32,4,1,21,0
15:16:02:859444,27,8,-57,-10,-35,-14,12,-1
15:16:02:873620,4,2,-1,-10,13,11,0,-7
15:16:02:874432,4,2,-1,-10,13,11,0,-7
15:16:02:880445,3,-6,-73,-6,1,11,-16,-10
15:16:02:887955,-14,-8,-12,-1,2,0,19,3
15:16:02:895448,-14,-8,-12,-1,2,0,19,3
15:16:02:902894,18,9,32,5,-2,-19,4,2
15:16:02:910440,12,7,-8,15,5,4,-11,1
15:16:02:918656,12,7,-8,15,5,4,-11,1
15:16:02:919419,33,6,79,14,-3,-3,7,2
15:16:02:933642,19,-11,10,16,0,-10,-15,-3
15:16:02:934433,19,-11,10,16,0,-10,-15,-3
15:16:02:940408,-9,-1,-7,-9,8,0,7,1
15:16:02:947915,4,12,3,13,-8,3,11,1
15:16:02:955492,4,12,3,13,-8,3,11,1
15:16:02:962917,-3,-7,-2,-10,10,24,22,-5
15:16:02:970422,0,4,-8,-14,-3,-6,-12,3
15:16:02:978700,0,4,-8,-14,-3,-6,-12,3
15:16:02:979450,-8,0,10,27,-9,-8,11,5
15:16:02:993621,-34,-10,39,-24,-9,-23,-6,-3
15:16:02:994416,-34,-10,39,-24,-9,-23,-6,-3
15:16:03:403,-7,-16,-22,-22,19,3,-11,-3
15:16:03:7917,23,15,-11,9,-5,-1,-9,0
15:16:03:15465,23,15,-11,9,-5,-1,-9,0
15:16:03:22898,-27,-2,-30,2,-18,-14,-5,-4
15:16:03:30406,-5,-8,-29,-2,21,6,-9,1
15:16:03:38688,-5,-8,-29,-2,21,6,-9,1
15:16:03:39441,13,-7,-7,14,-6,5,10,0
15:16:03:53695,11,-4,20,6,38,0,-14,-1
15:16:03:54445,11,-4,20,6,38,0,-14,-1
15:16:03:60448,-40,-26,-71,22,2,-1,-4,-7
15:16:03:67898,-13,-15,18,-17,2,5,28,10
15:16:03:75475,-13,-15,18,-17,2,5,28,10
15:16:03:91126,9,5,30,-26,-10,-7,-7,-3
15:16:03:91888,17,9,-24,-17,-83,-30,-33,-5
15:16:03:98708,17,9,-24,-17,-83,-30,-33,-5
15:16:03:99480,-15,1,14,3,-9,22,18,2
15:16:03:113622,11,1,-4,-25,-19,4,-20,-4
15:16:03:114453,11,1,-4,-25,-19,4,-20,-4
15:16:03:120423,12,13,33,-10,-11,-16,-14,-5
15:16:03:127914,-15,-6,6,53,64,32,-2,-9
15:16:03:135460,-15,-6,6,53,64,32,-2,-9
15:16:03:142940,-15,-3,19,13,54,2,31,2
15:16:03:150451,-18,-10,-21,10,-21,5,4,-2
15:16:03:158676,-18,-10,-21,10,-21,5,4,-2
15:16:03:159463,-4,-6,4,-40,-34,-13,-26,-7
15:16:03:173743,-54,7,-56,10,9,-11,-15,-1
15:16:03:174471,-54,7,-56,10,9,-11,-15,-1
15:16:03:180413,39,0,29,34,-11,4,4,10
15:16:03:187944,8,-11,33,23,27,28,-1,-14
15:16:03:195443,8,-11,33,23,27,28,-1,-14
15:16:03:202958,2,-2,-47,-29,-3,-2,-4,-5
15:16:03:210424,9,8,-55,-37,-10,-12,5,13
15:16:03:218592,9,8,-55,-37,-10,-12,5,13
15:16:03:219392,-23,-5,-4,-23,-18,-9,-2,-4
15:16:03:233604,14,8,24,-38,-3,15,33,2
15:16:03:234385,14,8,24,-38,-3,15,33,2
15:16:03:240431,0,-16,-7,3,-1,0,-3,4
15:16:03:247956,-2,1,-36,44,-7,-17,-7,-2
15:16:03:255494,-2,1,-36,44,-7,-17,-7,-2
15:16:03:262939,0,5,20,-25,5,-11,-36,-10
15:16:03:270439,-48,18,34,2,9,16,45,21
15:16:03:278599,-48,18,34,2,9,16,45,21
15:16:03:279427,-12,-7,11,-3,-9,-5,1,2
15:16:03:293573,-31,-8,10,-42,-13,-23,-3,7
15:16:03:294416,-31,-8,10,-42,-13,-23,-3,7
15:16:03:300439,-21,-24,10,27,25,7,2,-2
15:16:03:307939,23,16,38,-3,-19,-8,-4,4
15:16:03:315463,23,16,38,-3,-19,-8,-4,4
15:16:03:322898,30,16,-77,-8,-3,5,-3,1
15:16:03:330402,48,-2,-40,-44,2,-11,-11,-7
15:16:03:338715,48,-2,-40,-44,2,-11,-11,-7
15:16:03:339430,56,13,20,57,10,31,20,2
15:16:03:353643,20,-1,-8,-19,-40,-11,-14,-16
15:16:03:354425,20,-1,-8,-19,-40,-11,-14,-16
15:16:03:360372,-4,14,-14,33,15,1,-5,0
15:16:03:367880,4,9,18,38,13,-2,-14,-15
15:16:03:375504,4,9,18,38,13,-2,-14,-15
15:16:03:382961,-59,-11,8,-23,-12,-6,14,-1
15:16:03:390415,15,5,1,-7,-19,-13,10,-5
15:16:03:398688,15,5,1,-7,-19,-13,10,-5
15:16:03:399479,32,13,37,-5,-7,13,23,18
15:16:03:413671,-13,-33,3,80,12,2,-4,-6
15:16:03:414376,-13,-33,3,80,12,2,-4,-6
15:16:03:420430,5,1,-10,-2,-38,-25,-18,-9
15:16:03:427937,2,12,67,-31,0,38,1,3
15:16:03:435475,2,12,67,-31,0,38,1,3
15:16:03:442972,-2,10,-29,-7,6,-2,-8,-3
15:16:03:450466,-45,-5,15,1,-1,-9,-5,0
15:16:03:458639,-45,-5,15,1,-1,-9,-5,0
15:16:03:459385,-8,-4,13,-24,1,7,-23,0
15:16:03:473697,-14,-19,-29,-12,-10,-11,20,-2
15:16:03:474450,-14,-19,-29,-12,-10,-11,20,-2
15:16:03:480400,-7,-10,-41,17,9,-8,-20,-7
15:16:03:487923,39,8,-13,-23,1,3,-11,6
15:16:03:495452,39,8,-13,-23,1,3,-11,6
15:16:03:502926,2,5,25,-90,-9,4,-2,-11
15:16:03:510439,-23,-20,-4,-40,-27,-12,1,4
15:16:03:518601,-23,-20,-4,-40,-27,-12,1,4
15:16:03:519393,0,-10,-2,15,40,14,15,0
15:16:03:534075,-10,6,-49,13,3,2,-1,-4
15:16:03:541197,-10,6,-49,13,3,2,-1,-4
15:16:03:541964,18,-8,-1,21,-9,31,5,-5
15:16:03:547939,21,15,29,9,5,-1,-10,-2
15:16:03:555476,21,15,29,9,5,-1,-10,-2
15:16:03:562899,15,9,30,32,6,21,-4,3
15:16:03:570431,-11,-22,-20,14,23,-9,8,-5
15:16:03:578611,-11,-22,-20,14,23,-9,8,-5
15:16:03:579415,5,14,2,14,-2,-36,-4,0
15:16:03:593619,3,0,-14,10,9,17,-18,-13
15:16:03:594440,3,0,-14,10,9,17,-18,-13
15:16:03:600400,43,23,11,5,-6,-7,10,1
15:16:03:607922,0,-21,39,-12,-6,-16,-14,-7
15:16:03:615450,0,-21,39,-12,-6,-16,-14,-7
15:16:03:622917,-29,-7,13,43,16,-3,5,2
15:16:03:630413,11,-4,-25,-25,-7,-2,-6,5
15:16:03:638701,11,-4,-25,-25,-7,-2,-6,5
15:16:03:639439,-24,10,22,-21,-25,-8,-9,-1
15:16:03:653619,-6,8,-29,17,15,26,-11,9
15:16:03:654445,-6,8,-29,17,15,26,-11,9
15:16:03:660441,-11,-3,-32,41,23,-8,-4,-6
15:16:03:667903,11,-7,44,-13,-13,-14,-1,-1
15:16:03:675518,11,-7,44,-13,-13,-14,-1,-1
15:16:03:682920,4,17,37,55,3,-13,-5,1
15:16:03:690437,6,16,-9,-23,-18,-4,19,3
15:16:03:698667,6,16,-9,-23,-18,-4,19,3
15:16:03:699435,-1,-11,11,-17,33,19,-14,-1
15:16:03:713716,-29,-7,-5,8,45,2,-65,-16
15:16:03:714450,-29,-7,-5,8,45,2,-65,-16
15:16:03:720449,5,-16,2,-17,43,-21,-5,2
15:16:03:727934,-3,2,10,9,-10,-23,1,0
15:16:03:735454,-3,2,10,9,-10,-23,1,0
15:16:03:742918,-15,-19,8,-37,-32,-7,4,-4
15:16:03:750418,1,0,-73,-20,-8,3,17,5
15:16:03:757944,1,0,-73,-20,-8,3,17,5
15:16:03:765399,21,18,-1,-12,-23,-5,7,3
15:16:03:773594,2,0,14,8,-26,28,-16,-7
15:16:03:774405,2,0,14,8,-26,28,-16,-7
15:16:03:780408,50,7,-30,-4,5,11,41,12
15:16:03:796117,11,-17,19,25,50,-7,2,-2
15:16:03:796926,11,-17,19,25,50,-7,2,-2
15:16:03:802908,-18,-6,-8,-11,-8,2,-7,-3
15:16:03:818667,-6,7,16,28,-29,-19,1,-1
15:16:03:819436,-6,7,16,28,-29,-19,1,-1
15:16:03:825474,-7,-5,-6,37,3,-2,2,0
15:16:03:833549,23,12,-23,-31,6,20,28,2
15:16:03:834371,23,12,-23,-31,6,20,28,2
15:16:03:847964,38,-14,-34,-41,-33,-1,-2,0
15:16:03:856122,1,-6,67,-12,-6,-13,5,3
15:16:03:856983,1,-6,67,-12,-6,-13,5,3
15:16:03:862944,-21,-10,-15,-3,2,17,15,11
15:16:03:870417,23,11,-14,15,18,18,-7,-1
15:16:03:878006,23,11,-14,15,18,18,-7,-1
15:16:03:885386,-38,-1,5,-14,6,-17,-19,-8
15:16:03:893603,-42,-35,-53,30,-3,-4,9,-4
15:16:03:894408,-42,-35,-53,30,-3,-4,9,-4
15:16:03:900401,-34,3,-10,51,32,6,-10,-6
15:16:03:916109,-12,5,-5,38,20,8,6,2
15:16:03:916930,-12,5,-5,38,20,8,6,2
15:16:03:922958,2,1,-15,9,-33,-7,20,0
15:16:03:930409,-4,-1,-32,-20,0,14,38,-4
15:16:03:938005,-4,-1,-32,-20,0,14,38,-4
15:16:03:945357,-2,7,16,-38,-10,0,-6,-2
15:16:03:953593,13,11,-22,-34,-70,-35,-10,5
15:16:03:954423,13,11,-22,-34,-70,-35,-10,5
15:16:03:960388,-16,-16,64,22,-38,-5,-19,-13
15:16:03:976587,-34,-3,17,28,44,23,-6,-4
15:16:03:977418,-34,-3,17,28,44,23,-6,-4
15:16:03:982833,-18,8,-24,-18,1,-3,-9,-4
15:16:03:990441,2,-4,16,-17,-15,-21,-9,-7
15:16:03:997959,2,-4,16,-17,-15,-21,-9,-7
15:16:04:5394,8,1,-18,-15,-4,-18,-13,4
15:16:04:13683,12,-11,7,-25,-10,-4,-8,0
15:16:04:14372,12,-11,7,-25,-10,-4,-8,0
15:16:04:20462,-9,-13,-25,21,31,15,10,-5
15:16:04:36083,19,11,33,9,3,-11,-5,8
15:16:04:36929,19,11,33,9,3,-11,-5,8
15:16:04:42900,10,7,42,7,14,-1,15,-2
15:16:04:50431,-43,-2,-5,37,12,20,-31,-8
15:16:04:66094,-43,-2,-5,37,12,20,-31,-8
15:16:04:66949,7,7,-15,-22,-7,-21,0,-4
15:16:04:73669,42,-6,11,1,-16,-15,-54,-6
15:16:04:74434,42,-6,11,1,-16,-15,-54,-6
15:16:04:80405,-17,-1,15,-6,10,9,7,-13
15:16:04:96148,-13,16,-13,37,-2,-16,11,0
15:16:04:96911,-13,16,-13,37,-2,-16,11,0
15:16:04:102874,3,-5,-2,-74,-35,-7,-2,1
15:16:04:110375,-11,15,17,-9,9,3,1,-3
15:16:04:126162,-11,15,17,-9,9,3,1,-3
15:16:04:126901,19,4,6,8,-3,-6,-10,0
15:16:04:133611,12,7,-24,-28,0,0,18,9
15:16:04:134422,12,7,-24,-28,0,0,18,9
15:16:04:140401,11,-14,15,-11,-12,-13,-9,4
15:16:04:156601,-14,-5,25,-18,-7,27,38,-1
15:16:04:157386,-14,-5,25,-18,-7,27,38,-1
15:16:04:162932,-38,7,-5,47,34,22,-4,-3
15:16:04:170428,-13,-13,-36,-10,-9,-21,-17,0
15:16:04:177958,-13,-13,-36,-10,-9,-21,-17,0
15:16:04:185355,-2,4,5,2,20,1,-4,-5
15:16:04:193612,-1,-15,41,13,-2,-4,-21,-4
15:16:04:194426,-1,-15,41,13,-2,-4,-21,-4
15:16:04:200396,6,-6,-1,-2,-6,23,49,13
15:16:04:216099,-6,-4,-23,-7,10,2,-3,-3
15:16:04:216937,-6,-4,-23,-7,10,2,-3,-3
15:16:04:222872,-7,-21,-1,-1,-17,-10,-24,-5
15:16:04:230346,-2,3,-3,-15,7,0,15,0
15:16:04:237958,-2,3,-3,-15,7,0,15,0
15:16:04:245406,-23,-1,-24,-21,-15,-9,3,-5
15:16:04:253721,-13,-2,-19,1,-4,-9,23,2
15:16:04:254441,-13,-2,-19,1,-4,-9,23,2
15:16:04:260405,21,1,-22,-34,-19,-12,-6,3
15:16:04:275908,-7,-1,30,-3,-26,-14,-23,-6
15:16:04:283686,-7,-1,30,-3,-26,-14,-23,-6
15:16:04:284413,18,27,48,4,8,-1,-1,3
15:16:04:290399,-8,-2,-17,-13,5,2,-8,-3
15:16:04:297999,-8,-2,-17,-13,5,2,-8,-3
15:16:04:305400,-9,-13,-7,-1,5,14,0,3
15:16:04:313603,30,-1,-30,37,15,16,1,3
15:16:04:314407,30,-1,-30,37,15,16,1,3
15:16:04:320446,5,1,-15,15,32,7,3,-3
15:16:04:336154,-5,-23,-58,-48,-3,-18,-29,-16
15:16:04:336971,-5,-23,-58,-48,-3,-18,-29,-16
15:16:04:342896,-5,-34,-68,1,-47,-26,-18,-9
15:16:04:350413,-6,11,-10,-31,-12,15,23,8
15:16:04:358042,-6,11,-10,-31,-12,15,23,8
15:16:04:365433,8,20,6,-9,-3,-10,14,1
15:16:04:373628,7,7,31,29,3,-1,4,1
15:16:04:374433,7,7,31,29,3,-1,4,1
15:16:04:380425,-1,7,10,9,-15,-3,-17,0
15:16:04:396083,42,30,11,0,12,15,13,11
15:16:04:396904,42,30,11,0,12,15,13,11
15:16:04:402903,-8,-22,13,-11,-1,-13,-13,-6
15:16:04:418711,-8,-22,13,-11,-1,-13,-13,-6
15:16:04:419448,-1,-2,4,23,-4,-18,-3,-7
15:16:04:425467,-4,-2,14,68,49,30,-12,-11
15:16:04:433611,-4,-2,14,68,49,30,-12,-11
15:16:04:434419,17,15,52,3,-5,-3,11,5
15:16:04:440411,8,-10,-2,19,58,11,4,4
15:16:04:464277,8,-10,-2,19,58,11,4,4
15:16:04:465073,2,9,15,8,9,8,28,-6
15:16:04:465891,2,-4,8,-46,-36,-5,6,-2
15:16:04:478613,2,-4,8,-46,-36,-5,6,-2
15:16:04:479416,-34,-9,-105,-33,-15,-9,-6,-2
15:16:04:485353,8,2,-9,-47,-17,1,0,2
15:16:04:493680,8,2,-9,-47,-17,1,0,2
15:16:04:494418,20,-4,-15,-15,-26,-10,-12,-8
15:16:04:500410,-12,-3,10,-15,-30,3,20,-12
15:16:04:516099,-12,-3,10,-15,-30,3,20,-12
15:16:04:516919,-62,-36,0,-24,-15,-9,-23,-9
15:16:04:522893,5,-5,18,-35,-31,1,-7,8
15:16:04:538638,5,-5,18,-35,-31,1,-7,8
15:16:04:539434,16,22,38,10,5,-3,10,2
15:16:04:545390,-21,2,-31,-26,-16,-3,-27,-1
15:16:04:553594,-21,2,-31,-26,-16,-3,-27,-1
15:16:04:554410,23,16,12,-1,23,7,-3,4
15:16:04:560383,12,30,-7,21,13,-9,3,-3
15:16:04:576138,12,30,-7,21,13,-9,3,-3
15:16:04:576893,30,0,60,42,18,-13,-24,-2
15:16:04:582868,22,7,-17,28,12,38,45,21
15:16:04:598607,22,7,-17,28,12,38,45,21
15:16:04:599403,-10,-3,48,-52,-28,15,9,3
15:16:04:605468,-3,3,18,-5,42,2,-11,-1
15:16:04:621776,-3,3,18,-5,42,2,-11,-1
15:16:04:622595,24,-10,-7,-48,1,-3,-6,-6
15:16:04:623367,-32,-9,-15,5,-26,-32,0,-3
15:16:04:636127,-32,-9,-15,5,-26,-32,0,-3
15:16:04:636971,27,0,-18,8,17,6,-5,2
15:16:04:642938,13,-12,-30,31,-7,-22,4,-1
15:16:04:658741,13,-12,-30,31,-7,-22,4,-1
15:16:04:659490,-18,-6,22,2,15,23,7,1
15:16:04:665395,-2,20,36,-22,-41,-18,-3,-2
15:16:04:673680,-2,20,36,-22,-41,-18,-3,-2
15:16:04:674451,-21,-10,0,23,66,45,5,-2
15:16:04:680381,-19,-19,10,2,-1,-17,-26,-7
15:16:04:696138,-19,-19,10,2,-1,-17,-26,-7
15:16:04:696903,-31,5,-54,42,-43,-31,24,-2
15:16:04:702899,-11,0,-35,6,19,32,-8,3
15:16:04:718608,-11,0,-35,6,19,32,-8,3
15:16:04:719379,-3,12,-75,-12,-15,-11,-32,-10
15:16:04:725369,12,1,-16,11,-7,-1,-2,-4
15:16:04:741165,12,1,-16,11,-7,-1,-2,-4
15:16:04:741922,3,-16,20,-4,6,-2,10,5
15:16:04:747920,-6,-8,-1,-51,-42,-25,-8,-4
15:16:04:756147,-6,-8,-1,-51,-42,-25,-8,-4
15:16:04:756923,44,-3,-11,6,-33,-14,6,1
15:16:04:762923,-45,-9,-3,-17,-3,18,2,-5
15:16:04:778634,-45,-9,-3,-17,-3,18,2,-5
15:16:04:779404,14,14,8,-11,12,17,12,12
15:16:04:785355,26,-3,-24,17,29,-6,4,6
15:16:04:793685,26,-3,-24,17,29,-6,4,6
15:16:04:794425,-9,-21,-15,49,-16,-23,-15,-18
15:16:04:807954,9,11,4,27,18,5,6,-4
15:16:04:816078,9,11,4,27,18,5,6,-4
15:16:04:816975,-21,9,38,-6,-13,-7,-4,1
15:16:04:822883,-15,-18,11,-3,-14,-9,-8,-8
15:16:04:838612,-15,-18,11,-3,-14,-9,-8,-8
15:16:04:839419,12,21,6,-16,18,-33,11,7
15:16:04:845384,-2,7,14,6,0,6,18,10
15:16:04:853704,-2,7,14,6,0,6,18,10
15:16:04:854390,-1,4,16,7,27,-19,-5,-4
15:16:04:867911,13,0,16,17,10,-5,-28,-5
15:16:04:876149,13,0,16,17,10,-5,-28,-5
15:16:04:876940,14,-6,33,28,-6,15,-1,1
15:16:04:882871,-23,-4,20,9,19,14,3,-2
15:16:04:898594,-23,-4,20,9,19,14,3,-2
15:16:04:899434,-17,-21,1,2,-25,2,-2,-1
15:16:04:905425,39,3,-41,-29,-51,-25,-11,-5
15:16:04:913637,39,3,-41,-29,-51,-25,-11,-5
15:16:04:914394,-27,9,-16,-13,31,76,2,-5
15:16:04:927962,-27,-22,12,6,3,20,85,35
15:16:04:936094,-27,-22,12,6,3,20,85,35
15:16:04:936910,-3,-4,27,0,-37,-26,-14,-8
15:16:04:942911,16,26,8,-16,30,17,-40,-7
15:16:04:958670,16,26,8,-16,30,17,-40,-7
15:16:04:959532,-45,-18,-10,1,0,-3,3,6
15:16:04:965454,-19,15,28,-46,-27,-23,-11,-6
15:16:04:973643,-19,15,28,-46,-27,-23,-11,-6
15:16:04:974456,0,-21,-30,-57,-24,-17,-8,-4
15:16:04:987940,6,-19,-4,-1,-3,-10,-10,-4
15:16:04:996110,6,-19,-4,-1,-3,-10,-10,-4
15:16:04:996905,-7,7,-23,-8,-12,-3,-6,5
15:16:05:2909,26,7,13,28,21,15,14,3
15:16:05:18715,26,7,13,28,21,15,14,3
15:16:05:19440,18,16,-10,-4,-12,-20,17,2
15:16:05:25465,12,-34,-36,-8,-11,-13,-48,-18
15:16:05:33615,12,-34,-36,-8,-11,-13,-48,-18
15:16:05:34394,-12,0,-4,0,6,-4,10,2
15:16:05:48430,2,4,21,74,50,12,5,-2
15:16:05:56132,2,4,21,74,50,12,5,-2
15:16:05:56926,-3,1,51,-24,-11,0,2,0
15:16:05:62984,14,22,9,13,-20,-24,10,6
15:16:05:78714,14,22,9,13,-20,-24,10,6
15:16:05:79463,-5,-4,5,10,9,42,36,-1
15:16:05:85386,-44,-16,13,-5,-18,1,6,-2
15:16:05:93616,-44,-16,13,-5,-18,1,6,-2
15:16:05:94408,-17,-3,-15,-15,-2,-16,-17,1
15:16:05:107973,17,-6,-39,60,20,10,-4,6
15:16:05:116135,17,-6,-39,60,20,10,-4,6
15:16:05:116969,3,4,2,7,27,-5,-11,3
15:16:05:122910,1,20,22,-27,-15,-2,-29,-17
15:16:05:138421,1,20,22,-27,-15,-2,-29,-17
15:16:05:146074,39,16,5,30,2,-1,23,2
15:16:05:146878,-5,-19,-11,-23,-10,15,-8,-4
15:16:05:153701,-5,-19,-11,-23,-10,15,-8,-4
15:16:05:154470,18,5,-11,0,32,3,-38,-18
15:16:05:176816,-24,0,-7,-3,8,0,5,-3
15:16:05:177607,-24,0,-7,-3,8,0,5,-3
15:16:05:178404,19,9,29,-20,-30,-13,-18,0
15:16:05:182871,-5,4,-8,12,22,10,6,2
15:16:05:190480,-5,4,-8,12,22,10,6,2
15:16:05:197900,-61,-16,0,-26,2,2,1,-2
15:16:05:205363,-13,4,-52,-24,1,-14,19,-2
15:16:05:213666,-13,4,-52,-24,1,-14,19,-2
15:16:05:214460,19,-28,-35,17,-24,-26,-6,1
15:16:05:227928,13,-2,-6,3,9,15,8,7
15:16:05:236114,13,-2,-6,3,9,15,8,7
15:16:05:236932,-7,3,19,36,-21,2,-2,-3
15:16:05:242883,30,18,-1,-38,-1,-18,-6,-4
15:16:05:250488,30,18,-1,-38,-1,-18,-6,-4
15:16:05:257934,14,18,3,-4,6,49,9,12
15:16:05:265426,-24,-37,-13,-12,-12,10,-10,-9
15:16:05:273738,-24,-37,-13,-12,-12,10,-10,-9
15:16:05:274467,37,5,24,-23,11,-19,-21,-4
15:16:05:287956,16,11,5,-43,3,-4,11,4
15:16:05:296152,16,11,5,-43,3,-4,11,4
15:16:05:296952,-8,-18,-18,6,24,-1,6,-2
15:16:05:302890,27,16,43,11,29,-15,-13,-6
15:16:05:310508,27,16,43,11,29,-15,-13,-6
15:16:05:326147,-15,-3,-27,-25,-8,-9,-8,3
15:16:05:326905,29,0,23,2,-26,-2,-10,5
15:16:05:333721,29,0,23,2,-26,-2,-10,5
15:16:05:334446,-10,-4,25,32,2,14,13,0
15:16:05:356883,-12,-7,19,10,-12,16,10,-1
15:16:05:357651,-12,-7,19,10,-12,16,10,-1
15:16:05:358433,-9,1,-29,-6,-16,-17,-10,-3
15:16:05:362939,-17,-15,-22,-5,12,-9,43,20
15:16:05:370535,-17,-15,-22,-5,12,-9,43,20
15:16:05:377940,12,-12,-6,-4,17,-20,1,-5
15:16:05:385378,8,25,5,46,-14,-13,-29,0
15:16:05:393739,8,25,5,46,-14,-13,-29,0
15:16:05:394460,-4,-4,0,-22,-3,-12,-3,-13
15:16:05:407988,6,-4,-9,-14,-28,-9,-12,-10
15:16:05:424355,6,-4,-9,-14,-28,-9,-12,-10
15:16:05:425097,-27,-12,-23,17,11,14,9,-4
15:16:05:425889,-14,7,41,28,5,6,-11,-6
15:16:05:430438,-14,7,41,28,5,6,-11,-6
15:16:05:437912,-5,-12,-33,-12,-18,-7,-22,7
15:16:05:445383,9,-7,-13,-26,-11,15,-5,4
15:16:05:453640,9,-7,-13,-26,-11,15,-5,4
15:16:05:454411,-18,3,23,49,60,41,31,1
15:16:05:467939,-18,-6,18,-22,14,-7,7,-3
15:16:05:476137,-18,-6,18,-22,14,-7,7,-3
15:16:05:476899,12,2,-72,-44,-40,-34,-5,11
15:16:05:482894,-27,-10,-4,16,-18,12,12,-4
15:16:05:490499,-27,-10,-4,16,-18,12,12,-4
15:16:05:497904,19,7,46,10,8,16,-3,-1
15:16:05:505414,6,-6,-14,5,0,-1,5,1
15:16:05:513716,6,-6,-14,5,0,-1,5,1
15:16:05:514451,-9,4,5,17,-15,9,5,-5
15:16:05:527922,-33,-13,18,-11,-14,-24,-15,-4
15:16:05:536112,-33,-13,18,-11,-14,-24,-15,-4
15:16:05:536929,-9,3,-18,29,67,24,-2,1
15:16:05:542889,-5,-1,29,9,18,-22,-57,-24
15:16:05:550493,-5,-1,29,9,18,-22,-57,-24
15:16:05:557923,10,28,29,9,-16,-26,11,10
15:16:05:565426,-17,-21,-16,-13,-13,-7,0,-2
15:16:05:573581,-17,-21,-16,-13,-13,-7,0,-2
15:16:05:574384,6,-16,1,-49,-25,-12,-6,-12
15:16:05:587927,31,32,15,-6,42,6,-1,9
15:16:05:596167,31,32,15,-6,42,6,-1,9
15:16:05:596904,-7,-7,-13,-11,-7,2,-10,1
15:16:05:602906,17,2,-57,-12,-31,-10,4,0
15:16:05:610444,17,2,-57,-12,-31,-10,4,0
15:16:05:617915,-13,0,8,2,2,6,-24,-6
15:16:05:633617,32,15,-18,-11,1,-8,-8,2
15:16:05:634393,32,15,-18,-11,1,-8,-8,2
15:16:05:640457,-12,-31,-36,-31,-13,10,8,-2
15:16:05:647929,-18,-12,-1,-21,17,7,17,7
15:16:05:656118,-18,-12,-1,-21,17,7,17,7
15:16:05:656922,12,-1,27,1,20,-13,-23,11
15:16:05:671103,-7,0,-10,1,-26,-1,7,-6
15:16:05:671881,-7,0,-10,1,-26,-1,7,-6
15:16:05:677917,-16,10,-17,23,-23,-11,-5,-11
15:16:05:685405,-9,-11,3,13,4,5,-10,-5
15:16:05:701152,-9,-11,3,13,4,5,-10,-5
15:16:05:701921,39,-7,19,10,-28,-7,-9,0
15:16:05:707946,-6,5,-20,6,10,6,20,-1
15:16:05:716168,-6,5,-20,6,10,6,20,-1
15:16:05:716987,-40,-1,-18,21,-1,14,-12,-11
15:16:05:731631,-3,-9,-15,-4,4,17,46,14
15:16:05:732412,-3,-9,-15,-4,4,17,46,14
15:16:05:737966,-3,26,15,-13,-29,-12,-2,3
15:16:05:745447,-14,-7,2,-11,-3,14,-22,-15
15:16:05:753005,-14,-7,2,-11,-3,14,-22,-15
15:16:05:760398,18,9,26,-12,2,-11,13,-3
15:16:05:767900,-3,9,8,-35,-42,-3,-4,0
15:16:05:776139,-3,9,8,-35,-42,-3,-4,0
15:16:05:776904,23,-2,-4,-8,11,9,8,-3
15:16:05:791077,13,-10,34,6,-17,-23,-25,-5
15:16:05:791911,13,-10,34,6,-17,-23,-25,-5
15:16:05:797940,-1,-12,-3,-14,37,15,72,10
15:16:05:805401,-5,7,18,14,18,2,-1,1
15:16:05:812957,-5,7,18,14,18,2,-1,1
15:16:05:820452,-5,0,9,6,-14,-8,-32,-3
15:16:05:827934,-7,24,-19,30,12,3,-2,-7
15:16:05:836092,-7,24,-19,30,12,3,-2,-7
15:16:05:836936,-19,-10,2,-19,18,6,5,-2
15:16:05:851151,-1,-13,-4,4,-11,0,-10,0
15:16:05:851941,-1,-13,-4,4,-11,0,-10,0
15:16:05:857999,17,-6,-58,15,-16,-6,0,7
15:16:05:865440,12,-7,18,8,9,22,-16,-7
15:16:05:872984,12,-7,18,8,9,22,-16,-7
15:16:05:880400,-18,2,40,-18,4,4,-2,-5
15:16:05:887934,5,6,12,4,-13,-23,10,3
15:16:05:896145,5,6,12,4,-13,-23,10,3
15:16:05:896928,-11,-6,-4,-20,-15,-12,2,1
15:16:05:911065,1,-13,-9,-12,0,-16,-5,-3
15:16:05:911893,1,-13,-9,-12,0,-16,-5,-3
15:16:05:917868,-42,-16,15,4,-8,-17,13,0
15:16:05:925423,-14,-3,-13,2,60,46,39,5
15:16:05:932971,-14,-3,-13,2,60,46,39,5
15:16:05:940437,33,11,-19,14,18,7,-17,-1
15:16:05:947949,7,0,-18,-14,-27,-17,-8,7
15:16:05:956169,7,0,-18,-14,-27,-17,-8,7
15:16:05:956974,-44,-13,15,32,-17,-3,-1,-15
15:16:05:971142,5,15,-14,-3,-12,10,26,17
15:16:05:971935,5,15,-14,-3,-12,10,26,17
15:16:05:977874,27,5,-17,-20,12,12,9,-2
15:16:05:985367,1,9,5,54,15,0,-13,-7
15:16:05:992977,1,9,5,54,15,0,-13,-7
15:16:06:469,3,-2,8,16,-2,3,-50,-4
15:16:06:7984,-19,9,-5,-6,-14,2,22,-1
15:16:06:16164,-19,9,-5,-6,-14,2,22,-1
15:16:06:16958,5,12,16,-2,-20,-23,-1,-4
15:16:06:31155,2,-9,7,1,6,4,21,2
15:16:06:31931,2,-9,7,1,6,4,21,2
15:16:06:37950,-8,-31,-15,13,0,-10,-4,-6
15:16:06:45448,5,6,-64,-16,-10,-15,-10,1
15:16:06:53002,5,6,-64,-16,-10,-15,-10,1
15:16:06:60428,21,14,8,-12,-9,-9,-14,-3
15:16:06:67882,8,-9,40,-4,31,-7,-14,3
15:16:06:83640,8,-9,40,-4,31,-7,-14,3
15:16:06:84423,-24,3,-18,-7,9,14,-20,5
15:16:06:91117,-4,-18,15,-25,-25,-16,-11,-6
15:16:06:91903,-4,-18,15,-25,-25,-16,-11,-6
15:16:06:97928,-28,3,-9,10,21,5,-15,-6
15:16:06:105417,2,-5,-25,-3,-2,-3,-18,-6
15:16:06:112927,2,-5,-25,-3,-2,-3,-18,-6
15:16:06:120397,16,-4,-3,-8,-34,13,28,-1
15:16:06:127919,-38,-5,36,7,-8,5,-9,-9
15:16:06:136099,-38,-5,36,7,-8,5,-9,-9
15:16:06:136886,14,9,8,37,-16,-21,-13,-7
15:16:06:151070,-3,0,-14,-19,-8,-13,-11,-4
15:16:06:151887,-3,0,-14,-19,-8,-13,-11,-4
15:16:06:157991,42,10,16,-13,14,6,5,2
15:16:06:165418,-18,1,14,19,7,8,-11,-6
15:16:06:172959,-18,1,14,19,7,8,-11,-6
15:16:06:180381,10,1,-14,-16,20,5,45,13
15:16:06:187927,-4,-8,12,10,-9,10,-1,8
15:16:06:196118,-4,-8,12,10,-9,10,-1,8
15:16:06:196898,-8,1,-2,53,25,14,14,2
15:16:06:211100,-10,9,-45,24,9,0,17,0
15:16:06:211913,-10,9,-45,24,9,0,17,0
15:16:06:217896,-5,-6,-5,-50,-18,-14,-23,2
15:16:06:225433,-43,-8,2,-21,-43,-22,-20,-11
15:16:06:232976,-43,-8,2,-21,-43,-22,-20,-11
15:16:06:240394,3,-14,10,7,7,10,11,4
15:16:06:247927,12,7,16,6,20,-5,-3,2
15:16:06:256134,12,7,16,6,20,-5,-3,2
15:16:06:256945,-2,-8,-54,-24,17,11,-7,-5
15:16:06:271125,20,-6,-43,-5,16,-6,6,-4
15:16:06:271934,20,-6,-43,-5,16,-6,6,-4
15:16:06:277894,16,-4,42,-2,-12,-1,2,-1
15:16:06:285373,7,5,17,7,-32,14,45,0
15:16:06:292976,7,5,17,7,-32,14,45,0
15:16:06:300455,-1,5,-5,-19,-8,25,35,21
15:16:06:307938,-37,6,25,-17,-18,-9,14,-3
15:16:06:316157,-37,6,25,-17,-18,-9,14,-3
15:16:06:316947,-3,1,15,-2,3,5,36,-1
15:16:06:331118,21,-5,14,-19,8,25,-12,2
15:16:06:331972,21,-5,14,-19,8,25,-12,2
15:16:06:337942,6,-3,6,23,-8,-25,-28,-3
15:16:06:345421,20,-3,-15,-15,0,-19,-12,0
15:16:06:352976,20,-3,-15,-15,0,-19,-12,0
15:16:06:360440,-11,-10,0,-15,-2,-13,13,-7
15:16:06:367932,2,1,4,32,-7,-22,-52,4
15:16:06:376089,2,1,4,32,-7,-22,-52,4
15:16:06:376887,-17,13,27,12,-13,0,-3,-5
15:16:06:391112,11,11,17,-23,5,17,10,0
15:16:06:391903,11,11,17,-23,5,17,10,0
15:16:06:397932,-16,-2,-13,-10,-15,-19,-35,-7
15:16:06:405448,24,10,-10,40,20,3,2,2
15:16:06:412992,24,10,-10,40,20,3,2,2
15:16:06:420407,3,-5,22,2,-9,18,19,-1
15:16:06:427971,42,6,-12,-21,22,9,22,-4
15:16:06:435924,42,6,-12,-21,22,9,22,-4
15:16:06:442977,5,-14,-15,-7,28,23,39,9
15:16:06:451096,-9,-10,6,-5,-11,-11,-8,-13
15:16:06:451899,-9,-10,6,-5,-11,-11,-8,-13
15:16:06:457972,-3,-13,-43,-12,-10,-14,-31,-7
15:16:06:465431,-6,-7,-16,-18,-14,-8,-21,0
15:16:06:472990,-6,-7,-16,-18,-14,-8,-21,0
15:16:06:480396,-7,22,1,23,29,-13,-14,-1
15:16:06:487911,30,5,6,74,3,-19,1,3
15:16:06:496160,30,5,6,74,3,-19,1,3
15:16:06:496935,-9,-14,-3,-76,-56,6,6,-3
15:16:06:511137,-47,-6,-7,6,19,23,11,1
15:16:06:511959,-47,-6,-7,6,19,23,11,1
15:16:06:517931,-8,-5,-75,-31,-22,-24,-7,-3
15:16:06:525411,-38,-6,1,-12,-12,8,9,11
15:16:06:532979,-38,-6,1,-12,-12,8,9,11
15:16:06:540435,-16,1,-33,32,8,0,-19,-10
15:16:06:547934,18,4,-2,29,7,14,-12,-4
15:16:06:556151,18,4,-2,29,7,14,-12,-4
15:16:06:556913,32,-9,20,36,51,8,-6,4
15:16:06:571107,-18,-11,24,-1,28,-1,2,-1
15:16:06:571887,-18,-11,24,-1,28,-1,2,-1
15:16:06:577901,-21,19,23,16,-3,-11,-14,-16
15:16:06:593670,2,-1,-19,-51,-34,-4,40,5
15:16:06:594436,2,-1,-19,-51,-34,-4,40,5
15:16:06:600406,26,11,2,-14,10,-2,3,4
15:16:06:607918,-19,-14,-1,2,-4,17,-39,-6
15:16:06:615462,-19,-14,-1,2,-4,17,-39,-6
15:16:06:622931,-3,-21,-9,12,8,-2,3,-4
15:16:06:631081,17,9,-3,-12,-1,-8,-12,0
15:16:06:631881,17,9,-3,-12,-1,-8,-12,0
15:16:06:637919,1,-2,57,-4,-44,-24,-20,-3
15:16:06:653591,-18,-10,-59,74,32,-11,0,5
15:16:06:654392,-18,-10,-59,74,32,-11,0,5
15:16:06:660430,20,2,3,13,28,2,-18,6
15:16:06:667922,30,-8,29,-32,-14,-13,1,2
15:16:06:675436,30,-8,29,-32,-14,-13,1,2
15:16:06:682885,-21,13,26,1,-15,13,-15,0
15:16:06:691151,-10,10,16,12,32,23,-24,-12
15:16:06:691903,-10,10,16,12,32,23,-24,-12
15:16:06:697874,17,16,21,-7,12,-4,-2,2
15:16:06:713615,31,4,52,-5,-25,-31,-20,-9
15:16:06:714416,31,4,52,-5,-25,-31,-20,-9
15:16:06:720410,-13,-22,-26,33,8,7,20,3
15:16:06:727889,25,2,-24,-7,-18,-25,7,12
15:16:06:735452,25,2,-24,-7,-18,-25,7,12
15:16:06:742940,-32,-19,1,4,12,11,-42,-12
15:16:06:751104,-9,-6,1,-23,10,21,32,-2
15:16:06:751905,-9,-6,1,-23,10,21,32,-2
15:16:06:757937,-10,14,11,28,-20,-24,4,-3
15:16:06:773659,2,-2,23,11,-10,-4,-18,-2
15:16:06:774448,2,-2,23,11,-10,-4,-18,-2
15:16:06:780408,-4,-5,-25,-27,-10,7,6,-4
15:16:06:787908,-30,-24,-21,-28,19,16,10,-4
15:16:06:795487,-30,-24,-21,-28,19,16,10,-4
15:16:06:802899,6,4,22,-20,-7,-4,17,10
15:16:06:811177,-7,-3,-4,-50,-24,5,2,-9
15:16:06:811953,-7,-3,-4,-50,-24,5,2,-9
15:16:06:817918,16,14,54,13,3,11,22,10
15:16:06:833637,6,15,10,-9,-10,-28,-4,-5
15:16:06:834413,6,15,10,-9,-10,-28,-4,-5
15:16:06:840395,-31,-9,2,7,10,-3,-10,-5
15:16:06:847896,-29,10,-11,-22,-7,-10,1,-3
15:16:06:855472,-29,10,-11,-22,-7,-10,1,-3
15:16:06:862894,-12,-8,5,53,16,-8,-8,-4
15:16:06:871084,-1,-17,-51,11,-29,-23,-4,-4
15:16:06:871885,-1,-17,-51,11,-29,-23,-4,-4
15:16:06:877897,6,3,30,-27,-16,-18,7,-4
15:16:06:893636,-23,-10,32,-1,9,42,-12,-8
15:16:06:894456,-23,-10,32,-1,9,42,-12,-8
15:16:06:900440,0,-4,-59,-25,-13,10,7,0
15:16:06:907906,35,18,33,2,-1,-22,-2,4
15:16:06:915455,35,18,33,2,-1,-22,-2,4
15:16:06:922916,24,11,-23,-20,4,3,10,-8
15:16:06:931066,-7,-4,-41,11,-1,14,-6,-1
15:16:06:931900,-7,-4,-41,11,-1,14,-6,-1
15:16:06:937866,14,-23,-28,15,21,2,11,4
15:16:06:953593,2,-4,-6,2,20,-8,7,1
15:16:06:954398,2,-4,-6,2,20,-8,7,1
15:16:06:960418,-13,3,5,-13,-20,-7,-12,-3
15:16:06:976191,-30,-12,40,22,-16,-30,-24,-4
15:16:06:976964,-30,-12,40,22,-16,-30,-24,-4
15:16:06:982941,27,-7,28,4,-1,-4,19,5
15:16:06:991082,-2,-4,4,0,43,4,42,10
15:16:06:991889,-2,-4,4,0,43,4,42,10
15:16:06:997929,11,11,-33,-60,-30,4,10,3
15:16:07:13651,-12,4,-11,6,-6,-10,-9,1
15:16:07:14481,-12,4,-11,6,-6,-10,-9,1
15:16:07:20409,-9,-10,8,4,-10,7,13,-4
15:16:07:27936,-20,-12,-30,-13,13,12,-11,-4
15:16:07:35404,-20,-12,-30,-13,13,12,-11,-4
15:16:07:42949,-21,4,13,11,13,10,4,4
15:16:07:51063,-27,-28,12,3,-13,-3,-18,-2
15:16:07:51886,-27,-28,12,3,-13,-3,-18,-2
15:16:07:57914,16,12,3,3,10,5,1,6
15:16:07:73643,35,25,-17,18,-6,3,-4,-1
15:16:07:74411,35,25,-17,18,-6,3,-4,-1
15:16:07:80397,-17,-11,-37,21,-8,-11,-21,-11
15:16:07:87946,-2,6,32,-11,-52,-14,10,-2
15:16:07:95482,-2,6,32,-11,-52,-14,10,-2
15:16:07:102887,12,-15,0,-7,38,13,-1,7
15:16:07:111135,29,-8,9,-10,21,-16,-51,-11
15:16:07:111933,29,-8,9,-10,21,-16,-51,-11
15:16:07:117916,-10,8,5,-6,-16,-34,1,-1
15:16:07:133627,7,1,53,-8,-13,-15,-7,0
15:16:07:134418,7,1,53,-8,-13,-15,-7,0
15:16:07:140449,6,2,21,64,31,5,6,-7
15:16:07:147879,6,18,-5,6,14,25,11,2
15:16:07:155532,6,18,-5,6,14,25,11,2
15:16:07:162921,-2,4,38,5,-36,-12,18,-4
15:16:07:171132,-9,-18,-23,-28,-8,3,15,0
15:16:07:171971,-9,-18,-23,-28,-8,3,15,0
15:16:07:177909,-3,13,-8,-7,34,31,-13,4
15:16:07:193667,9,-2,-11,0,-17,-9,-2,0
15:16:07:194434,9,-2,-11,0,-17,-9,-2,0
15:16:07:200382,-2,12,-9,-16,-20,-14,-14,-7
15:16:07:207891,-27,-7,14,16,-12,-10,21,-3
15:16:07:215468,-27,-7,14,16,-12,-10,21,-3
15:16:07:222927,22,16,-9,-20,6,17,0,6
15:16:07:231113,15,-20,6,-5,-4,12,6,-2
15:16:07:231944,15,-20,6,-5,-4,12,6,-2
15:16:07:237945,-1,9,-13,-20,-16,-5,0,9
15:16:07:253599,-15,-4,6,85,7,8,16,-3
15:16:07:254421,-15,-4,6,85,7,8,16,-3
15:16:07:260389,-2,1,4,-28,-10,-17,-8,-2
15:16:07:267886,-7,21,-45,-10,16,4,4,4
15:16:07:275494,-7,21,-45,-10,16,4,4,4
15:16:07:282920,-1,-10,-3,3,-31,-9,2,-4
15:16:07:291584,-19,3,-1,-19,1,-7,-2,0
15:16:07:298600,-19,3,-1,-19,1,-7,-2,0
15:16:07:299393,-19,-35,-39,-25,36,9,24,-1
15:16:07:313581,23,4,-40,-7,10,5,-9,-3
15:16:07:314405,23,4,-40,-7,10,5,-9,-3
15:16:07:320464,-10,-7,-15,-17,-67,-41,-34,-10
15:16:07:327928,45,21,23,38,48,39,3,10
15:16:07:335426,45,21,23,38,48,39,3,10
15:16:07:342964,1,0,-7,13,7,-2,-7,-3
15:16:07:351053,2,-6,12,-43,-24,-10,-3,-3
15:16:07:351904,2,-6,12,-43,-24,-10,-3,-3
15:16:07:357922,1,9,19,50,28,16,13,3
15:16:07:373578,-34,-13,-36,-24,-17,-33,-9,-2
15:16:07:374467,-34,-13,-36,-24,-17,-33,-9,-2
15:16:07:380408,6,5,21,79,67,52,17,4
15:16:07:387986,-17,-2,4,7,25,27,18,4
15:16:07:395477,-17,-2,4,7,25,27,18,4
15:16:07:402882,-9,-4,-38,-18,-34,-36,-47,-18
15:16:07:411134,6,4,16,-25,3,-7,-8,-2
15:16:07:411939,6,4,16,-25,3,-7,-8,-2
15:16:07:417893,-53,-2,46,20,31,3,-1,-6
15:16:07:433606,9,-1,13,-34,12,-5,-6,-5
15:16:07:434391,9,-1,13,-34,12,-5,-6,-5
15:16:07:440394,-18,-16,-14,-23,-20,-26,-20,-3
15:16:07:447877,-4,-7,19,16,22,7,-2,-9
15:16:07:455460,-4,-7,19,16,22,7,-2,-9
15:16:07:462895,6,4,-1,5,-2,-1,-1,8
15:16:07:471143,-1,-2,-37,14,-25,11,-6,-1
15:16:07:471947,-1,-2,-37,14,-25,11,-6,-1
15:16:07:477926,8,17,35,-26,-1,-7,0,-4
15:16:07:493654,27,19,16,0,-6,0,13,3
15:16:07:494416,27,19,16,0,-6,0,13,3
15:16:07:500390,-4,2,-38,-26,-62,-8,2,2
15:16:07:507893,4,-33,-3,11,-2,17,-7,-2
15:16:07:515447,4,-33,-3,11,-2,17,-7,-2
15:16:07:522922,13,-3,4,-2,-5,8,31,-1
15:16:07:531115,0,6,-29,-25,74,16,-21,-6
15:16:07:531932,0,6,-29,-25,74,16,-21,-6
15:16:07:545427,20,3,21,-12,14,11,-28,-2
15:16:07:553615,-11,-1,-40,-40,-61,-31,2,-4
15:16:07:554462,-11,-1,-40,-40,-61,-31,2,-4
15:16:07:560428,11,17,9,-1,-15,-2,-7,1
15:16:07:576172,0,1,-23,41,-27,-10,-5,-2
15:16:07:576959,0,1,-23,41,-27,-10,-5,-2
15:16:07:582918,9,4,17,13,-10,17,-1,-3
15:16:07:598612,-23,0,67,-15,-9,9,41,8
15:16:07:599399,-23,0,67,-15,-9,9,41,8
15:16:07:605383,14,-5,-49,-8,-16,-3,28,10
15:16:07:613610,2,-2,-57,-33,17,3,-26,3
15:16:07:614436,2,-2,-57,-33,17,3,-26,3
15:16:07:620413,-10,-12,17,-46,3,0,3,-6
15:16:07:636093,9,-6,7,65,-21,-29,-9,-3
15:16:07:636948,9,-6,7,65,-21,-29,-9,-3
15:16:07:642893,3,9,70,23,21,4,6,-2
15:16:07:651095,-30,1,10,-18,8,1,-33,-11
15:16:07:651914,-30,1,10,-18,8,1,-33,-11
15:16:07:674326,-17,-12,-40,1,-13,-12,-13,-5
15:16:07:675118,-17,3,58,55,27,2,7,7
15:16:07:675923,-17,3,58,55,27,2,7,7
15:16:07:680432,2,-13,-15,-8,-8,-3,-4,-6
15:16:07:696087,28,11,10,29,-27,13,6,0
15:16:07:696879,28,11,10,29,-27,13,6,0
15:16:07:702884,-3,-9,-21,-5,11,9,-14,1
15:16:07:711066,13,-4,-21,-34,8,-17,14,-1
15:16:07:711901,13,-4,-21,-34,8,-17,14,-1
15:16:07:725455,6,1,-10,-22,4,-7,-8,0
15:16:07:733598,6,1,-10,-22,4,-7,-8,0
15:16:07:734380,6,5,-12,-65,-28,-23,13,0
15:16:07:740419,-18,-19,-47,-19,-13,-28,-18,-7
15:16:07:756159,-18,-19,-47,-19,-13,-28,-18,-7
15:16:07:756974,-52,2,19,-5,-20,3,1,-9
15:16:07:762877,11,9,23,-7,20,-8,16,4
15:16:07:771132,11,9,23,-7,20,-8,16,4
15:16:07:771941,6,-2,-2,27,14,1,3,3
15:16:07:785436,-27,9,16,3,-20,-11,14,-1
15:16:07:793656,-27,9,16,3,-20,-11,14,-1
15:16:07:794478,19,34,-3,-42,-41,-15,-9,-5
15:16:07:800435,15,-6,-14,-14,40,78,-1,-3
15:16:07:824320,15,-6,-14,-14,40,78,-1,-3
15:16:07:825082,11,12,-18,66,15,1,-33,-9
15:16:07:825860,10,3,-18,-15,-11,-18,-5,4
15:16:07:831105,10,3,-18,-15,-11,-18,-5,4
15:16:07:831904,32,-7,-34,-13,-5,11,0,3
15:16:07:845385,-2,-15,3,62,16,-7,-4,1
15:16:07:853633,-2,-15,3,62,16,-7,-4,1
15:16:07:854443,-2,-24,-12,-41,3,-3,-1,-3
15:16:07:860365,-38,-4,-12,2,35,33,14,-2
15:16:07:876187,-38,-4,-12,2,35,33,14,-2
15:16:07:876932,-40,-26,24,14,16,11,19,-4
15:16:07:882875,-14,4,-32,-48,-52,-44,-17,-10
15:16:07:891161,-14,4,-32,-48,-52,-44,-17,-10
15:16:07:891936,1,4,32,-4,-6,5,-9,3
15:16:07:905465,17,8,-22,10,-6,-5,-14,-4
15:16:07:913648,17,8,-22,10,-6,-5,-14,-4
15:16:07:914448,16,24,1,-28,-11,0,8,8
15:16:07:920418,-35,-4,33,-10,-17,7,21,4
15:16:07:936090,-35,-4,33,-10,-17,7,21,4
15:16:07:936915,-3,-21,-1,25,-22,-1,-13,2
15:16:07:942936,-10,16,41,-25,12,5,15,8
15:16:07:951066,-10,16,41,-25,12,5,15,8
15:16:07:951873,10,-8,-43,54,3,-8,8,0
15:16:07:965415,17,-3,-12,-20,-35,-19,-13,-3
15:16:07:973607,17,-3,-12,-20,-35,-19,-13,-3
15:16:07:974398,20,9,-33,-19,-6,-7,19,5
15:16:07:980400,-22,-14,3,15,-12,-1,0,-3
15:16:07:996116,-22,-14,3,15,-12,-1,0,-3
15:16:07:996870,-45,-22,45,-10,21,0,-8,-3
15:16:08:2896,25,-19,15,59,-8,8,13,7
15:16:08:11063,25,-19,15,59,-8,8,13,7
15:16:08:11892,-9,-11,4,-17,-44,-21,-8,-12
15:16:08:25427,36,36,-2,22,51,19,-16,12
15:16:08:33623,36,36,-2,22,51,19,-16,12
15:16:08:34376,4,9,15,-23,2,6,2,-9
15:16:08:40417,15,-9,-41,-52,-19,-14,-23,-15
15:16:08:56128,15,-9,-41,-52,-19,-14,-23,-15
15:16:08:56912,18,1,5,-13,1,-14,-7,1
15:16:08:62923,-2,-11,1,7,35,-6,5,-1
15:16:08:71108,-2,-11,1,7,35,-6,5,-1
15:16:08:71889,-69,-16,-5,-22,0,1,-1,-7
15:16:08:85898,40,11,-61,-22,-9,-9,6,4
15:16:08:93637,40,11,-61,-22,-9,-9,6,4
15:16:08:94440,69,35,-19,-9,14,13,18,12
15:16:08:100414,11,-14,-17,27,-16,-15,-3,2
15:16:08:116147,11,-14,-17,27,-16,-15,-3,2
15:16:08:116955,11,9,10,-24,3,-2,-8,-2
15:16:08:122885,13,-5,41,-14,50,47,11,1
15:16:08:131063,13,-5,41,-14,50,47,11,1
15:16:08:131911,2,-21,-12,5,17,9,4,9
15:16:08:145437,-10,0,54,-6,-4,-13,-28,-11
15:16:08:153648,-10,0,54,-6,-4,-13,-28,-11
15:16:08:154451,-1,23,29,12,-9,11,2,3
15:16:08:167905,-48,-6,-3,-28,-35,-20,1,-6
15:16:08:176110,-48,-6,-3,-28,-35,-20,1,-6
15:16:08:176973,3,5,1,47,36,-1,4,0
15:16:08:182952,-18,-1,-61,27,22,5,-29,-13
15:16:08:191136,-18,-1,-61,27,22,5,-29,-13
15:16:08:191909,-15,-39,35,-3,0,-8,1,-7
15:16:08:205402,22,10,-5,14,10,-1,-5,3
15:16:08:213603,22,10,-5,14,10,-1,-5,3
15:16:08:214454,40,24,-15,16,3,7,4,3
15:16:08:220396,-18,-10,45,-13,-18,-11,13,-3
15:16:08:236109,-18,-10,45,-13,-18,-11,13,-3
15:16:08:236920,-11,10,33,21,7,9,0,-2
15:16:08:242916,-40,-3,0,-22,-45,3,18,12
15:16:08:251153,-40,-3,0,-22,-45,3,18,12
15:16:08:251916,19,5,4,12,32,44,26,7
15:16:08:265428,23,14,-1,21,2,-4,15,2
15:16:08:273641,23,14,-1,21,2,-4,15,2
15:16:08:274431,-10,4,-5,21,-4,-34,-35,-11
15:16:08:280381,7,-8,-11,14,-10,-3,1,0
15:16:08:296172,7,-8,-11,14,-10,-3,1,0
15:16:08:296907,3,-6,-10,-17,35,-19,-9,-7
15:16:08:302866,7,-12,-3,13,16,-8,-4,0
15:16:08:311153,7,-12,-3,13,16,-8,-4,0
15:16:08:311951,-20,-5,-6,1,-15,-8,3,-2
15:16:08:325472,7,6,-17,6,7,8,11,2
15:16:08:333649,7,6,-17,6,7,8,11,2
15:16:08:334390,-7,-2,-34,-63,-46,-14,-4,4
15:16:08:340406,-15,-3,21,24,-21,15,-7,-13
15:16:08:356081,-15,-3,21,24,-21,15,-7,-13
15:16:08:356945,7,-10,-5,5,-19,-7,20,-1
15:16:08:362918,10,6,-7,-3,13,15,26,-15
15:16:08:371142,10,6,-7,-3,13,15,26,-15
15:16:08:371908,-7,-6,-39,-4,5,3,8,8
15:16:08:385414,4,-3,56,2,1,4,21,10
15:16:08:393652,4,-3,56,2,1,4,21,10
15:16:08:394416,-2,-13,-12,4,-27,1,-4,-4
15:16:08:400410,5,18,-16,-13,14,0,-21,-1
15:16:08:416136,5,18,-16,-13,14,0,-21,-1
15:16:08:416886,-13,-16,11,24,11,-9,-11,2
15:16:08:422949,0,-11,16,18,12,7,-10,1
15:16:08:431109,0,-11,16,18,12,7,-10,1
15:16:08:431905,-16,-4,-13,11,9,34,8,-7
15:16:08:445422,-13,-8,11,-81,-32,-21,-15,0
15:16:08:453630,-13,-8,11,-81,-32,-21,-15,0
15:16:08:454433,3,2,13,-1,10,0,-11,-5
15:16:08:460415,25,-10,-2,-25,-18,-4,-23,-8
15:16:08:476163,25,-10,-2,-25,-18,-4,-23,-8
15:16:08:476864,-1,0,20,-7,57,25,62,10
15:16:08:482893,-24,-5,7,27,6,-15,-4,-1
15:16:08:490485,-24,-5,7,27,6,-15,-4,-1
15:16:08:497831,-1,14,33,14,-33,-39,-35,-6
15:16:08:505407,0,4,13,-9,13,15,17,2
15:16:08:513577,0,4,13,-9,13,15,17,2
15:16:08:514372,15,-9,-15,-12,-41,-15,-17,-1
15:16:08:527891,12,1,4,3,-13,-9,-28,5
15:16:08:536085,12,1,4,3,-13,-9,-28,5
15:16:08:536892,13,1,-19,-7,-23,-3,-11,7
15:16:08:542899,11,0,-16,60,-4,-10,6,4
15:16:08:550469,11,0,-16,60,-4,-10,6,4
15:16:08:557890,30,25,-6,12,8,-8,-12,-14
15:16:08:565395,24,-20,-3,9,2,-22,-3,-5
15:16:08:573664,24,-20,-3,9,2,-22,-3,-5
15:16:08:574410,4,-19,-19,-14,13,-10,32,19
15:16:08:587986,-22,11,29,-10,2,-6,9,-7
15:16:08:596160,-22,11,29,-10,2,-6,9,-7
15:16:08:596884,6,8,8,-37,2,7,-27,-7
15:16:08:602890,-13,2,-7,-13,-2,-1,-10,1
15:16:08:610454,-13,2,-7,-13,-2,-1,-10,1
15:16:08:617950,1,15,10,-35,-26,-6,-19,-7
15:16:08:625410,-8,-13,-7,-12,-12,22,22,-5
15:16:08:633636,-8,-13,-7,-12,-12,22,22,-5
15:16:08:634410,-73,-32,10,22,17,10,-4,17
15:16:08:647895,12,-3,-16,3,-10,-9,6,9
15:16:08:656117,12,-3,-16,3,-10,-9,6,9
15:16:08:656922,4,16,21,21,-14,-9,-31,-15
15:16:08:662888,-5,-2,-5,-12,35,20,-4,1
15:16:08:670459,-5,-2,-5,-12,35,20,-4,1
15:16:08:686070,1,-3,-22,19,24,4,6,0
15:16:08:686836,20,-1,-18,4,-9,-15,-6,-5
15:16:08:693652,20,-1,-18,4,-9,-15,-6,-5
15:16:08:694472,-50,-6,-5,-11,21,-16,7,-6
15:16:08:707911,5,11,1,-17,4,4,14,5
15:16:08:716089,5,11,1,-17,4,4,14,5
15:16:08:716955,16,5,-1,7,-16,1,-6,0
15:16:08:722910,-17,-9,-23,0,-2,1,-41,-1
15:16:08:730448,-17,-9,-23,0,-2,1,-41,-1
15:16:08:737932,5,3,-11,-34,-35,-12,-7,-2
15:16:08:745427,7,-2,5,50,56,24,-20,-6
15:16:08:753672,7,-2,5,50,56,24,-20,-6
15:16:08:754440,-8,-8,-10,-6,18,25,7,-6
15:16:08:767881,-4,7,-21,-15,-18,-18,1,4
15:16:08:776161,-4,7,-21,-15,-18,-18,1,4
15:16:08:776907,3,-4,37,-19,-20,-10,7,0
15:16:08:782897,-2,3,18,2,4,4,15,-3
15:16:08:790538,-2,3,18,2,4,4,15,-3
15:16:08:797947,-24,3,3,-23,15,6,16,-6
15:16:08:805385,9,-3,4,-11,4,1,25,-5
15:16:08:813610,9,-3,4,-11,4,1,25,-5
15:16:08:814399,0,6,0,-9,1,-1,-16,4
15:16:08:827948,-32,-14,37,15,-9,-14,-7,-17
15:16:08:836142,-32,-14,37,15,-9,-14,-7,-17
15:16:08:836939,12,0,-45,-30,2,-1,3,-2
15:16:08:842924,-1,14,4,-22,-18,-5,-5,1
15:16:08:850448,-1,14,4,-22,-18,-5,-5,1
15:16:08:857937,-2,-13,-6,-3,6,8,-15,5
15:16:08:865406,-8,-3,17,-3,-7,-16,-67,-19
15:16:08:873631,-8,-3,17,-3,-7,-16,-67,-19
15:16:08:874416,-60,-37,7,19,-22,-4,13,4
15:16:08:887959,-11,-26,-36,-21,9,-12,-10,-3
15:16:08:896114,-11,-26,-36,-21,9,-12,-10,-3
15:16:08:896884,28,5,19,-1,10,16,-9,1
15:16:08:902929,-27,-10,24,-37,-60,-6,-2,-7
15:16:08:910462,-27,-10,24,-37,-60,-6,-2,-7
15:16:08:917936,-8,11,11,7,-13,9,18,2
15:16:08:925422,-2,5,-53,-27,-7,16,27,6
15:16:08:933645,-2,5,-53,-27,-7,16,27,6
15:16:08:934442,-11,7,2,9,-16,-15,-12,-12
15:16:08:947969,-4,-7,-13,7,-11,12,12,5
15:16:08:964282,-4,-7,-13,7,-11,12,12,5
15:16:08:965091,38,-1,17,26,21,4,-7,0
15:16:08:965870,15,6,-16,-1,-4,-21,5,6
15:16:08:970458,15,6,-16,-1,-4,-21,5,6
15:16:08:977878,20,19,12,-45,-36,12,13,-2
15:16:08:985358,7,-25,9,10,14,6,-19,-6
15:16:08:993647,7,-25,9,10,14,6,-19,-6
15:16:08:994422,10,17,-3,18,-15,-19,-5,5
15:16:09:7985,-7,15,16,9,9,7,5,4
15:16:09:16102,-7,15,16,9,9,7,5,4
15:16:09:16922,-4,-5,12,19,5,-21,-17,-3
15:16:09:22869,-30,11,0,13,2,10,-7,2
15:16:09:30466,-30,11,0,13,2,10,-7,2
15:16:09:37913,3,-13,-13,11,18,-3,-3,-10
15:16:09:45385,40,-1,4,0,26,8,-5,24
15:16:09:53634,40,-1,4,0,26,8,-5,24
15:16:09:54403,-11,18,-35,-15,25,-2,-16,-4
15:16:09:67862,-40,-9,-34,15,2,-8,4,-5
15:16:09:76166,-40,-9,-34,15,2,-8,4,-5
15:16:09:76918,14,-1,22,28,-10,-9,2,0
15:16:09:82911,21,18,2,38,-5,-11,-5,-7
15:16:09:90474,21,18,2,38,-5,-11,-5,-7
15:16:09:97893,-17,-26,-1,5,29,27,26,-2
15:16:09:105400,-18,0,30,11,-4,-9,33,1
15:16:09:113632,-18,0,30,11,-4,-9,33,1
15:16:09:114434,-3,12,-5,-13,-44,-21,-21,-9
15:16:09:127930,33,-5,-3,11,22,-3,-25,-5
15:16:09:136124,33,-5,-3,11,22,-3,-25,-5
15:16:09:136956,25,15,-6,-6,2,3,8,5
15:16:09:142870,-1,4,0,-4,61,19,7,0
15:16:09:150459,-1,4,0,-4,61,19,7,0
15:16:09:157966,12,-7,-41,-37,-16,-15,2,0
15:16:09:165373,-42,-4,-39,-8,-28,-27,-26,-21
15:16:09:173607,-42,-4,-39,-8,-28,-27,-26,-21
15:16:09:174382,13,2,6,9,4,-5,-24,8
15:16:09:187913,8,-10,-32,-24,-31,-3,-6,-7
15:16:09:196192,8,-10,-32,-24,-31,-3,-6,-7
15:16:09:196925,-14,-12,-25,15,1,-8,6,-3
15:16:09:202883,-7,-9,27,-17,-29,-1,5,1
15:16:09:210452,-7,-9,27,-17,-29,-1,5,1
15:16:09:217933,-4,3,0,14,19,29,12,9
15:16:09:225449,23,15,-67,-11,76,28,13,5
15:16:09:241179,23,15,-67,-11,76,28,13,5
15:16:09:241965,0,5,-4,17,21,19,97,31
15:16:09:247884,-11,-21,19,-9,-41,-19,10,1
15:16:09:256148,-11,-21,19,-9,-41,-19,10,1
15:16:09:256879,8,-8,3,-18,-25,-3,-38,-15
15:16:09:262918,16,17,41,12,-6,20,14,8
15:16:09:270497,16,17,41,12,-6,20,14,8
15:16:09:277871,-41,-19,18,-6,-22,-13,-10,-12
15:16:09:285355,2,17,27,14,18,-4,-10,-4
15:16:09:293635,2,17,27,14,18,-4,-10,-4
15:16:09:294430,-2,10,10,12,28,26,13,5
15:16:09:307942,-34,-15,-23,-12,-27,-25,-17,-5
15:16:09:316092,-34,-15,-23,-12,-27,-25,-17,-5
15:16:09:316938,10,-3,-13,8,-16,-12,-18,-2
15:16:09:322872,43,7,23,25,-3,3,19,16
15:16:09:330425,43,7,23,25,-3,3,19,16
15:16:09:337929,-4,-12,20,-13,-2,-6,-28,-8
15:16:09:345413,20,-16,-19,1,17,-7,-7,0
15:16:09:353704,20,-16,-19,1,17,-7,-7,0
15:16:09:354427,-14,-18,-5,-10,23,-9,-9,-9
15:16:09:367907,14,-7,-29,-19,-9,-1,4,8
15:16:09:376174,14,-7,-29,-19,-9,-1,4,8
15:16:09:376927,16,18,5,12,13,-5,-10,0
15:16:09:382883,-1,10,65,-3,-8,-4,-21,-8
15:16:09:390516,-1,10,65,-3,-8,-4,-21,-8
15:16:09:397895,22,0,3,9,-13,-10,5,2
15:16:09:405390,3,4,27,29,-27,-7,2,0
15:16:09:413651,3,4,27,29,-27,-7,2,0
15:16:09:414467,-3,-10,15,9,-5,-3,3,1
15:16:09:427932,-9,13,-5,-22,-6,4,14,-6
15:16:09:436125,-9,13,-5,-22,-6,4,14,-6
15:16:09:436936,-26,2,-13,-1,9,16,3,1
15:16:09:451161,-17,-2,24,-12,-29,6,17,-2
15:16:09:451936,-17,-2,24,-12,-29,6,17,-2
15:16:09:457896,-39,21,10,3,-8,-2,-21,-15
15:16:09:465371,-27,-22,6,-10,22,9,8,4
15:16:09:472953,-27,-22,6,-10,22,9,8,4
15:16:09:480376,-20,-5,24,17,20,21,-4,-5
15:16:09:487898,-9,8,-23,6,10,3,-20,-4
15:16:09:496107,-9,8,-23,6,10,3,-20,-4
15:16:09:496910,-18,-22,-44,-48,-31,-26,-2,-4
15:16:09:519272,-34,-12,-16,-3,-3,0,-6,-5
15:16:09:520049,-34,-12,-16,-3,-3,0,-6,-5
15:16:09:520922,-13,-18,5,29,13,-6,-5,2
15:16:09:525400,23,2,-21,9,13,-7,-5,1
15:16:09:532993,23,2,-21,9,13,-7,-5,1
15:16:09:540447,22,8,-18,-15,3,2,2,-21
15:16:09:547916,8,14,-25,23,-12,11,44,13
15:16:09:556115,8,14,-25,23,-12,11,44,13
15:16:09:556922,40,1,-5,-20,-35,-6,-12,7
15:16:09:571149,-2,-14,34,-47,-15,18,-9,-12
15:16:09:571935,-2,-14,34,-47,-15,18,-9,-12
15:16:09:577894,24,5,4,7,26,24,5,-2
15:16:09:585385,25,20,-39,-11,14,9,13,14
15:16:09:592982,25,20,-39,-11,14,9,13,14
15:16:09:600432,6,-3,-15,-7,-1,-8,18,2
15:16:09:616789,22,-2,-16,-18,-17,-24,-29,2
15:16:09:617584,22,-2,-16,-18,-17,-24,-29,2
15:16:09:618381,-37,7,8,11,-4,-6,13,-1
15:16:09:631111,-9,3,9,-10,-13,-29,-18,-14
15:16:09:631896,-9,3,9,-10,-13,-29,-18,-14
15:16:09:637920,-47,-32,2,-25,10,12,-7,-3
15:16:09:645391,-10,-12,-32,32,3,8,2,0
15:16:09:652975,-10,-12,-32,32,3,8,2,0
15:16:09:660418,41,5,-10,48,-21,2,-7,5
15:16:09:667895,-6,0,1,-7,-6,22,3,-4
15:16:09:676155,-6,0,1,-7,-6,22,3,-4
15:16:09:676931,-5,13,-5,-15,-9,0,-7,-13
15:16:09:691123,-29,-6,16,31,5,-16,-8,-7
15:16:09:691954,-29,-6,16,31,5,-16,-8,-7
15:16:09:697896,-20,14,21,-22,-7,-8,-5,2
15:16:09:705419,-48,1,1,-2,-6,-8,-7,-10
15:16:09:713009,-48,1,1,-2,-6,-8,-7,-10
15:16:09:720424,28,-10,-9,0,32,23,9,3
15:16:09:727888,34,11,11,3,30,11,16,10
15:16:09:736046,34,11,11,3,30,11,16,10
15:16:09:736889,-9,-14,-51,-25,-43,-33,-10,-1
15:16:09:751147,-8,-7,3,-6,-8,8,-29,-6
15:16:09:751945,-8,-7,3,-6,-8,8,-29,-6
15:16:09:757928,13,7,0,7,22,16,56,19
15:16:09:765408,13,-1,-13,1,16,15,6,-3
15:16:09:772917,13,-1,-13,1,16,15,6,-3
15:16:09:780402,45,10,2,0,-9,-15,-23,4
15:16:09:796706,19,9,31,4,-53,-14,1,1
15:16:09:797529,19,9,31,4,-53,-14,1,1
15:16:09:798334,-5,-19,-34,-7,17,28,2,-2
15:16:09:811139,-3,-6,0,-41,-11,-10,0,-2
15:16:09:811950,-3,-6,0,-41,-11,-10,0,-2
15:16:09:817923,-13,15,-7,5,-2,-3,22,9
15:16:09:825417,-35,-10,-29,-35,10,-8,3,-7
15:16:09:832979,-35,-10,-29,-35,10,-8,3,-7
15:16:09:840438,-11,7,-13,-1,30,4,-15,-17
15:16:09:847933,17,10,1,-10,-11,-4,22,5
15:16:09:863625,17,10,1,-10,-11,-4,22,5
15:16:09:864432,3,-14,0,6,-12,-14,-15,3
15:16:09:871075,19,5,-19,35,27,-13,-8,7
15:16:09:871878,19,5,-19,35,27,-13,-8,7
15:16:09:877915,-6,-11,4,2,-10,-31,-11,-6
15:16:09:885450,15,-6,23,24,25,-5,-9,-2
15:16:09:892941,15,-6,23,24,25,-5,-9,-2
15:16:09:900431,3,4,8,20,-14,-12,-3,-1
15:16:09:907954,15,10,38,41,-13,-16,-39,2
15:16:09:916085,15,10,38,41,-13,-16,-39,2
15:16:09:916900,-17,3,-27,3,3,-1,2,14
15:16:09:931056,-1,5,-3,-11,17,25,-4,-4
15:16:09:931905,-1,5,-3,-11,17,25,-4,-4
15:16:09:937911,-66,-14,19,-14,-29,-14,-20,-16
15:16:09:945416,-17,-7,0,-16,-10,4,10,5
15:16:09:952952,-17,-7,0,-16,-10,4,10,5
15:16:09:960407,8,14,27,6,-17,16,24,-1
15:16:09:967888,8,-11,0,-14,5,2,-4,-9
15:16:09:976122,8,-11,0,-14,5,2,-4,-9
15:16:09:976932,16,1,-13,0,-20,-19,4,4
15:16:09:991093,17,-2,-38,0,-11,-6,11,3
15:16:09:991922,17,-2,-38,0,-11,-6,11,3
15:16:09:997879,-15,-50,13,8,-25,-1,-9,-6
15:16:10:5409,0,2,-1,-5,12,2,8,2
15:16:10:12949,0,2,-1,-5,12,2,8,2
15:16:10:20377,12,13,33,55,24,5,-4,-4
15:16:10:27867,-38,-24,48,-16,-46,-11,6,3
15:16:10:36096,-38,-24,48,-16,-46,-11,6,3
15:16:10:36915,6,5,9,-30,16,19,8,7
15:16:10:51085,41,22,-29,-4,-22,-1,3,4
15:16:10:51898,41,22,-29,-4,-22,-1,3,4
15:16:10:57892,38,-20,-15,-1,35,37,8,-2
15:16:10:73674,25,-2,-2,-4,2,-12,0,-15
15:16:10:74423,25,-2,-2,-4,2,-12,0,-15
15:16:10:80367,35,19,-34,8,-7,-14,0,2
15:16:10:87904,-16,-7,25,-5,-6,-6,1,-10
15:16:10:96114,-16,-7,25,-5,-6,-6,1,-10
15:16:10:96905,-11,2,23,-31,3,21,-2,0
15:16:10:111587,-28,-13,-7,8,-1,11,-11,-1
15:16:10:112361,-28,-13,-7,8,-1,11,-11,-1
15:16:10:126139,8,-3,9,-5,33,-18,8,4
15:16:10:126937,-11,-10,7,-3,-14,8,16,-2
15:16:10:132932,-11,-10,7,-3,-14,8,16,-2
15:16:10:140502,32,15,12,2,-10,7,-1,0
15:16:10:147942,8,7,-65,10,16,9,-4,2
15:16:10:156132,8,7,-65,10,16,9,-4,2
15:16:10:156918,-35,2,10,-18,-22,-17,2,-8
15:16:10:171559,-15,15,15,29,27,15,5,1
15:16:10:172376,-15,15,15,29,27,15,5,1
15:16:10:177927,-40,-24,-19,-4,29,-1,-17,2
15:16:10:185408,5,-8,11,7,-4,-47,-3,8
15:16:10:192989,5,-8,11,7,-4,-47,-3,8
15:16:10:200381,22,23,26,6,26,36,6,6
15:16:10:207876,0,10,-20,-71,-5,-1,-7,-4
15:16:10:216077,0,10,-20,-71,-5,-1,-7,-4
15:16:10:216929,-14,-9,-24,-3,-32,-36,-19,-6
15:16:10:231060,21,5,8,-8,0,13,0,1
15:16:10:231910,21,5,8,-8,0,13,0,1
15:16:10:237867,-18,-6,-9,-23,-51,-28,2,-10
15:16:10:245376,-38,-24,-3,-3,28,66,76,12
15:16:10:252956,-38,-24,-3,-3,28,66,76,12
15:16:10:260421,-11,1,25,27,8,-11,-17,-11
15:16:10:267873,-14,4,-11,-9,-37,-32,-22,-8
15:16:10:276133,-14,4,-11,-9,-37,-32,-22,-8
15:16:10:276912,17,-6,77,18,0,4,-16,-3
15:16:10:291154,20,3,46,33,37,0,-16,-3
15:16:10:291920,20,3,46,33,37,0,-16,-3
15:16:10:297856,16,6,-19,-52,-24,-16,-22,-4
15:16:10:305499,-57,-24,-8,-25,-32,-11,1,-1
15:16:10:312980,-57,-24,-8,-25,-32,-11,1,-1
15:16:10:320408,-6,-12,-37,2,2,6,-1,-4
15:16:10:327899,30,19,-2,26,40,14,51,13
15:16:10:336123,30,19,-2,26,40,14,51,13
15:16:10:336946,-4,-5,-24,-13,22,9,8,5
15:16:10:351101,-4,-1,12,34,-39,-22,-28,-9
15:16:10:351899,-4,-1,12,34,-39,-22,-28,-9
15:16:10:357918,-2,9,18,4,9,7,9,-1
15:16:10:365425,-43,-18,-8,-10,-6,5,-9,-5
15:16:10:372990,-43,-18,-8,-10,-6,5,-9,-5
15:16:10:380405,14,-5,-65,3,2,-9,-28,-3
15:16:10:387863,14,-5,-23,-17,2,-13,-7,8
15:16:10:395442,14,-5,-23,-17,2,-13,-7,8
15:16:10:402909,-27,7,10,7,31,31,20,4
15:16:10:410851,23,2,-17,-10,24,0,-10,1
15:16:10:418576,23,2,-17,-10,24,0,-10,1
15:16:10:419381,-5,4,1,7,-15,-21,4,-3
15:16:10:433605,55,22,7,7,12,3,-17,1
15:16:10:434374,55,22,7,7,12,3,-17,1
15:16:10:440425,-5,1,15,15,44,-5,12,-2
15:16:10:447942,20,2,7,14,-16,-11,-6,-5
15:16:10:455448,20,2,7,14,-16,-11,-6,-5
15:16:10:462905,10,15,8,2,-16,0,-4,-3
15:16:10:471153,-70,-6,14,-15,4,14,0,-19
15:16:10:471918,-70,-6,14,-15,4,14,0,-19
15:16:10:477893,-10,-9,22,70,-17,-1,-5,0
15:16:10:493617,10,4,-4,-30,-24,-6,0,-2
15:16:10:494412,10,4,-4,-30,-24,-6,0,-2
15:16:10:500395,7,11,-11,12,52,12,-8,-5
15:16:10:507926,1,-14,-4,38,55,20,-8,-9
15:16:10:515455,1,-14,-4,38,55,20,-8,-9
15:16:10:522884,-7,-4,16,-31,-13,-20,18,3
15:16:10:531100,-47,-2,8,-13,-18,-10,21,7
15:16:10:531908,-47,-2,8,-13,-18,-10,21,7
15:16:10:537922,37,11,6,-61,-44,-7,-12,6
15:16:10:553664,2,14,-2,-26,-21,-10,-26,-8
15:16:10:554474,2,14,-2,-26,-21,-10,-26,-8
15:16:10:560394,7,2,17,-14,1,-15,-4,8
15:16:10:567896,8,15,-70,-17,5,-25,-17,-15
15:16:10:575470,8,15,-70,-17,5,-25,-17,-15
15:16:10:582916,21,-10,4,-13,5,17,13,3
15:16:10:591133,-12,1,0,-6,-52,-20,6,1
15:16:10:591933,-12,1,0,-6,-52,-20,6,1
15:16:10:597893,-49,-18,20,1,-22,3,8,-3
15:16:10:613618,-8,5,34,-1,-41,-10,-10,-3
15:16:10:614462,-8,5,34,-1,-41,-10,-10,-3
15:16:10:620406,-34,-9,-23,-15,19,51,-18,1
15:16:10:627906,-36,-24,15,21,23,14,-3,-7
15:16:10:635490,-36,-24,15,21,23,14,-3,-7
15:16:10:642986,6,-7,-41,21,-25,-18,2,-6
15:16:10:651137,14,-26,28,-54,-13,-7,-6,7
15:16:10:651891,14,-26,28,-54,-13,-7,-6,7
15:16:10:665435,-4,5,7,2,-5,7,0,-2
15:16:10:673564,-4,0,13,17,25,8,8,8
15:16:10:674384,-4,0,13,17,25,8,8,8
15:16:10:680378,0,5,1,22,-13,-13,11,2
15:16:10:687896,-31,-25,-46,-14,-30,-15,-12,0
15:16:10:695437,-31,-25,-46,-14,-30,-15,-12,0
15:16:10:702910,-29,-10,-24,45,56,5,0,-3
15:16:10:711093,33,3,-30,-3,11,-24,-18,-3
15:16:10:711905,33,3,-30,-3,11,-24,-18,-3
15:16:10:717835,-5,-8,3,-53,-23,-24,-40,-14
15:16:10:733601,12,6,26,6,-1,-3,5,5
15:16:10:734383,12,6,26,6,-1,-3,5,5
15:16:10:740430,6,-6,3,-9,7,-7,7,7
15:16:10:747936,12,-3,8,39,2,5,-21,-22
15:16:10:755408,12,-3,8,39,2,5,-21,-22
15:16:10:762894,-19,-9,28,4,1,0,-3,2
15:16:10:771086,26,-2,-21,-30,15,9,15,8
15:16:10:771888,26,-2,-21,-30,15,9,15,8
15:16:10:777905,41,12,-12,-8,-45,-6,0,0
15:16:10:793610,-22,-10,-10,4,29,49,13,4
15:16:10:794416,-22,-10,-10,4,29,49,13,4
15:16:10:800365,-16,-7,-14,-23,-5,2,14,-1
15:16:10:807921,-16,-6,-7,9,20,-31,-42,6
15:16:10:815440,-16,-6,-7,9,20,-31,-42,6
15:16:10:822903,18,8,0,-29,7,-9,10,9
15:16:10:831111,28,11,-5,41,9,-3,7,-11
15:16:10:831919,28,11,-5,41,9,-3,7,-11
15:16:10:837921,2,-11,-20,-18,-17,0,-10,-6
15:16:10:853651,-37,8,12,15,21,27,0,0
15:16:10:854461,-37,8,12,15,21,27,0,0
15:16:10:860381,39,12,12,25,-9,1,19,0
15:16:10:867876,45,15,46,13,1,-14,15,9
15:16:10:875562,45,15,46,13,1,-14,15,9
15:16:10:882873,-10,-27,11,4,9,-5,-17,-8
15:16:10:891112,11,2,11,-22,-37,-11,14,6
15:16:10:891872,11,2,11,-22,-37,-11,14,6
15:16:10:897902,9,9,-4,4,11,17,-2,-3
15:16:10:913621,-43,-19,-68,9,31,17,-19,-3
15:16:10:914447,-43,-19,-68,9,31,17,-19,-3
15:16:10:920404,5,15,7,13,-11,-12,33,11
15:16:10:927872,23,2,-10,-86,-57,-23,2,-1
15:16:10:935459,23,2,-10,-86,-57,-23,2,-1
15:16:10:942917,-25,5,-26,-6,29,12,-14,-7
15:16:10:951091,-20,11,6,21,-10,-25,-10,1
15:16:10:951895,-20,11,6,21,-10,-25,-10,1
15:16:10:957964,31,-6,-2,3,-25,16,-4,2
15:16:10:973597,-17,4,20,1,3,32,28,2
15:16:10:974394,-17,4,20,1,3,32,28,2
15:16:10:980410,-2,-5,2,13,-22,-36,-4,-4
15:16:10:987940,25,1,-31,32,15,32,5,8
15:16:10:995460,25,1,-31,32,15,32,5,8
15:16:11:2977,-9,-8,9,-20,-20,-15,-32,-12
15:16:11:11111,-4,4,6,-11,-11,-23,-14,-7
15:16:11:11924,-4,4,6,-11,-11,-23,-14,-7
15:16:11:17918,-18,0,33,-10,16,14,30,10
15:16:11:33653,-6,-11,-10,93,36,8,7,-2
15:16:11:34429,-6,-11,-10,93,36,8,7,-2
15:16:11:40428,-22,-3,-27,33,-11,-4,-4,-5
15:16:11:47934,37,3,-2,-39,-13,-23,-3,-5
15:16:11:55476,37,3,-2,-39,-13,-23,-3,-5
15:16:11:62915,12,6,-11,-19,16,7,10,5
15:16:11:71145,12,6,-11,-19,16,7,10,5
15:16:11:71944,42,8,-4,1,30,27,10,-3
15:16:11:77917,-1,19,-13,-5,23,1,-5,-13
15:16:11:93659,-1,19,-13,-5,23,1,-5,-13
15:16:11:94435,24,16,16,-8,-8,-9,26,16
15:16:11:100401,2,-1,-14,23,-3,-6,-19,-4
15:16:11:116125,2,-1,-14,23,-3,-6,-19,-4
15:16:11:116953,-16,-18,-19,-41,-9,0,-4,-6
15:16:11:122904,-16,3,1,-23,-25,-21,-23,-3
15:16:11:131114,-16,3,1,-23,-25,-21,-23,-3
15:16:11:131895,-32,-14,-8,8,-4,4,-9,-5
15:16:11:137908,21,9,4,-14,9,8,-12,-1
15:16:11:153664,21,9,4,-14,9,8,-12,-1
15:16:11:154410,-42,0,0,-7,-56,-49,-26,-2
15:16:11:160398,-4,-8,0,22,56,52,19,5
15:16:11:176159,-4,-8,0,22,56,52,19,5
15:16:11:176911,7,-18,-19,-4,-22,-23,-21,-4
15:16:11:182932,18,20,14,-16,-33,-23,-27,2
15:16:11:191128,18,20,14,-16,-33,-23,-27,2
15:16:11:191903,14,-7,18,65,-1,-11,-11,-12
15:16:11:197879,-21,-14,5,9,-4,-7,-1,-10
15:16:11:213627,-21,-14,5,9,-4,-7,-1,-10
15:16:11:214393,13,16,13,22,27,8,2,4
15:16:11:220483,-5,5,4,13,-20,2,-21,-10
15:16:11:236111,-5,5,4,13,-20,2,-21,-10
15:16:11:236911,12,4,16,6,28,16,21,19
15:16:11:242940,0,0,-14,-13,-17,-27,2,-3
15:16:11:251126,0,0,-14,-13,-17,-27,2,-3
15:16:11:251873,3,1,-2,-15,45,19,-23,-2
15:16:11:257883,19,-11,6,-17,22,16,18,10
15:16:11:273654,19,-11,6,-17,22,16,18,10
15:16:11:274389,44,24,-6,-16,-17,1,8,-3
15:16:11:280379,-32,-7,-45,-31,21,1,28,3
15:16:11:296160,-32,-7,-45,-31,21,1,28,3
15:16:11:296898,-43,-11,15,8,3,-7,-25,-10
15:16:11:302941,10,-22,11,3,4,14,41,6
15:16:11:311116,10,-22,11,3,4,14,41,6
15:16:11:311877,28,22,2,-17,-39,4,-2,-21
15:16:11:325452,3,5,-5,33,-11,-8,-24,-8
15:16:11:333637,3,5,-5,33,-11,-8,-24,-8
15:16:11:334407,16,0,-1,-4,-11,-13,9,-1
15:16:11:340401,-3,3,-40,-43,30,-1,-4,4
15:16:11:356188,-3,3,-40,-43,30,-1,-4,4
15:16:11:356895,-15,-6,22,0,-44,-20,-5,-2
15:16:11:362923,-21,-9,10,-4,-7,2,1,0
15:16:11:371147,-21,-9,10,-4,-7,2,1,0
15:16:11:371924,-10,0,21,-31,14,11,16,3
15:16:11:385401,-6,-3,-13,-13,-54,-29,-26,-10
15:16:11:393673,-6,-3,-13,-13,-54,-29,-26,-10
15:16:11:394462,27,5,3,-2,18,41,31,10
15:16:11:400421,-24,-23,-6,-4,-16,11,19,4
15:16:11:416116,-24,-23,-6,-4,-16,11,19,4
15:16:11:416956,-33,-18,-21,12,27,23,15,-5
15:16:11:422868,19,4,2,-2,-18,-22,-37,-3
15:16:11:431138,19,4,2,-2,-18,-22,-37,-3
15:16:11:431953,13,12,11,0,13,-7,-8,1
15:16:11:445403,8,13,22,43,-6,-3,10,-4
15:16:11:453608,8,13,22,43,-6,-3,10,-4
15:16:11:454461,-5,-12,1,59,-9,-15,-19,-2
15:16:11:460425,1,20,17,41,38,30,10,-2
15:16:11:476181,1,20,17,41,38,30,10,-2
15:16:11:476956,-13,-16,-27,-23,-37,-22,0,-2
15:16:11:482890,40,14,14,7,-3,-6,-8,-4
15:16:11:491184,40,14,14,7,-3,-6,-8,-4
15:16:11:491946,-30,-8,-3,-46,-29,-18,-8,-1
15:16:11:505390,-9,14,22,-52,18,17,-7,-4
15:16:11:513590,-9,14,22,-52,18,17,-7,-4
15:16:11:514411,-19,-5,27,39,48,52,13,1
15:16:11:520394,-24,-14,-1,51,43,-9,-2,2
15:16:11:536119,-24,-14,-1,51,43,-9,-2,2
15:16:11:536903,21,-5,0,-5,-1,-6,-8,2
15:16:11:542917,8,-15,9,-25,-30,-21,-1,-4
15:16:11:558631,8,-15,9,-25,-30,-21,-1,-4
15:16:11:559401,-12,5,2,-5,6,7,0,-3
15:16:11:565445,-6,-15,-7,-11,11,-5,7,2
15:16:11:573595,-6,-15,-7,-11,11,-5,7,2
15:16:11:574437,-16,2,15,-6,15,7,-10,-3
15:16:11:580359,-4,13,23,7,5,4,43,4
15:16:11:596116,-4,13,23,7,5,4,43,4
15:16:11:596922,3,5,-25,13,1,-15,18,4
15:16:11:602930,-15,-25,-51,-6,-13,-15,-29,-12
15:16:11:611124,-15,-25,-51,-6,-13,-15,-29,-12
15:16:11:611910,23,12,-2,-53,-12,-5,-2,-3
15:16:11:625427,19,8,34,0,-13,-8,-14,0
15:16:11:633582,19,8,34,0,-13,-8,-14,0
15:16:11:634389,3,-6,8,-26,-24,-17,18,-4
15:16:11:640377,-9,-7,-4,-1,-4,-5,5,3
15:16:11:656120,-9,-7,-4,-1,-4,-5,5,3
15:16:11:656873,7,18,14,0,6,-26,-30,9
15:16:11:662919,-2,-13,-9,55,0,-2,4,0
15:16:11:671104,-2,-13,-9,55,0,-2,4,0
15:16:11:671890,-22,0,-16,-10,33,-13,-12,-3
15:16:11:685380,-53,-3,6,-26,-27,5,-5,-11
15:16:11:693602,-53,-3,6,-26,-27,5,-5,-11
15:16:11:694393,-13,-5,14,24,-10,3,11,-6
15:16:11:700435,-9,-1,4,-6,-21,6,5,2
15:16:11:716091,-9,-1,4,-6,-21,6,5,2
15:16:11:716874,-10,6,6,-1,12,5,26,3
15:16:11:722900,28,4,-14,-34,-15,-20,-14,9
15:16:11:731140,28,4,-14,-34,-15,-20,-14,9
15:16:11:731941,-8,-15,-11,-1,-34,-9,-21,-6
15:16:11:745428,14,28,11,13,-41,0,2,-4
15:16:11:753660,14,28,11,13,-41,0,2,-4
15:16:11:754372,7,-26,35,-44,-12,12,-9,2
15:16:11:760416,-8,-20,-14,3,16,-6,-50,-18
15:16:11:776153,-8,-20,-14,3,16,-6,-50,-18
15:16:11:776957,11,0,-19,-20,9,1,16,5
15:16:11:782892,12,0,-11,-4,14,-5,-47,-2
15:16:11:791141,12,0,-11,-4,14,-5,-47,-2
15:16:11:791893,-13,-12,-26,19,-10,-4,-16,-3
15:16:11:805853,7,11,1,18,10,31,11,2
15:16:11:813613,7,11,1,18,10,31,11,2
15:16:11:814435,74,21,11,2,27,42,9,2
15:16:11:820386,-30,-8,-42,-48,-32,-7,17,0
15:16:11:836100,-30,-8,-42,-48,-32,-7,17,0
15:16:11:836937,-27,2,-8,9,12,13,4,-5
15:16:11:842927,20,5,17,14,14,40,64,11
15:16:11:851142,20,5,17,14,14,40,64,11
15:16:11:851936,1,-12,11,-7,-18,-15,-18,-1
15:16:11:865400,-21,-21,7,19,0,-4,-14,-8
15:16:11:873675,-21,-21,7,19,0,-4,-14,-8
15:16:11:874480,-9,4,-25,4,-16,-8,-12,-1
15:16:11:880390,22,21,-27,7,-2,-11,11,5
15:16:11:896143,22,21,-27,7,-2,-11,11,5
15:16:11:896910,-47,-12,2,4,-23,-11,-17,-4
15:16:11:902868,34,15,6,-12,17,-2,7,5
15:16:11:911141,34,15,6,-12,17,-2,7,5
15:16:11:911934,12,9,-15,64,21,-2,13,1
15:16:11:925466,-20,-24,17,10,1,-32,-1,-1
15:16:11:933649,-20,-24,17,10,1,-32,-1,-1
15:16:11:934443,18,18,-20,-15,13,4,4,4
15:16:11:940366,-23,1,21,-24,-6,3,27,9
15:16:11:956132,-23,1,21,-24,-6,3,27,9
15:16:11:956929,3,-15,81,51,-2,4,-2,-1
15:16:11:962899,-2,7,10,22,20,-1,-15,-8
15:16:11:971150,-2,7,10,22,20,-1,-15,-8
15:16:11:971933,6,-2,-21,-5,-12,-12,5,1
15:16:11:985330,-12,-10,17,64,24,28,1,1
15:16:11:993612,-12,-10,17,64,24,28,1,1
15:16:11:994398,-41,6,0,-17,-3,12,-4,-9
15:16:12:391,14,14,-62,-55,-45,-18,-26,-8
15:16:12:16101,14,14,-62,-55,-45,-18,-26,-8
15:16:12:16916,-11,-13,-9,-6,-35,-5,14,2
15:16:12:22899,-3,1,9,-19,-12,2,1,7
15:16:12:31138,-3,1,9,-19,-12,2,1,7
15:16:12:31912,30,-1,-29,-13,22,-3,-11,4
15:16:12:45380,-6,-21,17,12,11,-8,-4,-1
15:16:12:61790,-6,-21,17,12,11,-8,-4,-1
15:16:12:62559,-14,8,11,-44,7,2,-5,-6
15:16:12:63379,20,-3,-51,-33,42,3,2,0
15:16:12:76163,20,-3,-51,-33,42,3,2,0
15:16:12:76934,-4,11,-13,-39,-21,-29,-3,-2
15:16:12:82898,-5,-17,12,13,-35,-9,-2,-8
15:16:12:91176,-5,-17,12,13,-35,-9,-2,-8
15:16:12:91915,9,1,-19,-3,15,6,6,6
15:16:12:105396,14,-3,2,17,-21,-18,-21,-6
15:16:12:113614,14,-3,2,17,-21,-18,-21,-6
15:16:12:114445,-10,-8,-6,-18,-9,9,14,-2
15:16:12:120475,-16,18,35,-105,-21,-1,0,-2
15:16:12:127943,-16,18,35,-105,-21,-1,0,-2
15:16:12:135432,-23,-28,-6,-16,3,-9,-11,-7
15:16:12:143009,-4,-1,0,-8,1,-2,-6,-8
15:16:12:151094,-4,-1,0,-8,1,-2,-6,-8
15:16:12:151916,39,9,-18,2,24,13,25,8
15:16:12:165426,-1,-4,9,38,25,11,-5,14
15:16:12:173590,-1,-4,9,38,25,11,-5,14
15:16:12:174395,26,7,8,25,-9,-9,-9,1
15:16:12:180410,-29,-4,16,37,4,0,3,-2
15:16:12:187950,-29,-4,16,37,4,0,3,-2
15:16:12:195357,-17,-5,2,11,-9,-5,-11,-4
15:16:12:202876,-11,22,3,1,38,17,10,4
15:16:12:211104,-11,22,3,1,38,17,10,4
15:16:12:211923,-14,-22,-4,-19,-1,-3,-2,-3
15:16:12:225452,19,3,-8,-37,-15,-12,-6,-7
15:16:12:233600,19,3,-8,-37,-15,-12,-6,-7
15:16:12:234397,-5,8,-14,4,1,-1,-15,-1
15:16:12:240383,20,-10,6,-8,5,16,12,4
15:16:12:247955,20,-10,6,-8,5,16,12,4
15:16:12:255454,2,-17,-51,-4,-10,-8,-3,-7
15:16:12:262878,-2,6,-6,3,-16,-1,9,0
15:16:12:270472,-2,6,-6,3,-16,-1,9,0
15:16:12:277918,51,19,77,55,2,-2,-3,4
15:16:12:285371,10,-4,-67,-1,20,-9,-4,-4
15:16:12:301105,10,-4,-67,-1,20,-9,-4,-4
15:16:12:301905,-11,4,-18,-8,8,-8,16,-1
15:16:12:308686,-46,8,33,29,22,9,31,20
15:16:12:309491,-46,8,33,29,22,9,31,20
15:16:12:315371,40,22,20,-5,0,-4,1,6
15:16:12:322893,5,19,-7,-12,-13,-11,-10,-7
15:16:12:330462,5,19,-7,-12,-13,-11,-10,-7
15:16:12:337903,-22,-8,-8,18,-10,0,5,-8
15:16:12:345425,24,10,12,12,-12,0,-10,-6
15:16:12:353355,24,10,12,12,-12,0,-10,-6
15:16:12:360427,0,20,-22,-4,0,6,2,6
15:16:12:368557,6,-11,3,30,14,11,5,-5
15:16:12:369396,6,-11,3,30,14,11,5,-5
15:16:12:375420,-71,-33,-15,-26,-15,1,-15,-13
15:16:12:382878,9,-4,6,-21,1,7,-1,0
15:16:12:390429,9,-4,6,-21,1,7,-1,0
15:16:12:397924,-55,-26,9,8,49,14,19,-1
15:16:12:405367,16,-18,34,20,23,-12,-4,-3
15:16:12:413341,16,-18,34,20,23,-12,-4,-3
15:16:12:420397,8,-2,18,-15,-26,-9,-8,4
15:16:12:428660,12,-13,-94,7,-10,1,-4,7
15:16:12:429463,12,-13,-94,7,-10,1,-4,7
15:16:12:435407,1,11,21,52,7,-2,-4,-5
15:16:12:442888,34,14,-4,-3,-17,-9,-8,-2
15:16:12:450530,34,14,-4,-3,-17,-9,-8,-2
15:16:12:457966,-10,5,-47,-22,-14,0,-5,-4
15:16:12:465409,1,-7,18,-5,-3,-1,-1,-2
15:16:12:473624,1,-7,18,-5,-3,-1,-1,-2
15:16:12:474392,-26,-16,21,-20,-4,-5,-7,-8
15:16:12:488624,-20,-5,-4,-41,3,-13,-5,-7
15:16:12:489411,-20,-5,-4,-41,3,-13,-5,-7
15:16:12:495434,4,1,-20,-2,-20,-15,10,8
15:16:12:502898,-17,-18,4,4,-10,5,-3,-12
15:16:12:510408,-17,-18,4,4,-10,5,-3,-12
15:16:12:517920,36,10,-13,-7,-6,-4,-1,-1
15:16:12:525428,-14,-1,-12,-1,14,20,6,5
15:16:12:533607,-14,-1,-12,-1,14,20,6,5
15:16:12:534391,8,0,-21,-11,4,12,-21,-4
15:16:12:548617,21,11,5,-39,-34,-20,-7,-1
15:16:12:549377,21,11,5,-39,-34,-20,-7,-1
15:16:12:555442,-2,-4,27,-17,-27,-7,-24,-9
15:16:12:562939,-28,-5,20,-5,-18,-1,-15,-5
15:16:12:578585,-28,-5,20,-5,-18,-1,-15,-5
15:16:12:579389,-19,-9,0,-10,-11,-3,-43,-8
15:16:12:585403,-6,-24,13,22,11,12,1,1
15:16:12:593583,-6,-24,13,22,11,12,1,1
15:16:12:594360,-37,2,-46,-13,-6,-4,11,-5
15:16:12:609113,-2,0,0,22,14,3,6,0
15:16:12:609860,-2,0,0,22,14,3,6,0
15:16:12:615422,-1,-14,-19,47,56,34,23,11
15:16:12:622947,2,-5,-44,18,-8,-6,3,-3
15:16:12:630402,2,-5,-44,18,-8,-6,3,-3
15:16:12:637934,-7,3,13,-23,-9,-13,-5,-7
15:16:12:645415,5,2,17,-25,-2,-11,-10,-4
15:16:12:653607,5,2,17,-25,-2,-11,-10,-4
15:16:12:654412,59,15,37,-1,-11,38,4,4
15:16:12:668604,-11,6,-1,15,4,-10,6,3
15:16:12:669388,-11,6,-1,15,4,-10,6,3
15:16:12:675397,11,-19,-25,21,9,-20,2,0
15:16:12:682898,13,15,9,14,-31,-6,15,8
15:16:12:690460,13,15,9,14,-31,-6,15,8
15:16:12:697838,2,0,36,56,19,0,14,4
15:16:12:705344,10,-9,-24,8,0,0,14,4
15:16:12:713603,10,-9,-24,8,0,0,14,4
15:16:12:714402,47,9,9,-41,-19,-13,-3,7
15:16:12:728646,-11,-22,-23,-39,-12,11,-7,-2
15:16:12:729403,-11,-22,-23,-39,-12,11,-7,-2
15:16:12:735332,-8,15,36,-6,14,8,2,-2
15:16:12:742915,-7,7,37,11,-12,-19,10,0
15:16:12:750446,-7,7,37,11,-12,-19,10,0
15:16:12:757881,3,5,-8,9,22,-1,9,15
15:16:12:765375,30,2,1,-2,-4,-13,-26,-11
15:16:12:773626,30,2,1,-2,-4,-13,-26,-11
15:16:12:774451,8,-16,-26,-76,-34,-22,3,-9
15:16:12:788595,-35,-10,0,-19,26,-8,-14,-9
15:16:12:789396,-35,-10,0,-19,26,-8,-14,-9
15:16:12:795412,-23,-10,-9,34,46,28,12,6
15:16:12:802888,21,14,-31,22,17,11,2,0
15:16:12:810504,21,14,-31,22,17,11,2,0
15:16:12:817906,-19,1,-11,9,-8,-10,-20,-16
15:16:12:825418,6,6,32,3,-9,11,8,7
15:16:12:833606,6,6,32,3,-9,11,8,7
15:16:12:834387,-27,-15,50,12,-12,6,19,0
15:16:12:856811,22,5,29,-1,-6,-4,-8,-4
15:16:12:857650,22,5,29,-1,-6,-4,-8,-4
15:16:12:858465,-22,-3,20,-10,-1,-5,-30,-9
15:16:12:862944,4,-2,-6,31,20,-6,-8,-9
15:16:12:870464,4,-2,-6,31,20,-6,-8,-9
15:16:12:877926,8,9,-6,20,3,-9,21,16
15:16:12:885361,-18,-22,-30,-54,-20,-3,-2,-11
15:16:12:893632,-18,-22,-30,-54,-20,-3,-2,-11
15:16:12:894464,-2,0,21,-21,-16,4,-17,-9
15:16:12:908697,-2,-1,49,-9,4,-9,-3,4
15:16:12:909410,-2,-1,49,-9,4,-9,-3,4
15:16:12:915366,4,-2,-20,9,27,13,8,-25
15:16:12:922912,9,12,5,-5,-26,-10,16,-1
15:16:12:930475,9,12,5,-5,-26,-10,16,-1
15:16:12:946073,35,27,-26,-5,5,-8,-2,4
15:16:12:946835,-8,-2,-13,3,28,6,-14,-6
15:16:12:953639,-8,-2,-13,3,28,6,-14,-6
15:16:12:954449,-3,-2,-8,-27,-7,-2,7,6
15:16:12:968630,1,6,-34,-13,-5,1,-1,5
15:16:12:969400,1,6,-34,-13,-5,1,-1,5
15:16:12:975389,-20,-18,-36,-34,-12,-11,-7,0
15:16:12:982874,-27,-13,-7,14,-13,1,-1,0
15:16:12:990479,-27,-13,-7,14,-13,1,-1,0
15:16:12:997909,22,8,-1,-17,-21,2,-13,-4
15:16:13:5400,18,15,38,13,8,8,13,4
15:16:13:13661,18,15,38,13,8,8,13,4
15:16:13:14493,-11,4,4,-2,-11,26,43,2
15:16:13:28619,-17,-11,7,-8,-15,-8,-14,-18
15:16:13:29410,-17,-11,7,-8,-15,-8,-14,-18
15:16:13:35370,-82,-24,-12,31,-9,-14,-34,-15
15:16:13:42884,-1,-17,-36,-10,-26,9,6,-2
15:16:13:50491,-1,-17,-36,-10,-26,9,6,-2
15:16:13:57940,26,14,8,60,26,18,4,6
15:16:13:65379,-21,0,14,1,44,24,-16,-12
15:16:13:73614,-21,0,14,1,44,24,-16,-12
15:16:13:74444,17,0,57,29,-6,-19,-4,-3
15:16:13:88661,-5,13,-16,-12,-6,9,24,18
15:16:13:89454,-5,13,-16,-12,-6,9,24,18
15:16:13:95466,15,2,-30,-38,-15,8,9,1
15:16:13:102897,-9,-10,-15,5,-5,-9,-12,0
15:16:13:110460,-9,-10,-15,5,-5,-9,-12,0
15:16:13:117935,-1,1,6,7,36,3,-4,0
15:16:13:134251,5,2,-44,-21,4,-9,-25,3
15:16:13:135052,5,2,-44,-21,4,-9,-25,3
15:16:13:135820,29,-3,6,31,5,-19,4,13
15:16:13:148634,1,10,30,1,-4,15,65,46
15:16:13:149482,1,10,30,1,-4,15,65,46
15:16:13:155408,-13,-14,45,-11,22,17,-20,-10
15:16:13:162915,-3,1,25,-13,-21,-18,-26,-15
15:16:13:170556,-3,1,25,-13,-21,-18,-26,-15
15:16:13:177972,17,9,20,-13,3,1,13,8
15:16:13:185381,-1,1,4,9,3,-4,-8,-3
15:16:13:193616,-1,1,4,9,3,-4,-8,-3
15:16:13:194421,-20,-33,-22,-4,-10,-3,-15,-12
15:16:13:208602,-45,-19,-37,8,39,24,22,10
15:16:13:209405,-45,-19,-37,8,39,24,22,10
15:16:13:215441,5,6,-9,4,-16,-20,-10,-5
15:16:13:231131,51,9,-26,-41,-33,-22,-11,-7
15:16:13:232022,51,9,-26,-41,-33,-22,-11,-7
15:16:13:237903,-15,0,-34,-1,7,1,2,3
15:16:13:245407,-6,1,11,2,-18,-12,-8,-12
15:16:13:253071,-6,1,11,2,-18,-12,-8,-12
15:16:13:260480,-4,-12,0,0,-7,-3,-3,-2
15:16:13:268561,5,9,0,17,-7,-3,-11,-11
15:16:13:269370,5,9,0,17,-7,-3,-11,-11
15:16:13:275447,-24,14,-9,-9,-15,-10,-4,-1
15:16:13:291071,-19,-31,25,13,14,-3,-1,-6
15:16:13:291890,-19,-31,25,13,14,-3,-1,-6
15:16:13:297927,0,-8,-21,8,-5,-13,3,2
15:16:13:305405,-5,10,26,32,-14,14,-42,-13
15:16:13:312929,-5,10,26,32,-14,14,-42,-13
15:16:13:320438,5,12,34,11,17,0,-34,-6
15:16:13:328581,-26,-11,11,6,14,3,51,26
15:16:13:329390,-26,-11,11,6,14,3,51,26
15:16:13:335360,-24,0,-19,-9,-20,-12,10,5
15:16:13:351065,-21,2,-48,-6,-28,-8,-26,-13
15:16:13:351885,-21,2,-48,-6,-28,-8,-26,-13
15:16:13:357908,-5,-14,-11,23,15,12,16,6
15:16:13:365420,15,13,15,0,-6,-6,5,-3
15:16:13:372967,15,13,15,0,-6,-6,5,-3
15:16:13:380353,24,18,-1,-28,-12,-3,-8,-5
15:16:13:388614,-21,-13,-17,-6,7,-4,-34,-25
15:16:13:389411,-21,-13,-17,-6,7,-4,-34,-25
15:16:13:395401,-19,-6,0,9,25,9,31,18
15:16:13:411594,-18,-20,16,-63,6,-19,19,6
15:16:13:412386,-18,-20,16,-63,6,-19,19,6
15:16:13:417860,15,-2,-5,54,14,1,11,2
15:16:13:425428,14,6,8,9,14,0,-14,-5
15:16:13:441179,14,6,8,9,14,0,-14,-5
15:16:13:441896,26,17,22,-48,-29,-8,5,6
15:16:13:448626,16,-16,-12,-1,-17,-29,-15,-6
15:16:13:449408,16,-16,-12,-1,-17,-29,-15,-6
15:16:13:455369,-16,16,41,-2,2,-3,-17,-11
15:16:13:471103,-15,-9,8,8,-17,-6,1,-1
15:16:13:471911,-15,-9,8,8,-17,-6,1,-1
15:16:13:477891,-7,10,-6,-25,-17,16,23,3
15:16:13:485339,20,17,-12,33,15,7,12,8
15:16:13:501107,20,17,-12,33,15,7,12,8
15:16:13:501887,19,-15,13,15,15,2,2,-2
15:16:13:508576,11,17,34,0,8,8,4,-4
15:16:13:509384,11,17,34,0,8,8,4,-4
15:16:13:515358,-40,-15,-4,-56,-33,-22,9,-3
15:16:13:531079,-37,-13,-14,6,8,1,-9,-8
15:16:13:531890,-37,-13,-14,6,8,1,-9,-8
15:16:13:537936,-1,-1,-36,-5,30,22,-12,-10
15:16:13:545413,24,23,27,7,-6,9,52,28
15:16:13:552919,24,23,27,7,-6,9,52,28
15:16:13:560427,10,-5,-3,-14,-24,6,6,6
15:16:13:568605,21,17,-4,-35,-9,9,-29,-9
15:16:13:569405,21,17,-4,-35,-9,9,-29,-9
15:16:13:575390,3,-1,16,44,-14,-18,-9,-2
15:16:13:591127,49,10,30,31,9,-4,6,-1
15:16:13:591905,49,10,30,31,9,-4,6,-1
15:16:13:597874,-20,11,-3,-30,32,15,-32,-16
15:16:13:605396,18,0,-10,-3,0,-2,28,13
15:16:13:612949,18,0,-10,-3,0,-2,28,13
15:16:13:620402,9,8,-29,-12,-21,-17,-11,-4
15:16:13:628617,48,16,13,-18,-7,-2,-9,1
15:16:13:629451,48,16,13,-18,-7,-2,-9,1
15:16:13:635424,19,-5,-11,2,-7,-23,-18,-11
15:16:13:651129,27,1,-10,11,31,30,86,49
15:16:13:651920,27,1,-10,11,31,30,86,49
15:16:13:657892,10,-24,-15,-10,-15,-20,10,3
15:16:13:665374,7,1,-10,19,0,1,-52,-9
15:16:13:672935,7,1,-10,19,0,1,-52,-9
15:16:13:689244,-4,-2,-62,-29,-39,-16,-9,-2
15:16:13:690084,-20,-1,13,53,6,6,-8,-10
15:16:13:690912,-20,-1,13,53,6,6,-8,-10
15:16:13:695435,47,5,22,29,1,3,-6,-4
15:16:13:719232,-29,-5,-20,-8,-18,-21,-25,-17
15:16:13:720054,-29,-5,-20,-8,-18,-21,-25,-17
15:16:13:720864,-10,11,31,14,-2,21,7,5
15:16:13:725412,-18,-9,-3,-25,0,-4,-15,-11
15:16:13:732913,-18,-9,-3,-25,0,-4,-15,-11
15:16:13:740381,15,16,13,0,27,5,1,7
15:16:13:748623,2,-6,3,-16,-6,-24,-34,-22
15:16:13:749403,2,-6,3,-16,-6,-24,-34,-22
15:16:13:755404,-42,-6,-15,-16,5,-1,32,2
15:16:13:771175,-32,-32,-32,-3,16,4,-7,-7
15:16:13:771927,-32,-32,-32,-3,16,4,-7,-7
15:16:13:777891,4,-8,13,-5,13,8,-13,7
15:16:13:785372,-15,-2,-9,-6,-19,0,-4,-5
15:16:13:793004,-15,-2,-9,-6,-19,0,-4,-5
15:16:13:800396,-13,3,53,9,-20,-2,1,-2
15:16:13:808595,-22,-2,-9,-20,10,2,7,2
15:16:13:809413,-22,-2,-9,-20,10,2,7,2
15:16:13:815365,14,0,26,38,8,-4,-4,-1
15:16:13:831076,20,4,-4,-1,-21,-7,-6,-6
15:16:13:831920,20,4,-4,-1,-21,-7,-6,-6
15:16:13:837865,36,-8,-20,8,2,19,12,13
15:16:13:845348,-40,-37,-16,13,9,7,71,5
15:16:13:852946,-40,-37,-16,13,9,7,71,5
15:16:13:860399,-33,-16,-46,45,54,-1,-1,-6
15:16:13:868568,3,13,21,-23,-22,-4,-22,-8
15:16:13:869416,3,13,21,-23,-22,-4,-22,-8
15:16:13:875402,-21,4,-48,-27,-24,-7,5,-2
15:16:13:891165,-31,-7,-23,-5,19,-8,-14,-1
15:16:13:891939,-31,-7,-23,-5,19,-8,-14,-1
15:16:13:897909,27,13,3,-3,6,8,-8,0
15:16:13:905400,-14,4,24,-25,-16,0,1,2
15:16:13:912994,-14,4,24,-25,-16,0,1,2
15:16:13:920411,-34,-8,5,-30,-20,-13,37,22
15:16:13:928593,17,13,30,5,4,-10,-22,-7
15:16:13:929425,17,13,30,5,4,-10,-22,-7
15:16:13:935448,8,11,30,-7,-3,2,-37,-20
15:16:13:951098,-1,1,-8,14,60,51,10,6
15:16:13:951902,-1,1,-8,14,60,51,10,6
15:16:13:966053,6,-11,10,25,15,-1,-2,2
15:16:13:966855,-7,-8,-6,6,-6,-17,-3,0
15:16:13:972969,-7,-8,-6,6,-6,-17,-3,0
15:16:13:980399,-60,-19,-1,-37,0,12,16,6
15:16:13:996757,4,-2,-5,1,3,-5,-10,0
15:16:13:997573,4,-2,-5,1,3,-5,-10,0
15:16:13:998396,26,2,-13,6,-21,-15,-8,-10
15:16:14:11143,-7,0,-22,-1,-12,2,-9,5
15:16:14:11950,-7,0,-22,-1,-12,2,-9,5
15:16:14:17879,1,10,40,-7,-24,-8,-16,-15
15:16:14:25444,-11,-18,4,-5,-18,17,2,2
15:16:14:32967,-11,-18,4,-5,-18,17,2,2
15:16:14:40471,-13,1,-2,52,27,3,-3,-10
15:16:14:48572,-22,4,2,27,10,-16,-9,-8
15:16:14:49377,-22,4,2,27,10,-16,-9,-8
15:16:14:55415,17,10,-1,-19,-28,1,17,13
15:16:14:71187,31,0,23,7,-12,4,3,20
15:16:14:72003,31,0,23,7,-12,4,3,20
15:16:14:77975,39,28,-23,-23,-1,-7,-13,-4
15:16:14:85395,-12,-29,6,-3,-1,-12,-23,-16
15:16:14:93041,-12,-29,6,-3,-1,-12,-23,-16
15:16:14:100399,-16,-6,4,61,-15,7,-3,1
15:16:14:108576,29,-5,-12,30,-10,10,8,2
15:16:14:109418,29,-5,-12,30,-10,10,8,2
15:16:14:115452,5,-13,-28,-7,9,-4,-9,-6
15:16:14:131090,8,5,-51,-36,-6,2,9,-2
15:16:14:131883,8,5,-51,-36,-6,2,9,-2
15:16:14:137952,-3,-3,-15,-31,-20,-6,-9,-4
15:16:14:145431,32,14,10,-11,9,6,-11,-3
15:16:14:152931,32,14,10,-11,9,6,-11,-3
15:16:14:160451,-63,-53,-45,-21,30,-12,17,-17
15:16:14:168548,7,28,-4,-7,11,-1,17,10
15:16:14:169381,7,28,-4,-7,11,-1,17,10
15:16:14:182928,33,4,21,4,-9,-6,-34,0
15:16:14:191111,-1,-3,-12,-18,-36,-12,-3,-2
15:16:14:191906,-1,-3,-12,-18,-36,-12,-3,-2
15:16:14:197946,39,10,-16,-4,3,7,10,1
15:16:14:213569,-12,-1,-13,-37,30,7,0,0
15:16:14:214386,-12,-1,-13,-37,30,7,0,0
15:16:14:220431,-37,-23,-4,-21,-18,-5,-2,-7
15:16:14:228584,-23,0,20,27,-3,-5,-8,-8
15:16:14:229421,-23,0,20,27,-3,-5,-8,-8
15:16:14:242985,27,4,15,-1,-16,-8,-41,8
15:16:14:251035,-31,-10,34,1,9,19,8,-14
15:16:14:251859,-31,-10,34,1,9,19,8,-14
15:16:14:257940,7,-1,40,-1,-5,-5,-11,-5
15:16:14:273635,11,12,6,-3,-9,-10,1,1
15:16:14:274476,11,12,6,-3,-9,-10,1,1
15:16:14:280384,-69,-7,3,-35,-22,-9,2,-10
15:16:14:288566,-6,-7,-2,15,14,14,-8,-7
15:16:14:289428,-6,-7,-2,15,14,14,-8,-7
15:16:14:302881,-16,-3,17,0,0,-15,-6,-3
15:16:14:311080,-8,-8,-14,-10,-1,0,33,15
15:16:14:311900,-8,-8,-14,-10,-1,0,33,15
15:16:14:317920,12,-13,-13,2,-5,9,10,2
15:16:14:334135,19,3,-13,2,-19,-19,-30,-7
15:16:14:334892,19,3,-13,2,-19,-19,-30,-7
15:16:14:340411,33,15,6,-1,-11,-8,19,2
15:16:14:348626,22,7,-9,-12,-29,20,-8,1
15:16:14:349411,22,7,-9,-12,-29,20,-8,1
15:16:14:362936,28,22,-4,0,52,24,7,-3
15:16:14:371100,-11,2,9,6,34,-2,15,-1
15:16:14:371907,-11,2,9,6,34,-2,15,-1
15:16:14:377899,25,11,-10,2,4,-4,-7,4
15:16:14:393587,27,-4,17,2,-7,5,-6,-7
15:16:14:394430,27,-4,17,2,-7,5,-6,-7
15:16:14:400371,0,-3,-17,-9,-7,-5,5,5
15:16:14:408681,0,-3,-17,-9,-7,-5,5,5
15:16:14:409424,-7,-4,64,21,26,-9,-9,0
15:16:14:422936,-3,-3,3,24,8,11,0,2
15:16:14:431138,-3,-3,3,24,8,11,0,2
15:16:14:431947,13,7,13,11,13,-18,-16,-5
15:16:14:437924,-28,-19,3,4,9,3,11,-1
15:16:14:453692,-28,-19,3,4,9,3,11,-1
15:16:14:454443,-10,11,-30,-13,-27,-51,33,7
15:16:14:460397,19,8,22,-8,-11,-10,-19,-17
15:16:14:468574,19,8,22,-8,-11,-10,-19,-17
15:16:14:469391,32,0,-26,-23,-38,-1,-33,-4
15:16:14:482899,11,15,50,8,-42,6,17,1
15:16:14:491180,11,15,50,8,-42,6,17,1
15:16:14:491900,-21,-4,27,34,28,29,6,10
15:16:14:497843,-9,-3,-32,11,75,11,-3,4
15:16:14:521816,-9,-3,-32,11,75,11,-3,4
15:16:14:522537,-1,2,-22,-32,-19,-9,1,2
15:16:14:523378,-2,-8,22,9,-26,-32,-12,-4
15:16:14:528614,-2,-8,22,9,-26,-32,-12,-4
15:16:14:529427,-40,-19,-17,-5,8,-1,-4,-2
15:16:14:542946,-34,0,-28,-27,-9,-12,-23,-11
15:16:14:551116,-34,0,-28,-27,-9,-12,-23,-11
15:16:14:551868,8,19,-6,-8,-1,7,5,-5
15:16:14:557951,-41,-4,26,5,34,11,10,7
15:16:14:573682,-41,-4,26,5,34,11,10,7
15:16:14:574457,1,-22,-36,5,-13,-15,-31,-3
15:16:14:580400,7,-16,11,26,12,19,7,5
15:16:14:588654,7,-16,11,26,12,19,7,5
15:16:14:589411,-67,-3,-1,5,-14,-9,-4,-10
15:16:14:602895,22,-23,-53,-23,-3,-2,-7,-5
15:16:14:611177,22,-23,-53,-23,-3,-2,-7,-5
15:16:14:611928,11,8,10,2,-5,13,16,-3
15:16:14:617879,-39,-5,-18,3,-8,14,10,0
15:16:14:633620,-39,-5,-18,3,-8,14,10,0
15:16:14:634431,7,-7,-55,9,19,-8,35,12
15:16:14:640455,6,29,18,-9,6,-8,32,17
15:16:14:648628,6,29,18,-9,6,-8,32,17
15:16:14:649420,22,-19,-1,8,-25,-13,-9,-2
15:16:14:662897,39,1,-16,17,11,8,0,-6
15:16:14:671190,39,1,-16,17,11,8,0,-6
15:16:14:671922,7,10,15,-1,-10,-5,-1,-7
15:16:14:677923,3,2,-4,-14,-25,-7,4,0
15:16:14:693632,3,2,-4,-14,-25,-7,4,0
15:16:14:694433,37,10,28,3,21,22,-8,6
15:16:14:700380,-15,5,-5,8,-20,11,-5,3
15:16:14:708696,-15,5,-5,8,-20,11,-5,3
15:16:14:709423,-2,2,25,1,20,-6,2,0
15:16:14:722920,-42,-19,5,3,-10,-14,-7,-7
15:16:14:731204,-42,-19,5,3,-10,-14,-7,-7
15:16:14:731978,35,-9,21,-15,-37,-3,-31,8
15:16:14:745438,43,29,-34,10,46,23,12,21
15:16:14:753587,43,29,-34,10,46,23,12,21
15:16:14:754390,-38,-7,-34,-44,-17,-10,-9,-26
15:16:14:760377,5,-13,14,-2,-15,-12,-6,1
15:16:14:768621,5,-13,14,-2,-15,-12,-6,1
15:16:14:769409,7,-4,30,25,8,17,21,9
15:16:14:782891,2,0,9,-61,-43,-24,-4,-1
15:16:14:799288,2,0,9,-61,-43,-24,-4,-1
15:16:14:800074,-21,-30,-13,-30,19,10,-18,-14
15:16:14:800899,19,12,39,-16,60,15,-10,-5
15:16:14:813614,19,12,39,-16,60,15,-10,-5
15:16:14:814436,16,-1,-23,16,39,-3,13,14
15:16:14:829249,-8,-10,-6,17,-30,-12,-53,-9
15:16:14:830040,-8,-10,-6,17,-30,-12,-53,-9
15:16:14:830880,17,19,10,25,7,-21,1,-9
15:16:14:842979,-24,-4,30,25,-10,4,-24,-17
15:16:14:851092,-24,-4,30,25,-10,4,-24,-17
15:16:14:851957,-11,9,5,10,-23,-3,4,6
15:16:14:857971,11,0,-23,65,-3,-5,10,-8
15:16:14:873637,11,0,-23,65,-3,-5,10,-8
15:16:14:874463,-15,-10,-5,34,-4,19,18,-2
15:16:14:880363,8,15,19,-17,25,17,0,7
15:16:14:888620,8,15,19,-17,25,17,0,7
15:16:14:889457,-26,-5,-16,-24,-24,-7,-21,3
15:16:14:902916,1,-2,-58,-26,-33,-24,-16,-12
15:16:14:911129,1,-2,-58,-26,-33,-24,-16,-12
15:16:14:911894,0,2,-6,-28,-24,-4,-6,-1
15:16:14:917894,-1,-2,-21,2,-2,13,13,0
15:16:14:933627,-1,-2,-21,2,-2,13,13,0
15:16:14:934460,-11,2,2,-29,-9,-2,-8,-5
15:16:14:940431,20,-15,18,-16,-19,-10,10,3
15:16:14:948635,20,-15,18,-16,-19,-10,10,3
15:16:14:949459,3,-13,-14,34,26,0,7,-10
15:16:14:962926,-13,4,-4,-12,-32,-4,-18,0
15:16:14:971139,-13,4,-4,-12,-32,-4,-18,0
15:16:14:971946,-46,-2,-17,-11,87,23,16,7
15:16:14:977901,-20,2,6,18,3,-15,4,4
15:16:14:993624,-20,2,6,18,3,-15,4,4
15:16:14:994409,9,12,-31,-20,-34,-14,-4,-2
15:16:15:370,-2,-6,-2,-49,-10,5,10,7
15:16:15:8639,-2,-6,-2,-49,-10,5,10,7
15:16:15:9405,-2,-10,26,36,-21,-7,-1,-2
15:16:15:22970,-16,-8,-6,4,-31,-21,-3,-8
15:16:15:31080,-16,-8,-6,4,-31,-21,-3,-8
15:16:15:31898,10,-3,0,15,42,46,24,18
15:16:15:37881,7,2,11,5,-7,-38,-3,-6
15:16:15:53606,7,2,11,5,-7,-38,-3,-6
15:16:15:54416,15,-13,11,43,-46,-14,-9,1
15:16:15:60371,11,3,-3,-8,38,28,28,2
15:16:15:69005,11,3,-3,-8,38,28,28,2
15:16:15:75414,-5,9,43,7,1,-8,-8,-1
15:16:15:82877,5,-10,4,-10,-4,0,7,-1
15:16:15:91151,5,-10,4,-10,-4,0,7,-1
15:16:15:91915,19,11,-32,-15,11,9,3,-4
15:16:15:105391,7,-11,1,-2,-23,-4,-1,-5
15:16:15:113614,7,-11,1,-2,-23,-4,-1,-5
15:16:15:114400,1,4,-7,22,0,-19,-11,-3
15:16:15:120363,-21,-8,-9,-4,23,12,7,3
15:16:15:127977,-21,-8,-9,-4,23,12,7,3
15:16:15:135362,22,12,40,-16,-12,-16,-8,-2
15:16:15:142933,-29,-17,5,1,9,5,-10,-4
15:16:15:151113,-29,-17,5,1,9,5,-10,-4
15:16:15:151901,10,-10,17,7,-9,18,-9,-3
15:16:15:165431,-26,8,-1,-1,42,32,17,6
15:16:15:173653,-26,8,-1,-1,42,32,17,6
15:16:15:174443,-37,-4,-38,-46,12,-16,-6,9
15:16:15:180403,16,13,-9,14,-14,-3,-5,-3
15:16:15:187988,16,13,-9,14,-14,-3,-5,-3
15:16:15:195465,-21,17,-21,-26,-16,10,5,4
15:16:15:202898,-9,-23,-45,4,-2,-6,-5,-5
15:16:15:211092,-9,-23,-45,4,-2,-6,-5,-5
15:16:15:211902,18,-7,-10,-24,-17,-1,0,-5
15:16:15:225481,55,-21,13,-41,-6,-4,6,8
15:16:15:233632,55,-21,13,-41,-6,-4,6,8
15:16:15:234427,9,-5,10,0,-29,-25,-11,-12
15:16:15:240393,-10,8,-6,-26,-25,22,23,3
15:16:15:247944,-10,8,-6,-26,-25,22,23,3
15:16:15:255413,-18,-2,1,9,25,-7,-12,-8
15:16:15:262920,13,13,41,16,1,-1,-11,4
15:16:15:271182,13,13,41,16,1,-1,-11,4
15:16:15:271937,13,18,-9,-22,-16,-8,-5,-10
15:16:15:285426,-53,-9,-50,6,-11,-18,-3,25
15:16:15:293607,-53,-9,-50,6,-11,-18,-3,25
15:16:15:294376,13,-14,16,4,-9,-6,2,-5
15:16:15:300405,21,18,12,22,30,12,-4,-12
15:16:15:307968,21,18,12,22,30,12,-4,-12
15:16:15:315334,-8,-11,24,9,-52,-16,-3,3
15:16:15:322893,-16,8,-14,14,49,54,15,0
15:16:15:331119,-16,8,-14,14,49,54,15,0
15:16:15:331917,4,5,-27,-1,18,8,12,-2
15:16:15:354283,34,-2,-25,-12,-34,-34,-19,-6
15:16:15:355074,34,-2,-25,-12,-34,-34,-19,-6
15:16:15:355859,9,2,-35,24,23,14,4,8
15:16:15:360443,9,4,15,-2,38,-7,-20,-3
15:16:15:367960,9,4,15,-2,38,-7,-20,-3
15:16:15:375435,10,-7,46,8,4,-7,13,16
15:16:15:382887,17,20,22,-16,-5,4,1,-7
15:16:15:391141,17,20,22,-16,-5,4,1,-7
15:16:15:391892,-14,12,-77,-62,5,-8,-8,-3
15:16:15:405422,28,10,24,2,-6,-19,-5,6
15:16:15:413569,28,10,24,2,-6,-19,-5,6
15:16:15:414381,0,3,43,11,10,3,13,12
15:16:15:420382,-10,-21,-41,-33,-44,-13,6,-4
15:16:15:427952,-10,-21,-41,-33,-44,-13,6,-4
15:16:15:435354,13,7,10,-13,40,-8,-39,-8
15:16:15:442901,-2,3,46,17,-8,-15,-4,-7
15:16:15:451105,-2,3,46,17,-8,-15,-4,-7
15:16:15:451895,-32,-21,-4,2,-29,-12,-3,-13
15:16:15:465359,8,12,2,14,19,8,6,14
15:16:15:473651,8,12,2,14,19,8,6,14
15:16:15:474405,-46,-7,-34,23,4,-24,-11,-13
15:16:15:480351,-1,-15,17,37,45,26,1,-10
15:16:15:487965,-1,-15,17,37,45,26,1,-10
15:16:15:495403,-16,7,6,-13,-10,4,-1,-7
15:16:15:502870,-48,-15,-26,4,-15,-10,-8,1
15:16:15:511135,-48,-15,-26,4,-15,-10,-8,1
15:16:15:511942,10,9,54,19,-18,7,2,1
15:16:15:525417,-4,-2,-29,14,-21,-4,-23,-13
15:16:15:533628,-4,-2,-29,14,-21,-4,-23,-13
15:16:15:534407,31,-5,-28,-15,16,50,33,12
15:16:15:540431,-15,1,45,-43,-14,6,8,-8
15:16:15:547961,-15,1,45,-43,-14,6,8,-8
15:16:15:555396,11,2,30,-7,17,2,-2,9
15:16:15:562880,9,-3,-3,-2,-18,-17,-3,-17
15:16:15:571114,9,-3,-3,-2,-18,-17,-3,-17
15:16:15:571882,22,7,15,16,26,7,1,-6
15:16:15:585369,-5,4,-34,-13,0,6,18,16
15:16:15:601796,-5,4,-34,-13,0,6,18,16
15:16:15:602544,-16,-16,7,-5,13,18,-7,-17
15:16:15:603354,-74,-15,-3,-7,24,7,24,-5
15:16:15:607980,-74,-15,-3,-7,24,7,24,-5
15:16:15:615391,0,10,-29,-53,-19,-8,3,-4
15:16:15:622899,22,1,29,-3,-18,-13,-16,5
15:16:15:631114,22,1,29,-3,-18,-13,-16,5
15:16:15:631925,-32,-3,-11,37,-27,-12,-4,-2
15:16:15:645412,15,12,8,6,7,-3,-9,-5
15:16:15:653623,15,12,8,6,7,-3,-9,-5
15:16:15:654424,-14,-18,-8,-3,-1,-3,-10,2
15:16:15:660399,17,0,-34,37,23,5,15,1
15:16:15:667917,17,0,-34,37,23,5,15,1
15:16:15:675415,19,2,11,18,-15,-14,-9,2
15:16:15:682916,0,-5,-27,39,-23,-3,-11,-3
15:16:15:691129,0,-5,-27,39,-23,-3,-11,-3
15:16:15:691888,18,6,-15,-7,6,0,9,4
15:16:15:705389,-19,-7,7,-15,-11,-8,-8,-3
15:16:15:713579,-19,-7,7,-15,-11,-8,-8,-3
15:16:15:714380,-11,-10,-17,65,25,12,3,-2
15:16:15:720415,28,15,7,-13,-37,-16,-5,0
15:16:15:727930,28,15,7,-13,-37,-16,-5,0
15:16:15:735402,-29,-6,7,-18,-25,-1,-4,10
15:16:15:742926,6,1,-22,-4,2,14,-15,4
15:16:15:751138,6,1,-22,-4,2,14,-15,4
15:16:15:751883,28,0,38,0,56,49,10,1
15:16:15:765466,-27,-18,-9,0,28,0,-8,-7
15:16:15:773625,-27,-18,-9,0,28,0,-8,-7
15:16:15:774410,19,6,0,-21,-35,-21,-4,-6
15:16:15:780388,15,14,45,-19,-26,3,5,7
15:16:15:787995,15,14,45,-19,-26,3,5,7
15:16:15:795382,-6,1,-16,-1,-18,-16,-4,-7
15:16:15:802861,-7,-9,2,-4,-18,-12,1,0
15:16:15:811123,-7,-9,2,-4,-18,-12,1,0
15:16:15:811913,0,0,15,-16,-6,-5,-13,-1
15:16:15:825466,15,6,-21,-7,49,4,4,-3
15:16:15:833631,15,6,-21,-7,49,4,4,-3
15:16:15:834431,-25,2,17,-4,-15,-21,-15,-5
15:16:15:840373,7,-7,12,4,-34,-24,20,1
15:16:15:847990,7,-7,12,4,-34,-24,20,1
15:16:15:855467,3,1,-8,-1,38,36,52,12
15:16:15:862900,-14,-9,-28,2,4,2,-3,-2
15:16:15:878616,-14,-9,-28,2,4,2,-3,-2
15:16:15:879431,12,-10,-23,-10,-8,-17,-12,-13
15:16:15:885371,8,2,34,11,9,-17,-49,-2
15:16:15:893667,8,2,34,11,9,-17,-49,-2
15:16:15:894441,-40,-6,-1,9,-38,3,5,8
15:16:15:900418,15,-2,0,-32,15,7,2,2
15:16:15:908024,15,-2,0,-32,15,7,2,2
15:16:15:915369,8,10,-25,-1,28,13,1,-8
15:16:15:922880,-6,-10,10,7,-4,11,-2,-4
15:16:15:938668,-6,-10,10,7,-4,11,-2,-4
15:16:15:939447,22,7,-31,6,-8,-23,-33,-6
15:16:15:945423,-13,-16,-59,1,-20,5,4,-6
15:16:15:953669,-13,-16,-59,1,-20,5,4,-6
15:16:15:954485,6,-13,3,-11,12,46,2,1
15:16:15:960425,-1,-11,20,40,31,26,13,-2
15:16:15:967991,-1,-11,20,40,31,26,13,-2
15:16:15:975469,22,6,-11,-21,-6,-24,11,9
15:16:15:982871,18,8,-3,10,-20,-10,2,2
15:16:15:991136,18,8,-3,10,-20,-10,2,2
15:16:15:991890,-3,13,11,20,-18,-10,4,-5
15:16:16:5445,2,5,16,-22,-8,-19,-13,-7
15:16:16:13569,2,5,16,-22,-8,-19,-13,-7
15:16:16:14374,10,-4,23,29,1,2,-7,0
15:16:16:20434,-2,-7,1,-32,26,18,7,-2
15:16:16:27947,-2,-7,1,-32,26,18,7,-2
15:16:16:35401,3,6,41,-5,-11,-22,-3,4
15:16:16:43168,-4,3,13,61,22,-33,-19,4
15:16:16:50472,-4,3,13,61,22,-33,-19,4
15:16:16:57922,-7,5,5,-25,3,-27,1,6
15:16:16:65370,12,5,4,14,-17,-10,20,1
15:16:16:73643,12,5,4,14,-17,-10,20,1
15:16:16:74430,3,2,-64,-65,-47,-13,-15,-11
15:16:16:88560,6,16,11,42,30,20,-4,1
15:16:16:89394,6,16,11,42,30,20,-4,1
15:16:16:95389,-10,-6,17,-7,-2,0,4,-3
15:16:16:102866,24,9,19,-39,-31,-7,21,2
15:16:16:110485,24,9,19,-39,-31,-7,21,2
15:16:16:126091,13,2,26,12,7,18,10,7
15:16:16:126885,-21,-11,7,-3,-21,-12,-11,-6
15:16:16:133616,-21,-11,7,-3,-21,-12,-11,-6
15:16:16:134396,-5,-22,-21,10,31,-6,-1,7
15:16:16:148632,10,18,0,-22,2,-4,-8,4
15:16:16:149401,10,18,0,-22,2,-4,-8,4
15:16:16:155435,-20,-9,8,25,19,-6,-6,-7
15:16:16:162901,-26,1,-9,-38,-13,-5,7,-5
15:16:16:170549,-26,1,-9,-38,-13,-5,7,-5
15:16:16:177925,-2,-7,-14,-1,15,3,0,-5
15:16:16:185361,5,0,0,-22,-3,3,7,4
15:16:16:193653,5,0,0,-22,-3,3,7,4
15:16:16:194431,-1,6,13,-1,-9,8,-3,-4
15:16:16:208662,-74,-29,-1,-10,-38,16,6,17
15:16:16:209495,-74,-29,-1,-10,-38,16,6,17
15:16:16:215422,-39,7,-3,13,15,-8,38,4
15:16:16:222887,19,3,-33,-27,25,13,5,-2
15:16:16:230431,19,3,-33,-27,25,13,5,-2
15:16:16:237926,-15,0,-24,-19,-25,-22,-30,-7
15:16:16:245415,-13,-5,3,34,13,-2,-1,-7
15:16:16:253613,-13,-5,3,34,13,-2,-1,-7
15:16:16:254457,-44,-10,-1,20,7,4,-2,-6
15:16:16:268617,-34,-6,-19,70,35,16,-20,-24
15:16:16:269411,-34,-6,-19,70,35,16,-20,-24
15:16:16:275398,-9,-9,31,13,-7,9,3,-3
15:16:16:282883,-3,-15,-63,-27,-9,-4,-8,-5
15:16:16:290498,-3,-15,-63,-27,-9,-4,-8,-5
15:16:16:297908,17,-6,-36,-3,15,7,9,-5
15:16:16:305422,13,0,12,-24,23,5,3,-6
15:16:16:313552,13,0,12,-24,23,5,3,-6
15:16:16:314354,-31,0,8,-11,-13,6,-4,9
15:16:16:328629,4,-7,17,-2,-37,-13,-20,-10
15:16:16:329466,4,-7,17,-2,-37,-13,-20,-10
