Time,EMG1,EMG2,EMG3,EMG4,EMG5,EMG6,EMG7,EMG8
15:16:35:483524,-7,-6,-4,39,-2,-1,-47,-11
15:16:35:484354,-7,-6,-4,39,-2,-1,-47,-11
15:16:35:489880,-5,1,-1,-4,-17,8,14,0
15:16:35:497385,3,3,3,-10,-7,-2,2,-5
15:16:35:504989,3,3,3,-10,-7,-2,2,-5
15:16:35:512332,3,3,3,1,-6,6,1,-2
15:16:35:520572,-1,-1,-3,-15,1,7,-28,-13
15:16:35:521348,-1,-1,-3,-15,1,7,-28,-13
15:16:35:527338,2,0,-3,0,6,6,-6,-4
15:16:35:543099,-3,-2,4,-2,-15,1,-19,-7
15:16:35:543938,-3,-2,4,-2,-15,1,-19,-7
15:16:35:549880,-1,0,2,8,-5,25,8,0
15:16:35:557424,-1,-2,-2,-1,5,7,35,8
15:16:35:564926,-1,-2,-2,-1,5,7,35,8
15:16:35:572363,-5,-5,1,65,21,-14,-17,-4
15:16:35:580565,-3,1,4,-6,0,-11,-11,-15
15:16:35:581364,-3,1,4,-6,0,-11,-11,-15
15:16:35:587345,0,1,-5,-43,-17,-10,9,1
15:16:35:603130,2,-1,-1,19,23,5,4,4
15:16:35:603925,2,-1,-1,19,23,5,4,4
15:16:35:609919,-8,-1,3,10,8,2,14,1
15:16:35:617350,-1,2,4,-2,16,-14,3,-1
15:16:35:624967,-1,2,4,-2,16,-14,3,-1
15:16:35:632358,5,-2,-3,-27,-14,-4,-9,1
15:16:35:640515,0,1,-3,8,7,-1,7,2
15:16:35:641452,0,1,-3,8,7,-1,7,2
15:16:35:647363,-3,0,-3,-11,-12,-18,-16,-1
15:16:35:663081,-1,1,-2,-11,11,17,-3,2
15:16:35:663894,-1,1,-2,-11,11,17,-3,2
15:16:35:669893,1,2,0,-6,1,9,13,3
15:16:35:677399,-3,-16,-11,-6,9,-1,-35,-6
15:16:35:684901,-3,-16,-11,-6,9,-1,-35,-6
15:16:35:692407,3,0,3,-9,2,-21,-26,-7
15:16:35:700494,-2,3,5,24,-15,-1,1,-1
15:16:35:701325,-2,3,5,24,-15,-1,1,-1
15:16:35:707354,2,-6,4,27,8,-19,2,1
15:16:35:723016,-1,-4,-2,-31,5,-8,-18,0
15:16:35:723896,-1,-4,-2,-31,5,-8,-18,0
15:16:35:738041,7,5,-3,-12,1,0,-4,-10
15:16:35:738929,-1,-4,-6,-14,-17,-13,-14,-2
15:16:35:744910,-1,-4,-6,-14,-17,-13,-14,-2
15:16:35:752361,-3,-1,-1,-4,2,1,-11,-4
15:16:35:760529,-3,0,4,12,-8,-2,-1,0
15:16:35:761350,-3,0,4,12,-8,-2,-1,0
15:16:35:767283,-3,-5,-4,-11,-6,16,1,1
15:16:35:783061,0,4,3,45,34,3,15,-1
15:16:35:783900,0,4,3,45,34,3,15,-1
15:16:35:789917,-5,-3,0,-19,-11,3,29,3
15:16:35:797350,0,1,3,-3,-15,5,7,5
15:16:35:804926,0,1,3,-3,-15,5,7,5
15:16:35:812323,4,0,-4,-11,-3,-9,61,18
15:16:35:828721,-2,-7,-6,-8,3,14,13,-6
15:16:35:829568,-2,-7,-6,-8,3,14,13,-6
15:16:35:830300,-3,-6,-11,-24,13,-7,-38,-5
15:16:35:843113,-4,-1,-7,24,7,4,24,5
15:16:35:843939,-4,-1,-7,24,7,4,24,5
15:16:35:849897,-4,-3,0,9,-25,-18,-12,-10
15:16:35:857447,2,3,2,0,17,20,-7,7
15:16:35:864920,2,3,2,0,17,20,-7,7
15:16:35:872373,-1,4,2,14,3,16,-20,2
15:16:35:879911,-1,-3,-6,-36,-35,-10,-24,-8
15:16:35:888054,-1,-3,-6,-36,-35,-10,-24,-8
15:16:35:888911,2,2,2,-8,21,13,-28,-7
15:16:35:903005,-3,-7,-10,3,25,-1,-26,-6
15:16:35:903965,-3,-7,-10,3,25,-1,-26,-6
15:16:35:909964,-4,0,-5,8,-8,-3,-23,-4
15:16:35:917383,1,3,-1,11,-16,-14,10,0
15:16:35:924971,1,3,-1,11,-16,-14,10,0
15:16:35:932345,-5,-4,-1,-4,-31,-20,-32,-8
15:16:35:940542,1,-2,-4,-47,0,39,-6,0
15:16:35:941421,1,-2,-4,-47,0,39,-6,0
15:16:35:947358,-2,0,-2,10,-7,-4,15,-1
15:16:35:963108,2,0,10,-6,-2,-15,-3,0
15:16:35:963914,2,0,10,-6,-2,-15,-3,0
15:16:35:969817,-4,0,2,24,3,-13,-19,1
15:16:35:977379,0,8,8,-16,-15,6,14,0
15:16:35:984932,0,8,8,-16,-15,6,14,0
15:16:35:992414,0,-6,-6,-5,-7,1,42,8
15:16:36:610,-1,0,4,24,12,-11,4,-7
15:16:36:1363,-1,0,4,24,12,-11,4,-7
15:16:36:14874,1,-1,-1,-8,15,9,29,2
15:16:36:23107,-3,-1,3,14,-5,-28,-9,-2
15:16:36:23922,-3,-1,3,14,-5,-28,-9,-2
15:16:36:38042,-1,1,8,-4,11,19,13,3
15:16:36:38803,-4,-7,-10,-30,-7,7,-8,-1
15:16:36:44944,-4,-7,-10,-30,-7,7,-8,-1
15:16:36:52317,2,1,-16,-6,-5,20,8,3
15:16:36:60625,-2,-3,1,12,8,-8,1,-3
15:16:36:61407,-2,-3,1,12,8,-8,1,-3
15:16:36:67379,-2,-1,2,-2,-14,-3,7,-5
15:16:36:83062,-6,-1,-8,-6,-12,-8,7,0
15:16:36:83912,-6,-1,-8,-6,-12,-8,7,0
15:16:36:89839,-2,1,8,6,24,-11,-25,-9
15:16:36:97320,2,-4,-5,-6,-32,-1,14,2
15:16:36:104937,2,-4,-5,-6,-32,-1,14,2
15:16:36:112370,-2,-2,4,61,13,22,-8,1
15:16:36:120621,0,-1,-6,-25,-11,-10,26,5
15:16:36:121424,0,-1,-6,-25,-11,-10,26,5
15:16:36:134876,-6,-3,-4,-17,-19,-16,-6,-5
15:16:36:143117,1,5,9,11,11,12,-2,-1
15:16:36:143915,1,5,9,11,11,12,-2,-1
15:16:36:149863,-2,-5,-5,11,-5,-19,-15,-13
15:16:36:157382,3,-1,0,11,25,8,5,8
15:16:36:164948,3,-1,0,11,25,8,5,8
15:16:36:172360,0,1,2,-8,11,13,-3,1
15:16:36:180501,-7,0,2,20,-4,-1,-2,0
15:16:36:181312,-7,0,2,20,-4,-1,-2,0
15:16:36:187400,-1,-3,-6,-41,-17,-6,-1,-1
15:16:36:203080,2,-1,-5,-21,-10,1,22,8
15:16:36:203934,2,-1,-5,-21,-10,1,22,8
15:16:36:210014,2,3,0,-21,-14,-6,-20,-8
15:16:36:217353,1,0,-3,-2,-15,-1,-8,-11
15:16:36:224963,1,0,-3,-2,-15,-1,-8,-11
15:16:36:232396,0,-2,-6,-5,19,2,2,5
15:16:36:248681,0,-3,-2,15,6,-4,2,-7
15:16:36:249513,0,-3,-2,15,6,-4,2,-7
15:16:36:250322,-1,-2,7,14,-2,17,12,2
15:16:36:271562,0,-2,-4,-11,-1,8,-4,0
15:16:36:272045,0,-2,-4,-11,-1,8,-4,0
15:16:36:272877,-2,1,-3,-1,-16,-29,-30,2
15:16:36:277329,1,1,4,13,7,8,-22,-6
15:16:36:301950,1,1,4,13,7,8,-22,-6
15:16:36:302714,0,0,1,6,-9,-1,2,8
15:16:36:303532,2,2,1,-6,11,-10,27,8
15:16:36:304354,2,2,1,-6,11,-10,27,8
15:16:36:307305,-3,-2,1,-1,26,20,-11,-2
15:16:36:323071,-2,-1,-1,-5,-19,-19,-21,-6
15:16:36:323935,-2,-1,-1,-5,-19,-19,-21,-6
15:16:36:337364,2,-1,1,15,3,8,25,0
15:16:36:345514,-1,2,0,-2,-4,1,-4,-1
15:16:36:346343,-1,2,0,-2,-4,1,-4,-1
15:16:36:361251,0,2,1,-26,-14,-11,0,-1
15:16:36:362039,1,-1,2,23,8,6,2,2
15:16:36:362884,1,-1,2,23,8,6,2,2
15:16:36:383721,-2,-2,-3,-2,-11,-14,-21,-9
15:16:36:384477,-4,-4,-10,-30,-31,-15,37,0
15:16:36:385288,-4,-4,-10,-30,-31,-15,37,0
15:16:36:389791,7,8,6,17,58,38,35,12
15:16:36:405542,-1,3,1,-36,-21,9,14,-1
15:16:36:406354,-1,3,1,-36,-21,9,14,-1
15:16:36:412373,-3,-4,-6,-10,-33,-20,-23,-9
15:16:36:420547,3,6,5,-7,1,-2,-22,-3
15:16:36:421410,3,6,5,-7,1,-2,-22,-3
15:16:36:434965,-1,-1,-5,-1,-2,2,14,5
15:16:36:443066,-6,-6,-11,-11,-21,-25,36,-2
15:16:36:443951,-6,-6,-11,-11,-21,-25,36,-2
15:16:36:449930,4,1,3,38,65,37,43,8
15:16:36:465552,3,1,6,22,-1,-16,-11,4
15:16:36:466339,3,1,6,22,-1,-16,-11,4
15:16:36:472378,-4,-4,-5,-38,-30,-6,-26,1
15:16:36:480500,-2,-10,-1,7,7,-7,-40,-6
15:16:36:481326,-2,-10,-1,7,7,-7,-40,-6
15:16:36:494932,-3,4,10,-29,4,-12,-14,-5
15:16:36:502998,4,-2,5,-14,21,2,23,17
15:16:36:503892,4,-2,5,-14,21,2,23,17
15:16:36:509911,0,2,3,15,20,-14,-1,0
15:16:36:525642,-9,-1,2,26,-15,-9,-35,-11
15:16:36:526398,-9,-1,2,26,-15,-9,-35,-11
15:16:36:541695,-4,-7,1,18,-32,26,48,-7
15:16:36:542505,8,8,7,45,17,31,82,9
15:16:36:564433,8,8,7,45,17,31,82,9
15:16:36:565238,-3,-4,-15,-44,-29,6,10,18
15:16:36:566045,-13,-11,3,0,-13,0,-32,-14
15:16:36:566912,-13,-11,3,0,-13,0,-32,-14
15:16:36:577398,1,1,-5,9,14,7,-2,-9
15:16:36:585528,1,1,-5,9,14,7,-2,-9
15:16:36:586322,3,0,-10,-49,-29,-15,-21,7
15:16:36:592366,2,7,11,23,-46,-32,8,-1
15:16:36:600557,2,7,11,23,-46,-32,8,-1
15:16:36:601362,4,4,-5,41,24,51,-85,-6
15:16:36:614944,3,1,4,-13,-1,21,70,13
15:16:36:623113,3,1,4,-13,-1,21,70,13
15:16:36:623911,-1,0,2,-14,-20,-23,-31,-1
15:16:36:629940,1,-5,-8,25,-5,-13,-19,-3
15:16:36:645639,1,-5,-8,25,-5,-13,-19,-3
15:16:36:646433,-9,-10,-26,-48,-10,-1,-1,-11
15:16:36:661314,-4,-6,1,-12,-17,-3,-61,-7
15:16:36:662078,-4,-6,1,-12,-17,-3,-61,-7
15:16:36:662939,2,-2,6,14,18,33,78,2
15:16:36:683741,-7,-5,-2,4,30,-23,-21,-26
15:16:36:684526,-7,-5,-2,4,30,-23,-21,-26
15:16:36:685320,0,-1,-8,76,-3,-36,28,5
15:16:36:689859,-1,-5,-14,-21,-1,10,8,0
15:16:36:705604,-1,-5,-14,-21,-1,10,8,0
15:16:36:706394,-5,-7,-10,-49,4,9,46,-13
15:16:36:712346,3,-1,2,-23,10,-8,-12,7
15:16:36:720570,3,-1,2,-23,10,-8,-12,7
15:16:36:721389,0,1,6,5,4,19,-85,-3
15:16:36:734910,-8,-7,-5,-14,-32,-10,-11,8
15:16:36:743111,-8,-7,-5,-14,-32,-10,-11,8
15:16:36:743941,-1,-4,-4,-11,-7,-8,7,-2
15:16:36:749826,3,9,7,2,26,6,-26,2
15:16:36:765559,3,9,7,2,26,6,-26,2
15:16:36:766331,-1,2,-4,-25,13,-1,-35,-6
15:16:36:772392,0,7,7,-4,29,-28,-8,-3
15:16:36:780569,0,7,7,-4,29,-28,-8,-3
15:16:36:781355,1,-1,1,71,-4,-28,-20,-1
15:16:36:794925,-2,-4,-11,4,-18,-40,-9,-11
15:16:36:803060,-2,-4,-11,4,-18,-40,-9,-11
15:16:36:803909,-1,-2,6,-10,-4,19,-11,-4
15:16:36:817380,-1,-3,-12,53,18,43,-53,-9
15:16:36:826659,-1,-3,-12,53,18,43,-53,-9
15:16:36:833043,-3,-4,-10,-1,45,11,9,4
15:16:36:833816,-7,-1,-3,-17,-23,-6,2,-10
15:16:36:840564,-7,-1,-3,-17,-23,-6,2,-10
15:16:36:841349,-9,1,3,-100,-35,-31,-25,-6
15:16:36:854897,-2,-4,2,14,18,25,10,9
15:16:36:863079,-2,-4,2,14,18,25,10,9
15:16:36:863905,-4,-1,5,10,25,0,7,12
15:16:36:869912,-2,-5,0,-15,-39,-9,20,16
15:16:36:885577,-2,-5,0,-15,-39,-9,20,16
15:16:36:886377,1,5,18,7,-31,-2,13,1
15:16:36:892394,5,3,8,36,7,1,-1,0
15:16:36:900628,5,3,8,36,7,1,-1,0
15:16:36:901382,5,4,-7,-16,10,-19,23,5
15:16:36:915352,7,-1,2,-28,-14,-7,45,13
15:16:36:923082,7,-1,2,-28,-14,-7,45,13
15:16:36:923929,6,7,10,7,56,49,42,1
15:16:36:937340,-2,0,-4,-19,-29,-6,-7,-10
15:16:36:945570,-2,0,-4,-19,-29,-6,-7,-10
15:16:36:946368,-12,-10,-10,-7,-39,11,-68,-11
15:16:36:952369,8,5,7,-33,22,55,2,3
15:16:36:968119,8,5,7,-33,22,55,2,3
15:16:36:968926,-1,0,8,0,34,-1,-15,-14
15:16:36:974828,-3,-6,-2,7,-16,-23,35,30
15:16:36:983055,-3,-6,-2,7,-16,-23,35,30
15:16:36:983926,4,-5,7,36,-5,13,38,-1
15:16:36:989847,-4,-2,-3,-33,7,8,-28,-20
15:16:37:5590,-4,-2,-3,-33,7,8,-28,-20
15:16:37:6399,5,0,-10,17,-37,-23,7,8
15:16:37:12363,-6,-5,-10,14,0,15,31,-3
15:16:37:28098,-6,-5,-10,14,0,15,31,-3
15:16:37:28935,-1,6,-19,19,7,-7,4,0
15:16:37:34816,-7,-2,0,9,22,-20,-17,-23
15:16:37:43110,-7,-2,0,9,22,-20,-17,-23
15:16:37:43929,-1,-7,-7,7,-10,-35,60,6
15:16:37:49836,3,2,-10,-4,74,60,24,9
15:16:37:65558,3,2,-10,-4,74,60,24,9
15:16:37:66386,-3,7,18,17,1,-13,-34,-10
15:16:37:79945,1,-4,-13,-9,-29,-43,-51,-22
15:16:37:88083,1,-4,-13,-9,-29,-43,-51,-22
15:16:37:88933,3,0,-28,-15,9,12,4,15
15:16:37:103764,5,-12,-48,3,-4,-24,20,4
15:16:37:104525,5,-12,-48,3,-4,-24,20,4
15:16:37:105336,4,-8,12,11,-21,-15,19,-2
15:16:37:109969,1,3,42,1,-15,3,-16,0
15:16:37:126132,1,3,42,1,-15,3,-16,0
15:16:37:126902,-3,0,-1,34,17,5,-15,1
15:16:37:132375,-8,1,2,24,6,6,-84,-10
15:16:37:148576,-8,1,2,24,6,6,-84,-10
15:16:37:149325,2,-3,11,-46,-1,19,-65,-3
15:16:37:154858,3,3,-11,-35,-34,-39,7,5
15:16:37:163075,3,3,-11,-35,-34,-39,7,5
15:16:37:163911,1,-4,-3,-23,-20,-15,27,2
15:16:37:169825,-9,-5,15,26,-34,-22,-25,-26
15:16:37:185553,-9,-5,15,26,-34,-22,-25,-26
15:16:37:186358,-12,7,20,-10,-7,-28,3,-5
15:16:37:192337,16,6,6,11,3,-2,37,-2
15:16:37:208161,16,6,6,11,3,-2,37,-2
15:16:37:208930,-8,-4,-16,9,-11,-1,-23,-6
15:16:37:214868,-3,0,5,-2,48,12,-15,5
15:16:37:223082,-3,0,5,-2,48,12,-15,5
15:16:37:223927,9,-2,3,-2,-14,-8,-18,-9
15:16:37:229854,-8,-6,-3,9,-38,-25,-32,8
15:16:37:245586,-8,-6,-3,9,-38,-25,-32,8
15:16:37:246376,-2,-2,-10,0,5,40,23,14
15:16:37:252322,10,4,-2,10,9,-1,-52,1
15:16:37:268093,10,4,-2,10,9,-1,-52,1
15:16:37:268909,13,-6,-20,3,23,30,29,2
15:16:37:274942,-27,-12,-7,2,-50,-27,41,-2
15:16:37:283105,-27,-12,-7,2,-50,-27,41,-2
15:16:37:283917,-5,-10,-43,-2,29,5,-15,-13
15:16:37:297311,-3,6,4,41,-7,-3,15,-6
15:16:37:305565,-3,6,4,41,-7,-3,15,-6
15:16:37:306378,-2,4,15,-25,-35,-4,-24,-2
15:16:37:312321,-3,1,-3,-50,4,20,16,5
15:16:37:319926,-3,1,-3,-50,4,20,16,5
15:16:37:327360,-1,-1,1,-44,12,-22,0,15
15:16:37:334830,3,1,0,10,11,0,68,11
15:16:37:343116,3,1,0,10,11,0,68,11
15:16:37:343938,-15,-2,-10,4,-14,-42,-17,3
15:16:37:357396,-1,2,13,13,44,61,26,4
15:16:37:365549,-1,2,13,13,44,61,26,4
15:16:37:366375,0,-1,17,-6,22,13,8,-12
15:16:37:372345,0,-4,-12,-40,-14,-14,-23,3
15:16:37:379953,0,-4,-12,-40,-14,-14,-23,3
15:16:37:387367,3,5,3,19,-5,12,-17,-11
15:16:37:394878,3,5,-3,-16,31,58,-54,-28
15:16:37:403020,3,5,-3,-16,31,58,-54,-28
15:16:37:403866,-13,8,25,35,-2,-38,19,-8
15:16:37:417376,11,-3,-15,-1,22,-12,72,23
15:16:37:425650,11,-3,-15,-1,22,-12,72,23
15:16:37:426411,-5,-2,13,9,-24,6,-15,-21
15:16:37:432352,-10,-9,-50,8,-34,-13,-32,-9
15:16:37:439959,-10,-9,-50,8,-34,-13,-32,-9
15:16:37:447372,4,-3,-4,-5,16,12,-6,6
15:16:37:463725,0,-12,16,-30,-14,-9,37,0
15:16:37:464527,0,-12,16,-30,-14,-9,37,0
15:16:37:465320,-4,0,20,-4,-4,-17,-86,-32
15:16:37:477369,14,1,11,4,18,32,9,3
15:16:37:485549,14,1,11,4,18,32,9,3
15:16:37:486339,1,-8,-32,-11,-16,-18,-9,-3
15:16:37:492401,-7,-2,14,5,-1,-18,-9,3
15:16:37:499944,-7,-2,14,5,-1,-18,-9,3
15:16:37:507410,0,-3,-8,-69,-14,-8,3,3
15:16:37:514869,-11,-8,-10,-5,8,-1,-1,-9
15:16:37:523080,-11,-8,-10,-5,8,-1,-1,-9
15:16:37:523937,-2,-9,-15,-7,9,34,17,2
15:16:37:537430,-4,1,11,1,-26,-21,-29,-10
15:16:37:545591,-4,1,11,1,-26,-21,-29,-10
15:16:37:546415,6,0,-3,10,29,-2,-19,-6
15:16:37:552343,-5,1,-20,-7,31,-28,22,-2
15:16:37:559914,-5,1,-20,-7,31,-28,22,-2
15:16:37:567400,11,9,-2,-13,-37,12,37,29
15:16:37:574951,-2,-10,10,26,-25,16,34,3
15:16:37:583041,-2,-10,10,26,-25,16,34,3
15:16:37:583944,-21,-2,26,29,53,30,7,-14
15:16:37:597363,-5,-5,9,-39,-39,-29,-41,-7
15:16:37:605613,-5,-5,9,-39,-39,-29,-41,-7
15:16:37:606336,3,-2,-13,20,-42,-10,18,8
15:16:37:612382,1,-5,24,24,-8,-12,-17,2
15:16:37:628031,1,-5,24,24,-8,-12,-17,2
15:16:37:628811,-7,1,-7,-3,-15,-9,-28,-7
15:16:37:634868,-1,0,-16,7,16,27,-6,6
15:16:37:643082,-1,0,-16,7,16,27,-6,6
15:16:37:643915,2,-2,31,-22,25,10,11,-5
15:16:37:666223,-4,4,-18,-5,1,-44,-20,5
15:16:37:667045,-4,4,-18,-5,1,-44,-20,5
15:16:37:667897,-6,-2,-7,-9,-2,-24,0,-7
15:16:37:672366,14,10,13,0,15,4,46,37
15:16:37:679947,14,10,13,0,15,4,46,37
15:16:37:687350,19,1,11,-2,40,9,15,9
15:16:37:694906,4,-2,-21,-27,-3,-9,-25,-13
15:16:37:703050,4,-2,-21,-27,-3,-9,-25,-13
15:16:37:703823,0,-4,-18,17,-14,-14,8,1
15:16:37:717386,-4,1,-6,17,35,28,-28,-2
15:16:37:725594,-4,1,-6,17,35,28,-28,-2
15:16:37:726408,-13,1,-1,2,-18,2,-20,-16
15:16:37:732338,-1,-5,22,-18,-21,19,0,-13
15:16:37:739937,-1,-5,22,-18,-21,19,0,-13
15:16:37:747398,7,4,19,58,-25,-7,33,9
15:16:37:754932,-5,3,5,17,37,43,-6,-16
15:16:37:763051,-5,3,5,17,37,43,-6,-16
15:16:37:763914,4,-3,-42,13,21,5,-7,6
15:16:37:777395,-4,-2,-8,-10,-24,-36,-20,-10
15:16:37:785506,-4,-2,-8,-10,-24,-36,-20,-10
15:16:37:786325,-18,-7,-4,28,-6,6,-7,-10
15:16:37:792425,21,4,28,0,9,20,55,33
15:16:37:799950,21,4,28,0,9,20,55,33
15:16:37:807365,13,5,-14,-51,-8,-8,5,-5
15:16:37:814913,-4,1,-6,6,-34,-4,-44,-12
15:16:37:823118,-4,1,-6,6,-34,-4,-44,-12
15:16:37:823913,7,-5,9,-11,-10,-19,-6,8
15:16:37:837442,-5,-3,-5,-14,-32,-21,-9,-4
15:16:37:845579,-5,-3,-5,-14,-32,-21,-9,-4
15:16:37:846343,-4,-6,-25,-47,-14,9,52,17
15:16:37:860564,-8,3,14,-5,1,-11,-13,-16
15:16:37:861356,-8,3,14,-5,1,-11,-13,-16
15:16:37:867382,-11,-11,28,-22,-14,-23,-54,-30
15:16:37:874977,2,0,-1,-3,0,-26,27,1
15:16:37:883050,2,0,-1,-3,0,-26,27,1
15:16:37:883912,6,-1,-13,-28,-8,-1,-11,12
15:16:37:897370,-5,1,-19,-59,-22,-18,-14,-7
15:16:37:905514,-5,1,-19,-59,-22,-18,-14,-7
15:16:37:906327,-6,3,11,50,13,7,4,-4
15:16:37:912387,0,4,35,38,24,13,-20,-3
15:16:37:919917,0,4,35,38,24,13,-20,-3
15:16:37:927318,1,0,4,6,14,39,60,-2
15:16:37:934803,23,1,-11,10,-14,36,47,-44
15:16:37:943109,23,1,-11,10,-14,36,47,-44
15:16:37:943947,-1,-11,4,2,-3,19,-31,-6
15:16:37:957437,-3,-6,-12,6,5,5,25,20
15:16:37:965583,-3,-6,-12,6,5,5,25,20
15:16:37:966346,-2,-3,-18,-14,16,-6,6,6
15:16:37:972310,-10,1,-1,39,37,-5,-26,-1
15:16:37:979948,-10,1,-1,39,37,-5,-26,-1
15:16:37:987321,-3,0,4,9,-14,-13,-47,2
15:16:37:994832,-1,13,-16,3,6,-3,19,1
15:16:38:3083,-1,13,-16,3,6,-3,19,1
15:16:38:3937,14,1,11,-3,-2,5,19,16
15:16:38:17378,8,-5,-21,12,-17,-41,-39,-12
15:16:38:25635,8,-5,-21,12,-17,-41,-39,-12
15:16:38:26406,-9,10,-3,-26,-29,-11,7,-9
15:16:38:32330,-2,-1,7,4,-7,14,55,34
15:16:38:39954,-2,-1,7,4,-7,14,55,34
15:16:38:47366,-5,-1,23,8,17,-29,-27,2
15:16:38:54885,-7,-8,10,42,4,-19,-36,-8
15:16:38:63109,-7,-8,10,42,4,-19,-36,-8
15:16:38:63959,1,3,-5,7,-5,5,22,-1
15:16:38:77379,-1,1,9,-8,4,-6,-10,8
15:16:38:85627,-1,1,9,-8,4,-6,-10,8
15:16:38:86426,-3,4,7,11,9,8,-41,10
15:16:38:92350,-8,2,-4,-14,-14,11,-5,-37
15:16:38:99938,-8,2,-4,-14,-14,11,-5,-37
15:16:38:107426,-1,-1,-15,28,11,-21,-5,0
15:16:38:114870,-8,-7,-1,12,20,-16,34,14
15:16:38:123085,-8,-7,-1,12,20,-16,34,14
15:16:38:123864,2,-12,-32,38,5,-8,9,3
15:16:38:137419,-4,-1,7,-12,-18,-13,-51,-10
15:16:38:145557,-4,-1,7,-12,-18,-13,-51,-10
15:16:38:146330,-11,6,-28,-13,10,22,33,13
15:16:38:152332,0,-1,-6,-21,-24,-7,-50,-11
15:16:38:159999,0,-1,-6,-21,-24,-7,-50,-11
15:16:38:167378,-4,-3,14,14,-3,6,5,3
15:16:38:174969,3,2,-1,0,-5,20,21,8
15:16:38:183065,3,2,-1,0,-5,20,21,8
15:16:38:183949,-2,-4,-11,-31,-25,14,-46,-13
15:16:38:197373,3,3,37,19,65,54,68,17
15:16:38:205539,3,3,37,19,65,54,68,17
15:16:38:206328,-2,-7,6,-1,23,-3,38,2
15:16:38:212393,-9,-11,-23,-19,-40,-28,-18,-2
15:16:38:219904,-9,-11,-23,-19,-40,-28,-18,-2
15:16:38:227372,16,-2,13,-7,8,-1,-37,-11
15:16:38:243096,4,-5,4,-20,-21,-29,-29,-20
15:16:38:243948,4,-5,4,-20,-21,-29,-29,-20
15:16:38:249926,-2,12,8,-28,-20,0,16,19
15:16:38:257439,-3,5,4,-4,11,-18,29,4
15:16:38:265593,-3,5,4,-4,11,-18,29,4
15:16:38:266358,2,-2,7,15,2,5,-12,-38
15:16:38:280554,-16,-5,-10,4,7,-8,-21,-12
15:16:38:281361,-16,-5,-10,4,7,-8,-21,-12
15:16:38:287415,-2,7,-3,9,47,11,19,17
15:16:38:294981,-5,1,-6,6,48,-9,-44,-18
15:16:38:302371,-5,1,-6,6,48,-9,-44,-18
15:16:38:309828,-1,6,-34,-22,-36,-27,10,-1
15:16:38:317333,16,-2,-10,2,-29,-10,37,18
15:16:38:325581,16,-2,-10,2,-29,-10,37,18
15:16:38:326375,14,-6,14,-3,23,12,-21,-3
15:16:38:340580,4,5,-6,7,-22,17,0,11
15:16:38:341355,4,5,-6,7,-22,17,0,11
15:16:38:347313,7,-11,-33,30,-21,-1,30,4
15:16:38:354799,-6,25,-51,-14,-5,7,-2,-1
15:16:38:362409,-6,25,-51,-14,-5,7,-2,-1
15:16:38:369815,-10,21,29,17,22,-2,-5,-3
15:16:38:377336,-7,-40,-13,-59,-5,8,-17,4
15:16:38:385574,-7,-40,-13,-59,-5,8,-17,4
15:16:38:386367,-9,-16,-11,-27,-25,-17,-38,-12
15:16:38:400561,-8,-8,34,15,-23,-6,35,-5
15:16:38:401363,-8,-8,34,15,-23,-6,35,-5
15:16:38:407361,-13,-5,12,-13,3,51,57,23
15:16:38:414813,-2,10,11,11,8,2,2,-22
15:16:38:422443,-2,10,11,11,8,2,2,-22
15:16:38:429859,-3,-13,-26,5,-14,-34,-25,-8
15:16:38:437408,-1,-8,-6,6,-28,7,10,9
15:16:38:445530,-1,-8,-6,6,-28,7,10,9
15:16:38:446331,-4,-6,16,13,-1,-32,-15,-1
15:16:38:460663,1,-2,-8,2,-25,-34,-17,8
15:16:38:461378,1,-2,-8,2,-25,-34,-17,8
15:16:38:467386,11,1,-9,-3,-9,-4,19,11
15:16:38:474887,2,5,-36,-4,18,19,19,-4
15:16:38:482340,2,5,-36,-4,18,19,19,-4
15:16:38:489872,-19,-2,-7,-2,-1,11,-27,-23
15:16:38:497366,-4,-1,15,3,-15,-11,-8,1
15:16:38:505573,-4,-1,15,3,-15,-11,-8,1
15:16:38:506360,7,8,13,-2,10,15,9,2
15:16:38:520625,0,6,13,94,41,3,-18,1
15:16:38:521357,0,6,13,94,41,3,-18,1
15:16:38:527382,-2,-12,23,49,-14,-18,19,0
15:16:38:534837,6,-5,28,-24,16,-2,-6,13
15:16:38:542450,6,-5,28,-24,16,-2,-6,13
15:16:38:549802,4,4,9,-4,2,19,19,23
15:16:38:557441,-9,4,-6,-26,3,13,10,-44
15:16:38:565577,-9,4,-6,-26,3,13,10,-44
15:16:38:566400,16,2,27,-25,-19,-14,-2,-13
15:16:38:580549,0,-1,-27,-13,-23,-9,-2,17
15:16:38:581375,0,-1,-27,-13,-23,-9,-2,17
15:16:38:587395,-3,-2,-23,9,17,14,-4,-14
15:16:38:594874,-3,-10,-15,-11,-9,4,-12,3
15:16:38:602393,-3,-10,-15,-11,-9,4,-12,3
15:16:38:609850,-5,6,-16,-29,21,16,8,8
15:16:38:617375,-2,-5,3,-27,-5,-4,-23,3
15:16:38:625618,-2,-5,3,-27,-5,-4,-23,3
15:16:38:626407,-4,-10,21,10,-12,-17,-35,1
15:16:38:640567,18,14,36,2,12,8,-32,6
15:16:38:641349,18,14,36,2,12,8,-32,6
15:16:38:647310,-1,11,20,3,55,21,27,8
15:16:38:654912,2,-8,-17,-7,10,11,-13,-5
15:16:38:662454,2,-8,-17,-7,10,11,-13,-5
15:16:38:669837,-7,3,21,-6,-32,-26,-2,-12
15:16:38:677377,9,3,7,-16,10,16,6,-15
15:16:38:685568,9,3,7,-16,10,16,6,-15
15:16:38:686412,-3,-12,8,26,-13,18,2,-14
15:16:38:700590,-16,-9,-18,2,-12,-12,-23,6
15:16:38:701409,-16,-9,-18,2,-12,-12,-23,6
15:16:38:707413,6,10,-4,8,-9,-18,6,1
15:16:38:714831,-10,13,21,-7,-16,-9,10,0
15:16:38:722419,-10,13,21,-7,-16,-9,10,0
15:16:38:729877,-7,5,-14,10,-3,-4,-24,-2
15:16:38:737382,3,3,4,10,22,0,24,-4
15:16:38:745572,3,3,4,10,22,0,24,-4
15:16:38:746317,6,1,-27,-52,-23,-4,-4,8
15:16:38:760589,-3,-20,-5,-3,-12,-23,-14,3
15:16:38:761380,-3,-20,-5,-3,-12,-23,-14,3
15:16:38:767355,-8,6,-7,-7,-5,24,-30,42
15:16:38:774906,-2,-24,-58,5,2,0,11,0
15:16:38:782377,-2,-24,-58,5,2,0,11,0
15:16:38:789874,-3,-13,-16,3,-9,-17,-3,-12
15:16:38:797353,4,11,9,-42,8,4,5,5
15:16:38:805523,4,11,9,-42,8,4,5,5
15:16:38:806344,-15,-20,-48,65,68,7,-7,-18
15:16:38:820567,10,5,23,10,6,-4,-15,0
15:16:38:821351,10,5,23,10,6,-4,-15,0
15:16:38:827384,-3,8,21,-30,-17,-20,-7,-9
15:16:38:834859,14,-1,-39,3,6,14,22,45
15:16:38:842463,14,-1,-39,3,6,14,22,45
15:16:38:849789,7,3,-7,-4,-9,-2,32,-9
15:16:38:857341,-7,11,19,-12,-28,-9,12,-2
15:16:38:865566,-7,11,19,-12,-28,-9,12,-2
15:16:38:866356,8,15,-11,-19,17,17,-4,-3
15:16:38:880572,-8,-10,-15,-28,-64,-20,-11,-9
15:16:38:881355,-8,-10,-15,-28,-64,-20,-11,-9
15:16:38:887306,-1,-4,24,2,-1,23,1,-7
15:16:38:894870,-9,0,39,21,2,18,-41,-30
15:16:38:902418,-9,0,39,21,2,18,-41,-30
15:16:38:909913,23,1,18,4,-2,13,12,11
15:16:38:917371,0,-20,34,30,10,2,60,16
15:16:38:925829,0,-20,34,30,10,2,60,16
15:16:38:926443,11,-7,-15,-50,-9,-14,-22,9
15:16:38:940595,-5,3,-5,36,15,2,-12,-6
15:16:38:941409,-5,3,-5,36,15,2,-12,-6
15:16:38:947389,-6,2,1,68,15,-9,-2,-1
15:16:38:954881,0,1,-33,-8,25,-3,-6,-7
15:16:38:962426,0,1,-33,-8,25,-3,-6,-7
15:16:38:969849,-11,-3,54,-18,-18,-17,4,-15
15:16:38:977371,6,7,19,19,7,19,48,9
15:16:38:985591,6,7,19,19,7,19,48,9
15:16:38:986410,-1,-9,-24,-21,29,-3,-17,-2
15:16:39:589,-12,-10,-13,-64,-9,-7,-37,-15
15:16:39:1404,-12,-10,-13,-64,-9,-7,-37,-15
15:16:39:7395,-8,0,3,-2,-23,-22,-17,-4
15:16:39:14858,2,9,3,8,6,-1,-4,-5
15:16:39:22425,2,9,3,8,6,-1,-4,-5
15:16:39:29882,-7,-2,4,34,13,-14,-14,-7
15:16:39:37370,-1,5,43,58,16,0,2,1
15:16:39:45565,-1,5,43,58,16,0,2,1
15:16:39:46341,-1,-8,-18,-21,-29,0,35,3
15:16:39:60543,-10,-5,-46,-12,-12,-12,-10,-3
15:16:39:61333,-10,-5,-46,-12,-12,-12,-10,-3
15:16:39:67363,-1,3,35,-6,-9,-32,-11,-11
15:16:39:74911,-5,-5,-2,7,2,1,-26,-18
15:16:39:82343,-5,-5,-2,7,2,1,-26,-18
15:16:39:89902,-1,10,-5,-15,-17,-4,-16,15
15:16:39:97360,4,7,26,-11,1,-2,-9,10
15:16:39:105563,4,7,26,-11,1,-2,-9,10
15:16:39:106376,-10,-10,37,-26,-13,16,8,-10
15:16:39:120545,4,1,8,-5,-7,6,21,10
15:16:39:121331,4,1,8,-5,-7,6,21,10
15:16:39:127360,1,3,-39,-2,-9,6,11,4
15:16:39:134871,10,7,-58,-33,-34,-23,-18,-5
15:16:39:142450,10,7,-58,-33,-34,-23,-18,-5
15:16:39:149820,-9,7,24,-60,-13,-2,17,6
15:16:39:157359,-3,-10,-18,26,15,2,7,0
15:16:39:164966,-3,-10,-18,26,15,2,7,0
15:16:39:172383,-3,8,-25,-19,14,8,-3,-3
15:16:39:180541,5,6,15,18,15,10,19,13
15:16:39:181376,5,6,15,18,15,10,19,13
15:16:39:187347,1,0,4,-14,-16,-9,-20,-4
15:16:39:203060,-5,-8,-3,2,7,2,15,15
15:16:39:203942,-5,-8,-3,2,7,2,15,15
15:16:39:209863,5,-16,-53,5,27,12,-28,6
15:16:39:217358,-28,-47,-21,-6,-23,-17,8,-5
15:16:39:224985,-28,-47,-21,-6,-23,-17,8,-5
15:16:39:232364,-2,-9,4,26,-26,-3,-13,-14
15:16:39:240591,1,10,22,-17,14,14,-4,1
15:16:39:241383,1,10,22,-17,14,14,-4,1
15:16:39:247369,-4,1,33,47,-5,-5,-59,-30
15:16:39:263090,24,21,52,-35,-41,-11,12,-9
15:16:39:263928,24,21,52,-35,-41,-11,12,-9
15:16:39:269827,-6,-13,-40,14,6,-9,11,-2
15:16:39:277391,-5,6,-25,-58,-7,-13,-23,-12
15:16:39:284972,-5,6,-25,-58,-7,-13,-23,-12
15:16:39:292426,8,-4,-20,29,16,10,24,15
15:16:39:300544,20,0,-11,22,11,1,-15,-17
15:16:39:301347,20,0,-11,22,11,1,-15,-17
15:16:39:307413,0,-2,1,-15,-7,-21,28,3
15:16:39:323087,-4,-1,9,19,21,-1,-11,4
15:16:39:323883,-4,-1,9,19,21,-1,-11,4
15:16:39:329884,4,-3,-21,-25,-5,7,11,21
15:16:39:337400,-8,-2,13,35,21,10,-9,1
15:16:39:344890,-8,-2,13,35,21,10,-9,1
15:16:39:352374,-9,-5,-41,-18,-23,-11,-15,-7
15:16:39:360539,7,-1,13,27,26,54,11,27
15:16:39:361376,7,-1,13,27,26,54,11,27
15:16:39:367334,13,8,-5,-11,5,3,2,-2
15:16:39:383025,-24,-2,-28,26,-44,-35,-7,-15
15:16:39:383871,-24,-2,-28,26,-44,-35,-7,-15
15:16:39:389871,3,21,62,-4,36,35,12,1
15:16:39:397360,2,3,55,-19,-10,-12,-30,2
15:16:39:404959,2,3,55,-19,-10,-12,-30,2
15:16:39:412331,-7,-4,-5,-8,-7,-13,1,-6
15:16:39:420551,-5,6,-2,13,9,5,9,8
15:16:39:421397,-5,6,-2,13,9,5,9,8
15:16:39:427357,-8,7,9,54,12,-4,-33,-24
15:16:39:443098,0,-5,11,-13,3,19,32,4
15:16:39:443953,0,-5,11,-13,3,19,32,4
15:16:39:449803,3,-9,-24,14,2,0,-2,4
15:16:39:457334,-3,12,13,12,-33,-22,17,-9
15:16:39:464906,-3,12,13,12,-33,-22,17,-9
15:16:39:472405,-1,-2,28,-29,-4,28,52,7
15:16:39:480544,-1,-3,-12,-26,-3,-13,-40,0
15:16:39:481385,-1,-3,-12,-26,-3,-13,-40,0
15:16:39:487373,1,-11,-11,-23,-1,-34,-21,0
15:16:39:503047,0,-7,-4,24,-13,-10,-1,-8
15:16:39:503940,0,-7,-4,24,-13,-10,-1,-8
15:16:39:509906,-7,-6,0,24,-20,-6,-4,0
15:16:39:517373,3,6,-6,0,26,4,-4,-3
15:16:39:525013,3,6,-6,0,26,4,-4,-3
15:16:39:532355,5,16,35,-28,0,8,24,6
15:16:39:540556,-1,15,30,-14,2,7,6,-3
15:16:39:541380,-1,15,30,-14,2,7,6,-3
15:16:39:547354,5,-1,-44,-18,-14,-2,-12,-17
15:16:39:563105,-10,4,37,-3,46,49,11,-3
15:16:39:563929,-10,4,37,-3,46,49,11,-3
15:16:39:569857,-2,-12,-40,8,24,4,8,-1
15:16:39:577366,0,-11,-45,-60,-28,-32,-8,-8
15:16:39:584836,0,-11,-45,-60,-28,-32,-8,-8
15:16:39:592412,-8,8,21,17,9,17,24,12
15:16:39:600517,-10,3,-36,-28,-26,-16,-16,-9
15:16:39:601335,-10,3,-36,-28,-26,-16,-16,-9
15:16:39:607328,-13,-7,24,-24,-12,4,47,12
15:16:39:623060,-4,-25,-41,13,0,2,6,-27
15:16:39:623848,-4,-25,-41,13,0,2,6,-27
15:16:39:629860,-21,-20,-23,0,-25,-19,-19,-17
15:16:39:637467,3,-10,-38,79,60,10,4,10
15:16:39:644893,3,-10,-38,79,60,10,4,10
15:16:39:652328,1,-13,26,58,20,4,-17,3
15:16:39:660600,2,13,23,-5,6,-5,2,6
15:16:39:661382,2,13,23,-5,6,-5,2,6
15:16:39:667325,10,5,9,-19,-35,-13,6,11
15:16:39:683050,1,-7,-7,16,-12,11,53,20
15:16:39:683864,1,-7,-7,16,-12,11,53,20
15:16:39:689859,-7,-6,-21,-28,7,6,9,-2
15:16:39:697375,-6,-4,-2,-48,-44,-19,-18,9
15:16:39:713072,-6,-4,-2,-48,-44,-19,-18,9
15:16:39:713842,4,-1,1,35,17,-3,-27,-6
15:16:39:720530,14,-24,-15,11,-7,3,-10,-2
15:16:39:721333,14,-24,-15,11,-7,3,-10,-2
15:16:39:734836,-1,0,-9,8,6,22,-9,-7
15:16:39:743053,4,8,-6,-11,-13,5,9,1
15:16:39:743865,4,8,-6,-11,-13,5,9,1
15:16:39:758063,1,-16,-30,-35,2,-2,-14,10
15:16:39:758806,-13,-24,31,40,17,-6,41,13
15:16:39:764929,-13,-24,31,40,17,-6,41,13
15:16:39:772357,-7,33,19,-3,-18,0,45,42
15:16:39:780524,-1,-2,-15,1,5,-2,-23,-12
15:16:39:781335,-1,-2,-15,1,5,-2,-23,-12
15:16:39:787406,-4,0,40,53,50,-6,0,-9
15:16:39:803008,-8,3,-28,-3,-15,-3,-26,6
15:16:39:803858,-8,3,-28,-3,-15,-3,-26,6
15:16:39:809869,19,34,54,-76,-52,3,-4,-10
15:16:39:817402,0,21,97,16,19,4,-55,-28
15:16:39:824892,0,21,97,16,19,4,-55,-28
15:16:39:832399,-7,-14,-21,9,7,-4,-16,-3
15:16:39:848690,1,2,-88,-29,-17,-8,-38,3
15:16:39:849518,1,2,-88,-29,-17,-8,-38,3
15:16:39:850348,5,-32,1,5,3,-4,-35,-19
15:16:39:863483,-4,5,-19,-16,-2,-8,20,-3
15:16:39:864314,-4,5,-19,-16,-2,-8,20,-3
15:16:39:869826,-9,-9,-80,-43,27,7,8,-2
15:16:39:877363,4,-7,-4,-15,-14,-9,12,0
15:16:39:884947,4,-7,-4,-15,-14,-9,12,0
15:16:39:892454,2,12,-17,1,26,4,12,-1
15:16:39:900561,3,21,34,-14,-9,-14,-1,-3
15:16:39:901319,3,21,34,-14,-9,-14,-1,-3
15:16:39:907411,8,0,50,11,-27,-7,-26,-25
15:16:39:923083,8,0,50,11,-27,-7,-26,-25
15:16:39:923848,7,-5,-20,6,24,37,74,23
15:16:39:929905,0,8,8,-1,-2,-10,0,1
15:16:39:945636,0,8,8,-1,-2,-10,0,1
15:16:39:946411,0,21,25,-11,-1,12,41,1
15:16:39:952317,4,-14,1,94,-6,-7,10,4
15:16:39:968750,4,-14,1,94,-6,-7,10,4
15:16:39:969559,1,4,-24,-23,14,4,-14,-3
15:16:39:970371,-1,0,4,-9,-32,-5,9,1
15:16:39:983040,-1,0,4,-9,-32,-5,9,1
15:16:39:983985,-6,-24,36,0,2,-9,-6,-5
15:16:39:989860,-3,-14,-30,-12,-15,-10,-28,10
15:16:40:5550,-3,-14,-30,-12,-15,-10,-28,10
15:16:40:6363,2,-1,-6,-5,-11,14,6,10
15:16:40:12352,-9,3,-7,-9,1,-2,-20,-6
15:16:40:20583,-9,3,-7,-9,1,-2,-20,-6
15:16:40:21354,-2,-4,-20,0,-12,-13,-12,-8
15:16:40:27372,-1,11,-12,-15,30,13,2,3
15:16:40:43066,-1,11,-12,-15,30,13,2,3
15:16:40:43853,4,-4,-37,16,27,-18,-8,-4
15:16:40:49789,-4,-19,-37,-19,25,-9,-6,-15
15:16:40:65562,-4,-19,-37,-19,25,-9,-6,-15
15:16:40:66338,-6,-3,-73,0,-19,2,-22,-6
15:16:40:72320,3,4,35,19,2,7,66,25
15:16:40:80522,3,4,35,19,2,7,66,25
15:16:40:81332,-2,-19,3,-14,-20,-19,-24,-8
15:16:40:87321,-3,6,22,16,-5,0,-47,-13
15:16:40:103028,-3,6,22,16,-5,0,-47,-13
15:16:40:103838,-10,7,27,-45,-21,-3,-8,-36
15:16:40:109815,4,11,14,10,-5,26,81,29
15:16:40:125630,4,11,14,10,-5,26,81,29
15:16:40:126355,1,0,32,-7,48,5,5,1
15:16:40:132371,6,3,-10,-46,-21,-11,-26,-12
15:16:40:140579,6,3,-10,-46,-21,-11,-26,-12
15:16:40:141384,4,-6,6,31,-15,10,4,8
15:16:40:154924,-3,-8,-32,-9,-15,12,-2,-4
15:16:40:163069,-3,-8,-32,-9,-15,12,-2,-4
15:16:40:163820,-1,-14,-16,-7,-18,-2,0,8
15:16:40:169883,-6,-37,10,28,4,2,13,-4
15:16:40:185551,-6,-37,10,28,4,2,13,-4
15:16:40:186343,-1,-8,25,-10,-5,1,-64,-23
15:16:40:192425,0,17,6,-12,-12,-31,-12,-4
15:16:40:200575,0,17,6,-12,-12,-31,-12,-4
15:16:40:201385,-7,-4,-20,9,25,0,10,1
15:16:40:214893,4,3,-12,-12,1,-6,-13,-13
15:16:40:223073,4,3,-12,-12,1,-6,-13,-13
15:16:40:223912,-4,-10,-17,9,42,3,-12,5
15:16:40:229858,-1,-1,8,-10,12,0,-5,-4
15:16:40:245631,-1,-1,8,-10,12,0,-5,-4
15:16:40:246435,-5,-2,-6,-30,-17,-20,34,3
15:16:40:252339,-1,16,-12,-1,-15,6,9,9
15:16:40:260569,-1,16,-12,-1,-15,6,9,9
15:16:40:261388,2,28,52,-16,-32,-16,-7,5
15:16:40:275004,0,13,8,9,-16,-8,-11,-4
15:16:40:283092,0,13,8,9,-16,-8,-11,-4
15:16:40:283972,5,6,-3,19,6,-4,-1,-2
15:16:40:289841,1,-6,31,51,2,10,23,7
15:16:40:305603,1,-6,31,51,2,10,23,7
15:16:40:306357,2,0,-5,15,-6,2,-29,-5
15:16:40:312349,-4,-12,18,-39,13,14,25,1
15:16:40:320523,-4,-12,18,-39,13,14,25,1
15:16:40:321366,-7,4,-5,-9,24,11,14,-1
15:16:40:334873,-6,-26,-47,5,9,-11,-27,-8
15:16:40:343075,-6,-26,-47,5,9,-11,-27,-8
15:16:40:343942,-4,-20,-36,29,-22,-16,-5,-3
15:16:40:349822,1,-10,25,45,47,9,-13,-4
15:16:40:365577,1,-10,25,45,47,9,-13,-4
15:16:40:366346,0,3,11,3,-41,-14,5,2
15:16:40:372357,-4,5,-15,-25,-13,-5,-58,-19
15:16:40:380558,-4,5,-15,-25,-13,-5,-58,-19
15:16:40:381364,6,4,10,-3,13,-13,9,3
15:16:40:394890,3,1,24,-2,-13,0,30,7
15:16:40:403685,3,1,24,-2,-13,0,30,7
15:16:40:404580,-8,-9,20,11,-27,-12,1,1
15:16:40:409860,-11,0,4,23,-5,-15,-65,-21
15:16:40:425626,-11,0,4,23,-5,-15,-65,-21
15:16:40:426365,-16,-6,0,35,41,25,28,-6
15:16:40:432334,-1,12,17,-11,14,-11,21,3
15:16:40:440659,-1,12,17,-11,14,-11,21,3
15:16:40:441401,4,-6,9,-17,-9,4,-3,3
15:16:40:454912,-3,-15,-20,-2,-39,-13,-24,-3
15:16:40:463088,-3,-15,-20,-2,-39,-13,-24,-3
15:16:40:463933,7,-6,31,-18,13,29,36,9
15:16:40:477326,0,14,3,-38,-37,-10,21,7
15:16:40:485546,0,14,3,-38,-37,-10,21,7
15:16:40:486349,9,-4,-46,11,0,13,0,2
15:16:40:492321,5,26,45,14,5,-4,-35,-5
15:16:40:500603,5,26,45,14,5,-4,-35,-5
15:16:40:501371,6,-3,30,-19,-8,-5,-24,17
15:16:40:514816,-2,-2,-10,28,12,-3,37,8
15:16:40:531220,-2,-2,-10,28,12,-3,37,8
15:16:40:532002,2,12,-12,-14,-7,-6,-2,-11
15:16:40:532821,8,-7,-3,-38,-5,54,81,4
15:16:40:545552,8,-7,-3,-38,-5,54,81,4
15:16:40:546300,-2,11,7,-2,39,28,17,0
15:16:40:552361,-9,-14,-69,-2,30,-18,-47,-11
15:16:40:560570,-9,-14,-69,-2,30,-18,-47,-11
15:16:40:561336,-2,6,-35,-54,-5,-10,-13,-9
15:16:40:574927,1,-1,-24,7,9,14,6,8
15:16:40:583042,1,-1,-24,7,9,14,6,8
15:16:40:583831,-5,-15,-22,0,-38,-14,-16,-4
15:16:40:589882,-2,-17,12,15,-21,9,12,5
15:16:40:605588,-2,-17,12,15,-21,9,12,5
15:16:40:606374,1,10,3,10,18,2,43,10
15:16:40:612361,4,25,18,-8,6,0,22,6
15:16:40:620567,4,25,18,-8,6,0,22,6
15:16:40:621368,-11,-6,51,8,6,2,22,-3
15:16:40:634907,0,7,-12,-77,-28,-24,2,9
15:16:40:643070,0,7,-12,-77,-28,-24,2,9
15:16:40:643787,2,16,11,31,6,7,-33,-10
15:16:40:649875,-4,1,-20,-6,-6,3,-12,0
15:16:40:665596,-4,1,-20,-6,-6,3,-12,0
15:16:40:666357,-6,-9,-2,7,-12,-19,-41,-4
15:16:40:681201,-1,22,-1,22,-4,-9,-18,-9
15:16:40:682060,-1,22,-1,22,-4,-9,-18,-9
15:16:40:682830,2,18,9,39,15,1,-16,-4
15:16:40:694824,-6,-28,-65,12,24,-10,-8,-1
15:16:40:703022,-6,-28,-65,12,24,-10,-8,-1
15:16:40:703876,-2,-5,-10,-76,-10,-5,3,-1
15:16:40:709819,3,0,2,19,65,-6,-40,-12
15:16:40:733718,3,0,2,19,65,-6,-40,-12
15:16:40:734465,7,-12,-48,33,37,-11,5,9
15:16:40:735284,0,0,23,-2,-28,-14,-8,-1
15:16:40:740634,0,0,23,-2,-28,-14,-8,-1
15:16:40:741329,7,9,18,-19,-50,-14,-4,-1
15:16:40:755294,-1,9,55,-4,-25,3,-9,-1
15:16:40:763056,-1,9,55,-4,-25,3,-9,-1
15:16:40:763906,0,-7,-7,-14,-21,1,-2,-6
15:16:40:769825,-2,-14,-3,-66,-22,-6,2,1
15:16:40:785622,-2,-14,-3,-66,-22,-6,2,1
15:16:40:786407,-5,-6,-14,12,27,-6,4,-7
15:16:40:792413,-3,-10,8,-8,-2,-1,20,2
15:16:40:800537,-3,-10,8,-8,-2,-1,20,2
15:16:40:801359,-1,9,4,32,18,-1,-17,-9
15:16:40:814872,3,-15,15,-21,-16,13,12,18
15:16:40:823091,3,-15,15,-21,-16,13,12,18
15:16:40:823956,-4,7,-39,2,-7,13,13,4
15:16:40:829895,0,8,3,69,-10,-14,-29,-15
15:16:40:845671,0,8,3,69,-10,-14,-29,-15
15:16:40:846471,-4,-12,0,-24,-8,3,0,5
15:16:40:852324,1,-12,-39,17,-10,0,7,-5
15:16:40:860602,1,-12,-39,17,-10,0,7,-5
15:16:40:861384,-2,7,21,37,9,17,0,-7
15:16:40:874860,1,3,-8,27,6,0,14,1
15:16:40:883059,1,3,-8,27,6,0,14,1
15:16:40:883923,-6,-11,5,-31,-16,-10,-47,-2
15:16:40:889863,-3,-1,22,-25,14,5,-18,-3
15:16:40:905564,-3,-1,22,-25,14,5,-18,-3
15:16:40:906346,-3,-15,16,78,15,-1,8,-3
15:16:40:912331,-3,1,-11,-45,-9,-8,-3,-2
15:16:40:920579,-3,1,-11,-45,-9,-8,-3,-2
15:16:40:921377,0,2,23,4,-18,-3,4,-1
15:16:40:934784,-4,6,23,4,1,3,18,0
15:16:40:943093,-4,6,23,4,1,3,18,0
15:16:40:943862,7,-10,-23,-37,-15,18,28,8
15:16:40:949827,0,-8,8,-14,-21,-29,-12,-6
15:16:40:965541,0,-8,8,-14,-21,-29,-12,-6
15:16:40:966364,2,11,32,0,32,5,8,-1
15:16:40:972309,3,-2,-18,-13,9,10,26,5
15:16:40:980532,3,-2,-18,-13,9,10,26,5
15:16:40:981357,-5,-8,2,-61,-2,-22,15,-5
15:16:40:994856,-3,-2,1,-6,13,6,-4,-4
15:16:41:11224,-3,-2,1,-6,13,6,-4,-4
15:16:41:12013,-3,6,32,-9,-27,-9,-24,-1
15:16:41:12804,6,7,-7,27,10,9,22,12
15:16:41:33763,6,7,-7,27,10,9,22,12
15:16:41:34564,1,-10,-28,-62,-63,-26,10,-1
15:16:41:35349,-1,5,7,16,10,11,-15,-5
15:16:41:40593,-1,5,7,16,10,11,-15,-5
15:16:41:41410,6,13,0,-8,1,-2,-6,-1
15:16:41:54938,-8,-12,-14,-12,12,19,8,-2
15:16:41:63114,-8,-12,-14,-12,12,19,8,-2
15:16:41:63947,4,-1,28,12,26,15,26,7
15:16:41:77347,8,-6,4,43,47,-3,2,12
15:16:41:85579,8,-6,4,43,47,-3,2,12
15:16:41:86387,-3,-24,-11,-39,-12,-10,1,-2
15:16:41:92333,1,11,8,-26,-27,-9,1,3
15:16:41:99983,1,11,8,-26,-27,-9,1,3
15:16:41:107353,9,17,-5,7,2,-18,-26,-4
15:16:41:114903,7,1,-13,-2,-27,-18,-16,-4
15:16:41:123096,7,1,-13,-2,-27,-18,-16,-4
15:16:41:123949,-5,5,-54,9,-24,16,60,17
15:16:41:137427,-28,11,9,10,16,2,-14,-9
15:16:41:145579,-28,11,9,10,16,2,-14,-9
15:16:41:146375,-9,-9,12,10,2,-18,-45,-17
15:16:41:152380,-1,-16,18,9,46,12,20,-1
15:16:41:160015,-1,-16,18,9,46,12,20,-1
15:16:41:167394,-3,0,-30,26,7,-5,-9,-6
15:16:41:174881,5,7,3,3,-41,2,-20,-6
15:16:41:183009,5,7,3,3,-41,2,-20,-6
15:16:41:183807,-6,-3,24,9,8,25,3,-1
15:16:41:197342,1,13,11,10,-34,-15,-3,-4
15:16:41:205545,1,13,11,10,-34,-15,-3,-4
15:16:41:206306,10,0,-34,3,-1,25,19,-5
15:16:41:212372,1,-7,-33,-5,-4,-7,-10,-4
15:16:41:219870,1,-7,-33,-5,-4,-7,-10,-4
15:16:41:227385,4,4,2,13,27,-8,-20,-2
15:16:41:234868,-4,-4,-8,-38,-18,-16,-15,-15
15:16:41:243098,-4,-4,-8,-38,-18,-16,-15,-15
15:16:41:243861,-5,-3,-2,26,-44,-19,11,-1
15:16:41:257390,4,10,-6,6,30,43,14,3
15:16:41:265518,4,10,-6,6,30,43,14,3
15:16:41:266352,-17,-18,-28,-6,11,2,-10,1
15:16:41:272382,-1,-9,-23,8,-5,-19,-9,1
15:16:41:279922,-1,-9,-23,8,-5,-19,-9,1
15:16:41:287358,4,13,28,14,11,7,17,9
15:16:41:294853,-2,-20,-36,-16,-3,-5,13,5
15:16:41:303081,-2,-20,-36,-16,-3,-5,13,5
15:16:41:303868,-10,-9,-22,-20,-9,-15,-12,-9
15:16:41:317411,3,-5,6,64,3,1,24,4
15:16:41:325564,3,-5,6,64,3,1,24,4
15:16:41:326336,7,18,69,37,6,1,-10,-5
15:16:41:332333,4,4,25,-10,30,20,-2,2
15:16:41:339949,4,4,25,-10,30,20,-2,2
15:16:41:347320,3,5,-7,12,-16,-2,-3,1
15:16:41:354893,-7,-1,13,-2,-2,21,-70,-22
15:16:41:363101,-7,-1,13,-2,-2,21,-70,-22
15:16:41:363968,0,0,-9,-33,5,-8,-2,1
15:16:41:378715,-7,-2,11,-17,-33,-26,8,-4
15:16:41:379534,-7,-2,11,-17,-33,-26,8,-4
15:16:41:384800,-5,-12,-6,-3,62,32,-8,1
15:16:41:392407,-4,-8,16,-11,1,-17,-9,-1
15:16:41:399984,-4,-8,16,-11,1,-17,-9,-1
15:16:41:407398,-3,1,71,-33,-31,-19,1,-2
15:16:41:414885,-3,-2,-23,-15,14,6,12,2
15:16:41:423031,-3,-2,-23,-15,14,6,12,2
15:16:41:423831,7,1,-7,-12,-8,3,5,4
15:16:41:438079,-2,11,-4,-9,-38,-28,8,4
15:16:41:438972,-2,11,-4,-9,-38,-28,8,4
15:16:41:444870,-1,-6,-21,10,0,3,-26,-14
15:16:41:452355,-1,-9,-7,-4,-9,-2,5,2
15:16:41:459876,-1,-9,-7,-4,-9,-2,5,2
15:16:41:467397,-6,5,-57,0,-6,12,-1,6
15:16:41:474912,4,6,12,18,-12,3,-9,-9
15:16:41:483038,4,6,12,18,-12,3,-9,-9
15:16:41:483853,-2,4,37,8,-13,-13,8,-4
15:16:41:498022,4,4,-4,49,68,-4,15,8
15:16:41:498828,4,4,-4,49,68,-4,15,8
15:16:41:504875,0,-3,-36,-1,1,-8,-10,-1
15:16:41:512357,-2,9,-44,-37,-37,3,9,-2
15:16:41:528116,-2,9,-44,-37,-37,3,9,-2
15:16:41:528949,-9,-5,-28,-14,9,-6,5,4
15:16:41:534853,-3,4,34,33,9,3,1,2
15:16:41:542889,-3,4,34,33,9,3,1,2
15:16:41:549880,5,5,-5,3,-4,7,9,2
15:16:41:558087,6,8,44,3,6,-2,4,1
15:16:41:558862,6,8,44,3,6,-2,4,1
15:16:41:564801,-1,1,17,-6,41,33,2,0
15:16:41:572381,-19,-7,5,-10,12,8,-6,-3
15:16:41:579921,-19,-7,5,-10,12,8,-6,-3
15:16:41:587394,-14,-8,14,-38,-44,-37,-13,-6
15:16:41:594883,3,-7,3,10,1,19,84,23
15:16:41:603078,3,-7,3,10,1,19,84,23
15:16:41:603856,-7,-9,-16,22,-8,-15,-31,-29
15:16:41:618086,2,4,43,-3,-13,-14,-10,-2
15:16:41:618854,2,4,43,-3,-13,-14,-10,-2
15:16:41:624831,16,15,15,71,32,14,13,12
15:16:41:632326,-3,-7,-4,-50,8,7,-18,-5
15:16:41:639952,-3,-7,-4,-50,8,7,-18,-5
15:16:41:647308,6,4,4,-7,-8,-2,4,3
15:16:41:654874,-1,-5,19,2,14,12,-4,2
15:16:41:663111,-1,-5,19,2,14,12,-4,2
15:16:41:663956,8,-6,-25,38,11,6,6,5
15:16:41:678088,-3,-10,-37,-46,-47,-28,-32,-17
15:16:41:678886,-3,-10,-37,-46,-47,-28,-32,-17
15:16:41:684821,-2,2,18,1,-1,1,22,14
15:16:41:692406,1,5,-25,19,17,-3,-1,-2
15:16:41:699973,1,5,-25,19,17,-3,-1,-2
15:16:41:707350,8,16,-11,-26,-17,-6,12,5
15:16:41:714838,-5,-15,-58,20,-1,-9,-1,-4
15:16:41:723049,-5,-15,-58,20,-1,-9,-1,-4
15:16:41:723862,1,2,9,-1,12,3,0,0
15:16:41:738164,-1,-7,38,-21,16,10,-2,4
15:16:41:738988,-1,-7,38,-21,16,10,-2,4
15:16:41:744869,-40,-23,-20,18,45,10,-5,-2
15:16:41:752335,20,-3,-3,31,-1,-23,-13,-2
15:16:41:759909,20,-3,-3,31,-1,-23,-13,-2
15:16:41:767342,-4,1,14,-10,0,-10,17,-11
15:16:41:774983,-5,-5,-26,9,-2,-8,13,5
15:16:41:783021,-5,-5,-26,9,-2,-8,13,5
15:16:41:783841,8,-14,-22,-2,23,20,-13,-10
15:16:41:798024,34,20,-13,-7,1,-9,-22,-2
15:16:41:798861,34,20,-13,-7,1,-9,-22,-2
15:16:41:804844,0,-16,21,-30,-33,-15,-11,-2
15:16:41:812370,10,30,61,-4,-19,-2,-2,-2
15:16:41:819871,10,30,61,-4,-19,-2,-2,-2
15:16:41:827303,10,-1,-10,3,-15,14,-5,-2
15:16:41:834790,-4,-3,27,46,15,14,18,2
15:16:41:850570,-4,-3,27,46,15,14,18,2
15:16:41:851336,2,1,3,18,-3,-14,0,-1
15:16:41:858033,-13,4,-35,-47,-31,7,5,-7
15:16:41:858870,-13,4,-35,-47,-31,7,5,-7
15:16:41:864809,-7,-7,-30,-16,2,-10,-4,1
15:16:41:872290,-5,-15,35,-8,4,-5,-2,0
15:16:41:879914,-5,-15,35,-8,4,-5,-2,0
15:16:41:887346,18,13,-16,-12,-43,-16,-10,3
15:16:41:894892,18,-1,-12,-23,3,12,-25,-2
15:16:41:903073,18,-1,-12,-23,3,12,-25,-2
15:16:41:903860,0,8,-11,-3,0,12,-12,-3
15:16:41:918051,-26,-12,26,-2,-22,-11,1,-3
15:16:41:918867,-26,-12,26,-2,-22,-11,1,-3
15:16:41:924869,3,-2,17,21,46,4,-1,1
15:16:41:932357,-8,-19,21,-6,-6,21,21,2
15:16:41:939971,-8,-19,21,-6,-6,21,21,2
15:16:41:947324,-10,5,59,-64,-39,-9,-6,2
15:16:41:954881,-12,-4,-66,0,0,-10,-11,0
15:16:41:963073,-12,-4,-66,0,0,-10,-11,0
15:16:41:963945,-14,-1,-2,-32,24,40,33,4
15:16:41:978050,17,26,-13,-7,-3,-7,19,4
15:16:41:978957,17,26,-13,-7,-3,-7,19,4
15:16:41:984811,5,-21,-1,46,11,-15,-15,-8
15:16:41:992381,-8,-1,6,6,11,18,16,0
15:16:41:999952,-8,-1,6,6,11,18,16,0
15:16:42:7361,27,9,-2,57,-29,-21,-1,-1
15:16:42:14876,-33,-12,-14,13,11,0,-14,-2
15:16:42:22382,-33,-12,-14,13,11,0,-14,-2
15:16:42:29859,0,-16,-12,-42,-23,-19,-12,-4
15:16:42:38056,1,-20,-25,7,8,-21,30,-5
15:16:42:38823,1,-20,-25,7,8,-21,30,-5
15:16:42:44814,5,14,89,3,7,16,11,8
15:16:42:60529,-9,8,-34,-23,-19,-9,-21,-3
15:16:42:61312,-9,8,-34,-23,-19,-9,-21,-3
15:16:42:67353,15,6,-17,-30,-3,-20,-10,-5
15:16:42:74922,13,-2,11,-12,-4,4,-4,1
15:16:42:82398,13,-2,11,-12,-4,4,-4,1
15:16:42:89829,-24,-3,-23,10,0,11,-1,7
15:16:42:98024,-1,-8,-7,-24,-18,-16,-27,-9
15:16:42:98878,-1,-8,-7,-24,-18,-16,-27,-9
15:16:42:104887,5,1,-7,2,-6,15,45,8
15:16:42:120624,-3,9,7,38,10,24,20,3
15:16:42:121388,-3,9,7,38,10,24,20,3
15:16:42:127322,-6,-10,-17,-4,-28,-17,-17,-4
15:16:42:134800,-35,16,-17,-36,-12,-2,-43,-8
15:16:42:142456,-35,16,-17,-36,-12,-2,-43,-8
15:16:42:149859,8,-7,-2,56,23,13,0,0
15:16:42:158062,-1,-3,24,48,5,-11,-7,-8
15:16:42:158890,-1,-3,24,48,5,-11,-7,-8
15:16:42:164822,-15,16,48,40,7,11,3,-1
15:16:42:180551,20,-4,-89,-10,-6,-3,-5,-5
15:16:42:181372,20,-4,-89,-10,-6,-3,-5,-5
15:16:42:187370,-13,-15,-13,-22,-22,-18,-70,-19
15:16:42:194859,6,23,-4,2,7,11,16,1
15:16:42:202405,6,23,-4,2,7,11,16,1
15:16:42:209908,-2,-15,-6,23,47,-21,-23,-6
15:16:42:218060,12,-25,-17,-27,-9,-25,-39,-5
15:16:42:218942,12,-25,-17,-27,-9,-25,-39,-5
15:16:42:224904,-13,23,-6,-18,-43,8,47,11
15:16:42:240561,17,8,91,12,22,17,23,2
15:16:42:241367,17,8,91,12,22,17,23,2
15:16:42:247348,-17,-46,-113,-34,5,27,17,-3
15:16:42:254836,-3,-14,-15,-33,-20,-5,11,-2
15:16:42:262446,-3,-14,-15,-33,-20,-5,11,-2
15:16:42:269841,12,11,2,7,18,-6,9,-1
15:16:42:277995,1,2,55,49,21,0,-4,1
15:16:42:278831,1,2,55,49,21,0,-4,1
15:16:42:284869,11,14,54,-21,-4,-20,2,2
15:16:42:300540,13,-8,31,1,14,22,-28,6
15:16:42:301322,13,-8,31,1,14,22,-28,6
15:16:42:307410,2,4,27,50,-5,-5,-28,-5
15:16:42:314907,-31,1,-14,10,-9,3,26,-1
15:16:42:322336,-31,1,-14,10,-9,3,26,-1
15:16:42:329884,6,10,-36,-43,31,24,9,3
15:16:42:338057,-7,-14,-81,24,27,9,3,0
15:16:42:338804,-7,-14,-81,24,27,9,3,0
15:16:42:344798,-5,-1,-49,-29,16,-3,4,-5
15:16:42:360551,26,19,-38,-31,-16,0,10,2
15:16:42:361340,26,19,-38,-31,-16,0,10,2
15:16:42:367375,-7,-18,44,-34,-53,-12,11,-9
15:16:42:383032,-18,11,104,7,24,46,34,24
15:16:42:383856,-18,11,104,7,24,46,34,24
15:16:42:389857,26,-4,14,59,17,-1,-1,15
15:16:42:398024,15,10,5,62,-6,-18,-37,-5
15:16:42:398827,15,10,5,62,-6,-18,-37,-5
15:16:42:404906,-9,-5,-30,-25,3,28,21,11
15:16:42:420570,-20,-5,5,-57,-8,2,13,-6
15:16:42:421342,-20,-5,5,-57,-8,2,13,-6
15:16:42:427358,7,1,-21,-5,-17,-25,-21,-5
15:16:42:434862,10,-4,5,-43,-22,-11,-10,-8
15:16:42:442415,10,-4,5,-43,-22,-11,-10,-8
15:16:42:449849,-15,-8,43,0,-16,0,3,-15
15:16:42:458090,21,-11,-86,-9,19,-8,-30,2
15:16:42:458874,21,-11,-86,-9,19,-8,-30,2
15:16:42:472362,5,18,27,23,27,-4,26,2
15:16:42:480529,35,-16,-41,-41,-17,-24,-21,-8
15:16:42:481357,35,-16,-41,-41,-17,-24,-21,-8
15:16:42:487316,-3,-22,21,-38,-17,-7,-26,-3
15:16:42:494904,-12,11,12,-3,-36,-20,-6,-8
15:16:42:502410,-12,11,12,-3,-36,-20,-6,-8
15:16:42:509810,7,9,81,-2,-27,2,-2,-5
15:16:42:518031,-4,-3,-28,8,-6,0,36,-1
15:16:42:518861,-4,-3,-28,8,-6,0,36,-1
15:16:42:524874,2,28,21,35,32,2,-22,4
15:16:42:540602,-39,-23,-18,4,3,-15,-43,-11
15:16:42:541440,-39,-23,-18,4,3,-15,-43,-11
15:16:42:547353,-14,4,-4,-18,-12,-15,7,1
15:16:42:554880,-14,-6,15,8,-11,-17,31,4
15:16:42:562409,-14,-6,15,8,-11,-17,31,4
15:16:42:569861,-55,-23,-93,-9,-3,-22,-23,-5
15:16:42:578106,-19,7,110,53,13,7,9,2
15:16:42:578980,-19,7,110,53,13,7,9,2
15:16:42:584836,5,11,-74,7,24,2,41,-7
15:16:42:600549,9,-3,-92,-55,-2,0,34,10
15:16:42:601367,9,-3,-92,-55,-2,0,34,10
15:16:42:607367,-12,-14,9,-24,-31,-21,-2,-6
15:16:42:614857,5,-4,-19,-5,24,9,29,0
15:16:42:622475,5,-4,-19,-5,24,9,29,0
15:16:42:629894,-2,8,8,0,-3,10,-5,6
15:16:42:638084,-6,-5,48,-7,-16,-20,-52,-12
15:16:42:638896,-6,-5,48,-7,-16,-20,-52,-12
15:16:42:644910,22,-1,-11,27,37,12,-7,0
15:16:42:660581,7,5,0,13,-6,3,23,1
15:16:42:661380,7,5,0,13,-6,3,23,1
15:16:42:667365,2,-9,55,-22,-21,-4,-7,-4
15:16:42:674921,-2,3,-18,2,-16,-7,-26,0
15:16:42:682361,-2,3,-18,2,-16,-7,-26,0
15:16:42:689862,41,6,-22,34,30,59,10,0
15:16:42:698023,-7,0,39,-20,-5,6,17,-3
15:16:42:698832,-7,0,39,-20,-5,6,17,-3
15:16:42:704883,-29,-22,-20,-35,-15,-12,-14,-3
15:16:42:728780,-10,14,-5,56,8,-1,-19,-4
15:16:42:729597,-10,14,-5,56,8,-1,-19,-4
15:16:42:730355,3,-2,12,22,15,1,-2,1
15:16:42:734803,50,32,35,-5,14,-2,26,13
15:16:42:750629,50,32,35,-5,14,-2,26,13
15:16:42:751367,4,1,-25,12,-22,-20,7,-2
15:16:42:758101,-38,-25,48,61,8,52,8,1
15:16:42:758970,-38,-25,48,61,8,52,8,1
15:16:42:764861,-3,13,39,-5,-15,-12,-20,0
15:16:42:780574,4,-5,-25,-37,-12,-14,51,6
15:16:42:781357,4,-5,-25,-37,-12,-14,51,6
15:16:42:787359,-32,12,15,-27,12,24,-14,2
15:16:42:794893,10,-5,-2,87,21,-5,-23,3
15:16:42:802409,10,-5,-2,87,21,-5,-23,3
15:16:42:809897,26,11,7,62,51,-2,-2,4
15:16:42:817994,-4,-15,-53,-64,12,-1,-14,-6
15:16:42:818818,-4,-15,-53,-64,12,-1,-14,-6
15:16:42:824869,18,-13,-35,-22,-10,9,44,8
15:16:42:840617,0,-15,25,20,-17,-5,-14,-8
15:16:42:841415,0,-15,25,20,-17,-5,-14,-8
15:16:42:847350,23,1,34,-21,-40,-25,-11,-5
15:16:42:854874,31,16,31,-40,3,27,-1,10
15:16:42:862383,31,16,31,-40,3,27,-1,10
15:16:42:869849,-8,-17,-45,-34,-19,-5,1,-8
15:16:42:878032,-30,-6,-4,-69,-22,-13,-12,-11
15:16:42:878862,-30,-6,-4,-69,-22,-13,-12,-11
15:16:42:884790,5,22,87,32,8,2,14,6
15:16:42:900566,-2,-11,28,23,13,2,-17,1
15:16:42:901329,-2,-11,28,23,13,2,-17,1
15:16:42:907420,-34,-15,27,0,-60,-25,4,-6
15:16:42:914849,-7,2,-9,7,-13,18,13,-5
15:16:42:922363,-7,2,-9,7,-13,18,13,-5
15:16:42:929843,-23,-16,-74,-55,18,-9,-20,-3
15:16:42:938057,8,15,89,59,7,1,31,9
15:16:42:938823,8,15,89,59,7,1,31,9
15:16:42:944825,-3,-4,-21,16,1,19,8,3
15:16:42:960541,6,9,-25,5,-3,-16,-33,-8
15:16:42:961342,6,9,-25,5,-3,-16,-33,-8
15:16:42:967328,-32,-15,19,-18,-4,-5,-10,-5
15:16:42:983037,0,-1,33,40,21,25,3,-7
15:16:42:983854,0,-1,33,40,21,25,3,-7
15:16:42:989888,31,28,45,26,46,1,-35,-1
15:16:42:997992,-29,-5,-9,-36,-23,-32,0,-2
15:16:42:998827,-29,-5,-9,-36,-23,-32,0,-2
15:16:43:12399,0,-4,11,67,18,-7,3,0
15:16:43:20530,-1,5,30,-21,0,-2,-17,-5
15:16:43:21320,-1,5,30,-21,0,-2,-17,-5
15:16:43:27388,9,10,-59,-32,-21,-3,-30,-8
15:16:43:43107,29,14,22,-4,-5,8,16,3
15:16:43:43882,29,14,22,-4,-5,8,16,3
15:16:43:49874,-14,-16,23,-15,-24,-2,-19,-5
15:16:43:58069,-19,-2,-2,22,30,1,-14,-2
15:16:43:58881,-19,-2,-2,22,30,1,-14,-2
15:16:43:72384,6,0,-14,-28,-9,-26,-5,1
15:16:43:80511,17,-1,-42,-14,-10,-1,-10,-4
15:16:43:81354,17,-1,-42,-14,-10,-1,-10,-4
15:16:43:87387,13,-7,-25,-11,-17,-2,16,-1
15:16:43:103123,-2,-1,-22,36,-24,-11,-8,1
15:16:43:104001,-2,-1,-22,36,-24,-11,-8,1
15:16:43:109878,-24,-25,6,10,23,27,16,1
15:16:43:118015,-22,-15,-25,5,25,-13,-51,-9
15:16:43:118831,-22,-15,-25,5,25,-13,-51,-9
15:16:43:132379,28,24,2,-20,-6,-14,36,10
15:16:43:140513,-9,-16,-33,-31,-16,-9,7,-3
15:16:43:141363,-9,-16,-33,-31,-16,-9,7,-3
15:16:43:147373,0,10,3,19,11,5,-6,-4
15:16:43:163071,12,5,38,28,1,-9,9,2
15:16:43:163877,12,5,38,28,1,-9,9,2
15:16:43:169848,-13,-11,-3,17,-25,0,-1,-5
15:16:43:178007,-6,3,-42,-6,-2,19,14,4
15:16:43:178831,-6,3,-42,-6,-2,19,14,4
15:16:43:192397,14,21,-6,16,14,54,-9,7
15:16:43:200551,7,-3,-30,-41,-3,10,-25,-4
15:16:43:201409,7,-3,-30,-41,-3,10,-25,-4
15:16:43:207397,-30,-20,6,-30,-15,-15,9,-5
15:16:43:223107,1,-13,-51,-16,12,1,17,6
15:16:43:223914,1,-13,-51,-16,12,1,17,6
15:16:43:229884,0,11,-62,-15,11,-2,18,5
15:16:43:238062,2,-4,27,-29,-31,-36,68,3
15:16:43:238876,2,-4,27,-29,-31,-36,68,3
15:16:43:252338,-2,1,38,-6,-7,-6,-8,-5
15:16:43:260607,-2,1,38,-6,-7,-6,-8,-5
15:16:43:261370,9,0,-68,-48,-22,-6,-19,-9
15:16:43:267397,-12,-20,-88,-2,17,7,-5,0
15:16:43:283546,-12,-20,-88,-2,17,7,-5,0
15:16:43:284338,-6,-14,49,7,13,-7,-1,-3
15:16:43:306214,8,-5,-12,5,19,-17,-18,-2
15:16:43:307006,8,-5,-12,5,19,-17,-18,-2
15:16:43:307813,-9,2,-36,-29,-11,-7,-3,-4
15:16:43:312354,-14,-3,23,43,0,-24,-9,-1
15:16:43:320544,-14,-3,23,43,0,-24,-9,-1
15:16:43:321365,8,11,14,19,8,24,63,8
15:16:43:327375,-14,3,14,-36,-45,-12,-4,-2
15:16:43:343094,-14,3,14,-36,-45,-12,-4,-2
15:16:43:343814,25,7,4,72,44,11,-40,0
15:16:43:349889,30,11,39,-6,-3,25,59,5
15:16:43:358099,30,11,39,-6,-3,25,59,5
15:16:43:358891,-10,-1,22,5,-12,-7,-3,-2
15:16:43:372378,2,9,16,-10,-1,-13,-8,-5
15:16:43:380530,2,9,16,-10,-1,-13,-8,-5
15:16:43:381349,8,-19,30,-11,-9,-7,-14,3
15:16:43:387377,-4,-14,-76,-25,29,8,-2,-4
15:16:43:403094,-4,-14,-76,-25,29,8,-2,-4
15:16:43:403996,-16,19,27,33,47,3,-38,-4
15:16:43:409862,8,8,20,10,5,-10,26,1
15:16:43:417396,8,8,20,10,5,-10,26,1
15:16:43:424865,-9,-24,10,9,-25,-3,9,1
15:16:43:432404,7,10,6,2,-13,-21,-1,3
15:16:43:440551,7,10,6,2,-13,-21,-1,3
15:16:43:441333,-16,-4,-3,-43,-15,2,-11,-21
15:16:43:447302,5,7,70,54,-9,-12,-24,-9
15:16:43:463086,5,7,70,54,-9,-12,-24,-9
15:16:43:463828,-3,-8,-1,-18,-7,-5,-5,0
15:16:43:469875,-14,1,-45,-59,-47,-2,-23,-11
15:16:43:478070,-14,1,-45,-59,-47,-2,-23,-11
15:16:43:478860,-5,19,22,41,15,21,33,7
15:16:43:492396,4,-4,-18,-3,6,12,1,4
15:16:43:500578,4,-4,-18,-3,6,12,1,4
15:16:43:501354,-24,-9,-30,-39,-27,-26,-5,-13
15:16:43:507371,24,18,32,-12,5,11,-33,1
15:16:43:523048,24,18,32,-12,5,11,-33,1
15:16:43:524044,0,-1,-20,0,8,19,27,0
15:16:43:529862,-24,-8,30,64,7,5,-7,-3
15:16:43:538085,-24,-8,30,64,7,5,-7,-3
15:16:43:538818,3,-2,-22,-3,-15,-3,-18,-9
15:16:43:552364,-8,-7,-19,-31,9,8,1,-4
15:16:43:560561,-8,-7,-19,-31,9,8,1,-4
15:16:43:561367,-5,-16,-35,65,9,4,-2,2
15:16:43:567366,15,-1,41,23,3,11,0,3
15:16:43:583079,15,-1,41,23,3,11,0,3
15:16:43:583899,30,1,69,-49,-10,-4,-18,6
15:16:43:589839,-21,-13,-4,20,-12,-20,-20,-3
15:16:43:597988,-21,-13,-4,20,-12,-20,-20,-3
15:16:43:598806,8,6,-5,-5,10,29,-33,3
15:16:43:612351,18,-2,-43,-21,-5,8,35,20
15:16:43:620595,18,-2,-43,-21,-5,8,35,20
15:16:43:621421,-13,-5,70,-13,0,-29,-15,-8
15:16:43:627377,-8,-22,-5,3,27,1,-10,-1
15:16:43:643150,-8,-22,-5,3,27,1,-10,-1
15:16:43:643920,15,-6,-55,28,20,4,12,5
15:16:43:649832,16,8,12,-35,-15,-18,-25,-13
15:16:43:658089,16,8,12,-35,-15,-18,-25,-13
15:16:43:658977,17,7,-33,-55,15,11,-19,-1
15:16:43:672410,-8,2,-8,54,20,3,8,-5
15:16:43:680612,-8,2,-8,54,20,3,8,-5
15:16:43:681399,0,12,25,-16,-18,-35,9,-7
15:16:43:687378,18,11,55,5,-7,13,87,21
15:16:43:703128,18,11,55,5,-7,13,87,21
15:16:43:703906,-37,-13,0,-29,-27,-16,22,0
15:16:43:709922,-16,-13,12,4,-10,-19,-39,-14
15:16:43:718104,-16,-13,12,4,-10,-19,-39,-14
15:16:43:718922,1,3,-13,0,20,13,8,10
15:16:43:732369,6,5,-20,-48,-20,-8,-9,-3
15:16:43:740613,6,5,-20,-48,-20,-8,-9,-3
15:16:43:741402,-12,5,21,79,64,26,-19,-7
15:16:43:747352,0,10,13,56,38,-1,-1,-1
15:16:43:763125,0,10,13,56,38,-1,-1,-1
15:16:43:763861,-26,3,-45,-31,-31,-18,13,0
15:16:43:769849,-2,-6,-12,-14,-7,8,-33,-3
15:16:43:778115,-2,-6,-12,-14,-7,8,-33,-3
15:16:43:778893,1,-3,-68,-7,-3,-16,-43,-5
15:16:43:792375,-16,-27,-1,-39,-24,-14,-33,-14
15:16:43:800581,-16,-27,-1,-39,-24,-14,-33,-14
15:16:43:801398,5,5,33,-45,-20,-11,20,4
15:16:43:807316,-39,0,17,-4,-12,-10,-5,-5
15:16:43:823087,-39,0,17,-4,-12,-10,-5,-5
15:16:43:823879,-4,-6,17,-6,-5,8,5,-2
15:16:43:829865,8,8,-3,2,40,41,12,0
15:16:43:838106,8,8,-3,2,40,41,12,0
15:16:43:838875,3,-1,37,-17,-33,-10,-4,2
15:16:43:852304,-1,-10,-71,6,3,-36,-20,0
15:16:43:860589,-1,-10,-71,6,3,-36,-20,0
15:16:43:861359,6,3,46,27,-23,-9,13,1
15:16:43:867365,5,0,25,6,6,14,102,21
15:16:43:883521,5,0,25,6,6,14,102,21
15:16:43:884341,-1,-10,-20,4,1,-9,-8,-20
15:16:43:889895,9,3,-9,-14,-12,-5,-28,-9
15:16:43:897403,9,3,-9,-14,-12,-5,-28,-9
15:16:43:904864,-3,-3,-22,10,-1,0,-4,1
15:16:43:912313,6,5,-7,4,18,44,15,3
15:16:43:920574,6,5,-7,4,18,44,15,3
15:16:43:921419,-16,-1,-7,-30,5,-6,-21,0
15:16:43:934837,-32,3,26,-9,-13,-4,-8,-3
15:16:43:943157,-32,3,26,-9,-13,-4,-8,-3
15:16:43:943870,5,16,37,20,9,2,-4,-2
15:16:43:949788,2,-6,-26,36,-2,-9,-6,-3
15:16:43:957468,2,-6,-26,36,-2,-9,-6,-3
15:16:43:964895,11,-24,-28,9,25,13,-3,11
15:16:43:972371,14,9,12,32,-7,0,-20,-2
15:16:43:980580,14,9,12,32,-7,0,-20,-2
15:16:43:981348,-8,-1,-63,-8,6,2,21,7
15:16:43:994826,26,-2,30,-29,-12,-8,71,14
15:16:44:3041,26,-2,30,-29,-12,-8,71,14
15:16:44:3895,-17,1,-5,11,-17,-16,-17,-6
15:16:44:9886,-8,-29,-35,-6,32,11,-17,-8
15:16:44:17431,-8,-29,-35,-6,32,11,-17,-8
15:16:44:24855,-4,18,42,-3,0,5,6,0
15:16:44:32329,4,-2,-13,17,9,-19,-14,-5
15:16:44:40530,4,-2,-13,17,9,-19,-14,-5
15:16:44:41331,4,-2,19,4,12,-1,-18,-5
15:16:44:54879,32,24,46,26,9,-2,-15,3
15:16:44:63094,32,24,46,26,9,-2,-15,3
15:16:44:63871,-17,-20,4,-18,-24,-31,2,-3
15:16:44:69843,-11,5,16,-20,-8,14,3,-2
15:16:44:77407,-11,5,16,-20,-8,14,3,-2
15:16:44:84880,40,9,23,6,-18,7,-10,5
15:16:44:92375,-7,18,28,-22,5,14,-12,-4
15:16:44:100553,-7,18,28,-22,5,14,-12,-4
15:16:44:101353,-6,-15,-10,22,33,9,5,-6
15:16:44:114883,-11,-14,-75,-9,-15,-14,-5,-9
15:16:44:123033,-11,-14,-75,-9,-15,-14,-5,-9
15:16:44:123828,-6,-3,-9,21,-16,-15,-2,-4
15:16:44:129853,3,5,35,-14,-12,-10,13,1
15:16:44:137422,3,5,35,-14,-12,-10,13,1
15:16:44:144836,20,15,-7,1,-9,20,5,4
15:16:44:152287,7,-24,-27,-2,-15,2,1,-1
15:16:44:160532,7,-24,-27,-2,-15,2,1,-1
15:16:44:161363,-8,3,-57,-34,3,8,14,15
15:16:44:174945,10,-2,7,-26,-12,-12,3,3
15:16:44:183045,10,-2,7,-26,-12,-12,3,3
15:16:44:183865,6,9,3,-16,-10,-5,-33,-11
15:16:44:189852,-23,-6,-2,-28,-39,-19,-12,-1
15:16:44:197410,-23,-6,-2,-28,-39,-19,-12,-1
15:16:44:204867,-13,-8,53,-26,-11,10,10,-2
15:16:44:212344,12,-18,-4,5,39,5,-34,-9
15:16:44:220544,12,-18,-4,5,39,5,-34,-9
15:16:44:221363,-16,-3,14,21,20,14,-24,-4
15:16:44:234806,16,8,-4,15,8,-13,-28,-2
15:16:44:243106,16,8,-4,15,8,-13,-28,-2
15:16:44:243863,-6,-5,-18,6,4,-16,4,-2
15:16:44:249838,-14,7,6,-15,-11,-6,-11,-2
15:16:44:257419,-14,7,6,-15,-11,-6,-11,-2
15:16:44:264851,0,-9,-11,38,-10,-4,5,-6
15:16:44:272399,-26,-9,4,51,-13,-7,2,-9
15:16:44:280591,-26,-9,4,51,-13,-7,2,-9
15:16:44:281353,12,7,-46,-36,16,16,9,-1
15:16:44:294885,-9,-4,32,-10,34,31,59,1
15:16:44:303043,-9,-4,32,-10,34,31,59,1
15:16:44:303858,-20,-8,19,5,-16,-15,-5,-2
15:16:44:309862,-2,12,21,-1,-15,-8,0,-2
15:16:44:317440,-2,12,21,-1,-15,-8,0,-2
15:16:44:324939,5,-17,6,-17,7,-11,-1,-2
15:16:44:332334,-3,-32,-52,0,-2,0,-1,-2
15:16:44:341242,-3,-32,-52,0,-2,0,-1,-2
15:16:44:342053,2,14,9,-15,2,6,2,-6
15:16:44:354923,-5,6,-5,5,16,19,-9,0
15:16:44:363093,-5,6,-5,5,16,19,-9,0
15:16:44:363864,-14,-10,-11,28,-14,-9,11,1
15:16:44:369883,-7,-3,-35,-16,-10,20,-6,-2
15:16:44:377381,-7,-3,-35,-16,-10,20,-6,-2
15:16:44:384894,-3,-2,-31,-29,-11,-27,46,2
15:16:44:392379,10,19,50,25,49,-18,-17,3
15:16:44:400559,10,19,50,25,49,-18,-17,3
15:16:44:401333,-11,14,45,6,-4,17,9,3
15:16:44:414878,-14,-10,-12,-29,-31,-20,18,3
15:16:44:423069,-14,-10,-12,-29,-31,-20,18,3
15:16:44:423836,24,17,20,-9,-10,-2,-20,0
15:16:44:429876,-2,8,-52,0,4,0,-15,-5
15:16:44:437445,-2,8,-52,0,4,0,-15,-5
15:16:44:444850,15,4,-45,9,-11,1,-11,3
15:16:44:452312,22,-27,-24,-9,-5,-42,5,-6
15:16:44:460580,22,-27,-24,-9,-5,-42,5,-6
15:16:44:461371,36,0,-52,-18,10,3,-9,3
15:16:44:474943,-7,-9,16,-1,-11,-4,-3,-4
15:16:44:483072,-7,-9,16,-1,-11,-4,-3,-4
15:16:44:483849,-2,-14,80,35,-4,-4,-17,-6
15:16:44:489822,-2,25,-30,48,-2,-5,-3,-1
15:16:44:497404,-2,25,-30,48,-2,-5,-3,-1
15:16:44:504865,-43,-3,-48,0,12,23,0,-5
15:16:44:512349,-13,8,-22,-80,-49,-16,1,0
15:16:44:520626,-13,8,-22,-80,-49,-16,1,0
15:16:44:521397,12,-13,33,-71,15,6,10,4
15:16:44:534822,-3,3,-30,-16,-23,-13,-23,-3
15:16:44:543106,-3,3,-30,-16,-23,-13,-23,-3
15:16:44:543851,0,10,11,-4,6,38,27,0
15:16:44:549817,4,10,53,2,5,30,27,9
15:16:44:557419,4,10,53,2,5,30,27,9
15:16:44:564847,6,-4,1,14,-8,-21,-9,-13
15:16:44:572368,3,-5,21,3,0,1,-9,-5
15:16:44:580517,3,-5,21,3,0,1,-9,-5
15:16:44:581303,9,-26,-11,67,-9,-6,-17,4
15:16:44:594848,-11,-11,-22,-14,29,17,-14,-2
15:16:44:603087,-11,-11,-22,-14,29,17,-14,-2
15:16:44:603909,3,5,5,-28,-43,-23,-6,0
15:16:44:609895,-21,-3,49,29,15,15,20,6
15:16:44:617433,-21,-3,49,29,15,15,20,6
15:16:44:624920,-12,2,-15,0,-9,-9,-12,-5
15:16:44:632344,-35,-15,4,-17,-5,10,2,-5
15:16:44:640574,-35,-15,4,-17,-5,10,2,-5
15:16:44:641368,-15,-10,4,-2,-11,-32,0,1
15:16:44:654936,-4,-3,16,3,-9,4,-12,0
15:16:44:663029,-4,-3,16,3,-9,4,-12,0
15:16:44:663834,5,13,-3,-45,17,7,24,6
15:16:44:678049,36,-4,3,0,0,-4,5,5
15:16:44:678878,36,-4,3,0,0,-4,5,5
15:16:44:684866,-4,12,-4,-29,0,5,3,-3
15:16:44:692390,-1,16,11,11,-12,-23,-16,-5
15:16:44:700561,-1,16,11,11,-12,-23,-16,-5
15:16:44:701311,30,6,-32,9,33,12,35,3
15:16:44:714893,18,-1,-40,20,9,16,9,3
15:16:44:723080,18,-1,-40,20,9,16,9,3
15:16:44:723879,-3,-4,0,21,-18,-16,-5,-2
15:16:44:729871,-6,3,-13,-9,17,2,-16,-7
15:16:44:737380,-6,3,-13,-9,17,2,-16,-7
15:16:44:744868,-16,-3,28,16,-1,0,-9,-2
15:16:44:752391,-9,-18,15,7,-4,-11,-14,-5
15:16:44:760572,-9,-18,15,7,-4,-11,-14,-5
15:16:44:761354,2,-3,18,35,37,11,-8,1
15:16:44:774900,26,-1,-25,-11,7,-8,3,2
15:16:44:783019,26,-1,-25,-11,7,-8,3,2
15:16:44:783865,-31,-18,34,2,-10,-1,-9,-4
15:16:44:789852,17,10,9,5,-6,-6,13,3
15:16:44:797373,17,10,9,5,-6,-6,13,3
15:16:44:804793,3,8,-47,-21,-14,-3,-8,-2
15:16:44:812296,12,11,17,-30,20,2,9,-5
15:16:44:820617,12,11,17,-30,20,2,9,-5
15:16:44:821397,-8,-2,12,-15,-28,-11,-4,1
15:16:44:834867,-8,13,8,19,14,10,0,-4
15:16:44:843050,-8,13,8,19,14,10,0,-4
15:16:44:843883,-15,4,-21,-8,12,-21,-53,-8
15:16:44:858049,-42,1,14,-5,-21,-18,3,4
15:16:44:858831,-42,1,14,-5,-21,-18,3,4
15:16:44:864839,2,5,-61,-18,-6,-7,-23,-2
15:16:44:872386,1,7,-4,3,-21,-2,-24,-1
15:16:44:879890,1,7,-4,3,-21,-2,-24,-1
15:16:44:887367,11,5,28,38,23,14,15,3
15:16:44:894815,7,-1,-7,-57,29,29,5,2
15:16:44:903051,7,-1,-7,-57,29,29,5,2
15:16:44:903856,5,11,39,20,1,3,17,-2
15:16:44:918015,-8,4,52,0,-40,-4,-28,-9
15:16:44:918834,-8,4,52,0,-40,-4,-28,-9
15:16:44:924834,31,14,36,9,21,49,13,-2
15:16:44:932344,-30,-11,23,-3,-28,-7,26,-5
15:16:44:939896,-30,-11,23,-3,-28,-7,26,-5
15:16:44:947311,-7,-5,-9,2,-20,8,14,0
15:16:44:954911,6,-6,-25,47,25,11,-7,0
15:16:44:963090,6,-6,-25,47,25,11,-7,0
15:16:44:963853,-12,2,5,-6,2,-18,-2,0
15:16:44:978061,-29,-24,-31,79,3,-6,-5,3
15:16:44:978896,-29,-24,-31,79,3,-6,-5,3
15:16:44:984822,-15,12,24,5,36,6,38,4
15:16:44:992371,-19,-30,-21,-33,0,-22,-25,-7
15:16:44:999897,-19,-30,-21,-33,0,-22,-25,-7
15:16:45:7330,-23,-10,-59,1,-1,9,68,-1
15:16:45:14832,15,23,4,-28,-10,-4,39,3
15:16:45:23129,15,23,4,-28,-10,-4,39,3
15:16:45:23868,-14,-18,36,-23,-33,-32,-51,-7
15:16:45:38126,13,-5,53,-11,-10,21,17,8
15:16:45:38922,13,-5,53,-11,-10,21,17,8
15:16:45:45512,18,16,13,8,27,10,-5,4
15:16:45:52324,22,7,-39,-10,-3,-9,-16,-4
15:16:45:59905,22,7,-39,-10,-3,-9,-16,-4
15:16:45:67370,8,6,-3,-5,-9,24,-34,1
15:16:45:74887,19,8,-16,-5,9,-5,5,10
15:16:45:83002,19,8,-16,-5,9,-5,5,10
15:16:45:83866,7,1,-9,-15,-26,-17,-12,-8
15:16:45:98040,10,-2,0,1,-18,-10,-12,-7
15:16:45:98835,10,-2,0,1,-18,-10,-12,-7
15:16:45:104917,17,-8,5,5,34,8,-21,2
15:16:45:112367,0,8,40,18,-7,-19,31,7
15:16:45:119881,0,8,40,18,-7,-19,31,7
15:16:45:127355,-5,-25,3,-20,-18,-16,22,4
15:16:45:134794,-16,-4,-20,-9,-6,-2,7,-6
15:16:45:143048,-16,-4,-20,-9,-6,-2,7,-6
15:16:45:143857,-29,-4,-34,-17,-22,-13,-3,-5
15:16:45:158070,1,2,-23,-63,2,11,-1,-2
15:16:45:158889,1,2,-23,-63,2,11,-1,-2
15:16:45:164842,8,1,-38,-21,-49,-28,-10,-6
15:16:45:172338,-3,0,18,0,-6,20,-11,-2
15:16:45:179913,-3,0,18,0,-6,20,-11,-2
15:16:45:187370,8,-6,-29,7,-7,27,-40,4
15:16:45:194829,8,-24,-13,30,29,-3,-48,-12
15:16:45:203056,8,-24,-13,30,29,-3,-48,-12
15:16:45:203879,-38,0,44,21,1,-9,28,7
15:16:45:218103,6,5,23,-16,-10,-15,-26,-4
15:16:45:218883,6,5,23,-16,-10,-15,-26,-4
15:16:45:224826,25,-5,37,-25,19,16,7,3
15:16:45:232327,-28,-18,3,3,8,0,49,2
15:16:45:239901,-28,-18,3,3,8,0,49,2
15:16:45:247320,6,-6,-19,39,12,8,9,2
15:16:45:254904,-1,5,6,-10,-1,11,5,1
15:16:45:263101,-1,5,6,-10,-1,11,5,1
15:16:45:263857,-24,14,-23,9,-26,-29,-20,-7
15:16:45:278028,5,-7,-4,17,3,18,-4,-4
15:16:45:278862,5,-7,-4,17,3,18,-4,-4
15:16:45:284859,-14,-5,30,1,-4,13,56,5
15:16:45:292353,-5,-8,-9,-11,-10,-10,-3,3
15:16:45:299930,-5,-8,-9,-11,-10,-10,-3,3
15:16:45:307403,1,-15,11,35,35,8,-31,-3
15:16:45:314862,-4,3,-89,-5,-6,-10,-8,-2
15:16:45:323053,-4,3,-89,-5,-6,-10,-8,-2
15:16:45:323877,-12,-3,-87,-20,9,2,5,-1
15:16:45:338136,6,-13,44,3,-4,-11,-21,4
15:16:45:338923,6,-13,44,3,-4,-11,-21,4
15:16:45:344885,-12,2,10,-24,26,12,25,-5
15:16:45:352354,20,3,-13,7,2,-3,26,2
15:16:45:359885,20,3,-13,7,2,-3,26,2
15:16:45:367392,15,-17,-16,-15,-25,-18,-37,-7
15:16:45:374905,1,8,32,27,0,-3,3,-2
15:16:45:383059,1,8,32,27,0,-3,3,-2
15:16:45:383877,5,12,-17,41,15,11,-60,-12
15:16:45:398009,0,-4,24,28,3,-8,-12,4
15:16:45:398821,0,-4,24,28,3,-8,-12,4
15:16:45:404892,16,6,20,-13,8,1,-5,-2
15:16:45:412379,-11,-3,5,-56,-3,-24,15,-3
15:16:45:419887,-11,-3,5,-56,-3,-24,15,-3
15:16:45:427351,-18,13,-2,-4,-21,-6,-29,2
15:16:45:434789,-2,17,-6,-5,-2,12,14,1
15:16:45:443082,-2,17,-6,-5,-2,12,14,1
15:16:45:443857,22,-1,40,-12,-18,-17,15,3
15:16:45:458055,6,13,-32,15,15,8,-6,-3
15:16:45:458829,6,13,-32,15,15,8,-6,-3
15:16:45:464842,-15,-1,23,-29,-2,2,22,-1
15:16:45:472283,-29,-5,32,3,8,4,-10,-7
15:16:45:479919,-29,-5,32,3,8,4,-10,-7
15:16:45:487378,43,-4,-73,-40,-24,-28,-10,4
15:16:45:494904,8,6,-17,-3,-28,-4,-8,3
15:16:45:503087,8,6,-17,-3,-28,-4,-8,3
15:16:45:503921,9,15,24,29,5,21,-12,-4
15:16:45:518066,-18,2,-28,-1,2,5,-8,-10
15:16:45:518865,-18,2,-28,-1,2,5,-8,-10
15:16:45:524872,10,-15,25,22,3,1,-6,2
15:16:45:532353,-2,3,9,3,0,10,10,2
15:16:45:539960,-2,3,9,3,0,10,10,2
15:16:45:547357,-56,-18,-61,-53,-30,-27,6,-12
15:16:45:554890,60,10,21,47,10,-16,17,2
15:16:45:563070,60,10,21,47,10,-16,17,2
15:16:45:563881,24,24,-4,-13,24,27,59,17
15:16:45:578040,-12,-19,-26,-5,-22,-17,-60,-8
15:16:45:578890,-12,-19,-26,-5,-22,-17,-60,-8
15:16:45:584825,-22,-23,14,14,-23,-5,14,-15
15:16:45:592397,-12,1,22,2,1,28,34,-2
15:16:45:599902,-12,1,22,2,1,28,34,-2
15:16:45:607399,-20,6,49,0,8,18,-11,-12
15:16:45:614828,-2,-9,9,14,24,-5,12,0
15:16:45:623072,-2,-9,9,14,24,-5,12,0
15:16:45:623842,-3,-9,-28,6,-3,-17,1,11
15:16:45:638026,-2,-10,-12,53,29,13,-13,-1
15:16:45:638793,-2,-10,-12,53,29,13,-13,-1
15:16:45:644873,12,10,-19,-18,-7,-10,-15,-3
15:16:45:652339,-38,-6,-15,-26,-11,4,-19,-6
15:16:45:659917,-38,-6,-15,-26,-11,4,-19,-6
15:16:45:667382,11,-6,20,15,12,5,-13,-4
15:16:45:674895,1,10,10,-23,-26,10,90,13
15:16:45:683036,1,10,10,-23,-26,10,90,13
15:16:45:683831,-4,-17,16,7,-22,3,37,12
15:16:45:698003,50,22,21,9,4,-8,-37,2
15:16:45:698815,50,22,21,9,4,-8,-37,2
15:16:45:704899,-12,-19,17,-1,27,-12,-6,-2
15:16:45:712354,0,6,18,-23,-11,-4,-14,0
15:16:45:719871,0,6,18,-23,-11,-4,-14,0
15:16:45:727349,8,14,9,31,34,14,-5,-3
15:16:45:734810,-14,-9,-42,-45,-14,14,2,-6
15:16:45:743068,-14,-9,-42,-45,-14,14,2,-6
15:16:45:743845,19,7,23,23,-26,-7,-21,3
15:16:45:758104,6,-11,-38,-15,13,15,-9,-3
15:16:45:758883,6,-11,-38,-15,13,15,-9,-3
15:16:45:764800,0,-22,-1,10,-7,-13,-20,-8
15:16:45:772304,3,-10,8,53,-1,-7,-6,-3
15:16:45:779913,3,-10,8,53,-1,-7,-6,-3
15:16:45:787378,14,29,-45,-10,24,22,12,1
15:16:45:794848,-15,-5,-36,1,5,-3,-13,-1
15:16:45:802384,-15,-5,-36,1,5,-3,-13,-1
15:16:45:809939,-13,7,-66,-1,2,-16,19,7
15:16:45:818063,-13,-9,12,14,-19,-36,-48,-3
15:16:45:818829,-13,-9,12,14,-19,-36,-48,-3
15:16:45:824881,9,4,22,-7,3,1,-17,-3
15:16:45:840578,11,0,30,7,-2,0,-28,1
15:16:45:841389,11,0,30,7,-2,0,-28,1
15:16:45:847313,-37,-6,14,18,-4,-9,-11,-12
15:16:45:854911,4,6,24,11,22,-3,4,-3
15:16:45:862409,4,6,24,11,22,-3,4,-3
15:16:45:869854,13,9,-23,-17,-5,-4,-7,-3
15:16:45:878017,-12,-6,-36,-31,32,-4,-7,-1
15:16:45:878826,-12,-6,-36,-31,32,-4,-7,-1
15:16:45:884846,4,-11,13,-5,0,-21,1,13
15:16:45:900544,-40,-10,-4,-27,0,-2,17,-5
15:16:45:901323,-40,-10,-4,-27,0,-2,17,-5
15:16:45:907486,-2,-4,32,-27,-15,-4,-8,-5
15:16:45:914848,15,16,-5,0,-19,-6,-8,-1
15:16:45:922366,15,16,-5,0,-19,-6,-8,-1
15:16:45:929956,-83,-22,-54,-23,15,40,21,0
15:16:45:938107,-6,-19,-63,-19,-23,-15,2,-2
15:16:45:938860,-6,-19,-63,-19,-23,-15,2,-2
15:16:45:944835,32,2,26,13,-12,-7,53,3
15:16:45:960550,4,17,37,21,18,-5,-17,4
15:16:45:961332,4,17,37,21,18,-5,-17,4
15:16:45:967340,9,0,19,7,-27,-18,-23,-3
15:16:45:974912,13,-5,24,-5,-8,3,-1,-1
15:16:45:982360,13,-5,24,-5,-8,3,-1,-1
15:16:45:989822,-5,8,17,36,-15,-6,-27,-5
15:16:45:998063,29,2,1,-18,-8,18,11,4
15:16:45:998887,29,2,1,-18,-8,18,11,4
15:16:46:4878,15,-1,-16,-5,9,0,-9,-9
15:16:46:20529,-1,-8,-19,-15,-17,-8,-1,-1
15:16:46:21395,-1,-8,-19,-15,-17,-8,-1,-1
15:16:46:27357,21,-2,16,-7,16,-2,29,14
15:16:46:34838,-12,8,35,17,9,34,-5,3
15:16:46:42460,-12,8,35,17,9,34,-5,3
15:16:46:49840,21,4,-16,25,12,6,-28,-10
15:16:46:58115,-12,-27,-36,-3,5,-6,32,-2
15:16:46:58909,-12,-27,-36,-3,5,-6,32,-2
15:16:46:64867,-5,-4,48,14,-16,-6,-22,-4
15:16:46:80568,2,8,6,9,10,15,-3,0
15:16:46:81383,2,8,6,9,10,15,-3,0
15:16:46:87383,-31,-11,3,1,11,0,-12,-1
15:16:46:94879,7,-1,21,-5,-22,-7,10,1
15:16:46:102434,7,-1,21,-5,-22,-7,10,1
15:16:46:109868,6,22,34,-22,21,1,-3,-5
15:16:46:118005,-47,-23,-28,-11,32,-4,8,-8
15:16:46:118866,-47,-23,-28,-11,32,-4,8,-8
15:16:46:124905,6,-9,-15,25,-20,-19,29,4
15:16:46:140616,2,10,1,-16,7,0,-22,0
15:16:46:141441,2,10,1,-16,7,0,-22,0
15:16:46:147307,-1,-1,21,7,8,11,4,4
15:16:46:154907,0,6,6,22,7,-21,1,4
15:16:46:162367,0,6,6,22,7,-21,1,4
15:16:46:169871,-18,-24,-95,-16,5,4,0,-1
15:16:46:178031,15,-6,-14,-10,-34,-9,-34,-1
15:16:46:178888,15,-6,-14,-10,-34,-9,-34,-1
15:16:46:184810,-5,-8,-20,-15,-43,-6,-25,-1
15:16:46:200557,16,9,18,16,39,-3,1,0
15:16:46:201370,16,9,18,16,39,-3,1,0
15:16:46:207411,47,24,-4,5,-7,15,10,8
15:16:46:214892,-7,-7,-7,-31,-20,16,8,-2
15:16:46:222408,-7,-7,-7,-31,-20,16,8,-2
15:16:46:229838,-16,15,-14,-23,19,8,17,0
15:16:46:238058,-15,-11,10,1,2,16,-7,-12
15:16:46:238882,-15,-11,10,1,2,16,-7,-12
15:16:46:244849,18,-8,35,1,18,-6,-7,-2
15:16:46:260555,5,-3,10,8,-9,-8,28,-1
15:16:46:261360,5,-3,10,8,-9,-8,28,-1
15:16:46:267367,-41,4,56,-9,-19,-14,12,-2
15:16:46:274901,-1,5,-34,-6,11,-6,-12,1
15:16:46:282410,-1,5,-34,-6,11,-6,-12,1
15:16:46:289810,18,14,30,21,46,0,-10,2
15:16:46:298007,-3,-5,2,20,-20,-5,-15,0
15:16:46:298861,-3,-5,2,20,-20,-5,-15,0
15:16:46:304869,-13,-23,-91,-22,-10,-6,-25,-7
15:16:46:320661,11,12,8,-15,-34,-33,-6,-3
15:16:46:321411,11,12,8,-15,-34,-33,-6,-3
15:16:46:327339,-22,-28,-14,-9,-29,19,39,-3
15:16:46:334810,-26,-12,75,22,-8,-2,7,3
15:16:46:342447,-26,-12,75,22,-8,-2,7,3
15:16:46:349857,-14,2,-23,-2,5,-4,-34,-2
15:16:46:358064,15,25,-29,19,9,0,-5,-14
15:16:46:358859,15,25,-29,19,9,0,-5,-14
15:16:46:364843,17,5,24,5,-9,-5,12,-2
15:16:46:380540,4,-3,-18,-29,-15,-7,-10,4
15:16:46:381350,4,-3,-18,-29,-15,-7,-10,4
15:16:46:387382,4,2,17,-7,-10,1,-5,0
15:16:46:394862,19,-6,-6,-13,-11,-9,40,10
15:16:46:402432,19,-6,-6,-13,-11,-9,40,10
15:16:46:409924,-15,3,56,5,9,21,9,-1
15:16:46:418013,9,-6,36,6,1,-7,-9,0
15:16:46:418797,9,-6,36,6,1,-7,-9,0
15:16:46:424900,5,6,-8,42,19,-9,-11,-2
15:16:46:440637,-8,-7,-49,-33,12,-2,-17,-3
15:16:46:441403,-8,-7,-49,-33,12,-2,-17,-3
15:16:46:447326,11,-1,-26,-21,-9,7,-47,-3
15:16:46:454940,26,7,-17,36,33,15,0,-1
15:16:46:462376,26,7,-17,36,33,15,0,-1
15:16:46:469883,-12,-16,15,-14,23,-16,8,-2
15:16:46:478044,30,14,35,-11,-5,31,13,16
15:16:46:478865,30,14,35,-11,-5,31,13,16
15:16:46:484825,33,7,28,8,-30,-27,-2,-3
15:16:46:500551,-22,-3,4,16,9,-7,26,-6
15:16:46:501339,-22,-3,4,16,9,-7,26,-6
15:16:46:507384,-1,-3,-7,-32,-11,10,12,7
15:16:46:514888,0,13,-17,-27,-10,-4,-5,1
15:16:46:522346,0,13,-17,-27,-10,-4,-5,1
15:16:46:529825,-5,-2,8,-14,-14,-9,1,-2
15:16:46:538038,-16,-26,-101,-30,-4,-15,10,-3
15:16:46:538835,-16,-26,-101,-30,-4,-15,10,-3
15:16:46:544820,2,-11,-13,14,40,25,12,3
15:16:46:560550,-5,11,35,-27,-14,-11,-68,3
15:16:46:561332,-5,11,35,-27,-14,-11,-68,3
15:16:46:567333,-26,1,-29,-2,-14,-10,-10,-7
15:16:46:583028,-26,1,-29,-2,-14,-10,-10,-7
15:16:46:583807,-7,-14,22,25,8,-12,-17,-12
15:16:46:589872,19,17,-15,16,38,18,13,4
15:16:46:598055,19,17,-15,16,38,18,13,4
15:16:46:598881,-26,0,33,17,-2,13,52,1
15:16:46:604823,8,16,2,-7,-5,-9,21,-4
15:16:46:620547,8,16,2,-7,-5,-9,21,-4
15:16:46:621344,-6,-12,39,-1,-18,6,-9,-5
15:16:46:627328,1,9,-17,-5,-26,-8,-9,-5
15:16:46:643121,1,9,-17,-5,-26,-8,-9,-5
15:16:46:643842,18,4,15,67,26,18,1,1
15:16:46:649873,16,-10,-15,-6,-12,-2,-18,0
15:16:46:658071,16,-10,-15,-6,-12,-2,-18,0
15:16:46:658903,6,7,61,33,26,13,17,7
15:16:46:664875,-10,-9,28,6,-22,-10,-6,-3
15:16:46:680540,-10,-9,28,6,-22,-10,-6,-3
15:16:46:681333,-27,-2,1,-36,-35,-7,1,-2
15:16:46:687369,-12,4,69,-4,13,59,22,10
15:16:46:703505,-12,4,69,-4,13,59,22,10
15:16:46:704312,-3,-5,-18,2,-12,2,-40,-14
15:16:46:709882,-4,9,-38,-37,-2,-18,13,1
15:16:46:718016,-4,9,-38,-37,-2,-18,13,1
15:16:46:718829,-11,-2,-71,0,-3,5,19,-11
15:16:46:724812,-44,-24,-1,-4,-3,-1,13,-5
15:16:46:740591,-44,-24,-1,-4,-3,-1,13,-5
15:16:46:741362,9,3,-1,67,0,-8,2,-4
15:16:46:747313,12,16,26,3,11,3,4,2
15:16:46:763122,12,16,26,3,11,3,4,2
15:16:46:763855,-4,-11,2,-47,-5,5,16,3
15:16:46:769837,-23,-1,2,29,18,-10,-11,-4
15:16:46:778035,-23,-1,2,29,18,-10,-11,-4
15:16:46:778852,12,0,-26,-3,8,-9,-26,8
15:16:46:792453,0,-27,32,15,-12,0,36,-3
15:16:46:800523,0,-27,32,15,-12,0,36,-3
15:16:46:801335,0,2,8,-11,7,-2,-2,-6
15:16:46:807355,25,7,-6,15,11,-17,-18,-1
15:16:46:823086,25,7,-6,15,11,-17,-18,-1
15:16:46:823875,7,21,-9,3,3,9,4,-1
15:16:46:829850,8,-1,-66,9,-4,1,-14,-5
15:16:46:838040,8,-1,-66,9,-4,1,-14,-5
15:16:46:838805,-12,-26,-62,-27,-10,10,14,0
15:16:46:852332,17,-16,-4,2,25,-11,3,5
15:16:46:860584,17,-16,-4,2,25,-11,3,5
15:16:46:861370,-7,0,50,16,-38,-37,-38,-4
15:16:46:867361,4,13,15,-10,-21,5,1,2
15:16:46:883032,4,13,15,-10,-21,5,1,2
15:16:46:883870,5,4,76,-15,30,13,-9,-1
15:16:46:889814,-9,1,-19,-1,-14,-7,-28,-8
15:16:46:898072,-9,1,-19,-1,-14,-7,-28,-8
15:16:46:898901,-32,-3,-48,-7,-19,1,61,5
15:16:46:912365,-36,-18,-29,10,11,5,9,-1
15:16:46:920613,-36,-18,-29,10,11,5,9,-1
15:16:46:921365,-8,-2,-21,-34,23,13,-5,0
15:16:46:927360,30,19,-17,-24,-7,-4,-7,-1
15:16:46:943105,30,19,-17,-24,-7,-4,-7,-1
15:16:46:943850,9,11,14,16,-7,-21,-14,-9
15:16:46:949844,10,1,1,-11,-6,-10,-27,-2
15:16:46:958148,10,1,1,-11,-6,-10,-27,-2
15:16:46:959002,-10,8,44,4,1,18,6,12
15:16:46:981207,-9,-9,12,-8,-21,-7,-6,-1
15:16:46:982015,-9,-9,12,-8,-21,-7,-6,-1
15:16:46:982813,27,7,6,-21,-8,-3,-8,-1
15:16:46:987363,-8,5,-18,-6,3,-34,-9,-2
15:16:47:3043,-8,5,-18,-6,3,-34,-9,-2
15:16:47:3831,6,-4,23,5,-7,-2,-8,-7
15:16:47:9912,3,4,48,-13,-19,1,19,2
15:16:47:18055,3,4,48,-13,-19,1,19,2
15:16:47:18857,8,-3,-18,4,15,10,-2,3
15:16:47:32359,-10,-32,-92,-13,-14,0,-3,-6
15:16:47:40546,-10,-32,-92,-13,-14,0,-3,-6
15:16:47:41374,23,8,-14,-28,-3,-35,-30,-2
15:16:47:47352,-6,-5,56,23,-1,12,15,-2
15:16:47:63074,-6,-5,56,23,-1,12,15,-2
15:16:47:63820,-13,-5,-16,9,-45,-20,10,-1
15:16:47:69817,12,16,8,9,24,23,-14,-2
15:16:47:78020,12,16,8,9,24,23,-14,-2
15:16:47:78862,-1,8,17,25,-5,-8,-2,1
15:16:47:92411,-24,-15,24,-17,16,7,11,-3
15:16:47:100556,-24,-15,24,-17,16,7,11,-3
15:16:47:101331,23,-3,-12,-39,-3,0,18,-2
15:16:47:107376,24,33,27,33,13,6,10,5
15:16:47:123103,24,33,27,33,13,6,10,5
15:16:47:123907,-52,-24,25,2,16,24,2,9
15:16:47:129853,-12,0,-11,22,10,-5,8,12
15:16:47:138024,-12,0,-11,22,10,-5,8,12
15:16:47:138816,-5,5,49,7,-5,-13,-11,-11
15:16:47:152359,-5,-4,-2,0,-31,-1,5,-1
15:16:47:160808,-5,-4,-2,0,-31,-1,5,-1
15:16:47:161399,-6,15,60,25,19,13,6,0
15:16:47:167388,9,-15,-54,-46,9,39,32,0
15:16:47:183078,9,-15,-54,-46,9,39,32,0
15:16:47:183913,-2,-17,-21,-45,11,1,-8,-5
15:16:47:189895,-3,-8,47,-10,-15,-22,-16,-2
15:16:47:198029,-3,-8,47,-10,-15,-22,-16,-2
15:16:47:198861,7,-12,-87,-6,-5,3,17,4
15:16:47:212358,5,-5,10,13,7,-18,-26,-2
15:16:47:220576,5,-5,10,13,7,-18,-26,-2
15:16:47:221368,1,9,-45,-2,43,3,-35,-10
15:16:47:227372,-17,-3,1,-22,-13,-7,7,2
15:16:47:243138,-17,-3,1,-22,-13,-7,7,2
15:16:47:243904,3,-3,-48,1,26,0,-11,-6
15:16:47:249797,-7,10,4,-16,19,3,22,1
15:16:47:258135,-7,10,4,-16,19,3,22,1
15:16:47:258882,49,3,24,102,4,-5,11,5
15:16:47:272402,19,21,-10,-43,-26,-10,-17,-10
15:16:47:280545,19,21,-10,-43,-26,-10,-17,-10
15:16:47:281341,-7,8,-21,-20,-19,-6,-9,1
15:16:47:287378,1,-3,6,31,4,-10,-7,0
15:16:47:303054,1,-3,6,31,4,-10,-7,0
15:16:47:303833,-9,-5,-14,-49,-7,25,31,15
15:16:47:309837,-16,-9,4,5,-19,-9,-6,-4
15:16:47:318055,-16,-9,4,5,-19,-9,-6,-4
15:16:47:318873,-20,-30,23,-9,-25,1,-47,-24
15:16:47:332381,-4,-10,25,-6,22,31,11,0
15:16:47:340573,-4,-10,25,-6,22,31,11,0
15:16:47:341382,-31,2,1,35,9,-10,15,2
15:16:47:347291,17,19,20,5,1,-10,-15,-4
15:16:47:363078,17,19,20,5,1,-10,-15,-4
15:16:47:363817,8,10,0,-36,-1,-19,20,-1
15:16:47:378687,-1,-11,0,1,-26,8,22,7
15:16:47:379519,-1,-11,0,1,-26,8,22,7
15:16:47:380326,-8,-2,2,3,-14,-5,23,3
15:16:47:392388,5,10,-55,-1,-8,-34,-8,-6
15:16:47:400502,5,10,-55,-1,-8,-34,-8,-6
15:16:47:401350,-17,-23,28,-24,2,-4,2,-2
15:16:47:407346,-2,6,-18,28,14,4,-29,-6
15:16:47:423089,-2,6,-18,28,14,4,-29,-6
15:16:47:423882,2,1,-36,17,-19,-6,-14,-4
15:16:47:429874,17,-5,-4,32,25,17,31,6
15:16:47:438044,17,-5,-4,32,25,17,31,6
15:16:47:438818,-1,20,35,6,2,0,-21,9
15:16:47:452355,12,-13,-35,-12,-28,-11,-6,-10
15:16:47:460545,12,-13,-35,-12,-28,-11,-6,-10
15:16:47:461342,-11,-5,53,8,-33,0,28,-6
15:16:47:467377,7,0,-11,-13,2,14,-13,-5
15:16:47:483109,7,0,-11,-13,2,14,-13,-5
15:16:47:483947,13,2,29,22,10,-7,-10,1
15:16:47:489900,-17,2,6,41,34,9,15,1
15:16:47:498051,-17,2,6,41,34,9,15,1
15:16:47:498853,17,9,-4,-67,-15,1,-2,-1
15:16:47:512347,-5,-8,-41,-18,5,-14,-1,-1
15:16:47:520615,-5,-8,-41,-18,5,-14,-1,-1
15:16:47:521391,5,-2,-27,-14,21,10,35,11
15:16:47:534868,-15,5,49,-10,-14,-8,22,8
15:16:47:543108,-15,5,49,-10,-14,-8,22,8
15:16:47:543906,-6,-5,-33,-16,-2,-14,-25,3
15:16:47:549831,0,-1,25,-3,4,-3,-10,-1
15:16:47:558072,0,-1,25,-3,4,-3,-10,-1
15:16:47:558857,-47,-27,13,37,21,-7,0,-4
15:16:47:572367,-5,10,71,-18,8,6,-26,-7
15:16:47:580570,-5,10,71,-18,8,6,-26,-7
15:16:47:581360,28,4,-5,8,-11,3,12,1
15:16:47:587373,3,-17,-10,-5,-10,-10,-25,-24
15:16:47:603069,3,-17,-10,-5,-10,-10,-25,-24
15:16:47:603869,7,6,-12,18,19,4,12,9
15:16:47:609822,-19,-10,9,-7,-3,1,-67,-2
15:16:47:618077,-19,-10,9,-7,-3,1,-67,-2
15:16:47:618880,-10,-1,-17,-4,-26,6,-14,-12
15:16:47:632371,6,8,-14,11,-2,6,8,-1
15:16:47:640598,6,8,-14,11,-2,6,8,-1
15:16:47:641365,-14,-24,-21,-36,-18,-9,-14,-6
15:16:47:647307,4,6,-6,-5,10,-12,6,2
15:16:47:663067,4,6,-6,-5,10,-12,6,2
15:16:47:663847,8,-2,-78,0,-12,-7,19,-3
15:16:47:669824,17,-22,-1,-22,-26,-1,38,18
15:16:47:678077,17,-22,-1,-22,-26,-1,38,18
15:16:47:678887,5,13,-10,-8,11,-6,-17,-13
15:16:47:692355,8,-6,-12,45,13,-2,12,9
15:16:47:700594,8,-6,-12,45,13,-2,12,9
15:16:47:701349,6,12,41,24,8,15,-11,-3
15:16:47:714871,-9,4,13,13,-27,-9,0,-3
15:16:47:723054,-9,4,13,13,-27,-9,0,-3
15:16:47:723864,27,21,7,-21,-5,40,59,11
15:16:47:729811,51,0,14,-6,-1,-1,-5,0
15:16:47:737451,51,0,14,-6,-1,-1,-5,0
15:16:47:744839,5,8,-12,-11,5,8,-37,-15
15:16:47:752312,-29,-14,10,14,3,4,16,1
15:16:47:760573,-29,-14,10,14,3,4,16,1
15:16:47:761374,-29,-17,-1,-11,-1,-10,-4,2
15:16:47:774881,-19,10,-17,-45,-27,-18,-1,-5
15:16:47:783049,-19,10,-17,-45,-27,-18,-1,-5
15:16:47:783888,-9,0,54,36,42,4,-5,-1
15:16:47:789805,-8,-22,11,-25,-1,-10,-14,-5
15:16:47:797408,-8,-22,11,-25,-1,-10,-14,-5
15:16:47:804864,-13,-6,0,-14,-17,2,2,-12
15:16:47:812336,-3,-11,-13,-14,-14,-9,-15,-3
15:16:47:820519,-3,-11,-13,-14,-14,-9,-15,-3
15:16:47:821337,9,5,-38,16,-16,-25,-9,-8
15:16:47:834861,27,6,-27,-16,5,17,50,24
15:16:47:843092,27,6,-27,-16,5,17,50,24
15:16:47:843917,32,-8,2,-6,-9,-13,-23,1
15:16:47:849828,-3,17,-47,24,32,18,-20,-7
15:16:47:857426,-3,17,-47,24,32,18,-20,-7
15:16:47:864858,10,-7,7,-22,2,-2,5,3
15:16:47:872363,0,3,-23,-26,-16,-2,-5,-4
15:16:47:880510,0,3,-23,-26,-16,-2,-5,-4
15:16:47:881332,-11,5,4,29,13,-14,-29,-4
15:16:47:894882,2,20,23,-18,4,12,-2,-4
15:16:47:903006,2,20,23,-18,4,12,-2,-4
15:16:47:903823,-12,10,22,-26,-18,-3,-17,2
15:16:47:909883,-22,5,27,43,13,5,12,2
15:16:47:917426,-22,5,27,43,13,5,12,2
15:16:47:924848,23,11,24,60,1,-2,15,4
15:16:47:932290,-11,1,-4,3,5,2,-22,-9
15:16:47:940526,-11,1,-4,3,5,2,-22,-9
15:16:47:941338,1,-3,-36,-5,29,7,15,4
15:16:47:954900,-8,-6,-6,-4,-16,-28,-11,-6
15:16:47:963010,-8,-6,-6,-4,-16,-28,-11,-6
15:16:47:963800,-15,8,18,-18,-9,13,18,15
15:16:47:969811,-8,1,38,-5,-4,-3,-69,-13
15:16:47:977403,-8,1,38,-5,-4,-3,-69,-13
15:16:47:984820,2,-3,16,5,-20,-6,-10,-7
15:16:47:992386,31,-1,11,-28,11,1,22,-2
15:16:48:591,31,-1,11,-28,11,1,22,-2
15:16:48:1360,-6,-12,-40,-12,27,19,-13,1
15:16:48:14830,11,11,-10,61,52,14,19,3
15:16:48:23082,11,11,-10,61,52,14,19,3
15:16:48:23872,-2,-12,29,-9,8,-9,-7,-7
15:16:48:29872,14,4,13,-13,-23,-12,11,5
15:16:48:37438,14,4,13,-13,-23,-12,11,5
15:16:48:44870,-14,-10,-6,-35,-32,-42,1,1
15:16:48:52343,-11,-7,-12,-25,5,16,4,9
15:16:48:60557,-11,-7,-12,-25,5,16,4,9
15:16:48:61355,3,-8,-29,-6,-28,-12,-15,-9
15:16:48:74899,6,-8,-72,-11,-37,-15,3,-1
15:16:48:91275,6,-8,-72,-11,-37,-15,3,-1
15:16:48:92042,6,5,30,42,29,13,7,7
15:16:48:92836,-1,-8,-17,29,8,3,15,-5
15:16:48:97384,-1,-8,-17,29,8,3,15,-5
15:16:48:104871,11,2,-23,3,-7,-7,23,-1
15:16:48:112354,-12,-8,-46,-48,-29,-15,-22,-10
15:16:48:120556,-12,-8,-46,-48,-29,-15,-22,-10
15:16:48:121357,-3,0,1,-9,-19,-6,-16,-7
15:16:48:134794,-23,0,42,20,65,33,27,-1
15:16:48:143073,-23,0,42,20,65,33,27,-1
15:16:48:143862,20,5,32,-1,14,-10,-21,3
15:16:48:149827,19,2,12,12,0,-12,-13,-3
15:16:48:157468,19,2,12,12,0,-12,-13,-3
15:16:48:164829,-4,-14,-47,-61,-26,-16,4,-7
15:16:48:172406,-41,4,36,7,-25,-2,2,3
15:16:48:180600,-41,4,36,7,-25,-2,2,3
15:16:48:181346,-32,-16,5,8,-15,20,-9,-8
15:16:48:194837,10,4,15,-6,2,3,8,-12
15:16:48:203047,10,4,15,-6,2,3,8,-12
15:16:48:203853,-14,6,-14,40,41,39,43,4
15:16:48:209824,-15,-12,-8,6,-24,-19,-22,-2
15:16:48:217419,-15,-12,-8,6,-24,-19,-22,-2
15:16:48:224915,21,3,-36,-14,5,-15,-2,-1
15:16:48:232370,8,5,2,9,6,-10,16,5
15:16:48:240575,8,5,2,9,6,-10,16,5
15:16:48:241331,-2,-19,4,-16,-22,-7,-3,-3
15:16:48:254889,-35,-18,33,24,-15,13,35,10
15:16:48:263017,-35,-18,33,24,-15,13,35,10
15:16:48:263801,-5,23,23,-6,11,31,0,1
15:16:48:269831,-6,0,-19,-7,-17,-3,-17,-10
15:16:48:277349,-6,0,-19,-7,-17,-3,-17,-10
15:16:48:284910,-6,-3,17,15,-4,-12,-11,2
15:16:48:292388,30,-12,-29,-34,-9,-8,-28,-5
15:16:48:300546,30,-12,-29,-34,-9,-8,-28,-5
15:16:48:301339,-8,2,19,-7,-42,-32,-22,-1
15:16:48:314904,33,10,15,13,34,51,20,8
15:16:48:323062,33,10,15,13,34,51,20,8
15:16:48:323881,-7,-20,55,12,-4,17,27,0
15:16:48:329865,-36,-6,3,-5,-7,-24,-14,1
15:16:48:337407,-36,-6,3,-5,-7,-24,-14,1
15:16:48:344815,-5,-14,-66,-9,-1,-6,-34,-10
15:16:48:352312,-21,9,-19,14,5,-10,-44,6
15:16:48:360594,-21,9,-19,14,5,-10,-44,6
15:16:48:361369,4,6,-54,-2,6,-1,19,5
15:16:48:375576,-4,-12,-30,-34,-45,-4,16,-1
15:16:48:376402,-4,-12,-30,-34,-45,-4,16,-1
15:16:48:382344,22,18,4,-14,44,53,-6,1
15:16:48:389813,16,3,12,1,-11,-2,0,2
15:16:48:397387,16,3,12,1,-11,-2,0,2
15:16:48:404876,-39,-6,19,-5,-1,-17,10,0
15:16:48:412365,13,0,9,4,7,-1,-7,-12
15:16:48:420584,13,0,9,4,7,-1,-7,-12
15:16:48:421419,27,8,-4,-15,-11,-29,50,12
15:16:48:435550,28,-8,-3,-2,0,19,43,19
15:16:48:436367,28,-8,-3,-2,0,19,43,19
15:16:48:442379,-18,-3,10,-23,-59,-21,-12,-3
15:16:48:449861,-7,1,-34,-16,11,-9,-18,-9
15:16:48:457447,-7,1,-34,-16,11,-9,-18,-9
15:16:48:464855,-1,12,-4,10,9,-16,-33,-1
15:16:48:472371,-34,-26,33,26,6,-9,-14,-2
15:16:48:480503,-34,-26,33,26,6,-9,-14,-2
15:16:48:481337,3,-18,13,7,10,17,31,-2
15:16:48:495591,-17,18,35,-17,35,-19,-40,-10
15:16:48:496385,-17,18,35,-17,35,-19,-40,-10
15:16:48:502322,-10,-2,44,14,7,-13,-6,-5
15:16:48:509881,61,19,-2,15,-36,-15,-13,-2
15:16:48:517422,61,19,-2,15,-36,-15,-13,-2
15:16:48:524922,9,12,-17,-11,22,26,13,1
15:16:48:532356,7,13,9,-38,-9,-33,2,-5
15:16:48:540595,7,13,9,-38,-9,-33,2,-5
15:16:48:541379,-6,-18,-22,46,6,-2,-32,-5
15:16:48:555506,3,3,-4,2,0,-23,33,-14
15:16:48:556314,3,3,-4,2,0,-23,33,-14
15:16:48:562360,16,-27,-45,-29,15,6,58,28
15:16:48:569844,-21,-10,40,40,18,13,5,-13
15:16:48:577399,-21,-10,40,40,18,13,5,-13
15:16:48:584818,1,9,19,22,-4,-9,-22,-6
15:16:48:592427,3,3,-31,-14,-11,1,-17,1
15:16:48:600559,3,3,-31,-14,-11,1,-17,1
15:16:48:601355,-5,-5,15,-43,-18,-7,-52,-8
15:16:48:615508,6,0,-27,26,12,9,-51,3
15:16:48:616325,6,0,-27,26,12,9,-51,3
15:16:48:622349,-22,8,-7,21,8,-1,5,-7
15:16:48:646235,-12,-8,-13,-9,-3,10,-30,7
15:16:48:647004,-12,-8,-13,-9,-3,10,-30,7
15:16:48:647838,4,11,-4,-34,-35,-10,-45,-11
15:16:48:652317,-9,10,-14,22,44,19,70,20
15:16:48:659932,-9,10,-14,22,44,19,70,20
15:16:48:667380,15,-6,-11,3,1,-4,-18,-1
15:16:48:675515,-5,1,-11,-20,-21,1,8,2
15:16:48:676315,-5,1,-11,-20,-21,1,8,2
15:16:48:682378,1,6,-16,-5,16,7,9,-4
15:16:48:698022,-37,-22,31,39,9,-11,-15,-11
15:16:48:698815,-37,-22,31,39,9,-11,-15,-11
15:16:48:704898,57,22,4,26,33,7,1,7
15:16:48:712350,8,-3,-9,-32,-5,9,9,-4
15:16:48:719856,8,-3,-9,-32,-5,9,9,-4
15:16:48:727342,6,-5,-37,-4,-21,-13,28,-3
15:16:48:735500,6,11,6,-18,-2,9,22,9
15:16:48:736347,6,11,6,-18,-2,9,22,9
15:16:48:742315,-19,6,24,3,4,2,-11,2
15:16:48:758069,21,-1,11,-30,-21,-20,-3,-4
15:16:48:758859,21,-1,11,-30,-21,-20,-3,-4
15:16:48:764836,-16,-6,-19,36,17,14,13,-3
15:16:48:772357,-3,1,35,32,-4,4,2,0
15:16:48:779895,-3,1,35,32,-4,4,2,0
15:16:48:787324,-10,-12,-3,27,26,8,-2,-6
15:16:48:795563,27,-7,-59,8,15,-9,-31,-3
15:16:48:796378,27,-7,-59,8,15,-9,-31,-3
15:16:48:802314,-15,-15,-15,-25,11,26,0,-2
15:16:48:818059,-26,4,27,7,5,-5,-3,5
15:16:48:818869,-26,4,27,7,5,-5,-3,5
15:16:48:824871,-61,-17,3,-23,-35,-21,4,-16
15:16:48:832323,-19,11,29,-5,-2,3,-8,-7
15:16:48:839933,-19,11,29,-5,-2,3,-8,-7
15:16:48:847343,9,24,-8,-80,-31,-9,9,-2
15:16:48:855554,-9,-22,-27,-15,-21,-6,-2,-7
15:16:48:856388,-9,-22,-27,-15,-21,-6,-2,-7
15:16:48:862357,26,8,50,-20,23,61,19,5
15:16:48:878047,40,8,-25,-11,-19,-20,-10,5
15:16:48:878881,40,8,-25,-11,-19,-20,-10,5
15:16:48:884836,-24,-8,3,7,-31,-45,-25,-2
15:16:48:892375,-53,-11,-8,6,-29,7,6,-10
15:16:48:899918,-53,-11,-8,6,-29,7,6,-10
15:16:48:907384,17,-2,41,23,45,4,9,0
15:16:48:923772,-4,-37,-51,-2,-2,-9,-33,2
15:16:48:924596,-4,-37,-51,-2,-2,-9,-33,2
15:16:48:925394,27,0,2,20,-19,0,-8,-7
15:16:48:946215,-1,-7,13,-13,13,6,-3,-5
15:16:48:947050,-1,-7,13,-13,13,6,-3,-5
15:16:48:947760,10,7,12,15,19,-10,-9,9
15:16:48:952361,-16,1,16,-3,1,2,3,-1
15:16:48:959988,-16,1,16,-3,1,2,3,-1
15:16:48:967351,-7,-10,-42,-14,-44,-19,-10,-10
15:16:48:975541,5,2,24,5,38,14,8,1
15:16:48:976379,5,2,24,5,38,14,8,1
15:16:48:982325,-22,-5,11,12,-11,-4,-31,-1
15:16:48:998036,33,12,2,14,-8,10,20,0
15:16:48:998818,33,12,2,14,-8,10,20,0
15:16:49:4823,19,-2,-12,7,16,4,-29,-7
15:16:49:12315,-18,-1,59,-18,-16,24,46,10
15:16:49:19885,-18,-1,59,-18,-16,24,46,10
15:16:49:27313,5,5,-27,-4,15,-2,27,3
15:16:49:35517,-5,-8,-11,-37,-16,-3,-9,-11
15:16:49:36351,-5,-8,-11,-37,-16,-3,-9,-11
15:16:49:42367,-14,-3,-26,5,-8,-3,1,-1
15:16:49:58781,-14,13,-78,-25,-17,-9,12,-2
15:16:49:59545,-14,13,-78,-25,-17,-9,12,-2
15:16:49:64817,14,-5,26,21,-10,13,-1,-4
15:16:49:72328,-42,8,17,-16,24,31,-1,6
15:16:49:79902,-42,8,17,-16,24,31,-1,6
15:16:49:87373,-5,-26,39,23,3,-4,27,4
15:16:49:95578,13,-2,8,29,-7,-27,-23,-2
15:16:49:96412,13,-2,8,29,-7,-27,-23,-2
15:16:49:102351,21,14,-3,-5,-34,-6,27,-2
15:16:49:118087,2,4,51,53,34,26,6,0
15:16:49:118862,2,4,51,53,34,26,6,0
15:16:49:124849,1,3,44,10,-14,-19,-16,0
15:16:49:132320,17,10,-19,13,9,-7,10,3
15:16:49:139917,17,10,-19,13,9,-7,10,3
15:16:49:147347,-35,-14,-4,8,21,2,3,2
15:16:49:155521,38,15,-31,-4,19,1,55,0
15:16:49:156318,38,15,-31,-4,19,1,55,0
15:16:49:162356,-4,3,-6,1,36,-5,-13,14
15:16:49:178096,15,-13,-26,-22,-43,-42,-10,-6
15:16:49:178871,15,-13,-26,-22,-43,-42,-10,-6
15:16:49:184815,4,-4,-15,-7,33,10,1,-27
15:16:49:200541,17,-6,-9,19,-7,-4,-12,5
15:16:49:201387,17,-6,-9,19,-7,-4,-12,5
15:16:49:207352,-23,11,54,7,-30,5,-14,1
15:16:49:215500,6,-2,30,1,-30,4,-5,-3
15:16:49:216346,6,-2,30,1,-30,4,-5,-3
15:16:49:222344,-25,-18,4,5,13,-6,8,3
15:16:49:238066,2,5,-8,-10,4,3,-16,-4
15:16:49:238837,2,5,-8,-10,4,3,-16,-4
15:16:49:244851,-3,11,-34,-64,-19,-11,-19,-1
15:16:49:252326,-8,-17,-25,17,-3,-1,-3,-5
15:16:49:259875,-8,-17,-25,17,-3,-1,-3,-5
15:16:49:267358,10,20,3,-35,-4,-8,-8,0
15:16:49:275553,13,4,-17,-15,-37,-21,-2,-2
15:16:49:276334,13,4,-17,-15,-37,-21,-2,-2
15:16:49:282278,21,-11,-28,43,-20,-10,-1,-1
15:16:49:298038,-24,-3,61,49,46,33,40,6
15:16:49:298809,-24,-3,61,49,46,33,40,6
15:16:49:304872,-8,-11,-62,-33,-31,-11,3,2
15:16:49:312385,-21,5,17,17,4,-9,-21,-7
15:16:49:319873,-21,5,17,17,4,-9,-21,-7
15:16:49:327339,18,14,23,-12,2,-1,2,1
15:16:49:335492,-14,-15,18,1,18,5,-18,-2
15:16:49:336337,-14,-15,18,1,18,5,-18,-2
15:16:49:342361,19,4,-2,26,-12,12,-32,4
15:16:49:358095,-3,-4,9,-32,-53,-38,-33,-1
15:16:49:358917,-3,-4,9,-32,-53,-38,-33,-1
15:16:49:364798,-13,-20,-4,57,95,64,20,4
15:16:49:372375,-30,-11,-61,-17,-1,-3,-6,-8
15:16:49:379907,-30,-11,-61,-17,-1,-3,-6,-8
15:16:49:387332,-40,0,-10,-36,-45,-25,9,3
15:16:49:395522,-12,-17,-14,-2,11,-1,-10,0
15:16:49:396367,-12,-17,-14,-2,11,-1,-10,0
15:16:49:402344,10,8,-16,-4,-23,2,7,-4
15:16:49:418026,4,17,11,-34,-9,20,-4,-3
15:16:49:418855,4,17,11,-34,-9,20,-4,-3
15:16:49:424874,-37,-16,2,-8,7,1,35,-1
15:16:49:432297,-2,8,5,-16,-17,-4,11,-7
15:16:49:439879,-2,8,5,-16,-17,-4,11,-7
15:16:49:447323,10,16,4,-12,-15,-2,-1,0
15:16:49:455550,-3,-7,-6,-2,13,8,-16,-1
15:16:49:456362,-3,-7,-6,-2,13,8,-16,-1
15:16:49:462351,24,-1,-20,-29,-8,-35,1,-1
15:16:49:486208,24,2,-36,0,3,22,17,6
15:16:49:487026,24,2,-36,0,3,22,17,6
15:16:49:487807,-34,-15,-16,17,-25,-3,-6,0
15:16:49:492357,-19,-13,7,0,11,-8,29,-6
15:16:49:499909,-19,-13,7,0,11,-8,29,-6
15:16:49:516223,9,-3,-26,-19,-9,8,11,12
15:16:49:517046,-19,3,1,-13,2,-13,-48,-2
15:16:49:517829,-19,3,1,-13,2,-13,-48,-2
15:16:49:522386,18,7,-4,12,-11,-14,-15,-6
15:16:49:538061,21,-5,-2,20,42,-7,10,3
15:16:49:538881,21,-5,-2,20,42,-7,10,3
15:16:49:544867,-4,-17,3,14,15,8,1,3
15:16:49:552356,-31,11,-19,0,3,10,18,4
15:16:49:559909,-31,11,-19,0,3,10,18,4
15:16:49:567332,-31,0,17,-8,13,3,-30,-9
15:16:49:575597,14,-11,7,2,-9,-8,-23,-2
15:16:49:576404,14,-11,7,2,-9,-8,-23,-2
15:16:49:589852,20,16,7,16,-3,-6,9,-1
15:16:49:598034,-2,8,18,34,-8,-13,-12,1
15:16:49:598873,-2,8,18,34,-8,-13,-12,1
15:16:49:604821,6,14,61,43,7,13,-15,1
15:16:49:620522,20,-11,9,-31,4,22,16,3
15:16:49:621311,20,-11,9,-31,4,22,16,3
15:16:49:627307,-5,9,-6,-14,-3,-16,-1,-12
15:16:49:635493,-1,10,25,12,19,-7,12,-2
15:16:49:636315,-1,10,25,12,19,-7,12,-2
15:16:49:649873,11,-3,20,-17,2,1,4,4
15:16:49:658064,16,4,-29,-1,-21,-6,4,-3
15:16:49:658864,16,4,-29,-1,-21,-6,4,-3
15:16:49:664795,2,17,38,-32,4,-10,-2,1
15:16:49:680514,1,8,26,-12,-25,-1,-6,-1
15:16:49:681332,1,8,26,-12,-25,-1,-6,-1
15:16:49:687373,-5,-11,-46,31,1,22,9,4
15:16:49:695535,24,7,-11,-26,31,24,-3,0
15:16:49:696371,24,7,-11,-26,31,24,-3,0
15:16:49:709930,-3,1,27,11,27,23,-4,1
15:16:49:718042,-26,-6,13,4,-23,-26,-7,-4
15:16:49:718807,-26,-6,13,4,-23,-26,-7,-4
15:16:49:724910,-16,3,38,13,23,21,15,-8
15:16:49:740537,-10,-20,-31,-5,-2,-19,3,-8
15:16:49:741400,-10,-20,-31,-5,-2,-19,3,-8
15:16:49:747356,17,-1,-31,-18,-8,-5,23,3
15:16:49:755523,-9,5,-15,-35,-13,-4,8,-2
15:16:49:756375,-9,5,-15,-35,-13,-4,8,-2
15:16:49:769825,18,12,-1,21,-10,-18,-10,-1
15:16:49:778037,-5,-18,6,-32,-11,8,-8,-3
15:16:49:778834,-5,-18,6,-32,-11,8,-8,-3
15:16:49:784830,33,24,19,-34,-15,-5,-7,0
15:16:49:800588,-37,-20,7,16,-25,-13,13,-5
15:16:49:801356,-37,-20,7,16,-25,-13,13,-5
15:16:49:807413,6,-22,-29,-40,-2,39,13,-8
15:16:49:815494,13,21,11,17,25,-7,-12,0
15:16:49:816331,13,21,11,17,25,-7,-12,0
15:16:49:829869,-24,-9,-6,14,-5,-20,-11,-6
15:16:49:838124,13,5,-19,1,-36,-11,-1,12
15:16:49:838887,13,5,-19,1,-36,-11,-1,12
15:16:49:844884,10,-5,-68,-13,46,5,1,4
15:16:49:860603,26,-12,13,67,13,19,3,3
15:16:49:861387,26,-12,13,67,13,19,3,3
15:16:49:867360,-27,3,26,16,-35,-31,-15,-3
15:16:49:875517,1,-3,-17,-10,42,18,20,-1
15:16:49:876318,1,-3,-17,-10,42,18,20,-1
15:16:49:889820,7,-6,-21,6,-6,-29,-28,-2
15:16:49:898052,10,6,31,5,-1,28,-15,7
15:16:49:898863,10,6,31,5,-1,28,-15,7
15:16:49:904875,2,-14,-17,-4,9,-13,-3,-1
15:16:49:920562,2,-14,-17,-4,9,-13,-3,-1
15:16:49:921374,1,9,-40,-14,16,-5,2,0
15:16:49:927341,-17,-6,-2,-22,22,24,17,2
15:16:49:934885,-17,-6,-2,-22,22,24,17,2
15:16:49:942368,13,19,48,64,18,7,4,-3
15:16:49:949845,-9,-30,-16,-37,-75,-45,-11,-10
15:16:49:958038,-9,-30,-16,-37,-75,-45,-11,-10
15:16:49:958834,-14,-7,6,-1,14,23,-4,-1
15:16:49:964830,-19,6,20,7,1,-4,-1,5
15:16:49:980564,-19,6,20,7,1,-4,-1,5
15:16:49:981349,-15,-8,-41,-13,-25,7,-1,-4
15:16:49:987341,17,7,53,2,-3,18,-4,-3
15:16:49:994885,17,7,53,2,-3,18,-4,-3
15:16:50:2337,-52,-12,4,11,43,-8,-4,-12
15:16:50:9872,6,3,6,-12,16,4,8,4
15:16:50:18025,6,3,6,-12,16,4,8,4
15:16:50:18815,30,6,-45,-58,-42,-28,-5,2
15:16:50:24811,10,-4,-5,5,-6,-1,-3,-2
15:16:50:40554,10,-4,-5,5,-6,-1,-3,-2
15:16:50:41304,12,2,36,2,29,0,-5,3
15:16:50:47335,-10,5,8,31,11,-6,-38,-11
15:16:50:54915,-10,5,8,31,11,-6,-38,-11
15:16:50:62326,-19,-5,-7,-70,0,-6,15,0
15:16:50:69798,17,12,35,-9,-32,6,14,-1
15:16:50:78073,17,12,35,-9,-32,6,14,-1
15:16:50:78892,-1,-3,51,-7,-28,-5,-9,-4
15:16:50:84879,-14,-15,-33,-24,-1,4,-6,-2
15:16:50:100601,-14,-15,-33,-24,-1,4,-6,-2
15:16:50:101388,-27,-19,-25,-3,-22,-4,0,3
15:16:50:107365,36,8,-57,16,12,10,9,16
15:16:50:114893,36,8,-57,16,12,10,9,16
15:16:50:122342,17,9,9,-9,-38,-17,-3,0
15:16:50:129815,11,0,13,4,-3,-12,8,-1
15:16:50:138084,11,0,13,4,-3,-12,8,-1
15:16:50:138879,16,0,-39,25,26,3,31,2
15:16:50:144840,-14,-8,33,5,-3,14,29,0
15:16:50:160577,-14,-8,33,5,-3,14,29,0
15:16:50:161361,-34,-8,3,21,-54,-29,-23,-4
15:16:50:167342,-10,-16,-4,46,18,22,4,0
15:16:50:174955,-10,-16,-4,46,18,22,4,0
15:16:50:182310,32,7,-12,-20,20,10,-2,-2
15:16:50:189851,-27,-10,2,-8,-2,-6,-14,-11
15:16:50:198108,-27,-10,2,-8,-2,-6,-14,-11
15:16:50:198905,7,4,15,8,-10,10,7,4
15:16:50:204925,-7,3,3,-7,-2,1,7,0
15:16:50:220556,-7,3,3,-7,-2,1,7,0
15:16:50:221393,2,-3,-6,-41,-5,8,-13,-3
15:16:50:227376,-28,-3,12,-8,13,-20,-1,0
15:16:50:234922,-28,-3,12,-8,13,-20,-1,0
15:16:50:242425,-1,5,10,-6,8,-7,6,3
15:16:50:249885,-30,5,-30,-1,-47,-3,94,9
15:16:50:258088,-30,5,-30,-1,-47,-3,94,9
15:16:50:258834,-17,-9,-32,-17,10,27,-12,-11
15:16:50:264847,5,-13,0,17,25,12,-24,-1
15:16:50:280600,5,-13,0,17,25,12,-24,-1
15:16:50:281395,20,14,-8,79,16,-7,7,-2
15:16:50:287347,-19,1,-27,-12,10,26,6,1
15:16:50:295552,-19,1,-27,-12,10,26,6,1
15:16:50:296360,-8,-12,7,9,1,6,-15,-4
15:16:50:309927,29,4,-39,-38,-14,-27,-35,-1
15:16:50:318017,29,4,-39,-38,-14,-27,-35,-1
15:16:50:318834,6,7,33,39,-38,-29,-8,-5
15:16:50:324898,-4,-9,3,-3,42,13,-6,-11
15:16:50:340630,-4,-9,3,-3,42,13,-6,-11
15:16:50:341383,-2,-4,-31,-22,29,1,65,9
15:16:50:347349,1,8,0,-7,-7,0,-14,-7
15:16:50:355563,1,8,0,-7,-7,0,-14,-7
15:16:50:356343,-15,7,32,14,-10,-29,-34,-6
15:16:50:369824,4,15,45,9,9,3,-4,1
15:16:50:386192,4,15,45,9,9,3,-4,1
15:16:50:386993,-9,-3,61,-16,-13,0,-7,-3
15:16:50:387819,44,-1,-13,28,-2,-8,-19,-2
15:16:50:408730,44,-1,-13,28,-2,-8,-19,-2
15:16:50:409506,12,7,-19,-21,-4,19,-22,1
15:16:50:410312,-8,-16,31,5,-16,-19,0,5
15:16:50:415554,-8,-16,31,5,-16,-19,0,5
15:16:50:416340,-35,-52,-92,-22,-12,8,7,-6
15:16:50:429907,2,10,5,26,11,20,-2,1
15:16:50:438081,2,10,5,26,11,20,-2,1
15:16:50:438813,33,17,26,-15,3,-5,-19,-4
15:16:50:444880,-4,-3,-54,-35,-7,-21,7,7
15:16:50:460562,-4,-3,-54,-35,-7,-21,7,7
15:16:50:461390,11,16,27,15,5,-4,8,6
15:16:50:467374,-44,-16,-15,-29,-22,-10,-4,-5
15:16:50:475607,-44,-16,-15,-29,-22,-10,-4,-5
15:16:50:476396,-36,-3,-10,4,8,2,19,0
15:16:50:489838,-12,-20,-39,23,5,0,-12,-3
15:16:50:498075,-12,-20,-39,23,5,0,-12,-3
15:16:50:498837,14,-8,-37,-22,-1,0,-7,0
15:16:50:504923,16,15,8,-4,-11,-7,15,1
15:16:50:520658,16,15,8,-4,-11,-7,15,1
15:16:50:521401,-30,9,32,-6,-22,-10,-7,8
15:16:50:527353,-33,-3,-6,1,15,36,53,13
15:16:50:534818,-33,-3,-6,1,15,36,53,13
15:16:50:542368,17,18,19,1,-13,0,-7,0
15:16:50:549861,-14,-5,-21,0,-1,-28,-20,-18
15:16:50:558078,-14,-5,-21,0,-1,-28,-20,-18
15:16:50:558869,-17,-16,21,-2,2,-3,-2,-12
15:16:50:572388,16,-8,26,-10,-17,-20,-33,-11
15:16:50:580545,16,-8,26,-10,-17,-20,-33,-11
15:16:50:581340,-5,-31,-21,-25,21,3,-9,-1
15:16:50:587389,9,16,16,-8,-5,3,1,0
15:16:50:594925,9,16,16,-8,-5,3,1,0
15:16:50:602287,-20,2,18,17,7,-7,-46,-19
15:16:50:609831,12,-11,28,9,22,12,33,24
15:16:50:618025,12,-11,28,9,22,12,33,24
15:16:50:618838,2,-5,-35,-5,2,-12,-54,-2
15:16:50:632364,-9,19,43,2,-13,-9,-12,-2
15:16:50:640574,-9,19,43,2,-13,-9,-12,-2
15:16:50:641379,-9,-10,-52,16,-31,-16,6,-8
15:16:50:647297,2,14,-38,27,1,39,-17,-4
15:16:50:654912,2,14,-38,27,1,39,-17,-4
15:16:50:662347,29,33,14,30,34,18,-23,-7
15:16:50:669819,-21,-1,12,4,-1,-24,-10,-7
15:16:50:685517,-21,-1,12,4,-1,-24,-10,-7
15:16:50:686327,44,9,-1,-11,-23,7,122,41
15:16:50:692302,13,-33,12,8,4,-5,-2,1
15:16:50:700542,13,-33,12,8,4,-5,-2,1
15:16:50:701364,6,-8,77,17,14,-4,-33,-7
15:16:50:707334,8,6,-5,-83,-15,-7,-9,-3
15:16:50:714923,8,6,-5,-83,-15,-7,-9,-3
15:16:50:722359,-18,-5,-27,-8,-26,12,-14,-4
15:16:50:729854,49,16,8,18,22,12,-26,-1
15:16:50:738131,49,16,8,18,22,12,-26,-1
15:16:50:738889,-39,-16,-9,-35,-27,-44,-24,-14
15:16:50:752341,0,3,-7,35,15,26,4,12
15:16:50:760550,0,3,-7,35,15,26,4,12
15:16:50:761367,12,-2,11,-24,-11,5,1,3
15:16:50:767350,5,1,12,-1,-1,-19,-21,-7
15:16:50:774981,5,1,12,-1,-1,-19,-21,-7
15:16:50:782399,37,9,-1,16,13,20,27,4
15:16:50:789879,-18,2,13,15,1,-15,-22,-17
15:16:50:798020,-18,2,13,15,1,-15,-22,-17
15:16:50:798838,29,17,-9,31,36,1,-6,12
15:16:50:812341,8,8,1,-10,-30,-15,-26,-15
15:16:50:820589,8,8,1,-10,-30,-15,-26,-15
15:16:50:821372,26,-11,-34,10,-5,9,37,20
15:16:50:827369,-4,-12,-17,-10,11,4,-16,-7
15:16:50:834884,-4,-12,-17,-10,11,4,-16,-7
15:16:50:842398,-35,3,37,-52,5,2,-12,-1
15:16:50:849896,-14,-3,31,9,14,-2,9,5
15:16:50:858044,-14,-3,31,9,14,-2,9,5
15:16:50:858880,-11,-18,-71,-33,-1,-1,2,-2
15:16:50:872381,-29,8,-37,-37,-7,2,37,4
15:16:50:880515,-29,8,-37,-37,-7,2,37,4
15:16:50:881310,-24,-12,30,6,2,4,-1,-10
15:16:50:887348,1,-5,-2,21,-5,-6,-9,1
15:16:50:894889,1,-5,-2,21,-5,-6,-9,1
15:16:50:902298,-41,-6,11,16,13,-2,-16,-18
15:16:50:909847,-16,1,-39,-23,-36,-15,-8,-3
15:16:50:918031,-16,1,-39,-23,-36,-15,-8,-3
15:16:50:918817,37,0,15,35,53,32,50,-2
15:16:50:941260,-1,-24,-42,-8,-14,-3,58,10
15:16:50:942100,-1,-24,-42,-8,-14,-3,58,10
15:16:50:942909,-16,2,-35,-24,-23,-5,-28,-12
15:16:50:947390,17,5,23,21,41,18,-23,1
15:16:50:963114,17,5,23,21,41,18,-23,1
15:16:50:963893,17,-3,-63,-22,-1,-10,-6,2
15:16:50:969834,-8,-21,14,-25,-14,-5,-8,-4
15:16:50:978036,-8,-21,14,-25,-14,-5,-8,-4
15:16:50:978938,-11,-13,-7,28,-15,-9,-12,3
15:16:50:992426,33,5,-19,7,12,8,27,9
15:16:51:590,33,5,-19,7,12,8,27,9
15:16:51:1352,-47,-2,-38,5,-13,-6,14,6
15:16:51:7373,2,-12,-46,5,-10,-3,1,-1
15:16:51:14877,2,-12,-46,5,-10,-3,1,-1
15:16:51:22353,6,22,71,4,-11,-24,-10,-10
15:16:51:29878,3,13,31,-4,-43,-8,-32,-8
15:16:51:38055,3,13,31,-4,-43,-8,-32,-8
15:16:51:38810,18,-4,-13,-24,18,14,1,2
15:16:51:52350,-19,-9,37,1,-21,-17,44,8
15:16:51:60533,-19,-9,37,1,-21,-17,44,8
15:16:51:61315,-19,-8,17,42,6,-4,-41,-5
15:16:51:67351,-1,6,8,1,-17,-12,-7,-16
15:16:51:74889,-1,6,8,1,-17,-12,-7,-16
15:16:51:82278,9,4,3,-38,3,7,-7,3
15:16:51:89800,-9,0,-5,-16,-5,-3,-6,0
15:16:51:98021,-9,0,-5,-16,-5,-3,-6,0
15:16:51:98853,11,13,10,21,5,5,3,-9
15:16:51:112377,23,-12,-10,-2,18,30,1,-4
15:16:51:120516,23,-12,-10,-2,18,30,1,-4
15:16:51:121399,-21,-4,-48,-1,-15,-10,12,-3
15:16:51:127329,19,15,-18,-6,11,-3,-32,4
15:16:51:134886,19,15,-18,-6,11,-3,-32,4
15:16:51:142351,12,8,31,-12,-15,-4,14,0
15:16:51:149843,-11,0,21,0,9,3,-8,-4
15:16:51:158091,-11,0,21,0,9,3,-8,-4
15:16:51:158917,-10,2,74,33,6,-5,-1,2
15:16:51:172344,18,2,12,13,-3,-6,4,1
15:16:51:180599,18,2,12,13,-3,-6,4,1
15:16:51:181396,24,14,8,12,-2,-14,18,-10
15:16:51:187347,19,3,19,23,63,73,102,7
15:16:51:194932,19,3,19,23,63,73,102,7
15:16:51:202310,27,5,-13,0,-8,8,17,4
15:16:51:209835,-13,-8,-27,9,-12,-30,-44,-12
15:16:51:218011,-13,-8,-27,9,-12,-30,-44,-12
15:16:51:218791,-21,-5,-12,-1,0,6,-8,1
15:16:51:241268,50,11,18,15,0,-4,-24,9
15:16:51:242080,50,11,18,15,0,-4,-24,9
15:16:51:242802,22,-4,0,25,2,-12,-23,1
15:16:51:247329,-23,-14,37,10,28,-12,5,1
15:16:51:254907,-23,-14,37,10,28,-12,5,1
15:16:51:262342,-11,-7,29,-17,5,2,4,2
15:16:51:269814,-19,7,12,-30,-39,-32,-7,-7
15:16:51:278090,-19,7,12,-30,-39,-32,-7,-7
15:16:51:278877,-2,4,-8,8,27,23,22,13
15:16:51:292359,-56,-34,27,-31,-14,-13,-24,-7
15:16:51:300541,-56,-34,27,-31,-14,-13,-24,-7
15:16:51:301325,10,6,-16,-2,0,-5,1,1
15:16:51:307358,0,-27,-46,-2,-9,11,4,12
15:16:51:314888,0,-27,-46,-2,-9,11,4,12
15:16:51:322346,-23,5,6,5,-10,-2,17,0
15:16:51:329824,-14,10,49,30,-13,-6,-33,-5
15:16:51:338065,-14,10,49,30,-13,-6,-33,-5
15:16:51:338834,-52,-11,-41,-10,-14,2,-25,-5
15:16:51:352339,32,8,11,21,1,8,-15,-12
15:16:51:360574,32,8,11,21,1,8,-15,-12
15:16:51:361383,50,4,2,-36,-28,-16,-6,1
15:16:51:367344,-12,1,-8,6,33,9,9,2
15:16:51:374893,-12,1,-8,6,33,9,9,2
15:16:51:382390,4,4,23,1,32,13,5,5
15:16:51:389854,-5,14,4,-1,20,-19,-20,-5
15:16:51:398035,-5,14,4,-1,20,-19,-20,-5
15:16:51:398822,23,-1,-3,-9,-2,-11,-14,4
15:16:51:412376,15,21,-38,-24,-19,-12,-52,-6
15:16:51:420559,15,21,-38,-24,-19,-12,-52,-6
15:16:51:421379,-46,-34,-44,-4,14,6,31,1
15:16:51:427363,-32,-26,-40,-4,24,15,37,-3
15:16:51:434867,-32,-26,-40,-4,24,15,37,-3
15:16:51:442369,24,15,-13,-40,-26,-16,-39,-12
15:16:51:449810,-10,9,44,25,-9,0,14,1
15:16:51:458074,-10,9,44,25,-9,0,14,1
15:16:51:458868,-11,6,-14,-22,-10,3,5,-8
15:16:51:472406,2,10,-50,2,-21,13,30,9
15:16:51:480558,2,10,-50,2,-21,13,30,9
15:16:51:481334,4,4,38,28,33,8,-24,-10
15:16:51:495544,-11,-10,3,-12,14,-4,-6,-2
15:16:51:496347,-11,-10,3,-12,14,-4,-6,-2
15:16:51:502355,-3,6,2,4,-22,-15,8,-3
15:16:51:518061,-33,-1,7,-36,-23,5,31,13
15:16:51:518807,-33,-1,7,-36,-23,5,31,13
15:16:51:524897,-43,-2,38,7,-16,-9,-5,6
15:16:51:532365,1,-10,-6,18,-10,5,-4,-18
15:16:51:540525,1,-10,-6,18,-10,5,-4,-18
15:16:51:541358,-5,-2,-11,24,3,-1,-8,1
15:16:51:555520,7,12,42,6,35,1,-10,-2
15:16:51:556366,7,12,42,6,35,1,-10,-2
15:16:51:562354,37,-4,-12,-7,-35,8,57,17
15:16:51:569817,-19,-8,-2,-35,-19,-15,-12,-8
15:16:51:577363,-19,-8,-2,-35,-19,-15,-12,-8
15:16:51:584853,-47,-9,-1,-2,15,10,-31,-10
15:16:51:592411,26,6,6,-21,-29,-20,-4,9
15:16:51:600548,26,6,6,-21,-29,-20,-4,9
15:16:51:601331,-16,-4,-15,13,2,-11,1,-11
15:16:51:615529,16,-6,8,6,-7,-5,-9,-9
15:16:51:616311,16,-6,8,6,-7,-5,-9,-9
15:16:51:622391,25,7,-28,-14,-8,-2,-5,3
15:16:51:629850,-14,-23,-58,-17,13,9,-2,-5
15:16:51:637428,-14,-23,-58,-17,13,9,-2,-5
15:16:51:644820,34,6,8,3,9,-3,-75,-1
15:16:51:652310,17,14,42,21,12,28,-21,-23
15:16:51:660565,17,14,42,21,12,28,-21,-23
15:16:51:661380,58,-18,12,18,56,36,109,40
15:16:51:675529,-13,7,8,8,13,4,16,10
15:16:51:676408,-13,7,8,8,13,4,16,10
15:16:51:682317,21,0,1,-16,-27,-20,-39,-13
15:16:51:689824,-9,-6,-29,-24,-19,-19,-14,-9
15:16:51:697369,-9,-6,-29,-24,-19,-19,-14,-9
15:16:51:704862,42,11,11,3,10,3,9,1
15:16:51:712367,15,27,-52,21,19,-6,2,7
15:16:51:720538,15,27,-52,21,19,-6,2,7
15:16:51:721359,14,-18,-3,-18,-13,-15,8,-3
15:16:51:735543,-26,-6,8,6,-38,0,-14,8
15:16:51:736354,-26,-6,8,6,-38,0,-14,8
15:16:51:742339,-24,3,34,16,12,3,-20,-23
15:16:51:749825,6,-5,-8,-25,18,4,3,6
15:16:51:757448,6,-5,-8,-25,18,4,3,6
15:16:51:773046,-34,-2,-8,-5,-5,10,3,-8
15:16:51:773786,1,2,27,-15,-61,-39,5,7
15:16:51:780560,1,2,27,-15,-61,-39,5,7
15:16:51:781355,-16,-9,6,12,41,29,1,-6
15:16:51:795575,1,-19,-95,-65,-11,0,-14,-16
15:16:51:796361,1,-19,-95,-65,-11,0,-14,-16
15:16:51:802288,-3,22,-15,26,-28,-3,25,10
15:16:51:818038,10,-8,11,18,44,13,-9,-4
15:16:51:818812,10,-8,11,18,44,13,-9,-4
15:16:51:824869,18,1,-4,-13,-8,6,16,20
15:16:51:832332,2,-14,23,22,-18,-25,0,-17
15:16:51:840561,2,-14,23,22,-18,-25,0,-17
15:16:51:841356,-17,-31,0,-9,54,24,-23,-3
15:16:51:855528,-32,5,78,22,3,2,17,2
15:16:51:856324,-32,5,78,22,3,2,17,2
15:16:51:862293,6,-4,-15,-35,-42,-36,-14,-6
15:16:51:869805,13,30,-15,-3,9,4,1,0
15:16:51:877387,13,30,-15,-3,9,4,1,0
15:16:51:884821,-17,-12,-14,-22,-32,-18,-15,-5
15:16:51:892344,14,6,9,25,21,21,3,14
15:16:51:900566,14,6,9,25,21,21,3,14
15:16:51:901357,7,-7,-69,-8,-52,-7,26,1
15:16:51:915566,5,1,13,13,12,13,10,-3
15:16:51:916376,5,1,13,13,12,13,10,-3
15:16:51:922340,-25,-6,-61,8,12,-8,-13,-7
15:16:51:929832,-3,3,-9,-19,-14,4,26,-7
15:16:51:937412,-3,3,-9,-19,-14,4,26,-7
15:16:51:944878,19,13,31,7,4,-24,-8,2
15:16:51:952332,26,-6,-33,-4,23,-11,-17,-3
15:16:51:960601,26,-6,-33,-4,23,-11,-17,-3
15:16:51:961391,21,-2,60,25,1,-3,-5,-4
15:16:51:975617,-13,13,13,31,26,5,0,8
15:16:51:976382,-13,13,13,31,26,5,0,8
15:16:51:982344,-2,7,34,26,8,-9,-11,4
15:16:51:989825,-17,-17,-4,2,3,0,91,0
15:16:51:997430,-17,-17,-4,2,3,0,91,0
15:16:52:4870,-28,11,-12,-16,19,7,27,-5
15:16:52:12359,21,6,8,7,-32,-30,-42,-1
15:16:52:20551,21,6,8,7,-32,-30,-42,-1
15:16:52:21349,-17,-12,-11,-6,-13,-1,5,-9
15:16:52:35500,2,-8,-2,-30,-11,-3,-10,12
15:16:52:36343,2,-8,-2,-30,-11,-3,-10,12
15:16:52:42362,-14,-9,31,-5,1,11,-20,-3
15:16:52:49828,5,-7,1,-42,1,15,-15,-1
15:16:52:57346,5,-7,1,-42,1,15,-15,-1
15:16:52:73061,-55,-5,-16,27,18,2,-9,-5
15:16:52:73802,26,-1,-12,-10,-40,-7,-35,-10
15:16:52:80492,26,-1,-12,-10,-40,-7,-35,-10
15:16:52:81304,25,10,-21,0,21,34,1,-1
15:16:52:95543,-5,-12,-20,17,29,45,40,-1
15:16:52:96381,-5,-12,-20,17,29,45,40,-1
15:16:52:102310,16,15,-10,-13,-10,-24,-37,-10
15:16:52:109814,-22,0,8,25,14,11,2,9
15:16:52:117381,-22,0,8,25,14,11,2,9
15:16:52:124897,-41,-34,-12,4,-7,-5,9,0
15:16:52:132343,11,5,20,6,-17,-21,-15,-2
15:16:52:140521,11,5,20,6,-17,-21,-15,-2
15:16:52:141360,12,-4,6,-21,-49,-24,-15,1
15:16:52:155490,18,14,24,-28,-23,7,17,-3
15:16:52:156328,18,14,24,-28,-23,7,17,-3
15:16:52:162374,36,34,-30,7,15,27,38,11
15:16:52:169852,-44,-25,-41,-25,22,-5,14,1
15:16:52:177381,-44,-25,-41,-25,22,-5,14,1
15:16:52:184839,-23,-16,-8,-2,-15,-18,-31,-14
15:16:52:192418,22,20,51,1,-6,-17,-27,-12
15:16:52:200542,22,20,51,1,-6,-17,-27,-12
15:16:52:201339,18,-1,40,6,20,12,6,7
15:16:52:215546,-32,-4,19,7,-21,-9,-10,-1
15:16:52:216357,-32,-4,19,7,-21,-9,-10,-1
15:16:52:222360,11,-3,9,-26,3,0,19,7
15:16:52:229855,5,0,-38,-4,-46,-29,7,-3
15:16:52:237434,5,0,-38,-4,-46,-29,7,-3
15:16:52:244860,-46,-25,-11,10,27,21,-9,3
15:16:52:252297,24,1,-32,6,-1,20,-5,16
15:16:52:260583,24,1,-32,6,-1,20,-5,16
15:16:52:261355,53,2,2,-31,-22,7,-1,-7
15:16:52:275542,12,1,16,7,3,8,-15,0
15:16:52:276363,12,1,16,7,3,8,-15,0
15:16:52:282307,23,12,27,8,3,-14,-17,-1
15:16:52:289852,-28,-19,23,10,14,1,65,2
15:16:52:297370,-28,-19,23,10,14,1,65,2
15:16:52:304897,-15,-4,9,43,1,-15,10,-10
15:16:52:312358,-11,-2,-6,34,0,-2,-37,-3
15:16:52:320609,-11,-2,-6,34,0,-2,-37,-3
15:16:52:321386,22,-10,-10,-32,-48,-1,-18,3
15:16:52:335532,49,19,-5,9,55,23,3,2
15:16:52:336349,49,19,-5,9,55,23,3,2
15:16:52:342395,-24,24,17,-13,1,-17,-5,-4
15:16:52:349831,-27,-15,17,0,-13,-9,-6,-5
15:16:52:357456,-27,-15,17,0,-13,-9,-6,-5
15:16:52:364856,17,1,18,-14,-14,-6,-17,-3
15:16:52:372379,6,-2,-29,-9,4,-17,-31,-6
15:16:52:380533,6,-2,-29,-9,4,-17,-31,-6
15:16:52:381330,-49,10,9,9,13,8,5,-5
15:16:52:395556,-30,-32,-37,22,23,-20,-25,-9
15:16:52:396393,-30,-32,-37,22,23,-20,-25,-9
15:16:52:402357,-13,9,21,31,-7,-7,10,1
15:16:52:418063,6,19,24,-4,-25,-11,-8,-1
15:16:52:418906,6,19,24,-4,-25,-11,-8,-1
15:16:52:424899,13,-16,-5,-2,4,-14,-10,3
15:16:52:432316,16,2,11,13,47,31,85,65
15:16:52:439941,16,2,11,13,47,31,85,65
15:16:52:447322,-16,-9,-43,-19,-12,-12,-23,-3
15:16:52:455529,-7,8,0,-17,-23,-6,-29,-16
15:16:52:456357,-7,8,0,-17,-23,-6,-29,-16
15:16:52:462401,-3,-23,-30,-16,-3,9,9,-8
15:16:52:478069,-29,-29,-25,24,-8,-15,-16,-12
15:16:52:478823,-29,-29,-25,24,-8,-15,-16,-12
15:16:52:493117,2,6,-37,13,7,28,7,-2
15:16:52:493820,-2,2,12,-7,-34,-12,-4,-4
15:16:52:499869,-2,2,12,-7,-34,-12,-4,-4
15:16:52:507394,-31,-2,23,14,8,14,3,0
15:16:52:515504,-17,-10,1,-16,24,10,0,-8
15:16:52:516342,-17,-10,1,-16,24,10,0,-8
15:16:52:522323,-9,-4,44,-16,8,2,31,6
15:16:52:538138,22,11,0,-20,-4,-22,-31,-20
15:16:52:538887,22,11,0,-20,-4,-22,-31,-20
15:16:52:544841,4,13,27,33,-3,-20,32,12
15:16:52:552321,2,13,-4,14,-7,1,2,-13
15:16:52:559916,2,13,-4,14,-7,1,2,-13
15:16:52:567343,6,1,11,-17,-11,-16,-18,-1
15:16:52:583717,-3,8,-20,-41,0,5,3,-1
15:16:52:584570,-3,8,-20,-41,0,5,3,-1
15:16:52:585317,6,-8,9,23,20,1,-16,-5
15:16:52:598025,-6,-7,-23,5,-8,14,-13,1
15:16:52:598867,-6,-7,-23,5,-8,14,-13,1
15:16:52:604864,-8,-11,-62,-62,-17,-14,-7,-5
15:16:52:612354,-5,-6,16,-7,7,-17,17,-6
15:16:52:619895,-5,-6,16,-7,7,-17,17,-6
15:16:52:627411,-33,-17,-3,14,24,14,-7,-6
15:16:52:635477,1,5,26,0,3,3,10,8
15:16:52:636294,1,5,26,0,3,3,10,8
15:16:52:642344,19,20,-16,-25,-8,-8,-2,5
15:16:52:658118,7,-8,-7,2,-23,-1,-9,-3
15:16:52:658888,7,-8,-7,2,-23,-1,-9,-3
15:16:52:664843,16,13,25,17,-9,17,-4,0
15:16:52:672350,-38,-24,13,-19,-1,6,11,-4
15:16:52:679844,-38,-24,13,-19,-1,6,11,-4
15:16:52:687354,-20,-10,1,7,-21,-13,6,-8
15:16:52:695534,-29,15,10,20,47,2,13,4
15:16:52:696353,-29,15,10,20,47,2,13,4
15:16:52:702296,3,-10,1,2,3,-8,-35,-13
15:16:52:718056,12,1,16,-15,1,-4,-12,4
15:16:52:718802,12,1,16,-15,1,-4,-12,4
15:16:52:724871,-1,11,6,21,5,2,-24,6
15:16:52:732365,-9,-7,-4,-5,5,-3,-14,-3
15:16:52:739885,-9,-7,-4,-5,5,-3,-14,-3
15:16:52:747282,20,-4,-35,-34,3,9,7,-2
15:16:52:755521,20,15,4,-40,-31,-3,-1,2
15:16:52:756351,20,15,4,-40,-31,-3,-1,2
15:16:52:762322,10,-1,23,-3,17,-5,8,5
15:16:52:778042,19,2,-38,-11,-11,0,-3,-1
15:16:52:778833,19,2,-38,-11,-11,0,-3,-1
15:16:52:784794,7,1,10,7,-17,-5,2,2
15:16:52:792304,61,12,20,22,35,32,31,-7
15:16:52:799860,61,12,20,22,35,32,31,-7
15:16:52:807340,4,-10,-10,15,31,13,22,9
15:16:52:815551,4,-1,-29,15,4,-17,-39,-26
15:16:52:816344,4,-1,-29,15,4,-17,-39,-26
15:16:52:822359,7,27,14,-26,6,-6,-8,-1
15:16:52:838167,6,-14,-6,44,-1,-5,-14,2
15:16:52:838834,6,-14,-6,44,-1,-5,-14,2
15:16:52:844848,-24,-6,5,14,-25,-19,-29,-3
15:16:52:852313,-43,-14,-13,9,-7,18,18,19
15:16:52:859920,-43,-14,-13,9,-7,18,18,19
15:16:52:867346,0,-10,-38,-3,9,10,16,-11
15:16:52:883761,-1,-11,54,42,-11,-9,-15,-1
15:16:52:884556,-1,-11,54,42,-11,-9,-15,-1
15:16:52:885296,1,8,-53,-2,-9,6,1,-1
15:16:52:897758,1,-4,-7,-49,-24,-17,-11,0
15:16:52:905533,1,-4,-7,-49,-24,-17,-11,0
15:16:52:906338,-8,-24,14,7,-12,9,-3,3
15:16:52:912326,7,12,19,0,7,17,5,2
15:16:52:919885,7,12,19,0,7,17,5,2
15:16:52:927337,-14,-8,-19,-31,-6,-7,3,-7
15:16:52:935522,5,5,-14,2,-12,-18,17,4
15:16:52:936345,5,5,-14,2,-12,-18,17,4
15:16:52:942379,0,6,49,-10,-28,-9,12,0
15:16:52:958073,8,16,-28,-9,-13,18,47,8
15:16:52:958858,8,16,-28,-9,-13,18,47,8
15:16:52:964817,9,9,10,23,0,-5,-6,-7
15:16:52:972336,-24,-25,-21,-18,3,3,-3,-3
15:16:52:979894,-24,-25,-21,-18,3,3,-3,-3
15:16:52:987341,33,1,-17,0,32,27,63,10
15:16:52:995548,6,9,20,30,35,17,7,21
15:16:52:996358,6,9,20,30,35,17,7,21
15:16:53:2349,7,6,-44,-8,10,-12,16,18
15:16:53:18070,-3,-28,-45,-25,-15,-17,-27,-8
15:16:53:18881,-3,-28,-45,-25,-15,-17,-27,-8
15:16:53:24890,6,0,15,-23,-16,-1,-23,-5
15:16:53:32317,39,6,45,6,-18,-25,-8,-1
15:16:53:39924,39,6,45,6,-18,-25,-8,-1
15:16:53:47307,-21,-2,-28,4,27,18,-2,3
15:16:53:55537,9,1,22,33,2,-3,-16,-12
15:16:53:56320,9,1,22,33,2,-3,-16,-12
15:16:53:62362,-22,8,16,-29,-17,-14,-15,-10
15:16:53:78071,5,16,0,39,12,4,-2,2
15:16:53:78829,5,16,0,39,12,4,-2,2
15:16:53:84848,13,-5,21,11,2,-14,-35,-6
15:16:53:92380,-5,-5,31,-16,-25,-13,-32,4
15:16:53:99852,-5,-5,31,-16,-25,-13,-32,4
15:16:53:107376,-78,-26,58,47,3,17,-4,-9
15:16:53:115559,0,17,-20,11,4,1,-11,-10
15:16:53:116369,0,17,-20,11,4,1,-11,-10
15:16:53:122323,22,2,31,10,10,-13,-1,-1
15:16:53:138152,-31,0,-19,-19,33,-5,10,10
15:16:53:138820,-31,0,-19,-19,33,-5,10,10
15:16:53:144847,-24,4,-22,-12,-6,2,4,-3
15:16:53:160550,6,-21,-42,1,-18,-1,4,-7
15:16:53:161348,6,-21,-42,1,-18,-1,4,-7
15:16:53:167380,-8,-25,-18,-15,4,-2,-11,2
15:16:53:175966,-10,24,30,-22,-13,0,-11,-7
15:16:53:183021,-10,24,30,-22,-13,0,-11,-7
15:16:53:183830,30,20,-30,-20,-13,1,8,-4
15:16:53:198049,10,-8,26,-29,-7,-3,13,-3
15:16:53:198874,10,-8,26,-29,-7,-3,13,-3
15:16:53:204856,5,-3,-50,-14,-6,-4,7,-1
15:16:53:212372,5,-10,-24,-40,2,20,8,-2
15:16:53:219888,5,-10,-24,-40,2,20,8,-2
15:16:53:227367,-15,-6,-19,21,-9,5,0,11
15:16:53:235544,-15,-6,-19,21,-9,5,0,11
15:16:53:236317,-5,8,-13,12,0,17,44,9
15:16:53:242395,33,-8,-1,-4,-39,-15,-7,-10
15:16:53:258113,33,-8,-1,-4,-39,-15,-7,-10
15:16:53:258875,2,-2,25,-12,1,17,10,3
15:16:53:264821,10,11,12,-15,7,-1,-9,-1
15:16:53:280512,10,11,12,-15,7,-1,-9,-1
15:16:53:281354,-20,3,-28,-11,-4,-11,-26,-14
15:16:53:287349,5,3,11,3,-10,-6,-1,-1
15:16:53:295594,5,3,11,3,-10,-6,-1,-1
15:16:53:296368,-27,-15,-1,-7,-5,-8,-16,-5
15:16:53:302298,7,-1,16,1,8,8,60,12
15:16:53:318077,7,-1,16,1,8,8,60,12
15:16:53:318800,-8,9,55,1,-1,-10,-7,-8
15:16:53:324845,6,7,9,7,9,-2,-16,-4
15:16:53:340645,6,7,9,7,9,-2,-16,-4
15:16:53:341404,2,3,22,43,14,-1,8,3
15:16:53:347322,-6,-13,-19,-3,15,-2,-30,-5
15:16:53:355566,-6,-13,-19,-3,15,-2,-30,-5
15:16:53:356317,31,18,4,2,-1,-14,-10,-1
15:16:53:369839,-43,9,-5,-1,-13,-8,90,13
15:16:53:378091,-43,9,-5,-1,-13,-8,90,13
15:16:53:378827,27,-9,-36,-18,-6,12,31,10
15:16:53:384807,46,15,-2,-9,-13,-13,-47,-14
15:16:53:400600,46,15,-2,-9,-13,-13,-47,-14
15:16:53:401309,-13,-9,4,32,3,-7,-9,-5
15:16:53:407380,-2,-4,-16,-22,-1,0,-14,-7
15:16:53:415510,-2,-4,-16,-22,-1,0,-14,-7
15:16:53:416314,13,5,34,33,7,3,-17,4
15:16:53:438708,-3,2,29,12,19,10,-4,-2
15:16:53:439568,-3,2,29,12,19,10,-4,-2
15:16:53:440340,-17,9,-31,6,26,-3,-34,-13
15:16:53:444863,-31,-20,14,8,8,0,-5,0
15:16:53:460590,-31,-20,14,8,8,0,-5,0
15:16:53:461369,-20,8,-12,0,-13,-15,3,1
15:16:53:467348,9,-11,9,-1,-2,-11,-73,-28
15:16:53:475594,9,-11,9,-1,-2,-11,-73,-28
15:16:53:476415,8,-2,-2,-15,-26,-4,-4,-2
15:16:53:489818,-24,-7,-12,-59,-14,10,33,8
15:16:53:506177,-24,-7,-12,-59,-14,10,33,8
15:16:53:507040,-31,-9,5,-21,6,-9,-1,-8
15:16:53:507836,3,12,-3,14,-4,-6,-13,-4
15:16:53:520545,3,12,-3,14,-4,-6,-13,-4
15:16:53:521348,-7,-29,-11,-36,-20,5,10,0
15:16:53:527348,14,-1,-11,3,-17,-15,0,4
15:16:53:535488,14,-1,-11,3,-17,-15,0,4
15:16:53:536331,1,-3,-11,-3,29,15,23,-4
15:16:53:549851,-1,11,25,34,22,58,83,10
15:16:53:558124,-1,11,25,34,22,58,83,10
15:16:53:558833,-86,-34,2,-6,-4,13,75,9
15:16:53:564834,1,-2,8,-10,-6,-18,-43,-10
15:16:53:580479,1,-2,8,-10,-6,-18,-43,-10
15:16:53:581284,27,25,4,28,-3,-1,-22,3
15:16:53:587340,-29,-12,2,-13,-13,-6,-5,-1
15:16:53:595532,-29,-12,2,-13,-13,-6,-5,-1
15:16:53:596295,20,-2,-46,-11,6,-11,-29,-9
15:16:53:609857,49,15,-1,-12,20,2,-25,4
15:16:53:618037,49,15,-1,-12,20,2,-25,4
15:16:53:618810,21,10,5,2,-5,7,18,7
15:16:53:624920,1,-2,-31,-9,9,-8,10,3
15:16:53:640616,1,-2,-31,-9,9,-8,10,3
15:16:53:641375,-18,-8,20,-19,7,-3,-16,-3
15:16:53:647352,27,0,2,-10,9,-27,-23,0
15:16:53:655543,27,0,2,-10,9,-27,-23,0
15:16:53:656338,45,10,59,-6,-18,2,1,12
15:16:53:669833,15,-20,-33,31,-12,-7,-8,3
15:16:53:678102,15,-20,-33,31,-12,-7,-8,3
15:16:53:678869,-14,13,-1,16,-17,-20,-72,-33
15:16:53:684863,-30,-4,-17,15,8,8,75,18
15:16:53:700596,-30,-4,-17,15,8,8,75,18
15:16:53:701415,-4,3,-15,-3,-6,10,24,9
15:16:53:716206,24,17,18,11,1,-2,-51,-17
15:16:53:717077,24,17,18,11,1,-2,-51,-17
15:16:53:717839,-26,-24,-36,-3,8,-2,6,0
15:16:53:729804,8,-6,33,-2,-10,-10,-4,0
15:16:53:738139,8,-6,33,-2,-10,-10,-4,0
15:16:53:738900,8,20,14,42,10,3,-17,-8
15:16:53:744811,23,9,-4,-16,2,-2,-3,-3
15:16:53:760600,23,9,-4,-16,2,-2,-3,-3
15:16:53:761339,-14,-34,-36,14,-17,-4,10,1
15:16:53:767310,-40,1,-10,1,9,11,-11,-5
15:16:53:775557,-40,1,-10,1,9,11,-11,-5
15:16:53:776375,11,2,-40,-20,0,-12,-4,3
15:16:53:789853,-20,-12,-4,7,-20,2,12,-3
15:16:53:798051,-20,-12,-4,7,-20,2,12,-3
15:16:53:798814,-19,-4,3,8,11,-2,-25,-10
15:16:53:804828,-14,-16,-29,27,25,1,12,-2
15:16:53:820579,-14,-16,-29,27,25,1,12,-2
15:16:53:821335,14,7,9,-37,-17,3,-4,4
15:16:53:827357,-6,-1,22,13,-1,-7,-2,1
15:16:53:835508,-6,-1,22,13,-1,-7,-2,1
15:16:53:836325,22,-4,10,25,20,14,-8,0
15:16:53:849876,5,-3,-20,-11,-1,20,-15,8
15:16:53:858112,5,-3,-20,-11,-1,20,-15,8
15:16:53:858865,-4,-8,7,-12,-8,-9,-12,-15
15:16:53:864863,-10,10,41,2,-3,-5,-13,-1
15:16:53:880486,-10,10,41,2,-3,-5,-13,-1
15:16:53:881290,9,-2,-26,4,9,3,-13,-3
15:16:53:887423,13,5,6,-46,-27,-6,11,3
15:16:53:895565,13,5,6,-46,-27,-6,11,3
15:16:53:896339,1,18,-16,-15,21,3,1,3
15:16:53:909905,1,16,21,14,3,6,4,0
15:16:53:918035,1,16,21,14,3,6,4,0
15:16:53:918796,10,-14,-19,-3,-8,-16,-10,2
15:16:53:924861,60,22,-3,1,-5,48,87,22
15:16:53:940699,60,22,-3,1,-5,48,87,22
15:16:53:941442,-7,3,30,-11,-8,-16,11,-12
15:16:53:947388,-7,0,-19,8,-31,-37,-53,-19
15:16:53:955572,-7,0,-19,8,-31,-37,-53,-19
15:16:53:956322,1,22,37,4,31,15,0,3
15:16:53:969829,-32,-11,18,-4,2,-8,-8,-6
15:16:53:978106,-32,-11,18,-4,2,-8,-8,-6
15:16:53:978920,13,7,14,2,-12,-10,1,2
15:16:53:992407,-4,4,-17,-37,17,12,3,-4
15:16:54:607,-4,4,-17,-37,17,12,3,-4
15:16:54:1410,40,8,-5,-1,-28,-18,68,44
15:16:54:15970,21,-7,20,19,28,3,33,21
15:16:54:16787,21,-7,20,19,28,3,33,21
15:16:54:22320,12,3,-18,0,-5,-2,-37,-15
15:16:54:29863,-15,-9,22,14,-16,-17,-11,-11
15:16:54:38346,-15,-9,22,14,-16,-17,-11,-11
15:16:54:38867,-16,-14,15,-47,-23,12,14,0
15:16:54:44871,-9,-11,24,31,5,0,-22,-16
15:16:54:60606,-9,-11,24,31,5,0,-22,-16
15:16:54:61402,-24,0,-24,1,-7,-3,-9,-6
15:16:54:67331,7,5,-15,-17,0,-8,-22,-4
15:16:54:75599,7,5,-15,-17,0,-8,-22,-4
15:16:54:76361,-33,-23,-27,-19,-11,-13,-8,-5
15:16:54:98687,-14,-2,-17,19,7,6,3,5
15:16:54:99509,-14,-2,-17,19,7,6,3,5
15:16:54:100335,-23,1,20,29,38,-15,-4,-6
15:16:54:104806,-8,-20,-19,-11,7,4,75,20
15:16:54:120614,-8,-20,-19,-11,7,4,75,20
15:16:54:121362,53,18,19,13,3,1,-15,9
15:16:54:127352,-11,6,32,-13,-19,0,-26,-17
15:16:54:135537,-11,6,32,-13,-19,0,-26,-17
15:16:54:136341,22,10,25,19,-5,12,-10,5
15:16:54:149890,9,0,-34,-19,-15,-3,-30,-4
15:16:54:158110,9,0,-34,-19,-15,-3,-30,-4
15:16:54:158905,-44,-11,5,-7,0,5,-16,-17
15:16:54:164785,3,4,11,17,2,-8,-6,1
15:16:54:180528,3,4,11,17,2,-8,-6,1
15:16:54:181330,6,-1,-33,-34,-8,2,45,14
15:16:54:187359,-68,-3,-4,-19,-27,-20,0,-4
15:16:54:195623,-68,-3,-4,-19,-27,-20,0,-4
15:16:54:196345,-14,-11,-18,-40,-31,20,-7,-5
15:16:54:209906,16,4,-9,20,-1,1,-21,-3
15:16:54:218038,16,4,-9,20,-1,1,-21,-3
15:16:54:218809,1,-1,15,18,11,-3,8,3
15:16:54:224879,3,-18,-21,11,17,1,-6,-5
15:16:54:240319,3,-18,-21,11,17,1,-6,-5
15:16:54:248064,7,-2,-8,15,3,-1,38,9
15:16:54:248836,-12,-7,-3,-19,7,-1,-2,-4
15:16:54:255564,-12,-7,-3,-19,7,-1,-2,-4
15:16:54:256316,-4,7,25,5,-5,-2,-23,-12
15:16:54:270314,16,-12,-6,-12,-2,23,-9,-1
15:16:54:278074,16,-12,-6,-12,-2,23,-9,-1
15:16:54:278829,-4,-5,-27,0,17,15,0,1
15:16:54:292419,19,13,-19,-15,5,-25,-69,-22
15:16:54:300599,19,13,-19,-15,5,-25,-69,-22
15:16:54:301369,3,-10,-20,-4,8,-13,1,5
15:16:54:307380,-15,3,20,27,4,-3,-3,-10
15:16:54:314863,-15,3,20,27,4,-3,-3,-10
15:16:54:322375,-13,3,11,-36,-14,-15,0,-4
15:16:54:329853,-10,-1,-13,-4,15,6,0,5
15:16:54:338126,-10,-1,-13,-4,15,6,0,5
15:16:54:338896,10,-6,-48,-8,-3,6,45,9
15:16:54:352351,43,11,19,6,-6,5,21,16
15:16:54:360556,43,11,19,6,-6,5,21,16
15:16:54:361340,-13,3,-7,9,0,-9,4,-11
15:16:54:367378,-33,-20,-27,-24,-9,7,41,10
15:16:54:374909,-33,-20,-27,-24,-9,7,41,10
15:16:54:382337,19,19,3,22,13,-1,-36,-3
15:16:54:389804,-4,-13,-67,-30,-19,-7,-6,-6
15:16:54:398053,-4,-13,-67,-30,-19,-7,-6,-6
15:16:54:398871,29,-13,8,19,-10,28,13,3
15:16:54:412409,33,20,31,1,-3,2,-13,0
15:16:54:420546,33,20,31,1,-3,2,-13,0
15:16:54:421324,-11,-3,4,11,-2,9,-32,-17
15:16:54:427336,31,11,18,11,-9,-9,18,2
15:16:54:434871,31,11,18,11,-9,-9,18,2
15:16:54:442404,-28,1,1,13,5,-12,-19,-4
15:16:54:449788,-17,8,20,39,-7,-5,-11,-1
15:16:54:458119,-17,8,20,39,-7,-5,-11,-1
15:16:54:458938,-11,-15,-1,19,21,3,-4,-4
15:16:54:472380,9,-8,-10,-28,-8,-10,-15,0
15:16:54:480590,9,-8,-10,-28,-8,-10,-15,0
15:16:54:481389,10,2,-6,-12,-19,-21,-9,-5
15:16:54:487381,-4,-15,28,29,6,6,13,1
15:16:54:494918,-4,-15,28,29,6,6,13,1
15:16:54:502321,-5,-2,21,11,13,10,-56,-3
15:16:54:509887,-5,23,19,-18,45,2,8,2
15:16:54:518050,-5,23,19,-18,45,2,8,2
15:16:54:518865,58,10,-20,-16,13,-3,16,9
15:16:54:532356,-6,5,-6,-13,-29,-9,-6,-1
15:16:54:548750,-6,5,-6,-13,-29,-9,-6,-1
15:16:54:549523,-12,4,-4,-2,-9,-13,7,9
15:16:54:550286,-3,-7,-11,-12,17,16,7,1
15:16:54:554875,-3,-7,-11,-12,17,16,7,1
15:16:54:570483,-33,-4,-12,-20,-23,3,30,1
15:16:54:571283,-6,-14,1,-1,-9,-6,-33,-8
15:16:54:578064,-6,-14,1,-1,-9,-6,-33,-8
15:16:54:578833,-51,-12,52,18,0,14,87,-6
15:16:54:592866,6,-8,-46,21,4,-2,-4,-10
15:16:54:600553,6,-8,-46,21,4,-2,-4,-10
15:16:54:601338,3,9,-11,15,-24,-22,-28,-9
15:16:54:607382,26,11,-16,18,34,15,10,3
15:16:54:614868,26,11,-16,18,34,15,10,3
15:16:54:622305,-8,-5,14,-14,-7,-16,-12,0
15:16:54:629817,-17,-3,15,-14,-18,-17,-14,-5
15:16:54:638095,-17,-3,15,-14,-18,-17,-14,-5
15:16:54:638854,-2,-17,-46,-19,-6,2,-15,-5
15:16:54:652292,-16,-6,49,2,-4,-5,-20,-16
15:16:54:660548,-16,-6,49,2,-4,-5,-20,-16
15:16:54:661364,12,14,40,32,-2,0,73,11
15:16:54:667339,-38,-12,-5,13,-1,-4,10,-1
15:16:54:674903,-38,-12,-5,13,-1,-4,10,-1
15:16:54:682324,1,6,-24,-20,4,-4,-33,0
15:16:54:689801,-47,-10,37,-12,-18,12,-21,-14
15:16:54:698039,-47,-10,37,-12,-18,12,-21,-14
15:16:54:698897,11,-9,5,-4,-19,-11,-5,-2
15:16:54:712344,4,10,-2,3,1,23,12,6
15:16:54:720584,4,10,-2,3,1,23,12,6
15:16:54:721401,8,-1,1,14,20,10,-44,-5
15:16:54:727372,0,-16,-25,-17,-14,-32,44,1
15:16:54:734909,0,-16,-25,-17,-14,-32,44,1
15:16:54:742369,-24,-5,-3,-8,3,29,7,10
15:16:54:749836,-18,-13,9,-3,-7,-7,-17,-5
15:16:54:758194,-18,-13,9,-3,-7,-7,-17,-5
15:16:54:758795,-7,-7,-5,-21,2,-15,-24,-13
15:16:54:772345,28,12,-41,5,5,7,-2,5
15:16:54:780554,28,12,-41,5,5,7,-2,5
15:16:54:781367,-28,-21,-19,0,1,4,24,-1
15:16:54:787352,13,14,2,11,-8,-12,7,2
15:16:54:794879,13,14,2,11,-8,-12,7,2
15:16:54:802365,10,11,11,-21,41,29,-10,-6
15:16:54:809881,-19,-14,41,12,20,4,3,11
15:16:54:825591,-19,-14,41,12,20,4,3,11
15:16:54:826334,3,4,-30,-14,-14,-27,34,-11
15:16:54:832346,19,17,-17,-26,2,-7,-8,4
15:16:54:848788,19,17,-17,-26,2,-7,-8,4
15:16:54:849528,-37,-32,29,4,3,-18,-19,-5
15:16:54:850359,-2,-1,-16,-6,-4,-5,6,0
15:16:54:854957,-2,-1,-16,-6,-4,-5,6,0
15:16:54:862380,25,13,25,-10,1,-7,-12,-1
15:16:54:869830,-7,-18,-11,7,-15,-1,-11,-2
15:16:54:878080,-7,-18,-11,7,-15,-1,-11,-2
15:16:54:878853,-25,-3,7,11,-18,18,1,10
15:16:54:892361,60,9,9,-6,1,0,-11,5
15:16:54:900539,60,9,9,-6,1,0,-11,5
15:16:54:901310,-24,1,-45,10,-20,-19,1,-4
15:16:54:907371,5,12,5,17,23,2,-15,-8
15:16:54:914872,5,12,5,17,23,2,-15,-8
15:16:54:922373,29,11,-4,37,-1,6,-12,11
15:16:54:929859,-2,1,-47,-6,-13,-1,13,2
15:16:54:938115,-2,1,-47,-6,-13,-1,13,2
15:16:54:938826,23,9,-4,-12,2,11,0,-3
15:16:54:952340,-1,-17,34,-13,-2,-6,-18,-6
15:16:54:960566,-1,-17,34,-13,-2,-6,-18,-6
15:16:54:961332,-37,-14,2,-9,-18,-25,-40,-10
15:16:54:967396,18,20,-3,21,33,62,39,16
15:16:54:974917,18,20,-3,21,33,62,39,16
15:16:54:982301,-17,-19,43,21,5,8,-7,-15
15:16:54:989819,-16,-1,-32,-8,-18,-25,0,-4
15:16:54:998064,-16,-1,-32,-8,-18,-25,0,-4
15:16:54:998867,25,-2,2,9,7,-5,-5,0
15:16:55:12398,8,-19,-20,20,-8,-15,-11,-21
15:16:55:20561,8,-19,-20,20,-8,-15,-11,-21
15:16:55:21368,-25,-1,-33,-3,-18,-26,11,-12
15:16:55:27332,2,2,43,4,3,1,-2,-3
15:16:55:34918,2,2,43,4,3,1,-2,-3
15:16:55:42357,8,6,-6,2,33,3,-11,-1
15:16:55:49826,-65,-7,2,-9,-29,0,8,-5
15:16:55:58118,-65,-7,2,-9,-29,0,8,-5
15:16:55:58885,-32,-1,-40,-18,9,13,-9,-3
15:16:55:81184,-42,-7,-35,-18,9,25,-6,-9
15:16:55:82030,-42,-7,-35,-18,9,25,-6,-9
15:16:55:82812,6,0,36,-9,-21,-9,-16,-9
15:16:55:87322,25,10,20,52,0,-12,10,7
15:16:55:103065,25,10,20,52,0,-12,10,7
15:16:55:103790,41,10,-9,-7,3,8,59,16
15:16:55:109848,51,-9,14,-13,47,14,109,38
15:16:55:125541,51,-9,14,-13,47,14,109,38
15:16:55:126322,22,18,12,0,12,9,27,23
15:16:55:132312,-3,8,8,-21,-22,-27,-62,-22
15:16:55:141690,-3,8,8,-21,-22,-27,-62,-22
15:16:55:147958,4,7,40,-29,-3,-5,-8,-13
15:16:55:148775,27,4,0,-11,-8,1,-20,-1
15:16:55:154884,27,4,0,-11,-8,1,-20,-1
15:16:55:162319,21,5,0,14,-27,6,-17,-4
15:16:55:169817,-20,-9,13,-8,15,31,18,14
15:16:55:178070,-20,-9,13,-8,15,31,18,14
15:16:55:178866,1,-23,-31,-18,6,-4,-10,-3
15:16:55:192407,-10,1,6,-19,-19,-3,11,0
15:16:55:200558,-10,1,6,-19,-19,-3,11,0
15:16:55:201308,12,11,5,-10,-9,-4,-3,-2
15:16:55:207319,23,14,-6,63,-38,-23,-20,-9
15:16:55:214931,23,14,-6,63,-38,-23,-20,-9
15:16:55:222348,24,-4,-6,35,22,18,42,1
15:16:55:229824,-7,8,-21,-19,-5,-4,-20,6
15:16:55:238076,-7,8,-21,-19,-5,-4,-20,6
15:16:55:238853,-7,-8,-16,12,13,-32,2,19
15:16:55:252297,-21,-6,6,7,42,7,-18,-11
15:16:55:260570,-21,-6,6,7,42,7,-18,-11
15:16:55:261369,-8,-5,16,-11,-5,-5,-10,-4
15:16:55:275538,-25,13,-49,-45,-3,-21,-18,7
15:16:55:276363,-25,13,-49,-45,-3,-21,-18,7
15:16:55:282299,-7,-21,-12,-6,-13,6,-8,-12
15:16:55:289804,-14,10,17,9,-7,9,-4,-12
15:16:55:297406,-14,10,17,9,-7,9,-4,-12
15:16:55:304792,-14,16,14,-6,-34,-1,-16,1
15:16:55:313086,17,-7,-8,-55,-14,13,-16,-6
15:16:55:313884,17,-7,-8,-55,-14,13,-16,-6
15:16:55:319848,-8,-10,7,47,-4,-1,-16,-11
15:16:55:335598,7,7,46,17,24,-1,9,3
15:16:55:336388,7,7,46,17,24,-1,9,3
15:16:55:342410,-27,-9,-29,-34,-16,-1,-4,-3
15:16:55:358124,-10,-6,-10,25,0,-10,-8,-7
15:16:55:358925,-10,-6,-10,25,0,-10,-8,-7
15:16:55:364818,-7,-8,5,-9,-13,1,3,-2
15:16:55:381224,-44,-8,-7,3,-5,-14,-17,-8
15:16:55:382055,-44,-8,-7,3,-5,-14,-17,-8
15:16:55:382774,-15,4,-22,-17,72,37,16,21
15:16:55:403646,13,14,5,-23,-10,-3,18,6
15:16:55:404469,13,14,5,-23,-10,-3,18,6
15:16:55:405275,-2,-7,-63,-39,-35,-26,-14,-13
15:16:55:409864,40,7,23,13,-3,3,8,-2
15:16:55:417374,40,7,23,13,-3,3,8,-2
15:16:55:424920,21,0,-20,13,37,-10,-17,-4
15:16:55:433096,-27,-36,27,1,-36,-25,-15,0
15:16:55:433851,-27,-36,27,1,-36,-25,-15,0
15:16:55:439834,3,13,59,12,32,31,3,-4
