Time,EMG1,EMG2,EMG3,EMG4,EMG5,EMG6,EMG7,EMG8
17:55:14:300626,-19,-21,-2,-12,1,48,35,-4
17:55:14:308734,-19,-21,-2,-12,1,48,35,-4
17:55:14:309509,-9,-2,17,12,5,-23,4,6
17:55:14:315648,0,-9,10,-6,-15,38,65,8
17:55:14:331318,0,-9,10,-6,-15,38,65,8
17:55:14:332076,1,-9,1,3,6,1,-16,-7
17:55:14:338047,14,-2,-10,-8,2,21,13,3
17:55:14:353833,14,-2,-10,-8,2,21,13,3
17:55:14:354504,-9,-1,3,-3,-7,9,29,1
17:55:14:360521,-34,-24,-19,2,-5,-22,20,-9
17:55:14:368750,-34,-24,-19,2,-5,-22,20,-9
17:55:14:369579,8,12,10,-15,-8,-24,-8,1
17:55:14:375538,23,17,-4,6,-6,-16,-23,-1
17:55:14:391233,23,17,-4,6,-6,-16,-23,-1
17:55:14:391989,-12,-12,5,5,1,-1,26,-4
17:55:14:406909,5,-9,-5,-1,-6,-42,-55,-5
17:55:14:407647,5,-9,-5,-1,-6,-42,-55,-5
17:55:14:408465,1,-6,-14,3,5,-5,-99,-16
17:55:14:420557,1,1,3,-12,6,17,22,-3
17:55:14:428748,1,1,3,-12,6,17,22,-3
17:55:14:429599,-9,-4,4,-11,-10,5,45,2
17:55:14:435569,0,11,-7,9,-5,-3,25,6
17:55:14:443065,0,11,-7,9,-5,-3,25,6
17:55:14:450646,0,-10,-5,4,-21,23,47,-2
17:55:14:457978,-5,-5,-1,-7,-16,-7,-20,-3
17:55:14:466359,-5,-5,-1,-7,-16,-7,-20,-3
17:55:14:467070,18,-5,-4,11,9,-3,-29,3
17:55:14:480679,16,2,-10,3,-7,-6,27,0
17:55:14:488813,16,2,-10,3,-7,-6,27,0
17:55:14:489506,-10,7,6,-27,0,-9,1,2
17:55:14:495620,0,-2,-1,-6,4,-25,-100,-7
17:55:14:503115,0,-2,-1,-6,4,-25,-100,-7
17:55:14:510518,14,19,18,4,3,25,3,6
17:55:14:518139,-7,-5,2,-13,-6,0,17,0
17:55:14:526251,-7,-5,2,-13,-6,0,17,0
17:55:14:527039,1,-6,-14,11,8,-11,38,1
17:55:14:540570,-5,6,21,8,1,17,45,2
17:55:14:548873,-5,6,21,8,1,17,45,2
17:55:14:549512,8,0,-3,-26,-9,-5,12,3
17:55:14:555576,-4,1,-12,4,9,-22,-23,-5
17:55:14:563111,-4,1,-12,4,9,-22,-23,-5
17:55:14:570534,10,18,9,5,0,-5,-42,-4
17:55:14:578021,8,-12,-7,0,3,9,-7,-3
17:55:14:586284,8,-12,-7,0,3,9,-7,-3
17:55:14:587059,1,-7,1,8,-19,9,-9,3
17:55:14:600572,-4,-2,-4,15,0,-12,-45,-4
17:55:14:625115,-4,-2,-4,15,0,-12,-45,-4
17:55:14:625855,-2,-3,-4,-4,-2,1,-25,-2
17:55:14:626700,5,1,1,-9,-3,2,26,6
17:55:14:627495,5,1,1,-9,-3,2,26,6
17:55:14:630450,-9,-1,-9,17,1,-1,5,-1
17:55:14:638082,-15,-12,-12,20,22,22,-105,-11
17:55:14:646377,-15,-12,-12,20,22,22,-105,-11
17:55:14:647006,3,9,-2,2,1,7,-23,-6
17:55:14:677534,-22,-22,-3,-10,-7,5,-21,-4
17:55:14:678321,-22,-22,-3,-10,-7,5,-21,-4
17:55:14:679225,-1,-12,-12,-7,4,-14,-8,-4
17:55:14:679959,6,8,-3,-11,-10,0,59,5
17:55:14:683166,6,8,-3,-11,-10,0,59,5
17:55:14:690567,-9,-5,10,-12,-9,-10,31,-2
17:55:14:698045,-6,-8,-5,-5,-5,-26,-25,-4
17:55:14:706297,-6,-8,-5,-5,-5,-26,-25,-4
17:55:14:707076,-6,-4,-7,0,-14,-36,-40,-2
17:55:14:720552,-6,16,-2,4,6,18,5,-3
17:55:14:728772,-6,16,-2,4,6,18,5,-3
17:55:14:729674,-3,-4,2,4,0,10,1,1
17:55:14:743730,16,0,8,-8,-9,13,30,-4
17:55:14:744517,16,0,8,-8,-9,13,30,-4
17:55:14:750593,-4,-3,0,-19,-8,15,40,4
17:55:14:758000,14,11,1,-8,-2,0,4,4
17:55:14:766319,14,11,1,-8,-2,0,4,4
17:55:14:767063,0,-16,-5,6,-6,-1,-11,-4
17:55:14:789142,-29,-14,-1,-23,1,-2,28,0
17:55:14:789944,-29,-14,-1,-23,1,-2,28,0
17:55:14:804407,51,71,11,15,32,-9,27,8
17:55:14:805158,16,22,5,-2,-4,-6,11,15
17:55:14:805964,16,22,5,-2,-4,-6,11,15
17:55:14:810537,10,9,7,-8,1,-4,-34,-13
17:55:14:818183,0,-6,2,-5,3,2,-16,-2
17:55:14:826228,0,-6,2,-5,3,2,-16,-2
17:55:14:827006,-24,-26,-11,0,3,-3,0,-7
17:55:14:840611,-8,4,-3,-10,-5,2,21,0
17:55:14:848843,-8,4,-3,-10,-5,2,21,0
17:55:14:849513,0,-4,-1,4,13,-2,-24,3
17:55:14:863856,6,-4,-1,8,11,-13,32,5
17:55:14:864480,6,-4,-1,8,11,-13,32,5
17:55:14:870529,-15,-11,0,-2,-15,17,2,7
17:55:14:894200,1,-3,5,7,-13,2,12,0
17:55:14:894939,1,-3,5,7,-13,2,12,0
17:55:14:902078,-11,-19,-8,18,-8,-15,4,-6
17:55:14:902747,4,4,8,-8,-2,-1,-23,-3
17:55:14:903560,4,4,8,-8,-2,-1,-23,-3
17:55:14:908003,-7,0,14,-25,-1,8,40,-10
17:55:14:915650,10,10,-3,13,3,-6,-15,3
17:55:14:931337,10,10,-3,13,3,-6,-15,3
17:55:14:932039,-1,0,-4,1,-5,28,24,3
17:55:14:938708,-5,-4,4,-3,1,48,19,1
17:55:14:961895,-5,-4,4,-3,1,48,19,1
17:55:14:962648,-10,-9,1,-5,-2,-8,10,-5
17:55:14:963459,-4,-16,-6,3,0,-10,-47,-1
17:55:14:968832,-4,-16,-6,3,0,-10,-47,-1
17:55:14:969592,4,4,3,-1,-4,15,-10,1
17:55:14:983809,-4,-3,-10,1,4,-13,-29,-9
17:55:14:984485,-4,-3,-10,1,4,-13,-29,-9
17:55:14:990583,-10,-6,-13,0,1,-27,3,0
17:55:15:29833,3,4,3,1,3,5,-37,-6
17:55:15:30676,3,4,3,1,3,5,-37,-6
17:55:15:31473,-6,5,-9,9,17,1,-3,-12
17:55:15:37527,-8,-6,-7,3,-7,-12,-31,-4
17:55:15:38393,-8,-6,-7,3,-7,-12,-31,-4
17:55:15:39183,7,6,-3,1,-1,-13,-28,0
17:55:15:39952,-11,-6,-2,2,-14,-1,45,4
17:55:15:43055,-11,-6,-2,2,-14,-1,45,4
17:55:15:67623,-15,-4,-6,4,0,-16,-58,-11
17:55:15:68351,17,23,-19,13,15,-7,-23,-16
17:55:15:69139,17,23,-19,13,15,-7,-23,-16
17:55:15:69954,-16,-10,3,-17,-9,31,35,6
17:55:15:80590,-14,-16,7,7,3,36,104,17
17:55:15:88795,-14,-16,7,7,3,36,104,17
17:55:15:89576,12,-3,-9,-4,7,3,-8,0
17:55:15:95543,-2,-3,2,-2,8,64,9,-9
17:55:15:103230,-2,-3,2,-2,8,64,9,-9
17:55:15:118819,0,-2,2,-15,-22,0,-2,12
17:55:15:119558,-5,-4,-1,-3,-5,-48,-37,-8
17:55:15:126243,-5,-4,-1,-3,-5,-48,-37,-8
17:55:15:127035,1,-2,3,3,1,-10,-33,-3
17:55:15:141224,-2,0,-4,0,9,-18,3,-1
17:55:15:142045,-2,0,-4,0,9,-18,3,-1
17:55:15:148163,-10,-11,-7,-3,-14,-3,37,2
17:55:15:172163,-10,-10,0,-6,-7,-1,16,5
17:55:15:172653,-10,-10,0,-6,-7,-1,16,5
17:55:15:173452,4,2,0,18,7,-19,-50,8
17:55:15:178033,3,-2,-4,-8,-5,-13,-6,-1
17:55:15:193702,3,-2,-4,-8,-5,-13,-6,-1
17:55:15:194472,2,2,-5,-4,-6,-51,6,2
17:55:15:201250,7,10,-10,2,-8,-19,5,2
17:55:15:202010,7,10,-10,2,-8,-19,5,2
17:55:15:208002,9,-4,5,3,9,1,20,0
17:55:15:232023,-20,-6,12,-11,-9,-3,21,-2
17:55:15:232698,-20,-6,12,-11,-9,-3,21,-2
17:55:15:233498,17,13,3,6,-9,20,23,5
17:55:15:238158,2,-9,-5,-1,3,-22,-39,-8
17:55:15:245548,2,-9,-5,-1,3,-22,-39,-8
17:55:15:253131,-11,-7,2,-11,4,13,20,-3
17:55:15:261179,1,1,1,2,3,-6,-48,-5
17:55:15:262001,1,1,1,2,3,-6,-48,-5
17:55:15:268030,-4,-5,-9,0,5,-4,-14,-7
17:55:15:284205,5,1,-2,5,7,2,-9,2
17:55:15:284991,5,1,-2,5,7,2,-9,2
17:55:15:290514,-13,-9,0,-27,-10,11,-1,-8
17:55:15:298153,-10,-9,-13,3,12,-7,-59,-13
17:55:15:305669,-10,-9,-13,3,12,-7,-59,-13
17:55:15:313057,4,4,-2,5,12,3,-41,-5
17:55:15:321255,7,3,4,-9,-15,11,35,4
17:55:15:322145,7,3,4,-9,-15,11,35,4
17:55:15:328042,-13,-8,-2,0,5,7,47,-6
17:55:15:344590,10,2,-3,4,-4,3,5,-4
17:55:15:351367,10,2,-3,4,-4,3,5,-4
17:55:15:352090,2,1,2,2,-7,1,-80,-9
17:55:15:357949,-3,9,0,-10,-2,-26,-16,-7
17:55:15:365688,-3,9,0,-10,-2,-26,-16,-7
17:55:15:373061,1,-3,-8,14,13,-6,14,-3
17:55:15:381408,5,5,1,1,-6,14,-3,3
17:55:15:382044,5,5,1,1,-6,14,-3,3
17:55:15:395592,1,5,2,3,-1,-11,11,8
17:55:15:403815,3,-5,8,0,-2,2,6,10
17:55:15:404563,3,-5,8,0,-2,2,6,10
17:55:15:410496,1,-4,-3,11,-8,-1,3,-2
17:55:15:426221,-17,-13,3,-15,3,-4,9,-2
17:55:15:427022,-17,-13,3,-15,3,-4,9,-2
17:55:15:433067,-14,-11,-10,5,6,6,5,-6
17:55:15:456939,16,15,-3,-3,-7,9,13,5
17:55:15:457691,16,15,-3,-3,-7,9,13,5
17:55:15:458491,6,3,4,-2,-1,-3,5,5
17:55:15:463763,3,-10,-7,15,-7,-7,36,1
17:55:15:464546,3,-10,-7,15,-7,-7,36,1
17:55:15:470559,5,1,-2,5,-10,-26,40,2
17:55:15:478083,0,0,-1,13,-3,7,23,-1
17:55:15:485670,0,0,-1,13,-3,7,23,-1
17:55:15:493049,-2,-3,-1,-12,-5,14,20,-3
17:55:15:509375,-2,2,-1,-5,-1,-17,-26,-1
17:55:15:510157,-2,2,-1,-5,-1,-17,-26,-1
17:55:15:510957,-20,-11,3,-9,-3,-16,10,-6
17:55:15:523768,-9,-7,1,-16,7,8,-3,-7
17:55:15:524537,-9,-7,1,-16,7,8,-3,-7
17:55:15:538711,3,2,1,-8,-7,-2,-10,0
17:55:15:539485,-2,0,-1,1,-8,-32,-8,2
17:55:15:545602,-2,0,-1,1,-8,-32,-8,2
17:55:15:561909,7,3,-2,-1,-4,-9,-16,2
17:55:15:562675,10,11,10,-5,16,32,-3,2
17:55:15:563543,10,11,10,-5,16,32,-3,2
17:55:15:568157,-6,-8,6,-18,-11,23,5,8
17:55:15:591857,-13,-9,0,5,-10,0,-7,-10
17:55:15:592644,-13,-9,0,5,-10,0,-7,-10
17:55:15:593473,-1,3,-7,1,14,-22,-52,-8
17:55:15:598202,-4,-6,-7,10,1,-1,-17,-2
17:55:15:613548,-4,-6,-7,10,1,-1,-17,-2
17:55:15:621893,-1,0,-2,3,7,0,4,-1
17:55:15:622678,-2,0,1,-7,-3,3,-1,3
17:55:15:623532,-2,0,1,-7,-3,3,-1,3
17:55:15:628056,-5,-7,7,-11,-5,47,3,9
17:55:15:643717,-6,-2,0,7,1,-8,-17,-2
17:55:15:644562,-6,-2,0,7,1,-8,-17,-2
17:55:15:650651,1,1,2,-10,1,-14,-38,-4
17:55:15:658001,-3,-4,-5,-8,-1,-9,-20,-5
17:55:15:673811,-3,-4,-5,-8,-1,-9,-20,-5
17:55:15:674536,6,5,1,-5,-1,3,17,1
17:55:15:681360,4,2,-5,-5,-4,-12,-5,10
17:55:15:682093,4,2,-5,-5,-4,-12,-5,10
17:55:15:688097,-3,8,0,6,-5,1,0,-6
17:55:15:710963,8,0,0,-2,4,20,34,1
17:55:15:727599,8,0,0,-2,4,20,34,1
17:55:15:728414,9,3,-2,10,-5,-19,-26,-4
17:55:15:729184,-2,6,2,1,-15,-1,-12,-3
17:55:15:730030,-2,6,2,1,-15,-1,-12,-3
17:55:15:733165,-3,-9,-15,12,-1,-24,-5,-1
17:55:15:741183,-5,-9,-3,-4,0,-31,37,1
17:55:15:742038,-5,-9,-3,-4,0,-31,37,1
17:55:15:748132,2,3,-1,-14,2,8,45,5
17:55:15:764354,7,3,5,-6,-1,10,23,4
17:55:15:765021,7,3,5,-6,-1,10,23,4
17:55:15:770485,-3,1,1,-5,0,5,-17,-1
17:55:15:786335,-3,0,-4,1,-1,11,-21,-6
17:55:15:787130,-3,0,-4,1,-1,11,-21,-6
17:55:15:793070,-8,-9,-12,1,6,7,56,-3
17:55:15:801373,5,8,-2,-1,3,6,-12,0
17:55:15:802080,5,8,-2,-1,3,6,-12,0
17:55:15:808001,2,1,4,1,-7,-2,27,2
17:55:15:824665,2,-2,-2,-18,-9,-20,-12,0
17:55:15:825464,2,-2,-2,-18,-9,-20,-12,0
17:55:15:838722,1,3,-1,-7,-8,-12,-66,-2
17:55:15:839518,-3,-3,-3,-1,-5,-2,10,1
17:55:15:845585,-3,-3,-3,-1,-5,-2,10,1
17:55:15:853104,3,-2,1,2,-7,-6,39,-2
17:55:15:876877,4,4,-2,-2,3,13,-21,-2
17:55:15:877674,4,4,-2,-2,3,13,-21,-2
17:55:15:878514,0,4,1,-1,7,7,33,-1
17:55:15:891879,5,2,3,5,-4,10,11,4
17:55:15:892671,5,2,3,5,-4,10,11,4
17:55:15:893488,-9,-2,2,-13,-4,7,-30,-5
17:55:15:898015,-1,0,-1,-3,-1,9,9,-1
17:55:15:905616,-1,0,-1,-3,-1,9,9,-1
17:55:15:913023,-11,-2,-5,7,-1,6,7,-1
17:55:15:921368,-5,-7,4,-5,2,-8,7,1
17:55:15:922029,-5,-7,4,-5,2,-8,7,1
17:55:15:928034,-1,-2,-4,0,-3,-19,-56,-6
17:55:15:951921,-8,-4,-2,2,-1,10,6,-6
17:55:15:952717,-8,-4,-2,2,-1,10,6,-6
17:55:15:953510,-3,-4,-4,1,-7,-16,2,-7
17:55:15:957997,0,-1,1,-8,1,4,-14,0
17:55:15:965684,0,-1,1,-8,1,4,-14,0
17:55:16:5529,7,1,0,3,-5,11,-5,-2
17:55:16:6293,12,4,-1,9,-6,-14,36,2
17:55:16:7143,12,4,-1,9,-6,-14,36,2
17:55:16:7910,7,0,3,-2,-5,-11,8,4
17:55:16:11895,-1,-2,0,-7,-2,-16,-25,1
17:55:16:12700,-1,-2,0,-7,-2,-16,-25,1
17:55:16:13473,11,5,1,1,4,10,-7,1
17:55:16:25954,3,0,-6,7,3,3,-15,-4
17:55:16:33779,3,0,-6,7,3,3,-15,-4
17:55:16:34497,-5,-4,3,1,0,-3,0,2
17:55:16:41153,-8,-9,-8,-18,-8,-15,4,0
17:55:16:42018,-8,-9,-8,-18,-8,-15,4,0
17:55:16:64464,3,3,2,-7,0,0,11,3
17:55:16:65193,2,5,0,9,3,3,-61,-1
17:55:16:65984,2,5,0,9,3,3,-61,-1
17:55:16:70486,1,-2,-1,-7,2,10,17,-1
17:55:16:94374,1,-2,-1,-7,2,10,17,-1
17:55:16:95144,-9,-7,0,2,1,13,1,-2
17:55:16:95951,-3,-3,-5,5,2,11,17,-7
17:55:16:117009,-3,-3,-5,5,2,11,17,-7
17:55:16:117777,-2,-2,-7,-2,7,-1,13,0
17:55:16:118520,-1,-4,2,-10,6,14,2,-2
17:55:16:123786,-1,-4,2,-10,6,14,2,-2
17:55:16:124572,-2,1,-1,-1,6,6,4,1
17:55:16:130662,-7,0,-7,-6,-8,7,-47,-2
17:55:16:146471,-7,0,-7,-6,-8,7,-47,-2
17:55:16:147107,-5,2,4,-7,-11,-8,-17,-4
17:55:16:153141,-9,-3,-2,6,2,6,8,-1
17:55:16:176048,-9,-3,-2,6,2,6,8,-1
17:55:16:185164,-12,-12,-1,-9,-2,-1,21,0
17:55:16:185905,6,10,4,-10,0,-13,6,2
17:55:16:186680,6,10,4,-10,0,-13,6,2
17:55:16:187515,-3,-5,0,8,-2,-19,-10,-3
17:55:16:190559,4,-5,-1,-2,-6,-17,-3,3
17:55:16:206322,4,-5,-1,-2,-6,-17,-3,3
17:55:16:207114,1,-1,-5,2,-14,-9,-48,-9
17:55:16:213084,5,-2,-2,2,-5,-4,-2,2
17:55:16:228764,5,-2,-2,2,-5,-4,-2,2
17:55:16:229505,-1,1,-2,0,-3,2,5,0
17:55:16:235609,-6,-3,-5,3,3,-21,3,-4
17:55:16:259403,-6,-3,-5,3,3,-21,3,-4
17:55:16:260173,4,1,1,-1,-2,11,45,1
17:55:16:260992,-2,-2,1,4,-4,1,-1,2
17:55:16:266289,-2,-2,1,4,-4,1,-1,2
17:55:16:267067,2,-3,1,3,3,5,3,-2
17:55:16:282543,2,0,-2,-2,-3,3,0,1
17:55:16:283345,2,0,-2,-2,-3,3,0,1
17:55:16:284167,2,1,-2,0,5,0,6,2
17:55:16:295532,-1,-3,1,2,0,2,-3,0
17:55:16:304576,-1,-3,1,2,0,2,-3,0
17:55:16:305342,2,-1,-3,2,-1,-1,10,1
17:55:16:310493,-1,2,3,-9,1,4,-8,0
17:55:16:335103,-1,2,3,-9,1,4,-8,0
17:55:16:335805,-5,-4,1,-7,-2,0,8,-2
17:55:16:336629,-1,-2,0,1,-1,-2,-5,-3
17:55:16:340544,-1,-2,0,1,-1,-2,-5,-3
17:55:16:348191,-4,0,-6,5,4,-4,-72,-8
17:55:16:355575,-1,-1,-3,5,1,-2,5,-2
17:55:16:363771,-1,-1,-3,5,1,-2,5,-2
17:55:16:364520,-3,0,-1,-2,-1,1,11,-1
17:55:16:370573,-3,0,3,-4,-1,-2,-11,-5
17:55:16:394445,-3,0,3,-4,-1,-2,-11,-5
17:55:16:395194,-1,-1,0,-4,-4,-2,13,0
17:55:16:396004,-1,-2,-4,-10,-1,3,6,-2
17:55:16:400727,-1,-2,-4,-10,-1,3,6,-2
17:55:16:408023,1,-1,-3,-5,-4,4,2,0
17:55:16:424429,-1,-1,-5,3,-1,0,3,-3
17:55:16:425194,-1,-1,-5,3,-1,0,3,-3
17:55:16:425985,-1,-1,-2,-13,0,0,-4,-1
17:55:16:430599,-1,-1,-5,0,-4,-1,5,0
17:55:16:446718,-1,-1,-5,0,-4,-1,5,0
17:55:16:447536,0,-1,-2,6,-2,1,13,1
17:55:16:453076,-1,-1,0,2,-3,0,-21,-2
17:55:16:461275,-1,-1,0,2,-3,0,-21,-2
17:55:16:462012,1,0,1,-1,-1,-1,4,-1
17:55:16:475984,-2,-2,-4,6,-2,-1,-1,2
17:55:16:483859,-2,-2,-4,6,-2,-1,-1,2
17:55:16:484556,0,-1,0,3,-8,-3,2,-4
17:55:16:490525,-3,-1,-3,-2,2,-4,0,-1
17:55:16:506282,-3,-1,-3,-2,2,-4,0,-1
17:55:16:507048,-1,-1,2,-4,0,-2,8,1
17:55:16:513022,0,0,1,-3,4,1,1,-3
17:55:16:521265,0,0,1,-3,4,1,1,-3
17:55:16:522089,-1,-1,3,2,-1,-1,-1,0
17:55:16:552368,-1,-2,1,-1,-1,-2,1,1
17:55:16:553110,-1,-2,1,-1,-1,-2,1,1
17:55:16:553915,-1,-2,-2,0,0,-1,0,0
17:55:16:557971,-2,-4,-2,-2,-4,1,4,1
17:55:16:566358,-2,-4,-2,-2,-4,1,4,1
17:55:16:567058,-1,0,-2,7,-3,-2,1,1
17:55:16:573064,1,0,1,-1,-4,-3,0,-1
17:55:16:588769,1,0,1,-1,-4,-3,0,-1
17:55:16:589570,-2,-2,0,-3,-1,-1,0,1
17:55:16:595493,-4,0,0,-3,-4,-2,-3,-1
17:55:16:612391,-4,0,0,-3,-4,-2,-3,-1
17:55:16:613134,-2,-1,-1,-9,0,0,0,-1
17:55:16:618161,-1,-2,-3,1,4,0,0,-2
17:55:16:626221,-1,-2,-3,1,4,0,0,-2
17:55:16:627023,1,-2,-2,-2,2,-2,1,-2
17:55:16:641901,-1,0,1,-4,-4,-1,1,-1
17:55:16:642680,-1,0,1,-4,-4,-1,1,-1
17:55:16:643482,-2,1,7,-3,-1,-1,-1,0
17:55:16:655604,2,0,-4,-2,-5,1,1,-1
17:55:16:663753,2,0,-4,-2,-5,1,1,-1
17:55:16:664500,-1,-2,-6,-6,3,-2,0,-2
17:55:16:670625,0,5,4,-4,-3,3,0,-1
17:55:16:694440,0,5,4,-4,-3,3,0,-1
17:55:16:695176,-1,-2,-4,2,-5,3,1,1
17:55:16:696038,-2,-2,1,-4,3,1,0,2
17:55:16:701331,-2,-2,1,-4,3,1,0,2
17:55:16:702087,2,1,1,1,6,0,-1,-5
17:55:16:715639,-2,-5,-3,-1,-3,-3,-4,-1
17:55:16:723793,-2,-5,-3,-1,-3,-3,-4,-1
17:55:16:724547,-3,-2,-4,-5,-2,-3,-1,-1
17:55:16:730653,1,-1,3,3,5,-2,-1,-4
17:55:16:746423,1,-1,3,3,5,-2,-1,-4
17:55:16:747055,-2,-4,-4,-2,0,0,-1,-3
17:55:16:753061,0,-4,-4,-1,8,1,0,0
17:55:16:761269,0,-4,-4,-1,8,1,0,0
17:55:16:762069,-2,0,1,1,2,1,-3,1
17:55:16:775533,-4,-3,-6,-7,-9,-3,-3,-3
17:55:16:783879,-4,-3,-6,-7,-9,-3,-3,-3
17:55:16:784546,0,2,-1,1,-1,0,1,-1
17:55:16:790553,0,-1,-1,-1,-1,0,0,-1
17:55:16:806286,0,-1,-1,-1,-1,0,0,-1
17:55:16:807047,3,1,0,-7,-12,-1,0,-1
17:55:16:813018,0,-2,-3,-2,2,2,-2,-1
17:55:16:821330,0,-2,-3,-2,2,2,-2,-1
17:55:16:822079,-2,0,5,-4,-7,1,-1,0
17:55:16:844372,-3,-2,-3,-3,-4,-5,-1,0
17:55:16:845174,-3,-2,-3,-3,-4,-5,-1,0
17:55:16:846043,-2,-3,-3,2,2,1,-1,-1
17:55:16:850664,1,0,-4,4,-3,0,0,-1
17:55:16:866359,1,0,-4,4,-3,0,0,-1
17:55:16:867115,0,-1,0,-2,-11,-5,-3,-2
17:55:16:873129,-2,-3,-2,-1,4,0,1,-1
17:55:16:881405,-2,-3,-2,-1,4,0,1,-1
17:55:16:882012,-2,-5,-3,-4,-5,-2,-3,0
17:55:16:895525,5,1,2,3,1,0,-3,-1
17:55:16:911954,5,1,2,3,1,0,-3,-1
17:55:16:912766,-1,8,5,-2,9,2,0,-1
17:55:16:913596,-3,-8,-7,-11,-10,-2,-4,-4
17:55:16:926255,-3,-8,-7,-11,-10,-2,-4,-4
17:55:16:927029,-1,-1,-1,6,11,1,9,1
17:55:16:933121,-2,-2,0,-6,-12,-1,-1,-2
17:55:16:941249,-2,-2,0,-6,-12,-1,-1,-2
17:55:16:942045,-4,-6,-7,-6,1,0,2,1
17:55:16:955553,-3,-2,-4,-3,-11,-1,0,2
17:55:16:963855,-3,-2,-4,-3,-11,-1,0,2
17:55:16:964591,0,-4,3,8,16,-1,-5,-1
17:55:16:970567,-12,-4,-3,-15,-11,-8,-8,-2
17:55:16:986289,-12,-4,-3,-15,-11,-8,-8,-2
17:55:16:987076,10,21,2,7,7,0,-2,0
17:55:16:993013,-2,0,-2,-1,-2,-4,11,-3
17:55:17:8757,-2,0,-2,-1,-2,-4,11,-3
17:55:17:9503,-4,-12,-7,-11,-22,-7,-7,-5
17:55:17:15558,2,11,10,9,4,3,1,2
17:55:17:23800,2,11,10,9,4,3,1,2
17:55:17:24555,-1,-5,1,-1,3,4,-1,2
17:55:17:38090,-8,-10,-2,3,-12,0,4,5
17:55:17:62564,-8,-10,-2,3,-12,0,4,5
17:55:17:63365,0,-4,-11,-8,-9,-8,-4,1
17:55:17:64192,-3,-8,2,-10,5,1,-1,6
17:55:17:65023,-3,-8,2,-10,5,1,-1,6
17:55:17:76157,-5,0,-1,8,2,4,1,-4
17:55:17:76951,4,-1,1,7,16,-3,-4,-4
17:55:17:83851,4,-1,1,7,16,-3,-4,-4
17:55:17:84579,3,-2,-3,-9,-4,0,-2,0
17:55:17:98196,-2,-6,-5,-4,-4,-3,-3,-3
17:55:17:113679,-2,-6,-5,-4,-4,-3,-3,-3
17:55:17:122526,-4,6,1,-2,10,-3,0,-2
17:55:17:123450,-1,5,4,-2,0,0,-4,-3
17:55:17:124121,-1,5,4,-2,0,0,-4,-3
17:55:17:128008,-4,-3,1,-1,-6,-1,0,1
17:55:17:135504,6,11,-2,0,5,0,-4,0
17:55:17:143734,6,11,-2,0,5,0,-4,0
17:55:17:144487,-9,-14,-10,-11,-12,-4,-5,-5
17:55:17:158045,7,10,6,4,12,4,1,-2
17:55:17:174441,7,10,6,4,12,4,1,-2
17:55:17:175140,-6,-9,-4,-3,-3,-2,-2,-4
17:55:17:175938,0,-4,-4,-6,-5,0,-2,-5
17:55:17:180713,0,-4,-4,-6,-5,0,-2,-5
17:55:17:188029,-4,0,5,1,-2,-2,1,-2
17:55:17:195489,-5,-2,-2,3,8,3,-1,2
17:55:17:203808,-5,-2,-2,3,8,3,-1,2
17:55:17:204483,4,3,2,-2,-1,1,2,3
17:55:17:218197,-3,-6,-1,1,-7,-5,-1,2
17:55:17:226201,-3,-6,-1,1,-7,-5,-1,2
17:55:17:226963,3,8,7,3,0,2,2,0
17:55:17:241185,2,2,-2,-2,2,1,-1,-1
17:55:17:241968,2,2,-2,-2,2,1,-1,-1
17:55:17:248146,3,-4,-9,-11,-7,0,-3,-2
17:55:17:255585,-2,0,0,3,3,1,1,-1
17:55:17:263812,-2,0,0,3,3,1,1,-1
17:55:17:264547,-2,-6,0,5,8,2,-1,-2
17:55:17:278064,4,3,2,-4,11,1,1,3
17:55:17:286243,4,3,2,-4,11,1,1,3
17:55:17:287035,3,-3,-3,4,5,-2,0,-2
17:55:17:293035,-5,-7,-8,0,-4,-6,-6,-4
17:55:17:300625,-5,-7,-8,0,-4,-6,-6,-4
17:55:17:307980,-1,2,2,-12,-1,0,3,1
17:55:17:315609,-1,-2,-6,-5,-8,-5,-2,-1
17:55:17:323782,-1,-2,-6,-5,-8,-5,-2,-1
17:55:17:324514,-5,-4,-6,2,2,-1,-2,-1
17:55:17:338065,0,-1,5,1,-2,0,-2,-3
17:55:17:346368,0,-1,5,1,-2,0,-2,-3
17:55:17:347026,-1,-2,-5,-1,-14,-6,-4,-4
17:55:17:353004,-1,-3,1,6,-2,-2,0,-1
17:55:17:360597,-1,-3,1,6,-2,-2,0,-1
17:55:17:368122,-2,-4,-3,3,-8,0,-3,-4
17:55:17:375538,-6,1,-5,-7,-8,0,-2,-3
17:55:17:383863,-6,1,-5,-7,-8,0,-2,-3
17:55:17:384551,0,-2,-3,5,5,-2,-1,1
17:55:17:398170,3,1,1,0,3,2,1,-1
17:55:17:406307,3,1,1,0,3,2,1,-1
17:55:17:407089,4,5,1,0,1,2,3,3
17:55:17:413140,-2,0,-1,-3,1,-3,0,-2
17:55:17:420579,-2,0,-1,-3,1,-3,0,-2
17:55:17:428020,-4,-2,1,-4,-7,-3,-1,-1
17:55:17:435592,-13,-14,-11,4,2,0,0,-1
17:55:17:443727,-13,-14,-11,4,2,0,0,-1
17:55:17:444525,-16,-4,14,-1,11,2,-3,-1
17:55:17:458010,1,0,-8,-5,-11,-10,-6,-5
17:55:17:466403,1,0,-8,-5,-11,-10,-6,-5
17:55:17:467115,-13,-14,-1,3,5,0,2,-1
17:55:17:473038,-4,-8,-1,-3,-5,1,7,1
17:55:17:480718,-4,-8,-1,-3,-5,1,7,1
17:55:17:488118,-1,-3,-7,-6,-4,0,-6,-2
17:55:17:495554,10,20,0,6,4,-1,2,0
17:55:17:503781,10,20,0,6,4,-1,2,0
17:55:17:504534,15,11,-2,-3,-7,-3,-6,0
17:55:17:527405,-4,-8,0,-3,-3,-1,-5,-1
17:55:17:528148,-4,-8,0,-3,-3,-1,-5,-1
17:55:17:528938,6,7,8,-2,0,1,1,0
17:55:17:533130,-4,-6,5,-17,-6,4,0,-2
17:55:17:540657,-4,-6,5,-17,-6,4,0,-2
17:55:17:548004,4,-1,-6,1,5,-3,3,-2
17:55:17:555598,3,5,1,6,5,5,-4,3
17:55:17:563830,3,5,1,6,5,5,-4,3
17:55:17:564559,-2,-4,-9,0,-3,-4,-4,0
17:55:17:578016,-5,-4,-4,-9,4,-2,-4,-4
17:55:17:586278,-5,-4,-4,-9,4,-2,-4,-4
17:55:17:587094,-6,2,0,2,-4,0,6,0
17:55:17:593013,-3,-11,-3,-4,4,-5,0,-4
17:55:17:600722,-3,-11,-3,-4,4,-5,0,-4
17:55:17:608044,-1,2,1,-1,-1,1,4,-3
17:55:17:615660,6,3,3,1,0,0,3,1
17:55:17:623752,6,3,3,1,0,0,3,1
17:55:17:624505,0,-5,-8,-16,-9,-1,-5,-1
17:55:17:638517,-7,-4,-3,2,-5,-2,-3,-1
17:55:17:646276,-7,-4,-3,2,-5,-2,-3,-1
17:55:17:647092,-1,4,8,6,5,3,-2,-1
17:55:17:653102,2,9,1,2,0,2,3,2
17:55:17:660550,2,9,1,2,0,2,3,2
17:55:17:668153,-1,-4,-10,1,0,-2,1,0
17:55:17:675530,6,7,4,2,-6,-1,2,0
17:55:17:691263,6,7,4,2,-6,-1,2,0
17:55:17:692034,-4,-6,-1,-5,-1,-2,0,-4
17:55:17:698138,-3,-2,-2,-2,-2,-2,-2,0
17:55:17:706266,-3,-2,-2,-2,-2,-2,-2,0
17:55:17:707067,1,7,3,0,-4,0,-1,3
17:55:17:713097,-5,-7,-7,-5,-3,-4,-6,-5
17:55:17:720631,-5,-7,-7,-5,-3,-4,-6,-5
17:55:17:727998,-5,-7,1,-1,0,0,-4,-4
17:55:17:744396,1,5,7,0,1,-1,0,0
17:55:17:745185,1,5,7,0,1,-1,0,0
17:55:17:745982,-1,-4,-9,0,-5,1,-1,2
17:55:17:758011,-1,-3,3,-6,0,0,-2,0
17:55:17:766177,-1,-3,3,-6,0,0,-2,0
17:55:17:773723,3,4,1,0,1,-3,1,-1
17:55:17:774571,4,-3,-4,2,-1,-1,3,1
17:55:17:780705,4,-3,-4,2,-1,-1,3,1
17:55:17:788077,-1,-2,0,-4,-5,-5,-14,-3
17:55:17:804421,-2,-1,-2,-3,-4,0,0,-3
17:55:17:805180,-2,-1,-2,-3,-4,0,0,-3
17:55:17:806004,0,0,0,-1,3,0,-3,-2
17:55:17:818156,0,-3,-2,-1,-8,-2,-3,2
17:55:17:826264,0,-3,-2,-1,-8,-2,-3,2
17:55:17:827031,0,5,0,-1,-5,-2,2,-2
17:55:17:833105,-3,-6,-7,1,-5,1,1,3
17:55:17:840621,-3,-6,-7,1,-5,1,1,3
17:55:17:856186,-4,-2,4,3,-1,1,0,-1
17:55:17:856982,-1,-2,-4,0,1,-1,-1,-3
17:55:17:863902,-1,-2,-4,0,1,-1,-1,-3
17:55:17:864574,0,1,2,3,5,1,-33,5
17:55:17:877987,7,4,3,4,8,2,-3,11
17:55:17:886339,7,4,3,4,8,2,-3,11
17:55:17:887119,1,-8,-4,-2,4,-2,14,-3
17:55:17:893002,2,-10,-4,-4,-2,-1,-9,-6
17:55:17:908702,2,-10,-4,-4,-2,-1,-9,-6
17:55:17:909504,-2,-4,-4,-7,-12,-3,13,-1
17:55:17:915496,-7,-6,2,-5,-3,-4,14,-8
17:55:17:923737,-7,-6,2,-5,-3,-4,14,-8
17:55:17:924506,2,10,14,-4,4,3,3,-1
17:55:17:937989,-2,1,-7,2,0,1,-11,-5
17:55:17:946217,-2,1,-7,2,0,1,-11,-5
17:55:17:947015,-2,-2,-1,-2,-1,-2,2,2
17:55:17:953070,0,6,1,0,-1,-3,1,-1
17:55:17:960560,0,6,1,0,-1,-3,1,-1
17:55:17:968122,2,0,0,1,-2,-4,0,-2
17:55:17:975512,0,-3,-5,-1,-2,-3,-3,-5
17:55:17:983143,0,-3,-5,-1,-2,-3,-3,-5
17:55:17:990570,-2,-4,2,-7,-6,-2,-1,-2
17:55:17:998209,2,1,-4,-2,0,-1,-2,1
17:55:18:6251,2,1,-4,-2,0,-1,-2,1
17:55:18:7075,-1,-5,-4,0,1,-1,7,1
17:55:18:21340,-5,-1,1,-4,3,1,1,-4
17:55:18:22086,-5,-1,1,-4,3,1,1,-4
17:55:18:27993,1,-3,-9,-16,-6,-2,-5,-3
17:55:18:35617,-3,3,6,0,-6,-4,-12,-1
17:55:18:43026,-3,3,6,0,-6,-4,-12,-1
17:55:18:50635,-6,-2,-4,-2,-4,-1,0,-4
17:55:18:58058,-3,-4,-1,-12,-6,4,-4,-1
17:55:18:66229,-3,-4,-1,-12,-6,4,-4,-1
17:55:18:73122,1,1,2,1,-4,-2,-6,1
17:55:18:81367,-8,-5,-5,4,8,-1,-29,-4
17:55:18:82118,-8,-5,-5,4,8,-1,-29,-4
17:55:18:88063,-9,6,-5,7,13,11,5,-3
17:55:18:95481,3,10,0,5,-5,-3,10,2
17:55:18:103185,3,10,0,5,-5,-3,10,2
17:55:18:110493,3,5,6,7,1,-1,-3,-2
17:55:18:118149,-2,-6,0,-1,-1,4,9,-3
17:55:18:126250,-2,-6,0,-1,-1,4,9,-3
17:55:18:126990,4,1,-6,-2,-8,-2,1,-2
17:55:18:141210,1,-1,-3,-4,-4,-5,10,1
17:55:18:142077,1,-1,-3,-4,-4,-5,10,1
17:55:18:148183,2,-4,-4,-2,-5,-3,2,-3
17:55:18:155582,-4,-3,-5,-5,1,-1,-10,1
17:55:18:163161,-4,-3,-5,-5,1,-1,-10,1
17:55:18:170602,-6,-4,-2,-12,-5,-3,-22,-4
17:55:18:186953,-1,0,-1,-2,-2,-3,1,3
17:55:18:187709,-1,0,-1,-2,-2,-3,1,3
17:55:18:188594,7,14,-1,-9,-1,1,1,1
17:55:18:201324,-2,-3,-6,0,-7,-1,2,-3
17:55:18:202101,-2,-3,-6,0,-7,-1,2,-3
17:55:18:208007,-4,-6,0,-1,-1,-2,-9,4
17:55:18:215595,-2,2,5,4,5,4,-14,-2
17:55:18:223134,-2,2,5,4,5,4,-14,-2
17:55:18:230513,0,-2,-1,4,4,3,10,0
17:55:18:238043,0,-4,-1,-1,-2,-2,8,-1
17:55:18:246266,0,-4,-1,-1,-2,-2,8,-1
17:55:18:247051,-2,-4,-1,4,-4,-1,-4,2
17:55:18:261210,16,22,4,-1,-1,-3,-1,-2
17:55:18:262020,16,22,4,-1,-1,-3,-1,-2
17:55:18:268114,-2,-6,-1,-4,-1,-4,5,-3
17:55:18:275546,-10,-12,0,-5,-4,-4,2,0
17:55:18:283247,-10,-12,0,-5,-4,-4,2,0
17:55:18:290548,0,1,-7,3,6,1,3,2
17:55:18:298264,-26,-7,3,-4,4,5,18,-2
17:55:18:306295,-26,-7,3,-4,4,5,18,-2
17:55:18:306992,-16,-9,-1,-2,-7,-2,0,-3
17:55:18:321306,-3,-10,-2,-6,-3,-3,7,3
17:55:18:322140,-3,-10,-2,-6,-3,-3,7,3
17:55:18:328023,-2,-12,-7,0,5,-15,-7,-7
17:55:18:335674,22,30,-3,3,5,0,-9,-8
17:55:18:343049,22,30,-3,3,5,0,-9,-8
17:55:18:350682,28,29,4,-2,-4,-3,2,8
17:55:18:366985,2,-7,2,2,-7,5,3,-1
17:55:18:367773,2,-7,2,2,-7,5,3,-1
17:55:18:368583,4,-25,-11,0,14,-5,-9,-4
17:55:18:381487,-9,-9,-4,2,9,3,-3,-3
17:55:18:382087,-9,-9,-4,2,9,3,-3,-3
17:55:18:388128,-20,-9,-2,-5,-14,-3,-1,-1
17:55:18:395600,3,2,2,-24,-9,-5,-5,1
17:55:18:403120,3,2,2,-24,-9,-5,-5,1
17:55:18:410535,0,-3,5,6,2,2,1,-1
17:55:18:418193,-17,-20,-3,-8,-7,-1,-1,-1
17:55:18:426219,-17,-20,-3,-8,-7,-1,-1,-1
17:55:18:426981,-8,-7,-4,-5,-8,3,1,-2
17:55:18:441194,-7,-10,-6,0,-3,-3,-4,0
17:55:18:441990,-7,-10,-6,0,-3,-3,-4,0
17:55:18:448154,9,5,-1,6,-1,2,-2,1
17:55:18:463673,9,6,2,6,6,-2,-19,0
17:55:18:464513,9,6,2,6,6,-2,-19,0
17:55:18:470655,8,19,5,-4,-7,1,4,1
17:55:18:478038,-2,-11,-5,6,-5,-2,-13,0
17:55:18:486332,-2,-11,-5,6,-5,-2,-13,0
17:55:18:487051,-7,-16,-3,1,-9,0,-6,-2
17:55:18:501364,3,11,5,2,0,3,4,3
17:55:18:502132,3,11,5,2,0,3,4,3
17:55:18:508056,-1,-5,-1,-4,0,0,15,2
17:55:18:515702,0,5,3,-1,0,1,-1,-1
17:55:18:523123,0,5,3,-1,0,1,-1,-1
17:55:18:530596,-15,-6,-7,-1,4,-4,-35,-8
17:55:18:538066,-7,-10,-7,0,2,1,4,4
17:55:18:546251,-7,-10,-7,0,2,1,4,4
17:55:18:547003,-5,3,2,-9,-3,-3,-2,-4
17:55:18:561210,4,6,-6,5,-3,-10,21,-3
17:55:18:561993,4,6,-6,5,-3,-10,21,-3
17:55:18:568208,-2,0,8,3,8,4,18,1
17:55:18:575548,6,-2,5,-11,1,5,18,7
17:55:18:583188,6,-2,5,-11,1,5,18,7
17:55:18:590577,-2,5,0,-8,-2,4,16,-6
17:55:18:598872,-3,-6,-5,0,5,-2,6,-1
17:55:18:599553,-3,-6,-5,0,5,-2,6,-1
17:55:18:605591,5,0,-3,-2,-4,1,-8,2
17:55:18:621284,-12,-12,-4,0,-9,-1,-17,-5
17:55:18:622075,-12,-12,-4,0,-9,-1,-17,-5
17:55:18:627984,-8,0,3,-2,-3,-2,-14,-3
17:55:18:635636,-1,-3,-6,-6,-1,-7,-19,-3
17:55:18:643060,-1,-3,-6,-6,-1,-7,-19,-3
17:55:18:650612,-7,-6,-4,11,3,1,3,0
17:55:18:658768,2,-1,-2,-4,7,-3,-24,-3
17:55:18:659520,2,-1,-2,-4,7,-3,-24,-3
17:55:18:665645,9,0,-10,12,-2,0,-10,2
17:55:18:681387,5,2,-1,2,-5,-1,-8,2
17:55:18:682082,5,2,-1,2,-5,-1,-8,2
17:55:18:688124,-7,-5,-3,-1,5,-1,45,-2
17:55:18:695579,-1,1,6,-1,-1,2,15,-4
17:55:18:703236,-1,1,6,-1,-1,2,15,-4
17:55:18:710527,3,-1,1,-15,-1,-6,-6,0
17:55:18:718804,5,4,-3,-12,-2,-3,-1,-2
17:55:18:719598,5,4,-3,-12,-2,-3,-1,-2
17:55:18:725523,2,2,12,0,-8,2,6,0
17:55:18:741723,-4,4,1,-2,1,-9,-4,-8
17:55:18:742442,-4,4,1,-2,1,-9,-4,-8
17:55:18:748142,1,-1,-7,-8,0,6,3,4
17:55:18:755571,0,-3,1,8,-10,3,-16,2
17:55:18:763185,0,-3,1,8,-10,3,-16,2
17:55:18:779484,4,5,4,0,-4,2,-36,1
17:55:18:780222,-3,-4,-7,-6,-9,-10,-22,-4
17:55:18:780998,-3,-4,-7,-6,-9,-10,-22,-4
17:55:18:785646,-2,-5,-6,-8,4,0,-20,-1
17:55:18:801341,1,0,-2,-29,-4,2,49,7
17:55:18:802047,1,0,-2,-29,-4,2,49,7
17:55:18:808000,-2,-4,-5,0,-1,-5,-1,-4
17:55:18:815621,0,0,-5,32,7,-1,0,2
17:55:18:823146,0,0,-5,32,7,-1,0,2
17:55:18:830555,10,-3,2,3,-14,-7,-6,6
17:55:18:838719,3,2,2,6,-20,4,10,-1
17:55:18:839578,3,2,2,6,-20,4,10,-1
17:55:18:853161,-13,-11,-9,-6,0,-11,-23,-11
17:55:18:861204,4,11,16,-2,-1,4,10,0
17:55:18:862046,4,11,16,-2,-1,4,10,0
17:55:18:868108,-6,-3,1,-53,-15,-10,7,-2
17:55:18:875521,1,5,9,-12,10,-2,7,4
17:55:18:883128,1,5,9,-12,10,-2,7,4
17:55:18:890575,-1,1,-2,13,3,12,3,1
17:55:18:899295,-7,-9,-4,-8,-6,-3,24,-4
17:55:18:906265,-7,-9,-4,-8,-6,-3,24,-4
17:55:18:907096,-9,-7,-14,1,1,1,9,-2
17:55:18:921715,-5,9,3,20,4,4,-17,-3
17:55:18:922521,-5,9,3,20,4,4,-17,-3
17:55:18:928027,1,-8,-7,3,0,0,-3,-10
17:55:18:943705,16,11,16,-20,4,7,31,10
17:55:18:944508,16,11,16,-20,4,7,31,10
17:55:18:950625,-17,-11,-4,35,-1,-8,0,-7
17:55:18:966362,-1,1,-1,10,-2,-3,-15,1
17:55:18:967112,-1,1,-1,10,-2,-3,-15,1
17:55:18:973092,12,12,15,-30,3,1,8,2
17:55:18:981283,-5,-9,-1,-14,1,4,38,-5
17:55:18:982122,-5,-9,-1,-14,1,4,38,-5
17:55:18:988087,7,2,-10,30,5,-11,7,7
17:55:19:3889,6,3,2,-16,0,6,2,-1
17:55:19:4540,6,3,2,-16,0,6,2,-1
17:55:19:19472,-7,4,0,-12,-14,0,-21,-5
17:55:19:20163,-10,-11,-3,6,4,-11,-33,-9
17:55:19:21061,-10,-11,-3,6,4,-11,-33,-9
17:55:19:33135,4,-3,-1,-5,-5,9,-8,1
17:55:19:41185,5,7,8,-21,6,7,40,5
17:55:19:42009,5,7,8,-21,6,7,40,5
17:55:19:48071,-5,-7,-12,-24,-5,-6,0,-3
17:55:19:63692,-2,-5,-16,-12,-8,-11,-58,-1
17:55:19:64499,-2,-5,-16,-12,-8,-11,-58,-1
17:55:19:79450,-7,-4,-12,-47,4,-8,-8,-7
17:55:19:80197,0,-6,-4,20,0,-5,14,3
17:55:19:80991,0,-6,-4,20,0,-5,14,3
17:55:19:93031,-6,-3,-9,46,-1,-1,-41,-2
17:55:19:101310,-10,-4,-2,-7,-3,1,-1,-9
17:55:19:102005,-10,-4,-2,-7,-3,1,-1,-9
17:55:19:108023,6,4,10,7,0,1,-31,8
17:55:19:124758,-3,-13,-14,10,-5,5,-23,-6
17:55:19:131332,-3,-13,-14,10,-5,5,-23,-6
17:55:19:132091,-1,-1,7,-6,6,-4,-4,-5
17:55:19:138747,2,0,-9,25,1,-3,-14,-2
17:55:19:139594,2,0,-9,25,1,-3,-14,-2
17:55:19:153162,7,12,15,20,10,6,17,8
17:55:19:161168,2,-11,-9,-1,-13,-5,17,1
17:55:19:161972,2,-11,-9,-1,-13,-5,17,1
17:55:19:168167,4,6,4,-13,-3,6,19,-2
17:55:19:184035,-1,-5,-4,6,-6,0,-33,1
17:55:19:200142,-1,-5,-4,6,-6,0,-33,1
17:55:19:200915,-3,-11,-10,-21,3,2,18,3
17:55:19:201745,-6,10,15,-19,2,-10,-46,-7
17:55:19:202540,-6,10,15,-19,2,-10,-46,-7
17:55:19:213116,0,-10,-10,-10,-1,3,25,10
17:55:19:221288,2,10,7,-1,2,-3,-10,-3
17:55:19:222088,2,10,7,-1,2,-3,-10,-3
17:55:19:235553,4,-7,-15,15,-11,0,-6,-5
17:55:19:243713,-9,-5,-9,3,11,2,48,-1
17:55:19:244510,-9,-5,-9,3,11,2,48,-1
17:55:19:250616,-4,-7,-11,14,-10,-2,1,-7
17:55:19:258713,-1,4,10,15,5,0,-46,-4
17:55:19:259518,-1,4,10,15,5,0,-46,-4
17:55:19:273077,-11,-1,0,28,9,3,-2,-4
17:55:19:281372,-2,-2,-12,-16,-3,1,-9,-3
17:55:19:281995,-2,-2,-12,-16,-3,1,-9,-3
17:55:19:295514,8,18,17,6,-3,-1,-11,0
17:55:19:311873,1,-5,-14,-11,-2,-7,23,3
17:55:19:312659,1,-5,-14,-11,-2,-7,23,3
17:55:19:313531,-14,-10,-30,23,20,-15,-34,-18
17:55:19:318774,-3,12,13,-12,12,15,0,-3
17:55:19:319584,-3,12,13,-12,12,15,0,-3
17:55:19:333154,-1,1,16,-46,-5,6,11,2
17:55:19:341195,-6,-9,-22,22,-4,1,-18,1
17:55:19:342037,-6,-9,-22,22,-4,1,-18,1
17:55:19:348121,0,5,13,-1,2,-6,-5,3
17:55:19:363883,0,5,13,-1,2,-6,-5,3
17:55:19:364545,2,-10,2,-29,-11,9,19,5
17:55:19:370535,9,15,13,-19,-3,-12,13,5
17:55:19:386274,9,15,13,-19,-3,-12,13,5
17:55:19:387009,-12,-1,16,-23,-2,-7,-26,-9
17:55:19:392987,5,-2,7,11,-9,0,30,-1
17:55:19:409393,5,-2,7,11,-9,0,30,-1
17:55:19:410154,-3,-14,-17,12,0,-2,23,-2
17:55:19:410974,-1,0,-1,17,2,6,12,3
17:55:19:423780,-1,0,-1,17,2,6,12,3
17:55:19:424498,4,-4,12,6,13,-9,39,-9
17:55:19:430641,15,13,23,-45,5,15,41,8
17:55:19:446374,15,13,23,-45,5,15,41,8
17:55:19:447026,3,-3,-6,3,-12,-1,-10,3
17:55:19:468599,-5,7,-10,-8,-2,-3,-39,-11
17:55:19:476879,-5,7,-10,-8,-2,-3,-39,-11
17:55:19:477660,2,4,-5,8,1,-1,8,1
17:55:19:478494,-9,-6,-6,11,-13,6,-25,-6
17:55:19:483942,-9,-6,-6,11,-13,6,-25,-6
17:55:19:484669,-18,-12,-18,-6,-5,-13,-63,-13
17:55:19:490583,-10,3,4,-13,-1,4,25,-5
17:55:19:506303,-10,3,4,-13,-1,4,25,-5
17:55:19:507123,-2,-10,-1,-7,3,2,28,1
17:55:19:513207,5,9,6,13,10,2,-14,3
17:55:19:521302,5,9,6,13,10,2,-14,3
17:55:19:522088,7,7,-2,-1,2,-6,-2,2
17:55:19:528026,0,3,4,-11,-4,9,20,-4
17:55:19:543762,0,3,4,-11,-4,9,20,-4
17:55:19:544516,-2,10,-5,-6,-5,3,-7,1
17:55:19:550669,-6,-9,3,7,-3,-7,8,-7
17:55:19:566342,-6,-9,3,7,-3,-7,8,-7
17:55:19:567102,9,10,15,18,0,15,7,6
17:55:19:573073,-4,-17,-20,-24,10,-13,-30,-4
17:55:19:597063,-4,-17,-20,-24,10,-13,-30,-4
17:55:19:597733,3,-3,3,21,-2,-2,-12,2
17:55:19:598517,10,9,1,23,0,0,12,7
17:55:19:611946,10,9,1,23,0,0,12,7
17:55:19:612664,-7,0,-7,10,-7,-13,-10,-3
17:55:19:613554,-3,-16,-9,-21,-10,-6,47,8
17:55:19:626644,-3,-16,-9,-21,-10,-6,47,8
17:55:19:633838,7,13,18,-1,-2,8,9,1
17:55:19:634521,1,-4,-10,3,-27,4,8,0
17:55:19:641252,1,-4,-10,3,-27,4,8,0
17:55:19:642018,-4,-2,-4,-71,-1,-16,-19,0
17:55:19:648173,-7,-6,-15,8,0,4,18,-1
17:55:19:663728,-7,-6,-15,8,0,4,18,-1
17:55:19:664556,-1,-3,5,10,-3,3,-3,-3
17:55:19:670565,-4,5,27,-2,-4,-5,19,9
17:55:19:686364,-4,5,27,-2,-4,-5,19,9
17:55:19:687058,2,-10,-14,13,4,-8,32,2
17:55:19:693038,3,1,4,28,6,-4,-46,-6
17:55:19:701412,3,1,4,28,6,-4,-46,-6
17:55:19:702115,-11,-18,-15,1,-5,2,-17,-5
17:55:19:708030,0,8,1,1,-4,-3,-13,-3
17:55:19:723781,0,8,1,1,-4,-3,-13,-3
17:55:19:724511,-1,-1,-4,-5,-4,-9,-18,-4
17:55:19:730497,-10,-7,-22,6,5,-8,-36,-12
17:55:19:746218,-10,-7,-22,6,5,-8,-36,-12
17:55:19:747005,5,20,11,8,-8,8,-4,0
17:55:19:753118,2,-2,4,-16,9,0,68,2
17:55:19:761261,2,-2,4,-16,9,0,68,2
17:55:19:762001,3,3,14,8,3,7,33,3
17:55:19:775560,-2,-2,-16,2,5,8,-20,-2
17:55:19:783831,-2,-2,-16,2,5,8,-20,-2
17:55:19:784523,7,14,13,-10,-1,1,1,4
17:55:19:790522,-2,-9,4,9,-14,-12,-45,-2
17:55:19:806241,-2,-9,4,9,-14,-12,-45,-2
17:55:19:807037,-6,-6,-12,-8,-7,-3,4,-2
17:55:19:813017,0,-9,-11,1,1,1,10,-5
17:55:19:821250,0,-9,-11,1,1,1,10,-5
17:55:19:822078,0,6,7,19,10,13,43,4
17:55:19:828010,-2,-1,3,-11,4,6,-31,-5
17:55:19:844196,-2,-1,3,-11,4,6,-31,-5
17:55:19:844953,-12,-2,2,-28,9,-9,-14,-12
17:55:19:850665,-3,10,6,8,0,-1,5,-2
17:55:19:858097,-3,10,6,8,0,-1,5,-2
17:55:19:873707,1,-21,-33,25,-7,-3,17,3
17:55:19:874484,8,17,10,-7,-11,-1,37,3
17:55:19:896912,8,17,10,-7,-11,-1,37,3
17:55:19:897737,1,-2,-9,-1,-6,2,9,4
17:55:19:898553,1,-16,-18,-9,-12,2,-11,2
17:55:19:903851,1,-16,-18,-9,-12,2,-11,2
17:55:19:904523,-14,-13,-5,5,3,-10,-54,-14
17:55:19:910500,-7,-7,0,4,-2,-5,-15,0
17:55:19:926219,-7,-7,0,4,-2,-5,-15,0
17:55:19:927022,2,11,17,1,-4,-10,-10,-6
17:55:19:957551,-11,-19,-8,4,6,-4,-1,-4
17:55:19:958425,-11,-19,-8,4,6,-4,-1,-4
17:55:19:959138,4,14,5,11,-12,4,7,2
17:55:19:959955,6,6,-4,2,8,8,7,8
17:55:19:963748,6,6,-4,2,8,8,7,8
17:55:19:964542,3,-16,-13,-26,6,-12,24,2
17:55:19:970498,-3,19,32,8,6,6,32,-3
17:55:19:978112,-3,19,32,8,6,6,32,-3
17:55:19:985623,-2,-10,-15,-4,-2,1,-28,0
17:55:20:9408,6,6,12,-6,-5,4,3,-3
17:55:20:10177,6,6,12,-6,-5,4,3,-3
17:55:20:10988,-6,13,18,-14,-5,10,6,-1
17:55:20:15553,3,-10,-22,16,-7,-6,-5,2
17:55:20:23761,3,-10,-22,16,-7,-6,-5,2
17:55:20:24497,5,0,5,14,8,4,-16,8
17:55:20:38734,-8,-14,0,1,-11,-26,-17,-4
17:55:20:39533,-8,-14,0,1,-11,-26,-17,-4
17:55:20:62686,7,-1,7,2,-1,9,52,0
17:55:20:63293,7,0,0,-8,-6,2,28,1
17:55:20:64116,7,0,0,-8,-6,2,28,1
17:55:20:64922,-3,6,26,-15,-6,10,2,1
17:55:20:75547,-4,-9,-16,6,19,4,-14,-1
17:55:20:83824,-4,-9,-16,6,19,4,-14,-1
17:55:20:84536,4,12,-4,-11,-3,-8,-2,-3
17:55:20:90500,-22,-7,-11,-20,-5,0,-18,-7
17:55:20:98203,-22,-7,-11,-20,-5,0,-18,-7
17:55:20:122578,-4,-12,-39,23,-4,-11,-7,-1
17:55:20:123388,12,7,-1,0,5,-4,-64,1
17:55:20:124089,12,7,-1,0,5,-4,-64,1
17:55:20:124982,5,-4,-3,-11,-25,-24,19,-2
17:55:20:135688,-1,2,6,-11,-8,13,25,-1
17:55:20:152001,-1,2,6,-11,-8,13,25,-1
17:55:20:152714,-5,-11,-14,-5,3,-2,-36,-4
17:55:20:153537,8,11,28,2,1,8,-27,2
17:55:20:174408,8,11,28,2,1,8,-27,2
17:55:20:175179,-26,-17,-11,1,9,-7,10,-13
17:55:20:175974,-3,8,24,9,-10,1,54,-2
17:55:20:181241,-3,8,24,9,-10,1,54,-2
17:55:20:182027,-6,-18,-22,2,-2,9,17,-2
17:55:20:195585,2,8,2,-26,-1,-14,-34,-3
17:55:20:203738,2,8,2,-26,-1,-14,-34,-3
17:55:20:204549,-16,-1,2,1,-2,7,-18,-5
17:55:20:235102,0,-13,-32,15,-3,-5,-27,-2
17:55:20:235888,0,-13,-32,15,-3,-5,-27,-2
17:55:20:236692,-4,13,14,10,8,7,11,-6
17:55:20:237438,-1,-20,-33,-2,-2,3,30,2
17:55:20:241206,-1,-20,-33,-2,-2,3,30,2
17:55:20:241988,9,27,43,10,2,5,-6,5
17:55:20:255623,-23,-14,-19,-1,7,-18,13,-13
17:55:20:263860,-23,-14,-19,-1,7,-18,13,-13
17:55:20:264511,8,1,12,-18,7,-1,-21,-1
17:55:20:286925,-7,-3,-9,7,7,0,0,-3
17:55:20:287675,-7,-3,-9,7,7,0,0,-3
17:55:20:288484,0,0,-21,-6,-2,0,25,1
17:55:20:292997,-1,-10,-7,0,-11,5,1,3
17:55:20:301293,-1,-10,-7,0,-11,5,1,3
17:55:20:301992,13,19,7,-17,0,-13,-52,2
17:55:20:315595,2,2,15,-21,-7,10,19,6
17:55:20:348307,2,2,15,-21,-7,10,19,6
17:55:20:349001,3,-1,-19,-4,-6,-1,10,0
17:55:20:349845,3,11,-3,3,-5,1,5,-5
17:55:20:350650,3,11,-3,3,-5,1,5,-5
17:55:20:353734,3,-15,4,17,-1,-18,21,7
17:55:20:354538,7,12,18,6,1,-2,-5,4
17:55:20:361216,7,12,18,6,1,-2,-5,4
17:55:20:361988,-8,-33,-34,7,-8,6,19,3
17:55:20:375549,5,13,28,-1,-12,0,-22,4
17:55:20:384237,5,13,28,-1,-12,0,-22,4
17:55:20:391548,1,-13,-7,6,4,16,79,-2
17:55:20:398765,-1,0,-19,-4,-15,4,-18,-4
17:55:20:399525,-1,0,-19,-4,-15,4,-18,-4
17:55:20:405525,4,-7,10,-1,-8,5,-9,-1
17:55:20:413041,3,12,20,12,11,-14,-31,-10
17:55:20:421225,3,12,20,12,11,-14,-31,-10
17:55:20:422005,-1,0,3,-4,-6,1,-57,-3
17:55:20:460701,-7,-11,-20,-9,-8,-3,-44,-3
17:55:20:461518,-7,-11,-20,-9,-8,-3,-44,-3
17:55:20:462382,2,4,9,-4,2,-12,-61,-2
17:55:20:463044,-12,-28,-16,-13,3,-9,23,-7
17:55:20:466312,-12,-28,-16,-13,3,-9,23,-7
17:55:20:467009,-1,20,21,1,7,-6,-8,-3
17:55:20:473068,7,-10,-24,-4,4,7,86,11
17:55:20:481253,7,-10,-24,-4,4,7,86,11
17:55:20:481999,-6,9,14,-12,2,-2,-2,-6
17:55:20:504456,5,1,10,8,7,7,27,5
17:55:20:505207,5,1,10,8,7,7,27,5
17:55:20:506013,7,4,-8,-5,10,-2,11,5
17:55:20:510532,-3,-9,-15,-8,-3,-9,-5,-1
17:55:20:518205,-3,-9,-15,-8,-3,-9,-5,-1
17:55:20:525584,2,6,15,10,2,2,-19,6
17:55:20:541870,-9,-13,-9,2,-7,-4,-56,-3
17:55:20:542637,-9,-13,-9,2,-7,-4,-56,-3
17:55:20:543440,-2,-1,-8,-13,-11,4,-25,-8
17:55:20:555586,-2,-6,-11,14,7,1,14,0
17:55:20:563883,-2,-6,-11,14,7,1,14,0
17:55:20:564558,1,4,6,-2,7,-6,-18,-3
17:55:20:570507,-2,-6,-4,-8,4,-3,-36,-9
17:55:20:578138,-2,-6,-4,-8,4,-3,-36,-9
17:55:20:585643,-3,19,7,-24,-12,1,21,-4
17:55:20:593048,-7,6,10,-8,-1,12,38,0
17:55:20:617604,-7,6,10,-8,-1,12,38,0
17:55:20:618412,-1,-32,-68,11,-14,-8,-10,-3
17:55:20:619099,13,28,23,-11,-1,3,2,6
17:55:20:623836,13,28,23,-11,-1,3,2,6
17:55:20:624544,-6,-5,-8,-1,-7,6,-25,-1
17:55:20:630543,3,6,3,-17,-8,-1,-6,-2
17:55:20:638137,3,6,3,-17,-8,-1,-6,-2
17:55:20:663411,-1,0,34,-15,-1,-5,8,7
17:55:20:664065,-9,-3,4,-4,11,-6,1,-5
17:55:20:664841,-9,-3,4,-4,11,-6,1,-5
17:55:20:665662,2,0,-14,-3,2,-2,-10,0
17:55:20:675564,-1,5,1,3,0,-14,12,10
17:55:20:691879,-1,5,1,3,0,-14,12,10
17:55:20:692670,-4,-17,-6,-8,1,-2,16,2
17:55:20:693489,1,11,8,-13,0,8,-3,-1
17:55:20:698304,1,11,8,-13,0,8,-3,-1
17:55:20:729224,-4,-6,-5,-5,6,-11,-3,-5
17:55:20:729962,-10,-7,-3,0,-8,-11,41,-7
17:55:20:736948,-10,-7,-3,0,-8,-11,41,-7
17:55:20:737633,-1,3,-2,10,-13,3,19,0
17:55:20:738534,5,-13,-1,-2,-4,9,-41,6
17:55:20:743705,5,-13,-1,-2,-4,9,-41,6
17:55:20:744467,-3,4,-9,2,-3,-1,8,-3
17:55:20:750609,3,5,15,-6,-16,-3,14,0
17:55:20:758045,3,5,15,-6,-16,-3,14,0
17:55:20:773684,-4,-1,11,17,-7,-1,-28,-3
17:55:20:774427,6,-13,-18,9,0,5,-8,5
17:55:20:781361,6,-13,-18,9,0,5,-8,5
17:55:20:782029,4,11,10,-1,5,-2,-27,-1
17:55:20:795544,1,3,4,-3,-1,-8,-34,-3
17:55:20:803771,1,3,4,-3,-1,-8,-34,-3
17:55:20:804482,1,2,-6,11,0,8,3,0
17:55:20:810515,0,6,-4,1,9,-2,-14,-2
17:55:20:818185,0,6,-4,1,9,-2,-14,-2
17:55:20:833782,-4,-11,-7,13,4,-19,7,0
17:55:20:834568,6,-1,9,-6,4,-1,18,13
17:55:20:848876,6,-1,9,-6,4,-1,18,13
17:55:20:849540,19,12,11,3,-2,17,54,15
17:55:20:855519,2,-8,-18,-6,-5,-8,-17,-2
17:55:20:863808,2,-8,-18,-6,-5,-8,-17,-2
17:55:20:864498,-8,-10,-1,-5,1,-8,-9,-3
17:55:20:886891,1,18,26,-25,2,4,9,-4
17:55:20:887674,1,18,26,-25,2,4,9,-4
17:55:20:888493,-13,-12,-19,-23,5,10,23,-7
17:55:20:892996,1,-6,4,19,0,14,-4,-1
17:55:20:900655,1,-6,4,19,0,14,-4,-1
17:55:20:907972,2,-9,-9,-21,-16,-8,0,1
17:55:20:915554,-2,2,16,-7,-7,-10,-3,-4
17:55:20:923756,-2,2,16,-7,-7,-10,-3,-4
17:55:20:924526,2,11,11,19,7,1,-15,-8
17:55:20:946896,-4,-15,-8,15,-3,-4,8,-1
17:55:20:947694,-4,-15,-8,15,-3,-4,8,-1
17:55:20:948503,-18,2,16,4,21,-17,-43,-16
17:55:20:961198,-6,-17,-16,3,1,3,9,-6
17:55:20:962022,-6,-17,-16,3,1,3,9,-6
17:55:20:968096,12,14,26,-19,0,7,18,7
17:55:20:975547,-13,-20,-30,11,10,-4,-1,-8
17:55:20:983849,-13,-20,-30,11,10,-4,-1,-8
17:55:20:984516,0,0,3,-10,-9,0,20,0
17:55:20:998796,7,2,4,-9,1,6,51,7
17:55:20:999532,7,2,4,-9,1,6,51,7
17:55:21:5482,0,-8,0,-12,1,2,46,1
17:55:21:13186,-3,-9,-15,4,-7,-4,8,-6
17:55:21:20579,-3,-9,-15,4,-7,-4,8,-6
17:55:21:28011,-9,-2,-4,-6,5,10,20,-3
17:55:21:35602,-9,-7,-12,-17,10,-3,-18,-4
17:55:21:43735,-9,-7,-12,-17,10,-3,-18,-4
17:55:21:44493,6,14,27,-6,3,5,-15,4
17:55:21:58713,5,0,-4,-4,-6,2,-20,7
17:55:21:59512,5,0,-4,-4,-6,2,-20,7
17:55:21:65537,-13,-8,-7,26,3,-11,1,-7
17:55:21:73046,5,6,4,-6,-5,-12,18,-2
17:55:21:80763,5,6,4,-6,-5,-12,18,-2
17:55:21:88080,12,9,-6,-19,-15,-3,-8,12
17:55:21:95606,-16,-15,-15,6,-16,-11,-21,-12
17:55:21:103765,-16,-15,-15,6,-16,-11,-21,-12
17:55:21:104594,-5,0,3,-24,-12,1,26,-7
17:55:21:118794,-10,2,-16,-1,3,0,26,0
17:55:21:119623,-10,2,-16,-1,3,0,26,0
17:55:21:125561,1,-7,-7,11,4,2,-18,-1
17:55:21:133149,3,6,23,-55,-6,1,-11,1
17:55:21:140612,3,6,23,-55,-6,1,-11,1
17:55:21:148140,4,-9,-12,14,1,17,-4,-1
17:55:21:155558,-2,14,8,-4,-8,-2,20,-3
17:55:21:163832,-2,14,8,-4,-8,-2,20,-3
17:55:21:164479,-8,-11,-15,-3,-3,6,-50,-6
17:55:21:178666,-14,1,0,24,-10,10,-29,-11
17:55:21:179488,-14,1,0,24,-10,10,-29,-11
17:55:21:185629,-3,-11,-16,7,0,-20,1,3
17:55:21:193017,13,9,1,17,-1,-2,-7,8
17:55:21:200641,13,9,1,17,-1,-2,-7,8
17:55:21:216244,-16,-9,-4,-19,4,-7,-25,-7
17:55:21:216984,-6,4,5,-3,8,-21,-50,-9
17:55:21:223778,-6,4,5,-3,8,-21,-50,-9
17:55:21:224516,-7,-7,-3,-20,5,-9,8,-7
17:55:21:238748,-8,2,5,-13,4,6,-13,-9
17:55:21:239567,-8,2,5,-13,4,6,-13,-9
17:55:21:253665,2,-4,-8,36,-4,2,-4,-1
17:55:21:254453,2,4,10,-2,10,14,0,-4
17:55:21:260557,2,4,10,-2,10,14,0,-4
17:55:21:268122,1,1,-11,14,-6,-6,7,-4
17:55:21:275518,10,14,30,9,2,13,88,9
17:55:21:283850,10,14,30,9,2,13,88,9
17:55:21:284561,2,-1,6,2,-12,-11,11,-2
17:55:21:298766,-1,-7,-48,8,-4,3,-8,1
17:55:21:299571,-1,-7,-48,8,-4,3,-8,1
17:55:21:305565,2,2,16,-19,5,8,0,4
17:55:21:313009,-24,-17,-13,11,-6,-3,23,-5
17:55:21:320648,-24,-17,-13,11,-6,-3,23,-5
17:55:21:336302,1,-6,-15,1,-11,-12,-1,-5
17:55:21:336957,5,8,-3,2,6,-4,-53,-3
17:55:21:343735,5,8,-3,2,6,-4,-53,-3
17:55:21:344509,0,4,6,9,-1,8,6,-1
17:55:21:358794,-8,-17,-14,-14,-3,-11,-22,-4
17:55:21:359498,-8,-17,-14,-14,-3,-11,-22,-4
17:55:21:365578,-1,4,-4,5,-15,5,-7,-1
17:55:21:381296,7,-7,-15,10,7,-10,-12,7
17:55:21:382095,7,-7,-15,10,7,-10,-12,7
17:55:21:388048,4,9,6,-8,10,10,29,4
17:55:21:395539,5,7,8,-27,-10,-6,-13,-11
17:55:21:403760,5,7,8,-27,-10,-6,-13,-11
17:55:21:404577,0,2,13,-31,6,-12,-34,-7
17:55:21:418786,15,9,16,4,11,1,-33,1
17:55:21:419587,15,9,16,4,11,1,-33,1
17:55:21:425473,2,0,-12,9,1,-16,-10,5
17:55:21:433083,-3,2,4,8,-7,6,14,5
17:55:21:440614,-3,2,4,8,-7,6,14,5
17:55:21:448103,-2,-13,-20,2,-3,3,35,3
17:55:21:455591,0,6,10,11,-4,5,-13,4
17:55:21:463886,0,6,10,11,-4,5,-13,4
17:55:21:464528,4,4,11,0,-6,-8,-38,-3
17:55:21:478767,3,-3,-2,1,1,10,48,7
17:55:21:479537,3,-3,-2,1,1,10,48,7
17:55:21:485722,7,2,-1,-5,-8,7,6,6
17:55:21:493056,7,-8,14,9,8,2,8,8
17:55:21:500725,7,-8,14,9,8,2,8,8
17:55:21:508018,0,-1,-9,-3,7,2,11,0
17:55:21:515583,-18,15,10,-7,0,6,-47,-16
17:55:21:523775,-18,15,10,-7,0,6,-47,-16
17:55:21:524456,-3,-4,8,2,-6,1,1,5
17:55:21:538792,-3,-12,-7,-3,7,-8,-4,-3
17:55:21:539596,-3,-12,-7,-3,7,-8,-4,-3
17:55:21:553699,-5,18,48,4,6,2,-35,-11
17:55:21:554470,4,4,0,-12,-3,1,21,11
17:55:21:560571,4,4,0,-12,-3,1,21,11
17:55:21:568136,-16,-47,-41,-8,-10,-2,42,-3
17:55:21:575534,2,38,50,-17,6,5,-53,-2
17:55:21:583911,2,38,50,-17,6,5,-53,-2
17:55:21:584543,-1,-13,-30,-4,-8,7,-12,5
17:55:21:599144,2,-6,-16,4,-10,-23,7,6
17:55:21:614538,2,-6,-16,4,-10,-23,7,6
17:55:21:615197,9,28,27,-1,2,-8,17,-2
17:55:21:615991,-4,-21,-46,20,-4,-3,12,1
17:55:21:620611,-4,-21,-46,20,-4,-3,12,1
17:55:21:627994,-2,16,11,-13,3,-11,-42,-8
17:55:21:635658,2,-23,-16,-5,8,0,38,2
17:55:21:643750,2,-23,-16,-5,8,0,38,2
17:55:21:644520,0,1,-17,-1,4,17,20,-4
17:55:21:658724,-8,7,31,-17,-4,9,-4,-13
17:55:21:659514,-8,7,31,-17,-4,9,-4,-13
17:55:21:665559,10,-3,-3,-2,-3,6,0,9
17:55:21:673035,-1,-2,8,22,-7,-8,-8,-7
17:55:21:680783,-1,-2,8,22,-7,-8,-8,-7
17:55:21:688066,-11,5,4,-9,1,-10,-72,-15
17:55:21:695572,4,10,-3,2,3,7,-6,2
17:55:21:703773,4,10,-3,2,3,7,-6,2
17:55:21:704531,-4,-12,-16,32,-5,-7,12,-5
17:55:21:718878,2,-11,-7,1,2,-3,6,-2
17:55:21:719555,2,-11,-7,1,2,-3,6,-2
17:55:21:725534,-1,16,9,33,8,8,59,1
17:55:21:733132,-15,-17,-38,-2,-9,1,11,-7
17:55:21:740702,-15,-17,-38,-2,-9,1,11,-7
17:55:21:748140,10,5,8,-12,-6,-6,45,10
17:55:21:755601,5,-8,-44,-18,-10,3,-28,1
17:55:21:763076,5,-8,-44,-18,-10,3,-28,1
17:55:21:770614,-6,7,3,11,11,12,-10,-5
17:55:21:778709,4,2,19,12,9,0,-10,-2
17:55:21:779552,4,2,19,12,9,0,-10,-2
17:55:21:785568,-11,-8,1,-5,2,-4,11,-2
17:55:21:801344,4,0,6,-13,-7,-4,11,5
17:55:21:802021,4,0,6,-13,-7,-4,11,5
17:55:21:808031,-4,-8,2,-37,-9,-1,13,2
17:55:21:815653,-7,-16,-15,-7,-14,-11,27,2
17:55:21:823120,-7,-16,-15,-7,-14,-11,27,2
17:55:21:830676,0,17,10,9,12,2,-45,-4
17:55:21:838763,-10,-14,15,-8,4,-4,-15,-2
17:55:21:839557,-10,-14,15,-8,4,-4,-15,-2
17:55:21:845502,-2,-7,4,-10,-10,-5,-53,-5
17:55:21:861186,0,11,14,7,6,9,2,-4
17:55:21:861986,0,11,14,7,6,9,2,-4
17:55:21:868134,-21,-29,-35,-46,-13,5,17,-10
17:55:21:883785,-3,38,36,6,3,-7,-34,-4
17:55:21:884517,-3,38,36,6,3,-7,-34,-4
17:55:21:890595,-4,-15,-19,-15,-12,-5,-8,-6
17:55:21:898723,0,-15,-11,-2,5,-1,31,-3
17:55:21:899519,0,-15,-11,-2,5,-1,31,-3
17:55:21:905538,8,14,30,24,17,6,44,8
17:55:21:921316,1,-9,-19,6,-10,-10,-14,-6
17:55:21:922076,1,-9,-19,6,-10,-10,-14,-6
17:55:21:928033,6,-2,-11,6,-19,-17,-20,5
17:55:21:935593,0,5,0,-26,-4,-8,-17,1
17:55:21:943068,0,5,0,-26,-4,-8,-17,1
17:55:21:950602,1,-4,-32,15,2,0,0,2
17:55:21:958700,5,17,-28,-10,-7,6,-24,0
17:55:21:959500,5,17,-28,-10,-7,6,-24,0
17:55:21:965619,9,5,3,0,-4,-1,2,2
17:55:21:981254,2,-8,-2,-2,-4,-2,50,3
17:55:21:981987,2,-8,-2,-2,-4,-2,50,3
17:55:21:988016,1,7,-3,-20,6,-8,-14,-1
17:55:21:995523,3,13,18,20,4,4,2,3
17:55:22:3176,3,13,18,20,4,4,2,3
17:55:22:10505,-7,-20,-7,3,4,3,0,-5
17:55:22:18753,4,7,17,10,5,0,-2,2
17:55:22:19548,4,7,17,10,5,0,-2,2
17:55:22:25525,-17,-20,-15,6,-5,2,-1,-5
17:55:22:41033,1,-2,10,-10,-4,1,13,-2
17:55:22:56965,1,-2,10,-10,-4,1,13,-2
17:55:22:57696,-2,-1,-5,-7,-1,5,19,-1
17:55:22:58459,-7,-17,-12,-2,-4,-1,6,-3
17:55:22:63171,-7,-17,-12,-2,-4,-1,6,-3
17:55:22:70487,5,16,28,-13,-2,5,1,7
17:55:22:78717,-9,-2,-17,-18,2,-1,9,-4
17:55:22:79588,-9,-2,-17,-18,2,-1,9,-4
17:55:22:85556,11,3,-12,5,-4,-9,-51,-4
17:55:22:109356,-4,4,-3,9,-6,-4,-41,-3
17:55:22:110130,-4,4,-3,9,-6,-4,-41,-3
17:55:22:110939,-6,-16,-10,-4,-2,8,22,-1
17:55:22:115588,6,-1,8,-4,-3,-4,-5,2
17:55:22:123108,6,-1,8,-4,-3,-4,-5,2
17:55:22:130697,-13,-4,-2,15,14,-1,-27,-5
17:55:22:138799,-8,-13,5,-12,-1,-7,-7,-5
17:55:22:139600,-8,-13,5,-12,-1,-7,-7,-5
17:55:22:145542,7,17,40,-2,-11,-1,21,2
17:55:22:161204,-9,0,2,7,3,6,20,-3
17:55:22:162016,-9,0,2,7,3,6,20,-3
17:55:22:168123,4,4,-6,3,1,-2,-10,-3
17:55:22:175549,8,1,-1,-7,-1,2,34,4
17:55:22:183207,8,1,-1,-7,-1,2,34,4
17:55:22:190560,6,3,-13,-5,-6,-9,-23,2
17:55:22:198736,-3,4,7,-21,-6,-1,-26,-8
17:55:22:199621,-3,4,7,-21,-6,-1,-26,-8
17:55:22:222002,-6,4,-1,4,4,-10,-64,-9
17:55:22:222719,4,1,5,26,5,3,-30,1
17:55:22:223575,4,1,5,26,5,3,-30,1
17:55:22:228039,-7,-21,-6,9,-6,-7,30,2
17:55:22:235666,5,5,1,8,1,5,-13,2
17:55:22:243067,5,5,1,8,1,5,-13,2
17:55:22:250641,8,-14,-14,19,-11,-4,29,7
17:55:22:258705,-2,6,-10,-17,-8,-6,13,1
17:55:22:259504,-2,6,-10,-17,-8,-6,13,1
17:55:22:273108,-6,-8,-20,0,4,3,-10,-7
17:55:22:281334,8,7,-9,6,7,5,48,-1
17:55:22:282024,8,7,-9,6,7,5,48,-1
17:55:22:288064,3,-1,4,-8,5,2,13,-3
17:55:22:295593,-4,-9,-4,-11,-9,2,3,3
17:55:22:303165,-4,-9,-4,-11,-9,2,3,3
17:55:22:310493,8,13,28,-31,-3,7,49,9
17:55:22:327309,-5,3,-21,11,-8,-15,-6,-6
17:55:22:328107,-5,3,-21,11,-8,-15,-6,-6
17:55:22:333128,-5,-15,-3,-2,7,4,19,-1
17:55:22:341207,8,-3,4,-2,2,-3,7,12
17:55:22:342000,8,-3,4,-2,2,-3,7,12
17:55:22:348158,6,6,-2,9,-9,6,31,1
17:55:22:355571,-5,0,-6,-5,2,4,-1,-5
17:55:22:363122,-5,0,-6,-5,2,4,-1,-5
17:55:22:370558,-3,-4,-10,-5,1,3,-13,3
17:55:22:386940,-17,-10,-12,14,15,-2,15,-3
17:55:22:387763,-17,-10,-12,14,15,-2,15,-3
17:55:22:388551,-12,-1,2,7,-4,-10,-18,-8
17:55:22:401330,0,-3,9,1,6,7,-8,0
17:55:22:402024,0,-3,9,1,6,7,-8,0
17:55:22:407969,-2,-8,-17,7,-6,1,-8,0
17:55:22:415586,4,9,3,7,-3,-14,-27,-8
17:55:22:423151,4,9,3,7,-3,-14,-27,-8
17:55:22:439435,-8,1,-12,8,6,-8,-8,-4
17:55:22:440254,0,-11,4,-18,-14,5,1,2
17:55:22:441027,0,-11,4,-18,-14,5,1,2
17:55:22:445542,-1,9,20,-4,-3,2,-9,4
17:55:22:461189,-3,-6,21,-5,-7,2,-8,0
17:55:22:462085,-3,-6,21,-5,-7,2,-8,0
17:55:22:468142,-4,1,9,-3,5,5,16,-2
17:55:22:475560,-7,-7,-6,-4,-4,-2,-19,1
17:55:22:483157,-7,-7,-6,-4,-4,-2,-19,1
17:55:22:490590,-2,-2,-5,-29,-11,-12,4,-4
17:55:22:498777,4,-2,-13,13,-2,1,5,-1
17:55:22:499500,4,-2,-13,13,-2,1,5,-1
17:55:22:505572,3,6,2,8,-2,10,8,2
17:55:22:521274,-1,-8,-6,-9,7,-9,-42,-5
17:55:22:522084,-1,-8,-6,-9,7,-9,-42,-5
17:55:22:528007,-4,-3,-18,5,10,-5,-75,-13
17:55:22:535668,-13,1,-4,13,5,1,12,-5
17:55:22:551395,-13,1,-4,13,5,1,12,-5
17:55:22:552002,2,-14,0,-9,-13,-11,-45,5
17:55:22:558687,-11,17,22,-13,4,3,6,-7
17:55:22:559497,-11,17,22,-13,4,3,6,-7
17:55:22:565637,-6,-7,-8,-8,-13,1,-1,-3
17:55:22:581314,6,-2,7,0,-11,1,18,5
17:55:22:582007,6,-2,7,0,-11,1,18,5
17:55:22:588050,6,4,-2,13,7,2,-3,4
17:55:22:603804,11,-1,-4,-10,-10,6,-10,2
17:55:22:604529,11,-1,-4,-10,-10,6,-10,2
17:55:22:610571,7,2,2,8,1,4,47,12
17:55:22:618729,1,-3,-6,4,-2,-2,23,2
17:55:22:619541,1,-3,-6,4,-2,-2,23,2
17:55:22:625486,3,-3,-4,-5,-8,2,8,-1
17:55:22:641218,3,-3,-4,-5,-8,2,8,-1
17:55:22:641984,-1,-1,-2,2,-8,0,-3,0
17:55:22:648147,-12,1,-1,0,3,1,-4,-8
17:55:22:663849,-12,1,-1,0,3,1,-4,-8
17:55:22:664531,-5,-39,-17,-2,-7,-5,0,0
17:55:22:670585,-1,17,36,10,10,-6,-5,-3
17:55:22:678757,-1,17,36,10,10,-6,-5,-3
17:55:22:679568,3,-10,-12,-12,-2,-5,9,-2
17:55:22:685612,4,6,-5,0,7,1,15,4
17:55:22:701376,4,6,-5,0,7,1,15,4
17:55:22:702081,3,10,4,-15,5,-7,-18,-5
17:55:22:715632,-1,-6,-4,-3,1,-6,-3,-4
17:55:22:723816,-1,-6,-4,-3,1,-6,-3,-4
17:55:22:724543,1,3,2,3,2,2,-3,1
17:55:22:730540,-5,0,-4,-28,3,-3,-9,-8
17:55:22:738762,-5,0,-4,-28,3,-3,-9,-8
17:55:22:739540,-5,3,8,-14,-5,0,13,-5
17:55:22:753111,6,-3,6,5,-3,4,46,9
17:55:22:761221,6,-3,6,5,-3,4,46,9
17:55:22:762015,-3,4,-7,17,6,-3,-5,-3
17:55:22:775536,-2,-2,5,6,0,5,1,3
17:55:22:783836,-2,-2,5,6,0,5,1,3
17:55:22:784504,4,0,1,-4,0,-3,7,5
17:55:22:790494,6,7,4,6,6,-1,-8,-1
17:55:22:798840,6,7,4,6,6,-1,-8,-1
17:55:22:799588,-3,7,2,0,-1,-2,-4,-1
17:55:22:813171,-7,1,-9,-3,4,-6,0,-7
17:55:22:821286,-7,1,-9,-3,4,-6,0,-7
17:55:22:822084,-7,-15,-14,6,-4,1,4,-4
17:55:22:828021,-6,4,9,-4,-2,1,-17,-1
17:55:22:843741,-6,4,9,-4,-2,1,-17,-1
17:55:22:844505,4,4,1,-4,4,1,3,7
17:55:22:850648,-2,-6,-8,-1,-3,-8,12,-3
17:55:22:858764,-2,-6,-8,-1,-3,-8,12,-3
17:55:22:859524,0,2,-3,10,2,-3,-3,-1
17:55:22:873064,9,19,23,-2,2,4,14,-4
17:55:22:881391,9,19,23,-2,2,4,14,-4
17:55:22:881992,-5,-7,0,-2,1,-1,-3,-1
17:55:22:888060,5,-5,-13,8,-9,5,15,5
17:55:22:903733,5,-5,-13,8,-9,5,15,5
17:55:22:904536,-3,2,-6,-17,-11,-5,17,-1
17:55:22:910481,-6,-10,-13,8,-5,0,-6,-3
17:55:22:918797,-6,-10,-13,8,-5,0,-6,-3
17:55:22:919564,-8,-4,-5,-4,-7,-19,3,-10
17:55:22:941832,-3,-3,0,-3,-3,1,9,1
17:55:22:942625,-3,-3,0,-3,-3,1,9,1
17:55:22:943452,1,-2,-12,15,7,-2,-30,-1
17:55:22:955564,-5,-6,1,7,-6,3,3,-1
17:55:22:963789,-5,-6,1,7,-6,3,3,-1
17:55:22:964597,1,15,19,-15,6,11,-18,-4
17:55:22:970575,5,-8,-15,3,9,0,-2,5
17:55:22:978738,5,-8,-15,3,9,0,-2,5
17:55:22:979547,3,-7,-12,14,0,6,4,3
17:55:22:993019,-3,-5,-5,-8,-3,-3,-7,-2
17:55:23:1432,-3,-5,-5,-8,-3,-3,-7,-2
17:55:23:2082,2,4,1,7,-1,7,10,1
17:55:23:8003,-1,-12,-5,-5,-12,-7,-7,-6
17:55:23:23818,-1,-12,-5,-5,-12,-7,-7,-6
17:55:23:24532,3,5,11,-4,3,-6,-3,3
17:55:23:30651,-8,-6,-9,-9,-5,-1,-1,-6
17:55:23:38836,-8,-6,-9,-9,-5,-1,-1,-6
17:55:23:39563,-5,-5,-3,-17,-1,2,7,-1
17:55:23:53113,2,17,5,-7,-4,-5,-51,-6
17:55:23:61235,2,17,5,-7,-4,-5,-51,-6
17:55:23:62034,0,-7,-2,4,-1,1,-8,-1
17:55:23:68162,-3,-6,-2,-11,-5,-5,17,-1
17:55:23:83796,-3,-6,-2,-11,-5,-5,17,-1
17:55:23:84514,-11,2,-2,7,-3,-6,10,-6
17:55:23:90572,-1,4,2,2,1,1,4,-2
17:55:23:106276,-1,4,2,2,1,1,4,-2
17:55:23:107071,8,-4,-2,6,12,6,13,3
17:55:23:113150,-4,-5,-9,-2,-7,-1,-15,0
17:55:23:121267,-4,-5,-9,-2,-7,-1,-15,0
17:55:23:122017,-2,2,6,-16,-7,-2,-14,-4
17:55:23:135547,1,5,4,5,0,-2,-28,-4
17:55:23:143689,1,5,4,5,0,-2,-28,-4
17:55:23:144488,-2,-9,-3,-5,3,-14,-16,-4
17:55:23:150622,-12,-3,-2,-12,4,3,20,1
17:55:23:158731,-12,-3,-2,-12,4,3,20,1
17:55:23:159504,4,2,2,6,-3,0,5,4
17:55:23:173058,1,-1,4,-11,-1,3,-2,1
17:55:23:189398,1,-1,4,-11,-1,3,-2,1
17:55:23:190159,-4,1,3,-4,-3,-3,-25,0
17:55:23:191032,6,-4,-6,-5,-10,-5,5,6
17:55:23:203551,6,-4,-6,-5,-10,-5,5,6
17:55:23:211848,-5,-2,-9,-9,-13,4,10,-4
17:55:23:212603,-6,-4,-4,-10,-1,-23,-4,-6
17:55:23:218826,-6,-4,-4,-10,-1,-23,-4,-6
17:55:23:219488,3,-6,5,6,9,1,4,3
17:55:23:242331,5,0,11,-5,12,-2,-3,1
17:55:23:243136,5,0,11,-5,12,-2,-3,1
17:55:23:243943,-4,1,-6,1,-2,4,-6,-1
17:55:23:248105,0,-1,-3,18,2,9,4,-1
17:55:23:263795,0,-1,-3,18,2,9,4,-1
17:55:23:264580,3,5,6,10,-2,11,-5,-1
17:55:23:270551,-6,5,-1,15,-9,-2,-8,-5
17:55:23:278815,-6,5,-1,15,-9,-2,-8,-5
17:55:23:279518,2,0,-5,-2,4,-9,12,0
17:55:23:301996,-6,-3,2,4,7,20,25,2
17:55:23:302759,-6,-3,2,4,7,20,25,2
17:55:23:303562,0,-2,-2,-4,-5,-8,-3,-2
17:55:23:308004,1,0,3,-6,-7,-8,-10,0
17:55:23:323732,1,0,3,-6,-7,-8,-10,0
17:55:23:324532,-2,0,-4,-19,-3,4,16,1
17:55:23:330692,0,4,6,-30,3,3,-6,-4
17:55:23:338802,0,4,6,-30,3,3,-6,-4
17:55:23:339594,-3,-5,-5,-4,-19,-6,-30,-3
17:55:23:353581,5,-3,-3,2,4,1,18,4
17:55:23:361218,5,-3,-3,2,4,1,18,4
17:55:23:361976,-1,0,4,12,2,12,17,-1
17:55:23:368162,-6,-4,-3,-11,5,-1,-7,-6
17:55:23:384338,-6,-4,-3,-11,5,-1,-7,-6
17:55:23:385094,0,5,13,20,3,-14,-17,-1
17:55:23:390569,6,0,-9,8,-7,5,14,2
17:55:23:398732,6,0,-9,8,-7,5,14,2
17:55:23:399529,-5,-6,-5,2,0,-9,-25,-5
17:55:23:413626,-3,-1,0,-27,-5,-16,-11,-3
17:55:23:421280,-3,-1,0,-27,-5,-16,-11,-3
17:55:23:422158,1,0,3,-15,8,7,38,-1
17:55:23:428035,-3,2,3,3,-3,-6,-12,1
17:55:23:443749,-3,2,3,3,-3,-6,-12,1
17:55:23:444539,-3,-3,-8,-7,1,8,16,-3
17:55:23:450673,-3,-3,-6,-2,-7,-3,-14,-6
17:55:23:466402,-3,-3,-6,-2,-7,-3,-14,-6
17:55:23:467101,-3,-4,-8,-14,-5,0,-9,-1
17:55:23:473099,-1,-1,-3,21,5,-10,-6,0
17:55:23:497051,-1,-1,-3,21,5,-10,-6,0
17:55:23:497690,0,-7,-13,19,-12,-14,-13,0
17:55:23:498557,1,-6,-5,-3,-2,6,5,0
17:55:23:503732,1,-6,-5,-3,-2,6,5,0
17:55:23:504554,0,5,4,0,-5,-5,-9,-1
17:55:23:519385,2,0,4,5,-1,6,9,2
17:55:23:520240,2,0,4,5,-1,6,9,2
17:55:23:521053,-3,-2,-4,-13,-10,-1,-3,-2
17:55:23:533196,-4,-3,-5,1,-2,7,10,-4
17:55:23:541038,-4,-3,-5,1,-2,7,10,-4
17:55:23:549247,-5,-5,1,-16,2,-2,-16,-7
17:55:23:555635,-5,-2,2,1,-3,-7,-51,-6
17:55:23:563911,-5,-2,2,1,-3,-7,-51,-6
17:55:23:564482,0,3,-2,16,10,0,3,0
17:55:23:579368,1,-3,-6,3,0,-4,3,0
17:55:23:580165,1,-3,-6,3,0,-4,3,0
17:55:23:580959,-4,-1,-5,-1,8,7,7,1
17:55:23:593025,0,4,2,-3,-5,2,9,1
17:55:23:601395,0,4,2,-3,-5,2,9,1
17:55:23:602164,-2,-2,0,-23,2,-8,5,-4
17:55:23:608018,1,1,-3,-15,-1,5,-2,1
17:55:23:632010,1,1,-3,-15,-1,5,-2,1
17:55:23:632675,-3,-5,-12,7,0,0,-3,1
17:55:23:633472,-3,1,1,6,5,0,8,-1
17:55:23:638766,-3,1,1,6,5,0,8,-1
17:55:23:639525,1,0,4,2,-1,0,-46,-2
17:55:23:653102,-4,-4,-3,-1,5,-8,3,-1
17:55:23:661207,-4,-4,-3,-1,5,-8,3,-1
17:55:23:661978,-3,1,4,3,-2,-3,3,-1
17:55:23:675542,2,-2,-5,-18,-5,-1,-1,-2
17:55:23:691930,2,-2,-5,-18,-5,-1,-1,-2
17:55:23:692701,3,5,15,1,3,3,12,1
17:55:23:693498,-1,2,12,-19,-6,-3,9,1
17:55:23:698197,-1,2,12,-19,-6,-3,9,1
17:55:23:705612,0,-3,-2,2,-11,6,18,0
17:55:23:713217,0,1,-3,-4,-1,-1,7,1
17:55:23:721234,0,1,-3,-4,-1,-1,7,1
17:55:23:721999,-4,-6,-13,0,-4,-7,-11,-4
17:55:23:744433,-2,-3,-6,16,-9,2,-16,0
17:55:23:745104,-2,-3,-6,16,-9,2,-16,0
17:55:23:746017,-1,2,-2,-15,0,-2,7,-4
17:55:23:750629,2,1,7,15,-2,-4,10,-3
17:55:23:758092,2,1,7,15,-2,-4,10,-3
17:55:23:765649,-4,-1,0,1,-6,1,4,0
17:55:23:773090,1,1,3,8,5,1,5,2
17:55:23:781322,1,1,3,8,5,1,5,2
17:55:23:782010,0,1,7,-12,-3,-6,7,-1
17:55:23:804917,1,-9,-12,5,3,6,0,-3
17:55:23:805649,1,-9,-12,5,3,6,0,-3
17:55:23:806531,3,0,2,-19,-4,-8,17,1
17:55:23:810466,-4,-2,-2,-4,-5,-7,-14,0
17:55:23:818843,-4,-2,-2,-4,-5,-7,-14,0
17:55:23:825578,0,2,4,16,2,-7,-2,-1
17:55:23:833072,-5,-4,-3,-7,-1,-3,-4,-8
17:55:23:841227,-5,-4,-3,-7,-1,-3,-4,-8
17:55:23:842032,-1,-4,1,0,-5,3,4,1
17:55:23:855514,-1,1,-2,-14,-2,-9,-5,-1
17:55:23:863856,-1,1,-2,-14,-2,-9,-5,-1
17:55:23:864490,0,-2,-7,17,6,4,-7,-2
17:55:23:870557,-1,-2,-4,10,8,-8,7,2
17:55:23:878133,-1,-2,-4,10,8,-8,7,2
17:55:23:885604,1,5,15,-18,0,2,-9,0
17:55:23:893010,0,1,6,-8,-1,7,21,-2
17:55:23:908847,0,1,6,-8,-1,7,21,-2
17:55:23:909514,-8,-5,-11,-10,3,2,3,-1
17:55:23:915657,0,0,2,-2,4,2,5,0
17:55:23:923837,0,0,2,-2,4,2,5,0
17:55:23:924633,4,-3,-4,-1,4,21,1,1
17:55:23:930546,-1,-1,-8,5,-5,2,-13,1
17:55:23:938049,-1,-1,-8,5,-5,2,-13,1
17:55:23:945559,-5,-3,6,15,-1,-7,6,0
17:55:23:961556,0,-4,-2,12,-7,13,1,3
17:55:23:968765,0,-4,-2,12,-7,13,1,3
17:55:23:969599,-2,-3,-5,-1,-4,0,3,0
17:55:23:975517,-4,0,-5,-9,-3,0,-5,-3
17:55:23:991920,-4,0,-5,-9,-3,0,-5,-3
17:55:23:992706,2,4,-1,-15,-4,-3,-1,-1
17:55:23:993481,0,-3,-8,4,10,-6,1,0
17:55:24:6022,0,-3,-8,4,10,-6,1,0
17:55:24:22567,1,3,-1,5,4,0,-2,-1
17:55:24:23371,-1,0,6,21,1,2,11,2
17:55:24:24211,-1,0,6,21,1,2,11,2
17:55:24:24940,-11,-2,13,-3,-1,-9,-9,-5
17:55:24:44750,2,5,15,-2,-6,0,-6,-3
17:55:24:51995,2,5,15,-2,-6,0,-6,-3
17:55:24:52741,5,3,2,-6,-7,4,4,8
17:55:24:53534,3,2,14,-10,6,4,-10,2
17:55:24:58033,3,2,14,-10,6,4,-10,2
17:55:24:82659,3,-1,0,-32,-24,22,-6,4
17:55:24:83345,-2,-4,-9,-12,-8,-10,-8,1
17:55:24:84136,-2,-4,-9,-12,-8,-10,-8,1
17:55:24:84948,2,0,-4,-11,-9,-11,-13,-2
17:55:24:104357,4,0,0,8,-5,23,16,2
17:55:24:105224,4,0,0,8,-5,23,16,2
17:55:24:105963,-2,-7,-11,43,17,-8,6,-3
17:55:24:110500,-7,-8,-17,-19,-8,-11,-30,-7
17:55:24:126233,-7,-8,-17,-19,-8,-11,-30,-7
17:55:24:127008,0,1,-2,6,-4,-5,4,0
17:55:24:133081,3,-1,0,18,6,-7,-1,2
17:55:24:141201,3,-1,0,18,6,-7,-1,2
17:55:24:141961,-2,-8,-9,14,2,-18,-8,-6
17:55:24:164438,-1,-4,-7,12,-1,-3,-3,-1
17:55:24:165191,-1,-4,-7,12,-1,-3,-3,-1
17:55:24:165981,-3,-3,-10,-19,-10,-5,-1,-5
17:55:24:170483,2,3,12,-8,2,2,18,3
17:55:24:186694,2,3,12,-8,2,2,18,3
17:55:24:193616,3,-2,-4,22,16,2,6,1
17:55:24:194453,-8,-4,-13,-24,4,-9,-15,-10
17:55:24:201284,-8,-4,-13,-24,4,-9,-15,-10
17:55:24:202012,1,5,10,2,5,-5,-2,1
17:55:24:215559,-1,0,1,4,0,1,-3,1
17:55:24:223747,-1,0,1,4,0,1,-3,1
17:55:24:224498,-3,-2,-6,-1,12,0,-2,-1
17:55:24:238702,-1,-3,-4,14,0,-4,17,-3
17:55:24:239520,-1,-3,-4,14,0,-4,17,-3
17:55:24:245539,0,-6,-2,7,-9,-1,-9,-1
17:55:24:253100,1,-2,-5,-7,-12,-1,-2,-2
17:55:24:293227,1,-2,-5,-7,-12,-1,-2,-2
17:55:24:293982,-6,-1,3,15,1,-3,-51,-9
17:55:24:294780,-2,1,-1,-5,6,2,12,0
17:55:24:295632,-2,1,-1,-5,6,2,12,0
17:55:24:299498,-2,-3,-10,-1,-3,-4,16,4
17:55:24:300141,-2,0,-3,18,2,-12,-5,0
17:55:24:300984,-2,0,-3,18,2,-12,-5,0
17:55:24:305529,1,-1,-14,14,-9,13,7,0
17:55:24:313257,3,-2,-3,3,2,-1,6,0
17:55:24:328711,3,-2,-3,3,2,-1,6,0
17:55:24:329885,-6,-2,-6,-9,-4,9,7,-4
17:55:24:335566,1,1,8,-10,-11,24,2,3
17:55:24:351928,1,1,8,-10,-11,24,2,3
17:55:24:352721,-4,0,4,-14,7,-5,-13,0
17:55:24:353558,-4,-4,-12,1,-2,-9,-23,-2
17:55:24:358002,-4,-4,-12,1,-2,-9,-23,-2
17:55:24:365647,0,-3,3,1,-3,-8,22,0
17:55:24:405754,-1,-3,-3,-16,-10,-7,-7,-6
17:55:24:406548,-1,-3,-3,-16,-10,-7,-7,-6
17:55:24:407378,-3,-4,-4,-10,-10,-9,-6,-1
17:55:24:408114,-3,3,9,-4,-3,-14,11,-1
17:55:24:411861,-3,3,9,-4,-3,-14,11,-1
17:55:24:412715,3,6,20,-9,3,0,6,3
17:55:24:413473,-2,2,7,1,-1,2,-9,-2
17:55:24:418182,-2,2,7,1,-1,2,-9,-2
17:55:24:425526,5,-1,0,-11,-6,15,-2,5
17:55:24:441840,2,-3,-3,-21,-6,-4,-16,-1
17:55:24:442625,2,-3,-3,-21,-6,-4,-16,-1
17:55:24:443423,-2,-2,-6,13,-3,0,5,-1
17:55:24:464438,-3,-2,-5,-16,-1,-4,5,0
17:55:24:465203,-3,-2,-5,-16,-1,-4,5,0
17:55:24:465973,-1,4,4,-21,-3,-4,-1,-1
17:55:24:470528,-5,-5,-8,3,-4,-16,-2,-4
17:55:24:478101,-5,-5,-8,3,-4,-16,-2,-4
17:55:24:494129,3,-2,-6,-5,2,-6,-5,-2
17:55:24:501761,0,-3,-2,4,0,-5,3,2
17:55:24:516978,0,-3,-2,4,0,-5,3,2
17:55:24:517721,-3,-3,-12,5,-14,1,-22,-4
17:55:24:518428,-1,-1,11,-36,6,5,-12,-2
17:55:24:523750,-1,-1,11,-36,6,5,-12,-2
17:55:24:524502,-7,-6,-19,6,1,-9,7,-3
17:55:24:530617,3,5,2,1,2,1,6,-1
17:55:24:538132,3,5,2,1,2,1,6,-1
17:55:24:553699,1,-1,8,-15,7,7,10,2
17:55:24:554455,-2,-4,-7,-28,0,20,23,3
17:55:24:561232,-2,-4,-7,-28,0,20,23,3
17:55:24:561991,-4,-3,3,0,-1,-26,-5,-7
17:55:24:575567,0,-1,-4,17,5,-2,-1,1
17:55:24:583838,0,-1,-4,17,5,-2,-1,1
17:55:24:584536,-1,0,3,-5,2,-1,16,-1
17:55:24:590582,-2,6,19,-13,-5,-5,-9,-3
17:55:24:606253,-2,6,19,-13,-5,-5,-9,-3
17:55:24:607030,4,4,-3,5,7,5,-9,2
17:55:24:629558,1,0,-2,18,-3,-1,-9,-2
17:55:24:630194,1,0,-2,18,-3,-1,-9,-2
17:55:24:630994,-7,-3,-1,-30,-16,31,-1,-1
17:55:24:635549,-3,-4,-15,6,9,-4,-6,-1
17:55:24:643759,-3,-4,-15,6,9,-4,-6,-1
17:55:24:644522,-5,-1,1,-13,-5,-12,-1,-4
17:55:24:683305,0,3,5,-10,-6,9,11,3
17:55:24:684078,0,3,5,-10,-6,9,11,3
17:55:24:684853,5,3,4,1,7,14,3,2
17:55:24:685701,-2,1,4,-32,-4,1,2,0
17:55:24:688736,-2,1,4,-32,-4,1,2,0
17:55:24:689543,-5,1,9,2,7,-22,9,0
17:55:24:695492,2,1,6,13,-10,15,5,-2
17:55:24:703820,2,1,6,13,-10,15,5,-2
17:55:24:704600,-1,-5,-6,18,4,19,13,-2
17:55:24:718807,-6,-2,-3,-20,-10,-2,-5,-4
17:55:24:719597,-6,-2,-3,-20,-10,-2,-5,-4
17:55:24:725522,5,1,11,-4,-9,3,15,0
17:55:24:733146,-2,-5,-13,34,5,-14,2,-1
17:55:24:740621,-2,-5,-13,34,5,-14,2,-1
17:55:24:748210,-3,-1,-5,-17,2,-7,4,-3
17:55:24:755546,0,-3,3,17,11,-2,-4,-2
17:55:24:788335,0,-3,3,17,11,-2,-4,-2
17:55:24:789025,-6,-3,-5,13,0,-8,-21,-3
17:55:24:789852,0,0,0,15,-9,-12,-15,1
17:55:24:790674,0,0,0,15,-9,-12,-15,1
17:55:24:793674,0,-6,-4,4,4,2,-9,-2
17:55:24:794481,-1,3,13,22,8,0,-4,-3
17:55:24:800660,-1,3,13,22,8,0,-4,-3
17:55:24:808011,-2,-2,-5,-8,-5,-10,-19,0
17:55:24:815654,3,-1,-2,3,-10,10,7,1
17:55:24:831239,3,-1,-2,3,-10,10,7,1
17:55:24:831972,-1,0,3,14,0,2,14,-5
17:55:24:846960,-3,-4,-5,-22,-1,-6,-6,1
17:55:24:847647,-3,-4,-5,-22,-1,-6,-6,1
17:55:24:848465,4,1,4,-5,3,1,1,2
17:55:24:853045,0,-4,-4,7,-3,-5,-2,-1
17:55:24:860549,0,-4,-4,7,-3,-5,-2,-1
17:55:24:868123,1,-1,0,1,-9,-14,5,0
17:55:24:884476,-5,-5,-16,2,9,0,-39,-5
17:55:24:885157,-5,-5,-16,2,9,0,-39,-5
17:55:24:885943,-2,0,2,-18,-15,11,-18,-3
17:55:24:898813,-5,-5,1,18,12,-4,17,-2
17:55:24:899565,-5,-5,1,18,12,-4,17,-2
17:55:24:905569,-1,-3,-3,18,4,-2,-3,-3
17:55:24:913070,-5,-4,-10,-23,1,17,-2,-2
17:55:24:920552,-5,-4,-10,-23,1,17,-2,-2
17:55:24:945011,-1,0,-1,1,4,6,7,3
17:55:24:945773,1,3,0,-3,-8,-5,40,5
17:55:24:946656,1,3,0,-3,-8,-5,40,5
17:55:24:947491,1,-2,-4,-6,4,-12,-26,5
17:55:24:958712,-4,0,4,-32,-12,0,18,-1
17:55:24:959507,-4,0,4,-32,-12,0,18,-1
17:55:24:965548,3,4,2,-2,-4,-15,-3,-3
17:55:24:973024,2,-3,-7,14,5,10,-10,3
17:55:24:980727,2,-3,-7,14,5,10,-10,3
17:55:24:996966,-3,-2,-3,2,1,5,5,-2
17:55:24:997651,3,2,-3,-13,-7,-19,-24,-4
17:55:24:998465,3,2,-3,-13,-7,-19,-24,-4
17:55:25:3058,-1,0,-3,4,2,8,24,2
17:55:25:18831,-1,3,3,0,-8,13,-7,-2
17:55:25:19535,-1,3,3,0,-8,13,-7,-2
17:55:25:25478,1,4,18,3,1,5,3,1
17:55:25:33122,-4,-2,5,-9,-7,-7,-8,-8
17:55:25:48770,-4,-2,5,-9,-7,-7,-8,-8
17:55:25:49475,3,-2,-8,5,-1,-1,-2,5
17:55:25:56652,1,-4,-7,41,-2,-8,2,-3
17:55:25:63822,1,-4,-7,41,-2,-8,2,-3
17:55:25:64522,0,-3,-5,17,-4,-1,12,2
17:55:25:78669,4,2,3,-4,-5,2,-7,3
17:55:25:79514,4,2,3,-4,-5,2,-7,3
17:55:25:85698,-2,-2,0,-12,-11,-4,-6,-3
17:55:25:93045,-3,0,-3,-7,5,-11,-13,-1
17:55:25:108707,-3,0,-3,-7,5,-11,-13,-1
17:55:25:109472,-3,-1,-6,-16,-1,-6,-13,0
17:55:25:115587,0,-4,-3,-12,9,1,5,-1
17:55:25:123743,0,-4,-3,-12,9,1,5,-1
17:55:25:124507,-6,-6,-4,-2,-4,-1,0,-6
17:55:25:138732,0,3,4,-22,3,-7,-21,0
17:55:25:139550,0,3,4,-22,3,-7,-21,0
17:55:25:145530,-5,-5,-9,-10,-5,2,-2,-5
17:55:25:161238,0,3,-1,7,5,15,-22,1
17:55:25:162018,0,3,-1,7,5,15,-22,1
17:55:25:168072,0,-3,-3,-12,2,-11,-27,-1
17:55:25:176187,-5,-4,-6,-6,-8,-11,6,-6
17:55:25:176968,-5,-4,-6,-6,-8,-11,6,-6
17:55:25:183124,-2,0,6,-14,8,11,22,-1
17:55:25:198814,1,3,5,-19,-4,4,2,4
17:55:25:199536,1,3,5,-19,-4,4,2,4
17:55:25:221892,-3,-3,-10,-10,-3,8,21,-2
17:55:25:222686,-3,-5,8,-7,-10,-14,-20,-3
17:55:25:223485,-3,-5,8,-7,-10,-14,-20,-3
17:55:25:227970,0,8,7,-5,0,-4,-7,-2
17:55:25:236232,-1,-1,-9,7,3,-8,23,-3
17:55:25:237050,-1,-1,-9,7,3,-8,23,-3
17:55:25:242994,6,3,1,-1,-2,23,12,5
17:55:25:258706,0,-3,4,27,9,6,18,1
17:55:25:259496,0,-3,4,27,9,6,18,1
17:55:25:265579,-3,-6,-11,16,10,-6,-28,-2
17:55:25:273010,4,-1,-3,-7,-5,22,1,6
17:55:25:280713,4,-1,-3,-7,-5,22,1,6
17:55:25:296879,-1,-1,-4,9,-8,-3,17,-6
17:55:25:297659,0,2,-7,8,-8,10,10,0
17:55:25:298488,0,2,-7,8,-8,10,10,0
17:55:25:303082,-4,0,0,-9,5,-6,-9,1
17:55:25:318795,-6,-5,-7,-5,-3,-1,2,-6
17:55:25:319503,-6,-5,-7,-5,-3,-1,2,-6
17:55:25:325551,7,8,12,9,-3,-3,-18,2
17:55:25:333106,5,4,9,17,18,-3,9,3
17:55:25:340555,5,4,9,17,18,-3,9,3
17:55:25:348065,3,1,3,-1,-3,4,9,0
17:55:25:356221,4,4,-2,-7,-10,-1,-6,0
17:55:25:357007,4,4,-2,-7,-10,-1,-6,0
17:55:25:363195,0,-1,14,10,3,-11,-6,1
17:55:25:386838,-2,3,13,-20,-9,1,-1,-2
17:55:25:387680,-2,3,13,-20,-9,1,-1,-2
17:55:25:388514,-7,-4,-8,-1,-22,0,-25,-6
17:55:25:393029,-8,0,10,-22,-6,-4,-19,-7
17:55:25:400666,-8,0,10,-22,-6,-4,-19,-7
17:55:25:407965,-6,-3,-8,-17,-3,-9,3,-7
17:55:25:416250,-3,-6,-11,4,0,-2,3,-2
17:55:25:417072,-3,-6,-11,4,0,-2,3,-2
17:55:25:423048,1,0,6,-25,-3,3,-18,2
17:55:25:438766,1,1,-3,9,-4,-1,-20,-2
17:55:25:439600,1,1,-3,9,-4,-1,-20,-2
17:55:25:445463,-1,-4,-8,30,4,-12,7,-3
17:55:25:453073,-1,-1,-7,-14,14,14,22,1
17:55:25:460554,-1,-1,-7,-14,14,14,22,1
17:55:25:468124,-9,-5,-9,2,-3,-6,33,-3
17:55:25:476204,0,-3,-11,1,-11,-14,-11,-2
17:55:25:477004,0,-3,-11,1,-11,-14,-11,-2
17:55:25:483095,-1,0,-7,2,4,-2,32,-2
17:55:25:498836,-2,-8,-10,2,-4,-9,27,-3
17:55:25:499553,-2,-8,-10,2,-4,-9,27,-3
17:55:25:505534,-2,0,2,17,9,-4,0,1
17:55:25:513146,-10,-5,-4,14,3,-7,24,0
17:55:25:520568,-10,-5,-4,14,3,-7,24,0
17:55:25:528003,-3,0,8,-9,1,1,-37,-3
17:55:25:535490,-3,-7,-18,18,-4,-1,-5,-2
17:55:25:551319,-3,-7,-18,18,-4,-1,-5,-2
17:55:25:552023,-1,-5,-4,16,-8,-20,-11,1
17:55:25:558690,-3,2,-9,-1,9,0,4,-4
17:55:25:559487,-3,2,-9,-1,9,0,4,-4
17:55:25:565619,6,0,6,6,7,2,-8,3
17:55:25:581360,5,0,2,-9,2,7,13,10
17:55:25:582024,5,0,2,-9,2,7,13,10
17:55:25:588067,-4,-4,-3,-22,8,-6,-6,-4
17:55:25:596228,-2,-2,0,-6,-7,1,-4,-4
17:55:25:597070,-2,-2,0,-6,-7,1,-4,-4
17:55:25:610483,3,-1,0,17,-7,-1,4,1
17:55:25:618823,3,-1,0,17,-7,-1,4,1
17:55:25:619523,-2,2,10,0,-2,-18,-23,-1
17:55:25:625595,-3,-4,-5,-8,-7,-3,-5,-4
17:55:25:641176,4,3,4,-5,13,9,-6,2
17:55:25:641993,4,3,4,-5,13,9,-6,2
17:55:25:648088,2,7,1,-28,3,18,-54,-1
17:55:25:656226,0,-4,-1,-17,-4,-11,-7,-2
17:55:25:657013,0,-4,-1,-17,-4,-11,-7,-2
17:55:25:670559,0,1,-6,-4,-6,-21,20,-2
17:55:25:678712,-3,0,4,-12,-6,-3,-12,-7
17:55:25:679520,-3,0,4,-12,-6,-3,-12,-7
17:55:25:685515,-1,-2,3,-14,4,-4,5,-3
17:55:25:701037,1,0,-3,22,-7,13,30,3
17:55:25:708526,1,0,-3,22,-7,13,30,3
17:55:25:716289,-3,-4,-12,25,-3,12,7,2
17:55:25:717024,-3,-4,-2,-10,7,-11,-9,0
17:55:25:723106,-3,-4,-2,-10,7,-11,-9,0
17:55:25:730637,-2,0,8,-1,-1,5,7,3
17:55:25:738748,-9,0,8,-4,-4,7,-9,-4
17:55:25:739559,-9,0,8,-4,-4,7,-9,-4
17:55:25:745509,3,9,11,-29,-11,8,13,-1
17:55:25:761220,5,7,24,1,2,5,-3,2
17:55:25:761999,5,7,24,1,2,5,-3,2
17:55:25:768062,-5,-8,-9,-20,-10,0,-10,-2
17:55:25:776207,0,-4,-9,22,5,-8,-12,-2
17:55:25:776984,0,-4,-9,22,5,-8,-12,-2
17:55:25:790500,-1,-1,-2,40,1,-18,-5,-1
17:55:25:798709,-1,-7,-13,-20,-10,-8,2,0
17:55:25:799506,-1,-7,-13,-20,-10,-8,2,0
17:55:25:805509,3,2,-2,-2,-9,16,-15,3
17:55:25:829996,0,-1,-5,10,-4,-8,-17,-1
17:55:25:830796,0,-1,-5,10,-4,-8,-17,-1
17:55:25:831603,-11,-2,2,0,7,-7,2,-4
17:55:25:836243,-2,0,-7,-28,-5,3,-9,-4
17:55:25:836998,-2,0,-7,-28,-5,3,-9,-4
17:55:25:850579,-3,-10,-11,9,12,-1,18,-6
17:55:25:858742,-5,-2,4,5,3,-9,-14,4
17:55:25:859526,-5,-2,4,5,3,-9,-14,4
17:55:25:865653,2,4,-4,-4,-2,-6,8,0
17:55:25:881035,2,0,10,-9,2,5,1,-6
17:55:25:888770,2,0,10,-9,2,5,1,-6
17:55:25:889570,1,-3,-6,-15,8,4,22,3
17:55:25:896216,-9,-6,-16,-3,1,1,12,3
17:55:25:896992,-9,-6,-16,-3,1,1,12,3
17:55:25:910525,-2,1,-1,-10,-8,-11,5,-3
17:55:25:918848,-2,1,-1,-10,-8,-11,5,-3
17:55:25:919571,-2,-6,-7,8,2,4,7,-3
17:55:25:925520,0,-4,-4,-8,-8,16,-13,-1
17:55:25:941242,0,-4,-4,-8,-8,16,-13,-1
17:55:25:941990,2,3,2,-50,-13,22,6,4
17:55:25:948182,0,-2,-1,34,0,-15,-10,1
17:55:25:964261,0,-2,-1,34,0,-15,-10,1
17:55:25:971247,-2,0,-3,16,-8,-2,-9,-5
17:55:25:971995,1,7,20,-26,-9,-1,-5,0
17:55:25:978759,1,7,20,-26,-9,-1,-5,0
17:55:25:979513,-4,-7,-8,17,1,-11,1,-3
17:55:25:985581,-10,-7,-6,-1,8,-8,-41,-4
17:55:26:1374,-10,-7,-6,-1,8,-8,-41,-4
17:55:26:2095,4,6,2,-16,-2,8,11,-4
17:55:26:7995,5,4,4,26,6,-2,1,0
17:55:26:23752,5,4,4,26,6,-2,1,0
17:55:26:24528,-1,6,5,0,1,-6,-7,-10
17:55:26:30509,-4,-5,0,1,-6,11,5,-4
17:55:26:38783,-4,-5,0,1,-6,11,5,-4
17:55:26:39576,-2,1,3,18,6,0,4,1
17:55:26:53177,0,1,8,-9,0,-1,-13,-1
17:55:26:61218,0,1,8,-9,0,-1,-13,-1
17:55:26:62017,1,-1,-3,31,-6,-16,-6,2
17:55:26:68053,-3,-3,-16,-24,-11,-1,10,2
17:55:26:83831,-3,-3,-16,-24,-11,-1,10,2
17:55:26:84510,2,1,-6,-1,2,0,16,1
17:55:26:90505,-1,1,4,0,2,-12,17,1
17:55:26:98775,-1,1,4,0,2,-12,17,1
17:55:26:99541,-3,-5,6,16,1,-5,-5,2
17:55:26:113107,6,3,2,-11,2,1,-8,-1
17:55:26:121235,6,3,2,-11,2,1,-8,-1
17:55:26:121992,3,0,-1,13,14,17,-10,1
17:55:26:127974,-9,-14,-21,30,-8,0,-6,-4
17:55:26:135647,-9,-14,-21,30,-8,0,-6,-4
17:55:26:142993,-2,-1,3,-19,-9,-3,-6,-1
17:55:26:150544,0,2,-5,-6,-2,7,19,-2
17:55:26:158744,0,2,-5,-6,-2,7,19,-2
17:55:26:159509,-4,-6,-5,-18,0,-5,3,-2
17:55:26:165629,2,-1,0,9,9,-2,16,1
17:55:26:181323,2,-1,0,9,9,-2,16,1
17:55:26:182020,5,1,2,-5,-6,12,19,-1
17:55:26:188043,-3,-4,-6,-12,12,-3,9,3
17:55:26:195617,-3,-4,-6,-12,12,-3,9,3
17:55:26:203062,0,1,2,-11,-2,0,-13,-1
17:55:26:210491,-2,-3,4,22,-3,6,-9,-5
17:55:26:219446,-2,-3,4,22,-3,6,-9,-5
17:55:26:220245,-2,-3,-10,18,-7,-1,10,-4
17:55:26:225503,-1,1,0,-14,-5,3,-25,-1
17:55:26:241249,-1,1,0,-14,-5,3,-25,-1
17:55:26:242018,6,4,10,6,5,-10,7,5
17:55:26:248117,-2,3,7,-20,0,-2,-1,-2
17:55:26:255620,-2,3,7,-20,0,-2,-1,-2
17:55:26:271215,7,6,5,10,3,45,5,5
17:55:26:271994,-1,-2,5,-17,-3,-15,-11,-5
17:55:26:278788,-1,-2,5,-17,-3,-15,-11,-5
17:55:26:279587,-5,-8,-13,-9,-8,-23,-24,-3
17:55:26:285561,-1,-3,-5,4,9,20,-11,-3
17:55:26:301300,-1,-3,-5,4,9,20,-11,-3
17:55:26:302010,-2,3,1,-5,-15,-21,-23,-4
17:55:26:307960,4,4,9,-12,-4,-38,10,1
17:55:26:323745,4,4,9,-12,-4,-38,10,1
17:55:26:324475,-2,1,19,-32,-4,-4,11,0
17:55:26:330595,1,-5,-4,-5,-9,-18,-4,7
17:55:26:338738,1,-5,-4,-5,-9,-18,-4,7
17:55:26:339541,0,10,7,-51,6,6,1,-3
17:55:26:345522,-1,4,5,2,-3,18,-5,-3
17:55:26:361254,-1,4,5,2,-3,18,-5,-3
17:55:26:361983,-3,-10,-11,18,0,-18,-49,-1
17:55:26:368103,4,-4,-17,20,2,16,4,6
17:55:26:375626,4,-4,-17,20,2,16,4,6
17:55:26:391195,-3,6,9,-14,4,-2,27,-4
17:55:26:391976,-2,-3,-7,-6,-12,-10,5,-4
17:55:26:398829,-2,-3,-7,-6,-12,-10,5,-4
17:55:26:399494,1,-4,6,11,-4,7,-2,1
17:55:26:405472,0,0,-2,-4,0,6,-12,0
17:55:26:421256,0,0,-2,-4,0,6,-12,0
17:55:26:422042,-6,-8,-18,31,6,-6,14,-1
17:55:26:436238,-3,3,6,0,8,6,-4,-6
17:55:26:437023,-3,3,6,0,8,6,-4,-6
17:55:26:443027,0,-9,-17,-12,-10,18,15,1
17:55:26:450656,1,-7,-7,5,-6,10,8,0
17:55:26:458695,1,-7,-7,5,-6,10,8,0
17:55:26:459466,1,3,7,15,-1,11,-21,1
17:55:26:465512,-1,-3,-1,-9,-5,2,-18,-1
17:55:26:481310,-1,-3,-1,-9,-5,2,-18,-1
17:55:26:482010,-5,-7,-16,-3,5,-6,16,-2
17:55:26:488081,0,2,-5,12,1,-21,-23,-2
17:55:26:503734,0,2,-5,12,1,-21,-23,-2
17:55:26:504576,1,0,-1,15,9,-13,2,-3
17:55:26:510523,-5,-5,-5,-20,1,12,22,-2
17:55:26:518766,-5,-5,-5,-20,1,12,22,-2
17:55:26:519499,0,2,9,-41,-1,10,-34,-1
17:55:26:533130,0,-3,1,6,-4,-2,11,3
17:55:26:541233,0,-3,1,6,-4,-2,11,3
17:55:26:541954,-2,-7,-12,63,1,-26,3,-1
17:55:26:548111,-5,-7,-16,17,5,-4,4,-1
17:55:26:563842,-5,-7,-16,17,5,-4,4,-1
17:55:26:564515,-5,-7,-12,4,-3,1,14,-2
17:55:26:570551,-1,1,-2,-5,-10,4,17,2
17:55:26:578688,-1,1,-2,-5,-10,4,17,2
17:55:26:579486,1,-2,-4,4,9,-6,-31,-1
17:55:26:593006,6,2,0,3,-2,15,16,6
17:55:26:601400,6,2,0,3,-2,15,16,6
17:55:26:602109,-2,3,4,-37,-20,1,23,-2
17:55:26:616377,-1,-2,-4,5,8,-26,3,-2
17:55:26:617044,-1,-2,-4,5,8,-26,3,-2
17:55:26:623051,-5,6,2,5,2,14,8,5
17:55:26:630688,-3,0,2,3,0,0,10,-3
17:55:26:638785,-3,0,2,3,0,0,10,-3
17:55:26:639545,0,-3,-3,7,-1,1,15,-1
17:55:26:653562,-4,0,-1,11,4,-4,-35,-6
17:55:26:661250,-4,0,-1,11,4,-4,-35,-6
17:55:26:662000,-3,-1,9,-8,-15,-7,-13,-6
17:55:26:668113,-4,-8,-9,13,8,-9,0,-6
17:55:26:675616,-4,-8,-9,13,8,-9,0,-6
17:55:26:683120,1,3,-4,-25,-10,1,0,0
17:55:26:690577,0,2,6,-18,-16,3,4,2
17:55:26:698815,0,2,6,-18,-16,3,4,2
17:55:26:699556,-1,3,19,-23,-6,0,2,0
17:55:26:713191,7,8,18,-16,-7,12,2,2
17:55:26:729485,7,8,18,-16,-7,12,2,2
17:55:26:730173,7,-4,-11,4,1,30,3,2
17:55:26:730967,-3,3,2,13,0,-1,11,-1
17:55:26:735595,-3,3,2,13,0,-1,11,-1
17:55:26:743033,-3,2,3,-8,0,-12,-58,-6
17:55:26:750625,5,-2,-4,-1,-4,33,13,3
17:55:26:766336,5,-2,-4,-1,-4,33,13,3
17:55:26:767027,-4,-6,-8,-2,-7,-13,13,-2
17:55:26:773028,-2,5,5,-16,-11,-3,-11,2
17:55:26:781274,-2,5,5,-16,-11,-3,-11,2
17:55:26:782014,0,-4,-8,-4,3,-16,-10,-3
17:55:26:788058,-3,-2,-1,-17,-3,6,15,-5
17:55:26:795604,-3,-2,-1,-17,-3,6,15,-5
17:55:26:803042,-1,-1,9,-9,4,12,18,1
17:55:26:819402,-9,0,6,-3,3,21,-35,-4
17:55:26:820169,-9,0,6,-3,3,21,-35,-4
17:55:26:821028,-2,0,-2,31,11,-3,29,-1
17:55:26:841898,-4,-2,0,-40,-5,4,-34,-2
17:55:26:842623,-4,-2,0,-40,-5,4,-34,-2
17:55:26:843457,-1,-4,-7,0,0,-4,7,-3
17:55:26:848123,-1,-3,-10,-10,-4,-16,15,0
17:55:26:855575,-1,-3,-10,-10,-4,-16,15,0
17:55:26:863017,-3,-5,-6,18,2,6,2,-2
17:55:26:870518,3,1,7,6,-5,-5,3,0
17:55:26:879394,3,1,7,6,-5,-5,3,0
17:55:26:880132,-2,2,-2,9,2,-3,-1,-1
17:55:26:893041,-3,-6,-13,-7,-8,0,10,-4
17:55:26:901383,-3,-6,-13,-7,-8,0,10,-4
17:55:26:902086,2,1,-5,4,-4,-12,-8,1
17:55:26:907974,6,7,5,-35,2,-20,26,0
17:55:26:915678,6,7,5,-35,2,-20,26,0
17:55:26:931295,-1,-2,-5,-14,-5,-2,-19,-3
17:55:26:932028,-2,-6,-8,37,9,-6,4,0
17:55:26:938735,-2,-6,-8,37,9,-6,4,0
17:55:26:939501,-1,2,1,-4,3,-10,-9,-1
17:55:26:953556,-1,-6,-6,-9,-12,-10,-18,0
17:55:26:961194,-1,-6,-6,-9,-12,-10,-18,0
17:55:26:961996,-6,-3,-1,-10,1,3,-1,0
17:55:26:968171,-8,-7,-6,-9,-6,-7,-46,-9
17:55:26:975563,-8,-7,-6,-9,-6,-7,-46,-9
17:55:26:991217,3,-1,4,8,-9,15,10,0
17:55:26:991976,-2,-2,-7,31,10,-5,-22,0
17:55:27:6289,-2,-2,-7,31,10,-5,-22,0
17:55:27:7056,-4,-3,0,-1,1,-3,-7,-6
17:55:27:13019,3,0,0,-3,9,19,22,3
17:55:27:21290,3,0,0,-3,9,19,22,3
17:55:27:22096,-1,-1,2,7,5,-6,7,-1
17:55:27:28018,1,6,11,-30,-8,17,1,2
17:55:27:44147,1,6,11,-30,-8,17,1,2
17:55:27:51291,-1,-3,-1,7,0,-6,17,-1
17:55:27:52024,-1,-1,-7,26,7,-16,13,-1
17:55:27:58513,-1,-1,-7,26,7,-16,13,-1
17:55:27:65565,1,-7,-12,1,0,-6,-6,4
17:55:27:73066,-4,-2,4,18,2,3,15,-3
17:55:27:81377,-4,-2,4,18,2,3,15,-3
17:55:27:82007,-2,1,4,-8,-1,-7,2,-2
17:55:27:96223,2,3,-1,4,-2,-3,8,1
17:55:27:97026,2,3,-1,4,-2,-3,8,1
17:55:27:103113,1,8,16,-4,-9,16,-17,2
17:55:27:110504,-5,0,7,-22,5,0,-26,-4
17:55:27:118837,-5,0,7,-22,5,0,-26,-4
17:55:27:119519,0,1,-2,-1,13,6,4,1
17:55:27:133113,1,-6,-4,7,-6,-6,8,-1
17:55:27:141246,1,-6,-4,7,-6,-6,8,-1
17:55:27:142037,-1,1,-4,-10,6,-13,-12,-9
17:55:27:148131,9,0,0,9,-14,40,21,5
17:55:27:155581,9,0,0,9,-14,40,21,5
17:55:27:163085,-3,2,9,-32,-8,-5,6,-4
17:55:27:170561,-1,1,-3,10,-9,-13,-38,1
17:55:27:178775,-1,1,-3,10,-9,-13,-38,1
17:55:27:179546,2,0,-3,-2,-5,7,-6,1
17:55:27:193013,-2,-1,5,-38,0,-15,3,0
17:55:27:208594,-2,-1,5,-38,0,-15,3,0
17:55:27:216926,-6,-5,-5,6,-4,-10,0,3
17:55:27:217637,-1,-3,-5,3,8,-8,7,7
17:55:27:218507,-1,-3,-5,3,8,-8,7,7
17:55:27:223053,-2,-5,-1,-5,1,23,-14,-2
17:55:27:230519,-8,-2,-2,10,-2,-6,11,-6
17:55:27:238692,-8,-2,-2,10,-2,-6,11,-6
17:55:27:239534,-2,-2,0,-2,3,5,9,0
17:55:27:253158,0,6,9,-8,-9,-9,-11,-4
17:55:27:261177,0,6,9,-8,-9,-9,-11,-4
17:55:27:261956,-3,-1,-7,15,0,-12,20,0
17:55:27:268103,-4,-8,-8,-9,8,8,-1,-3
17:55:27:275538,-4,-8,-8,-9,8,8,-1,-3
17:55:27:282991,0,-1,-5,17,-2,-17,6,2
17:55:27:290606,-3,-4,-7,6,-4,-7,2,-3
17:55:27:298953,-3,-4,-7,6,-4,-7,2,-3
17:55:27:299506,-3,-3,0,-10,-6,-6,-22,-1
17:55:27:321924,-4,-4,-1,6,9,-6,-22,-5
17:55:27:322742,-4,-4,-1,6,9,-6,-22,-5
17:55:27:323543,-7,0,-8,14,4,-7,9,-5
17:55:27:328047,1,6,9,0,7,1,-14,-3
17:55:27:343739,1,6,9,0,7,1,-14,-3
17:55:27:344510,5,0,-5,8,1,2,11,5
17:55:27:350634,-3,0,-3,1,-2,-3,-1,-3
17:55:27:358784,-3,0,-3,1,-2,-3,-1,-3
17:55:27:359524,5,5,2,-13,0,-5,-21,-1
17:55:27:373053,0,3,-4,-2,6,-5,8,-3
17:55:27:381249,0,3,-4,-2,6,-5,8,-3
17:55:27:382125,2,8,5,-16,-1,5,11,-1
17:55:27:388072,-4,0,-2,-23,-6,-6,-5,-6
17:55:27:395598,-4,0,-2,-23,-6,-6,-5,-6
17:55:27:403165,-7,-8,-8,16,-1,-3,3,-2
17:55:27:410527,-1,1,-13,26,-8,-7,-46,-5
17:55:27:418874,-1,1,-13,26,-8,-7,-46,-5
17:55:27:419547,0,4,3,4,1,3,-8,-3
17:55:27:441921,-4,-10,1,8,4,0,14,0
17:55:27:442673,-4,-10,1,8,4,0,14,0
17:55:27:443449,-4,-7,-9,-4,0,1,-8,1
17:55:27:456267,3,2,5,-4,0,15,3,9
17:55:27:457072,3,2,5,-4,0,15,3,9
17:55:27:463046,-5,-10,1,-7,-5,-3,-4,-3
17:55:27:470623,19,24,0,7,8,6,30,6
17:55:27:487453,19,24,0,7,8,6,30,6
17:55:27:493678,-3,8,10,-6,-5,10,5,-2
17:55:27:494462,-8,-5,-2,-6,-12,-9,-7,-1
17:55:27:508700,-8,-5,-2,-6,-12,-9,-7,-1
17:55:27:509464,-2,-3,1,-10,-6,-3,0,-5
17:55:27:515613,9,0,4,-8,-6,1,8,0
17:55:27:523741,9,0,4,-8,-6,1,8,0
17:55:27:524540,-4,-11,-7,-11,-2,-1,3,2
17:55:27:530600,-2,2,0,7,1,-2,5,-4
17:55:27:546185,-2,2,0,7,1,-2,5,-4
17:55:27:546949,10,10,0,0,-2,26,3,1
17:55:27:553110,-4,-12,8,-19,-4,-14,-6,1
17:55:27:561203,-4,-12,8,-19,-4,-14,-6,1
17:55:27:561985,-2,-5,-8,-3,-1,-21,-7,-3
17:55:27:576214,-7,-8,1,-16,-4,2,-5,1
17:55:27:576988,-7,-8,1,-16,-4,2,-5,1
17:55:27:583108,4,-2,-4,4,-1,0,5,1
17:55:27:590579,-2,0,-5,4,1,-2,11,0
17:55:27:606276,-2,0,-5,4,1,-2,11,0
17:55:27:607072,-2,-1,2,0,-5,-3,-10,0
17:55:27:621008,-4,0,-5,13,9,3,3,-4
17:55:27:628729,-4,0,-5,13,9,3,3,-4
17:55:27:629500,1,-8,5,-2,1,1,23,3
17:55:27:636298,-8,-9,-5,-18,-11,3,16,-8
17:55:27:636990,-8,-9,-5,-18,-11,3,16,-8
17:55:27:659362,-2,-3,-8,2,2,-10,-25,-2
17:55:27:660141,-2,-2,-1,1,6,11,-3,0
17:55:27:660969,-2,-2,-1,1,6,11,-3,0
17:55:27:665619,-2,-2,-4,-9,0,-3,3,-1
17:55:27:673067,0,-3,-2,9,0,0,-7,-1
17:55:27:681243,0,-3,-2,9,0,0,-7,-1
17:55:27:682044,0,1,5,-1,-2,4,-2,-1
17:55:27:696239,0,-4,-6,-20,-11,-8,-12,-1
17:55:27:697034,0,-4,-6,-20,-11,-8,-12,-1
17:55:27:703154,-3,0,6,14,-2,3,5,-1
17:55:27:718753,0,0,8,21,9,-2,9,1
17:55:27:719562,0,0,8,21,9,-2,9,1
17:55:27:725482,3,-1,-7,12,2,-3,-17,-2
17:55:27:733043,0,-3,-8,5,3,-13,6,-1
17:55:27:741236,0,-3,-8,5,3,-13,6,-1
17:55:27:741993,-1,1,0,-7,-6,-7,-1,-1
17:55:27:756218,-3,0,-3,-3,4,-6,-7,1
17:55:27:757014,-3,0,-3,-3,4,-6,-7,1
17:55:27:771221,-2,2,2,-16,8,2,6,-2
17:55:27:772026,4,4,1,-12,-4,3,-8,1
17:55:27:786273,4,4,1,-12,-4,3,-8,1
17:55:27:787051,-1,-5,-6,-5,-1,-2,2,3
17:55:27:792999,5,5,7,9,1,7,2,-1
17:55:27:801298,5,5,7,9,1,7,2,-1
17:55:27:802090,-1,-2,-1,-8,-2,-1,-5,-3
17:55:27:832698,-9,-9,-12,-2,-5,-5,-25,-2
17:55:27:833316,-9,-9,-12,-2,-5,-5,-25,-2
17:55:27:834170,-6,3,2,-5,-2,-8,-30,-8
17:55:27:834966,-10,-6,-2,-3,-3,6,9,1
17:55:27:838104,-10,-6,-2,-3,-3,6,9,1
17:55:27:845535,-1,-3,0,1,-6,3,8,1
17:55:27:853060,0,-5,-1,-5,-2,-1,-7,-6
17:55:27:861242,0,-5,-1,-5,-2,-1,-7,-6
17:55:27:861991,7,0,-3,10,2,2,9,5
17:55:27:884312,-5,5,7,-8,-2,4,2,0
17:55:27:885009,-5,5,7,-8,-2,4,2,0
17:55:27:899505,-4,-4,-9,6,-4,-4,-53,-5
17:55:27:900170,0,-7,-15,10,0,-7,-10,-6
17:55:27:900982,0,-7,-15,10,0,-7,-10,-6
17:55:27:905531,-6,-4,2,-13,0,2,8,1
17:55:27:913195,15,13,3,4,-1,1,-2,0
17:55:27:938264,15,13,3,4,-1,1,-2,0
17:55:27:939050,-3,-6,-8,4,-7,-3,25,0
17:55:27:939872,-9,3,7,-6,5,-1,13,5
17:55:27:940691,-9,3,7,-6,5,-1,13,5
17:55:27:942970,3,4,3,1,1,-6,-1,1
17:55:27:950578,-3,-7,-4,5,-2,-3,5,3
17:55:27:958015,-3,-7,-4,5,-2,-3,5,3
17:55:27:965627,-10,-8,-6,-17,1,-1,22,-6
17:55:27:973071,-1,-5,-7,-2,-4,7,1,-2
17:55:27:981147,-1,-5,-7,-2,-4,7,1,-2
17:55:27:997064,-6,-1,-10,-1,-2,5,8,-4
17:55:27:997663,10,-1,4,-5,1,-5,-26,-3
17:55:27:998562,10,-1,4,-5,1,-5,-26,-3
17:55:28:11145,-1,-4,0,1,2,3,8,0
17:55:28:11910,1,-2,-3,-9,-4,-1,6,5
17:55:28:18146,1,-2,-3,-9,-4,-1,6,5
17:55:28:25545,9,2,3,-6,5,3,-4,10
17:55:28:49417,-9,-7,-9,-39,-1,-4,12,-3
17:55:28:50138,-9,-7,-9,-39,-1,-4,12,-3
17:55:28:50939,-4,7,6,-1,-1,1,1,-4
17:55:28:56137,-6,-5,-3,7,-4,1,37,-2
17:55:28:57040,-6,-5,-3,7,-4,1,37,-2
17:55:28:63172,-5,-7,-1,-8,-5,3,4,-1
17:55:28:70514,-4,4,-2,3,-4,-4,-25,-6
17:55:28:78096,-4,4,-2,3,-4,-4,-25,-6
17:55:28:85490,-4,9,14,-32,4,-2,-10,-4
17:55:28:109340,4,7,2,13,8,2,9,1
17:55:28:110129,4,7,2,13,8,2,9,1
17:55:28:110963,4,3,9,3,0,-2,2,0
17:55:28:116314,-16,-15,-8,13,5,6,0,-9
17:55:28:117045,-16,-15,-8,13,5,6,0,-9
17:55:28:123041,-9,-17,-10,12,8,4,11,-3
17:55:28:130668,-2,-4,-6,18,-6,-1,9,-2
17:55:28:138138,-2,-4,-6,18,-6,-1,9,-2
17:55:28:145509,7,4,0,1,-2,-2,31,3
17:55:28:161895,-2,-2,0,-1,13,2,11,-8
17:55:28:162649,-2,-2,0,-1,13,2,11,-8
17:55:28:163476,6,-4,-17,13,-10,-8,-10,-1
17:55:28:176643,2,-1,9,-1,-6,0,-21,-1
17:55:28:177437,2,-1,9,-1,-6,0,-21,-1
17:55:28:191158,3,-4,-1,14,0,3,-11,8
17:55:28:191990,2,-5,-9,-11,-6,-2,16,7
17:55:28:198360,2,-5,-9,-11,-6,-2,16,7
17:55:28:213651,-14,5,0,-3,-1,-8,-32,-5
17:55:28:214494,9,-5,-7,6,-8,-2,-10,5
17:55:28:221306,9,-5,-7,6,-8,-2,-10,5
17:55:28:222074,0,1,-3,-5,-3,1,5,-6
17:55:28:236257,-3,8,8,3,3,0,-7,-2
17:55:28:237027,-3,8,8,3,3,0,-7,-2
17:55:28:243033,9,5,5,0,-4,-1,5,-3
17:55:28:250634,-10,-1,2,13,-11,-4,-25,-10
17:55:28:258134,-10,-1,2,13,-11,-4,-25,-10
17:55:28:273668,-2,-11,-8,10,-3,-2,-5,1
17:55:28:274438,1,10,-5,-2,2,-1,-2,-4
17:55:28:281366,1,10,-5,-2,2,-1,-2,-4
17:55:28:281981,0,7,8,-8,-5,-3,-4,-4
17:55:28:296168,12,11,-1,-5,-7,3,-3,4
17:55:28:296984,12,11,-1,-5,-7,3,-3,4
17:55:28:303025,-22,-41,-16,-11,-9,-4,-36,-6
17:55:28:326864,3,17,13,-19,-3,-8,22,4
17:55:28:327652,3,17,13,-19,-3,-8,22,4
17:55:28:328449,-15,-11,-8,6,-3,2,13,-5
17:55:28:341897,4,-2,2,-6,-3,-1,-35,-2
17:55:28:342657,4,-2,2,-6,-3,-1,-35,-2
17:55:28:343449,11,12,4,6,-1,-1,10,9
17:55:28:356197,5,7,-8,0,-1,6,30,4
17:55:28:356997,5,7,-8,0,-1,6,30,4
17:55:28:363001,2,8,11,2,1,3,-8,-5
17:55:28:395019,-13,-18,-5,1,-2,-1,10,1
17:55:28:395803,-13,-18,-5,1,-2,-1,10,1
17:55:28:396598,13,7,-7,-13,4,1,-5,3
17:55:28:397436,-6,-9,0,9,-3,2,-14,-7
17:55:28:400628,-6,-9,0,9,-3,2,-14,-7
17:55:28:408020,-2,4,-3,4,-4,4,10,-2
17:55:28:416235,10,1,-14,12,4,2,33,4
17:55:28:417046,10,1,-14,12,4,2,33,4
17:55:28:423145,5,8,-1,13,13,-5,-27,1
17:55:28:438748,0,0,8,-7,0,-9,-19,0
17:55:28:439590,0,0,8,-7,0,-9,-19,0
17:55:28:453672,-5,-5,-10,-8,2,-2,50,-1
17:55:28:454526,-1,-7,1,-1,-1,5,-13,-2
17:55:28:460545,-1,-7,1,-1,-1,5,-13,-2
17:55:28:468092,-7,1,5,13,1,-1,-5,-4
17:55:28:490964,-6,-12,-8,8,7,-6,9,1
17:55:28:500124,-6,-12,-8,8,7,-6,9,1
17:55:28:500859,11,11,-1,-18,-7,-2,-12,2
17:55:28:501639,-8,2,2,0,4,-3,2,-4
17:55:28:502495,-8,2,2,0,4,-3,2,-4
17:55:28:505500,0,-13,-11,-12,2,1,-5,-2
17:55:28:513098,5,4,13,-10,0,5,12,-3
17:55:28:520607,5,4,13,-10,0,5,12,-3
17:55:28:527986,-4,0,4,-6,-1,-7,0,1
17:55:28:551959,4,-4,-19,-13,2,-3,-3,-1
17:55:28:552680,4,-4,-19,-13,2,-3,-3,-1
17:55:28:553498,-5,-6,16,11,-8,-7,3,-3
17:55:28:558651,-1,-7,3,-8,-10,-11,8,2
17:55:28:559469,-1,-7,3,-8,-10,-11,8,2
17:55:28:565656,-2,-7,-8,-6,-5,-2,6,-1
17:55:28:573080,-1,5,7,-7,-9,-3,-12,1
17:55:28:580716,-1,5,7,-7,-9,-3,-12,1
17:55:28:588067,1,-4,1,-9,5,7,23,3
17:55:28:604346,-5,-6,-1,-18,-13,-6,-14,-3
17:55:28:605159,-5,-6,-1,-18,-13,-6,-14,-3
17:55:28:605993,13,23,20,-1,5,11,37,-2
17:55:28:618765,-15,-18,-17,1,2,-4,-16,-5
17:55:28:619573,-15,-18,-17,1,2,-4,-16,-5
17:55:28:625529,-5,-15,-15,-10,-4,4,-19,0
17:55:28:633116,2,11,17,5,4,5,7,-2
17:55:28:640500,2,11,17,5,4,5,7,-2
17:55:28:665138,-2,13,-9,10,-1,-12,-25,-5
17:55:28:665855,8,17,2,8,10,-2,-15,0
17:55:28:666670,8,17,2,8,10,-2,-15,0
17:55:28:667435,7,-7,-6,6,5,-9,-36,1
17:55:28:678706,-9,-1,-15,-12,2,4,-47,-5
17:55:28:679497,-9,-1,-15,-12,2,4,-47,-5
17:55:28:685599,-4,-5,3,2,0,-1,-7,-2
17:55:28:692978,1,-5,-6,-12,-10,-3,6,-2
17:55:28:700658,1,-5,-6,-12,-10,-3,6,-2
17:55:28:716970,-11,-9,-2,19,3,-3,7,-2
17:55:28:717679,0,13,7,2,4,-1,-34,0
17:55:28:718520,0,13,7,2,4,-1,-34,0
17:55:28:723021,4,8,-2,-1,2,3,0,-4
17:55:28:738728,-4,-12,1,-14,-4,-1,14,-1
17:55:28:739500,-4,-12,1,-14,-4,-1,14,-1
17:55:28:745547,-3,-8,-11,-12,6,-7,-35,-4
17:55:28:769498,-7,-5,3,14,2,-8,-9,-2
17:55:28:770257,-7,-5,3,14,2,-8,-9,-2
17:55:28:771041,-8,-5,2,-14,-10,4,5,-4
17:55:28:776193,5,-1,-3,7,-2,0,23,-4
17:55:28:777024,5,-1,-3,7,-2,0,23,-4
17:55:28:783112,0,10,-2,-10,-9,1,-15,-2
17:55:28:798772,1,-4,8,-19,-10,10,19,-2
17:55:28:799558,1,-4,8,-19,-10,10,19,-2
17:55:28:805565,-3,4,-2,-3,4,5,38,-3
17:55:28:813045,-3,0,-2,-5,2,0,10,-1
17:55:28:838226,-3,0,-2,-5,2,0,10,-1
17:55:28:839053,-10,-9,-5,-4,-8,4,29,1
17:55:28:844356,4,5,21,2,9,6,0,1
17:55:28:845192,4,5,21,2,9,6,0,1
17:55:28:845941,4,8,6,0,3,3,-5,4
17:55:28:858677,-15,-6,-9,2,-1,-5,22,-3
17:55:28:859480,-15,-6,-9,2,-1,-5,22,-3
17:55:28:865614,-4,10,3,11,8,3,16,1
17:55:28:881427,-1,-4,-13,-7,-6,1,-9,2
17:55:28:882088,-1,-4,-13,-7,-6,1,-9,2
17:55:28:888112,-1,-3,7,-20,-8,16,-5,0
17:55:28:896223,-2,9,-2,5,5,-3,6,-3
17:55:28:897060,-2,9,-2,5,5,-3,6,-3
17:55:28:903089,12,2,2,16,1,1,-25,2
17:55:28:918762,5,-8,-13,12,-2,2,-52,4
17:55:28:919473,5,-8,-13,12,-2,2,-52,4
17:55:28:941881,5,-2,-6,13,-2,-11,8,1
17:55:28:942647,0,2,5,-4,-5,-7,-14,1
17:55:28:943457,0,2,5,-4,-5,-7,-14,1
17:55:28:948100,-1,-7,-3,-19,-7,-17,-11,1
17:55:28:956292,4,-1,-4,-6,-9,-6,9,-4
17:55:28:957049,4,-1,-4,-6,-9,-6,9,-4
17:55:28:963010,3,-9,-5,0,5,-2,9,-2
17:55:28:995015,2,-8,-8,15,-8,-3,21,2
17:55:28:995905,2,-8,-8,15,-8,-3,21,2
17:55:28:996661,-18,-9,-13,10,-11,-2,-3,-7
17:55:28:997462,3,7,11,2,4,3,-38,-3
17:55:29:606,3,7,11,2,4,3,-38,-3
17:55:29:7989,-3,-2,5,-29,-7,-7,-3,-2
17:55:29:16284,2,-5,-1,-4,-5,12,33,2
17:55:29:17045,2,-5,-1,-4,-5,12,33,2
17:55:29:23058,-6,-5,-6,2,-1,-7,-8,-3
17:55:29:47038,-7,-4,12,3,24,-8,7,-3
17:55:29:47679,-7,-4,12,3,24,-8,7,-3
17:55:29:48470,4,-3,-3,-10,6,-13,-26,-5
17:55:29:53070,-4,-6,-7,23,-5,-2,9,-2
17:55:29:60561,-4,-6,-7,23,-5,-2,9,-2
17:55:29:68100,7,5,12,5,10,3,12,9
17:55:29:76182,6,7,2,2,-5,2,-16,0
17:55:29:76962,6,7,2,2,-5,2,-16,0
17:55:29:83117,-11,-4,-5,-2,10,2,-5,-6
17:55:29:106924,2,-3,-8,-13,-10,1,-1,-1
17:55:29:107685,2,-3,-8,-13,-10,1,-1,-1
17:55:29:108462,-1,-1,3,14,-1,2,7,1
17:55:29:121321,-8,-3,-9,-7,-2,-9,-9,-2
17:55:29:122112,-8,-3,-9,-7,-2,-9,-9,-2
17:55:29:127999,8,4,-2,3,-7,5,15,5
17:55:29:136321,-14,7,10,-14,-4,-6,7,-9
17:55:29:137053,-14,7,10,-14,-4,-6,7,-9
17:55:29:143025,-1,1,9,-2,-8,0,-10,-6
17:55:29:167448,-3,-15,-1,-16,1,5,17,0
17:55:29:168101,-3,-15,-1,-16,1,5,17,0
17:55:29:168925,1,13,3,6,-5,-9,-5,2
17:55:29:173029,2,-9,-15,7,-3,-1,-13,-1
17:55:29:180634,2,-9,-15,7,-3,-1,-13,-1
17:55:29:188009,1,1,1,-2,-3,7,-33,-2
17:55:29:196412,7,12,17,-5,4,6,21,3
17:55:29:197065,7,12,17,-5,4,6,21,3
17:55:29:210531,-3,-12,-15,4,-1,5,-8,-4
17:55:29:218787,-3,-12,-15,4,-1,5,-8,-4
17:55:29:219545,2,-4,-7,-3,4,-8,-31,-2
17:55:29:225506,2,2,14,-6,-12,-9,4,1
17:55:29:241232,2,2,14,-6,-12,-9,4,1
17:55:29:241988,-3,8,4,-3,-6,-1,8,-3
17:55:29:248149,11,-1,-22,0,0,-7,-11,-1
17:55:29:256026,11,-1,-22,0,0,-7,-11,-1
17:55:29:271203,3,-7,-15,-1,5,-8,10,-1
17:55:29:271992,-9,-4,12,-6,0,2,19,-1
17:55:29:278709,-9,-4,12,-6,0,2,19,-1
17:55:29:279503,-11,-10,-10,-20,1,11,11,-2
17:55:29:285530,5,4,-11,-10,7,-6,15,0
17:55:29:301298,5,4,-11,-10,7,-6,15,0
17:55:29:302007,-6,3,14,-1,-18,1,-9,-4
17:55:29:316946,-2,-1,9,3,-4,-2,-18,-2
17:55:29:317644,-2,-1,9,3,-4,-2,-18,-2
17:55:29:318458,-5,2,-12,-2,1,-5,15,0
17:55:29:323032,-9,-7,-6,-5,-9,-8,5,-9
17:55:29:338788,-9,-7,-6,-5,-9,-8,5,-9
17:55:29:339505,15,3,-5,5,3,4,-11,2
17:55:29:345559,-6,-8,-1,-27,-3,2,27,0
17:55:29:361238,-6,-8,-1,-27,-3,2,27,0
17:55:29:362002,1,11,11,1,0,-11,-17,4
17:55:29:384426,4,-4,-4,-6,-1,-1,1,0
17:55:29:385171,4,-4,-4,-6,-1,-1,1,0
17:55:29:386019,9,9,5,3,3,0,15,2
17:55:29:399481,-11,8,-6,8,1,-14,-49,-5
17:55:29:400201,-11,8,-6,8,1,-14,-49,-5
17:55:29:401017,-8,-14,-14,15,1,-11,-12,-2
17:55:29:405568,-4,0,-13,5,0,16,27,-4
17:55:29:421314,-4,0,-13,5,0,16,27,-4
17:55:29:422083,0,-1,2,0,-7,-1,15,-2
17:55:29:436932,0,-1,3,7,-1,-3,-6,3
17:55:29:437725,0,-1,3,7,-1,-3,-6,3
17:55:29:438559,1,-1,13,2,9,-8,-27,-1
17:55:29:450636,-1,10,5,6,1,-6,-29,-1
17:55:29:458710,-1,10,5,6,1,-6,-29,-1
17:55:29:459504,-14,-20,-22,-12,-6,-2,-6,1
17:55:29:465533,-2,10,10,-5,7,-3,11,-1
17:55:29:481294,-2,10,10,-5,7,-3,11,-1
17:55:29:482043,15,5,-11,-9,-5,4,-10,-1
17:55:29:488150,5,-9,4,-8,3,11,-3,2
17:55:29:496399,5,-9,4,-8,3,11,-3,2
17:55:29:497060,-5,4,14,10,-5,17,9,-1
17:55:29:510552,-5,-23,-15,-2,4,-1,-29,-4
17:55:29:518818,-5,-23,-15,-2,4,-1,-29,-4
17:55:29:519513,-3,2,-2,1,-2,21,35,7
17:55:29:525489,4,-5,-4,-4,-1,-11,8,0
17:55:29:549571,4,-5,-4,-4,-1,-11,8,0
17:55:29:550229,-3,-18,-10,-6,1,3,12,3
17:55:29:551071,-17,-3,10,-9,-7,0,-41,-4
17:55:29:563852,-17,-3,10,-9,-7,0,-41,-4
17:55:29:564519,-11,2,-7,-3,-2,-15,-13,-5
17:55:29:570536,4,4,-1,3,-6,25,41,-3
17:55:29:578746,4,4,-1,3,-6,25,41,-3
17:55:29:579557,0,-2,8,-3,-1,-1,-1,3
17:55:29:585562,5,12,9,13,-5,-14,2,5
17:55:29:601408,5,12,9,13,-5,-14,2,5
17:55:29:602085,-3,-8,-11,-8,-6,-5,3,-4
17:55:29:607973,4,8,16,-25,-7,-2,-17,-6
17:55:29:616342,4,8,16,-25,-7,-2,-17,-6
17:55:29:617056,11,7,-3,7,0,-29,-29,-3
17:55:29:630627,12,3,-6,18,-2,8,-9,9
17:55:29:638789,12,3,-6,18,-2,8,-9,9
17:55:29:639551,1,-3,6,-5,-20,-5,-3,0
17:55:29:661885,7,8,7,8,9,2,-5,-1
17:55:29:662670,7,8,7,8,9,2,-5,-1
17:55:29:663524,-5,-3,-7,-2,4,2,0,-2
17:55:29:676842,-5,-7,-17,7,-5,-10,43,0
17:55:29:677642,-5,-7,-17,7,-5,-10,43,0
17:55:29:678464,-17,2,8,-3,10,10,-1,-8
17:55:29:690544,-1,-11,-16,3,-5,-2,1,1
17:55:29:698602,-1,-11,-16,3,-5,-2,1,1
17:55:29:713813,-5,5,1,-2,3,5,8,-4
17:55:29:714456,-1,-5,-6,-33,-3,7,7,1
17:55:29:721678,-1,-5,-6,-33,-3,7,7,1
17:55:29:728682,0,-14,3,1,-9,3,-9,1
17:55:29:729509,-19,-11,6,5,-1,-18,-41,-11
17:55:29:736267,-19,-11,6,5,-1,-18,-41,-11
17:55:29:737028,2,-3,9,1,-3,-12,-30,2
17:55:29:750569,2,-10,-9,-16,-11,-13,-1,-4
17:55:29:759386,2,-10,-9,-16,-11,-13,-1,-4
17:55:29:760148,-2,1,-1,-22,12,-1,6,-2
17:55:29:765542,-4,2,1,10,9,5,9,4
17:55:29:789383,-4,2,1,10,9,5,9,4
17:55:29:790139,-8,-10,-17,-3,-9,-6,5,-4
17:55:29:790999,3,10,22,-15,-1,7,3,-1
17:55:29:796366,3,10,22,-15,-1,7,3,-1
17:55:29:797001,-5,0,-16,12,5,-5,-62,-4
17:55:29:827551,-10,-15,-19,19,3,-9,4,5
17:55:29:828331,-10,-15,-19,19,3,-9,4,5
17:55:29:829151,9,27,7,-3,1,-5,7,0
17:55:29:829943,-7,10,4,5,7,11,5,-6
17:55:29:841631,-7,10,4,5,7,11,5,-6
17:55:29:848821,7,-8,16,0,-4,1,43,1
17:55:29:849504,0,8,16,8,3,6,28,-3
17:55:29:856283,0,8,16,8,3,6,28,-3
17:55:29:857016,-2,-3,-4,3,2,29,24,1
17:55:29:870989,2,4,-3,-2,-2,1,4,2
17:55:29:878732,2,4,-3,-2,-2,1,4,2
17:55:29:879469,-9,17,17,-7,13,11,9,-2
17:55:29:885550,4,-7,-20,-14,-6,-1,-14,0
17:55:29:901723,4,-7,-20,-14,-6,-1,-14,0
17:55:29:902501,5,-1,-23,-4,1,-7,-12,-2
17:55:29:908093,4,1,-2,-8,1,-3,39,-2
17:55:29:916292,4,1,-2,-8,1,-3,39,-2
17:55:29:917039,-2,-12,-1,-7,-4,-5,42,-1
17:55:29:930523,0,1,12,7,2,-3,1,1
17:55:29:938774,0,1,12,7,2,-3,1,1
17:55:29:939514,-4,-9,3,9,-11,-8,1,3
17:55:29:953029,7,1,1,6,-1,4,-28,-1
17:55:29:961186,7,1,1,6,-1,4,-28,-1
17:55:29:961955,-1,2,0,1,-13,-7,-12,0
17:55:29:968164,-12,-5,-11,-18,-7,-1,-17,-7
17:55:29:983824,-12,-5,-11,-18,-7,-1,-17,-7
17:55:29:984535,9,3,5,10,-4,2,-16,2
17:55:29:990529,-11,-12,-7,-5,-1,8,15,0
17:55:29:999239,-11,-12,-7,-5,-1,8,15,0
17:55:30:7288,5,8,15,-15,-9,-1,-2,-4
17:55:30:13086,0,0,17,7,6,-5,-13,-2
17:55:30:21252,0,0,17,7,6,-5,-13,-2
17:55:30:22071,-9,-4,-16,3,1,-7,-9,-3
17:55:30:28031,1,-7,-21,-22,-1,-8,13,-1
17:55:30:36338,1,-7,-21,-22,-1,-8,13,-1
17:55:30:37007,3,13,9,5,9,-9,-50,-3
17:55:30:50599,-9,5,-5,-10,-9,-10,-6,-5
17:55:30:58700,-9,5,-5,-10,-9,-10,-6,-5
17:55:30:59481,-2,-1,-24,4,2,-9,7,-2
17:55:30:65602,6,-6,-7,9,-15,-8,10,4
17:55:30:81362,6,-6,-7,9,-15,-8,10,4
17:55:30:81979,0,3,4,6,-2,13,20,2
17:55:30:88055,6,1,-12,11,10,4,28,2
17:55:30:103796,6,1,-12,11,10,4,28,2
17:55:30:104594,-1,-15,-18,-15,-12,-2,-9,1
17:55:30:127555,1,15,12,8,2,-2,-17,-5
17:55:30:128323,1,15,12,8,2,-2,-17,-5
17:55:30:129110,5,-8,4,-14,-1,8,-7,5
17:55:30:129929,-7,-5,4,5,-4,-8,-48,-5
17:55:30:157561,-7,-5,4,5,-4,-8,-48,-5
17:55:30:158314,7,-2,6,2,5,-5,-3,-2
17:55:30:159131,-4,-11,-7,-23,-22,-2,7,-1
17:55:30:159962,-4,-11,-7,-23,-22,-2,7,-1
17:55:30:163007,-13,-10,10,10,0,5,18,-2
17:55:30:179434,9,12,4,-8,8,1,-15,1
17:55:30:180168,9,12,4,-8,8,1,-15,1
17:55:30:180958,5,-8,-1,-7,2,-2,11,2
17:55:30:185652,-8,1,12,-8,6,12,24,-4
17:55:30:201325,-8,1,12,-8,6,12,24,-4
17:55:30:202011,-7,6,-1,7,0,2,4,-4
17:55:30:208056,4,1,6,2,-2,1,7,4
17:55:30:216288,4,1,6,2,-2,1,7,4
17:55:30:217077,-22,-15,-15,1,10,8,3,-14
17:55:30:231081,1,-6,-12,-5,-2,-1,-17,3
17:55:30:238805,1,-6,-12,-5,-2,-1,-17,3
17:55:30:239528,-1,9,2,-12,6,6,1,6
17:55:30:245498,-6,-2,15,-12,2,0,-4,0
17:55:30:261221,-6,-2,15,-12,2,0,-4,0
17:55:30:262024,-4,-1,-6,-5,-6,-4,-8,1
17:55:30:268148,10,7,-10,10,2,-5,-1,2
17:55:30:275632,10,7,-10,10,2,-5,-1,2
17:55:30:283082,12,-8,-13,16,-6,-17,-23,7
17:55:30:290546,4,11,5,21,9,7,7,-3
17:55:30:298872,4,11,5,21,9,7,7,-3
17:55:30:299542,-2,-2,-5,12,-7,-1,19,-4
17:55:30:321874,-1,-7,-20,-20,-9,6,11,0
17:55:30:322692,-1,-7,-20,-20,-9,6,11,0
17:55:30:323512,11,18,20,3,-1,-3,33,-1
17:55:30:327999,7,-6,-4,7,-5,-5,11,3
17:55:30:343683,7,-6,-4,7,-5,-5,11,3
17:55:30:344448,-2,-11,3,-4,-9,-4,1,1
17:55:30:350607,-6,-6,-6,-1,0,-18,-25,-7
17:55:30:358710,-6,-6,-6,-1,0,-18,-25,-7
17:55:30:359482,-8,-14,-6,-48,-10,-4,-13,3
17:55:30:382385,-9,-1,19,6,-9,7,-3,-6
17:55:30:383173,-9,-1,19,6,-9,7,-3,-6
17:55:30:383937,12,7,-8,-7,-6,1,2,0
17:55:30:396242,0,-9,-5,-8,-1,3,-39,1
17:55:30:397012,0,-9,-5,-8,-1,3,-39,1
17:55:30:403132,-3,18,9,-8,8,-2,-7,-5
17:55:30:410493,-11,-17,2,-21,6,-6,6,-4
17:55:30:426238,-11,-17,2,-21,6,-6,6,-4
17:55:30:426982,-7,-15,-13,10,-2,-3,-6,-3
17:55:30:433065,-5,11,13,15,1,-4,-4,-7
17:55:30:441204,-5,11,13,15,1,-4,-4,-7
17:55:30:442011,0,-15,-6,-4,5,-4,-25,2
17:55:30:456213,-8,-4,12,-1,-2,4,1,-2
17:55:30:457010,-8,-4,12,-1,-2,4,1,-2
17:55:30:463039,5,-7,-9,26,-4,-1,-41,-2
17:55:30:470544,-13,-3,-7,-8,-3,-13,4,-3
17:55:30:486315,-13,-3,-7,-8,-3,-13,4,-3
17:55:30:487004,-10,-2,7,0,-4,3,12,-6
17:55:30:492949,9,8,-1,11,-7,-2,13,10
17:55:30:509362,9,8,-1,11,-7,-2,13,10
17:55:30:510140,-5,22,19,9,12,5,6,-7
17:55:30:510949,2,-3,-1,9,-3,3,33,0
17:55:30:515683,2,-3,-1,9,-3,3,33,0
17:55:30:523022,1,-10,-12,-4,2,-1,16,4
17:55:30:530490,7,8,-1,-2,4,4,11,-2
17:55:30:538777,7,8,-1,-2,4,4,11,-2
17:55:30:539500,-6,-10,-22,-5,-5,-2,-37,-6
17:55:30:553107,1,-14,-2,-3,3,-14,-18,0
17:55:30:569521,1,-14,-2,-3,3,-14,-18,0
17:55:30:570199,8,5,15,-1,-4,2,21,4
17:55:30:571045,7,6,22,-6,-6,11,-3,4
17:55:30:575524,7,6,22,-6,-6,11,-3,4
17:55:30:583135,-7,-4,10,-8,-2,-15,-2,-2
17:55:30:590576,-7,-9,-23,11,4,6,9,-3
17:55:30:598803,-7,-9,-23,11,4,6,9,-3
17:55:30:599534,-3,13,22,3,12,2,-34,-2
17:55:30:613064,7,23,2,-1,3,-6,-9,1
17:55:30:621245,7,23,2,-1,3,-6,-9,1
17:55:30:621997,2,-6,-6,-6,-7,18,2,-2
17:55:30:628031,-7,-10,-15,6,1,-2,-49,-3
17:55:30:635702,-7,-10,-15,6,1,-2,-49,-3
17:55:30:643005,-4,-1,-1,-12,-3,-5,25,2
17:55:30:659358,3,3,7,14,8,9,-10,3
17:55:30:660144,3,3,7,14,8,9,-10,3
17:55:30:660935,-2,-17,-17,0,-19,-19,2,-1
17:55:30:673073,1,0,7,-3,-3,-5,-11,0
17:55:30:681286,1,0,7,-3,-3,-5,-11,0
17:55:30:682041,6,12,-1,-3,2,2,5,-8
17:55:30:688058,-7,-17,-21,-14,-7,-3,11,-3
17:55:30:703765,-7,-17,-21,-14,-7,-3,11,-3
17:55:30:704546,3,12,40,1,4,11,13,-1
17:55:30:710556,-11,-4,2,4,0,5,3,-7
17:55:30:718792,-11,-4,2,4,0,5,3,-7
17:55:30:719517,2,-6,-20,-5,1,3,-16,0
17:55:30:733142,-3,6,3,-12,-9,6,-4,-4
17:55:30:741235,-3,6,3,-12,-9,6,-4,-4
17:55:30:742020,-2,6,-9,4,2,-4,-23,-4
17:55:30:748122,-5,-16,-14,6,-3,-5,36,0
17:55:30:755581,-5,-16,-14,6,-3,-5,36,0
17:55:30:763003,-9,3,17,-1,7,10,11,-6
17:55:30:770523,1,-1,-3,-1,3,-5,5,-4
17:55:30:786310,1,-1,-3,-1,3,-5,5,-4
17:55:30:787057,0,-1,-8,-5,-3,-2,-4,2
17:55:30:793023,6,7,7,-6,2,1,5,-1
17:55:30:801221,6,7,7,-6,2,1,5,-1
17:55:30:801977,1,-6,-5,8,-3,6,48,0
17:55:30:816322,-1,0,5,11,-1,-4,-14,2
17:55:30:817046,-1,0,5,11,-1,-4,-14,2
17:55:30:823036,-10,-7,-12,14,0,-13,-17,-1
17:55:30:839437,16,-3,-13,-5,-6,-5,-11,3
17:55:30:840182,16,-3,-13,-5,-6,-5,-11,3
17:55:30:841002,-14,-2,1,-17,-6,-6,-7,-1
17:55:30:853032,-7,-4,-16,6,-1,-1,7,-1
17:55:30:861264,-7,-4,-16,6,-1,-1,7,-1
17:55:30:861988,10,10,-4,1,-2,5,12,5
17:55:30:876197,-3,-7,-6,-10,-2,-12,-2,-5
17:55:30:876990,-3,-7,-6,-10,-2,-12,-2,-5
17:55:30:883073,9,2,-1,3,2,6,-4,4
17:55:30:890492,5,4,12,2,7,3,2,4
17:55:30:898862,5,4,12,2,7,3,2,4
17:55:30:899533,-5,-21,-7,-18,-3,1,-6,-1
17:55:30:913222,4,2,10,0,3,1,-4,-6
17:55:30:921696,4,2,10,0,3,1,-4,-6
17:55:30:928651,-4,-3,-16,16,4,-4,-24,-5
17:55:30:929596,-19,-11,-2,-2,-7,-12,26,-4
17:55:30:935675,-19,-11,-2,-2,-7,-12,26,-4
17:55:30:951223,3,2,8,-2,9,6,35,5
17:55:30:951962,-2,-4,-17,-9,-3,3,-5,1
17:55:30:958687,-2,-4,-17,-9,-3,3,-5,1
17:55:30:959469,1,3,18,-15,-7,-2,1,-3
17:55:30:982006,-5,-4,-4,-11,2,-5,-4,0
17:55:30:982750,-5,-4,-4,-11,2,-5,-4,0
17:55:30:983498,-14,-20,-7,8,-4,-1,-24,-6
17:55:30:988028,-10,12,28,11,8,1,-24,-12
17:55:30:995515,-10,12,28,11,8,1,-24,-12
17:55:31:11178,0,-4,-15,-15,-4,-3,6,-1
17:55:31:11937,-1,-1,8,-2,-7,1,-13,2
17:55:31:18868,-1,-1,8,-2,-7,1,-13,2
17:55:31:19609,-10,-2,17,-5,9,11,34,-5
17:55:31:42553,10,2,-17,-6,-7,-1,-7,2
17:55:31:43361,10,2,-17,-6,-7,-1,-7,2
17:55:31:44159,1,7,-3,14,2,-6,3,-1
17:55:31:48112,3,-1,-1,7,-4,0,-19,-2
17:55:31:63816,3,-1,-1,7,-4,0,-19,-2
17:55:31:64543,6,6,-1,-1,-9,-9,-2,-3
17:55:31:70577,-1,-3,-6,1,1,5,6,4
17:55:31:78753,-1,-3,-6,1,1,5,6,4
17:55:31:79572,2,-8,-23,0,2,-14,-19,0
17:55:31:93018,-1,12,6,-2,-3,10,-24,-1
17:55:31:101327,-1,12,6,-2,-3,10,-24,-1
17:55:31:102084,-6,-5,-15,-8,5,-6,-9,0
17:55:31:107974,1,-1,-22,-9,-6,-7,37,2
17:55:31:115581,1,-1,-22,-9,-6,-7,37,2
17:55:31:123039,6,14,8,-1,6,10,-26,1
17:55:31:130637,11,-10,-7,3,-1,1,-5,4
17:55:31:138813,11,-10,-7,3,-1,1,-5,4
17:55:31:139550,4,3,0,5,-7,5,20,1
17:55:31:153158,-6,-1,1,-5,1,8,9,-2
17:55:31:169510,-6,-1,1,-5,1,8,9,-2
17:55:31:170203,0,1,2,8,-4,2,-4,0
17:55:31:171023,-5,1,11,-7,-1,-1,7,0
17:55:31:175570,-5,1,11,-7,-1,-1,7,0
17:55:31:183018,3,2,9,-4,-4,-10,-3,2
17:55:31:190562,-1,-9,-9,-26,-2,-10,0,1
17:55:31:215161,-1,-9,-9,-26,-2,-10,0,1
17:55:31:215888,9,5,20,10,-6,-6,-5,5
17:55:31:216682,5,4,8,12,7,2,2,4
17:55:31:217553,5,4,8,12,7,2,2,4
17:55:31:220546,1,-8,-14,7,-5,1,8,-4
17:55:31:236732,-5,1,4,-5,-4,2,8,-3
17:55:31:237481,-5,1,4,-5,-4,2,8,-3
17:55:31:243006,-2,5,7,-3,-6,0,24,2
17:55:31:258551,-1,-1,-5,13,-8,0,-1,-3
17:55:31:266351,-1,-1,-5,13,-8,0,-1,-3
17:55:31:267099,-3,0,-12,3,-2,-6,6,1
17:55:31:273780,3,2,3,14,-1,-3,2,1
17:55:31:274550,3,2,3,14,-1,-3,2,1
17:55:31:280499,-7,-6,-5,-2,-13,-9,-6,-5
17:55:31:296252,1,-3,-1,-8,-7,-20,18,-3
17:55:31:296998,1,-3,-1,-8,-7,-20,18,-3
17:55:31:303093,-3,7,-1,-10,5,5,-1,-2
17:55:31:310495,-6,-8,-8,-25,-5,7,-18,-4
17:55:31:326211,-6,-8,-8,-25,-5,7,-18,-4
17:55:31:327001,-1,-4,-3,1,13,1,-6,0
17:55:31:333862,-5,0,7,-4,-3,-3,-4,-2
17:55:31:334541,-5,0,7,-4,-3,-3,-4,-2
17:55:31:348118,-2,-2,3,-7,-5,0,-27,-4
17:55:31:356263,-6,1,-4,-1,13,-5,1,-4
17:55:31:357069,-6,1,-4,-1,13,-5,1,-4
17:55:31:363033,1,-4,-6,-7,-6,3,-16,0
17:55:31:370513,3,-3,-4,4,2,6,-1,-2
17:55:31:378048,3,-3,-4,4,2,6,-1,-2
17:55:31:385612,6,-3,0,-4,-1,-6,0,6
17:55:31:401055,1,3,5,2,3,-4,-14,1
17:55:31:408722,1,3,5,2,3,-4,-14,1
17:55:31:409491,-1,-1,-4,4,-3,7,22,-3
17:55:31:416315,4,5,-2,8,2,-3,-5,6
17:55:31:417070,4,5,-2,8,2,-3,-5,6
17:55:31:431327,-5,-4,1,1,-5,-1,-3,-4
17:55:31:431984,-8,-3,-2,4,2,7,-5,-4
17:55:31:438108,-8,-3,-2,4,2,7,-5,-4
17:55:31:445515,-4,-3,-3,-7,6,-9,-12,-2
17:55:31:453771,-21,-22,-15,-2,0,4,9,-4
17:55:31:454532,-21,-22,-15,-2,0,4,9,-4
17:55:31:460494,-4,14,30,-6,1,0,-1,-3
17:55:31:492529,1,-5,-9,-1,4,-11,-34,-6
17:55:31:493314,1,-5,-9,-1,4,-11,-34,-6
17:55:31:494131,-2,-9,-20,-6,-4,-9,1,2
17:55:31:494928,1,0,-2,1,-11,-2,0,-1
17:55:31:498223,1,0,-2,1,-11,-2,0,-1
17:55:31:514548,1,5,5,6,-3,-10,4,-2
17:55:31:515183,8,0,-1,-3,9,15,13,1
17:55:31:516045,8,0,-1,-3,9,15,13,1
17:55:31:520567,2,-6,0,-1,-3,-4,17,2
17:55:31:536357,-8,1,6,-6,6,4,-10,-1
17:55:31:537070,-8,1,6,-6,6,4,-10,-1
17:55:31:542977,-1,-6,-12,-28,7,4,-16,-4
17:55:31:550628,7,4,11,-5,-5,-7,-6,-2
17:55:31:566303,7,4,11,-5,-5,-7,-6,-2
17:55:31:567071,-2,-2,-8,3,-1,-3,9,-1
17:55:31:573726,-5,0,0,1,-2,-7,5,1
17:55:31:574608,-5,0,0,1,-2,-7,5,1
17:55:31:580509,-11,-1,-6,-8,2,-7,-35,-6
17:55:31:596223,-3,10,-1,6,-8,2,-2,-6
17:55:31:597003,-3,10,-1,6,-8,2,-2,-6
17:55:31:603081,7,-6,-5,3,0,6,-4,0
17:55:31:610504,-9,-10,-4,5,3,9,-15,1
17:55:31:626196,-9,-10,-4,5,3,9,-15,1
17:55:31:626973,2,11,4,6,-3,4,13,-2
17:55:31:633739,10,2,0,-4,-17,-5,6,3
17:55:31:634605,10,2,0,-4,-17,-5,6,3
17:55:31:640553,-11,4,5,5,-3,1,-17,-5
17:55:31:656258,-4,-3,-15,-3,2,-7,-9,-3
17:55:31:657017,-4,-3,-15,-3,2,-7,-9,-3
17:55:31:663015,-3,-5,3,-7,0,-1,-14,-4
17:55:31:678723,6,2,7,-1,6,10,9,-2
17:55:31:679468,6,2,7,-1,6,10,9,-2
17:55:31:685662,-4,6,9,16,3,-9,0,-3
17:55:31:693662,6,-4,-5,-6,0,-11,4,-1
17:55:31:694472,6,-4,-5,-6,0,-11,4,-1
17:55:31:708007,-5,-14,-14,-11,-8,-4,-4,-5
17:55:31:716280,-2,8,-1,-7,-3,-5,-10,-4
17:55:31:717054,-2,8,-1,-7,-3,-5,-10,-4
17:55:31:723096,1,-2,-3,13,-2,-7,26,14
17:55:31:730576,4,-3,-8,-6,2,7,4,3
17:55:31:738116,4,-3,-8,-6,2,7,4,3
17:55:31:745532,0,-16,-3,-8,-4,2,-2,0
17:55:31:753839,13,17,18,-2,-2,-6,4,-5
17:55:31:754538,13,17,18,-2,-2,-6,4,-5
17:55:31:760492,1,1,-9,1,6,0,10,1
17:55:31:776181,-8,0,17,6,-3,-7,-16,-6
17:55:31:776956,-8,0,17,6,-3,-7,-16,-6
17:55:31:791230,-2,4,6,-29,-3,9,5,1
17:55:31:791955,-11,-12,-10,-14,-4,0,6,-6
17:55:31:798114,-11,-12,-10,-14,-4,0,6,-6
17:55:31:822565,-5,-1,-8,2,3,4,-15,-3
17:55:31:823399,-11,-6,0,6,3,-13,-15,-1
17:55:31:824173,-11,-6,0,6,3,-13,-15,-1
17:55:31:824946,-4,-6,-6,-1,-4,6,12,-4
17:55:31:836253,7,-1,1,9,3,1,19,5
17:55:31:836985,7,-1,1,9,3,1,19,5
17:55:31:842970,14,5,4,-2,0,5,-24,-8
17:55:31:850573,-8,0,-2,-13,6,-4,-1,-2
17:55:31:858045,-8,0,-2,-13,6,-4,-1,-2
17:55:31:865652,4,0,-2,-2,-1,9,20,7
17:55:31:873575,10,0,0,-8,-4,5,31,3
17:55:31:881292,10,0,0,-8,-4,5,31,3
17:55:31:882032,-15,-8,-7,-5,-9,-17,-6,-3
17:55:31:896239,-3,3,6,3,-2,7,13,8
17:55:31:897074,-3,3,6,3,-2,7,13,8
17:55:31:903142,1,3,6,9,2,3,4,3
17:55:31:910506,-7,-14,-9,-3,-7,9,-9,-6
17:55:31:926217,-7,-14,-9,-3,-7,9,-9,-6
17:55:31:926972,1,5,7,-1,-2,9,6,1
17:55:31:933763,-15,-10,-1,0,-5,-7,11,-7
17:55:31:934606,-15,-10,-1,0,-5,-7,11,-7
17:55:31:940565,-6,-9,-7,1,4,-3,-8,-3
17:55:31:956253,-1,0,-9,25,-4,1,9,1
17:55:31:957066,-1,0,-9,25,-4,1,9,1
17:55:31:963035,1,-3,-3,0,4,-12,4,-2
17:55:31:970614,3,5,-8,-5,2,-18,-79,-2
17:55:31:986346,3,5,-8,-5,2,-18,-79,-2
17:55:31:987055,4,7,1,5,-1,-24,-3,0
17:55:31:994070,4,-1,-5,-4,-3,7,6,-3
17:55:32:1341,4,-1,-5,-4,-3,7,6,-3
17:55:32:2005,-5,6,16,-6,-2,-14,-39,-7
17:55:32:16276,3,1,-2,-2,-18,-7,-4,2
17:55:32:17011,3,1,-2,-2,-18,-7,-4,2
17:55:32:22993,5,1,-4,5,-7,-5,5,0
17:55:32:30539,-4,2,3,-6,2,7,0,-2
17:55:32:38708,-4,2,3,-6,2,7,0,-2
17:55:32:54453,-12,-3,0,11,-4,7,11,-4
17:55:32:55179,-3,-10,-10,1,3,-7,13,4
17:55:32:56036,-3,-10,-10,1,3,-7,13,4
17:55:32:68170,8,0,1,1,1,0,17,5
17:55:32:76179,0,-2,-7,1,-3,-9,-7,0
17:55:32:76975,0,-2,-7,1,-3,-9,-7,0
17:55:32:83144,2,9,3,6,2,-2,-9,-3
17:55:32:90582,6,11,-1,1,-6,-13,-6,-4
17:55:32:98018,6,11,-1,1,-6,-13,-6,-4
17:55:32:105531,-4,-5,-5,0,2,2,-11,-2
17:55:32:121864,-13,2,5,-19,4,5,6,-1
17:55:32:122651,-13,2,5,-19,4,5,6,-1
17:55:32:123526,4,-1,-2,-20,2,1,-35,-1
17:55:32:136331,0,-4,-3,5,14,8,-2,0
17:55:32:137001,0,-4,-3,5,14,8,-2,0
17:55:32:151270,1,-1,0,1,-1,12,3,-1
17:55:32:151948,-2,-3,-2,0,2,-9,10,-2
17:55:32:166314,-2,-3,-2,0,2,-9,10,-2
17:55:32:166991,-2,-6,-5,4,-6,2,21,0
17:55:32:173760,5,-1,9,-20,-8,34,8,2
17:55:32:174535,5,-1,9,-20,-8,34,8,2
17:55:32:188042,-2,-2,2,-2,1,-4,11,4
17:55:32:196188,5,1,3,4,-6,-10,4,3
17:55:32:197037,5,1,3,4,-6,-10,4,3
17:55:32:203095,-3,-4,0,-5,4,5,0,0
17:55:32:235815,-1,-5,0,-6,-3,7,13,0
17:55:32:236543,-1,-5,0,-6,-3,7,13,0
17:55:32:237339,-7,0,0,0,-3,-14,14,-4
17:55:32:238146,-9,-7,-9,-1,-2,-13,-18,-9
17:55:32:240613,-9,-7,-9,-1,-2,-13,-18,-9
17:55:32:248055,10,8,1,-5,-8,-2,12,1
17:55:32:256210,-3,1,0,-9,16,1,7,-4
17:55:32:257043,-3,1,0,-9,16,1,7,-4
17:55:32:263053,7,3,-5,-8,-8,8,-16,4
17:55:32:279337,3,5,-2,7,-2,-10,-9,0
17:55:32:280111,3,5,-2,7,-2,-10,-9,0
17:55:32:285602,-5,-4,-6,5,1,-3,-11,-6
17:55:32:293673,-7,-10,-14,8,-4,7,5,-1
17:55:32:294464,-7,-10,-14,8,-4,7,5,-1
17:55:32:316081,-8,-4,-8,7,1,16,12,-4
17:55:32:331976,-2,-2,-2,8,0,-2,-8,-2
17:55:32:332649,-2,-2,-2,8,0,-2,-8,-2
17:55:32:333550,-8,-2,-2,4,1,-17,9,-6
17:55:32:346844,-6,0,10,-14,0,0,7,-4
17:55:32:347626,-6,0,10,-14,0,0,7,-4
17:55:32:348522,5,-2,-5,-2,-2,-6,24,4
17:55:32:353802,6,3,1,10,-1,0,2,4
17:55:32:354545,6,3,1,10,-1,0,2,4
17:55:32:368140,1,-2,2,0,2,-5,-11,0
17:55:32:376201,1,0,0,6,-4,12,10,4
17:55:32:376998,1,0,0,6,-4,12,10,4
17:55:32:383159,-3,-3,-3,-5,-11,2,-11,-2
17:55:32:398766,6,4,3,2,-4,-2,7,5
17:55:32:399746,6,4,3,2,-4,-2,7,5
17:55:32:405542,0,-5,-4,-12,-3,19,-17,-3
17:55:32:413787,-10,-2,1,-13,2,-5,6,-9
17:55:32:414493,-10,-2,1,-13,2,-5,6,-9
17:55:32:428019,-3,0,3,-8,3,-5,-7,0
17:55:32:444369,7,-2,-4,10,8,12,-4,2
17:55:32:445141,7,-2,-4,10,8,12,-4,2
17:55:32:445978,-7,-1,-5,-7,9,-2,-61,-5
17:55:32:459145,-6,-1,-8,-3,-10,-4,-50,-1
17:55:32:459968,-6,-1,-8,-3,-10,-4,-50,-1
17:55:32:465547,0,-2,-4,5,4,-5,11,-2
17:55:32:473575,-11,-4,-2,-17,-5,12,0,-9
17:55:32:480600,-11,-4,-2,-17,-5,12,0,-9
17:55:32:497540,3,-1,2,-10,2,11,7,1
17:55:32:498289,4,1,8,-9,-1,-4,21,-1
17:55:32:499143,4,1,8,-9,-1,-4,21,-1
17:55:32:503149,1,5,3,8,3,-4,25,2
17:55:32:518736,1,5,3,8,3,-4,25,2
17:55:32:519550,3,2,2,1,1,-2,39,2
17:55:32:525479,-7,-7,-9,6,-11,-17,-20,-2
17:55:32:541180,-7,-7,-9,6,-11,-17,-20,-2
17:55:32:541984,-2,1,7,3,-4,-6,3,-3
17:55:32:548139,1,-6,-5,-12,0,3,11,-1
17:55:32:556242,1,-6,-5,-12,0,3,11,-1
17:55:32:556979,5,0,-2,0,-3,3,-9,-1
17:55:32:563124,0,0,1,-12,-11,10,-12,-4
17:55:32:578687,0,0,1,-12,-11,10,-12,-4
17:55:32:579514,-2,-2,-6,1,-3,-6,2,2
17:55:32:585548,2,3,4,-25,-10,-6,21,0
17:55:32:593044,2,3,4,-25,-10,-6,21,0
17:55:32:608684,-3,-5,-3,6,6,-20,-40,-8
17:55:32:609479,1,1,1,11,0,18,13,1
17:55:32:624431,1,1,1,11,0,18,13,1
17:55:32:625169,-1,-1,1,-10,-4,10,1,0
17:55:32:625969,-4,-1,0,14,2,-13,-1,1
17:55:32:655107,-4,-1,0,14,2,-13,-1,1
17:55:32:655892,0,-2,-8,6,1,12,-12,4
17:55:32:656632,-6,1,-1,-34,-9,-13,-22,-2
17:55:32:657525,-6,1,-1,-34,-9,-13,-22,-2
17:55:32:660501,1,1,1,11,12,-28,-11,4
17:55:32:668131,-3,-2,-3,6,-2,-8,-24,-5
17:55:32:676675,-3,-2,-3,6,-2,-8,-24,-5
17:55:32:683734,0,3,5,-18,1,-4,12,-3
17:55:32:684485,-2,-2,2,12,2,-9,2,-1
17:55:32:698763,-2,-2,2,12,2,-9,2,-1
17:55:32:699513,-1,-1,-2,16,-9,-17,-11,-4
17:55:32:721943,4,3,5,19,1,-20,8,-2
17:55:32:722680,4,3,5,19,1,-20,8,-2
17:55:32:723504,-3,0,-6,2,-9,-14,7,-4
17:55:32:736913,0,0,3,2,6,-5,-21,0
17:55:32:737652,0,0,3,2,6,-5,-21,0
17:55:32:738546,-1,-1,-1,1,-4,4,17,2
17:55:32:742962,0,-4,-2,-3,-2,-6,-8,-3
17:55:32:766993,0,-4,-2,-3,-2,-6,-8,-3
17:55:32:767759,-2,-3,2,-29,9,-2,8,-1
17:55:32:768524,-15,-1,-4,23,5,12,18,-3
17:55:32:773132,-15,-1,-4,23,5,12,18,-3
17:55:32:780630,-6,-6,-6,6,-5,-11,-27,-4
17:55:32:788067,4,0,-1,1,-3,29,27,2
17:55:32:796214,4,0,-1,1,-3,29,27,2
17:55:32:796974,-1,-1,-1,9,-8,-2,6,0
17:55:32:803143,0,-3,-5,4,7,14,-3,0
17:55:32:818818,0,-3,-5,4,7,14,-3,0
17:55:32:819545,0,-2,1,-5,8,14,9,-2
17:55:32:850080,-4,-1,-5,-32,-4,-25,-21,-5
17:55:32:850864,-4,-1,-5,-32,-4,-25,-21,-5
17:55:32:851727,0,1,-6,-4,1,1,-8,0
17:55:32:852479,2,-5,-7,-1,1,7,-20,0
17:55:32:856231,2,-5,-7,-1,1,7,-20,0
17:55:32:857073,-5,-1,-1,2,-2,1,-27,-2
17:55:32:863028,1,2,1,-1,-9,-4,-8,0
17:55:32:887040,1,2,1,-1,-9,-4,-8,0
17:55:32:887779,3,-1,-6,-1,-5,10,-1,1
17:55:32:888570,7,0,4,11,0,11,8,1
17:55:32:902081,7,0,4,11,0,11,8,1
17:55:32:902772,-9,-4,0,-4,-8,3,5,-3
17:55:32:907967,0,5,-1,0,-3,-10,29,-1
17:55:32:916298,0,5,-1,0,-3,-10,29,-1
17:55:32:917049,-3,-4,-2,-12,1,15,-10,-1
17:55:32:923063,1,-1,-1,10,-8,3,14,2
17:55:32:946861,1,-1,-1,10,-8,3,14,2
17:55:32:947644,0,-1,-5,19,-11,-12,7,0
17:55:32:948493,-2,-4,-3,10,4,-7,-12,-3
17:55:32:953755,-2,-4,-3,10,4,-7,-12,-3
17:55:32:954526,7,0,-4,1,2,-8,5,3
17:55:32:968084,-17,-3,-4,-12,-8,9,-14,-4
17:55:32:984437,-17,-3,-4,-12,-8,9,-14,-4
17:55:32:985172,-6,-1,-8,6,1,-5,-11,-3
17:55:32:985964,0,-3,-2,-15,4,6,15,-2
17:55:32:999191,0,-3,-2,-15,4,6,15,-2
17:55:32:999976,2,-2,2,-6,6,-10,20,1
17:55:33:14502,0,0,1,-16,-2,7,11,-1
17:55:33:15172,0,0,1,-16,-2,7,11,-1
17:55:33:15998,1,-2,-5,2,6,34,1,2
17:55:33:27970,8,-1,0,10,-10,-14,-7,4
17:55:33:36371,8,-1,0,10,-10,-14,-7,4
17:55:33:37055,-16,-2,5,-28,-9,-17,-57,-5
17:55:33:42995,-2,0,-1,-6,-1,-9,6,-1
17:55:33:59178,-2,0,-1,-6,-1,-9,6,-1
17:55:33:59951,3,4,2,12,3,20,15,1
17:55:33:81889,2,1,7,-17,-1,-9,-8,-1
17:55:33:82636,2,1,7,-17,-1,-9,-8,-1
17:55:33:83545,0,-4,-6,5,-22,-3,11,-1
17:55:33:88047,-1,-6,-2,2,3,-1,16,0
17:55:33:96274,-1,-6,-2,2,3,-1,16,0
17:55:33:96974,-1,-2,-2,-21,4,4,46,0
17:55:33:110524,-1,-1,0,-3,-3,-10,-10,0
17:55:33:126870,-1,-1,0,-3,-3,-10,-10,0
17:55:33:127658,1,2,5,6,-8,-8,-13,0
17:55:33:128491,-5,-3,-8,-2,4,8,-5,-4
17:55:33:133098,-5,-3,-8,-2,4,8,-5,-4
17:55:33:157580,8,6,15,-15,-10,46,-1,5
17:55:33:158261,-2,0,-5,10,-6,-18,4,2
17:55:33:159111,-2,0,-5,10,-6,-18,4,2
17:55:33:159913,-19,-7,-11,-2,-2,-20,2,-15
17:55:33:171006,4,2,1,2,-3,23,-8,4
17:55:33:178725,4,2,1,2,-3,23,-8,4
17:55:33:179509,5,-1,-5,-1,8,-31,8,-1
17:55:33:193414,-2,-3,-8,0,11,-10,-2,-4
17:55:33:201994,-2,-3,-8,0,11,-10,-2,-4
17:55:33:202679,10,0,0,5,1,25,18,2
17:55:33:208022,-3,1,6,-25,-8,-11,-13,-2
17:55:33:223745,-3,1,6,-25,-8,-11,-13,-2
17:55:33:224520,-5,-5,-6,8,5,-18,-49,-5
17:55:33:230572,3,3,4,-1,7,18,-2,1
17:55:33:238798,3,3,4,-1,7,18,-2,1
17:55:33:239568,0,0,1,15,4,-15,-4,0
17:55:33:245501,-1,-4,-3,9,-4,-2,3,-3
17:55:33:261208,-1,-4,-3,9,-4,-2,3,-3
17:55:33:261986,-2,-2,0,11,-5,-10,-15,-2
17:55:33:268042,-6,-1,-2,6,5,8,-37,-5
17:55:33:276240,-6,-1,-2,6,5,8,-37,-5
17:55:33:277008,1,-2,-6,3,-7,-13,-26,-4
17:55:33:290537,-10,-5,-7,-8,1,-6,18,-5
17:55:33:306953,-10,-5,-7,-8,1,-6,18,-5
17:55:33:307677,-1,-2,-2,-9,2,-10,14,2
17:55:33:308499,1,-4,-9,6,-7,2,-34,-3
17:55:33:321203,1,-4,-9,6,-7,2,-34,-3
17:55:33:322067,-3,-3,-1,-12,6,4,42,4
17:55:33:328033,1,1,2,12,1,-7,19,1
17:55:33:336356,1,1,2,12,1,-7,19,1
17:55:33:336992,4,6,15,-17,6,3,-5,-2
17:55:33:350641,-6,-3,-6,-6,-8,-36,-18,-5
17:55:33:358688,-6,-3,-6,-6,-8,-36,-18,-5
17:55:33:359482,-3,-3,-3,12,6,-1,5,1
17:55:33:365724,4,-1,-1,0,9,-2,25,2
17:55:33:373080,4,-1,-1,0,9,-2,25,2
17:55:33:388732,-7,-3,-5,11,-3,-29,5,-4
17:55:33:389555,2,0,1,1,3,16,24,1
17:55:33:396186,2,0,1,1,3,16,24,1
17:55:33:396997,-2,0,3,-4,-9,7,-29,-2
17:55:33:410522,-2,4,6,-7,-1,-12,-20,-1
17:55:33:418800,-2,4,6,-7,-1,-12,-20,-1
17:55:33:419521,1,-3,-8,-4,0,5,20,2
17:55:33:425512,0,-4,1,-31,-22,3,-25,-2
17:55:33:433158,0,-4,1,-31,-22,3,-25,-2
17:55:33:448717,0,0,-5,-10,-10,0,-7,-3
17:55:33:449488,3,3,-2,7,3,23,23,3
17:55:33:456215,3,3,-2,7,3,23,23,3
17:55:33:456980,1,-2,0,8,-4,8,-11,3
17:55:33:470568,1,-4,-2,14,-1,5,33,2
17:55:33:486900,1,-4,-2,14,-1,5,33,2
17:55:33:487698,2,3,4,6,6,11,7,0
17:55:33:488522,0,0,1,-9,13,-4,8,-1
17:55:33:493054,0,0,1,-9,13,-4,8,-1
17:55:33:500604,-6,-3,-1,-3,-4,-3,5,-2
17:55:33:507995,-1,-2,-5,-1,-8,5,-9,-1
17:55:33:516328,-1,-2,-5,-1,-8,5,-9,-1
17:55:33:517085,-2,0,-3,-40,-6,-6,-22,-5
17:55:33:530623,-14,-6,-6,2,-14,-37,-28,-12
17:55:33:538784,-14,-6,-6,2,-14,-37,-28,-12
17:55:33:539542,1,1,1,1,-1,-15,-5,-1
17:55:33:545533,6,4,3,1,6,1,-7,0
17:55:33:553093,6,4,3,1,6,1,-7,0
17:55:33:560518,-2,2,2,7,1,-11,20,-2
17:55:33:568181,3,0,0,5,5,6,10,1
17:55:33:576223,3,0,0,5,5,6,10,1
17:55:33:576960,0,-7,-3,-2,-4,11,-24,-2
17:55:33:590590,-1,-3,-3,-19,4,-3,5,1
17:55:33:598766,-1,-3,-3,-19,4,-3,5,1
17:55:33:599522,-1,0,-2,-9,-3,-12,2,-3
17:55:33:605572,1,2,0,-12,-3,-13,-7,1
17:55:33:613240,1,2,0,-12,-3,-13,-7,1
17:55:33:620528,-19,-5,-2,11,13,4,-11,-11
17:55:33:627996,-4,0,-5,9,-6,-14,-4,1
17:55:33:651937,-4,0,-5,9,-6,-14,-4,1
17:55:33:652725,1,2,1,6,4,18,43,6
17:55:33:653475,-5,-5,-4,17,5,14,-8,-1
17:55:33:666922,-5,-5,-4,17,5,14,-8,-1
17:55:33:667661,-3,-6,-9,4,1,7,-56,-5
17:55:33:668483,2,2,1,4,-2,-11,5,-2
17:55:33:673075,2,2,1,4,-2,-11,5,-2
17:55:33:680671,0,-2,-7,15,0,8,2,1
17:55:33:688066,4,4,10,-1,-19,27,0,2
17:55:33:711872,4,4,10,-1,-19,27,0,2
17:55:33:712637,3,-1,-1,-5,-7,4,17,0
17:55:33:713512,2,-2,2,-8,13,16,13,3
17:55:33:718787,2,-2,2,-8,13,16,13,3
17:55:33:719544,3,3,4,3,5,-2,-13,-1
17:55:33:725609,-1,0,0,-8,8,9,15,0
17:55:33:733142,-1,0,0,-8,8,9,15,0
17:55:33:740548,0,1,1,-12,-5,-8,35,-3
17:55:33:756898,-5,-4,-4,-28,-6,-17,-10,-3
17:55:33:757703,-5,-4,-4,-28,-6,-17,-10,-3
17:55:33:758507,9,5,4,-17,-7,31,14,7
17:55:33:770555,-2,-2,-6,8,-5,9,-1,-3
17:55:33:778694,-2,-2,-6,8,-5,9,-1,-3
17:55:33:779526,0,1,6,-8,-1,-10,-21,-4
17:55:33:785603,-4,-2,-1,9,8,-2,-28,-7
17:55:33:793045,-4,-2,-1,9,8,-2,-28,-7
17:55:33:800651,-2,0,-1,-2,9,-20,12,2
17:55:33:816943,0,2,3,-14,-7,-7,19,-1
17:55:33:817652,0,2,3,-14,-7,-7,19,-1
17:55:33:818485,0,-6,-6,3,-1,-13,-15,0
17:55:33:830654,-1,-3,-5,5,5,-7,-2,1
17:55:33:838765,-1,-3,-5,5,5,-7,-2,1
17:55:33:839524,-3,1,-1,-9,-4,-17,11,-3
17:55:33:845563,0,-3,-3,19,-4,-2,2,0
17:55:33:853098,0,-3,-3,19,-4,-2,2,0
17:55:33:877537,3,-3,3,4,-14,2,4,1
17:55:33:878308,-1,2,7,7,-8,-5,7,-1
17:55:33:879148,-1,2,7,7,-8,-5,7,-1
17:55:33:879949,-2,-1,-2,-1,-1,-6,25,-1
17:55:33:890542,-1,-3,-4,-4,-11,3,15,-1
17:55:33:898793,-1,-3,-4,-4,-11,3,15,-1
17:55:33:899550,-4,-3,-4,-2,-1,9,18,-4
17:55:33:905553,1,0,-2,13,4,10,-12,0
17:55:33:921932,1,0,-2,13,4,10,-12,0
17:55:33:922737,1,1,-3,-5,7,2,-10,0
17:55:33:927961,-3,-2,4,-1,3,-10,-28,-2
17:55:33:936348,-3,-2,4,-1,3,-10,-28,-2
17:55:33:937039,-3,2,2,0,-5,19,-15,-1
17:55:33:950608,3,1,-1,-1,2,-9,-21,1
17:55:33:958695,3,1,-1,-1,2,-9,-21,1
17:55:33:959486,-5,-3,-5,1,-16,-2,-16,-6
17:55:33:965554,1,2,4,6,2,14,0,-1
17:55:33:981320,1,2,4,6,2,14,0,-1
17:55:33:982005,-6,-5,1,6,-3,-4,-28,-5
17:55:33:988039,-3,-4,-6,13,6,-17,3,-1
17:55:33:996234,-3,-4,-6,13,6,-17,3,-1
17:55:33:996984,-5,-4,-3,-2,2,-22,22,-1
17:55:34:10537,0,-5,-8,-10,1,-1,12,-2
17:55:34:18811,0,-5,-8,-10,1,-1,12,-2
17:55:34:19552,5,0,-3,-9,6,-3,-3,3
17:55:34:33829,-1,1,-2,-26,3,4,-8,-3
17:55:34:34539,-1,1,-2,-26,3,4,-8,-3
17:55:34:40554,-9,-3,-6,12,2,-10,13,-6
17:55:34:48142,-1,0,-3,-7,3,10,32,0
17:55:34:64250,-1,0,-3,-7,3,10,32,0
17:55:34:71227,-3,-5,0,-27,4,-9,2,-1
17:55:34:71984,-1,0,0,-7,-13,-9,-8,-1
17:55:34:78688,-1,0,0,-7,-13,-9,-8,-1
17:55:34:79489,5,2,0,4,-4,5,-13,1
17:55:34:93734,4,0,-1,8,-6,15,6,2
17:55:34:94531,4,0,-1,8,-6,15,6,2
17:55:34:100630,-8,-2,-2,6,11,-7,9,-6
17:55:34:107966,1,2,2,2,-1,-2,-13,2
17:55:34:115675,1,2,2,2,-1,-2,-13,2
17:55:34:131214,5,0,1,-3,1,33,12,5
17:55:34:132006,-3,-2,4,-17,5,-3,-5,-5
17:55:34:138781,-3,-2,4,-17,5,-3,-5,-5
17:55:34:139554,-4,-6,-1,-2,-10,6,-11,0
17:55:34:153732,2,0,-3,-2,-4,40,-5,4
17:55:34:154553,2,0,-3,-2,-4,40,-5,4
17:55:34:160554,-5,-3,-5,11,3,-15,-17,-3
17:55:34:168058,-1,1,1,-24,-2,16,20,-2
17:55:34:175616,-1,1,1,-24,-2,16,20,-2
17:55:34:183081,2,0,-2,9,-8,5,-28,-4
17:55:34:190513,-6,-2,-6,-1,-9,-41,-24,-5
17:55:34:198744,-6,-2,-6,-1,-9,-41,-24,-5
17:55:34:199530,1,-1,1,-21,-11,-19,-13,5
17:55:34:213748,-4,-1,-5,-7,2,0,14,1
17:55:34:214520,-4,-1,-5,-7,2,0,14,1
17:55:34:220641,0,-3,-4,6,3,1,10,-3
17:55:34:227991,1,0,2,20,3,13,10,5
17:55:34:235626,1,0,2,20,3,13,10,5
17:55:34:243029,6,2,4,4,-3,10,9,3
17:55:34:259338,-4,-5,-6,8,1,-23,-5,-1
17:55:34:260129,-4,-5,-6,8,1,-23,-5,-1
17:55:34:260923,2,0,6,-3,2,2,-7,1
17:55:34:273760,3,-1,1,9,2,-15,23,2
17:55:34:274561,3,-1,1,9,2,-15,23,2
17:55:34:280591,-15,-7,-9,6,-5,-8,-41,-4
17:55:34:288028,-2,-3,1,15,-2,-16,-13,-3
17:55:34:295606,-2,-3,1,15,-2,-16,-13,-3
17:55:34:303065,2,4,-1,7,8,-12,12,1
17:55:34:310540,-2,-1,3,1,7,10,-42,-6
17:55:34:318797,-2,-1,3,1,7,10,-42,-6
17:55:34:319569,-1,0,-2,-8,-3,-11,-30,-3
17:55:34:341010,-4,-1,-2,-1,-8,-2,0,-4
17:55:34:349537,-4,-1,-2,-1,-8,-2,0,-4
17:55:34:350193,1,0,2,-3,10,18,10,-2
17:55:34:351082,-2,-4,-5,-5,-7,0,4,-4
17:55:34:355574,-2,-4,-5,-5,-7,0,4,-4
17:55:34:363163,-8,-3,-6,5,-1,-11,-21,-6
17:55:34:379566,-3,-1,-1,7,11,-4,23,2
17:55:34:380215,-3,-1,-1,7,11,-4,23,2
17:55:34:381001,6,0,4,-17,-3,23,29,-1
17:55:34:393706,-2,1,0,-3,6,-1,6,1
17:55:34:394483,-2,1,0,-3,6,-1,6,1
17:55:34:400751,2,3,1,-13,4,-8,11,3
17:55:34:407978,2,-1,2,-8,0,40,10,0
17:55:34:415670,2,-1,2,-8,0,40,10,0
17:55:34:423068,6,2,3,-27,-6,2,3,3
17:55:34:430603,-1,-5,-2,-6,-11,-6,-18,-3
17:55:34:438799,-1,-5,-2,-6,-11,-6,-18,-3
17:55:34:439559,0,0,-8,20,-6,-7,10,-1
17:55:34:453714,-2,1,1,-5,-13,-3,-9,-1
17:55:34:454587,-2,1,1,-5,-13,-3,-9,-1
17:55:34:460525,3,0,-1,8,-2,-12,9,2
17:55:34:468168,-2,-1,5,9,4,-14,12,0
17:55:34:475622,-2,-1,5,9,4,-14,12,0
17:55:34:483138,-2,-6,-9,8,-5,-14,8,-3
17:55:34:490530,-3,-2,-10,-3,-4,10,-12,-4
17:55:34:498743,-3,-2,-10,-3,-4,10,-12,-4
17:55:34:499524,-2,0,-2,-19,-1,14,-12,-5
17:55:34:513903,4,3,-3,0,-3,-27,-11,-1
17:55:34:514625,4,3,-3,0,-3,-27,-11,-1
17:55:34:520600,-4,1,6,-5,-2,9,6,-3
17:55:34:527998,-1,1,1,-8,3,-3,-5,-1
17:55:34:535724,-1,1,1,-8,3,-3,-5,-1
17:55:34:543034,-3,-2,0,4,-4,-4,6,-1
17:55:34:550581,-3,0,-1,8,10,-1,-15,-2
17:55:34:558715,-3,0,-1,8,10,-1,-15,-2
17:55:34:559494,4,-4,-5,14,8,3,-46,1
17:55:34:573730,-1,-2,-5,-10,6,17,7,-2
17:55:34:574557,-1,-2,-5,-10,6,17,7,-2
17:55:34:580705,-8,0,7,-25,4,-14,1,-1
17:55:34:588045,-5,-3,2,-1,-4,3,-5,0
17:55:34:595585,-5,-3,2,-1,-4,3,-5,0
17:55:34:603024,0,0,-2,10,3,5,27,6
17:55:34:610543,-2,-2,-1,-6,-16,-19,11,-1
17:55:34:618827,-2,-2,-1,-6,-16,-19,11,-1
17:55:34:619559,4,-1,3,8,9,27,2,1
17:55:34:633802,5,3,0,-18,-6,3,-4,2
17:55:34:634566,5,3,0,-18,-6,3,-4,2
17:55:34:648756,2,-2,-3,-22,-9,-13,-37,-1
17:55:34:649607,2,1,-2,-22,-4,12,-5,1
17:55:34:655587,2,1,-2,-22,-4,12,-5,1
17:55:34:663069,-7,-2,-4,8,4,-5,2,-4
17:55:34:670567,-4,-5,-5,7,-3,-47,-15,-4
17:55:34:686272,-4,-5,-5,7,-3,-47,-15,-4
17:55:34:687077,1,-2,-4,2,6,-3,-15,-2
17:55:34:693684,3,-1,1,15,1,8,16,0
17:55:34:694499,3,-1,1,15,1,8,16,0
17:55:34:700614,3,2,3,13,-17,-4,-3,4
17:55:34:708025,-6,-5,-5,-2,-9,6,-7,-4
17:55:34:715621,-6,-5,-5,-2,-9,6,-7,-4
17:55:34:723025,-7,-2,0,-10,1,-5,7,-6
17:55:34:730681,-3,-1,-7,4,-8,-3,-3,-1
17:55:34:738746,-3,-1,-7,4,-8,-3,-3,-1
17:55:34:739562,-8,-3,1,-8,-16,-9,16,-7
17:55:34:753695,0,1,3,0,9,-6,6,1
17:55:34:754580,0,1,3,0,9,-6,6,1
17:55:34:760537,-6,3,2,5,20,3,24,-2
17:55:34:776164,3,1,1,6,2,10,-23,-2
17:55:34:776975,3,1,1,6,2,10,-23,-2
17:55:34:783170,0,-3,-9,7,-5,-9,-22,0
17:55:34:790552,0,0,4,15,2,8,46,2
17:55:34:798806,0,0,4,15,2,8,46,2
17:55:34:799575,-3,0,2,6,-6,-1,-10,-1
17:55:34:814286,2,2,5,-6,10,-4,-17,1
17:55:34:815032,2,2,5,-6,10,-4,-17,1
17:55:34:820579,4,-5,-9,-12,4,8,26,-2
17:55:34:828030,6,2,-1,-2,-10,34,0,2
17:55:34:843728,6,2,-1,-2,-10,34,0,2
17:55:34:844526,4,3,4,-2,0,-14,1,2
17:55:34:850623,-7,-6,-9,5,17,-27,6,-8
17:55:34:858676,-7,-6,-9,5,17,-27,6,-8
17:55:34:859495,-3,-8,-9,4,1,13,-2,-3
17:55:34:873693,-8,-3,-3,-7,-2,5,-44,-3
17:55:34:874622,-8,-3,-3,-7,-2,5,-44,-3
17:55:34:880706,5,4,6,7,0,-1,3,2
17:55:34:888060,-10,-5,-4,-15,-8,8,17,-6
17:55:34:895542,-10,-5,-4,-15,-8,8,17,-6
17:55:34:903130,1,1,-3,5,7,-29,-30,1
17:55:34:910500,0,0,-4,10,-3,-5,-6,-2
17:55:34:935145,0,0,-4,10,-3,-5,-6,-2
17:55:34:935841,-10,-3,0,29,3,-16,-33,-8
17:55:34:936656,-7,-6,-4,-5,6,-2,-39,-5
17:55:34:937537,-7,-6,-4,-5,6,-2,-39,-5
17:55:34:940520,-1,-1,-3,-18,4,10,0,-1
17:55:34:948110,4,0,7,1,4,-3,37,5
17:55:34:955618,4,0,7,1,4,-3,37,5
17:55:34:963047,-5,-4,2,-6,-8,29,16,-2
17:55:34:970550,2,4,4,-2,-11,-16,7,0
17:55:34:986963,2,4,4,-2,-11,-16,7,0
17:55:34:987681,-1,-2,-3,-3,-7,0,30,1
17:55:34:993673,1,0,5,-7,0,10,6,2
17:55:34:994504,1,0,5,-7,0,10,6,2
17:55:35:625,2,-1,-1,-13,-2,18,20,3
17:55:35:16277,-1,-2,3,-21,-9,-10,-1,3
17:55:35:17025,-1,-2,3,-21,-9,-10,-1,3
17:55:35:23041,1,0,-4,-9,-14,-13,-16,-1
17:55:35:30530,-9,-2,-6,2,-17,11,2,-6
17:55:35:38087,-9,-2,-6,2,-17,11,2,-6
17:55:35:45550,1,-2,3,7,-15,4,-32,-2
17:55:35:53887,-2,-2,0,18,35,12,3,-4
17:55:35:54555,-2,-2,0,18,35,12,3,-4
17:55:35:60531,5,8,8,-45,0,-12,-2,1
17:55:35:76167,1,-6,-9,6,-7,-6,7,-1
17:55:35:76983,1,-6,-9,6,-7,-6,7,-1
17:55:35:83109,-14,-6,-7,9,14,-7,-13,-11
17:55:35:90532,2,2,-2,6,3,-30,17,-6
17:55:35:98103,2,2,-2,6,3,-30,17,-6
17:55:35:105590,4,1,3,23,6,-7,-22,2
17:55:35:113859,-7,-2,-1,6,-12,-2,-73,-5
17:55:35:114538,-7,-2,-1,6,-12,-2,-73,-5
17:55:35:120602,-8,-11,-13,9,-5,-6,12,-3
17:55:35:136247,10,5,11,-12,-4,26,19,6
17:55:35:137056,10,5,11,-12,-4,26,19,6
17:55:35:151333,1,2,4,14,3,-1,-17,0
17:55:35:152011,-9,-3,-6,15,11,2,2,-4
17:55:35:158000,-9,-3,-6,15,11,2,2,-4
17:55:35:165677,2,0,2,11,8,-20,-49,-2
17:55:35:173709,10,5,4,6,3,9,4,6
17:55:35:174542,10,5,4,6,3,9,4,6
17:55:35:180611,2,0,-9,-20,4,17,36,2
17:55:35:196388,-9,-1,1,-20,-3,15,28,2
17:55:35:196998,-9,-1,1,-20,-3,15,28,2
17:55:35:203067,4,3,9,-18,1,-7,20,4
17:55:35:210534,-6,-2,-1,-28,-13,-27,-23,-7
17:55:35:218211,-6,-2,-1,-28,-13,-27,-23,-7
17:55:35:225554,-4,-7,-10,4,-2,-15,-8,-4
17:55:35:233824,2,1,-5,-12,-15,-20,14,-2
17:55:35:234576,2,1,-5,-12,-15,-20,14,-2
17:55:35:240578,-16,-1,0,3,-17,-10,-4,-11
17:55:35:256252,1,-6,-6,4,0,-1,15,0
17:55:35:257045,1,-6,-6,4,0,-1,15,0
17:55:35:263145,-2,-1,-5,-22,-4,6,47,3
17:55:35:270608,4,1,3,-11,2,1,20,6
17:55:35:278082,4,1,3,-11,2,1,20,6
17:55:35:285600,5,7,4,7,1,41,-6,-1
17:55:35:293701,-7,1,-5,10,4,-1,-6,0
17:55:35:294501,-7,1,-5,10,4,-1,-6,0
17:55:35:300695,2,-3,2,1,-1,-6,7,0
17:55:35:316276,-10,-9,-17,-1,-14,-10,-9,-8
17:55:35:317084,-10,-9,-17,-1,-14,-10,-9,-8
17:55:35:331278,-1,4,3,-28,-7,-14,-9,0
17:55:35:332022,-15,-1,-2,-3,-1,17,-35,-9
17:55:35:338097,-15,-1,-2,-3,-1,17,-35,-9
17:55:35:345553,2,1,-1,5,-2,4,5,3
17:55:35:353807,7,1,4,-4,11,21,7,3
17:55:35:354518,7,1,4,-4,11,21,7,3
17:55:35:360535,1,-4,-6,3,-4,9,-10,-1
17:55:35:376171,-3,1,2,-2,1,-21,-6,-3
17:55:35:376986,-3,1,2,-2,1,-21,-6,-3
17:55:35:383134,0,-3,-5,19,-1,1,-17,0
17:55:35:390590,3,1,4,21,-11,-2,-2,2
17:55:35:398083,3,1,4,21,-11,-2,-2,2
17:55:35:405619,-5,-3,-4,3,-13,-6,0,-6
17:55:35:413708,2,-3,-4,-1,5,-15,-13,0
