Time,EMG1,EMG2,EMG3,EMG4,EMG5,EMG6,EMG7,EMG8
18:32:57:982074,-3,-2,-2,-1,-1,-2,-1,-2
18:32:57:982808,-1,0,-1,-1,-1,-1,-1,-2
18:32:57:988809,-1,-2,-1,0,-1,-1,-1,-1
18:32:57:997065,-1,-2,-1,0,-1,-1,-1,-1
18:32:57:997850,1,-1,-1,-2,-3,0,0,0
18:32:58:11312,0,0,0,-1,-1,-1,-1,-2
18:32:58:19554,0,0,0,-1,-1,-1,-1,-2
18:32:58:20295,0,-2,-1,-1,1,-1,-2,0
18:32:58:26313,0,-1,-1,-4,-2,-2,1,-1
18:32:58:42066,0,-1,-1,-4,-2,-2,1,-1
18:32:58:42834,-1,1,-1,-2,-1,-1,-2,-1
18:32:58:48800,-1,-1,0,0,-1,0,-1,1
18:32:58:57083,-1,-1,0,0,-1,0,-1,1
18:32:58:57852,-2,-1,-2,-1,-2,-1,0,-2
18:32:58:71291,-1,-2,-2,-3,-1,-1,-2,-1
18:32:58:79553,-1,-2,-2,-3,-1,-1,-2,-1
18:32:58:80289,-2,-2,-2,0,-3,-1,0,-3
18:32:58:86301,-1,-1,0,-1,-1,-1,0,-1
18:32:58:102062,-1,-1,0,-1,-1,-1,0,-1
18:32:58:102812,0,0,-2,-2,-1,-2,-2,-1
18:32:58:108824,1,-2,-1,0,-2,-2,-2,-1
18:32:58:117067,1,-2,-1,0,-2,-2,-2,-1
18:32:58:117816,-2,-2,-1,-1,-2,0,-1,-1
18:32:58:131311,-1,-1,-1,-1,0,0,-2,0
18:32:58:139561,-1,-1,-1,-1,0,0,-2,0
18:32:58:140299,0,0,-1,-1,-2,0,0,-1
18:32:58:146334,-2,-1,-1,-2,0,-1,-1,0
18:32:58:162070,-2,-1,-1,-2,0,-1,-1,0
18:32:58:162814,-1,-2,0,-1,-2,-1,0,-2
18:32:58:168823,0,1,-2,-1,-1,-1,-1,-1
18:32:58:177628,0,1,-2,-1,-1,-1,-1,-1
18:32:58:183828,-1,-1,-2,0,0,-2,2,0
18:32:58:191337,-2,-1,-1,0,-3,-1,-2,-1
18:32:58:199595,-2,-1,-1,0,-3,-1,-2,-1
18:32:58:200343,-1,-2,-3,-2,0,0,-2,-1
18:32:58:206348,-1,-1,-2,1,-1,-1,-1,0
18:32:58:222083,-1,-1,-2,1,-1,-1,-1,0
18:32:58:222833,-2,-1,-1,-2,-1,-1,-2,-2
18:32:58:228815,-2,-2,1,-1,1,0,-2,0
18:32:58:237063,-2,-2,1,-1,1,0,-2,0
18:32:58:237845,-1,2,-1,0,1,0,-3,-2
18:32:58:251346,-1,-1,-3,-2,-2,0,-1,0
18:32:58:259563,-1,-1,-3,-2,-2,0,-1,0
18:32:58:260350,-1,-3,-1,-1,-1,-1,-2,0
18:32:58:266323,-2,-1,-1,-2,-2,-2,-2,-1
18:32:58:282068,-2,-1,-1,-2,-2,-2,-2,-1
18:32:58:282795,-1,-2,0,-1,0,0,1,-2
18:32:58:288797,0,-2,-1,0,-1,-1,-1,-3
18:32:58:297094,0,-2,-1,0,-1,-1,-1,-3
18:32:58:297823,0,0,-1,-1,-1,1,-1,0
18:32:58:311314,1,0,-1,-1,0,-2,-1,-2
18:32:58:319557,1,0,-1,-1,0,-2,-1,-2
18:32:58:320326,-2,-1,-2,0,-2,-1,-2,-2
18:32:58:326373,-1,-2,0,-2,-2,-1,0,-1
18:32:58:342071,-1,-2,0,-2,-2,-1,0,-1
18:32:58:342954,-1,-1,0,-2,0,-1,0,-1
18:32:58:348834,-2,-1,-3,0,0,-3,0,-1
18:32:58:357081,-2,-1,-3,0,0,-3,0,-1
18:32:58:357857,-2,-2,-3,-1,0,-1,-1,0
18:32:58:371328,0,-1,-1,0,-2,-1,-3,-2
18:32:58:379592,0,-1,-1,0,-2,-1,-3,-2
18:32:58:380335,-1,-1,0,-1,-2,-2,-2,-2
18:32:58:386317,-1,0,-2,-1,-3,0,0,-1
18:32:58:402081,-1,0,-2,-1,-3,0,0,-1
18:32:58:402824,1,-1,0,-2,-1,-2,-2,-1
18:32:58:408809,-2,-1,-1,-1,1,-2,-2,-2
18:32:58:417056,-2,-1,-1,-1,1,-2,-2,-2
18:32:58:417799,0,-1,-5,-2,0,-2,0,-1
18:32:58:431821,-1,-2,-1,-1,-3,-2,0,0
18:32:58:439564,-1,-2,-1,-1,-3,-2,0,0
18:32:58:440460,0,0,-1,-1,-3,0,-1,-1
18:32:58:446328,-1,0,-2,-2,0,-1,-2,0
18:32:58:462066,-1,0,-2,-2,0,-1,-2,0
18:32:58:462801,1,-1,0,-2,-1,1,-1,0
18:32:58:468804,0,1,0,0,0,0,-2,-1
18:32:58:477050,0,1,0,0,0,0,-2,-1
18:32:58:477929,-3,0,-1,-2,0,0,-1,-1
18:32:58:491309,-1,-3,-2,-2,0,0,1,-1
18:32:58:499582,-1,-3,-2,-2,0,0,1,-1
18:32:58:500323,0,-1,-1,-1,-1,-3,-1,-1
18:32:58:506362,-2,0,-2,0,-3,-1,-2,-2
18:32:58:522097,-2,0,-2,0,-3,-1,-2,-2
18:32:58:522870,-1,-1,0,1,-3,-2,0,-2
18:32:58:528823,-1,0,0,-2,0,-2,-1,0
18:32:58:537062,-1,0,0,-2,0,-2,-1,0
18:32:58:537811,-2,-3,-1,0,-1,-2,-1,0
18:32:58:551308,-1,-1,0,0,-2,0,0,-1
18:32:58:559603,-1,-1,0,0,-2,0,0,-1
18:32:58:560347,0,0,-2,-2,-1,-2,0,-2
18:32:58:566327,-1,0,-2,-1,-2,0,-1,-3
18:32:58:582083,-1,0,-2,-1,-2,0,-1,-3
18:32:58:582828,0,-3,-2,0,-1,-1,-2,-1
18:32:58:588837,-1,-1,-1,-2,-2,0,0,-2
18:32:58:597108,-1,-1,-1,-2,-2,0,0,-2
18:32:58:597846,-1,-2,-2,-1,-3,-1,-1,0
18:32:58:611364,-1,-1,-1,-1,-2,-2,-2,0
18:32:58:619561,-1,-1,-1,-1,-2,-2,-2,0
18:32:58:620363,-2,-1,-1,-1,0,-1,0,-1
18:32:58:633840,0,-3,-2,-1,-2,-1,-1,-1
18:32:58:642078,0,-3,-2,-1,-2,-1,-1,-1
18:32:58:642817,-1,0,0,-1,-2,-1,1,-2
18:32:58:648826,-2,-3,0,-1,0,-1,-1,-2
18:32:58:656451,-2,-3,0,-1,0,-1,-1,-2
18:32:58:663828,0,-1,-1,0,0,-1,-2,-1
18:32:58:671345,-2,-1,1,-1,-1,-1,-2,1
18:32:58:679598,-2,-1,1,-1,-1,-1,-2,1
18:32:58:680309,-1,-1,0,-1,0,-1,-2,1
18:32:58:702697,-2,-2,-3,-2,1,-1,-1,-2
18:32:58:703566,-2,-2,-3,-2,1,-1,-1,-2
18:32:58:704301,0,1,-2,1,-1,0,-1,-2
18:32:58:708854,0,0,0,-1,-1,-1,0,-1
18:32:58:716336,0,0,0,-1,-1,-1,0,-1
18:32:58:723830,-2,0,0,-1,0,-2,-1,-2
18:32:58:731331,-1,1,-2,-2,-1,-1,-3,0
18:32:58:739564,-1,1,-2,-2,-1,-1,-3,0
18:32:58:740332,-2,0,-1,-2,-1,-1,0,0
18:32:58:753817,-1,-1,-1,1,-1,-1,0,0
18:32:58:762070,-1,-1,-1,1,-1,-1,0,0
18:32:58:762833,1,-2,0,0,-2,-1,0,0
18:32:58:768823,-1,-2,-2,-2,0,-2,-1,0
18:32:58:776483,-1,-2,-2,-2,0,-2,-1,0
18:32:58:783835,-1,-2,-3,-1,-2,-2,-2,-3
18:32:58:791309,0,-1,1,0,-2,0,0,-2
18:32:58:799566,0,-1,1,0,-2,0,0,-2
18:32:58:800296,0,-2,0,-2,-1,-1,-2,1
18:32:58:813827,-1,-1,0,-2,-2,-2,-1,0
18:32:58:822089,-1,-1,0,-2,-2,-2,-1,0
18:32:58:822839,-2,-1,0,0,0,-1,-1,0
18:32:58:828819,0,-1,-3,0,-1,-2,0,-2
18:32:58:836449,0,-1,-3,0,-1,-2,0,-2
18:32:58:843822,-2,0,-3,-2,1,-2,-1,0
18:32:58:851316,-1,-1,1,-1,-1,-1,-1,-1
18:32:58:859566,-1,-1,1,-1,-1,-1,-1,-1
18:32:58:860303,1,-2,0,0,-3,0,0,-3
18:32:58:873817,-1,1,-2,-2,1,-1,0,0
18:32:58:882059,-1,1,-2,-2,1,-1,0,0
18:32:58:882806,-2,-1,-1,0,0,-1,0,0
18:32:58:888822,0,-1,0,1,0,1,-1,-1
18:32:58:896339,0,-1,0,1,0,1,-1,-1
18:32:58:903822,0,0,0,-1,0,-1,-1,-3
18:32:58:911354,-3,1,-1,-1,-2,-1,-1,-1
18:32:58:919556,-3,1,-1,-1,-2,-1,-1,-1
18:32:58:920319,-2,-2,-1,-3,-2,-1,-1,-2
18:32:58:933823,-1,-2,-2,0,0,-1,-1,1
18:32:58:942071,-1,-2,-2,0,0,-1,-1,1
18:32:58:942866,-2,-1,-1,0,-3,-2,-2,-1
18:32:58:948823,-1,-1,0,-1,-2,0,0,-2
18:32:58:956371,-1,-1,0,-1,-2,0,0,-2
18:32:58:963873,0,0,-1,-2,1,0,0,-3
18:32:58:971363,0,-2,-1,-3,-1,-2,-3,0
18:32:58:979593,0,-2,-1,-3,-1,-2,-3,0
18:32:58:980319,-1,-1,1,-1,-1,0,-2,-1
18:32:58:993863,-1,-3,-1,-1,-1,-1,-1,0
18:32:59:2089,-1,-3,-1,-1,-1,-1,-1,0
18:32:59:2826,1,-1,-1,1,-1,-2,-1,-1
18:32:59:8867,-2,-1,-2,-1,1,-2,-1,-1
18:32:59:16313,-2,-1,-2,-1,1,-2,-1,-1
18:32:59:23797,0,-2,-1,-1,-3,-2,-1,0
18:32:59:31329,-2,-1,-4,-1,0,0,0,-1
18:32:59:39561,-2,-1,-4,-1,0,0,0,-1
18:32:59:40307,-2,-2,-2,-1,0,2,-1,-2
18:32:59:53830,0,0,-2,1,-3,-2,-1,-2
18:32:59:62083,0,0,-2,1,-3,-2,-1,-2
18:32:59:62822,-1,-1,0,-1,0,-1,1,0
18:32:59:68817,-1,-2,1,-2,0,-2,-1,-2
18:32:59:76524,-1,-2,1,-2,0,-2,-1,-2
18:32:59:83838,-1,0,-1,1,-3,-2,-2,1
18:32:59:91372,1,-2,-1,0,-2,0,-1,-2
18:32:59:99569,1,-2,-1,0,-2,0,-1,-2
18:32:59:100309,-3,0,0,-2,-2,0,-2,-1
18:32:59:113853,-1,0,-1,0,0,0,-2,0
18:32:59:122078,-1,0,-1,0,0,0,-2,0
18:32:59:122829,-1,-2,-3,-1,0,-2,0,-2
18:32:59:128816,-2,-1,-1,-1,-1,-2,0,-1
18:32:59:136440,-2,-1,-1,-1,-1,-2,0,-1
18:32:59:143824,0,-2,0,-2,0,-2,-1,0
18:32:59:151335,-1,-3,-2,-1,-1,-1,0,0
18:32:59:159619,-1,-3,-2,-1,-1,-1,0,0
18:32:59:160360,-4,-1,-1,-1,-2,0,-2,-1
18:32:59:173822,-1,0,-2,-1,-1,1,0,-2
18:32:59:182087,-1,0,-2,-1,-1,1,0,-2
18:32:59:182818,-1,-2,-2,-1,0,-1,-1,-2
18:32:59:188832,0,0,0,0,0,0,-3,-1
18:32:59:196322,0,0,0,0,0,0,-3,-1
18:32:59:203836,0,2,-2,-1,0,1,0,0
18:32:59:211331,-1,-2,0,-3,0,-3,-1,-1
18:32:59:219577,-1,-2,0,-3,0,-3,-1,-1
18:32:59:220320,-2,-3,-1,-3,-3,-2,-3,0
18:32:59:233830,-1,1,0,1,3,1,1,-1
18:32:59:242117,-1,1,0,1,3,1,1,-1
18:32:59:242874,0,-1,-4,-4,-8,-6,-1,-1
18:32:59:248846,-1,-1,0,3,4,2,1,-2
18:32:59:256327,-1,-1,0,3,4,2,1,-2
18:32:59:263821,1,0,2,7,4,6,3,1
18:32:59:271341,-2,-2,-4,-5,-11,-7,-5,-3
18:32:59:279574,-2,-2,-4,-5,-11,-7,-5,-3
18:32:59:280315,-1,-3,-6,-3,-1,-3,-1,0
18:32:59:294362,0,0,4,-3,-2,-4,-4,0
18:32:59:302070,0,0,4,-3,-2,-4,-4,0
18:32:59:302822,-1,5,-25,1,6,5,1,0
18:32:59:308821,0,1,-2,-1,3,-3,0,0
18:32:59:316305,0,1,-2,-1,3,-3,0,0
18:32:59:323857,-1,-5,5,-6,-7,-3,-1,-2
18:32:59:331346,-3,-23,31,0,-5,-1,-1,-2
18:32:59:339571,-3,-23,31,0,-5,-1,-1,-2
18:32:59:340324,-4,-21,16,-12,-1,-2,0,-2
18:32:59:362734,-1,3,15,10,10,5,2,-1
18:32:59:363576,-1,3,15,10,10,5,2,-1
18:32:59:364322,-4,-24,-25,-12,6,-4,-5,-4
18:32:59:368832,-3,1,10,8,-7,-4,-4,-3
18:32:59:376343,-3,1,10,8,-7,-4,-4,-3
18:32:59:383809,1,10,-11,-11,-8,-6,-3,-1
18:32:59:391349,3,15,21,-9,-3,2,4,1
18:32:59:399575,3,15,21,-9,-3,2,4,1
18:32:59:400307,-2,-14,-22,16,-2,1,0,0
18:32:59:413850,-2,3,3,4,2,-2,-4,-2
18:32:59:430592,-2,3,3,4,2,-2,-4,-2
18:32:59:431449,1,13,15,-5,-3,0,1,-1
18:32:59:436952,-2,-2,-25,-6,7,2,0,-2
18:32:59:437825,-2,-2,-25,-6,7,2,0,-2
18:32:59:443858,3,30,65,26,-1,-2,-3,0
18:32:59:451306,-4,-5,-10,2,2,-1,-2,-3
18:32:59:459976,-4,-5,-10,2,2,-1,-2,-3
18:32:59:466328,1,16,10,-20,0,0,0,-1
18:32:59:473862,1,1,-6,-9,-7,-2,0,1
18:32:59:482064,1,1,-6,-9,-7,-2,0,1
18:32:59:482836,-2,-9,-9,-10,1,-3,0,-2
18:32:59:488843,0,-7,-3,33,0,-1,-2,0
18:32:59:496450,0,-7,-3,33,0,-1,-2,0
18:32:59:503831,-1,-2,-16,-2,-3,-1,0,-1
18:32:59:511359,-2,-5,-30,-11,-5,-5,-3,0
18:32:59:519569,-2,-5,-30,-11,-5,-5,-3,0
18:32:59:520321,-2,-7,-41,-18,-1,0,-3,-16
18:32:59:533831,-1,3,-14,-22,-9,-6,-4,-4
18:32:59:542121,-1,3,-14,-22,-9,-6,-4,-4
18:32:59:542876,1,-26,-5,15,7,4,2,6
18:32:59:548815,1,30,-38,-42,-7,0,0,0
18:32:59:556442,1,30,-38,-42,-7,0,0,0
18:32:59:563835,15,11,21,-11,-3,0,-4,-14
18:32:59:571340,10,9,24,37,11,7,7,98
18:32:59:578831,10,9,24,37,11,7,7,98
18:32:59:586317,-7,79,57,23,8,7,9,38
18:32:59:593854,-3,-3,6,44,1,-1,0,-7
18:32:59:602078,-3,-3,6,44,1,-1,0,-7
18:32:59:602821,-12,1,12,-30,2,3,3,9
18:32:59:616953,1,-22,12,0,0,-3,-6,-31
18:32:59:617824,1,-22,12,0,0,-3,-6,-31
18:32:59:623825,-1,-23,53,17,-9,-10,-15,30
18:32:59:631379,-3,-22,-9,-35,-7,-3,-1,-5
18:32:59:638845,-3,-22,-9,-35,-7,-3,-1,-5
18:32:59:646340,23,-15,-1,-13,-2,-2,0,37
18:32:59:653823,-5,3,27,18,2,5,30,8
18:32:59:662114,-5,3,27,18,2,5,30,8
18:32:59:662818,4,1,-10,12,5,2,11,17
18:32:59:677085,2,17,12,-59,-8,-6,-13,-116
18:32:59:677895,2,17,12,-59,-8,-6,-13,-116
18:32:59:683840,-12,-5,8,10,0,2,22,-9
18:32:59:691344,-6,1,-27,5,-6,-6,-10,120
18:32:59:698812,-6,1,-27,5,-6,-6,-10,120
18:32:59:706330,-5,-1,10,19,-2,-3,-3,-51
18:32:59:713854,-2,0,-17,-10,3,4,-6,-11
18:32:59:722105,-2,0,-17,-10,3,4,-6,-11
18:32:59:722843,0,-14,-58,-6,-5,1,31,12
18:32:59:737090,7,2,9,-5,1,-3,-25,-29
18:32:59:737832,7,2,9,-5,1,-3,-25,-29
18:32:59:743869,-4,-5,-5,9,0,3,2,-50
18:32:59:751356,-2,13,14,0,1,1,-8,-43
18:32:59:758980,-2,13,14,0,1,1,-8,-43
18:32:59:766356,-9,-16,-64,-30,-6,-6,-19,0
18:32:59:773864,1,-1,-1,4,-1,0,4,12
18:32:59:782093,1,-1,-1,4,-1,0,4,12
18:32:59:782859,-1,10,16,5,0,-3,-4,-6
18:32:59:797085,-8,-17,-10,2,-2,-1,3,-68
18:32:59:797831,-8,-17,-10,2,-2,-1,3,-68
18:32:59:803870,0,-5,3,8,-2,-2,-16,5
18:32:59:811339,0,3,9,3,1,0,7,23
18:32:59:818984,0,3,9,3,1,0,7,23
18:32:59:826371,-1,1,1,-6,-5,-3,-10,-5
18:32:59:833851,-1,3,6,-3,-1,0,4,9
18:32:59:842106,-1,3,6,-3,-1,0,4,9
18:32:59:842828,-3,-6,-7,-1,0,-3,-6,6
18:32:59:857076,-1,-10,2,-7,-2,-2,-2,7
18:32:59:857843,-1,-10,2,-7,-2,-2,-2,7
18:32:59:863818,-4,-9,-11,-12,-2,-2,-7,-5
18:32:59:871329,-4,-13,-24,4,-2,-3,0,-1
18:32:59:878842,-4,-13,-24,4,-2,-3,0,-1
18:32:59:894583,0,3,3,5,2,0,-11,-5
18:32:59:895339,-2,-3,-2,1,1,-1,-1,11
18:32:59:902088,-2,-3,-2,1,1,-1,-1,11
18:32:59:902836,1,0,-6,1,-1,-2,-6,-5
18:32:59:917084,1,3,4,2,0,-1,3,5
18:32:59:917824,1,3,4,2,0,-1,3,5
18:32:59:923824,1,-4,-10,1,2,3,1,-2
18:32:59:931343,-1,-1,3,2,-3,-3,1,2
18:32:59:938825,-1,-1,3,2,-3,-3,1,2
18:32:59:946332,-3,-5,-24,-6,-4,-2,1,-1
18:32:59:953848,-1,-4,-2,1,0,1,-3,0
18:32:59:962105,-1,-4,-2,1,0,1,-3,0
18:32:59:962831,-1,-1,9,2,-1,-1,1,-1
18:32:59:976978,-4,0,-4,-4,-3,-3,-3,-7
18:32:59:977857,-4,0,-4,-4,-3,-3,-3,-7
18:32:59:983838,-2,1,-1,-1,8,1,2,-1
18:32:59:999585,0,6,2,4,2,2,1,2
18:33:00:328,0,6,2,4,2,2,1,2
18:33:00:6341,-2,-9,-11,-5,-5,-6,-5,-4
18:33:00:13842,0,-2,-2,6,1,1,3,12
18:33:00:22083,0,-2,-2,6,1,1,3,12
18:33:00:22829,-1,0,4,-1,-4,-1,-1,-3
18:33:00:37085,0,-1,1,-1,1,1,-1,-2
18:33:00:37843,0,-1,1,-1,1,1,-1,-2
18:33:00:43927,-1,1,0,-9,-1,-1,-2,-2
18:33:00:51338,-1,1,-3,-2,-1,-1,-1,-1
18:33:00:58903,-1,1,-3,-2,-1,-1,-1,-1
18:33:00:66333,-1,2,9,4,-1,-3,1,0
18:33:00:73883,1,-2,-3,-1,-2,0,-2,2
18:33:00:82091,1,-2,-3,-1,-2,0,-2,2
18:33:00:82839,-1,3,1,1,-4,-3,-2,-1
18:33:00:105218,-2,-5,-6,0,-1,-2,-2,-3
18:33:00:106081,-2,-5,-6,0,-1,-2,-2,-3
18:33:00:106853,-3,-4,-49,-1,3,0,1,-5
18:33:00:111388,-6,-24,-21,-7,-3,-3,-3,-1
18:33:00:118963,-6,-24,-21,-7,-3,-3,-3,-1
18:33:00:126365,0,4,20,1,-4,-4,-3,0
18:33:00:133840,-1,4,0,0,2,-2,6,-2
18:33:00:142129,-1,4,0,0,2,-2,6,-2
18:33:00:142879,-1,-1,9,3,-1,0,10,-51
18:33:00:156953,2,2,12,1,-2,0,-2,19
18:33:00:157810,2,2,12,1,-2,0,-2,19
18:33:00:163850,1,4,7,1,0,1,-4,13
18:33:00:171363,-2,1,2,-2,-2,-4,-3,16
18:33:00:178849,-2,1,2,-2,-2,-4,-3,16
18:33:00:186346,0,0,-14,-8,-5,-4,-4,10
18:33:00:193863,-4,3,1,0,-2,-1,0,9
18:33:00:209580,-4,3,1,0,-2,-1,0,9
18:33:00:210329,1,4,11,3,1,1,0,5
18:33:00:216955,2,-5,-5,0,0,0,-1,-14
18:33:00:217855,2,-5,-5,0,0,0,-1,-14
18:33:00:223829,-3,-4,11,0,0,-1,-3,-3
18:33:00:231326,-1,-2,2,-1,-2,0,-1,-12
18:33:00:238853,-1,-2,2,-1,-2,0,-1,-12
18:33:00:246347,-3,-48,-24,0,0,1,-1,35
18:33:00:262731,-1,7,6,-2,-2,-4,-5,-28
18:33:00:263584,-1,7,6,-2,-2,-4,-5,-28
18:33:00:264323,0,11,5,-2,-1,-1,-1,-10
18:33:00:277007,0,-12,-6,-1,0,-1,-2,0
18:33:00:277839,0,-12,-6,-1,0,-1,-2,0
18:33:00:283840,-3,9,17,4,3,2,4,9
18:33:00:291359,2,-41,-5,-2,-2,0,-1,2
18:33:00:298843,2,-41,-5,-2,-2,0,-1,2
18:33:00:306349,1,12,4,-1,-3,-1,-3,-3
18:33:00:313845,1,-3,-4,-2,-3,-1,0,-8
18:33:00:322094,1,-3,-4,-2,-3,-1,0,-8
18:33:00:322849,0,0,-2,0,0,-2,-1,-7
18:33:00:336947,-5,13,8,2,2,0,2,4
18:33:00:337816,-5,13,8,2,2,0,2,4
18:33:00:343902,-5,8,4,-1,-3,-2,0,-2
18:33:00:351341,0,7,-4,-2,-3,-3,0,-1
18:33:00:367097,0,7,-4,-2,-3,-3,0,-1
18:33:00:367836,2,-7,-3,1,2,0,-2,-4
18:33:00:373857,-3,5,5,4,0,-1,-2,-2
18:33:00:382135,-3,5,5,4,0,-1,-2,-2
18:33:00:382833,-2,2,-1,-7,-7,-3,-3,2
18:33:00:396973,0,-12,-15,-8,-2,2,0,-3
18:33:00:397834,0,-12,-15,-8,-2,2,0,-3
18:33:00:403834,-1,-10,-1,1,12,2,-3,-1
18:33:00:419586,0,-3,-13,-8,-3,-1,1,-1
18:33:00:420329,0,-3,-13,-8,-3,-1,1,-1
18:33:00:426360,-3,-6,-3,-4,-6,-2,-3,-4
18:33:00:433876,3,11,10,6,4,0,-2,2
18:33:00:442110,3,11,10,6,4,0,-2,2
18:33:00:442850,-1,4,1,1,-4,-4,1,-1
18:33:00:456978,-3,10,3,1,1,0,0,1
18:33:00:457842,-3,10,3,1,1,0,0,1
18:33:00:471979,-9,10,6,0,-2,-1,-1,-3
18:33:00:472846,-2,2,2,-1,-3,-1,0,-1
18:33:00:479526,-2,2,2,-1,-3,-1,0,-1
18:33:00:486315,8,8,3,9,6,4,2,2
18:33:00:493869,-13,-14,-4,-3,-1,-2,1,3
18:33:00:502023,-13,-14,-4,-3,-1,-2,1,3
18:33:00:502848,3,-6,-2,-4,-7,-5,-3,52
18:33:00:517599,3,2,-1,-1,-2,-2,-3,24
18:33:00:518465,3,2,-1,-1,-2,-2,-3,24
18:33:00:523829,-4,-9,-5,-3,-3,-1,-1,7
18:33:00:539584,1,16,5,2,-2,-1,-6,-15
18:33:00:540328,1,16,5,2,-2,-1,-6,-15
18:33:00:546349,-1,7,2,-3,-1,1,12,-22
18:33:00:553878,-3,13,5,2,1,0,1,-9
18:33:00:561477,-3,13,5,2,1,0,1,-9
18:33:00:568827,28,10,4,0,-2,-3,-7,1
18:33:00:576988,-62,-24,-4,-3,2,-3,-7,-25
18:33:00:577898,-62,-24,-4,-3,2,-3,-7,-25
18:33:00:583872,-4,-5,-4,-2,1,0,5,-8
18:33:00:599590,24,22,-1,1,2,2,-6,10
18:33:00:600336,24,22,-1,1,2,2,-6,10
18:33:00:606362,-12,-18,-7,0,-1,0,0,-13
18:33:00:613847,-1,-6,-12,0,-1,-1,-2,1
18:33:00:621343,-1,-6,-12,0,-1,-1,-2,1
18:33:00:628852,-8,2,-3,-7,-10,-5,-5,7
18:33:00:637478,-3,14,7,-2,-4,-2,1,0
18:33:00:644598,-3,14,7,-2,-4,-2,1,0
18:33:00:645376,15,3,-4,2,2,0,-2,-7
18:33:00:659587,15,-15,-2,-1,-1,0,4,3
18:33:00:660329,15,-15,-2,-1,-1,0,4,3
18:33:00:666369,19,-7,-4,-5,-1,-2,-2,-4
18:33:00:673874,10,3,2,-3,-1,0,2,0
18:33:00:681360,10,3,2,-3,-1,0,2,0
18:33:00:697738,-46,0,6,-2,-7,-4,-2,-11
18:33:00:698480,11,15,4,-1,-5,-3,-3,2
18:33:00:699333,11,15,4,-1,-5,-3,-3,2
18:33:00:703854,4,-22,-10,-3,0,-3,-2,-5
18:33:00:719608,-45,-22,-6,0,-8,-3,-2,-4
18:33:00:720335,-45,-22,-6,0,-8,-3,-2,-4
18:33:00:726395,-2,5,0,-3,1,0,-1,-1
18:33:00:733870,18,6,1,1,5,2,0,3
18:33:00:749621,18,6,1,1,5,2,0,3
18:33:00:750327,0,5,0,6,5,1,1,-2
18:33:00:756974,17,-10,-17,1,-2,-2,2,4
18:33:00:757879,17,-10,-17,1,-2,-2,2,4
18:33:00:763909,1,26,8,-2,3,0,-5,0
18:33:00:779577,-74,-19,16,-1,-1,-4,-4,-9
18:33:00:780317,-74,-19,16,-1,-1,-4,-4,-9
18:33:00:786343,-22,-15,2,1,-3,-2,-5,-3
18:33:00:802100,23,20,-7,-4,-14,-4,-2,-2
18:33:00:802823,23,20,-7,-4,-14,-4,-2,-2
18:33:00:808871,3,-3,-3,-4,-3,0,-1,0
18:33:00:817070,5,-23,-2,0,-5,-2,-1,-4
18:33:00:817856,5,-23,-2,0,-5,-2,-1,-4
18:33:00:823859,3,-12,-1,3,-2,-1,2,-16
18:33:00:839587,7,-16,1,2,6,2,4,8
18:33:00:840324,7,-16,1,2,6,2,4,8
18:33:00:846349,3,-17,-4,-3,0,-2,-5,5
18:33:00:853831,-2,0,1,0,3,-1,0,-4
18:33:00:861478,-2,0,1,0,3,-1,0,-4
18:33:00:868842,7,21,-1,6,-1,1,5,1
18:33:00:876981,25,10,0,5,8,1,1,6
18:33:00:877854,25,10,0,5,8,1,1,6
18:33:00:883855,-5,1,1,-10,-4,-3,-2,-6
18:33:00:899611,12,-2,-16,-8,-2,0,-1,2
18:33:00:900343,12,-2,-16,-8,-2,0,-1,2
18:33:00:906339,-33,-22,-14,6,2,2,2,2
18:33:00:913845,-29,4,11,-4,-1,1,14,4
18:33:00:921348,-29,4,11,-4,-1,1,14,4
18:33:00:928851,-10,8,9,0,-1,4,38,2
18:33:00:936960,8,8,0,2,0,0,1,-2
18:33:00:937839,8,8,0,2,0,0,1,-2
18:33:00:943854,5,-3,-1,-4,-2,-6,-19,-2
18:33:00:959583,5,6,12,0,-2,-2,-9,-84
18:33:00:960335,5,6,12,0,-2,-2,-9,-84
18:33:00:974621,5,6,13,-1,1,-5,-35,17
18:33:00:975360,13,-6,-6,-10,-1,0,-14,29
18:33:00:981477,13,-6,-6,-10,-1,0,-14,29
18:33:00:988843,0,3,-4,-2,-1,0,-11,-14
18:33:00:996955,-5,28,16,4,-2,-5,-17,14
18:33:00:997823,-5,28,16,4,-2,-5,-17,14
18:33:01:3875,9,-11,-11,-4,-3,1,7,8
18:33:01:27728,15,6,-5,2,0,-1,2,13
18:33:01:28590,15,6,-5,2,0,-1,2,13
18:33:01:29377,8,1,4,-1,-2,-1,6,-3
18:33:01:33846,-5,-11,-10,-3,-1,1,-13,3
18:33:01:41493,-5,-11,-10,-3,-1,1,-13,3
18:33:01:48855,4,-14,-14,0,0,4,44,18
18:33:01:56954,4,-7,-22,0,0,4,51,11
18:33:01:57843,4,-7,-22,0,0,4,51,11
18:33:01:63860,3,4,-3,1,-1,-11,-59,-3
18:33:01:79981,-1,-7,-24,-2,-3,1,23,14
18:33:01:80853,-1,-7,-24,-2,-3,1,23,14
18:33:01:86334,-1,10,-26,6,1,-4,11,-9
18:33:01:93861,1,-5,-14,-4,-7,-24,-55,-54
18:33:01:101328,1,-5,-14,-4,-7,-24,-55,-54
18:33:01:108847,2,7,23,6,3,3,-1,10
18:33:01:125237,-1,-2,-45,-28,0,8,-36,12
18:33:01:126146,-1,-2,-45,-28,0,8,-36,12
18:33:01:126853,-3,-9,-1,5,1,0,7,-1
18:33:01:139605,10,8,21,7,1,1,5,-1
18:33:01:140368,10,8,21,7,1,1,5,-1
18:33:01:146344,-5,-5,-10,-8,-2,1,4,-6
18:33:01:153846,8,6,32,8,2,2,12,23
18:33:01:161483,8,6,32,8,2,2,12,23
18:33:01:168825,-6,7,-6,-13,-5,0,12,4
18:33:01:176987,-4,-1,9,0,-1,-7,-26,11
18:33:01:177863,-4,-1,9,0,-1,-7,-26,11
18:33:01:183850,-5,-6,4,2,-2,0,-7,-1
18:33:01:199601,-8,-5,7,9,-2,-1,-11,-1
18:33:01:200373,-8,-5,7,9,-2,-1,-11,-1
18:33:01:206347,-4,0,10,6,5,5,7,-10
18:33:01:213845,3,12,23,14,6,4,16,4
18:33:01:221355,3,12,23,14,6,4,16,4
18:33:01:228849,-2,-11,-17,-58,2,-2,-12,0
18:33:01:236957,15,-2,0,-2,-3,-3,9,-1
18:33:01:237846,15,-2,0,-2,-3,-3,9,-1
18:33:01:251338,9,25,4,13,-7,2,5,19
18:33:01:259626,-5,-7,-2,-12,-1,3,0,-9
18:33:01:260370,-5,-7,-2,-12,-1,3,0,-9
18:33:01:266360,8,6,1,9,-2,-3,19,53
18:33:01:273842,-10,-12,-20,4,-2,-3,-4,-2
18:33:01:281338,-10,-12,-20,4,-2,-3,-4,-2
18:33:01:288842,-2,-16,0,1,-1,-2,-18,-1
18:33:01:305223,-9,-2,1,-4,-3,-2,12,-5
18:33:01:305972,-9,-2,1,-4,-3,-2,12,-5
18:33:01:306838,-1,-9,1,4,-2,-3,-7,-29
18:33:01:319579,1,-12,-8,-1,-5,-2,10,1
18:33:01:320319,1,-12,-8,-1,-5,-2,10,1
18:33:01:326404,13,-12,10,9,-1,1,-4,2
18:33:01:342181,13,-12,10,9,-1,1,-4,2
18:33:01:342904,2,10,22,1,4,4,1,14
18:33:01:348862,-34,-10,-2,3,-2,-3,2,-25
18:33:01:356963,-34,-10,-2,3,-2,-3,2,-25
18:33:01:357860,-8,-1,32,23,5,1,-3,-5
18:33:01:371340,20,1,67,17,-5,-5,-2,-10
18:33:01:379609,20,1,67,17,-5,-5,-2,-10
18:33:01:380352,-1,-16,-41,-44,-11,-7,-11,-9
18:33:01:386333,11,13,-31,0,2,3,20,-10
18:33:01:402090,11,13,-31,0,2,3,20,-10
18:33:01:402841,-3,-32,-12,-11,-6,1,14,-37
18:33:01:408852,8,-5,11,0,-2,-2,-14,3
18:33:01:417105,8,-5,11,0,-2,-2,-14,3
18:33:01:417839,5,18,6,0,2,0,-3,22
18:33:01:423826,-15,15,17,7,3,0,-5,-15
18:33:01:439634,-15,15,17,7,3,0,-5,-15
18:33:01:440429,-6,-4,-4,2,-1,-4,-8,-26
18:33:01:446357,38,4,-8,-4,3,3,-2,18
18:33:01:462114,38,4,-8,-4,3,3,-2,18
18:33:01:462845,-13,-5,16,-14,1,-2,-3,-1
18:33:01:468848,-2,12,-14,-3,-7,-4,-9,-1
18:33:01:477082,-2,12,-14,-3,-7,-4,-9,-1
18:33:01:477849,3,23,28,25,2,3,6,2
18:33:01:491345,5,-6,-5,-8,0,1,-1,4
18:33:01:499628,5,-6,-5,-8,0,1,-1,4
18:33:01:500372,-61,-19,3,3,-3,-3,0,11
18:33:01:506347,-59,-24,-11,1,-1,1,0,-8
18:33:01:522102,-59,-24,-11,1,-1,1,0,-8
18:33:01:522853,9,-34,-22,-6,4,1,1,-5
18:33:01:528882,0,-19,-45,-14,-3,-5,1,-8
18:33:01:537086,0,-19,-45,-14,-3,-5,1,-8
18:33:01:537846,62,11,-2,-18,-7,-3,3,13
18:33:01:551333,-22,7,12,-2,-5,1,-1,3
18:33:01:559614,-22,7,12,-2,-5,1,-1,3
18:33:01:560354,-14,5,-7,13,0,1,4,5
18:33:01:566328,-17,16,10,2,0,-1,-3,-10
18:33:01:582101,-17,16,10,2,0,-1,-3,-10
18:33:01:582843,14,26,25,20,-7,-3,-8,-1
18:33:01:588841,-6,-58,-17,-6,-5,-8,-22,-23
18:33:01:597098,-6,-58,-17,-6,-5,-8,-22,-23
18:33:01:597848,-53,-18,-29,-12,0,-1,-1,-6
18:33:01:611377,25,31,9,7,3,1,7,22
18:33:01:619605,25,31,9,7,3,1,7,22
18:33:01:620345,9,-15,-24,-2,0,-2,-6,0
18:33:01:633870,-19,-18,-26,-17,0,3,6,-2
18:33:01:641877,-19,-18,-26,-17,0,3,6,-2
18:33:01:649484,25,16,19,8,3,5,8,8
18:33:01:650250,10,8,5,-3,0,0,9,10
18:33:01:657172,10,8,5,-3,0,0,9,10
18:33:01:657898,22,32,-1,-1,-1,0,-5,6
18:33:01:671376,30,7,3,-9,-8,-4,-2,0
18:33:01:687732,30,7,3,-9,-8,-4,-2,0
18:33:01:688593,17,16,14,8,0,-5,-19,1
18:33:01:689348,-36,-17,-6,3,2,9,30,-8
18:33:01:702111,-36,-17,-6,3,2,9,30,-8
18:33:01:702891,27,6,6,2,-1,-2,5,5
18:33:01:708873,28,5,3,1,0,0,10,-7
18:33:01:717096,28,5,3,1,0,0,10,-7
18:33:01:717835,-9,-10,-28,-12,-1,-4,-15,-3
18:33:01:731381,36,3,-10,4,-1,-6,-20,5
18:33:01:739606,36,3,-10,4,-1,-6,-20,5
18:33:01:740357,2,-28,-16,-10,16,2,2,-1
18:33:01:746359,-14,-14,8,5,-3,-3,-13,-3
18:33:01:762107,-14,-14,8,5,-3,-3,-13,-3
18:33:01:762847,-29,8,12,8,-4,-1,-14,7
18:33:01:768846,0,51,12,6,2,4,37,4
18:33:01:777141,0,51,12,6,2,4,37,4
18:33:01:777879,14,1,9,-1,-2,-1,15,-8
18:33:01:791350,17,29,11,0,-3,-10,-33,1
18:33:01:799970,17,29,11,0,-3,-10,-33,1
18:33:01:807003,34,-12,-23,-6,-3,2,-1,-15
18:33:01:807872,-19,-6,4,9,6,-3,-8,-1
18:33:01:822086,-19,-6,4,9,6,-3,-8,-1
18:33:01:822826,-20,6,3,3,2,-2,1,-25
18:33:01:828906,10,-31,-25,-5,-3,-2,-17,-2
18:33:01:837094,10,-31,-25,-5,-3,-2,-17,-2
18:33:01:837842,-21,13,-10,4,-2,-1,-14,1
18:33:01:851341,58,-10,26,17,4,2,5,-21
18:33:01:859610,58,-10,26,17,4,2,5,-21
18:33:01:860356,22,-16,10,-7,-6,-3,32,7
18:33:01:866357,-19,-4,-7,-8,-5,-4,-18,13
18:33:01:882139,-19,-4,-7,-8,-5,-4,-18,13
18:33:01:882879,-16,20,13,-6,7,0,-6,2
18:33:01:888864,10,0,-6,-9,2,1,5,9
18:33:01:897100,10,0,-6,-9,2,1,5,9
18:33:01:897839,-16,-26,-12,10,-1,-2,2,4
18:33:01:911726,-40,-15,-30,-11,-2,-2,-14,-6
18:33:01:919593,-40,-15,-30,-11,-2,-2,-14,-6
18:33:01:920327,-38,1,-15,-25,-2,2,0,1
18:33:01:926385,11,2,-3,-2,0,-1,10,-21
18:33:01:942102,11,2,-3,-2,0,-1,10,-21
18:33:01:942902,29,-19,9,4,-3,0,3,16
18:33:01:948864,-18,-2,6,-4,-5,-1,-8,-1
18:33:01:964611,-18,-2,6,-4,-5,-1,-8,-1
18:33:01:965347,-8,-2,-2,-3,-2,4,9,1
18:33:01:971348,-4,1,22,8,-2,-2,1,1
18:33:01:979630,-4,1,22,8,-2,-2,1,1
18:33:01:980364,5,60,17,-1,-5,-3,-2,8
18:33:01:986353,17,-22,-27,-16,-5,0,1,-10
18:33:02:1963,17,-22,-27,-16,-5,0,1,-10
18:33:02:2846,47,0,9,4,0,4,24,6
18:33:02:8875,-3,-8,-2,0,1,8,33,4
18:33:02:16985,-3,-8,-2,0,1,8,33,4
18:33:02:17848,19,8,5,3,-2,-5,0,5
18:33:02:31345,-9,-7,-7,-4,0,-5,-7,3
18:33:02:39616,-9,-7,-7,-4,0,-5,-7,3
18:33:02:40380,-33,-11,1,18,12,5,-6,-7
18:33:02:46362,-45,29,-24,-15,-2,-3,-21,-3
18:33:02:62714,-45,29,-24,-15,-2,-3,-21,-3
18:33:02:62844,-15,-16,-19,-12,-6,-5,3,-2
18:33:02:68844,11,11,3,2,4,-1,14,-18
18:33:02:76984,11,11,3,2,4,-1,14,-18
18:33:02:77915,-18,12,15,5,1,2,-5,-32
18:33:02:91393,-43,-14,11,-3,-3,-2,-11,5
18:33:02:99599,-43,-14,11,-3,-3,-2,-11,5
18:33:02:100349,41,4,12,8,2,0,0,4
18:33:02:106374,53,15,8,2,0,-6,-24,6
18:33:02:122117,53,15,8,2,0,-6,-24,6
18:33:02:122888,10,-13,-19,-15,-3,-4,-34,8
18:33:02:128861,-21,-21,26,-1,-2,-1,-1,10
18:33:02:136988,-21,-21,26,-1,-2,-1,-1,10
18:33:02:137852,1,30,6,3,-7,-4,-2,1
18:33:02:151356,-18,10,18,20,2,-2,-7,-17
18:33:02:159616,-18,10,18,20,2,-2,-7,-17
18:33:02:160364,22,-26,-13,-3,-4,-1,-6,-4
18:33:02:166363,-47,-62,-7,-8,2,5,7,-2
18:33:02:190224,-47,-62,-7,-8,2,5,7,-2
18:33:02:190980,1,31,11,2,1,5,52,3
18:33:02:191878,19,5,-44,-2,-3,-2,1,4
18:33:02:197124,19,5,-44,-2,-3,-2,1,4
18:33:02:197872,-54,-28,-18,-23,-4,-6,-17,-48
18:33:02:211412,19,48,10,1,-5,-2,1,-1
18:33:02:219591,19,48,10,1,-5,-2,1,-1
18:33:02:220337,0,-54,-18,0,-2,-1,12,16
18:33:02:226376,8,-21,-10,-6,-2,-3,-4,-13
18:33:02:242633,8,-21,-10,-6,-2,-3,-4,-13
18:33:02:243225,-18,-9,9,-3,-5,0,1,-8
18:33:02:248868,33,8,3,24,16,5,12,16
18:33:02:257099,33,8,3,24,16,5,12,16
18:33:02:257848,-9,21,10,-7,0,-5,-36,5
18:33:02:271363,14,28,0,2,-8,2,33,5
18:33:02:279618,14,28,0,2,-8,2,33,5
18:33:02:280363,-43,-41,-16,5,0,-3,-15,8
18:33:02:286347,-30,-34,-14,-5,-4,4,26,4
18:33:02:301968,-30,-34,-14,-5,-4,4,26,4
18:33:02:302847,4,-4,-15,-7,-8,-5,10,11
18:33:02:308884,-12,-19,-18,-12,-7,-8,-1,1
18:33:02:316972,-12,-19,-18,-12,-7,-8,-1,1
18:33:02:317853,-26,-5,13,23,10,3,-10,-25
18:33:02:331357,-3,10,11,-3,1,-8,-2,-2
18:33:02:339600,-3,10,11,-3,1,-8,-2,-2
18:33:02:340345,13,15,-1,2,-1,3,-7,6
18:33:02:346351,7,49,20,4,6,5,14,26
18:33:02:362140,7,49,20,4,6,5,14,26
18:33:02:362851,47,46,11,1,2,5,24,12
18:33:02:368853,-19,5,-8,-8,-1,-3,-25,-6
18:33:02:376992,-19,5,-8,-8,-1,-3,-25,-6
18:33:02:377908,-12,-9,-13,-4,-3,-6,-46,-3
18:33:02:391399,-1,19,27,0,-7,2,18,-4
18:33:02:399616,-1,19,27,0,-7,2,18,-4
18:33:02:400353,30,-16,-35,-1,-2,-9,-24,4
18:33:02:406392,17,44,-4,-10,0,-3,-23,-4
18:33:02:422110,17,44,-4,-10,0,-3,-23,-4
18:33:02:422872,30,10,1,3,11,2,7,16
18:33:02:428896,-28,-38,-24,-5,-1,-2,-18,-31
18:33:02:436347,-28,-38,-24,-5,-1,-2,-18,-31
18:33:02:443943,-26,-14,11,-4,-5,7,27,-36
18:33:02:451356,14,12,53,18,4,2,-39,-16
18:33:02:467134,14,12,53,18,4,2,-39,-16
18:33:02:467865,-22,-16,-6,-9,-7,4,31,3
18:33:02:473867,23,-29,21,2,6,1,7,3
18:33:02:482001,23,-29,21,2,6,1,7,3
18:33:02:482872,-23,-5,15,4,-5,-11,4,14
18:33:02:488871,40,7,8,-4,-10,0,14,2
18:33:02:496379,40,7,8,-4,-10,0,14,2
18:33:02:503857,11,30,-32,-19,-7,-2,-11,3
18:33:02:520093,-17,-37,-7,-1,0,-10,-41,9
18:33:02:520962,-17,-37,-7,-1,0,-10,-41,9
18:33:02:521879,0,24,25,22,2,9,50,13
18:33:02:533858,20,10,-13,-1,-1,0,-11,3
18:33:02:542168,20,10,-13,-1,-1,0,-11,3
18:33:02:542836,-16,2,15,8,6,-6,8,22
18:33:02:548844,-21,-7,-45,-11,0,0,4,-4
18:33:02:556405,-21,-7,-45,-11,0,0,4,-4
18:33:02:563843,-47,-8,0,-4,5,1,-18,-1
18:33:02:571351,24,-34,-8,-2,-3,-3,8,6
18:33:02:579598,24,-34,-8,-2,-3,-3,8,6
18:33:02:580350,26,4,3,-8,-3,-4,-11,-11
18:33:02:593886,-24,-45,-5,6,-7,-6,-26,4
18:33:02:601982,-24,-45,-5,6,-7,-6,-26,4
18:33:02:602855,18,26,-4,0,-1,1,-13,-8
18:33:02:608844,-44,13,-15,-4,-5,1,5,2
18:33:02:616352,-44,13,-15,-4,-5,1,5,2
18:33:02:623863,-22,-12,-23,-4,-3,-9,-28,-12
18:33:02:631355,24,9,5,3,-3,4,50,-16
18:33:02:639602,24,9,5,3,-3,4,50,-16
18:33:02:640335,12,-13,-19,-5,-1,-6,-20,1
18:33:02:662653,14,43,25,-2,0,0,-7,13
18:33:02:663472,14,43,25,-2,0,0,-7,13
18:33:02:664336,53,7,37,7,0,4,-3,-2
18:33:02:668834,-6,-4,2,-2,-1,2,36,-7
18:33:02:676474,-6,-4,2,-2,-1,2,36,-7
18:33:02:692035,-19,12,-22,-1,1,-2,-20,-2
18:33:02:692882,-19,-51,-4,1,8,-8,-28,-13
18:33:02:699597,-19,-51,-4,1,8,-8,-28,-13
18:33:02:700336,-6,-16,20,3,1,7,30,-18
18:33:02:713866,0,-33,-34,-10,-4,-4,-17,1
18:33:02:722120,0,-33,-34,-10,-4,-4,-17,1
18:33:02:722871,5,-47,19,-3,6,-3,7,12
18:33:02:728902,22,16,9,0,1,13,64,10
18:33:02:744725,22,16,9,0,1,13,64,10
18:33:02:745406,11,13,4,-5,-7,-11,-8,-13
18:33:02:751369,-5,15,-21,4,-3,-8,-25,-39
18:33:02:759618,-5,15,-21,4,-3,-8,-25,-39
18:33:02:760356,18,43,13,-11,-7,1,-19,-7
18:33:02:773879,1,32,-14,-14,9,4,-10,16
18:33:02:782119,1,32,-14,-14,9,4,-10,16
18:33:02:782855,32,-24,-23,-6,-3,-9,-25,19
18:33:02:797104,-20,-25,7,11,2,4,-4,27
18:33:02:797861,-20,-25,7,11,2,4,-4,27
18:33:02:803897,-28,8,19,7,1,10,48,-3
18:33:02:811409,-7,36,-36,-13,-4,-5,-16,-6
18:33:02:819603,-7,36,-36,-13,-4,-5,-16,-6
18:33:02:820334,0,-17,-8,0,-7,-11,-23,11
18:33:02:833872,10,-7,-18,-6,-2,-5,10,7
18:33:02:842110,10,-7,-18,-6,-2,-5,10,7
18:33:02:842862,9,-46,-23,-6,3,7,11,5
18:33:02:848863,-10,20,22,-1,-2,0,4,-32
18:33:02:856370,-10,20,22,-1,-2,0,4,-32
18:33:02:863894,-35,-16,-3,-4,-10,0,3,-22
18:33:02:871374,-7,-44,21,2,-5,-6,-4,8
18:33:02:879635,-7,-44,21,2,-5,-6,-4,8
18:33:02:880368,-9,104,22,4,2,3,11,-8
18:33:02:893889,-14,3,29,7,5,3,10,6
18:33:02:902113,-14,3,29,7,5,3,10,6
18:33:02:902868,-8,-43,0,16,-5,3,17,29
18:33:02:908866,-3,4,12,2,-3,12,27,-4
18:33:02:916349,-3,4,12,2,-3,12,27,-4
18:33:02:923881,-15,8,-17,-8,-6,-6,-20,-14
18:33:02:931405,9,-24,-31,-7,-8,-13,-53,8
18:33:02:939629,9,-24,-31,-7,-8,-13,-53,8
18:33:02:940420,-1,-8,7,-4,3,4,16,-5
18:33:02:953847,64,32,6,4,-1,-3,-19,7
18:33:02:970237,64,32,6,4,-1,-3,-19,7
18:33:02:971005,1,24,4,-2,-3,-11,0,7
18:33:02:971889,16,0,9,7,-1,2,34,3
18:33:02:976385,16,0,9,7,-1,2,34,3
18:33:02:983877,-20,-11,1,-12,-5,-6,-17,-11
18:33:02:991377,-22,5,15,6,-6,-7,-24,-3
18:33:02:999622,-22,5,15,6,-6,-7,-24,-3
18:33:03:358,11,-18,-4,1,0,4,19,0
18:33:03:13855,13,20,-31,2,-3,-6,-14,3
18:33:03:21975,13,20,-31,2,-3,-6,-14,3
18:33:03:22844,-17,-18,0,0,-1,-1,-63,-19
18:33:03:28889,4,11,9,-2,4,0,-12,3
18:33:03:36352,4,11,9,-2,4,0,-12,3
18:33:03:43904,12,20,-38,-7,3,-4,32,-3
18:33:03:51371,-45,4,12,-10,-1,3,23,-7
18:33:03:59656,-45,4,12,-10,-1,3,23,-7
18:33:03:60381,-5,31,-3,-3,1,8,14,10
18:33:03:73886,8,20,10,-4,2,0,-21,1
18:33:03:81990,8,20,10,-4,2,0,-21,1
18:33:03:82858,44,-6,18,2,-4,-6,29,-1
18:33:03:88863,10,-11,4,5,-3,0,-19,-10
18:33:03:96367,10,-11,4,5,-3,0,-19,-10
18:33:03:103872,-20,22,21,7,2,-5,-18,-10
18:33:03:111428,-31,-59,-22,-12,-1,-3,-3,7
18:33:03:119620,-31,-59,-22,-12,-1,-3,-3,7
18:33:03:120358,-6,-13,-20,-1,-4,-4,14,-31
18:33:03:133884,-5,10,2,-4,1,0,-7,-29
18:33:03:141994,-5,10,2,-4,1,0,-7,-29
18:33:03:142866,-15,5,19,4,5,9,29,5
18:33:03:148865,-73,-16,0,-6,-6,15,65,7
18:33:03:156360,-73,-16,0,-6,-6,15,65,7
18:33:03:163865,9,18,-5,-6,3,-2,-34,23
18:33:03:171369,6,30,3,-6,-7,-16,-31,-15
18:33:03:179621,6,30,3,-6,-7,-16,-31,-15
18:33:03:180372,-21,50,31,17,5,1,8,1
18:33:03:193890,9,17,-7,0,-1,-4,-25,0
18:33:03:202118,9,17,-7,0,-1,-4,-25,0
18:33:03:202853,20,-40,-42,-11,2,10,38,-53
18:33:03:208894,11,3,-13,6,5,0,29,15
18:33:03:216351,11,3,-13,6,5,0,29,15
18:33:03:223876,14,-2,-8,-6,-1,-1,-33,-13
18:33:03:231382,-6,-9,24,10,0,-1,1,-3
18:33:03:240656,-6,-9,24,10,0,-1,1,-3
18:33:03:246391,-35,-32,-76,-19,-12,-9,-27,9
18:33:03:253869,9,4,-7,-3,3,-3,-29,3
18:33:03:261988,9,4,-7,-3,3,-3,-29,3
18:33:03:262866,-4,-23,10,5,-2,-4,-23,10
18:33:03:268861,-4,11,-1,-2,-1,-6,-59,18
18:33:03:276359,-4,11,-1,-2,-1,-6,-59,18
18:33:03:283875,-17,3,12,8,2,0,-35,-22
18:33:03:291393,18,-2,5,-4,-9,0,11,-18
18:33:03:299613,18,-2,5,-4,-9,0,11,-18
18:33:03:300350,6,-30,-35,-11,-8,-7,-16,13
18:33:03:313860,30,-2,-4,2,3,2,29,34
18:33:03:322003,30,-2,-4,2,3,2,29,34
18:33:03:322882,25,-34,29,5,-3,4,14,29
18:33:03:328865,-1,0,30,-3,-4,-2,20,0
18:33:03:336351,-1,0,30,-3,-4,-2,20,0
18:33:03:343873,3,25,34,2,5,10,14,-21
18:33:03:351359,8,2,-18,-16,-7,-3,36,-4
18:33:03:358875,8,2,-18,-16,-7,-3,36,-4
18:33:03:366359,15,15,31,7,2,0,39,8
18:33:03:373923,-5,-46,-29,-5,2,-1,14,-30
18:33:03:382130,-5,-46,-29,-5,2,-1,14,-30
18:33:03:382869,-4,2,3,4,3,3,46,14
18:33:03:397119,11,-9,1,5,2,-2,8,18
18:33:03:397870,11,-9,1,5,2,-2,8,18
18:33:03:403869,4,-5,5,-3,-1,-8,-46,4
18:33:03:419604,-10,6,-10,11,-3,-3,-39,11
18:33:03:420367,-10,6,-10,11,-3,-3,-39,11
18:33:03:426383,-25,10,-8,10,-2,-1,2,-51
18:33:03:433881,8,37,28,6,3,0,-21,-7
18:33:03:442147,8,37,28,6,3,0,-21,-7
18:33:03:442877,-17,-31,-25,-12,-5,-2,-11,28
18:33:03:457011,-9,-12,-2,2,1,0,8,-26
18:33:03:457880,-9,-12,-2,2,1,0,8,-26
18:33:03:463863,-31,35,10,10,5,1,-14,12
18:33:03:471368,11,-18,7,-4,-4,1,-23,7
18:33:03:478878,11,-18,7,-4,-4,1,-23,7
18:33:03:486350,18,-17,-8,-13,0,-4,14,7
18:33:03:493891,10,-12,-14,-12,-9,-6,-1,-42
18:33:03:502021,10,-12,-14,-12,-9,-6,-1,-42
18:33:03:502853,6,-3,6,11,2,1,2,-39
18:33:03:517009,-74,21,13,9,5,10,95,15
18:33:03:517876,-74,21,13,9,5,10,95,15
18:33:03:523854,-4,-31,11,-6,-5,-6,-16,9
18:33:03:531375,23,-6,-34,-3,8,-1,-18,-9
18:33:03:538870,23,-6,-34,-3,8,-1,-18,-9
18:33:03:546382,-11,-25,-5,17,-1,2,-14,14
18:33:03:553857,24,-13,-8,-10,-7,-2,19,35
18:33:03:562002,24,-13,-8,-10,-7,-2,19,35
18:33:03:562873,61,5,-16,-4,-7,-12,-27,-27
18:33:03:577010,-14,-28,-38,-4,-2,5,15,-23
18:33:03:577886,-14,-28,-38,-4,-2,5,15,-23
18:33:03:592013,17,-22,-42,-29,0,3,17,15
18:33:03:592881,0,3,22,6,-2,-4,-40,14
18:33:03:598866,0,3,22,6,-2,-4,-40,14
18:33:03:606421,-13,19,2,2,2,17,77,3
18:33:03:613862,14,-10,22,11,7,11,9,11
18:33:03:622042,14,-10,22,11,7,11,9,11
18:33:03:622923,0,-32,5,-6,0,-1,15,13
18:33:03:636997,-13,-3,14,2,-6,-11,-9,15
18:33:03:637957,-13,-3,14,2,-6,-11,-9,15
18:33:03:643888,7,23,-1,3,1,-2,12,25
18:33:03:651369,-14,13,8,6,0,-2,2,-22
18:33:03:658882,-14,13,8,6,0,-2,2,-22
18:33:03:666374,-19,17,-34,-14,-4,-5,-32,-4
18:33:03:673875,-15,60,-1,-4,11,10,24,3
18:33:03:682010,-15,60,-1,-4,11,10,24,3
18:33:03:682878,-37,-39,11,3,-1,0,11,-29
18:33:03:697009,12,-11,-27,-14,-6,-5,-9,15
18:33:03:697869,12,-11,-27,-14,-6,-5,-9,15
18:33:03:703877,22,45,22,10,-1,-10,-68,-1
18:33:03:711447,-2,-8,-6,1,-1,-2,-20,-20
18:33:03:718853,-2,-8,-6,1,-1,-2,-20,-20
18:33:03:726383,20,-10,-3,5,3,-1,-24,5
18:33:03:733895,12,7,0,-13,-5,-2,-6,-1
18:33:03:742045,12,7,0,-13,-5,-2,-6,-1
18:33:03:742876,-20,31,38,26,33,11,1,-4
18:33:03:757032,-5,-7,41,5,-4,-9,-75,-24
18:33:03:757919,-5,-7,41,5,-4,-9,-75,-24
18:33:03:763882,2,-12,0,-10,-13,-3,32,16
18:33:03:771364,-43,5,5,-3,0,-2,-15,-24
18:33:03:778888,-43,5,5,-3,0,-2,-15,-24
18:33:03:786377,4,21,10,-2,-5,-6,-31,-4
18:33:03:793886,19,14,0,-3,-7,-3,3,4
18:33:03:802124,19,14,0,-3,-7,-3,3,4
18:33:03:802868,15,3,35,17,1,2,30,4
18:33:03:817503,25,2,-2,-1,6,0,5,14
18:33:03:818365,25,2,-2,-1,6,0,5,14
18:33:03:823877,-12,-22,-40,-17,-10,-4,-28,3
18:33:03:831380,-38,1,1,8,5,10,114,23
18:33:03:838864,-38,1,1,8,5,10,114,23
18:33:03:846367,-13,-27,-3,5,-2,-3,-40,0
18:33:03:853871,16,-17,4,1,0,-5,-33,-9
18:33:03:862122,16,-17,4,1,0,-5,-33,-9
18:33:03:862875,4,27,-3,-9,-3,-1,8,-1
18:33:03:877042,22,-19,4,6,12,6,-15,2
18:33:03:877950,22,-19,4,6,12,6,-15,2
18:33:03:883867,5,-3,6,-6,-2,2,-12,-20
18:33:03:891375,-28,-27,-6,0,-6,-6,-57,-20
18:33:03:898867,-28,-27,-6,0,-6,-6,-57,-20
18:33:03:906391,22,37,-28,-5,-5,0,34,20
18:33:03:913893,70,-32,-54,-13,-12,-5,11,-2
18:33:03:922009,70,-32,-54,-13,-12,-5,11,-2
18:33:03:922884,2,-35,-17,-8,-8,0,59,-12
18:33:03:937000,22,12,-3,0,-3,0,-17,11
18:33:03:937874,22,12,-3,0,-3,0,-17,11
18:33:03:943867,-3,-12,-8,-4,-4,-7,-15,-43
18:33:03:951362,25,-19,-2,-10,-4,-7,-17,-6
18:33:03:958912,25,-19,-2,-10,-4,-7,-17,-6
18:33:03:966379,-13,8,-4,-2,1,3,4,16
18:33:03:973903,-54,13,21,2,-1,3,40,-2
18:33:03:982000,-54,13,21,2,-1,3,40,-2
18:33:03:982872,-43,-15,-4,10,0,-8,-35,7
18:33:03:997011,-3,4,28,5,-6,-7,-5,5
18:33:03:997870,-3,4,28,5,-6,-7,-5,5
18:33:04:3895,73,53,24,3,1,3,-30,13
18:33:04:11407,-20,19,-3,3,3,3,-5,-18
18:33:04:18912,-20,19,-3,3,3,3,-5,-18
18:33:04:26384,0,-60,-7,-3,-1,3,-28,8
18:33:04:33885,17,39,16,-4,-1,-4,-13,7
18:33:04:42063,17,39,16,-4,-1,-4,-13,7
18:33:04:42876,-20,37,-14,-12,-5,-2,16,3
18:33:04:57032,-68,-2,-26,-6,1,-6,-61,-44
18:33:04:57907,-68,-2,-26,-6,1,-6,-61,-44
18:33:04:63883,8,34,10,-1,3,-1,4,10
18:33:04:71373,9,-3,10,22,4,0,3,23
18:33:04:78905,9,-3,10,22,4,0,3,23
18:33:04:86361,-14,-12,0,-16,2,6,32,5
18:33:04:93924,29,6,-49,-21,-3,-3,1,18
18:33:04:102142,29,6,-49,-21,-3,-3,1,18
18:33:04:102875,-28,-9,8,10,-1,2,28,-7
18:33:04:117007,-19,-35,3,-11,-8,3,99,6
18:33:04:117881,-19,-35,3,-11,-8,3,99,6
18:33:04:123897,4,-6,-10,-6,-1,1,-40,-20
18:33:04:131382,-9,-10,-27,-14,-6,-7,-15,4
18:33:04:138875,-9,-10,-27,-14,-6,-7,-15,4
18:33:04:146376,-15,25,21,15,9,-2,18,-6
18:33:04:153888,26,-17,0,4,-6,-10,-40,9
18:33:04:162135,26,-17,0,4,-6,-10,-40,9
18:33:04:162877,8,13,4,-9,-12,-1,21,7
18:33:04:177000,41,13,5,4,0,-9,-6,-7
18:33:04:177889,41,13,5,4,0,-9,-6,-7
18:33:04:183873,6,13,-16,-2,0,-4,0,-12
18:33:04:191380,-2,-8,25,4,2,1,-34,-33
18:33:04:198862,-2,-8,25,4,2,1,-34,-33
18:33:04:206387,17,-29,-15,-10,-8,-2,68,9
18:33:04:213876,-26,52,16,-9,-11,0,-7,-16
18:33:04:221985,-26,52,16,-9,-11,0,-7,-16
18:33:04:222856,-32,-46,30,-1,-5,-5,-21,-2
18:33:04:237489,-47,-20,5,6,3,12,76,-3
18:33:04:238233,-47,-20,5,6,3,12,76,-3
18:33:04:243941,-50,-33,-27,4,2,-4,-26,-20
18:33:04:251375,2,-2,13,7,2,-3,-27,10
18:33:04:258864,2,-2,13,7,2,-3,-27,10
18:33:04:266377,51,0,-4,-3,2,-3,-74,2
18:33:04:273896,-16,-24,12,0,-2,-1,-4,-3
18:33:04:282009,-16,-24,12,0,-2,-1,-4,-3
18:33:04:282874,36,-22,-44,-7,-5,-8,-12,-5
18:33:04:297026,-8,-2,-16,-3,-2,-4,-22,9
18:33:04:297879,-8,-2,-16,-3,-2,-4,-22,9
18:33:04:303871,-4,-20,18,5,-2,-9,-19,-22
18:33:04:319490,2,1,12,13,8,9,49,-25
18:33:04:320370,2,1,12,13,8,9,49,-25
18:33:04:326437,18,-13,-14,4,-3,-6,-12,1
18:33:04:333895,22,7,-39,-14,-1,2,-27,10
18:33:04:341407,22,7,-39,-14,-1,2,-27,10
18:33:04:348890,-34,12,-23,0,6,3,8,-23
18:33:04:356998,28,32,3,-5,-6,1,19,12
18:33:04:357858,28,32,3,-5,-6,1,19,12
18:33:04:363886,-3,38,38,0,-5,-4,-5,34
18:33:04:379647,-29,-26,-31,-6,-1,-3,-6,-8
18:33:04:380277,-29,-26,-31,-6,-1,-3,-6,-8
18:33:04:386360,-18,10,22,6,4,-2,-21,2
18:33:04:402020,-46,-34,-33,-15,-3,-2,17,10
18:33:04:402874,-46,-34,-33,-15,-3,-2,17,10
18:33:04:418137,-4,15,8,3,0,-1,-28,-18
18:33:04:419003,14,2,-26,6,0,-5,-25,12
18:33:04:424501,14,2,-26,6,0,-5,-25,12
18:33:04:425372,-51,-24,-41,-12,-9,2,6,6
18:33:04:439662,3,40,28,13,4,2,11,-16
18:33:04:440417,3,40,28,13,4,2,11,-16
18:33:04:446380,20,-3,-16,-1,-4,2,62,8
18:33:04:453878,-48,-15,5,1,-2,-3,-3,-7
18:33:04:461424,-48,-15,5,1,-2,-3,-3,-7
18:33:04:468903,2,14,17,5,7,14,22,28
18:33:04:477030,26,20,9,-3,1,11,67,-5
18:33:04:477887,26,20,9,-3,1,11,67,-5
18:33:04:483880,-13,-74,-36,-15,-10,-10,4,40
18:33:04:499297,3,-17,-12,1,0,3,-36,20
18:33:04:507006,3,-17,-12,1,0,3,-36,20
18:33:04:507894,-8,3,38,4,3,6,49,-11
18:33:04:513892,15,-13,-6,-11,-6,-12,-74,0
18:33:04:521385,15,-13,-6,-11,-6,-12,-74,0
18:33:04:528776,25,51,7,2,5,1,-27,11
18:33:04:537001,15,83,35,13,9,5,12,2
18:33:04:537899,15,83,35,13,9,5,12,2
18:33:04:543935,-67,-32,-3,-5,-4,-12,-49,-17
18:33:04:559532,35,-10,30,6,0,-6,1,3
18:33:04:560411,35,-10,30,6,0,-6,1,3
18:33:04:566381,5,8,-27,-19,2,1,2,-19
18:33:04:573892,-18,-24,-5,-8,-4,-2,107,-5
18:33:04:581395,-18,-24,-5,-8,-4,-2,107,-5
18:33:04:588905,27,-13,25,12,-6,-3,0,-5
18:33:04:597042,-8,11,11,2,0,-5,-60,-27
18:33:04:597908,-8,11,11,2,0,-5,-60,-27
18:33:04:603881,31,-25,1,-6,-6,-5,6,16
18:33:04:619639,-4,-30,-20,-4,-6,-5,-24,7
18:33:04:620377,-4,-30,-20,-4,-6,-5,-24,7
18:33:04:626443,20,23,12,-6,-9,-5,45,-3
18:33:04:633921,8,-15,-16,-6,4,-2,-32,-1
18:33:04:641386,8,-15,-16,-6,4,-2,-32,-1
18:33:04:648886,-5,19,-2,11,2,0,-9,5
18:33:04:657042,14,-35,26,1,-3,-4,-11,-18
18:33:04:657936,14,-35,26,1,-3,-4,-11,-18
18:33:04:663873,-3,-14,15,3,7,4,-56,-21
18:33:04:679637,-10,-9,-24,-4,-1,2,-15,3
18:33:04:680376,-10,-9,-24,-4,-1,2,-15,3
18:33:04:686378,25,-21,-21,-4,-7,1,35,-16
18:33:04:693913,37,30,-4,-1,-3,-4,-18,-14
18:33:04:701375,37,30,-4,-1,-3,-4,-18,-14
18:33:04:708865,-2,-11,-76,-14,-7,-12,-31,-4
18:33:04:716998,24,-20,-8,-5,-4,-6,-21,18
18:33:04:717894,24,-20,-8,-5,-4,-6,-21,18
18:33:04:723908,-46,11,11,6,5,10,-11,-18
18:33:04:739651,-26,-18,19,2,-2,6,34,-11
18:33:04:740391,-26,-18,19,2,-2,6,34,-11
18:33:04:746383,18,14,26,4,0,-1,-18,19
18:33:04:753889,-33,-13,-4,0,3,3,5,23
18:33:04:761447,-33,-13,-4,0,3,3,5,23
18:33:04:768863,4,34,20,1,-1,-6,62,10
18:33:04:777065,11,10,8,10,6,0,-29,-29
18:33:04:777931,11,10,8,10,6,0,-29,-29
18:33:04:783879,9,72,60,18,9,4,-38,2
18:33:04:799499,9,15,-29,-15,-4,-3,-9,31
18:33:04:800378,9,15,-29,-15,-4,-3,-9,31
18:33:04:806393,-4,-23,-27,-17,-3,-8,-101,-16
18:33:04:813882,15,32,-12,2,0,0,-16,15
18:33:04:821411,15,32,-12,2,0,0,-16,15
18:33:04:828773,1,4,13,-1,0,-1,2,0
18:33:04:837026,-25,5,28,13,2,5,23,9
18:33:04:837897,-25,5,28,13,2,5,23,9
18:33:04:843932,-14,-26,-41,-7,-3,-2,40,17
18:33:04:859679,28,28,4,-5,-2,7,95,-5
18:33:04:860446,28,28,4,-5,-2,7,95,-5
18:33:04:866477,-64,-16,19,7,-1,-4,-20,-33
18:33:04:873888,39,-13,-40,-13,-2,0,2,-1
18:33:04:881394,39,-13,-40,-13,-2,0,2,-1
18:33:04:888920,27,2,-20,-7,-2,-6,-14,-2
18:33:04:897008,-20,-35,-8,-9,-6,-6,-11,20
18:33:04:897874,-20,-35,-8,-9,-6,-6,-11,20
18:33:04:903871,15,-6,11,0,0,0,-15,0
18:33:04:919626,-38,-28,24,4,-17,-9,-5,-9
18:33:04:920365,-38,-28,24,4,-17,-9,-5,-9
18:33:04:926419,-3,34,5,3,-1,4,18,-1
18:33:04:933901,-18,0,-29,-8,-5,-5,-34,-20
18:33:04:941446,-18,0,-29,-8,-5,-5,-34,-20
18:33:04:948907,23,5,9,1,1,6,61,-18
18:33:04:957052,-37,-37,15,4,3,10,54,-29
18:33:04:957944,-37,-37,15,4,3,10,54,-29
18:33:04:963899,32,16,-3,1,2,6,34,12
18:33:04:979679,-6,28,35,9,2,0,-15,-8
18:33:04:980421,-6,28,35,9,2,0,-15,-8
18:33:04:986384,5,-26,-22,1,3,-1,-4,22
18:33:04:993906,32,19,-10,-4,-5,-4,-15,10
18:33:05:1531,32,19,-10,-4,-5,-4,-15,10
18:33:05:8912,8,21,17,4,-2,-1,-23,1
18:33:05:17037,-1,3,-9,0,3,-3,-29,2
18:33:05:17912,-1,3,-9,0,3,-3,-29,2
18:33:05:23896,-11,9,-16,-5,-1,2,0,9
18:33:05:39627,2,-11,5,-1,-1,-6,-7,14
18:33:05:40414,2,-11,5,-1,-1,-6,-7,14
18:33:05:46381,-28,5,-32,-21,-9,-3,-1,-19
18:33:05:53897,-11,-9,3,-4,-1,-5,-18,-8
18:33:05:61417,-11,-9,3,-4,-1,-5,-18,-8
18:33:05:68883,11,-7,-21,-6,-7,-3,8,-6
18:33:05:77001,34,14,-15,-4,2,-8,-77,-17
18:33:05:77881,34,14,-15,-4,2,-8,-77,-17
18:33:05:83768,4,-15,1,4,-7,-5,2,2
18:33:05:99520,21,8,18,7,6,1,24,25
18:33:05:100394,21,8,18,7,6,1,24,25
18:33:05:106414,26,-2,-25,-13,-1,-6,10,4
18:33:05:113907,-8,3,6,0,3,6,93,1
18:33:05:121386,-8,3,6,0,3,6,93,1
18:33:05:128769,-45,10,11,5,7,-5,5,-6
18:33:05:137027,18,14,30,3,-2,-5,-9,32
18:33:05:137906,18,14,30,3,-2,-5,-9,32
18:33:05:143884,14,-2,35,0,0,-3,-16,-7
18:33:05:159531,6,-13,-24,-11,-4,3,73,35
18:33:05:160424,6,-13,-24,-11,-4,3,73,35
18:33:05:166363,-67,-13,21,4,4,5,18,-12
18:33:05:173876,-18,-25,-1,1,1,-2,-32,-5
18:33:05:181375,-18,-25,-1,1,1,-2,-32,-5
18:33:05:188893,-4,-3,9,-1,-4,-4,-31,2
18:33:05:197018,-25,-42,-20,4,1,2,-53,-48
18:33:05:197879,-25,-42,-20,4,1,2,-53,-48
18:33:05:203901,36,10,7,13,4,10,48,-6
18:33:05:219627,8,-7,-3,-3,-2,-13,-79,2
18:33:05:220363,8,-7,-3,-3,-2,-13,-79,2
18:33:05:226422,-33,5,-4,6,7,6,8,10
18:33:05:233887,-19,24,-8,9,3,-3,48,-10
18:33:05:241401,-19,24,-8,9,3,-3,48,-10
18:33:05:248896,7,9,9,4,0,0,21,-19
18:33:05:257004,-11,12,15,2,1,7,6,-15
18:33:05:257919,-11,12,15,2,1,7,6,-15
18:33:05:271374,-1,-3,-24,-5,0,-3,-61,0
18:33:05:279635,-4,3,-8,-6,0,12,17,-8
18:33:05:280385,-4,3,-8,-6,0,12,17,-8
18:33:05:286398,20,52,-11,-6,-1,-5,19,15
18:33:05:302034,33,-2,-45,-6,-1,1,9,-5
18:33:05:302917,33,-2,-45,-6,-1,1,9,-5
18:33:05:308889,23,-34,21,1,-5,-13,-26,-8
18:33:05:317039,-13,18,9,3,3,13,111,5
18:33:05:317882,-13,18,9,3,3,13,111,5
18:33:05:331401,5,-22,-9,-6,-4,2,22,-28
18:33:05:339622,5,-22,-9,-6,-4,2,22,-28
18:33:05:340416,31,3,19,3,-7,-7,-41,32
18:33:05:346400,-19,-15,23,9,2,8,10,12
18:33:05:362042,-19,-15,23,9,2,8,10,12
18:33:05:362923,-3,1,-6,-5,-3,-3,-21,11
18:33:05:368870,56,11,-6,-1,2,-1,-27,-3
18:33:05:377048,56,11,-6,-1,2,-1,-27,-3
18:33:05:377908,-47,-14,10,-8,-3,-7,-41,-45
18:33:05:391293,-12,-20,-8,-6,-5,-1,-30,-2
18:33:05:399639,-12,-20,-8,-6,-5,-1,-30,-2
18:33:05:400390,-40,-9,0,-3,-3,-3,-35,4
18:33:05:406405,-7,39,7,-13,-4,-5,2,3
18:33:05:422015,-7,39,7,-13,-4,-5,2,3
18:33:05:422871,35,44,1,0,-2,-5,5,-58
18:33:05:428899,13,-2,2,2,-3,-6,-14,10
18:33:05:437009,13,-2,2,2,-3,-6,-14,10
18:33:05:437881,-51,-9,-1,-10,2,2,0,-20
18:33:05:451258,-23,-2,-13,-8,-4,-3,10,12
18:33:05:459690,-23,-2,-13,-8,-4,-3,10,12
18:33:05:460410,5,-70,1,1,-4,-14,32,9
18:33:05:466376,-9,14,-2,9,2,0,-8,9
18:33:05:482033,-9,14,-2,9,2,0,-8,9
18:33:05:482890,12,-32,-4,-1,-1,-2,-10,22
18:33:05:488757,-20,-22,1,3,1,-2,-54,3
18:33:05:497024,-20,-22,1,3,1,-2,-54,3
18:33:05:497887,-51,52,2,6,-5,-6,-36,-50
18:33:05:511418,-6,-15,-12,-3,3,5,28,1
18:33:05:519649,-6,-15,-12,-3,3,5,28,1
18:33:05:520380,46,-44,-9,-2,2,0,3,23
18:33:05:526285,-10,-23,-61,-15,-9,-12,29,-12
18:33:05:542041,-10,-23,-61,-15,-9,-12,29,-12
18:33:05:542888,20,-1,-36,-2,1,4,54,24
18:33:05:548921,14,-15,38,16,2,-3,-10,3
18:33:05:557029,14,-15,38,16,2,-3,-10,3
18:33:05:557896,-35,4,1,-8,-3,6,-11,-16
18:33:05:571436,21,-1,15,5,-2,-4,-34,16
18:33:05:579535,21,-1,15,5,-2,-4,-34,16
18:33:05:580402,12,4,1,0,-3,-10,-55,-26
18:33:05:586404,0,-30,-81,-20,-1,3,6,-2
18:33:05:602031,0,-30,-81,-20,-1,3,6,-2
18:33:05:602891,-3,-8,4,-2,-4,-3,9,24
18:33:05:608899,12,2,8,0,0,0,-13,-6
18:33:05:617026,12,2,8,0,0,0,-13,-6
18:33:05:617895,30,-1,-4,-3,3,11,61,24
18:33:05:631399,-1,29,40,9,3,8,49,-7
18:33:05:639525,-1,29,40,9,3,8,49,-7
18:33:05:640388,-44,-7,19,3,-3,1,-30,-2
18:33:05:646431,4,44,-7,-10,-2,-3,12,-24
18:33:05:662175,4,44,-7,-10,-2,-3,12,-24
18:33:05:662891,12,10,16,10,4,3,0,4
18:33:05:668887,-10,-19,14,-2,1,-7,-85,23
18:33:05:677063,-10,-19,14,-2,1,-7,-85,23
18:33:05:677958,-39,28,-24,-4,-4,-4,-3,11
18:33:05:691403,-15,15,24,8,0,5,20,-1
18:33:05:699642,-15,15,24,8,0,5,20,-1
18:33:05:700399,52,7,10,1,0,2,14,20
18:33:05:706396,3,-14,-27,-8,-2,0,16,-5
18:33:05:722011,3,-14,-27,-8,-2,0,16,-5
18:33:05:722880,12,-6,2,-6,-7,-2,1,1
18:33:05:728939,47,-10,-5,-13,-4,8,10,8
18:33:05:737125,47,-10,-5,-13,-4,8,10,8
18:33:05:737873,10,5,4,4,-1,-9,19,10
18:33:05:751427,-5,-7,32,13,1,-7,33,-48
18:33:05:759647,-5,-7,32,13,1,-7,33,-48
18:33:05:760388,18,34,38,9,5,5,-10,-2
18:33:05:766410,-55,-12,-1,-3,-2,9,48,-2
18:33:05:782032,-55,-12,-1,-3,-2,9,48,-2
18:33:05:782893,-6,-6,-41,-14,-2,-5,-9,-19
18:33:05:788907,-41,1,21,8,-2,-4,-23,2
18:33:05:797145,-41,1,21,8,-2,-4,-23,2
18:33:05:797889,7,-2,-27,-11,-2,2,-7,3
18:33:05:811810,24,-15,-5,-2,-3,-3,-12,12
18:33:05:819634,24,-15,-5,-2,-3,-3,-12,12
18:33:05:820384,-22,-25,-17,0,-3,-6,-38,-15
18:33:05:826411,4,20,9,7,5,6,34,17
18:33:05:842024,4,20,9,7,5,6,34,17
18:33:05:842901,41,-24,0,-2,-2,1,18,3
18:33:05:848903,32,-18,-18,-4,-12,-3,31,16
18:33:05:857033,32,-18,-18,-4,-12,-3,31,16
18:33:05:857909,-6,17,6,3,1,10,79,-10
18:33:05:871254,14,-30,-8,0,-1,7,63,-38
18:33:05:879650,14,-30,-8,0,-1,7,63,-38
18:33:05:880412,11,-5,15,5,-1,-9,-18,6
18:33:05:886386,-22,6,-7,-7,0,-4,-41,29
18:33:05:902040,-22,6,-7,-7,0,-4,-41,29
18:33:05:902882,-72,-13,8,-1,1,-1,-21,-16
18:33:05:908763,-12,5,-34,-3,0,-8,-32,-14
18:33:05:917021,-12,5,-34,-3,0,-8,-32,-14
18:33:05:917912,27,12,20,4,-3,-4,-33,10
18:33:05:931416,14,34,32,5,0,-3,-20,30
18:33:05:939662,14,34,32,5,0,-3,-20,30
18:33:05:940280,19,40,36,-1,-4,-8,11,8
18:33:05:946260,32,3,23,2,-2,-6,-16,-2
18:33:05:962575,32,3,23,2,-2,-6,-16,-2
18:33:05:969512,-1,-5,-22,-1,7,4,-23,-11
18:33:05:970310,-19,-52,-36,-1,5,7,48,35
18:33:05:977042,-19,-52,-36,-1,5,7,48,35
18:33:05:977917,-3,-34,-29,3,7,5,-43,1
18:33:05:991449,-4,36,22,0,-3,-7,-22,-20
18:33:05:999664,-4,36,22,0,-3,-7,-22,-20
18:33:06:258,-63,-40,-25,-7,-3,-6,8,41
18:33:06:6331,-32,1,4,4,-1,-1,-32,-2
18:33:06:22030,-32,1,4,4,-1,-1,-32,-2
18:33:06:22935,-27,19,4,-3,-4,-9,-1,-15
18:33:06:29021,-1,6,20,2,-7,-10,-8,-22
18:33:06:37014,-1,6,20,2,-7,-10,-8,-22
18:33:06:37882,3,-13,-15,7,1,-1,9,-12
18:33:06:51420,-11,-32,-21,-1,2,2,-11,-4
18:33:06:59532,-11,-32,-21,-1,2,2,-11,-4
18:33:06:60423,6,23,11,0,0,2,11,-2
18:33:06:66410,34,16,-1,-12,-4,5,22,-1
18:33:06:90294,34,16,-1,-12,-4,5,22,-1
18:33:06:91027,-14,-31,2,-2,-5,0,-34,-24
18:33:06:91925,-49,-11,-49,-7,3,5,-19,11
18:33:06:97046,-49,-11,-49,-7,3,5,-19,11
18:33:06:97915,14,13,15,5,1,7,14,7
18:33:06:111272,14,-20,-3,0,-7,-6,42,-11
18:33:06:119659,14,-20,-3,0,-7,-6,42,-11
18:33:06:120395,0,55,10,2,1,-2,25,6
18:33:06:126478,-3,-14,-13,-23,-5,-8,-31,3
18:33:06:142092,-3,-14,-13,-23,-5,-8,-31,3
18:33:06:142895,2,-12,-2,-2,-2,-4,-35,4
18:33:06:148914,45,1,28,15,2,-7,-27,-25
18:33:06:157012,45,1,28,15,2,-7,-27,-25
18:33:06:157916,-23,-8,-14,-9,-6,9,108,-52
18:33:06:171300,2,5,2,-1,-1,-4,-47,10
18:33:06:179663,2,5,2,-1,-1,-4,-47,10
18:33:06:180432,29,-2,-7,4,1,-2,-36,5
18:33:06:193982,-73,-39,-25,1,-4,-2,1,-6
18:33:06:202042,-73,-39,-25,1,-4,-2,1,-6
18:33:06:202879,5,7,-9,-5,-3,-3,7,8
18:33:06:208773,12,36,25,4,6,13,80,40
18:33:06:216378,12,36,25,4,6,13,80,40
18:33:06:223805,4,-14,-16,-9,-6,-8,-82,5
18:33:06:231387,6,-27,-12,-3,-6,-16,-9,-1
18:33:06:239712,6,-27,-12,-3,-6,-16,-9,-1
18:33:06:240469,35,-27,11,-5,-3,16,114,10
18:33:06:253792,54,9,19,5,2,1,23,15
18:33:06:262030,54,9,19,5,2,1,23,15
18:33:06:262896,20,-4,25,11,8,-2,-43,-20
18:33:06:268885,6,-9,7,-1,3,8,47,-14
18:33:06:276420,6,-9,7,-1,3,8,47,-14
18:33:06:283896,9,-15,-15,-3,-2,-3,-26,19
18:33:06:291423,-53,27,-4,-6,-7,-10,-81,-21
18:33:06:299514,-53,27,-4,-6,-7,-10,-81,-21
18:33:06:300377,11,18,10,11,12,-4,-10,-6
18:33:06:313941,9,-11,-38,-4,-1,6,-6,5
18:33:06:322574,9,-11,-38,-4,-1,6,-6,5
18:33:06:329537,10,-28,-19,-11,-7,-3,-44,14
18:33:06:330276,-18,-4,3,-3,1,8,34,-21
18:33:06:336392,-18,-4,3,-3,1,8,34,-21
18:33:06:343964,5,34,-11,0,1,-5,-29,10
18:33:06:351413,-12,27,3,4,0,-9,-83,-37
18:33:06:359536,-12,27,3,4,0,-9,-83,-37
18:33:06:360411,-19,2,-7,-8,-6,1,3,7
18:33:06:374028,16,-7,0,12,6,-2,-19,6
18:33:06:382549,16,-7,0,12,6,-2,-19,6
18:33:06:389537,-61,-6,10,8,15,35,108,-12
18:33:06:390412,-3,9,12,1,-3,-6,-15,17
18:33:06:396407,-3,9,12,1,-3,-6,-15,17
18:33:06:403943,-12,-20,19,5,-6,-14,-42,2
18:33:06:411439,3,22,-15,-9,-2,2,-3,14
18:33:06:419642,3,22,-15,-9,-2,2,-3,14
18:33:06:420287,-3,-12,-24,-20,-9,-9,-9,-3
18:33:06:433896,-61,-2,27,1,-1,-17,-111,-37
18:33:06:442028,-61,-2,27,1,-1,-17,-111,-37
18:33:06:442895,-11,-20,1,14,1,-23,-20,-28
18:33:06:448892,24,-5,0,-10,-9,3,112,10
18:33:06:456385,24,-5,0,-10,-9,3,112,10
18:33:06:463771,10,-2,11,-4,-6,-5,12,31
18:33:06:471264,8,8,-3,1,1,3,0,-22
18:33:06:479660,8,8,-3,1,1,3,0,-22
18:33:06:480401,21,20,-15,7,1,-5,-30,-10
18:33:06:493949,-21,-5,19,5,3,14,9,-52
18:33:06:502034,-21,-5,19,5,3,14,9,-52
18:33:06:502888,10,14,14,2,1,14,33,17
18:33:06:508780,-16,-40,-85,-18,-7,-7,-21,20
18:33:06:516427,-16,-40,-85,-18,-7,-7,-21,20
18:33:06:523923,-14,30,11,-11,-5,-7,-25,-44
18:33:06:531399,20,18,12,0,0,-9,-74,20
18:33:06:539676,20,18,12,0,0,-9,-74,20
18:33:06:540413,22,-31,-25,-8,-9,-2,71,41
18:33:06:553777,-24,-3,6,0,-2,1,17,-52
18:33:06:562055,-24,-3,6,0,-2,1,17,-52
18:33:06:562900,4,3,11,-2,-1,-1,-6,-7
18:33:06:568893,17,9,20,-8,-8,-6,-85,-3
18:33:06:576395,17,9,20,-8,-8,-6,-85,-3
18:33:06:583930,6,34,41,4,-2,-3,-65,3
18:33:06:591426,-10,9,10,8,4,4,70,26
18:33:06:599544,-10,9,10,8,4,4,70,26
18:33:06:600424,-27,-7,-22,-1,-6,-7,51,-71
18:33:06:613912,30,30,16,4,-1,2,2,36
18:33:06:622035,30,30,16,4,-1,2,2,36
18:33:06:622921,19,-2,-6,-5,1,-7,-24,10
18:33:06:628932,-15,-45,-30,-7,-4,2,79,-15
18:33:06:636406,-15,-45,-30,-7,-4,2,79,-15
18:33:06:643907,-28,-15,15,9,5,9,-24,-16
18:33:06:651411,-46,2,-4,4,2,13,46,19
18:33:06:659532,-46,2,-4,4,2,13,46,19
18:33:06:660399,18,-8,3,-4,-1,11,102,17
18:33:06:673904,-25,-7,5,-2,0,-6,6,-32
18:33:06:682049,-25,-7,5,-2,0,-6,6,-32
18:33:06:682944,-17,7,-61,-10,-2,2,-32,-17
18:33:06:688907,-4,-38,-4,-11,-7,-2,37,9
18:33:06:696403,-4,-38,-4,-11,-7,-2,37,9
18:33:06:703781,10,21,-19,-13,4,-6,-55,25
18:33:06:711440,-15,3,-11,3,0,-2,-54,0
18:33:06:719641,-15,3,-11,3,0,-2,-54,0
18:33:06:720277,0,4,-2,-7,-3,-9,13,6
18:33:06:733914,46,16,5,0,-1,1,30,13
18:33:06:742047,46,16,5,0,-1,1,30,13
18:33:06:742881,-21,-12,1,9,0,-8,-79,9
18:33:06:748790,30,-13,-1,0,1,8,64,22
18:33:06:756415,30,-13,-1,0,1,8,64,22
18:33:06:763776,1,-5,21,-1,-3,6,41,-42
18:33:06:771256,10,3,9,0,-3,-2,47,-9
18:33:06:779636,10,3,9,0,-3,-2,47,-9
18:33:06:780417,8,4,-22,-10,3,-1,-28,20
18:33:06:793826,0,-2,-28,-2,3,-2,-29,-27
18:33:06:802084,0,-2,-28,-2,3,-2,-29,-27
18:33:06:802886,-54,-20,5,3,-3,-4,-28,-13
18:33:06:808809,-2,-13,-5,-2,-5,-11,-112,12
18:33:06:816429,-2,-13,-5,-2,-5,-11,-112,12
18:33:06:823914,17,-7,12,-1,-6,-7,-9,23
18:33:06:831403,-13,24,33,8,1,10,49,6
18:33:06:839646,-13,24,33,8,1,10,49,6
18:33:06:840449,42,9,-5,-4,-4,1,26,2
18:33:06:854286,23,-7,5,0,8,-15,-89,-32
18:33:06:862070,23,-7,5,0,8,-15,-89,-32
18:33:06:862931,32,-3,12,6,-1,-3,-61,17
18:33:06:868933,-8,33,4,2,-1,-6,-30,-4
18:33:06:876410,-8,33,4,2,-1,-6,-30,-4
18:33:06:883929,-17,-12,7,0,-2,-3,9,-35
18:33:06:891398,17,16,-13,-14,-2,0,28,22
18:33:06:899538,17,16,-13,-14,-2,0,28,22
18:33:06:900274,-22,-27,-21,-3,-4,-3,45,16
18:33:06:913917,6,-5,-14,-3,3,11,17,-17
18:33:06:922025,6,-5,-14,-3,3,11,17,-17
18:33:06:922893,-12,10,2,2,1,-8,-117,-25
18:33:06:928951,-7,-3,5,9,-1,11,66,36
18:33:06:936391,-7,-3,5,9,-1,11,66,36
18:33:06:943923,-49,58,20,8,6,8,-15,22
18:33:06:951419,-62,-1,-8,4,0,-2,-20,-17
18:33:06:959560,-62,-1,-8,4,0,-2,-20,-17
18:33:06:960432,3,-10,30,9,0,-1,6,9
18:33:06:973895,21,-25,-13,-21,1,-5,-32,-59
18:33:06:982027,21,-25,-13,-21,1,-5,-32,-59
18:33:06:982891,-26,-4,10,-12,-4,-3,-49,8
18:33:06:988901,-16,-19,13,6,-3,2,0,0
18:33:06:996391,-16,-19,13,6,-3,2,0,0
18:33:07:3781,46,10,10,6,0,8,50,7
18:33:07:11321,24,0,-2,1,-3,-12,-47,-7
18:33:07:19638,24,0,-2,1,-3,-12,-47,-7
18:33:07:20258,25,12,-31,-4,-1,-5,-11,-42
18:33:07:33924,37,-11,-5,4,0,3,16,24
18:33:07:42084,37,-11,-5,4,0,3,16,24
18:33:07:42948,10,-15,1,-1,-2,4,13,17
18:33:07:48905,26,30,-15,0,4,-1,-101,4
18:33:07:56442,26,30,-15,0,4,-1,-101,4
18:33:07:63799,-40,37,10,0,-8,-6,18,-12
18:33:07:71264,-2,-13,12,20,5,0,11,32
18:33:07:79653,-2,-13,12,20,5,0,11,32
18:33:07:80404,-9,-23,-19,-7,2,11,105,6
18:33:07:93832,-2,1,-28,-17,-7,-13,0,26
18:33:07:102029,-2,1,-28,-17,-7,-13,0,26
18:33:07:102905,-8,1,8,4,3,0,20,-3
18:33:07:108787,3,25,-12,-12,-9,-3,-10,15
18:33:07:116412,3,25,-12,-12,-9,-3,-10,15
18:33:07:123934,4,-16,-35,-6,4,-4,-11,10
18:33:07:131392,-69,-17,3,6,4,8,-2,-14
18:33:07:139674,-69,-17,3,6,4,8,-2,-14
18:33:07:140403,-47,-42,14,6,4,9,86,1
18:33:07:153798,5,7,21,4,-2,8,89,2
18:33:07:162061,5,7,21,4,-2,8,89,2
18:33:07:162908,32,-17,-6,0,0,1,-30,26
18:33:07:177052,-7,50,-6,-9,-5,4,50,17
18:33:07:177940,-7,50,-6,-9,-5,4,50,17
18:33:07:183766,21,5,-10,-23,-14,-14,-49,-23
18:33:07:191288,-33,-31,3,-10,-6,-6,-16,-21
18:33:07:198907,-33,-31,3,-10,-6,-6,-16,-21
18:33:07:206414,6,-5,-12,2,0,-5,-64,3
18:33:07:213908,13,6,8,7,-1,-9,-12,-6
18:33:07:222025,13,6,8,7,-1,-9,-12,-6
18:33:07:222922,1,-15,-11,-8,0,-17,-61,13
18:33:07:237022,-31,38,48,14,6,7,4,-12
18:33:07:237889,-31,38,48,14,6,7,4,-12
18:33:07:243973,30,19,-33,-4,1,5,0,-4
18:33:07:251405,8,-24,-18,-5,2,-6,-49,-3
18:33:07:258919,8,-24,-18,-5,2,-6,-49,-3
18:33:07:266413,22,31,16,6,-2,8,41,17
18:33:07:273924,35,-19,-60,-11,-5,-9,-39,16
18:33:07:282011,35,-19,-60,-11,-5,-9,-39,16
18:33:07:282900,28,6,-24,0,-3,-2,6,-5
18:33:07:297026,6,-2,10,-14,-6,-3,-19,-68
18:33:07:297766,6,-2,10,-14,-6,-3,-19,-68
18:33:07:303916,-41,-11,-15,6,3,4,-10,-1
18:33:07:311405,29,-12,4,3,-2,2,32,32
18:33:07:318895,29,-12,4,3,-2,2,32,32
18:33:07:326401,6,40,49,7,0,3,55,-21
18:33:07:333964,20,-31,-8,0,-3,-3,11,8
18:33:07:342089,20,-31,-8,0,-3,-3,11,8
18:33:07:342928,-5,24,25,5,-2,-12,-17,8
18:33:07:357020,-16,-16,19,2,-2,-3,9,21
18:33:07:357937,-16,-16,19,2,-2,-3,9,21
18:33:07:363895,-8,-18,42,12,2,9,8,10
18:33:07:371400,-21,-32,-5,2,3,-5,-18,5
18:33:07:378966,-21,-32,-5,2,3,-5,-18,5
18:33:07:386289,5,-24,-48,-20,-9,-4,-1,-14
18:33:07:393805,-13,3,12,6,-1,4,14,6
18:33:07:402036,-13,3,12,6,-1,4,14,6
18:33:07:402920,-8,-32,-8,-3,-3,-10,-16,5
18:33:07:417078,4,-35,-22,-10,-7,-2,18,-4
18:33:07:417940,4,-35,-22,-10,-7,-2,18,-4
18:33:07:423783,-46,6,9,-4,-3,-3,-31,-10
18:33:07:431282,68,30,11,1,-2,-3,11,15
18:33:07:438915,68,30,11,1,-2,-3,11,15
18:33:07:446279,20,27,24,11,8,4,-24,19
18:33:07:453773,23,9,31,3,0,-4,-13,19
18:33:07:462035,23,9,31,3,0,-4,-13,19
18:33:07:462899,9,-11,5,-1,-3,-2,-2,-43
18:33:07:477024,-21,10,2,1,-2,7,8,-28
18:33:07:478000,-21,10,2,1,-2,7,8,-28
18:33:07:483790,19,-20,-22,-5,5,7,12,18
18:33:07:491336,-55,-32,-29,-7,-4,-15,-82,-11
18:33:07:498906,-55,-32,-29,-7,-4,-15,-82,-11
18:33:07:506300,-7,-12,16,10,2,0,1,31
18:33:07:513893,25,33,-9,4,4,12,54,-4
18:33:07:522049,25,33,-9,4,4,12,54,-4
18:33:07:522909,-17,18,-1,-1,3,8,23,-8
18:33:07:537038,-9,-4,9,2,-2,1,16,1
18:33:07:537914,-9,-4,9,2,-2,1,16,1
18:33:07:543909,28,-15,3,-5,-6,1,17,8
18:33:07:551408,-11,12,-2,-1,-3,-4,15,-3
18:33:07:558920,-11,12,-2,-1,-3,-4,15,-3
18:33:07:566434,-24,14,28,8,2,-5,-12,-24
18:33:07:582666,-6,22,43,-5,-1,4,38,-13
18:33:07:583540,-6,22,43,-5,-1,4,38,-13
18:33:07:584409,-62,-41,-38,-7,-3,-4,-57,8
18:33:07:597545,19,28,40,15,5,2,-12,1
18:33:07:598409,19,28,40,15,5,2,-12,1
18:33:07:603785,18,-4,-19,-10,-5,-6,-6,-17
18:33:07:611306,-15,11,18,-1,14,-5,-47,11
18:33:07:618906,-15,11,18,-1,14,-5,-47,11
18:33:07:626426,20,11,-7,-1,0,5,21,9
18:33:07:633920,8,9,-15,-4,-2,-7,-83,12
18:33:07:642071,8,9,-15,-4,-2,-7,-83,12
18:33:07:642830,0,45,6,-4,-2,-13,0,-7
18:33:07:657056,16,-23,-27,10,2,5,4,-10
18:33:07:657927,16,-23,-27,10,2,5,4,-10
18:33:07:663921,-55,-11,7,5,-1,7,32,-1
18:33:07:671413,55,-9,-24,-1,-5,-3,17,-3
18:33:07:678945,55,-9,-24,-1,-5,-3,17,-3
18:33:07:686412,44,-8,7,4,2,12,95,30
18:33:07:702780,-16,-24,-21,-8,-6,2,82,-11
18:33:07:703521,-16,-24,-21,-8,-6,2,82,-11
18:33:07:704440,-1,0,-26,-12,-4,2,22,20
18:33:07:717089,0,-14,-5,-1,-1,1,-6,13
18:33:07:717934,0,-14,-5,-1,-1,1,-6,13
18:33:07:723909,-1,-3,-2,-19,-9,-14,-80,-5
18:33:07:731415,-3,-4,5,7,2,-2,2,17
18:33:07:738935,-3,-4,5,7,2,-2,2,17
18:33:07:746425,22,5,16,5,0,8,53,-26
18:33:07:753890,-30,-3,-11,-5,4,4,8,22
18:33:07:762057,-30,-3,-11,-5,4,4,8,22
18:33:07:762785,0,-3,11,3,2,-2,-3,3
18:33:07:777038,-13,-17,-13,-9,-2,2,-11,-36
18:33:07:777904,-13,-17,-13,-9,-2,2,-11,-36
18:33:07:783899,-21,-14,-3,-4,-3,-9,-39,-41
18:33:07:791484,-4,-37,-36,-10,-4,-8,-81,8
18:33:07:798922,-4,-37,-36,-10,-4,-8,-81,8
18:33:07:806450,7,-19,0,5,1,1,-94,19
18:33:07:813917,-10,22,4,-8,-7,-9,-42,9
18:33:07:822073,-10,22,4,-8,-7,-9,-42,9
18:33:07:822939,13,2,-4,6,2,2,-50,-31
18:33:07:837029,-47,-5,44,2,1,-3,9,-27
18:33:07:837934,-47,-5,44,2,1,-3,9,-27
18:33:07:843947,-3,-11,5,4,-4,-9,42,15
18:33:07:851402,13,18,17,6,-1,0,55,-36
18:33:07:858912,13,18,17,6,-1,0,55,-36
18:33:07:874567,9,35,-13,-12,0,-1,5,21
18:33:07:875319,-9,-7,9,4,0,3,25,6
18:33:07:882042,-9,-7,9,4,0,3,25,6
18:33:07:882898,46,10,4,14,6,-11,-83,-2
18:33:07:897042,17,0,21,2,2,2,-49,-24
18:33:07:897776,17,0,21,2,2,2,-49,-24
18:33:07:903928,-9,15,9,2,1,1,5,6
18:33:07:911464,0,37,-29,-7,-2,-3,-7,16
18:33:07:918894,0,37,-29,-7,-2,-3,-7,16
18:33:07:926295,-2,-60,-14,-16,-5,-7,1,-17
18:33:07:933778,-23,8,29,2,-6,-8,19,32
18:33:07:942065,-23,8,29,2,-6,-8,19,32
18:33:07:942986,-15,52,-3,1,-4,9,32,1
18:33:07:957059,11,-12,15,-2,-2,-7,-107,19
18:33:07:957923,11,-12,15,-2,-2,-7,-107,19
18:33:07:963784,10,6,35,12,-1,1,17,3
18:33:07:971288,9,27,-71,-16,-6,1,-11,-23
18:33:07:978938,9,27,-71,-16,-6,1,-11,-23
18:33:07:986308,18,5,5,1,1,0,-59,30
18:33:07:993821,2,-10,11,10,1,-2,29,40
18:33:08:2043,2,-10,11,10,1,-2,29,40
18:33:08:2906,8,-35,0,-7,-6,-3,-31,-36
18:33:08:17045,6,-26,-11,-3,-1,0,25,-9
18:33:08:17900,6,-26,-11,-3,-1,0,25,-9
18:33:08:23792,-8,-5,-35,-18,1,-1,-14,0
18:33:08:31338,8,-30,-14,7,6,11,54,-16
18:33:08:38926,8,-30,-14,7,6,11,54,-16
18:33:08:46306,-8,-19,-19,5,1,-5,-28,17
18:33:08:53789,15,15,5,0,-4,-4,23,-10
18:33:08:62057,15,15,5,0,-4,-4,23,-10
18:33:08:62917,-6,14,11,1,-1,0,42,1
18:33:08:77054,15,-3,16,8,-3,-6,5,4
18:33:08:77935,15,-3,16,8,-3,-6,5,4
18:33:08:83794,-15,-8,-4,-2,-6,-1,22,-5
18:33:08:91322,-13,1,9,5,-2,4,31,-28
18:33:08:98901,-13,1,9,5,-2,4,31,-28
18:33:08:106420,-13,-49,-21,-5,2,1,13,18
18:33:08:113937,-4,-27,-12,-18,-7,7,82,7
18:33:08:121403,-4,-27,-12,-18,-7,7,82,7
18:33:08:128934,14,2,-13,-2,0,-1,23,-27
18:33:08:137053,-44,15,12,2,0,-5,-31,-4
18:33:08:137911,-44,15,12,2,0,-5,-31,-4
18:33:08:143790,6,32,-8,-1,-2,4,76,-3
18:33:08:159615,13,10,10,5,4,7,-29,15
18:33:08:160295,13,10,10,5,4,7,-29,15
18:33:08:166415,14,14,1,-2,-6,3,26,-54
18:33:08:173934,11,-7,-7,3,7,-2,-19,5
18:33:08:181434,11,-7,-7,3,7,-2,-19,5
18:33:08:188825,-4,3,25,2,-3,1,1,4
18:33:08:197034,-6,16,29,0,2,-1,12,-14
18:33:08:197906,-6,16,29,0,2,-1,12,-14
18:33:08:203786,-11,19,-18,-13,-3,-1,-12,23
18:33:08:219558,11,11,-20,-4,-2,3,39,24
18:33:08:220430,11,11,-20,-4,-2,3,39,24
18:33:08:226300,11,-8,5,-1,2,-2,-29,30
18:33:08:233776,-15,3,-1,-4,-4,-9,-1,-38
18:33:08:241453,-15,3,-1,-4,-4,-9,-1,-38
18:33:08:257702,13,-9,10,2,1,-3,10,6
18:33:08:258633,-35,-11,-2,3,2,3,-1,4
18:33:08:259355,-35,-11,-2,3,2,3,-1,4
18:33:08:263787,-24,-11,-20,-4,1,-6,-7,-5
18:33:08:279533,2,4,-5,-3,0,-3,18,-35
18:33:08:280403,2,4,-5,-3,0,-3,18,-35
18:33:08:286289,-29,48,-8,4,3,6,0,-26
18:33:08:293816,10,-5,-16,-8,-6,-11,-93,17
18:33:08:301452,10,-5,-16,-8,-6,-11,-93,17
18:33:08:308828,11,-49,1,-1,-5,-2,54,-9
18:33:08:317059,-40,-5,5,5,0,-3,-61,-5
18:33:08:317930,-40,-5,5,5,0,-3,-61,-5
18:33:08:323808,10,-2,-8,-7,-3,5,3,36
18:33:08:339559,-3,-7,-12,1,4,4,1,-5
18:33:08:340426,-3,-7,-12,1,4,4,1,-5
18:33:08:346321,-17,23,5,10,5,7,22,0
18:33:08:353796,-3,-22,-1,-6,-3,-2,12,5
18:33:08:361446,-3,-22,-1,-6,-3,-2,12,5
18:33:08:368785,38,6,25,10,2,0,12,-14
18:33:08:377081,-5,15,7,-3,-7,-10,45,-8
18:33:08:377952,-5,15,7,-3,-7,-10,45,-8
18:33:08:383910,-13,-1,10,4,1,0,-29,3
18:33:08:399545,31,31,32,7,-2,-5,-35,51
18:33:08:400413,31,31,32,7,-2,-5,-35,51
18:33:08:414555,-8,-5,5,-3,1,-2,-48,-7
18:33:08:415293,24,-10,-10,-2,-4,25,57,8
18:33:08:429557,24,-10,-10,-2,-4,25,57,8
18:33:08:430305,10,-17,-37,-9,-7,-1,-12,-1
18:33:08:437031,6,-28,2,4,3,-3,3,25
18:33:08:437893,6,-28,2,4,3,-3,3,25
18:33:08:443893,-74,-20,-1,5,2,-6,-6,-9
18:33:08:459555,-20,-11,4,-2,0,-4,29,-4
18:33:08:460417,-20,-11,4,-2,0,-4,29,-4
18:33:08:466422,29,7,30,-4,-7,-8,-22,3
18:33:08:473912,20,-6,-69,-22,-13,-5,-24,-14
18:33:08:481421,20,-6,-69,-22,-13,-5,-24,-14
18:33:08:488794,-27,-51,14,9,7,2,-6,5
18:33:08:497045,1,2,2,3,4,-6,-42,-7
18:33:08:497914,1,2,2,3,4,-6,-42,-7
18:33:08:503791,11,0,-25,-13,-13,-5,29,-10
18:33:08:519553,0,6,13,-2,2,3,-23,0
18:33:08:520421,0,6,13,-2,2,3,-23,0
18:33:08:534557,-12,48,29,-4,-4,-5,-12,10
18:33:08:535297,18,5,28,13,4,-3,-13,9
18:33:08:541482,18,5,28,13,4,-3,-13,9
18:33:08:548820,-9,-10,-11,-1,-3,-4,-13,0
18:33:08:557089,9,-7,-14,-10,0,4,-58,-4
18:33:08:557929,9,-7,-14,-10,0,4,-58,-4
18:33:08:563812,2,20,-8,-6,-3,-14,-80,-10
18:33:08:579565,9,14,-14,-6,-2,-12,-57,-7
18:33:08:580420,9,14,-14,-6,-2,-12,-57,-7
18:33:08:586296,17,2,23,13,9,7,-9,-5
18:33:08:602063,-1,-38,4,-7,-2,-2,41,-4
18:33:08:602797,-1,-38,4,-7,-2,-2,41,-4
18:33:08:608947,-14,15,8,9,5,10,79,-7
18:33:08:617044,10,16,-3,0,-4,-1,-4,-1
18:33:08:617920,10,16,-3,0,-4,-1,-4,-1
18:33:08:623823,6,-3,4,-4,-8,-2,2,4
18:33:08:639539,-74,-91,-14,-21,-10,-3,38,-25
18:33:08:640335,-74,-91,-14,-21,-10,-3,38,-25
18:33:08:646468,-18,27,1,-4,-2,7,36,-2
18:33:08:653929,6,18,27,4,0,1,55,-12
18:33:08:661478,6,18,27,4,0,1,55,-12
18:33:08:668798,0,-21,-3,-5,-6,2,30,15
18:33:08:677083,-12,21,-7,6,2,4,16,-13
18:33:08:677920,-12,21,-7,6,2,4,16,-13
18:33:08:683823,-35,-29,-16,-4,2,1,28,-9
18:33:08:707684,-28,-8,-42,3,5,2,-37,9
18:33:08:708561,-28,-8,-42,3,5,2,-37,9
18:33:08:709465,18,28,-15,-8,3,-2,-15,-3
18:33:08:713811,16,15,15,-6,-2,5,53,4
18:33:08:729677,16,15,15,-6,-2,5,53,4
18:33:08:730301,1,-33,-34,1,-3,-4,-6,-16
18:33:08:737030,-2,24,15,6,1,-16,-51,-60
18:33:08:737938,-2,24,15,6,1,-16,-51,-60
18:33:08:743993,5,-52,-32,-11,-4,0,29,-6
18:33:08:759578,24,3,-6,2,-1,8,6,23
18:33:08:760410,24,3,-6,2,-1,8,6,23
18:33:08:766432,-42,-2,-1,-3,-6,-9,-42,-5
18:33:08:773802,-27,-39,-17,6,7,-2,-19,-9
18:33:08:781438,-27,-39,-17,6,7,-2,-19,-9
18:33:08:788959,31,-16,-5,-10,0,-5,-76,-17
18:33:08:797050,-2,27,-13,-15,-7,-10,-27,-10
18:33:08:797786,-2,27,-13,-15,-7,-10,-27,-10
18:33:08:803938,20,-9,-17,-5,-3,-10,-62,0
18:33:08:819566,22,15,24,9,-3,-2,-18,23
18:33:08:820310,22,15,24,9,-3,-2,-18,23
18:33:08:826444,7,-3,10,-8,-4,-3,-1,35
18:33:08:833946,18,12,-3,-3,-6,-3,-38,-19
18:33:08:841421,18,12,-3,-3,-6,-3,-38,-19
18:33:08:848951,-1,-19,-14,-2,7,0,-16,7
18:33:08:856800,40,11,-15,-10,-5,8,4,26
18:33:08:872058,40,11,-15,-10,-5,8,4,26
18:33:08:872944,16,17,13,5,-4,-1,25,5
18:33:08:879567,-10,28,40,10,1,5,10,9
18:33:08:880302,-10,28,40,10,1,5,10,9
18:33:08:886428,-9,-12,3,0,2,3,4,-25
18:33:08:893934,4,-2,-24,0,-2,-12,-18,2
18:33:08:901411,4,-2,-24,0,-2,-12,-18,2
18:33:08:908822,6,33,11,8,2,6,45,16
18:33:08:917078,-25,-9,0,7,8,3,69,2
18:33:08:917948,-25,-9,0,7,8,3,69,2
18:33:08:923803,-4,-9,8,6,0,-3,-12,10
18:33:08:939627,-46,-12,-3,0,-4,24,88,5
18:33:08:940493,-46,-12,-3,0,-4,24,88,5
18:33:08:946298,-7,19,-10,-11,-3,10,112,-9
18:33:08:953796,5,9,-15,-3,-5,-8,-16,17
18:33:08:961442,5,9,-15,-3,-5,-8,-16,17
18:33:08:968778,-7,32,52,14,0,-2,-23,-16
18:33:08:985163,4,-13,25,2,3,-1,9,-37
18:33:08:986039,4,-13,25,2,3,-1,9,-37
18:33:08:986801,24,2,-4,-3,4,-5,-54,10
18:33:08:999551,8,-6,17,3,-5,1,85,-68
18:33:09:278,8,-6,17,3,-5,1,85,-68
18:33:09:6453,-9,14,5,3,-6,-10,-2,-20
18:33:09:13941,-8,4,11,9,8,2,-44,20
18:33:09:21435,-8,4,11,9,8,2,-44,20
18:33:09:28838,-46,15,-16,-11,-2,8,16,2
18:33:09:37056,-29,-26,5,9,2,-4,-60,2
18:33:09:37922,-29,-26,5,9,2,-4,-60,2
18:33:09:51325,11,-19,1,12,-3,-11,-73,28
18:33:09:59547,12,1,-63,-13,-4,-9,-63,20
18:33:09:60454,12,1,-63,-13,-4,-9,-63,20
18:33:09:66318,29,-3,-27,-5,1,7,5,-5
18:33:09:82085,12,6,15,5,-1,-7,-35,15
18:33:09:82964,12,6,15,5,-1,-7,-35,15
18:33:09:88813,-12,-4,-3,-3,-2,-6,-14,19
18:33:09:97061,-21,-5,7,-8,-6,-5,-28,9
18:33:09:97946,-21,-5,7,-8,-6,-5,-28,9
18:33:09:111445,7,19,6,-1,-1,0,33,-13
18:33:09:119549,31,-3,-28,-7,-4,-3,13,7
18:33:09:120433,31,-3,-28,-7,-4,-3,13,7
18:33:09:126334,2,-42,-30,-3,0,-1,0,20
18:33:09:142066,-7,12,2,-2,-2,0,9,9
18:33:09:142835,-7,12,2,-2,-2,0,9,9
18:33:09:148933,21,64,18,6,6,8,25,-12
18:33:09:157069,10,-2,-8,-12,-5,-5,-26,13
18:33:09:157959,10,-2,-8,-12,-5,-5,-26,13
18:33:09:171328,-15,-17,-4,-5,-4,-1,-8,5
18:33:09:179576,6,6,0,-3,-3,-20,-64,-15
18:33:09:180313,6,6,0,-3,-3,-20,-64,-15
18:33:09:186423,38,1,18,-1,-2,4,28,6
18:33:09:202052,-11,-12,1,-1,-2,-8,-32,-2
18:33:09:202825,-11,-12,1,-1,-2,-8,-32,-2
18:33:09:208979,-17,-20,-1,1,-5,-7,-29,-41
18:33:09:217063,15,-1,13,4,1,6,41,-1
18:33:09:217812,15,-1,13,4,1,6,41,-1
18:33:09:231432,-13,-6,-7,1,-2,5,5,-30
18:33:09:239559,16,-21,-50,-18,-11,-4,31,-5
18:33:09:240288,16,-21,-50,-18,-11,-4,31,-5
18:33:09:246445,14,3,7,-6,-2,6,24,9
18:33:09:262557,44,40,30,9,7,6,-32,-20
18:33:09:263431,44,40,30,9,7,6,-32,-20
18:33:09:268797,12,-14,1,-1,0,2,66,-16
18:33:09:277069,4,3,1,-1,3,6,61,13
18:33:09:277828,4,3,1,-1,3,6,61,13
18:33:09:291347,-6,6,-15,-2,1,2,-12,-9
18:33:09:299559,-16,-4,-13,-7,-3,5,21,-2
18:33:09:300428,-16,-4,-13,-7,-3,5,21,-2
18:33:09:306431,-48,6,1,2,6,-9,-84,4
18:33:09:322068,-19,1,24,10,1,10,28,10
18:33:09:322925,-19,1,24,10,1,10,28,10
18:33:09:328837,-8,-30,-29,-16,-12,-5,80,37
18:33:09:344572,-8,-30,-29,-16,-12,-5,80,37
18:33:09:345445,0,-31,2,3,1,-7,4,-8
18:33:09:351297,1,18,1,5,3,-1,-17,1
18:33:09:360191,1,18,1,5,3,-1,-17,1
18:33:09:361039,13,-19,-21,-18,-6,-11,-19,9
18:33:09:366330,1,-43,13,4,1,-9,-42,-1
18:33:09:382083,1,-43,13,4,1,-9,-42,-1
18:33:09:382936,-41,26,27,-1,3,4,8,-11
18:33:09:388823,12,14,-17,-3,-4,4,8,-10
18:33:09:396456,12,14,-17,-3,-4,4,8,-10
18:33:09:403808,6,10,21,10,0,4,60,21
18:33:09:411339,9,-5,-4,-9,-4,-6,-8,5
18:33:09:419677,9,-5,-4,-9,-4,-6,-8,5
18:33:09:420416,8,9,19,-3,-4,-1,-28,-4
18:33:09:433820,-6,3,6,7,7,2,-38,-4
18:33:09:442044,-6,3,6,7,7,2,-38,-4
18:33:09:442911,11,20,-6,10,4,1,-16,17
18:33:09:448826,8,3,19,14,0,9,55,26
18:33:09:456470,8,3,19,14,0,9,55,26
18:33:09:463942,-42,-11,-7,1,1,0,-6,-33
18:33:09:471460,-28,9,7,-3,-1,0,-11,-6
18:33:09:479555,-28,9,7,-3,-1,0,-11,-6
18:33:09:480305,-7,-17,-29,3,0,1,-40,3
18:33:09:486437,7,-5,11,2,-4,-17,-32,5
18:33:09:502039,7,-5,11,2,-4,-17,-32,5
18:33:09:502807,8,26,5,-6,-4,-13,-19,-11
18:33:09:508941,15,5,-11,7,6,7,-1,-1
18:33:09:516424,15,5,-11,7,6,7,-1,-1
18:33:09:523835,-50,-15,-13,-3,-5,-7,-10,-10
18:33:09:540246,2,1,3,-8,1,0,-1,-21
18:33:09:541140,2,1,3,-8,1,0,-1,-21
18:33:09:541823,11,-45,2,3,3,5,1,4
18:33:09:546425,-34,-28,-29,-7,-1,-2,-22,-16
18:33:09:562040,-34,-28,-29,-7,-1,-2,-22,-16
18:33:09:562910,10,2,27,4,4,-2,-9,-17
18:33:09:568913,5,24,19,-2,-5,12,116,-5
18:33:09:576442,5,24,19,-2,-5,12,116,-5
18:33:09:583931,3,17,16,-2,-6,3,9,-12
18:33:09:591489,17,-25,-18,-8,-2,-6,-1,-4
18:33:09:599546,17,-25,-18,-8,-2,-6,-1,-4
18:33:09:600418,-17,-7,-3,-9,-7,-11,23,7
18:33:09:606380,-18,7,11,7,4,-9,-61,5
18:33:09:622058,-18,7,11,7,4,-9,-61,5
18:33:09:622835,13,-19,-17,1,3,3,-20,0
18:33:09:628818,6,14,24,4,-2,-4,-14,40
18:33:09:636437,6,14,24,4,-2,-4,-14,40
18:33:09:643834,0,-17,15,2,8,7,5,8
18:33:09:651296,-3,-25,-15,-4,-4,2,-6,19
18:33:09:659558,-3,-25,-15,-4,-4,2,-6,19
18:33:09:660483,-1,5,-21,-7,-9,-8,-54,10
18:33:09:666335,-5,0,9,4,0,-1,-5,-28
18:33:09:682062,-5,0,9,4,0,-1,-5,-28
18:33:09:682910,-3,-38,3,-1,-4,-14,-20,-28
18:33:09:688831,5,1,4,2,3,6,28,9
18:33:09:696446,5,1,4,2,3,6,28,9
18:33:09:703831,-20,16,-27,0,-3,1,13,9
18:33:09:711367,12,-9,16,8,1,4,106,4
18:33:09:719708,12,-9,16,8,1,4,106,4
18:33:09:720321,14,5,4,2,2,3,-5,23
18:33:09:726318,-20,-17,-6,-5,-2,-12,-103,10
18:33:09:742082,-20,-17,-6,-5,-2,-12,-103,10
18:33:09:742940,26,35,9,-1,-3,7,-6,20
18:33:09:748810,-22,18,-2,-4,-6,-1,36,-30
18:33:09:756449,-22,18,-2,-4,-6,-1,36,-30
18:33:09:763813,7,-24,-3,-11,-8,-7,13,-8
18:33:09:771328,-9,4,8,2,0,0,-8,-4
18:33:09:787697,-9,4,8,2,0,0,-8,-4
18:33:09:788566,7,2,6,2,1,11,49,-54
18:33:09:789334,-7,1,-8,-2,1,-2,-49,1
18:33:09:802087,-7,1,-8,-2,1,-2,-49,1
18:33:09:802984,0,1,13,3,8,6,-7,13
18:33:09:817047,-6,-17,-30,-3,0,-2,-31,-14
18:33:09:817929,-6,-17,-30,-3,0,-2,-31,-14
18:33:09:823811,-11,15,-10,6,4,-2,23,29
18:33:09:831322,29,26,0,-5,-3,7,82,16
18:33:09:839602,29,26,0,-5,-3,7,82,16
18:33:09:840469,9,-2,-3,4,-1,-4,-15,17
18:33:09:846326,4,7,3,-3,-3,-10,-83,9
18:33:09:862076,4,7,3,-3,-3,-10,-83,9
18:33:09:862943,-31,-15,9,2,-1,-5,15,-42
18:33:09:868822,14,12,-27,-8,-6,-8,-25,15
18:33:09:876446,14,12,-27,-8,-6,-8,-25,15
18:33:09:883840,-3,-13,-28,-8,1,0,-14,0
18:33:09:891309,-34,-39,22,5,2,-2,-25,-5
18:33:09:899708,-34,-39,22,5,2,-2,-25,-5
18:33:09:900309,4,-9,-1,-5,-5,0,3,24
18:33:09:906316,15,8,-14,-4,-5,2,-32,-11
18:33:09:922091,15,8,-14,-4,-5,2,-32,-11
18:33:09:922961,16,-1,-4,-3,2,-4,-28,0
18:33:09:928833,18,2,0,3,-1,-4,57,-11
18:33:09:936459,18,2,0,3,-1,-4,57,-11
18:33:09:943852,5,14,-13,2,-4,-2,19,9
18:33:09:960186,-1,0,9,3,0,-6,-17,-24
18:33:09:961079,-1,0,9,3,0,-6,-17,-24
18:33:09:961805,-1,-24,-55,-8,-3,5,44,-12
18:33:09:973829,3,-31,33,12,2,11,42,-14
18:33:09:982113,3,-31,33,12,2,11,42,-14
18:33:09:982958,3,20,62,12,0,7,61,6
18:33:09:988852,0,20,-23,-3,2,11,60,-20
18:33:09:996442,0,20,-23,-3,2,11,60,-20
18:33:10:3812,-16,12,2,-6,0,2,2,-26
18:33:10:11371,21,15,-4,-8,-7,-8,6,50
18:33:10:19703,21,15,-4,-8,-7,-8,6,50
18:33:10:20326,-33,-19,-8,-8,-7,-9,-46,18
18:33:10:33843,-43,9,-3,-9,-3,-7,-6,-20
18:33:10:42102,-43,9,-3,-9,-3,-7,-6,-20
18:33:10:42973,25,22,11,-7,3,-6,-45,8
18:33:10:48822,-2,-17,-33,-9,-3,-10,-67,14
18:33:10:56441,-2,-17,-33,-9,-3,-10,-67,14
18:33:10:63815,5,1,-59,-12,-3,5,81,21
18:33:10:80183,-25,-28,-21,-2,-4,-8,-27,-17
18:33:10:81052,-25,-28,-21,-2,-4,-8,-27,-17
18:33:10:81791,0,-5,9,-1,-2,-2,-38,15
18:33:10:93810,28,25,-2,-1,0,-5,-40,5
18:33:10:102078,28,25,-2,-1,0,-5,-40,5
18:33:10:102803,-22,-6,18,8,3,5,-50,-76
18:33:10:108861,35,16,17,0,0,7,35,-25
18:33:10:116452,35,16,17,0,0,7,35,-25
18:33:10:123840,36,9,-27,-5,-3,-8,9,29
18:33:10:131337,3,-1,-2,-3,0,2,0,-1
18:33:10:139682,3,-1,-2,-3,0,2,0,-1
18:33:10:140298,-35,-4,-2,-4,-6,0,17,6
18:33:10:153835,-18,-13,3,3,8,6,58,19
18:33:10:162071,-18,-13,3,3,8,6,58,19
18:33:10:162942,1,10,-21,-16,-3,1,-2,-3
18:33:10:168815,-2,23,22,5,1,5,-10,14
18:33:10:176456,-2,23,22,5,1,5,-10,14
18:33:10:183805,-19,-10,17,1,-3,-13,-44,11
18:33:10:200238,-11,-16,2,-7,1,-3,-4,-29
18:33:10:201074,-11,-16,2,-7,1,-3,-4,-29
18:33:10:201821,19,-1,0,-7,-1,6,-2,-8
18:33:10:213834,-3,9,0,4,-3,0,-16,-11
18:33:10:222117,-3,9,0,4,-3,0,-16,-11
18:33:10:222974,2,0,18,8,-2,-4,-27,20
18:33:10:228862,8,3,3,-2,-2,-3,-19,-21
18:33:10:236445,8,3,3,-2,-2,-3,-19,-21
18:33:10:243861,22,-16,-13,4,3,-1,17,-2
18:33:10:251370,-22,-6,-6,-4,-1,-7,-22,10
18:33:10:259581,-22,-6,-6,-4,-1,-7,-22,10
18:33:10:260333,-1,-32,-30,-7,2,1,38,-20
18:33:10:273848,-25,-24,-3,-2,-2,-13,-6,45
18:33:10:282049,-25,-24,-3,-2,-2,-13,-6,45
18:33:10:282945,-14,7,10,8,0,0,24,32
18:33:10:288822,19,-9,3,4,0,-8,-49,-85
18:33:10:296435,19,-9,3,4,0,-8,-49,-85
18:33:10:303969,8,17,18,6,1,5,57,1
18:33:10:311438,-5,-10,-10,-9,-6,1,4,21
18:33:10:319562,-5,-10,-10,-9,-6,1,4,21
18:33:10:320334,-24,-1,10,-1,-3,-6,-24,-20
18:33:10:333801,28,12,-16,-2,-4,-3,-32,11
18:33:10:342101,28,12,-16,-2,-4,-3,-32,11
18:33:10:342826,-12,-42,-13,-1,-3,4,-43,4
18:33:10:348942,-10,-6,-38,-11,-6,15,127,-75
18:33:10:356463,-10,-6,-38,-11,-6,15,127,-75
18:33:10:363826,2,47,1,-1,8,1,-7,-62
18:33:10:371334,-3,0,16,7,2,-4,-43,50
18:33:10:379593,-3,0,16,7,2,-4,-43,50
18:33:10:380462,29,36,13,6,0,-2,14,9
18:33:10:393968,-7,6,-5,-13,-8,-4,18,7
18:33:10:410354,-7,6,-5,-13,-8,-4,18,7
18:33:10:411093,-4,12,25,7,-3,-3,-21,9
18:33:10:411832,27,43,10,-4,-5,2,-13,-42
18:33:10:416439,27,43,10,-4,-5,2,-13,-42
18:33:10:423957,-31,1,-23,-15,-11,-8,0,-11
18:33:10:431436,-16,11,6,2,2,-1,-49,3
18:33:10:439566,-16,11,6,2,2,-1,-49,3
18:33:10:440329,-23,0,18,7,1,1,-25,-9
18:33:10:453839,19,-6,2,6,-3,-6,49,68
18:33:10:462130,19,-6,2,6,-3,-6,49,68
18:33:10:462844,19,8,-4,0,-1,4,1,28
18:33:10:468936,2,1,16,-23,0,-6,-31,21
18:33:10:476473,2,1,16,-23,0,-6,-31,21
18:33:10:483801,6,-8,7,4,1,-2,12,-8
18:33:10:491419,3,10,-17,6,3,4,-5,-11
18:33:10:499563,3,10,-17,6,3,4,-5,-11
18:33:10:500426,4,1,3,-3,2,-6,20,-41
18:33:10:513946,14,-21,-1,10,5,10,53,68
18:33:10:530202,14,-21,-1,10,5,10,53,68
18:33:10:531067,-6,-8,-11,-3,-5,-3,-4,0
18:33:10:531825,-3,-1,-6,-5,0,-4,-43,36
18:33:10:536465,-3,-1,-6,-5,0,-4,-43,36
18:33:10:543845,12,14,-10,0,2,1,79,11
18:33:10:551319,-52,6,14,5,2,0,-44,-21
18:33:10:559601,-52,6,14,5,2,0,-44,-21
18:33:10:560306,-33,-29,-16,-8,-4,-3,-25,27
18:33:10:573974,-10,31,12,3,1,0,29,-93
18:33:10:582055,-10,31,12,3,1,0,29,-93
18:33:10:582797,-17,-22,-13,-9,-2,-5,-25,11
18:33:10:588824,-35,-32,-13,2,-2,2,20,-1
18:33:10:596436,-35,-32,-13,2,-2,2,20,-1
18:33:10:612086,29,-3,-2,-6,-1,-1,-14,4
18:33:10:612831,18,19,9,-5,-1,3,-24,-88
18:33:10:619556,18,19,9,-5,-1,3,-24,-88
18:33:10:620326,18,-45,-22,-2,-7,-16,-35,6
18:33:10:633802,18,-6,8,8,2,2,-8,20
18:33:10:650193,18,-6,8,8,2,2,-8,20
18:33:10:651087,15,3,28,-3,-7,1,-2,-8
18:33:10:651839,8,-4,-22,10,1,0,33,14
18:33:10:656467,8,-4,-22,10,1,0,33,14
18:33:10:663812,3,17,-5,-6,0,-3,-56,28
18:33:10:680193,-18,2,8,3,-8,-3,12,24
18:33:10:681065,-18,2,8,3,-8,-3,12,24
18:33:10:681803,-3,-1,1,0,3,3,96,14
18:33:10:693857,17,31,22,-1,-2,-5,-47,11
18:33:10:702082,17,31,22,-1,-2,-5,-47,11
18:33:10:702925,-13,16,3,-5,-7,4,7,-11
18:33:10:708808,8,-27,6,-6,-3,-7,22,32
18:33:10:716437,8,-27,6,-6,-3,-7,22,32
18:33:10:723827,-16,-39,0,-1,-1,0,28,-16
18:33:10:731328,-19,13,19,2,1,1,7,19
18:33:10:739555,-19,13,19,2,1,1,7,19
18:33:10:740297,-14,-27,9,5,2,-4,-50,12
18:33:10:754325,1,-6,-18,-4,-1,-4,34,-27
18:33:10:762084,1,-6,-18,-4,-1,-4,34,-27
18:33:10:762938,23,0,-5,1,-4,0,-1,5
18:33:10:768820,0,-9,-10,-6,-1,0,-39,10
18:33:10:776502,0,-9,-10,-6,-1,0,-39,10
18:33:10:783949,-2,25,-3,-3,-1,8,-27,1
18:33:10:791375,8,0,-6,-2,3,0,19,-12
18:33:10:807108,8,0,-6,-2,3,0,19,-12
18:33:10:807959,-8,-6,10,6,-2,-3,-26,-3
18:33:10:813806,8,-65,-33,-8,-4,-12,-16,13
18:33:10:822093,8,-65,-33,-8,-4,-12,-16,13
18:33:10:822842,-3,-22,-73,-18,-6,-5,-15,-14
18:33:10:828836,18,-19,-10,-2,1,1,10,8
18:33:10:836433,18,-19,-10,-2,1,1,10,8
18:33:10:843825,2,-1,15,11,2,-4,-8,2
18:33:10:851473,-10,14,9,0,-4,1,4,-16
18:33:10:859576,-10,14,9,0,-4,1,4,-16
18:33:10:860348,0,19,22,6,1,7,49,-9
18:33:10:873816,18,-6,27,12,0,-12,-16,-2
18:33:10:882060,18,-6,27,12,0,-12,-16,-2
18:33:10:882801,-6,22,21,3,3,-3,15,-22
18:33:10:888823,-32,7,-2,0,0,6,-10,3
18:33:10:896432,-32,7,-2,0,0,6,-10,3
18:33:10:903822,25,17,-11,-4,-3,-3,3,0
18:33:10:911330,10,8,-15,-7,-1,-6,-2,0
18:33:10:919954,10,8,-15,-7,-1,-6,-2,0
18:33:10:926350,0,11,-38,-5,-2,2,21,-52
18:33:10:933830,22,-17,-16,-10,-10,9,107,27
18:33:10:942107,22,-17,-16,-10,-10,9,107,27
18:33:10:942983,17,0,36,8,-2,-7,51,18
18:33:10:957088,25,-18,-4,0,-1,-4,-35,9
18:33:10:958002,25,-18,-4,0,-1,-4,-35,9
18:33:10:963826,-3,5,0,-1,0,-3,-33,-3
18:33:10:971341,-27,-6,4,-1,-1,0,-19,-28
18:33:10:978964,-27,-6,4,-1,-1,0,-19,-28
18:33:10:986317,-8,-6,-26,-15,-1,-6,-63,-5
18:33:10:993890,5,8,5,1,0,-4,-50,25
18:33:11:2074,5,8,5,1,0,-4,-50,25
18:33:11:2830,10,13,11,5,3,3,-35,4
18:33:11:17080,16,-3,-52,-20,1,4,7,-60
18:33:11:17952,16,-3,-52,-20,1,4,7,-60
18:33:11:23846,-25,2,1,2,2,0,4,29
18:33:11:31378,-13,-10,17,10,5,8,18,-28
18:33:11:38950,-13,-10,17,10,5,8,18,-28
18:33:11:46353,-10,-7,16,-2,-5,3,30,8
18:33:11:53845,14,14,0,0,-1,3,4,28
18:33:11:62075,14,14,0,0,-1,3,4,28
18:33:11:62853,-1,-4,20,14,6,3,10,-4
18:33:11:85204,-35,-29,-45,-10,-4,2,42,25
18:33:11:86096,-35,-29,-45,-10,-4,2,42,25
18:33:11:86875,-7,19,38,-3,-1,7,42,-4
18:33:11:91359,12,18,21,-4,-1,-4,-55,-4
18:33:11:98954,12,18,21,-4,-1,-4,-55,-4
18:33:11:106346,-35,-18,-49,-15,-10,-10,-50,5
18:33:11:113835,-42,2,12,3,0,1,15,28
18:33:11:122089,-42,2,12,3,0,1,15,28
18:33:11:122830,-4,-15,11,8,0,-4,-10,3
18:33:11:137091,-6,1,-11,2,3,0,-23,-52
18:33:11:137952,-6,1,-11,2,3,0,-23,-52
18:33:11:152061,9,-12,-9,-5,-2,-5,-30,-14
18:33:11:152801,-15,19,25,0,-3,1,-24,-5
18:33:11:158952,-15,19,25,0,-3,1,-24,-5
18:33:11:166325,22,5,13,3,0,1,-12,-31
18:33:11:173813,-3,-7,14,7,0,-5,-2,-58
18:33:11:182105,-3,-7,14,7,0,-5,-2,-58
18:33:11:182967,20,5,-10,0,-3,3,73,22
18:33:11:205214,-1,-12,-5,-2,1,12,77,27
18:33:11:206059,-1,-12,-5,-2,1,12,77,27
18:33:11:206841,0,4,-7,-10,-4,-3,-35,-18
18:33:11:211417,36,-26,-23,0,1,-6,-25,34
18:33:11:218988,36,-26,-23,0,1,-6,-25,34
18:33:11:226351,11,-2,-15,-5,1,4,2,-19
18:33:11:233831,-2,5,-1,-9,-2,-8,26,29
18:33:11:242071,-2,5,-1,-9,-2,-8,26,29
18:33:11:242945,3,-15,-3,6,3,-2,-31,9
18:33:11:257106,6,14,20,6,-2,2,-25,-3
18:33:11:257994,6,14,20,6,-2,2,-25,-3
18:33:11:263832,10,4,-6,-4,1,5,17,8
18:33:11:271325,39,19,9,0,-1,-1,87,26
18:33:11:278971,39,19,9,0,-1,-1,87,26
18:33:11:286321,-12,1,44,13,7,-5,-39,-23
18:33:11:293843,-5,14,15,-10,0,-6,-58,-4
18:33:11:309620,-5,14,15,-10,0,-6,-58,-4
18:33:11:310463,-1,5,-7,1,2,4,-18,6
18:33:11:317069,-13,-1,22,9,0,5,50,-17
18:33:11:317821,-13,-1,22,9,0,5,50,-17
18:33:11:323830,-37,-7,-2,2,-3,-1,0,7
18:33:11:331317,-4,-5,-19,3,-1,-11,-64,16
18:33:11:338961,-4,-5,-19,3,-1,-11,-64,16
18:33:11:346428,1,-8,-22,-12,-7,1,82,-28
18:33:11:362693,-35,6,-19,-1,-3,-20,-75,-23
18:33:11:363570,-35,6,-19,-1,-3,-20,-75,-23
18:33:11:364316,-6,-14,-4,-2,0,2,-34,13
18:33:11:377117,-5,20,6,0,-1,2,-32,0
18:33:11:377973,-5,20,6,0,-1,2,-32,0
18:33:11:383830,16,-9,3,2,-1,0,1,28
18:33:11:391356,-8,-3,-6,5,0,-5,-46,-2
18:33:11:398945,-8,-3,-6,5,0,-5,-46,-2
18:33:11:406381,-7,-27,-24,3,3,-4,-12,-11
18:33:11:413827,7,50,53,11,3,8,48,10
18:33:11:422083,7,50,53,11,3,8,48,10
18:33:11:422827,-24,3,4,3,1,1,-14,28
18:33:11:437073,26,-44,-2,-4,-1,8,55,6
18:33:11:437829,26,-44,-2,-4,-1,8,55,6
18:33:11:443865,-7,32,9,-4,-6,7,95,-24
18:33:11:451340,2,0,-11,-4,1,4,2,-16
18:33:11:458958,2,0,-11,-4,1,4,2,-16
18:33:11:466438,9,-6,-3,-2,-1,-5,-58,17
18:33:11:473836,-15,-7,-1,3,2,9,63,-6
18:33:11:482080,-15,-7,-1,3,2,9,63,-6
18:33:11:482834,-9,-7,-10,-4,1,-5,-31,-13
18:33:11:497089,-39,-3,-30,-13,-4,-12,-70,2
18:33:11:497828,-39,-3,-30,-13,-4,-12,-70,2
18:33:11:503957,-17,15,23,11,4,-3,-14,-103
18:33:11:511345,-4,-21,-20,-3,0,2,16,6
18:33:11:518951,-4,-21,-20,-3,0,2,16,6
18:33:11:526352,51,24,2,-7,-3,-4,-21,36
18:33:11:533836,14,11,12,5,-2,-5,-56,-9
18:33:11:542123,14,11,12,5,-2,-5,-56,-9
18:33:11:542826,-2,-20,-6,-4,-2,3,58,4
18:33:11:557107,33,-42,-9,-7,-6,-2,-30,-7
18:33:11:557836,33,-42,-9,-7,-6,-2,-30,-7
18:33:11:563840,3,22,13,-4,-2,-2,-15,20
18:33:11:571340,5,-1,-18,-9,-3,1,12,15
18:33:11:587095,5,-1,-18,-9,-3,1,12,15
18:33:11:587828,-9,-1,-18,-3,-5,-6,48,21
18:33:11:593848,12,9,11,5,3,4,27,35
18:33:11:602855,12,9,11,5,3,4,27,35
18:33:11:603582,-6,6,6,-9,-6,-10,-50,8
18:33:11:617060,-16,6,16,3,1,13,60,0
18:33:11:617808,-16,6,16,3,1,13,60,0
18:33:11:623834,4,-32,-13,-8,-3,-5,-1,16
18:33:11:639580,-7,3,-27,-19,-6,-4,-15,-10
18:33:11:640330,-7,3,-27,-19,-6,-4,-15,-10
18:33:11:646320,23,-8,9,5,1,4,46,5
18:33:11:653820,6,-14,-2,8,4,-4,-40,1
18:33:11:662108,6,-14,-2,8,4,-4,-40,1
18:33:11:662842,5,5,-11,-1,1,3,-53,15
18:33:11:677119,7,5,6,-1,0,0,20,-7
18:33:11:677872,7,5,6,-1,0,0,20,-7
18:33:11:683830,-24,14,11,4,1,-4,-28,-2
18:33:11:691333,-10,-19,22,-1,0,-6,-58,-77
18:33:11:707108,-10,-19,22,-1,0,-6,-58,-77
18:33:11:707959,38,15,-21,-8,-7,2,62,8
18:33:11:713846,-11,32,-8,9,-5,-1,17,19
18:33:11:722099,-11,32,-8,9,-5,-1,17,19
18:33:11:722838,-10,3,5,4,3,10,86,-7
18:33:11:737081,16,-17,13,4,-4,1,31,-17
18:33:11:737977,16,-17,13,4,-4,1,31,-17
18:33:11:743882,-6,7,2,-1,0,2,-14,-36
18:33:11:759588,4,11,-13,-13,-5,-3,-22,-20
18:33:11:760433,4,11,-13,-13,-5,-3,-22,-20
18:33:11:766331,-30,-11,-15,-1,8,10,-53,-31
18:33:11:773834,33,16,-11,1,-2,-13,-51,20
18:33:11:782094,33,16,-11,1,-2,-13,-51,20
18:33:11:782966,-42,-26,18,5,-5,-9,-47,-11
18:33:11:797077,-20,-10,-20,-9,0,-2,-57,22
18:33:11:797949,-20,-10,-20,-9,0,-2,-57,22
18:33:11:803837,-12,-14,-12,-9,-1,-9,-14,3
18:33:11:811335,-11,16,2,10,-2,-6,8,24
18:33:11:818814,-11,16,2,10,-2,-6,8,24
18:33:11:826350,14,58,-1,6,3,1,38,31
18:33:11:833845,-62,-52,-7,-10,-5,-4,-4,22
18:33:11:842127,-62,-52,-7,-10,-5,-4,-4,22
18:33:11:842827,-23,-3,-8,1,-4,-13,-64,18
18:33:11:857076,11,17,33,7,10,7,-43,-54
18:33:11:857840,11,17,33,7,10,7,-43,-54
18:33:11:863834,-8,9,16,2,1,-1,-28,-7
18:33:11:871330,1,-16,22,11,0,-11,-36,0
18:33:11:878964,1,-16,22,11,0,-11,-36,0
18:33:11:886324,34,-12,-7,8,3,-2,18,3
18:33:11:893891,6,0,1,-3,-2,0,-9,-18
18:33:11:901462,6,0,1,-3,-2,0,-9,-18
18:33:11:917686,27,-22,8,-7,-5,0,-17,15
18:33:11:918428,6,13,-8,-9,-3,1,41,-13
18:33:11:919324,6,13,-8,-9,-3,1,41,-13
18:33:11:923832,-17,-18,-3,-2,-2,1,23,0
18:33:11:939605,4,25,-33,-10,-1,1,40,13
18:33:11:940391,4,25,-33,-10,-1,1,40,13
18:33:11:946328,28,55,3,-4,8,3,-5,-6
18:33:11:953815,-22,-37,-37,-16,-6,0,11,7
18:33:11:961457,-22,-37,-37,-16,-6,0,11,7
18:33:11:968818,-4,-57,-24,-3,-4,1,28,4
18:33:11:977117,-3,-2,27,14,3,-1,6,0
18:33:11:977855,-3,-2,27,14,3,-1,6,0
18:33:11:983841,10,-19,3,0,-5,2,3,5
18:33:11:999584,-16,11,-13,-6,-4,-5,18,-2
18:33:12:315,-16,11,-13,-6,-4,-5,18,-2
18:33:12:6317,-5,-4,-2,1,-2,-3,9,12
18:33:12:13829,-77,23,-3,6,2,2,14,14
18:33:12:21440,-77,23,-3,6,2,2,14,14
18:33:12:28903,6,-14,7,3,-1,-6,-23,7
18:33:12:37074,32,18,25,7,0,9,46,3
18:33:12:37827,32,18,25,7,0,9,46,3
18:33:12:43848,0,9,13,3,-1,3,3,1
18:33:12:59624,46,-8,-40,1,-3,-5,-20,22
18:33:12:60325,46,-8,-40,1,-3,-5,-20,22
18:33:12:66358,-16,-46,-19,-9,-3,-2,31,-7
18:33:12:73824,30,-4,-21,0,1,-3,-10,-15
18:33:12:81439,30,-4,-21,0,1,-3,-10,-15
18:33:12:88829,1,31,5,-5,-4,-1,-15,-35
18:33:12:97081,-11,11,26,-6,-1,-2,11,12
18:33:12:97966,-11,11,26,-6,-1,-2,11,12
18:33:12:103842,-8,36,-2,2,7,-2,-21,20
18:33:12:119570,-4,16,1,-2,0,-3,-44,-8
18:33:12:120446,-4,16,1,-2,0,-3,-44,-8
18:33:12:126334,7,21,19,-4,-5,-8,-34,2
18:33:12:142112,21,7,-16,-5,4,2,10,-7
18:33:12:142845,21,7,-16,-5,4,2,10,-7
18:33:12:148840,53,-11,14,4,-1,-1,2,-12
18:33:12:157092,-15,-3,-26,-15,-2,-2,-7,-10
18:33:12:157990,-15,-3,-26,-15,-2,-2,-7,-10
18:33:12:163837,8,-41,-48,-19,-4,-11,-1,-27
18:33:12:179591,16,-2,2,-5,-3,-12,-1,-5
18:33:12:180338,16,-2,2,-5,-3,-12,-1,-5
18:33:12:194487,-62,-16,-9,1,1,5,13,-4
18:33:12:195328,-3,-49,10,0,-11,3,96,14
18:33:12:201448,-3,-49,10,0,-11,3,96,14
18:33:12:208831,6,35,17,-2,-2,1,28,8
18:33:12:217073,-3,8,29,2,-3,-5,-12,0
18:33:12:217838,-3,8,29,2,-3,-5,-12,0
18:33:12:223900,10,0,17,10,6,7,-19,-10
18:33:12:239584,-1,11,-2,0,-1,-2,-24,1
18:33:12:240338,-1,11,-2,0,-1,-2,-24,1
18:33:12:246336,8,1,-23,-9,-2,6,41,4
18:33:12:253862,19,25,5,-1,-1,11,5,-3
18:33:12:261476,19,25,5,-1,-1,11,5,-3
18:33:12:268833,17,-7,3,6,-2,-2,-10,5
18:33:12:277123,-42,-19,-23,-5,0,1,-22,-15
18:33:12:277999,-42,-19,-23,-5,0,1,-22,-15
18:33:12:283867,-20,0,4,-1,-1,1,0,-46
18:33:12:299617,-6,-60,3,7,0,5,20,-11
18:33:12:300351,-6,-60,3,7,0,5,20,-11
18:33:12:306360,-4,-14,7,6,1,-8,-42,16
18:33:12:313846,25,-18,5,0,2,2,-13,-4
18:33:12:321465,25,-18,5,0,2,2,-13,-4
18:33:12:328903,-6,13,11,-1,-1,-2,-24,6
18:33:12:337118,-7,-1,-9,-5,4,1,18,-25
18:33:12:337999,-7,-1,-9,-5,4,1,18,-25
18:33:12:343853,13,12,12,9,-1,-9,-36,4
18:33:12:359648,17,6,-2,1,-1,-2,-62,57
18:33:12:360487,17,6,-2,1,-1,-2,-62,57
18:33:12:366332,5,-10,-5,-4,-2,-2,-45,1
18:33:12:373841,10,30,19,-5,-7,-6,1,-60
18:33:12:381479,10,30,19,-5,-7,-6,1,-60
18:33:12:388833,-12,-12,-2,-16,-5,0,30,12
18:33:12:397083,-31,-6,4,0,0,-11,-44,-11
18:33:12:397822,-31,-6,4,0,0,-11,-44,-11
18:33:12:403848,49,26,-2,-2,-2,1,57,7
18:33:12:419942,-1,-39,-14,-3,1,7,63,19
18:33:12:420840,-1,-39,-14,-3,1,7,63,19
18:33:12:426340,-19,2,-21,-3,-3,-6,-8,24
18:33:12:433861,10,8,-5,3,-3,-2,-2,33
18:33:12:441342,10,8,-5,3,-3,-2,-2,33
18:33:12:448830,22,-5,8,8,2,3,9,6
18:33:12:457107,-16,16,2,-1,0,8,87,4
18:33:12:457870,-16,16,2,-1,0,8,87,4
18:33:12:471340,-14,7,6,-4,-2,0,-11,-44
18:33:12:479586,5,-28,17,7,0,-10,-50,-8
18:33:12:480326,5,-28,17,7,0,-10,-50,-8
18:33:12:486343,-43,0,-23,-5,1,-1,-13,-5
18:33:12:493865,3,6,35,2,0,-2,-10,-83
18:33:12:501473,3,6,35,2,0,-2,-10,-83
18:33:12:508844,2,-28,-1,-9,-5,-3,22,38
18:33:12:517082,-17,-8,-17,0,4,16,55,41
18:33:12:517844,-17,-8,-17,0,4,16,55,41
18:33:12:523838,-12,19,4,0,-6,14,88,10
18:33:12:539628,7,4,7,1,-6,-6,-35,11
18:33:12:540352,7,4,7,1,-6,-6,-35,11
18:33:12:546366,-28,-26,-17,-1,0,-1,-6,1
18:33:12:553840,4,7,4,3,1,-5,-45,6
18:33:12:561475,4,7,4,3,1,-5,-45,6
18:33:12:577765,10,39,9,1,-4,-8,-39,-11
18:33:12:578599,6,55,24,7,3,-2,-1,9
18:33:12:579343,6,55,24,7,3,-2,-1,9
18:33:12:583831,-8,-4,-19,2,4,7,53,18
18:33:12:599593,-5,-15,-13,0,-1,-15,-56,36
18:33:12:600320,-5,-15,-13,0,-1,-15,-56,36
18:33:12:606350,25,60,13,5,0,1,-39,-35
18:33:12:613829,29,0,1,0,-2,1,15,-5
18:33:12:621476,29,0,1,0,-2,1,15,-5
18:33:12:628845,-12,-8,-48,-14,-6,-7,-11,-5
18:33:12:637071,21,-6,-12,-11,-5,-4,1,17
18:33:12:637867,21,-6,-12,-11,-5,-4,1,17
18:33:12:643890,-25,-6,-3,-5,2,-1,-12,-7
18:33:12:659613,7,-11,-18,-9,-5,2,16,2
18:33:12:660345,7,-11,-18,-9,-5,2,16,2
18:33:12:666329,-28,-20,11,3,-1,-3,25,-33
18:33:12:673850,-28,-24,0,-6,-4,-11,-12,45
18:33:12:681471,-28,-24,0,-6,-4,-11,-12,45
18:33:12:697708,17,-31,28,5,0,-3,-13,36
18:33:12:698572,5,26,-24,-5,6,7,7,-4
18:33:12:699325,5,26,-24,-5,6,7,7,-4
18:33:12:703825,6,4,-7,8,4,-3,17,-4
18:33:12:719590,-21,-5,7,9,0,2,11,-19
18:33:12:720391,-21,-5,7,9,0,2,11,-19
18:33:12:726381,-24,-14,4,0,-6,-2,4,-9
18:33:12:733837,-34,-1,8,-1,-3,7,9,-40
18:33:12:741476,-34,-1,8,-1,-3,7,9,-40
18:33:12:748858,28,35,18,6,-1,1,-8,17
18:33:12:757089,-3,10,9,2,-1,-3,-22,-6
18:33:12:757988,-3,10,9,2,-1,-3,-22,-6
18:33:12:763846,4,-20,7,1,-1,-9,-20,20
18:33:12:779597,8,10,-2,-4,0,-7,4,-10
18:33:12:780339,8,10,-2,-4,0,-7,4,-10
18:33:12:786337,32,-8,-24,-2,2,-4,-42,22
18:33:12:802095,-18,-47,-25,-5,1,-1,6,-2
18:33:12:802838,-18,-47,-25,-5,1,-1,6,-2
18:33:12:808852,9,37,39,2,-4,13,57,27
18:33:12:817089,28,-8,10,6,-3,2,-5,-56
18:33:12:817847,28,-8,10,6,-3,2,-5,-56
18:33:12:823820,15,-13,2,5,2,-3,-22,-13
18:33:12:839576,-1,-19,4,2,3,-2,-7,12
18:33:12:840330,-1,-19,4,2,3,-2,-7,12
18:33:12:853859,15,49,7,1,8,3,-1,-5
18:33:12:862138,-6,-18,-5,-3,-4,0,-16,1
18:33:12:862842,-6,-18,-5,-3,-4,0,-16,1
18:33:12:868843,-48,-30,-15,-5,4,1,-16,-1
18:33:12:877114,-17,1,22,7,2,5,50,14
18:33:12:877874,-17,1,22,7,2,5,50,14
18:33:12:891377,-15,1,-3,-24,-7,-10,-15,-65
18:33:12:899581,22,-29,-28,-10,-2,-1,-39,11
18:33:12:900321,22,-29,-28,-10,-2,-1,-39,11
18:33:12:906346,-1,50,9,-6,0,1,-13,5
18:33:12:922447,-4,1,-23,-2,-1,-3,3,-12
18:33:12:923326,-4,1,-23,-2,-1,-3,3,-12
18:33:12:928861,15,-52,-15,-1,-2,-3,-11,16
18:33:12:937096,16,40,31,9,15,10,26,2
18:33:12:937856,16,40,31,9,15,10,26,2
18:33:12:960244,-45,-25,-2,-2,-9,-7,78,15
18:33:12:960973,35,29,-11,-7,-9,-9,-53,23
18:33:12:961840,35,29,-11,-7,-9,-9,-53,23
18:33:12:966327,31,-31,-8,4,-5,-6,-53,-1
18:33:12:982120,8,-21,6,1,8,-3,0,-13
18:33:12:982968,8,-21,6,1,8,-3,0,-13
18:33:12:988838,-46,1,3,4,-7,-5,4,-6
18:33:12:996975,41,29,-10,-2,-16,-7,-23,19
18:33:12:997839,41,29,-10,-2,-16,-7,-23,19
18:33:13:11358,-7,-7,-24,-8,-6,2,3,18
18:33:13:19595,-24,7,7,-9,-8,-5,13,-18
18:33:13:20467,-24,7,7,-9,-8,-5,13,-18
18:33:13:26351,0,6,-1,5,2,-3,-34,-14
18:33:13:42104,-22,-32,-39,-11,-2,-1,9,-7
18:33:13:42860,-22,-32,-39,-11,-2,-1,9,-7
18:33:13:48862,15,19,11,-5,5,-9,11,-50
18:33:13:57095,-63,-6,0,-7,-3,-5,-22,26
18:33:13:57984,-63,-6,0,-7,-3,-5,-22,26
18:33:13:71373,52,-6,4,13,1,-9,-85,28
18:33:13:79605,-30,-9,4,5,2,5,20,-13
18:33:13:80343,-30,-9,4,5,2,5,20,-13
18:33:13:86334,8,-8,7,10,8,6,-16,13
18:33:13:102093,-26,4,4,-2,-4,1,27,14
18:33:13:102858,-26,4,4,-2,-4,1,27,14
18:33:13:108854,-80,-26,-24,-2,-1,-11,60,-12
18:33:13:116346,6,-3,4,4,8,5,-30,16
18:33:13:132085,6,-3,4,4,8,5,-30,16
18:33:13:132838,29,-6,2,0,0,11,35,30
18:33:13:139604,72,-2,13,5,-1,-1,-20,23
18:33:13:140374,72,-2,13,5,-1,-1,-20,23
18:33:13:146352,-38,-11,-8,-9,-4,3,-1,-1
18:33:13:162123,-18,8,11,3,-3,-4,-26,-34
18:33:13:162842,-18,8,11,3,-3,-4,-26,-34
18:33:13:168866,47,8,-10,-9,-4,6,31,11
18:33:13:177109,-58,34,7,3,-2,-8,6,22
18:33:13:177864,-58,34,7,3,-2,-8,6,22
18:33:13:191350,9,-13,-2,-3,-7,-11,-31,-44
18:33:13:199623,53,0,-10,-17,-7,-7,-54,-9
18:33:13:200341,53,0,-10,-17,-7,-7,-54,-9
18:33:13:206363,-14,-17,-5,-4,-1,0,-48,-53
18:33:13:222082,5,37,13,7,5,6,22,-6
18:33:13:222838,5,37,13,7,5,6,22,-6
18:33:13:228894,-5,24,12,2,11,15,28,32
18:33:13:237130,46,-27,-46,-9,-4,2,30,-16
18:33:13:237850,46,-27,-46,-9,-4,2,30,-16
18:33:13:251335,0,41,6,-1,-2,-3,5,2
18:33:13:259616,10,2,21,13,5,-3,26,9
18:33:13:260349,10,2,21,13,5,-3,26,9
18:33:13:266350,24,-13,14,11,1,7,66,64
18:33:13:282099,12,-24,-18,-9,-8,-3,-14,0
18:33:13:282831,12,-24,-18,-9,-8,-3,-14,0
18:33:13:288858,-46,-26,1,-1,-1,4,-11,34
18:33:13:297103,9,-22,3,0,-2,1,-10,-8
18:33:13:297848,9,-22,3,0,-2,1,-10,-8
18:33:13:311342,6,3,26,-3,-2,-2,-43,-34
18:33:13:319614,6,3,26,-3,-2,-2,-43,-34
18:33:13:320343,-18,-5,-17,-5,-2,-1,39,-81
18:33:13:326328,11,-10,-26,-14,-10,0,48,6
18:33:13:342114,11,-10,-26,-14,-10,0,48,6
18:33:13:342866,-32,42,-17,1,2,-3,-18,37
18:33:13:348848,10,-10,-1,7,3,-3,-26,14
18:33:13:364604,10,-10,-1,7,3,-3,-26,14
18:33:13:365490,-29,6,4,1,-3,-2,-16,24
18:33:13:371350,26,-1,-40,-21,-6,-14,-66,-59
18:33:13:379634,26,-1,-40,-21,-6,-14,-66,-59
18:33:13:380371,3,-11,0,-3,-3,6,-1,26
18:33:13:386333,35,-33,6,-1,-3,-12,-65,34
18:33:13:402116,35,-33,6,-1,-3,-12,-65,34
18:33:13:402847,-18,-17,10,7,3,7,38,10
18:33:13:408865,-1,17,-11,0,0,3,-4,6
18:33:13:424640,-1,17,-11,0,0,3,-4,6
18:33:13:425363,-3,-2,0,0,6,-2,-1,-16
18:33:13:431348,-4,10,-7,-2,5,3,34,0
18:33:13:439585,-4,10,-7,-2,5,3,34,0
18:33:13:440325,-35,-16,3,-3,-3,4,13,-43
18:33:13:446345,-45,21,37,9,0,3,34,-29
18:33:13:462127,-45,21,37,9,0,3,34,-29
18:33:13:463007,23,-6,-13,-5,-4,-8,5,84
18:33:13:468846,22,-60,-17,3,0,-8,21,16
18:33:13:485106,22,-60,-17,3,0,-8,21,16
18:33:13:485858,-39,-22,8,-1,1,0,-23,12
18:33:13:491364,14,-13,0,-5,-4,7,9,-16
18:33:13:499619,14,-13,0,-5,-4,7,9,-16
18:33:13:500361,0,-10,7,-1,-1,-4,-42,-44
18:33:13:506345,-1,39,-2,-3,-2,-2,24,-10
18:33:13:522118,-1,39,-2,-3,-2,-2,24,-10
18:33:13:522850,10,30,18,12,4,-1,41,1
18:33:13:528865,-44,2,13,7,-2,-6,-7,-92
18:33:13:544620,-44,2,13,7,-2,-6,-7,-92
18:33:13:545349,32,8,-12,-7,-3,-1,21,-18
18:33:13:551347,7,-49,-31,-4,-1,-3,-21,22
18:33:13:559609,7,-49,-31,-4,-1,-3,-21,22
18:33:13:560508,-39,-17,-6,-4,-5,-4,-16,-16
18:33:13:566368,-12,34,18,1,1,16,42,17
18:33:13:582104,-12,34,18,1,1,16,42,17
18:33:13:582857,69,-22,-1,-2,-1,0,-19,16
18:33:13:588851,33,6,-4,-2,-1,3,33,38
18:33:13:604606,33,6,-4,-2,-1,3,33,38
18:33:13:605346,21,-11,-41,-11,-2,-4,-5,4
18:33:13:611351,-22,-5,30,3,-4,1,18,17
18:33:13:619754,-22,-5,30,3,-4,1,18,17
18:33:13:620367,-54,8,-30,-2,0,-9,-63,-80
18:33:13:626390,-55,-9,-10,-1,-2,-1,-2,3
18:33:13:642517,-55,-9,-10,-1,-2,-1,-2,3
18:33:13:649473,-3,17,11,1,-1,7,53,14
18:33:13:650345,-20,0,11,3,8,1,-38,9
18:33:13:664591,-20,0,11,3,8,1,-38,9
18:33:13:665344,-1,-14,-10,3,5,-1,-4,-14
18:33:13:671340,-12,-18,-21,-11,-7,-6,23,13
18:33:13:680215,-12,-18,-21,-11,-7,-6,23,13
18:33:13:681079,17,15,-4,-7,-7,1,16,-16
18:33:13:686383,27,-14,18,2,1,-4,-13,11
18:33:13:702118,27,-14,18,2,1,-4,-13,11
18:33:13:702835,-6,-5,43,4,-4,-1,20,11
18:33:13:708880,-2,20,-7,0,-1,-7,-39,-18
18:33:13:724597,-2,20,-7,0,-1,-7,-39,-18
18:33:13:725366,-14,-23,-6,3,1,-6,-32,8
18:33:13:731347,26,27,4,4,4,5,19,-63
18:33:13:739611,26,27,4,4,4,5,19,-63
18:33:13:740369,-6,11,18,-1,1,7,4,-18
18:33:13:746374,-17,-21,-31,11,1,-1,-4,4
18:33:13:762130,-17,-21,-31,11,1,-1,-4,4
18:33:13:762843,19,-6,-3,-7,-4,-2,-20,18
18:33:13:768845,19,8,13,6,4,1,9,30
18:33:13:784624,19,8,13,6,4,1,9,30
18:33:13:785335,-13,5,-2,10,0,10,99,-21
18:33:13:791373,-18,27,1,-4,-2,0,-8,1
18:33:13:799610,-18,27,1,-4,-2,0,-8,1
18:33:13:800355,-9,19,4,-1,1,1,23,39
18:33:13:822742,-13,-25,-5,1,0,-4,17,-32
18:33:13:823487,-13,-25,-5,1,0,-4,17,-32
18:33:13:824373,-35,13,3,2,-2,-3,-21,-17
18:33:13:828884,3,-14,13,-6,-2,-9,10,41
18:33:13:844652,3,-14,13,-6,-2,-9,10,41
18:33:13:845367,-7,-27,28,5,1,-5,3,14
18:33:13:851371,22,13,-16,-1,-4,-3,-20,23
18:33:13:859605,22,13,-16,-1,-4,-3,-20,23
18:33:13:860355,15,-4,-19,-15,-9,-8,-32,-12
18:33:13:873878,-21,1,7,-13,-6,-3,-7,-10
18:33:13:882112,-21,1,7,-13,-6,-3,-7,-10
18:33:13:882854,-12,-4,-7,-5,-5,-1,-13,-18
18:33:13:888867,5,-4,-13,-3,0,-4,-78,-2
18:33:13:904618,5,-4,-13,-3,0,-4,-78,-2
18:33:13:905374,18,-1,2,-2,1,5,80,57
18:33:13:911380,-2,4,-2,-4,-2,-6,-68,-33
18:33:13:919599,-2,4,-2,-4,-2,-6,-68,-33
18:33:13:920350,-1,33,11,3,-4,-6,-32,6
18:33:13:933853,-12,3,-11,-7,-3,3,23,4
18:33:13:942083,-12,3,-11,-7,-3,3,23,4
18:33:13:942822,-14,-5,-2,-7,-7,-3,-10,-8
18:33:13:948848,-1,-53,11,6,-1,-1,-4,-7
18:33:13:956479,-1,-53,11,6,-1,-1,-4,-7
18:33:13:963877,67,-30,-8,15,7,0,-15,9
18:33:13:971339,51,20,8,-4,-2,-3,14,33
18:33:13:979618,51,20,8,-4,-2,-3,14,33
18:33:13:980345,22,4,-11,-3,2,6,-37,0
18:33:13:993873,15,-13,7,21,15,6,13,23
18:33:14:2120,15,-13,7,21,15,6,13,23
18:33:14:2844,-8,58,18,-2,4,-2,-4,-3
18:33:14:8880,2,16,2,-13,-6,-1,5,-7
18:33:14:16376,2,16,2,-13,-6,-1,5,-7
18:33:14:23849,56,8,-14,8,8,2,-20,-15
18:33:14:31352,18,46,-22,-13,2,0,7,-8
18:33:14:39666,18,46,-22,-13,2,0,7,-8
18:33:14:40366,31,6,4,-3,-5,-1,13,31
18:33:14:53886,-15,-39,-22,-1,-5,-1,6,-9
18:33:14:62139,-15,-39,-22,-1,-5,-1,6,-9
18:33:14:62854,-31,3,7,-8,0,0,-6,2
18:33:14:68869,-21,-10,1,-8,-3,2,15,37
18:33:14:76377,-21,-10,1,-8,-3,2,15,37
18:33:14:83865,-77,0,6,0,-5,-7,-14,-7
18:33:14:100242,-5,-4,-34,-2,2,1,10,12
18:33:14:100978,-5,-4,-34,-2,2,1,10,12
18:33:14:101842,-62,-40,-21,-11,-5,0,30,14
18:33:14:113865,-10,15,37,5,-7,-1,-17,-37
18:33:14:122139,-10,15,37,5,-7,-1,-17,-37
18:33:14:122878,-4,-8,25,3,-6,-11,-34,-10
18:33:14:128882,57,26,15,-4,6,1,-1,6
18:33:14:136351,57,26,15,-4,6,1,-1,6
18:33:14:143842,7,12,13,-1,-7,-11,-81,-12
18:33:14:151362,-35,11,-27,-5,-8,-3,0,-15
18:33:14:159610,-35,11,-27,-5,-8,-3,0,-15
18:33:14:160344,23,-32,-35,-1,7,6,19,16
18:33:14:182727,-29,28,14,5,-2,2,33,9
18:33:14:183467,-29,28,14,5,-2,2,33,9
18:33:14:184338,23,-1,-3,-20,-7,-5,-29,-24
18:33:14:188859,55,7,-12,0,1,2,13,2
18:33:14:204604,55,7,-12,0,1,2,13,2
18:33:14:205345,49,34,14,-7,-1,4,20,6
18:33:14:211349,20,7,43,0,-8,-6,-25,-21
18:33:14:219587,20,7,43,0,-8,-6,-25,-21
18:33:14:220331,-44,-36,23,14,2,-2,2,-4
18:33:14:233860,-18,-23,10,11,-4,-3,-6,-9
18:33:14:242097,-18,-23,10,11,-4,-3,-6,-9
18:33:14:242880,-20,-21,8,3,2,-4,-45,-7
18:33:14:248869,-11,-42,-2,3,0,-7,-33,-18
18:33:14:256359,-11,-42,-2,3,0,-7,-33,-18
18:33:14:263863,2,2,-33,-8,-1,0,-15,-31
18:33:14:271360,-9,11,-15,-12,-6,-2,7,-6
18:33:14:279611,-9,11,-15,-12,-6,-2,7,-6
18:33:14:280340,32,-31,5,-4,1,1,30,16
18:33:14:293900,-24,7,10,3,2,-4,40,-8
18:33:14:302096,-24,7,10,3,2,-4,40,-8
18:33:14:302857,-7,1,-5,7,-3,-7,-10,-6
18:33:14:308849,-6,-14,-26,-19,-7,-8,-65,21
18:33:14:316333,-6,-14,-26,-19,-7,-8,-65,21
18:33:14:323843,-29,4,-27,0,-3,2,56,2
18:33:14:331368,4,30,13,12,1,-2,-7,4
18:33:14:340225,4,30,13,12,1,-2,-7,4
18:33:14:341007,-31,-57,-37,-16,-8,-3,-18,-28
18:33:14:353855,-36,-11,23,17,7,13,-6,-12
18:33:14:362126,-36,-11,23,17,7,13,-6,-12
18:33:14:362863,-5,78,18,6,5,4,-17,-71
18:33:14:368853,-20,6,-4,-2,-4,-1,56,-3
18:33:14:376484,-20,6,-4,-2,-4,-1,56,-3
18:33:14:383845,0,1,7,4,-2,-3,20,48
18:33:14:391364,0,9,-13,2,-1,-4,-15,-5
18:33:14:399602,0,9,-13,2,-1,-4,-15,-5
18:33:14:400344,-34,13,10,-1,-3,5,36,5
18:33:14:413878,-3,-53,-8,-2,4,-4,-18,-3
18:33:14:422136,-3,-53,-8,-2,4,-4,-18,-3
18:33:14:422869,41,-15,7,18,5,4,6,8
18:33:14:428889,-9,12,6,-7,-5,-1,-1,2
18:33:14:436466,-9,12,6,-7,-5,-1,-1,2
18:33:14:443857,22,9,-1,-8,1,1,-12,-6
18:33:14:451360,23,-16,-10,-4,3,3,49,5
18:33:14:459616,23,-16,-10,-4,3,3,49,5
18:33:14:460359,14,10,1,1,5,6,31,20
18:33:14:482737,26,16,6,-2,3,1,-50,8
18:33:14:483608,26,16,6,-2,3,1,-50,8
18:33:14:484344,14,15,27,-4,3,0,-7,-10
18:33:14:488869,-11,6,8,-2,-7,-2,12,42
18:33:14:504630,-11,6,8,-2,-7,-2,12,42
18:33:14:505379,-15,12,-18,-6,-5,-1,5,16
18:33:14:511391,-4,14,25,4,-2,0,0,-21
18:33:14:519613,-4,14,25,4,-2,0,0,-21
18:33:14:520357,-10,-1,1,-3,-6,-4,0,9
18:33:14:542724,-2,-5,-13,3,-2,0,-17,8
18:33:14:543589,-2,-5,-13,3,-2,0,-17,8
18:33:14:544399,-68,2,19,13,2,1,16,3
18:33:14:548892,-8,-58,-9,-4,1,0,32,-2
18:33:14:564594,-8,-58,-9,-4,1,0,32,-2
18:33:14:565385,17,6,8,-1,0,-6,-23,19
18:33:14:571358,26,12,-19,-9,-4,-3,-3,-14
18:33:14:579612,26,12,-19,-9,-4,-3,-3,-14
18:33:14:580351,22,-8,-21,-2,2,1,18,-6
18:33:14:593881,13,-33,-18,-2,-1,-1,-14,-11
18:33:14:602108,13,-33,-18,-2,-1,-1,-14,-11
18:33:14:602843,-16,24,23,4,-2,-2,-8,-12
18:33:14:608865,-58,-45,7,-7,-6,-3,-21,7
18:33:14:616471,-58,-45,7,-7,-6,-3,-21,7
18:33:14:623889,17,5,-3,-3,0,-2,-8,2
18:33:14:631354,-9,-9,-4,4,2,1,-15,8
18:33:14:639631,-9,-9,-4,4,2,1,-15,8
18:33:14:640390,-18,31,0,-1,1,7,65,-89
18:33:14:653845,15,16,-15,-3,3,0,-26,8
18:33:14:662144,15,16,-15,-3,3,0,-26,8
18:33:14:662851,-65,-18,-1,3,2,1,-17,14
18:33:14:668857,-26,20,-7,4,0,-5,-5,-39
18:33:14:684614,-26,20,-7,4,0,-5,-5,-39
18:33:14:685343,41,-12,-16,2,-1,-4,-17,27
18:33:14:691347,14,74,23,3,2,1,-4,17
18:33:14:699598,14,74,23,3,2,1,-4,17
18:33:14:700363,28,-19,5,-14,-1,-12,-78,8
18:33:14:713872,2,-17,14,14,2,-4,7,-20
18:33:14:722160,2,-17,14,14,2,-4,7,-20
18:33:14:722902,29,44,16,3,-6,5,23,-27
18:33:14:736356,-51,12,11,-15,-10,-7,12,-10
18:33:14:744665,-51,12,11,-15,-10,-7,12,-10
18:33:14:745415,-74,-19,-7,-6,-7,-10,-29,55
18:33:14:751362,3,-1,-12,-3,0,5,46,-13
18:33:14:759029,3,-1,-12,-3,0,5,46,-13
18:33:14:774513,-4,-1,-5,-1,0,-3,-40,-11
18:33:14:775383,28,3,-18,-10,-8,-5,83,11
18:33:14:782120,28,3,-18,-10,-8,-5,83,11
18:33:14:782852,34,-43,-36,-2,4,2,24,15
18:33:14:796361,42,-20,-32,-7,3,-1,-41,-14
18:33:14:804639,42,-20,-32,-7,3,-1,-41,-14
18:33:14:805386,46,-9,6,-2,-9,-1,13,-3
18:33:14:811389,-55,24,-5,5,3,-2,-25,2
18:33:14:818986,-55,24,-5,5,3,-2,-25,2
18:33:14:826395,0,4,-8,1,2,12,60,4
18:33:14:833851,11,-12,9,4,5,0,-49,0
18:33:14:842177,11,-12,9,4,5,0,-49,0
18:33:14:842904,-18,-6,-9,-2,-2,0,3,46
18:33:14:856375,6,-1,-1,1,2,5,-8,6
18:33:14:864621,6,-1,-1,1,2,5,-8,6
18:33:14:865388,66,-34,2,-3,-2,-5,-33,-33
18:33:14:871388,12,-22,-23,-14,-5,-11,-60,-23
18:33:14:879010,12,-22,-23,-14,-5,-11,-60,-23
18:33:14:886361,4,22,2,-15,-9,-1,6,-6
18:33:14:893873,-24,-21,18,0,-8,-6,-19,-7
18:33:14:902139,-24,-21,18,0,-8,-6,-19,-7
18:33:14:902864,-34,-6,-1,7,3,-2,18,-4
18:33:14:916368,19,15,-21,-15,-4,-1,16,-28
18:33:14:932737,19,15,-21,-15,-4,-1,16,-28
18:33:14:933610,-33,4,-2,-1,0,8,74,-16
18:33:14:934361,15,34,30,12,2,0,36,-5
18:33:14:938991,15,34,30,12,2,0,36,-5
18:33:14:946364,-1,15,6,10,2,-9,-28,-15
18:33:14:953850,-3,-27,-12,0,4,7,2,-66
18:33:14:961995,-3,-27,-12,0,4,7,2,-66
18:33:14:962855,17,15,0,5,3,3,-50,16
18:33:14:976386,25,24,-9,3,0,-2,37,67
18:33:14:984619,25,24,-9,3,0,-2,37,67
18:33:14:985371,41,-2,-24,-2,0,-5,25,3
18:33:14:991355,8,24,-1,-5,-6,-6,-20,12
18:33:14:998973,8,24,-1,-5,-6,-6,-20,12
18:33:15:6363,39,50,2,-2,-1,6,45,8
18:33:15:13845,0,-25,-15,-11,-6,4,26,-56
18:33:15:22125,0,-25,-15,-11,-6,4,26,-56
18:33:15:22889,-24,0,3,4,-2,-7,-38,-3
18:33:15:36369,13,-10,-9,-6,-2,4,86,49
18:33:15:52743,13,-10,-9,-6,-2,4,86,49
18:33:15:53623,-56,-40,14,-6,-3,-4,3,-17
18:33:15:54406,-32,46,25,6,0,-1,20,3
18:33:15:59024,-32,46,25,6,0,-1,20,3
18:33:15:66371,12,-14,-9,-7,-2,-3,-7,10
18:33:15:73857,18,-76,-37,-15,-3,2,27,47
18:33:15:81995,18,-76,-37,-15,-3,2,27,47
18:33:15:82866,-57,-21,-8,0,1,1,-34,-37
18:33:15:96383,10,-22,7,6,2,5,1,15
18:33:15:104608,10,-22,7,6,2,5,1,15
18:33:15:105368,16,-14,-36,-19,-6,7,99,69
18:33:15:111364,-9,1,11,10,3,-8,-75,31
18:33:15:119003,-9,1,11,10,3,-8,-75,31
18:33:15:126367,0,-28,10,2,-2,-10,-67,-4
18:33:15:133860,-31,5,30,7,-1,1,27,-12
18:33:15:142120,-31,5,30,7,-1,1,27,-12
18:33:15:142892,33,2,9,7,6,-1,-31,5
18:33:15:156375,18,16,10,6,2,-1,-51,9
18:33:15:164367,18,16,10,6,2,-1,-51,9
18:33:15:173105,31,23,1,-3,0,7,1,-40
18:33:15:179485,-2,25,-6,3,3,0,14,-64
18:33:15:180356,-2,25,-6,3,3,0,14,-64
18:33:15:186373,-15,-21,-17,9,6,1,-2,-50
18:33:15:193884,7,-17,-20,-8,-3,-1,-5,10
18:33:15:209632,7,-17,-20,-8,-3,-1,-5,10
18:33:15:210401,31,-7,-2,-3,-6,3,75,26
18:33:15:216357,-12,-55,-2,0,-1,-6,24,7
18:33:15:224653,-12,-55,-2,0,-1,-6,24,7
18:33:15:225372,25,23,-17,-2,1,-6,-51,16
18:33:15:231367,-11,-4,45,13,6,2,-10,39
18:33:15:238861,-11,-4,45,13,6,2,-10,39
18:33:15:246369,-21,21,-10,6,-1,-4,10,12
18:33:15:253883,-13,-7,-11,-5,2,-5,-58,-24
18:33:15:262146,-13,-7,-11,-5,2,-5,-58,-24
18:33:15:262868,-23,-1,20,4,2,-5,-51,0
18:33:15:276395,22,16,8,-1,-6,-10,2,-15
18:33:15:284615,22,16,8,-1,-6,-10,2,-15
18:33:15:285403,-10,-12,-5,-3,-3,-1,-11,-26
18:33:15:291433,-29,7,8,0,-2,-2,9,5
18:33:15:298898,-29,7,8,0,-2,-2,9,5
18:33:15:306376,13,-21,4,3,3,5,31,34
18:33:15:313867,-57,-1,24,10,2,12,31,56
18:33:15:322123,-57,-1,24,10,2,12,31,56
18:33:15:322881,9,16,4,-6,1,0,-74,30
18:33:15:336360,25,-7,-49,-13,-10,4,85,14
18:33:15:344646,25,-7,-49,-13,-10,4,85,14
18:33:15:345383,-17,-17,11,8,-2,-3,-7,2
18:33:15:351385,10,-3,2,-11,-4,-10,-65,-18
18:33:15:358995,10,-3,2,-11,-4,-10,-65,-18
18:33:15:366390,-9,-39,2,-1,-1,-2,22,-7
18:33:15:373884,44,16,-16,-4,0,-6,-43,-25
18:33:15:382112,44,16,-16,-4,0,-6,-43,-25
18:33:15:382886,16,20,-2,-9,-2,-3,31,36
18:33:15:396391,-15,-42,-13,-4,-1,4,23,0
18:33:15:404636,-15,-42,-13,-4,-1,4,23,0
18:33:15:405374,-9,6,18,-3,-6,-3,-25,-11
18:33:15:411353,19,12,12,-6,-5,-5,-35,-8
18:33:15:418859,19,12,12,-6,-5,-5,-35,-8
18:33:15:426384,16,-1,-1,-9,-4,-3,64,7
18:33:15:433867,-23,41,28,16,7,0,-41,-44
18:33:15:442118,-23,41,28,16,7,0,-41,-44
18:33:15:442867,17,7,-17,-7,-5,-1,-13,1
18:33:15:456386,-7,3,-29,-7,2,-1,-4,11
18:33:15:464626,-7,3,-29,-7,2,-1,-4,11
18:33:15:465372,-32,-9,-11,1,-3,-4,-5,-77
18:33:15:471371,-1,1,13,0,-4,4,100,8
18:33:15:487118,-1,1,13,0,-4,4,100,8
18:33:15:487865,6,28,12,1,3,-6,-55,-2
18:33:15:493901,4,-19,-2,-1,-2,2,-47,-23
18:33:15:502146,4,-19,-2,-1,-2,2,-47,-23
18:33:15:502869,-6,-50,-25,-8,-3,0,-4,6
18:33:15:525269,14,4,4,6,0,-4,18,16
18:33:15:526041,14,4,4,6,0,-4,18,16
18:33:15:526905,-21,2,-11,-2,3,2,-47,-81
18:33:15:531381,31,-26,-9,8,0,-6,-54,21
18:33:15:539018,31,-26,-9,8,0,-6,-54,21
18:33:15:546357,-13,-8,12,9,3,3,42,17
18:33:15:553884,-25,23,4,2,0,-3,-44,-41
18:33:15:562162,-25,23,4,2,0,-3,-44,-41
18:33:15:562864,-15,35,12,7,-1,-1,-1,25
18:33:15:576356,-6,3,8,1,1,9,115,8
18:33:15:584607,-6,3,8,1,1,9,115,8
18:33:15:585362,-10,3,3,-4,2,2,-35,-3
18:33:15:591371,79,-1,-9,-3,-6,-5,29,63
18:33:15:598984,79,-1,-9,-3,-6,-5,29,63
18:33:15:606387,32,36,13,-1,1,6,30,55
18:33:15:613874,14,-5,-27,-18,-4,-3,-23,26
18:33:15:622116,14,-5,-27,-18,-4,-3,-23,26
18:33:15:622865,34,-7,13,3,-5,-10,-37,3
18:33:15:636381,-52,64,43,10,11,17,5,-1
18:33:15:644641,-52,64,43,10,11,17,5,-1
18:33:15:645380,-32,-24,-50,-14,0,-4,2,-10
18:33:15:651376,-9,-31,-8,6,-2,1,-23,-22
18:33:15:658884,-9,-31,-8,6,-2,1,-23,-22
18:33:15:666384,6,-10,7,0,-7,-8,56,34
18:33:15:673879,5,-26,-6,-7,-5,-2,-17,-8
18:33:15:681378,5,-26,-6,-7,-5,-2,-17,-8
18:33:15:688861,-10,-9,12,9,-4,-5,-11,9
18:33:15:696384,54,34,16,1,-1,-3,-27,7
18:33:15:704620,54,34,16,1,-1,-3,-27,7
18:33:15:705358,12,-19,-3,-3,-1,2,3,-50
18:33:15:719488,-18,-21,-5,-4,-2,-5,-7,-30
18:33:15:720361,-18,-21,-5,-4,-2,-5,-7,-30
18:33:15:726375,-3,18,-2,5,2,5,20,-9
18:33:15:733887,-14,13,1,-10,-6,-6,-50,-20
18:33:15:741416,-14,13,1,-10,-6,-6,-50,-20
18:33:15:756997,-12,2,22,0,1,1,-1,-24
18:33:15:757868,-33,17,12,7,7,5,20,13
18:33:15:764634,-33,17,12,7,7,5,20,13
18:33:15:765379,5,1,-23,-23,-7,-1,-6,10
18:33:15:779525,-27,-11,0,-5,-8,-17,0,11
18:33:15:780384,-27,-11,0,-5,-8,-17,0,11
18:33:15:786354,-1,10,2,5,6,6,17,0
18:33:15:793890,24,-9,-23,0,1,-2,-30,15
18:33:15:801369,24,-9,-23,0,1,-2,-30,15
18:33:15:808866,3,-28,-39,-6,-3,-5,-10,-16
18:33:15:816371,-21,-20,23,-1,-3,-2,-20,-3
18:33:15:824641,-21,-20,23,-1,-3,-2,-20,-3
18:33:15:825364,9,7,29,10,-1,-2,18,-35
18:33:15:839526,11,-8,-7,0,-1,-2,50,68
18:33:15:840386,11,-8,-7,0,-1,-2,50,68
18:33:15:846391,17,-2,11,-3,-5,-3,-11,41
18:33:15:853892,-30,13,4,-4,2,2,-23,13
18:33:15:861375,-30,13,4,-4,2,2,-23,13
18:33:15:868873,-20,4,1,0,-3,-3,-29,11
18:33:15:876378,-3,-27,-33,-9,0,0,-27,-28
18:33:15:884620,-3,-27,-33,-9,0,0,-27,-28
18:33:15:885363,-22,-19,2,6,4,1,-11,13
18:33:15:899662,-5,-10,-6,1,0,-8,-28,2
18:33:15:900371,-5,-10,-6,1,0,-8,-28,2
18:33:15:906380,-3,4,-2,-4,0,1,7,26
18:33:15:913875,5,7,-47,-17,-7,-3,21,-27
18:33:15:921374,5,7,-47,-17,-7,-3,21,-27
18:33:15:928887,5,0,10,4,0,0,40,-13
18:33:15:936365,13,25,-2,0,-3,-1,44,-3
18:33:15:944666,13,25,-2,0,-3,-1,44,-3
18:33:15:945391,-29,12,-4,9,4,-3,-52,20
18:33:15:959669,-2,5,-32,-15,-4,-6,-31,1
18:33:15:960399,-2,5,-32,-15,-4,-6,-31,1
18:33:15:966368,16,-2,6,-5,-2,3,86,5
18:33:15:973896,4,4,29,14,5,1,-1,-23
18:33:15:981504,4,4,29,14,5,1,-1,-23
18:33:15:988870,14,12,-12,-8,-5,-9,2,38
18:33:15:996379,-4,-22,17,7,2,0,8,-26
18:33:16:4637,-4,-22,17,7,2,0,8,-26
18:33:16:5352,3,6,-6,-8,-1,-1,-30,-3
18:33:16:19487,8,-12,-14,5,1,7,40,-7
18:33:16:20358,8,-12,-14,5,1,7,40,-7
18:33:16:26358,12,19,4,-5,1,4,24,-7
18:33:16:33864,37,25,-3,0,-3,-13,22,19
18:33:16:41400,37,25,-3,0,-3,-13,22,19
18:33:16:48860,3,2,16,1,-5,-11,-64,-42
18:33:16:56370,-15,9,-10,8,5,6,-2,32
18:33:16:64633,-15,9,-10,8,5,6,-2,32
18:33:16:65360,6,1,2,23,10,0,-28,12
18:33:16:79502,-12,-28,8,2,-1,-1,-30,-15
18:33:16:80353,-12,-28,8,2,-1,-1,-30,-15
18:33:16:86377,-12,-12,-7,-5,-4,5,-3,-23
18:33:16:93918,2,-9,-1,-10,-2,0,17,13
18:33:16:101401,2,-9,-1,-10,-2,0,17,13
18:33:16:108887,-47,-40,-19,-8,-5,-3,-25,-13
18:33:16:116376,12,-16,12,-4,-6,-4,-37,-12
18:33:16:124658,12,-16,12,-4,-6,-4,-37,-12
18:33:16:125400,7,6,-2,0,-5,-5,10,-33
18:33:16:139512,7,4,-17,9,10,6,41,-74
18:33:16:140392,7,4,-17,9,10,6,41,-74
18:33:16:146357,11,-20,-4,-3,-4,3,-25,8
18:33:16:153901,11,20,-3,-9,-5,12,53,64
18:33:16:161370,11,20,-3,-9,-5,12,53,64
18:33:16:168885,-42,38,-21,-2,1,-3,-27,11
18:33:16:176428,-27,-8,-7,-9,-4,-4,-25,-2
18:33:16:184638,-27,-8,-7,-9,-4,-4,-25,-2
18:33:16:185355,67,55,35,4,3,4,19,22
18:33:16:199650,3,2,-4,-3,-2,-6,15,54
18:33:16:200386,3,2,-4,-3,-2,-6,15,54
18:33:16:206382,-51,-12,26,2,-5,-3,12,15
18:33:16:213883,0,-10,16,4,-1,-13,-108,-2
18:33:16:221517,0,-10,16,4,-1,-13,-108,-2
18:33:16:228901,-29,-66,-7,-2,-2,-8,-40,-8
18:33:16:236397,-4,-6,-12,-7,-2,1,-28,-10
18:33:16:244659,-4,-6,-12,-7,-2,1,-28,-10
18:33:16:245402,-40,-39,-11,-6,0,-4,12,-47
18:33:16:259614,20,11,36,1,-4,1,-12,-30
18:33:16:260372,20,11,36,1,-4,1,-12,-30
18:33:16:266379,22,-35,-33,-10,-5,1,-4,-27
18:33:16:273877,-4,7,18,1,1,1,19,-5
18:33:16:281382,-4,7,18,1,1,1,19,-5
18:33:16:288887,-22,26,-1,2,1,-2,14,15
18:33:16:296386,-11,-5,1,1,-7,-3,32,-15
18:33:16:312174,-11,-5,1,1,-7,-3,32,-15
18:33:16:312887,52,47,13,5,-2,0,21,39
18:33:16:319496,-1,-2,8,10,6,2,-21,-8
18:33:16:320367,-1,-2,8,10,6,2,-21,-8
18:33:16:326370,15,5,10,-1,2,0,4,9
18:33:16:333903,5,-23,5,-3,-3,2,-5,16
18:33:16:341402,5,-23,5,-3,-3,2,-5,16
18:33:16:348891,-4,10,9,10,4,3,22,20
18:33:16:356380,-34,10,-16,-2,7,-9,-66,-7
18:33:16:364635,-34,10,-16,-2,7,-9,-66,-7
18:33:16:365377,3,38,14,-5,-1,2,-17,-30
18:33:16:379512,-7,7,6,5,3,3,9,-18
18:33:16:380375,-7,7,6,5,3,3,9,-18
18:33:16:386406,-6,-37,-7,-1,-1,-2,1,12
18:33:16:393884,16,8,3,5,-4,2,34,2
18:33:16:401373,16,8,3,5,-4,2,34,2
18:33:16:408879,15,-30,-1,-2,-5,2,16,-3
18:33:16:416365,-57,-33,6,1,-2,-3,7,-5
18:33:16:424641,-57,-33,6,1,-2,-3,7,-5
18:33:16:425397,-13,2,0,-6,0,-8,-68,-1
18:33:16:439495,4,-25,-35,1,4,2,-13,-5
18:33:16:440372,4,-25,-35,1,4,2,-13,-5
18:33:16:446362,23,5,-57,-15,-3,-10,-23,-62
18:33:16:462055,37,29,17,2,-5,-11,21,1
18:33:16:462890,37,29,17,2,-5,-11,21,1
18:33:16:468876,5,-9,2,5,3,1,-10,5
18:33:16:476428,-55,1,-17,-6,-5,1,-19,-7
18:33:16:484612,-55,1,-17,-6,-5,1,-19,-7
18:33:16:485357,-29,-9,-9,-7,-5,-7,3,-29
18:33:16:499522,26,29,13,0,0,4,7,4
18:33:16:500385,26,29,13,0,0,4,7,4
18:33:16:506393,-1,11,33,5,-4,11,94,52
18:33:16:513874,16,9,-32,-8,-2,-1,8,-9
18:33:16:521378,16,9,-32,-8,-2,-1,8,-9
18:33:16:528916,1,-34,1,-1,0,-1,-8,-14
18:33:16:536386,-10,-13,-6,-9,-2,6,39,-39
18:33:16:544645,-10,-13,-6,-9,-2,6,39,-39
18:33:16:545402,-90,40,26,4,0,2,-3,-4
18:33:16:559508,8,16,12,13,12,-1,-19,2
18:33:16:560384,8,16,12,13,12,-1,-19,2
18:33:16:566376,38,26,-34,-10,-5,-3,2,6
18:33:16:573885,10,0,17,7,9,3,5,-1
18:33:16:581377,10,0,17,7,9,3,5,-1
18:33:16:588882,4,-48,-24,-9,0,1,3,12
18:33:16:596394,19,-35,-8,1,-8,-2,-17,-34
18:33:16:604640,19,-35,-8,1,-8,-2,-17,-34
18:33:16:605399,-90,-7,-47,-11,2,-2,-20,3
18:33:16:619623,8,17,26,-1,3,-1,9,26
18:33:16:620377,8,17,26,-1,3,-1,9,26
18:33:16:633895,43,10,6,-1,-4,2,28,3
18:33:16:642145,2,-23,11,-23,-7,-7,3,26
18:33:16:642888,2,-23,11,-23,-7,-7,3,26
18:33:16:648886,35,-10,34,15,2,4,-3,4
18:33:16:656384,-2,24,35,-5,0,-1,-13,1
18:33:16:663871,-2,24,35,-5,0,-1,-13,1
18:33:16:671397,13,-8,6,8,-5,-5,4,12
18:33:16:679626,-76,-31,-17,0,-5,5,63,15
18:33:16:680373,-76,-31,-17,0,-5,5,63,15
18:33:16:686388,-13,-26,3,4,-1,-2,23,32
18:33:16:702150,19,-11,-12,-2,-9,-9,-31,-2
18:33:16:702877,19,-11,-12,-2,-9,-9,-31,-2
18:33:16:708896,13,0,29,-5,1,-2,-34,23
18:33:16:716385,10,11,-11,2,-1,1,-6,18
18:33:16:723879,10,11,-11,2,-1,1,-6,18
18:33:16:731371,26,93,49,2,-11,-2,-6,-65
18:33:16:739491,22,8,-23,1,0,5,18,-15
18:33:16:740371,22,8,-23,1,0,5,18,-15
18:33:16:746382,44,87,57,13,11,5,10,0
18:33:16:762023,-17,10,-4,-4,-1,6,30,25
18:33:16:762875,-17,10,-4,-4,-1,6,30,25
18:33:16:768862,3,-44,-26,-8,-3,-4,4,37
18:33:16:776368,22,-12,-9,-4,1,-3,-24,-10
18:33:16:783878,22,-12,-9,-4,1,-3,-24,-10
18:33:16:791366,-12,-28,-44,7,1,-6,-27,-13
18:33:16:799503,49,14,-5,-4,-2,-6,-16,-25
18:33:16:800375,49,14,-5,-4,-2,-6,-16,-25
18:33:16:806419,-12,-59,-27,0,0,-4,-19,-18
18:33:16:822026,2,-7,-10,-4,-3,-3,-10,31
18:33:16:822893,2,-7,-10,-4,-3,-3,-10,31
18:33:16:828900,11,19,-11,-8,2,1,-6,-22
18:33:16:836378,-23,9,12,5,-4,-2,-13,5
18:33:16:843919,-23,9,12,5,-4,-2,-13,5
18:33:16:851379,-4,-41,-20,-18,-6,-7,-3,14
18:33:16:867752,-27,42,9,2,-5,-6,47,-12
18:33:16:868496,-27,42,9,2,-5,-6,47,-12
18:33:16:869365,-51,-24,8,7,-1,1,18,37
18:33:16:882010,-2,-36,-22,7,1,3,9,-55
18:33:16:882892,-2,-36,-22,7,1,3,9,-55
18:33:16:888887,-45,78,27,5,5,3,1,16
18:33:16:896378,-9,-22,-20,-26,-9,-6,-30,19
18:33:16:903892,-9,-22,-20,-26,-9,-6,-30,19
18:33:16:911382,16,-24,-24,-10,2,1,-12,-23
18:33:16:919512,12,-17,-6,-2,-4,-4,-18,11
18:33:16:920390,12,-17,-6,-2,-4,-4,-18,11
18:33:16:926399,-31,16,13,3,-3,-6,-24,-41
18:33:16:942012,38,-33,-8,-3,-6,1,40,0
18:33:16:942857,38,-33,-8,-3,-6,1,40,0
18:33:16:948884,4,-6,-42,-9,1,4,-7,3
18:33:16:956412,-12,28,-5,0,0,-7,-29,-17
18:33:16:963895,-12,28,-5,0,0,-7,-29,-17
18:33:16:971393,33,7,-16,-3,0,10,35,-17
18:33:16:979654,-31,5,15,-4,4,7,-20,-45
18:33:16:980386,-31,5,15,-4,4,7,-20,-45
18:33:16:986393,-14,5,14,7,3,-2,-21,-10
18:33:17:2017,7,-8,9,-9,-13,-8,-31,20
18:33:17:2889,7,-8,9,-9,-13,-8,-31,20
18:33:17:8884,12,-4,-32,-9,-2,1,10,28
18:33:17:16379,-29,19,-1,7,3,-1,28,20
18:33:17:23910,-29,19,-1,7,3,-1,28,20
18:33:17:31387,15,3,-9,-1,-6,-10,-6,-3
18:33:17:39635,17,21,0,6,8,9,7,-27
18:33:17:40389,17,21,0,6,8,9,7,-27
18:33:17:46386,-23,-31,15,4,-1,-1,2,39
18:33:17:62169,7,-18,-6,-6,-6,-14,-56,6
18:33:17:62881,7,-18,-6,-6,-6,-14,-56,6
18:33:17:68880,-58,-17,25,0,-2,0,9,-5
18:33:17:76395,6,-37,-26,7,11,-2,-11,13
18:33:17:84015,6,-37,-26,7,11,-2,-11,13
18:33:17:108379,20,2,-1,12,6,-3,1,-19
18:33:17:109289,24,4,1,0,-4,1,13,14
18:33:17:110021,24,4,1,0,-4,1,13,14
18:33:17:110915,56,-33,1,-3,-2,-6,-11,-2
18:33:17:122019,-5,0,-21,3,4,3,20,-3
18:33:17:122878,-5,0,-21,3,4,3,20,-3
18:33:17:128916,31,-17,-49,-28,-11,-1,31,40
18:33:17:136403,25,-18,-7,-5,-6,-16,-74,-6
18:33:17:143905,25,-18,-7,-5,-6,-16,-74,-6
18:33:17:151397,-8,20,1,4,9,5,15,10
18:33:17:159635,-45,-12,18,18,6,6,-16,-16
18:33:17:160389,-45,-12,18,18,6,6,-16,-16
18:33:17:166389,10,-2,38,13,3,3,-2,4
18:33:17:182011,22,32,10,-5,-4,-3,17,11
18:33:17:182903,22,32,10,-5,-4,-3,17,11
18:33:17:188882,23,2,0,-9,-3,-1,6,-23
18:33:17:196429,-26,-20,-24,-7,-2,1,3,37
18:33:17:203886,-26,-20,-24,-7,-2,1,3,37
18:33:17:211438,40,1,-12,-14,-8,-2,-15,-30
18:33:17:219634,19,28,4,-11,-5,4,41,12
18:33:17:220364,19,28,4,-11,-5,4,41,12
18:33:17:226395,-39,-28,4,8,5,0,8,-5
18:33:17:242058,-19,22,36,8,2,5,14,-4
18:33:17:242912,-19,22,36,8,2,5,14,-4
18:33:17:248885,-80,14,5,4,-1,-5,-38,-53
18:33:17:256399,-75,5,5,1,-4,-3,23,-26
18:33:17:264031,-75,5,5,1,-4,-3,23,-26
18:33:17:271398,-1,-7,-30,-2,-5,-4,15,32
18:33:17:279504,23,-21,-5,-7,-5,3,-1,9
18:33:17:280367,23,-21,-5,-7,-5,3,-1,9
18:33:17:286385,-8,0,39,10,4,-4,-14,6
18:33:17:302167,-8,0,39,10,4,-4,-14,6
18:33:17:302885,13,-10,-49,-26,-2,-4,3,-23
18:33:17:308892,63,18,11,3,-1,6,47,48
18:33:17:324639,63,18,11,3,-1,6,47,48
18:33:17:325412,30,25,8,8,7,4,-10,-6
18:33:17:331383,-30,9,9,2,-3,-3,-11,-30
18:33:17:339652,-30,9,9,2,-3,-3,-11,-30
18:33:17:340371,-8,-18,-21,-12,0,-4,8,6
18:33:17:346392,41,21,0,4,-1,2,-18,16
18:33:17:362166,41,21,0,4,-1,2,-18,16
18:33:17:362867,-46,-14,20,1,-5,-3,-36,-17
18:33:17:368913,13,-6,0,8,6,5,30,14
18:33:17:384659,13,-6,0,8,6,5,30,14
18:33:17:385399,30,2,27,17,4,2,4,19
18:33:17:391409,-4,-1,-3,-3,-7,-6,-34,-19
18:33:17:399643,-4,-1,-3,-3,-7,-6,-34,-19
18:33:17:400376,-45,-37,9,13,8,0,13,-5
18:33:17:406402,-14,2,-17,-8,-4,-3,5,10
18:33:17:422780,-14,2,-17,-8,-4,-3,5,10
18:33:17:423524,3,16,-22,-14,-8,-6,-23,-13
18:33:17:428923,-7,16,-2,7,0,-4,-30,-10
18:33:17:444640,-7,16,-2,7,0,-4,-30,-10
18:33:17:445410,7,-6,14,4,-1,1,1,2
18:33:17:451389,-43,16,4,-4,-7,-4,10,-8
18:33:17:459669,-43,16,4,-4,-7,-4,10,-8
18:33:17:460414,-54,-24,-11,5,5,-1,-18,-34
18:33:17:466403,24,-17,10,-13,0,-1,9,-2
18:33:17:482143,24,-17,10,-13,0,-1,9,-2
18:33:17:482889,21,59,-13,1,5,5,5,1
18:33:17:488885,16,-21,-16,-2,4,6,7,-9
18:33:17:505020,16,-21,-16,-2,4,6,7,-9
18:33:17:512031,37,-2,-5,-4,-2,-8,-82,-28
18:33:17:512760,-8,-14,-5,-8,3,10,69,21
18:33:17:519631,-8,-14,-5,-8,3,10,69,21
18:33:17:520379,-57,-6,10,5,0,-4,2,22
18:33:17:526411,12,8,4,-2,-2,1,-11,0
18:33:17:542134,12,8,4,-2,-2,1,-11,0
18:33:17:542888,38,17,43,-2,-4,-1,19,21
18:33:17:548903,32,-27,-43,-9,-1,-2,-13,20
18:33:17:564532,32,-27,-43,-9,-1,-2,-13,20
18:33:17:565391,24,-31,1,-1,-10,2,80,17
18:33:17:571399,-27,-3,18,3,-4,-4,-1,-25
18:33:17:579655,-27,-3,18,3,-4,-4,-1,-25
18:33:17:580384,-22,-32,-9,-6,-5,-3,-2,-2
18:33:17:602770,-37,3,-23,0,-1,-6,-23,7
18:33:17:603514,-37,3,-23,0,-1,-6,-23,7
18:33:17:604391,24,3,4,-1,0,4,13,-10
18:33:17:608894,15,-31,6,8,1,-9,-54,-8
18:33:17:624626,15,-31,6,8,1,-9,-54,-8
18:33:17:625394,3,-13,-13,-3,2,-2,5,4
18:33:17:631389,35,-4,-5,5,-5,-1,9,-1
18:33:17:639508,35,-4,-5,5,-5,-1,9,-1
18:33:17:640419,-1,3,1,5,3,-10,-44,9
18:33:17:653910,-1,-5,-6,-7,1,-2,-11,-19
18:33:17:662186,-1,-5,-6,-7,1,-2,-11,-19
18:33:17:662909,13,27,14,1,-3,-12,-83,14
18:33:17:668912,7,13,28,-1,-4,-4,6,-11
18:33:17:684647,7,13,28,-1,-4,-4,6,-11
18:33:17:685387,-58,-49,-2,7,6,8,11,-21
18:33:17:691415,38,-38,-40,-5,3,3,18,-6
18:33:17:699640,38,-38,-40,-5,3,3,18,-6
18:33:17:700389,17,-24,31,1,-10,0,32,16
18:33:17:713895,-73,-14,-7,-4,-4,0,11,3
18:33:17:722131,-73,-14,-7,-4,-4,0,11,3
18:33:17:722885,24,-7,-48,-20,-4,0,17,-4
18:33:17:728910,16,26,32,6,0,-2,-8,10
18:33:17:744650,16,26,32,6,0,-2,-8,10
18:33:17:745408,0,36,18,-3,-1,5,39,2
18:33:17:751387,39,35,-7,-3,-1,4,18,-20
18:33:17:759684,39,35,-7,-3,-1,4,18,-20
18:33:17:760402,-33,27,-17,-7,-3,-3,-23,-56
18:33:17:773914,-8,11,11,-1,-1,-2,-3,35
18:33:17:782147,-8,11,11,-1,-1,-2,-3,35
18:33:17:782880,16,8,-5,-4,1,-2,4,38
18:33:17:796399,-21,-12,16,-3,-4,1,39,-9
18:33:17:804534,-21,-12,16,-3,-4,1,39,-9
18:33:17:805408,-47,-22,-19,-6,-11,4,62,-5
18:33:17:811396,-17,26,-6,-1,1,-1,-51,-2
18:33:17:819638,-17,26,-6,-1,1,-1,-51,-2
18:33:17:820381,25,6,17,11,7,5,5,1
18:33:17:833894,-13,52,-2,3,1,-2,-22,-6
18:33:17:842148,-13,52,-2,3,1,-2,-22,-6
18:33:17:842911,10,-36,-18,-8,-4,-18,-86,-3
18:33:17:848890,46,-15,7,-1,-2,-7,-49,-29
18:33:17:864534,46,-15,7,-1,-2,-7,-49,-29
18:33:17:865398,-12,36,1,3,5,9,27,6
18:33:17:880269,-13,-18,-37,-9,-4,-4,22,-17
18:33:17:881016,-13,-18,-37,-9,-4,-4,22,-17
18:33:17:881903,10,9,7,-1,3,1,60,24
18:33:17:893895,-22,24,9,1,0,8,-3,34
18:33:17:902024,-22,24,9,1,0,8,-3,34
18:33:17:902907,15,-7,-2,-4,0,-1,-34,29
18:33:17:908924,36,2,17,4,0,0,-10,-7
18:33:17:924677,36,2,17,4,0,0,-10,-7
18:33:17:925425,-10,-16,5,12,-2,-2,-5,2
18:33:17:931391,-43,-19,-3,-5,1,2,20,21
18:33:17:939535,-43,-19,-3,-5,1,2,20,21
18:33:17:940394,24,26,16,1,0,-18,-82,-12
18:33:17:953921,7,21,-21,-12,-5,-3,-1,19
18:33:17:962163,7,21,-21,-12,-5,-3,-1,19
18:33:17:962889,8,-17,-3,-11,-3,6,7,6
18:33:17:968902,3,-25,-10,-9,-4,-2,3,-10
18:33:17:984668,3,-25,-10,-9,-4,-2,3,-10
18:33:17:985427,6,23,6,1,-6,1,47,-20
18:33:17:991395,14,15,33,-2,-5,-3,38,13
18:33:17:999697,14,15,33,-2,-5,-3,38,13
18:33:18:406,-73,-18,-12,4,2,-8,-14,5
18:33:18:13935,-56,-26,-23,3,6,8,23,-8
18:33:18:22145,-56,-26,-23,3,6,8,23,-8
18:33:18:22946,45,-2,-5,-7,-5,3,22,1
18:33:18:28936,-8,35,1,11,6,-5,-25,-11
18:33:18:44648,-8,35,1,11,6,-5,-25,-11
18:33:18:45413,34,7,-2,-4,2,4,2,2
18:33:18:51425,51,-27,10,0,-5,-6,-16,4
18:33:18:59667,51,-27,10,0,-5,-6,-16,4
18:33:18:60414,-6,-4,-24,1,-4,-5,-26,37
18:33:18:73893,-74,-18,-54,-28,-8,-2,-4,24
18:33:18:82158,-74,-18,-54,-28,-8,-2,-4,24
18:33:18:82902,17,16,19,4,-1,-12,-97,-40
18:33:18:88899,-22,-10,12,12,4,13,65,-34
18:33:18:112782,-22,-10,12,12,4,13,65,-34
18:33:18:113517,-18,34,7,4,3,6,21,8
18:33:18:114420,10,57,40,14,4,-1,-17,-3
18:33:18:119662,10,57,40,14,4,-1,-17,-3
18:33:18:120416,11,-30,-30,6,10,0,15,-4
18:33:18:133893,73,-5,-12,-5,-1,0,2,11
18:33:18:142012,73,-5,-12,-5,-1,0,2,11
18:33:18:142898,28,1,1,-4,-9,-1,6,-4
18:33:18:148892,-34,-24,9,8,-1,-6,-36,-3
18:33:18:164523,-34,-24,9,8,-1,-6,-36,-3
18:33:18:165391,-23,-26,7,-2,0,-3,-26,19
18:33:18:171417,15,-25,2,-5,-3,-5,-9,0
18:33:18:179523,15,-25,2,-5,-3,-5,-9,0
18:33:18:180385,-42,-7,3,-2,1,2,-13,-40
18:33:18:193927,6,39,16,1,0,4,8,0
18:33:18:202022,6,39,16,1,0,4,8,0
18:33:18:202895,13,-39,8,10,4,4,23,12
18:33:18:208896,-5,-9,-15,-7,-5,-10,-21,-36
18:33:18:224530,-5,-9,-15,-7,-5,-10,-21,-36
18:33:18:225419,19,28,1,2,0,3,47,4
18:33:18:231401,-30,-30,37,20,8,2,6,21
18:33:18:239521,-30,-30,37,20,8,2,6,21
18:33:18:240399,8,17,8,-3,-5,1,21,-5
18:33:18:253906,-34,8,-7,-5,-4,0,-15,9
18:33:18:262015,-34,8,-7,-5,-4,0,-15,9
18:33:18:262880,2,4,2,1,0,3,41,-17
18:33:18:268898,32,1,-36,4,0,-3,-37,-1
18:33:18:284660,32,1,-36,4,0,-3,-37,-1
18:33:18:285401,1,-9,-11,-16,-6,2,40,21
18:33:18:291402,14,21,28,3,1,-1,9,7
18:33:18:299520,14,21,28,3,1,-1,9,7
18:33:18:300393,9,-4,-6,2,-1,-6,-29,-2
18:33:18:313902,-43,-41,-7,-2,-1,4,40,16
18:33:18:322182,-43,-41,-7,-2,-1,4,40,16
18:33:18:322915,11,-3,-10,-3,-1,3,-24,-10
18:33:18:328929,50,7,4,-4,-3,-4,-25,17
18:33:18:344650,50,7,4,-4,-3,-4,-25,17
18:33:18:345430,11,-13,-10,0,-3,-4,-14,-7
18:33:18:351415,21,51,-9,-18,-10,-9,6,9
18:33:18:359658,21,51,-9,-18,-10,-9,6,9
18:33:18:360460,-12,-10,11,2,-4,0,0,1
18:33:18:373931,2,-11,35,0,-5,-3,-9,-17
18:33:18:390284,2,-11,35,0,-5,-3,-9,-17
18:33:18:391018,-24,8,-4,-10,-3,0,-5,-8
18:33:18:391895,5,17,15,0,-4,-3,14,-18
18:33:18:404509,5,17,15,0,-4,-3,14,-18
18:33:18:405378,-22,-14,-3,-1,0,-10,-18,0
18:33:18:411403,12,-9,-12,-6,-2,-4,-24,-3
