Time,EMG1,EMG2,EMG3,EMG4,EMG5,EMG6,EMG7,EMG8
17:40:16:894706,-4,2,-8,-11,-5,-2,-3,-2
17:40:16:902791,-4,2,-8,-11,-5,-2,-3,-2
17:40:16:903596,7,-3,-4,-6,5,6,2,1
17:40:16:909620,-1,-1,-2,-1,1,-2,-2,-2
17:40:16:917163,-1,-1,-2,-1,1,-2,-2,-2
17:40:16:924638,-3,-2,1,3,1,0,-1,0
17:40:16:932167,-14,-10,-12,-2,-2,-3,-2,-3
17:40:16:947844,-14,-10,-12,-2,-2,-3,-2,-3
17:40:16:948620,7,-3,-14,-1,0,-2,-1,-8
17:40:16:954635,54,-1,1,-2,-7,-8,-4,-7
17:40:16:962831,54,-1,1,-2,-7,-8,-4,-7
17:40:16:963623,9,8,30,6,-3,2,3,2
17:40:16:969573,20,0,9,0,3,0,0,-2
17:40:16:993512,20,0,9,0,3,0,0,-2
17:40:16:994336,-18,-5,-7,6,3,1,-2,-6
17:40:16:995094,3,-5,1,-3,-4,-2,-2,0
17:40:17:312,3,-5,1,-3,-4,-2,-2,0
17:40:17:1137,-16,-4,-5,-5,-5,-3,1,-5
17:40:17:23946,-30,-10,0,-2,1,2,4,10
17:40:17:24775,-30,-10,0,-2,1,2,4,10
17:40:17:25563,8,-14,-10,-11,-5,-3,-5,0
17:40:17:37782,-28,25,-5,9,0,-2,0,-5
17:40:17:38616,-28,25,-5,9,0,-2,0,-5
17:40:17:52805,7,35,15,2,5,4,1,2
17:40:17:53588,-26,18,11,2,4,0,-1,-2
17:40:17:59662,-26,18,11,2,4,0,-1,-2
17:40:17:67128,-3,13,-24,-13,1,5,2,-1
17:40:17:74628,-3,-18,12,-4,2,2,3,0
17:40:17:82830,-3,-18,12,-4,2,2,3,0
17:40:17:83619,6,-58,10,-1,-1,-7,-5,-2
17:40:17:97821,7,-26,-23,6,-2,2,-3,-1
17:40:17:98616,7,-26,-23,6,-2,2,-3,-1
17:40:17:104593,3,-17,-8,-12,-1,-2,-4,1
17:40:17:112115,5,0,42,43,3,0,2,2
17:40:17:119657,5,0,42,43,3,0,2,2
17:40:17:127136,-5,39,-2,-32,1,0,1,-2
17:40:17:134590,4,32,-14,-8,0,4,-1,-3
17:40:17:142849,4,32,-14,-8,0,4,-1,-3
17:40:17:143640,-3,-11,1,42,1,-2,-2,-5
17:40:17:157834,-10,-16,19,85,-9,-10,-5,-5
17:40:17:158623,-10,-16,19,85,-9,-10,-5,-5
17:40:17:164647,-2,14,17,9,0,-3,-1,2
17:40:17:172119,6,-1,27,2,9,5,0,4
17:40:17:179695,6,-1,27,2,9,5,0,4
17:40:17:187127,-9,-39,-29,-4,-12,-10,-5,-8
17:40:17:194594,3,-34,-15,-34,4,8,5,3
17:40:17:202808,3,-34,-15,-34,4,8,5,3
17:40:17:203650,-3,-28,17,-10,-2,3,2,2
17:40:17:217789,-2,-9,-15,2,-5,-10,-7,-4
17:40:17:218645,-2,-9,-15,2,-5,-10,-7,-4
17:40:17:224594,5,38,43,-2,10,5,3,2
17:40:17:232160,1,14,37,-59,1,0,0,-1
17:40:17:239678,1,14,37,-59,1,0,0,-1
17:40:17:247130,2,1,37,-8,-6,-2,-4,1
17:40:17:254628,-7,16,-65,-42,-15,-8,-6,-8
17:40:17:262822,-7,16,-65,-42,-15,-8,-6,-8
17:40:17:263595,0,23,-64,-2,-3,-1,-1,-2
17:40:17:277832,1,11,-26,6,-2,-6,-4,0
17:40:17:278637,1,11,-26,6,-2,-6,-4,0
17:40:17:284638,-3,37,-56,-12,0,3,3,1
17:40:17:292124,0,3,-21,-26,-7,-7,-5,-2
17:40:17:299618,0,3,-21,-26,-7,-7,-5,-2
17:40:17:307173,-4,-30,-56,-19,-4,-3,-3,-3
17:40:17:314648,4,-12,2,-2,-1,0,-31,-15
17:40:17:322793,4,-12,2,-2,-1,0,-31,-15
17:40:17:323628,7,-4,18,2,3,9,34,28
17:40:17:337802,-5,3,5,2,3,2,3,-3
17:40:17:338611,-5,3,5,2,3,2,3,-3
17:40:17:344631,-4,-4,17,12,-5,-9,-12,-11
17:40:17:352128,-3,5,7,-8,1,-1,-7,1
17:40:17:359652,-3,5,7,-8,1,-1,-7,1
17:40:17:367144,2,6,26,-28,-1,-1,0,1
17:40:17:374626,-1,4,-12,-15,-2,3,5,-2
17:40:17:382809,-1,4,-12,-15,-2,3,5,-2
17:40:17:383625,-1,-2,14,-6,-1,-3,-6,-5
17:40:17:397870,0,-4,-5,-5,-1,1,9,4
17:40:17:398637,0,-4,-5,-5,-1,1,9,4
17:40:17:404569,-2,-3,13,21,0,-3,-10,-4
17:40:17:412133,-1,-4,2,24,5,4,12,4
17:40:17:419645,-1,-4,2,24,5,4,12,4
17:40:17:427141,0,-4,2,17,0,-2,-5,-4
17:40:17:434638,-1,-5,-20,-38,-7,-2,1,0
17:40:17:442901,-1,-5,-20,-38,-7,-2,1,0
17:40:17:443603,1,-6,0,12,-4,-3,24,7
17:40:17:465946,5,0,22,39,1,-2,0,8
17:40:17:466789,5,0,22,39,1,-2,0,8
17:40:17:467591,-6,-6,3,13,-2,-2,-6,-10
17:40:17:472130,-3,-2,-16,-15,0,1,12,3
17:40:17:479702,-3,-2,-16,-15,0,1,12,3
17:40:17:495285,-4,-1,3,8,-3,-2,-7,-1
17:40:17:496107,-3,-14,-7,3,7,11,-3,-3
17:40:17:502817,-3,-14,-7,3,7,11,-3,-3
17:40:17:503606,-3,-15,-2,5,0,0,-7,-5
17:40:17:517787,-3,-4,1,-10,-2,-7,-4,-5
17:40:17:518632,-3,-4,1,-10,-2,-7,-4,-5
17:40:17:524627,-1,1,-7,0,3,3,-1,2
17:40:17:532137,-3,14,3,9,-5,-4,-2,-5
17:40:17:539658,-3,14,3,9,-5,-4,-2,-5
17:40:17:547133,-4,5,-3,-8,-5,-6,-12,2
17:40:17:554577,3,2,-3,-16,3,0,-23,-3
17:40:17:562829,3,2,-3,-16,3,0,-23,-3
17:40:17:563614,0,-3,-21,-14,-1,-2,-3,-3
17:40:17:577870,0,-2,12,6,1,2,2,2
17:40:17:578618,0,-2,12,6,1,2,2,2
17:40:17:584572,0,2,10,11,2,-2,1,-5
17:40:17:600282,-3,-2,21,7,-1,-5,0,-2
17:40:17:601145,-3,-2,21,7,-1,-5,0,-2
17:40:17:607114,-1,-1,1,-31,-3,4,6,1
17:40:17:614663,3,3,-1,7,-5,-4,4,1
17:40:17:622820,3,3,-1,7,-5,-4,4,1
17:40:17:623628,-1,1,11,24,16,0,-7,-5
17:40:17:637792,-3,-3,5,13,2,1,4,1
17:40:17:638597,-3,-3,5,13,2,1,4,1
17:40:17:644636,3,0,36,-13,-6,-3,-5,-2
17:40:17:652161,1,-2,6,-17,2,-1,4,1
17:40:17:659705,1,-2,6,-17,2,-1,4,1
17:40:17:667123,-1,4,8,1,-4,-2,-2,0
17:40:17:674638,0,3,4,8,-4,0,0,1
17:40:17:682810,0,3,4,8,-4,0,0,1
17:40:17:683597,-2,-6,-26,-31,-3,-3,-1,-2
17:40:17:697801,-3,-4,-13,-9,-3,-4,-10,-6
17:40:17:698595,-3,-4,-13,-9,-3,-4,-10,-6
17:40:17:704574,-2,-5,-1,5,-1,0,8,3
17:40:17:712127,0,-7,8,3,2,0,0,-2
17:40:17:719675,0,-7,8,3,2,0,0,-2
17:40:17:727164,-2,-4,-11,33,-8,-2,-4,-2
17:40:17:734574,-2,0,-1,9,-1,0,1,-1
17:40:17:742871,-2,0,-1,9,-1,0,1,-1
17:40:17:743627,-16,-21,-58,39,-10,-10,-9,-13
17:40:17:757793,-3,-5,3,3,-3,-4,3,-2
17:40:17:758643,-3,-5,3,3,-3,-4,3,-2
17:40:17:764600,4,8,13,7,3,1,-2,1
17:40:17:772141,-2,-3,14,-2,4,3,5,0
17:40:17:779687,-2,-3,14,-2,4,3,5,0
17:40:17:787130,0,-1,-6,-16,1,4,0,1
17:40:17:794637,3,3,-31,-37,3,-2,0,1
17:40:17:802849,3,3,-31,-37,3,-2,0,1
17:40:17:803653,2,6,19,15,-1,-2,-2,-2
17:40:17:817824,1,13,15,28,-11,1,0,0
17:40:17:818641,1,13,15,28,-11,1,0,0
17:40:17:833421,1,0,-30,-17,-1,3,3,1
17:40:17:834214,0,1,-19,-4,11,5,0,5
17:40:17:847819,0,1,-19,-4,11,5,0,5
17:40:17:848644,-1,0,24,8,20,-4,-7,-12
17:40:17:854652,-8,-6,-14,-27,-5,-3,-4,-18
17:40:17:862845,-8,-6,-14,-27,-5,-3,-4,-18
17:40:17:863650,1,2,2,-12,-9,-4,-2,9
17:40:17:877788,-4,-5,6,13,-3,-11,-5,11
17:40:17:878598,-4,-5,6,13,-3,-11,-5,11
17:40:17:884570,1,-3,-4,-11,-5,3,13,1
17:40:17:892132,2,-1,3,8,-6,-2,-3,-1
17:40:17:899671,2,-1,3,8,-6,-2,-3,-1
17:40:17:907125,2,1,0,2,1,-4,-5,0
17:40:17:914572,1,0,2,-1,2,2,6,0
17:40:17:922837,1,0,2,-1,2,2,6,0
17:40:17:923622,2,1,6,-5,-1,5,10,5
17:40:17:937822,-4,-9,-9,-4,-4,-5,-4,-8
17:40:17:938619,-4,-9,-9,-4,-4,-5,-4,-8
17:40:17:944589,-3,0,6,4,-4,-1,-15,-5
17:40:17:952155,-2,-4,-17,-3,-1,-2,-4,-6
17:40:17:959670,-2,-4,-17,-3,-1,-2,-4,-6
17:40:17:967107,-3,-1,-8,-2,-3,1,2,-2
17:40:17:974611,0,5,3,9,-2,-2,-4,1
17:40:17:982196,0,5,3,9,-2,-2,-4,1
17:40:17:989611,-1,4,-2,-38,-8,1,-1,-2
17:40:17:998233,-1,1,1,-12,4,5,7,2
17:40:18:5337,-1,1,1,-12,4,5,7,2
17:40:18:6178,-2,1,-7,7,3,2,4,3
17:40:18:20319,0,-1,4,-1,-2,-2,4,2
17:40:18:21170,0,-1,4,-1,-2,-2,4,2
17:40:18:27140,-2,-2,-4,-8,-5,-8,6,2
17:40:18:34618,1,2,3,8,1,2,4,6
17:40:18:42188,1,2,3,8,1,2,4,6
17:40:18:49674,2,-4,0,11,0,5,8,4
17:40:18:57796,-1,-5,-5,-2,-10,-15,-1,2
17:40:18:58619,-1,-5,-5,-2,-10,-15,-1,2
17:40:18:64644,0,-1,3,12,20,23,-2,-5
17:40:18:80305,-3,-2,-10,-7,-3,4,2,-5
17:40:18:81142,-3,-2,-10,-7,-3,4,2,-5
17:40:18:87130,-3,-2,-3,-6,-10,-16,-6,-4
17:40:18:94633,-1,-1,-9,0,0,-4,-4,7
17:40:18:102125,-1,-1,-9,0,0,-4,-4,7
17:40:18:109582,-2,10,8,-1,-5,-2,-8,-4
17:40:18:117798,0,0,6,8,-2,0,-4,-6
17:40:18:118633,0,0,6,8,-2,0,-4,-6
17:40:18:124586,1,-1,3,-5,4,2,-6,1
17:40:18:140309,2,7,4,2,-2,-1,10,6
17:40:18:141130,2,7,4,2,-2,-1,10,6
17:40:18:155286,3,-1,-8,-3,-2,-4,2,-1
17:40:18:156127,-1,7,0,-8,7,5,-6,-7
17:40:18:162131,-1,7,0,-8,7,5,-6,-7
17:40:18:169648,-3,-8,-12,-14,-5,-6,-4,-4
17:40:18:177800,-3,-6,0,-13,-3,-3,-4,-2
17:40:18:178618,-3,-6,0,-13,-3,-3,-4,-2
17:40:18:184569,0,3,9,14,12,8,-3,-1
17:40:18:200309,0,-1,9,18,3,5,0,0
17:40:18:201134,0,-1,9,18,3,5,0,0
17:40:18:207137,-4,-7,-20,-19,-11,-12,-3,-1
17:40:18:222840,-2,-5,0,5,-3,-6,-15,-6
17:40:18:223687,-2,-5,0,5,-3,-6,-15,-6
17:40:18:229636,-2,-11,-7,-11,0,0,0,1
17:40:18:237802,-2,2,-13,-62,-10,-8,-13,-5
17:40:18:238618,-2,2,-13,-62,-10,-8,-13,-5
17:40:18:244648,0,5,11,12,-1,-7,-4,-3
17:40:18:260364,1,-4,18,24,21,21,6,1
17:40:18:261171,1,-4,18,24,21,21,6,1
17:40:18:267150,0,1,-4,-16,-10,-7,0,-1
17:40:18:274615,1,2,20,25,-5,-9,-1,-2
17:40:18:282166,1,2,20,25,-5,-9,-1,-2
17:40:18:289717,3,3,-6,-18,1,-4,-2,-1
17:40:18:297810,-2,-5,-22,7,-14,-2,-8,-5
17:40:18:298617,-2,-5,-22,7,-14,-2,-8,-5
17:40:18:304591,-3,-1,3,10,2,1,-1,-6
17:40:18:320296,-2,4,-9,-7,23,13,2,1
17:40:18:321140,-2,4,-9,-7,23,13,2,1
17:40:18:327149,-2,4,8,6,-2,-8,6,5
17:40:18:334638,-5,0,6,15,6,-8,-3,-6
17:40:18:342165,-5,0,6,15,6,-8,-3,-6
17:40:18:349616,-1,3,1,-10,6,8,5,0
17:40:18:357805,1,-1,-9,-19,-16,-16,-3,-14
17:40:18:358662,1,-1,-9,-19,-16,-16,-3,-14
17:40:18:364602,-4,-19,7,14,-10,2,5,1
17:40:18:380290,-1,-7,-16,19,3,0,2,1
17:40:18:381121,-1,-7,-16,19,3,0,2,1
17:40:18:387130,1,-12,-2,-11,9,10,-9,0
17:40:18:394608,0,3,11,-18,0,-8,-5,1
17:40:18:402170,0,3,11,-18,0,-8,-5,1
17:40:18:409611,-2,6,1,-10,-37,-15,-11,-6
17:40:18:417804,0,2,-1,-8,1,20,13,7
17:40:18:418638,0,2,-1,-8,1,20,13,7
17:40:18:424592,-2,4,-3,2,-10,-6,-6,-5
17:40:18:440374,-1,-1,2,4,-16,-5,5,-7
17:40:18:441148,-1,-1,2,4,-16,-5,5,-7
17:40:18:447176,0,0,14,16,5,-14,-5,-1
17:40:18:462804,0,-7,4,11,-6,2,2,-1
17:40:18:463615,0,-7,4,11,-6,2,2,-1
17:40:18:469596,1,4,-13,4,26,11,5,0
17:40:18:477814,-1,7,1,6,-24,-14,-5,2
17:40:18:478709,-1,7,1,6,-24,-14,-5,2
17:40:18:484577,2,-8,18,3,-2,14,5,4
17:40:18:500296,-1,-3,-4,5,9,11,4,4
17:40:18:501108,-1,-3,-4,5,9,11,4,4
17:40:18:507325,-1,-1,1,-4,-18,-15,-11,-4
17:40:18:522818,-1,-1,1,-4,-18,-15,-11,-4
17:40:18:523622,1,-3,2,-8,-9,-10,2,6
17:40:18:529642,-3,1,-1,6,3,14,41,22
17:40:18:537870,-3,1,-1,6,3,14,41,22
17:40:18:538599,-3,-3,-8,-12,0,-19,-4,12
17:40:18:544618,-3,-6,-25,1,-3,3,-8,-9
17:40:18:560358,-3,-6,-25,1,-3,3,-8,-9
17:40:18:561210,-2,-4,-13,-17,-5,-2,-4,-2
17:40:18:567115,1,19,16,14,6,0,-3,-4
17:40:18:582792,1,19,16,14,6,0,-3,-4
17:40:18:583586,0,4,18,10,-15,3,-1,-5
17:40:18:589620,0,-3,-16,-18,4,2,-2,-5
17:40:18:597822,0,-3,-16,-18,4,2,-2,-5
17:40:18:598597,-2,-2,3,4,1,-8,-7,-9
17:40:18:604609,-1,0,4,-2,13,3,-5,-5
17:40:18:620306,-1,0,4,-2,13,3,-5,-5
17:40:18:621138,0,5,-3,-13,-7,-2,-15,-11
17:40:18:627130,-2,1,-4,3,6,-2,4,0
17:40:18:642805,-2,1,-4,3,6,-2,4,0
17:40:18:643582,-2,-5,-1,-12,19,15,8,-3
17:40:18:649617,1,6,8,4,-8,-6,-10,1
17:40:18:657840,1,6,8,4,-8,-6,-10,1
17:40:18:658625,-4,-5,-4,-6,-19,-12,-15,-4
17:40:18:664580,0,-5,-13,-3,8,7,-2,-10
17:40:18:680761,0,-5,-13,-3,8,7,-2,-10
17:40:18:681585,1,4,1,11,12,-2,-6,-3
17:40:18:687142,-4,-1,-3,6,-12,-8,15,16
17:40:18:711091,-4,-1,-3,6,-12,-8,15,16
17:40:18:711786,4,2,0,-3,0,-7,3,2
17:40:18:712597,-3,-13,-6,-15,-6,9,-14,-13
17:40:18:717826,-3,-13,-6,-15,-6,9,-14,-13
17:40:18:718663,-6,-7,-3,-5,1,-16,1,3
17:40:18:724585,1,-7,0,0,17,32,4,-1
17:40:18:740818,1,-7,0,0,17,32,4,-1
17:40:18:741614,1,-1,-3,-1,2,0,-5,-2
17:40:18:747111,-5,-1,-2,-10,-17,-31,2,-2
17:40:18:762826,-5,-1,-2,-10,-17,-31,2,-2
17:40:18:763623,1,10,10,8,20,10,-9,8
17:40:18:769583,2,-4,-9,4,-5,-1,-22,-17
17:40:18:777830,2,-4,-9,4,-5,-1,-22,-17
17:40:18:778639,-2,-8,-6,-10,-1,-9,-3,-7
17:40:18:784576,2,5,0,-2,3,10,-2,-6
17:40:18:800340,2,5,0,-2,3,10,-2,-6
17:40:18:801107,0,4,-1,-3,-12,3,9,-1
17:40:18:807138,-1,0,8,-5,-23,-21,-3,0
17:40:18:822824,-1,0,8,-5,-23,-21,-3,0
17:40:18:823594,0,0,0,5,-19,20,13,5
17:40:18:829618,-2,-3,10,3,-1,-23,10,8
17:40:18:837867,-2,-3,10,3,-1,-23,10,8
17:40:18:838623,-4,2,-4,3,27,25,17,-4
17:40:18:844680,-4,-3,5,3,3,-7,-9,-4
17:40:18:860332,-4,-3,5,3,3,-7,-9,-4
17:40:18:861139,-4,-12,-10,-3,-10,-18,-10,-7
17:40:18:867119,0,1,5,4,12,3,3,7
17:40:18:882791,0,1,5,4,12,3,3,7
17:40:18:883586,9,-1,0,3,21,8,4,3
17:40:18:889645,4,7,-1,14,-13,14,4,2
17:40:18:897858,4,7,-1,14,-13,14,4,2
17:40:18:898615,-6,-1,2,0,6,-1,-7,-9
17:40:18:904596,-6,-7,-5,-19,-20,-48,-28,-20
17:40:18:920332,-6,-7,-5,-19,-20,-48,-28,-20
17:40:18:921123,5,5,8,14,27,62,25,20
17:40:18:927132,5,1,1,-6,2,-3,-9,-8
17:40:18:942814,5,1,1,-6,2,-3,-9,-8
17:40:18:943613,0,-12,-13,-10,-14,-20,0,11
17:40:18:949619,-3,-3,-3,-4,11,5,6,10
17:40:18:957831,-3,-3,-3,-4,11,5,6,10
17:40:18:958601,-4,-2,14,-2,-26,-21,-12,-7
17:40:18:972149,-4,1,-3,1,4,-9,-7,-8
17:40:18:988499,-4,1,-3,1,4,-9,-7,-8
17:40:18:989304,4,7,6,8,43,40,8,-1
17:40:18:990170,-1,1,11,2,-47,-17,-7,-9
17:40:19:2816,-1,1,11,2,-47,-17,-7,-9
17:40:19:3627,-2,-10,-4,-1,17,-4,-2,37
17:40:19:18543,-5,-6,-7,3,19,0,-1,-28
17:40:19:19290,-5,-6,-7,3,19,0,-1,-28
17:40:19:20114,3,-8,-12,-5,-18,-14,-7,0
17:40:19:32144,-17,-7,-7,-5,-11,-4,20,10
17:40:19:40368,-17,-7,-7,-5,-11,-4,20,10
17:40:19:41233,9,6,-5,3,5,3,4,16
17:40:19:47124,-1,1,-3,1,3,9,0,-2
17:40:19:54653,-1,1,-3,1,3,9,0,-2
17:40:19:62118,-1,3,-4,-6,15,2,-4,-12
17:40:19:69602,9,7,7,16,25,43,7,28
17:40:19:77836,9,7,7,16,25,43,7,28
17:40:19:78630,-10,-2,6,4,-39,-40,-20,-29
17:40:19:92142,21,21,0,0,-1,-5,7,19
17:40:19:100337,21,21,0,0,-1,-5,7,19
17:40:19:101133,-26,-21,-3,0,-13,-16,-8,-65
17:40:19:107160,1,-4,-13,-13,-11,5,8,20
17:40:19:114669,1,-4,-13,-13,-11,5,8,20
17:40:19:122185,1,-8,4,2,-7,11,5,13
17:40:19:129601,-4,-11,5,11,-14,0,-6,-21
17:40:19:137844,-4,-11,5,11,-14,0,-6,-21
17:40:19:138654,8,29,-12,-15,-13,-5,2,11
17:40:19:152130,15,22,9,2,21,27,2,2
17:40:19:160317,15,22,9,2,21,27,2,2
17:40:19:161138,6,3,10,1,-12,-23,-4,3
17:40:19:167150,-4,-5,-5,-17,14,-1,13,-4
17:40:19:174693,-4,-5,-5,-17,14,-1,13,-4
17:40:19:182145,0,-2,9,5,2,-14,-2,-11
17:40:19:189596,5,-6,-9,8,19,11,-8,-1
17:40:19:197776,5,-6,-9,8,19,11,-8,-1
17:40:19:198564,-7,-13,7,3,-14,-2,0,-7
17:40:19:212136,-7,-12,-10,-8,-28,-13,-5,29
17:40:19:220386,-7,-12,-10,-8,-28,-13,-5,29
17:40:19:221130,-24,-3,13,21,27,25,-3,-15
17:40:19:227132,27,-2,-3,11,-3,-20,-16,-19
17:40:19:234666,27,-2,-3,11,-3,-20,-16,-19
17:40:19:242134,-37,-14,-23,-15,-15,-5,-22,16
17:40:19:249636,-35,-13,-2,8,-23,-23,-15,-10
17:40:19:257615,-35,-13,-2,8,-23,-23,-15,-10
17:40:19:264598,35,9,-3,11,28,39,20,17
17:40:19:272147,-3,6,8,-12,-3,18,3,-1
17:40:19:280316,-3,6,8,-12,-3,18,3,-1
17:40:19:281116,-12,-20,-3,1,-2,-2,4,-8
17:40:19:287122,-40,-25,-2,-20,-12,-14,25,-7
17:40:19:294640,-40,-25,-2,-20,-12,-14,25,-7
17:40:19:302124,-46,11,2,-20,-19,-19,-1,-37
17:40:19:309604,-2,12,3,2,20,-3,-14,2
17:40:19:317832,-2,12,3,2,20,-3,-14,2
17:40:19:318630,26,16,4,-5,9,-11,-9,24
17:40:19:332153,-2,-8,-1,6,5,38,13,5
17:40:19:340456,-2,-8,-1,6,5,38,13,5
17:40:19:341197,9,6,-20,-31,-34,-27,-8,4
17:40:19:347156,7,0,-11,-27,-33,-18,-6,-31
17:40:19:354701,7,0,-11,-27,-33,-18,-6,-31
17:40:19:362150,1,-6,8,35,12,8,12,25
17:40:19:369644,-13,-20,-1,-23,-24,-41,-20,-57
17:40:19:377834,-13,-20,-1,-23,-24,-41,-20,-57
17:40:19:378641,19,17,7,-23,33,19,5,-7
17:40:19:392146,17,16,11,28,4,3,2,24
17:40:19:400352,17,16,11,28,4,3,2,24
17:40:19:401137,17,-4,1,11,-14,-2,-4,1
17:40:19:407116,13,20,0,-5,26,0,3,65
17:40:19:414707,13,20,0,-5,26,0,3,65
17:40:19:422138,-14,-14,-3,4,0,-8,-10,-83
17:40:19:429627,-8,-44,-3,7,7,19,7,14
17:40:19:437797,-8,-44,-3,7,7,19,7,14
17:40:19:438607,18,0,-3,17,-13,10,5,23
17:40:19:452147,-2,3,-13,-9,-1,-9,-11,-10
17:40:19:460289,-2,3,-13,-9,-1,-9,-11,-10
17:40:19:461135,-7,3,1,-8,-3,-17,-4,-1
17:40:19:467164,-5,6,-3,9,2,2,-1,-9
17:40:19:474640,-5,6,-3,9,2,2,-1,-9
17:40:19:482067,10,17,4,-4,1,10,9,22
17:40:19:489633,14,30,6,-1,-1,0,-3,-41
17:40:19:497826,14,30,6,-1,-1,0,-3,-41
17:40:19:498616,10,-1,8,15,-15,15,14,38
17:40:19:512141,-9,-7,6,7,25,5,-9,-41
17:40:19:520293,-9,-7,6,7,25,5,-9,-41
17:40:19:521131,-5,-3,8,1,2,-21,-9,6
17:40:19:527043,-1,13,-1,9,14,9,-1,6
17:40:19:542895,-1,13,-1,9,14,9,-1,6
17:40:19:543606,-9,-4,-9,-4,-5,-13,-7,-13
17:40:19:549652,-3,-9,-3,10,-1,-6,-4,2
17:40:19:557784,-3,-9,-3,10,-1,-6,-4,2
17:40:19:558629,-4,-28,10,20,30,27,13,-6
17:40:19:572154,-4,-23,-7,-22,-10,-16,-1,29
17:40:19:580290,-4,-23,-7,-22,-10,-16,-1,29
17:40:19:581129,-4,20,-2,-10,-10,-6,-16,-67
17:40:19:587144,3,10,8,22,32,22,7,0
17:40:19:594624,3,10,8,22,32,22,7,0
17:40:19:602076,-9,-20,-3,-35,-54,-42,-8,14
17:40:19:609680,-3,3,-12,-8,14,18,9,16
17:40:19:617821,-3,3,-12,-8,14,18,9,16
17:40:19:618599,-8,3,-11,-12,10,0,-6,2
17:40:19:632153,7,4,9,0,-25,-25,-6,6
17:40:19:640411,7,4,9,0,-25,-25,-6,6
17:40:19:641235,-16,-22,-6,3,-13,-8,-7,-12
17:40:19:647137,-13,-16,-22,0,0,9,-1,-8
17:40:19:654643,-13,-16,-22,0,0,9,-1,-8
17:40:19:662135,15,8,27,-18,9,6,1,36
17:40:19:669647,18,22,29,-6,1,16,5,2
17:40:19:677814,18,22,29,-6,1,16,5,2
17:40:19:678632,4,12,-14,4,17,2,1,-5
17:40:19:692067,-2,-35,-22,-9,-21,-24,-6,4
17:40:19:700313,-2,-35,-22,-9,-21,-24,-6,4
17:40:19:701116,-3,7,7,18,17,32,9,-10
17:40:19:707178,-3,20,16,1,-56,-65,-16,4
17:40:19:714661,-3,20,16,1,-56,-65,-16,4
17:40:19:722141,2,2,-14,-9,51,25,3,-22
17:40:19:729597,-6,-7,0,-15,-19,-11,-9,-6
17:40:19:737839,-6,-7,0,-15,-19,-11,-9,-6
17:40:19:738636,-12,-14,-7,0,-35,-19,37,-10
17:40:19:752169,1,9,-1,10,14,5,1,2
17:40:19:760319,1,9,-1,10,14,5,1,2
17:40:19:761133,13,2,-9,18,15,8,-12,13
17:40:19:767133,18,11,-12,-8,4,26,16,22
17:40:19:774674,18,11,-12,-8,4,26,16,22
17:40:19:782149,0,3,-4,-13,-22,-13,-9,0
17:40:19:789713,-7,-7,-5,18,24,11,-7,-23
17:40:19:797795,-7,-7,-5,18,24,11,-7,-23
17:40:19:798584,-4,-2,-4,0,-16,-11,-1,8
17:40:19:812162,14,28,14,5,19,14,2,2
17:40:19:820351,14,28,14,5,19,14,2,2
17:40:19:821132,-7,-12,-7,-18,-24,-21,-12,-3
17:40:19:827158,4,-16,-10,-8,-20,6,8,21
17:40:19:834656,4,-16,-10,-8,-20,6,8,21
17:40:19:842218,1,21,2,-5,2,-2,-14,-11
17:40:19:849626,-15,-19,-1,12,5,-7,-5,-42
17:40:19:857806,-15,-19,-1,12,5,-7,-5,-42
17:40:19:858596,-2,-23,3,10,18,9,0,14
17:40:19:872133,-10,-11,1,6,-24,-20,-4,4
17:40:19:880303,-10,-11,1,6,-24,-20,-4,4
17:40:19:881157,3,-19,-13,-8,-1,10,-12,-81
17:40:19:895316,-2,19,7,9,-20,-11,4,23
17:40:19:896133,-2,19,7,9,-20,-11,4,23
17:40:19:902140,1,21,-3,-12,-15,-9,-6,8
17:40:19:909606,3,-14,-3,-20,-3,4,1,1
17:40:19:917148,3,-14,-3,-20,-3,4,1,1
17:40:19:924657,6,-13,-6,8,25,20,6,37
17:40:19:932203,10,-5,2,-8,1,-6,-4,22
17:40:19:940289,10,-5,2,-8,1,-6,-4,22
17:40:19:941121,-17,-14,7,-5,-22,-9,-2,19
17:40:19:955284,-4,6,11,-15,-10,-8,-5,-17
17:40:19:956138,-4,6,11,-15,-10,-8,-5,-17
17:40:19:962138,6,13,-2,1,-3,4,2,14
17:40:19:969608,2,-6,0,-6,8,6,-4,-8
17:40:19:977167,2,-6,0,-6,8,6,-4,-8
17:40:19:984595,-2,8,13,25,9,5,6,6
17:40:19:992070,-3,3,-1,-9,-14,-2,-6,-18
17:40:20:336,-3,3,-1,-9,-14,-2,-6,-18
17:40:20:1181,17,3,5,8,0,-4,0,14
17:40:20:15303,-16,-14,1,1,26,3,-1,-16
17:40:20:16141,-16,-14,1,1,26,3,-1,-16
17:40:20:22123,-18,4,-4,31,34,13,0,1
17:40:20:29577,-3,-6,-4,2,-1,17,3,9
17:40:20:37181,-3,-6,-4,2,-1,17,3,9
17:40:20:44574,9,25,-6,-18,-30,-26,-6,7
17:40:20:52173,-6,11,6,28,17,20,1,-20
17:40:20:60303,-6,11,6,28,17,20,1,-20
17:40:20:61136,2,-5,7,-3,-20,-27,-9,-19
17:40:20:75385,14,17,-1,-24,-2,14,2,-13
17:40:20:76150,14,17,-1,-24,-2,14,2,-13
17:40:20:82147,-1,17,7,0,-21,1,3,9
17:40:20:97832,24,11,-2,21,-3,-9,5,25
17:40:20:98629,24,11,-2,21,-3,-9,5,25
17:40:20:104579,-9,-21,17,1,2,6,0,-2
17:40:20:112140,-5,7,-2,20,27,-10,-2,12
17:40:20:120336,-5,7,-2,20,27,-10,-2,12
17:40:20:121157,0,7,-9,-14,11,7,-2,3
17:40:20:135316,-8,-8,-7,-15,14,9,-3,-4
17:40:20:136120,-8,-8,-7,-15,14,9,-3,-4
17:40:20:142165,-3,-14,-5,-9,-1,-3,1,-7
17:40:20:149606,-24,-19,-12,-32,-43,-23,-8,-17
17:40:20:157182,-24,-19,-12,-32,-43,-23,-8,-17
17:40:20:164605,-4,-5,17,-3,12,9,-3,15
17:40:20:172140,-3,5,4,-18,-20,-17,0,-3
17:40:20:180342,-3,5,4,-18,-20,-17,0,-3
17:40:20:181146,15,20,-11,5,14,15,0,-20
17:40:20:195331,-3,-20,-8,-13,-30,-39,-10,0
17:40:20:196141,-3,-20,-8,-13,-30,-39,-10,0
17:40:20:202179,9,13,-5,7,23,26,14,29
17:40:20:209599,-13,-16,-4,-1,-2,0,-1,-10
17:40:20:217173,-13,-16,-4,-1,-2,0,-1,-10
17:40:20:224606,-6,18,1,-9,-13,-11,-2,7
17:40:20:232148,-9,-25,-1,-5,13,9,0,5
17:40:20:240370,-9,-25,-1,-5,13,9,0,5
17:40:20:241164,6,-13,-1,-9,-13,-23,-2,17
17:40:20:255414,3,4,9,38,43,25,7,5
17:40:20:256217,3,4,9,38,43,25,7,5
17:40:20:262156,2,-8,-12,-20,-11,3,3,-1
17:40:20:269618,8,13,-19,9,12,23,2,14
17:40:20:277353,8,13,-19,9,12,23,2,14
17:40:20:284650,-14,-47,-5,4,-5,-17,-9,21
17:40:20:292149,-13,20,9,-8,-4,0,6,11
17:40:20:300357,-13,20,9,-8,-4,0,6,11
17:40:20:301150,-6,-15,-11,25,30,0,1,-13
17:40:20:315373,16,28,10,43,16,21,10,27
17:40:20:316125,16,28,10,43,16,21,10,27
17:40:20:322146,-12,-8,-5,-5,-20,-8,-4,-26
17:40:20:329614,2,-4,-1,-6,4,-7,-4,-21
17:40:20:337174,2,-4,-1,-6,4,-7,-4,-21
17:40:20:344578,5,7,-16,-25,-10,-3,-5,-10
17:40:20:352080,-19,-39,-3,-9,-38,-16,-2,26
17:40:20:360314,-19,-39,-3,-9,-38,-16,-2,26
17:40:20:361160,-4,16,10,-22,-36,3,-4,-17
17:40:20:375286,-3,-1,-12,-17,-16,-23,-6,-16
17:40:20:376142,-3,-1,-12,-17,-16,-23,-6,-16
17:40:20:382079,-3,12,7,16,0,9,-3,-17
17:40:20:389640,16,25,9,-13,3,-3,-4,-23
17:40:20:397147,16,25,9,-13,3,-3,-4,-23
17:40:20:404601,-7,-28,-3,-1,7,-10,2,-9
17:40:20:412143,-17,-24,-20,-15,-5,1,1,-18
17:40:20:420313,-17,-24,-20,-15,-5,1,1,-18
17:40:20:421139,4,20,14,36,42,19,3,5
17:40:20:435339,20,13,5,14,17,15,1,23
17:40:20:436183,20,13,5,14,17,15,1,23
17:40:20:442144,-5,1,-11,-15,-15,-14,-2,-6
17:40:20:449635,3,14,-4,-13,8,2,-2,0
17:40:20:457184,3,14,-4,-13,8,2,-2,0
17:40:20:464596,12,-1,-15,0,-4,12,5,-11
17:40:20:472243,4,-16,3,23,-14,-12,-5,30
17:40:20:480335,4,-16,3,23,-14,-12,-5,30
17:40:20:481155,-2,11,-2,-18,-19,-22,-9,20
17:40:20:495328,-38,-44,-23,-1,7,-9,-13,-35
17:40:20:496159,-38,-44,-23,-1,7,-9,-13,-35
17:40:20:502168,9,1,0,-13,17,21,0,20
17:40:20:509647,0,2,0,-21,1,12,-5,-32
17:40:20:517195,0,2,0,-21,1,12,-5,-32
17:40:20:524612,8,17,5,9,-9,-6,4,-12
17:40:20:532147,-5,10,19,-41,-8,7,5,-2
17:40:20:540317,-5,10,19,-41,-8,7,5,-2
17:40:20:541149,-4,-11,9,-11,-14,-16,-8,-24
17:40:20:555341,16,16,-3,14,-10,-7,1,7
17:40:20:556151,16,16,-3,14,-10,-7,1,7
17:40:20:562123,-4,-5,-11,-9,-12,-10,-2,18
17:40:20:569691,7,27,29,17,10,6,4,-16
17:40:20:577174,7,27,29,17,10,6,4,-16
17:40:20:584651,-11,-7,-8,40,4,-12,-11,-35
17:40:20:592170,9,18,-10,-8,5,2,1,-5
17:40:20:600309,9,18,-10,-8,5,2,1,-5
17:40:20:601144,-4,18,11,10,7,7,1,18
17:40:20:615277,-18,-3,6,22,-1,-12,-4,1
17:40:20:616167,-18,-3,6,22,-1,-12,-4,1
17:40:20:622125,1,4,-13,-6,9,12,8,9
17:40:20:629619,-13,-3,9,-4,-10,-19,-5,-4
17:40:20:637143,-13,-3,9,-4,-10,-19,-5,-4
17:40:20:652795,-9,-18,0,-16,-9,-1,2,5
17:40:20:653593,19,-12,0,0,-3,8,7,-6
17:40:20:660281,19,-12,0,0,-3,8,7,-6
17:40:20:661141,8,4,0,-8,-12,-20,-3,0
17:40:20:675277,16,-12,-7,15,32,20,2,-9
17:40:20:676143,16,-12,-7,15,32,20,2,-9
17:40:20:682145,0,0,-12,-16,-18,-12,-1,5
17:40:20:689621,-3,16,10,5,6,1,2,-13
17:40:20:697169,-3,16,10,5,6,1,2,-13
17:40:20:704626,-2,-18,6,7,2,-5,-8,10
17:40:20:712132,-3,-14,-20,-7,0,-1,-3,11
17:40:20:720344,-3,-14,-20,-7,0,-1,-3,11
17:40:20:721159,-5,-12,19,7,4,-4,0,1
17:40:20:735357,0,10,-9,10,14,13,2,3
17:40:20:736146,0,10,-9,10,14,13,2,3
17:40:20:742155,2,4,0,-10,-7,-7,-8,0
17:40:20:749617,-1,1,0,6,41,12,4,13
17:40:20:757148,-1,1,0,6,41,12,4,13
17:40:20:764594,-8,-14,-1,20,21,13,5,-27
17:40:20:772080,-1,4,-4,-10,-18,-27,-7,7
17:40:20:780290,-1,4,-4,-10,-18,-27,-7,7
17:40:20:781142,0,10,16,0,20,25,1,-14
17:40:20:795338,0,21,20,4,-21,-6,-3,9
17:40:20:796163,0,21,20,4,-21,-6,-3,9
17:40:20:802112,-5,-21,-43,-21,-17,-13,-4,12
17:40:20:809581,-5,-7,4,-1,-18,-6,-5,-26
17:40:20:817156,-5,-7,4,-1,-18,-6,-5,-26
17:40:20:824617,-8,10,3,11,17,12,7,23
17:40:20:832149,-10,-2,-4,-14,0,-4,-4,1
17:40:20:839690,-10,-2,-4,-14,0,-4,-4,1
17:40:20:847169,13,-21,3,12,2,-7,-3,-8
17:40:20:855292,2,-12,-2,13,-3,-1,3,13
17:40:20:856150,2,-12,-2,13,-3,-1,3,13
17:40:20:869640,16,16,-7,-19,3,4,0,0
17:40:20:877833,-19,-58,-49,-20,-14,-8,-11,-26
17:40:20:878709,-19,-58,-49,-20,-14,-8,-11,-26
17:40:20:884634,4,-2,41,12,-1,8,4,-7
17:40:20:900333,-3,4,-13,-15,-18,-3,-5,-21
17:40:20:901178,-3,4,-13,-15,-18,-3,-5,-21
17:40:20:907166,-11,-5,-14,-3,-1,9,8,4
17:40:20:915350,9,16,11,9,6,-1,2,31
17:40:20:916151,9,16,11,9,6,-1,2,31
17:40:20:929635,-10,3,-5,-11,-10,-21,-8,-27
17:40:20:937818,-1,-19,2,5,-17,-17,-1,26
17:40:20:938661,-1,-19,2,5,-17,-17,-1,26
17:40:20:944600,-6,-14,-8,1,-6,-2,-2,2
17:40:20:960327,9,-30,-23,-14,-5,6,-4,-10
17:40:20:961152,9,-30,-23,-14,-5,6,-4,-10
17:40:20:967166,-16,6,0,-8,-3,-1,-3,12
17:40:20:975297,10,36,41,11,-1,-4,-5,-4
17:40:20:976151,10,36,41,11,-1,-4,-5,-4
17:40:20:982143,11,17,-4,4,-29,-18,-9,-42
17:40:20:997824,-16,-7,-16,-12,1,5,-4,-12
17:40:20:998642,-16,-7,-16,-12,1,5,-4,-12
17:40:21:4598,-22,17,29,20,1,-5,0,-7
17:40:21:12134,-3,-4,26,6,6,25,7,19
17:40:21:19766,-3,-4,26,6,6,25,7,19
17:40:21:27155,4,-5,-6,-5,16,1,-4,15
17:40:21:35324,2,6,-31,-21,4,8,6,6
17:40:21:36146,2,6,-31,-21,4,8,6,6
17:40:21:42188,-11,-11,-25,2,-8,0,-5,2
17:40:21:57833,11,30,7,-1,-15,-16,-3,-14
17:40:21:58715,11,30,7,-1,-15,-16,-3,-14
17:40:21:64631,9,1,5,0,-5,5,4,4
17:40:21:72167,-3,-6,2,-4,4,23,14,37
17:40:21:79707,-3,-6,2,-4,4,23,14,37
17:40:21:87161,-14,-32,-19,-9,-17,-12,-9,-20
17:40:21:95320,-7,-15,11,6,6,-11,-4,-9
17:40:21:96172,-7,-15,11,6,6,-11,-4,-9
17:40:21:102152,9,-8,10,-24,-22,-9,-4,31
17:40:21:117822,0,-18,-3,-5,-3,-5,-7,-32
17:40:21:118615,0,-18,-3,-5,-3,-5,-7,-32
17:40:21:124666,14,-4,-4,-12,-23,-6,-6,-15
17:40:21:132160,2,5,-5,19,-4,-12,3,4
17:40:21:147980,2,5,-5,19,-4,-12,3,4
17:40:21:148703,16,16,6,-37,-7,-6,-5,-4
17:40:21:155281,-8,1,21,3,-8,-14,-12,-16
17:40:21:156155,-8,1,21,3,-8,-14,-12,-16
17:40:21:162157,4,28,-4,20,23,14,3,-15
17:40:21:177821,-24,-2,-10,-12,1,-5,1,-6
17:40:21:178646,-24,-2,-10,-12,1,-5,1,-6
17:40:21:184634,5,5,-15,3,29,13,4,23
17:40:21:192144,-7,13,-10,-12,-24,-19,0,29
17:40:21:199628,-7,13,-10,-12,-24,-19,0,29
17:40:21:207157,-12,-17,1,-2,51,42,7,-2
17:40:21:215304,18,1,-7,2,12,4,3,6
17:40:21:216181,18,1,-7,2,12,4,3,6
17:40:21:222074,5,5,-4,4,-37,-18,-1,10
17:40:21:237812,8,8,-1,8,8,9,9,23
17:40:21:238616,8,8,-1,8,8,9,9,23
17:40:21:244649,-8,-15,-6,3,-29,-27,-7,-8
17:40:21:252263,-11,-11,-10,8,2,12,1,-9
17:40:21:259630,-11,-11,-10,8,2,12,1,-9
17:40:21:267087,-16,2,-26,-9,3,-5,-1,-11
17:40:21:275316,-8,33,19,-4,16,5,4,17
17:40:21:276158,-8,33,19,-4,16,5,4,17
17:40:21:282116,1,13,29,-3,3,10,3,1
17:40:21:297781,-15,-28,-35,6,14,1,-8,-39
17:40:21:298601,-15,-28,-35,6,14,1,-8,-39
17:40:21:304569,4,2,5,4,-5,-6,-1,-12
17:40:21:312084,15,-8,-7,-21,-6,0,-7,-9
17:40:21:319652,15,-8,-7,-21,-6,0,-7,-9
17:40:21:327084,-3,-11,-8,8,11,-9,2,12
17:40:21:335394,11,10,4,7,13,11,-2,2
17:40:21:336146,11,10,4,7,13,11,-2,2
17:40:21:342167,9,23,5,8,4,8,4,2
17:40:21:357826,6,19,14,-9,-8,-6,-6,-7
17:40:21:358622,6,19,14,-9,-8,-6,-6,-7
17:40:21:364585,3,-38,-33,5,-9,-10,1,23
17:40:21:372083,11,0,-25,4,4,-2,1,-2
17:40:21:379687,11,0,-25,4,4,-2,1,-2
17:40:21:387185,8,-5,-4,20,41,30,9,9
17:40:21:395358,2,1,5,14,-9,2,0,7
17:40:21:396158,2,1,5,14,-9,2,0,7
17:40:21:402158,-8,2,8,0,0,0,3,-8
17:40:21:425961,-33,-21,18,-4,-10,-21,-14,-7
17:40:21:426771,-33,-21,18,-4,-10,-21,-14,-7
17:40:21:427570,-19,13,4,-20,-11,-1,-2,-30
17:40:21:432068,-5,-18,-18,-11,-28,-4,-8,-29
17:40:21:439648,-5,-18,-18,-11,-28,-4,-8,-29
17:40:21:455980,-10,24,18,6,37,20,2,-3
17:40:21:456799,10,-2,-12,7,-8,-1,0,38
17:40:21:457602,10,-2,-12,7,-8,-1,0,38
17:40:21:462066,20,-6,-7,-10,-24,-22,-8,5
17:40:21:485987,2,13,11,2,9,9,5,-13
17:40:21:486805,2,13,11,2,9,9,5,-13
17:40:21:487551,4,5,2,-5,-23,-13,-6,15
17:40:21:492153,-15,-1,-13,8,-9,-11,-3,-16
17:40:21:499638,-15,-1,-13,8,-9,-11,-3,-16
17:40:21:515940,9,-8,-5,-29,14,12,6,0
17:40:21:516741,1,17,16,-1,-19,-18,-11,-2
17:40:21:517603,1,17,16,-1,-19,-18,-11,-2
17:40:21:522221,-3,-8,20,23,19,16,3,8
17:40:21:537843,5,-38,50,-1,1,0,3,-5
17:40:21:538707,5,-38,50,-1,1,0,3,-5
17:40:21:544633,-2,-20,-13,20,-16,-22,-8,-20
17:40:21:552198,8,4,25,13,7,14,7,-11
17:40:21:559677,8,4,25,13,7,14,7,-11
17:40:21:567163,0,4,-47,-8,-12,-4,-11,-4
17:40:21:575278,-1,11,-8,-13,-5,9,6,-2
17:40:21:576148,-1,11,-8,-13,-5,9,6,-2
17:40:21:582086,3,5,17,-5,-12,-6,-4,-13
17:40:21:597808,-9,1,-18,-36,3,-17,-7,4
17:40:21:598598,-9,1,-18,-36,3,-17,-7,4
17:40:21:604650,3,6,-19,4,16,7,5,21
17:40:21:612158,16,18,-19,-6,-13,1,-2,0
17:40:21:619641,16,18,-19,-6,-13,1,-2,0
17:40:21:627085,5,-14,13,-27,-13,-17,-9,23
17:40:21:635291,-15,-49,-30,-1,13,6,4,0
17:40:21:636158,-15,-49,-30,-1,13,6,4,0
17:40:21:642055,5,-14,-10,8,-7,-1,1,3
17:40:21:657776,12,26,5,-12,-6,2,3,14
17:40:21:658606,12,26,5,-12,-6,2,3,14
17:40:21:672788,-7,-7,25,7,16,-6,-4,-16
17:40:21:673567,-21,-10,-7,-12,-9,0,2,-17
17:40:21:679640,-21,-10,-7,-12,-9,0,2,-17
17:40:21:687149,-9,30,27,8,1,6,2,12
17:40:21:703459,9,-10,-9,-5,9,-6,-3,0
17:40:21:704259,9,-10,-9,-5,9,-6,-3,0
17:40:21:705052,4,9,-21,0,0,-3,4,2
17:40:21:717813,3,15,13,22,7,10,6,23
17:40:21:718658,3,15,13,22,7,10,6,23
17:40:21:732760,1,-1,-4,19,13,3,4,-4
17:40:21:733554,30,10,12,9,-1,3,10,27
17:40:21:739655,30,10,12,9,-1,3,10,27
17:40:21:747158,6,-25,12,19,-8,-20,-4,21
17:40:21:762862,4,-15,0,-12,11,10,1,0
17:40:21:763601,4,-15,0,-12,11,10,1,0
17:40:21:769577,1,5,-9,-14,-7,7,-2,-11
17:40:21:777811,-7,-6,3,-1,2,-7,-4,8
17:40:21:778623,-7,-6,3,-1,2,-7,-4,8
17:40:21:792111,-16,12,36,-12,-5,2,4,-9
17:40:21:800315,-16,12,36,-12,-5,2,4,-9
17:40:21:801291,-5,18,-13,3,15,-8,-11,-7
17:40:21:807086,-19,-9,-37,-7,6,22,3,-30
17:40:21:815349,-19,-9,-37,-7,6,22,3,-30
17:40:21:816171,0,17,41,11,-8,-7,-2,-16
17:40:21:829608,14,3,7,-28,-34,-22,-10,-4
17:40:21:837829,14,3,7,-28,-34,-22,-10,-4
17:40:21:838629,-8,9,-14,22,16,7,0,-22
17:40:21:844604,7,-12,-5,-4,23,11,12,12
17:40:21:860347,7,-12,-5,-4,23,11,12,12
17:40:21:861154,-11,-3,-11,-3,-18,-4,-2,8
17:40:21:867095,-7,-4,-22,11,-2,-2,-4,17
17:40:21:875298,-7,-4,-22,11,-2,-2,-4,17
17:40:21:876173,0,10,12,-6,-15,-15,-1,20
17:40:21:889646,-1,13,-16,-16,-26,-12,-6,1
17:40:21:897829,-1,13,-16,-16,-26,-12,-6,1
17:40:21:898721,13,-6,-42,-3,0,3,-3,1
17:40:21:904609,-1,-20,0,-7,40,23,5,-2
17:40:21:920373,-1,-20,0,-7,40,23,5,-2
17:40:21:921135,-5,-6,3,-10,10,-5,-4,-13
17:40:21:927096,4,18,16,10,1,-5,-5,-15
17:40:21:935325,4,18,16,10,1,-5,-5,-15
17:40:21:936134,-26,-27,-11,-6,8,16,2,-30
17:40:21:950098,-4,6,-2,2,-20,-18,-13,-24
17:40:21:957815,-4,6,-2,2,-20,-18,-13,-24
17:40:21:958603,-16,-9,8,-1,1,-8,-5,-10
17:40:21:964596,4,28,-5,1,18,6,-2,-10
17:40:21:980290,4,28,-5,1,18,6,-2,-10
17:40:21:981136,-11,-7,-18,8,-10,0,3,-7
17:40:21:987151,-15,-11,-7,2,0,3,-3,-39
17:40:21:995346,-15,-11,-7,2,0,3,-3,-39
17:40:21:996150,11,-21,-26,-20,-12,0,1,13
17:40:22:9631,8,-7,5,-4,-7,-7,0,26
17:40:22:17794,8,-7,5,-4,-7,-7,0,26
17:40:22:18585,-6,13,9,15,-6,-14,-2,0
17:40:22:24628,-8,-8,16,-4,-5,4,6,16
17:40:22:40757,-8,-8,16,-4,-5,4,6,16
17:40:22:41551,7,2,-10,-9,-7,2,5,32
17:40:22:47167,3,-19,-2,-1,11,16,6,12
17:40:22:55289,3,-19,-2,-1,11,16,6,12
17:40:22:56151,16,11,20,11,13,1,-1,19
17:40:22:70125,-9,-7,-23,-10,-16,-10,-8,-26
17:40:22:77794,-9,-7,-23,-10,-16,-10,-8,-26
17:40:22:78576,6,-4,-14,1,-4,-16,-4,-12
17:40:22:84606,-3,-16,0,11,16,10,2,3
17:40:22:100351,-3,-16,0,11,16,10,2,3
17:40:22:101226,17,11,12,-7,-2,8,2,13
17:40:22:107320,-43,-3,31,3,-15,-19,-4,-15
17:40:22:115296,-43,-3,31,3,-15,-19,-4,-15
17:40:22:116150,-3,-37,-15,3,-8,-6,-2,-6
17:40:22:129606,14,7,2,3,-6,0,5,30
17:40:22:137835,14,7,2,3,-6,0,5,30
17:40:22:138627,-3,25,-9,-5,-7,13,1,-7
17:40:22:144600,-18,-7,18,8,-12,-4,2,-3
17:40:22:160383,-18,-7,18,8,-12,-4,2,-3
17:40:22:161136,11,-7,-27,-22,-3,-5,-2,-10
17:40:22:167164,7,16,-26,2,28,22,3,-3
17:40:22:175363,7,16,-26,2,28,22,3,-3
17:40:22:176183,-3,-18,9,-23,-14,-15,-10,4
17:40:22:189592,-17,17,-4,-9,-17,-15,-2,7
17:40:22:197878,-17,17,-4,-9,-17,-15,-2,7
17:40:22:198623,-9,-5,18,16,12,3,-3,-11
17:40:22:204632,2,23,18,-3,1,2,1,-19
17:40:22:220330,2,23,18,-3,1,2,1,-19
17:40:22:221141,-20,0,21,-1,-22,-4,-13,-34
17:40:22:227093,5,5,-16,1,5,-7,-7,1
17:40:22:235355,5,5,-16,1,5,-7,-7,1
17:40:22:236149,-5,-9,5,-7,-4,-1,-1,0
17:40:22:258483,2,-12,43,-15,-3,-1,-6,-1
17:40:22:259280,2,-12,43,-15,-3,-1,-6,-1
17:40:22:260148,6,-2,3,19,2,-6,-2,9
17:40:22:264588,-12,6,2,4,-7,4,4,-4
17:40:22:288521,-12,6,2,4,-7,4,4,-4
17:40:22:289308,-1,-2,17,3,5,1,3,-5
17:40:22:290157,6,-19,-21,1,7,3,0,6
17:40:22:295280,6,-19,-21,1,7,3,0,6
17:40:22:296150,14,11,-7,-6,2,9,6,4
17:40:22:318464,-1,-27,-16,-15,-2,-12,-8,1
17:40:22:319281,-1,-27,-16,-15,-2,-12,-8,1
17:40:22:320162,10,-20,-3,3,29,29,13,35
17:40:22:324585,5,-17,-22,-14,-16,-19,-11,-28
17:40:22:348435,5,-17,-22,-14,-16,-19,-11,-28
17:40:22:349258,12,35,30,14,3,7,7,1
17:40:22:350057,-8,-33,-5,-2,0,1,-1,5
17:40:22:355281,-8,-33,-5,-2,0,1,-1,5
17:40:22:356146,-18,-10,-33,-7,-13,-9,-7,-24
17:40:22:369631,9,-4,23,12,-14,-12,-5,-6
17:40:22:377789,9,-4,23,12,-14,-12,-5,-6
17:40:22:378578,-10,16,29,-13,-3,2,1,-16
17:40:22:384617,2,15,-4,7,11,5,5,20
17:40:22:400372,2,15,-4,7,11,5,5,20
17:40:22:401155,-9,4,-5,-15,-6,-10,-4,-9
17:40:22:407159,41,30,7,11,25,17,9,36
17:40:22:415312,41,30,7,11,25,17,9,36
17:40:22:416156,9,18,-15,7,3,-10,-4,-9
17:40:22:429597,-16,-14,-21,-7,-16,-13,-3,-6
17:40:22:437856,-16,-14,-21,-7,-16,-13,-3,-6
17:40:22:438624,-4,-17,-3,13,21,17,6,17
17:40:22:444641,0,17,32,2,-4,8,5,2
17:40:22:460324,0,17,32,2,-4,8,5,2
17:40:22:461174,-7,-1,-1,-12,17,13,3,-10
17:40:22:467178,-38,-18,42,9,0,5,2,-17
17:40:22:475367,-38,-18,42,9,0,5,2,-17
17:40:22:476174,8,3,17,0,-24,-17,-6,13
17:40:22:489605,21,19,16,-2,-1,0,-1,-3
17:40:22:497862,21,19,16,-2,-1,0,-1,-3
17:40:22:498648,-2,-23,17,-1,-2,-2,-8,1
17:40:22:504620,-3,-13,-30,0,-17,-15,-5,-3
17:40:22:520327,-3,-13,-30,0,-17,-15,-5,-3
17:40:22:521173,6,16,-2,-13,0,10,0,-25
17:40:22:527083,5,8,-15,10,1,8,6,2
17:40:22:535339,5,8,-15,10,1,8,6,2
17:40:22:536146,-12,-13,17,13,-11,-19,-9,2
17:40:22:549588,-26,-3,-7,-3,9,0,2,-9
17:40:22:557824,-26,-3,-7,-3,9,0,2,-9
17:40:22:558630,-8,-7,17,-16,-13,-13,-9,0
17:40:22:564601,27,19,-22,-5,3,13,6,23
17:40:22:580335,27,19,-22,-5,3,13,6,23
17:40:22:581151,-9,5,-20,11,3,1,-1,7
17:40:22:587086,-6,-15,-7,-9,-17,-13,-8,-6
17:40:22:595320,-6,-15,-7,-9,-17,-13,-8,-6
17:40:22:596165,10,3,-44,-25,22,11,5,-1
17:40:22:609611,6,16,3,-6,-5,-9,-10,-9
17:40:22:618252,6,16,3,-6,-5,-9,-10,-9
17:40:22:625292,-1,7,-9,26,-7,-24,-3,5
17:40:22:626072,19,20,19,12,26,33,10,27
17:40:22:640359,19,20,19,12,26,33,10,27
17:40:22:641165,-11,-21,5,-16,-25,-5,-3,2
17:40:22:647088,20,19,-1,5,-3,0,2,-3
17:40:22:655328,20,19,-1,5,-3,0,2,-3
17:40:22:656163,9,10,44,1,-8,-2,1,1
17:40:22:669636,2,-30,-34,-8,-14,-11,-5,-17
17:40:22:677826,2,-30,-34,-8,-14,-11,-5,-17
17:40:22:678594,-7,7,-24,-15,18,6,0,-12
17:40:22:684600,-21,14,15,-5,-10,-7,-6,5
17:40:22:700304,-21,14,15,-5,-10,-7,-6,5
17:40:22:701163,-9,-16,-31,-13,-13,9,4,13
17:40:22:707156,-9,-3,4,2,-9,-20,-9,-11
17:40:22:714746,-9,-3,4,2,-9,-20,-9,-11
17:40:22:722103,6,5,0,8,4,-4,-1,6
17:40:22:729592,-9,-26,2,5,-7,-9,-2,30
17:40:22:737832,-9,-26,2,5,-7,-9,-2,30
17:40:22:738633,-5,8,18,-9,-3,0,3,-1
17:40:22:752078,-2,-6,37,7,-17,-11,1,9
17:40:22:760320,-2,-6,37,7,-17,-11,1,9
17:40:22:761152,4,-11,-7,12,-7,-2,-4,-4
17:40:22:767101,8,0,-31,-18,-10,1,-3,11
17:40:22:774650,8,0,-31,-18,-10,1,-3,11
17:40:22:782212,-2,-18,-7,11,2,11,4,-4
17:40:22:789598,1,-24,-36,-6,2,4,-1,7
17:40:22:797850,1,-24,-36,-6,2,4,-1,7
17:40:22:798631,-2,6,0,-16,-13,-19,-7,-6
17:40:22:812116,0,-10,2,-1,4,6,2,-25
17:40:22:820325,0,-10,2,-1,4,6,2,-25
17:40:22:821208,7,-8,-28,5,0,-8,2,17
17:40:22:827090,23,21,-17,-9,10,7,3,-6
17:40:22:834671,23,21,-17,-9,10,7,3,-6
17:40:22:842161,-11,-11,16,9,7,6,-4,-2
17:40:22:849608,-18,6,-38,8,10,-6,-3,-14
17:40:22:857781,-18,6,-38,8,10,-6,-3,-14
17:40:22:858582,-16,-21,8,9,18,11,-3,-21
17:40:22:872105,-5,-13,20,7,-3,4,2,1
17:40:22:880354,-5,-13,20,7,-3,4,2,1
17:40:22:881158,11,-23,24,-31,-21,-9,3,10
17:40:22:887146,-4,-7,14,4,17,10,2,-8
17:40:22:894625,-4,-7,14,4,17,10,2,-8
17:40:22:902176,15,39,-28,25,0,-12,-3,0
17:40:22:909631,-20,-24,-37,-9,4,10,-1,-28
17:40:22:917808,-20,-24,-37,-9,4,10,-1,-28
17:40:22:918612,-11,-18,2,11,-2,-9,-5,1
17:40:22:932239,-39,-9,18,-8,-7,-5,-4,-29
17:40:22:940283,-39,-9,18,-8,-7,-5,-4,-29
17:40:22:941167,38,29,7,7,4,-2,-4,-39
17:40:22:947167,9,1,41,-20,-21,-6,-1,2
17:40:22:954658,9,1,41,-20,-21,-6,-1,2
17:40:22:962070,-6,-24,-32,-9,0,9,9,12
17:40:22:969566,8,-8,17,6,-17,-20,-9,12
17:40:22:977834,8,-8,17,6,-17,-20,-9,12
17:40:22:978611,-10,-2,26,-5,4,14,2,11
17:40:22:992186,-7,4,-12,3,0,-4,-2,22
17:40:23:362,-7,4,-12,3,0,-4,-2,22
17:40:23:1167,-24,7,33,-2,-6,-11,-7,0
17:40:23:7069,21,-2,3,4,-3,-3,3,17
17:40:23:14674,21,-2,3,4,-3,-3,3,17
17:40:23:22103,21,29,22,13,4,6,-5,2
17:40:23:29597,-4,-13,-11,-10,-7,-5,-3,-19
17:40:23:37813,-4,-13,-11,-10,-7,-5,-3,-19
17:40:23:38638,-9,5,9,1,1,-1,2,4
17:40:23:52083,-6,-9,-12,3,6,-2,-2,0
17:40:23:60336,-6,-9,-12,3,6,-2,-2,0
17:40:23:61165,-6,-18,-13,-6,5,4,2,4
17:40:23:67126,-22,-13,14,14,38,24,11,15
17:40:23:74691,-22,-13,14,14,38,24,11,15
17:40:23:82108,-20,-9,-12,-1,8,-6,-4,0
17:40:23:89686,29,27,58,11,-9,-7,-6,-20
17:40:23:97851,29,27,58,11,-9,-7,-6,-20
17:40:23:98633,-21,-15,-35,-6,-6,-3,-1,-16
17:40:23:112095,6,40,3,-1,18,5,0,-4
17:40:23:120306,6,40,3,-1,18,5,0,-4
17:40:23:121140,10,11,0,-10,-10,-6,-8,-2
17:40:23:127103,23,-3,-21,-6,-12,3,0,0
17:40:23:134616,23,-3,-21,-6,-12,3,0,0
17:40:23:142145,31,23,1,14,1,5,6,17
17:40:23:149628,-9,-21,-42,-22,-8,-9,-7,-6
17:40:23:157827,-9,-21,-42,-22,-8,-9,-7,-6
17:40:23:158575,3,0,16,12,4,1,4,19
17:40:23:172116,-9,16,33,-7,2,-8,-5,-8
17:40:23:180286,-9,16,33,-7,2,-8,-5,-8
17:40:23:181162,-29,-36,-50,1,-4,-7,-8,-34
17:40:23:187163,4,-2,-15,0,7,5,5,11
17:40:23:194630,4,-2,-15,0,7,5,5,11
17:40:23:202174,12,19,9,-1,0,4,2,6
17:40:23:209624,6,22,-6,5,-3,17,10,5
17:40:23:217811,6,22,-6,5,-3,17,10,5
17:40:23:218613,-8,-4,9,-1,-16,-11,-4,-12
17:40:23:232185,-16,2,46,-1,-11,-13,-3,-18
17:40:23:240332,-16,2,46,-1,-11,-13,-3,-18
17:40:23:241164,-24,18,-4,-10,0,2,0,-9
17:40:23:247174,-12,-2,-28,1,-11,-7,-1,1
17:40:23:254642,-12,-2,-28,1,-11,-7,-1,1
17:40:23:262073,2,5,20,12,-1,-6,-6,-10
17:40:23:269596,8,-13,-7,-17,2,9,2,10
17:40:23:277845,8,-13,-7,-17,2,9,2,10
17:40:23:278620,18,10,15,7,1,2,2,39
17:40:23:292188,-4,4,-22,3,2,-8,-5,-1
17:40:23:300337,-4,4,-22,3,2,-8,-5,-1
17:40:23:301150,-6,-1,7,-13,-1,2,1,-9
17:40:23:307069,-5,-10,4,1,2,-1,-4,-3
17:40:23:314659,-5,-10,4,1,2,-1,-4,-3
17:40:23:322100,3,-10,-45,-2,-3,0,-1,6
17:40:23:329603,-12,-9,-20,-13,-7,-4,-9,-22
17:40:23:337827,-12,-9,-20,-13,-7,-4,-9,-22
17:40:23:338634,6,-24,-14,-6,-3,-6,-10,-43
17:40:23:352143,4,-1,-2,3,5,10,6,2
17:40:23:360335,4,-1,-2,3,5,10,6,2
17:40:23:361145,-4,7,11,-13,-4,-4,2,11
17:40:23:367109,6,-25,-23,6,-11,-9,8,40
17:40:23:374666,6,-25,-23,6,-11,-9,8,40
17:40:23:382192,24,6,-22,-44,-22,-14,-12,-21
17:40:23:389589,18,24,19,0,-3,-1,0,8
17:40:23:397768,18,24,19,0,-3,-1,0,8
17:40:23:398600,-2,-1,-82,-7,0,2,0,4
17:40:23:412103,-20,-16,3,8,2,0,-1,-34
17:40:23:420345,-20,-16,3,8,2,0,-1,-34
17:40:23:421216,2,-1,35,8,-1,-8,-3,8
17:40:23:427098,5,10,-20,14,6,5,-1,-6
17:40:23:434650,5,10,-20,14,6,5,-1,-6
17:40:23:442169,-15,-20,37,10,6,8,9,6
17:40:23:449611,-4,-26,-47,0,-18,-13,-5,-3
17:40:23:457844,-4,-26,-47,0,-18,-13,-5,-3
17:40:23:458612,-1,-12,-3,1,1,-1,1,24
17:40:23:472103,19,1,45,19,-9,-11,-13,-13
17:40:23:480284,19,1,45,19,-9,-11,-13,-13
17:40:23:481171,-12,-1,-17,0,8,4,3,-2
17:40:23:487204,2,-8,-17,-12,8,5,2,9
17:40:23:494618,2,-8,-17,-12,8,5,2,9
17:40:23:502084,18,12,15,6,1,0,0,1
17:40:23:509607,12,19,27,-13,4,2,-2,-3
17:40:23:517805,12,19,27,-13,4,2,-2,-3
17:40:23:518622,3,18,-34,-13,25,14,5,-2
17:40:23:532194,-15,15,5,9,13,0,3,4
17:40:23:540307,-15,15,5,9,13,0,3,4
17:40:23:541161,7,10,5,9,-1,7,-2,-15
17:40:23:547172,-18,-2,12,-9,-6,-11,1,7
17:40:23:554646,-18,-2,12,-9,-6,-11,1,7
17:40:23:562082,-15,-4,6,5,-1,-2,-3,-5
17:40:23:569589,-18,19,-3,-20,-9,-11,-7,-20
17:40:23:577821,-18,19,-3,-20,-9,-11,-7,-20
17:40:23:578614,-2,8,6,19,-9,-3,2,-2
17:40:23:592145,4,-5,16,11,7,4,1,-14
17:40:23:601054,4,-5,16,11,7,4,1,-14
17:40:23:601841,14,-21,18,-5,-3,4,2,5
17:40:23:607091,-16,-18,-6,-1,6,5,-2,-10
17:40:23:614725,-16,-18,-6,-1,6,5,-2,-10
17:40:23:622175,-5,-23,38,10,1,-11,-4,-4
17:40:23:629641,8,-36,-21,-3,0,9,5,14
17:40:23:637828,8,-36,-21,-3,0,9,5,14
17:40:23:638678,6,26,31,-3,-14,-9,-10,-1
17:40:23:652139,-17,17,-26,-17,-5,-5,-6,-7
17:40:23:660312,-17,17,-26,-17,-5,-5,-6,-7
17:40:23:661145,8,-15,-8,-11,2,1,-3,-6
17:40:23:675341,19,19,43,7,-18,-11,-6,-7
17:40:23:676151,19,19,43,7,-18,-11,-6,-7
17:40:23:682150,-16,14,-14,12,4,3,1,20
17:40:23:689600,-10,-8,-2,5,-5,-9,-6,2
17:40:23:697202,-10,-8,-2,5,-5,-9,-6,2
17:40:23:704634,-11,-5,21,-6,4,0,3,5
17:40:23:712142,12,-3,9,4,2,1,1,-15
17:40:23:720344,12,-3,9,4,2,1,1,-15
17:40:23:721161,-6,-15,-6,1,9,9,6,7
17:40:23:735329,14,13,-14,-14,-3,-1,0,6
17:40:23:736187,14,13,-14,-14,-3,-1,0,6
17:40:23:742087,-18,-34,36,9,-8,-5,-3,-25
17:40:23:749596,0,1,41,12,4,5,-9,36
17:40:23:757172,0,1,41,12,4,5,-9,36
17:40:23:764594,-16,21,-38,3,5,6,17,8
17:40:23:772096,-6,6,10,6,4,2,7,-3
17:40:23:780279,-6,6,10,6,4,2,7,-3
17:40:23:781170,10,0,-19,-5,-9,-19,-10,-5
17:40:23:795314,-4,-16,-45,-11,-4,12,-4,6
17:40:23:796147,-4,-16,-45,-11,-4,12,-4,6
17:40:23:802168,5,4,-8,-8,-6,-5,-10,-13
17:40:23:809580,2,-21,-5,-6,-7,-8,-3,-3
17:40:23:817165,2,-21,-5,-6,-7,-8,-3,-3
17:40:23:824614,1,5,9,0,-3,3,-5,-21
17:40:23:832217,-21,4,-10,-7,2,-1,3,-13
17:40:23:840307,-21,4,-10,-7,2,-1,3,-13
17:40:23:841169,-20,-3,-7,-7,11,3,13,14
17:40:23:855298,20,18,1,8,1,2,1,9
17:40:23:856165,20,18,1,8,1,2,1,9
17:40:23:862169,-3,-4,-9,-1,-1,8,3,14
17:40:23:869653,-5,-16,23,10,-8,-10,-5,19
17:40:23:877173,-5,-16,23,10,-8,-10,-5,19
17:40:23:884613,-34,-7,-23,2,1,1,-8,-24
17:40:23:892065,33,-6,10,-9,-7,-4,-7,-6
17:40:23:900341,33,-6,10,-9,-7,-4,-7,-6
17:40:23:901190,19,3,-9,-4,-8,-8,-7,3
17:40:23:915264,-36,1,6,12,18,12,8,-6
17:40:23:916176,-36,1,6,12,18,12,8,-6
17:40:23:922071,13,27,22,27,6,-3,-4,5
17:40:23:929576,2,23,16,1,3,2,8,13
17:40:23:937185,2,23,16,1,3,2,8,13
17:40:23:944590,0,-12,-6,-13,4,7,4,-2
17:40:23:952123,15,0,-16,-15,0,-3,1,15
17:40:23:960321,15,0,-16,-15,0,-3,1,15
17:40:23:961169,-5,5,9,-7,-17,-4,-5,-8
17:40:23:975389,4,14,13,-3,2,0,-15,-34
17:40:23:976154,4,14,13,-3,2,0,-15,-34
17:40:23:982112,11,10,11,7,10,1,-5,-14
17:40:23:989606,-7,5,-35,1,0,7,44,13
17:40:23:997197,-7,5,-35,1,0,7,44,13
17:40:24:4594,-14,-27,2,-6,-2,-3,0,-3
17:40:24:12102,10,9,-6,-9,-3,2,-16,13
17:40:24:20344,10,9,-6,-9,-3,2,-16,13
17:40:24:21146,-3,3,-15,2,-2,-8,-1,-2
17:40:24:35311,-3,-26,-5,0,12,-4,-10,-25
17:40:24:36227,-3,-26,-5,0,12,-4,-10,-25
17:40:24:42114,14,6,-12,-5,-10,-7,-4,4
17:40:24:49612,-37,-8,-40,-2,0,8,1,2
17:40:24:57182,-37,-8,-40,-2,0,8,1,2
17:40:24:64614,20,-7,-2,-10,-6,-8,-7,20
17:40:24:72093,-15,19,25,4,-1,-1,8,-15
17:40:24:80264,-15,19,25,4,-1,-1,8,-15
17:40:24:81107,-3,-8,-24,-7,3,-4,-22,-2
17:40:24:95248,-3,12,15,5,-5,-6,-13,-7
17:40:24:96156,-3,12,15,5,-5,-6,-13,-7
17:40:24:102169,8,-13,23,6,8,9,13,-1
17:40:24:109606,15,-45,-24,-11,-3,-5,-5,-9
17:40:24:117185,15,-45,-24,-11,-3,-5,-5,-9
17:40:24:124607,0,12,-5,1,-2,0,2,2
17:40:24:132176,3,8,-3,-21,6,1,5,1
17:40:24:140316,3,8,-3,-21,6,1,5,1
17:40:24:141196,-3,-2,-18,-6,-15,-9,-10,0
17:40:24:155288,-9,-17,-25,10,2,-5,-7,-11
17:40:24:156211,-9,-17,-25,10,2,-5,-7,-11
17:40:24:162158,23,-6,-21,-4,5,4,4,-5
17:40:24:169628,8,26,43,1,-2,-2,-5,-10
17:40:24:177171,8,26,43,1,-2,-2,-5,-10
17:40:24:184581,-19,-8,-7,2,-3,2,10,3
17:40:24:192074,0,3,28,23,2,3,3,15
17:40:24:200329,0,3,28,23,2,3,3,15
17:40:24:201168,2,-6,4,-24,-16,-4,0,-6
17:40:24:215364,0,-11,-13,1,-6,-3,-7,1
17:40:24:216177,0,-11,-13,1,-6,-3,-7,1
17:40:24:222079,-16,4,14,0,2,5,-3,-18
17:40:24:229577,7,-1,-7,6,-8,-5,-8,-11
17:40:24:237196,7,-1,-7,6,-8,-5,-8,-11
17:40:24:244587,28,-9,-16,-4,-2,-4,-2,-1
17:40:24:252109,-8,-1,15,-5,4,4,-1,-13
17:40:24:260341,-8,-1,15,-5,4,4,-1,-13
17:40:24:261175,-5,5,-17,-15,2,6,6,-1
17:40:24:275302,4,-9,-4,-7,23,10,-6,2
17:40:24:276171,4,-9,-4,-7,23,10,-6,2
17:40:24:282095,-10,1,21,25,-1,-6,-9,-1
17:40:24:289597,-12,4,-11,-7,-9,-8,22,-12
17:40:24:297185,-12,4,-11,-7,-9,-8,22,-12
17:40:24:304618,-1,22,30,-5,2,-8,-12,20
17:40:24:312106,16,-7,10,-4,-6,-3,-4,28
17:40:24:320335,16,-7,10,-4,-6,-3,-4,28
17:40:24:321178,-7,10,-7,-1,-8,-8,1,-16
17:40:24:335314,7,-2,-26,-1,-16,-2,-1,2
17:40:24:336190,7,-2,-26,-1,-16,-2,-1,2
17:40:24:342109,-24,-20,-3,3,0,5,9,16
17:40:24:349610,-12,5,24,5,-2,-5,2,5
17:40:24:357164,-12,5,24,5,-2,-5,2,5
17:40:24:364625,14,30,25,8,7,8,-8,3
17:40:24:372118,8,3,11,-8,-4,-6,-3,-6
17:40:24:380283,8,3,11,-8,-4,-6,-3,-6
17:40:24:381166,0,-11,8,8,10,4,-1,22
17:40:24:395266,7,2,-18,-13,8,7,3,-2
17:40:24:396068,7,2,-18,-13,8,7,3,-2
17:40:24:402170,-13,-5,8,7,-12,-7,-3,-21
17:40:24:409599,13,14,8,2,-5,1,-18,-7
17:40:24:417191,13,14,8,2,-5,1,-18,-7
17:40:24:424659,1,-17,10,-2,-2,-5,-4,-28
17:40:24:432164,-3,-4,-3,-3,-1,1,0,4
17:40:24:440388,-3,-4,-3,-3,-1,1,0,4
17:40:24:441178,1,0,-32,-12,2,-5,-3,-10
17:40:24:455296,-6,-8,-7,-7,-3,3,-5,13
17:40:24:456194,-6,-8,-7,-7,-3,3,-5,13
17:40:24:462074,10,11,14,9,18,4,-2,21
17:40:24:469579,-13,-4,-13,10,8,7,2,-38
17:40:24:477177,-13,-4,-13,10,8,7,2,-38
17:40:24:484576,-2,2,58,-10,11,4,2,-4
17:40:24:492086,15,-5,-18,4,3,-1,1,-3
17:40:24:500140,15,-5,-18,4,3,-1,1,-3
17:40:24:507099,-14,-6,13,4,-5,-5,-7,-31
17:40:24:515313,-19,-5,8,-9,-15,-6,13,-3
17:40:24:516180,-19,-5,8,-9,-15,-6,13,-3
17:40:24:522123,-6,4,-25,-17,-12,2,0,3
17:40:24:529604,-2,15,11,7,-2,-7,-8,8
17:40:24:537191,-2,15,11,7,-2,-7,-8,8
17:40:24:544628,-16,-5,6,12,-1,-1,-2,3
17:40:24:552112,31,-16,-16,-7,-3,2,3,24
17:40:24:561409,31,-16,-16,-7,-3,2,3,24
17:40:24:567167,33,12,-33,-6,-9,-1,5,35
17:40:24:575275,-7,0,8,2,-6,-6,0,-2
17:40:24:576233,-7,0,8,2,-6,-6,0,-2
17:40:24:582105,17,-29,-47,23,-5,-8,1,13
17:40:24:589575,-14,-5,20,-2,-4,-6,-8,-2
17:40:24:597194,-14,-5,20,-2,-4,-6,-8,-2
17:40:24:604648,-9,-26,-19,-11,9,5,5,10
17:40:24:612807,8,-21,15,19,-5,-9,-8,-10
17:40:24:613624,8,-21,15,19,-5,-9,-8,-10
17:40:24:627062,-3,5,2,13,12,13,14,-6
17:40:24:635282,-3,-5,-4,-3,6,4,7,14
17:40:24:636181,-3,-5,-4,-3,6,4,7,14
17:40:24:642094,32,41,19,-12,-10,-10,1,-14
17:40:24:657777,-20,-9,-27,1,0,1,-11,2
17:40:24:658620,-20,-9,-27,1,0,1,-11,2
17:40:24:664579,-34,10,7,-30,-43,2,0,-6
17:40:24:672838,-13,14,-16,1,-7,-10,-4,-12
17:40:24:673649,-13,14,-16,1,-7,-10,-4,-12
17:40:24:687186,11,18,-12,-32,-10,-3,-4,-6
17:40:24:695273,-15,-11,-29,-4,6,-2,3,5
17:40:24:696173,-15,-11,-29,-4,6,-2,3,5
17:40:24:702077,-14,-23,-51,14,3,-3,-2,1
17:40:24:717866,4,35,-7,-6,3,-3,-22,-31
17:40:24:718609,4,35,-7,-6,3,-3,-22,-31
17:40:24:724568,2,10,23,22,11,-7,-11,3
17:40:24:732794,-9,-15,4,-7,-8,-1,10,14
17:40:24:733635,-9,-15,4,-7,-8,-1,10,14
17:40:24:747184,-8,-6,25,1,3,1,-1,-10
17:40:24:755289,10,24,21,-6,0,12,0,-13
17:40:24:756243,10,24,21,-6,0,12,0,-13
17:40:24:762090,11,-47,-35,6,11,-3,9,12
17:40:24:777797,4,-30,34,-2,8,-3,-4,29
17:40:24:778622,4,-30,34,-2,8,-3,-4,29
17:40:24:784634,-11,-7,-15,-11,-6,0,-10,-10
17:40:24:792815,-2,17,-7,-8,0,4,10,-1
17:40:24:793614,-2,17,-7,-8,0,4,10,-1
17:40:24:816017,-7,-1,-21,14,-3,1,-7,-10
17:40:24:816768,-4,7,26,10,-6,-6,-4,-14
17:40:24:817609,-4,7,26,10,-6,-6,-4,-14
17:40:24:822108,-7,-3,22,-10,11,8,-5,-25
17:40:24:845932,-3,-14,-13,-9,-2,-2,-4,-13
17:40:24:846775,-3,-14,-13,-9,-2,-2,-4,-13
17:40:24:847572,-9,3,24,13,4,7,4,-1
17:40:24:852806,-3,-1,-13,-10,11,6,6,1
17:40:24:853652,-3,-1,-13,-10,11,6,6,1
17:40:24:867058,2,0,4,0,0,-4,32,12
17:40:24:875280,-13,-25,-35,-11,2,-5,-1,-4
17:40:24:876179,-13,-25,-35,-11,2,-5,-1,-4
17:40:24:882083,13,8,-1,2,3,-4,-12,6
17:40:24:897774,8,29,-2,-2,-12,-9,-7,3
17:40:24:898611,8,29,-2,-2,-12,-9,-7,3
17:40:24:904606,0,-7,-4,13,-1,-9,-9,-14
17:40:24:912786,-7,18,11,29,9,13,-1,15
17:40:24:913585,-7,18,11,29,9,13,-1,15
17:40:24:927130,3,4,-8,-9,-7,-9,11,8
17:40:24:935290,12,-15,21,-12,-10,-11,17,1
17:40:24:936176,12,-15,21,-12,-10,-11,17,1
17:40:24:942103,7,-3,-21,-3,-9,-6,-7,12
17:40:24:957777,22,-1,29,-5,-5,5,-10,17
17:40:24:958745,22,-1,29,-5,-5,5,-10,17
17:40:24:964647,-14,-11,-2,-8,-5,-2,-10,-8
17:40:24:972798,-5,6,-13,15,-6,-6,-10,-19
17:40:24:973598,-5,6,-13,15,-6,-6,-10,-19
17:40:24:987121,2,8,-43,-32,-15,-7,-14,5
17:40:24:995292,-17,-8,-17,-32,-12,-9,-8,-21
17:40:24:996083,-17,-8,-17,-32,-12,-9,-8,-21
17:40:25:2185,0,20,22,20,11,5,3,-9
17:40:25:17772,34,16,9,13,12,12,10,11
17:40:25:18580,34,16,9,13,12,12,10,11
17:40:25:24675,-16,-26,25,6,0,1,13,16
17:40:25:32786,7,11,15,22,3,-3,2,15
17:40:25:33600,7,11,15,22,3,-3,2,15
17:40:25:47117,-5,8,26,4,6,6,-1,-5
17:40:25:55317,-5,8,26,4,6,6,-1,-5
17:40:25:56078,-38,-30,-29,-2,11,-6,4,-40
17:40:25:62126,2,12,-3,3,2,5,6,-4
17:40:25:77858,2,12,-3,3,2,5,6,-4
17:40:25:78612,4,15,-31,-7,5,10,-14,7
17:40:25:84593,28,-16,-48,-7,-6,-7,-2,8
17:40:25:100338,28,-16,-48,-7,-6,-7,-2,8
17:40:25:101195,24,-16,-16,8,-4,-4,2,9
17:40:25:107126,-3,13,26,0,-1,-2,-5,0
17:40:25:115383,-3,13,26,0,-1,-2,-5,0
17:40:25:116183,-2,-9,-5,-18,-8,-10,-9,-22
17:40:25:122124,-9,-10,-42,-17,-6,-8,-3,-13
17:40:25:137852,-9,-10,-42,-17,-6,-8,-3,-13
17:40:25:138643,0,26,1,1,-3,18,10,13
17:40:25:144646,-22,-9,4,-7,-4,2,-2,-24
17:40:25:160317,-22,-9,4,-7,-4,2,-2,-24
17:40:25:161185,11,-7,35,1,-8,-15,6,4
17:40:25:167100,13,3,40,10,4,6,13,32
17:40:25:175341,13,3,40,10,4,6,13,32
17:40:25:176186,-5,-11,-24,-19,0,5,-5,-11
17:40:25:182136,0,-2,6,-14,-8,-9,-2,-13
17:40:25:197834,0,-2,6,-14,-8,-9,-2,-13
17:40:25:198616,-6,-6,11,7,10,7,2,7
17:40:25:204588,-13,15,-4,4,1,-2,-5,-12
17:40:25:220324,-13,15,-4,4,1,-2,-5,-12
17:40:25:221241,-32,2,3,5,-4,-6,-9,-47
17:40:25:227066,1,-13,12,-5,11,-3,-8,-5
17:40:25:235321,1,-13,12,-5,11,-3,-8,-5
17:40:25:236187,-9,12,41,13,3,-1,-1,0
17:40:25:242094,-6,-20,3,-12,-9,-1,-4,10
17:40:25:257830,-6,-20,3,-12,-9,-1,-4,10
17:40:25:258669,-8,-6,-3,-7,-12,-2,-5,7
17:40:25:264597,20,19,-7,-10,6,9,3,15
17:40:25:280362,20,19,-7,-10,6,9,3,15
17:40:25:281185,5,-29,-17,-8,-8,-13,-9,-17
17:40:25:287101,-1,-7,-8,-2,-5,-3,-1,-6
17:40:25:295310,-1,-7,-8,-2,-5,-3,-1,-6
17:40:25:296201,2,28,-14,-3,4,3,5,13
17:40:25:302089,-18,-19,5,4,-4,-2,-4,-11
17:40:25:317909,-18,-19,5,4,-4,-2,-4,-11
17:40:25:318655,5,6,5,8,9,7,3,24
17:40:25:324576,34,21,22,0,-6,1,13,30
17:40:25:340297,34,21,22,0,-6,1,13,30
17:40:25:341124,10,9,4,11,-2,-6,3,24
17:40:25:347065,4,1,-23,-20,-3,-11,-15,-5
17:40:25:355323,4,1,-23,-20,-3,-11,-15,-5
17:40:25:356293,-3,-39,-9,6,22,19,4,-15
17:40:25:362092,-26,-8,-25,11,2,0,-6,-13
17:40:25:377794,-26,-8,-25,11,2,0,-6,-13
17:40:25:378632,-8,8,-4,-6,-15,-17,-4,6
17:40:25:384583,-10,-4,-2,-15,0,10,5,-5
17:40:25:400289,-10,-4,-2,-15,0,10,5,-5
17:40:25:401163,6,4,-14,-22,-29,-14,-10,6
17:40:25:407126,-8,10,-4,0,-3,-3,-8,-1
17:40:25:415303,-8,10,-4,0,-3,-3,-8,-1
17:40:25:416185,5,0,14,5,0,-2,10,2
17:40:25:422079,6,-7,27,19,8,1,-6,-2
17:40:25:437818,6,-7,27,19,8,1,-6,-2
17:40:25:438672,-31,-15,0,-5,8,1,-7,-39
17:40:25:444600,9,7,16,6,-2,-3,4,3
17:40:25:460320,9,7,16,6,-2,-3,4,3
17:40:25:461087,-1,-12,-5,-23,2,7,3,18
17:40:25:467128,12,19,-26,-2,-4,4,-9,-15
17:40:25:475312,12,19,-26,-2,-4,4,-9,-15
17:40:25:476102,8,5,-23,-17,0,-1,-3,6
17:40:25:482197,-20,-12,-13,9,7,0,6,-2
17:40:25:497817,-20,-12,-13,9,7,0,6,-2
17:40:25:498585,-15,1,18,-3,-4,-6,5,-10
17:40:25:504606,-11,0,17,17,-15,-10,-9,-15
17:40:25:520361,-11,0,17,17,-15,-10,-9,-15
17:40:25:521430,-10,9,-25,11,7,8,5,0
17:40:25:527115,16,18,-3,-18,-14,-3,4,-12
17:40:25:535301,16,18,-3,-18,-14,-3,4,-12
17:40:25:536101,18,25,33,8,14,6,-1,4
17:40:25:549594,6,5,0,-11,0,0,-1,13
17:40:25:557847,6,5,0,-11,0,0,-1,13
17:40:25:558637,-28,16,-1,1,-2,3,9,-18
17:40:25:564627,-41,-25,9,4,2,-4,-7,0
17:40:25:580337,-41,-25,9,4,2,-4,-7,0
17:40:25:581163,15,-31,-1,2,1,1,-7,9
17:40:25:587103,6,10,9,-7,-17,-16,-1,-22
17:40:25:595292,6,10,9,-7,-17,-16,-1,-22
17:40:25:596080,-6,-8,8,-1,6,11,-1,11
17:40:25:609580,9,-7,10,25,14,11,1,13
17:40:25:617917,9,-7,10,25,14,11,1,13
17:40:25:618633,14,11,-14,-4,-2,-8,0,17
17:40:25:624619,-19,10,11,-14,0,-2,2,-4
17:40:25:632129,-19,10,11,-14,0,-2,2,-4
17:40:25:639664,-27,-8,-4,9,-12,-15,-3,-2
17:40:25:647126,28,22,0,2,10,10,2,4
17:40:25:655300,28,22,0,2,10,10,2,4
17:40:25:656085,21,-15,-10,4,-7,-4,1,15
17:40:25:669657,15,15,-38,12,6,4,2,11
17:40:25:677776,15,15,-38,12,6,4,2,11
17:40:25:678565,-20,-1,37,3,-8,-8,-4,-9
17:40:25:684629,3,1,12,-20,-16,-2,2,7
17:40:25:692168,3,1,12,-20,-16,-2,2,7
17:40:25:699569,10,-1,-2,14,6,11,0,12
17:40:25:707088,-20,-9,37,12,1,-7,-4,-25
17:40:25:715298,-20,-9,37,12,1,-7,-4,-25
17:40:25:716088,-24,-2,-6,-6,-6,-5,-13,-28
17:40:25:729639,35,-20,-12,-14,4,-3,-16,-17
17:40:25:737793,35,-20,-12,-14,4,-3,-16,-17
17:40:25:738580,40,1,-5,16,6,2,5,37
17:40:25:744633,-10,-1,45,25,18,5,-3,-7
17:40:25:752186,-10,-1,45,25,18,5,-3,-7
17:40:25:759607,13,-15,-58,-33,21,6,2,-3
17:40:25:767098,0,-2,-5,-15,-12,-3,3,11
17:40:25:775310,0,-2,-5,-15,-12,-3,3,11
17:40:25:776175,0,14,-8,24,-3,-1,2,-7
17:40:25:789624,-14,2,-22,-4,3,-2,2,3
17:40:25:797818,-14,2,-22,-4,3,-2,2,3
17:40:25:798624,-11,-23,6,-4,-18,-10,-7,-53
17:40:25:804601,6,-7,-12,3,-15,-2,0,11
17:40:25:812203,6,-7,-12,3,-15,-2,0,11
17:40:25:819687,-5,-8,14,0,-9,-3,-1,3
17:40:25:827082,-26,-25,-11,-12,1,12,6,-10
17:40:25:842847,-26,-25,-11,-12,1,12,6,-10
17:40:25:843601,10,7,-18,-5,0,-5,-17,19
17:40:25:849571,0,-13,0,8,0,3,5,33
17:40:25:857884,0,-13,0,8,0,3,5,33
17:40:25:858614,-3,-8,30,-16,-10,-3,6,20
17:40:25:864629,1,-18,-2,1,1,-12,-11,3
17:40:25:872201,1,-18,-2,1,1,-12,-11,3
17:40:25:879603,-17,-2,21,11,13,10,6,-8
17:40:25:887115,1,-28,-26,-26,-5,-2,2,-16
17:40:25:895281,1,-28,-26,-26,-5,-2,2,-16
17:40:25:896086,-11,-13,-15,5,-2,-7,-2,-8
17:40:25:909599,27,20,-10,-8,8,5,16,30
17:40:25:917847,27,20,-10,-8,8,5,16,30
17:40:25:918630,4,11,2,-5,-12,-13,13,4
17:40:25:924596,-8,10,-12,16,10,0,-4,14
17:40:25:932135,-8,10,-12,16,10,0,-4,14
17:40:25:939607,11,-4,-26,-5,-4,-2,-6,0
17:40:25:947145,18,6,3,1,6,1,0,1
17:40:25:955298,18,6,3,1,6,1,0,1
17:40:25:956114,-9,3,3,-5,-23,-20,-14,-22
17:40:25:969608,-19,-15,-7,16,12,5,-3,-9
17:40:25:977805,-19,-15,-7,16,12,5,-3,-9
17:40:25:978577,8,4,1,0,2,7,2,-7
17:40:25:984630,-31,-6,-6,-7,-3,-6,4,11
17:40:25:992221,-31,-6,-6,-7,-3,-6,4,11
17:40:25:999588,-5,20,19,-6,1,-5,0,12
17:40:26:7069,3,17,17,-1,-5,3,7,9
17:40:26:15321,3,17,17,-1,-5,3,7,9
17:40:26:16206,8,-1,-1,-6,-3,-7,1,-3
17:40:26:29644,7,25,4,-1,6,6,-1,-23
17:40:26:37773,7,25,4,-1,6,6,-1,-23
17:40:26:38615,13,34,-9,-6,-18,-1,-4,-5
17:40:26:44561,-9,-21,-6,0,-16,-14,-7,2
17:40:26:52207,-9,-21,-6,0,-16,-14,-7,2
17:40:26:59611,-3,-5,-68,-3,35,17,5,6
17:40:26:67116,6,9,16,-14,-3,4,-12,-16
17:40:26:75324,6,9,16,-14,-3,4,-12,-16
17:40:26:76178,-30,3,-39,-12,-7,-9,9,-22
17:40:26:89580,1,-6,-23,10,5,-8,-2,-21
17:40:26:97835,1,-6,-23,10,5,-8,-2,-21
17:40:26:98618,6,6,34,0,14,3,-10,-2
17:40:26:104589,-26,-18,11,-18,-12,-3,-6,-15
17:40:26:112227,-26,-18,11,-18,-12,-3,-6,-15
17:40:26:119601,-20,-21,1,5,3,3,11,-6
17:40:26:127166,19,23,7,7,-9,-15,-8,-9
17:40:26:135357,19,23,7,7,-9,-15,-8,-9
17:40:26:136190,1,-9,-8,-18,-3,2,-6,38
17:40:26:149632,20,8,-9,-4,14,29,20,29
17:40:26:157825,20,8,-9,-4,14,29,20,29
17:40:26:158642,5,11,21,14,-6,-7,10,-8
17:40:26:164609,16,5,30,3,-11,-15,-3,12
17:40:26:172196,16,5,30,3,-11,-15,-3,12
17:40:26:179613,1,4,7,4,7,8,6,-8
17:40:26:187128,-24,-25,-12,6,-3,-6,-20,-43
17:40:26:195301,-24,-25,-12,6,-3,-6,-20,-43
17:40:26:196069,2,2,6,5,10,7,-10,-7
17:40:26:209619,-2,13,-1,-5,11,13,12,10
17:40:26:217788,-2,13,-1,-5,11,13,12,10
17:40:26:218615,19,-6,-19,7,-4,-10,-6,1
17:40:26:224636,-16,-35,-79,-16,-2,6,8,15
17:40:26:232118,-16,-35,-79,-16,-2,6,8,15
17:40:26:239627,1,0,5,6,3,0,4,3
17:40:26:247115,1,5,3,-5,-8,-12,-6,-14
17:40:26:255289,1,5,3,-5,-8,-12,-6,-14
17:40:26:256101,9,4,5,8,10,18,0,-17
17:40:26:269628,4,9,15,36,-10,-5,-3,0
17:40:26:277789,4,9,15,36,-10,-5,-3,0
17:40:26:278584,-12,-12,0,-5,-3,-6,-6,-1
17:40:26:284671,-40,-24,11,11,0,-4,-2,-26
17:40:26:292186,-40,-24,11,11,0,-4,-2,-26
17:40:26:299566,-5,17,10,-8,-14,-9,-15,16
17:40:26:307071,2,5,-11,-13,2,1,7,-7
17:40:26:315354,2,5,-11,-13,2,1,7,-7
17:40:26:316266,-36,-17,-8,-6,-15,-5,-4,-13
17:40:26:329636,10,10,22,-12,-4,-2,-6,8
17:40:26:337848,10,10,22,-12,-4,-2,-6,8
17:40:26:338586,17,12,4,-27,-17,-2,10,14
17:40:26:344547,7,11,-2,13,17,12,-9,5
17:40:26:352214,7,11,-2,13,17,12,-9,5
17:40:26:359592,-16,-14,5,8,-10,-13,-18,-23
17:40:26:367104,-9,-20,-3,0,8,-4,-2,2
17:40:26:375325,-9,-20,-3,0,8,-4,-2,2
17:40:26:376181,12,5,18,9,14,11,6,-8
17:40:26:389588,15,-13,0,-5,-9,-3,-7,8
17:40:26:397824,15,-13,0,-5,-9,-3,-7,8
17:40:26:398664,-11,6,-17,-2,2,1,7,-7
17:40:26:404643,-17,17,4,-5,-8,-9,-4,-19
17:40:26:412210,-17,17,4,-5,-8,-9,-4,-19
17:40:26:419600,7,-19,7,-17,6,-9,7,-16
17:40:26:427105,-6,-3,-10,-9,-5,-7,-8,20
17:40:26:435299,-6,-3,-10,-9,-5,-7,-8,20
17:40:26:436061,1,-6,-40,13,15,0,-7,13
17:40:26:449608,2,11,-9,1,0,-1,2,5
17:40:26:457800,2,11,-9,1,0,-1,2,5
17:40:26:458632,-25,-3,12,-6,-1,4,-2,-13
17:40:26:464567,17,9,-7,-2,0,-1,0,6
17:40:26:472163,17,9,-7,-2,0,-1,0,6
17:40:26:479639,0,-18,-19,-5,-10,-8,2,3
17:40:26:487196,3,8,23,9,5,7,15,29
17:40:26:494622,3,8,23,9,5,7,15,29
17:40:26:502142,-47,-46,2,-6,-12,-11,-21,-2
17:40:26:509641,12,-1,-12,-32,-9,-2,1,0
17:40:26:517807,12,-1,-12,-32,-9,-2,1,0
17:40:26:518579,19,23,4,1,20,17,6,4
17:40:26:532780,-11,-12,11,2,-6,1,4,7
17:40:26:533584,-11,-12,11,2,-6,1,4,7
17:40:26:539630,6,9,2,4,-16,-9,0,-11
17:40:26:547128,12,5,9,4,8,4,-4,-14
17:40:26:554651,12,5,9,4,8,4,-4,-14
17:40:26:562063,17,0,1,13,-12,-3,6,6
17:40:26:569594,-20,1,7,-6,-1,1,4,-14
17:40:26:577800,-20,1,7,-6,-1,1,4,-14
17:40:26:578632,23,1,22,-2,-19,-7,6,16
17:40:26:592764,13,3,15,12,0,1,-3,-5
17:40:26:593614,13,3,15,12,0,1,-3,-5
17:40:26:599588,22,-4,-9,-8,4,11,2,27
17:40:26:607087,14,11,26,5,1,4,-4,3
17:40:26:614655,14,11,26,5,1,4,-4,3
17:40:26:622095,-6,22,-9,-12,6,6,16,-11
17:40:26:629597,-19,-5,-18,-4,9,3,-1,1
17:40:26:637817,-19,-5,-18,-4,9,3,-1,1
17:40:26:638640,-7,-13,-4,-3,5,1,-4,2
17:40:26:652803,-4,13,1,-21,-8,-3,-7,-18
17:40:26:653692,-4,13,1,-21,-8,-3,-7,-18
17:40:26:659570,-3,-19,-5,-3,-3,-2,-6,-6
17:40:26:667115,6,12,-7,0,-10,-3,-1,2
17:40:26:674682,6,12,-7,0,-10,-3,-1,2
17:40:26:682104,4,1,40,15,-7,-9,-12,12
17:40:26:689602,5,-6,6,15,-9,-5,-1,7
17:40:26:697772,5,-6,6,15,-9,-5,-1,7
17:40:26:698589,-3,-4,9,3,-2,-9,-5,-7
17:40:26:712843,-13,-10,-5,16,0,1,-3,-15
17:40:26:713663,-13,-10,-5,16,0,1,-3,-15
17:40:26:719619,-44,5,-11,6,4,-3,-8,-19
17:40:26:727077,-3,-8,10,-13,-10,-12,-1,23
17:40:26:734635,-3,-8,10,-13,-10,-12,-1,23
17:40:26:742127,13,16,-10,23,12,5,-2,-4
17:40:26:749618,-12,-9,7,-8,4,8,4,-3
17:40:26:757799,-12,-9,7,-8,4,8,4,-3
17:40:26:758565,35,6,-25,-21,-4,-6,2,28
17:40:26:772792,-20,-14,3,16,-3,-8,-15,-17
17:40:26:773589,-20,-14,3,16,-3,-8,-15,-17
17:40:26:779603,-5,9,31,3,-1,0,0,-7
17:40:26:787117,13,16,-22,-8,-3,1,-1,26
17:40:26:794630,13,16,-22,-8,-3,1,-1,26
17:40:26:802147,-40,-14,1,1,-5,-7,-3,-26
17:40:26:809626,3,0,-4,1,-1,2,1,-5
17:40:26:817795,3,0,-4,1,-1,2,1,-5
17:40:26:818566,16,-12,5,-14,2,4,-3,10
17:40:26:832784,-25,2,-37,7,-3,-12,-2,-33
17:40:26:833588,-25,2,-37,7,-3,-12,-2,-33
17:40:26:839571,-1,3,-22,-15,-4,-1,-7,-8
17:40:26:847141,18,-3,-33,4,11,1,2,5
17:40:26:854640,18,-3,-33,4,11,1,2,5
17:40:26:862061,6,12,-10,-14,-3,-7,-1,-2
17:40:26:869659,20,6,9,1,17,8,-9,-18
17:40:26:877890,20,6,9,1,17,8,-9,-18
17:40:26:878623,28,1,0,-15,-1,5,-5,15
17:40:26:892771,-14,-11,7,13,-7,-15,3,-13
17:40:26:893673,-14,-11,7,13,-7,-15,3,-13
17:40:26:899571,12,0,10,21,12,-1,-2,-6
17:40:26:907119,8,17,9,-14,-3,11,5,19
17:40:26:914670,8,17,9,-14,-3,11,5,19
17:40:26:922116,-19,-18,12,8,-2,4,8,-4
17:40:26:929592,-8,-37,-2,-14,-12,-14,0,24
17:40:26:937832,-8,-37,-2,-14,-12,-14,0,24
17:40:26:938617,15,6,-11,-4,-5,8,1,3
17:40:26:952874,4,2,-18,-15,5,1,0,-9
17:40:26:953617,4,2,-18,-15,5,1,0,-9
17:40:26:959611,1,3,7,-15,-2,-3,-3,-17
17:40:26:967111,-13,-19,-24,-10,-1,-2,-8,-14
17:40:26:974674,-13,-19,-24,-10,-1,-2,-8,-14
17:40:26:982118,-17,-30,-15,5,0,-5,19,8
17:40:26:989583,1,-19,20,23,4,5,4,17
17:40:26:997798,1,-19,20,23,4,5,4,17
17:40:26:998609,-3,21,5,10,4,10,-15,-9
17:40:27:12831,9,6,1,1,-5,-8,5,5
17:40:27:13656,9,6,1,1,-5,-8,5,5
17:40:27:19600,-16,-5,7,1,-3,-5,-1,1
17:40:27:27080,-25,-6,22,20,0,3,2,2
17:40:27:34672,-25,-6,22,20,0,3,2,2
17:40:27:42104,6,27,13,3,4,3,0,4
17:40:27:49652,6,11,-10,-14,-4,1,25,-4
17:40:27:57796,6,11,-10,-14,-4,1,25,-4
17:40:27:58588,-1,-26,-1,1,0,2,-2,15
17:40:27:72808,-9,2,17,1,5,-2,-11,-13
17:40:27:73578,-9,2,17,1,5,-2,-11,-13
17:40:27:79645,2,1,-23,1,-10,-2,-2,-17
17:40:27:87144,26,10,10,0,-5,-4,-11,-5
17:40:27:94639,26,10,10,0,-5,-4,-11,-5
17:40:27:102087,-32,-28,6,-26,-15,-13,-17,-10
17:40:27:109635,9,-8,-16,3,7,2,-16,-17
17:40:27:117813,9,-8,-16,3,7,2,-16,-17
17:40:27:118595,4,5,13,6,7,3,-5,18
17:40:27:132800,6,22,-35,-35,-11,-9,-6,-11
17:40:27:133612,6,22,-35,-35,-11,-9,-6,-11
17:40:27:139645,7,4,2,9,0,1,11,-6
17:40:27:147119,-5,7,9,-11,-11,0,-9,-2
17:40:27:154628,-5,7,9,-11,-11,0,-9,-2
17:40:27:162099,11,6,-8,-5,-4,-8,0,9
17:40:27:169581,-7,-14,-2,-1,7,7,3,1
17:40:27:177793,-7,-14,-2,-1,7,7,3,1
17:40:27:178598,-9,14,10,3,5,3,3,-31
17:40:27:192812,-15,-1,-23,5,11,7,6,-19
17:40:27:193603,-15,-1,-23,5,11,7,6,-19
17:40:27:199595,-4,-23,-12,8,-3,-1,-13,7
17:40:27:207067,-4,-7,-10,6,1,2,7,2
17:40:27:214655,-4,-7,-10,6,1,2,7,2
17:40:27:222095,1,0,-17,7,4,0,3,7
17:40:27:229629,-13,3,23,2,0,0,1,4
17:40:27:237825,-13,3,23,2,0,0,1,4
17:40:27:238613,2,9,22,-4,-5,6,9,10
17:40:27:252822,-4,-1,1,1,4,-5,-4,0
17:40:27:253617,-4,-1,1,1,4,-5,-4,0
17:40:27:259604,-10,10,-18,-14,-7,-5,-11,-23
17:40:27:267112,21,-12,4,0,-7,1,-9,20
17:40:27:274684,21,-12,4,0,-7,1,-9,20
17:40:27:282084,0,4,-2,2,2,-1,23,9
17:40:27:289614,-4,5,7,20,-5,4,1,10
17:40:27:297791,-4,5,7,20,-5,4,1,10
17:40:27:298574,8,11,21,5,1,-8,-14,17
17:40:27:312828,4,-2,4,-12,-13,-9,4,4
17:40:27:313642,4,-2,4,-12,-13,-9,4,4
17:40:27:319606,-7,5,-12,-6,-11,-4,-6,-6
17:40:27:327114,-12,-8,-17,-7,-4,-5,-5,-36
17:40:27:334642,-12,-8,-17,-7,-4,-5,-5,-36
17:40:27:342134,-14,-5,16,8,6,3,16,-3
17:40:27:349635,-20,1,-14,-10,7,7,-5,-18
17:40:27:357799,-20,1,-14,-10,7,7,-5,-18
17:40:27:358595,-3,1,-10,-6,2,0,-1,-10
17:40:27:372778,8,4,3,-1,0,-2,21,17
17:40:27:373576,8,4,3,-1,0,-2,21,17
17:40:27:379625,22,-14,-13,4,5,2,-7,-8
17:40:27:387142,19,-12,-13,-8,-4,-10,-11,-3
17:40:27:394649,19,-12,-13,-8,-4,-10,-11,-3
17:40:27:402081,-5,5,2,14,2,0,-5,2
17:40:27:409613,12,9,-35,-13,-5,2,-2,12
17:40:27:417277,12,9,-35,-13,-5,2,-2,12
17:40:27:424593,3,-14,-15,-12,-6,-10,-6,-6
17:40:27:440959,-22,-13,14,11,7,15,16,19
17:40:27:441748,-22,-13,14,11,7,15,16,19
17:40:27:442565,-4,-7,-13,-5,3,9,14,24
17:40:27:455316,2,6,12,2,1,-9,-10,-10
17:40:27:456087,2,6,12,2,1,-9,-10,-10
17:40:27:462194,22,9,18,11,2,6,9,4
17:40:27:469621,-5,4,21,4,-5,-5,-3,9
17:40:27:477151,-5,4,21,4,-5,-5,-3,9
17:40:27:484578,-11,-8,-16,-31,-15,-12,-8,7
17:40:27:492756,17,0,0,-1,18,16,-7,-9
17:40:27:493621,17,0,0,-1,18,16,-7,-9
17:40:27:499575,10,1,40,6,7,-3,5,2
17:40:27:515318,-14,6,4,2,0,2,1,-6
17:40:27:516144,-14,6,4,2,0,2,1,-6
17:40:27:522084,2,12,-3,0,4,3,-13,-22
17:40:27:529568,-1,-14,0,5,-14,-6,-3,-2
17:40:27:537200,-1,-14,0,5,-14,-6,-3,-2
17:40:27:544588,-1,11,-14,-10,-18,-6,-5,5
17:40:27:552874,-15,-20,-15,-12,-19,-19,-15,-28
17:40:27:553640,-15,-20,-15,-12,-19,-19,-15,-28
17:40:27:559602,-8,-9,3,5,-5,0,0,4
17:40:27:575329,1,8,-1,-8,8,5,8,11
17:40:27:576111,1,8,-1,-8,8,5,8,11
17:40:27:582082,22,-3,13,7,2,-2,3,-14
17:40:27:589575,-14,5,11,-18,-18,-11,-4,-11
17:40:27:597201,-14,5,11,-18,-18,-11,-4,-11
17:40:27:604628,-1,1,0,39,13,19,-6,-6
17:40:27:612829,14,22,19,-12,-4,-5,4,7
17:40:27:613658,14,22,19,-12,-4,-5,4,7
17:40:27:619608,-5,-10,5,3,-2,-13,-10,-36
17:40:27:635327,-26,-6,-19,7,9,2,-2,7
17:40:27:636205,-26,-6,-19,7,9,2,-2,7
17:40:27:642095,8,-3,-2,-17,-6,-1,1,3
17:40:27:649613,9,25,11,13,7,-1,-3,10
17:40:27:657212,9,25,11,13,7,-1,-3,10
17:40:27:664611,-8,-9,-20,14,8,8,-12,22
17:40:27:672750,15,-18,-13,8,-1,-3,-1,16
17:40:27:673577,15,-18,-13,8,-1,-3,-1,16
17:40:27:679634,3,-3,-15,-26,-13,-8,-6,12
17:40:27:695321,14,2,-15,7,0,4,2,-3
17:40:27:696201,14,2,-15,7,0,4,2,-3
17:40:27:702100,-6,3,-5,-18,-4,-3,-3,-13
17:40:27:709613,10,-18,-36,-1,2,3,3,-4
17:40:27:717141,10,-18,-36,-1,2,3,3,-4
17:40:27:724650,-3,-9,-11,-4,5,1,4,14
17:40:27:732793,-25,0,10,-15,-4,-4,-2,-32
17:40:27:733599,-25,0,10,-15,-4,-4,-2,-32
17:40:27:739577,7,20,1,2,7,-3,6,16
17:40:27:755303,0,1,15,-14,-8,0,3,14
17:40:27:756071,0,1,15,-14,-8,0,3,14
17:40:27:762154,-24,-1,6,-5,-15,-11,-4,-9
17:40:27:769624,-3,2,21,36,9,10,5,1
17:40:27:777134,-3,2,21,36,9,10,5,1
17:40:27:784567,-4,-7,-38,-5,-1,-1,15,16
17:40:27:792782,-15,13,12,-7,-2,0,-8,10
17:40:27:793639,-15,13,12,-7,-2,0,-8,10
17:40:27:807133,-37,22,3,4,14,9,4,8
17:40:27:815317,16,-18,-9,-7,1,2,10,10
17:40:27:816106,16,-18,-9,-7,1,2,10,10
17:40:27:822093,4,-7,49,35,3,0,-6,-12
17:40:27:829571,-6,8,9,16,-3,-6,-5,2
17:40:27:837256,-6,8,9,16,-3,-6,-5,2
17:40:27:844575,21,-6,10,-10,-2,2,5,-2
17:40:27:852826,-4,-10,-16,-12,8,-10,-9,-13
17:40:27:853644,-4,-10,-16,-12,8,-10,-9,-13
17:40:27:859630,-7,-9,35,2,17,10,-16,-37
17:40:27:875314,12,-39,-3,-14,-13,-6,-2,8
17:40:27:876282,12,-39,-3,-14,-13,-6,-2,8
17:40:27:882061,1,-4,4,2,-10,-7,-5,11
17:40:27:889607,-35,-19,-26,-18,-3,-5,-6,-37
17:40:27:897188,-35,-19,-26,-18,-3,-5,-6,-37
17:40:27:904619,9,-6,-23,10,-2,0,2,-9
17:40:27:912799,32,23,18,-4,-9,7,3,11
17:40:27:913624,32,23,18,-4,-9,7,3,11
17:40:27:919585,-20,-18,-16,-27,-18,-16,0,-30
17:40:27:935368,-5,1,-23,4,15,12,8,4
17:40:27:936207,-5,1,-23,4,15,12,8,4
17:40:27:942096,8,3,9,0,-2,-5,1,0
17:40:27:949590,5,7,6,12,-3,3,17,29
17:40:27:957234,5,7,6,12,-3,3,17,29
17:40:27:964625,-2,-28,-1,29,1,-2,-4,9
17:40:27:972825,-21,-1,3,-12,-8,-9,-13,-22
17:40:27:973630,-21,-1,3,-12,-8,-9,-13,-22
17:40:27:979612,-3,1,-16,-28,-24,-8,-3,-2
17:40:27:995269,13,-3,-13,0,2,-1,0,6
17:40:27:996070,13,-3,-13,0,2,-1,0,6
17:40:28:2145,-10,2,-38,-8,0,2,-3,-18
17:40:28:9619,10,18,-20,-12,1,-2,9,-1
17:40:28:17149,10,18,-20,-12,1,-2,9,-1
17:40:28:24625,-7,16,-3,15,7,-1,1,5
17:40:28:32797,4,-5,1,-5,1,-1,-6,-4
17:40:28:33601,4,-5,1,-5,1,-1,-6,-4
17:40:28:39645,9,4,1,-4,-2,-4,5,1
17:40:28:55292,-11,17,28,10,8,4,2,-33
17:40:28:56122,-11,17,28,10,8,4,2,-33
17:40:28:62165,-3,-16,8,6,2,9,-1,7
17:40:28:69671,6,8,-30,5,-3,-5,-7,-16
17:40:28:77174,6,8,-30,5,-3,-5,-7,-16
17:40:28:84600,4,-2,-3,10,-8,-2,1,6
17:40:28:92796,-2,-33,3,-10,-8,-4,-4,12
17:40:28:93638,-2,-33,3,-10,-8,-4,-4,12
17:40:28:99600,4,-27,-34,-39,0,0,-5,8
17:40:28:115313,-7,7,36,9,1,2,2,18
17:40:28:116117,-7,7,36,9,1,2,2,18
17:40:28:122083,-1,-16,-16,-7,-3,-8,-4,3
17:40:28:129578,12,7,31,21,7,8,6,6
17:40:28:137194,12,7,31,21,7,8,6,6
17:40:28:144583,-2,13,20,-10,7,6,-1,-1
17:40:28:152818,4,-6,-34,-19,-21,-23,-11,12
17:40:28:153638,4,-6,-34,-19,-21,-23,-11,12
17:40:28:159612,-2,-2,48,27,8,9,0,12
17:40:28:175297,0,9,-22,8,-3,-2,-5,-15
17:40:28:176209,0,9,-22,8,-3,-2,-5,-15
17:40:28:182107,-1,-8,-55,-23,-12,-6,-2,19
17:40:28:189577,-5,-3,31,-5,-12,-3,-8,9
17:40:28:197237,-5,-3,31,-5,-12,-3,-8,9
17:40:28:204602,8,38,31,2,-13,-11,-2,-13
17:40:28:212851,-9,-9,0,-8,1,18,6,-7
17:40:28:213671,-9,-9,0,-8,1,18,6,-7
17:40:28:219604,-7,8,-9,15,2,0,4,6
17:40:28:235348,29,2,40,26,21,-8,-4,16
17:40:28:236210,29,2,40,26,21,-8,-4,16
17:40:28:242096,6,7,15,-5,-5,-3,0,17
17:40:28:249606,-22,-4,-44,-2,1,-1,2,-10
17:40:28:257223,-22,-4,-44,-2,1,-1,2,-10
17:40:28:264606,-35,-5,-11,-11,9,2,1,-14
17:40:28:272851,23,-2,4,49,34,-1,0,16
17:40:28:273577,23,-2,4,49,34,-1,0,16
17:40:28:279615,20,21,0,19,-25,-2,2,-3
17:40:28:295271,-12,-11,13,5,-23,-11,-6,-17
17:40:28:296075,-12,-11,13,5,-23,-11,-6,-17
17:40:28:302124,-21,-6,18,-8,-5,-6,-2,-31
17:40:28:309617,29,40,3,-1,1,2,0,28
17:40:28:317161,29,40,3,-1,1,2,0,28
17:40:28:324644,29,5,17,21,15,4,6,36
17:40:28:332823,29,5,17,21,15,4,6,36
17:40:28:333611,-19,9,13,2,-6,-15,-9,-40
17:40:28:339613,-8,1,-11,-19,29,22,6,7
17:40:28:355372,-8,1,-11,-19,29,22,6,7
17:40:28:356088,-11,13,40,-14,-10,1,2,17
17:40:28:362117,-1,-19,-3,-3,-7,-13,-10,-8
17:40:28:377785,-1,-19,-3,-3,-7,-13,-10,-8
17:40:28:378574,-14,-4,26,-24,-4,9,4,16
17:40:28:384671,7,7,-14,-48,-11,-5,-4,-7
17:40:28:392795,7,7,-14,-48,-11,-5,-4,-7
17:40:28:393616,7,-8,-32,-46,-16,11,1,-7
17:40:28:407130,0,-44,-8,-29,-20,1,4,13
17:40:28:423495,0,-44,-8,-29,-20,1,4,13
17:40:28:424337,-4,-25,-24,-17,0,-1,1,-12
17:40:28:425112,11,3,-22,13,-26,-15,-4,-10
17:40:28:438297,11,3,-22,13,-26,-15,-4,-10
17:40:28:439083,10,25,-7,11,14,3,5,5
17:40:28:444578,-1,2,53,16,10,-1,-5,-18
17:40:28:452821,-1,2,53,16,10,-1,-5,-18
17:40:28:453607,-6,10,-15,-9,-7,-4,-11,-17
17:40:28:467557,-9,14,-6,17,22,11,11,19
17:40:28:475330,-9,14,-6,17,22,11,11,19
17:40:28:476113,4,-6,1,-30,-2,1,2,6
17:40:28:482092,-13,5,12,7,6,2,-7,-24
17:40:28:498265,-13,5,12,7,6,2,-7,-24
17:40:28:499079,-12,-32,-4,31,13,-10,-6,-4
17:40:28:504576,17,11,-27,-6,15,6,8,24
17:40:28:512870,17,11,-27,-6,15,6,8,24
17:40:28:513605,-5,8,15,-10,-4,-2,1,5
17:40:28:527069,-11,7,1,-9,-3,-6,-5,-17
17:40:28:535348,-11,7,1,-9,-3,-6,-5,-17
17:40:28:536130,15,-3,-10,-6,-9,3,-2,9
17:40:28:542079,39,5,3,32,-1,-11,-10,-24
17:40:28:557886,39,5,3,32,-1,-11,-10,-24
17:40:28:558597,-6,-7,-43,12,5,-11,-8,-9
17:40:28:564579,-20,-8,0,-21,-3,13,-11,-23
17:40:28:572830,-20,-8,0,-21,-3,13,-11,-23
17:40:28:573672,-15,11,1,8,-6,0,-5,-4
17:40:28:587124,-24,-10,-14,-5,-16,-13,-4,-19
17:40:28:595273,-24,-10,-14,-5,-16,-13,-4,-19
17:40:28:596084,-5,-1,25,14,-1,4,8,-38
17:40:28:602059,10,-8,-15,10,-5,0,-6,-14
17:40:28:617815,10,-8,-15,10,-5,0,-6,-14
17:40:28:618686,5,-10,15,-6,-13,-2,1,-4
17:40:28:624573,8,26,-17,-6,-1,2,2,25
17:40:28:632837,8,26,-17,-6,-1,2,2,25
17:40:28:633617,-5,-41,-8,10,5,-3,3,18
17:40:28:647130,7,-13,-1,-6,4,2,-2,-28
17:40:28:655288,7,-13,-1,-6,4,2,-2,-28
17:40:28:656079,12,44,66,62,3,1,-5,3
17:40:28:662051,-23,-5,2,-5,-5,0,-7,-35
17:40:28:685989,-23,-5,2,-5,-5,0,-7,-35
17:40:28:686761,-1,-6,-31,-8,-10,1,5,6
17:40:28:687611,15,23,22,18,21,-4,-5,11
17:40:28:692656,15,23,22,18,21,-4,-5,11
17:40:28:699657,-2,-16,-48,-24,3,1,3,11
17:40:28:707145,-31,-16,-1,-3,5,-5,5,23
17:40:28:715334,-31,-16,-1,-3,5,-5,5,23
17:40:28:716090,7,17,-20,-4,6,-1,-1,-5
17:40:28:722102,-24,-9,-38,15,11,10,-3,-46
17:40:28:737845,-24,-9,-38,15,11,10,-3,-46
17:40:28:738590,9,-10,-23,-28,-4,-11,-6,-6
17:40:28:744587,-24,-25,15,4,1,-12,0,14
17:40:28:752807,-24,-25,15,4,1,-12,0,14
17:40:28:753607,13,10,33,-22,-30,-14,-4,-18
17:40:28:767133,17,-17,-4,39,19,21,10,10
17:40:28:775302,17,-17,-4,39,19,21,10,10
17:40:28:776094,-13,-9,10,-9,-3,0,-3,-13
17:40:28:782118,36,3,-17,-25,-24,-11,-1,21
17:40:28:797847,36,3,-17,-25,-24,-11,-1,21
17:40:28:798636,9,5,24,6,-14,-19,-1,13
17:40:28:804689,-3,14,15,14,9,13,7,11
17:40:28:812806,-3,14,15,14,9,13,7,11
17:40:28:813578,-5,-11,-8,-7,4,2,-3,-11
17:40:28:827074,6,13,11,7,-4,-6,-2,21
17:40:28:835341,6,13,11,7,-4,-6,-2,21
17:40:28:836196,-14,5,-3,-1,5,16,4,13
17:40:28:842105,2,-14,-1,-34,-21,-20,-8,-9
17:40:28:857838,2,-14,-1,-34,-21,-20,-8,-9
17:40:28:858643,-21,-3,26,3,13,8,1,-7
17:40:28:864585,1,10,40,-24,-12,-13,-7,5
17:40:28:872852,1,10,40,-24,-12,-13,-7,5
17:40:28:873622,11,32,18,1,7,6,0,-3
17:40:28:887109,37,-23,-26,-7,-5,8,13,37
17:40:28:895314,37,-23,-26,-7,-5,8,13,37
17:40:28:896094,-25,-27,-26,5,-12,-12,-10,-21
17:40:28:902109,-22,-13,0,5,13,7,2,-1
17:40:28:917808,-22,-13,0,5,13,7,2,-1
17:40:28:918604,12,4,-13,-3,21,13,4,21
17:40:28:924597,6,18,-15,1,-9,-15,-13,-23
17:40:28:932865,6,18,-15,1,-9,-15,-13,-23
17:40:28:933634,-5,-25,-7,-22,5,6,0,9
17:40:28:947115,-11,21,-41,-8,-3,-6,-7,-9
17:40:28:955339,-11,21,-41,-8,-3,-6,-7,-9
17:40:28:956130,-7,-8,-21,-4,0,0,-3,-15
17:40:28:962076,-6,3,15,-8,-7,-6,-1,-9
17:40:28:977823,-6,3,15,-8,-7,-6,-1,-9
17:40:28:978608,3,-23,6,7,15,9,8,7
17:40:28:984583,-17,2,4,-1,8,5,6,-9
17:40:28:992842,-17,2,4,-1,8,5,6,-9
17:40:28:993651,15,14,-7,10,-12,-10,0,9
17:40:29:7072,-11,-12,-5,9,8,8,2,-8
17:40:29:15160,-11,-12,-5,9,8,8,2,-8
17:40:29:22733,1,17,-13,1,-7,-5,-2,-2
17:40:29:23550,-34,-9,20,-21,8,5,4,15
17:40:29:37807,-34,-9,20,-21,8,5,4,15
17:40:29:38610,4,19,8,24,-17,-3,0,15
17:40:29:44570,11,-13,16,-8,-6,-5,-7,1
17:40:29:52826,11,-13,16,-8,-6,-5,-7,1
17:40:29:53624,-15,-31,0,-7,-24,-19,-10,-18
17:40:29:67097,13,10,17,-16,-2,12,6,8
17:40:29:75290,13,10,17,-16,-2,12,6,8
17:40:29:76181,-6,13,-2,0,-5,-9,-3,-2
17:40:29:82069,-23,8,-22,26,-9,-13,-6,4
17:40:29:97811,-23,8,-22,26,-9,-13,-6,4
17:40:29:98579,10,-11,20,-1,19,5,-2,-2
17:40:29:104572,29,7,9,18,18,15,8,23
17:40:29:112841,29,7,9,18,18,15,8,23
17:40:29:113613,-1,-8,-40,-21,-4,-3,-4,-10
17:40:29:127114,-4,2,22,20,-6,-14,-8,2
17:40:29:135358,-4,2,22,20,-6,-14,-8,2
17:40:29:136094,-6,-23,-24,-13,17,14,4,0
17:40:29:142062,-2,-1,10,17,-7,0,4,10
17:40:29:157816,-2,-1,10,17,-7,0,4,10
17:40:29:158580,4,28,10,-3,7,1,4,14
17:40:29:164631,3,-17,-30,-2,1,-5,-4,-10
17:40:29:172793,3,-17,-30,-2,1,-5,-4,-10
17:40:29:173636,-10,5,29,8,-7,-3,-3,3
17:40:29:187189,-25,-5,-29,-22,-25,-13,-9,-20
17:40:29:195296,-25,-5,-29,-22,-25,-13,-9,-20
17:40:29:196073,-18,-12,-2,11,8,10,4,-13
17:40:29:202107,23,22,16,-13,17,18,4,0
17:40:29:217818,23,22,16,-13,17,18,4,0
17:40:29:218673,18,-9,0,8,-7,-13,-3,23
17:40:29:224632,3,-1,13,-15,-6,-9,-5,2
17:40:29:232801,3,-1,13,-15,-6,-9,-5,2
17:40:29:233579,2,18,9,21,6,10,10,9
17:40:29:247135,-14,-6,10,-21,-18,-24,-5,-21
17:40:29:255272,-14,-6,10,-21,-18,-24,-5,-21
17:40:29:256085,2,8,-4,-8,1,19,3,-6
17:40:29:269611,-11,-4,-14,34,18,8,1,-9
17:40:29:277819,-11,-4,-14,34,18,8,1,-9
17:40:29:278652,18,25,-17,2,-10,-15,-7,-11
17:40:29:284627,-3,-13,-12,-29,-14,-11,-10,-10
17:40:29:293261,-3,-13,-12,-29,-14,-11,-10,-10
17:40:29:299630,-29,5,28,1,8,6,0,8
17:40:29:307120,17,-3,35,30,2,1,4,10
17:40:29:315374,17,-3,35,30,2,1,4,10
17:40:29:316093,22,-8,-36,-19,-6,-18,-8,-11
17:40:29:322043,-8,3,17,-14,6,18,6,4
17:40:29:337854,-8,3,17,-14,6,18,6,4
17:40:29:338576,-1,11,33,-9,2,5,1,-8
17:40:29:344609,6,-16,-38,-3,3,9,2,-1
17:40:29:360266,6,-16,-38,-3,3,9,2,-1
17:40:29:361066,1,-12,3,8,-3,-1,-1,15
17:40:29:367113,8,8,-23,-1,-1,-9,-1,-14
17:40:29:375355,8,8,-23,-1,-1,-9,-1,-14
17:40:29:376072,20,7,50,0,-12,-9,-1,4
17:40:29:389609,-7,4,-9,0,-1,5,2,6
17:40:29:397768,-7,4,-9,0,-1,5,2,6
17:40:29:398658,5,-32,-28,-13,-6,-6,0,4
17:40:29:404609,18,11,20,22,16,-3,-6,-11
17:40:29:412126,18,11,20,22,16,-3,-6,-11
17:40:29:419649,-23,0,-1,-5,10,3,-1,1
17:40:29:427111,23,-4,-3,0,0,8,20,10
17:40:29:435309,23,-4,-3,0,0,8,20,10
17:40:29:436094,-25,-36,-24,-5,-22,-22,-13,8
17:40:29:449740,-9,3,-14,15,29,19,-7,-4
17:40:29:457826,-9,3,-14,15,29,19,-7,-4
17:40:29:458591,7,-2,23,4,-1,-3,2,-2
17:40:29:464587,1,28,7,-22,-26,-19,-13,-35
17:40:29:472153,1,28,7,-22,-26,-19,-13,-35
17:40:29:479586,7,6,-56,-17,4,5,2,-11
17:40:29:487076,-36,-7,-8,-5,-7,-1,-3,-34
17:40:29:495329,-36,-7,-8,-5,-7,-1,-3,-34
17:40:29:496129,-21,-12,-7,6,1,-4,-7,-20
17:40:29:509613,-4,-20,-43,-22,-8,-5,-3,9
17:40:29:517809,-4,-20,-43,-22,-8,-5,-3,9
17:40:29:518682,3,18,16,21,11,13,4,0
17:40:29:524553,0,-11,31,10,-10,-17,-8,3
17:40:29:532148,0,-11,31,10,-10,-17,-8,3
17:40:29:539639,9,15,4,-2,-8,0,6,-7
17:40:29:547078,8,5,-9,-8,-4,1,1,4
17:40:29:555322,8,5,-9,-8,-4,1,1,4
17:40:29:556107,66,21,11,-18,-18,-9,-7,16
17:40:29:569573,0,-1,-17,-11,-3,0,4,22
17:40:29:577824,0,-1,-17,-11,-3,0,4,22
17:40:29:578611,-23,-19,-93,-22,-7,1,-3,-22
17:40:29:584596,38,24,13,-9,4,12,4,23
17:40:29:592285,38,24,13,-9,4,12,4,23
17:40:29:599597,-34,1,45,6,-6,-4,-3,-9
17:40:29:607083,-36,-25,-16,8,-15,-6,4,15
17:40:29:615285,-36,-25,-16,8,-15,-6,4,15
17:40:29:616072,3,-4,21,14,11,-12,-10,9
17:40:29:638464,0,6,26,5,11,15,0,-10
17:40:29:639270,0,6,26,5,11,15,0,-10
17:40:29:640080,-1,-2,-9,-1,13,10,10,10
17:40:29:644613,-4,7,-14,-4,1,-9,-8,6
17:40:29:652205,-4,7,-14,-4,1,-9,-8,6
17:40:29:659565,-21,-36,21,12,1,-7,-10,-25
17:40:29:667130,37,6,9,10,8,9,19,34
17:40:29:675315,37,6,9,10,8,9,19,34
17:40:29:676109,-62,-5,-22,-8,-12,-21,-16,-33
17:40:29:689580,-7,-8,15,-1,11,19,3,-6
17:40:29:697826,-7,-8,15,-1,11,19,3,-6
17:40:29:698605,36,27,2,2,15,10,10,29
17:40:29:704730,-19,5,-15,5,33,-3,-9,-4
17:40:29:712212,-19,5,-15,5,33,-3,-9,-4
17:40:29:719629,2,-22,-71,-11,1,5,4,-17
17:40:29:727114,16,27,3,7,-15,-10,-5,-27
17:40:29:735313,16,27,3,7,-15,-10,-5,-27
17:40:29:736147,3,32,49,-5,-2,7,5,12
17:40:29:749608,-9,2,34,0,-13,-12,-8,-13
17:40:29:757762,-9,2,34,0,-13,-12,-8,-13
17:40:29:758599,-19,-21,16,1,6,4,1,-16
17:40:29:764648,-37,-11,18,-3,7,17,0,-3
17:40:29:772133,-37,-11,18,-3,7,17,0,-3
17:40:29:779573,-8,11,0,5,24,12,6,1
17:40:29:787076,-3,-17,20,3,-21,-22,-14,-57
17:40:29:795291,-3,-17,20,3,-21,-22,-14,-57
17:40:29:796082,-3,-14,-15,20,11,11,-1,-4
17:40:29:809645,-5,-14,-20,2,1,7,7,24
17:40:29:817807,-5,-14,-20,2,1,7,7,24
17:40:29:818584,-3,2,0,-4,-22,-15,-10,-24
17:40:29:824567,7,-16,-2,-4,-7,-8,-1,6
17:40:29:832150,7,-16,-2,-4,-7,-8,-1,6
17:40:29:839575,14,23,33,-3,-2,-1,-1,32
17:40:29:847067,-20,-13,2,8,11,4,1,-16
17:40:29:855315,-20,-13,2,8,11,4,1,-16
17:40:29:856120,9,-19,-2,-13,18,18,6,-3
17:40:29:869636,18,13,7,-20,-2,-1,3,20
17:40:29:877789,18,13,7,-20,-2,-1,3,20
17:40:29:878605,4,-8,-3,14,-5,8,1,-6
17:40:29:884578,27,19,-13,-3,-6,-6,0,7
17:40:29:892156,27,19,-13,-3,-6,-6,0,7
17:40:29:899615,-8,-21,-43,-12,-19,-26,-9,5
17:40:29:907130,-7,-2,-29,58,1,5,2,12
17:40:29:915327,-7,-2,-29,58,1,5,2,12
17:40:29:916113,2,14,-3,6,-5,-3,1,18
17:40:29:929571,19,-7,0,6,12,10,-1,1
17:40:29:937837,19,-7,0,6,12,10,-1,1
17:40:29:938603,0,11,42,-17,1,4,4,11
17:40:29:944577,-20,-21,5,-29,-12,-18,-17,-28
17:40:29:952300,-20,-21,5,-29,-12,-18,-17,-28
17:40:29:959661,-16,-23,-30,-19,-18,-3,1,-9
17:40:29:967112,-1,1,-41,-15,-16,-11,-2,10
17:40:29:975400,-1,1,-41,-15,-16,-11,-2,10
17:40:29:976082,-4,3,29,20,-6,6,-1,-2
17:40:29:989600,-4,-7,-26,-28,-12,7,1,1
17:40:29:997820,-4,-7,-26,-28,-12,7,1,1
17:40:29:998646,13,-7,-20,-17,-8,-11,-4,-8
17:40:30:4604,-8,-10,-47,-11,13,3,0,16
17:40:30:12118,-8,-10,-47,-11,13,3,0,16
17:40:30:19622,21,13,-38,-7,-7,0,2,-4
17:40:30:27124,-9,-3,23,-1,-7,-18,-9,9
17:40:30:35310,-9,-3,23,-1,-7,-18,-9,9
17:40:30:36094,-5,15,9,7,18,19,6,1
17:40:30:49614,6,10,-42,-8,-10,-12,-2,-1
17:40:30:57753,6,10,-42,-8,-10,-12,-2,-1
17:40:30:58584,-3,-11,10,4,-2,-3,-7,-9
17:40:30:64624,-14,-21,21,24,-7,0,-2,-5
17:40:30:72118,-14,-21,21,24,-7,0,-2,-5
17:40:30:79578,-14,-11,18,-24,-28,-13,-8,-9
17:40:30:87107,-7,6,19,-19,-2,11,6,-5
17:40:30:95301,-7,6,19,-19,-2,11,6,-5
17:40:30:96093,-7,-7,3,4,-12,-23,-11,2
17:40:30:109657,-21,21,15,3,2,15,7,1
17:40:30:117826,-21,21,15,3,2,15,7,1
17:40:30:118596,14,6,25,-3,2,-8,-8,5
17:40:30:124577,-2,-17,-2,7,11,-8,-5,-8
17:40:30:132181,-2,-17,-2,7,11,-8,-5,-8
17:40:30:139577,-1,3,-24,6,7,4,3,13
17:40:30:147093,19,1,13,-30,8,3,-1,-6
17:40:30:155299,19,1,13,-30,8,3,-1,-6
17:40:30:156095,2,2,-5,6,11,-5,-1,-8
17:40:30:169590,11,-2,-14,0,30,20,8,18
17:40:30:177788,11,-2,-14,0,30,20,8,18
17:40:30:178605,-15,-17,-6,3,3,6,7,18
17:40:30:184576,-9,-22,3,-1,-26,-29,-16,-23
17:40:30:192163,-9,-22,3,-1,-26,-29,-16,-23
17:40:30:199615,-5,5,25,-6,-1,6,-2,-21
17:40:30:207099,13,47,30,4,-8,-9,-6,-29
17:40:30:215331,13,47,30,4,-8,-9,-6,-29
17:40:30:216130,3,-4,-12,-13,8,14,8,-10
17:40:30:229578,18,12,14,2,-6,-1,5,25
17:40:30:237827,18,12,14,2,-6,-1,5,25
17:40:30:238611,-2,12,34,17,7,-2,-3,-19
17:40:30:244599,-7,-8,-5,-8,-2,5,2,0
17:40:30:252279,-7,-8,-5,-8,-2,5,2,0
17:40:30:259579,2,-22,-41,-5,-9,-17,-8,0
17:40:30:267106,-11,-9,-6,-6,-1,-7,-9,-14
17:40:30:274668,-11,-9,-6,-6,-1,-7,-9,-14
17:40:30:282129,-16,-23,-27,-13,11,7,1,-11
17:40:30:289609,-5,1,-17,-11,9,11,6,-8
17:40:30:297799,-5,1,-17,-11,9,11,6,-8
17:40:30:298584,4,9,-8,7,-5,-6,-3,-5
17:40:30:312766,3,-10,-14,-4,-7,13,11,25
17:40:30:313582,3,-10,-14,-4,-7,13,11,25
17:40:30:319616,-7,-7,16,10,4,-9,-7,-21
17:40:30:327110,-19,0,-5,7,-5,-3,-2,2
17:40:30:334633,-19,0,-5,7,-5,-3,-2,2
17:40:30:342073,-11,-24,5,14,-18,-8,-6,-3
17:40:30:349572,2,-1,-29,-14,-5,-10,-6,-4
17:40:30:365280,2,-1,-29,-14,-5,-10,-6,-4
17:40:30:366068,41,40,52,9,-4,-6,5,52
17:40:30:372770,8,-12,-15,-11,-13,5,-1,-14
17:40:30:373601,8,-12,-15,-11,-13,5,-1,-14
17:40:30:379586,-3,-7,33,-8,1,8,12,23
17:40:30:387084,-10,-11,44,9,2,-14,-5,-2
17:40:30:394639,-10,-11,44,9,2,-14,-5,-2
17:40:30:402079,-1,13,-8,-4,3,8,0,2
17:40:30:409661,-1,8,-12,11,-3,12,-2,-8
17:40:30:417807,-1,8,-12,11,-3,12,-2,-8
17:40:30:418614,8,-10,-41,24,12,1,-2,1
17:40:30:432790,-8,-55,-41,-16,-19,-25,-7,6
17:40:30:433590,-8,-55,-41,-16,-19,-25,-7,6
17:40:30:439566,1,14,-22,-1,7,13,-1,-29
17:40:30:447068,13,14,57,3,-8,-7,-2,7
17:40:30:454654,13,14,57,3,-8,-7,-2,7
17:40:30:462064,-15,-3,-13,5,20,9,1,-2
17:40:30:469574,17,27,-13,13,1,-4,-1,18
17:40:30:477819,17,27,-13,13,1,-4,-1,18
17:40:30:478612,5,-22,-4,-4,-3,4,-1,-9
17:40:30:492799,1,-25,-2,17,15,4,2,14
17:40:30:493598,1,-25,-2,17,15,4,2,14
17:40:30:499580,-4,7,36,-15,-18,-8,-5,13
17:40:30:507064,1,23,-5,5,0,-5,-2,-7
17:40:30:514641,1,23,-5,5,0,-5,-2,-7
17:40:30:522127,-7,-1,-21,-8,-17,-22,-10,-9
17:40:30:530232,-9,23,12,4,22,14,4,-1
17:40:30:531069,-9,23,12,4,22,14,4,-1
17:40:30:537092,-8,14,32,5,-2,8,3,-12
17:40:30:552807,-12,2,25,3,1,-2,-2,-9
17:40:30:553619,-12,2,25,3,1,-2,-2,-9
17:40:30:559597,15,-5,1,-21,-13,-7,0,3
17:40:30:567105,9,-10,43,17,8,7,6,3
17:40:30:574622,9,-10,43,17,8,7,6,3
17:40:30:582123,5,23,10,12,23,14,0,-29
17:40:30:589592,11,-5,3,1,-13,-16,-6,13
17:40:30:597810,11,-5,3,1,-13,-16,-6,13
17:40:30:598588,1,-3,-52,-8,0,11,4,11
17:40:30:612766,9,11,-6,-7,-3,2,3,-19
17:40:30:613591,9,11,-6,-7,-3,2,3,-19
17:40:30:619689,4,-9,-11,-15,-12,-10,-4,28
17:40:30:627139,1,15,-3,-25,-3,3,4,18
17:40:30:642847,1,15,-3,-25,-3,3,4,18
17:40:30:643658,-31,-15,21,5,7,-2,-10,-19
17:40:30:650269,-5,-8,-21,12,4,2,-6,-20
17:40:30:651131,-5,-8,-21,12,4,2,-6,-20
17:40:30:657144,12,28,34,3,10,1,1,10
17:40:30:672845,20,10,5,3,-6,-3,-1,-18
17:40:30:673603,20,10,5,3,-6,-3,-1,-18
17:40:30:679591,-5,-3,-8,33,13,0,1,-15
17:40:30:687116,-15,-3,-20,-3,17,8,3,21
17:40:30:694609,-15,-3,-20,-3,17,8,3,21
17:40:30:702105,15,-2,-14,-8,-17,-21,-8,6
17:40:30:710254,12,19,46,13,9,8,2,-4
17:40:30:711099,12,19,46,13,9,8,2,-4
17:40:30:717090,-16,-8,-24,-34,-7,-7,-6,-15
17:40:30:732757,-19,4,23,2,-12,-13,-15,-12
17:40:30:733593,-19,4,23,2,-12,-13,-15,-12
17:40:30:739618,-4,-8,-34,-7,16,22,8,-1
17:40:30:747093,-10,2,-24,-12,-11,-5,-1,-8
17:40:30:754652,-10,2,-24,-12,-11,-5,-1,-8
17:40:30:762078,9,1,0,5,-10,-17,-5,15
17:40:30:770311,39,-4,-5,-9,-7,-3,-2,0
17:40:30:771125,39,-4,-5,-9,-7,-3,-2,0
17:40:30:777067,-5,8,-23,-12,2,1,5,1
17:40:30:792768,-4,-7,-13,-3,-4,-1,-6,41
17:40:30:793601,-4,-7,-13,-3,-4,-1,-6,41
17:40:30:799572,-25,-33,12,3,-2,-4,-9,-57
17:40:30:807074,-3,9,-22,-11,-5,6,6,-24
17:40:30:814653,-3,9,-22,-11,-5,6,6,-24
17:40:30:822069,-6,-4,-22,-4,-7,-3,0,18
17:40:30:830304,-25,-29,-46,-1,-2,0,2,4
17:40:30:831130,-25,-29,-46,-1,-2,0,2,4
17:40:30:837097,-20,-16,0,-1,-6,-6,-6,-12
17:40:30:852782,-2,2,14,-3,-6,-4,2,5
17:40:30:853613,-2,2,14,-3,-6,-4,2,5
17:40:30:859596,-13,36,8,15,33,23,5,-35
17:40:30:867115,-7,-27,19,15,10,-6,-3,-5
17:40:30:874678,-7,-27,19,15,10,-6,-3,-5
17:40:30:882122,4,-5,-42,18,17,15,7,8
17:40:30:890256,-2,17,14,-7,-4,-7,-3,-6
17:40:30:891070,-2,17,14,-7,-4,-7,-3,-6
17:40:30:897101,9,-2,-3,-4,-19,-10,0,21
17:40:30:912817,-26,-20,-47,3,-6,-1,2,-2
17:40:30:913630,-26,-20,-47,3,-6,-1,2,-2
17:40:30:919609,22,9,55,-3,-12,-8,-1,-10
17:40:30:927110,2,6,27,18,0,-8,2,7
17:40:30:934689,2,6,27,18,0,-8,2,7
17:40:30:942085,-16,-25,-42,10,9,11,6,24
17:40:30:950260,2,24,30,6,4,2,-4,1
17:40:30:951093,2,24,30,6,4,2,-4,1
17:40:30:957138,3,-14,5,-9,-24,-19,-6,4
17:40:30:972770,-2,-26,0,-25,-9,-4,-2,-4
17:40:30:973649,-2,-26,0,-25,-9,-4,-2,-4
17:40:30:979605,11,6,3,-16,-6,8,1,4
17:40:30:987090,3,16,16,-19,-23,-8,0,9
17:40:30:994656,3,16,16,-19,-23,-8,0,9
17:40:31:2147,4,50,50,14,9,19,8,13
17:40:31:10272,-3,-9,4,-12,-14,-10,-8,0
17:40:31:11112,-3,-9,4,-12,-14,-10,-8,0
17:40:31:17078,2,-11,-12,6,-10,-7,1,12
17:40:31:32888,-6,-6,8,12,6,-1,-5,-8
17:40:31:33582,-6,-6,8,12,6,-1,-5,-8
17:40:31:39618,-20,-27,-95,-13,6,-3,-3,5
17:40:31:47116,18,-21,-16,9,4,6,5,-5
17:40:31:54651,18,-21,-16,9,4,6,5,-5
17:40:31:62088,1,-19,7,-13,-15,-7,-10,-4
17:40:31:70289,13,11,1,-6,11,7,4,12
17:40:31:71102,13,11,1,-6,11,7,4,12
17:40:31:77163,6,-2,31,22,-6,-9,-4,-24
17:40:31:92816,3,13,27,19,15,11,-3,-24
17:40:31:93656,3,13,27,19,15,11,-3,-24
17:40:31:99581,10,4,23,-9,-17,-12,-1,-1
17:40:31:107079,1,-3,-32,-14,2,7,3,-2
17:40:31:114662,1,-3,-32,-14,2,7,3,-2
17:40:31:122098,24,41,1,-15,-9,-11,-1,15
17:40:31:130301,-17,13,-10,5,6,23,13,15
17:40:31:131132,-17,13,-10,5,6,23,13,15
17:40:31:137108,-22,16,53,-12,-11,-4,-12,-74
17:40:31:152792,4,-4,-12,13,2,-14,-12,0
17:40:31:153618,4,-4,-12,13,2,-14,-12,0
17:40:31:159601,15,-46,-40,-39,8,4,1,17
17:40:31:167095,18,5,5,8,33,-1,2,4
17:40:31:174651,18,5,5,8,33,-1,2,4
17:40:31:182111,-1,-8,-9,2,-3,-2,2,16
17:40:31:190265,-5,-20,-74,11,8,0,-5,-4
17:40:31:191109,-5,-20,-74,11,8,0,-5,-4
17:40:31:197099,-28,-46,-18,7,9,4,3,-3
17:40:31:212808,-14,-4,-19,-23,-22,-9,-3,-3
17:40:31:213610,-14,-4,-19,-23,-22,-9,-3,-3
17:40:31:219610,-4,17,21,27,16,7,2,11
17:40:31:235343,18,-13,-24,-17,-23,-16,-10,-9
17:40:31:236161,18,-13,-24,-17,-23,-16,-10,-9
17:40:31:242099,-8,22,31,-10,-13,3,-5,-16
17:40:31:250307,29,2,28,-12,-12,-4,0,11
17:40:31:251132,29,2,28,-12,-12,-4,0,11
17:40:31:264573,13,22,63,24,16,-2,0,11
17:40:31:272871,-23,18,6,2,12,7,6,-4
17:40:31:273691,-23,18,6,2,12,7,6,-4
17:40:31:279631,-3,-8,0,1,2,-3,-1,9
17:40:31:295333,-5,-12,-11,3,-10,-8,-5,-16
17:40:31:296101,-5,-12,-11,3,-10,-8,-5,-16
17:40:31:302091,7,6,-16,-7,-12,-6,-1,25
17:40:31:310326,-13,1,34,32,-3,-2,-1,-14
17:40:31:311126,-13,1,34,32,-3,-2,-1,-14
17:40:31:324613,12,13,-12,-2,2,4,1,-15
17:40:31:332794,33,8,22,11,1,5,7,15
17:40:31:333598,33,8,22,11,1,5,7,15
17:40:31:339591,0,-9,23,1,3,2,-1,9
17:40:31:355300,-22,1,-36,-36,-6,3,-1,-14
17:40:31:356106,-22,1,-36,-36,-6,3,-1,-14
17:40:31:362087,-22,-15,-40,-17,-11,-7,-2,-3
17:40:31:370341,-30,-7,7,-9,2,6,2,-9
17:40:31:371106,-30,-7,7,-9,2,6,2,-9
17:40:31:384576,-6,4,-3,-4,-8,-1,4,0
17:40:31:392810,15,6,48,12,17,0,-6,0
17:40:31:393624,15,6,48,12,17,0,-6,0
17:40:31:399597,0,-41,-68,-14,-6,-8,-4,13
17:40:31:415290,-7,-84,-5,-2,-9,-6,-4,1
17:40:31:416096,-7,-84,-5,-2,-9,-6,-4,1
17:40:31:422034,12,37,12,12,2,-5,-7,-22
17:40:31:430285,-13,21,-11,10,-1,-2,0,4
17:40:31:431110,-13,21,-11,10,-1,-2,0,4
17:40:31:444608,-3,-10,8,7,2,2,6,10
17:40:31:452831,-11,-2,10,1,-7,-6,-6,-4
17:40:31:453613,-11,-2,10,1,-7,-6,-6,-4
17:40:31:459573,-8,-8,-25,-22,2,5,-2,-15
17:40:31:475276,-10,3,37,-9,-7,-3,-5,-8
17:40:31:476069,-10,3,37,-9,-7,-3,-5,-8
17:40:31:482073,-15,-10,16,13,2,-4,-4,-8
17:40:31:490286,12,17,-8,-20,-4,-1,0,0
17:40:31:491190,12,17,-8,-20,-4,-1,0,0
17:40:31:504656,5,22,56,-6,-13,-7,-2,3
17:40:31:512788,15,4,-6,-11,8,3,2,11
17:40:31:513603,15,4,-6,-11,8,3,2,11
17:40:31:519573,1,4,-3,-3,-3,-3,-1,-2
17:40:31:535289,-10,10,-19,-1,-4,-3,-4,-5
17:40:31:536061,-10,10,-19,-1,-4,-3,-4,-5
17:40:31:542129,-8,-1,-20,0,-3,-6,-4,-7
17:40:31:550255,9,19,10,11,11,2,5,18
17:40:31:551071,9,19,10,11,11,2,5,18
17:40:31:564621,9,7,-47,-7,-3,-1,3,10
17:40:31:572755,1,0,-7,2,5,-2,-1,-3
17:40:31:573580,1,0,-7,2,5,-2,-1,-3
17:40:31:579584,-6,-7,20,40,2,-3,-6,-3
17:40:31:595359,-6,-7,20,40,2,-3,-6,-3
17:40:31:596139,-8,-23,-103,-12,-22,-6,0,11
17:40:31:602096,-30,-7,5,4,-4,-7,-12,-73
17:40:31:617805,-30,-7,5,4,-4,-7,-12,-73
17:40:31:618620,-3,-23,1,16,18,15,7,-2
17:40:31:624582,16,1,-10,0,-2,-8,1,21
17:40:31:632764,16,1,-10,0,-2,-8,1,21
17:40:31:633646,-9,6,-7,-9,8,1,-3,-16
17:40:31:639596,39,-13,7,-26,34,27,15,31
17:40:31:655329,39,-13,7,-26,34,27,15,31
17:40:31:656126,-41,-26,15,9,-1,-15,-13,-27
17:40:31:662124,-1,10,5,8,3,-1,-2,-9
17:40:31:677835,-1,10,5,8,3,-1,-2,-9
17:40:31:678654,21,30,11,-17,-11,-2,3,4
17:40:31:684568,-12,-12,6,1,-6,3,2,16
17:40:31:692828,-12,-12,6,1,-6,3,2,16
17:40:31:693710,31,6,-7,4,-1,0,-3,-30
17:40:31:699632,21,22,11,16,-6,2,4,19
17:40:31:715304,21,22,11,16,-6,2,4,19
17:40:31:716114,1,-15,20,14,18,-4,-1,-6
17:40:31:722125,-9,-32,0,7,-5,-3,-3,9
17:40:31:729684,-9,-32,0,7,-5,-3,-3,9
17:40:31:737116,-17,-25,-41,-2,-8,-4,-4,20
17:40:31:744607,-12,19,10,-4,-7,-4,-3,-1
17:40:31:752870,-12,19,10,-4,-7,-4,-3,-1
17:40:31:753595,3,14,10,7,-6,6,4,7
17:40:31:759632,5,5,-5,-33,-12,-8,-3,2
17:40:31:775377,5,5,-5,-33,-12,-8,-3,2
17:40:31:776153,-1,19,-15,-6,-13,9,4,-7
17:40:31:782105,-4,-9,-28,-26,6,10,2,-3
17:40:31:789623,-4,-9,-28,-26,6,10,2,-3
17:40:31:797115,-16,13,3,-1,-3,-3,-1,-12
17:40:31:804618,-3,-10,-9,0,-15,-11,-13,-20
17:40:31:812797,-3,-10,-9,0,-15,-11,-13,-20
17:40:31:813599,11,9,27,-13,-6,-1,-4,3
17:40:31:819618,-14,5,19,12,8,6,5,-3
17:40:31:835299,-14,5,19,12,8,6,5,-3
17:40:31:836103,4,0,8,5,8,-2,1,6
17:40:31:842125,17,-9,-20,0,-10,-10,-2,8
17:40:31:849670,17,-9,-20,0,-10,-10,-2,8
17:40:31:857083,-6,-6,-6,-29,-19,-7,-4,0
17:40:31:864572,11,9,4,3,4,0,1,0
17:40:31:872833,11,9,4,3,4,0,1,0
17:40:31:873658,-1,-33,3,-3,8,-3,-5,-2
17:40:31:879593,5,14,-5,4,-3,-5,-2,-4
17:40:31:895329,5,14,-5,4,-3,-5,-2,-4
17:40:31:896122,2,-9,2,5,4,3,0,7
17:40:31:902068,-8,-18,-8,-5,-6,-1,0,-8
17:40:31:909782,-8,-18,-8,-5,-6,-1,0,-8
17:40:31:917088,0,14,-5,-25,-5,-1,-1,-21
17:40:31:924606,-9,-22,-18,-7,2,6,0,-6
17:40:31:932816,-9,-22,-18,-7,2,6,0,-6
17:40:31:933620,-16,4,8,4,-21,-4,1,6
17:40:31:939587,-17,-15,-22,-17,3,4,-1,-23
17:40:31:955321,-17,-15,-22,-17,3,4,-1,-23
17:40:31:956106,-2,5,-7,3,1,-1,-1,-4
17:40:31:962087,2,9,2,-7,3,2,2,12
17:40:31:969673,2,9,2,-7,3,2,2,12
17:40:31:977089,-4,-2,-44,0,8,-1,-3,1
17:40:31:984601,-7,-11,0,21,45,13,1,-2
17:40:31:992776,-7,-11,0,21,45,13,1,-2
17:40:31:993636,-7,-14,5,-8,-1,8,5,8
17:40:31:999604,4,28,8,3,-14,-14,-10,2
17:40:32:15347,4,28,8,3,-14,-14,-10,2
17:40:32:16138,0,1,-44,1,3,-1,2,15
17:40:32:22091,-4,26,3,-15,-16,-10,-8,-6
17:40:32:29682,-4,26,3,-15,-16,-10,-8,-6
17:40:32:37140,-19,-3,27,16,15,-2,-2,-14
17:40:32:44611,9,7,7,15,3,6,7,24
17:40:32:52835,9,7,7,15,3,6,7,24
17:40:32:53573,8,14,0,-6,-8,-3,-1,8
17:40:32:59609,6,-14,-7,0,22,2,-1,-3
17:40:32:75289,6,-14,-7,0,22,2,-1,-3
17:40:32:76085,3,17,21,-5,-6,-3,0,-7
17:40:32:82131,-26,-19,5,-2,-19,-4,3,5
17:40:32:89687,-26,-19,5,-2,-19,-4,3,5
17:40:32:97129,-11,-5,-1,-8,4,4,1,-10
17:40:32:104616,10,23,-7,3,-5,0,8,-9
17:40:32:112795,10,23,-7,3,-5,0,8,-9
17:40:32:113622,11,7,21,5,8,2,3,15
17:40:32:119580,-7,-48,-10,-8,-13,-7,4,0
17:40:32:135308,-7,-48,-10,-8,-13,-7,4,0
17:40:32:136167,3,3,4,1,7,9,2,-20
17:40:32:142126,13,-2,13,4,-5,9,-1,3
17:40:32:150297,13,-2,13,4,-5,9,-1,3
17:40:32:151076,-2,-22,-16,-3,-14,-15,-6,13
17:40:32:164623,12,18,17,6,-4,-4,0,-5
17:40:32:172807,12,18,17,6,-4,-4,0,-5
17:40:32:173573,-11,-16,18,-5,-6,-5,-12,-12
17:40:32:187102,-6,-8,32,-3,-3,-2,-7,-3
17:40:32:195255,-6,-8,32,-3,-3,-2,-7,-3
17:40:32:196100,3,-15,12,12,-1,2,0,1
17:40:32:202113,8,20,5,8,37,5,3,15
17:40:32:217834,8,20,5,8,37,5,3,15
17:40:32:218656,13,6,-11,21,12,7,1,-7
17:40:32:224617,-7,12,-31,7,-18,-9,-1,-7
17:40:32:232792,-7,12,-31,7,-18,-9,-1,-7
17:40:32:233577,-13,5,-16,-29,-11,-8,-6,-3
17:40:32:247082,-8,17,20,-5,8,2,19,6
17:40:32:255267,-8,17,20,-5,8,2,19,6
17:40:32:256060,-24,18,22,7,-9,-8,4,-5
17:40:32:262121,-10,-10,1,-7,-11,-6,-10,0
17:40:32:269621,-10,-10,1,-7,-11,-6,-10,0
17:40:32:277106,20,17,4,4,0,1,1,9
17:40:32:284613,-3,-10,-7,1,10,3,-7,-8
17:40:32:292780,-3,-10,-7,1,10,3,-7,-8
17:40:32:293602,2,-17,-5,10,-2,-6,-9,-3
17:40:32:307120,-6,12,2,-14,1,4,1,-2
17:40:32:315305,-6,12,2,-14,1,4,1,-2
17:40:32:316079,6,-13,-14,-8,4,-3,-6,-21
17:40:32:322117,3,0,-9,-2,-12,-8,-9,-8
17:40:32:329659,3,0,-9,-2,-12,-8,-9,-8
17:40:32:337054,-6,-3,-13,3,-8,-2,-3,3
17:40:32:344562,-24,12,-42,-3,-10,-6,-4,-6
17:40:32:352810,-24,12,-42,-3,-10,-6,-4,-6
17:40:32:353625,18,9,9,3,6,10,6,-1
17:40:32:367144,5,-8,0,-15,-16,-3,0,2
17:40:32:375392,5,-8,0,-15,-16,-3,0,2
17:40:32:376096,2,-2,-6,-6,-5,-8,0,6
17:40:32:382051,3,-7,20,30,18,6,0,-8
17:40:32:389657,3,-7,20,30,18,6,0,-8
17:40:32:397090,-2,-16,3,-1,8,2,0,1
17:40:32:404560,-5,4,6,9,-2,1,-8,-36
17:40:32:412805,-5,4,6,9,-2,1,-8,-36
17:40:32:413603,-12,17,22,-8,-10,-3,1,-4
17:40:32:427092,28,26,12,-5,-2,-3,13,17
17:40:32:435334,28,26,12,-5,-2,-3,13,17
17:40:32:436111,-9,-15,-44,-1,-4,6,5,3
17:40:32:442090,-5,-8,27,-1,3,5,-6,-11
17:40:32:449667,-5,-8,27,-1,3,5,-6,-11
17:40:32:457090,30,5,2,-2,-15,-17,-14,25
17:40:32:464590,24,1,9,8,3,-2,-5,6
17:40:32:472830,24,1,9,8,3,-2,-5,6
17:40:32:473694,-10,-7,28,11,-4,-3,-7,-6
17:40:32:487103,1,-11,-28,-19,-20,-9,0,4
17:40:32:495310,1,-11,-28,-19,-20,-9,0,4
17:40:32:496115,-4,14,1,5,4,2,4,5
17:40:32:502105,-5,7,55,16,-1,-5,-5,-27
17:40:32:509616,-5,7,55,16,-1,-5,-5,-27
17:40:32:517117,12,-5,-8,2,9,6,0,2
17:40:32:524692,9,6,-9,-5,2,0,5,18
17:40:32:532791,9,6,-9,-5,2,0,5,18
17:40:32:533619,-12,-3,19,-7,0,-4,4,-10
17:40:32:547098,21,-6,1,-8,-8,-2,-5,9
17:40:32:555309,21,-6,1,-8,-8,-2,-5,9
17:40:32:556089,16,17,-27,14,18,10,2,21
17:40:32:562106,-6,-43,-18,-10,-22,-17,-13,-1
17:40:32:569652,-6,-43,-18,-10,-22,-17,-13,-1
17:40:32:577087,10,0,19,1,-6,-5,-4,-3
17:40:32:584624,-19,7,-7,-13,-2,0,2,5
17:40:32:592802,-19,7,-7,-13,-2,0,2,5
17:40:32:593613,2,-2,65,-10,-4,-1,7,-6
17:40:32:607119,0,-10,-22,-2,0,1,7,13
17:40:32:615296,0,-10,-22,-2,0,1,7,13
17:40:32:616066,-6,25,-30,-12,0,0,1,-7
17:40:32:622103,-20,-12,-1,2,4,-1,2,14
17:40:32:629640,-20,-12,-1,2,4,-1,2,14
17:40:32:637069,-12,2,-1,4,4,1,6,-1
17:40:32:644562,-16,-17,-21,1,12,10,2,1
17:40:32:652794,-16,-17,-21,1,12,10,2,1
17:40:32:653602,18,-5,-20,-6,-11,-8,7,8
17:40:32:667117,8,-15,4,10,5,4,6,-6
17:40:32:675280,8,-15,4,10,5,4,6,-6
17:40:32:676074,-27,-12,-11,-14,10,9,-5,-21
17:40:32:682075,-1,14,5,-3,-19,-12,-11,-8
17:40:32:689648,-1,14,5,-3,-19,-12,-11,-8
17:40:32:697087,17,-5,5,2,-7,1,4,4
17:40:32:704645,-9,-50,-38,-14,-5,1,-11,-14
17:40:32:712834,-9,-50,-38,-14,-5,1,-11,-14
17:40:32:713606,-3,-23,-17,-4,-11,-8,-9,1
17:40:32:727093,27,28,-28,-7,-2,2,11,-12
17:40:32:735324,27,28,-28,-7,-2,2,11,-12
17:40:32:736110,2,-10,25,6,3,1,7,16
17:40:32:742091,-27,11,11,8,10,-4,-10,-6
17:40:32:749679,-27,11,11,8,10,-4,-10,-6
17:40:32:757086,6,-6,-21,-5,2,2,-5,7
17:40:32:764611,-19,-6,-17,-4,2,4,0,2
17:40:32:772793,-19,-6,-17,-4,2,4,0,2
17:40:32:773597,-28,-21,11,15,-3,-4,-4,-16
17:40:32:787126,36,17,-15,0,-7,2,0,19
17:40:32:795324,36,17,-15,0,-7,2,0,19
17:40:32:796127,-10,3,-19,-13,-10,-6,-13,-41
17:40:32:802088,-16,5,29,12,4,2,9,20
17:40:32:809628,-16,5,29,12,4,2,9,20
17:40:32:817121,1,14,-4,5,5,-1,2,12
17:40:32:824629,10,9,0,3,-1,-2,-2,-5
17:40:32:832795,10,9,0,3,-1,-2,-2,-5
17:40:32:833602,-28,-3,-48,-29,-1,6,-5,1
17:40:32:847116,-7,1,22,-3,-4,-4,2,-10
17:40:32:855282,-7,1,22,-3,-4,-4,2,-10
17:40:32:856075,19,38,26,6,-4,-3,-2,1
17:40:32:862105,0,-10,6,7,-13,-5,5,15
17:40:32:869645,0,-10,6,7,-13,-5,5,15
17:40:32:877088,16,18,4,-4,-15,-8,-6,-11
17:40:32:884588,26,2,1,18,13,6,-6,2
17:40:32:892840,26,2,1,18,13,6,-6,2
17:40:32:893578,-23,-17,-16,9,7,3,12,-6
17:40:32:907132,0,-33,2,10,24,5,-13,-16
17:40:32:915325,0,-33,2,10,24,5,-13,-16
17:40:32:916102,-15,-15,-37,7,2,-2,-6,-7
17:40:32:922061,7,9,17,-5,-10,-4,2,0
17:40:32:929655,7,9,17,-5,-10,-4,2,0
17:40:32:937088,1,-11,35,2,6,7,-2,2
17:40:32:944641,-7,6,-15,-21,8,-1,-4,6
17:40:32:952807,-7,6,-15,-21,8,-1,-4,6
17:40:32:953640,-18,-14,4,1,-4,-6,-6,-6
17:40:32:967090,14,28,-6,-1,-1,0,6,26
17:40:32:975299,14,28,-6,-1,-1,0,6,26
17:40:32:976078,0,-6,-18,-6,-2,-2,15,20
17:40:32:982091,-10,7,31,3,0,-1,-3,-17
17:40:32:989630,-10,7,31,3,0,-1,-3,-17
17:40:32:997108,18,-3,18,-2,-2,-6,-2,-1
17:40:33:4617,-41,-20,-28,-10,-4,-1,2,-8
17:40:33:12827,-41,-20,-28,-10,-4,-1,2,-8
17:40:33:13627,14,12,-18,-14,-12,-2,-1,3
17:40:33:27093,-9,9,5,-9,0,2,-8,-15
17:40:33:35333,-9,9,5,-9,0,2,-8,-15
17:40:33:36129,-13,-13,21,-2,3,-3,-2,10
17:40:33:42159,-4,-21,-27,-3,-2,-3,2,-4
17:40:33:49663,-4,-21,-27,-3,-2,-3,2,-4
17:40:33:57089,35,6,24,13,10,3,9,6
17:40:33:64583,15,15,1,-1,-8,-6,-12,-16
17:40:33:72782,15,15,1,-1,-8,-6,-12,-16
17:40:33:73582,8,18,-22,7,2,-2,-12,-28
17:40:33:87085,-6,0,0,3,-22,-12,-7,-1
17:40:33:95336,-6,0,0,3,-22,-12,-7,-1
17:40:33:96100,10,-1,8,-1,1,-1,0,8
17:40:33:102118,-16,3,-8,2,-8,1,-1,18
17:40:33:109641,-16,3,-8,2,-8,1,-1,18
17:40:33:117144,-19,-5,33,5,-5,-1,-6,2
17:40:33:124625,45,2,20,12,8,1,5,9
17:40:33:132129,45,2,20,12,8,1,5,9
17:40:33:139602,-15,-6,-16,-10,4,8,7,8
17:40:33:147074,-6,-1,-7,-6,5,1,-5,-14
17:40:33:155319,-6,-1,-7,-6,5,1,-5,-14
17:40:33:156087,-32,-25,8,5,15,-4,-21,-15
17:40:33:170614,6,3,-2,-6,8,10,20,23
17:40:33:171101,6,3,-2,-6,8,10,20,23
17:40:33:177095,-29,1,-13,-6,4,-1,1,-1
17:40:33:184583,20,14,18,-1,-2,-7,-8,2
17:40:33:192151,20,14,18,-1,-2,-7,-8,2
17:40:33:199576,-9,14,-29,-9,1,10,6,-5
17:40:33:207129,-37,5,3,3,5,0,-11,-33
17:40:33:215307,-37,5,3,3,5,0,-11,-33
17:40:33:216080,8,-3,-17,-21,-16,-4,-2,7
17:40:33:230304,-17,1,-34,-6,-8,-2,2,-26
17:40:33:231101,-17,1,-34,-6,-8,-2,2,-26
17:40:33:237091,-4,-5,-12,8,2,-5,-6,-6
17:40:33:244599,-5,-17,-12,0,-5,-6,-9,2
17:40:33:252164,-5,-17,-12,0,-5,-6,-9,2
17:40:33:259583,29,7,17,1,1,1,-7,10
17:40:33:267096,-6,6,9,6,9,5,22,22
17:40:33:275329,-6,6,9,6,9,5,22,22
17:40:33:276180,17,-7,21,10,-4,-4,-4,8
17:40:33:290300,-5,-5,14,6,1,-2,-7,0
17:40:33:291113,-5,-5,14,6,1,-2,-7,0
17:40:33:297071,6,11,-19,-13,-10,1,3,5
17:40:33:304601,7,0,-3,-6,-6,-2,1,11
17:40:33:312183,7,0,-3,-6,-6,-2,1,11
17:40:33:319612,-20,2,-10,5,0,-1,-4,-15
17:40:33:327106,8,-4,-12,0,-7,-1,-4,-8
17:40:33:335287,8,-4,-12,0,-7,-1,-4,-8
17:40:33:336094,29,24,-13,1,-1,-2,-4,7
17:40:33:350234,6,-17,32,-2,2,2,11,4
17:40:33:351046,6,-17,32,-2,2,2,11,4
17:40:33:357096,-10,-18,-10,6,-9,-5,0,-9
17:40:33:364616,-4,-1,-4,-4,3,0,-8,5
17:40:33:372151,-4,-1,-4,-4,3,0,-8,5
17:40:33:379635,-20,9,19,-4,-3,-3,-1,-13
17:40:33:387132,-9,-24,8,-7,-6,-6,-12,-11
17:40:33:395286,-9,-24,8,-7,-6,-6,-12,-11
17:40:33:396139,-7,0,38,2,2,1,15,11
17:40:33:410277,12,30,11,-1,3,0,2,17
17:40:33:411087,12,30,11,-1,3,0,2,17
17:40:33:417131,-3,0,4,-9,4,4,-5,18
17:40:33:424624,-19,31,17,6,3,3,8,-17
17:40:33:432121,-19,31,17,6,3,3,8,-17
17:40:33:439570,2,-24,-21,-10,4,-3,0,5
17:40:33:447069,-19,5,4,-15,0,6,3,0
17:40:33:455318,-19,5,4,-15,0,6,3,0
17:40:33:456095,-10,-12,-6,5,-2,4,1,-7
17:40:33:470275,-5,-34,-56,-7,-3,-2,-3,-1
17:40:33:471073,-5,-34,-56,-7,-3,-2,-3,-1
17:40:33:477078,-13,-19,0,-9,0,5,6,0
17:40:33:484588,8,6,-26,-6,4,13,0,8
17:40:33:492153,8,6,-26,-6,4,13,0,8
17:40:33:499561,2,19,9,4,-8,-14,-12,-6
17:40:33:507097,4,0,35,5,-2,-3,-6,0
17:40:33:515300,4,0,35,5,-2,-3,-6,0
17:40:33:516105,6,9,-9,-6,-5,-3,-2,-15
17:40:33:530263,11,16,34,-1,9,0,-3,-8
17:40:33:531073,11,16,34,-1,9,0,-3,-8
17:40:33:537095,-11,11,2,-2,1,4,1,-12
17:40:33:544585,-6,-25,5,2,-7,-8,0,4
17:40:33:552163,-6,-25,5,2,-7,-8,0,4
17:40:33:559590,16,0,21,3,-1,-4,1,-11
17:40:33:567071,2,-4,0,-3,-7,-4,-9,-18
17:40:33:575322,2,-4,0,-3,-7,-4,-9,-18
17:40:33:576117,-9,-13,7,1,-4,-1,2,-4
17:40:33:590296,-9,2,31,11,4,-2,16,7
17:40:33:591112,-9,2,31,11,4,-2,16,7
17:40:33:597098,21,0,5,12,19,3,1,14
17:40:33:604578,14,-12,-4,-9,-7,-6,-12,-10
17:40:33:612171,14,-12,-4,-9,-7,-6,-12,-10
17:40:33:619628,-11,-10,5,1,-6,-3,14,5
17:40:33:627094,5,10,14,6,-8,-2,2,5
17:40:33:635290,5,10,14,6,-8,-2,2,5
17:40:33:636068,8,-4,20,10,3,6,-6,3
17:40:33:650255,-1,6,2,4,3,-6,-7,3
17:40:33:651048,-1,6,2,4,3,-6,-7,3
17:40:33:657084,2,-7,-11,-17,-7,-3,-7,-8
17:40:33:664586,-1,10,-16,-9,11,1,-3,-2
17:40:33:672137,-1,10,-16,-9,11,1,-3,-2
17:40:33:679612,4,0,-41,-6,3,4,-7,-42
17:40:33:687121,-4,0,-5,0,-7,-3,2,-20
17:40:33:695308,-4,0,-5,0,-7,-3,2,-20
17:40:33:696097,21,-3,22,10,-11,-11,-1,18
17:40:33:710273,14,1,-9,9,-4,-5,2,-4
17:40:33:711063,14,1,-9,9,-4,-5,2,-4
17:40:33:717060,21,10,9,-14,-12,-4,1,14
17:40:33:724631,-3,-24,-21,-3,-9,-3,-9,-15
17:40:33:732130,-3,-24,-21,-3,-9,-3,-9,-15
17:40:33:739577,-47,-7,-25,-3,0,-3,-7,-22
17:40:33:747089,-11,10,-10,7,2,5,7,-5
17:40:33:755353,-11,10,-10,7,2,5,7,-5
17:40:33:756103,-10,-21,-42,1,5,-4,-6,-1
17:40:33:770276,-19,-5,2,11,14,4,1,-22
17:40:33:771082,-19,-5,2,11,14,4,1,-22
17:40:33:777074,10,1,-27,1,2,5,-2,5
17:40:33:784584,38,8,-8,-1,-4,-3,11,19
17:40:33:792198,38,8,-8,-1,-4,-3,11,19
17:40:33:799570,-18,-19,-7,-8,-7,-3,-4,-7
17:40:33:807089,3,-11,3,-15,-8,-2,-8,-8
17:40:33:815326,3,-11,3,-15,-8,-2,-8,-8
17:40:33:816128,7,-1,24,-3,2,1,9,19
17:40:33:830270,-5,8,-3,-11,-3,5,-1,4
17:40:33:831091,-5,8,-3,-11,-3,5,-1,4
17:40:33:837102,-9,-16,-8,-14,-2,0,-10,-28
17:40:33:844589,10,11,-11,-1,-4,-5,0,23
17:40:33:852160,10,11,-11,-1,-4,-5,0,23
17:40:33:859599,4,8,6,21,18,7,-2,1
17:40:33:867097,-7,3,15,-10,-3,0,2,4
17:40:33:875328,-7,3,15,-10,-3,0,2,4
17:40:33:876124,7,18,2,0,-5,-4,-4,4
17:40:33:890303,11,-20,-2,-3,-9,-13,-21,-1
17:40:33:891105,11,-20,-2,-3,-9,-13,-21,-1
17:40:33:897101,-1,-2,2,0,0,3,11,22
17:40:33:904596,-18,-7,9,0,-1,5,0,16
17:40:33:912170,-18,-7,9,0,-1,5,0,16
17:40:33:919587,7,12,15,2,-18,-13,1,8
17:40:33:927097,-8,0,-17,26,26,13,5,-1
17:40:33:935313,-8,0,-17,26,26,13,5,-1
17:40:33:936054,-14,25,25,-3,-10,1,2,3
17:40:33:950245,-25,0,-27,-8,-11,-9,-1,-12
17:40:33:951057,-25,0,-27,-8,-11,-9,-1,-12
17:40:33:957186,21,-5,23,6,6,3,11,15
17:40:33:972821,-3,-1,1,-11,-8,-5,-4,2
17:40:33:973623,-3,-1,1,-11,-8,-5,-4,2
17:40:33:979580,-14,5,15,-3,-1,-1,7,14
17:40:33:987143,-8,-19,7,5,-9,-4,-7,-11
17:40:33:995283,-8,-19,7,5,-9,-4,-7,-11
17:40:33:996084,0,-2,-8,3,3,-3,-6,-18
17:40:34:10321,6,0,8,-1,-8,-6,0,-3
17:40:34:11131,6,0,8,-1,-8,-6,0,-3
17:40:34:17110,5,-9,20,-14,-1,-3,-7,-2
17:40:34:24595,12,-1,-24,-3,7,3,-6,-9
17:40:34:32104,12,-1,-24,-3,7,3,-6,-9
17:40:34:39607,-12,-9,-12,-7,-6,-1,-5,0
17:40:34:47079,0,-4,-11,0,-5,-4,2,2
17:40:34:54646,0,-4,-11,0,-5,-4,2,2
17:40:34:62119,-2,-14,-8,0,1,1,0,2
17:40:34:70268,-15,-2,-10,-11,-6,-1,5,-9
17:40:34:71105,-15,-2,-10,-11,-6,-1,5,-9
17:40:34:77069,-7,-9,-19,-13,-6,-1,-8,0
17:40:34:92763,7,1,2,-1,1,3,-1,14
17:40:34:93595,7,1,2,-1,1,3,-1,14
17:40:34:99558,-12,-17,-35,-7,-6,1,-3,-16
17:40:34:107094,1,4,2,6,26,10,6,18
17:40:34:114616,1,4,2,6,26,10,6,18
17:40:34:122084,58,14,23,10,-1,0,1,13
17:40:34:130282,-9,-13,-5,3,3,0,-2,-12
17:40:34:131123,-9,-13,-5,3,3,0,-2,-12
17:40:34:137110,2,-16,-35,4,0,-5,3,-11
17:40:34:152873,-10,-18,-12,-5,-8,-7,5,-1
17:40:34:153635,-10,-18,-12,-5,-8,-7,5,-1
17:40:34:159559,-19,14,3,-9,-3,-1,-2,-3
17:40:34:167090,-13,-9,5,5,-6,-1,-9,-4
17:40:34:174661,-13,-9,5,5,-6,-1,-9,-4
17:40:34:182102,11,16,-1,14,10,1,-6,-13
17:40:34:190326,-12,-7,3,2,-4,0,0,-10
17:40:34:191139,-12,-7,3,2,-4,0,0,-10
17:40:34:197086,0,3,7,-1,-1,-6,-1,11
17:40:34:212819,3,13,-12,-6,2,6,-8,-4
17:40:34:213620,3,13,-12,-6,2,6,-8,-4
17:40:34:219576,-12,0,3,16,4,5,4,1
17:40:34:227104,4,24,-6,-13,-5,-6,0,0
17:40:34:234647,4,24,-6,-13,-5,-6,0,0
17:40:34:242147,-30,-28,-14,-9,-4,-3,-14,-45
17:40:34:250250,-2,-3,1,2,4,3,5,6
17:40:34:251109,-2,-3,1,2,4,3,5,6
17:40:34:257115,21,23,26,8,-14,-11,-3,22
17:40:34:272815,-26,4,1,-1,3,4,-2,-7
17:40:34:273630,-26,4,1,-1,3,4,-2,-7
17:40:34:279606,-7,-5,-47,-21,0,4,14,14
17:40:34:287174,19,-20,33,-9,-6,-1,-3,-20
17:40:34:294631,19,-20,33,-9,-6,-1,-3,-20
17:40:34:302102,-4,24,8,-3,1,-3,2,-7
17:40:34:310261,-4,-22,3,6,-3,-6,-7,-5
17:40:34:311097,-4,-22,3,6,-3,-6,-7,-5
17:40:34:317092,-1,3,-32,-15,-4,-1,-11,-24
17:40:34:332777,-8,18,-47,-3,-4,-3,-1,-4
17:40:34:333562,-8,18,-47,-3,-4,-3,-1,-4
17:40:34:339626,-3,-1,17,-19,-20,-6,-3,-1
17:40:34:347101,13,-13,-12,3,5,7,3,7
17:40:34:354636,13,-13,-12,3,5,7,3,7
17:40:34:362105,-33,-12,-27,16,4,0,-14,11
17:40:34:370278,1,2,20,-2,-11,-13,-8,-29
17:40:34:371108,1,2,20,-2,-11,-13,-8,-29
17:40:34:377082,17,16,5,-9,4,2,4,2
17:40:34:392760,21,-9,-5,4,-21,-7,-3,6
17:40:34:393605,21,-9,-5,4,-21,-7,-3,6
17:40:34:399551,3,0,13,-1,9,10,2,3
17:40:34:407107,33,14,4,-16,-4,0,10,30
17:40:34:414635,33,14,4,-16,-4,0,10,30
17:40:34:422074,11,-6,11,-6,1,0,4,0
17:40:34:430289,-17,4,43,7,9,-1,-1,18
17:40:34:431122,-17,4,43,7,9,-1,-1,18
17:40:34:437154,2,-33,-6,-3,-5,-11,-7,-28
17:40:34:452796,2,-8,-69,-24,7,16,-1,2
17:40:34:453616,2,-8,-69,-24,7,16,-1,2
17:40:34:459588,-1,-7,51,18,-3,-3,2,3
17:40:34:467098,-7,10,13,2,-1,-9,-1,5
17:40:34:474730,-7,10,13,2,-1,-9,-1,5
17:40:34:482081,10,4,-9,6,-3,-1,0,7
17:40:34:490297,-18,-3,1,8,0,-2,3,-7
17:40:34:491108,-18,-3,1,8,0,-2,3,-7
17:40:34:497081,10,18,64,16,11,9,17,27
17:40:34:512805,30,12,-33,2,-5,-2,11,0
17:40:34:513619,30,12,-33,2,-5,-2,11,0
17:40:34:519598,-21,-9,-93,2,1,-4,-2,-19
17:40:34:527085,-14,-5,9,6,6,3,-6,8
17:40:34:534671,-14,-5,9,6,6,3,-6,8
17:40:34:542087,9,9,-40,1,9,5,-2,14
17:40:34:550283,2,19,-14,-2,-6,-7,-7,-7
17:40:34:551070,2,19,-14,-2,-6,-7,-7,-7
17:40:34:557120,-28,7,19,-18,-3,2,-16,-44
17:40:34:572815,-15,-16,23,-17,-9,-5,0,-5
17:40:34:573640,-15,-16,23,-17,-9,-5,0,-5
17:40:34:579594,-49,-11,67,-7,6,6,10,-5
17:40:34:587100,-33,-32,3,3,7,3,-1,0
17:40:34:594593,-33,-32,3,3,7,3,-1,0
17:40:34:602128,7,11,-17,-17,-8,-6,-3,9
17:40:34:610231,5,6,-13,-2,-12,-14,-10,-19
17:40:34:611079,5,6,-13,-2,-12,-14,-10,-19
17:40:34:617062,1,-20,-11,9,19,6,3,15
17:40:34:632538,17,-3,-14,-8,-7,-4,-2,17
17:40:34:640292,17,-3,-14,-8,-7,-4,-2,17
17:40:34:641076,11,-7,-53,3,-6,-8,-5,-1
17:40:34:647105,-17,-9,47,20,3,0,-10,4
17:40:34:654656,-17,-9,47,20,3,0,-10,4
17:40:34:662054,23,0,30,7,-8,-10,-8,9
17:40:34:670278,7,19,16,0,0,-1,-8,-5
17:40:34:671123,7,19,16,0,0,-1,-8,-5
17:40:34:677064,3,9,2,22,-7,0,-2,5
17:40:34:692807,0,23,20,3,4,2,4,-12
17:40:34:693639,0,23,20,3,4,2,4,-12
17:40:34:699568,3,-22,-20,-11,11,-3,-4,-20
17:40:34:707088,10,6,24,7,9,7,4,-8
17:40:34:714653,10,6,24,7,9,7,4,-8
17:40:34:722109,-16,-8,-2,-5,-3,-5,-3,2
17:40:34:730280,28,0,11,-6,-8,-6,7,3
17:40:34:731096,28,0,11,-6,-8,-6,7,3
17:40:34:737106,10,8,-57,-6,-7,-7,-10,-11
17:40:34:752769,27,-4,-3,4,4,2,-1,8
17:40:34:753596,27,-4,-3,4,4,2,-1,8
17:40:34:759585,-8,11,13,-3,-4,4,3,-11
17:40:34:767070,-4,24,5,-7,-11,-8,-3,16
17:40:34:774683,-4,24,5,-7,-11,-8,-3,16
17:40:34:782074,1,12,16,4,3,10,5,5
17:40:34:790268,4,8,5,-11,5,7,1,11
17:40:34:791079,4,8,5,-11,5,7,1,11
17:40:34:797114,-4,-25,13,5,-6,-6,3,19
17:40:34:812833,-20,-12,-10,-4,4,-4,-4,3
17:40:34:813632,-20,-12,-10,-4,4,-4,-4,3
17:40:34:819620,7,3,-2,6,-1,6,6,-3
17:40:34:827125,-22,-17,6,0,0,1,-1,7
17:40:34:834676,-22,-17,6,0,0,1,-1,7
17:40:34:842112,1,14,-12,-7,-9,-9,-5,6
17:40:34:850271,1,14,-12,-7,-9,-9,-5,6
17:40:34:851100,-9,5,21,-14,-2,2,0,-34
17:40:34:857086,13,4,34,9,3,6,12,34
17:40:34:872922,13,4,34,9,3,6,12,34
17:40:34:873633,-11,-8,-36,-2,1,-2,-3,-5
17:40:34:879609,-37,5,23,-9,-3,-13,1,-20
17:40:34:895379,-37,5,23,-9,-3,-13,1,-20
17:40:34:896125,-2,-9,-15,9,22,14,3,-2
17:40:34:902121,17,-1,-16,-9,-1,-1,-8,-19
17:40:34:910251,17,-1,-16,-9,-1,-1,-8,-19
17:40:34:911065,5,-5,-20,1,-12,-17,-13,-5
17:40:34:917113,-5,-60,-9,-11,-3,3,12,-8
17:40:34:932830,-5,-60,-9,-11,-3,3,12,-8
17:40:34:933625,-4,-18,-3,12,-1,0,-4,-8
17:40:34:939590,13,10,0,1,-7,-4,-7,-11
17:40:34:955385,13,10,0,1,-7,-4,-7,-11
17:40:34:956113,-3,-7,-5,0,-23,-8,7,8
17:40:34:962093,-4,18,15,17,10,9,-1,7
17:40:34:970336,-4,18,15,17,10,9,-1,7
17:40:34:971111,-14,-1,-3,-8,-8,-5,-4,1
17:40:34:977071,12,4,23,-8,-7,-9,-2,8
17:40:34:992814,12,4,23,-8,-7,-9,-2,8
17:40:34:993594,13,8,-72,1,-2,0,4,9
17:40:34:999581,12,37,22,21,9,4,5,13
17:40:35:15338,12,37,22,21,9,4,5,13
17:40:35:16119,-13,-34,-18,4,-5,-3,2,-9
17:40:35:22137,-9,-10,-25,3,-12,-3,-11,-21
17:40:35:30343,-9,-10,-25,3,-12,-3,-11,-21
17:40:35:31101,3,6,13,11,4,4,-5,-8
17:40:35:44580,-8,-7,17,-5,1,3,8,-5
17:40:35:53479,-8,-7,17,-5,1,3,8,-5
17:40:35:54327,29,-22,-3,-10,-2,1,-4,-13
17:40:35:59609,-10,-3,9,-6,3,-4,-8,-2
17:40:35:75307,-10,-3,9,-6,3,-4,-8,-2
17:40:35:76080,-13,22,1,-15,17,10,7,4
17:40:35:82067,-2,-32,-8,7,-4,1,-3,0
17:40:35:90341,-2,-32,-8,7,-4,1,-3,0
17:40:35:91097,-6,-8,19,-10,-4,-5,-4,-3
17:40:35:113426,9,20,-3,-6,-9,-3,3,21
17:40:35:114251,9,20,-3,-6,-9,-3,3,21
17:40:35:115037,-38,-10,-39,-9,-3,0,-2,-5
17:40:35:119611,-37,-12,-38,-17,-9,-10,-22,-27
17:40:35:135273,-37,-12,-38,-17,-9,-10,-22,-27
17:40:35:136054,27,29,19,19,3,-2,-4,2
17:40:35:142115,12,3,-6,12,1,-1,-2,0
17:40:35:150279,12,3,-6,12,1,-1,-2,0
17:40:35:151084,-17,4,27,-8,20,14,3,8
17:40:35:164567,-8,-9,-78,-7,-1,-2,-4,-8
17:40:35:172762,-8,-9,-78,-7,-1,-2,-4,-8
17:40:35:173574,6,-1,10,10,-12,-12,-1,4
17:40:35:179603,-9,-40,-17,-14,-1,0,-8,-8
17:40:35:195338,-9,-40,-17,-14,-1,0,-8,-8
17:40:35:196108,17,-10,-8,2,-3,-3,13,7
17:40:35:202068,13,10,27,17,-4,-1,4,15
17:40:35:210280,13,10,27,17,-4,-1,4,15
17:40:35:211079,-10,8,33,-17,-11,-3,-11,-44
17:40:35:224614,-26,-13,7,-7,-10,-4,1,3
17:40:35:232832,-26,-13,7,-7,-10,-4,1,3
17:40:35:233627,-5,34,8,5,-9,-7,3,14
17:40:35:239588,-13,-7,-10,-21,4,0,1,-4
17:40:35:255299,-13,-7,-10,-21,4,0,1,-4
17:40:35:256110,39,-7,-31,-21,2,2,-2,28
17:40:35:262101,20,10,19,22,3,1,8,0
17:40:35:270331,20,10,19,22,3,1,8,0
17:40:35:271189,-16,3,-2,-27,5,6,-5,-12
17:40:35:284597,55,26,13,-11,-2,0,3,6
17:40:35:292807,55,26,13,-11,-2,0,3,6
17:40:35:293598,-18,10,7,7,4,-1,-8,-15
17:40:35:299582,-14,15,6,11,14,4,1,-6
17:40:35:315318,-14,15,6,11,14,4,1,-6
17:40:35:316111,-18,-9,-20,3,3,1,10,4
17:40:35:322077,22,-14,-24,-9,-5,-8,-6,-11
17:40:35:330328,22,-14,-24,-9,-5,-8,-6,-11
17:40:35:331103,-14,-10,21,2,14,2,0,8
17:40:35:344581,-1,12,-2,2,2,8,-7,-4
17:40:35:352829,-1,12,-2,2,2,8,-7,-4
17:40:35:353587,-6,-18,-1,-15,-26,-9,-4,-14
17:40:35:359591,-18,6,1,10,-1,-5,8,24
17:40:35:375333,-18,6,1,10,-1,-5,8,24
17:40:35:376127,3,-13,16,-18,-9,-6,-5,-1
17:40:35:382056,1,-8,-6,-23,-8,1,3,9
17:40:35:390304,1,-8,-6,-23,-8,1,3,9
17:40:35:391113,24,7,-6,25,9,6,6,16
17:40:35:404563,-19,0,14,-4,21,6,-16,-11
17:40:35:412784,-19,0,14,-4,21,6,-16,-11
17:40:35:413615,-17,-12,21,24,13,11,-3,24
17:40:35:419542,-9,23,-9,15,1,1,-2,-8
17:40:35:435348,-9,23,-9,15,1,1,-2,-8
17:40:35:436104,-1,-1,-59,-24,-12,-11,-1,-15
17:40:35:442071,17,-9,-21,-9,-6,-7,-3,2
17:40:35:450300,17,-9,-21,-9,-6,-7,-3,2
17:40:35:451095,3,-3,-24,7,-6,-5,3,-6
17:40:35:464626,32,14,40,-9,-7,-5,-4,-8
17:40:35:472813,32,14,40,-9,-7,-5,-4,-8
17:40:35:473668,-22,-19,-26,22,-2,-1,4,10
17:40:35:479557,-28,-20,-13,-5,19,2,7,3
17:40:35:495331,-28,-20,-13,-5,19,2,7,3
17:40:35:496103,13,33,55,22,4,4,9,15
17:40:35:502109,-1,-2,15,2,-10,-4,6,11
17:40:35:510294,-1,-2,15,2,-10,-4,6,11
17:40:35:511070,18,11,12,-16,-20,-10,-12,-6
17:40:35:524611,-25,0,9,5,9,12,8,4
17:40:35:532799,-25,0,9,5,9,12,8,4
17:40:35:533611,-7,3,-24,8,30,6,1,-5
17:40:35:539575,1,-14,-14,5,-19,-13,-8,-23
17:40:35:555290,1,-14,-14,5,-19,-13,-8,-23
17:40:35:556105,11,-14,2,-14,-2,1,3,-21
17:40:35:562103,3,-19,29,-8,1,4,28,14
17:40:35:570290,3,-19,29,-8,1,4,28,14
17:40:35:571101,-4,-30,-13,-1,-4,-5,-5,-4
17:40:35:584627,-10,13,-23,-6,-14,-9,-11,-13
17:40:35:592787,-10,13,-23,-6,-14,-9,-11,-13
17:40:35:593577,-2,3,26,3,5,7,4,-4
17:40:35:599604,-5,3,10,-6,0,-1,-14,0
17:40:35:615272,-5,3,10,-6,0,-1,-14,0
17:40:35:616081,-26,-9,-22,-8,-4,-1,19,32
17:40:35:622113,25,-29,8,7,4,4,3,-15
17:40:35:630290,25,-29,8,7,4,4,3,-15
17:40:35:631094,-2,-23,-18,36,1,-6,-19,-6
17:40:35:644580,2,-8,15,-6,-1,1,-4,9
17:40:35:652766,2,-8,15,-6,-1,1,-4,9
17:40:35:653595,15,17,-4,-26,-6,0,-19,19
17:40:35:659612,21,15,-33,11,8,0,-23,-3
17:40:35:675325,21,15,-33,11,8,0,-23,-3
17:40:35:676112,-21,-16,11,7,-8,-12,16,12
17:40:35:682100,-19,25,31,8,-1,3,-3,5
17:40:35:690259,-19,25,31,8,-1,3,-3,5
17:40:35:691058,-10,24,2,15,-4,-5,-11,-36
17:40:35:704591,29,-8,3,5,-9,-9,4,18
17:40:35:712823,29,-8,3,5,-9,-9,4,18
17:40:35:713649,-1,0,38,12,9,3,-1,-5
17:40:35:719699,-17,-31,-16,-27,-9,-8,-3,-15
17:40:35:735413,-17,-31,-16,-27,-9,-8,-3,-15
17:40:35:736120,28,29,8,-8,-9,-8,-22,-3
17:40:35:742080,-19,6,7,14,20,13,12,-14
17:40:35:750334,-19,6,7,14,20,13,12,-14
17:40:35:751119,-8,-17,-20,-24,-2,-2,9,-1
17:40:35:764583,6,0,11,0,-14,-8,-8,-19
17:40:35:772829,6,0,11,0,-14,-8,-8,-19
17:40:35:773611,12,19,10,11,4,-3,-14,1
17:40:35:779586,-12,14,-8,7,18,20,8,15
17:40:35:795336,-12,14,-8,7,18,20,8,15
17:40:35:796123,16,-4,4,-11,-6,-9,-18,-10
17:40:35:802099,-12,11,-1,5,6,-3,-4,12
17:40:35:810323,-12,11,-1,5,6,-3,-4,12
17:40:35:811143,-20,7,36,7,-3,0,-5,-15
17:40:35:824567,-31,-31,-42,-17,-13,-13,-13,-17
17:40:35:832858,-31,-31,-42,-17,-13,-13,-13,-17
17:40:35:833609,15,-11,8,-6,3,-2,8,7
17:40:35:839579,17,5,-4,2,-7,0,-4,-22
17:40:35:855300,17,5,-4,2,-7,0,-4,-22
17:40:35:856088,2,-1,-18,-14,6,16,13,-1
17:40:35:862065,10,0,14,27,2,-9,-15,-14
17:40:35:870325,10,0,14,27,2,-9,-15,-14
17:40:35:871107,-15,-25,-1,-18,-5,-6,-4,-19
17:40:35:884557,6,38,31,-8,-10,-4,7,10
17:40:35:892795,6,38,31,-8,-10,-4,7,10
17:40:35:893602,13,-2,20,2,-4,-1,8,-2
17:40:35:899593,-4,-19,6,-13,-1,3,18,18
17:40:35:915316,-4,-19,6,-13,-1,3,18,18
17:40:35:916103,3,16,-49,-4,-8,-8,-8,-21
17:40:35:922056,-8,-4,5,14,8,8,-4,-3
17:40:35:930302,-8,-4,5,14,8,8,-4,-3
17:40:35:931111,25,-7,-3,-13,-3,10,10,10
17:40:35:944563,-43,-24,-93,-20,-3,-7,-14,-14
17:40:35:952796,-43,-24,-93,-20,-3,-7,-14,-14
17:40:35:953600,23,3,-29,6,0,-1,3,1
17:40:35:967140,26,29,24,-17,-9,0,4,34
17:40:35:975296,26,29,24,-17,-9,0,4,34
17:40:35:976093,-20,-7,-21,17,6,6,-3,-4
17:40:35:982086,8,1,35,0,4,3,1,0
17:40:35:989712,8,1,35,0,4,3,1,0
17:40:35:997086,-3,22,2,22,6,-5,-6,3
17:40:36:4595,-14,2,-18,1,-11,-1,-10,-25
17:40:36:12809,-14,2,-18,1,-11,-1,-10,-25
17:40:36:13608,-19,-3,30,11,7,-2,6,6
17:40:36:27082,19,-9,-30,-17,-3,-5,4,10
17:40:36:35394,19,-9,-30,-17,-3,-5,4,10
17:40:36:36073,18,3,3,-7,4,12,1,0
17:40:36:42069,20,15,29,1,2,-4,-40,-18
17:40:36:49690,20,15,29,1,2,-4,-40,-18
17:40:36:57084,-16,15,4,-4,-12,-15,-25,32
17:40:36:64571,-29,14,-8,-9,17,7,4,11
17:40:36:72809,-29,14,-8,-9,17,7,4,11
17:40:36:73605,11,-2,35,-16,-2,3,6,12
17:40:36:87058,-3,-2,-8,-22,-10,-5,6,12
17:40:36:95357,-3,-2,-8,-22,-10,-5,6,12
17:40:36:96096,20,-2,-17,-9,-4,0,17,-7
17:40:36:102098,-46,-5,-10,-21,-7,-5,33,-7
17:40:36:109653,-46,-5,-10,-21,-7,-5,33,-7
17:40:36:117098,-83,-27,3,3,-4,-6,-14,-27
17:40:36:124572,-3,-4,6,0,-4,3,11,-9
17:40:36:132803,-3,-4,6,0,-4,3,11,-9
17:40:36:133577,16,22,-1,29,13,2,4,-20
17:40:36:155937,4,-29,-31,6,-5,-6,10,8
17:40:36:156761,4,-29,-31,6,-5,-6,10,8
17:40:36:157591,-21,-63,-10,-22,-9,-1,-12,-1
17:40:36:162073,24,1,23,23,-3,-6,-17,-5
17:40:36:169638,24,1,23,23,-3,-6,-17,-5
17:40:36:177097,16,12,-20,-21,-12,-9,-11,-20
17:40:36:184614,3,13,1,7,6,12,23,10
17:40:36:192831,3,13,1,7,6,12,23,10
17:40:36:193590,33,-8,-3,3,6,13,17,2
17:40:36:207083,-40,-17,24,10,-3,-15,-7,-16
17:40:36:215338,-40,-17,24,10,-3,-15,-7,-16
17:40:36:216122,7,-1,-30,15,9,3,7,20
17:40:36:222151,31,-3,15,6,15,4,-4,-6
17:40:36:229676,31,-3,15,6,15,4,-4,-6
17:40:36:237091,-7,-4,8,-29,7,9,-3,-4
17:40:36:244589,9,5,-7,17,-2,-1,-3,19
17:40:36:252781,9,5,-7,17,-2,-1,-3,19
17:40:36:253665,-3,29,-4,5,-11,-13,5,-32
17:40:36:267110,-20,-8,-10,-4,-3,2,10,7
17:40:36:275321,-20,-8,-10,-4,-3,2,10,7
17:40:36:276143,-14,5,23,17,9,10,0,11
17:40:36:282179,-33,-8,-6,-2,-4,-3,-18,-12
17:40:36:289638,-33,-8,-6,-2,-4,-3,-18,-12
17:40:36:297115,-15,11,11,-14,-16,-15,-5,-2
17:40:36:304603,38,8,-7,-14,3,5,-4,13
17:40:36:312830,38,8,-7,-14,3,5,-4,13
17:40:36:313631,-32,-8,4,17,-14,-9,-6,-1
17:40:36:327086,-4,9,-14,-13,-4,-3,-24,-1
17:40:36:335293,-4,9,-14,-13,-4,-3,-24,-1
17:40:36:336070,1,-18,-6,-7,0,-1,19,14
17:40:36:342115,-7,1,7,-3,1,-1,-4,-21
17:40:36:349631,-7,1,7,-3,1,-1,-4,-21
17:40:36:357103,10,6,-28,-8,5,8,-2,3
17:40:36:364590,4,11,29,15,-3,-2,24,8
17:40:36:372772,4,11,29,15,-3,-2,24,8
17:40:36:373578,-17,-30,-19,-9,-9,-11,-7,-6
17:40:36:387137,37,12,-35,-3,5,10,5,4
17:40:36:395298,37,12,-35,-3,5,10,5,4
17:40:36:396092,26,40,20,17,7,1,15,-6
17:40:36:402051,7,-12,27,5,-13,-9,-18,9
17:40:36:409662,7,-12,27,5,-13,-9,-18,9
17:40:36:417070,20,1,-13,9,-9,-4,9,21
17:40:36:424553,-21,-17,-34,-16,-6,-2,-6,-10
17:40:36:432848,-21,-17,-34,-16,-6,-2,-6,-10
17:40:36:433605,-3,19,0,-1,8,7,-10,6
17:40:36:447081,-6,0,-23,-6,-3,-7,1,2
17:40:36:455306,-6,0,-23,-6,-3,-7,1,2
17:40:36:456106,-19,-1,-6,-1,-2,-1,-9,-18
17:40:36:470271,-12,2,-8,8,0,7,-4,-14
17:40:36:471100,-12,2,-8,8,0,7,-4,-14
17:40:36:477048,7,-29,34,-3,-5,-3,16,-1
17:40:36:484563,-27,-5,15,-21,-13,-10,-2,1
17:40:36:500266,-27,-5,15,-21,-13,-10,-2,1
17:40:36:501059,-12,2,-36,-4,7,6,-12,-8
17:40:36:507777,42,-31,-52,-23,-9,-6,-10,-15
17:40:36:508573,42,-31,-52,-23,-9,-6,-10,-15
17:40:36:514788,-36,-23,-1,-4,0,-2,-6,3
17:40:36:522073,4,10,53,22,14,-3,-8,-7
17:40:36:529668,4,10,53,22,14,-3,-8,-7
17:40:36:537059,9,15,6,9,-3,2,-3,-5
17:40:36:544576,-1,1,8,-1,-7,-1,18,30
17:40:36:552806,-1,1,8,-1,-7,-1,18,30
17:40:36:553615,5,6,25,-27,-9,-5,-2,1
17:40:36:567777,8,7,34,6,1,-5,14,-6
17:40:36:568614,8,7,34,6,1,-5,14,-6
17:40:36:574556,-6,-31,-85,-15,-25,-3,-27,-12
17:40:36:582071,-10,-9,18,-7,-2,-2,-5,-19
17:40:36:589644,-10,-9,18,-7,-2,-2,-5,-19
17:40:36:597080,0,-5,-1,-3,-3,-10,-10,-2
17:40:36:604564,40,21,3,4,10,6,7,3
17:40:36:612826,40,21,3,4,10,6,7,3
17:40:36:613610,41,0,14,50,9,-2,-10,-2
17:40:36:627808,-34,30,7,-9,0,0,-7,-1
17:40:36:628630,-34,30,7,-9,0,0,-7,-1
17:40:36:634601,-2,20,38,-4,0,2,5,8
17:40:36:642086,-2,-17,-17,3,-11,-9,-8,12
17:40:36:649691,-2,-17,-17,3,-11,-9,-8,12
17:40:36:657078,18,39,47,16,42,15,10,-20
17:40:36:664600,-20,-22,-16,0,-20,-6,-1,-8
17:40:36:672769,-20,-22,-16,0,-20,-6,-1,-8
17:40:36:673611,2,-19,-71,-12,-3,-2,6,7
17:40:36:687751,2,4,-10,6,18,11,4,26
17:40:36:688580,2,4,-10,6,18,11,4,26
17:40:36:694572,-34,-12,20,-13,-5,-1,10,-5
17:40:36:702096,10,2,30,19,-1,-7,-8,6
17:40:36:709616,10,2,30,19,-1,-7,-8,6
17:40:36:717033,3,7,22,3,-3,-2,0,-18
17:40:36:724613,19,20,5,6,-2,-5,5,-21
17:40:36:732806,19,20,5,6,-2,-5,5,-21
17:40:36:733585,37,-14,-40,-5,1,-6,-2,36
17:40:36:747775,13,5,-37,-20,-1,0,-5,-11
17:40:36:748619,13,5,-37,-20,-1,0,-5,-11
17:40:36:754523,-8,-4,6,-5,-3,-5,0,2
17:40:36:770271,-28,-10,-38,2,7,5,-6,-12
17:40:36:771075,-28,-10,-38,2,7,5,-6,-12
17:40:36:777081,-4,10,48,4,-6,-1,1,-1
17:40:36:784616,-22,8,48,3,-1,-5,27,-2
17:40:36:800331,-22,8,48,3,-1,-5,27,-2
17:40:36:801160,-2,10,7,24,-2,0,-5,-6
17:40:36:807735,-6,-8,-20,16,6,5,-14,-4
17:40:36:808586,-6,-8,-20,16,6,5,-14,-4
17:40:36:814614,-25,21,37,3,-10,-5,1,3
17:40:36:822105,0,-8,-7,-2,1,3,1,6
17:40:36:829631,0,-8,-7,-2,1,3,1,6
17:40:36:837191,7,-39,-49,-27,1,-3,-8,-10
17:40:36:844666,-8,-7,8,8,10,9,6,16
17:40:36:852778,-8,-7,8,8,10,9,6,16
17:40:36:853593,-1,12,7,-4,-5,-7,-7,2
17:40:36:867761,-1,-20,-17,-20,-6,-3,-4,-14
17:40:36:868604,-1,-20,-17,-20,-6,-3,-4,-14
17:40:36:874547,23,-27,-10,20,3,-1,-10,39
17:40:36:882085,-8,22,-7,-22,-6,-4,-4,-9
17:40:36:889619,-8,22,-7,-22,-6,-4,-4,-9
17:40:36:897080,3,-15,-1,9,-2,4,5,-2
17:40:36:904644,-7,-1,12,0,-3,-8,8,-8
17:40:36:912128,-7,-1,12,0,-3,-8,8,-8
17:40:36:919571,-10,0,-11,5,23,10,3,-11
17:40:36:927785,-30,-27,61,-16,-2,-2,-5,-10
17:40:36:928635,-30,-27,61,-16,-2,-2,-5,-10
17:40:36:934593,-14,-17,-13,-10,-9,-4,0,-1
17:40:36:950307,-8,-9,6,5,1,-1,-7,0
17:40:36:951097,-8,-9,6,5,1,-1,-7,0
17:40:36:957071,-34,5,18,-7,-4,-1,9,-19
17:40:36:964599,8,32,-14,11,-1,0,-9,11
17:40:36:972150,8,32,-14,11,-1,0,-9,11
17:40:36:979649,-18,6,7,-8,4,1,-16,-39
17:40:36:987753,15,2,28,34,-2,-2,6,23
17:40:36:988567,15,2,28,34,-2,-2,6,23
17:40:36:994577,27,12,15,-8,-2,3,4,8
17:40:37:10322,24,-10,-16,-28,-1,1,0,-1
17:40:37:11123,24,-10,-16,-28,-1,1,0,-1
17:40:37:17082,25,16,-15,-6,-10,-12,8,16
17:40:37:24577,1,2,-32,-16,-7,1,0,-5
17:40:37:32095,1,2,-32,-16,-7,1,0,-5
17:40:37:39612,44,13,-15,-3,3,6,1,6
17:40:37:47765,0,-41,-42,3,-1,4,5,12
17:40:37:48574,0,-41,-42,3,-1,4,5,12
17:40:37:54563,-17,-35,4,6,-5,-9,-6,-8
17:40:37:70281,17,0,-30,-9,-1,0,-4,-8
17:40:37:71116,17,0,-30,-9,-1,0,-4,-8
17:40:37:77183,-27,-3,-14,-10,-7,-4,-8,8
17:40:37:84603,-1,9,-43,11,9,6,4,-11
17:40:37:92102,-1,9,-43,11,9,6,4,-11
17:40:37:99670,4,2,20,-9,-12,-7,-1,-12
17:40:37:107117,-18,2,32,32,-4,-4,-4,-9
17:40:37:115281,-18,2,32,32,-4,-4,-4,-9
17:40:37:116056,5,3,4,-9,9,7,2,0
17:40:37:130280,32,0,5,-14,-5,-11,-11,4
17:40:37:131070,32,0,5,-14,-5,-11,-11,4
17:40:37:137042,-13,6,4,6,-4,-7,-3,-2
17:40:37:144612,42,14,57,-4,3,3,4,-7
17:40:37:152139,42,14,57,-4,3,3,4,-7
17:40:37:159550,39,21,-27,-34,-7,2,-1,18
17:40:37:167786,18,7,8,-11,-12,-8,-9,15
17:40:37:168597,18,7,8,-11,-12,-8,-9,15
17:40:37:174585,-22,-11,-17,11,-5,7,2,-4
17:40:37:190292,-15,-21,3,-12,12,6,3,-13
17:40:37:191103,-15,-21,3,-12,12,6,3,-13
17:40:37:197063,-18,8,-22,-16,-2,-3,1,-14
17:40:37:204570,13,-6,-12,5,-9,-7,3,-17
17:40:37:212153,13,-6,-12,5,-9,-7,3,-17
17:40:37:219622,-32,-19,4,4,4,0,-13,-10
17:40:37:227800,-15,10,17,7,5,-1,7,5
17:40:37:228605,-15,10,17,7,5,-1,7,5
17:40:37:242088,-3,-10,42,14,0,0,6,7
17:40:37:250357,-35,-8,10,8,1,1,-5,-16
17:40:37:251136,-35,-8,10,8,1,1,-5,-16
17:40:37:257064,1,10,-10,-1,-5,2,-10,-1
17:40:37:264562,-2,3,-13,-8,-4,3,25,18
17:40:37:272155,-2,3,-13,-8,-4,3,25,18
17:40:37:279596,-16,-28,5,-7,-1,-8,4,2
17:40:37:287762,20,14,26,17,3,0,-10,18
17:40:37:288567,20,14,26,17,3,0,-10,18
17:40:37:294643,16,1,6,-1,4,4,20,5
17:40:37:310269,-17,-13,19,1,-7,-9,-5,4
17:40:37:311083,-17,-13,19,1,-7,-9,-5,4
17:40:37:317107,2,7,-10,3,8,4,-3,-2
17:40:37:324645,36,7,-35,-30,-11,-5,2,-2
17:40:37:332120,36,7,-35,-30,-11,-5,2,-2
17:40:37:339594,-1,-1,1,-12,1,3,0,-10
17:40:37:347800,-35,11,-1,8,-3,-6,-2,-2
17:40:37:348619,-35,11,-1,8,-3,-6,-2,-2
17:40:37:354555,8,-4,-16,2,-2,2,7,-6
17:40:37:370273,11,2,57,14,5,-1,-9,-5
17:40:37:371136,11,2,57,14,5,-1,-9,-5
17:40:37:377190,-27,3,0,12,17,8,1,3
