Time,EMG1,EMG2,EMG3,EMG4,EMG5,EMG6,EMG7,EMG8
18:21:53:5351,1,5,0,0,0,3,0,0
18:21:53:6111,-2,-4,7,-2,-4,1,17,-2
18:21:53:6924,-2,-3,-3,-2,-1,0,0,-10
18:21:53:12169,-2,-3,-3,-2,-1,0,0,-10
18:21:53:12944,-2,3,2,-1,-2,-4,-11,-1
18:21:53:18940,-7,-2,0,0,1,-3,-8,-8
18:21:53:42848,-7,-2,0,0,1,-3,-8,-8
18:21:53:43620,-19,-5,7,-2,-1,-1,-1,-14
18:21:53:44519,3,-1,20,-1,-4,-4,1,4
18:21:53:49635,3,-1,20,-1,-4,-4,1,4
18:21:53:50428,-1,-3,10,1,2,6,7,5
18:21:53:63939,-6,-18,-20,-10,-10,-7,-6,1
18:21:53:72174,-6,-18,-20,-10,-10,-7,-6,1
18:21:53:72980,4,3,-7,1,-2,-1,-1,1
18:21:53:78945,10,19,7,4,1,7,16,7
18:21:53:86484,10,19,7,4,1,7,16,7
18:21:53:110989,0,-14,-44,-4,12,4,-3,2
18:21:53:111806,1,-4,9,-6,-5,-3,1,2
18:21:53:112597,1,-4,9,-6,-5,-3,1,2
18:21:53:113395,1,10,35,-27,-18,-20,-15,-4
18:21:53:140984,-6,-18,-22,53,43,30,8,4
18:21:53:141820,-6,-18,-22,53,43,30,8,4
18:21:53:142596,7,9,26,70,21,12,8,11
18:21:53:143418,-10,-12,-23,-66,-53,-43,-21,-10
18:21:53:154678,-10,-12,-23,-66,-53,-43,-21,-10
18:21:53:155517,7,14,7,44,21,15,6,3
18:21:53:171623,-6,-14,-11,-26,-24,-14,-17,-8
18:21:53:172428,-6,-14,-11,-26,-24,-14,-17,-8
18:21:53:173249,-7,-9,-11,-26,2,7,0,-2
18:21:53:183961,0,4,4,10,18,11,49,-2
18:21:53:192192,0,4,4,10,18,11,49,-2
18:21:53:192958,-3,-5,-6,-2,-13,3,65,-6
18:21:53:207158,3,5,3,-12,-6,-3,-25,4
18:21:53:207974,3,5,3,-12,-6,-3,-25,4
18:21:53:213905,0,-2,-21,-17,-7,0,-13,-3
18:21:53:221433,1,1,4,10,3,6,0,-3
18:21:53:237177,1,1,4,10,3,6,0,-3
18:21:53:237953,1,-3,-6,-23,-9,-8,-11,-1
18:21:53:243963,0,2,-2,11,2,2,-5,-4
18:21:53:252166,0,2,-2,11,2,2,-5,-4
18:21:53:252987,-2,0,18,-15,-14,-16,-7,-3
18:21:53:258996,2,7,-1,29,21,10,8,5
18:21:53:266544,2,7,-1,29,21,10,8,5
18:21:53:273939,0,0,12,-4,-2,-2,-15,0
18:21:53:281446,-4,-6,-13,-15,-9,-4,-4,-5
18:21:53:289673,-4,-6,-13,-15,-9,-4,-4,-5
18:21:53:290524,3,-9,-23,-1,-6,-23,-64,10
18:21:53:304394,-1,-2,-2,1,1,-1,-12,0
18:21:53:312181,-1,-2,-2,1,1,-1,-12,0
18:21:53:312959,-2,5,0,-2,-2,3,3,2
18:21:53:318953,-2,-1,-11,0,2,-2,-3,-2
18:21:53:334660,-2,-1,-11,0,2,-2,-3,-2
18:21:53:335446,-5,-15,-17,-8,-3,-2,-4,-4
18:21:53:350304,-1,0,10,1,-3,-2,3,-1
18:21:53:351111,-1,0,10,1,-3,-2,3,-1
18:21:53:351905,-3,4,-6,-1,-1,1,9,-7
18:21:53:363988,6,-3,0,-4,-2,-1,0,2
18:21:53:372572,6,-3,0,-4,-2,-1,0,2
18:21:53:379639,18,-10,3,0,1,4,3,5
18:21:53:380435,5,0,17,-5,-3,-3,-5,1
18:21:53:394692,5,0,17,-5,-3,-3,-5,1
18:21:53:395534,0,5,16,1,-2,-1,-3,-4
18:21:53:410311,3,-3,-24,-1,-3,-8,0,-4
18:21:53:411156,3,-3,-24,-1,-3,-8,0,-4
18:21:53:411937,15,-2,-1,0,-2,0,3,-14
18:21:53:423925,-30,1,14,2,-1,1,-4,-18
18:21:53:432180,-30,1,14,2,-1,1,-4,-18
18:21:53:432973,11,-12,-3,-5,0,1,-1,14
18:21:53:438944,-58,-3,-2,0,0,1,-3,1
18:21:53:454648,-58,-3,-2,0,0,1,-3,1
18:21:53:455532,-8,-2,-19,-2,-4,-7,-45,0
18:21:53:461431,27,0,-17,-4,2,0,3,11
18:21:53:469670,27,0,-17,-4,2,0,3,11
18:21:53:470522,0,4,-10,-5,-4,2,15,11
18:21:53:483920,-2,4,28,3,-1,0,-7,-25
18:21:53:492164,-2,4,28,3,-1,0,-7,-25
18:21:53:492969,31,-9,-8,-5,-6,-5,5,11
18:21:53:498968,12,2,-1,0,1,1,12,12
18:21:53:514672,12,2,-1,0,1,1,12,12
18:21:53:515435,-35,2,27,2,0,-2,1,14
18:21:53:521429,52,14,0,-2,-1,-1,1,9
18:21:53:529696,52,14,0,-2,-1,-1,1,9
18:21:53:530531,0,6,-8,-1,1,4,17,13
18:21:53:543998,11,-2,-1,-4,-4,-7,-35,2
18:21:53:552148,11,-2,-1,-4,-4,-7,-35,2
18:21:53:552954,-14,4,3,1,1,1,2,-14
18:21:53:558949,-19,-12,-9,-2,-2,1,6,-2
18:21:53:574674,-19,-12,-9,-2,-2,1,6,-2
18:21:53:575443,-11,-4,-10,-7,-2,-4,3,0
18:21:53:581484,-7,-7,-17,-2,0,2,9,5
18:21:53:589656,-7,-7,-17,-2,0,2,9,5
18:21:53:590442,-33,-4,-42,-1,-3,-4,-8,-33
18:21:53:603957,-16,-6,3,-2,-2,0,4,11
18:21:53:612156,-16,-6,3,-2,-2,0,4,11
18:21:53:612961,0,2,15,1,0,-4,-30,78
18:21:53:618958,-4,1,-6,0,-2,-3,-16,-29
18:21:53:634697,-4,1,-6,0,-2,-3,-16,-29
18:21:53:635515,2,5,3,2,-2,12,77,-14
18:21:53:641448,-4,12,16,1,1,5,19,10
18:21:53:649643,-4,12,16,1,1,5,19,10
18:21:53:650429,-3,-3,11,0,-2,-3,-9,-18
18:21:53:663976,-3,3,-4,-2,-2,-2,2,-22
18:21:53:672185,-3,3,-4,-2,-2,-2,2,-22
18:21:53:672946,1,1,-6,2,1,1,3,-17
18:21:53:678975,8,-4,-2,-3,-4,-3,-10,22
18:21:53:694671,8,-4,-2,-3,-4,-3,-10,22
18:21:53:695525,8,5,9,1,1,5,10,17
18:21:53:701461,-9,-3,-4,2,-1,-14,-79,0
18:21:53:708964,-9,-3,-4,2,-1,-14,-79,0
18:21:53:716478,1,8,34,5,-3,-4,-9,-9
18:21:53:723964,-9,-11,-2,-4,-1,6,37,-12
18:21:53:732144,-9,-11,-2,-4,-1,6,37,-12
18:21:53:732929,0,6,5,4,-4,-1,11,-29
18:21:53:746436,10,1,1,0,-2,-17,-83,-24
18:21:53:754653,10,1,1,0,-2,-17,-83,-24
18:21:53:755463,-29,-5,-10,-2,1,0,-2,-11
18:21:53:761501,9,-8,-4,-1,0,4,37,44
18:21:53:768994,9,-8,-4,-1,0,4,37,44
18:21:53:776431,11,6,-3,-4,-1,-4,-6,-10
18:21:53:783926,-4,7,9,0,-1,-5,16,-11
18:21:53:792172,-4,7,9,0,-1,-5,16,-11
18:21:53:792969,10,-4,-8,-2,-2,0,-2,6
18:21:53:806474,12,0,-2,1,-1,8,18,-6
18:21:53:814656,12,0,-2,1,-1,8,18,-6
18:21:53:815583,-18,-14,-44,-9,-1,6,-6,-28
18:21:53:821433,-16,0,6,2,0,8,36,-14
18:21:53:829019,-16,0,6,2,0,8,36,-14
18:21:53:836442,9,2,9,0,-6,-13,-59,-35
18:21:53:843955,-14,-4,-10,-4,-1,6,32,18
18:21:53:852179,-14,-4,-10,-4,-1,6,32,18
18:21:53:852978,4,-2,0,-2,-2,-1,18,13
18:21:53:866422,13,2,4,1,-2,-3,-14,5
18:21:53:874666,13,2,4,1,-2,-3,-14,5
18:21:53:875544,-29,-15,-4,-6,-2,-4,-2,6
18:21:53:881452,-4,0,1,2,-1,1,59,20
18:21:53:889024,-4,0,1,2,-1,1,59,20
18:21:53:896449,36,5,1,3,0,0,-8,-2
18:21:53:903959,-1,0,-2,-3,-1,-1,11,-8
18:21:53:912607,-1,0,-2,-3,-1,-1,11,-8
18:21:53:918969,-7,-19,-41,-5,-4,2,-3,11
18:21:53:926450,2,5,9,-1,0,2,-13,3
18:21:53:934661,2,5,9,-1,0,2,-13,3
18:21:53:935436,7,6,15,-2,3,1,-5,14
18:21:53:941467,17,0,-11,2,-4,-9,-18,-37
18:21:53:948989,17,0,-11,2,-4,-9,-18,-37
18:21:53:956410,-9,-2,13,5,1,3,11,-2
18:21:53:963939,-11,-8,8,-5,-4,-7,-18,4
18:21:53:972153,-11,-8,8,-5,-4,-7,-18,4
18:21:53:972971,15,5,4,-2,-2,-9,13,7
18:21:53:986468,-20,0,4,1,-3,-12,-85,-59
18:21:53:994651,-20,0,4,1,-3,-12,-85,-59
18:21:53:995432,-5,0,0,-2,-1,7,-5,4
18:21:54:1424,10,0,-2,-3,-1,3,-25,7
18:21:54:9005,10,0,-2,-3,-1,3,-25,7
18:21:54:16426,-13,9,0,-1,0,-3,-11,-9
18:21:54:23963,-5,-4,-7,-3,0,-1,24,9
18:21:54:39671,-5,-4,-7,-3,0,-1,24,9
18:21:54:40457,5,-3,2,4,0,-3,7,7
18:21:54:46430,11,15,4,-3,0,5,13,6
18:21:54:54665,11,15,4,-3,0,5,13,6
18:21:54:55450,-10,-11,-7,-2,-2,1,8,-8
18:21:54:69674,-21,-27,7,-3,-2,-2,8,-3
18:21:54:70453,-21,-27,7,-3,-2,-2,8,-3
18:21:54:76482,4,1,18,-1,-3,-9,-48,-35
18:21:54:83910,0,-10,-5,1,0,6,25,14
18:21:54:92172,0,-10,-5,1,0,6,25,14
18:21:54:92958,13,4,12,2,-1,4,10,1
18:21:54:107141,19,8,-3,-1,1,2,6,7
18:21:54:107970,19,8,-3,-1,1,2,6,7
18:21:54:113908,1,6,-1,-2,-1,1,2,2
18:21:54:121420,-9,0,-1,4,-3,-4,8,10
18:21:54:128998,-9,0,-1,4,-3,-4,8,10
18:21:54:136443,1,-12,-6,-9,-3,0,6,5
18:21:54:143942,-4,14,-8,-5,-3,4,6,11
18:21:54:152180,-4,14,-8,-5,-3,4,6,11
18:21:54:152985,-30,-3,-19,1,0,3,9,-57
18:21:54:167170,15,-15,-16,-6,1,3,7,3
18:21:54:167979,15,-15,-16,-6,1,3,7,3
18:21:54:173974,-6,0,12,1,1,5,1,10
18:21:54:181456,-11,-19,-1,1,-3,1,-6,-7
18:21:54:189038,-11,-19,-1,1,-3,1,-6,-7
18:21:54:196459,14,14,9,0,0,-2,1,5
18:21:54:203951,-81,-88,-8,-5,-3,-5,-9,-5
18:21:54:212205,-81,-88,-8,-5,-3,-5,-9,-5
18:21:54:213017,-21,-9,16,-2,-2,-4,-5,5
18:21:54:227204,25,49,2,3,-2,-1,-2,2
18:21:54:227997,25,49,2,3,-2,-1,-2,2
18:21:54:233965,10,2,0,0,0,-1,5,17
18:21:54:249670,8,14,-9,-10,-1,2,8,9
18:21:54:250539,8,14,-9,-10,-1,2,8,9
18:21:54:256441,13,13,-7,-2,0,-7,-3,-11
18:21:54:263974,7,7,-10,1,0,3,17,-18
18:21:54:272173,7,7,-10,1,0,3,17,-18
18:21:54:272987,-10,-13,-5,-3,0,1,-2,7
18:21:54:286457,38,43,26,5,1,6,10,0
18:21:54:294669,38,43,26,5,1,6,10,0
18:21:54:295536,3,-9,-3,-1,-2,1,6,0
18:21:54:301468,-15,48,17,8,3,-2,-3,5
18:21:54:317159,-15,48,17,8,3,-2,-3,5
18:21:54:317980,3,-16,-2,0,-2,-10,-33,-1
18:21:54:323957,-39,-40,-27,-3,1,-11,-13,-7
18:21:54:332190,-39,-40,-27,-3,1,-11,-13,-7
18:21:54:332966,2,-5,-18,-4,-2,6,17,12
18:21:54:347134,25,12,15,5,2,0,-15,23
18:21:54:347967,25,12,15,5,2,0,-15,23
18:21:54:353942,-1,6,11,6,2,1,8,9
18:21:54:361459,13,-13,-5,-5,1,2,24,12
18:21:54:369039,13,-13,-5,-5,1,2,24,12
18:21:54:376454,-2,1,7,1,-2,0,3,5
18:21:54:383982,34,-10,-10,-4,-3,-11,-21,-15
18:21:54:392204,34,-10,-10,-4,-3,-11,-21,-15
18:21:54:393008,-2,3,-9,-4,0,-2,-3,-2
18:21:54:407164,9,38,14,0,-2,7,16,-1
18:21:54:407983,9,38,14,0,-2,7,16,-1
18:21:54:413951,-41,-17,1,-7,-4,-25,-98,-31
18:21:54:421466,-1,-8,3,1,-1,-1,-2,-2
18:21:54:429037,-1,-8,3,1,-1,-1,-2,-2
18:21:54:436443,6,-8,-14,-14,-5,3,27,2
18:21:54:443963,0,4,5,2,-1,1,-28,-2
18:21:54:452127,0,4,5,2,-1,1,-28,-2
18:21:54:452944,2,-22,33,15,6,2,22,10
18:21:54:466450,3,25,-21,-12,-2,3,7,0
18:21:54:474719,3,25,-21,-12,-2,3,7,0
18:21:54:475536,15,8,-11,0,0,1,10,14
18:21:54:481442,0,-12,0,2,-1,-3,-1,-7
18:21:54:488966,0,-12,0,2,-1,-3,-1,-7
18:21:54:496456,-3,35,18,3,0,1,3,-11
18:21:54:503966,-18,-16,-8,-4,-2,-3,-8,-12
18:21:54:512177,-18,-16,-8,-4,-2,-3,-8,-12
18:21:54:512947,12,-19,-2,3,-1,8,-10,-19
18:21:54:526461,-34,-80,17,2,-3,-5,-1,0
18:21:54:534628,-34,-80,17,2,-3,-5,-1,0
18:21:54:535430,-2,-5,-26,-5,-4,7,16,7
18:21:54:541485,-4,8,18,8,1,0,-11,3
18:21:54:548985,-4,8,18,8,1,0,-11,3
18:21:54:556424,-2,8,-1,-6,-1,2,8,12
18:21:54:572780,-7,-47,-2,-4,-8,-4,5,8
18:21:54:573610,-7,-47,-2,-4,-8,-4,5,8
18:21:54:574419,-19,-1,-38,2,5,2,7,-12
18:21:54:586449,-16,-6,-11,3,4,13,19,-2
18:21:54:594713,-16,-6,-11,3,4,13,19,-2
18:21:54:595578,-15,-10,-8,-20,-11,-6,-4,3
18:21:54:601468,17,13,-2,-1,5,5,0,1
18:21:54:608985,17,13,-2,-1,5,5,0,1
18:21:54:616453,6,16,12,3,-3,-1,3,-12
18:21:54:624011,-4,27,-17,-10,-3,-2,-5,-3
18:21:54:631598,-4,27,-17,-10,-3,-2,-5,-3
18:21:54:638932,31,37,-22,-2,2,-4,6,18
18:21:54:646434,12,19,8,1,-1,-6,-10,1
18:21:54:654662,12,19,8,1,-1,-6,-10,1
18:21:54:655540,-18,-12,-8,-10,0,5,9,13
18:21:54:669622,13,52,1,1,-2,3,4,-7
18:21:54:670555,13,52,1,1,-2,3,4,-7
18:21:54:676439,11,-2,12,11,1,0,7,0
18:21:54:683944,15,3,1,0,0,1,-1,-13
18:21:54:691589,15,3,1,0,0,1,-1,-13
18:21:54:698949,-9,-22,-14,-9,-9,-5,-10,-4
18:21:54:706439,-10,-8,-1,2,2,-2,-6,-18
18:21:54:714697,-10,-8,-1,2,2,-2,-6,-18
18:21:54:715540,5,13,-5,4,-2,-6,-19,-5
18:21:54:729674,-2,-22,-11,-4,-3,7,2,2
18:21:54:730545,-2,-22,-11,-4,-3,7,2,2
18:21:54:736450,-7,-1,15,4,1,4,6,2
18:21:54:743940,-6,-31,7,-5,-6,-2,3,-1
18:21:54:751576,-6,-31,7,-5,-6,-2,3,-1
18:21:54:758990,11,-7,20,6,2,-5,-9,5
18:21:54:767091,35,33,3,-1,0,-5,-2,19
18:21:54:767972,35,33,3,-1,0,-5,-2,19
18:21:54:773967,7,-14,-18,-8,-3,1,7,13
18:21:54:789666,-15,-22,13,9,0,0,-10,-6
18:21:54:790548,-15,-22,13,9,0,0,-10,-6
18:21:54:796461,-12,19,25,5,0,4,33,18
18:21:54:803971,-19,-18,-6,0,0,-6,-19,3
18:21:54:811613,-19,-18,-6,0,0,-6,-19,3
18:21:54:818974,11,-36,-14,-7,-5,2,6,-9
18:21:54:827130,11,16,-13,-2,-5,2,3,4
18:21:54:827967,11,16,-13,-2,-5,2,3,4
18:21:54:833963,5,-15,-16,-7,-1,0,-7,7
18:21:54:849634,5,10,19,3,2,0,-5,-18
18:21:54:850430,5,10,19,3,2,0,-5,-18
18:21:54:856511,-21,-62,26,0,-2,-3,-11,-21
18:21:54:863988,8,38,-22,-4,0,1,7,13
18:21:54:871468,8,38,-22,-4,0,1,7,13
18:21:54:878936,-17,33,-3,1,0,8,8,-22
18:21:54:887158,-6,-31,-1,-6,-4,-4,-8,-13
18:21:54:887980,-6,-31,-1,-6,-4,-4,-8,-13
18:21:54:893930,-10,24,1,3,4,-4,44,22
18:21:54:909670,13,19,3,1,1,3,14,11
18:21:54:910470,13,19,3,1,1,3,14,11
18:21:54:916444,-19,-3,12,4,2,2,-7,-7
18:21:54:923971,0,-21,-24,-8,-3,-5,-1,3
18:21:54:931586,0,-21,-24,-8,-3,-5,-1,3
18:21:54:938935,32,16,-44,-14,-7,-5,-16,-4
18:21:54:947165,-9,13,7,7,0,1,-9,13
18:21:54:947976,-9,13,7,7,0,1,-9,13
18:21:54:953955,-8,5,19,1,0,-1,-12,12
18:21:54:969638,-13,-72,25,1,1,2,-13,-4
18:21:54:970459,-13,-72,25,1,1,2,-13,-4
18:21:54:976428,37,37,-30,-1,-3,0,-14,-4
18:21:54:983922,3,2,5,0,2,0,15,26
18:21:54:991594,3,2,5,0,2,0,15,26
18:21:54:998951,9,-4,18,4,-2,-2,-10,-7
18:21:55:6425,0,1,-5,-2,-3,-2,2,15
18:21:55:14714,0,1,-5,-2,-3,-2,2,15
18:21:55:15526,18,3,-15,-2,0,4,4,6
18:21:55:29698,1,14,-2,-4,-5,-2,13,1
18:21:55:30548,1,14,-2,-4,-5,-2,13,1
18:21:55:36466,-5,-10,10,1,-1,5,-2,-8
18:21:55:43960,-14,50,-39,-6,-3,0,6,-20
18:21:55:51596,-14,50,-39,-6,-3,0,6,-20
18:21:55:58991,3,-2,6,7,2,-2,-5,17
18:21:55:75302,-1,-12,9,0,0,0,-13,-28
18:21:55:76112,-1,-12,9,0,0,0,-13,-28
18:21:55:76957,-14,0,-11,-3,-1,-2,-19,-11
18:21:55:89654,-17,-49,3,1,2,1,-7,-9
18:21:55:90447,-17,-49,3,1,2,1,-7,-9
18:21:55:96427,-24,33,-9,4,0,-5,-7,-3
18:21:55:103935,9,11,7,3,-2,2,-5,-2
18:21:55:111602,9,11,7,3,-2,2,-5,-2
18:21:55:118984,8,-5,5,0,-3,4,5,7
18:21:55:126438,-30,2,-23,-4,-2,-6,21,-9
18:21:55:134726,-30,2,-23,-4,-2,-6,21,-9
18:21:55:135590,-22,-17,3,-2,-2,-5,-3,-12
18:21:55:149668,4,-5,7,-10,-1,6,-7,2
18:21:55:150558,4,-5,7,-10,-1,6,-7,2
18:21:55:156460,26,-4,-3,-11,-3,2,-13,-10
18:21:55:163943,40,75,-57,4,3,-1,9,17
18:21:55:171607,40,75,-57,4,3,-1,9,17
18:21:55:178961,-11,-5,0,0,-1,-6,-22,5
18:21:55:186457,42,1,29,-3,-4,-4,-13,3
18:21:55:194641,42,1,29,-3,-4,-4,-13,3
18:21:55:195427,7,-9,19,1,-2,-1,15,6
18:21:55:209684,-11,-32,9,-1,-3,-1,-8,-5
18:21:55:210555,-11,-32,9,-1,-3,-1,-8,-5
18:21:55:216461,6,26,-33,-2,2,3,5,-3
18:21:55:223968,-48,-70,28,-7,-7,-3,-21,-22
18:21:55:231519,-48,-70,28,-7,-7,-3,-21,-22
18:21:55:238978,-19,-52,19,-2,0,-1,1,-10
18:21:55:246465,-4,-8,17,0,-2,-1,4,6
18:21:55:254645,-4,-8,17,0,-2,-1,4,6
18:21:55:255464,-4,-1,-5,-1,-4,-1,-4,1
18:21:55:269613,-7,3,0,1,4,-2,1,-1
18:21:55:270463,-7,3,0,1,4,-2,1,-1
18:21:55:276479,15,15,3,12,-4,-4,-1,-14
18:21:55:283956,0,10,-8,3,7,6,7,9
18:21:55:291482,0,10,-8,3,7,6,7,9
18:21:55:298913,53,-11,10,-9,0,3,13,6
18:21:55:306431,-20,-6,0,4,-4,-2,-13,-5
18:21:55:314670,-20,-6,0,4,-4,-2,-13,-5
18:21:55:315459,-22,-8,5,-5,2,3,-9,-2
18:21:55:329625,20,17,-9,-58,-29,-1,14,12
18:21:55:330449,20,17,-9,-58,-29,-1,14,12
18:21:55:336441,3,6,5,52,46,12,17,-1
18:21:55:343964,0,-18,20,14,3,-4,1,6
18:21:55:351595,0,-18,20,14,3,-4,1,6
18:21:55:358937,-13,6,0,-24,-24,-4,5,-3
18:21:55:366451,-24,-6,3,-4,0,5,-40,-38
18:21:55:374691,-24,-6,3,-4,0,5,-40,-38
18:21:55:375479,-20,-8,6,0,-3,-7,-27,-4
18:21:55:389650,6,4,6,8,0,9,6,-17
18:21:55:390570,6,4,6,8,0,9,6,-17
18:21:55:396472,12,12,0,-4,2,-3,9,2
18:21:55:403946,-11,20,5,6,0,-6,-57,-16
18:21:55:411575,-11,20,5,6,0,-6,-57,-16
18:21:55:418967,-7,-44,17,-11,-6,2,6,-19
18:21:55:426472,31,-9,20,12,5,13,40,24
18:21:55:434684,31,-9,20,12,5,13,40,24
18:21:55:435574,-33,10,-52,-18,-12,-3,9,13
18:21:55:449655,2,40,-19,3,3,-3,0,0
18:21:55:450564,2,40,-19,3,3,-3,0,0
18:21:55:456482,5,5,9,-3,-6,-2,34,15
18:21:55:463979,-35,19,36,3,-1,-6,15,10
18:21:55:471609,-35,19,36,3,-1,-6,15,10
18:21:55:478990,-30,-28,52,-5,-8,-4,-73,-14
18:21:55:486477,-7,-46,8,-4,3,-2,1,1
18:21:55:494647,-7,-46,8,-4,3,-2,1,1
18:21:55:495429,28,-11,31,-3,-2,4,-3,-2
18:21:55:509614,-25,-5,1,8,-4,-7,-7,-3
18:21:55:510443,-25,-5,1,8,-4,-7,-7,-3
18:21:55:516462,14,63,-46,16,6,1,15,9
18:21:55:523960,1,-14,-10,-3,-2,-1,15,-2
18:21:55:531491,1,-14,-10,-3,-2,-1,15,-2
18:21:55:539006,15,12,25,5,2,-1,1,3
18:21:55:546454,32,44,-9,-3,-2,2,14,9
18:21:55:554626,32,44,-9,-3,-2,2,14,9
18:21:55:555450,-1,-36,34,-6,-4,-18,-19,-7
18:21:55:569617,21,-17,-21,0,1,-6,-18,-28
18:21:55:570455,21,-17,-21,0,1,-6,-18,-28
18:21:55:576494,-27,-11,-10,-8,-1,10,22,4
18:21:55:592147,20,29,-22,1,1,-3,-13,18
18:21:55:592923,20,29,-22,1,1,-3,-13,18
18:21:55:598987,13,7,-20,-1,-2,4,-3,-3
18:21:55:606477,-30,-3,-4,-16,-6,-2,4,-8
18:21:55:614004,-30,-3,-4,-16,-6,-2,4,-8
18:21:55:621491,4,9,-4,9,12,8,12,3
18:21:55:629644,-32,-56,12,-1,-1,0,4,-5
18:21:55:630458,-32,-56,12,-1,-1,0,4,-5
18:21:55:636447,-5,-32,-9,-21,-14,2,-7,-14
18:21:55:652160,-3,-10,-8,-1,-2,7,-3,-13
18:21:55:653006,-3,-10,-8,-1,-2,7,-3,-13
18:21:55:659027,2,-2,-54,-2,-4,4,-2,-9
18:21:55:667171,-13,-14,16,-16,-2,-2,3,-3
18:21:55:667961,-13,-14,16,-16,-2,-2,3,-3
18:21:55:681475,0,12,24,13,7,-3,6,-1
18:21:55:689610,2,-52,-35,-9,-3,-4,1,10
18:21:55:690464,2,-52,-35,-9,-3,-4,1,10
18:21:55:696428,-18,-21,-23,-4,-5,-1,-5,18
18:21:55:712116,25,-4,-2,2,6,4,6,7
18:21:55:712956,25,-4,-2,2,6,4,6,7
18:21:55:719010,3,1,-12,-2,-4,1,-8,30
18:21:55:726472,1,30,32,9,1,-3,2,18
18:21:55:733995,1,30,32,9,1,-3,2,18
18:21:55:741456,26,9,-12,5,2,9,-4,3
18:21:55:749644,27,17,-9,-2,-3,1,0,-3
18:21:55:750454,27,17,-9,-2,-3,1,0,-3
18:21:55:756451,-19,66,-12,-3,2,-9,5,-8
18:21:55:772171,37,66,-70,1,0,6,0,-43
18:21:55:772985,37,66,-70,1,0,6,0,-43
18:21:55:778946,3,-14,12,2,1,-3,0,-29
18:21:55:786421,-21,-9,3,-3,-2,-4,-5,0
18:21:55:794001,-21,-9,3,-3,-2,-4,-5,0
18:21:55:801453,17,87,-47,6,3,-8,16,14
18:21:55:809693,-6,-32,31,9,0,4,2,-42
18:21:55:810557,-6,-32,31,9,0,4,2,-42
18:21:55:816446,-8,-69,13,-4,-4,1,-10,-2
18:21:55:832581,-17,14,28,4,0,2,5,16
18:21:55:839686,-17,14,28,4,0,2,5,16
18:21:55:840482,-7,-5,11,-1,2,5,-2,-9
18:21:55:846435,-28,-20,23,0,-7,-6,-3,11
18:21:55:854016,-28,-20,23,0,-7,-6,-3,11
18:21:55:870304,6,-7,19,-17,-8,0,-1,-9
18:21:55:871089,-16,15,-26,7,1,2,7,11
18:21:55:871943,-16,15,-26,7,1,2,7,11
18:21:55:876439,8,-10,-1,-50,-44,-6,-4,-2
18:21:55:892158,9,-30,8,42,53,9,6,-4
18:21:55:892966,9,-30,8,42,53,9,6,-4
18:21:55:898956,7,-16,4,-20,1,-13,-1,-2
18:21:55:914640,7,-16,4,-20,1,-13,-1,-2
18:21:55:915459,-11,-56,7,-18,-33,-3,-8,9
18:21:55:921405,-21,-35,25,11,5,-4,-32,-10
18:21:55:929674,-21,-35,25,11,5,-4,-32,-10
18:21:55:930476,-30,-22,-16,-4,-2,8,-2,22
18:21:55:936453,-15,-42,27,14,2,-2,3,-3
18:21:55:952144,-15,-42,27,14,2,-2,3,-3
18:21:55:952962,10,19,14,-1,-2,-5,-11,6
18:21:55:958929,-20,-25,17,13,1,3,3,-37
18:21:55:966585,-20,-25,17,13,1,3,3,-37
18:21:55:973957,7,-38,9,-7,-7,-1,-17,-29
18:21:55:981449,4,-5,-30,6,7,6,15,11
18:21:55:989660,4,-5,-30,6,7,6,15,11
18:21:55:990580,-4,54,-17,-9,0,-7,11,4
18:21:55:996420,0,2,17,7,6,6,1,9
18:21:56:12157,0,2,17,7,6,6,1,9
18:21:56:12965,44,1,-12,-2,-6,1,-11,1
18:21:56:18932,8,-21,41,18,6,3,-10,-19
18:21:56:26578,8,-21,41,18,6,3,-10,-19
18:21:56:33969,27,26,-5,-6,-4,5,-13,-5
18:21:56:41443,24,-9,-29,-5,-2,0,3,31
18:21:56:49724,24,-9,-29,-5,-2,0,3,31
18:21:56:50564,18,15,4,-6,-5,-3,26,26
18:21:56:56473,-72,-90,82,1,-3,-3,-34,-19
18:21:56:72189,-72,-90,82,1,-3,-3,-34,-19
18:21:56:73004,1,28,24,6,1,6,2,14
18:21:56:78927,-7,31,1,-2,-1,-6,6,-19
18:21:56:86600,-7,31,1,-2,-1,-6,6,-19
18:21:56:93969,12,22,-42,19,12,10,8,2
18:21:56:101470,12,30,-6,6,14,7,7,11
18:21:56:109643,12,30,-6,6,14,7,7,11
18:21:56:110433,-17,-40,16,-22,-23,-1,-7,-7
18:21:56:116504,6,37,-55,10,7,10,10,16
18:21:56:132219,6,37,-55,10,7,10,10,16
18:21:56:132997,-18,-49,17,-2,-2,-10,11,-22
18:21:56:138979,31,9,2,-15,-6,14,6,5
18:21:56:146525,31,9,2,-15,-6,14,6,5
18:21:56:153972,-31,-31,24,6,5,-1,8,1
18:21:56:161456,9,7,-15,-4,-5,0,17,1
18:21:56:169657,9,7,-15,-4,-5,0,17,1
18:21:56:170491,20,71,-34,-2,2,-10,14,17
18:21:56:176433,29,-38,-3,4,-1,-1,-7,5
18:21:56:192134,29,-38,-3,4,-1,-1,-7,5
18:21:56:192945,-3,-24,6,-7,-4,6,-7,-13
18:21:56:198996,-28,7,46,2,-2,0,6,-1
18:21:56:206497,-28,7,46,2,-2,0,6,-1
18:21:56:213941,-27,39,-109,-16,-4,-13,-12,-6
18:21:56:221414,-2,2,27,6,1,-1,-11,-11
18:21:56:229686,-2,2,27,6,1,-1,-11,-11
18:21:56:230471,-27,-60,9,-6,-6,10,-11,-25
18:21:56:236445,-4,9,-36,-2,-3,2,-11,-14
18:21:56:252178,-4,9,-36,-2,-3,2,-11,-14
18:21:56:252971,13,6,-4,-2,-3,-1,-27,1
18:21:56:258948,-14,-9,3,-8,-12,-1,24,3
18:21:56:274683,-14,-9,3,-8,-12,-1,24,3
18:21:56:275473,11,-6,41,14,15,4,1,-12
18:21:56:281429,9,-11,-3,-11,-10,-17,5,-9
18:21:56:289672,9,-11,-3,-11,-10,-17,5,-9
18:21:56:290462,11,55,-17,9,2,-5,1,12
18:21:56:296442,-14,-5,-24,-15,-4,-5,-1,-7
18:21:56:312155,-14,-5,-24,-15,-4,-5,-1,-7
18:21:56:312955,-5,-73,52,3,2,0,-13,5
18:21:56:327123,-22,-16,50,-4,-4,-5,-13,-4
18:21:56:327958,-22,-16,50,-4,-4,-5,-13,-4
18:21:56:333986,1,-3,-7,-1,0,6,8,7
18:21:56:341474,10,37,-2,5,3,-5,-12,-34
18:21:56:349644,10,37,-2,5,3,-5,-12,-34
18:21:56:350468,-2,-17,0,-2,-3,-2,8,19
18:21:56:356448,-33,12,-28,-15,-2,8,0,7
18:21:56:372187,-33,12,-28,-15,-2,8,0,7
18:21:56:372945,-14,11,-3,0,-2,-2,21,-35
18:21:56:378991,18,6,-15,-10,-2,5,3,28
18:21:56:394702,18,6,-15,-10,-2,5,3,28
18:21:56:395604,6,23,-16,1,1,-7,13,15
18:21:56:401494,24,-3,-15,7,4,0,4,14
18:21:56:409657,24,-3,-15,7,4,0,4,14
18:21:56:410446,-6,-20,11,-2,-1,-3,-11,8
18:21:56:416491,-7,-24,14,14,6,3,4,0
18:21:56:432610,-7,-24,14,14,6,3,4,0
18:21:56:433400,-19,-12,37,-12,-7,-4,-10,-3
18:21:56:439002,6,-16,-2,-7,-6,-9,1,19
18:21:56:454690,6,-16,-2,-7,-6,-9,1,19
18:21:56:455584,5,19,2,9,1,1,-3,1
18:21:56:470351,-10,-36,-7,3,2,2,-6,-4
18:21:56:471144,-10,-36,-7,3,2,2,-6,-4
18:21:56:471951,8,-4,-3,-3,-4,-1,-12,7
18:21:56:476449,-3,9,-32,-10,-3,0,-9,-10
18:21:56:492185,-3,9,-32,-10,-3,0,-9,-10
18:21:56:492951,2,4,-9,-9,-4,4,1,-5
18:21:56:498960,3,33,-25,14,3,-3,8,22
18:21:56:514661,3,33,-25,14,3,-3,8,22
18:21:56:515492,0,1,-13,-1,0,-5,-5,14
18:21:56:521434,-32,1,16,-2,-3,0,-6,-9
18:21:56:529676,-32,1,16,-2,-3,0,-6,-9
18:21:56:530458,12,7,-1,37,7,7,-1,-5
18:21:56:543940,11,-12,-21,-37,-9,3,-2,-5
18:21:56:552181,11,-12,-21,-37,-9,3,-2,-5
18:21:56:552948,-4,1,-11,-39,-18,-10,-7,-6
18:21:56:558931,6,3,12,20,4,4,-2,-7
18:21:56:575120,6,3,12,20,4,4,-2,-7
18:21:56:575935,-5,-9,63,-5,-1,2,-3,0
18:21:56:581419,-2,22,17,5,3,-5,3,25
18:21:56:589704,-2,22,17,5,3,-5,3,25
18:21:56:590504,8,16,-6,12,5,1,2,16
18:21:56:603972,-2,12,-4,1,-1,-3,-12,-11
18:21:56:612157,-2,12,-4,1,-1,-3,-12,-11
18:21:56:612969,3,-9,10,-5,-2,2,-3,-4
18:21:56:618921,0,3,-14,5,3,-2,0,-1
18:21:56:634663,0,3,-14,5,3,-2,0,-1
18:21:56:635445,6,5,-10,-1,-3,-1,-3,-8
18:21:56:641483,11,13,-6,6,4,2,8,-3
18:21:56:649677,11,13,-6,6,4,2,8,-3
18:21:56:650456,-1,3,-79,-2,0,0,0,-1
18:21:56:663985,6,-4,19,-7,-8,-5,-4,-9
18:21:56:672151,6,-4,19,-7,-8,-5,-4,-9
18:21:56:672945,-3,-8,5,-7,-2,-1,-4,-2
18:21:56:678981,6,11,30,5,-1,-1,-4,-1
18:21:56:694697,6,11,30,5,-1,-1,-4,-1
18:21:56:695448,6,1,18,5,2,-3,-1,1
18:21:56:701459,0,24,-22,-23,-4,-6,4,-4
18:21:56:709675,0,24,-22,-23,-4,-6,4,-4
18:21:56:710443,-2,-1,3,2,-1,7,0,0
18:21:56:723996,-2,-5,7,11,-2,1,-1,-3
18:21:56:732162,-2,-5,7,11,-2,1,-1,-3
18:21:56:732959,1,2,7,-4,-1,-2,-2,-4
18:21:56:739027,-6,-7,-14,3,1,-2,-3,-6
18:21:56:754730,-6,-7,-14,3,1,-2,-3,-6
18:21:56:755606,-5,-3,-1,-7,-2,-4,4,-1
18:21:56:761518,0,-6,-7,1,-1,2,-4,0
18:21:56:769664,0,-6,-7,1,-1,2,-4,0
18:21:56:770436,-2,-4,-2,-2,0,-6,6,1
18:21:56:783965,2,2,6,5,-1,-18,-2,1
18:21:56:792236,2,2,6,5,-1,-18,-2,1
18:21:56:793001,-4,-3,-4,-1,-3,4,-3,-5
18:21:56:798998,-1,-3,3,4,2,9,1,-1
18:21:56:814719,-1,-3,3,4,2,9,1,-1
18:21:56:815506,-4,-1,10,0,-1,10,2,-1
18:21:56:821466,-4,-14,-7,1,-1,3,-4,-5
18:21:56:829654,-4,-14,-7,1,-1,3,-4,-5
18:21:56:830454,1,7,11,2,1,0,-4,-2
18:21:56:843961,-2,-4,-6,-9,0,8,-3,-4
18:21:56:852196,-2,-4,-6,-9,0,8,-3,-4
18:21:56:853012,2,-3,-3,-5,-1,-3,-1,0
18:21:56:858953,-1,1,-5,-2,-2,1,1,0
18:21:56:874698,-1,1,-5,-2,-2,1,1,0
18:21:56:875512,0,-2,-7,0,0,-2,-1,-1
18:21:56:881471,-6,-28,0,0,-2,0,-1,-4
18:21:56:889700,-6,-28,0,0,-2,0,-1,-4
18:21:56:890579,-5,-8,-8,-4,-4,-3,-3,-2
18:21:56:903960,1,1,7,3,-1,2,-1,1
18:21:56:912176,1,1,7,3,-1,2,-1,1
18:21:56:913004,-2,-8,-23,-17,-7,-5,-3,-3
18:21:56:918969,1,9,6,0,-1,0,0,1
18:21:56:934696,1,9,6,0,-1,0,0,1
18:21:56:935462,2,5,-22,-4,-1,1,0,2
18:21:56:941451,9,17,14,19,5,3,0,1
18:21:56:949680,9,17,14,19,5,3,0,1
18:21:56:950476,-10,-14,-43,-40,-8,-3,1,-1
18:21:56:963913,9,-5,-11,7,-4,1,12,41
18:21:56:972180,9,-5,-11,7,-4,1,12,41
18:21:56:972974,13,1,-29,-10,-7,-1,2,-17
18:21:56:978947,-16,5,2,6,6,1,-21,-15
18:21:56:994662,-16,5,2,6,6,1,-21,-15
18:21:56:995464,15,6,24,21,5,6,14,5
18:21:57:1432,-3,-3,-5,-16,-9,-3,-4,-14
18:21:57:9691,-3,-3,-5,-16,-9,-3,-4,-14
18:21:57:10465,-11,14,17,14,3,8,22,6
18:21:57:23940,0,6,4,10,-1,-3,-22,-1
18:21:57:32155,0,6,4,10,-1,-3,-22,-1
18:21:57:32964,-4,1,31,7,3,-6,-22,15
18:21:57:38931,10,13,-11,-1,0,1,14,-7
18:21:57:54680,10,13,-11,-1,0,1,14,-7
18:21:57:55447,-8,-4,8,7,0,3,9,6
18:21:57:61425,12,-11,-7,-9,-8,-14,-55,-47
18:21:57:69666,12,-11,-7,-9,-8,-14,-55,-47
18:21:57:70467,-1,5,10,14,4,1,-21,7
18:21:57:83996,-10,10,1,-14,-2,1,8,1
18:21:57:92164,-10,10,1,-14,-2,1,8,1
18:21:57:92975,7,-9,-4,-12,-6,-4,-6,-6
18:21:57:98913,-18,-14,6,9,-2,3,45,31
18:21:57:114643,-18,-14,6,9,-2,3,45,31
18:21:57:115429,-22,-11,5,12,5,8,1,15
18:21:57:121417,-6,-10,0,-9,-1,-4,5,25
18:21:57:129692,-6,-10,0,-9,-1,-4,5,25
18:21:57:130476,3,8,7,6,-2,-7,-9,-11
18:21:57:143986,16,-3,-11,-2,0,11,55,3
18:21:57:152160,16,-3,-11,-2,0,11,55,3
18:21:57:152953,8,-9,0,-6,-4,-2,3,-9
18:21:57:158925,1,35,2,-4,1,-1,-1,-8
18:21:57:174687,1,35,2,-4,1,-1,-1,-8
18:21:57:175442,-1,-3,-3,7,-1,-4,-1,-1
18:21:57:181503,-8,-5,14,1,1,-1,-10,-4
18:21:57:189654,-8,-5,14,1,1,-1,-10,-4
18:21:57:190509,-10,6,11,-2,1,-4,-12,13
18:21:57:203946,2,-5,0,-2,-1,0,-4,-10
18:21:57:212154,2,-5,0,-2,-1,0,-4,-10
18:21:57:212944,8,11,16,24,5,3,9,14
18:21:57:218991,-8,-13,-8,-15,-3,4,22,8
18:21:57:234679,-8,-13,-8,-15,-3,4,22,8
18:21:57:235586,-12,-4,-16,2,-3,-2,-2,-23
18:21:57:241443,0,2,-2,-5,-3,-4,-14,-7
18:21:57:249666,0,2,-2,-5,-3,-4,-14,-7
18:21:57:250458,9,-15,-13,-8,-3,-1,5,-4
18:21:57:263952,-2,-3,-7,2,-1,-2,-7,19
18:21:57:272134,-2,-3,-7,2,-1,-2,-7,19
18:21:57:272948,2,0,5,-9,-3,-6,-13,-7
18:21:57:278985,-13,-7,1,-8,-4,-5,-7,14
18:21:57:295165,-13,-7,1,-8,-4,-5,-7,14
18:21:57:295955,-1,-2,-16,-9,-2,-1,-14,16
18:21:57:301466,1,4,1,5,0,0,24,-28
18:21:57:309678,1,4,1,5,0,0,24,-28
18:21:57:310562,1,1,5,-3,1,1,-6,-44
18:21:57:324001,-15,-13,-13,-15,-2,0,9,4
18:21:57:332188,-15,-13,-13,-15,-2,0,9,4
18:21:57:333004,6,-2,-8,-4,-3,1,17,20
18:21:57:338946,11,6,1,5,2,-2,-21,7
18:21:57:354694,11,6,1,5,2,-2,-21,7
18:21:57:355494,-10,-5,4,-2,-2,-6,-20,14
18:21:57:361464,-6,-3,3,4,0,-1,-11,8
18:21:57:369698,-6,-3,3,4,0,-1,-11,8
18:21:57:370563,6,6,0,0,-2,-2,8,-2
18:21:57:383959,8,-2,-2,2,1,-1,-8,6
18:21:57:392202,8,-2,-2,2,1,-1,-8,6
18:21:57:392970,-19,12,7,-2,-2,7,29,-48
18:21:57:398960,3,-2,1,4,-1,-7,-25,-44
18:21:57:414727,3,-2,1,4,-1,-7,-25,-44
18:21:57:415472,2,-6,4,-6,-4,-19,-84,-16
18:21:57:421433,-10,3,2,6,0,3,17,4
18:21:57:429685,-10,3,2,6,0,3,17,4
18:21:57:430476,-5,-2,0,-1,0,8,42,19
18:21:57:443956,2,-5,-3,-2,0,-5,-26,-12
18:21:57:452168,2,-5,-3,-2,0,-5,-26,-12
18:21:57:452963,4,-26,-5,-4,-4,-5,-17,-8
18:21:57:458944,2,0,-3,0,-3,3,5,-6
18:21:57:474654,2,0,-3,0,-3,3,5,-6
18:21:57:475452,8,1,-6,0,-1,-1,7,6
18:21:57:481429,16,1,1,2,1,6,51,24
18:21:57:489015,16,1,1,2,1,6,51,24
18:21:57:496459,-32,2,-3,-3,1,-1,45,-16
18:21:57:503951,-7,1,1,-1,-1,1,5,9
18:21:57:512186,-7,1,1,-1,-1,1,5,9
18:21:57:512969,0,3,1,1,1,7,35,11
18:21:57:526432,0,-7,-2,0,-1,-3,2,0
18:21:57:534683,0,-7,-2,0,-1,-3,2,0
18:21:57:535474,16,-4,-6,-3,-1,0,-14,11
18:21:57:541469,3,4,0,-1,-2,-3,-27,27
18:21:57:549027,3,4,0,-1,-2,-3,-27,27
18:21:57:556454,11,33,6,0,3,13,86,13
18:21:57:563988,-6,-1,-2,-2,-1,0,16,-26
18:21:57:572141,-6,-1,-2,-2,-1,0,16,-26
18:21:57:572970,-7,-9,-1,-2,1,-1,-14,-35
18:21:57:586481,-10,0,-3,-4,-4,-2,-4,-6
18:21:57:594690,-10,0,-3,-4,-4,-2,-4,-6
18:21:57:595470,19,1,1,1,-2,-10,-79,7
18:21:57:601453,17,13,1,-1,-1,-2,-19,6
18:21:57:608985,17,13,1,-1,-1,-2,-19,6
18:21:57:616514,-4,-5,-2,-2,-3,1,-18,5
18:21:57:624008,-7,-12,-9,-1,0,-2,-2,-20
18:21:57:632163,-7,-12,-9,-1,0,-2,-2,-20
18:21:57:632942,-7,-1,-2,1,-1,-4,-4,12
18:21:57:646445,0,-1,2,1,0,3,17,4
18:21:57:654635,0,-1,2,1,0,3,17,4
18:21:57:655467,-5,-10,3,1,-2,0,4,7
18:21:57:661511,-10,-5,-1,-1,-1,-6,-31,-37
18:21:57:668982,-10,-5,-1,-1,-1,-6,-31,-37
18:21:57:676433,15,-2,-1,-1,0,-3,-14,19
18:21:57:683930,5,2,1,-1,1,4,11,14
18:21:57:692159,5,2,1,-1,1,4,11,14
18:21:57:692958,-3,0,-3,-2,1,4,32,6
18:21:57:706490,5,-3,-2,-1,-4,-4,-26,32
18:21:57:714652,5,-3,-2,-1,-4,-4,-26,32
18:21:57:715448,2,-1,6,2,-4,-2,8,30
18:21:57:721424,12,-5,0,-1,-4,0,12,9
18:21:57:729001,12,-5,0,-1,-4,0,12,9
18:21:57:744650,0,2,0,1,-4,-1,8,-1
18:21:57:745439,0,1,-4,-4,-2,0,26,2
18:21:57:752186,0,1,-4,-4,-2,0,26,2
18:21:57:752953,-1,-5,1,0,1,-3,-35,-5
18:21:57:767146,-5,-3,-1,-1,0,-1,1,-37
18:21:57:767968,-5,-3,-1,-1,0,-1,1,-37
18:21:57:773991,-5,-1,-5,-2,-3,0,7,-16
18:21:57:781502,-5,2,1,1,1,-3,-26,-3
18:21:57:789004,-5,2,1,1,1,-3,-26,-3
18:21:57:796450,12,-6,-1,-2,-1,2,27,-20
18:21:57:803936,12,-7,-4,-3,-4,-3,-3,-2
18:21:57:812189,12,-7,-4,-3,-4,-3,-3,-2
18:21:57:812988,-23,-2,-3,-2,-2,-10,-39,-33
18:21:57:827151,-15,-3,-2,-1,-2,-3,-12,-28
18:21:57:827965,-15,-3,-2,-1,-2,-3,-12,-28
18:21:57:833946,0,-14,-2,-2,0,0,-7,7
18:21:57:841476,-16,-14,3,-2,-1,-5,-20,2
18:21:57:849009,-16,-14,3,-2,-1,-5,-20,2
18:21:57:856431,4,3,-1,-1,1,11,47,25
18:21:57:863938,-1,-4,1,1,0,-3,-7,20
18:21:57:872199,-1,-4,1,1,0,-3,-7,20
18:21:57:872983,2,-8,-4,-4,-3,-5,-27,-11
18:21:57:887210,-6,-4,-3,-4,0,1,0,-46
18:21:57:887996,-6,-4,-3,-4,0,1,0,-46
18:21:57:893954,2,5,-2,0,0,1,9,18
18:21:57:901449,1,6,-3,-2,-3,-5,-19,-16
18:21:57:909025,1,6,-3,-2,-3,-5,-19,-16
18:21:57:916485,-11,-14,1,0,-1,-10,-45,-14
18:21:57:923965,10,6,0,0,1,3,20,45
18:21:57:932194,10,6,0,0,1,3,20,45
18:21:57:932996,18,22,-4,0,-2,1,17,8
18:21:57:955311,-3,3,2,0,-1,-1,1,8
18:21:57:956172,-3,3,2,0,-1,-1,1,8
18:21:57:956907,2,-4,-4,-4,0,-1,17,-32
18:21:57:961430,7,6,3,1,-1,1,-12,7
18:21:57:969050,7,6,3,1,-1,1,-12,7
18:21:57:976439,2,1,-3,-2,-1,0,4,1
18:21:57:983973,0,-1,-3,-3,-1,-5,-26,4
18:21:57:992193,0,-1,-3,-3,-1,-5,-26,4
18:21:57:992975,7,6,5,2,0,-2,-13,19
18:21:58:7160,11,10,-4,-2,-1,2,10,31
18:21:58:7975,11,10,-4,-2,-1,2,10,31
18:21:58:22132,-6,-4,2,1,-1,-3,-31,-21
18:21:58:22911,-11,2,5,3,-1,-2,-11,-2
18:21:58:37152,-11,2,5,3,-1,-2,-11,-2
18:21:58:37962,-14,-2,-7,0,-1,-4,-28,-17
18:21:58:43994,6,-2,2,-1,0,0,10,6
18:21:58:52165,6,-2,2,-1,0,0,10,6
18:21:58:52932,-10,-1,1,-3,0,1,10,10
18:21:58:67151,-10,-7,-3,-4,-5,-13,-76,-35
18:21:58:67983,-10,-7,-3,-4,-5,-13,-76,-35
18:21:58:73987,-1,-3,-7,0,-1,-1,13,0
18:21:58:81546,26,5,-4,-1,2,6,46,0
18:21:58:88985,26,5,-4,-1,2,6,46,0
18:21:58:96441,-8,3,5,1,1,2,6,0
18:21:58:103942,-22,-9,7,2,0,10,45,6
18:21:58:112178,-22,-9,7,2,0,10,45,6
18:21:58:113008,3,15,1,-2,1,4,44,29
18:21:58:127172,5,0,-3,-1,-3,0,1,-6
18:21:58:127979,5,0,-3,-1,-3,0,1,-6
18:21:58:133914,1,-4,2,-2,-2,-1,0,5
18:21:58:141446,-6,-15,1,-3,-1,2,14,13
18:21:58:149029,-6,-15,1,-3,-1,2,14,13
18:21:58:164598,0,-6,-2,-2,-3,-7,-43,-23
18:21:58:165388,-6,-3,0,3,2,3,16,15
18:21:58:172172,-6,-3,0,3,2,3,16,15
18:21:58:172954,-1,-2,2,-2,-2,-3,-32,-35
18:21:58:187190,-16,-4,7,-3,-1,-2,7,-28
18:21:58:187968,-16,-4,7,-3,-1,-2,7,-28
18:21:58:193970,-2,-3,-1,-3,-2,0,30,-40
18:21:58:201484,7,-8,-7,-3,-8,-22,-102,-37
18:21:58:209053,7,-8,-7,-3,-8,-22,-102,-37
18:21:58:216426,3,1,0,0,-1,-7,-32,28
18:21:58:232810,-6,2,-2,0,1,4,37,12
18:21:58:233623,-6,2,-2,0,1,4,37,12
18:21:58:234423,-7,-4,-2,-2,-1,2,1,24
18:21:58:247143,7,3,-4,-1,1,-1,-12,15
18:21:58:247958,7,3,-4,-1,1,-1,-12,15
18:21:58:254023,5,-3,-5,-2,0,2,31,17
18:21:58:261490,1,-3,-3,-2,-2,7,45,11
18:21:58:269003,1,-3,-3,-2,-2,7,45,11
18:21:58:276459,-4,0,-2,-1,1,4,26,18
18:21:58:283940,1,1,0,1,-1,2,-7,-14
18:21:58:299694,1,1,0,1,-1,2,-7,-14
18:21:58:300451,16,-4,-2,1,-2,-5,-45,-48
18:21:58:307123,0,13,-2,-1,0,1,10,12
18:21:58:307933,0,13,-2,-1,0,1,10,12
18:21:58:313928,-9,-2,0,-3,-1,1,12,-2
18:21:58:321474,2,1,1,0,0,-2,8,12
18:21:58:337148,2,1,1,0,0,-2,8,12
18:21:58:337962,-19,-2,-1,-2,-5,-9,-14,-16
18:21:58:343997,-6,-7,-1,2,-1,1,11,11
18:21:58:352183,-6,-7,-1,2,-1,1,11,11
18:21:58:352954,-1,-2,0,1,-3,-10,-28,-23
18:21:58:367143,2,-6,-2,-4,-3,-2,-8,-51
18:21:58:367959,2,-6,-2,-4,-3,-2,-8,-51
18:21:58:373967,5,-9,-3,0,-1,-1,-41,-2
18:21:58:381448,-5,1,-3,-1,-2,-5,-12,-21
18:21:58:389004,-5,1,-3,-1,-2,-5,-12,-21
18:21:58:404650,1,-5,0,-3,0,1,17,20
18:21:58:405458,-3,2,-4,0,-3,-6,-12,3
18:21:58:412176,-3,2,-4,0,-3,-6,-12,3
18:21:58:412967,3,3,0,-2,1,1,18,19
18:21:58:427162,0,-2,0,-3,-2,3,35,8
18:21:58:427966,0,-2,0,-3,-2,3,35,8
18:21:58:434000,2,3,-1,-1,-1,-1,-1,21
18:21:58:449633,0,-2,1,0,0,-1,-1,7
18:21:58:450430,0,-2,1,0,0,-1,-1,7
18:21:58:456518,-4,0,1,2,1,2,11,0
18:21:58:463975,3,4,-2,-2,-3,-3,-21,24
18:21:58:471502,3,4,-2,-2,-3,-3,-21,24
18:21:58:478906,16,4,-2,-2,-1,6,51,-5
18:21:58:487149,-12,-1,1,0,2,0,-8,23
18:21:58:487962,-12,-1,1,0,2,0,-8,23
18:21:58:493950,-8,1,0,1,0,3,17,12
18:21:58:510114,6,2,0,1,-2,-2,-12,-16
18:21:58:510925,6,2,0,1,-2,-2,-12,-16
18:21:58:516423,8,-2,-1,-1,-1,-2,-23,0
18:21:58:523987,3,0,-1,-3,-4,-9,-68,-16
18:21:58:531503,3,0,-1,-3,-4,-9,-68,-16
18:21:58:538996,-9,-3,-3,-3,-2,-3,-13,-53
18:21:58:547144,2,-3,2,1,2,3,30,-2
18:21:58:547980,2,-3,2,1,2,3,30,-2
18:21:58:553928,-9,-1,0,-1,-1,-1,18,0
18:21:58:577810,-14,-4,-1,-1,0,-2,-6,-13
18:21:58:578604,-14,-4,-1,-1,0,-2,-6,-13
18:21:58:579405,-7,-1,2,2,-1,1,11,1
18:21:58:584007,-16,-5,-2,-2,1,5,31,12
18:21:58:591505,-16,-5,-2,-2,1,5,31,12
18:21:58:599013,0,-2,-3,-1,-1,-1,-1,-1
18:21:58:607139,3,-3,-3,0,0,1,9,27
18:21:58:607966,3,-3,-3,0,0,1,9,27
18:21:58:613940,0,-2,0,0,0,-4,-20,8
18:21:58:629658,19,4,-6,-3,-3,-5,20,-22
18:21:58:630455,19,4,-6,-3,-3,-5,20,-22
18:21:58:636443,2,2,1,1,0,2,12,16
18:21:58:643987,2,1,1,-1,0,5,20,11
18:21:58:651483,2,1,1,-1,0,5,20,11
18:21:58:658953,2,-5,-3,-3,-3,-7,0,11
18:21:58:667172,4,-8,-4,-1,0,-1,-3,-8
18:21:58:667973,4,-8,-4,-1,0,-1,-3,-8
18:21:58:673943,0,3,0,-2,0,6,36,-2
18:21:58:689664,0,3,1,-1,-2,-2,-15,1
18:21:58:690460,0,3,1,-1,-2,-2,-15,1
18:21:58:696444,-2,-5,-2,2,1,2,2,13
18:21:58:703966,-4,0,1,0,-2,0,-34,-17
18:21:58:711506,-4,0,1,0,-2,0,-34,-17
18:21:58:718970,4,5,3,-2,-5,-6,-45,1
18:21:58:727173,0,0,2,-2,-2,2,18,-36
18:21:58:727991,0,0,2,-2,-2,2,18,-36
18:21:58:733976,11,-6,-4,-2,-3,2,-6,1
18:21:58:749662,34,-4,-4,-3,-1,-7,2,-15
18:21:58:750467,34,-4,-4,-3,-1,-7,2,-15
18:21:58:756471,-1,1,-3,-2,-2,-6,-29,21
18:21:58:763988,-18,2,2,1,1,3,29,32
18:21:58:771507,-18,2,2,1,1,3,29,32
18:21:58:778961,-3,-1,1,0,0,-5,-15,-16
18:21:58:787129,-10,2,0,0,0,-1,-9,9
18:21:58:787962,-10,2,0,0,0,-1,-9,9
18:21:58:793974,-4,1,-1,-1,0,3,14,5
18:21:58:809697,-4,-5,-2,-1,-2,-13,-81,-14
18:21:58:810497,-4,-5,-2,-1,-2,-13,-81,-14
18:21:58:816483,-1,-2,-1,-1,0,7,44,-1
18:21:58:823966,-24,-2,0,-1,0,-2,-17,24
18:21:58:831466,-24,-2,0,-1,0,-2,-17,24
18:21:58:838977,-11,0,-1,-1,-2,4,12,-5
18:21:58:847159,0,1,0,0,-1,2,26,-2
18:21:58:847974,0,1,0,0,-1,2,26,-2
18:21:58:853928,1,5,0,1,0,10,34,34
18:21:58:869646,-7,0,-1,-1,-4,-7,-41,-40
18:21:58:870441,-7,0,-1,-1,-4,-7,-41,-40
18:21:58:876486,-4,0,3,1,2,-3,-2,-10
18:21:58:883954,3,-3,-1,-2,-2,1,11,-5
18:21:58:891477,3,-3,-1,-2,-2,1,11,-5
18:21:58:899008,-3,-2,-3,-2,-3,-1,1,-6
18:21:58:907138,26,-2,-1,-1,0,1,20,9
18:21:58:907977,26,-2,-1,-1,0,1,20,9
18:21:58:913936,4,-5,-3,-2,-2,-12,-52,-26
18:21:58:929641,-8,-1,-3,-2,1,0,13,8
18:21:58:930454,-8,-1,-3,-2,1,0,13,8
18:21:58:936432,7,-3,1,0,0,2,9,10
18:21:58:943910,0,-1,1,1,2,2,16,28
18:21:58:951493,0,-1,1,1,2,2,16,28
18:21:58:958955,-9,-1,-2,-1,0,2,17,-25
18:21:58:967142,3,-4,-2,-1,-3,-3,-9,-8
18:21:58:967973,3,-4,-2,-1,-3,-3,-9,-8
18:21:58:974009,0,0,2,-1,-3,-3,-11,0
18:21:58:989656,-5,0,-2,2,-1,4,8,-5
18:21:58:990467,-5,0,-2,2,-1,4,8,-5
18:21:58:996463,1,-2,-1,0,-3,0,1,-3
18:21:59:3957,-18,-4,-9,-2,-5,-15,-89,-36
18:21:59:11523,-18,-4,-9,-2,-5,-15,-89,-36
18:21:59:18969,3,2,-3,-2,1,-3,3,4
18:21:59:27196,3,1,1,-3,0,4,47,-13
18:21:59:28002,3,1,1,-3,0,4,47,-13
18:21:59:33983,-20,-7,1,-3,-4,-1,2,-75
18:21:59:49667,-2,1,0,-2,1,3,25,9
18:21:59:50479,-2,1,0,-2,1,3,25,9
18:21:59:64601,-1,19,7,6,1,0,-3,6
18:21:59:65415,0,-1,-4,-10,-2,4,27,15
18:21:59:71493,0,-1,-4,-10,-2,4,27,15
18:21:59:78955,-8,-9,-2,1,-2,0,2,33
18:21:59:87185,24,-3,-2,-2,0,5,44,37
18:21:59:88010,24,-3,-2,-2,0,5,44,37
18:21:59:93933,39,9,1,-2,-1,-11,-59,-5
18:21:59:109645,-26,-8,-1,-3,-3,-3,-5,-69
18:21:59:110482,-26,-8,-1,-3,-3,-3,-5,-69
18:21:59:116507,8,-3,1,1,-1,-4,-6,34
18:21:59:123985,-15,-3,-3,1,-2,0,-7,-37
18:21:59:131511,-15,-3,-3,1,-2,0,-7,-37
18:21:59:147800,-16,-4,-4,-3,0,-5,-18,15
18:21:59:148640,22,-4,8,1,-1,14,67,19
18:21:59:149439,22,-4,8,1,-1,14,67,19
18:21:59:153933,-7,-2,-1,-3,-1,-7,-46,-23
18:21:59:169644,-4,-1,-2,2,0,-6,-11,13
18:21:59:170462,-4,-1,-2,2,0,-6,-11,13
18:21:59:176433,11,-3,-3,-5,1,38,126,-58
18:21:59:183938,-24,0,1,-3,-3,-14,-6,8
18:21:59:191490,-24,0,1,-3,-3,-14,-6,8
18:21:59:198955,8,7,-1,3,3,21,68,66
18:21:59:207165,4,-8,-4,-3,-3,-10,-6,-45
18:21:59:208004,4,-8,-4,-3,-3,-10,-6,-45
18:21:59:213951,4,2,7,2,-1,-8,-13,3
18:21:59:229660,-11,8,12,2,-2,-1,-24,15
18:21:59:230480,-11,8,12,2,-2,-1,-24,15
18:21:59:236468,-15,-12,-26,-4,-2,-3,-14,6
18:21:59:243956,8,5,7,3,2,-9,-56,28
18:21:59:251514,8,5,7,3,2,-9,-56,28
18:21:59:258952,-18,-10,22,-6,-8,-24,-12,-75
18:21:59:275333,13,3,-1,2,-1,3,34,11
18:21:59:276151,13,3,-1,2,-1,3,34,11
18:21:59:276935,-18,-9,-7,-4,-5,-29,-97,-46
18:21:59:290141,-7,-1,-7,1,1,1,10,7
18:21:59:290934,-7,-1,-7,1,1,1,10,7
18:21:59:296460,8,14,-2,-12,2,7,14,27
18:21:59:303956,26,-21,-33,-26,-5,-1,-20,-42
18:21:59:311512,26,-21,-33,-26,-5,-1,-20,-42
18:21:59:318965,-1,0,5,10,-1,-15,3,2
18:21:59:326454,2,6,5,2,5,11,40,19
18:21:59:335354,2,6,5,2,5,11,40,19
18:21:59:336145,-7,-4,-13,-21,0,5,20,14
18:21:59:349657,-2,5,9,15,0,-4,-21,5
18:21:59:350468,-2,5,9,15,0,-4,-21,5
18:21:59:356446,8,5,1,-2,-4,3,-9,32
18:21:59:363963,-11,-12,-20,-25,-7,-4,-9,4
18:21:59:379666,-11,-12,-20,-25,-7,-4,-9,4
18:21:59:380480,0,-14,-7,5,1,2,11,10
18:21:59:386455,-25,3,4,4,-2,3,73,11
18:21:59:394032,-25,3,4,4,-2,3,73,11
18:21:59:410370,4,-3,2,3,-4,-10,-53,-28
18:21:59:411119,2,6,3,6,2,8,25,28
18:21:59:411960,2,6,3,6,2,8,25,28
18:21:59:416430,-4,-2,-19,-5,-2,-1,2,7
18:21:59:432144,2,0,4,-1,-3,-7,-37,-11
18:21:59:432956,2,0,4,-1,-3,-7,-37,-11
18:21:59:447116,1,-1,2,6,-2,1,6,13
18:21:59:447945,6,0,4,1,-2,-16,-79,3
18:21:59:453986,6,0,4,1,-2,-16,-79,3
18:21:59:461405,4,0,3,3,3,5,25,29
18:21:59:469646,-3,1,4,4,4,21,31,-15
18:21:59:470473,-3,1,4,4,4,21,31,-15
18:21:59:483976,3,-2,3,-1,0,3,27,10
18:21:59:492116,3,1,0,2,-1,-2,-9,2
18:21:59:492978,3,1,0,2,-1,-2,-9,2
18:21:59:498920,-5,1,1,0,0,3,15,-11
18:21:59:506412,2,5,5,3,-1,-4,4,2
18:21:59:514008,2,5,5,3,-1,-4,4,2
18:21:59:521486,-1,1,1,-1,-4,0,19,-42
18:21:59:529643,-1,-2,7,3,2,3,16,7
18:21:59:530501,-1,-2,7,3,2,3,16,7
18:21:59:536454,14,8,3,-2,0,-1,-11,-1
18:21:59:552161,0,1,-1,-4,-2,-3,-4,13
18:21:59:552965,0,1,-1,-4,-2,-3,-4,13
18:21:59:558938,-2,-3,-8,-6,-3,-11,-39,67
18:21:59:566402,0,-3,-8,-2,0,1,14,-17
18:21:59:574030,0,-3,-8,-2,0,1,14,-17
18:21:59:581459,1,-3,8,7,1,3,8,-22
18:21:59:589684,3,6,3,3,1,2,-7,39
18:21:59:590491,3,6,3,3,1,2,-7,39
18:21:59:603980,3,-3,9,6,0,-6,-4,59
18:21:59:620302,-25,-10,-9,-7,-5,-9,11,-37
18:21:59:621124,-25,-10,-9,-7,-5,-9,11,-37
18:21:59:621898,-6,1,-5,-5,-1,9,29,-19
18:21:59:626433,13,-3,-3,-4,-3,-1,3,-16
18:21:59:634009,13,-3,-3,-4,-3,-1,3,-16
18:21:59:641451,-5,-4,-6,-3,-2,0,3,-18
18:21:59:650300,-3,-3,3,0,-2,-11,-94,-6
18:21:59:651112,-3,-3,3,0,-2,-11,-94,-6
18:21:59:656471,-12,-6,-4,-1,-2,-7,-11,4
18:21:59:672168,2,1,1,-2,0,-9,-45,-26
18:21:59:673014,2,1,1,-2,0,-9,-45,-26
18:21:59:678949,-2,3,1,1,2,10,38,-11
18:21:59:686454,15,2,-2,-1,-2,-9,-43,-10
18:21:59:694017,15,2,-2,-1,-2,-9,-43,-10
18:21:59:701453,6,0,0,1,-3,-3,-9,-28
18:21:59:709699,-5,-1,-2,1,-1,4,30,8
18:21:59:710509,-5,-1,-2,1,-1,4,30,8
18:21:59:716455,-2,5,0,2,2,-1,-17,11
18:21:59:732187,-15,-5,-6,-3,-4,1,48,-16
18:21:59:732986,-15,-5,-6,-3,-4,1,48,-16
18:21:59:738987,-17,2,-1,-1,-1,-3,-20,-42
18:21:59:746505,-1,0,1,2,0,8,31,21
18:21:59:754026,-1,0,1,2,0,8,31,21
18:21:59:761478,-3,-3,-1,-3,-3,-6,-5,-28
18:21:59:769623,-2,-3,-1,-1,0,1,19,24
18:21:59:770461,-2,-3,-1,-1,0,1,19,24
18:21:59:776492,1,-1,-2,-3,-2,0,22,10
18:21:59:792173,2,-1,0,-1,-2,0,-16,-9
18:21:59:792986,2,-1,0,-1,-2,0,-16,-9
18:21:59:798986,-3,0,-2,1,0,3,-6,17
18:21:59:806456,4,0,-2,-2,-1,0,21,0
18:21:59:813980,4,0,-2,-2,-1,0,21,0
18:21:59:821485,-21,-4,-3,-3,-2,-4,-18,16
18:21:59:829697,-21,-4,-3,-3,-2,-4,-18,16
18:21:59:830433,7,0,1,-1,1,1,-13,-15
18:21:59:836458,4,-1,0,1,-1,1,5,10
18:21:59:852186,4,-1,0,1,-1,1,5,10
18:21:59:852950,-17,-2,0,-2,-2,3,24,-45
18:21:59:858967,9,-3,-2,0,0,-1,-1,2
18:21:59:874637,9,-3,-2,0,0,-1,-1,2
18:21:59:875425,15,1,-2,0,0,1,2,32
18:21:59:881473,14,-4,-2,-4,-2,1,3,6
18:21:59:889648,14,-4,-2,-4,-2,1,3,6
18:21:59:890454,-5,-1,2,1,-2,-11,-52,-53
18:21:59:896484,4,2,-2,-2,0,-5,12,11
18:21:59:912125,4,2,-2,-2,0,-5,12,11
18:21:59:912940,-1,2,-2,0,1,1,39,28
18:21:59:918981,-2,-5,-1,0,-4,-2,-16,-15
18:21:59:934685,-2,-5,-1,0,-4,-2,-16,-15
18:21:59:935459,-5,-2,-1,1,-1,0,-8,12
18:21:59:941429,5,2,-2,-1,1,3,9,26
18:21:59:949624,5,2,-2,-1,1,3,9,26
18:21:59:950421,40,1,-4,-2,-1,2,34,57
18:21:59:956488,18,-3,-2,-1,-1,-10,-40,-17
18:21:59:972196,18,-3,-2,-1,-1,-10,-40,-17
18:21:59:972992,-2,0,2,-1,-2,5,14,1
18:21:59:978946,-3,-1,0,-2,-2,1,10,6
18:21:59:994773,-3,-1,0,-2,-2,1,10,6
18:21:59:995498,-11,-3,-1,-2,0,-2,-11,-1
18:22:00:1461,-10,-1,0,-1,0,-2,-17,-16
18:22:00:9677,-10,-1,0,-1,0,-2,-17,-16
18:22:00:10475,-9,0,0,0,-2,-2,-8,1
18:22:00:16447,7,0,-2,-4,-3,0,-3,-31
18:22:00:40330,7,0,-2,-4,-3,0,-3,-31
18:22:00:41132,-10,-3,-1,0,0,0,-3,1
18:22:00:41942,-20,-4,-1,-1,0,10,14,-30
18:22:00:54676,-20,-4,-1,-1,0,10,14,-30
18:22:00:55446,-7,5,3,-1,0,4,-23,-8
18:22:00:70289,-9,-2,-7,1,0,-1,1,17
18:22:00:71136,-9,-2,-7,1,0,-1,1,17
18:22:00:71927,0,-1,-1,-3,-2,2,17,10
18:22:00:76431,7,1,3,0,-1,-2,-3,11
18:22:00:92137,7,1,3,0,-1,-2,-3,11
18:22:00:92966,-1,-2,-4,-1,-1,-2,14,2
18:22:00:98966,-3,-4,-1,0,-3,-5,-8,5
18:22:00:114669,-3,-4,-1,0,-3,-5,-8,5
18:22:00:115498,-9,-3,-1,-1,2,-5,-14,18
18:22:00:121464,12,-2,-1,-2,-2,0,3,10
18:22:00:129662,12,-2,-1,-2,-2,0,3,10
18:22:00:130442,-2,-4,-3,-2,-4,-3,-8,-35
18:22:00:143971,-31,-3,5,-1,-5,-7,-35,-60
18:22:00:152150,-31,-3,5,-1,-5,-7,-35,-60
18:22:00:152980,-21,-6,-5,-7,0,-3,-19,18
18:22:00:158987,-4,1,-1,-3,-2,3,23,-2
18:22:00:174743,-4,1,-1,-3,-2,3,23,-2
18:22:00:175494,11,0,0,2,-1,-5,-19,-7
18:22:00:181520,8,-1,-2,0,3,-2,1,36
18:22:00:189652,8,-1,-2,0,3,-2,1,36
18:22:00:190430,-28,-10,-2,-2,-3,-2,15,-7
18:22:00:196500,3,-1,-1,0,0,-1,-5,15
18:22:00:212198,3,-1,-1,0,0,-1,-5,15
18:22:00:213007,10,-1,-1,-2,-2,0,-3,-26
18:22:00:218965,-18,-2,-1,-1,-3,0,8,3
18:22:00:235091,-18,-2,-1,-1,-3,0,8,3
18:22:00:251007,19,2,1,1,0,1,1,16
18:22:00:251758,16,3,-2,-1,2,-1,6,9
18:22:00:252585,16,3,-2,-1,2,-1,6,9
18:22:00:253404,-7,0,-1,1,-3,1,8,7
18:22:00:256450,9,-5,-1,-2,-5,-5,-6,-63
18:22:00:280314,9,-5,-1,-2,-5,-5,-6,-63
18:22:00:281111,4,4,3,-1,0,-1,1,-1
18:22:00:281944,5,0,-1,-2,1,3,-1,18
18:22:00:294708,5,0,-1,-2,1,3,-1,18
18:22:00:295523,9,1,-2,0,0,1,15,5
18:22:00:301473,-16,-3,-3,-1,0,-3,-7,13
18:22:00:309680,-16,-3,-3,-1,0,-3,-7,13
18:22:00:310449,1,-2,-1,0,-2,-2,-5,26
18:22:00:316491,-4,0,2,-2,0,-2,2,3
18:22:00:332128,-4,0,2,-2,0,-2,2,3
18:22:00:332938,-7,-7,-5,-6,-2,-3,-3,-46
18:22:00:346454,8,1,0,1,0,1,6,8
18:22:00:354682,8,1,0,1,0,1,6,8
18:22:00:355440,3,6,3,1,-2,-2,-18,-19
18:22:00:361455,6,0,-2,-1,-1,0,15,-3
18:22:00:369628,6,0,-2,-1,-1,0,15,-3
18:22:00:370427,-14,1,1,0,-2,6,19,-3
18:22:00:383966,12,1,-1,0,-1,-2,-10,20
18:22:00:392198,12,1,-1,0,-1,-2,-10,20
18:22:00:392983,2,-2,3,-1,1,-1,-2,5
18:22:00:398950,-2,-1,2,-1,0,1,1,6
18:22:00:414689,-2,-1,2,-1,0,1,1,6
18:22:00:415494,10,2,-3,-1,-2,0,-1,3
18:22:00:421464,-3,-4,-3,0,-2,-2,-6,2
18:22:00:429671,-3,-4,-3,0,-2,-2,-6,2
18:22:00:430421,10,-1,1,0,0,-1,3,-3
18:22:00:452803,-14,3,-1,2,3,2,12,21
18:22:00:453633,-14,3,-1,2,3,2,12,21
18:22:00:454448,-7,-1,-2,0,0,-1,-1,-23
18:22:00:458931,-4,1,-1,-2,-3,-3,-16,-8
18:22:00:466498,-4,1,-1,-2,-3,-3,-16,-8
18:22:00:473945,1,1,-2,4,1,1,0,13
18:22:00:481462,52,3,1,0,-4,6,28,-1
18:22:00:489693,52,3,1,0,-4,6,28,-1
18:22:00:490510,2,-2,-3,-3,-1,-7,-45,13
18:22:00:503941,1,-2,0,-1,2,-2,-5,7
18:22:00:528308,1,-2,0,-1,2,-2,-5,7
18:22:00:529062,-1,-2,4,-1,-2,0,14,5
18:22:00:529861,-15,-3,-2,-3,-1,-1,-2,-11
18:22:00:534626,-15,-3,-2,-3,-1,-1,-2,-11
18:22:00:535447,-23,1,-1,-2,-3,-3,3,-12
18:22:00:541514,-14,-1,3,-1,-5,-1,-4,-32
18:22:00:549682,-14,-1,3,-1,-5,-1,-4,-32
18:22:00:550442,6,0,-4,-1,1,2,21,8
18:22:00:563971,-6,-3,0,-1,-1,-4,-8,-6
18:22:00:572164,-6,-3,0,-1,-1,-4,-8,-6
18:22:00:572966,9,-6,-3,-1,-2,1,18,20
18:22:00:579009,-35,-9,-7,-4,-4,-3,-7,-30
18:22:00:594679,-35,-9,-7,-4,-4,-3,-7,-30
18:22:00:595477,1,-4,-6,-2,-3,-6,-32,-2
18:22:00:601459,1,2,-2,0,0,0,3,2
18:22:00:609653,1,2,-2,0,0,0,3,2
18:22:00:610437,15,-1,2,-3,-2,-6,-22,-6
18:22:00:633919,10,0,1,0,2,3,14,19
18:22:00:634758,10,0,1,0,2,3,14,19
18:22:00:635633,3,-2,2,4,2,2,8,27
18:22:00:638968,3,-1,3,1,0,0,-6,10
18:22:00:646511,3,-1,3,1,0,0,-6,10
18:22:00:653966,-9,3,-1,-3,-1,-1,3,-9
18:22:00:661465,-15,0,-2,1,-1,-2,-4,49
18:22:00:669724,-15,0,-2,1,-1,-2,-4,49
18:22:00:670500,-6,-5,-4,-5,-2,-2,-18,-7
18:22:00:683947,4,3,0,0,-3,-1,-9,-12
18:22:00:692182,4,3,0,0,-3,-1,-9,-12
18:22:00:692987,-2,-3,-10,-8,-4,-3,-1,-4
18:22:00:698955,3,-5,-7,-8,-1,0,6,-10
18:22:00:714689,3,-5,-7,-8,-1,0,6,-10
18:22:00:715482,-2,4,24,14,3,0,-3,-16
18:22:00:730320,1,-11,-5,-22,-9,-6,-6,-11
18:22:00:731141,1,-11,-5,-22,-9,-6,-6,-11
18:22:00:731917,-12,-16,-36,-25,-10,-5,3,-1
18:22:00:743989,-3,-13,-80,-30,-10,-9,-13,-5
18:22:00:752165,-3,-13,-80,-30,-10,-9,-13,-5
18:22:00:752940,8,11,36,12,4,4,5,-3
18:22:00:758933,5,15,39,38,9,8,45,-3
18:22:00:774633,5,15,39,38,9,8,45,-3
18:22:00:775425,-9,-2,-13,-9,-3,0,4,-21
18:22:00:781479,13,18,50,33,10,10,14,18
18:22:00:797192,13,18,50,33,10,10,14,18
18:22:00:798018,10,9,38,16,8,7,18,5
18:22:00:803959,6,12,32,26,10,4,-2,-6
18:22:00:812153,6,12,32,26,10,4,-2,-6
18:22:00:812947,-17,-9,-3,3,-3,4,2,3
18:22:00:818981,44,27,53,47,11,-7,-74,12
18:22:00:826488,44,27,53,47,11,-7,-74,12
18:22:00:833931,-15,-6,-38,-29,-6,-3,39,15
18:22:00:841441,-1,-7,-19,-11,0,1,15,11
18:22:00:849651,-1,-7,-19,-11,0,1,15,11
18:22:00:850460,15,-2,-14,-7,-1,11,51,20
18:22:00:863973,-16,-16,-22,-26,-11,-12,-44,-23
18:22:00:872193,-16,-16,-22,-26,-11,-12,-44,-23
18:22:00:872937,-16,2,21,18,3,-3,-15,-42
18:22:00:878942,-45,-17,-25,-27,-10,-1,14,42
18:22:00:886523,-45,-17,-25,-27,-10,-1,14,42
18:22:00:902146,7,0,8,8,0,-6,-32,-2
18:22:00:902951,0,-15,-16,-17,-11,-6,-28,-86
18:22:00:909660,0,-15,-16,-17,-11,-6,-28,-86
18:22:00:910489,11,1,0,3,-2,-11,-78,-24
18:22:00:923995,5,2,4,0,4,10,62,25
18:22:00:932145,5,2,4,0,4,10,62,25
18:22:00:932954,-25,-10,-10,-7,-6,-3,-6,-51
18:22:00:938998,-1,-1,1,1,-2,-3,-6,2
18:22:00:946483,-1,-1,1,1,-2,-3,-6,2
18:22:00:953939,21,3,0,1,1,-8,-58,28
18:22:00:961449,-14,-2,-3,-5,-2,-2,-6,-16
18:22:00:969678,-14,-2,-3,-5,-2,-2,-6,-16
18:22:00:970464,9,5,5,3,-2,4,36,14
18:22:00:984009,-22,-9,-12,-11,-6,-15,7,-42
18:22:00:992173,-22,-9,-12,-11,-6,-15,7,-42
18:22:00:992953,23,9,4,4,3,5,9,-13
18:22:00:998949,3,1,-1,-4,-4,8,42,26
18:22:01:6538,3,1,-1,-4,-4,8,42,26
18:22:01:13936,10,-4,-6,-2,-1,-5,-4,11
18:22:01:21429,-7,3,0,3,1,0,-2,12
18:22:01:29721,-7,3,0,3,1,0,-2,12
18:22:01:30488,-5,-4,-5,-5,-3,-7,-15,-5
18:22:01:43953,22,-2,-1,0,-4,-2,6,1
18:22:01:52193,22,-2,-1,0,-4,-2,6,1
18:22:01:53001,3,2,-2,-3,-3,1,9,-7
18:22:01:58954,4,-1,3,-1,0,-5,-27,-12
18:22:01:66522,4,-1,3,-1,0,-5,-27,-12
18:22:01:82124,-5,0,3,3,-1,4,20,25
18:22:01:82937,6,-4,-3,-1,0,-3,-13,17
18:22:01:89645,6,-4,-3,-1,0,-3,-13,17
18:22:01:90486,19,-2,-10,-6,2,-5,1,5
18:22:01:103942,6,0,-4,-3,0,6,54,32
18:22:01:112155,6,0,-4,-3,0,6,54,32
18:22:01:112941,0,-1,1,1,-1,2,7,1
18:22:01:118936,1,6,4,3,2,-1,-14,11
18:22:01:126527,1,6,4,3,2,-1,-14,11
18:22:01:133973,-6,4,-1,-2,-1,5,28,22
18:22:01:141473,8,-9,-3,-2,-1,-8,-57,25
18:22:01:149683,8,-9,-3,-2,-1,-8,-57,25
18:22:01:150483,-8,-5,-1,-2,-2,4,39,11
18:22:01:163927,-25,-2,-2,-1,-2,7,14,-34
18:22:01:196674,-25,-2,-2,-1,-2,7,14,-34
18:22:01:197450,-38,-7,0,-1,-4,-9,-45,-24
18:22:01:198269,23,5,0,-1,2,9,64,37
18:22:01:199087,23,5,0,-1,2,9,64,37
18:22:01:202111,3,1,0,0,0,3,21,4
18:22:01:202926,-16,-7,-3,-1,-2,5,-7,-24
18:22:01:209636,-16,-7,-3,-1,-2,5,-7,-24
18:22:01:210432,32,18,6,3,-2,-7,-37,9
18:22:01:223976,0,3,2,2,0,-2,0,-6
18:22:01:232199,0,3,2,2,0,-2,0,-6
18:22:01:232971,-10,-7,1,-1,-1,3,-2,31
18:22:01:238959,-5,3,-1,-1,-1,2,21,-2
18:22:01:246506,-5,3,-1,-1,-1,2,21,-2
18:22:01:253990,4,-4,-1,-4,-4,-16,-88,-39
18:22:01:261524,-27,-12,-9,-2,-4,-9,11,39
18:22:01:268988,-27,-12,-9,-2,-4,-9,11,39
18:22:01:276454,-10,14,9,-2,2,6,32,12
18:22:01:292803,-22,-1,-5,-6,-8,-23,-92,-45
18:22:01:293626,-22,-1,-5,-6,-8,-23,-92,-45
18:22:01:294413,-22,-6,-4,0,0,0,39,10
18:22:01:307133,11,3,4,1,2,8,32,0
18:22:01:307957,11,3,4,1,2,8,32,0
18:22:01:313973,-11,-10,1,1,-2,0,-17,-44
18:22:01:321454,-26,-6,-5,-3,-2,-9,40,-6
18:22:01:328993,-26,-6,-5,-3,-2,-9,40,-6
18:22:01:336512,-2,-2,-1,1,1,7,40,15
18:22:01:343996,-2,2,-1,-1,-1,6,10,-6
18:22:01:352170,-2,2,-1,-1,-1,6,10,-6
18:22:01:352983,-5,-3,-5,-3,-2,-9,-45,-31
18:22:01:367116,26,-14,7,0,1,2,-16,-6
18:22:01:367995,26,-14,7,0,1,2,-16,-6
18:22:01:373998,-37,-3,-4,-1,-5,-15,-43,-52
18:22:01:381479,16,11,-2,-3,1,2,40,60
18:22:01:388986,16,11,-2,-3,1,2,40,60
18:22:01:396454,27,37,-3,1,2,15,85,45
18:22:01:403917,-5,0,1,-2,-2,-3,-12,-16
18:22:01:412161,-5,0,1,-2,-2,-3,-12,-16
18:22:01:412994,0,-12,-3,-4,-5,-14,-100,-32
18:22:01:427170,8,-1,-3,2,4,8,15,17
18:22:01:427976,8,-1,-3,2,4,8,15,17
18:22:01:433947,5,-13,2,-1,-2,2,19,31
18:22:01:441458,-17,1,2,2,0,-1,4,-24
18:22:01:449012,-17,1,2,2,0,-1,4,-24
18:22:01:456441,2,-5,-5,-2,1,3,36,26
18:22:01:463950,-31,7,6,-4,-4,-15,-98,-59
18:22:01:472213,-31,7,6,-4,-4,-15,-98,-59
18:22:01:472989,4,-3,-1,-1,-1,4,57,-11
18:22:01:487149,6,-5,-6,-1,-2,2,16,14
18:22:01:487989,6,-5,-6,-1,-2,2,16,14
18:22:01:493944,-8,-5,0,-2,0,1,-20,-1
18:22:01:501434,55,-2,-4,-1,1,5,33,23
18:22:01:509008,55,-2,-4,-1,1,5,33,23
18:22:01:516441,5,3,1,3,1,8,26,-9
18:22:01:523961,-15,-2,5,2,-1,-2,-8,-14
18:22:01:532223,-15,-2,5,2,-1,-2,-8,-14
18:22:01:532993,8,-1,-1,-2,-2,-1,1,6
18:22:01:547204,29,10,7,1,0,0,-2,0
18:22:01:548031,29,10,7,1,0,0,-2,0
18:22:01:554005,20,-9,-4,-3,-4,-9,-47,18
18:22:01:561475,-15,-3,-5,-7,-4,4,39,-23
18:22:01:569058,-15,-3,-5,-7,-4,4,39,-23
18:22:01:576484,1,-1,-4,-1,1,3,38,7
18:22:01:583988,1,-6,-3,-2,-4,-8,-62,-44
18:22:01:592179,1,-6,-3,-2,-4,-8,-62,-44
18:22:01:592968,2,-8,-3,0,-1,0,7,0
18:22:01:607131,-8,3,2,4,0,1,-13,29
18:22:01:607935,-8,3,2,4,0,1,-13,29
18:22:01:613971,-10,-2,-1,0,-1,3,21,15
18:22:01:621475,-1,4,-3,-3,-3,-4,-11,-21
18:22:01:629020,-1,4,-3,-3,-3,-4,-11,-21
18:22:01:636548,-1,6,0,-3,-4,-7,-59,-48
18:22:01:643963,-9,-9,-1,-2,-3,-17,-91,-14
18:22:01:652144,-9,-9,-1,-2,-3,-17,-91,-14
18:22:01:652972,0,-8,-2,-1,-1,1,26,30
18:22:01:667132,-7,-2,-2,2,3,8,54,23
18:22:01:667967,-7,-2,-2,2,3,8,54,23
18:22:01:682142,3,-9,6,1,-1,-1,-16,-7
18:22:01:682950,4,4,1,4,2,3,29,6
18:22:01:688999,4,4,1,4,2,3,29,6
18:22:01:696494,-42,-5,-1,-3,-1,8,52,-20
18:22:01:703982,-4,-10,-5,0,-2,0,1,30
18:22:01:712141,-4,-10,-5,0,-2,0,1,30
18:22:01:712994,4,-14,-2,-2,-3,-4,2,4
18:22:01:727120,12,-7,3,-3,0,2,20,21
18:22:01:727954,12,-7,3,-3,0,2,20,21
18:22:01:733973,11,3,3,2,1,5,4,38
18:22:01:741484,-10,-1,-2,-3,-2,-5,-52,-28
18:22:01:748997,-10,-1,-2,-3,-2,-5,-52,-28
18:22:01:756421,-19,18,-2,-1,2,1,43,-8
18:22:01:763907,8,3,1,1,0,5,34,15
18:22:01:772172,8,3,1,1,0,5,34,15
18:22:01:772980,-24,0,2,0,-1,-7,-34,-25
18:22:01:786462,14,28,-2,-5,-3,-1,20,-1
18:22:01:794640,14,28,-2,-5,-3,-1,20,-1
18:22:01:795458,17,-7,-6,-1,-1,-2,9,9
18:22:01:801429,-12,-12,-7,2,4,8,40,37
18:22:01:809031,-12,-12,-7,2,4,8,40,37
18:22:01:816458,-13,-1,-5,-4,-2,-13,-61,-6
18:22:01:823955,11,-3,22,1,-2,7,47,19
18:22:01:832210,11,-3,22,1,-2,7,47,19
18:22:01:832994,-18,-8,-11,-3,-2,2,6,-51
18:22:01:846444,-15,-3,-4,-1,-1,-4,-27,-39
18:22:01:854650,-15,-3,-4,-1,-1,-4,-27,-39
18:22:01:855472,-11,4,0,-1,-1,17,99,23
18:22:01:861435,-2,4,-6,-4,-4,-1,-12,-11
18:22:01:869029,-2,4,-6,-4,-4,-1,-12,-11
18:22:01:876489,62,8,2,1,2,12,56,-1
18:22:01:883970,2,6,1,-3,-1,-5,-31,-17
18:22:01:892191,2,6,1,-3,-1,-5,-31,-17
18:22:01:893002,8,5,-4,-2,-3,-8,-41,-6
18:22:01:906451,-5,-6,-5,-3,-3,-12,-73,-17
18:22:01:914692,-5,-6,-5,-3,-3,-12,-73,-17
18:22:01:915472,1,-1,12,-2,-3,-11,-73,19
18:22:01:921454,-18,-4,5,1,1,-4,-29,4
18:22:01:929058,-18,-4,5,1,1,-4,-29,4
18:22:01:936506,-6,-15,3,2,-2,-2,10,16
18:22:01:943981,14,-6,-7,-4,-1,2,40,37
18:22:01:952142,14,-6,-7,-4,-1,2,40,37
18:22:01:952945,7,-6,-6,-5,-8,-19,-102,-72
18:22:01:966442,-5,-1,-4,-2,-2,1,34,-24
18:22:01:974701,-5,-1,-4,-2,-2,1,34,-24
18:22:01:975515,0,-38,-3,3,3,3,22,36
18:22:01:981492,3,-6,-5,0,-3,-5,-15,-39
18:22:01:989020,3,-6,-5,0,-3,-5,-15,-39
18:22:01:996506,12,-9,-4,-5,-6,-22,-60,-32
18:22:02:4013,32,4,-2,0,2,12,97,-7
18:22:02:12174,32,4,-2,0,2,12,97,-7
18:22:02:12999,12,7,4,5,6,29,127,78
18:22:02:26475,-6,18,4,-3,1,5,76,73
18:22:02:34680,-6,18,4,-3,1,5,76,73
18:22:02:35437,3,2,5,-1,-6,-3,-43,-26
18:22:02:41509,-19,16,-6,2,-1,-2,-22,0
18:22:02:49002,-19,16,-6,2,-1,-2,-22,0
18:22:02:56438,-9,24,3,2,3,11,70,33
18:22:02:63948,5,-16,7,2,0,-6,-31,20
18:22:02:72203,5,-16,7,2,0,-6,-31,20
18:22:02:73005,-10,96,40,6,4,-7,-60,-4
18:22:02:86494,18,1,10,3,1,0,24,-6
18:22:02:94654,18,1,10,3,1,0,24,-6
18:22:02:95472,-20,-30,-7,-5,1,-7,-8,64
18:22:02:101463,1,-12,1,0,-1,-7,-49,16
18:22:02:117168,1,-12,1,0,-1,-7,-49,16
18:22:02:117936,34,-58,-19,-11,-7,3,61,-8
18:22:02:123997,-15,-16,-4,-1,-5,-6,-26,-37
18:22:02:132147,-15,-16,-4,-1,-5,-6,-26,-37
18:22:02:132984,34,23,-7,6,8,14,92,70
18:22:02:146469,15,-24,-7,-5,-1,9,83,51
18:22:02:154680,15,-24,-7,-5,-1,9,83,51
18:22:02:155434,-41,-9,-11,-2,-2,4,40,-7
18:22:02:161456,-34,-19,2,0,-3,2,23,-19
18:22:02:169003,-34,-19,2,0,-3,2,23,-19
18:22:02:184629,-8,-2,-2,-3,-1,-6,-42,6
18:22:02:185460,-29,30,-13,-5,-7,-18,-104,-48
18:22:02:192156,-29,30,-13,-5,-7,-18,-104,-48
18:22:02:192951,15,13,0,0,-3,-10,-74,-42
18:22:02:206474,15,-61,-27,-9,-2,2,20,2
18:22:02:214646,15,-61,-27,-9,-2,2,20,2
18:22:02:215450,-16,-7,-12,-5,-6,-4,-1,-47
18:22:02:229691,-7,-14,0,-4,-6,-8,-46,-10
18:22:02:230509,-7,-14,0,-4,-6,-8,-46,-10
18:22:02:236506,2,3,5,1,2,-1,-12,-2
18:22:02:243974,-4,20,14,4,3,-9,-30,-49
18:22:02:251460,-4,20,14,4,3,-9,-30,-49
18:22:02:258975,4,3,0,1,2,13,69,-5
18:22:02:266480,-3,25,-8,-2,4,15,107,27
18:22:02:274647,-3,25,-8,-2,4,15,107,27
18:22:02:275460,-41,-23,-11,0,0,-6,-18,22
18:22:02:289671,-2,-23,-12,-4,-5,-3,-17,4
18:22:02:290444,-2,-23,-12,-4,-5,-3,-17,4
18:22:02:296499,5,18,4,0,0,7,79,-1
18:22:02:304010,22,34,23,7,4,-6,-98,6
18:22:02:311498,22,34,23,7,4,-6,-98,6
18:22:02:327149,17,-77,2,-7,-10,-11,-66,-43
18:22:02:327957,-10,1,6,1,0,4,65,20
18:22:02:334679,-10,1,6,1,0,4,65,20
18:22:02:335463,2,6,-16,-3,0,-6,-12,12
18:22:02:349626,8,19,-1,1,-2,5,21,-9
18:22:02:350446,8,19,-1,1,-2,5,21,-9
18:22:02:356480,-11,8,2,-1,-1,-4,-9,-15
18:22:02:363985,-14,1,0,2,3,0,-6,16
18:22:02:371614,-14,1,0,2,3,0,-6,16
18:22:02:378944,3,9,5,0,-1,0,-2,3
18:22:02:386407,-4,-10,2,-2,0,2,9,7
18:22:02:394645,-4,-10,2,-2,0,2,9,7
18:22:02:395439,5,14,-2,-1,-2,-2,-20,-13
18:22:02:409640,-4,-1,-3,-1,-2,-2,18,-6
18:22:02:410452,-4,-1,-3,-1,-2,-2,18,-6
18:22:02:416420,1,4,2,4,-1,-8,-31,-4
18:22:02:423935,0,-4,-3,-9,-2,1,17,0
18:22:02:431529,0,-4,-3,-9,-2,1,17,0
18:22:02:438961,7,1,4,1,1,-3,-11,-11
18:22:02:446461,4,-1,-3,-5,-5,-11,-38,-61
18:22:02:454689,4,-1,-3,-5,-5,-11,-38,-61
18:22:02:455471,-3,1,3,-1,-1,6,38,4
18:22:02:469653,-19,-6,0,-2,-5,-11,-80,-20
18:22:02:470459,-19,-6,0,-2,-5,-11,-80,-20
18:22:02:476453,-5,-2,-1,-4,-1,1,22,0
18:22:02:483906,10,1,5,1,-1,3,40,31
18:22:02:491482,10,1,5,1,-1,3,40,31
18:22:02:498955,-10,29,4,-2,-1,0,0,-8
18:22:02:506459,-7,0,3,5,1,7,48,-12
18:22:02:514678,-7,0,3,5,1,7,48,-12
18:22:02:515503,6,-12,-2,2,1,3,27,23
18:22:02:529664,-29,-2,-6,-5,-2,2,11,-48
18:22:02:530476,-29,-2,-6,-5,-2,2,11,-48
18:22:02:536467,9,-4,-3,-4,1,-2,-21,-19
18:22:02:543961,10,7,5,0,0,1,-11,28
18:22:02:551540,10,7,5,0,0,1,-11,28
18:22:02:558957,-1,5,-3,-4,-4,-4,-7,-1
18:22:02:566465,-12,8,1,5,2,-2,-20,23
18:22:02:574641,-12,8,1,5,2,-2,-20,23
18:22:02:575448,-2,-13,-12,-4,-4,-5,-13,5
18:22:02:589693,-6,-9,16,5,4,3,11,17
18:22:02:590510,-6,-9,16,5,4,3,11,17
18:22:02:596461,-27,-4,-2,-2,-3,-3,-12,-24
18:22:02:603972,15,-11,-17,-5,-4,-3,-6,8
18:22:02:611489,15,-11,-17,-5,-4,-3,-6,8
18:22:02:618987,4,2,4,0,-1,-1,-6,7
18:22:02:626482,5,-4,-4,-1,-2,-1,-3,-6
18:22:02:634681,5,-4,-4,-1,-2,-1,-3,-6
18:22:02:635459,10,-7,-3,4,1,1,4,16
18:22:02:649633,-2,17,-7,-1,0,-2,-3,11
18:22:02:650454,-2,17,-7,-1,0,-2,-3,11
18:22:02:656511,-4,-13,-14,-1,1,0,0,4
18:22:02:663982,9,-6,-9,-5,-1,-3,-6,-3
18:22:02:671496,9,-6,-9,-5,-1,-3,-6,-3
18:22:02:678959,7,10,4,0,-2,-3,-4,3
18:22:02:686432,4,1,-1,-2,-2,0,2,3
18:22:02:694708,4,1,-1,-2,-2,0,2,3
18:22:02:695455,-1,8,10,4,1,1,-2,8
18:22:02:709634,0,-10,2,-2,-4,-2,-3,1
18:22:02:710474,0,-10,2,-2,-4,-2,-3,1
18:22:02:716414,-1,7,-6,0,-3,-2,-1,0
18:22:02:723926,1,5,2,2,1,0,1,0
18:22:02:731506,1,5,2,2,1,0,1,0
18:22:02:738967,-5,-2,3,-2,-2,1,1,3
18:22:02:746448,2,-10,-18,-1,2,1,-2,3
18:22:02:754684,2,-10,-18,-1,2,1,-2,3
18:22:02:755487,-6,-2,3,2,-1,-3,-3,-3
18:22:02:769677,2,-6,-7,6,0,-2,-1,-2
18:22:02:770520,2,-6,-7,6,0,-2,-1,-2
18:22:02:776479,1,-3,-1,-4,-2,-2,-3,0
18:22:02:783956,-1,11,3,-3,-2,-1,-1,1
18:22:02:791526,-1,11,3,-3,-2,-1,-1,1
18:22:02:798939,0,3,7,-2,-2,1,-2,3
18:22:02:806461,3,0,10,-2,-1,-1,0,-1
18:22:02:814675,3,0,10,-2,-1,-1,0,-1
18:22:02:815510,-2,-7,-4,-4,-2,0,-3,-1
18:22:02:829676,8,0,0,-3,-1,-1,-1,28
18:22:02:830478,8,0,0,-3,-1,-1,-1,28
18:22:02:836477,-4,-1,1,-2,0,-2,-6,-57
18:22:02:843934,-9,-1,1,0,-6,-5,-10,-76
18:22:02:851576,-9,-1,1,0,-6,-5,-10,-76
18:22:02:858964,-2,-4,-5,-6,-3,-2,2,17
18:22:02:866457,7,-1,1,-1,0,0,2,-15
18:22:02:874630,7,-1,1,-1,0,0,2,-15
18:22:02:875491,-5,-1,-2,-1,-2,-2,-1,-6
18:22:02:889686,-16,0,2,0,1,3,4,39
18:22:02:890533,-16,0,2,0,1,3,4,39
18:22:02:896449,8,4,1,1,1,1,2,5
18:22:02:903952,-20,-4,-3,-4,-2,-2,-4,6
18:22:02:911459,-20,-4,-3,-4,-2,-2,-4,6
18:22:02:927132,-2,0,-1,0,0,0,-1,-18
18:22:02:927945,5,-1,-1,-3,-2,0,1,-22
18:22:02:934644,5,-1,-1,-3,-2,0,1,-22
18:22:02:935453,-19,-15,-6,-8,-8,-6,-4,-53
18:22:02:949703,41,2,-4,-1,-2,8,67,-14
18:22:02:950517,41,2,-4,-1,-2,8,67,-14
18:22:02:956454,6,8,6,6,7,2,-9,57
18:22:02:963951,4,-1,0,-4,-4,-15,-93,-38
18:22:02:971508,4,-1,0,-4,-4,-15,-93,-38
18:22:02:979014,12,1,0,1,-3,-1,17,-23
18:22:02:986471,7,7,3,5,6,9,41,110
18:22:02:994643,7,7,3,5,6,9,41,110
18:22:02:995441,7,-4,0,-4,-5,-17,-95,10
18:22:03:9664,-18,-2,1,-3,-7,-16,-55,-1
18:22:03:10466,-18,-2,1,-3,-7,-16,-55,-1
18:22:03:16489,-28,-6,-4,-3,-2,5,45,-66
18:22:03:24000,-1,-4,1,-2,0,1,-19,-41
18:22:03:31489,-1,-4,1,-2,0,1,-19,-41
18:22:03:38924,15,-4,-2,-1,0,0,4,22
18:22:03:46481,-1,0,0,0,-1,1,17,-5
18:22:03:54667,-1,0,0,0,-1,1,17,-5
18:22:03:55482,16,1,0,-2,-1,3,9,29
18:22:03:69681,0,-2,-2,0,0,2,24,17
18:22:03:70472,0,-2,-2,0,0,2,24,17
18:22:03:76442,-3,-4,-5,-2,-4,-1,5,18
18:22:03:83974,2,-2,3,0,-1,-17,-89,-47
18:22:03:99636,2,-2,3,0,-1,-17,-89,-47
18:22:03:100448,-5,3,-4,-1,2,4,28,-5
18:22:03:106484,-2,0,-2,-2,-2,5,31,11
18:22:03:114665,-2,0,-2,-2,-2,5,31,11
18:22:03:115456,28,5,2,-3,-5,-2,14,2
18:22:03:137861,-5,-2,-2,1,2,10,106,27
18:22:03:138659,-5,-2,-2,1,2,10,106,27
18:22:03:139444,-8,1,0,2,5,13,51,35
18:22:03:143955,-7,-5,-4,-3,-3,-6,-18,-7
18:22:03:151571,-7,-5,-4,-3,-3,-6,-18,-7
18:22:03:158964,-8,0,-2,-1,-3,-7,-44,-41
18:22:03:166457,0,2,6,3,2,5,22,42
18:22:03:173991,0,2,6,3,2,5,22,42
18:22:03:181512,-17,-1,2,1,0,0,24,46
18:22:03:189657,3,2,-2,0,1,3,-3,-7
18:22:03:190452,3,2,-2,0,1,3,-3,-7
18:22:03:196441,-31,-6,-4,-5,-1,-1,20,22
18:22:03:212138,-5,0,-3,-5,1,-4,-14,21
18:22:03:212989,-5,0,-3,-5,1,-4,-14,21
18:22:03:219001,4,2,-1,4,0,8,51,-27
18:22:03:226483,1,-3,0,2,0,4,35,-7
18:22:03:242124,1,-3,0,2,0,4,35,-7
18:22:03:242946,3,1,2,2,0,0,-11,2
18:22:03:249628,-4,3,1,-3,-3,-4,-17,-5
18:22:03:250440,-4,3,1,-3,-3,-4,-17,-5
18:22:03:256430,9,-1,-3,-3,-2,-4,-31,1
18:22:03:272176,-5,-5,-6,-3,-1,-2,-7,23
18:22:03:272958,-5,-5,-6,-3,-1,-2,-7,23
18:22:03:278994,-7,-1,0,1,-2,-8,-44,3
18:22:03:286480,4,-11,0,2,-3,-2,0,-14
18:22:03:294020,4,-11,0,2,-3,-2,0,-14
18:22:03:301432,-15,0,0,-1,-1,1,41,19
18:22:03:309626,5,-5,-2,0,0,-4,-10,-20
18:22:03:310449,5,-5,-2,0,0,-4,-10,-20
18:22:03:316450,-5,0,0,-1,0,-3,-23,-13
18:22:03:332194,-10,0,-2,-1,-1,2,2,-23
18:22:03:332954,-10,0,-2,-1,-1,2,2,-23
18:22:03:338938,-15,0,-2,-3,-3,-2,4,-10
18:22:03:346488,6,5,-5,-1,0,3,5,18
18:22:03:354000,6,5,-5,-1,0,3,5,18
18:22:03:361474,10,-3,-1,0,-1,-7,-46,-7
18:22:03:369667,-29,-14,-3,-2,0,3,9,34
18:22:03:370483,-29,-14,-3,-2,0,3,9,34
18:22:03:376462,6,0,-1,0,1,1,33,12
18:22:03:392167,10,1,0,-3,-3,2,29,14
18:22:03:392999,10,1,0,-3,-3,2,29,14
18:22:03:398958,-19,-7,0,-2,0,-1,-13,-11
18:22:03:406443,1,0,-3,-2,-3,-4,-12,-16
18:22:03:414012,1,0,-3,-2,-3,-4,-12,-16
18:22:03:421450,5,2,-4,1,-4,-4,-8,2
18:22:03:429718,-14,3,4,0,-2,-3,-14,-43
18:22:03:430487,-14,3,4,0,-2,-3,-14,-43
18:22:03:436465,4,2,1,0,-2,0,19,-18
18:22:03:452200,1,-2,-4,-1,-3,-1,-6,-7
18:22:03:452972,1,-2,-4,-1,-3,-1,-6,-7
18:22:03:458978,5,1,0,0,0,2,18,2
18:22:03:466444,6,6,5,0,0,-4,-9,2
18:22:03:474061,6,6,5,0,0,-4,-9,2
18:22:03:481474,6,-4,-5,-1,-2,-2,-23,10
18:22:03:489648,6,0,-12,-3,-2,-3,-6,5
18:22:03:490464,6,0,-12,-3,-2,-3,-6,5
18:22:03:496490,4,0,0,0,0,1,3,-1
18:22:03:512175,0,-2,0,-2,-1,-2,6,70
18:22:03:513029,0,-2,0,-2,-1,-2,6,70
18:22:03:518951,-7,-1,-1,1,0,-1,-12,-7
18:22:03:526482,0,-3,1,-4,-1,1,-3,-20
18:22:03:534016,0,-3,1,-4,-1,1,-3,-20
18:22:03:541511,4,1,1,-15,-2,-1,-3,16
18:22:03:549641,3,2,2,-14,-1,-2,-2,-12
18:22:03:550457,3,2,2,-14,-1,-2,-2,-12
18:22:03:556450,0,-1,3,27,12,9,3,7
18:22:03:572145,-12,-4,-1,-14,-12,-8,-23,-77
18:22:03:572956,-12,-4,-1,-14,-12,-8,-23,-77
18:22:03:579010,1,3,1,-39,-9,-9,-9,-7
18:22:03:586482,10,3,3,10,20,26,63,24
18:22:03:594006,10,3,3,10,20,26,63,24
18:22:03:601420,-3,-5,-1,1,-11,-4,-17,0
18:22:03:609644,0,-1,-1,-8,-17,1,52,-2
18:22:03:610501,0,-1,-1,-8,-17,1,52,-2
18:22:03:616490,4,3,4,19,19,10,64,20
18:22:03:632166,1,5,12,-2,-11,-7,-11,5
18:22:03:632956,1,5,12,-2,-11,-7,-11,5
18:22:03:638952,-8,-24,-38,7,-12,-9,-29,-9
18:22:03:646437,-2,0,-8,-11,3,-2,-10,4
18:22:03:654005,-2,0,-8,-11,3,-2,-10,4
18:22:03:661439,-1,1,11,1,-3,-3,-33,-7
18:22:03:669666,2,3,6,17,4,-4,-12,28
18:22:03:670504,2,3,6,17,4,-4,-12,28
18:22:03:676475,10,8,11,-4,1,1,12,6
18:22:03:692130,-22,0,27,11,0,-5,-30,25
18:22:03:692998,-22,0,27,11,0,-5,-30,25
18:22:03:698943,2,-1,4,3,1,-3,-16,4
18:22:03:706430,11,4,1,0,-2,-6,-23,-16
18:22:03:714036,11,4,1,0,-2,-6,-23,-16
18:22:03:721471,-10,0,-25,-5,-7,0,30,-10
18:22:03:729650,15,-2,-10,2,4,-1,-2,5
18:22:03:730500,15,-2,-10,2,4,-1,-2,5
18:22:03:736476,0,5,-4,3,3,-1,-8,7
18:22:03:752182,-1,-4,-25,-5,-3,-2,-1,-7
18:22:03:752999,-1,-4,-25,-5,-3,-2,-1,-7
18:22:03:758993,2,0,9,14,0,3,32,-3
18:22:03:766480,-10,-14,-25,-50,-11,-7,-18,-12
18:22:03:774038,-10,-14,-25,-50,-11,-7,-18,-12
18:22:03:781471,-6,-1,-3,4,1,-2,-10,-28
18:22:03:789667,-6,-1,-3,4,1,-2,-10,-28
18:22:03:790441,10,1,-2,15,2,0,2,11
18:22:03:796512,1,-1,3,-10,-2,-5,-2,5
18:22:03:812223,1,-1,3,-10,-2,-5,-2,5
18:22:03:813018,0,-1,3,11,2,1,7,-16
18:22:03:818976,-3,-2,-3,-2,-1,-4,-34,5
18:22:03:834702,-3,-2,-3,-2,-1,-4,-34,5
18:22:03:835480,-1,0,24,17,1,3,-4,-5
18:22:03:841463,-5,-9,-14,-30,-7,-3,1,14
18:22:03:849637,-5,-9,-14,-30,-7,-3,1,14
18:22:03:850415,0,2,8,11,1,0,6,-1
18:22:03:856461,1,5,12,9,3,4,-1,4
18:22:03:872202,1,5,12,9,3,4,-1,4
18:22:03:872995,-6,-1,-1,0,-1,-4,-2,-2
18:22:03:878958,-4,-6,-9,-8,-1,1,7,-7
18:22:03:894659,-4,-6,-9,-8,-1,1,7,-7
18:22:03:895467,0,-1,-7,2,1,2,-1,-7
18:22:03:901448,-1,-3,3,-2,-4,-3,0,-3
18:22:03:909714,-1,-3,3,-2,-4,-3,0,-3
18:22:03:910470,-2,-2,-1,-1,1,-2,-1,10
18:22:03:923977,-1,3,11,0,-4,-4,-15,-2
18:22:03:932230,-1,3,11,0,-4,-4,-15,-2
18:22:03:932993,-2,-2,-6,3,7,5,1,-3
18:22:03:938985,-1,-1,1,6,0,1,15,2
18:22:03:955151,-1,-1,1,6,0,1,15,2
18:22:03:955945,0,-1,-5,-4,-6,-3,2,-6
18:22:03:961437,15,1,2,4,1,12,72,24
18:22:03:969705,15,1,2,4,1,12,72,24
18:22:03:970516,-2,4,5,2,2,2,7,5
18:22:03:976477,1,0,0,-7,-1,-4,-14,0
18:22:03:992178,1,0,0,-7,-1,-4,-14,0
18:22:03:992995,0,-4,-5,-2,0,-2,-9,4
18:22:03:998951,-6,0,-1,4,-1,-2,-10,-15
18:22:04:14678,-6,0,-1,4,-1,-2,-10,-15
18:22:04:15445,-4,-5,-6,-6,-4,-5,-7,-9
18:22:04:21443,-8,-3,-1,0,0,-5,-18,-1
18:22:04:29692,-8,-3,-1,0,0,-5,-18,-1
18:22:04:30505,4,1,0,-2,-5,-3,-3,-1
18:22:04:36463,-1,0,-4,-7,-2,-2,-23,-8
18:22:04:52201,-1,0,-4,-7,-2,-2,-23,-8
18:22:04:52947,1,1,5,-6,0,-2,1,-6
18:22:04:58971,-2,2,5,-6,-3,-1,-8,-2
18:22:04:74645,-2,2,5,-6,-3,-1,-8,-2
18:22:04:75461,-14,-19,-24,-4,-3,1,0,-15
18:22:04:81436,-5,-1,6,2,0,1,-1,-6
18:22:04:89677,-5,-1,6,2,0,1,-1,-6
18:22:04:90471,4,-2,8,6,-1,-1,18,14
18:22:04:96452,24,7,0,0,-6,-16,-90,-21
18:22:04:112199,24,7,0,0,-6,-16,-90,-21
18:22:04:112960,26,-13,-2,8,3,2,-3,-18
18:22:04:118962,3,-21,-33,-28,-7,-1,30,17
18:22:04:134631,3,-21,-33,-28,-7,-1,30,17
18:22:04:135433,-6,15,13,6,-1,-1,-5,2
18:22:04:141500,5,10,17,6,2,0,4,2
18:22:04:149667,5,10,17,6,2,0,4,2
18:22:04:150454,-5,-3,2,1,-1,1,6,3
18:22:04:172854,-4,9,-3,1,1,0,3,0
18:22:04:173673,-4,9,-3,1,1,0,3,0
18:22:04:174479,-47,-10,-1,-4,-5,-6,-10,-8
18:22:04:178967,-16,-15,1,2,3,3,6,-3
18:22:04:194713,-16,-15,1,2,3,3,6,-3
18:22:04:195475,24,11,5,-3,-2,-3,-7,3
18:22:04:201472,-3,3,15,13,3,5,15,2
18:22:04:209712,-3,3,15,13,3,5,15,2
18:22:04:210496,3,2,-7,-9,0,-2,-7,1
18:22:04:223942,-3,-2,1,0,-2,-1,3,-2
18:22:04:232215,-3,-2,1,0,-2,-1,3,-2
18:22:04:232997,3,0,-7,-2,0,1,0,8
18:22:04:238981,-34,-12,-7,-3,-2,-4,-7,-31
18:22:04:254669,-34,-12,-7,-3,-2,-4,-7,-31
18:22:04:255478,7,0,-5,-3,-2,-1,3,7
18:22:04:261443,9,5,0,2,1,3,6,10
18:22:04:277204,9,5,0,2,1,3,6,10
18:22:04:277974,-1,-2,-4,-1,1,-2,-17,-3
18:22:04:283951,-2,-2,-7,-1,-6,-2,1,4
18:22:04:292174,-2,-2,-7,-1,-6,-2,1,4
18:22:04:293003,2,0,0,-9,-8,-5,4,3
18:22:04:298940,1,2,-3,6,3,3,2,-4
18:22:04:323297,1,2,-3,6,3,3,2,-4
18:22:04:324106,-18,-8,21,-7,-11,-14,-40,-71
18:22:04:324920,3,1,3,-4,-4,-10,-22,5
18:22:04:329692,3,1,3,-4,-4,-10,-22,5
18:22:04:330497,1,0,4,2,1,5,1,-1
18:22:04:343983,3,1,-3,0,-2,1,3,2
18:22:04:352161,3,1,-3,0,-2,1,3,2
18:22:04:352962,-1,5,-10,-4,-1,3,31,7
18:22:04:358996,5,3,0,3,5,4,6,-2
18:22:04:382854,5,3,0,3,5,4,6,-2
18:22:04:383670,0,1,-10,-2,0,-1,-23,4
18:22:04:384465,-1,7,46,25,0,-2,4,-4
18:22:04:389650,-1,7,46,25,0,-2,4,-4
18:22:04:390452,-15,-17,-49,-45,-10,-9,10,4
18:22:04:403945,-9,-3,0,1,1,3,5,-16
18:22:04:420310,-9,-3,0,1,1,3,5,-16
18:22:04:421139,1,-3,-7,16,5,10,40,57
18:22:04:421923,17,-6,-13,-9,-4,1,31,10
18:22:04:434639,17,-6,-13,-9,-4,1,31,10
18:22:04:435464,-20,-8,-1,-1,-7,-11,-23,-93
18:22:04:441417,-2,-1,-9,-6,-2,8,48,31
18:22:04:457190,-2,-1,-9,-6,-2,8,48,31
18:22:04:457956,16,7,10,10,3,-1,-8,15
18:22:04:463989,-9,-4,-12,-8,-2,-5,-25,-26
18:22:04:472163,-9,-4,-12,-8,-2,-5,-25,-26
18:22:04:472969,-11,-4,-4,3,-1,0,-15,-45
18:22:04:495315,2,-2,-7,-8,-5,-7,-14,13
18:22:04:496163,2,-2,-7,-8,-5,-7,-14,13
18:22:04:496959,8,7,20,10,7,7,17,33
18:22:04:501466,2,0,-5,-3,-1,-1,-9,-35
18:22:04:509646,2,0,-5,-3,-1,-1,-9,-35
18:22:04:510447,-6,-3,4,5,0,0,1,64
18:22:04:523949,3,-5,-11,-5,-2,-3,-5,11
18:22:04:532235,3,-5,-11,-5,-2,-3,-5,11
18:22:04:533032,-3,8,-13,-1,1,3,4,9
18:22:04:538994,-2,2,1,-1,-2,-4,-25,13
18:22:04:555174,-2,2,1,-1,-2,-4,-25,13
18:22:04:555975,8,-16,0,-2,-1,-5,-17,-45
18:22:04:561445,-9,22,13,0,-1,-3,-4,12
18:22:04:569696,-9,22,13,0,-1,-3,-4,12
18:22:04:570493,14,13,9,1,-4,4,6,16
18:22:04:600959,-12,-17,-6,-3,-1,-2,-10,-23
18:22:04:601765,-12,-17,-6,-3,-1,-2,-10,-23
18:22:04:602651,14,9,7,2,1,3,15,19
18:22:04:603388,-22,-14,-5,0,1,-1,-3,-7
18:22:04:614700,-22,-14,-5,0,1,-1,-3,-7
18:22:04:615468,10,-5,-8,-5,-1,0,1,23
18:22:04:629413,-80,-16,-32,-15,-7,-8,-23,-57
18:22:04:637214,-80,-16,-32,-15,-7,-8,-23,-57
18:22:04:638004,-15,-16,-11,-5,-2,0,4,15
18:22:04:643975,44,27,-23,-4,-1,-1,9,23
18:22:04:660351,44,27,-23,-4,-1,-1,9,23
18:22:04:661146,-2,-13,1,0,0,0,-1,0
18:22:04:661956,11,-2,15,4,2,5,38,27
18:22:04:674697,11,-2,15,4,2,5,38,27
18:22:04:675479,9,7,12,3,-1,-2,11,-6
18:22:04:681472,13,-9,-7,-2,-2,10,33,21
18:22:04:697167,13,-9,-7,-2,-2,10,33,21
18:22:04:697966,-43,-20,2,4,1,-2,-16,-68
18:22:04:703916,1,-4,-35,-15,-4,-8,-30,67
18:22:04:712192,1,-4,-35,-15,-4,-8,-30,67
18:22:04:712977,11,23,6,0,-1,-5,-15,8
18:22:04:718946,9,-7,8,0,-2,-5,-28,-4
18:22:04:734677,9,-7,8,0,-2,-5,-28,-4
18:22:04:735434,1,17,-8,3,4,15,58,56
18:22:04:741428,16,0,19,3,-4,-19,-93,-52
18:22:04:749696,16,0,19,3,-4,-19,-93,-52
18:22:04:750491,-6,-3,18,1,-5,-15,-68,-41
18:22:04:763977,14,6,7,5,4,8,33,4
18:22:04:772160,14,6,7,5,4,8,33,4
18:22:04:772958,10,13,2,-2,-4,4,17,-4
18:22:04:778927,-8,-10,16,0,-1,-2,-15,-53
18:22:04:794681,-8,-10,16,0,-1,-2,-15,-53
18:22:04:795450,-7,-2,10,4,0,-6,-20,19
18:22:04:801491,-3,-2,-9,0,-2,6,49,14
18:22:04:809648,-3,-2,-9,0,-2,6,49,14
18:22:04:810457,8,0,0,-4,-4,-13,-54,-17
18:22:04:832894,8,-15,-26,-1,0,8,31,17
18:22:04:833658,8,-15,-26,-1,0,8,31,17
18:22:04:834469,8,-17,-5,-2,1,3,31,18
18:22:04:838991,-1,7,3,-1,3,12,46,23
18:22:04:854690,-1,7,3,-1,3,12,46,23
18:22:04:855461,8,-7,0,1,-1,-11,-73,30
18:22:04:870328,-14,-37,24,3,-5,-11,-55,-7
18:22:04:877200,-14,-37,24,3,-5,-11,-55,-7
18:22:04:877987,0,17,3,-3,2,8,64,-6
18:22:04:883958,-9,-15,-7,-3,-2,-24,-60,-4
18:22:04:892225,-9,-15,-7,-3,-2,-24,-60,-4
18:22:04:892993,-5,5,-47,-8,-2,2,40,-3
18:22:04:906423,0,19,15,4,1,11,47,1
18:22:04:914697,0,19,15,4,1,11,47,1
18:22:04:915495,4,13,6,2,3,2,-11,-13
18:22:04:921481,-1,13,8,10,2,3,-2,-7
18:22:04:929736,-1,13,8,10,2,3,-2,-7
18:22:04:930497,-2,-7,4,-5,-5,-4,-2,-8
18:22:04:943955,0,-6,19,4,5,4,15,4
18:22:04:952189,0,-6,19,4,5,4,15,4
18:22:04:953006,-8,-27,-15,-2,-1,8,69,0
18:22:04:958960,2,18,-5,-4,1,1,34,-1
18:22:04:975126,2,18,-5,-4,1,1,34,-1
18:22:04:975938,-4,-2,-11,-2,-2,4,19,-2
18:22:04:981459,3,55,12,3,1,7,27,8
18:22:04:989692,3,55,12,3,1,7,27,8
18:22:04:990481,-7,-11,38,5,-1,-2,19,3
18:22:05:3930,-6,-50,-20,-9,-4,-10,2,-15
18:22:05:12227,-6,-50,-20,-9,-4,-10,2,-15
18:22:05:12984,1,17,-8,-3,-3,-3,-12,-5
18:22:05:18967,2,-19,-7,-1,2,6,16,5
18:22:05:35159,2,-19,-7,-1,2,6,16,5
18:22:05:42762,-6,-50,1,-1,-2,-5,-32,-8
18:22:05:43594,4,-8,20,3,-4,-4,-34,2
18:22:05:49692,4,-8,20,3,-4,-4,-34,2
18:22:05:50526,-1,-7,-4,-8,-7,-12,-48,-11
18:22:05:64420,5,22,-4,2,5,-1,15,0
18:22:05:72152,5,22,-4,2,5,-1,15,0
18:22:05:72999,-1,-7,-32,-15,-3,5,30,7
18:22:05:86508,2,39,1,-6,-7,-9,-48,-8
18:22:05:94658,2,39,1,-6,-7,-9,-48,-8
18:22:05:95435,-2,4,-25,2,-1,-18,-87,-17
18:22:05:109687,-9,10,-7,-1,-3,-10,-56,2
18:22:05:110478,-9,10,-7,-1,-3,-10,-56,2
18:22:05:116521,9,23,-1,3,2,11,42,12
18:22:05:123977,-17,-20,4,-1,-2,-3,18,-18
18:22:05:132178,-17,-20,4,-1,-2,-3,18,-18
18:22:05:132975,-1,4,7,-3,0,-1,-27,0
18:22:05:155351,-10,-7,-4,1,-1,3,0,5
18:22:05:156160,-10,-7,-4,1,-1,3,0,5
18:22:05:156991,1,-8,-9,-4,-5,-7,-3,0
18:22:05:161465,6,-15,-33,-13,-4,1,7,-2
18:22:05:169042,6,-15,-33,-13,-4,1,7,-2
18:22:05:176478,2,10,16,0,5,3,12,24
18:22:05:183978,5,-11,-14,-12,-6,-13,-82,-11
18:22:05:192238,5,-11,-14,-12,-6,-13,-82,-11
18:22:05:192950,2,9,35,15,3,18,73,6
18:22:05:215338,-5,23,17,9,1,1,32,12
18:22:05:216152,-5,23,17,9,1,1,32,12
18:22:05:216945,-8,8,-14,1,-1,-5,-27,-26
18:22:05:221452,-24,-22,6,-1,-9,-17,-40,-26
18:22:05:229024,-24,-22,6,-1,-9,-17,-40,-26
18:22:05:236502,28,7,25,9,4,-3,20,8
18:22:05:252821,3,0,13,18,4,10,48,3
18:22:05:253664,3,0,13,18,4,10,48,3
18:22:05:254453,-8,-18,-13,-12,-9,-7,-40,-4
18:22:05:266405,5,17,16,13,9,16,78,31
18:22:05:282788,5,17,16,13,9,16,78,31
18:22:05:283647,-14,-14,-54,-47,-11,-9,6,-58
18:22:05:284424,-15,-3,-18,-10,-5,14,75,21
18:22:05:288998,-15,-3,-18,-10,-5,14,75,21
18:22:05:296427,-7,24,12,18,4,-9,-1,1
18:22:05:303925,16,-3,2,-7,-5,-9,-54,-28
18:22:05:312181,16,-3,2,-7,-5,-9,-54,-28
18:22:05:312975,-7,-26,13,-6,-1,1,-27,6
18:22:05:326897,0,-64,-14,-1,0,8,21,16
18:22:05:334667,0,-64,-14,-1,0,8,21,16
18:22:05:335458,-16,38,7,4,0,4,33,11
18:22:05:341434,3,-2,16,8,2,-2,2,-8
18:22:05:349013,3,-2,16,8,2,-2,2,-8
18:22:05:356487,44,-6,-44,-34,-8,-30,-76,-13
18:22:05:363991,2,21,10,2,-7,-13,-22,27
18:22:05:372181,2,21,10,2,-7,-13,-22,27
18:22:05:372997,0,21,29,27,7,22,57,-20
18:22:05:386895,1,-27,-21,-15,-3,5,8,-2
18:22:05:394700,1,-27,-21,-15,-3,5,8,-2
18:22:05:395480,3,2,-8,2,-5,-1,7,21
18:22:05:401489,-53,-42,-19,-15,-3,-4,3,-14
18:22:05:409036,-53,-42,-19,-15,-3,-4,3,-14
18:22:05:416452,-18,-9,11,2,3,4,-8,-23
18:22:05:432834,107,83,13,4,4,-4,-80,27
18:22:05:433652,107,83,13,4,4,-4,-80,27
18:22:05:434448,50,-22,9,4,1,9,44,-1
18:22:05:446439,-32,-34,-38,-9,-12,-13,-64,-97
18:22:05:454676,-32,-34,-38,-9,-12,-13,-64,-97
18:22:05:455488,-31,2,18,12,2,5,9,-6
18:22:05:461437,28,28,5,-13,4,5,43,25
18:22:05:469022,28,28,5,-13,4,5,43,25
18:22:05:476452,4,-22,-1,-6,-3,1,-14,-20
18:22:05:483993,-1,-4,-14,-3,-2,-1,20,65
18:22:05:492178,-1,-4,-14,-3,-2,-1,20,65
18:22:05:493010,-88,-61,-10,-9,-5,-20,-60,-37
18:22:05:506416,-16,-6,14,1,-3,1,28,-35
18:22:05:514707,-16,-6,14,1,-3,1,28,-35
18:22:05:515497,44,48,27,6,2,12,49,38
18:22:05:529650,-23,-21,-15,-12,-1,6,57,58
18:22:05:530465,-23,-21,-15,-12,-1,6,57,58
18:22:05:536446,9,46,0,18,-2,-1,12,59
18:22:05:543918,-15,19,12,3,2,-4,-13,34
18:22:05:552596,-15,19,12,3,2,-4,-13,34
18:22:05:558942,31,-3,-16,-4,-6,4,50,13
18:22:05:566450,21,37,16,-1,-2,-6,-45,-28
18:22:05:574706,21,37,16,-1,-2,-6,-45,-28
18:22:05:575479,-42,-8,6,2,0,-27,-74,5
18:22:05:581455,27,0,26,9,2,3,37,-40
18:22:05:589057,27,0,26,9,2,3,37,-40
18:22:05:596499,26,-5,2,-1,4,17,46,38
18:22:05:604062,-45,-23,-6,-1,-3,-8,-28,-52
18:22:05:612177,-45,-23,-6,-1,-3,-8,-28,-52
18:22:05:612949,10,-12,-13,-1,-2,-10,-71,-56
18:22:05:626484,39,22,9,6,1,7,46,27
18:22:05:634727,39,22,9,6,1,7,46,27
18:22:05:635488,-9,-1,-9,1,-1,-1,12,-50
18:22:05:641491,26,-6,-1,5,4,19,75,43
18:22:05:649007,26,-6,-1,5,4,19,75,43
18:22:05:664657,27,11,11,1,1,-7,-58,62
18:22:05:665440,-10,0,-2,-1,-3,-23,-105,19
18:22:05:672196,-10,0,-2,-1,-3,-23,-105,19
18:22:05:673003,15,-2,4,-4,-2,15,127,28
18:22:05:686468,-26,-38,-26,-9,-10,-4,27,-69
18:22:05:694686,-26,-38,-26,-9,-10,-4,27,-69
18:22:05:695462,-33,-2,0,1,-1,5,-41,-5
18:22:05:709658,15,6,-14,-5,1,-14,-66,-29
18:22:05:710485,15,6,-14,-5,1,-14,-66,-29
18:22:05:716464,-4,1,5,6,0,2,18,20
18:22:05:723955,4,11,0,4,9,8,41,22
18:22:05:732183,4,11,0,4,9,8,41,22
18:22:05:733011,-2,-2,-14,-8,1,9,89,-26
18:22:05:746457,-5,-1,28,14,-5,-11,-69,33
18:22:05:754684,-5,-1,28,14,-5,-11,-69,33
18:22:05:755477,-5,9,-11,-15,-4,0,12,-58
18:22:05:761474,3,9,-1,4,-1,7,110,-4
18:22:05:769052,3,9,-1,4,-1,7,110,-4
18:22:05:776503,-20,-12,16,20,12,14,17,26
18:22:05:783959,4,6,-4,-8,-5,1,5,21
18:22:05:792164,4,6,-4,-8,-5,1,5,21
18:22:05:792972,35,-8,-5,-7,-7,-24,-74,-28
18:22:05:806443,-16,-5,3,-2,3,12,52,1
18:22:05:814695,-16,-5,3,-2,3,12,52,1
18:22:05:815493,-4,-3,9,6,3,7,22,11
18:22:05:821457,22,0,-4,-2,1,12,49,26
18:22:05:828974,22,0,-4,-2,1,12,49,26
18:22:05:836496,-26,-6,0,-5,-9,-24,-72,7
18:22:05:843977,-2,-6,-19,-10,-2,0,33,8
18:22:05:852199,-2,-6,-19,-10,-2,0,33,8
18:22:05:852972,-4,-1,-2,-3,-3,-2,-15,5
18:22:05:866497,-9,-3,5,6,2,-2,-37,-22
18:22:05:882872,-9,-3,5,6,2,-2,-37,-22
18:22:05:883698,2,8,-6,-8,-4,-6,-11,17
18:22:05:884454,-17,2,2,0,2,-5,-40,-5
18:22:05:889069,-17,2,2,0,2,-5,-40,-5
18:22:05:896455,4,-5,-8,-1,0,-3,15,15
18:22:05:903996,3,-6,-27,-9,-4,-2,-19,21
18:22:05:912128,3,-6,-27,-9,-4,-2,-19,21
18:22:05:912969,3,-4,-1,0,-8,-2,9,15
18:22:05:926483,3,14,53,23,20,8,-2,30
18:22:05:935729,3,14,53,23,20,8,-2,30
18:22:05:942176,38,9,15,-1,1,2,-8,26
18:22:05:942941,-10,-1,-10,-8,-5,-6,-4,8
18:22:05:949019,-10,-1,-10,-8,-5,-6,-4,8
18:22:05:956487,-11,-5,-1,-3,1,5,10,9
18:22:05:963999,11,8,18,1,-2,-2,3,14
18:22:05:972169,11,8,18,1,-2,-2,3,14
18:22:05:972943,-11,12,-3,0,4,0,-19,-10
18:22:05:986481,-12,-1,-5,-4,-6,1,54,27
18:22:05:994684,-12,-1,-5,-4,-6,1,54,27
18:22:05:995451,1,-5,-14,-2,0,8,43,-2
18:22:06:1497,20,11,1,3,-2,0,32,20
18:22:06:9029,20,11,1,3,-2,0,32,20
18:22:06:16448,-60,-27,-3,0,1,-1,12,-70
18:22:06:23920,6,10,-13,-2,1,7,25,49
18:22:06:31501,6,10,-13,-2,1,7,25,49
18:22:06:38967,46,23,5,-10,-9,-14,-39,46
18:22:06:46438,2,-12,10,3,4,3,-33,-29
18:22:06:54688,2,-12,10,3,4,3,-33,-29
18:22:06:55473,14,-29,-19,-2,0,4,-2,-22
18:22:06:69674,16,5,-11,-6,-8,-6,-31,-71
18:22:06:70482,16,5,-11,-6,-8,-6,-31,-71
18:22:06:76477,-39,-47,31,7,-6,1,28,-24
18:22:06:83930,-6,1,-5,-8,-7,-16,-58,-33
18:22:06:91521,-6,1,-5,-8,-7,-16,-58,-33
18:22:06:98978,16,23,0,1,2,0,-35,9
18:22:06:106508,-26,-8,-2,3,3,29,125,6
18:22:06:114711,-26,-8,-2,3,3,29,125,6
18:22:06:115468,17,48,-45,-10,-5,-13,-36,34
18:22:06:129681,22,-14,-8,-1,-2,3,30,9
18:22:06:130490,22,-14,-8,-1,-2,3,30,9
18:22:06:136451,-7,-18,-8,3,-2,3,39,-30
18:22:06:143967,-18,-6,-7,17,6,-1,-36,-34
18:22:06:151600,-18,-6,-7,17,6,-1,-36,-34
18:22:06:158968,1,-8,23,4,3,3,5,16
18:22:06:166489,-30,-31,-23,-17,-12,-15,-40,-24
18:22:06:174677,-30,-31,-23,-17,-12,-15,-40,-24
18:22:06:175440,-4,4,18,8,5,25,126,39
18:22:06:189682,-15,8,-6,-7,-7,-12,-5,-67
18:22:06:190514,-15,8,-6,-7,-7,-12,-5,-67
18:22:06:196465,-4,12,-1,-12,-1,7,52,50
18:22:06:203976,5,-17,0,-1,1,-4,-22,7
18:22:06:219709,5,-17,0,-1,1,-4,-22,7
18:22:06:220497,-3,-25,-19,-9,-4,-5,-34,-22
18:22:06:226456,19,29,-6,0,-6,-9,-30,11
18:22:06:234720,19,29,-6,0,-6,-9,-30,11
18:22:06:235493,5,4,-2,-4,1,-4,-20,4
18:22:06:249375,-3,-6,4,-1,-2,11,47,6
18:22:06:257192,-3,-6,4,-1,-2,11,47,6
18:22:06:257983,-19,-2,9,5,-2,-20,-38,-7
18:22:06:263963,-17,-13,13,8,5,13,46,41
18:22:06:271531,-17,-13,13,8,5,13,46,41
18:22:06:278978,-1,7,9,3,2,7,31,-33
18:22:06:286468,16,5,6,-1,0,-3,-5,18
18:22:06:294651,16,5,6,-1,0,-3,-5,18
18:22:06:295445,-7,-7,-3,0,-1,1,21,16
18:22:06:309676,-2,10,-19,-10,0,-8,-14,-20
18:22:06:310458,-2,10,-19,-10,0,-8,-14,-20
18:22:06:316493,17,22,-16,-4,-3,-5,-1,7
18:22:06:323987,-52,-55,2,-7,-9,-9,-26,-58
18:22:06:331484,-52,-55,2,-7,-9,-9,-26,-58
18:22:06:339003,-10,-5,22,10,2,5,23,10
18:22:06:346512,26,24,1,-7,-4,-4,2,1
18:22:06:354689,26,24,1,-7,-4,-4,2,1
18:22:06:355488,16,-9,-1,2,2,6,33,-65
18:22:06:369695,21,-12,-7,-3,-4,-21,-99,-3
18:22:06:370480,21,-12,-7,-3,-4,-21,-99,-3
18:22:06:376515,-2,2,2,0,0,-13,-95,-8
18:22:06:384007,4,12,5,-12,-2,1,1,-86
18:22:06:391492,4,12,5,-12,-2,1,1,-86
18:22:06:398934,-5,-26,-14,-5,-4,1,3,3
18:22:06:406454,-23,5,16,5,0,-1,-24,-25
18:22:06:414672,-23,5,16,5,0,-1,-24,-25
18:22:06:415481,8,11,12,-3,0,-1,10,-26
18:22:06:429662,5,-3,-7,-2,-1,-1,2,57
18:22:06:430516,5,-3,-7,-2,-1,-1,2,57
18:22:06:436456,10,21,-8,0,-1,-2,-1,-10
18:22:06:443964,20,25,12,1,1,8,39,7
18:22:06:451536,20,25,12,1,1,8,39,7
18:22:06:458944,0,1,-7,1,-2,-3,-29,13
18:22:06:466444,-39,-21,1,5,4,10,73,22
18:22:06:474727,-39,-21,1,5,4,10,73,22
18:22:06:475520,-1,7,-8,-5,-6,-10,-29,-9
18:22:06:489670,-5,-1,-3,0,-2,-1,-16,-42
18:22:06:490486,-5,-1,-3,0,-2,-1,-16,-42
18:22:06:496467,39,10,-20,-4,-3,6,30,6
18:22:06:503938,18,6,-12,-2,-2,-6,0,30
18:22:06:511542,18,6,-12,-2,-2,-6,0,30
18:22:06:518983,-12,-20,5,3,5,7,41,21
18:22:06:526455,-5,-4,-20,-9,-2,-1,-3,0
18:22:06:534673,-5,-4,-20,-9,-2,-1,-3,0
18:22:06:535421,5,4,-7,1,-3,-5,-2,15
18:22:06:549682,-4,-9,-1,-1,0,1,-2,7
18:22:06:550512,-4,-9,-1,-1,0,1,-2,7
18:22:06:556477,-46,-14,8,-5,-1,-5,-22,-23
18:22:06:563986,15,22,0,-2,-2,-16,-84,-5
18:22:06:571502,15,22,0,-2,-2,-16,-84,-5
18:22:06:579004,7,0,-12,-11,-1,-2,-15,2
18:22:06:586465,17,-3,13,5,2,6,66,7
18:22:06:594667,17,-3,13,5,2,6,66,7
18:22:06:595485,-2,-30,-3,2,-4,-7,-90,-30
18:22:06:609661,8,0,-3,1,-2,0,-7,19
18:22:06:610495,8,0,-3,1,-2,0,-7,19
18:22:06:616492,-26,-18,2,-1,-3,2,27,-36
18:22:06:623978,6,13,-7,-3,-1,7,17,19
18:22:06:631483,6,13,-7,-3,-1,7,17,19
18:22:06:638973,13,-14,29,5,0,0,1,-37
18:22:06:646491,-48,-22,-10,-6,-3,-7,-46,-4
18:22:06:654690,-48,-22,-10,-6,-3,-7,-46,-4
18:22:06:655460,-4,21,2,-3,-3,-6,-3,6
18:22:06:669650,8,-5,4,-1,-1,1,21,-16
18:22:06:670480,8,-5,4,-1,-1,1,21,-16
18:22:06:676440,11,20,6,4,1,1,-22,3
18:22:06:683988,3,27,-1,0,1,-7,-20,-14
18:22:06:691523,3,27,-1,0,1,-7,-20,-14
18:22:06:698924,-12,-6,-7,0,1,7,51,58
18:22:06:706443,8,-12,3,3,-3,4,-3,-1
18:22:06:714672,8,-12,3,3,-3,4,-3,-1
18:22:06:715450,-15,14,14,7,0,-1,4,1
18:22:06:729678,12,-4,-21,-2,0,0,22,37
18:22:06:730494,12,-4,-21,-2,0,0,22,37
18:22:06:736478,39,26,-12,2,3,7,41,42
18:22:06:743945,-15,25,3,0,-5,-25,-94,-42
18:22:06:751523,-15,25,3,0,-5,-25,-94,-42
18:22:06:758967,-22,12,-21,-6,0,7,42,2
18:22:06:766451,1,-35,9,3,2,4,26,21
18:22:06:774715,1,-35,9,3,2,4,26,21
18:22:06:775491,35,17,11,1,-3,-2,-23,11
18:22:06:789672,-96,-34,-17,-11,-8,-10,-19,5
18:22:06:790496,-96,-34,-17,-11,-8,-10,-19,5
18:22:06:796459,-15,-20,-3,-4,-1,-2,-13,-74
18:22:06:803975,27,13,-8,5,2,7,12,19
18:22:06:811571,27,13,-8,5,2,7,12,19
18:22:06:818968,1,-3,-12,-8,-5,-19,-86,-4
18:22:06:826506,19,4,7,1,1,2,12,-6
18:22:06:834697,19,4,7,1,1,2,12,-6
18:22:06:835425,3,-2,11,5,-1,2,50,-24
18:22:06:849673,12,4,-7,-8,-1,-2,-35,30
18:22:06:850501,12,4,-7,-8,-1,-2,-35,30
18:22:06:856475,-6,-23,-6,-3,0,0,24,-22
18:22:06:863987,-9,2,3,1,-3,4,41,-21
18:22:06:871511,-9,2,3,1,-3,4,41,-21
18:22:06:879008,-38,-39,-3,-3,-5,-1,-21,31
18:22:06:886456,2,14,5,-2,-3,-8,-52,-36
18:22:06:894684,2,14,5,-2,-3,-8,-52,-36
18:22:06:895465,7,21,-4,-4,0,1,10,38
18:22:06:917835,35,-9,16,4,-1,4,17,16
18:22:06:918663,35,-9,16,4,-1,4,17,16
18:22:06:919444,-3,-6,0,1,0,3,11,18
18:22:06:923975,-85,10,-6,-3,-3,-6,-16,-55
18:22:06:931596,-85,10,-6,-3,-3,-6,-16,-55
18:22:06:938962,2,-2,-10,-5,-2,-4,-3,6
18:22:06:946468,33,5,11,0,0,5,29,14
18:22:06:953980,33,5,11,0,0,5,29,14
18:22:06:961469,-12,2,1,1,-2,3,24,-10
18:22:06:969707,16,-6,-4,-2,-1,1,15,-45
18:22:06:970481,16,-6,-4,-2,-1,1,15,-45
18:22:06:976488,26,3,0,1,0,-3,-5,-5
18:22:06:992155,14,-3,-8,-3,-2,-1,-17,-2
18:22:06:992974,14,-3,-8,-3,-2,-1,-17,-2
18:22:06:999014,0,2,-13,0,1,3,3,-27
18:22:07:6455,20,-18,6,5,3,5,28,15
18:22:07:14018,20,-18,6,5,3,5,28,15
18:22:07:21437,-12,-2,21,1,-2,-9,-32,9
18:22:07:29690,18,10,4,-1,1,1,-21,21
18:22:07:30486,18,10,4,-1,1,1,-21,21
18:22:07:36440,-19,-26,4,2,0,0,-3,31
18:22:07:52155,6,6,-9,-5,-1,-1,11,11
18:22:07:53005,6,6,-9,-5,-1,-1,11,11
18:22:07:58943,-4,-23,-21,-4,2,-3,-3,39
18:22:07:66467,-2,-1,-4,-4,-1,0,21,22
18:22:07:74061,-2,-1,-4,-4,-1,0,21,22
18:22:07:81473,-2,1,-17,-4,-5,-11,-60,-20
18:22:07:89665,12,-13,-5,0,-1,-8,-7,-10
18:22:07:90473,12,-13,-5,0,-1,-8,-7,-10
18:22:07:96473,15,2,-4,-5,-1,7,39,17
18:22:07:112141,4,16,-9,2,1,5,10,25
18:22:07:112992,4,16,-9,2,1,5,10,25
18:22:07:118939,-16,-16,12,2,1,-1,9,-27
18:22:07:126422,-9,11,6,3,-2,-2,4,-20
18:22:07:134012,-9,11,6,3,-2,-2,4,-20
18:22:07:141478,22,1,4,0,0,1,-3,13
18:22:07:149679,-37,-8,-28,-3,-2,-7,-4,33
18:22:07:150493,-37,-8,-28,-3,-2,-7,-4,33
18:22:07:156471,-7,-16,-2,-7,-5,-2,-10,-3
18:22:07:172173,-8,-20,-11,-4,-1,2,22,14
18:22:07:172993,-8,-20,-11,-4,-1,2,22,14
18:22:07:178982,-28,-1,-13,4,-4,-15,-82,2
18:22:07:194667,-5,-2,9,-1,-1,-6,-40,3
18:22:07:195465,-5,-2,9,-1,-1,-6,-40,3
18:22:07:201443,27,32,3,-1,1,3,5,1
18:22:07:209689,26,27,9,-6,-3,1,15,7
18:22:07:210542,26,27,9,-6,-3,1,15,7
18:22:07:216472,-28,-44,-13,-8,-5,-3,-3,-8
18:22:07:232149,-9,-6,1,-1,0,0,11,-24
18:22:07:232993,-9,-6,1,-1,0,0,11,-24
18:22:07:238947,-9,-26,10,4,0,7,39,-6
18:22:07:246475,19,-1,4,4,3,9,37,33
18:22:07:254034,19,-1,4,4,3,9,37,33
18:22:07:261489,20,24,6,4,0,-11,-45,12
18:22:07:269675,1,11,9,1,0,3,4,-66
18:22:07:270523,1,11,9,1,0,3,4,-66
18:22:07:276479,27,11,-6,-7,-1,6,70,1
18:22:07:292620,-10,-10,3,4,1,-3,-23,-13
18:22:07:299696,-10,-10,3,4,1,-3,-23,-13
18:22:07:300494,35,24,-13,0,1,-3,-20,2
18:22:07:306478,-39,-25,-3,-2,-2,10,55,-37
18:22:07:314078,-39,-25,-3,-2,-2,10,55,-37
18:22:07:321495,-30,15,4,0,-4,-9,-35,-102
18:22:07:329680,9,-7,6,-5,-2,-2,0,29
18:22:07:330443,9,-7,6,-5,-2,-2,0,29
18:22:07:336485,-15,21,-15,0,-4,-2,6,12
18:22:07:352158,-29,-19,-18,-7,-1,-6,-48,4
18:22:07:352985,-29,-19,-18,-7,-1,-6,-48,4
18:22:07:358997,24,20,3,-5,2,3,16,40
18:22:07:366477,19,-7,11,0,-4,-24,-94,-72
18:22:07:374020,19,-7,11,0,-4,-24,-94,-72
18:22:07:381566,-45,-21,-2,2,2,0,21,17
18:22:07:389675,21,-7,2,-1,-2,3,32,36
18:22:07:390468,21,-7,2,-1,-2,3,32,36
18:22:07:396455,20,25,29,7,1,5,21,11
18:22:07:412195,0,-7,-5,6,-2,-4,6,21
18:22:07:413013,0,-7,-5,6,-2,-4,6,21
18:22:07:418926,-59,-15,-37,-12,-5,-6,-40,1
18:22:07:426480,20,11,18,6,-1,-4,5,11
18:22:07:434049,20,11,18,6,-1,-4,5,11
18:22:07:441455,-14,-40,2,0,1,2,21,-7
18:22:07:449672,-7,9,2,-3,-1,4,28,14
18:22:07:450502,-7,9,2,-3,-1,4,28,14
18:22:07:456445,26,5,-1,0,-2,2,12,-4
18:22:07:472149,-15,-5,-2,-11,-4,6,28,1
18:22:07:472986,-15,-5,-2,-11,-4,6,28,1
18:22:07:478939,2,12,16,6,1,1,1,14
18:22:07:486447,9,-12,-21,-5,-4,-2,-22,7
18:22:07:494062,9,-12,-21,-5,-4,-2,-22,7
18:22:07:501484,-30,-37,-10,-6,-2,13,88,7
18:22:07:509684,0,14,6,-2,-3,-13,-44,-88
18:22:07:510493,0,14,6,-2,-3,-13,-44,-88
18:22:07:516475,16,7,-3,-1,0,5,22,19
18:22:07:532172,15,23,-24,0,2,5,12,22
18:22:07:532984,15,23,-24,0,2,5,12,22
18:22:07:538965,26,-6,8,3,6,1,-17,-14
18:22:07:546465,-2,7,2,-1,0,-11,-36,-11
18:22:07:554062,-2,7,2,-1,0,-11,-36,-11
18:22:07:561480,17,5,-13,-13,-5,14,77,41
18:22:07:569682,8,21,6,6,2,6,105,27
18:22:07:570486,8,21,6,6,2,6,105,27
18:22:07:576484,-15,-22,25,12,1,5,3,8
18:22:07:592185,-8,-21,3,1,2,0,-26,-18
18:22:07:592992,-8,-21,3,1,2,0,-26,-18
18:22:07:598991,15,4,-1,-2,-4,-6,-33,-21
18:22:07:606486,-3,-10,20,2,-3,-6,-25,2
18:22:07:614067,-3,-10,20,2,-3,-6,-25,2
18:22:07:621484,-11,13,-13,-7,-2,-13,-62,-39
18:22:07:629675,1,-6,-13,-2,0,7,15,30
18:22:07:630472,1,-6,-13,-2,0,7,15,30
18:22:07:636495,4,30,-7,9,1,-1,34,-9
18:22:07:652140,-25,-15,2,6,2,7,16,-58
18:22:07:652986,-25,-15,2,6,2,7,16,-58
18:22:07:658982,-5,-2,-7,-4,-1,0,28,-14
18:22:07:666479,-11,-23,1,-4,0,-2,5,-14
18:22:07:682312,-11,-23,1,-4,0,-2,5,-14
18:22:07:683024,3,32,7,-3,-2,1,9,-4
18:22:07:689671,4,10,-20,-12,-3,-10,-52,32
18:22:07:690443,4,10,-20,-12,-3,-10,-52,32
18:22:07:696483,-24,-18,-8,-4,-4,-1,-5,-7
18:22:07:712215,18,29,5,-1,-4,0,22,27
18:22:07:712991,18,29,5,-1,-4,0,22,27
18:22:07:718984,0,-25,2,3,3,-5,-35,1
18:22:07:734697,0,-25,2,3,3,-5,-35,1
18:22:07:735513,9,-4,3,4,-1,0,-2,0
18:22:07:741461,-9,-3,-23,-10,-2,4,15,-37
18:22:07:749728,-9,-3,-23,-10,-2,4,15,-37
18:22:07:750493,8,14,17,-1,2,3,15,-11
18:22:07:756505,11,-5,-28,-17,-3,-1,-7,8
18:22:07:772190,11,-5,-28,-17,-3,-1,-7,8
18:22:07:772988,1,-24,11,6,2,0,-11,0
18:22:07:786468,-17,1,9,3,0,-10,-68,-4
18:22:07:794688,-17,1,9,3,0,-10,-68,-4
18:22:07:795463,-8,0,-20,-5,-2,-2,2,-2
18:22:07:801479,-13,-20,2,1,-2,-3,5,14
18:22:07:809681,-13,-20,2,1,-2,-3,5,14
18:22:07:810510,8,30,2,4,2,2,11,2
18:22:07:816466,21,34,5,1,-4,-1,19,10
18:22:07:832198,21,34,5,1,-4,-1,19,10
18:22:07:832979,-5,-16,-25,-19,-4,-5,-11,-32
18:22:07:838962,22,3,12,-4,-3,-3,3,4
18:22:07:854672,22,3,12,-4,-3,-3,3,4
18:22:07:855475,2,-7,28,15,0,-5,-21,-14
18:22:07:861458,-20,-30,-3,-8,-4,-7,-6,-11
18:22:07:869694,-20,-30,-3,-8,-4,-7,-6,-11
18:22:07:870502,-17,-1,-7,0,-1,4,-2,41
18:22:07:876484,-8,20,25,7,-3,-5,-42,-20
18:22:07:892176,-8,20,25,7,-3,-5,-42,-20
18:22:07:892969,2,-5,-8,-7,-6,-4,1,17
18:22:07:898942,22,15,8,1,3,2,2,16
18:22:07:914689,22,15,8,1,3,2,2,16
18:22:07:915470,-53,-51,-9,-10,-5,-2,20,-2
18:22:07:921450,-10,3,-7,0,-5,-7,-17,-17
18:22:07:929691,-10,3,-7,0,-5,-7,-17,-17
18:22:07:930476,25,71,-19,2,-4,4,17,-14
18:22:07:943989,19,8,-3,2,1,-3,-6,-7
18:22:07:952156,19,8,-3,2,1,-3,-6,-7
18:22:07:952987,21,21,9,11,1,2,-3,15
18:22:07:958922,-65,-74,-22,0,-1,2,8,-5
18:22:07:974697,-65,-74,-22,0,-1,2,8,-5
18:22:07:975501,-28,-32,-1,-23,-1,-3,-5,4
18:22:07:981486,24,9,18,-14,-4,-2,9,-4
18:22:07:989704,24,9,18,-14,-4,-2,9,-4
18:22:07:990483,-21,44,46,15,8,8,1,-12
18:22:08:3985,16,24,12,11,4,4,9,43
18:22:08:12153,16,24,12,11,4,4,9,43
18:22:08:12979,28,-1,-8,3,-3,-1,6,7
18:22:08:18991,-16,0,-34,-24,-8,-6,-3,11
18:22:08:34707,-16,0,-34,-24,-8,-6,-3,11
18:22:08:35468,-8,-8,2,14,6,0,6,30
18:22:08:41473,20,23,-71,-18,-7,-5,-11,-16
18:22:08:49740,20,23,-71,-18,-7,-5,-11,-16
18:22:08:50442,-9,-50,-26,-8,-5,-8,-16,-18
18:22:08:64018,-40,-77,39,14,6,2,-4,-25
18:22:08:72155,-40,-77,39,14,6,2,-4,-25
18:22:08:72967,14,-35,23,2,-9,-6,0,3
18:22:08:78969,11,33,27,6,7,0,-1,-12
18:22:08:94712,11,33,27,6,7,0,-1,-12
18:22:08:95502,4,-16,-13,3,7,5,-1,-10
18:22:08:101511,31,17,-11,-7,-3,0,0,9
18:22:08:109690,31,17,-11,-7,-3,0,0,9
18:22:08:110464,14,57,45,2,3,-2,3,5
18:22:08:123959,12,1,15,-1,4,2,1,-1
18:22:08:132281,12,1,15,-1,4,2,1,-1
18:22:08:133017,-50,-43,2,-16,2,1,2,2
18:22:08:138985,-19,22,26,16,3,2,-1,3
18:22:08:154690,-19,22,26,16,3,2,-1,3
18:22:08:155490,-33,-79,10,17,2,1,-2,-17
18:22:08:161446,18,18,-2,2,-2,-4,0,34
18:22:08:169752,18,18,-2,2,-2,-4,0,34
18:22:08:170527,-3,21,-21,-1,-3,-2,-10,-14
18:22:08:183963,-1,-9,-16,4,-5,-2,1,1
18:22:08:192184,-1,-9,-16,4,-5,-2,1,1
18:22:08:192989,14,15,55,13,7,6,13,14
18:22:08:198966,6,31,-7,3,3,1,-2,-47
18:22:08:214723,6,31,-7,3,3,1,-2,-47
18:22:08:215502,32,72,-28,-7,-5,-1,0,0
18:22:08:221460,-20,-62,14,8,4,1,-1,-8
18:22:08:229713,-20,-62,14,8,4,1,-1,-8
18:22:08:230511,15,35,-15,-9,-6,-7,-30,-41
18:22:08:243976,5,2,-13,0,-9,-5,-10,1
18:22:08:252200,5,2,-13,0,-9,-5,-10,1
18:22:08:252992,-11,-32,-12,-1,-4,-1,10,19
18:22:08:258955,-63,67,16,-10,-4,-2,-1,-21
18:22:08:274699,-63,67,16,-10,-4,-2,-1,-21
18:22:08:275484,-22,-16,-10,-7,-9,-4,3,2
18:22:08:281468,25,-70,-8,-1,-3,-5,-2,20
18:22:08:289691,25,-70,-8,-1,-3,-5,-2,20
18:22:08:290487,7,38,-9,-7,-6,-7,-1,-6
18:22:08:303929,24,8,17,11,5,3,6,18
18:22:08:312238,24,8,17,11,5,3,6,18
18:22:08:312979,14,-67,-1,0,1,-1,0,21
18:22:08:318961,9,35,22,-1,2,1,-2,17
18:22:08:334692,9,35,22,-1,2,1,-2,17
18:22:08:335475,21,-17,-30,-26,-5,1,6,3
18:22:08:341448,44,31,31,8,6,6,13,12
18:22:08:349708,44,31,31,8,6,6,13,12
18:22:08:350480,-15,27,14,20,8,8,7,0
18:22:08:363946,-2,-10,-67,-14,-13,-11,-15,-36
18:22:08:372197,-2,-10,-67,-14,-13,-11,-15,-36
18:22:08:372958,5,7,20,14,1,-2,1,30
18:22:08:378979,7,2,11,10,5,2,4,16
18:22:08:394681,7,2,11,10,5,2,4,16
18:22:08:395489,-60,-63,-13,-7,-5,-7,-12,-8
18:22:08:401427,-34,-44,-44,-26,-11,-7,-9,-12
18:22:08:409687,-34,-44,-44,-26,-11,-7,-9,-12
18:22:08:410478,16,45,13,-12,4,4,-3,-7
18:22:08:423979,15,-49,3,2,0,-1,4,20
18:22:08:432170,15,-49,3,2,0,-1,4,20
18:22:08:432978,18,16,-19,3,2,-2,0,10
18:22:08:438956,-11,-7,29,1,-2,-3,0,14
18:22:08:454664,-11,-7,29,1,-2,-3,0,14
18:22:08:455467,-4,-7,28,1,-10,0,-5,-9
18:22:08:461473,-95,-61,-13,-10,-1,-4,-2,4
18:22:08:469726,-95,-61,-13,-10,-1,-4,-2,4
18:22:08:470489,-8,-12,-16,-7,-4,-5,-8,13
18:22:08:483987,32,45,21,9,1,2,1,33
18:22:08:492203,32,45,21,9,1,2,1,33
18:22:08:492938,8,31,-7,8,0,-3,2,-21
18:22:08:498944,14,12,-18,-2,0,1,4,-2
18:22:08:514713,14,12,-18,-2,0,1,4,-2
18:22:08:515450,33,23,-14,1,0,0,-1,10
18:22:08:521513,-23,-12,-35,-15,-11,-6,-2,-29
18:22:08:529690,-23,-12,-35,-15,-11,-6,-2,-29
18:22:08:530464,-8,7,-24,-13,-1,-1,8,-24
18:22:08:552842,21,13,-2,-2,-2,3,-5,-6
18:22:08:553682,21,13,-2,-2,-2,3,-5,-6
18:22:08:554446,7,-6,32,8,2,-7,-58,7
18:22:08:558959,1,-32,-6,-16,-7,-7,-3,-7
18:22:08:574716,1,-32,-6,-16,-7,-7,-3,-7
18:22:08:575490,-50,-11,-41,-22,-10,-5,11,-27
18:22:08:581461,-23,5,40,7,3,2,-2,-8
18:22:08:589705,-23,5,40,7,3,2,-2,-8
18:22:08:590544,20,43,68,15,3,1,13,9
18:22:08:603931,-4,53,-42,-27,-10,-3,8,7
18:22:08:612186,-4,53,-42,-27,-10,-3,8,7
18:22:08:612981,-8,-28,-17,5,0,-1,-3,-18
18:22:08:618970,41,12,34,21,5,0,-34,-26
18:22:08:634687,41,12,34,21,5,0,-34,-26
18:22:08:635486,-22,-64,17,-16,-1,2,4,-10
18:22:08:641493,-15,-40,37,17,6,2,13,-21
18:22:08:649714,-15,-40,37,17,6,2,13,-21
18:22:08:650498,23,2,-15,4,3,5,18,13
18:22:08:663937,27,24,-45,-5,-3,-3,-2,17
18:22:08:672176,27,24,-45,-5,-3,-3,-2,17
18:22:08:673001,28,17,-26,-7,-9,-5,4,22
18:22:08:678940,-19,-47,-21,2,-6,-6,-6,-8
18:22:08:694692,-19,-47,-21,2,-6,-6,-6,-8
18:22:08:695479,-14,-70,3,9,2,2,4,0
18:22:08:701451,25,-10,1,-5,2,1,5,14
18:22:08:709694,25,-10,1,-5,2,1,5,14
18:22:08:710476,-24,-93,3,-9,1,1,1,-40
18:22:08:732801,26,39,56,26,4,6,10,21
18:22:08:733685,26,39,56,26,4,6,10,21
18:22:08:734380,41,89,-7,-9,7,4,-5,11
18:22:08:739000,-49,-76,10,-22,-4,-3,-1,-6
18:22:08:754704,-49,-76,10,-22,-4,-3,-1,-6
18:22:08:755522,-18,-4,-34,8,-3,-6,-7,-16
18:22:08:761466,-1,10,-33,8,5,4,1,-10
18:22:08:769491,-1,10,-33,8,5,4,1,-10
18:22:08:776522,16,11,-4,-4,-4,-2,-4,-15
18:22:08:784040,11,35,-28,8,-6,-2,3,-2
18:22:08:792184,11,35,-28,8,-6,-2,3,-2
18:22:08:792946,14,-20,16,3,-3,2,7,18
18:22:08:798932,6,-22,3,14,10,5,1,9
18:22:08:814697,6,-22,3,14,10,5,1,9
18:22:08:815445,10,32,26,-8,-4,3,6,0
18:22:08:821508,-3,-26,15,3,3,-2,-6,21
18:22:08:829683,-3,-26,15,3,3,-2,-6,21
18:22:08:830457,-18,20,-25,-7,-5,-3,-5,-12
18:22:08:843978,-33,-47,14,-11,-3,-1,0,-7
18:22:08:852137,-33,-47,14,-11,-3,-1,0,-7
18:22:08:852964,-8,2,15,16,1,-2,-1,21
18:22:08:866464,-2,4,8,2,-6,-5,3,11
18:22:08:874694,-2,4,8,2,-6,-5,3,11
18:22:08:875519,-6,-21,-2,-7,0,0,-6,21
18:22:08:881478,5,102,-28,-13,-3,-2,-9,-25
18:22:08:889025,5,102,-28,-13,-3,-2,-9,-25
18:22:08:896506,0,-15,-28,-11,-3,-2,6,9
18:22:08:904006,-3,-22,-11,-13,-4,-3,0,12
18:22:08:912178,-3,-22,-11,-13,-4,-3,0,12
18:22:08:913003,-2,-44,-7,-21,-4,-4,3,27
18:22:08:926945,18,-27,35,7,2,5,2,-10
18:22:08:934678,18,-27,35,7,2,5,2,-10
18:22:08:935453,-31,-30,-33,4,-3,-4,-4,-5
18:22:08:941509,2,38,10,6,-2,-3,-2,-15
18:22:08:948973,2,38,10,6,-2,-3,-2,-15
18:22:08:956453,8,19,11,3,0,3,5,-12
18:22:08:963968,24,72,-29,-6,-5,-3,-3,-6
18:22:08:972183,24,72,-29,-6,-5,-3,-3,-6
18:22:08:972988,-10,9,11,12,3,-1,-15,-14
18:22:08:986494,2,3,6,-13,0,1,7,19
18:22:08:994700,2,3,6,-13,0,1,7,19
18:22:08:995461,7,19,-8,1,0,-1,4,-7
18:22:09:1434,14,-30,-32,-9,-2,-3,-3,-5
18:22:09:9024,14,-30,-32,-9,-2,-3,-3,-5
18:22:09:16465,8,-45,27,4,2,-1,1,-23
18:22:09:23982,1,41,41,9,6,1,-1,-1
18:22:09:32197,1,41,41,9,6,1,-1,-1
18:22:09:32982,-4,20,-50,-23,-6,-4,-6,-18
18:22:09:46454,-10,-23,32,2,-3,0,-5,-23
18:22:09:54723,-10,-23,32,2,-3,0,-5,-23
18:22:09:55458,24,34,44,19,-2,3,3,-4
18:22:09:61483,-26,-69,2,-7,-7,-10,-12,17
18:22:09:69032,-26,-69,2,-7,-7,-10,-12,17
18:22:09:76475,17,73,61,34,12,6,9,30
18:22:09:83962,-6,-32,-25,-10,1,2,4,16
18:22:09:92203,-6,-32,-25,-10,1,2,4,16
18:22:09:93016,-4,-4,32,16,7,-1,-4,12
18:22:09:106476,-18,-26,-48,-12,2,5,4,2
18:22:09:114690,-18,-26,-48,-12,2,5,4,2
18:22:09:115488,-24,-44,-43,-29,-11,-4,-1,3
18:22:09:121456,-4,-10,17,2,1,-2,-7,2
18:22:09:129063,-4,-10,17,2,1,-2,-7,2
18:22:09:136480,11,18,-27,-17,-10,-7,-6,-13
18:22:09:143995,8,-4,-17,27,3,2,3,-3
18:22:09:152169,8,-4,-17,27,3,2,3,-3
18:22:09:152969,14,-5,7,-5,-2,-2,3,24
18:22:09:166469,-4,64,36,4,1,-1,-2,-11
18:22:09:174714,-4,64,36,4,1,-1,-2,-11
18:22:09:175487,-11,-4,-10,-2,0,-1,-3,-8
18:22:09:181484,-6,-25,9,15,4,3,4,0
18:22:09:188986,-6,-25,9,15,4,3,4,0
18:22:09:196498,1,-8,-29,-19,-7,-2,-2,4
18:22:09:203993,10,0,19,12,4,2,3,-5
18:22:09:212199,10,0,19,12,4,2,3,-5
18:22:09:212962,14,36,15,18,3,4,10,5
18:22:09:226477,-14,-98,-22,-20,-10,-6,-11,-30
18:22:09:234697,-14,-98,-22,-20,-10,-6,-11,-30
18:22:09:235443,-15,-35,53,17,5,2,-1,-2
18:22:09:241523,16,21,-11,7,1,1,0,19
18:22:09:248995,16,21,-11,7,1,1,0,19
18:22:09:256445,-2,-21,-26,-25,-5,-6,-6,-15
18:22:09:263942,15,-5,-30,0,-4,-9,-14,-46
18:22:09:272202,15,-5,-30,0,-4,-9,-14,-46
18:22:09:272995,-38,-51,-57,-15,-5,-4,-8,-17
18:22:09:286491,12,35,-48,-6,-1,3,4,12
18:22:09:294703,12,35,-48,-6,-1,3,4,12
18:22:09:295460,5,15,-14,-9,1,-1,-2,-17
18:22:09:301453,-8,-20,-1,2,-5,-5,-1,1
18:22:09:309032,-8,-20,-1,2,-5,-5,-1,1
18:22:09:316478,7,10,4,11,5,3,4,23
18:22:09:323942,8,80,76,-11,-6,-2,5,-17
18:22:09:332205,8,80,76,-11,-6,-2,5,-17
18:22:09:333004,-6,-28,-21,-10,-11,-9,-19,-22
18:22:09:346458,-11,-69,15,3,17,9,18,47
18:22:09:354693,-11,-69,15,3,17,9,18,47
18:22:09:355488,0,25,10,5,-4,-6,-8,-9
18:22:09:361495,22,46,-29,20,-1,2,3,0
18:22:09:369052,22,46,-29,20,-1,2,3,0
18:22:09:376476,3,-67,23,-4,-3,-5,-2,11
18:22:09:383991,-15,-12,-14,4,-4,-8,-7,-7
18:22:09:392229,-15,-12,-14,4,-4,-8,-7,-7
18:22:09:393032,19,64,14,1,1,4,4,9
18:22:09:406429,9,-30,15,-4,-3,-2,-1,2
18:22:09:414736,9,-30,15,-4,-3,-2,-1,2
18:22:09:415486,-3,13,26,-4,-3,-3,-5,-26
18:22:09:421481,-59,-12,-19,-16,-9,-7,-13,-11
18:22:09:429062,-59,-12,-19,-16,-9,-7,-13,-11
18:22:09:436493,16,82,-1,8,3,4,7,26
18:22:09:443984,22,-40,11,-4,-3,3,8,9
18:22:09:452144,22,-40,11,-4,-3,3,8,9
18:22:09:452962,3,11,4,19,4,0,3,5
18:22:09:466490,-2,-35,-11,-4,0,0,2,19
18:22:09:474728,-2,-35,-11,-4,0,0,2,19
18:22:09:475574,-1,-26,9,-9,-5,-6,-9,1
18:22:09:481481,-7,20,-93,-43,-2,-3,-4,-11
18:22:09:489000,-7,20,-93,-43,-2,-3,-4,-11
18:22:09:496495,-10,-32,-13,-5,-1,2,7,15
18:22:09:504003,2,-27,52,17,1,2,1,-18
18:22:09:512172,2,-27,52,17,1,2,1,-18
18:22:09:512969,-4,19,14,-2,3,7,6,34
18:22:09:526485,16,13,-15,-7,0,1,-4,-3
18:22:09:534706,16,13,-15,-7,0,1,-4,-3
18:22:09:535462,-21,-34,-14,-1,1,0,5,1
18:22:09:541487,11,29,4,6,-1,0,0,10
18:22:09:557221,11,29,4,6,-1,0,0,10
18:22:09:557997,-24,21,-15,-4,-2,-2,-3,8
18:22:09:563985,-19,-5,27,14,4,1,-1,-20
18:22:09:572144,-19,-5,27,14,4,1,-1,-20
18:22:09:572986,26,-2,-47,-15,-6,-2,-1,-4
18:22:09:586502,-8,56,-31,-6,-10,-11,-12,-1
18:22:09:594738,-8,56,-31,-6,-10,-11,-12,-1
18:22:09:595456,5,18,44,29,13,0,0,-13
18:22:09:601507,-31,-21,28,17,2,0,-2,-27
18:22:09:609017,-31,-21,28,17,2,0,-2,-27
18:22:09:616449,-18,-83,-32,-16,-7,-5,-8,-5
18:22:09:624016,23,7,-2,-7,1,1,-1,-4
18:22:09:632185,23,7,-2,-7,1,1,-1,-4
18:22:09:632960,12,28,44,10,0,3,4,-38
18:22:09:646478,-52,-27,-17,-13,-5,-1,-1,17
18:22:09:654706,-52,-27,-17,-13,-5,-1,-1,17
18:22:09:655452,2,33,-14,-17,-12,-6,0,13
18:22:09:669691,31,35,30,13,1,-3,-22,27
18:22:09:670371,31,35,30,13,1,-3,-22,27
18:22:09:676504,21,40,-11,10,3,3,5,-1
18:22:09:683977,5,17,-13,-23,-8,-5,2,-7
18:22:09:692162,5,17,-13,-23,-8,-5,2,-7
18:22:09:692957,7,-2,11,-10,1,1,2,5
18:22:09:706490,-1,-26,-14,-15,-7,-2,-1,21
18:22:09:714679,-1,-26,-14,-15,-7,-2,-1,21
18:22:09:715456,-6,29,20,2,2,1,-5,-21
18:22:09:721475,-23,-38,-41,-6,3,-2,0,5
18:22:09:729024,-23,-38,-41,-6,3,-2,0,5
18:22:09:736446,-16,-85,25,9,-1,-2,-4,-12
18:22:09:743956,36,20,28,6,2,3,7,16
18:22:09:751927,36,20,28,6,2,3,7,16
18:22:09:758936,-29,-103,7,27,3,3,-2,-4
18:22:09:766470,-14,20,1,6,-9,-5,0,-6
18:22:09:774727,-14,20,1,6,-9,-5,0,-6
18:22:09:775484,10,20,27,7,3,5,2,-13
18:22:09:781459,47,32,11,-4,1,1,3,-10
18:22:09:797189,47,32,11,-4,1,1,3,-10
18:22:09:797961,1,11,-14,-20,-9,-4,2,-3
18:22:09:803966,6,-7,-1,-3,-1,3,3,-5
18:22:09:811506,6,-7,-1,-3,-1,3,3,-5
18:22:09:818956,5,-58,-30,-12,-1,-4,-2,14
18:22:09:826460,-21,-13,16,26,0,0,-1,-8
18:22:09:834728,-21,-13,16,26,0,0,-1,-8
18:22:09:835491,-17,-37,-59,-12,-1,0,-2,0
18:22:09:849701,-22,-12,-8,-6,-1,-2,-2,-12
18:22:09:850485,-22,-12,-8,-6,-1,-2,-2,-12
18:22:09:856503,-9,22,-27,-13,-11,-5,-2,-3
18:22:09:863967,21,14,15,7,3,1,0,11
18:22:09:871534,21,14,15,7,3,1,0,11
18:22:09:878982,-22,-3,-7,-7,-4,1,1,-14
18:22:09:886493,3,-16,22,15,2,2,4,11
18:22:09:894719,3,-16,22,15,2,2,4,11
18:22:09:895476,8,-7,24,10,5,2,3,15
18:22:09:909706,13,9,4,-14,-2,-3,4,8
18:22:09:910531,13,9,4,-14,-2,-3,4,8
18:22:09:916457,1,25,18,6,1,-1,-2,5
18:22:09:923983,-11,-30,5,-3,0,0,2,2
18:22:09:931511,-11,-30,5,-3,0,0,2,2
18:22:09:938998,-42,-56,4,-9,-4,-7,-4,-11
18:22:09:946472,1,-3,7,6,1,-3,-8,3
18:22:09:962207,1,-3,7,6,1,-3,-8,3
18:22:09:962988,34,89,37,-27,-1,2,2,20
18:22:09:969627,-14,-42,-56,-16,-4,-7,-6,-21
18:22:09:970467,-14,-42,-56,-16,-4,-7,-6,-21
18:22:09:976478,7,12,17,-7,-4,-5,-5,4
18:22:09:983975,30,41,27,4,2,3,-1,0
18:22:09:991494,30,41,27,4,2,3,-1,0
18:22:09:998990,-26,11,-9,-1,1,-1,-7,-5
18:22:10:6486,-34,-94,20,5,2,-1,-1,-16
18:22:10:14693,-34,-94,20,5,2,-1,-1,-16
18:22:10:15461,4,9,-12,6,-2,-2,2,14
18:22:10:29700,4,18,-40,-2,-6,-2,-2,-11
18:22:10:30459,4,18,-40,-2,-6,-2,-2,-11
18:22:10:36459,12,9,73,-3,1,1,1,-6
18:22:10:43917,-26,-17,17,1,3,0,-6,-30
18:22:10:51509,-26,-17,17,1,3,0,-6,-30
18:22:10:58959,55,3,-29,4,1,1,1,0
18:22:10:66454,-6,20,-35,-10,-4,-1,1,0
18:22:10:74718,-6,20,-35,-10,-4,-1,1,0
18:22:10:75455,1,22,-83,-19,0,-1,-3,-16
18:22:10:89716,-6,-9,54,-7,-2,0,1,8
18:22:10:90497,-6,-9,54,-7,-2,0,1,8
18:22:10:96438,-6,-18,64,35,2,2,7,19
18:22:10:103963,44,70,12,13,-1,2,2,16
18:22:10:111533,44,70,12,13,-1,2,2,16
18:22:10:118983,-39,-91,-9,-8,1,0,-4,-5
18:22:10:126482,-64,-36,2,1,-1,0,2,-6
18:22:10:134722,-64,-36,2,1,-1,0,2,-6
18:22:10:135504,-7,29,-10,-20,-5,-1,0,-2
18:22:10:149710,20,-4,11,-2,-3,-2,1,12
18:22:10:150505,20,-4,11,-2,-3,-2,1,12
18:22:10:156472,5,-14,14,14,0,-1,-4,-8
18:22:10:163968,-5,-64,0,-19,-5,-2,-3,-7
18:22:10:171525,-5,-64,0,-19,-5,-2,-3,-7
18:22:10:178978,13,32,33,18,-1,-1,-6,-18
18:22:10:186474,6,-13,16,20,1,1,1,11
18:22:10:194738,6,-13,16,20,1,1,1,11
18:22:10:195439,-11,-22,-60,-5,-4,-4,-4,-7
18:22:10:209718,1,49,1,15,9,4,7,1
18:22:10:210503,1,49,1,15,9,4,7,1
18:22:10:216475,18,14,1,32,11,8,8,12
18:22:10:223994,8,-8,14,-17,-12,-6,-1,1
18:22:10:239709,8,-8,14,-17,-12,-6,-1,1
18:22:10:240472,-11,-46,-61,-33,-8,-6,-6,-11
18:22:10:246469,-2,-17,-9,-7,-4,1,2,-1
18:22:10:254704,-2,-17,-9,-7,-4,1,2,-1
18:22:10:255505,0,6,17,-1,-9,-6,-2,9
18:22:10:269718,32,26,-41,-21,-7,-4,-8,-6
18:22:10:270505,32,26,-41,-21,-7,-4,-8,-6
18:22:10:276463,-5,3,5,3,0,-2,-7,-46
18:22:10:283964,-3,27,-44,-18,-6,-6,-7,-27
18:22:10:291520,-3,27,-44,-18,-6,-6,-7,-27
18:22:10:298988,19,14,24,3,1,1,3,17
18:22:10:306474,-8,-52,-16,-8,2,1,11,6
18:22:10:314712,-8,-52,-16,-8,2,1,11,6
18:22:10:315451,6,3,1,6,-3,-1,-4,1
18:22:10:329401,-25,4,-1,14,3,3,-4,-9
18:22:10:337221,-25,4,-1,14,3,3,-4,-9
18:22:10:337985,-6,-13,-48,-25,1,-1,0,14
18:22:10:344001,5,-15,10,11,2,0,3,2
18:22:10:351498,5,-15,10,11,2,0,3,2
18:22:10:358991,-19,-28,-29,14,5,1,-3,4
18:22:10:366490,4,-7,-72,-45,-13,-5,-5,13
18:22:10:374718,4,-7,-72,-45,-13,-5,-5,13
18:22:10:375450,-13,-2,-1,-5,-11,-10,-13,-13
18:22:10:389670,12,12,32,17,3,2,-1,17
18:22:10:390470,12,12,32,17,3,2,-1,17
18:22:10:396511,5,103,17,-1,7,5,7,9
18:22:10:404011,-7,-18,-38,-40,-12,-6,-7,-5
18:22:10:411503,-7,-18,-38,-40,-12,-6,-7,-5
18:22:10:418953,14,37,50,14,0,0,3,4
18:22:10:426455,-16,-22,78,34,11,5,15,16
18:22:10:434698,-16,-22,78,34,11,5,15,16
18:22:10:435464,11,-34,-24,-12,-6,-2,23,-22
18:22:10:449705,-14,41,-12,-12,-6,-4,-7,-33
18:22:10:450500,-14,41,-12,-12,-6,-4,-7,-33
18:22:10:456475,14,31,34,9,1,2,3,2
18:22:10:464015,16,-22,31,16,2,-1,-15,0
18:22:10:471538,16,-22,31,16,2,-1,-15,0
18:22:10:478958,28,38,-3,-45,-7,-3,-9,11
18:22:10:486486,-23,-29,16,2,-1,-3,-7,-3
18:22:10:494728,-23,-29,16,2,-1,-3,-7,-3
18:22:10:495501,-16,-49,-52,-34,-9,-1,19,12
18:22:10:509717,-16,0,12,14,4,-1,-19,-9
18:22:10:510485,-16,0,12,14,4,-1,-19,-9
18:22:10:516471,-12,-40,8,16,0,-6,-39,-10
18:22:10:523967,-2,-16,-20,1,3,9,32,9
18:22:10:531524,-2,-16,-20,1,3,9,32,9
18:22:10:538959,-20,4,33,23,3,6,50,15
18:22:10:546471,-6,22,10,6,3,14,32,-40
18:22:10:554733,-6,22,10,6,3,14,32,-40
18:22:10:555497,-10,-98,27,13,3,-1,-21,-26
18:22:10:569742,13,32,-6,-8,0,-2,-45,15
18:22:10:570505,13,32,-6,-8,0,-2,-45,15
18:22:10:576473,-5,33,-6,18,9,-1,3,2
18:22:10:583940,-23,-42,-12,-20,-6,-6,8,-8
18:22:10:591503,-23,-42,-12,-20,-6,-6,8,-8
18:22:10:598963,5,-19,-18,-9,-6,-14,-51,-8
18:22:10:606482,13,38,0,10,-1,3,51,12
18:22:10:614761,13,38,0,10,-1,3,51,12
18:22:10:615463,-13,-16,5,9,3,-1,-22,3
18:22:10:629710,4,-73,-17,-5,-9,-10,-30,-58
18:22:10:630488,4,-73,-17,-5,-9,-10,-30,-58
18:22:10:636471,-8,-9,27,4,-1,-4,8,11
18:22:10:643977,15,-5,-68,-28,-9,-16,-3,37
18:22:10:651479,15,-5,-68,-28,-9,-16,-3,37
18:22:10:658984,-33,-47,-2,4,-1,9,52,24
18:22:10:666502,11,-9,25,1,4,7,52,19
18:22:10:674719,11,-9,25,1,4,7,52,19
18:22:10:675458,10,28,2,3,7,4,4,-15
18:22:10:690107,6,21,23,16,3,-6,-59,6
18:22:10:690944,6,21,23,16,3,-6,-59,6
18:22:10:696515,-11,-77,-16,-1,-5,10,33,-23
18:22:10:703982,36,61,8,-7,6,2,25,9
18:22:10:711509,36,61,8,-7,6,2,25,9
18:22:10:718927,-17,19,16,11,4,5,-12,3
18:22:10:726444,-12,-43,-33,-21,-11,-20,-66,-9
18:22:10:734757,-12,-43,-33,-21,-11,-20,-66,-9
18:22:10:735482,-11,-29,-36,-3,0,6,21,8
18:22:10:749773,-19,12,12,14,11,8,2,24
18:22:10:750496,-19,12,12,14,11,8,2,24
18:22:10:756489,11,-10,-20,-2,-9,-10,-28,6
18:22:10:772151,27,-1,7,17,0,-13,-104,-19
18:22:10:772966,27,-1,7,17,0,-13,-104,-19
18:22:10:778915,17,1,-11,-12,-6,-8,1,5
18:22:10:786470,0,4,7,-7,-3,4,35,4
18:22:10:794015,0,4,7,-7,-3,4,35,4
18:22:10:801440,21,5,12,-6,2,1,23,10
18:22:10:809762,-27,-40,-3,4,2,1,-25,5
18:22:10:810498,-27,-40,-3,4,2,1,-25,5
18:22:10:816486,6,33,-9,2,0,6,7,-10
18:22:10:832186,8,-4,39,16,8,11,50,26
18:22:10:832982,8,-4,39,16,8,11,50,26
18:22:10:838961,-28,-3,4,8,2,-12,-71,-19
18:22:10:846431,-13,-11,0,1,-5,1,1,-50
18:22:10:854064,-13,-11,0,1,-5,1,1,-50
18:22:10:861485,-4,58,30,0,-2,1,6,-18
18:22:10:869699,-13,15,-40,-9,-2,4,35,16
18:22:10:870532,-13,15,-40,-9,-2,4,35,16
18:22:10:876485,6,-28,-44,-25,-9,-4,-7,4
18:22:10:892180,41,75,19,18,5,6,34,14
18:22:10:892965,41,75,19,18,5,6,34,14
18:22:10:898975,38,31,28,10,3,5,4,44
18:22:10:906467,4,-23,-16,-14,-9,-1,-7,-12
18:22:10:914058,4,-23,-16,-14,-9,-1,-7,-12
18:22:10:921494,6,-26,-25,-32,-9,-2,7,-2
18:22:10:929711,-19,-2,33,-13,-2,-4,3,2
18:22:10:930508,-19,-2,33,-13,-2,-4,3,2
18:22:10:936493,13,55,-4,10,0,-1,0,5
18:22:10:952191,-33,-39,-20,-6,-7,-11,-22,-34
18:22:10:953017,-33,-39,-20,-6,-7,-11,-22,-34
18:22:10:959013,-26,-64,2,-1,0,-7,5,4
18:22:10:966472,-46,-28,-44,-9,2,16,57,21
18:22:10:974077,-46,-28,-44,-9,2,16,57,21
18:22:10:981466,6,12,15,0,-2,0,5,-5
18:22:10:989644,24,1,29,-3,-5,-5,-4,21
18:22:10:990472,24,1,29,-3,-5,-5,-4,21
18:22:10:996434,3,54,13,4,1,2,-1,-23
18:22:11:12141,18,27,-19,14,3,-1,-14,-14
18:22:11:12980,18,27,-19,14,3,-1,-14,-14
18:22:11:18996,22,-12,-41,1,0,0,8,3
18:22:11:26470,12,14,14,10,3,0,2,10
18:22:11:34012,12,14,14,10,3,0,2,10
18:22:11:41449,-2,15,4,1,4,6,18,2
18:22:11:49715,11,15,-10,4,3,0,-3,2
18:22:11:50486,11,15,-10,4,3,0,-3,2
18:22:11:56449,-5,26,42,12,2,-2,-7,-9
18:22:11:72154,-18,-7,-17,-5,-2,-4,-4,-45
18:22:11:72952,-18,-7,-17,-5,-2,-4,-4,-45
18:22:11:78936,-23,-33,-32,-19,-6,-3,12,-12
18:22:11:86513,10,6,50,6,7,1,-7,5
18:22:11:94013,10,6,50,6,7,1,-7,5
18:22:11:101458,9,1,41,11,-1,-2,-24,9
18:22:11:109708,-6,-33,-31,-26,-10,-7,-2,-2
18:22:11:110488,-6,-33,-31,-26,-10,-7,-2,-2
18:22:11:116449,-7,14,45,-1,-2,-4,10,8
18:22:11:132171,-10,-18,-12,-8,-5,-12,-66,-36
18:22:11:132993,-10,-18,-12,-8,-5,-12,-66,-36
18:22:11:138959,-38,12,-26,11,6,7,12,-8
18:22:11:146453,-13,-22,3,5,-2,2,25,2
18:22:11:154035,-13,-22,3,5,-2,2,25,2
18:22:11:161482,-2,-37,-19,-6,-5,-8,-35,-10
18:22:11:169708,-3,-16,1,10,3,0,2,14
18:22:11:170476,-3,-16,1,10,3,0,2,14
18:22:11:176513,-7,-87,-36,-27,-10,-7,-9,-3
18:22:11:192175,20,0,-2,-10,-2,7,24,16
18:22:11:192996,20,0,-2,-10,-2,7,24,16
18:22:11:198964,-38,-67,-21,0,-1,0,36,-14
18:22:11:206446,7,30,-10,4,1,4,0,-21
18:22:11:214052,7,30,-10,4,1,4,0,-21
18:22:11:221478,8,-21,28,7,2,2,0,29
18:22:11:229620,3,4,42,8,-1,-1,14,17
18:22:11:230452,3,4,42,8,-1,-1,14,17
18:22:11:236485,22,61,-1,-4,-7,-14,-42,-11
18:22:11:252193,1,8,5,-1,0,-7,-19,13
18:22:11:253013,1,8,5,-1,0,-7,-19,13
18:22:11:258967,13,-12,-20,-3,2,6,4,1
18:22:11:266464,-7,-7,-37,-24,-6,-5,1,6
18:22:11:274015,-7,-7,-37,-24,-6,-5,1,6
18:22:11:281505,29,19,27,17,4,2,14,7
18:22:11:289682,-14,-41,16,10,-5,-2,8,28
18:22:11:290489,-14,-41,16,10,-5,-2,8,28
18:22:11:296462,1,17,-18,-14,-4,0,16,-17
18:22:11:312141,10,23,17,1,1,1,13,37
18:22:11:312982,10,23,17,1,1,1,13,37
18:22:11:318996,38,75,5,8,8,6,-3,21
18:22:11:326508,3,-21,3,10,1,6,24,8
18:22:11:334037,3,-21,3,10,1,6,24,8
18:22:11:341445,-24,-57,-14,4,2,-5,-22,-2
18:22:11:349717,4,16,-35,2,0,-7,-17,-28
18:22:11:350476,4,16,-35,2,0,-7,-17,-28
18:22:11:356445,-9,-80,21,9,-5,-6,-20,2
18:22:11:372177,24,-11,2,3,-2,-9,-79,3
18:22:11:373012,24,-11,2,3,-2,-9,-79,3
18:22:11:378967,29,78,-15,10,9,1,-41,-17
18:22:11:386474,-20,2,-77,-34,-3,3,20,-9
18:22:11:394008,-20,2,-77,-34,-3,3,20,-9
18:22:11:401444,-5,-36,-10,-12,-7,-1,7,14
18:22:11:409714,13,38,31,18,2,0,-3,-4
18:22:11:410493,13,38,31,18,2,0,-3,-4
18:22:11:416510,-46,-43,-41,-15,-4,3,18,-11
18:22:11:432165,-23,-83,1,2,-3,-10,-23,-6
18:22:11:432977,-23,-83,1,2,-3,-10,-23,-6
18:22:11:438983,-57,-88,-45,-15,-11,-8,-6,-9
18:22:11:446428,14,12,29,3,-1,5,29,-43
18:22:11:454057,14,12,29,3,-1,5,29,-43
18:22:11:461498,-6,-53,68,21,3,-1,-15,15
18:22:11:469769,4,19,14,2,2,3,-3,-39
18:22:11:470542,4,19,14,2,2,3,-3,-39
18:22:11:476482,15,35,-25,-24,-9,-4,1,-1
18:22:11:492164,13,5,12,0,1,1,8,31
18:22:11:492992,13,5,12,0,1,1,8,31
18:22:11:498970,12,25,15,4,1,1,-61,-47
18:22:11:506466,-1,-6,1,-3,-6,-1,10,25
18:22:11:514052,-1,-6,1,-3,-6,-1,10,25
18:22:11:521447,-10,-4,-26,-10,-1,-4,-33,14
18:22:11:529634,-14,-2,19,0,1,0,-5,-22
18:22:11:530451,-14,-2,19,0,1,0,-5,-22
18:22:11:536482,18,27,2,0,-5,-3,25,11
18:22:11:552216,-48,3,-31,-8,0,-1,1,-7
18:22:11:553002,-48,3,-31,-8,0,-1,1,-7
18:22:11:559007,8,-32,22,13,2,4,47,26
18:22:11:566464,33,-15,1,3,-6,-5,-7,-30
18:22:11:574003,33,-15,1,3,-6,-5,-7,-30
18:22:11:581511,-7,-1,11,-3,-3,-8,-32,-12
18:22:11:589659,-8,-7,-20,-12,-1,3,8,-3
18:22:11:590489,-8,-7,-20,-12,-1,3,8,-3
18:22:11:596481,2,15,-1,-7,0,4,27,12
18:22:11:612138,2,15,20,10,6,0,-10,5
18:22:11:612961,2,15,20,10,6,0,-10,5
18:22:11:618996,-21,7,-4,-9,-5,-3,6,-17
18:22:11:626496,3,12,9,-1,1,4,7,27
18:22:11:634016,3,12,9,-1,1,4,7,27
18:22:11:641447,49,120,26,3,2,5,29,4
18:22:11:649750,49,120,26,3,2,5,29,4
18:22:11:650471,2,-31,-22,-21,-1,3,29,14
18:22:11:656473,20,33,55,12,0,0,-6,-6
18:22:11:672173,20,33,55,12,0,0,-6,-6
18:22:11:673026,-16,6,-20,-1,-5,-5,-10,8
18:22:11:678966,-12,-18,-12,-2,1,6,19,10
18:22:11:694735,-12,-18,-12,-2,1,6,19,10
18:22:11:695464,29,0,11,8,-1,-9,-37,-35
18:22:11:701501,-30,-69,-7,1,-2,-7,-20,-10
18:22:11:709734,-30,-69,-7,1,-2,-7,-20,-10
18:22:11:710466,-22,12,2,5,3,9,23,11
18:22:11:723995,13,16,-9,-7,-9,-7,-33,7
18:22:11:732185,13,16,-9,-7,-9,-7,-33,7
18:22:11:732967,-26,-41,-77,-23,-8,-6,-12,-2
18:22:11:739005,-18,-21,23,3,-2,-1,19,1
18:22:11:754731,-18,-21,23,3,-2,-1,19,1
18:22:11:755387,14,23,25,15,2,6,17,25
18:22:11:761497,17,25,20,3,1,1,6,-10
18:22:11:769735,17,25,20,3,1,1,6,-10
18:22:11:770480,-60,-95,5,2,-2,-5,-18,-13
18:22:11:784012,-51,-25,-1,5,-4,-6,-6,-26
18:22:11:792150,-51,-25,-1,5,-4,-6,-6,-26
18:22:11:792970,15,-19,-2,-9,-5,-3,12,-3
18:22:11:799000,28,38,11,12,7,4,-14,9
18:22:11:814753,28,38,11,12,7,4,-14,9
18:22:11:815490,3,-1,-1,-9,-6,-3,-10,-30
18:22:11:821500,-5,-33,-36,-9,-2,3,1,17
18:22:11:829735,-5,-33,-36,-9,-2,3,1,17
18:22:11:830398,-9,18,-15,-5,-1,-5,-12,14
18:22:11:843975,11,-55,-31,-14,-7,-7,15,22
18:22:11:852233,11,-55,-31,-14,-7,-7,15,22
18:22:11:853013,31,21,91,31,12,10,17,15
18:22:11:858985,-3,14,-21,-27,-8,-3,6,-3
18:22:11:874723,-3,14,-21,-27,-8,-3,6,-3
18:22:11:875487,11,13,11,11,0,-5,15,-9
18:22:11:881466,13,-1,3,6,6,-9,-76,-43
18:22:11:890354,13,-1,3,6,6,-9,-76,-43
18:22:11:891175,-2,11,-22,-2,-2,1,-29,-21
18:22:11:903980,22,22,-21,1,4,6,26,14
18:22:11:912204,22,22,-21,1,4,6,26,14
18:22:11:913004,8,5,-15,0,3,4,13,4
18:22:11:919006,10,-4,-10,-2,-3,4,31,-5
18:22:11:934733,10,-4,-10,-2,-3,4,31,-5
18:22:11:935479,11,-24,-12,-16,-6,0,7,-6
18:22:11:941479,-38,-13,43,9,1,2,2,11
18:22:11:949735,-38,-13,43,9,1,2,2,11
18:22:11:950488,15,46,-17,-1,-5,-6,-7,12
18:22:11:963942,20,9,-8,10,5,6,10,10
18:22:11:972212,20,9,-8,10,5,6,10,10
18:22:11:973002,-12,-7,25,12,2,-1,-20,-3
18:22:11:978970,-14,-38,-3,-3,-6,-2,14,-6
18:22:12:11720,-14,-38,-3,-3,-6,-2,14,-6
18:22:12:12494,0,6,-21,-11,-1,-3,13,18
18:22:12:13279,-2,-8,-5,-6,-6,-4,-13,-2
18:22:12:14092,-2,-8,-5,-6,-6,-4,-13,-2
18:22:12:16508,-19,-81,41,-5,-2,-7,28,20
18:22:12:24006,-2,17,-42,-7,-1,-6,-50,-47
18:22:12:32195,-2,17,-42,-7,-1,-6,-50,-47
18:22:12:32943,-4,68,27,0,0,0,-16,-4
18:22:12:38944,15,33,14,2,0,2,8,15
18:22:12:62879,15,33,14,2,0,2,8,15
18:22:12:63712,18,0,10,4,-1,0,-4,0
18:22:12:64433,3,19,0,1,1,4,18,10
18:22:12:69709,3,19,0,1,1,4,18,10
18:22:12:70499,31,20,-11,-9,-1,9,47,48
18:22:12:83974,-2,-17,21,-3,0,-1,13,34
18:22:12:92238,-2,-17,21,-3,0,-1,13,34
18:22:12:93013,-15,-26,-32,-1,-1,-1,-23,-7
18:22:12:106469,-46,-35,22,0,-3,-5,-18,-39
18:22:12:114766,-46,-35,22,0,-3,-5,-18,-39
18:22:12:115474,1,60,-8,-10,-4,-16,-82,-83
18:22:12:121491,-7,-46,-34,7,0,-1,13,3
18:22:12:129722,-7,-46,-34,7,0,-1,13,3
18:22:12:130483,-36,-49,-13,-1,-5,-1,12,-10
18:22:12:143942,0,2,-1,6,0,-1,15,28
18:22:12:152230,0,2,-1,6,0,-1,15,28
18:22:12:153017,41,61,10,1,6,3,17,3
18:22:12:158992,18,15,19,6,5,9,29,-9
18:22:12:174734,18,15,19,6,5,9,29,-9
18:22:12:175449,-38,-28,-50,-24,-5,-3,-12,-6
18:22:12:181484,0,24,12,3,-3,0,2,-27
18:22:12:189707,0,24,12,3,-3,0,2,-27
18:22:12:190530,-25,-17,17,3,-4,-2,-14,-51
18:22:12:203982,10,31,-3,7,9,5,1,14
18:22:12:212167,10,31,-3,7,9,5,1,14
18:22:12:212975,6,-23,-29,-4,-7,-4,4,18
18:22:12:218954,12,-4,3,3,-1,-2,-1,0
18:22:12:234722,12,-4,3,3,-1,-2,-1,0
18:22:12:235465,3,21,-26,5,1,1,-15,6
18:22:12:241458,24,-1,5,-6,-7,-8,-14,14
18:22:12:249748,24,-1,5,-6,-7,-8,-14,14
18:22:12:250483,-9,-52,45,15,3,2,1,21
18:22:12:264003,45,80,-52,-20,-5,-5,-7,-5
18:22:12:272188,45,80,-52,-20,-5,-5,-7,-5
18:22:12:272947,-22,-46,-14,-3,-1,-1,8,-14
18:22:12:286527,-18,-36,21,-9,-4,1,9,-13
18:22:12:294727,-18,-36,21,-9,-4,1,9,-13
18:22:12:295476,22,8,11,10,1,2,5,39
18:22:12:301475,8,-9,-1,-1,-2,-6,-11,9
18:22:12:310092,8,-9,-1,-1,-2,-6,-11,9
18:22:12:316468,-14,10,8,3,0,1,7,6
18:22:12:323977,-29,-16,3,-11,-3,-3,-12,-6
18:22:12:332205,-29,-16,3,-11,-3,-3,-12,-6
18:22:12:333001,-2,28,-38,-23,-8,-5,0,-12
18:22:12:338949,7,8,-12,-2,-6,-2,-6,-15
18:22:12:354752,7,8,-12,-2,-6,-2,-6,-15
18:22:12:355483,-15,-68,27,11,6,4,2,6
18:22:12:361478,-10,-36,15,9,0,0,-3,8
18:22:12:369741,-10,-36,15,9,0,0,-3,8
18:22:12:370484,-1,14,2,-8,-2,-5,-7,-1
18:22:12:384426,1,-4,-4,8,4,2,4,5
18:22:12:392178,1,-4,-4,8,4,2,4,5
18:22:12:392997,-3,44,2,-7,-3,0,0,-9
18:22:12:398940,13,-4,0,3,3,1,0,13
18:22:12:414742,13,-4,0,3,3,1,0,13
18:22:12:415491,-32,-45,14,20,8,5,1,-32
18:22:12:421454,-14,-6,25,-20,-14,-10,-6,-4
18:22:12:429723,-14,-6,25,-20,-14,-10,-6,-4
18:22:12:430497,13,-43,29,-9,-4,0,2,14
18:22:12:444025,-53,-29,19,4,5,2,-3,-38
18:22:12:452212,-53,-29,19,4,5,2,-3,-38
18:22:12:452968,19,9,-17,-12,-7,-4,-1,3
18:22:12:458947,28,74,12,5,1,3,5,13
18:22:12:474656,28,74,12,5,1,3,5,13
18:22:12:475473,-16,-14,-24,-12,0,-3,-4,-9
18:22:12:490344,5,24,-20,-38,-9,-5,-4,3
18:22:12:491113,5,24,-20,-38,-9,-5,-4,3
18:22:12:491920,24,55,-2,5,6,5,5,18
18:22:12:504004,-19,-46,-13,6,0,-2,-5,-3
18:22:12:512204,-19,-46,-13,6,0,-2,-5,-3
18:22:12:513002,12,-23,-26,-4,-1,-3,0,18
18:22:12:518980,11,-16,22,17,6,3,5,17
18:22:12:534747,11,-16,22,17,6,3,5,17
18:22:12:535484,-14,-31,2,5,-3,1,0,-1
18:22:12:541470,-5,-5,-23,-8,-5,-6,-7,6
18:22:12:549742,-5,-5,-23,-8,-5,-6,-7,6
18:22:12:550497,5,-38,20,-6,3,3,2,-6
18:22:12:563945,-9,-20,-47,-37,-14,-11,-11,-3
18:22:12:572212,-9,-20,-47,-37,-14,-11,-11,-3
18:22:12:573000,55,99,-14,31,7,0,1,0
18:22:12:578995,-1,-8,16,12,2,-5,-7,-16
18:22:12:594726,-1,-8,16,12,2,-5,-7,-16
18:22:12:595514,1,-5,-27,-21,-8,-5,-3,-1
18:22:12:601430,-7,9,7,21,5,4,1,-6
18:22:12:609488,-7,9,7,21,5,4,1,-6
18:22:12:616455,9,18,46,9,1,-3,1,6
18:22:12:623985,27,83,-24,-11,2,3,8,-5
18:22:12:631954,27,83,-24,-11,2,3,8,-5
18:22:12:638980,-18,21,43,7,-2,-2,-4,-32
18:22:12:646483,1,-83,-40,-20,-9,-3,-2,-12
18:22:12:662863,1,-83,-40,-20,-9,-3,-2,-12
18:22:12:663725,7,2,-13,-6,-5,-5,-4,5
18:22:12:664487,3,1,9,3,-1,0,0,-4
18:22:12:669056,3,1,9,3,-1,0,0,-4
18:22:12:676474,-35,-39,-28,2,2,0,-6,-33
18:22:12:683974,-19,-61,11,6,-1,-2,-4,11
18:22:12:692149,-19,-61,11,6,-1,-2,-4,11
18:22:12:692973,1,-1,-1,3,-4,-1,2,26
18:22:12:706500,-12,-46,-4,5,3,1,5,-2
18:22:12:714732,-12,-46,-4,5,3,1,5,-2
18:22:12:715402,0,-1,30,17,-2,1,3,10
18:22:12:721487,-5,27,-35,-20,-6,-4,-3,8
18:22:12:729010,-5,27,-35,-20,-6,-4,-3,8
18:22:12:736493,-4,1,15,4,2,-2,3,35
18:22:12:744016,-1,9,-11,14,4,3,-2,-29
18:22:12:752195,-1,9,-11,14,4,3,-2,-29
18:22:12:752966,-25,-11,-18,-12,-4,-2,-5,2
18:22:12:766483,-9,5,36,-4,-3,-2,1,4
18:22:12:774651,-9,5,36,-4,-3,-2,1,4
18:22:12:775453,-11,-53,-38,-1,-1,6,4,-12
18:22:12:781503,23,26,11,-1,-1,2,4,34
18:22:12:788987,23,26,11,-1,-1,2,4,34
18:22:12:796458,-24,5,-3,-5,-2,-2,-6,-10
18:22:12:803967,-32,1,-15,3,1,-3,-2,10
18:22:12:812185,-32,1,-15,3,1,-3,-2,10
18:22:12:813006,30,20,-23,-12,1,1,6,7
18:22:12:835316,12,14,22,13,0,1,2,-8
18:22:12:836122,12,14,22,13,0,1,2,-8
18:22:12:836929,-40,-29,-17,-30,-14,-8,-10,-24
18:22:12:841480,-11,-59,13,2,1,-1,-1,5
18:22:12:849000,-11,-59,13,2,1,-1,-1,5
18:22:12:856517,-36,-1,7,-5,-4,-5,-6,-11
18:22:12:864009,6,-7,2,6,0,-2,-7,-9
18:22:12:872189,6,-7,2,6,0,-2,-7,-9
18:22:12:872974,26,5,0,12,7,-1,-1,-6
18:22:12:886470,-13,7,4,-3,4,2,-1,-34
18:22:12:894660,-13,7,4,-3,4,2,-1,-34
18:22:12:895479,13,3,-15,-37,-13,-4,-3,-21
18:22:12:901504,18,21,-34,-9,-6,-2,-2,7
18:22:12:909028,18,21,-34,-9,-6,-2,-2,7
18:22:12:916488,31,-17,-2,10,-2,-3,-2,4
18:22:12:923985,3,-6,2,0,-2,-3,-2,-2
18:22:12:932192,3,-6,2,0,-2,-3,-2,-2
18:22:12:933023,18,44,-22,17,3,0,-1,23
18:22:12:946421,-21,-11,5,4,-2,-1,1,-8
18:22:12:954735,-21,-11,5,4,-2,-1,1,-8
18:22:12:955502,15,6,13,4,-5,-1,1,-5
18:22:12:961461,20,58,-45,-9,-3,-2,-3,-3
18:22:12:969071,20,58,-45,-9,-3,-2,-3,-3
18:22:12:976449,-17,-46,-21,-4,-1,-3,-5,-14
18:22:12:983978,-14,-3,19,8,1,2,2,-7
18:22:12:992255,-14,-3,19,8,1,2,2,-7
18:22:12:993017,22,48,19,7,5,-1,-1,7
18:22:13:6479,33,-4,21,2,2,0,1,13
18:22:13:14741,33,-4,21,2,2,0,1,13
18:22:13:15455,-44,-66,22,-5,2,2,4,-8
18:22:13:21479,-3,12,10,6,3,1,2,11
18:22:13:29050,-3,12,10,6,3,1,2,11
18:22:13:36510,-19,-3,-1,3,-1,-2,-1,2
18:22:13:43994,-9,-57,-18,13,0,-2,-5,-9
18:22:13:52225,-9,-57,-18,13,0,-2,-5,-9
18:22:13:53026,9,42,12,-16,-2,4,4,11
18:22:13:66490,-1,18,25,6,2,2,-2,11
18:22:13:74736,-1,18,25,6,2,2,-2,11
18:22:13:75485,-24,19,31,17,4,1,3,-9
18:22:13:81479,-9,-40,14,-3,-1,1,3,-11
18:22:13:89001,-9,-40,14,-3,-1,1,3,-11
18:22:13:96496,23,-3,-9,2,-2,-2,-4,9
18:22:13:103987,17,42,-28,5,4,2,2,-11
18:22:13:112152,17,42,-28,5,4,2,2,-11
18:22:13:112983,36,39,40,23,1,0,1,-13
18:22:13:126480,29,29,-3,-6,-2,-2,1,12
18:22:13:134663,29,29,-3,-6,-2,-2,1,12
18:22:13:135464,11,-27,-22,-10,-1,-6,-5,10
18:22:13:141502,-11,-10,16,-6,-3,-2,-7,-18
18:22:13:157219,-11,-10,16,-6,-3,-2,-7,-18
18:22:13:158003,11,-4,4,2,-2,-1,1,8
18:22:13:163988,-23,21,-9,2,-1,-1,-1,-6
18:22:13:172171,-23,21,-9,2,-1,-1,-1,-6
18:22:13:172989,-30,-24,6,-8,-4,-2,-3,4
18:22:13:195350,10,-25,-3,-1,0,3,6,15
18:22:13:196146,10,-25,-3,-1,0,3,6,15
18:22:13:196977,34,3,6,2,3,2,2,16
18:22:13:201480,-28,5,-20,-16,-7,-6,-8,-8
18:22:13:209058,-28,5,-20,-16,-7,-6,-8,-8
18:22:13:216487,11,7,-2,12,4,2,0,-12
18:22:13:223986,-7,-7,-30,2,-2,-1,-4,-17
18:22:13:232163,-7,-7,-30,2,-2,-1,-4,-17
18:22:13:232969,-7,-26,-20,-1,-6,-4,-4,-3
18:22:13:246476,3,2,17,-6,1,1,-1,10
18:22:13:262864,3,2,17,-6,1,1,-1,10
18:22:13:263741,-50,-65,-21,-4,1,0,-1,-44
18:22:13:264404,3,-18,-35,-23,-9,-3,0,6
18:22:13:269033,3,-18,-35,-23,-9,-3,0,6
18:22:13:276481,22,83,7,7,1,3,3,5
18:22:13:283962,-9,-2,20,15,2,0,2,12
18:22:13:292218,-9,-2,20,15,2,0,2,12
18:22:13:293015,-37,-12,4,-3,0,0,1,11
18:22:13:306471,19,14,8,-39,-13,-7,-3,8
18:22:13:314731,19,14,8,-39,-13,-7,-3,8
18:22:13:315485,19,12,-64,-13,-5,-3,-2,-2
18:22:13:321462,25,-3,40,24,6,2,1,-7
18:22:13:329037,25,-3,40,24,6,2,1,-7
18:22:13:336504,-2,-1,-2,-4,0,-1,-1,3
18:22:13:343998,6,-5,3,-9,-6,-3,1,-4
18:22:13:352162,6,-5,3,-9,-6,-3,1,-4
18:22:13:352976,-28,-71,23,-1,-3,-4,-3,2
18:22:13:366933,-10,26,16,9,2,-1,-4,-10
18:22:13:374760,-10,26,16,9,2,-1,-4,-10
18:22:13:375498,1,-9,-15,5,7,4,5,8
18:22:13:381483,-40,-86,-42,-28,-3,-3,-4,-1
18:22:13:389028,-40,-86,-42,-28,-3,-3,-4,-1
18:22:13:396488,6,-8,-2,3,-1,-1,0,8
18:22:13:404005,-1,-8,-5,-6,-1,0,0,21
18:22:13:412179,-1,-8,-5,-6,-1,0,0,21
18:22:13:412989,8,2,9,-8,-3,-2,-3,-25
18:22:13:426527,10,14,-32,19,10,9,8,5
18:22:13:434665,10,14,-32,19,10,9,8,5
18:22:13:435470,-22,-48,-24,0,5,2,-2,-12
18:22:13:441497,-13,17,-10,18,-3,-4,-7,-7
18:22:13:449035,-13,17,-10,18,-3,-4,-7,-7
18:22:13:456471,12,14,26,-7,1,0,3,10
18:22:13:463966,-1,-5,18,10,-2,-3,-1,-1
18:22:13:472196,-1,-5,18,10,-2,-3,-1,-1
18:22:13:472981,32,24,6,13,-8,-5,-4,17
18:22:13:486496,-49,-48,-20,-33,-5,-4,-5,-33
18:22:13:502811,-49,-48,-20,-33,-5,-4,-5,-33
18:22:13:503631,9,-2,-10,-8,-2,-1,-2,-4
18:22:13:504422,14,26,-1,20,10,4,3,4
18:22:13:509026,14,26,-1,20,10,4,3,4
18:22:13:516532,-7,-2,37,8,1,0,-2,3
18:22:13:523998,-16,-15,15,5,1,-1,1,-2
18:22:13:532188,-16,-15,15,5,1,-1,1,-2
18:22:13:532985,14,-10,0,10,1,-2,-1,7
18:22:13:546504,16,6,0,-16,-8,-6,-5,-2
18:22:13:554668,16,6,0,-16,-8,-6,-5,-2
18:22:13:555441,26,90,-7,-6,-2,-1,2,-16
18:22:13:561486,30,13,14,-1,-2,-3,-2,5
18:22:13:569013,30,13,14,-1,-2,-3,-2,5
18:22:13:576460,8,0,3,-7,-1,0,-3,5
18:22:13:583950,4,-6,19,-29,-5,-4,-1,1
18:22:13:591508,4,-6,19,-29,-5,-4,-1,1
18:22:13:598954,29,13,6,-10,1,0,-4,2
18:22:13:606471,-2,-23,10,26,2,0,0,0
18:22:13:615343,-2,-23,10,26,2,0,0,0
18:22:13:616173,-5,-30,-41,-10,-7,-3,1,9
18:22:13:629651,8,21,5,4,1,2,0,8
18:22:13:630482,8,21,5,4,1,2,0,8
18:22:13:644633,-24,44,31,10,1,1,2,13
18:22:13:645426,-2,11,-39,-14,-6,-4,-2,2
18:22:13:651513,-2,11,-39,-14,-6,-4,-2,2
18:22:13:658962,-15,-10,-20,-2,-6,-9,-6,3
18:22:13:666453,-50,-61,1,6,0,-1,1,-3
18:22:13:674754,-50,-61,1,6,0,-1,1,-3
