Time,EMG1,EMG2,EMG3,EMG4,EMG5,EMG6,EMG7,EMG8
13:57:50:918294,-2,1,4,-1,-51,-19,-9,0
13:57:50:925818,18,-1,2,28,-12,20,40,11
13:57:50:934032,18,-1,2,28,-12,20,40,11
13:57:50:934740,2,-6,2,-21,-41,-4,-12,1
13:57:50:948290,-15,-1,-10,17,3,-3,-7,-3
13:57:50:956549,-15,-1,-10,17,3,-3,-7,-3
13:57:50:957264,-3,-17,-43,-10,6,-35,-4,-5
13:57:50:963253,0,0,14,-11,14,26,10,-1
13:57:50:970834,0,0,14,-11,14,26,10,-1
13:57:50:978297,1,-3,-4,-22,4,-19,-6,2
13:57:50:985777,-2,-7,-6,-7,-15,16,-6,-7
13:57:50:994032,-2,-7,-6,-7,-15,16,-6,-7
13:57:50:994830,0,11,11,-5,11,26,18,-2
13:57:51:8331,-1,10,16,-22,35,-13,-3,-1
13:57:51:16466,-1,10,16,-22,35,-13,-3,-1
13:57:51:17256,4,0,2,50,20,2,3,2
13:57:51:23393,-5,-5,3,6,26,-4,-4,-2
13:57:51:30858,-5,-5,3,6,26,-4,-4,-2
13:57:51:38344,-1,-7,1,-12,-33,-24,-11,-6
13:57:51:45818,-3,15,4,4,-22,-16,5,-12
13:57:51:54074,-3,15,4,4,-22,-16,5,-12
13:57:51:54804,-6,-6,-7,3,13,-1,-1,-1
13:57:51:68273,-3,-41,1,31,32,10,-18,-1
13:57:51:76603,-3,-41,1,31,32,10,-18,-1
13:57:51:77338,3,2,-13,4,-6,-7,19,1
13:57:51:83248,2,14,-2,6,38,23,3,3
13:57:51:90891,2,14,-2,6,38,23,3,3
13:57:51:98308,-1,-12,14,16,-7,-22,-14,1
13:57:51:105776,-1,-14,-1,-24,-69,-22,-1,6
13:57:51:114001,-1,-14,-1,-24,-69,-22,-1,6
13:57:51:114793,-2,15,-5,-17,26,26,-9,1
13:57:51:128308,1,-8,13,14,-14,-15,1,4
13:57:51:136510,1,-8,13,14,-14,-15,1,4
13:57:51:137288,-7,-15,-1,6,-8,4,-8,-4
13:57:51:143333,1,-5,-4,-13,-29,-4,1,-12
13:57:51:150816,1,-5,-4,-13,-29,-4,1,-12
13:57:51:158285,7,23,14,22,31,27,17,5
13:57:51:165714,-6,-16,-23,-14,-22,-14,-15,-1
13:57:51:174039,-6,-16,-23,-14,-22,-14,-15,-1
13:57:51:174758,-1,3,-8,-15,2,-8,-21,-3
13:57:51:188338,4,4,17,27,7,-4,1,0
13:57:51:196485,4,4,17,27,7,-4,1,0
13:57:51:197239,-4,-3,-13,-13,-10,-8,-11,-2
13:57:51:203334,2,12,-9,-13,-1,13,2,-1
13:57:51:210832,2,12,-9,-13,-1,13,2,-1
13:57:51:218234,2,-2,1,-12,-4,7,11,0
13:57:51:225846,-2,-3,-7,-11,5,-8,-3,-3
13:57:51:233988,-2,-3,-7,-11,5,-8,-3,-3
13:57:51:234751,-3,-6,-25,7,-4,-2,-3,3
13:57:51:248292,-2,-3,-5,-29,-23,-27,-4,-3
13:57:51:256639,-2,-3,-5,-29,-23,-27,-4,-3
13:57:51:257332,2,-12,3,-1,33,42,14,1
13:57:51:263288,-2,17,-5,-6,-11,-14,-8,-2
13:57:51:270970,-2,17,-5,-6,-11,-14,-8,-2
13:57:51:278298,-8,2,11,-3,-6,-13,-3,-2
13:57:51:285778,4,9,15,15,7,4,-3,2
13:57:51:294029,4,9,15,15,7,4,-3,2
13:57:51:294789,-3,-6,13,16,-7,2,14,-2
13:57:51:308319,-8,1,-13,-14,-6,10,-8,-4
13:57:51:316476,-8,1,-13,-14,-6,10,-8,-4
13:57:51:317248,2,6,-10,12,0,-6,5,1
13:57:51:323381,2,-10,2,-11,-22,-20,1,3
13:57:51:330855,2,-10,2,-11,-22,-20,1,3
13:57:51:338315,3,5,21,3,-12,0,-4,7
13:57:51:345788,5,5,-8,-13,-4,13,-1,1
13:57:51:354023,5,5,-8,-13,-4,13,-1,1
13:57:51:354765,-3,3,15,-15,-18,-21,-2,-3
13:57:51:368280,2,7,8,1,7,41,8,4
13:57:51:376588,2,7,8,1,7,41,8,4
13:57:51:377422,4,-17,-11,13,18,0,-1,-6
13:57:51:383275,-10,-5,9,22,-46,-64,-7,-12
13:57:51:390908,-10,-5,9,22,-46,-64,-7,-12
13:57:51:398303,0,-24,-2,38,62,39,3,6
13:57:51:405799,-6,-14,-10,-17,-32,-28,-11,-3
13:57:51:413993,-6,-14,-10,-17,-32,-28,-11,-3
13:57:51:414759,0,6,-8,-14,-1,9,-12,0
13:57:51:428290,2,5,9,13,6,3,11,-1
13:57:51:436485,2,5,9,13,6,3,11,-1
13:57:51:437250,-9,5,-2,6,6,-9,-9,-9
13:57:51:443348,4,9,4,10,24,7,-7,7
13:57:51:450818,4,9,4,10,24,7,-7,7
13:57:51:458289,4,-1,-10,-18,7,37,11,3
13:57:51:474653,-1,1,19,1,12,9,6,6
13:57:51:475408,-1,1,19,1,12,9,6,6
13:57:51:476210,-4,-6,-56,-40,-46,-67,-9,-2
13:57:51:497183,-6,-6,3,-26,10,64,0,-4
13:57:51:497969,-6,-6,3,-26,10,64,0,-4
13:57:51:498729,-12,-9,-2,-41,16,51,11,-11
13:57:51:503408,15,18,14,101,81,-27,11,6
13:57:51:519010,15,18,14,101,81,-27,11,6
13:57:51:519783,1,14,-13,-13,-69,-70,-5,-5
13:57:51:534610,-9,-7,-7,-99,-56,2,-18,-15
13:57:51:535424,-9,-7,-7,-99,-56,2,-18,-15
13:57:51:536229,4,5,37,16,4,23,18,0
13:57:51:548263,9,10,-9,29,50,44,68,10
13:57:51:556515,9,10,-9,29,50,44,68,10
13:57:51:557244,-4,-3,22,0,-25,35,26,0
13:57:51:563307,-12,-4,-5,40,8,24,-22,-7
13:57:51:570889,-12,-4,-5,40,8,24,-22,-7
13:57:51:578259,6,5,8,-11,-11,9,-5,5
13:57:51:585746,-5,-14,-15,-35,-30,0,-16,-8
13:57:51:593991,-5,-14,-15,-35,-30,0,-16,-8
13:57:51:594762,9,6,17,41,51,-22,-13,5
13:57:51:608415,-7,-20,-12,15,-56,-77,-21,-3
13:57:51:616451,-7,-20,-12,15,-56,-77,-21,-3
13:57:51:617227,-1,5,1,-13,-41,-24,-21,-1
13:57:51:631447,0,0,17,20,67,26,-20,4
13:57:51:632230,0,0,17,20,67,26,-20,4
13:57:51:638264,0,-1,-9,13,19,3,11,-4
13:57:51:645819,-7,-1,-31,-55,-58,-50,-7,-6
13:57:51:653448,-7,-1,-31,-55,-58,-50,-7,-6
13:57:51:660790,8,1,-21,15,55,9,10,3
13:57:51:668276,-2,3,-18,-57,-33,-48,-17,-6
13:57:51:676552,-2,3,-18,-57,-33,-48,-17,-6
13:57:51:677271,-6,-7,7,-59,-46,20,-4,0
13:57:51:691550,3,4,8,-26,-35,34,6,-2
13:57:51:692229,3,4,8,-26,-35,34,6,-2
13:57:51:698226,-5,-7,18,66,54,38,-2,0
13:57:51:705756,9,5,15,21,-7,7,21,15
13:57:51:721487,9,5,15,21,-7,7,21,15
13:57:51:722267,0,-8,-26,-21,-5,-71,-13,-7
13:57:51:728259,-1,-3,-6,15,48,8,-8,-5
13:57:51:736507,-1,-3,-6,15,48,8,-8,-5
13:57:51:737241,-9,-10,-9,14,-23,-34,-20,-8
13:57:51:751433,-1,2,30,21,8,21,20,8
13:57:51:752290,-1,2,30,21,8,21,20,8
13:57:51:758338,0,-2,6,-29,-46,-22,-16,-1
13:57:51:765745,4,1,13,51,44,29,12,4
13:57:51:773381,4,1,13,51,44,29,12,4
13:57:51:780727,-1,5,7,-29,-23,-7,23,4
13:57:51:788281,-2,4,-24,-30,-15,-9,-16,-8
13:57:51:796505,-2,4,-24,-30,-15,-9,-16,-8
13:57:51:797309,-4,-3,-2,20,39,42,0,-2
13:57:51:811503,-3,-28,-6,-2,-15,-14,-2,2
13:57:51:812286,-3,-28,-6,-2,-15,-14,-2,2
13:57:51:818260,2,-4,17,21,21,-18,-12,0
13:57:51:825821,-1,-16,-14,-14,-23,-12,0,-6
13:57:51:833383,-1,-16,-14,-14,-23,-12,0,-6
13:57:51:840843,-1,0,13,50,54,19,11,4
13:57:51:848252,0,24,12,9,44,25,5,2
13:57:51:856584,0,24,12,9,44,25,5,2
13:57:51:857324,-2,0,-13,-19,-37,-14,-7,-6
13:57:51:871513,-4,4,12,9,-17,-16,-9,-8
13:57:51:872296,-4,4,12,9,-17,-16,-9,-8
13:57:51:878282,4,9,-11,-9,-26,4,-3,5
13:57:51:885810,1,-20,-13,-15,0,-6,1,-2
13:57:51:893463,1,-20,-13,-15,0,-6,1,-2
13:57:51:900760,3,-31,-15,-14,-1,-22,-5,0
13:57:51:908317,1,15,9,40,30,5,5,7
13:57:51:917132,1,15,9,40,30,5,5,7
13:57:51:917933,-5,16,0,-9,-15,-15,-5,-4
13:57:51:931423,2,2,0,3,1,9,3,-5
13:57:51:932255,2,2,0,3,1,9,3,-5
13:57:51:938335,-1,-6,0,14,11,15,-5,-7
13:57:51:945782,-3,15,-3,-11,-7,-11,-4,1
13:57:51:953401,-3,15,-3,-11,-7,-11,-4,1
13:57:51:960824,-2,9,5,13,18,0,6,5
13:57:51:968271,-8,-14,-9,-17,-20,-17,-9,-6
13:57:51:976536,-8,-14,-9,-17,-20,-17,-9,-6
13:57:51:977234,-4,0,-8,-5,1,17,0,4
13:57:51:991509,-1,8,-5,1,7,-22,-8,-11
13:57:51:992224,-1,8,-5,1,7,-22,-8,-11
13:57:51:998255,-2,-2,-8,-6,-21,-27,-11,-5
13:57:52:5841,1,-5,6,9,6,5,0,5
13:57:52:13294,1,-5,6,9,6,5,0,5
13:57:52:28958,0,-8,3,-9,18,39,12,-2
13:57:52:29733,-8,-12,-15,-33,-22,-19,-14,-4
13:57:52:36505,-8,-12,-15,-33,-22,-19,-14,-4
13:57:52:37250,1,-1,2,43,48,19,-7,6
13:57:52:51945,-1,-2,-8,-7,-15,-9,17,-6
13:57:52:52737,-1,-2,-8,-7,-15,-9,17,-6
13:57:52:58378,-1,7,18,-21,-40,-47,-21,-5
13:57:52:74041,-11,-9,-16,10,43,66,39,8
13:57:52:74748,-11,-9,-16,10,43,66,39,8
13:57:52:80771,-3,-21,-15,-49,-15,32,8,1
13:57:52:88385,6,-8,8,15,-4,-8,-6,-3
13:57:52:96527,6,-8,8,15,-4,-8,-6,-3
13:57:52:97290,2,-2,-6,21,-2,-20,-31,-1
13:57:52:111498,3,-2,-11,-9,-4,21,2,5
13:57:52:112337,3,-2,-11,-9,-4,21,2,5
13:57:52:118254,-3,2,-21,-20,-17,-22,8,-3
13:57:52:125821,-2,6,0,21,50,1,-19,-2
13:57:52:133369,-2,6,0,21,50,1,-19,-2
13:57:52:140854,3,3,1,-9,29,68,78,13
13:57:52:148231,2,12,4,3,-12,-29,9,0
13:57:52:156504,2,12,4,3,-12,-29,9,0
13:57:52:157213,-5,5,5,-10,-52,-56,-12,-8
13:57:52:171506,2,-4,5,-91,-18,43,-12,1
13:57:52:172256,2,-4,5,-91,-18,43,-12,1
13:57:52:178277,0,12,2,54,80,60,-3,3
13:57:52:185780,-10,-19,-22,-48,-66,-60,3,-5
13:57:52:193382,-10,-19,-22,-48,-66,-60,3,-5
13:57:52:200784,0,-3,0,7,18,-10,24,-7
13:57:52:208409,-1,-6,3,19,-20,-44,-33,-6
13:57:52:216483,-1,-6,3,19,-20,-44,-33,-6
13:57:52:217238,5,0,27,13,42,37,-5,0
13:57:52:231471,1,14,20,62,40,-42,-10,1
13:57:52:232231,1,14,20,62,40,-42,-10,1
13:57:52:238339,-13,9,1,-25,-47,-31,-26,2
13:57:52:245798,-1,0,4,31,-18,-10,1,-4
13:57:52:253401,-1,0,4,31,-18,-10,1,-4
13:57:52:260811,0,-16,-32,-21,0,-33,-17,-4
13:57:52:268241,4,4,-19,-52,-21,-5,3,4
13:57:52:276542,4,4,-19,-52,-21,-5,3,4
13:57:52:277257,0,1,-3,-12,-22,53,-5,-2
13:57:52:291528,-3,-1,25,6,12,71,71,5
13:57:52:292242,-3,-1,25,6,12,71,71,5
13:57:52:298242,2,-4,4,23,2,20,4,5
13:57:52:305773,-4,3,9,29,-8,-15,-27,-1
13:57:52:313338,-4,3,9,29,-8,-15,-27,-1
13:57:52:320815,4,17,28,18,-2,-25,0,0
13:57:52:328251,-4,-9,-26,-26,10,20,-12,-4
13:57:52:336549,-4,-9,-26,-26,10,20,-12,-4
13:57:52:337278,-5,-9,-1,-32,-33,-35,-10,-10
13:57:52:351975,4,7,21,30,47,8,-10,-3
13:57:52:352742,4,7,21,30,47,8,-10,-3
13:57:52:358293,-4,6,-4,-17,-7,-13,-1,4
13:57:52:365717,-1,-6,-3,-16,-15,-8,-19,-4
13:57:52:373354,-1,-6,-3,-16,-15,-8,-19,-4
13:57:52:380764,7,-4,-1,-3,28,10,3,3
13:57:52:388384,4,6,-18,3,25,-4,2,3
13:57:52:396477,4,6,-18,3,25,-4,2,3
13:57:52:397247,-16,-27,-20,-5,-31,-38,3,-2
13:57:52:411498,4,2,10,-12,-5,31,0,4
13:57:52:412299,4,2,10,-12,-5,31,0,4
13:57:52:418245,5,6,-6,11,-3,2,-4,-6
13:57:52:425840,-3,-1,-3,-36,-22,-17,-9,-3
13:57:52:433378,-3,-1,-3,-36,-22,-17,-9,-3
13:57:52:440814,-2,2,8,-4,-13,-25,-22,-6
13:57:52:448261,1,15,25,5,-7,1,27,3
13:57:52:456488,1,15,25,5,-7,1,27,3
13:57:52:457264,-2,-2,2,-3,14,5,11,1
13:57:52:471457,-2,-12,-21,-20,0,4,-17,-4
13:57:52:472215,-2,-12,-21,-20,0,4,-17,-4
13:57:52:478276,4,3,7,31,8,-2,1,-2
13:57:52:485780,-7,-15,4,-12,1,-20,-2,-4
13:57:52:493323,-7,-15,4,-12,1,-20,-2,-4
13:57:52:500697,-6,4,22,10,5,-26,1,-4
13:57:52:508290,1,-3,26,54,2,-5,-15,-4
13:57:52:516484,1,-3,26,54,2,-5,-15,-4
13:57:52:517238,-4,-3,3,-20,-44,9,21,-1
13:57:52:531495,8,11,6,33,39,76,8,7
13:57:52:532237,8,11,6,33,39,76,8,7
13:57:52:538293,1,-2,1,-21,-12,-10,-20,-4
13:57:52:554024,-8,-10,-43,-33,-72,-58,-21,-4
13:57:52:554748,-8,-10,-43,-33,-72,-58,-21,-4
13:57:52:560814,5,23,41,11,29,18,14,5
13:57:52:568333,2,2,-2,12,5,28,17,2
13:57:52:575894,2,2,-2,12,5,28,17,2
13:57:52:583213,-7,-8,-31,-27,-70,-81,-48,-8
13:57:52:591528,0,1,10,28,60,49,34,6
13:57:52:592283,0,1,10,28,60,49,34,6
13:57:52:598229,-4,-10,-9,1,10,29,23,-9
13:57:52:613981,-2,-5,-25,-27,-27,-34,-1,-3
13:57:52:614773,-2,-5,-25,-27,-27,-34,-1,-3
13:57:52:620832,0,0,-10,-3,-24,-3,-14,-4
13:57:52:628263,-4,1,24,41,20,25,4,1
13:57:52:635814,-4,1,24,41,20,25,4,1
13:57:52:643345,-4,-9,-12,-2,10,-1,1,0
13:57:52:651463,-6,-6,-12,-23,-35,-53,-4,-5
13:57:52:652272,-6,-6,-12,-23,-35,-53,-4,-5
13:57:52:658293,1,-5,-10,-17,2,9,13,4
13:57:52:674061,16,13,17,37,25,17,19,7
13:57:52:674787,16,13,17,37,25,17,19,7
13:57:52:680767,-2,-1,-29,-4,9,38,6,-3
13:57:52:688300,-1,12,5,7,9,-23,-6,-7
13:57:52:695867,-1,12,5,7,9,-23,-6,-7
13:57:52:703388,-7,-12,12,9,2,-28,-19,-1
13:57:52:711525,-10,-22,9,3,-35,2,-7,-5
13:57:52:712317,-10,-22,9,3,-35,2,-7,-5
13:57:52:725831,-3,-9,-12,16,50,29,8,4
13:57:52:733986,3,14,6,17,-5,-23,-11,-1
13:57:52:734770,3,14,6,17,-5,-23,-11,-1
13:57:52:748906,6,15,-19,5,1,37,30,5
13:57:52:749687,-1,9,3,-16,-1,-16,-21,0
13:57:52:755868,-1,9,3,-16,-1,-16,-21,0
13:57:52:763272,9,13,28,8,25,5,-3,-5
13:57:52:771504,-5,6,-30,-21,-6,1,-9,-1
13:57:52:772257,-5,6,-30,-21,-6,1,-9,-1
13:57:52:778251,-3,-7,-9,-37,1,-3,1,1
13:57:52:793996,-4,-12,-9,-18,-35,-29,-22,-9
13:57:52:794820,-4,-12,-9,-18,-35,-29,-22,-9
13:57:52:800755,-4,-1,4,18,15,9,-27,-5
13:57:52:808332,5,14,-7,-9,2,18,10,5
13:57:52:815813,5,14,-7,-9,2,18,10,5
13:57:52:823348,-6,21,13,2,-6,-39,-35,-7
13:57:52:831374,4,1,-13,27,-2,3,7,0
13:57:52:832221,4,1,-13,27,-2,3,7,0
13:57:52:838367,5,2,-3,24,4,1,-2,3
13:57:52:854043,-7,-35,-24,-12,9,1,0,-2
13:57:52:854770,-7,-35,-24,-12,9,1,0,-2
13:57:52:860806,-6,-20,-12,18,-4,0,12,0
13:57:52:868313,-1,-28,-8,-3,-7,-3,-7,-2
13:57:52:875880,-1,-28,-8,-3,-7,-3,-7,-2
13:57:52:883271,1,-9,-22,-23,1,15,23,6
13:57:52:891428,-3,2,7,-11,0,6,4,-6
13:57:52:892261,-3,2,7,-11,0,6,4,-6
13:57:52:898187,-2,-7,1,4,1,25,45,5
13:57:52:914440,-3,7,15,-17,-15,-19,-10,5
13:57:52:915219,-3,7,15,-17,-15,-19,-10,5
13:57:52:920841,6,11,27,31,5,-14,-45,-14
13:57:52:928312,5,29,3,-16,-2,-4,0,1
13:57:52:935804,5,29,3,-16,-2,-4,0,1
13:57:52:943267,-4,8,0,-23,-34,-19,-5,1
13:57:52:951444,2,7,12,19,35,26,-8,8
13:57:52:952260,2,7,12,19,35,26,-8,8
13:57:52:958352,-7,-7,-13,-14,-13,-14,-8,-8
13:57:52:973989,4,-19,-6,-1,-10,-16,0,-4
13:57:52:974762,4,-19,-6,-1,-10,-16,0,-4
13:57:52:980733,-10,-20,-21,-16,-18,-4,-10,-1
13:57:52:988294,-9,-3,2,15,12,5,-10,-5
13:57:52:995857,-9,-3,2,15,12,5,-10,-5
13:57:53:3369,8,-1,-11,10,-8,-9,-1,5
13:57:53:11512,-1,-13,-18,-5,3,0,0,-1
13:57:53:12324,-1,-13,-18,-5,3,0,0,-1
13:57:53:18277,12,20,15,8,23,43,41,4
13:57:53:33964,-8,-6,-15,-15,-17,-21,-13,-7
13:57:53:34768,-8,-6,-15,-15,-17,-21,-13,-7
13:57:53:40851,-6,-18,-14,-13,-6,-7,-3,6
13:57:53:48221,-6,7,-8,-4,-2,7,3,-3
13:57:53:55864,-6,7,-8,-4,-2,7,3,-3
13:57:53:63283,1,-7,18,14,3,-6,-1,-2
13:57:53:71520,5,-2,-5,-28,-17,-28,-21,-7
13:57:53:72280,5,-2,-5,-28,-17,-28,-21,-7
13:57:53:78288,-3,-24,7,10,-1,-13,-19,-6
13:57:53:94007,5,0,8,-6,-7,-14,11,4
13:57:53:94802,5,0,8,-6,-7,-14,11,4
13:57:53:100727,0,15,-16,-16,-2,4,-1,-1
13:57:53:108313,-10,-7,2,26,-13,-10,9,1
13:57:53:115793,-10,-7,2,26,-13,-10,9,1
13:57:53:123339,0,-16,4,15,19,21,3,-1
13:57:53:131430,0,18,35,-16,-12,-4,-7,0
13:57:53:132205,0,18,35,-16,-12,-4,-7,0
13:57:53:138334,-1,16,25,1,-5,-12,-2,-2
13:57:53:154031,-2,-14,-27,3,23,23,35,1
13:57:53:154732,-2,-14,-27,3,23,23,35,1
13:57:53:160807,2,7,-22,-17,5,-24,-22,-1
13:57:53:168283,4,9,2,-4,17,54,4,0
13:57:53:175850,4,9,2,-4,17,54,4,0
13:57:53:183226,-6,1,-1,-14,-45,-36,-23,-3
13:57:53:191617,1,7,11,30,63,54,29,1
13:57:53:192277,1,7,11,30,63,54,29,1
13:57:53:198222,-9,-17,-14,-32,-16,-6,-3,6
13:57:53:213957,-3,-28,-21,-10,-26,-28,-13,-8
13:57:53:214752,-3,-28,-21,-10,-26,-28,-13,-8
13:57:53:220854,-1,11,8,27,16,16,9,3
13:57:53:228305,-2,-6,-18,-23,-11,-2,-2,1
13:57:53:235830,-2,-6,-18,-23,-11,-2,-2,1
13:57:53:243329,-2,-3,-11,-24,-20,-17,-8,-7
13:57:53:251471,-1,5,23,17,-6,-17,-11,-3
13:57:53:252248,-1,5,23,17,-6,-17,-11,-3
13:57:53:258315,-4,-12,11,6,12,42,34,0
13:57:53:274024,-4,-12,11,6,12,42,34,0
13:57:53:274778,-4,-14,-9,-10,-6,-2,-20,-2
13:57:53:280713,4,6,11,15,35,29,19,2
13:57:53:296481,4,6,11,15,35,29,19,2
13:57:53:297261,4,1,7,-5,-17,-7,5,-2
13:57:53:303347,-2,9,8,9,-10,-28,-21,-9
13:57:53:311532,-2,9,8,9,-10,-28,-21,-9
13:57:53:312295,2,10,-14,-1,-15,-5,20,6
13:57:53:318254,0,-4,-4,-12,18,10,6,2
13:57:53:333956,0,-4,-4,-12,18,10,6,2
13:57:53:334761,-3,-3,19,2,-5,-10,-26,-2
13:57:53:340870,-4,-21,-13,11,-1,6,-8,-9
13:57:53:356525,-4,-21,-13,11,-1,6,-8,-9
13:57:53:357244,0,-2,4,8,-1,-5,-10,-9
13:57:53:363281,3,2,0,-7,-3,-14,-19,3
13:57:53:371451,3,2,0,-7,-3,-14,-19,3
13:57:53:372251,-6,-12,-14,-8,-15,-13,-4,2
13:57:53:378235,-5,2,1,11,7,13,3,2
13:57:53:393942,-5,2,1,11,7,13,3,2
13:57:53:394729,8,31,16,14,40,23,30,4
13:57:53:400768,-3,3,9,-19,-26,-27,-12,-7
13:57:53:416438,-3,3,9,-19,-26,-27,-12,-7
13:57:53:417216,1,8,3,-11,-17,-22,-9,-1
13:57:53:423359,9,54,9,-3,-4,-4,11,0
13:57:53:431450,9,54,9,-3,-4,-4,11,0
13:57:53:432237,2,26,2,3,-3,4,-4,0
13:57:53:438270,-2,-30,-22,-3,6,-2,-4,-1
13:57:53:454022,-2,-30,-22,-3,6,-2,-4,-1
13:57:53:454749,-10,-15,-5,13,-9,-11,4,-1
13:57:53:460800,1,6,18,12,35,17,-9,6
13:57:53:476580,1,6,18,12,35,17,-9,6
13:57:53:477301,0,-18,-18,-16,-15,-19,-19,-1
13:57:53:483286,1,-8,-12,15,19,23,40,2
13:57:53:491471,1,-8,-12,15,19,23,40,2
13:57:53:492224,2,-6,-6,-4,-6,-8,1,-7
13:57:53:505788,-2,-6,-6,-14,-13,-6,-27,-6
13:57:53:514010,-2,-6,-6,-14,-13,-6,-27,-6
13:57:53:514761,3,12,7,17,24,18,-15,3
13:57:53:520838,-6,-9,-11,-10,-25,-2,-2,-3
13:57:53:536460,-6,-9,-11,-10,-25,-2,-2,-3
13:57:53:537248,-5,-19,-16,-16,-2,-16,-20,-1
13:57:53:543285,-4,-6,8,0,-31,-11,7,-2
13:57:53:551512,-4,-6,8,0,-31,-11,7,-2
13:57:53:552278,-2,-12,28,12,20,21,-2,-3
13:57:53:565753,6,-5,4,-1,1,2,8,5
13:57:53:574083,6,-5,4,-1,1,2,8,5
13:57:53:574812,1,0,-7,-7,-17,9,10,-4
13:57:53:580764,-3,-11,-7,13,21,-13,-12,-6
13:57:53:596504,-3,-11,-7,13,21,-13,-12,-6
13:57:53:597257,-2,-10,-28,-38,-11,-9,1,-1
13:57:53:603387,8,19,-1,1,-9,2,5,0
13:57:53:611499,8,19,-1,1,-9,2,5,0
13:57:53:612282,-4,29,5,15,15,9,5,4
13:57:53:625846,-8,-15,-1,-15,-12,-26,-18,-8
13:57:53:633973,-8,-15,-1,-15,-12,-26,-18,-8
13:57:53:634753,-11,-47,-3,-20,-15,-9,38,-2
13:57:53:640827,4,-4,-1,12,32,39,40,14
13:57:53:656484,4,-4,-1,12,32,39,40,14
13:57:53:657311,1,32,19,11,16,6,-23,-4
13:57:53:663284,-4,-1,-15,-14,-29,-27,-4,-5
13:57:53:671485,-4,-1,-15,-14,-29,-27,-4,-5
13:57:53:672296,1,-1,-14,4,12,-18,2,1
13:57:53:685717,7,25,2,-10,-21,-20,1,1
13:57:53:693988,7,25,2,-10,-21,-20,1,1
13:57:53:694773,-4,-8,6,-20,-13,-8,-19,-5
13:57:53:700738,2,-7,1,1,5,-8,-6,-13
13:57:53:716460,2,-7,1,1,5,-8,-6,-13
13:57:53:717212,-3,2,-14,-6,-14,10,13,0
13:57:53:723303,3,9,1,13,16,16,0,4
13:57:53:731457,3,9,1,13,16,16,0,4
13:57:53:732240,-6,-18,14,4,-6,-5,-15,-5
13:57:53:745719,-5,-14,-3,-20,-25,-19,-34,-1
13:57:53:754033,-5,-14,-3,-20,-25,-19,-34,-1
13:57:53:754747,-2,20,7,9,-10,32,12,3
13:57:53:760774,1,21,-27,9,19,-3,2,-5
13:57:53:776563,1,21,-27,9,19,-3,2,-5
13:57:53:777297,-2,-23,3,4,0,45,25,4
13:57:53:783198,-1,13,3,5,11,15,3,8
13:57:53:791516,-1,13,3,5,11,15,3,8
13:57:53:792292,5,20,3,2,-9,-30,-4,-5
13:57:53:805787,-7,-1,16,-15,-10,3,17,-7
13:57:53:813970,-7,-1,16,-15,-10,3,17,-7
13:57:53:814755,-1,-1,9,29,36,-1,-8,2
13:57:53:820800,-1,-12,2,4,5,12,34,4
13:57:53:836539,-1,-12,2,4,5,12,34,4
13:57:53:837254,6,-7,-27,-20,-15,1,1,1
13:57:53:843260,-4,-2,6,-2,-24,-20,-55,1
13:57:53:851490,-4,-2,6,-2,-24,-20,-55,1
13:57:53:852255,-4,-7,-11,-1,-8,2,7,2
13:57:53:865802,3,5,1,-11,5,-5,-9,0
13:57:53:874027,3,5,1,-11,5,-5,-9,0
13:57:53:874755,0,-12,3,-14,-2,-26,-27,-3
13:57:53:880784,-1,-3,-11,8,6,2,-1,-3
13:57:53:896474,-1,-3,-11,8,6,2,-1,-3
13:57:53:897304,3,-16,-3,1,0,-4,-6,-2
13:57:53:903351,-6,-4,-8,-9,-23,-7,-12,0
13:57:53:911539,-6,-4,-8,-9,-23,-7,-12,0
13:57:53:912275,-2,-11,-2,10,38,23,8,-1
13:57:53:925832,0,-17,-12,4,19,31,24,-5
13:57:53:933947,0,-17,-12,4,19,31,24,-5
13:57:53:934769,-4,9,7,-5,-5,8,-3,3
13:57:53:940853,-5,-31,0,-8,-9,-19,-3,-3
13:57:53:956499,-5,-31,0,-8,-9,-19,-3,-3
13:57:53:957252,4,12,10,10,16,-3,-2,-7
13:57:53:963326,0,0,-11,12,-1,-17,36,5
13:57:53:971499,0,0,-11,12,-1,-17,36,5
13:57:53:972237,-5,-29,-27,-11,-14,-22,2,-6
13:57:53:985796,5,14,-1,-16,-18,7,-4,3
13:57:53:993918,5,14,-1,-16,-18,7,-4,3
13:57:53:994715,-4,15,-2,6,2,1,13,-4
13:57:54:763,-6,-5,10,8,3,6,-2,3
13:57:54:16505,-6,-5,10,8,3,6,-2,3
13:57:54:17258,-1,9,-13,-8,-15,-19,-21,-3
13:57:54:23330,3,13,20,6,7,7,-8,-3
13:57:54:31413,3,13,20,6,7,7,-8,-3
13:57:54:32205,8,47,5,5,-1,-9,5,7
13:57:54:45788,-1,-5,-18,-28,-8,-19,-52,-9
13:57:54:54021,-1,-5,-18,-28,-8,-19,-52,-9
13:57:54:54765,5,17,19,5,-2,11,-4,-3
13:57:54:60761,-5,3,16,12,-8,10,-2,-7
13:57:54:76519,-5,3,16,12,-8,10,-2,-7
13:57:54:77297,-5,-26,-2,-27,-21,-27,-24,1
13:57:54:83229,-2,-9,5,3,10,10,5,1
13:57:54:91556,-2,-9,5,3,10,10,5,1
13:57:54:92255,2,7,3,0,10,15,19,5
13:57:54:105800,-5,-10,-7,-10,-12,-1,8,-5
13:57:54:114010,-5,-10,-7,-10,-12,-1,8,-5
13:57:54:114775,3,7,26,19,0,-21,-29,-7
13:57:54:120828,2,11,-10,-4,11,6,-27,1
13:57:54:136588,2,11,-10,-4,11,6,-27,1
13:57:54:137273,-3,-17,-13,-8,1,2,-7,1
13:57:54:143332,2,-5,5,23,18,-16,7,0
13:57:54:151477,2,-5,5,23,18,-16,7,0
13:57:54:152287,0,11,3,15,6,3,0,0
13:57:54:165724,1,6,22,34,7,11,22,3
13:57:54:174043,1,6,22,34,7,11,22,3
13:57:54:174743,1,26,-12,-15,-18,5,20,6
13:57:54:180754,-6,4,5,-21,-21,-6,5,-2
13:57:54:196466,-6,4,5,-21,-21,-6,5,-2
13:57:54:197290,6,18,-2,2,3,26,38,4
13:57:54:203334,-4,-11,-34,-18,-13,-38,-31,-11
13:57:54:211503,-4,-11,-34,-18,-13,-38,-31,-11
13:57:54:212304,2,-19,-4,-8,-12,7,-1,1
13:57:54:225844,5,-6,-3,2,-3,-5,2,4
13:57:54:233954,5,-6,-3,2,-3,-5,2,4
13:57:54:234735,-18,-48,6,2,6,-2,-11,-7
13:57:54:240832,5,9,-5,7,23,18,16,1
13:57:54:256544,5,9,-5,7,23,18,16,1
13:57:54:257279,4,3,2,-2,-13,-14,5,-4
13:57:54:263254,-3,-2,-3,5,-6,22,1,-2
13:57:54:271505,-3,-2,-3,5,-6,22,1,-2
13:57:54:272279,-4,13,23,-5,-23,-24,-21,-5
13:57:54:285833,0,7,13,8,-4,8,31,-3
13:57:54:293981,0,7,13,8,-4,8,31,-3
13:57:54:294763,-4,-13,-8,3,25,25,17,-3
13:57:54:300713,-2,12,2,-8,-5,0,-13,4
13:57:54:316474,-2,12,2,-8,-5,0,-13,4
13:57:54:317229,0,17,9,11,1,-14,-14,-2
13:57:54:323299,-1,-6,-9,-18,-25,-31,-23,-2
13:57:54:331459,-1,-6,-9,-18,-25,-31,-23,-2
13:57:54:332224,6,-22,-29,1,22,11,1,0
13:57:54:345806,-5,-24,-7,-10,-9,-8,-5,-3
13:57:54:354034,-5,-24,-7,-10,-9,-8,-5,-3
13:57:54:354744,-10,-35,11,14,2,12,42,-1
13:57:54:360765,-7,-37,-22,0,-3,-18,-15,-2
13:57:54:376486,-7,-37,-22,0,-3,-18,-15,-2
13:57:54:377266,-6,19,8,-15,-28,-26,-11,-1
13:57:54:383275,-2,13,15,-1,4,18,5,-1
13:57:54:391555,-2,13,15,-1,4,18,5,-1
13:57:54:392282,2,-13,-28,3,14,9,-21,5
13:57:54:405798,1,6,-16,-4,12,8,25,4
13:57:54:413975,1,6,-16,-4,12,8,25,4
13:57:54:414755,4,26,-10,-23,-24,5,12,-9
13:57:54:420872,2,-1,25,-6,-11,-2,-5,2
13:57:54:436447,2,-1,25,-6,-11,-2,-5,2
13:57:54:437225,-5,13,-16,6,29,21,22,2
13:57:54:443329,-1,-1,-31,5,18,13,22,7
13:57:54:450769,-1,-1,-31,5,18,13,22,7
13:57:54:458331,-1,-11,-11,-20,-16,-21,-30,2
13:57:54:465756,1,11,7,-6,6,0,-20,-2
13:57:54:474087,1,11,7,-6,6,0,-20,-2
13:57:54:474781,-1,-29,14,3,-1,-3,-5,-2
13:57:54:488354,-2,-19,18,0,-12,-14,-1,-4
13:57:54:496483,-2,-19,18,0,-12,-14,-1,-4
13:57:54:497269,-1,-5,6,12,6,63,61,5
13:57:54:503322,-3,-12,-15,13,24,-3,-19,-5
13:57:54:510854,-3,-12,-15,13,24,-3,-19,-5
13:57:54:518237,0,10,5,-4,-30,-42,-10,-3
13:57:54:525827,7,18,58,29,31,9,14,-6
13:57:54:533971,7,18,58,29,31,9,14,-6
13:57:54:534774,-7,-5,-10,-13,-11,-22,-10,-3
13:57:54:548236,-3,30,31,18,-11,-3,11,0
13:57:54:556503,-3,30,31,18,-11,-3,11,0
13:57:54:557268,-4,2,12,0,-12,-22,-41,-7
13:57:54:563227,1,-4,12,-5,-1,-10,-6,5
13:57:54:570915,1,-4,12,-5,-1,-10,-6,5
13:57:54:578274,6,9,-1,5,0,-14,-7,-6
13:57:54:585728,0,-18,-23,-1,10,41,0,1
13:57:54:594019,0,-18,-23,-1,10,41,0,1
13:57:54:594750,-3,32,38,14,10,-17,-33,-6
13:57:54:608298,-6,-7,-25,-12,-2,0,-3,-5
13:57:54:616495,-6,-7,-25,-12,-2,0,-3,-5
13:57:54:617259,3,-5,-11,-1,7,0,0,5
13:57:54:623297,-7,-36,-22,-5,-2,-6,-10,-5
13:57:54:630862,-7,-36,-22,-5,-2,-6,-10,-5
13:57:54:638261,-6,-17,-3,4,1,25,3,2
13:57:54:645761,0,17,-25,4,22,-9,8,-3
13:57:54:653966,0,17,-25,4,22,-9,8,-3
13:57:54:654746,1,20,3,2,8,-18,-10,-3
13:57:54:668966,2,21,15,-15,-27,0,-24,0
13:57:54:669806,2,21,15,-15,-27,0,-24,0
13:57:54:675825,-1,-11,-10,-15,-17,-13,-3,-1
13:57:54:683224,0,21,4,-7,-20,-9,1,4
13:57:54:690966,0,21,4,-7,-20,-9,1,4
13:57:54:698248,2,-18,-19,6,18,15,6,1
13:57:54:705774,3,22,5,-9,-8,-17,9,-5
13:57:54:713968,3,22,5,-9,-8,-17,9,-5
13:57:54:714759,-4,5,-11,0,17,-5,9,0
13:57:54:728253,-2,-23,-13,-3,-12,-8,1,-1
13:57:54:736503,-2,-23,-13,-3,-12,-8,1,-1
13:57:54:737207,-2,-10,20,8,22,-4,-11,-5
13:57:54:743360,6,-10,-23,-6,3,-7,9,-1
13:57:54:750792,6,-10,-23,-6,3,-7,9,-1
13:57:54:758353,-4,-17,-24,-14,-23,-24,-35,-5
13:57:54:765703,-8,2,11,-11,-20,-8,-26,-4
13:57:54:774099,-8,2,11,-11,-20,-8,-26,-4
13:57:54:774814,-4,-17,-5,12,2,20,3,-1
13:57:54:789014,2,-15,2,10,46,30,16,3
13:57:54:789751,2,-15,2,10,46,30,16,3
13:57:54:795758,0,-5,-11,-8,-13,-5,0,-3
13:57:54:803342,-4,-17,8,-5,-35,-21,-20,-3
13:57:54:810834,-4,-17,8,-5,-35,-21,-20,-3
13:57:54:818252,5,22,6,12,16,18,4,7
13:57:54:825827,-7,0,-8,-7,-37,3,16,-4
13:57:54:833931,-7,0,-8,-7,-37,3,16,-4
13:57:54:834735,3,9,16,11,48,52,22,1
13:57:54:848924,-8,6,-13,-21,-15,-22,-10,2
13:57:54:849785,-8,6,-13,-21,-15,-22,-10,2
13:57:54:855741,-5,6,-13,-5,-8,-9,-12,-1
13:57:54:863265,7,-4,38,3,5,3,12,-8
13:57:54:878982,7,-4,38,3,5,3,12,-8
13:57:54:879774,1,-13,9,3,-15,0,1,3
13:57:54:885742,11,27,-6,13,24,7,0,6
13:57:54:894418,11,27,-6,13,24,7,0,6
13:57:54:900708,-5,-20,9,-9,-22,9,29,-3
13:57:54:909054,4,1,-3,6,-2,-2,-7,0
13:57:54:909741,4,1,-3,6,-2,-2,-7,0
13:57:54:923949,-6,-42,-18,-5,8,11,-10,-1
13:57:54:924690,-4,-31,3,-16,3,1,-1,-4
13:57:54:930800,-4,-31,3,-16,3,1,-1,-4
13:57:54:938299,5,28,39,31,15,-39,-21,1
13:57:54:945743,0,22,-10,17,26,25,32,10
13:57:54:954132,0,22,-10,17,26,25,32,10
13:57:54:954748,-7,-15,-14,-31,-32,-31,-23,-9
13:57:54:969006,-6,18,-15,-7,-12,-9,-1,-3
13:57:54:969786,-6,18,-15,-7,-12,-9,-1,-3
13:57:54:975848,9,14,-4,-9,-14,-16,1,-1
13:57:54:983254,-5,3,21,1,-4,-2,-17,-9
13:57:54:990914,-5,3,21,1,-4,-2,-17,-9
13:57:54:998237,7,-25,-10,-3,15,57,37,11
13:57:55:5794,1,-18,17,14,19,3,-2,8
13:57:55:13962,1,-18,17,14,19,3,-2,8
13:57:55:14747,-4,11,-13,-14,-24,-30,-9,1
13:57:55:28279,1,-10,18,0,-11,-13,-16,-6
13:57:55:36492,1,-10,18,0,-11,-13,-16,-6
13:57:55:37266,-1,2,1,-23,-22,-8,-3,-5
13:57:55:43314,-1,15,-13,-3,13,0,-2,2
13:57:55:50761,-1,15,-13,-3,13,0,-2,2
13:57:55:58318,-2,13,-3,2,15,18,-1,-3
13:57:55:65730,-1,3,-26,-7,2,43,51,5
13:57:55:74035,-1,3,-26,-7,2,43,51,5
13:57:55:74743,-8,-59,-42,-7,-7,-18,9,-3
13:57:55:88303,-5,-6,-12,-4,-21,-23,-19,1
13:57:55:96463,-5,-6,-12,-4,-21,-23,-19,1
13:57:55:97219,1,37,19,8,2,6,-1,0
13:57:55:103337,-2,-8,-11,-11,-6,-10,-14,-5
13:57:55:110805,-2,-8,-11,-11,-6,-10,-14,-5
13:57:55:118203,10,5,16,12,20,7,2,-2
13:57:55:125886,-2,12,14,13,0,4,31,-1
13:57:55:133976,-2,12,14,13,0,4,31,-1
13:57:55:134777,-1,8,-35,-2,16,3,-15,-1
13:57:55:148940,-5,-9,-22,-7,-16,5,9,-1
13:57:55:149758,-5,-9,-22,-7,-16,5,9,-1
13:57:55:155781,-8,-14,-18,-24,-25,-3,5,-2
13:57:55:163234,-3,-19,2,5,15,-18,-22,-3
13:57:55:170950,-3,-19,2,5,15,-18,-22,-3
13:57:55:178255,5,32,44,24,-1,-11,-12,1
13:57:55:185790,5,22,-35,12,3,4,5,-2
13:57:55:194002,5,22,-35,12,3,4,5,-2
13:57:55:194786,-7,11,-5,3,-5,2,-14,-6
13:57:55:209032,-5,16,-6,-6,1,-18,-29,-9
13:57:55:209760,-5,16,-6,-6,1,-18,-29,-9
13:57:55:215692,1,-9,-7,11,9,23,36,12
13:57:55:223298,-1,-28,9,-11,-9,10,24,2
13:57:55:230837,-1,-28,9,-11,-9,10,24,2
13:57:55:238265,-3,-16,9,-26,-24,-6,2,0
13:57:55:245754,9,25,-1,7,32,19,-17,2
13:57:55:254089,9,25,-1,7,32,19,-17,2
13:57:55:254768,-4,10,-22,-4,-9,-16,-16,-4
13:57:55:268999,-15,-32,-5,-10,-18,-9,-9,-3
13:57:55:269752,-15,-32,-5,-10,-18,-9,-9,-3
13:57:55:275849,4,-1,17,-12,-4,-27,-19,-7
13:57:55:283232,9,-9,-2,-4,2,-5,9,-1
13:57:55:290937,9,-9,-2,-4,2,-5,9,-1
13:57:55:298222,-12,-3,12,6,4,-27,-18,-5
13:57:55:305772,-5,7,-15,5,-6,11,-3,9
13:57:55:313977,-5,7,-15,5,-6,11,-3,9
13:57:55:314726,5,-8,-3,-18,11,12,16,4
13:57:55:328956,-1,-12,14,-1,-15,-3,5,-4
13:57:55:329797,-1,-12,14,-1,-15,-3,5,-4
13:57:55:335828,-5,0,0,-3,-1,-5,-16,-6
13:57:55:343371,-6,2,2,-11,19,4,25,4
13:57:55:350793,-6,2,2,-11,19,4,25,4
13:57:55:358344,-3,-11,0,5,-8,15,-26,-17
13:57:55:365730,2,-1,-1,0,15,0,25,13
13:57:55:374058,2,-1,-1,0,15,0,25,13
13:57:55:374747,0,-16,26,-2,0,2,1,0
13:57:55:388913,3,-30,-7,-7,-29,-25,-56,-28
13:57:55:389735,3,-30,-7,-7,-29,-25,-56,-28
13:57:55:395811,0,-16,-24,-2,25,32,51,13
13:57:55:411498,2,15,31,11,2,-15,4,12
13:57:55:412299,2,15,31,11,2,-15,4,12
13:57:55:418269,7,0,16,35,-7,-1,26,-1
13:57:55:425864,5,27,-18,-19,7,3,-39,-16
13:57:55:433254,5,27,-18,-19,7,3,-39,-16
13:57:55:440847,-6,-1,-3,-19,-10,-3,19,14
13:57:55:448908,3,-18,-19,-5,-28,-23,-1,1
13:57:55:449758,3,-18,-19,-5,-28,-23,-1,1
13:57:55:455764,-3,6,-44,30,1,-43,-23,-12
13:57:55:471436,-24,0,-10,11,11,31,6,2
13:57:55:472241,-24,0,-10,11,11,31,6,2
13:57:55:478279,-11,29,-7,-2,-2,-16,-15,-11
13:57:55:485830,-1,-43,-13,-20,-16,1,14,9
13:57:55:493322,-1,-43,-13,-20,-16,1,14,9
13:57:55:500712,-12,-8,19,-5,-3,3,-23,-10
13:57:55:508337,-11,-39,-2,9,-18,-10,-34,-13
13:57:55:516462,-11,-39,-2,9,-18,-10,-34,-13
13:57:55:517236,-2,-9,3,-16,-3,-6,11,1
13:57:55:531492,4,19,39,25,20,15,45,9
13:57:55:532223,4,19,39,25,20,15,45,9
13:57:55:538303,20,-12,15,8,14,26,8,5
13:57:55:545741,14,27,62,-6,-3,-29,-55,-10
13:57:55:553431,14,27,62,-6,-3,-29,-55,-10
13:57:55:560775,-2,7,32,-8,-2,0,-31,-11
13:57:55:568988,19,1,-34,-5,1,27,16,9
13:57:55:569781,19,1,-34,-5,1,27,16,9
13:57:55:575783,-8,-55,-12,-9,-8,13,32,-1
13:57:55:599608,-5,9,11,9,4,-3,-23,-6
13:57:55:600407,-5,9,11,9,4,-3,-23,-6
13:57:55:601199,7,16,5,10,5,-27,-36,6
13:57:55:605785,-41,43,-6,-6,13,6,8,-23
13:57:55:613293,-41,43,-6,-6,13,6,8,-23
13:57:55:620824,1,-5,-17,-10,-24,5,35,0
13:57:55:628967,8,-1,-33,-26,-10,-4,15,10
13:57:55:629781,8,-1,-33,-26,-10,-4,15,10
13:57:55:635749,-6,26,27,21,6,13,-16,5
13:57:55:651460,20,7,30,11,1,3,15,2
13:57:55:652273,20,7,30,11,1,3,15,2
13:57:55:658335,-4,-5,4,-11,-6,8,10,4
13:57:55:665722,-3,-7,-27,-7,-14,-16,10,0
13:57:55:673362,-3,-7,-27,-7,-14,-16,10,0
13:57:55:680738,-21,23,-3,-10,-5,20,-29,-11
13:57:55:689004,-12,-30,5,-13,-8,2,-12,-4
13:57:55:689752,-12,-30,5,-13,-8,2,-12,-4
13:57:55:695754,15,-1,-20,-20,-5,-28,1,2
13:57:55:711471,5,-11,15,-8,4,-18,-2,0
13:57:55:712269,5,-11,15,-8,4,-18,-2,0
13:57:55:718279,20,4,-33,3,15,10,12,4
13:57:55:725859,-5,-15,5,-17,-12,10,20,12
13:57:55:733290,-5,-15,5,-17,-12,10,20,12
13:57:55:740831,-15,3,-3,14,0,-15,3,-5
13:57:55:748923,22,1,-9,9,18,2,-20,-1
13:57:55:749721,22,1,-9,9,18,2,-20,-1
13:57:55:755782,-2,-22,28,2,11,11,105,28
13:57:55:771505,-8,4,-40,26,-6,-6,-12,-2
13:57:55:772282,-8,4,-40,26,-6,-6,-12,-2
13:57:55:778290,5,9,-7,-11,-15,-11,2,6
13:57:55:785792,-4,6,19,45,7,-21,-58,-12
13:57:55:793417,-4,6,19,45,7,-21,-58,-12
13:57:55:800763,6,15,38,0,-9,11,39,2
13:57:55:809091,15,12,9,-6,1,4,48,10
13:57:55:809785,15,12,9,-6,1,4,48,10
13:57:55:815749,19,22,-8,3,20,0,-52,-15
13:57:55:831440,-23,-14,12,-18,-5,-3,-16,-12
13:57:55:832203,-23,-14,12,-18,-5,-3,-16,-12
13:57:55:838375,-10,-20,6,20,9,-4,-35,-5
13:57:55:845794,-8,2,-2,0,-10,-1,7,3
13:57:55:853379,-8,2,-2,0,-10,-1,7,3
13:57:55:860751,12,-2,-40,-11,9,17,-3,-2
13:57:55:868938,-1,-28,19,14,13,10,24,-3
13:57:55:869756,-1,-28,19,14,13,10,24,-3
13:57:55:875797,-3,5,10,19,-14,-31,-61,-16
13:57:55:891537,0,4,-25,-31,-2,11,28,2
13:57:55:892277,0,4,-25,-31,-2,11,28,2
13:57:55:898197,-39,-2,-30,-11,-14,-7,-32,-15
13:57:55:905736,2,8,-14,-3,-3,-7,0,7
13:57:55:913293,2,8,-14,-3,-3,-7,0,7
13:57:55:920826,-7,44,55,-12,-4,-19,-14,-4
13:57:55:928956,-11,-11,-53,10,1,-1,8,-5
13:57:55:929783,-11,-11,-53,10,1,-1,8,-5
13:57:55:935740,11,2,-18,0,8,25,28,10
13:57:55:951191,-9,2,1,-9,-7,-32,-41,-13
13:57:55:959037,-9,2,1,-9,-7,-32,-41,-13
13:57:55:959762,0,-41,8,19,9,26,14,-4
13:57:55:965709,-10,14,15,-9,9,-4,-31,-2
13:57:55:973348,-10,14,15,-9,9,-4,-31,-2
13:57:55:980766,-12,-21,-22,4,-1,-7,23,0
13:57:55:988983,-10,7,6,10,2,-2,3,-5
13:57:55:989773,-10,7,6,10,2,-2,3,-5
13:57:55:995789,7,16,-1,-2,-12,-48,-40,2
13:57:56:11470,-5,21,-11,-4,-1,48,17,6
13:57:56:12290,-5,21,-11,-4,-1,48,17,6
13:57:56:18244,-10,-9,-74,-21,0,-3,23,15
13:57:56:25802,0,-16,40,-22,-8,-7,13,-4
13:57:56:33304,0,-16,40,-22,-8,-7,13,-4
13:57:56:40871,-23,-2,35,-7,19,11,8,-3
13:57:56:48883,18,-19,1,-8,2,-13,-3,6
13:57:56:49780,18,-19,1,-8,2,-13,-3,6
13:57:56:55807,10,10,19,0,-6,-3,-24,0
13:57:56:71512,6,9,11,16,3,9,-2,-12
13:57:56:72297,6,9,11,16,3,9,-2,-12
13:57:56:78277,-4,5,19,8,-7,7,12,2
13:57:56:85805,18,7,-17,-24,-13,-22,-26,6
13:57:56:93310,18,7,-17,-24,-13,-22,-26,6
13:57:56:100750,-26,-21,-25,1,9,10,-14,-12
13:57:56:109001,-15,-2,-32,2,17,38,38,-3
13:57:56:109786,-15,-2,-32,2,17,38,38,-3
13:57:56:115702,-3,-14,-19,-14,-5,-21,-9,-1
13:57:56:131487,4,-2,0,1,-19,-1,31,5
13:57:56:132219,4,-2,0,1,-19,-1,31,5
13:57:56:138331,6,-14,-8,-3,-17,-8,-12,0
13:57:56:145832,-5,16,2,17,19,2,-46,-1
13:57:56:153461,-5,16,2,17,19,2,-46,-1
13:57:56:160781,8,-23,-8,-9,18,14,-11,3
13:57:56:168974,-14,-3,4,-2,-11,-11,-8,-6
13:57:56:169802,-14,-3,4,-2,-11,-11,-8,-6
13:57:56:175869,21,2,9,22,-2,-31,-14,-1
13:57:56:191545,6,11,22,40,12,-4,20,3
13:57:56:192270,6,11,22,40,12,-4,20,3
13:57:56:198198,4,41,17,-4,6,28,37,10
13:57:56:205741,13,11,39,1,-10,-7,-10,0
13:57:56:213319,13,11,39,1,-10,-7,-10,0
13:57:56:220823,14,33,3,-6,-17,-20,11,-11
13:57:56:228979,0,8,0,-16,7,7,-10,-9
13:57:56:229803,0,8,0,-16,7,7,-10,-9
13:57:56:235731,-31,-11,-24,-9,-10,8,1,-11
13:57:56:251435,5,-12,-2,-1,-6,15,-9,0
13:57:56:252235,5,-12,-2,-1,-6,15,-9,0
13:57:56:258362,11,-37,-26,3,2,16,48,11
13:57:56:265747,28,-15,-26,-11,-13,-23,-26,-6
13:57:56:273391,28,-15,-26,-11,-13,-23,-26,-6
13:57:56:280760,2,30,-11,15,2,11,8,3
13:57:56:289026,20,-22,-15,-1,-4,3,-2,8
13:57:56:289808,20,-22,-15,-1,-4,3,-2,8
13:57:56:295809,4,20,-7,5,-10,-3,-19,-7
13:57:56:311492,9,-22,-24,-6,-18,-8,-15,0
13:57:56:312308,9,-22,-24,-6,-18,-8,-15,0
13:57:56:318259,-7,8,62,0,31,56,30,4
13:57:56:325857,-10,16,8,4,0,-8,20,-4
13:57:56:333303,-10,16,8,4,0,-8,20,-4
13:57:56:340876,-7,-17,-23,-7,-11,-11,-18,-2
13:57:56:348912,-20,-1,-8,-16,-11,-17,-7,-2
13:57:56:349730,-20,-1,-8,-16,-11,-17,-7,-2
13:57:56:363274,9,-14,-7,1,16,3,-8,1
13:57:56:371466,-23,8,20,-4,-17,-7,-9,1
13:57:56:372232,-23,8,20,-4,-17,-7,-9,1
13:57:56:378324,-3,-26,0,6,9,-13,-16,-3
13:57:56:393994,-29,15,7,8,7,15,19,-6
13:57:56:394778,-29,15,7,8,7,15,19,-6
13:57:56:400790,24,-4,-7,-5,-19,-13,-4,-5
13:57:56:409049,11,13,-23,-4,-4,-8,46,-3
13:57:56:409759,11,13,-23,-4,-4,-8,46,-3
13:57:56:423340,-6,6,21,-2,-4,-4,-24,1
13:57:56:431487,6,0,0,-6,-6,6,16,-5
13:57:56:432299,6,0,0,-6,-6,6,16,-5
13:57:56:438315,14,-20,10,-1,0,-8,6,6
13:57:56:454000,6,-11,-10,-13,10,7,-8,2
13:57:56:454777,6,-11,-10,-13,10,7,-8,2
13:57:56:460731,-5,-13,-29,-10,0,-11,5,-2
13:57:56:469007,5,-24,3,-22,-10,-14,-38,0
13:57:56:469800,5,-24,3,-22,-10,-14,-38,0
13:57:56:483306,-21,3,2,-6,-2,-1,-16,-1
13:57:56:491572,-13,-11,-30,6,7,27,-2,-8
13:57:56:492349,-13,-11,-30,6,7,27,-2,-8
13:57:56:498210,24,4,-24,-17,-16,-15,7,9
13:57:56:513982,-7,20,32,8,1,-17,-14,5
13:57:56:514746,-7,20,32,8,1,-17,-14,5
13:57:56:520863,-33,18,-25,-1,-20,-20,0,-12
13:57:56:529013,10,9,-6,9,37,32,-6,4
13:57:56:529849,10,9,-6,9,37,32,-6,4
13:57:56:543332,-1,-13,0,-9,-9,-18,-5,-3
13:57:56:551449,0,6,33,8,-11,-7,-7,-3
13:57:56:552311,0,6,33,8,-11,-7,-7,-3
13:57:56:558371,4,10,14,-5,-6,19,-9,-1
13:57:56:574072,-7,-1,32,15,4,6,32,9
13:57:56:574812,-7,-1,32,15,4,6,32,9
13:57:56:580750,-12,-20,8,-9,-1,-8,-4,-7
13:57:56:589012,35,15,-15,-8,-4,-4,7,4
13:57:56:589771,35,15,-15,-8,-4,-4,7,4
13:57:56:603320,9,-4,-8,-4,7,2,-2,-3
13:57:56:611444,9,-4,-8,-4,7,2,-2,-3
13:57:56:612223,-2,-10,-35,-6,-13,-39,-19,-3
13:57:56:618244,-16,15,3,3,8,10,3,2
13:57:56:633935,-16,15,3,3,8,10,3,2
13:57:56:634727,-6,23,-15,12,19,8,3,-10
13:57:56:640821,20,6,21,5,-13,4,14,6
13:57:56:648945,20,6,21,5,-13,4,14,6
13:57:56:649741,-3,-32,-12,-12,-10,0,6,8
13:57:56:663261,-29,6,33,8,19,-13,3,-1
13:57:56:671432,-29,6,33,8,19,-13,3,-1
13:57:56:672218,-36,-23,13,-4,23,36,9,-4
13:57:56:678173,2,-18,-14,-14,-27,5,14,-3
13:57:56:693932,2,-18,-14,-14,-27,5,14,-3
13:57:56:694690,-1,2,-28,1,13,-9,-16,1
13:57:56:700693,19,-4,-2,7,5,3,-20,-2
13:57:56:708996,19,-4,-2,7,5,3,-20,-2
13:57:56:709754,-11,12,10,-12,-13,-3,-8,-8
13:57:56:723320,-4,17,3,12,6,0,-7,-4
13:57:56:731440,-4,17,3,12,6,0,-7,-4
13:57:56:732209,2,-15,0,4,-14,-4,1,2
13:57:56:738257,-5,1,24,3,-10,29,3,-6
13:57:56:754075,-5,1,24,3,-10,29,3,-6
13:57:56:754709,-14,8,10,21,12,-4,-2,-1
13:57:56:760761,10,9,-10,-10,-6,-16,-57,-13
13:57:56:768946,10,9,-10,-10,-6,-16,-57,-13
13:57:56:769737,5,-3,38,-6,-2,-15,19,2
13:57:56:792282,2,3,13,17,-4,-16,-13,-2
13:57:56:792938,2,3,13,17,-4,-16,-13,-2
13:57:56:793766,0,-2,-16,-18,5,7,2,-5
13:57:56:798263,-4,2,-5,21,0,0,12,-3
13:57:56:814029,-4,2,-5,21,0,0,12,-3
13:57:56:814749,3,2,-2,14,22,57,8,6
13:57:56:820811,-26,-6,-16,-23,-19,-13,12,5
13:57:56:828974,-26,-6,-16,-23,-19,-13,12,5
13:57:56:829773,3,22,-2,-9,-24,-10,8,-3
13:57:56:843267,-1,-13,-19,0,33,22,32,4
13:57:56:851471,-1,-13,-19,0,33,22,32,4
13:57:56:852233,4,-2,-1,3,-9,-19,-55,-11
13:57:56:858290,8,-9,-32,-27,-8,-3,4,1
13:57:56:874043,8,-9,-32,-27,-8,-3,4,1
13:57:56:874756,-13,-6,18,-2,-14,-12,10,-8
13:57:56:880735,9,-7,-5,1,18,7,0,6
13:57:56:888998,9,-7,-5,1,18,7,0,6
13:57:56:889766,-7,-4,-6,3,-35,-27,-4,3
13:57:56:912126,-14,10,35,2,31,9,10,-4
13:57:56:912936,-14,10,35,2,31,9,10,-4
13:57:56:913725,-1,-7,-10,-1,-3,-34,-21,-3
13:57:56:918248,2,-8,-23,1,-18,-23,-22,-4
13:57:56:933936,2,-8,-23,1,-18,-23,-22,-4
13:57:56:934716,-3,-6,21,1,20,17,16,6
13:57:56:940858,1,3,-3,-7,-18,-15,-26,-5
13:57:56:948967,1,3,-3,-7,-18,-15,-26,-5
13:57:56:949738,1,-24,-5,-5,-11,-9,-13,-4
13:57:56:963332,9,16,10,25,24,32,38,10
13:57:56:971546,9,16,10,25,24,32,38,10
13:57:56:972248,17,0,-5,-1,4,-20,24,2
13:57:56:978286,-1,-26,-38,-17,-19,-14,-6,-4
13:57:56:993968,-1,-26,-38,-17,-19,-14,-6,-4
13:57:56:994765,-5,-31,-10,27,5,-7,-21,-3
13:57:57:770,11,4,0,-12,-14,-6,-7,-2
13:57:57:9113,11,4,0,-12,-14,-6,-7,-2
13:57:57:9757,-1,9,-3,-18,-20,-8,7,2
13:57:57:23363,-3,8,10,16,24,17,-8,3
13:57:57:31430,-3,8,10,16,24,17,-8,3
13:57:57:32248,-16,-13,-3,1,0,-12,-47,-8
13:57:57:38321,10,3,4,-2,4,-1,7,-1
13:57:57:54055,10,3,4,-2,4,-1,7,-1
13:57:57:54776,3,1,-6,-7,17,8,12,1
13:57:57:60803,2,-11,-9,-9,-15,-21,-16,-2
13:57:57:68939,2,-11,-9,-9,-15,-21,-16,-2
13:57:57:69745,-55,17,-2,-13,-16,10,-6,-11
13:57:57:83250,4,8,16,15,15,10,16,4
13:57:57:91484,4,8,16,15,15,10,16,4
13:57:57:92234,18,-7,-54,-16,3,3,21,-1
13:57:57:98234,-17,-7,6,-11,-18,9,7,-5
13:57:57:113996,-17,-7,6,-11,-18,9,7,-5
13:57:57:114806,5,-1,-3,7,4,10,11,-2
13:57:57:120861,20,12,15,8,-26,-37,-10,-1
13:57:57:128988,20,12,15,8,-26,-37,-10,-1
13:57:57:129784,7,2,24,-8,7,3,12,1
13:57:57:143362,7,27,25,-2,2,-20,-8,-2
13:57:57:151486,7,27,25,-2,2,-20,-8,-2
13:57:57:152288,5,3,0,-12,-2,8,9,1
13:57:57:158375,-24,-7,14,-5,-17,7,-3,6
13:57:57:174079,-24,-7,14,-5,-17,7,-3,6
13:57:57:174776,18,19,8,-5,-3,-13,-24,-1
13:57:57:180746,-6,-13,-23,-19,-4,9,44,4
13:57:57:188989,-6,-13,-23,-19,-4,9,44,4
13:57:57:189800,6,-8,2,16,5,-7,-54,-15
13:57:57:203373,11,4,16,13,19,22,13,1
13:57:57:211518,11,4,16,13,19,22,13,1
13:57:57:212289,-17,-3,30,22,-2,19,19,2
13:57:57:218249,1,-8,1,-5,0,-6,-11,-1
13:57:57:233964,1,-8,1,-5,0,-6,-11,-1
13:57:57:234743,-10,-21,-2,-12,-19,-2,9,4
13:57:57:240881,-9,-8,-19,11,8,-1,-6,-10
13:57:57:248949,-9,-8,-19,11,8,-1,-6,-10
13:57:57:249767,28,25,-11,14,6,-1,3,6
13:57:57:263283,-10,-15,-17,-19,-12,-8,-13,-6
13:57:57:271551,-10,-15,-17,-19,-12,-8,-13,-6
13:57:57:272283,13,7,13,30,13,-5,8,5
13:57:57:285731,-13,6,-4,2,13,20,4,-5
13:57:57:294010,-13,6,-4,2,13,20,4,-5
13:57:57:294794,3,28,8,-10,4,2,2,14
13:57:57:300728,-32,8,8,-5,-25,-47,-7,-10
13:57:57:308403,-32,8,8,-5,-25,-47,-7,-10
13:57:57:315715,-12,-14,13,0,5,40,38,1
13:57:57:323363,15,-11,-20,-4,7,21,5,4
13:57:57:331475,15,-11,-20,-4,7,21,5,4
13:57:57:332275,-5,-8,-42,-8,-16,8,-9,-19
13:57:57:345792,12,-13,15,4,9,-22,-28,-3
13:57:57:354085,12,-13,15,4,9,-22,-28,-3
13:57:57:354780,-19,-18,-6,-1,13,14,23,1
13:57:57:360813,2,2,-15,-18,-3,-26,-44,1
13:57:57:368350,2,2,-15,-18,-3,-26,-44,1
13:57:57:375854,20,12,-6,-17,21,-11,13,0
13:57:57:383272,9,-12,2,11,14,22,90,13
13:57:57:391494,9,-12,2,11,14,22,90,13
13:57:57:392228,4,16,-2,-9,-23,-16,-9,1
13:57:57:405799,20,-8,-39,-10,-19,-20,-32,-1
13:57:57:422206,20,-8,-39,-10,-19,-20,-32,-1
13:57:57:422963,7,5,4,7,-1,4,5,5
13:57:57:423757,-1,-3,1,9,-3,-20,-15,-4
13:57:57:428313,-1,-3,1,9,-3,-20,-15,-4
13:57:57:435773,12,-9,-16,-1,20,11,-4,4
13:57:57:443350,0,2,5,16,4,12,20,1
13:57:57:451469,0,2,5,16,4,12,20,1
13:57:57:452259,11,-9,-4,-2,-22,-32,-6,10
13:57:57:465753,2,11,13,8,23,12,-11,0
13:57:57:474080,2,11,13,8,23,12,-11,0
13:57:57:474792,-11,1,3,-4,9,-18,-11,-11
13:57:57:480781,12,18,9,2,-8,15,3,5
13:57:57:488399,12,18,9,2,-8,15,3,5
13:57:57:495815,-4,4,13,-9,-11,3,14,4
13:57:57:503414,5,-10,-2,-9,-15,-4,-14,-9
13:57:57:511464,5,-10,-2,-9,-15,-4,-14,-9
13:57:57:512225,7,10,-22,7,-9,-15,-19,-1
13:57:57:525839,-6,35,11,16,28,26,14,7
13:57:57:533918,-6,35,11,16,28,26,14,7
13:57:57:534685,-24,-14,3,-2,-10,-33,-59,-18
13:57:57:540841,-13,-8,1,-3,11,0,-31,-2
13:57:57:548284,-13,-8,1,-3,11,0,-31,-2
13:57:57:555822,0,-8,2,-4,-17,18,35,3
13:57:57:563285,-1,-17,-14,-8,-13,-10,-7,-8
13:57:57:571522,-1,-17,-14,-8,-13,-10,-7,-8
13:57:57:572238,-7,-24,-7,-6,-9,-8,-18,-6
13:57:57:585782,-3,3,-6,11,-11,5,20,7
13:57:57:593957,-3,3,-6,11,-11,5,20,7
13:57:57:594749,0,-4,-13,-1,9,2,-13,1
13:57:57:600769,-12,-4,-10,-11,-31,-7,-8,-11
13:57:57:608376,-12,-4,-10,-11,-31,-7,-8,-11
13:57:57:615702,15,1,11,3,23,-12,-1,1
13:57:57:623324,0,7,-1,-1,10,3,4,-3
13:57:57:631471,0,7,-1,-1,10,3,4,-3
13:57:57:632234,-1,-3,7,0,12,6,4,3
13:57:57:645837,-7,-6,-8,-12,-15,-9,-9,-13
13:57:57:654075,-7,-6,-8,-12,-15,-9,-9,-13
13:57:57:654740,-7,12,-9,0,-3,2,15,1
13:57:57:660774,-6,-9,10,-10,-10,-4,11,3
13:57:57:668332,-6,-9,10,-10,-10,-4,11,3
13:57:57:675835,39,20,3,5,13,28,28,19
13:57:57:683229,8,-5,-25,-23,1,-8,9,10
13:57:57:691530,8,-5,-25,-23,1,-8,9,10
13:57:57:692294,-29,-22,3,1,0,-1,-3,-10
13:57:57:705770,10,3,14,4,15,9,3,-9
13:57:57:714020,10,3,14,4,15,9,3,-9
13:57:57:714769,0,8,12,9,-7,-1,-7,-10
13:57:57:720817,-9,-28,2,-7,-15,-11,-9,-4
13:57:57:728336,-9,-28,2,-7,-15,-11,-9,-4
13:57:57:735761,-2,3,2,15,7,7,-30,-8
13:57:57:743317,2,-2,11,-4,6,36,36,2
13:57:57:751521,2,-2,11,-4,6,36,36,2
13:57:57:752264,18,9,-23,-20,-18,-30,-55,-9
13:57:57:765738,-7,-11,-3,-5,-6,12,19,3
13:57:57:774083,-7,-11,-3,-5,-6,12,19,3
13:57:57:774748,-10,-8,2,7,15,8,14,2
13:57:57:780756,-3,6,-1,7,16,18,-17,-2
13:57:57:788336,-3,6,-1,7,16,18,-17,-2
13:57:57:795786,-2,-2,-8,-14,-15,-15,-18,-5
13:57:57:803386,-19,6,-6,-7,-37,-37,-1,1
13:57:57:811488,-19,6,-6,-7,-37,-37,-1,1
13:57:57:812267,-18,4,-20,39,62,41,31,1
13:57:57:825837,-19,2,13,1,19,9,-13,-2
13:57:57:833927,-19,2,13,1,19,9,-13,-2
13:57:57:834724,3,4,25,-21,-25,3,16,-9
13:57:57:840830,12,6,0,-1,-12,-23,2,9
13:57:57:848258,12,6,0,-1,-12,-23,2,9
13:57:57:855786,-19,-20,-6,-7,-16,9,14,-8
13:57:57:863334,13,1,12,14,8,-10,-26,-3
13:57:57:871563,13,1,12,14,8,-10,-26,-3
13:57:57:872250,-7,-15,-11,-16,-28,-19,-10,1
13:57:57:885796,8,6,-16,2,30,8,1,-1
13:57:57:893958,8,6,-16,2,30,8,1,-1
13:57:57:894731,2,-1,8,-27,-23,-1,41,7
13:57:57:900688,-10,6,-3,15,12,4,-14,2
13:57:57:908338,-10,6,-3,15,12,4,-14,2
13:57:57:915697,-4,-15,-1,-14,-13,-8,-25,0
13:57:57:923277,-9,-25,-3,0,-4,-12,-11,-9
13:57:57:931483,-9,-25,-3,0,-4,-12,-11,-9
13:57:57:932243,10,8,7,12,-4,-26,-15,-2
13:57:57:945744,15,-6,-32,-27,-18,-18,-6,2
13:57:57:954018,15,-6,-32,-27,-18,-18,-6,2
13:57:57:954757,-4,4,2,13,9,14,12,4
13:57:57:960753,-11,7,11,10,-3,4,-38,-13
13:57:57:968310,-11,7,11,10,-3,4,-38,-13
13:57:57:975826,7,9,-4,8,-2,-15,-42,-10
13:57:57:983214,-12,-17,0,-7,-10,-9,36,4
13:57:57:991554,-12,-17,0,-7,-10,-9,36,4
13:57:57:992267,-14,-28,-1,-6,2,13,-2,-2
13:57:58:5714,2,10,12,2,7,2,22,-1
13:57:58:13951,2,10,12,2,7,2,22,-1
13:57:58:14769,-6,-5,-26,-4,-6,5,16,1
13:57:58:20831,-8,13,3,1,-3,-6,-52,-15
13:57:58:28351,-8,13,3,1,-3,-6,-52,-15
13:57:58:35775,2,-2,-6,-7,-5,-10,-9,-7
13:57:58:43315,-10,1,0,2,-8,9,14,1
13:57:58:51502,-10,1,0,2,-8,9,14,1
13:57:58:52230,-9,-1,-13,-6,-1,17,15,5
13:57:58:65738,18,64,23,4,22,25,13,1
13:57:58:74088,18,64,23,4,22,25,13,1
13:57:58:74797,-7,2,23,-7,-7,-11,-3,0
13:57:58:80734,16,6,-15,-9,-13,-17,-15,2
13:57:58:88330,16,6,-15,-9,-13,-17,-15,2
13:57:58:95775,-4,0,-14,11,18,-4,40,7
13:57:58:103378,-15,-18,-10,4,1,-1,-19,-8
13:57:58:111478,-15,-18,-10,4,1,-1,-19,-8
13:57:58:112254,12,3,2,-7,-9,-7,-17,1
13:57:58:125867,-9,-19,-11,10,15,0,5,-1
13:57:58:133941,-9,-19,-11,10,15,0,5,-1
13:57:58:134696,-3,2,18,4,-5,8,7,1
13:57:58:140804,-3,-35,0,3,3,14,-4,-1
13:57:58:148268,-3,-35,0,3,3,14,-4,-1
13:57:58:155775,12,-10,-8,-7,14,2,-6,-2
13:57:58:163243,-1,-6,22,10,-16,-19,-2,9
13:57:58:171527,-1,-6,22,10,-16,-19,-2,9
13:57:58:172278,28,17,6,14,2,-2,-13,13
13:57:58:185740,9,0,-29,-24,2,-2,5,0
13:57:58:193970,9,0,-29,-24,2,-2,5,0
13:57:58:194752,-11,2,-1,-6,-24,-23,-4,-20
13:57:58:200692,9,-2,22,4,25,13,9,12
13:57:58:208349,9,-2,22,4,25,13,9,12
13:57:58:215724,-29,11,6,8,28,20,4,-11
13:57:58:223342,-17,-5,-12,-6,-32,-15,4,-11
13:57:58:230835,-17,-5,-12,-6,-32,-15,4,-11
13:57:58:238294,5,-7,-24,-11,-14,10,20,5
13:57:58:245767,-3,22,38,-8,-15,0,3,-1
13:57:58:254098,-3,22,38,-8,-15,0,3,-1
13:57:58:254800,-7,-4,5,7,3,10,-7,-12
13:57:58:268994,1,2,-3,4,8,6,-13,-5
13:57:58:269787,1,2,-3,4,8,6,-13,-5
13:57:58:275799,8,1,11,11,3,-3,-4,-6
13:57:58:283227,-4,-26,-58,-12,2,-15,1,-20
13:57:58:290923,-4,-26,-58,-12,2,-15,1,-20
13:57:58:298264,-13,-14,-21,-22,-10,-10,-9,3
13:57:58:305752,20,0,22,2,-1,5,6,14
13:57:58:313972,20,0,22,2,-1,5,6,14
13:57:58:314730,-1,-11,0,4,6,-16,-7,3
13:57:58:328974,4,-25,5,-7,-1,-5,24,6
13:57:58:329798,4,-25,5,-7,-1,-5,24,6
13:57:58:335766,1,1,19,-2,-11,-17,-33,-7
13:57:58:343358,-1,-14,-13,6,-4,0,-14,5
13:57:58:350740,-1,-14,-13,6,-4,0,-14,5
13:57:58:358391,10,1,-25,3,21,18,2,3
13:57:58:365809,-28,-7,0,-6,-18,15,29,-7
13:57:58:374049,-28,-7,0,-6,-18,15,29,-7
13:57:58:374726,-1,-2,16,0,8,7,-15,-6
13:57:58:388943,-3,-9,-30,-10,-13,-6,-34,-3
13:57:58:389708,-3,-9,-30,-10,-13,-6,-34,-3
13:57:58:395784,-5,1,-65,-7,9,14,-6,5
13:57:58:403293,-26,4,38,16,-2,-11,12,5
13:57:58:410795,-26,4,38,16,-2,-11,12,5
13:57:58:418208,8,8,35,22,32,3,-26,-11
13:57:58:425755,5,1,-32,-11,4,0,23,3
13:57:58:433940,5,1,-32,-11,4,0,23,3
13:57:58:434710,3,41,19,-7,-39,-16,10,6
13:57:58:448931,3,10,12,9,5,11,19,4
13:57:58:449737,3,10,12,9,5,11,19,4
13:57:58:455705,0,-5,12,-16,-26,-28,3,4
13:57:58:463261,4,13,17,16,35,10,-8,1
13:57:58:470943,4,13,17,16,35,10,-8,1
13:57:58:478275,17,-6,11,11,24,33,20,7
13:57:58:485751,16,-14,5,-1,-13,-4,-19,-15
13:57:58:494004,16,-14,5,-1,-13,-4,-19,-15
13:57:58:494761,-4,-6,11,6,4,-13,-8,6
13:57:58:509058,6,23,-23,-14,-13,-5,26,-2
13:57:58:509753,6,23,-23,-14,-13,-5,26,-2
13:57:58:515713,0,-7,-5,-11,-21,-44,-4,2
13:57:58:523309,-15,-7,6,7,20,31,2,-4
13:57:58:530810,-15,-7,6,7,20,31,2,-4
13:57:58:538233,-3,-11,-25,2,2,13,28,4
13:57:58:545766,3,-3,11,-4,-7,-20,-21,-2
13:57:58:554035,3,-3,11,-4,-7,-20,-21,-2
13:57:58:554746,-17,-1,5,6,-26,20,11,-6
13:57:58:568976,-2,7,36,-7,11,14,9,15
13:57:58:569758,-2,7,36,-7,11,14,9,15
13:57:58:575888,-23,-1,-4,-12,-4,12,18,7
13:57:58:583223,-8,25,-16,2,-4,7,1,7
13:57:58:590940,-8,25,-16,2,-4,7,1,7
13:57:58:598265,6,13,12,-5,3,-7,-1,-4
13:57:58:605766,-2,-9,0,-5,-28,-28,-8,-6
13:57:58:613990,-2,-9,0,-5,-28,-28,-8,-6
13:57:58:614739,11,21,51,19,34,12,1,-1
13:57:58:628938,-2,-16,18,1,1,7,1,-5
13:57:58:629782,-2,-16,18,1,1,7,1,-5
13:57:58:635793,2,-6,-8,-5,-8,21,0,3
13:57:58:643263,3,-8,-44,-4,-14,-18,-24,-9
13:57:58:650763,3,-8,-44,-4,-14,-18,-24,-9
13:57:58:658350,-11,-24,13,-3,4,-7,1,-11
13:57:58:665745,1,1,-40,2,9,16,22,-4
13:57:58:674051,1,1,-40,2,9,16,22,-4
13:57:58:674772,4,-17,-34,1,10,-13,12,-3
13:57:58:688907,2,-2,6,2,4,-17,-34,0
13:57:58:689753,2,-2,6,2,4,-17,-34,0
13:57:58:695740,10,-19,-24,-10,-10,18,34,0
13:57:58:703382,-22,-4,-9,-6,-15,-30,9,-5
13:57:58:710850,-22,-4,-9,-6,-15,-30,9,-5
13:57:58:718194,-1,3,-2,-2,-3,14,-15,-2
13:57:58:725774,13,-9,7,2,-10,6,-18,13
13:57:58:733941,13,-9,7,2,-10,6,-18,13
13:57:58:734723,-5,10,49,6,-20,-20,-30,-4
13:57:58:748975,13,15,8,14,20,1,-9,-4
13:57:58:749720,13,15,8,14,20,1,-9,-4
13:57:58:755803,-19,-5,-32,-2,25,12,9,-4
13:57:58:763233,1,30,10,-5,-16,2,7,-3
13:57:58:770978,1,30,10,-5,-16,2,7,-3
13:57:58:778277,18,17,-20,-12,-14,-13,-33,-11
13:57:58:785744,1,10,-38,-17,-3,8,28,5
13:57:58:793995,1,10,-38,-17,-3,8,28,5
13:57:58:794796,3,6,-21,10,1,-22,-13,3
13:57:58:809049,3,-5,25,2,-10,-37,-15,1
13:57:58:809742,3,-5,25,2,-10,-37,-15,1
13:57:58:815734,5,-15,-3,2,9,29,-2,13
13:57:58:823348,4,-24,12,4,11,-1,-6,-2
13:57:58:830853,4,-24,12,4,11,-1,-6,-2
13:57:58:838287,-12,-17,22,-10,-15,-10,39,-3
13:57:58:845767,-6,21,4,1,5,18,32,4
13:57:58:854068,-6,21,4,1,5,18,32,4
13:57:58:854773,-5,1,9,2,-11,-22,-29,-7
13:57:58:869019,-1,-12,-13,-5,7,9,11,9
13:57:58:869773,-1,-12,-13,-5,7,9,11,9
13:57:58:875830,-4,7,-18,-10,1,-5,-26,-1
13:57:58:883202,-3,-1,2,-4,-14,8,-17,-12
13:57:58:890985,-3,-1,2,-4,-14,8,-17,-12
13:57:58:898278,0,1,-9,4,6,-7,-13,-4
13:57:58:905786,-10,7,21,3,-1,-15,-32,-10
13:57:58:913986,-10,7,21,3,-1,-15,-32,-10
13:57:58:914740,-2,16,46,8,15,-9,-1,5
13:57:58:929000,1,-13,9,-5,-7,2,-6,-7
13:57:58:929780,1,-13,9,-5,-7,2,-6,-7
13:57:58:935808,4,12,-23,-17,-15,-36,-2,7
13:57:58:943348,3,-7,-7,1,15,16,-4,3
13:57:58:950786,3,-7,-7,1,15,16,-4,3
13:57:58:958313,-6,-5,17,1,-8,22,8,-3
13:57:58:965669,22,-12,9,3,-11,-39,-8,8
13:57:58:974026,22,-12,9,3,-11,-39,-8,8
13:57:58:974774,-12,-19,-10,-1,0,-20,-41,2
13:57:58:988928,-11,-23,-13,-2,-12,17,30,11
13:57:58:989797,-11,-23,-13,-2,-12,17,30,11
13:57:58:995741,10,-15,35,3,24,-7,-72,-18
13:57:59:3333,-8,-11,-7,-5,-2,18,-1,-13
13:57:59:10834,-8,-11,-7,-5,-2,18,-1,-13
13:57:59:18233,-22,-5,-33,2,-13,6,16,-9
13:57:59:25834,12,3,-3,-9,-9,-21,-15,1
13:57:59:33976,12,3,-3,-9,-9,-21,-15,1
13:57:59:34737,12,24,-2,0,-5,2,20,5
13:57:59:48912,3,24,19,15,42,51,56,12
13:57:59:49729,3,24,19,15,42,51,56,12
13:57:59:55757,12,10,0,-7,-8,-34,-10,-8
13:57:59:63214,-8,-1,7,3,-19,3,-12,-12
13:57:59:70895,-8,-1,7,3,-19,3,-12,-12
13:57:59:78282,-7,-11,11,-5,-1,17,46,11
13:57:59:85788,5,-21,-4,-8,-4,-27,-31,-12
13:57:59:93990,5,-21,-4,-8,-4,-27,-31,-12
13:57:59:94759,2,-21,-46,1,6,31,2,1
13:57:59:109077,3,3,-20,-2,12,-2,-31,4
13:57:59:109801,3,3,-20,-2,12,-2,-31,4
13:57:59:115709,-8,-31,32,-5,-18,-5,35,-7
13:57:59:123299,-17,4,25,2,13,-2,-48,-16
13:57:59:130812,-17,4,25,2,13,-2,-48,-16
13:57:59:138321,11,15,-25,2,-1,18,56,8
13:57:59:145767,7,0,39,-1,-9,-10,0,4
13:57:59:154018,7,0,39,-1,-9,-10,0,4
13:57:59:154718,13,29,13,2,-6,-2,-17,-5
13:57:59:168999,4,-20,-7,-18,-18,-16,1,-5
13:57:59:169813,4,-20,-7,-18,-18,-16,1,-5
13:57:59:175860,-10,9,-8,5,7,11,-7,5
13:57:59:191539,-2,-18,-32,7,9,-1,9,0
13:57:59:192301,-2,-18,-32,7,9,-1,9,0
13:57:59:198223,4,18,33,13,16,-9,2,1
13:57:59:205772,-5,18,-4,6,-3,13,8,-1
13:57:59:213329,-5,18,-4,6,-3,13,8,-1
13:57:59:220823,14,3,-6,-11,-11,-19,-22,8
13:57:59:228965,-1,6,-22,-4,-8,-2,21,0
13:57:59:229756,-1,6,-22,-4,-8,-2,21,0
13:57:59:235779,0,4,2,2,7,48,19,1
13:57:59:251463,-13,11,-40,-1,13,49,42,-1
13:57:59:252242,-13,11,-40,-1,13,49,42,-1
13:57:59:258397,-4,7,-19,-14,-23,-29,-3,-9
13:57:59:265735,-3,19,24,9,2,-14,15,-3
13:57:59:273381,-3,19,24,9,2,-14,15,-3
13:57:59:280797,-26,-51,-11,-13,-16,-10,-2,-6
13:57:59:288911,1,8,-4,1,25,16,-6,5
13:57:59:289724,1,8,-4,1,25,16,-6,5
13:57:59:295725,-1,8,-12,4,0,1,-24,-5
13:57:59:311474,-14,-12,-6,1,-20,-16,-15,-7
13:57:59:312226,-14,-12,-6,1,-20,-16,-15,-7
13:57:59:318262,7,7,-20,2,3,-24,-36,5
13:57:59:325827,8,1,-8,-9,-2,-5,-10,-2
13:57:59:333307,8,1,-8,-9,-2,-5,-10,-2
13:57:59:340848,-9,-4,-9,2,11,5,11,4
13:57:59:348903,-2,16,-8,4,0,0,8,0
13:57:59:349811,-2,16,-8,4,0,0,8,0
13:57:59:355776,-2,4,16,-7,-4,-9,-34,-11
13:57:59:371513,15,-17,-20,-12,-7,-16,-33,-5
13:57:59:372229,15,-17,-20,-12,-7,-16,-33,-5
13:57:59:378274,-3,7,7,4,-2,3,30,-2
13:57:59:385751,2,-3,19,7,12,12,5,-4
13:57:59:393360,2,-3,19,7,12,12,5,-4
13:57:59:400731,7,42,46,7,6,0,-21,1
13:57:59:409048,-16,-20,-5,-1,-20,-31,7,-1
13:57:59:409789,-16,-20,-5,-1,-20,-31,7,-1
13:57:59:415744,-15,-26,-29,-1,4,-18,-35,-7
13:57:59:431504,4,1,6,3,-3,-3,-6,3
13:57:59:432284,4,1,6,3,-3,-3,-6,3
13:57:59:438323,-8,-35,19,8,12,0,14,5
13:57:59:445823,16,-18,-17,-10,-8,-3,-23,1
13:57:59:453412,16,-18,-17,-10,-8,-3,-23,1
13:57:59:460793,1,14,0,-6,-11,1,3,-4
13:57:59:468907,2,9,11,1,19,47,59,4
13:57:59:469707,2,9,11,1,19,47,59,4
13:57:59:475901,12,-12,-17,-3,4,4,30,14
13:57:59:491565,4,-5,-8,-8,-13,-9,-12,-3
13:57:59:492274,4,-5,-8,-8,-13,-9,-12,-3
13:57:59:498239,-4,20,-13,-8,-20,-7,5,-8
13:57:59:505768,0,15,13,-16,-12,-16,-11,-1
13:57:59:513360,0,15,13,-16,-12,-16,-11,-1
13:57:59:520822,-6,-10,-25,-4,19,7,-8,-3
13:57:59:528958,-7,-2,-24,-3,-8,-1,-13,-3
13:57:59:529719,-7,-2,-24,-3,-8,-1,-13,-3
13:57:59:535797,-17,0,1,2,0,20,12,-8
13:57:59:551437,-4,-11,-18,-3,-2,18,23,-4
13:57:59:552194,-4,-11,-18,-3,-2,18,23,-4
13:57:59:558329,0,-5,30,1,-2,8,13,5
13:57:59:565788,-25,-2,19,1,8,6,9,-7
13:57:59:573365,-25,-2,19,1,8,6,9,-7
13:57:59:580780,3,7,-28,5,0,4,8,0
13:57:59:588936,-9,-9,21,5,-16,-34,-17,2
13:57:59:589770,-9,-9,21,5,-16,-34,-17,2
13:57:59:595762,4,-10,12,-10,10,-5,-11,0
13:57:59:611469,0,13,-4,-1,-9,12,4,-2
13:57:59:612219,0,13,-4,-1,-9,12,4,-2
13:57:59:618215,18,10,8,-2,-3,20,-16,7
13:57:59:625843,-15,-5,18,9,6,3,-18,-1
13:57:59:633291,-15,-5,18,9,6,3,-18,-1
13:57:59:640822,-7,-20,16,7,8,-38,0,-5
13:57:59:648909,10,9,-27,-11,-8,-14,-2,-2
13:57:59:649731,10,9,-27,-11,-8,-14,-2,-2
13:57:59:655773,8,21,6,6,-11,-13,2,6
13:57:59:671482,25,24,4,24,31,-2,-1,9
13:57:59:672232,25,24,4,24,31,-2,-1,9
13:57:59:678256,-20,9,-3,-4,11,17,16,-2
13:57:59:685746,9,-2,20,25,18,-16,-26,0
13:57:59:693399,9,-2,20,25,18,-16,-26,0
13:57:59:700725,12,6,2,-5,-9,60,54,-2
13:57:59:709019,-2,-6,-13,-14,-17,-12,-10,7
13:57:59:709762,-2,-6,-13,-14,-17,-12,-10,7
13:57:59:715706,3,8,46,-6,-12,-25,-29,-19
13:57:59:731486,-11,-8,11,-1,17,-2,19,-4
13:57:59:732268,-11,-8,11,-1,17,-2,19,-4
13:57:59:738314,6,-5,-26,-6,4,6,5,-4
13:57:59:745781,2,8,10,-9,-12,-17,-20,-8
13:57:59:753416,2,8,10,-9,-12,-17,-20,-8
13:57:59:760785,4,-3,-15,6,22,1,-26,4
13:57:59:768923,-19,-1,-14,-10,-17,-8,20,0
13:57:59:769735,-19,-1,-14,-10,-17,-8,20,0
13:57:59:775818,-9,-22,-15,-13,-33,-21,-5,-6
13:57:59:791522,-1,-2,1,-4,-13,11,7,6
13:57:59:792303,-1,-2,1,-4,-13,11,7,6
13:57:59:798220,-12,-9,-28,0,-8,-16,8,5
13:57:59:805748,-9,-9,-7,-9,5,3,-29,-12
13:57:59:813306,-9,-9,-7,-9,5,3,-29,-12
13:57:59:820898,2,-2,12,10,22,40,20,9
13:57:59:828970,-6,-12,-3,0,5,12,25,-4
13:57:59:829777,-6,-12,-3,0,5,12,25,-4
13:57:59:835762,16,62,38,-7,-13,-11,-3,-3
13:57:59:851447,-16,-21,-25,-7,-18,11,10,-4
13:57:59:852217,-16,-21,-25,-7,-18,11,10,-4
13:57:59:858366,-7,-21,-8,3,-7,-14,-53,-12
13:57:59:865773,5,-2,49,2,-4,-13,-14,-13
13:57:59:873372,5,-2,49,2,-4,-13,-14,-13
13:57:59:880725,-2,-19,-17,3,13,-20,-14,-3
13:57:59:888959,-13,-11,-39,4,25,18,15,5
13:57:59:889780,-13,-11,-39,4,25,18,15,5
13:57:59:895760,-17,-35,-26,-18,-16,13,8,4
13:57:59:911472,13,18,-1,-10,-16,-6,-16,5
13:57:59:912241,13,18,-1,-10,-16,-6,-16,5
13:57:59:926538,-4,-26,-12,3,4,-25,-7,-5
13:57:59:927254,10,-10,-5,5,11,1,12,9
13:57:59:933285,10,-10,-5,5,11,1,12,9
13:57:59:940868,-17,-18,-70,-3,-13,28,30,5
13:57:59:948949,-17,-18,-70,-3,-13,28,30,5
13:57:59:949726,12,29,-2,0,-7,-18,-30,-5
13:57:59:955769,12,2,42,7,-12,-9,-23,0
13:57:59:971490,12,2,42,7,-12,-9,-23,0
13:57:59:972237,-11,28,-9,-9,-3,-15,-18,-1
13:57:59:978288,7,1,-13,-9,11,16,25,2
13:57:59:993979,7,1,-13,-9,11,16,25,2
13:57:59:994769,31,11,27,23,28,12,1,16
13:58:00:760,18,14,-14,-6,-9,-23,-1,-1
13:58:00:9052,18,14,-14,-6,-9,-23,-1,-1
13:58:00:9725,-15,20,16,16,-12,-25,-10,-3
13:58:00:15730,-4,6,-2,-7,-13,25,14,-4
13:58:00:31500,-4,6,-2,-7,-13,25,14,-4
13:58:00:32232,8,4,4,-5,4,18,26,2
13:58:00:38363,-4,8,13,6,-2,-24,-8,-3
13:58:00:53970,-4,8,13,6,-2,-24,-8,-3
13:58:00:54683,-26,-33,-17,-3,-13,1,7,5
13:58:00:60783,-14,-39,-13,1,-3,-7,-5,-7
13:58:00:68935,-14,-39,-13,1,-3,-7,-5,-7
13:58:00:69743,0,-13,-37,-16,-7,0,3,-9
13:58:00:75871,1,0,27,3,-12,-16,-11,4
13:58:00:91487,1,0,27,3,-12,-16,-11,4
13:58:00:92206,-11,-11,20,-2,21,22,-28,-5
13:58:00:98208,-21,-13,12,0,3,-9,6,6
13:58:00:114019,-21,-13,12,0,3,-9,6,6
13:58:00:114788,-14,-4,4,-4,-18,-32,-1,-4
13:58:00:120769,-11,-12,-3,5,22,5,-24,-1
13:58:00:128969,-11,-12,-3,5,22,5,-24,-1
13:58:00:129759,-14,-10,18,-4,-19,7,7,-11
13:58:00:143303,36,23,21,11,6,-14,5,16
13:58:00:151485,36,23,21,11,6,-14,5,16
13:58:00:152263,36,9,23,0,-8,-21,12,1
13:58:00:158310,-5,-1,1,-8,-10,-33,-23,-8
13:58:00:182119,-5,-1,1,-8,-10,-33,-23,-8
13:58:00:182892,-4,26,-25,4,4,1,-12,3
13:58:00:183734,-5,1,-4,-1,9,18,-5,-4
13:58:00:188964,-5,1,-4,-1,9,18,-5,-4
13:58:00:189813,11,-20,-4,-8,-18,-5,-6,4
13:58:00:203342,-3,26,24,4,1,44,59,0
13:58:00:211494,-3,26,24,4,1,44,59,0
13:58:00:212263,10,1,2,3,23,19,23,-1
13:58:00:218229,-9,-14,-11,0,-25,11,56,-2
13:58:00:233943,-9,-14,-11,0,-25,11,56,-2
13:58:00:234717,-31,-29,-30,7,28,27,42,3
13:58:00:240812,18,-4,11,-4,6,-20,-31,-7
13:58:00:248938,18,-4,11,-4,6,-20,-31,-7
13:58:00:249751,1,-7,-15,-14,-12,-3,-12,-3
13:58:00:263357,2,20,23,10,4,0,-5,-1
13:58:00:271528,2,20,23,10,4,0,-5,-1
13:58:00:272243,6,-5,-12,-6,-5,-17,-18,0
13:58:00:278274,-21,-17,-32,-10,-15,-13,-25,-17
13:58:00:293973,-21,-17,-32,-10,-15,-13,-25,-17
13:58:00:294770,4,-4,30,5,-3,7,26,5
13:58:00:300743,-24,-2,-17,-8,14,-4,-26,1
13:58:00:309037,-24,-2,-17,-8,14,-4,-26,1
13:58:00:309759,-3,11,-6,-13,13,20,-7,-1
13:58:00:323327,3,-4,-15,4,6,-23,-8,3
13:58:00:331493,3,-4,-15,4,6,-23,-8,3
13:58:00:332220,5,8,13,-2,-16,-37,-9,-3
13:58:00:338299,10,-19,-31,-19,-20,-14,-23,-8
13:58:00:362180,10,-19,-31,-19,-20,-14,-23,-8
13:58:00:362935,-3,-32,-3,9,1,21,8,2
13:58:00:363756,2,12,15,12,8,-32,-37,1
13:58:00:369045,2,12,15,12,8,-32,-37,1
13:58:00:369836,-10,8,10,1,4,-8,-14,-5
13:58:00:383242,24,5,-1,-10,-12,-10,25,9
13:58:00:391572,24,5,-1,-10,-12,-10,25,9
13:58:00:392275,-20,0,-11,0,-7,-4,-18,-10
13:58:00:398252,-11,13,18,9,0,24,7,-2
13:58:00:413973,-11,13,18,9,0,24,7,-2
13:58:00:414763,22,11,9,2,-8,-30,-17,-2
13:58:00:420832,9,-28,7,-8,-1,2,6,3
13:58:00:429021,9,-28,7,-8,-1,2,6,3
13:58:00:429772,1,2,-38,-6,6,50,42,5
13:58:00:443299,31,19,7,1,0,25,46,2
13:58:00:451445,31,19,7,1,0,25,46,2
13:58:00:452249,-16,-15,-1,-13,-12,-43,-38,-12
13:58:00:458286,-37,6,-10,11,-5,16,-3,-2
13:58:00:474017,-37,6,-10,11,-5,16,-3,-2
13:58:00:474702,-23,0,1,1,0,11,0,1
13:58:00:480742,6,-11,-3,2,16,6,-7,-2
13:58:00:488970,6,-11,-3,2,16,6,-7,-2
13:58:00:489780,-2,-15,-4,-3,0,9,7,-4
13:58:00:503288,-10,-25,-16,-1,1,32,24,5
13:58:00:511485,-10,-25,-16,-1,1,32,24,5
13:58:00:512254,11,16,-15,-9,4,0,-6,-5
13:58:00:518234,2,31,-3,2,-6,-24,-16,2
13:58:00:533965,2,31,-3,2,-6,-24,-16,2
13:58:00:534748,-7,-15,17,0,-17,-21,-23,-5
13:58:00:540781,-18,0,2,3,25,11,-8,-6
13:58:00:548949,-18,0,2,3,25,11,-8,-6
13:58:00:549740,22,11,9,8,5,-7,-1,5
13:58:00:563221,15,-8,-1,-16,-16,25,6,7
13:58:00:571507,15,-8,-1,-16,-16,25,6,7
13:58:00:572217,3,-1,3,-3,11,45,10,5
13:58:00:578257,-39,-5,-10,10,-1,-12,5,-11
13:58:00:593949,-39,-5,-10,10,-1,-12,5,-11
13:58:00:594776,-17,18,17,5,-6,-20,-27,-6
13:58:00:600722,-2,-14,5,-7,3,-14,-35,-6
13:58:00:609034,-2,-14,5,-7,3,-14,-35,-6
13:58:00:609711,-1,9,13,11,-9,-19,11,2
13:58:00:623349,1,-8,-23,-2,-4,-2,22,0
13:58:00:631408,1,-8,-23,-2,-4,-2,22,0
13:58:00:632217,1,3,2,-6,-11,-7,0,-2
13:58:00:638269,2,-4,5,5,17,28,20,3
13:58:00:653984,2,-4,5,5,17,28,20,3
13:58:00:654769,9,-2,-18,-10,0,12,-11,0
13:58:00:660796,12,8,11,0,-10,-37,-6,-2
13:58:00:668968,12,8,11,0,-10,-37,-6,-2
13:58:00:669785,-2,5,4,6,22,28,23,6
13:58:00:683303,-12,25,1,-1,-28,-24,-23,-4
13:58:00:691525,-12,25,1,-1,-28,-24,-23,-4
13:58:00:692221,7,14,-20,-1,1,-12,-11,3
13:58:00:698285,16,11,7,-3,6,-16,-33,-1
13:58:00:714468,16,11,7,-3,6,-16,-33,-1
13:58:00:715150,-1,-31,1,-12,-4,15,51,6
13:58:00:720861,10,11,-7,2,0,32,45,7
13:58:00:728979,10,11,-7,2,0,32,45,7
13:58:00:729758,-24,-35,-1,3,-1,-3,7,-5
13:58:00:743282,11,-20,-7,-3,-4,-15,-19,-10
13:58:00:751457,11,-20,-7,-3,-4,-15,-19,-10
13:58:00:752188,17,-28,-3,0,-1,-17,-25,4
13:58:00:758325,4,-32,-33,-10,6,-3,-20,-1
13:58:00:774115,4,-32,-33,-10,6,-3,-20,-1
13:58:00:774782,27,-5,-10,-3,-9,-12,2,0
13:58:00:780766,-16,-20,-7,-8,1,-29,-35,-5
13:58:00:788930,-16,-20,-7,-8,1,-29,-35,-5
13:58:00:789716,1,7,-16,-5,-2,20,19,5
13:58:00:803282,-2,6,-5,1,-10,-5,14,0
13:58:00:811494,-2,6,-5,1,-10,-5,14,0
13:58:00:812284,2,9,-3,9,1,-13,-18,-10
13:58:00:818242,7,10,12,-7,16,26,12,1
13:58:00:833939,7,10,12,-7,16,26,12,1
13:58:00:834747,2,-2,10,-1,-9,3,14,4
13:58:00:840867,-13,1,0,0,-23,2,22,-3
13:58:00:856613,-13,1,0,0,-23,2,22,-3
13:58:00:857275,-9,16,3,-2,12,14,17,4
13:58:00:863270,-9,18,-17,-10,-4,-7,0,-8
13:58:00:871556,-9,18,-17,-10,-4,-7,0,-8
13:58:00:872264,-9,11,-5,-13,-2,-20,-16,-5
13:58:00:878277,-4,-2,12,5,20,17,-28,2
13:58:00:894003,-4,-2,12,5,20,17,-28,2
13:58:00:894829,-10,4,-21,2,-4,10,5,-3
13:58:00:900724,-56,-1,7,6,-4,2,27,-6
13:58:00:909071,-56,-1,7,6,-4,2,27,-6
13:58:00:909768,-10,-14,-11,11,-6,29,27,-2
13:58:00:923329,23,13,8,-4,2,-8,-14,3
13:58:00:931488,23,13,8,-4,2,-8,-14,3
13:58:00:932265,-16,6,1,-2,-3,-16,-24,-8
13:58:00:938308,11,5,9,-2,-5,-18,-31,3
13:58:00:953997,11,5,9,-2,-5,-18,-31,3
13:58:00:954730,8,-11,4,-8,4,-9,-18,-1
13:58:00:960752,3,2,8,-5,-3,-2,-4,-2
13:58:00:968968,3,2,8,-5,-3,-2,-4,-2
13:58:00:969761,15,-15,7,-1,-9,-35,-23,-6
13:58:00:983210,9,-32,10,2,20,75,92,19
13:58:00:991533,9,-32,10,2,20,75,92,19
13:58:00:992261,18,-11,1,10,0,-3,-17,1
13:58:00:998222,9,-11,-4,-7,-15,-23,-20,-14
13:58:01:13949,9,-11,-4,-7,-15,-23,-20,-14
13:58:01:14754,2,4,14,-11,-7,-20,-2,-4
13:58:01:20806,5,26,30,14,6,-1,9,2
13:58:01:28981,5,26,30,14,6,-1,9,2
13:58:01:29737,-1,10,11,-3,3,-8,-22,-3
13:58:01:43288,-37,-15,10,6,-1,-30,-61,-6
13:58:01:51466,-37,-15,10,6,-1,-30,-61,-6
13:58:01:52245,-4,7,7,10,13,20,-3,2
13:58:01:58322,31,30,8,-3,-8,-3,-19,2
13:58:01:74035,31,30,8,-3,-8,-3,-19,2
13:58:01:74795,-33,-26,-16,-10,-18,-16,-1,-1
13:58:01:80753,-2,-33,-13,9,-2,-24,-19,-13
13:58:01:88293,-2,-33,-13,9,-2,-24,-19,-13
13:58:01:95806,20,30,3,4,22,15,10,0
13:58:01:103352,7,8,3,-13,3,23,4,8
13:58:01:111442,7,8,3,-13,3,23,4,8
13:58:01:112246,-5,-6,-1,-2,-12,28,27,6
13:58:01:125764,-5,-12,-19,-5,-24,-17,6,-2
13:58:01:133953,-5,-12,-19,-5,-24,-17,6,-2
13:58:01:134723,13,0,-1,3,12,-15,-19,-2
13:58:01:140778,-50,8,-21,6,14,14,42,-2
13:58:01:148306,-50,8,-21,6,14,14,42,-2
13:58:01:155736,-6,9,-18,4,-2,-9,-10,-6
13:58:01:163275,5,-8,-45,-26,-14,-10,-10,2
13:58:01:171557,5,-8,-45,-26,-14,-10,-10,2
13:58:01:172267,1,4,7,-8,-8,-13,-1,3
13:58:01:185718,8,14,11,1,16,28,25,-1
13:58:01:193970,8,14,11,1,16,28,25,-1
13:58:01:194755,-2,-4,-8,4,8,21,-7,-13
13:58:01:200706,7,11,0,9,11,-11,-10,-4
13:58:01:208381,7,11,0,9,11,-11,-10,-4
13:58:01:215726,9,-9,-21,-10,0,-15,-4,-5
13:58:01:223341,4,-6,3,5,-10,-8,-1,6
13:58:01:231480,4,-6,3,5,-10,-8,-1,6
13:58:01:232207,-2,-21,-13,2,-5,1,15,-7
13:58:01:245766,7,13,-13,-1,3,-5,-5,5
13:58:01:254062,7,13,-13,-1,3,-5,-5,5
13:58:01:254777,8,27,22,3,-9,-12,-5,3
13:58:01:260800,5,-11,10,-3,-9,-8,-22,-7
13:58:01:268253,5,-11,10,-3,-9,-8,-22,-7
13:58:01:275831,-7,1,-20,-5,-13,0,-10,-1
13:58:01:283245,-11,7,42,2,5,11,10,4
13:58:01:291555,-11,7,42,2,5,11,10,4
13:58:01:292220,3,-25,-2,0,5,-6,-5,5
13:58:01:305755,-7,-21,-15,-12,-19,-15,-22,-10
13:58:01:313950,-7,-21,-15,-12,-19,-15,-22,-10
13:58:01:314728,-36,-6,20,8,-4,-9,-2,-4
13:58:01:320798,4,-12,-7,4,-3,-30,-52,-4
13:58:01:328315,4,-12,-7,4,-3,-30,-52,-4
13:58:01:335739,16,7,12,-2,7,12,6,1
13:58:01:343334,17,21,-10,9,30,9,13,7
13:58:01:351453,17,21,-10,9,30,9,13,7
13:58:01:352241,3,-9,15,-7,-7,-3,-11,6
13:58:01:365777,-19,-2,2,11,2,4,31,-4
13:58:01:374006,-19,-2,2,11,2,4,31,-4
13:58:01:374810,-21,2,1,-6,-4,10,19,-5
13:58:01:380717,5,8,-5,-2,-6,63,10,8
13:58:01:388398,5,8,-5,-2,-6,63,10,8
13:58:01:395798,7,4,-8,-17,-29,-27,1,-2
13:58:01:403461,13,5,-15,4,10,-10,-6,5
13:58:01:411523,13,5,-15,4,10,-10,-6,5
13:58:01:412277,-2,4,0,1,7,4,-14,1
13:58:01:425810,9,1,5,-2,-17,-12,8,-9
13:58:01:433940,9,1,5,-2,-17,-12,8,-9
13:58:01:434736,6,1,-23,11,6,-36,-10,-5
13:58:01:440855,1,-8,-10,-11,-9,-4,8,8
13:58:01:448324,1,-8,-10,-11,-9,-4,8,8
13:58:01:455785,14,0,14,9,14,28,-21,-10
13:58:01:472145,-2,-16,-19,-8,4,-2,17,-5
13:58:01:472921,-2,-16,-19,-8,4,-2,17,-5
13:58:01:473755,9,5,13,-1,-1,-1,-2,-3
13:58:01:485802,4,-9,1,-10,-19,-4,-32,-6
13:58:01:493993,4,-9,1,-10,-19,-4,-32,-6
13:58:01:494781,-2,16,4,4,-6,5,-15,0
13:58:01:500717,6,1,21,-3,10,-14,0,3
13:58:01:508388,6,1,21,-3,10,-14,0,3
13:58:01:515752,-15,-7,-6,-8,-17,-17,-7,-6
13:58:01:523299,-7,1,-3,8,2,24,26,-5
13:58:01:531465,-7,1,-3,8,2,24,26,-5
13:58:01:532260,0,-17,-1,2,19,38,13,8
13:58:01:545757,4,12,-3,-6,-11,-16,-6,-6
13:58:01:554051,4,12,-3,-6,-11,-16,-6,-6
13:58:01:554763,8,-20,-1,-8,-15,24,39,11
13:58:01:560784,-5,-1,-1,1,4,13,15,-6
13:58:01:568301,-5,-1,-1,1,4,13,15,-6
13:58:01:575804,-10,-9,5,-2,1,-32,-19,-3
13:58:01:583217,-8,9,19,4,-3,20,33,6
13:58:01:591541,-8,9,19,4,-3,20,33,6
13:58:01:592259,-10,-7,-2,13,18,3,7,-4
13:58:01:605735,7,-22,-18,-10,-5,-24,-25,2
13:58:01:614031,7,-22,-18,-10,-5,-24,-25,2
13:58:01:614796,-2,12,28,6,8,-4,-2,-2
13:58:01:620848,-7,0,27,6,-1,12,10,4
13:58:01:628360,-7,0,27,6,-1,12,10,4
13:58:01:635769,8,10,-12,0,2,1,15,1
13:58:01:643326,-1,11,-23,-13,-19,-28,-28,-5
13:58:01:651469,-1,11,-23,-13,-19,-28,-28,-5
13:58:01:652252,-31,-1,-10,-6,-3,-11,14,-6
13:58:01:665771,-19,-22,-42,-18,-1,-2,-17,-8
13:58:01:673981,-19,-22,-42,-18,-1,-2,-17,-8
13:58:01:674735,8,1,-7,-12,-33,-25,-19,-5
13:58:01:680763,4,-8,-11,2,9,6,-10,-2
13:58:01:688303,4,-8,-11,2,9,6,-10,-2
13:58:01:695794,-23,-1,-9,-5,4,-6,-33,-21
13:58:01:703443,21,-22,-4,-2,-1,-17,-10,9
13:58:01:711520,21,-22,-4,-2,-1,-17,-10,9
13:58:01:712259,-10,-8,-18,-8,-12,-18,-64,-4
13:58:01:725852,-8,-15,-18,14,5,15,11,0
13:58:01:733938,-8,-15,-18,14,5,15,11,0
13:58:01:734709,22,1,9,12,34,6,20,2
13:58:01:740848,10,-5,15,-5,-4,-5,-17,-3
13:58:01:748285,10,-5,15,-5,-4,-5,-17,-3
13:58:01:755748,1,-5,-37,-11,-6,-4,17,9
13:58:01:763260,-3,16,4,4,-12,10,15,-8
13:58:01:771504,-3,16,4,4,-12,10,15,-8
13:58:01:772316,15,18,6,0,-5,2,30,2
13:58:01:786557,-2,16,39,6,8,0,-13,6
13:58:01:787293,-2,16,39,6,8,0,-13,6
13:58:01:793295,10,-12,14,0,10,4,11,6
13:58:01:800707,-18,-5,1,2,-6,-30,-46,-7
13:58:01:808365,-18,-5,1,2,-6,-30,-46,-7
13:58:01:815718,-12,2,-11,3,-5,3,-3,-13
13:58:01:823376,7,-10,-16,-1,23,9,38,1
13:58:01:831488,7,-10,-16,-1,23,9,38,1
13:58:01:832262,3,28,4,1,-2,0,-20,-2
13:58:01:846492,0,10,-3,-14,-24,-48,-23,-4
13:58:01:847272,0,10,-3,-14,-24,-48,-23,-4
13:58:01:853252,7,-17,-2,3,2,44,24,6
13:58:01:860769,-2,5,14,3,-6,8,35,2
13:58:01:868317,-2,5,14,3,-6,8,35,2
13:58:01:875817,0,-9,35,8,10,9,-11,3
13:58:01:883213,-13,-9,-7,-2,-3,2,14,-3
13:58:01:891556,-13,-9,-7,-2,-3,2,14,-3
13:58:01:892280,-9,2,-4,-8,-6,-21,-5,-4
13:58:01:906536,-34,-20,-2,7,2,35,12,-8
13:58:01:907253,-34,-20,-2,7,2,35,12,-8
13:58:01:913269,-8,-11,-10,-6,-9,-9,0,4
13:58:01:920806,6,40,0,2,2,-7,-21,-5
13:58:01:928332,6,40,0,2,2,-7,-21,-5
13:58:01:935768,-18,-10,-18,-4,-4,-4,-27,-5
13:58:01:943311,23,1,7,8,25,19,-10,7
13:58:01:951479,23,1,7,8,25,19,-10,7
13:58:01:952233,8,-8,-56,-12,-8,-6,20,-4
13:58:01:966467,0,-11,-13,-13,-16,-30,-9,-3
13:58:01:967215,0,-11,-13,-13,-16,-30,-9,-3
13:58:01:973340,12,-8,-7,-8,-4,26,39,-3
13:58:01:980771,17,4,11,8,17,14,-8,7
13:58:01:988359,17,4,11,8,17,14,-8,7
13:58:01:995699,0,2,23,8,13,-8,-16,2
13:58:02:3339,-8,-3,-11,-18,-12,-21,-6,0
13:58:02:10822,-8,-3,-11,-18,-12,-21,-6,0
13:58:02:18215,-2,-8,4,9,5,-4,-28,-4
13:58:02:26544,25,24,24,13,8,26,42,19
13:58:02:27276,25,24,24,13,8,26,42,19
13:58:02:33232,-25,18,8,-8,-15,-25,2,-7
13:58:02:48955,-27,6,11,-5,-14,-24,-32,-9
13:58:02:49738,-27,6,11,-5,-14,-24,-32,-9
13:58:02:55751,0,11,24,5,8,-6,8,-1
13:58:02:63289,6,-13,-19,-9,-2,7,22,2
13:58:02:70961,6,-13,-19,-9,-2,7,22,2
13:58:02:78313,-6,-23,-32,-6,0,-2,-37,4
13:58:02:86542,12,-24,0,13,28,3,9,-1
13:58:02:87273,12,-24,0,13,28,3,9,-1
13:58:02:93376,-12,9,-1,-10,-13,5,-16,-1
13:58:02:108996,3,3,-3,-7,-11,-12,-9,-10
13:58:02:109786,3,3,-3,-7,-11,-12,-9,-10
13:58:02:115706,12,8,18,16,35,11,47,6
13:58:02:123299,-25,14,-16,1,-10,18,10,-10
13:58:02:130864,-25,14,-16,1,-10,18,10,-10
13:58:02:138301,-1,-10,2,-2,-12,-11,8,5
13:58:02:146475,11,-21,-8,0,-2,-18,1,-2
13:58:02:147214,11,-21,-8,0,-2,-18,1,-2
13:58:02:153353,16,6,-1,3,-1,-2,1,2
13:58:02:169006,-9,-5,20,-7,-6,7,-14,-1
13:58:02:169796,-9,-5,20,-7,-6,7,-14,-1
13:58:02:175837,2,-9,-1,-10,-16,-15,8,-8
13:58:02:183245,13,-5,-8,1,-12,-3,-6,8
13:58:02:190877,13,-5,-8,1,-12,-3,-6,8
13:58:02:198262,8,-10,-8,1,10,19,-3,11
13:58:02:206494,-2,-8,1,-2,-11,13,4,-2
13:58:02:207217,-2,-8,1,-2,-11,13,4,-2
13:58:02:213208,-8,25,4,9,-9,6,27,-5
13:58:02:228970,-1,13,-2,-3,-7,-17,12,-3
13:58:02:229763,-1,13,-2,-3,-7,-17,12,-3
13:58:02:235795,-6,-37,-12,-5,-3,6,-8,-6
13:58:02:243317,-7,26,14,7,7,6,-3,-3
13:58:02:250763,-7,26,14,7,7,6,-3,-3
13:58:02:258286,28,44,4,-4,1,0,-7,12
13:58:02:266450,-12,-10,-16,-1,10,44,37,12
13:58:02:267227,-12,-10,-16,-1,10,44,37,12
13:58:02:273279,11,-10,2,10,5,39,36,3
13:58:02:288936,0,-15,10,4,11,-11,-23,-4
13:58:02:289735,0,-15,10,4,11,-11,-23,-4
13:58:02:295737,-10,-7,-43,-6,-11,-37,-31,2
13:58:02:303361,7,-1,-8,-4,-7,-16,-7,-1
13:58:02:310831,7,-1,-8,-4,-7,-16,-7,-1
13:58:02:318224,-19,-11,-1,-9,-18,-7,-20,-7
13:58:02:326504,8,8,-13,-5,-7,-43,-28,-12
13:58:02:327290,8,8,-13,-5,-7,-43,-28,-12
13:58:02:333253,13,-7,-11,-6,14,17,13,4
13:58:02:348974,-14,3,3,-12,-14,-27,-23,-2
13:58:02:349771,-14,3,3,-12,-14,-27,-23,-2
13:58:02:355760,-19,-4,15,11,5,10,19,-10
13:58:02:363239,-29,-28,-17,-2,-3,-17,-5,-15
13:58:02:370932,-29,-28,-17,-2,-3,-17,-5,-15
13:58:02:378293,-10,-20,40,-6,-16,-14,-16,-1
13:58:02:386567,-6,-13,15,12,12,0,-7,3
13:58:02:387270,-6,-13,15,12,12,0,-7,3
13:58:02:393278,-2,10,1,4,21,27,7,-16
13:58:02:409003,-13,5,0,-6,-9,21,9,3
13:58:02:409771,-13,5,0,-6,-9,21,9,3
13:58:02:415703,-4,-17,-20,-11,-16,-37,-28,-4
13:58:02:423316,12,14,-9,1,-9,-5,-3,1
13:58:02:430826,12,14,-9,1,-9,-5,-3,1
13:58:02:438289,-4,14,5,2,1,-14,-42,4
13:58:02:446477,7,3,3,10,22,6,3,3
13:58:02:447237,7,3,3,10,22,6,3,3
13:58:02:453314,-20,-13,8,-3,-8,-4,17,-4
13:58:02:469010,-5,-6,-20,-7,-3,-4,-9,-8
13:58:02:469796,-5,-6,-20,-7,-3,-4,-9,-8
13:58:02:475846,-13,-1,0,4,6,-22,-30,-2
13:58:02:483251,-13,-18,-4,-11,0,33,20,2
13:58:02:490899,-13,-18,-4,-11,0,33,20,2
13:58:02:498251,1,12,-7,-7,-16,1,1,2
13:58:02:506530,41,21,20,3,13,5,-6,3
13:58:02:507243,41,21,20,3,13,5,-6,3
13:58:02:513237,-6,10,16,1,-6,3,3,-1
13:58:02:528947,-1,-18,-36,-6,-10,-8,-9,-9
13:58:02:529737,-1,-18,-36,-6,-10,-8,-9,-9
13:58:02:535772,14,4,12,7,3,-1,-3,2
13:58:02:543262,-5,-1,11,4,23,42,36,4
13:58:02:550770,-5,-1,11,4,23,42,36,4
13:58:02:558278,10,0,-17,-15,-11,-2,-7,-3
13:58:02:566486,5,5,2,-11,-15,-21,-12,-2
13:58:02:567240,5,5,2,-11,-15,-21,-12,-2
13:58:02:573265,-2,-13,0,3,14,8,3,0
13:58:02:588947,-16,52,-3,6,-10,11,8,-7
13:58:02:589722,-16,52,-3,6,-10,11,8,-7
13:58:02:595746,3,18,10,-3,-3,-10,12,-1
13:58:02:603255,-30,-17,7,-6,-6,-14,-15,-7
13:58:02:610816,-30,-17,7,-6,-6,-14,-15,-7
13:58:02:618238,-3,8,4,7,20,21,1,1
13:58:02:626590,13,-9,-21,3,16,3,-19,5
13:58:02:627309,13,-9,-21,3,16,3,-19,5
13:58:02:633224,-5,-14,-18,-2,-12,16,21,4
13:58:02:648962,2,-2,10,-3,-19,-20,15,-8
13:58:02:649737,2,-2,10,-3,-19,-20,15,-8
13:58:02:655747,30,24,4,4,10,20,30,12
13:58:02:663303,1,4,10,-2,-5,14,-5,-5
13:58:02:670906,1,4,10,-2,-5,14,-5,-5
13:58:02:678276,19,-1,3,6,0,-8,-8,5
13:58:02:686571,-2,-4,9,1,-2,3,-8,-1
13:58:02:687260,-2,-4,9,1,-2,3,-8,-1
13:58:02:693288,-10,-15,-3,-13,-12,2,-4,-5
13:58:02:709059,8,-9,3,-5,-6,-12,-8,5
13:58:02:709796,8,-9,3,-5,-6,-12,-8,5
13:58:02:715719,-21,-10,-26,-13,-6,-2,9,-12
13:58:02:723303,-7,-26,2,7,15,-2,-6,-6
13:58:02:730850,-7,-26,2,7,15,-2,-6,-6
13:58:02:738283,-10,-9,4,5,-10,-20,-5,-13
13:58:02:746482,4,9,-5,2,-3,-2,12,4
13:58:02:747254,4,9,-5,2,-3,-2,12,4
13:58:02:753347,9,4,10,7,3,15,5,-3
13:58:02:768888,18,10,10,-1,-4,-28,-15,4
13:58:02:769692,18,10,10,-1,-4,-28,-15,4
13:58:02:775799,-9,1,-7,-2,-2,-18,-15,1
13:58:02:783230,1,-7,-32,-8,-11,-52,-53,-5
13:58:02:790886,1,-7,-32,-8,-11,-52,-53,-5
13:58:02:798268,9,6,-22,-2,17,8,16,8
13:58:02:806578,-22,-5,-5,9,19,10,14,-4
13:58:02:807224,-22,-5,-5,9,19,10,14,-4
13:58:02:813211,-1,-11,1,-5,-10,-19,-10,-3
13:58:02:828933,-18,-1,-8,-7,-20,-12,-31,-10
13:58:02:829737,-18,-1,-8,-7,-20,-12,-31,-10
13:58:02:835790,-5,-15,11,2,12,23,2,0
13:58:02:843293,7,-1,26,-5,4,13,11,6
13:58:02:850754,7,-1,26,-5,4,13,11,6
13:58:02:858256,0,4,-40,-5,-15,-29,-20,-6
13:58:02:866474,-15,0,1,-5,1,69,65,5
13:58:02:867240,-15,0,1,-5,1,69,65,5
13:58:02:873235,-6,-6,11,1,-5,0,7,2
13:58:02:888939,10,24,-8,0,-14,-27,-19,0
13:58:02:889740,10,24,-8,0,-14,-27,-19,0
13:58:02:895718,7,-10,0,-3,9,13,-5,1
13:58:02:903365,8,4,7,1,2,11,11,7
13:58:02:910858,8,4,7,1,2,11,11,7
13:58:02:918224,1,0,-20,-5,-14,-13,-1,-4
13:58:02:926544,-6,-14,3,5,22,-23,-45,-6
13:58:02:927284,-6,-14,3,5,22,-23,-45,-6
13:58:02:933219,-14,8,3,4,0,31,-5,7
13:58:02:948935,-1,-24,-12,-6,2,24,21,6
13:58:02:949771,-1,-24,-12,-6,2,24,21,6
13:58:02:955738,-5,11,18,-7,-9,-20,-12,-11
13:58:02:971566,12,11,11,-2,-9,-8,0,-3
13:58:02:972224,12,11,11,-2,-9,-8,0,-3
13:58:02:978228,-2,-9,5,9,-14,2,17,1
13:58:02:986540,-16,6,-20,2,14,14,33,-5
13:58:02:987300,-16,6,-20,2,14,14,33,-5
13:58:03:718,-1,12,5,7,12,-7,-11,-2
13:58:03:9022,-7,-3,3,-6,-21,17,49,1
13:58:03:9720,-7,-3,3,-6,-21,17,49,1
13:58:03:15713,6,0,11,-3,-4,-19,5,-5
13:58:03:31549,-14,-19,-15,6,1,-28,-7,-1
13:58:03:32243,-14,-19,-15,6,1,-28,-7,-1
13:58:03:38359,5,-1,12,6,26,5,14,-2
13:58:03:46505,15,-13,-7,-5,0,27,-4,6
13:58:03:47337,15,-13,-7,-5,0,27,-4,6
13:58:03:60829,-7,-6,-16,-12,-14,-13,-15,0
13:58:03:68960,11,-6,19,1,-7,2,-20,-1
13:58:03:69758,11,-6,19,1,-7,2,-20,-1
13:58:03:75799,2,6,7,-5,-13,-17,-4,-3
13:58:03:91552,-6,7,9,3,12,17,14,0
13:58:03:92222,-6,7,9,3,12,17,14,0
13:58:03:98221,18,-5,-2,-11,8,0,-5,6
13:58:03:106529,-6,9,4,10,-8,-42,-17,-7
13:58:03:107282,-6,9,4,10,-8,-42,-17,-7
13:58:03:120822,-4,9,0,0,-6,4,4,2
13:58:03:128936,2,-7,-7,-7,-3,-10,-13,-3
13:58:03:129768,2,-7,-7,-7,-3,-10,-13,-3
13:58:03:135732,6,-3,-4,2,4,18,-5,0
13:58:03:151432,-5,-29,-7,0,12,0,-2,3
13:58:03:152224,-5,-29,-7,0,12,0,-2,3
13:58:03:158317,-2,-2,8,-5,-5,-3,-4,-6
13:58:03:166826,18,16,-4,-1,-12,-9,-16,5
13:58:03:173354,18,16,-4,-1,-12,-9,-16,5
13:58:03:180745,-15,4,-3,1,-1,8,13,-5
13:58:03:188943,7,0,11,3,9,-12,-20,0
13:58:03:189769,7,0,11,3,9,-12,-20,0
13:58:03:195746,7,-6,-4,-2,-15,-20,-15,-9
13:58:03:211517,-3,3,5,-11,-7,2,17,-3
13:58:03:212268,-3,3,5,-11,-7,2,17,-3
13:58:03:218226,-4,-4,-3,5,16,-5,-18,7
13:58:03:226539,11,27,11,-1,-11,6,-4,6
13:58:03:227271,11,27,11,-1,-11,6,-4,6
13:58:03:240870,-2,9,-8,10,10,10,17,-9
13:58:03:248901,-8,0,-8,-10,-21,-56,-24,-6
13:58:03:249716,-8,0,-8,-10,-21,-56,-24,-6
13:58:03:255747,2,0,17,4,10,15,-5,6
13:58:03:271436,-5,-19,8,-7,-10,-4,-4,-12
13:58:03:272234,-5,-19,8,-7,-10,-4,-4,-12
13:58:03:278306,-7,-12,-10,4,3,-6,-5,1
13:58:03:285795,-7,-12,-10,4,3,-6,-5,1
13:58:03:293285,-10,9,-3,-4,9,19,-9,-2
13:58:03:300712,29,10,7,2,-1,6,-2,16
13:58:03:309056,29,10,7,2,-1,6,-2,16
13:58:03:309763,4,-3,-7,6,-9,47,62,11
13:58:03:315695,13,-3,-6,2,17,62,57,1
13:58:03:331524,13,-3,-6,2,17,62,57,1
13:58:03:332236,-10,-13,-9,10,9,-13,-4,-4
13:58:03:338258,3,6,4,-12,-13,-45,-28,-5
13:58:03:345822,3,6,4,-12,-13,-45,-28,-5
13:58:03:353305,-2,0,-23,-11,-15,8,-1,1
13:58:03:360729,-9,7,-2,-6,-10,-21,-2,-5
13:58:03:369022,-9,7,-2,-6,-10,-21,-2,-5
13:58:03:369767,10,4,19,11,19,9,23,5
13:58:03:375798,-14,9,17,-5,2,15,19,-5
13:58:03:391527,-14,9,17,-5,2,15,19,-5
13:58:03:392266,-6,-9,-8,-1,-8,-19,-27,-11
13:58:03:398204,0,2,-4,6,14,7,-8,3
13:58:03:405842,0,2,-4,6,14,7,-8,3
13:58:03:413270,8,12,19,3,13,4,-6,-2
13:58:03:420812,-14,-23,-2,-5,-23,-19,4,-4
13:58:03:428935,-14,-23,-2,-5,-23,-19,4,-4
13:58:03:429708,-8,12,-1,-9,-8,20,43,-3
13:58:03:435771,-2,-6,15,3,2,-6,-25,2
13:58:03:451474,-2,-6,15,3,2,-6,-25,2
13:58:03:452261,-6,-6,-13,-3,8,-24,-41,-7
13:58:03:458344,1,-13,1,2,-8,14,8,8
13:58:03:474035,1,-13,1,2,-8,14,8,8
13:58:03:474776,19,16,-9,-3,-12,-17,-22,4
13:58:03:480697,-2,22,-4,0,2,-25,-39,-10
13:58:03:488980,-2,22,-4,0,2,-25,-39,-10
13:58:03:489746,-18,-6,3,-4,-2,5,5,-6
13:58:03:495765,2,-6,-12,-5,2,8,16,-2
13:58:03:511523,2,-6,-12,-5,2,8,16,-2
13:58:03:512263,-4,-15,-11,7,3,3,-1,-2
13:58:03:518228,2,4,-5,0,11,-8,-30,5
13:58:03:525919,2,4,-5,0,11,-8,-30,5
13:58:03:533266,5,-9,1,2,5,1,-8,11
13:58:03:540834,-11,-12,-15,-4,-18,-9,0,-6
13:58:03:548902,-11,-12,-15,-4,-18,-9,0,-6
13:58:03:549729,-7,3,-4,0,-4,-7,3,-1
13:58:03:555742,-1,20,15,1,-11,38,45,-10
13:58:03:571519,-1,20,15,1,-11,38,45,-10
13:58:03:572247,3,-3,31,4,15,8,2,-7
13:58:03:578275,-21,-11,-7,-1,18,-6,-11,3
13:58:03:585785,-21,-11,-7,-1,18,-6,-11,3
13:58:03:593353,0,8,1,-3,4,-4,2,1
13:58:03:600731,-45,-21,8,4,-16,12,-2,-3
13:58:03:609002,-45,-21,8,4,-16,12,-2,-3
13:58:03:609764,-23,-1,-16,-5,-5,-11,-28,1
13:58:03:615705,28,-20,-14,-11,-26,-20,29,0
13:58:03:631494,28,-20,-14,-11,-26,-20,29,0
13:58:03:632185,4,-5,-6,3,17,8,-10,-11
13:58:03:638302,-15,-10,-10,-9,-2,-3,-9,0
13:58:03:645815,-15,-10,-10,-9,-2,-3,-9,0
13:58:03:653369,2,0,-9,-10,-13,-9,-3,-2
13:58:03:660774,2,6,11,13,8,-12,-14,0
13:58:03:668998,2,6,11,13,8,-12,-14,0
13:58:03:669803,-2,0,-4,-7,-2,35,5,2
13:58:03:675820,16,2,-6,4,1,50,35,13
13:58:03:691576,16,2,-6,4,1,50,35,13
13:58:03:692235,8,15,23,12,3,5,12,1
13:58:03:698236,-34,-14,-21,-20,-4,-22,-21,-15
13:58:03:705811,-34,-14,-21,-20,-4,-22,-21,-15
13:58:03:713239,8,-17,-9,2,-2,-3,-6,1
13:58:03:720754,7,17,12,-4,6,-13,0,0
13:58:03:728994,7,17,12,-4,6,-13,0,0
13:58:03:729763,-18,-14,-11,-7,-2,-20,-2,-1
13:58:03:735745,14,-6,-18,-1,-6,-31,-19,-4
13:58:03:751464,14,-6,-18,-1,-6,-31,-19,-4
13:58:03:752210,3,-11,26,4,4,32,37,4
13:58:03:758299,21,-10,0,-10,-15,-6,-18,6
13:58:03:766459,21,-10,0,-10,-15,-6,-18,6
13:58:03:767236,-9,-29,-12,3,-2,-17,-16,-6
13:58:03:780814,-20,9,5,7,20,-12,-10,-9
13:58:03:788979,-20,9,5,7,20,-12,-10,-9
13:58:03:789743,-17,-6,-13,-15,-9,-5,5,-1
13:58:03:795774,3,-2,18,12,6,4,2,-8
13:58:03:811507,3,-2,18,12,6,4,2,-8
13:58:03:812291,3,11,-51,-5,15,-2,19,0
13:58:03:818211,3,-44,12,-4,-7,-12,-24,4
13:58:03:826573,3,-44,12,-4,-7,-12,-24,4
13:58:03:827239,7,15,13,1,-18,-31,-17,-2
13:58:03:840785,-17,-1,-13,-1,-6,-31,-9,-10
13:58:03:848928,-17,-1,-13,-1,-6,-31,-9,-10
13:58:03:849715,9,3,23,23,26,47,26,9
13:58:03:855703,-25,21,-14,-4,17,18,5,-4
13:58:03:871569,-25,21,-14,-4,17,18,5,-4
13:58:03:872215,6,10,-9,-19,-29,-20,-14,-2
13:58:03:878231,18,15,-14,-3,-4,14,0,3
13:58:03:886541,18,15,-14,-3,-4,14,0,3
13:58:03:887286,-36,3,0,-9,-17,-11,-1,-2
13:58:03:900767,11,5,-18,-7,5,7,2,6
13:58:03:908992,11,5,-18,-7,5,7,2,6
13:58:03:909720,20,39,53,7,9,2,3,2
13:58:03:923308,2,17,8,-5,-4,-3,12,-6
13:58:03:931497,2,17,8,-5,-4,-3,12,-6
13:58:03:932274,16,-6,-9,-12,-12,-6,-17,3
13:58:03:938317,20,12,30,10,14,12,15,8
13:58:03:945784,20,12,30,10,14,12,15,8
13:58:03:953318,4,-7,-10,9,28,7,15,2
13:58:03:960759,-15,-16,-5,1,-20,-8,-12,-15
13:58:03:968959,-15,-16,-5,1,-20,-8,-12,-15
13:58:03:969717,-5,-8,33,0,-21,-24,-24,-6
13:58:03:983222,10,-1,4,-10,-15,-12,5,-1
13:58:03:991541,10,-1,4,-10,-15,-12,5,-1
13:58:03:992230,3,-2,-5,16,6,15,-4,-6
13:58:03:998198,-15,9,18,15,14,17,42,11
13:58:04:5844,-15,9,18,15,14,17,42,11
13:58:04:13242,9,-16,-22,-4,-5,-6,6,6
13:58:04:20794,8,6,-9,-3,8,4,-29,-2
13:58:04:28999,8,6,-9,-3,8,4,-29,-2
13:58:04:29785,4,-7,-5,-1,-2,-2,-22,1
13:58:04:43311,7,-10,-6,-1,-8,1,14,-4
13:58:04:51519,7,-10,-6,-1,-8,1,14,-4
13:58:04:52212,-7,-9,-5,0,-7,-3,-6,-7
13:58:04:58341,25,-6,-21,3,12,-3,-8,-3
13:58:04:65768,25,-6,-21,3,12,-3,-8,-3
13:58:04:73289,2,26,-26,-12,-4,-12,8,12
13:58:04:80755,-8,-1,18,-7,7,8,-12,1
13:58:04:88895,-8,-1,18,-7,7,8,-12,1
13:58:04:89741,5,14,-10,12,4,43,43,2
13:58:04:103283,36,20,-25,-9,-7,2,-2,8
13:58:04:111534,36,20,-25,-9,-7,2,-2,8
13:58:04:112250,-30,-5,-5,-12,-7,-19,-2,-14
13:58:04:118296,-5,-2,-13,-5,-12,-20,-15,0
13:58:04:125841,-5,-2,-13,-5,-12,-20,-15,0
13:58:04:133282,3,-9,-9,10,8,6,7,6
13:58:04:140846,-10,-10,1,-4,-5,-16,-11,-4
13:58:04:148951,-10,-10,1,-4,-5,-16,-11,-4
13:58:04:149727,21,-4,30,5,18,23,40,-5
13:58:04:163313,-22,1,8,-3,-5,-12,-14,-7
13:58:04:171585,-22,1,8,-3,-5,-12,-14,-7
13:58:04:172248,-6,-12,-3,-14,0,-26,-16,-2
13:58:04:178277,-16,0,17,8,-20,4,-16,-14
13:58:04:185773,-16,0,17,8,-20,4,-16,-14
13:58:04:193239,-11,-9,-20,1,21,19,-33,-11
13:58:04:200713,-4,3,-13,-14,-10,6,-17,7
13:58:04:209072,-4,3,-13,-14,-10,6,-17,7
13:58:04:209787,-3,4,22,-4,-7,1,2,1
13:58:04:223373,-4,-10,8,7,-1,0,24,3
13:58:04:239658,-4,-10,8,7,-1,0,24,3
13:58:04:240448,-9,3,-4,-4,-10,-23,-4,-3
13:58:04:241242,-28,-26,2,3,-12,-3,18,-3
13:58:04:245806,-28,-26,2,3,-12,-3,18,-3
13:58:04:253334,10,-2,-10,13,17,2,-12,1
13:58:04:260807,10,-4,14,-2,22,11,-8,-3
13:58:04:268948,10,-4,14,-2,22,11,-8,-3
13:58:04:269782,-2,0,3,-5,-22,-11,3,4
13:58:04:283234,-1,-4,-35,-9,-2,-7,3,6
13:58:04:291530,-1,-4,-35,-9,-2,-7,3,6
13:58:04:292239,-14,4,-9,1,17,46,70,-2
13:58:04:298237,-26,-22,-11,-3,10,4,-10,-6
13:58:04:305813,-26,-22,-11,-3,10,4,-10,-6
13:58:04:313254,7,23,12,-3,-26,-23,-34,-6
13:58:04:320780,4,-1,-7,7,13,8,6,-1
13:58:04:328995,4,-1,-7,7,13,8,6,-1
13:58:04:329770,-14,-3,10,-9,-10,-16,-26,-5
13:58:04:343269,-4,-13,3,-3,-7,7,-6,-4
13:58:04:351471,-4,-13,3,-3,-7,7,-6,-4
13:58:04:352220,-3,-29,-16,1,1,-9,-30,-2
13:58:04:358299,8,10,12,0,-6,-1,32,4
13:58:04:365742,8,10,12,0,-6,-1,32,4
13:58:04:373423,25,10,7,-5,-7,-12,-33,-2
13:58:04:380745,10,-7,6,-1,3,12,53,7
13:58:04:389002,10,-7,6,-1,3,12,53,7
13:58:04:389778,-11,16,-3,0,-10,-13,9,-2
13:58:04:403270,-2,34,16,1,3,-5,-2,1
13:58:04:411529,-2,34,16,1,3,-5,-2,1
13:58:04:412301,-15,-41,-6,-8,-15,-10,6,-3
13:58:04:418227,-12,-24,-5,-2,17,8,-11,7
13:58:04:425930,-12,-24,-5,-2,17,8,-11,7
13:58:04:433230,-2,0,23,-5,1,-5,-10,-3
13:58:04:440885,18,-4,-7,1,-5,-2,-19,-8
13:58:04:448971,18,-4,-7,1,-5,-2,-19,-8
13:58:04:449795,2,6,7,6,10,-11,1,0
13:58:04:463284,5,9,-3,-9,-21,-9,-3,-3
13:58:04:471555,5,9,-3,-9,-21,-9,-3,-3
13:58:04:472249,-23,8,-31,1,2,23,44,-3
13:58:04:478237,0,2,-4,-5,-6,-25,-27,2
13:58:04:485815,0,2,-4,-5,-6,-25,-27,2
13:58:04:493321,-3,4,-10,7,8,41,33,5
13:58:04:500740,-3,6,-6,3,-5,7,16,0
13:58:04:508965,-3,6,-6,3,-5,7,16,0
13:58:04:509698,20,10,15,-2,-3,-14,-35,-1
13:58:04:523285,8,14,-12,-2,24,2,-9,-9
13:58:04:531406,8,14,-12,-2,24,2,-9,-9
13:58:04:532194,1,-19,-14,-12,-1,-9,8,9
13:58:04:538337,15,14,25,4,-4,-5,-8,9
13:58:04:545802,15,14,25,4,-4,-5,-8,9
13:58:04:553286,-11,2,7,15,0,-21,-18,-1
13:58:04:560808,-15,14,-9,-5,1,4,34,-5
13:58:04:568941,-15,14,-9,-5,1,4,34,-5
13:58:04:569775,4,2,-23,-18,-21,-21,-9,3
13:58:04:583253,-18,-8,5,17,37,14,-9,1
13:58:04:591557,-18,-8,5,17,37,14,-9,1
13:58:04:592278,-6,4,16,0,1,11,-11,-4
13:58:04:598238,-7,-4,-9,-12,-20,-8,-5,-3
13:58:04:605790,-7,-4,-9,-12,-20,-8,-5,-3
13:58:04:613241,-9,-38,-20,0,21,-16,-21,-9
13:58:04:620770,14,-6,9,-3,-11,-4,-7,5
13:58:04:629016,14,-6,9,-3,-11,-4,-7,5
13:58:04:629759,3,-10,17,-4,-8,12,4,-5
13:58:04:643322,9,-16,-19,3,-6,-9,-4,-2
13:58:04:651502,9,-16,-19,3,-6,-9,-4,-2
13:58:04:652203,3,13,20,5,19,14,22,1
13:58:04:658256,9,-7,-10,-14,-20,-20,-10,-3
13:58:04:665766,9,-7,-10,-14,-20,-20,-10,-3
13:58:04:673258,-51,-2,-9,0,4,50,42,0
13:58:04:680720,-6,22,14,2,9,24,8,-8
13:58:04:688978,-6,22,14,2,9,24,8,-8
13:58:04:689750,1,10,11,0,-6,-2,-16,-7
13:58:04:703225,-11,10,-38,-8,3,-9,-9,-4
13:58:04:711509,-11,10,-38,-8,3,-9,-9,-4
13:58:04:712264,38,-14,-3,-12,-10,-24,-33,4
13:58:04:718240,2,-7,8,2,5,7,-5,-3
13:58:04:725900,2,-7,8,2,5,7,-5,-3
13:58:04:733260,-8,8,7,8,-5,-5,-4,-3
13:58:04:740776,2,-10,11,0,-3,5,-5,1
13:58:04:748297,2,-10,11,0,-3,5,-5,1
13:58:04:755777,6,0,-23,-2,-2,-17,-15,-2
13:58:04:763262,-4,-3,-3,0,-4,-7,7,-2
13:58:04:771564,-4,-3,-3,0,-4,-7,7,-2
13:58:04:772198,13,11,13,-4,5,3,13,1
13:58:04:778270,15,-10,-4,-5,-5,35,66,5
13:58:04:785775,15,-10,-4,-5,-5,35,66,5
13:58:04:793297,-1,-14,-3,4,-10,-13,8,0
13:58:04:800707,-21,3,3,12,4,-20,-29,-3
13:58:04:809048,-21,3,3,12,4,-20,-29,-3
13:58:04:809735,5,20,2,3,-3,7,-47,-12
13:58:04:823303,-11,-25,3,3,-21,-16,-18,-1
13:58:04:831488,-11,-25,3,3,-21,-16,-18,-1
13:58:04:832220,-12,-5,11,11,18,-2,8,3
13:58:04:838239,-2,-10,-8,-6,-2,-11,-21,-16
13:58:04:845793,-2,-10,-8,-6,-2,-11,-21,-16
13:58:04:853328,11,0,-10,-10,-12,-12,-14,-1
13:58:04:860752,17,-4,3,0,-4,31,38,10
13:58:04:868337,17,-4,3,0,-4,31,38,10
13:58:04:875894,-9,4,-22,-10,-7,-3,-14,-5
13:58:04:883274,-10,-4,-14,-12,-5,-30,-19,7
13:58:04:891574,-10,-4,-14,-12,-5,-30,-19,7
13:58:04:892309,-1,-5,-2,18,21,5,-24,-4
13:58:04:906549,15,-3,19,1,11,24,-2,2
13:58:04:907303,15,-3,19,1,11,24,-2,2
13:58:04:913221,2,0,2,-8,-9,-14,-1,2
13:58:04:920788,-3,4,8,4,1,-20,-27,-5
13:58:04:928338,-3,4,8,4,1,-20,-27,-5
13:58:04:935764,2,-6,-10,9,-4,10,18,-3
13:58:04:943345,-11,-3,-19,-3,4,0,29,-5
13:58:04:951420,-11,-3,-19,-3,4,0,29,-5
13:58:04:952199,4,-5,-10,-18,-17,-9,11,4
13:58:04:966369,25,5,-3,3,-4,5,-4,16
13:58:04:967173,25,5,-3,3,-4,5,-4,16
13:58:04:973306,-25,4,2,9,-7,-5,-6,-6
13:58:04:980779,15,-5,-3,-10,9,3,-24,-2
13:58:04:988315,15,-5,-3,-10,9,3,-24,-2
13:58:04:995808,30,-17,-17,-6,3,-16,21,7
13:58:05:3311,-9,11,7,-6,-4,-3,-6,-11
13:58:05:11526,-9,11,7,-6,-4,-3,-6,-11
13:58:05:12253,-44,-5,-21,-10,-13,-3,14,-3
13:58:05:26505,-21,6,7,3,-2,5,7,-3
13:58:05:27278,-21,6,7,3,-2,5,7,-3
13:58:05:33247,25,11,13,3,2,4,8,1
13:58:05:40897,1,15,-8,3,-10,-1,-20,0
13:58:05:48293,1,15,-8,3,-10,-1,-20,0
13:58:05:55717,-1,1,24,-1,5,24,25,2
13:58:05:63254,30,1,18,8,-2,-8,3,4
13:58:05:71528,30,1,18,8,-2,-8,3,4
13:58:05:72226,-1,14,-4,-6,-14,6,-10,0
13:58:05:86464,-4,12,-8,-13,-9,-16,-5,-3
13:58:05:87219,-4,12,-8,-13,-9,-16,-5,-3
13:58:05:93275,23,-3,18,4,13,17,24,8
13:58:05:100686,-6,-30,-19,11,-13,-23,3,-4
13:58:05:108384,-6,-30,-19,11,-13,-23,3,-4
13:58:05:115722,-10,-9,3,11,19,7,-9,0
13:58:05:123246,-1,-21,-16,0,27,-11,-12,5
13:58:05:131516,-1,-21,-16,0,27,-11,-12,5
13:58:05:132279,-6,-1,6,-3,-7,-27,-31,-4
13:58:05:146531,-4,-2,3,-6,-13,-4,-15,2
13:58:05:147311,-4,-2,3,-6,-13,-4,-15,2
13:58:05:153237,12,-12,-3,-12,-18,-12,-8,0
13:58:05:160767,-61,1,1,-12,-6,4,0,-5
13:58:05:168357,-61,1,1,-12,-6,4,0,-5
13:58:05:175844,19,6,-9,3,4,-1,0,3
13:58:05:183228,2,-20,35,5,3,10,9,-2
13:58:05:191586,2,-20,35,5,3,10,9,-2
13:58:05:192332,-21,2,-4,-3,9,5,0,-8
13:58:05:206552,8,9,-17,-5,1,21,42,-2
13:58:05:207312,8,9,-17,-5,1,21,42,-2
13:58:05:213281,15,-8,-6,2,2,-2,-12,2
13:58:05:220861,-5,5,-10,-7,-18,-23,-15,-8
13:58:05:228382,-5,5,-10,-7,-18,-23,-15,-8
13:58:05:235778,-19,11,1,3,3,14,-12,6
13:58:05:243281,2,23,3,4,24,8,8,7
13:58:05:251499,2,23,3,4,24,8,8,7
13:58:05:252157,-16,-11,-25,-6,6,-1,9,-4
13:58:05:266479,-12,11,0,-9,-17,-8,-8,-16
13:58:05:267228,-12,11,0,-9,-17,-8,-8,-16
13:58:05:273365,-12,-30,17,-1,3,3,12,-5
13:58:05:280776,16,3,5,2,-1,26,13,13
13:58:05:288300,16,3,5,2,-1,26,13,13
13:58:05:295751,-17,-13,-7,-13,-37,-9,-18,-6
13:58:05:303289,7,-11,5,14,37,1,-2,0
13:58:05:311540,7,-11,5,14,37,1,-2,0
13:58:05:312273,29,18,6,10,22,9,11,12
13:58:05:326513,9,-22,-9,-9,-12,-1,6,-3
13:58:05:327242,9,-22,-9,-9,-12,-1,6,-3
13:58:05:333206,7,6,-15,-3,-9,-24,-2,-9
13:58:05:340797,-11,-16,17,1,-7,-15,-24,-1
13:58:05:348268,-11,-16,17,1,-7,-15,-24,-1
13:58:05:355752,-4,17,8,0,2,-2,10,-8
13:58:05:363212,-1,1,-13,4,-3,-10,-11,-15
13:58:05:371560,-1,1,-13,4,-3,-10,-11,-15
13:58:05:372238,-27,-33,0,-6,2,5,19,-7
13:58:05:386455,-1,1,12,2,-6,1,-4,2
13:58:05:387260,-1,1,12,2,-6,1,-4,2
13:58:05:393316,-16,9,-2,4,1,-6,-8,-1
13:58:05:400703,6,-10,-41,-7,-11,-12,-1,-2
13:58:05:408333,6,-10,-41,-7,-11,-12,-1,-2
13:58:05:415716,-3,-12,-6,-4,7,5,-4,9
13:58:05:423307,-6,14,7,5,19,28,20,5
13:58:05:431480,-6,14,7,5,19,28,20,5
13:58:05:432250,16,36,4,0,7,6,-2,6
13:58:05:446560,-4,2,15,-7,-8,10,12,0
13:58:05:447262,-4,2,15,-7,-8,10,12,0
13:58:05:453374,-1,13,17,-7,-6,-44,-39,-2
13:58:05:460784,11,-2,-13,4,1,13,27,2
13:58:05:468328,11,-2,-13,4,1,13,27,2
13:58:05:475811,2,-15,-13,-1,-9,-8,-7,-2
13:58:05:483248,24,19,42,12,5,-8,-13,2
13:58:05:491512,24,19,42,12,5,-8,-13,2
13:58:05:492247,-3,3,-3,-3,-12,-7,-5,-5
13:58:05:506537,-15,0,-5,-8,-10,1,19,3
13:58:05:507266,-15,0,-5,-8,-10,1,19,3
13:58:05:513250,-1,0,17,6,4,11,-4,-5
13:58:05:520852,-13,-19,12,4,-1,-5,-12,-5
13:58:05:528333,-13,-19,12,4,-1,-5,-12,-5
13:58:05:535823,-6,-14,0,5,13,12,13,-5
13:58:05:543271,24,-7,-22,-7,-12,-29,-21,4
13:58:05:551494,24,-7,-22,-7,-12,-29,-21,4
13:58:05:552190,8,-2,2,4,13,13,18,9
13:58:05:566414,6,19,-7,-7,2,4,3,-2
13:58:05:567217,6,19,-7,-7,2,4,3,-2
13:58:05:573321,13,15,-8,-5,-18,-3,-18,-10
13:58:05:580781,-1,4,-18,-1,-6,-1,-14,8
13:58:05:588294,-1,4,-18,-1,-6,-1,-14,8
13:58:05:595730,-12,10,-2,5,2,18,30,1
13:58:05:603303,-14,9,4,8,-3,14,22,-5
13:58:05:611556,-14,9,4,8,-3,14,22,-5
13:58:05:612250,6,-16,-17,-10,8,-1,-19,-7
13:58:05:626526,3,-8,5,7,10,-5,4,0
13:58:05:627264,3,-8,5,7,10,-5,4,0
13:58:05:633195,5,20,-1,1,-18,-8,0,-3
13:58:05:640779,13,13,-7,-9,1,-7,-29,-2
13:58:05:648302,13,13,-7,-9,1,-7,-29,-2
13:58:05:655785,0,-30,-21,-11,1,-11,-17,-3
13:58:05:663242,-2,0,-8,-2,-5,-10,-8,-1
13:58:05:671532,-2,0,-8,-2,-5,-10,-8,-1
13:58:05:672233,-8,5,7,-2,-20,-14,-9,-8
13:58:05:686491,-19,-14,34,8,37,5,-5,-8
13:58:05:687279,-19,-14,34,8,37,5,-5,-8
13:58:05:693301,31,13,5,-2,-1,-12,20,8
13:58:05:700715,-21,-21,21,6,3,-4,-1,-5
13:58:05:708414,-21,-21,21,6,3,-4,-1,-5
13:58:05:715714,-10,-17,0,-7,-14,-4,-12,-4
13:58:05:723309,10,8,2,-5,-13,6,24,4
13:58:05:731508,10,8,2,-5,-13,6,24,4
13:58:05:732299,-1,-4,-11,5,4,4,7,1
13:58:05:746518,5,5,-17,-6,-5,-13,-10,-1
13:58:05:747254,5,5,-17,-6,-5,-13,-10,-1
13:58:05:753274,-6,11,10,-2,13,25,6,1
13:58:05:760753,2,-9,-14,-2,2,9,1,-3
13:58:05:768305,2,-9,-14,-2,2,9,1,-3
13:58:05:775827,-2,-2,4,-8,-10,6,-2,5
13:58:05:783203,-10,-18,-10,-2,-10,2,18,4
13:58:05:791005,-10,-18,-10,-2,-10,2,18,4
13:58:05:798257,-2,-31,-17,0,3,-13,6,2
13:58:05:806915,8,-24,-3,1,9,17,17,1
13:58:05:813942,8,-24,-3,1,9,17,17,1
13:58:05:814728,5,6,-7,-13,-5,1,-30,-1
13:58:05:828932,-3,-3,-1,6,-12,1,13,-4
13:58:05:829739,-3,-3,-1,6,-12,1,13,-4
13:58:05:835774,11,2,3,-1,9,-13,1,-2
13:58:05:843275,-25,4,-15,-4,-11,-25,-32,-19
13:58:05:850767,-25,4,-15,-4,-11,-25,-32,-19
13:58:05:858303,11,-8,1,4,-6,6,24,10
13:58:05:866406,12,28,9,2,23,26,7,8
13:58:05:867232,12,28,9,2,23,26,7,8
13:58:05:873271,-2,44,13,4,15,34,-1,-3
13:58:05:888912,-10,-19,-7,-3,-10,2,-5,4
13:58:05:889720,-10,-19,-7,-3,-10,2,-5,4
13:58:05:895701,-9,-5,12,6,7,-9,-10,7
13:58:05:903252,-8,18,2,1,-3,-22,-32,2
13:58:05:910815,-8,18,2,1,-3,-22,-32,2
13:58:05:918184,-14,12,-5,-3,-17,-25,-9,-18
13:58:05:926585,11,-7,8,3,17,23,59,11
13:58:05:927280,11,-7,8,3,17,23,59,11
13:58:05:933223,13,-16,5,-9,-7,-17,0,0
13:58:05:948942,31,15,-9,4,2,-28,-39,-6
13:58:05:949755,31,15,-9,4,2,-28,-39,-6
13:58:05:955762,-23,-6,7,10,7,5,24,-10
13:58:05:971522,20,-5,-14,-12,-15,48,46,5
13:58:05:972208,20,-5,-14,-12,-15,48,46,5
13:58:05:978218,-8,5,8,3,-11,-16,-26,0
13:58:05:986566,-5,10,-13,-15,-8,10,-22,-3
13:58:05:987292,-5,10,-13,-15,-8,10,-22,-3
13:58:05:993294,8,-15,2,6,3,6,-10,-7
13:58:06:9044,-26,-9,-10,-6,-12,-29,6,-7
13:58:06:9767,-26,-9,-10,-6,-12,-29,6,-7
13:58:06:15730,1,-17,-14,-4,-9,21,14,7
13:58:06:23299,5,22,18,4,2,0,-20,-1
13:58:06:30832,5,22,18,4,2,0,-20,-1
13:58:06:38221,-16,-16,-1,-8,5,-16,-7,3
13:58:06:46515,-15,15,3,-9,-4,-7,-1,1
13:58:06:47295,-15,15,3,-9,-4,-7,-1,1
13:58:06:53350,30,24,-3,-5,-4,0,16,7
13:58:06:68980,0,23,-7,-4,-6,-29,-58,-2
13:58:06:69796,0,23,-7,-4,-6,-29,-58,-2
13:58:06:75811,-11,-12,-9,0,2,10,-2,-7
13:58:06:83206,0,-15,2,11,16,26,33,6
13:58:06:90913,0,-15,2,11,16,26,33,6
13:58:06:98251,-35,3,-7,-7,-8,11,7,-7
13:58:06:106433,-10,11,10,-4,-6,-21,-24,-13
13:58:06:107276,-10,11,10,-4,-6,-21,-24,-13
13:58:06:113261,-11,7,-2,3,-2,-6,7,5
13:58:06:128951,-17,-14,0,3,1,-34,-40,-8
13:58:06:129757,-17,-14,0,3,1,-34,-40,-8
13:58:06:135762,40,-2,-6,2,2,-7,-1,7
13:58:06:143310,15,-36,-15,-5,-4,-30,-38,-2
13:58:06:150770,15,-36,-15,-5,-4,-30,-38,-2
13:58:06:158325,19,-33,-3,-1,11,20,15,6
13:58:06:166439,8,10,-2,-4,-7,-7,0,-1
13:58:06:167212,8,10,-2,-4,-7,-7,0,-1
13:58:06:173277,-15,22,-30,-7,-9,-8,-7,-10
13:58:06:188896,2,7,8,9,8,2,4,1
13:58:06:189727,2,7,8,9,8,2,4,1
13:58:06:195794,9,4,-1,7,12,1,14,1
13:58:06:203505,-4,-4,-6,-3,-2,11,6,-3
13:58:06:210784,-4,-4,-6,-3,-2,11,6,-3
13:58:06:218228,-21,2,17,0,7,-4,-13,-5
13:58:06:226485,-17,-13,7,4,-2,17,4,-6
13:58:06:227258,-17,-13,7,4,-2,17,4,-6
13:58:06:233190,3,-14,5,0,-7,14,2,-1
13:58:06:248933,1,-15,-14,-2,-11,-2,2,9
13:58:06:249746,1,-15,-14,-2,-11,-2,2,9
13:58:06:255735,-2,9,-3,2,7,-6,-19,-1
13:58:06:263252,10,-3,-1,-7,6,-5,3,2
13:58:06:270903,10,-3,-1,-7,6,-5,3,2
13:58:06:278245,-4,1,14,-1,-10,-11,13,0
13:58:06:286524,12,-15,4,9,9,8,-2,-2
13:58:06:287302,12,-15,4,9,9,8,-2,-2
13:58:06:293248,-6,-17,-4,-11,-26,-13,-18,-14
13:58:06:308998,-20,-1,-23,1,8,-6,-23,-6
13:58:06:309790,-20,-1,-23,1,8,-6,-23,-6
13:58:06:315684,4,35,-8,-3,-3,-3,-12,6
13:58:06:323321,-23,-5,7,-15,-7,3,15,0
13:58:06:330830,-23,-5,7,-15,-7,3,15,0
13:58:06:338197,-21,-6,9,-2,-15,-23,-36,1
13:58:06:346516,3,8,9,5,1,12,22,3
13:58:06:347269,3,8,9,5,1,12,22,3
13:58:06:353323,-13,-14,6,-1,11,20,8,-2
13:58:06:368991,13,-19,6,-2,-2,-15,-24,-7
13:58:06:369752,13,-19,6,-2,-2,-15,-24,-7
13:58:06:375846,-4,-4,-4,-3,2,-1,6,5
13:58:06:383262,0,-25,-20,-5,-11,5,18,-3
13:58:06:391002,0,-25,-20,-5,-11,5,18,-3
13:58:06:398240,10,-4,-4,-2,-5,-27,-12,-2
13:58:06:406454,11,27,9,11,9,-1,-10,9
13:58:06:407243,11,27,9,11,9,-1,-10,9
13:58:06:413210,-6,-9,-15,7,10,28,20,-3
13:58:06:428924,-3,0,-5,-3,-10,-15,-28,-26
13:58:06:429734,-3,0,-5,-3,-10,-15,-28,-26
13:58:06:435761,25,43,8,-6,2,0,27,16
13:58:06:443264,14,17,6,6,-2,6,37,14
13:58:06:450780,14,17,6,6,-2,6,37,14
13:58:06:458347,-2,-25,-12,13,12,36,5,-9
13:58:06:466402,-4,8,20,3,15,10,7,8
13:58:06:467239,-4,8,20,3,15,10,7,8
13:58:06:473275,2,-1,24,-2,-7,-17,-8,3
13:58:06:489021,-29,4,7,-8,-12,-11,-1,-8
13:58:06:489722,-29,4,7,-8,-12,-11,-1,-8
13:58:06:495779,-14,-21,-4,5,12,5,1,-1
13:58:06:503280,16,6,-7,2,10,12,13,0
13:58:06:510770,16,6,-7,2,10,12,13,0
13:58:06:518206,25,-4,-6,-7,-17,-12,16,-9
13:58:06:526490,0,-11,-4,1,-7,0,2,5
13:58:06:527269,0,-11,-4,1,-7,0,2,5
13:58:06:533191,16,5,-6,-3,-9,-9,-6,0
13:58:06:548946,-9,-1,-11,-11,-7,-11,-25,-9
13:58:06:549705,-9,-1,-11,-11,-7,-11,-25,-9
13:58:06:555780,-16,7,3,-3,7,10,21,-3
13:58:06:563250,-7,-6,1,3,-3,9,11,4
13:58:06:570930,-7,-6,1,3,-3,9,11,4
13:58:06:578250,-20,-25,-20,-5,-1,8,-9,-15
13:58:06:586492,-14,-19,0,-6,2,-25,-14,-11
13:58:06:587249,-14,-19,0,-6,2,-25,-14,-11
13:58:06:593271,5,26,15,2,-10,-15,-50,-7
13:58:06:609037,5,-28,-9,-5,-20,7,24,10
13:58:06:609784,5,-28,-9,-5,-20,7,24,10
13:58:06:615688,-23,8,-6,0,-7,-18,-24,-8
13:58:06:631552,-23,8,-6,0,-7,-18,-24,-8
13:58:06:632235,-19,-7,-1,-7,3,13,3,6
13:58:06:638291,24,-9,5,0,-9,-11,-31,0
13:58:06:646524,24,-9,5,0,-9,-11,-31,0
13:58:06:647252,13,16,-4,5,15,7,7,-11
13:58:06:653210,8,6,-4,-6,-2,14,4,13
13:58:06:668976,8,6,-4,-6,-2,14,4,13
13:58:06:669745,-17,11,21,1,-8,-13,-34,-7
13:58:06:675811,-5,15,-2,3,11,-8,9,7
13:58:06:691479,-5,15,-2,3,11,-8,9,7
13:58:06:692231,-6,9,-8,-5,-5,-6,-8,-3
13:58:06:698216,-12,-6,-7,1,6,-4,39,1
13:58:06:706552,-12,-6,-7,1,6,-4,39,1
13:58:06:707247,-1,-7,3,-6,-1,-4,-10,-11
13:58:06:713241,21,23,11,4,16,52,47,6
13:58:06:728978,21,23,11,4,16,52,47,6
13:58:06:729743,-12,1,-5,1,-4,-8,-19,7
13:58:06:735785,-4,-11,-5,3,-5,-34,-25,1
13:58:06:751435,-4,-11,-5,3,-5,-34,-25,1
13:58:06:752175,27,26,3,7,3,3,-1,7
13:58:06:758321,-29,-11,-7,-12,0,-21,-37,-13
13:58:06:766507,-29,-11,-7,-12,0,-21,-37,-13
13:58:06:767152,-8,-28,-15,0,0,2,14,-5
13:58:06:780771,-16,-2,-12,-8,-14,-15,-17,0
13:58:06:788934,-16,-2,-12,-8,-14,-15,-17,0
13:58:06:789726,-2,22,31,1,-6,-3,8,3
13:58:06:795706,-44,-16,-2,0,-5,-9,0,-12
13:58:06:811486,-44,-16,-2,0,-5,-9,0,-12
13:58:06:812232,2,-19,-4,8,0,7,-20,-7
13:58:06:818239,5,10,13,3,2,8,18,-4
13:58:06:826530,5,10,13,3,2,8,18,-4
13:58:06:827243,2,-8,-12,-14,2,7,17,8
13:58:06:840851,23,27,-1,-2,3,1,-4,3
13:58:06:848922,23,27,-1,-2,3,1,-4,3
13:58:06:849688,-1,-2,-23,-7,-5,-15,-2,-5
13:58:06:855781,5,-20,0,3,-5,3,12,4
13:58:06:871567,5,-20,0,3,-5,3,12,4
13:58:06:872292,6,17,4,7,3,-1,3,4
13:58:06:878284,-3,-27,-20,-6,-1,3,-18,-7
13:58:06:886496,-3,-27,-20,-6,-1,3,-18,-7
13:58:06:887268,-16,-5,-3,1,7,-7,-10,0
13:58:06:900711,37,2,2,1,2,-11,4,5
13:58:06:908957,37,2,2,1,2,-11,4,5
13:58:06:909697,17,35,12,-9,-13,15,18,1
13:58:06:915707,6,2,12,5,5,18,0,-4
13:58:06:931572,6,2,12,5,5,18,0,-4
13:58:06:932268,-10,-14,2,-2,-17,4,-14,-3
13:58:06:938320,-8,-20,-8,-6,2,-8,-16,-4
13:58:06:946478,-8,-20,-8,-6,2,-8,-16,-4
13:58:06:947239,-19,-12,3,7,-4,41,27,6
13:58:06:960746,-19,2,0,-5,0,-7,0,-11
13:58:06:968985,-19,2,0,-5,0,-7,0,-11
13:58:06:969818,14,5,-5,-6,4,-31,0,-4
13:58:06:975842,-2,-5,3,7,5,22,12,6
13:58:06:991555,-2,-5,3,7,5,22,12,6
13:58:06:992246,19,8,-6,8,28,8,5,8
13:58:06:998216,-4,20,11,2,-2,-3,0,7
13:58:07:6549,-4,20,11,2,-2,-3,0,7
13:58:07:7357,-6,16,12,12,1,-11,-1,-4
13:58:07:20790,8,-1,1,6,-1,-6,-20,-6
13:58:07:28984,8,-1,1,6,-1,-6,-20,-6
13:58:07:29758,9,-12,-14,-11,-9,3,-2,4
13:58:07:35728,-18,-27,-10,-7,-10,-3,6,1
13:58:07:51476,-18,-27,-10,-7,-10,-3,6,1
13:58:07:52236,-21,-9,-8,-6,-14,-18,-25,-14
13:58:07:58308,3,-30,-14,-7,-4,-1,2,2
13:58:07:66494,3,-30,-14,-7,-4,-1,2,2
13:58:07:67236,-1,10,-8,-3,10,-7,-2,-3
13:58:07:80775,24,8,-14,-2,-3,55,44,4
13:58:07:89053,24,8,-14,-2,-3,55,44,4
13:58:07:89722,-2,-6,-6,-11,-9,-4,13,5
13:58:07:95788,5,29,-1,1,-11,-43,-27,-3
13:58:07:111554,5,29,-1,1,-11,-43,-27,-3
13:58:07:112179,10,-15,1,3,-4,2,-1,-1
13:58:07:118244,-18,4,6,3,25,1,-6,5
13:58:07:126595,-18,4,6,3,25,1,-6,5
13:58:07:127252,-30,-18,-7,1,5,0,16,-8
13:58:07:140774,-2,-8,-37,-11,-16,-13,-19,-6
13:58:07:148907,-2,-8,-37,-11,-16,-13,-19,-6
13:58:07:149695,16,-5,-2,3,9,8,6,3
13:58:07:155741,-5,56,26,-3,-9,6,24,4
13:58:07:171514,-5,56,26,-3,-9,6,24,4
13:58:07:172230,-5,13,16,-5,-13,-28,-41,-6
13:58:07:178212,3,-14,15,6,16,4,4,4
13:58:07:186647,3,-14,15,6,16,4,4,4
13:58:07:187279,1,-13,-11,-5,-8,-17,-6,-5
13:58:07:200731,13,3,-3,5,-15,-1,-18,-2
13:58:07:209016,13,3,-3,5,-15,-1,-18,-2
13:58:07:209741,-12,29,4,-7,7,-3,-18,-7
13:58:07:215677,11,-8,-5,-4,-8,12,44,5
13:58:07:231446,11,-8,-5,-4,-8,12,44,5
13:58:07:232206,16,6,3,-6,-2,22,-3,-7
13:58:07:238269,-17,-7,2,7,6,-15,-22,-10
13:58:07:246444,-17,-7,2,7,6,-15,-22,-10
13:58:07:247238,16,-6,-37,-8,20,58,36,15
13:58:07:260771,10,-20,3,1,-3,-16,-19,6
13:58:07:268937,10,-20,3,1,-3,-16,-19,6
13:58:07:269742,13,-3,4,4,-20,-26,8,-2
13:58:07:275838,1,-10,-1,4,9,3,0,-2
13:58:07:291539,1,-10,-1,4,9,3,0,-2
13:58:07:292240,-28,-18,-6,-6,0,-6,3,-8
13:58:07:298239,-12,-2,8,-10,-4,0,-3,-1
13:58:07:306565,-12,-2,8,-10,-4,0,-3,-1
13:58:07:307221,-1,9,6,3,-8,8,17,3
13:58:07:320785,19,-16,-6,0,-4,-2,19,-10
13:58:07:328945,19,-16,-6,0,-4,-2,19,-10
13:58:07:329674,1,1,8,12,14,-4,3,0
13:58:07:335762,-29,-6,1,-10,-5,-13,-7,-2
13:58:07:351405,-29,-6,1,-10,-5,-13,-7,-2
13:58:07:352196,-1,-25,5,0,-6,-14,-27,-2
13:58:07:358339,22,32,4,6,24,6,-8,7
13:58:07:366403,22,32,4,6,24,6,-8,7
13:58:07:367193,-8,-1,1,-7,-1,-24,0,-9
13:58:07:380767,1,-4,-9,-14,-14,-30,-30,-10
13:58:07:388910,1,-4,-9,-14,-14,-30,-30,-10
13:58:07:389697,-3,-10,-7,9,-2,11,17,5
13:58:07:395771,-13,-15,2,2,-9,2,-1,-2
13:58:07:411550,-13,-15,2,2,-9,2,-1,-2
13:58:07:412276,-5,-3,-7,-3,-3,-4,-9,-9
13:58:07:418256,-2,-1,-8,-4,10,3,8,-4
13:58:07:426469,-2,-1,-8,-4,10,3,8,-4
13:58:07:427247,1,-17,2,-2,-6,-8,-19,9
13:58:07:440844,-3,-15,5,2,3,18,-4,-1
13:58:07:448936,-3,-15,5,2,3,18,-4,-1
13:58:07:449736,-7,0,-6,2,0,-28,-29,-7
13:58:07:455765,-9,2,1,-1,-10,11,11,-2
13:58:07:471528,-9,2,1,-1,-10,11,11,-2
13:58:07:472265,-8,-22,-6,-1,1,-5,9,-3
13:58:07:478279,5,-10,-3,-1,-6,-4,-5,4
13:58:07:486489,5,-10,-3,-1,-6,-4,-5,4
13:58:07:487203,-2,8,-4,-11,-12,17,36,2
13:58:07:500733,0,-18,-18,-4,2,10,3,3
13:58:07:509022,0,-18,-18,-4,2,10,3,3
13:58:07:509763,3,15,9,4,1,14,-12,-2
13:58:07:515686,-19,3,0,1,8,25,28,-1
13:58:07:531518,-19,3,0,1,8,25,28,-1
13:58:07:532262,9,21,-6,-9,-14,-14,-13,1
13:58:07:538269,18,12,0,6,6,-11,-13,4
13:58:07:546544,18,12,0,6,6,-11,-13,4
13:58:07:547227,-13,-9,19,-1,5,2,-23,-1
13:58:07:560777,6,16,-1,-1,-5,-3,-21,-3
13:58:07:577107,6,16,-1,-1,-5,-3,-21,-3
13:58:07:577895,14,1,5,18,11,-2,2,1
13:58:07:578716,42,29,19,3,-4,16,20,20
13:58:07:591495,42,29,19,3,-4,16,20,20
13:58:07:592234,24,-3,-2,-9,-15,-45,-36,-6
13:58:07:598234,0,-9,-9,3,20,26,44,7
13:58:07:606518,0,-9,-9,3,20,26,44,7
13:58:07:607222,5,-6,-18,-3,-2,3,22,-2
13:58:07:620820,-3,-4,-7,-4,-13,-10,-21,1
13:58:07:628935,-3,-4,-7,-4,-13,-10,-21,1
13:58:07:629719,-11,-3,5,-8,-9,-9,-5,-4
13:58:07:635783,-16,-11,0,-1,-3,-5,-2,-12
13:58:07:651400,-16,-11,0,-1,-3,-5,-2,-12
13:58:07:652199,4,19,10,3,1,0,-2,-1
13:58:07:658320,6,4,12,2,7,-8,-16,1
13:58:07:666393,6,4,12,2,7,-8,-16,1
13:58:07:667188,11,-10,2,3,25,75,84,13
13:58:07:680763,-6,14,1,-5,-15,-19,-1,-11
13:58:07:688945,-6,14,1,-5,-15,-19,-1,-11
13:58:07:689750,-1,-7,1,1,-13,-10,-15,7
13:58:07:703225,-20,3,-12,-6,-5,-14,-11,-10
13:58:07:711562,-20,3,-12,-6,-5,-14,-11,-10
13:58:07:712270,-17,14,12,6,14,1,-4,-3
13:58:07:718202,-6,-12,1,-4,-8,-9,-2,2
13:58:07:725862,-6,-12,1,-4,-8,-9,-2,2
13:58:07:733268,-1,10,-1,-8,-12,-15,-15,4
13:58:07:740832,-1,-30,-13,-6,-7,-4,-18,-5
13:58:07:748952,-1,-30,-13,-6,-7,-4,-18,-5
13:58:07:749714,-14,-5,-7,-2,4,29,10,-6
13:58:07:763310,-14,-8,-2,3,21,29,51,0
13:58:07:771530,-14,-8,-2,3,21,29,51,0
13:58:07:772260,15,-10,-22,-6,-12,-24,-21,-3
13:58:07:778314,11,5,-3,7,-10,-9,-10,10
13:58:07:785755,11,5,-3,7,-10,-9,-10,10
13:58:07:793291,-11,-9,-11,-8,-8,-24,-45,-9
13:58:07:800743,20,11,9,6,2,1,8,2
13:58:07:809041,20,11,9,6,2,1,8,2
13:58:07:809760,-18,10,-11,-2,-1,4,0,-4
13:58:07:823298,-5,-1,4,-6,-14,-11,-13,-8
13:58:07:831456,-5,-1,4,-6,-14,-11,-13,-8
13:58:07:832203,3,5,3,5,0,-12,-6,-10
13:58:07:838238,-10,-10,-5,-4,-1,0,5,2
13:58:07:845807,-10,-10,-5,-4,-1,0,5,2
13:58:07:853310,6,3,-7,-5,-2,0,0,-3
13:58:07:860716,20,-2,3,-6,-8,-2,-6,4
13:58:07:868988,20,-2,3,-6,-8,-2,-6,4
13:58:07:869821,-6,3,16,4,2,4,8,2
13:58:07:883240,-21,0,-6,2,3,-19,-6,-6
13:58:07:891568,-21,0,-6,2,3,-19,-6,-6
13:58:07:892313,-5,-6,1,11,14,-6,-27,1
13:58:07:898230,7,6,4,-3,0,-6,-9,-1
13:58:07:905796,7,6,4,-3,0,-6,-9,-1
13:58:07:913280,7,-26,-18,-1,-5,6,-3,9
13:58:07:920850,-21,-30,-33,2,2,-7,-13,-7
13:58:07:928993,-21,-30,-33,2,2,-7,-13,-7
13:58:07:929796,-4,-16,-4,-2,-5,4,9,-10
13:58:07:943303,-6,-4,-6,3,-1,2,5,0
13:58:07:951531,-6,-4,-6,3,-1,2,5,0
13:58:07:952300,-1,7,7,1,1,18,26,4
13:58:07:958343,-19,16,8,-10,6,8,29,1
13:58:07:965810,-19,16,8,-10,6,8,29,1
13:58:07:973301,-9,-11,5,4,-2,-11,5,1
13:58:07:989706,2,-9,10,-3,-2,2,-13,-6
13:58:07:990401,2,-9,10,-3,-2,2,-13,-6
13:58:07:991206,-11,-8,24,2,21,11,4,-12
13:58:08:3245,4,16,1,8,-7,-7,-1,8
13:58:08:11553,4,16,1,8,-7,-7,-1,8
13:58:08:12211,1,24,-10,-12,-13,11,-4,3
13:58:08:18211,-9,-8,31,-2,-4,-13,-25,-4
13:58:08:25906,-9,-8,31,-2,-4,-13,-25,-4
13:58:08:33217,25,-7,4,1,8,-12,-3,-5
13:58:08:40809,1,34,-10,0,-1,14,4,-9
13:58:08:48879,1,34,-10,0,-1,14,4,-9
13:58:08:49673,-15,14,-10,-5,-1,-15,-2,4
13:58:08:63232,7,-15,-6,-1,7,6,2,0
13:58:08:71584,7,-15,-6,-1,7,6,2,0
13:58:08:72286,-3,34,-10,-18,-12,-2,-5,-1
13:58:08:78277,-5,-12,-2,-1,-7,-31,-25,-2
13:58:08:85794,-5,-12,-2,-1,-7,-31,-25,-2
13:58:08:93344,14,-12,1,15,13,-4,-15,3
13:58:08:100798,0,-19,-12,0,-2,-11,-31,-3
13:58:08:109017,0,-19,-12,0,-2,-11,-31,-3
13:58:08:109746,-11,-4,11,1,-10,-14,-15,-5
13:58:08:123275,13,1,-4,-3,8,1,-8,-2
13:58:08:131424,13,1,-4,-3,8,1,-8,-2
13:58:08:132190,0,0,12,0,-12,17,27,4
13:58:08:138335,9,6,-7,5,11,19,18,0
13:58:08:145844,9,6,-7,5,11,19,18,0
13:58:08:153276,-3,-14,-4,1,-1,2,7,-4
13:58:08:160787,-5,-3,-13,-6,-10,6,14,4
13:58:08:168953,-5,-3,-13,-6,-10,6,14,4
13:58:08:169724,18,5,8,1,8,19,11,10
13:58:08:183285,-1,16,16,0,2,-7,5,-3
13:58:08:191495,-1,16,16,0,2,-7,5,-3
13:58:08:192227,-28,-4,-2,-2,-1,-9,-1,-1
13:58:08:198198,-6,-27,3,1,-5,-5,-2,-2
13:58:08:205815,-6,-27,3,1,-5,-5,-2,-2
13:58:08:213235,-15,-13,-20,2,8,17,3,-7
13:58:08:220727,26,6,0,-7,-4,35,52,18
13:58:08:228963,26,6,0,-7,-4,35,52,18
13:58:08:229744,-8,-8,-1,-4,-3,-12,-17,-4
13:58:08:243319,7,9,40,-2,-3,-4,-16,-3
13:58:08:251445,7,9,40,-2,-3,-4,-16,-3
13:58:08:252215,3,8,14,-5,-17,10,32,-1
13:58:08:258255,-12,-23,-18,10,13,-8,-1,-7
13:58:08:265747,-12,-23,-18,10,13,-8,-1,-7
13:58:08:273312,10,-4,-13,-5,-2,-10,-8,-2
13:58:08:280752,-11,13,-3,-10,-16,-13,-16,-8
13:58:08:288979,-11,13,-3,-10,-16,-13,-16,-8
13:58:08:289774,-7,23,4,7,-2,19,37,2
13:58:08:303260,-3,6,-5,-9,-2,7,0,-10
13:58:08:311519,-3,6,-5,-9,-2,7,0,-10
13:58:08:312214,-11,-25,-27,3,9,-17,-5,13
13:58:08:318230,7,9,3,9,32,-6,-17,-4
13:58:08:325900,7,9,3,9,32,-6,-17,-4
13:58:08:333221,-3,-4,-13,-10,-10,-1,-7,-10
13:58:08:340835,0,-5,-2,-7,-16,-7,-16,-3
13:58:08:348940,0,-5,-2,-7,-16,-7,-16,-3
13:58:08:349687,11,-16,5,17,9,1,-14,5
13:58:08:363255,-9,11,-4,-1,7,8,6,3
13:58:08:371542,-9,11,-4,-1,7,8,6,3
13:58:08:372298,-15,-23,-8,-11,-6,-9,-5,-12
13:58:08:378271,16,-11,-23,4,-13,-12,-2,-5
13:58:08:385769,16,-11,-23,4,-13,-12,-2,-5
13:58:08:393325,-15,26,6,3,2,6,12,2
13:58:08:400756,-4,5,-3,-6,1,-2,-1,2
13:58:08:409045,-4,5,-3,-6,1,-2,-1,2
13:58:08:409707,2,3,7,-3,0,1,-27,-7
13:58:08:423350,-16,2,-17,-7,-6,2,-7,5
13:58:08:431462,-16,2,-17,-7,-6,2,-7,5
13:58:08:432250,-2,4,8,-7,-14,-5,-6,-7
13:58:08:438335,-1,-7,13,7,10,6,14,11
13:58:08:445803,-1,-7,13,7,10,6,14,11
13:58:08:453342,33,14,6,-1,12,-3,-18,4
13:58:08:460785,16,-2,14,-3,-15,-10,3,5
13:58:08:468934,16,-2,14,-3,-15,-10,3,5
13:58:08:469711,1,-13,-22,-7,-13,-11,5,-4
13:58:08:483288,3,-3,2,-1,-7,20,21,-2
13:58:08:491556,3,-3,2,-1,-7,20,21,-2
13:58:08:492300,-2,2,-3,-9,-10,-42,-41,0
13:58:08:498247,2,-14,-14,0,1,22,13,-1
13:58:08:505829,2,-14,-14,0,1,22,13,-1
13:58:08:513252,30,34,4,7,19,27,24,14
13:58:08:520811,-15,-7,12,-7,-13,-19,-15,-9
13:58:08:529007,-15,-7,12,-7,-13,-19,-15,-9
13:58:08:529777,7,-17,-1,-1,0,-14,-17,-6
13:58:08:543290,-10,-2,3,-6,-11,-9,2,-2
13:58:08:551461,-10,-2,3,-6,-11,-9,2,-2
13:58:08:552258,-2,-14,-8,-1,-5,-4,9,-1
13:58:08:558269,-2,23,-15,7,11,1,-7,2
13:58:08:565769,-2,23,-15,7,11,1,-7,2
13:58:08:573298,7,-4,15,9,14,36,47,6
13:58:08:580742,1,-1,6,6,-3,-14,-21,-3
13:58:08:588978,1,-1,6,6,-3,-14,-21,-3
13:58:08:589758,-29,14,0,-3,-13,-17,-12,-8
13:58:08:603245,1,14,7,-1,-8,-1,5,-6
13:58:08:611579,1,14,7,-1,-8,-1,5,-6
13:58:08:612279,-8,-3,14,2,15,17,4,-1
13:58:08:626519,10,15,1,-1,-2,-9,-16,4
13:58:08:627289,10,15,1,-1,-2,-9,-16,4
13:58:08:633199,4,-8,-26,-4,-10,1,20,5
13:58:08:640832,-13,-19,-10,-2,12,-2,1,-5
13:58:08:648265,-13,-19,-10,-2,12,-2,1,-5
13:58:08:655783,-8,-20,-2,-7,-1,-14,-25,0
13:58:08:663261,-9,8,-5,6,-8,-2,33,4
13:58:08:671450,-9,8,-5,6,-8,-2,33,4
13:58:08:672241,4,6,1,1,2,-8,-16,-11
13:58:08:686477,-10,-25,4,-4,-3,-7,-9,-1
13:58:08:687272,-10,-25,4,-4,-3,-7,-9,-1
13:58:08:693339,6,26,2,4,-3,-5,1,0
13:58:08:700755,11,7,7,6,17,13,7,-3
13:58:08:708427,11,7,7,6,17,13,7,-3
13:58:08:715701,-10,-7,10,0,-4,0,-6,-7
13:58:08:723278,-8,-29,-13,-2,-12,-21,-20,-6
13:58:08:731434,-8,-29,-13,-2,-12,-21,-20,-6
13:58:08:732211,-4,-4,10,3,3,-21,-15,1
13:58:08:746421,-8,-1,1,-8,-7,4,1,8
13:58:08:747222,-8,-1,1,-8,-7,4,1,8
13:58:08:753299,5,-4,-10,-6,0,-1,-5,3
13:58:08:760788,-6,2,-26,-7,-6,-5,-4,-7
13:58:08:768274,-6,2,-26,-7,-6,-5,-4,-7
13:58:08:775854,-3,-3,-5,-14,-4,-5,-9,1
13:58:08:783236,18,30,13,3,20,16,1,-1
13:58:08:791569,18,30,13,3,20,16,1,-1
13:58:08:792240,7,-5,-3,-1,13,8,21,0
13:58:08:806480,0,-25,-7,-7,-6,9,16,7
13:58:08:807276,0,-25,-7,-7,-6,9,16,7
13:58:08:813209,15,39,25,6,-11,-16,-17,-4
13:58:08:820876,-22,1,4,-1,-9,-11,-3,-9
13:58:08:828317,-22,1,4,-1,-9,-11,-3,-9
13:58:08:835718,-31,-35,4,5,2,16,-7,-3
13:58:08:843972,6,-3,-5,-2,0,0,6,0
13:58:08:844764,6,-3,-5,-2,0,0,6,0
13:58:08:850715,4,-17,2,-9,-7,-4,15,-2
13:58:08:866422,-13,3,0,10,26,37,22,-18
13:58:08:867217,-13,3,0,10,26,37,22,-18
13:58:08:873290,1,0,-25,-5,-11,22,30,5
13:58:08:880741,9,-3,-17,-2,-10,-29,-28,9
13:58:08:888341,9,-3,-17,-2,-10,-29,-28,9
13:58:08:895734,-2,-11,-2,-1,-10,-9,-4,-4
13:58:08:904012,12,31,13,6,-15,1,-12,-1
13:58:08:904749,12,31,13,6,-15,1,-12,-1
13:58:08:910757,0,-6,-14,8,13,1,-7,-7
13:58:08:926501,9,-1,22,2,13,-1,-2,4
13:58:08:927289,9,-1,22,2,13,-1,-2,4
13:58:08:933211,-23,-3,-14,-6,0,22,16,-5
13:58:08:940845,5,-4,2,-5,-7,5,-12,7
13:58:08:948259,5,-4,2,-5,-7,5,-12,7
13:58:08:955726,-20,2,0,1,-9,-20,-10,-8
13:58:08:963876,7,-27,-9,-2,-5,-1,-6,-5
13:58:08:964711,7,-27,-9,-2,-5,-1,-6,-5
13:58:08:970783,15,9,10,-6,-4,-14,14,11
13:58:08:986568,-8,-9,4,2,12,-8,-15,-1
13:58:08:987292,-8,-9,4,2,12,-8,-15,-1
13:58:08:993378,27,12,3,-11,-7,4,-4,2
13:58:09:732,12,5,-3,-3,-8,-5,2,-1
13:58:09:8303,12,5,-3,-3,-8,-5,2,-1
13:58:09:15704,0,17,10,6,-3,2,-1,1
13:58:09:24010,2,0,-2,-2,6,2,-3,-4
13:58:09:24751,2,0,-2,-2,6,2,-3,-4
13:58:09:30697,-27,-10,-2,-3,-22,-6,-9,-9
13:58:09:46444,-10,7,-21,2,9,3,8,-5
13:58:09:47245,-10,7,-21,2,9,3,8,-5
13:58:09:53265,0,21,20,0,2,-5,-4,1
13:58:09:60780,-1,22,6,-5,1,-3,-1,0
13:58:09:68275,-1,22,6,-5,1,-3,-1,0
13:58:09:75785,15,12,-4,5,2,-2,-11,-2
13:58:09:83904,-27,-13,0,-8,-13,-12,-15,-2
13:58:09:84694,-27,-13,0,-8,-13,-12,-15,-2
13:58:09:90778,-1,-10,-2,7,6,4,30,6
13:58:09:106507,-18,-12,0,-2,-13,-2,4,-4
13:58:09:107203,-18,-12,0,-2,-13,-2,4,-4
13:58:09:113195,7,1,3,-9,-1,-6,-13,-6
13:58:09:120762,-6,-16,-5,7,9,-2,1,2
13:58:09:128327,-6,-16,-5,7,9,-2,1,2
13:58:09:135729,4,-4,-8,3,14,1,-9,0
13:58:09:143978,-2,15,7,-2,-7,3,-4,-4
13:58:09:144778,-2,15,7,-2,-7,3,-4,-4
13:58:09:150731,-1,2,-12,-4,4,-8,-25,1
13:58:09:166459,7,-4,-9,-2,-9,-2,-20,-7
13:58:09:167238,7,-4,-9,-2,-9,-2,-20,-7
13:58:09:173270,-8,-23,-6,5,1,1,-4,-3
13:58:09:180741,8,19,10,-3,2,11,4,5
13:58:09:188294,8,19,10,-3,2,11,4,5
13:58:09:195745,-37,4,1,-4,10,6,-1,-4
13:58:09:204073,-5,-38,-7,-6,-15,-14,10,-4
13:58:09:204770,-5,-38,-7,-6,-15,-14,10,-4
13:58:09:210779,27,-12,5,7,0,2,-9,1
13:58:09:226554,0,-2,5,-3,-6,-19,-6,3
13:58:09:227278,0,-2,5,-3,-6,-19,-6,3
13:58:09:233236,8,7,5,2,9,27,33,0
13:58:09:240806,2,11,-19,-7,1,0,7,0
13:58:09:248280,2,11,-19,-7,1,0,7,0
13:58:09:255787,-4,-5,-8,-5,-19,-26,-19,4
13:58:09:263892,-44,-8,0,5,6,0,10,-8
13:58:09:264745,-44,-8,0,5,6,0,10,-8
13:58:09:270797,-4,-15,-9,-2,4,-3,-7,-2
13:58:09:286540,26,12,6,-1,1,14,13,6
13:58:09:287221,26,12,6,-1,1,14,13,6
13:58:09:293353,0,6,2,2,10,24,4,-1
13:58:09:300718,3,-12,-3,-2,-5,-1,17,-5
13:58:09:308396,3,-12,-3,-2,-5,-1,17,-5
13:58:09:315729,9,-12,-10,-1,-2,-15,3,0
13:58:09:324003,4,-1,1,2,-9,2,-3,0
13:58:09:324698,4,-1,1,2,-9,2,-3,0
13:58:09:330708,-4,0,-6,3,2,-13,-24,-6
13:58:09:346438,-4,0,5,-8,-2,2,-4,-8
13:58:09:347197,-4,0,5,-8,-2,2,-4,-8
13:58:09:353240,5,7,3,-3,-4,-9,15,0
13:58:09:360770,-1,24,9,5,12,1,7,3
13:58:09:368295,-1,24,9,5,12,1,7,3
13:58:09:375828,-4,-27,-1,-7,-11,-7,-3,-5
13:58:09:383949,-4,-12,-4,-14,-16,-17,-24,0
13:58:09:384737,-4,-12,-4,-14,-16,-17,-24,0
13:58:09:390822,-14,-10,-3,-2,-5,8,2,-10
13:58:09:406451,-7,-16,-7,11,20,11,9,1
13:58:09:407222,-7,-16,-7,11,20,11,9,1
13:58:09:413224,-11,-2,-8,1,-4,-5,-28,-1
13:58:09:420752,25,-4,7,-4,-2,-3,8,10
13:58:09:428287,25,-4,7,-4,-2,-3,8,10
13:58:09:444577,7,13,9,-6,-4,-1,11,5
13:58:09:445372,-13,4,-4,6,-1,-10,-11,-7
13:58:09:446227,-13,4,-4,6,-1,-10,-11,-7
13:58:09:450723,-33,-20,4,2,18,16,1,-4
13:58:09:466408,-15,-16,-7,-2,-7,-15,4,-14
13:58:09:467216,-15,-16,-7,-2,-7,-15,4,-14
13:58:09:473221,30,16,-4,-4,-7,4,-14,3
13:58:09:480718,0,5,7,9,2,7,-3,-1
13:58:09:488304,0,5,7,9,2,7,-3,-1
13:58:09:495732,-5,1,1,-1,-19,-11,-4,-5
13:58:09:504018,7,10,2,2,2,3,-6,10
13:58:09:504759,7,10,2,2,2,3,-6,10
13:58:09:510759,-7,-12,-13,-1,-4,-7,-5,-5
13:58:09:526506,19,2,-6,1,15,24,15,8
13:58:09:527263,19,2,-6,1,15,24,15,8
13:58:09:533207,4,5,-13,-9,0,-10,12,0
13:58:09:540806,-4,5,7,-5,-12,3,9,-7
13:58:09:548274,-4,5,7,-5,-12,3,9,-7
13:58:09:555714,2,4,5,4,8,47,38,-2
13:58:09:563959,12,7,-4,-3,13,1,-8,-5
13:58:09:564770,12,7,-4,-3,13,1,-8,-5
13:58:09:570765,-4,-10,1,-4,-9,-20,-9,-7
13:58:09:586479,-5,-13,-8,-6,-5,-2,-10,-7
13:58:09:587213,-5,-13,-8,-6,-5,-2,-10,-7
13:58:09:593273,-22,18,10,-4,-5,-13,-9,11
13:58:09:609006,3,6,0,-4,4,-5,-3,3
13:58:09:609747,3,6,0,-4,4,-5,-3,3
13:58:09:615701,13,3,1,6,-2,-3,-7,-5
13:58:09:624002,5,22,13,-1,0,25,46,12
13:58:09:624784,5,22,13,-1,0,25,46,12
13:58:09:638263,-9,-6,-9,-12,-7,-27,-36,1
13:58:09:646453,-13,0,0,8,-7,-12,-18,-5
13:58:09:647265,-13,0,0,8,-7,-12,-18,-5
13:58:09:653250,-21,-4,-7,7,8,16,9,2
13:58:09:668957,-2,-8,-4,-15,-8,-4,-10,-2
13:58:09:669735,-2,-8,-4,-15,-8,-4,-10,-2
13:58:09:675784,23,4,2,1,-9,-8,-7,-4
13:58:09:683922,-22,-34,-8,-11,-3,-16,-12,-7
13:58:09:684712,-22,-34,-8,-11,-3,-16,-12,-7
13:58:09:698214,25,33,-3,12,12,14,13,8
13:58:09:706468,-6,-2,-5,-1,-19,-6,-11,-3
13:58:09:707283,-6,-2,-5,-1,-19,-6,-11,-3
13:58:09:713231,-4,-13,6,7,8,6,8,2
13:58:09:728918,-2,12,-1,2,1,-5,-7,-2
13:58:09:729774,-2,12,-1,2,1,-5,-7,-2
13:58:09:735754,5,-19,-9,-6,0,-1,5,5
13:58:09:743970,-12,-12,2,-3,-11,-7,-10,-10
13:58:09:744779,-12,-12,2,-3,-11,-7,-10,-10
13:58:09:758350,4,-12,11,-4,-1,-15,-5,4
13:58:09:766379,9,-23,-6,0,-4,-16,-18,10
13:58:09:767218,9,-23,-6,0,-4,-16,-18,10
13:58:09:773312,13,14,7,-1,1,39,53,5
13:58:09:788881,23,8,7,19,19,20,9,4
13:58:09:789757,23,8,7,19,19,20,9,4
13:58:09:795796,-13,-10,-9,-10,-11,-12,-19,-3
13:58:09:804021,-15,0,-33,-7,0,-3,-16,-10
13:58:09:804758,-15,0,-33,-7,0,-3,-16,-10
13:58:09:818242,-5,3,5,0,-2,3,1,4
13:58:09:826529,24,14,0,-2,-8,-20,-15,7
13:58:09:827208,24,14,0,-2,-8,-20,-15,7
13:58:09:833231,-1,-9,-10,-1,0,13,4,-6
13:58:09:848894,1,-12,0,-6,3,-2,7,-2
13:58:09:849723,1,-12,0,-6,3,-2,7,-2
13:58:09:855778,-4,-2,5,8,13,-11,6,3
13:58:09:863922,11,-2,8,9,2,14,23,19
13:58:09:864702,11,-2,8,9,2,14,23,19
13:58:09:878300,-1,0,-1,-4,-8,-18,-49,-11
13:58:09:886528,-7,4,2,-7,-13,0,0,-12
13:58:09:887219,-7,4,2,-7,-13,0,0,-12
13:58:09:893296,4,10,-19,10,11,8,4,7
13:58:09:909023,-5,-9,-11,-9,2,-10,-3,-6
13:58:09:909770,-5,-9,-11,-9,2,-10,-3,-6
13:58:09:915717,-17,6,4,-12,-3,-9,-5,-5
13:58:09:924013,6,12,17,8,5,8,35,1
13:58:09:924701,6,12,17,8,5,8,35,1
13:58:09:938270,-19,-9,-15,-9,-12,-17,-27,-14
13:58:09:946505,19,-5,1,-4,-8,-7,-52,-3
13:58:09:947282,19,-5,1,-4,-8,-7,-52,-3
13:58:09:953294,5,-14,8,-2,1,-9,-18,1
13:58:09:968961,5,-14,8,-2,1,-9,-18,1
13:58:09:969761,-6,3,5,-4,-15,-16,3,-2
13:58:09:975797,4,3,2,8,19,26,44,4
13:58:09:991559,4,3,2,8,19,26,44,4
13:58:09:992305,-10,-14,-14,2,12,6,17,-2
13:58:09:998237,-5,-13,5,-8,-18,-16,-20,-10
13:58:10:6548,-5,-13,5,-8,-18,-16,-20,-10
13:58:10:7266,-13,12,-2,-6,-3,5,-3,-1
13:58:10:13238,16,10,-6,-7,-5,-2,11,-2
13:58:10:28968,16,10,-6,-7,-5,-2,11,-2
13:58:10:29752,7,3,-2,7,17,15,9,3
13:58:10:35728,-10,-15,-1,2,1,3,0,7
13:58:10:51441,-10,-15,-1,2,1,3,0,7
13:58:10:52271,7,4,14,0,-13,-10,-2,-2
13:58:10:58314,1,14,16,3,1,-16,-13,0
13:58:10:66469,1,14,16,3,1,-16,-13,0
13:58:10:67247,-9,7,1,-1,7,3,-8,-5
13:58:10:73345,-4,6,-2,-2,-14,-8,-5,-4
13:58:10:88992,-4,6,-2,-2,-14,-8,-5,-4
13:58:10:89755,-1,-5,-9,-9,-7,4,10,-1
13:58:10:95714,2,-10,-12,0,4,4,-16,-4
13:58:10:111460,2,-10,-12,0,4,4,-16,-4
13:58:10:112256,-22,17,1,0,-3,13,-8,12
13:58:10:118235,-16,-26,-3,-3,4,1,-17,-13
13:58:10:126542,-16,-26,-3,-3,4,1,-17,-13
13:58:10:127299,0,-23,3,-2,-8,-14,-27,-6
13:58:10:133257,6,17,5,-3,-2,-3,2,2
13:58:10:148942,6,17,5,-3,-2,-3,2,2
13:58:10:149725,-3,4,1,9,16,-4,8,3
13:58:10:155759,-11,5,-11,-7,-4,12,40,3
13:58:10:171481,-11,5,-11,-7,-4,12,40,3
13:58:10:172178,5,1,-18,-1,2,46,57,5
13:58:10:178221,-12,-9,-5,-12,-10,1,11,-3
13:58:10:186518,-12,-9,-5,-12,-10,1,11,-3
13:58:10:187247,9,5,6,7,11,-19,-15,-4
13:58:10:193285,8,14,11,6,-1,18,19,4
13:58:10:209015,8,14,11,6,-1,18,19,4
13:58:10:209743,-6,15,24,-2,2,-11,-41,-13
13:58:10:215674,8,3,3,2,-9,-13,-23,19
13:58:10:231434,8,3,3,2,-9,-13,-23,19
13:58:10:232200,5,0,-3,-3,1,14,18,-2
13:58:10:238290,-4,-32,-28,-5,-5,-14,-4,-3
13:58:10:246461,-4,-32,-28,-5,-5,-14,-4,-3
13:58:10:247214,-15,-12,-13,-4,0,-12,-12,-6
13:58:10:253208,-14,9,7,-3,-2,-4,4,0
13:58:10:268954,-14,9,7,-3,-2,-4,4,0
13:58:10:269700,-28,-7,-3,0,3,-4,-21,-16
13:58:10:275896,0,1,8,13,9,21,31,-13
13:58:10:291514,0,1,8,13,9,21,31,-13
13:58:10:292238,-3,0,4,-8,-9,-13,-28,-7
13:58:10:298234,-10,2,4,-1,2,-5,-14,-5
13:58:10:306548,-10,2,4,-1,2,-5,-14,-5
13:58:10:307219,2,-24,-22,-6,-14,-14,3,1
13:58:10:313216,5,5,6,1,-6,-7,-9,-2
13:58:10:328923,5,5,6,1,-6,-7,-9,-2
13:58:10:329683,1,1,4,5,-5,-5,-4,1
13:58:10:335739,14,2,-3,-5,-1,10,20,11
13:58:10:351473,14,2,-3,-5,-1,10,20,11
13:58:10:352309,25,24,-7,1,-1,14,10,11
13:58:10:358328,-3,-5,6,7,11,-6,-10,1
13:58:10:366393,-3,-5,6,7,11,-6,-10,1
13:58:10:367189,-24,-3,1,0,-7,0,24,-2
13:58:10:373308,-1,-5,7,-3,-5,-7,-26,-8
13:58:10:388938,-1,-5,7,-3,-5,-7,-26,-8
13:58:10:389741,19,-9,-1,-1,-9,-24,-7,2
13:58:10:395746,-1,0,-20,-3,-7,5,7,-9
13:58:10:403308,-1,0,-20,-3,-7,5,7,-9
13:58:10:410757,-7,-6,12,10,14,10,-12,-2
13:58:10:418258,5,-5,2,6,17,5,17,4
13:58:10:426494,5,-5,2,6,17,5,17,4
13:58:10:427274,7,-8,-18,-17,-12,-19,9,-5
13:58:10:433190,4,14,6,-5,-3,15,-12,-1
13:58:10:448946,4,14,6,-5,-3,15,-12,-1
13:58:10:449711,6,6,-10,-2,13,36,15,-4
13:58:10:455812,-3,21,4,2,-8,-11,1,3
13:58:10:463335,-3,21,4,2,-8,-11,1,3
13:58:10:470871,8,6,5,1,-8,-30,-23,1
13:58:10:478206,8,9,2,0,-1,-15,14,5
13:58:10:486599,8,9,2,0,-1,-15,14,5
13:58:10:487293,-26,-11,6,9,-3,6,7,3
13:58:10:493277,8,-11,14,2,12,3,-19,-3
13:58:10:509017,8,-11,14,2,12,3,-19,-3
13:58:10:509763,13,10,3,-1,4,1,-20,-1
13:58:10:515666,3,9,2,2,-8,4,-5,-3
13:58:10:523361,3,9,2,2,-8,4,-5,-3
13:58:10:530763,-7,-3,-7,-7,8,-13,13,-1
13:58:10:538304,15,-17,-8,-6,-1,-12,-12,-5
13:58:10:546519,15,-17,-8,-6,-1,-12,-12,-5
13:58:10:547278,-22,-5,4,2,-5,-6,-21,-7
13:58:10:560700,-5,-10,-19,-2,-11,-4,14,0
13:58:10:569000,-5,-10,-19,-2,-11,-4,14,0
13:58:10:569741,-1,-12,-1,-4,5,-14,14,1
13:58:10:575814,8,-1,-6,-12,-11,-7,-12,5
13:58:10:583298,8,-1,-6,-12,-11,-7,-12,5
13:58:10:590836,-1,1,1,-5,-8,-28,-34,-6
13:58:10:598243,-9,17,11,-1,7,13,8,-6
13:58:10:606457,-9,17,11,-1,7,13,8,-6
13:58:10:607185,-2,1,-4,14,22,46,37,4
13:58:10:620792,7,-30,-5,-2,-8,11,0,-3
13:58:10:628974,7,-30,-5,-2,-8,11,0,-3
13:58:10:629760,13,7,0,-11,-22,-16,-23,1
13:58:10:635744,-26,-20,-6,4,3,-31,-10,-5
13:58:10:643343,-26,-20,-6,4,3,-31,-10,-5
13:58:10:650734,-9,-10,-9,-3,-10,-1,-3,-1
13:58:10:658277,15,14,6,-2,2,3,-15,0
13:58:10:666389,15,14,6,-2,2,3,-15,0
13:58:10:667193,-18,-27,3,-1,-1,29,20,-1
13:58:10:680765,1,6,-9,0,7,-9,13,11
13:58:10:688919,1,6,-9,0,7,-9,13,11
13:58:10:689751,-1,-25,-7,-1,14,-4,-8,-10
13:58:10:695747,2,30,4,-5,-14,17,21,-6
13:58:10:703349,2,30,4,-5,-14,17,21,-6
13:58:10:710752,-1,18,-7,-11,-13,-20,-5,3
13:58:10:718272,15,-9,-2,-1,-10,-5,-15,7
13:58:10:726519,15,-9,-2,-1,-10,-5,-15,7
13:58:10:727239,-28,0,10,8,13,11,16,1
13:58:10:740781,-33,-14,-18,-3,5,1,3,-11
13:58:10:748911,-33,-14,-18,-3,5,1,3,-11
13:58:10:749704,6,42,4,5,5,2,0,7
13:58:10:755755,-28,2,-6,-12,-15,14,14,-14
13:58:10:763274,-28,2,-6,-12,-15,14,14,-14
13:58:10:770786,24,1,3,1,3,-10,-7,7
13:58:10:778201,1,2,13,13,16,-11,-8,0
13:58:10:786526,1,2,13,13,16,-11,-8,0
13:58:10:787235,4,-17,-24,-10,-17,4,12,-9
13:58:10:800701,12,-21,6,2,3,-8,-15,-8
13:58:10:808985,12,-21,6,2,3,-8,-15,-8
13:58:10:809689,7,11,-1,2,-8,-9,-6,5
13:58:10:815665,11,2,-6,-5,3,-9,1,7
13:58:10:823325,11,2,-6,-5,3,-9,1,7
13:58:10:830713,8,6,6,-10,-11,13,1,-7
13:58:10:838309,17,21,4,9,11,13,-5,6
13:58:10:846436,17,21,4,9,11,13,-5,6
13:58:10:847208,2,-6,-25,-3,-1,6,-6,3
13:58:10:860698,-22,-14,1,5,3,-18,-19,-7
13:58:10:868942,-22,-14,1,5,3,-18,-19,-7
13:58:10:869711,1,15,12,-3,2,21,31,9
13:58:10:875769,1,-13,-1,-4,-4,2,-5,-7
13:58:10:883379,1,-13,-1,-4,-4,2,-5,-7
13:58:10:890769,-43,-18,3,-6,-16,-16,2,-6
13:58:10:898286,-20,23,12,3,19,-2,-20,-3
13:58:10:906390,-20,23,12,3,19,-2,-20,-3
13:58:10:907155,-2,-9,-4,-3,1,-7,-9,1
13:58:10:920803,-7,-21,-7,-7,-21,-34,-20,-5
13:58:10:929035,-7,-21,-7,-7,-21,-34,-20,-5
13:58:10:929777,8,-16,8,9,20,-2,6,0
13:58:10:935721,10,-8,-5,-1,-3,-16,-14,-7
13:58:10:943327,10,-8,-5,-1,-3,-16,-14,-7
13:58:10:950814,-13,-7,4,0,-7,-3,18,-1
13:58:10:958253,22,2,0,4,11,27,5,7
13:58:10:966426,22,2,0,4,11,27,5,7
13:58:10:967177,-4,18,11,4,1,-25,-31,-4
13:58:10:980728,0,-4,-18,-1,-8,3,19,10
13:58:10:989022,0,-4,-18,-1,-8,3,19,10
13:58:10:989708,6,-19,-14,-1,-1,-33,-29,-13
13:58:10:995779,-28,-8,15,-2,6,35,42,0
13:58:11:3402,-28,-8,15,-2,6,35,42,0
13:58:11:10779,0,-4,-1,-3,3,25,5,1
13:58:11:18224,-1,9,-20,-5,-28,-28,-16,-10
13:58:11:26531,-1,9,-20,-5,-28,-28,-16,-10
13:58:11:27201,13,-23,-1,-5,-8,-5,-29,0
13:58:11:40851,18,-19,5,-8,-2,-6,-8,6
13:58:11:48946,18,-19,5,-8,-2,-6,-8,6
13:58:11:49690,-3,11,0,4,0,-4,-18,-2
13:58:11:63954,9,16,11,5,13,1,1,6
13:58:11:64758,9,16,11,5,13,1,1,6
13:58:11:70925,10,-6,-13,3,-19,8,23,4
13:58:11:78297,27,8,14,-1,12,16,7,4
13:58:11:86476,27,8,14,-1,12,16,7,4
13:58:11:87220,-7,20,9,-5,-2,-12,-13,-3
13:58:11:100705,5,24,6,-4,-3,19,17,2
13:58:11:109010,5,24,6,-4,-3,19,17,2
13:58:11:109751,1,9,-8,-7,-3,-26,16,-3
13:58:11:115676,-27,-36,-4,-2,-3,-18,-15,-21
13:58:11:123345,-27,-36,-4,-2,-3,-18,-15,-21
13:58:11:130691,-4,-2,7,0,0,10,8,3
13:58:11:138277,-26,-9,6,-1,-5,-14,-7,8
13:58:11:146469,-26,-9,6,-1,-5,-14,-7,8
13:58:11:147266,16,-3,8,1,3,20,26,2
13:58:11:160750,-7,-9,-8,-4,-9,24,6,-8
13:58:11:168976,-7,-9,-8,-4,-9,24,6,-8
13:58:11:169741,38,9,4,5,17,8,5,7
13:58:11:175818,-15,-6,-23,1,-13,-7,-12,4
13:58:11:183259,-15,-6,-23,1,-13,-7,-12,4
13:58:11:190867,-28,-15,-5,-7,-11,4,-12,-13
13:58:11:198228,-8,-13,5,-2,1,46,53,10
13:58:11:206544,-8,-13,5,-2,1,46,53,10
13:58:11:207269,1,28,-3,5,12,4,-1,-1
13:58:11:220793,27,16,0,-5,8,-14,-27,8
13:58:11:228951,27,16,0,-5,8,-14,-27,8
13:58:11:229760,-28,-19,13,4,-4,-6,-12,-7
