Time,EMG1,EMG2,EMG3,EMG4,EMG5,EMG6,EMG7,EMG8
13:58:32:282899,0,3,10,-2,-5,34,35,6
13:58:32:283704,-6,-9,-18,16,-9,-18,1,-9
13:58:32:289242,-4,5,-13,13,8,-25,2,3
13:58:32:297453,-4,5,-13,13,8,-25,2,3
13:58:32:298215,-1,12,17,14,-3,-13,1,-5
13:58:32:311770,-8,-13,-22,-35,-70,-11,30,-15
13:58:32:320063,-8,-13,-22,-35,-70,-11,30,-15
13:58:32:320737,5,0,3,10,4,-4,-2,5
13:58:32:326787,4,5,-7,14,1,22,-21,-1
13:58:32:342527,4,5,-7,14,1,22,-21,-1
13:58:32:343219,-5,1,27,28,-1,-17,1,0
13:58:32:349232,-3,-1,1,-23,-17,-12,5,-1
13:58:32:357487,-3,-1,1,-23,-17,-12,5,-1
13:58:32:358218,3,-9,-10,4,29,6,6,3
13:58:32:371749,-2,3,4,13,8,7,5,3
13:58:32:379930,-2,3,4,13,8,7,5,3
13:58:32:380692,-7,-1,2,-13,-13,-22,-21,-8
13:58:32:386775,-4,-8,-21,10,-9,13,19,-1
13:58:32:402460,-4,-8,-21,10,-9,13,19,-1
13:58:32:403276,2,-2,-4,-14,-14,-12,-9,-5
13:58:32:409317,5,12,8,44,62,34,2,8
13:58:32:417422,5,12,8,44,62,34,2,8
13:58:32:418230,0,-1,-8,-9,12,-7,8,-2
13:58:32:431763,-5,-22,-7,-42,-36,-27,-12,-1
13:58:32:440055,-5,-22,-7,-42,-36,-27,-12,-1
13:58:32:440716,-1,-7,-24,-6,-22,-28,-18,2
13:58:32:446732,6,12,-21,-8,8,15,3,-2
13:58:32:462536,6,12,-21,-8,8,15,3,-2
13:58:32:463296,2,5,-2,-31,-26,-26,-4,-1
13:58:32:469358,4,3,24,21,22,82,91,19
13:58:32:477461,4,3,24,21,22,82,91,19
13:58:32:478247,8,12,12,30,58,54,32,5
13:58:32:491798,-11,-12,3,-12,-92,-88,-49,-18
13:58:32:499998,-11,-12,3,-12,-92,-88,-49,-18
13:58:32:500740,-1,-1,-33,-4,5,33,7,3
13:58:32:506836,-1,1,-10,-12,0,-9,-24,-2
13:58:32:522484,-1,1,-10,-12,0,-9,-24,-2
13:58:32:523228,-7,-4,-4,-11,-22,-58,-37,-12
13:58:32:529207,3,4,7,-25,-11,24,24,4
13:58:32:537541,3,4,7,-25,-11,24,24,4
13:58:32:538229,10,2,20,23,16,14,44,11
13:58:32:551726,-1,-5,-17,-20,11,-20,-14,-7
13:58:32:560055,-1,-5,-17,-20,11,-20,-14,-7
13:58:32:560773,0,-1,20,-17,-23,10,-7,-2
13:58:32:566726,-6,1,2,-3,24,9,-15,3
13:58:32:582482,-6,1,2,-3,24,9,-15,3
13:58:32:583212,-5,-1,-18,-23,17,1,-23,0
13:58:32:589214,-2,-6,4,-10,-26,-40,-33,-14
13:58:32:597443,-2,-6,4,-10,-26,-40,-33,-14
13:58:32:598253,2,2,20,-2,-1,24,20,6
13:58:32:611711,-7,-12,6,5,42,36,-2,2
13:58:32:619939,-7,-12,6,5,42,36,-2,2
13:58:32:620720,-3,0,-8,9,-2,-22,-3,-1
13:58:32:626986,3,1,12,18,-19,-25,-23,-8
13:58:32:642547,3,1,12,18,-19,-25,-23,-8
13:58:32:643213,-6,-9,-9,-2,0,22,-2,-1
13:58:32:649234,5,11,14,-8,10,18,17,3
13:58:32:664958,5,11,14,-8,10,18,17,3
13:58:32:665746,3,-3,17,34,39,-19,-11,-3
13:58:32:671803,-1,4,-24,-10,6,28,21,7
13:58:32:679934,-1,4,-24,-10,6,28,21,7
13:58:32:680684,-4,-3,3,-1,12,0,-3,-4
13:58:32:686937,-6,-1,-3,17,-18,-16,-2,2
13:58:32:702446,-6,-1,-3,17,-18,-16,-2,2
13:58:32:703279,0,4,-1,28,-21,7,-1,-8
13:58:32:709295,7,-2,7,-13,-24,-6,12,-2
13:58:32:717461,7,-2,7,-13,-24,-6,12,-2
13:58:32:718225,-6,-2,-18,3,16,9,-20,-3
13:58:32:731754,0,13,30,24,-12,-12,1,2
13:58:32:739978,0,13,30,24,-12,-12,1,2
13:58:32:740756,-5,-9,11,-21,-17,-12,18,-7
13:58:32:746687,-1,-8,-24,-9,7,-21,-20,-6
13:58:32:762477,-1,-8,-24,-9,7,-21,-20,-6
13:58:32:763215,1,4,15,-10,-33,-3,-23,1
13:58:32:769246,-1,-1,-4,-35,-21,15,28,-1
13:58:32:776821,-1,-1,-4,-35,-21,15,28,-1
13:58:32:784225,4,2,-3,8,9,27,7,6
13:58:32:791776,-1,3,5,12,21,-31,-24,-3
13:58:32:799917,-1,3,5,12,21,-31,-24,-3
13:58:32:800707,-2,-2,15,-13,-34,-28,-32,-3
13:58:32:814260,-3,-11,-10,-20,-20,-15,-6,-5
13:58:32:822431,-3,-11,-10,-20,-20,-15,-6,-5
13:58:32:823191,4,4,-1,31,39,22,13,2
13:58:32:829195,1,-2,-4,5,14,25,1,3
13:58:32:836805,1,-2,-4,5,14,25,1,3
13:58:32:844205,-6,11,24,-3,-13,-26,-11,-6
13:58:32:851711,-7,-10,-3,-26,-35,-21,1,-2
13:58:32:860006,-7,-10,-3,-26,-35,-21,1,-2
13:58:32:860723,5,-10,-14,5,38,13,26,0
13:58:32:874228,-2,6,20,25,5,8,-2,-3
13:58:32:882449,-2,6,20,25,5,8,-2,-3
13:58:32:883218,8,10,2,52,27,11,10,9
13:58:32:889226,0,-2,-3,-14,15,-35,-17,1
13:58:32:896784,0,-2,-3,-14,15,-35,-17,1
13:58:32:904303,-10,-8,-15,-35,-24,-6,14,-2
13:58:32:911702,-3,-11,1,22,-8,-15,-5,-7
13:58:32:919912,-3,-11,1,22,-8,-15,-5,-7
13:58:32:920685,5,-3,0,4,26,5,3,8
13:58:32:934188,-6,9,-3,-13,-21,-25,-5,9
13:58:32:942505,-6,9,-3,-13,-21,-25,-5,9
13:58:32:943242,-11,-2,-9,-24,-9,-12,-8,-10
13:58:32:949208,2,5,6,36,45,22,2,0
13:58:32:956876,2,5,6,36,45,22,2,0
13:58:32:964241,0,10,-21,-24,-38,-16,-5,2
13:58:32:971863,1,-7,2,-21,-32,-6,5,-5
13:58:32:979948,1,-7,2,-21,-32,-6,5,-5
13:58:32:980670,5,-7,0,25,45,43,14,-4
13:58:32:994240,-3,10,-7,5,-28,-28,-7,-3
13:58:33:2403,-3,10,-7,5,-28,-28,-7,-3
13:58:33:3186,-2,1,5,-19,-19,22,12,0
13:58:33:9308,1,0,0,23,48,29,26,3
13:58:33:16719,1,0,0,23,48,29,26,3
13:58:33:24248,-3,-21,-17,-37,-38,-17,-2,-7
13:58:33:31667,0,6,-1,-9,-17,-27,-20,-6
13:58:33:39932,0,6,-1,-9,-17,-27,-20,-6
13:58:33:40738,1,-2,-20,-6,-1,-11,-7,0
13:58:33:54300,1,1,13,10,29,27,13,3
13:58:33:62407,1,1,13,10,29,27,13,3
13:58:33:63163,0,6,-6,-11,-33,-14,-16,-3
13:58:33:69249,-6,-5,-1,30,34,23,-7,-14
13:58:33:76887,-6,-5,-1,30,34,23,-7,-14
13:58:33:84189,-6,-5,3,-10,15,-11,-11,-2
13:58:33:91799,2,4,32,-10,0,-1,0,8
13:58:33:99922,2,4,32,-10,0,-1,0,8
13:58:33:100705,-8,-6,-3,0,-22,-48,-20,-9
13:58:33:114185,-5,-12,-23,4,-15,4,-8,-9
13:58:33:122431,-5,-12,-23,4,-15,4,-8,-9
13:58:33:123222,4,6,12,7,36,33,4,6
13:58:33:129173,0,-4,-2,12,-2,-1,-5,-4
13:58:33:136859,0,-4,-2,12,-2,-1,-5,-4
13:58:33:144204,-9,4,-7,-24,-50,-19,-15,-7
13:58:33:151708,0,-5,-15,-24,-11,38,-3,-2
13:58:33:159993,0,-5,-15,-24,-11,38,-3,-2
13:58:33:160740,2,0,10,6,-18,17,7,0
13:58:33:174343,-3,0,-4,-32,0,-8,20,6
13:58:33:182437,-3,0,-4,-32,0,-8,20,6
13:58:33:183188,1,0,-24,6,5,17,7,10
13:58:33:189211,0,2,2,-6,-15,-21,-44,1
13:58:33:196785,0,2,2,-6,-15,-21,-44,1
13:58:33:204344,1,8,-8,-18,12,10,6,-1
13:58:33:211744,1,-14,-38,-52,26,10,-3,6
13:58:33:219895,1,-14,-38,-52,26,10,-3,6
13:58:33:220670,4,12,6,-16,-5,-9,0,-3
13:58:33:234214,-5,1,-36,4,-21,-36,-9,-11
13:58:33:242507,-5,1,-36,4,-21,-36,-9,-11
13:58:33:243239,1,-16,11,0,15,51,13,1
13:58:33:249218,-5,-4,13,2,8,7,14,-5
13:58:33:256764,-5,-4,13,2,8,7,14,-5
13:58:33:264260,-4,3,10,34,26,-18,-6,-3
13:58:33:271809,5,9,20,16,-11,12,22,7
13:58:33:279914,5,9,20,16,-11,12,22,7
13:58:33:280682,-1,-18,-9,-2,-15,-14,-12,-1
13:58:33:294194,3,10,-14,-30,12,-13,-4,3
13:58:33:302404,3,10,-14,-30,12,-13,-4,3
13:58:33:303191,-2,3,3,-17,-22,-20,2,-6
13:58:33:309301,-2,3,-4,1,-41,-17,-13,-4
13:58:33:316789,-2,3,-4,1,-41,-17,-13,-4
13:58:33:324272,-9,-12,23,48,48,-6,-8,-2
13:58:33:331692,5,-16,-7,12,42,35,8,3
13:58:33:347401,5,-16,-7,12,42,35,8,3
13:58:33:348191,3,-28,-21,-25,-70,-26,-9,-1
13:58:33:354340,-3,17,12,-13,-45,-6,8,-4
13:58:33:362396,-3,17,12,-13,-45,-6,8,-4
13:58:33:363166,-1,-8,10,12,23,59,21,5
13:58:33:369241,-2,-17,4,3,-10,-7,-6,-3
13:58:33:384895,-2,-17,4,3,-10,-7,-6,-3
13:58:33:385669,-3,10,4,1,-24,-38,-20,-3
13:58:33:391822,2,-8,-4,33,36,12,8,-3
13:58:33:399943,2,-8,-4,33,36,12,8,-3
13:58:33:400688,6,18,-20,-21,44,14,-1,5
13:58:33:414209,-2,0,3,13,21,-10,-4,3
13:58:33:422470,-2,0,3,13,21,-10,-4,3
13:58:33:423185,-12,-40,-9,-12,-35,-35,-9,-4
13:58:33:429237,-1,-22,-15,-9,-2,-7,-16,0
13:58:33:436865,-1,-22,-15,-9,-2,-7,-16,0
13:58:33:444199,0,-7,-12,29,53,32,15,2
13:58:33:451704,-3,-3,-18,-19,-37,-32,-3,-6
13:58:33:459978,-3,-3,-18,-19,-37,-32,-3,-6
13:58:33:460723,12,35,9,28,9,24,2,3
13:58:33:474315,-4,10,14,2,4,13,-15,2
13:58:33:482408,-4,10,14,2,4,13,-15,2
13:58:33:483205,-3,13,-3,-27,-50,-19,5,-7
13:58:33:489233,-2,-11,14,-23,3,-8,-13,4
13:58:33:496769,-2,-11,14,-23,3,-8,-13,4
13:58:33:504251,0,5,-1,15,34,-5,2,6
13:58:33:511689,2,15,24,-3,-7,-2,8,-7
13:58:33:519943,2,15,24,-3,-7,-2,8,-7
13:58:33:520728,3,21,-1,-9,21,-1,5,1
13:58:33:543169,1,14,3,42,22,-19,8,0
13:58:33:543879,1,14,3,42,22,-19,8,0
13:58:33:544655,-6,-8,-8,-21,-54,-37,-18,-12
13:58:33:549161,-3,-7,11,-13,13,4,-8,-1
13:58:33:556817,-3,-7,11,-13,13,4,-8,-1
13:58:33:564220,-5,-15,7,14,-13,-8,-2,-3
13:58:33:571787,3,6,-7,-14,9,23,10,-1
13:58:33:579993,3,6,-7,-14,9,23,10,-1
13:58:33:580732,-5,-9,10,-13,-12,12,7,-4
13:58:33:594202,4,-18,14,13,10,22,16,-4
13:58:33:602424,4,-18,14,13,10,22,16,-4
13:58:33:603228,3,0,-8,-21,27,6,-4,-2
13:58:33:609264,-4,8,-15,-22,-56,-11,-8,-2
13:58:33:616784,-4,8,-15,-22,-56,-11,-8,-2
13:58:33:624318,1,1,-3,27,-22,-33,-5,3
13:58:33:631689,2,5,34,9,15,34,15,7
13:58:33:640046,2,5,34,9,15,34,15,7
13:58:33:640726,-4,-4,-6,18,15,-5,-32,-2
13:58:33:663120,-7,-4,-29,-23,-34,-2,12,4
13:58:33:663910,-7,-4,-29,-23,-34,-2,12,4
13:58:33:664690,-2,2,10,13,18,49,7,-6
13:58:33:669218,7,15,20,25,36,-8,-4,-2
13:58:33:676809,7,15,20,25,36,-8,-4,-2
13:58:33:684234,0,-3,-2,10,-24,-71,-11,-6
13:58:33:691776,0,1,-4,45,22,1,-4,-4
13:58:33:699268,0,1,-4,45,22,1,-4,-4
13:58:33:706748,5,2,6,-32,-3,33,-15,1
13:58:33:714196,-4,21,-8,-13,-6,-8,3,0
13:58:33:722556,-4,21,-8,-13,-6,-8,3,0
13:58:33:723265,-2,-13,-23,15,54,30,-16,-6
13:58:33:737577,-2,-8,-16,-12,-52,-5,6,-4
13:58:33:738230,-2,-8,-16,-12,-52,-5,6,-4
13:58:33:752441,0,10,5,21,40,-8,16,5
13:58:33:753148,1,-5,0,-5,29,16,-2,9
13:58:33:759408,1,-5,0,-5,29,16,-2,9
13:58:33:766718,-3,-4,-1,-20,-44,-22,19,4
13:58:33:783071,1,25,26,0,-27,-12,-4,-3
13:58:33:783868,1,25,26,0,-27,-12,-4,-3
13:58:33:784655,1,1,4,-12,2,-25,0,-1
13:58:33:797455,3,-4,3,11,48,51,34,5
13:58:33:798244,3,-4,3,11,48,51,34,5
13:58:33:804336,-9,-7,-2,6,-11,0,22,-9
13:58:33:819930,2,-1,12,-18,-52,-27,-12,-1
13:58:33:820689,2,-1,12,-18,-52,-27,-12,-1
13:58:33:826831,2,9,11,-4,-4,17,3,4
13:58:33:834249,-5,-10,1,20,-6,-32,-15,1
13:58:33:842484,-5,-10,1,20,-6,-32,-15,1
13:58:33:843193,-1,-4,-21,-25,10,-4,-10,2
13:58:33:857468,-2,-5,-24,-33,-27,-22,-2,-4
13:58:33:858183,-2,-5,-24,-33,-27,-22,-2,-4
13:58:33:864228,-2,7,-8,-8,-50,6,-10,-5
13:58:33:871827,-6,-15,15,26,42,-28,-10,-5
13:58:33:879253,-6,-15,15,26,42,-28,-10,-5
13:58:33:886715,0,10,13,14,23,-6,13,4
13:58:33:894238,-8,1,-18,2,11,-10,-11,-9
13:58:33:902478,-8,1,-18,2,11,-10,-11,-9
13:58:33:903239,7,0,6,41,75,38,9,4
13:58:33:917416,-5,-10,-2,-15,-9,-9,-3,-3
13:58:33:918188,-5,-10,-2,-15,-9,-9,-3,-3
13:58:33:924243,5,-1,-2,-45,-54,-14,-3,3
13:58:33:931739,-5,-11,-13,-9,-37,-20,-11,-4
13:58:33:939266,-5,-11,-13,-9,-37,-20,-11,-4
13:58:33:946726,3,16,44,30,1,44,4,0
13:58:33:954288,-2,8,3,-2,-3,17,9,-4
13:58:33:962497,-2,8,3,-2,-3,17,9,-4
13:58:33:963259,-8,-9,-12,-20,-3,-44,-6,-10
13:58:33:977438,5,20,28,74,69,46,5,6
13:58:33:978238,5,20,28,74,69,46,5,6
13:58:33:984239,-2,-2,-4,-28,-16,6,-6,4
13:58:33:991787,7,15,-14,2,47,22,-6,1
13:58:33:999250,7,15,-14,2,47,22,-6,1
13:58:34:6792,-4,-40,-15,15,1,-24,4,2
13:58:34:14250,0,-4,-19,-9,-5,-23,-9,-4
13:58:34:22516,0,-4,-19,-9,-5,-23,-9,-4
13:58:34:23275,-4,21,-4,-16,-34,-42,-17,-15
13:58:34:37521,1,-17,-12,-32,-5,71,58,8
13:58:34:38232,1,-17,-12,-32,-5,71,58,8
13:58:34:44253,3,-14,10,1,28,16,11,4
13:58:34:51749,0,-6,3,14,14,-19,-21,0
13:58:34:59435,0,-6,3,14,14,-19,-21,0
13:58:34:66733,4,6,-9,-14,-26,-23,-6,-1
13:58:34:74304,-6,-15,-27,-36,-25,-12,-8,-4
13:58:34:82387,-6,-15,-27,-36,-25,-12,-8,-4
13:58:34:83202,3,9,0,21,18,18,-4,0
13:58:34:97417,-3,-9,-7,6,-20,-16,-8,-9
13:58:34:98207,-3,-9,-7,6,-20,-16,-8,-9
13:58:34:104316,3,-6,-30,-1,15,43,3,-1
13:58:34:111742,-3,16,-4,0,-12,-28,1,-5
13:58:34:119307,-3,16,-4,0,-12,-28,1,-5
13:58:34:126913,-6,-12,-5,3,-4,-21,-1,3
13:58:34:134248,-7,-16,14,8,7,-19,-24,-5
13:58:34:142567,-7,-16,14,8,7,-19,-24,-5
13:58:34:143266,-2,-7,-14,-17,-12,-6,0,-5
13:58:34:157531,-1,5,3,-15,-36,-28,-12,1
13:58:34:158236,-1,5,3,-15,-36,-28,-12,1
13:58:34:164269,-7,-4,26,2,-30,-6,2,-5
13:58:34:171814,8,2,-7,11,27,45,20,0
13:58:34:179289,8,2,-7,11,27,45,20,0
13:58:34:186727,-6,2,0,16,3,11,-4,-3
13:58:34:194227,-5,-5,1,3,-16,-29,-14,-4
13:58:34:202442,-5,-5,1,3,-16,-29,-14,-4
13:58:34:203314,1,2,9,-30,1,-12,-1,-5
13:58:34:217383,-2,-3,28,32,-6,-25,-5,-8
13:58:34:218212,-2,-3,28,32,-6,-25,-5,-8
13:58:34:224278,-4,-9,-37,7,44,23,-3,4
13:58:34:231749,-11,-21,-44,1,13,1,-31,3
13:58:34:239331,-11,-21,-44,1,13,1,-31,3
13:58:34:246725,-13,-18,-2,-35,-40,-104,6,-14
13:58:34:254289,12,11,6,27,68,31,21,1
13:58:34:262475,12,11,6,27,68,31,21,1
13:58:34:263251,5,12,17,2,-12,10,5,6
13:58:34:277452,-2,-12,11,-6,-19,-18,-9,-3
13:58:34:278220,-2,-12,11,-6,-19,-18,-9,-3
13:58:34:284187,9,36,44,3,65,24,-1,11
13:58:34:291777,-2,-25,-19,-39,-12,22,8,4
13:58:34:299254,-2,-25,-19,-39,-12,22,8,4
13:58:34:306780,-2,-17,0,17,-47,-1,-15,-5
13:58:34:314254,2,34,-18,-36,14,-29,7,0
13:58:34:322487,2,34,-18,-36,14,-29,7,0
13:58:34:323269,7,6,34,-9,-28,11,7,1
13:58:34:337540,-3,-5,22,85,81,32,-2,1
13:58:34:338248,-3,-5,22,85,81,32,-2,1
13:58:34:344257,-6,-16,-26,1,-10,22,6,2
13:58:34:351725,-3,23,-12,-31,-44,-19,3,-4
13:58:34:359394,-3,23,-12,-31,-44,-19,3,-4
13:58:34:374995,2,18,-18,-11,-61,-31,-19,-4
13:58:34:375714,11,25,22,31,55,38,-4,10
13:58:34:382511,11,25,22,31,55,38,-4,10
13:58:34:383265,2,-1,-12,24,55,14,-14,0
13:58:34:397445,-3,-18,25,-42,-77,-50,1,-8
13:58:34:398243,-3,-18,25,-42,-77,-50,1,-8
13:58:34:404294,-4,37,23,37,37,-10,-1,-1
13:58:34:411734,5,9,-1,-48,14,36,9,1
13:58:34:419270,5,9,-1,-48,14,36,9,1
13:58:34:426777,-10,-34,-11,-31,-15,-28,-12,-12
13:58:34:434217,4,0,-14,25,-21,18,11,3
13:58:34:442435,4,0,-14,25,-21,18,11,3
13:58:34:443151,8,106,93,14,13,8,-14,-1
13:58:34:457526,-3,-39,-21,-45,-34,4,3,8
13:58:34:458288,-3,-39,-21,-45,-34,4,3,8
13:58:34:464264,-10,-60,-34,-20,-40,23,26,0
13:58:34:471817,-19,-36,-88,-41,36,27,-14,-13
13:58:34:479338,-19,-36,-88,-41,36,27,-14,-13
13:58:34:486777,3,29,6,-4,-35,-22,9,4
13:58:34:494261,9,-17,-22,72,12,7,1,5
13:58:34:502415,9,-17,-22,72,12,7,1,5
13:58:34:503206,1,-4,-44,-19,9,34,-5,-1
13:58:34:517398,-5,-16,-4,-39,-33,-55,-34,-16
13:58:34:518193,-5,-16,-4,-39,-33,-55,-34,-16
13:58:34:524336,6,-29,-5,50,37,-2,10,7
13:58:34:531730,4,-21,-6,0,-1,5,24,6
13:58:34:539299,4,-21,-6,0,-1,5,24,6
13:58:34:546733,-2,5,-5,-8,46,10,-4,-6
13:58:34:554281,-4,16,21,15,3,5,6,1
13:58:34:561788,-4,16,21,15,3,5,6,1
13:58:34:569244,-2,-13,15,-16,-53,-41,-6,-3
13:58:34:577452,3,22,29,44,-10,-2,-10,-4
13:58:34:578270,3,22,29,44,-10,-2,-10,-4
13:58:34:584191,-6,-4,-36,-36,7,24,-7,0
13:58:34:591815,-7,35,40,-29,-31,-37,-15,-9
13:58:34:599272,-7,35,40,-29,-31,-37,-15,-9
13:58:34:606785,1,-11,5,30,55,-19,11,1
13:58:34:614219,15,20,20,42,46,9,26,19
13:58:34:622479,15,20,20,42,46,9,26,19
13:58:34:623252,-5,-36,-72,-4,26,21,7,2
13:58:34:637506,-5,-17,21,-25,-15,-5,-19,-8
13:58:34:638274,-5,-17,21,-25,-15,-5,-19,-8
13:58:34:644294,4,-10,-70,-72,-66,-12,-6,3
13:58:34:660033,-5,-1,-16,24,1,5,1,-5
13:58:34:660790,-5,-1,-16,24,1,5,1,-5
13:58:34:666676,-8,-3,34,23,23,27,1,-3
13:58:34:674244,-4,19,24,-16,-22,-31,-10,-3
13:58:34:681798,-4,19,24,-16,-22,-31,-10,-3
13:58:34:689232,-1,5,26,4,46,14,-6,-3
13:58:34:697447,-1,-7,-11,14,-4,6,6,5
13:58:34:698224,-1,-7,-11,14,-4,6,6,5
13:58:34:704316,0,-1,-4,-29,-90,-17,0,0
13:58:34:719997,-13,-28,-4,-44,-13,67,-9,-14
13:58:34:720723,-13,-28,-4,-44,-13,67,-9,-14
13:58:34:726766,1,-4,8,26,-15,-19,-8,-8
13:58:34:734234,3,7,-11,-31,-43,-61,-7,5
13:58:34:741857,3,7,-11,-31,-43,-61,-7,5
13:58:34:749216,3,-11,-34,2,11,15,4,4
13:58:34:757436,-1,-6,-27,-4,13,6,-9,0
13:58:34:758270,-1,-6,-27,-4,13,6,-9,0
13:58:34:764178,-6,-1,-8,8,-16,-13,4,-3
13:58:34:779922,-8,-24,-30,-27,12,-45,12,-7
13:58:34:780710,-8,-24,-30,-27,12,-45,12,-7
13:58:34:786816,7,26,60,40,89,83,36,5
13:58:34:794265,-3,-16,6,-7,-46,-38,-7,-7
13:58:34:801753,-3,-16,6,-7,-46,-38,-7,-7
13:58:34:809282,-8,-9,-14,0,-32,-8,-19,1
13:58:34:817855,-1,18,-9,14,-15,-12,-13,-2
13:58:34:825078,-1,18,-9,14,-15,-12,-13,-2
13:58:34:825784,9,36,20,-19,22,11,-5,-3
13:58:34:840020,5,13,25,46,38,24,11,8
13:58:34:840805,5,13,25,46,38,24,11,8
13:58:34:846703,-7,3,26,-4,-19,-53,-13,-9
13:58:34:854226,-2,9,7,4,0,53,9,-6
13:58:34:861753,-2,9,7,4,0,53,9,-6
13:58:34:869205,-1,-10,22,33,-13,-24,-13,-2
13:58:34:877392,-3,5,-15,-28,3,-10,0,1
13:58:34:878222,-3,5,-15,-28,3,-10,0,1
13:58:34:884193,1,18,-26,-20,0,0,-2,0
13:58:34:899906,5,-12,3,56,50,16,10,7
13:58:34:900707,5,-12,3,56,50,16,10,7
13:58:34:906742,-12,-29,-17,-13,-32,-49,-14,-3
13:58:34:914184,4,11,2,-30,-11,72,-2,4
13:58:34:921871,4,11,2,-30,-11,72,-2,4
13:58:34:929208,1,1,21,22,33,27,-2,1
13:58:34:937514,-8,-23,22,-22,-40,-46,-14,-6
13:58:34:938237,-8,-23,22,-22,-40,-46,-14,-6
13:58:34:944222,2,15,-8,-23,-36,-1,-3,2
13:58:34:959994,1,-22,6,49,14,13,1,0
13:58:34:960720,1,-22,6,49,14,13,1,0
13:58:34:966741,-1,-9,2,-15,36,17,2,-5
13:58:34:974284,-4,-6,-14,-25,-19,-24,-10,-14
13:58:34:981911,-4,-6,-14,-25,-19,-24,-10,-14
13:58:34:989293,2,14,5,31,28,-3,4,4
13:58:34:997402,1,34,51,-12,-1,-18,15,3
13:58:34:998267,1,34,51,-12,-1,-18,15,3
13:58:35:4294,1,0,11,6,-28,1,9,3
13:58:35:19988,1,-3,-36,-17,-16,-6,-17,6
13:58:35:20778,1,-3,-36,-17,-16,-6,-17,6
13:58:35:26876,-5,-19,-31,-24,14,-2,-9,-5
13:58:35:34213,1,1,-13,19,41,7,14,2
13:58:35:41885,1,1,-13,19,41,7,14,2
13:58:35:49207,2,-1,25,0,-31,-29,-4,2
13:58:35:57501,7,24,-23,-29,1,0,-30,-7
13:58:35:58222,7,24,-23,-29,1,0,-30,-7
13:58:35:71898,0,-10,-20,8,1,13,3,1
13:58:35:79945,0,-10,-20,8,1,13,3,1
13:58:35:80747,-4,-21,-7,-23,-49,-40,6,0
13:58:35:86837,-2,-10,36,19,25,10,-1,1
13:58:35:102479,-2,-10,36,19,25,10,-1,1
13:58:35:103283,-4,-9,-3,-22,-17,-2,-3,1
13:58:35:109313,0,-9,-11,-13,12,16,32,5
13:58:35:117400,0,-9,-11,-13,12,16,32,5
13:58:35:118174,5,10,41,4,-8,-28,9,1
13:58:35:124335,4,-12,-3,-2,-3,21,3,-4
13:58:35:140050,4,-12,-3,-2,-3,21,3,-4
13:58:35:140747,-8,-8,2,0,2,-13,-17,-8
13:58:35:146757,-1,6,25,6,-33,-24,-3,-3
13:58:35:162484,-1,6,25,6,-33,-24,-3,-3
13:58:35:163280,-2,0,-8,-1,-10,22,18,5
13:58:35:178134,-6,-18,-35,3,-1,15,10,2
13:58:35:178923,-6,-18,-35,3,-1,15,10,2
13:58:35:179724,0,10,13,3,8,-3,-10,-2
13:58:35:184238,-1,40,-15,-5,-2,-9,-20,-9
13:58:35:199952,-1,40,-15,-5,-2,-9,-20,-9
13:58:35:200703,-4,-3,-14,-14,-15,31,23,-3
13:58:35:206772,0,-13,-1,20,12,-6,-1,0
13:58:35:222911,0,-13,-1,20,12,-6,-1,0
13:58:35:223676,-2,6,-6,20,-1,-19,-9,2
13:58:35:229173,6,-7,-17,-37,-34,-13,-13,-5
13:58:35:237503,6,-7,-17,-37,-34,-13,-13,-5
13:58:35:238204,-3,-52,-8,7,8,25,0,0
13:58:35:244224,-7,-22,2,13,26,31,23,6
13:58:35:260042,-7,-22,2,13,26,31,23,6
13:58:35:260736,3,20,32,13,10,3,5,0
13:58:35:266690,-2,-14,-11,-27,-23,-27,-1,-3
13:58:35:282466,-2,-14,-11,-27,-23,-27,-1,-3
13:58:35:283180,10,64,18,31,21,18,4,17
13:58:35:289221,-2,-1,2,0,27,21,-5,0
13:58:35:297426,-2,-1,2,0,27,21,-5,0
13:58:35:298242,-4,-4,11,12,-5,-26,-21,-6
13:58:35:304286,-5,-12,-15,-6,-14,6,14,1
13:58:35:319960,-5,-12,-15,-6,-14,6,14,1
13:58:35:320736,-5,-8,-16,-11,13,-7,-2,-4
13:58:35:326791,2,22,-3,-16,-4,-10,-14,-4
13:58:35:342520,2,22,-3,-16,-4,-10,-14,-4
13:58:35:343192,-2,-62,-6,-3,0,1,-6,-5
13:58:35:349200,3,25,11,15,9,-6,-2,1
13:58:35:357518,3,25,11,15,9,-6,-2,1
13:58:35:358225,1,-1,8,-6,-18,14,38,-1
13:58:35:364207,1,-3,27,0,-2,19,3,1
13:58:35:379919,1,-3,27,0,-2,19,3,1
13:58:35:380751,2,21,-3,2,28,25,8,-4
13:58:35:386793,-4,-20,-29,1,-6,-21,-19,3
13:58:35:402420,-4,-20,-29,1,-6,-21,-19,3
13:58:35:403165,-5,1,-25,-12,-34,-29,-14,-4
13:58:35:409295,4,7,-13,-1,14,-5,-3,0
13:58:35:417418,4,7,-13,-1,14,-5,-3,0
13:58:35:418174,-8,7,-4,-11,-4,-19,-31,-10
13:58:35:424279,1,5,12,16,18,43,-16,2
13:58:35:439922,1,5,12,16,18,43,-16,2
13:58:35:440720,6,-1,21,-29,-8,-7,-1,6
13:58:35:446766,0,-5,58,10,-27,-25,-8,-5
13:58:35:462475,0,-5,58,10,-27,-25,-8,-5
13:58:35:463274,4,8,-40,-11,3,-3,-7,-2
13:58:35:469323,-3,11,12,13,5,-9,-4,-2
13:58:35:477446,-3,11,12,13,5,-9,-4,-2
13:58:35:478227,-9,-11,-16,-10,-12,-6,-4,-1
13:58:35:484231,4,5,-11,-8,1,-15,8,1
13:58:35:499971,4,5,-11,-8,1,-15,8,1
13:58:35:500735,1,-7,14,32,48,60,2,-2
13:58:35:506803,-4,-15,-3,12,16,16,24,5
13:58:35:522451,-4,-15,-3,12,16,16,24,5
13:58:35:523298,-2,5,2,-8,-25,-37,-2,-3
13:58:35:529243,-2,7,27,2,-37,-30,-21,-9
13:58:35:537497,-2,7,27,2,-37,-30,-21,-9
13:58:35:538227,-1,-13,0,41,1,22,1,-2
13:58:35:544273,-3,-4,-24,-23,-8,-22,-10,-7
13:58:35:560026,-3,-4,-24,-23,-8,-22,-10,-7
13:58:35:560763,3,7,-16,-32,-22,-24,3,-7
13:58:35:566690,-11,-16,-4,4,4,6,2,-12
13:58:35:582421,-11,-16,-4,4,4,6,2,-12
13:58:35:583200,4,2,-9,-4,19,14,16,8
13:58:35:589223,-7,-12,-1,4,-6,-2,-1,5
13:58:35:597461,-7,-12,-1,4,-6,-2,-1,5
13:58:35:598257,-10,-13,-19,-9,11,-11,-9,-9
13:58:35:620656,1,2,-5,-22,-23,-19,-11,-5
13:58:35:621381,1,2,-5,-22,-23,-19,-11,-5
13:58:35:622178,3,11,14,8,6,5,5,6
13:58:35:626786,-5,-33,-29,6,22,31,32,0
13:58:35:634242,-5,-33,-29,6,22,31,32,0
13:58:35:641759,-7,-29,0,-6,-20,-20,18,-15
13:58:35:649223,0,11,-14,-11,5,12,7,6
13:58:35:657544,0,11,-14,-11,5,12,7,6
13:58:35:658281,5,-7,5,23,15,30,-3,13
13:58:35:671746,-1,2,-14,-12,-25,-7,-8,-9
13:58:35:680022,-1,2,-14,-12,-25,-7,-8,-9
13:58:35:680757,4,11,-10,2,-4,-21,-10,-1
13:58:35:686729,-2,-10,10,-17,-8,-24,-13,4
13:58:35:694344,-2,-10,10,-17,-8,-24,-13,4
13:58:35:701713,-11,-55,-9,-1,10,-3,-34,-7
13:58:35:709290,7,-6,-11,15,23,16,-25,-6
13:58:35:717377,7,-6,-11,15,23,16,-25,-6
13:58:35:718181,2,-1,17,4,-8,23,31,5
13:58:35:731730,-9,17,9,-4,-29,-10,-2,2
13:58:35:739995,-9,17,9,-4,-29,-10,-2,2
13:58:35:740774,-1,-1,-2,-4,12,-10,-20,-5
13:58:35:746696,-2,14,-14,-18,2,-4,12,-9
13:58:35:754445,-2,14,-14,-18,2,-4,12,-9
13:58:35:761802,0,15,-4,1,10,-2,-14,1
13:58:35:769263,-1,-16,-9,-16,-16,-17,-23,3
13:58:35:777450,-1,-16,-9,-16,-16,-17,-23,3
13:58:35:778211,3,6,-19,-21,-14,16,25,7
13:58:35:791797,9,58,-8,10,19,24,8,1
13:58:35:799877,9,58,-8,10,19,24,8,1
13:58:35:800698,2,24,-5,-3,-19,-19,-8,-5
13:58:35:806784,1,-34,-57,-8,-6,2,7,3
13:58:35:814263,1,-34,-57,-8,-6,2,7,3
13:58:35:821812,-7,20,16,1,18,11,-8,-13
13:58:35:829290,3,-23,-48,-15,7,-9,9,5
13:58:35:837541,3,-23,-48,-15,7,-9,9,5
13:58:35:838257,3,17,19,-13,-21,-22,-18,-1
13:58:35:851720,-5,5,35,15,-6,-3,-14,-8
13:58:35:859984,-5,5,35,15,-6,-3,-14,-8
13:58:35:860760,3,20,9,25,25,4,-14,15
13:58:35:866733,-4,2,28,-17,-6,-16,-3,-4
13:58:35:874346,-4,2,28,-17,-6,-16,-3,-4
13:58:35:881726,-1,-11,-16,-13,-26,-12,2,-4
13:58:35:898112,1,5,15,7,-5,7,6,3
13:58:35:898861,1,5,15,7,-5,7,6,3
13:58:35:899681,-11,-73,-4,11,4,-2,-1,-7
13:58:35:911759,3,33,9,18,35,44,29,4
13:58:35:919983,3,33,9,18,35,44,29,4
13:58:35:920678,-1,29,-29,-34,-10,3,23,7
13:58:35:926810,4,14,1,-1,-15,-14,-26,3
13:58:35:934253,4,14,1,-1,-15,-14,-26,3
13:58:35:941832,-4,-2,29,-6,-21,-6,-4,-9
13:58:35:949191,2,-7,28,15,3,-19,-16,-1
13:58:35:957545,2,-7,28,15,3,-19,-16,-1
13:58:35:958239,6,-27,-26,3,-12,23,16,0
13:58:35:971800,-10,-33,-28,13,38,10,-42,-13
13:58:35:979975,-10,-33,-28,13,38,10,-42,-13
13:58:35:980748,-2,-22,-14,-3,8,-18,-18,-1
13:58:35:986813,-10,-29,-32,-10,-24,-16,1,-4
13:58:35:994282,-10,-29,-32,-10,-24,-16,1,-4
13:58:36:1757,3,-3,25,22,19,26,12,2
13:58:36:9288,-8,-73,-36,-10,-13,-14,-2,-6
13:58:36:24985,-8,-73,-36,-10,-13,-14,-2,-6
13:58:36:25733,-4,-2,1,-2,-9,-19,-3,4
13:58:36:31713,1,36,17,6,-3,9,17,1
13:58:36:40018,1,36,17,6,-3,9,17,1
13:58:36:40772,4,22,33,20,49,50,5,-2
13:58:36:46740,-2,4,-11,-15,-38,9,65,-4
13:58:36:54393,-2,4,-11,-15,-38,9,65,-4
13:58:36:61737,1,85,127,16,-11,-30,-11,2
13:58:36:69295,3,1,5,-7,-6,-17,-26,-3
13:58:36:77502,3,1,5,-7,-6,-17,-26,-3
13:58:36:78280,-7,-8,-74,-23,-1,-11,7,6
13:58:36:91823,1,28,14,-3,0,-10,-8,0
13:58:36:99944,1,28,14,-3,0,-10,-8,0
13:58:36:100713,-1,5,-37,0,-13,-34,-36,-11
13:58:36:106772,6,11,18,2,2,9,6,6
13:58:36:114316,6,11,18,2,2,9,6,6
13:58:36:129905,3,18,21,17,17,40,52,-3
13:58:36:130709,-6,-29,-9,-3,13,-13,-6,-1
13:58:36:137524,-6,-29,-9,-3,13,-13,-6,-1
13:58:36:138220,-7,-13,-36,-6,-7,-34,-21,-7
13:58:36:151752,3,10,28,-3,-8,2,7,-2
13:58:36:160045,3,10,28,-3,-8,2,7,-2
13:58:36:160754,1,-40,-2,3,10,21,13,0
13:58:36:166737,0,-49,13,26,20,-1,0,1
13:58:36:174383,0,-49,13,26,20,-1,0,1
13:58:36:181708,1,13,-1,4,17,-5,10,-3
13:58:36:189248,4,-5,-2,-3,2,-6,8,-1
13:58:36:197419,4,-5,-2,-3,2,-6,8,-1
13:58:36:198232,-3,-19,8,-26,-30,-3,12,4
13:58:36:211757,2,-6,-26,6,10,7,3,5
13:58:36:220033,2,-6,-26,6,10,7,3,5
13:58:36:220745,4,-3,-14,-13,-14,-18,-25,1
13:58:36:226791,-3,28,3,0,15,35,4,3
13:58:36:234318,-3,28,3,0,15,35,4,3
13:58:36:241854,-8,1,30,-3,-12,-12,-45,-11
13:58:36:249212,-4,-10,3,6,0,-33,-29,-9
13:58:36:257539,-4,-10,3,6,0,-33,-29,-9
13:58:36:258222,4,35,11,-7,-13,39,42,7
13:58:36:271787,-3,33,35,19,25,10,8,-2
13:58:36:288192,-3,33,35,19,25,10,8,-2
13:58:36:288934,-2,-3,-21,-5,-6,-14,-15,-1
13:58:36:289719,3,6,-3,-34,-18,-11,-10,1
13:58:36:294321,3,6,-3,-34,-18,-11,-10,1
13:58:36:301765,-6,-17,-7,-2,9,12,11,1
13:58:36:309341,-5,2,-1,-6,6,5,-22,-11
13:58:36:317420,-5,2,-1,-6,6,5,-22,-11
13:58:36:318200,-5,-6,-37,7,0,27,16,-1
13:58:36:331764,8,16,5,10,5,28,34,9
13:58:36:340014,8,16,5,10,5,28,34,9
13:58:36:340802,-8,-62,-45,-12,7,-37,-22,-4
13:58:36:346739,-1,12,-10,-22,-35,-22,-6,2
13:58:36:354315,-1,12,-10,-22,-35,-22,-6,2
13:58:36:361774,0,-19,-13,-8,-7,-14,3,-1
13:58:36:378067,4,1,0,-1,10,-14,-21,1
13:58:36:378867,4,1,0,-1,10,-14,-21,1
13:58:36:379697,6,-22,-35,-4,-13,13,10,-1
13:58:36:391797,-5,-17,-27,-3,12,24,21,3
13:58:36:399961,-5,-17,-27,-3,12,24,21,3
13:58:36:400702,3,44,59,18,10,-2,5,-6
13:58:36:406759,-1,-8,-16,-2,-25,14,44,15
13:58:36:414305,-1,-8,-16,-2,-25,14,44,15
13:58:36:421785,11,48,17,20,9,3,-2,1
13:58:36:429241,-5,-30,5,-7,-9,-23,-34,-9
13:58:36:444997,-5,-30,5,-7,-9,-23,-34,-9
13:58:36:445772,-2,3,-25,-31,-12,-13,-11,-4
13:58:36:460608,2,25,14,18,1,4,15,4
13:58:36:461416,2,25,14,18,1,4,15,4
13:58:36:462241,2,52,57,11,18,1,-9,5
13:58:36:466700,-10,-6,1,9,-28,-19,-16,-9
13:58:36:474387,-10,-6,1,9,-28,-19,-16,-9
13:58:36:481722,-11,-28,-34,-19,-18,-5,-13,-5
13:58:36:498098,3,12,35,5,-3,7,15,2
13:58:36:498892,3,12,35,5,-3,7,15,2
13:58:36:499673,-4,-48,-10,14,13,-5,-29,3
13:58:36:511780,-1,6,-33,-12,1,-7,1,-6
13:58:36:520009,-1,6,-33,-12,1,-7,1,-6
13:58:36:520690,-1,-28,-11,-9,-12,1,-18,1
13:58:36:526804,0,-12,0,-19,-22,-10,8,-2
13:58:36:534307,0,-12,0,-19,-22,-10,8,-2
13:58:36:541794,0,31,20,6,15,7,13,2
13:58:36:549194,0,13,-3,-11,11,11,-12,-6
13:58:36:556902,0,13,-3,-11,11,11,-12,-6
13:58:36:564276,7,7,-2,0,-16,-4,14,6
13:58:36:571797,6,32,-3,4,31,28,22,1
13:58:36:579917,6,32,-3,4,31,28,22,1
13:58:36:580751,2,41,5,-2,5,23,35,-1
13:58:36:594996,2,-22,-18,-5,-33,-22,-8,-3
13:58:36:595806,2,-22,-18,-5,-33,-22,-8,-3
13:58:36:601742,0,-18,-10,11,3,-17,-21,-6
13:58:36:617465,-1,-10,-16,5,33,14,-6,5
13:58:36:618231,-1,-10,-16,5,33,14,-6,5
13:58:36:624351,-10,-31,-2,-6,-2,-23,-3,-5
13:58:36:631792,-11,-35,-8,-5,8,-4,-9,-2
13:58:36:640047,-11,-35,-8,-5,8,-4,-9,-2
13:58:36:640788,3,31,3,-2,-7,-49,-76,-7
13:58:36:655078,-7,-9,-6,5,-7,15,-8,-5
13:58:36:655767,-7,-9,-6,5,-7,15,-8,-5
13:58:36:661732,-6,25,-6,6,8,35,34,3
13:58:36:669245,3,17,15,10,-8,-1,-9,2
13:58:36:676852,3,17,15,10,-8,-1,-9,2
13:58:36:684209,-5,-48,-5,-4,0,-12,-2,-8
13:58:36:691853,-12,-2,-10,1,10,-3,-2,-5
13:58:36:699902,-12,-2,-10,1,10,-3,-2,-5
13:58:36:700690,7,-1,28,-6,-13,19,18,4
13:58:36:714925,0,-7,5,32,24,-9,13,11
13:58:36:715738,0,-7,5,32,24,-9,13,11
13:58:36:721803,8,-4,-6,-4,-19,-9,6,-4
13:58:36:737579,-15,-13,39,-3,-12,-37,-81,-45
13:58:36:738259,-15,-13,39,-3,-12,-37,-81,-45
13:58:36:744245,3,-12,-17,-16,10,86,124,63
13:58:36:751724,1,-20,9,-14,-7,-5,-58,-37
13:58:36:760005,1,-20,9,-14,-7,-5,-58,-37
13:58:36:760786,-3,8,-11,0,-2,-36,-13,-29
13:58:36:775039,0,-22,-20,9,-7,6,112,33
13:58:36:775728,0,-22,-20,9,-7,6,112,33
13:58:36:781722,-1,43,9,0,9,-11,-38,-1
13:58:36:789277,9,-5,12,9,0,-7,-8,4
13:58:36:796829,9,-5,12,9,0,-7,-8,4
13:58:36:804299,-2,-19,-21,19,13,7,45,9
13:58:36:811789,-2,18,21,-13,-11,6,-50,-14
13:58:36:819911,-2,18,21,-13,-11,6,-50,-14
13:58:36:820740,8,2,-3,-3,11,9,-50,5
13:58:36:834913,0,6,0,1,-14,-30,-25,0
13:58:36:835706,0,6,0,1,-14,-30,-25,0
13:58:36:841773,4,-24,-10,-12,2,27,76,13
13:58:36:857504,1,14,-19,-3,4,8,-7,6
13:58:36:858224,1,14,-19,-3,4,8,-7,6
13:58:36:864251,-20,-13,-2,-14,-24,-25,-12,-20
13:58:36:871832,-5,-6,5,7,-4,8,26,5
13:58:36:880584,-5,-6,5,7,-4,8,26,5
13:58:36:881362,5,-4,28,19,14,-5,-55,-13
13:58:36:895383,6,10,13,-13,-20,-17,12,0
13:58:36:896159,6,10,13,-13,-20,-17,12,0
13:58:36:901758,-13,-9,26,1,9,14,4,-6
13:58:36:909306,10,10,-21,-20,-17,-45,-29,-1
13:58:36:916850,10,10,-21,-20,-17,-45,-29,-1
13:58:36:924322,9,21,-1,24,18,-35,-46,7
13:58:36:931750,-22,-7,2,-17,18,22,38,4
13:58:36:939939,-22,-7,2,-17,18,22,38,4
13:58:36:940738,4,1,29,12,-6,-24,-91,-39
13:58:36:954986,1,16,0,7,-4,7,4,-4
13:58:36:955718,1,16,0,7,-4,7,4,-4
13:58:36:961723,-6,-11,-16,-20,-29,-8,58,11
13:58:36:977453,1,14,7,12,22,19,7,9
13:58:36:978227,1,14,7,12,22,19,7,9
13:58:36:984239,-4,-17,25,-14,-14,-6,-19,-16
13:58:36:991789,7,15,24,-2,9,26,21,14
13:58:36:999947,7,15,24,-2,9,26,21,14
13:58:37:715,3,-3,-6,32,-3,7,-63,0
13:58:37:15359,-5,-13,-4,1,6,-16,1,4
13:58:37:16168,-5,-13,-4,1,6,-16,1,4
13:58:37:21775,-11,16,-38,-45,-31,-19,60,-2
13:58:37:29270,5,7,-3,-2,-15,-15,-22,-7
13:58:37:36866,5,7,-3,-2,-15,-15,-22,-7
13:58:37:44305,-25,-33,-67,-23,1,-5,11,2
13:58:37:51749,-10,-37,-77,-18,0,38,43,-3
13:58:37:59995,-10,-37,-77,-18,0,38,43,-3
13:58:37:60765,11,4,30,34,11,8,8,-5
13:58:37:75043,-3,30,34,-4,-8,-6,-16,-7
13:58:37:75749,-3,30,34,-4,-8,-6,-16,-7
13:58:37:81755,-21,21,-2,-1,-7,-4,-62,0
13:58:37:89277,-30,2,-4,0,-16,-33,-8,-5
13:58:37:96795,-30,2,-4,0,-16,-33,-8,-5
13:58:37:104340,9,11,-6,25,-1,10,13,3
13:58:37:111758,25,3,-32,10,24,20,-38,7
13:58:37:120012,25,3,-32,10,24,20,-38,7
13:58:37:120747,6,13,-2,-10,-14,-1,30,5
13:58:37:134929,8,-28,24,15,3,-21,-30,-10
13:58:37:135755,8,-28,24,15,3,-21,-30,-10
13:58:37:141856,-2,2,-23,-35,0,7,30,6
13:58:37:149182,0,7,-9,-23,-24,-16,5,3
13:58:37:156865,0,7,-9,-23,-24,-16,5,3
13:58:37:164208,-11,-8,17,-4,13,17,-7,-9
13:58:37:171787,17,0,-17,12,-2,14,-21,6
13:58:37:179959,17,0,-17,12,-2,14,-21,6
13:58:37:180712,7,-13,-42,1,-26,-22,-2,-2
13:58:37:194935,-15,14,-7,-3,7,0,26,-11
13:58:37:195727,-15,14,-7,-3,7,0,26,-11
13:58:37:201708,6,0,-10,29,21,15,25,-9
13:58:37:209319,-14,-8,27,11,19,0,15,4
13:58:37:216761,-14,-8,27,11,19,0,15,4
13:58:37:224303,-7,11,28,-7,-13,-8,19,7
13:58:37:231728,3,-20,-16,5,-31,-30,-6,-5
13:58:37:240011,3,-20,-16,5,-31,-30,-6,-5
13:58:37:240774,-13,-9,35,-4,28,26,-2,-3
13:58:37:255032,-9,11,35,13,17,14,-38,-9
13:58:37:255744,-9,11,35,13,17,14,-38,-9
13:58:37:261738,-18,21,-24,0,-17,-12,1,-10
13:58:37:277471,14,-1,-29,-19,-27,-11,12,1
13:58:37:278253,14,-1,-29,-19,-27,-11,12,1
13:58:37:292488,29,-12,13,24,21,-10,-19,7
13:58:37:293172,11,9,2,16,4,19,2,4
13:58:37:299911,11,9,2,16,4,19,2,4
13:58:37:300681,18,-21,-26,8,14,12,22,-2
13:58:37:314933,-4,0,21,-19,-24,-20,0,1
13:58:37:315687,-4,0,21,-19,-24,-20,0,1
13:58:37:321795,-10,9,48,-27,6,-7,-9,-1
13:58:37:329252,-2,2,-8,-3,5,2,-25,1
13:58:37:336897,-2,2,-8,-3,5,2,-25,1
13:58:37:344214,-25,15,34,-4,0,23,-47,-14
13:58:37:351782,-4,-13,-39,-29,-10,9,51,-2
13:58:37:360021,-4,-13,-39,-29,-10,9,51,-2
13:58:37:360734,10,-11,14,7,-1,26,7,0
13:58:37:374962,-19,8,18,32,42,8,-3,-9
13:58:37:375737,-19,8,18,32,42,8,-3,-9
13:58:37:381747,6,2,9,-12,-26,-29,5,5
13:58:37:397432,-28,-46,-37,-3,11,18,16,-5
13:58:37:398238,-28,-46,-37,-3,11,18,16,-5
13:58:37:404280,1,-2,2,-6,-15,-29,-6,-4
13:58:37:411714,25,25,7,5,5,0,-40,5
13:58:37:419980,25,25,7,5,5,0,-40,5
13:58:37:420741,12,-9,-51,21,11,-3,-8,3
13:58:37:434939,-20,2,35,-5,-27,-22,19,-1
13:58:37:435727,-20,2,35,-5,-27,-22,19,-1
13:58:37:449903,17,6,17,19,27,43,22,6
13:58:37:450719,5,-4,0,3,-2,-5,-8,-3
13:58:37:456859,5,-4,0,3,-2,-5,-8,-3
13:58:37:464251,-16,-49,-18,-5,-5,-29,-10,-7
13:58:37:471792,1,10,-34,-23,12,12,-10,6
13:58:37:479299,1,10,-34,-23,12,12,-10,6
13:58:37:486744,-6,-38,2,-17,-21,-3,-1,-1
13:58:37:494942,5,-21,30,7,-13,-15,10,5
13:58:37:495740,5,-21,30,7,-13,-15,10,5
13:58:37:501738,10,12,20,5,21,8,-1,-6
13:58:37:517413,26,22,6,-24,-7,-5,8,6
13:58:37:518222,26,22,6,-24,-7,-5,8,6
13:58:37:532403,-16,1,-6,-17,-41,-36,-14,2
13:58:37:533183,-4,-15,-15,9,31,9,-22,-12
13:58:37:539268,-4,-15,-15,9,31,9,-22,-12
13:58:37:546762,20,15,-9,-1,24,43,18,11
13:58:37:555024,-9,10,-19,16,-29,-21,2,0
13:58:37:555700,-9,10,-19,16,-29,-21,2,0
13:58:37:569193,1,11,-25,-17,-13,-13,20,3
13:58:37:577417,-8,7,-2,-14,1,8,10,-3
13:58:37:578246,-8,7,-2,-14,1,8,10,-3
13:58:37:584182,6,18,-32,13,-32,-36,6,2
13:58:37:591816,-2,24,20,23,25,10,17,15
13:58:37:599253,-2,24,20,23,25,10,17,15
13:58:37:606832,-25,14,11,20,4,1,-22,0
13:58:37:614931,2,4,38,-1,-6,2,-4,-2
13:58:37:615724,2,4,38,-1,-6,2,-4,-2
13:58:37:621792,6,-2,-10,-5,2,-9,-7,-1
13:58:37:637522,-7,-14,-14,-11,-15,-16,-5,-7
13:58:37:638266,-7,-14,-14,-11,-15,-16,-5,-7
13:58:37:644257,-24,-13,6,17,8,20,11,-12
13:58:37:651752,-17,4,-9,-5,25,15,-18,-6
13:58:37:659406,-17,4,-9,-5,25,15,-18,-6
13:58:37:666708,11,3,-9,-12,8,14,10,3
13:58:37:675067,17,14,19,34,-4,-15,14,5
13:58:37:675791,17,14,19,34,-4,-15,14,5
13:58:37:689245,-3,-19,2,-5,11,-5,-20,3
13:58:37:697482,0,-18,45,-14,5,19,6,-1
13:58:37:698284,0,-18,45,-14,5,19,6,-1
13:58:37:704309,-16,-13,9,-37,-34,-44,-7,-6
13:58:37:711771,0,-5,23,7,23,42,44,-6
13:58:37:719226,0,-5,23,7,23,42,44,-6
13:58:37:726786,0,17,27,22,13,21,18,3
13:58:37:734887,-19,3,-5,-13,-40,-33,-6,-3
13:58:37:735723,-19,3,-5,-13,-40,-33,-6,-3
13:58:37:741823,26,-53,-15,-2,-14,-7,-38,-6
13:58:37:757480,21,3,-7,-12,-20,-7,-10,-2
13:58:37:758199,21,3,-7,-12,-20,-7,-10,-2
13:58:37:764231,6,1,-10,-14,-11,1,15,8
13:58:37:771791,23,1,-42,1,21,29,12,8
13:58:37:779296,23,1,-42,1,21,29,12,8
13:58:37:786883,-2,52,1,-12,-3,-23,-15,-8
13:58:37:794925,5,11,0,-2,-5,16,-3,-1
13:58:37:795719,5,11,0,-2,-5,16,-3,-1
13:58:37:801743,-6,-4,-8,4,16,32,20,-4
13:58:37:817389,-37,-25,-48,-33,-10,-23,-9,4
13:58:37:818204,-37,-25,-48,-33,-10,-23,-9,4
13:58:37:824298,4,-14,-10,-6,3,-10,-2,6
13:58:37:831746,3,-24,8,12,-4,-8,0,-1
13:58:37:839290,3,-24,8,12,-4,-8,0,-1
13:58:37:846762,-9,-7,-22,1,5,5,-4,-5
13:58:37:855037,10,14,16,3,7,23,26,0
13:58:37:855726,10,14,16,3,7,23,26,0
13:58:37:861758,-4,6,34,5,-15,-23,8,-5
13:58:37:877463,-19,-22,20,17,7,-9,18,-2
13:58:37:878262,-19,-22,20,17,7,-9,18,-2
13:58:37:884197,-9,-16,-17,1,18,2,-20,-5
13:58:37:891850,-3,-6,-32,14,-10,-17,-48,-9
13:58:37:899267,-3,-6,-32,14,-10,-17,-48,-9
13:58:37:906794,26,14,10,8,10,25,13,3
13:58:37:914948,0,-6,22,-34,-21,-3,5,2
13:58:37:915718,0,-6,22,-34,-21,-3,5,2
13:58:37:921817,17,8,1,8,0,-11,-10,0
13:58:37:937542,7,11,-35,5,-5,-12,-27,2
13:58:37:938220,7,11,-35,5,-5,-12,-27,2
13:58:37:944256,0,-8,-15,-1,16,7,-3,-6
13:58:37:951730,7,4,-3,3,4,0,6,-2
13:58:37:967455,7,4,-3,3,4,0,6,-2
13:58:37:968237,18,-16,-5,-8,-16,5,5,18
13:58:37:975053,-8,-9,-6,-24,-9,-5,-2,-6
13:58:37:975749,-8,-9,-6,-24,-9,-5,-2,-6
13:58:37:981716,-39,5,7,-21,-28,-15,-1,-12
13:58:38:5634,8,7,-6,-17,9,18,7,2
13:58:38:6332,8,7,-6,-17,9,18,7,2
13:58:38:7188,-20,-3,10,-2,16,-2,-7,-11
13:58:38:11756,-6,-2,-1,12,14,1,-4,-4
13:58:38:19266,-6,-2,-1,12,14,1,-4,-4
13:58:38:26855,-3,2,14,1,-25,-3,1,-1
13:58:38:34924,-25,-17,8,25,31,17,18,-3
13:58:38:35756,-25,-17,8,25,31,17,18,-3
13:58:38:41820,0,8,11,-5,7,-5,-2,10
13:58:38:57506,16,0,18,-15,-21,-17,-8,-1
13:58:38:58275,16,0,18,-15,-21,-17,-8,-1
13:58:38:64224,7,0,-6,0,-7,-5,12,6
13:58:38:71832,20,1,14,-27,-16,-3,-2,0
13:58:38:79286,20,1,14,-27,-16,-3,-2,0
13:58:38:86766,-3,0,15,-6,-3,1,-14,-2
13:58:38:94968,-3,4,-17,2,-15,0,-13,-10
13:58:38:95754,-3,4,-17,2,-15,0,-13,-10
13:58:38:101776,3,-2,-3,0,2,25,-6,-10
13:58:38:117439,0,-2,-12,2,7,-24,-6,9
13:58:38:118237,0,-2,-12,2,7,-24,-6,9
13:58:38:124302,1,12,-5,17,-5,-11,12,0
13:58:38:131738,-9,5,13,-2,-9,-23,6,-10
13:58:38:139328,-9,5,13,-2,-9,-23,6,-10
13:58:38:146771,6,-14,-14,-9,-4,-6,-3,-2
13:58:38:155022,40,-14,-14,3,5,10,-9,2
13:58:38:155722,40,-14,-14,3,5,10,-9,2
13:58:38:161779,-12,1,10,10,4,-16,-10,-8
13:58:38:177434,-5,16,-9,-4,-5,2,23,0
13:58:38:178255,-5,16,-9,-4,-5,2,23,0
13:58:38:184191,-2,8,-23,37,15,17,-11,2
13:58:38:191854,5,9,10,1,-11,0,0,10
13:58:38:199271,5,9,10,1,-11,0,0,10
13:58:38:206832,-29,1,-20,13,12,-6,-3,-8
13:58:38:214896,-12,-11,-23,0,-12,-20,-19,-13
13:58:38:215726,-12,-11,-23,0,-12,-20,-19,-13
13:58:38:221775,3,-29,-3,-20,-14,8,39,7
13:58:38:238169,-4,6,5,8,30,27,5,12
13:58:38:238881,-4,6,5,8,30,27,5,12
13:58:38:244243,8,1,15,-5,24,2,3,-3
13:58:38:251732,-5,3,17,5,-18,-14,-28,-10
13:58:38:259362,-5,3,17,5,-18,-14,-28,-10
13:58:38:266734,5,1,-6,-22,-3,-6,-7,-3
13:58:38:275027,5,2,28,-15,1,3,9,5
13:58:38:275740,5,2,28,-15,1,3,9,5
13:58:38:281748,4,-7,1,-21,-24,-10,-25,-3
13:58:38:297426,-10,-10,-20,3,41,6,15,5
13:58:38:298247,-10,-10,-20,3,41,6,15,5
13:58:38:304302,1,8,6,9,-5,2,5,-2
13:58:38:311774,18,30,52,12,-20,1,-6,-4
13:58:38:319291,18,30,52,12,-20,1,-6,-4
13:58:38:326905,-4,-14,-12,-7,7,-9,-4,2
13:58:38:343198,-9,1,-18,36,16,5,-10,-7
13:58:38:343939,-9,1,-18,36,16,5,-10,-7
13:58:38:344752,0,-3,27,49,-2,3,2,4
13:58:38:357461,-9,-20,-20,-15,9,5,1,-4
13:58:38:358285,-9,-20,-20,-15,9,5,1,-4
13:58:38:364241,0,14,-4,-10,13,-15,-7,4
13:58:38:371780,-15,16,0,3,-15,0,-37,-11
13:58:38:379305,-15,16,0,3,-15,0,-37,-11
13:58:38:386724,22,18,-13,-30,-16,-16,-3,-1
13:58:38:394905,-11,-3,-5,-28,25,26,7,-2
13:58:38:395747,-11,-3,-5,-28,25,26,7,-2
13:58:38:401759,1,-2,9,6,24,9,2,7
13:58:38:417437,1,-2,9,6,24,9,2,7
13:58:38:418247,-10,-32,-32,-11,-27,-20,-8,-2
13:58:38:424262,-18,-12,-7,1,-18,-7,4,-4
13:58:38:439952,-18,-12,-7,1,-18,-7,4,-4
13:58:38:440765,4,-9,17,-3,-1,-14,3,-2
13:58:38:446757,7,5,5,11,7,59,3,-3
13:58:38:455023,7,5,5,11,7,59,3,-3
13:58:38:455710,8,-11,-48,4,3,13,-5,1
13:58:38:469279,-32,-4,-24,-3,2,-13,-13,-15
13:58:38:477429,-32,-4,-24,-3,2,-13,-13,-15
13:58:38:478213,-6,-2,-1,-13,-19,-22,6,2
13:58:38:484242,12,-6,-16,-11,-18,0,-8,7
13:58:38:499900,12,-6,-16,-11,-18,0,-8,7
13:58:38:500727,-11,10,8,-3,2,-9,8,0
13:58:38:506800,-12,10,-6,-17,-17,11,28,0
13:58:38:514915,-12,10,-6,-17,-17,11,28,0
13:58:38:515694,3,-3,-5,-3,-3,-3,-3,-5
13:58:38:529211,14,-11,-16,-3,-17,15,5,9
13:58:38:537441,14,-11,-16,-3,-17,15,5,9
13:58:38:538194,6,18,15,35,16,2,7,0
13:58:38:544270,-23,2,-5,11,10,-19,-9,-10
13:58:38:559977,-23,2,-5,11,10,-19,-9,-10
13:58:38:560740,-26,-11,-9,-17,-9,-17,-16,-4
13:58:38:566704,2,-2,-2,6,16,12,11,-3
13:58:38:575026,2,-2,-2,6,16,12,11,-3
13:58:38:575764,2,13,17,-1,-4,17,18,10
13:58:38:589260,4,-5,18,-9,7,-11,-13,2
13:58:38:597438,4,-5,18,-9,7,-11,-13,2
13:58:38:598220,9,19,-2,-3,-24,-46,-9,-5
13:58:38:604390,5,9,15,-11,7,1,32,-3
13:58:38:620000,5,9,15,-11,7,1,32,-3
13:58:38:620734,-44,-15,-21,21,32,11,-6,-2
13:58:38:626787,1,-2,-10,-6,-3,-14,10,7
13:58:38:634901,1,-2,-10,-6,-3,-14,10,7
13:58:38:635718,16,7,2,4,9,16,3,-7
13:58:38:649208,2,4,-11,-18,-14,27,20,6
13:58:38:665572,2,4,-11,-18,-14,27,20,6
13:58:38:666340,4,-2,1,-18,-11,2,5,9
13:58:38:667167,-6,-8,25,3,-11,-41,-31,-4
13:58:38:679936,-6,-8,25,3,-11,-41,-31,-4
13:58:38:680738,27,-3,8,2,7,38,35,4
13:58:38:686824,9,-8,-17,30,-10,9,8,-4
13:58:38:694992,9,-8,-17,30,-10,9,8,-4
13:58:38:695747,3,-8,2,-8,-9,-3,0,-4
13:58:38:709338,-1,17,8,-7,-3,-13,-10,-4
13:58:38:717403,-1,17,8,-7,-3,-13,-10,-4
13:58:38:718190,-23,-8,11,8,12,26,30,3
13:58:38:724253,9,-6,-22,-19,-8,-53,-46,-10
13:58:38:739938,9,-6,-22,-19,-8,-53,-46,-10
13:58:38:740713,-3,-3,-5,-18,-13,11,0,-3
13:58:38:755603,-7,9,12,15,23,-5,-12,-2
13:58:38:756408,-7,9,12,15,23,-5,-12,-2
13:58:38:757205,2,-7,26,0,-6,-14,-9,-5
13:58:38:769240,0,-7,0,-16,-7,-20,-46,-7
13:58:38:777402,0,-7,0,-16,-7,-20,-46,-7
13:58:38:778271,13,4,-29,-1,-10,3,4,1
13:58:38:784211,-13,-3,16,-14,26,-5,-7,-7
13:58:38:799937,-13,-3,16,-14,26,-5,-7,-7
13:58:38:800729,3,-12,8,-3,-20,-1,1,1
13:58:38:806785,-1,5,-21,-19,9,26,-8,-3
13:58:38:814920,-1,5,-21,-19,9,26,-8,-3
13:58:38:815713,18,-6,-22,-18,-23,-31,-28,-5
13:58:38:829269,-23,-12,12,7,-7,13,18,2
13:58:38:837501,-23,-12,12,7,-7,13,18,2
13:58:38:838279,-10,18,4,17,14,-18,-17,-3
13:58:38:844289,-6,10,28,45,1,-1,4,4
13:58:38:860009,-6,10,28,45,1,-1,4,4
13:58:38:860749,-7,1,-5,13,-1,-6,-5,0
13:58:38:866696,-6,-24,2,-13,-2,13,4,0
13:58:38:875048,-6,-24,2,-13,-2,13,4,0
13:58:38:875796,-13,22,-2,-9,4,4,-3,2
13:58:38:889247,17,-2,-16,-1,-13,-9,7,-3
13:58:38:897451,17,-2,-16,-1,-13,-9,7,-3
13:58:38:898244,12,-10,-15,-8,-15,-7,-14,-7
13:58:38:904314,-12,1,4,5,6,23,25,1
13:58:38:919992,-12,1,4,5,6,23,25,1
13:58:38:920752,18,-1,6,-19,-11,-17,-3,14
13:58:38:926837,11,27,11,2,-6,-1,11,-6
13:58:38:934933,11,27,11,2,-6,-1,11,-6
13:58:38:935712,10,-7,30,14,23,32,3,3
13:58:38:949215,-11,-11,-16,-18,-25,-21,-4,-2
13:58:38:957540,-11,-11,-16,-18,-25,-21,-4,-2
13:58:38:958235,14,3,-28,-13,5,-5,-2,-7
13:58:38:964234,18,4,0,8,6,-4,3,5
13:58:38:979949,18,4,0,8,6,-4,3,5
13:58:38:980764,-14,-7,-6,-15,11,8,6,-5
13:58:38:986881,3,8,3,-3,26,29,-19,5
13:58:38:994985,3,8,3,-3,26,29,-19,5
13:58:38:995734,-5,-12,6,-5,-32,-18,0,5
13:58:39:9279,-22,-10,-15,10,4,-7,2,4
13:58:39:17432,-22,-10,-15,10,4,-7,2,4
13:58:39:18220,12,5,1,8,-16,-37,-9,-9
13:58:39:24243,1,8,12,2,2,12,7,1
13:58:39:39917,1,8,12,2,2,12,7,1
13:58:39:40735,-2,2,-27,14,-25,-11,-3,-1
13:58:39:46747,10,3,-1,-23,10,10,-2,-5
13:58:39:55078,10,3,-1,-23,10,10,-2,-5
13:58:39:55749,-22,7,4,19,24,13,7,-7
13:58:39:69285,17,-8,-2,6,-7,5,-2,5
13:58:39:77442,17,-8,-2,6,-7,5,-2,5
13:58:39:78235,-31,-11,10,-9,-1,-2,-1,-9
13:58:39:84174,8,-19,8,4,4,0,-5,5
13:58:39:99916,8,-19,8,4,4,0,-5,5
13:58:39:100716,6,-9,5,4,18,52,35,7
13:58:39:106747,-8,1,6,-8,-26,-18,-4,-7
13:58:39:114948,-8,1,6,-8,-26,-18,-4,-7
13:58:39:115704,20,25,19,2,-12,-11,-11,3
13:58:39:129375,2,-2,-18,47,27,12,11,1
13:58:39:137557,2,-2,-18,47,27,12,11,1
13:58:39:138210,35,-2,-17,-7,-6,-15,-7,11
13:58:39:144226,15,3,-10,-15,-23,14,21,5
13:58:39:159965,15,3,-10,-15,-23,14,21,5
13:58:39:160757,-30,-9,2,-26,0,-18,-9,0
13:58:39:166750,-33,-12,1,7,19,1,-9,-13
13:58:39:175064,-33,-12,1,7,19,1,-9,-13
13:58:39:175788,-8,-15,-30,-13,-7,-4,-11,-3
13:58:39:189211,3,3,-11,-27,-14,-19,0,-3
13:58:39:197449,3,3,-11,-27,-14,-19,0,-3
13:58:39:198248,-5,-1,-5,-11,5,-3,-2,-7
13:58:39:204329,-4,-8,-3,4,-13,0,-10,-1
13:58:39:219959,-4,-8,-3,4,-13,0,-10,-1
13:58:39:220727,-9,-9,2,7,0,-1,-7,-12
13:58:39:226824,-12,0,11,-2,-5,-7,11,2
13:58:39:234905,-12,0,11,-2,-5,-7,11,2
13:58:39:235733,-10,-2,1,13,7,-13,-35,-29
13:58:39:249207,7,-3,-18,-29,-8,10,4,4
13:58:39:257463,7,-3,-18,-29,-8,10,4,4
13:58:39:258185,-3,0,1,-4,-3,-1,13,7
13:58:39:264257,8,12,11,12,28,13,10,8
13:58:39:279988,8,12,11,12,28,13,10,8
13:58:39:280794,35,9,16,17,10,0,-14,16
13:58:39:286863,2,-27,-13,-15,-18,-10,-4,-4
13:58:39:294960,2,-27,-13,-15,-18,-10,-4,-4
13:58:39:295753,-20,-18,-12,-3,-12,-6,-2,-7
13:58:39:309358,-2,-3,-7,16,-9,-27,-25,-4
13:58:39:317441,-2,-3,-7,16,-9,-27,-25,-4
13:58:39:318264,-17,4,20,-14,15,14,21,0
13:58:39:324288,-6,5,10,3,19,0,0,0
13:58:39:340038,-6,5,10,3,19,0,0,0
13:58:39:340773,-1,17,-1,9,-9,-12,-8,3
13:58:39:346752,-22,3,-4,-9,-21,-10,-1,-8
13:58:39:354990,-22,3,-4,-9,-21,-10,-1,-8
13:58:39:355757,5,-10,-40,29,24,14,-11,4
13:58:39:369255,13,15,31,7,-3,4,-10,-12
13:58:39:377447,13,15,31,7,-3,4,-10,-12
13:58:39:378242,2,0,12,13,-10,0,37,1
13:58:39:391813,-15,-18,2,5,11,-9,-8,4
13:58:39:399947,-15,-18,2,5,11,-9,-8,4
13:58:39:400716,-4,-8,-7,-19,-11,-6,-24,2
13:58:39:406814,-14,8,-7,-11,-5,1,13,-3
13:58:39:414298,-14,8,-7,-11,-5,1,13,-3
13:58:39:421745,9,2,-9,-11,6,-8,0,5
13:58:39:429264,34,14,-10,4,9,7,0,5
13:58:39:437499,34,14,-10,4,9,7,0,5
13:58:39:438168,-5,8,14,2,15,0,-4,-2
13:58:39:451747,0,-9,-15,-5,-2,23,44,-5
13:58:39:460002,0,-9,-15,-5,-2,23,44,-5
13:58:39:460711,-4,4,-9,7,7,-1,5,-11
13:58:39:466713,-2,5,11,-10,-7,-5,-24,-11
13:58:39:474365,-2,5,11,-10,-7,-5,-24,-11
13:58:39:481745,16,2,-6,-24,7,17,0,6
13:58:39:489229,-23,-11,-7,14,-7,-24,-16,4
13:58:39:497403,-23,-11,-7,14,-7,-24,-16,4
13:58:39:498231,2,-12,8,7,7,22,27,10
13:58:39:511777,-8,2,2,6,-2,-4,-20,2
13:58:39:519944,-8,2,2,6,-2,-4,-20,2
13:58:39:520785,-3,0,-3,3,-26,-26,-4,-6
13:58:39:526778,24,8,14,-12,11,-5,-10,5
13:58:39:534245,24,8,14,-12,11,-5,-10,5
13:58:39:541817,-9,-18,7,5,37,5,-24,-7
13:58:39:549160,-4,-1,-8,13,8,14,24,2
13:58:39:557523,-4,-1,-8,13,8,14,24,2
13:58:39:558215,7,4,11,-8,-28,-24,13,10
13:58:39:571794,9,-28,-20,2,-12,-13,-27,-10
13:58:39:579947,9,-28,-20,2,-12,-13,-27,-10
13:58:39:580770,13,6,-4,7,-5,10,-22,-5
13:58:39:586768,-2,7,14,-12,-6,10,15,0
13:58:39:594299,-2,7,14,-12,-6,10,15,0
13:58:39:601756,0,-6,1,-23,-5,9,14,2
13:58:39:609300,-2,2,-14,-1,-15,-21,-13,-1
13:58:39:617439,-2,2,-14,-1,-15,-21,-13,-1
13:58:39:618218,-20,-33,1,-9,8,6,2,-1
13:58:39:632162,-6,9,2,-13,-5,-17,-24,-10
13:58:39:639941,-6,9,2,-13,-5,-17,-24,-10
13:58:39:640739,11,3,9,33,0,-12,20,3
13:58:39:646752,30,-2,1,-1,-3,14,40,19
13:58:39:654423,30,-2,1,-1,-3,14,40,19
13:58:39:661780,3,2,-10,1,2,2,14,1
13:58:39:669253,-1,-8,5,-8,5,2,-16,-8
13:58:39:677476,-1,-8,5,-8,5,2,-16,-8
13:58:39:678257,3,13,-6,28,-6,-4,-10,-4
13:58:39:691928,-12,-12,-38,-6,-11,-4,-6,12
13:58:39:699934,-12,-12,-38,-6,-11,-4,-6,12
13:58:39:700713,-19,-13,-5,-37,2,9,-2,-15
13:58:39:706825,-14,2,9,2,22,-30,-44,-13
13:58:39:714302,-14,2,9,2,22,-30,-44,-13
13:58:39:721815,9,7,-2,-4,-18,9,13,1
13:58:39:729232,-9,-2,9,-10,-8,10,20,2
13:58:39:737492,-9,-2,9,-10,-8,10,20,2
13:58:39:738206,-36,14,-12,7,-9,-1,1,-2
13:58:39:751764,25,-5,-19,-15,22,5,-6,-9
13:58:39:760076,25,-5,-19,-15,22,5,-6,-9
13:58:39:760725,-1,6,-4,-2,0,-7,-13,4
13:58:39:766734,8,19,8,12,4,13,23,15
13:58:39:774302,8,19,8,12,4,13,23,15
13:58:39:781726,12,-1,2,-17,-1,-7,-11,-4
13:58:39:789280,-12,-1,19,30,-1,-11,-9,-10
13:58:39:797436,-12,-1,19,30,-1,-11,-9,-10
13:58:39:798277,-17,-19,4,21,11,2,-24,1
13:58:39:811777,10,12,-3,-17,-5,16,-13,2
13:58:39:819894,10,12,-3,-17,-5,16,-13,2
13:58:39:820718,13,-12,-10,-32,-20,-3,-27,-3
13:58:39:826828,0,-21,10,-8,-7,-3,0,2
13:58:39:834221,0,-21,10,-8,-7,-3,0,2
13:58:39:841816,5,11,25,16,9,1,7,-1
13:58:39:849208,10,-15,-19,-8,-25,-25,-18,-4
13:58:39:857497,10,-15,-19,-8,-25,-25,-18,-4
13:58:39:858217,1,-7,-1,1,22,34,34,7
13:58:39:871822,-6,-8,-2,-10,-11,-5,16,-2
13:58:39:879973,-6,-8,-2,-10,-11,-5,16,-2
13:58:39:880731,-31,4,10,-1,-1,5,2,-10
13:58:39:886797,-11,-2,6,-3,-15,1,-2,-8
13:58:39:894310,-11,-2,6,-3,-15,1,-2,-8
13:58:39:901774,25,12,-2,13,10,-7,-7,2
13:58:39:909308,-6,7,3,4,-5,6,-10,1
13:58:39:917475,-6,7,3,4,-5,6,-10,1
13:58:39:918243,9,-6,-11,15,3,7,5,0
13:58:39:931743,-40,-2,-10,1,-5,-7,2,-11
13:58:39:939948,-40,-2,-10,1,-5,-7,2,-11
13:58:39:940767,6,-8,-3,-16,-7,-5,1,-4
13:58:39:946743,20,19,4,2,3,4,14,3
13:58:39:954316,20,19,4,2,3,4,14,3
13:58:39:961781,-11,-2,-5,-21,-30,-8,9,6
13:58:39:969218,8,9,-3,-17,8,-10,-12,-3
13:58:39:977461,8,9,-3,-17,8,-10,-12,-3
13:58:39:978240,10,0,-5,5,-6,-3,17,1
13:58:39:991858,2,6,2,8,5,14,45,0
13:58:39:999960,2,6,2,8,5,14,45,0
13:58:40:742,-8,-6,-4,11,4,-10,-35,-12
13:58:40:6837,22,-6,8,3,16,7,-6,12
13:58:40:14308,22,-6,8,3,16,7,-6,12
13:58:40:21800,-4,-23,9,0,-7,-1,15,3
13:58:40:29271,-31,-12,-25,0,-3,5,10,-5
13:58:40:37490,-31,-12,-25,0,-3,5,10,-5
13:58:40:38218,7,-4,4,11,-17,-32,-10,0
13:58:40:51815,5,-4,-3,-4,10,3,6,-2
13:58:40:60055,5,-4,-3,-4,10,3,6,-2
13:58:40:60753,-35,-6,4,0,10,-1,-12,-8
13:58:40:66719,9,-9,-32,4,0,-8,-20,-2
13:58:40:74313,9,-9,-32,4,0,-8,-20,-2
13:58:40:81768,-8,5,-21,0,-4,0,-1,-11
13:58:40:89261,-10,-10,6,16,-4,19,11,-8
13:58:40:97449,-10,-10,6,16,-4,19,11,-8
13:58:40:98215,-13,0,-7,-9,-10,-1,-6,3
13:58:40:111816,-41,-24,21,-5,-7,-11,-15,-9
13:58:40:120029,-41,-24,21,-5,-7,-11,-15,-9
13:58:40:120727,13,20,7,-1,23,13,14,2
13:58:40:126805,13,-5,12,0,11,6,-7,-5
13:58:40:134258,13,-5,12,0,11,6,-7,-5
13:58:40:141820,-14,-35,11,-11,-13,-17,-6,2
13:58:40:149197,-19,-4,-8,19,-11,-10,9,-2
13:58:40:157495,-19,-4,-8,19,-11,-10,9,-2
13:58:40:158282,16,26,42,25,-14,12,17,2
13:58:40:171806,12,8,11,-3,17,39,49,6
13:58:40:179968,12,8,11,-3,17,39,49,6
13:58:40:180755,-1,0,-3,-8,7,36,25,5
13:58:40:186814,13,26,-7,-4,9,-20,-14,4
13:58:40:194337,13,26,-7,-4,9,-20,-14,4
13:58:40:201737,3,11,20,-6,-5,-18,-19,-8
13:58:40:209283,-4,-3,-29,-1,6,-14,-9,4
13:58:40:217445,-4,-3,-29,-1,6,-14,-9,4
13:58:40:218216,-8,-20,-27,6,6,2,-26,-1
13:58:40:231768,18,-4,12,-11,-2,4,-1,6
13:58:40:240055,18,-4,12,-11,-2,4,-1,6
13:58:40:240716,-7,-16,-20,-8,10,13,2,-6
13:58:40:246785,-29,-4,6,11,-8,-22,-23,-10
13:58:40:254372,-29,-4,6,11,-8,-22,-23,-10
13:58:40:269947,28,-8,-16,-1,36,11,12,6
13:58:40:270691,-26,11,-3,9,-13,18,12,5
13:58:40:277451,-26,11,-3,9,-13,18,12,5
13:58:40:278226,-9,-9,5,-6,-21,-13,-12,-6
13:58:40:291842,6,7,-3,-18,-19,-18,-8,11
13:58:40:299924,6,7,-3,-18,-19,-18,-8,11
13:58:40:300731,15,8,-25,-26,2,6,16,-2
13:58:40:306832,25,12,2,-18,-2,9,0,3
13:58:40:314332,25,12,2,-18,-2,9,0,3
13:58:40:321842,-4,4,6,6,1,-17,-19,-10
13:58:40:329235,-28,-2,4,27,13,-5,6,-16
13:58:40:336882,-28,-2,4,27,13,-5,6,-16
13:58:40:344274,-23,2,27,2,-18,-13,-13,-4
13:58:40:351815,-3,-12,-3,-4,-12,-18,-8,-7
13:58:40:360013,-3,-12,-3,-4,-12,-18,-8,-7
13:58:40:360725,11,10,-13,19,7,20,-2,-16
13:58:40:375033,12,-16,-7,-4,-17,5,12,-1
13:58:40:375766,12,-16,-7,-4,-17,5,12,-1
13:58:40:381739,12,5,6,8,-1,4,4,10
13:58:40:389262,25,45,13,-24,-3,-9,-33,4
13:58:40:396828,25,45,13,-24,-3,-9,-33,4
13:58:40:404336,1,3,3,31,2,-14,-15,1
13:58:40:411799,35,-2,13,10,-6,-3,-10,16
13:58:40:420066,35,-2,13,10,-6,-3,-10,16
13:58:40:420788,-14,9,-2,-28,-7,-4,-2,0
13:58:40:434913,20,-7,27,1,-5,9,2,-13
13:58:40:435766,20,-7,27,1,-5,9,2,-13
13:58:40:441866,16,18,-14,-15,-15,-11,18,-6
13:58:40:449216,-14,-13,-21,-7,-2,-18,-27,-17
13:58:40:456863,-14,-13,-21,-7,-2,-18,-27,-17
13:58:40:464211,2,17,13,-5,-5,3,-7,-4
13:58:40:471771,12,-16,-18,26,4,1,8,5
13:58:40:479979,12,-16,-18,26,4,1,8,5
13:58:40:480765,-19,-7,8,1,0,28,39,7
13:58:40:494983,-4,-34,-10,-9,-10,-5,11,9
13:58:40:495767,-4,-34,-10,-9,-10,-5,11,9
13:58:40:501676,-3,22,3,-12,-8,-13,-10,9
13:58:40:509248,-10,-6,-16,-13,13,23,26,0
13:58:40:516771,-10,-6,-16,-13,13,23,26,0
13:58:40:524305,10,-9,-15,-11,5,15,2,8
13:58:40:531749,-3,6,-34,9,8,9,-5,2
13:58:40:540021,-3,6,-34,9,8,9,-5,2
13:58:40:540800,1,-17,-1,1,5,0,-6,1
13:58:40:554975,1,30,5,11,-2,-22,-13,6
13:58:40:555761,1,30,5,11,-2,-22,-13,6
13:58:40:561792,-2,-15,-46,-9,-3,-13,-25,5
13:58:40:569224,-17,-10,13,-33,-14,34,14,-3
13:58:40:576848,-17,-10,13,-33,-14,34,14,-3
13:58:40:584183,0,-18,-25,-5,22,-5,-9,-4
13:58:40:591800,-29,-1,6,-24,-14,-9,-15,-16
13:58:40:600310,-29,-1,6,-24,-14,-9,-15,-16
13:58:40:606790,8,12,10,-7,6,-3,6,2
13:58:40:614895,7,16,9,-1,1,-11,-17,2
13:58:40:615738,7,16,9,-1,1,-11,-17,2
13:58:40:621785,-7,-11,11,13,3,17,53,-3
13:58:40:629227,2,-4,19,5,21,-9,-9,5
13:58:40:636797,2,-4,19,5,21,-9,-9,5
13:58:40:644222,-49,0,18,-3,-14,-18,-23,-22
13:58:40:651760,-14,-7,-5,-4,-3,7,11,-1
13:58:40:667396,-14,-7,-5,-4,-3,7,11,-1
13:58:40:668177,15,0,-14,-4,-15,-1,-22,-2
13:58:40:674956,-8,-1,-20,5,8,-4,-2,-10
13:58:40:675747,-8,-1,-20,5,8,-4,-2,-10
13:58:40:681800,-22,21,14,-3,4,7,2,4
13:58:40:689258,17,5,-13,17,18,-17,-11,5
13:58:40:696822,17,5,-13,17,18,-17,-11,5
13:58:40:704320,9,-13,5,-19,-17,17,27,8
13:58:40:711744,13,7,-7,-6,-3,8,6,0
13:58:40:727431,13,7,-7,-6,-3,8,6,0
13:58:40:728200,2,-23,-62,-9,-9,-29,-18,7
13:58:40:734922,20,-7,5,2,-8,-14,-11,-9
13:58:40:735720,20,-7,5,2,-8,-14,-11,-9
13:58:40:741764,-8,0,31,32,-9,-9,-23,-8
13:58:40:749169,-13,-8,27,12,25,17,7,1
13:58:40:756819,-13,-8,27,12,25,17,7,1
13:58:40:764232,25,14,2,12,25,-16,-14,3
13:58:40:771811,-17,1,-13,0,-13,22,9,-1
13:58:40:779967,-17,1,-13,0,-13,22,9,-1
13:58:40:780723,3,-11,-19,-5,7,7,7,-2
13:58:40:794974,-20,10,35,-6,-1,-8,9,-5
13:58:40:795759,-20,10,35,-6,-1,-8,9,-5
13:58:40:801742,16,16,11,4,-5,5,-17,-3
13:58:40:809296,-10,1,-14,-8,-20,-4,2,2
13:58:40:816767,-10,1,-14,-8,-20,-4,2,2
13:58:40:824372,-5,-27,-13,-1,-11,13,18,-2
13:58:40:831749,-1,-2,0,27,33,12,-5,-3
13:58:40:839986,-1,-2,0,27,33,12,-5,-3
13:58:40:840796,3,10,16,-13,-5,-18,-18,1
13:58:40:854978,-4,-15,-8,-3,-14,-18,-16,-6
13:58:40:855742,-4,-15,-8,-3,-14,-18,-16,-6
13:58:40:861775,-13,-14,0,4,11,15,14,-9
13:58:40:869191,6,4,14,10,-5,-10,16,4
13:58:40:876850,6,4,14,10,-5,-10,16,4
13:58:40:884203,20,2,0,-2,-3,3,-15,2
13:58:40:891819,-16,16,0,-16,-9,-13,-6,-8
13:58:40:899889,-16,16,0,-16,-9,-13,-6,-8
13:58:40:900706,-8,-3,-5,-4,-4,-8,8,-2
13:58:40:914907,1,5,34,-11,0,5,2,11
13:58:40:915764,1,5,34,-11,0,5,2,11
13:58:40:921785,-5,22,1,-20,-15,-24,-14,1
13:58:40:929260,16,11,15,9,5,35,20,4
13:58:40:944970,16,11,15,9,5,35,20,4
13:58:40:945721,2,-7,-7,2,10,23,1,3
13:58:40:951729,2,-10,29,-15,-13,-5,-14,-2
13:58:40:959948,2,-10,29,-15,-13,-5,-14,-2
13:58:40:960716,-17,13,14,8,2,-15,-3,2
13:58:40:974999,3,-18,-14,-8,-5,-11,-6,-1
13:58:40:975806,3,-18,-14,-8,-5,-11,-6,-1
13:58:40:981737,10,7,-4,-17,-3,-4,2,0
13:58:40:989255,11,-9,-27,-28,-19,-19,6,-1
13:58:40:996824,11,-9,-27,-28,-19,-19,6,-1
13:58:41:4325,-17,2,-5,20,7,8,20,2
13:58:41:11801,9,-6,2,16,7,8,14,3
13:58:41:19909,9,-6,2,16,7,8,14,3
13:58:41:20726,2,-14,7,0,-13,-24,-18,2
13:58:41:34963,-11,-20,-25,-13,-9,6,11,-8
13:58:41:35746,-11,-20,-25,-13,-9,6,11,-8
13:58:41:41812,-4,1,4,19,15,17,12,-2
13:58:41:49281,-33,-5,-8,11,4,2,-15,-3
13:58:41:64987,-33,-5,-8,11,4,2,-15,-3
13:58:41:65772,9,-12,22,-5,5,-41,-10,-7
13:58:41:71771,-12,8,13,-4,4,47,29,6
13:58:41:79910,-12,8,13,-4,4,47,29,6
13:58:41:80729,1,9,17,-10,-10,12,-15,-4
13:58:41:94970,4,26,-16,-9,-20,-29,-26,-2
13:58:41:95799,4,26,-16,-9,-20,-29,-26,-2
13:58:41:101765,-12,-22,-13,-9,0,-7,0,-6
13:58:41:109350,18,2,20,17,8,-2,-12,3
13:58:41:116791,18,2,20,17,8,-2,-12,3
13:58:41:124322,-16,-1,-38,9,-8,-30,-24,-13
13:58:41:131750,5,-13,-18,7,25,41,38,-3
13:58:41:140004,5,-13,-18,7,25,41,38,-3
13:58:41:140721,-6,6,3,-3,-6,15,13,5
13:58:41:154919,-20,-23,9,4,-5,-36,-28,-13
13:58:41:155718,-20,-23,9,4,-5,-36,-28,-13
13:58:41:161737,-7,3,22,-11,-17,-10,-6,7
13:58:41:169236,4,-9,-2,0,11,0,-5,-6
13:58:41:176824,4,-9,-2,0,11,0,-5,-6
13:58:41:184179,6,2,4,34,20,6,15,0
13:58:41:191845,-7,-2,-29,1,1,0,-8,-13
13:58:41:199890,-7,-2,-29,1,1,0,-8,-13
13:58:41:200724,1,1,13,-3,3,-12,-44,-3
13:58:41:214935,-10,16,-17,3,-7,6,-6,6
13:58:41:215750,-10,16,-17,3,-7,6,-6,6
13:58:41:221712,36,-13,-4,-14,-20,-9,4,-3
13:58:41:229186,14,-1,-3,-3,8,-4,11,8
13:58:41:236844,14,-1,-3,-3,8,-4,11,8
13:58:41:244188,9,-5,-20,-3,-11,-8,-1,8
13:58:41:252413,-4,9,-10,-6,-2,-6,2,-7
13:58:41:253275,-4,9,-10,-6,-2,-6,2,-7
13:58:41:259337,-1,5,3,-6,-2,-2,5,-4
13:58:41:275033,9,-8,12,7,3,-8,-14,7
13:58:41:275798,9,-8,12,7,3,-8,-14,7
13:58:41:281695,-8,-2,9,13,-8,-2,8,-5
13:58:41:297400,-44,-20,-1,-5,4,-4,-23,-10
13:58:41:298204,-44,-20,-1,-5,4,-4,-23,-10
13:58:41:304246,0,15,-15,-14,10,24,31,12
13:58:41:312434,-9,-2,23,8,-5,5,-35,4
13:58:41:313243,-9,-2,23,8,-5,5,-35,4
13:58:41:326890,9,-1,0,9,13,26,10,6
13:58:41:343096,1,28,-9,-26,-2,-18,-1,-2
13:58:41:343872,1,28,-9,-26,-2,-18,-1,-2
13:58:41:344668,6,-6,-13,4,15,6,-1,0
13:58:41:357504,-4,-7,-4,-6,-1,-8,9,-7
13:58:41:358293,-4,-7,-4,-6,-1,-8,9,-7
13:58:41:364225,-25,-8,-8,-24,-25,-2,-7,-5
13:58:41:372396,32,2,-12,7,-6,2,10,12
13:58:41:373198,32,2,-12,7,-6,2,10,12
13:58:41:386793,-1,4,28,4,4,23,9,-7
13:58:41:394941,-3,-15,14,10,6,-7,-10,-7
13:58:41:395736,-3,-15,14,10,6,-7,-10,-7
13:58:41:401788,-1,-9,27,-34,-29,-12,9,-3
13:58:41:417440,20,24,12,25,20,13,11,2
13:58:41:418216,20,24,12,25,20,13,11,2
13:58:41:424302,15,-2,6,-23,9,-14,1,1
13:58:41:439976,10,-6,-1,-4,-22,5,-2,3
13:58:41:440781,10,-6,-1,-4,-22,5,-2,3
13:58:41:446748,-20,8,0,6,1,-29,-35,0
13:58:41:463074,-1,1,-33,-1,7,3,16,-5
13:58:41:463910,-1,1,-33,-1,7,3,16,-5
13:58:41:464759,-9,13,-50,10,1,6,-3,-3
13:58:41:477417,-5,-13,-9,-9,-2,-8,-8,-4
13:58:41:478196,-5,-13,-9,-9,-2,-8,-8,-4
13:58:41:484171,3,-21,-28,3,15,17,4,-1
13:58:41:492494,14,9,30,-17,-26,-30,-5,5
13:58:41:493220,14,9,30,-17,-26,-30,-5,5
13:58:41:506834,-12,-5,4,24,7,36,30,-5
13:58:41:514903,-17,-6,3,-25,-9,-7,-16,-3
13:58:41:515741,-17,-6,3,-25,-9,-7,-16,-3
13:58:41:521725,-4,0,28,8,9,-9,-12,-7
13:58:41:537467,13,6,-15,8,5,22,17,0
13:58:41:538219,13,6,-15,8,5,22,17,0
13:58:41:544284,-9,-7,5,-4,2,-6,-10,-4
13:58:41:552769,2,1,12,6,-21,-19,-32,7
13:58:41:559343,2,1,12,6,-21,-19,-32,7
13:58:41:566670,36,0,1,11,3,41,28,14
13:58:41:575651,5,5,9,-8,-4,-5,7,0
13:58:41:576423,5,5,9,-8,-4,-5,7,0
13:58:41:581766,6,-3,-30,-31,-28,-35,-24,4
13:58:41:597411,-14,-15,-27,6,-4,-1,-1,-10
13:58:41:598254,-14,-15,-27,6,-4,-1,-1,-10
13:58:41:604247,4,15,39,-6,9,-8,7,1
13:58:41:612445,6,0,-31,10,1,-5,20,4
13:58:41:613232,6,0,-31,10,1,-5,20,4
13:58:41:626733,-10,-14,-28,-18,-18,-29,-35,-14
13:58:41:634885,-16,-30,8,7,12,48,37,-3
13:58:41:635737,-16,-30,8,7,12,48,37,-3
13:58:41:641747,-16,8,-7,9,3,7,-13,-9
13:58:41:657483,0,-16,-3,-10,-14,-27,-18,1
13:58:41:658192,0,-16,-3,-10,-14,-27,-18,1
13:58:41:664195,-7,13,0,22,25,-2,-1,0
13:58:41:672381,-5,14,-11,-2,11,-7,-11,2
13:58:41:673203,-5,14,-11,-2,11,-7,-11,2
13:58:41:686835,-25,-13,-6,-5,-36,-31,-27,-9
13:58:41:694937,-4,12,-4,-21,-1,35,28,8
13:58:41:695776,-4,12,-4,-21,-1,35,28,8
13:58:41:701688,9,-9,-9,-2,-4,-24,-24,1
13:58:41:717377,6,28,25,-10,-1,-9,-18,-19
13:58:41:718185,6,28,25,-10,-1,-9,-18,-19
13:58:41:724264,1,-15,-10,0,27,13,11,4
13:58:41:732373,4,-2,-10,-9,6,-12,1,-2
13:58:41:733165,4,-2,-10,-9,6,-12,1,-2
13:58:41:746798,-4,12,-15,-2,-25,-9,-6,-6
13:58:41:754954,-4,12,-15,-2,-25,-9,-6,-6
13:58:41:755736,20,-8,10,-6,-4,-26,-7,-6
13:58:41:761775,18,4,8,1,-5,37,56,12
13:58:41:777418,18,4,8,1,-5,37,56,12
13:58:41:778203,-14,-19,-35,8,-9,-23,-32,-8
13:58:41:784239,18,9,-12,18,32,12,6,6
13:58:41:799932,18,9,-12,18,32,12,6,6
13:58:41:800735,-5,7,-8,5,-4,-8,-5,-1
13:58:41:806821,-13,-23,-11,-3,-7,-1,1,1
13:58:41:814934,-13,-23,-11,-3,-7,-1,1,1
13:58:41:815748,10,-9,22,9,-1,-1,-2,12
13:58:41:821835,7,6,-1,-10,1,-9,-23,-10
13:58:41:837559,7,6,-1,-10,1,-9,-23,-10
13:58:41:838235,-12,4,17,14,-4,10,2,-2
13:58:41:844262,-5,-3,20,7,-12,-19,-17,-19
13:58:41:860022,-5,-3,20,7,-12,-19,-17,-19
13:58:41:860728,4,-15,-16,13,21,19,22,7
13:58:41:866722,11,23,-21,-13,-16,-7,6,10
13:58:41:875023,11,23,-21,-13,-16,-7,6,10
13:58:41:875773,-3,-16,16,4,-17,3,-2,6
13:58:41:881775,-13,13,31,10,-2,6,14,-2
13:58:41:897458,-13,13,31,10,-2,6,14,-2
13:58:41:898271,0,5,9,-28,-3,-16,0,-7
13:58:41:904339,-13,6,22,-15,11,20,7,2
13:58:41:919984,-13,6,22,-15,11,20,7,2
13:58:41:920753,-8,8,-32,-1,-6,2,-6,0
13:58:41:926864,-2,-10,1,35,36,5,2,6
13:58:41:934932,-2,-10,1,35,36,5,2,6
13:58:41:935756,-2,6,-4,-26,0,3,11,-1
13:58:41:941836,-5,-14,5,-11,-45,-17,4,-4
13:58:41:957593,-5,-14,5,-11,-45,-17,4,-4
13:58:41:958261,1,2,-5,5,10,-11,19,-4
13:58:41:964254,0,-3,-27,-25,-21,-17,-9,-9
13:58:41:979985,0,-3,-27,-25,-21,-17,-9,-9
13:58:41:980765,-27,-23,17,12,6,10,1,-6
13:58:41:986733,-4,8,-8,4,20,17,-10,5
13:58:41:994970,-4,8,-8,4,20,17,-10,5
13:58:41:995786,-16,-10,-21,-1,3,-13,-18,-3
13:58:42:1747,11,-10,21,4,10,5,-1,-3
13:58:42:17409,11,-10,21,4,10,5,-1,-3
13:58:42:18216,-1,-17,-4,18,0,9,-1,-1
13:58:42:24290,-5,-14,1,-6,-18,-24,-6,-6
13:58:42:39986,-5,-14,1,-6,-18,-24,-6,-6
13:58:42:40786,19,11,28,14,-8,16,31,7
13:58:42:46667,8,5,-10,36,34,68,28,-2
13:58:42:55061,8,5,-10,36,34,68,28,-2
13:58:42:55741,-35,-4,-16,-24,-4,-16,-19,-8
13:58:42:61717,4,5,14,8,-13,-18,6,3
13:58:42:77482,4,5,14,8,-13,-18,6,3
13:58:42:78256,7,3,-5,-2,-12,-19,-8,-7
13:58:42:84167,-8,-20,-40,-9,9,11,7,9
13:58:42:99920,-8,-20,-40,-9,9,11,7,9
13:58:42:100783,-1,-9,-16,-9,-4,-14,-12,-4
13:58:42:106799,1,12,44,-15,-11,-7,-24,-7
13:58:42:114983,1,12,44,-15,-11,-7,-24,-7
13:58:42:115766,15,-12,-4,-6,1,5,1,2
13:58:42:121819,-1,4,1,-17,-16,-16,-2,-2
13:58:42:137552,-1,4,1,-17,-16,-16,-2,-2
13:58:42:138225,9,8,12,-6,14,5,-5,0
13:58:42:144225,-11,-9,-28,-12,-1,-18,-19,-1
13:58:42:159942,-11,-9,-28,-12,-1,-18,-19,-1
13:58:42:160758,-46,-4,2,-13,-5,6,2,-9
13:58:42:166748,13,0,-20,-6,21,20,28,5
13:58:42:175040,13,0,-20,-6,21,20,28,5
13:58:42:175788,13,11,16,5,-10,18,-4,7
13:58:42:181700,-33,-42,-1,-4,-12,-8,-8,-5
13:58:42:197415,-33,-42,-1,-4,-12,-8,-8,-5
13:58:42:198211,14,10,-14,-5,-6,-6,10,5
13:58:42:204274,25,-4,2,1,6,-5,-4,2
13:58:42:219932,25,-4,2,1,6,-5,-4,2
13:58:42:220760,-7,15,6,2,0,-5,2,8
13:58:42:226803,23,14,10,-1,-6,-12,-2,1
13:58:42:234889,23,14,10,-1,-6,-12,-2,1
13:58:42:235755,8,20,2,22,3,-1,5,2
13:58:42:249204,-13,5,-16,-11,2,7,-5,3
13:58:42:257449,-13,5,-16,-11,2,7,-5,3
13:58:42:258203,-3,-3,21,23,-4,-12,-2,-3
13:58:42:264210,0,-1,9,-14,-9,-12,4,-2
13:58:42:271820,0,-1,9,-14,-9,-12,4,-2
13:58:42:279217,-13,-5,-10,-9,-3,-27,-27,-13
13:58:42:286834,-16,27,9,8,9,12,-8,-5
13:58:42:294926,-16,27,9,8,9,12,-8,-5
13:58:42:295751,6,-5,-7,21,16,22,27,3
13:58:42:309330,-1,-17,-17,-18,-17,-18,-3,1
13:58:42:325700,-1,-17,-17,-18,-17,-18,-3,1
13:58:42:326468,-14,-21,-11,-5,-8,-4,-15,-11
13:58:42:327217,-6,19,2,19,9,18,12,-1
13:58:42:331761,-6,19,2,19,9,18,12,-1
13:58:42:339330,24,7,19,5,7,10,4,3
13:58:42:346811,27,-13,-26,0,-2,-17,6,5
13:58:42:354976,27,-13,-26,0,-2,-17,6,5
13:58:42:355742,5,-8,-14,-24,-17,-21,-20,3
13:58:42:378089,-4,13,25,18,18,18,-2,3
13:58:42:378900,-4,13,25,18,18,18,-2,3
13:58:42:379759,-2,6,21,26,3,17,-7,-7
13:58:42:384181,0,-32,3,-10,-24,-27,-21,-12
13:58:42:391846,0,-32,3,-10,-24,-27,-21,-12
13:58:42:399207,-8,-2,20,-28,-9,-7,-2,-6
13:58:42:415551,-7,5,-22,5,17,9,7,-1
13:58:42:416332,-7,5,-22,5,17,9,7,-1
13:58:42:417132,22,5,-20,-7,34,26,8,5
13:58:42:429192,-23,-3,-3,-3,-6,-1,6,0
13:58:42:437570,-23,-3,-3,-3,-6,-1,6,0
13:58:42:438258,18,15,-25,-1,-3,-14,-1,1
13:58:42:444241,-3,14,-18,-2,-5,11,4,0
13:58:42:451798,-3,14,-18,-2,-5,11,4,0
13:58:42:459325,15,0,-13,-18,-13,1,0,1
13:58:42:466742,12,-17,26,36,2,-7,-6,3
13:58:42:475080,12,-17,26,36,2,-7,-6,3
13:58:42:475770,-3,9,10,24,-6,-3,-4,6
13:58:42:489212,0,4,-5,-36,-6,-9,7,0
13:58:42:497444,0,4,-5,-36,-6,-9,7,0
13:58:42:498235,-10,-7,23,7,19,-18,-11,-9
13:58:42:504440,3,-20,-16,-8,-3,11,6,-6
13:58:42:511819,3,-20,-16,-8,-3,11,6,-6
13:58:42:519248,1,-20,-3,-16,-13,-7,-26,5
13:58:42:526915,3,0,19,-4,0,-14,7,-6
13:58:42:534936,3,0,19,-4,0,-14,7,-6
13:58:42:535769,-14,-8,-19,-14,-22,6,22,4
13:58:42:549213,-6,24,35,37,21,23,5,5
13:58:42:557483,-6,24,35,37,21,23,5,5
13:58:42:558215,11,16,-30,6,5,1,4,-3
13:58:42:572402,0,-49,-30,-20,-17,-5,-10,-4
13:58:42:573200,0,-49,-30,-20,-17,-5,-10,-4
13:58:42:579225,-16,-5,-19,-5,7,8,4,1
13:58:42:586896,4,20,-7,-14,-7,-1,9,2
13:58:42:594956,4,20,-7,-14,-7,-1,9,2
13:58:42:595774,-1,-3,13,-15,-2,4,7,-2
13:58:42:609289,9,11,22,13,-6,-7,4,-2
13:58:42:617379,9,11,22,13,-6,-7,4,-2
13:58:42:618168,3,4,10,3,9,13,-10,4
13:58:42:624292,-10,9,18,8,14,0,-27,-10
13:58:42:631782,-10,9,18,8,14,0,-27,-10
13:58:42:639271,-5,-2,10,10,11,5,6,-6
13:58:42:646800,1,-7,-17,12,3,-3,-15,-3
13:58:42:654978,1,-7,-17,12,3,-3,-15,-3
13:58:42:655762,-21,12,11,-18,-5,3,-12,-4
13:58:42:669231,18,4,10,23,-5,-14,0,3
13:58:42:677416,18,4,10,23,-5,-14,0,3
13:58:42:678212,13,-3,16,-14,-14,5,18,10
13:58:42:684212,-6,13,-10,-37,-17,4,-6,1
13:58:42:691838,-6,13,-10,-37,-17,4,-6,1
13:58:42:699170,6,-15,-20,0,-10,-15,-6,2
13:58:42:706749,1,-23,-32,-13,9,4,13,-6
13:58:42:714943,1,-23,-32,-13,9,4,13,-6
13:58:42:715759,-15,-9,27,16,1,-18,-9,-10
13:58:42:729198,4,5,-7,6,25,44,-1,4
13:58:42:737518,4,5,-7,6,25,44,-1,4
13:58:42:738248,-38,-5,-24,-11,-5,-3,-5,-6
13:58:42:744232,-2,4,-10,-14,-8,-16,-11,1
13:58:42:751795,-2,4,-10,-14,-8,-16,-11,1
13:58:42:759296,7,7,7,14,-2,1,4,-8
13:58:42:766695,-15,21,39,-28,-15,-12,-8,2
13:58:42:775078,-15,21,39,-28,-15,-12,-8,2
13:58:42:775792,7,2,15,8,10,0,1,-1
13:58:42:789234,13,-24,-47,8,9,-7,7,-3
13:58:42:797469,13,-24,-47,8,9,-7,7,-3
13:58:42:798237,-16,-3,4,15,-3,26,17,3
13:58:42:804271,-15,-12,-2,-8,-19,-3,-6,-9
13:58:42:811784,-15,-12,-2,-8,-19,-3,-6,-9
13:58:42:819247,2,-20,-25,3,-5,-10,-7,0
13:58:42:826875,-21,8,25,6,-4,1,12,0
13:58:42:835013,-21,8,25,6,-4,1,12,0
13:58:42:835741,11,17,-19,-7,-8,-9,-19,-2
13:58:42:849654,-8,-7,19,-3,-11,-12,-10,-4
13:58:42:857533,-8,-7,19,-3,-11,-12,-10,-4
13:58:42:858211,-5,-5,23,10,1,5,-17,0
13:58:42:864221,12,20,13,-2,7,9,27,13
13:58:42:871787,12,20,13,-2,7,9,27,13
13:58:42:879243,-14,4,-21,-10,5,13,25,-3
13:58:42:886822,-1,4,26,-7,10,-4,-10,-4
13:58:42:894925,-1,4,26,-7,10,-4,-10,-4
13:58:42:895755,-6,-2,-6,2,-7,-16,-4,-5
13:58:42:909284,-26,-17,-16,4,-10,3,-7,-4
13:58:42:917413,-26,-17,-16,4,-10,3,-7,-4
13:58:42:918160,1,6,14,-12,2,-12,-9,-4
13:58:42:924335,10,-6,-6,7,0,1,-5,4
13:58:42:931781,10,-6,-6,7,0,1,-5,4
13:58:42:939188,5,-27,3,5,-2,-13,-10,-15
13:58:42:946675,8,4,3,10,17,22,4,4
13:58:42:955013,8,4,3,10,17,22,4,4
13:58:42:955775,9,11,-21,-20,12,-1,-4,-7
13:58:42:969248,4,19,-17,-15,-13,-24,6,-9
13:58:42:977436,4,19,-17,-15,-13,-24,6,-9
13:58:42:978219,8,29,-6,4,-8,-8,-3,7
13:58:42:984193,17,-4,-4,8,17,8,8,4
13:58:42:991881,17,-4,-4,8,17,8,8,4
13:58:42:999170,-16,-6,23,15,4,10,17,0
13:58:43:6708,-2,19,-14,6,3,-30,-9,-3
13:58:43:14954,-2,19,-14,6,3,-30,-9,-3
13:58:43:15730,-19,-13,-17,-1,-1,7,22,5
13:58:43:29191,-15,-30,-4,0,1,1,-8,3
13:58:43:37525,-15,-30,-4,0,1,1,-8,3
13:58:43:38224,21,29,17,11,-25,-13,-11,2
13:58:43:44193,-33,1,5,-13,-3,1,-7,-11
13:58:43:51762,-33,1,5,-13,-3,1,-7,-11
13:58:43:59344,-3,-9,15,-21,-1,-6,-16,-1
13:58:43:66673,12,-1,-16,5,-4,33,4,3
13:58:43:75049,12,-1,-16,5,-4,33,4,3
13:58:43:75787,35,0,-13,-16,-12,4,-2,9
13:58:43:89222,-11,-43,-33,-6,-10,0,-12,-8
13:58:43:97450,-11,-43,-33,-6,-10,0,-12,-8
13:58:43:98236,-10,4,4,7,6,6,15,-2
13:58:43:104279,-19,15,13,0,-3,-22,-13,-10
13:58:43:111812,-19,15,13,0,-3,-22,-13,-10
13:58:43:127412,-5,-14,-23,-4,-1,-9,-11,-7
13:58:43:128189,-5,-8,-8,5,-18,6,7,-3
13:58:43:134932,-5,-8,-8,5,-18,6,7,-3
13:58:43:135739,-9,5,19,20,15,-2,-7,2
13:58:43:149213,40,14,4,-11,-11,-9,9,9
13:58:43:157505,40,14,4,-11,-11,-9,9,9
13:58:43:158278,34,-7,20,-10,-12,3,6,4
13:58:43:172486,-12,-5,7,0,6,39,24,-4
13:58:43:173190,-12,-5,7,0,6,39,24,-4
13:58:43:179210,10,2,-5,-1,14,-1,-11,1
13:58:43:186752,-11,4,39,12,1,-39,-30,-7
13:58:43:194285,-11,4,39,12,1,-39,-30,-7
13:58:43:201698,-19,-25,-23,11,8,7,-2,-2
13:58:43:209274,35,6,-8,20,8,-14,2,-5
13:58:43:217464,35,6,-8,20,8,-14,2,-5
13:58:43:218201,8,-3,-10,-19,3,-14,-10,-6
13:58:43:232418,-3,6,24,3,4,14,9,1
13:58:43:233244,-3,6,24,3,4,14,9,1
13:58:43:239211,-22,-5,-5,-17,-18,5,21,-8
13:58:43:246721,-4,1,-14,-14,-4,-7,2,1
13:58:43:254318,-4,1,-14,-14,-4,-7,2,1
13:58:43:261792,0,4,-6,6,1,4,-9,-3
13:58:43:269263,-2,-6,5,-9,-4,0,-5,5
13:58:43:284920,-2,-6,5,-9,-4,0,-5,5
13:58:43:285736,2,-17,21,14,7,-4,-6,-2
13:58:43:292509,5,-8,-4,-21,-16,-8,-12,0
13:58:43:293226,5,-8,-4,-21,-16,-8,-12,0
13:58:43:299194,-10,5,0,3,-2,6,35,0
13:58:43:306803,-4,-26,-44,-3,4,-5,-2,-5
13:58:43:314243,-4,-26,-44,-3,4,-5,-2,-5
13:58:43:321812,25,5,-14,10,8,-6,-12,7
13:58:43:329248,-11,0,7,29,14,-4,10,-2
13:58:43:337508,-11,0,7,29,14,-4,10,-2
13:58:43:338204,-1,-24,-5,-2,-5,3,-6,4
13:58:43:352365,-11,10,-15,-11,-2,-5,4,2
13:58:43:353179,-11,10,-15,-11,-2,-5,4,2
13:58:43:359291,-8,2,-7,-1,-2,9,3,-1
13:58:43:366762,12,-3,47,0,-13,-9,-6,6
13:58:43:374334,12,-3,47,0,-13,-9,-6,6
13:58:43:381696,-4,7,-6,-30,-22,-31,-30,-5
13:58:43:389275,-3,4,9,20,23,42,15,7
13:58:43:397470,-3,4,9,20,23,42,15,7
13:58:43:398241,-32,-2,-11,-5,-10,-5,-21,-2
13:58:43:412439,0,-7,9,5,-6,-30,-26,-7
13:58:43:413243,0,-7,9,5,-6,-30,-26,-7
13:58:43:419220,32,23,30,25,1,-13,-9,6
13:58:43:426825,-21,4,-3,-21,-20,-14,-6,-7
13:58:43:434247,-21,4,-3,-21,-20,-14,-6,-7
13:58:43:441796,14,14,-5,-9,22,27,44,0
13:58:43:449255,-5,1,5,8,8,13,21,-2
13:58:43:457949,-5,1,5,8,8,13,21,-2
13:58:43:464214,-16,-13,9,27,14,18,17,-8
13:58:43:472485,-5,5,-25,-7,-17,2,-5,-5
13:58:43:473224,-5,5,-25,-7,-17,2,-5,-5
13:58:43:479247,-21,-5,10,-9,0,-2,1,0
13:58:43:486755,3,0,4,-15,-10,-7,-12,-9
13:58:43:494316,3,0,4,-15,-10,-7,-12,-9
13:58:43:501762,10,-7,-6,-15,-14,-13,-16,-2
13:58:43:509307,-8,-18,1,-2,-9,0,1,1
13:58:43:517403,-8,-18,1,-2,-9,0,1,1
13:58:43:518179,5,29,-5,-31,13,-6,-24,-2
13:58:43:532406,7,-40,-21,-6,19,15,5,6
13:58:43:533173,7,-40,-21,-6,19,15,5,6
13:58:43:539342,11,-24,-20,-3,-16,0,7,-4
13:58:43:546822,14,-8,6,-12,-11,-17,-11,-7
13:58:43:554345,14,-8,6,-12,-11,-17,-11,-7
13:58:43:561748,-13,6,-6,-7,3,17,19,1
13:58:43:569252,-7,11,-11,0,13,15,19,11
13:58:43:577468,-7,11,-11,0,13,15,19,11
13:58:43:578205,-12,0,-9,-25,-11,2,-2,-4
13:58:43:592560,12,49,4,39,18,-6,-7,1
13:58:43:593249,12,49,4,39,18,-6,-7,1
13:58:43:599149,-9,-27,-19,19,18,-4,5,1
13:58:43:606831,13,9,-28,-17,-29,-2,-6,-4
13:58:43:614297,13,9,-28,-17,-29,-2,-6,-4
13:58:43:621734,-3,-20,10,-6,-20,-12,-22,-5
13:58:43:629179,6,-4,-1,-4,-6,-21,-28,-2
13:58:43:637534,6,-4,-1,-4,-6,-21,-28,-2
13:58:43:638233,4,24,2,3,10,-9,-13,-2
13:58:43:652401,-9,12,3,-3,16,13,3,3
13:58:43:653230,-9,12,3,-3,16,13,3,3
13:58:43:659291,-12,-24,6,0,-9,-9,-6,-9
13:58:43:666695,-27,13,8,-27,-22,-27,-15,-7
13:58:43:682399,-27,13,8,-27,-22,-27,-15,-7
13:58:43:683179,24,27,35,33,13,11,6,6
13:58:43:689232,19,-16,-15,-13,-3,22,16,0
13:58:43:697445,19,-16,-15,-13,-3,22,16,0
13:58:43:698249,-9,-2,-26,-2,-28,-20,-5,-4
13:58:43:712414,-8,-3,3,-9,0,-16,1,-4
13:58:43:713236,-8,-3,3,-9,0,-16,1,-4
13:58:43:719228,17,-12,-1,-2,6,-19,-9,-3
13:58:43:726767,12,-9,-26,11,3,-5,13,4
13:58:43:734248,12,-9,-26,11,3,-5,13,4
13:58:43:741705,-13,-1,3,-7,-17,22,18,13
13:58:43:749151,6,-6,18,7,-5,-2,-25,-2
13:58:43:757507,6,-6,18,7,-5,-2,-25,-2
13:58:43:758225,-9,22,1,1,7,8,0,-2
13:58:43:772470,1,12,21,-6,6,-16,-10,5
13:58:43:773194,1,12,21,-6,6,-16,-10,5
13:58:43:779215,27,5,17,8,-16,-1,-4,-2
13:58:43:786754,-19,13,1,-5,-9,-1,-9,-5
13:58:43:794294,-19,13,1,-5,-9,-1,-9,-5
13:58:43:801696,6,0,-9,-3,-4,8,14,10
13:58:43:809252,-13,-10,10,3,5,19,4,-8
13:58:43:817405,-13,-10,10,3,5,19,4,-8
13:58:43:818199,12,10,0,24,14,-17,-7,1
13:58:43:832413,-11,-13,-4,-14,-5,5,-21,-9
13:58:43:833223,-11,-13,-4,-14,-5,5,-21,-9
13:58:43:839227,0,1,15,5,12,14,3,-4
13:58:43:846746,-6,-6,10,16,-12,20,26,1
13:58:43:854361,-6,-6,10,16,-12,20,26,1
13:58:43:861839,-24,-21,-15,-12,18,10,-24,-2
13:58:43:869256,-12,-28,-24,-17,3,-12,-1,5
13:58:43:877433,-12,-28,-24,-17,3,-12,-1,5
13:58:43:878219,5,-10,10,-11,-20,-9,-6,-8
13:58:43:892523,15,4,29,13,-14,0,9,-3
13:58:43:893241,15,4,29,13,-14,0,9,-3
13:58:43:899200,-3,3,-15,1,24,-14,-5,5
13:58:43:906739,4,-5,-10,3,11,-11,24,-4
13:58:43:914221,4,-5,-10,3,11,-11,24,-4
13:58:43:921820,-8,-24,-9,-7,-20,-3,4,-2
13:58:43:929255,0,28,17,2,-4,-20,-14,0
13:58:43:937500,0,28,17,2,-4,-20,-14,0
13:58:43:938202,-34,9,-29,23,5,7,-9,-14
13:58:43:960675,-11,-14,-21,12,5,-4,-3,-4
13:58:43:961411,-11,-14,-21,12,5,-4,-3,-4
13:58:43:962263,3,14,14,-6,-3,5,15,2
13:58:43:966712,13,15,-4,-3,-1,-50,-19,3
13:58:43:974313,13,15,-4,-3,-1,-50,-19,3
13:58:43:981819,8,-8,-13,-6,5,10,-12,3
13:58:43:989220,15,-25,-5,-3,0,17,8,4
13:58:43:997456,15,-25,-5,-3,0,17,8,4
13:58:43:998176,-38,-7,-5,-4,-15,-20,1,-5
13:58:44:12414,-7,29,-6,-15,-8,2,0,2
13:58:44:13236,-7,29,-6,-15,-8,2,0,2
13:58:44:19241,11,10,1,-11,-7,-1,-6,-1
13:58:44:26880,-27,-14,-26,-11,-4,8,9,-6
13:58:44:34229,-27,-14,-26,-11,-4,8,9,-6
13:58:44:41798,8,10,51,8,0,14,28,7
13:58:44:49226,42,8,10,1,12,24,17,0
13:58:44:57515,42,8,10,1,12,24,17,0
13:58:44:58274,3,6,-22,-16,-10,-16,8,-4
13:58:44:72405,-12,-9,18,6,-8,-4,-20,-5
13:58:44:73246,-12,-9,18,6,-8,-4,-20,-5
13:58:44:79200,2,-42,-19,-4,2,-5,-5,-1
13:58:44:86740,-6,11,20,11,4,-2,-2,-3
13:58:44:94317,-6,11,20,11,4,-2,-2,-3
13:58:44:101687,-2,2,-27,-24,7,0,-1,-1
13:58:44:109284,0,-9,18,-5,-4,-1,7,0
13:58:44:116753,0,-9,18,-5,-4,-1,7,0
13:58:44:124328,6,19,8,1,9,-11,-4,2
13:58:44:132422,-5,5,-20,-2,-4,-11,-4,-6
13:58:44:133241,-5,5,-20,-2,-4,-11,-4,-6
13:58:44:139254,23,4,-4,-1,-9,-12,-21,1
13:58:44:154983,-21,-5,-22,7,6,26,24,7
13:58:44:155801,-21,-5,-22,7,6,26,24,7
13:58:44:161762,-2,-12,14,25,-1,5,3,-2
13:58:44:169228,11,-1,3,24,19,-12,-20,1
13:58:44:176859,11,-1,3,24,19,-12,-20,1
13:58:44:184204,4,9,4,-8,-5,-3,1,4
13:58:44:192474,-6,7,-56,11,-11,-6,-7,-7
13:58:44:193236,-6,7,-56,11,-11,-6,-7,-7
13:58:44:199223,-19,-7,11,-6,-10,0,2,-12
13:58:44:214974,1,0,24,12,8,12,3,6
13:58:44:215759,1,0,24,12,8,12,3,6
13:58:44:221816,-17,6,9,12,7,37,-11,-1
13:58:44:237522,19,1,-5,-35,12,6,-21,-3
13:58:44:238206,19,1,-5,-35,12,6,-21,-3
13:58:44:244218,0,-8,-13,-8,-14,-24,-2,-13
13:58:44:260657,-5,-1,15,1,15,12,-11,1
13:58:44:261416,-5,-1,15,1,15,12,-11,1
13:58:44:262205,6,17,11,-15,-4,13,0,-3
13:58:44:274999,-1,-8,11,-5,-10,12,21,1
13:58:44:275810,-1,-8,11,-5,-10,12,21,1
13:58:44:281724,-8,-3,4,-19,-7,-15,-1,4
13:58:44:289186,-10,-13,-14,14,-5,-11,-6,-6
13:58:44:296813,-10,-13,-14,14,-5,-11,-6,-6
13:58:44:304299,-6,0,11,3,12,2,6,4
13:58:44:312446,-19,16,14,-2,-5,6,29,2
13:58:44:313251,-19,16,14,-2,-5,6,29,2
13:58:44:319252,15,3,-12,-8,-11,-10,-28,-7
13:58:44:334888,-10,-20,9,29,21,5,-38,-11
13:58:44:335769,-10,-20,9,29,21,5,-38,-11
13:58:44:341790,5,11,19,14,11,23,23,5
13:58:44:357460,6,-5,-11,-2,-9,-18,3,2
13:58:44:358247,6,-5,-11,-2,-9,-18,3,2
13:58:44:364190,1,5,-9,21,-2,-17,-16,-2
13:58:44:372520,-23,-2,-18,-9,11,15,16,-1
13:58:44:373220,-23,-2,-18,-9,11,15,16,-1
13:58:44:379234,11,-12,-12,3,1,-14,-2,2
13:58:44:394935,0,-6,1,-6,9,42,33,-5
13:58:44:395831,0,-6,1,-6,9,42,33,-5
13:58:44:401659,-16,-32,-11,6,-17,32,6,-1
13:58:44:409240,-5,-20,10,0,-2,-14,-5,1
13:58:44:416772,-5,-20,10,0,-2,-14,-5,1
13:58:44:424316,3,3,-7,-4,6,-18,2,2
13:58:44:432363,14,23,2,-25,-28,-27,-13,-7
13:58:44:433229,14,23,2,-25,-28,-27,-13,-7
13:58:44:439266,3,-23,-29,-27,-6,-12,6,1
13:58:44:455031,25,13,13,-15,5,12,16,3
13:58:44:455738,25,13,13,-15,5,12,16,3
13:58:44:461746,-4,3,-18,-29,0,6,9,13
13:58:44:469219,-2,-3,-2,4,-24,-23,-14,5
13:58:44:476888,-2,-3,-2,4,-24,-23,-14,5
13:58:44:484182,-19,8,2,1,-1,-7,-15,-8
13:58:44:492483,-22,-17,15,-12,2,3,-14,-8
13:58:44:493205,-22,-17,15,-12,2,3,-14,-8
13:58:44:499213,-6,-14,-11,16,10,43,48,-4
13:58:44:514984,12,-2,-10,9,-8,10,1,6
13:58:44:515777,12,-2,-10,9,-8,10,1,6
13:58:44:521769,18,16,15,1,10,-16,-21,4
13:58:44:529247,5,-1,-44,-37,-39,-37,-21,-3
13:58:44:536893,5,-1,-44,-37,-39,-37,-21,-3
13:58:44:544268,18,3,13,16,24,-5,-22,-9
13:58:44:552377,-9,-10,9,3,12,-5,-16,-2
13:58:44:553213,-9,-10,9,3,12,-5,-16,-2
13:58:44:559299,-4,19,13,0,-17,2,23,3
13:58:44:575013,8,4,-16,6,6,10,17,6
13:58:44:575764,8,4,-16,6,6,10,17,6
13:58:44:581807,-9,1,7,7,-2,-10,-4,-9
13:58:44:589298,5,4,-25,18,-4,-10,-4,-4
13:58:44:596836,5,4,-25,18,-4,-10,-4,-4
13:58:44:604295,-1,-17,-15,-8,2,-15,-14,1
13:58:44:612429,-17,-4,9,-2,5,13,0,-5
13:58:44:613241,-17,-4,9,-2,5,13,0,-5
13:58:44:619222,-6,-10,-17,5,-11,-59,-55,-8
13:58:44:634926,12,-10,12,-2,-5,10,-11,7
13:58:44:635771,12,-10,12,-2,-5,10,-11,7
13:58:44:641783,-32,-27,16,2,-16,-16,-2,-2
13:58:44:649208,-4,2,8,-4,8,-14,-6,-5
13:58:44:664935,-4,2,8,-4,8,-14,-6,-5
13:58:44:665778,24,16,-43,33,19,15,-4,-5
13:58:44:672447,-7,1,27,-1,11,9,6,2
13:58:44:673200,-7,1,27,-1,11,9,6,2
13:58:44:679213,-4,-5,13,-21,-26,-10,37,-2
13:58:44:694918,27,21,-10,-6,-16,-11,10,2
13:58:44:695723,27,21,-10,-6,-16,-11,10,2
13:58:44:701790,-11,-5,28,-4,16,14,-2,-5
13:58:44:709289,29,-2,-19,30,17,2,-1,7
13:58:44:716778,29,-2,-19,30,17,2,-1,7
13:58:44:724268,-12,-2,-3,7,3,36,24,3
13:58:44:732375,-22,-11,4,-10,12,-10,4,-13
13:58:44:733225,-22,-11,4,-10,12,-10,4,-13
13:58:44:739212,17,25,4,-10,-1,35,44,13
13:58:44:754972,-16,-10,7,-19,-25,-13,-10,-4
13:58:44:755814,-16,-10,7,-19,-25,-13,-10,-4
13:58:44:761718,-15,6,-20,-12,4,-2,-3,-2
13:58:44:769228,8,-8,-14,-4,-10,-1,-3,-2
13:58:44:776869,8,-8,-14,-4,-10,-1,-3,-2
13:58:44:784176,10,7,5,8,7,11,-1,-1
13:58:44:792518,-1,33,11,1,-4,-13,-15,5
13:58:44:793230,-1,33,11,1,-4,-13,-15,5
13:58:44:799170,-16,-27,-26,-7,-14,-8,-19,-10
13:58:44:814951,-3,34,22,19,24,-6,-14,6
13:58:44:815735,-3,34,22,19,24,-6,-14,6
13:58:44:821765,-3,24,15,29,1,-10,-10,2
13:58:44:829179,-7,-10,27,-5,11,20,4,2
13:58:44:836900,-7,-10,27,-5,11,20,4,2
13:58:44:844243,-5,-7,9,-38,-17,-27,-5,-1
13:58:44:852435,12,-6,-14,-10,-6,5,-5,-4
13:58:44:853270,12,-6,-14,-10,-6,5,-5,-4
13:58:44:866714,5,-23,-1,-6,-7,-13,1,-3
13:58:44:875037,0,-9,1,6,-24,-12,2,0
13:58:44:875834,0,-9,1,6,-24,-12,2,0
13:58:44:881724,42,12,16,22,25,13,-5,-3
13:58:44:889290,-17,-4,12,14,-1,11,18,0
13:58:44:896830,-17,-4,12,14,-1,11,18,0
13:58:44:904288,-7,8,-3,-7,-3,-11,14,-1
13:58:44:912440,-25,2,-20,-20,-1,-4,6,-12
13:58:44:913216,-25,2,-20,-20,-1,-4,6,-12
13:58:44:919271,16,16,14,2,-2,2,-9,5
13:58:44:934896,6,11,11,6,-3,3,5,3
13:58:44:935691,6,11,11,6,-3,3,5,3
13:58:44:941782,-4,-5,-17,-14,-1,-6,0,0
13:58:44:949211,-3,-5,-9,32,16,15,6,0
13:58:44:956860,-3,-5,-9,32,16,15,6,0
13:58:44:964249,9,-16,15,-17,-6,0,-16,0
13:58:44:972494,-25,-13,-44,-24,1,-2,-2,-5
13:58:44:973183,-25,-13,-44,-24,1,-2,-2,-5
13:58:44:979213,-4,-13,-47,-17,-13,-6,-20,-5
13:58:44:994926,12,11,5,-21,-12,-13,-6,-6
13:58:44:995794,12,11,5,-21,-12,-13,-6,-6
13:58:45:1800,-24,-2,-20,18,-5,-13,-13,-10
13:58:45:9349,30,-31,3,-5,4,44,26,4
13:58:45:16791,30,-31,3,-5,4,44,26,4
13:58:45:24269,-4,3,26,11,2,13,18,0
13:58:45:32372,15,-27,1,11,-9,-25,-7,0
13:58:45:33202,15,-27,1,11,-9,-25,-7,0
13:58:45:39215,-3,8,-13,0,2,0,-11,7
13:58:45:54962,-12,-8,8,-8,-3,-15,-5,-3
13:58:45:55757,-12,-8,8,-8,-3,-15,-5,-3
13:58:45:61710,14,7,19,-13,-13,11,18,-4
13:58:45:77416,-7,6,0,8,13,-2,-8,-6
13:58:45:78199,-7,6,0,8,13,-2,-8,-6
13:58:45:84159,-11,11,11,1,2,-9,-6,-7
13:58:45:92503,-11,11,11,1,2,-9,-6,-7
13:58:45:93214,5,10,-30,-10,6,3,6,1
13:58:45:106893,-6,-6,-8,-18,-12,-7,-15,2
13:58:45:114939,-6,-6,-8,-18,-12,-7,-15,2
13:58:45:115678,-3,1,-6,-5,-4,-8,-9,3
13:58:45:121792,-9,-7,3,20,1,16,17,1
13:58:45:137526,-9,-7,3,20,1,16,17,1
13:58:45:138213,-24,-1,2,6,-1,-21,-12,-7
13:58:45:144256,10,-17,0,35,27,29,23,5
13:58:45:152407,10,-17,0,35,27,29,23,5
13:58:45:153177,-11,1,-7,-8,-6,-3,10,0
13:58:45:166715,4,13,17,16,2,-11,-13,7
13:58:45:175001,4,13,17,16,2,-11,-13,7
13:58:45:175676,6,-6,-22,11,6,1,-11,-6
13:58:45:181770,14,9,-11,-21,-23,-6,-11,1
13:58:45:197413,14,9,-11,-21,-23,-6,-11,1
13:58:45:198171,5,1,23,19,10,7,6,-2
13:58:45:204292,-10,3,-32,-44,-20,-22,5,-2
13:58:45:212424,-10,3,-32,-44,-20,-22,5,-2
13:58:45:213224,18,2,-3,-15,-13,13,11,4
13:58:45:226817,1,2,13,13,53,52,28,9
13:58:45:234898,1,2,13,13,53,52,28,9
13:58:45:235686,0,-1,-7,-21,-11,-2,-1,1
13:58:45:241811,2,-7,1,-5,-13,-32,-6,-10
13:58:45:257535,2,-7,1,-5,-13,-32,-6,-10
13:58:45:258300,17,-11,-9,5,1,-6,-8,7
13:58:45:264225,-16,-11,6,-22,-6,5,-22,-8
13:58:45:272494,-16,-11,6,-22,-6,5,-22,-8
13:58:45:273199,-12,39,3,-12,-10,-13,-7,-5
13:58:45:286752,2,3,3,0,-14,-12,-2,-5
13:58:45:294967,2,3,3,0,-14,-12,-2,-5
13:58:45:295802,8,-16,13,11,12,7,-3,6
13:58:45:309316,11,14,-9,-7,5,8,8,1
13:58:45:317435,11,14,-9,-7,5,8,8,1
13:58:45:318207,-20,-2,6,-13,-16,-13,-28,-7
13:58:45:324267,10,-6,3,20,-9,-44,-42,3
13:58:45:332387,10,-6,3,20,-9,-44,-42,3
13:58:45:333175,-21,-4,17,2,-6,5,21,0
13:58:45:346748,-15,-20,1,-6,-14,-4,-4,-6
13:58:45:355019,-15,-20,1,-6,-14,-4,-4,-6
13:58:45:355755,-1,-14,14,29,44,14,-10,0
13:58:45:361753,-14,4,-12,5,2,19,20,-9
13:58:45:377459,-14,4,-12,5,2,19,20,-9
13:58:45:378241,9,17,1,-16,-18,-19,8,-4
13:58:45:384198,4,-2,8,2,-3,1,2,3
13:58:45:392555,4,-2,8,2,-3,1,2,3
13:58:45:393291,-11,-5,-8,19,-8,1,4,3
13:58:45:406741,8,-6,-11,-4,23,10,-4,4
13:58:45:414941,8,-6,-11,-4,23,10,-4,4
13:58:45:415762,-33,-3,-18,-10,-7,-5,-5,-9
13:58:45:429212,11,2,-2,5,14,-13,-6,8
13:58:45:437464,11,2,-2,5,14,-13,-6,8
13:58:45:438185,-11,-19,-4,-15,3,14,5,0
13:58:45:444228,-10,0,-4,-6,-14,-9,5,3
13:58:45:452463,-10,0,-4,-6,-14,-9,5,3
13:58:45:453246,4,-5,22,5,-10,-15,-37,-6
13:58:45:467184,12,-4,8,1,-14,-5,6,3
13:58:45:475038,12,-4,8,1,-14,-5,6,3
13:58:45:475795,21,9,-10,-9,38,22,5,6
13:58:45:481682,28,1,23,7,6,-2,0,4
13:58:45:497449,28,1,23,7,6,-2,0,4
13:58:45:498209,-21,7,0,5,4,6,6,-5
13:58:45:513072,-24,-13,-5,-13,-29,-30,-16,-7
13:58:45:513883,-24,-13,-5,-13,-29,-30,-16,-7
13:58:45:514692,16,37,8,-1,-9,-28,-53,-4
13:58:45:526774,-2,3,-14,3,3,8,10,1
13:58:45:534889,-2,3,-14,3,3,8,10,1
13:58:45:535662,7,-12,24,-11,-8,7,3,0
13:58:45:541795,-19,-8,5,4,0,6,-12,-12
13:58:45:557504,-19,-8,5,4,0,6,-12,-12
13:58:45:558252,-12,-16,-16,6,6,8,19,6
13:58:45:564239,-16,-3,-5,-5,-1,-11,5,-9
13:58:45:572440,-16,-3,-5,-5,-1,-11,5,-9
13:58:45:573218,-1,-32,-30,22,3,8,3,-2
13:58:45:587266,1,-10,-8,-12,1,28,9,1
13:58:45:595029,1,-10,-8,-12,1,28,9,1
13:58:45:595776,-3,8,2,-8,-17,-15,5,-5
13:58:45:601732,-12,-23,-14,-7,-2,15,-4,-10
13:58:45:617445,-12,-23,-14,-7,-2,15,-4,-10
13:58:45:618222,-13,24,28,17,3,23,18,-8
13:58:45:624346,-7,19,2,-7,-7,-11,-2,-1
13:58:45:632362,-7,19,2,-7,-7,-11,-2,-1
13:58:45:633182,2,-18,9,1,3,-12,-8,-6
13:58:45:646747,11,8,15,-10,-13,-9,-6,2
13:58:45:655042,11,8,15,-10,-13,-9,-6,2
13:58:45:655785,26,-1,7,-23,10,25,8,3
13:58:45:661742,-2,-1,10,13,15,7,-7,4
13:58:45:677489,-2,-1,10,13,15,7,-7,4
13:58:45:678265,40,-6,8,0,-12,3,17,1
13:58:45:684201,-8,11,-6,-7,-3,-9,-33,-5
13:58:45:692493,-8,11,-6,-7,-3,-9,-33,-5
13:58:45:693222,4,-13,-4,5,-5,-5,-4,0
13:58:45:707221,-10,-15,-9,-12,0,-12,7,-5
13:58:45:723079,-10,-15,-9,-12,0,-12,7,-5
13:58:45:723870,-7,9,-4,7,-4,2,3,7
13:58:45:724656,-3,13,-3,-10,-2,-5,-9,-1
13:58:45:737548,-3,13,-3,-10,-2,-5,-9,-1
13:58:45:738227,-7,1,-23,-26,-11,-9,-1,-12
13:58:45:744212,-3,8,2,9,2,7,25,2
13:58:45:752443,-3,8,2,9,2,7,25,2
13:58:45:753211,-22,9,-9,3,0,17,8,3
13:58:45:766738,-7,14,16,13,23,24,0,-1
13:58:45:774987,-7,14,16,13,23,24,0,-1
13:58:45:775668,-34,-25,-18,-26,-6,-29,-12,-9
13:58:45:789263,2,-7,-12,23,3,3,10,-3
13:58:45:797430,2,-7,-12,23,3,3,10,-3
13:58:45:798199,6,-7,9,1,-8,-17,-26,2
13:58:45:804349,24,-48,-19,-7,4,-17,-28,-6
13:58:45:812429,24,-48,-19,-7,4,-17,-28,-6
13:58:45:813191,46,5,8,-9,-8,-12,6,16
13:58:45:826815,-17,-6,13,4,-10,10,10,-4
13:58:45:834909,-17,-6,13,4,-10,10,10,-4
13:58:45:835717,-7,14,23,11,10,6,4,-6
13:58:45:841812,20,11,-2,-6,-9,-4,14,9
13:58:45:865556,20,11,-2,-6,-9,-4,14,9
13:58:45:866345,-18,0,-21,1,-1,40,19,8
13:58:45:867148,-7,-5,-39,7,8,6,-11,-2
13:58:45:872533,-7,-5,-39,7,8,6,-11,-2
13:58:45:873263,-17,-22,4,7,-4,-24,-18,-6
13:58:45:886800,3,11,-36,-5,-5,-10,-9,2
13:58:45:894929,3,11,-36,-5,-5,-10,-9,2
13:58:45:895774,17,5,-22,-2,-3,-5,-5,-2
13:58:45:901699,6,-14,18,-6,10,7,17,-3
13:58:45:917428,6,-14,18,-6,10,7,17,-3
13:58:45:918200,22,13,35,6,-7,-17,-4,-13
13:58:45:924261,-4,5,12,3,2,8,2,-3
13:58:45:932392,-4,5,12,3,2,8,2,-3
13:58:45:933203,-15,-23,-19,-12,4,2,1,-2
13:58:45:946696,-3,7,19,-1,-11,-3,22,4
13:58:45:954951,-3,7,19,-1,-11,-3,22,4
13:58:45:955767,20,31,-13,-14,-16,-6,-15,11
13:58:45:961713,-53,0,-20,-28,2,-17,-15,-14
13:58:45:985560,-53,0,-20,-28,2,-17,-15,-14
13:58:45:986347,-17,-11,-34,8,0,-7,1,-9
13:58:45:987154,13,5,22,11,1,15,8,-1
13:58:45:999930,13,5,22,11,1,15,8,-1
13:58:46:757,2,13,13,-4,1,3,17,5
13:58:46:6737,-2,-29,2,2,0,-14,-5,-1
13:58:46:14962,-2,-29,2,2,0,-14,-5,-1
13:58:46:15756,-1,3,-5,8,-9,-2,4,0
13:58:46:29241,-12,-28,-8,-5,-7,1,-15,-5
13:58:46:37575,-12,-28,-8,-5,-7,1,-15,-5
13:58:46:38281,-6,-2,-12,33,13,-2,1,1
13:58:46:44225,18,17,-8,-16,-28,-20,-20,6
13:58:46:51735,18,17,-8,-16,-28,-20,-20,6
13:58:46:67364,-6,-7,-32,-2,23,1,-1,-5
13:58:46:68146,14,14,3,-6,6,52,8,11
13:58:46:75030,14,14,3,-6,6,52,8,11
13:58:46:75800,17,-12,16,16,2,2,6,1
13:58:46:89235,-8,-30,-3,0,-3,-30,-17,-9
13:58:46:105656,-8,-30,-3,0,-3,-30,-17,-9
13:58:46:106331,-5,-11,1,-2,-7,3,-14,0
13:58:46:107127,4,8,4,27,3,-9,6,2
13:58:46:111817,4,8,4,27,3,-9,6,2
13:58:46:119212,-43,20,1,1,3,-3,4,-2
13:58:46:126779,-18,10,-8,-23,2,-10,6,1
13:58:46:134669,-18,10,-8,-23,2,-10,6,1
13:58:46:141767,-21,-8,10,-5,-8,13,31,-17
13:58:46:149200,-7,4,-15,-2,5,12,5,1
13:58:46:157495,-7,4,-15,-2,5,12,5,1
13:58:46:158266,10,-32,-18,-30,-15,-24,-27,-3
13:58:46:164207,11,-4,57,15,1,-3,5,-4
13:58:46:171767,11,-4,57,15,1,-3,5,-4
13:58:46:179256,0,28,14,-39,-15,-10,-3,-1
13:58:46:186775,-6,10,-29,6,19,3,8,1
13:58:46:194931,-6,10,-29,6,19,3,8,1
13:58:46:195706,11,3,-5,-4,-11,24,7,5
13:58:46:209286,17,7,10,9,1,37,9,13
13:58:46:218098,17,7,10,9,1,37,9,13
13:58:46:218876,-8,-3,3,3,2,-1,8,11
13:58:46:224330,19,-8,-23,4,3,-16,-2,-6
13:58:46:231835,19,-8,-23,4,3,-16,-2,-6
13:58:46:239205,1,-3,-11,-32,-1,-24,-48,4
13:58:46:246765,-1,10,33,-7,-14,13,0,-5
13:58:46:254990,-1,10,33,-7,-14,13,0,-5
13:58:46:255785,-19,12,2,-6,11,-2,18,-12
13:58:46:269220,-14,-3,14,-3,-8,-12,-11,-6
13:58:46:277425,-14,-3,14,-3,-8,-12,-11,-6
13:58:46:278191,6,-14,-20,-4,-6,-1,-5,3
13:58:46:284161,18,0,-3,20,8,3,10,-2
13:58:46:291836,18,0,-3,20,8,3,10,-2
13:58:46:299175,-18,1,-2,5,3,-3,-19,-10
13:58:46:306796,6,3,19,-9,-4,-23,-18,6
13:58:46:314987,6,3,19,-9,-4,-23,-18,6
13:58:46:315761,23,8,9,6,2,11,16,14
13:58:46:329193,-22,-8,-5,2,8,2,5,-9
13:58:46:345588,-22,-8,-5,2,8,2,5,-9
13:58:46:346361,-11,0,27,23,13,-17,-3,-11
13:58:46:347174,-19,-4,-13,-21,3,9,2,-9
13:58:46:351826,-19,-4,-13,-21,3,9,2,-9
13:58:46:359269,9,20,-5,2,-10,-13,0,5
13:58:46:366654,6,-16,-28,-3,-9,-11,-9,1
13:58:46:382386,6,-16,-28,-3,-9,-11,-9,1
13:58:46:383194,3,-32,-16,6,6,-5,-6,3
13:58:46:389329,1,1,-13,4,-1,5,-8,-7
13:58:46:397458,1,1,-13,4,-1,5,-8,-7
13:58:46:398240,27,40,9,24,12,14,-7,2
13:58:46:404340,7,-1,-2,-16,-2,13,37,4
13:58:46:411852,7,-1,-2,-16,-2,13,37,4
13:58:46:419185,-8,-9,0,13,-1,-2,12,1
13:58:46:426760,-1,16,13,9,-10,-18,-5,3
13:58:46:434916,-1,16,13,9,-10,-18,-5,3
13:58:46:435771,-17,2,24,14,-4,15,12,-5
13:58:46:449179,-8,-14,-4,0,10,-12,-17,-4
13:58:46:457555,-8,-14,-4,0,10,-12,-17,-4
13:58:46:458244,11,-26,-1,-7,-11,20,4,-5
13:58:46:464247,11,18,-13,-12,-5,-7,-16,9
13:58:46:471901,11,18,-13,-12,-5,-7,-16,9
13:58:46:479250,12,-19,-13,-11,-10,-21,-13,-4
13:58:46:486695,7,-10,8,-16,-8,-2,-15,-1
13:58:46:502405,7,-10,8,-16,-8,-2,-15,-1
13:58:46:503259,8,-11,31,-1,-3,19,-9,2
13:58:46:509314,3,16,10,4,-5,-11,-7,-8
13:58:46:517419,3,16,10,4,-5,-11,-7,-8
13:58:46:518197,-10,11,-40,3,3,-19,11,-3
13:58:46:524252,-5,-24,-31,2,-3,6,5,4
13:58:46:531806,-5,-24,-31,2,-3,6,5,4
13:58:46:539238,33,-1,-16,-9,-2,-1,10,3
13:58:46:546752,-8,8,-20,-2,-8,-4,-10,-12
13:58:46:555057,-8,8,-20,-2,-8,-4,-10,-12
13:58:46:555826,-22,10,19,-3,-4,-4,-21,2
13:58:46:569231,-22,3,13,10,22,6,5,1
13:58:46:577452,-22,3,13,10,22,6,5,1
13:58:46:578226,-5,-7,-22,1,15,-3,9,-3
13:58:46:584220,15,15,18,0,-11,-10,-24,5
13:58:46:591817,15,15,18,0,-11,-10,-24,5
13:58:46:599220,13,-13,5,-15,-4,25,39,2
13:58:46:606801,-6,-9,-31,1,-9,-25,-8,0
13:58:46:614927,-6,-9,-31,1,-9,-25,-8,0
13:58:46:615658,-33,-25,-9,-19,-16,-29,-16,-5
13:58:46:629238,-21,-6,25,30,28,11,3,-13
13:58:46:637518,-21,-6,25,30,28,11,3,-13
13:58:46:638236,4,26,-7,13,20,3,-9,1
13:58:46:644319,3,1,23,-16,-1,2,20,6
13:58:46:651775,3,1,23,-16,-1,2,20,6
13:58:46:659268,-14,-15,-17,-12,-4,3,5,-3
13:58:46:666737,26,9,-5,-3,-13,-5,-34,-1
13:58:46:675019,26,9,-5,-3,-13,-5,-34,-1
13:58:46:675687,-9,-9,23,11,-1,-1,-6,-4
13:58:46:689322,-16,-17,-21,-5,-7,12,42,-7
13:58:46:697428,-16,-17,-21,-5,-7,12,42,-7
13:58:46:698229,-11,37,3,-3,1,-3,-14,-3
13:58:46:704307,-13,4,-18,-37,-5,-5,-15,-5
13:58:46:711807,-13,4,-18,-37,-5,-5,-15,-5
13:58:46:719183,18,-5,14,0,-7,-26,-25,2
13:58:46:726737,-12,-1,5,-13,-2,16,-2,-5
13:58:46:734953,-12,-1,5,-13,-2,16,-2,-5
13:58:46:735765,1,1,10,1,0,33,39,3
13:58:46:749154,-4,-6,23,22,1,10,-4,-1
13:58:46:757471,-4,-6,23,22,1,10,-4,-1
13:58:46:758220,7,15,-9,-6,-1,-12,-4,1
13:58:46:764145,-13,20,7,10,-1,-9,-2,2
13:58:46:771852,-13,20,7,10,-1,-9,-2,2
13:58:46:779202,-4,11,-13,0,-8,4,-2,-1
13:58:46:786711,-1,-9,-2,5,13,-3,3,-2
13:58:46:794967,-1,-9,-2,5,13,-3,3,-2
13:58:46:795796,-10,4,6,-9,3,-1,0,5
13:58:46:809274,14,10,7,3,-3,-8,0,8
13:58:46:817406,14,10,7,3,-3,-8,0,8
13:58:46:818174,14,-25,-5,-1,-28,-11,-8,-5
13:58:46:824272,1,22,9,8,4,8,15,-1
13:58:46:831832,1,22,9,8,4,8,15,-1
13:58:46:839258,-16,-20,5,6,-10,-6,-11,-10
13:58:46:846733,8,-20,-24,3,21,18,-3,1
13:58:46:854989,8,-20,-24,3,21,18,-3,1
13:58:46:855693,-27,-19,-22,17,1,-2,-12,-10
13:58:46:869244,-7,7,9,0,-11,-14,6,0
13:58:46:877442,-7,7,9,0,-11,-14,6,0
13:58:46:878271,15,-10,10,-5,7,-32,-27,4
13:58:46:892529,9,37,-9,-1,-4,-9,-3,-1
13:58:46:893255,9,37,-9,-1,-4,-9,-3,-1
13:58:46:899168,6,-1,-22,-2,-11,21,17,2
13:58:46:906827,12,-28,3,-7,-7,-8,2,-2
13:58:46:914958,12,-28,3,-7,-7,-8,2,-2
13:58:46:915757,11,10,9,2,11,-13,-13,1
13:58:46:929205,5,-15,-20,-14,-15,-13,-29,-4
13:58:46:937493,5,-15,-20,-14,-15,-13,-29,-4
13:58:46:938258,14,-11,-43,-6,-10,9,6,-7
13:58:46:952421,29,-12,-16,5,2,-3,-3,6
13:58:46:953246,29,-12,-16,5,2,-3,-3,6
13:58:46:959278,8,15,26,-12,12,30,8,-2
13:58:46:966683,-19,-7,38,0,-14,5,-17,-10
13:58:46:974369,-19,-7,38,0,-14,5,-17,-10
13:58:46:981709,0,6,-14,-11,-3,-6,-7,1
13:58:46:989207,-11,-11,19,19,-11,6,15,2
13:58:46:997476,-11,-11,19,19,-11,6,15,2
13:58:46:998258,-2,-30,-15,3,-3,-1,-22,-5
13:58:47:12432,-13,-7,-5,-40,-7,-30,-4,-5
13:58:47:13255,-13,-7,-5,-40,-7,-30,-4,-5
13:58:47:19231,11,-8,-5,9,7,26,13,-2
13:58:47:26759,-2,9,6,0,-3,-6,19,6
13:58:47:34271,-2,9,6,0,-3,-6,19,6
13:58:47:41784,-29,6,27,-7,-2,-18,-9,-2
13:58:47:49169,-16,31,9,-5,-13,-11,-7,1
13:58:47:57469,-16,31,9,-5,-13,-11,-7,1
13:58:47:58225,29,-2,-2,-13,-1,-3,8,5
13:58:47:72388,-9,-23,-9,19,20,4,-24,-4
13:58:47:73269,-9,-23,-9,19,20,4,-24,-4
13:58:47:79270,-30,3,3,-18,2,10,10,0
13:58:47:86820,4,12,3,1,-3,-8,13,-3
13:58:47:94284,4,12,3,1,-3,-8,13,-3
13:58:47:101743,7,37,44,2,-4,-19,-6,-3
13:58:47:109347,24,7,-21,-19,-15,-6,-17,9
13:58:47:117407,24,7,-21,-19,-15,-6,-17,9
13:58:47:118186,-49,7,44,8,12,4,12,-1
13:58:47:132360,0,-5,27,38,15,22,12,-10
13:58:47:133183,0,-5,27,38,15,22,12,-10
13:58:47:139316,30,26,-26,-7,-12,-11,2,8
13:58:47:146744,6,-3,-5,-8,-3,-5,-8,-5
13:58:47:154351,6,-3,-5,-8,-3,-5,-8,-5
13:58:47:161711,3,-22,-14,4,13,45,21,-4
13:58:47:169159,22,3,-21,-11,-4,7,27,8
13:58:47:177450,22,3,-21,-11,-4,7,27,8
13:58:47:178233,-16,-30,-14,22,4,-39,-35,-9
13:58:47:192468,-10,-20,-20,9,13,6,7,-1
13:58:47:193227,-10,-20,-20,9,13,6,7,-1
13:58:47:199172,-22,-22,2,-12,-9,-4,6,-8
13:58:47:206725,-15,7,6,23,-3,-8,-1,-1
13:58:47:214280,-15,7,6,23,-3,-8,-1,-1
13:58:47:221756,6,12,10,1,-3,1,-3,2
13:58:47:229189,-19,12,14,-13,-13,-13,-8,-8
13:58:47:237475,-19,12,14,-13,-13,-13,-8,-8
13:58:47:238222,-2,-6,24,-15,-2,8,-5,-9
13:58:47:252409,5,1,-4,22,6,-10,-21,-5
13:58:47:253199,5,1,-4,22,6,-10,-21,-5
13:58:47:259287,-7,-13,-15,-17,-20,-19,-3,5
13:58:47:266683,-23,-9,-19,-13,7,14,2,-6
13:58:47:274363,-23,-9,-19,-13,7,14,2,-6
13:58:47:281705,5,6,-2,9,-2,-2,18,4
13:58:47:289192,10,-6,-31,4,-7,2,0,-5
13:58:47:297367,10,-6,-31,4,-7,2,0,-5
13:58:47:298162,0,-38,-18,-2,-8,-5,9,3
13:58:47:312431,3,8,14,-8,28,34,22,9
13:58:47:313213,3,8,14,-8,28,34,22,9
13:58:47:319263,2,18,2,-8,-10,-4,-13,-4
13:58:47:326780,19,-6,13,-9,-16,-14,-19,-4
13:58:47:334273,19,-6,13,-9,-16,-14,-19,-4
13:58:47:341788,3,36,-15,-14,7,1,-5,5
13:58:47:349169,-3,0,4,4,2,-9,3,9
13:58:47:357449,-3,0,4,4,2,-9,3,9
13:58:47:358208,0,10,2,4,5,4,-3,-3
13:58:47:372436,-5,-31,8,-12,-15,-4,-10,5
13:58:47:373231,-5,-31,8,-12,-15,-4,-10,5
13:58:47:379250,2,-20,3,19,8,-17,-16,-3
13:58:47:386751,18,28,3,5,14,23,10,7
13:58:47:394239,18,28,3,5,14,23,10,7
13:58:47:401720,-6,-22,-19,31,9,-1,-2,5
13:58:47:409294,-19,-7,3,-13,-6,-6,9,-6
13:58:47:417379,-19,-7,3,-13,-6,-6,9,-6
13:58:47:418174,-4,-11,-51,-22,-14,1,-6,-2
13:58:47:432400,-17,-14,-14,4,9,-21,-3,-5
13:58:47:433171,-17,-14,-14,4,9,-21,-3,-5
13:58:47:439180,9,12,24,3,4,-4,-8,1
13:58:47:446675,2,26,7,-10,1,12,8,1
13:58:47:454309,2,26,7,-10,1,12,8,1
13:58:47:461708,-3,-6,7,18,-6,2,-3,-2
13:58:47:469229,11,16,17,-22,-17,-19,-20,-4
13:58:47:477420,11,16,17,-22,-17,-19,-20,-4
13:58:47:478207,12,27,12,-5,16,56,19,-1
13:58:47:492494,-4,-35,31,-1,-4,10,15,-1
13:58:47:493279,-4,-35,31,-1,-4,10,15,-1
13:58:47:499141,6,-4,9,4,-4,-37,-21,-2
13:58:47:506799,10,18,-26,20,9,6,12,11
13:58:47:514330,10,18,-26,20,9,6,12,11
13:58:47:521762,-6,-6,10,3,7,-4,7,4
13:58:47:529235,-16,8,13,-15,-11,-3,-4,-5
13:58:47:537529,-16,8,13,-15,-11,-3,-4,-5
13:58:47:538263,0,6,-11,-7,4,1,14,-3
13:58:47:552420,-16,-41,-16,-3,-2,6,-9,-4
13:58:47:553209,-16,-41,-16,-3,-2,6,-9,-4
13:58:47:559303,-9,-14,-29,-19,-5,14,-10,-3
13:58:47:566666,-4,1,-32,-5,7,-11,-6,-3
13:58:47:574393,-4,1,-32,-5,7,-11,-6,-3
13:58:47:581747,-25,-2,-16,2,3,-4,-2,-1
13:58:47:589268,1,27,-15,6,4,3,-14,-5
13:58:47:597436,1,27,-15,6,4,3,-14,-5
13:58:47:598189,16,8,-1,-2,0,-3,11,-3
13:58:47:612453,-17,-11,0,-4,1,22,28,-1
13:58:47:613248,-17,-11,0,-4,1,22,28,-1
13:58:47:619211,11,9,1,-7,-13,-6,-2,1
13:58:47:626816,-7,-9,1,5,-10,-16,2,0
13:58:47:634253,-7,-9,1,5,-10,-16,2,0
13:58:47:641806,21,6,-30,40,29,35,33,10
13:58:47:649175,23,14,24,13,-1,12,-28,-10
13:58:47:657492,23,14,24,13,-1,12,-28,-10
13:58:47:658252,-4,-11,15,-13,-23,-19,-28,-6
13:58:47:672421,-2,-8,11,5,-9,-13,8,1
13:58:47:673169,-2,-8,11,5,-9,-13,8,1
13:58:47:679264,7,6,-9,1,-2,-14,6,-6
13:58:47:686806,12,-6,-33,-54,-6,-15,-4,1
13:58:47:694264,12,-6,-33,-54,-6,-15,-4,1
13:58:47:701671,-5,-12,1,-17,-7,1,9,-10
13:58:47:709246,-5,7,19,19,25,58,60,5
13:58:47:717397,-5,7,19,19,25,58,60,5
13:58:47:718184,-18,-5,-18,-3,-3,-13,-6,-8
13:58:47:732383,-8,-4,-19,-8,-15,-40,-35,-7
13:58:47:733202,-8,-4,-19,-8,-15,-40,-35,-7
13:58:47:739252,-6,11,33,-5,-16,-7,-4,4
13:58:47:746701,-11,-9,-15,1,16,-12,-7,0
13:58:47:754299,-11,-9,-15,1,16,-12,-7,0
13:58:47:761679,16,36,10,-1,-5,-1,0,4
13:58:47:769194,5,-7,-4,20,-13,-15,12,-8
13:58:47:777508,5,-7,-4,20,-13,-15,12,-8
13:58:47:778235,1,2,8,-15,0,-26,-39,-4
13:58:47:792431,11,40,28,-10,3,-7,-11,4
13:58:47:793187,11,40,28,-10,3,-7,-11,4
13:58:47:799142,-65,2,17,1,-3,-1,-5,-10
13:58:47:806731,4,-37,-25,2,-10,-6,3,-2
13:58:47:814282,4,-37,-25,2,-10,-6,3,-2
13:58:47:821781,23,1,-5,2,13,11,4,3
13:58:47:829221,-21,-10,-5,15,1,6,2,-1
13:58:47:837543,-21,-10,-5,15,1,6,2,-1
13:58:47:838224,27,-13,23,13,16,-5,-16,2
13:58:47:852412,1,-1,-20,-16,-5,-10,-22,-1
13:58:47:853238,1,-1,-20,-16,-5,-10,-22,-1
13:58:47:859363,-5,3,6,-6,-9,-4,0,0
13:58:47:866704,-5,-30,-18,-1,-4,-9,-5,1
13:58:47:874359,-5,-30,-18,-1,-4,-9,-5,1
13:58:47:881741,-16,-13,-14,4,1,-5,-17,-7
13:58:47:889271,13,-1,8,-6,-8,19,4,6
13:58:47:896759,13,-1,8,-6,-8,19,4,6
13:58:47:904280,6,-27,-1,-2,4,14,14,5
13:58:47:912413,-13,2,-9,4,-10,-4,-2,-5
13:58:47:913222,-13,2,-9,4,-10,-4,-2,-5
13:58:47:919263,-27,1,1,24,6,15,11,-6
13:58:47:934882,-1,0,7,-5,7,1,2,-1
13:58:47:935649,-1,0,7,-5,7,1,2,-1
13:58:47:941781,17,7,-9,12,4,-3,13,4
13:58:47:949192,7,0,5,-8,-8,14,22,-10
13:58:47:956801,7,0,5,-8,-8,14,22,-10
13:58:47:964165,-14,-20,2,-9,-26,-16,-10,-11
13:58:47:972550,-7,8,-1,-15,-5,2,-23,-1
13:58:47:973182,-7,8,-1,-15,-5,2,-23,-1
13:58:47:979198,-3,10,-7,10,6,12,3,-3
13:58:47:994919,30,-10,-11,19,-5,-26,-21,6
13:58:47:995710,30,-10,-11,19,-5,-26,-21,6
13:58:48:1671,17,9,38,-2,13,8,17,1
13:58:48:9266,11,11,-14,-1,0,-7,-5,7
13:58:48:16717,11,11,-14,-1,0,-7,-5,7
13:58:48:24291,-9,-19,-5,8,28,8,9,-3
13:58:48:32379,-10,-5,-6,1,-1,-11,2,-1
13:58:48:33201,-10,-5,-6,1,-1,-11,2,-1
13:58:48:39181,6,17,-9,-12,-10,20,4,10
13:58:48:54989,-4,-12,3,-8,1,4,-8,-16
13:58:48:55726,-4,-12,3,-8,1,4,-8,-16
13:58:48:61706,12,2,2,1,-11,28,22,-1
13:58:48:69214,-9,2,18,-7,6,17,22,4
13:58:48:76862,-9,2,18,-7,6,17,22,4
13:58:48:84167,-8,-9,0,-10,-3,-36,-25,7
13:58:48:92499,-14,-30,-18,-19,-5,-9,-16,-11
13:58:48:93215,-14,-30,-18,-19,-5,-9,-16,-11
13:58:48:99192,4,-16,-29,-9,9,-2,-2,-1
13:58:48:114948,15,-10,41,14,3,5,1,2
13:58:48:115793,15,-10,41,14,3,5,1,2
13:58:48:121800,-1,-6,25,1,0,11,-1,3
13:58:48:129232,-6,21,-10,1,-8,-27,-14,1
13:58:48:136857,-6,21,-10,1,-8,-27,-14,1
13:58:48:144229,2,7,-34,-6,2,-1,30,4
13:58:48:152349,2,9,-11,-3,5,10,-7,-3
13:58:48:153149,2,9,-11,-3,5,10,-7,-3
13:58:48:159359,23,-4,-49,-21,-17,-10,-7,-1
13:58:48:174997,13,15,21,10,11,10,33,7
13:58:48:175750,13,15,21,10,11,10,33,7
13:58:48:181716,-5,-21,-4,24,2,-12,-6,-1
13:58:48:189286,-12,13,41,-16,-4,-5,-14,-9
13:58:48:196736,-12,13,41,-16,-4,-5,-14,-9
13:58:48:204360,1,10,9,-12,-20,8,-4,3
13:58:48:212395,15,34,30,17,8,14,11,-2
13:58:48:213234,15,34,30,17,8,14,11,-2
13:58:48:219155,12,4,-9,-6,-12,-28,-20,-2
13:58:48:234887,-5,-26,-25,-11,-3,5,-9,3
13:58:48:235689,-5,-26,-25,-11,-3,5,-9,3
13:58:48:241817,-2,5,23,6,-12,-17,-16,-3
13:58:48:249163,-9,10,-21,-5,7,0,-19,-5
13:58:48:256765,-9,10,-21,-5,7,0,-19,-5
13:58:48:264198,-10,-39,-29,-23,2,49,35,2
13:58:48:272476,-19,-16,-7,32,4,5,12,1
13:58:48:273165,-19,-16,-7,32,4,5,12,1
13:58:48:279224,7,19,15,-4,-8,-30,-21,0
13:58:48:294959,-4,-14,-20,-4,-1,4,3,7
13:58:48:295748,-4,-14,-20,-4,-1,4,3,7
13:58:48:301713,-13,4,6,13,-4,-10,-6,-8
13:58:48:309278,10,10,34,-8,5,3,-3,0
13:58:48:316712,10,10,34,-8,5,3,-3,0
13:58:48:324290,3,-2,-43,-35,2,8,-1,-13
13:58:48:332405,-12,-16,-8,1,2,3,17,-1
13:58:48:333233,-12,-16,-8,1,2,3,17,-1
13:58:48:339304,-14,15,30,-3,-7,-19,-40,-7
13:58:48:354987,12,-3,0,-10,-16,-3,-16,-9
13:58:48:355711,12,-3,0,-10,-16,-3,-16,-9
13:58:48:361717,19,-3,0,9,-5,-2,-7,-6
13:58:48:369238,3,8,21,8,9,-12,-15,11
13:58:48:376883,3,8,21,8,9,-12,-15,11
13:58:48:384173,-20,-3,-25,14,22,75,72,3
13:58:48:392484,0,1,-38,1,9,-2,4,3
13:58:48:393220,0,1,-38,1,9,-2,4,3
13:58:48:399195,5,21,13,4,-8,-27,-28,-6
13:58:48:414960,5,21,13,4,-8,-27,-28,-6
13:58:48:415794,-13,-15,6,-13,5,6,10,-5
13:58:48:421755,5,4,-1,0,1,-8,5,11
13:58:48:437587,5,4,-1,0,1,-8,5,11
13:58:48:438200,7,0,3,-14,-15,-20,-7,-5
13:58:48:444224,-16,-10,15,12,5,-3,5,-5
13:58:48:452482,-16,-10,15,12,5,-3,5,-5
13:58:48:453226,-2,2,-24,-1,-14,10,20,4
13:58:48:459308,-7,-14,12,-10,-16,-28,-14,5
13:58:48:475116,-7,-14,12,-10,-16,-28,-14,5
13:58:48:475743,18,4,0,9,14,11,9,7
13:58:48:481666,-11,-8,7,5,-8,-16,-23,-11
13:58:48:497440,-11,-8,7,5,-8,-16,-23,-11
13:58:48:498240,-5,-12,8,-22,-13,-1,-8,-1
13:58:48:504304,-8,22,57,9,21,-1,-3,0
13:58:48:512449,-8,22,57,9,21,-1,-3,0
13:58:48:513225,-9,-8,-7,-9,-17,-20,-13,-5
13:58:48:519197,0,22,14,8,12,12,-16,1
13:58:48:534940,0,22,14,8,12,12,-16,1
13:58:48:535688,1,20,-24,1,-7,2,26,-1
13:58:48:541790,16,-10,-31,-6,-10,-27,-10,3
13:58:48:557455,16,-10,-31,-6,-10,-27,-10,3
13:58:48:558175,-14,1,9,-1,-12,6,0,-3
13:58:48:564172,9,15,13,-9,14,-8,-18,6
13:58:48:572484,9,15,13,-9,14,-8,-18,6
13:58:48:573211,-9,-6,22,35,5,-9,-8,-9
13:58:48:579197,-5,-21,2,4,-14,13,26,2
13:58:48:594920,-5,-21,2,4,-14,13,26,2
13:58:48:595717,-3,-2,16,11,7,11,4,-6
13:58:48:601705,-1,-9,-21,10,-7,11,20,3
13:58:48:617416,-1,-9,-21,10,-7,11,20,3
13:58:48:618164,14,-1,-32,0,7,0,7,13
13:58:48:624345,-35,-19,-29,-16,-2,-8,2,-12
13:58:48:632402,-35,-19,-29,-16,-2,-8,2,-12
13:58:48:633199,3,-7,8,-18,-3,-3,-13,-6
13:58:48:639248,13,12,10,3,-5,-9,-5,9
13:58:48:654961,13,12,10,3,-5,-9,-5,9
13:58:48:655748,33,7,-30,3,19,6,10,3
13:58:48:661662,-17,-24,-12,-2,-6,12,7,1
13:58:48:677411,-17,-24,-12,-2,-6,12,7,1
13:58:48:678156,-11,6,-1,-5,-20,-15,-20,-6
13:58:48:684203,9,-1,-33,-27,3,3,0,-5
13:58:48:692514,9,-1,-33,-27,3,3,0,-5
13:58:48:693231,-11,-6,-3,-25,5,-4,3,-2
13:58:48:699136,21,-9,7,17,-7,-11,-8,0
13:58:48:714901,21,-9,7,17,-7,-11,-8,0
13:58:48:715670,-13,-3,-7,-6,0,17,21,4
13:58:48:721846,-35,-9,-4,-14,-10,-28,-22,-5
13:58:48:737517,-35,-9,-4,-14,-10,-28,-22,-5
13:58:48:738149,2,-11,-18,9,1,-20,-3,-3
13:58:48:744260,8,-6,3,-7,27,-1,-8,-3
13:58:48:752407,8,-6,3,-7,27,-1,-8,-3
13:58:48:753150,-25,-11,-21,12,-9,-8,-19,-4
13:58:48:759298,29,-5,0,-24,-13,-8,-2,4
13:58:48:775057,29,-5,0,-24,-13,-8,-2,4
13:58:48:775780,-42,-5,4,-7,-14,2,-9,-14
13:58:48:781717,16,32,37,3,9,13,-7,-4
13:58:48:797433,16,32,37,3,9,13,-7,-4
13:58:48:798227,27,10,-10,37,5,11,22,14
13:58:48:804382,-11,26,4,2,-7,6,0,-9
13:58:48:812458,-11,26,4,2,-7,6,0,-9
13:58:48:813190,32,-17,26,12,19,-7,-14,4
13:58:48:819228,-1,1,12,6,-9,21,14,8
13:58:48:834949,-1,1,12,6,-9,21,14,8
13:58:48:835782,-4,5,6,-19,-11,-28,-40,-5
13:58:48:841817,-21,14,11,16,10,6,3,-8
13:58:48:857485,-21,14,11,16,10,6,3,-8
13:58:48:858209,-24,-41,-24,-35,-5,25,30,2
13:58:48:864205,-2,-17,23,-5,1,20,29,4
13:58:48:872543,-2,-17,23,-5,1,20,29,4
13:58:48:873211,-16,8,25,1,4,-5,1,-6
13:58:48:886694,0,-19,-51,-4,-10,-15,5,1
13:58:48:894928,0,-19,-51,-4,-10,-15,5,1
13:58:48:895717,5,29,16,6,-12,10,9,3
13:58:48:901716,-14,-5,5,2,7,-4,-26,-11
13:58:48:917397,-14,-5,5,2,7,-4,-26,-11
13:58:48:918200,12,20,-9,-11,9,2,-13,2
13:58:48:924228,2,-20,-20,-16,-12,-4,1,-4
13:58:48:932399,2,-20,-20,-16,-12,-4,1,-4
13:58:48:933192,-6,-24,-46,8,10,16,19,-1
13:58:48:946738,3,10,-9,-4,12,7,24,8
13:58:48:955169,3,10,-9,-4,12,7,24,8
13:58:48:955742,5,-13,9,-13,-15,-14,-34,-7
13:58:48:961732,-16,4,9,20,2,14,5,-1
13:58:48:969269,-16,4,9,20,2,14,5,-1
13:58:48:976788,-7,-3,25,11,4,-13,4,1
13:58:48:984171,-3,-9,12,-19,-30,-22,-16,-7
13:58:48:992442,-3,-9,12,-19,-30,-22,-16,-7
13:58:48:993169,-4,-5,1,-14,-2,-2,-3,-5
13:58:49:6731,13,11,-34,-10,15,12,26,11
13:58:49:14940,13,11,-34,-10,15,12,26,11
13:58:49:15685,0,5,5,-1,-1,12,-13,-1
13:58:49:21743,10,9,-7,-8,-6,-10,1,4
13:58:49:29253,10,9,-7,-8,-6,-10,1,4
13:58:49:36729,-10,29,37,-11,-12,-9,10,0
13:58:49:44242,-2,5,-7,21,19,-8,-34,0
13:58:49:52388,-2,5,-7,21,19,-8,-34,0
13:58:49:53199,3,26,20,18,14,23,2,-19
13:58:49:66706,4,-10,-6,-9,-13,2,6,-1
13:58:49:74994,4,-10,-6,-9,-13,2,6,-1
13:58:49:75716,8,11,12,23,10,-2,-2,-3
13:58:49:81715,18,-22,11,6,-2,-16,-16,-3
13:58:49:89296,18,-22,11,6,-2,-16,-16,-3
13:58:49:96662,7,9,-15,-21,-15,-22,16,1
13:58:49:104274,-59,-39,-8,3,-15,-19,-32,-18
13:58:49:112401,-59,-39,-8,3,-15,-19,-32,-18
13:58:49:113225,10,22,33,17,14,36,18,12
13:58:49:126898,6,34,9,5,-6,-2,14,-4
13:58:49:134911,6,34,9,5,-6,-2,14,-4
13:58:49:135656,-4,-21,-24,-12,-20,-13,-8,7
13:58:49:141744,22,5,1,4,14,11,11,9
13:58:49:149224,22,5,1,4,14,11,11,9
13:58:49:156680,0,-26,-35,27,3,-22,-11,2
13:58:49:164224,-3,3,-4,-13,15,8,-13,-3
13:58:49:172509,-3,3,-4,-13,15,8,-13,-3
13:58:49:173205,-20,-11,-4,-15,17,1,-7,-8
13:58:49:186680,-5,-7,0,13,-13,1,25,7
13:58:49:194898,-5,-7,0,13,-13,1,25,7
13:58:49:195733,1,-7,0,-7,-11,-3,2,1
13:58:49:201691,1,-10,18,-12,-7,-14,-26,1
13:58:49:209352,1,-10,18,-12,-7,-14,-26,1
13:58:49:216673,-9,-5,-46,-7,4,-34,-37,-3
13:58:49:224324,30,30,-28,6,13,29,17,1
13:58:49:232397,30,30,-28,6,13,29,17,1
13:58:49:233241,-1,2,12,-8,13,11,7,0
13:58:49:246715,-7,-10,25,-1,-12,-4,7,-5
13:58:49:255023,-7,-10,25,-1,-12,-4,7,-5
13:58:49:255729,1,11,-23,-16,-24,-3,12,-2
13:58:49:261718,-8,-26,-6,4,2,-2,-3,0
13:58:49:269305,-8,-26,-6,4,2,-2,-3,0
13:58:49:276775,7,-14,0,-4,-10,4,44,0
13:58:49:284191,-8,1,-3,2,5,21,24,-2
13:58:49:292511,-8,1,-3,2,5,21,24,-2
13:58:49:293212,-1,7,31,14,3,-7,-20,-1
13:58:49:306752,8,23,-4,-26,-26,-36,-13,-5
13:58:49:314939,8,23,-4,-26,-26,-36,-13,-5
13:58:49:315787,6,4,-21,-11,-2,14,-18,2
13:58:49:321752,-12,-11,15,2,4,-1,-10,3
13:58:49:329247,-12,-11,15,2,4,-1,-10,3
13:58:49:336749,-13,-8,12,4,-14,-27,-17,-8
13:58:49:344236,3,-21,-19,-5,-3,1,7,-10
13:58:49:352416,3,-21,-19,-5,-3,1,7,-10
13:58:49:353196,-8,-12,1,-7,-1,-11,45,-5
13:58:49:366723,2,2,-10,-5,14,3,6,2
13:58:49:374976,2,2,-10,-5,14,3,6,2
13:58:49:375719,9,8,34,-13,-2,-9,-22,2
13:58:49:381769,2,3,16,14,14,12,8,5
13:58:49:389258,2,3,16,14,14,12,8,5
13:58:49:396702,0,-13,-16,4,-2,3,-11,-2
13:58:49:404212,-2,0,-9,-8,-18,10,9,-1
13:58:49:412441,-2,0,-9,-8,-18,10,9,-1
13:58:49:413214,-3,-7,-19,6,31,32,27,-1
13:58:49:426816,6,1,3,6,-5,-27,1,-1
13:58:49:434931,6,1,3,6,-5,-27,1,-1
13:58:49:435690,-6,8,-6,-5,-20,-19,-27,-5
13:58:49:441733,-17,-14,30,7,29,14,19,0
13:58:49:449227,-17,-14,30,7,29,14,19,0
13:58:49:456701,7,-27,-31,-3,3,13,-7,1
13:58:49:464173,3,8,-1,-19,-16,-15,-38,-4
13:58:49:472507,3,8,-1,-19,-16,-15,-38,-4
13:58:49:473197,2,16,-42,-4,-9,-14,-27,-6
13:58:49:486684,9,0,1,13,3,2,-9,-6
13:58:49:494962,9,0,1,13,3,2,-9,-6
13:58:49:495768,17,-3,20,-3,-9,-8,5,6
13:58:49:501718,-20,-14,-31,4,18,5,9,-1
13:58:49:509396,-20,-14,-31,4,18,5,9,-1
13:58:49:516703,-9,10,75,5,-7,-18,-9,1
13:58:49:524291,8,-6,-53,-8,-11,-32,-27,-3
13:58:49:532419,8,-6,-53,-8,-11,-32,-27,-3
13:58:49:533221,-13,-4,-9,-3,3,63,38,2
13:58:49:546765,17,-5,22,-3,-19,-10,4,-4
13:58:49:555048,17,-5,22,-3,-19,-10,4,-4
13:58:49:555680,-31,-27,-22,-3,-5,-17,-38,-7
13:58:49:561747,-7,15,-14,-3,-15,2,-1,6
13:58:49:569295,-7,15,-14,-3,-15,2,-1,6
13:58:49:576805,-3,6,10,0,9,-3,-16,-4
13:58:49:584174,-10,-16,-3,6,5,-39,-69,-11
13:58:49:592487,-10,-16,-3,6,5,-39,-69,-11
13:58:49:593198,-14,18,-8,4,-2,4,41,2
13:58:49:606787,-1,-1,-21,-17,-15,-7,5,6
13:58:49:614942,-1,-1,-21,-17,-15,-7,5,6
13:58:49:615720,25,-4,-33,2,-4,-12,-1,-5
13:58:49:621732,-14,12,39,2,9,21,15,-7
13:58:49:629252,-14,12,39,2,9,21,15,-7
13:58:49:636766,31,15,30,13,4,2,-2,9
13:58:49:644273,-3,17,9,-7,6,11,11,2
13:58:49:652382,-3,17,9,-7,6,11,11,2
13:58:49:653219,-10,-9,38,20,17,44,19,1
13:58:49:666685,-10,-2,19,20,7,17,13,3
13:58:49:675043,-10,-2,19,20,7,17,13,3
13:58:49:675722,9,9,-45,-21,-20,-14,8,-10
13:58:49:681747,-12,-3,2,9,-3,-2,-21,-2
13:58:49:689312,-12,-3,2,9,-3,-2,-21,-2
13:58:49:696706,-8,1,16,7,1,-14,-25,-7
13:58:49:704271,17,13,9,2,-9,-1,14,10
13:58:49:712448,17,13,9,2,-9,-1,14,10
13:58:49:713246,2,-5,-27,6,8,-21,-16,-3
13:58:49:726787,11,-2,2,-7,7,14,3,-12
13:58:49:734967,11,-2,2,-7,7,14,3,-12
13:58:49:735676,8,-14,-10,-24,-5,9,2,2
13:58:49:741758,-5,-21,-22,-20,-13,-13,6,-4
13:58:49:749204,-5,-21,-22,-20,-13,-13,6,-4
13:58:49:756753,-21,-23,2,-4,-7,-8,-3,-14
13:58:49:764189,-18,3,-3,4,-22,-3,8,2
13:58:49:772484,-18,3,-3,4,-22,-3,8,2
13:58:49:773202,-7,7,10,9,24,1,-3,1
13:58:49:786690,10,10,1,-4,7,-1,0,4
13:58:49:794953,10,10,1,-4,7,-1,0,4
13:58:49:795740,3,-16,-46,-6,-20,7,15,0
13:58:49:809986,13,-2,3,27,-4,9,19,-1
13:58:49:810732,13,-2,3,27,-4,9,19,-1
13:58:49:816645,-2,13,12,-1,15,25,-12,6
13:58:49:824266,6,7,4,-8,-8,5,-26,-5
13:58:49:831754,6,7,4,-8,-8,5,-26,-5
13:58:49:839308,4,-2,18,4,11,-3,3,8
13:58:49:846694,-4,15,-16,2,6,-9,-6,5
13:58:49:855097,-4,15,-16,2,6,-9,-6,5
13:58:49:855713,-9,3,-30,-3,-10,-11,-9,-8
13:58:49:869930,18,11,-3,0,5,1,11,6
13:58:49:870740,18,11,-3,0,5,1,11,6
13:58:49:876805,-1,7,57,7,-13,-7,8,-1
13:58:49:884180,-15,-21,15,-6,-4,-3,-11,-15
13:58:49:891940,-15,-21,15,-6,-4,-3,-11,-15
13:58:49:899212,-8,4,27,10,14,4,3,3
13:58:49:906694,-5,-15,15,11,13,-3,-15,4
13:58:49:914973,-5,-15,15,11,13,-3,-15,4
13:58:49:915718,16,-1,-19,-7,-1,-5,2,-1
13:58:49:929931,-5,2,-22,-15,11,7,9,0
13:58:49:930825,-5,2,-22,-15,11,7,9,0
13:58:49:936787,4,-12,-14,-13,-21,-35,-34,5
13:58:49:944229,6,8,24,-5,17,-13,3,5
13:58:49:951810,6,8,24,-5,17,-13,3,5
13:58:49:959312,-18,-13,18,8,-4,13,12,-1
13:58:49:966672,-6,21,-23,2,-3,-7,6,-5
13:58:49:974946,-6,21,-23,2,-3,-7,6,-5
13:58:49:975701,-14,19,-33,-5,-16,-15,5,-7
13:58:49:989861,-13,-40,-47,-26,1,13,-9,-7
13:58:49:990701,-13,-40,-47,-26,1,13,-9,-7
13:58:49:996753,11,8,40,2,22,-16,-13,0
13:58:50:4312,6,9,11,-2,-11,16,12,-3
13:58:50:11743,6,9,11,-2,-11,16,12,-3
13:58:50:19220,6,-14,-26,-6,-2,28,19,4
13:58:50:26828,5,-27,-13,15,-6,-5,12,11
13:58:50:34904,5,-27,-13,15,-6,-5,12,11
13:58:50:35690,2,11,28,16,-4,-7,-5,0
13:58:50:49851,-4,47,44,1,5,17,8,3
13:58:50:50697,-4,47,44,1,5,17,8,3
13:58:50:56737,-18,-30,-23,-5,-19,-14,-14,-12
13:58:50:64237,-26,-10,5,-6,-6,-12,-11,0
13:58:50:71789,-26,-10,5,-6,-6,-12,-11,0
13:58:50:79200,1,12,-15,-13,1,-13,-40,4
13:58:50:86714,-6,-21,-28,12,12,4,-5,-6
13:58:50:94947,-6,-21,-28,12,12,4,-5,-6
13:58:50:95746,14,-7,-32,4,-3,-12,-5,-2
13:58:50:109986,-8,-5,27,15,-4,-9,-4,-2
13:58:50:110693,-8,-5,27,15,-4,-9,-4,-2
13:58:50:116669,-1,2,4,2,8,-4,5,4
13:58:50:124288,-10,-22,-24,-28,-15,-12,-2,-1
13:58:50:131763,-10,-22,-24,-28,-15,-12,-2,-1
13:58:50:139313,15,12,16,30,0,-4,-2,2
13:58:50:146744,-4,-17,-4,-9,-1,1,1,-3
13:58:50:155066,-4,-17,-4,-9,-1,1,1,-3
13:58:50:155759,2,19,-13,-22,-11,51,39,0
13:58:50:169967,16,0,2,6,-1,13,7,0
13:58:50:170719,16,0,2,6,-1,13,7,0
13:58:50:176798,-19,-38,-4,-8,-1,2,16,1
13:58:50:184178,-2,-2,2,1,-5,-14,-23,-6
13:58:50:191945,-2,-2,2,1,-5,-14,-23,-6
13:58:50:199190,11,-4,8,-9,10,26,28,8
13:58:50:206805,21,9,13,8,5,4,4,-4
13:58:50:214940,21,9,13,8,5,4,4,-4
13:58:50:215652,-7,-9,15,8,-14,-38,-25,-10
13:58:50:229890,7,8,-32,4,10,-6,6,4
13:58:50:230733,7,8,-32,4,10,-6,6,4
13:58:50:236768,2,0,10,-5,-1,10,18,-9
13:58:50:244248,-12,-16,6,8,4,2,-20,-9
13:58:50:251716,-12,-16,6,8,4,2,-20,-9
13:58:50:259264,9,5,0,-14,-12,-9,-10,1
13:58:50:266663,4,11,4,-20,-9,4,14,4
13:58:50:275003,4,11,4,-20,-9,4,14,4
13:58:50:275665,4,15,0,3,17,-7,-8,4
13:58:50:289905,-35,18,-14,-5,6,16,0,-8
13:58:50:290680,-35,18,-14,-5,6,16,0,-8
13:58:50:296748,2,-1,-1,1,-3,17,-6,-6
13:58:50:304322,8,22,14,-11,-11,-14,19,2
13:58:50:311792,8,22,14,-11,-11,-14,19,2
13:58:50:319201,-12,3,13,-7,-7,-8,9,7
13:58:50:326801,12,-11,11,-18,2,14,-15,10
13:58:50:334918,12,-11,11,-18,2,14,-15,10
13:58:50:335690,-5,-2,-4,4,-6,-5,-12,1
13:58:50:349878,21,26,-19,23,-8,-13,0,-1
13:58:50:350711,21,26,-19,23,-8,-13,0,-1
13:58:50:356693,-6,16,-12,-2,14,-7,-8,-3
13:58:50:364202,-2,-12,-11,-8,3,19,3,3
13:58:50:371791,-2,-12,-11,-8,3,19,3,3
13:58:50:379208,-5,-2,0,-5,-8,8,12,-6
13:58:50:386725,-4,7,4,20,-9,-26,-15,-7
13:58:50:394959,-4,7,4,20,-9,-26,-15,-7
13:58:50:395764,0,2,-36,-9,5,-4,-10,-1
13:58:50:409955,4,1,10,18,12,7,1,1
13:58:50:410687,4,1,10,18,12,7,1,1
13:58:50:416676,-12,8,24,7,9,16,5,-1
13:58:50:424279,-1,6,26,-12,2,-44,-49,3
13:58:50:431802,-1,6,26,-12,2,-44,-49,3
13:58:50:439242,18,-20,33,-4,-14,-12,-7,-2
13:58:50:446770,18,8,15,2,-9,-28,-6,-5
13:58:50:455016,18,8,15,2,-9,-28,-6,-5
13:58:50:455732,-25,6,-32,-8,2,-11,-5,-2
13:58:50:469926,-6,-8,-14,-12,-15,35,15,-8
13:58:50:470748,-6,-8,-14,-12,-15,35,15,-8
13:58:50:476766,-4,5,-2,11,-2,17,16,-3
13:58:50:484179,-11,-15,11,-3,6,6,19,2
13:58:50:491866,-11,-15,11,-3,6,6,19,2
13:58:50:499172,19,-19,-33,-27,1,-5,-4,5
13:58:50:506806,-5,-7,-19,-10,0,6,2,-8
13:58:50:514910,-5,-7,-19,-10,0,6,2,-8
13:58:50:515667,-7,1,-5,4,-9,-6,8,1
13:58:50:529958,-7,-24,-7,10,0,4,15,-1
13:58:50:530735,-7,-24,-7,10,0,4,15,-1
13:58:50:536788,4,0,27,18,5,2,-16,-9
13:58:50:544285,-5,-12,-4,5,-17,-18,-17,2
13:58:50:551783,-5,-12,-4,5,-17,-18,-17,2
13:58:50:559331,-2,-10,-7,9,9,10,-8,3
13:58:50:566734,-11,-15,-17,-5,-20,-17,-10,-9
13:58:50:574973,-11,-15,-17,-5,-20,-17,-10,-9
13:58:50:575672,21,9,-6,15,19,-6,26,9
13:58:50:589892,18,17,-39,11,24,-5,-5,10
13:58:50:590641,18,17,-39,11,24,-5,-5,10
13:58:50:596747,-16,-29,15,-9,-14,-21,-21,-16
13:58:50:604259,-34,-7,30,-14,-10,15,5,-5
13:58:50:611753,-34,-7,30,-14,-10,15,5,-5
13:58:50:619190,5,42,14,-14,3,-8,16,-2
13:58:50:626727,19,2,6,-3,-24,4,-16,-1
13:58:50:634897,19,2,6,-3,-24,4,-16,-1
13:58:50:635663,2,-44,-14,-10,-7,-16,-24,2
13:58:50:649881,-8,7,4,11,11,16,8,-3
13:58:50:650677,-8,7,4,11,11,16,8,-3
13:58:50:656713,-45,-24,-12,17,-4,6,-11,-8
13:58:50:664212,3,-17,-24,-5,10,-4,6,-2
13:58:50:671812,3,-17,-24,-5,10,-4,6,-2
13:58:50:679220,18,6,-8,9,6,-1,1,5
13:58:50:686747,-21,-6,4,-14,9,15,3,0
13:58:50:694923,-21,-6,4,-14,9,15,3,0
13:58:50:695744,8,33,-26,-19,-14,-5,1,6
13:58:50:709960,3,-10,-10,-2,6,20,45,-18
13:58:50:710770,3,-10,-10,-2,6,20,45,-18
13:58:50:716651,1,5,49,-6,2,3,17,5
13:58:50:732382,0,17,2,-11,-14,-50,-33,0
13:58:50:733183,0,17,2,-11,-14,-50,-33,0
13:58:50:739212,12,-5,-8,8,9,18,11,-6
13:58:50:746714,15,5,-30,-12,12,5,-5,8
13:58:50:754335,15,5,-30,-12,12,5,-5,8
13:58:50:761732,-14,-8,-25,-3,7,0,-39,-1
13:58:50:769954,6,48,18,-1,-12,0,7,3
13:58:50:770705,6,48,18,-1,-12,0,7,3
13:58:50:776739,4,26,27,2,3,-5,4,3
13:58:50:792445,17,-14,-2,10,-4,18,-15,3
13:58:50:793202,17,-14,-2,10,-4,18,-15,3
13:58:50:799143,-9,-8,21,22,-7,-6,-9,-7
13:58:50:806716,-8,-2,32,-15,-11,-5,-7,-1
13:58:50:814286,-8,-2,32,-15,-11,-5,-7,-1
13:58:50:821764,-22,-2,-13,15,13,13,17,-4
13:58:50:829936,0,5,-17,-6,15,-15,-14,6
13:58:50:830735,0,5,-17,-6,15,-15,-14,6
13:58:50:836795,-13,-13,-12,-11,-14,21,16,-10
13:58:50:852454,14,-1,12,2,-14,42,62,11
13:58:50:853239,14,-1,12,2,-14,42,62,11
13:58:50:859343,29,-7,-17,-3,11,-14,-2,13
13:58:50:866700,-6,-10,-25,-24,-6,-17,-26,-3
13:58:50:874390,-6,-10,-25,-24,-6,-17,-26,-3
13:58:50:881713,14,14,18,-3,-8,8,1,9
13:58:50:889906,-3,2,-25,5,16,0,-2,1
13:58:50:890729,-3,2,-25,5,16,0,-2,1
13:58:50:896759,-19,16,-4,-18,2,-12,-10,-8
13:58:50:912387,1,-19,-8,9,-13,-31,-51,-11
13:58:50:913180,1,-19,-8,9,-13,-31,-51,-11
13:58:50:919277,10,-4,17,-6,-13,-8,-9,3
13:58:50:926802,20,-5,19,21,12,26,18,2
13:58:50:934209,20,-5,19,21,12,26,18,2
13:58:50:941767,15,13,0,12,4,6,-1,7
13:58:50:950074,11,-10,-17,0,4,-17,-36,-3
13:58:50:950673,11,-10,-17,0,4,-17,-36,-3
13:58:50:956718,-3,0,9,34,16,8,11,0
13:58:50:972370,-40,7,18,-1,-3,-1,22,-8
13:58:50:973176,-40,7,18,-1,-3,-1,22,-8
13:58:50:979255,2,10,-21,-29,-21,-17,-12,-3
13:58:50:986742,-7,-10,-5,7,19,37,70,-4
13:58:50:994281,-7,-10,-5,7,19,37,70,-4
13:58:51:1652,5,17,-26,-14,-2,15,17,0
13:58:51:9982,-18,7,22,0,-15,-14,-14,-4
13:58:51:10682,-18,7,22,0,-15,-14,-14,-4
13:58:51:16634,7,-14,9,16,0,-15,-18,-5
13:58:51:32374,-17,9,-8,-4,-3,-22,-23,-9
13:58:51:33157,-17,9,-8,-4,-3,-22,-23,-9
13:58:51:39201,-3,-46,-20,-12,-8,19,13,2
13:58:51:46688,5,10,7,0,6,1,3,2
13:58:51:54331,5,10,7,0,6,1,3,2
13:58:51:61701,-5,5,1,-3,-12,-21,-7,-8
13:58:51:69940,8,-18,-21,-15,-1,8,-7,3
13:58:51:70709,8,-18,-21,-15,-1,8,-7,3
13:58:51:76761,-28,-8,10,-13,-4,-4,0,-7
13:58:51:92513,-3,1,47,5,-18,-5,-12,6
13:58:51:93208,-3,1,47,5,-18,-5,-12,6
13:58:51:99182,16,-6,16,10,-2,-7,-3,-1
13:58:51:106763,17,5,-23,-8,-6,32,17,5
13:58:51:114285,17,5,-23,-8,-6,32,17,5
13:58:51:121791,-5,-4,-11,-6,1,14,-7,0
13:58:51:129971,-3,-20,12,2,7,-39,-28,-6
13:58:51:130769,-3,-20,12,2,7,-39,-28,-6
13:58:51:136802,-20,11,-16,-15,38,5,-3,3
13:58:51:152455,-20,8,15,4,1,21,-2,-10
13:58:51:153246,-20,8,15,4,1,21,-2,-10
13:58:51:159273,10,0,-13,-9,-16,5,34,4
13:58:51:166710,16,-14,-21,-3,-9,-23,1,-1
13:58:51:174371,16,-14,-21,-3,-9,-23,1,-1
13:58:51:181670,-7,-20,-6,-1,-20,-23,-25,-2
13:58:51:189886,10,53,19,15,-3,8,7,-5
13:58:51:190681,10,53,19,15,-3,8,7,-5
13:58:51:196745,-2,6,-14,-2,9,6,17,0
13:58:51:212423,-9,-18,-20,-10,6,-2,-5,0
13:58:51:213174,-9,-18,-20,-10,6,-2,-5,0
13:58:51:219252,2,17,18,-23,-7,-16,-10,2
13:58:51:226766,-6,-17,-35,0,-5,-24,-5,0
13:58:51:234209,-6,-17,-35,0,-5,-24,-5,0
13:58:51:241777,21,1,-18,12,12,88,70,4
13:58:51:249860,7,23,18,0,-4,-21,-11,0
13:58:51:250684,7,23,18,0,-4,-21,-11,0
13:58:51:256747,-9,2,-8,7,-11,-25,-31,-4
13:58:51:272477,-22,-33,-2,17,15,3,-8,2
13:58:51:273169,-22,-33,-2,17,15,3,-8,2
13:58:51:279233,-1,-17,35,15,8,-5,0,-5
13:58:51:286749,0,-11,-23,-4,9,-22,-22,0
13:58:51:294318,0,-11,-23,-4,9,-22,-22,0
13:58:51:301701,15,2,3,-14,-14,-10,-11,-6
13:58:51:309944,15,18,10,-11,-6,-1,10,-4
13:58:51:310678,15,18,10,-11,-6,-1,10,-4
13:58:51:316665,0,0,8,8,5,-23,-16,-1
13:58:51:332378,2,-29,-33,-3,13,13,7,3
13:58:51:333172,2,-29,-33,-3,13,13,7,3
13:58:51:347404,-5,1,-5,-8,-7,-8,-23,2
13:58:51:348180,-8,-3,32,2,-21,13,18,-3
13:58:51:354272,-8,-3,32,2,-21,13,18,-3
13:58:51:361684,-14,-7,1,15,9,11,-2,-7
13:58:51:369917,-4,74,8,19,1,-3,8,1
13:58:51:370698,-4,74,8,19,1,-3,8,1
13:58:51:376760,8,0,13,-4,-13,-16,-20,6
13:58:51:392461,-2,-11,1,4,-8,15,-5,2
13:58:51:393186,-2,-11,1,4,-8,15,-5,2
13:58:51:399141,-27,13,-22,8,2,-1,-17,-9
13:58:51:406906,-3,-17,2,-12,5,15,14,7
13:58:51:414258,-3,-17,2,-12,5,15,14,7
13:58:51:421771,-2,-22,0,8,18,0,8,-2
13:58:51:429920,-7,-7,-5,0,-5,-2,2,-8
13:58:51:430726,-7,-7,-5,0,-5,-2,2,-8
13:58:51:436763,7,13,9,0,-4,-5,3,1
13:58:51:452411,7,-36,31,-16,-12,-16,-13,-2
13:58:51:453204,7,-36,31,-16,-12,-16,-13,-2
13:58:51:459293,-21,-35,1,-11,-6,-4,22,-5
13:58:51:466685,7,-25,8,-1,11,-8,-14,2
13:58:51:474336,7,-25,8,-1,11,-8,-14,2
13:58:51:481682,-5,20,21,13,8,49,32,6
13:58:51:489918,0,2,26,12,19,28,30,-1
13:58:51:490697,0,2,26,12,19,28,30,-1
13:58:51:504298,9,24,10,-8,-7,-31,-15,-5
13:58:51:512401,20,32,22,-14,-9,-11,1,5
13:58:51:513181,20,32,22,-14,-9,-11,1,5
13:58:51:519206,-23,-37,-39,17,-10,-26,-38,-8
13:58:51:526768,-10,9,-26,4,-10,-41,-28,-1
13:58:51:534253,-10,9,-26,4,-10,-41,-28,-1
13:58:51:541758,-14,-2,20,-3,14,-2,-11,-5
13:58:51:549835,4,-3,-37,-20,1,-16,-5,-16
13:58:51:550681,4,-3,-37,-20,1,-16,-5,-16
13:58:51:556792,8,6,-21,-1,-16,-18,-16,-2
13:58:51:572459,2,24,12,-1,-2,-7,7,9
13:58:51:573213,2,24,12,-1,-2,-7,7,9
13:58:51:579237,18,-9,12,-3,17,1,35,7
13:58:51:586721,0,-16,7,-5,-1,-2,1,-3
13:58:51:594235,0,-16,7,-5,-1,-2,1,-3
13:58:51:601706,20,12,-18,-11,-24,0,0,3
13:58:51:610011,1,-26,2,24,19,-6,8,8
13:58:51:610647,1,-26,2,24,19,-6,8,8
13:58:51:624340,6,10,-8,-3,23,32,42,-3
13:58:51:632363,-9,-9,-24,-7,-17,5,-13,-8
13:58:51:633177,-9,-9,-24,-7,-17,5,-13,-8
13:58:51:639304,5,-3,-9,-1,0,4,-16,2
13:58:51:646765,-20,-10,36,-11,-13,-15,-9,-3
13:58:51:654348,-20,-10,36,-11,-13,-15,-9,-3
13:58:51:661724,-1,-5,26,-3,-10,4,-7,3
13:58:51:669981,-29,-9,17,5,14,-3,2,-13
13:58:51:670748,-29,-9,17,5,14,-3,2,-13
13:58:51:684211,-10,33,2,-11,-8,6,10,-4
13:58:51:692441,9,-12,-29,-7,-12,56,54,6
13:58:51:693205,9,-12,-29,-7,-12,56,54,6
13:58:51:699134,-11,-22,-10,8,1,-9,-2,-2
13:58:51:714875,20,9,-35,-3,12,-5,-9,4
13:58:51:715662,20,9,-35,-3,12,-5,-9,4
13:58:51:721790,17,-10,1,-18,-5,-20,-22,6
13:58:51:729928,-5,-5,-6,-13,-6,26,-6,-10
13:58:51:730744,-5,-5,-6,-13,-6,26,-6,-10
13:58:51:744241,4,29,2,14,-13,-13,-23,4
13:58:51:752424,4,29,2,14,-13,-13,-23,4
13:58:51:753175,-7,16,-35,4,-2,-7,-9,-2
13:58:51:759313,-10,2,3,-16,14,18,-6,-5
13:58:51:783040,-10,2,3,-16,14,18,-6,-5
13:58:51:783870,-2,-4,20,-9,-12,7,9,6
13:58:51:784665,5,-6,18,9,3,-7,-19,-2
13:58:51:789986,5,-6,18,9,3,-7,-19,-2
13:58:51:790765,-3,-5,-3,2,-4,-11,-3,2
13:58:51:804317,-1,-3,16,17,2,18,22,-6
13:58:51:812457,-1,-3,16,17,2,18,22,-6
13:58:51:813237,11,13,22,29,-1,10,-18,-5
13:58:51:819232,-14,0,-19,-9,-6,13,20,-3
13:58:51:834941,-14,0,-19,-9,-6,13,20,-3
13:58:51:835729,7,15,31,1,0,-15,1,-1
13:58:51:841794,6,1,3,-13,-8,-13,-13,1
13:58:51:849896,6,1,3,-13,-8,-13,-13,1
13:58:51:850687,-11,-18,-27,-4,-11,-7,-6,1
13:58:51:864185,-11,-8,14,-8,-12,9,11,2
13:58:51:872516,-11,-8,14,-8,-12,9,11,2
13:58:51:873194,-40,10,-40,4,2,-2,-3,-8
13:58:51:879203,13,5,-5,14,19,13,13,14
13:58:51:903081,13,5,-5,14,19,13,13,14
13:58:51:903924,7,-13,18,0,19,15,6,2
13:58:51:904670,-13,20,-18,-19,-18,-30,-8,-2
13:58:51:909952,-13,20,-18,-19,-18,-30,-8,-2
13:58:51:910709,-8,-3,-15,-5,-1,-13,-4,-2
13:58:51:924334,16,-10,-28,-4,0,-21,-19,0
13:58:51:932388,16,-10,-28,-4,0,-21,-19,0
13:58:51:933152,21,-11,6,-7,-25,-2,-5,5
13:58:51:939249,7,-16,-9,14,26,10,3,-5
13:58:51:955023,7,-16,-9,14,26,10,3,-5
13:58:51:955740,-2,-16,9,-6,23,11,4,1
13:58:51:961756,-39,-16,-7,-21,-17,-17,-5,-6
13:58:51:969926,-39,-16,-7,-21,-17,-17,-5,-6
13:58:51:970713,-15,-5,-15,1,1,-21,-22,0
13:58:51:984219,0,-28,-13,-1,-9,-11,-4,-14
13:58:51:992540,0,-28,-13,-1,-9,-11,-4,-14
13:58:51:993143,9,26,-18,-1,-17,15,12,-1
13:58:51:999192,1,4,-5,-4,15,4,-10,-1
13:58:52:14947,1,4,-5,-4,15,4,-10,-1
13:58:52:15717,23,-5,-9,-11,1,-9,-22,-9
13:58:52:21775,4,36,41,2,-19,2,8,1
13:58:52:29899,4,36,41,2,-19,2,8,1
13:58:52:30689,-22,20,13,5,9,-7,-3,-11
13:58:52:44228,5,-29,-66,-2,-3,-2,-12,-10
13:58:52:60585,5,-29,-66,-2,-3,-2,-12,-10
13:58:52:61406,11,-2,23,-1,-7,-16,-8,9
13:58:52:62216,-25,-13,-13,-2,2,2,1,-9
13:58:52:74977,-25,-13,-13,-2,2,2,1,-9
13:58:52:75717,5,-8,-8,24,-4,11,7,8
13:58:52:81688,-19,4,-22,27,25,-3,-7,-2
13:58:52:90023,-19,4,-22,27,25,-3,-7,-2
13:58:52:90702,-12,18,66,-8,22,0,2,-1
13:58:52:104237,24,-12,17,7,-11,-21,-7,5
13:58:52:112448,24,-12,17,7,-11,-21,-7,5
13:58:52:113198,-1,-9,-2,-6,-10,3,-10,-7
13:58:52:119164,-3,-2,9,-22,-15,14,22,6
13:58:52:134908,-3,-2,9,-22,-15,14,22,6
13:58:52:135709,3,-18,-8,3,9,4,1,-1
13:58:52:141733,-8,-19,25,-8,-14,3,-2,-5
13:58:52:149926,-8,-19,25,-8,-14,3,-2,-5
13:58:52:150695,4,40,35,-13,6,0,8,6
13:58:52:164197,-22,-4,-13,0,16,10,1,-11
13:58:52:172468,-22,-4,-13,0,16,10,1,-11
13:58:52:173230,-1,-8,-20,-13,-5,25,11,-5
13:58:52:179183,17,-22,12,-21,-28,-13,11,9
13:58:52:194918,17,-22,12,-21,-28,-13,11,9
13:58:52:195700,5,0,-17,3,3,-25,-10,-4
13:58:52:201657,-12,-8,3,9,9,16,11,2
13:58:52:210009,-12,-8,3,9,9,16,11,2
13:58:52:210726,4,-23,-50,-10,4,-8,-6,-4
13:58:52:224297,11,4,6,-10,-9,-12,-22,1
13:58:52:232391,11,4,6,-10,-9,-12,-22,1
13:58:52:233169,-18,-2,4,13,-2,-7,-7,-2
13:58:52:239214,10,22,11,-14,-17,-12,-47,-14
13:58:52:263098,10,22,11,-14,-17,-12,-47,-14
13:58:52:263914,7,6,-4,-6,-12,-4,4,-2
13:58:52:264679,-1,16,14,-4,-6,-9,12,6
13:58:52:269947,-1,16,14,-4,-6,-9,12,6
13:58:52:270732,7,-18,20,3,-11,17,-22,-4
13:58:52:284190,21,30,-4,12,7,7,1,4
13:58:52:292473,21,30,-4,12,7,7,1,4
13:58:52:293218,6,7,-24,6,1,-1,20,6
13:58:52:299170,-10,-17,-3,-11,1,0,-5,-6
13:58:52:314919,-10,-17,-3,-11,1,0,-5,-6
13:58:52:315731,-32,5,-1,-1,3,-8,-4,-4
13:58:52:321759,31,-5,-7,-5,9,0,-4,9
13:58:52:330645,31,-5,-7,-5,9,0,-4,9
13:58:52:331405,-21,-2,4,18,6,15,11,1
13:58:52:344210,19,-4,-5,-6,5,4,11,7
13:58:52:352413,19,-4,-5,-6,5,4,11,7
13:58:52:353197,0,0,-1,-12,-14,-3,9,1
13:58:52:359248,-12,19,25,15,12,-8,1,1
13:58:52:374999,-12,19,25,15,12,-8,1,1
13:58:52:375689,-4,5,-25,25,17,8,13,-2
13:58:52:381658,23,-6,-11,11,-5,15,16,-1
13:58:52:389960,23,-6,-11,11,-5,15,16,-1
13:58:52:390698,29,20,23,-14,1,-4,13,1
13:58:52:404230,19,12,-16,-2,-25,-23,-29,-8
13:58:52:412461,19,12,-16,-2,-25,-23,-29,-8
13:58:52:413224,0,-6,21,1,-10,-15,-14,-2
13:58:52:419203,1,-2,16,-4,8,8,11,6
13:58:52:434950,1,-2,16,-4,8,8,11,6
13:58:52:435684,4,-2,-8,0,7,-3,-9,-2
13:58:52:441748,6,-19,16,11,1,21,5,0
13:58:52:450326,6,-19,16,11,1,21,5,0
