Time,EMG1,EMG2,EMG3,EMG4,EMG5,EMG6,EMG7,EMG8
13:59:13:865917,3,9,2,-14,-5,-1,-15,-6
13:59:13:866724,4,5,-9,13,1,2,5,5
13:59:13:880972,2,-2,-2,-2,0,-6,8,-4
13:59:13:881768,2,-2,-2,-2,0,-6,8,-4
13:59:13:887861,-3,-2,1,-1,-1,-4,-6,-1
13:59:13:895261,-4,-2,1,-19,-6,1,3,5
13:59:13:910989,-4,-2,1,-19,-6,1,3,5
13:59:13:911764,0,1,3,9,5,6,-14,-3
13:59:13:917674,-2,-9,-1,-5,2,-3,-9,-7
13:59:13:926045,-2,-9,-1,-5,2,-3,-9,-7
13:59:13:926739,-3,-3,-8,0,-3,-10,10,1
13:59:13:940222,-7,-7,-5,-3,-2,-4,-9,-3
13:59:13:948436,-7,-7,-5,-3,-2,-4,-9,-3
13:59:13:949229,-3,-9,-9,9,-4,-4,1,-2
13:59:13:955299,2,5,8,7,-3,-1,16,5
13:59:13:962782,2,5,8,7,-3,-1,16,5
13:59:13:970326,2,3,5,0,3,2,0,-1
13:59:13:977783,2,10,0,15,5,9,9,1
13:59:13:993613,2,10,0,15,5,9,9,1
13:59:13:994298,-4,-7,-8,-19,-5,-6,1,0
13:59:14:885,-1,-5,-3,-5,1,-4,-9,-4
13:59:14:1668,-1,-5,-3,-5,1,-4,-9,-4
13:59:14:7827,1,5,9,5,1,2,-4,-5
13:59:14:15261,0,4,17,-4,-2,5,-3,2
13:59:14:22819,0,4,17,-4,-2,5,-3,2
13:59:14:30283,-3,4,1,-7,0,2,9,4
13:59:14:37868,0,-1,-7,5,6,-5,0,2
13:59:14:45973,0,-1,-7,5,6,-5,0,2
13:59:14:46747,-1,6,14,11,-2,-6,-13,-3
13:59:14:60944,2,-6,-13,6,6,1,2,-1
13:59:14:61757,2,-6,-13,6,6,1,2,-1
13:59:14:75954,3,-3,7,-9,-8,-2,1,-7
13:59:14:76685,-8,-7,-15,-12,-11,1,-5,1
13:59:14:82710,-8,-7,-15,-12,-11,1,-5,1
13:59:14:90248,-5,-6,-9,-3,-1,1,15,-6
13:59:14:97752,1,6,7,17,-10,-5,-8,-1
13:59:14:106025,1,6,7,17,-10,-5,-8,-1
13:59:14:106707,6,4,-8,-17,-10,-1,-1,4
13:59:14:121019,-3,-4,-4,2,10,2,1,-1
13:59:14:121695,-3,-4,-4,2,10,2,1,-1
13:59:14:127762,-2,-5,2,1,-1,3,-4,-2
13:59:14:135213,-5,-4,-2,-10,-6,-2,4,-7
13:59:14:142830,-5,-4,-2,-10,-6,-2,4,-7
13:59:14:150156,4,2,-3,-17,4,-4,11,6
13:59:14:157789,1,3,-2,-5,8,-1,2,-2
13:59:14:165902,1,3,-2,-5,8,-1,2,-2
13:59:14:166703,-1,2,-8,0,-2,4,-7,1
13:59:14:180954,-8,-11,-7,18,-3,-9,-2,-2
13:59:14:181726,-8,-11,-7,18,-3,-9,-2,-2
13:59:14:187767,-5,-3,-9,-7,-7,-1,5,0
13:59:14:195202,-1,5,-10,-35,-2,3,-10,-3
13:59:14:202778,-1,5,-10,-35,-2,3,-10,-3
13:59:14:210286,-2,-16,-4,-1,6,-1,4,1
13:59:14:217667,0,-2,0,-7,-6,-4,-2,4
13:59:14:226038,0,-2,0,-7,-6,-4,-2,4
13:59:14:226736,-2,5,3,18,-7,1,-2,-6
13:59:14:240994,1,8,6,-3,1,-4,2,1
13:59:14:241745,1,8,6,-3,1,-4,2,1
13:59:14:247694,-1,-4,-2,2,12,-4,0,1
13:59:14:255266,1,-1,-7,3,-7,-2,-3,-1
13:59:14:271034,1,-1,-7,3,-7,-2,-3,-1
13:59:14:271728,-3,2,-2,-5,-12,-5,4,-7
13:59:14:277710,-4,-8,2,-8,1,1,1,-3
13:59:14:285958,-4,-8,2,-8,1,1,1,-3
13:59:14:286698,3,1,-2,-4,5,2,-8,-1
13:59:14:300912,3,-4,-3,-30,-15,-4,-4,0
13:59:14:301702,3,-4,-3,-30,-15,-4,-4,0
13:59:14:307846,-4,2,1,16,9,6,-3,4
13:59:14:315236,1,9,11,2,2,-4,-19,-8
13:59:14:322824,1,9,11,2,2,-4,-19,-8
13:59:14:330258,1,-2,-8,-4,-7,3,7,3
13:59:14:337884,0,-9,-16,-5,-1,4,4,3
13:59:14:353444,0,-9,-16,-5,-1,4,4,3
13:59:14:354273,-2,4,2,2,7,-3,3,-2
13:59:14:361007,-2,-8,-5,5,-2,0,3,0
13:59:14:361736,-2,-8,-5,5,-2,0,3,0
13:59:14:367674,-3,3,-5,-7,1,-5,-7,2
13:59:14:375290,-3,1,5,15,2,-1,4,0
13:59:14:382765,-3,1,5,15,2,-1,4,0
13:59:14:390242,1,0,6,-7,-8,-3,-4,-3
13:59:14:397733,2,-2,0,7,-1,4,4,2
13:59:14:406037,2,-2,0,7,-1,4,4,2
13:59:14:406738,1,5,14,5,-2,-6,-4,-3
13:59:14:420967,-3,4,3,17,5,2,14,-3
13:59:14:421750,-3,4,3,17,5,2,14,-3
13:59:14:427837,-3,-2,-10,0,-5,-4,-15,-3
13:59:14:435204,-1,-1,7,-15,-5,4,-3,-4
13:59:14:442959,-1,-1,7,-15,-5,4,-3,-4
13:59:14:450262,1,-5,-2,-3,6,7,-5,-2
13:59:14:457776,1,4,4,10,2,-3,-1,-3
13:59:14:465928,1,4,4,10,2,-3,-1,-3
13:59:14:466690,-2,-7,-2,6,1,-7,-4,-3
13:59:14:480921,2,5,0,-1,3,-2,-5,4
13:59:14:481691,2,5,0,-1,3,-2,-5,4
13:59:14:487803,-4,-12,-12,8,-1,1,-15,-6
13:59:14:495287,-4,-5,4,8,1,4,-5,-1
13:59:14:502777,-4,-5,4,8,1,4,-5,-1
13:59:14:510266,0,4,7,-6,-12,-6,7,-2
13:59:14:517740,-4,-9,-10,-2,6,-2,6,-1
13:59:14:525988,-4,-9,-10,-2,6,-2,6,-1
13:59:14:526702,-6,-5,-10,-18,1,0,0,-2
13:59:14:549150,1,2,-5,-5,-4,-5,-9,-3
13:59:14:549909,1,2,-5,-5,-4,-5,-9,-3
13:59:14:550689,3,-1,5,8,2,2,10,3
13:59:14:555304,-1,3,1,7,9,0,-14,-3
13:59:14:562747,-1,3,1,7,9,0,-14,-3
13:59:14:570237,-10,-7,-11,-8,-7,-6,-4,0
13:59:14:577768,6,11,3,-10,-10,6,15,1
13:59:14:585932,6,11,3,-10,-10,6,15,1
13:59:14:586678,-3,-3,0,-8,1,2,-4,-5
13:59:14:600875,0,8,1,-4,1,-4,1,2
13:59:14:601695,0,8,1,-4,1,-4,1,2
13:59:14:607793,0,-5,6,1,-2,-8,5,1
13:59:14:615257,-2,-10,-2,5,5,4,6,-2
13:59:14:630971,-2,-10,-2,5,5,4,6,-2
13:59:14:631784,2,7,4,-2,0,-1,1,2
13:59:14:637853,2,6,8,10,-4,-8,4,-2
13:59:14:645962,2,6,8,10,-4,-8,4,-2
13:59:14:646728,-2,-7,-3,-3,1,1,-10,-3
13:59:14:660975,-1,-2,-8,4,5,3,-3,-1
13:59:14:661775,-1,-2,-8,4,5,3,-3,-1
13:59:14:667704,3,3,3,-5,-2,1,-7,-3
13:59:14:675296,-1,-10,-8,-4,-4,-1,-2,5
13:59:14:682714,-1,-10,-8,-4,-4,-1,-2,5
13:59:14:690292,-1,-2,-3,-6,0,3,13,4
13:59:14:697760,-6,5,3,-5,-8,-8,-25,-12
13:59:14:705986,-6,5,3,-5,-8,-8,-25,-12
13:59:14:706703,1,1,5,14,3,4,2,0
13:59:14:721040,-5,-8,-5,-3,5,-5,9,4
13:59:14:721713,-5,-8,-5,-3,5,-5,9,4
13:59:14:727769,-1,1,-4,-1,-7,-7,-13,-3
13:59:14:735225,0,-1,0,10,-4,6,-11,-1
13:59:14:742895,0,-1,0,10,-4,6,-11,-1
13:59:14:750175,0,-1,-3,-18,-8,-4,-1,-5
13:59:14:757763,-3,-10,1,-6,0,-4,1,0
13:59:14:765930,-3,-10,1,-6,0,-4,1,0
13:59:14:766716,-6,-15,-9,3,0,1,12,6
13:59:14:780889,2,4,-1,-2,6,2,-2,1
13:59:14:781706,2,4,-1,-2,6,2,-2,1
13:59:14:787810,-2,0,-2,3,-1,-2,-16,-2
13:59:14:795206,0,10,6,3,-6,-5,3,-5
13:59:14:802752,0,10,6,3,-6,-5,3,-5
13:59:14:810252,1,-2,-3,1,-4,2,9,5
13:59:14:817702,1,4,-2,2,-3,-6,-20,-3
13:59:14:825323,1,4,-2,2,-3,-6,-20,-3
13:59:14:832698,0,-3,9,3,0,3,-2,-6
13:59:14:841004,-5,-10,-7,-1,3,1,2,-2
13:59:14:841759,-5,-10,-7,-1,3,1,2,-2
13:59:14:847750,-3,-5,-9,-2,3,-6,-8,-5
13:59:14:863448,-1,-1,-7,-16,-5,-3,-2,1
13:59:14:864267,-1,-1,-7,-16,-5,-3,-2,1
13:59:14:870242,3,7,-3,-2,-1,1,4,2
13:59:14:877789,-6,-3,-1,11,-6,1,-8,-2
13:59:14:885272,-6,-3,-1,11,-6,1,-8,-2
13:59:14:892858,0,-1,10,13,-1,-6,1,-3
13:59:14:900868,2,-10,4,-10,-3,-4,11,-1
13:59:14:901690,2,-10,4,-10,-3,-4,11,-1
13:59:14:907847,-7,0,0,-4,-4,2,-3,0
13:59:14:923553,-3,2,9,-13,-1,0,-6,-3
13:59:14:924252,-3,2,9,-13,-1,0,-6,-3
13:59:14:930263,2,5,-2,-8,-1,-3,-1,-1
13:59:14:937764,-3,-5,-9,1,0,-2,6,-4
13:59:14:945301,-3,-5,-9,1,0,-2,6,-4
13:59:14:952737,-2,-2,4,3,1,1,3,0
13:59:14:960954,-1,3,-4,-3,4,-3,-2,-1
13:59:14:961723,-1,3,-4,-3,4,-3,-2,-1
13:59:14:967666,-3,-7,-6,-2,-6,4,-1,-2
13:59:14:983380,0,-10,-5,-1,2,4,-5,0
13:59:14:984209,0,-10,-5,-1,2,4,-5,0
13:59:14:990301,0,-6,0,3,2,-3,4,-6
13:59:14:997761,3,-1,-4,-5,0,3,4,0
13:59:15:5314,3,-1,-4,-5,0,3,4,0
13:59:15:12725,1,7,5,8,-1,-2,3,0
13:59:15:21025,1,-2,-4,2,-8,-3,5,0
13:59:15:21743,1,-2,-4,2,-8,-3,5,0
13:59:15:27831,-2,2,1,4,10,4,-2,1
13:59:15:43489,2,11,5,-7,-5,-2,-4,0
13:59:15:44209,2,11,5,-7,-5,-2,-4,0
13:59:15:50135,-2,-2,-5,-3,0,-2,-12,0
13:59:15:57783,1,17,17,3,-4,-7,-6,0
13:59:15:65269,1,17,17,3,-4,-7,-6,0
13:59:15:72788,6,7,7,8,-1,0,1,-5
13:59:15:80920,0,2,-17,-9,-1,-3,9,0
13:59:15:81716,0,2,-17,-9,-1,-3,9,0
13:59:15:87779,0,-3,-16,-10,3,-1,1,5
13:59:15:103891,0,-7,-9,-6,-6,4,10,-1
13:59:15:104709,0,-7,-9,-6,-6,4,10,-1
13:59:15:110296,-4,9,14,1,-4,2,-4,-4
13:59:15:117714,-5,-9,-2,8,8,2,-3,0
13:59:15:125394,-5,-9,-2,8,8,2,-3,0
13:59:15:132691,2,6,5,2,-5,-5,-3,3
13:59:15:140994,-1,3,0,4,2,-1,0,2
13:59:15:141736,-1,3,0,4,2,-1,0,2
13:59:15:147734,-6,-9,-12,-21,-11,-5,-7,-4
13:59:15:163410,-12,-37,-21,-13,-18,-8,-9,-5
13:59:15:164206,-12,-37,-21,-13,-18,-8,-9,-5
13:59:15:170291,3,0,-16,-5,3,0,-2,1
13:59:15:177853,-1,-1,-10,4,9,6,-1,-6
13:59:15:185298,-1,-1,-10,4,9,6,-1,-6
13:59:15:192856,-7,-11,-13,-9,-3,-2,-1,-3
13:59:15:200886,0,5,13,10,4,-3,-3,1
13:59:15:201680,0,5,13,10,4,-3,-3,1
13:59:15:207838,3,-1,8,3,1,-4,1,3
13:59:15:223374,1,-1,1,2,-2,5,-7,-2
13:59:15:224189,1,-1,1,2,-2,5,-7,-2
13:59:15:230214,1,-5,11,6,9,5,-1,-7
13:59:15:237687,3,20,13,7,-9,-8,-8,4
13:59:15:245257,3,20,13,7,-9,-8,-8,4
13:59:15:252722,-5,0,5,-8,-3,5,4,2
13:59:15:261032,2,-3,-2,2,-13,2,15,1
13:59:15:261731,2,-3,-2,2,-13,2,15,1
13:59:15:267702,-5,-8,-12,-2,3,-6,-3,-9
13:59:15:283400,2,14,18,-2,-4,-6,18,1
13:59:15:284199,2,14,18,-2,-4,-6,18,1
13:59:15:290306,4,5,0,5,21,19,16,1
13:59:15:297797,-9,-9,7,-6,-11,-1,-15,-5
13:59:15:305337,-9,-9,7,-6,-11,-1,-15,-5
13:59:15:312776,3,10,13,3,-15,-1,14,6
13:59:15:320923,2,-1,-4,13,30,3,-8,1
13:59:15:321820,2,-1,-4,13,30,3,-8,1
13:59:15:327868,-5,-6,1,-10,-17,-41,-20,-9
13:59:15:343527,5,2,16,-3,16,12,11,0
13:59:15:344222,5,2,16,-3,16,12,11,0
13:59:15:350170,-1,-3,-33,-9,-4,20,8,7
13:59:15:357796,5,-9,-30,-13,-15,49,78,20
13:59:15:365294,5,-9,-30,-13,-15,49,78,20
13:59:15:380917,-8,-6,60,42,50,0,35,-6
13:59:15:381709,-3,-7,10,14,44,-7,-28,-17
13:59:15:388542,-3,-7,10,14,44,-7,-28,-17
13:59:15:389246,8,-8,-11,-29,-46,7,-7,0
13:59:15:403463,-5,-3,-2,-29,-39,-65,-31,-6
13:59:15:404204,-5,-3,-2,-29,-39,-65,-31,-6
13:59:15:410270,-9,18,30,29,-2,-14,-36,-10
13:59:15:417789,-7,0,-15,-9,-17,15,6,-3
13:59:15:425397,-7,0,-15,-9,-17,15,6,-3
13:59:15:432669,12,-5,-46,3,60,57,15,24
13:59:15:440209,-3,3,10,7,-5,31,-5,7
13:59:15:448453,-3,3,10,7,-5,31,-5,7
13:59:15:449236,-5,0,-19,-33,-50,-98,-45,-17
13:59:15:463456,15,24,45,68,109,59,23,11
13:59:15:464252,15,24,45,68,109,59,23,11
13:59:15:470239,2,3,72,39,16,-36,-47,-4
13:59:15:477794,-27,-25,-76,-49,-56,-27,-18,-29
13:59:15:485291,-27,-25,-76,-49,-56,-27,-18,-29
13:59:15:492792,1,2,-65,-11,49,36,8,5
13:59:15:500203,-28,-8,38,-9,-90,-47,-52,14
13:59:15:508523,-28,-8,38,-9,-90,-47,-52,14
13:59:15:509200,8,5,24,-8,-11,49,45,1
13:59:15:523404,-8,-3,15,-2,11,14,36,-4
13:59:15:524229,-8,-3,15,-2,11,14,36,-4
13:59:15:530211,-1,5,-10,11,35,31,-6,-14
13:59:15:537800,6,-11,-9,-13,-17,-28,-20,-9
13:59:15:545304,6,-11,-9,-13,-17,-28,-20,-9
13:59:15:552684,13,4,6,2,-15,-13,11,6
13:59:15:560270,-3,9,54,4,-15,-34,-23,-15
13:59:15:568372,-3,9,54,4,-15,-34,-23,-15
13:59:15:569140,-18,-20,-53,-22,-28,6,5,-5
13:59:15:583419,14,8,-12,19,18,61,30,13
13:59:15:584242,14,8,-12,19,18,61,30,13
13:59:15:590275,6,2,-33,9,4,29,37,5
13:59:15:597750,3,-5,-28,-10,47,11,-1,-6
13:59:15:605323,3,-5,-28,-10,47,11,-1,-6
13:59:15:612827,-23,-35,-20,-25,-18,-36,-27,-7
13:59:15:620242,10,2,20,10,-21,-28,-22,-2
13:59:15:628476,10,2,20,10,-21,-28,-22,-2
13:59:15:629228,0,6,9,-13,-33,-36,-4,6
13:59:15:643498,3,2,-9,6,-1,-20,-17,-1
13:59:15:644204,3,2,-9,6,-1,-20,-17,-1
13:59:15:650214,-14,1,48,2,-23,13,-25,-16
13:59:15:657813,-1,-3,-17,10,51,24,3,5
13:59:15:665254,-1,-3,-17,10,51,24,3,5
13:59:15:672833,6,-9,-30,-12,-27,-41,-22,-1
13:59:15:680258,-11,-17,-3,-32,-17,-13,4,-9
13:59:15:688555,-11,-17,-3,-32,-17,-13,4,-9
13:59:15:689251,2,-10,-10,6,-5,-5,13,6
13:59:15:703412,13,26,-3,9,27,13,11,7
13:59:15:704200,13,26,-3,9,27,13,11,7
13:59:15:710382,-2,20,22,6,-3,-5,-4,-4
13:59:15:717710,0,-5,-12,-16,-18,-7,1,-3
13:59:15:725392,0,-5,-12,-16,-18,-7,1,-3
13:59:15:732669,-5,-13,-9,9,13,3,12,-1
13:59:15:740245,-6,10,29,31,-17,-20,-16,-5
13:59:15:748442,-6,10,29,31,-17,-20,-16,-5
13:59:15:749198,0,0,4,12,18,20,1,6
13:59:15:763453,0,-18,-39,-57,-33,-14,20,2
13:59:15:764259,0,-18,-39,-57,-33,-14,20,2
13:59:15:770211,-1,9,0,-34,-20,-34,-16,-2
13:59:15:785895,10,15,-5,26,33,37,13,9
13:59:15:786718,10,15,-5,26,33,37,13,9
13:59:15:792760,0,7,-22,-16,7,4,6,0
13:59:15:800189,5,0,1,-16,-34,-29,-6,0
13:59:15:807816,5,0,1,-16,-34,-29,-6,0
13:59:15:815193,1,0,18,26,24,8,-15,-1
13:59:15:823463,3,3,0,1,3,7,0,-1
13:59:15:824236,3,3,0,1,3,7,0,-1
13:59:15:830230,-6,3,51,-6,-38,-1,6,-5
13:59:15:846023,-7,-12,-6,29,6,3,-8,-1
13:59:15:846688,-7,-12,-6,29,6,3,-8,-1
13:59:15:852698,1,-6,3,15,33,12,7,7
13:59:15:860333,-7,-9,-30,-25,-15,-13,-2,-6
13:59:15:867810,-7,-9,-30,-25,-15,-13,-2,-6
13:59:15:875282,1,-6,-41,-9,-33,-15,-4,2
13:59:15:883470,-9,-22,-17,1,-4,-5,-11,-5
13:59:15:884230,-9,-22,-17,1,-4,-5,-11,-5
13:59:15:890316,1,0,-21,-12,3,5,6,-2
13:59:15:905999,-1,-1,25,32,24,-2,-22,-4
13:59:15:906721,-1,-1,25,32,24,-2,-22,-4
13:59:15:912725,1,14,40,25,19,19,3,4
13:59:15:920306,2,4,1,-31,-2,82,79,8
13:59:15:927920,2,4,1,-31,-2,82,79,8
13:59:15:935213,-3,1,10,-2,-12,-4,6,-4
13:59:15:943473,3,11,38,34,-1,-30,-30,-2
13:59:15:944250,3,11,38,34,-1,-30,-30,-2
13:59:15:950249,-2,-10,-32,-15,-5,-7,-1,-3
13:59:15:965850,-1,-1,-26,-5,0,-29,-15,-4
13:59:15:966660,-1,-1,-26,-5,0,-29,-15,-4
13:59:15:972732,4,-5,16,-1,-9,6,-12,-7
13:59:15:980273,-9,-21,-34,-13,9,-2,-6,-5
13:59:15:995958,-9,-21,-34,-13,9,-2,-6,-5
13:59:15:996716,2,1,20,15,7,-3,-7,2
13:59:16:3442,2,1,20,15,7,-3,-7,2
13:59:16:4169,3,16,47,26,30,-2,3,3
13:59:16:10355,-8,-9,-41,-32,-45,-41,-22,-7
13:59:16:26038,-8,-9,-41,-32,-45,-41,-22,-7
13:59:16:26735,-5,-2,-7,-21,-51,-72,-23,-5
13:59:16:32712,2,-4,4,-10,35,98,71,7
13:59:16:48502,2,-4,4,-10,35,98,71,7
13:59:16:49203,1,-2,-25,-24,-11,-18,-35,-6
13:59:16:55237,-5,3,-11,15,7,13,-6,0
13:59:16:63438,-5,3,-11,15,7,13,-6,0
13:59:16:64226,3,-15,12,-3,5,19,17,2
13:59:16:70251,-4,-28,-24,-27,-21,-37,-12,-3
13:59:16:85942,-4,-28,-24,-27,-21,-37,-12,-3
13:59:16:86708,-14,-6,-23,-13,-27,0,-3,-4
13:59:16:92779,1,12,28,48,48,-3,9,-2
13:59:16:108564,1,12,28,48,48,-3,9,-2
13:59:16:109224,1,-9,8,2,-27,-3,-33,3
13:59:16:115201,-4,2,3,-22,-15,10,-10,-5
13:59:16:123475,-4,2,3,-22,-15,10,-10,-5
13:59:16:124199,6,24,44,42,37,16,20,1
13:59:16:130209,0,-1,-14,-19,-14,-45,-25,-3
13:59:16:145975,0,-1,-14,-19,-14,-45,-25,-3
13:59:16:146766,7,7,12,-56,-4,20,4,1
13:59:16:152727,1,10,58,25,11,7,-1,2
13:59:16:161012,1,10,58,25,11,7,-1,2
13:59:16:161723,-7,0,-2,14,1,-36,-18,-5
13:59:16:175276,-3,-13,-28,-15,-23,-15,-12,-2
13:59:16:183431,-3,-13,-28,-15,-23,-15,-12,-2
13:59:16:184296,0,-5,-5,31,27,0,-22,-7
13:59:16:190310,-7,1,-12,19,28,25,22,3
13:59:16:205995,-7,1,-12,19,28,25,22,3
13:59:16:206701,3,4,-18,-21,-12,-5,8,1
13:59:16:212735,2,-16,-35,-22,3,-16,-9,-2
13:59:16:220946,2,-16,-35,-22,3,-16,-9,-2
13:59:16:221720,-10,-14,-17,13,-1,24,13,0
13:59:16:235184,5,6,-18,-31,-21,-6,-3,4
13:59:16:243520,5,6,-18,-31,-21,-6,-3,4
13:59:16:244261,-7,-34,-21,30,-26,-30,-1,-6
13:59:16:250142,1,-2,38,39,57,65,33,1
13:59:16:265892,1,-2,38,39,57,65,33,1
13:59:16:266670,5,27,10,-46,-12,21,15,1
13:59:16:272787,-3,-13,-30,-19,-41,-56,-19,-7
13:59:16:288495,-3,-13,-30,-19,-41,-56,-19,-7
13:59:16:289196,0,-3,0,0,26,9,15,1
13:59:16:295182,1,0,14,3,-30,-26,-11,2
13:59:16:303436,1,0,14,3,-30,-26,-11,2
13:59:16:304182,-3,-14,-3,-14,-1,9,6,2
13:59:16:310293,6,7,-8,14,38,35,7,6
13:59:16:326027,6,7,-8,14,38,35,7,6
13:59:16:326690,-3,-11,-9,-1,-7,-10,-2,-9
13:59:16:332672,3,32,26,0,-29,-41,-16,-4
13:59:16:348394,3,32,26,0,-29,-41,-16,-4
13:59:16:349207,4,3,-6,7,-3,-16,-12,0
13:59:16:355335,5,7,14,-5,32,15,-8,0
13:59:16:363478,5,7,14,-5,32,15,-8,0
13:59:16:364223,0,11,-12,-16,-11,2,-6,0
13:59:16:370189,-5,-6,-20,-27,-2,-7,3,1
13:59:16:385887,-5,-6,-20,-27,-2,-7,3,1
13:59:16:386699,-7,13,35,17,-23,-7,10,0
13:59:16:392806,-4,-11,-1,12,-19,26,23,-8
13:59:16:408528,-4,-11,-1,12,-19,26,23,-8
13:59:16:409230,-2,-9,-17,-10,-2,56,52,4
13:59:16:415246,-4,-2,3,16,10,-6,-1,-1
13:59:16:423451,-4,-2,3,16,10,-6,-1,-1
13:59:16:424282,6,13,24,-4,8,-15,-15,-2
13:59:16:430221,-5,6,-2,-4,-18,-17,-20,-4
13:59:16:445909,-5,6,-2,-4,-18,-17,-20,-4
13:59:16:446672,2,-1,-24,-15,1,-18,-13,3
13:59:16:452705,-2,-5,-6,-5,-17,-18,1,0
13:59:16:468496,-2,-5,-6,-5,-17,-18,1,0
13:59:16:469208,0,-8,-7,-17,-7,-24,-27,-7
13:59:16:475317,5,-8,6,18,26,12,14,-1
13:59:16:483409,5,-8,6,18,26,12,14,-1
13:59:16:484177,-7,-19,-6,-12,-6,-19,-2,-6
13:59:16:490237,-2,-12,21,-11,-10,-5,-7,-2
13:59:16:506030,-2,-12,21,-11,-10,-5,-7,-2
13:59:16:506782,1,15,12,-2,11,-15,-21,-1
13:59:16:512780,-1,1,0,-29,-6,-1,10,-1
13:59:16:521021,-1,1,0,-29,-6,-1,10,-1
13:59:16:521691,1,-14,-3,24,58,51,26,4
13:59:16:535231,-4,-17,-12,18,-12,-28,-24,-7
13:59:16:543484,-4,-17,-12,18,-12,-28,-24,-7
13:59:16:544198,-11,-18,-18,-10,-23,67,53,4
13:59:16:550210,-4,11,4,-18,-6,21,13,9
13:59:16:565955,-4,11,4,-18,-6,21,13,9
13:59:16:566733,5,15,1,19,17,-21,-28,1
13:59:16:572789,3,-3,-33,40,32,22,-1,1
13:59:16:580951,3,-3,-33,40,32,22,-1,1
13:59:16:581673,1,16,0,-22,-27,-29,-10,-2
13:59:16:595219,8,20,18,-7,-3,-12,-13,-1
13:59:16:603508,8,20,18,-7,-3,-12,-13,-1
13:59:16:604228,-1,10,-25,26,15,15,15,1
13:59:16:610361,-1,-5,-18,3,0,24,18,-6
13:59:16:626005,-1,-5,-18,3,0,24,18,-6
13:59:16:626763,-2,-7,3,-6,2,-13,-13,-5
13:59:16:632668,-2,10,37,-26,-17,-34,-9,1
13:59:16:641017,-2,10,37,-26,-17,-34,-9,1
13:59:16:641811,-5,-42,-14,-8,31,24,-4,-1
13:59:16:655292,2,16,15,-17,-17,-5,-3,4
13:59:16:663452,2,16,15,-17,-17,-5,-3,4
13:59:16:664219,2,-1,2,14,-5,-22,-36,0
13:59:16:670212,-7,-8,19,7,-15,-8,-30,-8
13:59:16:685953,-7,-8,19,7,-15,-8,-30,-8
13:59:16:686689,5,11,18,12,13,-29,-17,2
13:59:16:692771,2,10,13,-8,-15,-24,-12,-8
13:59:16:700912,2,10,13,-8,-15,-24,-12,-8
13:59:16:701728,0,-2,-10,33,12,-14,14,-2
13:59:16:715198,-11,2,1,4,1,10,9,1
13:59:16:723481,-11,2,1,4,1,10,9,1
13:59:16:724241,-3,15,-9,-30,-32,-11,-10,-2
13:59:16:737676,4,2,-15,0,6,16,-7,7
13:59:16:745916,4,2,-15,0,6,16,-7,7
13:59:16:746667,-4,-3,8,-6,-3,-20,-6,-3
13:59:16:752689,8,-4,-1,18,19,12,22,1
13:59:16:760356,8,-4,-1,18,19,12,22,1
13:59:16:767674,1,-2,-18,-19,-21,23,15,-5
13:59:16:775292,3,29,-1,-11,18,15,-12,1
13:59:16:783482,3,29,-1,-11,18,15,-12,1
13:59:16:784249,0,-2,16,-12,-7,-12,-4,2
13:59:16:797690,-9,-29,-15,-30,12,0,-4,-1
13:59:16:806012,-9,-29,-15,-30,12,0,-4,-1
13:59:16:806767,-1,-9,-7,4,-12,-15,-15,-3
13:59:16:812762,-6,-25,-18,18,-5,9,22,0
13:59:16:820286,-6,-25,-18,18,-5,9,22,0
13:59:16:827791,-3,-6,24,-1,-8,-8,-10,-8
13:59:16:835259,6,10,-11,16,13,14,9,3
13:59:16:843485,6,10,-11,16,13,14,9,3
13:59:16:844201,11,32,-5,31,1,1,3,8
13:59:16:857867,-5,-3,-38,-7,-8,-13,-10,1
13:59:16:865930,-5,-3,-38,-7,-8,-13,-10,1
13:59:16:866714,-11,-20,1,-21,-4,-13,1,-5
13:59:16:872805,0,-19,17,7,-5,-6,-11,-7
13:59:16:880221,0,-19,17,7,-5,-6,-11,-7
13:59:16:887754,-2,-3,-7,-1,6,18,8,0
13:59:16:895254,-4,14,10,-9,-28,-39,-30,-10
13:59:16:903506,-4,14,10,-9,-28,-39,-30,-10
13:59:16:904210,1,16,7,4,21,34,5,4
13:59:16:917731,4,2,28,40,10,19,12,9
13:59:16:925976,4,2,28,40,10,19,12,9
13:59:16:926699,-1,-18,-4,-27,-4,-2,3,2
13:59:16:932700,-3,-10,-18,-28,-24,4,3,-3
13:59:16:940356,-3,-10,-18,-28,-24,4,3,-3
13:59:16:947692,-1,-2,0,10,-3,-9,17,-2
13:59:16:955279,-1,-7,-1,-8,-31,-22,3,4
13:59:16:963446,-1,-7,-1,-8,-31,-22,3,4
13:59:16:964234,6,1,8,59,37,26,5,4
13:59:16:977784,0,12,-27,-10,11,5,8,-1
13:59:16:985918,0,12,-27,-10,11,5,8,-1
13:59:16:986707,-4,-1,-5,-29,-20,-16,-40,-8
13:59:16:992748,-1,-5,11,10,21,7,19,-4
13:59:17:266,-1,-5,11,10,21,7,19,-4
13:59:17:7749,4,-3,-22,1,9,-5,4,2
13:59:17:15191,1,6,-5,-20,-5,-4,-15,0
13:59:17:23458,1,6,-5,-20,-5,-4,-15,0
13:59:17:24204,0,4,4,2,-7,-15,-6,4
13:59:17:37749,-6,-15,-24,33,28,17,10,-2
13:59:17:45952,-6,-15,-24,33,28,17,10,-2
13:59:17:46732,-1,-5,-24,0,-17,9,24,-8
13:59:17:52673,-14,-35,-21,6,7,32,44,3
13:59:17:60404,-14,-35,-21,6,7,32,44,3
13:59:17:67698,-2,9,-36,-5,21,4,1,2
13:59:17:75297,-6,-18,0,5,-6,-19,-27,-7
13:59:17:83436,-6,-18,0,5,-6,-19,-27,-7
13:59:17:84220,-9,-18,13,-4,-27,-16,-27,-4
13:59:17:97733,3,8,20,7,-8,-8,-8,-5
13:59:17:105968,3,8,20,7,-8,-8,-8,-5
13:59:17:106690,3,14,-12,-39,3,-7,-1,0
13:59:17:112711,9,29,-20,-24,-4,26,-12,10
13:59:17:120308,9,29,-20,-24,-4,26,-12,10
13:59:17:127740,5,6,30,16,-13,65,58,1
13:59:17:135234,14,74,20,-5,7,3,35,4
13:59:17:143508,14,74,20,-5,7,3,35,4
13:59:17:144209,4,13,22,5,10,-41,-24,1
13:59:17:157773,8,20,28,6,-9,-16,-17,-2
13:59:17:165934,8,20,28,6,-9,-16,-17,-2
13:59:17:166710,4,18,11,11,-5,7,-9,-9
13:59:17:172788,-1,19,-26,-19,-8,-20,-16,-4
13:59:17:180240,-1,19,-26,-19,-8,-20,-16,-4
13:59:17:187812,-6,-5,-11,-19,3,0,0,9
13:59:17:195257,-7,-11,19,14,11,-41,-50,0
13:59:17:203462,-7,-11,19,14,11,-41,-50,0
13:59:17:204188,-8,-20,-39,-20,-11,3,-16,-2
13:59:17:217759,-6,-42,6,-1,9,40,9,-2
13:59:17:225993,-6,-42,6,-1,9,40,9,-2
13:59:17:226665,-5,-10,20,-8,-17,-29,-16,0
13:59:17:232673,-2,-33,-30,-8,-16,-18,-11,-2
13:59:17:240276,-2,-33,-30,-8,-16,-18,-11,-2
13:59:17:247704,-2,11,6,15,7,28,35,0
13:59:17:255278,1,-6,-10,0,10,-40,-24,-7
13:59:17:263467,1,-6,-10,0,10,-40,-24,-7
13:59:17:264229,1,43,6,-4,-5,-18,-7,-4
13:59:17:277773,-1,-17,-24,-23,-24,-23,-2,1
13:59:17:285906,-1,-17,-24,-23,-24,-23,-2,1
13:59:17:286691,2,-11,-20,-3,12,11,18,4
13:59:17:292787,-1,36,8,-4,-21,-4,-2,-7
13:59:17:300208,-1,36,8,-4,-21,-4,-2,-7
13:59:17:307843,2,-25,15,8,-26,-14,-6,-6
13:59:17:315212,2,-1,20,46,28,9,-17,4
13:59:17:323463,2,-1,20,46,28,9,-17,4
13:59:17:324251,-8,-28,-14,6,6,38,-12,1
13:59:17:337754,2,-7,-7,-1,11,17,1,-2
13:59:17:345973,2,-7,-7,-1,11,17,1,-2
13:59:17:346751,10,47,30,34,-1,-20,1,0
13:59:17:352729,-7,-26,10,-2,-4,13,12,-6
13:59:17:360372,-7,-26,10,-2,-4,13,12,-6
13:59:17:367683,-1,-1,-21,-20,-13,23,0,0
13:59:17:375244,-11,-28,-30,-19,-11,-9,-4,-3
13:59:17:383458,-11,-28,-30,-19,-11,-9,-4,-3
13:59:17:384231,5,4,21,15,25,-9,3,8
13:59:17:397744,2,7,22,42,67,35,6,6
13:59:17:405971,2,7,22,42,67,35,6,6
13:59:17:406704,0,-4,10,-3,-3,3,24,-2
13:59:17:412705,-13,-52,-14,-29,-32,2,24,-2
13:59:17:420290,-13,-52,-14,-29,-32,2,24,-2
13:59:17:427787,-7,2,12,-2,-1,-21,-22,-8
13:59:17:444147,-5,-4,5,-20,-19,-12,-2,-5
13:59:17:444929,-5,-4,5,-20,-19,-12,-2,-5
13:59:17:445746,-6,-21,-27,-32,-18,-12,5,-9
13:59:17:457742,17,15,24,17,12,17,-9,9
13:59:17:465927,17,15,24,17,12,17,-9,9
13:59:17:466717,-11,-26,-3,1,-4,-29,-55,-10
13:59:17:472783,-10,4,33,-11,-15,-12,23,1
13:59:17:480323,-10,4,33,-11,-15,-12,23,1
13:59:17:487812,-6,-25,-36,-27,-11,34,28,-7
13:59:17:495238,-7,-2,-10,-32,-23,-20,-3,-8
13:59:17:503378,-7,-2,-10,-32,-23,-20,-3,-8
13:59:17:504205,4,-2,16,59,29,-18,-20,5
13:59:17:517736,-1,11,-24,-15,6,25,10,2
13:59:17:526042,-1,11,-24,-15,6,25,10,2
13:59:17:526797,-12,-1,-18,-35,-19,-15,8,-3
13:59:17:532689,6,33,8,2,8,-20,-31,-5
13:59:17:540331,6,33,8,2,8,-20,-31,-5
13:59:17:547769,0,-5,15,-12,-8,85,75,6
13:59:17:555332,3,5,-2,-23,-8,-10,-26,-6
13:59:17:563406,3,5,-2,-23,-8,-10,-26,-6
13:59:17:564208,9,12,37,22,27,-26,-29,0
13:59:17:577697,0,15,-2,-2,-22,-3,30,2
13:59:17:585905,0,15,-2,-2,-22,-3,30,2
13:59:17:586704,-3,12,-7,1,-6,3,-16,3
13:59:17:592812,-4,6,-8,-3,-1,-22,-19,-3
13:59:17:600194,-4,6,-8,-3,-1,-22,-19,-3
13:59:17:607837,-3,2,-32,-14,2,-20,-17,-2
13:59:17:615217,3,-17,-10,-3,5,21,33,4
13:59:17:623400,3,-17,-10,-3,5,21,33,4
13:59:17:624202,-4,21,29,2,-4,-7,15,4
13:59:17:637757,-4,-9,33,36,0,-29,-43,-12
13:59:17:645950,-4,-9,33,36,0,-29,-43,-12
13:59:17:646706,6,-4,1,40,24,2,-19,-4
13:59:17:652719,5,9,8,29,5,2,10,5
13:59:17:668435,5,9,8,29,5,2,10,5
13:59:17:669170,-8,-1,-24,-30,-19,-43,-5,-1
13:59:17:675306,-11,-14,25,2,-19,-9,-19,-4
13:59:17:682723,-11,-14,25,2,-19,-9,-19,-4
13:59:17:690221,7,3,-24,-36,-12,34,53,5
13:59:17:697721,1,10,-36,1,10,27,17,-2
13:59:17:706012,1,10,-36,1,10,27,17,-2
13:59:17:706762,1,-20,7,23,30,-3,-5,-3
13:59:17:720972,2,3,31,-31,-17,-16,-15,0
13:59:17:721743,2,3,31,-31,-17,-16,-15,0
13:59:17:727687,-1,3,-8,-28,-29,-5,5,-6
13:59:17:735169,-5,8,-31,-9,-21,-14,21,3
13:59:17:742789,-5,8,-31,-9,-21,-14,21,3
13:59:17:750198,2,2,-4,-12,11,26,-20,-20
13:59:17:757731,-2,-23,-7,-5,5,-28,-40,-17
13:59:17:765954,-2,-23,-7,-5,5,-28,-40,-17
13:59:17:766733,1,4,2,34,1,2,-45,-8
13:59:17:780982,-3,-11,-21,11,1,49,35,4
13:59:17:781782,-3,-11,-21,11,1,49,35,4
13:59:17:787750,-4,25,-1,-11,-15,-10,69,18
13:59:17:795234,6,6,4,-12,18,-3,-16,6
13:59:17:802733,6,6,4,-12,18,-3,-16,6
13:59:17:810293,-7,0,-5,-9,1,-6,48,7
13:59:17:817710,-2,12,18,13,25,26,-13,6
13:59:17:826038,-2,12,18,13,25,26,-13,6
13:59:17:826771,-15,-16,-20,-14,-18,-36,-59,-4
13:59:17:840988,-1,-15,-3,-13,-25,13,37,-22
13:59:17:841756,-1,-15,-3,-13,-25,13,37,-22
13:59:17:847727,0,-11,4,18,35,39,65,21
13:59:17:855310,3,4,21,10,3,0,13,12
13:59:17:862855,3,4,21,10,3,0,13,12
13:59:17:870249,-9,2,22,25,23,-11,-32,-13
13:59:17:877814,-3,-25,-5,-16,-2,-9,18,-1
13:59:17:886403,-3,-25,-5,-16,-2,-9,18,-1
13:59:17:892786,10,24,30,26,-17,-27,-82,-13
13:59:17:900907,2,10,-9,-3,-10,-44,14,2
13:59:17:901718,2,10,-9,-3,-10,-44,14,2
13:59:17:907764,10,-19,22,3,-19,-9,-71,-11
13:59:17:915232,-26,-29,-24,13,38,1,-30,-10
13:59:17:922814,-26,-29,-24,13,38,1,-30,-10
13:59:17:930237,21,-2,-9,-4,9,21,21,8
13:59:17:937714,7,-3,-24,-7,-6,-6,-25,11
13:59:17:945987,7,-3,-24,-7,-6,-6,-25,11
13:59:17:946751,6,11,-29,-25,-24,-8,37,2
13:59:17:960992,-7,7,20,4,-19,-27,-9,-10
13:59:17:961773,-7,7,20,4,-19,-27,-9,-10
13:59:17:976008,-10,-15,-14,-26,-30,14,38,6
13:59:17:976692,12,-1,-34,17,19,33,-29,-18
13:59:17:982698,12,-1,-34,17,19,33,-29,-18
13:59:17:990238,18,40,48,29,32,-1,-11,5
13:59:17:997686,-17,-10,-9,-1,24,32,24,-1
13:59:18:5935,-17,-10,-9,-1,24,32,24,-1
13:59:18:6732,-11,-12,-22,-47,-27,-17,-1,-2
13:59:18:21013,31,36,-28,-23,-24,5,18,9
13:59:18:21733,31,36,-28,-23,-24,5,18,9
13:59:18:27716,-23,14,42,7,21,-13,-6,1
13:59:18:35177,-5,-8,-2,-14,-24,8,14,2
13:59:18:42906,-5,-8,-2,-14,-24,8,14,2
13:59:18:50162,7,-33,0,7,1,3,-29,-3
13:59:18:57778,-5,-1,41,29,-8,-13,-10,-2
13:59:18:65894,-5,-1,41,29,-8,-13,-10,-2
13:59:18:66719,-17,-5,5,9,14,24,16,-1
13:59:18:80900,11,8,8,6,14,-7,9,14
13:59:18:81742,11,8,8,6,14,-7,9,14
13:59:18:87816,-15,8,-35,0,3,-8,19,2
13:59:18:95203,6,-11,-14,7,19,14,14,11
13:59:18:102773,6,-11,-14,7,19,14,14,11
13:59:18:110321,1,-21,-10,-9,-11,-11,47,0
13:59:18:117690,0,-20,-7,-4,-16,-14,-22,-13
13:59:18:126089,0,-20,-7,-4,-16,-14,-22,-13
13:59:18:126754,-8,8,0,18,-13,-8,-48,-4
13:59:18:141011,-12,11,-18,-13,-9,-5,11,-1
13:59:18:141768,-12,11,-18,-13,-9,-5,11,-1
13:59:18:147750,21,17,28,17,37,3,-6,-10
13:59:18:155311,-9,0,17,-13,2,18,30,11
13:59:18:171092,-9,0,17,-13,2,18,30,11
13:59:18:171729,-7,-32,-8,-27,-29,-56,-53,-10
13:59:18:177694,7,-1,1,-14,-16,-3,7,2
13:59:18:185941,7,-1,1,-14,-16,-3,7,2
13:59:18:186707,22,18,-8,-6,-9,10,13,10
13:59:18:200925,-34,-15,-9,-24,12,-8,12,-3
13:59:18:201695,-34,-15,-9,-24,12,-8,12,-3
13:59:18:207825,-10,14,11,-6,-21,-15,-10,-11
13:59:18:215226,20,-12,-12,6,-4,-23,-58,-8
13:59:18:222810,20,-12,-12,6,-4,-23,-58,-8
13:59:18:230247,-2,-3,-2,-1,6,24,18,8
13:59:18:237828,-14,4,-4,-23,9,0,30,5
13:59:18:253455,-14,4,-4,-23,9,0,30,5
13:59:18:254210,-18,-23,-35,4,-13,-4,-10,4
13:59:18:260947,8,6,-19,-28,-12,-17,8,-7
13:59:18:261715,8,6,-19,-28,-12,-17,8,-7
13:59:18:267712,10,-39,15,19,24,10,6,1
13:59:18:275280,10,8,33,3,1,30,7,1
13:59:18:282812,10,8,33,3,1,30,7,1
13:59:18:290249,-12,-7,-1,14,15,12,5,-2
13:59:18:297758,-8,-28,8,36,1,46,31,1
13:59:18:305975,-8,-28,8,36,1,46,31,1
13:59:18:306692,-3,2,14,-10,-1,4,10,-2
13:59:18:320874,-3,-4,5,30,14,-4,-13,-2
13:59:18:321710,-3,-4,5,30,14,-4,-13,-2
13:59:18:327827,4,1,8,3,4,28,-47,-21
13:59:18:335266,13,-3,-15,-13,-26,-31,-4,-1
13:59:18:342915,13,-3,-15,-13,-26,-31,-4,-1
13:59:18:350172,0,1,4,-21,-7,-13,-13,1
13:59:18:357790,-29,3,-18,6,5,28,-15,0
13:59:18:365872,-29,3,-18,6,5,28,-15,0
13:59:18:366717,-3,-22,-53,-7,6,6,33,9
13:59:18:380904,28,39,25,-15,-20,-46,-26,0
13:59:18:381713,28,39,25,-15,-20,-46,-26,0
13:59:18:387682,-1,6,-3,-7,-6,4,15,-4
13:59:18:395219,-5,-23,-18,23,-10,-9,12,-6
13:59:18:410977,-5,-23,-18,23,-10,-9,12,-6
13:59:18:411697,3,0,-5,22,15,5,-9,1
13:59:18:417716,0,25,27,15,15,42,33,-3
13:59:18:425999,0,25,27,15,15,42,33,-3
13:59:18:426733,-10,-19,-8,-3,-29,-30,-2,0
13:59:18:440962,-5,26,8,5,0,-24,-73,-17
13:59:18:441779,-5,26,8,5,0,-24,-73,-17
13:59:18:447731,-25,4,4,-26,2,-2,-34,-12
13:59:18:455355,-17,-17,-7,2,-2,-2,23,7
13:59:18:462794,-17,-17,-7,2,-2,-2,23,7
13:59:18:470177,17,18,9,-12,-42,-14,-3,0
13:59:18:477724,0,-2,20,21,51,76,73,14
13:59:18:485909,0,-2,20,21,51,76,73,14
13:59:18:486706,3,-54,-26,-20,-23,-14,-46,-8
13:59:18:500905,38,28,-11,7,-7,-12,14,0
13:59:18:501670,38,28,-11,7,-7,-12,14,0
13:59:18:507733,7,26,-16,-6,-2,12,32,2
13:59:18:515187,-11,-8,-27,-30,-36,-46,-36,-4
13:59:18:522758,-11,-8,-27,-30,-36,-46,-36,-4
13:59:18:530188,16,55,29,46,30,15,-32,-4
13:59:18:537820,-5,-20,5,7,8,0,-18,-3
13:59:18:545983,-5,-20,5,7,8,0,-18,-3
13:59:18:546760,6,-17,-12,-1,29,24,34,4
13:59:18:561028,-4,-33,-15,-28,-12,-24,-23,-3
13:59:18:561777,-4,-33,-15,-28,-12,-24,-23,-3
13:59:18:567720,-4,35,21,-12,-4,10,27,2
13:59:18:575303,13,7,-10,14,6,-30,-5,3
13:59:18:582777,13,7,-10,14,6,-30,-5,3
13:59:18:590327,-16,-31,-6,11,6,6,41,5
13:59:18:597791,-3,-15,11,12,5,13,48,3
13:59:18:605357,-3,-15,11,12,5,13,48,3
13:59:18:612773,5,14,31,12,27,2,22,8
13:59:18:621032,11,-26,-3,-30,4,-15,-63,-6
13:59:18:621700,11,-26,-3,-30,4,-15,-63,-6
13:59:18:627779,-15,4,12,-3,-24,-10,-3,-6
13:59:18:643493,-11,11,5,14,-9,-15,15,1
13:59:18:644244,-11,11,5,14,-9,-15,15,1
13:59:18:650235,15,-12,-12,-31,-22,12,12,1
13:59:18:657800,5,25,27,-5,14,3,-16,-2
13:59:18:665285,5,25,27,-5,14,3,-16,-2
13:59:18:672813,-2,34,-4,9,-23,-49,-16,2
13:59:18:680906,-9,-9,0,-3,-9,13,7,-4
13:59:18:681755,-9,-9,0,-3,-9,13,7,-4
13:59:18:687759,12,-11,-5,-2,-8,-4,-20,-6
13:59:18:703405,-34,-2,-24,7,-3,-31,-63,-17
13:59:18:704193,-34,-2,-24,7,-3,-31,-63,-17
13:59:18:710320,-16,27,24,19,17,94,79,12
13:59:18:717753,9,2,-21,-16,13,40,-9,3
13:59:18:725355,9,2,-21,-16,13,40,-9,3
13:59:18:732690,5,-22,-13,-14,-2,-49,-35,-9
13:59:18:741047,-18,-20,-3,3,5,-1,13,-1
13:59:18:741800,-18,-20,-3,3,5,-1,13,-1
13:59:18:747701,-14,-35,19,-13,0,6,18,-2
13:59:18:763447,-11,-13,-5,-1,-9,-13,1,-6
13:59:18:764239,-11,-13,-5,-1,-9,-13,1,-6
13:59:18:770206,1,-32,-23,-9,4,-11,-20,-2
13:59:18:777729,9,19,17,-1,-19,20,26,7
13:59:18:785258,9,19,17,-1,-19,20,26,7
13:59:18:792776,42,12,-9,-1,-3,-10,0,14
13:59:18:800981,5,5,12,33,17,2,-13,-2
13:59:18:801724,5,5,12,33,17,2,-13,-2
13:59:18:807704,7,10,-19,11,13,3,-4,0
13:59:18:823425,6,-10,0,-8,-7,-18,38,-2
13:59:18:824228,6,-10,0,-8,-7,-18,38,-2
13:59:18:830201,-11,9,9,12,2,6,5,0
13:59:18:837808,-13,13,12,1,13,10,44,8
13:59:18:845310,-13,13,12,1,13,10,44,8
13:59:18:852712,-17,2,6,2,-17,-7,-34,-3
13:59:18:860895,20,24,10,-4,-17,5,-26,-4
13:59:18:861740,20,24,10,-4,-17,5,-26,-4
13:59:18:867693,-40,2,34,9,1,41,6,2
13:59:18:891660,9,2,12,-7,8,-4,-53,-16
13:59:18:892380,9,2,12,-7,8,-4,-53,-16
13:59:18:893202,-2,10,-30,-4,-7,-25,-29,-3
13:59:18:897686,-7,8,-33,-6,-6,-17,-41,-2
13:59:18:905315,-7,8,-33,-6,-6,-17,-41,-2
13:59:18:912745,16,-40,-15,-18,-12,-56,9,-1
13:59:18:921051,6,-6,-2,-16,-5,7,8,-7
13:59:18:921729,6,-6,-2,-16,-5,7,8,-7
13:59:18:927747,-18,20,-2,3,-7,4,26,-12
13:59:18:943532,-24,-30,-46,-1,-4,-19,-65,-7
13:59:18:944281,-24,-30,-46,-1,-4,-19,-65,-7
13:59:18:950228,-25,4,-11,-34,5,-32,-60,-14
13:59:18:957742,20,-1,4,-11,10,16,49,14
13:59:18:965272,20,-1,4,-11,10,16,49,14
13:59:18:972789,10,-24,2,1,2,1,3,-8
13:59:18:980865,7,-8,-8,7,6,18,-2,-4
13:59:18:981697,7,-8,-8,7,6,18,-2,-4
13:59:18:987821,1,-5,-19,15,21,-4,-6,-3
13:59:19:3442,-8,10,14,28,-33,-21,12,5
13:59:19:4245,-8,10,14,28,-33,-21,12,5
13:59:19:10308,-6,7,26,2,-10,21,-17,0
13:59:19:17730,13,-17,5,2,20,13,38,21
13:59:19:25368,13,-17,5,2,20,13,38,21
13:59:19:32736,38,-10,6,-1,9,-3,5,8
13:59:19:41009,-9,-28,13,-16,-18,0,1,-14
13:59:19:41714,-9,-28,13,-16,-18,0,1,-14
13:59:19:47694,7,-6,-14,-8,-13,-15,-15,1
13:59:19:63435,-15,28,25,38,21,23,10,1
13:59:19:64266,-15,28,25,38,21,23,10,1
13:59:19:70296,-27,-13,-18,-19,-8,2,14,-17
13:59:19:77792,-6,17,19,-11,-7,-5,10,13
13:59:19:85256,-6,17,19,-11,-7,-5,10,13
13:59:19:92823,6,0,0,-3,-2,26,28,0
13:59:19:100899,-8,-16,-26,-22,-4,-6,-21,-3
13:59:19:101706,-8,-16,-26,-22,-4,-6,-21,-3
13:59:19:107729,10,16,-13,-5,-5,-32,-14,-3
13:59:19:123432,9,13,12,33,18,-1,-48,-12
13:59:19:124203,9,13,12,33,18,-1,-48,-12
13:59:19:130216,3,11,-30,6,-7,15,-5,-3
13:59:19:137850,-4,8,-1,-30,-11,-13,8,-5
13:59:19:145310,-4,8,-1,-30,-11,-13,8,-5
13:59:19:152676,-12,-11,19,-11,-14,-7,-20,2
13:59:19:169036,-41,-3,19,26,23,3,9,-16
13:59:19:169849,-41,-3,19,26,23,3,9,-16
13:59:19:170659,-2,33,13,7,23,7,-1,2
13:59:19:183381,4,-12,-18,4,-31,-33,25,-2
13:59:19:184198,4,-12,-18,4,-31,-33,25,-2
13:59:19:190235,15,-2,7,13,23,11,8,12
13:59:19:197750,6,-1,-33,-29,-18,8,32,1
13:59:19:205296,6,-1,-33,-29,-18,8,32,1
13:59:19:212703,-6,6,14,1,8,17,24,2
13:59:19:220993,-14,-36,29,7,27,3,2,0
13:59:19:221740,-14,-36,29,7,27,3,2,0
13:59:19:227700,10,-13,-44,-5,-9,-25,-11,3
13:59:19:243468,0,8,-12,-15,-6,-3,1,7
13:59:19:244244,0,8,-12,-15,-6,-3,1,7
13:59:19:250165,2,27,14,20,-20,2,28,6
13:59:19:257715,18,18,-17,-2,4,-18,-24,4
13:59:19:265274,18,18,-17,-2,4,-18,-24,4
13:59:19:272726,-11,-19,-35,-23,13,34,24,6
13:59:19:280931,3,1,-5,-3,-7,13,16,2
13:59:19:281743,3,1,-5,-3,-7,13,16,2
13:59:19:287812,-16,-3,1,9,6,-5,-4,-15
13:59:19:311582,15,9,-10,1,-4,-4,-10,-1
13:59:19:312389,15,9,-10,1,-4,-4,-10,-1
13:59:19:313187,-10,-12,9,-9,-34,-23,-4,1
13:59:19:317746,-3,-29,-1,20,-2,-6,-7,-4
13:59:19:325289,-3,-29,-1,20,-2,-6,-7,-4
13:59:19:332739,-11,9,17,6,-1,-7,-23,-13
13:59:19:340982,-11,9,17,6,-1,-7,-23,-13
13:59:19:341720,2,10,13,-1,18,6,-18,-2
13:59:19:347693,0,-19,-1,-5,-9,-21,4,-10
13:59:19:363466,0,-19,-1,-5,-9,-21,4,-10
13:59:19:364228,2,-9,-5,-10,-5,-1,-53,-14
13:59:19:370236,11,13,16,-5,10,-9,6,11
13:59:19:385940,11,13,16,-5,10,-9,6,11
13:59:19:386694,-8,-9,0,4,1,-3,25,-8
13:59:19:392782,8,11,14,44,11,9,9,5
13:59:19:400925,8,11,14,44,11,9,9,5
13:59:19:401671,-1,13,3,-10,-15,5,14,11
13:59:19:407732,-27,0,14,-14,-5,-5,-2,-1
13:59:19:423382,-27,0,14,-14,-5,-5,-2,-1
13:59:19:424180,-8,4,16,11,5,-1,8,-2
13:59:19:430181,8,0,-12,-6,12,8,-17,-3
13:59:19:445916,8,0,-12,-6,12,8,-17,-3
13:59:19:446724,-9,-19,-8,-16,-14,17,57,7
13:59:19:452743,29,-5,-29,-11,-2,-1,-32,2
13:59:19:460930,29,-5,-29,-11,-2,-1,-32,2
13:59:19:461725,4,-14,-4,-8,-9,-19,-36,-15
13:59:19:467704,-13,9,5,-1,3,7,12,-3
13:59:19:483419,-13,9,5,-1,3,7,12,-3
13:59:19:484219,6,10,5,-16,3,7,2,0
13:59:19:490221,14,-4,6,11,11,0,-2,-1
13:59:19:506007,14,-4,6,11,11,0,-2,-1
13:59:19:506676,11,14,6,-14,0,-23,-26,0
13:59:19:512771,5,-16,-16,5,-5,-2,6,3
13:59:19:521023,5,-16,-16,5,-5,-2,6,3
13:59:19:521735,0,7,3,21,10,-2,-20,-1
13:59:19:527719,12,13,5,-10,-17,-16,-13,-4
13:59:19:543549,12,13,5,-10,-17,-16,-13,-4
13:59:19:544214,-27,-7,-5,-14,-4,1,6,0
13:59:19:550188,9,-7,13,26,31,21,11,7
13:59:19:565950,9,-7,13,26,31,21,11,7
13:59:19:566736,7,-10,-10,-23,-6,-10,6,0
13:59:19:572817,-1,-11,-16,-32,1,-3,4,4
13:59:19:580943,-1,-11,-16,-32,1,-3,4,4
13:59:19:581687,6,-21,-9,11,-25,-8,-21,-1
13:59:19:595257,-2,0,21,-5,-1,-5,-12,5
13:59:19:603438,-2,0,21,-5,-1,-5,-12,5
13:59:19:604158,-36,39,-2,17,18,18,10,-5
13:59:19:610317,14,1,-4,5,-28,-46,-48,-4
13:59:19:626068,14,1,-4,5,-28,-46,-48,-4
13:59:19:626737,20,-9,-8,2,-10,-10,-11,3
13:59:19:632711,-13,-11,28,0,2,-2,-5,-6
13:59:19:641013,-13,-11,28,0,2,-2,-5,-6
13:59:19:641751,16,-8,-12,-16,-10,1,13,4
13:59:19:655251,24,-10,-20,-21,-16,13,42,-3
13:59:19:663491,24,-10,-20,-21,-16,13,42,-3
13:59:19:664284,10,20,-9,16,8,16,14,1
13:59:19:670294,-21,-17,-40,-8,-15,-24,-23,-9
13:59:19:685950,-21,-17,-40,-8,-15,-24,-23,-9
13:59:19:686746,-21,-10,4,1,8,-9,19,6
13:59:19:692750,-22,6,-9,2,14,20,5,1
13:59:19:700951,-22,6,-9,2,14,20,5,1
13:59:19:701726,-1,22,5,-7,-7,-11,-10,-9
13:59:19:715183,-19,-5,5,8,10,17,-1,-5
13:59:19:723472,-19,-5,5,8,10,17,-1,-5
13:59:19:724256,-9,5,-21,-11,-6,-16,-45,-17
13:59:19:730226,2,16,18,19,28,20,-4,8
13:59:19:745932,2,16,18,19,28,20,-4,8
13:59:19:746671,11,-3,29,-7,6,5,10,3
13:59:19:752716,12,-21,-22,-3,-20,-29,12,-5
13:59:19:760912,12,-21,-22,-3,-20,-29,12,-5
13:59:19:761754,-10,3,-10,3,-7,14,23,0
13:59:19:775284,-34,-9,7,-13,-11,4,38,0
13:59:19:783417,-34,-9,7,-13,-11,4,38,0
13:59:19:784199,0,-1,19,23,39,41,19,3
13:59:19:790288,-6,-12,-16,-24,6,-7,-19,-6
13:59:19:806011,-6,-12,-16,-24,6,-7,-19,-6
13:59:19:806701,1,-34,0,-2,2,0,3,5
13:59:19:812748,0,-21,17,6,-15,-52,-67,-17
13:59:19:821023,0,-21,17,6,-15,-52,-67,-17
13:59:19:821701,26,8,7,-6,-1,10,23,11
13:59:19:835196,-6,17,16,6,-2,-11,-20,-6
13:59:19:843462,-6,17,16,6,-2,-11,-20,-6
13:59:19:844207,-11,-3,-17,-42,-35,-18,-39,-6
13:59:19:850159,12,20,-16,2,-4,34,-11,3
13:59:19:865882,12,20,-16,2,-4,34,-11,3
13:59:19:866688,-3,14,1,7,4,6,18,4
13:59:19:872731,-13,-19,15,9,-12,0,22,-6
13:59:19:880940,-13,-19,15,9,-12,0,22,-6
13:59:19:881732,-13,8,-3,-11,-5,-3,-31,-2
13:59:19:895260,17,10,-7,0,13,11,20,9
13:59:19:903460,17,10,-7,0,13,11,20,9
13:59:19:904213,0,-17,-7,-9,-6,-30,4,0
13:59:19:910292,-4,1,-23,2,7,9,-1,-5
13:59:19:925980,-4,1,-23,2,7,9,-1,-5
13:59:19:926693,-13,-11,9,-8,-11,12,21,0
13:59:19:932695,28,-1,4,11,4,-1,26,11
13:59:19:940969,28,-1,4,11,4,-1,26,11
13:59:19:941710,-7,-21,-17,-7,-9,-21,-18,-12
13:59:19:955313,7,21,-3,-13,-4,18,14,-1
13:59:19:963404,7,21,-3,-13,-4,18,14,-1
13:59:19:964223,10,4,-1,-1,2,-26,-12,9
13:59:19:970198,-9,-14,-13,-9,-25,-4,-25,-15
13:59:19:985915,-9,-14,-13,-9,-25,-4,-25,-15
13:59:19:986670,8,-5,8,27,22,-4,-42,-22
13:59:19:992856,-13,-10,2,-21,-18,-9,3,6
13:59:20:890,-13,-10,2,-21,-18,-9,3,6
13:59:20:1695,-12,-6,-9,6,4,6,-27,-6
13:59:20:15261,0,17,0,7,15,-16,-32,-4
13:59:20:23437,0,17,0,7,15,-16,-32,-4
13:59:20:24210,-7,-5,12,7,3,-12,-11,-6
13:59:20:30246,23,-1,-7,3,7,0,-2,5
13:59:20:45910,23,-1,-7,3,7,0,-2,5
13:59:20:46695,-2,9,24,19,14,26,15,-2
13:59:20:52748,-3,8,19,26,18,18,32,10
13:59:20:60922,-3,8,19,26,18,18,32,10
13:59:20:61696,-5,-1,-8,30,-5,12,26,-3
13:59:20:75301,-10,4,-1,8,18,17,8,6
13:59:20:83391,-10,4,-1,8,18,17,8,6
13:59:20:84183,-5,-2,-20,-29,-38,-34,18,9
13:59:20:90307,-31,-17,-13,11,-34,-6,7,-9
13:59:20:105993,-31,-17,-13,11,-34,-6,7,-9
13:59:20:106735,16,-4,0,-6,23,20,-15,-1
13:59:20:112745,6,10,10,23,38,28,6,6
13:59:20:120983,6,10,10,23,38,28,6,6
13:59:20:121692,0,-3,-21,-33,-32,-17,-21,-8
13:59:20:135204,-8,-7,2,-9,-8,-26,-16,-12
13:59:20:143580,-8,-7,2,-9,-8,-26,-16,-12
13:59:20:144249,-9,8,15,33,21,-25,-11,6
13:59:20:150212,-9,-22,-17,-32,-19,-8,8,-2
13:59:20:165922,-9,-22,-17,-32,-19,-8,8,-2
13:59:20:166752,-2,-7,-1,-10,-20,-5,-25,-6
13:59:20:172795,14,1,-7,-15,11,7,12,4
13:59:20:181018,14,1,-7,-15,11,7,12,4
13:59:20:181738,-3,4,2,24,0,-12,15,1
13:59:20:195208,-3,-15,1,2,8,39,47,6
13:59:20:203449,-3,-15,1,2,8,39,47,6
13:59:20:204227,-1,3,-7,-10,11,20,22,6
13:59:20:210274,-11,10,4,-16,-24,-37,-16,-5
13:59:20:226042,-11,10,4,-16,-24,-37,-16,-5
13:59:20:226702,8,-15,2,-11,29,41,14,2
13:59:20:232704,9,0,-3,10,9,-7,-28,-2
13:59:20:241019,9,0,-3,10,9,-7,-28,-2
13:59:20:241760,-11,-1,-5,-11,-23,-11,-33,-3
13:59:20:255266,9,47,0,13,18,-24,-41,-9
13:59:20:263468,9,47,0,13,18,-24,-41,-9
13:59:20:264241,-15,5,-6,0,-1,13,22,2
13:59:20:270210,-3,-9,10,-6,-7,-18,-37,5
13:59:20:285942,-3,-9,10,-6,-7,-18,-37,5
13:59:20:286709,9,10,-1,-15,-7,2,19,-4
13:59:20:292754,-5,-19,7,22,8,3,14,-2
13:59:20:300924,-5,-19,7,22,8,3,14,-2
13:59:20:301681,6,-3,-5,1,11,6,3,10
13:59:20:315201,1,-15,-9,-21,-28,-16,6,5
13:59:20:323454,1,-15,-9,-21,-28,-16,6,5
13:59:20:324221,-22,8,9,-25,-13,-11,-57,-19
13:59:20:330204,1,-5,-3,-14,-11,10,-9,-3
13:59:20:345925,1,-5,-3,-14,-11,10,-9,-3
13:59:20:346721,-25,5,7,6,8,53,76,6
13:59:20:352660,1,18,8,-13,-12,-8,6,-6
13:59:20:360962,1,18,8,-13,-12,-8,6,-6
13:59:20:361724,0,-4,14,0,8,-7,-21,4
13:59:20:375285,-24,-1,-8,-11,-23,12,9,3
13:59:20:383379,-24,-1,-8,-11,-23,12,9,3
13:59:20:384195,29,-7,-3,27,23,-1,5,0
13:59:20:390214,-8,0,-10,3,6,-9,0,-10
13:59:20:406006,-8,0,-10,3,6,-9,0,-10
13:59:20:406667,-24,-17,-16,-15,-32,-19,6,-6
13:59:20:412700,8,-4,4,-9,0,-1,-8,-3
13:59:20:421026,8,-4,4,-9,0,-1,-8,-3
13:59:20:421710,34,-5,9,12,12,31,-21,20
13:59:20:435266,11,0,9,3,14,7,0,-3
13:59:20:443466,11,0,9,3,14,7,0,-3
13:59:20:444183,21,24,-9,-5,-25,-49,-37,-8
13:59:20:450160,4,-1,9,0,-8,43,74,27
13:59:20:465912,4,-1,9,0,-8,43,74,27
13:59:20:466654,-16,6,-2,-5,2,53,46,-2
13:59:20:472817,8,16,-28,10,16,-16,-25,-8
13:59:20:480958,8,16,-28,10,16,-16,-25,-8
13:59:20:481704,9,-1,14,14,-4,-26,7,-8
13:59:20:495655,-8,-10,9,17,13,-3,-19,-3
13:59:20:503428,-8,-10,9,17,13,-3,-19,-3
13:59:20:504190,13,-12,-13,-12,-9,-14,-11,-5
13:59:20:517710,2,7,8,-9,6,7,14,-3
13:59:20:525977,2,7,8,-9,6,7,14,-3
13:59:20:526681,-1,-9,-3,-4,-22,-28,23,2
13:59:20:532702,-11,-10,-24,-6,-7,15,2,-7
13:59:20:540265,-11,-10,-24,-6,-7,15,2,-7
13:59:20:547654,-2,-17,-10,-21,-21,-19,0,-7
13:59:20:555236,1,1,14,9,26,14,-2,7
13:59:20:563428,1,1,14,9,26,14,-2,7
13:59:20:564223,-9,-1,-7,2,17,-4,7,5
13:59:20:577739,-13,-16,-18,4,-3,16,-9,-10
13:59:20:585894,-13,-16,-18,4,-3,16,-9,-10
13:59:20:586711,9,6,-11,-10,-12,-13,-18,6
13:59:20:592751,-35,-16,7,-11,-19,-33,-10,-7
13:59:20:600219,-35,-16,7,-11,-19,-33,-10,-7
13:59:20:607733,-25,4,9,2,1,-9,-30,-15
13:59:20:615184,11,20,8,25,41,15,32,15
13:59:20:623453,11,20,8,25,41,15,32,15
13:59:20:624232,-6,1,0,7,9,3,-40,-13
13:59:20:637761,-19,-19,-7,-10,5,-2,20,4
13:59:20:645950,-19,-19,-7,-10,5,-2,20,4
13:59:20:646741,18,14,-8,4,5,-14,-9,1
13:59:20:652692,28,7,10,-16,-21,-15,-12,1
13:59:20:660371,28,7,10,-16,-21,-15,-12,1
13:59:20:667761,-7,1,12,1,-3,22,46,8
13:59:20:675314,12,-8,-20,-14,-12,-10,-2,-1
13:59:20:683430,12,-8,-20,-14,-12,-10,-2,-1
13:59:20:684229,4,-2,-1,22,8,7,-14,-5
13:59:20:697720,15,4,-2,26,8,-4,-4,5
13:59:20:706075,15,4,-2,26,8,-4,-4,5
13:59:20:706720,9,-18,-5,-3,-13,-8,16,9
13:59:20:712716,-9,-1,15,-23,0,7,8,0
13:59:20:720367,-9,-1,15,-23,0,7,8,0
13:59:20:727737,4,-2,5,4,14,-3,-40,-6
13:59:20:735227,-7,-12,-5,6,10,32,38,-4
13:59:20:743433,-7,-12,-5,6,10,32,38,-4
13:59:20:744196,-9,17,8,-11,-12,0,19,5
13:59:20:757798,8,8,2,-21,-8,-17,-49,-18
13:59:20:765924,8,8,2,-21,-8,-17,-49,-18
13:59:20:766709,9,-1,13,12,22,-4,-18,7
13:59:20:772756,12,2,13,15,-25,-19,3,3
13:59:20:780277,12,2,13,15,-25,-19,3,3
13:59:20:787871,32,4,-1,-16,-11,-10,-12,8
13:59:20:795261,-32,-6,-1,-17,-18,-19,-30,-7
13:59:20:803451,-32,-6,-1,-17,-18,-19,-30,-7
13:59:20:804256,-41,7,23,6,11,-1,1,-1
13:59:20:817697,-19,-13,-10,-23,-6,-1,-18,-21
13:59:20:825957,-19,-13,-10,-23,-6,-1,-18,-21
13:59:20:826688,9,-12,-24,-20,-5,-9,16,0
13:59:20:832702,-2,-3,-19,-13,-13,5,16,4
13:59:20:840288,-2,-3,-19,-13,-13,5,16,4
13:59:20:847720,1,-16,6,-5,0,3,17,6
13:59:20:855247,10,26,9,21,-3,18,49,2
13:59:20:863456,10,26,9,21,-3,18,49,2
13:59:20:864237,10,1,-15,11,-5,-22,-18,4
13:59:20:878439,8,-12,17,22,-1,7,-16,0
13:59:20:879222,8,-12,17,22,-1,7,-16,0
13:59:20:885163,-9,-2,3,21,40,39,21,-7
13:59:20:892788,6,-1,-13,-16,2,-14,-7,-2
13:59:20:900241,6,-1,-13,-16,2,-14,-7,-2
13:59:20:907786,1,18,-2,7,-11,1,-1,-1
13:59:20:915196,20,1,-14,-2,-7,16,30,11
13:59:20:923431,20,1,-14,-2,-7,16,30,11
13:59:20:924217,-1,5,-3,-4,2,-2,30,1
13:59:20:938470,-5,6,13,-5,11,-36,-58,-5
13:59:20:939257,-5,6,13,-5,11,-36,-58,-5
13:59:20:945253,-13,4,-4,-8,-22,8,12,-10
13:59:20:952714,-9,9,6,-13,3,-12,3,3
13:59:20:960324,-9,9,6,-13,3,-12,3,3
13:59:20:967695,-5,12,-12,-2,1,1,-9,-1
13:59:20:975267,9,18,7,3,11,4,-6,-5
13:59:20:983438,9,18,7,3,11,4,-6,-5
13:59:20:984239,1,-8,1,-2,-1,2,-9,0
13:59:20:998403,1,-15,-42,-18,-21,-6,-38,-6
13:59:20:999230,1,-15,-42,-18,-21,-6,-38,-6
13:59:21:5299,-5,-15,-19,8,-10,4,-14,-6
13:59:21:12744,-27,-9,2,11,9,24,41,10
13:59:21:20298,-27,-9,2,11,9,24,41,10
13:59:21:27728,6,-8,2,-25,1,-17,-10,4
13:59:21:35242,-1,0,-5,0,-6,-2,-30,-16
13:59:21:43464,-1,0,-5,0,-6,-2,-30,-16
13:59:21:44185,3,3,9,-12,5,-4,-8,3
13:59:21:58465,-2,-7,11,9,-1,-18,27,-2
13:59:21:59236,-2,-7,11,9,-1,-18,27,-2
13:59:21:65248,6,-10,-9,-6,-22,-5,1,-9
13:59:21:72778,12,-12,14,21,27,17,17,11
13:59:21:80293,12,-12,14,21,27,17,17,11
13:59:21:87786,2,-19,-19,12,-4,-3,20,-1
13:59:21:95246,8,5,-3,-11,-15,-15,9,12
13:59:21:103437,8,5,-3,-11,-15,-15,9,12
13:59:21:104171,-7,4,10,15,-9,-13,-61,-11
13:59:21:118391,14,8,9,8,10,15,-2,-7
13:59:21:119158,14,8,9,8,10,15,-2,-7
13:59:21:125339,-18,-5,-17,4,3,15,27,6
13:59:21:132709,-5,4,-8,-19,-16,4,-16,-5
13:59:21:140239,-5,4,-8,-19,-16,4,-16,-5
13:59:21:147700,11,9,5,-4,18,-6,1,9
13:59:21:155262,14,1,-7,-11,9,1,-42,-8
13:59:21:163445,14,1,-7,-11,9,1,-42,-8
13:59:21:164257,0,-6,0,-6,-15,0,8,-5
13:59:21:178438,-14,-7,12,-4,-25,-18,-5,-1
13:59:21:179183,-14,-7,12,-4,-25,-18,-5,-1
13:59:21:185161,8,5,-13,-1,13,8,2,-6
13:59:21:192823,13,-2,9,32,30,4,9,7
13:59:21:200242,13,-2,9,32,30,4,9,7
13:59:21:207719,-6,11,2,10,14,11,10,4
13:59:21:215201,-21,-6,-10,-11,-16,-3,-2,-8
13:59:21:223472,-21,-6,-10,-11,-16,-3,-2,-8
13:59:21:224234,16,7,1,-14,-26,-18,-16,-2
13:59:21:238541,-6,-8,6,0,7,15,44,7
13:59:21:239220,-6,-8,6,0,7,15,44,7
13:59:21:245236,-8,-2,2,22,27,7,-24,-2
13:59:21:260905,-6,-2,7,21,17,6,-25,-4
13:59:21:261737,-6,-2,7,21,17,6,-25,-4
13:59:21:267670,-16,-10,-9,3,-14,-10,-13,-9
13:59:21:275316,3,34,9,-7,-20,-25,-2,5
13:59:21:283391,3,34,9,-7,-20,-25,-2,5
13:59:21:284211,-2,6,11,-10,-10,-13,-8,-7
13:59:21:306578,-13,-4,10,-9,-10,-3,4,-4
13:59:21:307348,-13,-4,10,-9,-10,-3,4,-4
13:59:21:308174,-38,-20,15,-7,-8,-7,10,-5
13:59:21:312725,-29,-13,-30,-19,-17,-5,3,-13
13:59:21:320244,-29,-13,-30,-19,-17,-5,3,-13
13:59:21:327709,19,13,6,12,-13,-6,3,15
13:59:21:335187,-4,-4,-1,9,17,11,-11,4
13:59:21:343532,-4,-4,-1,9,17,11,-11,4
13:59:21:344224,7,3,5,-8,5,-11,-25,-12
13:59:21:358464,7,-1,-3,-1,-13,-15,12,8
13:59:21:359177,7,-1,-3,-1,-13,-15,12,8
13:59:21:365182,-23,-9,-2,-27,-12,-11,28,-8
13:59:21:372683,24,1,4,2,-1,-2,-16,6
13:59:21:380273,24,1,4,2,-1,-2,-16,6
13:59:21:387798,-6,-11,-2,10,5,8,8,-1
13:59:21:395220,-5,-6,-8,-7,0,-1,-6,-6
13:59:21:403451,-5,-6,-8,-7,0,-1,-6,-6
13:59:21:404240,22,15,-13,-14,11,24,14,9
13:59:21:418454,-13,-18,-14,16,1,-5,-7,-10
13:59:21:419216,-13,-18,-14,16,1,-5,-7,-10
13:59:21:425296,-1,-16,-10,-9,-9,-22,-13,-2
13:59:21:432687,7,5,9,-4,-1,9,9,10
13:59:21:448440,7,5,9,-4,-1,9,9,10
13:59:21:449199,-5,2,-2,18,4,0,15,2
13:59:21:455323,-8,-10,-23,-13,-9,0,-6,-9
13:59:21:462790,-8,-10,-23,-13,-9,0,-6,-9
13:59:21:470218,15,12,7,-5,16,20,9,-3
13:59:21:478450,4,5,-16,-9,1,3,27,7
13:59:21:479219,4,5,-16,-9,1,3,27,7
13:59:21:485203,4,2,3,1,-20,-16,-18,-4
13:59:21:500885,15,16,4,-4,-1,15,-13,6
13:59:21:501707,15,16,4,-4,-1,15,-13,6
13:59:21:507774,-16,-13,-4,14,4,12,-16,-8
13:59:21:515200,7,-1,9,38,39,-3,-10,-4
13:59:21:522763,7,-1,9,38,39,-3,-10,-4
13:59:21:530232,6,-5,-11,0,22,36,31,5
13:59:21:538501,-24,-4,-20,-31,-19,-9,-2,0
13:59:21:539169,-24,-4,-20,-31,-19,-9,-2,0
13:59:21:545269,-16,7,1,-5,-11,-19,-49,-5
13:59:21:560974,4,4,28,-3,-26,-15,13,1
13:59:21:561750,4,4,28,-3,-26,-15,13,1
13:59:21:567693,4,-10,-2,-18,3,4,-27,-5
13:59:21:575334,-1,-7,12,2,1,-9,-4,-5
13:59:21:582741,-1,-7,12,2,1,-9,-4,-5
13:59:21:590265,7,24,1,4,-1,-2,3,-5
13:59:21:598415,-27,-8,-8,-13,-11,-19,-9,-3
13:59:21:599210,-27,-8,-8,-13,-11,-19,-9,-3
13:59:21:605297,13,-2,-7,-13,-10,10,20,3
13:59:21:620979,-21,4,6,16,22,16,-5,-3
13:59:21:621712,-21,4,6,16,22,16,-5,-3
13:59:21:627756,-25,-28,2,5,-19,-18,20,9
13:59:21:635217,13,-18,-23,-12,-12,0,-11,-12
13:59:21:642905,13,-18,-23,-12,-12,0,-11,-12
13:59:21:650182,0,6,-2,-6,-3,-10,11,2
13:59:21:658481,4,-4,-6,-21,3,27,58,7
13:59:21:659168,4,-4,-6,-21,3,27,58,7
13:59:21:665161,14,-2,5,9,16,4,-8,10
13:59:21:680911,16,7,8,11,14,5,5,7
13:59:21:681717,16,7,8,11,14,5,5,7
13:59:21:687749,-3,-1,0,18,-16,-12,-12,-7
13:59:21:695132,0,2,8,15,3,7,-20,-1
13:59:21:702743,0,2,8,15,3,7,-20,-1
13:59:21:710266,11,16,10,-1,4,7,6,-2
13:59:21:718399,-3,2,0,24,0,2,-13,-11
13:59:21:719229,-3,2,0,24,0,2,-13,-11
13:59:21:725460,2,7,6,2,13,5,6,3
13:59:21:741025,-8,-3,-10,-1,-5,-9,-11,-9
13:59:21:741730,-8,-3,-10,-1,-5,-9,-11,-9
13:59:21:747664,-19,-9,2,1,-9,-36,-25,-17
13:59:21:755276,-21,-1,-9,18,10,-13,3,-10
13:59:21:762748,-21,-1,-9,18,10,-13,3,-10
13:59:21:779096,12,1,21,2,-3,4,35,4
13:59:21:779839,9,6,1,-10,-29,-29,-25,-2
13:59:21:780692,9,6,1,-10,-29,-29,-25,-2
13:59:21:785157,11,-8,-9,-8,33,29,11,14
13:59:21:800893,21,-11,-1,20,4,12,-12,2
13:59:21:801677,21,-11,-1,20,4,12,-12,2
13:59:21:807766,0,4,-23,-26,-27,-6,0,-1
13:59:21:815182,6,-1,13,-16,0,6,21,9
13:59:21:822811,6,-1,13,-16,0,6,21,9
13:59:21:830198,9,13,-3,5,-13,-9,-7,-3
13:59:21:838500,-23,-10,-24,1,9,8,4,1
13:59:21:839276,-23,-10,-24,1,9,8,4,1
13:59:21:845210,-20,-1,2,10,-4,20,12,-4
13:59:21:860952,8,9,9,-1,23,18,8,13
13:59:21:861757,8,9,9,-1,23,18,8,13
13:59:21:867673,-5,-11,-13,-23,2,-11,-6,-6
13:59:21:875293,-5,-4,-8,-6,0,-26,-13,2
13:59:21:882742,-5,-4,-8,-6,0,-26,-13,2
13:59:21:890231,4,-15,-5,-8,-27,-17,2,1
13:59:21:898443,6,-6,-11,-11,-12,-17,-12,-14
13:59:21:899211,6,-6,-11,-11,-12,-17,-12,-14
13:59:21:905281,0,-2,-25,14,11,9,9,4
13:59:21:920980,9,11,2,-20,-12,-8,-4,-3
13:59:21:921696,9,11,2,-20,-12,-8,-4,-3
13:59:21:927699,-5,17,3,7,17,23,5,-2
13:59:21:935197,26,10,18,16,-33,-23,-23,-3
13:59:21:942823,26,10,18,16,-33,-23,-23,-3
13:59:21:950182,-10,5,10,4,12,-3,-13,-6
13:59:21:958478,0,-3,20,-1,20,17,9,-2
13:59:21:959229,0,-3,20,-1,20,17,9,-2
13:59:21:972752,4,-21,-6,-37,-25,1,-25,-9
13:59:21:980904,-5,32,1,-9,-3,-4,3,4
13:59:21:981694,-5,32,1,-9,-3,-4,3,4
13:59:21:987915,14,-6,-7,14,31,8,29,4
13:59:21:995257,3,-6,-48,-21,-7,5,-4,0
13:59:22:2759,3,-6,-48,-21,-7,5,-4,0
13:59:22:10310,-9,-7,22,-13,-15,-9,7,7
13:59:22:18428,3,-8,4,-22,-11,-11,-3,5
13:59:22:19212,3,-8,4,-22,-11,-11,-3,5
13:59:22:25236,4,7,5,11,-1,-29,-15,-4
13:59:22:40907,2,-14,2,-1,-4,10,26,9
13:59:22:41679,2,-14,2,-1,-4,10,26,9
13:59:22:47696,19,0,14,25,13,-10,-59,-5
13:59:22:55297,-20,-7,4,35,13,-7,-2,-3
13:59:22:62809,-20,-7,4,35,13,-7,-2,-3
13:59:22:70254,13,3,-4,-4,-4,11,10,1
13:59:22:78395,4,-2,-4,-4,2,11,-16,-4
13:59:22:79202,4,-2,-4,-4,2,11,-16,-4
13:59:22:85187,-22,7,-11,1,-21,-12,-19,-16
13:59:22:100888,22,-8,23,34,6,4,-36,-8
13:59:22:101692,22,-8,23,34,6,4,-36,-8
13:59:22:107735,-16,-12,-25,-22,20,30,33,8
13:59:22:115182,-8,7,2,-22,2,1,22,-9
13:59:22:122812,-8,7,2,-22,2,1,22,-9
13:59:22:130213,-2,-20,-3,-1,-14,-14,-10,-7
13:59:22:138526,-28,-6,-4,-7,-8,7,26,3
13:59:22:139253,-28,-6,-4,-7,-8,7,26,3
13:59:22:145214,-4,9,8,-2,-9,0,-22,-4
13:59:22:169052,7,-7,1,-7,11,12,-5,-1
13:59:22:169847,7,-7,1,-7,11,12,-5,-1
13:59:22:170656,-15,-1,1,-16,-11,2,22,-6
13:59:22:175313,-7,-26,-15,16,4,-9,2,-1
13:59:22:182709,-7,-26,-15,16,4,-9,2,-1
13:59:22:190200,-11,17,6,7,3,11,18,5
13:59:22:198408,-21,33,2,-23,-10,-4,-26,-17
13:59:22:199198,-21,33,2,-23,-10,-4,-26,-17
13:59:22:205228,0,0,0,5,1,2,5,4
13:59:22:220981,6,4,3,-1,-21,-41,-17,-5
13:59:22:221680,6,4,3,-1,-21,-41,-17,-5
13:59:22:227697,-14,-6,5,-4,24,79,56,-5
13:59:22:235222,6,-2,-20,-1,7,10,16,4
13:59:22:242818,6,-2,-20,-1,7,10,16,4
13:59:22:250167,16,-6,-22,25,-8,-48,-58,-10
13:59:22:258481,2,-12,-4,-10,-19,-8,-14,-10
13:59:22:259194,2,-12,-4,-10,-19,-8,-14,-10
13:59:22:265172,-10,7,11,6,4,0,19,6
13:59:22:280919,-3,-10,-4,-17,-9,-16,-41,-3
13:59:22:281768,-3,-10,-4,-17,-9,-16,-41,-3
13:59:22:287811,-20,-11,13,11,-7,-1,-13,-8
13:59:22:295176,4,7,21,22,14,12,24,5
13:59:22:302770,4,7,21,22,14,12,24,5
13:59:22:310324,13,-3,2,0,-4,8,27,10
13:59:22:318359,0,-18,2,-3,-11,-2,24,-6
13:59:22:319140,0,-18,2,-3,-11,-2,24,-6
13:59:22:325272,13,1,-9,-26,-12,-20,-21,-5
13:59:22:341002,12,1,-13,1,5,-3,-6,7
13:59:22:341745,12,1,-13,1,5,-3,-6,7
13:59:22:347735,-6,-32,-11,-13,8,-12,-48,-6
13:59:22:355302,2,14,14,-8,7,44,22,14
13:59:22:362800,2,14,14,-8,7,44,22,14
13:59:22:370302,0,11,15,30,20,1,-5,-4
13:59:22:378437,-2,-24,-6,-10,-21,-26,-6,-8
13:59:22:379216,-2,-24,-6,-10,-21,-26,-6,-8
13:59:22:385221,-1,-14,-5,-6,-17,-8,-3,-6
13:59:22:400855,-9,26,6,22,24,12,5,5
13:59:22:401674,-9,26,6,22,24,12,5,5
13:59:22:407740,0,-12,-15,8,-9,-24,-6,-2
13:59:22:423409,-16,-27,-12,4,25,26,16,-3
13:59:22:424215,-16,-27,-12,4,25,26,16,-3
13:59:22:430260,13,11,-6,-16,-20,-26,-24,0
13:59:22:445911,9,7,2,-5,0,16,11,2
13:59:22:446736,9,7,2,-5,0,16,11,2
13:59:22:452722,-32,3,6,0,-7,3,-5,0
13:59:22:460985,5,-1,0,16,-3,-10,-31,-1
13:59:22:461788,5,-1,0,16,-3,-10,-31,-1
13:59:22:467672,22,-32,11,-24,-11,7,33,10
13:59:22:483397,-7,3,5,-13,-19,-13,34,6
13:59:22:484210,-7,3,5,-13,-19,-13,34,6
13:59:22:490223,16,24,3,-5,-1,5,-18,-5
13:59:22:498496,-5,14,-7,-7,-2,-17,-24,-10
13:59:22:499215,-5,14,-7,-7,-2,-17,-24,-10
13:59:22:512737,15,2,0,30,37,20,-1,6
13:59:22:529141,5,-7,0,-5,0,3,7,-2
13:59:22:529911,5,-7,0,-5,0,3,7,-2
13:59:22:530679,-31,2,6,1,-13,0,17,-3
13:59:22:543484,-12,-3,-1,17,0,3,-6,5
13:59:22:544283,-12,-3,-1,17,0,3,-6,5
13:59:22:550148,-12,4,-6,-27,5,-15,-41,-4
13:59:22:558462,-3,-15,-17,3,-4,-10,-1,1
13:59:22:559196,-3,-15,-17,3,-4,-10,-1,1
13:59:22:572797,-14,-16,-1,11,25,27,26,-3
13:59:22:580873,5,12,4,-16,-3,-6,-23,-10
13:59:22:581694,5,12,4,-16,-3,-6,-23,-10
13:59:22:587777,3,-2,-14,-9,-23,-20,1,1
13:59:22:603370,-8,-13,-2,10,8,11,41,11
13:59:22:604269,-8,-13,-2,10,8,11,41,11
13:59:22:610338,30,33,16,-1,-23,-23,-28,3
13:59:22:618413,1,7,7,0,-2,4,-33,-9
13:59:22:619179,1,7,7,0,-2,4,-33,-9
13:59:22:632726,0,6,-4,8,9,12,-4,1
13:59:22:640966,8,3,-4,-3,-3,-10,11,-2
13:59:22:641728,8,3,-4,-3,-3,-10,11,-2
13:59:22:647746,15,1,-9,-8,7,5,37,9
13:59:22:663441,-10,-12,-1,-14,3,-10,-30,-14
13:59:22:664229,-10,-12,-1,-14,3,-10,-30,-14
13:59:22:670307,-14,-11,-2,1,-17,-10,35,0
13:59:22:678424,9,-3,-5,6,11,16,2,-2
13:59:22:679195,9,-3,-5,6,11,16,2,-2
13:59:22:692780,-14,-6,-15,-6,11,39,44,6
13:59:22:700900,-14,-6,-15,-6,11,39,44,6
13:59:22:701676,-11,12,30,-9,-18,-9,30,5
13:59:22:707841,18,5,7,23,13,0,-5,-4
13:59:22:723485,18,5,7,23,13,0,-5,-4
13:59:22:724265,13,44,-4,1,12,2,-21,8
13:59:22:730226,3,-7,-41,-12,-12,-11,20,6
13:59:22:737890,3,-7,-41,-12,-12,-11,20,6
13:59:22:745282,2,-26,-16,-7,-1,-8,1,-1
13:59:22:752703,-9,3,7,-15,-4,-11,-22,-9
13:59:22:760913,-9,3,7,-15,-4,-11,-22,-9
13:59:22:761693,17,3,1,-6,5,11,26,9
13:59:22:767642,4,-5,1,-10,-2,4,29,0
13:59:22:783382,4,-5,1,-10,-2,4,29,0
13:59:22:784187,5,13,2,-2,-21,-8,8,5
13:59:22:790256,-15,9,8,10,21,-12,-26,-11
13:59:22:806040,-15,9,8,10,21,-12,-26,-11
13:59:22:806718,2,-10,2,4,-6,-6,-35,-10
13:59:22:812724,-1,-9,-23,-17,-20,-20,-30,0
13:59:22:820972,-1,-9,-23,-17,-20,-20,-30,0
13:59:22:821678,-5,-14,-19,-1,-12,16,6,-2
13:59:22:827751,-25,25,17,4,-1,14,7,-10
13:59:22:843531,-25,25,17,4,-1,14,7,-10
13:59:22:844211,-21,-7,-3,-6,-1,-22,-13,-8
13:59:22:850204,-7,-25,-2,4,3,2,12,-2
13:59:22:858529,-7,-25,-2,4,3,2,12,-2
13:59:22:859232,-18,4,14,11,3,6,10,1
13:59:22:881584,3,-5,-6,-39,-12,20,-3,-1
13:59:22:882422,3,-5,-6,-39,-12,20,-3,-1
13:59:22:883182,-11,-10,-16,-4,18,6,10,0
13:59:22:887796,-37,-21,-20,3,-8,-2,-12,-10
13:59:22:903421,-37,-21,-20,3,-8,-2,-12,-10
13:59:22:904220,-1,-14,-21,-1,-23,-25,-20,-9
13:59:22:910237,20,12,22,16,11,3,22,14
13:59:22:918413,20,12,22,16,11,3,22,14
13:59:22:919190,-2,-23,-1,9,1,1,1,-1
13:59:22:932678,8,-7,-8,-6,4,-3,-10,-2
13:59:22:940970,8,-7,-8,-6,4,-3,-10,-2
13:59:22:941741,-25,17,26,15,4,-7,-4,-11
13:59:22:947690,3,7,6,-5,-20,-6,5,5
13:59:22:963463,3,7,6,-5,-20,-6,5,5
13:59:22:964174,13,15,-6,-16,-1,-7,16,11
13:59:22:970229,-6,30,20,18,12,4,-4,-1
13:59:22:978489,-6,30,20,18,12,4,-4,-1
13:59:22:979241,-2,-4,5,-13,0,-2,-6,7
13:59:22:992831,21,-5,8,13,20,8,21,7
13:59:23:912,21,-5,8,13,20,8,21,7
13:59:23:1676,-35,2,-17,3,5,30,-9,-3
13:59:23:8012,1,-22,-21,5,9,1,-14,-4
13:59:23:23421,1,-22,-21,5,9,1,-14,-4
13:59:23:24165,24,5,-1,-10,-21,-29,-36,-9
13:59:23:30271,-14,-3,-14,-3,-4,1,14,1
13:59:23:38475,-14,-3,-14,-3,-4,1,14,1
13:59:23:39189,-2,-3,6,23,1,-3,1,-6
13:59:23:52716,17,-2,-3,-6,26,-16,-21,3
13:59:23:60936,17,-2,-3,-6,26,-16,-21,3
13:59:23:61704,4,7,7,-14,-4,14,46,16
13:59:23:67653,-26,-2,-5,-6,-16,-16,-4,0
13:59:23:83389,-26,-2,-5,-6,-16,-16,-4,0
13:59:23:84163,-6,-9,11,-1,14,19,17,-6
13:59:23:90255,8,-13,-2,5,-8,-7,-3,-1
13:59:23:98414,8,-13,-2,5,-8,-7,-3,-1
13:59:23:99159,6,-15,-9,-12,-18,-3,-4,-7
13:59:23:112788,-4,-12,10,-8,-21,2,5,-7
13:59:23:121012,-4,-12,10,-8,-21,2,5,-7
13:59:23:121700,12,-9,-36,-3,12,-12,-41,0
13:59:23:127779,0,23,5,-5,-7,14,-8,1
13:59:23:143498,0,23,5,-5,-7,14,-8,1
13:59:23:144231,0,11,19,15,26,8,13,4
13:59:23:150180,6,14,4,-2,-5,6,17,9
13:59:23:165902,6,14,4,-2,-5,6,17,9
13:59:23:166696,-20,-23,-5,22,-14,-5,22,-1
13:59:23:172746,-23,-5,13,21,10,-15,-17,-12
13:59:23:180959,-23,-5,13,21,10,-15,-17,-12
13:59:23:181739,9,-16,2,-15,-12,-20,6,3
13:59:23:187894,3,-7,13,-4,10,3,-9,-1
13:59:23:203490,3,-7,13,-4,10,3,-9,-1
13:59:23:204245,-1,9,-3,6,-1,9,8,0
13:59:23:210302,22,2,-5,5,11,22,34,8
13:59:23:218410,22,2,-5,5,11,22,34,8
13:59:23:219191,-7,3,15,0,5,-16,-18,-2
13:59:23:232682,-9,-30,-20,-1,-16,-5,-12,-4
13:59:23:241008,-9,-30,-20,-1,-16,-5,-12,-4
13:59:23:241719,17,44,-2,-18,-15,-3,9,2
13:59:23:247703,-8,-5,3,19,-5,-5,-1,-10
13:59:23:263449,-8,-5,3,19,-5,-5,-1,-10
13:59:23:264213,12,-10,-15,0,11,-2,-23,-3
13:59:23:279108,11,16,-8,-27,-15,-50,-68,-4
13:59:23:279901,11,16,-8,-27,-15,-50,-68,-4
13:59:23:280731,-27,-6,-3,-8,-18,-7,-45,-16
13:59:23:292789,-8,-2,-1,6,4,9,27,1
13:59:23:300887,-8,-2,-1,6,4,9,27,1
13:59:23:301682,-5,3,-1,0,6,2,6,0
13:59:23:307734,-4,-3,8,1,-15,-11,-27,-4
13:59:23:323423,-4,-3,8,1,-15,-11,-27,-4
13:59:23:324202,9,-5,-3,-3,12,6,6,0
13:59:23:330262,0,26,11,-13,1,3,13,1
13:59:23:337830,0,26,11,-13,1,3,13,1
13:59:23:345212,-6,-16,11,33,11,-3,-27,-8
13:59:23:361541,-8,-30,5,2,2,26,21,2
13:59:23:362412,-8,-30,5,2,2,26,21,2
13:59:23:363197,14,12,3,-12,-1,-3,-10,0
13:59:23:375275,-36,-18,-14,-11,-6,4,22,-6
13:59:23:383365,-36,-18,-14,-11,-6,4,22,-6
13:59:23:384206,-10,3,11,2,-2,-4,-17,-1
13:59:23:390265,37,-1,-11,6,3,-15,-15,1
13:59:23:397753,37,-1,-11,6,3,-15,-15,1
13:59:23:405282,7,11,12,-12,-2,6,15,5
13:59:23:412710,-8,-3,-14,-19,-4,3,6,3
13:59:23:420955,-8,-3,-14,-19,-4,3,6,3
13:59:23:421730,7,-12,-18,3,-10,-16,-23,0
13:59:23:444176,22,6,11,6,3,27,35,10
13:59:23:444835,22,6,11,6,3,27,35,10
13:59:23:445664,-9,-4,-9,-8,-20,-32,-21,-3
13:59:23:450190,-26,-11,-12,4,3,3,-22,-9
13:59:23:457842,-26,-11,-12,4,3,3,-22,-9
13:59:23:465218,9,0,-10,-13,-3,13,7,4
13:59:23:472785,9,17,1,-12,-21,-20,-2,-4
13:59:23:480924,9,17,1,-12,-21,-20,-2,-4
13:59:23:481688,25,-6,-9,-4,16,-3,18,4
13:59:23:495247,6,8,15,2,17,5,-12,-5
13:59:23:503417,6,8,15,2,17,5,-12,-5
13:59:23:504168,-11,-6,5,6,-12,6,3,-11
13:59:23:510261,20,-3,7,-9,-9,-5,-8,4
13:59:23:517749,20,-3,7,-9,-9,-5,-8,4
13:59:23:525273,-8,-3,16,-13,-19,3,20,2
13:59:23:532656,-6,4,-14,17,33,4,9,4
13:59:23:541006,-6,4,-14,17,33,4,9,4
13:59:23:541687,-26,-12,-12,-3,2,4,6,-6
13:59:23:555242,-2,6,-12,-2,-8,-4,1,2
13:59:23:563421,-2,6,-12,-2,-8,-4,1,2
13:59:23:564221,-11,0,-1,-5,-21,-1,44,6
13:59:23:570146,19,14,-6,11,14,-6,-39,-5
13:59:23:577879,19,14,-6,11,14,-6,-39,-5
13:59:23:585182,22,-6,0,-15,-9,0,-12,-3
13:59:23:592811,-26,7,8,20,12,-4,-4,-1
13:59:23:600928,-26,7,8,20,12,-4,-4,-1
13:59:23:601702,-7,-3,-3,3,25,31,25,4
13:59:23:615183,11,13,2,-16,-6,4,3,1
13:59:23:623470,11,13,2,-16,-6,4,3,1
13:59:23:624258,7,-4,3,20,-15,-20,-19,-4
13:59:23:638505,5,17,11,-10,-1,-5,12,-3
13:59:23:639211,5,17,11,-10,-1,-5,12,-3
13:59:23:645223,12,19,3,2,4,14,-10,-5
13:59:23:652709,-6,-7,-10,-5,-34,-19,-10,4
13:59:23:660976,-6,-7,-10,-5,-34,-19,-10,4
13:59:23:661734,2,5,4,11,24,18,7,3
13:59:23:675282,7,-8,-2,3,-3,-11,-13,-5
13:59:23:683382,7,-8,-2,3,-3,-11,-13,-5
13:59:23:684203,-2,-35,-12,-15,7,-3,3,0
13:59:23:690190,-1,-14,2,-2,-18,-15,-19,-8
13:59:23:697784,-1,-14,2,-2,-18,-15,-19,-8
13:59:23:705260,-3,-9,5,5,8,-13,-4,-1
13:59:23:712737,-8,-9,6,-11,-6,9,-4,-12
13:59:23:721065,-8,-9,6,-11,-6,9,-4,-12
13:59:23:721764,20,7,-6,-9,20,12,-24,-2
13:59:23:735191,-12,-11,5,-5,-15,-10,7,9
13:59:23:743492,-12,-11,5,-5,-15,-10,7,9
13:59:23:744245,-22,8,10,12,-2,0,18,3
13:59:23:750176,11,1,-4,-5,15,-5,-13,-1
13:59:23:757865,11,1,-4,-5,15,-5,-13,-1
13:59:23:765217,2,48,5,-5,-26,-15,-2,2
13:59:23:772809,2,5,10,5,-1,-1,-29,-7
13:59:23:780915,2,5,10,5,-1,-1,-29,-7
13:59:23:781687,-8,2,10,-5,-5,-8,-36,-13
13:59:23:795214,6,-6,-7,12,11,-3,11,2
13:59:23:803428,6,-6,-7,12,11,-3,11,2
13:59:23:804225,-1,-6,1,-1,-6,-1,29,2
13:59:23:810239,-6,2,10,33,21,14,12,0
13:59:23:817709,-6,2,10,33,21,14,12,0
13:59:23:825361,-28,-15,-23,-22,-23,-22,-52,-19
13:59:23:832719,-5,-7,2,-5,-7,15,2,-3
13:59:23:840969,-5,-7,2,-5,-7,15,2,-3
13:59:23:841690,1,16,-1,6,18,-8,-18,-2
13:59:23:855255,17,-8,-10,-18,-22,-1,20,4
13:59:23:863402,17,-8,-10,-18,-22,-1,20,4
13:59:23:864212,-2,-10,-11,-8,-5,1,18,2
13:59:23:870253,-9,-4,-7,1,-8,1,2,-3
13:59:23:877766,-9,-4,-7,1,-8,1,2,-3
13:59:23:885170,-3,15,7,2,-1,7,10,2
13:59:23:892739,-4,-1,-6,-4,11,-6,-16,-8
13:59:23:900879,-4,-1,-6,-4,11,-6,-16,-8
13:59:23:901689,0,-19,3,5,14,11,10,4
13:59:23:915271,-20,14,-13,-23,-7,-21,27,3
13:59:23:923453,-20,14,-13,-23,-7,-21,27,3
13:59:23:924208,18,13,2,-7,-11,2,12,1
13:59:23:930181,-10,-8,-3,-4,21,5,-17,-9
13:59:23:937902,-10,-8,-3,-4,21,5,-17,-9
13:59:23:945197,-8,-16,-4,3,5,6,19,11
13:59:23:952676,-8,1,-6,9,-2,0,15,3
13:59:23:960945,-8,1,-6,9,-2,0,15,3
13:59:23:961767,-2,-13,-5,-10,-2,-3,-3,-3
13:59:23:975309,-2,-22,12,-5,-1,-1,16,3
13:59:23:983388,-2,-22,12,-5,-1,-1,16,3
13:59:23:984208,-2,-3,-20,25,12,-4,-18,-2
13:59:23:990223,4,-1,-4,14,-12,14,9,2
13:59:23:997774,4,-1,-4,14,-12,14,9,2
13:59:24:5314,3,18,17,35,6,-30,-6,3
13:59:24:12738,15,1,-11,-11,4,42,26,-1
13:59:24:21067,15,1,-11,-11,4,42,26,-1
13:59:24:21767,-6,-2,11,-10,-1,3,-19,-7
13:59:24:35174,-10,-7,6,-8,-8,-15,-10,-1
13:59:24:43488,-10,-7,6,-8,-8,-15,-10,-1
13:59:24:44200,15,-3,-3,-7,-9,-3,-1,-4
13:59:24:50196,20,0,-7,-2,-14,3,-17,-3
13:59:24:65938,20,0,-7,-2,-14,3,-17,-3
13:59:24:66693,-4,-34,-4,0,6,12,10,1
13:59:24:72738,-14,-2,-3,-3,11,-2,-2,2
13:59:24:80984,-14,-2,-3,-3,11,-2,-2,2
13:59:24:81766,-8,-4,0,-4,-7,6,3,-3
13:59:24:95229,-4,0,6,6,-18,-34,-12,3
13:59:24:111611,-4,0,6,6,-18,-34,-12,3
13:59:24:112392,-11,12,3,-11,-1,-12,-47,-6
13:59:24:113201,-4,-8,-14,-5,15,16,17,-10
13:59:24:117747,-4,-8,-14,-5,15,16,17,-10
13:59:24:125293,8,14,-17,-18,7,3,25,8
13:59:24:132635,14,22,9,-5,-3,-1,3,11
13:59:24:141024,14,22,9,-5,-3,-1,3,11
13:59:24:141781,6,-2,-9,-9,-15,-15,-12,-1
13:59:24:155271,6,-11,21,-7,-11,-6,5,-7
13:59:24:163474,6,-11,21,-7,-11,-6,5,-7
13:59:24:164217,11,-5,0,-2,5,-2,-11,5
13:59:24:170216,-6,3,-4,-3,-3,-3,1,-1
13:59:24:177806,-6,3,-4,-3,-3,-3,1,-1
13:59:24:185217,-18,-23,2,-24,-11,3,19,2
13:59:24:192804,6,3,-38,6,13,-9,-3,4
13:59:24:200260,6,3,-38,6,13,-9,-3,4
13:59:24:207770,-28,-7,-26,-20,-6,1,-4,-16
13:59:24:215226,-17,-14,9,-9,10,9,-2,-3
13:59:24:223403,-17,-14,9,-9,10,9,-2,-3
13:59:24:224185,26,8,2,9,-14,-2,-19,-1
13:59:24:230244,0,3,1,-9,-13,14,-2,-1
13:59:24:237850,0,3,1,-9,-13,14,-2,-1
13:59:24:245193,-10,1,11,-9,-3,-11,19,-5
13:59:24:252672,7,4,3,8,12,5,2,4
13:59:24:260964,7,4,3,8,12,5,2,4
13:59:24:261681,0,16,40,13,1,10,4,0
13:59:24:275332,-9,-6,2,6,-7,-7,29,14
13:59:24:283407,-9,-6,2,6,-7,-7,29,14
13:59:24:284192,20,20,2,13,13,-9,0,8
13:59:24:298177,7,-12,2,0,-14,0,-32,-9
13:59:24:306024,7,-12,2,0,-14,0,-32,-9
13:59:24:306672,-22,-11,-8,-7,-8,5,-2,-7
13:59:24:312776,-12,-8,0,9,16,4,-16,-8
13:59:24:320225,-12,-8,0,9,16,4,-16,-8
13:59:24:327725,-11,-16,-18,3,-2,-6,-5,-10
13:59:24:335171,19,16,0,8,-9,1,-5,-4
13:59:24:343502,19,16,0,8,-9,1,-5,-4
13:59:24:344240,5,-2,9,9,1,-11,5,16
13:59:24:358528,11,9,4,5,19,14,-6,2
13:59:24:359167,11,9,4,5,19,14,-6,2
13:59:24:365235,6,20,3,2,-8,12,26,3
13:59:24:372770,-5,19,13,-2,-10,-6,11,-1
13:59:24:388558,-5,19,13,-2,-10,-6,11,-1
13:59:24:389170,-6,-11,7,-2,-1,4,8,-5
13:59:24:395195,-9,7,-3,-7,0,-7,-13,-5
13:59:24:403438,-9,7,-3,-7,0,-7,-13,-5
13:59:24:404236,-1,0,-1,-1,-6,5,2,-3
13:59:24:418378,6,-29,-6,2,-3,-19,-9,4
13:59:24:419198,6,-29,-6,2,-3,-19,-9,4
13:59:24:425212,2,-2,-7,-2,4,1,-29,-9
13:59:24:432655,3,3,3,4,-6,6,6,3
13:59:24:440274,3,3,3,4,-6,6,6,3
13:59:24:447702,-1,-10,2,21,0,12,6,0
13:59:24:455320,-12,-10,-11,-19,5,-6,4,3
13:59:24:463418,-12,-10,-11,-19,5,-6,4,3
13:59:24:464207,-4,-2,-9,-12,-17,-13,0,3
13:59:24:478422,-32,5,0,12,-4,-5,-25,-13
13:59:24:479211,-32,5,0,12,-4,-5,-25,-13
13:59:24:485177,10,0,6,2,24,17,4,0
13:59:24:492730,-3,-44,-22,-5,-8,-15,-21,-8
13:59:24:500240,-3,-44,-22,-5,-8,-15,-21,-8
13:59:24:507742,-12,-9,-11,-2,0,1,11,0
13:59:24:515213,9,-23,-25,13,9,-8,-3,-1
13:59:24:523452,9,-23,-25,13,9,-8,-3,-1
13:59:24:524207,-19,27,3,22,10,-5,14,-1
13:59:24:538548,4,50,13,5,-14,-16,-8,-9
13:59:24:539237,4,50,13,5,-14,-16,-8,-9
13:59:24:545223,8,-5,-30,-18,-5,-9,-14,-4
13:59:24:552707,-7,1,5,-15,-16,-9,-50,-13
13:59:24:560369,-7,1,5,-15,-16,-9,-50,-13
13:59:24:567708,12,8,5,-1,10,10,-8,-2
13:59:24:575295,2,-9,4,-10,-6,-7,18,6
13:59:24:583371,2,-9,4,-10,-6,-7,18,6
13:59:24:584181,0,-9,-6,-3,-5,5,9,-1
13:59:24:598397,13,28,7,-2,9,21,46,4
13:59:24:599196,13,28,7,-2,9,21,46,4
13:59:24:605306,9,-38,13,-7,15,-4,7,12
13:59:24:612734,-6,3,4,-12,15,26,32,4
13:59:24:620295,-6,3,4,-12,15,26,32,4
13:59:24:627750,-9,4,2,-14,-25,2,4,-4
13:59:24:635220,-9,-12,-6,-18,-8,-37,-27,-3
13:59:24:643469,-9,-12,-6,-18,-8,-37,-27,-3
13:59:24:644197,3,18,10,8,0,5,10,3
13:59:24:658456,-15,-2,-10,-5,-2,-12,-20,-8
13:59:24:659203,-15,-2,-10,-5,-2,-12,-20,-8
13:59:24:665246,2,-7,7,-10,-22,-12,31,7
13:59:24:672813,-8,-12,4,18,21,21,-15,-7
13:59:24:680263,-8,-12,4,18,21,21,-15,-7
13:59:24:687809,8,8,-29,-6,3,3,6,7
13:59:24:695228,-5,-4,-4,-1,-3,-2,18,2
13:59:24:703450,-5,-4,-4,-1,-3,-2,18,2
13:59:24:704211,-4,-1,11,23,4,-23,-40,-16
13:59:24:718413,2,1,16,11,12,14,13,9
13:59:24:719173,2,1,16,11,12,14,13,9
13:59:24:725266,-3,-4,2,0,-1,-4,-5,-3
13:59:24:732657,-13,-28,-8,-12,2,5,0,-2
13:59:24:748408,-13,-28,-8,-12,2,5,0,-2
13:59:24:749166,-5,6,-4,-3,-5,6,25,-3
13:59:24:755254,7,-12,-2,36,15,12,20,-2
13:59:24:763454,7,-12,-2,36,15,12,20,-2
13:59:24:764195,9,9,-10,-12,8,16,-12,1
13:59:24:778415,-4,-1,-2,-5,-10,-13,-19,1
13:59:24:779201,-4,-1,-2,-5,-10,-13,-19,1
13:59:24:785196,1,4,11,7,-4,-8,-9,-8
13:59:24:792720,3,25,-6,-28,-31,-14,-31,0
13:59:24:800229,3,25,-6,-28,-31,-14,-31,0
13:59:24:807749,-37,-15,-8,18,15,-1,-31,-18
13:59:24:815204,8,4,-13,-13,-23,-13,-9,0
13:59:24:823454,8,4,-13,-13,-23,-13,-9,0
13:59:24:824211,-7,-3,7,-9,8,-14,-10,1
13:59:24:838493,2,7,-6,-17,-1,24,21,-1
13:59:24:839211,2,7,-6,-17,-1,24,21,-1
13:59:24:845210,8,-7,-2,17,12,-3,-10,0
13:59:24:852692,27,12,19,12,6,-8,13,10
13:59:24:860327,27,12,19,12,6,-8,13,10
13:59:24:867671,-3,-7,16,4,-1,-8,5,5
13:59:24:875312,6,19,0,-9,1,3,16,2
13:59:24:883424,6,19,0,-9,1,3,16,2
13:59:24:884224,-10,-5,-4,-20,-9,13,-5,-8
13:59:24:898439,-15,-39,-7,-10,-15,14,-10,-7
13:59:24:899198,-15,-39,-7,-10,-15,14,-10,-7
13:59:24:905306,8,-8,-22,-4,-4,11,39,8
13:59:24:912711,-4,-3,-5,4,4,-8,-6,-1
13:59:24:920308,-4,-3,-5,4,4,-8,-6,-1
13:59:24:927755,5,5,1,6,-5,0,0,4
13:59:24:935225,0,5,15,-7,-2,1,2,-4
13:59:24:943480,0,5,15,-7,-2,1,2,-4
13:59:24:944188,10,11,-9,-7,3,5,-41,-1
13:59:24:958455,-12,6,15,5,12,9,17,4
13:59:24:959214,-12,6,15,5,12,9,17,4
13:59:24:965199,10,-13,-5,-9,-9,17,26,-2
13:59:24:972800,-9,-3,-5,1,-6,-4,-6,-7
13:59:24:980267,-9,-3,-5,1,-6,-4,-6,-7
13:59:24:987820,-6,-14,0,4,4,-20,-14,3
13:59:24:995238,-14,1,-6,6,1,-7,-48,-17
13:59:25:3408,-14,1,-6,6,1,-7,-48,-17
13:59:25:4217,-3,3,-6,5,-9,-1,-5,-4
13:59:25:18357,-4,-5,-21,1,1,-9,3,2
13:59:25:19183,-4,-5,-21,1,1,-9,3,2
13:59:25:25342,5,-4,-21,-16,-13,9,11,-4
13:59:25:32664,6,5,13,40,-4,-20,-12,4
13:59:25:40291,6,5,13,40,-4,-20,-12,4
13:59:25:47699,6,3,-10,-7,8,0,-26,4
13:59:25:55221,-2,11,10,-8,11,-2,-56,-11
13:59:25:63449,-2,11,10,-8,11,-2,-56,-11
13:59:25:64206,0,16,9,4,-2,-2,0,-5
13:59:25:78395,-2,-29,-9,-16,-25,-5,19,-1
13:59:25:79200,-2,-29,-9,-16,-25,-5,19,-1
13:59:25:85170,-11,-10,7,20,6,-6,6,2
13:59:25:92712,9,0,-4,7,4,1,30,1
13:59:25:100208,9,0,-4,7,4,1,30,1
13:59:25:107789,-2,9,10,-16,-17,-8,-7,-1
13:59:25:115201,24,-8,-8,-5,2,-1,14,8
13:59:25:123422,24,-8,-8,-5,2,-1,14,8
13:59:25:124229,-20,-2,-6,-6,-11,-20,-19,-2
13:59:25:138488,-3,-4,-15,-2,26,5,0,4
13:59:25:139188,-3,-4,-15,-2,26,5,0,4
13:59:25:145204,-17,6,4,-3,-10,-7,-39,-18
13:59:25:152673,0,24,5,-22,-3,3,6,2
13:59:25:160337,0,24,5,-22,-3,3,6,2
13:59:25:167664,3,-9,7,2,8,-1,-25,-12
13:59:25:175277,8,16,17,-10,-10,18,-14,-4
13:59:25:183415,8,16,17,-10,-10,18,-14,-4
13:59:25:184192,-7,-12,2,-20,-26,-7,24,6
13:59:25:198425,-9,0,-12,-4,2,-11,-10,-3
13:59:25:199226,-9,0,-12,-4,2,-11,-10,-3
13:59:25:205284,36,11,-1,0,14,2,17,8
13:59:25:212713,-2,-1,12,-4,-5,1,-5,5
13:59:25:220254,-2,-1,12,-4,-5,1,-5,5
13:59:25:227730,3,1,3,7,-2,6,41,14
13:59:25:235206,9,-2,-10,-8,-1,22,-9,-6
13:59:25:242867,9,-2,-10,-8,-1,22,-9,-6
13:59:25:250186,1,-12,0,-3,0,-17,2,0
13:59:25:258486,5,-17,-12,5,-4,1,51,3
13:59:25:259280,5,-17,-12,5,-4,1,51,3
13:59:25:265162,-15,6,-2,-3,7,26,17,3
13:59:25:280886,-18,-4,8,6,-11,-21,-14,-11
13:59:25:281688,-18,-4,8,6,-11,-21,-14,-11
13:59:25:287831,-9,-8,20,27,4,13,11,1
13:59:25:295258,-36,-5,-8,27,16,-3,6,-2
13:59:25:302779,-36,-5,-8,27,16,-3,6,-2
13:59:25:310252,-10,18,-12,-6,3,-7,0,-5
13:59:25:318399,-4,20,-3,-9,-3,-9,9,2
13:59:25:319208,-4,20,-3,-9,-3,-9,9,2
13:59:25:325270,-16,-3,1,2,9,-21,-16,-6
13:59:25:340917,-2,1,9,-6,-19,6,44,5
13:59:25:341700,-2,1,9,-6,-19,6,44,5
13:59:25:347678,30,1,-22,-14,-4,6,-1,11
13:59:25:355206,-6,-15,-5,-9,-7,-17,-17,-7
13:59:25:362758,-6,-15,-5,-9,-7,-17,-17,-7
13:59:25:370223,-9,3,17,4,5,-10,-9,1
13:59:25:378421,26,-5,-17,-28,10,6,-19,-2
13:59:25:379248,26,-5,-17,-28,10,6,-19,-2
13:59:25:385165,4,-7,0,-9,3,5,22,7
13:59:25:400881,-9,10,8,-2,-10,-1,-23,-5
13:59:25:401681,-9,10,8,-2,-10,-1,-23,-5
13:59:25:407747,8,0,-12,-7,-10,-1,-3,-6
13:59:25:415252,-8,-5,-5,25,2,-4,17,-1
13:59:25:422920,-8,-5,-5,25,2,-4,17,-1
13:59:25:430216,-7,0,3,4,7,8,6,1
13:59:25:438521,17,-2,-5,-8,-2,-2,4,-7
13:59:25:439228,17,-2,-5,-8,-2,-2,4,-7
13:59:25:445209,2,-12,-4,-12,-17,-2,-37,-8
13:59:25:460993,2,7,9,4,9,-12,-31,7
13:59:25:461748,2,7,9,4,9,-12,-31,7
13:59:25:467695,0,14,-1,-13,-2,-2,-17,-5
13:59:25:475248,-4,-29,-8,-7,-13,-7,-10,-2
13:59:25:482750,-4,-29,-8,-7,-13,-7,-10,-2
13:59:25:490238,-7,-4,5,7,19,13,7,0
13:59:25:498362,18,-2,-4,-10,6,13,18,9
13:59:25:499150,18,-2,-4,-10,6,13,18,9
13:59:25:505259,5,-9,-20,-5,-17,-7,12,-1
13:59:25:520962,15,10,7,6,-1,-6,9,-3
13:59:25:521680,15,10,7,6,-1,-6,9,-3
13:59:25:527748,-18,-33,-8,20,2,-16,-28,-11
13:59:25:535183,13,0,-8,13,14,16,8,4
13:59:25:542778,13,0,-8,13,14,16,8,4
13:59:25:550189,-10,-4,4,-14,12,13,30,-4
13:59:25:558507,-18,1,5,-1,-15,-11,-14,-2
13:59:25:559237,-18,1,5,-1,-15,-11,-14,-2
13:59:25:565178,-14,4,-16,22,3,31,-27,-7
13:59:25:580902,-2,-2,0,4,2,14,12,0
13:59:25:581728,-2,-2,0,4,2,14,12,0
13:59:25:587833,35,2,9,-5,-20,-50,-47,-10
13:59:25:595237,-24,-3,-5,-29,-11,-4,8,-6
13:59:25:602749,-24,-3,-5,-29,-11,-4,8,-6
13:59:25:610285,0,15,18,10,-6,0,-2,11
13:59:25:618400,-3,-10,-21,-13,18,1,-12,-8
13:59:25:619183,-3,-10,-21,-13,18,1,-12,-8
13:59:25:625298,-21,-8,5,4,-12,-4,4,5
13:59:25:640956,-8,8,16,9,-6,-4,-4,-5
13:59:25:641776,-8,8,16,9,-6,-4,-4,-5
13:59:25:647704,24,1,-13,-5,6,15,-6,6
13:59:25:655278,-1,-6,7,11,5,-1,0,3
13:59:25:662783,-1,-6,7,11,5,-1,0,3
13:59:25:670244,-3,-7,4,-6,14,3,8,-4
13:59:25:678455,15,16,-9,-11,6,8,-11,-2
13:59:25:679261,15,16,-9,-11,6,8,-11,-2
13:59:25:685181,11,3,-9,-9,-2,-3,2,-3
13:59:25:700893,-12,-1,-8,-21,-19,-14,-27,0
13:59:25:701678,-12,-1,-8,-21,-19,-14,-27,0
13:59:25:707803,-18,-14,1,-5,-10,-6,6,-10
13:59:25:715214,-19,-5,0,34,3,-8,7,3
13:59:25:722821,-19,-5,0,34,3,-8,7,3
13:59:25:730207,0,-22,30,11,19,9,9,-7
13:59:25:738474,7,1,2,4,10,22,9,-2
13:59:25:739185,7,1,2,4,10,22,9,-2
13:59:25:745272,-8,-10,-24,-3,-20,-8,14,0
13:59:25:760981,-1,0,-18,-6,1,-9,3,8
13:59:25:761769,-1,0,-18,-6,1,-9,3,8
13:59:25:767685,-6,20,7,3,6,-11,8,-1
13:59:25:775332,10,5,-2,6,-4,11,8,1
13:59:25:782687,10,5,-2,6,-4,11,8,1
13:59:25:790244,10,18,25,-2,-7,10,25,4
13:59:25:798388,1,-19,-2,18,5,-12,-12,-1
13:59:25:799147,1,-19,-2,18,5,-12,-12,-1
13:59:25:805289,-19,17,-3,-14,9,3,14,-1
13:59:25:821028,6,0,25,-14,-23,-19,-11,-3
13:59:25:821720,6,0,25,-14,-23,-19,-11,-3
13:59:25:827748,7,30,-2,-1,10,8,-11,-1
13:59:25:835233,5,2,0,4,-10,14,23,9
13:59:25:842822,5,2,0,4,-10,14,23,9
13:59:25:850151,14,-2,-15,-7,-5,-13,-10,5
13:59:25:858489,-15,-8,14,6,4,-10,-3,-4
13:59:25:859176,-15,-8,14,6,4,-10,-3,-4
13:59:25:865179,-5,-18,-20,23,8,0,6,1
13:59:25:880907,-11,-19,-4,4,-1,-8,-19,-2
13:59:25:881689,-11,-19,-4,4,-1,-8,-19,-2
13:59:25:887794,14,2,17,-17,1,-1,11,7
13:59:25:895236,9,10,7,-5,3,10,27,-5
13:59:25:902745,9,10,7,-5,3,10,27,-5
13:59:25:910273,16,-5,8,-19,-24,-15,-41,-15
13:59:25:918153,7,-7,-3,39,21,12,24,8
13:59:25:926022,7,-7,-3,39,21,12,24,8
13:59:25:926725,-17,-17,-18,-5,4,9,10,-6
13:59:25:940998,-15,4,-32,-16,-14,-9,-4,-9
13:59:25:941725,-15,4,-32,-16,-14,-9,-4,-9
13:59:25:947687,-8,1,-10,3,-9,-4,-21,-2
13:59:25:955229,-8,-13,-2,-28,2,14,8,-3
13:59:25:962774,-8,-13,-2,-28,2,14,8,-3
13:59:25:970209,13,17,7,17,12,7,1,18
13:59:25:978468,3,-16,-10,-12,3,-2,-25,7
13:59:25:979242,3,-16,-10,-12,3,-2,-25,7
13:59:25:985169,-5,-10,-6,-4,-20,-12,4,-3
13:59:26:898,-10,7,-3,-9,1,-14,-5,-9
13:59:26:1678,-10,7,-3,-9,1,-14,-5,-9
13:59:26:7758,-13,-5,18,17,0,-12,-18,-7
13:59:26:15199,2,14,12,10,-7,23,25,-8
13:59:26:22794,2,14,12,10,-7,23,25,-8
13:59:26:30228,-12,3,8,-7,-13,-2,9,2
13:59:26:38465,-12,3,8,-7,-13,-2,9,2
13:59:26:39151,34,27,-4,-1,3,-32,-44,1
13:59:26:45227,0,2,-10,9,26,18,18,4
13:59:26:60930,0,2,-10,9,26,18,18,4
13:59:26:61738,-1,-9,12,40,-3,-2,-13,-8
13:59:26:67663,-4,44,-5,10,31,12,-33,-13
13:59:26:83406,-4,44,-5,10,31,12,-33,-13
13:59:26:84172,3,-9,-7,-28,-12,-1,12,-8
13:59:26:90208,-15,-19,-14,-6,-22,-16,-16,-7
13:59:26:98439,-15,-19,-14,-6,-22,-16,-16,-7
13:59:26:99218,-18,7,17,1,-6,9,24,1
13:59:26:105251,-4,-13,-17,-18,-5,0,25,1
13:59:26:121026,-4,-13,-17,-18,-5,0,25,1
13:59:26:121716,7,20,-15,25,5,-10,-21,0
13:59:26:127771,11,3,-18,-16,5,2,19,14
13:59:26:143550,11,3,-18,-16,5,2,19,14
13:59:26:144255,-9,11,14,-4,19,5,14,-5
13:59:26:150171,5,20,12,13,-1,-8,-14,-3
13:59:26:158569,5,20,12,13,-1,-8,-14,-3
13:59:26:159303,5,4,5,-15,-11,-3,-14,0
13:59:26:165198,-17,-31,16,15,-11,-8,-6,-9
13:59:26:180972,-17,-31,16,15,-11,-8,-6,-9
13:59:26:181687,-9,-17,0,-5,4,1,-4,0
13:59:26:187804,-12,-11,-5,-14,-1,10,19,3
13:59:26:203426,-12,-11,-5,-14,-1,10,19,3
13:59:26:204231,-12,-1,5,-3,-1,2,2,1
13:59:26:210280,10,6,11,7,-5,5,21,1
13:59:26:218433,10,6,11,7,-5,5,21,1
13:59:26:219221,7,4,-13,8,-1,0,-25,5
13:59:26:232707,-3,6,21,-5,-6,-2,-4,-8
13:59:26:240970,-3,6,21,-5,-6,-2,-4,-8
13:59:26:241724,-9,-10,-13,-34,-11,-16,-3,-2
13:59:26:247689,9,2,6,-10,-1,12,6,0
13:59:26:263437,9,2,6,-10,-1,12,6,0
13:59:26:264219,12,-9,-2,-2,7,14,10,10
13:59:26:270183,4,-21,-22,-3,-7,3,-5,1
13:59:26:278460,4,-21,-22,-3,-7,3,-5,1
13:59:26:279186,-12,4,-1,-3,-16,-12,10,-6
13:59:26:292844,-11,-2,-30,-1,-1,-1,-1,1
13:59:26:300899,-11,-2,-30,-1,-1,-1,-1,1
13:59:26:301696,-1,-12,18,26,16,17,24,5
13:59:26:307767,-5,-10,-16,-11,-9,-16,1,7
13:59:26:323429,-5,-10,-16,-11,-9,-16,1,7
13:59:26:324235,-16,-9,-3,-15,-1,-6,-12,-6
13:59:26:330297,10,19,6,-2,-1,1,-24,-12
13:59:26:338479,10,19,6,-2,-1,1,-24,-12
13:59:26:339277,-1,-5,4,-17,-4,1,12,2
13:59:26:352725,0,-26,4,4,3,-13,-12,0
13:59:26:360970,0,-26,4,4,3,-13,-12,0
13:59:26:361683,-5,2,5,14,-10,0,2,-7
13:59:26:367642,6,9,9,10,13,5,-24,-10
13:59:26:383377,6,9,9,10,13,5,-24,-10
13:59:26:384149,-17,3,0,17,10,0,1,6
13:59:26:390296,-20,-33,6,6,3,0,-29,-3
13:59:26:398426,-20,-33,6,6,3,0,-29,-3
13:59:26:399187,21,-15,11,-45,-16,-7,-4,-1
13:59:26:412769,-13,25,3,-11,-3,-11,4,-1
13:59:26:421009,-13,25,3,-11,-3,-11,4,-1
13:59:26:421683,-1,6,-8,1,2,-4,3,2
13:59:26:427747,18,0,6,-7,-3,3,6,3
13:59:26:443457,18,0,6,-7,-3,3,6,3
13:59:26:444220,-1,-1,-8,21,-3,-6,-2,-7
13:59:26:450190,22,23,-11,16,4,9,19,11
13:59:26:458471,22,23,-11,16,4,9,19,11
13:59:26:459193,-8,-6,-7,-11,3,8,-14,-1
13:59:26:472806,2,10,19,-5,-2,0,18,10
13:59:26:480899,2,10,19,-5,-2,0,18,10
13:59:26:481710,-6,14,7,4,-11,-15,-71,-13
13:59:26:487805,-2,-12,-9,2,2,0,2,0
13:59:26:503402,-2,-12,-9,2,2,0,2,0
13:59:26:504256,-1,2,-4,-1,-5,-1,10,-5
13:59:26:510279,5,4,-10,3,16,-9,-23,-6
13:59:26:518359,5,4,-10,3,16,-9,-23,-6
13:59:26:519161,-1,-4,-9,-2,-2,-17,-26,-5
13:59:26:532711,-12,-24,-5,-11,3,61,90,0
13:59:26:540980,-12,-24,-5,-11,3,61,90,0
13:59:26:541711,-16,8,-29,0,0,3,22,7
13:59:26:547694,-3,-3,-9,-9,-8,-27,-18,-14
13:59:26:563505,-3,-3,-9,-9,-8,-27,-18,-14
13:59:26:564229,25,-14,-4,-14,-14,-17,-23,-2
13:59:26:570223,-32,1,9,-7,-9,4,2,-6
13:59:26:579133,-32,1,9,-7,-9,4,2,-6
13:59:26:579883,4,-25,3,30,32,16,27,-1
13:59:26:592828,7,1,-22,-4,-1,-14,-24,-3
13:59:26:600924,7,1,-22,-4,-1,-14,-24,-3
13:59:26:601697,7,-5,6,-3,-6,-4,50,13
13:59:26:607762,34,-1,1,-13,-19,-12,-15,10
13:59:26:623445,34,-1,1,-13,-19,-12,-15,10
13:59:26:624226,-8,-22,-3,3,-6,3,-22,-11
13:59:26:630198,4,-6,-3,-2,4,-3,45,5
13:59:26:638573,4,-6,-3,-2,4,-3,45,5
13:59:26:639206,11,-6,-6,-16,-4,1,17,6
13:59:26:652654,0,2,-11,-17,-22,3,2,-1
13:59:26:660948,0,2,-11,-17,-22,3,2,-1
13:59:26:661705,-27,19,9,23,17,5,-13,-6
13:59:26:667679,-14,-13,14,0,6,2,17,0
13:59:26:683397,-14,-13,14,0,6,2,17,0
13:59:26:684176,12,-8,-16,-12,-17,-19,-51,-9
13:59:26:690232,-21,-16,-9,15,10,22,15,-2
13:59:26:698438,-21,-16,-9,15,10,22,15,-2
13:59:26:699195,-18,-35,-37,-9,0,23,21,-4
13:59:26:712759,4,2,-10,-19,-12,-34,-43,-5
13:59:26:721018,4,2,-10,-19,-12,-34,-43,-5
13:59:26:721707,-35,12,22,7,-2,3,-5,-5
13:59:26:727728,3,33,8,-4,11,-3,-22,-3
13:59:26:743489,3,33,8,-4,11,-3,-22,-3
13:59:26:744181,29,7,7,-13,-20,-13,-1,9
13:59:26:750658,-23,-18,3,-7,-2,-4,14,-3
13:59:26:758487,-23,-18,3,-7,-2,-4,14,-3
13:59:26:759211,0,3,3,-10,-6,1,9,4
13:59:26:772765,-3,-21,-6,1,-8,-27,-29,1
13:59:26:780963,-3,-21,-6,1,-8,-27,-29,1
13:59:26:781757,-18,3,22,9,5,-4,-22,-12
13:59:26:787750,4,-16,-7,-6,-11,9,-6,0
13:59:26:803434,4,-16,-7,-6,-11,9,-6,0
13:59:26:804222,20,7,3,1,11,0,-2,1
13:59:26:810275,-8,19,3,2,2,-2,3,-2
13:59:26:818400,-8,19,3,2,2,-2,3,-2
13:59:26:819204,-3,5,0,14,-1,7,31,-2
13:59:26:832750,-14,20,0,32,-9,-12,20,2
13:59:26:840968,-14,20,0,32,-9,-12,20,2
13:59:26:841712,12,-8,-8,-9,7,5,12,5
13:59:26:847679,6,4,18,16,22,3,-20,-4
13:59:26:863854,6,4,18,16,22,3,-20,-4
13:59:26:864650,4,-5,-8,16,1,-8,-11,-1
13:59:26:870259,6,12,21,-11,-9,1,-20,-10
13:59:26:878436,6,12,21,-11,-9,1,-20,-10
13:59:26:879220,22,17,-7,-2,12,14,-9,5
13:59:26:892784,-9,-18,-28,20,5,10,-23,-13
13:59:26:900848,-9,-18,-28,20,5,10,-23,-13
13:59:26:901651,13,9,-18,-6,8,-6,10,3
13:59:26:907785,9,-8,-6,-22,2,11,22,8
13:59:26:923412,9,-8,-6,-22,2,11,22,8
13:59:26:924183,18,-5,13,39,-8,-7,-23,8
13:59:26:930223,-16,-9,13,9,-6,-15,17,5
13:59:26:938495,-16,-9,13,9,-6,-15,17,5
13:59:26:939194,-16,5,-16,3,4,4,0,-9
13:59:26:952715,16,3,-13,35,17,2,22,3
13:59:26:960913,16,3,-13,35,17,2,22,3
13:59:26:961660,-34,-42,8,-20,13,7,-11,-11
13:59:26:967678,-13,-17,-9,-28,-16,-4,3,1
13:59:26:983477,-13,-17,-9,-28,-16,-4,3,1
13:59:26:984194,16,12,-1,-3,0,14,-5,0
13:59:26:990260,3,11,-3,-10,0,-10,-6,-6
13:59:26:998404,3,11,-3,-10,0,-10,-6,-6
13:59:26:999162,-5,2,20,-6,-26,-17,-1,4
13:59:27:12768,18,0,4,21,3,4,-5,-2
13:59:27:21018,18,0,4,21,3,4,-5,-2
13:59:27:21702,7,15,6,-18,16,6,4,-3
13:59:27:27726,-6,-16,5,-15,-8,-8,-21,-2
13:59:27:43554,-6,-16,5,-15,-8,-8,-21,-2
13:59:27:44242,-6,-7,-1,-38,-31,-7,15,11
13:59:27:50171,-9,1,9,-9,5,9,7,1
13:59:27:58553,-9,1,9,-9,5,9,7,1
13:59:27:59286,-16,27,-6,-16,-7,-4,-44,-17
13:59:27:72760,14,-1,1,5,-3,0,-16,-4
13:59:27:80934,14,-1,1,5,-3,0,-16,-4
13:59:27:81723,2,-5,2,9,-6,-5,21,9
13:59:27:87816,-20,25,11,31,5,-4,-56,-11
13:59:27:103438,-20,25,11,31,5,-4,-56,-11
13:59:27:104243,4,-20,4,0,5,-2,-5,-2
13:59:27:110232,-43,3,-26,-21,9,6,24,-8
13:59:27:117761,-43,3,-26,-21,9,6,24,-8
13:59:27:125297,-36,-1,-4,-11,-16,-16,24,2
13:59:27:141652,27,-11,-3,16,1,0,-10,0
13:59:27:142440,27,-11,-3,16,1,0,-10,0
13:59:27:143237,20,0,9,10,11,13,-1,-1
13:59:27:155298,16,8,7,-10,8,11,6,2
13:59:27:163467,16,8,7,-10,8,11,6,2
13:59:27:164215,-13,-4,7,-7,-13,2,7,-3
13:59:27:170206,19,-5,18,-12,-7,-19,-26,-3
13:59:27:177827,19,-5,18,-12,-7,-19,-26,-3
13:59:27:185241,-31,-17,-13,-18,3,-6,2,-4
13:59:27:192753,9,-1,-13,-31,-26,-6,37,10
13:59:27:200920,9,-1,-13,-31,-26,-6,37,10
13:59:27:201707,22,3,1,17,-3,-5,-17,5
13:59:27:215203,-27,-1,-1,-5,-8,-28,3,-7
13:59:27:223439,-27,-1,-1,-5,-8,-28,3,-7
13:59:27:224191,-2,2,-9,-13,-7,10,-5,-9
13:59:27:230215,14,4,17,11,0,2,-11,1
13:59:27:237803,14,4,17,11,0,2,-11,1
13:59:27:245242,51,18,7,6,10,26,49,13
13:59:27:252696,-3,2,-2,8,-12,-2,0,-2
13:59:27:260901,-3,2,-2,8,-12,-2,0,-2
13:59:27:261684,0,0,-4,5,-4,-6,-8,-3
13:59:27:275311,-25,11,1,-6,9,11,-14,-10
13:59:27:283370,-25,11,1,-6,9,11,-14,-10
13:59:27:284160,6,-2,-2,15,3,-16,-3,5
13:59:27:290265,-6,-15,-15,2,-2,6,-16,-8
13:59:27:297753,-6,-15,-15,2,-2,6,-16,-8
13:59:27:305223,-25,2,-26,-4,-3,-15,-13,-12
13:59:27:312734,-6,-5,-12,-2,-3,-20,6,4
13:59:27:321020,-6,-5,-12,-2,-3,-20,6,4
13:59:27:321667,-2,11,6,5,4,11,32,10
13:59:27:335233,9,-1,-1,-7,7,13,7,2
13:59:27:343483,9,-1,-1,-7,7,13,7,2
13:59:27:344201,-4,-7,8,22,-14,-13,-49,-20
13:59:27:350122,7,1,7,-13,19,2,4,4
13:59:27:357766,7,1,7,-13,19,2,4,4
13:59:27:365184,-2,-35,24,-4,-5,4,27,6
13:59:27:372762,-16,16,-14,-1,-3,10,14,0
13:59:27:380932,-16,16,-14,-1,-3,10,14,0
13:59:27:381719,-9,8,3,-4,-10,-19,7,4
13:59:27:395270,-8,-26,-4,0,-15,-12,-1,15
13:59:27:403430,-8,-26,-4,0,-15,-12,-1,15
13:59:27:404212,-9,10,2,10,28,11,-13,-5
13:59:27:410343,18,-2,-17,-9,9,10,10,1
13:59:27:417762,18,-2,-17,-9,9,10,10,1
13:59:27:425287,-1,12,-14,-23,-2,-11,-2,1
13:59:27:432654,12,-27,5,-2,-8,3,-6,-2
13:59:27:441042,12,-27,5,-2,-8,3,-6,-2
13:59:27:441777,12,4,-14,-1,5,0,8,-4
13:59:27:455233,-10,11,10,6,6,54,33,-4
13:59:27:463443,-10,11,10,6,6,54,33,-4
13:59:27:464263,9,-10,-11,-3,-1,1,38,14
13:59:27:470203,0,9,3,2,-13,-26,-58,-12
13:59:27:477762,0,9,3,2,-13,-26,-58,-12
13:59:27:485195,17,-6,2,5,1,-4,-15,-2
13:59:27:492788,-3,-7,-3,4,-3,-10,-3,2
13:59:27:500864,-3,-7,-3,4,-3,-10,-3,2
13:59:27:501647,1,-5,-2,-4,-1,7,21,-6
13:59:27:515200,10,7,-16,0,-14,-11,11,12
13:59:27:523462,10,7,-16,0,-14,-11,11,12
13:59:27:524257,-2,-14,-26,5,2,-4,-38,-10
13:59:27:530204,-4,-6,-2,-13,0,-7,21,-2
13:59:27:537818,-4,-6,-2,-13,0,-7,21,-2
13:59:27:545235,-2,16,-1,-6,5,-13,-44,-5
13:59:27:552712,3,1,-3,11,-6,-14,20,4
13:59:27:560914,3,1,-3,11,-6,-14,20,4
13:59:27:561705,2,2,8,-2,-7,4,-10,2
13:59:27:575282,6,19,1,11,10,-6,-56,-13
13:59:27:583357,6,19,1,11,10,-6,-56,-13
13:59:27:584155,-7,1,-1,7,-6,19,26,7
13:59:27:590279,18,7,8,19,6,-5,-13,0
13:59:27:597727,18,7,8,19,6,-5,-13,0
13:59:27:605269,-5,9,4,-7,-1,4,-31,-9
13:59:27:612694,-2,-13,-9,-13,3,11,6,1
13:59:27:620924,-2,-13,-9,-13,3,11,6,1
13:59:27:621686,-4,13,7,-23,-9,-8,21,-5
13:59:27:635216,14,3,-11,-10,2,-5,-7,-4
13:59:27:643493,14,3,-11,-10,2,-5,-7,-4
13:59:27:644195,-12,-43,1,3,17,1,3,6
13:59:27:650129,-2,-2,13,1,-19,-4,-39,6
13:59:27:657776,-2,-2,13,1,-19,-4,-39,6
13:59:27:665179,-32,-23,18,21,14,-3,-21,-8
13:59:27:672748,-16,-7,1,-9,0,-7,49,4
13:59:27:680928,-16,-7,1,-9,0,-7,49,4
13:59:27:681747,5,-5,-2,21,-13,-10,-83,-12
13:59:27:695661,24,13,14,22,24,8,17,16
13:59:27:703402,24,13,14,22,24,8,17,16
13:59:27:704204,8,6,-11,5,-4,-1,12,-2
13:59:27:710262,-3,5,-3,3,0,8,22,-1
13:59:27:717744,-3,5,-3,3,0,8,22,-1
13:59:27:725315,-2,18,5,-2,13,14,-14,-7
13:59:27:732686,2,6,-24,-27,-10,1,22,0
13:59:27:741023,2,6,-24,-27,-10,1,22,0
13:59:27:741747,12,0,-22,-13,-20,-9,19,5
13:59:27:755231,6,-7,3,2,14,-1,23,4
13:59:27:763462,6,-7,3,2,14,-1,23,4
13:59:27:764255,6,-3,3,-18,-11,-7,-1,2
13:59:27:770260,-3,-12,1,4,-14,-3,-1,-9
13:59:27:777807,-3,-12,1,4,-14,-3,-1,-9
13:59:27:785228,-12,12,12,1,14,9,7,-2
13:59:27:792803,3,24,12,-7,-5,-7,-9,0
13:59:27:800872,3,24,12,-7,-5,-7,-9,0
13:59:27:801647,-15,-6,0,3,-9,-5,-7,-2
13:59:27:815231,-24,-7,-7,-26,-9,3,-20,-9
13:59:27:823443,-24,-7,-7,-26,-9,3,-20,-9
13:59:27:824167,-11,2,-7,-6,8,8,71,9
13:59:27:830213,3,2,-2,-4,-9,-10,-31,-5
13:59:27:837793,3,2,-2,-4,-9,-10,-31,-5
13:59:27:845195,-2,9,4,4,-2,0,33,-4
13:59:27:852706,4,13,-2,-4,7,27,10,3
13:59:27:860992,4,13,-2,-4,7,27,10,3
13:59:27:861730,-3,3,2,6,6,1,-10,3
13:59:27:875291,7,-27,0,21,-16,1,16,2
13:59:27:883392,7,-27,0,21,-16,1,16,2
13:59:27:884180,12,17,-1,-4,-6,-1,-59,-10
13:59:27:890255,-9,-5,-2,-3,-2,-18,5,-6
13:59:27:897789,-9,-5,-2,-3,-2,-18,5,-6
13:59:27:905260,-6,-20,-5,-1,-18,-17,-1,-1
13:59:27:912711,-36,-6,-9,-3,22,14,5,-4
13:59:27:921089,-36,-6,-9,-3,22,14,5,-4
13:59:27:921687,23,-9,1,-4,1,-6,-16,5
13:59:27:935255,-9,-2,4,2,-1,-3,35,4
13:59:27:943491,-9,-2,4,2,-1,-3,35,4
13:59:27:944213,7,2,-7,-2,-2,8,55,6
13:59:27:950130,-10,4,0,2,-11,-7,-37,-13
13:59:27:957819,-10,4,0,2,-11,-7,-37,-13
13:59:27:965179,-22,-15,7,-7,-9,-5,-6,-3
13:59:27:972774,19,9,21,21,13,-2,6,-3
13:59:27:980935,19,9,21,21,13,-2,6,-3
13:59:27:981748,11,5,-8,12,-1,-11,-9,-5
13:59:27:995215,3,-5,-5,-13,-4,8,-30,1
13:59:28:3438,3,-5,-5,-13,-4,8,-30,1
13:59:28:4257,5,-5,1,-12,5,0,-5,-2
13:59:28:10384,4,-9,-3,14,6,-2,21,5
13:59:28:17753,4,-9,-3,14,6,-2,21,5
13:59:28:25305,-11,-33,-1,19,3,-2,-28,-1
13:59:28:32678,-20,11,0,-7,3,11,33,3
13:59:28:41040,-20,11,0,-7,3,11,33,3
13:59:28:41752,1,15,-7,-8,2,5,16,-6
13:59:28:55979,-2,-1,-10,-6,1,13,17,1
13:59:28:56738,-2,-1,-10,-6,1,13,17,1
13:59:28:62734,5,15,10,-2,-3,-8,-58,-9
13:59:28:78431,-3,3,-13,-20,-14,-13,-25,-3
13:59:28:79230,-3,3,-13,-20,-14,-13,-25,-3
13:59:28:85177,4,3,-3,-24,-8,-4,-6,-5
13:59:28:92741,-18,-22,2,-5,-14,4,-40,-15
13:59:28:100241,-18,-22,2,-5,-14,4,-40,-15
13:59:28:107785,-7,43,21,1,8,5,17,4
13:59:28:115849,2,-15,9,-1,-9,-7,15,7
13:59:28:116651,2,-15,9,-1,-9,-7,15,7
13:59:28:122834,7,-17,-13,0,-3,-6,6,3
13:59:28:138493,0,-10,-1,30,1,-15,1,-4
13:59:28:139239,0,-10,-1,30,1,-15,1,-4
13:59:28:145263,1,1,3,6,11,8,15,9
13:59:28:152691,18,-8,-3,-18,1,-20,-6,-1
13:59:28:160253,18,-8,-3,-18,1,-20,-6,-1
13:59:28:167696,-1,8,-1,7,8,4,12,6
13:59:28:175927,-15,1,-15,-4,15,4,-26,-17
13:59:28:176735,-15,1,-15,-4,15,4,-26,-17
13:59:28:183130,4,5,19,1,-8,-2,0,1
13:59:28:198396,6,14,1,-13,-4,10,30,9
13:59:28:199186,6,14,1,-13,-4,10,30,9
13:59:28:205252,-19,11,24,10,-1,-4,9,-10
13:59:28:212749,-1,-1,4,-1,4,8,-7,3
13:59:28:220312,-1,-1,4,-1,4,8,-7,3
13:59:28:227714,11,-16,-19,-11,4,4,35,7
13:59:28:235944,-7,5,9,-5,-1,-1,-9,-20
13:59:28:236738,-7,5,9,-5,-1,-1,-9,-20
13:59:28:242784,0,7,-11,16,6,4,-15,-7
13:59:28:258519,21,1,-7,7,5,19,20,15
13:59:28:259237,21,1,-7,7,5,19,20,15
13:59:28:265157,3,2,-6,-25,-22,-21,-37,-3
13:59:28:272680,-5,6,12,10,-3,-10,-11,-2
13:59:28:280264,-5,6,12,10,-3,-10,-11,-2
13:59:28:287790,9,23,-9,-4,9,1,-3,0
13:59:28:295895,14,-15,0,-4,-11,-17,0,6
13:59:28:296755,14,-15,0,-4,-11,-17,0,6
13:59:28:302679,-19,-22,15,17,1,-7,-14,-5
13:59:28:318394,3,3,-1,22,5,13,-31,-5
13:59:28:319188,3,3,-1,22,5,13,-31,-5
13:59:28:325314,8,-5,-4,-7,9,10,32,11
13:59:28:332675,-36,-37,-1,-2,17,-9,-65,-16
13:59:28:340322,-36,-37,-1,-2,17,-9,-65,-16
13:59:28:347721,-1,-4,-16,-29,-19,-8,-9,-2
13:59:28:355982,1,-30,-23,-16,-12,3,26,3
13:59:28:356718,1,-30,-23,-16,-12,3,26,3
13:59:28:362760,2,-12,9,1,-4,-8,-19,-12
13:59:28:378426,15,21,-11,-7,-2,-10,-13,4
13:59:28:379224,15,21,-11,-7,-2,-10,-13,4
13:59:28:385171,-30,-7,-7,0,-14,5,34,7
13:59:28:392737,5,15,-7,-11,7,9,6,0
13:59:28:400245,5,15,-7,-11,7,9,6,0
13:59:28:407834,-35,-14,-10,-5,-7,5,20,-5
13:59:28:415855,-6,30,16,-8,-7,-19,1,-5
13:59:28:416671,-6,30,16,-8,-7,-19,1,-5
13:59:28:422823,27,28,0,19,6,1,-8,4
13:59:28:446549,-30,-53,-13,-8,-12,-19,-55,-20
13:59:28:447384,-30,-53,-13,-8,-12,-19,-55,-20
13:59:28:448194,-17,-6,-5,-24,-7,-3,-23,-9
13:59:28:452699,15,27,32,21,9,10,40,15
13:59:28:460344,15,27,32,21,9,10,40,15
13:59:28:467672,4,1,1,-1,-2,-2,-3,-1
13:59:28:475970,-2,0,-3,-14,-17,0,21,1
13:59:28:476714,-2,0,-3,-14,-17,0,21,1
13:59:28:482689,15,14,-1,-5,-3,-6,-42,-6
13:59:28:498411,29,7,-11,16,9,-4,-31,1
13:59:28:499244,29,7,-11,16,9,-4,-31,1
13:59:28:505223,-5,-1,5,-8,-9,7,13,-4
13:59:28:512724,7,-8,-13,5,-1,18,16,6
13:59:28:520302,7,-8,-13,5,-1,18,16,6
13:59:28:527772,7,-17,7,-1,10,10,28,2
13:59:28:535883,-10,-7,-19,3,2,-9,-12,-4
13:59:28:536702,-10,-7,-19,3,2,-9,-12,-4
13:59:28:542906,12,-8,-16,3,6,12,-6,5
13:59:28:558526,-7,-6,2,6,17,10,6,3
13:59:28:559198,-7,-6,2,6,17,10,6,3
13:59:28:565208,-24,-25,-17,3,5,-13,-6,-13
13:59:28:572756,9,-9,-3,-14,-20,-9,8,6
13:59:28:580217,9,-9,-3,-14,-20,-9,8,6
13:59:28:587814,0,3,-1,22,6,-5,-4,5
13:59:28:595916,-23,-12,7,1,-7,-3,11,-6
13:59:28:596709,-23,-12,7,1,-7,-3,11,-6
13:59:28:602670,0,-17,-18,1,-8,-1,54,11
13:59:28:618393,14,24,15,-13,-4,-12,-2,-1
13:59:28:619146,14,24,15,-13,-4,-12,-2,-1
13:59:28:625267,0,-4,-2,-12,-5,-9,12,4
13:59:28:632702,13,-7,-10,14,-3,2,11,5
13:59:28:640246,13,-7,-10,14,-3,2,11,5
13:59:28:647694,22,29,13,-6,-7,-13,-8,2
13:59:28:655976,-7,-18,12,-10,20,14,0,0
13:59:28:656689,-7,-18,12,-10,20,14,0,0
13:59:28:662699,8,-10,-17,19,3,0,-23,3
13:59:28:678444,-12,14,13,3,-17,-14,-15,-8
13:59:28:679208,-12,14,13,3,-17,-14,-15,-8
13:59:28:685165,3,2,14,-16,8,14,22,7
13:59:28:692801,-19,13,-5,23,4,-1,-37,-12
13:59:28:700202,-19,13,-5,23,4,-1,-37,-12
13:59:28:707750,-11,3,16,2,-5,-3,5,0
13:59:28:724094,-2,5,-20,-28,-10,-4,21,-4
13:59:28:724925,-2,5,-20,-28,-10,-4,21,-4
13:59:28:725758,-16,-4,-24,-7,1,2,5,-5
13:59:28:738473,5,14,7,-5,0,-3,8,-3
13:59:28:739178,5,14,7,-5,0,-3,8,-3
13:59:28:745229,4,-20,-11,-28,-1,-1,34,11
13:59:28:752698,8,7,1,18,13,4,-11,11
13:59:28:760336,8,7,1,18,13,4,-11,11
13:59:28:767679,-19,-6,14,17,5,3,-40,-7
13:59:28:775996,-4,-18,-9,0,6,5,13,-1
13:59:28:776724,-4,-18,-9,0,6,5,13,-1
13:59:28:782701,-9,-13,1,9,1,-14,-6,-5
13:59:28:798373,1,-13,-13,21,-6,-9,-20,-11
13:59:28:799192,1,-13,-13,21,-6,-9,-20,-11
13:59:28:805232,-4,24,-1,9,-12,0,-17,-8
13:59:28:812723,20,21,22,-9,-3,-1,-16,3
13:59:28:820303,20,21,22,-9,-3,-1,-16,3
13:59:28:827740,-16,-28,-1,4,-3,0,-11,-6
13:59:28:835933,-7,6,-21,-31,6,7,26,7
13:59:28:836714,-7,6,-21,-31,6,7,26,7
13:59:28:842755,-3,11,-2,-7,-15,-9,1,-3
13:59:28:858526,-20,-10,-9,-14,-2,-1,1,3
13:59:28:859208,-20,-10,-9,-14,-2,-1,1,3
13:59:28:865203,15,-6,-2,18,31,22,-21,-16
13:59:28:872797,34,-6,9,1,-20,-11,11,19
13:59:28:880323,34,-6,9,1,-20,-11,11,19
13:59:28:887785,2,-31,-16,5,6,-4,9,2
13:59:28:895891,-19,0,-3,-10,-4,9,3,-6
13:59:28:896703,-19,0,-3,-10,-4,9,3,-6
13:59:28:902739,-2,13,2,-6,-4,4,-57,-13
13:59:28:918435,-5,-18,1,7,0,-11,-23,-15
13:59:28:919205,-5,-18,1,7,0,-11,-23,-15
13:59:28:925281,2,-2,4,-18,-4,-7,7,3
13:59:28:932652,9,13,-12,-8,-3,2,24,4
13:59:28:940225,9,13,-12,-8,-3,2,24,4
13:59:28:947737,12,9,28,13,-4,-3,11,4
13:59:28:955932,-14,-9,4,14,15,19,58,9
13:59:28:956677,-14,-9,4,14,15,19,58,9
13:59:28:962677,3,23,5,-14,-15,-9,-43,-5
13:59:28:978402,-4,3,0,0,5,0,-19,-10
13:59:28:979200,-4,3,0,0,5,0,-19,-10
13:59:28:985198,9,7,-5,-15,-3,-11,22,16
13:59:29:899,6,0,-13,-8,0,7,15,1
13:59:29:1707,6,0,-13,-8,0,7,15,1
13:59:29:7772,-5,3,-11,-21,-3,3,20,-3
13:59:29:15858,-19,1,7,12,-8,-14,-47,-8
13:59:29:16676,-19,1,7,12,-8,-14,-47,-8
13:59:29:30232,-9,-7,-21,0,1,4,-3,-11
13:59:29:38549,-14,-24,-22,-12,-9,-16,9,0
13:59:29:39273,-14,-24,-22,-12,-9,-16,9,0
13:59:29:45255,-22,-1,0,6,0,13,42,3
13:59:29:60993,1,-1,13,4,-6,22,-7,-2
13:59:29:61722,1,-1,13,4,-6,22,-7,-2
13:59:29:67683,5,-3,8,9,9,0,-3,1
13:59:29:75919,15,15,10,-3,-7,-15,-38,-3
13:59:29:76657,15,15,10,-3,-7,-15,-38,-3
13:59:29:90191,-1,-14,-1,6,0,-7,13,-1
13:59:29:98404,-6,-4,-3,15,-1,-1,14,-7
13:59:29:99206,-6,-4,-3,15,-1,-1,14,-7
13:59:29:105307,11,-4,-15,12,14,1,5,1
13:59:29:120997,-10,22,16,-22,-19,-14,10,5
13:59:29:121705,-10,22,16,-22,-19,-14,10,5
13:59:29:127702,-6,4,-5,-5,0,-4,-19,0
13:59:29:135883,29,-4,5,-1,10,-15,-67,-10
13:59:29:136704,29,-4,5,-1,10,-15,-67,-10
13:59:29:150154,-2,-12,6,-6,-15,4,-13,-1
13:59:29:158504,-14,7,3,26,19,25,34,-2
13:59:29:159258,-14,7,3,26,19,25,34,-2
13:59:29:165234,-33,-16,-17,-14,-24,-16,-25,-22
13:59:29:180954,8,-7,1,-3,-7,14,21,14
13:59:29:181725,8,-7,1,-3,-7,14,21,14
13:59:29:187797,-7,-12,5,-2,21,8,25,7
13:59:29:195925,-6,7,-4,-19,-14,-8,-20,-6
13:59:29:196710,-6,7,-4,-19,-14,-8,-20,-6
13:59:29:210266,17,-5,1,-10,-15,-4,-2,7
13:59:29:218414,5,-4,7,-7,-4,9,21,0
13:59:29:219187,5,-4,7,-7,-4,9,21,0
13:59:29:225301,14,5,1,6,14,3,-47,-5
13:59:29:240958,-26,-1,-2,3,-2,2,16,-5
13:59:29:241692,-26,-1,-2,3,-2,2,16,-5
13:59:29:247698,2,12,-7,-3,2,0,15,-2
13:59:29:256061,-17,12,10,23,1,-2,-2,-4
13:59:29:256753,-17,12,10,23,1,-2,-2,-4
13:59:29:279074,2,1,33,19,-1,-8,17,4
13:59:29:279859,2,-2,2,-12,4,-6,7,2
13:59:29:280690,2,-2,2,-12,4,-6,7,2
13:59:29:285195,15,17,-12,-9,-2,3,-11,2
13:59:29:300883,-20,-7,-8,11,6,1,-4,-4
13:59:29:301688,-20,-7,-8,11,6,1,-4,-4
13:59:29:307834,41,-1,3,0,16,14,14,13
13:59:29:315878,11,-13,-20,-16,1,-2,8,6
13:59:29:316691,11,-13,-20,-16,1,-2,8,6
13:59:29:330252,14,47,5,-1,-15,-20,-13,0
13:59:29:338474,13,11,-7,3,-4,-8,10,10
13:59:29:339192,13,11,-7,3,-4,-8,10,10
13:59:29:345268,-27,-26,-14,-8,-11,10,1,-8
13:59:29:361002,-3,0,-6,-14,6,0,-34,-10
13:59:29:361747,-3,0,-6,-14,6,0,-34,-10
13:59:29:367670,-23,-21,-5,31,3,1,6,-5
13:59:29:383405,-23,-21,-5,31,3,1,6,-5
13:59:29:384167,0,-18,-20,-14,2,8,48,11
13:59:29:390189,5,-3,7,-3,-15,-15,-6,0
13:59:29:398417,5,-3,7,-3,-15,-15,-6,0
13:59:29:399176,-15,-2,9,1,14,5,-24,-12
13:59:29:405284,-11,-24,-9,-7,3,-15,-19,-8
13:59:29:421095,-11,-24,-9,-7,3,-15,-19,-8
13:59:29:421699,17,-3,20,-2,-8,6,12,0
13:59:29:427742,-1,7,-6,-6,4,11,9,4
13:59:29:443494,-1,7,-6,-6,4,11,9,4
13:59:29:444216,8,0,-30,19,10,-13,-11,-10
13:59:29:450174,-2,14,8,-4,13,-6,-13,8
13:59:29:458541,-2,14,8,-4,13,-6,-13,8
13:59:29:459230,-3,-18,-5,-9,-12,-14,-15,-6
13:59:29:465195,16,9,1,-8,-11,14,8,-4
13:59:29:480929,16,9,1,-8,-11,14,8,-4
13:59:29:481687,-11,20,22,0,5,6,1,-3
13:59:29:487813,16,-5,2,-25,-7,-13,35,12
13:59:29:503979,16,-5,2,-25,-7,-13,35,12
13:59:29:504640,-6,-13,28,3,3,-5,-29,1
13:59:29:510282,0,46,3,5,-7,-18,13,-1
13:59:29:518427,0,46,3,5,-7,-18,13,-1
13:59:29:519180,9,9,-5,-16,-9,6,19,8
13:59:29:525284,3,-24,-1,18,10,32,23,-3
13:59:29:540989,3,-24,-1,18,10,32,23,-3
13:59:29:541741,4,-8,-12,0,-5,-12,-11,-3
13:59:29:555302,-25,3,-1,-7,-19,-20,-69,-15
13:59:29:563437,-25,3,-1,-7,-19,-20,-69,-15
13:59:29:564214,-24,-32,-16,-22,-5,-10,9,1
13:59:29:570233,-17,-20,-3,29,-7,27,4,-9
13:59:29:578479,-17,-20,-3,29,-7,27,4,-9
13:59:29:579261,32,4,3,24,1,2,-6,4
13:59:29:585150,3,21,-1,-18,13,4,4,-2
13:59:29:600877,3,21,-1,-18,13,4,4,-2
13:59:29:601661,10,25,6,-6,-10,-16,15,2
13:59:29:607765,-7,-16,4,-6,2,1,26,-1
13:59:29:615272,-7,-16,4,-6,2,1,26,-1
13:59:29:622759,5,-16,-14,-12,-1,-7,-16,-5
13:59:29:630204,1,-29,-11,-4,-1,-29,-19,-6
13:59:29:638526,1,-29,-11,-4,-1,-29,-19,-6
13:59:29:639231,-2,-5,-6,-5,9,14,-9,-1
13:59:29:645244,-11,13,12,-8,-9,-1,-25,-13
13:59:29:660964,-11,13,12,-8,-9,-1,-25,-13
13:59:29:661732,12,13,5,17,8,7,24,13
13:59:29:667646,-13,-66,-49,-20,-1,-13,-18,-5
13:59:29:675379,-13,-66,-49,-20,-1,-13,-18,-5
13:59:29:682724,4,0,-3,-2,3,-3,-8,-6
13:59:29:690271,-23,-4,0,-1,-5,-3,19,6
13:59:29:698462,-23,-4,0,-1,-5,-3,19,6
13:59:29:699229,-5,5,-5,6,1,27,41,3
13:59:29:705277,32,29,0,2,2,-11,-50,14
13:59:29:721046,32,29,0,2,2,-11,-50,14
13:59:29:721697,-2,16,-18,-3,22,-4,-37,-4
13:59:29:727699,7,27,-1,17,0,10,-1,-2
13:59:29:735270,7,27,-1,17,0,10,-1,-2
13:59:29:742768,-5,-14,8,1,-17,-3,-1,-9
13:59:29:750163,14,-25,0,5,3,-13,-2,1
13:59:29:758455,14,-25,0,5,3,-13,-2,1
13:59:29:759175,-5,-8,12,-32,-34,-32,-51,-7
13:59:29:765189,10,39,9,17,10,44,63,12
13:59:29:780858,10,39,9,17,10,44,63,12
13:59:29:781625,-8,-9,-7,12,15,-4,-21,2
13:59:29:787767,-7,-4,-6,2,2,-5,4,-2
13:59:29:795223,-7,-4,-6,2,2,-5,4,-2
13:59:29:810831,-7,-1,-1,11,2,-5,-1,1
13:59:29:811628,-29,-10,27,7,-1,-7,-11,-13
13:59:29:818363,-29,-10,27,7,-1,-7,-11,-13
13:59:29:819131,-11,-20,3,4,-16,-19,-5,-5
13:59:29:825227,-3,9,7,-19,9,10,2,-7
13:59:29:840954,-3,9,7,-19,9,10,2,-7
13:59:29:841673,-4,-15,-18,-18,-21,14,9,-2
13:59:29:847678,-7,-3,-3,0,1,-2,-15,1
13:59:29:855351,-7,-3,-3,0,1,-2,-15,1
13:59:29:862729,11,19,5,6,12,8,-4,-14
13:59:29:870209,12,12,1,-12,-16,-21,8,5
13:59:29:878394,12,12,1,-12,-16,-21,8,5
13:59:29:879174,21,1,11,26,-19,-6,6,9
13:59:29:885205,-19,-4,6,19,20,22,11,-14
13:59:29:900867,-19,-4,6,19,20,22,11,-14
13:59:29:901654,-23,-27,-17,-6,9,10,52,10
13:59:29:907777,0,-16,-9,-4,-24,-21,-20,-3
13:59:29:915234,0,-16,-9,-4,-24,-21,-20,-3
13:59:29:922739,-28,5,2,-5,12,-8,-49,-13
13:59:29:930200,18,1,-10,-7,20,10,27,9
13:59:29:938497,18,1,-10,-7,20,10,27,9
13:59:29:939220,21,30,16,-8,-2,-1,35,8
13:59:29:945212,10,4,-4,5,-3,-13,-24,-10
13:59:29:960912,10,4,-4,5,-3,-13,-24,-10
13:59:29:961688,12,32,-4,-4,12,-10,-31,-2
13:59:29:967655,11,-3,1,-11,-13,33,8,7
13:59:29:975330,11,-3,1,-11,-13,33,8,7
13:59:29:982635,-3,-16,25,3,-2,2,6,0
13:59:29:990214,-5,-10,-12,-10,-3,14,-5,-4
13:59:29:998852,-5,-10,-12,-10,-3,14,-5,-4
13:59:30:5297,-2,14,-15,-11,-17,-10,-15,-11
13:59:30:12706,12,2,4,19,11,-8,-14,4
13:59:30:21043,12,2,4,19,11,-8,-14,4
13:59:30:21744,-23,-37,-8,2,-2,-3,-10,-6
13:59:30:27744,-21,12,0,-15,-12,15,6,-6
13:59:30:35226,-21,12,0,-15,-12,15,6,-6
13:59:30:42808,1,2,6,14,27,27,36,16
13:59:30:59144,-1,2,11,5,-10,1,30,11
13:59:30:59864,-1,2,11,5,-10,1,30,11
13:59:30:60678,6,-6,-18,-2,-10,-2,24,2
13:59:30:72812,-3,-10,-16,-10,8,-31,-18,-4
13:59:30:80952,-3,-10,-16,-10,8,-31,-18,-4
13:59:30:81725,24,-10,11,-8,-13,-17,1,-6
13:59:30:87763,-13,16,-17,-3,-4,-10,37,1
13:59:30:95260,-13,16,-17,-3,-4,-10,37,1
13:59:30:102704,7,11,2,9,-2,10,11,3
13:59:30:110272,-11,-11,3,1,5,-9,-58,-21
13:59:30:118413,-11,-11,3,1,5,-9,-58,-21
13:59:30:119173,-35,1,-7,-1,-6,-22,-16,-8
13:59:30:132660,1,-3,0,24,-17,-17,11,0
13:59:30:140980,1,-3,0,24,-17,-17,11,0
13:59:30:141702,28,15,2,-13,9,4,-6,8
13:59:30:147710,-8,-8,-13,-4,22,5,8,5
13:59:30:155245,-8,-8,-13,-4,22,5,8,5
13:59:30:162747,-2,-35,-23,-10,-15,0,34,-2
13:59:30:170215,0,-5,6,3,-11,-11,8,10
13:59:30:178429,0,-5,6,3,-11,-11,8,10
13:59:30:179208,-5,21,26,-6,8,8,3,-6
13:59:30:192859,0,-20,4,-9,-11,1,17,5
13:59:30:200854,0,-20,4,-9,-11,1,17,5
13:59:30:201632,4,-24,-11,1,12,-3,-23,0
13:59:30:207786,-2,2,-4,-8,-14,-15,11,4
13:59:30:215239,-2,2,-4,-8,-14,-15,11,4
13:59:30:222723,-1,2,4,12,15,35,-6,-8
13:59:30:230182,1,-16,-1,0,-3,-11,-16,-3
13:59:30:238490,1,-16,-1,0,-3,-11,-16,-3
13:59:30:239187,-12,0,-8,8,3,-7,-18,-2
13:59:30:252687,-7,-17,2,-4,-3,6,14,-3
13:59:30:260908,-7,-17,2,-4,-3,6,14,-3
13:59:30:261685,2,14,2,31,17,4,15,1
13:59:30:267629,2,4,0,12,7,10,-1,-2
13:59:30:275327,2,4,0,12,7,10,-1,-2
13:59:30:282642,7,8,-1,-2,-21,-26,-58,-13
13:59:30:290188,0,1,-2,-16,-8,-7,10,-2
13:59:30:298393,0,1,-2,-16,-8,-7,10,-2
13:59:30:299230,1,7,7,-9,-9,-9,16,7
13:59:30:312746,10,35,-2,6,14,8,-7,5
13:59:30:320954,10,35,-2,6,14,8,-7,5
13:59:30:321676,-2,-13,-6,1,1,14,13,14
13:59:30:327685,-9,14,-25,-26,-3,-11,-7,-2
13:59:30:335258,-9,14,-25,-26,-3,-11,-7,-2
13:59:30:342772,0,6,9,-8,-9,31,48,5
13:59:30:350188,6,7,7,27,13,15,-32,-9
13:59:30:358499,6,7,7,27,13,15,-32,-9
13:59:30:359205,-6,-24,-7,-6,-5,-17,-59,-15
13:59:30:372747,0,14,8,-6,-2,-16,9,5
13:59:30:380937,0,14,8,-6,-2,-16,9,5
13:59:30:381722,5,8,4,-7,-18,4,4,-1
13:59:30:387841,0,-12,-16,-7,4,5,-7,-2
13:59:30:395288,0,-12,-16,-7,4,5,-7,-2
13:59:30:402730,9,18,14,-11,-22,-42,-11,7
13:59:30:410305,-4,-12,-9,-12,-3,-6,-53,-10
13:59:30:418365,-4,-12,-9,-12,-3,-6,-53,-10
13:59:30:419158,-1,-9,7,14,20,-2,-1,-4
13:59:30:432688,-4,4,15,5,-2,24,53,6
13:59:30:441028,-4,4,15,5,-2,24,53,6
13:59:30:441777,-9,-14,-25,-8,9,-13,1,1
13:59:30:447736,9,-6,18,-3,-16,-5,8,5
13:59:30:455316,9,-6,18,-3,-16,-5,8,5
13:59:30:462734,-9,-5,1,1,-22,4,37,0
13:59:30:470261,13,11,9,-5,21,-2,-32,-5
13:59:30:478409,13,11,9,-5,21,-2,-32,-5
13:59:30:479222,-5,5,-5,-17,8,-2,-19,-10
13:59:30:492823,-15,-15,-4,-11,-14,-4,3,-6
13:59:30:500900,-15,-15,-4,-11,-14,-4,3,-6
13:59:30:501642,8,-2,-4,14,7,1,15,5
13:59:30:507788,-17,-23,-7,8,-2,-20,-24,-1
13:59:30:515234,-17,-23,-7,8,-2,-20,-24,-1
13:59:30:522748,1,-7,-20,-12,2,36,11,0
13:59:30:530209,20,3,-11,-5,-9,7,14,6
13:59:30:538517,20,3,-11,-5,-9,7,14,6
13:59:30:539206,-11,8,-5,4,14,-9,-44,-9
13:59:30:552723,5,-6,-13,-1,5,2,-9,-2
13:59:30:560954,5,-6,-13,-1,5,2,-9,-2
13:59:30:561717,6,9,1,14,-2,9,18,9
13:59:30:567655,-4,-10,9,12,-8,-7,11,3
13:59:30:575291,-4,-10,9,12,-8,-7,11,3
13:59:30:582654,-13,-9,4,0,13,25,26,-2
13:59:30:590204,-14,-28,-7,3,-7,3,15,-7
13:59:30:598448,-14,-28,-7,3,-7,3,15,-7
13:59:30:599216,-11,-14,-2,6,5,-25,-28,-14
13:59:30:612684,7,37,22,-7,6,9,11,2
13:59:30:620943,7,37,22,-7,6,9,11,2
13:59:30:621660,-19,-6,2,-25,-11,-15,31,9
13:59:30:627704,-9,-3,-16,1,-13,-29,-45,-2
13:59:30:635337,-9,-3,-16,1,-13,-29,-45,-2
13:59:30:642765,19,16,15,0,10,21,24,1
13:59:30:650177,1,24,10,-6,-2,-9,-26,-11
13:59:30:658519,1,24,10,-6,-2,-9,-26,-11
13:59:30:659257,-3,-18,-2,1,2,-20,-17,0
13:59:30:672770,13,-1,11,-2,2,-5,-72,-17
13:59:30:680955,13,-1,11,-2,2,-5,-72,-17
13:59:30:681779,-1,-2,-7,1,-12,7,-1,-5
13:59:30:687772,5,1,-6,-4,-4,3,46,7
13:59:30:703445,5,1,-6,-4,-4,3,46,7
13:59:30:704221,1,-8,-14,9,-10,-14,-32,3
13:59:30:710258,3,7,-5,0,-2,-30,-23,-1
13:59:30:718413,3,7,-5,0,-2,-30,-23,-1
13:59:30:719188,-7,-2,10,-1,-7,16,28,2
13:59:30:733122,10,-8,-4,-5,5,14,26,-1
13:59:30:741003,10,-8,-4,-5,5,14,26,-1
13:59:30:741691,-4,6,5,18,-3,-17,-20,-5
13:59:30:747677,-6,-24,-10,27,8,-5,10,-4
13:59:30:755318,-6,-24,-10,27,8,-5,10,-4
13:59:30:762735,2,-1,-10,-5,-6,3,26,-5
13:59:30:770185,0,-6,14,6,13,17,23,9
13:59:30:785895,0,-6,14,6,13,17,23,9
13:59:30:786668,4,30,17,-4,-14,4,7,0
13:59:30:792792,3,19,2,-9,11,9,-5,-5
13:59:30:800890,3,19,2,-9,11,9,-5,-5
13:59:30:801690,1,-6,12,0,-15,-15,-15,-3
13:59:30:807770,-4,4,13,11,-3,2,25,6
13:59:30:815270,-4,4,13,11,-3,2,25,6
13:59:30:822806,-2,-8,-5,-11,5,-11,-10,-3
13:59:30:830266,-14,-3,-13,-14,-6,-4,-54,-24
13:59:30:838529,-14,-3,-13,-14,-6,-4,-54,-24
13:59:30:839208,3,19,-7,-28,16,2,-13,0
13:59:30:852665,10,29,-11,-1,-13,-3,-5,9
13:59:30:860993,10,29,-11,-1,-13,-3,-5,9
13:59:30:861739,6,3,-10,-7,-4,-1,-26,-7
13:59:30:867663,2,-1,3,14,11,18,70,22
13:59:30:875345,2,-1,3,14,11,18,70,22
13:59:30:882704,-14,-2,-4,-4,12,-7,-28,1
13:59:30:890264,6,-13,-5,2,-1,3,4,-2
13:59:30:897701,6,-13,-5,2,-1,3,4,-2
13:59:30:905236,-6,3,-19,2,-3,-2,5,-3
13:59:30:912673,-5,-1,-1,-11,-9,0,21,5
13:59:30:928407,-5,-1,-1,-11,-9,0,21,5
13:59:30:929196,11,-6,6,6,8,-10,-20,-2
13:59:30:935911,-9,-19,-13,-14,3,16,4,-5
13:59:30:936691,-9,-19,-13,-14,3,16,4,-5
13:59:30:942762,1,2,10,25,-10,0,19,3
13:59:30:950140,-24,-37,-18,-29,-16,-11,-55,-12
13:59:30:957832,-24,-37,-18,-29,-16,-11,-55,-12
13:59:30:965193,18,-12,4,-10,-6,-1,0,6
13:59:30:972812,12,23,15,-9,4,-6,3,-5
13:59:30:980925,12,23,15,-9,4,-6,3,-5
13:59:30:981786,-17,-9,15,3,5,7,5,-6
13:59:30:995878,-1,0,-13,5,-6,-4,4,-2
13:59:30:996717,-1,0,-13,5,-6,-4,4,-2
13:59:31:2690,-18,-16,-8,-15,-13,12,12,-3
13:59:31:10282,9,40,21,16,14,-6,39,15
13:59:31:17790,9,40,21,16,14,-6,39,15
13:59:31:25285,-7,30,8,12,-7,-1,-23,-8
13:59:31:32660,-14,-21,-10,5,-4,4,-11,-1
13:59:31:41035,-14,-21,-10,5,-4,4,-11,-1
13:59:31:41708,16,2,-3,-15,1,-6,-10,4
13:59:31:56313,-12,-5,12,-3,3,0,18,5
13:59:31:63460,-12,-5,12,-3,3,0,18,5
13:59:31:64218,-11,-5,11,-9,-4,-10,23,1
13:59:31:70193,-1,-15,-6,2,6,2,-57,-17
13:59:31:77791,-1,-15,-6,2,6,2,-57,-17
13:59:31:85222,11,10,5,24,17,9,10,10
13:59:31:92772,2,-16,4,-6,-28,-2,3,2
13:59:31:100912,2,-16,4,-6,-28,-2,3,2
13:59:31:101647,13,-4,-17,-17,12,-2,10,5
13:59:31:115856,-19,39,6,-1,2,0,6,0
13:59:31:116640,-19,39,6,-1,2,0,6,0
13:59:31:122754,-2,-25,-28,-6,-4,11,30,5
13:59:31:130233,8,-13,1,5,-2,-9,-31,-13
13:59:31:137868,8,-13,1,5,-2,-9,-31,-13
13:59:31:145258,-4,2,0,9,4,6,-15,-11
13:59:31:152747,-23,-28,10,-10,-3,-13,-54,-15
13:59:31:160960,-23,-28,10,-10,-3,-13,-54,-15
13:59:31:161688,-9,-15,-5,-14,6,-2,-9,-6
13:59:31:176004,9,1,-10,5,9,7,43,13
13:59:31:176702,9,1,-10,5,9,7,43,13
13:59:31:182687,5,5,-4,-6,3,-3,-20,-2
13:59:31:198796,-7,1,3,-10,-12,9,-28,-7
13:59:31:205969,-7,1,3,-10,-12,9,-28,-7
13:59:31:206707,-5,-21,-1,22,-11,0,11,6
13:59:31:212683,-3,-22,5,-3,1,-5,9,0
13:59:31:221012,-3,-22,5,-3,1,-5,9,0
13:59:31:221668,-20,-4,4,4,-14,-13,-6,-9
13:59:31:235889,12,13,-1,-3,-8,10,30,1
13:59:31:236648,12,13,-1,-3,-8,10,30,1
13:59:31:242791,-4,-22,-5,16,4,-9,3,5
13:59:31:258502,15,19,-6,18,17,7,14,8
13:59:31:259230,15,19,-6,18,17,7,14,8
13:59:31:265207,-5,-11,-4,-13,-14,-12,-64,-21
13:59:31:272733,-11,-12,-7,-14,-9,-2,2,-6
13:59:31:280903,-11,-12,-7,-14,-9,-2,2,-6
13:59:31:281683,-9,12,11,-23,-9,-3,12,1
13:59:31:295925,-21,-18,5,-15,14,13,18,1
13:59:31:296743,-21,-18,5,-15,14,13,18,1
13:59:31:302714,-26,2,-3,0,-2,4,4,-4
13:59:31:310321,9,4,-8,0,-23,-30,-4,-7
13:59:31:317744,9,4,-8,0,-23,-30,-4,-7
13:59:31:325345,20,-4,-11,15,26,35,-14,-2
13:59:31:341608,5,-6,-24,4,18,10,12,7
13:59:31:342364,5,-6,-24,4,18,10,12,7
13:59:31:343154,40,41,-21,-6,-9,-2,43,20
13:59:31:356001,-16,-19,-3,1,-2,13,-5,-2
13:59:31:356725,-16,-19,-3,1,-2,13,-5,-2
13:59:31:362716,3,16,37,-6,-8,-2,-4,-2
13:59:31:370241,6,12,0,-3,-11,-13,-17,0
13:59:31:377826,6,12,0,-3,-11,-13,-17,0
13:59:31:385214,0,46,10,-2,11,0,-12,-10
13:59:31:392810,1,4,7,-7,10,1,13,-4
13:59:31:400886,1,4,7,-7,10,1,13,-4
13:59:31:401663,12,-18,-48,-8,-2,-13,-21,1
13:59:31:415897,10,3,1,-11,0,-13,-2,4
13:59:31:416655,10,3,1,-11,0,-13,-2,4
13:59:31:422721,3,-12,7,11,1,13,28,-1
13:59:31:430237,-5,-15,11,16,1,-3,-23,-1
13:59:31:437895,-5,-15,11,16,1,-3,-23,-1
13:59:31:445221,-14,2,2,-13,-17,-15,-5,-2
13:59:31:452689,31,6,12,12,-1,6,9,9
13:59:31:460942,31,6,12,12,-1,6,9,9
13:59:31:461701,4,6,16,13,15,-12,-32,-2
13:59:31:475934,-4,-1,-2,-7,-13,-6,-17,-6
13:59:31:476669,-4,-1,-2,-7,-13,-6,-17,-6
13:59:31:482742,-23,-19,5,-4,-11,-36,-6,0
13:59:31:490265,2,10,-11,21,12,31,33,-2
13:59:31:497753,2,10,-11,21,12,31,33,-2
13:59:31:505231,-4,-19,-3,-10,-23,0,12,2
13:59:31:512649,-19,-13,6,4,-3,-10,0,-2
13:59:31:521072,-19,-13,6,4,-3,-10,0,-2
13:59:31:521716,-7,2,10,-7,-1,-1,10,0
13:59:31:535895,-15,12,9,21,2,4,7,-1
13:59:31:536752,-15,12,9,21,2,4,7,-1
13:59:31:542741,-6,-25,-11,2,7,13,27,-1
13:59:31:550123,12,-6,2,-28,-18,-39,-73,-7
13:59:31:557860,12,-6,2,-28,-18,-39,-73,-7
13:59:31:565209,-3,-12,-12,-8,-7,20,19,-9
13:59:31:572765,16,7,-12,-2,20,11,37,10
13:59:31:580939,16,7,-12,-2,20,11,37,10
13:59:31:581726,19,5,14,3,3,-8,1,7
13:59:31:595935,-5,11,5,25,6,-3,-28,-7
13:59:31:596707,-5,11,5,25,6,-3,-28,-7
13:59:31:602730,-14,5,0,-17,-1,23,-4,-5
13:59:31:618392,-5,5,-7,-4,-7,1,28,13
13:59:31:619168,-5,5,-7,-4,-7,1,28,13
13:59:31:625246,-3,2,0,4,8,-9,-20,0
13:59:31:632623,-19,-17,-12,-19,-16,-28,-12,-11
13:59:31:640958,-19,-17,-12,-19,-16,-28,-12,-11
13:59:31:641675,1,21,-1,12,5,55,58,13
13:59:31:655956,-4,0,-19,-12,10,14,-4,-3
13:59:31:656676,-4,0,-19,-12,10,14,-4,-3
13:59:31:662698,-2,-16,-20,0,4,-27,-23,-4
13:59:31:670160,-15,-9,-1,-36,-8,-4,35,-2
13:59:31:677735,-15,-9,-1,-36,-8,-4,35,-2
13:59:31:685174,6,-7,-22,-5,-20,-18,-22,-6
13:59:31:701543,7,4,-13,-3,10,12,35,19
13:59:31:702341,7,4,-13,-3,10,12,35,19
13:59:31:703158,-7,-3,13,7,21,15,-58,-10
13:59:31:715854,-28,-9,-14,5,-5,-16,-16,-16
13:59:31:716653,-28,-9,-14,5,-5,-16,-16,-16
13:59:31:722689,-24,-11,-10,-16,-14,-21,14,1
13:59:31:730169,2,13,7,7,-30,-9,-7,1
13:59:31:737883,2,13,7,7,-30,-9,-7,1
13:59:31:745196,14,6,2,-9,8,-6,49,10
13:59:31:752672,18,15,30,19,18,21,-14,-5
13:59:31:760896,18,15,30,19,18,21,-14,-5
13:59:31:761681,-22,12,19,29,17,-9,-39,-4
13:59:31:775999,13,-7,-1,7,0,-8,-9,1
13:59:31:776699,13,-7,-1,7,0,-8,-9,1
13:59:31:782631,7,-8,-11,-22,-37,-9,21,-3
13:59:31:790193,19,31,12,7,9,-1,-25,5
13:59:31:797763,19,31,12,7,9,-1,-25,5
13:59:31:813351,2,-16,28,9,-1,-2,-24,-7
13:59:31:814186,6,-23,-19,0,11,21,20,3
13:59:31:820999,6,-23,-19,0,11,21,20,3
13:59:31:821685,-3,11,-8,-18,-11,-18,-20,-9
13:59:31:844096,-9,-20,-6,-21,-33,-25,14,2
13:59:31:844841,-9,-20,-6,-21,-33,-25,14,2
13:59:31:845660,-7,-6,14,11,8,11,-6,-9
13:59:31:858483,-1,-2,3,-9,5,15,12,-3
13:59:31:859261,-1,-2,3,-9,5,15,12,-3
13:59:31:865192,13,-10,-37,10,33,3,16,4
13:59:31:872744,5,3,-4,-1,4,-4,4,-6
13:59:31:880254,5,3,-4,-1,4,-4,4,-6
13:59:31:896503,3,-20,-9,-13,-26,-13,-1,5
13:59:31:897281,-10,-12,12,3,5,11,43,10
13:59:31:898088,-10,-12,12,3,5,11,43,10
13:59:31:902667,4,42,9,21,11,2,-24,-7
13:59:31:918381,-24,-40,-33,-7,-9,10,9,-2
13:59:31:919174,-24,-40,-33,-7,-9,10,9,-2
13:59:31:925316,2,-4,-11,5,3,0,-10,1
13:59:31:932648,24,6,-1,5,5,-7,-26,-5
13:59:31:940325,24,6,-1,5,5,-7,-26,-5
13:59:31:947739,11,8,-5,-23,-26,-13,16,4
13:59:31:955912,-1,-1,3,2,2,-5,-40,-2
13:59:31:956650,-1,-1,3,2,2,-5,-40,-2
13:59:31:962704,20,15,36,6,2,21,20,3
13:59:31:978891,-34,19,2,-23,-10,-19,8,-16
13:59:31:979638,-34,19,2,-23,-10,-19,8,-16
13:59:31:985188,-7,5,-29,-36,1,11,3,-1
13:59:31:992850,-5,-46,5,-11,-3,-3,-14,-1
13:59:32:177,-5,-46,5,-11,-3,-3,-14,-1
13:59:32:7770,-1,-14,-1,7,-4,-5,18,5
13:59:32:15892,14,24,7,7,-7,-13,-38,-11
13:59:32:16692,14,24,7,7,-7,-13,-38,-11
13:59:32:22774,-14,-3,-9,31,15,10,-26,-7
13:59:32:38515,16,19,7,5,11,13,27,8
13:59:32:39213,16,19,7,5,11,13,27,8
13:59:32:45212,2,-3,-9,-14,-5,-2,-10,3
13:59:32:52683,-11,8,17,12,-3,-15,-21,-3
13:59:32:60315,-11,8,17,12,-3,-15,-21,-3
13:59:32:67655,-24,-20,-4,-10,-15,-8,38,-5
13:59:32:76002,-5,2,6,-4,8,3,-26,-1
13:59:32:76717,-5,2,6,-4,8,3,-26,-1
13:59:32:82682,4,-9,-4,3,8,-12,-4,-16
13:59:32:98409,-16,1,-18,-15,-15,6,7,-5
13:59:32:99194,-16,1,-18,-15,-15,6,7,-5
13:59:32:105282,-16,-6,-2,-3,-6,15,19,14
13:59:32:112694,16,6,-17,6,-7,-20,-10,-5
13:59:32:120256,16,6,-17,6,-7,-20,-10,-5
13:59:32:127696,0,-6,1,-4,-4,11,10,4
13:59:32:135908,9,1,12,2,-5,29,10,9
13:59:32:136743,9,1,12,2,-5,29,10,9
13:59:32:142777,42,9,14,11,-17,-5,-23,7
13:59:32:158463,-1,10,0,18,12,-4,19,2
13:59:32:159233,-1,10,0,18,12,-4,19,2
13:59:32:165182,9,20,17,6,-1,-32,-22,-4
13:59:32:172740,7,10,-1,-10,-14,17,33,-5
13:59:32:180285,7,10,-1,-10,-14,17,33,-5
13:59:32:187815,-11,4,15,-5,-11,-21,-18,-6
13:59:32:195852,1,-13,-24,14,11,6,30,10
13:59:32:196662,1,-13,-24,14,11,6,30,10
13:59:32:202701,-13,-6,-7,0,9,-12,-12,-14
13:59:32:218373,2,-3,6,-2,20,1,3,-5
13:59:32:219243,2,-3,6,-2,20,1,3,-5
13:59:32:225314,0,-12,-23,-6,2,-9,25,3
13:59:32:232691,3,-22,-6,-8,2,6,-1,11
13:59:32:240220,3,-22,-6,-8,2,6,-1,11
13:59:32:247789,-13,18,15,-6,2,-1,-39,-12
13:59:32:255918,1,-1,-10,4,-17,-11,-30,-10
13:59:32:256710,1,-1,-10,4,-17,-11,-30,-10
13:59:32:262751,-2,-4,3,11,14,12,-8,-5
13:59:32:278441,-1,-14,15,-2,9,-10,21,0
13:59:32:279209,-1,-14,15,-2,9,-10,21,0
13:59:32:285212,-21,-6,-13,-12,1,-2,15,-1
13:59:32:292796,-23,19,1,-9,-17,-16,3,1
13:59:32:300204,-23,19,1,-9,-17,-16,3,1
13:59:32:307776,-3,-13,5,-18,2,-9,16,19
13:59:32:315848,-9,1,-23,-3,4,5,-41,-11
13:59:32:316678,-9,1,-23,-3,4,5,-41,-11
13:59:32:322714,18,0,-19,-1,3,9,7,8
13:59:32:338506,1,-7,-18,21,26,39,12,8
13:59:32:339168,1,-7,-18,21,26,39,12,8
13:59:32:345181,12,11,-20,-12,7,7,-9,-4
13:59:32:352679,-7,-7,8,-9,-32,6,43,12
13:59:32:360328,-7,-7,8,-9,-32,6,43,12
13:59:32:367649,2,-16,18,11,-5,6,0,-2
13:59:32:376005,5,9,6,-8,-22,-27,-34,-9
13:59:32:376688,5,9,6,-8,-22,-27,-34,-9
13:59:32:382654,-2,-11,-11,23,24,6,-15,-6
13:59:32:398385,-11,-4,11,-5,17,9,0,-3
13:59:32:399207,-11,-4,11,-5,17,9,0,-3
13:59:32:405265,-4,10,16,3,-12,-22,-23,-5
13:59:32:412695,0,-5,-35,-19,-3,14,-9,-1
13:59:32:420235,0,-5,-35,-19,-3,14,-9,-1
13:59:32:427713,-29,-8,-15,-4,-12,-3,-9,-10
13:59:32:435888,8,-10,29,7,0,-34,-40,-8
13:59:32:436714,8,-10,29,7,0,-34,-40,-8
13:59:32:442769,-7,-3,0,6,-7,-4,-5,1
13:59:32:458511,10,6,7,16,14,5,20,2
13:59:32:459226,10,6,7,16,14,5,20,2
13:59:32:465190,6,15,30,11,3,29,35,5
13:59:32:472762,-15,-10,6,-18,-13,-24,-19,-11
13:59:32:480302,-15,-10,6,-18,-13,-24,-19,-11
13:59:32:487834,-14,-5,0,0,16,67,86,15
13:59:32:495909,15,-10,2,-4,-13,-19,-6,-3
13:59:32:496695,15,-10,2,-4,-13,-19,-6,-3
13:59:32:502722,-4,0,-11,-17,-27,-38,-49,-14
13:59:32:518405,-21,-12,-7,11,13,-5,-24,-14
13:59:32:519195,-21,-12,-7,11,13,-5,-24,-14
13:59:32:525262,10,12,4,8,-5,2,-9,5
13:59:32:532705,-8,10,-11,6,2,-9,0,-2
13:59:32:540206,-8,10,-11,6,2,-9,0,-2
13:59:32:547771,32,-6,-17,-15,-1,-3,0,3
13:59:32:555961,-3,19,-12,-10,-2,30,42,7
13:59:32:556675,-3,19,-12,-10,-2,30,42,7
13:59:32:562712,-31,-6,-7,2,-8,0,10,-12
13:59:32:578367,12,-4,17,2,2,-2,34,9
13:59:32:579174,12,-4,17,2,2,-2,34,9
13:59:32:585209,23,-2,1,5,-1,-33,-22,11
13:59:32:592713,-18,-7,-10,-5,-6,-7,-1,0
13:59:32:600208,-18,-7,-10,-5,-6,-7,-1,0
13:59:32:607761,-17,-25,0,-4,12,2,17,-5
13:59:32:615841,16,21,7,1,2,14,2,5
13:59:32:616675,16,21,7,1,2,14,2,5
13:59:32:622740,-25,-17,-29,-15,-9,0,-9,-8
13:59:32:638450,19,29,14,4,-5,-11,-9,7
13:59:32:639152,19,29,14,4,-5,-11,-9,7
13:59:32:645164,10,2,6,12,17,21,25,9
13:59:32:652703,-14,7,12,-5,-18,-9,11,-6
13:59:32:660334,-14,7,12,-5,-18,-9,11,-6
13:59:32:667657,17,-4,11,-20,0,-9,-34,-7
13:59:32:676040,-2,-6,1,2,6,21,-11,-5
13:59:32:676675,-2,-6,1,2,6,21,-11,-5
13:59:32:682727,8,-11,-8,-13,-19,-10,-20,-1
13:59:32:698475,5,3,-9,4,0,3,23,7
13:59:32:699185,5,3,-9,4,0,3,23,7
13:59:32:705279,9,16,1,28,-3,-3,7,1
13:59:32:712704,-11,-4,-9,-5,-5,-15,-26,-6
13:59:32:720304,-11,-4,-9,-5,-5,-15,-26,-6
13:59:32:727800,38,43,10,-17,3,4,-18,4
13:59:32:735945,38,43,10,-17,3,4,-18,4
13:59:32:736661,7,-16,12,-7,6,12,-12,-1
13:59:32:742816,-16,-3,9,3,8,-2,8,-5
13:59:32:758514,-16,-3,9,3,8,-2,8,-5
13:59:32:759233,-3,2,-1,0,6,-26,-39,-8
13:59:32:765189,-17,0,4,-6,-30,-8,1,-9
13:59:32:780942,-17,0,4,-6,-30,-8,1,-9
13:59:32:781751,-18,-11,-8,0,2,-29,-29,-9
13:59:32:787797,11,-4,8,4,25,22,11,4
13:59:32:795966,11,-4,8,4,25,22,11,4
13:59:32:796696,2,18,-8,-10,-16,-7,-48,-19
13:59:32:810279,-15,1,-8,-8,-5,13,41,-2
13:59:32:818439,-15,1,-8,-8,-5,13,41,-2
13:59:32:819180,-17,-24,-11,-12,-7,4,21,-3
13:59:32:825250,-10,-12,-12,0,-2,2,-10,3
13:59:32:840974,-10,-12,-12,0,-2,2,-10,3
13:59:32:841715,14,-22,-7,0,-1,49,33,2
13:59:32:847669,-4,-1,11,2,-16,-16,-21,-5
13:59:32:855956,-4,-1,11,2,-16,-16,-21,-5
13:59:32:856717,0,19,-6,-6,1,-9,-14,4
13:59:32:870180,-15,-13,-4,6,22,1,14,0
13:59:32:878423,-15,-13,-4,6,22,1,14,0
13:59:32:879243,8,-2,21,-5,-1,-14,-24,-3
13:59:32:885140,2,6,-13,-15,-9,-21,-25,0
13:59:32:900895,2,6,-13,-15,-9,-21,-25,0
13:59:32:901692,-4,-39,-18,-14,-3,-1,21,10
13:59:32:907694,0,-22,4,5,4,16,22,-3
13:59:32:915917,0,-22,4,5,4,16,22,-3
13:59:32:916687,13,-21,-15,5,0,18,-20,0
13:59:32:930163,5,-2,5,0,1,6,17,5
13:59:32:938487,5,-2,5,0,1,6,17,5
13:59:32:939174,17,26,7,12,-4,-16,21,-6
13:59:32:945212,-17,13,-2,4,4,-15,-7,-3
13:59:32:960983,-17,13,-2,4,4,-15,-7,-3
13:59:32:961737,-3,-4,8,1,-5,19,27,4
13:59:32:967618,9,27,1,-2,3,-3,18,7
13:59:32:975992,9,27,1,-2,3,-3,18,7
13:59:32:976662,-9,7,-2,-8,-7,-23,25,-6
13:59:32:990220,26,-1,4,2,3,-8,-44,14
13:59:32:998401,26,-1,4,2,3,-8,-44,14
13:59:32:999141,-5,3,-20,0,8,-3,-61,-15
13:59:33:5227,6,-5,-9,-6,-18,-20,-54,-30
13:59:33:20913,6,-5,-9,-6,-18,-20,-54,-30
13:59:33:21704,-13,9,28,29,3,1,53,10
13:59:33:27781,-32,-10,5,15,0,10,41,10
13:59:33:35930,-32,-10,5,15,0,10,41,10
13:59:33:36690,0,3,-3,-8,4,52,71,1
13:59:33:50188,5,38,2,-2,-12,-9,-42,0
13:59:33:58466,5,38,2,-2,-12,-9,-42,0
13:59:33:59211,-16,3,4,50,36,-3,-24,-4
13:59:33:65201,-24,-21,-15,4,18,8,9,-7
13:59:33:80879,-24,-21,-15,4,18,8,9,-7
13:59:33:81633,6,-7,13,-14,-3,-26,-50,-9
13:59:33:87823,4,-3,10,0,-4,-9,-58,-6
13:59:33:95896,4,-3,10,0,-4,-9,-58,-6
13:59:33:96679,3,1,-28,-25,-22,5,20,8
13:59:33:110279,-18,-32,-26,-19,-2,16,32,9
13:59:33:118368,-18,-32,-26,-19,-2,16,32,9
13:59:33:119207,12,4,5,-2,23,-11,1,13
13:59:33:125307,21,4,21,21,-4,19,48,10
13:59:33:140988,21,4,21,21,-4,19,48,10
13:59:33:141772,-2,-14,-13,-3,-11,-11,-18,-9
13:59:33:147721,-6,-22,-16,-3,-4,-10,-48,-12
13:59:33:155962,-6,-22,-16,-3,-4,-10,-48,-12
13:59:33:156641,3,1,13,-4,-13,-18,-19,-8
13:59:33:170222,-10,2,7,-5,-2,-7,35,1
13:59:33:178429,-10,2,7,-5,-2,-7,35,1
13:59:33:179207,0,11,11,1,10,61,16,12
13:59:33:185190,41,-6,-11,-3,-2,-14,-19,-3
13:59:33:200910,41,-6,-11,-3,-2,-14,-19,-3
13:59:33:201677,-2,-7,-2,-3,-1,-18,-33,-4
13:59:33:207777,0,0,-27,-7,-3,-5,17,5
13:59:33:215840,0,0,-27,-7,-3,-5,17,5
13:59:33:216652,11,38,16,14,-10,-9,-10,6
13:59:33:230186,1,5,3,-33,12,-2,15,1
13:59:33:238613,1,5,3,-33,12,-2,15,1
13:59:33:239222,-20,-37,3,25,-1,-2,14,-5
13:59:33:245226,21,-2,-15,8,-13,-5,20,-3
13:59:33:260959,21,-2,-15,8,-13,-5,20,-3
13:59:33:261721,22,-3,-8,-2,13,-13,-60,-9
13:59:33:267660,-22,-3,4,3,-4,20,31,4
13:59:33:276007,-22,-3,4,3,-4,20,31,4
13:59:33:276708,-20,-8,-20,-16,-10,6,16,-1
13:59:33:290201,-34,11,5,-14,-13,-13,-27,-11
13:59:33:298412,-34,11,5,-14,-13,-13,-27,-11
13:59:33:299203,-3,0,14,-2,26,-14,-54,-21
13:59:33:305319,0,-13,3,-26,-18,0,11,5
13:59:33:321005,0,-13,3,-26,-18,0,11,5
13:59:33:321717,-14,-21,-22,4,0,-12,-6,-5
13:59:33:327747,11,9,16,27,9,29,25,6
13:59:33:335941,11,9,16,27,9,29,25,6
13:59:33:336705,-2,-3,-20,-3,-17,-3,30,11
13:59:33:350145,-14,5,3,10,7,-15,-48,-11
13:59:33:358444,-14,5,3,10,7,-15,-48,-11
13:59:33:359199,7,9,9,-3,-14,-25,-17,-1
13:59:33:365163,-23,5,-5,-3,-5,-3,30,-1
13:59:33:380898,-23,5,-5,-3,-5,-3,30,-1
13:59:33:381702,-1,17,-21,-2,6,-9,37,14
13:59:33:387801,14,-10,-1,20,22,5,-26,-4
13:59:33:395919,14,-10,-1,20,22,5,-26,-4
13:59:33:396716,1,-26,-11,3,11,15,43,12
13:59:33:410226,-7,10,9,10,15,-1,-17,1
13:59:33:418395,-7,10,9,10,15,-1,-17,1
13:59:33:419152,2,3,3,1,-13,7,23,-1
13:59:33:425259,5,16,19,-5,-8,-30,-24,-4
13:59:33:440969,5,16,19,-5,-8,-30,-24,-4
13:59:33:441724,16,23,-5,-16,-7,28,78,2
13:59:33:447672,3,1,4,11,-8,17,-5,-15
13:59:33:455999,3,1,4,11,-8,17,-5,-15
13:59:33:456678,-9,2,21,0,-10,-16,-26,5
13:59:33:470244,-4,-1,2,-4,12,-25,-41,-12
13:59:33:478384,-4,-1,2,-4,12,-25,-41,-12
13:59:33:479181,4,-10,7,-12,11,25,58,14
13:59:33:485155,6,-4,12,-24,-31,-13,-32,-4
13:59:33:500863,6,-4,12,-24,-31,-13,-32,-4
13:59:33:501635,-23,14,2,3,-5,-26,-28,-10
13:59:33:507789,-7,-44,-35,-2,21,17,5,-5
13:59:33:515895,-7,-44,-35,-2,21,17,5,-5
13:59:33:516669,12,-12,3,-6,1,-2,-19,-4
13:59:33:530238,-1,-4,-13,-7,2,-9,-46,-20
13:59:33:538482,-1,-4,-13,-7,2,-9,-46,-20
13:59:33:539211,6,-10,-3,7,5,-6,-16,3
13:59:33:545172,-6,9,15,5,6,28,34,10
13:59:33:560899,-6,9,15,5,6,28,34,10
13:59:33:561658,-11,-1,10,9,-14,-5,-20,-6
13:59:33:567674,8,7,4,4,-16,-8,56,11
13:59:33:575981,8,7,4,4,-16,-8,56,11
13:59:33:576703,6,14,3,-15,-7,4,-39,-6
13:59:33:590189,19,2,-12,-14,14,-8,27,23
13:59:33:598401,19,2,-12,-14,14,-8,27,23
13:59:33:599174,3,1,-7,-19,-20,-9,-20,-10
13:59:33:605312,19,0,-11,19,8,-6,-8,3
13:59:33:621052,19,0,-11,19,8,-6,-8,3
13:59:33:621688,-4,2,-3,1,-10,-36,-26,-11
13:59:33:627736,2,19,21,4,5,21,2,-3
13:59:33:635861,2,19,21,4,5,21,2,-3
13:59:33:636694,-13,-4,-8,13,2,-2,7,6
13:59:33:650198,0,12,-10,-5,-18,-22,-43,-5
13:59:33:658487,0,12,-10,-5,-18,-22,-43,-5
13:59:33:659203,-4,-23,6,-8,3,11,29,6
13:59:33:665221,-4,-5,-11,1,8,7,22,3
13:59:33:680956,-4,-5,-11,1,8,7,22,3
13:59:33:681722,14,1,-6,4,8,-1,-14,3
13:59:33:687776,2,-24,-18,-12,-25,-2,-7,-11
13:59:33:695902,2,-24,-18,-12,-25,-2,-7,-11
13:59:33:696663,-16,-2,1,-18,-11,22,-9,-11
13:59:33:710291,-10,27,10,-7,-7,1,-31,-14
13:59:33:718502,-10,27,10,-7,-7,1,-31,-14
13:59:33:719224,-1,48,-1,-5,7,-16,-48,-7
13:59:33:725304,-16,-24,-11,4,-5,5,64,12
13:59:33:740937,-16,-24,-11,4,-5,5,64,12
13:59:33:741765,-4,-2,20,4,14,13,-34,-23
13:59:33:747679,-25,-17,0,4,6,-1,-23,-6
13:59:33:755347,-25,-17,0,4,6,-1,-23,-6
13:59:33:762735,-10,-11,-13,-3,-2,-2,-10,-12
13:59:33:770241,-2,4,-18,-6,-20,-11,-9,-13
13:59:33:778381,-2,4,-18,-6,-20,-11,-9,-13
13:59:33:779209,6,24,-2,-18,-4,3,50,18
13:59:33:792813,-4,-10,-22,1,-5,-10,-3,5
13:59:33:800962,-4,-10,-22,1,-5,-10,-3,5
13:59:33:801719,7,-25,-18,11,18,39,84,18
13:59:33:807733,7,25,19,10,12,-7,-33,-3
13:59:33:815209,7,25,19,10,12,-7,-33,-3
13:59:33:822803,12,-42,-7,-7,-5,-11,-9,0
13:59:33:830229,23,-12,9,-3,2,-5,-18,8
13:59:33:845957,23,-12,9,-3,2,-5,-18,8
13:59:33:846729,-11,-22,-11,1,3,11,43,7
13:59:33:852700,-11,9,2,-17,-18,-18,-32,-16
13:59:33:860971,-11,9,2,-17,-18,-18,-32,-16
13:59:33:861685,4,4,2,-4,21,-1,-11,2
13:59:33:867701,-14,-11,2,0,-15,-22,-44,-17
13:59:33:875333,-14,-11,2,0,-15,-22,-44,-17
13:59:33:882621,-14,-6,10,1,10,0,0,-5
13:59:33:890173,-11,-9,-23,-3,18,20,41,7
13:59:33:898548,-11,-9,-23,-3,18,20,41,7
13:59:33:899173,6,-9,-8,-9,-32,-33,3,3
13:59:33:912763,22,-8,6,10,15,10,-56,-6
13:59:33:920973,22,-8,6,10,15,10,-56,-6
13:59:33:921661,-22,18,24,17,-9,1,-2,-7
13:59:33:927677,4,29,32,-18,-13,18,30,-4
13:59:33:935236,4,29,32,-18,-13,18,30,-4
13:59:33:942837,23,21,2,7,20,20,36,6
13:59:33:950175,0,-1,-13,6,0,-4,50,10
13:59:33:958548,0,-1,-13,6,0,-4,50,10
13:59:33:959257,-6,-1,6,5,-8,3,-25,1
13:59:33:973198,11,8,-6,8,21,9,17,-7
13:59:33:980884,11,8,-6,8,21,9,17,-7
13:59:33:981726,-25,8,18,-3,-15,-16,-37,-18
13:59:33:987764,12,9,0,-4,-11,17,37,2
13:59:33:995293,12,9,0,-4,-11,17,37,2
13:59:34:2718,11,-9,-28,2,15,4,-8,2
13:59:34:10299,-14,-9,-2,18,6,-17,-12,-1
13:59:34:18428,-14,-9,-2,18,6,-17,-12,-1
13:59:34:19235,4,6,-6,1,-10,7,-49,-16
13:59:34:32677,8,-2,-3,-6,-10,-13,-15,-3
13:59:34:40959,8,-2,-3,-6,-10,-13,-15,-3
13:59:34:41720,1,-7,13,-2,-16,-11,65,19
13:59:34:47682,-11,3,-4,24,20,14,4,9
13:59:34:55359,-11,3,-4,24,20,14,4,9
13:59:34:62712,4,-35,-21,-4,8,-10,73,20
13:59:34:70197,8,0,38,-7,-6,30,40,14
13:59:34:78389,8,0,38,-7,-6,30,40,14
13:59:34:79201,-22,-7,2,3,7,5,11,-1
13:59:34:92720,-5,-7,7,-18,-14,-22,0,3
13:59:34:100904,-5,-7,7,-18,-14,-22,0,3
13:59:34:101697,12,-6,-13,6,-17,7,-16,-1
13:59:34:107756,-9,13,8,2,5,4,45,10
13:59:34:115226,-9,13,8,2,5,4,45,10
13:59:34:122777,3,7,-1,0,-7,-19,-68,-12
13:59:34:130204,-3,-44,-62,-16,-5,-27,-8,2
13:59:34:138493,-3,-44,-62,-16,-5,-27,-8,2
13:59:34:139169,18,20,-7,-22,-2,-5,-35,-4
