Time,EMG1,EMG2,EMG3,EMG4,EMG5,EMG6,EMG7,EMG8
14:00:37:326339,1,3,9,15,32,42,4,5
14:00:37:334399,-1,0,-17,-2,-28,-12,-3,-2
14:00:37:335227,-1,0,-17,-2,-28,-12,-3,-2
14:00:37:341210,-1,-7,1,14,11,1,-11,-2
14:00:37:356922,-2,-1,17,-3,-15,16,3,-1
14:00:37:357692,-2,-1,17,-3,-15,16,3,-1
14:00:37:363746,-5,-2,-13,-25,-12,-43,-39,-9
14:00:37:371242,4,-3,1,-20,49,49,7,6
14:00:37:378775,4,-3,1,-20,49,49,7,6
14:00:37:386216,-2,0,-9,-29,-2,11,6,1
14:00:37:394464,-7,-11,-36,-65,-66,-53,-18,-10
14:00:37:395207,-7,-11,-36,-65,-66,-53,-18,-10
14:00:37:401233,2,4,27,67,56,30,9,3
14:00:37:416887,-4,0,6,8,-6,-13,0,-2
14:00:37:417718,-4,0,6,8,-6,-13,0,-2
14:00:37:423703,-2,0,-7,-10,-30,-10,4,-4
14:00:37:431190,3,-2,10,25,23,10,5,3
14:00:37:438870,3,-2,10,25,23,10,5,3
14:00:37:446237,2,-1,4,-3,-15,-16,-11,-4
14:00:37:454372,4,1,1,13,28,12,5,3
14:00:37:455185,4,1,1,13,28,12,5,3
14:00:37:461280,-10,-3,5,-1,-30,-56,-12,-4
14:00:37:476954,9,7,16,47,58,31,9,8
14:00:37:477677,9,7,16,47,58,31,9,8
14:00:37:483667,2,1,7,9,1,10,10,2
14:00:37:491277,-5,-2,-5,-10,-12,-6,-9,-4
14:00:37:498723,-5,-2,-5,-10,-12,-6,-9,-4
14:00:37:506300,-1,-3,-10,-33,-20,-18,-2,-6
14:00:37:514428,-4,-2,2,2,-10,-6,1,-5
14:00:37:515247,-4,-2,2,2,-10,-6,1,-5
14:00:37:521196,-2,-2,-8,2,8,16,0,4
14:00:37:536849,-3,-4,-7,-8,-22,-23,-9,-6
14:00:37:537624,-3,-4,-7,-8,-22,-23,-9,-6
14:00:37:543756,2,2,-6,-8,9,12,10,3
14:00:37:551168,-3,1,5,1,-42,-43,-11,-3
14:00:37:558831,-3,1,5,1,-42,-43,-11,-3
14:00:37:566161,2,5,-4,6,9,25,9,-2
14:00:37:574378,-3,-1,-12,-15,-34,1,4,-1
14:00:37:575182,-3,-1,-12,-15,-34,1,4,-1
14:00:37:581199,-1,0,1,0,18,17,1,0
14:00:37:596893,-1,-5,-4,20,10,-8,-4,-1
14:00:37:597695,-1,-5,-4,20,10,-8,-4,-1
14:00:37:603687,1,-5,-14,-11,-4,-9,2,-1
14:00:37:611222,-3,-4,-6,-4,-14,-15,-5,1
14:00:37:618736,-3,-4,-6,-4,-14,-15,-5,1
14:00:37:626231,-2,-8,-28,-4,-35,-21,-2,4
14:00:37:634406,1,2,4,-6,15,36,3,-2
14:00:37:635222,1,2,4,-6,15,36,3,-2
14:00:37:641264,-1,-7,6,0,-10,1,8,-2
14:00:37:665080,-3,-4,-10,-12,-27,-22,-11,-7
14:00:37:665877,-3,-4,-10,-12,-27,-22,-11,-7
14:00:37:666619,-5,5,0,-2,17,20,4,0
14:00:37:671291,-1,-5,12,-1,12,7,2,0
14:00:37:678762,-1,-5,12,-1,12,7,2,0
14:00:37:686153,-3,-5,18,-27,-14,4,-5,-5
14:00:37:694491,-3,-5,-7,-16,-15,-20,-3,-1
14:00:37:695186,-3,-5,-7,-16,-15,-20,-3,-1
14:00:37:701166,5,5,8,24,30,11,9,6
14:00:37:716884,-4,-8,-8,-24,-14,-10,-5,-7
14:00:37:717711,-4,-8,-8,-24,-14,-10,-5,-7
14:00:37:723663,2,1,0,4,3,8,-5,0
14:00:37:739485,-1,4,-22,-16,-32,-43,-6,-5
14:00:37:740159,-1,4,-22,-16,-32,-43,-6,-5
14:00:37:746209,7,4,-5,-6,29,50,27,7
14:00:37:754379,3,0,-32,-2,22,27,3,2
14:00:37:755229,3,0,-32,-2,22,27,3,2
14:00:37:761294,-5,0,4,18,-4,-29,-18,-7
14:00:37:776996,-5,0,4,18,-4,-29,-18,-7
14:00:37:777720,-2,-2,1,32,52,46,8,1
14:00:37:783612,-6,-5,5,-14,-43,-54,-37,-8
14:00:37:799395,-6,-5,5,-14,-43,-54,-37,-8
14:00:37:800166,1,7,13,-34,-25,-26,1,-2
14:00:37:806291,2,0,2,5,9,44,27,2
14:00:37:814432,2,0,2,5,9,44,27,2
14:00:37:815239,3,16,18,-13,-30,-2,-7,1
14:00:37:821181,-5,-9,-12,14,10,-23,-11,-9
14:00:37:836908,-5,-9,-12,14,10,-23,-11,-9
14:00:37:837666,6,6,28,53,33,12,11,5
14:00:37:843817,-1,11,6,-10,-28,-17,-11,-1
14:00:37:867587,-1,11,6,-10,-28,-17,-11,-1
14:00:37:868361,-4,-9,-1,10,2,-18,-24,-7
14:00:37:869170,0,-1,-10,11,-14,-2,27,3
14:00:37:874509,0,-1,-10,11,-14,-2,27,3
14:00:37:875284,-3,-1,-4,-26,-31,-16,-16,-1
14:00:37:881191,1,8,18,26,25,34,5,0
14:00:37:896965,1,8,18,26,25,34,5,0
14:00:37:897719,0,2,-5,1,44,26,7,-3
14:00:37:903724,-2,-13,-10,-29,-58,-93,-61,-9
14:00:37:919397,-2,-13,-10,-29,-58,-93,-61,-9
14:00:37:920186,2,-1,26,18,-3,-45,-31,-5
14:00:37:926292,-9,-8,-12,-20,-14,19,10,-4
14:00:37:934433,-9,-8,-12,-20,-14,19,10,-4
14:00:37:935182,3,-12,-54,-61,-9,-5,7,6
14:00:37:941222,8,8,7,-12,45,17,4,8
14:00:37:956962,8,8,7,-12,45,17,4,8
14:00:37:957669,11,33,28,18,20,25,3,3
14:00:37:963717,-2,0,11,-22,-45,-21,12,-4
14:00:37:979432,-2,0,11,-22,-45,-21,12,-4
14:00:37:980227,-5,-11,6,-3,-14,-17,-7,-1
14:00:37:986178,4,4,-5,38,103,96,64,15
14:00:37:994536,4,4,-5,38,103,96,64,15
14:00:37:995235,-2,-8,-11,3,16,-7,-2,3
14:00:38:1158,-5,-3,-16,-32,-19,-2,-13,-4
14:00:38:16878,-5,-3,-16,-32,-19,-2,-13,-4
14:00:38:17674,-6,-17,-37,4,34,35,20,3
14:00:38:23688,-16,-20,-13,-23,-72,-53,-31,-15
14:00:38:39440,-16,-20,-13,-23,-72,-53,-31,-15
14:00:38:40162,-2,-18,-11,9,12,9,7,-1
14:00:38:46164,-4,-5,-11,-21,-6,-80,-72,-13
14:00:38:54435,-4,-5,-11,-21,-6,-80,-72,-13
14:00:38:55191,-4,-1,8,-1,-42,-28,11,-5
14:00:38:61256,2,8,12,-3,31,14,21,11
14:00:38:77016,2,8,12,-3,31,14,21,11
14:00:38:77696,-5,0,2,73,-4,-10,-7,-6
14:00:38:91284,0,-7,-2,5,10,11,-19,-4
14:00:38:99411,0,-7,-2,5,10,11,-19,-4
14:00:38:100145,-3,0,3,-5,13,14,12,-2
14:00:38:106277,3,-6,-22,-13,-10,6,12,0
14:00:38:114414,3,-6,-22,-13,-10,6,12,0
14:00:38:115156,-4,-5,0,-10,-33,-5,-6,-6
14:00:38:128713,-3,-7,-4,14,-21,0,-4,1
14:00:38:136895,-3,-7,-4,14,-21,0,-4,1
14:00:38:137632,-2,-2,-8,-42,-1,10,20,-1
14:00:38:143766,2,8,-6,-10,41,14,15,0
14:00:38:167557,2,8,-6,-10,41,14,15,0
14:00:38:168350,0,-6,7,-35,4,9,-9,1
14:00:38:169174,0,-2,3,53,17,-4,9,1
14:00:38:174443,0,-2,3,53,17,-4,9,1
14:00:38:175218,-3,-1,7,-1,16,6,-2,5
14:00:38:188768,-4,-1,-16,-31,-30,2,-5,-7
14:00:38:196954,-4,-1,-16,-31,-30,2,-5,-7
14:00:38:197707,-2,6,32,34,2,-9,-2,-5
14:00:38:203725,3,6,15,31,12,6,13,4
14:00:38:219395,3,6,15,31,12,6,13,4
14:00:38:220214,-2,-1,-13,-29,-2,-6,-2,0
14:00:38:226260,4,-3,24,-24,-16,13,3,6
14:00:38:241984,4,-3,24,-24,-16,13,3,6
14:00:38:242670,0,-4,-19,-17,-20,-2,-3,-3
14:00:38:248670,0,8,-9,7,6,-19,-26,-5
14:00:38:256898,0,8,-9,7,6,-19,-26,-5
14:00:38:257705,-3,-2,-10,-4,-15,11,16,0
14:00:38:263694,-6,-5,8,-9,-20,12,-1,-3
14:00:38:279453,-6,-5,8,-9,-20,12,-1,-3
14:00:38:280218,9,3,-11,23,34,27,-3,9
14:00:38:286155,3,9,27,73,20,-5,0,-3
14:00:38:294524,3,9,27,73,20,-5,0,-3
14:00:38:295227,-1,3,10,22,-15,-1,3,-1
14:00:38:308826,2,2,-5,74,39,17,11,5
14:00:38:316865,2,2,-5,74,39,17,11,5
14:00:38:317741,-2,4,19,10,-12,-16,2,-4
14:00:38:323709,-3,-8,-33,-50,-26,-25,3,-5
14:00:38:339501,-3,-8,-33,-50,-26,-25,3,-5
14:00:38:340218,1,5,-9,-17,-31,-48,-57,-2
14:00:38:346202,2,0,14,-50,13,38,22,8
14:00:38:354437,2,0,14,-50,13,38,22,8
14:00:38:355233,5,14,15,19,21,-23,-12,-4
14:00:38:368693,-3,-1,-6,6,-25,-13,-7,-9
14:00:38:376962,-3,-1,-6,6,-25,-13,-7,-9
14:00:38:377703,-2,-8,-7,-23,-34,3,10,-2
14:00:38:383638,-3,-8,-10,-23,15,-4,-3,-1
14:00:38:399364,-3,-8,-10,-23,15,-4,-3,-1
14:00:38:400414,-10,-17,-39,-24,-31,2,-2,-11
14:00:38:406240,-5,-3,10,23,31,-8,-11,-9
14:00:38:414400,-5,-3,10,23,31,-8,-11,-9
14:00:38:415180,2,2,30,-6,30,21,8,4
14:00:38:428704,2,15,12,-29,-45,-24,-17,-4
14:00:38:436915,2,15,12,-29,-45,-24,-17,-4
14:00:38:437705,-2,-8,-11,11,13,14,16,1
14:00:38:443809,-3,-8,-13,-39,-36,-25,-7,2
14:00:38:451234,-3,-8,-13,-39,-36,-25,-7,2
14:00:38:458728,-4,-4,2,-31,-14,-2,-11,3
14:00:38:466185,3,0,-14,11,55,14,10,0
14:00:38:474434,3,0,-14,11,55,14,10,0
14:00:38:475229,3,6,45,47,61,6,-2,-3
14:00:38:488773,2,1,5,-17,-25,4,17,5
14:00:38:496917,2,1,5,-17,-25,4,17,5
14:00:38:497727,4,2,12,-7,-39,-3,3,1
14:00:38:503685,-4,3,1,-1,-16,-23,-22,-4
14:00:38:519378,-4,3,1,-1,-16,-23,-22,-4
14:00:38:520162,-4,-4,-21,-11,-11,-6,39,2
14:00:38:526290,-5,-10,23,11,11,1,0,-5
14:00:38:534396,-5,-10,23,11,11,1,0,-5
14:00:38:535158,5,12,40,-11,16,8,-7,6
14:00:38:548742,-1,-3,-3,25,22,3,8,1
14:00:38:556933,-1,-3,-3,25,22,3,8,1
14:00:38:557715,-4,1,-26,-55,-75,-53,-14,-2
14:00:38:563696,0,-1,12,-14,-7,-7,1,0
14:00:38:571270,0,-1,12,-14,-7,-7,1,0
14:00:38:578691,-4,-3,-16,36,16,13,-5,-5
14:00:38:586164,-9,-15,22,16,4,35,-5,0
14:00:38:594489,-9,-15,22,16,4,35,-5,0
14:00:38:595230,2,1,-14,22,51,64,-12,0
14:00:38:608788,-5,-11,-34,-55,-107,-49,2,-8
14:00:38:616861,-5,-11,-34,-55,-107,-49,2,-8
14:00:38:617664,-4,-6,3,19,34,63,9,-6
14:00:38:623653,0,1,1,22,-7,-25,-4,1
14:00:38:639443,0,1,1,22,-7,-25,-4,1
14:00:38:640153,-12,-27,-30,11,-17,-74,-32,-9
14:00:38:646195,2,10,-15,14,28,39,9,7
14:00:38:654422,2,10,-15,14,28,39,9,7
14:00:38:655204,-7,-15,-22,-64,-20,7,-16,-5
14:00:38:668711,2,3,-1,52,54,22,9,0
14:00:38:676953,2,3,-1,52,54,22,9,0
14:00:38:677672,-1,5,-16,18,-14,-42,-7,-3
14:00:38:683634,8,12,-2,-34,-9,13,-1,-4
14:00:38:699410,8,12,-2,-34,-9,13,-1,-4
14:00:38:700147,-4,0,40,0,-73,-52,-14,-8
14:00:38:706261,0,2,1,-5,7,50,7,5
14:00:38:721959,0,2,1,-5,7,50,7,5
14:00:38:722760,8,7,-12,18,57,32,7,7
14:00:38:728729,-8,-18,-9,-12,-48,-16,2,-6
14:00:38:736900,-8,-18,-9,-12,-48,-16,2,-6
14:00:38:737683,1,3,7,28,10,30,36,8
14:00:38:743831,-1,-8,-77,-53,0,-38,-13,-3
14:00:38:759527,-1,-8,-77,-53,0,-38,-13,-3
14:00:38:760225,3,13,22,44,41,8,-1,-5
14:00:38:766226,1,-17,-78,15,35,7,-2,0
14:00:38:774482,1,-17,-78,15,35,7,-2,0
14:00:38:775202,2,-4,-9,-39,-28,6,11,4
14:00:38:788777,-3,20,60,13,4,-13,-10,-1
14:00:38:796923,-3,20,60,13,4,-13,-10,-1
14:00:38:797669,1,-3,18,-5,-5,10,-5,-3
14:00:38:803694,-4,-6,46,20,29,-26,-14,-4
14:00:38:819498,-4,-6,46,20,29,-26,-14,-4
14:00:38:820256,-2,4,-18,-27,-36,-30,8,0
14:00:38:826274,1,-11,-45,12,47,43,17,6
14:00:38:834392,1,-11,-45,12,47,43,17,6
14:00:38:835182,-1,-2,-18,4,-22,-25,-12,1
14:00:38:848724,-3,-4,36,-4,-19,-15,-9,-5
14:00:38:856957,-3,-4,36,-4,-19,-15,-9,-5
14:00:38:857735,3,-7,-6,52,49,28,8,3
14:00:38:863735,2,9,11,-12,-5,1,1,-1
14:00:38:879469,2,9,11,-12,-5,1,1,-1
14:00:38:880231,-2,10,17,-25,16,6,-20,-2
14:00:38:886209,0,15,-12,-13,-46,-24,3,-3
14:00:38:902331,0,15,-12,-13,-46,-24,3,-3
14:00:38:902668,-5,-6,-7,-2,-31,6,-4,-4
14:00:38:908735,-1,-4,-10,4,44,6,-6,-2
14:00:38:916897,-1,-4,-10,4,44,6,-6,-2
14:00:38:917675,-3,1,20,27,13,-1,-4,-7
14:00:38:923693,5,10,13,4,-54,-22,-2,-1
14:00:38:939481,5,10,13,4,-54,-22,-2,-1
14:00:38:940195,1,-1,-25,-33,21,40,15,7
14:00:38:946215,0,3,8,0,0,-4,-10,1
14:00:38:954436,0,3,8,0,0,-4,-10,1
14:00:38:955233,0,3,25,-36,-34,0,-6,0
14:00:38:968673,4,16,18,29,40,14,7,-1
14:00:38:977052,4,16,18,29,40,14,7,-1
14:00:38:977719,0,-15,-21,0,1,-1,8,0
14:00:38:983680,0,-7,11,26,21,15,3,2
14:00:38:999415,0,-7,11,26,21,15,3,2
14:00:39:178,2,4,-21,9,16,-21,-4,-1
14:00:39:6208,-5,-13,-19,2,-29,-15,-5,1
14:00:39:13746,-5,-13,-19,2,-29,-15,-5,1
14:00:39:21206,-2,-5,3,48,22,-9,-1,2
14:00:39:28731,2,4,6,-11,11,26,23,7
14:00:39:36933,2,4,6,-11,11,26,23,7
14:00:39:37711,-5,-9,-12,-25,-12,-8,24,-5
14:00:39:51194,-2,4,24,25,31,7,-17,-5
14:00:39:59523,-2,4,24,25,31,7,-17,-5
14:00:39:60192,1,21,-1,-22,7,-15,-6,-1
14:00:39:66180,-19,-31,5,-8,-4,-2,-1,-9
14:00:39:73764,-19,-31,5,-8,-4,-2,-1,-9
14:00:39:81203,6,0,19,21,-11,-6,-4,0
14:00:39:88758,7,6,5,31,3,21,7,0
14:00:39:96904,7,6,5,31,3,21,7,0
14:00:39:97709,-11,-13,-6,-16,-13,-32,-25,-7
14:00:39:111284,2,-6,-21,-46,-26,-30,-25,-4
14:00:39:119416,2,-6,-21,-46,-26,-30,-25,-4
14:00:39:120178,4,11,-1,-3,-13,42,40,6
14:00:39:134428,-1,7,26,2,2,3,11,2
14:00:39:135216,-1,7,26,2,2,3,11,2
14:00:39:141278,-4,-27,38,-8,-3,-8,-22,-3
14:00:39:148714,-1,-4,-2,-23,16,0,-4,-2
14:00:39:156887,-1,-4,-2,-23,16,0,-4,-2
14:00:39:157631,-7,-20,26,-14,10,-8,-7,-5
14:00:39:171167,-5,-17,-6,-36,-48,-44,-15,-7
14:00:39:179439,-5,-17,-6,-36,-48,-44,-15,-7
14:00:39:180232,6,10,-26,7,-16,22,19,7
14:00:39:186212,-1,27,7,15,3,11,17,6
14:00:39:193799,-1,27,7,15,3,11,17,6
14:00:39:201202,5,17,7,19,19,13,0,6
14:00:39:208788,0,3,11,-1,-13,-1,-20,-11
14:00:39:216838,0,3,11,-1,-13,-1,-20,-11
14:00:39:217673,-4,-2,3,49,6,-14,-9,-4
14:00:39:231219,-9,-16,-1,-17,-10,5,1,-7
14:00:39:239423,-9,-16,-1,-17,-10,5,1,-7
14:00:39:240136,-5,6,-6,-35,-45,-64,-15,-10
14:00:39:246204,3,-4,9,39,37,56,13,7
14:00:39:253686,3,-4,9,39,37,56,13,7
14:00:39:261194,1,-2,-30,-29,22,32,15,-17
14:00:39:268714,3,6,-27,-41,-31,-8,12,9
14:00:39:276930,3,6,-27,-41,-31,-8,12,9
14:00:39:277682,-3,-16,4,-5,-4,-11,-14,1
14:00:39:291274,2,7,-35,-5,-8,-4,-7,0
14:00:39:299384,2,7,-35,-5,-8,-4,-7,0
14:00:39:300155,1,2,21,26,24,31,-1,1
14:00:39:306232,-7,-3,0,-32,-20,-51,-37,-1
14:00:39:313730,-7,-3,0,-32,-20,-51,-37,-1
14:00:39:321213,5,-2,-1,0,17,26,-2,7
14:00:39:328687,0,4,0,20,17,66,35,1
14:00:39:336632,0,4,0,20,17,66,35,1
14:00:39:343770,-8,-17,-29,-15,-19,-27,0,6
14:00:39:351186,-2,-20,-10,0,10,-12,3,-1
14:00:39:359513,-2,-20,-10,0,10,-12,3,-1
14:00:39:360229,-1,-3,13,6,-13,-15,-10,-5
14:00:39:366206,-6,1,-5,-8,-27,-34,-7,-8
14:00:39:373717,-6,1,-5,-8,-27,-34,-7,-8
14:00:39:381183,4,6,1,-12,39,57,17,5
14:00:39:388789,2,-9,-5,4,7,13,22,0
14:00:39:396938,2,-9,-5,4,7,13,22,0
14:00:39:397723,-2,15,16,-17,-38,-52,-15,-7
14:00:39:411875,-3,2,-20,-20,-14,-39,-22,-8
14:00:39:412673,-3,2,-20,-20,-14,-39,-22,-8
14:00:39:418680,-3,9,-15,6,5,58,43,6
14:00:39:426258,1,1,1,1,16,-4,-3,1
14:00:39:433693,1,1,1,1,16,-4,-3,1
14:00:39:441196,0,-1,-27,-4,10,-11,-10,-2
14:00:39:448642,-8,-21,-1,18,2,-18,-17,-5
14:00:39:456932,-8,-21,-1,18,2,-18,-17,-5
14:00:39:457728,2,8,-4,0,-7,-10,-11,-3
14:00:39:471991,0,5,15,-3,-25,-3,26,3
14:00:39:472685,0,5,15,-3,-25,-3,26,3
14:00:39:478718,8,3,-6,7,7,-3,2,9
14:00:39:486153,4,11,-15,0,1,-4,-3,0
14:00:39:493849,4,11,-15,0,1,-4,-3,0
14:00:39:501144,-3,-6,-6,-8,-13,-29,-17,-7
14:00:39:508813,-4,-9,24,-8,-10,18,-10,1
14:00:39:516895,-4,-9,24,-8,-10,18,-10,1
14:00:39:517742,-3,4,-5,-14,-6,-15,5,-8
14:00:39:531921,6,0,7,-5,3,10,4,5
14:00:39:532713,6,0,7,-5,3,10,4,5
14:00:39:538734,-14,-52,29,-5,-36,-89,-69,-13
14:00:39:546234,-3,-6,7,15,13,47,6,-1
14:00:39:553815,-3,-6,7,15,13,47,6,-1
14:00:39:561247,-3,-28,-47,-5,22,8,-3,3
14:00:39:568657,1,-18,-33,-18,6,5,2,1
14:00:39:584456,1,-18,-33,-18,6,5,2,1
14:00:39:585151,-4,3,24,23,18,17,-6,-3
14:00:39:591933,0,14,-26,-3,2,-4,-2,-5
14:00:39:592712,0,14,-26,-3,2,-4,-2,-5
14:00:39:598695,0,13,24,13,-22,-39,-6,-8
14:00:39:606216,-4,-28,8,22,26,44,45,11
14:00:39:613790,-4,-28,8,22,26,44,45,11
14:00:39:621239,4,20,-10,-16,-19,0,22,5
14:00:39:628738,5,35,6,16,13,0,-20,-1
14:00:39:636916,5,35,6,16,13,0,-20,-1
14:00:39:637655,2,17,-12,-44,-10,-4,7,1
14:00:39:651924,-6,-59,-10,-2,8,-1,5,-2
14:00:39:652767,-6,-59,-10,-2,8,-1,5,-2
14:00:39:658794,5,22,-16,-23,-14,6,1,3
14:00:39:666235,-1,-4,19,11,-7,-23,-24,-9
14:00:39:673728,-1,-4,19,11,-7,-23,-24,-9
14:00:39:681252,-2,-7,58,20,-8,-12,-4,-3
14:00:39:688798,-2,28,10,0,8,-45,-23,-14
14:00:39:696941,-2,28,10,0,8,-45,-23,-14
14:00:39:697728,3,6,-20,-9,-5,16,8,1
14:00:39:711887,3,38,43,3,-12,-10,-8,-4
14:00:39:712675,3,38,43,3,-12,-10,-8,-4
14:00:39:718693,-8,-30,-23,14,30,21,-1,-6
14:00:39:726319,-6,-8,-31,-10,-11,-7,-5,-6
14:00:39:733705,-6,-8,-31,-10,-11,-7,-5,-6
14:00:39:741190,-4,-3,3,-2,-20,-8,2,4
14:00:39:748749,4,12,-7,1,20,-11,15,8
14:00:39:756921,4,12,-7,1,20,-11,15,8
14:00:39:757714,2,2,-19,-10,14,107,77,15
14:00:39:772000,-1,31,26,22,4,7,16,2
14:00:39:772710,-1,31,26,22,4,7,16,2
14:00:39:778705,-7,-39,-21,1,1,-24,-32,-23
14:00:39:786169,-1,-15,-27,-1,-16,-23,-25,1
14:00:39:793839,-1,-15,-27,-1,-16,-23,-25,1
14:00:39:801195,4,18,17,15,37,17,4,9
14:00:39:808758,-2,-45,-37,-15,-4,-15,-7,-3
14:00:39:816885,-2,-45,-37,-15,-4,-15,-7,-3
14:00:39:817653,6,36,-8,4,8,48,69,-1
14:00:39:831928,6,13,-7,11,18,16,4,7
14:00:39:832681,6,13,-7,11,18,16,4,7
14:00:39:838796,-6,-24,-14,-13,-58,-62,-34,-4
14:00:39:846222,0,-11,26,-4,-13,17,6,5
14:00:39:853790,0,-11,26,-4,-13,17,6,5
14:00:39:861274,6,20,-6,0,27,-4,-4,4
14:00:39:868705,-5,-25,-8,-29,-50,-36,-24,-7
14:00:39:877051,-5,-25,-8,-29,-50,-36,-24,-7
14:00:39:877757,-4,-11,15,13,9,44,-15,6
14:00:39:892002,-6,20,28,-9,-2,13,11,-8
14:00:39:892750,-6,20,28,-9,-2,13,11,-8
14:00:39:898696,0,-21,26,3,15,8,-10,0
14:00:39:906293,16,13,17,8,12,12,2,5
14:00:39:913813,16,13,17,8,12,12,2,5
14:00:39:921243,-2,15,-46,-19,-13,-33,-24,-2
14:00:39:928763,-6,39,2,2,-5,1,-6,-8
14:00:39:936864,-6,39,2,2,-5,1,-6,-8
14:00:39:937628,6,5,16,16,8,-38,-30,0
14:00:39:951923,-9,-17,-15,-11,-22,-18,-3,-1
14:00:39:952701,-9,-17,-15,-11,-22,-18,-3,-1
14:00:39:958777,3,15,11,16,16,6,6,-1
14:00:39:966231,-9,-38,58,34,19,-15,-14,-10
14:00:39:973741,-9,-38,58,34,19,-15,-14,-10
14:00:39:981258,5,5,-8,-14,-14,-3,-8,-5
14:00:39:988791,-2,-5,-54,-10,-6,16,11,-1
14:00:39:996288,-2,-5,-54,-10,-6,16,11,-1
14:00:40:3690,-9,-16,-7,-7,-27,-13,-6,-7
14:00:40:11916,1,-5,-26,-9,26,23,12,-1
14:00:40:12711,1,-5,-26,-9,26,23,12,-1
14:00:40:18657,7,-9,-26,4,34,35,4,4
14:00:40:34403,7,-15,-22,1,-4,-12,-22,9
14:00:40:35198,7,-15,-22,1,-4,-12,-22,9
14:00:40:41236,-8,-3,3,-2,-19,-30,-12,9
14:00:40:48683,7,4,-20,-16,-5,-11,-1,2
14:00:40:56306,7,4,-20,-16,-5,-11,-1,2
14:00:40:63724,-5,20,78,19,13,26,16,2
14:00:40:72029,1,19,37,16,-4,-2,11,7
14:00:40:72744,1,19,37,16,-4,-2,11,7
14:00:40:78691,1,30,-3,16,20,-22,-6,-8
14:00:40:94438,0,5,-41,-25,-11,-8,-15,-8
14:00:40:95175,0,5,-41,-25,-11,-8,-15,-8
14:00:40:101128,-8,-2,-19,1,12,-3,-11,3
14:00:40:108759,-8,-9,-17,-17,-33,-41,-45,-9
14:00:40:116265,-8,-9,-17,-17,-33,-41,-45,-9
14:00:40:123668,3,26,12,3,9,28,15,2
14:00:40:131206,0,-3,24,-30,-35,-18,-10,-3
14:00:40:139531,0,-3,24,-30,-35,-18,-10,-3
14:00:40:140213,-5,-14,-7,-3,12,-8,-12,-4
14:00:40:154377,-6,-26,-12,15,37,52,43,1
14:00:40:155230,-6,-26,-12,15,37,52,43,1
14:00:40:161236,-1,-40,-43,-15,-23,-24,1,-6
14:00:40:168671,1,34,14,18,15,-7,18,-2
14:00:40:176338,1,34,14,18,15,-7,18,-2
14:00:40:183667,-7,-33,16,-5,-25,25,41,0
14:00:40:191251,5,30,-36,8,39,29,20,6
14:00:40:199404,5,30,-36,8,39,29,20,6
14:00:40:200139,-3,10,7,-33,-26,-27,-17,-7
14:00:40:214829,-4,-4,26,8,12,24,4,-1
14:00:40:222009,-4,-4,26,8,12,24,4,-1
14:00:40:222703,11,61,16,26,25,13,-3,7
14:00:40:228742,-3,7,19,3,-26,-28,-11,0
14:00:40:236206,-3,7,19,3,-26,-28,-11,0
14:00:40:243797,5,61,-12,-4,-2,4,-25,0
14:00:40:251227,-19,-25,10,5,6,44,22,-2
14:00:40:259465,-19,-25,10,5,6,44,22,-2
14:00:40:260183,11,16,36,7,-12,-8,2,0
14:00:40:274432,-7,-47,-45,-29,-26,-30,-37,-8
14:00:40:275188,-7,-47,-45,-29,-26,-30,-37,-8
14:00:40:281203,-6,-35,-26,-7,16,-9,7,2
14:00:40:296924,10,22,6,15,5,-17,-12,-4
14:00:40:297731,10,22,6,15,5,-17,-12,-4
14:00:40:303724,0,-7,-14,-1,-5,-13,-5,-6
14:00:40:311267,2,20,7,-5,-11,-2,-6,-1
14:00:40:319372,2,20,7,-5,-11,-2,-6,-1
14:00:40:320223,-2,-5,-18,-24,-22,-11,11,3
14:00:40:334341,0,4,-11,17,9,10,25,-2
14:00:40:335145,0,4,-11,17,9,10,25,-2
14:00:40:341202,-4,-43,4,18,30,30,16,7
14:00:40:348716,-4,-32,-22,3,20,12,7,2
14:00:40:356267,-4,-32,-22,3,20,12,7,2
14:00:40:363739,-9,-20,8,-8,-10,3,-3,-7
14:00:40:371231,4,36,36,-16,0,-10,-6,-1
14:00:40:379420,4,36,36,-16,0,-10,-6,-1
14:00:40:380166,-15,-44,-26,12,-12,-15,0,-4
14:00:40:394434,10,13,-16,-11,2,13,-13,0
14:00:40:395188,10,13,-16,-11,2,13,-13,0
14:00:40:401182,-2,13,17,3,-32,-20,-28,-14
14:00:40:408781,-10,-28,-15,5,6,17,-1,2
14:00:40:424395,-10,-28,-15,5,6,17,-1,2
14:00:40:425177,0,-35,-4,-4,-1,10,26,-1
14:00:40:431854,4,-22,15,-16,-40,-39,-14,-10
14:00:40:432663,4,-22,15,-16,-40,-39,-14,-10
14:00:40:438762,-2,-6,1,8,40,12,20,2
14:00:40:454405,5,9,12,-1,-18,-3,14,1
14:00:40:455185,5,9,12,-1,-18,-3,14,1
14:00:40:461274,7,25,21,9,0,-6,-96,-58
14:00:40:468704,-8,-12,15,-5,-19,-40,-16,-17
14:00:40:476328,-8,-12,15,-5,-19,-40,-16,-17
14:00:40:483622,13,18,6,15,10,32,108,30
14:00:40:491912,6,19,-3,-3,2,12,-34,8
14:00:40:492724,6,19,-3,-3,2,12,-34,8
14:00:40:498676,13,0,26,-8,6,28,18,18
14:00:40:514110,-6,45,10,-19,-14,11,104,17
14:00:40:521965,-6,45,10,-19,-14,11,104,17
14:00:40:522633,-4,-14,-22,-19,-6,-33,-65,-21
14:00:40:528684,-17,-6,-43,12,24,-12,-38,-3
14:00:40:536248,-17,-6,-43,12,24,-12,-38,-3
14:00:40:543710,-35,-19,12,7,-9,-19,18,-4
14:00:40:551882,2,-6,3,2,1,32,56,5
14:00:40:552687,2,-6,3,2,1,32,56,5
14:00:40:558731,-2,17,-21,-22,-25,-19,18,-4
14:00:40:574393,-14,-3,39,5,-8,2,-23,-4
14:00:40:575230,-14,-3,39,5,-8,2,-23,-4
14:00:40:581146,0,-1,-13,-31,-26,-9,-21,-1
14:00:40:588753,14,-18,-17,-8,20,7,-103,-28
14:00:40:596231,14,-18,-17,-8,20,7,-103,-28
14:00:40:603729,-3,13,-36,-16,-15,-14,21,11
14:00:40:611963,9,12,-27,4,9,-3,28,13
14:00:40:612739,9,12,-27,4,9,-3,28,13
14:00:40:626274,-3,3,3,13,-11,19,11,6
14:00:40:634365,6,24,90,13,3,6,18,-1
14:00:40:635169,6,24,90,13,3,6,18,-1
14:00:40:641192,12,-28,-15,45,25,-7,-10,12
14:00:40:648683,21,-17,-5,-9,-8,-23,-29,2
14:00:40:656305,21,-17,-5,-9,-8,-23,-29,2
14:00:40:663687,-11,-6,-11,12,26,15,11,9
14:00:40:671960,-24,-17,45,-2,2,-51,-1,-4
14:00:40:672654,-24,-17,45,-2,2,-51,-1,-4
14:00:40:678712,9,-16,6,8,-1,12,0,5
14:00:40:694539,11,10,-13,3,-17,2,75,23
14:00:40:695294,11,10,-13,3,-17,2,75,23
14:00:40:701171,-10,38,19,26,15,-16,-63,-9
14:00:40:708765,-33,-33,55,56,-10,-18,-36,-21
14:00:40:716236,-33,-33,55,56,-10,-18,-36,-21
14:00:40:723767,3,7,3,-16,13,13,21,7
14:00:40:731714,12,16,-73,-26,11,23,53,22
14:00:40:739455,12,16,-73,-26,11,23,53,22
14:00:40:740196,2,-4,-4,-17,-14,1,-30,10
14:00:40:754368,-13,7,5,-15,3,12,-9,-8
14:00:40:755193,-13,7,5,-15,3,12,-9,-8
14:00:40:761300,10,4,6,-28,-33,-19,27,7
14:00:40:768691,0,0,3,-2,16,14,-39,-9
14:00:40:776257,0,0,3,-2,16,14,-39,-9
14:00:40:783632,-22,-13,34,-4,4,55,40,-11
14:00:40:800022,-25,0,8,20,-3,16,36,3
14:00:40:800791,-25,0,8,20,-3,16,36,3
14:00:40:801623,-1,-1,-12,37,12,-15,-7,-8
14:00:40:814369,13,-3,-45,-10,-1,-28,-28,-13
14:00:40:815178,13,-3,-45,-10,-1,-28,-28,-13
14:00:40:821222,-9,24,-2,-9,2,41,38,1
14:00:40:828727,37,47,-18,-9,-8,18,57,24
14:00:40:836231,37,47,-18,-9,-8,18,57,24
14:00:40:843836,-12,-9,14,31,-2,-53,-55,-4
14:00:40:851859,9,-39,19,10,19,11,13,11
14:00:40:852646,9,-39,19,10,19,11,13,11
14:00:40:858720,12,-6,0,-27,-18,-32,-25,-15
14:00:40:874412,-16,-8,-10,-18,-18,-17,2,1
14:00:40:875174,-16,-8,-10,-18,-18,-17,2,1
14:00:40:881203,-10,-5,11,16,12,15,12,-4
14:00:40:888802,1,-16,-31,15,14,0,-18,-1
14:00:40:896243,1,-16,-31,15,14,0,-18,-1
14:00:40:903707,-7,-14,-3,-3,-34,-22,10,-4
14:00:40:911934,-17,-4,28,-14,27,17,23,-12
14:00:40:912709,-17,-4,28,-14,27,17,23,-12
14:00:40:918666,9,6,1,-1,20,7,-3,6
14:00:40:934393,2,25,22,-4,-25,-34,-36,-2
14:00:40:935184,2,25,22,-4,-25,-34,-36,-2
14:00:40:941202,-6,-19,-19,-37,-26,31,27,-2
14:00:40:956937,28,0,-21,-11,-1,7,-18,-10
14:00:40:957682,28,0,-21,-11,-1,7,-18,-10
14:00:40:963676,27,-52,-30,-10,7,-24,-39,-5
14:00:40:971999,-1,-7,-22,19,22,22,13,6
14:00:40:972698,-1,-7,-22,19,22,22,13,6
14:00:40:986225,-1,-9,-37,-10,-6,-25,-24,-10
14:00:40:994458,-52,-55,-47,-10,-22,5,-28,-21
14:00:40:995169,-52,-55,-47,-10,-22,5,-28,-21
14:00:41:1139,-4,11,18,-6,-2,-12,-19,-4
14:00:41:16840,32,9,-5,-22,-18,-7,-19,11
14:00:41:17638,32,9,-5,-22,-18,-7,-19,11
14:00:41:23736,-9,7,-15,-14,20,4,2,5
14:00:41:31898,-17,-22,-34,5,-6,-21,-32,-15
14:00:41:32703,-17,-22,-34,5,-6,-21,-32,-15
14:00:41:46216,14,-2,-15,-2,6,-2,-16,-8
14:00:41:54374,3,41,32,0,7,7,8,-2
14:00:41:55181,3,41,32,0,7,7,8,-2
14:00:41:61264,-10,-26,-14,-22,-12,-6,14,-5
14:00:41:76889,-6,-2,-19,13,-7,-10,-30,-11
14:00:41:77640,-6,-2,-19,13,-7,-10,-30,-11
14:00:41:83682,29,28,37,11,2,-8,3,5
14:00:41:91925,2,-4,38,-4,1,-4,28,6
14:00:41:92680,2,-4,38,-4,1,-4,28,6
14:00:41:106214,-12,-27,-6,-6,17,3,2,-7
14:00:41:114342,-2,-15,-24,-34,-29,-31,-21,-4
14:00:41:115184,-2,-15,-24,-34,-29,-31,-21,-4
14:00:41:121220,-16,-8,9,50,24,26,1,-2
14:00:41:136898,12,-2,42,14,2,-4,12,6
14:00:41:137699,12,-2,42,14,2,-4,12,6
14:00:41:143770,-4,3,-27,-16,-4,-3,1,-9
14:00:41:151840,-4,3,-27,-16,-4,-3,1,-9
14:00:41:152670,-17,36,68,33,-9,-20,-16,-7
14:00:41:166230,25,27,15,-7,-3,15,-7,8
14:00:41:182557,25,27,15,-7,-3,15,-7,8
14:00:41:183355,-5,-42,-87,-25,-9,20,26,0
14:00:41:184149,16,37,-39,-32,-3,-21,3,12
14:00:41:196952,16,37,-39,-32,-3,-21,3,12
14:00:41:197697,5,16,-7,17,16,7,6,-1
14:00:41:203640,-13,-9,-10,3,-9,-18,1,-2
14:00:41:211927,-13,-9,-10,3,-9,-18,1,-2
14:00:41:212709,-1,6,6,-11,-5,4,-48,-9
14:00:41:226288,-2,17,24,6,-14,-6,9,3
14:00:41:234399,-2,17,24,6,-14,-6,9,3
14:00:41:235136,-4,-3,7,-8,3,2,11,4
14:00:41:241228,22,20,44,8,-2,1,-12,2
14:00:41:257369,22,20,44,8,-2,1,-12,2
14:00:41:258145,0,-21,-29,-2,-12,6,21,6
14:00:41:263655,0,-18,-5,14,10,0,-1,-2
14:00:41:272037,0,-18,-5,14,10,0,-1,-2
14:00:41:272757,3,23,-2,10,10,-7,-11,-3
14:00:41:295056,-13,-47,-45,-7,1,27,26,12
14:00:41:295844,-13,-47,-45,-7,1,27,26,12
14:00:41:296664,-6,-11,3,-9,2,-5,0,0
14:00:41:301161,-10,0,13,11,-8,-12,-19,-15
14:00:41:316887,-10,0,13,11,-8,-12,-19,-15
14:00:41:317696,25,-23,25,-6,-3,14,21,10
14:00:41:323744,-26,52,-9,3,13,53,76,6
14:00:41:331910,-26,52,-9,3,13,53,76,6
14:00:41:332691,-20,7,-14,0,-12,0,-18,-6
14:00:41:346222,-3,-17,19,6,-18,-59,-51,-3
14:00:41:354456,-3,-17,19,6,-18,-59,-51,-3
14:00:41:355238,-9,8,21,-1,2,11,21,-2
14:00:41:361250,-16,-30,-30,-16,5,26,11,-6
14:00:41:377006,-16,-30,-30,-16,5,26,11,-6
14:00:41:377736,2,14,-18,-3,-2,0,8,0
14:00:41:383664,30,68,49,5,-2,-3,4,-9
14:00:41:392014,30,68,49,5,-2,-3,4,-9
14:00:41:392751,-10,-21,-19,-4,-1,5,10,-2
14:00:41:406220,-1,-20,43,4,-2,-1,-8,0
14:00:41:414428,-1,-20,43,4,-2,-1,-8,0
14:00:41:415209,-6,-9,-20,-9,6,21,65,7
14:00:41:421209,16,9,-16,-23,-9,47,38,8
14:00:41:436967,16,9,-16,-23,-9,47,38,8
14:00:41:437765,3,-11,14,-4,19,-1,-26,8
14:00:41:443784,-25,-15,-15,17,9,-13,-4,-2
14:00:41:451905,-25,-15,-15,17,9,-13,-4,-2
14:00:41:452678,-1,7,-38,-14,-9,-23,-47,-7
14:00:41:466193,-21,-14,19,-31,-17,19,1,-10
14:00:41:474500,-21,-14,19,-31,-17,19,1,-10
14:00:41:475245,-1,-4,-11,11,0,2,-11,-9
14:00:41:481181,-9,14,-2,4,6,-26,-41,2
14:00:41:496927,-9,14,-2,4,6,-26,-41,2
14:00:41:497721,7,6,16,-23,-34,-22,2,4
14:00:41:503667,14,3,-35,5,6,-8,-2,-3
14:00:41:511906,14,3,-35,5,6,-8,-2,-3
14:00:41:512691,14,-15,32,18,8,-16,-6,14
14:00:41:534998,0,-9,32,7,-1,-12,3,2
14:00:41:535799,0,-9,32,7,-1,-12,3,2
14:00:41:536609,5,6,-23,-15,-11,-17,-13,-10
14:00:41:541267,1,-40,-2,7,11,-12,3,-1
14:00:41:556923,1,-40,-2,7,11,-12,3,-1
14:00:41:557660,-2,32,39,14,1,6,1,-1
14:00:41:563699,-14,1,-1,4,-14,0,-46,-8
14:00:41:571955,-14,1,-1,4,-14,0,-46,-8
14:00:41:572669,-11,-13,-12,-1,5,8,-1,-7
14:00:41:586201,9,32,9,3,1,17,25,-3
14:00:41:594460,9,32,9,3,1,17,25,-3
14:00:41:595173,1,12,10,38,25,37,30,1
14:00:41:608729,-1,-13,33,-3,-11,-15,-2,0
14:00:41:625131,-1,-13,33,-3,-11,-15,-2,0
14:00:41:625897,-17,-26,-8,-9,-4,-10,-18,-1
14:00:41:626678,9,-29,-13,-7,-5,-27,-4,2
14:00:41:631923,9,-29,-13,-7,-5,-27,-4,2
14:00:41:632706,16,40,21,-2,-4,-17,-19,-5
14:00:41:646191,0,-1,0,2,28,49,33,9
14:00:41:654413,0,-1,0,2,28,49,33,9
14:00:41:655207,-10,-5,2,7,5,1,8,-8
14:00:41:661182,-5,11,-7,3,-18,-33,3,5
14:00:41:685040,-5,11,-7,3,-18,-33,3,5
14:00:41:685795,-8,13,29,-1,-36,4,-5,-3
14:00:41:686644,3,-25,22,12,15,0,0,3
14:00:41:691936,3,-25,22,12,15,0,0,3
14:00:41:692767,13,9,-10,-25,-11,-68,-77,-12
14:00:41:706262,-13,4,-56,2,-8,-3,5,-7
14:00:41:714407,-13,4,-56,2,-8,-3,5,-7
14:00:41:715139,2,-40,23,-5,2,13,3,-4
14:00:41:721211,9,20,27,-17,-10,-5,-23,4
14:00:41:736948,9,20,27,-17,-10,-5,-23,4
14:00:41:737706,-5,-5,-53,-20,-8,-6,15,4
14:00:41:743803,9,14,34,-2,-3,-13,-32,-14
14:00:41:751889,9,14,34,-2,-3,-13,-32,-14
14:00:41:752664,3,7,-26,11,9,10,18,14
14:00:41:766220,-18,-35,-24,-19,1,21,15,-6
14:00:41:774529,-18,-35,-24,-19,1,21,15,-6
14:00:41:775262,-16,-4,0,8,21,54,47,9
14:00:41:781214,-9,15,14,1,-24,-34,-43,-8
14:00:41:796976,-9,15,14,1,-24,-34,-43,-8
14:00:41:797748,8,-4,4,10,11,-7,-1,-1
14:00:41:803745,18,-3,-12,45,9,3,-5,14
14:00:41:811972,18,-3,-12,45,9,3,-5,14
14:00:41:812764,-6,-1,6,-7,7,-7,2,-2
14:00:41:826267,8,33,-22,-16,0,0,20,12
14:00:41:834469,8,33,-22,-16,0,0,20,12
14:00:41:835215,-13,-7,-26,21,2,-32,-49,-9
14:00:41:841292,-16,-34,-52,-33,1,10,19,-15
14:00:41:856962,-16,-34,-52,-33,1,10,19,-15
14:00:41:857665,11,4,46,-17,3,-5,12,4
14:00:41:863688,-13,-1,-8,17,-7,7,49,-3
14:00:41:871299,-13,-1,-8,17,-7,7,49,-3
14:00:41:886819,20,9,10,23,16,36,41,-1
14:00:41:887643,-4,-1,-24,-11,-3,-13,-17,2
14:00:41:894515,-4,-1,-24,-11,-3,-13,-17,2
14:00:41:895168,-8,1,4,-13,-24,-12,-1,0
14:00:41:908757,5,11,-5,-13,-9,-1,-7,4
14:00:41:916889,5,11,-5,-13,-9,-1,-7,4
14:00:41:917686,-16,-1,-1,0,18,12,-25,-8
14:00:41:923679,3,16,22,19,-5,-1,8,3
14:00:41:931307,3,16,22,19,-5,-1,8,3
14:00:41:938894,-10,-3,3,-7,-9,-57,-30,-9
14:00:41:946240,25,6,13,16,51,49,61,18
14:00:41:961954,25,6,13,16,51,49,61,18
14:00:41:962673,14,-1,5,-4,9,45,12,4
14:00:41:968639,23,-4,-18,-17,-5,-13,-17,-2
14:00:41:977006,23,-4,-18,-17,-5,-13,-17,-2
14:00:41:977765,-27,-2,-27,-30,-28,-33,-37,-14
14:00:41:983648,-4,-15,5,-2,0,4,-24,3
14:00:41:991292,-4,-15,5,-2,0,4,-24,3
14:00:41:998700,-12,-6,-4,2,18,65,65,12
14:00:42:6224,-14,12,19,-23,-29,-20,-18,-14
14:00:42:14377,-14,12,19,-23,-29,-20,-18,-14
14:00:42:15171,13,-9,-16,4,-3,-12,-2,6
14:00:42:37542,4,1,4,2,-32,-34,9,1
14:00:42:38317,4,1,4,2,-32,-34,9,1
14:00:42:39176,1,5,-10,12,19,24,7,-2
14:00:42:43766,-2,-22,-11,4,8,-23,-50,-10
14:00:42:51230,-2,-22,-11,4,8,-23,-50,-10
14:00:42:58742,16,11,-9,29,-4,4,2,4
14:00:42:66188,-14,18,21,17,-5,-1,-15,-4
14:00:42:74477,-14,18,21,17,-5,-1,-15,-4
14:00:42:75193,12,-7,-2,-34,-22,-77,-41,-7
14:00:42:88750,7,-4,7,3,19,14,-10,-9
14:00:42:96949,7,-4,7,3,19,14,-10,-9
14:00:42:97714,-19,-19,-14,-16,-24,-36,-41,-15
14:00:42:103659,-4,-24,21,33,36,28,14,5
14:00:42:111329,-4,-24,21,33,36,28,14,5
14:00:42:118722,-5,-18,-9,14,-6,3,27,3
14:00:42:126296,-8,-50,8,1,-17,11,32,5
14:00:42:134382,-8,-50,8,1,-17,11,32,5
14:00:42:135146,5,14,14,11,19,19,9,3
14:00:42:148763,-16,9,-25,-51,6,-17,-8,3
14:00:42:156932,-16,9,-25,-51,6,-17,-8,3
14:00:42:157652,16,8,14,-4,2,46,85,11
14:00:42:163740,1,4,-17,-7,-17,-3,-5,-8
14:00:42:171222,1,4,-17,-7,-17,-3,-5,-8
14:00:42:178729,-7,-19,-32,-23,-15,-21,-38,-6
14:00:42:186210,15,18,0,0,-4,-6,-42,0
14:00:42:194507,15,18,0,0,-4,-6,-42,0
14:00:42:195203,-7,-1,-1,14,9,99,78,9
14:00:42:208793,22,58,-12,-22,-15,-4,11,-1
14:00:42:216883,22,58,-12,-22,-15,-4,11,-1
14:00:42:217679,18,45,16,38,22,-15,-23,3
14:00:42:223673,-12,-15,-13,0,-2,-33,-19,-6
14:00:42:239462,-12,-15,-13,0,-2,-33,-19,-6
14:00:42:240179,-7,-21,-16,-29,-17,-18,-17,-6
14:00:42:246223,-15,3,-8,14,12,-4,-31,-12
14:00:42:254362,-15,3,-8,14,12,-4,-31,-12
14:00:42:255205,-7,-31,-16,-5,-17,-34,-23,2
14:00:42:268704,-11,-32,8,-1,-20,-4,-2,2
14:00:42:276931,-11,-32,8,-1,-20,-4,-2,2
14:00:42:277668,4,-6,5,16,14,4,-23,-1
14:00:42:283687,-50,-7,-18,22,-5,-34,-6,-10
14:00:42:291305,-50,-7,-18,22,-5,-34,-6,-10
14:00:42:298697,-8,-14,-9,6,0,-39,-68,-13
14:00:42:306265,12,-4,1,-13,-7,38,75,17
14:00:42:314435,12,-4,1,-13,-7,38,75,17
14:00:42:315190,-13,-17,5,0,20,27,23,3
14:00:42:328728,-4,6,5,2,-13,-3,-30,1
14:00:42:336882,-4,6,5,2,-13,-3,-30,1
14:00:42:337693,12,27,-4,2,4,-35,-27,-2
14:00:42:343747,1,-4,13,11,25,98,78,14
14:00:42:351212,1,-4,13,11,25,98,78,14
14:00:42:358760,3,8,5,-14,-37,-21,8,1
14:00:42:366167,-9,2,-11,-8,-7,-11,0,-4
14:00:42:374409,-9,2,-11,-8,-7,-11,0,-4
14:00:42:375224,-25,-24,0,-19,-12,-11,9,-1
14:00:42:388777,-1,4,30,-7,13,-6,-20,-7
14:00:42:396921,-1,4,30,-7,13,-6,-20,-7
14:00:42:397749,7,12,12,12,16,59,15,-3
14:00:42:403768,12,3,-11,-22,-28,-42,-22,-7
14:00:42:411362,12,3,-11,-22,-28,-42,-22,-7
14:00:42:418664,12,25,20,6,36,61,51,12
14:00:42:426316,36,18,-2,-3,0,-7,-35,-20
14:00:42:434394,36,18,-2,-3,0,-7,-35,-20
14:00:42:435185,15,1,34,0,-23,-19,-12,-2
14:00:42:448716,-6,-25,4,17,14,-30,-21,4
14:00:42:456937,-6,-25,4,17,14,-30,-21,4
14:00:42:457720,-14,-12,-33,-10,-12,-30,17,-4
14:00:42:463692,11,7,15,-19,-10,6,-17,2
14:00:42:471316,11,7,15,-19,-10,6,-17,2
14:00:42:478751,3,2,-4,-13,2,23,52,10
14:00:42:486201,-14,-2,-23,-8,9,24,9,2
14:00:42:494459,-14,-2,-23,-8,9,24,9,2
14:00:42:495157,-12,-8,12,2,-13,-34,-29,-3
14:00:42:517556,4,-31,-11,1,2,11,22,-3
14:00:42:518358,4,-31,-11,1,2,11,22,-3
14:00:42:519173,-11,-15,-16,-6,-12,-31,-40,-10
14:00:42:523683,-5,22,0,25,6,-11,-32,1
14:00:42:531265,-5,22,0,25,6,-11,-32,1
14:00:42:538768,-13,12,7,2,-10,43,-4,-5
14:00:42:546185,-7,-5,-8,-25,7,-14,-13,-3
14:00:42:554435,-7,-5,-8,-25,7,-14,-13,-3
14:00:42:555257,1,-5,-33,2,18,8,-3,1
14:00:42:568697,-19,-16,1,9,-13,8,19,0
14:00:42:576978,-19,-16,1,9,-13,8,19,0
14:00:42:577767,5,13,65,-2,5,-16,-5,11
14:00:42:583631,8,3,18,4,11,-20,-22,-2
14:00:42:591299,8,3,18,4,11,-20,-22,-2
14:00:42:598723,5,-11,5,-3,1,-14,10,-5
14:00:42:606291,0,15,-11,-2,-7,1,25,-2
14:00:42:614381,0,15,-11,-2,-7,1,25,-2
14:00:42:615179,6,20,-9,-8,4,12,9,-12
14:00:42:628699,29,17,-5,2,-8,-20,-54,-12
14:00:42:636963,29,17,-5,2,-8,-20,-54,-12
14:00:42:637680,-16,-10,13,-26,-30,-8,-3,-1
14:00:42:643773,23,3,-19,17,17,2,19,8
14:00:42:651230,23,3,-19,17,17,2,19,8
14:00:42:658800,1,6,-20,3,-1,-3,1,3
14:00:42:666213,2,-17,-3,6,8,-25,-25,8
14:00:42:674427,2,-17,-3,6,8,-25,-25,8
14:00:42:675256,4,2,-15,1,3,8,-17,-1
14:00:42:688785,-10,-20,12,-15,-32,20,36,0
14:00:42:696909,-10,-20,12,-15,-32,20,36,0
14:00:42:697689,-18,43,32,25,36,8,-3,-5
14:00:42:703711,-13,1,35,-12,9,-5,-16,-1
14:00:42:719430,-13,1,35,-12,9,-5,-16,-1
14:00:42:720205,11,-6,-10,-13,-28,-19,0,-2
14:00:42:726284,-14,2,-7,0,1,24,27,2
14:00:42:734383,-14,2,-7,0,1,24,27,2
14:00:42:735184,-2,-22,-33,-1,0,10,8,-3
14:00:42:748672,-5,-17,-22,-2,8,4,15,-3
14:00:42:756894,-5,-17,-22,-2,8,4,15,-3
14:00:42:757668,4,-21,-16,68,11,-16,-6,1
14:00:42:763711,-8,24,16,5,4,-6,38,-5
14:00:42:771258,-8,24,16,5,4,-6,38,-5
14:00:42:778715,-6,-22,1,-5,-18,-18,12,-3
14:00:42:786228,-12,-3,1,22,-9,3,15,2
14:00:42:794438,-12,-3,1,22,-9,3,15,2
14:00:42:795192,18,23,0,-11,15,19,3,0
14:00:42:808771,-7,4,-7,-17,-3,42,14,3
14:00:42:816856,-7,4,-7,-17,-3,42,14,3
14:00:42:817642,8,-11,-16,-25,-5,-24,-30,-6
14:00:42:831868,10,-5,3,24,-11,2,-24,1
14:00:42:832693,10,-5,3,24,-11,2,-24,1
14:00:42:838804,-14,-24,-18,-24,-3,-6,-14,-11
14:00:42:846209,-12,0,-2,-11,0,-4,15,-1
14:00:42:853734,-12,0,-2,-11,0,-4,15,-1
14:00:42:861193,7,-4,28,14,12,-8,-14,4
14:00:42:868743,-9,-4,-25,-16,-4,-10,-56,0
14:00:42:876948,-9,-4,-25,-16,-4,-10,-56,0
14:00:42:877711,-6,15,44,-2,-23,-36,-11,-1
14:00:42:891928,-4,-6,-7,4,-4,-10,-24,-4
14:00:42:892669,-4,-6,-7,4,-4,-10,-24,-4
14:00:42:898677,0,5,-8,-4,7,29,15,5
14:00:42:906203,3,25,3,28,9,-17,12,-1
14:00:42:913742,3,25,3,28,9,-17,12,-1
14:00:42:921220,0,3,-5,0,-5,-10,-2,0
14:00:42:928712,-1,-8,-31,-27,-20,3,6,-1
14:00:42:936905,-1,-8,-31,-27,-20,3,6,-1
14:00:42:937641,2,-2,-18,-2,5,-4,-31,-3
14:00:42:951871,-1,11,25,-22,-2,66,86,3
14:00:42:952706,-1,11,25,-22,-2,66,86,3
14:00:42:958760,8,-2,-19,4,6,33,13,4
14:00:42:966179,2,9,8,2,-7,-52,-24,-8
14:00:42:973735,2,9,8,2,-7,-52,-24,-8
14:00:42:981203,7,8,15,34,20,33,-8,1
14:00:42:997527,13,-9,-1,-22,-14,-29,-37,-1
14:00:42:998333,13,-9,-1,-22,-14,-29,-37,-1
14:00:42:999164,-7,0,-22,-2,-14,-21,-18,-6
14:00:43:11945,7,7,2,13,27,17,-11,5
14:00:43:12668,7,7,2,13,27,17,-11,5
14:00:43:18650,3,-9,3,-16,-20,-30,32,-1
14:00:43:26199,-2,-9,-11,-10,29,7,0,-3
14:00:43:33690,-2,-9,-11,-10,29,7,0,-3
14:00:43:41235,-38,-27,12,0,-11,-46,-32,-13
14:00:43:48676,11,21,14,-6,-12,2,-3,-4
14:00:43:56946,11,21,14,-6,-12,2,-3,-4
14:00:43:57672,5,10,6,-8,0,13,26,3
14:00:43:72051,-3,-4,-17,1,-6,-6,-22,4
14:00:43:72672,-3,-4,-17,1,-6,-6,-22,4
14:00:43:78732,16,14,7,-6,-11,9,10,3
14:00:43:86175,-28,15,-20,-2,9,6,28,3
14:00:43:93890,-28,15,-20,-2,9,6,28,3
14:00:43:101158,-10,-4,2,-16,0,12,-9,-3
14:00:43:108759,5,-18,-5,-16,-9,-11,-4,-1
14:00:43:116879,5,-18,-5,-16,-9,-11,-4,-1
14:00:43:117677,-2,-17,-2,26,-3,4,10,3
14:00:43:131924,-22,4,-4,13,12,-17,-3,-5
14:00:43:132708,-22,4,-4,13,12,-17,-3,-5
14:00:43:138781,-5,-15,-35,-1,-1,-17,-26,-11
14:00:43:146243,-30,-28,-14,9,15,4,-8,-12
14:00:43:153795,-30,-28,-14,9,15,4,-8,-12
14:00:43:161355,-10,9,17,5,10,53,38,5
14:00:43:168691,0,0,-4,-14,-25,-24,-10,-5
14:00:43:176947,0,0,-4,-14,-25,-24,-10,-5
14:00:43:177656,7,7,-6,-8,10,-7,-3,8
14:00:43:191936,12,-25,-31,5,11,14,-21,-6
14:00:43:192645,12,-25,-31,5,11,14,-21,-6
14:00:43:198706,22,-20,-3,-12,-10,-3,-12,-5
14:00:43:206269,-8,-10,60,60,16,-11,-1,-4
14:00:43:213712,-8,-10,60,60,16,-11,-1,-4
14:00:43:221248,2,-13,-6,-8,-5,-33,-27,-2
14:00:43:237531,19,8,-4,-33,-22,-35,-57,1
14:00:43:238323,19,8,-4,-33,-22,-35,-57,1
14:00:43:239122,-3,9,-7,-1,7,20,13,-3
14:00:43:251955,5,13,-11,-6,7,16,4,3
14:00:43:252728,5,13,-11,-6,7,16,4,3
14:00:43:258764,-14,-4,-11,-15,-15,-33,9,-1
14:00:43:266238,0,-10,33,15,2,15,13,-1
14:00:43:273784,0,-10,33,15,2,15,13,-1
14:00:43:281259,15,-3,-15,0,2,-13,-5,0
14:00:43:288756,-21,0,-19,-20,-4,12,32,4
14:00:43:296939,-21,0,-19,-20,-4,12,32,4
14:00:43:297718,-17,19,19,9,4,28,32,-5
14:00:43:311889,9,10,-18,-14,-30,-10,-20,-5
14:00:43:312680,9,10,-18,-14,-30,-10,-20,-5
14:00:43:318679,-13,-22,-4,-18,13,-17,-22,-5
14:00:43:326252,3,-11,1,9,2,12,36,-3
14:00:43:333663,3,-11,1,9,2,12,36,-3
14:00:43:341208,9,11,-22,-13,-9,7,-9,6
14:00:43:348730,-8,-14,-5,11,-11,-23,-7,1
14:00:43:356754,-8,-14,-5,11,-11,-23,-7,1
14:00:43:363734,0,20,30,9,-13,-5,-10,-2
14:00:43:372045,-4,4,19,-1,14,49,20,1
14:00:43:372736,-4,4,19,-1,14,49,20,1
14:00:43:378732,-8,-10,-29,7,25,23,8,1
14:00:43:386202,8,4,0,-22,-16,15,-1,-8
14:00:43:393877,8,4,0,-22,-16,15,-1,-8
14:00:43:401211,-1,-36,-5,-11,-14,-8,2,-2
14:00:43:408763,11,15,-23,-17,1,-5,0,11
14:00:43:416896,11,15,-23,-17,1,-5,0,11
14:00:43:417700,-2,12,11,21,20,33,27,2
14:00:43:431940,1,4,1,0,-22,-18,3,-6
14:00:43:432735,1,4,1,0,-22,-18,3,-6
14:00:43:438761,-6,9,10,6,7,30,34,7
14:00:43:446207,-1,17,14,8,3,2,18,7
14:00:43:453781,-1,17,14,8,3,2,18,7
14:00:43:461255,-2,6,7,5,-9,-29,-19,-9
14:00:43:468657,1,-14,-6,-18,-4,-24,-7,-1
14:00:43:477012,1,-14,-6,-18,-4,-24,-7,-1
14:00:43:477661,5,-4,-2,-2,-8,-10,-41,-9
14:00:43:491958,-32,-20,-7,6,22,2,-8,-3
14:00:43:492733,-32,-20,-7,6,22,2,-8,-3
14:00:43:498718,-5,8,12,-24,-14,-7,13,-3
14:00:43:506250,16,7,4,-12,-21,-29,-30,-3
14:00:43:513713,16,7,4,-12,-21,-29,-30,-3
14:00:43:521201,-2,-26,-6,4,-9,-3,-20,-3
14:00:43:528739,22,1,4,20,14,-5,3,5
14:00:43:536907,22,1,4,20,14,-5,3,5
14:00:43:537695,-13,35,-2,14,27,18,1,3
14:00:43:551865,-9,-6,-27,1,8,31,14,-4
14:00:43:552657,-9,-6,-27,1,8,31,14,-4
14:00:43:558801,5,-10,17,13,-26,-21,1,0
14:00:43:566234,10,13,-7,3,-2,-22,-31,1
14:00:43:573772,10,13,-7,3,-2,-22,-31,1
14:00:43:581177,0,-11,-13,-10,-1,54,21,6
14:00:43:588783,-28,-6,19,18,20,-2,4,0
14:00:43:596909,-28,-6,19,18,20,-2,4,0
14:00:43:597707,8,-6,5,-9,-8,-41,-15,-14
14:00:43:611886,-4,-8,10,11,6,-8,11,0
14:00:43:612705,-4,-8,10,11,6,-8,11,0
14:00:43:618674,-12,-12,-21,-5,-14,16,49,-13
14:00:43:626217,27,3,5,7,0,1,8,11
14:00:43:633699,27,3,5,7,0,1,8,11
14:00:43:641244,-2,22,-23,-15,-21,-38,-26,-3
14:00:43:648683,12,-9,11,-3,8,-31,-65,-11
14:00:43:656912,12,-9,11,-3,8,-31,-65,-11
14:00:43:657715,26,28,32,-15,13,9,35,16
14:00:43:671976,-4,-6,-15,-21,-11,-6,-15,-3
14:00:43:672710,-4,-6,-15,-21,-11,-6,-15,-3
14:00:43:678673,1,-19,-20,1,0,-4,-42,0
14:00:43:686170,7,-2,7,10,10,13,25,1
14:00:43:693808,7,-2,7,10,10,13,25,1
14:00:43:701193,15,-2,4,2,0,1,11,12
14:00:43:708817,1,-4,-1,7,27,43,4,3
14:00:43:716887,1,-4,-1,7,27,43,4,3
14:00:43:717700,-19,-18,-11,2,-4,-28,-23,-7
14:00:43:731950,-27,-22,-1,-13,-24,23,48,-8
14:00:43:732756,-27,-22,-1,-13,-24,23,48,-8
14:00:43:738804,-5,9,-20,10,11,-13,9,2
14:00:43:746241,-9,28,-5,11,0,23,16,4
14:00:43:753793,-9,28,-5,11,0,23,16,4
14:00:43:761300,-8,-32,-15,-12,16,8,3,0
14:00:43:768681,19,1,-5,-3,13,-7,2,4
14:00:43:776254,19,1,-5,-3,13,-7,2,4
14:00:43:783659,14,24,13,8,0,2,-10,-1
14:00:43:791923,1,0,0,-12,-27,-51,-45,-11
14:00:43:792663,1,0,0,-12,-27,-51,-45,-11
14:00:43:798708,-7,3,1,8,5,38,23,10
14:00:43:814348,0,3,-2,-25,-15,-19,-15,1
14:00:43:815169,0,3,-2,-25,-15,-19,-15,1
14:00:43:821176,5,-2,-6,0,3,-9,-30,-10
14:00:43:828729,-3,-21,-6,-3,-10,-19,-12,-4
14:00:43:836256,-3,-21,-6,-3,-10,-19,-12,-4
14:00:43:852498,12,3,-3,4,18,5,9,9
14:00:43:853296,3,14,17,14,-11,14,9,-5
14:00:43:854131,3,14,17,14,-11,14,9,-5
14:00:43:858737,-2,-13,-19,-13,2,16,21,5
14:00:43:874411,7,-11,-43,-48,-16,-3,10,2
14:00:43:875160,7,-11,-43,-48,-16,-3,10,2
14:00:43:881238,-30,-2,26,-6,-16,-71,-62,-14
14:00:43:888770,-1,-37,-2,-1,10,42,46,0
14:00:43:896246,-1,-37,-2,-1,10,42,46,0
14:00:43:903705,-6,10,6,1,0,-17,-36,-9
14:00:43:911901,-1,12,3,-2,6,-7,-30,-7
14:00:43:912715,-1,12,3,-2,6,-7,-30,-7
14:00:43:918654,-2,4,9,25,-9,-10,2,-2
14:00:43:934392,-7,10,27,52,18,16,11,5
14:00:43:935195,-7,10,27,52,18,16,11,5
14:00:43:941266,-2,16,23,5,-2,-2,-20,-2
14:00:43:948702,12,45,25,-2,2,66,59,9
14:00:43:956305,12,45,25,-2,2,66,59,9
14:00:43:963720,-10,-22,-9,-13,-9,30,24,4
14:00:43:971994,-9,-25,5,-40,-31,-53,-48,-4
14:00:43:972677,-9,-25,5,-40,-31,-53,-48,-4
14:00:43:978693,-1,-8,-13,-21,1,27,23,3
14:00:43:994497,12,30,16,13,5,-4,1,2
14:00:43:995252,12,30,16,13,5,-4,1,2
14:00:44:1141,-7,4,-9,-12,-24,-11,13,-1
14:00:44:8782,-11,-13,-2,-9,6,-6,-30,-4
14:00:44:16269,-11,-13,-2,-9,6,-6,-30,-4
14:00:44:23718,7,19,2,4,-15,-37,4,5
14:00:44:31936,-12,-9,-17,6,-13,-13,-9,-7
14:00:44:32737,-12,-9,-17,6,-13,-13,-9,-7
14:00:44:38794,9,-6,8,-8,-3,8,-10,-5
14:00:44:54424,7,6,2,28,-11,-20,-8,1
14:00:44:55241,7,6,2,28,-11,-20,-8,1
14:00:44:61247,-16,-14,-11,15,20,-10,22,-4
14:00:44:68658,-5,-7,-2,-2,22,22,31,-2
14:00:44:76354,-5,-7,-2,-2,22,22,31,-2
14:00:44:83674,3,-15,24,-2,-18,-49,-46,-6
14:00:44:91904,-7,-7,5,-15,-10,-28,-15,-9
14:00:44:92630,-7,-7,5,-15,-10,-28,-15,-9
14:00:44:98718,-42,-15,-2,19,2,-1,12,-8
14:00:44:114420,11,21,8,5,11,14,34,2
14:00:44:115222,11,21,8,5,11,14,34,2
14:00:44:121192,8,8,-19,-48,5,10,-16,-4
14:00:44:128709,-12,1,-3,-6,-3,-23,-24,4
14:00:44:136223,-12,1,-3,-6,-3,-23,-24,4
14:00:44:143790,-6,-1,-4,1,3,22,-50,-1
14:00:44:151846,-14,-15,-20,-9,9,18,-14,-15
14:00:44:152661,-14,-15,-20,-9,9,18,-14,-15
14:00:44:158754,25,26,-5,27,11,15,13,11
14:00:44:174414,0,8,-15,15,-19,-17,-12,2
14:00:44:175211,0,8,-15,15,-19,-17,-12,2
14:00:44:181222,4,-2,-3,4,19,4,24,1
14:00:44:188742,33,9,37,2,-7,11,29,12
14:00:44:196252,33,9,37,2,-7,11,29,12
14:00:44:203676,-15,-45,-2,-18,-35,-24,13,0
14:00:44:211873,-13,-37,-5,-19,7,10,-8,-4
14:00:44:212729,-13,-37,-5,-19,7,10,-8,-4
14:00:44:218660,-5,-1,-4,-6,-14,6,0,-5
14:00:44:234360,5,40,30,-9,1,-30,-50,-3
14:00:44:235157,5,40,30,-9,1,-30,-50,-3
14:00:44:241227,14,14,-16,-2,9,25,41,0
14:00:44:248729,-33,-11,-20,0,1,5,11,-2
14:00:44:256287,-33,-11,-20,0,1,5,11,-2
14:00:44:263709,5,8,12,3,-15,-6,-5,0
14:00:44:272023,0,-12,-20,-16,6,-11,-2,3
14:00:44:272709,0,-12,-20,-16,6,-11,-2,3
14:00:44:278704,8,12,13,21,14,-5,-26,0
14:00:44:294425,18,3,-12,16,1,91,78,13
14:00:44:295226,18,3,-12,16,1,91,78,13
14:00:44:301126,-16,20,0,3,-7,4,-7,-6
14:00:44:308782,-3,-8,-23,-4,0,-21,-14,0
14:00:44:316253,-3,-8,-23,-4,0,-21,-14,0
14:00:44:323730,10,-3,3,-31,-4,-3,-7,2
14:00:44:331898,-15,-13,-4,-12,-11,-28,5,-7
14:00:44:332729,-15,-13,-4,-12,-11,-28,5,-7
14:00:44:338766,-9,-19,-12,10,45,10,-12,-9
14:00:44:354409,-1,-1,-8,6,-11,73,74,4
14:00:44:355210,-1,-1,-8,6,-11,73,74,4
14:00:44:361255,3,10,9,2,-4,-6,-22,0
14:00:44:368685,0,40,43,33,24,-19,-50,-8
14:00:44:376326,0,40,43,33,24,-19,-50,-8
14:00:44:383655,27,36,-18,-4,0,10,0,2
14:00:44:391901,-7,-34,-58,-22,-15,-27,-25,-9
14:00:44:392648,-7,-34,-58,-22,-15,-27,-25,-9
14:00:44:398716,18,-16,6,18,21,-4,14,5
14:00:44:414318,-2,11,13,-3,-5,-24,-8,-2
14:00:44:415155,-2,11,13,-3,-5,-24,-8,-2
14:00:44:421188,-6,-4,-4,-1,-11,-24,-17,-3
14:00:44:428711,7,-8,17,-5,1,17,17,14
14:00:44:436206,7,-8,17,-5,1,17,17,14
14:00:44:443787,-26,-23,-2,-2,11,12,10,-2
14:00:44:451863,-2,-1,-11,67,41,-15,-14,-2
14:00:44:452657,-2,-1,-11,67,41,-15,-14,-2
14:00:44:458774,-3,4,7,-15,-24,0,5,-7
14:00:44:474373,2,-15,0,-15,-7,16,14,2
14:00:44:475157,2,-15,0,-15,-7,16,14,2
14:00:44:481218,16,-1,-19,1,1,13,32,4
14:00:44:488817,-12,-11,-47,-7,-25,-27,-12,-14
14:00:44:496239,-12,-11,-47,-7,-25,-27,-12,-14
14:00:44:503710,25,-4,1,9,-3,-10,3,6
14:00:44:511920,25,-4,1,9,-3,-10,3,6
14:00:44:512728,-4,18,28,15,10,12,-12,0
14:00:44:518685,-6,21,19,-7,16,14,6,-5
14:00:44:534450,-6,21,19,-7,16,14,6,-5
14:00:44:535155,-5,-23,-7,-6,9,-20,-17,-4
14:00:44:541212,-10,-9,-13,12,-11,-5,7,-3
14:00:44:556905,-10,-9,-13,12,-11,-5,7,-3
14:00:44:557656,-5,-7,-4,25,-3,-14,-14,-5
14:00:44:563738,8,-11,5,-19,16,9,0,2
14:00:44:571980,8,-11,5,-19,16,9,0,2
14:00:44:572691,3,3,-17,-22,-19,44,20,8
14:00:44:578695,-1,-9,-10,-21,-21,-24,-34,-1
14:00:44:594464,-1,-9,-10,-21,-21,-24,-34,-1
14:00:44:595191,14,-7,-10,-16,-11,-18,-8,-3
14:00:44:601151,4,-23,25,7,22,25,10,7
14:00:44:616877,4,-23,25,7,22,25,10,7
14:00:44:617647,-12,-1,48,20,2,-9,-13,0
14:00:44:623781,-15,-10,18,2,-25,-2,28,4
14:00:44:631908,-15,-10,18,2,-25,-2,28,4
14:00:44:632647,17,12,-20,-18,6,-6,-12,4
14:00:44:638762,-1,3,-1,-12,-8,-19,-15,0
14:00:44:654409,-1,3,-1,-12,-8,-19,-15,0
14:00:44:655176,-8,-6,6,11,13,-2,27,-5
14:00:44:661334,-8,21,10,-1,-9,-1,-6,-4
14:00:44:676994,-8,21,10,-1,-9,-1,-6,-4
14:00:44:677683,-12,-23,25,-24,-13,-32,-29,-11
14:00:44:683656,-12,4,14,21,-14,-10,-17,-8
14:00:44:691914,-12,4,14,21,-14,-10,-17,-8
14:00:44:692677,2,-3,12,34,0,30,27,2
14:00:44:698714,7,-10,-13,28,13,-26,-10,-5
14:00:44:714394,7,-10,-13,28,13,-26,-10,-5
14:00:44:715162,-15,-11,-17,-8,6,-1,11,3
14:00:44:721221,15,13,-25,19,8,17,-15,5
14:00:44:736918,15,13,-25,19,8,17,-15,5
14:00:44:737664,4,42,-8,-28,-15,1,-7,-3
14:00:44:743742,0,1,-5,2,-3,-11,10,-3
14:00:44:751859,0,1,-5,2,-3,-11,10,-3
14:00:44:752690,21,-15,-2,13,2,28,9,6
14:00:44:766165,-10,-2,-17,-30,-8,3,-5,1
14:00:44:774476,-10,-2,-17,-30,-8,3,-5,1
14:00:44:775188,22,2,-12,-25,4,-12,-3,7
14:00:44:781174,-5,6,26,31,6,7,7,-3
14:00:44:796935,-5,6,26,31,6,7,7,-3
14:00:44:797704,-4,6,7,-4,0,-10,-13,-3
14:00:44:803671,5,2,2,-21,-7,22,11,1
14:00:44:811929,5,2,2,-21,-7,22,11,1
14:00:44:812685,12,1,-12,-6,-11,-12,5,-5
14:00:44:826301,-2,12,4,-22,-19,0,5,-4
14:00:44:834440,-2,12,4,-22,-19,0,5,-4
14:00:44:835199,-33,7,8,7,10,-13,-25,-6
14:00:44:841249,-22,-11,3,1,21,66,42,2
14:00:44:856936,-22,-11,3,1,21,66,42,2
14:00:44:857688,-8,19,15,19,4,-11,-31,-9
14:00:44:863713,-10,11,9,-3,-4,-21,-15,2
14:00:44:872025,-10,11,9,-3,-4,-21,-15,2
14:00:44:872699,-2,-31,-13,-25,-24,-20,-20,-8
14:00:44:886197,21,14,-28,1,26,1,-1,10
14:00:44:902567,21,14,-28,1,26,1,-1,10
14:00:44:903319,-1,-3,-6,16,20,-17,-2,-1
14:00:44:904168,1,12,-8,-14,-12,2,5,-8
14:00:44:916868,1,12,-8,-14,-12,2,5,-8
14:00:44:917675,-20,38,11,-12,-12,-6,5,-5
14:00:44:923746,33,2,17,13,-4,20,21,13
14:00:44:931893,33,2,17,13,-4,20,21,13
14:00:44:932694,-6,-20,-18,2,2,38,23,1
14:00:44:946242,-18,-20,-12,-6,0,-16,-17,0
14:00:44:954348,-18,-20,-12,-6,0,-16,-17,0
14:00:44:955162,15,-1,14,-22,-19,-11,-7,2
14:00:44:961274,-8,-29,-5,6,-23,-36,-12,-6
14:00:44:976969,-8,-29,-5,6,-23,-36,-12,-6
14:00:44:977705,-10,13,17,3,18,-21,-34,-6
14:00:44:983655,-15,-14,16,9,15,5,-15,-14
14:00:44:991962,-15,-14,16,9,15,5,-15,-14
14:00:44:992703,22,0,9,17,-4,-7,6,1
14:00:45:6217,3,4,7,-3,5,-21,-33,2
14:00:45:14409,3,4,7,-3,5,-21,-33,2
14:00:45:15189,-7,4,-11,-13,-3,3,6,3
14:00:45:21190,-18,-5,-5,0,-16,-4,-12,-13
14:00:45:36911,-18,-5,-5,0,-16,-4,-12,-13
14:00:45:37696,-7,-23,0,2,-17,-3,0,-5
14:00:45:43772,-6,6,23,-11,0,19,24,9
14:00:45:51845,-6,6,23,-11,0,19,24,9
14:00:45:52685,2,-7,-1,-9,11,-37,-27,4
14:00:45:66198,-5,-5,-27,-11,6,-18,9,-6
14:00:45:74449,-5,-5,-27,-11,6,-18,9,-6
14:00:45:75187,12,4,1,-14,-18,5,29,7
14:00:45:81182,-10,-28,-34,-4,-9,-16,-14,-2
14:00:45:96969,-10,-28,-34,-4,-9,-16,-14,-2
14:00:45:97753,-29,-1,-5,-15,4,-3,-17,-13
14:00:45:103719,6,-2,-2,12,18,36,32,-3
14:00:45:111889,6,-2,-2,12,18,36,32,-3
14:00:45:112697,5,-3,-5,23,9,29,4,5
14:00:45:126266,-3,24,6,1,-10,-22,-7,-2
14:00:45:134440,-3,24,6,1,-10,-22,-7,-2
14:00:45:135188,-22,-4,-7,9,4,-1,1,-2
14:00:45:141185,-1,15,-12,-10,0,-4,5,-4
14:00:45:156935,-1,15,-12,-10,0,-4,5,-4
14:00:45:157677,7,-11,2,2,0,22,40,2
14:00:45:163681,-2,0,7,22,-1,0,-10,2
14:00:45:172000,-2,0,7,22,-1,0,-10,2
14:00:45:172713,18,14,4,-5,-14,-3,-4,2
14:00:45:186166,7,-9,-13,-25,2,-1,2,-5
14:00:45:194480,7,-9,-13,-25,2,-1,2,-5
14:00:45:195188,10,-16,-10,6,-5,-8,4,2
14:00:45:201120,-17,-4,-12,-4,-14,-16,-18,-10
14:00:45:216858,-17,-4,-12,-4,-14,-16,-18,-10
14:00:45:217633,-7,-8,-28,4,26,41,38,6
14:00:45:223776,7,-3,8,-17,-9,-1,-4,4
14:00:45:239458,7,-3,8,-17,-9,-1,-4,4
14:00:45:240161,6,20,25,-13,11,3,-8,4
14:00:45:246188,19,5,-13,-2,-5,-17,-25,-2
14:00:45:254420,19,5,-13,-2,-5,-17,-25,-2
14:00:45:255180,-8,-20,-14,-24,-18,0,-1,-2
14:00:45:261224,34,-1,21,-11,1,-11,-3,8
14:00:45:276969,34,-1,21,-11,1,-11,-3,8
14:00:45:277683,-7,23,9,-9,0,-3,-16,-7
14:00:45:283637,-9,-28,-11,-17,-17,-4,-1,-3
14:00:45:291943,-9,-28,-11,-17,-17,-4,-1,-3
14:00:45:292656,8,-3,3,-9,3,-1,-2,-2
14:00:45:306245,-14,5,-5,38,12,20,22,1
14:00:45:314405,-14,5,-5,38,12,20,22,1
14:00:45:315178,-21,-15,10,30,-3,-43,-51,-13
14:00:45:321193,-9,6,9,-6,0,-2,29,-8
14:00:45:336866,-9,6,9,-6,0,-2,29,-8
14:00:45:337685,-3,10,8,12,17,7,20,-2
14:00:45:343828,21,-1,-6,-4,-3,2,-7,2
14:00:45:351870,21,-1,-6,-4,-3,2,-7,2
14:00:45:352647,6,-8,-7,18,-6,-15,-13,-2
14:00:45:366240,15,4,-10,20,-3,-1,-4,-7
14:00:45:374373,15,4,-10,20,-3,-1,-4,-7
14:00:45:375153,-5,-11,-13,-6,-11,2,5,1
14:00:45:381137,-13,-21,11,-3,6,-5,-30,-4
14:00:45:396878,-13,-21,11,-3,6,-5,-30,-4
14:00:45:397678,4,22,3,-16,-30,-12,-32,-3
14:00:45:403731,-4,9,12,-16,7,-7,0,9
14:00:45:411895,-4,9,12,-16,7,-7,0,9
14:00:45:412658,17,14,-19,-2,10,15,-2,7
14:00:45:426231,-38,-10,-3,16,-6,8,1,-7
14:00:45:434353,-38,-10,-3,16,-6,8,1,-7
14:00:45:435134,11,2,-6,5,2,-5,-11,1
14:00:45:441259,-1,-15,11,-21,-2,10,14,-1
14:00:45:456918,-1,-15,11,-21,-2,10,14,-1
14:00:45:457752,-4,-17,15,-6,-5,-7,5,-5
14:00:45:463753,1,2,-16,-10,-4,-6,-4,-5
14:00:45:472033,1,2,-16,-10,-4,-6,-4,-5
14:00:45:472697,-13,-4,-5,14,11,40,58,2
14:00:45:486200,-23,5,21,11,-6,2,4,-5
14:00:45:494478,-23,5,21,11,-6,2,4,-5
14:00:45:495186,-3,-23,-36,-2,-3,-24,-14,-2
14:00:45:501189,2,8,-2,8,7,11,1,-2
14:00:45:516890,2,8,-2,8,7,11,1,-2
14:00:45:517692,-29,4,18,-9,-17,5,9,-4
14:00:45:523723,26,4,19,15,35,26,26,5
14:00:45:531897,26,4,19,15,35,26,26,5
14:00:45:532694,-25,2,-3,-17,-16,-4,-11,-10
14:00:45:546218,-7,16,-9,-32,-5,-9,-18,6
14:00:45:554412,-7,16,-9,-32,-5,-9,-18,6
14:00:45:555195,22,15,45,29,4,2,8,7
14:00:45:561293,-3,1,-5,4,-16,-14,-7,0
14:00:45:577019,-3,1,-5,4,-16,-14,-7,0
14:00:45:577697,16,1,0,1,-7,-4,-9,-1
14:00:45:583677,7,7,2,-25,-30,-4,1,-1
14:00:45:591920,7,7,2,-25,-30,-4,1,-1
14:00:45:592721,9,11,-5,17,26,14,9,4
14:00:45:606274,13,-12,-34,-5,-1,-1,0,-4
14:00:45:614431,13,-12,-34,-5,-1,-1,0,-4
14:00:45:615186,-11,-34,-28,-24,-2,9,-6,-7
14:00:45:621190,-18,-43,-11,7,3,-11,-9,-4
14:00:45:636945,-18,-43,-11,7,3,-11,-9,-4
14:00:45:637698,6,6,13,2,0,-2,14,9
14:00:45:643812,6,23,21,-4,-2,-4,-5,5
14:00:45:651242,6,23,21,-4,-2,-4,-5,5
14:00:45:658756,-11,-1,40,-11,2,-6,4,-7
14:00:45:666167,-12,8,-15,-7,3,6,5,0
14:00:45:674386,-12,8,-15,-7,3,6,5,0
14:00:45:675179,5,-5,-37,9,8,-16,-23,-3
14:00:45:688782,2,21,11,14,-14,-23,-29,0
14:00:45:696936,2,21,11,14,-14,-23,-29,0
14:00:45:697711,5,6,9,-8,-5,10,11,0
14:00:45:703752,9,2,-13,6,13,9,-5,3
14:00:45:711255,9,2,-13,6,13,9,-5,3
14:00:45:718682,-15,0,-1,-4,-8,-12,4,-5
14:00:45:726203,1,-12,-7,-12,-13,-10,10,-5
14:00:45:734358,1,-12,-7,-12,-13,-10,10,-5
14:00:45:735152,2,2,-1,3,11,9,-2,1
14:00:45:748728,17,-8,-19,-12,-12,16,26,4
14:00:45:756982,17,-8,-19,-12,-12,16,26,4
14:00:45:757655,2,-14,15,24,18,-9,14,3
14:00:45:763719,14,38,0,8,19,-10,-7,1
14:00:45:771298,14,38,0,8,19,-10,-7,1
14:00:45:778785,-3,3,4,-21,-12,-5,-9,3
14:00:45:786149,-21,-17,14,22,-7,-2,1,-10
14:00:45:794476,-21,-17,14,22,-7,-2,1,-10
14:00:45:795203,24,15,-12,-15,3,3,-11,-2
14:00:45:808783,-13,4,0,-12,-2,7,-2,-3
14:00:45:816855,-13,4,0,-12,-2,7,-2,-3
14:00:45:817676,7,-16,-18,-6,-43,-35,-6,-6
14:00:45:823710,7,-10,15,20,34,40,32,11
14:00:45:831301,7,-10,15,20,34,40,32,11
14:00:45:838772,-4,30,-9,7,11,8,-8,2
14:00:45:846229,-19,-1,6,-27,-12,-14,-4,-8
14:00:45:854470,-19,-1,6,-27,-12,-14,-4,-8
14:00:45:855175,6,1,-11,-12,-15,6,16,-3
14:00:45:868706,4,-1,4,3,8,-19,-24,5
14:00:45:877055,4,-1,4,3,8,-19,-24,5
14:00:45:877741,-11,6,-2,1,-11,-5,-12,2
14:00:45:883666,8,-14,-33,-8,-15,-7,-3,-5
14:00:45:891342,8,-14,-33,-8,-15,-7,-3,-5
14:00:45:898729,4,-7,-31,-34,9,2,0,-1
14:00:45:906240,3,-7,-25,-1,6,1,-5,-1
14:00:45:914444,3,-7,-25,-1,6,1,-5,-1
14:00:45:915224,-1,-5,5,13,5,-20,-32,-5
14:00:45:928758,-9,-16,4,-8,2,50,43,2
14:00:45:936969,-9,-16,4,-8,2,50,43,2
14:00:45:937782,-8,-12,-15,-4,-4,8,14,1
14:00:45:943843,-30,0,-5,3,-19,-35,-17,-10
14:00:45:951228,-30,0,-5,3,-19,-35,-17,-10
14:00:45:958814,-1,-6,2,-6,-2,23,0,1
14:00:45:966223,0,30,13,24,10,-3,-4,-1
14:00:45:974449,0,30,13,24,10,-3,-4,-1
14:00:45:975187,6,-1,11,9,-1,-16,-11,4
14:00:45:988767,1,-40,28,-2,10,9,0,0
14:00:45:996979,1,-40,28,-2,10,9,0,0
14:00:45:997791,-14,-7,-19,-10,-14,-7,6,-8
14:00:46:11946,7,-9,15,0,-1,-47,-50,-8
14:00:46:12713,7,-9,15,0,-1,-47,-50,-8
14:00:46:18713,6,-10,14,14,24,24,14,4
14:00:46:26291,8,5,6,-18,-18,-10,-5,-2
14:00:46:34331,8,5,6,-18,-18,-10,-5,-2
14:00:46:35123,-11,-7,-12,11,3,-1,0,-3
14:00:46:48746,6,2,-9,14,-7,3,1,9
14:00:46:56970,6,2,-9,14,-7,3,1,9
14:00:46:57752,7,-4,5,8,11,10,13,-3
14:00:46:63707,-1,12,-16,-18,-26,2,6,1
14:00:46:71276,-1,12,-16,-18,-26,2,6,1
14:00:46:78715,6,0,3,8,7,8,9,1
14:00:46:86198,-12,-5,4,3,11,16,3,1
14:00:46:94481,-12,-5,4,3,11,16,3,1
14:00:46:95184,10,3,5,-9,-2,-24,-16,0
14:00:46:108771,-9,-12,-43,-12,7,8,1,0
14:00:46:125093,-9,-12,-43,-12,7,8,1,0
14:00:46:125917,-11,9,-5,-9,-2,3,1,-2
14:00:46:126737,-12,-7,-7,-1,-1,-14,2,-7
14:00:46:131253,-12,-7,-7,-1,-1,-14,2,-7
14:00:46:139177,-5,-22,35,2,-7,3,-4,-4
14:00:46:146206,-8,6,2,-10,-1,-7,-12,-2
14:00:46:154371,-8,6,2,-10,-1,-7,-12,-2
14:00:46:155151,-7,-10,-3,-8,-12,-7,-5,-1
14:00:46:168702,2,-1,19,14,16,1,16,-1
14:00:46:176938,2,-1,19,14,16,1,16,-1
14:00:46:177702,4,1,1,19,10,1,-11,1
14:00:46:183643,6,14,4,16,-3,-5,-14,-1
14:00:46:191274,6,14,4,16,-3,-5,-14,-1
14:00:46:198712,6,18,-9,-21,-29,-7,-6,0
14:00:46:206236,10,7,10,5,16,11,8,2
14:00:46:214429,10,7,10,5,16,11,8,2
14:00:46:215189,-3,25,-2,17,2,-6,-3,-3
14:00:46:229384,0,-3,-10,21,-2,6,10,9
14:00:46:230193,0,-3,-10,21,-2,6,10,9
14:00:46:236203,-9,-1,-3,-3,14,35,45,-2
14:00:46:243779,5,1,-1,-11,-24,-19,-6,-2
14:00:46:251188,5,1,-1,-11,-24,-19,-6,-2
14:00:46:258791,27,-5,4,4,18,-1,-10,7
14:00:46:266168,-7,-22,-9,-30,-14,1,-26,-13
14:00:46:274390,-7,-22,-9,-30,-14,1,-26,-13
14:00:46:275213,-6,-35,-15,-5,4,25,2,-2
14:00:46:289375,-3,13,-2,12,-9,9,14,1
14:00:46:290176,-3,13,-2,12,-9,9,14,1
14:00:46:296179,-3,-5,13,6,8,-28,-22,0
14:00:46:303688,-3,4,14,7,-7,-13,-11,-4
14:00:46:311268,-3,4,14,7,-7,-13,-11,-4
14:00:46:318680,0,1,-10,-15,-6,-15,-1,-3
14:00:46:326270,1,1,2,-6,8,20,28,7
14:00:46:334425,1,1,2,-6,8,20,28,7
14:00:46:335169,0,-7,-1,-5,-6,19,4,2
14:00:46:349415,-2,-6,8,-1,-5,-21,-21,-4
14:00:46:350175,-2,-6,8,-1,-5,-21,-21,-4
14:00:46:356203,-23,15,-2,-17,-23,-16,-5,-2
14:00:46:363724,3,8,-9,-4,14,19,-19,3
14:00:46:371275,3,8,-9,-4,14,19,-19,3
14:00:46:378736,-6,12,-1,4,-6,-10,2,-4
14:00:46:386172,-8,-13,9,4,4,-15,-30,-4
14:00:46:401869,-8,-13,9,4,4,-15,-30,-4
14:00:46:402675,-8,2,-10,-2,19,28,-2,-2
14:00:46:409458,4,12,19,-3,-9,-4,17,-5
14:00:46:410197,4,12,19,-3,-9,-4,17,-5
14:00:46:416187,5,2,24,38,-1,-27,-10,-5
14:00:46:423764,-8,-27,-17,3,-5,-6,-14,-2
14:00:46:431265,-8,-27,-17,3,-5,-6,-14,-2
14:00:46:438818,0,8,-15,-9,12,-19,-39,1
14:00:46:446185,13,-12,10,9,16,57,46,8
14:00:46:454386,13,-12,10,9,16,57,46,8
14:00:46:455182,-6,-9,1,-3,-1,5,-2,-6
14:00:46:469408,20,0,-18,-9,-1,-27,-22,0
14:00:46:470213,20,0,-18,-9,-1,-27,-22,0
14:00:46:476283,6,-5,26,-9,-4,-9,-5,6
14:00:46:483667,-8,-9,-11,18,-3,-15,1,1
14:00:46:491242,-8,-9,-11,18,-3,-15,1,1
14:00:46:498708,-30,3,12,-2,6,33,37,1
14:00:46:506546,-4,8,-23,-1,1,8,22,-4
14:00:46:514412,-4,8,-23,-1,1,8,22,-4
14:00:46:515177,13,-4,4,0,-2,-4,5,-1
14:00:46:529402,-13,9,27,0,7,63,46,5
14:00:46:530156,-13,9,27,0,7,63,46,5
14:00:46:536210,-7,0,4,29,9,6,-1,3
14:00:46:543809,3,13,-2,7,-10,-41,-57,-7
14:00:46:551202,3,13,-2,7,-10,-41,-57,-7
14:00:46:566875,13,16,-11,-16,-6,11,24,7
14:00:46:567870,-23,1,-1,-25,-19,-20,-6,-13
14:00:46:574414,-23,1,-1,-25,-19,-20,-6,-13
14:00:46:575199,4,3,-17,-2,4,-16,-21,-7
14:00:46:589420,13,-17,-17,-27,-6,-22,-7,-2
14:00:46:590152,13,-17,-17,-27,-6,-22,-7,-2
14:00:46:603754,-5,-24,-27,23,-1,-3,12,-5
14:00:46:611981,5,-2,4,-9,-9,1,12,5
14:00:46:612728,5,-2,4,-9,-9,1,12,5
14:00:46:618746,-11,1,-47,-25,6,-4,-22,-5
14:00:46:626284,-14,-7,-4,2,1,-27,-35,-7
14:00:46:633728,-14,-7,-4,2,1,-27,-35,-7
14:00:46:641239,-11,-11,5,-13,-16,18,10,0
14:00:46:649376,-7,3,6,10,-3,-5,2,-6
14:00:46:650165,-7,3,6,10,-3,-5,2,-6
14:00:46:656263,3,-7,-2,-31,-12,-18,-25,-6
14:00:46:671959,-13,7,5,19,24,22,12,3
14:00:46:672680,-13,7,5,19,24,22,12,3
14:00:46:678736,2,-7,16,-7,-3,-4,11,-2
14:00:46:694461,6,24,-17,-4,14,12,2,2
14:00:46:695177,6,24,-17,-4,14,12,2,2
14:00:46:701160,14,3,2,11,-13,-11,-15,2
14:00:46:709379,-9,-14,17,1,-15,56,45,0
14:00:46:710118,-9,-14,17,1,-15,56,45,0
14:00:46:716180,4,10,13,24,3,1,-9,-3
14:00:46:731869,8,-4,-6,-7,1,-18,35,5
14:00:46:732694,8,-4,-6,-7,1,-18,35,5
14:00:46:738778,-2,-11,4,-5,-10,-5,15,2
14:00:46:746209,23,2,-8,2,-4,-35,-35,-2
14:00:46:753757,23,2,-8,2,-4,-35,-35,-2
14:00:46:761202,5,-24,6,-6,10,-9,7,3
14:00:46:769381,3,-12,1,-5,0,5,19,6
14:00:46:770139,3,-12,1,-5,0,5,19,6
14:00:46:776254,-12,11,4,-16,8,5,-9,-9
14:00:46:791881,-6,2,-16,-7,-14,-29,-35,-6
14:00:46:792693,-6,2,-16,-7,-14,-29,-35,-6
14:00:46:798704,-14,1,-17,-5,15,54,41,1
14:00:46:814392,-1,-19,8,-10,16,13,-25,3
14:00:46:815211,-1,-19,8,-10,16,13,-25,3
14:00:46:821200,22,14,22,-11,-30,-25,-26,-3
14:00:46:829362,-25,-25,0,-15,-4,10,-1,-10
14:00:46:830122,-25,-25,0,-15,-4,10,-1,-10
14:00:46:836198,2,-3,2,28,9,-14,0,3
14:00:46:851874,-34,-22,1,-8,-23,-15,7,-13
14:00:46:852697,-34,-22,1,-8,-23,-15,7,-13
14:00:46:858755,0,0,17,14,17,5,8,11
14:00:46:866206,1,30,20,-1,14,6,-3,4
14:00:46:873689,1,30,20,-1,14,6,-3,4
14:00:46:881203,6,2,19,-8,-29,-24,-21,-4
14:00:46:889445,2,9,-27,-13,-16,22,31,-7
14:00:46:890189,2,9,-27,-13,-16,22,31,-7
14:00:46:896186,4,4,6,2,0,3,-2,-1
14:00:46:911869,-7,-4,12,12,-6,-4,-4,2
14:00:46:912703,-7,-4,12,12,-6,-4,-4,2
14:00:46:918681,-8,-7,-66,-25,-10,-8,33,-1
14:00:46:926300,11,-9,2,9,3,17,17,4
14:00:46:933674,11,-9,2,9,3,17,17,4
14:00:46:941147,-6,2,-2,21,15,-22,-20,-7
14:00:46:949362,-7,5,6,23,1,-14,-13,2
14:00:46:950158,-7,5,6,23,1,-14,-13,2
14:00:46:956221,8,2,6,-5,-5,-3,-24,-5
14:00:46:972012,9,11,-15,24,12,-4,-15,-3
14:00:46:972668,9,11,-15,24,12,-4,-15,-3
14:00:46:978744,-14,-5,-2,-2,-5,10,19,2
14:00:46:986172,23,-13,12,-7,-12,2,-4,0
14:00:46:993776,23,-13,12,-7,-12,2,-4,0
14:00:47:1142,-5,23,19,-9,-11,-6,-18,1
14:00:47:9475,-13,17,16,-8,-2,-20,-23,-3
14:00:47:10198,-13,17,16,-8,-2,-20,-23,-3
14:00:47:16142,6,-1,-6,-1,17,55,50,6
14:00:47:31882,18,6,-9,-14,2,-1,9,0
14:00:47:32708,18,6,-9,-14,2,-1,9,0
14:00:47:38780,-19,19,-23,-10,-9,14,13,-2
14:00:47:46192,-6,-3,7,52,10,-22,-22,-5
14:00:47:53747,-6,-3,7,52,10,-22,-22,-5
14:00:47:61275,-6,-31,11,3,-1,-4,5,-2
14:00:47:69379,5,-2,-18,6,-3,5,-15,3
14:00:47:70205,5,-2,-18,6,-3,5,-15,3
14:00:47:76237,-13,12,-19,2,5,0,-2,-3
14:00:47:91920,-20,-16,-12,-41,-2,-4,-3,-10
14:00:47:92720,-20,-16,-12,-41,-2,-4,-3,-10
14:00:47:98728,4,-17,-30,-19,-17,13,-14,3
14:00:47:106233,-7,10,-6,-3,-4,-11,18,-1
14:00:47:121972,-7,10,-6,-3,-4,-11,18,-1
14:00:47:122669,5,-2,-9,-3,9,-34,-28,-4
14:00:47:129394,-2,-20,6,4,9,1,16,6
14:00:47:130208,-2,-20,6,4,9,1,16,6
14:00:47:136150,7,-2,-7,-4,-32,-34,-12,-7
14:00:47:151859,-1,4,4,1,16,5,5,-1
14:00:47:152671,-1,4,4,1,16,5,5,-1
14:00:47:158790,-2,17,49,28,15,-16,-17,-5
14:00:47:166135,9,24,43,5,-14,-22,-23,0
14:00:47:173720,9,24,43,5,-14,-22,-23,0
14:00:47:181158,-33,19,11,6,-4,-1,19,-10
14:00:47:189465,18,7,-11,-12,-1,7,-8,2
14:00:47:190172,18,7,-11,-12,-1,7,-8,2
14:00:47:196199,9,-12,5,-10,8,14,0,7
14:00:47:211906,-23,-23,-29,-11,-18,8,7,-5
14:00:47:212701,-23,-23,-29,-11,-18,8,7,-5
14:00:47:218679,16,15,-6,-10,4,5,-12,-2
14:00:47:226262,20,-1,-15,-11,2,2,-5,8
14:00:47:233727,20,-1,-15,-11,2,2,-5,8
14:00:47:241221,-8,3,34,15,22,21,-6,1
14:00:47:249340,4,-15,40,33,20,23,26,1
14:00:47:250188,4,-15,40,33,20,23,26,1
14:00:47:256243,17,-7,-27,-26,-15,-12,-11,0
14:00:47:272001,2,-2,-21,-21,-21,-23,-37,3
14:00:47:272729,2,-2,-21,-21,-21,-23,-37,3
14:00:47:278731,4,-25,-21,-4,-23,-27,9,0
14:00:47:286180,-14,37,17,14,12,10,-20,-1
14:00:47:293807,-14,37,17,14,12,10,-20,-1
14:00:47:301216,-21,-7,7,14,0,-8,-7,-1
14:00:47:309436,-36,-13,-20,-2,2,18,11,-11
14:00:47:310208,-36,-13,-20,-2,2,18,11,-11
14:00:47:316177,5,12,8,-3,-3,-1,8,-5
14:00:47:331890,2,6,-8,-15,-20,-42,-46,-8
14:00:47:332729,2,6,-8,-15,-20,-42,-46,-8
14:00:47:338836,-18,-24,-21,-5,31,77,44,4
14:00:47:346246,19,-10,-6,6,0,51,50,-1
14:00:47:353699,19,-10,-6,6,0,51,50,-1
14:00:47:361207,-14,-5,-16,27,-10,-14,-13,-2
14:00:47:369348,0,-3,-17,-14,-20,-24,6,-8
14:00:47:370171,0,-3,-17,-14,-20,-24,6,-8
14:00:47:376189,-3,16,-18,34,30,23,9,11
14:00:47:391950,15,8,-2,-14,0,28,40,8
14:00:47:392746,15,8,-2,-14,0,28,40,8
14:00:47:398723,10,-11,37,-16,-22,-3,-2,-5
14:00:47:406237,2,-2,14,-3,3,-22,-21,-6
14:00:47:413744,2,-2,14,-3,3,-22,-21,-6
14:00:47:421178,7,-7,19,-5,12,-19,-6,-5
14:00:47:429418,0,8,24,13,7,-11,-12,2
14:00:47:430191,0,8,24,13,7,-11,-12,2
14:00:47:436161,-12,-16,-4,-11,-5,7,1,-10
14:00:47:451889,9,15,7,12,20,-13,13,1
14:00:47:452709,9,15,7,12,20,-13,13,1
14:00:47:458738,10,7,-12,-14,-13,-23,-6,3
14:00:47:466138,14,-25,-11,-1,-2,-11,-32,3
14:00:47:473761,14,-25,-11,-1,-2,-11,-32,3
14:00:47:481238,-6,-14,3,12,1,-5,-25,-8
14:00:47:489442,-9,-13,6,-18,-14,-14,-1,0
14:00:47:490129,-9,-13,6,-18,-14,-14,-1,0
14:00:47:496237,-10,4,-1,-5,-15,-5,-8,1
14:00:47:511943,22,23,2,1,18,41,24,-4
14:00:47:512691,22,23,2,1,18,41,24,-4
14:00:47:518750,-12,10,-16,-21,-7,6,14,2
14:00:47:526309,1,9,22,2,-16,-55,-42,-2
14:00:47:533749,1,9,22,2,-16,-55,-42,-2
14:00:47:541258,3,-11,-6,3,19,61,41,10
14:00:47:549330,-10,10,-20,15,9,5,2,4
14:00:47:550148,-10,10,-20,15,9,5,2,4
14:00:47:563754,-6,1,19,16,2,-23,-17,-3
14:00:47:571945,-8,-9,-4,-13,-12,-22,-9,-2
14:00:47:572728,-8,-9,-4,-13,-12,-22,-9,-2
14:00:47:578745,8,-18,-43,-10,-19,-25,-19,-7
14:00:47:594509,-5,-25,-20,-4,-3,-1,-16,2
14:00:47:595220,-5,-25,-20,-4,-3,-1,-16,2
14:00:47:601153,-7,-9,-13,4,5,21,2,7
14:00:47:609455,-21,-11,-4,1,17,16,28,4
14:00:47:610143,-21,-11,-4,1,17,16,28,4
14:00:47:623788,8,-3,13,8,0,-24,-22,-4
14:00:47:631948,-12,-6,1,24,20,34,14,-3
14:00:47:632730,-12,-6,1,24,20,34,14,-3
14:00:47:638900,14,7,1,8,-15,-7,6,3
14:00:47:654421,2,-6,-15,-13,-10,9,5,0
14:00:47:655250,2,-6,-15,-13,-10,9,5,0
14:00:47:661276,1,4,-2,-2,-9,-30,-21,-8
14:00:47:669416,1,-22,-24,-4,-1,-12,10,-1
14:00:47:670230,1,-22,-24,-4,-1,-12,10,-1
14:00:47:683699,4,-33,-7,-13,-11,-13,14,1
14:00:47:691929,8,-3,-18,-26,-3,-8,-10,-6
14:00:47:692687,8,-3,-18,-26,-3,-8,-10,-6
14:00:47:698715,7,-7,-23,-20,26,-12,-21,-4
14:00:47:714390,-19,-5,-5,-7,-12,-22,-7,-3
14:00:47:715206,-19,-5,-5,-7,-12,-22,-7,-3
14:00:47:721190,-5,29,36,27,27,30,21,6
14:00:47:729110,0,32,-12,-16,-7,2,6,-3
14:00:47:736266,0,32,-12,-16,-7,2,6,-3
14:00:47:743804,0,21,19,-16,-22,-16,-12,-4
14:00:47:751859,-18,-13,20,-1,3,-14,-15,-2
14:00:47:752697,-18,-13,20,-1,3,-14,-15,-2
14:00:47:758796,-1,-8,-15,2,14,16,3,-4
14:00:47:774369,6,6,-7,-10,0,93,43,11
14:00:47:775186,6,6,-7,-10,0,93,43,11
14:00:47:781200,-4,1,-3,-16,-4,-9,-1,1
14:00:47:789446,-11,-12,-14,9,-6,-24,-16,-7
14:00:47:790164,-11,-12,-14,9,-6,-24,-16,-7
14:00:47:804173,2,10,-15,6,-2,-12,-11,-1
14:00:47:811928,13,14,-1,23,-1,9,23,1
14:00:47:812698,13,14,-1,23,-1,9,23,1
14:00:47:818703,9,-29,-7,-7,11,-21,-30,-6
14:00:47:834382,-1,4,38,0,-7,6,1,0
14:00:47:835179,-1,4,38,0,-7,6,1,0
14:00:47:841206,-14,12,32,-2,-19,5,14,-2
14:00:47:849392,-1,-3,6,6,-9,-14,-4,-4
14:00:47:850193,-1,-3,6,6,-9,-14,-4,-4
14:00:47:863747,-3,-1,1,18,0,-1,1,6
14:00:47:872665,-10,9,-1,-4,-5,19,3,-4
14:00:47:873352,-10,9,-1,-4,-5,19,3,-4
14:00:47:878795,4,2,-13,8,12,18,19,-1
14:00:47:894505,4,2,-13,8,12,18,19,-1
14:00:47:895193,2,1,-14,33,5,-12,-14,-7
14:00:47:901172,-11,-13,31,3,-11,5,-3,-6
14:00:47:908852,-11,-13,31,3,-11,5,-3,-6
14:00:47:916220,13,-5,10,-13,10,14,1,8
14:00:47:923770,-2,-3,-25,-27,-20,-5,9,-2
14:00:47:931935,-2,-3,-25,-27,-20,-5,9,-2
14:00:47:932706,-8,4,6,-3,-2,-16,9,0
14:00:47:938872,9,-1,0,-9,21,-2,-6,5
14:00:47:954435,9,-1,0,-9,21,-2,-6,5
14:00:47:955245,9,0,1,9,-7,26,-6,-2
14:00:47:961256,12,27,-10,-28,-23,-4,4,-4
14:00:47:968737,12,27,-10,-28,-23,-4,4,-4
14:00:47:976236,-9,9,55,7,-9,-81,-68,-8
14:00:47:983678,4,-10,12,-1,11,25,14,1
14:00:47:991935,4,-10,12,-1,11,25,14,1
14:00:47:992690,3,5,-12,-5,-1,-5,-2,0
14:00:47:998696,-24,-11,-3,-5,-9,-22,-4,-1
14:00:48:14401,-24,-11,-3,-5,-9,-22,-4,-1
14:00:48:15151,-5,-25,-37,-3,-3,-24,-14,-5
14:00:48:21179,9,-15,-8,23,10,25,27,3
14:00:48:28732,9,-15,-8,23,10,25,27,3
14:00:48:36122,-13,3,-24,-16,9,13,11,-10
14:00:48:43793,-18,-10,1,0,-17,-13,-7,-1
14:00:48:51846,-18,-10,1,0,-17,-13,-7,-1
14:00:48:52661,-4,-3,-12,4,4,8,25,8
14:00:48:58705,-2,-21,-2,-1,-2,-21,-26,-6
14:00:48:82574,-2,-21,-2,-1,-2,-21,-26,-6
14:00:48:83348,-2,-9,-15,-14,-1,0,-2,-3
14:00:48:84135,11,21,-17,17,14,-10,-18,2
14:00:48:96929,11,21,-17,17,14,-10,-18,2
14:00:48:97702,17,-4,4,1,20,78,53,13
14:00:48:103723,-4,17,15,-14,-3,-15,-6,-1
14:00:48:112006,-4,17,15,-14,-3,-15,-6,-1
14:00:48:112750,1,10,14,-2,-26,-34,-28,0
14:00:48:118711,-20,-15,-29,6,-2,1,2,-4
14:00:48:134373,-20,-15,-29,6,-2,1,2,-4
14:00:48:135164,8,-28,7,-5,4,-11,-2,5
14:00:48:149400,7,6,31,-8,-3,5,-6,-8
14:00:48:150142,7,6,31,-8,-3,5,-6,-8
14:00:48:156251,-11,-4,-18,-17,-12,-2,13,-2
14:00:48:172589,-1,8,-10,-5,-3,35,43,4
14:00:48:173327,-1,8,-10,-5,-3,35,43,4
14:00:48:174138,-11,10,-17,-8,3,-21,-11,-11
14:00:48:178663,-7,-2,-8,-2,14,52,12,-2
14:00:48:194460,-7,-2,-8,-2,14,52,12,-2
14:00:48:195192,0,-33,8,-21,7,-16,-8,-1
14:00:48:201138,1,22,12,-5,-11,-33,-23,-2
14:00:48:208823,1,22,12,-5,-11,-33,-23,-2
14:00:48:216171,1,7,12,23,4,-21,-11,-8
14:00:48:223785,3,-20,-5,-5,-2,30,15,3
14:00:48:240064,3,-20,-5,-5,-2,30,15,3
14:00:48:240812,-4,14,-7,-4,12,13,-17,5
14:00:48:241665,15,16,7,-1,-14,-36,-15,3
14:00:48:254378,15,16,7,-1,-14,-36,-15,3
14:00:48:255168,-11,-13,-9,0,-8,25,2,-6
14:00:48:261237,11,33,9,-8,9,5,-9,0
14:00:48:269344,11,33,9,-8,9,5,-9,0
14:00:48:270169,2,5,1,23,-6,-9,-3,0
14:00:48:283705,-12,-43,-10,5,2,30,17,-3
14:00:48:292415,-12,-43,-10,5,2,30,17,-3
14:00:48:299350,7,16,-14,-6,-4,21,26,5
14:00:48:300141,12,-13,9,3,-8,-33,-24,1
14:00:48:314368,12,-13,9,3,-8,-33,-24,1
14:00:48:315162,-4,-20,-12,-7,-4,4,-3,1
14:00:48:321193,3,7,1,21,15,-5,-9,-1
14:00:48:329384,3,7,1,21,15,-5,-9,-1
14:00:48:330162,-8,4,39,24,8,-13,-3,-3
14:00:48:343761,-5,7,-24,-39,-14,-11,-9,3
14:00:48:351853,-5,7,-24,-39,-14,-11,-9,3
14:00:48:352696,7,5,15,8,15,0,-6,3
14:00:48:358796,-5,-1,13,20,10,-20,-5,-8
14:00:48:374885,-5,-1,13,20,10,-20,-5,-8
14:00:48:375635,-5,-13,-3,-13,-9,-5,3,-3
14:00:48:381171,15,19,-1,11,-15,-13,-4,3
14:00:48:389437,15,19,-1,11,-15,-13,-4,3
14:00:48:390149,1,5,7,8,21,38,11,3
14:00:48:403720,-2,-30,-8,-14,-7,-10,5,-1
14:00:48:411914,-2,-30,-8,-14,-7,-10,5,-1
14:00:48:412684,9,-11,-24,-30,-21,-19,-13,-3
14:00:48:418707,-29,-4,-6,17,2,-16,-24,-11
14:00:48:434432,-29,-4,-6,17,2,-16,-24,-11
14:00:48:435182,9,13,-1,-12,-9,-7,6,4
14:00:48:441228,1,-4,-19,-5,6,10,21,0
14:00:48:449461,1,-4,-19,-5,6,10,21,0
14:00:48:450193,-3,5,-12,-6,-8,33,22,-4
14:00:48:463746,3,2,3,-10,-13,-38,-46,0
14:00:48:472035,3,2,3,-10,-13,-38,-46,0
14:00:48:472687,0,9,-9,16,13,-8,-8,0
14:00:48:478732,-1,2,3,2,9,20,18,2
14:00:48:494495,-1,2,3,2,9,20,18,2
14:00:48:495221,-11,11,-2,-19,3,-11,-10,-4
14:00:48:501187,0,15,-7,23,-6,-15,-4,-2
14:00:48:508791,0,15,-7,23,-6,-15,-4,-2
14:00:48:516188,-11,-24,0,11,-3,10,5,-5
14:00:48:523808,15,3,-8,-21,3,-50,-42,-5
14:00:48:531838,15,3,-8,-21,3,-50,-42,-5
14:00:48:532744,-13,-3,6,-2,-14,-11,-28,-5
14:00:48:546216,-6,-18,-7,0,1,31,42,5
14:00:48:554399,-6,-18,-7,0,1,31,42,5
14:00:48:555195,4,42,1,-30,-22,-42,-21,-7
14:00:48:561251,-5,51,74,53,22,25,11,-2
14:00:48:568734,-5,51,74,53,22,25,11,-2
14:00:48:576227,-4,-38,4,-7,-3,6,2,-6
14:00:48:583708,-1,0,-13,-29,-25,5,8,-5
14:00:48:591982,-1,0,-13,-29,-25,5,8,-5
14:00:48:592700,27,16,-9,18,29,8,5,8
14:00:48:606199,0,-14,17,6,-16,-24,-19,-2
14:00:48:614430,0,-14,17,6,-16,-24,-19,-2
14:00:48:615147,6,-6,2,5,6,18,-5,1
14:00:48:621196,3,21,-1,0,7,23,10,3
14:00:48:628763,3,21,-1,0,7,23,10,3
14:00:48:636118,5,13,0,17,-5,-14,2,1
14:00:48:643850,-30,-25,-9,-34,-2,-12,-12,-6
14:00:48:651846,-30,-25,-9,-34,-2,-12,-12,-6
14:00:48:652679,-3,10,5,8,8,5,6,-2
14:00:48:666228,9,-7,-23,-20,-18,21,34,2
14:00:48:674431,9,-7,-23,-20,-18,21,34,2
14:00:48:675216,16,10,17,-9,-14,2,2,2
14:00:48:681172,4,-10,-14,-18,5,-9,-15,0
14:00:48:688912,4,-10,-14,-18,5,-9,-15,0
14:00:48:696177,5,-11,-15,-19,-9,-16,-9,-2
14:00:48:703660,3,-11,-5,2,7,15,10,2
14:00:48:711941,3,-11,-5,2,7,15,10,2
14:00:48:712728,-10,-25,-17,-6,-11,-34,-10,-4
14:00:48:726242,-2,16,12,21,4,-38,-46,-2
14:00:48:734337,-2,16,12,21,4,-38,-46,-2
14:00:48:735161,-1,8,-6,-15,-22,18,26,-2
14:00:48:741190,-18,-5,14,1,6,6,8,-6
14:00:48:748726,-18,-5,14,1,6,6,8,-6
14:00:48:756186,-5,-49,4,13,8,5,-5,2
14:00:48:763735,1,-5,0,3,-13,-24,-17,0
14:00:48:771932,1,-5,0,3,-13,-24,-17,0
14:00:48:772679,-4,-1,11,-2,10,29,28,3
14:00:48:786612,0,-12,-6,1,8,22,23,5
14:00:48:794492,0,-12,-6,1,8,22,23,5
14:00:48:795285,10,19,-15,-5,-4,-26,-32,-4
14:00:48:801138,-37,-28,-19,-6,2,2,-1,-10
14:00:48:808797,-37,-28,-19,-6,2,2,-1,-10
14:00:48:816228,-4,6,13,8,-6,-15,-18,-2
14:00:48:823817,15,1,14,9,35,2,4,4
14:00:48:831857,15,1,14,9,35,2,4,4
14:00:48:832717,-1,14,13,-8,-6,-8,-3,-4
14:00:48:846211,4,-15,-15,-7,-22,5,8,2
14:00:48:854411,4,-15,-15,-7,-22,5,8,2
14:00:48:855231,-17,-12,-22,-7,-7,-9,-8,-1
14:00:48:861240,14,-7,-20,10,-7,-25,-23,-4
14:00:48:868728,14,-7,-20,10,-7,-25,-23,-4
14:00:48:876316,23,12,-8,-2,19,49,33,10
14:00:48:883694,14,1,8,-2,20,-7,3,4
14:00:48:891952,14,1,8,-2,20,-7,3,4
14:00:48:892680,-19,-2,42,13,6,-11,-5,-2
14:00:48:906261,9,49,18,-1,-15,-1,18,-2
14:00:48:914406,9,49,18,-1,-15,-1,18,-2
14:00:48:915166,3,5,-1,11,-5,21,10,1
14:00:48:921264,0,-15,-8,-4,-1,30,16,-4
14:00:48:928748,0,-15,-8,-4,-1,30,16,-4
14:00:48:936170,-27,-15,2,-11,-3,-10,-9,-11
14:00:48:943858,-26,-12,-26,2,9,3,-3,-1
14:00:48:951861,-26,-12,-26,2,9,3,-3,-1
14:00:48:952683,7,-6,-20,3,1,-41,-20,2
14:00:48:966206,3,-24,-3,-10,-14,24,15,4
14:00:48:974384,3,-24,-3,-10,-14,24,15,4
14:00:48:975143,13,-2,-1,12,11,14,-11,5
14:00:48:981174,-10,10,-6,-3,3,3,-9,-6
14:00:48:988779,-10,10,-6,-3,3,3,-9,-6
14:00:48:996190,-2,-11,6,-15,-12,-18,-3,-2
14:00:49:3654,-17,5,5,-16,-10,-26,-17,-4
14:00:49:11942,-17,5,5,-16,-10,-26,-17,-4
14:00:49:12726,-7,5,3,11,-8,4,-11,-9
14:00:49:26254,20,-2,-12,-10,3,19,16,5
14:00:49:34364,20,-2,-12,-10,3,19,16,5
14:00:49:35159,-25,-7,-2,-12,3,16,4,-6
14:00:49:41204,8,22,7,-5,-7,-4,-15,2
14:00:49:48719,8,22,7,-5,-7,-4,-15,2
14:00:49:56218,-26,-4,-17,14,-2,-16,3,-1
14:00:49:63749,-7,-2,-14,-10,-12,-8,-4,-3
14:00:49:71963,-7,-2,-14,-10,-12,-8,-4,-3
14:00:49:72688,2,2,-16,-9,-15,24,21,-3
14:00:49:86134,-4,-8,8,6,11,23,14,0
14:00:49:94460,-4,-8,8,6,11,23,14,0
14:00:49:95210,8,6,18,-19,6,-6,4,8
14:00:49:101155,6,-6,24,-11,-20,-13,-2,-2
14:00:49:108853,6,-6,24,-11,-20,-13,-2,-2
14:00:49:116185,0,-3,-16,-17,-4,-7,-12,-6
14:00:49:123768,-4,-2,-14,-16,0,-32,-34,-6
14:00:49:131857,-4,-2,-14,-16,0,-32,-34,-6
14:00:49:132702,15,-12,-25,-8,3,12,21,9
14:00:49:146192,-5,-9,3,13,3,22,11,3
14:00:49:154440,-5,-9,3,13,3,22,11,3
14:00:49:155204,1,4,3,4,-12,-11,-10,-1
14:00:49:161228,15,21,-30,4,3,-2,1,5
14:00:49:168710,15,21,-30,4,3,-2,1,5
14:00:49:176257,4,16,11,27,2,-12,-2,-4
14:00:49:183684,-3,-4,37,7,-20,-6,-2,-6
14:00:49:191936,-3,-4,37,7,-20,-6,-2,-6
14:00:49:192728,7,-5,-9,18,12,3,4,3
14:00:49:206191,14,0,18,17,16,8,15,8
14:00:49:214385,14,0,18,17,16,8,15,8
14:00:49:215190,-1,21,14,22,7,0,-13,-1
14:00:49:221218,-7,-8,-9,-12,-20,6,9,-5
14:00:49:228754,-7,-8,-9,-12,-20,6,9,-5
14:00:49:236161,-8,28,6,0,9,2,0,-5
14:00:49:243770,-7,-27,-21,-27,2,-3,-6,-6
14:00:49:251843,-7,-27,-21,-27,2,-3,-6,-6
14:00:49:252703,-1,-12,-14,-15,0,8,7,-4
14:00:49:266197,3,6,0,15,7,10,19,3
14:00:49:274407,3,6,0,15,7,10,19,3
14:00:49:275187,-6,-16,9,0,-4,-18,-13,-5
14:00:49:281150,-8,16,15,-7,-13,-6,-16,-6
14:00:49:288948,-8,16,15,-7,-13,-6,-16,-6
14:00:49:296174,4,-34,-6,-3,-8,-10,-8,-3
14:00:49:303634,-6,5,22,-20,16,2,-4,-1
14:00:49:311937,-6,5,22,-20,16,2,-4,-1
14:00:49:312721,-13,-11,-2,-12,-10,1,-3,-4
14:00:49:326215,-20,-6,-18,-1,-20,-40,-31,-13
14:00:49:334091,-20,-6,-18,-1,-20,-40,-31,-13
14:00:49:341852,13,2,12,-1,14,8,45,7
14:00:49:342583,10,8,6,12,-5,-8,7,-3
14:00:49:348719,10,8,6,12,-5,-8,7,-3
14:00:49:356252,-4,12,-15,0,1,-11,-15,3
14:00:49:363790,4,16,25,10,0,-5,-19,1
14:00:49:371311,4,16,25,10,0,-5,-19,1
14:00:49:378735,11,7,35,-32,-28,-3,6,1
14:00:49:386211,-5,-14,11,17,1,10,-1,-2
14:00:49:394413,-5,-14,11,17,1,10,-1,-2
14:00:49:395160,6,4,1,-20,9,21,6,-2
14:00:49:401167,16,9,-27,0,3,-6,1,4
14:00:49:408825,16,9,-27,0,3,-6,1,4
14:00:49:416154,8,-9,-27,9,-2,-29,-54,-6
14:00:49:423688,-2,1,-10,7,15,36,13,3
14:00:49:431888,-2,1,-10,7,15,36,13,3
14:00:49:432717,-10,-5,-1,-6,-5,16,28,-5
14:00:49:446217,7,-13,4,-5,-8,6,2,4
14:00:49:454383,7,-13,4,-5,-8,6,2,4
14:00:49:455180,-9,-2,24,13,-1,-10,-11,-5
14:00:49:469360,21,17,-24,6,5,-12,-16,-3
14:00:49:470127,21,17,-24,6,5,-12,-16,-3
14:00:49:476275,-9,0,-16,0,1,-8,-4,1
14:00:49:483690,-8,-5,-12,-3,-10,-14,-18,2
14:00:49:491250,-8,-5,-12,-3,-10,-14,-18,2
14:00:49:498686,1,-5,5,15,27,11,2,1
14:00:49:506171,-9,-25,11,-3,-5,15,13,-1
14:00:49:514421,-9,-25,11,-3,-5,15,13,-1
14:00:49:515213,-8,22,10,6,-6,-21,-17,-4
14:00:49:529401,0,-1,-27,-3,14,-12,4,1
14:00:49:530167,0,-1,-27,-3,14,-12,4,1
14:00:49:536146,15,23,20,15,5,15,6,4
14:00:49:543769,-11,-12,-8,32,-11,-12,-5,-3
14:00:49:551217,-11,-12,-8,32,-11,-12,-5,-3
14:00:49:558766,7,-21,-13,-5,-3,-2,12,6
14:00:49:566166,0,15,-13,-4,1,7,7,0
14:00:49:574510,0,15,-13,-4,1,7,7,0
14:00:49:575226,-8,-14,-11,-6,-4,-1,-1,-8
14:00:49:589455,-4,-45,11,-9,-4,4,7,-2
14:00:49:590164,-4,-45,11,-9,-4,4,7,-2
14:00:49:596175,-6,-3,21,-4,-23,-3,-6,-4
14:00:49:603685,6,10,22,-12,-11,6,3,0
14:00:49:611317,6,10,22,-12,-11,6,3,0
14:00:49:618703,-2,-5,-10,4,3,-6,-6,0
14:00:49:626242,10,14,6,7,0,-5,14,1
14:00:49:634404,10,14,6,7,0,-5,14,1
14:00:49:635184,-12,11,-5,1,13,10,10,-4
14:00:49:649405,-37,-27,-8,-2,9,-10,-6,-12
14:00:49:650180,-37,-27,-8,-2,9,-10,-6,-12
14:00:49:656256,19,-33,-17,3,-10,-27,2,2
14:00:49:672038,-1,20,-2,-9,-1,16,11,4
14:00:49:672685,-1,20,-2,-9,-1,16,11,4
14:00:49:678682,-1,1,-20,-25,-5,9,0,3
14:00:49:686159,-3,-6,-21,-4,-1,-9,-25,-6
14:00:49:694427,-3,-6,-21,-4,-1,-9,-25,-6
14:00:49:695193,-10,-14,-4,0,22,1,0,0
14:00:49:709460,4,17,-11,-4,-4,2,-1,2
14:00:49:710202,4,17,-11,-4,-4,2,-1,2
14:00:49:716185,-10,0,-6,-10,-20,-6,-5,-4
14:00:49:723699,21,14,5,0,20,-3,20,5
14:00:49:731272,21,14,5,0,20,-3,20,5
14:00:49:738896,0,-7,-33,-4,10,9,-14,0
14:00:49:746225,-1,-7,1,5,-4,-1,-13,3
14:00:49:754422,-1,-7,1,5,-4,-1,-13,3
14:00:49:755238,-12,-4,-2,2,13,6,5,-9
14:00:49:769388,-14,14,24,-27,-21,-18,-12,-6
14:00:49:770160,-14,14,24,-27,-21,-18,-12,-6
14:00:49:776294,-2,7,28,24,-1,-7,1,-3
14:00:49:783704,6,11,-5,2,-1,8,30,-1
14:00:49:791279,6,11,-5,2,-1,8,30,-1
14:00:49:798731,14,13,5,9,2,30,33,9
14:00:49:806235,21,-5,1,48,31,10,-2,4
14:00:49:814387,21,-5,1,48,31,10,-2,4
14:00:49:815171,-15,8,55,26,6,-11,-13,-3
14:00:49:829366,-19,-12,-4,-22,-24,6,0,-4
14:00:49:830165,-19,-12,-4,-22,-24,6,0,-4
14:00:49:836184,5,-5,-25,-27,0,-8,-1,6
14:00:49:843804,-6,-13,9,19,-7,3,21,4
14:00:49:851166,-6,-13,9,19,-7,3,21,4
14:00:49:858807,2,15,11,9,0,1,-2,0
14:00:49:866203,3,0,18,-9,-2,2,-15,-7
14:00:49:874384,3,0,18,-9,-2,2,-15,-7
14:00:49:875192,4,8,-1,-6,-15,-18,-23,-5
14:00:49:889421,-22,-18,-4,3,-1,-3,-9,-9
14:00:49:890206,-22,-18,-4,3,-1,-3,-9,-9
14:00:49:896184,-9,-35,-12,-11,-5,-21,-21,-4
14:00:49:903762,1,26,-20,-8,-9,-12,-11,-4
14:00:49:911322,1,26,-20,-8,-9,-12,-11,-4
14:00:49:918632,2,-9,16,-17,17,21,19,-4
14:00:49:926274,18,-8,7,-8,3,-10,-3,3
14:00:49:934363,18,-8,7,-8,3,-10,-3,3
14:00:49:935154,-16,-3,-12,-7,-23,1,2,3
14:00:49:949393,2,4,-20,12,1,-18,-14,1
14:00:49:950195,2,4,-20,12,1,-18,-14,1
14:00:49:956197,9,16,-2,17,8,47,14,-2
14:00:49:963686,4,-14,-8,-17,-12,1,-2,7
14:00:49:971250,4,-14,-8,-17,-12,1,-2,7
14:00:49:978691,-12,13,1,19,4,5,6,3
14:00:49:986138,-8,-7,-5,-3,-1,-12,-14,-2
14:00:49:994482,-8,-7,-5,-3,-1,-12,-14,-2
14:00:49:995160,11,11,2,-15,-20,-15,-13,0
14:00:50:9455,6,0,-10,15,29,1,-22,-7
14:00:50:10215,6,0,-10,15,29,1,-22,-7
14:00:50:16185,-17,-37,-24,-14,-4,-10,-1,-3
14:00:50:23669,-14,-3,-7,-11,-8,-23,-15,0
14:00:50:31275,-14,-3,-7,-11,-8,-23,-15,0
14:00:50:38801,7,7,0,1,6,6,6,6
14:00:50:46203,-20,-11,11,26,7,11,28,-4
14:00:50:54382,-20,-11,11,26,7,11,28,-4
14:00:50:55139,7,-4,-1,-7,-13,0,-8,-5
14:00:50:69400,6,20,0,-53,-9,-1,5,0
14:00:50:70171,6,20,0,-53,-9,-1,5,0
14:00:50:76222,9,19,27,-3,-10,-14,4,-1
14:00:50:83707,-9,-1,-2,-39,-9,10,1,-2
14:00:50:99425,-9,-1,-2,-39,-9,10,1,-2
14:00:50:100174,2,-12,6,-1,-6,-5,-6,-3
14:00:50:106223,-9,1,20,-1,-6,8,10,-2
14:00:50:114421,-9,1,20,-1,-6,8,10,-2
14:00:50:115214,-8,3,-8,-10,11,0,-9,1
14:00:50:129444,36,0,-7,-3,-15,-12,-21,10
14:00:50:130268,36,0,-7,-3,-15,-12,-21,10
14:00:50:136192,18,38,-7,-4,-2,-8,-6,9
14:00:50:143746,-12,-5,-5,-6,6,22,-2,-7
14:00:50:151206,-12,-5,-5,-6,6,22,-2,-7
14:00:50:158815,5,-2,1,5,-9,15,17,2
14:00:50:166173,-31,-16,8,10,4,-11,4,-10
14:00:50:174348,-31,-16,8,10,4,-11,4,-10
14:00:50:175148,-6,0,1,-12,1,-13,-11,-7
14:00:50:189481,-3,4,13,8,-1,-5,-5,6
14:00:50:190255,-3,4,13,8,-1,-5,-5,6
14:00:50:196219,-16,-3,-21,48,33,33,7,4
14:00:50:203788,0,-6,-10,3,11,24,14,6
14:00:50:211318,0,-6,-10,3,11,24,14,6
14:00:50:218724,14,-5,14,14,-16,16,8,-8
14:00:50:226312,0,39,9,14,-10,-5,-4,-5
14:00:50:234346,0,39,9,14,-10,-5,-4,-5
14:00:50:235148,12,-17,-33,0,-9,-25,-11,4
14:00:50:249358,20,0,-26,-34,-21,-28,-16,3
14:00:50:250155,20,0,-26,-34,-21,-28,-16,3
14:00:50:256239,9,14,25,-10,23,-17,-30,-1
14:00:50:263719,-17,46,15,-3,13,46,38,-5
14:00:50:271211,-17,46,15,-3,13,46,38,-5
14:00:50:278694,-2,-55,-41,-17,-8,-27,-11,-10
14:00:50:286122,-2,-7,30,-16,-10,-15,-3,-4
14:00:50:294446,-2,-7,30,-16,-10,-15,-3,-4
14:00:50:295155,1,5,27,4,-1,5,8,7
14:00:50:309433,-11,-31,-18,19,2,-2,-3,-6
14:00:50:310199,-11,-31,-18,19,2,-2,-3,-6
14:00:50:316152,9,4,-43,-52,-11,6,8,-8
14:00:50:323658,7,2,-19,17,10,-12,-3,0
14:00:50:331247,7,2,-19,17,10,-12,-3,0
14:00:50:338775,-6,5,10,-3,-14,65,36,7
14:00:50:346169,-6,-39,-19,20,23,11,5,-2
14:00:50:354433,-6,-39,-19,20,23,11,5,-2
14:00:50:355201,-5,-9,-12,-15,-6,-26,-6,-4
14:00:50:369389,4,-17,2,6,3,-10,-10,3
14:00:50:370153,4,-17,2,6,3,-10,-10,3
14:00:50:376236,-2,1,2,18,-12,-9,4,0
14:00:50:391938,13,11,-7,17,10,-26,-28,-8
14:00:50:392698,13,11,-7,17,10,-26,-28,-8
14:00:50:398659,7,32,22,-2,9,9,38,11
14:00:50:406243,7,9,4,6,-1,33,31,1
14:00:50:413776,7,9,4,6,-1,33,31,1
14:00:50:421196,-10,-11,-8,40,1,-19,-27,-3
14:00:50:429395,2,-1,9,15,20,-11,-25,4
14:00:50:430204,2,-1,9,15,20,-11,-25,4
14:00:50:436222,11,16,16,-22,-20,-14,-8,-3
14:00:50:451834,-13,16,-6,-2,-8,-1,5,-1
14:00:50:452686,-13,16,-6,-2,-8,-1,5,-1
14:00:50:458702,2,-14,-5,7,23,5,-9,1
14:00:50:466180,-19,-5,3,3,-20,-34,-11,-11
14:00:50:473753,-19,-5,3,3,-20,-34,-11,-11
14:00:50:481184,-18,-26,-20,-24,-14,3,18,-6
14:00:50:489478,-3,11,-8,-16,5,24,17,1
14:00:50:490135,-3,11,-8,-16,5,24,17,1
14:00:50:496231,5,16,32,23,2,-11,-15,-4
14:00:50:511903,30,-9,-3,-33,-39,5,12,8
14:00:50:512703,30,-9,-3,-33,-39,5,12,8
14:00:50:518701,-16,-13,-11,-8,20,-6,-2,-6
14:00:50:526261,25,8,28,9,5,-11,-14,1
14:00:50:533719,25,8,28,9,5,-11,-14,1
14:00:50:541208,-6,3,14,-14,-13,19,-28,-3
14:00:50:549341,0,-13,-3,-21,-18,30,41,10
14:00:50:550169,0,-13,-3,-21,-18,30,41,10
14:00:50:556284,-12,1,-7,-3,9,-10,19,0
14:00:50:572017,-10,-20,-7,28,3,-17,-37,-13
14:00:50:572724,-10,-20,-7,28,3,-17,-37,-13
14:00:50:578785,-13,-6,-9,43,6,-7,-7,-2
14:00:50:586194,1,-3,-12,-27,4,-3,-7,10
14:00:50:593851,1,-3,-12,-27,4,-3,-7,10
14:00:50:601204,-11,-40,3,-6,-7,-48,-14,-8
14:00:50:609474,2,17,-6,5,5,72,85,-6
14:00:50:610204,2,17,-6,5,5,72,85,-6
14:00:50:616145,0,3,9,-16,-10,7,13,0
14:00:50:631878,2,10,7,5,-13,-37,-36,2
14:00:50:632717,2,10,7,5,-13,-37,-36,2
14:00:50:638788,10,-1,-41,20,8,-2,-2,-6
14:00:50:646245,-11,-13,-19,-18,1,-13,-21,-4
14:00:50:653777,-11,-13,-19,-18,1,-13,-21,-4
14:00:50:661272,1,18,48,48,11,3,-11,3
14:00:50:669367,-3,28,6,7,7,-3,-20,-15
14:00:50:670190,-3,28,6,7,7,-3,-20,-15
14:00:50:676299,31,91,13,-25,-5,45,41,10
14:00:50:691917,-39,11,11,21,-1,-26,-16,-5
14:00:50:692729,-39,11,11,21,-1,-26,-16,-5
14:00:50:698665,-9,-22,-66,-11,1,-9,-25,-5
14:00:50:706186,0,-3,30,-15,-14,3,5,0
14:00:50:713790,0,-3,30,-15,-14,3,5,0
14:00:50:721193,12,-47,-12,-22,-7,2,3,4
14:00:50:729412,-8,1,9,1,1,-32,-20,3
14:00:50:730209,-8,1,9,1,1,-32,-20,3
14:00:50:736181,-2,-29,-19,-6,-7,3,-4,-2
14:00:50:751833,3,-34,-5,-15,-1,6,-1,1
14:00:50:752696,3,-34,-5,-15,-1,6,-1,1
14:00:50:758749,-11,1,6,0,19,-3,-21,6
14:00:50:766147,4,23,-3,33,12,-4,-5,1
14:00:50:773725,4,23,-3,33,12,-4,-5,1
14:00:50:781209,-7,-4,-9,-7,-7,-5,9,1
14:00:50:789434,21,-14,2,3,2,5,-3,2
14:00:50:790162,21,-14,2,3,2,5,-3,2
14:00:50:796193,4,34,22,-15,-10,-2,8,0
14:00:50:811907,0,-13,-13,-22,-7,-6,-6,-5
14:00:50:812706,0,-13,-13,-22,-7,-6,-6,-5
14:00:50:818726,-10,17,5,7,6,-10,5,-4
14:00:50:826270,-24,-5,12,5,6,23,9,-2
14:00:50:833715,-24,-5,12,5,6,23,9,-2
14:00:50:841275,14,-3,-8,18,1,2,-5,9
14:00:50:849361,-15,-3,16,18,21,6,5,1
14:00:50:850189,-15,-3,16,18,21,6,5,1
14:00:50:856179,-9,-13,9,-10,-14,6,8,-11
14:00:50:872338,25,-13,-4,-2,-1,-6,-3,4
14:00:50:879421,25,-13,-4,-2,-1,-6,-3,4
14:00:50:880167,-17,-47,-5,11,-5,1,10,-13
14:00:50:886189,10,-3,-54,-24,-10,-6,2,5
14:00:50:893818,10,-3,-54,-24,-10,-6,2,5
14:00:50:901134,0,2,17,15,7,-9,-10,1
14:00:50:909456,-16,-8,-4,14,-6,-16,-1,-12
14:00:50:910178,-16,-8,-4,14,-6,-16,-1,-12
14:00:50:916167,-3,6,-6,-10,-2,25,15,4
14:00:50:931882,12,35,28,2,2,4,-6,1
14:00:50:932734,12,35,28,2,2,4,-6,1
14:00:50:938725,-5,6,-22,-26,-11,-9,-10,0
14:00:50:946168,-26,-22,-10,30,1,2,-2,-5
14:00:50:953763,-26,-22,-10,30,1,2,-2,-5
14:00:50:961233,25,33,2,8,21,-3,1,6
14:00:50:969360,-2,-28,-22,-33,-15,9,3,-4
14:00:50:970186,-2,-28,-22,-33,-15,9,3,-4
14:00:50:976253,-1,60,7,9,-7,-2,-1,-6
14:00:50:991945,-7,17,18,-6,8,-7,10,5
14:00:50:992700,-7,17,18,-6,8,-7,10,5
14:00:50:998644,13,-16,18,-23,-12,-2,-4,-7
14:00:51:6225,16,9,-23,5,5,11,10,6
14:00:51:13729,16,9,-23,5,5,11,10,6
14:00:51:21182,8,-21,-22,3,-21,-32,-17,-1
14:00:51:29405,-2,3,-6,17,25,5,-1,-3
14:00:51:30220,-2,3,-6,17,25,5,-1,-3
14:00:51:36191,-20,-32,16,-25,-8,-12,-16,-6
14:00:51:51899,0,-17,-19,-20,-2,-1,-2,0
14:00:51:52698,0,-17,-19,-20,-2,-1,-2,0
14:00:51:58716,0,-8,-11,-13,0,0,0,-1
14:00:51:66153,-3,-8,11,-4,-13,-34,-27,-4
14:00:51:73782,-3,-8,11,-4,-13,-34,-27,-4
14:00:51:81215,4,4,14,8,0,25,25,7
14:00:51:89454,-13,-32,4,-5,-9,7,10,-5
14:00:51:90152,-13,-32,4,-5,-9,7,10,-5
14:00:51:96223,5,-6,1,1,8,1,-14,-1
14:00:51:111858,6,18,-23,-25,-23,-22,-17,8
14:00:51:112733,6,18,-23,-25,-23,-22,-17,8
14:00:51:118736,5,-2,-27,-10,4,-3,1,6
14:00:51:134401,3,17,5,-18,-8,8,-6,2
14:00:51:135189,3,17,5,-18,-8,8,-6,2
14:00:51:141176,-9,16,-10,15,-5,-9,-4,-7
14:00:51:149355,-13,10,28,12,11,12,17,4
14:00:51:150159,-13,10,28,12,11,12,17,4
14:00:51:156272,5,-18,12,-1,1,-2,-14,-1
14:00:51:172343,14,-14,-13,12,9,11,0,-2
14:00:51:179428,14,-14,-13,12,9,11,0,-2
14:00:51:180219,-12,8,-12,12,1,-17,3,0
14:00:51:186195,13,-5,9,-33,-20,-2,-1,-8
14:00:51:193866,13,-5,9,-33,-20,-2,-1,-8
14:00:51:201200,-12,9,-19,-11,3,1,-4,-9
14:00:51:209465,17,-15,1,-17,1,-6,-15,4
14:00:51:210190,17,-15,1,-17,1,-6,-15,4
14:00:51:216190,-4,-16,7,-18,-23,4,15,-1
14:00:51:231872,-1,13,4,16,15,9,-15,-1
14:00:51:232768,-1,13,4,16,15,9,-15,-1
14:00:51:238780,-18,-3,2,17,8,-7,-13,-11
14:00:51:254411,-18,-3,2,17,8,-7,-13,-11
14:00:51:255250,2,-8,-8,16,3,23,11,3
14:00:51:261268,-2,0,22,-24,-17,2,-9,-8
14:00:51:269383,-2,0,22,-24,-17,2,-9,-8
14:00:51:270128,-37,12,10,9,5,-8,-2,-12
14:00:51:276292,-3,-9,-16,7,2,-1,6,8
14:00:51:291975,-3,-9,-16,7,2,-1,6,8
14:00:51:292690,-1,0,14,3,-6,20,31,-1
14:00:51:298731,4,3,22,22,28,7,-11,-1
14:00:51:314404,4,3,22,22,28,7,-11,-1
14:00:51:315208,1,-13,-12,-5,-8,-3,9,-8
14:00:51:321158,-4,4,0,-27,-16,-20,-28,-5
14:00:51:329436,-4,4,0,-27,-16,-20,-28,-5
14:00:51:330217,-4,-5,1,2,-2,-25,-12,0
14:00:51:343709,3,-6,0,0,8,-13,16,1
14:00:51:351870,3,-6,0,0,8,-13,16,1
14:00:51:352704,4,-16,0,21,-4,-7,0,3
14:00:51:358713,-18,9,-9,18,10,2,-13,0
14:00:51:374431,-18,9,-9,18,10,2,-13,0
14:00:51:375176,0,0,-16,19,-4,-7,-1,-7
14:00:51:381182,-21,-47,0,-3,-1,3,-11,-7
14:00:51:389447,-21,-47,0,-3,-1,3,-11,-7
14:00:51:390237,25,18,-16,-11,-1,-12,-10,1
14:00:51:403633,-6,-6,-14,-12,-17,29,23,-5
14:00:51:411941,-6,-6,-14,-12,-17,29,23,-5
14:00:51:412748,-16,3,-9,3,9,-4,-15,-5
14:00:51:418671,10,14,14,-3,-6,5,29,3
14:00:51:434380,10,14,14,-3,-6,5,29,3
14:00:51:435136,-7,6,6,-12,-13,-7,17,-13
14:00:51:441170,-5,-7,-2,5,-16,-21,-5,-4
14:00:51:449401,-5,-7,-2,5,-16,-21,-5,-4
14:00:51:450182,-20,-18,25,29,20,-8,1,-4
14:00:51:463659,-16,43,-3,-7,2,0,-20,-6
14:00:51:471969,-16,43,-3,-7,2,0,-20,-6
14:00:51:472710,12,-5,-16,-15,9,12,5,11
14:00:51:478666,22,13,4,26,4,-17,-35,7
14:00:51:494443,22,13,4,26,4,-17,-35,7
14:00:51:495157,-21,12,-14,-19,-13,12,7,1
14:00:51:501154,10,-6,3,-8,-5,10,41,7
14:00:51:509458,10,-6,3,-8,-5,10,41,7
14:00:51:510168,4,-10,-3,-14,-4,-4,-4,2
14:00:51:523669,-1,-23,12,15,10,-7,17,2
14:00:51:531926,-1,-23,12,15,10,-7,17,2
14:00:51:532777,-28,-13,-18,-6,8,20,11,0
14:00:51:538744,-13,-6,-24,-14,1,-10,-3,-11
14:00:51:554413,-13,-6,-24,-14,1,-10,-3,-11
14:00:51:555182,17,22,-8,0,-14,-30,-29,-3
14:00:51:561216,-8,-12,-20,-20,2,22,6,1
14:00:51:569339,-8,-12,-20,-20,2,22,6,1
14:00:51:570133,23,16,0,-6,6,13,29,3
14:00:51:583705,23,23,14,8,5,-13,-15,3
14:00:51:591920,23,23,14,8,5,-13,-15,3
14:00:51:592713,15,8,24,-1,3,-1,-4,7
14:00:51:598694,-5,-8,20,8,15,22,7,0
14:00:51:614363,-5,-8,20,8,15,22,7,0
14:00:51:615141,-3,-19,-2,7,-6,-4,-6,0
14:00:51:621176,1,13,-13,7,-4,-1,-2,-5
14:00:51:636873,1,13,-13,7,-4,-1,-2,-5
14:00:51:637736,-3,5,-35,-29,-5,5,14,-1
14:00:51:643791,-15,-8,1,1,3,14,7,-2
14:00:51:651838,-15,-8,1,1,3,14,7,-2
14:00:51:652715,-8,1,19,-14,-8,-13,-15,-3
14:00:51:658744,5,-6,19,-12,-11,-20,-11,7
14:00:51:674390,5,-6,19,-12,-11,-20,-11,7
14:00:51:675127,22,31,0,31,-7,-3,3,1
14:00:51:681197,9,1,0,9,-1,-10,-3,-2
14:00:51:689426,9,1,0,9,-1,-10,-3,-2
14:00:51:690154,9,-20,17,26,6,-32,-41,-2
14:00:51:712580,9,-10,24,-13,-6,0,-21,-1
14:00:51:713383,9,-10,24,-13,-6,0,-21,-1
14:00:51:714204,-5,-29,18,23,24,24,-7,-3
14:00:51:718671,24,-5,-3,-40,-16,-8,-12,0
14:00:51:734878,24,-5,-3,-40,-16,-8,-12,0
14:00:51:735710,-28,-26,15,-26,2,-11,-10,-9
14:00:51:741242,-18,-2,-6,19,11,10,11,-6
14:00:51:749442,-18,-2,-6,19,11,10,11,-6
14:00:51:750207,5,16,10,-24,-14,6,14,3
14:00:51:763688,-12,-1,1,-12,3,13,16,3
14:00:51:772010,-12,-1,1,-12,3,13,16,3
14:00:51:772701,10,1,-31,-7,-13,49,36,-3
14:00:51:778696,-3,-6,-24,0,-15,22,17,3
14:00:51:794434,-3,-6,-24,0,-15,22,17,3
14:00:51:795159,11,12,-24,9,14,-8,-5,-4
14:00:51:801172,9,-11,3,36,8,-18,-12,3
14:00:51:809475,9,-11,3,36,8,-18,-12,3
14:00:51:810179,-21,-12,-11,-8,-6,-2,-8,-7
14:00:51:823743,-3,9,0,-13,-5,-12,-12,-15
14:00:51:831928,-3,9,0,-13,-5,-12,-12,-15
14:00:51:832734,0,2,4,-3,-8,-30,-17,3
14:00:51:838749,-3,-7,-11,-2,5,53,41,10
14:00:51:854396,-3,-7,-11,-2,5,53,41,10
14:00:51:855185,-4,6,3,4,-3,2,-2,-3
14:00:51:861213,-8,40,28,19,-8,-30,-16,-4
14:00:51:869573,-8,40,28,19,-8,-30,-16,-4
14:00:51:870171,3,-10,5,-8,13,-6,9,12
14:00:51:883627,0,-1,10,-18,-2,-4,-24,-6
14:00:51:891945,0,-1,10,-18,-2,-4,-24,-6
14:00:51:892722,-7,32,8,-19,-22,-9,4,-5
14:00:51:898637,-1,25,-3,1,1,13,-2,-3
14:00:51:914401,-1,25,-3,1,1,13,-2,-3
14:00:51:915132,11,-20,-18,0,4,26,15,-1
14:00:51:921138,-9,-1,-18,-13,-6,-39,-17,-7
14:00:51:936857,-9,-1,-18,-13,-6,-39,-17,-7
14:00:51:937608,-4,-15,-4,10,5,-4,-8,-4
14:00:51:943862,-9,-25,-11,47,8,-2,2,1
14:00:51:951841,-9,-25,-11,47,8,-2,2,1
14:00:51:952745,-23,-82,-33,-7,25,4,1,-6
14:00:51:958726,21,9,-8,-6,6,-5,-6,5
14:00:51:974397,21,9,-8,-6,6,-5,-6,5
14:00:51:975178,-23,-14,-7,-1,-16,-8,-8,-7
14:00:51:981195,-12,5,-2,-7,11,13,9,2
14:00:51:989490,-12,5,-2,-7,11,13,9,2
14:00:51:990133,-3,21,19,14,6,-1,16,-1
14:00:52:3767,18,-10,-18,-27,-25,-7,-9,9
14:00:52:11919,18,-10,-18,-27,-25,-7,-9,9
14:00:52:12725,-6,8,30,-23,-2,-1,-9,7
14:00:52:18734,-19,-26,-25,12,6,-15,-15,-12
14:00:52:34345,-19,-26,-25,12,6,-15,-15,-12
14:00:52:35132,-4,42,-6,0,-9,-6,-11,-6
14:00:52:41242,14,3,21,8,11,12,8,3
14:00:52:49394,14,3,21,8,11,12,8,3
14:00:52:50193,8,40,12,0,4,-14,-14,-1
14:00:52:63695,-3,25,-10,-7,-7,1,-6,-2
14:00:52:72003,-3,25,-10,-7,-7,1,-6,-2
14:00:52:72669,50,6,12,-1,0,72,42,20
14:00:52:78788,2,-29,-16,-11,-15,-18,2,3
14:00:52:94508,2,-29,-16,-11,-15,-18,2,3
14:00:52:95222,-7,25,-1,-11,-9,-24,-25,-16
14:00:52:101136,-11,6,-8,-1,0,2,-6,-10
14:00:52:109501,-11,6,-8,-1,0,2,-6,-10
14:00:52:110186,-10,-3,11,-9,8,0,8,4
14:00:52:123709,2,4,27,3,-8,-25,-6,-2
14:00:52:131933,2,4,27,3,-8,-25,-6,-2
14:00:52:132750,-11,-42,-29,-7,-15,-36,-26,-12
14:00:52:138796,-7,-33,-25,-11,-6,17,23,0
14:00:52:154401,-7,-33,-25,-11,-6,17,23,0
14:00:52:155228,-1,-8,-4,4,-3,-13,-11,4
14:00:52:161243,-5,-9,12,13,3,-4,-6,-4
14:00:52:176956,-5,-9,12,13,3,-4,-6,-4
14:00:52:177793,-7,4,-2,26,6,-9,-21,-1
14:00:52:183653,25,-24,-1,-4,32,34,2,8
14:00:52:192028,25,-24,-1,-4,32,34,2,8
14:00:52:192788,-2,-16,-19,0,-16,0,0,-5
14:00:52:198676,3,15,38,-11,-18,-11,3,1
14:00:52:214883,3,15,38,-11,-18,-11,3,1
14:00:52:215687,10,-5,-11,10,1,9,-3,3
14:00:52:221141,-10,-2,-3,7,-6,-7,-7,0
14:00:52:229495,-10,-2,-3,7,-6,-7,-7,0
14:00:52:230200,-7,2,-18,-24,-7,1,6,-4
14:00:52:244209,-2,27,-11,-3,11,26,39,-1
14:00:52:251868,-2,27,-11,-3,11,26,39,-1
14:00:52:252728,0,9,27,8,-6,-15,6,10
14:00:52:258719,2,13,-10,-20,-8,-1,-13,-1
14:00:52:274406,2,13,-10,-20,-8,-1,-13,-1
14:00:52:275195,7,-3,13,6,2,-9,-5,-3
14:00:52:281163,2,35,8,49,4,-5,1,12
14:00:52:288848,2,35,8,49,4,-5,1,12
14:00:52:296207,-16,-9,9,10,4,3,5,-2
14:00:52:303665,-9,-10,12,-30,-17,-6,-2,-3
14:00:52:311938,-9,-10,12,-30,-17,-6,-2,-3
14:00:52:312727,19,18,12,5,9,26,17,1
14:00:52:326209,20,-7,2,-1,-7,-23,-22,-2
14:00:52:334374,20,-7,2,-1,-7,-23,-22,-2
14:00:52:335173,-24,-24,-26,-14,7,32,11,-2
14:00:52:341179,-2,23,-9,18,3,-1,-13,-7
14:00:52:348765,-2,23,-9,18,3,-1,-13,-7
14:00:52:364358,11,-3,5,14,8,-21,-21,2
14:00:52:365112,9,-19,-13,-37,-6,1,7,3
14:00:52:371960,9,-19,-13,-37,-6,1,7,3
14:00:52:372782,-18,47,11,-6,-18,-8,-3,-3
14:00:52:386175,-28,-65,9,8,17,10,1,-10
14:00:52:394475,-28,-65,9,8,17,10,1,-10
14:00:52:395190,19,-12,-5,-14,-11,7,-8,0
14:00:52:401136,-16,-16,-35,4,-3,-4,0,-7
14:00:52:408812,-16,-16,-35,4,-3,-4,0,-7
14:00:52:416195,-17,-1,20,-10,-9,-20,-12,-10
14:00:52:423707,13,-28,-16,-36,-1,3,-3,-3
14:00:52:431883,13,-28,-16,-36,-1,3,-3,-3
14:00:52:432711,-3,11,9,-4,-4,-21,-9,-7
14:00:52:455170,-1,19,-6,18,3,-11,1,-4
14:00:52:455835,-1,19,-6,18,3,-11,1,-4
14:00:52:456635,7,3,-7,7,7,5,7,8
14:00:52:461202,-3,12,1,9,-1,-19,-10,2
14:00:52:468741,-3,12,1,9,-1,-19,-10,2
14:00:52:476217,5,-13,2,-8,-4,9,31,1
14:00:52:492661,1,2,-9,-11,-6,-11,-16,-3
14:00:52:493342,1,2,-9,-11,-6,-11,-16,-3
14:00:52:494135,-1,-10,0,12,1,-9,-19,-6
14:00:52:506228,19,19,19,-20,-8,9,3,7
14:00:52:514386,19,19,19,-20,-8,9,3,7
14:00:52:515155,16,-3,-10,2,11,5,6,4
14:00:52:521215,-20,7,26,19,14,8,9,-6
14:00:52:528767,-20,7,26,19,14,8,9,-6
14:00:52:536158,-13,0,-4,12,-1,-28,-19,-6
14:00:52:543728,16,-38,-11,-2,-18,-2,-17,2
14:00:52:551855,16,-38,-11,-2,-18,-2,-17,2
14:00:52:552707,-16,-8,-17,20,-3,13,17,-2
14:00:52:566145,-12,-8,2,9,7,-22,-23,-4
14:00:52:574363,-12,-8,2,9,7,-22,-23,-4
14:00:52:575135,-14,17,15,-10,-5,-3,-3,1
14:00:52:581150,-5,35,6,4,6,88,40,7
14:00:52:588843,-5,35,6,4,6,88,40,7
14:00:52:604292,10,-17,-2,6,-7,1,-3,-5
14:00:52:605096,-10,-20,-13,-27,-13,-32,-4,-7
14:00:52:611894,-10,-20,-13,-27,-13,-32,-4,-7
14:00:52:612720,3,-6,-12,-7,-6,-3,-7,-1
14:00:52:626287,14,-13,-17,9,13,-3,3,-1
14:00:52:634387,14,-13,-17,9,13,-3,3,-1
14:00:52:635166,10,-22,-21,4,16,-16,-16,4
14:00:52:641201,-11,14,19,1,-2,0,1,-3
14:00:52:648776,-11,14,19,1,-2,0,1,-3
14:00:52:656256,9,-24,-8,-13,5,4,4,2
14:00:52:663703,-27,-23,9,24,-3,-14,-16,-6
14:00:52:672081,-27,-23,9,24,-3,-14,-16,-6
14:00:52:672757,-3,-23,6,-36,-22,19,-4,-3
14:00:52:686148,-1,24,11,-12,-13,-22,-4,-2
14:00:52:694495,-1,24,11,-12,-13,-22,-4,-2
14:00:52:695192,-6,-13,-1,-6,-1,1,3,1
14:00:52:701113,15,21,11,4,-3,-12,3,9
14:00:52:708879,15,21,11,4,-3,-12,3,9
14:00:52:716215,19,40,3,-10,3,-3,9,7
14:00:52:723727,2,-16,0,0,-8,-14,5,1
14:00:52:731938,2,-16,0,0,-8,-14,5,1
14:00:52:732727,-18,-7,-42,11,10,16,13,-3
14:00:52:746192,15,2,-6,-23,0,2,-2,2
14:00:52:754410,15,2,-6,-23,0,2,-2,2
14:00:52:755219,-8,0,3,3,2,0,2,-3
14:00:52:761267,2,-12,-28,3,-3,9,-13,-4
14:00:52:768744,2,-12,-28,3,-3,9,-13,-4
14:00:52:776282,-4,37,12,6,0,-17,-20,-1
14:00:52:783626,-11,26,16,0,11,37,33,4
14:00:52:791923,-11,26,16,0,11,37,33,4
14:00:52:792679,6,42,28,10,-24,-7,1,1
14:00:52:806235,-4,-4,9,-10,-7,-12,-6,-5
14:00:52:814402,-4,-4,9,-10,-7,-12,-6,-5
14:00:52:815182,-3,-14,-13,-19,-2,1,-1,-5
14:00:52:821194,-11,-8,-11,18,4,-6,0,-7
14:00:52:828773,-11,-8,-11,18,4,-6,0,-7
14:00:52:844447,4,-17,-5,4,2,-14,-5,0
14:00:52:845144,-18,-20,-26,-9,-3,2,2,-7
14:00:52:851844,-18,-20,-26,-9,-3,2,2,-7
14:00:52:852624,-8,-22,-4,-2,8,8,-15,2
14:00:52:866184,18,56,14,12,6,-4,-2,3
14:00:52:874438,18,56,14,12,6,-4,-2,3
14:00:52:875220,-5,15,19,-6,4,0,-1,-1
14:00:52:881188,-7,-9,-13,-13,-4,4,13,5
14:00:52:888878,-7,-9,-13,-13,-4,4,13,5
14:00:52:896219,15,-14,-4,18,6,-22,1,-2
14:00:52:903697,-27,-38,-1,4,5,-2,-3,-8
14:00:52:911902,-27,-38,-1,4,5,-2,-3,-8
14:00:52:912665,10,-4,5,-4,-10,29,23,1
14:00:52:926236,23,23,15,6,-8,-1,-8,7
14:00:52:934343,23,23,15,6,-8,-1,-8,7
14:00:52:935126,0,2,7,11,3,-14,-8,2
14:00:52:941214,-4,2,14,-12,2,7,0,-2
14:00:52:948741,-4,2,14,-12,2,7,0,-2
14:00:52:956218,9,20,2,-11,-15,-7,-4,-2
14:00:52:963632,11,-30,-29,16,-2,-8,-6,-1
14:00:52:972022,11,-30,-29,16,-2,-8,-6,-1
14:00:52:972735,-25,10,-14,-10,5,-5,-3,-4
14:00:52:986193,11,10,-12,-13,-5,1,0,1
14:00:52:994437,11,10,-12,-13,-5,1,0,1
14:00:52:995145,-21,0,-2,-6,12,14,4,-1
14:00:53:1135,4,1,7,4,1,-14,4,2
14:00:53:8838,4,1,7,4,1,-14,4,2
14:00:53:16142,3,0,14,28,14,8,10,-6
14:00:53:23691,-7,-31,-2,5,-4,-24,-36,-1
14:00:53:31902,-7,-31,-2,5,-4,-24,-36,-1
14:00:53:32770,9,-21,-13,-19,-23,-18,-14,-5
14:00:53:46187,-17,-6,29,8,15,18,11,-4
14:00:53:54396,-17,-6,29,8,15,18,11,-4
14:00:53:55188,-1,-1,-18,-4,9,8,-4,0
14:00:53:61258,0,18,13,-19,-3,11,13,-6
14:00:53:68760,0,18,13,-19,-3,11,13,-6
14:00:53:76284,-5,-26,1,-1,-14,-2,-18,-8
14:00:53:83618,15,16,-15,-16,-11,-27,-24,3
14:00:53:92028,15,16,-15,-16,-11,-27,-24,3
14:00:53:92737,12,-9,3,-14,-11,21,16,2
14:00:53:106214,-20,-1,-10,6,8,15,-4,2
14:00:53:122891,-20,-1,-10,6,8,15,-4,2
14:00:53:123314,25,-5,-25,-15,-9,-31,-10,4
14:00:53:124112,0,12,1,21,29,3,5,-2
14:00:53:128780,0,12,1,21,29,3,5,-2
14:00:53:136151,-13,22,15,17,4,6,5,-3
14:00:53:143775,-4,-11,-29,-29,-15,-1,6,-5
14:00:53:151864,-4,-11,-29,-29,-15,-1,6,-5
14:00:53:152719,3,35,8,6,-4,15,20,7
14:00:53:166182,1,32,-20,-8,-1,-10,0,1
14:00:53:174407,1,32,-20,-8,-1,-10,0,1
14:00:53:175202,-1,-22,-21,11,-4,11,24,-4
14:00:53:181165,5,16,18,0,1,2,3,0
14:00:53:188803,5,16,18,0,1,2,3,0
14:00:53:196212,-8,-15,6,7,-10,-24,-11,-8
14:00:53:203704,0,-13,0,11,1,12,9,0
14:00:53:211323,0,-13,0,11,1,12,9,0
14:00:53:218645,-18,-14,-23,-20,15,-13,-19,-1
14:00:53:226243,-16,-35,-5,-7,-2,-23,-12,-8
14:00:53:234332,-16,-35,-5,-7,-2,-23,-12,-8
14:00:53:235109,4,12,-6,-13,-5,-24,-20,2
14:00:53:249329,-6,-13,-12,-14,-7,22,-4,0
14:00:53:250100,-6,-13,-12,-14,-7,22,-4,0
14:00:53:256247,2,43,7,4,8,18,-11,2
14:00:53:263676,-2,-16,-52,-7,-11,-20,-13,-3
14:00:53:271229,-2,-16,-52,-7,-11,-20,-13,-3
14:00:53:278716,-12,-15,-9,10,5,-22,-24,1
14:00:53:286210,-2,4,22,8,2,-14,-22,-4
14:00:53:294442,-2,4,22,8,2,-14,-22,-4
14:00:53:295176,-2,-37,-16,-7,-6,83,79,3
14:00:53:309430,-2,-20,34,27,11,2,-3,-5
14:00:53:310206,-2,-20,34,27,11,2,-3,-5
14:00:53:316211,-16,-19,-12,-25,4,-24,-22,-11
14:00:53:323789,0,7,22,6,-16,-1,11,-2
14:00:53:331243,0,7,22,6,-16,-1,11,-2
14:00:53:338764,1,0,6,51,22,9,12,3
14:00:53:346186,13,49,16,-16,-13,-4,3,6
14:00:53:354399,13,49,16,-16,-13,-4,3,6
14:00:53:355203,9,-19,4,-12,-15,-28,-6,-3
14:00:53:369366,6,0,4,7,2,7,-6,5
14:00:53:370160,6,0,4,7,2,7,-6,5
14:00:53:376238,-9,12,17,-32,-17,-16,31,-7
14:00:53:383630,22,13,9,-19,-6,-4,12,1
14:00:53:399397,22,13,9,-19,-6,-4,12,1
14:00:53:400115,1,-20,-42,-14,-3,-10,-26,2
14:00:53:406198,-6,-16,-4,2,4,8,8,1
14:00:53:414373,-6,-16,-4,2,4,8,8,1
14:00:53:415206,3,10,22,6,-1,-13,-22,-9
14:00:53:429375,-9,-30,-22,-16,-12,25,18,-3
14:00:53:430190,-9,-30,-22,-16,-12,25,18,-3
14:00:53:436139,-4,23,14,45,10,-14,-31,-2
14:00:53:443766,-10,24,20,-8,-1,-13,-4,1
14:00:53:451171,-10,24,20,-8,-1,-13,-4,1
14:00:53:458740,14,31,-6,-36,-22,-7,-21,1
14:00:53:466169,-2,-6,-11,4,18,4,-1,3
14:00:53:474403,-2,-6,-11,4,18,4,-1,3
14:00:53:475183,0,-12,17,7,2,-18,-23,-1
14:00:53:489419,3,-13,-24,-10,-9,-5,9,-4
14:00:53:490127,3,-13,-24,-10,-9,-5,9,-4
14:00:53:504380,5,3,16,10,1,15,17,1
14:00:53:505161,13,-9,-22,2,-4,-6,17,10
14:00:53:511288,13,-9,-22,2,-4,-6,17,10
14:00:53:518605,1,-36,-4,-6,2,-1,-14,0
14:00:53:526175,10,-7,-24,-12,-1,-3,-23,-3
14:00:53:534381,10,-7,-24,-12,-1,-3,-23,-3
14:00:53:535148,-5,7,-1,-13,11,14,11,1
14:00:53:549391,-13,19,16,11,-6,-26,-18,-14
14:00:53:550169,-13,19,16,11,-6,-26,-18,-14
14:00:53:556201,-2,2,2,13,-2,38,39,2
14:00:53:563698,-8,-25,3,3,3,14,0,-2
14:00:53:579416,-8,-25,3,3,3,14,0,-2
14:00:53:580161,-3,2,9,3,-10,-9,-6,-2
14:00:53:586188,7,3,2,1,8,-7,-1,1
14:00:53:594436,7,3,2,1,8,-7,-1,1
14:00:53:595180,-9,33,1,-3,0,-29,-35,0
14:00:53:609414,-15,-4,34,-9,-1,27,1,-2
14:00:53:610122,-15,-4,34,-9,-1,27,1,-2
14:00:53:616143,-11,-3,8,4,6,38,52,3
14:00:53:623707,11,-14,-21,1,4,-8,-14,-10
14:00:53:631262,11,-14,-21,1,4,-8,-14,-10
14:00:53:638735,-13,28,13,4,-2,-7,-5,-7
14:00:53:646162,10,-28,-15,-16,-11,-12,-26,1
14:00:53:654384,10,-28,-15,-16,-11,-12,-26,1
14:00:53:655214,7,-6,2,-2,-3,7,6,1
14:00:53:677615,-2,12,2,-5,-15,-25,-2,5
14:00:53:678367,-2,12,2,-5,-15,-25,-2,5
14:00:53:679154,-12,-9,3,3,10,31,11,-2
14:00:53:683652,8,10,-5,2,0,-21,1,3
14:00:53:691276,8,10,-5,2,0,-21,1,3
14:00:53:698648,-9,-10,-11,7,15,-10,-20,0
14:00:53:706266,2,-5,9,1,7,37,8,-1
14:00:53:714379,2,-5,9,1,7,37,8,-1
14:00:53:715188,-18,-74,-44,-27,-18,-13,-4,-7
14:00:53:729391,10,6,-18,16,2,-12,0,-2
14:00:53:730217,10,6,-18,16,2,-12,0,-2
14:00:53:736144,17,-9,-2,9,7,34,31,1
14:00:53:743714,3,16,20,1,2,10,-7,-2
14:00:53:759476,3,16,20,1,2,10,-7,-2
14:00:53:760209,29,8,-3,2,-5,-7,-3,6
14:00:53:766794,-7,22,-6,5,0,24,29,-1
14:00:53:767614,-7,22,-6,5,0,24,29,-1
14:00:53:773672,15,24,54,28,1,5,16,-3
14:00:53:789452,-3,-1,-14,19,10,21,-26,-2
14:00:53:790149,-3,-1,-14,19,10,21,-26,-2
14:00:53:796197,-29,-14,-7,-20,-1,-23,-23,-11
14:00:53:803705,-47,-41,-11,-7,-22,-20,-7,-15
14:00:53:811322,-47,-41,-11,-7,-22,-20,-7,-15
14:00:53:818634,-2,7,3,-25,-21,-35,-19,-5
14:00:53:826976,-18,-9,6,-20,-3,11,13,2
14:00:53:827769,-18,-9,6,-20,-3,11,13,2
14:00:53:833615,9,-6,-26,-5,0,-34,-6,-1
14:00:53:849386,-10,-56,-40,-4,2,12,33,-1
14:00:53:850186,-10,-56,-40,-4,2,12,33,-1
14:00:53:856165,-17,15,21,2,-12,-1,16,1
14:00:53:863659,17,-1,8,-2,13,-6,-6,6
14:00:53:871209,17,-1,8,-2,13,-6,-6,6
14:00:53:878673,10,-1,5,21,11,5,-7,2
14:00:53:886827,8,37,30,-25,-10,-6,-16,4
14:00:53:887734,8,37,30,-25,-10,-6,-16,4
14:00:53:893721,20,2,-41,1,-1,-6,-16,1
14:00:53:909483,-24,16,18,26,9,-5,1,-7
14:00:53:910233,-24,16,18,26,9,-5,1,-7
14:00:53:916153,-12,12,12,-8,-6,12,11,-1
14:00:53:923676,21,66,6,6,-8,-25,-7,7
14:00:53:931280,21,66,6,6,-8,-25,-7,7
14:00:53:938770,-3,30,13,9,1,27,16,6
14:00:53:955138,-14,-21,-25,-19,-7,-4,-5,-5
14:00:53:955865,-14,-21,-25,-19,-7,-4,-5,-5
14:00:53:956629,23,-22,6,-13,-7,1,-8,8
14:00:53:969378,6,17,9,19,4,4,0,6
14:00:53:970143,6,17,9,19,4,4,0,6
14:00:53:976223,-1,-29,-7,-5,-1,-18,-3,-2
14:00:53:983587,1,-40,-29,-12,-4,-18,-21,-11
14:00:53:991302,1,-40,-29,-12,-4,-18,-21,-11
14:00:53:998667,13,-17,-16,8,7,43,29,3
14:00:54:6992,9,1,27,-2,-1,-13,2,0
14:00:54:7759,9,1,27,-2,-1,-13,2,0
14:00:54:13658,5,31,13,25,25,-17,-18,4
14:00:54:29378,3,-2,-15,8,-2,2,1,3
14:00:54:30176,3,-2,-15,8,-2,2,1,3
14:00:54:36177,7,42,13,-23,-11,5,5,0
14:00:54:43795,12,-9,-18,-14,-8,2,10,-1
14:00:54:51208,12,-9,-18,-14,-8,2,10,-1
14:00:54:58722,-7,-27,-13,-6,-1,4,-28,-2
14:00:54:66815,12,1,-26,1,7,15,12,2
14:00:54:67632,12,1,-26,1,7,15,12,2
14:00:54:73719,-11,6,-1,-14,-10,-20,-6,-4
14:00:54:89471,-41,-39,-4,-14,-5,-8,-9,-13
14:00:54:90194,-41,-39,-4,-14,-5,-8,-9,-13
14:00:54:96171,-36,-15,10,6,-14,-11,-1,-6
14:00:54:103684,41,33,30,-6,13,6,6,10
14:00:54:111350,41,33,30,-6,13,6,6,10
14:00:54:118668,9,-7,-2,-6,18,-26,-18,0
14:00:54:126967,-17,-8,29,10,-11,-18,-37,-17
14:00:54:127667,-17,-8,29,10,-11,-18,-37,-17
14:00:54:141226,-5,43,7,-3,-3,13,25,1
14:00:54:149343,-1,-27,-20,-10,-14,-19,-4,-2
14:00:54:150129,-1,-27,-20,-10,-14,-19,-4,-2
14:00:54:156241,-11,-31,-44,-15,-11,-4,-12,-9
14:00:54:163734,-4,0,8,-3,0,3,6,5
14:00:54:171205,-4,0,8,-3,0,3,6,5
14:00:54:187498,36,-13,-4,14,21,23,33,6
14:00:54:188264,-1,27,0,-5,2,7,10,4
14:00:54:189113,-1,27,0,-5,2,7,10,4
14:00:54:201144,-9,-6,0,-8,-7,-26,-22,-9
14:00:54:209438,3,2,20,24,11,74,65,-1
14:00:54:210175,3,2,20,24,11,74,65,-1
14:00:54:216170,8,20,12,5,-14,3,-1,2
14:00:54:231860,-2,-16,-11,2,1,-15,-12,11
14:00:54:232752,-2,-16,-11,2,1,-15,-12,11
14:00:54:238730,-2,-2,0,2,0,1,-14,-2
14:00:54:246833,-9,-1,11,-3,9,-2,-4,-7
14:00:54:247644,-9,-1,11,-3,9,-2,-4,-7
14:00:54:261217,-25,-46,-28,1,-5,-42,-28,-8
14:00:54:269383,-2,24,8,5,9,15,12,3
14:00:54:270191,-2,24,8,5,9,15,12,3
14:00:54:276251,-20,6,13,-12,0,-9,29,-13
14:00:54:291982,17,29,10,2,-18,-26,-30,3
14:00:54:292754,17,29,10,2,-18,-26,-30,3
14:00:54:298674,-13,12,-2,-1,1,17,22,-2
14:00:54:306977,-8,-29,2,12,16,8,12,-3
14:00:54:307744,-8,-29,2,12,16,8,12,-3
14:00:54:321168,14,-7,4,48,28,16,-1,2
14:00:54:329408,-11,7,-23,-30,-24,-22,-3,-7
14:00:54:330197,-11,7,-23,-30,-24,-22,-3,-7
14:00:54:336155,11,-1,4,-10,-2,98,85,10
14:00:54:351861,2,-5,5,-7,-7,-4,-11,-5
14:00:54:352715,2,-5,5,-7,-7,-4,-11,-5
14:00:54:358813,7,40,-43,9,-5,-39,-30,4
14:00:54:366832,-52,-6,-14,7,2,10,13,-4
14:00:54:367716,-52,-6,-14,7,2,10,13,-4
14:00:54:381162,-9,-19,8,7,-5,-36,-34,-8
14:00:54:389428,14,-14,-10,49,0,-16,-12,8
14:00:54:390209,14,-14,-10,49,0,-16,-12,8
14:00:54:396202,-17,-34,-17,-32,-1,7,-9,-4
14:00:54:420001,7,-8,-17,-18,-1,-6,-5,1
14:00:54:420793,7,-8,-17,-18,-1,-6,-5,1
14:00:54:421577,9,13,17,20,4,-2,-7,2
14:00:54:427951,30,48,17,1,0,1,-2,-4
14:00:54:433681,30,48,17,1,0,1,-2,-4
14:00:54:441134,-13,-9,16,-30,-9,-3,-31,1
14:00:54:449389,-2,-23,4,8,2,14,11,-2
14:00:54:450179,-2,-23,4,8,2,14,11,-2
14:00:54:456251,3,-7,-13,-3,8,10,4,3
14:00:54:472375,-14,-11,11,14,17,-22,-20,-6
14:00:54:473135,-14,-11,11,14,17,-22,-20,-6
14:00:54:478662,5,-5,15,-10,-11,-13,-21,4
14:00:54:494397,1,-29,-15,-36,-14,-14,-20,-6
14:00:54:495139,1,-29,-15,-36,-14,-14,-20,-6
14:00:54:501102,12,38,18,14,8,-25,-24,-3
14:00:54:509455,3,-1,8,-6,8,28,23,12
14:00:54:510197,3,-1,8,-6,8,28,23,12
14:00:54:516140,-8,-31,-22,14,7,4,-9,-2
14:00:54:531816,7,44,23,1,8,-12,-1,-5
14:00:54:532671,7,44,23,1,8,-12,-1,-5
14:00:54:538694,-17,-8,-2,-30,-24,-14,25,-4
14:00:54:546903,6,-14,2,10,9,5,-10,1
14:00:54:547736,6,-14,2,10,9,5,-10,1
14:00:54:570006,9,21,18,-11,-20,2,-2,-4
14:00:54:570772,0,11,-13,-8,-13,-1,10,5
14:00:54:571670,0,11,-13,-8,-13,-1,10,5
14:00:54:576272,4,3,7,7,0,38,42,8
14:00:54:591925,10,-5,-18,2,-5,-4,-17,-6
14:00:54:592801,10,-5,-18,2,-5,-4,-17,-6
14:00:54:598667,7,-29,-47,-5,17,-6,-14,-2
14:00:54:614932,7,-29,-47,-5,17,-6,-14,-2
14:00:54:615704,4,13,14,-7,-12,-6,3,2
14:00:54:621153,-9,4,38,0,-2,3,1,-6
14:00:54:629409,-9,4,38,0,-2,3,1,-6
14:00:54:630213,-25,-24,-26,-22,0,-14,-28,-7
14:00:54:643728,7,15,-9,-12,-3,4,6,-2
14:00:54:651924,7,15,-9,-12,-3,4,6,-2
14:00:54:652750,-13,-35,-4,6,6,24,53,3
14:00:54:658729,10,-27,-50,-25,-8,23,16,-2
14:00:54:674373,10,-27,-50,-25,-8,23,16,-2
14:00:54:675192,3,-44,-1,26,-2,-10,-10,4
14:00:54:681165,-11,9,38,29,3,-20,-18,-3
14:00:54:697548,-11,9,38,29,3,-20,-18,-3
14:00:54:698358,9,-9,-16,-23,-11,-6,-4,4
14:00:54:699125,24,21,4,35,27,-29,-33,6
14:00:54:720067,24,21,4,35,27,-29,-33,6
14:00:54:720877,-15,1,-13,-8,-11,16,6,-8
14:00:54:721651,-4,38,11,0,14,33,26,9
14:00:54:734380,-4,38,11,0,14,33,26,9
14:00:54:735153,13,51,27,0,0,-27,-22,-3
14:00:54:741231,-21,-25,-7,12,-11,-18,-6,-13
14:00:54:749408,-21,-25,-7,12,-11,-18,-6,-13
14:00:54:750167,-12,-39,16,-19,-25,4,1,-8
14:00:54:756266,-12,2,2,-8,8,-8,-11,-6
14:00:54:772445,-12,2,2,-8,8,-8,-11,-6
14:00:54:773155,-1,32,0,-33,0,-9,3,2
14:00:54:778661,8,-11,-24,-6,-6,6,3,6
14:00:54:794467,8,-11,-24,-6,-6,6,3,6
14:00:54:795214,23,38,21,7,0,5,13,10
14:00:54:801191,1,-1,8,-6,-11,-37,-31,-7
14:00:54:809534,1,-1,8,-6,-11,-37,-31,-7
14:00:54:810242,2,-8,4,52,8,61,41,3
14:00:54:816164,-8,-16,-6,-2,-10,14,-5,-3
14:00:54:831924,-8,-16,-6,-2,-10,14,-5,-3
14:00:54:832770,8,-18,2,68,18,-29,-18,-2
14:00:54:846243,17,-17,-11,-15,3,4,11,1
14:00:54:854422,17,-17,-11,-15,3,4,11,1
14:00:54:855155,-24,-20,-21,-26,4,-8,-7,-10
14:00:54:861198,-21,-11,19,-2,-9,-11,-1,-8
14:00:54:869369,-21,-11,19,-2,-9,-11,-1,-8
14:00:54:870169,-6,-5,-3,-7,2,2,-13,1
14:00:54:876185,16,-24,-11,-1,-7,4,5,0
14:00:54:891965,16,-24,-11,-1,-7,4,5,0
14:00:54:892635,-6,14,6,30,2,-15,-17,-10
14:00:54:898626,-20,-39,23,-31,-11,2,9,-1
14:00:54:922712,-20,-39,23,-31,-11,2,9,-1
14:00:54:923330,20,-19,-18,-40,-1,-11,-39,-8
14:00:54:924165,0,34,26,2,-13,7,-1,3
14:00:54:929336,0,34,26,2,-13,7,-1,3
14:00:54:930148,-22,24,30,-12,11,28,4,-5
14:00:54:936193,3,10,-15,-5,10,37,52,5
14:00:54:951904,3,10,-15,-5,10,37,52,5
14:00:54:952740,3,15,-21,-6,1,22,46,11
14:00:54:958749,-21,-2,-21,16,1,-14,-46,-10
14:00:54:974392,-21,-2,-21,16,1,-14,-46,-10
14:00:54:975189,1,-58,-11,-7,-21,-28,-6,6
14:00:54:981180,-6,-8,-6,39,1,-15,-9,-5
14:00:54:997566,-6,-8,-6,39,1,-15,-9,-5
14:00:54:998360,28,59,34,6,2,-5,1,3
14:00:54:999140,9,56,-7,-17,-2,16,8,8
14:00:55:11930,9,56,-7,-17,-2,16,8,8
14:00:55:12693,-26,-10,-17,-10,-2,21,-11,2
14:00:55:18647,1,8,6,4,16,-16,-9,1
14:00:55:34371,1,8,6,4,16,-16,-9,1
14:00:55:35139,18,-4,-19,-44,-13,-20,-15,1
14:00:55:41189,-25,-33,-6,16,0,-10,-21,-13
14:00:55:49399,-25,-33,-6,16,0,-10,-21,-13
14:00:55:50149,-13,-14,-9,16,9,-5,2,-2
14:00:55:56208,-20,8,22,-38,-12,-3,8,-7
14:00:55:72028,-20,8,22,-38,-12,-3,8,-7
14:00:55:72689,15,-11,-23,-4,-11,-20,-10,-6
14:00:55:78686,4,-15,-19,-3,4,-5,-15,9
14:00:55:94441,4,-15,-19,-3,4,-5,-15,9
14:00:55:95139,-22,23,-36,-27,-8,33,33,-1
14:00:55:101177,28,32,-3,-14,-5,3,-5,1
14:00:55:109480,28,32,-3,-14,-5,3,-5,1
14:00:55:110238,-2,11,7,-41,-1,-20,-3,1
14:00:55:124149,20,52,25,18,6,-10,9,4
14:00:55:131834,20,52,25,18,6,-10,9,4
14:00:55:132677,9,47,39,7,-5,-10,-8,3
14:00:55:138767,13,-36,3,8,10,4,-30,0
14:00:55:154343,13,-36,3,8,10,4,-30,0
14:00:55:155155,-11,-51,24,89,18,36,45,-3
14:00:55:161228,25,-18,-1,-10,-27,-20,1,2
14:00:55:169347,25,-18,-1,-10,-27,-20,1,2
14:00:55:170123,-13,52,-28,-33,-6,-13,-5,0
14:00:55:183651,-15,-29,-43,-23,15,8,13,-3
14:00:55:200078,-15,-29,-43,-23,15,8,13,-3
14:00:55:200808,0,-73,-20,-6,-16,-17,-36,-11
14:00:55:201639,-4,-9,5,-16,-17,-7,-8,-1
14:00:55:214402,-4,-9,5,-16,-17,-7,-8,-1
14:00:55:215202,-7,-11,-3,22,14,37,22,3
14:00:55:221218,0,-4,21,27,6,7,13,1
14:00:55:229428,0,-4,21,27,6,7,13,1
14:00:55:230200,-17,-25,-13,0,-7,4,1,-4
14:00:55:243739,12,50,25,18,5,-3,16,6
14:00:55:251870,12,50,25,18,5,-3,16,6
14:00:55:252633,16,7,14,38,13,-15,-19,5
14:00:55:258671,-10,-76,-20,-4,0,-13,0,-3
14:00:55:274408,-10,-76,-20,-4,0,-13,0,-3
14:00:55:275142,13,27,28,-20,-1,1,7,1
14:00:55:281149,-5,-22,-11,23,-1,-2,-5,-2
14:00:55:289410,-5,-22,-11,23,-1,-2,-5,-2
14:00:55:290179,-40,24,26,11,1,-12,-11,-7
14:00:55:303679,21,55,8,-11,-7,-11,-7,1
14:00:55:311862,21,55,8,-11,-7,-11,-7,1
14:00:55:312679,2,-5,8,2,-8,3,3,-4
14:00:55:318605,6,98,-7,-6,6,-12,-19,-4
14:00:55:326275,6,98,-7,-6,6,-12,-19,-4
14:00:55:333621,8,-8,-13,7,20,-11,-12,5
14:00:55:341211,-22,20,29,-5,3,15,13,-4
14:00:55:349438,-22,20,29,-5,3,15,13,-4
14:00:55:350192,-8,22,-22,-26,-15,-7,-7,-12
14:00:55:363714,-46,-65,-23,-13,-5,5,2,-8
14:00:55:372029,-46,-65,-23,-13,-5,5,2,-8
14:00:55:372764,20,-24,-47,-19,-2,-39,-24,4
14:00:55:378692,0,-18,-4,2,-10,68,34,3
14:00:55:386219,0,-18,-4,2,-10,68,34,3
14:00:55:393754,22,-16,0,16,4,-22,0,3
14:00:55:401158,-14,-15,-12,1,-12,-3,3,-4
14:00:55:409425,-14,-15,-12,1,-12,-3,3,-4
14:00:55:410101,-12,-3,7,-4,-6,-9,-15,-2
14:00:55:424166,-10,-30,7,-7,-16,-20,-11,-10
14:00:55:431920,-10,-30,7,-7,-16,-20,-11,-10
14:00:55:432753,3,-29,9,26,4,-3,21,-2
14:00:55:438745,9,-10,5,0,-4,16,10,4
14:00:55:446220,9,-10,5,0,-4,16,10,4
14:00:55:453697,6,8,25,-16,-5,10,-1,-3
14:00:55:461251,-9,-6,-11,-1,-1,-38,-34,-8
14:00:55:476978,-9,-6,-11,-1,-1,-38,-34,-8
14:00:55:477740,-24,6,9,-7,-10,34,18,2
14:00:55:483626,14,-9,-14,-35,6,-13,-2,5
14:00:55:491911,14,-9,-14,-35,6,-13,-2,5
14:00:55:492618,-7,-73,-16,-4,-10,-11,-8,-10
14:00:55:498733,6,11,-10,-10,-4,-1,-4,-4
14:00:55:506253,6,11,-10,-10,-4,-1,-4,-4
14:00:55:513660,2,28,14,2,2,-6,-12,-3
14:00:55:521191,11,-8,-23,8,9,-11,-10,-1
14:00:55:529357,11,-8,-23,8,9,-11,-10,-1
14:00:55:530138,-6,18,-27,-17,-7,12,1,-5
14:00:55:552484,5,43,18,21,-8,4,18,7
14:00:55:553281,5,43,18,21,-8,4,18,7
14:00:55:554096,5,18,31,12,8,-7,1,2
14:00:55:558698,3,-47,5,-15,-13,-2,-20,-6
14:00:55:574415,3,-47,5,-15,-13,-2,-20,-6
14:00:55:575195,18,22,8,-6,-4,-1,-2,0
14:00:55:581169,13,-8,-20,27,8,8,22,3
14:00:55:589413,13,-8,-20,27,8,8,22,3
14:00:55:590143,10,21,5,19,10,4,-8,5
14:00:55:603683,-16,31,30,-21,1,1,-5,7
14:00:55:611984,-16,31,30,-21,1,1,-5,7
14:00:55:612775,-13,-26,-6,-13,-3,-11,-11,-10
14:00:55:618657,-32,-22,-18,-4,2,-42,-9,-3
14:00:55:626272,-32,-22,-18,-4,2,-42,-9,-3
14:00:55:633643,-5,-24,-61,-19,-10,32,36,3
14:00:55:641227,14,-4,-10,-14,17,44,16,-2
14:00:55:649375,14,-4,-10,-14,17,44,16,-2
14:00:55:650178,-5,-18,-5,3,-6,-9,-10,4
14:00:55:663665,44,56,12,32,0,-14,-3,6
14:00:55:680083,44,56,12,32,0,-14,-3,6
14:00:55:680849,27,9,-13,-30,15,4,-3,6
14:00:55:681663,-11,-51,0,-27,-20,-8,-29,-13
14:00:55:686238,-11,-51,0,-27,-20,-8,-29,-13
14:00:55:693768,-24,-13,-9,47,23,3,-3,-4
14:00:55:701143,14,18,10,0,0,-4,-5,3
14:00:55:709424,14,18,10,0,0,-4,-5,3
14:00:55:710165,-2,11,12,5,0,8,6,-5
14:00:55:724126,-20,-28,12,24,5,8,34,-11
14:00:55:731932,-20,-28,12,24,5,8,34,-11
14:00:55:732774,6,-3,-1,-13,-1,-5,18,7
14:00:55:738754,-21,14,-8,-7,-4,-15,-15,-2
14:00:55:754428,-21,14,-8,-7,-4,-15,-15,-2
14:00:55:755170,22,0,13,-10,-8,-13,-16,16
14:00:55:761188,-1,19,19,11,5,56,36,6
14:00:55:769432,-1,19,19,11,5,56,36,6
14:00:55:770173,-6,10,8,-7,-3,18,0,-8
14:00:55:783626,5,-16,-1,1,7,-6,-13,2
14:00:55:791922,5,-16,-1,1,7,-6,-13,2
14:00:55:792750,5,3,15,-7,-14,-3,4,-5
14:00:55:806962,-30,-8,-4,8,0,0,15,1
14:00:55:807671,-30,-8,-4,8,0,0,15,1
14:00:55:813693,4,8,1,28,-1,-36,-16,-3
14:00:55:830082,-7,-31,2,19,16,0,-11,-4
14:00:55:830850,-7,-31,2,19,16,0,-11,-4
14:00:55:831651,1,26,20,5,-7,-7,-21,0
14:00:55:843741,3,12,-25,-44,-14,-11,-4,-5
14:00:55:851835,3,12,-25,-44,-14,-11,-4,-5
14:00:55:852636,9,12,21,26,11,5,-17,-9
14:00:55:858639,16,10,-1,-12,-9,-22,-21,8
14:00:55:866215,16,10,-1,-12,-9,-22,-21,8
14:00:55:881890,-25,18,-6,-7,1,-1,-11,-7
14:00:55:882664,13,6,5,1,-8,0,16,4
14:00:55:889473,13,6,5,1,-8,0,16,4
14:00:55:890136,-6,-41,-9,-18,-11,-3,-4,0
14:00:55:903694,2,-17,-10,2,-5,-7,-9,-4
14:00:55:911873,2,-17,-10,2,-5,-7,-9,-4
14:00:55:912661,9,18,-4,-6,6,2,14,1
14:00:55:918688,-8,-3,-26,-23,-14,-12,-1,-3
14:00:55:926322,-8,-3,-26,-23,-14,-12,-1,-3
14:00:55:933656,-16,-36,-35,-18,-2,-9,-22,-10
14:00:55:941164,11,6,1,11,7,20,8,-1
14:00:55:956931,11,6,1,11,7,20,8,-1
14:00:55:957616,-39,16,18,15,7,-21,-3,-8
14:00:55:963700,4,15,11,-6,-12,-13,-2,-2
14:00:55:971976,4,15,11,-6,-12,-13,-2,-2
14:00:55:972693,25,7,9,1,20,21,13,14
14:00:55:978679,-3,4,-16,-18,5,-19,-40,-13
14:00:56:2572,-3,4,-16,-18,5,-19,-40,-13
14:00:56:3330,-11,0,-23,-8,-20,0,-4,1
14:00:56:4150,2,4,7,9,20,37,33,5
14:00:56:9432,2,4,7,9,20,37,33,5
14:00:56:10154,-2,-9,-19,-20,-18,4,17,5
14:00:56:32554,-8,42,6,-1,-5,-23,-18,-2
14:00:56:33336,-8,42,6,-1,-5,-23,-18,-2
14:00:56:34160,0,-16,22,-5,-2,7,33,-1
14:00:56:38800,-10,-16,8,-8,-5,-18,-8,-3
14:00:56:54376,-10,-16,8,-8,-5,-18,-8,-3
14:00:56:55188,19,-4,-18,15,-5,-12,-10,0
14:00:56:61194,4,25,39,37,23,7,-4,3
14:00:56:68687,4,25,39,37,23,7,-4,3
14:00:56:84361,-1,11,20,4,-15,-20,-35,-11
14:00:56:85110,0,-43,-14,-3,-7,0,0,3
14:00:56:107569,0,-43,-14,-3,-7,0,0,3
14:00:56:108335,-16,-24,15,-21,-11,-3,5,-4
14:00:56:109193,-20,-20,-13,6,7,5,1,-2
14:00:56:114393,-20,-20,-13,6,7,5,1,-2
14:00:56:115172,12,9,-7,-27,-1,-3,-24,2
14:00:56:121202,-10,-10,-12,-4,-7,2,8,-5
14:00:56:128748,-10,-10,-12,-4,-7,2,8,-5
14:00:56:136169,-7,-7,-29,15,23,2,7,-5
14:00:56:143801,0,10,-2,-1,-8,7,-2,1
14:00:56:159488,0,10,-2,-1,-8,7,-2,1
14:00:56:160210,10,34,8,40,8,10,8,4
14:00:56:166803,6,-1,-5,-13,-4,-5,13,0
14:00:56:167631,6,-1,-5,-13,-4,-5,13,0
14:00:56:173774,1,6,3,-6,3,1,28,5
14:00:56:181184,-19,-13,5,-12,-13,20,-2,-6
14:00:56:188804,-19,-13,5,-12,-13,20,-2,-6
14:00:56:196127,-7,84,31,-1,21,4,4,3
14:00:56:203650,16,-9,4,4,-3,-16,-5,4
14:00:56:211943,16,-9,4,4,-3,-16,-5,4
14:00:56:212651,-6,-24,-3,-3,-12,3,-20,-6
14:00:56:234979,-13,-8,4,-11,10,4,13,5
14:00:56:235766,-13,-8,4,-11,10,4,13,5
14:00:56:236593,22,-39,-15,-9,-14,-1,-26,0
14:00:56:241202,1,-17,-29,-8,-1,-17,-15,-7
14:00:56:248722,1,-17,-29,-8,-1,-17,-15,-7
14:00:56:256283,-1,-20,-17,-19,-4,-7,-1,-4
14:00:56:263730,-22,-15,2,32,9,1,-5,-7
14:00:56:271993,-22,-15,2,32,9,1,-5,-7
14:00:56:272655,-25,-21,-23,-3,2,-3,1,0
14:00:56:286858,19,31,16,8,17,2,5,-3
14:00:56:287674,19,31,16,8,17,2,5,-3
14:00:56:293758,-3,-23,-17,3,-20,-10,14,2
14:00:56:309362,-1,0,5,0,-7,4,-6,2
14:00:56:310134,-1,0,5,0,-7,4,-6,2
14:00:56:316165,-16,1,5,12,5,-11,-32,-6
14:00:56:323728,6,25,3,-1,-1,11,12,5
14:00:56:331864,6,25,3,-1,-1,11,12,5
14:00:56:332652,-8,-29,1,8,-16,4,6,-2
14:00:56:346886,6,4,6,-10,2,-1,-9,0
14:00:56:347647,6,4,6,-10,2,-1,-9,0
14:00:56:361855,19,12,-18,-11,18,-2,12,-4
14:00:56:362593,8,-18,-11,-13,-9,-8,-10,-1
14:00:56:368744,8,-18,-11,-13,-9,-8,-10,-1
14:00:56:384271,3,-28,-12,-20,-5,12,2,-2
14:00:56:385083,11,0,-1,4,-2,11,-2,-1
14:00:56:391949,11,0,-1,4,-2,11,-2,-1
14:00:56:392681,2,5,15,20,5,18,15,4
14:00:56:406910,-8,-9,-17,-10,-10,-10,-8,-4
14:00:56:407672,-8,-9,-17,-10,-10,-10,-8,-4
14:00:56:413639,12,47,7,-16,2,-2,27,13
14:00:56:421158,2,63,12,7,-2,-7,-1,0
14:00:56:436863,2,63,12,7,-2,-7,-1,0
14:00:56:437618,1,-12,8,8,5,3,-11,-3
14:00:56:443714,-3,-42,-19,-12,0,-9,-8,1
14:00:56:459453,-3,-42,-19,-12,0,-9,-8,1
14:00:56:460143,-20,-6,-4,6,0,-7,-10,-7
14:00:56:466801,-6,1,-7,9,-21,0,16,-2
14:00:56:467668,-6,1,-7,9,-21,0,16,-2
14:00:56:473676,-14,-34,-32,-1,9,4,2,-2
14:00:56:481136,-4,15,1,-11,-8,16,-19,-1
14:00:56:488807,-4,15,1,-11,-8,16,-19,-1
14:00:56:496136,-7,-7,-6,-5,-2,-4,-23,-7
14:00:56:512516,27,11,-5,3,1,-23,-30,4
14:00:56:513326,27,11,-5,3,1,-23,-30,4
14:00:56:514142,-10,1,11,-9,-1,7,8,-1
14:00:56:526934,-10,-6,2,20,10,-1,6,-11
14:00:56:527703,-10,-6,2,20,10,-1,6,-11
14:00:56:533591,7,39,14,5,3,-10,4,9
14:00:56:541181,-11,-42,8,24,-8,-1,9,1
14:00:56:548721,-11,-42,8,24,-8,-1,9,1
14:00:56:556203,-4,10,20,8,-7,1,1,-4
14:00:56:563661,1,-44,-1,-20,18,38,13,3
14:00:56:571952,1,-44,-1,-20,18,38,13,3
14:00:56:572638,9,28,5,21,-1,11,14,-6
14:00:56:587358,-39,6,-5,-9,-1,-19,-5,-11
14:00:56:588122,-39,6,-5,-9,-1,-19,-5,-11
14:00:56:593739,9,-4,-12,-40,-12,-1,2,0
14:00:56:601122,-10,17,7,5,8,-3,5,-2
14:00:56:608776,-10,17,7,5,8,-3,5,-2
14:00:56:616154,-6,-27,16,40,13,-9,2,-3
14:00:56:623734,1,-15,-6,-8,-1,-21,-20,-7
14:00:56:639416,1,-15,-6,-8,-1,-21,-20,-7
14:00:56:640140,-3,-9,0,-18,-9,-9,-5,-1
14:00:56:646890,22,53,15,0,9,20,9,5
14:00:56:647674,22,53,15,0,9,20,9,5
14:00:56:653652,12,-2,-6,-26,-9,-3,12,4
14:00:56:661214,-12,-24,6,-1,-5,-17,-7,-8
14:00:56:668775,-12,-24,6,-1,-5,-17,-7,-8
14:00:56:676236,3,-15,-6,-5,-5,-2,-31,-3
14:00:56:683633,2,6,-14,-10,-4,6,0,-1
14:00:56:691988,2,6,-14,-10,-4,6,0,-1
14:00:56:692801,-1,-2,-35,-40,-6,7,6,1
14:00:56:715024,25,24,-1,-11,4,5,7,9
14:00:56:715819,25,24,-1,-11,4,5,7,9
14:00:56:716651,-4,-5,5,11,0,15,-3,-5
14:00:56:737529,-7,-7,-31,7,-10,-8,14,2
14:00:56:738327,-7,-7,-31,7,-10,-8,14,2
14:00:56:739102,-5,-15,11,13,3,-3,-3,2
14:00:56:743730,2,-23,-11,-5,-15,3,-1,-5
14:00:56:759459,2,-23,-11,-5,-15,3,-1,-5
14:00:56:760215,11,9,0,27,0,-4,10,2
14:00:56:766801,0,-9,-12,-8,-5,-2,-9,3
14:00:56:767600,0,-9,-12,-8,-5,-2,-9,3
14:00:56:773791,11,31,34,31,19,7,-2,-2
14:00:56:789431,5,-19,-7,11,16,-5,7,-4
14:00:56:790195,5,-19,-7,11,16,-5,7,-4
14:00:56:796163,-21,6,-21,-23,-10,-3,3,-7
14:00:56:803692,34,20,13,-16,-21,12,13,15
14:00:56:811929,34,20,13,-16,-21,12,13,15
14:00:56:812763,-7,-2,-5,-5,6,-15,-14,-1
14:00:56:835001,-2,6,19,6,-8,-18,-15,-4
14:00:56:835811,-2,6,19,6,-8,-18,-15,-4
14:00:56:836619,-9,-31,-18,-40,-13,-11,-4,-1
14:00:56:841139,-12,-2,7,10,-5,24,8,-6
14:00:56:848717,-12,-2,7,10,-5,24,8,-6
14:00:56:864303,18,26,12,7,-2,-15,-14,5
14:00:56:865064,5,23,-11,5,-6,11,17,-6
14:00:56:871990,5,23,-11,5,-6,11,17,-6
14:00:56:872665,-15,-30,-25,1,-1,5,-8,-8
14:00:56:886800,-6,94,32,9,22,5,-1,2
14:00:56:887631,-6,94,32,9,22,5,-1,2
14:00:56:893720,11,-5,9,2,-4,-9,6,2
14:00:56:901115,-37,-80,-37,-38,-30,-17,-30,-15
14:00:56:908864,-37,-80,-37,-38,-30,-17,-30,-15
14:00:56:916157,-11,-14,8,-4,16,-23,-27,-1
14:00:56:923652,4,-10,-5,-4,8,63,66,8
14:00:56:931897,4,-10,-5,-4,8,63,66,8
14:00:56:932664,-11,-3,-1,-13,-13,35,25,-9
14:00:56:946895,-39,-20,16,32,3,-27,-12,-9
14:00:56:947690,-39,-20,16,32,3,-27,-12,-9
14:00:56:953676,8,22,22,24,-1,-10,-7,6
14:00:56:961204,8,17,-6,-30,3,-13,-15,2
14:00:56:968688,8,17,-6,-30,3,-13,-15,2
14:00:56:976178,-3,5,0,-25,-34,-10,-2,-4
14:00:56:992587,-1,-39,-5,11,23,-19,-26,0
14:00:56:993345,-1,-39,-5,11,23,-19,-26,0
14:00:56:994171,0,0,-3,1,-3,4,-2,2
14:00:57:6945,-13,-60,-30,-15,-5,-14,-17,-8
14:00:57:7655,-13,-60,-30,-15,-5,-14,-17,-8
14:00:57:13646,-17,-18,5,15,-1,-2,-10,-7
14:00:57:29105,13,4,3,5,11,-16,9,8
14:00:57:36835,13,4,3,5,11,-16,9,8
14:00:57:37681,-1,-13,-10,7,6,2,-6,-10
14:00:57:43783,13,32,-13,1,2,1,2,1
14:00:57:51191,13,32,-13,1,2,1,2,1
14:00:57:67484,5,-27,-2,-10,3,-24,15,2
14:00:57:68273,-5,14,16,-9,0,16,8,1
14:00:57:69088,-5,14,16,-9,0,16,8,1
14:00:57:73776,2,4,12,16,-4,9,1,-3
14:00:57:89457,20,13,-15,-19,1,-12,-45,5
14:00:57:90140,20,13,-15,-19,1,-12,-45,5
14:00:57:96183,5,-7,-19,1,-6,-1,14,5
14:00:57:103684,-1,-9,-10,12,13,1,2,-4
14:00:57:111302,-1,-9,-10,12,13,1,2,-4
14:00:57:118619,25,11,-4,17,20,-4,-16,6
14:00:57:126996,-42,-15,-10,-11,-27,-14,7,-13
14:00:57:127667,-42,-15,-10,-11,-27,-14,7,-13
14:00:57:133607,-9,-24,-23,-20,-5,24,30,5
14:00:57:149368,28,27,35,14,5,-1,30,11
14:00:57:150206,28,27,35,14,5,-1,30,11
14:00:57:156206,-16,24,-3,-28,-7,-15,-18,-7
14:00:57:163645,-12,-20,-10,11,6,9,-2,-4
14:00:57:171245,-12,-20,-10,11,6,9,-2,-4
14:00:57:178605,-9,33,12,18,15,10,8,1
14:00:57:186861,9,-4,-3,-8,-7,-30,-49,-3
14:00:57:187664,9,-4,-3,-8,-7,-30,-49,-3
14:00:57:193735,8,-26,1,-13,-13,31,13,5
14:00:57:209429,29,87,32,14,18,45,14,13
14:00:57:210156,29,87,32,14,18,45,14,13
14:00:57:216117,-15,31,36,7,1,-2,-16,-9
14:00:57:223689,16,18,9,-13,-18,-22,-6,-1
14:00:57:231225,16,18,9,-13,-18,-22,-6,-1
14:00:57:238773,4,28,-5,3,-2,-17,-3,0
14:00:57:246906,13,3,-30,-20,-12,0,3,-5
14:00:57:247731,13,3,-30,-20,-12,0,3,-5
14:00:57:253679,0,-15,-9,3,4,-20,-30,-6
14:00:57:269857,-29,-9,15,-5,-11,5,33,-8
14:00:57:270685,-29,-9,15,-5,-11,5,33,-8
14:00:57:276258,13,-23,-7,-13,-7,14,0,4
14:00:57:283634,8,36,10,30,1,-16,-3,-2
14:00:57:291323,8,36,10,30,1,-16,-3,-2
14:00:57:298672,-36,-44,-13,7,-2,-22,-9,-11
14:00:57:315003,13,-5,43,11,4,29,35,9
14:00:57:315846,13,-5,43,11,4,29,35,9
14:00:57:316657,-14,20,-5,-8,6,3,-9,0
14:00:57:329407,17,-25,-8,25,-5,-23,-36,2
14:00:57:330174,17,-25,-8,25,-5,-23,-36,2
14:00:57:344442,10,-23,7,-7,-12,39,28,10
14:00:57:345153,2,-3,0,-8,7,25,-2,-1
14:00:57:351145,2,-3,0,-8,7,25,-2,-1
14:00:57:358677,-10,-24,1,-4,6,-19,-7,-4
14:00:57:366865,-29,33,-2,1,-11,-10,-4,-11
14:00:57:367634,-29,33,-2,1,-11,-10,-4,-11
14:00:57:373635,-11,44,28,6,-8,-18,-21,-12
14:00:57:389380,-5,-51,-19,-17,-5,-55,-45,4
14:00:57:390151,-5,-51,-19,-17,-5,-55,-45,4
14:00:57:396131,13,13,-27,5,6,14,25,7
14:00:57:403663,-8,9,-4,-3,-5,5,3,-1
14:00:57:419372,-8,9,-4,-3,-5,5,3,-1
14:00:57:420146,8,28,26,20,10,-10,13,6
