Time,EMG1,EMG2,EMG3,EMG4,EMG5,EMG6,EMG7,EMG8
14:01:10:479611,-2,-3,-5,-3,-10,0,8,0
14:01:10:504221,-2,-3,-5,-3,-10,0,8,0
14:01:10:504979,-4,-2,-5,-8,-5,-9,-10,0
14:01:10:505854,4,-3,3,2,-7,20,12,3
14:01:10:506626,4,-3,3,2,-7,20,12,3
14:01:10:509646,-1,-4,-2,2,-2,-3,-5,-2
14:01:10:525379,1,6,3,17,31,1,-1,-1
14:01:10:526100,1,6,3,17,31,1,-1,-1
14:01:10:532116,3,0,-5,-7,3,5,-26,-4
14:01:10:539737,1,-7,-1,-10,-23,-14,-4,-3
14:01:10:547194,1,-7,-1,-10,-23,-14,-4,-3
14:01:10:554625,1,-2,-1,-3,-7,-2,12,0
14:01:10:562920,7,-4,-4,-4,1,3,0,1
14:01:10:563670,7,-4,-4,-4,1,3,0,1
14:01:10:569636,2,3,2,10,8,3,10,-1
14:01:10:585374,0,-2,0,-3,-19,3,12,1
14:01:10:586124,0,-2,0,-3,-19,3,12,1
14:01:10:592162,2,0,0,-3,-4,0,-2,0
14:01:10:599592,-7,-5,-8,-10,-15,-9,6,-5
14:01:10:607202,-7,-5,-8,-10,-15,-9,6,-5
14:01:10:614715,-5,-7,7,17,-1,4,0,0
14:01:10:622982,0,-3,-4,-10,-23,-10,-9,-1
14:01:10:623683,0,-3,-4,-10,-23,-10,-9,-1
14:01:10:629652,2,2,-5,-5,26,14,2,-1
14:01:10:645499,-3,-6,-1,1,12,5,4,0
14:01:10:646129,-3,-6,-1,1,12,5,4,0
14:01:10:652115,-5,12,6,-7,-11,-12,1,1
14:01:10:659704,-7,6,7,2,1,0,-4,-2
14:01:10:667193,-7,6,7,2,1,0,-4,-2
14:01:10:674701,4,-5,1,14,2,5,-1,-4
14:01:10:682818,1,8,3,6,11,-6,-4,1
14:01:10:683591,1,8,3,6,11,-6,-4,1
14:01:10:689734,-2,-6,-3,-8,-2,-1,0,-2
14:01:10:705376,2,0,-6,-4,-5,-3,-2,-4
14:01:10:706219,2,0,-6,-4,-5,-3,-2,-4
14:01:10:712227,-8,-10,-7,1,-3,-2,-1,-3
14:01:10:719610,-3,8,-4,-3,7,5,-4,1
14:01:10:727261,-3,8,-4,-3,7,5,-4,1
14:01:10:734648,-8,-23,-10,-4,2,-2,-1,-4
14:01:10:743166,-8,-39,-17,-12,-13,-6,-2,-6
14:01:10:743640,-8,-39,-17,-12,-13,-6,-2,-6
14:01:10:749611,-7,-35,-24,3,20,7,1,-3
14:01:10:765347,-5,0,9,9,14,2,3,-1
14:01:10:766150,-5,0,9,9,14,2,3,-1
14:01:10:772265,1,-2,-3,-15,-20,-9,-3,-8
14:01:10:779659,-1,1,-5,0,-1,23,7,-2
14:01:10:787182,-1,1,-5,0,-1,23,7,-2
14:01:10:794671,-3,9,-5,-3,3,2,3,4
14:01:10:802800,9,11,7,-2,-9,-9,-4,3
14:01:10:803641,9,11,7,-2,-9,-9,-4,3
14:01:10:809623,5,26,20,3,-7,4,6,4
14:01:10:825346,0,-8,-2,1,5,4,-5,-9
14:01:10:826109,0,-8,-2,1,5,4,-5,-9
14:01:10:832163,5,5,4,-2,-3,-16,-3,6
14:01:10:839680,0,12,2,-1,6,1,6,0
14:01:10:847225,0,12,2,-1,6,1,6,0
14:01:10:854619,-3,-28,-4,-7,-6,0,-9,-4
14:01:10:862922,6,13,4,-2,-2,-7,-2,4
14:01:10:863680,6,13,4,-2,-2,-7,-2,4
14:01:10:877210,-1,5,2,0,-6,-1,5,0
14:01:10:885325,-1,5,2,0,-6,-1,5,0
14:01:10:886169,-8,-59,-24,-2,-6,0,0,4
14:01:10:892182,2,2,-5,-3,-4,-4,-18,4
14:01:10:907995,2,2,-5,-3,-4,-4,-18,4
14:01:10:908636,-3,17,30,11,1,-4,-7,-2
14:01:10:914644,-2,-4,-12,23,19,15,5,-5
14:01:10:923006,-2,-4,-12,23,19,15,5,-5
14:01:10:923631,2,22,7,-13,-8,-9,0,3
14:01:10:929659,-7,-36,7,-12,-8,-1,1,5
14:01:10:945437,-7,-36,7,-12,-8,-1,1,5
14:01:10:946128,-5,71,25,0,-6,4,-5,-6
14:01:10:952095,7,63,13,-3,5,-10,2,-3
14:01:10:967900,7,63,13,-3,5,-10,2,-3
14:01:10:968540,-8,-27,-13,-8,-2,-11,-3,11
14:01:10:974614,3,8,-13,-2,-3,1,-3,0
14:01:10:982861,3,8,-13,-2,-3,1,-3,0
14:01:10:983632,-6,-9,-7,4,0,-8,-11,-20
14:01:10:997186,2,9,2,-2,0,12,13,-4
14:01:11:5466,2,9,2,-2,0,12,13,-4
14:01:11:6113,15,14,18,8,5,7,3,3
14:01:11:12116,0,-9,-6,-7,8,2,0,-1
14:01:11:27863,0,-9,-6,-7,8,2,0,-1
14:01:11:28592,-7,-53,17,51,22,0,0,-3
14:01:11:34639,-1,-8,-10,-3,-3,-3,4,9
14:01:11:42942,-1,-8,-10,-3,-3,-3,4,9
14:01:11:43617,0,7,10,-15,-16,-1,0,-4
14:01:11:57141,1,-4,18,-5,-5,-8,-9,-9
14:01:11:65338,1,-4,18,-5,-5,-8,-9,-9
14:01:11:66139,2,2,-4,7,-13,-13,-4,0
14:01:11:72253,0,72,-5,-19,-5,0,-3,-1
14:01:11:87952,0,72,-5,-19,-5,0,-3,-1
14:01:11:88647,-4,-15,-51,-11,2,7,9,12
14:01:11:94707,-6,21,9,12,-1,1,-3,-5
14:01:11:102811,-6,21,9,12,-1,1,-3,-5
14:01:11:103614,4,-5,-12,-6,11,10,1,-2
14:01:11:118098,-8,-17,4,0,0,-3,-3,-5
14:01:11:125407,-8,-17,4,0,0,-3,-3,-5
14:01:11:126085,-1,-18,-19,-30,-24,-15,-9,-4
14:01:11:132161,2,51,12,42,11,-1,-1,1
14:01:11:148285,2,51,12,42,11,-1,-1,1
14:01:11:149078,1,8,-13,-1,4,2,0,2
14:01:11:154629,-5,-46,-40,-13,-30,-14,-9,-3
14:01:11:162829,-5,-46,-40,-13,-30,-14,-9,-3
14:01:11:163579,2,50,10,24,7,3,-5,-6
14:01:11:185976,8,-15,18,20,18,5,8,5
14:01:11:186872,8,-15,18,20,18,5,8,5
14:01:11:187554,2,-16,-8,-14,-3,-8,4,9
14:01:11:192190,5,9,9,4,5,11,5,10
14:01:11:208004,5,9,9,4,5,11,5,10
14:01:11:208627,0,6,-2,-7,-2,7,-1,-6
14:01:11:214668,-7,-22,-22,-28,-25,-26,-14,-10
14:01:11:223059,-7,-22,-22,-28,-25,-26,-14,-10
14:01:11:223639,-9,-8,14,-13,6,10,2,-2
14:01:11:237140,0,-19,21,41,38,23,12,4
14:01:11:245377,0,-19,21,41,38,23,12,4
14:01:11:246125,-6,-5,6,-16,-2,10,4,-5
14:01:11:252096,1,-4,17,-9,-13,-11,5,2
14:01:11:267872,1,-4,17,-9,-13,-11,5,2
14:01:11:268541,6,15,-14,-8,-28,-27,-6,0
14:01:11:274679,-5,-2,8,-21,-7,7,-3,-10
14:01:11:282913,-5,-2,8,-21,-7,7,-3,-10
14:01:11:283606,-5,-10,6,5,17,7,2,-2
14:01:11:297166,0,1,13,6,6,-6,-4,-2
14:01:11:305415,0,1,13,6,6,-6,-4,-2
14:01:11:306115,3,18,5,-2,-2,-3,-7,3
14:01:11:312158,-1,4,-3,-42,-31,-11,-1,3
14:01:11:327875,-1,4,-3,-42,-31,-11,-1,3
14:01:11:328621,-4,1,4,2,-14,-16,-3,-4
14:01:11:334634,1,8,26,-19,-5,4,1,-5
14:01:11:342987,1,8,26,-19,-5,4,1,-5
14:01:11:343571,8,-12,-7,15,13,14,10,11
14:01:11:357176,-14,5,7,3,4,10,-20,-24
14:01:11:365330,-14,5,7,3,4,10,-20,-24
14:01:11:366121,-5,-14,-3,-16,-24,-15,-8,-13
14:01:11:372240,3,-5,4,15,5,0,1,2
14:01:11:387946,3,-5,4,15,5,0,1,2
14:01:11:388684,-2,-5,-20,-14,-4,4,8,2
14:01:11:394749,1,12,-19,-29,-9,-17,-11,4
14:01:11:402837,1,12,-19,-29,-9,-17,-11,4
14:01:11:403651,2,-12,-27,-15,-4,5,1,-1
14:01:11:417123,0,-11,-1,33,22,13,5,2
14:01:11:425196,0,-11,-1,33,22,13,5,2
14:01:11:432841,-2,8,4,-8,-26,-20,0,-5
14:01:11:433612,-7,-32,-32,-7,-11,-15,1,-10
14:01:11:447938,-7,-32,-32,-7,-11,-15,1,-10
14:01:11:448682,-25,-13,23,29,44,35,4,-22
14:01:11:454660,2,-10,-7,16,3,-12,-2,6
14:01:11:462897,2,-10,-7,16,3,-12,-2,6
14:01:11:463643,-8,-59,6,-15,-1,-6,-5,27
14:01:11:477208,-6,-16,-22,26,38,28,4,-17
14:01:11:485338,-6,-16,-22,26,38,28,4,-17
14:01:11:486185,-2,34,8,21,-9,-18,2,55
14:01:11:492264,13,-13,-4,-45,-58,-26,-9,12
14:01:11:507985,13,-13,-4,-45,-58,-26,-9,12
14:01:11:508681,4,7,21,19,14,7,-7,-18
14:01:11:514652,-5,7,6,-7,13,-1,6,1
14:01:11:522924,-5,7,6,-7,13,-1,6,1
14:01:11:523611,9,2,-7,4,43,34,11,-8
14:01:11:537147,-1,0,3,11,1,-7,-5,-5
14:01:11:545450,-1,0,3,11,1,-7,-5,-5
14:01:11:546174,4,5,-9,10,-9,-14,-3,-2
14:01:11:552142,0,16,28,40,-19,-9,1,2
14:01:11:567897,0,16,28,40,-19,-9,1,2
14:01:11:568611,0,-14,-30,-29,-18,-4,-2,-8
14:01:11:574707,1,-1,36,53,19,5,-4,-1
14:01:11:582872,1,-1,36,53,19,5,-4,-1
14:01:11:583661,6,14,2,1,5,3,-3,-10
14:01:11:597167,-1,11,8,-48,-23,-1,-2,7
14:01:11:605399,-1,11,8,-48,-23,-1,-2,7
14:01:11:606121,-3,-3,-36,-40,-9,-5,1,-3
14:01:11:612168,-8,-5,-33,4,-31,-12,5,0
14:01:11:627957,-8,-5,-33,4,-31,-12,5,0
14:01:11:628702,-4,-14,-29,-10,-19,-17,-4,-9
14:01:11:634605,3,3,20,-13,26,21,7,1
14:01:11:642955,3,3,20,-13,26,21,7,1
14:01:11:643633,-4,26,14,14,-1,-4,-5,-2
14:01:11:657161,-6,-5,-21,-10,-4,-6,-6,0
14:01:11:665352,-6,-5,-21,-10,-4,-6,-6,0
14:01:11:666106,6,0,4,29,25,20,1,-3
14:01:11:672191,-3,-4,-20,20,20,-5,-3,-3
14:01:11:687906,-3,-4,-20,20,20,-5,-3,-3
14:01:11:688611,-8,-13,33,14,-20,-39,-15,-7
14:01:11:694716,-7,-1,25,17,20,18,0,-4
14:01:11:702926,-7,-1,25,17,20,18,0,-4
14:01:11:703618,0,-14,6,21,21,15,4,-7
14:01:11:717153,-3,-5,-17,-43,-21,13,10,7
14:01:11:725398,-3,-5,-17,-43,-21,13,10,7
14:01:11:726154,-1,29,54,25,-32,-26,-3,-4
14:01:11:732143,-2,-7,-24,-10,13,14,-8,-1
14:01:11:747831,-2,-7,-24,-10,13,14,-8,-1
14:01:11:748655,-2,-10,-31,15,40,10,5,0
14:01:11:754677,0,2,-8,-9,-23,-34,-12,-5
14:01:11:762909,0,2,-8,-9,-23,-34,-12,-5
14:01:11:763651,10,-2,-4,-32,-7,-12,-15,12
14:01:11:777255,-1,-14,-12,-25,16,48,20,-3
14:01:11:785312,-1,-14,-12,-25,16,48,20,-3
14:01:11:786130,-9,-42,-21,-14,0,-10,1,-17
14:01:11:792161,-6,18,-13,-21,-50,-78,-18,-14
14:01:11:807877,-6,18,-13,-21,-50,-78,-18,-14
14:01:11:808596,3,19,17,1,-23,31,3,9
14:01:11:814632,-1,-9,-20,-2,38,27,2,-2
14:01:11:822965,-1,-9,-20,-2,38,27,2,-2
14:01:11:823568,-1,8,-1,23,11,12,5,2
14:01:11:837143,-4,-24,-53,-19,-48,-27,-19,0
14:01:11:845367,-4,-24,-53,-19,-48,-27,-19,0
14:01:11:846113,2,1,-2,-7,4,8,-10,-2
14:01:11:852132,3,7,5,9,42,41,45,11
14:01:11:867793,3,7,5,9,42,41,45,11
14:01:11:868584,-4,-4,2,-11,-10,6,25,-1
14:01:11:874692,2,4,30,-18,-51,-20,-14,-7
14:01:11:882826,2,4,30,-18,-51,-20,-14,-7
14:01:11:883630,-5,11,-41,-14,-28,11,-13,-2
14:01:11:897177,7,10,31,5,81,12,-5,3
14:01:11:905469,7,10,31,5,81,12,-5,3
14:01:11:906146,-4,-8,-2,-28,-20,-42,-15,-5
14:01:11:919600,2,-3,-21,19,10,2,6,5
14:01:11:928023,2,-3,-21,19,10,2,6,5
14:01:11:928661,4,-10,0,-20,-9,-24,9,3
14:01:11:934660,-6,-5,-3,-8,74,10,-39,-4
14:01:11:942206,-6,-5,-3,-8,74,10,-39,-4
14:01:11:949652,6,4,-6,4,-10,-20,22,7
14:01:11:957217,-15,-5,19,-13,-90,-39,5,-6
14:01:11:965375,-15,-5,19,-13,-90,-39,5,-6
14:01:11:966180,-5,-4,-11,-25,20,33,-8,-3
14:01:11:979735,3,0,-8,50,14,-21,-17,0
14:01:11:987933,3,0,-8,50,14,-21,-17,0
14:01:11:988662,0,3,59,36,-42,-8,-10,-3
14:01:11:994705,5,10,26,-22,-5,46,4,0
14:01:12:2163,5,10,26,-22,-5,46,4,0
14:01:12:9687,1,-8,-27,4,38,-15,-4,-5
14:01:12:17066,4,9,9,17,2,27,11,2
14:01:12:25423,4,9,9,17,2,27,11,2
14:01:12:26159,-1,12,-24,-91,-12,8,-5,-2
14:01:12:39769,0,-11,7,5,-37,-22,7,-2
14:01:12:47851,0,-11,7,5,-37,-22,7,-2
14:01:12:48689,-3,-7,8,1,-4,0,5,3
14:01:12:54633,3,-2,-33,-37,-8,19,-9,-8
14:01:12:62257,3,-2,-33,-37,-8,19,-9,-8
14:01:12:69671,-7,-20,-23,-26,27,46,40,1
14:01:12:77190,7,14,60,49,45,10,14,5
14:01:12:85328,7,14,60,49,45,10,14,5
14:01:12:86139,-5,-2,13,44,-23,-35,-24,-10
14:01:12:99643,-1,7,-5,-24,-34,-21,-3,0
14:01:12:107967,-1,7,-5,-24,-34,-21,-3,0
14:01:12:108619,2,-4,65,44,24,14,-3,2
14:01:12:114696,-2,-21,-22,-39,-28,-39,-14,-8
14:01:12:122353,-2,-21,-22,-39,-28,-39,-14,-8
14:01:12:129670,-1,12,-40,-23,-8,-16,-10,0
14:01:12:137133,-2,-4,9,27,15,7,2,2
14:01:12:145440,-2,-4,9,27,15,7,2,2
14:01:12:146184,6,-6,-39,-2,5,22,7,2
14:01:12:159696,-7,-16,-25,-60,-8,0,0,-6
14:01:12:167914,-7,-16,-25,-60,-8,0,0,-6
14:01:12:168627,6,8,17,8,-7,-9,-8,3
14:01:12:174692,-1,-15,-30,-27,-7,-1,-1,4
14:01:12:182251,-1,-15,-30,-27,-7,-1,-1,4
14:01:12:189691,-1,-1,8,75,39,19,3,3
14:01:12:197204,-7,-11,-59,-45,-4,10,5,-1
14:01:12:205426,-7,-11,-59,-45,-4,10,5,-1
14:01:12:206068,-2,6,46,-10,1,-8,-21,-11
14:01:12:219635,-3,4,1,30,-23,-57,-42,-8
14:01:12:236008,-3,4,1,30,-23,-57,-42,-8
14:01:12:236757,2,4,-16,8,58,23,8,4
14:01:12:237617,3,17,4,19,33,16,14,5
14:01:12:242231,3,17,4,19,33,16,14,5
14:01:12:249631,-16,-10,-24,-20,-36,-21,-5,-2
14:01:12:257171,-5,-24,-20,-27,-16,-18,-15,-3
14:01:12:265435,-5,-24,-20,-27,-16,-18,-15,-3
14:01:12:266162,4,-3,31,62,5,-3,3,-1
14:01:12:279661,7,33,68,23,8,10,12,2
14:01:12:287909,7,33,68,23,8,10,12,2
14:01:12:288620,-2,-2,-32,-34,-8,-7,-13,-3
14:01:12:294728,2,1,-7,2,-31,10,10,-3
14:01:12:302199,2,1,-7,2,-31,10,10,-3
14:01:12:309715,5,13,-22,-35,-1,47,1,3
14:01:12:317123,-2,0,35,37,7,-7,-1,1
14:01:12:325394,-2,0,35,37,7,-7,-1,1
14:01:12:326131,-4,-5,23,-42,-63,-35,-5,-4
14:01:12:339678,0,-3,21,57,39,21,13,4
14:01:12:347864,0,-3,21,57,39,21,13,4
14:01:12:348631,7,20,36,33,18,-22,-18,1
14:01:12:354703,-3,-17,-54,-31,-36,-21,0,0
14:01:12:362193,-3,-17,-54,-31,-36,-21,0,0
14:01:12:369634,-4,-3,68,23,17,25,24,0
14:01:12:377254,-8,-11,-55,14,8,-18,-20,-9
14:01:12:385314,-8,-11,-55,14,8,-18,-20,-9
14:01:12:386105,-8,-14,7,-55,-17,-7,-5,0
14:01:12:399617,-9,-15,8,-10,6,14,7,-4
14:01:12:407916,-9,-15,8,-10,6,14,7,-4
14:01:12:408622,3,8,16,2,-30,-30,0,-5
14:01:12:414665,-4,-11,-66,-24,-8,20,24,-7
14:01:12:422242,-4,-11,-66,-24,-8,20,24,-7
14:01:12:429661,-3,-10,-19,14,37,6,8,-2
14:01:12:437117,10,22,18,21,19,47,27,7
14:01:12:445387,10,22,18,21,19,47,27,7
14:01:12:446154,-3,-13,-58,-34,-31,-26,-7,-7
14:01:12:459738,-1,3,-17,-29,-8,7,-17,-4
14:01:12:467836,-1,3,-17,-29,-8,7,-17,-4
14:01:12:468594,9,11,18,45,63,31,12,12
14:01:12:474626,-2,2,44,24,-29,-36,-12,-9
14:01:12:482202,-2,2,44,24,-29,-36,-12,-9
14:01:12:489717,-4,-29,-95,-16,-30,-23,-22,-9
14:01:12:497173,-3,6,38,5,18,2,12,-2
14:01:12:505803,-3,6,38,5,18,2,12,-2
14:01:12:512173,-4,3,-28,-18,-41,-3,-16,-6
14:01:12:519616,-1,-15,52,24,3,-4,-16,3
14:01:12:528017,-1,-15,52,24,3,-4,-16,3
14:01:12:528654,0,21,4,-47,12,-5,-4,2
14:01:12:534622,1,-8,13,-12,-15,-22,-18,3
14:01:12:542290,1,-8,13,-12,-15,-22,-18,3
14:01:12:549707,-5,-8,23,-14,-62,-20,-3,-9
14:01:12:557264,3,8,-4,7,24,50,26,0
14:01:12:565385,3,8,-4,7,24,50,26,0
14:01:12:566149,6,18,-20,2,6,2,19,12
14:01:12:579743,-10,-22,-50,-7,-33,-24,-32,-5
14:01:12:587843,-10,-22,-50,-7,-33,-24,-32,-5
14:01:12:588606,-1,-3,21,32,17,-3,-4,-2
14:01:12:594721,11,32,37,24,32,19,18,1
14:01:12:602183,11,32,37,24,32,19,18,1
14:01:12:609752,-8,-24,-9,-12,-13,-40,-14,-6
14:01:12:617097,1,18,-19,-5,38,17,3,-2
14:01:12:625437,1,18,-19,-5,38,17,3,-2
14:01:12:626173,-9,-27,-6,4,14,55,27,3
14:01:12:639752,-11,-38,-31,-1,-3,-18,-29,-11
14:01:12:647851,-11,-38,-31,-1,-3,-18,-29,-11
14:01:12:648663,-5,-10,-28,66,32,-15,-20,-6
14:01:12:654589,2,26,8,-4,11,20,11,4
14:01:12:662197,2,26,8,-4,11,20,11,4
14:01:12:669636,-3,6,12,-17,-42,-10,-2,1
14:01:12:677225,-1,34,9,-31,-25,-18,-3,0
14:01:12:685336,-1,34,9,-31,-25,-18,-3,0
14:01:12:686149,7,30,34,14,17,12,-7,2
14:01:12:699634,-6,-27,8,0,-8,-17,18,-5
14:01:12:707978,-6,-27,8,0,-8,-17,18,-5
14:01:12:708678,-6,-8,-7,-22,-22,-32,-12,-12
14:01:12:714630,7,0,15,8,-25,-6,0,10
14:01:12:722315,7,0,15,8,-25,-6,0,10
14:01:12:729637,8,28,39,3,6,11,-8,5
14:01:12:737135,-8,-54,-48,35,-4,-32,-18,-2
14:01:12:745437,-8,-54,-48,35,-4,-32,-18,-2
14:01:12:746175,-4,49,36,-5,55,44,21,3
14:01:12:759779,8,10,15,-20,-15,-12,1,6
14:01:12:767873,8,10,15,-20,-15,-12,1,6
14:01:12:768621,-7,-21,10,-10,-6,7,-8,0
14:01:12:774700,-9,-3,3,2,5,-4,-17,-42
14:01:12:782248,-9,-3,3,2,5,-4,-17,-42
14:01:12:789744,3,17,-46,-13,-27,-4,8,1
14:01:12:797206,4,5,8,-5,22,6,-5,6
14:01:12:805483,4,5,8,-5,22,6,-5,6
14:01:12:806140,11,49,18,4,5,3,4,0
14:01:12:819627,4,-7,-28,-9,19,3,3,9
14:01:12:828079,4,-7,-28,-9,19,3,3,9
14:01:12:828652,-3,-19,-27,-5,-19,-11,6,-1
14:01:12:834677,6,13,-29,-14,-8,8,3,7
14:01:12:842248,6,13,-29,-14,-8,8,3,7
14:01:12:849675,7,-10,-43,-26,-7,-5,-3,1
14:01:12:857254,9,7,2,16,14,3,3,8
14:01:12:864699,9,7,2,16,14,3,3,8
14:01:12:872240,-10,-50,-22,-16,-17,8,7,-5
14:01:12:879633,2,11,-13,13,8,13,7,10
14:01:12:887937,2,11,-13,13,8,13,7,10
14:01:12:888590,5,-2,32,48,28,-6,-16,-2
14:01:12:902807,-4,31,0,-10,-12,2,0,-8
14:01:12:903617,-4,31,0,-10,-12,2,0,-8
14:01:12:909700,-5,-11,-3,-15,7,4,9,-2
14:01:12:917055,-5,11,9,-8,-15,-28,-12,-2
14:01:12:924799,-5,11,9,-8,-15,-28,-12,-2
14:01:12:932132,-6,-15,-34,-5,-11,14,48,32
14:01:12:939717,-13,-17,36,6,-11,-1,-15,-19
14:01:12:947937,-13,-17,36,6,-11,-1,-15,-19
14:01:12:948670,5,-12,16,30,37,-5,-20,-8
14:01:12:962828,4,-11,7,-38,-40,-27,5,17
14:01:12:963643,4,-11,7,-38,-40,-27,5,17
14:01:12:969666,-2,20,3,13,9,-1,-11,-11
14:01:12:977187,-5,-12,-18,1,0,-19,-7,-8
14:01:12:984741,-5,-12,-18,1,0,-19,-7,-8
14:01:12:992204,11,-11,-3,8,10,12,11,4
14:01:12:999626,-1,-7,-8,-16,-10,-19,-26,2
14:01:13:7927,-1,-7,-8,-16,-10,-19,-26,2
14:01:13:8663,3,12,18,-2,5,48,56,6
14:01:13:22936,4,-4,30,3,-1,1,33,18
14:01:13:23619,4,-4,30,3,-1,1,33,18
14:01:13:29653,-3,-5,0,-5,-21,-36,-33,-11
14:01:13:37124,0,4,-18,-2,6,5,-4,-4
14:01:13:44775,0,4,-18,-2,6,5,-4,-4
14:01:13:52131,-4,-9,-17,-19,28,-6,-6,0
14:01:13:59732,-2,5,-8,-13,11,1,-21,-13
14:01:13:67839,-2,5,-8,-13,11,1,-21,-13
14:01:13:68613,-7,38,5,-16,-30,-10,-4,-5
14:01:13:82798,-6,0,-24,1,14,2,-3,-3
14:01:13:83593,-6,0,-24,1,14,2,-3,-3
14:01:13:89708,-2,44,2,-4,-14,32,15,2
14:01:13:97196,1,-11,-14,-5,-8,24,28,-3
14:01:13:104697,1,-11,-14,-5,-8,24,28,-3
14:01:13:112258,3,-15,18,10,12,-30,-27,-7
14:01:13:119682,1,-3,-26,-23,7,11,1,1
14:01:13:127936,1,-3,-26,-23,7,11,1,1
14:01:13:128585,5,-32,-7,11,22,0,3,0
14:01:13:142956,-2,34,50,24,18,12,5,4
14:01:13:143641,-2,34,50,24,18,12,5,4
14:01:13:149650,-7,13,100,18,-20,-18,-14,-9
14:01:13:157195,-8,-10,-36,-22,-30,-23,-19,-6
14:01:13:164738,-8,-10,-36,-22,-30,-23,-19,-6
14:01:13:172191,-4,-20,0,11,-10,2,-15,0
14:01:13:179676,8,-2,8,11,3,22,4,8
14:01:13:187920,8,-2,8,11,3,22,4,8
14:01:13:188728,-2,-24,-61,-52,-12,-2,-10,-1
14:01:13:202811,-1,-19,-51,40,6,-1,-9,1
14:01:13:203647,-1,-19,-51,40,6,-1,-9,1
14:01:13:209710,-6,-18,-57,-35,-5,-3,-9,-9
14:01:13:217049,-1,-11,58,13,22,-15,0,-6
14:01:13:224711,-1,-11,58,13,22,-15,0,-6
14:01:13:232146,0,11,-62,-18,-12,7,20,2
14:01:13:239719,0,-38,-7,-8,-16,1,10,1
14:01:13:247917,0,-38,-7,-8,-16,1,10,1
14:01:13:248671,-13,-30,20,4,-5,-8,-9,-8
14:01:13:262881,1,12,-4,11,-1,-20,-17,-2
14:01:13:263637,1,12,-4,11,-1,-20,-17,-2
14:01:13:269634,8,62,83,31,11,25,19,7
14:01:13:277216,-6,-22,-17,-12,-20,24,12,0
14:01:13:284673,-6,-22,-17,-12,-20,24,12,0
14:01:13:292195,-3,-30,-12,8,18,-29,-23,-3
14:01:13:299663,7,16,7,-17,-5,26,34,12
14:01:13:307956,7,16,7,-17,-5,26,34,12
14:01:13:308685,-4,-20,-57,1,16,15,5,0
14:01:13:322934,-5,-14,-11,-8,-24,-23,-13,-9
14:01:13:323695,-5,-14,-11,-8,-24,-23,-13,-9
14:01:13:329662,4,-2,43,7,5,-6,-11,2
14:01:13:337157,4,47,25,5,3,-3,-9,-1
14:01:13:344782,4,47,25,5,3,-3,-9,-1
14:01:13:352131,0,14,18,-5,-29,-21,20,-8
14:01:13:359735,2,3,21,3,19,-18,-3,7
14:01:13:367813,2,3,21,3,19,-18,-3,7
14:01:13:368607,-1,-10,1,0,-23,-20,-16,-3
14:01:13:382837,2,24,43,19,28,-5,-18,5
14:01:13:383586,2,24,43,19,28,-5,-18,5
14:01:13:389682,-4,4,9,8,-16,-6,-15,-12
14:01:13:397181,-8,-18,-57,-32,-4,-3,-2,2
14:01:13:404688,-8,-18,-57,-32,-4,-3,-2,2
14:01:13:412195,3,14,-26,12,-6,-8,-1,1
14:01:13:419661,2,-10,-40,-9,16,14,4,-6
14:01:13:427927,2,-10,-40,-9,16,14,4,-6
14:01:13:428608,-4,-35,-56,2,18,5,9,5
14:01:13:442937,-5,4,7,4,-2,19,36,-3
14:01:13:443621,-5,4,7,4,-2,19,36,-3
14:01:13:449603,-10,4,-3,6,-3,-8,-32,-24
14:01:13:457143,-1,25,22,10,-17,14,-1,1
14:01:13:464710,-1,25,22,10,-17,14,-1,1
14:01:13:472198,5,-17,-16,-1,28,1,4,17
14:01:13:480392,-7,7,-42,0,-24,-17,-8,-8
14:01:13:481181,-7,7,-42,0,-24,-17,-8,-8
14:01:13:487187,-11,-29,22,6,3,49,65,5
14:01:13:502829,7,15,10,-2,3,-11,2,9
14:01:13:503596,7,15,10,-2,3,-11,2,9
14:01:13:509725,10,17,14,11,10,-13,-38,-10
14:01:13:517072,-1,-1,64,9,-11,-5,-1,-5
14:01:13:524772,-1,-1,64,9,-11,-5,-1,-5
14:01:13:532124,6,15,59,35,2,-3,1,16
14:01:13:540453,3,-3,-39,-13,10,-14,-33,-4
14:01:13:541160,3,-3,-39,-13,10,-14,-33,-4
14:01:13:547169,-12,-35,16,6,5,12,2,-4
14:01:13:562887,-4,-41,-34,3,-6,-4,6,-5
14:01:13:563689,-4,-41,-34,3,-6,-4,6,-5
14:01:13:569655,-6,-4,-22,-18,-4,-11,-8,-10
14:01:13:577234,0,-1,76,27,19,24,8,-12
14:01:13:584741,0,-1,76,27,19,24,8,-12
14:01:13:592184,2,14,-18,-32,-23,-6,-1,8
14:01:13:600282,-14,-41,-68,-25,-25,-17,-28,2
14:01:13:601081,-14,-41,-68,-25,-25,-17,-28,2
14:01:13:607212,6,17,-8,8,40,36,4,-1
14:01:13:622953,-21,-49,10,12,-13,18,6,-20
14:01:13:623662,-21,-49,10,12,-13,18,6,-20
14:01:13:629670,1,1,-53,-26,-14,-29,-19,-3
14:01:13:637155,9,13,6,-34,2,-5,-1,6
14:01:13:644807,9,13,6,-34,2,-5,-1,6
14:01:13:652151,-7,-17,-60,-37,-11,-14,1,-4
14:01:13:660407,11,41,2,4,23,-3,-9,6
14:01:13:661090,11,41,2,4,23,-3,-9,6
14:01:13:667074,7,24,67,-8,-11,78,78,6
14:01:13:682804,-3,13,-19,2,2,9,-12,-20
14:01:13:683645,-3,13,-19,2,2,9,-12,-20
14:01:13:689739,9,10,-2,16,-1,1,20,5
14:01:13:697227,5,-60,-12,15,18,14,17,11
14:01:13:704717,5,-60,-12,15,18,14,17,11
14:01:13:712132,-4,-7,-28,-22,-13,-37,-31,-3
14:01:13:720410,-6,-4,-15,-13,-9,-28,-12,6
14:01:13:721256,-6,-4,-15,-13,-9,-28,-12,6
14:01:13:727208,3,-26,26,10,15,-3,-9,3
14:01:13:742976,-1,53,51,3,-1,55,65,9
14:01:13:743625,-1,53,51,3,-1,55,65,9
14:01:13:749630,-2,-16,18,12,5,33,31,-5
14:01:13:757204,-5,13,-38,-15,-10,8,-2,-6
14:01:13:764724,-5,13,-38,-15,-10,8,-2,-6
14:01:13:772244,3,20,27,28,18,-17,-2,9
14:01:13:779623,5,16,1,-5,-4,-8,-6,11
14:01:13:787946,5,16,1,-5,-4,-8,-6,11
14:01:13:788627,-5,-11,13,-7,-11,-26,-35,-4
14:01:13:802880,2,19,14,12,-1,-4,-8,-10
14:01:13:803618,2,19,14,12,-1,-4,-8,-10
14:01:13:809702,-8,25,-28,-14,-12,-27,-32,-2
14:01:13:825412,3,-4,51,-1,5,19,37,2
14:01:13:826155,3,-4,51,-1,5,19,37,2
14:01:13:832104,-2,41,35,6,-2,-9,-13,-8
14:01:13:839687,5,-6,-21,0,-5,-22,-21,1
14:01:13:847212,5,-6,-21,0,-5,-22,-21,1
14:01:13:854643,-1,32,27,3,-11,-14,-9,0
14:01:13:862877,-3,1,29,15,-8,-11,-26,-5
14:01:13:863673,-3,1,29,15,-8,-11,-26,-5
14:01:13:869603,-16,-74,-83,5,0,3,-9,-8
14:01:13:885320,-10,-31,-9,-11,-7,-28,-6,1
14:01:13:886111,-10,-31,-9,-11,-7,-28,-6,1
14:01:13:892213,6,10,7,-5,18,32,19,2
14:01:13:907855,6,7,-6,4,3,-24,-26,4
14:01:13:908655,6,7,-6,4,3,-24,-26,4
14:01:13:914648,-5,-26,-12,-13,-13,22,4,-5
14:01:13:930985,-4,-9,-1,14,1,12,-6,5
14:01:13:931799,-4,-9,-1,14,1,12,-6,5
14:01:13:932618,-3,-23,-9,-5,-10,-26,-9,1
14:01:13:945815,-1,-26,1,22,22,-5,-5,-5
14:01:13:946595,-1,-26,1,22,22,-5,-5,-5
14:01:13:952097,2,4,37,7,-3,-6,-1,0
14:01:13:960411,-5,-1,-30,-31,-39,-25,2,-4
14:01:13:961176,-5,-1,-30,-31,-39,-25,2,-4
14:01:13:974623,2,28,-15,1,13,30,41,4
14:01:13:982825,-7,5,9,-10,-2,-10,-5,-6
14:01:13:983605,-7,5,9,-10,-2,-10,-5,-6
14:01:13:989714,-1,-49,-21,-8,-15,-23,-41,-7
14:01:14:5476,-16,-16,-11,-29,-47,-10,2,-10
14:01:14:6170,-16,-16,-11,-29,-47,-10,2,-10
14:01:14:12218,2,7,10,17,36,7,-2,5
14:01:14:20332,10,-11,-35,-14,4,-8,-8,-3
14:01:14:21121,10,-11,-35,-14,4,-8,-8,-3
14:01:14:34663,3,11,-24,-21,-22,-8,4,3
14:01:14:42937,6,33,28,12,-9,0,7,3
14:01:14:43724,6,33,28,12,-9,0,7,3
14:01:14:49641,24,13,-31,-4,15,35,17,24
14:01:14:65382,3,1,9,3,6,25,24,15
14:01:14:66161,3,1,9,3,6,25,24,15
14:01:14:72277,-9,-37,12,-4,-17,-23,-27,-16
14:01:14:80415,-5,34,47,5,-2,0,-5,-4
14:01:14:81175,-5,34,47,5,-2,0,-5,-4
14:01:14:94674,-9,-6,3,17,-32,-15,-5,-5
14:01:14:102855,8,-10,8,22,16,3,2,4
14:01:14:103617,8,-10,8,22,16,3,2,4
14:01:14:109719,0,21,21,7,2,-13,-25,-14
14:01:14:125407,6,-6,-12,-6,10,15,-21,0
14:01:14:126150,6,-6,-12,-6,10,15,-21,0
14:01:14:132129,-5,16,26,3,32,-8,-62,-21
14:01:14:140383,15,-6,-19,1,26,5,65,28
14:01:14:141158,15,-6,-19,1,26,5,65,28
14:01:14:154638,-4,4,10,-14,-30,-30,55,7
14:01:14:162884,6,11,-26,5,8,-13,-3,-10
14:01:14:163646,6,11,-26,5,8,-13,-3,-10
14:01:14:169632,-10,-22,-9,-2,-2,3,33,8
14:01:14:185303,17,-1,9,-11,-10,1,-13,-21
14:01:14:186129,17,-1,9,-11,-10,1,-13,-21
14:01:14:192152,-8,-7,-47,-25,-8,-11,-103,-37
14:01:14:200306,-20,-12,22,10,11,20,1,-2
14:01:14:201128,-20,-12,22,10,11,20,1,-2
14:01:14:214647,5,4,-5,35,58,21,30,17
14:01:14:222937,-7,-34,-7,-14,-14,5,15,10
14:01:14:223655,-7,-34,-7,-14,-14,5,15,10
14:01:14:229584,-9,9,0,-13,-20,-8,4,2
14:01:14:245416,-9,9,0,-13,-20,-8,4,2
14:01:14:246152,-10,-30,-8,6,-28,-28,-1,-12
14:01:14:252095,10,22,15,22,9,5,21,11
14:01:14:267797,10,22,15,22,9,5,21,11
14:01:14:268638,-17,17,-11,0,24,15,-20,-11
14:01:14:274622,13,-11,-9,-53,-23,6,18,8
14:01:14:282897,13,-11,-9,-53,-23,6,18,8
14:01:14:283618,12,27,28,21,21,9,-6,-2
14:01:14:289684,7,-18,-4,-21,-22,-8,-1,-5
14:01:14:305478,7,-18,-4,-21,-22,-8,-1,-5
14:01:14:306118,-5,5,-14,-20,-11,-25,-37,-3
14:01:14:312135,2,19,35,26,11,15,32,3
14:01:14:327911,2,19,35,26,11,15,32,3
14:01:14:328619,-6,1,-16,13,18,-8,18,3
14:01:14:334647,-9,-10,9,7,-10,0,7,0
14:01:14:342995,-9,-10,9,7,-10,0,7,0
14:01:14:343632,-7,16,-11,-21,31,16,-3,0
14:01:14:349608,-21,-23,-4,-1,-15,-12,21,1
14:01:14:365332,-21,-23,-4,-1,-15,-12,21,1
14:01:14:366134,2,-11,8,3,-19,-3,-46,-19
14:01:14:372302,5,12,-27,-19,4,-4,-12,2
14:01:14:387851,5,12,-27,-19,4,-4,-12,2
14:01:14:388609,-2,10,15,7,-7,12,29,2
14:01:14:394744,-2,-8,-15,18,18,-5,-6,0
14:01:14:402821,-2,-8,-15,18,18,-5,-6,0
14:01:14:403592,-10,-20,23,-27,1,-5,3,-1
14:01:14:409734,-5,-8,-10,-4,11,82,67,6
14:01:14:425354,-5,-8,-10,-4,11,82,67,6
14:01:14:426117,25,-18,-20,-18,-33,-12,37,22
14:01:14:432123,8,-7,-42,-16,-7,-26,-39,-3
14:01:14:447947,8,-7,-42,-16,-7,-26,-39,-3
14:01:14:448660,-5,-6,7,25,-2,4,6,6
14:01:14:454641,3,18,-19,-7,-16,-21,-11,-3
14:01:14:462951,3,18,-19,-7,-16,-21,-11,-3
14:01:14:463630,3,34,12,16,-8,-13,-20,-5
14:01:14:469669,-2,7,0,18,24,13,-4,1
14:01:14:485378,-2,7,0,18,24,13,-4,1
14:01:14:486147,-8,-4,35,-6,7,80,79,9
14:01:14:492182,2,35,24,16,22,8,7,2
14:01:14:507872,2,35,24,16,22,8,7,2
14:01:14:508692,6,9,-43,-8,-17,-47,-28,-3
14:01:14:514634,-10,-31,8,-30,-9,-6,40,11
14:01:14:523084,-10,-31,8,-30,-9,-6,40,11
14:01:14:523664,6,-13,-28,2,5,-5,-26,0
14:01:14:529692,3,-15,18,-21,-34,-26,-23,-1
14:01:14:545423,3,-15,18,-21,-34,-26,-23,-1
14:01:14:546169,15,21,-9,-19,-7,-12,-21,-8
14:01:14:552138,3,-33,14,14,2,-15,-16,-3
14:01:14:567818,3,-33,14,14,2,-15,-16,-3
14:01:14:568615,5,3,46,-11,-9,7,-11,-1
14:01:14:574623,3,33,-8,17,8,22,-40,-8
14:01:14:582934,3,33,-8,17,8,22,-40,-8
14:01:14:583631,-26,-24,23,1,-16,-33,-46,-19
14:01:14:589676,-9,14,19,24,2,6,-13,-6
14:01:14:605541,-9,14,19,24,2,6,-13,-6
14:01:14:606149,42,-32,-24,3,17,3,18,13
14:01:14:612199,-14,23,6,-25,-36,-28,-3,-5
14:01:14:627941,-14,23,6,-25,-36,-28,-3,-5
14:01:14:628629,-31,-8,-16,6,-4,-5,-46,-9
14:01:14:634587,-2,-1,5,-17,-1,-12,6,-10
14:01:14:642960,-2,-1,5,-17,-1,-12,6,-10
14:01:14:643699,-13,0,20,16,17,15,7,-3
14:01:14:649603,13,1,-12,14,15,3,9,10
14:01:14:665405,13,1,-12,14,15,3,9,10
14:01:14:666151,-26,30,-12,-8,-10,0,37,-1
14:01:14:672217,-14,-20,43,23,-12,-29,-28,3
14:01:14:687886,-14,-20,43,23,-12,-29,-28,3
14:01:14:688654,7,49,42,8,16,4,50,3
14:01:14:694727,-4,-1,-122,-57,-18,-22,-49,-22
14:01:14:702872,-4,-1,-122,-57,-18,-22,-49,-22
14:01:14:703631,-11,-20,-10,4,-3,19,13,3
14:01:14:709720,14,0,45,17,7,15,11,2
14:01:14:725404,14,0,45,17,7,15,11,2
14:01:14:726104,-18,-3,13,-16,1,-13,-26,-12
14:01:14:732149,10,-12,28,-20,-9,12,12,1
14:01:14:747868,10,-12,28,-20,-9,12,12,1
14:01:14:748616,29,-24,-19,-31,-1,-14,8,9
14:01:14:754624,-5,27,1,8,8,2,-27,8
14:01:14:762878,-5,27,1,8,8,2,-27,8
14:01:14:763687,7,-33,-93,-12,11,0,-28,-2
14:01:14:777273,-11,-34,-17,-4,-7,-6,21,-8
14:01:14:785317,-11,-34,-17,-4,-7,-6,21,-8
14:01:14:786135,0,-3,4,7,6,-3,4,10
14:01:14:792169,-11,22,-1,18,-4,38,41,2
14:01:14:799704,-11,22,-1,18,-4,38,41,2
14:01:14:807221,1,13,53,30,8,13,-20,-9
14:01:14:814636,14,0,6,14,17,-8,-20,-2
14:01:14:822963,14,0,6,14,17,-8,-20,-2
14:01:14:823684,10,-20,-52,-24,-28,-14,-19,-2
14:01:14:837097,12,10,-31,-24,-1,5,17,3
14:01:14:845344,12,10,-31,-24,-1,5,17,3
14:01:14:846103,3,8,26,10,9,-11,-2,-8
14:01:14:852088,5,-9,0,-2,10,0,-14,4
14:01:14:859758,5,-9,0,-2,10,0,-14,4
14:01:14:867081,-9,17,8,-11,2,-2,-31,-4
14:01:14:874665,-6,-26,16,3,-11,-44,-9,-13
14:01:14:882915,-6,-26,16,3,-11,-44,-9,-13
14:01:14:883684,-7,5,-8,11,4,36,27,5
14:01:14:897182,3,10,27,1,-4,20,25,5
14:01:14:905451,3,10,27,1,-4,20,25,5
14:01:14:906185,6,3,16,37,8,-16,2,0
14:01:14:912172,21,-10,-5,37,-9,-10,9,5
14:01:14:919719,21,-10,-5,37,-9,-10,9,5
14:01:14:927258,14,2,1,-13,-44,-15,-16,-2
14:01:14:934617,-3,14,-1,-10,5,1,-13,7
14:01:14:942913,-3,14,-1,-10,5,1,-13,7
14:01:14:943619,-20,-3,-8,25,4,14,23,-1
14:01:14:957221,1,25,19,-9,-2,20,7,-3
14:01:14:965402,1,25,19,-9,-2,20,7,-3
14:01:14:966189,-19,-7,4,26,7,-19,-1,-5
14:01:14:972276,12,-14,26,-45,-7,-2,13,4
14:01:14:979699,12,-14,26,-45,-7,-2,13,4
14:01:14:987187,7,7,4,-19,4,-4,-21,-7
14:01:14:994765,-2,-17,-21,6,41,39,38,9
14:01:15:2822,-2,-17,-21,6,41,39,38,9
14:01:15:3651,-3,-4,-30,2,9,-4,-26,-7
14:01:15:17161,-27,-13,6,8,-19,-28,-22,-5
14:01:15:25415,-27,-13,6,8,-19,-28,-22,-5
14:01:15:26150,0,19,-11,-21,-9,-8,16,2
14:01:15:32155,-8,-18,-3,24,16,44,24,-4
14:01:15:39797,-8,-18,-3,24,16,44,24,-4
14:01:15:47134,-25,-15,-5,-28,-13,-16,-27,-3
14:01:15:54632,10,5,2,-2,-19,-31,-12,2
14:01:15:62909,10,5,2,-2,-19,-31,-12,2
14:01:15:63631,-7,13,7,5,10,4,1,-3
14:01:15:77234,-12,11,8,37,28,2,-8,-4
14:01:15:85334,-12,11,8,37,28,2,-8,-4
14:01:15:86092,-13,5,5,-5,-8,6,14,1
14:01:15:92183,-2,10,-56,-36,-24,-5,-4,-1
14:01:15:99657,-2,10,-56,-36,-24,-5,-4,-1
14:01:15:107200,0,-19,-1,-28,-24,-9,16,0
14:01:15:114633,-8,-25,-2,19,-6,-15,-10,-1
14:01:15:122967,-8,-25,-2,19,-6,-15,-10,-1
14:01:15:123612,1,16,-11,28,34,19,29,4
14:01:15:137108,4,4,-11,-16,-4,-20,-20,-15
14:01:15:145400,4,4,-11,-16,-4,-20,-20,-15
14:01:15:146141,23,-17,30,32,2,23,17,10
14:01:15:152111,-7,-15,4,-7,-6,-9,-1,4
14:01:15:159763,-7,-15,4,-7,-6,-9,-1,4
14:01:15:167087,-6,-6,-9,-18,-9,-15,14,1
14:01:15:174618,-2,-21,-1,1,-19,-19,-37,-12
14:01:15:182970,-2,-21,-1,1,-19,-19,-37,-12
14:01:15:183663,-5,-30,-15,10,-15,-7,-6,3
14:01:15:197146,7,16,9,-3,11,12,-14,1
14:01:15:205519,7,16,9,-3,11,12,-14,1
14:01:15:206155,13,9,-16,20,17,0,21,3
14:01:15:212189,-12,-6,2,10,17,7,6,-3
14:01:15:219696,-12,-6,2,10,17,7,6,-3
14:01:15:227267,-25,-8,17,-31,-12,-12,-42,-18
14:01:15:234616,-8,3,-11,-24,-2,15,34,1
14:01:15:242950,-8,3,-11,-24,-2,15,34,1
14:01:15:243594,1,-30,-10,14,1,-2,7,-7
14:01:15:266004,-7,7,2,-23,-19,-1,18,3
14:01:15:266865,-7,7,2,-23,-19,-1,18,3
14:01:15:267609,4,-4,14,-2,-16,-8,-11,-5
14:01:15:272281,-5,-5,-37,-25,-11,0,0,-4
14:01:15:279728,-5,-5,-37,-25,-11,0,0,-4
14:01:15:287185,6,26,3,-29,2,0,-32,-4
14:01:15:294713,-9,-12,9,17,0,-1,-1,-2
14:01:15:302825,-9,-12,9,17,0,-1,-1,-2
14:01:15:303588,29,18,9,4,20,7,-5,20
14:01:15:317132,8,18,43,-2,-11,-5,-8,9
14:01:15:325393,8,18,43,-2,-11,-5,-8,9
14:01:15:326164,-16,9,18,3,1,-19,-8,-7
14:01:15:332110,3,1,-23,-15,9,8,5,-1
14:01:15:339731,3,1,-23,-15,9,8,5,-1
14:01:15:347168,12,19,7,14,4,3,7,0
14:01:15:354676,14,-18,12,68,-4,-20,-2,-9
14:01:15:362859,14,-18,12,68,-4,-20,-2,-9
14:01:15:363604,-3,-8,-17,-19,-20,-10,-10,3
14:01:15:377213,-8,-12,19,59,19,15,15,-7
14:01:15:385296,-8,-12,19,59,19,15,15,-7
14:01:15:386073,-5,4,-10,-3,-7,13,12,2
14:01:15:392258,17,9,-10,-55,11,-1,10,-1
14:01:15:399681,17,9,-10,-55,11,-1,10,-1
14:01:15:407168,-6,-24,-17,14,-5,-3,4,3
14:01:15:414592,-1,13,20,4,-3,0,-19,1
14:01:15:422945,-1,13,20,4,-3,0,-19,1
14:01:15:423659,-6,-37,-47,-6,8,8,9,-4
14:01:15:437596,-5,0,-15,5,16,6,-19,4
14:01:15:445415,-5,0,-15,5,16,6,-19,4
14:01:15:446178,14,9,11,-19,17,6,11,2
14:01:15:452063,-9,5,17,-27,-22,1,17,0
14:01:15:459756,-9,5,17,-27,-22,1,17,0
14:01:15:467096,-2,-1,7,15,-22,-12,7,2
14:01:15:474659,11,12,-7,18,6,-18,-19,0
14:01:15:482883,11,12,-7,18,6,-18,-19,0
14:01:15:483623,-2,-8,9,-12,-1,4,-23,1
14:01:15:497151,-48,-10,22,-31,-27,-17,-39,-14
14:01:15:505518,-48,-10,22,-31,-27,-17,-39,-14
14:01:15:506143,-3,7,-4,10,1,7,6,-7
14:01:15:512199,7,-8,-50,-17,-6,4,4,-1
14:01:15:519692,7,-8,-50,-17,-6,4,4,-1
14:01:15:527238,-4,4,2,7,-9,-3,26,4
14:01:15:543639,9,-7,0,-4,4,7,-11,0
14:01:15:544351,9,-7,0,-4,4,7,-11,0
14:01:15:545128,-29,1,-19,6,7,1,-2,-3
14:01:15:557126,-4,3,-1,23,-11,-20,-19,-8
14:01:15:565409,-4,3,-1,23,-11,-20,-19,-8
14:01:15:566196,-16,-30,-3,-16,-9,-5,17,-8
14:01:15:572336,-9,1,3,-10,-6,-2,16,4
14:01:15:579743,-9,1,3,-10,-6,-2,16,4
14:01:15:587179,13,17,4,38,28,0,-12,1
14:01:15:594695,13,-6,-8,26,10,3,10,0
14:01:15:602191,13,-6,-8,26,10,3,10,0
14:01:15:609681,6,0,38,-11,-16,-20,-4,-1
14:01:15:617103,2,7,-6,-10,6,30,27,10
14:01:15:625389,2,7,-6,-10,6,30,27,10
14:01:15:626145,-5,-10,-13,-13,-19,-10,-26,-10
14:01:15:632165,13,2,11,8,10,5,-2,-3
14:01:15:639730,13,2,11,8,10,5,-2,-3
14:01:15:647132,13,-6,27,21,20,-2,0,4
14:01:15:654704,26,7,-5,-9,8,7,26,10
14:01:15:670295,26,7,-5,-9,8,7,26,10
14:01:15:671107,-30,-26,-21,-39,-12,2,-8,-8
14:01:15:677224,-22,-12,-11,-26,-13,-18,-13,-8
14:01:15:685321,-22,-12,-11,-26,-13,-18,-13,-8
14:01:15:686073,19,26,11,-4,14,19,19,13
14:01:15:700294,11,4,5,-16,-11,-8,-4,1
14:01:15:701096,11,4,5,-16,-11,-8,-4,1
14:01:15:715274,5,-4,-10,-2,2,5,8,-5
14:01:15:716070,8,22,0,1,-23,-20,-42,-7
14:01:15:722316,8,22,0,1,-23,-20,-42,-7
14:01:15:729676,2,10,7,25,-12,-6,3,4
14:01:15:737156,-17,-18,-13,0,8,8,-15,-3
14:01:15:745368,-17,-18,-13,0,8,8,-15,-3
14:01:15:746145,3,14,12,-17,3,6,-11,-15
14:01:15:760445,-15,11,18,7,-1,-4,5,-4
14:01:15:761153,-15,11,18,7,-1,-4,5,-4
14:01:15:767125,-2,-7,-14,-18,-6,-3,-3,-5
14:01:15:774654,20,-11,-6,-5,2,-12,-10,4
14:01:15:782152,20,-11,-6,-5,2,-12,-10,4
14:01:15:789739,-10,-14,-6,6,7,25,13,-2
14:01:15:797164,34,24,10,5,12,0,-4,13
14:01:15:805438,34,24,10,5,12,0,-4,13
14:01:15:806138,-2,-7,-12,-19,-18,-10,-21,-4
14:01:15:820292,-9,-15,4,-9,-17,-27,7,-9
14:01:15:821118,-9,-15,4,-9,-17,-27,7,-9
14:01:15:827249,-14,9,9,-20,-12,4,-5,0
14:01:15:834640,-27,-14,-5,10,5,1,-10,-6
14:01:15:842285,-27,-14,-5,10,5,1,-10,-6
14:01:15:849614,13,8,0,-6,11,-19,-28,6
14:01:15:857172,1,10,0,-1,-6,35,22,-3
14:01:15:865380,1,10,0,-1,-6,35,22,-3
14:01:15:866173,-6,2,-5,0,11,5,0,0
14:01:15:888517,-13,-3,-13,-10,-22,-18,-5,-2
14:01:15:889277,-13,-3,-13,-10,-22,-18,-5,-2
14:01:15:890091,-15,-3,4,3,7,-5,6,-1
14:01:15:894657,-2,-3,49,42,22,6,-6,3
14:01:15:902200,-2,-3,49,42,22,6,-6,3
14:01:15:909764,-2,7,12,17,-5,-3,0,0
14:01:15:917121,2,2,-36,-4,11,-12,25,-2
14:01:15:925395,2,2,-36,-4,11,-12,25,-2
14:01:15:926119,11,-17,-26,5,3,4,1,7
14:01:15:940345,-2,5,14,-9,6,12,13,-6
14:01:15:941081,-2,5,14,-9,6,12,13,-6
14:01:15:947146,19,-1,3,-4,-9,-8,-6,0
14:01:15:954699,-20,-9,-8,-1,-6,-11,-11,-2
14:01:15:962194,-20,-9,-8,-1,-6,-11,-11,-2
14:01:15:969593,-25,13,11,22,22,10,0,-4
14:01:15:977212,11,-25,-2,-11,-11,2,-6,0
14:01:15:992907,11,-25,-2,-11,-11,2,-6,0
14:01:15:993593,-2,-19,-2,13,-14,-10,11,0
14:01:16:285,-13,8,26,-12,-30,-12,-11,-5
14:01:16:1122,-13,8,26,-12,-30,-12,-11,-5
14:01:16:7153,17,2,8,-17,20,2,-3,7
14:01:16:14632,10,-9,-27,9,8,-1,-10,2
14:01:16:22351,10,-9,-27,9,8,-1,-10,2
14:01:16:29637,-18,2,22,4,3,-11,2,-13
14:01:16:37172,-6,22,-11,11,10,-5,-20,0
14:01:16:45386,-6,22,-11,11,10,-5,-20,0
14:01:16:46155,-1,0,-24,-22,-16,-2,12,4
14:01:16:60860,-9,5,-21,-12,4,4,-23,-12
14:01:16:61601,-9,5,-21,-12,4,4,-23,-12
14:01:16:67138,3,-4,-7,-11,-23,-15,-31,-6
14:01:16:74641,-7,6,-2,-2,21,68,55,11
14:01:16:82225,-7,6,-2,-2,21,68,55,11
14:01:16:89697,7,-2,-1,0,-7,-2,19,5
14:01:16:97157,1,-4,0,10,20,-15,-28,-6
14:01:16:105476,1,-4,0,10,20,-15,-28,-6
14:01:16:106224,-2,7,-15,-1,-3,2,-15,-9
14:01:16:120367,-6,-3,6,-5,-30,-19,6,-3
14:01:16:121163,-6,-3,6,-5,-30,-19,6,-3
14:01:16:127209,9,-3,24,16,25,24,26,7
14:01:16:134622,-17,-26,2,2,-8,-4,-28,-8
14:01:16:142284,-17,-26,2,2,-8,-4,-28,-8
14:01:16:149652,-12,-4,-7,-4,3,26,35,-4
14:01:16:166018,-13,-10,4,23,11,-33,-13,0
14:01:16:166827,-13,-10,4,23,11,-33,-13,0
14:01:16:167622,21,1,-4,3,11,5,10,7
14:01:16:180384,18,10,-7,-13,-7,-23,-17,0
14:01:16:181174,18,10,-7,-13,-7,-23,-17,0
14:01:16:187179,-5,-2,32,3,-15,-5,-10,-9
14:01:16:194738,-9,-11,6,-5,18,24,25,5
14:01:16:202250,-9,-11,6,-5,18,24,25,5
14:01:16:209714,1,3,7,11,11,-1,-26,-2
14:01:16:217105,20,0,-7,-26,-5,-10,7,8
14:01:16:225340,20,0,-7,-26,-5,-10,7,8
14:01:16:226109,-9,7,-35,-45,-23,-16,10,-2
14:01:16:240456,0,-21,-5,-20,-4,-7,7,2
14:01:16:241159,0,-21,-5,-20,-4,-7,7,2
14:01:16:247120,-21,-1,-3,5,-10,-12,-20,-11
14:01:16:254675,-25,-9,8,-11,23,37,15,-5
14:01:16:262179,-25,-9,8,-11,23,37,15,-5
14:01:16:269660,-2,-10,8,-3,-18,-19,-13,-6
14:01:16:277226,4,-12,-24,2,-20,-21,-6,-6
14:01:16:285346,4,-12,-24,2,-20,-21,-6,-6
14:01:16:286088,3,-1,2,18,-16,-14,-3,3
14:01:16:300355,14,19,16,19,11,9,15,6
14:01:16:301099,14,19,16,19,11,9,15,6
14:01:16:307171,-12,-22,-20,-5,-20,-11,-13,-7
14:01:16:314683,5,11,-4,5,18,20,13,-4
14:01:16:322273,5,11,-4,5,18,20,13,-4
14:01:16:337864,16,15,-9,-18,-21,-22,-17,5
14:01:16:338607,12,5,4,-21,-4,4,-14,-1
14:01:16:345364,12,5,4,-21,-4,4,-14,-1
14:01:16:346092,12,2,-3,9,16,9,6,5
14:01:16:360410,22,18,25,2,13,11,-4,3
14:01:16:361175,22,18,25,2,13,11,-4,3
14:01:16:367082,-10,0,7,-10,7,8,8,4
14:01:16:374697,-45,-24,-18,14,-18,-22,-8,-12
14:01:16:382251,-45,-24,-18,14,-18,-22,-8,-12
14:01:16:389726,-4,-11,-6,3,21,25,15,-2
14:01:16:397184,0,0,-8,4,-3,12,35,1
14:01:16:405468,0,0,-8,4,-3,12,35,1
14:01:16:406132,44,7,-8,6,23,25,53,31
14:01:16:420310,-5,2,-20,-1,-16,-26,-28,-1
14:01:16:421087,-5,2,-20,-1,-16,-26,-28,-1
14:01:16:427213,-3,-2,7,18,13,8,-6,-8
14:01:16:434653,3,-2,8,5,-4,-15,-13,-1
14:01:16:442241,3,-2,8,5,-4,-15,-13,-1
14:01:16:449614,-18,-10,-53,-9,11,-2,6,-1
14:01:16:457252,5,2,-9,18,-18,-4,-3,-6
14:01:16:465352,5,2,-9,18,-18,-4,-3,-6
14:01:16:466107,16,6,10,-4,0,-14,-7,-3
14:01:16:480075,1,-2,-4,-4,-15,-9,1,8
14:01:16:487831,1,-2,-4,-4,-15,-9,1,8
14:01:16:488627,-6,3,21,-14,-5,-9,-10,-14
14:01:16:494674,24,-1,7,-6,12,1,-19,8
14:01:16:502169,24,-1,7,-6,12,1,-19,8
14:01:16:509678,-3,5,-5,-15,-6,-20,-41,-3
14:01:16:517081,-13,-30,24,14,-2,8,-4,-3
14:01:16:525399,-13,-30,24,14,-2,8,-4,-3
14:01:16:526148,6,-9,5,22,-9,-9,-14,0
14:01:16:540463,-17,-13,-33,-29,0,7,11,-4
14:01:16:541144,-17,-13,-33,-29,0,7,11,-4
14:01:16:547125,-18,8,2,1,-4,5,-3,-7
14:01:16:554590,17,27,3,2,0,10,8,2
14:01:16:562217,17,27,3,2,0,10,8,2
14:01:16:569612,7,1,-1,-13,-5,13,17,1
14:01:16:577219,0,13,-10,-6,-18,33,46,13
14:01:16:585367,0,13,-10,-6,-18,33,46,13
14:01:16:586137,0,29,-5,-2,-9,-5,3,-1
14:01:16:600352,-2,2,-13,44,49,-3,-8,-3
14:01:16:601104,-2,2,-13,44,49,-3,-8,-3
14:01:16:615296,8,-4,17,17,0,3,-2,4
14:01:16:616083,-11,11,0,-19,-9,-13,-22,-10
14:01:16:622265,-11,11,0,-19,-9,-13,-22,-10
14:01:16:629641,-18,-26,0,-10,-18,-18,-16,-13
14:01:16:637133,11,-2,24,-6,-3,-13,1,2
14:01:16:644759,11,-2,24,-6,-3,-13,1,2
14:01:16:652101,-19,-18,0,-3,-2,-9,-6,-14
14:01:16:660446,1,-7,15,2,-8,5,-11,0
14:01:16:661188,1,-7,15,2,-8,5,-11,0
14:01:16:667097,-9,1,-21,-8,30,2,11,3
14:01:16:682846,-14,3,1,47,9,-3,8,-7
14:01:16:683625,-14,3,1,47,9,-3,8,-7
14:01:16:689723,11,-5,-9,-24,-23,-2,-8,4
14:01:16:697147,-8,-10,27,-1,-22,-18,-19,-6
14:01:16:704746,-8,-10,27,-1,-22,-18,-19,-6
14:01:16:720973,8,13,19,-5,29,6,3,6
14:01:16:721791,8,5,-17,-47,-14,-16,-2,3
14:01:16:722608,8,5,-17,-47,-14,-16,-2,3
14:01:16:727186,0,1,-5,-1,-5,80,66,10
14:01:16:742987,-1,2,-4,-8,5,-6,-13,-9
14:01:16:743707,-1,2,-4,-8,5,-6,-13,-9
14:01:16:749611,-10,-5,-9,-12,-15,-25,6,0
14:01:16:757209,-11,5,-16,6,9,-3,-3,-2
14:01:16:764692,-11,5,-16,6,9,-3,-3,-2
14:01:16:780981,-4,-18,18,56,-18,-8,-8,2
14:01:16:781817,-2,-8,13,-2,2,0,7,5
14:01:16:782648,-2,-8,13,-2,2,0,7,5
14:01:16:787133,7,-2,-20,-5,8,16,-14,-3
14:01:16:802855,-13,-36,-30,-27,-9,-9,7,-2
14:01:16:803586,-13,-36,-30,-27,-9,-9,7,-2
14:01:16:809648,3,8,6,-1,-18,-35,-13,-3
14:01:16:817056,-14,7,0,5,16,22,13,-9
14:01:16:824673,-14,7,0,5,16,22,13,-9
14:01:16:832154,-14,0,9,-6,-21,-8,-13,-10
14:01:16:840396,-11,13,-9,-21,-2,5,4,-2
14:01:16:841108,-11,13,-9,-21,-2,5,4,-2
14:01:16:847156,2,5,-15,-10,-12,-24,-37,-4
14:01:16:862878,-5,-5,-2,-6,-3,-6,-7,-2
14:01:16:863630,-5,-5,-2,-6,-3,-6,-7,-2
14:01:16:869636,-14,-1,2,1,26,26,21,-10
14:01:16:877216,13,23,9,16,11,7,-7,4
14:01:16:884680,13,23,9,16,11,7,-7,4
14:01:16:892196,-1,2,16,-13,-12,-21,-7,3
14:01:16:900251,3,8,9,-6,-16,1,-2,-8
14:01:16:901068,3,8,9,-6,-16,1,-2,-8
14:01:16:907236,-4,5,2,28,34,23,4,-5
14:01:16:923008,7,-12,-1,-1,-15,-16,-13,-4
14:01:16:923678,7,-12,-1,-1,-15,-16,-13,-4
14:01:16:929674,6,-6,-18,-13,1,-4,-14,0
14:01:16:937146,9,-6,0,1,-16,3,17,4
14:01:16:944749,9,-6,0,1,-16,3,17,4
14:01:16:952101,12,-2,20,3,-4,-7,14,6
14:01:16:960370,7,-3,-7,3,20,10,-1,2
14:01:16:961094,7,-3,-7,3,20,10,-1,2
14:01:16:967039,20,20,-11,-21,-14,-8,-6,10
14:01:16:982818,-6,-2,-18,-14,-13,3,8,-5
14:01:16:983607,-6,-2,-18,-14,-13,3,8,-5
14:01:16:997859,0,-10,8,24,3,0,-3,0
14:01:16:998615,-4,12,47,2,8,-16,-24,-2
14:01:17:4770,-4,12,47,2,8,-16,-24,-2
14:01:17:12212,-1,-6,-7,-6,3,26,0,-1
14:01:17:20296,-11,-2,-21,-15,-10,-11,-13,-5
14:01:17:21146,-11,-2,-21,-15,-10,-11,-13,-5
14:01:17:27403,15,12,9,-24,-7,-15,-35,-1
14:01:17:42939,2,-16,-47,-11,-13,2,4,-4
14:01:17:43686,2,-16,-47,-11,-13,2,4,-4
14:01:17:49601,-5,-17,-17,-4,7,-24,-2,-8
14:01:17:57240,-2,15,21,8,4,6,-8,15
14:01:17:64707,-2,15,21,8,4,6,-8,15
14:01:17:72268,-26,-14,-9,-1,24,60,37,-3
14:01:17:80348,16,-10,-14,-12,-6,-9,14,10
14:01:17:81122,16,-10,-14,-12,-6,-9,14,10
14:01:17:87121,7,1,-1,16,4,-16,-59,-17
14:01:17:103249,-22,-29,4,7,-6,-3,-2,-10
14:01:17:104048,-22,-29,4,7,-6,-3,-2,-10
14:01:17:109803,1,14,28,-9,-10,-9,42,-3
14:01:17:125448,16,14,11,19,2,-22,-14,-1
14:01:17:126116,16,14,11,19,2,-22,-14,-1
14:01:17:132133,-18,-14,-11,-21,-35,16,9,4
14:01:17:140392,35,6,-15,11,31,25,0,13
14:01:17:141105,35,6,-15,11,31,25,0,13
14:01:17:147202,0,9,-2,8,-4,-10,-9,-5
14:01:17:163266,1,8,6,26,9,1,-13,-7
14:01:17:170397,1,8,6,26,9,1,-13,-7
14:01:17:171155,11,-5,10,15,3,-5,33,23
14:01:17:177241,-41,-6,-11,1,-19,-5,-3,-10
14:01:17:184651,-41,-6,-11,1,-19,-5,-3,-10
14:01:17:192294,-5,5,-4,7,-8,0,-34,-6
14:01:17:200294,1,-2,14,1,17,11,24,0
14:01:17:201101,1,-2,14,1,17,11,24,0
14:01:17:207200,-1,-17,-18,0,1,-20,0,-5
14:01:17:222973,-4,-5,27,7,-13,-19,-8,-3
14:01:17:223778,-4,-5,27,7,-13,-19,-8,-3
14:01:17:229667,1,-2,-5,-7,7,59,18,1
14:01:17:237179,-20,-8,-4,-14,-9,17,9,-5
14:01:17:244759,-20,-8,-4,-14,-9,17,9,-5
14:01:17:252183,29,11,19,-11,-9,-18,-8,6
14:01:17:260386,0,-14,-27,4,12,27,15,6
14:01:17:261105,0,-14,-27,4,12,27,15,6
14:01:17:267138,-17,-17,-22,-6,-5,-25,-5,-8
14:01:17:282892,6,4,0,-2,7,-6,11,-4
14:01:17:283625,6,4,0,-2,7,-6,11,-4
14:01:17:289679,2,-9,-12,-12,21,-4,36,8
14:01:17:297194,2,6,16,-20,-22,-23,-24,-5
14:01:17:304758,2,6,16,-20,-22,-23,-24,-5
14:01:17:312160,-3,5,-3,23,4,-11,-6,1
14:01:17:320371,4,-1,-3,-9,-18,-8,-7,-1
14:01:17:321199,4,-1,-3,-9,-18,-8,-7,-1
14:01:17:327919,-3,-3,8,16,14,0,-15,-6
14:01:17:342961,4,-4,1,18,2,15,5,8
14:01:17:343669,4,-4,1,18,2,15,5,8
14:01:17:349621,-1,0,2,-23,4,15,0,-7
14:01:17:357220,-4,23,6,-3,7,33,40,-6
14:01:17:364698,-4,23,6,-3,7,33,40,-6
14:01:17:381037,14,-3,-6,-13,4,0,3,-2
14:01:17:381818,1,-6,-11,-5,9,-16,-15,1
14:01:17:382643,1,-6,-11,-5,9,-16,-15,1
14:01:17:387179,-21,-2,16,5,-10,-23,-22,-4
14:01:17:402875,-4,2,3,-6,-11,-32,-35,-7
14:01:17:403624,-4,2,3,-6,-11,-32,-35,-7
14:01:17:409698,-16,-3,-9,1,3,-10,-5,-4
14:01:17:417094,21,7,-2,-13,-13,-4,-15,1
14:01:17:424742,21,7,-2,-13,-13,-4,-15,1
14:01:17:432157,7,11,1,-19,-2,-4,-5,-2
14:01:17:440383,0,-11,-9,-22,-3,-8,-4,-3
14:01:17:441141,0,-11,-9,-22,-3,-8,-4,-3
14:01:17:447164,10,-10,-10,11,-8,-12,6,1
14:01:17:462910,-22,2,8,1,15,28,18,-2
14:01:17:463693,-22,2,8,1,15,28,18,-2
14:01:17:469599,11,7,8,11,-9,-8,-16,3
14:01:17:477252,-19,-1,4,-7,1,10,22,-2
14:01:17:484701,-19,-1,4,-7,1,10,22,-2
14:01:17:492209,-20,0,6,-1,-16,13,19,-3
14:01:17:500331,11,-1,6,-6,-10,-12,17,9
14:01:17:501064,11,-1,6,-6,-10,-12,17,9
14:01:17:507231,6,5,-10,-24,7,1,-19,1
14:01:17:522832,2,-10,-11,-8,0,-1,-27,-5
14:01:17:523590,2,-10,-11,-8,0,-1,-27,-5
14:01:17:529713,-6,-20,-20,-15,-11,-9,-11,-7
14:01:17:537140,5,-3,11,-2,-4,-18,-20,-3
14:01:17:544733,5,-3,11,-2,-4,-18,-20,-3
14:01:17:552137,-36,-4,2,52,38,22,7,-7
14:01:17:560361,36,8,-5,-1,-5,-38,-24,7
14:01:17:561098,36,8,-5,-1,-5,-38,-24,7
14:01:17:567044,-19,-4,-4,-8,-31,48,47,-9
14:01:17:582819,-2,8,9,11,33,27,8,3
14:01:17:583588,-2,8,9,11,33,27,8,3
14:01:17:589734,5,-6,7,-12,-13,-31,-11,3
14:01:17:605384,5,-6,7,-12,-13,-31,-11,3
14:01:17:606104,-3,-4,-10,-16,-19,-7,9,-1
14:01:17:612192,14,20,-2,13,22,1,-12,10
14:01:17:620314,14,20,-2,13,22,1,-12,10
14:01:17:621133,-19,-9,-5,16,9,-13,1,-9
14:01:17:634664,1,-8,-1,-6,-9,39,40,1
14:01:17:642938,1,-8,-1,-6,-9,39,40,1
14:01:17:643656,-3,-32,-4,7,3,7,8,6
14:01:17:649635,-2,7,2,-6,-26,-45,-33,-3
14:01:17:665397,-2,7,2,-6,-26,-45,-33,-3
14:01:17:666191,-2,2,6,39,23,40,29,-9
14:01:17:672224,-17,-2,-1,-15,1,-21,-25,-1
14:01:17:680342,-17,-2,-1,-15,1,-21,-25,-1
14:01:17:681117,-4,-4,-10,-19,-30,-41,-38,-8
14:01:17:694673,-17,-14,31,26,-7,-1,47,-3
14:01:17:702813,-17,-14,31,26,-7,-1,47,-3
14:01:17:703562,-3,-4,-6,2,6,13,-20,-2
14:01:17:709705,6,-4,-3,0,3,-2,-14,3
14:01:17:725375,6,-4,-3,0,3,-2,-14,3
14:01:17:726151,7,2,14,13,-4,10,3,-2
14:01:17:732124,3,-9,-17,-2,8,-24,-19,1
14:01:17:740475,3,-9,-17,-2,8,-24,-19,1
14:01:17:741164,-4,8,30,31,22,20,-2,7
14:01:17:754644,-12,6,11,21,19,44,48,-3
14:01:17:762906,-12,6,11,21,19,44,48,-3
14:01:17:763667,-4,-3,-15,-26,-16,-8,-22,-4
14:01:17:769639,8,2,0,-16,-9,-11,-16,-6
14:01:17:785327,8,2,0,-16,-9,-11,-16,-6
14:01:17:786147,5,-12,-5,-43,-30,-19,-11,2
14:01:17:792218,15,-5,-19,8,13,3,-22,1
14:01:17:800350,15,-5,-19,8,13,3,-22,1
14:01:17:801135,5,4,-5,12,-9,-12,-6,-1
14:01:17:814677,6,1,-10,-13,2,34,12,3
14:01:17:822944,6,1,-10,-13,2,34,12,3
14:01:17:823660,9,-13,-16,29,17,9,31,12
14:01:17:829658,-8,-6,-2,-4,-15,-40,-38,-12
14:01:17:845354,-8,-6,-2,-4,-15,-40,-38,-12
14:01:17:846162,10,10,0,6,26,39,29,7
14:01:17:852098,3,30,11,-7,-6,-18,0,7
14:01:17:860435,3,30,11,-7,-6,-18,0,7
14:01:17:861150,-6,2,-10,-12,-5,-23,1,-7
14:01:17:874618,-2,0,-1,-6,-17,-14,-32,-7
14:01:17:882885,-2,0,-1,-6,-17,-14,-32,-7
14:01:17:883628,-29,14,6,6,21,25,39,-6
14:01:17:889752,12,-5,-2,17,26,-2,6,0
14:01:17:905486,12,-5,-2,17,26,-2,6,0
14:01:17:906161,-4,2,-22,-18,-10,-7,-5,-5
14:01:17:912118,9,37,14,13,-9,-7,20,9
14:01:17:920340,9,37,14,13,-9,-7,20,9
14:01:17:921110,-16,-13,-12,-13,-22,-54,-48,-13
14:01:17:934585,5,-11,4,-1,11,11,-13,5
14:01:17:942939,5,-11,4,-1,11,11,-13,5
14:01:17:943675,-1,5,-8,-14,7,-5,-12,-6
14:01:17:949577,-2,-23,-1,-4,11,7,0,-6
14:01:17:965366,-2,-23,-1,-4,11,7,0,-6
14:01:17:966158,16,-4,11,-6,-27,-26,14,1
14:01:17:972193,2,8,-12,-5,-3,-4,16,12
14:01:17:980383,2,8,-12,-5,-3,-4,16,12
14:01:17:981098,5,2,8,20,11,7,-23,1
14:01:17:994689,-4,-14,-3,22,-3,0,0,0
14:01:18:2801,-4,-14,-3,22,-3,0,0,0
14:01:18:3599,-7,14,13,6,15,11,-12,-4
14:01:18:9683,-20,-22,-25,-44,-3,3,-8,-11
14:01:18:25363,-20,-22,-25,-44,-3,3,-8,-11
14:01:18:26071,-10,3,5,-22,-19,27,19,-1
14:01:18:32144,-10,2,1,-15,13,6,4,-5
14:01:18:40348,-10,2,1,-15,13,6,4,-5
14:01:18:41128,-17,-29,-5,11,-2,-10,-20,-9
14:01:18:54667,-5,-19,-67,-19,-15,-6,-6,-4
14:01:18:62832,-5,-19,-67,-19,-15,-6,-6,-4
14:01:18:63620,7,9,-9,4,-2,3,-20,7
14:01:18:69635,15,6,21,8,9,-3,-31,3
14:01:18:85309,15,6,21,8,9,-3,-31,3
14:01:18:86073,6,-4,0,-9,-16,15,10,2
14:01:18:92195,-3,-3,-12,0,-13,-18,-12,-5
14:01:18:100293,-3,-3,-12,0,-13,-18,-12,-5
14:01:18:101076,16,-1,-18,-14,11,-8,-2,12
14:01:18:114691,0,10,21,20,-4,0,17,0
14:01:18:122977,0,10,21,20,-4,0,17,0
14:01:18:123589,-9,-38,-19,12,4,-11,10,-5
14:01:18:129656,-10,11,11,21,13,1,2,-4
14:01:18:145382,-10,11,11,21,13,1,2,-4
14:01:18:146158,3,9,-16,-21,-11,-10,11,-3
14:01:18:152120,-3,2,14,-15,-22,-23,-29,-13
14:01:18:160410,-3,2,14,-15,-22,-23,-29,-13
14:01:18:161127,30,5,-15,1,1,33,55,27
14:01:18:174624,-26,-6,-4,1,9,29,-22,-13
14:01:18:182804,-26,-6,-4,1,9,29,-22,-13
14:01:18:183609,-4,7,0,-6,-12,-16,-19,-6
14:01:18:189752,4,-2,-13,18,-3,-15,20,2
14:01:18:205503,4,-2,-13,18,-3,-15,20,2
14:01:18:206169,-4,-9,-3,13,2,7,8,2
14:01:18:212219,4,14,14,41,27,-3,-2,3
14:01:18:220314,4,14,14,41,27,-3,-2,3
14:01:18:221135,-9,-9,11,7,2,26,38,-7
14:01:18:234623,9,-16,-3,-12,-22,-9,1,0
14:01:18:242976,9,-16,-3,-12,-22,-9,1,0
14:01:18:243648,-7,-3,16,-8,-18,-24,-26,-10
14:01:18:249655,3,8,4,12,35,34,1,5
14:01:18:265394,3,8,4,12,35,34,1,5
14:01:18:266167,25,17,20,-13,11,-8,-17,8
14:01:18:272257,4,4,-20,-8,-9,-7,11,6
14:01:18:280397,4,4,-20,-8,-9,-7,11,6
14:01:18:281180,-7,-10,-8,-4,-9,-22,-26,-6
14:01:18:294723,-16,-5,18,0,4,2,-4,-1
14:01:18:302862,-16,-5,18,0,4,2,-4,-1
14:01:18:303619,2,33,-27,-23,-8,2,-41,-6
14:01:18:309677,6,-2,17,-20,-3,2,5,-1
14:01:18:325442,6,-2,17,-20,-3,2,5,-1
14:01:18:326147,-14,-3,-13,-3,12,-23,-12,-10
14:01:18:332108,10,-1,5,-7,-14,5,17,4
14:01:18:347869,10,-1,5,-7,-14,5,17,4
14:01:18:348652,-4,-20,23,23,6,-6,-3,-6
14:01:18:354599,1,2,0,-18,-28,-19,4,5
14:01:18:362894,1,2,0,-18,-28,-19,4,5
14:01:18:363670,10,32,29,15,0,4,4,0
14:01:18:369624,-1,-20,-23,-20,-11,1,2,-4
14:01:18:385307,-1,-20,-23,-20,-11,1,2,-4
14:01:18:386099,-4,2,24,24,1,2,29,4
14:01:18:392178,-10,10,-14,-11,-3,5,-10,-2
14:01:18:400324,-10,10,-14,-11,-3,5,-10,-2
14:01:18:401135,-16,-14,-3,0,7,9,14,-1
14:01:18:414679,-3,2,4,0,-10,-26,-29,-13
14:01:18:422957,-3,2,4,0,-10,-26,-29,-13
14:01:18:423596,-15,-26,-17,-6,-5,2,6,-8
14:01:18:429605,13,-5,-21,-9,17,6,19,2
14:01:18:445391,13,-5,-21,-9,17,6,19,2
14:01:18:446094,8,25,3,-22,-7,6,2,-2
14:01:18:452067,4,12,15,5,-8,-27,-13,-1
14:01:18:460412,4,12,15,5,-8,-27,-13,-1
14:01:18:461189,-8,-2,-4,-6,7,31,8,7
14:01:18:474657,-8,5,6,-4,-3,-1,8,1
14:01:18:482849,-8,5,6,-4,-3,-1,8,1
14:01:18:483631,19,-6,-2,15,-8,-15,-2,5
14:01:18:489693,-10,-9,0,-4,19,46,13,0
14:01:18:505439,-10,-9,0,-4,19,46,13,0
14:01:18:506100,-9,-17,0,22,-12,-4,-12,-4
14:01:18:512184,-3,-13,-29,-12,-17,-32,-22,-4
14:01:18:520332,-3,-13,-29,-12,-17,-32,-22,-4
14:01:18:521116,-7,12,17,-25,-11,-25,-10,0
14:01:18:534664,23,14,9,4,-15,13,0,3
14:01:18:542969,23,14,9,4,-15,13,0,3
14:01:18:543623,-1,-1,-9,-6,-1,-13,0,2
14:01:18:557143,-20,-1,12,2,-9,-1,3,-5
14:01:18:565306,-20,-1,12,2,-9,-1,3,-5
14:01:18:566105,8,7,-6,-3,4,-3,-3,5
14:01:18:572332,1,6,-3,-31,1,9,2,-6
14:01:18:579666,1,6,-3,-31,1,9,2,-6
14:01:18:587110,7,-9,1,-14,-6,-8,0,-3
14:01:18:594721,5,-3,4,17,20,20,15,6
14:01:18:602831,5,-3,4,17,20,20,15,6
14:01:18:603617,-1,-11,8,19,15,14,30,-4
14:01:18:617135,-23,-23,-36,16,-4,-14,-3,-13
14:01:18:625375,-23,-23,-36,16,-4,-14,-3,-13
14:01:18:626083,-1,30,1,4,-16,-13,-12,-3
14:01:18:632115,10,-1,17,-15,9,-3,-1,8
14:01:18:639769,10,-1,17,-15,9,-3,-1,8
14:01:18:647139,-16,-11,-16,3,25,5,-3,-3
14:01:18:654653,4,5,42,29,-7,-3,-12,-1
14:01:18:662862,4,5,42,29,-7,-3,-12,-1
14:01:18:663618,4,12,14,6,-9,11,5,-5
14:01:18:677252,6,-4,1,2,12,7,10,-2
14:01:18:685290,6,-4,1,2,12,7,10,-2
14:01:18:686096,-3,-11,0,-4,-43,-18,-14,-4
14:01:18:692203,7,0,-1,-8,16,-15,-12,0
14:01:18:699687,7,0,-1,-8,16,-15,-12,0
14:01:18:707246,4,19,-4,9,9,40,27,5
14:01:18:714649,-24,-3,6,-10,-2,1,7,3
14:01:18:723020,-24,-3,6,-10,-2,1,7,3
14:01:18:723646,-8,-8,-9,-10,8,-8,6,-6
14:01:18:737146,20,0,-20,16,-14,-9,-32,2
14:01:18:745396,20,0,-20,16,-14,-9,-32,2
14:01:18:746165,-11,-12,8,-17,11,4,-19,-9
14:01:18:752107,-3,7,24,-3,-2,-6,6,-3
14:01:18:759808,-3,7,24,-3,-2,-6,6,-3
14:01:18:767125,5,-8,-7,-22,-13,-4,0,8
14:01:18:774661,3,-9,-2,15,-5,-5,2,-3
14:01:18:782824,3,-9,-2,15,-5,-5,2,-3
14:01:18:783589,-14,-1,-1,12,16,-1,-1,-4
14:01:18:797147,-5,-16,-4,10,-3,6,5,-4
14:01:18:805474,-5,-16,-4,10,-3,6,5,-4
14:01:18:806158,15,-3,-9,-33,-4,8,7,7
14:01:18:820307,-5,-5,-13,-11,-6,26,33,1
14:01:18:821111,-5,-5,-13,-11,-6,26,33,1
14:01:18:827220,16,-3,-9,0,18,6,-4,14
14:01:18:834605,2,7,-11,19,6,-10,-5,2
14:01:18:842984,2,7,-11,19,6,-10,-5,2
14:01:18:843684,-1,25,23,35,18,0,-3,-10
14:01:18:857111,2,-3,-15,-13,-17,-3,6,-1
14:01:18:865362,2,-3,-15,-13,-17,-3,6,-1
14:01:18:866152,14,-7,1,29,18,6,-41,-4
14:01:18:872264,-23,-1,-15,-11,-16,-2,-10,-11
14:01:18:879727,-23,-1,-15,-11,-16,-2,-10,-11
14:01:18:887159,-3,7,-7,-2,-21,-19,10,3
14:01:18:894718,-6,-13,-9,-5,12,17,4,3
14:01:18:902789,-6,-13,-9,-5,12,17,4,3
14:01:18:903600,-9,7,-1,-13,-19,-4,3,0
14:01:18:917151,10,1,10,10,-12,-14,4,-3
14:01:18:925413,10,1,10,10,-12,-14,4,-3
14:01:18:926155,-29,-48,-23,21,-3,-7,-10,-8
14:01:18:932147,-8,18,9,3,9,6,-3,0
14:01:18:939794,-8,18,9,3,9,6,-3,0
14:01:18:947180,2,-7,-8,-25,-8,5,4,8
14:01:18:954697,30,1,-4,-24,14,-11,7,10
14:01:18:962903,30,1,-4,-24,14,-11,7,10
14:01:18:963639,-3,22,3,7,26,7,0,-9
14:01:18:977226,4,3,4,-24,-1,-8,-12,-3
14:01:18:985273,4,3,4,-24,-1,-8,-12,-3
14:01:18:986095,4,1,9,-15,-14,-14,5,3
14:01:18:992202,-13,17,-17,0,6,-4,-42,-24
14:01:18:999658,-13,17,-17,0,6,-4,-42,-24
14:01:19:7164,-8,-6,12,6,-8,-16,-9,0
14:01:19:14625,-26,-18,-3,-1,-18,-2,13,2
14:01:19:22661,-26,-18,-3,-1,-18,-2,13,2
14:01:19:29636,-6,-6,-8,15,37,29,12,-6
14:01:19:37075,14,18,4,6,-4,2,0,4
14:01:19:45388,14,18,4,6,-4,2,0,4
14:01:19:46116,-31,-46,-28,-44,-12,-11,4,-1
14:01:19:52115,-1,-5,-3,-2,1,-10,-10,-3
14:01:19:59790,-1,-5,-3,-2,1,-10,-10,-3
14:01:19:67144,14,-8,-10,-6,-18,-6,-7,-4
14:01:19:74670,8,-4,-26,8,13,-9,-1,4
14:01:19:82884,8,-4,-26,8,13,-9,-1,4
14:01:19:83609,9,10,-3,-11,-12,25,14,0
14:01:19:97161,-1,-8,-36,-25,-5,18,17,11
14:01:19:105490,-1,-8,-36,-25,-5,18,17,11
14:01:19:106152,7,5,-6,14,6,-11,-5,1
14:01:19:112115,-2,-1,49,28,-11,-11,-2,1
14:01:19:119647,-2,-1,49,28,-11,-11,-2,1
14:01:19:127270,-6,-3,10,2,-4,-9,-4,-8
14:01:19:134620,4,-15,19,-12,-11,1,1,3
14:01:19:142933,4,-15,19,-12,-11,1,1,3
14:01:19:143678,4,-19,-20,-2,-8,-19,-13,-2
14:01:19:157182,11,17,0,-29,-22,6,-2,3
14:01:19:165368,11,17,0,-29,-22,6,-2,3
14:01:19:166096,-15,5,5,21,9,0,9,-7
14:01:19:172264,10,-5,-5,-4,22,2,2,8
14:01:19:179704,10,-5,-5,-4,22,2,2,8
14:01:19:187101,-3,10,23,-17,5,-13,-19,-1
14:01:19:194705,1,5,3,14,0,-4,-7,-5
14:01:19:202807,1,5,3,14,0,-4,-7,-5
14:01:19:203634,-5,18,-2,13,-10,-2,1,-5
14:01:19:217180,-6,6,14,-1,2,2,10,-6
14:01:19:225409,-6,6,14,-1,2,2,10,-6
14:01:19:226157,-9,6,0,19,-11,10,13,2
14:01:19:240385,-3,6,11,10,9,12,5,-5
14:01:19:241116,-3,6,11,10,9,12,5,-5
14:01:19:247157,10,-2,4,-5,-10,2,-8,1
14:01:19:254672,-22,-21,1,21,-7,-1,-5,-7
14:01:19:262831,-22,-21,1,21,-7,-1,-5,-7
14:01:19:263630,20,4,-11,-4,12,10,28,17
14:01:19:277295,1,12,-4,14,-6,-5,-11,3
14:01:19:285334,1,12,-4,14,-6,-5,-11,3
14:01:19:286090,18,9,-1,-5,-5,-24,-36,-7
14:01:19:292148,-17,-3,-31,19,28,14,7,1
14:01:19:299711,-17,-3,-31,19,28,14,7,1
14:01:19:307240,6,3,5,15,11,-1,-6,0
14:01:19:314651,5,-4,-6,-13,-8,-4,6,2
14:01:19:322965,5,-4,-6,-13,-8,-4,6,2
14:01:19:323667,-8,-4,-16,5,-9,-7,5,-15
14:01:19:337119,-17,-7,-3,2,-9,-5,-19,-5
14:01:19:345419,-17,-7,-3,2,-9,-5,-19,-5
14:01:19:346102,-7,-1,40,6,8,11,8,-1
14:01:19:352059,-14,-4,6,-31,-20,-5,9,-8
14:01:19:359767,-14,-4,6,-31,-20,-5,9,-8
14:01:19:375341,-2,-19,-19,-7,4,-6,-12,-1
14:01:19:376099,8,-6,3,18,8,1,-13,-1
14:01:19:382826,8,-6,3,18,8,1,-13,-1
14:01:19:383613,3,-9,12,-25,-19,-4,9,1
14:01:19:397170,3,-36,-11,-25,-16,-4,5,-3
14:01:19:405468,3,-36,-11,-25,-16,-4,5,-3
14:01:19:406120,-3,3,-10,4,11,24,5,-5
14:01:19:412170,4,13,-13,-29,-13,-16,16,4
14:01:19:419686,4,13,-13,-29,-13,-16,16,4
14:01:19:427204,-6,5,-8,-13,-6,4,1,0
14:01:19:434576,11,5,9,22,22,-4,-9,-3
14:01:19:442959,11,5,9,22,22,-4,-9,-3
14:01:19:443691,-10,-1,-4,6,-18,-4,-2,5
14:01:19:457108,-6,11,-10,-2,0,2,-2,-1
14:01:19:465351,-6,11,-10,-2,0,2,-2,-1
14:01:19:466140,-15,-20,14,-14,-8,-11,-19,2
14:01:19:472240,0,-6,-22,-2,0,0,3,2
14:01:19:479706,0,-6,-22,-2,0,0,3,2
14:01:19:487126,17,11,-15,2,9,8,-1,-2
14:01:19:494694,-2,1,19,3,4,-6,-11,-3
14:01:19:502155,-2,1,19,3,4,-6,-11,-3
14:01:19:509747,22,1,-9,-32,-24,-12,5,8
14:01:19:517085,6,12,6,-46,-4,-5,-7,3
14:01:19:525409,6,12,6,-46,-4,-5,-7,3
14:01:19:526103,5,6,-1,-3,17,17,15,-1
14:01:19:540450,2,3,23,4,-10,-6,3,-1
14:01:19:541121,2,3,23,4,-10,-6,3,-1
14:01:19:547152,-9,-4,0,4,15,-3,-12,3
14:01:19:554618,-2,-3,-3,-21,-10,-3,-2,-6
14:01:19:562187,-2,-3,-3,-21,-10,-3,-2,-6
14:01:19:569672,-15,5,-14,38,-4,-13,-13,-14
14:01:19:577281,-5,-6,2,31,37,15,5,4
14:01:19:585350,-5,-6,2,31,37,15,5,4
14:01:19:586101,-14,-12,-2,-20,-10,-2,2,-3
14:01:19:600277,-5,-5,4,33,-11,-4,-2,3
14:01:19:601089,-5,-5,4,33,-11,-4,-2,3
14:01:19:607209,-6,15,-3,-8,-8,-5,-8,-4
14:01:19:614680,-21,-4,-8,-13,-11,13,21,-15
14:01:19:622246,-21,-4,-8,-13,-11,13,21,-15
14:01:19:629619,12,-6,7,-3,-13,2,15,9
14:01:19:637100,2,7,-38,-4,23,-9,-30,-5
14:01:19:652781,2,7,-38,-4,23,-9,-30,-5
14:01:19:653592,-5,4,15,-5,-3,6,-6,-6
14:01:19:660393,8,-14,-12,-14,-6,-4,3,10
14:01:19:661090,8,-14,-12,-14,-6,-4,3,10
14:01:19:667076,3,-8,-3,19,37,10,-1,12
14:01:19:674601,-9,-30,12,-7,-37,-4,-3,-6
14:01:19:682191,-9,-30,12,-7,-37,-4,-3,-6
14:01:19:689732,-18,13,15,39,18,-12,3,-13
14:01:19:697146,3,1,-21,-34,-11,-5,-2,-1
14:01:19:705456,3,1,-21,-34,-11,-5,-2,-1
14:01:19:706150,11,18,7,26,18,-5,-18,5
14:01:19:720376,3,16,9,-9,-6,30,6,8
14:01:19:721143,3,16,9,-9,-6,30,6,8
14:01:19:727203,-23,-6,-2,-7,-12,2,-7,-6
14:01:19:734571,-7,-10,18,16,8,-10,-12,-8
14:01:19:742254,-7,-10,18,16,8,-10,-12,-8
14:01:19:749638,8,-27,-8,-16,-14,-13,6,-1
14:01:19:757157,-8,-16,-6,6,1,0,-1,-1
14:01:19:765363,-8,-16,-6,6,1,0,-1,-1
14:01:19:766130,4,-20,-30,-4,9,4,1,1
14:01:19:780376,23,8,12,16,13,1,3,6
14:01:19:781146,23,8,12,16,13,1,3,6
14:01:19:787135,-9,-3,-1,-24,-24,-9,-12,-9
14:01:19:794716,-3,15,6,12,18,-10,-2,2
14:01:19:802169,-3,15,6,12,18,-10,-2,2
14:01:19:809747,-7,-6,-20,-2,-9,-3,11,0
14:01:19:817092,1,23,11,-1,-19,-4,27,2
14:01:19:825367,1,23,11,-1,-19,-4,27,2
14:01:19:826113,1,3,47,-8,4,-8,-32,-7
14:01:19:840396,3,-4,0,0,-6,-10,-5,5
14:01:19:841162,3,-4,0,0,-6,-10,-5,5
14:01:19:847140,21,1,-6,-2,13,63,62,5
14:01:19:854677,-17,1,0,-4,-14,-1,3,-6
14:01:19:862238,-17,1,0,-4,-14,-1,3,-6
14:01:19:869656,0,7,-8,-13,-14,-37,-25,-5
14:01:19:877244,16,11,-21,13,2,7,5,-1
14:01:19:885290,16,11,-21,13,2,7,5,-1
14:01:19:886078,-5,11,0,0,-6,-6,-13,0
14:01:19:900292,-11,-10,2,16,22,-4,4,-5
14:01:19:901107,-11,-10,2,16,22,-4,4,-5
14:01:19:907228,-14,-20,-3,-3,-5,-8,-13,-4
14:01:19:914633,24,11,14,6,12,-2,-16,7
14:01:19:922313,24,11,14,6,12,-2,-16,7
14:01:19:929630,2,-16,-35,-13,-16,-23,10,1
14:01:19:937080,-18,-19,12,16,12,1,-19,-13
14:01:19:945390,-18,-19,12,16,12,1,-19,-13
14:01:19:946123,15,17,-8,18,7,9,10,9
14:01:19:960519,-25,-14,-3,30,8,14,9,-9
14:01:19:961179,-25,-14,-3,30,8,14,9,-9
14:01:19:967051,14,4,14,15,13,-5,-3,1
14:01:19:974589,-3,11,-2,-35,-34,-30,-15,0
14:01:19:982187,-3,11,-2,-35,-34,-30,-15,0
14:01:19:989691,2,5,0,-2,0,22,24,7
14:01:19:997144,3,-3,-1,-8,-4,-5,-8,-3
14:01:20:5444,3,-3,-1,-8,-4,-5,-8,-3
14:01:20:6162,6,10,18,-16,0,-17,-24,-6
14:01:20:20320,-27,12,-3,-9,-2,-8,-15,-10
14:01:20:21093,-27,12,-3,-9,-2,-8,-15,-10
14:01:20:27161,-1,-15,10,11,21,12,6,4
14:01:20:34565,12,-7,-5,-30,2,3,8,2
14:01:20:42258,12,-7,-5,-30,2,3,8,2
14:01:20:49597,-3,6,-3,1,2,1,-3,-3
14:01:20:57123,2,-4,-1,-3,-8,-2,-2,-2
14:01:20:65360,2,-4,-1,-3,-8,-2,-2,-2
14:01:20:66124,-2,7,23,10,-24,-1,8,3
14:01:20:80379,-3,-1,10,36,20,-7,-5,1
14:01:20:81145,-3,-1,10,36,20,-7,-5,1
14:01:20:87198,-13,2,-7,-3,-4,-6,-7,-4
14:01:20:94648,7,3,-13,7,-7,12,6,5
14:01:20:102194,7,3,-13,7,-7,12,6,5
14:01:20:109684,8,-15,-17,15,20,-6,-7,-1
14:01:20:117102,10,-9,8,20,8,54,45,20
14:01:20:125354,10,-9,8,20,8,54,45,20
14:01:20:126066,-18,-12,-1,-5,2,37,-1,-7
14:01:20:140288,-2,-1,-16,6,4,-17,-9,-5
14:01:20:141143,-2,-1,-16,6,4,-17,-9,-5
14:01:20:147150,-24,-18,-16,-17,-4,-11,-2,-7
14:01:20:154627,6,15,7,-8,-25,-13,-19,-1
14:01:20:162223,6,15,7,-8,-25,-13,-19,-1
14:01:20:169628,-2,0,11,6,6,9,3,-5
14:01:20:177229,0,-10,5,5,4,2,0,-4
14:01:20:185288,0,-10,5,5,4,2,0,-4
14:01:20:186124,-7,6,4,-15,-35,-18,0,-10
14:01:20:200274,31,-8,-5,-11,11,10,28,8
14:01:20:201106,31,-8,-5,-11,11,10,28,8
14:01:20:207198,6,6,-1,-10,5,-7,-26,1
14:01:20:214667,1,-2,5,-26,-20,42,17,-7
14:01:20:222276,1,-2,5,-26,-20,42,17,-7
14:01:20:229623,8,6,-5,12,1,1,1,5
14:01:20:237089,-20,8,12,-20,-11,-1,-3,3
14:01:20:245430,-20,8,12,-20,-11,-1,-3,3
14:01:20:246133,13,1,-14,2,26,-6,-17,4
14:01:20:260432,4,6,-2,-6,-22,-33,-28,-10
14:01:20:261175,4,6,-2,-6,-22,-33,-28,-10
14:01:20:267095,-1,4,-7,-21,-6,-13,1,0
14:01:20:274594,0,-9,-11,-10,8,-9,6,4
14:01:20:282216,0,-9,-11,-10,8,-9,6,4
14:01:20:289769,-1,-6,-9,6,0,52,58,-1
14:01:20:297126,-8,3,7,-7,-3,-20,-11,2
14:01:20:305455,-8,3,7,-7,-3,-20,-11,2
14:01:20:306140,-7,0,2,-5,0,-41,-38,-7
14:01:20:320330,6,8,4,4,3,-11,-25,-6
14:01:20:321140,6,8,4,4,3,-11,-25,-6
14:01:20:327190,-3,28,16,-13,0,4,17,3
14:01:20:334609,4,14,-26,-12,8,-21,-5,-3
14:01:20:342255,4,14,-26,-12,8,-21,-5,-3
14:01:20:349583,-8,-32,0,2,-6,6,-3,-2
14:01:20:357207,-3,1,-6,-13,-11,-24,-28,-11
14:01:20:365380,-3,1,-6,-13,-11,-24,-28,-11
14:01:20:366146,-3,-5,8,8,17,59,5,5
14:01:20:380369,-15,-19,2,5,0,8,9,-6
14:01:20:381155,-15,-19,2,5,0,8,9,-6
14:01:20:387176,1,-6,-5,-7,-5,-32,-14,-6
14:01:20:394729,-13,-13,5,0,-2,6,-2,-1
14:01:20:402197,-13,-13,5,0,-2,6,-2,-1
14:01:20:409721,-23,-18,-19,27,4,-14,4,-3
14:01:20:417108,6,-9,-7,14,-4,-2,19,-3
14:01:20:424705,6,-9,-7,14,-4,-2,19,-3
14:01:20:432164,6,12,5,-13,-18,5,-3,7
14:01:20:440351,-3,-15,-1,4,3,15,-34,-2
14:01:20:441094,-3,-15,-1,4,3,15,-34,-2
14:01:20:447118,0,-4,-25,2,7,-2,-8,-1
14:01:20:462806,-15,-21,-24,-14,-1,-9,3,-6
14:01:20:463636,-15,-21,-24,-14,-1,-9,3,-6
14:01:20:469648,-19,9,7,0,-20,-11,8,-7
14:01:20:477214,4,10,6,19,15,6,11,6
14:01:20:484621,4,10,6,19,15,6,11,6
14:01:20:492175,1,-6,2,-1,-14,-14,-4,-9
14:01:20:500337,8,16,-8,-12,4,-10,-3,0
14:01:20:501108,8,16,-8,-12,4,-10,-3,0
14:01:20:507204,6,-18,-8,-19,-21,-33,-8,2
14:01:20:522911,-1,6,11,-6,-15,16,10,-5
14:01:20:523635,-1,6,11,-6,-15,16,10,-5
14:01:20:529618,1,4,25,62,50,30,19,3
14:01:20:537072,-13,-15,-3,-6,8,5,2,-2
14:01:20:544774,-13,-15,-3,-6,8,5,2,-2
14:01:20:552100,9,18,47,-36,-13,-24,-28,-1
14:01:20:560447,-9,7,1,9,-10,-14,-3,-1
14:01:20:561159,-9,7,1,9,-10,-14,-3,-1
14:01:20:567113,-1,-9,-14,-17,-4,1,25,1
14:01:20:582609,11,13,20,30,1,6,-5,5
14:01:20:590389,11,13,20,30,1,6,-5,5
14:01:20:591092,7,-8,-13,-6,-2,2,16,2
14:01:20:597118,15,3,-8,0,14,-1,-13,2
14:01:20:604684,15,3,-8,0,14,-1,-13,2
14:01:20:612151,26,6,-1,7,-4,-11,-25,0
14:01:20:620341,-13,0,-3,0,2,11,15,-1
14:01:20:621152,-13,0,-3,0,2,11,15,-1
14:01:20:627226,10,17,-13,-19,-2,11,0,2
14:01:20:642908,-6,-9,-3,11,19,24,18,-5
14:01:20:643651,-6,-9,-3,11,19,24,18,-5
14:01:20:649585,8,3,2,-13,0,10,-3,4
14:01:20:657178,-8,-6,-4,-13,-22,5,-5,8
14:01:20:664709,-8,-6,-4,-13,-22,5,-5,8
14:01:20:672290,-12,-16,-3,-12,-2,-29,-7,-5
14:01:20:680334,2,-10,-11,-7,1,-5,3,-12
14:01:20:681113,2,-10,-11,-7,1,-5,3,-12
14:01:20:687122,-1,-1,9,39,13,5,0,-2
14:01:20:702787,-9,10,4,-12,-19,-12,-12,-10
14:01:20:703584,-9,10,4,-12,-19,-12,-12,-10
14:01:20:709751,0,1,2,-22,-2,7,7,3
14:01:20:717118,0,17,18,-13,-9,-10,3,7
14:01:20:724663,0,17,18,-13,-9,-10,3,7
14:01:20:732172,-14,2,-3,-18,-9,-6,-2,-3
14:01:20:740355,2,-21,-9,-17,2,-22,-31,-15
14:01:20:741098,2,-21,-9,-17,2,-22,-31,-15
14:01:20:747143,-16,5,11,9,10,-13,-37,-3
14:01:20:763282,3,2,1,16,10,-2,-22,3
14:01:20:764081,3,2,1,16,10,-2,-22,3
14:01:20:769632,-1,-9,-28,-3,-10,1,-3,-5
14:01:20:777197,-6,-11,5,-3,-5,-12,-13,-1
14:01:20:784683,-6,-11,5,-3,-5,-12,-13,-1
14:01:20:792161,-2,6,4,-4,0,4,15,-6
14:01:20:800291,16,-8,1,20,11,4,29,8
14:01:20:801096,16,-8,1,20,11,4,29,8
14:01:20:807197,-1,2,-17,-13,-25,-4,-10,1
14:01:20:822988,12,0,-11,-2,-5,-31,-52,2
14:01:20:823668,12,0,-11,-2,-5,-31,-52,2
14:01:20:829669,-5,-2,1,2,6,12,-2,-1
14:01:20:837129,26,30,-1,13,-4,14,46,13
14:01:20:844810,26,30,-1,13,-4,14,46,13
14:01:20:852113,-13,-35,1,1,5,0,12,-4
14:01:20:868490,4,16,-8,-13,0,-19,-9,-3
14:01:20:869265,4,16,-8,-13,0,-19,-9,-3
14:01:20:870095,7,17,-9,37,6,-1,26,7
14:01:20:882854,-25,-12,16,-18,-17,22,-49,-14
14:01:20:883612,-25,-12,16,-18,-17,22,-49,-14
14:01:20:889790,5,-2,-12,-14,19,-8,-15,-5
14:01:20:897850,-6,6,-8,2,2,1,19,-2
14:01:20:898660,-6,6,-8,2,2,1,19,-2
14:01:20:912282,7,-8,6,0,-12,-25,-23,-2
14:01:20:920319,1,-6,-20,-16,17,12,16,2
14:01:20:921152,1,-6,-20,-16,17,12,16,2
14:01:20:927183,1,5,7,2,-2,19,4,-2
14:01:20:942882,-12,-24,4,-14,-23,-7,5,0
14:01:20:943579,-12,-24,4,-14,-23,-7,5,0
14:01:20:949623,-2,-13,-10,29,2,-15,-3,-3
14:01:20:965348,-2,-13,-10,29,2,-15,-3,-3
14:01:20:966112,-17,-9,-15,13,31,7,9,-3
14:01:20:972232,-2,-27,6,-14,-21,1,-8,1
14:01:20:980340,-2,-27,6,-14,-21,1,-8,1
14:01:20:981159,-12,-5,26,22,2,5,14,-2
14:01:20:987106,2,30,2,-25,-7,3,-3,5
14:01:21:2816,2,30,2,-25,-7,3,-3,5
14:01:21:3583,15,8,19,-18,-20,1,11,6
14:01:21:9748,-12,6,3,3,-9,1,-1,-5
14:01:21:25400,-12,6,3,3,-9,1,-1,-5
14:01:21:26126,-3,3,3,-6,7,35,10,-5
14:01:21:40982,-1,11,9,6,-1,-10,7,-1
14:01:21:41780,-1,11,9,6,-1,-10,7,-1
14:01:21:42606,-10,-20,-25,12,-13,-19,-9,-1
14:01:21:47096,0,-65,-33,41,40,13,0,2
14:01:21:62897,0,-65,-33,41,40,13,0,2
14:01:21:63623,-1,16,7,14,12,-1,-8,-1
14:01:21:69626,6,-2,-13,-26,-18,-11,6,-7
14:01:21:85328,6,-2,-13,-26,-18,-11,6,-7
14:01:21:86120,-17,-6,7,10,12,12,12,-1
14:01:21:92172,1,20,15,-16,-2,3,6,13
14:01:21:100335,1,20,15,-16,-2,3,6,13
14:01:21:101136,-2,5,-10,13,0,-12,-23,-7
14:01:21:107165,-6,7,-9,-20,-1,2,11,2
14:01:21:122993,-6,7,-9,-20,-1,2,11,2
14:01:21:123648,22,2,-10,-12,0,-12,-3,1
14:01:21:129657,-11,2,-13,-9,-17,-9,-1,-4
14:01:21:145456,-11,2,-13,-9,-17,-9,-1,-4
14:01:21:146129,-11,-1,4,17,4,17,40,-1
14:01:21:152079,-5,18,18,-12,0,7,-63,-14
14:01:21:160379,-5,18,18,-12,0,7,-63,-14
14:01:21:161111,9,6,3,6,0,-10,-9,5
14:01:21:167093,-7,-37,6,21,-14,-16,7,-5
14:01:21:182866,-7,-37,6,21,-14,-16,7,-5
14:01:21:183599,8,7,-18,-4,-15,-2,1,9
14:01:21:189677,1,-2,-33,3,26,-4,-18,-5
14:01:21:205407,1,-2,-33,3,26,-4,-18,-5
14:01:21:206129,-15,-7,-7,-13,-16,-16,-9,-6
14:01:21:212249,2,-7,4,9,-13,-3,-9,-5
14:01:21:220326,2,-7,4,9,-13,-3,-9,-5
14:01:21:221151,22,-6,2,-39,2,4,-2,3
14:01:21:234633,-3,17,18,9,-13,19,-1,1
14:01:21:242940,-3,17,18,9,-13,19,-1,1
14:01:21:243595,18,-7,-3,-10,3,-3,-1,5
14:01:21:249649,7,10,-3,18,-3,-11,-3,4
14:01:21:265329,7,10,-3,18,-3,-11,-3,4
14:01:21:266126,-19,-1,-8,-5,-5,-4,-33,-11
14:01:21:272299,8,16,11,-3,5,4,-1,1
14:01:21:280335,8,16,11,-3,5,4,-1,1
14:01:21:281124,4,14,9,-12,-11,-1,11,-5
14:01:21:287133,3,2,-35,-22,-5,4,18,3
14:01:21:302867,3,2,-35,-22,-5,4,18,3
14:01:21:303625,-5,-31,-14,2,5,-19,-15,0
14:01:21:317171,3,18,19,5,6,5,13,0
14:01:21:325431,3,18,19,5,6,5,13,0
14:01:21:326209,-1,-5,-9,4,14,67,37,5
14:01:21:341000,0,-10,-9,-11,9,9,13,-3
14:01:21:341786,0,-10,-9,-11,9,9,13,-3
14:01:21:342613,11,1,11,-3,-21,-32,-24,-2
14:01:21:347119,-5,-20,22,4,5,-4,2,-4
14:01:21:362822,-5,-20,22,4,5,-4,2,-4
14:01:21:363656,-6,-7,0,-20,-8,-14,-1,-8
14:01:21:377210,1,5,19,19,7,-4,2,2
14:01:21:385349,1,5,19,19,7,-4,2,2
14:01:21:386095,-5,-2,-3,27,-3,-11,-8,-7
14:01:21:392188,3,-11,-12,-23,-21,-1,6,2
14:01:21:400372,3,-11,-12,-23,-21,-1,6,2
14:01:21:401142,-50,17,-4,29,13,24,10,-9
14:01:21:423518,-1,39,3,-4,-4,-7,-5,-8
14:01:21:424254,-1,39,3,-4,-4,-7,-5,-8
14:01:21:425064,15,3,0,-9,-15,9,11,4
14:01:21:429668,-17,-18,-1,34,-8,-11,-3,-4
14:01:21:445791,-17,-18,-1,34,-8,-11,-3,-4
14:01:21:446583,5,-3,11,66,24,-9,-9,1
14:01:21:452099,18,-9,12,-12,9,-7,-21,4
14:01:21:460449,18,-9,12,-12,9,-7,-21,4
14:01:21:461145,28,6,-7,-3,-6,-47,-34,4
14:01:21:483501,-1,6,2,16,1,18,22,0
14:01:21:484264,-1,6,2,16,1,18,22,0
14:01:21:485066,4,16,-2,-34,13,-13,-5,-3
14:01:21:489651,-3,7,-3,-19,-3,-5,17,4
14:01:21:497226,-3,7,-3,-19,-3,-5,17,4
14:01:21:512780,7,-19,17,0,-16,8,1,1
14:01:21:513585,-21,3,-8,1,11,10,-7,-5
14:01:21:520761,-21,3,-8,1,11,10,-7,-5
14:01:21:527183,-20,-29,-24,-18,-6,-10,16,-1
14:01:21:534632,25,2,6,1,-9,0,3,-1
14:01:21:550984,25,2,6,1,-9,0,3,-1
14:01:21:551770,-1,-9,10,-7,10,18,11,3
14:01:21:552584,-11,25,21,34,18,-6,-3,-4
14:01:21:557334,-11,25,21,34,18,-6,-3,-4
14:01:21:564692,-11,-6,8,-7,-5,3,2,-10
14:01:21:572239,-24,-22,2,-17,-22,-31,-7,-6
14:01:21:580375,-24,-22,2,-17,-22,-31,-7,-6
14:01:21:581161,-5,15,29,-3,-10,-2,-18,-6
14:01:21:594716,2,-2,-9,-18,13,-22,-18,-3
14:01:21:602828,2,-2,-9,-18,13,-22,-18,-3
14:01:21:603602,6,5,-17,-31,-11,16,32,8
14:01:21:617829,-3,-14,-16,-10,-8,7,-1,-4
14:01:21:618647,-3,-14,-16,-10,-8,7,-1,-4
14:01:21:624718,14,-18,-10,32,7,1,-12,-3
14:01:21:632113,0,-14,-13,35,-7,-5,-10,0
14:01:21:640371,0,-14,-13,35,-7,-5,-10,0
14:01:21:641134,-9,8,-13,-18,16,15,17,1
14:01:21:654595,12,10,-4,-27,-9,6,6,2
14:01:21:662901,12,10,-4,-27,-9,6,6,2
14:01:21:663597,16,12,11,25,12,-26,-4,4
14:01:21:669618,2,-20,-4,-1,6,23,-12,2
14:01:21:677251,2,-20,-4,-1,6,23,-12,2
14:01:21:684607,-14,3,-15,6,-1,-9,-19,-11
14:01:21:692280,2,-5,-7,0,24,32,22,0
14:01:21:700364,2,-5,-7,0,24,32,22,0
14:01:21:701131,6,7,10,-8,0,0,1,3
14:01:21:723561,-11,8,-9,-30,-21,-10,-2,-4
14:01:21:724322,-11,8,-9,-30,-21,-10,-2,-4
14:01:21:725142,-7,-11,-22,0,5,4,-4,-4
14:01:21:729621,6,-2,-22,-38,-5,-16,0,2
14:01:21:737201,6,-2,-22,-38,-5,-16,0,2
14:01:21:744702,-9,2,2,12,-1,22,9,-2
14:01:21:761035,4,-6,3,18,3,-1,10,9
14:01:21:761850,4,-6,3,18,3,-1,10,9
14:01:21:762562,-15,-4,-2,22,0,-11,-8,-5
14:01:21:774711,13,18,16,0,-11,-13,-17,1
14:01:21:782847,13,18,16,0,-11,-13,-17,1
14:01:21:783576,-6,-4,4,-8,2,2,4,1
14:01:21:789673,-11,-2,7,56,-13,-2,2,-5
14:01:21:797203,-11,-2,7,56,-13,-2,2,-5
14:01:21:804655,-5,13,-15,-16,5,0,1,-2
14:01:21:812186,-4,-19,2,-19,13,8,4,-2
14:01:21:827893,-4,-19,2,-19,13,8,4,-2
14:01:21:828608,-6,7,0,-10,-22,-40,-24,3
14:01:21:834557,-1,4,1,26,9,5,1,-4
14:01:21:842959,-1,4,1,26,9,5,1,-4
14:01:21:843632,-1,-7,-4,-6,5,-1,-19,-11
14:01:21:849566,0,2,1,-42,-10,3,9,0
14:01:21:857215,0,2,1,-42,-10,3,9,0
14:01:21:864662,15,14,20,-7,-1,2,5,8
14:01:21:872250,-15,-12,-9,-10,10,6,-8,-11
14:01:21:880398,-15,-12,-9,-10,10,6,-8,-11
14:01:21:881149,-22,-14,-4,-16,-18,0,0,-11
14:01:21:894640,7,-8,6,7,3,-6,15,9
14:01:21:902859,7,-8,6,7,3,-6,15,9
14:01:21:903703,10,-24,0,13,-9,26,21,7
14:01:21:909674,12,15,17,22,0,-6,5,3
14:01:21:917152,12,15,17,22,0,-6,5,3
14:01:21:924750,0,8,6,-13,-29,-31,-8,-3
14:01:21:932170,-14,16,31,-21,20,27,37,2
14:01:21:940420,-14,16,31,-21,20,27,37,2
14:01:21:941141,17,-15,-37,1,4,7,11,0
14:01:21:954657,2,14,-10,10,14,3,6,1
14:01:21:962966,2,14,-10,10,14,3,6,1
14:01:21:963686,-7,1,-4,-23,2,-25,-31,-7
14:01:21:969614,2,-4,0,-3,-17,14,-14,0
14:01:21:977191,2,-4,0,-3,-17,14,-14,0
14:01:21:984673,-4,23,7,15,-5,8,8,3
14:01:21:992226,-4,47,10,10,9,-7,-13,-2
14:01:22:294,-4,47,10,10,9,-7,-13,-2
14:01:22:1095,-8,-21,-7,8,19,25,17,6
14:01:22:14670,9,-17,-25,-28,-27,6,14,-2
14:01:22:22956,9,-17,-25,-28,-27,6,14,-2
14:01:22:23605,17,22,8,-23,-5,-11,-19,2
14:01:22:29659,-2,-17,-21,-29,-6,-13,1,-5
14:01:22:37178,-2,-17,-21,-29,-6,-13,1,-5
14:01:22:44696,-4,-4,21,-5,-9,4,9,3
14:01:22:52084,5,-2,-22,7,8,-6,-28,-7
14:01:22:60446,5,-2,-22,7,8,-6,-28,-7
14:01:22:61128,-14,-28,-5,-4,4,10,-5,-6
14:01:22:74748,-8,-20,1,9,-10,-2,-3,2
14:01:22:82833,-8,-20,1,9,-10,-2,-3,2
14:01:22:83585,5,-3,22,-5,-8,-28,-20,-3
14:01:22:89672,-19,-7,9,-8,8,16,-20,-15
14:01:22:97218,-19,-7,9,-8,8,16,-20,-15
14:01:22:104623,18,-31,-25,-24,5,0,10,8
14:01:22:112134,3,-1,-2,19,5,-8,8,6
14:01:22:120408,3,-1,-2,19,5,-8,8,6
14:01:22:121142,1,14,-16,21,4,11,14,-1
14:01:22:134590,10,11,14,-21,-22,-25,-23,5
14:01:22:142903,10,11,14,-21,-22,-25,-23,5
14:01:22:143674,-18,-7,1,-16,5,7,15,-9
14:01:22:149594,-13,14,-6,6,-3,-7,-3,0
14:01:22:157205,-13,14,-6,6,-3,-7,-3,0
14:01:22:164655,3,19,-18,-13,2,2,1,3
14:01:22:172192,-2,-8,-6,0,-7,27,30,-5
14:01:22:180349,-2,-8,-6,0,-7,27,30,-5
14:01:22:181152,8,7,-3,34,10,-1,-1,-2
14:01:22:194687,-3,-19,-18,1,20,-14,-16,-10
14:01:22:202875,-3,-19,-18,1,20,-14,-16,-10
14:01:22:203686,5,0,15,-30,-15,0,-2,3
14:01:22:209704,-6,-17,4,-24,-23,-16,-12,2
14:01:22:217176,-6,-17,4,-24,-23,-16,-12,2
14:01:22:224620,-3,6,29,67,36,-1,-6,-2
14:01:22:232123,-29,-29,-7,37,-6,4,3,-13
14:01:22:240364,-29,-29,-7,37,-6,4,3,-13
14:01:22:241077,4,4,-5,-4,3,4,1,0
14:01:22:254639,-15,-18,-4,-22,-11,-4,-7,-1
14:01:22:262829,-15,-18,-4,-22,-11,-4,-7,-1
14:01:22:263654,-2,10,-3,4,-6,-36,-55,-13
14:01:22:269616,11,7,1,-25,-11,6,39,6
14:01:22:277221,11,7,1,-25,-11,6,39,6
14:01:22:284649,-8,-4,0,3,-1,10,18,3
14:01:22:292230,3,16,19,7,-3,-16,-21,-3
14:01:22:300306,3,16,19,7,-3,-16,-21,-3
14:01:22:301133,1,-6,7,28,24,10,4,0
14:01:22:314641,5,22,-31,-32,26,9,-1,6
14:01:22:322972,5,22,-31,-32,26,9,-1,6
14:01:22:323624,-17,-11,-9,-26,-42,-6,15,-8
14:01:22:337746,12,-9,17,3,6,28,27,-4
14:01:22:338604,12,-9,17,3,6,28,27,-4
14:01:22:344713,-5,10,2,-2,3,0,-2,-2
14:01:22:352122,11,17,-6,16,-18,-34,-22,-3
14:01:22:359737,11,17,-6,16,-18,-34,-22,-3
14:01:22:367119,-4,8,1,13,12,5,-2,3
14:01:22:374672,1,-22,-19,-14,8,7,-3,2
14:01:22:382863,1,-22,-19,-14,8,7,-3,2
14:01:22:383586,-1,-15,-30,-26,-26,-13,-7,0
14:01:22:397832,5,14,-18,-16,3,-4,-13,0
14:01:22:398632,5,14,-18,-16,3,-4,-13,0
14:01:22:404579,-3,-6,-21,-60,-23,-3,-7,-6
14:01:22:412138,4,1,14,27,-8,-8,-1,-2
14:01:22:419637,4,1,14,27,-8,-8,-1,-2
14:01:22:427156,12,-15,8,-8,4,4,9,3
14:01:22:434571,0,-16,18,3,-15,6,-20,-3
14:01:22:442934,0,-16,18,3,-15,6,-20,-3
14:01:22:443926,3,23,14,-12,-23,-22,-22,0
14:01:22:457860,2,13,-11,17,17,-8,3,4
14:01:22:458619,2,13,-11,17,17,-8,3,4
14:01:22:464577,-7,-8,18,31,3,14,-5,-5
14:01:22:472226,-17,-5,22,-26,-16,-12,-14,-5
14:01:22:479715,-17,-5,22,-26,-16,-12,-14,-5
14:01:22:487093,-8,-11,7,50,20,-4,5,-3
14:01:22:494651,-1,3,14,36,17,16,-1,-18
14:01:22:502819,-1,3,14,36,17,16,-1,-18
14:01:22:503683,-7,-13,4,-4,-1,-4,5,4
14:01:22:517859,1,-16,-6,15,-4,-1,22,7
14:01:22:518632,1,-16,-6,15,-4,-1,22,7
14:01:22:524652,-2,19,3,-16,9,10,2,-2
14:01:22:532141,9,7,-7,4,-9,-8,-6,8
14:01:22:539756,9,7,-7,4,-9,-8,-6,8
14:01:22:547181,19,8,-3,17,-7,-3,0,11
14:01:22:554641,-7,0,5,0,0,0,3,-2
14:01:22:562912,-7,0,5,0,0,0,3,-2
14:01:22:563647,-17,-23,20,21,11,5,-4,-8
14:01:22:577918,6,12,20,-17,14,-12,-13,4
14:01:22:578712,6,12,20,-17,14,-12,-13,4
14:01:22:584596,11,27,-12,-8,-13,24,24,7
14:01:22:592210,-8,-9,0,-8,-13,2,-3,-3
14:01:22:599739,-8,-9,0,-8,-13,2,-3,-3
14:01:22:607214,-19,-45,-31,-10,19,-7,-24,-10
14:01:22:614648,-14,-1,-3,-18,2,-2,-14,-5
14:01:22:622916,-14,-1,-3,-18,2,-2,-14,-5
14:01:22:623591,15,-3,17,-7,-14,-2,0,5
14:01:22:637763,12,-6,-19,9,-4,-11,-9,6
14:01:22:638579,12,-6,-19,9,-4,-11,-9,6
14:01:22:644688,-1,18,9,-17,17,10,-15,-7
14:01:22:652141,-4,11,-10,1,12,24,49,-3
14:01:22:659728,-4,11,-10,1,12,24,49,-3
14:01:22:667136,0,-4,5,-3,-17,-11,6,-2
14:01:22:674657,-3,-2,-13,-16,4,1,-11,3
14:01:22:682828,-3,-2,-13,-16,4,1,-11,3
14:01:22:683598,-5,-1,-8,0,-7,-13,-7,-6
14:01:22:697788,9,-7,3,25,4,-26,-7,7
14:01:22:698640,9,-7,3,25,4,-26,-7,7
14:01:22:704622,14,30,-29,1,11,29,40,9
14:01:22:712180,0,6,-16,-18,-11,2,-6,-7
14:01:22:719652,0,6,-16,-18,-11,2,-6,-7
14:01:22:727258,-1,2,9,20,-7,-7,-10,-4
14:01:22:734592,-6,-27,-3,-29,1,-10,-12,-1
14:01:22:742976,-6,-27,-3,-29,1,-10,-12,-1
14:01:22:743605,-15,-8,8,-16,-20,-8,6,2
14:01:22:757810,-10,5,11,62,30,17,6,0
14:01:22:758637,-10,5,11,62,30,17,6,0
14:01:22:764641,4,-4,-22,-19,-10,-36,-21,-1
14:01:22:772234,5,28,-10,-15,-17,21,12,1
14:01:22:779745,5,28,-10,-15,-17,21,12,1
14:01:22:787110,2,-7,-12,16,21,5,0,-1
14:01:22:794757,5,-8,-3,-39,-11,-8,-6,-2
14:01:22:803261,5,-8,-3,-39,-11,-8,-6,-2
14:01:22:809697,10,1,42,45,-6,-2,4,2
14:01:22:817755,-3,6,4,7,-2,-10,-17,-1
14:01:22:818604,-3,6,4,7,-2,-10,-17,-1
14:01:22:824688,-4,-32,-25,-20,10,4,-2,-1
14:01:22:832149,-23,-10,-8,-5,-9,-7,2,-7
14:01:22:839717,-23,-10,-8,-5,-9,-7,2,-7
14:01:22:847118,-6,22,11,13,5,3,10,-4
14:01:22:854654,7,-27,-1,8,20,3,-4,7
14:01:22:862796,7,-27,-1,8,20,3,-4,7
14:01:22:863624,3,-11,-5,-17,-6,-15,-25,-7
14:01:22:877859,15,1,1,-16,-14,-6,-1,2
14:01:22:878616,15,1,1,-16,-14,-6,-1,2
14:01:22:884624,-13,9,-1,-14,4,34,35,8
14:01:22:892241,9,0,4,14,18,0,0,1
14:01:22:899685,9,0,4,14,18,0,0,1
14:01:22:907147,-29,-3,1,-38,-18,-17,-6,-3
14:01:22:914596,6,-3,-5,-32,-12,9,-4,-4
14:01:22:922969,6,-3,-5,-32,-12,9,-4,-4
14:01:22:923596,21,10,-3,-9,-7,6,6,8
14:01:22:937828,-1,-4,-8,7,-17,2,-3,2
14:01:22:938667,-1,-4,-8,7,-17,2,-3,2
14:01:22:944681,-1,-8,-8,-6,9,-1,-10,-6
14:01:22:952089,-3,-10,1,3,-4,2,11,-2
14:01:22:959730,-3,-10,1,3,-4,2,11,-2
14:01:22:967069,4,-4,5,16,19,0,-23,9
14:01:22:974629,-19,7,-5,18,6,29,23,-2
14:01:22:982861,-19,7,-5,18,6,29,23,-2
14:01:22:983622,8,17,-2,-4,-6,-10,10,-10
14:01:22:997829,0,16,31,-2,-12,-20,-11,0
14:01:22:998652,0,16,31,-2,-12,-20,-11,0
14:01:23:4638,-5,-1,11,-4,1,2,-6,2
14:01:23:12170,18,0,-2,-11,-9,4,-1,-4
14:01:23:19700,18,0,-2,-11,-9,4,-1,-4
14:01:23:27201,3,-13,4,-1,-4,-7,-14,-3
14:01:23:34568,-4,-14,0,17,5,-10,-8,0
14:01:23:43007,-4,-14,0,17,5,-10,-8,0
14:01:23:43639,-12,5,0,25,3,-12,-20,-15
14:01:23:57874,-22,-12,-4,18,22,17,9,-4
14:01:23:58652,-22,-12,-4,18,22,17,9,-4
14:01:23:64655,5,-1,-2,-20,-13,8,6,-3
14:01:23:72280,-11,7,3,28,-2,14,5,2
14:01:23:79776,-11,7,3,28,-2,14,5,2
14:01:23:87185,8,7,0,1,-4,-7,-12,1
14:01:23:94745,-1,3,6,5,0,-7,-5,-9
14:01:23:102800,-1,3,6,5,0,-7,-5,-9
14:01:23:103597,4,-7,-16,-15,-8,1,10,6
14:01:23:117820,-7,0,8,-23,19,1,4,0
14:01:23:118603,-7,0,8,-23,19,1,4,0
14:01:23:124759,-6,-28,-31,9,-4,-10,-12,-7
14:01:23:132211,1,-9,1,1,-16,14,6,0
14:01:23:139771,1,-9,1,1,-16,14,6,0
14:01:23:147183,-11,-25,9,4,15,19,24,2
14:01:23:154669,8,10,0,-10,5,-19,-10,1
14:01:23:162893,8,10,0,-10,5,-19,-10,1
14:01:23:163650,-7,14,-1,-30,-11,-6,-8,-10
14:01:23:177990,13,-6,-3,10,1,-11,-7,-4
14:01:23:178652,13,-6,-3,10,1,-11,-7,-4
14:01:23:184546,-1,-1,14,26,1,10,18,-4
14:01:23:192297,-2,24,-11,-26,-11,17,16,5
14:01:23:199666,-2,24,-11,-26,-11,17,16,5
14:01:23:215364,4,5,9,3,-12,-11,-3,6
14:01:23:216110,2,-12,-14,4,-7,-9,-1,-4
14:01:23:223044,2,-12,-14,4,-7,-9,-1,-4
14:01:23:223652,-10,8,0,-13,-7,-16,-20,-3
14:01:23:237825,-4,20,21,11,-4,-12,-11,1
14:01:23:238624,-4,20,21,11,-4,-12,-11,1
14:01:23:244721,4,-24,21,-1,12,4,6,6
14:01:23:252104,-7,-32,-9,30,0,-15,1,0
14:01:23:259754,-7,-32,-9,30,0,-15,1,0
14:01:23:267071,-3,21,0,15,15,19,4,-1
14:01:23:274664,6,-1,-2,-21,-2,-7,-7,2
14:01:23:282182,6,-1,-2,-21,-2,-7,-7,2
14:01:23:289681,13,-13,-22,-1,-2,28,20,-1
14:01:23:297841,-1,15,6,18,6,3,3,2
14:01:23:298643,-1,15,6,18,6,3,3,2
14:01:23:304658,11,6,-9,-33,-4,-1,9,10
14:01:23:320798,4,-2,-13,0,7,-3,-10,0
14:01:23:321597,4,-2,-13,0,7,-3,-10,0
14:01:23:327165,-8,10,1,-9,10,4,-10,-7
14:01:23:334563,-6,-12,-19,-58,-24,-16,-9,-6
14:01:23:342308,-6,-12,-19,-58,-24,-16,-9,-6
14:01:23:349608,-8,-16,-5,-16,-14,-8,2,-10
14:01:23:357873,1,-4,-10,-13,0,-5,-14,-5
14:01:23:358644,1,-4,-10,-13,0,-5,-14,-5
14:01:23:364629,-2,5,1,9,-16,27,34,-1
14:01:23:388608,-6,-12,-1,17,-1,-6,2,-3
14:01:23:389303,-6,-12,-1,17,-1,-6,2,-3
14:01:23:390049,-6,13,-8,-3,14,-14,-24,-6
14:01:23:394711,11,13,-9,-6,6,0,-6,3
14:01:23:402154,11,13,-9,-6,6,0,-6,3
14:01:23:409642,-3,-15,0,24,-2,5,-8,-4
14:01:23:426099,-2,18,1,43,19,14,5,0
14:01:23:426768,-2,18,1,43,19,14,5,0
14:01:23:427533,1,-10,17,-17,-9,-15,-4,-2
14:01:23:440272,-7,6,13,-15,-9,6,7,0
14:01:23:441113,-7,6,13,-15,-9,6,7,0
14:01:23:447175,11,5,-9,9,4,-12,3,4
14:01:23:454649,-1,-12,-7,-20,-20,7,9,0
14:01:23:462180,-1,-12,-7,-20,-20,7,9,0
14:01:23:469578,-2,2,3,6,14,3,4,1
14:01:23:477899,-2,-10,-5,13,15,-14,-8,-2
14:01:23:478599,-2,-10,-5,13,15,-14,-8,-2
14:01:23:492233,10,14,-22,20,4,-4,-7,-1
14:01:23:500295,1,7,6,-10,18,1,2,1
14:01:23:501097,1,7,6,-10,18,1,2,1
14:01:23:507156,5,-3,2,8,-16,-21,-10,-1
14:01:23:514581,-7,-19,6,-2,-9,3,0,-1
14:01:23:522302,-7,-19,6,-2,-9,3,0,-1
14:01:23:529646,-8,-15,0,-6,0,0,1,3
14:01:23:537813,-3,-2,2,-17,-10,-2,-20,-7
14:01:23:538631,-3,-2,2,-17,-10,-2,-20,-7
14:01:23:544667,6,24,20,5,-12,5,13,8
14:01:23:560872,9,26,8,-24,-10,-15,1,2
14:01:23:561571,9,26,8,-24,-10,-15,1,2
14:01:23:567071,0,0,-14,2,3,-11,-12,-2
14:01:23:574605,1,7,10,3,4,13,17,5
14:01:23:582167,1,7,10,3,4,13,17,5
14:01:23:598480,-8,-1,10,4,-18,-6,-18,-4
14:01:23:599281,4,-3,-6,7,-1,5,-9,-2
14:01:23:600122,4,-3,-6,7,-1,5,-9,-2
14:01:23:604618,-2,8,-7,-4,2,4,18,11
14:01:23:620272,-2,9,-5,-5,-5,3,-1,-1
14:01:23:621089,-2,9,-5,-5,-5,3,-1,-1
14:01:23:627155,-8,-27,-9,2,-7,-8,-9,-8
14:01:23:642961,-18,-6,-15,54,27,-8,-7,-4
14:01:23:643618,-18,-6,-15,54,27,-8,-7,-4
14:01:23:649620,-1,-25,-18,-12,5,17,5,-3
14:01:23:666005,0,-4,-23,-15,-9,-3,-2,-1
14:01:23:666836,0,-4,-23,-15,-9,-3,-2,-1
14:01:23:667596,-8,19,7,-1,2,-1,-1,-6
14:01:23:680350,-3,-7,7,2,-13,-12,-10,0
14:01:23:681176,-3,-7,7,2,-13,-12,-10,0
14:01:23:687099,6,-3,-4,-9,5,-21,-37,0
14:01:23:702862,9,-4,-2,-13,-20,4,10,3
14:01:23:703588,9,-4,-2,-13,-20,4,10,3
14:01:23:709650,10,12,12,-9,24,9,9,1
14:01:23:717810,-1,-1,-3,-8,-8,-10,3,-3
14:01:23:718627,-1,-1,-3,-8,-8,-10,3,-3
14:01:23:732131,-4,-28,-6,-9,-10,-7,-5,-5
14:01:23:740421,-12,-8,-6,-7,14,-14,-12,-6
14:01:23:741141,-12,-8,-6,-7,14,-14,-12,-6
14:01:23:747118,1,9,9,19,3,5,10,4
14:01:23:754598,4,12,8,-3,-2,8,-8,-3
14:01:23:770348,4,12,8,-3,-2,8,-8,-3
14:01:23:771129,-14,4,-3,3,1,20,30,-9
14:01:23:777843,5,-6,14,-10,-8,8,-12,3
14:01:23:778622,5,-6,14,-10,-8,8,-12,3
14:01:23:784572,-6,24,4,-24,-20,-8,-12,2
14:01:23:800319,8,9,-3,8,27,5,10,2
14:01:23:801108,8,9,-3,8,27,5,10,2
14:01:23:807155,-4,-7,1,-3,0,-4,-4,-5
14:01:23:814698,-3,-1,-15,3,-2,5,3,1
14:01:23:822357,-3,-1,-15,3,-2,5,3,1
14:01:23:838521,-16,-2,-8,-4,-2,8,12,-5
14:01:23:839354,2,-17,13,17,-12,-35,-16,-6
14:01:23:840141,2,-17,13,17,-12,-35,-16,-6
14:01:23:844614,4,-1,5,3,4,-13,-1,7
14:01:23:860388,-17,-4,1,-3,-3,-28,-34,-8
14:01:23:861094,-17,-4,1,-3,-3,-28,-34,-8
14:01:23:867040,0,-4,1,4,3,23,2,-8
14:01:23:874636,7,23,9,51,18,7,9,3
14:01:23:882218,7,23,9,51,18,7,9,3
14:01:23:889662,5,-5,-21,25,0,-13,-14,-4
14:01:23:897893,-14,-6,-3,23,-1,5,11,-4
14:01:23:898641,-14,-6,-3,23,-1,5,11,-4
14:01:23:904617,-5,-9,-9,-24,-8,-4,-3,0
14:01:23:920316,5,-7,5,-1,-16,3,0,-2
14:01:23:921088,5,-7,5,-1,-16,3,0,-2
14:01:23:927256,-3,10,-5,15,9,3,1,2
14:01:23:934613,-5,-12,-5,-47,-5,12,17,3
14:01:23:942267,-5,-12,-5,-47,-5,12,17,3
14:01:23:949668,1,-3,20,13,6,11,7,-4
14:01:23:957927,1,10,-2,1,2,35,29,-1
14:01:23:958629,1,10,-2,1,2,35,29,-1
14:01:23:964627,8,-19,-6,-13,-10,-13,-10,2
14:01:23:980737,-17,-23,-15,-18,-12,-18,-19,-5
14:01:23:981555,-17,-23,-15,-18,-12,-18,-19,-5
14:01:23:987187,-9,-1,1,-18,-16,-16,11,2
14:01:23:994729,9,-22,-47,-12,7,14,-2,-2
14:01:24:10400,9,-22,-47,-12,7,14,-2,-2
14:01:24:11215,0,27,-11,-30,-2,-12,-10,-4
14:01:24:17814,17,7,4,-10,-21,-10,-14,5
14:01:24:18635,17,7,4,-10,-21,-10,-14,5
14:01:24:24695,-11,-3,7,0,-3,10,19,-4
14:01:24:40376,-9,-11,-14,9,1,-5,5,-6
14:01:24:41105,-9,-11,-14,9,1,-5,5,-6
14:01:24:47159,-10,-16,9,-3,-20,9,-22,-9
14:01:24:54692,5,7,7,-13,11,11,0,6
14:01:24:62214,5,7,7,-13,11,11,0,6
14:01:24:69613,-8,-16,-16,2,5,-17,-3,-4
14:01:24:78351,-5,1,10,-13,-7,-19,9,2
14:01:24:85087,-5,1,10,-13,-7,-19,9,2
14:01:24:92244,11,-2,21,25,13,-3,-14,2
14:01:24:100276,2,6,32,-3,-12,-9,-6,-5
14:01:24:101064,2,6,32,-3,-12,-9,-6,-5
14:01:24:107113,20,-3,-8,-14,-8,5,-2,3
14:01:24:114660,-7,-2,8,1,23,16,1,-1
14:01:24:122265,-7,-2,8,1,23,16,1,-1
14:01:24:129587,4,13,-4,24,19,7,-3,4
14:01:24:137793,-5,-29,2,-3,-19,-6,3,-3
14:01:24:138593,-5,-29,2,-3,-19,-6,3,-3
14:01:24:152135,-9,12,5,7,-4,-12,5,0
14:01:24:160423,-1,1,-8,-9,0,-26,-7,-4
14:01:24:161113,-1,1,-8,-9,0,-26,-7,-4
14:01:24:167087,2,-3,1,44,13,26,18,4
14:01:24:174563,31,26,10,11,-4,-8,17,4
14:01:24:182188,31,26,10,11,-4,-8,17,4
14:01:24:189636,-17,1,-3,-16,-1,-2,-5,-2
14:01:24:197848,-1,-5,-2,2,-3,3,-13,6
14:01:24:198660,-1,-5,-2,2,-3,3,-13,6
14:01:24:204624,-3,-4,-15,-40,-5,-27,-5,-2
14:01:24:220298,-6,-7,2,-2,-1,-2,10,-2
14:01:24:221141,-6,-7,2,-2,-1,-2,10,-2
14:01:24:227223,-4,-1,-2,-20,-21,3,2,-1
14:01:24:242952,-9,2,-15,-9,3,14,23,-1
14:01:24:243638,-9,2,-15,-9,3,14,23,-1
14:01:24:249589,11,10,10,7,18,-13,-8,2
14:01:24:257862,2,10,6,16,5,-3,-4,3
14:01:24:258630,2,10,6,16,5,-3,-4,3
14:01:24:272249,-5,-9,3,-11,-17,19,-8,6
14:01:24:288581,-2,6,4,21,22,-9,-15,-2
14:01:24:289257,-2,6,4,21,22,-9,-15,-2
14:01:24:290037,4,-17,-18,35,23,-1,-3,-3
14:01:24:302814,-1,-2,0,12,-1,-11,-9,-1
14:01:24:303595,-1,-2,0,12,-1,-11,-9,-1
14:01:24:309739,-9,-15,-9,-14,-14,18,39,-9
14:01:24:317826,-9,-15,-9,-14,-14,18,39,-9
14:01:24:318574,-4,1,-9,-18,-7,1,8,-2
14:01:24:332182,10,3,-6,-14,1,22,1,2
14:01:24:340386,10,3,-6,-14,1,22,1,2
14:01:24:341109,-6,-2,-1,-1,0,10,10,7
14:01:24:347155,10,9,13,-3,-14,-17,-46,-3
14:01:24:363744,10,9,13,-3,-14,-17,-46,-3
14:01:24:370290,-8,-11,-6,-4,-14,-3,-24,-7
14:01:24:371085,-7,2,-7,15,7,-9,4,-1
14:01:24:377936,-7,2,-7,15,7,-9,4,-1
14:01:24:378573,-8,-12,-2,6,1,-12,-37,-6
14:01:24:392183,-2,1,2,0,-17,-13,-15,-5
14:01:24:400318,-2,1,2,0,-17,-13,-15,-5
14:01:24:401120,-6,1,7,11,16,10,-14,-3
14:01:24:407192,2,0,-4,-9,11,-4,6,4
14:01:24:423026,2,0,-4,-9,11,-4,6,4
14:01:24:423616,-5,-3,6,-2,-17,23,37,1
14:01:24:429631,4,3,0,5,-2,-14,3,-4
14:01:24:437889,4,3,0,5,-2,-14,3,-4
14:01:24:438643,-14,1,3,10,11,19,-5,-10
14:01:24:452127,-16,-2,1,10,-2,14,12,-4
14:01:24:460457,-16,-2,1,10,-2,14,12,-4
14:01:24:461180,9,-2,-10,-28,-14,10,15,7
14:01:24:474602,3,7,-16,-19,-3,-13,-17,-3
14:01:24:482837,3,7,-16,-19,-3,-13,-17,-3
14:01:24:483621,-8,-12,-5,-26,-12,-5,-7,-8
14:01:24:489712,0,-2,5,21,4,1,26,5
14:01:24:497866,0,-2,5,21,4,1,26,5
14:01:24:498646,11,-1,-7,-7,-9,-25,-11,-1
14:01:24:512123,-10,2,3,-20,-8,7,14,-4
14:01:24:520303,-10,2,3,-20,-8,7,14,-4
14:01:24:521124,-1,7,18,4,-17,-1,3,-1
14:01:24:527161,5,6,-11,-6,1,-15,-11,-1
14:01:24:542941,5,6,-11,-6,1,-15,-11,-1
14:01:24:543671,-2,4,0,7,9,-8,-9,-2
14:01:24:549605,2,-2,4,12,22,23,14,6
14:01:24:557825,2,-2,4,12,22,23,14,6
14:01:24:558650,-1,4,-3,-4,-13,-12,-11,-2
14:01:24:572198,17,-4,11,3,-2,1,-15,-1
14:01:24:580360,17,-4,11,3,-2,1,-15,-1
14:01:24:581148,4,6,2,4,-4,-31,9,0
14:01:24:587112,-1,-6,-3,-14,-2,19,19,3
14:01:24:602835,-1,-6,-3,-14,-2,19,19,3
14:01:24:603590,4,6,-7,-6,-12,-1,-15,2
14:01:24:609709,-7,-8,-1,3,-14,-12,-11,-2
14:01:24:617771,-7,-8,-1,3,-14,-12,-11,-2
14:01:24:618586,3,-13,-7,33,42,6,7,1
14:01:24:632170,-7,8,3,-11,11,-4,-6,-2
14:01:24:640388,-7,8,3,-11,11,-4,-6,-2
14:01:24:641077,-4,-4,-17,12,10,18,12,0
14:01:24:647123,0,-14,1,-3,-24,-68,-40,-5
14:01:24:662870,0,-14,1,-3,-24,-68,-40,-5
14:01:24:663604,-11,0,8,2,18,36,31,-1
14:01:24:669611,8,-4,2,-1,-6,2,5,4
14:01:24:677890,8,-4,2,-1,-6,2,5,4
14:01:24:678626,-11,-9,-9,-16,-16,-12,-16,-1
14:01:24:692227,-4,-6,1,-10,-12,-12,-5,-6
14:01:24:700318,-4,-6,1,-10,-12,-12,-5,-6
14:01:24:701060,-6,-6,-3,-7,0,12,9,-3
14:01:24:707135,27,35,21,30,8,21,15,10
14:01:24:722966,27,35,21,30,8,21,15,10
14:01:24:723582,1,16,-3,-3,-1,-11,-20,-5
14:01:24:729639,-11,0,-3,1,-3,30,25,1
14:01:24:737824,-11,0,-3,1,-3,30,25,1
14:01:24:738645,-1,-18,-34,-51,9,-8,-2,1
14:01:24:752134,-9,0,-9,0,18,-4,-3,-1
14:01:24:760387,-9,0,-9,0,18,-4,-3,-1
14:01:24:761124,4,-1,25,12,7,5,-2,1
14:01:24:767128,-14,-14,-10,-8,2,-5,0,-9
14:01:24:782920,-14,-14,-10,-8,2,-5,0,-9
14:01:24:783628,13,6,7,16,-2,3,3,5
14:01:24:789725,-5,-9,8,7,-1,-34,-55,0
14:01:24:805490,-5,-9,8,7,-1,-34,-55,0
14:01:24:806090,-26,-4,-5,-3,-16,1,-15,-8
14:01:24:812151,-2,-5,-1,-42,1,19,11,-5
14:01:24:820374,-2,-5,-1,-42,1,19,11,-5
14:01:24:821171,-9,-2,-5,-16,-2,-8,-10,-5
14:01:24:827262,-12,-5,-9,43,3,-8,-21,-15
14:01:24:843036,-12,-5,-9,43,3,-8,-21,-15
14:01:24:843679,14,5,7,3,-9,1,7,-1
14:01:24:849649,-1,0,-7,-21,-25,-11,-1,4
14:01:24:857231,-1,0,-7,-21,-25,-11,-1,4
14:01:24:864640,12,8,3,-5,-6,-26,3,-2
14:01:24:872240,-4,-2,0,-12,17,20,33,2
14:01:24:880383,-4,-2,0,-12,17,20,33,2
14:01:24:881118,-1,-6,8,-3,9,22,-16,3
14:01:24:887139,11,25,4,0,1,4,2,-1
14:01:24:902779,11,25,4,0,1,4,2,-1
14:01:24:903588,-4,-19,0,-2,-17,-20,-1,3
14:01:24:909688,-2,-11,3,-7,5,10,2,7
14:01:24:917801,-2,-11,3,-7,5,10,2,7
14:01:24:918584,-3,2,-2,1,2,14,5,1
14:01:24:932124,-4,8,16,54,-34,-13,-2,-3
14:01:24:940381,-4,8,16,54,-34,-13,-2,-3
14:01:24:941058,0,10,6,20,17,-3,15,3
14:01:24:947123,-2,-24,-17,-12,9,-16,-28,-6
14:01:24:963274,-2,-24,-17,-12,9,-16,-28,-6
14:01:24:964062,10,0,-9,-3,-17,16,14,2
14:01:24:969637,-13,-9,-4,12,-4,-3,-6,-9
14:01:24:977892,-13,-9,-4,12,-4,-3,-6,-9
14:01:24:978613,1,4,0,8,-6,-11,2,2
14:01:24:992196,10,-23,-3,6,11,5,2,3
14:01:25:302,10,-23,-3,6,11,5,2,3
14:01:25:1111,-4,-20,-25,-25,2,4,-8,-5
14:01:25:7187,-1,-12,0,-7,-11,3,-17,-9
14:01:25:22696,-1,-12,0,-7,-11,3,-17,-9
14:01:25:30306,1,-12,2,1,-4,3,-22,0
14:01:25:31077,-1,-12,-7,10,5,-8,-2,4
14:01:25:37850,-1,-12,-7,10,5,-8,-2,4
14:01:25:38606,3,11,6,16,4,-9,-13,-4
14:01:25:52099,-1,12,-7,39,40,23,5,1
14:01:25:60418,-1,12,-7,39,40,23,5,1
14:01:25:61167,4,8,-11,4,5,-1,6,1
14:01:25:67100,-4,21,13,-26,-14,-3,4,-4
14:01:25:82894,-4,21,13,-26,-14,-3,4,-4
14:01:25:83640,3,-6,5,-11,-15,-21,-9,-7
14:01:25:89633,-3,6,7,-17,-20,-18,-5,-7
14:01:25:97871,-3,6,7,-17,-20,-18,-5,-7
14:01:25:98622,7,-1,8,-8,-2,15,16,-1
14:01:25:112163,16,15,-16,-17,-7,6,24,6
14:01:25:120359,16,15,-16,-17,-7,6,24,6
14:01:25:121113,4,9,0,-13,4,-11,-17,2
14:01:25:134602,1,3,-4,5,13,-12,-10,2
14:01:25:142918,1,3,-4,5,13,-12,-10,2
14:01:25:143655,-5,-2,6,14,2,11,4,-1
14:01:25:149619,-3,24,-50,-51,-32,0,-1,4
14:01:25:157336,-3,24,-50,-51,-32,0,-1,4
14:01:25:164662,-9,-7,11,8,15,-3,-8,-2
14:01:25:172236,-17,-10,-1,-30,-1,-14,-7,-8
14:01:25:180410,-17,-10,-1,-30,-1,-14,-7,-8
14:01:25:181177,9,-11,10,15,-8,12,25,10
14:01:25:194682,0,-2,34,24,25,14,2,3
14:01:25:202821,0,-2,34,24,25,14,2,3
14:01:25:203659,-8,0,-1,-1,-3,-12,-14,-8
14:01:25:209704,6,-1,-10,-17,15,15,18,9
14:01:25:217146,6,-1,-10,-17,15,15,18,9
14:01:25:224621,-11,-4,-12,11,13,5,15,-1
14:01:25:232140,3,14,11,-10,-28,-15,-13,-4
14:01:25:240348,3,14,11,-10,-28,-15,-13,-4
14:01:25:241052,-15,-9,-4,-10,-4,-14,15,-3
14:01:25:254646,-9,-16,-1,-20,-9,-1,-10,0
14:01:25:262900,-9,-16,-1,-20,-9,-1,-10,0
14:01:25:263628,-9,-8,12,-3,11,-12,-9,-7
14:01:25:269601,-6,-6,-3,9,10,46,69,2
14:01:25:277210,-6,-6,-3,9,10,46,69,2
14:01:25:284591,16,33,-10,-7,-3,6,8,2
14:01:25:292208,-17,-15,8,-1,-26,-25,-26,-11
14:01:25:300349,-17,-15,8,-1,-26,-25,-26,-11
14:01:25:301087,2,29,7,-7,-12,1,11,2
14:01:25:314693,7,-4,-4,20,17,-12,-20,4
14:01:25:322973,7,-4,-4,20,17,-12,-20,4
14:01:25:323559,11,-2,-1,19,13,-3,-26,-3
14:01:25:329698,13,12,8,4,-1,-4,-2,-2
14:01:25:337160,13,12,8,4,-1,-4,-2,-2
14:01:25:344693,-3,-7,-14,-26,-17,-1,-6,-2
14:01:25:352110,4,-19,-6,-5,-17,-19,2,-3
14:01:25:360435,4,-19,-6,-5,-17,-19,2,-3
14:01:25:361177,-3,-9,-6,-15,13,-1,-13,-3
14:01:25:374660,-4,8,5,16,13,11,12,-1
14:01:25:382858,-4,8,5,16,13,11,12,-1
14:01:25:383602,8,15,-5,-23,-17,-4,0,-3
14:01:25:389625,-6,-19,-7,-9,-21,-7,-12,-4
14:01:25:405877,-6,-19,-7,-9,-21,-7,-12,-4
14:01:25:412761,-16,-1,-5,-6,17,6,-3,5
14:01:25:413536,11,9,-1,-9,8,5,2,2
14:01:25:420305,11,9,-1,-9,8,5,2,2
14:01:25:421106,0,2,3,19,-15,0,3,0
14:01:25:434615,-8,-10,-2,-15,-6,1,-17,0
14:01:25:442953,-8,-10,-2,-15,-6,1,-17,0
14:01:25:443633,-3,-7,0,18,10,10,31,6
14:01:25:449571,5,8,-2,3,3,-3,1,-3
14:01:25:457242,5,8,-2,3,3,-3,1,-3
14:01:25:464620,7,0,-9,14,-6,-11,-17,-6
14:01:25:472264,2,8,10,35,0,4,4,0
14:01:25:480352,2,8,10,35,0,4,4,0
14:01:25:481150,-14,0,15,-2,-9,-12,-4,-5
14:01:25:494701,-9,-12,-20,10,0,11,7,-3
14:01:25:519147,-9,-12,-20,10,0,11,7,-3
14:01:25:519978,-10,-24,-4,-3,20,1,-9,1
14:01:25:520775,-2,1,-1,-22,-18,21,20,2
14:01:25:521576,-2,1,-1,-22,-18,21,20,2
14:01:25:524613,8,11,16,27,10,15,-8,2
14:01:25:532161,12,20,-4,1,18,-32,-37,-1
14:01:25:540827,12,20,-4,1,18,-32,-37,-1
14:01:25:547142,2,-9,-9,-22,-14,-6,-18,-3
14:01:25:554632,-7,-7,-2,9,-3,-8,-8,-6
14:01:25:562867,-7,-7,-2,9,-3,-8,-8,-6
14:01:25:563654,9,-2,-5,38,10,8,19,2
14:01:25:569571,-12,-4,18,13,-1,-28,-17,-9
14:01:25:577243,-12,-4,18,13,-1,-28,-17,-9
14:01:25:584566,-4,8,-5,-6,8,13,15,-2
14:01:25:592172,1,-13,-1,-11,13,13,18,2
14:01:25:600369,1,-13,-1,-11,13,13,18,2
14:01:25:601150,-12,-15,-9,-5,-10,-13,-10,-10
14:01:25:624017,6,5,4,-14,4,2,2,1
14:01:25:624690,6,5,4,-14,4,2,2,1
14:01:25:625505,19,8,5,-16,-25,0,3,3
14:01:25:629676,10,30,2,-7,-12,6,9,0
14:01:25:637161,10,30,2,-7,-12,6,9,0
14:01:25:644750,-18,-11,-10,21,26,12,2,-1
14:01:25:652164,1,12,13,6,-6,-9,0,0
14:01:25:660433,1,12,13,6,-6,-9,0,0
14:01:25:661109,0,5,-7,-36,-23,-57,-55,-11
14:01:25:674611,-7,-34,-8,-3,-12,8,3,1
14:01:25:682771,-7,-34,-8,-3,-12,8,3,1
14:01:25:683630,19,-5,-2,-1,-7,12,11,5
14:01:25:689775,-5,-5,-5,-21,8,11,-2,-1
14:01:25:697199,-5,-5,-5,-21,8,11,-2,-1
14:01:25:704663,2,12,12,1,1,-8,10,1
14:01:25:712193,-12,-28,-21,14,26,-2,2,-4
14:01:25:727903,-12,-28,-21,14,26,-2,2,-4
14:01:25:728635,-13,-26,-7,16,-8,3,8,-6
14:01:25:734527,-2,4,13,21,21,-1,-29,3
14:01:25:742892,-2,4,13,21,21,-1,-29,3
14:01:25:743580,-2,-8,-7,-39,-30,3,-7,-3
14:01:25:749597,-3,-8,-9,-6,13,14,10,-4
14:01:25:757204,-3,-8,-9,-6,13,14,10,-4
14:01:25:764641,-6,6,2,-8,1,12,13,4
14:01:25:772270,3,15,4,-3,-13,-18,-7,5
14:01:25:788589,3,15,4,-3,-13,-18,-7,5
14:01:25:789323,-5,-5,-9,-21,0,-2,-22,-10
14:01:25:794680,-5,-22,-27,-21,14,6,1,0
14:01:25:802800,-5,-22,-27,-21,14,6,1,0
14:01:25:803608,-15,-47,-14,-5,13,-3,-6,-4
14:01:25:809689,-13,-10,-8,-20,-17,-16,-12,-4
14:01:25:817184,-13,-10,-8,-20,-17,-16,-12,-4
14:01:25:832765,-2,2,-5,4,10,-4,-9,-1
14:01:25:833538,4,13,13,-4,-20,8,12,0
14:01:25:840417,4,13,13,-4,-20,8,12,0
14:01:25:841080,3,28,18,9,3,2,-10,0
14:01:25:854620,2,-4,-3,-10,-13,-7,13,-6
14:01:25:863275,2,-4,-3,-10,-13,-7,13,-6
14:01:25:870254,10,13,0,-7,-7,1,29,13
14:01:25:871071,-3,8,4,4,-8,0,-19,-2
14:01:25:877286,-3,8,4,4,-8,0,-19,-2
14:01:25:884558,7,-2,4,2,-17,-12,-27,-3
14:01:25:901103,6,11,8,1,6,9,-8,1
14:01:25:901767,6,11,8,1,6,9,-8,1
14:01:25:902595,2,8,6,-18,-16,-7,18,3
14:01:25:914640,-23,12,-15,-12,0,0,5,-7
14:01:25:922909,-23,12,-15,-12,0,0,5,-7
14:01:25:923581,1,-24,-13,0,3,11,7,5
14:01:25:929634,15,3,0,0,-6,-4,3,6
14:01:25:937151,15,3,0,0,-6,-4,3,6
14:01:25:944684,-7,32,12,6,6,1,-7,-1
14:01:25:952083,7,-6,5,4,-14,0,3,1
14:01:25:960395,7,-6,5,4,-14,0,3,1
14:01:25:961157,1,-10,-8,-14,7,4,10,-1
14:01:25:974609,-14,16,-3,3,7,5,-2,-8
14:01:25:982835,-14,16,-3,3,7,5,-2,-8
14:01:25:983623,4,5,6,-4,-22,-9,-6,-6
14:01:25:989702,3,-5,10,26,27,-3,-6,2
14:01:26:5459,3,-5,10,26,27,-3,-6,2
14:01:26:6121,-8,-5,-2,16,11,29,24,3
14:01:26:12183,-6,-6,-3,3,-13,21,65,0
14:01:26:20331,-6,-6,-3,3,-13,21,65,0
14:01:26:21154,-4,-2,-5,-12,-14,2,0,-3
14:01:26:34641,9,-15,1,0,7,-13,-24,3
14:01:26:42944,9,-15,1,0,7,-13,-24,3
14:01:26:43651,-11,-10,3,23,2,-14,0,-6
14:01:26:49577,18,39,-9,-22,-3,-2,-9,2
14:01:26:57281,18,39,-9,-22,-3,-2,-9,2
14:01:26:64631,3,-8,1,24,26,-2,-9,-1
14:01:26:72254,7,11,15,-7,1,5,2,5
14:01:26:80360,7,11,15,-7,1,5,2,5
14:01:26:81154,6,10,5,-6,-3,9,-12,-3
14:01:26:94638,-7,-10,-5,4,-3,9,-6,-2
14:01:26:102808,-7,-10,-5,4,-3,9,-6,-2
14:01:26:103577,13,11,8,7,19,17,31,14
14:01:26:117836,-17,-12,-3,-14,-18,-22,-19,-8
14:01:26:118613,-17,-12,-3,-14,-18,-22,-19,-8
14:01:26:124655,-9,2,9,32,10,1,-4,-8
14:01:26:132150,0,2,7,2,11,-2,-3,-2
14:01:26:139717,0,2,7,2,11,-2,-3,-2
14:01:26:147138,-6,3,-3,-27,3,-10,-2,0
14:01:26:154645,-17,-16,-6,6,-13,-3,-29,-3
14:01:26:162880,-17,-16,-6,6,-13,-3,-29,-3
14:01:26:163636,14,5,4,1,-2,61,62,15
14:01:26:177926,-2,10,-12,-5,0,-7,-24,-11
14:01:26:178628,-2,10,-12,-5,0,-7,-24,-11
14:01:26:184564,0,14,3,-14,-11,-43,-33,-4
14:01:26:192197,13,-10,-18,12,8,14,14,7
14:01:26:199718,13,-10,-18,12,8,14,14,7
14:01:26:215318,-23,-13,-6,5,17,-8,-6,-10
14:01:26:216103,9,7,0,0,-27,-33,-24,-11
14:01:26:223013,9,7,0,0,-27,-33,-24,-11
14:01:26:223663,2,-10,-11,2,12,17,21,6
14:01:26:237827,-11,-24,-31,-8,-5,-20,-19,-6
14:01:26:238674,-11,-24,-31,-8,-5,-20,-19,-6
14:01:26:244676,-20,9,12,-4,-20,-25,-14,-7
14:01:26:252070,14,-8,14,63,8,21,27,5
14:01:26:259762,14,-8,14,63,8,21,27,5
14:01:26:267094,18,6,-15,-20,-34,-10,-14,-1
14:01:26:274656,-8,-10,6,-7,23,-3,2,-1
14:01:26:282929,-8,-10,6,-7,23,-3,2,-1
14:01:26:283641,-6,-8,-18,-17,-15,-11,-8,1
14:01:26:297837,7,-10,1,-6,-13,9,12,7
14:01:26:298641,7,-10,1,-6,-13,9,12,7
14:01:26:304640,2,2,0,-9,-14,-43,-31,-4
14:01:26:312150,-13,-15,0,12,11,36,42,2
14:01:26:319676,-13,-15,0,12,11,36,42,2
14:01:26:327207,9,-17,-36,-15,-28,-26,-33,-3
14:01:26:334597,-2,8,-20,-24,0,-13,-8,-6
14:01:26:342911,-2,8,-20,-24,0,-13,-8,-6
14:01:26:343614,-14,-4,29,25,26,3,-4,-7
14:01:26:357766,4,26,14,-29,-7,-9,0,1
14:01:26:358563,4,26,14,-29,-7,-9,0,1
14:01:26:364641,14,25,12,-18,-1,9,17,6
14:01:26:372254,6,13,4,-2,17,-1,-12,2
14:01:26:379686,6,13,4,-2,17,-1,-12,2
14:01:26:387128,-9,-55,-44,-4,15,52,41,3
14:01:26:394704,-5,8,6,5,0,-8,-2,-3
14:01:26:402781,-5,8,6,5,0,-8,-2,-3
14:01:26:403603,-5,-9,10,18,-4,-21,-12,-8
14:01:26:418254,-4,-8,5,3,12,2,7,1
14:01:26:419046,-4,-8,5,3,12,2,7,1
14:01:26:424667,-10,-10,9,19,7,-4,-11,-4
14:01:26:432159,2,-1,17,-11,-37,-6,-4,3
14:01:26:439737,2,-1,17,-11,-37,-6,-4,3
14:01:26:447134,9,20,-22,-27,20,-6,-17,-2
14:01:26:454644,13,-7,-51,-17,-9,-7,-1,6
14:01:26:462915,13,-7,-51,-17,-9,-7,-1,6
14:01:26:463699,-6,-8,4,11,-5,-6,0,-4
14:01:26:477897,-4,10,16,23,0,-1,-10,-7
14:01:26:478617,-4,10,16,23,0,-1,-10,-7
14:01:26:484578,-2,-2,0,-13,-1,-4,-7,-6
14:01:26:492121,-9,-3,6,8,-6,51,49,4
14:01:26:499688,-9,-3,6,8,-6,51,49,4
14:01:26:507143,2,-2,-8,12,6,9,11,3
14:01:26:514612,3,-12,1,6,-9,1,0,-4
14:01:26:522977,3,-12,1,6,-9,1,0,-4
14:01:26:523660,5,6,11,16,-4,-30,6,3
14:01:26:537835,8,-8,-10,-5,13,-10,-12,1
14:01:26:538628,8,-8,-10,-5,13,-10,-12,1
14:01:26:544708,-4,15,21,4,0,-6,-12,-6
14:01:26:560389,-3,-19,14,45,20,-7,-2,-4
14:01:26:561187,-3,-19,14,45,20,-7,-2,-4
14:01:26:567067,8,10,14,7,-4,3,-2,9
14:01:26:574641,-34,-24,-22,19,9,4,-6,-9
14:01:26:582854,-34,-24,-22,19,9,4,-6,-9
14:01:26:583614,-1,-4,-7,35,-10,-1,-29,-9
14:01:26:597790,3,15,15,-19,10,-3,-8,-3
14:01:26:598614,3,15,15,-19,10,-3,-8,-3
14:01:26:604653,1,-28,-28,-4,-13,7,39,1
14:01:26:612184,9,10,19,5,2,-16,-8,0
14:01:26:619723,9,10,19,5,2,-16,-8,0
14:01:26:627217,12,-8,-3,-41,8,-3,-13,-4
14:01:26:634606,4,-16,-12,-3,-14,-11,0,3
14:01:26:642936,4,-16,-12,-3,-14,-11,0,3
14:01:26:643697,-6,6,-5,29,-8,0,0,-1
14:01:26:657814,0,18,2,43,20,13,-1,4
14:01:26:658654,0,18,2,43,20,13,-1,4
14:01:26:664592,-6,-5,14,-19,-20,12,1,-1
14:01:26:672188,-5,-6,11,-10,-20,-17,20,-3
14:01:26:679711,-5,-6,11,-10,-20,-17,20,-3
14:01:26:687121,-16,0,-2,-4,-2,32,24,-6
14:01:26:694701,8,2,19,-1,-8,-15,-28,-1
14:01:26:702788,8,2,19,-1,-8,-15,-28,-1
14:01:26:703584,12,-8,1,20,3,1,8,8
14:01:26:717830,-2,-6,-9,25,-14,-2,5,-1
14:01:26:718607,-2,-6,-9,25,-14,-2,5,-1
14:01:26:724657,-13,-12,-14,-84,-9,2,-4,-1
14:01:26:732148,0,4,11,-47,-18,-13,-19,-4
14:01:26:739731,0,4,11,-47,-18,-13,-19,-4
14:01:26:747155,19,17,-10,53,21,-50,-57,-4
14:01:26:754695,16,-13,-32,-40,6,35,27,9
14:01:26:770365,16,-13,-32,-40,6,35,27,9
14:01:26:771124,0,14,26,10,6,-6,-2,-3
14:01:26:777873,-8,1,-10,39,14,16,14,-2
14:01:26:778630,-8,1,-10,39,14,16,14,-2
14:01:26:784595,7,9,10,-39,-15,-7,-1,2
14:01:26:792198,1,-8,-4,-44,-24,-6,-3,1
14:01:26:799681,1,-8,-4,-44,-24,-6,-3,1
14:01:26:807177,-40,-27,-17,-6,3,10,10,-7
14:01:26:814612,-19,-3,-5,19,5,-9,0,-8
14:01:26:823003,-19,-3,-5,19,5,-9,0,-8
14:01:26:823653,6,34,21,-25,0,7,2,3
14:01:26:838268,-6,-18,-49,-9,21,15,27,-3
14:01:26:839102,-6,-18,-49,-9,21,15,27,-3
14:01:26:844685,-9,-40,-13,-21,-28,-23,-15,-4
14:01:26:852113,9,2,26,-10,-12,-27,-22,-1
14:01:26:859811,9,2,26,-10,-12,-27,-22,-1
14:01:26:867080,-16,-6,-15,-19,-8,4,8,-6
14:01:26:874604,-5,4,21,19,-10,-17,-15,-4
14:01:26:882852,-5,4,21,19,-10,-17,-15,-4
14:01:26:883648,7,3,-11,43,28,13,5,-2
14:01:26:897859,-3,3,10,-20,0,7,-6,0
14:01:26:898641,-3,3,10,-20,0,7,-6,0
14:01:26:904650,7,-1,-9,36,13,-5,1,0
14:01:26:912184,10,6,12,-1,0,32,23,0
14:01:26:919680,10,6,12,-1,0,32,23,0
14:01:26:927180,20,-4,-14,-2,3,1,-7,4
14:01:26:943612,9,17,10,-32,-3,0,9,9
14:01:26:944348,9,17,10,-32,-3,0,9,9
14:01:26:945145,8,28,26,63,13,22,11,2
14:01:26:957809,-3,-8,-21,-21,16,-9,-14,-3
14:01:26:958656,-3,-8,-21,-21,16,-9,-14,-3
14:01:26:964589,-13,-6,5,-25,-4,-4,-1,-1
14:01:26:972203,-7,-8,-25,35,-6,-8,-23,-6
14:01:26:979703,-7,-8,-25,35,-6,-8,-23,-6
14:01:26:987109,-2,1,3,9,18,-7,-4,3
14:01:27:3507,-2,25,0,-7,-6,-14,-3,-3
14:01:27:4275,-2,25,0,-7,-6,-14,-3,-3
14:01:27:5077,21,-3,22,3,-33,4,23,0
14:01:27:17765,0,-4,12,-12,-6,-16,-19,-1
14:01:27:18576,0,-4,12,-12,-6,-16,-19,-1
14:01:27:24603,-6,42,26,27,9,-7,9,-2
14:01:27:32152,-11,-10,10,17,17,0,-17,-7
14:01:27:39740,-11,-10,10,17,17,0,-17,-7
14:01:27:47098,4,26,1,23,-11,-14,-5,0
14:01:27:54612,-35,-2,-16,-37,-23,-9,1,-4
14:01:27:62202,-35,-2,-16,-37,-23,-9,1,-4
14:01:27:69590,-6,-11,-18,-18,-6,-17,-40,-9
14:01:27:77934,20,-16,-18,18,34,41,31,6
14:01:27:78661,20,-16,-18,18,34,41,31,6
14:01:27:84576,-15,2,14,-39,-23,-7,-5,1
14:01:27:100355,-12,0,12,52,10,-12,-21,-4
14:01:27:101105,-12,0,12,52,10,-12,-21,-4
14:01:27:115278,-7,-21,-22,-8,3,6,-8,-7
14:01:27:116049,24,24,-4,7,-14,7,12,14
14:01:27:122306,24,24,-4,7,-14,7,12,14
14:01:27:129662,8,12,11,-13,6,2,-7,2
14:01:27:137835,0,-33,-17,7,0,-11,0,-3
14:01:27:138616,0,-33,-17,7,0,-11,0,-3
14:01:27:144702,-4,-25,-25,-32,-19,-5,-10,-3
14:01:27:160384,19,-4,3,-44,-7,7,7,6
14:01:27:161145,19,-4,3,-44,-7,7,7,6
14:01:27:167078,1,-21,-27,-5,-14,-12,5,0
14:01:27:174663,-8,-36,4,-23,-19,-5,5,-1
14:01:27:182230,-8,-36,4,-23,-19,-5,5,-1
14:01:27:189754,-2,-2,1,-21,11,19,43,14
14:01:27:197877,-1,4,-6,-35,-20,-24,-52,-16
14:01:27:198687,-1,4,-6,-35,-20,-24,-52,-16
14:01:27:204646,3,-6,-15,2,-2,-6,-4,-1
14:01:27:220378,-19,-21,-20,24,34,41,45,-2
14:01:27:221194,-19,-21,-20,24,34,41,45,-2
14:01:27:227165,1,7,6,7,6,38,19,1
14:01:27:234581,-16,4,-5,-1,-15,-15,-8,-6
14:01:27:242265,-16,4,-5,-1,-15,-15,-8,-6
14:01:27:249661,-2,5,6,-3,-8,-23,-14,-1
14:01:27:257780,4,12,5,-13,-10,-3,2,-1
14:01:27:258637,4,12,5,-13,-10,-3,2,-1
14:01:27:264648,4,-24,12,-14,-16,-13,-9,5
14:01:27:280748,-1,25,21,41,37,2,-14,-7
14:01:27:281566,-1,25,21,41,37,2,-14,-7
14:01:27:287158,7,-4,-5,-8,16,17,-6,3
14:01:27:294679,-6,3,-1,-11,-14,-21,-4,3
14:01:27:302139,-6,3,-1,-11,-14,-21,-4,3
14:01:27:318444,-7,12,-11,-45,-7,2,16,-4
14:01:27:319257,-17,1,-4,-12,-2,-12,-32,-15
14:01:27:320044,-17,1,-4,-12,-2,-12,-32,-15
14:01:27:324646,-10,2,15,-12,-17,5,36,-4
14:01:27:340412,13,-22,-5,-17,2,30,20,6
14:01:27:341142,13,-22,-5,-17,2,30,20,6
14:01:27:347143,8,9,14,54,40,9,-9,2
14:01:27:354655,-7,-29,-16,20,-8,-16,2,0
14:01:27:362165,-7,-29,-16,20,-8,-16,2,0
14:01:27:369647,-7,7,2,7,-3,-6,-18,-15
14:01:27:385710,-4,18,-2,-28,-12,-4,8,1
14:01:27:386525,-4,18,-2,-28,-12,-4,8,1
14:01:27:392213,-3,7,21,-3,-3,-21,-29,-23
14:01:27:400266,7,2,-1,-16,-4,-20,-26,-6
14:01:27:401073,7,2,-1,-16,-4,-20,-26,-6
14:01:27:407128,-12,-19,-22,8,20,48,31,17
14:01:27:414669,8,14,25,10,0,12,11,13
14:01:27:422224,8,14,25,10,0,12,11,13
14:01:27:429626,4,-5,3,-8,-2,-18,-23,-3
14:01:27:437811,2,3,7,5,-11,-1,20,3
14:01:27:438639,2,3,7,5,-11,-1,20,3
14:01:27:444674,2,18,-5,0,-12,-8,-19,-10
14:01:27:460398,2,54,29,37,30,12,24,7
14:01:27:461095,2,54,29,37,30,12,24,7
14:01:27:467108,1,6,-18,-22,-4,-35,-37,-4
14:01:27:474621,-8,-15,-9,-13,-20,2,-24,-13
14:01:27:482227,-8,-15,-9,-13,-20,2,-24,-13
14:01:27:489676,-6,32,-7,2,10,25,35,9
14:01:27:497876,5,-25,-17,3,2,8,10,0
14:01:27:498621,5,-25,-17,3,2,8,10,0
14:01:27:504633,-1,-5,-13,1,-15,-8,12,3
14:01:27:528507,13,12,8,19,-13,-25,-15,-5
14:01:27:529305,13,12,8,19,-13,-25,-15,-5
14:01:27:530090,3,-23,-6,-1,6,-18,7,1
14:01:27:534618,-3,5,-36,-14,-4,29,43,7
14:01:27:542208,-3,5,-36,-14,-4,29,43,7
14:01:27:549639,9,-13,0,-12,0,16,-4,5
14:01:27:557861,-9,-14,6,-20,-3,-9,0,-1
14:01:27:558645,-9,-14,6,-20,-3,-9,0,-1
14:01:27:564663,-9,-16,-6,5,-14,-20,-15,-4
14:01:27:580418,-18,-12,-1,-4,-8,-7,-4,-7
14:01:27:581116,-18,-12,-1,-4,-8,-7,-4,-7
14:01:27:587128,2,-13,7,49,3,11,14,-1
14:01:27:594675,-5,14,0,-4,22,-12,-14,-7
14:01:27:602160,-5,14,0,-4,22,-12,-14,-7
14:01:27:609669,0,-2,-27,-26,8,2,8,-1
14:01:27:617781,2,-37,-10,4,-2,-6,-62,-5
14:01:27:618605,2,-37,-10,4,-2,-6,-62,-5
14:01:27:624651,0,12,22,6,10,-4,-13,-6
14:01:27:640389,4,-7,-5,-6,-6,-15,-3,-1
14:01:27:641125,4,-7,-5,-6,-6,-15,-3,-1
14:01:27:647117,1,-5,-15,-11,-1,3,19,-1
14:01:27:662806,14,11,21,0,-4,3,-8,4
14:01:27:663620,14,11,21,0,-4,3,-8,4
14:01:27:669573,9,21,19,-8,-16,-16,-16,-2
14:01:27:677871,9,21,19,-8,-16,-16,-16,-2
14:01:27:678598,6,9,-11,-6,7,5,19,7
14:01:27:684576,-8,-16,9,6,5,-24,-46,-10
14:01:27:700363,-8,-16,9,6,5,-24,-46,-10
14:01:27:701119,-13,-2,-11,-4,5,21,21,0
14:01:27:707124,-14,-43,0,17,-4,3,-1,-3
14:01:27:722985,-14,-43,0,17,-4,3,-1,-3
14:01:27:723586,5,-18,43,74,19,-7,2,-3
14:01:27:729640,-3,-9,0,-14,-2,3,14,-2
14:01:27:737845,-3,-9,0,-14,-2,3,14,-2
14:01:27:738603,-17,-36,-29,-20,-25,-10,-4,-2
14:01:27:744640,-5,9,-7,14,5,8,-5,-2
14:01:27:760798,-5,9,-7,14,5,8,-5,-2
14:01:27:767712,5,-2,3,-12,0,6,47,-2
14:01:27:768515,7,13,-12,-5,2,-10,-13,-4
14:01:27:782870,7,13,-12,-5,2,-10,-13,-4
14:01:27:783601,13,25,6,-58,-50,-14,-46,-10
14:01:27:789678,-7,-5,2,19,8,10,1,4
14:01:27:797843,-7,-5,2,19,8,10,1,4
14:01:27:798600,6,-17,-29,-24,-14,-15,0,4
14:01:27:804602,-6,-12,-5,8,7,18,19,-2
14:01:27:820278,-6,-12,-5,8,7,18,19,-2
14:01:27:821063,-11,27,27,14,7,1,13,3
14:01:27:834618,4,-5,-10,-33,-28,-11,18,4
14:01:27:842953,4,-5,-10,-33,-28,-11,18,4
14:01:27:843615,-3,3,26,91,35,40,14,0
14:01:27:849671,0,2,-2,-12,2,13,2,3
14:01:27:857874,0,2,-2,-12,2,13,2,3
14:01:27:858566,5,50,18,1,23,-6,-9,3
14:01:27:864598,2,24,4,1,-13,-2,-3,5
14:01:27:880305,2,24,4,1,-13,-2,-3,5
14:01:27:881119,-7,-12,-17,2,9,-10,0,0
14:01:27:887179,-5,13,-5,-43,-17,30,46,2
14:01:27:902800,-5,13,-5,-43,-17,30,46,2
14:01:27:903564,6,4,1,3,-3,-7,6,0
14:01:27:909763,2,1,3,22,24,-20,-41,-7
14:01:27:917758,2,1,3,22,24,-20,-41,-7
14:01:27:918562,6,-16,-23,-46,-23,-7,-2,-2
14:01:27:924572,1,-6,14,4,6,2,2,7
14:01:27:940323,1,-6,14,4,6,2,2,7
14:01:27:941145,-3,57,2,6,9,-19,-7,3
14:01:27:947184,12,-15,-16,-31,-10,-8,-6,0
14:01:27:962892,12,-15,-16,-31,-10,-8,-6,0
14:01:27:963639,-8,-27,15,34,-13,2,-12,-7
14:01:27:969601,-4,0,11,32,16,-7,-3,-7
14:01:27:977844,-4,0,11,32,16,-7,-3,-7
14:01:27:978575,-19,-29,-9,6,11,25,3,0
14:01:27:984605,-8,-17,3,-36,-29,-15,4,4
14:01:28:375,-8,-17,3,-36,-29,-15,4,4
14:01:28:1093,6,-17,2,-17,9,-21,-41,0
14:01:28:7157,-9,29,7,10,6,13,-1,4
14:01:28:22971,-9,29,7,10,6,13,-1,4
14:01:28:23647,-2,15,-13,-37,-30,3,6,-3
14:01:28:29658,-3,-29,-13,11,12,6,-7,-9
14:01:28:38303,-3,-29,-13,11,12,6,-7,-9
14:01:28:52754,3,5,6,13,-7,-22,-3,-1
14:01:28:53548,23,11,6,-5,-2,6,-10,0
14:01:28:60433,23,11,6,-5,-2,6,-10,0
14:01:28:61160,-15,-36,-29,-34,-16,14,1,-2
14:01:28:67101,-8,1,-6,18,4,-7,8,-1
14:01:28:82916,-8,1,-6,18,4,-7,8,-1
14:01:28:83658,2,-13,5,-7,3,7,0,1
14:01:28:89732,-2,-18,-10,-20,-1,-16,-23,-1
14:01:28:97880,-2,-18,-10,-20,-1,-16,-23,-1
14:01:28:98680,7,5,9,18,14,8,-5,-3
14:01:28:121472,6,18,-9,-48,12,-16,9,3
14:01:28:122286,6,18,-9,-48,12,-16,9,3
14:01:28:123040,-10,5,-16,-14,-21,7,7,0
14:01:28:127174,2,-4,19,46,10,2,-17,-2
14:01:28:142941,2,-4,19,46,10,2,-17,-2
14:01:28:143605,4,-5,3,-8,-18,-21,-21,-4
14:01:28:149590,-13,-59,-16,5,-17,4,-6,-6
14:01:28:157907,-13,-59,-16,5,-17,4,-6,-6
14:01:28:158682,15,43,11,-29,-3,-20,9,2
14:01:28:172435,-9,-22,-33,-13,-13,7,9,-2
14:01:28:188437,-9,-22,-33,-13,-13,7,9,-2
14:01:28:189287,-15,6,9,19,26,-3,-14,-10
14:01:28:190047,4,14,4,14,1,20,2,2
14:01:28:202895,4,14,4,14,1,20,2,2
14:01:28:203638,5,-5,-13,-5,29,40,51,7
14:01:28:209752,-5,37,10,14,-11,-16,11,-6
14:01:28:217767,-5,37,10,14,-11,-16,11,-6
14:01:28:218553,11,-7,7,19,-9,-19,-12,3
14:01:28:232131,-20,12,15,-6,-5,4,6,-2
14:01:28:240380,-20,12,15,-6,-5,4,6,-2
14:01:28:241118,15,14,-8,41,1,-11,-8,4
14:01:28:247173,-14,0,14,19,-1,-1,-1,-2
14:01:28:262892,-14,0,14,19,-1,-1,-1,-2
14:01:28:263636,-12,-19,-23,-37,-6,19,-8,-6
14:01:28:269567,7,14,7,4,9,19,12,1
14:01:28:293485,7,14,7,4,9,19,12,1
14:01:28:294269,-5,8,-14,-27,-14,-13,-1,-3
14:01:28:295076,-5,6,-3,10,3,-14,-2,0
14:01:28:300275,-5,6,-3,10,3,-14,-2,0
14:01:28:301086,5,1,13,-37,-30,-14,-13,0
14:01:28:307145,3,11,1,-8,-1,2,-1,2
14:01:28:322962,3,11,1,-8,-1,2,-1,2
14:01:28:323612,-9,-13,0,5,24,15,11,-5
14:01:28:329707,3,-14,-8,-1,6,15,27,-3
14:01:28:337856,3,-14,-8,-1,6,15,27,-3
14:01:28:338623,-10,11,3,3,-8,28,22,7
14:01:28:361115,-4,-44,-5,-4,-6,-27,-19,-4
14:01:28:361783,-4,-44,-5,-4,-6,-27,-19,-4
14:01:28:362606,4,-3,9,16,12,-3,-4,-5
14:01:28:367092,13,16,2,-10,-1,-8,-29,-1
14:01:28:382897,13,16,2,-10,-1,-8,-29,-1
14:01:28:383670,-17,-5,-7,-4,-7,-1,6,-2
14:01:28:389677,3,-5,-8,-4,9,-7,-9,-5
14:01:28:397897,3,-5,-8,-4,9,-7,-9,-5
14:01:28:398646,-9,0,3,18,3,-12,10,-1
14:01:28:412144,7,18,6,6,13,10,47,7
14:01:28:420366,7,18,6,6,13,10,47,7
14:01:28:421157,6,-9,13,-8,-2,-19,-25,-7
14:01:28:427209,-2,-11,-5,-4,-28,-17,-15,-2
14:01:28:442968,-2,-11,-5,-4,-28,-17,-15,-2
14:01:28:443640,9,4,-8,-8,1,3,3,5
14:01:28:449640,-7,9,13,32,10,16,-9,-3
14:01:28:465343,-7,9,13,32,10,16,-9,-3
14:01:28:466127,-2,3,-5,-21,-10,-2,-7,-7
14:01:28:472235,3,1,-22,-59,-16,25,12,4
14:01:28:480349,3,1,-22,-59,-16,25,12,4
14:01:28:481130,17,22,11,26,11,-8,-22,6
14:01:28:503454,-4,-12,-14,-2,-8,8,16,4
14:01:28:504257,-4,-12,-14,-2,-8,8,16,4
14:01:28:505081,0,-12,-12,-16,-18,5,-7,-7
14:01:28:509748,2,-1,-6,-5,-15,-8,-14,-8
14:01:28:517806,2,-1,-6,-5,-15,-8,-14,-8
14:01:28:518605,-15,-2,-1,9,-5,-21,-6,-3
14:01:28:532147,15,2,15,15,34,-4,-8,4
14:01:28:540347,15,2,15,15,34,-4,-8,4
14:01:28:541088,1,-11,-21,4,18,21,38,6
14:01:28:547115,-7,8,-12,-11,8,-13,-93,-10
14:01:28:554708,-7,8,-12,-11,8,-13,-93,-10
14:01:28:562194,-19,-38,-7,4,12,-1,29,6
14:01:28:569576,0,63,46,21,4,-13,-24,-2
14:01:28:577885,0,63,46,21,4,-13,-24,-2
14:01:28:578627,6,-11,-19,-25,-22,-11,-10,-2
14:01:28:600069,-13,-18,-7,1,-11,2,15,-3
14:01:28:608539,-13,-18,-7,1,-11,2,15,-3
14:01:28:609315,12,15,3,-9,8,4,7,7
14:01:28:610067,0,-17,-12,2,-4,12,16,0
14:01:28:622995,0,-17,-12,2,-4,12,16,0
14:01:28:623617,9,2,19,13,10,-65,-67,2
14:01:28:629671,-10,-9,-4,-8,19,-9,22,0
14:01:28:637801,-10,-9,-4,-8,19,-9,22,0
14:01:28:638582,-10,0,14,23,16,30,29,0
14:01:28:652081,22,14,0,14,-13,-18,10,9
14:01:28:676051,22,14,0,14,-13,-18,10,9
14:01:28:676815,-3,-9,3,-8,-4,-4,-20,-7
14:01:28:677567,3,-16,-28,10,-13,-3,10,-4
14:01:28:682826,3,-16,-28,10,-13,-3,10,-4
14:01:28:683627,-5,-8,5,18,12,15,0,-8
14:01:28:689664,3,20,5,-10,2,5,3,4
14:01:28:697867,3,20,5,-10,2,5,3,4
14:01:28:698590,5,2,-7,-43,0,-6,-21,1
14:01:28:712140,-7,-16,0,25,-10,-5,-1,-9
14:01:28:720311,-7,-16,0,25,-10,-5,-1,-9
14:01:28:721111,0,4,-7,-35,0,-10,-17,-2
14:01:28:727172,-4,5,-2,-45,-31,-4,10,1
14:01:28:742905,-4,5,-2,-45,-31,-4,10,1
14:01:28:743630,2,1,-4,32,-11,-11,2,-4
14:01:28:749588,0,-8,-1,6,36,7,3,-2
14:01:28:757849,0,-8,-1,6,36,7,3,-2
14:01:28:758606,6,7,8,22,-23,-5,-17,-1
14:01:28:781470,-12,-8,-2,-11,-2,87,59,1
14:01:28:782297,-12,-8,-2,-11,-2,87,59,1
14:01:28:783083,2,54,10,35,22,14,7,-1
14:01:28:787162,-4,48,2,12,-7,-26,-14,1
14:01:28:802808,-4,48,2,12,-7,-26,-14,1
14:01:28:803625,-6,-33,-19,-15,-21,-6,-1,-1
14:01:28:809735,-9,-26,5,15,10,-22,-14,-5
14:01:28:817726,-9,-26,5,15,10,-22,-14,-5
14:01:28:818554,-10,-2,9,9,-12,-7,0,-3
14:01:28:832128,11,-2,-13,-32,-1,-1,11,6
14:01:28:840363,11,-2,-13,-32,-1,-1,11,6
14:01:28:841103,0,-27,10,28,12,10,-5,-7
14:01:28:847066,-8,-14,-18,-2,-16,-45,-7,0
14:01:28:854690,-8,-14,-18,-2,-16,-45,-7,0
14:01:28:862133,-12,-2,-35,-30,-5,-3,-3,-5
14:01:28:885950,-8,-44,2,0,3,15,9,-4
14:01:28:886761,-8,-44,2,0,3,15,9,-4
14:01:28:887597,3,-22,22,10,-4,12,14,0
14:01:28:892222,-1,-4,26,29,23,-14,-30,-8
14:01:28:900343,-1,-4,26,29,23,-14,-30,-8
14:01:28:901115,-2,31,9,-1,-18,8,7,-2
14:01:28:907185,19,22,27,3,21,-3,-31,-1
14:01:28:923001,19,22,27,3,21,-3,-31,-1
14:01:28:923611,10,-2,-10,-20,-2,-5,10,2
14:01:28:929635,-3,33,0,9,3,62,73,8
14:01:28:953502,-3,33,0,9,3,62,73,8
14:01:28:954281,6,-13,8,-30,-23,-5,17,4
14:01:28:955069,-6,-31,-3,-5,-2,-14,-39,-6
14:01:28:960319,-6,-31,-3,-5,-2,-14,-39,-6
14:01:28:961075,-11,36,21,48,42,28,-10,0
14:01:28:984113,10,-8,-14,-13,-14,-14,0,1
14:01:28:984894,10,-8,-14,-13,-14,-14,0,1
14:01:28:985727,11,-11,-12,4,7,-4,2,4
14:01:28:989640,4,16,22,30,-10,-17,-21,-2
14:01:28:997197,4,16,22,30,-10,-17,-21,-2
14:01:29:4626,-11,-19,7,12,19,7,-20,-5
14:01:29:12166,-11,11,7,-23,-6,-19,-12,0
14:01:29:20382,-11,11,7,-23,-6,-19,-12,0
14:01:29:21173,7,-19,-13,-53,-3,-11,8,3
14:01:29:35356,11,19,-29,-11,-13,-14,-20,0
14:01:29:36122,11,19,-29,-11,-13,-14,-20,0
14:01:29:42197,20,7,18,-3,-16,-5,1,-1
14:01:29:57829,-1,-23,-19,-18,-18,-10,7,-1
14:01:29:58611,-1,-23,-19,-18,-18,-10,7,-1
14:01:29:64609,-5,4,17,-8,-21,9,34,-5
14:01:29:72210,-12,3,-17,2,11,10,-9,-4
14:01:29:80327,-12,3,-17,2,11,10,-9,-4
14:01:29:81107,-12,-9,-34,-15,-7,35,1,-12
14:01:29:95327,-17,-5,20,-2,-11,30,12,-4
14:01:29:96130,-17,-5,20,-2,-11,30,12,-4
14:01:29:102087,7,23,-21,-34,-3,-21,-16,-2
14:01:29:109712,2,19,14,-2,-11,-27,-23,-2
14:01:29:125465,2,19,14,-2,-11,-27,-23,-2
14:01:29:126162,-9,-25,-16,15,21,6,17,-2
14:01:29:132125,-20,-68,-17,-29,0,-8,4,-1
14:01:29:140334,-20,-68,-17,-29,0,-8,4,-1
14:01:29:141155,-26,-31,-10,-18,2,4,-10,-3
14:01:29:155399,-9,-16,5,14,-15,-32,-8,-11
14:01:29:156129,-9,-16,5,14,-15,-32,-8,-11
14:01:29:162219,-4,1,-12,-8,-8,-21,0,-1
14:01:29:169595,3,-8,-7,2,-1,27,18,-5
14:01:29:177256,3,-8,-7,2,-1,27,18,-5
14:01:29:184584,6,12,32,55,28,-18,-27,2
14:01:29:192127,9,12,12,-7,12,-1,0,7
14:01:29:200345,9,12,12,-7,12,-1,0,7
14:01:29:201167,-9,-5,4,23,-14,8,1,0
14:01:29:215356,9,27,16,52,22,20,2,2
14:01:29:216183,9,27,16,52,22,20,2,2
14:01:29:230245,-15,30,1,-33,-20,-12,-9,-2
14:01:29:231012,0,-14,1,1,-6,-29,-10,-5
14:01:29:237150,0,-14,1,1,-6,-29,-10,-5
14:01:29:244687,7,5,-13,-1,3,-5,9,6
14:01:29:252079,-5,-18,-29,-6,-21,-14,-11,1
14:01:29:260370,-5,-18,-29,-6,-21,-14,-11,1
14:01:29:261109,-9,-43,14,3,-3,0,3,-5
14:01:29:275404,5,-1,-6,-8,2,2,-2,-2
14:01:29:276147,5,-1,-6,-8,2,2,-2,-2
14:01:29:282115,-3,-28,-25,-15,-16,-12,-6,-3
14:01:29:289700,-7,13,-20,4,6,4,10,1
14:01:29:297192,-7,13,-20,4,6,4,10,1
14:01:29:304644,15,52,40,26,32,21,2,4
14:01:29:312192,14,-13,-8,17,21,7,17,4
14:01:29:320261,14,-13,-8,17,21,7,17,4
14:01:29:321088,-3,11,-21,1,-5,4,-1,-1
14:01:29:335744,-18,-22,-10,4,-9,-11,-16,-4
14:01:29:336546,-18,-22,-10,4,-9,-11,-16,-4
14:01:29:342156,11,-3,-7,-6,-5,8,8,1
14:01:29:349614,11,16,-4,-18,-17,-8,-40,-2
14:01:29:357192,11,16,-4,-18,-17,-8,-40,-2
14:01:29:364630,-17,-19,-6,12,3,-28,-17,-11
14:01:29:372167,-18,-28,-21,-12,-4,46,78,1
14:01:29:380375,-18,-28,-21,-12,-4,46,78,1
14:01:29:381130,6,-8,-21,0,-15,17,4,1
14:01:29:395420,-15,-5,9,-54,6,-10,-19,1
14:01:29:396102,-15,-5,9,-54,6,-10,-19,1
14:01:29:402178,-1,17,11,-12,-24,-4,5,0
14:01:29:409752,2,21,-11,-18,-1,1,-8,-2
14:01:29:417095,2,21,-11,-18,-1,1,-8,-2
14:01:29:424646,4,9,-22,-52,20,-33,-24,2
14:01:29:432130,1,61,41,42,2,2,14,4
14:01:29:440347,1,61,41,42,2,2,14,4
14:01:29:441091,4,23,-4,15,-10,29,27,5
14:01:29:455313,11,-9,0,28,23,13,12,1
14:01:29:456137,11,-9,0,28,23,13,12,1
14:01:29:470267,-18,-24,-5,-7,-5,-24,-22,-2
14:01:29:471069,-4,0,0,-73,-36,-14,-14,-6
14:01:29:477312,-4,0,0,-73,-36,-14,-14,-6
14:01:29:484600,8,2,5,-14,5,4,2,3
14:01:29:492161,0,-32,5,31,3,-5,-9,2
14:01:29:500740,0,-32,5,31,3,-5,-9,2
14:01:29:507198,-6,-8,12,4,30,6,-27,-6
14:01:29:515265,-1,-9,-3,-14,-24,-12,-27,-3
14:01:29:516099,-1,-9,-3,-14,-24,-12,-27,-3
14:01:29:522197,-2,-5,8,15,-9,-12,-3,-5
14:01:29:529567,-3,3,-14,4,-2,0,-14,-5
14:01:29:537136,-3,3,-14,4,-2,0,-14,-5
14:01:29:544714,13,13,-11,-69,-21,-7,-4,-2
14:01:29:552073,-5,4,-20,-18,1,14,12,0
14:01:29:560459,-5,4,-20,-18,1,14,12,0
14:01:29:561129,12,-5,-15,3,0,-2,14,3
14:01:29:575360,0,14,15,-5,-13,-3,16,6
14:01:29:576106,0,14,15,-5,-13,-3,16,6
14:01:29:582092,-23,-50,-5,1,4,57,59,0
14:01:29:589699,-3,-9,10,21,3,-13,-5,-6
14:01:29:597163,-3,-9,10,21,3,-13,-5,-6
14:01:29:612761,-5,37,35,15,8,-23,-10,-3
14:01:29:613538,4,-27,-11,6,1,11,-3,-2
14:01:29:620297,4,-27,-11,6,1,11,-3,-2
14:01:29:621069,8,41,24,59,25,14,-5,4
14:01:29:634564,9,20,-2,-2,-15,-22,1,-5
14:01:29:642897,9,20,-2,-2,-15,-22,1,-5
14:01:29:643665,4,-8,-9,11,-2,22,5,6
14:01:29:649563,-1,-46,16,16,6,1,-11,-4
14:01:29:657221,-1,-46,16,16,6,1,-11,-4
14:01:29:664635,-7,5,8,0,0,-51,-51,-3
14:01:29:672291,1,-38,-13,51,13,23,12,5
14:01:29:680344,1,-38,-13,51,13,23,12,5
14:01:29:681140,-7,-1,4,27,18,2,-6,-5
14:01:29:694731,-9,16,7,-10,7,-13,3,-4
14:01:29:702800,-9,16,7,-10,7,-13,3,-4
14:01:29:703570,2,-25,-16,-7,-41,-12,-4,0
14:01:29:709696,-13,14,-4,-14,34,44,46,1
14:01:29:717154,-13,14,-4,-14,34,44,46,1
14:01:29:724602,-4,-15,-8,-8,5,30,15,-6
14:01:29:732095,-1,22,10,-17,1,-7,-9,-2
14:01:29:740318,-1,22,10,-17,1,-7,-9,-2
14:01:29:741059,-4,14,8,32,8,-3,17,-3
14:01:29:755357,2,19,-7,-21,-16,-16,-22,2
14:01:29:756102,2,19,-7,-21,-16,-16,-22,2
14:01:29:762178,1,-6,-3,-19,7,-4,8,4
14:01:29:769632,-11,-11,-26,-4,3,-12,-7,-8
14:01:29:785385,-11,-11,-26,-4,3,-12,-7,-8
14:01:29:786086,1,36,2,-42,-15,-7,-7,7
14:01:29:792146,7,-5,-4,-13,-30,-14,-6,4
14:01:29:800319,7,-5,-4,-13,-30,-14,-6,4
14:01:29:801615,-8,-5,-5,-20,14,23,35,0
14:01:29:815339,5,5,18,6,6,-12,-20,-2
14:01:29:816158,5,5,18,6,6,-12,-20,-2
14:01:29:822214,-14,-5,-34,-3,-7,-4,-30,-7
14:01:29:829658,0,-25,-26,-25,9,-5,-1,4
14:01:29:837189,0,-25,-26,-25,9,-5,-1,4
14:01:29:844667,9,26,9,-4,-25,-10,-2,3
14:01:29:852102,1,7,4,7,3,12,13,-4
14:01:29:860395,1,7,4,7,3,12,13,-4
14:01:29:861068,6,-13,2,2,-4,-12,-12,-5
14:01:29:875417,4,10,5,-16,-19,-7,0,2
14:01:29:876121,4,10,5,-16,-19,-7,0,2
14:01:29:889711,6,1,10,20,15,-9,-8,-1
14:01:29:897819,17,6,0,7,-1,0,3,2
14:01:29:898721,17,6,0,7,-1,0,3,2
14:01:29:904631,-4,-6,-17,-13,-16,-7,11,-1
14:01:29:912243,-6,7,3,43,33,35,19,-4
14:01:29:919665,-6,7,3,43,33,35,19,-4
14:01:29:927266,5,-9,9,26,-5,-6,17,0
14:01:29:935251,8,9,0,-7,18,38,11,1
14:01:29:936082,8,9,0,-7,18,38,11,1
14:01:29:942222,-4,-12,7,-7,-21,11,-12,-5
14:01:29:957809,-6,-19,12,18,18,16,-8,1
14:01:29:958576,-6,-19,12,18,18,16,-8,1
14:01:29:964671,-1,7,18,12,11,-5,-21,-5
14:01:29:972276,-14,23,11,-67,-35,-28,-34,-9
14:01:29:979705,-14,23,11,-67,-35,-28,-34,-9
14:01:29:995976,3,-46,-42,-26,4,-2,-3,2
14:01:29:996733,-1,-13,2,11,-4,-18,-1,1
14:01:29:997552,-1,-13,2,11,-4,-18,-1,1
14:01:30:2122,4,2,10,3,-10,3,10,-4
14:01:30:17848,6,9,1,-6,2,-2,15,1
14:01:30:18612,6,9,1,-6,2,-2,15,1
14:01:30:24617,-5,-8,2,-8,-10,-26,-12,1
14:01:30:32114,-1,-1,-21,-52,-19,-35,-45,-1
14:01:30:39770,-1,-1,-21,-52,-19,-35,-45,-1
14:01:30:47154,-2,6,-19,-9,3,27,9,0
14:01:30:63499,-5,15,51,26,-5,-3,-3,-1
14:01:30:64270,-5,15,51,26,-5,-3,-3,-1
14:01:30:65092,-7,-39,-6,-1,-5,-10,3,3
14:01:30:77887,10,53,-11,-2,9,3,11,10
14:01:30:78628,10,53,-11,-2,9,3,11,10
14:01:30:84579,3,-1,-1,9,-4,1,7,-5
14:01:30:100324,-3,-36,-15,-13,-31,-30,-30,-2
14:01:30:101122,-3,-36,-15,-13,-31,-30,-30,-2
14:01:30:107137,12,9,-4,-17,9,13,9,7
14:01:30:114642,3,-18,-12,-3,-33,-23,-4,0
14:01:30:122984,3,-18,-12,-3,-33,-23,-4,0
14:01:30:123602,2,45,19,3,28,47,8,0
14:01:30:137826,-5,13,24,24,13,36,39,3
14:01:30:138605,-5,13,24,24,13,36,39,3
14:01:30:144685,-3,-25,-4,-5,-35,-13,-17,-4
14:01:30:152090,-14,-33,-33,0,1,-5,-5,-6
14:01:30:167838,-14,-33,-33,0,1,-5,-5,-6
14:01:30:168582,-9,1,13,39,6,-15,-2,-4
14:01:30:174591,-2,40,1,34,40,4,-11,1
14:01:30:182892,-2,40,1,34,40,4,-11,1
14:01:30:183611,-11,-9,-6,39,14,-15,-11,0
14:01:30:197793,-14,-62,-1,17,16,-3,-17,-5
14:01:30:198652,-14,-62,-1,17,16,-3,-17,-5
14:01:30:204596,9,81,18,-16,12,10,2,2
14:01:30:212146,2,-7,-24,-7,-7,-31,-21,-4
14:01:30:219641,2,-7,-24,-7,-7,-31,-21,-4
14:01:30:227193,7,-28,-15,-16,-26,5,-11,1
14:01:30:235317,18,26,17,1,4,5,-12,0
14:01:30:236100,18,26,17,1,4,5,-12,0
14:01:30:242241,0,5,11,19,4,-4,-5,-5
14:01:30:257846,-14,-20,1,-17,-5,15,34,-4
14:01:30:258624,-14,-20,1,-17,-5,15,34,-4
14:01:30:272849,-7,-3,7,-29,-18,8,17,-1
14:01:30:273521,-5,-74,-17,47,-1,-10,3,-7
14:01:30:279706,-5,-74,-17,47,-1,-10,3,-7
14:01:30:287071,2,1,-3,-16,-13,5,-15,0
14:01:30:295339,-20,-43,3,3,39,11,24,-4
14:01:30:296113,-20,-43,3,3,39,11,24,-4
14:01:30:302082,6,-16,-39,-28,-7,-32,-12,2
14:01:30:317778,1,-5,4,4,-20,-13,3,1
14:01:30:318620,1,-5,4,4,-20,-13,3,1
14:01:30:324661,11,40,21,-3,35,0,9,6
14:01:30:340343,7,38,-4,-26,-26,-26,-13,0
14:01:30:341110,7,38,-4,-26,-26,-26,-13,0
14:01:30:347109,-28,-40,-1,14,-7,3,-4,-7
14:01:30:355433,3,57,15,-18,1,15,35,2
14:01:30:356118,3,57,15,-18,1,15,35,2
14:01:30:362142,-1,-5,-14,-11,-27,-22,-6,-7
14:01:30:378348,18,16,-5,-1,-15,-1,-22,-1
14:01:30:379101,18,16,-5,-1,-15,-1,-22,-1
14:01:30:384549,2,-27,-15,12,2,-20,0,-1
14:01:30:392221,10,40,10,-29,9,14,8,4
14:01:30:399697,10,40,10,-29,9,14,8,4
14:01:30:407229,-17,-3,28,65,51,15,-2,-2
14:01:30:414593,-8,-22,-21,9,-1,-8,-6,-8
14:01:30:422935,-8,-22,-21,9,-1,-8,-6,-8
14:01:30:423634,-3,-16,-14,-25,-11,-10,-5,-2
14:01:30:445954,-12,-30,-15,-12,-14,15,-7,-1
14:01:30:446756,-12,-30,-15,-12,-14,15,-7,-1
14:01:30:447561,10,8,-8,-15,-13,-3,-5,1
14:01:30:452107,1,-10,-18,-43,7,9,6,2
14:01:30:459764,1,-10,-18,-43,7,9,6,2
14:01:30:467055,8,14,7,28,-10,-5,-5,-1
14:01:30:483457,-10,13,11,53,12,1,15,1
14:01:30:484261,-10,13,11,53,12,1,15,1
14:01:30:485063,-4,-17,-6,-1,-15,-11,25,-2
14:01:30:497807,3,22,33,-4,-16,-26,-23,-1
14:01:30:498613,3,22,33,-4,-16,-26,-23,-1
14:01:30:504629,16,14,-2,-4,13,13,-3,10
14:01:30:512165,8,-4,-11,-4,2,18,25,-7
14:01:30:519632,8,-4,-11,-4,2,18,25,-7
14:01:30:527161,1,0,-12,-45,-12,-12,-6,-5
14:01:30:535275,10,6,37,11,-20,-10,-14,4
14:01:30:536101,10,6,37,11,-20,-10,-14,4
14:01:30:549691,-1,11,-9,4,20,4,-4,-9
14:01:30:557838,-2,-16,-10,-9,-12,-5,-27,-3
14:01:30:558611,-2,-16,-10,-9,-12,-5,-27,-3
14:01:30:564588,-13,50,14,12,-4,16,8,-2
14:01:30:572183,-1,-3,-47,-39,-3,-3,8,4
14:01:30:587800,-1,-3,-47,-39,-3,-3,8,4
14:01:30:588654,12,-13,-1,-17,-12,-7,-10,4
14:01:30:595389,-23,0,-6,-3,13,3,-2,-12
14:01:30:596127,-23,0,-6,-3,13,3,-2,-12
14:01:30:602067,-2,-17,-15,-9,-14,-2,-2,-3
14:01:30:617745,2,-22,18,27,11,12,-17,-1
14:01:30:618581,2,-22,18,27,11,12,-17,-1
14:01:30:624651,1,44,5,-1,4,-3,-4,1
14:01:30:632192,-17,-36,-16,18,9,16,9,-6
14:01:30:639755,-17,-36,-16,18,9,16,9,-6
14:01:30:656061,-3,-24,15,-10,13,1,-15,-6
14:01:30:656782,14,8,7,28,31,7,10,4
14:01:30:657558,14,8,7,28,31,7,10,4
14:01:30:662155,-2,-11,-3,-24,9,-5,0,-1
14:01:30:677841,-2,10,7,4,-16,-8,-10,-6
14:01:30:678602,-2,10,7,4,-16,-8,-10,-6
14:01:30:684608,-2,-16,5,20,1,-1,11,2
14:01:30:692153,7,30,-6,9,-18,-8,-26,4
14:01:30:699658,7,30,-6,9,-18,-8,-26,4
14:01:30:707137,-5,10,35,19,-11,2,0,-3
14:01:30:715979,-3,24,-1,-8,3,13,54,10
14:01:30:716736,-3,24,-1,-8,3,13,54,10
14:01:30:722196,-26,-40,-4,-1,-1,11,7,-8
