Time,EMG1,EMG2,EMG3,EMG4,EMG5,EMG6,EMG7,EMG8
14:26:46:401212,-3,-1,-3,-2,0,-2,2,0
14:26:46:402264,-2,2,2,2,0,0,-2,0
14:26:46:408061,-1,0,0,1,0,1,-2,-1
14:26:46:415617,-1,0,0,1,0,1,-2,-1
14:26:46:423088,-1,-3,-1,-2,1,1,-5,-3
14:26:46:430562,3,-1,0,-2,-2,-3,0,1
14:26:46:438804,3,-1,0,-2,-2,-3,0,1
14:26:46:439432,2,-4,-3,-1,-2,-2,0,-2
14:26:46:453036,0,0,-2,-3,-4,-5,1,-3
14:26:46:461158,0,0,-2,-3,-4,-5,1,-3
14:26:46:461939,-2,-3,1,-1,-3,-1,-2,1
14:26:46:468057,1,-1,1,0,1,1,-1,1
14:26:46:475531,1,-1,1,0,1,1,-1,1
14:26:46:482978,-1,1,-1,0,1,0,-1,-2
14:26:46:490503,-4,1,2,-1,-2,-2,-2,-1
14:26:46:498713,-4,1,2,-1,-2,-2,-2,-1
14:26:46:499485,-3,-4,-4,0,0,0,-1,-1
14:26:46:513041,-1,-3,-3,0,0,-2,-2,-1
14:26:46:521379,-1,-3,-3,0,0,-2,-2,-1
14:26:46:521974,2,-1,-3,-3,0,-1,-2,-1
14:26:46:528071,-1,-3,0,-1,0,-1,-2,-2
14:26:46:535500,-1,-3,0,-1,0,-1,-2,-2
14:26:46:543071,-1,-1,0,0,0,-2,1,-1
14:26:46:550460,1,-2,-2,-1,-3,0,1,-4
14:26:46:558836,1,-2,-2,-1,-3,0,1,-4
14:26:46:559562,-1,-2,0,-2,-1,-3,0,0
14:26:46:573024,-2,-1,-2,0,1,-2,0,-1
14:26:46:581265,-2,-1,-2,0,1,-2,0,-1
14:26:46:582011,1,-2,0,-1,-1,-2,-1,-3
14:26:46:588101,-4,2,-2,-2,1,0,-3,-3
14:26:46:595596,-4,2,-2,-2,1,0,-3,-3
14:26:46:602942,-3,0,-1,-2,-2,1,1,-3
14:26:46:610544,0,0,-1,-3,-2,-4,-6,-1
14:26:46:618691,0,0,-1,-3,-2,-4,-6,-1
14:26:46:619525,-1,3,1,1,-1,-1,-1,0
14:26:46:632944,-3,-2,-2,0,-2,3,-3,2
14:26:46:641232,-3,-2,-2,0,-2,3,-3,2
14:26:46:641956,0,-3,-3,-3,-2,1,-2,-1
14:26:46:648034,-5,-2,2,-1,2,-2,1,-2
14:26:46:655628,-5,-2,2,-1,2,-2,1,-2
14:26:46:663052,0,-1,-2,-2,0,0,2,-3
14:26:46:670493,2,0,1,-3,-1,-3,0,-4
14:26:46:678619,2,0,1,-3,-1,-3,0,-4
14:26:46:679454,1,-1,0,0,-1,-3,-2,-2
14:26:46:693054,-2,-6,-4,-3,0,0,2,2
14:26:46:701240,-2,-6,-4,-3,0,0,2,2
14:26:46:701975,0,1,1,2,0,-1,-6,-2
14:26:46:708065,1,3,-1,0,-2,-5,-2,-2
14:26:46:715482,1,3,-1,0,-2,-5,-2,-2
14:26:46:723108,-3,3,-3,0,-2,-2,-1,0
14:26:46:730487,0,0,1,1,-1,1,1,0
14:26:46:738760,0,0,1,1,-1,1,1,0
14:26:46:739472,-1,-5,0,-2,2,-1,3,-2
14:26:46:753019,2,3,-3,1,1,0,0,-1
14:26:46:769352,2,3,-3,1,1,0,0,-1
14:26:46:770136,-2,0,-2,-3,-5,-2,-1,0
14:26:46:770993,0,-1,0,0,-2,-1,-4,-4
14:26:46:775650,0,-1,0,0,-2,-1,-4,-4
14:26:46:782955,-1,3,-1,1,-2,-2,0,1
14:26:46:790580,-4,-5,1,0,-2,-1,0,2
14:26:46:798687,-4,-5,1,0,-2,-1,0,2
14:26:46:799431,-4,-5,0,0,1,-2,0,2
14:26:46:812995,0,-3,-2,0,2,2,-1,-2
14:26:46:821334,0,-3,-2,0,2,2,-1,-2
14:26:46:822010,-1,-1,-4,-2,-2,-1,-1,-2
14:26:46:828028,-2,-3,1,0,-2,-1,-2,-1
14:26:46:835486,-2,-3,1,0,-2,-1,-2,-1
14:26:46:843076,-4,1,-2,-2,0,-1,-2,-3
14:26:46:850493,5,-2,-2,2,0,-2,4,-2
14:26:46:858750,5,-2,-2,2,0,-2,4,-2
14:26:46:859476,-1,0,-1,0,-1,-1,-1,-5
14:26:46:873087,-2,-6,-1,-2,-1,-2,-2,-1
14:26:46:881204,-2,-6,-1,-2,-1,-2,-2,-1
14:26:46:881989,1,-3,-1,1,-2,-3,-1,0
14:26:46:888161,-3,1,0,-5,-2,-1,-2,-1
14:26:46:895550,-3,1,0,-5,-2,-1,-2,-1
14:26:46:902958,0,-3,0,0,0,4,0,-2
14:26:46:910547,0,2,0,1,-2,-3,-1,-1
14:26:46:918704,0,2,0,1,-2,-3,-1,-1
14:26:46:919468,-1,-1,-1,2,-1,-4,-2,0
14:26:46:932977,-2,0,-1,1,-5,1,-3,-2
14:26:46:941258,-2,0,-1,1,-5,1,-3,-2
14:26:46:941983,1,2,0,-4,0,0,-1,-1
14:26:46:964366,-5,-2,-2,-4,-2,-2,-2,-1
14:26:46:965148,-5,-2,-2,-4,-2,-2,-2,-1
14:26:46:966003,-2,-4,-1,-1,1,-1,0,0
14:26:46:970464,1,0,-1,-3,2,-3,-1,-1
14:26:46:978067,1,0,-1,-3,2,-3,-1,-1
14:26:46:985506,-4,-4,-3,-4,1,0,1,2
14:26:46:993122,-1,1,0,-1,-3,0,-2,0
14:26:47:1186,-1,1,0,-1,-3,0,-2,0
14:26:47:1937,-2,-5,-3,2,-3,-4,-5,-4
14:26:47:16147,0,3,2,1,-1,-1,0,-1
14:26:47:16943,0,3,2,1,-1,-1,0,-1
14:26:47:23050,-2,-3,-5,-5,-6,-5,-4,-2
14:26:47:30505,0,3,0,1,1,0,1,-1
14:26:47:46221,0,3,0,1,1,0,1,-1
14:26:47:46980,-1,-2,-3,-3,-2,2,2,6
14:26:47:53015,1,0,-2,0,1,3,0,-2
14:26:47:61206,1,0,-2,0,1,3,0,-2
14:26:47:61999,1,6,9,2,-1,-2,5,-5
14:26:47:76327,-1,-9,-3,-4,-3,-1,3,3
14:26:47:77008,-1,-9,-3,-4,-3,-1,3,3
14:26:47:82943,3,5,6,2,0,-3,-6,-1
14:26:47:90481,-2,12,0,-1,0,-2,-3,-3
14:26:47:98010,-2,12,0,-1,0,-2,-3,-3
14:26:47:105550,3,68,-5,0,4,4,0,0
14:26:47:113010,2,127,-3,0,-3,-6,2,6
14:26:47:121293,2,127,-3,0,-3,-6,2,6
14:26:47:121965,-1,-96,-10,-3,-1,-3,-4,-1
14:26:47:136155,-2,-128,26,0,1,2,-1,-7
14:26:47:136952,-2,-128,26,0,1,2,-1,-7
14:26:47:143070,-1,-28,31,-3,-3,0,1,-2
14:26:47:150474,-5,-6,-4,-3,0,2,1,0
14:26:47:158096,-5,-6,-4,-3,0,2,1,0
14:26:47:165435,-3,-18,-10,-1,-6,-3,-9,-3
14:26:47:173098,-3,-20,-5,3,2,4,1,0
14:26:47:181189,-3,-20,-5,3,2,4,1,0
14:26:47:181990,0,-17,-28,-4,-1,1,0,0
14:26:47:196173,2,-27,-25,-2,-5,-10,-9,-2
14:26:47:196962,2,-27,-25,-2,-5,-10,-9,-2
14:26:47:202935,-3,-16,-7,-1,-3,1,4,-4
14:26:47:210490,-2,0,6,0,-1,1,-1,1
14:26:47:218011,-2,0,6,0,-1,1,-1,1
14:26:47:225574,-2,8,-4,-8,-2,-14,-5,-3
14:26:47:232900,2,11,-9,-1,5,-2,-9,-5
14:26:47:241227,2,11,-9,-1,5,-2,-9,-5
14:26:47:241998,-1,5,-3,10,19,2,3,1
14:26:47:256216,-4,-2,6,-3,-12,0,-3,-2
14:26:47:256963,-4,-2,6,-3,-12,0,-3,-2
14:26:47:262970,1,13,15,-4,4,-6,-4,-2
14:26:47:270459,2,2,6,0,10,13,5,2
14:26:47:278045,2,2,6,0,10,13,5,2
14:26:47:285463,0,8,11,-5,-10,-5,-1,-2
14:26:47:293041,-2,-6,9,5,14,20,2,0
14:26:47:301182,-2,-6,9,5,14,20,2,0
14:26:47:301980,1,11,-2,-1,2,8,9,6
14:26:47:317156,-5,-6,-9,-13,-18,-11,-15,-3
14:26:47:317228,-5,-6,-9,-13,-18,-11,-15,-3
14:26:47:322999,-4,3,-1,-1,12,-1,-2,-1
14:26:47:330496,1,4,-2,1,10,-1,3,-3
14:26:47:338159,1,4,-2,1,10,-1,3,-3
14:26:47:345497,-1,-6,-3,-1,-13,1,6,1
14:26:47:352982,-3,-3,-1,3,10,-16,4,-3
14:26:47:361195,-3,-3,-1,3,10,-16,4,-3
14:26:47:361941,2,10,9,3,-1,-20,10,2
14:26:47:376289,-2,-3,-5,-4,-20,-10,9,0
14:26:47:377056,-2,-3,-5,-4,-20,-10,9,0
14:26:47:382919,-3,-3,8,3,-5,16,-1,-3
14:26:47:390523,1,3,4,-1,-11,1,8,1
14:26:47:397994,1,3,4,-1,-11,1,8,1
14:26:47:405608,0,1,-7,-3,-7,-2,-11,-2
14:26:47:421905,2,0,3,1,0,-4,-14,-1
14:26:47:422589,2,0,3,1,0,-4,-14,-1
14:26:47:423432,-3,1,15,7,-5,8,-8,-4
14:26:47:436175,-1,-1,4,4,1,-9,1,2
14:26:47:436967,-1,-1,4,4,1,-9,1,2
14:26:47:443108,-3,-2,-14,-12,5,-6,-11,0
14:26:47:450454,1,4,5,0,3,5,2,-1
14:26:47:458142,1,4,5,0,3,5,2,-1
14:26:47:465536,-2,-6,-9,-7,-13,-2,-1,7
14:26:47:473060,-4,2,-3,-8,-9,-5,-5,1
14:26:47:481161,-4,2,-3,-8,-9,-5,-5,1
14:26:47:481974,-3,7,-9,-4,-2,-1,3,-7
14:26:47:496129,2,6,5,5,2,7,-1,0
14:26:47:496963,2,6,5,5,2,7,-1,0
14:26:47:503013,-4,-15,-66,-3,-5,-7,-14,-6
14:26:47:510567,-4,-10,-33,-5,-1,-3,-4,-4
14:26:47:517996,-4,-10,-33,-5,-1,-3,-4,-4
14:26:47:525582,0,4,17,4,8,10,8,2
14:26:47:532961,-1,3,-17,-5,-1,1,1,-1
14:26:47:541257,-1,3,-17,-5,-1,1,1,-1
14:26:47:541951,-1,-1,9,1,-1,-5,2,-1
14:26:47:556231,-2,-6,-8,-2,-1,-4,-6,0
14:26:47:556932,-2,-6,-8,-2,-1,-4,-6,0
14:26:47:563013,0,2,-41,-2,-8,-6,-6,-5
14:26:47:570532,-4,-3,4,1,7,4,-11,-5
14:26:47:578074,-4,-3,4,1,7,4,-11,-5
14:26:47:585450,1,-1,13,5,6,15,14,-4
14:26:47:592979,1,3,6,-1,0,-6,7,0
14:26:47:601164,1,3,6,-1,0,-6,7,0
14:26:47:601964,0,-1,17,4,-1,27,24,1
14:26:47:616133,2,1,-23,-8,-10,4,8,1
14:26:47:616991,2,1,-23,-8,-10,4,8,1
14:26:47:622965,0,0,11,-9,-16,-9,-10,0
14:26:47:630462,-3,-3,-26,-3,-6,-6,0,-2
14:26:47:638156,-3,-3,-26,-3,-6,-6,0,-2
14:26:47:645492,2,6,30,22,3,-9,-6,5
14:26:47:652972,2,3,31,13,12,-11,-7,-1
14:26:47:661284,2,3,31,13,12,-11,-7,-1
14:26:47:661960,-1,1,-28,-2,7,0,2,-3
14:26:47:676286,-3,-14,-68,-12,-22,-6,5,-1
14:26:47:677018,-3,-14,-68,-12,-22,-6,5,-1
14:26:47:682931,-2,2,16,-12,0,-6,-6,-3
14:26:47:690555,-2,5,32,0,-2,3,1,-2
14:26:47:698122,-2,5,32,0,-2,3,1,-2
14:26:47:705559,-9,-6,-13,-8,-13,-11,-6,0
14:26:47:713025,2,2,13,-3,-9,-2,-1,-1
14:26:47:721357,2,2,13,-3,-9,-2,-1,-1
14:26:47:722053,4,1,23,2,9,0,-4,0
14:26:47:736166,0,2,-1,1,5,7,-2,2
14:26:47:737025,0,2,-1,1,5,7,-2,2
14:26:47:743095,-2,-12,-61,-7,-4,1,-2,-2
14:26:47:750481,8,4,23,7,6,5,1,-2
14:26:47:758166,8,4,23,7,6,5,1,-2
14:26:47:765571,1,3,-15,-5,1,-7,-3,-3
14:26:47:773011,-3,-1,-14,-10,-6,-2,-3,-2
14:26:47:781202,-3,-1,-14,-10,-6,-2,-3,-2
14:26:47:781997,-2,-6,26,2,2,2,-2,1
14:26:47:796163,-3,0,11,-3,3,-3,-4,-3
14:26:47:796973,-3,0,11,-3,3,-3,-4,-3
14:26:47:803022,-1,0,28,4,-4,1,-2,-1
14:26:47:810593,4,-3,7,3,-4,7,-1,-3
14:26:47:817982,4,-3,7,3,-4,7,-1,-3
14:26:47:825621,-11,-5,-23,-7,-7,-9,-1,-3
14:26:47:832982,1,0,1,1,0,-2,2,-1
14:26:47:841229,1,0,1,1,0,-2,2,-1
14:26:47:841992,3,1,10,3,7,2,0,1
14:26:47:856259,-2,-1,-2,11,0,-2,1,-2
14:26:47:856949,-2,-1,-2,11,0,-2,1,-2
14:26:47:862979,7,3,7,-1,-12,-3,1,2
14:26:47:870539,-11,-7,3,-7,-2,-8,-4,-4
14:26:47:878052,-11,-7,3,-7,-2,-8,-4,-4
14:26:47:885448,-3,9,2,5,9,3,1,-3
14:26:47:893013,0,-8,-7,-5,-8,-8,-4,-1
14:26:47:900540,0,-8,-7,-5,-8,-8,-4,-1
14:26:47:908044,0,6,-4,3,-2,-1,-3,-4
14:26:47:916141,2,-12,-21,7,-11,-5,1,-1
14:26:47:917037,2,-12,-21,7,-11,-5,1,-1
14:26:47:923011,-2,-11,3,6,-5,-3,0,4
14:26:47:938755,3,-7,13,-4,-14,-2,2,1
14:26:47:939457,3,-7,13,-4,-14,-2,2,1
14:26:47:945479,-1,-2,12,-9,-3,-9,-3,2
14:26:47:952993,0,5,9,1,16,-8,-1,2
14:26:47:960605,0,5,9,1,16,-8,-1,2
14:26:47:967990,-4,-4,3,-3,-14,3,2,-3
14:26:47:976249,3,9,6,-6,-7,2,2,1
14:26:47:977003,3,9,6,-6,-7,2,2,1
14:26:47:982935,0,0,-1,-4,-6,-32,-5,1
14:26:47:998706,0,3,7,-2,37,16,-3,-2
14:26:47:999488,0,3,7,-2,37,16,-3,-2
14:26:48:5540,1,-4,-4,0,8,-1,-3,3
14:26:48:12991,-2,-7,-40,-5,-31,-3,1,-1
14:26:48:20593,-2,-7,-40,-5,-31,-3,1,-1
14:26:48:27973,0,1,-22,0,6,19,-1,-3
14:26:48:36169,-5,-1,8,3,-11,-1,-3,2
14:26:48:36960,-5,-1,8,3,-11,-1,-3,2
14:26:48:43063,12,0,0,0,10,17,4,4
14:26:48:58762,-16,1,5,-7,12,-10,-6,0
14:26:48:59488,-16,1,5,-7,12,-10,-6,0
14:26:48:65484,-6,5,11,11,21,10,2,-1
14:26:48:73054,-20,-4,8,6,-12,4,-6,-6
14:26:48:80528,-20,-4,8,6,-12,4,-6,-6
14:26:48:88053,6,1,5,-1,1,33,22,-6
14:26:48:96164,9,7,-1,-5,7,-3,1,1
14:26:48:96979,9,7,-1,-5,7,-3,1,1
14:26:48:102962,0,6,11,-5,15,-15,-13,-5
14:26:48:118647,5,3,9,1,5,-14,3,-2
14:26:48:119508,5,3,9,1,5,-14,3,-2
14:26:48:125521,-1,-2,1,-15,-57,-30,-4,2
14:26:48:132979,6,0,4,2,-18,-4,-2,0
14:26:48:140564,6,0,4,2,-18,-4,-2,0
14:26:48:147962,-2,0,1,5,40,22,3,-3
14:26:48:156252,0,0,-7,8,27,8,9,-1
14:26:48:156981,0,0,-7,8,27,8,9,-1
14:26:48:162970,-25,-22,-31,-11,-19,-23,-2,-4
14:26:48:178644,6,-16,-13,-6,5,-14,-6,-2
14:26:48:179492,6,-16,-13,-6,5,-14,-6,-2
14:26:48:185424,8,12,13,10,10,39,1,4
14:26:48:193086,-10,-2,-13,-5,-27,-4,-5,-6
14:26:48:200533,-10,-2,-13,-5,-27,-4,-5,-6
14:26:48:216816,0,-9,-1,-3,-10,-17,-2,-2
14:26:48:217583,2,6,14,-3,-9,-8,-1,-3
14:26:48:218409,2,6,14,-3,-9,-8,-1,-3
14:26:48:223061,2,2,22,2,-13,-7,-2,-2
14:26:48:238747,-8,4,3,-6,-5,-1,-3,-1
14:26:48:239459,-8,4,3,-6,-5,-1,-3,-1
14:26:48:245464,-10,4,-64,-8,-7,1,-4,-2
14:26:48:252936,-10,-11,-39,-7,15,2,-1,-2
14:26:48:260584,-10,-11,-39,-7,15,2,-1,-2
14:26:48:267945,10,6,4,-3,-7,-16,-2,-6
14:26:48:276301,10,6,4,-3,-7,-16,-2,-6
14:26:48:277053,5,15,9,4,30,13,2,0
14:26:48:282929,2,11,-4,-1,1,-6,-5,2
14:26:48:298725,2,11,-4,-1,1,-6,-5,2
14:26:48:299492,5,-1,16,0,10,-2,2,4
14:26:48:305555,2,5,12,7,3,4,0,-3
14:26:48:321329,2,5,12,7,3,4,0,-3
14:26:48:322007,13,4,8,-3,3,16,-2,0
14:26:48:328004,0,-14,1,-5,-4,-9,-5,-1
14:26:48:336225,0,-14,1,-5,-4,-9,-5,-1
14:26:48:336995,-6,-9,27,7,-4,5,-3,-2
14:26:48:343011,-4,-8,-5,-2,-5,-8,-1,-6
14:26:48:358722,-4,-8,-5,-2,-5,-8,-1,-6
14:26:48:359467,8,-1,3,-1,-10,2,-1,-6
14:26:48:365436,0,18,3,2,22,0,-1,14
14:26:48:381234,0,18,3,2,22,0,-1,14
14:26:48:381988,-2,1,4,3,-16,-4,5,11
14:26:48:388013,-2,-9,-6,-3,-6,7,3,10
14:26:48:396201,-2,-9,-6,-3,-6,7,3,10
14:26:48:396959,0,21,4,-2,-3,0,0,-6
14:26:48:402940,-5,-11,13,-4,-6,-4,-2,7
14:26:48:418730,-5,-11,13,-4,-6,-4,-2,7
14:26:48:419475,-3,-6,-8,-5,-14,-8,-6,-2
14:26:48:425557,2,-19,7,3,6,4,-3,-6
14:26:48:441249,2,-19,7,3,6,4,-3,-6
14:26:48:442022,-1,2,-8,0,-3,-1,-2,-1
14:26:48:448029,-4,9,1,-6,-8,-3,3,-9
14:26:48:456256,-4,9,1,-6,-8,-3,3,-9
14:26:48:456929,-4,3,7,1,8,-13,0,0
14:26:48:462990,-15,-6,-5,0,-4,0,-1,-4
14:26:48:478625,-15,-6,-5,0,-4,0,-1,-4
14:26:48:479465,-7,-5,3,2,3,6,0,-2
14:26:48:485505,3,15,-8,-1,5,-3,-3,-4
14:26:48:501145,3,15,-8,-1,5,-3,-3,-4
14:26:48:501930,-3,-1,-16,-5,0,0,-2,-1
14:26:48:508070,7,-1,16,1,-8,2,-3,-5
14:26:48:516137,7,-1,16,1,-8,2,-3,-5
14:26:48:516943,-1,3,1,0,4,-4,-2,-3
14:26:48:523104,9,2,13,0,3,-3,-3,-1
14:26:48:538777,9,2,13,0,3,-3,-3,-1
14:26:48:539473,-10,-8,-1,1,10,4,-1,0
14:26:48:545521,1,-15,9,0,1,0,1,-1
14:26:48:561239,1,-15,9,0,1,0,1,-1
14:26:48:561970,-1,-5,-10,1,-17,0,-1,-4
14:26:48:567948,-2,-15,-10,-1,-2,-3,-1,-5
14:26:48:576237,-2,-15,-10,-1,-2,-3,-1,-5
14:26:48:576978,1,-6,0,3,3,3,3,1
14:26:48:582935,-5,-2,-8,-1,0,-7,-5,-1
14:26:48:598752,-5,-2,-8,-1,0,-7,-5,-1
14:26:48:599479,0,-5,-5,-2,6,7,0,0
14:26:48:605664,-11,-2,-4,-1,-3,-4,-3,-3
14:26:48:621375,-11,-2,-4,-1,-3,-4,-3,-3
14:26:48:622009,0,-2,2,-6,-20,-2,-1,-1
14:26:48:627970,4,-5,2,2,-9,1,-6,0
14:26:48:636167,4,-5,2,2,-9,1,-6,0
14:26:48:636934,10,0,-44,-7,3,-1,0,-1
14:26:48:643073,-7,4,4,-5,3,-7,1,3
14:26:48:658810,-7,4,4,-5,3,-7,1,3
14:26:48:659490,7,14,3,-6,-4,-3,-1,1
14:26:48:665455,8,3,-10,4,-3,-4,-1,-1
14:26:48:673112,8,3,-10,4,-3,-4,-1,-1
14:26:48:680456,16,-12,0,-1,-34,-5,-2,0
14:26:48:688066,-2,14,1,-1,-9,15,1,-3
14:26:48:696186,-2,14,1,-1,-9,15,1,-3
14:26:48:696971,-3,-5,4,-3,8,4,-1,-4
14:26:48:702997,0,-6,-10,-7,-1,-2,-1,1
14:26:48:718669,0,-6,-10,-7,-1,-2,-1,1
14:26:48:719480,-12,-1,-12,-1,6,-3,-5,-2
14:26:48:725594,-8,-10,-4,0,11,3,1,-3
14:26:48:733702,-8,-10,-4,0,11,3,1,-3
14:26:48:734471,-5,0,8,5,16,0,-2,-2
14:26:48:748006,-7,-2,-4,1,1,0,1,1
14:26:48:756213,-7,-2,-4,1,1,0,1,1
14:26:48:756935,4,-13,-2,-6,0,-5,1,3
14:26:48:762980,4,3,3,2,6,3,-4,0
14:26:48:778710,4,3,3,2,6,3,-4,0
14:26:48:779489,-6,-20,2,1,6,-2,-3,0
14:26:48:785499,6,-8,1,-4,-2,-5,-3,0
14:26:48:793099,6,-8,1,-4,-2,-5,-3,0
14:26:48:800469,10,13,5,-3,-3,1,2,-1
14:26:48:808059,0,-3,0,2,1,-5,2,-1
14:26:48:816130,0,-3,0,2,1,-5,2,-1
14:26:48:816939,-14,5,4,-6,-8,-4,-2,-1
14:26:48:823047,-7,-8,-3,2,-5,-1,-2,1
14:26:48:838767,-7,-8,-3,2,-5,-1,-2,1
14:26:48:839412,-14,22,4,2,-4,1,-2,-9
14:26:48:845484,-13,-14,3,2,13,8,4,-6
14:26:48:853036,-13,-14,3,2,13,8,4,-6
14:26:48:860545,1,-3,0,-1,-7,-5,-1,-1
14:26:48:867938,5,5,0,-8,-5,-11,-5,1
14:26:48:876402,5,5,0,-8,-5,-11,-5,1
14:26:48:876962,0,-6,3,5,12,4,1,1
14:26:48:890550,3,12,3,-2,-4,-7,-1,-2
14:26:48:898658,3,12,3,-2,-4,-7,-1,-2
14:26:48:899485,7,-3,-1,4,3,4,-3,1
14:26:48:905600,0,-19,4,-3,-9,0,-2,-1
14:26:48:913081,0,-19,4,-3,-9,0,-2,-1
14:26:48:920471,2,-11,5,1,-1,-4,-2,1
14:26:48:928095,5,1,-1,2,6,-3,-5,-3
14:26:48:936156,5,1,-1,2,6,-3,-5,-3
14:26:48:936968,-13,-4,-3,-5,-21,-11,0,-3
14:26:48:950493,4,6,-14,1,-7,0,4,5
14:26:48:958794,4,6,-14,1,-7,0,4,5
14:26:48:959476,-11,0,1,2,-5,2,-1,-2
14:26:48:965454,-1,29,-1,-3,-3,-3,-2,-10
14:26:48:973043,-1,29,-1,-3,-3,-3,-2,-10
14:26:48:980513,8,6,6,3,12,2,2,-2
14:26:48:988046,-7,2,12,0,2,3,-1,2
14:26:48:996259,-7,2,12,0,2,3,-1,2
14:26:48:996971,1,-4,-3,-2,2,1,2,1
14:26:49:10567,-1,3,-9,-2,-21,-9,-5,-4
14:26:49:18712,-1,3,-9,-2,-21,-9,-5,-4
14:26:49:19512,2,-9,16,-4,-19,-3,3,4
14:26:49:25555,-2,-8,5,0,3,6,3,1
14:26:49:33012,-2,-8,5,0,3,6,3,1
14:26:49:40551,-1,-3,-5,5,-3,-3,-3,-3
14:26:49:48002,-9,-2,-1,1,1,2,-4,0
14:26:49:56321,-9,-2,-1,1,1,2,-4,0
14:26:49:56947,7,2,-13,2,10,4,-2,2
14:26:49:70539,-17,28,-3,-5,-1,-1,-2,1
14:26:49:78689,-17,28,-3,-5,-1,-1,-2,1
14:26:49:79480,-21,-13,2,-3,0,-2,-3,-2
14:26:49:85501,5,-20,-2,-4,5,-1,-1,-1
14:26:49:93128,5,-20,-2,-4,5,-1,-1,-1
14:26:49:100488,5,3,9,1,21,11,2,0
14:26:49:108056,5,-5,-1,-9,-3,-4,2,-3
14:26:49:116133,5,-5,-1,-9,-3,-4,2,-3
14:26:49:116947,1,-17,5,-1,-1,-4,-1,-3
14:26:49:130493,1,3,4,-1,-12,-6,-2,-2
14:26:49:138742,1,3,4,-1,-12,-6,-2,-2
14:26:49:139436,1,2,-6,-1,-6,-6,-4,-1
14:26:49:145511,-2,-2,-8,-3,0,-4,-1,-1
14:26:49:153015,-2,-2,-8,-3,0,-4,-1,-1
14:26:49:160536,-3,3,5,-4,0,7,4,1
14:26:49:167907,5,-8,-2,2,-3,6,0,-2
14:26:49:176291,5,-8,-2,2,-3,6,0,-2
14:26:49:177005,-6,-3,0,0,0,3,-2,0
14:26:49:190582,-12,30,-3,2,8,-5,0,-3
14:26:49:198719,-12,30,-3,2,8,-5,0,-3
14:26:49:199461,-1,14,-6,-4,-2,-4,1,-2
14:26:49:205600,12,-10,-5,-2,3,-3,0,-1
14:26:49:213075,12,-10,-5,-2,3,-3,0,-1
14:26:49:220521,7,6,2,1,3,5,0,1
14:26:49:227978,0,-5,-7,3,4,4,1,-1
14:26:49:236184,0,-5,-7,3,4,4,1,-1
14:26:49:237031,-10,-24,-6,-6,-8,-10,-6,-2
14:26:49:250460,-1,-12,1,0,-9,-4,1,-2
14:26:49:258743,-1,-12,1,0,-9,-4,1,-2
14:26:49:259511,3,3,0,1,2,-2,-2,-2
14:26:49:265463,-5,-2,6,3,32,10,-1,0
14:26:49:273131,-5,-2,6,3,32,10,-1,0
14:26:49:280535,-6,-17,-4,-3,-13,-6,-1,-1
14:26:49:288053,0,-5,-10,-5,-14,-9,-2,-3
14:26:49:296227,0,-5,-10,-5,-14,-9,-2,-3
14:26:49:297010,4,-2,-11,-7,-3,-2,-1,-2
14:26:49:310553,4,3,5,4,-5,5,-1,3
14:26:49:318675,4,3,5,4,-5,5,-1,3
14:26:49:319487,1,0,1,1,-1,-1,0,0
14:26:49:325568,1,-2,1,-2,-4,-2,-1,1
14:26:49:332991,1,-2,1,-2,-4,-2,-1,1
14:26:49:340583,3,3,2,-3,2,0,-1,-3
14:26:49:347995,-3,-1,-1,1,3,0,-2,-2
14:26:49:356245,-3,-1,-1,1,3,0,-2,-2
14:26:49:356930,-5,10,-2,-2,-7,-5,0,0
14:26:49:370553,-18,-8,-3,-1,-13,-7,-4,0
14:26:49:378661,-18,-8,-3,-1,-13,-7,-4,0
14:26:49:379485,2,3,-5,-3,6,6,-1,-3
14:26:49:385476,9,-2,-1,3,6,-1,1,-3
14:26:49:393074,9,-2,-1,3,6,-1,1,-3
14:26:49:400467,0,6,-3,3,-1,-3,0,2
14:26:49:408015,-1,2,-4,-2,-6,-2,2,-1
14:26:49:416157,-1,2,-4,-2,-6,-2,2,-1
14:26:49:416955,1,3,-5,-1,-2,-6,-3,-2
14:26:49:430519,2,-10,2,1,1,4,-6,-5
14:26:49:438773,2,-10,2,1,1,4,-6,-5
14:26:49:439439,-1,-3,5,0,1,0,0,-1
14:26:49:445520,1,1,-2,-3,-6,-3,-2,0
14:26:49:453036,1,1,-2,-3,-6,-3,-2,0
14:26:49:460559,-3,-7,4,3,2,-7,-3,-2
14:26:49:467948,2,-1,7,0,3,4,2,2
14:26:49:476278,2,-1,7,0,3,4,2,2
14:26:49:476960,-5,3,-6,-5,-17,-9,-4,-3
14:26:49:490472,-4,-1,-3,-4,-5,-3,-1,-1
14:26:49:498665,-4,-1,-3,-4,-5,-3,-1,-1
14:26:49:499430,-2,-19,-5,3,-2,0,-1,0
14:26:49:505576,-6,5,5,-2,-3,-1,-2,-2
14:26:49:513036,-6,5,5,-2,-3,-1,-2,-2
14:26:49:520470,2,3,-4,-3,7,-1,-3,-3
14:26:49:528002,4,-7,5,2,7,10,4,0
14:26:49:536187,4,-7,5,2,7,10,4,0
14:26:49:536974,-7,0,-1,-3,-14,-2,1,0
14:26:49:550425,4,10,3,-2,0,-5,-2,-1
14:26:49:558821,4,10,3,-2,0,-5,-2,-1
14:26:49:559516,6,7,0,-1,2,1,1,2
14:26:49:565447,-6,-19,-11,-5,-13,-12,-2,-2
14:26:49:573064,-6,-19,-11,-5,-13,-12,-2,-2
14:26:49:580528,0,0,0,2,11,9,2,0
14:26:49:588105,2,-2,-19,-4,-4,-1,-2,-1
14:26:49:596179,2,-2,-19,-4,-4,-1,-2,-1
14:26:49:596934,-3,-11,-2,4,6,-1,0,0
14:26:49:610558,-3,9,11,-3,2,3,-1,-3
14:26:49:618705,-3,9,11,-3,2,3,-1,-3
14:26:49:619490,-2,1,1,-4,-2,-2,-4,-4
14:26:49:625587,0,-1,0,0,2,0,-2,-2
14:26:49:632967,0,-1,0,0,2,0,-2,-2
14:26:49:640500,-3,4,-2,-1,-6,0,-1,-1
14:26:49:648035,0,-12,-6,0,-4,-2,-1,-2
14:26:49:656236,0,-12,-6,0,-4,-2,-1,-2
14:26:49:656970,1,4,-3,-3,-11,-8,-4,-2
14:26:49:670509,-3,2,-9,-4,-4,-2,-2,-1
14:26:49:678656,-3,2,-9,-4,-4,-2,-2,-1
14:26:49:679492,-6,15,0,-1,-1,-3,3,0
14:26:49:685477,4,10,0,1,3,-1,-2,-1
14:26:49:693111,4,10,0,1,3,-1,-2,-1
14:26:49:700441,3,1,-5,-4,0,-1,-2,-3
14:26:49:707983,-3,21,-4,-3,-5,-2,0,-1
14:26:49:716128,-3,21,-4,-3,-5,-2,0,-1
14:26:49:716951,0,-2,8,-1,0,2,0,1
14:26:49:730530,0,-33,0,-1,-3,0,-2,0
14:26:49:738786,0,-33,0,-1,-3,0,-2,0
14:26:49:739476,0,-2,3,-1,5,1,-4,-4
14:26:49:745493,0,-3,2,-1,-2,0,0,-1
14:26:49:753081,0,-3,2,-1,-2,0,0,-1
14:26:49:760584,0,-5,-7,-4,-3,-7,0,-1
14:26:49:767954,-3,-2,-2,6,8,5,0,-1
14:26:49:776332,-3,-2,-2,6,8,5,0,-1
14:26:49:777037,2,-6,-3,-1,1,-2,0,0
14:26:49:790522,2,-6,1,1,3,-4,-1,3
14:26:49:798701,2,-6,1,1,3,-4,-1,3
14:26:49:799443,-3,-3,2,2,-1,3,-1,-2
14:26:49:813724,-3,-3,-9,-2,-5,1,0,-1
14:26:49:814498,-3,-3,-9,-2,-5,1,0,-1
14:26:49:820483,0,-7,-2,-2,7,-3,1,-1
14:26:49:827970,1,-2,3,-3,-4,-8,-3,-2
14:26:49:835505,1,-2,3,-3,-4,-8,-3,-2
14:26:49:843034,-1,1,-2,-1,-3,2,-1,-1
14:26:49:850434,-6,-2,5,-2,2,-2,0,-1
14:26:49:858749,-6,-2,5,-2,2,-2,0,-1
14:26:49:859498,-1,-5,8,4,7,5,-2,-1
14:26:49:873671,2,2,-1,-2,0,-5,0,-1
14:26:49:874522,2,2,-1,-2,0,-5,0,-1
14:26:49:880490,0,-8,-29,-4,-4,1,4,1
14:26:49:888164,-3,-2,4,-1,-7,-3,-2,3
14:26:49:895579,-3,-2,4,-1,-7,-3,-2,3
14:26:49:902979,3,2,5,4,0,-6,-1,0
14:26:49:910557,-4,2,-1,-5,-4,-4,-2,-2
14:26:49:918749,-4,2,-1,-5,-4,-4,-2,-2
14:26:49:919509,-3,6,-3,1,1,4,0,3
14:26:49:933696,4,-4,4,2,0,2,-1,-2
14:26:49:934460,4,-4,4,2,0,2,-1,-2
14:26:49:940518,-5,1,10,-1,-2,-1,-1,-3
14:26:49:948000,2,-6,-8,-3,-3,3,-1,1
14:26:49:955674,2,-6,-8,-3,-3,3,-1,1
14:26:49:963065,1,16,-12,-3,0,-3,-3,-3
14:26:49:970494,4,4,10,4,-2,-4,0,-2
14:26:49:978652,4,4,10,4,-2,-4,0,-2
14:26:49:979438,-7,-4,6,-4,-3,1,-4,-1
14:26:49:993720,-2,2,-1,0,-1,-2,-1,-1
14:26:49:994491,-2,2,-1,0,-1,-2,-1,-1
14:26:50:439,3,-4,2,-3,-2,-2,2,0
14:26:50:8044,-6,-12,-2,-4,-5,-3,-2,-1
14:26:50:15486,-6,-12,-2,-4,-5,-3,-2,-1
14:26:50:23036,-1,-7,-9,1,-1,-2,-2,-2
14:26:50:30524,0,2,1,-4,3,1,0,3
14:26:50:38730,0,2,1,-4,3,1,0,3
14:26:50:39450,-2,-7,-2,-4,3,-3,-1,-2
14:26:50:53664,4,-4,-10,-3,-12,-7,-2,-3
14:26:50:54528,4,-4,-10,-3,-12,-7,-2,-3
14:26:50:60549,4,-1,0,0,-1,1,-1,-2
14:26:50:67994,4,2,-2,0,-3,-4,1,-2
14:26:50:75661,4,2,-2,0,-3,-4,1,-2
14:26:50:82956,-6,-5,4,-3,-6,4,-1,2
14:26:50:90466,2,4,-7,0,2,1,0,1
14:26:50:98706,2,4,-7,0,2,1,0,1
14:26:50:99477,0,-2,-5,1,-1,2,1,1
14:26:50:113720,-7,1,-3,-6,0,0,-2,-1
14:26:50:114505,-7,1,-3,-6,0,0,-2,-1
14:26:50:120448,-1,4,5,0,-2,-2,-1,0
14:26:50:127926,0,3,5,4,-2,-2,0,-1
14:26:50:135529,0,3,5,4,-2,-2,0,-1
14:26:50:143075,0,0,2,-2,-2,-4,-2,-3
14:26:50:150500,-3,2,2,4,7,0,0,2
14:26:50:158778,-3,2,2,4,7,0,0,2
14:26:50:159465,0,-6,1,-5,-1,-5,-1,-1
14:26:50:173700,1,0,0,-2,-1,11,-2,-3
14:26:50:174488,1,0,0,-2,-1,11,-2,-3
14:26:50:180491,4,3,5,4,5,-1,0,-1
14:26:50:188067,-11,1,-3,1,5,1,-2,-1
14:26:50:195590,-11,1,-3,1,5,1,-2,-1
14:26:50:202993,-2,-4,-9,-3,-3,-3,0,-3
14:26:50:210570,4,-2,9,2,8,1,1,0
14:26:50:218661,4,-2,9,2,8,1,1,0
14:26:50:219491,-15,-4,-2,-6,-5,-4,-1,1
14:26:50:233726,3,1,-2,-1,-3,-3,-3,-1
14:26:50:234487,3,1,-2,-1,-3,-3,-3,-1
14:26:50:240483,5,0,-6,0,0,-4,-5,1
14:26:50:247990,-7,-2,-7,1,-2,1,-2,-3
14:26:50:255657,-7,-2,-7,1,-2,1,-2,-3
14:26:50:263016,0,-1,2,2,5,-6,-4,-3
14:26:50:270492,3,0,-4,0,-2,0,2,-1
14:26:50:278674,3,0,-4,0,-2,0,2,-1
14:26:50:279505,1,2,-1,-5,-11,-18,-1,1
14:26:50:293749,-3,-2,-4,-4,1,0,2,1
14:26:50:294487,-3,-2,-4,-4,1,0,2,1
14:26:50:300448,3,-1,9,6,3,9,2,1
14:26:50:308075,6,-1,-3,-4,-12,-9,-3,-4
14:26:50:315522,6,-1,-3,-4,-12,-9,-3,-4
14:26:50:323018,3,1,-3,1,-5,2,-2,0
14:26:50:330554,-4,-1,9,3,-2,8,3,2
14:26:50:338826,-4,-1,9,3,-2,8,3,2
14:26:50:339532,-2,-4,-4,-3,2,-1,-3,-3
14:26:50:353456,-1,0,-2,-3,-2,-12,-3,-3
14:26:50:361166,-1,0,-2,-3,-2,-12,-3,-3
14:26:50:361992,-1,-2,2,0,-5,-3,-1,-2
14:26:50:367949,-2,-2,1,-1,1,-8,-2,-2
14:26:50:375644,-2,-2,1,-1,1,-8,-2,-2
14:26:50:382899,-4,-2,0,-4,-10,-1,0,3
14:26:50:390497,-4,2,-8,-6,-7,-4,-3,1
14:26:50:398746,-4,2,-8,-6,-7,-4,-3,1
14:26:50:399481,-1,-3,3,-2,-2,-3,-1,-4
14:26:50:413717,0,-2,-3,-3,-2,5,-2,2
14:26:50:414524,0,-2,-3,-3,-2,5,-2,2
14:26:50:420521,2,-4,-2,4,8,3,0,0
14:26:50:427982,-4,-2,6,2,2,3,0,0
14:26:50:435532,-4,-2,6,2,2,3,0,0
14:26:50:451082,-1,-7,-16,-3,-6,4,2,-2
14:26:50:451882,2,6,-3,3,0,6,0,-3
14:26:50:458787,2,6,-3,3,0,6,0,-3
14:26:50:459523,0,-4,-3,-3,-1,-1,-5,-1
14:26:50:473676,2,-5,6,0,-4,-1,-2,0
14:26:50:474479,2,-5,6,0,-4,-1,-2,0
14:26:50:480495,0,3,3,0,-1,-1,4,-2
14:26:50:488052,-5,-1,0,5,6,4,3,0
14:26:50:495561,-5,-1,0,5,6,4,3,0
14:26:50:503038,-3,7,-3,-3,-4,-2,-2,-2
14:26:50:510580,-1,-5,-7,-3,-4,0,-3,-2
14:26:50:518676,-1,-5,-7,-3,-4,0,-3,-2
14:26:50:519522,-2,-3,-5,0,4,-1,-1,-2
14:26:50:533653,-3,0,-6,-3,-1,-4,-4,-2
14:26:50:534520,-3,0,-6,-3,-1,-4,-4,-2
14:26:50:540492,-3,1,-11,-5,-8,-4,-3,-5
14:26:50:548031,10,-11,1,0,-1,3,1,1
14:26:50:555651,10,-11,1,0,-1,3,1,1
14:26:50:562988,-1,-4,2,0,-8,1,-1,0
14:26:50:570454,-3,-3,-2,4,9,3,1,-4
14:26:50:578701,-3,-3,-2,4,9,3,1,-4
14:26:50:579526,2,3,5,5,4,1,-1,0
14:26:50:593773,-5,2,0,-5,-4,-11,-2,-4
14:26:50:594521,-5,2,0,-5,-4,-11,-2,-4
14:26:50:600469,0,-9,1,-3,5,-8,-3,2
14:26:50:608055,-2,-4,5,-6,-8,-3,-2,-1
14:26:50:615591,-2,-4,5,-6,-8,-3,-2,-1
14:26:50:623027,-11,-3,6,-4,-4,-1,-1,1
14:26:50:630534,-1,3,8,-2,5,-3,-2,0
14:26:50:646245,-1,3,8,-2,5,-3,-2,0
14:26:50:646996,0,16,2,3,11,4,-1,-3
14:26:50:653642,-3,2,-11,-5,-8,-4,3,-1
14:26:50:654445,-3,2,-11,-5,-8,-4,3,-1
14:26:50:660541,4,-1,-4,2,0,1,1,3
14:26:50:668010,-1,-1,-6,-1,-3,-3,-3,-1
14:26:50:675594,-1,-1,-6,-1,-3,-3,-3,-1
14:26:50:683797,-7,-3,1,-1,1,6,2,-3
14:26:50:690493,-1,-6,-9,-6,-5,-4,-2,-1
14:26:50:698685,-1,-6,-9,-6,-5,-4,-2,-1
14:26:50:699476,6,-6,0,8,9,8,1,-2
14:26:50:713691,1,-3,5,-3,-9,-3,0,1
14:26:50:714464,1,-3,5,-3,-9,-3,0,1
14:26:50:720477,2,4,3,-7,-10,-6,-4,-1
14:26:50:727975,1,0,0,2,4,-3,-1,-1
14:26:50:735560,1,0,0,2,4,-3,-1,-1
14:26:50:743053,0,5,1,5,5,1,-2,-2
14:26:50:750461,1,-6,-2,2,0,-5,-1,3
14:26:50:758127,1,-6,-2,2,0,-5,-1,3
14:26:50:765485,-4,0,-1,-5,-5,-8,-5,-3
14:26:50:773679,-5,13,-1,2,1,7,2,2
14:26:50:774501,-5,13,-1,2,1,7,2,2
14:26:50:780447,4,-4,-3,-2,-1,1,2,0
14:26:50:796175,-3,-12,-2,3,3,2,-3,-1
14:26:50:796968,-3,-12,-2,3,3,2,-3,-1
14:26:50:803005,3,2,0,-2,-3,-10,-2,-1
14:26:50:810526,-8,4,-3,0,1,-4,-3,-6
14:26:50:818026,-8,4,-3,0,1,-4,-3,-6
14:26:50:825606,-2,1,-1,-3,-1,1,2,-2
14:26:50:841936,-1,12,-7,-7,-9,-2,-3,-4
14:26:50:842677,-1,12,-7,-7,-9,-2,-3,-4
14:26:50:843498,3,-6,2,3,4,2,-1,0
14:26:50:856222,-1,2,4,-1,-2,0,2,-3
14:26:50:857011,-1,2,4,-1,-2,0,2,-3
14:26:50:862999,-4,-5,-4,-5,-10,-4,-4,-2
14:26:50:870563,4,0,2,-3,-4,-2,-1,3
14:26:50:878069,4,0,2,-3,-4,-2,-1,3
14:26:50:885501,-4,-5,1,3,3,7,2,-1
14:26:50:893719,-1,-32,0,-5,-3,-4,0,1
14:26:50:894480,-1,-32,0,-5,-3,-4,0,1
14:26:50:900438,-4,2,-4,-1,-3,-7,0,5
14:26:50:916560,2,15,-7,-5,-1,-2,7,-2
14:26:50:923700,2,15,-7,-5,-1,-2,7,-2
14:26:50:924472,9,17,1,0,1,0,0,7
14:26:50:930475,2,-3,-3,2,1,-4,-3,-1
14:26:50:938108,2,-3,-3,2,1,-4,-3,-1
14:26:50:945496,7,2,1,5,3,4,8,-1
14:26:50:953642,-6,0,0,-2,-2,0,-13,-3
14:26:50:954449,-6,0,0,-2,-2,0,-13,-3
14:26:50:960567,0,-18,-4,-4,-3,5,-3,-3
14:26:50:976177,1,17,1,-3,-2,-1,-1,-2
14:26:50:977006,1,17,1,-3,-2,-1,-1,-2
14:26:50:982939,-2,-35,-5,0,-6,-7,-4,-6
14:26:50:990460,5,4,21,3,4,4,2,0
14:26:50:998041,5,4,21,3,4,4,2,0
14:26:51:5547,-5,4,5,0,-2,-2,1,-2
14:26:51:13649,-3,1,-5,3,4,-2,0,1
14:26:51:14465,-3,1,-5,3,4,-2,0,1
14:26:51:20495,-5,1,-7,-5,-3,-2,-10,1
14:26:51:36646,-2,-11,4,1,-1,0,7,-1
14:26:51:37439,-2,-11,4,1,-1,0,7,-1
14:26:51:43030,-1,6,7,-2,0,-2,-1,-3
14:26:51:50466,-4,-6,-3,-5,-2,-1,-1,-3
14:26:51:58110,-4,-6,-3,-5,-2,-1,-1,-3
14:26:51:65514,1,-5,4,1,-1,-5,-1,3
14:26:51:73703,-7,-3,-5,0,1,-1,2,-1
14:26:51:74468,-7,-3,-5,0,1,-1,2,-1
14:26:51:80459,-5,11,-7,-4,-3,4,-2,-3
14:26:51:96194,1,11,-32,0,-1,-2,-4,1
14:26:51:96949,1,11,-32,0,-1,-2,-4,1
14:26:51:103008,0,3,6,1,-1,-3,1,-2
14:26:51:110596,2,-17,1,1,0,-1,-4,0
14:26:51:118020,2,-17,1,1,0,-1,-4,0
14:26:51:125582,3,10,1,3,-2,-1,0,1
14:26:51:133644,-4,2,12,-1,-1,1,-6,-5
14:26:51:134495,-4,2,12,-1,-1,1,-6,-5
14:26:51:140502,-6,-18,0,-4,-5,-4,-3,-2
14:26:51:156230,-2,-13,-3,5,3,5,6,1
14:26:51:156997,-2,-13,-3,5,3,5,6,1
14:26:51:162962,-2,2,-8,5,4,2,-2,-2
14:26:51:170455,1,-7,-9,3,0,7,-1,-3
14:26:51:178055,1,-7,-9,3,0,7,-1,-3
14:26:51:185520,-2,7,1,-7,-8,-4,-3,-3
14:26:51:193735,3,-16,10,4,3,0,0,0
14:26:51:194475,3,-16,10,4,3,0,0,0
14:26:51:200465,-2,2,-2,-8,-4,-6,-3,0
14:26:51:216162,1,-24,0,-5,-7,-4,0,1
14:26:51:216992,1,-24,0,-5,-7,-4,0,1
14:26:51:231156,-4,-9,-11,-6,-3,-2,0,-3
14:26:51:231932,-4,12,-2,-3,-12,-1,0,-1
14:26:51:238113,-4,12,-2,-3,-12,-1,0,-1
14:26:51:245500,-6,0,-71,-12,8,-5,-4,-1
14:26:51:253680,-6,20,1,5,-3,-7,-4,-1
14:26:51:254572,-6,20,1,5,-3,-7,-4,-1
14:26:51:260566,2,-9,15,-2,-6,5,3,1
14:26:51:276291,-1,17,-5,-1,5,-1,-4,-4
14:26:51:277032,-1,17,-5,-1,5,-1,-4,-4
14:26:51:282934,-3,4,11,5,2,-1,5,-2
14:26:51:290533,4,2,13,6,1,3,5,-2
14:26:51:298076,4,2,13,6,1,3,5,-2
14:26:51:314320,-6,-1,10,4,6,1,-4,-5
14:26:51:315095,-1,-3,4,-6,0,5,-5,-1
14:26:51:315938,-1,-3,4,-6,0,5,-5,-1
14:26:51:320483,1,0,-4,6,11,4,-2,-4
14:26:51:336191,1,-2,-28,1,-1,-7,-5,0
14:26:51:336990,1,-2,-28,1,-1,-7,-5,0
14:26:51:343046,13,1,12,-4,-12,-10,-5,1
14:26:51:350460,-17,-2,8,-8,-4,-5,-3,-5
14:26:51:358111,-17,-2,8,-8,-4,-5,-3,-5
14:26:51:365466,-10,-21,-50,-9,0,-4,-4,2
14:26:51:373627,-1,-1,-18,-12,-6,-11,-3,-5
14:26:51:374433,-1,-1,-18,-12,-6,-11,-3,-5
14:26:51:380488,-16,11,47,6,9,-1,4,8
14:26:51:396257,-16,11,47,6,9,-1,4,8
14:26:51:397025,-12,-1,35,-3,10,-1,-2,-7
14:26:51:402980,23,10,51,15,-8,-1,3,2
14:26:51:418688,23,10,51,15,-8,-1,3,2
14:26:51:419460,2,-3,11,4,11,5,2,3
14:26:51:425549,8,2,3,0,-7,6,4,-1
14:26:51:433696,8,2,3,0,-7,6,4,-1
14:26:51:434481,-32,-12,3,-4,-11,-5,-3,-1
14:26:51:440500,-5,-14,-32,-13,-4,1,2,2
14:26:51:456279,-5,-14,-32,-13,-4,1,2,2
14:26:51:456999,14,-3,-3,5,-8,2,0,-3
14:26:51:462964,-8,7,1,-8,1,-13,-4,-3
14:26:51:478683,-8,7,1,-8,1,-13,-4,-3
14:26:51:479504,4,2,12,4,-13,2,6,1
14:26:51:485473,13,12,17,1,12,4,-4,1
14:26:51:493781,13,12,17,1,12,4,-4,1
14:26:51:494503,-13,-3,1,-19,-7,-5,-7,8
14:26:51:508056,9,-13,12,1,-13,-4,-4,-4
14:26:51:516192,9,-13,12,1,-13,-4,-4,-4
14:26:51:516988,13,23,-21,-6,-2,12,-3,-2
14:26:51:523019,-29,-8,-40,-10,-10,-5,-1,-12
14:26:51:538763,-29,-8,-40,-10,-10,-5,-1,-12
14:26:51:539433,26,-8,-38,4,3,8,5,1
14:26:51:545479,26,4,17,10,13,3,-6,0
14:26:51:553697,26,4,17,10,13,3,-6,0
14:26:51:554490,-10,19,-10,-3,4,-9,-9,-7
14:26:51:560527,15,-16,-17,-11,12,-12,-7,0
14:26:51:576314,15,-16,-17,-11,12,-12,-7,0
14:26:51:577029,7,-11,5,5,17,10,13,7
14:26:51:582906,-29,-48,-103,-18,-10,-21,-6,-5
14:26:51:598683,-29,-48,-103,-18,-10,-21,-6,-5
14:26:51:599449,13,0,-8,9,2,1,3,4
14:26:51:605552,4,0,14,10,0,3,7,2
14:26:51:613710,4,0,14,10,0,3,7,2
14:26:51:614468,-9,-5,19,0,-14,-12,-10,-4
14:26:51:620485,-17,11,-39,1,7,5,-5,4
14:26:51:636207,-17,11,-39,1,7,5,-5,4
14:26:51:636946,18,3,9,3,6,3,5,1
14:26:51:643065,15,40,92,23,8,19,11,2
14:26:51:658767,15,40,92,23,8,19,11,2
14:26:51:659454,1,-17,20,-12,-2,-35,-15,11
14:26:51:665484,-3,4,-48,4,13,7,12,8
14:26:51:673667,-3,4,-48,4,13,7,12,8
14:26:51:674434,-7,4,27,-5,-3,-1,3,4
14:26:51:688134,6,10,19,2,-21,-6,-18,-10
14:26:51:696190,6,10,19,2,-21,-6,-18,-10
14:26:51:697008,-2,0,-21,-10,-22,-4,-4,-7
14:26:51:702972,-22,-15,-9,-3,-4,-1,14,-2
14:26:51:718673,-22,-15,-9,-3,-4,-1,14,-2
14:26:51:719465,1,0,22,10,16,-8,-16,-7
14:26:51:725633,12,6,52,-1,-6,3,-20,3
14:26:51:733651,12,6,52,-1,-6,3,-20,3
14:26:51:734441,-6,-1,-8,-5,8,6,10,-19
14:26:51:748008,-2,6,18,0,15,7,10,-7
14:26:51:756209,-2,6,18,0,15,7,10,-7
14:26:51:756967,16,1,1,-12,-15,-2,-9,19
14:26:51:763017,-17,4,17,9,14,6,3,-1
14:26:51:778635,-17,4,17,9,14,6,3,-1
14:26:51:779500,-3,9,9,2,-2,6,16,2
14:26:51:785463,-2,1,16,-7,-9,-2,8,-2
14:26:51:793729,-2,1,16,-7,-9,-2,8,-2
14:26:51:794459,-14,-11,-35,1,2,-8,-1,-4
14:26:51:808081,-22,-10,-33,-4,-25,-1,-8,-4
14:26:51:816124,-22,-10,-33,-4,-25,-1,-8,-4
14:26:51:816914,-15,-15,-22,-8,-8,-4,-6,-10
14:26:51:823047,3,-1,40,-1,-4,-4,-2,2
14:26:51:838827,3,-1,40,-1,-4,-4,-2,2
14:26:51:839465,20,5,27,3,26,9,-1,3
14:26:51:845508,16,-2,-35,-17,-13,-10,-3,0
14:26:51:853699,16,-2,-35,-17,-13,-10,-3,0
14:26:51:854464,3,-1,-5,-1,-23,-1,0,-8
14:26:51:868013,-11,5,30,9,6,4,3,0
14:26:51:876318,-11,5,30,9,6,4,3,0
14:26:51:877046,-20,-8,26,9,2,1,15,-11
14:26:51:882987,34,12,-9,4,0,-6,-2,4
14:26:51:898744,34,12,-9,4,0,-6,-2,4
14:26:51:899500,-35,-4,-13,-7,12,-13,-16,6
14:26:51:905613,14,-11,-56,6,-7,-8,0,3
14:26:51:913654,14,-11,-56,6,-7,-8,0,3
14:26:51:914494,0,-1,9,2,-19,-7,-8,-12
14:26:51:928021,-22,-8,1,-6,-20,-2,-6,-6
14:26:51:936226,-22,-8,1,-6,-20,-2,-6,-6
14:26:51:937023,14,10,15,0,-9,9,3,3
14:26:51:943087,-2,-16,-14,-19,-22,-6,-1,-6
14:26:51:958813,-2,-16,-14,-19,-22,-6,-1,-6
14:26:51:959517,-8,10,30,14,22,11,-3,2
14:26:51:965506,16,1,38,-11,-6,-6,-4,-2
14:26:51:973706,16,1,38,-11,-6,-6,-4,-2
14:26:51:974461,1,-4,-20,5,1,-2,-10,0
14:26:51:988067,-15,-8,-12,5,17,14,-4,-2
14:26:51:996237,-15,-8,-12,5,17,14,-4,-2
14:26:51:996953,-8,-5,-24,1,-8,7,-5,-5
14:26:52:2998,-5,-3,15,2,5,5,2,-2
14:26:52:10640,-5,-3,15,2,5,5,2,-2
14:26:52:17970,6,-6,-4,-10,-15,-5,10,1
14:26:52:25576,-15,-4,-21,-7,5,4,-5,-6
14:26:52:33659,-15,-4,-21,-7,5,4,-5,-6
14:26:52:34465,26,-1,-37,-18,-20,4,11,10
14:26:52:48005,13,0,-6,2,-4,-5,-4,0
14:26:52:56345,13,0,-6,2,-4,-5,-4,0
14:26:52:56993,29,16,26,12,13,13,0,-2
14:26:52:62972,-4,5,24,6,20,7,6,5
14:26:52:78761,-4,5,24,6,20,7,6,5
14:26:52:79511,-16,-8,-21,-3,6,-2,5,-2
14:26:52:85497,-6,4,5,6,-4,-10,-9,-4
14:26:52:93754,-6,4,5,6,-4,-10,-9,-4
14:26:52:94511,-9,-5,-17,0,1,-4,3,0
14:26:52:107994,8,2,-7,-14,-6,-14,1,3
14:26:52:116178,8,2,-7,-14,-6,-14,1,3
14:26:52:116962,-13,-26,-59,-7,10,8,2,1
14:26:52:123113,-5,7,61,-2,-4,1,-9,22
14:26:52:138761,-5,7,61,-2,-4,1,-9,22
14:26:52:139502,-11,8,52,11,1,-4,-12,-3
14:26:52:145513,13,7,26,-2,1,11,24,8
14:26:52:153740,13,7,26,-2,1,11,24,8
14:26:52:154493,10,7,6,3,1,-2,10,0
14:26:52:167945,-14,1,21,-4,-17,-14,-6,-10
14:26:52:176307,-14,1,21,-4,-17,-14,-6,-10
14:26:52:177031,-10,-7,15,-7,0,-9,-9,-6
14:26:52:182909,10,1,-10,9,6,4,3,-20
14:26:52:190515,10,1,-10,9,6,4,3,-20
14:26:52:198023,-9,12,49,7,7,-1,-9,5
14:26:52:205579,-17,-7,-47,-3,-4,-1,62,-2
14:26:52:213711,-17,-7,-47,-3,-4,-1,62,-2
14:26:52:214513,10,-7,12,1,-9,5,4,9
14:26:52:227956,6,-6,-62,3,9,11,-23,-16
14:26:52:236196,6,-6,-62,3,9,11,-23,-16
14:26:52:236969,4,16,-12,10,4,4,-1,-6
14:26:52:243094,-6,-5,29,-1,-1,-9,31,0
14:26:52:258787,-6,-5,29,-1,-1,-9,31,0
14:26:52:259543,1,-27,-60,-25,-8,-5,-3,-11
14:26:52:265471,-3,-3,0,3,9,-2,-53,-6
14:26:52:273701,-3,-3,0,3,9,-2,-53,-6
14:26:52:274485,0,6,6,4,0,-3,8,10
14:26:52:288062,-19,-12,-27,-8,-14,-7,-11,1
14:26:52:296197,-19,-12,-27,-8,-14,-7,-11,1
14:26:52:296972,-7,-5,-21,-18,-5,-8,-2,-11
14:26:52:302956,4,-12,-5,-24,-27,-33,-87,-11
14:26:52:318968,4,-12,-5,-24,-27,-33,-87,-11
14:26:52:319467,-32,15,59,18,17,7,-8,-7
14:26:52:325549,22,26,43,13,7,10,1,6
14:26:52:333763,22,26,43,13,7,10,1,6
14:26:52:334512,32,12,-3,11,8,6,9,9
14:26:52:348001,-24,-9,-45,-14,14,12,-1,1
14:26:52:356246,-24,-9,-45,-14,14,12,-1,1
14:26:52:356958,-5,-18,-65,-19,-7,-5,9,24
14:26:52:362933,8,-13,-64,-12,-2,2,59,17
14:26:52:378671,8,-13,-64,-12,-2,2,59,17
14:26:52:379465,11,4,14,1,-2,-2,-23,-8
14:26:52:385485,-13,10,59,9,1,0,17,4
14:26:52:393730,-13,10,59,9,1,0,17,4
14:26:52:394497,-4,-18,-41,-7,-5,-17,34,-8
14:26:52:407976,-11,6,47,24,4,10,0,1
14:26:52:416171,-11,6,47,24,4,10,0,1
14:26:52:416956,-12,-4,9,9,7,1,-13,-4
14:26:52:423035,15,14,46,22,1,5,-5,7
14:26:52:438782,15,14,46,22,1,5,-5,7
14:26:52:439464,-7,0,45,4,-15,5,-6,0
14:26:52:445506,-2,6,13,7,9,13,-28,-16
14:26:52:453675,-2,6,13,7,9,13,-28,-16
14:26:52:454473,27,12,34,21,-1,2,-6,2
14:26:52:467912,3,-11,-1,-12,-6,-1,21,-6
14:26:52:476286,3,-11,-1,-12,-6,-1,21,-6
14:26:52:476981,-11,-9,-16,-15,-13,-6,-8,-1
14:26:52:482915,15,11,-5,-1,3,3,-6,12
14:26:52:498655,15,11,-5,-1,3,3,-6,12
14:26:52:499466,3,-7,-3,-15,-23,-18,-22,-7
14:26:52:505571,2,-4,-13,-6,-18,-8,-9,-8
14:26:52:513749,2,-4,-13,-6,-18,-8,-9,-8
14:26:52:514494,11,7,-5,7,1,1,0,-6
14:26:52:528036,-17,3,-6,13,8,-5,-3,-6
14:26:52:536246,-17,3,-6,13,8,-5,-3,-6
14:26:52:536972,-1,-1,-1,3,1,11,-4,-1
14:26:52:543012,-58,-10,-13,-7,-14,-13,-7,-4
14:26:52:558772,-58,-10,-13,-7,-14,-13,-7,-4
14:26:52:559479,-4,-3,3,-15,2,-8,0,-3
14:26:52:565489,19,-1,15,-4,7,-1,16,13
14:26:52:573689,19,-1,15,-4,7,-1,16,13
14:26:52:574486,-16,-4,12,-6,-4,-9,15,14
14:26:52:588167,10,1,11,4,31,-1,-2,-14
14:26:52:596170,10,1,11,4,31,-1,-2,-14
14:26:52:596974,6,5,43,5,9,14,-10,0
14:26:52:603045,-18,-42,-100,-39,-38,-23,-1,-17
14:26:52:618701,-18,-42,-100,-39,-38,-23,-1,-17
14:26:52:619465,2,1,-30,2,9,-7,-5,-12
14:26:52:625593,-34,10,22,11,0,10,-25,-5
14:26:52:632957,-34,10,22,11,0,10,-25,-5
14:26:52:640477,-25,-5,-56,-9,-12,-6,-4,-3
14:26:52:647978,32,-10,-40,-16,-4,-23,-4,16
14:26:52:656204,32,-10,-40,-16,-4,-23,-4,16
14:26:52:656957,32,9,35,7,4,8,11,-7
14:26:52:671263,18,0,10,1,-1,12,3,-22
14:26:52:671940,18,0,10,1,-1,12,3,-22
14:26:52:678015,2,-5,11,6,13,7,4,-3
14:26:52:685517,33,-3,20,-7,-1,-6,4,3
14:26:52:693089,33,-3,20,-7,-1,-6,4,3
14:26:52:700480,-1,1,-16,-5,-9,-5,-4,3
14:26:52:708001,-36,-24,-35,-24,-12,-2,-5,-2
14:26:52:716153,-36,-24,-35,-24,-12,-2,-5,-2
14:26:52:716946,-13,1,9,2,21,7,8,0
14:26:52:731202,26,6,46,7,4,5,9,11
14:26:52:731998,26,6,46,7,4,5,9,11
14:26:52:738060,-4,-10,-68,-12,-6,-11,0,-1
14:26:52:745512,2,5,18,2,5,16,-4,-1
14:26:52:753024,2,5,18,2,5,16,-4,-1
14:26:52:760547,-11,12,19,16,0,9,-4,-2
14:26:52:767930,0,7,-5,10,-2,-14,6,0
14:26:52:776238,0,7,-5,10,-2,-14,6,0
14:26:52:776993,-23,0,14,-2,8,-2,3,-3
14:26:52:790489,2,9,0,8,3,7,0,5
14:26:52:798702,2,9,0,8,3,7,0,5
14:26:52:799486,-4,-7,-30,-7,-10,-3,8,-1
14:26:52:805643,19,8,7,-10,9,-1,-7,-1
14:26:52:813063,19,8,7,-10,9,-1,-7,-1
14:26:52:820508,25,4,30,2,4,4,-6,3
14:26:52:827968,-13,-7,-40,-12,-10,-8,0,0
14:26:52:836168,-13,-7,-40,-12,-10,-8,0,0
14:26:52:836913,12,-11,-30,-9,-13,-6,-5,5
14:26:52:850537,-17,-5,28,-11,3,6,11,-1
14:26:52:858784,-17,-5,28,-11,3,6,11,-1
14:26:52:859540,7,1,8,-13,-11,-14,-6,2
14:26:52:865497,15,14,0,15,3,1,-8,5
14:26:52:873112,15,14,0,15,3,1,-8,5
14:26:52:880483,-18,6,49,-11,6,-16,-5,0
14:26:52:888165,-40,-5,12,3,12,3,-3,-10
14:26:52:896192,-40,-5,12,3,12,3,-3,-10
14:26:52:896919,7,-4,6,1,-5,0,1,1
14:26:52:911252,28,0,-31,-16,-15,-4,0,5
14:26:52:911921,28,0,-31,-16,-15,-4,0,5
14:26:52:917972,23,6,23,4,8,9,-1,2
14:26:52:925600,25,-6,0,1,-14,-9,11,8
14:26:52:932996,25,-6,0,1,-14,-9,11,8
14:26:52:940523,-16,-15,-50,-13,-3,-1,-8,-8
14:26:52:947916,7,-14,11,7,-10,-10,-3,-4
14:26:52:956221,7,-14,11,7,-10,-10,-3,-4
14:26:52:956947,-24,-7,5,-22,7,-3,-5,-7
14:26:52:971199,3,-16,-39,-12,9,3,-1,1
14:26:52:971949,3,-16,-39,-12,9,3,-1,1
14:26:52:977983,2,9,-2,9,-29,-12,-1,-4
14:26:52:985479,2,6,-2,3,7,14,-4,-2
14:26:52:993061,2,6,-2,3,7,14,-4,-2
14:26:53:481,1,2,-7,13,-1,8,-3,-7
14:26:53:8006,-2,18,32,10,4,5,2,5
14:26:53:16196,-2,18,32,10,4,5,2,5
14:26:53:16948,23,8,1,0,-11,-15,-25,-6
14:26:53:31147,-8,4,7,-3,9,-2,-1,-4
14:26:53:31952,-8,4,7,-3,9,-2,-1,-4
14:26:53:38125,-10,3,19,13,5,3,9,-1
14:26:53:45509,-14,2,10,25,21,8,0,-3
14:26:53:53029,-14,2,10,25,21,8,0,-3
14:26:53:60562,1,-1,-2,0,2,9,6,2
14:26:53:67944,-43,0,28,13,-19,-14,-8,-12
14:26:53:76283,-43,0,28,13,-19,-14,-8,-12
14:26:53:76980,3,-8,-9,8,6,4,10,7
14:26:53:91186,8,-13,-51,-19,-2,1,-16,-1
14:26:53:92037,8,-13,-51,-19,-2,1,-16,-1
14:26:53:97947,-25,-9,-12,-11,-10,-4,-3,-4
14:26:53:105566,24,5,-8,3,-6,14,-3,-1
14:26:53:113055,24,5,-8,3,-6,14,-3,-1
14:26:53:120475,10,3,-22,2,14,14,15,6
14:26:53:127962,-13,-40,-19,-14,-13,-17,-8,-9
14:26:53:136141,-13,-40,-19,-14,-13,-17,-8,-9
14:26:53:136939,3,-7,24,-1,-7,-6,-9,2
14:26:53:151150,-14,9,-6,-4,-3,-7,-5,3
14:26:53:151939,-14,9,-6,-4,-3,-7,-5,3
14:26:53:158056,4,0,7,25,12,4,-1,-1
14:26:53:165502,-7,5,15,-5,-21,-2,0,-1
14:26:53:173061,-7,5,15,-5,-21,-2,0,-1
14:26:53:180482,7,-3,-5,5,4,-3,7,0
14:26:53:188148,-5,5,15,7,14,-3,15,4
14:26:53:196202,-5,5,15,7,14,-3,15,4
14:26:53:196933,-6,-1,2,-18,-16,-8,-7,-5
14:26:53:211227,-26,11,20,10,3,-12,11,-2
14:26:53:211955,-26,11,20,10,3,-12,11,-2
14:26:53:217976,2,-14,-2,11,14,12,1,-2
14:26:53:225583,26,8,-9,-6,-7,-4,-1,3
14:26:53:232983,26,8,-9,-6,-7,-4,-1,3
14:26:53:240563,-37,-2,-2,-2,-18,-13,2,-4
14:26:53:247975,7,-4,8,13,3,1,2,-4
14:26:53:256260,7,-4,8,13,3,1,2,-4
14:26:53:256956,7,-10,-22,-25,0,5,-6,-3
14:26:53:271274,-3,-9,-15,-4,-4,-7,-4,3
14:26:53:272000,-3,-9,-15,-4,-4,-7,-4,3
14:26:53:278017,-6,11,17,-3,10,-2,-2,-3
14:26:53:285487,12,-5,-10,-2,-14,9,4,6
14:26:53:293152,12,-5,-10,-2,-14,9,4,6
14:26:53:300455,-16,-8,-51,-21,13,-2,-4,1
14:26:53:308021,5,9,1,-11,1,4,1,-1
14:26:53:316191,5,9,1,-11,1,4,1,-1
14:26:53:316951,-18,-14,-18,3,-2,-15,-7,-11
14:26:53:331194,9,-3,-12,-10,16,4,0,-1
14:26:53:332001,9,-3,-12,-10,16,4,0,-1
14:26:53:338086,16,-12,-4,-16,-11,8,-8,2
14:26:53:345503,-41,-5,-16,-8,-7,3,-9,-9
14:26:53:353035,-41,-5,-16,-8,-7,3,-9,-9
14:26:53:360591,-15,5,16,8,3,4,7,-5
14:26:53:367951,24,4,12,12,-8,2,11,4
14:26:53:376300,24,4,12,12,-8,2,11,4
14:26:53:377058,4,6,-6,-7,-22,-9,-7,1
14:26:53:391252,20,14,20,13,12,9,-3,4
14:26:53:392037,20,14,20,13,12,9,-3,4
14:26:53:397990,18,16,58,24,-4,-4,-2,-7
14:26:53:405602,-31,-4,29,2,-5,-10,-8,-8
14:26:53:413070,-31,-4,29,2,-5,-10,-8,-8
14:26:53:420545,3,11,13,7,6,1,-2,5
14:26:53:428002,17,1,-4,-6,12,-1,1,1
14:26:53:436186,17,1,-4,-6,12,-1,1,1
14:26:53:436933,9,5,-8,11,0,-14,-7,1
14:26:53:451105,4,-6,11,-4,-4,-6,-17,-6
14:26:53:451938,4,-6,11,-4,-4,-6,-17,-6
14:26:53:458112,-1,-6,-30,-14,-5,-6,6,-1
14:26:53:465500,8,8,-3,-14,6,4,3,7
14:26:53:473086,8,8,-3,-14,6,4,3,7
14:26:53:480486,-20,-2,-20,-7,-3,6,-5,4
14:26:53:488094,-1,-16,-30,-1,-6,-11,1,-9
14:26:53:496157,-1,-16,-30,-1,-6,-11,1,-9
14:26:53:496924,-2,-3,2,13,-3,2,3,-6
14:26:53:511129,-17,-3,-9,-7,9,9,-2,-1
14:26:53:511933,-17,-3,-9,-7,9,9,-2,-1
14:26:53:517928,49,27,35,-3,-1,-5,8,10
14:26:53:525541,-23,-2,-37,8,-15,-13,-1,-6
14:26:53:533003,-23,-2,-37,8,-15,-13,-1,-6
14:26:53:540507,-9,1,19,-12,7,10,5,1
14:26:53:547919,-8,7,20,5,-7,0,-2,1
14:26:53:556245,-8,7,20,5,-7,0,-2,1
14:26:53:556954,17,-1,-17,3,-2,-6,2,0
14:26:53:571241,7,1,1,2,-6,-9,0,1
14:26:53:571961,7,1,1,2,-6,-9,0,1
14:26:53:577928,-62,-8,26,6,24,11,-2,-7
14:26:53:593691,6,4,1,-5,-2,-4,7,6
14:26:53:594450,6,4,1,-5,-2,-4,7,6
14:26:53:600469,23,-1,17,8,0,-9,-4,2
14:26:53:607980,-19,1,8,0,-3,6,-4,-1
14:26:53:615497,-19,1,8,0,-3,6,-4,-1
14:26:53:623002,0,-2,-17,1,-6,2,2,0
14:26:53:631189,1,6,18,-3,7,-2,-8,-5
14:26:53:631968,1,6,18,-3,7,-2,-8,-5
14:26:53:638086,-30,-16,-10,1,-10,-1,-4,-5
14:26:53:653644,9,-4,11,-3,-2,3,12,-5
14:26:53:654470,9,-4,11,-3,-2,3,12,-5
14:26:53:660529,12,10,-2,3,2,9,8,7
14:26:53:667942,-13,-3,-9,-4,-2,-5,-2,0
14:26:53:675583,-13,-3,-9,-4,-2,-5,-2,0
14:26:53:682962,4,-12,2,-11,-14,-6,-23,-2
14:26:53:691218,10,-2,-4,-14,-2,4,3,1
14:26:53:691965,10,-2,-4,-14,-2,4,3,1
14:26:53:697966,-49,-18,-10,-7,-12,-14,-8,-10
14:26:53:713670,19,1,-1,6,11,5,-14,-4
14:26:53:714534,19,1,-1,6,11,5,-14,-4
14:26:53:720491,11,1,-4,-4,-8,-16,-10,-14
14:26:53:727982,-17,-11,-1,-6,-11,-7,1,1
14:26:53:735525,-17,-11,-1,-6,-11,-7,1,1
14:26:53:743070,25,5,-9,0,-4,-7,-1,-2
14:26:53:751122,-9,8,-11,-1,4,19,1,0
14:26:53:751918,-9,8,-11,-1,4,19,1,0
14:26:53:758124,8,3,9,6,2,4,-5,3
14:26:53:773713,11,-19,12,6,4,5,4,3
14:26:53:774515,11,-19,12,6,4,5,4,3
14:26:53:780504,5,-3,-16,-5,-5,9,3,2
14:26:53:788187,-16,3,12,11,-13,-5,-2,4
14:26:53:795613,-16,3,12,11,-13,-5,-2,4
14:26:53:803017,13,1,1,3,4,1,1,1
14:26:53:811221,23,-10,-1,-14,-15,-15,-11,-2
14:26:53:812007,23,-10,-1,-14,-15,-15,-11,-2
14:26:53:817954,-18,-6,-15,-7,-6,-1,3,-2
14:26:53:833623,36,-20,-15,-3,13,9,6,-6
14:26:53:834492,36,-20,-15,-3,13,9,6,-6
14:26:53:840524,33,-4,-6,5,4,12,15,7
14:26:53:847992,13,14,-2,-3,-6,-13,-5,7
14:26:53:855631,13,14,-2,-3,-6,-13,-5,7
14:26:53:862966,1,-6,-3,-11,4,2,14,-1
14:26:53:871251,-15,7,17,2,12,4,3,3
14:26:53:871980,-15,7,17,2,12,4,3,3
14:26:53:877952,-14,14,27,9,9,-5,-5,0
14:26:53:893782,11,8,-5,-11,1,-3,-9,-6
14:26:53:894497,11,8,-5,-11,1,-3,-9,-6
14:26:53:900459,-7,-14,-3,-12,7,-3,-3,2
14:26:53:907996,-17,-1,-11,0,1,3,10,-9
14:26:53:915531,-17,-1,-11,0,1,3,10,-9
14:26:53:923010,-27,-9,-9,-4,-8,-10,-7,-3
14:26:53:931182,-23,1,10,13,-11,-16,-4,-7
14:26:53:931984,-23,1,10,13,-11,-16,-4,-7
14:26:53:938082,-6,7,20,0,3,4,-8,0
14:26:53:953666,0,-11,-9,1,4,4,7,2
14:26:53:954510,0,-11,-9,1,4,4,7,2
14:26:53:960535,-22,-1,-11,-6,-17,1,3,-6
14:26:53:967914,-16,-6,-13,-2,-5,-1,-6,-2
14:26:53:975629,-16,-6,-13,-2,-5,-1,-6,-2
14:26:53:982929,45,8,-11,-6,7,11,4,6
14:26:53:991223,-5,-6,4,-10,-6,-15,7,-1
14:26:53:992018,-5,-6,4,-10,-6,-15,7,-1
14:26:53:997965,3,2,-15,2,-1,-17,-4,-8
14:26:54:13641,21,-1,-13,8,14,10,-4,5
14:26:54:14473,21,-1,-13,8,14,10,-4,5
14:26:54:20521,-25,1,-13,-4,-28,-17,-7,-5
14:26:54:28036,0,5,6,17,3,15,6,-4
14:26:54:35550,0,5,6,17,3,15,6,-4
14:26:54:43127,8,4,14,0,-8,-1,-14,0
14:26:54:51138,-8,3,22,1,-4,-2,-6,0
14:26:54:51946,-8,3,22,1,-4,-2,-6,0
14:26:54:58028,-29,-23,21,7,7,5,-14,-5
14:26:54:73609,17,-10,-10,1,11,2,-5,3
14:26:54:74493,17,-10,-10,1,11,2,-5,3
14:26:54:80496,28,2,5,-20,-8,-4,14,-6
14:26:54:88084,-3,8,10,-8,6,13,0,5
14:26:54:95517,-3,8,10,-8,6,13,0,5
14:26:54:103024,-7,-1,0,2,2,-4,-18,5
14:26:54:111212,3,2,8,6,0,-21,5,2
14:26:54:112005,3,2,8,6,0,-21,5,2
14:26:54:117943,-11,3,10,24,35,27,19,2
14:26:54:133640,8,-1,-32,-5,-11,-7,1,-6
14:26:54:134481,8,-1,-32,-5,-11,-7,1,-6
14:26:54:140474,16,6,0,2,4,-6,-4,-6
14:26:54:148034,5,5,21,-10,4,4,4,-4
14:26:54:155586,5,5,21,-10,4,4,4,-4
14:26:54:163001,5,0,-46,-5,9,2,7,2
14:26:54:171247,-33,-18,-67,-22,-27,-17,-5,-8
14:26:54:172018,-33,-18,-67,-22,-27,-17,-5,-8
14:26:54:177986,-13,4,-2,-13,-17,-16,11,6
14:26:54:193759,-3,5,2,-7,11,-8,1,1
14:26:54:194489,-3,5,2,-7,11,-8,1,1
14:26:54:200468,22,-2,13,-9,4,16,-3,2
14:26:54:208026,-43,-11,4,5,-19,2,-10,-4
14:26:54:215547,-43,-11,4,5,-19,2,-10,-4
14:26:54:222978,-23,2,18,2,-2,3,4,3
14:26:54:231212,19,7,6,-1,2,-7,-8,4
14:26:54:231992,19,7,6,-1,2,-7,-8,4
14:26:54:238132,-6,10,-4,-7,-13,-10,-8,-5
14:26:54:253764,6,-1,26,2,-7,-4,-14,-2
14:26:54:254517,6,-1,26,2,-7,-4,-14,-2
14:26:54:260571,21,6,3,-5,-7,3,-22,-1
14:26:54:267943,10,1,12,18,10,7,-4,2
14:26:54:275708,10,1,12,18,10,7,-4,2
14:26:54:282970,3,-4,9,-3,-6,-3,1,1
14:26:54:291206,-8,-2,10,4,6,9,5,-4
14:26:54:292016,-8,-2,10,4,6,9,5,-4
14:26:54:297992,-19,-18,-35,-5,9,-4,6,-5
14:26:54:313722,-2,-12,-11,1,-2,-3,-1,-7
14:26:54:314492,-2,-12,-11,1,-2,-3,-1,-7
14:26:54:320526,3,-17,-22,-14,-17,-13,3,-2
14:26:54:328044,-6,0,4,-14,-6,9,2,-1
14:26:54:335563,-6,0,4,-14,-6,9,2,-1
14:26:54:343051,13,-10,2,7,21,17,8,2
14:26:54:351129,6,0,6,5,-3,-17,7,-4
14:26:54:351948,6,0,6,5,-3,-17,7,-4
14:26:54:358070,14,2,41,12,0,2,-3,0
14:26:54:373662,12,-1,-24,-13,3,6,-8,-3
14:26:54:374458,12,-1,-24,-13,3,6,-8,-3
14:26:54:380496,-8,1,-6,5,4,-7,0,1
14:26:54:388143,6,-13,3,-13,-8,0,-1,-2
14:26:54:395579,6,-13,3,-13,-8,0,-1,-2
14:26:54:403035,-12,-10,-23,6,5,5,2,-3
14:26:54:411237,2,22,19,5,6,-5,2,0
14:26:54:411974,2,22,19,5,6,-5,2,0
14:26:54:417963,-5,5,25,9,-6,-3,1,-1
14:26:54:433637,-11,8,13,-4,7,-1,-8,-5
14:26:54:434508,-11,8,13,-4,7,-1,-8,-5
14:26:54:440551,27,12,-12,0,-3,-8,7,4
14:26:54:448037,17,4,13,-1,-6,3,4,4
14:26:54:455563,17,4,13,-1,-6,3,4,4
14:26:54:462969,-9,-17,6,4,5,-4,-5,-4
14:26:54:471376,7,2,-18,4,-21,-9,5,-3
14:26:54:472010,7,2,-18,4,-21,-9,5,-3
14:26:54:485438,7,6,-23,-1,-11,-8,-6,-6
14:26:54:493819,7,6,-23,-1,-11,-8,-6,-6
14:26:54:494487,-8,-13,-7,1,21,6,-2,2
14:26:54:500536,-8,-5,22,-20,-9,-1,-2,-8
14:26:54:516028,-8,-5,22,-20,-9,-1,-2,-8
14:26:54:523651,-11,2,4,-4,-2,-2,-11,1
14:26:54:524422,12,2,19,10,0,25,-2,2
14:26:54:531208,12,2,19,10,0,25,-2,2
14:26:54:532011,-9,-7,-19,-4,-14,-10,-8,-4
14:26:54:545545,1,-2,-19,-3,3,8,-6,0
14:26:54:553700,1,-2,-19,-3,3,8,-6,0
14:26:54:554480,-2,0,-13,-10,-11,-8,14,-1
14:26:54:560593,-33,5,15,26,2,1,11,-1
14:26:54:576201,-33,5,15,26,2,1,11,-1
14:26:54:576945,12,3,-13,1,6,-1,-3,0
14:26:54:582970,7,-5,-3,-6,-4,-8,-6,-5
14:26:54:591286,7,-5,-3,-6,-4,-8,-6,-5
14:26:54:592001,3,-5,-3,7,-1,2,7,-2
14:26:54:605628,-1,-3,-25,-7,-6,-2,-18,-2
14:26:54:613700,-1,-3,-25,-7,-6,-2,-18,-2
14:26:54:614507,3,-7,-12,-4,-2,-5,-9,-3
14:26:54:620516,1,-4,17,9,20,-11,0,0
14:26:54:636220,1,-4,17,9,20,-11,0,0
14:26:54:636987,-8,9,-1,4,-5,0,4,1
14:26:54:643099,-1,-6,-28,-17,-3,-8,8,-3
14:26:54:651121,-1,-6,-28,-17,-3,-8,8,-3
14:26:54:651926,-10,-20,4,4,5,6,-1,9
14:26:54:665541,-13,-3,-1,4,4,-4,-3,-7
14:26:54:673658,-13,-3,-1,4,4,-4,-3,-7
14:26:54:674479,10,1,6,9,-5,4,-10,-7
14:26:54:680520,-5,7,13,2,3,-3,8,8
14:26:54:696212,-5,7,13,2,3,-3,8,8
14:26:54:696996,-22,2,7,-5,9,-3,-6,-4
14:26:54:702993,23,13,12,-4,-10,-11,-13,2
14:26:54:711182,23,13,12,-4,-10,-11,-13,2
14:26:54:711960,9,10,6,-3,-3,12,10,2
14:26:54:725581,-12,1,6,1,-3,19,6,0
14:26:54:733704,-12,1,6,1,-3,19,6,0
14:26:54:734459,-29,-3,31,-2,-14,4,15,-11
14:26:54:740552,9,2,-6,1,-16,3,-5,-3
14:26:54:756331,9,2,-6,1,-16,3,-5,-3
14:26:54:756999,10,-15,-8,-1,2,-9,4,0
14:26:54:763001,-12,0,4,-9,3,-7,23,5
14:26:54:771314,-12,0,4,-9,3,-7,23,5
14:26:54:771986,-1,4,11,-3,-1,7,-4,2
14:26:54:785488,-2,0,0,3,13,-15,10,0
14:26:54:793789,-2,0,0,3,13,-15,10,0
14:26:54:794543,8,-2,-10,12,-6,-11,-11,2
14:26:54:800476,-25,-4,-10,-8,-15,12,0,-6
14:26:54:816183,-25,-4,-10,-8,-15,12,0,-6
14:26:54:816966,8,7,-10,-11,-12,-10,-5,3
14:26:54:823083,15,0,10,-6,-6,-7,-6,4
14:26:54:831251,15,0,10,-6,-6,-7,-6,4
14:26:54:832012,0,18,22,28,14,12,-2,0
14:26:54:845574,0,-4,2,-13,-4,3,-2,-9
14:26:54:853712,0,-4,2,-13,-4,3,-2,-9
14:26:54:854472,-20,-9,4,-8,-3,-1,10,-3
14:26:54:860606,25,-15,-22,-11,-10,-9,-6,-2
14:26:54:876263,25,-15,-22,-11,-10,-9,-6,-2
14:26:54:876932,4,3,-24,-12,-11,-9,-5,-1
14:26:54:882927,2,4,4,9,4,9,-6,-14
14:26:54:891262,2,4,4,9,4,9,-6,-14
14:26:54:892005,10,-15,-30,-3,14,7,-1,1
14:26:54:905630,-15,-2,-1,-1,-22,-15,-12,5
14:26:54:913688,-15,-2,-1,-1,-22,-15,-12,5
14:26:54:914507,-7,4,9,0,7,10,-5,-4
14:26:54:920554,11,7,-12,-10,8,11,-15,0
14:26:54:936182,11,7,-12,-10,8,11,-15,0
14:26:54:936968,19,9,-2,-4,5,-19,3,0
14:26:54:943138,-9,-9,22,12,-6,2,-7,-5
14:26:54:950905,-9,-9,22,12,-6,2,-7,-5
14:26:54:958032,2,-16,-11,0,6,15,11,-3
14:26:54:965512,-15,-6,-9,12,-4,-4,4,4
14:26:54:973714,-15,-6,-9,12,-4,-4,4,4
14:26:54:974521,-5,0,12,-4,-13,-9,-9,-2
14:26:54:980509,15,3,-4,0,-2,-8,2,3
14:26:54:996193,15,3,-4,0,-2,-8,2,3
14:26:54:997009,4,3,-11,-3,13,3,-6,-5
14:26:55:2946,-2,4,-26,0,5,-8,-4,4
14:26:55:11236,-2,4,-26,0,5,-8,-4,4
14:26:55:12003,-12,5,-3,2,-10,3,-4,-2
14:26:55:25615,-10,-9,9,7,21,6,8,-1
14:26:55:33656,-10,-9,9,7,21,6,8,-1
14:26:55:34447,-1,-5,-7,-7,6,-9,5,14
14:26:55:40536,-9,15,4,-10,-5,-4,3,0
14:26:55:56255,-9,15,4,-10,-5,-4,3,0
14:26:55:56936,-16,-3,23,8,-3,-5,-1,-1
14:26:55:62976,22,-3,-13,-11,2,-5,-6,-1
14:26:55:71267,22,-3,-13,-11,2,-5,-6,-1
14:26:55:71969,11,0,22,-9,-5,-5,15,0
14:26:55:85490,1,11,3,-1,1,-1,-5,-2
14:26:55:93834,1,11,3,-1,1,-1,-5,-2
14:26:55:94512,3,6,9,18,0,1,-4,2
14:26:55:100455,-19,-7,-1,-5,0,0,5,-2
14:26:55:116174,-19,-7,-1,-5,0,0,5,-2
14:26:55:116940,-17,-17,-17,-2,14,1,-8,-2
14:26:55:123012,-15,-7,29,9,0,-6,-1,-2
14:26:55:131224,-15,-7,29,9,0,-6,-1,-2
14:26:55:131981,-10,9,0,-6,-2,3,-6,-3
14:26:55:145432,-33,-7,-11,-2,-3,-9,4,-3
14:26:55:153710,-33,-7,-11,-2,-3,-9,4,-3
14:26:55:154492,-13,3,-10,12,9,10,10,-6
14:26:55:160573,2,-7,13,8,-11,2,-4,-3
14:26:55:176296,2,-7,13,8,-11,2,-4,-3
14:26:55:176938,-4,-6,-15,2,-7,-2,-5,-2
14:26:55:182900,22,-7,-3,-2,5,4,6,6
14:26:55:191227,22,-7,-3,-2,5,4,6,6
14:26:55:191971,11,-4,0,-10,-8,5,0,-7
14:26:55:205628,3,7,-2,-10,-3,-15,-6,-3
14:26:55:213715,3,7,-2,-10,-3,-15,-6,-3
14:26:55:214494,-5,-8,-29,-2,-1,-6,-9,-1
14:26:55:220466,22,-1,-10,-2,-1,5,1,-2
14:26:55:236181,22,-1,-10,-2,-1,5,1,-2
14:26:55:236945,-7,-4,11,-11,-10,1,-2,-15
14:26:55:243013,4,-12,-71,-28,6,0,1,-2
14:26:55:251149,4,-12,-71,-28,6,0,1,-2
14:26:55:251946,22,4,0,-1,-26,-41,-13,6
14:26:55:265517,8,-1,17,-6,0,11,5,-1
14:26:55:273643,8,-1,17,-6,0,11,5,-1
14:26:55:274511,5,4,12,0,-17,3,4,4
14:26:55:280473,14,0,5,2,-12,-8,-3,-4
14:26:55:296153,14,0,5,2,-12,-8,-3,-4
14:26:55:296926,-5,-13,-26,-2,3,-10,-19,-4
14:26:55:303006,-10,-9,-1,8,3,-10,-3,-4
14:26:55:311217,-10,-9,-1,8,3,-10,-3,-4
14:26:55:311958,-2,5,-26,-1,8,26,8,-1
14:26:55:325605,-11,-5,-10,-4,-12,2,-6,1
14:26:55:333642,-11,-5,-10,-4,-12,2,-6,1
14:26:55:334498,12,-5,8,6,18,1,7,1
14:26:55:340572,4,9,-10,1,7,3,1,4
14:26:55:356278,4,9,-10,1,7,3,1,4
14:26:55:356966,-6,-15,-14,-4,3,6,9,-3
14:26:55:363012,-5,10,3,9,-1,-7,-4,0
14:26:55:371287,-5,10,3,9,-1,-7,-4,0
14:26:55:371917,1,8,-25,4,-2,-3,-4,2
14:26:55:385507,9,4,11,6,-4,-2,-1,0
14:26:55:393733,9,4,11,6,-4,-2,-1,0
14:26:55:394461,20,7,19,-4,-6,-4,1,5
14:26:55:400467,-16,-4,-1,-10,-2,2,-18,1
14:26:55:416192,-16,-4,-1,-10,-2,2,-18,1
14:26:55:416963,-20,-17,25,-3,-7,-20,-4,-1
14:26:55:422985,-6,-2,31,7,-6,-1,1,-1
14:26:55:431160,-6,-2,31,7,-6,-1,1,-1
14:26:55:431965,6,11,14,0,20,1,4,2
14:26:55:445572,-11,-1,-39,-8,-5,-5,5,1
14:26:55:453720,-11,-1,-39,-8,-5,-5,5,1
14:26:55:454517,-1,-2,3,-10,-4,4,0,-3
14:26:55:460588,1,12,28,-7,-11,3,5,-2
14:26:55:476305,1,12,28,-7,-11,3,5,-2
14:26:55:477029,-13,13,3,7,9,3,0,-4
14:26:55:482924,-2,0,3,12,10,-2,-3,3
14:26:55:490650,-2,0,3,12,10,-2,-3,3
14:26:55:497975,13,9,14,5,-1,4,1,-2
14:26:55:505621,-36,-25,-38,-14,2,0,1,-3
14:26:55:513726,-36,-25,-38,-14,2,0,1,-3
14:26:55:514533,-28,-7,-14,6,-1,0,1,3
14:26:55:528020,-13,2,9,-7,-1,-5,-3,-13
14:26:55:536366,-13,2,9,-7,-1,-5,-3,-13
14:26:55:537001,-3,-4,-7,8,8,10,-2,2
14:26:55:543026,12,26,22,17,17,14,2,5
14:26:55:550532,12,26,22,17,17,14,2,5
14:26:55:558048,13,-19,8,25,-8,-6,6,-2
14:26:55:565524,0,-6,-10,2,6,0,-2,-4
14:26:55:573660,0,-6,-10,2,6,0,-2,-4
14:26:55:574476,5,2,-9,-10,-9,0,-9,0
14:26:55:588158,3,-3,-13,-22,-17,-5,2,0
14:26:55:596199,3,-3,-13,-22,-17,-5,2,0
14:26:55:596992,3,-5,14,-4,5,15,-3,-1
14:26:55:602974,-2,6,22,12,-7,-18,-9,1
14:26:55:610595,-2,6,22,12,-7,-18,-9,1
14:26:55:617946,-3,-12,-7,-15,-7,-9,4,1
14:26:55:625474,14,13,-3,9,9,5,9,2
14:26:55:633662,14,13,-3,9,9,5,9,2
14:26:55:634479,-11,4,-30,-23,-4,-1,-8,-9
14:26:55:647996,1,-16,9,12,-6,-1,1,0
14:26:55:656209,1,-16,9,12,-6,-1,1,0
14:26:55:656951,9,16,7,17,-6,-8,-4,3
14:26:55:662930,15,-16,-29,-3,-4,9,-1,2
14:26:55:670549,15,-16,-29,-3,-4,9,-1,2
14:26:55:678011,-20,2,-6,-4,-13,10,5,-6
14:26:55:685524,0,4,24,5,-2,-12,-8,-5
14:26:55:693798,0,4,24,5,-2,-12,-8,-5
14:26:55:694495,15,13,17,-4,-6,-2,8,3
14:26:55:708021,9,9,9,-21,-3,0,-4,-2
14:26:55:716165,9,9,9,-21,-3,0,-4,-2
14:26:55:716942,-8,-4,-1,-4,4,-5,0,-6
14:26:55:722958,-13,-1,20,-18,1,7,1,0
14:26:55:730541,-13,-1,20,-18,1,7,1,0
14:26:55:738099,-5,0,-5,-8,-22,-7,-4,-2
14:26:55:745518,-28,-17,-8,13,-6,7,8,-8
14:26:55:753707,-28,-17,-8,13,-6,7,8,-8
14:26:55:754522,14,0,1,-20,-5,-12,-6,6
14:26:55:767953,23,6,-2,-3,17,14,3,2
14:26:55:776269,23,6,-2,-3,17,14,3,2
14:26:55:776993,-14,-5,13,2,-2,-22,-1,-1
14:26:55:782923,19,-7,-38,-11,-8,-7,-10,2
14:26:55:790563,19,-7,-38,-11,-8,-7,-10,2
14:26:55:797982,-1,-23,25,-8,8,2,5,-4
14:26:55:805610,-8,0,7,16,-7,18,16,-3
14:26:55:813681,-8,0,7,16,-7,18,16,-3
14:26:55:814494,12,1,-32,16,10,20,-5,4
14:26:55:827963,-16,-10,-10,0,-5,-8,-19,-2
14:26:55:836227,-16,-10,-10,0,-5,-8,-19,-2
14:26:55:836993,-5,5,-2,20,8,4,-3,-5
14:26:55:843066,6,9,22,-2,4,8,-3,1
14:26:55:850512,6,9,22,-2,4,8,-3,1
14:26:55:858033,9,0,-11,-1,-7,4,-16,2
14:26:55:865500,-17,2,15,-8,-6,-14,-2,-1
14:26:55:873700,-17,2,15,-8,-6,-14,-2,-1
14:26:55:874525,9,0,8,-5,7,-10,14,-2
14:26:55:888123,-9,9,3,16,18,2,-4,-1
14:26:55:896191,-9,9,3,16,18,2,-4,-1
14:26:55:896995,-7,-1,-3,-14,-15,1,3,0
14:26:55:903001,-5,-8,-1,-4,-10,-6,-1,-1
14:26:55:910607,-5,-8,-1,-4,-10,-6,-1,-1
14:26:55:917910,-6,7,-13,-1,5,-6,1,-1
14:26:55:925618,-56,-5,-19,-19,-15,-12,-12,-4
14:26:55:933717,-56,-5,-19,-19,-15,-12,-12,-4
14:26:55:934502,-2,-2,2,3,13,12,6,2
14:26:55:947998,10,4,-1,-7,-11,-14,9,1
14:26:55:956236,10,4,-1,-7,-11,-14,9,1
14:26:55:956978,-21,-12,-29,-8,-1,4,-3,0
14:26:55:962936,13,-2,-4,6,1,2,4,-4
14:26:55:970548,13,-2,-4,6,1,2,4,-4
14:26:55:977974,2,-3,5,-11,8,-1,-4,-8
14:26:55:985520,-2,-1,-12,-13,-3,-6,10,0
14:26:55:993770,-2,-1,-12,-13,-3,-6,10,0
14:26:55:994487,-8,-2,12,2,-1,-14,-11,-6
14:26:56:7993,4,1,-7,3,-2,1,-22,-3
14:26:56:16143,4,1,-7,3,-2,1,-22,-3
14:26:56:16942,-20,-2,-24,-7,-11,-1,0,6
14:26:56:23019,15,-4,10,13,14,14,-1,-6
14:26:56:30560,15,-4,10,13,14,14,-1,-6
14:26:56:38026,5,6,22,6,2,-8,-3,0
14:26:56:45494,-45,-7,-9,0,-2,-11,-14,-5
14:26:56:53697,-45,-7,-9,0,-2,-11,-14,-5
14:26:56:54516,-7,-6,2,-16,-4,-10,8,-6
14:26:56:67955,15,12,14,-4,3,6,3,8
14:26:56:76258,15,12,14,-4,3,6,3,8
14:26:56:76967,11,-16,-56,-6,2,-2,-11,-3
14:26:56:82937,13,-3,-6,-11,-15,-4,2,4
14:26:56:90562,13,-3,-6,-11,-15,-4,2,4
14:26:56:97990,31,12,18,11,-4,13,1,3
14:26:56:105584,1,-7,-14,6,12,5,13,-5
14:26:56:113661,1,-7,-14,6,12,5,13,-5
14:26:56:114503,3,1,15,-16,-14,6,-9,-2
14:26:56:127990,26,1,17,-4,-4,-10,-15,5
14:26:56:136114,26,1,17,-4,-4,-10,-15,5
14:26:56:136931,-17,-2,17,19,-7,-23,1,-7
14:26:56:143035,14,5,18,1,5,11,9,6
14:26:56:150492,14,5,18,1,5,11,9,6
14:26:56:158069,11,4,-7,-3,3,11,-1,0
14:26:56:165485,-13,4,-11,7,-21,7,-7,-14
14:26:56:173659,-13,4,-11,7,-21,7,-7,-14
14:26:56:174516,4,2,5,4,-2,9,2,6
14:26:56:188119,-1,-10,35,-20,2,-8,2,-3
14:26:56:196179,-1,-10,35,-20,2,-8,2,-3
14:26:56:196943,10,3,19,5,8,-2,-2,-4
14:26:56:203007,10,-3,-6,14,9,5,1,6
14:26:56:210604,10,-3,-6,14,9,5,1,6
14:26:56:217925,-23,-11,1,12,13,-6,2,0
14:26:56:225539,2,-8,-15,-1,4,-4,3,5
14:26:56:233674,2,-8,-15,-1,4,-4,3,5
14:26:56:234484,-5,4,18,-9,-2,2,22,0
14:26:56:248694,-5,7,-1,12,2,2,-5,2
14:26:56:249485,-5,7,-1,12,2,2,-5,2
14:26:56:255592,2,17,1,4,-4,-10,-17,-7
14:26:56:262956,23,2,11,-1,-2,-6,2,2
14:26:56:270556,23,2,11,-1,-2,-6,2,2
14:26:56:278082,-11,8,-20,0,-14,-1,-3,-2
14:26:56:285537,-17,-4,-9,3,3,-1,-1,-4
14:26:56:293832,-17,-4,-9,3,3,-1,-1,-4
14:26:56:294489,0,-14,-30,-16,7,-2,4,-4
14:26:56:308795,-4,1,10,-5,15,3,5,-3
14:26:56:309533,-4,1,10,-5,15,3,5,-3
14:26:56:315521,1,-3,-9,-6,-9,-7,-1,6
14:26:56:323003,-12,-5,-30,-4,-1,-4,-4,-4
14:26:56:330596,-12,-5,-30,-4,-1,-4,-4,-4
14:26:56:338110,-13,-12,0,17,13,-6,-5,3
14:26:56:345546,11,-18,-19,4,-5,-16,-13,2
14:26:56:353709,11,-18,-19,4,-5,-16,-13,2
14:26:56:354537,8,0,-20,-18,-14,5,0,-3
14:26:56:368663,5,11,15,13,9,5,-6,0
14:26:56:369543,5,11,15,13,9,5,-6,0
14:26:56:375586,-7,-10,0,-8,3,0,-1,4
14:26:56:382949,-73,-12,-18,-23,-14,-12,-1,-11
14:26:56:390547,-73,-12,-18,-23,-14,-12,-1,-11
14:26:56:397988,11,5,30,1,13,9,-7,1
14:26:56:405606,48,4,-6,-5,-2,-1,12,-2
14:26:56:413001,48,4,-6,-5,-2,-1,12,-2
14:26:56:420459,-27,-19,-15,5,1,2,-2,-7
14:26:56:428657,-8,1,7,1,-3,-2,10,0
14:26:56:429522,-8,1,7,1,-3,-2,10,0
14:26:56:435435,26,11,6,2,-1,-3,-6,0
14:26:56:451131,19,17,-6,0,7,6,-12,2
14:26:56:451917,19,17,-6,0,7,6,-12,2
14:26:56:457986,22,6,-27,5,-3,1,2,-1
14:26:56:465528,7,10,2,-1,-13,-10,2,0
14:26:56:473132,7,10,2,-1,-13,-10,2,0
14:26:56:480486,-22,-4,-24,-11,0,-1,1,4
14:26:56:488740,-17,-10,0,0,-6,6,7,-3
14:26:56:489502,-17,-10,0,0,-6,6,7,-3
14:26:56:495548,21,3,23,0,-7,3,-1,-2
14:26:56:511230,-20,4,21,13,5,-5,-5,1
14:26:56:512010,-20,4,21,13,5,-5,-5,1
14:26:56:517917,-9,5,8,5,-8,7,-5,-3
14:26:56:525524,26,7,19,16,2,1,1,5
14:26:56:532994,26,7,19,16,2,1,1,5
14:26:56:540552,6,-5,6,-8,-13,-5,0,-2
14:26:56:548690,-5,-24,-19,3,-2,4,-1,-6
14:26:56:549466,-5,-24,-19,3,-2,4,-1,-6
14:26:56:555546,-12,8,29,18,-1,-8,5,0
14:26:56:571301,-4,10,28,-1,1,7,1,-3
14:26:56:572027,-4,10,28,-1,1,7,1,-3
14:26:56:578005,-18,2,43,-1,-12,-6,5,-4
14:26:56:585494,16,3,-10,-2,-4,4,-9,0
14:26:56:593152,16,3,-10,-2,-4,4,-9,0
14:26:56:600498,0,-45,-8,10,14,7,-1,0
14:26:56:608731,-11,-10,-43,-31,-14,-11,-9,-4
14:26:56:609505,-11,-10,-43,-31,-14,-11,-9,-4
14:26:56:615533,14,10,5,-11,0,-6,-10,3
14:26:56:631219,4,5,28,5,2,5,11,-1
14:26:56:632052,4,5,28,5,2,5,11,-1
14:26:56:638087,-20,6,-8,-4,16,11,17,-7
14:26:56:645557,-35,1,5,-6,-8,-15,-3,0
14:26:56:653032,-35,1,5,-6,-8,-15,-3,0
14:26:56:660611,20,-14,0,-4,-2,-13,0,-1
14:26:56:668642,8,-27,-23,-1,-6,0,0,-7
14:26:56:669490,8,-27,-23,-1,-6,0,0,-7
14:26:56:675516,23,2,-4,-11,-4,0,-10,6
14:26:56:691213,20,13,-18,0,15,1,-4,5
14:26:56:691935,20,13,-18,0,15,1,-4,5
14:26:56:698017,32,22,15,18,5,8,-3,1
14:26:56:705593,17,2,12,-18,-25,-13,1,-4
14:26:56:712993,17,2,12,-18,-25,-13,1,-4
14:26:56:720471,-25,2,-22,2,7,8,4,-2
14:26:56:728666,12,-24,-28,-4,3,2,0,-5
14:26:56:729499,12,-24,-28,-4,3,2,0,-5
14:26:56:735438,17,12,-13,-9,-13,-10,0,3
14:26:56:751118,-54,6,-27,-13,-3,13,3,-8
14:26:56:751971,-54,6,-27,-13,-3,13,3,-8
14:26:56:758028,-58,-6,-2,-1,10,-6,-14,-4
14:26:56:765453,-13,-13,-2,-5,1,-6,-4,3
14:26:56:773110,-13,-13,-2,-5,1,-6,-4,3
14:26:56:780452,10,-11,-10,10,3,6,5,-1
14:26:56:788778,22,5,16,-1,-5,-5,-17,-1
14:26:56:789507,22,5,16,-1,-5,-5,-17,-1
14:26:56:795553,17,1,10,2,-7,-1,2,2
14:26:56:811187,-28,-30,10,1,1,-8,-16,-9
14:26:56:811998,-28,-30,10,1,1,-8,-16,-9
14:26:56:817931,-8,5,15,5,-9,-15,-15,-2
14:26:56:825505,1,9,14,2,20,8,14,1
14:26:56:832994,1,9,14,2,20,8,14,1
14:26:56:840529,-12,-2,20,8,-10,0,12,-3
14:26:56:848686,23,13,17,-3,-5,-7,4,3
14:26:56:849517,23,13,17,-3,-5,-7,4,3
14:26:56:855601,17,-1,-8,2,0,-4,-4,1
14:26:56:871308,-22,-8,9,5,-4,-6,1,-3
14:26:56:872007,-22,-8,9,5,-4,-6,1,-3
14:26:56:878008,-3,7,33,-2,0,1,-1,1
14:26:56:885491,7,0,16,5,1,-4,0,-1
14:26:56:893199,7,0,16,5,1,-4,0,-1
14:26:56:900513,6,-13,-32,2,3,-11,-2,-3
14:26:56:908751,1,14,0,7,10,5,13,4
14:26:56:909481,1,14,0,7,10,5,13,4
14:26:56:915493,-33,6,-17,-16,3,-4,-3,-10
14:26:56:931166,-6,-3,-3,-8,-8,5,5,2
14:26:56:932009,-6,-3,-3,-8,-8,5,5,2
14:26:56:938064,-11,-17,-7,-1,-3,-1,-15,-2
14:26:56:945487,4,0,-5,-1,5,0,4,-2
14:26:56:953017,4,0,-5,-1,5,0,4,-2
14:26:56:960594,1,4,12,-16,-15,-4,4,0
14:26:56:968664,1,13,11,10,4,5,-11,5
14:26:56:969527,1,13,11,10,4,5,-11,5
14:26:56:975485,15,-11,-21,-7,-9,-9,5,0
14:26:56:991212,28,7,-16,-7,-13,-25,-31,-2
14:26:56:991993,28,7,-16,-7,-13,-25,-31,-2
14:26:56:998000,-13,-5,-17,-3,9,1,-3,-3
14:26:57:5632,14,-2,-7,13,4,21,15,-1
14:26:57:13016,14,-2,-7,13,4,21,15,-1
14:26:57:20478,7,10,25,1,-5,6,4,-1
14:26:57:28676,11,14,15,0,-4,-3,2,0
14:26:57:29515,11,14,15,0,-4,-3,2,0
14:26:57:35447,16,8,11,2,-3,-6,-4,3
14:26:57:51137,-5,-19,-28,-17,0,1,4,-3
14:26:57:51927,-5,-19,-28,-17,0,1,4,-3
14:26:57:58009,-16,-17,-32,-4,2,-3,20,1
14:26:57:65418,-26,1,5,7,3,2,3,0
14:26:57:73059,-26,1,5,7,3,2,3,0
14:26:57:80443,18,-2,-1,-7,-7,3,-4,-3
14:26:57:88762,-1,-19,-27,-5,-2,-2,-6,-12
14:26:57:89489,-1,-19,-27,-5,-2,-2,-6,-12
14:26:57:95535,-14,16,4,11,9,1,-17,-2
14:26:57:111198,-2,11,13,-5,-15,-9,-10,0
14:26:57:112003,-2,11,13,-5,-15,-9,-10,0
14:26:57:117919,0,-15,-13,4,4,-1,6,2
14:26:57:125521,-5,7,36,12,5,11,0,5
14:26:57:132982,-5,7,36,12,5,11,0,5
14:26:57:140517,-21,-4,-26,-14,-11,-13,-8,-2
14:26:57:148699,-22,-14,-10,1,3,-5,-4,1
14:26:57:149479,-22,-14,-10,1,3,-5,-4,1
14:26:57:155603,4,0,32,12,-1,2,0,-5
14:26:57:171296,-13,-2,-4,-12,-5,-8,-3,-5
14:26:57:171996,-13,-2,-4,-12,-5,-8,-3,-5
14:26:57:178028,11,8,-14,1,-1,-4,3,2
14:26:57:185591,3,-6,-2,-2,-3,-8,14,3
14:26:57:193100,3,-6,-2,-2,-3,-8,14,3
14:26:57:200499,-6,-22,-11,-1,-4,14,2,-8
14:26:57:208666,11,7,-6,2,-1,-9,-11,0
14:26:57:209465,11,7,-6,2,-1,-9,-11,0
14:26:57:215493,3,2,-29,12,11,13,8,-2
14:26:57:231165,4,6,-10,5,6,7,15,-1
14:26:57:231950,4,6,-10,5,6,7,15,-1
14:26:57:238126,-10,1,24,-3,-8,-8,-4,1
14:26:57:245573,12,10,-9,-5,-15,7,-3,7
14:26:57:253007,12,10,-9,-5,-15,7,-3,7
14:26:57:260605,-9,-9,-53,-31,9,3,0,-4
14:26:57:268639,5,-4,5,4,-3,-1,-1,-4
14:26:57:269495,5,-4,5,4,-3,-1,-1,-4
14:26:57:275508,2,5,5,-12,-4,2,-3,-3
14:26:57:291192,5,-7,4,-5,-5,-9,-17,1
14:26:57:291968,5,-7,4,-5,-5,-9,-17,1
14:26:57:297970,21,-14,10,-3,-5,-6,-9,-2
14:26:57:305623,-11,2,12,24,12,2,12,-4
14:26:57:313037,-11,2,12,24,12,2,12,-4
14:26:57:320506,-25,12,6,-6,5,5,2,1
14:26:57:328657,-9,-39,-55,-2,-4,-4,-1,-5
14:26:57:329489,-9,-39,-55,-2,-4,-4,-1,-5
14:26:57:335443,9,-23,5,-2,-4,0,0,7
14:26:57:351134,12,6,-5,-14,0,-11,-8,-1
14:26:57:351956,12,6,-5,-14,0,-11,-8,-1
14:26:57:357988,-7,-12,-12,0,9,7,11,0
14:26:57:373646,15,8,25,2,5,2,-7,2
14:26:57:374512,15,8,25,2,5,2,-7,2
14:26:57:380428,-9,4,13,4,0,-10,0,1
14:26:57:388754,-17,9,1,-12,4,-5,1,-1
14:26:57:389498,-17,9,1,-12,4,-5,1,-1
14:26:57:402983,-27,4,2,8,-4,-5,-1,-3
14:26:57:411236,16,2,3,-6,-12,-6,-6,3
14:26:57:411960,16,2,3,-6,-12,-6,-6,3
14:26:57:417948,34,21,-2,-2,2,3,2,4
14:26:57:433614,12,-11,-38,-2,3,8,-1,-4
14:26:57:434484,12,-11,-38,-2,3,8,-1,-4
14:26:57:440530,21,2,-5,-9,-4,6,6,-8
14:26:57:448690,-34,4,37,10,13,-1,1,0
14:26:57:449500,-34,4,37,10,13,-1,1,0
14:26:57:462996,-27,3,11,-7,-5,-2,-5,-2
14:26:57:471277,-6,5,7,-15,-7,-8,-7,-10
14:26:57:471972,-6,5,7,-15,-7,-8,-7,-10
14:26:57:478033,21,-2,-50,0,-3,-5,-6,0
14:26:57:493723,-51,-12,-10,-18,-10,-1,6,-6
14:26:57:494525,-51,-12,-10,-18,-10,-1,6,-6
14:26:57:500506,-14,-16,-17,-9,-3,3,-4,-2
14:26:57:508749,31,7,-22,5,-7,-17,-17,1
14:26:57:509509,31,7,-22,5,-7,-17,-17,1
14:26:57:523085,-15,8,21,3,2,7,-10,-1
14:26:57:531148,0,3,24,-6,2,11,12,5
14:26:57:531943,0,3,24,-6,2,11,12,5
14:26:57:538081,-10,14,43,11,-6,-5,-6,-1
14:26:57:553697,2,1,6,12,5,3,2,5
14:26:57:554516,2,1,6,12,5,3,2,5
14:26:57:560615,-16,-8,-3,7,-5,2,1,4
14:26:57:568626,-23,-12,12,4,-3,-1,20,3
14:26:57:569513,-23,-12,12,4,-3,-1,20,3
14:26:57:582944,-5,8,11,-3,3,-4,7,-4
14:26:57:591239,-7,-8,-7,1,17,17,-9,-10
14:26:57:592066,-7,-8,-7,1,17,17,-9,-10
14:26:57:597958,7,1,23,7,-13,-16,-6,1
14:26:57:613685,7,1,23,7,-13,-16,-6,1
14:26:57:614515,-1,5,-1,2,-20,-12,-11,-8
14:26:57:620537,7,-8,-20,-4,9,5,-7,-7
14:26:57:628682,7,-8,-20,-4,9,5,-7,-7
14:26:57:629533,-2,9,-17,7,4,2,-1,2
14:26:57:643038,23,-12,20,-2,-4,-8,-1,-4
14:26:57:651181,23,-12,20,-2,-4,-8,-1,-4
14:26:57:651950,26,-4,-7,-5,2,6,-1,4
14:26:57:657997,17,10,12,-6,7,4,5,0
14:26:57:673665,17,10,12,-6,7,4,5,0
14:26:57:674543,-31,-2,-2,9,5,8,2,0
14:26:57:680444,-6,0,4,1,-17,-8,1,-1
14:26:57:688791,-6,0,4,1,-17,-8,1,-1
14:26:57:689496,42,5,-45,-13,-6,1,-6,3
14:26:57:703003,-23,5,-1,-9,5,-20,-9,-3
14:26:57:711189,-23,5,-1,-9,5,-20,-9,-3
14:26:57:711998,6,-12,0,-2,1,-5,-5,0
14:26:57:717905,2,3,11,5,4,7,5,2
14:26:57:733663,2,3,11,5,4,7,5,2
14:26:57:734485,8,-10,-6,-1,-10,-12,-3,-12
14:26:57:740465,23,-7,-1,1,-1,-3,-2,1
14:26:57:748679,23,-7,-1,1,-1,-3,-2,1
14:26:57:749493,9,0,-23,-8,0,2,2,10
14:26:57:762951,-26,6,-5,6,4,6,1,-1
14:26:57:771310,-26,6,-5,6,4,6,1,-1
14:26:57:771969,-2,0,8,-3,-6,-12,-5,2
14:26:57:778006,2,5,-23,6,-7,-2,-8,2
14:26:57:793784,2,5,-23,6,-7,-2,-8,2
14:26:57:794530,-31,-4,14,5,-12,-4,8,-7
14:26:57:800426,-5,-4,-47,-5,4,3,1,-1
14:26:57:808730,-5,-4,-47,-5,4,3,1,-1
14:26:57:809487,-14,-7,1,-11,-4,-3,18,-2
14:26:57:823013,-1,-7,-10,-3,-8,-11,-5,-1
14:26:57:831210,-1,-7,-10,-3,-8,-11,-5,-1
14:26:57:831986,22,4,-23,1,1,0,-10,-1
14:26:57:838029,-6,-2,16,-2,-13,6,-4,-4
14:26:57:853662,-6,-2,16,-2,-13,6,-4,-4
14:26:57:854511,42,-1,6,-2,-2,-12,-3,1
14:26:57:860494,21,11,10,-8,6,10,-1,2
14:26:57:868656,21,11,10,-8,6,10,-1,2
14:26:57:869496,-17,-7,15,2,10,6,-25,-7
14:26:57:882960,-14,17,24,7,11,-3,4,-2
14:26:57:891221,-14,17,24,7,11,-3,4,-2
14:26:57:891979,-1,2,2,4,5,-4,3,7
14:26:57:897926,-3,-16,-20,2,-16,-8,-18,1
14:26:57:913671,-3,-16,-20,2,-16,-8,-18,1
14:26:57:914501,12,-1,-19,2,1,6,21,6
14:26:57:920557,-2,-2,23,13,2,-4,-9,-5
14:26:57:928664,-2,-2,23,13,2,-4,-9,-5
14:26:57:929506,0,4,36,-3,11,-11,-13,1
14:26:57:943085,0,-9,-25,-14,7,8,2,-1
14:26:57:951191,0,-9,-25,-14,7,8,2,-1
14:26:57:951937,-16,-3,-3,6,9,4,1,-6
14:26:57:958019,4,-25,-5,-13,4,8,7,-2
14:26:57:973638,4,-25,-5,-13,4,8,7,-2
14:26:57:974502,-7,2,-10,11,-7,4,4,-2
14:26:57:980519,-1,19,-15,3,-5,-7,3,0
14:26:57:988718,-1,19,-15,3,-5,-7,3,0
14:26:57:989530,-4,-11,22,1,-1,12,-24,-2
14:26:58:3005,-24,-4,-4,-6,-9,2,-2,-3
14:26:58:19385,-24,-4,-4,-6,-9,2,-2,-3
14:26:58:20194,-24,15,-4,1,-15,-2,12,-4
14:26:58:20963,12,-2,9,11,31,2,-7,11
14:26:58:33661,12,-2,9,11,31,2,-7,11
14:26:58:34492,7,3,12,-9,-7,-3,-25,-1
14:26:58:40487,5,-1,4,-3,-13,0,1,-3
14:26:58:48720,5,-1,4,-3,-13,0,1,-3
14:26:58:49504,-8,-5,7,-15,-6,5,10,-5
14:26:58:63009,24,3,8,4,-4,-6,10,7
14:26:58:71239,24,3,8,4,-4,-6,10,7
14:26:58:71969,13,-16,-15,-3,15,-2,9,2
14:26:58:78060,-43,-11,-43,-28,-12,-10,12,-8
14:26:58:93766,-43,-11,-43,-28,-12,-10,12,-8
14:26:58:94533,13,11,10,2,-19,-2,13,9
14:26:58:100429,22,6,26,6,1,-2,8,4
14:26:58:108776,22,6,26,6,1,-2,8,4
14:26:58:109528,-20,-6,12,-4,-7,0,-3,-12
14:26:58:122998,-10,-13,37,-2,-2,0,-5,-10
14:26:58:131208,-10,-13,37,-2,-2,0,-5,-10
14:26:58:131979,17,-10,8,-13,-5,-2,3,7
14:26:58:138087,5,-28,-8,-6,6,-7,-4,3
14:26:58:153737,5,-28,-8,-6,6,-7,-4,3
14:26:58:154547,-18,-1,7,13,11,6,1,-3
14:26:58:160515,-4,4,-12,5,-12,-8,-10,0
14:26:58:168666,-4,4,-12,5,-12,-8,-10,0
14:26:58:169497,26,10,-32,-2,3,-18,-13,3
14:26:58:182969,-19,0,-18,10,0,5,-15,-14
14:26:58:191200,-19,0,-18,10,0,5,-15,-14
14:26:58:192007,-3,7,-10,2,5,4,4,1
14:26:58:197901,4,-3,14,-10,-5,9,0,3
14:26:58:213697,4,-3,14,-10,-5,9,0,3
14:26:58:214482,-8,-5,-1,-6,-3,0,5,-2
14:26:58:220585,35,23,-9,-10,1,-2,5,5
14:26:58:228695,35,23,-9,-10,1,-2,5,5
14:26:58:229554,24,-16,0,3,-7,-3,-21,2
14:26:58:243060,-41,2,20,15,-1,3,-10,-4
14:26:58:251133,-41,2,20,15,-1,3,-10,-4
14:26:58:251901,-4,8,5,-1,7,-3,5,-8
14:26:58:258004,-5,-1,-11,1,1,-3,-6,-3
14:26:58:273637,-5,-1,-11,1,1,-3,-6,-3
14:26:58:274523,-25,-8,2,-4,-10,8,2,-6
14:26:58:280538,14,14,-7,3,10,5,2,-1
14:26:58:288745,14,14,-7,3,10,5,2,-1
14:26:58:289554,-24,-15,-29,-20,-2,-10,-1,-5
14:26:58:302968,15,-3,-9,5,-4,9,3,0
14:26:58:311205,15,-3,-9,5,-4,9,3,0
14:26:58:311967,18,12,-3,2,2,-2,-9,7
14:26:58:325550,-12,-16,-9,-8,-5,3,6,1
14:26:58:333709,-12,-16,-9,-8,-5,3,6,1
14:26:58:334517,18,-18,-55,-6,-2,-3,9,2
14:26:58:340586,16,10,34,9,2,-5,-6,3
14:26:58:348002,16,10,34,9,2,-5,-6,3
14:26:58:355613,41,12,22,2,7,3,-6,-3
14:26:58:362995,-6,-13,7,-9,-19,-23,-24,-5
14:26:58:371278,-6,-13,7,-9,-19,-23,-24,-5
14:26:58:372022,-27,17,17,8,-7,-11,-1,-5
14:26:58:385584,-26,-34,0,1,3,-4,-6,-5
14:26:58:393778,-26,-34,0,1,3,-4,-6,-5
14:26:58:394537,-50,5,13,-4,11,12,2,-6
14:26:58:400531,13,-5,-13,1,-4,0,5,-1
14:26:58:408137,13,-5,-13,1,-4,0,5,-1
14:26:58:415426,-32,-10,-15,3,0,9,13,0
14:26:58:423017,27,11,-4,-11,-3,2,20,0
14:26:58:431219,27,11,-4,-11,-3,2,20,0
14:26:58:432001,-4,5,5,3,7,7,-3,-5
14:26:58:445554,5,-6,-2,6,-10,-10,10,-5
14:26:58:453702,5,-6,-2,6,-10,-10,10,-5
14:26:58:454535,4,-5,28,5,-1,2,3,1
14:26:58:460502,-2,23,40,20,17,8,0,3
14:26:58:467998,-2,23,40,20,17,8,0,3
14:26:58:475556,18,-3,10,-4,-7,-14,-2,-1
14:26:58:482919,-20,4,-6,3,4,-5,-1,1
14:26:58:491275,-20,4,-6,3,4,-5,-1,1
14:26:58:492072,21,6,6,4,-5,-1,4,-1
14:26:58:505542,-17,0,-24,-12,-3,2,-9,-6
14:26:58:513783,-17,0,-24,-12,-3,2,-9,-6
14:26:58:514591,-28,-7,4,6,-5,-1,-6,-2
14:26:58:520534,-1,-6,21,4,2,-1,0,0
14:26:58:528101,-1,-6,21,4,2,-1,0,0
14:26:58:535452,7,-17,-34,-2,6,2,-7,6
14:26:58:543088,-8,-1,-37,-7,0,-2,4,-2
14:26:58:551209,-8,-1,-37,-7,0,-2,4,-2
14:26:58:551970,-2,-1,-18,-6,-9,-8,-1,0
14:26:58:565476,26,15,-2,-2,7,13,7,4
14:26:58:573705,26,15,-2,-2,7,13,7,4
14:26:58:574595,26,-3,10,5,-2,2,-6,-9
14:26:58:580472,-6,9,6,3,-2,-1,0,-3
14:26:58:588165,-6,9,6,3,-2,-1,0,-3
14:26:58:595587,5,10,-5,-4,-5,4,1,4
14:26:58:602999,-10,-10,7,-9,5,-16,-7,-5
14:26:58:611228,-10,-10,7,-9,5,-16,-7,-5
14:26:58:611954,1,0,20,4,-9,2,1,1
14:26:58:625528,-34,-9,15,7,-2,4,4,0
14:26:58:633605,-34,-9,15,7,-2,4,4,0
14:26:58:634382,27,9,-12,-4,8,-12,6,10
14:26:58:640506,-4,-9,-15,-12,7,-4,-10,-5
14:26:58:647989,-4,-9,-15,-12,7,-4,-10,-5
14:26:58:655588,-28,-13,-11,-6,-1,-2,-11,-7
14:26:58:663001,16,-1,-2,-9,-12,0,-6,-7
14:26:58:671279,16,-1,-2,-9,-12,0,-6,-7
14:26:58:671936,-13,3,4,3,-6,-10,-5,-5
14:26:58:685514,8,3,12,6,-8,-6,1,0
14:26:58:693791,8,3,12,6,-8,-6,1,0
14:26:58:694528,-8,-21,10,1,9,9,-3,-2
14:26:58:700512,4,4,11,-4,-4,1,7,5
14:26:58:708063,4,4,11,-4,-4,1,7,5
14:26:58:715440,-36,18,-3,-10,-12,-7,-12,-10
14:26:58:723018,21,-2,-2,-1,-6,-14,-10,-5
14:26:58:731203,21,-2,-2,-1,-6,-14,-10,-5
14:26:58:731950,-57,4,-1,8,3,2,-4,-4
14:26:58:745563,-9,11,7,8,13,8,4,-5
14:26:58:753665,-9,11,7,8,13,8,4,-5
14:26:58:754505,4,-7,4,-7,-7,4,15,-2
14:26:58:760517,-5,-11,-15,-16,-3,-9,-1,6
14:26:58:768002,-5,-11,-15,-16,-3,-9,-1,6
14:26:58:775547,5,2,17,1,-1,10,1,4
14:26:58:782953,6,9,-9,5,-9,16,-1,0
14:26:58:791257,6,9,-9,5,-9,16,-1,0
14:26:58:792047,12,-2,-3,-5,-6,-7,-7,-3
14:26:58:805531,-24,-2,-15,-9,-2,0,0,2
14:26:58:813676,-24,-2,-15,-9,-2,0,0,2
14:26:58:814517,5,-4,-6,-8,-4,-15,5,-1
14:26:58:820463,3,12,-8,-2,7,13,0,5
14:26:58:828049,3,12,-8,-2,7,13,0,5
14:26:58:835460,-10,-6,-12,3,1,-4,0,-3
14:26:58:843101,-13,-12,-10,1,-10,10,1,-6
14:26:58:851108,-13,-12,-10,1,-10,10,1,-6
14:26:58:851906,17,6,13,-5,-7,-2,1,2
14:26:58:865480,12,6,1,7,7,0,-6,0
14:26:58:873687,12,6,1,7,7,0,-6,0
14:26:58:874497,19,-1,-17,8,2,-6,-2,-2
14:26:58:880451,1,-14,-2,9,-12,-16,-16,-7
14:26:58:888152,1,-14,-2,9,-12,-16,-16,-7
14:26:58:895538,18,5,18,-2,8,4,-3,0
14:26:58:903012,-20,-5,13,4,-5,-4,13,1
14:26:58:911205,-20,-5,13,4,-5,-4,13,1
14:26:58:911967,10,0,-39,2,4,-3,-7,1
14:26:58:925553,-6,-10,-21,-11,1,-9,1,-1
14:26:58:933653,-6,-10,-21,-11,1,-9,1,-1
14:26:58:934439,-18,-13,26,0,-13,-3,7,-9
14:26:58:940525,15,9,-35,-17,2,7,1,0
14:26:58:948017,15,9,-35,-17,2,7,1,0
14:26:58:955587,-27,-4,-7,1,2,7,1,0
14:26:58:963022,-1,-4,3,-5,-7,-14,-10,-7
14:26:58:971242,-1,-4,3,-5,-7,-14,-10,-7
14:26:58:971989,31,4,-42,-12,22,3,4,4
14:26:58:985548,0,-3,13,-14,-28,-8,-6,5
14:26:58:993775,0,-3,13,-14,-28,-8,-6,5
14:26:58:994535,5,12,17,7,-5,8,-8,-7
14:26:59:413,-3,10,15,10,0,11,12,6
14:26:59:8129,-3,10,15,10,0,11,12,6
14:26:59:15478,-19,0,22,0,-3,5,2,-2
14:26:59:23011,12,-8,32,21,-3,-5,2,-2
14:26:59:31234,12,-8,32,21,-3,-5,2,-2
14:26:59:32007,-14,-3,-14,0,1,-7,3,-5
14:26:59:45444,8,7,4,35,19,-4,-8,-3
14:26:59:53677,8,7,4,35,19,-4,-8,-3
14:26:59:54545,-20,-6,12,-8,-13,-5,-13,1
14:26:59:60510,5,13,6,-14,8,10,1,1
14:26:59:68005,5,13,6,-14,8,10,1,1
14:26:59:75550,-14,-1,-12,0,0,0,4,2
14:26:59:82938,-14,-15,-17,1,26,0,-5,-2
14:26:59:91316,-14,-15,-17,1,26,0,-5,-2
14:26:59:92037,-3,-5,3,-2,-5,-12,-2,-3
14:26:59:105586,18,-13,-39,-16,-9,-9,-21,-13
14:26:59:113714,18,-13,-39,-16,-9,-9,-21,-13
14:26:59:114559,14,-2,19,10,1,2,-7,3
14:26:59:120549,18,4,10,-10,-2,3,6,3
14:26:59:128113,18,4,10,-10,-2,3,6,3
14:26:59:135452,9,-6,-10,-6,0,-1,-1,-1
14:26:59:143029,-53,-11,26,-3,0,0,-8,-14
14:26:59:151132,-53,-11,26,-3,0,0,-8,-14
14:26:59:151924,11,13,13,1,0,-14,1,4
14:26:59:165474,-12,6,3,-4,-5,-7,-10,4
14:26:59:173718,-12,6,3,-4,-5,-7,-10,4
14:26:59:174523,-8,1,-49,-5,7,6,4,-2
14:26:59:180468,6,0,18,15,2,2,11,1
14:26:59:188114,6,0,18,15,2,2,11,1
14:26:59:195564,11,6,4,3,-1,3,6,5
14:26:59:203023,-9,3,6,8,2,1,2,4
14:26:59:211215,-9,3,6,8,2,1,2,4
14:26:59:211949,27,0,22,8,-11,12,0,-5
14:26:59:225509,9,12,23,18,-15,-18,3,-2
14:26:59:233602,9,12,23,18,-15,-18,3,-2
14:26:59:234423,25,-2,-8,5,10,-4,-1,2
14:26:59:240502,31,-5,-22,-7,-2,-2,7,5
14:26:59:247989,31,-5,-22,-7,-2,-2,7,5
14:26:59:255498,-2,3,21,-1,5,5,0,1
14:26:59:262964,28,7,-12,-6,0,-3,7,2
14:26:59:270525,28,7,-12,-6,0,-3,7,2
14:26:59:277934,-14,-30,-34,-15,-20,-2,0,-4
14:26:59:285435,-24,-5,-6,-16,1,2,5,-4
14:26:59:293746,-24,-5,-6,-16,1,2,5,-4
14:26:59:294512,-29,-7,24,-12,-1,7,3,0
14:26:59:308807,7,-5,-17,9,-2,1,-3,7
14:26:59:309543,7,-5,-17,9,-2,1,-3,7
14:26:59:315420,-41,-3,17,-3,-9,-8,0,2
14:26:59:323044,-14,-2,-36,-7,3,-3,-13,-2
14:26:59:330565,-14,-2,-36,-7,3,-3,-13,-2
14:26:59:338033,38,4,-34,4,-5,4,-3,8
14:26:59:345484,-28,4,37,-3,4,7,4,-3
14:26:59:353725,-28,4,37,-3,4,7,4,-3
14:26:59:354528,-12,9,-4,-7,-3,-15,5,-4
14:26:59:368695,1,-3,10,-15,9,9,8,-2
14:26:59:369484,1,-3,10,-15,9,9,8,-2
14:26:59:375479,31,3,-14,1,5,-4,-5,0
14:26:59:382922,13,-6,17,2,-6,11,2,-2
14:26:59:390583,13,-6,17,2,-6,11,2,-2
14:26:59:398039,5,-23,-28,-10,-5,0,-12,2
14:26:59:405538,0,-13,-23,-2,-13,-4,-12,-9
14:26:59:413667,0,-13,-23,-2,-13,-4,-12,-9
14:26:59:414467,14,10,15,-4,-13,-4,0,-3
14:26:59:428736,-4,-3,-21,-10,-5,6,-18,4
14:26:59:429520,-4,-3,-21,-10,-5,6,-18,4
14:26:59:435444,-25,5,22,-12,8,2,-2,-4
14:26:59:443039,-8,-3,-8,-3,-7,-20,-1,-6
14:26:59:450505,-8,-3,-8,-3,-7,-20,-1,-6
14:26:59:458039,12,9,5,7,0,-2,-7,4
14:26:59:465546,22,4,39,10,8,-4,-3,-2
14:26:59:473698,22,4,39,10,8,-4,-3,-2
14:26:59:474568,-17,-9,14,-3,-3,-4,6,-4
14:26:59:488747,-21,-6,5,-1,-6,-7,2,1
14:26:59:489507,-21,-6,5,-1,-6,-7,2,1
14:26:59:495537,-13,-15,-31,7,7,-15,-2,-7
14:26:59:502981,-10,0,-29,-14,1,9,14,0
14:26:59:510626,-10,0,-29,-14,1,9,14,0
14:26:59:517971,1,6,-3,5,0,1,-9,-2
14:26:59:525481,-8,0,-14,-12,-5,-4,3,0
14:26:59:533666,-8,0,-14,-12,-5,-4,3,0
14:26:59:534521,2,1,20,-2,-4,-13,-12,-5
14:26:59:548637,2,10,-5,6,-6,0,-7,-5
14:26:59:549503,2,10,-5,6,-6,0,-7,-5
14:26:59:555568,-15,-12,18,22,-10,9,6,-1
14:26:59:562956,4,-17,-29,6,0,-17,-2,0
14:26:59:570524,4,-17,-29,6,0,-17,-2,0
14:26:59:577953,3,3,-17,-9,-4,-3,15,-4
14:26:59:585417,-3,-12,-30,-1,4,8,13,1
14:26:59:593786,-3,-12,-30,-1,4,8,13,1
14:26:59:594537,-17,5,13,3,6,1,0,-3
14:26:59:608739,-13,-1,-11,-6,-6,-5,3,-6
14:26:59:609494,-13,-1,-11,-6,-6,-5,3,-6
14:26:59:615418,-13,7,-3,-9,3,29,1,7
14:26:59:623036,-33,3,39,13,15,13,-2,-4
14:26:59:630552,-33,3,39,13,15,13,-2,-4
14:26:59:638086,2,11,-4,-9,-5,-4,-8,-4
14:26:59:645483,35,-5,16,-10,2,2,1,2
14:26:59:653725,35,-5,16,-10,2,2,1,2
14:26:59:654512,14,-12,-25,-2,-11,-11,-7,1
14:26:59:668648,26,2,-23,-11,-8,-12,-8,0
14:26:59:669489,26,2,-23,-11,-8,-12,-8,0
14:26:59:675548,8,5,16,-3,6,-4,-4,4
14:26:59:682940,-5,-2,15,-1,-20,-11,-8,-2
14:26:59:690555,-5,-2,15,-1,-20,-11,-8,-2
14:26:59:698014,31,13,-7,-6,2,-6,-13,5
14:26:59:705586,-51,2,-4,-4,-1,-3,-14,6
14:26:59:713653,-51,2,-4,-4,-1,-3,-14,6
14:26:59:714460,-18,-6,14,-3,-10,-16,10,-2
14:26:59:728651,-4,-12,-11,2,5,6,4,3
14:26:59:729447,-4,-12,-11,2,5,6,4,3
14:26:59:735461,-24,-5,-6,3,8,-1,2,-6
14:26:59:743079,26,11,3,17,7,8,8,-1
14:26:59:750532,26,11,3,17,7,8,8,-1
14:26:59:758085,52,4,15,0,-5,-7,2,1
14:26:59:765544,17,-2,-8,-12,-14,7,-9,-3
14:26:59:773665,17,-2,-8,-12,-14,7,-9,-3
14:26:59:774510,4,-4,11,4,7,2,0,-1
14:26:59:788739,7,5,24,-8,-3,1,-7,-1
14:26:59:789536,7,5,24,-8,-3,1,-7,-1
14:26:59:795565,-4,2,-10,6,-3,-5,1,-2
14:26:59:802983,-6,5,-26,8,8,-7,5,5
14:26:59:810601,-6,5,-26,8,8,-7,5,5
14:26:59:817935,-37,-2,3,7,8,6,-1,-2
14:26:59:825547,16,8,2,-1,-4,-11,2,2
14:26:59:833639,16,8,2,-1,-4,-11,2,2
14:26:59:834525,-8,-7,3,-6,-12,0,1,-5
14:26:59:848673,6,-16,14,-5,-1,5,-2,-3
14:26:59:849526,6,-16,14,-5,-1,5,-2,-3
14:26:59:855527,20,4,7,0,3,23,0,0
14:26:59:862942,13,2,-3,2,-4,-8,-10,-5
14:26:59:870580,13,2,-3,2,-4,-8,-10,-5
14:26:59:877987,15,1,-14,16,-5,-8,10,3
14:26:59:885441,-37,-14,-25,-2,4,12,8,-3
14:26:59:893773,-37,-14,-25,-2,4,12,8,-3
14:26:59:894543,16,-2,13,0,7,6,1,0
14:26:59:908743,22,6,7,-4,-14,-12,3,2
14:26:59:909554,22,6,7,-4,-14,-12,3,2
14:26:59:915428,4,5,17,-1,12,-4,8,4
14:26:59:922977,5,-2,2,4,-6,-2,-26,-1
14:26:59:930546,5,-2,2,4,-6,-2,-26,-1
14:26:59:938075,0,-6,-22,1,2,-4,-6,1
14:26:59:945472,-2,7,-24,0,6,13,7,4
14:26:59:953716,-2,7,-24,0,6,13,7,4
14:26:59:954542,-17,-7,17,-20,5,-3,-6,0
14:26:59:968645,3,7,32,8,-9,-15,-5,0
14:26:59:969521,3,7,32,8,-9,-15,-5,0
14:26:59:975610,-12,-1,11,-3,11,12,8,-6
14:26:59:982954,22,3,9,-21,4,-21,20,-7
14:26:59:990554,22,3,9,-21,4,-21,20,-7
14:26:59:997991,-4,-4,-10,-7,-11,-10,-7,-8
14:27:00:5511,-28,-13,-40,2,14,2,2,-9
14:27:00:13655,-28,-13,-40,2,14,2,2,-9
14:27:00:14445,-1,-16,-26,-8,-19,2,-10,1
14:27:00:28637,-1,-6,8,-8,13,-5,3,1
14:27:00:29444,-1,-6,8,-8,13,-5,3,1
14:27:00:35457,10,6,-15,8,0,-1,-8,1
14:27:00:43035,5,-3,-2,5,-9,-7,-6,1
14:27:00:50560,5,-3,-2,5,-9,-7,-6,1
14:27:00:58070,5,-1,-2,-9,-11,-4,13,2
14:27:00:65549,-13,0,14,8,7,13,16,1
14:27:00:73675,-13,0,14,8,7,13,16,1
14:27:00:74463,5,3,9,8,-2,-5,-16,1
14:27:00:88754,-17,-6,-19,-7,-5,-7,-10,-6
14:27:00:89527,-17,-6,-19,-7,-5,-7,-10,-6
14:27:00:95424,-20,4,2,2,-1,-3,-5,-7
14:27:00:103017,0,6,15,5,-2,25,5,6
14:27:00:110612,0,6,15,5,-2,25,5,6
14:27:00:117924,-14,-5,-19,0,-2,-6,-5,1
14:27:00:125522,5,12,3,12,-5,4,-11,-3
14:27:00:133633,5,12,3,12,-5,4,-11,-3
14:27:00:134503,-2,-2,-13,8,9,-17,-4,3
14:27:00:148681,-8,-6,-32,-3,-7,-4,6,-7
14:27:00:149502,-8,-6,-32,-3,-7,-4,6,-7
14:27:00:155545,2,-7,-19,-2,7,10,1,-4
14:27:00:162947,24,-7,19,-1,1,-10,-6,0
14:27:00:170566,24,-7,19,-1,1,-10,-6,0
14:27:00:177932,3,-12,-15,-19,0,0,5,-2
14:27:00:185441,2,4,27,0,-3,8,-3,5
14:27:00:193793,2,4,27,0,-3,8,-3,5
14:27:00:194516,-36,-5,-13,-2,-11,2,-2,-5
14:27:00:208750,0,0,-54,-7,-1,5,-3,0
14:27:00:209501,0,0,-54,-7,-1,5,-3,0
14:27:00:215441,15,12,10,6,14,12,6,-1
14:27:00:231156,-6,7,14,6,9,-2,-14,0
14:27:00:231957,-6,7,14,6,9,-2,-14,0
14:27:00:238099,-29,-5,0,-3,-9,6,4,4
14:27:00:245456,-2,-8,12,-1,-17,-15,-7,0
14:27:00:252980,-2,-8,12,-1,-17,-15,-7,0
14:27:00:260539,-14,3,12,11,11,-7,-5,0
14:27:00:268685,2,1,9,3,14,2,-5,2
14:27:00:269543,2,1,9,3,14,2,-5,2
14:27:00:275581,5,6,-10,-1,1,7,-14,-10
14:27:00:291278,0,-25,-12,-4,1,-4,13,1
14:27:00:292026,0,-25,-12,-4,1,-4,13,1
14:27:00:297954,15,13,14,4,4,6,-3,5
14:27:00:305543,14,9,19,0,-7,9,-7,1
14:27:00:313067,14,9,19,0,-7,9,-7,1
14:27:00:320520,-29,-9,11,-3,21,-10,15,-3
14:27:00:328654,-1,-5,-21,-8,-9,-2,15,7
14:27:00:329483,-1,-5,-21,-8,-9,-2,15,7
14:27:00:335483,1,3,44,-14,-22,-10,-11,-9
14:27:00:351173,-20,-16,-6,-4,-1,-8,2,-6
14:27:00:351953,-20,-16,-6,-4,-1,-8,2,-6
14:27:00:358043,6,-10,18,7,-4,-3,-14,-6
14:27:00:365494,7,6,25,9,-8,11,0,-3
14:27:00:373092,7,6,25,9,-8,11,0,-3
14:27:00:380509,-4,-6,2,-14,2,1,2,2
14:27:00:388799,-20,-1,12,9,6,-4,-7,-5
14:27:00:389571,-20,-1,12,9,6,-4,-7,-5
14:27:00:395472,36,6,9,15,-8,11,7,-1
14:27:00:411167,0,16,-7,-12,-7,-12,-6,-5
14:27:00:411968,0,16,-7,-12,-7,-12,-6,-5
14:27:00:417995,18,-2,-7,9,8,1,6,4
14:27:00:425553,-35,-4,23,2,-4,6,2,-6
14:27:00:432954,-35,-4,23,2,-4,6,2,-6
14:27:00:440427,12,-3,-4,11,1,-5,2,7
14:27:00:448678,31,3,-23,-13,-1,6,0,6
14:27:00:449503,31,3,-23,-13,-1,6,0,6
14:27:00:455548,-13,5,-8,-3,-10,-3,-5,0
14:27:00:471330,0,4,15,-6,-5,-9,-7,-5
14:27:00:471971,0,4,15,-6,-5,-9,-7,-5
14:27:00:477964,19,0,-13,-1,-7,-11,-4,-1
14:27:00:485429,-28,-1,-11,-3,18,-1,4,4
14:27:00:493080,-28,-1,-11,-3,18,-1,4,4
14:27:00:500417,-13,-6,-13,-13,-2,4,5,-4
14:27:00:516809,-1,-9,28,-2,-4,-19,-28,-1
14:27:00:517583,-1,-9,28,-2,-4,-19,-28,-1
14:27:00:518421,2,-6,-20,-9,-2,4,7,6
14:27:00:531080,10,-18,4,20,-1,-1,8,-7
14:27:00:531901,10,-18,4,20,-1,-1,8,-7
14:27:00:538154,-7,-16,-18,-5,0,6,1,-1
14:27:00:545458,-1,-4,-35,-12,-2,3,2,3
14:27:00:553010,-1,-4,-35,-12,-2,3,2,3
14:27:00:560518,-16,4,3,-3,-4,-1,-10,-11
14:27:00:568638,-8,5,17,-3,-1,6,26,-1
14:27:00:569572,-8,5,17,-3,-1,6,26,-1
14:27:00:575515,-2,8,45,8,-2,-3,-6,-7
14:27:00:591189,19,14,-25,-2,4,14,9,-5
14:27:00:592001,19,14,-25,-2,4,14,9,-5
14:27:00:597959,13,5,-18,3,4,4,7,3
14:27:00:605558,-10,6,2,-8,-18,-22,-7,-6
14:27:00:612986,-10,6,2,-8,-18,-22,-7,-6
14:27:00:620490,-21,-11,-31,-7,13,5,-5,-5
14:27:00:628710,-3,6,12,2,-6,2,-2,-3
14:27:00:629594,-3,6,12,2,-6,2,-2,-3
14:27:00:635494,-16,-1,20,-9,-7,-9,5,0
14:27:00:659368,-29,-8,-3,0,9,-1,-22,-2
14:27:00:660092,-29,-8,-3,0,9,-1,-22,-2
14:27:00:660912,-3,9,5,5,-6,-4,-9,1
14:27:00:665471,-2,1,-17,2,3,4,-1,-3
14:27:00:673036,-2,1,-17,2,3,4,-1,-3
14:27:00:680454,-2,0,34,-11,-12,-14,-8,-2
14:27:00:688770,-1,10,8,-1,3,-10,-1,-1
14:27:00:689533,-1,10,8,-1,3,-10,-1,-1
14:27:00:695447,22,8,0,3,9,7,2,6
14:27:00:711189,18,-1,12,5,6,7,12,2
14:27:00:711985,18,-1,12,5,6,7,12,2
14:27:00:717914,-1,12,-12,9,3,-1,-8,-1
14:27:00:733632,-1,12,-12,9,3,-1,-8,-1
14:27:00:734429,-13,-3,-18,1,-16,4,-16,9
14:27:00:740437,13,-2,-16,-12,-8,1,-5,2
14:27:00:748682,13,-2,-16,-12,-8,1,-5,2
14:27:00:749543,-9,6,-8,4,1,3,-3,-8
14:27:00:755513,-30,-14,-15,6,-7,-21,-6,-9
14:27:00:771298,-30,-14,-15,6,-7,-21,-6,-9
14:27:00:771950,20,1,32,12,-16,-4,-1,4
14:27:00:777953,-7,-21,-4,5,11,7,-8,-4
14:27:00:793756,-7,-21,-4,5,11,7,-8,-4
14:27:00:794464,-1,-3,-5,-13,-4,1,-4,-5
14:27:00:800441,36,4,2,5,-4,-9,11,6
14:27:00:808718,36,4,2,5,-4,-9,11,6
14:27:00:809422,2,-9,-28,-2,4,3,0,-2
14:27:00:815389,-16,-15,-27,-16,-6,3,5,1
14:27:00:831182,-16,-15,-27,-16,-6,3,5,1
14:27:00:831952,-1,-11,1,-4,12,-7,-2,0
14:27:00:838185,0,3,-5,11,-1,-1,2,0
14:27:00:853645,0,3,-5,11,-1,-1,2,0
14:27:00:854404,8,-6,-40,-14,-2,1,6,3
14:27:00:860540,2,6,-11,-7,-14,-3,3,-5
14:27:00:868680,2,6,-11,-7,-14,-3,3,-5
14:27:00:869437,-16,-11,23,18,10,2,3,-1
14:27:00:875609,2,-15,-10,-10,-3,-10,-2,-4
14:27:00:891243,2,-15,-10,-10,-3,-10,-2,-4
14:27:00:891939,1,-1,18,0,-3,2,-3,1
14:27:00:898021,-4,2,16,-6,-4,-9,-4,-2
14:27:00:913730,-4,2,16,-6,-4,-9,-4,-2
14:27:00:914541,12,-8,8,4,7,4,5,-3
14:27:00:920489,5,8,13,-6,-7,-11,-18,-9
14:27:00:928666,5,8,13,-6,-7,-11,-18,-9
14:27:00:929457,3,16,-20,-8,0,-3,2,-1
14:27:00:935460,6,-1,-18,2,9,13,8,-1
14:27:00:951197,6,-1,-18,2,9,13,8,-1
14:27:00:951957,5,4,-1,-2,-14,-17,-19,-1
14:27:00:958031,7,-14,-11,-10,2,8,-1,-3
14:27:00:973698,7,-14,-11,-10,2,8,-1,-3
14:27:00:974558,-9,6,-9,3,-2,5,6,-4
14:27:00:980459,3,8,-18,-13,-5,-6,-2,2
14:27:00:988741,3,8,-18,-13,-5,-6,-2,2
14:27:00:989412,-17,5,15,12,1,-11,1,5
14:27:00:995459,-26,3,12,-1,-1,0,-3,-1
14:27:01:11252,-26,3,12,-1,-1,0,-3,-1
14:27:01:11990,19,7,38,0,-1,7,2,1
14:27:01:17937,-21,-1,20,-4,-5,-5,0,-1
14:27:01:33668,-21,-1,20,-4,-5,-5,0,-1
14:27:01:34532,-7,11,8,-5,0,-4,0,0
14:27:01:40436,11,-6,-23,-10,2,-7,-4,-1
14:27:01:48703,11,-6,-23,-10,2,-7,-4,-1
14:27:01:49496,-3,10,-3,9,2,2,10,2
14:27:01:62988,-18,-12,-5,4,-8,4,-1,-1
14:27:01:71318,-18,-12,-5,4,-8,4,-1,-1
14:27:01:71988,14,-2,-32,13,6,6,-2,-4
14:27:01:78018,1,20,19,37,19,2,10,-5
14:27:01:93772,1,20,19,37,19,2,10,-5
14:27:01:94522,-23,-9,0,-14,-11,7,5,-2
14:27:01:100412,7,-16,-1,-6,-7,5,8,6
14:27:01:108751,7,-16,-1,-6,-7,5,8,6
14:27:01:109535,-11,-13,4,-9,-3,-4,-4,-2
14:27:01:115424,12,-8,-15,-6,-5,1,8,1
14:27:01:131202,12,-8,-15,-6,-5,1,8,1
14:27:01:131963,13,-22,-9,8,16,0,-2,-8
14:27:01:138140,-7,2,-5,2,-4,1,-6,-5
14:27:01:153692,-7,2,-5,2,-4,1,-6,-5
14:27:01:154552,20,0,5,-22,-16,-9,-8,2
14:27:01:160510,-27,-3,-24,3,-5,8,-2,-4
14:27:01:168723,-27,-3,-24,3,-5,8,-2,-4
14:27:01:169533,-43,-7,-27,-20,-4,-6,-7,-6
14:27:01:182894,13,6,44,1,-2,7,-6,4
14:27:01:191260,13,6,44,1,-2,7,-6,4
14:27:01:192006,22,-11,-33,-14,-6,3,2,4
14:27:01:197939,-12,-2,16,-7,-11,-13,1,-3
14:27:01:213671,-12,-2,16,-7,-11,-13,1,-3
14:27:01:214533,13,7,26,2,-7,-13,-2,-5
14:27:01:220415,17,5,14,18,4,10,-4,4
14:27:01:228696,17,5,14,18,4,10,-4,4
14:27:01:229538,3,5,19,-2,1,-4,-23,-3
14:27:01:243111,7,6,5,13,11,-11,-3,2
14:27:01:251137,7,6,5,13,11,-11,-3,2
14:27:01:251950,16,5,-5,15,-7,1,-5,2
14:27:01:257965,-30,-14,-54,-31,-7,-7,-12,-6
14:27:01:265557,-30,-14,-54,-31,-7,-7,-12,-6
14:27:01:272984,-25,-1,4,-8,2,8,10,0
14:27:01:280487,-19,-1,-13,0,-3,-1,4,-3
14:27:01:288781,-19,-1,-13,0,-3,-1,4,-3
14:27:01:289535,7,-3,-2,1,1,0,3,3
14:27:01:302930,15,7,17,-1,-4,-2,-6,-4
14:27:01:311240,15,7,17,-1,-4,-2,-6,-4
14:27:01:311959,-10,-3,12,1,1,-6,-18,-3
14:27:01:317972,17,0,-1,-19,0,4,10,6
14:27:01:325596,17,0,-1,-19,0,4,10,6
14:27:01:332999,5,-10,-7,-2,-7,-19,3,0
14:27:01:340468,22,-5,26,-1,-1,-5,-2,2
14:27:01:348734,22,-5,26,-1,-1,-5,-2,2
14:27:01:349542,-26,-6,-4,6,-3,0,7,2
14:27:01:362994,-9,-4,20,7,-5,-9,-7,-2
14:27:01:371363,-9,-4,20,7,-5,-9,-7,-2
14:27:01:371954,1,0,-17,5,4,4,-3,-3
14:27:01:378018,12,4,-23,-1,11,20,0,3
14:27:01:385531,12,4,-23,-1,11,20,0,3
14:27:01:393082,36,12,14,1,-11,0,13,-6
14:27:01:400446,19,11,3,1,-9,-4,7,1
14:27:01:408750,19,11,3,1,-9,-4,7,1
14:27:01:409492,-1,1,-2,-16,-15,-20,4,2
14:27:01:422995,-16,-4,0,1,5,-6,0,-2
14:27:01:431150,-16,-4,0,1,5,-6,0,-2
14:27:01:431926,-15,-5,-38,-3,-3,9,-1,-3
14:27:01:438086,-20,-4,-7,16,11,-1,-3,-5
14:27:01:445472,-20,-4,-7,16,11,-1,-3,-5
14:27:01:452985,-32,-6,22,-2,6,5,11,-1
14:27:01:460586,1,-6,-21,-16,-17,-4,5,-3
14:27:01:468642,1,-6,-21,-16,-17,-4,5,-3
14:27:01:469417,6,-1,3,-9,-9,-14,-7,4
14:27:01:482992,-20,-7,12,2,3,-1,-16,-5
14:27:01:491242,-20,-7,12,2,3,-1,-16,-5
14:27:01:491923,8,-1,1,3,1,2,-7,-4
14:27:01:497952,16,-11,-13,5,-10,-5,-5,4
14:27:01:505680,16,-11,-13,5,-10,-5,-5,4
14:27:01:512955,1,-6,-27,9,7,11,-1,0
14:27:01:520436,-3,20,-5,-1,5,12,0,3
14:27:01:528713,-3,20,-5,-1,5,12,0,3
14:27:01:529519,-8,13,8,5,10,-4,8,1
14:27:01:543105,4,-2,-6,14,9,11,6,-1
14:27:01:551137,4,-2,-6,14,9,11,6,-1
14:27:01:551939,10,-10,2,-1,0,8,7,3
14:27:01:558011,-16,1,9,-7,-1,-12,-1,-6
14:27:01:565560,-16,1,9,-7,-1,-12,-1,-6
14:27:01:573060,21,-7,8,11,5,5,5,-3
14:27:01:580493,4,-4,-15,-19,1,1,3,3
14:27:01:588812,4,-4,-15,-19,1,1,3,3
14:27:01:589531,-31,-6,-8,-5,0,-4,-19,-5
14:27:01:602946,8,-1,5,4,3,-9,-3,-3
14:27:01:611252,8,-1,5,4,3,-9,-3,-3
14:27:01:611996,-4,9,12,-3,1,-7,-4,-3
14:27:01:617910,8,-4,5,-5,-7,0,-5,-2
14:27:01:625707,8,-4,5,-5,-7,0,-5,-2
14:27:01:632944,13,-6,-32,-13,-4,13,9,1
14:27:01:640450,-3,4,40,10,0,-7,7,1
14:27:01:648651,-3,4,40,10,0,-7,7,1
14:27:01:649401,11,12,14,-3,0,-9,-20,-2
14:27:01:662994,9,16,-22,-6,0,9,11,9
14:27:01:671303,9,16,-22,-6,0,9,11,9
14:27:01:671986,-14,1,-6,5,10,8,4,-2
14:27:01:677981,0,2,-12,0,1,1,14,1
14:27:01:685479,0,2,-12,0,1,1,14,1
14:27:01:693059,-12,21,17,1,-1,1,-7,-2
14:27:01:700472,6,-7,-29,-13,-5,2,-3,-3
14:27:01:708794,6,-7,-29,-13,-5,2,-3,-3
14:27:01:709525,-2,-17,-8,5,-2,-2,0,-10
14:27:01:723017,-3,-3,7,-6,-3,-13,-8,1
14:27:01:731183,-3,-3,7,-6,-3,-13,-8,1
14:27:01:731990,5,-11,-12,1,2,-4,-6,0
14:27:01:738133,-16,13,-4,1,-10,-5,-11,-7
14:27:01:745538,-16,13,-4,1,-10,-5,-11,-7
14:27:01:752948,1,8,16,-7,-3,6,12,2
14:27:01:760623,0,-7,-18,1,2,-3,-8,-3
14:27:01:768684,0,-7,-18,1,2,-3,-8,-3
14:27:01:769559,7,-34,8,5,-8,0,9,-6
14:27:01:783003,-6,-1,3,1,5,13,-18,-5
14:27:01:791261,-6,-1,3,1,5,13,-18,-5
14:27:01:791935,3,-14,-1,-10,-13,-6,-2,6
14:27:01:797958,12,-8,-3,27,8,0,7,-1
14:27:01:805711,12,-8,-3,27,8,0,7,-1
14:27:01:812989,-27,3,-23,-1,12,8,-12,-4
14:27:01:820464,10,-3,-26,-9,-8,10,-2,2
14:27:01:828730,10,-3,-26,-9,-8,10,-2,2
14:27:01:829585,6,4,3,-2,7,-2,-7,0
14:27:01:843068,-7,-14,0,-12,-10,-7,-10,-1
14:27:01:851174,-7,-14,0,-12,-10,-7,-10,-1
14:27:01:851933,8,13,2,-3,-7,2,-9,2
14:27:01:858036,9,9,36,8,5,5,25,8
14:27:01:865606,9,9,36,8,5,5,25,8
14:27:01:873028,26,5,8,2,-10,-3,7,2
14:27:01:880510,-24,-9,-16,2,1,13,7,-3
14:27:01:888799,-24,-9,-16,2,1,13,7,-3
14:27:01:889525,-12,-1,0,9,8,1,6,-1
14:27:01:902954,14,3,7,5,9,-5,-2,4
14:27:01:911274,14,3,7,5,9,-5,-2,4
14:27:01:912031,-8,0,-12,-2,-2,-15,6,-2
14:27:01:917975,23,-13,45,17,5,-1,-15,-4
14:27:01:933686,23,-13,45,17,5,-1,-15,-4
14:27:01:934518,6,5,13,4,-4,4,15,-1
14:27:01:940503,-3,7,-3,1,8,-9,0,-5
14:27:01:948703,-3,7,-3,1,8,-9,0,-5
14:27:01:949505,3,1,4,3,-11,-8,-5,0
14:27:01:962988,8,2,-5,-5,-9,-9,-22,-3
14:27:01:971371,8,2,-5,-5,-9,-9,-22,-3
14:27:01:971972,-2,-6,-15,-9,-9,-18,1,-2
14:27:01:978043,-16,-3,-29,-12,1,-4,6,-5
14:27:01:985563,-16,-3,-29,-12,1,-4,6,-5
14:27:01:993054,6,-1,-6,-3,-1,2,-1,-1
14:27:02:456,-15,1,-14,8,0,-3,0,-6
14:27:02:8757,-15,1,-14,8,0,-3,0,-6
14:27:02:9534,9,24,-5,-4,-2,-1,-8,1
14:27:02:22971,-10,4,3,-7,-9,-1,-3,-1
14:27:02:31205,-10,4,3,-7,-9,-1,-3,-1
14:27:02:32007,7,-2,-12,-2,16,16,-8,1
14:27:02:38061,-8,-4,14,-15,-4,1,9,1
14:27:02:45464,-8,-4,14,-15,-4,1,9,1
14:27:02:53016,-3,5,57,5,-2,-1,3,-4
14:27:02:60549,7,-11,10,-7,-10,-23,-20,-3
14:27:02:68663,7,-11,10,-7,-10,-23,-20,-3
14:27:02:69402,-16,-3,-4,-20,-1,4,-3,2
14:27:02:82947,-9,-12,21,-9,-11,-2,7,-4
14:27:02:91201,-9,-12,21,-9,-11,-2,7,-4
14:27:02:91964,-4,0,-27,-8,-5,-9,0,3
14:27:02:106226,-27,0,-17,-10,3,-8,-1,-2
14:27:02:106983,-27,0,-17,-10,3,-8,-1,-2
14:27:02:112972,-12,-23,-28,-4,-2,3,6,-1
14:27:02:128686,14,1,-30,-3,2,9,13,6
14:27:02:129551,14,1,-30,-3,2,9,13,6
14:27:02:135435,2,7,21,12,0,7,-2,-3
14:27:02:143051,30,9,-5,-22,-8,3,-1,-2
14:27:02:151167,30,9,-5,-22,-8,3,-1,-2
14:27:02:151975,-1,-3,3,0,-8,6,-3,-6
14:27:02:166168,8,-4,16,17,7,15,-5,1
14:27:02:166949,8,-4,16,17,7,15,-5,1
14:27:02:172992,9,-7,8,-1,-4,-9,5,-3
14:27:02:180519,-7,0,0,3,1,-12,-8,0
14:27:02:188166,-7,0,0,3,1,-12,-8,0
14:27:02:195428,-9,1,12,0,2,-5,0,3
14:27:02:202922,-2,-2,-1,-15,-7,4,12,1
14:27:02:211216,-2,-2,-1,-15,-7,4,12,1
14:27:02:211975,-28,-1,17,2,8,-18,-4,-10
14:27:02:226289,-6,10,7,6,-6,-8,-1,4
14:27:02:226978,-6,10,7,6,-6,-8,-1,4
14:27:02:232945,-9,2,-27,4,6,14,-7,3
14:27:02:240445,1,-10,2,6,-4,-2,9,-4
14:27:02:248011,1,-10,2,6,-4,-2,9,-4
14:27:02:255588,8,-6,-24,-17,-5,5,12,6
14:27:02:263028,3,7,5,8,8,4,3,1
14:27:02:271265,3,7,5,8,8,4,3,1
14:27:02:271939,-17,-9,-10,3,0,16,9,-11
14:27:02:285894,-15,16,3,-2,-7,-3,-4,-4
14:27:02:293740,-15,16,3,-2,-7,-3,-4,-4
14:27:02:294441,4,7,5,12,20,1,-2,0
14:27:02:300470,-5,-4,-3,5,-3,7,-4,-10
14:27:02:308072,-5,-4,-3,5,-3,7,-4,-10
14:27:02:323601,-4,-5,25,-8,-16,1,-1,-3
14:27:02:324413,-3,0,-14,11,5,-3,1,-2
14:27:02:331163,-3,0,-14,11,5,-3,1,-2
14:27:02:331930,-2,-3,-8,-2,-3,-6,-4,-3
14:27:02:346189,-9,-7,-3,-4,2,-7,-4,0
14:27:02:346975,-9,-7,-3,-4,2,-7,-4,0
14:27:02:352962,4,-6,-18,11,9,0,-15,5
14:27:02:360573,-1,7,4,-10,-4,-2,-4,-1
14:27:02:368003,-1,7,4,-10,-4,-2,-4,-1
14:27:02:375553,8,12,4,-3,-9,-1,-5,3
14:27:02:382961,-7,-7,-12,-14,2,6,0,-3
14:27:02:391200,-7,-7,-12,-14,2,6,0,-3
14:27:02:392000,-1,3,18,7,0,-14,-7,-3
14:27:02:406211,1,1,13,6,-7,3,6,4
14:27:02:406903,1,1,13,6,-7,3,6,4
14:27:02:413018,-9,-3,4,-7,-14,-17,-3,-5
14:27:02:420476,-6,-23,-10,-4,-2,-1,-5,-4
14:27:02:428087,-6,-23,-10,-4,-2,-1,-5,-4
14:27:02:435414,4,-11,-16,-7,1,-5,-4,-2
14:27:02:443029,-5,-10,-5,5,2,5,-3,-3
14:27:02:451195,-5,-10,-5,5,2,5,-3,-3
14:27:02:451934,-2,1,-4,-5,-3,6,6,3
14:27:02:466162,12,11,-5,1,3,6,5,1
14:27:02:466942,12,11,-5,1,3,6,5,1
14:27:02:473048,21,4,-24,2,0,6,-15,2
14:27:02:480472,-25,-13,-5,-11,-2,-10,-7,-4
14:27:02:488139,-25,-13,-5,-11,-2,-10,-7,-4
14:27:02:495486,-24,-8,-17,-20,0,3,3,-1
14:27:02:503006,14,-10,-5,3,-3,-2,-11,6
14:27:02:511274,14,-10,-5,3,-3,-2,-11,6
14:27:02:511944,-6,-19,-16,-1,9,-1,-7,-3
14:27:02:526196,-4,0,2,8,3,-7,3,-2
14:27:02:527006,-4,0,2,8,3,-7,3,-2
14:27:02:532927,6,15,29,8,-1,-3,2,1
14:27:02:540502,16,-1,5,-11,-6,-9,-1,-4
14:27:02:548055,16,-1,5,-11,-6,-9,-1,-4
14:27:02:555605,31,10,12,19,12,20,13,0
14:27:02:562980,12,9,21,-4,-9,-18,-9,0
14:27:02:571260,12,9,21,-4,-9,-18,-9,0
14:27:02:571935,-6,10,35,11,-6,-4,-9,-2
14:27:02:586210,0,5,-3,-8,-7,-2,-4,0
14:27:02:586974,0,5,-3,-8,-7,-2,-4,0
14:27:02:601108,14,0,3,-4,6,3,-7,0
14:27:02:601865,-8,11,3,-1,1,-5,-1,0
14:27:02:608072,-8,11,3,-1,1,-5,-1,0
14:27:02:615499,-10,5,-10,-10,-10,-1,-6,-3
14:27:02:623124,-3,-1,2,1,9,10,12,3
14:27:02:631243,-3,-1,2,1,9,10,12,3
14:27:02:632024,-34,-16,-23,-10,-16,-12,-11,-8
14:27:02:646201,-31,5,6,4,0,1,-11,-4
14:27:02:646966,-31,5,6,4,0,1,-11,-4
14:27:02:652957,2,-4,-25,-5,-3,-1,5,3
14:27:02:660504,-28,-24,6,3,-3,11,-7,-14
14:27:02:668039,-28,-24,6,3,-3,11,-7,-14
14:27:02:675581,-5,-5,20,2,-3,-8,6,1
14:27:02:682946,25,-14,0,6,1,-1,11,1
14:27:02:691227,25,-14,0,6,1,-1,11,1
14:27:02:692007,10,-5,-13,-7,-7,-13,-6,0
14:27:02:706206,8,-1,1,9,3,9,9,4
14:27:02:706925,8,-1,1,9,3,9,9,4
14:27:02:712991,-12,-6,-2,1,-2,-15,0,-3
14:27:02:720443,8,9,-6,3,1,-10,-8,2
14:27:02:728007,8,9,-6,3,1,-10,-8,2
14:27:02:735478,-4,-9,4,-2,-18,3,-9,-6
14:27:02:743049,1,-15,4,0,-3,13,8,2
14:27:02:751141,1,-15,4,0,-3,13,8,2
14:27:02:751944,2,-29,-21,-7,10,4,4,-4
14:27:02:766142,-7,10,-7,-5,1,5,-4,0
14:27:02:766934,-7,10,-7,-5,1,5,-4,0
14:27:02:773007,14,6,6,10,6,6,10,4
14:27:02:780503,16,9,-12,3,5,7,-1,3
14:27:02:788177,16,9,-12,3,5,7,-1,3
14:27:02:795435,-34,5,19,-4,-2,-3,3,-4
14:27:02:802955,1,-4,4,-1,-3,-7,-5,2
14:27:02:811220,1,-4,4,-1,-3,-7,-5,2
14:27:02:811985,1,19,-37,2,1,-4,-9,3
14:27:02:826213,4,8,2,6,5,12,-6,-2
14:27:02:826983,4,8,2,6,5,12,-6,-2
14:27:02:832909,10,3,5,-11,3,-4,-3,-1
14:27:02:840486,-6,-3,-21,-10,-6,-21,1,3
14:27:02:848041,-6,-3,-21,-10,-6,-21,1,3
14:27:02:855572,19,-3,-1,3,0,3,-1,2
14:27:02:862933,13,2,4,5,-8,6,0,0
14:27:02:871758,13,2,4,5,-8,6,0,0
14:27:02:877986,-18,7,7,4,-4,1,6,0
14:27:02:886101,7,6,8,5,3,-4,-4,-5
14:27:02:886889,7,6,8,5,3,-4,-4,-5
14:27:02:893061,21,1,5,3,4,8,3,3
14:27:02:900428,-11,-7,-33,-24,0,-4,6,-3
14:27:02:908043,-11,-7,-33,-24,0,-4,6,-3
14:27:02:915486,7,-8,-5,-1,2,-9,-2,-1
14:27:02:923004,0,-23,-20,1,2,6,-1,-7
14:27:02:931168,0,-23,-20,1,2,6,-1,-7
14:27:02:931941,0,2,-3,-4,-1,2,16,0
14:27:02:946154,5,6,23,-6,-6,-3,-5,2
14:27:02:946926,5,6,23,-6,-6,-3,-5,2
14:27:02:952968,-1,3,6,6,5,3,-7,2
14:27:02:960575,-28,-2,19,5,-17,-6,-2,4
14:27:02:967980,-28,-2,19,5,-17,-6,-2,4
14:27:02:975524,8,0,3,-5,4,5,-13,0
14:27:02:982937,8,-3,14,4,-6,-5,7,-2
14:27:02:991248,8,-3,14,4,-6,-5,7,-2
14:27:02:991957,-13,-4,-20,-8,-3,1,5,-1
14:27:03:6225,-36,4,-12,-3,-4,-16,-4,-5
14:27:03:6942,-36,4,-12,-3,-4,-16,-4,-5
14:27:03:12942,3,1,10,1,-2,3,-6,-6
14:27:03:20436,11,3,7,6,8,-11,0,-5
14:27:03:28088,11,3,7,6,8,-11,0,-5
14:27:03:35413,-8,-5,9,2,-3,-4,-7,-5
14:27:03:43031,-3,19,-1,3,7,4,-17,-3
14:27:03:50550,-3,19,-1,3,7,4,-17,-3
14:27:03:58011,5,17,-10,-5,1,7,4,1
14:27:03:66146,-10,-6,-3,-10,-15,-16,-1,4
14:27:03:66933,-10,-6,-3,-10,-15,-16,-1,4
14:27:03:73023,-19,1,-6,9,4,7,-2,-2
14:27:03:88761,5,-5,0,-1,-3,7,8,1
14:27:03:89538,5,-5,0,-1,-3,7,8,1
14:27:03:95450,-33,-9,-13,-7,-16,-26,-6,-4
14:27:03:102978,14,3,17,8,19,20,6,3
14:27:03:110645,14,3,17,8,19,20,6,3
14:27:03:117960,11,-2,-9,0,3,4,3,-1
14:27:03:126209,-29,-3,5,1,0,-7,3,-2
14:27:03:127002,-29,-3,5,1,0,-7,3,-2
14:27:03:132966,11,6,41,8,0,-1,-1,3
14:27:03:148637,0,3,0,-4,1,3,-8,-5
14:27:03:149445,0,3,0,-4,1,3,-8,-5
14:27:03:155559,18,3,15,2,8,-5,2,0
14:27:03:162978,-36,-14,-35,-10,-10,2,-1,-13
14:27:03:170512,-36,-14,-35,-10,-10,2,-1,-13
14:27:03:177974,10,-9,-8,-6,-11,-11,3,0
14:27:03:186142,24,-3,5,-2,-2,0,3,4
14:27:03:187012,24,-3,5,-2,-2,0,3,4
14:27:03:193054,-4,-18,-22,-14,6,-1,-10,-3
14:27:03:208672,19,-15,-2,4,-4,-12,-7,0
14:27:03:209437,19,-15,-2,4,-4,-12,-7,0
14:27:03:215477,-17,10,7,11,-7,-7,3,-3
14:27:03:223093,11,1,-3,0,-3,1,-1,3
14:27:03:230488,11,1,-3,0,-3,1,-1,3
14:27:03:238045,5,-7,-18,-6,0,0,9,-2
14:27:03:246178,10,11,13,14,10,11,-3,0
14:27:03:246974,10,11,13,14,10,11,-3,0
14:27:03:252937,-6,-7,5,-2,-6,4,14,1
14:27:03:268626,4,6,-10,-7,-8,-11,-2,4
14:27:03:269421,4,6,-10,-7,-8,-11,-2,4
14:27:03:275533,-8,-2,7,-11,-10,5,0,-1
14:27:03:282898,-9,-12,-4,6,7,9,11,-1
14:27:03:290559,-9,-12,-4,6,7,9,11,-1
14:27:03:297964,-12,3,1,4,-4,-3,-1,-2
14:27:03:306215,4,2,-12,-15,-12,0,-9,-6
14:27:03:306969,4,2,-12,-15,-12,0,-9,-6
14:27:03:313008,12,-10,0,4,2,9,0,2
14:27:03:328657,-3,7,-1,5,1,0,0,-1
14:27:03:329444,-3,7,-1,5,1,0,0,-1
14:27:03:335445,-3,0,7,-4,-8,-11,-9,-2
14:27:03:343029,6,-4,6,-6,-6,-24,-34,0
14:27:03:350588,6,-4,6,-6,-6,-24,-34,0
14:27:03:358028,10,7,5,-6,-5,-10,-7,1
14:27:03:366164,-1,7,0,-2,-9,2,-4,3
14:27:03:366964,-1,7,0,-2,-9,2,-4,3
14:27:03:373000,-5,-3,-2,-1,5,4,-8,-2
14:27:03:388762,-6,-14,-4,-10,-3,-4,7,-5
14:27:03:389564,-6,-14,-4,-10,-3,-4,7,-5
14:27:03:395466,4,8,21,7,7,11,8,1
14:27:03:402984,5,13,3,10,5,6,-5,-2
14:27:03:410636,5,13,3,10,5,6,-5,-2
14:27:03:417953,2,7,-20,-9,2,15,0,-1
14:27:03:426198,10,2,-9,-8,12,4,5,-1
14:27:03:426961,10,2,-9,-8,12,4,5,-1
14:27:03:432954,6,-5,5,3,-5,-15,-2,1
14:27:03:448642,-10,-2,3,-10,1,-19,-22,-6
14:27:03:449427,-10,-2,3,-10,1,-19,-22,-6
14:27:03:455530,-3,6,-6,-4,-6,2,-3,0
14:27:03:462972,-2,-10,-8,-1,11,14,14,0
14:27:03:470525,-2,-10,-8,-1,11,14,14,0
14:27:03:478013,5,-5,-13,0,-8,-2,-6,7
14:27:03:486138,1,7,10,2,-1,-1,3,2
14:27:03:486974,1,7,10,2,-1,-1,3,2
14:27:03:493023,-6,1,-5,3,-3,3,-1,-5
14:27:03:508771,-3,9,0,4,-4,-4,5,0
14:27:03:509458,-3,9,0,4,-4,-4,5,0
14:27:03:515438,1,-5,4,12,1,1,3,-5
14:27:03:523158,4,-9,11,3,3,3,-2,-3
14:27:03:530564,4,-9,11,3,3,3,-2,-3
14:27:03:538079,-3,-7,1,-9,-11,-14,5,0
14:27:03:546148,0,-4,-15,0,-1,9,0,1
14:27:03:547012,0,-4,-15,0,-1,9,0,1
14:27:03:553007,-3,4,0,-2,13,2,-1,-2
14:27:03:568671,-1,-21,-14,-3,-7,-4,6,-3
14:27:03:569501,-1,-21,-14,-3,-7,-4,6,-3
14:27:03:575533,-1,4,-12,-3,-7,-13,-5,-1
14:27:03:582940,-7,-3,-15,-4,-7,7,-7,-2
14:27:03:590602,-7,-3,-15,-4,-7,7,-7,-2
14:27:03:597984,-4,3,5,-5,-4,-3,-3,-2
14:27:03:606250,-1,-2,-17,7,-3,-12,3,0
14:27:03:607028,-1,-2,-17,7,-3,-12,3,0
14:27:03:613015,-1,1,5,14,4,7,-3,-2
14:27:03:628684,-2,3,20,0,-2,-1,3,-4
14:27:03:629503,-2,3,20,0,-2,-1,3,-4
14:27:03:635442,-4,-6,17,-24,-11,-9,-4,-4
14:27:03:643044,-8,-2,6,-5,8,-2,2,-1
14:27:03:650545,-8,-2,6,-5,8,-2,2,-1
14:27:03:658036,-6,-11,-21,0,1,0,0,-2
14:27:03:666127,2,1,3,-2,-3,1,-10,1
14:27:03:666888,2,1,3,-2,-3,1,-10,1
14:27:03:673058,5,-1,11,10,7,3,0,1
14:27:03:688749,0,-6,-10,-9,-2,-8,5,-1
14:27:03:689564,0,-6,-10,-9,-2,-8,5,-1
14:27:03:695463,-1,6,-9,-1,4,1,-5,-3
14:27:03:703000,-1,-5,3,-8,-7,-4,-1,0
14:27:03:710586,-1,-5,3,-8,-7,-4,-1,0
14:27:03:717945,-10,0,11,0,1,-5,-1,-1
14:27:03:726188,-3,-3,13,-4,-2,-1,0,0
14:27:03:726987,-3,-3,13,-4,-2,-1,0,0
14:27:03:732903,1,9,4,1,3,5,1,-1
14:27:03:748668,0,11,39,11,4,2,4,0
14:27:03:749454,0,11,39,11,4,2,4,0
14:27:03:755568,1,4,-11,-6,-1,0,-1,1
14:27:03:763037,2,1,5,3,0,-1,7,-2
14:27:03:770524,2,1,5,3,0,-1,7,-2
14:27:03:778003,-1,-3,11,-3,-4,-3,-1,-3
14:27:03:786174,-2,-6,-9,1,0,-1,-9,0
14:27:03:786937,-2,-6,-9,1,0,-1,-9,0
14:27:03:793049,-1,-30,-24,-10,-5,2,4,0
14:27:03:815440,-4,13,23,15,11,10,1,-4
14:27:03:823026,1,10,5,-2,-6,-3,3,-2
14:27:03:830552,1,10,5,-2,-6,-3,3,-2
14:27:03:837973,4,5,-1,10,10,1,3,4
14:27:03:846195,5,17,17,4,8,7,4,1
14:27:03:847001,5,17,17,4,8,7,4,1
14:27:03:852986,3,3,2,18,-4,-7,-30,2
14:27:03:868747,3,3,2,18,-4,-7,-30,2
14:27:03:869477,1,-13,-24,-6,-17,-4,-40,-4
14:27:03:875479,-4,28,-14,-3,-11,4,11,3
14:27:03:891203,-4,28,-14,-3,-11,4,11,3
14:27:03:891947,22,1,-12,-4,-8,5,7,-1
14:27:03:897933,-1,-19,9,-3,-5,-9,-4,-4
14:27:03:906240,-1,-19,9,-3,-5,-9,-4,-4
14:27:03:906935,0,-17,-8,-9,1,-5,8,2
14:27:03:912982,-4,-16,-28,-6,-5,-6,-7,-5
14:27:03:928678,-4,-16,-28,-6,-5,-6,-7,-5
14:27:03:929487,-9,-8,-9,21,17,13,9,-2
14:27:03:935419,6,-18,-7,-12,6,7,0,1
14:27:03:951167,6,-18,-7,-12,6,7,0,1
14:27:03:951926,-9,-3,3,-7,-10,-8,-5,-1
14:27:03:958024,1,1,10,-12,-13,-10,0,0
14:27:03:966219,1,1,10,-12,-13,-10,0,0
14:27:03:966930,-12,-11,-4,-4,-5,-12,3,2
14:27:03:973029,-2,-3,16,0,-7,2,-11,-4
14:27:03:988666,-2,-3,16,0,-7,2,-11,-4
14:27:03:989439,-12,1,-13,10,10,5,5,1
14:27:03:995439,2,3,-10,8,27,12,14,6
14:27:04:11151,2,3,-10,8,27,12,14,6
14:27:04:11976,-3,-1,-16,-8,8,-23,-44,-5
14:27:04:17979,-1,5,4,1,0,7,14,-1
14:27:04:26246,-1,5,4,1,0,7,14,-1
14:27:04:26961,2,-3,-10,-14,-27,1,3,-1
