Time,EMG1,EMG2,EMG3,EMG4,EMG5,EMG6,EMG7,EMG8
14:28:02:300136,1,1,3,-11,-3,-2,0,-1
14:28:02:307623,-7,-2,10,-3,-6,-3,-4,-2
14:28:02:315844,3,-2,3,11,2,0,1,0
14:28:02:316616,3,-2,3,11,2,0,1,0
14:28:02:322675,-3,0,-8,-6,8,3,1,2
14:28:02:338447,-1,1,7,1,-4,1,0,-1
14:28:02:339116,-1,1,7,1,-4,1,0,-1
14:28:02:345164,3,1,9,6,0,-1,0,0
14:28:02:352587,-2,1,-15,4,7,1,1,0
14:28:02:360182,-2,1,-15,4,7,1,1,0
14:28:02:367645,-1,2,-1,15,1,1,0,-1
14:28:02:375581,0,-3,0,-2,-6,-7,-1,-2
14:28:02:383360,0,-3,0,-2,-6,-7,-1,-2
14:28:02:384132,0,-3,-1,-2,0,-1,0,1
14:28:02:398310,3,2,2,0,-3,2,-2,-2
14:28:02:399142,3,2,2,0,-3,2,-2,-2
14:28:02:405181,3,2,-9,-15,-1,0,0,1
14:28:02:412668,-9,-9,-2,-11,-4,-6,-4,-3
14:28:02:420206,-9,-9,-2,-11,-4,-6,-4,-3
14:28:02:427645,0,2,-8,15,1,3,1,-1
14:28:02:435857,-1,4,-3,-15,-3,0,-3,-2
14:28:02:436577,-1,4,-3,-15,-3,0,-3,-2
14:28:02:442675,1,2,0,-9,0,-3,-2,-1
14:28:02:458355,-4,-4,4,0,-1,-3,-2,0
14:28:02:459179,-4,-4,4,0,-1,-3,-2,0
14:28:02:465133,2,1,6,5,0,1,-3,0
14:28:02:480798,3,2,11,17,7,1,2,1
14:28:02:481604,3,2,11,17,7,1,2,1
14:28:02:487684,-1,-6,11,0,-1,-2,-2,-3
14:28:02:495886,-12,-6,-19,7,3,0,0,-2
14:28:02:496665,-12,-6,-19,7,3,0,0,-2
14:28:02:502610,0,2,-10,-35,3,0,0,0
14:28:02:518387,4,3,-2,-5,2,1,2,-2
14:28:02:519170,4,3,-2,-5,2,1,2,-2
14:28:02:525182,-5,-2,-6,-7,4,0,-1,-1
14:28:02:532657,-1,1,7,0,1,0,-2,2
14:28:02:540225,-1,1,7,0,1,0,-2,2
14:28:02:547652,6,1,26,29,-8,0,-2,-5
14:28:02:555856,3,1,-2,-2,-4,-2,-3,-1
14:28:02:556606,3,1,-2,-2,-4,-2,-3,-1
14:28:02:562664,-1,1,-1,2,-2,-1,-2,0
14:28:02:578313,0,1,-16,9,0,0,3,0
14:28:02:579106,0,1,-16,9,0,0,3,0
14:28:02:585094,-3,-3,-12,1,-2,-2,0,-2
14:28:02:592829,4,-8,-7,-15,2,-3,-1,-2
14:28:02:600124,4,-8,-7,-15,2,-3,-1,-2
14:28:02:607682,-17,-3,-4,26,0,0,-1,-2
14:28:02:615823,-1,-1,21,-3,-6,-5,-6,-1
14:28:02:616639,-1,-1,21,-3,-6,-5,-6,-1
14:28:02:622650,2,-6,0,14,-7,-2,-1,-2
14:28:02:638385,-8,-3,0,-1,-11,-1,-4,-1
14:28:02:639097,-8,-3,0,-1,-11,-1,-4,-1
14:28:02:645143,0,-10,-21,-22,-28,-12,1,-1
14:28:02:652632,-5,0,10,-6,2,-4,3,-3
14:28:02:660260,-5,0,10,-6,2,-4,3,-3
14:28:02:667595,-10,0,0,12,12,1,1,0
14:28:02:675888,-5,0,3,-5,-22,-3,-2,-4
14:28:02:676618,-5,0,3,-5,-22,-3,-2,-4
14:28:02:682613,21,3,12,-4,-9,5,11,-1
14:28:02:698322,8,0,-13,-7,-22,-5,10,2
14:28:02:699109,8,0,-13,-7,-22,-5,10,2
14:28:02:705165,9,0,7,12,68,31,12,5
14:28:02:712599,-5,0,-17,27,19,-4,-15,-3
14:28:02:720192,-5,0,-17,27,19,-4,-15,-3
14:28:02:727722,-8,0,20,-17,1,-18,-1,-2
14:28:02:735819,-8,0,20,-17,1,-18,-1,-2
14:28:02:736621,8,0,5,7,16,-5,12,-1
14:28:02:742692,-2,0,1,-21,-8,-3,4,-1
14:28:02:758409,-2,0,1,-21,-8,-3,4,-1
14:28:02:759200,-4,-1,2,-19,-2,8,20,1
14:28:02:765133,-7,-9,-24,-16,-9,-15,12,2
14:28:02:780855,-7,-9,-24,-16,-9,-15,12,2
14:28:02:781677,1,0,-9,-13,-11,-16,-30,-7
14:28:02:787651,-9,-2,-6,11,11,-7,-20,-5
14:28:02:795884,-9,-2,-6,11,11,-7,-20,-5
14:28:02:796637,-9,-1,-9,8,-13,-11,-3,2
14:28:02:802587,-14,1,-8,1,-13,5,-15,-3
14:28:02:818310,-14,1,-8,1,-13,5,-15,-3
14:28:02:819097,8,0,-9,-13,-1,16,-8,-2
14:28:02:825168,-4,-8,-46,-21,18,7,7,0
14:28:02:840871,-4,-8,-46,-21,18,7,7,0
14:28:02:841696,-21,1,9,0,-17,9,7,0
14:28:02:847636,0,5,5,-14,-28,-29,10,-2
14:28:02:855905,0,5,5,-14,-28,-29,10,-2
14:28:02:856659,26,5,22,8,30,-8,-1,3
14:28:02:862613,16,-3,8,9,19,4,-8,-4
14:28:02:878428,16,-3,8,9,19,4,-8,-4
14:28:02:879152,5,-1,12,-12,21,0,3,0
14:28:02:885057,9,8,9,23,-17,-10,-7,0
14:28:02:900795,9,8,9,23,-17,-10,-7,0
14:28:02:901559,-9,-15,-4,1,-30,-4,-13,-6
14:28:02:907625,-22,-8,-1,6,-4,15,-15,-5
14:28:02:915853,-22,-8,-1,6,-4,15,-15,-5
14:28:02:916600,7,0,15,1,30,10,23,2
14:28:02:922660,5,-1,26,15,2,-2,0,-2
14:28:02:938432,5,-1,26,15,2,-2,0,-2
14:28:02:939097,-13,-6,-8,-16,-49,-12,-11,-3
14:28:02:945159,8,8,14,26,7,16,-4,1
14:28:02:960883,8,8,14,26,7,16,-4,1
14:28:02:961584,-3,-10,-16,-14,-29,-13,-9,-1
14:28:02:967603,10,1,-22,14,33,20,6,5
14:28:02:975709,10,1,-22,14,33,20,6,5
14:28:02:982620,9,1,9,1,7,12,25,-3
14:28:02:990199,6,-1,-6,-17,-19,14,6,-2
14:28:03:6546,6,-1,-6,-17,-19,14,6,-2
14:28:03:7239,0,3,4,12,8,2,-3,1
14:28:03:8083,4,-7,3,-22,-12,-21,-5,-3
14:28:03:20875,4,-7,3,-22,-12,-21,-5,-3
14:28:03:21692,-16,-9,-14,12,0,5,-7,-6
14:28:03:27700,-20,-8,15,-34,-11,-12,-12,1
14:28:03:35804,-20,-8,15,-34,-11,-12,-12,1
14:28:03:36555,12,9,2,-2,20,-2,-7,-5
14:28:03:50099,-17,-4,25,-13,-31,-20,-3,-1
14:28:03:58421,-17,-4,25,-13,-31,-20,-3,-1
14:28:03:59144,-7,0,3,21,14,29,0,-2
14:28:03:72682,3,9,8,8,16,31,20,1
14:28:03:80889,3,9,8,8,16,31,20,1
14:28:03:81600,-25,-3,11,3,5,20,16,-2
14:28:03:87642,6,2,-3,-4,16,-14,-14,-2
14:28:03:95860,6,2,-3,-4,16,-14,-14,-2
14:28:03:96694,10,-2,4,9,28,27,-25,7
14:28:03:110134,8,-10,-8,-7,24,-15,-7,-1
14:28:03:118339,8,-10,-8,-7,24,-15,-7,-1
14:28:03:119109,15,-1,-21,-23,-15,-25,-3,-5
14:28:03:125108,-14,3,1,1,-2,3,-10,-4
14:28:03:140835,-14,3,1,1,-2,3,-10,-4
14:28:03:141617,-29,-1,13,-17,28,-5,3,1
14:28:03:156590,-4,4,12,7,-16,-5,6,5
14:28:03:157271,-4,4,12,7,-16,-5,6,5
14:28:03:158108,8,8,44,26,72,27,23,1
14:28:03:170147,7,-2,-51,5,0,-8,-3,-11
14:28:03:178338,7,-2,-51,5,0,-8,-3,-11
14:28:03:179110,-1,-6,-22,-12,-63,-44,-18,-1
14:28:03:185106,-7,-9,-72,-13,-54,-11,-7,2
14:28:03:200809,-7,-9,-72,-13,-54,-11,-7,2
14:28:03:201580,-10,3,-14,15,37,11,2,0
14:28:03:207693,14,3,-63,-8,-40,-12,0,-3
14:28:03:215849,14,3,-63,-8,-40,-12,0,-3
14:28:03:216627,-4,-13,-16,-16,12,33,-12,2
14:28:03:230125,-9,-1,42,-10,-15,1,-1,4
14:28:03:238394,-9,-1,42,-10,-15,1,-1,4
14:28:03:239099,9,6,6,1,-39,-26,0,9
14:28:03:245184,3,3,38,7,37,20,-1,-29
14:28:03:261351,3,3,38,7,37,20,-1,-29
14:28:03:262088,16,8,37,-8,0,-6,-7,-2
14:28:03:267587,5,-1,0,-3,-4,-6,-9,-3
14:28:03:275835,5,-1,0,-3,-4,-6,-9,-3
14:28:03:276652,6,16,43,18,-7,-26,5,-3
14:28:03:290139,-17,-4,-24,-22,15,0,5,11
14:28:03:306593,-17,-4,-24,-22,15,0,5,11
14:28:03:307327,2,-7,-13,-4,-14,-14,-5,5
14:28:03:308091,-4,-14,-28,-2,-4,0,-15,7
14:28:03:320840,-4,-14,-28,-2,-4,0,-15,7
14:28:03:321585,-11,-19,-68,1,6,6,7,-2
14:28:03:327653,4,2,17,6,-22,-5,18,1
14:28:03:343390,4,2,17,6,-22,-5,18,1
14:28:03:344090,-7,-13,-49,-14,-8,-12,-14,-29
14:28:03:350076,-17,-4,-14,0,-7,-3,16,-1
14:28:03:358377,-17,-4,-14,0,-7,-3,16,-1
14:28:03:359177,12,9,40,14,-5,7,6,-2
14:28:03:365115,6,10,26,23,35,-7,-5,-12
14:28:03:380849,6,10,26,23,35,-7,-5,-12
14:28:03:381603,12,4,33,-5,-10,0,-7,6
14:28:03:387648,-3,3,19,12,-4,-7,-7,5
14:28:03:395855,-3,3,19,12,-4,-7,-7,5
14:28:03:396621,-2,-17,-51,3,-23,-6,0,3
14:28:03:410231,10,-3,-6,-5,-5,9,-5,4
14:28:03:418296,10,-3,-6,-5,-5,9,-5,4
14:28:03:419058,-11,16,24,-12,-45,-19,-7,-4
14:28:03:425156,5,-1,-1,16,29,23,12,8
14:28:03:440799,5,-1,-1,16,29,23,12,8
14:28:03:441597,7,2,-21,0,6,-1,0,-14
14:28:03:447601,-7,2,14,-14,-9,6,-3,11
14:28:03:455847,-7,2,14,-14,-9,6,-3,11
14:28:03:456592,-3,3,-23,-18,0,-19,-2,3
14:28:03:470195,5,5,17,5,-9,0,2,0
14:28:03:478377,5,5,17,5,-9,0,2,0
14:28:03:479127,3,-9,-10,16,27,9,-2,6
14:28:03:485070,-6,-13,-56,-18,10,-10,-7,5
14:28:03:500782,-6,-13,-56,-18,10,-10,-7,5
14:28:03:501574,-16,-18,38,-8,-11,-4,-3,-2
14:28:03:507670,9,0,15,10,7,-1,-5,-1
14:28:03:515848,9,0,15,10,7,-1,-5,-1
14:28:03:516622,-15,9,3,9,24,16,10,4
14:28:03:530143,-5,1,33,-12,-39,-15,-8,-15
14:28:03:538371,-5,1,33,-12,-39,-15,-8,-15
14:28:03:539149,20,10,21,24,17,15,-18,7
14:28:03:545241,-5,0,40,-15,-11,-1,-2,-21
14:28:03:560890,-5,0,40,-15,-11,-1,-2,-21
14:28:03:561584,-2,-4,-27,-17,-22,-7,-5,-1
14:28:03:567589,9,5,21,11,26,15,-2,-9
14:28:03:575874,9,5,21,11,26,15,-2,-9
14:28:03:576573,-8,-10,-31,-6,-1,-14,0,4
14:28:03:590187,-4,0,2,4,-18,19,7,0
14:28:03:598328,-4,0,2,4,-18,19,7,0
14:28:03:599091,19,4,-43,6,22,18,9,3
14:28:03:605254,-6,-15,-81,-11,-10,-12,-8,14
14:28:03:620843,-6,-15,-81,-11,-10,-12,-8,14
14:28:03:621636,4,-1,-5,0,-27,5,5,1
14:28:03:627737,0,14,47,5,-20,-8,-3,0
14:28:03:635797,0,14,47,5,-20,-8,-3,0
14:28:03:636626,-16,-12,44,0,9,-7,13,8
14:28:03:650124,-37,0,27,1,-8,-13,-17,1
14:28:03:658454,-37,0,27,1,-8,-13,-17,1
14:28:03:659122,-4,4,25,-3,20,2,-14,-15
14:28:03:665156,6,1,-3,5,57,5,16,5
14:28:03:680900,6,1,-3,5,57,5,16,5
14:28:03:681625,6,5,11,-1,-11,4,46,6
14:28:03:687612,10,-2,-68,-8,-10,-9,0,2
14:28:03:695873,10,-2,-68,-8,-10,-9,0,2
14:28:03:696659,5,1,-5,-8,-18,-13,-36,-6
14:28:03:710244,-1,0,9,8,-24,4,26,-5
14:28:03:718396,-1,0,9,8,-24,4,26,-5
14:28:03:719128,9,-2,-46,13,10,7,4,-2
14:28:03:725167,-10,-7,-15,6,-9,-13,-25,-1
14:28:03:740856,-10,-7,-15,6,-9,-13,-25,-1
14:28:03:741614,-13,-2,-5,-9,-2,10,11,4
14:28:03:747610,8,-2,-10,-4,11,-12,-3,5
14:28:03:755921,8,-2,-10,-4,11,-12,-3,5
14:28:03:756630,15,7,36,2,-17,-8,-13,2
14:28:03:770099,8,2,9,-4,-2,4,22,-32
14:28:03:778403,8,2,9,-4,-2,4,22,-32
14:28:03:779142,-14,1,-13,-15,-32,-16,-2,0
14:28:03:785072,-7,-6,-60,-25,17,12,-4,8
14:28:03:800812,-7,-6,-60,-25,17,12,-4,8
14:28:03:801581,2,7,4,-8,3,9,-8,-10
14:28:03:807668,9,-3,36,6,-10,4,-7,1
14:28:03:815877,9,-3,36,6,-10,4,-7,1
14:28:03:816649,3,-6,-3,-25,-41,-19,-14,4
14:28:03:830160,0,-3,-11,-10,17,-14,-28,-6
14:28:03:838484,0,-3,-11,-10,17,-14,-28,-6
14:28:03:839107,-6,-11,-39,12,17,7,-15,-16
14:28:03:845212,4,2,48,-6,-1,-1,4,13
14:28:03:860941,4,2,48,-6,-1,-1,4,13
14:28:03:861641,-13,-2,6,2,36,7,28,-7
14:28:03:867567,12,2,-14,1,-32,2,1,11
14:28:03:875245,12,2,-14,1,-32,2,1,11
14:28:03:882659,0,-3,12,-24,3,-8,-4,5
14:28:03:890171,11,4,38,-2,-10,-5,13,1
14:28:03:898383,11,4,38,-2,-10,-5,13,1
14:28:03:899127,-25,-1,47,22,20,11,5,-4
14:28:03:912599,-36,-8,12,-18,-15,11,-2,-5
14:28:03:920823,-36,-8,12,-18,-15,11,-2,-5
14:28:03:921616,8,-10,6,-1,-14,0,-10,12
14:28:03:927651,-12,-2,-13,17,17,4,0,-3
14:28:03:935155,-12,-2,-13,17,17,4,0,-3
14:28:03:942734,5,6,5,6,-12,6,2,0
14:28:03:950127,10,5,-5,-1,10,-5,-6,-49
14:28:03:958414,10,5,-5,-1,10,-5,-6,-49
14:28:03:959152,17,11,9,-9,-6,-8,-12,-3
14:28:03:972664,-10,3,39,-9,-1,-23,-13,18
14:28:03:980837,-10,3,39,-9,-1,-23,-13,18
14:28:03:981662,-3,6,12,7,11,4,-4,3
14:28:03:987667,-7,8,-11,19,-10,11,14,8
14:28:03:995253,-7,8,-11,19,-10,11,14,8
14:28:04:2601,5,-3,-15,-5,10,0,11,13
14:28:04:10231,-1,1,-45,9,-8,-6,-2,2
14:28:04:18284,-1,1,-45,9,-8,-6,-2,2
14:28:04:19075,-19,-2,-2,-10,4,4,-9,-5
14:28:04:33266,0,-4,14,11,11,8,2,20
14:28:04:34091,0,-4,14,11,11,8,2,20
14:28:04:40137,-15,3,18,8,25,13,6,-3
14:28:04:47657,2,-2,7,-2,-2,-8,1,-14
14:28:04:55234,2,-2,7,-2,-2,-8,1,-14
14:28:04:62646,7,9,-9,-12,-3,-5,-3,8
14:28:04:70159,12,-8,-18,4,6,5,11,8
14:28:04:78398,12,-8,-18,4,6,5,11,8
14:28:04:79100,3,-4,-75,-25,-39,-24,-22,-23
14:28:04:101435,13,0,-33,-15,4,-1,-13,-7
14:28:04:102204,13,0,-33,-15,4,-1,-13,-7
14:28:04:103026,-8,-9,-35,19,0,-8,6,16
14:28:04:107610,-5,3,20,0,8,-14,-8,-12
14:28:04:115181,-5,3,20,0,8,-14,-8,-12
14:28:04:122714,4,-6,-53,0,11,13,-3,-1
14:28:04:130153,9,-3,-1,-5,-8,14,-6,23
14:28:04:138422,9,-3,-1,-5,-8,14,-6,23
14:28:04:139100,7,-8,37,-8,-37,-16,-24,5
14:28:04:153266,4,4,13,16,32,16,8,6
14:28:04:154095,4,4,13,16,32,16,8,6
14:28:04:160206,-17,-11,18,8,17,10,19,-4
14:28:04:167587,-10,-1,-11,-4,3,0,-1,-1
14:28:04:175218,-10,-1,-11,-4,3,0,-1,-1
14:28:04:182601,-1,-5,7,5,2,-19,2,-10
14:28:04:190123,-12,-19,-6,-20,-17,-34,-1,14
14:28:04:198333,-12,-19,-6,-20,-17,-34,-1,14
14:28:04:199078,1,5,6,-12,-14,-14,-8,-2
14:28:04:213341,2,0,-7,22,17,13,2,-33
14:28:04:214162,2,0,-7,22,17,13,2,-33
14:28:04:220103,16,3,5,8,-3,-4,4,11
14:28:04:227725,-2,-10,-13,-1,-9,-3,13,-4
14:28:04:235145,-2,-10,-13,-1,-9,-3,13,-4
14:28:04:242682,12,7,-18,0,-33,-8,7,2
14:28:04:250105,3,5,15,9,8,19,-6,-1
14:28:04:258379,3,5,15,9,8,19,-6,-1
14:28:04:259130,-2,2,-18,-6,0,8,5,-5
14:28:04:273303,5,5,-14,-8,17,1,-3,6
14:28:04:274080,5,5,-14,-8,17,1,-3,6
14:28:04:280095,-20,-9,4,0,15,-5,-6,1
14:28:04:287621,-7,4,-19,-5,-30,-4,-2,-8
14:28:04:295210,-7,4,-19,-5,-30,-4,-2,-8
14:28:04:302624,-22,4,40,21,-2,5,3,0
14:28:04:310186,-3,3,13,-9,1,-1,-4,8
14:28:04:318375,-3,3,13,-9,1,-1,-4,8
14:28:04:319138,9,2,57,5,28,8,-26,-6
14:28:04:333344,8,-7,-3,-7,13,1,6,2
14:28:04:334126,8,-7,-3,-7,13,1,6,2
14:28:04:340172,-10,-9,-8,4,3,-7,6,-9
14:28:04:347619,12,-1,-20,-5,3,11,-2,-13
14:28:04:355292,12,-1,-20,-5,3,11,-2,-13
14:28:04:362635,10,14,10,6,0,-8,-2,14
14:28:04:379057,2,5,22,-6,-16,-16,-6,5
14:28:04:379821,2,5,22,-6,-16,-16,-6,5
14:28:04:380619,-3,0,-24,-15,8,3,2,-14
14:28:04:393398,-3,-8,-61,-12,1,-8,3,-20
14:28:04:394112,-3,-8,-61,-12,1,-8,3,-20
14:28:04:400095,14,-4,-10,-2,12,13,5,1
14:28:04:407654,2,6,44,24,-16,7,-10,8
14:28:04:423393,2,6,44,24,-16,7,-10,8
14:28:04:424098,-10,0,-6,3,-6,8,12,8
14:28:04:430094,-10,-4,11,-2,11,30,6,-18
14:28:04:438401,-10,-4,11,-2,11,30,6,-18
14:28:04:439127,5,-5,0,-5,-17,-12,0,-9
14:28:04:453290,-8,-12,11,9,-30,-17,-11,6
14:28:04:454127,-8,-12,11,9,-30,-17,-11,6
14:28:04:460162,-1,-12,-43,-19,0,1,-14,-24
14:28:04:467557,0,5,25,9,26,-5,-6,4
14:28:04:475249,0,5,25,9,26,-5,-6,4
14:28:04:482594,-15,-3,-27,10,-1,-5,11,-3
14:28:04:490136,-2,1,-35,-9,-6,-22,-7,-14
14:28:04:498381,-2,1,-35,-9,-6,-22,-7,-14
14:28:04:499140,10,2,20,8,41,11,-22,13
14:28:04:513343,-4,8,20,0,-23,-16,-5,-16
14:28:04:514139,-4,8,20,0,-23,-16,-5,-16
14:28:04:520111,4,3,16,-7,-2,-5,-6,-19
14:28:04:527679,-3,-8,-14,-5,19,19,1,12
14:28:04:535170,-3,-8,-14,-5,19,19,1,12
14:28:04:542716,-9,-5,14,4,-9,0,16,-4
14:28:04:550109,-28,11,-22,-7,-13,-21,2,15
14:28:04:558367,-28,11,-22,-7,-13,-21,2,15
14:28:04:559072,5,-14,-16,12,12,10,18,16
14:28:04:573337,5,-7,8,-16,-24,-18,-1,-7
14:28:04:574097,5,-7,8,-16,-24,-18,-1,-7
14:28:04:580154,10,1,-11,1,-2,-2,17,-5
14:28:04:587688,21,6,46,29,25,20,6,4
14:28:04:595210,21,6,46,29,25,20,6,4
14:28:04:610826,10,1,2,3,-3,-8,6,2
14:28:04:611573,-1,2,-8,11,21,36,-12,8
14:28:04:618386,-1,2,-8,11,21,36,-12,8
14:28:04:619058,-8,3,10,-19,-20,-35,-26,8
14:28:04:633352,-2,1,24,10,8,7,18,-3
14:28:04:634175,-2,1,24,10,8,7,18,-3
14:28:04:656479,11,3,-14,-1,-15,8,-12,-10
14:28:04:657221,-8,2,3,-20,-6,2,5,10
14:28:04:658139,-8,2,3,-20,-6,2,5,10
14:28:04:662589,-12,8,7,2,-5,-4,-2,-6
14:28:04:670133,4,3,-11,2,0,-5,2,2
14:28:04:678445,4,3,-11,2,0,-5,2,2
14:28:04:679150,-14,-13,-3,-16,-26,-9,4,28
14:28:04:693396,-11,-9,-20,-14,18,-8,6,-3
14:28:04:694173,-11,-9,-20,-14,18,-8,6,-3
14:28:04:700101,-20,11,20,8,7,11,-1,-41
14:28:04:707614,6,0,6,-16,-16,-25,-16,5
14:28:04:715190,6,0,6,-16,-16,-25,-16,5
14:28:04:722752,-38,1,30,-6,-12,13,-1,2
14:28:04:730127,11,-5,-22,-11,-10,-1,-18,-22
14:28:04:738381,11,-5,-22,-11,-10,-1,-18,-22
14:28:04:739123,18,26,11,-16,-14,-7,-2,0
14:28:04:753309,-7,-1,-4,-3,-6,8,3,12
14:28:04:754079,-7,-1,-4,-3,-6,8,3,12
14:28:04:760199,3,9,-4,9,4,5,-1,2
14:28:04:767569,2,16,17,11,1,9,1,-1
14:28:04:775273,2,16,17,11,1,9,1,-1
14:28:04:782649,-4,-4,-20,1,23,14,1,-5
14:28:04:790132,-4,-18,23,1,-23,-11,4,9
14:28:04:798387,-4,-18,23,1,-23,-11,4,9
14:28:04:799139,12,3,-24,5,12,7,2,8
14:28:04:813347,-10,-11,22,18,7,15,10,-15
14:28:04:814156,-10,-11,22,18,7,15,10,-15
14:28:04:820109,5,-15,-4,6,6,-5,-7,-4
14:28:04:835795,0,5,-93,-22,-12,-13,-8,-8
14:28:04:836621,0,5,-93,-22,-12,-13,-8,-8
14:28:04:842659,11,2,-8,-9,-19,-9,4,-5
14:28:04:850095,4,27,73,6,15,4,-4,3
14:28:04:857758,4,27,73,6,15,4,-4,3
14:28:04:865160,-3,-1,16,-2,-22,-9,6,-1
14:28:04:873364,13,-16,17,-11,15,-15,2,8
14:28:04:874132,13,-16,17,-11,15,-15,2,8
14:28:04:880186,14,13,39,6,14,6,7,6
14:28:04:895853,-2,-2,-30,-2,-15,-1,2,-2
14:28:04:896683,-2,-2,-30,-2,-15,-1,2,-2
14:28:04:902577,11,6,-28,-16,-11,-5,2,21
14:28:04:910170,-14,-9,-2,-7,-36,-11,3,5
14:28:04:917649,-14,-9,-2,-7,-36,-11,3,5
14:28:04:925191,-14,-17,-11,6,8,-2,-9,-9
14:28:04:933294,10,-17,3,9,26,6,-4,-4
14:28:04:934085,10,-17,3,9,26,6,-4,-4
14:28:04:940145,2,-8,8,-2,-6,3,0,-4
14:28:04:955851,-9,16,2,-1,-3,-6,-2,-14
14:28:04:956609,-9,16,2,-1,-3,-6,-2,-14
14:28:04:962612,4,-16,19,-11,-1,-6,-5,0
14:28:04:970127,3,6,7,-6,5,7,11,-5
14:28:04:977710,3,6,7,-6,5,7,11,-5
14:28:04:985142,25,3,-10,8,5,2,-4,-23
14:28:04:993346,-6,-6,-12,16,6,0,-14,-6
14:28:04:994122,-6,-6,-12,16,6,0,-14,-6
14:28:05:75,-4,-14,-68,-14,-11,-5,-9,8
14:28:05:15810,-15,-12,-17,-3,-5,17,4,4
14:28:05:16646,-15,-12,-17,-3,-5,17,4,4
14:28:05:22751,-14,19,5,16,10,11,4,9
14:28:05:30177,8,2,3,-11,-8,-10,-7,9
14:28:05:37693,8,2,3,-11,-8,-10,-7,9
14:28:05:45150,-3,-3,21,-7,-10,5,2,0
14:28:05:53321,6,16,-19,3,-10,2,1,0
14:28:05:54133,6,16,-19,3,-10,2,1,0
14:28:05:60184,-7,-28,20,-15,-23,-23,-12,3
14:28:05:75917,-5,-1,57,4,1,-10,-3,-3
14:28:05:76632,-5,-1,57,4,1,-10,-3,-3
14:28:05:82597,-8,-22,-15,-6,-13,0,6,7
14:28:05:90130,6,17,-27,-7,25,10,-13,9
14:28:05:97667,6,17,-27,-7,25,10,-13,9
14:28:05:105235,-1,-4,7,8,24,13,-10,3
14:28:05:113365,-17,-10,-11,-8,-28,-22,2,-4
14:28:05:114141,-17,-10,-11,-8,-28,-22,2,-4
14:28:05:120118,6,9,-35,0,5,0,0,11
14:28:05:135795,-11,-19,1,-2,-21,-5,-3,1
14:28:05:136596,-11,-19,1,-2,-21,-5,-3,1
14:28:05:142640,-38,2,-23,-1,13,-14,2,-1
14:28:05:150060,12,-4,5,10,22,10,0,5
14:28:05:157664,12,-4,5,10,22,10,0,5
14:28:05:165159,14,1,15,1,17,3,-4,-11
14:28:05:173089,-17,-3,3,-5,-20,5,1,-28
14:28:05:180790,-17,-3,3,-5,-20,5,1,-28
14:28:05:181688,4,9,-14,-1,-3,-8,0,-16
14:28:05:195853,17,29,14,4,7,1,4,9
14:28:05:196659,17,29,14,4,7,1,4,9
14:28:05:202640,-2,11,23,1,-6,-6,-1,-9
14:28:05:210205,5,6,-13,5,-5,-8,-7,-4
14:28:05:217693,5,6,-13,5,-5,-8,-7,-4
14:28:05:225213,-5,2,0,15,1,-5,6,-7
14:28:05:233303,-12,-11,-1,-4,0,-5,-1,-18
14:28:05:234084,-12,-11,-1,-4,0,-5,-1,-18
14:28:05:240162,1,-1,-3,-8,-11,7,1,11
14:28:05:255890,-4,-14,-10,-15,-18,-7,2,6
14:28:05:256572,-4,-14,-10,-15,-18,-7,2,6
14:28:05:262639,4,6,9,4,-12,12,3,10
14:28:05:270135,3,-51,-27,2,-3,1,-3,0
14:28:05:277715,3,-51,-27,2,-3,1,-3,0
14:28:05:285082,1,-35,-3,-1,-11,-11,0,-6
14:28:05:293568,10,19,-2,19,23,3,2,-5
14:28:05:294147,10,19,-2,19,23,3,2,-5
14:28:05:300138,-4,-39,-10,4,-6,-16,-10,0
14:28:05:315808,-4,-9,-13,-6,22,15,5,2
14:28:05:316648,-4,-9,-13,-6,22,15,5,2
14:28:05:322734,10,42,22,0,2,15,11,11
14:28:05:330176,8,19,10,8,4,3,-2,17
14:28:05:337693,8,19,10,8,4,3,-2,17
14:28:05:345172,-4,28,25,-12,-17,-23,-6,11
14:28:05:353305,4,47,0,-4,-1,4,0,1
14:28:05:354077,4,47,0,-4,-1,4,0,1
14:28:05:360201,8,-15,-5,-5,14,4,-4,-15
14:28:05:375918,-7,-26,5,-4,-29,-29,2,-10
14:28:05:376634,-7,-26,5,-4,-29,-29,2,-10
14:28:05:382584,3,-6,3,0,1,31,8,-3
14:28:05:390085,-5,3,8,-16,-22,-2,-2,-7
14:28:05:397684,-5,3,8,-16,-22,-2,-2,-7
14:28:05:405294,-11,-27,-49,-18,-24,-11,-12,-11
14:28:05:413347,-3,-6,-26,-14,-8,-6,-9,2
14:28:05:414175,-3,-6,-26,-14,-8,-6,-9,2
14:28:05:420128,3,28,37,-7,5,-2,18,15
14:28:05:435830,7,15,50,19,4,1,-1,11
14:28:05:436590,7,15,50,19,4,1,-1,11
14:28:05:442704,-28,13,-20,17,49,8,-10,3
14:28:05:450090,-5,-4,-21,8,14,-2,1,9
14:28:05:457717,-5,-4,-21,8,14,-2,1,9
14:28:05:465119,3,0,11,-3,-10,-10,-9,-3
14:28:05:473318,-2,-1,11,5,17,15,-3,1
14:28:05:474078,-2,-1,11,5,17,15,-3,1
14:28:05:480144,-1,-5,-14,-9,-15,-12,2,-9
14:28:05:495834,-4,-16,-10,0,10,8,5,-10
14:28:05:496663,-4,-16,-10,0,10,8,5,-10
14:28:05:502592,-7,-3,28,-8,-27,-18,-12,-10
14:28:05:510232,-7,15,-36,19,25,3,2,3
14:28:05:517611,-7,15,-36,19,25,3,2,3
14:28:05:525200,6,-4,-30,-1,-2,12,15,2
14:28:05:533274,4,-27,-20,-14,-19,-4,-4,-8
14:28:05:534057,4,-27,-20,-14,-19,-4,-4,-8
14:28:05:540133,16,16,-19,2,30,20,14,6
14:28:05:555864,-2,2,-9,0,-2,-7,9,-5
14:28:05:556587,-2,2,-9,0,-2,-7,9,-5
14:28:05:562636,-10,-5,-14,-12,1,-5,-5,-1
14:28:05:570135,-14,-28,28,-3,-26,-11,-4,-5
14:28:05:577689,-14,-28,28,-3,-26,-11,-4,-5
14:28:05:585060,-1,0,33,5,-5,6,-6,2
14:28:05:593342,1,9,-4,2,8,13,-9,6
14:28:05:594113,1,9,-4,2,8,13,-9,6
14:28:05:600080,-13,0,-2,0,2,2,-5,-5
14:28:05:615802,7,14,18,-9,-7,-12,-2,-1
14:28:05:616621,7,14,18,-9,-7,-12,-2,-1
14:28:05:622764,-6,5,6,6,5,-26,-5,2
14:28:05:630107,-5,12,22,-2,13,-7,-2,-2
14:28:05:637686,-5,12,22,-2,13,-7,-2,-2
14:28:05:645155,4,6,-17,0,-24,3,-7,-2
14:28:05:653314,11,-11,9,-5,-3,0,-2,4
14:28:05:654154,11,-11,9,-5,-3,0,-2,4
14:28:05:660190,-9,-53,18,3,-5,9,1,5
14:28:05:675893,1,-22,3,-3,13,6,-3,-27
14:28:05:676594,1,-22,3,-3,13,6,-3,-27
14:28:05:682561,3,5,-57,-21,-26,-24,-9,-2
14:28:05:690134,3,-16,-2,-3,16,17,7,5
14:28:05:697657,3,-16,-2,-3,16,17,7,5
14:28:05:705245,2,-31,19,13,15,-7,-1,-10
14:28:05:713310,-15,-8,-18,-11,-16,-6,2,-3
14:28:05:714143,-15,-8,-18,-11,-16,-6,2,-3
14:28:05:720108,0,19,15,6,9,12,-1,-1
14:28:05:735801,4,-17,5,4,-1,8,-5,0
14:28:05:736609,4,-17,5,4,-1,8,-5,0
14:28:05:742612,-6,0,-5,-6,-3,-12,1,-12
14:28:05:750159,-4,5,-6,12,-18,-5,0,11
14:28:05:757757,-4,5,-6,12,-18,-5,0,11
14:28:05:765118,-1,6,-2,-3,0,5,-7,-5
14:28:05:773317,-11,6,-11,-8,-21,1,1,-6
14:28:05:774130,-11,6,-11,-8,-21,1,1,-6
14:28:05:787660,4,7,3,4,13,0,-9,3
14:28:05:795834,-1,13,-9,-19,-8,-24,-10,-2
14:28:05:796622,-1,13,-9,-19,-8,-24,-10,-2
14:28:05:802686,-1,32,-1,11,8,5,7,-2
14:28:05:818346,6,23,17,-1,-6,-4,1,3
14:28:05:819115,6,23,17,-1,-6,-4,1,3
14:28:05:825146,-5,-46,16,1,-2,1,-1,-2
14:28:05:833385,-26,-4,-6,-12,-8,9,5,2
14:28:05:834134,-26,-4,-6,-12,-8,9,5,2
14:28:05:847671,-16,-8,10,-9,-10,3,-6,-11
14:28:05:855849,9,-24,-15,-10,-11,-7,-6,-20
14:28:05:856658,9,-24,-15,-10,-11,-7,-6,-20
14:28:05:862606,12,21,-17,17,37,16,16,5
14:28:05:878417,15,38,0,-2,-16,3,0,-1
14:28:05:879173,15,38,0,-2,-16,3,0,-1
14:28:05:885130,21,18,19,10,-16,-7,-1,9
14:28:05:893394,15,26,15,15,29,11,9,20
14:28:05:894131,15,26,15,15,29,11,9,20
14:28:05:907608,-8,-5,-15,-24,-6,1,-9,5
14:28:05:915821,1,-9,-23,3,16,-16,-3,6
14:28:05:916622,1,-9,-23,3,16,-16,-3,6
14:28:05:922673,6,1,13,7,-7,-4,-27,-7
14:28:05:938350,-13,-3,3,12,6,4,-6,7
14:28:05:939163,-13,-3,3,12,6,4,-6,7
14:28:05:945193,10,-7,-15,-11,-20,-6,-6,-3
14:28:05:953333,10,-7,-15,-11,-20,-6,-6,-3
14:28:05:954109,10,-33,2,16,-2,-5,-4,0
14:28:05:967579,-2,7,24,2,45,14,9,-9
14:28:05:975940,-2,7,24,2,45,14,9,-9
14:28:05:976658,6,-3,-1,-20,-29,-6,12,-2
14:28:05:982589,-2,2,-20,-18,-28,-7,-17,-18
14:28:05:998357,-2,2,-20,-18,-28,-7,-17,-18
14:28:05:999152,-15,2,-12,-4,-6,-2,2,-14
14:28:06:5248,19,3,16,29,20,13,20,24
14:28:06:13333,19,3,16,29,20,13,20,24
14:28:06:14112,-7,-6,18,-8,-16,-10,-10,-6
14:28:06:27733,-17,-15,-52,-10,12,7,8,0
14:28:06:35825,-17,-15,-52,-10,12,7,8,0
14:28:06:36575,7,-19,-18,-14,13,4,-3,3
14:28:06:42703,-13,16,9,28,11,-7,-13,-1
14:28:06:58346,-13,16,9,28,11,-7,-13,-1
14:28:06:59119,0,-7,-13,-14,-16,2,-14,-1
14:28:06:65110,17,-5,-20,-7,-29,-11,9,-2
14:28:06:73322,17,-5,-20,-7,-29,-11,9,-2
14:28:06:74095,0,9,8,17,15,-7,-26,-4
14:28:06:87648,-7,-4,28,-3,-18,-11,4,1
14:28:06:95867,-7,-4,28,-3,-18,-11,4,1
14:28:06:96612,-18,12,-4,3,8,8,8,-2
14:28:06:102587,30,5,15,2,9,-8,25,2
14:28:06:118275,30,5,15,2,9,-8,25,2
14:28:06:119076,-35,14,20,0,-28,-7,8,-3
14:28:06:125157,-34,-5,-11,-17,5,13,-28,-5
14:28:06:133337,-34,-5,-11,-17,5,13,-28,-5
14:28:06:134067,28,12,5,7,33,12,9,2
14:28:06:147632,-2,-18,52,3,-19,16,20,6
14:28:06:155878,-2,-18,52,3,-19,16,20,6
14:28:06:156582,29,-7,-36,-4,-11,-16,-3,3
14:28:06:162639,13,13,-15,-3,10,0,-18,-1
14:28:06:178373,13,13,-15,-3,10,0,-18,-1
14:28:06:179069,28,-10,-56,-14,5,-2,21,-6
14:28:06:185076,-29,-6,-8,5,6,-2,4,-9
14:28:06:193400,-29,-6,-8,5,6,-2,4,-9
14:28:06:194137,-17,-6,31,-4,-13,-3,-9,2
14:28:06:207628,-44,-14,-17,-4,19,-2,6,-3
14:28:06:215828,-44,-14,-17,-4,19,-2,6,-3
14:28:06:216582,2,8,31,29,-3,15,-2,0
14:28:06:222708,-19,-3,26,13,-4,3,0,-2
14:28:06:238397,-19,-3,26,13,-4,3,0,-2
14:28:06:239187,-3,-9,11,-11,-3,31,19,-6
14:28:06:245223,10,13,52,-1,16,1,-4,1
14:28:06:253305,10,13,52,-1,16,1,-4,1
14:28:06:254178,10,0,3,-31,-39,-53,-12,-4
14:28:06:268083,13,-5,32,-12,7,6,8,7
14:28:06:275946,13,-5,32,-12,7,6,8,7
14:28:06:276644,-24,11,21,5,6,1,-5,-2
14:28:06:282631,36,17,-55,-20,-22,-15,13,4
14:28:06:298369,36,17,-55,-20,-22,-15,13,4
14:28:06:299194,14,19,21,25,54,13,-11,6
14:28:06:305242,4,-10,-32,12,-13,-2,-29,-8
14:28:06:313370,4,-10,-32,12,-13,-2,-29,-8
14:28:06:314155,-82,-27,-29,18,33,-4,8,-8
14:28:06:327703,39,3,-6,-11,-9,6,17,2
14:28:06:335843,39,3,-6,-11,-9,6,17,2
14:28:06:336588,-2,-12,42,-9,-36,1,3,-1
14:28:06:342685,-21,-2,51,10,14,13,-7,-2
14:28:06:358382,-21,-2,51,10,14,13,-7,-2
14:28:06:359132,3,-17,-14,-21,-19,-21,-20,-4
14:28:06:365120,-2,3,-6,-7,6,-12,6,1
14:28:06:373383,-2,3,-6,-7,6,-12,6,1
14:28:06:374116,-18,-11,-49,-2,11,1,-1,5
14:28:06:387666,11,-1,25,-6,-27,-16,1,5
14:28:06:395853,11,-1,25,-6,-27,-16,1,5
14:28:06:396639,4,-7,-11,0,-10,-10,9,5
14:28:06:402608,-38,19,30,22,9,-10,12,-1
14:28:06:418316,-38,19,30,22,9,-10,12,-1
14:28:06:419081,6,-2,12,-3,-4,-9,31,3
14:28:06:425202,25,5,-17,-6,-6,-4,-11,0
14:28:06:433343,25,5,-17,-6,-6,-4,-11,0
14:28:06:434103,48,17,8,11,-15,0,-16,7
14:28:06:447609,-34,-22,-17,-23,-2,-5,-15,-15
14:28:06:455960,-34,-22,-17,-23,-2,-5,-15,-15
14:28:06:456618,14,-3,-7,-18,0,17,-5,1
14:28:06:462562,32,-17,-49,6,7,2,-10,1
14:28:06:478423,32,-17,-49,6,7,2,-10,1
14:28:06:479104,-9,29,27,2,-7,-6,2,2
14:28:06:485078,-30,-1,-61,-8,3,-2,5,-2
14:28:06:493461,-30,-1,-61,-8,3,-2,5,-2
14:28:06:494218,24,4,-15,5,3,-7,10,-5
14:28:06:507699,19,8,3,-3,-13,-6,2,-7
14:28:06:515861,19,8,3,-3,-13,-6,2,-7
14:28:06:516642,27,-13,-8,-11,-10,0,-4,2
14:28:06:522688,-26,1,18,8,1,7,-5,-15
14:28:06:546521,-26,1,18,8,1,7,-5,-15
14:28:06:547322,-46,-26,-30,20,1,-4,-16,-8
14:28:06:548122,-12,-21,23,15,-40,-15,-21,1
14:28:06:553316,-12,-21,23,15,-40,-15,-21,1
14:28:06:554088,-12,-20,-21,-22,0,0,-4,-10
14:28:06:567582,6,4,2,-2,0,2,10,4
14:28:06:575910,6,4,2,-2,0,2,10,4
14:28:06:576606,-10,0,50,10,28,4,6,-2
14:28:06:582608,11,11,-42,-24,-25,-2,5,4
14:28:06:598387,11,11,-42,-24,-25,-2,5,4
14:28:06:599142,-11,23,11,-4,-20,2,-6,0
14:28:06:605121,21,-12,27,13,25,-4,2,3
14:28:06:613355,21,-12,27,13,25,-4,2,3
14:28:06:614132,41,7,-25,2,0,-4,1,1
14:28:06:627679,8,3,-5,-8,8,6,8,7
14:28:06:635836,8,3,-5,-8,8,6,8,7
14:28:06:636629,19,-20,-19,-21,3,-14,-1,3
14:28:06:642672,-19,-6,28,-8,-6,-7,-5,-3
14:28:06:658402,-19,-6,28,-8,-6,-7,-5,-3
14:28:06:659115,-66,3,7,8,6,17,-1,-5
14:28:06:665089,-9,-5,-7,18,11,19,23,-3
14:28:06:673420,-9,-5,-7,18,11,19,23,-3
14:28:06:674128,26,5,13,-1,-6,-6,-13,-1
14:28:06:687616,7,20,-44,-18,20,-7,-35,-8
14:28:06:695856,7,20,-44,-18,20,-7,-35,-8
14:28:06:696670,0,10,-12,5,17,22,6,-1
14:28:06:702603,-2,0,3,-5,-29,-8,11,2
14:28:06:718331,-2,0,3,-5,-29,-8,11,2
14:28:06:719092,-89,-5,15,17,11,-2,-9,-10
14:28:06:725131,-4,-13,-46,1,-14,-4,-18,-5
14:28:06:732687,-4,-13,-46,1,-14,-4,-18,-5
14:28:06:740168,25,6,29,-12,-12,6,10,1
14:28:06:747616,-20,3,7,2,-7,-6,22,4
14:28:06:755975,-20,3,7,2,-7,-6,22,4
14:28:06:756627,22,-8,-38,-13,-5,-8,-13,-5
14:28:06:770123,31,-7,9,-24,8,4,4,0
14:28:06:778384,31,-7,9,-24,8,4,4,0
14:28:06:779124,5,-12,-14,-28,-32,21,7,4
14:28:06:785041,-36,10,29,-5,-5,5,8,-1
14:28:06:792762,-36,10,29,-5,-5,5,8,-1
14:28:06:800111,0,1,-30,16,43,-4,-7,-2
14:28:06:807607,-25,5,20,14,-9,-8,-5,-7
14:28:06:815816,-25,5,20,14,-9,-8,-5,-7
14:28:06:816580,-48,-16,-34,-18,-22,-22,3,-1
14:28:06:830113,-10,-18,-3,-5,15,8,-1,-1
14:28:06:838350,-10,-18,-3,-5,15,8,-1,-1
14:28:06:839133,53,19,55,35,8,0,9,8
14:28:06:845189,-13,-16,-17,14,7,-2,-16,-4
14:28:06:852604,-13,-16,-17,14,7,-2,-16,-4
14:28:06:868291,38,6,-29,1,19,9,3,6
14:28:06:869050,62,-1,-20,-7,-3,-4,-17,3
14:28:06:875911,62,-1,-20,-7,-3,-4,-17,3
14:28:06:876637,-11,-16,11,3,-4,-6,-17,-3
14:28:06:890159,51,9,21,1,-1,3,-13,-5
14:28:06:898349,51,9,21,1,-1,3,-13,-5
14:28:06:899150,-8,14,9,-13,-3,-12,11,6
14:28:06:905163,-1,-13,-5,2,5,1,0,8
14:28:06:912677,-1,-13,-5,2,5,1,0,8
14:28:06:920164,15,-2,-7,8,-9,-3,-12,-9
14:28:06:927731,-31,9,-4,6,49,11,15,1
14:28:06:935795,-31,9,-4,6,49,11,15,1
14:28:06:936583,30,5,38,-2,-20,-15,-10,0
14:28:06:950187,-9,-8,4,0,-21,-7,0,-4
14:28:06:966518,-9,-8,4,0,-21,-7,0,-4
14:28:06:967274,-4,2,26,-2,14,10,4,-1
14:28:06:968053,10,10,-10,3,-34,-7,2,-1
14:28:06:972859,10,10,-10,3,-34,-7,2,-1
14:28:06:980158,7,-6,-21,-18,9,11,4,-8
14:28:06:987614,15,1,21,0,-24,-24,-36,4
14:28:06:995873,15,1,21,0,-24,-24,-36,4
14:28:06:996634,14,0,-34,7,-7,3,6,0
14:28:07:10214,-30,-4,11,-1,2,6,21,1
14:28:07:18327,-30,-4,11,-1,2,6,21,1
14:28:07:19098,-53,-3,23,-12,-17,-15,-14,0
14:28:07:25214,-8,6,8,-11,7,1,4,-1
14:28:07:32699,-8,6,8,-11,7,1,4,-1
14:28:07:40142,39,9,-24,1,4,0,5,10
14:28:07:47625,6,2,-61,-34,2,7,-11,-4
14:28:07:55892,6,2,-61,-34,2,7,-11,-4
14:28:07:56571,-2,6,-2,10,4,-12,-20,5
14:28:07:70142,-42,-3,60,6,-2,-4,16,-2
14:28:07:78362,-42,-3,60,6,-2,-4,16,-2
14:28:07:79124,-40,31,-33,-9,-11,3,-5,-9
14:28:07:85125,16,1,-17,5,5,6,11,3
14:28:07:100869,16,1,-17,5,5,6,11,3
14:28:07:101613,1,-3,9,-13,-11,-15,1,3
14:28:07:107668,3,-1,23,1,15,-2,-16,-1
14:28:07:115838,3,-1,23,1,15,-2,-16,-1
14:28:07:116666,20,2,23,-1,-5,18,21,3
14:28:07:130131,-15,7,18,6,15,6,2,-4
14:28:07:138486,-15,7,18,6,15,6,2,-4
14:28:07:139182,-9,4,38,7,0,14,5,0
14:28:07:145157,14,13,39,10,14,8,8,-3
14:28:07:152717,14,13,39,10,14,8,8,-3
14:28:07:160236,-29,-4,43,10,1,0,-16,-1
14:28:07:167600,6,3,-32,-11,-33,7,6,0
14:28:07:175857,6,3,-32,-11,-33,7,6,0
14:28:07:176604,-4,-12,-19,0,22,14,-13,-4
14:28:07:190235,5,9,-36,-10,3,-6,0,-6
14:28:07:198284,5,9,-36,-10,3,-6,0,-6
14:28:07:199062,6,-8,-22,6,-27,-11,0,-1
14:28:07:213350,-16,-29,-1,15,22,-5,-12,-7
14:28:07:214150,-16,-29,-1,15,22,-5,-12,-7
14:28:07:220185,-3,-3,-7,8,22,7,5,-3
14:28:07:227724,-13,-11,-28,4,-12,7,7,-1
14:28:07:235820,-13,-11,-28,4,-12,7,7,-1
14:28:07:236566,3,-21,-19,-17,5,0,29,-6
14:28:07:250131,-41,-20,-2,-7,17,-1,-16,-4
14:28:07:258435,-41,-20,-2,-7,17,-1,-16,-4
14:28:07:259182,4,-3,38,10,3,1,-4,-1
14:28:07:265141,-9,-1,6,-3,-22,-8,-5,-1
14:28:07:272696,-9,-1,6,-3,-22,-8,-5,-1
14:28:07:280182,-12,-13,-13,-4,-1,-24,-23,-4
14:28:07:287666,34,-3,-38,-15,-18,-10,-19,-1
14:28:07:295830,34,-3,-38,-15,-18,-10,-19,-1
14:28:07:296687,19,-1,-87,7,23,5,20,7
14:28:07:310253,31,0,16,-13,-10,2,3,3
14:28:07:318330,31,0,16,-13,-10,2,3,3
14:28:07:319065,-59,-3,12,-7,-2,-4,4,-8
14:28:07:325196,-20,6,-24,6,-15,-8,4,-3
14:28:07:332634,-20,6,-24,6,-15,-8,4,-3
14:28:07:340094,-5,-6,44,27,-21,4,-4,-6
14:28:07:347542,0,-2,-3,-3,-4,-5,8,4
14:28:07:355889,0,-2,-3,-3,-4,-5,8,4
14:28:07:356613,-38,0,5,-4,-39,-18,-24,-4
14:28:07:370134,108,6,-44,14,-6,3,7,17
14:28:07:378385,108,6,-44,14,-6,3,7,17
14:28:07:379124,-46,-9,-64,-41,-14,-12,-19,-21
14:28:07:385044,63,17,92,23,32,3,4,9
14:28:07:392669,63,17,92,23,32,3,4,9
14:28:07:400200,47,4,54,3,25,4,-11,5
14:28:07:407623,7,12,65,5,18,12,15,8
14:28:07:415869,7,12,65,5,18,12,15,8
14:28:07:416648,8,-14,2,2,10,-7,-5,4
14:28:07:430118,-46,2,-10,6,-18,0,-6,-1
14:28:07:438372,-46,2,-10,6,-18,0,-6,-1
14:28:07:439140,-49,1,-8,-13,0,-15,-13,-21
14:28:07:445192,-50,-12,-25,-8,-19,-10,-11,-12
14:28:07:452660,-50,-12,-25,-8,-19,-10,-11,-12
14:28:07:460194,46,13,-22,15,24,20,12,8
14:28:07:467585,-24,-5,-74,-5,-12,-2,-17,-8
14:28:07:476003,-24,-5,-74,-5,-12,-2,-17,-8
14:28:07:476616,1,9,-8,-8,-10,-3,17,12
14:28:07:490202,-38,-15,-6,-4,2,-11,-2,-29
14:28:07:498321,-38,-15,-6,-4,2,-11,-2,-29
14:28:07:499124,21,-1,-8,29,11,20,9,5
14:28:07:505151,-2,-8,-5,-1,0,1,-2,-8
14:28:07:512732,-2,-8,-5,-1,0,1,-2,-8
14:28:07:520124,20,-1,45,-9,-46,-10,8,0
14:28:07:527753,4,-16,12,-10,-1,0,-12,0
14:28:07:535782,4,-16,12,-10,-1,0,-12,0
14:28:07:536620,40,12,-10,-1,-12,-6,7,12
14:28:07:550138,-29,5,19,-6,-12,-5,4,5
14:28:07:558539,-29,5,19,-6,-12,-5,4,5
14:28:07:559190,2,-14,27,-5,-16,-10,-9,-4
14:28:07:565142,-52,-12,-70,-7,19,18,-1,-7
14:28:07:572709,-52,-12,-70,-7,19,18,-1,-7
14:28:07:580184,-15,1,-7,-38,5,0,-3,-11
14:28:07:587646,22,-6,43,2,-9,-9,22,-9
14:28:07:595834,22,-6,43,2,-9,-9,22,-9
14:28:07:596631,-52,-7,31,2,20,14,0,-11
14:28:07:610278,0,13,11,-2,14,-1,-3,9
14:28:07:618324,0,13,11,-2,14,-1,-3,9
14:28:07:619077,31,2,-33,3,8,3,18,7
14:28:07:625230,43,13,8,22,-3,-8,-9,6
14:28:07:632639,43,13,8,22,-3,-8,-9,6
14:28:07:640158,-23,-2,20,-18,-4,-21,-33,-6
14:28:07:647613,6,-21,-90,-35,-21,-1,7,5
14:28:07:655888,6,-21,-90,-35,-21,-1,7,5
14:28:07:656642,25,-2,0,3,3,11,16,9
14:28:07:670127,-58,3,59,9,14,4,-9,-10
14:28:07:678364,-58,3,59,9,14,4,-9,-10
14:28:07:679123,13,2,-51,-5,-4,-2,0,-9
14:28:07:693301,0,-15,43,-4,-10,6,7,5
14:28:07:694082,0,-15,43,-4,-10,6,7,5
14:28:07:700180,14,8,5,25,21,24,8,9
14:28:07:707666,23,1,-15,10,20,-10,7,2
14:28:07:715152,23,1,-15,10,20,-10,7,2
14:28:07:722695,11,1,-14,7,-16,-7,10,-3
14:28:07:730121,-13,15,0,-8,-3,-6,-52,-8
14:28:07:738397,-13,15,0,-8,-3,-6,-52,-8
14:28:07:739101,-72,-23,-12,-34,-4,0,-19,-14
14:28:07:753316,34,5,-5,-17,-1,1,17,3
14:28:07:754108,34,5,-5,-17,-1,1,17,3
14:28:07:760156,12,7,11,4,-10,-16,-5,-9
14:28:07:767557,24,-3,-10,20,25,5,10,4
14:28:07:775230,24,-3,-10,20,25,5,10,4
14:28:07:782611,23,-6,-17,-3,4,16,7,3
14:28:07:790122,-6,1,15,12,-10,-1,-2,6
14:28:07:798360,-6,1,15,12,-10,-1,-2,6
14:28:07:799163,-18,4,11,13,-9,-12,-18,0
14:28:07:813322,47,8,-4,-2,-2,12,1,4
14:28:07:814122,47,8,-4,-2,-2,12,1,4
14:28:07:820093,-13,-20,-80,-11,-16,-4,-3,-2
14:28:07:827673,-27,3,-11,-4,-10,-5,5,7
14:28:07:835146,-27,3,-11,-4,-10,-5,5,7
14:28:07:842683,6,3,5,-4,-3,-15,2,-4
14:28:07:850094,-8,1,3,7,-1,-5,0,-2
14:28:07:858410,-8,1,3,7,-1,-5,0,-2
14:28:07:859163,-14,2,43,-16,18,16,-2,-2
14:28:07:873386,50,5,19,7,5,4,12,5
14:28:07:874142,50,5,19,7,5,4,12,5
14:28:07:880137,20,-4,-10,7,7,-5,-2,-5
14:28:07:887587,52,8,10,-21,-23,-10,0,4
14:28:07:895201,52,8,10,-21,-23,-10,0,4
14:28:07:902599,9,3,-7,11,-27,-21,9,1
14:28:07:910221,7,1,-31,14,19,10,6,1
14:28:07:918308,7,1,-31,14,19,10,6,1
14:28:07:919064,-30,-7,18,-24,-27,-10,1,-1
14:28:07:933708,-9,4,-5,-17,-16,-10,-4,-1
14:28:07:934563,-9,4,-5,-17,-16,-10,-4,-1
14:28:07:940170,23,-6,-8,24,24,7,-2,1
14:28:07:947695,-105,-8,1,-5,-5,23,7,-6
14:28:07:955303,-105,-8,1,-5,-5,23,7,-6
14:28:07:962660,7,4,33,-14,15,7,19,1
14:28:07:970174,-23,-17,-2,-38,-40,-17,-22,-6
14:28:07:978431,-23,-17,-2,-38,-40,-17,-22,-6
14:28:07:979108,-52,3,35,6,-5,-15,-13,-5
14:28:07:993373,21,6,42,4,-14,-11,-12,-3
14:28:07:994158,21,6,42,4,-14,-11,-12,-3
14:28:08:118,62,13,-44,-1,-6,-10,-3,13
14:28:08:7679,-89,-10,-22,17,-16,-4,-11,-11
14:28:08:15189,-89,-10,-22,17,-16,-4,-11,-11
14:28:08:22753,1,9,52,35,22,8,-7,-3
14:28:08:30061,50,16,8,13,12,-12,19,2
14:28:08:38335,50,16,8,13,12,-12,19,2
14:28:08:39100,32,23,-12,15,20,-6,12,7
14:28:08:53285,-17,1,19,4,14,-8,-5,-9
14:28:08:54136,-17,1,19,4,14,-8,-5,-9
14:28:08:60152,-3,-17,13,-22,3,4,-8,3
14:28:08:67542,39,-1,1,7,2,-8,-10,4
14:28:08:75203,39,-1,1,7,2,-8,-10,4
14:28:08:82599,36,8,20,32,-12,6,-5,1
14:28:08:90125,-54,-8,4,-2,-9,-2,-14,-6
14:28:08:98347,-54,-8,4,-2,-9,-2,-14,-6
14:28:08:99125,-43,2,8,-6,7,9,-15,-1
14:28:08:113333,-21,-9,-13,15,12,-3,10,-3
14:28:08:114153,-21,-9,-13,15,12,-3,10,-3
14:28:08:120110,-12,0,4,3,-1,8,-2,-4
14:28:08:127684,53,3,2,-28,4,16,14,8
14:28:08:135142,53,3,2,-28,4,16,14,8
14:28:08:142685,-40,-7,-8,-37,-36,-2,10,2
14:28:08:150118,-34,3,23,6,11,-2,-15,-3
14:28:08:158429,-34,3,23,6,11,-2,-15,-3
14:28:08:159140,41,9,8,-7,-17,-17,-21,-4
14:28:08:173364,24,10,23,8,6,-1,-20,2
14:28:08:174166,24,10,23,8,6,-1,-20,2
14:28:08:180131,18,-11,-21,19,4,3,2,-2
14:28:08:187616,26,-6,13,14,16,6,29,-4
14:28:08:195253,26,-6,13,14,16,6,29,-4
14:28:08:202654,20,2,-25,16,-16,-4,0,2
14:28:08:210147,-7,-12,-10,-6,-18,-12,0,-3
14:28:08:218317,-7,-12,-10,-6,-18,-12,0,-3
14:28:08:219072,-13,-12,-14,10,9,14,-17,-5
14:28:08:233280,-36,-7,15,21,-8,-4,0,-7
14:28:08:234063,-36,-7,15,21,-8,-4,0,-7
14:28:08:240212,-14,-10,-57,-37,10,1,0,5
14:28:08:247661,11,8,-20,-4,-9,-7,-14,5
14:28:08:255231,11,8,-20,-4,-9,-7,-14,5
14:28:08:262652,0,12,12,-10,12,1,8,0
14:28:08:270130,-50,-15,-42,-12,1,-21,-6,-6
14:28:08:278348,-50,-15,-42,-12,1,-21,-6,-6
14:28:08:279102,53,16,21,5,14,3,-2,10
14:28:08:301510,39,1,-57,-37,5,6,-1,6
14:28:08:302281,39,1,-57,-37,5,6,-1,6
14:28:08:303070,-35,-8,48,-16,0,5,-10,-10
14:28:08:307598,15,4,11,-7,12,9,13,-5
14:28:08:315194,15,4,11,-7,12,9,13,-5
14:28:08:322696,14,7,43,33,-6,-2,18,-1
14:28:08:330171,32,-8,1,-9,16,16,19,8
14:28:08:338377,32,-8,1,-9,16,16,19,8
14:28:08:339098,-114,-41,-21,-13,-18,-11,8,-27
14:28:08:353257,2,3,-20,-5,-19,1,19,1
14:28:08:354055,2,3,-20,-5,-19,1,19,1
14:28:08:360238,-13,4,-18,-19,4,-15,-10,3
14:28:08:367611,4,1,-9,4,-8,14,4,4
14:28:08:375177,4,1,-9,4,-8,14,4,4
14:28:08:382620,18,2,-47,-9,-20,-17,-10,6
14:28:08:390188,-5,12,-48,9,1,-1,-8,0
14:28:08:398336,-5,12,-48,9,1,-1,-8,0
14:28:08:399113,-6,-11,2,32,3,-21,8,-11
14:28:08:413315,-5,1,-2,-1,-24,-22,-13,0
14:28:08:414116,-5,1,-2,-1,-24,-22,-13,0
14:28:08:420105,30,6,-2,-16,18,18,-4,-2
14:28:08:427698,-4,-14,22,14,4,-5,-6,3
14:28:08:435138,-4,-14,22,14,4,-5,-6,3
14:28:08:442665,-2,-11,42,5,-3,-4,3,5
14:28:08:450099,33,-1,28,5,9,-3,-15,4
14:28:08:458391,33,-1,28,5,9,-3,-15,4
14:28:08:459176,8,8,27,7,0,3,0,5
14:28:08:473344,-102,-13,15,4,9,2,-35,-13
14:28:08:474092,-102,-13,15,4,9,2,-35,-13
14:28:08:480053,-13,6,10,-17,-7,-7,4,2
14:28:08:487584,48,13,-25,-13,-7,-14,2,-3
14:28:08:495199,48,13,-25,-13,-7,-14,2,-3
14:28:08:502592,-25,-19,-17,-1,-5,8,-1,-3
14:28:08:510211,-35,-10,16,-17,-10,-1,3,-2
14:28:08:518334,-35,-10,16,-17,-10,-1,3,-2
14:28:08:519080,1,-16,-51,3,15,20,17,1
14:28:08:533339,21,-3,-40,-14,-3,2,0,-13
14:28:08:534095,21,-3,-40,-14,-3,2,0,-13
14:28:08:540225,43,6,-5,-6,-5,-10,-3,5
14:28:08:547665,-12,3,32,-16,-7,1,-4,-1
14:28:08:555313,-12,3,32,-16,-7,1,-4,-1
14:28:08:562609,2,-7,6,-2,-8,-16,-6,-2
14:28:08:579017,-15,8,36,-3,9,-6,6,1
14:28:08:579820,-15,8,36,-3,9,-6,6,1
14:28:08:580598,34,4,-11,-11,-4,-12,-16,-2
14:28:08:593431,-60,-10,-16,11,4,-10,-3,-11
14:28:08:594161,-60,-10,-16,11,4,-10,-3,-11
14:28:08:600113,37,-6,-19,9,-4,3,5,4
14:28:08:615817,-32,-2,-9,5,31,20,-12,-5
14:28:08:616607,-32,-2,-9,5,31,20,-12,-5
14:28:08:622666,13,11,-7,13,-11,-2,-17,-1
14:28:08:630122,44,8,36,32,25,14,20,1
14:28:08:637711,44,8,36,32,25,14,20,1
14:28:08:645132,-20,17,42,16,1,-9,8,4
14:28:08:653321,73,4,35,6,-20,-12,-8,12
14:28:08:654116,73,4,35,6,-20,-12,-8,12
14:28:08:660213,-70,-15,-17,3,5,20,12,-11
14:28:08:675932,22,2,5,-1,-5,9,6,6
14:28:08:676618,22,2,5,-1,-5,9,6,6
14:28:08:682574,27,0,-31,-8,-14,-23,-23,-3
14:28:08:690168,-5,-8,-29,-16,-26,-14,-26,-1
14:28:08:697673,-5,-8,-29,-16,-26,-14,-26,-1
14:28:08:705274,38,10,23,0,3,13,13,6
14:28:08:713369,9,-2,-25,-14,2,1,15,3
14:28:08:714160,9,-2,-25,-14,2,1,15,3
14:28:08:720133,-8,10,20,15,4,2,0,-6
14:28:08:735799,-1,-4,-24,-14,-20,-5,7,0
14:28:08:736601,-1,-4,-24,-14,-20,-5,7,0
14:28:08:742714,4,-2,6,-7,18,12,3,4
14:28:08:750132,-59,-13,-9,3,-16,-15,-10,-10
14:28:08:757674,-59,-13,-9,3,-16,-15,-10,-10
14:28:08:765133,-19,1,-33,-3,20,8,-27,5
14:28:08:773374,-60,-28,-67,-5,-3,-4,-14,-14
14:28:08:774083,-60,-28,-67,-5,-3,-4,-14,-14
14:28:08:780184,-52,-10,23,-16,27,10,4,-3
14:28:08:795832,12,14,36,17,-4,7,-7,0
14:28:08:796612,12,14,36,17,-4,7,-7,0
14:28:08:802602,14,5,22,-2,-24,-13,0,3
14:28:08:810212,61,-9,14,1,16,-2,6,-6
14:28:08:817606,61,-9,14,1,16,-2,6,-6
14:28:08:825247,23,-1,1,7,10,11,-13,-2
14:28:08:833348,33,5,17,13,-12,-11,-10,-6
14:28:08:834078,33,5,17,13,-12,-11,-10,-6
14:28:08:840173,-11,12,16,0,-19,4,0,-12
14:28:08:855849,25,-1,-42,-4,24,22,-12,1
14:28:08:856658,25,-1,-42,-4,24,22,-12,1
14:28:08:862681,-18,-17,-52,-29,-25,-7,2,3
14:28:08:870188,-9,21,51,6,5,11,19,4
14:28:08:877761,-9,21,51,6,5,11,19,4
14:28:08:885041,16,3,27,-1,-11,1,-2,-4
14:28:08:893370,-20,17,35,-3,-11,-23,-16,5
14:28:08:894091,-20,17,35,-3,-11,-23,-16,5
14:28:08:900080,33,9,-2,-10,14,-11,18,12
14:28:08:915824,19,-9,6,-20,30,22,15,4
14:28:08:916592,19,-9,6,-20,30,22,15,4
14:28:08:922708,-79,-23,-24,4,-13,-4,-2,-10
14:28:08:930126,18,-19,4,5,-13,-11,-10,2
14:28:08:937647,18,-19,4,5,-13,-11,-10,2
14:28:08:945095,-20,-16,-63,-26,-22,-3,3,-7
14:28:08:953333,17,0,-21,-4,-9,-7,11,6
14:28:08:954137,17,0,-21,-4,-9,-7,11,6
14:28:08:960238,12,5,-11,5,-1,-7,2,2
14:28:08:975920,9,14,3,-4,-5,0,-5,-5
14:28:08:976668,9,14,3,-4,-5,0,-5,-5
14:28:08:982620,23,-1,21,4,-2,-7,-11,-3
14:28:08:990140,13,-3,-20,-3,28,-1,7,0
14:28:08:997703,13,-3,-20,-3,28,-1,7,0
14:28:09:5251,-6,1,-25,1,7,9,14,0
14:28:09:13314,19,-4,16,-4,-17,-11,-6,15
14:28:09:14128,19,-4,16,-4,-17,-11,-6,15
14:28:09:20092,-47,-10,-12,-36,32,-5,0,-4
14:28:09:35847,-75,-5,19,-13,-3,3,3,-8
14:28:09:36612,-75,-5,19,-13,-3,3,3,-8
14:28:09:42679,-27,-1,32,11,-9,-2,-42,-10
14:28:09:50090,2,-8,-28,-7,-3,7,1,4
14:28:09:57714,2,-8,-28,-7,-3,7,1,4
14:28:09:65140,7,15,10,10,-14,-8,3,1
14:28:09:73366,-9,-5,3,17,9,7,-29,-3
14:28:09:74081,-9,-5,3,17,9,7,-29,-3
14:28:09:80193,13,-15,-27,-3,4,-5,-7,-8
14:28:09:95756,14,16,42,13,3,3,9,3
14:28:09:96585,14,16,42,13,3,3,9,3
14:28:09:102576,27,7,48,-7,-5,-8,9,5
14:28:09:110173,-6,5,-10,3,-19,4,14,-9
14:28:09:117611,-6,5,-10,3,-19,4,14,-9
14:28:09:125233,-36,0,-8,1,-18,2,-1,-4
14:28:09:133298,25,-7,-28,-15,3,-5,3,-1
14:28:09:134083,25,-7,-28,-15,3,-5,3,-1
14:28:09:140134,-9,-14,-17,0,13,-6,-15,6
14:28:09:155883,-9,-14,-17,0,13,-6,-15,6
14:28:09:156574,35,6,-13,-2,-22,-3,-1,0
14:28:09:162646,1,-2,-16,2,-2,-7,3,-4
14:28:09:178377,1,-2,-16,2,-2,-7,3,-4
14:28:09:179127,-14,-10,22,-10,2,-7,-7,2
14:28:09:185093,43,8,27,9,17,-2,-1,3
14:28:09:193390,43,8,27,9,17,-2,-1,3
14:28:09:194090,-5,-6,-2,4,10,-3,5,-11
14:28:09:200047,5,2,30,1,-4,7,-27,4
14:28:09:215832,5,2,30,1,-4,7,-27,4
14:28:09:216601,-18,-17,-13,-9,-14,-12,0,-3
14:28:09:222753,-20,2,86,26,-19,-9,2,-1
14:28:09:238372,-20,2,86,26,-19,-9,2,-1
14:28:09:239120,-6,9,76,17,2,18,16,2
14:28:09:245181,-45,-1,-32,-2,-10,7,7,-11
14:28:09:253304,-45,-1,-32,-2,-10,7,7,-11
14:28:09:254059,-8,2,-37,5,3,-1,13,-2
14:28:09:260252,-18,16,-8,2,12,20,7,-2
14:28:09:275939,-18,16,-8,2,12,20,7,-2
14:28:09:276675,10,0,-43,7,10,-11,-6,1
14:28:09:282624,27,11,-5,11,-4,9,22,7
14:28:09:298368,27,11,-5,11,-4,9,22,7
14:28:09:299163,-30,-13,-36,-3,16,14,10,3
14:28:09:305141,40,4,-27,-5,5,-9,1,1
14:28:09:313305,40,4,-27,-5,5,-9,1,1
14:28:09:314093,-14,-12,32,-4,6,-5,-16,-4
14:28:09:320156,-18,-4,5,-11,8,-3,2,0
14:28:09:335836,-18,-4,5,-11,8,-3,2,0
14:28:09:336629,11,3,-25,-14,-16,-17,-26,-5
14:28:09:342728,16,1,-17,20,17,13,6,4
14:28:09:358160,16,1,-17,20,17,13,6,4
14:28:09:365784,9,3,3,-16,-4,-7,0,-4
14:28:09:366532,28,1,-7,2,-3,5,11,4
14:28:09:373384,28,1,-7,2,-3,5,11,4
14:28:09:374112,-5,0,40,22,24,15,10,-2
14:28:09:380126,-14,1,14,8,-3,-9,12,5
14:28:09:395863,-14,1,14,8,-3,-9,12,5
14:28:09:396649,-15,18,-27,7,-19,-3,-1,-7
14:28:09:410158,17,-11,27,-38,-2,3,-1,-10
14:28:09:418313,17,-11,27,-38,-2,3,-1,-10
14:28:09:419103,38,2,-36,-12,8,6,5,19
14:28:09:425114,-24,-16,-31,-9,2,8,-2,2
14:28:09:433309,-24,-16,-31,-9,2,8,-2,2
14:28:09:434114,-33,-13,-15,-14,-34,-16,10,-5
14:28:09:440175,-8,-5,-17,0,20,3,-3,-4
14:28:09:455896,-8,-5,-17,0,20,3,-3,-4
14:28:09:456640,3,-13,-28,7,24,24,9,3
14:28:09:462582,7,11,-2,3,-17,-27,-8,-1
14:28:09:478323,7,11,-2,3,-17,-27,-8,-1
14:28:09:479118,31,10,24,-26,-47,-24,6,0
14:28:09:485057,15,-2,-13,4,8,7,-4,2
14:28:09:493423,15,-2,-13,4,8,7,-4,2
14:28:09:494192,26,1,40,15,-2,5,-13,3
14:28:09:500050,-49,-13,-13,-9,-12,-25,1,-5
14:28:09:515879,-49,-13,-13,-9,-12,-25,1,-5
14:28:09:516671,-61,5,-25,-12,8,-2,-9,-10
14:28:09:522707,43,1,-52,-14,-4,4,-8,-4
14:28:09:538336,43,1,-52,-14,-4,4,-8,-4
14:28:09:539121,2,-4,12,-5,-25,-4,-20,-1
14:28:09:545141,7,4,20,5,16,17,-7,5
14:28:09:553336,7,4,20,5,16,17,-7,5
14:28:09:554065,35,2,-12,-11,-12,-9,2,1
14:28:09:567597,-12,-9,0,-4,-1,1,-11,-2
14:28:09:575949,-12,-9,0,-4,-1,1,-11,-2
14:28:09:576652,9,-9,2,20,10,-4,-25,7
14:28:09:582594,1,11,12,18,10,-2,-4,-4
14:28:09:598362,1,11,12,18,10,-2,-4,-4
14:28:09:599221,-22,-7,-2,8,13,2,-8,-8
14:28:09:605284,14,-8,-9,-5,-21,-11,9,-1
14:28:09:613345,14,-8,-9,-5,-21,-11,9,-1
14:28:09:614125,7,6,28,4,3,-12,4,-2
14:28:09:627708,-44,-5,-3,-15,0,1,19,-6
14:28:09:635799,-44,-5,-3,-15,0,1,19,-6
14:28:09:636577,0,-3,-1,-29,17,10,18,-2
14:28:09:642737,15,4,12,9,7,3,-7,2
14:28:09:658326,15,4,12,9,7,3,-7,2
14:28:09:659055,24,1,-8,15,1,4,2,1
14:28:09:665063,9,0,35,-5,-21,-6,-16,-7
14:28:09:673386,9,0,35,-5,-21,-6,-16,-7
14:28:09:674170,19,0,-70,1,-8,-4,-12,-2
14:28:09:687675,-19,-4,41,9,2,-3,1,-3
14:28:09:695823,-19,-4,41,9,2,-3,1,-3
14:28:09:696588,-15,-2,-54,6,8,11,14,1
14:28:09:702608,28,-6,-4,-6,-13,-3,-15,1
14:28:09:718339,28,-6,-4,-6,-13,-3,-15,1
14:28:09:719116,-20,12,17,-1,8,-3,1,1
14:28:09:725168,-70,-5,-3,-17,-3,3,2,-3
14:28:09:733362,-70,-5,-3,-17,-3,3,2,-3
14:28:09:734070,-28,1,47,1,3,5,-15,1
14:28:09:747657,19,9,-33,1,-5,7,25,-12
14:28:09:764033,19,9,-33,1,-5,7,25,-12
14:28:09:764771,-23,-8,37,-7,-16,-5,18,-1
14:28:09:765565,5,1,-2,10,-3,-1,2,7
14:28:09:770167,5,1,-2,10,-3,-1,2,7
14:28:09:777676,48,-5,-19,-18,1,-2,-4,-2
14:28:09:785112,9,-3,-5,3,-4,-1,3,1
14:28:09:793368,9,-3,-5,3,-4,-1,3,1
14:28:09:794045,-3,5,18,-3,25,-2,6,-9
14:28:09:807589,-46,-7,17,-11,11,2,-9,-10
14:28:09:815854,-46,-7,17,-11,11,2,-9,-10
14:28:09:816653,28,6,28,21,-6,-2,5,6
14:28:09:822708,27,3,-6,3,-9,-17,1,12
14:28:09:830168,27,3,-6,3,-9,-17,1,12
14:28:09:837614,-4,1,13,-13,-9,-3,-13,-4
14:28:09:845165,8,-7,-5,12,17,4,9,1
14:28:09:860927,8,-7,-5,12,17,4,9,1
14:28:09:861669,-57,-4,11,3,-15,1,3,-3
14:28:09:867567,19,-1,80,28,3,7,-7,5
14:28:09:875910,19,-1,80,28,3,7,-7,5
14:28:09:876709,22,-4,-10,-14,-5,-15,-6,-6
14:28:09:882643,-32,12,-3,7,13,4,10,-2
14:28:09:890251,-32,12,-3,7,13,4,10,-2
14:28:09:905865,15,-3,-12,-3,-16,-11,-10,2
14:28:09:906535,-27,-9,-26,-18,-1,-2,-12,-1
14:28:09:913426,-27,-9,-26,-18,-1,-2,-12,-1
14:28:09:914152,-27,-3,-9,25,8,12,2,-11
14:28:09:927746,30,3,-20,-14,-14,-11,-6,-1
14:28:09:935838,30,3,-20,-14,-14,-11,-6,-1
14:28:09:936650,-13,2,34,9,15,-3,-7,6
14:28:09:950783,18,2,-4,-9,-20,-9,-1,-5
14:28:09:951624,18,2,-4,-9,-20,-9,-1,-5
14:28:09:957602,28,-12,-69,0,-3,8,-8,6
14:28:09:965155,-21,1,-13,-20,-3,3,-18,1
14:28:09:973452,-21,1,-13,-20,-3,3,-18,1
14:28:09:974127,-23,-9,-49,-17,-24,-9,2,-6
14:28:09:996485,-25,-13,-34,13,25,9,2,-6
14:28:09:997304,-25,-13,-34,13,25,9,2,-6
14:28:09:998086,-1,8,-14,-7,-6,-5,-15,-3
14:28:10:2562,42,12,-14,-7,-16,-9,5,4
14:28:10:10239,42,12,-14,-7,-16,-9,5,4
14:28:10:17576,19,6,-6,10,-12,-14,5,2
14:28:10:25112,-3,-12,36,11,23,10,-2,-4
14:28:10:40823,-3,-12,36,11,23,10,-2,-4
14:28:10:41599,41,0,-5,0,8,4,10,5
14:28:10:47550,-55,-8,-3,4,-5,-9,-3,-7
14:28:10:55989,-55,-8,-3,4,-5,-9,-3,-7
14:28:10:56624,-51,0,34,-12,-17,-2,-9,-7
14:28:10:62689,31,3,-4,4,-1,4,10,2
14:28:10:70203,31,3,-4,4,-1,4,10,2
14:28:10:77692,-4,-2,38,6,14,-5,1,9
14:28:10:85063,-82,-3,-72,-23,-22,-7,-4,-4
14:28:10:93471,-82,-3,-72,-23,-22,-7,-4,-4
14:28:10:94212,-25,20,12,1,-6,9,9,-5
14:28:10:107618,-3,1,9,-11,28,0,8,2
14:28:10:115889,-3,1,9,-11,28,0,8,2
14:28:10:116685,-3,-6,-18,-17,1,-13,0,0
14:28:10:122651,56,14,33,10,1,1,-48,2
14:28:10:130195,56,14,33,10,1,1,-48,2
14:28:10:137648,33,-15,-8,-18,-6,0,9,-5
14:28:10:145217,26,-2,-11,11,11,4,12,8
14:28:10:153271,26,-2,-11,11,11,4,12,8
14:28:10:154080,-7,1,36,20,3,2,-5,-3
14:28:10:167632,-74,-10,-2,-15,2,5,8,-8
14:28:10:183980,-74,-10,-2,-15,2,5,8,-8
14:28:10:184734,-3,0,-36,8,15,8,8,-4
14:28:10:185562,28,2,-2,1,-27,-15,6,2
14:28:10:190236,28,2,-2,1,-27,-15,6,2
14:28:10:197629,-31,-15,3,-3,9,-1,19,0
14:28:10:205280,28,5,-9,5,-23,-7,-11,3
14:28:10:213365,28,5,-9,5,-23,-7,-11,3
14:28:10:214186,-3,11,25,25,17,16,8,3
14:28:10:228177,-73,-17,24,-13,-33,-19,8,-15
14:28:10:235804,-73,-17,24,-13,-33,-19,8,-15
14:28:10:236632,4,-21,3,-8,-11,9,-6,-10
14:28:10:242700,29,0,-23,3,38,20,3,1
14:28:10:250184,29,0,-23,3,38,20,3,1
14:28:10:257681,36,21,27,10,0,-1,-34,4
14:28:10:274018,22,-3,55,26,8,-3,-2,-4
14:28:10:274809,22,-3,55,26,8,-3,-2,-4
14:28:10:275594,7,-2,-14,-10,5,3,18,2
14:28:10:287595,49,14,28,4,14,1,-4,7
14:28:10:295859,49,14,28,4,14,1,-4,7
14:28:10:296616,39,6,-1,-12,-17,-1,-3,4
14:28:10:318921,28,0,-9,-11,-16,-7,8,6
14:28:10:319714,28,0,-9,-11,-16,-7,8,6
14:28:10:320547,-28,-17,-49,-11,-13,-11,-5,0
14:28:10:325176,-18,2,-15,0,-2,5,-12,-4
14:28:10:333310,-18,2,-15,0,-2,5,-12,-4
14:28:10:334067,7,-5,1,9,34,20,12,3
14:28:10:347654,-19,-6,-13,0,-17,5,17,-4
14:28:10:355848,-19,-6,-13,0,-17,5,17,-4
14:28:10:356609,-31,12,-13,-4,-14,-8,-12,13
14:28:10:362617,-7,3,6,11,21,-4,4,0
14:28:10:370225,-7,3,6,11,21,-4,4,0
14:28:10:377710,14,-2,4,3,15,-10,-13,-3
14:28:10:385108,24,4,-5,-11,-19,-10,-2,8
14:28:10:393376,24,4,-5,-11,-19,-10,-2,8
14:28:10:394087,-18,-22,-57,-18,-1,-5,2,-5
14:28:10:407670,8,-3,-25,-11,11,-13,-4,3
14:28:10:415844,8,-3,-25,-11,11,-13,-4,3
14:28:10:416620,-20,8,29,2,-18,-13,-1,-6
14:28:10:430772,-16,-2,-4,-3,-24,-5,1,-2
14:28:10:431606,-16,-2,-4,-3,-24,-5,1,-2
14:28:10:437644,-18,-6,60,4,-15,5,2,-10
14:28:10:445206,0,-1,-12,13,18,3,-11,-4
14:28:10:460909,0,-1,-12,13,18,3,-11,-4
14:28:10:461665,44,3,8,0,-7,-14,-1,-2
14:28:10:476574,43,4,11,-8,-17,-1,12,2
14:28:10:477264,43,4,11,-8,-17,-1,12,2
14:28:10:478084,-10,-33,-18,7,18,10,-7,-4
14:28:10:482572,13,-8,-52,-22,-6,-3,-7,-7
14:28:10:490210,13,-8,-52,-22,-6,-3,-7,-7
14:28:10:505857,-46,8,27,13,1,4,3,-14
14:28:10:506570,-14,3,18,-6,-20,-14,-1,-1
14:28:10:512687,-14,3,18,-6,-20,-14,-1,-1
14:28:10:520099,-4,2,-39,-3,7,3,-21,-10
14:28:10:527692,2,0,-6,13,38,17,-9,4
14:28:10:535755,2,0,-6,13,38,17,-9,4
14:28:10:536548,-4,-9,26,-7,-20,11,8,3
14:28:10:550802,4,-9,-19,2,0,1,-3,-2
14:28:10:551616,4,-9,-19,2,0,1,-3,-2
14:28:10:557624,17,14,14,6,2,-2,6,6
14:28:10:565173,-45,-3,-6,-25,-12,-15,-52,-4
14:28:10:572747,-45,-3,-6,-25,-12,-15,-52,-4
14:28:10:580170,-30,-1,-17,-11,4,4,11,-4
14:28:10:596451,-20,-13,7,1,-3,2,8,-7
14:28:10:597300,-20,-13,7,1,-3,2,8,-7
14:28:10:598128,-15,18,7,7,5,5,-15,9
14:28:10:610973,-17,-2,-15,3,7,36,32,-4
14:28:10:611657,-17,-2,-15,3,7,36,32,-4
14:28:10:617557,47,1,16,2,-8,-12,-6,9
14:28:10:625163,27,8,17,2,-6,-4,8,-6
14:28:10:632667,27,8,17,2,-6,-4,8,-6
14:28:10:640177,-6,5,3,7,2,0,3,7
14:28:10:647648,27,-6,1,-2,2,-7,-9,0
14:28:10:655911,27,-6,1,-2,2,-7,-9,0
14:28:10:656554,0,-3,31,-5,-12,-28,-11,-8
14:28:10:670737,14,6,5,8,0,-2,37,3
14:28:10:671582,14,6,5,8,0,-2,37,3
14:28:10:677657,19,2,1,-9,-3,-2,12,-3
14:28:10:685153,11,6,-10,-8,-4,14,2,5
14:28:10:692724,11,6,-10,-8,-4,14,2,5
14:28:10:700092,-21,-4,-22,0,14,13,6,2
14:28:10:707621,9,3,6,-8,-12,-14,-4,5
14:28:10:715803,9,3,6,-8,-12,-14,-4,5
14:28:10:716635,-41,1,-11,5,12,-3,-17,-7
14:28:10:739036,-8,-9,47,-11,-23,-12,-1,5
14:28:10:739791,-8,-9,47,-11,-23,-12,-1,5
14:28:10:740590,9,-35,-20,6,10,6,14,7
14:28:10:745097,4,-7,-6,1,5,-5,-19,-1
14:28:10:752614,4,-7,-6,1,5,-5,-19,-1
14:28:10:760243,-1,1,-18,-4,-9,-5,-19,-3
14:28:10:767581,2,-2,-23,16,15,6,-8,2
14:28:10:783352,2,-2,-23,16,15,6,-8,2
14:28:10:784109,25,10,-2,-10,17,11,-6,-6
14:28:10:790757,31,16,44,20,1,3,-3,-4
14:28:10:791594,31,16,44,20,1,3,-3,-4
14:28:10:797625,28,-1,-43,-13,-11,-8,-13,1
14:28:10:805268,-35,-11,1,22,18,11,2,-4
14:28:10:812625,-35,-11,1,22,18,11,2,-4
14:28:10:828302,-53,-16,30,-8,-17,-19,6,-6
14:28:10:829060,-18,0,-15,3,15,-13,-14,-9
14:28:10:835754,-18,0,-15,3,15,-13,-14,-9
14:28:10:836594,-36,-11,34,-5,-12,-29,3,5
14:28:10:850809,26,2,5,-3,-5,9,30,10
14:28:10:851611,26,2,5,-3,-5,9,30,10
14:28:10:857609,7,14,44,-5,-2,10,8,-3
14:28:10:873309,-29,-10,10,-17,6,-8,-8,0
14:28:10:874079,-29,-10,10,-17,6,-8,-8,0
14:28:10:880095,46,-1,-7,20,12,36,0,0
14:28:10:887574,6,8,-55,-20,-30,0,-4,8
14:28:10:895842,6,8,-55,-20,-30,0,-4,8
14:28:10:896669,26,0,55,17,5,-30,-9,1
14:28:10:910954,30,9,26,6,14,6,10,2
14:28:10:911650,30,9,26,6,14,6,10,2
14:28:10:917564,27,11,-19,-10,-10,8,9,8
14:28:10:925162,-73,-8,4,-7,-4,-4,-5,-14
14:28:10:932693,-73,-8,4,-7,-4,-4,-5,-14
14:28:10:940130,-34,1,-45,-6,0,8,6,-1
14:28:10:947599,33,7,-6,4,0,-5,-20,1
14:28:10:955859,33,7,-6,4,0,-5,-20,1
14:28:10:956583,-1,-8,-84,-28,4,3,-22,-5
14:28:10:970814,36,3,-12,5,-5,5,11,2
14:28:10:971620,36,3,-12,5,-5,5,11,2
14:28:10:977729,18,15,18,-2,-23,-25,-5,0
14:28:10:985051,3,10,15,-9,4,-4,-18,-1
14:28:10:992761,3,10,15,-9,4,-4,-18,-1
14:28:11:138,-71,-17,-16,-23,4,12,20,-16
14:28:11:7663,-36,-10,-26,-13,-20,-1,12,6
14:28:11:15842,-36,-10,-26,-13,-20,-1,12,6
14:28:11:16606,29,3,19,-5,4,8,-6,5
14:28:11:30758,7,-3,-5,8,-4,1,-7,-11
14:28:11:31609,7,-3,-5,8,-4,1,-7,-11
14:28:11:37641,18,-9,-7,15,1,-11,-4,-4
14:28:11:45196,25,-1,4,-8,-13,-13,-4,-17
14:28:11:52659,25,-1,4,-8,-13,-13,-4,-17
14:28:11:60105,-22,-2,21,17,40,12,-19,-2
14:28:11:67567,29,-7,4,-17,20,-9,-11,4
14:28:11:75898,29,-7,4,-17,20,-9,-11,4
14:28:11:76642,22,5,26,13,-15,5,10,1
14:28:11:90778,-41,-8,-35,-4,-23,-8,-18,-6
14:28:11:91555,-41,-8,-35,-4,-23,-8,-18,-6
14:28:11:97618,-76,1,3,13,7,12,22,-3
14:28:11:105114,-28,2,13,10,12,16,13,3
14:28:11:112679,-28,2,13,10,12,16,13,3
14:28:11:120110,30,-12,-83,-12,-19,-4,11,3
14:28:11:127702,-3,-16,-14,-7,-6,-11,-3,0
14:28:11:135821,-3,-16,-14,-7,-6,-11,-3,0
14:28:11:136622,32,7,6,-12,-6,-6,-18,-1
14:28:11:150768,10,9,29,-12,4,3,9,5
14:28:11:151598,10,9,29,-12,4,3,9,5
14:28:11:157615,57,2,3,-1,-7,-14,-31,0
14:28:11:165109,-18,1,-8,-2,11,7,2,-2
14:28:11:180848,-18,1,-8,-2,11,7,2,-2
14:28:11:181599,-94,-11,-40,-12,-16,-12,-15,-11
14:28:11:187580,18,11,12,19,-1,3,10,3
14:28:11:195835,18,11,12,19,-1,3,10,3
14:28:11:196653,-10,-18,1,5,1,-8,-4,-5
14:28:11:210829,-9,-2,-51,-5,-1,-14,3,0
14:28:11:211633,-9,-2,-51,-5,-1,-14,3,0
14:28:11:217543,42,0,6,4,0,17,19,4
14:28:11:225178,35,4,47,8,5,-11,-5,2
14:28:11:232679,35,4,47,8,5,-11,-5,2
14:28:11:240172,26,7,27,17,0,5,11,10
14:28:11:247626,3,10,22,8,-10,-2,-4,2
14:28:11:255951,3,10,22,8,-10,-2,-4,2
14:28:11:256607,-39,7,22,15,7,1,11,-2
14:28:11:270789,-15,20,28,5,12,11,-4,-2
14:28:11:271590,-15,20,28,5,12,11,-4,-2
14:28:11:277633,23,-1,-13,8,2,5,-9,-12
14:28:11:285058,13,-19,-11,-8,18,1,-5,-4
14:28:11:292783,13,-19,-11,-8,18,1,-5,-4
14:28:11:308338,5,5,3,-8,-11,-5,19,4
14:28:11:309040,-1,0,34,13,-22,1,9,-2
14:28:11:315796,-1,0,34,13,-22,1,9,-2
14:28:11:316638,-17,-6,8,-23,8,-5,-6,0
14:28:11:330783,-29,-26,-73,-25,-27,-6,10,4
14:28:11:331616,-29,-26,-73,-25,-27,-6,10,4
14:28:11:337573,27,-7,4,-6,-3,-4,-9,2
14:28:11:345172,11,2,28,2,6,-5,25,4
14:28:11:352653,11,2,28,2,6,-5,25,4
14:28:11:360164,-88,14,8,-11,2,2,1,-9
14:28:11:367558,15,-7,-26,15,-6,0,9,-3
14:28:11:375903,15,-7,-26,15,-6,0,9,-3
14:28:11:376594,21,7,2,1,-15,-7,5,-2
14:28:11:390777,4,-4,-23,0,32,15,-18,-3
14:28:11:391647,4,-4,-23,0,32,15,-18,-3
14:28:11:397614,35,9,-33,-3,-12,-18,4,0
14:28:11:405214,42,12,13,3,-27,-16,-35,-3
14:28:11:412720,42,12,13,3,-27,-16,-35,-3
14:28:11:420099,0,7,12,5,6,3,2,-3
14:28:11:427665,-50,13,-21,-17,0,0,14,-8
14:28:11:435785,-50,13,-21,-17,0,0,14,-8
14:28:11:436576,-14,-26,-41,-18,-11,6,-15,1
14:28:11:450830,-2,-1,27,-9,-2,7,0,-4
14:28:11:451646,-2,-1,27,-9,-2,7,0,-4
14:28:11:457624,3,4,13,3,1,-4,-4,1
14:28:11:473405,11,-17,6,-7,-8,-15,2,4
14:28:11:474167,11,-17,6,-7,-8,-15,2,4
14:28:11:480125,4,6,37,8,13,3,-1,-6
14:28:11:487657,30,-2,19,-10,-15,5,11,-6
14:28:11:495189,30,-2,19,-10,-15,5,11,-6
14:28:11:502712,-18,-3,19,20,48,6,-9,2
14:28:11:510730,-39,-3,-47,-1,3,0,-10,-6
14:28:11:511587,-39,-3,-47,-1,3,0,-10,-6
14:28:11:517604,8,0,8,-7,-28,-4,21,-3
14:28:11:533327,30,4,23,22,23,13,4,8
14:28:11:534121,30,4,23,22,23,13,4,8
14:28:11:540183,-49,-10,-15,5,-1,7,-4,-13
14:28:11:547640,-97,-11,-20,-16,-11,-5,-15,-3
14:28:11:555283,-97,-11,-20,-16,-11,-5,-15,-3
14:28:11:562644,16,-4,-11,-4,-7,-5,-4,7
14:28:11:570763,-25,2,12,-4,2,-10,-21,-9
14:28:11:571601,-25,2,12,-4,2,-10,-21,-9
14:28:11:585118,-8,-5,-39,-14,1,-18,-6,5
14:28:11:593325,-30,-7,28,9,-16,-2,-9,3
14:28:11:594114,-30,-7,28,9,-16,-2,-9,3
14:28:11:600143,31,-10,-34,-4,-9,4,6,-1
14:28:11:607617,20,-6,-24,0,6,13,24,1
14:28:11:615174,20,-6,-24,0,6,13,24,1
14:28:11:622743,-5,6,16,3,0,5,3,-1
14:28:11:630815,16,-1,8,-10,10,6,-2,-15
14:28:11:631617,16,-1,8,-10,10,6,-2,-15
14:28:11:637629,37,12,11,-9,-1,-7,2,4
14:28:11:653285,36,7,-35,3,-17,-8,6,8
14:28:11:654124,36,7,-35,3,-17,-8,6,8
14:28:11:660197,-18,-8,-18,15,-5,-1,-1,5
14:28:11:667614,-34,7,11,19,25,9,0,-3
14:28:11:675229,-34,7,11,19,25,9,0,-3
14:28:11:682624,-5,5,-2,-4,-5,-21,-17,2
14:28:11:690789,-32,-10,-21,-24,-19,-14,10,-10
14:28:11:691599,-32,-10,-21,-24,-19,-14,10,-10
14:28:11:697619,2,5,-7,3,0,16,-37,-7
14:28:11:713286,26,3,13,4,11,10,11,-4
14:28:11:714116,26,3,13,4,11,10,11,-4
14:28:11:720070,-11,2,-4,7,-6,-6,3,1
14:28:11:727629,40,1,-5,13,-16,-5,-14,11
14:28:11:735144,40,1,-5,13,-16,-5,-14,11
14:28:11:742649,18,3,15,-9,-11,-9,2,2
14:28:11:750766,-63,-5,15,4,-14,-12,-3,-7
14:28:11:751591,-63,-5,15,4,-14,-12,-3,-7
14:28:11:757634,3,5,16,-6,-6,11,-26,-5
14:28:11:773376,24,0,20,5,1,10,8,-6
14:28:11:774121,24,0,20,5,1,10,8,-6
14:28:11:780144,-12,-5,-28,-9,-3,-15,13,3
14:28:11:787615,38,-2,-12,1,15,18,3,5
14:28:11:795217,38,-2,-12,1,15,18,3,5
14:28:11:802628,-34,-12,-13,-6,-5,12,11,-7
14:28:11:810832,7,3,5,-4,-4,-21,-6,11
14:28:11:811584,7,3,5,-4,-4,-21,-6,11
14:28:11:817590,18,-3,3,-2,9,2,6,2
14:28:11:833338,5,-4,-19,-14,-7,-7,-5,-3
14:28:11:834081,5,-4,-19,-14,-7,-7,-5,-3
14:28:11:840157,21,-8,8,-6,8,-26,8,2
14:28:11:847630,6,11,14,-14,17,16,23,2
14:28:11:855247,6,11,14,-14,17,16,23,2
14:28:11:862650,1,-13,-11,-17,-19,-14,10,-5
14:28:11:870828,-15,10,5,-11,-26,-19,-16,-2
14:28:11:871638,-15,10,5,-11,-26,-19,-16,-2
14:28:11:877602,21,2,27,10,-3,-1,5,-2
14:28:11:893304,8,-21,-24,2,12,-1,-42,2
14:28:11:894128,8,-21,-24,2,12,-1,-42,2
14:28:11:908286,0,-8,-5,-6,5,17,11,2
14:28:11:909084,28,1,44,-2,-14,17,4,-1
14:28:11:915208,28,1,44,-2,-14,17,4,-1
14:28:11:922632,-17,13,15,4,-7,-21,0,-2
14:28:11:930703,16,2,-55,15,26,-12,27,7
14:28:11:931590,16,2,-55,15,26,-12,27,7
14:28:11:937740,-4,-17,-39,-13,2,7,-3,-2
14:28:11:953324,-31,4,20,-1,-25,-15,-13,-10
14:28:11:954157,-31,4,20,-1,-25,-15,-13,-10
14:28:11:960159,6,-7,5,2,-5,11,-6,0
14:28:11:967587,-9,-6,-11,8,17,13,7,-5
14:28:11:975198,-9,-6,-11,8,17,13,7,-5
14:28:11:982666,4,-11,-13,-4,-7,-6,-1,-8
14:28:11:990791,-4,-4,23,-8,-20,-15,-8,0
14:28:11:991574,-4,-4,23,-8,-20,-15,-8,0
14:28:11:997590,4,10,26,-1,-2,20,4,0
14:28:12:13287,10,1,2,12,16,-7,-12,4
14:28:12:14099,10,1,2,12,16,-7,-12,4
14:28:12:20117,36,6,20,16,32,4,-5,-11
14:28:12:27713,29,8,-22,-1,0,-2,-15,11
14:28:12:35141,29,8,-22,-1,0,-2,-15,11
14:28:12:42583,-1,4,9,15,-8,8,7,-7
14:28:12:50756,-1,-7,-22,2,27,1,-8,6
14:28:12:51576,-1,-7,-22,2,27,1,-8,6
14:28:12:57564,4,13,12,6,6,13,4,8
14:28:12:73302,-37,-12,13,10,-27,-6,5,-3
14:28:12:74138,-37,-12,13,10,-27,-6,5,-3
14:28:12:80108,-22,-2,-2,-8,-10,-9,-7,-3
14:28:12:87557,2,17,-5,6,-4,-5,0,-2
14:28:12:95193,2,17,-5,6,-4,-5,0,-2
14:28:12:102593,-51,-3,8,-11,5,-4,3,1
14:28:12:110913,-2,11,29,0,20,6,-17,-7
14:28:12:111653,-2,11,29,0,20,6,-17,-7
14:28:12:117619,13,-4,-19,12,-11,-34,-14,5
14:28:12:133276,-53,-13,-16,-11,-7,1,13,-3
14:28:12:134105,-53,-13,-16,-11,-7,1,13,-3
14:28:12:140097,-36,7,-8,-1,-2,-3,-5,1
14:28:12:147593,49,2,19,-1,-1,0,-1,-1
14:28:12:155297,49,2,19,-1,-1,0,-1,-1
14:28:12:162632,27,5,3,-7,-8,5,7,5
14:28:12:170804,-26,-17,-27,-21,-23,1,-17,-7
14:28:12:171610,-26,-17,-27,-21,-23,1,-17,-7
14:28:12:177663,48,2,30,-8,4,25,2,-10
14:28:12:193376,16,5,2,7,9,16,21,0
14:28:12:194112,16,5,2,7,9,16,21,0
14:28:12:200101,-57,-5,-18,-4,-13,-8,7,1
14:28:12:207655,-1,3,-33,6,-2,17,-4,3
14:28:12:215210,-1,3,-33,6,-2,17,-4,3
14:28:12:222677,24,10,-15,-6,10,17,9,2
14:28:12:230765,-39,-11,6,1,3,-15,5,-4
14:28:12:231606,-39,-11,6,1,3,-15,5,-4
14:28:12:237619,-8,2,8,15,9,-8,-11,7
14:28:12:253296,10,-5,-12,-14,-7,-2,-3,-2
14:28:12:254103,10,-5,-12,-14,-7,-2,-3,-2
14:28:12:260176,-5,-15,9,-3,-12,8,-18,-7
14:28:12:267572,5,2,-4,2,-7,-5,5,4
14:28:12:275176,5,2,-4,2,-7,-5,5,4
14:28:12:282661,-32,-11,-18,-14,5,4,23,-2
14:28:12:290883,-56,-11,7,8,9,-2,-9,-7
14:28:12:291598,-56,-11,7,8,9,-2,-9,-7
14:28:12:297623,13,7,-22,6,7,1,6,1
14:28:12:313312,-4,-2,-18,-15,2,7,2,-9
14:28:12:314122,-4,-2,-18,-15,2,7,2,-9
14:28:12:320155,-16,-2,-16,13,-15,-2,0,-6
14:28:12:327738,54,5,41,-4,-5,-3,-18,-2
14:28:12:335118,54,5,41,-4,-5,-3,-18,-2
14:28:12:342662,-24,-1,-3,-6,-13,-3,6,0
14:28:12:350764,15,6,21,-9,8,2,5,5
14:28:12:351580,15,6,21,-9,8,2,5,5
14:28:12:357634,29,-12,-6,20,23,-15,-8,0
14:28:12:373443,29,-12,-6,20,23,-15,-8,0
14:28:12:374138,2,7,15,0,-13,-6,34,3
14:28:12:380123,44,17,16,-1,-4,11,-1,3
14:28:12:395834,44,17,16,-1,-4,11,-1,3
14:28:12:396634,-11,-13,-18,5,2,-10,-33,-13
14:28:12:402637,20,7,-12,13,8,1,4,7
14:28:12:418285,20,7,-12,13,8,1,4,7
14:28:12:419043,-7,7,-3,-11,-7,4,20,3
14:28:12:425142,-28,6,19,12,28,18,-35,-2
14:28:12:433325,-28,6,19,12,28,18,-35,-2
14:28:12:434092,-24,10,-1,-4,-28,-18,9,-3
14:28:12:440239,-7,7,-7,-16,-12,-3,-3,-2
14:28:12:455902,-7,7,-7,-16,-12,-3,-3,-2
14:28:12:456618,-48,-14,9,-12,-6,-13,-27,-12
14:28:12:462676,-39,-12,-21,-38,-24,-18,-3,-7
14:28:12:470790,-39,-12,-21,-38,-24,-18,-3,-7
14:28:12:471636,61,7,14,20,28,-1,12,7
14:28:12:485134,34,-9,-20,-9,-3,-19,-28,0
14:28:12:493366,34,-9,-20,-9,-3,-19,-28,0
14:28:12:494058,-20,-7,-15,9,4,-7,-4,-1
14:28:12:500141,17,-15,-28,-7,-10,-10,-4,0
14:28:12:515891,17,-15,-28,-7,-10,-10,-4,0
14:28:12:516625,16,7,-2,1,8,7,6,0
14:28:12:522687,-27,-13,-22,1,-12,18,26,-1
14:28:12:530852,-27,-13,-22,1,-12,18,26,-1
14:28:12:531576,-8,-10,-41,-9,-14,13,11,-4
14:28:12:545187,17,8,42,-2,5,-1,1,0
14:28:12:553291,17,8,42,-2,5,-1,1,0
14:28:12:554093,-8,3,39,10,12,3,-17,3
14:28:12:560222,-2,5,11,-10,4,-8,-16,-4
14:28:12:575923,-2,5,11,-10,4,-8,-16,-4
14:28:12:576626,6,-2,13,-19,-6,0,2,1
14:28:12:582596,-16,-10,60,5,2,-3,-4,0
14:28:12:590824,-16,-10,60,5,2,-3,-4,0
14:28:12:591559,-13,-6,4,-14,-8,1,-14,-5
14:28:12:605177,4,3,-21,-14,7,12,2,3
14:28:12:613344,4,3,-21,-14,7,12,2,3
14:28:12:614102,9,3,7,-5,-14,-16,15,-2
14:28:12:620105,-10,2,-24,17,31,4,21,3
14:28:12:635841,-10,2,-24,17,31,4,21,3
14:28:12:636598,10,-5,-30,14,14,1,2,5
14:28:12:642746,16,-5,-49,-8,-22,-16,-2,-7
14:28:12:650849,16,-5,-49,-8,-22,-16,-2,-7
14:28:12:651615,11,0,-30,-2,-15,5,-8,5
14:28:12:665114,-15,-1,24,15,6,-4,-6,1
14:28:12:673367,-15,-1,24,15,6,-4,-6,1
14:28:12:674139,-35,-24,-44,-16,-9,-9,-14,-4
14:28:12:680142,10,11,-4,-3,8,-4,-6,0
14:28:12:695861,10,11,-4,-3,8,-4,-6,0
14:28:12:696635,18,21,0,0,24,15,16,5
14:28:12:702612,-7,0,36,-4,-15,2,15,-2
14:28:12:710945,-7,0,36,-4,-15,2,15,-2
14:28:12:711637,-2,-4,7,11,-3,6,-10,-5
14:28:12:725132,-3,-13,9,9,8,14,-7,-3
14:28:12:733334,-3,-13,9,9,8,14,-7,-3
14:28:12:734080,-10,-3,-51,-11,-19,-23,-11,-1
14:28:12:740096,-67,-9,29,4,-7,-7,-9,-5
14:28:12:755915,-67,-9,29,4,-7,-7,-9,-5
14:28:12:756596,-6,3,-22,-8,-5,5,9,1
14:28:12:762602,33,19,25,5,-6,-5,-17,1
14:28:12:770828,33,19,25,5,-6,-5,-17,1
14:28:12:771636,44,-5,36,-1,1,5,6,6
14:28:12:785093,-40,-7,-16,10,0,-3,8,-7
14:28:12:793422,-40,-7,-16,10,0,-3,8,-7
14:28:12:794153,-59,-1,33,6,-7,-8,-11,0
14:28:12:800085,29,-1,-5,-5,-9,-8,-2,4
14:28:12:815834,29,-1,-5,-5,-9,-8,-2,4
14:28:12:816649,-6,-2,34,32,21,21,13,-2
14:28:12:822662,41,-1,-18,-6,-10,-10,-9,-5
14:28:12:830849,41,-1,-18,-6,-10,-10,-9,-5
14:28:12:831609,32,10,-6,-11,-1,-8,-24,1
14:28:12:845214,39,-26,-56,-18,-1,0,15,7
14:28:12:853309,39,-26,-56,-18,-1,0,15,7
14:28:12:854111,-6,-4,-10,2,15,13,11,-6
14:28:12:860166,26,6,12,-3,-2,-5,8,3
14:28:12:875855,26,6,12,-3,-2,-5,8,3
14:28:12:876572,17,4,-2,-13,-5,-10,4,-7
14:28:12:882620,2,6,34,14,-16,7,4,-2
14:28:12:890838,2,6,34,14,-16,7,4,-2
14:28:12:891595,-4,6,1,-11,11,9,-7,-3
14:28:12:905194,-15,6,47,-11,1,0,-15,-5
14:28:12:913331,-15,6,47,-11,1,0,-15,-5
14:28:12:914118,-13,-5,-26,-8,-19,-13,-7,-2
14:28:12:920141,-15,7,6,1,13,1,-26,4
14:28:12:935787,-15,7,6,1,13,1,-26,4
14:28:12:936540,-29,-14,-18,15,7,-5,1,0
14:28:12:942719,-16,-13,-73,-9,-9,-1,0,4
14:28:12:950761,-16,-13,-73,-9,-9,-1,0,4
14:28:12:951560,7,17,2,14,-9,-4,-4,3
14:28:12:965147,-49,-13,-55,-7,-8,-1,4,-5
14:28:12:973317,-49,-13,-55,-7,-8,-1,4,-5
14:28:12:974059,-16,-20,28,-11,21,3,15,-8
14:28:12:980156,39,27,42,4,3,4,14,0
14:28:12:995869,39,27,42,4,3,4,14,0
14:28:12:996641,15,6,17,-5,-22,-5,5,2
14:28:13:2589,-23,-21,-14,-7,-12,-24,-65,-14
14:28:13:10909,-23,-21,-14,-7,-12,-24,-65,-14
14:28:13:11578,-10,1,20,1,-9,5,-4,1
14:28:13:25135,-15,1,17,0,2,12,19,6
14:28:13:33364,-15,1,17,0,2,12,19,6
14:28:13:34104,-11,-7,-12,-11,3,-36,-10,-5
14:28:13:40168,25,9,19,26,-7,18,35,-1
14:28:13:55895,25,9,19,26,-7,18,35,-1
14:28:13:56622,-26,11,4,7,17,12,-2,1
14:28:13:62639,-14,-1,-30,-10,5,-14,-3,-1
14:28:13:70778,-14,-1,-30,-10,5,-14,-3,-1
14:28:13:71545,38,-11,31,-34,-32,-2,-31,-2
14:28:13:85076,0,10,-6,7,4,-3,4,1
14:28:13:93373,0,10,-6,7,4,-3,4,1
14:28:13:94097,-69,-21,-66,-7,3,-1,-4,-4
14:28:13:100121,-5,-6,-2,-6,-4,-24,-41,-9
14:28:13:115810,-5,-6,-2,-6,-4,-24,-41,-9
14:28:13:116616,42,3,-1,6,-11,-4,-16,-1
14:28:13:122704,-1,1,29,14,22,16,6,-1
14:28:13:130868,-1,1,29,14,22,16,6,-1
14:28:13:131655,2,15,16,10,3,-17,-4,-5
14:28:13:145202,11,8,39,1,-26,-4,5,0
14:28:13:153326,11,8,39,1,-26,-4,5,0
14:28:13:154101,12,-3,32,4,16,7,14,-2
14:28:13:160160,-63,-11,-2,-6,14,8,21,-4
14:28:13:175922,-63,-11,-2,-6,14,8,21,-4
14:28:13:176620,5,-19,7,-17,-24,7,-21,-6
14:28:13:182606,13,-3,-1,3,9,11,-8,-4
14:28:13:190808,13,-3,-1,3,9,11,-8,-4
14:28:13:191618,13,3,5,13,16,4,13,3
14:28:13:205665,6,0,-8,-4,-9,3,7,-2
14:28:13:213359,6,0,-8,-4,-9,3,7,-2
14:28:13:214134,-16,4,-9,6,21,-2,8,-1
14:28:13:220062,-6,-1,-38,-6,4,-14,15,6
14:28:13:235770,-6,-1,-38,-6,4,-14,15,6
14:28:13:236602,-38,0,-13,-10,-13,1,9,-6
14:28:13:242620,22,10,22,0,5,-7,-4,-4
14:28:13:250795,22,10,22,0,5,-7,-4,-4
14:28:13:251564,-26,12,1,9,27,12,35,5
14:28:13:265121,4,-25,18,-18,-9,11,19,-3
14:28:13:273371,4,-25,18,-18,-9,11,19,-3
14:28:13:274097,40,6,-1,4,-6,-1,4,6
14:28:13:280117,-17,1,-22,-5,-13,-25,-26,-1
14:28:13:295852,-17,1,-22,-5,-13,-25,-26,-1
14:28:13:296631,21,0,-8,-6,-18,-25,-18,4
14:28:13:302595,23,-7,2,3,-5,-1,-1,-11
14:28:13:310920,23,-7,2,3,-5,-1,-1,-11
14:28:13:311591,-4,-13,-41,-24,-22,-21,-12,1
14:28:13:325164,18,16,17,-4,-8,-2,8,4
14:28:13:333329,18,16,17,-4,-8,-2,8,4
14:28:13:334096,-7,-9,-24,13,5,3,14,-3
14:28:13:347657,18,3,19,4,5,8,-4,9
14:28:13:355935,18,3,19,4,5,8,-4,9
14:28:13:356587,-2,-1,13,-6,-13,-8,0,0
14:28:13:362617,-2,7,2,3,-12,-5,-1,3
14:28:13:370155,-2,7,2,3,-12,-5,-1,3
14:28:13:377671,5,2,6,5,12,16,8,1
14:28:13:385065,-1,3,34,1,4,9,-6,1
14:28:13:393394,-1,3,34,1,4,9,-6,1
14:28:13:394117,6,-12,23,-10,-7,12,7,-6
14:28:13:407618,22,5,-36,14,31,0,-3,1
14:28:13:415815,22,5,-36,14,31,0,-3,1
14:28:13:416596,39,18,-5,0,-11,-5,-18,2
14:28:13:422755,-28,-13,-16,2,17,3,8,-7
14:28:13:430166,-28,-13,-16,2,17,3,8,-7
14:28:13:437627,11,-4,16,6,-1,12,26,1
14:28:13:445141,-28,1,10,-5,-14,-23,-2,-2
14:28:13:453330,-28,1,10,-5,-14,-23,-2,-2
14:28:13:454162,1,2,20,22,-17,5,-13,1
14:28:13:467560,0,1,-9,-7,-10,-21,-16,3
14:28:13:475917,0,1,-9,-7,-10,-21,-16,3
14:28:13:476585,-29,5,-4,1,9,-15,-38,-2
14:28:13:482606,-9,-11,-47,-22,6,18,-1,-1
14:28:13:490247,-9,-11,-47,-22,6,18,-1,-1
14:28:13:497605,0,2,13,6,10,2,4,-3
14:28:13:505215,21,-8,5,1,-2,7,21,-5
14:28:13:513378,21,-8,5,1,-2,7,21,-5
14:28:13:514135,-3,-1,-47,-10,-3,-5,0,-9
14:28:13:528212,1,-1,-8,-7,-12,5,17,-2
14:28:13:535805,1,-1,-8,-7,-12,5,17,-2
14:28:13:536607,29,17,12,-2,4,-5,1,4
14:28:13:542675,-28,-4,15,-2,4,-2,-29,0
14:28:13:550171,-28,-4,15,-2,4,-2,-29,0
14:28:13:557647,4,-4,-62,-18,3,-5,-6,2
14:28:13:565132,-8,2,0,-7,-7,-9,-4,-7
14:28:13:573366,-8,2,0,-7,-7,-9,-4,-7
14:28:13:574075,3,-2,18,-7,-19,9,2,3
14:28:13:587615,-7,-2,0,-7,-10,21,-21,-3
14:28:13:595899,-7,-2,0,-7,-10,21,-21,-3
14:28:13:596664,20,6,22,9,-4,-2,2,9
14:28:13:610958,-11,3,43,27,26,7,8,-2
14:28:13:611657,-11,3,43,27,26,7,8,-2
14:28:13:617598,21,-10,-62,-23,-3,-18,2,2
14:28:13:625204,43,-3,-26,-7,-24,-3,8,5
14:28:13:633289,43,-3,-26,-7,-24,-3,8,5
14:28:13:634058,-22,-1,37,7,7,8,9,-8
14:28:13:647626,-5,-2,-32,-14,2,-6,4,-2
14:28:13:655936,-5,-2,-32,-14,2,-6,4,-2
14:28:13:656600,2,-3,12,-3,12,4,-8,-5
14:28:13:662570,0,12,22,28,17,13,9,8
14:28:13:670160,0,12,22,28,17,13,9,8
14:28:13:677690,-50,-7,-40,-17,-7,-10,2,-13
14:28:13:685102,-14,-19,0,-12,-29,-4,3,-3
14:28:13:693359,-14,-19,0,-12,-29,-4,3,-3
14:28:13:694086,-9,-5,10,4,-7,9,-19,-2
14:28:13:707636,2,1,3,-9,4,5,9,-2
14:28:13:715807,2,1,3,-9,4,5,9,-2
14:28:13:716597,-1,4,15,4,4,20,32,7
14:28:13:722728,-1,2,-9,2,-20,-19,-28,-5
14:28:13:730176,-1,2,-9,2,-20,-19,-28,-5
14:28:13:737590,12,0,4,-8,-14,-26,1,2
14:28:13:745160,-47,-15,-43,-10,-11,-22,1,-5
14:28:13:753289,-47,-15,-43,-10,-11,-22,1,-5
14:28:13:754114,-36,-12,12,9,5,4,-13,9
14:28:13:767603,-32,25,15,-3,6,7,-17,6
14:28:13:775914,-32,25,15,-3,6,7,-17,6
14:28:13:776603,12,3,16,3,2,-11,13,-6
14:28:13:782601,21,2,7,-17,4,6,21,0
14:28:13:790222,21,2,7,-17,4,6,21,0
14:28:13:797605,17,4,-18,0,6,18,12,-9
14:28:13:805184,24,-13,-36,-13,-5,3,7,0
14:28:13:813345,24,-13,-36,-13,-5,3,7,0
14:28:13:814093,23,7,20,10,4,7,1,2
14:28:13:827663,21,-3,20,1,-4,-11,-20,-6
14:28:13:843858,21,-3,20,1,-4,-11,-20,-6
14:28:13:844538,-81,-10,15,4,11,9,-24,-11
14:28:13:850762,-23,-4,12,8,1,-12,-6,-5
14:28:13:851595,-23,-4,12,8,1,-12,-6,-5
14:28:13:857595,22,-12,-9,-4,-8,9,10,1
14:28:13:865094,-39,-11,-48,6,5,-9,-26,-2
14:28:13:873440,-39,-11,-48,6,5,-9,-26,-2
14:28:13:874156,-40,-6,5,-9,-3,-3,1,-14
14:28:13:887650,25,0,-11,-13,1,11,21,1
14:28:13:895872,25,0,-11,-13,1,11,21,1
14:28:13:896616,19,9,-7,2,-8,1,-10,8
14:28:13:902559,-11,-8,19,4,-4,7,6,-7
14:28:13:910185,-11,-8,19,4,-4,7,6,-7
14:28:13:917551,14,4,4,1,5,-5,-22,2
14:28:13:925188,17,-9,-24,15,16,17,13,4
14:28:13:933380,17,-9,-24,15,16,17,13,4
14:28:13:934104,-64,-8,-20,7,-6,-14,13,-1
14:28:13:947627,-28,5,19,0,10,5,1,5
14:28:13:955947,-28,5,19,0,10,5,1,5
14:28:13:956611,30,6,-3,0,-4,-10,4,4
14:28:13:962642,10,9,1,-9,-10,-27,-12,-11
14:28:13:970191,10,9,1,-9,-10,-27,-12,-11
14:28:13:977691,4,5,-18,16,24,-12,-21,-2
14:28:13:985098,59,9,18,1,-7,2,-27,3
14:28:13:993281,59,9,18,1,-7,2,-27,3
14:28:13:994099,4,1,-17,-11,-17,6,8,-2
14:28:14:7653,28,-2,24,3,3,-1,18,5
14:28:14:15863,28,-2,24,3,3,-1,18,5
14:28:14:16636,11,7,31,14,10,5,-14,9
14:28:14:22743,18,2,-2,5,-8,0,2,3
14:28:14:30150,18,2,-2,5,-8,0,2,3
14:28:14:37647,14,0,1,6,-4,-7,-3,-1
14:28:14:45206,-55,-4,-24,-2,2,12,7,-11
14:28:14:53334,-55,-4,-24,-2,2,12,7,-11
14:28:14:54082,-25,-9,-10,-7,-3,-19,-35,-11
14:28:14:67587,-26,-3,-32,-4,4,-6,-6,-7
14:28:14:75670,-26,-3,-32,-4,4,-6,-6,-7
14:28:14:83269,51,5,3,-13,-1,12,-3,4
14:28:14:84073,-12,-2,8,-28,-12,-7,-10,0
14:28:14:90133,-12,-2,8,-28,-12,-7,-10,0
14:28:14:97610,-1,-16,-1,-14,-23,-2,-2,2
14:28:14:105165,-16,-11,11,11,0,12,0,-1
14:28:14:113333,-16,-11,11,11,0,12,0,-1
14:28:14:114128,-1,12,31,4,-2,12,10,1
14:28:14:127667,-9,-1,24,16,16,-12,-23,-6
14:28:14:135959,-9,-1,24,16,16,-12,-23,-6
14:28:14:136606,-7,-10,6,-1,-5,-4,-5,-6
14:28:14:142611,16,2,3,3,5,1,22,6
14:28:14:150169,16,2,3,3,5,1,22,6
14:28:14:157579,-5,6,-12,-3,0,9,25,-3
14:28:14:165128,9,11,26,11,9,8,17,-5
14:28:14:173409,9,11,26,11,9,8,17,-5
14:28:14:174137,-6,-6,-41,-8,2,10,21,2
14:28:14:187577,-18,0,-12,11,-6,-19,-10,-2
14:28:14:195829,-18,0,-12,11,-6,-19,-10,-2
14:28:14:196604,20,-9,8,13,-1,4,20,7
14:28:14:202578,-13,-4,42,-1,12,-13,-4,-5
14:28:14:210243,-13,-4,42,-1,12,-13,-4,-5
14:28:14:217568,14,4,8,-7,5,-21,11,0
14:28:14:225172,9,-5,3,-10,-11,4,8,-6
14:28:14:233331,9,-5,3,-10,-11,4,8,-6
14:28:14:234087,35,11,-11,7,0,-4,-12,5
14:28:14:247605,33,7,19,-19,-23,-8,-10,3
14:28:14:255950,33,7,19,-19,-23,-8,-10,3
14:28:14:256618,-9,-10,3,-7,18,8,13,-4
14:28:14:262656,6,0,-12,-7,-8,4,14,8
14:28:14:270208,6,0,-12,-7,-8,4,14,8
14:28:14:277684,-25,-6,-4,-30,-9,-18,-20,-6
14:28:14:285066,-1,-16,-60,-23,0,1,-8,-3
14:28:14:292762,-1,-16,-60,-23,0,1,-8,-3
14:28:14:300109,-5,-8,18,20,20,1,-4,5
14:28:14:307647,-17,-6,-49,2,1,6,4,-1
14:28:14:315804,-17,-6,-49,2,1,6,4,-1
14:28:14:316583,-16,3,6,8,-11,-9,-6,-8
14:28:14:330795,-5,-5,27,6,-4,3,-1,-5
14:28:14:331615,-5,-5,27,6,-4,3,-1,-5
14:28:14:337670,-6,13,4,21,21,13,-6,0
14:28:14:345182,2,6,20,4,-14,-3,-11,9
14:28:14:352618,2,6,20,4,-14,-3,-11,9
14:28:14:360189,-13,14,2,5,-4,5,-3,1
14:28:14:368249,2,-7,-16,4,-5,5,2,-5
14:28:14:369076,2,-7,-16,4,-5,5,2,-5
14:28:14:375156,19,3,19,0,-8,-8,-10,-4
14:28:14:390762,-10,-4,13,10,19,3,8,0
14:28:14:391578,-10,-4,13,10,19,3,8,0
14:28:14:397597,-6,-13,-23,-15,-16,-2,6,-2
14:28:14:405092,0,4,-2,1,10,-4,-8,4
14:28:14:412684,0,4,-2,1,10,-4,-8,4
14:28:14:420101,-3,-4,-2,-3,12,16,10,3
14:28:14:428371,-22,6,-15,-15,-6,9,13,2
14:28:14:429108,-22,6,-15,-15,-6,9,13,2
14:28:14:435089,3,-10,-49,-25,-34,-3,0,-5
14:28:14:450753,3,5,0,24,24,3,-18,-2
14:28:14:451580,3,5,0,24,24,3,-18,-2
14:28:14:457558,9,-4,36,3,-2,-4,-15,5
14:28:14:465122,13,8,5,-5,-17,-11,-4,2
14:28:14:472745,13,8,5,-5,-17,-11,-4,2
14:28:14:480118,8,11,30,15,14,-14,2,-4
14:28:14:488359,25,2,17,-6,4,-2,-18,-3
14:28:14:489119,25,2,17,-6,4,-2,-18,-3
14:28:14:495178,-19,-4,22,0,-8,-6,-5,-3
14:28:14:510888,7,13,12,7,5,-19,-14,-3
14:28:14:511613,7,13,12,7,5,-19,-14,-3
14:28:14:517558,-22,0,-2,11,29,7,-9,-2
14:28:14:525131,-29,-13,4,-5,-11,7,0,-4
14:28:14:532671,-29,-13,4,-5,-11,7,0,-4
14:28:14:540137,-6,-6,-12,-9,-17,0,-18,-5
14:28:14:548282,13,-5,-52,-20,-13,6,20,-2
14:28:14:549137,13,-5,-52,-20,-13,6,20,-2
14:28:14:555309,8,-6,-24,-6,-6,-6,-2,-12
14:28:14:570812,13,-7,-72,-22,-9,-19,-11,-3
14:28:14:571671,13,-7,-72,-22,-9,-19,-11,-3
14:28:14:577713,5,-4,-23,8,14,16,11,5
14:28:14:585080,-2,-1,39,4,-11,9,11,3
14:28:14:609808,-2,-1,39,4,-11,9,11,3
14:28:14:610578,19,1,8,-1,-6,-5,9,8
14:28:14:611274,-25,-4,13,-10,-4,-2,8,-8
14:28:14:612145,-25,-4,13,-10,-4,-2,8,-8
14:28:14:615070,-6,-12,-2,-15,9,-17,-7,-8
14:28:14:630850,18,9,6,11,1,1,4,2
14:28:14:631623,18,9,6,11,1,1,4,2
14:28:14:637600,-1,-3,14,-1,-15,-11,17,2
14:28:14:645186,1,9,-4,14,9,5,-1,-2
14:28:14:652629,1,9,-4,14,9,5,-1,-2
14:28:14:660203,-1,-4,-39,-9,-14,-26,-2,-11
14:28:14:668323,-2,-7,26,8,13,13,5,-2
14:28:14:669104,-2,-7,26,8,13,13,5,-2
14:28:14:675187,-2,0,29,-6,-4,6,-7,-10
14:28:14:690791,-4,3,-4,-15,3,-10,0,-3
14:28:14:691599,-4,3,-4,-15,3,-10,0,-3
14:28:14:697609,-1,2,-32,3,4,2,-5,6
14:28:14:705137,0,-4,-2,9,13,-5,-7,-1
14:28:14:712677,0,-4,-2,9,13,-5,-7,-1
14:28:14:720081,-5,5,9,1,5,13,-7,-2
14:28:14:728328,-3,-8,-11,10,-5,-7,-4,-6
14:28:14:729123,-3,-8,-11,10,-5,-7,-4,-6
14:28:14:735088,0,-14,34,0,-12,-4,-3,9
14:28:14:750781,3,4,30,-16,-27,0,6,-30
14:28:14:751636,3,4,30,-16,-27,0,6,-30
14:28:14:757622,-2,-1,-10,-8,-4,13,8,0
14:28:14:765122,-10,-1,-19,-15,-7,-17,-14,-23
14:28:14:772705,-10,-1,-19,-15,-7,-17,-14,-23
14:28:14:780143,3,2,8,27,37,17,26,3
14:28:14:788340,-1,-11,-34,6,7,3,17,15
14:28:14:789066,-1,-11,-34,6,7,3,17,15
14:28:14:795173,-1,-5,-20,0,-20,-9,-2,2
14:28:14:810917,4,16,35,-7,-2,3,2,11
14:28:14:811613,4,16,35,-7,-2,3,2,11
14:28:14:817595,-4,0,-8,8,20,17,5,-4
14:28:14:825125,-1,-9,-1,12,12,7,-18,8
14:28:14:832668,-1,-9,-1,12,12,7,-18,8
14:28:14:840167,3,13,8,10,0,-5,-1,-6
14:28:14:848291,-18,10,-3,11,7,-1,-5,-4
14:28:14:849112,-18,10,-3,11,7,-1,-5,-4
14:28:14:855228,-2,5,-1,-9,-12,-3,1,0
14:28:14:870803,1,-4,-2,-6,-19,-20,-13,4
14:28:14:871633,1,-4,-2,-6,-19,-20,-13,4
14:28:14:885748,-2,-4,-21,-10,3,-4,-13,4
14:28:14:886565,7,0,26,14,1,0,-16,3
14:28:14:892736,7,0,26,14,1,0,-16,3
14:28:14:900137,-1,-3,0,-13,-25,-13,-10,-8
14:28:14:916514,-3,2,-7,-2,2,9,7,-1
14:28:14:917268,-3,2,-7,-2,2,9,7,-1
14:28:14:918088,0,-2,-13,-26,-14,-8,-14,2
14:28:14:930825,1,-2,-8,-1,-3,-5,11,1
14:28:14:931623,1,-2,-8,-1,-3,-5,11,1
14:28:14:937612,-7,2,-11,4,-2,15,22,6
14:28:14:945170,5,5,27,-9,-5,-2,12,14
14:28:14:952668,5,5,27,-9,-5,-2,12,14
14:28:14:960181,14,-3,10,10,16,0,8,2
14:28:14:968238,-11,-18,-27,-29,-13,-36,1,-1
14:28:14:969063,-11,-18,-27,-29,-13,-36,1,-1
14:28:14:975178,4,0,19,25,36,3,-16,-7
14:28:14:990814,8,-8,-32,-11,-4,1,7,1
14:28:14:991538,8,-8,-32,-11,-4,1,7,1
14:28:14:997593,-12,-5,-44,-7,-22,-3,-8,-1
14:28:15:5081,-3,-2,-46,-12,-4,0,-2,0
14:28:15:12628,-3,-2,-46,-12,-4,0,-2,0
14:28:15:20136,2,-13,17,1,-5,-8,0,4
14:28:15:27704,8,-5,33,22,-7,5,-12,-5
14:28:15:35826,8,-5,33,22,-7,5,-12,-5
14:28:15:36563,4,-13,29,2,1,-9,12,40
14:28:15:50771,1,-7,-9,-5,10,10,3,11
14:28:15:51578,1,-7,-9,-5,10,10,3,11
14:28:15:57679,0,15,18,4,-1,-23,4,-8
14:28:15:65139,-1,16,-12,12,29,9,0,-5
14:28:15:72780,-1,16,-12,12,29,9,0,-5
14:28:15:80096,-3,7,36,15,-10,12,0,-3
14:28:15:87622,-29,-5,8,10,-5,4,-7,-9
14:28:15:95816,-29,-5,8,10,-5,4,-7,-9
14:28:15:96580,1,-1,38,0,-12,-2,-12,-13
14:28:15:110822,10,1,1,-6,-30,-10,-9,0
14:28:15:111616,10,1,1,-6,-30,-10,-9,0
14:28:15:117616,-14,-16,-37,-19,-10,2,-8,-12
14:28:15:125156,5,5,38,-4,0,26,26,2
14:28:15:132702,5,5,38,-4,0,26,26,2
14:28:15:140170,5,-16,-47,-11,-12,11,-12,-11
14:28:15:147552,-4,-11,-10,-11,34,-7,1,13
14:28:15:155903,-4,-11,-10,-11,34,-7,1,13
14:28:15:156681,4,3,9,-11,35,17,10,-1
14:28:15:170782,16,12,-3,25,22,15,-5,2
14:28:15:171598,16,12,-3,25,22,15,-5,2
14:28:15:177680,-11,3,6,-16,3,-20,8,1
14:28:15:185099,1,9,-3,8,-4,-19,1,-9
14:28:15:192767,1,9,-3,8,-4,-19,1,-9
14:28:15:200167,7,19,-11,-1,-10,-11,-1,-7
14:28:15:207599,3,0,-15,-16,-9,-7,-26,-1
14:28:15:215837,3,0,-15,-16,-9,-7,-26,-1
14:28:15:216694,-14,0,-36,6,-3,-2,9,-4
14:28:15:230908,-1,-9,-20,-15,-9,-10,3,4
14:28:15:231683,-1,-9,-20,-15,-9,-10,3,4
14:28:15:237631,1,-3,-3,23,10,6,-9,12
14:28:15:253323,2,-17,31,10,-25,0,9,-3
14:28:15:254150,2,-17,31,10,-25,0,9,-3
14:28:15:260249,-23,-19,-48,-5,-13,-2,2,-7
14:28:15:267549,-1,-10,-8,-6,5,4,-6,-6
14:28:15:275201,-1,-10,-8,-6,5,4,-6,-6
