Time,EMG1,EMG2,EMG3,EMG4,EMG5,EMG6,EMG7,EMG8
14:28:24:187312,0,1,4,-6,-2,-3,0,-1
14:28:24:188192,-1,0,1,-13,4,2,-1,-2
14:28:24:194159,-2,0,8,9,-4,-1,-1,-1
14:28:24:209846,-2,0,8,9,-4,-1,-1,-1
14:28:24:210566,-2,-3,-1,16,3,-1,-2,-1
14:28:24:216608,-3,-1,-22,3,0,0,0,-3
14:28:24:224810,-3,-1,-22,3,0,0,0,-3
14:28:24:225611,-1,-5,3,0,-2,-2,-2,0
14:28:24:239137,-2,-2,-1,9,-5,0,-3,-1
14:28:24:247245,-2,-2,-1,9,-5,0,-3,-1
14:28:24:248139,-2,-3,-7,-8,-9,-5,0,-3
14:28:24:254260,1,3,6,3,-2,-1,1,1
14:28:24:269783,1,3,6,3,-2,-1,1,1
14:28:24:270563,0,2,10,-11,-5,0,7,1
14:28:24:276726,-1,-2,3,-7,-1,0,0,-2
14:28:24:284839,-1,-2,3,-7,-1,0,0,-2
14:28:24:285566,0,0,-3,10,3,1,-3,-1
14:28:24:299284,-1,-4,-4,-10,6,-1,-3,-4
14:28:24:307291,-1,-4,-4,-10,6,-1,-3,-4
14:28:24:308109,-1,-4,-7,-8,-7,-2,-2,-1
14:28:24:314233,1,1,7,12,0,0,-1,-1
14:28:24:329865,1,1,7,12,0,0,-1,-1
14:28:24:330665,1,2,2,7,4,1,-1,1
14:28:24:336578,-4,-5,-18,-10,-4,-3,-2,-1
14:28:24:344862,-4,-5,-18,-10,-4,-3,-2,-1
14:28:24:345668,-2,-2,10,-7,-3,-2,-2,0
14:28:24:359123,0,-1,-2,-17,-3,0,-1,1
14:28:24:367317,0,-1,-2,-17,-3,0,-1,1
14:28:24:368074,1,2,2,-4,-2,-2,1,-3
14:28:24:374179,-1,1,7,-9,-12,-5,-6,-1
14:28:24:389929,-1,1,7,-9,-12,-5,-6,-1
14:28:24:390631,-1,-1,-14,-15,4,0,-3,-1
14:28:24:396630,0,0,-3,-8,0,-1,0,-1
14:28:24:404792,0,0,-3,-8,0,-1,0,-1
14:28:24:405574,0,0,0,5,-5,-1,-1,0
14:28:24:419174,-1,-5,-8,23,9,4,0,2
14:28:24:427373,-1,-5,-8,23,9,4,0,2
14:28:24:428194,-2,-2,-7,-13,-8,-2,-1,-4
14:28:24:434065,0,0,3,-2,-12,-6,-2,1
14:28:24:449878,0,0,3,-2,-12,-6,-2,1
14:28:24:450603,1,2,-11,7,8,1,0,1
14:28:24:456649,-2,-2,-2,-29,3,2,2,-2
14:28:24:464815,-2,-2,-2,-29,3,2,2,-2
14:28:24:465640,-3,1,-3,0,-2,-2,-3,-2
14:28:24:479157,1,4,-2,6,2,-1,-2,-1
14:28:24:487321,1,4,-2,6,2,-1,-2,-1
14:28:24:488137,-1,-7,12,10,5,0,7,0
14:28:24:494176,-3,-4,-2,-9,-3,-2,0,-2
14:28:24:509856,-3,-4,-2,-9,-3,-2,0,-2
14:28:24:510598,-2,-7,1,5,-7,-5,-4,-3
14:28:24:516569,-1,2,12,-7,-8,-4,-1,0
14:28:24:524832,-1,2,12,-7,-8,-4,-1,0
14:28:24:525594,3,2,20,13,-2,1,-1,-1
14:28:24:539210,-2,0,7,8,-3,1,0,-1
14:28:24:547334,-2,0,7,8,-3,1,0,-1
14:28:24:548158,0,4,-11,-19,-4,-4,-3,1
14:28:24:554080,2,-1,-3,12,7,1,2,-1
14:28:24:569795,2,-1,-3,12,7,1,2,-1
14:28:24:570546,2,0,8,-5,8,4,2,1
14:28:24:576639,2,0,-14,-3,2,1,1,-2
14:28:24:584799,2,0,-14,-3,2,1,1,-2
14:28:24:585574,-1,4,-17,9,4,-1,-2,-1
14:28:24:599112,-3,-1,2,3,1,-1,-3,-3
14:28:24:607364,-3,-1,2,3,1,-1,-3,-3
14:28:24:608149,-1,-1,-1,8,5,1,0,0
14:28:24:614117,-3,-3,-7,-7,1,3,-3,0
14:28:24:629818,-3,-3,-7,-7,1,3,-3,0
14:28:24:630577,1,-2,4,-13,-9,-1,0,0
14:28:24:636576,-4,-2,6,-1,1,-3,-4,-3
14:28:24:644903,-4,-2,6,-1,1,-3,-4,-3
14:28:24:645616,-7,0,2,1,-1,1,-2,-5
14:28:24:659291,0,0,-1,-1,-4,1,-5,-3
14:28:24:667291,0,0,-1,-1,-4,1,-5,-3
14:28:24:668180,0,0,4,27,-3,-3,-1,0
14:28:24:674183,-3,0,-6,4,-3,-5,4,-4
14:28:24:689856,-3,0,-6,4,-3,-5,4,-4
14:28:24:690591,-5,-10,-14,3,-17,-8,-1,3
14:28:24:696595,-7,-2,-1,12,14,5,-2,0
14:28:24:704831,-7,-2,-1,12,14,5,-2,0
14:28:24:705596,-3,1,-10,-9,4,-8,-8,-3
14:28:24:719094,-1,-11,-33,-15,-3,-5,7,-2
14:28:24:727365,-1,-11,-33,-15,-3,-5,7,-2
14:28:24:728160,4,2,-5,-11,1,-5,2,-2
14:28:24:734040,2,1,9,-12,-18,-11,-23,2
14:28:24:749811,2,1,9,-12,-18,-11,-23,2
14:28:24:750559,2,-4,4,-22,-30,4,-6,-5
14:28:24:756670,7,-11,11,12,-22,2,9,3
14:28:24:764825,7,-11,11,12,-22,2,9,3
14:28:24:765603,-1,2,3,-9,-14,-8,-5,5
14:28:24:779132,2,2,-8,32,25,1,-3,-4
14:28:24:787319,2,2,-8,32,25,1,-3,-4
14:28:24:788074,3,5,4,8,50,-8,8,-3
14:28:24:794267,2,4,-11,-2,-43,-33,-12,0
14:28:24:809888,2,4,-11,-2,-43,-33,-12,0
14:28:24:810623,3,1,-1,19,0,-6,-11,-1
14:28:24:816599,5,7,17,16,59,2,-7,1
14:28:24:824813,5,7,17,16,59,2,-7,1
14:28:24:825613,-9,-3,-8,-11,-33,-23,2,-1
14:28:24:839224,-29,-16,-9,-19,22,8,11,-4
14:28:24:847352,-29,-16,-9,-19,22,8,11,-4
14:28:24:848140,-9,-16,4,-13,2,14,3,-3
14:28:24:861643,3,6,17,-11,-37,15,2,-2
14:28:24:869823,3,6,17,-11,-37,15,2,-2
14:28:24:870606,1,6,10,-1,25,19,1,0
14:28:24:876713,2,11,11,2,1,2,1,3
14:28:24:884106,2,11,11,2,1,2,1,3
14:28:24:891616,6,5,-4,6,-17,-9,-1,1
14:28:24:899115,5,-3,-12,-13,4,-7,0,3
14:28:24:907360,5,-3,-12,-13,4,-7,0,3
14:28:24:908168,-14,-13,-15,-29,5,1,-7,-3
14:28:24:921691,21,-1,-5,10,5,12,9,1
14:28:24:929821,21,-1,-5,10,5,12,9,1
14:28:24:930604,2,-7,-25,-2,-5,14,-16,-5
14:28:24:936627,-4,2,-23,-9,6,-6,0,-1
14:28:24:944287,-4,2,-23,-9,6,-6,0,-1
14:28:24:951554,-2,7,20,5,18,-23,1,-2
14:28:24:959129,3,1,15,18,-13,0,-2,0
14:28:24:967263,3,1,15,18,-13,0,-2,0
14:28:24:968130,-5,1,-1,12,-12,29,8,2
14:28:24:981639,-1,-4,7,-14,-5,-12,4,-1
14:28:24:989844,-1,-4,7,-14,-5,-12,4,-1
14:28:24:990593,1,-2,15,6,15,1,-2,-2
14:28:24:996567,3,10,6,-1,-34,-11,-7,-4
14:28:25:4230,3,10,6,-1,-34,-11,-7,-4
14:28:25:11697,1,-3,-2,-36,-57,-23,-13,-3
14:28:25:19092,-11,2,16,17,19,6,4,2
14:28:25:27459,-11,2,16,17,19,6,4,2
14:28:25:28181,7,-2,-30,21,9,17,11,6
14:28:25:41551,-3,-14,-39,-14,21,-1,-3,-4
14:28:25:49826,-3,-14,-39,-14,21,-1,-3,-4
14:28:25:50568,-14,6,14,1,32,3,8,-1
14:28:25:56647,-17,0,13,4,24,14,8,-3
14:28:25:64227,-17,0,13,4,24,14,8,-3
14:28:25:71647,8,-3,-38,-22,-18,-29,-4,-1
14:28:25:79113,5,-13,3,-12,-14,-12,-6,6
14:28:25:87350,5,-13,3,-12,-14,-12,-6,6
14:28:25:88235,9,4,3,0,8,-5,5,-12
14:28:25:101584,-28,-2,-25,-17,1,14,-8,-7
14:28:25:109898,-28,-2,-25,-17,1,14,-8,-7
14:28:25:110644,-7,1,12,14,-7,-1,1,2
14:28:25:116589,9,4,-28,-18,13,5,-3,-2
14:28:25:124252,9,4,-28,-18,13,5,-3,-2
14:28:25:131621,-13,-4,-12,14,35,-6,-4,-3
14:28:25:139184,10,8,44,33,49,11,6,6
14:28:25:147327,10,8,44,33,49,11,6,6
14:28:25:148072,13,2,13,5,-7,26,26,9
14:28:25:161626,-7,-15,-25,-6,-49,-30,-12,0
14:28:25:169842,-7,-15,-25,-6,-49,-30,-12,0
14:28:25:170614,11,11,32,0,-3,4,3,2
14:28:25:176726,-12,-3,23,1,7,-6,0,-7
14:28:25:184146,-12,-3,23,1,7,-6,0,-7
14:28:25:191687,-1,-2,-21,-7,1,-6,-5,3
14:28:25:199105,0,-1,3,-21,-39,-12,-7,-5
14:28:25:207323,0,-1,3,-21,-39,-12,-7,-5
14:28:25:208047,2,0,11,23,51,21,-4,1
14:28:25:221673,-21,-5,16,-2,-17,-12,-2,-4
14:28:25:229872,-21,-5,16,-2,-17,-12,-2,-4
14:28:25:230635,-13,-3,8,-8,-30,-19,-10,-4
14:28:25:236616,16,12,15,1,-7,21,6,1
14:28:25:244316,16,12,15,1,-7,21,6,1
14:28:25:251567,5,-5,-4,2,-6,-4,-15,-7
14:28:25:259187,4,-1,1,-1,-22,5,-1,-2
14:28:25:267284,4,-1,1,-1,-22,5,-1,-2
14:28:25:268151,-10,-3,-27,5,7,2,-4,-4
14:28:25:281671,-9,2,-5,1,6,0,-1,-1
14:28:25:289871,-9,2,-5,1,6,0,-1,-1
14:28:25:290573,4,4,24,-14,-36,-11,-18,4
14:28:25:296551,3,-3,-6,-6,-2,3,12,-3
14:28:25:304212,3,-3,-6,-6,-2,3,12,-3
14:28:25:311596,2,3,-7,-5,-1,-3,4,-3
14:28:25:319246,8,1,7,24,9,-8,-4,0
14:28:25:327331,8,1,7,24,9,-8,-4,0
14:28:25:328176,-4,-5,-15,-16,-20,1,6,-1
14:28:25:341580,2,-1,15,-19,-10,-1,-5,-11
14:28:25:349898,2,-1,15,-19,-10,-1,-5,-11
14:28:25:350581,-16,-15,1,-5,32,9,-2,-6
14:28:25:356635,4,-3,-5,-11,-16,-1,-9,8
14:28:25:364203,4,-3,-5,-11,-16,-1,-9,8
14:28:25:371608,2,-1,31,4,12,4,19,-3
14:28:25:379109,10,7,2,4,18,3,2,2
14:28:25:387387,10,7,2,4,18,3,2,2
14:28:25:388194,-6,-2,17,-2,0,-3,18,-1
14:28:25:401588,19,19,-19,5,0,12,-5,-16
14:28:25:410568,19,19,-19,5,0,12,-5,-16
14:28:25:411299,-8,3,-4,-2,1,-6,-8,-6
14:28:25:416573,-3,-8,-15,-11,1,10,3,6
14:28:25:424233,-3,-8,-15,-11,1,10,3,6
14:28:25:431624,24,0,0,-24,-33,-26,-21,0
14:28:25:439196,6,0,-2,16,42,10,-8,9
14:28:25:447341,6,0,-2,16,42,10,-8,9
14:28:25:448086,1,-4,-6,-5,-32,-35,-11,4
14:28:25:461662,-7,-10,-34,-14,-11,-18,-4,0
14:28:25:469813,-7,-10,-34,-14,-11,-18,-4,0
14:28:25:470589,-23,5,13,-7,6,22,-9,-2
14:28:25:476710,-12,-3,0,5,-47,-4,4,5
14:28:25:484155,-12,-3,0,5,-47,-4,4,5
14:28:25:491683,-2,-1,-9,10,27,5,-1,3
14:28:25:499131,-6,1,41,-9,-1,-1,2,-2
14:28:25:507434,-6,1,41,-9,-1,-1,2,-2
14:28:25:508046,-16,-11,-19,0,0,29,3,-8
14:28:25:521667,-14,-2,7,24,31,-15,-7,0
14:28:25:529833,-14,-2,7,24,31,-15,-7,0
14:28:25:530591,0,-6,16,4,-26,-26,1,-1
14:28:25:536661,6,8,8,-4,18,17,9,4
14:28:25:544326,6,8,8,-4,18,17,9,4
14:28:25:551561,-13,-11,-7,2,-9,-6,-3,-3
14:28:25:559176,4,-4,1,-4,15,15,8,-3
14:28:25:567330,4,-4,1,-4,15,15,8,-3
14:28:25:568191,19,10,-4,16,11,6,-2,-1
14:28:25:581624,-3,-7,0,-16,10,-25,-3,-5
14:28:25:589861,-3,-7,0,-16,10,-25,-3,-5
14:28:25:590565,12,2,-10,10,16,8,10,2
14:28:25:596587,1,3,3,6,-18,-1,8,4
14:28:25:604206,1,3,3,6,-18,-1,8,4
14:28:25:611634,-2,-15,-32,-22,-11,-5,-6,-6
14:28:25:619064,-9,-3,-28,-6,-33,1,-9,0
14:28:25:627389,-9,-3,-28,-6,-33,1,-9,0
14:28:25:628140,5,9,-1,12,16,21,8,7
14:28:25:641578,3,-5,-9,-18,-44,-21,-13,0
14:28:25:649833,3,-5,-9,-18,-44,-21,-13,0
14:28:25:650584,-10,-1,27,-5,-7,-25,10,4
14:28:25:656710,-3,-2,9,16,28,33,12,-35
14:28:25:664200,-3,-2,9,16,28,33,12,-35
14:28:25:671655,12,1,-12,-5,1,9,-10,-4
14:28:25:679130,-17,-13,-5,-5,-18,-23,-4,-1
14:28:25:687347,-17,-13,-5,-5,-18,-23,-4,-1
14:28:25:688169,14,3,6,6,3,22,7,3
14:28:25:701593,-10,-7,-11,-5,-3,9,-13,5
14:28:25:709832,-10,-7,-11,-5,-3,9,-13,5
14:28:25:710642,2,3,-4,7,-23,-36,-11,4
14:28:25:716612,4,4,-16,7,24,-1,6,2
14:28:25:724216,4,4,-16,7,24,-1,6,2
14:28:25:731609,-4,-3,24,-19,-4,-10,-4,-2
14:28:25:739224,8,-1,4,-23,-21,-24,-6,10
14:28:25:747278,8,-1,4,-23,-21,-24,-6,10
14:28:25:748057,-2,-1,-1,12,12,23,5,-5
14:28:25:761627,-17,4,19,1,-13,4,1,-14
14:28:25:769783,-17,4,19,1,-13,4,1,-14
14:28:25:770595,-18,-4,-3,-2,-20,6,-8,2
14:28:25:776637,24,0,12,18,-20,-8,-7,15
14:28:25:784161,24,0,12,18,-20,-8,-7,15
14:28:25:791617,18,9,0,14,34,24,5,-8
14:28:25:799129,-8,-9,-22,-12,21,-8,-8,10
14:28:25:806701,-8,-9,-22,-12,21,-8,-8,10
14:28:25:814068,6,-3,8,-10,-47,-18,-3,-4
14:28:25:821591,7,1,16,0,6,2,11,-8
14:28:25:829857,7,1,16,0,6,2,11,-8
14:28:25:830618,-10,-3,15,-10,26,11,-1,-2
14:28:25:844883,-8,0,-19,-4,-9,-6,-8,2
14:28:25:845631,-8,0,-19,-4,-9,-6,-8,2
14:28:25:851528,12,0,-37,0,2,-8,3,-2
14:28:25:859126,-17,-16,-14,-9,9,-2,-3,-1
14:28:25:866636,-17,-16,-14,-9,9,-2,-3,-1
14:28:25:874096,25,-3,1,-8,-24,-10,-9,-33
14:28:25:881573,2,9,51,23,3,10,-5,-7
14:28:25:889864,2,9,51,23,3,10,-5,-7
14:28:25:890624,-8,2,-5,9,-25,-10,-4,-3
14:28:25:904786,1,-5,-24,-4,-25,14,3,1
14:28:25:905589,1,-5,-24,-4,-25,14,3,1
14:28:25:911621,-13,18,26,0,3,-2,-1,24
14:28:25:919071,1,1,-2,-33,6,15,4,-1
14:28:25:926701,1,1,-2,-33,6,15,4,-1
14:28:25:934082,-7,-13,-15,-22,11,-20,-9,12
14:28:25:941574,6,5,-3,11,-8,-16,10,30
14:28:25:949818,6,5,-3,11,-8,-16,10,30
14:28:25:950594,-9,-3,14,3,-4,6,-7,4
14:28:25:964805,14,-3,-10,16,6,4,1,3
14:28:25:965642,14,-3,-10,16,6,4,1,3
14:28:25:971646,-5,5,-1,-2,4,0,1,-4
14:28:25:979087,-19,1,-23,-1,3,-4,-1,-5
14:28:25:986670,-19,1,-23,-1,3,-4,-1,-5
14:28:25:994162,5,-2,-34,9,-9,-8,-2,-4
14:28:26:1613,14,14,34,-7,-3,-3,2,1
14:28:26:9842,14,14,34,-7,-3,-3,2,1
14:28:26:10572,6,-7,-16,-11,5,-4,-1,4
14:28:26:24758,4,-3,-40,11,4,4,-9,-11
14:28:26:25550,4,-3,-40,11,4,4,-9,-11
14:28:26:31590,18,13,-14,12,19,6,-6,10
14:28:26:39245,4,12,-7,-1,11,-10,-6,-12
14:28:26:46615,4,12,-7,-1,11,-10,-6,-12
14:28:26:54043,4,-2,0,-3,-18,-15,-1,-28
14:28:26:61703,3,-2,18,-3,18,4,-2,-19
14:28:26:69777,3,-2,18,-3,18,4,-2,-19
14:28:26:70568,0,-5,-32,23,24,7,17,-6
14:28:26:84792,-3,-4,13,-7,-27,-15,2,-3
14:28:26:85533,-3,-4,13,-7,-27,-15,2,-3
14:28:26:91673,-14,-14,3,-24,-33,-1,-6,-7
14:28:26:99031,5,-5,-5,11,32,16,7,8
14:28:26:106672,5,-5,-5,11,32,16,7,8
14:28:26:114087,-14,-14,-11,-26,-26,6,2,-6
14:28:26:121549,-12,0,-8,4,18,10,9,-5
14:28:26:129894,-12,0,-8,4,18,10,9,-5
14:28:26:130609,7,-3,17,2,6,-1,-4,6
14:28:26:144945,11,7,22,5,6,2,-7,7
14:28:26:145594,11,7,22,5,6,2,-7,7
14:28:26:151516,-9,12,51,1,11,-2,-11,8
14:28:26:159194,-19,-19,15,-7,8,7,-18,0
14:28:26:166695,-19,-19,15,-7,8,7,-18,0
14:28:26:174178,5,6,-23,7,8,2,5,1
14:28:26:181657,-2,-4,-35,-21,-45,-24,-3,-5
14:28:26:197383,-2,-4,-35,-21,-45,-24,-3,-5
14:28:26:198109,-27,-1,15,2,-1,-6,6,13
14:28:26:204866,-2,2,6,-9,-17,-12,-8,10
14:28:26:205617,-2,2,6,-9,-17,-12,-8,10
14:28:26:211668,-14,-1,1,-1,-1,11,28,-2
14:28:26:219102,2,-3,21,0,-32,-7,11,23
14:28:26:226726,2,-3,21,0,-32,-7,11,23
14:28:26:234031,0,-18,-57,-6,5,1,-3,0
14:28:26:241672,8,7,9,11,15,4,6,-6
14:28:26:249922,8,7,9,11,15,4,6,-6
14:28:26:250603,4,-3,-12,-18,-13,-9,-3,2
14:28:26:264872,11,-3,4,6,10,0,-3,-5
14:28:26:265667,11,-3,4,6,10,0,-3,-5
14:28:26:271704,2,4,28,-6,5,5,-1,-8
14:28:26:279137,10,6,14,-3,-4,-16,-13,-3
14:28:26:286677,10,6,14,-3,-4,-16,-13,-3
14:28:26:294176,-23,1,15,12,3,8,4,-2
14:28:26:301699,4,-3,-5,4,30,16,14,2
14:28:26:309937,4,-3,-5,4,30,16,14,2
14:28:26:310596,-6,4,28,18,8,9,-11,7
14:28:26:324816,-13,-16,-53,7,20,10,-4,12
14:28:26:325570,-13,-16,-53,7,20,10,-4,12
14:28:26:331634,13,-2,-18,-3,-10,-9,-1,-6
14:28:26:339247,-4,1,0,-9,-14,0,0,-9
14:28:26:346634,-4,1,0,-9,-14,0,0,-9
14:28:26:354100,9,8,-4,-2,-9,-10,7,5
14:28:26:361750,-2,-6,-17,-4,13,-3,-8,-11
14:28:26:369792,-2,-6,-17,-4,13,-3,-8,-11
14:28:26:370578,13,6,33,2,9,-4,15,0
14:28:26:384734,-6,-9,-44,-2,-29,-9,0,6
14:28:26:385574,-6,-9,-44,-2,-29,-9,0,6
14:28:26:391602,6,6,5,23,27,11,-3,-6
14:28:26:399129,11,4,11,2,20,-8,3,-2
14:28:26:406722,11,4,11,2,20,-8,3,-2
14:28:26:414075,5,-6,-16,-13,-9,5,-12,10
14:28:26:421565,6,3,-6,-2,-16,-7,-5,-12
14:28:26:429862,6,3,-6,-2,-16,-7,-5,-12
14:28:26:430630,-20,-6,1,-17,12,4,-11,-7
14:28:26:444876,-11,-14,9,-7,4,11,-2,-3
14:28:26:445586,-11,-14,9,-7,4,11,-2,-3
14:28:26:451555,-2,-10,-10,2,-10,5,-3,-4
14:28:26:459139,9,7,9,-13,-27,-1,2,-14
14:28:26:474804,9,7,9,-13,-27,-1,2,-14
14:28:26:475622,-2,-5,-3,4,5,4,2,-13
14:28:26:481614,5,-4,-7,-26,-10,-10,1,-6
14:28:26:489844,5,-4,-7,-26,-10,-10,1,-6
14:28:26:490572,-24,-5,8,-10,4,-10,-9,5
14:28:26:504773,-8,21,21,15,9,19,7,-1
14:28:26:505595,-8,21,21,15,9,19,7,-1
14:28:26:511610,-1,3,-9,4,27,8,15,10
14:28:26:519107,-10,-6,10,6,-6,10,2,6
14:28:26:526710,-10,-6,10,6,-6,10,2,6
14:28:26:534040,-17,14,17,18,-39,-24,2,-1
14:28:26:541624,2,3,11,2,-1,2,-5,-6
14:28:26:549824,2,3,11,2,-1,2,-5,-6
14:28:26:550596,8,-9,19,3,-3,-1,-8,-5
14:28:26:564814,-23,-33,26,-16,4,-17,-3,-6
14:28:26:565590,-23,-33,26,-16,4,-17,-3,-6
14:28:26:571612,0,1,-33,-9,1,5,1,16
14:28:26:579093,8,9,-8,21,26,13,1,-12
14:28:26:586667,8,9,-8,21,26,13,1,-12
14:28:26:594182,0,-20,-37,-21,-15,-18,-15,-5
14:28:26:601589,-11,-2,0,-5,16,-5,-9,5
14:28:26:609990,-11,-2,0,-5,16,-5,-9,5
14:28:26:610656,1,9,8,-1,-10,7,-2,-27
14:28:26:624846,-18,-24,-19,-11,-21,-1,0,14
14:28:26:625617,-18,-24,-19,-11,-21,-1,0,14
14:28:26:631560,0,-12,0,-3,30,8,3,4
14:28:26:639111,-5,-1,-20,1,-13,-3,-7,3
14:28:26:646662,-5,-1,-20,1,-13,-3,-7,3
14:28:26:654081,4,5,5,-13,-11,-10,-3,4
14:28:26:661665,3,-2,-22,-9,-15,-2,4,13
14:28:26:669759,3,-2,-22,-9,-15,-2,4,13
14:28:26:670549,2,4,27,15,-7,-8,-2,-4
14:28:26:684852,-2,12,27,-7,-22,-10,-2,0
14:28:26:685638,-2,12,27,-7,-22,-10,-2,0
14:28:26:691644,7,8,12,8,-12,-4,-5,-8
14:28:26:699086,-15,-10,15,-7,-13,-5,-8,-16
14:28:26:706704,-15,-10,15,-7,-13,-5,-8,-16
14:28:26:722421,8,10,7,-2,19,20,0,-12
14:28:26:723058,16,4,24,20,46,4,8,9
14:28:26:729215,16,4,24,20,46,4,8,9
14:28:26:736620,0,-14,-19,-8,-14,-17,-4,3
14:28:26:744822,-4,1,5,4,14,0,-6,-19
14:28:26:745573,-4,1,5,4,14,0,-6,-19
14:28:26:751584,-2,-2,-23,9,25,5,-1,0
14:28:26:767307,5,13,17,-3,-5,-7,2,7
14:28:26:768148,5,13,17,-3,-5,-7,2,7
14:28:26:774149,4,1,-19,-7,-43,-14,-7,-11
14:28:26:781582,0,-37,-48,5,5,19,1,-3
14:28:26:789220,0,-37,-48,5,5,19,1,-3
14:28:26:796642,1,9,-56,-8,-19,-4,-3,14
14:28:26:804759,9,25,-21,13,17,-4,-8,20
14:28:26:805567,9,25,-21,13,17,-4,-8,20
14:28:26:811651,5,6,16,6,13,7,0,16
14:28:26:827348,0,19,26,8,6,-11,-2,-7
14:28:26:828070,0,19,26,8,6,-11,-2,-7
14:28:26:834082,-1,-8,100,-16,2,-11,-7,-1
14:28:26:841678,6,2,-32,3,-4,6,4,2
14:28:26:849148,6,2,-32,3,-4,6,4,2
14:28:26:856614,-53,-4,-20,-5,-7,9,10,-3
14:28:26:864776,4,-3,9,-3,-4,0,6,-2
14:28:26:865622,4,-3,9,-3,-4,0,6,-2
14:28:26:871584,11,-5,-38,-1,0,-4,-3,-9
14:28:26:887270,-25,-9,11,0,2,-7,3,-1
14:28:26:888084,-25,-9,11,0,2,-7,3,-1
14:28:26:894117,4,2,18,11,4,-9,2,5
14:28:26:901533,10,-34,-22,-6,-27,3,0,-5
14:28:26:909302,10,-34,-22,-6,-27,3,0,-5
14:28:26:916574,9,-5,-1,-2,7,13,15,17
14:28:26:924805,-2,3,-41,-23,-44,-24,-12,-5
14:28:26:925594,-2,3,-41,-23,-44,-24,-12,-5
14:28:26:931624,-4,13,39,12,13,11,1,1
14:28:26:947329,-6,3,51,-15,-15,-9,-6,-10
14:28:26:948229,-6,3,51,-15,-15,-9,-6,-10
14:28:26:954075,-27,-22,-21,-1,-10,-10,-5,-4
14:28:26:961672,6,21,16,23,19,7,-6,5
14:28:26:969193,6,21,16,23,19,7,-6,5
14:28:26:976684,15,1,-17,-9,7,-10,-8,-3
14:28:26:984766,4,16,17,-3,34,12,8,2
14:28:26:985600,4,16,17,-3,34,12,8,2
14:28:26:991689,3,19,35,1,-15,-6,-5,-6
14:28:27:7372,3,10,-10,-6,-33,-14,1,-7
14:28:27:8183,3,10,-10,-6,-33,-14,1,-7
14:28:27:14137,0,6,-36,7,27,12,3,-3
14:28:27:21611,3,5,2,-5,7,1,-3,4
14:28:27:29228,3,5,2,-5,7,1,-3,4
14:28:27:36570,5,-1,-17,-16,-11,-4,10,3
14:28:27:44914,-11,-1,-12,-11,-45,-7,-5,-7
14:28:27:45610,-11,-1,-12,-11,-45,-7,-5,-7
14:28:27:51574,2,-6,-6,1,12,14,-22,-7
14:28:27:67307,27,-9,-17,17,-1,3,3,-2
14:28:27:68169,27,-9,-17,17,-1,3,3,-2
14:28:27:74164,-20,-43,3,9,2,-1,3,4
14:28:27:81622,-1,-15,-16,-12,5,3,3,14
14:28:27:89213,-1,-15,-16,-12,5,3,3,14
14:28:27:96609,8,10,-18,4,17,-8,-1,-11
14:28:27:104776,-10,-5,14,1,47,24,11,3
14:28:27:105564,-10,-5,14,1,47,24,11,3
14:28:27:111635,10,3,21,-7,-15,-2,2,-6
14:28:27:127361,-7,12,3,0,-8,-13,-4,-9
14:28:27:128099,-7,12,3,0,-8,-13,-4,-9
14:28:27:134131,7,3,15,2,15,2,-11,-1
14:28:27:142395,-10,-30,-7,-4,-9,-3,-2,0
14:28:27:143145,-10,-30,-7,-4,-9,-3,-2,0
14:28:27:156643,4,1,-17,-8,-20,1,10,28
14:28:27:164805,5,25,-25,13,39,21,-8,-3
14:28:27:165603,5,25,-25,13,39,21,-8,-3
14:28:27:171593,-4,8,-10,1,3,10,3,-7
14:28:27:187298,7,14,7,-16,-27,-20,0,-4
14:28:27:188077,7,14,7,-16,-27,-20,0,-4
14:28:27:194188,14,8,-4,-9,18,5,-1,20
14:28:27:202020,-10,7,18,10,12,6,1,1
14:28:27:209248,-10,7,18,10,12,6,1,1
14:28:27:216580,-11,-2,34,1,-27,-14,-6,6
14:28:27:224819,-21,1,16,2,-8,-1,-1,-2
14:28:27:225623,-21,1,16,2,-8,-1,-1,-2
14:28:27:231603,-4,0,-8,5,14,3,5,-3
14:28:27:247329,-4,0,-8,5,14,3,5,-3
14:28:27:248095,10,-5,-8,13,17,12,-4,0
14:28:27:254113,-29,-34,-13,3,5,-4,-10,-28
14:28:27:269866,-29,-34,-13,3,5,-4,-10,-28
14:28:27:270587,4,-6,-7,-6,2,9,4,-1
14:28:27:276619,-31,19,-2,2,-21,-7,6,6
14:28:27:284805,-31,19,-2,2,-21,-7,6,6
14:28:27:285547,0,0,9,-11,-4,-1,-4,6
14:28:27:291614,19,20,23,-3,39,22,4,-2
14:28:27:307292,19,20,23,-3,39,22,4,-2
14:28:27:308046,-4,7,-33,-6,-30,-17,-6,-6
14:28:27:314125,8,-1,24,-7,-10,-2,-12,-26
14:28:27:329815,8,-1,24,-7,-10,-2,-12,-26
14:28:27:330609,11,-2,-2,-10,-14,-16,-13,-10
14:28:27:336581,19,4,-6,4,-18,5,5,7
14:28:27:344856,19,4,-6,4,-18,5,5,7
14:28:27:345573,-29,-11,4,-1,-21,-14,9,-5
14:28:27:351622,-7,-14,-47,-13,0,-7,3,1
14:28:27:367265,-7,-14,-47,-13,0,-7,3,1
14:28:27:368087,3,2,-11,-2,-15,-11,11,2
14:28:27:374117,1,-9,-65,4,10,-4,8,2
14:28:27:389842,1,-9,-65,4,10,-4,8,2
14:28:27:390595,10,-9,6,-10,-9,-11,-3,6
14:28:27:396576,11,1,31,10,26,5,-2,-4
14:28:27:404836,11,1,31,10,26,5,-2,-4
14:28:27:405564,8,-25,11,5,11,-12,13,0
14:28:27:411676,-6,15,11,6,9,5,11,-8
14:28:27:427398,-6,15,11,6,9,5,11,-8
14:28:27:428169,5,8,29,-7,16,-6,-5,-8
14:28:27:434064,2,-31,-28,-1,-11,-3,-10,3
14:28:27:449840,2,-31,-28,-1,-11,-3,-10,3
14:28:27:450574,-8,0,3,3,8,16,9,-2
14:28:27:456696,-23,-11,-3,-10,-19,-20,-22,-21
14:28:27:464818,-23,-11,-3,-10,-19,-20,-22,-21
14:28:27:465606,-10,2,-21,2,22,16,-3,-2
14:28:27:471623,34,-5,4,-19,-29,1,8,2
14:28:27:487337,34,-5,4,-19,-29,1,8,2
14:28:27:488166,13,1,5,9,4,-2,-14,-5
14:28:27:494144,14,-25,2,13,1,12,11,16
14:28:27:509905,14,-25,2,13,1,12,11,16
14:28:27:510643,-3,3,33,-6,-7,3,6,2
14:28:27:516589,-5,1,11,-15,-25,-20,-18,-6
14:28:27:524808,-5,1,11,-15,-25,-20,-18,-6
14:28:27:525570,-8,6,11,8,0,6,1,-6
14:28:27:531583,6,12,-20,-4,-9,-5,2,4
14:28:27:547333,6,12,-20,-4,-9,-5,2,4
14:28:27:548116,26,5,-23,-13,-18,-4,-5,6
14:28:27:554110,-31,-7,-36,16,-3,10,-4,-6
14:28:27:569784,-31,-7,-36,16,-3,10,-4,-6
14:28:27:570577,15,14,38,-9,0,3,-3,1
14:28:27:576578,18,14,35,-1,14,-2,3,11
14:28:27:584840,18,14,35,-1,14,-2,3,11
14:28:27:585579,-40,-10,42,8,-2,-1,2,-9
14:28:27:591592,-2,6,43,3,7,-3,-16,-5
14:28:27:607330,-2,6,43,3,7,-3,-16,-5
14:28:27:608055,-22,-17,-37,-2,-12,-11,6,-3
14:28:27:614058,4,1,0,-14,-11,1,20,1
14:28:27:629842,4,1,0,-14,-11,1,20,1
14:28:27:630564,-1,7,-3,-10,3,-3,-24,0
14:28:27:636556,23,17,70,22,-12,-9,10,3
14:28:27:644900,23,17,70,22,-12,-9,10,3
14:28:27:645588,7,2,40,11,0,1,-10,-7
14:28:27:651535,-3,2,-29,-4,-8,9,-14,7
14:28:27:667302,-3,2,-29,-4,-8,9,-14,7
14:28:27:668074,3,9,-47,11,29,9,-24,-1
14:28:27:674223,0,4,-10,8,4,0,5,-5
14:28:27:689877,0,4,-10,8,4,0,5,-5
14:28:27:690557,-42,-16,-39,-28,-32,-11,-9,-10
14:28:27:696576,-25,-2,-3,0,6,3,-16,-8
14:28:27:704827,-25,-2,-3,0,6,3,-16,-8
14:28:27:705551,-5,8,7,20,6,1,7,6
14:28:27:719149,-5,-6,-53,-4,-4,-11,5,-2
14:28:27:727396,-5,-6,-53,-4,-4,-11,5,-2
14:28:27:728077,40,-3,-26,20,6,2,0,5
14:28:27:734041,37,-18,-64,-19,-21,-12,-36,-8
14:28:27:741680,37,-18,-64,-19,-21,-12,-36,-8
14:28:27:749079,39,-4,-21,-33,12,-6,-8,-3
14:28:27:756637,-41,-14,-6,-10,-11,-20,-13,-12
14:28:27:764851,-41,-14,-6,-10,-11,-20,-13,-12
14:28:27:765590,-17,-19,-26,10,-15,9,5,2
14:28:27:779089,-26,3,26,4,10,6,10,-4
14:28:27:787291,-26,3,26,4,10,6,10,-4
14:28:27:788135,-7,15,26,5,19,6,5,10
14:28:27:794160,-16,-4,-2,-13,-11,-15,48,5
14:28:27:801642,-16,-4,-2,-13,-11,-15,48,5
14:28:27:809179,-3,-14,-58,-40,-20,8,10,1
14:28:27:816548,-24,4,19,-6,8,4,-6,-2
14:28:27:824837,-24,4,19,-6,8,4,-6,-2
14:28:27:825595,0,7,28,10,-9,13,29,1
14:28:27:839179,-8,10,1,16,7,-6,-2,3
14:28:27:847283,-8,10,1,16,7,-6,-2,3
14:28:27:848064,9,16,31,26,1,6,-11,8
14:28:27:854138,26,10,-15,16,11,2,14,4
14:28:27:861760,26,10,-15,16,11,2,14,4
14:28:27:869064,27,-4,-13,14,13,-7,3,-1
14:28:27:876668,10,-4,-13,-30,-17,0,18,6
14:28:27:884819,10,-4,-13,-30,-17,0,18,6
14:28:27:885536,-1,5,-33,-1,19,7,10,2
14:28:27:899115,-8,-8,14,2,25,4,-6,-8
14:28:27:907384,-8,-8,14,2,25,4,-6,-8
14:28:27:908169,14,6,-2,-12,-16,4,10,-1
14:28:27:914151,12,-4,31,28,0,20,22,4
14:28:27:921701,12,-4,31,28,0,20,22,4
14:28:27:929117,14,-17,-14,3,9,3,6,-4
14:28:27:936628,-10,-3,-51,-10,-4,-3,-25,-2
14:28:27:944883,-10,-3,-51,-10,-4,-3,-25,-2
14:28:27:945574,50,1,36,-19,-24,-29,3,7
14:28:27:959089,7,2,-11,-27,15,-11,-18,-1
14:28:27:967262,7,2,-11,-27,15,-11,-18,-1
14:28:27:968048,-49,3,56,6,7,-2,-2,-5
14:28:27:974111,13,-8,5,-13,-16,6,-17,-13
14:28:27:981670,13,-8,5,-13,-16,6,-17,-13
14:28:27:989210,4,-6,-9,3,-13,-18,-11,-6
14:28:27:996603,18,18,-19,21,8,7,4,10
14:28:28:4810,18,18,-19,21,8,7,4,10
14:28:28:5591,-55,6,-16,-19,-9,-27,-8,-6
14:28:28:19147,35,17,61,41,15,14,21,13
14:28:28:27369,35,17,61,41,15,14,21,13
14:28:28:28119,-58,-11,-29,7,-27,-18,-33,-6
14:28:28:34044,-9,-7,-8,-16,-14,-1,-4,-2
14:28:28:41619,-9,-7,-8,-16,-14,-1,-4,-2
14:28:28:49106,-22,-4,65,23,-3,-2,-17,-11
14:28:28:56657,11,-4,17,4,4,10,-16,0
14:28:28:64837,11,-4,17,4,4,10,-16,0
14:28:28:65652,23,-11,-9,-11,-7,2,25,1
14:28:28:79069,13,-3,0,-14,-11,-22,-15,-1
14:28:28:87351,13,-3,0,-14,-11,-22,-15,-1
14:28:28:88071,27,8,26,5,38,20,-2,5
14:28:28:94139,-4,1,19,-11,-7,-5,2,1
14:28:28:101639,-4,1,19,-11,-7,-5,2,1
14:28:28:109243,-90,-13,-22,-2,11,-3,-19,-26
14:28:28:116577,8,-8,-5,-7,-16,-3,6,4
14:28:28:124914,8,-8,-5,-7,-16,-3,6,4
14:28:28:125602,16,-1,-11,-16,-5,-1,22,7
14:28:28:139162,-32,3,-9,8,32,22,-12,-10
14:28:28:147328,-32,3,-9,8,32,22,-12,-10
14:28:28:148189,4,-8,2,12,-14,-24,-16,-2
14:28:28:154115,51,16,31,6,28,7,-2,6
14:28:28:161728,51,16,31,6,28,7,-2,6
14:28:28:169094,46,3,-30,-22,-11,6,-14,5
14:28:28:176763,-4,-10,-7,25,12,8,19,-9
14:28:28:184798,-4,-10,-7,25,12,8,19,-9
14:28:28:185532,7,-5,-5,0,-23,-6,-1,2
14:28:28:199159,-14,0,6,0,-1,-2,0,-8
14:28:28:207354,-14,0,6,0,-1,-2,0,-8
14:28:28:208077,41,15,14,24,30,17,13,8
14:28:28:214112,-61,-15,-1,-15,-38,-26,-10,-7
14:28:28:221666,-61,-15,-1,-15,-38,-26,-10,-7
14:28:28:229218,13,-7,-28,-39,-17,-11,-6,-3
14:28:28:236603,-7,4,38,-14,-5,-9,-5,3
14:28:28:244799,-7,4,38,-14,-5,-9,-5,3
14:28:28:245611,-21,-1,28,8,4,-1,19,-5
14:28:28:259156,-9,22,3,6,-8,-9,-7,-9
14:28:28:267274,-9,22,3,6,-8,-9,-7,-9
14:28:28:268067,-20,2,11,-6,-8,-3,2,-1
14:28:28:274093,-9,-4,-22,-9,-2,3,-6,2
14:28:28:281629,-9,-4,-22,-9,-2,3,-6,2
14:28:28:289135,-1,-9,-21,-18,22,9,-7,1
14:28:28:296553,6,-13,-22,7,-15,1,-14,2
14:28:28:304890,6,-13,-22,7,-15,1,-14,2
14:28:28:305572,30,5,14,-10,-6,8,9,-2
14:28:28:319043,23,-4,-75,-28,-15,-24,15,0
14:28:28:327422,23,-4,-75,-28,-15,-24,15,0
14:28:28:328111,-20,-11,-10,3,-12,-3,-5,-4
14:28:28:334051,-5,-2,15,-3,-5,-1,-13,-4
14:28:28:341720,-5,-2,15,-3,-5,-1,-13,-4
14:28:28:349092,-31,-14,-18,26,15,15,12,-6
14:28:28:356657,-78,-17,28,11,5,21,3,3
14:28:28:364825,-78,-17,28,11,5,21,3,3
14:28:28:365615,-31,8,31,-24,-14,-21,-18,-1
14:28:28:379105,42,6,28,-1,0,7,21,6
14:28:28:387293,42,6,28,-1,0,7,21,6
14:28:28:388099,-26,12,-2,16,7,10,9,0
14:28:28:394181,10,2,35,12,-10,-4,-12,-8
14:28:28:401661,10,2,35,12,-10,-4,-12,-8
14:28:28:409141,-4,12,66,7,-6,-7,2,7
14:28:28:416588,-26,1,-4,2,5,-11,-32,-5
14:28:28:424858,-26,1,-4,2,5,-11,-32,-5
14:28:28:425606,21,-1,-38,4,17,13,12,-3
14:28:28:439218,37,11,9,-10,0,-5,0,5
14:28:28:447366,37,11,9,-10,0,-5,0,5
14:28:28:448177,6,-16,-112,-24,-15,-18,-7,-1
14:28:28:454073,30,-13,-50,-7,28,18,9,1
14:28:28:461731,30,-13,-50,-7,28,18,9,1
14:28:28:469107,-2,-16,-11,1,-9,-2,-3,-3
14:28:28:476624,17,-3,-59,-14,-12,14,-4,2
14:28:28:484780,17,-3,-59,-14,-12,14,-4,2
14:28:28:485541,44,6,30,-4,-11,11,-6,6
14:28:28:499120,33,5,56,-9,-26,-13,17,-5
14:28:28:507744,33,5,56,-9,-26,-13,17,-5
14:28:28:514797,24,2,18,16,11,-11,-18,2
14:28:28:515584,8,2,1,-10,-58,-16,-7,-19
14:28:28:521635,8,2,1,-10,-58,-16,-7,-19
14:28:28:529093,-32,6,48,4,10,13,22,0
14:28:28:536547,-42,-12,-4,1,1,23,3,-2
14:28:28:544924,-42,-12,-4,1,1,23,3,-2
14:28:28:545582,-33,0,-28,5,7,-11,1,1
14:28:28:559136,-8,-5,-25,4,0,-9,6,6
14:28:28:567256,-8,-5,-25,4,0,-9,6,6
14:28:28:568101,16,8,-72,-12,7,-7,0,4
14:28:28:574099,30,-3,-23,6,10,-19,6,9
14:28:28:581672,30,-3,-23,6,10,-19,6,9
14:28:28:589192,-34,-11,-30,-9,-19,-25,-21,4
14:28:28:596626,15,5,-4,15,28,16,13,8
14:28:28:604868,15,5,-4,15,28,16,13,8
14:28:28:605608,-39,-11,27,-10,14,-14,6,-19
14:28:28:619076,-22,9,42,8,20,-4,-8,0
14:28:28:627392,-22,9,42,8,20,-4,-8,0
14:28:28:628125,22,-13,15,-7,-2,4,-5,0
14:28:28:642332,-68,-6,-13,-14,-6,-14,0,-9
14:28:28:643119,-68,-6,-13,-14,-6,-14,0,-9
14:28:28:649054,-12,-1,41,6,-1,20,8,-4
14:28:28:656619,-43,-2,32,-6,22,-4,-4,-7
14:28:28:664168,-43,-2,32,-6,22,-4,-4,-7
14:28:28:671561,-4,-3,11,9,14,28,22,6
14:28:28:679132,7,-5,-2,-7,-23,-22,-12,-10
14:28:28:687326,7,-5,-2,-7,-23,-22,-12,-10
14:28:28:688115,49,3,-10,-4,6,10,-8,-2
14:28:28:702340,-4,-5,3,-12,-12,-5,-2,-8
14:28:28:703121,-4,-5,3,-12,-12,-5,-2,-8
14:28:28:709130,16,15,3,25,-8,11,27,8
14:28:28:716594,-18,1,-27,-4,-26,-31,-4,2
14:28:28:724264,-18,1,-27,-4,-26,-31,-4,2
14:28:28:731600,23,5,44,9,29,15,-5,-2
14:28:28:739124,23,-1,0,10,29,10,3,11
14:28:28:747283,23,-1,0,10,29,10,3,11
14:28:28:748174,35,12,-39,-8,-2,-10,3,-3
14:28:28:762318,-44,-5,6,-26,-11,4,-10,-9
14:28:28:763133,-44,-5,6,-26,-11,4,-10,-9
14:28:28:769063,48,6,30,-16,-12,-8,-25,9
14:28:28:776693,41,7,19,12,1,-9,-21,2
14:28:28:784180,41,7,19,12,1,-9,-21,2
14:28:28:791629,1,-4,68,5,9,-1,-12,-3
14:28:28:799147,-20,-9,-37,-3,-13,-12,3,-12
14:28:28:807337,-20,-9,-37,-3,-13,-12,3,-12
14:28:28:808080,-14,-13,-63,9,-7,-4,-13,-5
14:28:28:822279,10,1,21,9,-3,24,21,-5
14:28:28:823099,10,1,21,9,-3,24,21,-5
14:28:28:829193,-45,-11,-44,-23,-24,-16,-11,-9
14:28:28:836632,-38,-17,-47,-13,-5,-9,19,-2
14:28:28:844107,-38,-17,-47,-13,-5,-9,19,-2
14:28:28:851658,9,-3,-44,18,32,10,3,17
14:28:28:859113,5,-4,49,7,-10,2,-13,-8
14:28:28:867264,5,-4,49,7,-10,2,-13,-8
14:28:28:868061,-22,3,-21,-24,-27,-34,-12,-1
14:28:28:882292,9,-2,-13,7,20,6,18,6
14:28:28:883104,9,-2,-13,7,20,6,18,6
14:28:28:889216,-26,7,-5,-8,-47,-22,-32,-10
14:28:28:896661,2,-15,-47,-10,3,8,-21,4
14:28:28:904155,2,-15,-47,-10,3,8,-21,4
14:28:28:911596,31,4,28,13,12,-6,-20,-8
14:28:28:919074,-42,-20,-5,-20,-6,-9,-27,-2
14:28:28:927380,-42,-20,-5,-20,-6,-9,-27,-2
14:28:28:928138,17,9,24,7,-4,17,21,-2
14:28:28:942265,51,29,-19,4,1,-17,-6,10
14:28:28:943094,51,29,-19,4,1,-17,-6,10
14:28:28:949048,16,10,41,13,19,22,21,6
14:28:28:956583,-62,-4,37,9,2,12,24,-9
14:28:28:964170,-62,-4,37,9,2,12,24,-9
14:28:28:971583,-60,-20,-38,-5,-22,-11,11,-9
14:28:28:979144,29,4,19,10,24,4,-9,6
14:28:28:987345,29,4,19,10,24,4,-9,6
14:28:28:988116,0,2,36,-9,-11,-12,-16,0
14:28:29:2313,11,-4,-25,-16,-18,-16,26,7
14:28:29:3070,11,-4,-25,-16,-18,-16,26,7
14:28:29:9128,13,-3,-32,-5,4,16,9,7
14:28:29:16609,-66,-18,18,5,-7,-9,-2,-22
14:28:29:24285,-66,-18,18,5,-7,-9,-2,-22
14:28:29:31606,24,2,-23,-4,9,-18,0,-1
14:28:29:39172,29,9,-4,28,-4,9,-2,-6
14:28:29:47336,29,9,-4,28,-4,9,-2,-6
14:28:29:48203,-19,3,3,11,-8,15,-10,-5
14:28:29:62327,48,-3,-62,-4,-17,10,-15,8
14:28:29:63171,48,-3,-62,-4,-17,10,-15,8
14:28:29:69194,4,3,25,-4,-3,7,6,-2
14:28:29:76630,44,5,-5,-8,3,-4,1,4
14:28:29:84191,44,5,-5,-8,3,-4,1,4
14:28:29:91641,19,4,51,2,10,13,15,-5
14:28:29:99126,21,11,-3,-8,0,0,-14,6
14:28:29:107383,21,11,-3,-8,0,0,-14,6
14:28:29:108083,-6,-6,-1,-2,-3,-2,-9,-12
14:28:29:122400,-7,-2,37,-6,-10,1,14,-2
14:28:29:123078,-7,-2,37,-6,-10,1,14,-2
14:28:29:129172,-31,-13,21,-9,-25,-13,-4,10
14:28:29:136640,15,13,-4,5,28,-2,-13,-3
14:28:29:144240,15,13,-4,5,28,-2,-13,-3
14:28:29:151559,6,-5,-60,-11,-15,-12,-27,-10
14:28:29:159189,19,2,2,9,-2,22,-13,1
14:28:29:167269,19,2,2,9,-2,22,-13,1
14:28:29:168085,14,-1,-35,5,21,3,2,5
14:28:29:182294,-8,10,-21,9,-3,5,4,-6
14:28:29:183106,-8,10,-21,9,-3,5,4,-6
14:28:29:189243,-2,-18,-5,-5,-16,-24,-2,-3
14:28:29:196653,-67,-11,67,-13,9,16,14,-6
14:28:29:204193,-67,-11,67,-13,9,16,14,-6
14:28:29:211567,-15,-6,-19,-16,9,16,-12,-3
14:28:29:219132,3,-3,42,27,22,-10,-11,2
14:28:29:227332,3,-3,42,27,22,-10,-11,2
14:28:29:228126,-3,12,0,1,-1,5,12,15
14:28:29:242393,-34,-6,-8,-7,-23,1,16,2
14:28:29:243119,-34,-6,-8,-7,-23,1,16,2
14:28:29:249035,2,5,23,-7,-3,0,-7,-10
14:28:29:256610,-3,-3,-42,-3,-4,-5,-9,4
14:28:29:264089,-3,-3,-42,-3,-4,-5,-9,4
14:28:29:271661,-22,1,-5,6,1,3,11,-5
14:28:29:279126,1,11,23,2,15,5,-2,9
14:28:29:287317,1,11,23,2,15,5,-2,9
14:28:29:288055,8,4,-6,-4,-8,-11,10,2
14:28:29:302284,3,-2,6,14,9,4,5,-3
14:28:29:303106,3,-2,6,14,9,4,5,-3
14:28:29:309117,-54,-18,-28,-9,20,-6,-6,0
14:28:29:316588,33,1,15,-11,-2,-6,-6,-8
14:28:29:324220,33,1,15,-11,-2,-6,-6,-8
14:28:29:331615,25,-1,6,2,-6,14,-12,-5
14:28:29:339303,-14,-6,-37,-23,-31,-17,-4,3
14:28:29:347338,-14,-6,-37,-23,-31,-17,-4,3
14:28:29:348099,18,7,-3,19,24,15,14,3
14:28:29:362352,-48,-5,-3,6,6,1,-4,-10
14:28:29:363217,-48,-5,-3,6,6,1,-4,-10
14:28:29:369065,-4,-3,-3,3,-6,-5,5,2
14:28:29:376659,9,-5,13,-2,4,-12,-10,-1
14:28:29:384077,9,-5,13,-2,4,-12,-10,-1
14:28:29:391688,-32,1,67,6,-19,0,-3,-1
14:28:29:399145,-44,-12,-69,-10,-15,-11,-16,-11
14:28:29:407397,-44,-12,-69,-10,-15,-11,-16,-11
14:28:29:408083,16,14,-27,4,-14,-9,4,-2
14:28:29:422829,-19,-12,-11,-13,30,14,-7,5
14:28:29:429818,-19,-12,-11,-13,30,14,-7,5
14:28:29:430587,32,8,14,-16,-19,-28,6,3
14:28:29:436626,46,17,78,-4,-12,-3,20,2
14:28:29:444248,46,17,78,-4,-12,-3,20,2
14:28:29:451534,3,-14,-76,-6,6,0,-11,-1
14:28:29:459217,30,17,-7,-1,1,0,2,-8
14:28:29:467250,30,17,-7,-1,1,0,2,-8
14:28:29:468045,-7,-3,15,-3,-9,-2,-1,1
14:28:29:482303,-4,-15,-31,-2,-23,-10,5,10
14:28:29:483092,-4,-15,-31,-2,-23,-10,5,10
14:28:29:489216,-14,-8,28,-3,9,15,-6,-7
14:28:29:496669,0,-14,-1,0,-15,-1,0,3
14:28:29:504193,0,-14,-1,0,-15,-1,0,3
14:28:29:511709,-61,-26,4,-6,-11,-11,-13,-11
14:28:29:519090,-3,-11,39,0,-10,-3,-1,1
14:28:29:527492,-3,-11,39,0,-10,-3,-1,1
14:28:29:528098,13,20,30,21,27,11,-6,0
14:28:29:542345,17,3,-49,1,20,3,0,-2
14:28:29:543163,17,3,-49,1,20,3,0,-2
14:28:29:549079,5,0,8,-16,-2,5,4,-2
14:28:29:556640,59,22,25,-8,-1,10,-13,5
14:28:29:564131,59,22,25,-8,-1,10,-13,5
14:28:29:571661,-31,-11,-12,11,4,-7,8,-9
14:28:29:579107,-19,-13,-10,11,15,2,3,2
14:28:29:586696,-19,-13,-10,11,15,2,3,2
14:28:29:594244,46,8,18,-3,0,-8,-10,5
14:28:29:602280,-7,5,91,14,17,29,16,-7
14:28:29:603047,-7,5,91,14,17,29,16,-7
14:28:29:609237,33,0,-3,-4,-7,-17,-1,1
14:28:29:624912,-22,-7,-49,-20,9,-3,1,-2
14:28:29:625669,-22,-7,-49,-20,9,-3,1,-2
14:28:29:631594,-8,12,4,4,6,0,-4,10
14:28:29:639257,25,11,-14,4,-13,5,-1,2
14:28:29:646652,25,11,-14,4,-13,5,-1,2
14:28:29:654143,0,4,-11,-2,-22,6,-1,4
14:28:29:662298,66,1,-29,-3,0,6,3,6
14:28:29:663109,66,1,-29,-3,0,6,3,6
14:28:29:669035,-32,11,-15,7,-15,20,-1,-6
14:28:29:684794,-34,3,-16,-23,-27,-12,1,0
14:28:29:685573,-34,3,-16,-23,-27,-12,1,0
14:28:29:691668,10,-7,12,8,-2,-5,7,-1
14:28:29:699152,-1,-4,-33,6,-14,-6,2,-6
14:28:29:706653,-1,-4,-33,6,-14,-6,2,-6
14:28:29:714075,29,-14,8,-15,6,2,-14,-6
14:28:29:722311,-18,9,-3,9,-1,-16,-22,3
14:28:29:723077,-18,9,-3,9,-1,-16,-22,3
14:28:29:729102,6,6,34,-6,8,1,-5,2
14:28:29:744847,-24,8,19,21,35,1,11,2
14:28:29:745565,-24,8,19,21,35,1,11,2
14:28:29:751527,25,-18,-56,-11,-3,-21,12,1
14:28:29:759130,12,10,47,-4,10,-11,0,6
14:28:29:766623,12,10,47,-4,10,-11,0,6
14:28:29:774144,-35,-12,24,-20,6,-14,5,3
14:28:29:782317,-10,-12,-37,-8,4,-15,-9,3
14:28:29:783113,-10,-12,-37,-8,4,-15,-9,3
14:28:29:789165,-5,7,-44,24,10,5,-10,-10
14:28:29:804770,7,-8,-32,-15,-31,-3,-10,-2
14:28:29:805583,7,-8,-32,-15,-31,-3,-10,-2
14:28:29:811591,-48,-22,6,9,19,1,5,-4
14:28:29:819045,-16,-2,21,14,5,-3,-9,-10
14:28:29:826749,-16,-2,21,14,5,-3,-9,-10
14:28:29:834091,9,-5,-23,-21,-4,10,-2,-2
14:28:29:842342,-8,-5,4,26,2,9,-22,-5
14:28:29:843133,-8,-5,4,26,2,9,-22,-5
14:28:29:849090,14,9,2,-8,-9,-12,-1,3
14:28:29:864807,38,-4,-3,9,21,-3,16,3
14:28:29:865604,38,-4,-3,9,21,-3,16,3
14:28:29:871647,0,4,22,-4,-26,5,-4,-6
14:28:29:879172,-14,-1,27,2,-16,-18,7,-11
14:28:29:886664,-14,-1,27,2,-16,-18,7,-11
14:28:29:894099,-49,-7,-19,5,22,1,-2,0
14:28:29:910473,27,0,26,-14,-15,11,-7,-2
14:28:29:911297,27,0,26,-14,-15,11,-7,-2
14:28:29:912087,13,-9,-24,1,-21,-2,-8,1
14:28:29:924787,-13,-8,-6,-18,-14,9,-12,-1
14:28:29:925586,-13,-8,-6,-18,-14,9,-12,-1
14:28:29:931581,-30,-8,11,-1,-4,-15,-5,-15
14:28:29:939157,5,8,-16,-20,0,16,-27,5
14:28:29:946690,5,8,-16,-20,0,16,-27,5
14:28:29:954084,57,13,13,14,27,0,-2,9
14:28:29:962369,-50,-9,0,6,-9,-15,12,-1
14:28:29:963224,-50,-9,0,6,-9,-15,12,-1
14:28:29:969091,-49,-3,10,-10,-4,16,4,-4
14:28:29:984838,12,-5,33,-6,-4,-9,9,-3
14:28:29:985586,12,-5,33,-6,-4,-9,9,-3
14:28:29:991627,-16,4,19,-4,-37,-11,3,2
14:28:29:999109,-22,-10,-21,5,36,15,-26,-7
14:28:30:6757,-22,-10,-21,5,36,15,-26,-7
14:28:30:14093,34,2,-69,7,-4,-11,-6,1
14:28:30:22465,-1,0,19,0,-3,-6,1,7
14:28:30:23088,-1,0,19,0,-3,-6,1,7
14:28:30:29145,-16,-4,-64,-10,-19,5,3,8
14:28:30:44867,-13,-2,38,4,5,7,25,-2
14:28:30:45641,-13,-2,38,4,5,7,25,-2
14:28:30:51554,-43,0,44,19,31,5,5,-15
14:28:30:59141,64,7,-8,-22,-12,-7,-16,1
14:28:30:66639,64,7,-8,-22,-12,-7,-16,1
14:28:30:74172,49,14,39,4,-14,20,14,2
14:28:30:82301,-8,18,-36,6,14,28,30,-3
14:28:30:83094,-8,18,-36,6,14,28,30,-3
14:28:30:89253,34,3,-1,-7,9,1,-9,-4
14:28:30:104801,32,-7,-23,-9,-62,-42,-6,-2
14:28:30:105625,32,-7,-23,-9,-62,-42,-6,-2
14:28:30:111696,28,1,22,18,46,16,-1,10
14:28:30:119098,17,-2,23,6,-14,-10,-1,-9
14:28:30:126685,17,-2,23,6,-14,-10,-1,-9
14:28:30:134029,-10,0,48,1,-23,-10,0,8
14:28:30:142354,7,-9,-43,1,28,5,7,3
14:28:30:143119,7,-9,-43,1,28,5,7,3
14:28:30:149070,-11,-10,24,-25,-29,2,-15,-12
14:28:30:164798,26,2,-18,-1,10,-12,-16,1
14:28:30:165588,26,2,-18,-1,10,-12,-16,1
14:28:30:171602,21,4,-30,10,4,-17,-14,-4
14:28:30:179105,-49,4,3,0,1,28,8,-10
14:28:30:186617,-49,4,3,0,1,28,8,-10
14:28:30:194201,5,-6,-23,-15,-25,-14,-1,0
14:28:30:202284,5,12,-3,-5,-5,2,-7,-25
14:28:30:203124,5,12,-3,-5,-5,2,-7,-25
14:28:30:209185,-13,-3,2,-7,7,-2,8,3
14:28:30:224822,-63,-1,18,5,-3,-15,1,-3
14:28:30:225607,-63,-1,18,5,-3,-15,1,-3
14:28:30:231594,44,11,21,0,20,0,-9,9
14:28:30:239152,-29,-22,-5,-11,42,-3,5,5
14:28:30:246675,-29,-22,-5,-11,42,-3,5,5
14:28:30:254079,15,-5,-26,-1,-10,-5,4,-4
14:28:30:262284,10,5,-60,10,12,-1,-1,7
14:28:30:263044,10,5,-60,10,12,-1,-1,7
14:28:30:269095,12,-6,-23,2,9,15,23,1
14:28:30:284814,-6,0,21,4,-27,20,12,-9
14:28:30:285566,-6,0,21,4,-27,20,12,-9
14:28:30:291634,-41,-7,-4,-4,4,-3,-36,-7
14:28:30:299111,-32,1,2,6,-15,-28,-13,6
14:28:30:306713,-32,1,2,6,-15,-28,-13,6
14:28:30:314083,0,14,20,10,6,13,9,5
14:28:30:322295,-47,-9,31,-1,2,-8,-15,-3
14:28:30:323074,-47,-9,31,-1,2,-8,-15,-3
14:28:30:329113,-5,-13,14,-14,9,-12,6,-11
14:28:30:344835,51,-7,-41,-20,-18,18,9,1
14:28:30:345559,51,-7,-41,-20,-18,18,9,1
14:28:30:351571,-41,7,-7,25,33,10,9,3
14:28:30:359145,0,-10,-41,17,-17,-5,-1,0
14:28:30:366619,0,-10,-41,17,-17,-5,-1,0
14:28:30:374246,11,9,-10,-1,-8,-1,13,-2
14:28:30:382277,-18,-4,-2,-5,9,-5,-2,-3
14:28:30:383089,-18,-4,-2,-5,9,-5,-2,-3
14:28:30:389166,19,-10,-24,-18,-19,-1,-10,1
14:28:30:404786,26,15,44,10,6,0,8,9
14:28:30:405586,26,15,44,10,6,0,8,9
14:28:30:411666,22,-5,6,-4,-14,-7,3,2
14:28:30:419110,0,3,24,14,-9,1,11,11
14:28:30:426717,0,3,24,14,-9,1,11,11
14:28:30:434029,-11,7,-10,0,10,15,-3,-4
14:28:30:442351,19,9,28,5,30,-13,-26,-5
14:28:30:443110,19,9,28,5,30,-13,-26,-5
14:28:30:449058,17,10,48,-1,7,7,5,-3
14:28:30:464796,17,10,48,-1,7,7,5,-3
14:28:30:465574,-22,8,26,-2,4,7,6,18
14:28:30:471616,4,-14,-10,-15,-8,-20,-22,0
14:28:30:487321,4,-14,-10,-15,-8,-20,-22,0
14:28:30:488096,-19,-18,-10,-19,9,-4,-6,-12
14:28:30:494165,20,0,-16,-8,-16,4,-3,7
14:28:30:502288,20,0,-16,-8,-16,4,-3,7
14:28:30:503093,-3,14,30,-8,7,-1,-2,-2
14:28:30:509170,-17,-8,0,-3,-7,-6,-2,-11
14:28:30:524818,-17,-8,0,-3,-7,-6,-2,-11
14:28:30:525592,-47,-28,-41,-30,-25,5,-14,-18
14:28:30:531577,-12,-10,-56,-3,-2,-4,-5,1
14:28:30:547311,-12,-10,-56,-3,-2,-4,-5,1
14:28:30:548078,53,17,6,-1,-22,0,3,2
14:28:30:554102,18,10,4,8,12,10,-1,-1
14:28:30:562333,18,10,4,8,12,10,-1,-1
14:28:30:563118,17,-8,1,5,0,8,11,6
14:28:30:576665,-23,4,19,7,-17,-12,2,-2
14:28:30:584787,-23,4,19,7,-17,-12,2,-2
14:28:30:585562,7,8,-20,6,-16,-16,9,6
14:28:30:591644,-19,-11,-17,19,16,14,17,-4
14:28:30:607424,-19,-11,-17,19,16,14,17,-4
14:28:30:608033,3,-6,1,13,10,-9,-3,-4
14:28:30:614106,-23,-1,-14,-6,8,1,9,5
14:28:30:622389,-23,-1,-14,-6,8,1,9,5
14:28:30:623081,28,22,-4,6,-5,12,4,-2
14:28:30:636606,15,9,21,0,-25,-14,-4,-8
14:28:30:644853,15,9,21,0,-25,-14,-4,-8
14:28:30:645571,7,5,25,4,7,-4,-24,1
14:28:30:651552,-6,-3,29,6,18,-2,-9,2
14:28:30:667291,-6,-3,29,6,18,-2,-9,2
14:28:30:668129,-6,-1,-26,-8,-9,-12,22,-16
14:28:30:674197,14,0,29,-12,5,-4,6,2
14:28:30:682292,14,0,29,-12,5,-4,6,2
14:28:30:683067,-7,-14,47,-23,-10,10,0,5
14:28:30:696616,-20,3,-44,-11,-21,-4,14,-8
14:28:30:704873,-20,3,-44,-11,-21,-4,14,-8
14:28:30:705634,-25,6,-50,11,17,8,1,-5
14:28:30:711686,-12,-17,-41,3,4,3,-22,5
14:28:30:727454,-12,-17,-41,3,4,3,-22,5
14:28:30:728106,-8,-10,0,-1,-1,1,-8,0
14:28:30:734039,-11,2,1,7,4,-16,-6,-2
14:28:30:742335,-11,2,1,7,4,-16,-6,-2
14:28:30:743085,3,9,62,18,19,24,0,0
14:28:30:756673,40,1,45,7,-13,-7,-10,5
14:28:30:764832,40,1,45,7,-13,-7,-10,5
14:28:30:765627,-23,-6,33,12,2,6,6,0
14:28:30:771651,27,6,32,19,0,-2,4,3
14:28:30:787331,27,6,32,19,0,-2,4,3
14:28:30:788102,37,-7,-5,-13,-22,-21,-9,0
14:28:30:794141,-12,4,54,-3,23,18,3,-11
14:28:30:802315,-12,4,54,-3,23,18,3,-11
14:28:30:803097,-25,-4,-38,2,-6,-12,-30,-3
14:28:30:816576,-26,-9,-48,24,20,0,-25,0
14:28:30:824797,-26,-9,-48,24,20,0,-25,0
14:28:30:825597,8,-9,-9,-9,-17,-9,-3,13
14:28:30:831571,-3,4,7,5,-8,1,6,-1
14:28:30:847290,-3,4,7,5,-8,1,6,-1
14:28:30:848073,-12,4,-29,-5,-5,10,13,13
14:28:30:854152,5,-25,-17,-13,8,-9,2,-4
14:28:30:862329,5,-25,-17,-13,8,-9,2,-4
14:28:30:863109,30,-18,-62,-44,-18,-25,1,3
14:28:30:876655,-51,14,26,7,-11,16,16,-3
14:28:30:884780,-51,14,26,7,-11,16,16,-3
14:28:30:885563,-13,7,39,2,-16,-2,-5,-8
14:28:30:891612,-37,-9,-69,-32,-5,-4,12,-1
14:28:30:907417,-37,-9,-69,-32,-5,-4,12,-1
14:28:30:908109,4,-22,2,21,18,-3,10,-4
14:28:30:914109,2,12,60,-8,-4,-3,-14,1
14:28:30:922435,2,12,60,-8,-4,-3,-14,1
14:28:30:923083,8,13,-18,-5,8,-5,0,-4
14:28:30:936547,28,0,15,-2,-9,-2,1,1
14:28:30:944902,28,0,15,-2,-9,-2,1,1
14:28:30:945569,-8,4,-2,-1,-11,-4,-16,1
14:28:30:951534,3,17,-37,30,16,8,-2,0
14:28:30:967268,3,17,-37,30,16,8,-2,0
14:28:30:968064,0,6,-13,-6,3,8,11,1
14:28:30:974111,13,-10,-41,0,8,-3,1,2
14:28:30:982300,13,-10,-41,0,8,-3,1,2
14:28:30:983096,-12,-1,55,9,2,6,-6,1
14:28:30:996632,24,1,-29,-26,-16,-2,-10,-6
14:28:31:4830,24,1,-29,-26,-16,-2,-10,-6
14:28:31:5612,-17,16,43,16,7,-12,8,10
14:28:31:11707,21,0,-34,-9,-18,-5,-19,2
14:28:31:27390,21,0,-34,-9,-18,-5,-19,2
14:28:31:28101,17,-16,-80,-30,-16,4,-16,-3
14:28:31:34100,-17,1,30,-8,-29,-1,-17,4
14:28:31:42338,-17,1,30,-8,-29,-1,-17,4
14:28:31:43066,-46,-5,-9,-2,7,10,8,-13
14:28:31:56679,4,-22,-15,-17,-2,-13,6,-3
14:28:31:64793,4,-22,-15,-17,-2,-13,6,-3
14:28:31:65591,11,0,42,8,-6,-2,-3,3
14:28:31:71585,-48,-5,3,3,-8,-11,24,-5
14:28:31:87316,-48,-5,3,3,-8,-11,24,-5
14:28:31:88063,-15,-3,-31,4,7,9,-3,-8
14:28:31:94084,14,0,-26,5,-2,-13,6,0
14:28:31:102336,14,0,-26,5,-2,-13,6,0
14:28:31:103072,-17,-4,-5,-9,-8,-6,-4,-8
14:28:31:116621,-3,15,59,-2,6,16,8,-4
14:28:31:124770,-3,15,59,-2,6,16,8,-4
14:28:31:125580,23,5,-18,21,33,12,-27,-1
14:28:31:131619,16,18,21,1,2,-8,-22,9
14:28:31:147354,16,18,21,1,2,-8,-22,9
14:28:31:148109,17,-16,-13,0,2,-6,15,-5
14:28:31:154153,2,-12,-33,-11,-15,-3,0,-9
14:28:31:162312,2,-12,-33,-11,-15,-3,0,-9
14:28:31:163051,-32,-16,-88,-7,8,-11,-8,-5
14:28:31:176660,3,-1,-24,-3,13,11,12,5
14:28:31:184731,3,-1,-24,-3,13,11,12,5
14:28:31:185538,35,9,16,-6,-17,13,11,1
14:28:31:191610,10,10,39,15,17,0,4,-15
14:28:31:207324,10,10,39,15,17,0,4,-15
14:28:31:208140,28,9,19,-5,-17,-7,0,8
14:28:31:214113,-5,-5,-70,-24,-7,-3,-26,-8
14:28:31:222383,-5,-5,-70,-24,-7,-3,-26,-8
14:28:31:223057,-15,-8,-23,-4,20,-13,4,4
14:28:31:236616,6,-10,17,4,-3,2,3,-3
14:28:31:244945,6,-10,17,4,-3,2,3,-3
14:28:31:245605,8,8,16,-9,-9,-12,16,7
14:28:31:251585,14,-1,23,8,4,5,-8,1
14:28:31:267330,14,-1,23,8,4,5,-8,1
14:28:31:268108,28,-13,-60,-16,-5,-3,-8,-11
14:28:31:274117,-30,-9,-32,-10,-10,-17,16,5
14:28:31:282351,-30,-9,-32,-10,-10,-17,16,5
14:28:31:283136,-50,6,33,23,36,0,-11,-4
14:28:31:296580,19,-1,22,13,17,3,-1,2
14:28:31:304827,19,-1,22,13,17,3,-1,2
14:28:31:305635,6,-6,-9,-7,-1,11,16,3
14:28:31:311633,-37,-1,-2,-11,-12,-13,8,18
14:28:31:327376,-37,-1,-2,-11,-12,-13,8,18
14:28:31:328116,-18,3,5,2,4,4,16,1
14:28:31:334043,11,10,16,-20,-23,2,-4,-9
14:28:31:342353,11,10,16,-20,-23,2,-4,-9
14:28:31:343112,-9,1,31,12,1,23,-1,-2
14:28:31:356608,-4,-12,-30,-3,-13,-8,-2,-2
14:28:31:364822,-4,-12,-30,-3,-13,-8,-2,-2
14:28:31:365585,-26,0,43,14,1,-3,-10,-8
14:28:31:371593,-28,2,38,19,21,7,-11,-14
14:28:31:387315,-28,2,38,19,21,7,-11,-14
14:28:31:388065,40,3,5,0,-12,-11,2,5
14:28:31:394143,17,-6,-20,-8,5,2,-18,10
14:28:31:402332,17,-6,-20,-8,5,2,-18,10
14:28:31:403104,1,3,24,-4,5,-2,-23,-9
14:28:31:416627,3,2,28,-2,-3,1,-9,-3
14:28:31:424834,3,2,28,-2,-3,1,-9,-3
14:28:31:425600,49,23,30,12,-3,-6,10,5
14:28:31:431637,-32,-6,10,3,-5,-3,6,-24
14:28:31:447305,-32,-6,10,3,-5,-3,6,-24
14:28:31:448090,-32,-4,-2,-8,-19,-10,0,2
14:28:31:454075,-34,-6,31,-11,-9,1,2,4
14:28:31:461741,-34,-6,31,-11,-9,1,2,4
14:28:31:469084,11,11,5,8,-8,20,-17,-11
14:28:31:476711,11,1,23,5,1,-7,14,-4
14:28:31:484811,11,1,23,5,1,-7,14,-4
14:28:31:485567,-10,-7,33,1,-17,9,17,-1
14:28:31:499055,-11,1,-1,-1,2,29,13,-2
14:28:31:507425,-11,1,-1,-1,2,29,13,-2
14:28:31:508108,5,-14,-67,-14,-5,-14,0,5
14:28:31:514089,26,-7,-25,3,-2,9,21,1
14:28:31:521696,26,-7,-25,3,-2,9,21,1
14:28:31:529088,26,8,-13,-1,1,1,8,4
14:28:31:536627,-54,-16,-15,4,-16,0,-17,-4
14:28:31:544872,-54,-16,-15,4,-16,0,-17,-4
14:28:31:545617,7,-15,-32,-13,-6,-14,-2,-1
14:28:31:559193,23,6,-12,-1,-32,-11,-7,-1
14:28:31:567298,23,6,-12,-1,-32,-11,-7,-1
14:28:31:568114,2,0,10,-3,10,1,4,9
14:28:31:574133,14,-7,-67,1,39,-6,12,-2
14:28:31:581676,14,-7,-67,1,39,-6,12,-2
14:28:31:589157,-5,2,31,4,-7,2,-7,-3
14:28:31:596658,32,6,6,-4,1,1,1,3
14:28:31:604857,32,6,6,-4,1,1,1,3
14:28:31:605561,-2,1,1,-15,-24,-31,19,5
14:28:31:619072,27,-3,-25,3,32,9,-19,9
14:28:31:627307,27,-3,-25,3,32,9,-19,9
14:28:31:628060,2,10,33,-5,-3,11,-3,-1
14:28:31:634074,-2,1,-14,-10,-9,-32,-7,-3
14:28:31:641615,-2,1,-14,-10,-9,-32,-7,-3
14:28:31:649127,-24,-1,4,3,-9,-14,-16,-8
14:28:31:656715,-3,-3,2,2,5,12,-27,2
14:28:31:664813,-3,-3,2,2,5,12,-27,2
14:28:31:665614,-47,-11,-22,-5,-13,-8,11,-22
14:28:31:679160,9,8,49,-3,-20,-15,24,2
14:28:31:687311,9,8,49,-3,-20,-15,24,2
14:28:31:688068,-6,-1,4,16,35,18,-26,-1
14:28:31:694168,-20,14,28,6,5,-5,8,-6
14:28:31:701610,-20,14,28,6,5,-5,8,-6
14:28:31:709117,27,1,3,-10,-19,-2,11,9
14:28:31:716557,15,9,-8,13,18,24,4,11
14:28:31:724832,15,9,-8,13,18,24,4,11
14:28:31:725589,11,-2,-33,6,-21,-4,-12,1
14:28:31:739220,-28,6,39,8,-5,-18,-8,-4
14:28:31:747313,-28,6,39,8,-5,-18,-8,-4
14:28:31:748115,-15,-7,-3,-2,14,2,-4,-1
14:28:31:754084,31,2,22,-2,0,-7,-8,1
14:28:31:761736,31,2,22,-2,0,-7,-8,1
14:28:31:769055,-7,-8,-34,-2,-14,16,13,6
14:28:31:776675,-2,-12,-3,-2,-4,13,14,0
14:28:31:784835,-2,-12,-3,-2,-4,13,14,0
14:28:31:785569,27,18,42,9,35,-3,28,-1
14:28:31:799074,-5,13,9,4,-9,-9,-7,-13
14:28:31:807384,-5,13,9,4,-9,-9,-7,-13
14:28:31:808133,-13,-7,-15,-14,20,14,-11,3
14:28:31:814087,6,1,9,-7,-1,-5,-25,1
14:28:31:821702,6,1,9,-7,-1,-5,-25,1
14:28:31:829116,-42,-9,-15,-4,-7,-21,-14,-10
14:28:31:836596,-21,-12,-34,-12,3,-2,-42,3
14:28:31:844939,-21,-12,-34,-12,3,-2,-42,3
14:28:31:845619,21,-4,34,-3,-6,-21,2,2
14:28:31:859194,-18,-15,-34,2,-3,-5,5,-5
14:28:31:867297,-18,-15,-34,2,-3,-5,5,-5
14:28:31:868102,-18,-13,-4,-2,-11,15,14,-3
14:28:31:874127,22,2,-8,-2,-4,13,11,4
14:28:31:881637,22,2,-8,-2,-4,13,11,4
14:28:31:889115,-16,0,-10,-4,-12,3,-4,-7
14:28:31:896583,-26,0,43,10,12,7,-3,-13
14:28:31:904874,-26,0,43,10,12,7,-3,-13
14:28:31:905602,8,-2,-10,-5,-10,2,3,5
14:28:31:919083,17,-1,38,-21,-17,-3,31,12
14:28:31:927377,17,-1,38,-21,-17,-3,31,12
14:28:31:928112,8,2,29,12,25,21,-6,-2
14:28:31:934067,51,12,-24,17,4,20,25,10
14:28:31:941671,51,12,-24,17,4,20,25,10
14:28:31:949089,44,-4,2,-2,1,-13,-6,3
14:28:31:956687,2,1,20,19,27,2,-9,-6
14:28:31:964825,2,1,20,19,27,2,-9,-6
14:28:31:965613,-7,-2,-12,-7,-15,3,-5,-4
14:28:31:979122,14,5,-52,-20,-15,-12,-8,0
14:28:31:987317,14,5,-52,-20,-15,-12,-8,0
14:28:31:988069,-29,-25,-63,-25,-3,-15,-5,-5
14:28:31:994238,-44,-11,43,11,-17,4,8,-5
14:28:32:1676,-44,-11,43,11,-17,4,8,-5
14:28:32:9190,9,11,13,4,12,2,-5,10
14:28:32:16583,-10,-13,-53,-13,-7,-19,-7,-6
14:28:32:24824,-10,-13,-53,-13,-7,-19,-7,-6
14:28:32:25601,15,-9,32,10,7,10,22,-3
14:28:32:39281,-6,-6,10,-15,-21,-20,-16,7
14:28:32:47293,-6,-6,10,-15,-21,-20,-16,7
14:28:32:48110,-60,-1,-27,3,16,-1,11,-3
14:28:32:54066,0,-1,13,14,11,14,11,-6
14:28:32:61705,0,-1,13,14,11,14,11,-6
14:28:32:69097,-1,2,35,3,-22,-16,-7,-5
14:28:32:76660,17,12,-19,1,6,-9,-12,-8
14:28:32:84548,17,12,-19,1,6,-9,-12,-8
14:28:32:91597,17,7,-27,11,8,3,-21,-11
14:28:32:99097,2,-9,26,-15,-16,3,21,3
14:28:32:107402,2,-9,26,-15,-16,3,21,3
14:28:32:108095,19,6,-9,-7,-17,-9,4,-6
14:28:32:114148,-75,-7,-10,6,7,10,14,-2
14:28:32:121626,-75,-7,-10,6,7,10,14,-2
14:28:32:129153,44,12,9,-4,23,17,17,-1
14:28:32:136640,29,8,-49,-8,1,-6,-32,-5
14:28:32:144865,29,8,-49,-8,1,-6,-32,-5
14:28:32:145605,13,4,-36,8,-5,-1,-27,-1
14:28:32:159226,12,1,-10,15,5,-15,7,3
14:28:32:167252,12,1,-10,15,5,-15,7,3
14:28:32:168090,1,6,73,3,0,-3,-10,5
14:28:32:174210,-48,-1,6,-4,-4,3,12,-5
14:28:32:181658,-48,-1,6,-4,-4,3,12,-5
14:28:32:189156,-21,-7,28,-2,-10,-1,8,-2
14:28:32:196577,21,8,51,13,23,15,5,4
14:28:32:204860,21,8,51,13,23,15,5,4
14:28:32:205603,11,-3,-2,-15,0,14,-16,-5
14:28:32:219088,13,-12,-31,-12,-22,-14,-2,5
14:28:32:227399,13,-12,-31,-12,-22,-14,-2,5
14:28:32:228060,11,17,-2,12,1,-5,-8,11
14:28:32:234024,-40,-5,-5,-7,-6,0,-9,0
14:28:32:241734,-40,-5,-5,-7,-6,0,-9,0
14:28:32:249108,-25,-5,-30,-13,5,6,-3,-8
14:28:32:256651,-14,-11,-16,-22,-44,-5,10,-4
14:28:32:264838,-14,-11,-16,-22,-44,-5,10,-4
14:28:32:265613,-6,6,-3,6,13,-8,13,-7
14:28:32:279079,14,3,-36,-10,4,1,-9,6
14:28:32:287381,14,3,-36,-10,4,1,-9,6
14:28:32:288113,2,-1,14,5,-7,-21,5,10
14:28:32:294215,29,-3,4,1,6,-16,-16,-7
14:28:32:301660,29,-3,4,1,6,-16,-16,-7
14:28:32:309169,-39,-6,3,10,-17,-1,-12,5
14:28:32:316581,-10,-6,-6,13,27,9,-6,-5
14:28:32:324833,-10,-6,-6,13,27,9,-6,-5
14:28:32:325604,34,-3,-15,-8,-23,-1,-5,3
14:28:32:347915,5,-9,-19,-6,-10,5,7,-5
14:28:32:348718,5,-9,-19,-6,-10,5,7,-5
14:28:32:349537,20,2,8,-7,1,-2,22,-4
14:28:32:354054,21,15,43,4,0,17,-8,1
14:28:32:361665,21,15,43,4,0,17,-8,1
14:28:32:377287,-23,-1,51,-16,-16,-7,5,15
14:28:32:378059,4,10,23,2,9,-12,-4,8
14:28:32:384776,4,10,23,2,9,-12,-4,8
14:28:32:385558,3,-7,-49,22,4,-22,-3,5
14:28:32:399831,30,6,25,-12,-3,11,-2,8
14:28:32:400589,30,6,25,-12,-3,11,-2,8
14:28:32:406565,12,1,0,-6,-2,7,4,-5
14:28:32:422303,22,4,-37,-7,-1,1,0,-2
14:28:32:423115,22,4,-37,-7,-1,1,0,-2
14:28:32:429068,-34,-18,-58,-13,0,-6,-29,-5
14:28:32:436572,-1,1,30,-4,-9,-16,-4,2
14:28:32:444295,-1,1,30,-4,-9,-16,-4,2
14:28:32:451576,-4,1,0,-7,12,3,0,-4
14:28:32:459970,-53,-15,-34,-3,0,0,-9,-12
14:28:32:460584,-53,-15,-34,-3,0,0,-9,-12
14:28:32:466580,-20,-2,-7,-7,-7,-5,0,-8
14:28:32:482363,-32,-8,10,12,4,11,30,-4
14:28:32:483128,-32,-8,10,12,4,11,30,-4
14:28:32:489132,11,2,37,6,-3,13,-1,-16
14:28:32:496557,17,-6,-31,4,-12,-10,-6,1
14:28:32:504133,17,-6,-31,4,-12,-10,-6,1
14:28:32:511648,6,13,21,-2,13,-2,-16,8
14:28:32:519849,-4,-5,43,-20,-29,-13,1,-6
14:28:32:520639,-4,-5,43,-20,-29,-13,1,-6
14:28:32:526681,19,3,-7,7,5,11,-10,3
14:28:32:542365,11,-5,-6,6,0,-2,8,11
14:28:32:543092,11,-5,-6,6,0,-2,8,11
14:28:32:549092,19,5,44,2,9,7,0,-3
14:28:32:556623,-3,10,-21,-2,10,6,-1,-5
14:28:32:564155,-3,10,-21,-2,10,6,-1,-5
14:28:32:571630,-54,-10,-10,9,-18,-13,-4,-6
14:28:32:579771,-10,3,58,16,18,3,-7,-1
14:28:32:580564,-10,3,58,16,18,3,-7,-1
14:28:32:594176,11,-14,-17,-6,0,-9,9,-1
14:28:32:602229,12,8,14,4,22,-9,-9,-3
14:28:32:603057,12,8,14,4,22,-9,-9,-3
14:28:32:609083,-33,-4,6,-6,-30,-11,19,3
14:28:32:624773,-36,-5,-13,8,4,16,6,-6
14:28:32:625578,-36,-5,-13,8,4,16,6,-6
14:28:32:631585,-59,-2,59,2,0,0,-6,-5
14:28:32:639806,40,6,-11,-2,-16,-17,-7,-2
14:28:32:640544,40,6,-11,-2,-16,-17,-7,-2
14:28:32:654127,20,-6,-3,24,23,10,-6,3
14:28:32:662398,6,-9,-3,-19,-10,-10,1,2
14:28:32:663110,6,-9,-3,-19,-10,-10,1,2
14:28:32:669091,18,11,-26,-27,9,18,11,5
14:28:32:676579,7,9,13,4,-4,2,-21,-4
14:28:32:684123,7,9,13,4,-4,2,-21,-4
14:28:32:691625,14,-4,-24,-5,5,0,7,4
14:28:32:699779,-53,-10,-56,-15,2,7,-3,-1
14:28:32:700534,-53,-10,-56,-15,2,7,-3,-1
14:28:32:706609,13,0,-31,0,-3,3,-9,3
14:28:32:722371,9,1,36,0,1,-4,-9,-1
14:28:32:723093,9,1,36,0,1,-4,-9,-1
14:28:32:729133,9,4,5,13,6,5,4,-13
14:28:32:736605,8,-1,-1,15,38,14,24,-7
14:28:32:744194,8,-1,-1,15,38,14,24,-7
14:28:32:751530,21,0,3,-6,-2,-6,-8,7
14:28:32:759905,3,4,5,-5,-14,-5,-3,0
14:28:32:760716,3,4,5,-5,-14,-5,-3,0
14:28:32:766587,21,4,28,-4,-16,-16,0,-5
14:28:32:782286,-22,4,-20,1,-15,-2,0,7
14:28:32:783085,-22,4,-20,1,-15,-2,0,7
14:28:32:789187,-39,9,31,3,6,12,1,-1
14:28:32:796634,8,2,19,8,-3,-3,7,-15
14:28:32:804122,8,2,19,8,-3,-3,7,-15
14:28:32:811611,3,0,-16,1,0,-2,11,1
14:28:32:819785,10,9,36,16,-11,-8,-4,13
14:28:32:820658,10,9,36,16,-11,-8,-4,13
14:28:32:826694,-6,-7,-26,9,14,-9,-5,-1
14:28:32:842298,-19,-7,-3,4,-5,0,-5,-2
14:28:32:843052,-19,-7,-3,4,-5,0,-5,-2
14:28:32:849021,-25,-3,-24,13,6,-2,-29,-16
14:28:32:856657,-8,7,-8,-11,16,7,-1,0
14:28:32:872374,-8,7,-8,-11,16,7,-1,0
14:28:32:873080,-2,-11,-12,-25,-15,6,-11,-1
14:28:32:879857,-10,-14,-8,-14,2,6,12,10
14:28:32:880643,-10,-14,-8,-14,2,6,12,10
14:28:32:886532,44,3,-40,1,-7,-21,-17,5
14:28:32:902740,-7,-2,-14,-8,-10,6,10,4
14:28:32:903537,-7,-2,-14,-8,-10,6,10,4
14:28:32:909103,1,8,20,-9,-5,16,2,0
14:28:32:916548,-5,-19,-10,9,-11,-8,8,-2
14:28:32:932269,-5,-19,-10,9,-11,-8,8,-2
14:28:32:933049,-7,-1,-11,-5,-15,-3,-2,8
14:28:32:939860,14,2,32,29,7,9,3,6
14:28:32:940538,14,2,32,29,7,9,3,6
14:28:32:946559,-28,-11,-11,-4,-5,1,16,4
14:28:32:962294,-9,0,-23,2,-1,-2,-45,0
14:28:32:963104,-9,0,-23,2,-1,-2,-45,0
14:28:32:969042,18,-1,10,-13,10,5,12,2
14:28:32:976592,8,5,-10,-10,-26,-16,15,-7
14:28:32:984149,8,5,-10,-10,-26,-16,15,-7
14:28:32:991585,1,-10,-45,-6,-8,5,-16,-11
14:28:32:999829,5,-5,-8,-11,26,-1,10,7
14:28:33:573,5,-5,-8,-11,26,-1,10,7
14:28:33:6595,15,8,4,16,8,-11,28,0
14:28:33:22425,15,1,-54,4,2,-6,15,-11
14:28:33:23086,15,1,-54,4,2,-6,15,-11
14:28:33:29156,-7,-8,3,-2,3,4,3,2
14:28:33:36574,3,2,63,-7,-6,9,10,0
14:28:33:44163,3,2,63,-7,-6,9,10,0
14:28:33:51622,17,12,26,6,-2,3,3,6
14:28:33:59823,13,4,-12,-11,-6,-3,-1,0
14:28:33:60652,13,4,-12,-11,-6,-3,-1,0
14:28:33:66596,-19,-10,-68,-17,1,3,10,3
14:28:33:82308,31,2,5,-8,-13,2,-13,2
14:28:33:83108,31,2,5,-8,-13,2,-13,2
14:28:33:89196,-7,4,-25,16,24,9,-32,-7
14:28:33:96583,-18,2,22,2,-14,-25,-21,-15
14:28:33:104162,-18,2,22,2,-14,-25,-21,-15
14:28:33:111683,-69,-3,32,1,22,13,7,-1
14:28:33:119719,-11,-5,-14,-11,2,-12,6,5
14:28:33:120536,-11,-5,-14,-11,2,-12,6,5
14:28:33:126650,18,-5,27,8,0,-17,-5,5
14:28:33:150453,-4,3,5,0,-1,11,2,-6
14:28:33:151267,-4,3,5,0,-1,11,2,-6
14:28:33:152037,15,-3,29,-5,-29,-1,6,-2
14:28:33:156592,3,1,25,-14,-8,22,19,0
14:28:33:164135,3,1,25,-14,-8,22,19,0
14:28:33:171691,-13,-5,-35,3,-2,-13,-5,-1
14:28:33:180262,0,7,-18,5,18,22,4,1
14:28:33:187337,0,7,-18,5,18,22,4,1
14:28:33:188085,19,5,23,-8,-27,-19,2,2
14:28:33:202342,-61,-4,7,11,0,-16,-21,-12
14:28:33:203084,-61,-4,7,11,0,-16,-21,-12
14:28:33:209097,-25,-15,-7,8,-1,-8,-9,-8
14:28:33:216623,-6,-3,-17,4,12,15,2,4
14:28:33:224218,-6,-3,-17,4,12,15,2,4
14:28:33:240473,-2,-14,-26,-32,-13,5,13,-2
14:28:33:241226,18,-19,-52,-7,6,-8,-10,6
14:28:33:242054,18,-19,-52,-7,6,-8,-10,6
14:28:33:246621,-1,5,26,-5,-18,8,8,-3
14:28:33:262305,-14,0,-9,-4,11,-10,-11,-3
14:28:33:263189,-14,0,-9,-4,11,-10,-11,-3
14:28:33:269147,17,5,-19,-4,2,-8,-15,-6
14:28:33:276594,8,-16,-64,-6,-26,-21,-26,-2
14:28:33:284147,8,-16,-64,-6,-26,-21,-26,-2
14:28:33:291604,8,17,0,22,27,2,-16,6
14:28:33:299781,-4,8,-1,-3,7,-2,11,4
14:28:33:300549,-4,8,-1,-3,7,-2,11,4
14:28:33:306689,-13,-2,25,4,-2,-2,10,5
14:28:33:322423,15,2,6,2,1,-1,2,6
14:28:33:323047,15,2,6,2,1,-1,2,6
14:28:33:329116,-70,-21,52,-7,-23,-23,-29,-15
14:28:33:336592,11,-15,-12,-6,2,2,-7,-6
14:28:33:344194,11,-15,-12,-6,2,2,-7,-6
14:28:33:351610,11,-3,-56,-6,10,9,6,-5
14:28:33:359838,8,2,-1,-11,-15,0,-18,-3
14:28:33:360598,8,2,-1,-11,-15,0,-18,-3
14:28:33:374195,-8,2,21,11,25,12,3,-8
14:28:33:382294,1,6,32,-1,-6,1,-13,-7
14:28:33:383115,1,6,32,-1,-6,1,-13,-7
14:28:33:389227,-21,8,-3,-5,-9,1,14,2
14:28:33:404779,-30,-9,-16,6,18,9,15,-10
14:28:33:405614,-30,-9,-16,6,18,9,15,-10
14:28:33:411701,-5,-13,-14,-6,10,5,-11,-17
14:28:33:419804,18,-3,6,-13,-38,-20,-3,-6
14:28:33:420610,18,-3,6,-13,-38,-20,-3,-6
14:28:33:434138,46,-2,27,7,-2,-3,15,10
14:28:33:442340,-9,6,-13,11,2,-5,4,22
14:28:33:443077,-9,6,-13,11,2,-5,4,22
14:28:33:449100,14,1,-15,-4,2,2,-5,4
14:28:33:464822,24,-14,-29,-3,3,0,0,7
14:28:33:465612,24,-14,-29,-3,3,0,0,7
14:28:33:471639,8,-4,-30,-5,-5,8,3,0
14:28:33:479767,-16,10,33,4,-3,6,2,-3
14:28:33:480563,-16,10,33,4,-3,6,2,-3
14:28:33:494203,16,9,19,-12,-14,-7,-2,-7
14:28:33:502318,-5,8,29,-5,3,-12,-8,3
14:28:33:503095,-5,8,29,-5,3,-12,-8,3
14:28:33:509148,-10,6,8,8,6,7,-6,2
14:28:33:524784,-11,-18,-15,-9,-21,-13,-6,-18
14:28:33:525656,-11,-18,-15,-9,-21,-13,-6,-18
14:28:33:531590,-35,5,18,-4,2,-15,1,-10
14:28:33:539872,-20,-1,-20,13,15,-5,7,-13
14:28:33:540537,-20,-1,-20,13,15,-5,7,-13
14:28:33:554073,31,-9,-35,-7,13,7,0,1
14:28:33:562327,1,8,19,6,5,17,20,9
14:28:33:563103,1,8,19,6,5,17,20,9
14:28:33:569084,-8,3,24,-2,-13,-8,6,10
14:28:33:584816,31,1,-38,4,-9,12,8,3
14:28:33:585589,31,1,-38,4,-9,12,8,3
14:28:33:591611,33,4,10,11,-4,4,3,-2
14:28:33:599802,22,15,19,0,11,-13,-21,2
14:28:33:600575,22,15,19,0,11,-13,-21,2
14:28:33:614091,36,2,-12,-5,6,-2,8,14
14:28:33:622475,6,8,29,-5,-7,-17,-4,11
14:28:33:623090,6,8,29,-5,-7,-17,-4,11
14:28:33:629126,-72,-20,-21,9,-16,1,-9,-14
14:28:33:644827,-19,-15,23,-14,-10,-2,-13,-2
14:28:33:645566,-19,-15,23,-14,-10,-2,-13,-2
14:28:33:651542,11,-3,-8,25,41,8,4,0
14:28:33:659879,-34,4,-20,14,11,-6,8,-4
14:28:33:660636,-34,4,-20,14,11,-6,8,-4
14:28:33:674136,-1,-7,-39,-21,-24,-22,-18,14
14:28:33:682310,-1,-7,-39,-21,-24,-22,-18,14
14:28:33:683081,8,4,2,6,5,6,-4,-2
14:28:33:689194,-1,10,28,-8,-16,-9,-5,-5
14:28:33:704803,-1,10,28,-8,-16,-9,-5,-5
14:28:33:705579,22,16,14,-9,3,11,31,4
14:28:33:711682,25,-1,-42,-3,-11,-23,3,-3
14:28:33:719138,25,-1,-42,-3,-11,-23,3,-3
14:28:33:726660,-14,4,39,1,1,2,6,-17
14:28:33:734032,14,6,51,9,1,-5,-8,-5
14:28:33:742431,14,6,51,9,1,-5,-8,-5
14:28:33:743162,3,-4,2,0,-2,0,-13,5
14:28:33:749109,8,-9,-82,-28,-28,-3,-16,-14
14:28:33:764854,8,-9,-82,-28,-28,-3,-16,-14
14:28:33:765627,4,-14,-14,-24,-4,2,-17,2
14:28:33:771576,1,21,77,17,12,-10,-1,3
14:28:33:779151,1,21,77,17,12,-10,-1,3
14:28:33:786584,0,1,30,4,-1,3,1,11
14:28:33:794176,-8,0,-11,-12,-15,16,19,-1
14:28:33:802302,-8,0,-11,-12,-15,16,19,-1
14:28:33:803082,30,4,36,12,2,-12,-8,-3
14:28:33:809109,19,7,50,20,19,18,-1,0
14:28:33:824872,19,7,50,20,19,18,-1,0
14:28:33:825588,13,-25,13,-13,-18,-4,-19,-8
14:28:33:831610,-8,2,-9,1,1,0,9,-3
14:28:33:839891,-8,2,-9,1,1,0,9,-3
14:28:33:840547,-58,-7,-24,7,10,-3,12,-1
14:28:33:854094,3,-3,-26,23,30,4,-2,2
14:28:33:862368,3,-3,-26,23,30,4,-2,2
14:28:33:863137,-41,-1,-18,-8,-4,-5,-18,-5
14:28:33:869059,0,-1,-7,16,8,9,-2,7
14:28:33:884869,0,-1,-7,16,8,9,-2,7
14:28:33:885595,3,17,-25,-5,2,-21,-16,-2
14:28:33:891573,-8,8,-8,-13,-15,-1,-44,4
14:28:33:899809,-8,8,-8,-13,-15,-1,-44,4
14:28:33:900596,4,-1,-28,-2,11,25,-6,-5
14:28:33:914101,-61,-13,28,-17,-14,10,31,-14
14:28:33:922470,-61,-13,28,-17,-14,10,31,-14
14:28:33:923112,5,-3,6,-12,-17,-1,6,-6
14:28:33:929086,-11,-18,-39,-11,11,-8,-12,-6
14:28:33:944891,-11,-18,-39,-11,11,-8,-12,-6
14:28:33:945589,0,0,6,6,-4,6,13,3
14:28:33:951540,-5,3,50,-19,-7,4,0,0
14:28:33:959878,-5,3,50,-19,-7,4,0,0
14:28:33:960596,23,0,-44,6,21,-2,-6,5
14:28:33:974155,1,-3,-15,-9,-25,-12,-17,-11
14:28:33:982309,1,-3,-15,-9,-25,-12,-17,-11
14:28:33:983056,32,1,7,-3,-10,10,8,-19
14:28:33:989222,34,10,31,19,-6,-1,14,3
14:28:34:4803,34,10,31,19,-6,-1,14,3
14:28:34:5585,-39,-2,4,17,3,-6,-7,-4
14:28:34:11631,1,-5,8,-7,5,-6,5,-5
14:28:34:19838,1,-5,8,-7,5,-6,5,-5
14:28:34:20655,-8,3,8,-10,-3,-7,2,-1
14:28:34:34118,4,2,-11,5,-13,-13,0,4
14:28:34:42303,4,2,-11,5,-13,-13,0,4
14:28:34:43063,42,-7,-19,18,10,6,6,2
14:28:34:49044,21,8,0,-9,0,0,14,3
14:28:34:64852,21,8,0,-9,0,0,14,3
14:28:34:65624,7,21,-27,-16,-3,3,11,-4
14:28:34:71628,-19,11,-7,7,17,5,8,2
14:28:34:79839,-19,11,-7,7,17,5,8,2
14:28:34:80620,-84,-7,60,-10,-9,-18,-5,-14
14:28:34:94132,-14,-6,-21,-5,12,-5,-10,-16
14:28:34:102318,-14,-6,-21,-5,12,-5,-10,-16
14:28:34:103064,-19,-11,-46,9,31,6,4,13
14:28:34:109149,26,-16,-68,-12,-8,-5,8,9
14:28:34:124816,26,-16,-68,-12,-8,-5,8,9
14:28:34:125618,-36,-7,15,-1,-20,4,-10,1
14:28:34:131535,-4,-10,17,3,-20,7,-7,6
14:28:34:139855,-4,-10,17,3,-20,7,-7,6
14:28:34:140603,21,7,3,-13,-16,-5,1,12
14:28:34:154118,1,1,-10,4,-12,2,-1,4
14:28:34:162388,1,1,-10,4,-12,2,-1,4
14:28:34:163091,22,7,38,13,22,5,18,0
14:28:34:169005,-5,-6,10,-3,3,-3,-6,-18
14:28:34:184792,-5,-6,10,-3,3,-3,-6,-18
14:28:34:185535,-61,-10,-20,6,-6,-6,-3,-13
14:28:34:191663,-17,-5,16,7,-5,1,0,9
14:28:34:199811,-17,-5,16,7,-5,1,0,9
14:28:34:200596,36,-7,7,2,-26,2,12,1
14:28:34:214158,-7,12,45,13,39,9,2,1
14:28:34:222327,-7,12,45,13,39,9,2,1
14:28:34:223084,26,-33,39,-24,-21,-12,-10,7
14:28:34:229115,11,2,-15,2,-4,-6,-19,3
14:28:34:244794,11,2,-15,2,-4,-6,-19,3
14:28:34:245623,8,-16,-53,-8,12,2,-8,-8
14:28:34:251595,17,-5,15,-11,-20,11,-6,-1
14:28:34:259869,17,-5,15,-11,-20,11,-6,-1
14:28:34:260615,-43,-3,-6,0,4,7,0,3
14:28:34:274123,-19,-17,-49,-18,9,-15,2,-3
14:28:34:282274,-19,-17,-49,-18,9,-15,2,-3
14:28:34:283076,11,9,-23,8,-9,-17,2,-4
14:28:34:296600,17,1,-8,-10,-12,-20,-3,-6
14:28:34:304856,17,1,-8,-10,-12,-20,-3,-6
14:28:34:305593,20,3,-24,-9,2,0,-21,-20
14:28:34:311721,10,4,29,3,-11,-9,6,3
14:28:34:319087,10,4,29,3,-11,-9,6,3
14:28:34:326604,-2,0,16,-3,12,7,13,0
14:28:34:334097,-22,-1,-8,0,10,7,8,-1
14:28:34:342354,-22,-1,-8,0,10,7,8,-1
14:28:34:343068,8,13,6,7,17,13,13,7
14:28:34:356686,-13,-19,7,11,14,2,1,1
14:28:34:364799,-13,-19,7,11,14,2,1,1
14:28:34:365565,-2,-12,-52,-24,-16,-4,1,4
14:28:34:371624,17,9,32,10,11,10,0,4
14:28:34:379154,17,9,32,10,11,10,0,4
14:28:34:386537,35,8,7,7,3,0,10,4
14:28:34:394138,1,-1,-14,-4,-1,-2,0,-8
14:28:34:402332,1,-1,-14,-4,-1,-2,0,-8
14:28:34:403058,-11,10,46,13,2,-11,0,6
14:28:34:416621,-30,2,23,-17,-6,16,9,-11
14:28:34:424811,-30,2,23,-17,-6,16,9,-11
14:28:34:425608,-2,2,20,8,-5,9,-10,-4
14:28:34:431530,-2,-4,0,5,19,5,-21,-6
14:28:34:439148,-2,-4,0,5,19,5,-21,-6
14:28:34:446566,22,-11,-48,-14,-5,5,-1,5
14:28:34:454164,-3,2,-47,-20,-17,1,-6,4
14:28:34:462402,-3,2,-47,-20,-17,1,-6,4
14:28:34:463095,-3,30,35,18,6,3,4,-2
14:28:34:476633,8,-6,-58,11,13,-9,6,-6
14:28:34:484784,8,-6,-58,11,13,-9,6,-6
14:28:34:485561,-24,-13,-80,-11,3,-7,-4,-10
14:28:34:491587,5,9,28,13,1,8,6,0
14:28:34:499164,5,9,28,13,1,8,6,0
14:28:34:506591,-1,3,5,-14,-12,-15,-18,-2
14:28:34:514087,12,7,-6,-11,13,-12,5,16
14:28:34:522437,12,7,-6,-11,13,-12,5,16
14:28:34:523103,-29,-17,-38,-17,-15,0,-8,-3
14:28:34:536616,12,-2,-19,-13,-37,-11,-3,4
14:28:34:544905,12,-2,-19,-13,-37,-11,-3,4
14:28:34:545635,11,-2,56,22,4,10,-18,10
14:28:34:551570,-26,4,5,7,-4,-9,-18,-36
14:28:34:559184,-26,4,5,7,-4,-9,-18,-36
14:28:34:566598,9,10,8,10,-9,-9,14,-12
14:28:34:574200,35,0,11,-8,-24,-1,-2,2
14:28:34:582327,35,0,11,-8,-24,-1,-2,2
14:28:34:583106,-8,-4,18,5,3,3,10,1
14:28:34:596598,7,-1,-7,11,17,-9,-1,10
14:28:34:604836,7,-1,-7,11,17,-9,-1,10
14:28:34:605663,22,9,12,7,0,-1,8,8
14:28:34:611712,-5,-6,11,-10,-17,-14,-11,1
14:28:34:619101,-5,-6,11,-10,-17,-14,-11,1
14:28:34:626683,-13,-2,6,5,6,2,-9,2
14:28:34:634073,-11,-20,-10,8,2,4,2,4
14:28:34:642390,-11,-20,-10,8,2,4,2,4
14:28:34:643109,18,-3,13,-13,3,-6,8,-7
14:28:34:656649,-14,4,47,-7,-2,7,-8,3
14:28:34:664794,-14,4,47,-7,-2,7,-8,3
14:28:34:665559,-28,-3,18,5,1,-2,5,-7
14:28:34:671645,-16,18,25,9,-2,6,8,-2
14:28:34:679192,-16,18,25,9,-2,6,8,-2
14:28:34:686546,13,1,-22,-10,-3,5,-16,-4
14:28:34:694113,21,8,-21,-2,2,4,15,21
14:28:34:702314,21,8,-21,-2,2,4,15,21
14:28:34:703607,-5,2,10,2,-7,3,-4,1
14:28:34:716652,-7,-1,34,-5,3,17,18,-2
14:28:34:724785,-7,-1,34,-5,3,17,18,-2
14:28:34:725637,17,4,42,-10,10,0,-1,-2
14:28:34:731604,13,8,-8,-2,-6,-9,-2,-6
14:28:34:739277,13,8,-8,-2,-6,-9,-2,-6
14:28:34:746637,-14,-16,-9,-11,9,-1,-12,-8
14:28:34:754114,-7,0,-68,-12,-9,-12,-3,-1
14:28:34:762335,-7,0,-68,-12,-9,-12,-3,-1
14:28:34:763120,3,-13,-42,-7,1,-2,19,17
14:28:34:776675,-8,-15,-28,-1,-1,-11,7,0
14:28:34:784776,-8,-15,-28,-1,-1,-11,7,0
14:28:34:785556,-54,-3,-21,-1,-9,1,-24,-8
14:28:34:791677,15,-26,12,-14,-24,-19,3,1
14:28:34:799204,15,-26,12,-14,-24,-19,3,1
14:28:34:806683,11,8,10,8,16,-5,8,-6
14:28:34:814132,21,14,-9,3,18,11,6,-11
14:28:34:822486,21,14,-9,3,18,11,6,-11
14:28:34:823195,6,-2,-31,-13,-29,-8,-9,4
14:28:34:836573,0,-4,0,2,9,18,-17,-18
14:28:34:844888,0,-4,0,2,9,18,-17,-18
14:28:34:845619,17,-3,0,-8,-3,2,-11,-5
14:28:34:851578,-10,-9,-37,5,14,-11,-16,28
14:28:34:859237,-10,-9,-37,5,14,-11,-16,28
14:28:34:866646,25,-18,44,13,-9,-4,20,4
14:28:34:874130,-31,9,32,-5,-14,-5,-6,-7
14:28:34:882325,-31,9,32,-5,-14,-5,-6,-7
14:28:34:883108,5,-2,-15,12,-11,-8,22,2
14:28:34:905591,-51,-14,20,1,-14,5,-19,-23
14:28:34:906303,-51,-14,20,1,-14,5,-19,-23
14:28:34:907066,5,5,-1,-8,-14,14,-8,-4
14:28:34:911667,16,6,25,3,-6,-18,5,12
14:28:34:919153,16,6,25,3,-6,-18,5,12
14:28:34:926663,5,-9,-50,-7,-9,-12,2,-21
14:28:34:943105,-5,5,7,2,15,-2,-5,-8
14:28:34:943746,-5,5,7,2,15,-2,-5,-8
14:28:34:944605,-9,4,26,9,-3,-9,-2,42
14:28:34:956653,-2,-1,14,2,-9,3,6,-2
14:28:34:964808,-2,-1,14,2,-9,3,6,-2
14:28:34:965609,32,20,39,3,25,20,-1,1
14:28:34:971591,31,-2,1,-6,1,17,37,7
14:28:34:979158,31,-2,1,-6,1,17,37,7
14:28:34:986560,-1,-9,-57,-4,6,-25,-17,-15
14:28:34:994148,18,2,-18,-3,-8,4,6,-12
14:28:35:2299,18,2,-18,-3,-8,4,6,-12
14:28:35:3102,-37,-4,3,3,3,-12,-1,-13
14:28:35:16595,2,-5,19,-7,-10,-13,-23,5
14:28:35:24858,2,-5,19,-7,-10,-13,-23,5
14:28:35:25641,0,14,20,0,5,5,-11,1
14:28:35:31611,7,1,-5,5,-16,-4,-9,0
14:28:35:39400,7,1,-5,5,-16,-4,-9,0
14:28:35:46613,11,7,15,15,27,3,8,-12
14:28:35:54112,10,9,0,16,12,12,4,6
14:28:35:62250,10,9,0,16,12,12,4,6
14:28:35:63040,3,-3,-28,-1,-19,-2,-5,25
14:28:35:76627,-16,11,48,-2,13,-5,-18,-8
14:28:35:84777,-16,11,48,-2,13,-5,-18,-8
14:28:35:85576,-19,-2,11,-1,12,6,-18,-1
14:28:35:91634,-15,-5,-35,-16,-20,-10,0,-15
14:28:35:99108,-15,-5,-35,-16,-20,-10,0,-15
14:28:35:106731,-2,8,31,8,0,-8,8,-1
14:28:35:114116,12,-8,-25,-24,-2,-5,-12,12
14:28:35:122440,12,-8,-25,-24,-2,-5,-12,12
14:28:35:123075,28,13,-5,-7,-11,-6,2,5
14:28:35:136610,-49,-2,14,3,3,6,3,0
14:28:35:144856,-49,-2,14,3,3,6,3,0
14:28:35:145591,-48,-1,-17,-3,0,2,0,0
14:28:35:151609,8,-5,-18,9,12,13,-2,1
14:28:35:159128,8,-5,-18,9,12,13,-2,1
14:28:35:166555,7,3,23,-23,-34,10,25,3
14:28:35:174102,25,13,47,25,23,0,18,7
14:28:35:182272,25,13,47,25,23,0,18,7
14:28:35:183060,18,-9,-2,-5,3,-14,2,4
14:28:35:196633,-26,-3,-13,18,-10,6,-16,-14
14:28:35:204792,-26,-3,-13,18,-10,6,-16,-14
14:28:35:205589,-43,-21,-45,-15,-25,-6,-15,-15
14:28:35:211629,17,6,-5,3,16,1,4,7
14:28:35:227313,17,6,-5,3,16,1,4,7
14:28:35:228101,-28,-12,13,-11,0,7,-7,-10
14:28:35:234094,9,1,-35,-12,0,-7,-27,10
14:28:35:242311,9,1,-35,-12,0,-7,-27,10
14:28:35:243076,-1,0,-26,-5,12,4,1,-7
14:28:35:256672,-32,-14,18,-2,15,-5,5,-6
14:28:35:264817,-32,-14,18,-2,15,-5,5,-6
14:28:35:265544,15,-5,-54,0,15,6,2,-11
14:28:35:279719,4,-6,-24,-17,-25,-1,6,-7
14:28:35:280532,4,-6,-24,-17,-25,-1,6,-7
14:28:35:286647,22,11,32,0,11,-3,5,10
14:28:35:294120,-5,0,19,10,14,-4,-9,-3
14:28:35:301593,-5,0,19,10,14,-4,-9,-3
14:28:35:309159,9,-2,46,4,0,-3,-4,-16
14:28:35:316643,28,2,-4,-7,-1,20,0,5
14:28:35:324790,28,2,-4,-7,-1,20,0,5
14:28:35:325560,-22,-17,-25,-1,-4,5,24,0
14:28:35:339864,11,-4,8,-9,-23,-17,-3,0
14:28:35:340574,11,-4,8,-9,-23,-17,-3,0
14:28:35:346580,-6,-9,-31,14,17,6,-3,-2
14:28:35:354114,-30,4,21,1,13,-24,0,0
14:28:35:361667,-30,4,21,1,13,-24,0,0
14:28:35:369032,-4,6,26,9,-2,-3,-7,1
14:28:35:376656,29,-3,-22,8,-4,-18,-18,-1
14:28:35:384800,29,-3,-22,8,-4,-18,-18,-1
14:28:35:385577,-12,4,3,-5,-13,2,2,0
14:28:35:400199,-11,-1,-6,2,-10,1,-41,10
14:28:35:407404,-11,-1,-6,2,-10,1,-41,10
14:28:35:408053,17,-15,-39,1,-7,-4,-13,1
14:28:35:414067,-29,-5,6,-14,-3,8,31,-7
14:28:35:421653,-29,-5,6,-14,-3,8,31,-7
14:28:35:429082,28,12,27,-8,-20,0,-2,3
14:28:35:436546,-17,1,10,-2,1,9,18,5
14:28:35:444955,-17,1,10,-2,1,9,18,5
14:28:35:445598,38,11,12,10,5,1,2,4
14:28:35:459827,8,-9,-35,-17,-9,-7,22,-25
14:28:35:460603,8,-9,-35,-17,-9,-7,22,-25
14:28:35:474722,-3,-5,-1,2,1,-10,-16,-3
14:28:35:475515,-7,-12,-46,3,2,-5,11,-11
14:28:35:481630,-7,-12,-46,3,2,-5,11,-11
14:28:35:489228,8,-8,-27,6,-1,-9,-3,1
14:28:35:496571,23,4,-6,-1,-1,-17,6,-1
14:28:35:504835,23,4,-6,-1,-1,-17,6,-1
14:28:35:505584,3,8,23,12,17,5,-4,19
14:28:35:519850,-33,-9,-21,9,20,23,-2,-13
14:28:35:520588,-33,-9,-21,9,20,23,-2,-13
14:28:35:526627,3,2,9,-6,-10,-17,-1,-6
14:28:35:534038,-33,2,22,-2,-25,12,4,6
14:28:35:541617,-33,2,22,-2,-25,12,4,6
14:28:35:549148,-4,-2,1,-3,19,26,16,-11
14:28:35:556647,17,3,9,0,8,-1,-2,7
14:28:35:564810,17,3,9,0,8,-1,-2,7
14:28:35:565615,-49,0,-18,-3,-7,-7,1,-10
14:28:35:579862,33,-6,1,0,-6,4,12,11
14:28:35:580589,33,-6,1,0,-6,4,12,11
14:28:35:586628,-18,-5,-18,-8,-13,-12,-10,4
14:28:35:594215,-11,0,-9,22,33,3,-17,-1
14:28:35:601654,-11,0,-9,22,33,3,-17,-1
14:28:35:609153,28,15,12,1,-16,0,-7,10
14:28:35:616626,0,-14,-43,-31,-32,-20,-11,-5
14:28:35:624845,0,-14,-43,-31,-32,-20,-11,-5
14:28:35:625561,-1,-13,8,-2,10,8,-1,-11
14:28:35:639890,13,9,7,5,-3,0,-14,-9
14:28:35:640545,13,9,7,5,-3,0,-14,-9
14:28:35:646626,23,4,-13,-10,12,10,3,-8
14:28:35:654101,-31,-2,49,1,4,8,-5,-11
14:28:35:661618,-31,-2,49,1,4,8,-5,-11
14:28:35:669136,16,11,15,6,7,4,3,1
14:28:35:676643,1,8,2,-4,-11,-5,1,-3
14:28:35:684756,1,8,2,-4,-11,-5,1,-3
14:28:35:685562,11,6,25,-2,-9,0,-15,-2
14:28:35:699781,5,9,69,16,-5,-12,-7,11
14:28:35:700553,5,9,69,16,-5,-12,-7,11
14:28:35:706661,-3,4,-15,8,-5,-5,10,-3
14:28:35:714139,32,-1,6,-6,-25,6,3,0
14:28:35:721639,32,-1,6,-6,-25,6,3,0
14:28:35:729111,-24,-20,-20,-5,-7,-8,-8,-4
14:28:35:736569,5,-1,-11,0,14,4,-11,-3
14:28:35:744846,5,-1,-11,0,14,4,-11,-3
14:28:35:745603,-14,-2,-5,-9,-14,4,3,12
14:28:35:759801,11,4,-30,-3,0,-8,-7,16
14:28:35:760569,11,4,-30,-3,0,-8,-7,16
14:28:35:766552,-17,-14,-17,-1,14,-4,-7,2
14:28:35:774172,-16,-21,-56,-23,-8,2,4,-10
14:28:35:781684,-16,-21,-56,-23,-8,2,4,-10
14:28:35:789207,6,4,44,11,-4,1,5,5
14:28:35:796596,-6,1,-26,9,9,8,0,1
14:28:35:804872,-6,1,-26,9,9,8,0,1
14:28:35:805649,-1,6,28,7,1,1,-2,-4
14:28:35:819779,11,-2,-7,1,1,-3,10,9
14:28:35:820610,11,-2,-7,1,1,-3,10,9
14:28:35:826678,2,-2,7,3,-3,5,17,3
14:28:35:834015,-12,6,5,-9,1,7,-6,-8
14:28:35:841660,-12,6,5,-9,1,7,-6,-8
14:28:35:849163,-12,2,-3,3,-4,-22,4,4
14:28:35:856715,6,-4,34,-15,-21,7,2,-2
14:28:35:864811,6,-4,34,-15,-21,7,2,-2
14:28:35:865646,-14,1,1,0,3,-2,0,-2
14:28:35:879851,-24,5,32,8,8,2,2,0
14:28:35:880640,-24,5,32,8,8,2,2,0
14:28:35:886577,18,2,20,-4,-4,-1,0,-5
14:28:35:894198,-5,8,-5,6,2,0,14,-6
14:28:35:901636,-5,8,-5,6,2,0,14,-6
14:28:35:909153,3,2,-2,-1,-2,0,-2,1
14:28:35:916586,2,-11,-19,-3,-13,-11,1,-5
14:28:35:924780,2,-11,-19,-3,-13,-11,1,-5
14:28:35:925584,-53,-20,-45,2,16,17,-2,-13
14:28:35:939875,-23,-3,-27,-5,3,-9,4,-2
14:28:35:940530,-23,-3,-27,-5,3,-9,4,-2
14:28:35:946596,42,2,-7,-29,-16,-17,-19,4
14:28:35:954088,8,2,34,21,51,-3,-14,-13
14:28:35:961705,8,2,34,21,51,-3,-14,-13
14:28:35:969098,17,-8,-22,-44,-24,-1,-4,-3
14:28:35:976699,15,9,19,-9,-10,-10,0,10
14:28:35:984821,15,9,19,-9,-10,-10,0,10
14:28:35:985565,-4,2,12,6,2,-5,1,6
14:28:35:999812,6,0,11,6,-9,1,6,5
14:28:36:616,6,0,11,6,-9,1,6,5
14:28:36:6684,1,4,-15,10,17,1,-13,-11
14:28:36:14057,-5,-2,4,3,0,-2,-8,-3
14:28:36:21625,-5,-2,4,3,0,-2,-8,-3
14:28:36:29117,7,-5,-47,8,1,-3,9,6
14:28:36:36589,10,2,-11,1,-1,-8,23,3
14:28:36:44858,10,2,-11,1,-1,-8,23,3
14:28:36:45636,-9,3,25,-2,12,-6,-6,-1
14:28:36:59797,3,6,34,15,4,0,-9,-17
14:28:36:60592,3,6,34,15,4,0,-9,-17
14:28:36:66610,-23,3,-6,15,-7,5,-4,-4
14:28:36:74115,-12,5,57,-6,-7,1,-14,10
14:28:36:81650,-12,5,57,-6,-7,1,-14,10
14:28:36:89256,-93,-15,-26,-4,6,-6,-1,-18
14:28:36:96621,31,3,8,-8,0,9,-12,3
14:28:36:104866,31,3,8,-8,0,9,-12,3
14:28:36:105626,20,-12,-15,-15,-39,-20,-20,-31
14:28:36:119857,27,-18,-109,-15,1,-5,1,38
14:28:36:120605,27,-18,-109,-15,1,-5,1,38
14:28:36:126600,2,-11,-58,-9,-7,10,-4,2
14:28:36:134015,20,7,1,3,0,-3,-2,-15
14:28:36:141647,20,7,1,3,0,-3,-2,-15
14:28:36:149119,43,7,48,13,29,14,11,19
14:28:36:156655,-42,-11,-44,-21,-20,-9,-4,-9
14:28:36:164863,-42,-11,-44,-21,-20,-9,-4,-9
14:28:36:165648,-22,7,27,4,2,-2,-4,8
14:28:36:179809,0,5,58,13,12,6,-13,-8
14:28:36:180609,0,5,58,13,12,6,-13,-8
14:28:36:186576,13,0,37,-7,-18,-11,28,-9
14:28:36:202317,-15,-4,-48,-3,-6,-4,-26,-8
14:28:36:203084,-15,-4,-48,-3,-6,-4,-26,-8
14:28:36:209140,6,3,-47,0,9,5,0,5
14:28:36:216558,1,5,-3,18,22,2,10,-11
14:28:36:224234,1,5,-3,18,22,2,10,-11
14:28:36:231643,12,3,49,14,14,10,-4,0
14:28:36:239871,9,3,25,-4,-17,-2,7,9
14:28:36:240584,9,3,25,-4,-17,-2,7,9
14:28:36:246604,1,6,24,12,4,-2,-1,6
14:28:36:262346,-15,-22,-3,-17,-12,-5,-6,-16
14:28:36:263151,-15,-22,-3,-17,-12,-5,-6,-16
14:28:36:269092,-1,-4,2,-2,0,0,-4,-3
14:28:36:276721,3,12,11,20,20,6,8,14
14:28:36:284090,3,12,11,20,20,6,8,14
14:28:36:291650,4,-4,14,-24,-21,-12,-10,16
14:28:36:299800,-8,-2,9,0,1,-2,4,-2
14:28:36:300576,-8,-2,9,0,1,-2,4,-2
14:28:36:306723,9,-10,25,12,-15,0,-8,-9
14:28:36:322418,-7,-7,-30,-14,-16,-1,1,1
14:28:36:323122,-7,-7,-30,-14,-16,-1,1,1
14:28:36:329158,3,5,-17,6,0,0,2,-5
14:28:36:336601,0,-4,10,-7,2,5,0,-9
14:28:36:344198,0,-4,10,-7,2,5,0,-9
14:28:36:351566,-2,6,3,-10,-4,3,6,-1
14:28:36:359865,-2,-5,-7,5,-3,6,11,16
14:28:36:360594,-2,-5,-7,5,-3,6,11,16
14:28:36:366547,-1,-13,4,16,18,23,0,-4
14:28:36:382308,-2,-1,-10,-6,-4,5,5,-2
14:28:36:383067,-2,-1,-10,-6,-4,5,5,-2
14:28:36:389220,-1,18,40,2,2,-12,-7,7
14:28:36:396571,-6,4,-3,-17,-15,-4,-7,-9
14:28:36:404136,-6,4,-3,-17,-15,-4,-7,-9
14:28:36:411676,-1,-2,-24,5,2,-1,3,0
14:28:36:419790,-3,-5,-56,-9,-13,-18,-8,-18
14:28:36:420607,-3,-5,-56,-9,-13,-18,-8,-18
14:28:36:426650,-2,0,-29,-13,16,15,8,9
14:28:36:442293,-2,-5,8,-7,-2,-12,-23,-1
14:28:36:443163,-2,-5,8,-7,-2,-12,-23,-1
14:28:36:449041,-2,-8,-33,-10,-27,-7,-1,-3
14:28:36:456610,-11,6,-2,0,2,3,11,7
14:28:36:464149,-11,6,-2,0,2,3,11,7
14:28:36:471598,10,15,-17,8,-27,-26,-9,-8
14:28:36:479803,-12,0,14,0,-6,-6,10,-4
14:28:36:480598,-12,0,14,0,-6,-6,10,-4
14:28:36:486583,-6,0,-22,5,14,-5,-1,0
14:28:36:502287,10,10,0,12,14,8,-3,5
14:28:36:503066,10,10,0,12,14,8,-3,5
14:28:36:509140,7,3,9,8,2,-4,-4,11
14:28:36:516544,-8,-1,32,-2,-2,7,-1,2
14:28:36:524177,-8,-1,32,-2,-2,7,-1,2
14:28:36:531599,-3,-3,29,-6,1,-10,0,-6
14:28:36:539862,-1,0,-30,-6,-1,5,7,-1
14:28:36:540517,-1,0,-30,-6,-1,5,7,-1
14:28:36:546645,-3,-6,3,-2,9,20,9,-7
14:28:36:562329,11,1,6,-5,-12,-7,-5,1
14:28:36:563074,11,1,6,-5,-12,-7,-5,1
