Time,EMG1,EMG2,EMG3,EMG4,EMG5,EMG6,EMG7,EMG8
18:27:43:878234,-3,-5,-7,-6,-11,4,-4,-2
18:27:43:885727,-2,-3,0,-2,-1,-3,0,-3
18:27:43:893921,-2,-3,0,-2,-1,-3,0,-3
18:27:43:894700,2,1,0,2,8,0,0,1
18:27:43:908219,-1,0,-4,-1,-4,3,0,0
18:27:43:916508,-1,0,-4,-1,-4,3,0,0
18:27:43:917173,1,-3,0,-2,-1,-4,-2,-3
18:27:43:923264,1,-1,-2,3,0,1,1,0
18:27:43:930755,1,-1,-2,3,0,1,1,0
18:27:43:938209,-1,0,0,-3,2,-3,-3,-2
18:27:43:945718,-2,0,-3,-2,-3,1,0,0
18:27:43:953924,-2,0,-3,-2,-3,1,0,0
18:27:43:954707,0,0,-1,-1,-3,-3,-2,0
18:27:43:968320,-2,-1,0,-1,-1,0,1,2
18:27:43:976408,-2,-1,0,-1,-1,0,1,2
18:27:43:977184,-4,-1,0,-3,-1,-5,-3,2
18:27:43:991374,2,1,1,-5,1,-3,1,1
18:27:43:992192,2,1,1,-5,1,-3,1,1
18:27:43:998337,-1,-3,0,-2,-1,-4,-2,-3
18:27:44:5753,-1,-1,1,2,0,1,1,0
18:27:44:21457,-1,-1,1,2,0,1,1,0
18:27:44:22193,2,0,-4,1,-1,2,0,-1
18:27:44:28298,-4,0,1,0,4,-1,-2,1
18:27:44:36442,-4,0,1,0,4,-1,-2,1
18:27:44:37146,-2,-1,-5,-2,3,-2,2,-2
18:27:44:43274,-3,-3,-5,-6,-1,0,-4,-2
18:27:44:50764,-3,-3,-5,-6,-1,0,-4,-2
18:27:44:58157,-3,0,0,-4,2,3,-1,-3
18:27:44:65727,0,0,0,-1,1,-4,1,-1
18:27:44:73907,0,0,0,-1,1,-4,1,-1
18:27:44:74678,0,-3,0,-1,-2,0,0,0
18:27:44:88300,-3,-2,-3,-1,-1,0,-4,-4
18:27:44:120934,-3,-2,-3,-1,-1,0,-4,-4
18:27:44:121747,-3,-3,-2,-2,0,-3,0,4
18:27:44:122564,1,-2,0,-1,0,2,-2,-4
18:27:44:123376,1,-2,0,-1,0,2,-2,-4
18:27:44:126419,-2,1,-1,0,-1,-2,-2,-3
18:27:44:127189,1,-5,-1,0,-2,0,-5,-3
18:27:44:133999,1,-5,-1,0,-2,0,-5,-3
18:27:44:134744,-1,-1,-1,-2,-2,1,0,1
18:27:44:148252,-3,1,-1,-1,-3,-3,1,0
18:27:44:156444,-3,1,-1,-1,-3,-3,1,0
18:27:44:157177,1,0,1,-2,-5,-2,0,0
18:27:44:163225,-4,-2,-3,-2,-4,-1,-3,-3
18:27:44:170758,-4,-2,-3,-2,-4,-1,-3,-3
18:27:44:178339,-2,-1,3,-1,0,-1,-3,-1
18:27:44:186369,0,0,-1,0,-3,-3,-3,-2
18:27:44:194137,0,0,-1,0,-3,-3,-3,-2
18:27:44:194748,1,-1,-2,0,3,-1,1,5
18:27:44:208188,1,0,-1,-2,-1,-5,0,-3
18:27:44:216408,1,0,-1,-2,-1,-5,0,-3
18:27:44:217222,-3,-4,-2,1,-2,-3,-2,-3
18:27:44:223172,-2,2,-2,0,-3,-3,0,0
18:27:44:230880,-2,2,-2,0,-3,-3,0,0
18:27:44:238180,1,2,-3,-2,1,1,-1,-2
18:27:44:245872,-2,-1,0,-1,-1,-1,0,4
18:27:44:253863,-2,-1,0,-1,-1,-1,0,4
18:27:44:254650,-1,-1,1,0,-3,-1,-1,-4
18:27:44:268273,-3,-3,-1,-3,2,0,-1,-2
18:27:44:276391,-3,-3,-1,-3,2,0,-1,-2
18:27:44:277153,-3,-1,-1,2,2,-1,0,-1
18:27:44:283277,1,-1,-1,-1,-1,-1,-2,2
18:27:44:298937,1,-1,-1,-1,-1,-1,-2,2
18:27:44:299728,3,1,-1,-2,-5,2,-2,4
18:27:44:305671,-1,-4,-3,0,-3,1,0,0
18:27:44:314028,-1,-4,-3,0,-3,1,0,0
18:27:44:314758,-3,0,-1,-4,-1,-1,-1,-1
18:27:44:328204,-1,1,2,-1,-2,1,-3,-2
18:27:44:336469,-1,1,2,-1,-2,1,-3,-2
18:27:44:337207,-2,-2,0,-1,-1,1,-2,-1
18:27:44:343297,-3,0,-2,-1,-2,-4,2,-3
18:27:44:350785,-3,0,-2,-1,-2,-4,2,-3
18:27:44:358191,1,2,-3,0,-2,-5,-1,-2
18:27:44:365780,1,-1,-2,-4,-1,5,1,-1
18:27:44:373895,1,-1,-2,-4,-1,5,1,-1
18:27:44:374644,0,-1,-2,-1,-1,-1,-2,-2
18:27:44:388219,-2,-2,0,-1,-1,0,-2,-2
18:27:44:396543,-2,-2,0,-1,-1,0,-2,-2
18:27:44:397257,-4,0,0,0,-1,3,2,-2
18:27:44:403220,0,1,0,-3,0,-2,0,-2
18:27:44:410812,0,1,0,-3,0,-2,0,-2
18:27:44:418224,3,0,0,-1,-1,-2,0,-1
18:27:44:425726,-1,-3,-2,-1,-3,-1,0,-1
18:27:44:433949,-1,-3,-2,-1,-3,-1,0,-1
18:27:44:434718,-2,-1,-2,-2,-2,-3,-1,0
18:27:44:448322,-1,1,1,1,3,-3,-3,0
18:27:44:456420,-1,1,1,1,3,-3,-3,0
18:27:44:457155,-1,-1,0,-1,0,2,-3,0
18:27:44:471353,0,-3,-2,-2,-3,0,2,0
18:27:44:472145,0,-3,-2,-2,-3,0,2,0
18:27:44:486381,-1,-2,-3,-1,-1,0,-1,-2
18:27:44:487103,-2,-1,0,-2,-2,-2,-4,0
18:27:44:494135,-2,-1,0,-2,-2,-2,-4,0
18:27:44:494687,-2,-3,-2,-1,-2,-3,-4,-3
18:27:44:517077,0,-1,-1,-1,-1,-2,-2,-3
18:27:44:517861,0,-1,-1,-1,-1,-2,-2,-3
18:27:44:518700,1,1,-1,-2,2,1,1,-2
18:27:44:523163,-1,1,-2,-2,2,-1,0,2
18:27:44:530891,-1,1,-2,-2,2,-1,0,2
18:27:44:538181,0,0,-3,1,2,2,-2,-1
18:27:44:554524,0,-2,-1,0,-1,3,-3,-1
18:27:44:555336,0,-2,-1,0,-1,3,-3,-1
18:27:44:556159,2,-2,1,-4,-5,-3,0,0
18:27:44:577586,-3,-1,-2,1,2,-2,-4,-3
18:27:44:578265,-3,-1,-2,1,2,-2,-4,-3
18:27:44:583847,0,-2,0,1,-3,-1,-1,-2
18:27:44:584636,0,-1,-1,0,-2,0,0,-1
18:27:44:590695,0,-1,-1,0,-2,0,0,-1
18:27:44:598262,-4,0,-2,-3,-1,-1,-2,-1
18:27:44:605687,0,-2,-2,0,1,-2,-1,-1
18:27:44:621403,0,-2,-2,0,1,-2,-1,-1
18:27:44:622196,-2,-1,-1,3,-2,-2,2,0
18:27:44:628304,0,0,0,0,-2,0,-2,-1
18:27:44:636423,0,0,0,0,-2,0,-2,-1
18:27:44:637200,-3,-2,0,-2,-3,-3,-1,0
18:27:44:643314,-1,-1,-2,-4,-5,0,-1,2
18:27:44:650761,-1,-1,-2,-4,-5,0,-1,2
18:27:44:658192,1,-1,0,-1,0,-1,-1,-1
18:27:44:665770,0,-1,1,-1,-1,-1,2,-1
18:27:44:673893,0,-1,1,-1,-1,-1,2,-1
18:27:44:674681,0,-1,-2,-4,0,-1,0,0
18:27:44:688704,0,-3,-2,-2,4,-4,-4,-3
18:27:44:696393,0,-3,-2,-2,4,-4,-4,-3
18:27:44:697219,0,1,-2,2,-1,0,-1,-2
18:27:44:703271,-1,1,-2,-2,-3,-2,-1,1
18:27:44:710757,-1,1,-2,-2,-3,-2,-1,1
18:27:44:726507,-2,0,-4,0,0,-1,0,-2
18:27:44:727147,-2,-2,-1,0,-5,-1,1,-1
18:27:44:733306,-2,-2,-1,0,-5,-1,1,-1
18:27:44:748929,-1,0,-1,-1,-3,1,-3,-2
18:27:44:749703,0,2,-2,0,1,-3,-2,-1
18:27:44:756433,0,2,-2,0,1,-3,-2,-1
18:27:44:757162,0,-2,-1,1,0,-2,-2,-1
18:27:44:771397,-2,-1,-1,-1,-1,1,-2,-3
18:27:44:772154,-2,-1,-1,-1,-1,1,-2,-3
18:27:44:778340,-3,-2,-1,-4,0,-1,0,3
18:27:44:794014,-2,0,0,-2,0,0,1,-1
18:27:44:794722,-2,0,0,-2,0,0,1,-1
18:27:44:800742,-1,1,0,-6,-1,-1,-1,-2
18:27:44:808200,-1,-1,-5,0,1,1,-1,-2
18:27:44:816423,-1,-1,-5,0,1,1,-1,-2
18:27:44:817216,0,-2,-2,-3,0,-1,-3,-3
18:27:44:831900,1,-3,3,0,-2,-3,-2,0
18:27:44:838829,1,-3,3,0,-2,-3,-2,0
18:27:44:839646,-3,-3,-1,2,-3,-1,-3,-2
18:27:44:846140,-1,-4,-2,-2,0,1,-2,-1
18:27:44:861518,-1,-4,-2,-2,0,1,-2,-1
18:27:44:862249,0,2,-1,1,-1,-5,2,-1
18:27:44:868220,-4,-1,0,0,0,-1,-1,-1
18:27:44:876593,-4,-1,0,0,0,-1,-1,-1
18:27:44:877236,-1,-4,-2,-1,-2,0,-2,-1
18:27:44:891431,0,1,-3,-2,-1,1,-1,-1
18:27:44:892257,0,1,-3,-2,-1,1,-1,-1
18:27:44:898293,-2,1,1,-2,-3,-2,0,-3
18:27:44:905700,1,1,0,-2,0,-3,-1,-2
18:27:44:913285,1,1,0,-2,0,-3,-1,-2
18:27:44:920682,-1,0,0,-1,-3,0,0,-1
18:27:44:928313,-1,-1,-1,-2,-3,0,-2,-2
18:27:44:936452,-1,-1,-1,-2,-3,0,-2,-2
18:27:44:937149,2,-2,1,0,1,-5,-2,-2
18:27:44:951909,1,0,0,-2,-2,-1,-1,1
18:27:44:967174,1,0,0,-2,-2,-1,-1,1
18:27:44:967885,0,-3,-2,1,-2,2,-2,-1
18:27:44:968744,0,-2,1,-1,-2,-2,1,0
18:27:44:973323,0,-2,1,-1,-2,-2,1,0
18:27:44:980935,0,-3,-1,-1,0,1,0,0
18:27:44:988236,-2,0,1,-3,2,-2,0,-2
18:27:44:996510,-2,0,1,-3,2,-2,0,-2
18:27:44:997174,0,-1,-2,-3,-2,-1,-2,-1
18:27:45:11340,-3,-1,-2,-2,-3,0,-1,-2
18:27:45:12160,-3,-1,-2,-2,-3,0,-1,-2
18:27:45:18420,0,0,0,-2,0,-1,-1,-2
18:27:45:33970,-2,-1,0,-2,-3,0,-1,-2
18:27:45:34740,-2,-1,0,-2,-3,0,-1,-2
18:27:45:48907,-1,-1,-2,0,1,1,2,1
18:27:45:49645,-1,0,-3,2,-2,-3,-1,-1
18:27:45:56396,-1,0,-3,2,-2,-3,-1,-1
18:27:45:57211,-1,-2,0,-3,-1,-5,0,-2
18:27:45:71353,0,-1,-1,0,-2,-1,1,0
18:27:45:72239,0,-1,-1,0,-2,-1,1,0
18:27:45:78269,1,-1,-3,-2,1,-1,-1,-1
18:27:45:85690,-1,0,0,-2,1,0,-1,1
18:27:45:101470,-1,0,0,-2,1,0,-1,1
18:27:45:102185,-4,0,-1,-2,1,-3,-4,-1
18:27:45:117070,5,-4,-1,0,-3,0,0,-2
18:27:45:117831,5,-4,-1,0,-3,0,0,-2
18:27:45:118625,-1,1,3,3,1,-1,1,-1
18:27:45:131470,-4,-1,-3,-3,1,-2,-3,0
18:27:45:132189,-4,-1,-3,-3,1,-2,-3,0
18:27:45:146439,0,-1,-2,-2,-2,0,-1,-2
18:27:45:147175,-1,-2,-1,-2,-2,-4,0,0
18:27:45:153279,-1,-2,-1,-2,-2,-4,0,0
18:27:45:160741,-2,-3,-2,-2,0,2,-1,-1
18:27:45:168219,0,0,-3,-1,1,-1,2,-4
18:27:45:192933,0,0,-3,-1,1,-1,2,-4
18:27:45:193539,1,-2,-1,1,-2,-1,-2,3
18:27:45:194354,2,0,-1,-1,-3,3,-3,-1
18:27:45:195178,2,0,-1,-1,-3,3,-3,-1
18:27:45:214616,0,-2,-1,-1,0,0,-1,0
18:27:45:215349,1,-2,-1,-1,1,-1,-1,0
18:27:45:216155,1,-2,-1,-1,1,-1,-1,0
18:27:45:220687,-4,-3,-3,-4,-3,-1,-5,1
18:27:45:228268,-1,1,0,0,2,-1,-1,0
18:27:45:236427,-1,1,0,0,2,-1,-1,0
18:27:45:237153,-1,0,1,-1,-3,-1,0,-4
18:27:45:251879,-3,0,-1,-1,0,-3,-2,0
18:27:45:252640,-3,0,-1,-1,0,-3,-2,0
18:27:45:258202,0,-1,0,-1,0,-2,-3,-2
18:27:45:273854,0,-1,1,-1,-4,-3,2,-2
18:27:45:274643,0,-1,1,-1,-4,-3,2,-2
18:27:45:289510,0,0,-2,1,0,0,2,-1
18:27:45:290278,-4,-1,-2,0,-1,0,0,-1
18:27:45:296464,-4,-1,-2,0,-1,0,0,-1
18:27:45:297168,-1,1,-2,-2,-2,-1,-1,1
18:27:45:319579,1,-3,0,-1,-5,-3,0,-4
18:27:45:320320,1,-3,0,-1,-5,-3,0,-4
18:27:45:321151,-2,0,-3,-1,-1,-2,0,-1
18:27:45:325724,-3,0,0,0,0,0,-3,-3
18:27:45:333285,-3,0,0,0,0,0,-3,-3
18:27:45:340668,-2,-1,-2,2,-2,1,1,-1
18:27:45:348296,1,-2,-2,-2,0,-2,1,2
18:27:45:363953,1,-2,-2,-2,0,-2,1,2
18:27:45:364750,-1,-2,2,0,-1,1,-3,0
18:27:45:387717,-3,-3,-2,-2,-3,-1,1,-1
18:27:45:388518,-3,-3,-2,-2,-3,-1,1,-1
18:27:45:389353,3,0,-3,-3,-1,1,1,0
18:27:45:390164,2,-2,-1,-2,-3,-2,-3,-2
18:27:45:393392,2,-2,-1,-2,-3,-2,-3,-2
18:27:45:408828,1,-1,0,-1,1,-2,-3,-4
18:27:45:409612,-1,-1,-1,0,1,-1,-3,0
18:27:45:423923,-1,-1,-1,0,1,-1,-3,0
18:27:45:424670,-2,-4,-1,-1,-2,0,-1,0
18:27:45:431529,0,-1,-3,1,0,-1,-4,1
18:27:45:432231,0,-1,-3,1,0,-1,-4,1
18:27:45:438168,-2,0,-2,-1,-2,-2,-1,-3
18:27:45:445716,-3,-1,-2,1,-1,-4,-1,1
18:27:45:453299,-3,-1,-2,1,-1,-4,-1,1
18:27:45:468903,-3,-3,-1,-3,-1,-3,-3,0
18:27:45:469676,0,1,0,-2,1,-1,-3,0
18:27:45:492768,0,1,0,-2,1,-1,-3,0
18:27:45:493503,-1,1,-2,-1,1,-2,1,-2
18:27:45:494348,-3,0,-4,-2,-4,1,-3,-2
18:27:45:495178,-3,0,-4,-2,-4,1,-3,-2
18:27:45:498263,-1,-3,2,-2,0,4,0,0
18:27:45:505693,-1,0,2,-3,1,0,2,0
18:27:45:513310,-1,0,2,-3,1,0,2,0
18:27:45:520748,-2,1,1,3,-1,-1,-1,-1
18:27:45:536996,0,0,3,0,0,0,0,-2
18:27:45:537888,0,0,3,0,0,0,0,-2
18:27:45:538660,1,-3,-4,-3,-3,0,-2,-1
18:27:45:552293,0,-1,-1,0,0,-2,2,-1
18:27:45:558931,0,-1,-1,0,0,-2,2,-1
18:27:45:559709,-2,-1,0,2,0,-2,-2,1
18:27:45:565785,-2,-1,-1,0,0,0,-1,-2
18:27:45:573229,-2,-1,-1,0,0,0,-1,-2
18:27:45:580807,-1,-2,-1,-3,-3,0,-4,-1
18:27:45:597147,-1,-1,1,-5,-1,-2,0,-1
18:27:45:597912,-1,-1,1,-5,-1,-2,0,-1
18:27:45:598706,-2,-2,4,3,2,1,0,-1
18:27:45:611906,1,0,-1,2,1,2,-4,0
18:27:45:619400,1,0,-1,2,1,2,-4,0
18:27:45:626365,-1,1,-3,0,-3,-2,1,-1
18:27:45:627293,0,-4,-3,2,2,-3,-2,-3
18:27:45:633386,0,-4,-3,2,2,-3,-2,-3
18:27:45:640707,0,-5,-10,-10,-3,-4,0,0
18:27:45:648311,1,0,3,-2,-2,1,0,-1
18:27:45:656212,1,0,3,-2,-2,1,0,-1
18:27:45:663384,-1,-4,3,-6,-2,-3,-1,-3
18:27:45:671395,-3,0,-2,-4,-1,-1,0,-3
18:27:45:672155,-3,0,-2,-4,-1,-1,0,-3
18:27:45:685756,-3,0,0,-9,-3,2,-1,0
18:27:45:693908,-2,1,0,3,-2,0,-3,-1
18:27:45:694721,-2,1,0,3,-2,0,-3,-1
18:27:45:708866,-2,2,0,5,1,-3,3,-1
18:27:45:709630,1,-1,-4,-5,-4,-3,-3,1
18:27:45:715817,1,-1,-4,-5,-4,-3,-3,1
18:27:45:723220,-1,0,-1,0,2,-2,-4,-2
18:27:45:731466,1,4,-2,1,1,1,2,0
18:27:45:732193,1,4,-2,1,1,1,2,0
18:27:45:738136,0,1,-1,-5,-2,-1,0,1
18:27:45:753884,-5,-2,-3,-15,-3,-2,-3,-1
18:27:45:754680,-5,-2,-3,-15,-3,-2,-3,-1
18:27:45:760855,0,-1,-3,-4,-1,-1,-5,-3
18:27:45:776344,0,-5,0,-1,0,0,2,2
18:27:45:777183,0,-5,0,-1,0,0,2,2
18:27:45:783245,-1,-2,4,4,-2,-2,-1,-2
18:27:45:791384,-3,-2,-1,5,-1,0,0,0
18:27:45:792168,-3,-2,-1,5,-1,0,0,0
18:27:45:798376,-3,1,-2,3,-1,-5,-1,0
18:27:45:813916,-4,-3,1,0,-1,-1,0,0
18:27:45:814679,-4,-3,1,0,-1,-1,0,0
18:27:45:820691,0,-2,-1,2,-1,-1,-3,-3
18:27:45:828313,0,1,0,5,-4,-2,-1,0
18:27:45:835785,0,1,0,5,-4,-2,-1,0
18:27:45:843170,1,-3,0,-1,1,2,2,-2
18:27:45:867089,-2,-1,1,-6,2,0,-3,-5
18:27:45:867888,-2,-1,1,-6,2,0,-3,-5
18:27:45:868726,-2,-5,-1,-1,-1,3,-1,1
18:27:45:874529,0,-1,0,-5,0,-3,0,-3
18:27:45:875283,0,-1,0,-5,0,-3,0,-3
18:27:45:880879,-2,1,-5,-5,-6,0,-1,3
18:27:45:888202,0,0,2,8,5,0,-1,0
18:27:45:895814,0,0,2,8,5,0,-1,0
18:27:45:903258,0,-2,-4,0,-6,-3,-2,-2
18:27:45:911467,-1,-2,-1,-9,-6,1,0,0
18:27:45:912154,-1,-2,-1,-9,-6,1,0,0
18:27:45:918200,0,-1,-2,-4,0,-2,2,1
18:27:45:933898,2,1,-2,-4,-3,1,-2,-3
18:27:45:934717,2,1,-2,-4,-3,1,-2,-3
18:27:45:940717,-1,1,3,-2,-2,-1,-4,-2
18:27:45:948330,2,2,0,0,0,-5,-1,-2
18:27:45:955731,2,2,0,0,0,-5,-1,-2
18:27:45:963193,1,-3,-1,-1,-4,-3,-2,-2
18:27:45:971359,-4,-1,1,3,-4,1,-3,3
18:27:45:972166,-4,-1,1,3,-4,1,-3,3
18:27:45:978225,0,2,1,3,3,-1,1,-3
18:27:45:993894,-2,-4,-7,-27,-8,-3,1,0
18:27:45:994722,-2,-4,-7,-27,-8,-3,1,0
18:27:46:784,-1,0,1,-4,0,1,-2,1
18:27:46:8192,-3,0,1,7,7,-2,2,0
18:27:46:15790,-3,0,1,7,7,-2,2,0
18:27:46:23187,-1,1,-3,-6,-2,0,-3,-2
18:27:46:31516,-3,-3,-4,0,-4,-3,-2,-3
18:27:46:32216,-3,-3,-4,0,-4,-3,-2,-3
18:27:46:38202,-3,0,0,6,1,0,-1,-2
18:27:46:53908,-1,-2,-1,3,-4,0,-2,-2
18:27:46:54712,-1,-2,-1,3,-4,0,-2,-2
18:27:46:60825,0,-2,0,0,-1,-2,2,0
18:27:46:68223,-7,0,-3,8,1,0,1,0
18:27:46:75734,-7,0,-3,8,1,0,1,0
18:27:46:83289,1,-2,-2,-11,-3,2,0,0
18:27:46:91444,3,-1,6,19,5,-2,1,0
18:27:46:92252,3,-1,6,19,5,-2,1,0
18:27:46:98269,-1,0,1,10,8,1,1,0
18:27:46:114032,-1,-2,-7,-25,-7,1,-4,-3
18:27:46:114740,-1,-2,-7,-25,-7,1,-4,-3
18:27:46:120677,-5,-3,-2,-1,-5,-2,1,-5
18:27:46:128349,0,0,1,0,4,0,-2,-6
18:27:46:135811,0,0,1,0,4,0,-2,-6
18:27:46:143340,-3,-2,-3,-12,-3,0,-3,-6
18:27:46:151382,1,-1,0,-10,-2,-1,-2,1
18:27:46:152217,1,-1,0,-10,-2,-1,-2,1
18:27:46:158221,3,0,1,0,6,2,1,2
18:27:46:173860,2,1,3,13,3,1,-4,0
18:27:46:174657,2,1,3,13,3,1,-4,0
18:27:46:180791,-3,-1,-4,7,7,-2,1,1
18:27:46:196529,-3,-1,-4,7,7,-2,1,1
18:27:46:197203,-4,-6,-9,6,-7,-5,-2,0
18:27:46:203213,1,2,8,11,7,1,-2,-1
18:27:46:211468,1,2,8,11,7,1,-2,-1
18:27:46:212205,1,-1,-2,7,-7,0,3,-2
18:27:46:218201,0,-2,-5,-7,-8,-2,-3,-1
18:27:46:242126,0,-2,-5,-7,-8,-2,-3,-1
18:27:46:242896,1,1,1,0,2,1,1,0
18:27:46:243697,0,2,2,-5,-8,-3,-5,-6
18:27:46:257479,0,2,2,-5,-8,-3,-5,-6
18:27:46:258346,-1,-6,-2,-4,-6,-3,-1,1
18:27:46:263279,-3,-5,-5,9,-3,0,0,0
18:27:46:271396,-3,-5,-5,9,-3,0,0,0
18:27:46:272219,0,0,1,9,2,-2,3,-3
18:27:46:278263,-5,-5,-3,-3,1,-5,-1,-1
18:27:46:293924,-5,-5,-3,-3,1,-5,-1,-1
18:27:46:294777,-3,0,5,-7,2,-2,0,-1
18:27:46:300846,-3,-1,-3,-4,-5,2,3,-1
18:27:46:316419,-3,-1,-3,-4,-5,2,3,-1
18:27:46:317197,0,-3,-9,-8,4,-2,-3,-2
18:27:46:332147,0,2,-2,-3,-10,-4,-3,-1
18:27:46:332848,0,2,-2,-3,-10,-4,-3,-1
18:27:46:333697,1,-3,-4,-3,-2,1,-2,2
18:27:46:338123,-2,-7,-1,7,-1,-4,-2,1
18:27:46:362230,-2,-7,-1,7,-1,-4,-2,1
18:27:46:362869,0,3,-1,-9,0,-2,-3,-2
18:27:46:363696,0,0,3,-2,-5,1,0,-1
18:27:46:376498,0,0,3,-2,-5,1,0,-1
18:27:46:377262,-1,-5,-3,-4,-2,-2,2,0
18:27:46:383310,2,1,-3,-6,-1,0,-3,-1
18:27:46:392098,2,1,-3,-6,-1,0,-3,-1
18:27:46:392820,-1,-2,-8,-8,-14,-2,-1,-2
18:27:46:398357,1,3,-1,-3,-1,-3,-2,0
18:27:46:414478,1,3,-1,-3,-1,-3,-2,0
18:27:46:415214,0,1,16,16,-7,1,1,1
18:27:46:420660,-3,-4,-3,1,3,-2,-1,-2
18:27:46:436468,-3,-4,-3,1,3,-2,-1,-2
18:27:46:437159,0,-3,-5,10,5,3,-1,0
18:27:46:443276,0,0,1,3,-15,-2,-1,1
18:27:46:451419,0,0,1,3,-15,-2,-1,1
18:27:46:452275,-3,-1,-6,-9,0,-2,-2,-1
18:27:46:458178,-4,-3,0,-5,3,-1,-2,-4
18:27:46:473910,-4,-3,0,-5,3,-1,-2,-4
18:27:46:474690,1,4,6,0,0,1,-3,1
18:27:46:480780,4,1,-5,5,1,1,0,1
18:27:46:504543,4,1,-5,5,1,1,0,1
18:27:46:505296,-3,1,-4,-8,1,-3,0,-2
18:27:46:506132,-4,-9,-7,-10,-1,0,-4,-3
18:27:46:511896,-4,-9,-7,-10,-1,0,-4,-3
18:27:46:518868,0,6,6,2,-1,-3,-3,-4
18:27:46:519643,1,0,1,1,4,1,4,2
18:27:46:533915,1,0,1,1,4,1,4,2
18:27:46:534716,-2,1,7,7,-4,-2,-1,-2
18:27:46:540706,-2,-6,-7,-14,0,-1,1,-2
18:27:46:556483,-2,-6,-7,-14,0,-1,1,-2
18:27:46:557198,-3,-7,-11,-10,-1,1,-1,1
18:27:46:572048,-4,3,-2,-2,-1,-2,-2,-3
18:27:46:572850,-4,3,-2,-2,-1,-2,-2,-3
18:27:46:573671,1,2,5,-5,-1,-1,0,-1
18:27:46:578222,3,1,-1,1,3,1,-3,3
18:27:46:593984,3,1,-1,1,3,1,-3,3
18:27:46:594694,-15,-3,-9,-19,-7,-3,-3,-5
18:27:46:600736,2,0,-3,0,-1,-5,-3,-1
18:27:46:616460,2,0,-3,0,-1,-5,-3,-1
18:27:46:617219,2,0,9,8,3,2,1,1
18:27:46:623184,-3,2,4,0,-1,1,2,-2
18:27:46:631493,-3,2,4,0,-1,1,2,-2
18:27:46:632182,0,0,0,2,0,-1,-1,1
18:27:46:645840,0,-1,-3,1,1,-5,-5,-4
18:27:46:653885,0,-1,-3,1,1,-5,-5,-4
18:27:46:654661,2,-4,2,3,4,1,-1,1
18:27:46:660759,-1,-1,8,8,0,0,-1,-2
18:27:46:676386,-1,-1,8,8,0,0,-1,-2
18:27:46:677199,1,1,-5,-8,1,0,-3,-1
18:27:46:692074,-5,-4,-5,-7,-4,-3,-1,-1
18:27:46:692821,-5,-4,-5,-7,-4,-3,-1,-1
18:27:46:693608,0,-2,-2,1,-1,-3,-1,0
18:27:46:705680,-1,0,-1,4,-4,-1,-2,0
18:27:46:714016,-1,0,-1,4,-4,-1,-2,0
18:27:46:714690,1,-4,-5,-8,0,-1,4,-1
18:27:46:720703,-1,-3,1,-1,-11,-10,-4,0
18:27:46:736498,-1,-3,1,-1,-11,-10,-4,0
18:27:46:737229,3,-3,-3,2,-4,0,-5,-5
18:27:46:743313,2,8,20,4,1,2,2,2
18:27:46:751471,2,8,20,4,1,2,2,2
18:27:46:752253,0,3,-8,-1,-3,-4,-3,-4
18:27:46:774581,-1,-7,-9,-15,-1,-2,1,1
18:27:46:775432,-1,-7,-9,-15,-1,-2,1,1
18:27:46:776173,-4,6,9,4,-1,4,-3,-8
18:27:46:780760,-1,-3,-7,-2,1,1,3,0
18:27:46:796468,-1,-3,-7,-2,1,1,3,0
18:27:46:797270,0,-2,-3,0,2,0,1,9
18:27:46:803178,-4,-3,3,-3,2,5,-1,-18
18:27:46:811474,-4,-3,3,-3,2,5,-1,-18
18:27:46:812237,-1,-4,-4,2,3,-5,3,3
18:27:46:825792,1,0,-12,-8,0,6,3,7
18:27:46:833955,1,0,-12,-8,0,6,3,7
18:27:46:834778,-2,-2,-1,-4,3,2,-4,-4
18:27:46:840697,3,0,1,4,2,-4,0,1
18:27:46:856426,3,0,1,4,2,-4,0,1
18:27:46:857202,-1,-3,-4,2,-1,-5,-4,0
18:27:46:863207,-4,-1,0,16,1,5,3,0
18:27:46:871414,-4,-1,0,16,1,5,3,0
18:27:46:872186,-4,-2,-4,-3,-2,-4,-1,1
18:27:46:885708,4,1,1,-6,0,-4,-4,1
18:27:46:894019,4,1,1,-6,0,-4,-4,1
18:27:46:894671,10,9,17,6,-6,2,-1,3
18:27:46:900736,-3,4,6,0,1,-6,-2,-4
18:27:46:908226,-3,4,6,0,1,-6,-2,-4
18:27:46:915843,1,3,4,-4,-2,-8,0,0
18:27:46:923186,3,5,-8,13,0,-2,4,6
18:27:46:931464,3,5,-8,13,0,-2,4,6
18:27:46:932160,-7,-6,15,2,-4,-6,-4,-15
18:27:46:946241,1,-3,-5,22,5,5,2,0
18:27:46:953869,1,-3,-5,22,5,5,2,0
18:27:46:954667,-7,-13,-34,0,-3,-2,-5,0
18:27:46:960761,3,9,16,1,-2,-10,-7,2
18:27:46:968248,3,9,16,1,-2,-10,-7,2
18:27:46:975687,-5,-8,3,7,0,-4,0,-5
18:27:46:983258,-5,-2,-25,-25,-2,-4,-5,3
18:27:46:991410,-5,-2,-25,-25,-2,-4,-5,3
18:27:46:992182,-8,6,11,-3,-2,-6,-2,3
18:27:47:5661,-11,-19,-17,-4,-4,3,-2,-1
18:27:47:13998,-11,-19,-17,-4,-4,3,-2,-1
18:27:47:14689,4,-2,5,-8,1,5,1,3
18:27:47:20670,-5,-2,23,-12,-6,-6,-15,-19
18:27:47:28289,-5,-2,23,-12,-6,-6,-15,-19
18:27:47:35737,0,3,3,1,-2,5,2,1
18:27:47:52108,2,-5,-12,-4,-4,2,3,0
18:27:47:52905,2,-5,-12,-4,-4,2,3,0
18:27:47:53640,0,2,-1,0,-4,-9,-3,0
18:27:47:65705,1,-2,2,-1,-3,4,-4,-8
18:27:47:73881,1,-2,2,-1,-3,4,-4,-8
18:27:47:74678,-1,-10,-24,-10,3,-6,-1,-5
18:27:47:80771,5,10,22,-7,6,1,7,11
18:27:47:88910,5,10,22,-7,6,1,7,11
18:27:47:95811,-7,-4,3,-5,0,-5,-16,-28
18:27:47:103214,0,0,4,7,2,3,0,1
18:27:47:111530,0,0,4,7,2,3,0,1
18:27:47:112225,-4,-4,1,12,1,9,8,10
18:27:47:125684,-2,-3,-8,6,-2,7,0,-2
18:27:47:133944,-2,-3,-8,6,-2,7,0,-2
18:27:47:134716,0,-9,0,17,-1,4,1,1
18:27:47:140707,3,7,-9,-7,-2,-7,5,5
18:27:47:148360,3,7,-9,-7,-2,-7,5,5
18:27:47:155702,-1,-6,-13,-8,0,7,0,1
18:27:47:163282,-6,-7,5,0,-5,-9,-2,-7
18:27:47:171374,-6,-7,5,0,-5,-9,-2,-7
18:27:47:172142,-2,1,-10,-18,-5,0,-6,-6
18:27:47:185800,-7,11,21,9,1,4,5,2
18:27:47:193963,-7,11,21,9,1,4,5,2
18:27:47:194754,0,-12,-18,-8,-1,0,2,-1
18:27:47:200733,-1,-16,-31,-18,-3,-12,-11,-2
18:27:47:208199,-1,-16,-31,-18,-3,-12,-11,-2
18:27:47:223893,4,33,18,-2,4,1,-2,1
18:27:47:224704,-7,-16,-38,-12,-3,-3,-8,-5
18:27:47:231548,-7,-16,-38,-12,-3,-3,-8,-5
18:27:47:232266,10,0,10,-6,-1,-3,1,6
18:27:47:254529,0,8,9,-1,0,4,3,5
18:27:47:255330,0,8,9,-1,0,4,3,5
18:27:47:256150,1,3,26,28,1,4,0,5
18:27:47:260722,0,-8,-14,3,0,5,2,-8
18:27:47:268272,0,-8,-14,3,0,5,2,-8
18:27:47:275679,-5,-1,-4,-37,-4,-8,-11,-26
18:27:47:283325,2,-13,2,9,1,3,1,-4
18:27:47:291427,2,-13,2,9,1,3,1,-4
18:27:47:292215,0,-9,-10,-10,-4,4,13,15
18:27:47:305673,-1,3,-8,-17,0,5,4,-2
18:27:47:313952,-1,3,-8,-17,0,5,4,-2
18:27:47:314703,5,11,0,-11,8,4,6,7
18:27:47:328973,3,5,20,18,3,1,3,9
18:27:47:330125,3,5,20,18,3,1,3,9
18:27:47:335708,-3,-2,2,15,0,-1,1,-4
18:27:47:343298,1,-4,4,1,0,-10,-4,0
18:27:47:358879,1,-4,4,1,0,-10,-4,0
18:27:47:359685,-1,-2,-4,-4,-4,1,4,1
18:27:47:365685,-4,1,-2,-4,3,6,0,-10
18:27:47:373908,-4,1,-2,-4,3,6,0,-10
18:27:47:374721,-8,-22,-28,8,-9,-4,-10,5
18:27:47:380720,-6,-29,-26,-13,-4,-2,-4,-9
18:27:47:396476,-6,-29,-26,-13,-4,-2,-4,-9
18:27:47:397216,0,4,-1,5,-1,3,7,6
18:27:47:403256,-1,6,-6,-9,-11,-1,2,3
18:27:47:411515,-1,6,-6,-9,-11,-1,2,3
18:27:47:412192,-3,5,-7,10,-5,-3,-4,-7
18:27:47:434600,2,11,7,-7,4,4,9,13
18:27:47:435384,2,11,7,-7,4,4,9,13
18:27:47:436185,0,-6,-17,-8,2,-4,-4,-5
18:27:47:440675,7,11,-13,-7,1,-8,-1,-2
18:27:47:456352,7,11,-13,-7,1,-8,-1,-2
18:27:47:457145,-7,-13,-19,-10,4,-1,-9,-20
18:27:47:463289,6,-1,-2,-14,-2,0,1,7
18:27:47:471376,6,-1,-2,-14,-2,0,1,7
18:27:47:472149,-1,2,3,-10,-2,-4,0,2
18:27:47:485715,-5,-3,1,12,-6,3,-4,2
18:27:47:502038,-5,-3,1,12,-6,3,-4,2
18:27:47:502872,-1,-20,-36,-14,-3,0,0,2
18:27:47:503641,8,27,46,-13,4,-4,-1,4
18:27:47:508274,8,27,46,-13,4,-4,-1,4
18:27:47:515820,-3,-3,-9,4,-2,-8,1,5
18:27:47:523166,-3,0,15,2,1,2,-2,2
18:27:47:531479,-3,0,15,2,1,2,-2,2
18:27:47:532267,-3,14,17,-13,-1,-6,-4,-7
18:27:47:554525,-2,3,-2,-4,-2,-2,-1,-3
18:27:47:555357,-2,3,-2,-4,-2,-2,-1,-3
18:27:47:556145,-6,-23,4,7,-5,1,0,6
18:27:47:568956,-3,12,-10,2,5,3,-4,-2
18:27:47:569739,-3,12,-10,2,5,3,-4,-2
18:27:47:575694,-9,-24,-16,8,-3,-15,-10,-17
18:27:47:583285,3,7,11,3,-7,3,7,10
18:27:47:590720,3,7,11,3,-7,3,7,10
18:27:47:606329,10,7,19,11,-9,1,5,13
18:27:47:607140,-1,-11,0,20,-4,-3,-9,-12
18:27:47:613959,-1,-11,0,20,-4,-3,-9,-12
18:27:47:614759,5,7,5,2,-4,5,-2,2
18:27:47:628974,-5,-5,-14,-4,-7,-8,-1,-3
18:27:47:629748,-5,-5,-14,-4,-7,-8,-1,-3
18:27:47:635731,-2,11,17,-6,7,3,6,0
18:27:47:643181,-1,13,37,31,2,-7,-3,1
18:27:47:650914,-1,13,37,31,2,-7,-3,1
18:27:47:658283,6,20,20,-6,4,2,2,11
18:27:47:665669,-1,9,-6,-10,3,-6,-11,-12
18:27:47:673905,-1,9,-6,-10,3,-6,-11,-12
18:27:47:674676,-3,4,15,4,-6,-2,-7,-2
18:27:47:688858,0,-11,-12,1,0,-2,-1,-8
18:27:47:689673,0,-11,-12,1,0,-2,-1,-8
18:27:47:695784,-8,-9,-12,-8,-2,1,1,-19
18:27:47:711485,-2,-8,-7,0,-13,-2,-5,-2
18:27:47:712203,-2,-8,-7,0,-13,-2,-5,-2
18:27:47:718223,-2,-3,-5,-1,-3,4,3,4
18:27:47:725654,1,-5,-9,-7,-1,2,2,3
18:27:47:733975,1,-5,-9,-7,-1,2,2,3
18:27:47:734680,-5,-9,-25,-2,-1,-5,-5,-1
18:27:47:748976,-1,9,22,-4,3,6,-3,8
18:27:47:749788,-1,9,22,-4,3,6,-3,8
18:27:47:755646,0,3,9,-13,6,-2,4,-8
18:27:47:763367,2,3,4,11,4,-3,2,0
18:27:47:770724,2,3,4,11,4,-3,2,0
18:27:47:778328,-1,-11,-7,20,-1,1,0,3
18:27:47:785797,-1,-9,-30,-18,-8,5,0,-6
18:27:47:793960,-1,-9,-30,-18,-8,5,0,-6
18:27:47:794758,2,6,10,5,3,-1,1,0
18:27:47:817087,0,-12,-7,-2,-1,-3,-1,-2
18:27:47:817905,0,-12,-7,-2,-1,-3,-1,-2
18:27:47:818732,5,13,3,-1,1,3,2,-1
18:27:47:823192,-4,-7,-7,5,3,2,5,-5
18:27:47:830871,-4,-7,-7,5,3,2,5,-5
18:27:47:838179,5,23,31,3,5,3,-1,6
18:27:47:854505,-12,-21,11,13,-3,2,-3,-8
18:27:47:855305,-12,-21,11,13,-3,2,-3,-8
18:27:47:856152,-2,-3,-15,3,-1,5,0,2
18:27:47:868863,-6,-13,-15,-12,-2,-1,-1,-5
18:27:47:869679,-6,-13,-15,-12,-2,-1,-1,-5
18:27:47:883913,0,9,21,19,0,-3,-5,-2
18:27:47:884659,-2,-6,-9,-5,-3,-7,-2,-1
18:27:47:890759,-2,-6,-9,-5,-3,-7,-2,-1
18:27:47:898347,4,-4,-11,-9,1,0,0,6
18:27:47:905681,2,7,0,6,2,-4,-6,-1
18:27:47:921413,2,7,0,6,2,-4,-6,-1
18:27:47:922172,-3,-6,0,0,-10,0,-1,-1
18:27:47:929033,1,-1,-2,-22,0,-3,0,2
18:27:47:929803,1,-1,-2,-22,0,-3,0,2
18:27:47:935779,-3,0,2,-16,-6,-4,-3,-1
18:27:47:943298,-1,-2,-6,-4,2,0,-2,-2
18:27:47:950848,-1,-2,-6,-4,2,0,-2,-2
18:27:47:958267,5,16,28,26,-1,-6,1,1
18:27:47:965895,0,6,0,3,-3,-6,-8,-1
18:27:47:973884,0,6,0,3,-3,-6,-8,-1
18:27:47:974676,-7,-15,-19,-5,0,0,-3,-3
18:27:47:988900,5,-7,-12,18,1,1,3,8
18:27:47:989663,5,-7,-12,18,1,1,3,8
18:27:47:995821,-5,-3,-10,-8,-1,-8,-1,-7
18:27:48:3245,-3,-4,-1,-6,-3,1,5,3
18:27:48:10861,-3,-4,-1,-6,-3,1,5,3
18:27:48:26452,3,4,7,-3,1,3,2,4
18:27:48:27246,-3,8,8,-2,1,-5,-4,-4
18:27:48:33948,-3,8,8,-2,1,-5,-4,-4
18:27:48:34702,-5,-4,22,18,1,-3,-5,-6
18:27:48:48942,2,13,16,-5,1,3,4,1
18:27:48:49728,2,13,16,-5,1,3,4,1
18:27:48:55684,-7,-16,-33,-21,-6,0,-4,-3
18:27:48:63278,1,9,-2,7,1,-1,-2,-5
18:27:48:78992,1,9,-2,7,1,-1,-2,-5
18:27:48:79707,1,-3,-11,-4,-4,-3,-1,2
18:27:48:85745,2,-8,-12,-4,1,4,1,2
18:27:48:101502,2,-8,-12,-4,1,4,1,2
18:27:48:102206,2,7,2,-2,-3,-2,-6,-1
18:27:48:108953,-3,-10,-7,-1,-1,0,-4,3
18:27:48:109758,-3,-10,-7,-1,-1,0,-4,3
18:27:48:115719,-5,-9,-9,-2,-8,-1,-2,-7
18:27:48:123191,1,10,-9,-20,0,2,1,4
18:27:48:130817,1,10,-9,-20,0,2,1,4
18:27:48:138233,1,4,-9,0,3,-2,0,-3
18:27:48:145720,3,1,10,-2,-5,1,1,1
18:27:48:153906,3,1,10,-2,-5,1,1,1
18:27:48:154677,1,16,15,18,2,3,1,3
18:27:48:168925,-6,-5,1,1,2,-4,-5,-1
18:27:48:169714,-6,-5,1,1,2,-4,-5,-1
18:27:48:175751,-1,-13,1,-10,-6,-8,5,8
18:27:48:183219,-1,17,18,10,1,-2,0,-2
18:27:48:190716,-1,17,18,10,1,-2,0,-2
18:27:48:198351,-2,-17,-13,-13,2,1,-2,2
18:27:48:205657,-2,-8,8,-2,-7,-9,-2,-8
18:27:48:214122,-2,-8,8,-2,-7,-9,-2,-8
18:27:48:214672,-4,-7,-17,-6,0,-2,-3,-16
18:27:48:228976,-2,5,13,6,-2,1,0,1
18:27:48:229690,-2,5,13,6,-2,1,0,1
18:27:48:235675,5,10,5,-7,0,-1,-2,1
18:27:48:243344,-1,-9,-11,-30,-3,0,6,-4
18:27:48:250777,-1,-9,-11,-30,-3,0,6,-4
18:27:48:258203,9,7,45,40,3,1,5,5
18:27:48:274552,-5,-8,-21,-2,3,1,-5,-13
18:27:48:275338,-5,-8,-21,-2,3,1,-5,-13
18:27:48:276159,-3,2,8,2,-5,6,0,0
18:27:48:288869,2,1,19,-13,-4,2,3,7
18:27:48:289653,2,1,19,-13,-4,2,3,7
18:27:48:295790,-5,-9,-19,-8,0,-5,-4,-11
18:27:48:303211,0,-8,1,3,-4,-2,-6,-1
18:27:48:310791,0,-8,1,3,-4,-2,-6,-1
18:27:48:318219,3,3,13,-4,-1,-4,-9,0
18:27:48:325667,4,9,-4,23,-2,-1,0,1
18:27:48:333913,4,9,-4,23,-2,-1,0,1
18:27:48:334722,0,6,-11,-20,10,4,10,3
18:27:48:357032,-3,-5,12,18,-2,5,-4,3
18:27:48:357826,-3,-5,12,18,-2,5,-4,3
18:27:48:358606,-3,0,-20,-23,0,1,-5,-4
18:27:48:363275,-4,-11,-5,-4,4,-2,4,2
18:27:48:378928,-4,-11,-5,-4,4,-2,4,2
18:27:48:379696,-1,0,5,1,-2,-2,0,2
18:27:48:385738,-2,-3,-9,-3,-7,-4,-3,-4
18:27:48:393919,-2,-3,-9,-3,-7,-4,-3,-4
18:27:48:394665,-2,14,-7,19,-3,4,-2,-5
18:27:48:408884,-1,6,-4,3,-1,-6,-5,-6
18:27:48:409698,-1,6,-4,3,-1,-6,-5,-6
18:27:48:415784,-6,-20,-3,0,-1,3,0,-4
18:27:48:423219,-1,2,-9,2,-4,1,3,1
18:27:48:430865,-1,2,-9,2,-4,1,3,1
18:27:48:438225,0,-8,-9,3,4,-1,0,10
18:27:48:445775,-5,-10,-1,-6,-1,0,-4,2
18:27:48:453884,-5,-10,-1,-6,-1,0,-4,2
18:27:48:454652,0,22,7,6,-8,-6,-4,1
18:27:48:468916,2,-7,-12,-8,2,1,6,-3
18:27:48:469670,2,-7,-12,-8,2,1,6,-3
18:27:48:475706,-13,-25,-11,-14,-3,6,5,-9
18:27:48:483320,4,18,14,-12,-3,1,0,-2
18:27:48:490756,4,18,14,-12,-3,1,0,-2
18:27:48:498313,1,-11,-14,-9,3,-5,1,14
18:27:48:505657,-2,4,-1,-1,1,1,-7,-9
18:27:48:513312,-2,4,-1,-1,1,1,-7,-9
18:27:48:520656,4,8,-7,1,-7,-2,-1,-2
18:27:48:528902,1,-11,-6,5,1,-6,-3,0
18:27:48:529765,1,-11,-6,5,1,-6,-3,0
18:27:48:535730,1,-3,0,-1,0,-11,-11,-8
18:27:48:551454,-8,-13,-11,1,-2,-1,-5,-10
18:27:48:552260,-8,-13,-11,1,-2,-1,-5,-10
18:27:48:566385,3,7,-12,-9,-2,1,5,-6
18:27:48:567170,1,3,10,6,2,0,0,2
18:27:48:573232,1,3,10,6,2,0,0,2
18:27:48:580819,4,7,-14,-18,-4,2,-5,-1
18:27:48:588880,7,14,-4,9,-3,2,3,9
18:27:48:589685,7,14,-4,9,-3,2,3,9
18:27:48:595760,-3,-12,22,15,-8,-10,-9,-6
18:27:48:611386,4,6,8,-2,0,4,2,3
18:27:48:612150,4,6,8,-2,0,4,2,3
18:27:48:618205,-4,-4,-3,-12,2,10,3,-6
18:27:48:625720,-6,-7,-6,-1,0,-1,0,7
18:27:48:633268,-6,-7,-6,-1,0,-1,0,7
18:27:48:640681,-10,-18,-23,-4,0,1,1,-4
18:27:48:657045,-4,-2,13,5,7,0,0,2
18:27:48:657864,-4,-2,13,5,7,0,0,2
18:27:48:658657,-2,-24,3,22,3,2,0,2
18:27:48:671370,2,-7,-21,-8,1,-5,2,0
18:27:48:672183,2,-7,-21,-8,1,-5,2,0
18:27:48:678322,2,12,14,12,9,1,0,-4
18:27:48:693983,-2,-13,5,-1,-4,-5,-7,0
18:27:48:694677,-2,-13,5,-1,-4,-5,-7,0
18:27:48:700750,12,42,29,-14,-5,2,7,2
18:27:48:708969,1,20,40,-5,-2,-7,-2,0
18:27:48:709753,1,20,40,-5,-2,-7,-2,0
18:27:48:715733,-1,-11,-17,-10,3,2,-6,-1
18:27:48:731245,-10,-9,-20,-5,-2,-12,-9,-10
18:27:48:738878,-10,-9,-20,-5,-2,-12,-9,-10
18:27:48:739664,2,5,7,7,-5,-5,2,8
18:27:48:762203,-7,-14,-15,1,4,-2,-10,-25
18:27:48:762838,-7,-14,-15,1,4,-2,-10,-25
18:27:48:763715,-1,1,18,9,0,2,-3,4
18:27:48:768905,2,11,9,-7,0,1,-1,10
18:27:48:769703,2,11,9,-7,0,1,-1,10
18:27:48:775792,-12,-24,-21,-5,-6,-5,-7,-5
18:27:48:791393,-1,8,-13,5,-5,2,0,-8
18:27:48:792173,-1,8,-13,5,-5,2,0,-8
18:27:48:798311,-1,3,6,-15,4,-7,0,-9
18:27:48:805692,-2,-10,-10,5,0,2,1,-1
18:27:48:813382,-2,-10,-10,5,0,2,1,-1
18:27:48:820659,-1,3,9,11,3,0,1,-2
18:27:48:828862,3,0,-10,-10,3,1,5,10
18:27:48:829709,3,0,-10,-10,3,1,5,10
18:27:48:835755,-2,3,1,-4,1,-5,-6,-6
18:27:48:851437,0,1,-4,2,-2,0,3,11
18:27:48:852254,0,1,-4,2,-2,0,3,11
18:27:48:866462,-2,-8,-12,-3,2,-5,0,6
18:27:48:867227,-1,-13,1,7,-2,-4,0,0
18:27:48:873256,-1,-13,1,7,-2,-4,0,0
18:27:48:880782,-1,-7,12,3,-2,-3,-3,-3
18:27:48:888856,1,-3,6,11,0,2,5,3
18:27:48:889655,1,-3,6,11,0,2,5,3
18:27:48:895714,1,-5,-5,7,-4,3,-2,-7
18:27:48:911534,-4,-7,-7,0,-5,-1,0,-5
18:27:48:912231,-4,-7,-7,0,-5,-1,0,-5
18:27:48:918203,1,9,-14,-3,-1,1,5,6
18:27:48:925760,10,28,25,-4,0,2,2,-2
18:27:48:933299,10,28,25,-4,0,2,2,-2
18:27:48:940711,-2,-6,-6,-6,-3,4,0,1
18:27:48:948903,3,4,-11,-8,1,-2,-2,-14
18:27:48:949711,3,4,-11,-8,1,-2,-2,-14
18:27:48:955693,5,1,-4,-1,-3,-7,-2,-6
18:27:48:971395,0,-5,-24,-9,-4,6,1,0
18:27:48:972202,0,-5,-24,-9,-4,6,1,0
18:27:48:978221,-2,3,-15,-10,-4,0,-1,-2
18:27:48:993939,-7,-11,-5,-7,-10,-5,-7,-4
18:27:48:994714,-7,-11,-5,-7,-10,-5,-7,-4
18:27:49:728,3,-4,-2,13,2,1,1,19
18:27:49:9316,-2,-4,17,1,6,-3,1,10
18:27:49:16540,-2,-4,17,1,6,-3,1,10
18:27:49:17225,-2,0,7,-2,1,0,4,1
18:27:49:39539,-7,-23,-5,4,-4,2,-7,-8
18:27:49:40348,-7,-23,-5,4,-4,2,-7,-8
18:27:49:41214,1,-2,1,-4,-1,1,-4,8
18:27:49:45749,-6,-2,-8,-6,-2,6,7,2
18:27:49:53269,-6,-2,-8,-6,-2,6,7,2
18:27:49:60704,-1,6,-2,-3,-5,-2,0,-3
18:27:49:68904,-2,-4,-4,-7,-2,2,4,9
18:27:49:69749,-2,-4,-4,-7,-2,2,4,9
18:27:49:75695,-2,10,3,2,-10,2,0,-2
18:27:49:91402,-4,-3,-7,-8,-5,-7,-3,-8
18:27:49:92202,-4,-3,-7,-8,-5,-7,-3,-8
18:27:49:98265,-1,-4,-3,-17,1,-2,-4,-4
18:27:49:105698,2,0,1,-2,-8,-6,-7,0
18:27:49:113369,2,0,1,-2,-8,-6,-7,0
18:27:49:120685,7,7,0,-7,-5,7,9,7
18:27:49:128923,-7,-17,-8,9,4,-5,-8,-7
18:27:49:129695,-7,-17,-8,9,4,-5,-8,-7
18:27:49:135734,0,-1,26,16,2,-6,-5,-9
18:27:49:151407,-3,-19,-2,-2,4,-3,-3,-4
18:27:49:152215,-3,-19,-2,-2,4,-3,-3,-4
18:27:49:158210,-3,6,43,18,5,-4,-2,2
18:27:49:165766,1,1,2,4,-1,-4,-4,-3
18:27:49:173220,1,1,2,4,-1,-4,-4,-3
18:27:49:180768,-7,-23,-11,11,-8,-3,-5,0
18:27:49:188854,-1,-3,7,10,3,3,1,-2
18:27:49:189683,-1,-3,7,10,3,3,1,-2
18:27:49:195754,4,3,-15,-5,2,-4,-4,0
18:27:49:211929,4,21,15,5,-7,-5,-6,-9
18:27:49:212626,4,21,15,5,-7,-5,-6,-9
18:27:49:218218,-3,-16,-14,0,-1,5,-3,-4
18:27:49:225677,6,12,10,-23,-1,2,1,2
18:27:49:233330,6,12,10,-23,-1,2,1,2
18:27:49:240636,-1,13,4,-11,2,-5,0,-4
18:27:49:248925,1,1,-10,6,-1,4,11,6
18:27:49:249678,1,1,-10,6,-1,4,11,6
18:27:49:255652,-1,10,14,3,7,4,7,-3
18:27:49:271407,6,12,-1,-2,-3,2,8,13
18:27:49:272196,6,12,-1,-2,-3,2,8,13
18:27:49:278291,-4,-16,-21,-3,-9,-6,-4,-3
18:27:49:285693,6,8,3,-19,1,-2,-9,-5
18:27:49:293389,6,8,3,-19,1,-2,-9,-5
18:27:49:300693,1,18,5,9,7,7,8,6
18:27:49:308898,-8,-15,-9,1,1,-2,-5,-3
18:27:49:309695,-8,-15,-9,1,1,-2,-5,-3
18:27:49:315708,-1,10,24,-7,-1,0,-1,1
18:27:49:331493,-5,-6,-3,10,-1,-1,-5,2
18:27:49:332234,-5,-6,-3,10,-1,-1,-5,2
18:27:49:338177,1,11,-2,8,-3,5,4,4
18:27:49:345746,-7,1,8,6,0,3,-4,-4
18:27:49:353271,-7,1,8,6,0,3,-4,-4
18:27:49:360680,-11,-30,-46,-11,-6,-9,-9,-8
18:27:49:368921,6,11,-3,-5,-5,0,1,6
18:27:49:369736,6,11,-3,-5,-5,0,1,6
18:27:49:383275,1,-1,-4,0,-3,-4,-2,-1
18:27:49:391433,-4,9,2,-1,-6,-9,-1,-13
18:27:49:392235,-4,9,2,-1,-6,-9,-1,-13
18:27:49:398264,0,-17,-11,-8,-2,0,-5,0
18:27:49:405676,1,1,-21,-3,3,3,6,0
18:27:49:413301,1,1,-21,-3,3,3,6,0
18:27:49:420782,1,27,68,28,1,-1,1,-6
18:27:49:428883,-2,-19,-5,2,-3,-1,-2,6
18:27:49:429698,-2,-19,-5,2,-3,-1,-2,6
18:27:49:435765,-1,-8,-19,-7,-2,2,-8,-1
18:27:49:451398,0,-1,5,12,-4,-3,0,-7
18:27:49:452200,0,-1,5,12,-4,-3,0,-7
18:27:49:458196,-2,8,-5,1,-2,-1,0,-2
18:27:49:473961,-2,8,-5,1,-2,-1,0,-2
18:27:49:474709,4,18,29,-1,1,2,6,9
18:27:49:489588,5,7,15,4,1,-7,-5,-10
18:27:49:490355,5,7,15,4,1,-7,-5,-10
18:27:49:491185,-4,-17,-10,-6,-5,1,0,-2
18:27:49:503211,-6,-1,-30,-21,0,5,-3,-5
18:27:49:511480,-6,-1,-30,-21,0,5,-3,-5
18:27:49:512211,1,17,-2,5,5,3,-5,-1
18:27:49:525775,2,-3,-12,-14,-12,3,5,-1
18:27:49:533921,2,-3,-12,-14,-12,3,5,-1
18:27:49:534705,-8,-13,-19,-11,-2,-5,-3,3
18:27:49:540662,-7,-12,9,5,-4,-5,-2,6
18:27:49:548940,-7,-12,9,5,-4,-5,-2,6
18:27:49:549732,-1,-6,5,1,0,-1,6,-8
18:27:49:563298,12,23,7,8,5,6,6,9
18:27:49:571393,12,23,7,8,5,6,6,9
18:27:49:572186,-1,0,-6,-6,6,3,-2,4
18:27:49:578312,-6,-19,7,12,-1,1,-4,-2
18:27:49:594463,-6,-19,7,12,-1,1,-4,-2
18:27:49:595206,0,-6,6,4,11,-1,-3,2
18:27:49:600738,0,-2,0,-6,1,-1,-2,6
18:27:49:608897,0,-2,0,-6,1,-1,-2,6
18:27:49:609698,-4,-6,5,0,-6,-5,-4,1
18:27:49:623211,-5,-10,-21,-9,10,3,1,2
18:27:49:631491,-5,-10,-21,-9,10,3,1,2
18:27:49:632208,0,-1,1,4,-10,3,4,4
18:27:49:638179,-5,-16,-15,-10,1,-8,-2,-11
18:27:49:662137,-5,-16,-15,-10,1,-8,-2,-11
18:27:49:662928,0,6,-6,2,-2,3,1,-9
18:27:49:663688,-4,-2,-15,-20,-5,4,5,-7
18:27:49:668888,-4,-2,-15,-20,-5,4,5,-7
18:27:49:669707,-4,18,-2,-6,10,-4,2,-5
18:27:49:683340,-7,-2,5,-1,-1,-5,1,-3
18:27:49:699616,-7,-2,5,-1,-1,-5,1,-3
18:27:49:700452,-1,-18,-3,1,-1,-1,-3,-7
18:27:49:701174,3,-4,-12,12,-7,-5,-1,8
18:27:49:714120,3,-4,-12,12,-7,-5,-1,8
18:27:49:714707,2,13,37,11,-3,-10,-9,2
18:27:49:720634,1,14,11,0,4,-3,-3,-1
18:27:49:728992,1,14,11,0,4,-3,-3,-1
18:27:49:729681,-6,-10,-15,-3,-10,2,3,2
18:27:49:743383,-1,4,3,-6,5,0,-4,-1
18:27:49:751427,-1,4,3,-6,5,0,-4,-1
18:27:49:752226,-7,-16,-17,-13,1,-10,-14,-14
18:27:49:765798,0,8,23,17,-14,2,1,-1
18:27:49:773923,0,8,23,17,-14,2,1,-1
18:27:49:774712,-2,-8,-9,2,-9,0,2,0
18:27:49:780805,2,4,2,-5,-8,-13,-7,-5
18:27:49:788902,2,4,2,-5,-8,-13,-7,-5
18:27:49:789669,-6,-7,-3,0,2,5,-2,-22
18:27:49:803262,2,-4,-5,-7,7,-1,0,-1
18:27:49:811424,2,-4,-5,-7,7,-1,0,-1
18:27:49:812172,8,12,-6,-13,-2,4,3,8
18:27:49:818267,-6,-16,-25,-17,3,-4,-2,-15
18:27:49:833891,-6,-16,-25,-17,3,-4,-2,-15
18:27:49:834687,7,6,-20,-5,0,1,3,11
18:27:49:840640,1,8,9,4,1,5,0,2
18:27:49:848927,1,8,9,4,1,5,0,2
18:27:49:849739,-5,-11,-5,7,3,-1,-2,-2
18:27:49:872046,-4,-6,-7,-3,0,5,2,3
18:27:49:872876,-4,-6,-7,-3,0,5,2,3
18:27:49:873685,-1,-8,-1,1,14,5,-1,-10
18:27:49:878244,-1,-10,-2,2,8,2,4,2
18:27:49:894047,-1,-10,-2,2,8,2,4,2
18:27:49:894684,-3,12,7,-12,0,-4,-10,-2
18:27:49:900686,-1,3,8,5,-10,2,1,-2
18:27:49:908960,-1,3,8,5,-10,2,1,-2
18:27:49:909778,0,-2,7,-2,-11,-9,0,-12
18:27:49:923247,-3,-9,-9,0,3,-2,-5,1
18:27:49:931501,-3,-9,-9,0,3,-2,-5,1
18:27:49:932241,4,15,16,-2,2,-3,-6,-5
18:27:49:938172,2,-20,-6,-7,-7,-5,-3,1
18:27:49:954362,2,-20,-6,-7,-7,-5,-3,1
18:27:49:955161,-1,19,9,-4,7,2,1,7
18:27:49:960725,-5,-6,-7,7,5,1,-5,-12
18:27:49:976509,-5,-6,-7,7,5,1,-5,-12
18:27:49:977187,-4,-15,-1,6,-11,1,2,3
18:27:49:983225,1,2,-13,-11,-4,-1,3,4
18:27:49:991397,1,2,-13,-11,-4,-1,3,4
18:27:49:992152,-6,-5,-7,10,8,0,6,-1
18:27:49:998317,-3,-11,-13,2,-11,5,-5,-14
18:27:50:13999,-3,-11,-13,2,-11,5,-5,-14
18:27:50:14695,-1,-12,-5,-4,-7,-10,-3,7
18:27:50:20612,-6,11,14,4,7,-2,-11,-27
18:27:50:28982,-6,11,14,4,7,-2,-11,-27
18:27:50:29679,2,3,13,11,-6,-3,-5,-5
18:27:50:52519,-5,-11,-5,-12,0,-1,3,9
18:27:50:53322,-5,-11,-5,-12,0,-1,3,9
18:27:50:54075,3,10,10,2,-7,-2,1,7
18:27:50:58209,-7,-13,-19,-13,4,-4,-3,0
18:27:50:73912,-7,-13,-19,-13,4,-4,-3,0
18:27:50:74705,4,8,3,-9,6,5,5,7
18:27:50:80794,3,5,7,-1,-16,-3,2,20
18:27:50:88868,3,5,7,-1,-16,-3,2,20
18:27:50:89646,3,16,3,-1,1,-3,-6,-14
18:27:50:103264,2,5,32,16,-5,1,2,11
18:27:50:111861,2,5,32,16,-5,1,2,11
18:27:50:118891,-9,-12,-18,-12,-7,1,-4,5
18:27:50:119691,3,14,5,-6,-14,-5,6,4
18:27:50:133908,3,14,5,-6,-14,-5,6,4
18:27:50:134690,-11,-24,-23,-17,-10,-9,-8,-18
18:27:50:149637,3,16,31,18,3,2,-1,-3
18:27:50:150368,3,16,31,18,3,2,-1,-3
18:27:50:151181,1,1,-3,6,20,3,5,-1
18:27:50:163237,1,-2,-10,-4,2,-2,-1,4
18:27:50:171396,1,-2,-10,-4,2,-2,-1,4
18:27:50:172175,2,-2,3,10,13,4,4,8
18:27:50:178306,2,7,-1,0,13,0,-3,-4
18:27:50:194043,2,7,-1,0,13,0,-3,-4
18:27:50:194659,7,15,5,-2,-4,0,4,12
18:27:50:200733,2,7,16,-7,-15,-2,-1,-2
18:27:50:208886,2,7,16,-7,-15,-2,-1,-2
18:27:50:209738,-3,-13,-9,0,-13,1,-5,-18
18:27:50:223639,0,14,-13,2,7,-11,-8,-3
18:27:50:231493,0,14,-13,2,7,-11,-8,-3
18:27:50:232300,0,-7,3,-3,2,3,0,11
18:27:50:238156,-12,-17,-16,-8,5,4,-4,-12
18:27:50:253880,-12,-17,-16,-8,5,4,-4,-12
18:27:50:254668,2,24,3,0,-16,-6,-1,-1
18:27:50:260748,-6,-22,-7,0,12,3,-1,-2
18:27:50:268954,-6,-22,-7,0,12,3,-1,-2
18:27:50:269725,-4,-10,17,7,-5,-4,-3,0
18:27:50:283281,9,14,-6,-7,-9,2,1,5
18:27:50:291431,9,14,-6,-7,-9,2,1,5
18:27:50:292165,4,-2,-5,6,4,2,3,1
18:27:50:298289,0,-16,8,5,24,6,1,2
18:27:50:314184,0,-16,8,5,24,6,1,2
18:27:50:314826,1,4,-2,-4,-5,-3,0,3
18:27:50:329693,5,8,-4,-7,-12,-8,-5,4
18:27:50:330442,5,8,-4,-7,-12,-8,-5,4
18:27:50:331286,-2,-9,-6,-6,-20,-8,-5,-2
18:27:50:343319,0,9,36,14,-7,0,1,-2
18:27:50:351475,0,9,36,14,-7,0,1,-2
18:27:50:352203,-7,-10,-13,-18,6,-3,2,0
18:27:50:358207,-3,4,-6,2,8,-6,-1,1
18:27:50:373901,-3,4,-6,2,8,-6,-1,1
18:27:50:374691,-1,-17,-14,-19,7,-2,0,-1
18:27:50:380768,-5,-13,-15,-8,-1,-9,-2,-4
18:27:50:396568,-5,-13,-15,-8,-1,-9,-2,-4
18:27:50:397280,-4,5,-3,-1,20,9,1,8
18:27:50:403249,-1,-11,-5,-1,-4,-1,-3,0
18:27:50:411525,-1,-11,-5,-1,-4,-1,-3,0
18:27:50:412266,4,2,-2,5,-1,-4,-2,-3
18:27:50:425667,-2,13,3,-4,-9,2,-1,-7
18:27:50:433941,-2,13,3,-4,-9,2,-1,-7
18:27:50:434738,-5,-14,-1,7,2,-3,0,4
18:27:50:440679,-3,-6,-14,-5,-7,2,5,-1
18:27:50:448407,-3,-6,-14,-5,-7,2,5,-1
18:27:50:455685,-5,-3,0,-1,-2,5,0,-5
18:27:50:463352,-2,-15,-1,10,5,-1,1,-5
18:27:50:471400,-2,-15,-1,10,5,-1,1,-5
18:27:50:472206,-7,-5,9,4,7,7,-5,-13
18:27:50:485752,-2,-11,-23,-7,-8,1,0,10
18:27:50:493780,-2,-11,-23,-7,-8,1,0,10
18:27:50:501378,5,26,12,2,-4,0,0,6
18:27:50:502209,-4,-7,-8,0,-26,-1,-5,-11
18:27:50:508264,-4,-7,-8,0,-26,-1,-5,-11
18:27:50:515766,3,-10,1,-3,-4,-5,-6,0
18:27:50:523195,4,5,-9,-8,-12,5,10,9
18:27:50:531433,4,5,-9,-8,-12,5,10,9
18:27:50:532187,-4,2,14,15,-8,-7,-2,-12
18:27:50:545757,-1,-10,-14,-10,0,1,-6,-7
18:27:50:553896,-1,-10,-14,-10,0,1,-6,-7
18:27:50:554711,-1,-3,-12,1,-3,0,0,5
18:27:50:560746,-7,2,-11,4,17,1,0,-13
18:27:50:568278,-7,2,-11,4,17,1,0,-13
18:27:50:575703,-1,-4,-5,0,4,5,2,2
18:27:50:583270,0,9,25,8,0,-5,-4,-2
18:27:50:591421,0,9,25,8,0,-5,-4,-2
18:27:50:592232,3,2,-5,-2,-5,-3,-1,-4
18:27:50:605703,0,2,8,2,-4,-2,-3,5
18:27:50:613908,0,2,8,2,-4,-2,-3,5
18:27:50:614712,-5,-19,-3,3,-5,-2,0,2
18:27:50:620719,8,12,10,10,5,-8,-2,7
18:27:50:628294,8,12,10,10,5,-8,-2,7
18:27:50:635710,1,12,5,-11,3,0,-1,-5
18:27:50:643368,0,-14,-18,-2,5,1,-2,-3
18:27:50:651438,0,-14,-18,-2,5,1,-2,-3
18:27:50:652226,4,10,17,5,-1,2,8,7
18:27:50:665847,-4,-7,-22,-7,23,6,2,8
18:27:50:673899,-4,-7,-22,-7,23,6,2,8
18:27:50:674673,0,-4,10,9,9,1,-4,8
18:27:50:680807,0,-3,-9,-16,15,-1,-7,-7
18:27:50:688231,0,-3,-9,-16,15,-1,-7,-7
18:27:50:695753,-4,4,-1,4,0,-7,-3,-8
18:27:50:703308,-1,5,12,16,2,-3,0,-2
18:27:50:711496,-1,5,12,16,2,-3,0,-2
18:27:50:712232,-8,-19,-18,-1,6,-6,-11,-9
18:27:50:725779,1,21,21,-7,8,3,6,-1
18:27:50:733945,1,21,21,-7,8,3,6,-1
18:27:50:734721,1,0,-11,-10,-12,-8,0,0
18:27:50:740657,-5,-14,6,2,-13,-3,-6,-11
18:27:50:748325,-5,-14,6,2,-13,-3,-6,-11
18:27:50:755681,2,7,-10,-17,-6,6,4,3
18:27:50:763334,-6,-11,-41,-8,11,1,-1,-8
18:27:50:771415,-6,-11,-41,-8,11,1,-1,-8
18:27:50:772217,0,-1,-7,-2,3,2,0,-1
18:27:50:785790,-2,-4,8,-4,-8,-1,6,4
18:27:50:794033,-2,-4,8,-4,-8,-1,6,4
18:27:50:794673,4,2,-5,11,3,0,1,15
18:27:50:800683,0,-1,-7,-3,-7,6,-4,7
18:27:50:808262,0,-1,-7,-3,-7,6,-4,7
18:27:50:815728,-2,-3,32,0,-22,-13,-2,1
18:27:50:823247,-2,2,8,-4,-1,2,3,4
18:27:50:831421,-2,2,8,-4,-1,2,3,4
18:27:50:832251,-1,-10,-18,-3,14,-7,-5,6
18:27:50:845738,-2,1,-3,-1,-4,-2,-1,3
18:27:50:853864,-2,1,-3,-1,-4,-2,-1,3
18:27:50:854634,-5,-9,2,-4,11,3,-2,-9
18:27:50:860827,-1,-7,17,-1,-22,-7,-2,-4
18:27:50:868252,-1,-7,17,-1,-22,-7,-2,-4
18:27:50:875797,0,5,-1,-9,-8,-1,-1,-4
18:27:50:883275,-1,6,-3,2,-3,3,4,4
18:27:50:891387,-1,6,-3,2,-3,3,4,4
18:27:50:892185,-3,-2,-3,-10,-1,-1,-5,-13
18:27:50:905700,6,0,-6,-10,-16,-10,-8,-1
18:27:50:914033,6,0,-6,-10,-16,-10,-8,-1
18:27:50:914707,-5,-3,-11,-6,-28,-1,-4,-9
18:27:50:920704,-6,-6,6,7,-2,-6,-5,-7
18:27:50:928253,-6,-6,6,7,-2,-6,-5,-7
18:27:50:935711,2,4,-9,-2,8,9,5,2
18:27:50:943309,-4,-5,9,1,23,2,-8,-4
18:27:50:958892,-4,-5,9,1,23,2,-8,-4
18:27:50:959648,1,-2,-5,6,5,-1,2,7
18:27:50:965828,6,9,32,15,-6,4,8,9
18:27:50:973892,6,9,32,15,-6,4,8,9
18:27:50:974649,2,5,-2,5,5,0,1,1
18:27:50:980803,-2,-1,-17,-11,-1,-4,-4,0
18:27:50:988244,-2,-1,-17,-11,-1,-4,-4,0
18:27:50:995784,-1,1,-2,1,-23,-7,-6,-7
18:27:51:3250,3,-1,-9,0,-9,-7,4,1
18:27:51:11508,3,-1,-9,0,-9,-7,4,1
18:27:51:12306,-4,2,-10,3,2,0,-3,2
18:27:51:25678,-1,1,-16,8,2,3,1,-2
18:27:51:33960,-1,1,-16,8,2,3,1,-2
18:27:51:34745,-4,-7,-1,14,22,6,1,-9
18:27:51:40686,-5,-6,-19,-23,-10,-3,0,-6
18:27:51:48318,-5,-6,-19,-23,-10,-3,0,-6
18:27:51:55692,4,31,57,-14,23,-1,1,0
18:27:51:63326,0,0,16,4,12,-1,-2,0
18:27:51:71422,0,0,16,4,12,-1,-2,0
18:27:51:72219,-4,-3,17,7,-35,-6,-4,-10
18:27:51:85724,-4,-20,-11,-5,15,1,1,2
18:27:51:93972,-4,-20,-11,-5,15,1,1,2
18:27:51:94685,-4,-10,-14,-6,0,-10,-4,-6
18:27:51:100687,0,-2,16,16,-14,-1,-2,-2
18:27:51:108298,0,-2,16,16,-14,-1,-2,-2
18:27:51:115760,-1,-4,-27,-21,-16,-9,0,6
18:27:51:123231,-3,-5,-3,-2,-15,-6,-1,-6
18:27:51:131441,-3,-5,-3,-2,-15,-6,-1,-6
18:27:51:132196,4,11,16,3,-7,-6,0,1
18:27:51:145710,2,10,-3,0,1,1,-2,-3
18:27:51:153898,2,10,-3,0,1,1,-2,-3
18:27:51:154733,-5,-10,-9,7,-6,1,-3,0
18:27:51:160717,0,2,-21,0,13,7,0,-1
18:27:51:168297,0,2,-21,0,13,7,0,-1
18:27:51:175692,-4,-17,-31,8,10,4,2,1
18:27:51:183317,0,9,16,23,7,10,3,1
18:27:51:191386,0,9,16,23,7,10,3,1
18:27:51:192211,1,2,-4,4,-4,9,3,3
18:27:51:205730,-4,-10,23,15,-10,-4,-6,-14
18:27:51:214000,-4,-10,23,15,-10,-4,-6,-14
18:27:51:214679,-6,-5,21,-12,-35,-2,2,-2
18:27:51:220717,1,-1,-9,-22,-19,-13,-6,-2
18:27:51:228357,1,-1,-9,-22,-19,-13,-6,-2
18:27:51:235718,2,4,-4,-8,-6,10,-3,1
18:27:51:243238,2,2,-21,-23,-11,1,1,2
18:27:51:251427,2,2,-21,-23,-11,1,1,2
18:27:51:252242,-3,-11,-17,-15,17,-10,-2,-4
18:27:51:265841,-5,-3,-19,-23,12,-2,-9,-4
18:27:51:273914,-5,-3,-19,-23,12,-2,-9,-4
18:27:51:274674,1,-11,-25,-8,1,6,3,5
18:27:51:280801,1,17,41,12,-13,-6,5,2
18:27:51:288233,1,17,41,12,-13,-6,5,2
18:27:51:295683,0,-5,4,0,-14,-13,-5,-1
18:27:51:303300,0,16,41,11,21,8,0,0
18:27:51:311567,0,16,41,11,21,8,0,0
18:27:51:312234,2,7,16,8,-32,2,1,-1
18:27:51:325720,-2,-9,-12,11,24,5,-3,-4
18:27:51:333939,-2,-9,-12,11,24,5,-3,-4
18:27:51:334717,-3,-5,-6,9,16,-2,0,-5
18:27:51:348969,2,27,28,-22,-10,-15,0,3
18:27:51:349677,2,27,28,-22,-10,-15,0,3
18:27:51:355636,2,3,-9,-4,33,5,-4,2
18:27:51:363287,-1,-17,-7,11,5,5,1,6
18:27:51:370725,-1,-17,-7,11,5,5,1,6
18:27:51:378273,1,-1,6,8,3,5,0,3
18:27:51:385761,-4,-14,-43,-17,14,-1,-6,-6
18:27:51:394124,-4,-14,-43,-17,14,-1,-6,-6
18:27:51:394673,-3,-1,11,1,-18,-10,-5,-6
18:27:51:408952,-2,-8,-15,2,-9,2,7,-2
18:27:51:409772,-2,-8,-15,2,-9,2,7,-2
18:27:51:415784,-4,-4,-13,1,14,4,-2,-4
18:27:51:423220,-3,-5,-9,0,-4,-8,-4,-2
18:27:51:430959,-3,-5,-9,0,-4,-8,-4,-2
18:27:51:438214,2,0,-25,-21,22,8,7,4
18:27:51:445826,-3,-3,7,-4,2,-2,-2,0
18:27:51:453858,-3,-3,7,-4,2,-2,-2,0
18:27:51:454648,-3,-2,1,-16,4,1,-5,-4
18:27:51:468895,0,0,8,10,-8,3,1,-5
18:27:51:469716,0,0,8,10,-8,3,1,-5
18:27:51:475694,-1,0,7,0,-12,-4,-1,2
18:27:51:483270,-5,-11,13,9,-18,-5,-4,-12
18:27:51:490705,-5,-11,13,9,-18,-5,-4,-12
18:27:51:498324,-2,1,15,0,-36,-7,-1,-4
18:27:51:505714,3,3,8,-3,-12,5,2,8
18:27:51:513956,3,3,8,-3,-12,5,2,8
18:27:51:514788,1,-5,-5,3,12,-2,-5,-6
18:27:51:528960,0,1,-14,-16,-2,-3,-2,1
18:27:51:529678,0,1,-14,-16,-2,-3,-2,1
18:27:51:535760,-5,-1,13,5,4,-1,-1,-9
18:27:51:543273,1,5,2,0,-18,-9,-2,-2
18:27:51:550839,1,5,2,0,-18,-9,-2,-2
18:27:51:558178,-1,2,14,9,-5,-2,-4,-1
18:27:51:565776,-4,-14,-37,-2,43,-6,3,4
18:27:51:573931,-4,-14,-37,-2,43,-6,3,4
18:27:51:574668,-3,-6,-21,2,19,10,7,0
18:27:51:588884,3,6,3,19,4,-1,-3,2
18:27:51:589663,3,6,3,19,4,-1,-3,2
18:27:51:595717,1,4,10,-2,9,-10,2,5
18:27:51:603260,2,-1,3,-6,-9,3,4,2
18:27:51:610855,2,-1,3,-6,-9,3,4,2
18:27:51:626490,-2,1,-7,-5,-16,0,-3,0
18:27:51:627148,-2,-4,-6,-6,-16,-6,-5,-4
18:27:51:633915,-2,-4,-6,-6,-16,-6,-5,-4
18:27:51:634698,5,14,8,-20,-29,-4,0,0
18:27:51:648876,-3,-5,-13,5,8,6,-3,-2
18:27:51:649674,-3,-5,-13,5,8,6,-3,-2
18:27:51:655647,-1,1,35,29,-38,-9,-1,1
18:27:51:663212,-3,-5,-11,-10,-9,3,0,-3
18:27:51:670701,-3,-5,-11,-10,-9,3,0,-3
18:27:51:678264,2,2,2,4,21,-1,-3,-2
18:27:51:685679,-3,-7,-4,9,-7,5,-1,-2
18:27:51:694001,-3,-7,-4,9,-7,5,-1,-2
18:27:51:694686,-6,-13,-33,-13,6,1,-2,-6
18:27:51:708879,1,7,-5,-21,0,-7,-2,-1
18:27:51:709698,1,7,-5,-21,0,-7,-2,-1
18:27:51:715714,-1,-7,-14,4,15,1,-5,-3
18:27:51:731515,-2,1,9,-16,-18,2,0,-1
18:27:51:732266,-2,1,9,-16,-18,2,0,-1
18:27:51:738160,0,-4,1,-4,6,-2,2,-2
18:27:51:745839,0,-2,-5,16,-6,-3,-3,-2
18:27:51:753876,0,-2,-5,16,-6,-3,-3,-2
18:27:51:754668,-2,-11,-36,-21,16,6,4,2
18:27:51:768945,2,-5,-10,8,10,4,2,-1
18:27:51:769715,2,-5,-10,8,10,4,2,-1
18:27:51:775660,0,-2,5,8,-17,-6,-3,-1
18:27:51:783199,-4,-3,-7,-8,7,0,-3,-3
18:27:51:790721,-4,-3,-7,-8,7,0,-3,-3
18:27:51:798283,-2,-1,10,3,-17,-3,-6,-5
18:27:51:805660,1,6,8,12,4,-7,2,4
18:27:51:813986,1,6,8,12,4,-7,2,4
18:27:51:814667,0,1,-9,-19,5,-1,2,4
18:27:51:837045,-1,-6,0,3,10,0,-2,0
18:27:51:837832,-1,-6,0,3,10,0,-2,0
18:27:51:838621,-3,-2,-5,-1,10,2,-4,-4
18:27:51:843219,0,4,-6,-12,4,2,-2,5
18:27:51:850804,0,4,-6,-12,4,2,-2,5
18:27:51:858170,2,7,3,-13,0,1,3,2
18:27:51:865774,2,-6,-15,1,13,-3,1,-4
18:27:51:873875,2,-6,-15,1,13,-3,1,-4
18:27:51:874674,0,6,41,35,6,1,3,0
18:27:51:888879,-2,-7,-7,-11,-14,-5,-1,-1
18:27:51:889664,-2,-7,-7,-11,-14,-5,-1,-1
18:27:51:895795,-1,4,14,19,15,2,1,-2
18:27:51:903202,-1,2,4,2,-15,0,-2,1
18:27:51:910728,-1,2,4,2,-15,0,-2,1
18:27:51:918298,-3,-2,17,6,3,-8,-5,-1
18:27:51:925796,-1,10,13,-1,10,5,-1,3
18:27:51:941365,-1,10,13,-1,10,5,-1,3
18:27:51:942187,3,5,17,3,-18,1,-2,0
18:27:51:948945,-5,-2,9,3,-3,-2,-4,-2
18:27:51:949702,-5,-2,9,3,-3,-2,-4,-2
18:27:51:955649,1,-2,-15,-9,-2,-1,-1,0
18:27:51:963331,1,4,4,-2,13,5,3,-4
18:27:51:970719,1,4,4,-2,13,5,3,-4
18:27:51:978263,0,-1,-10,4,1,0,1,7
18:27:51:985722,-5,-18,-35,-14,-26,5,0,0
18:27:51:994047,-5,-18,-35,-14,-26,5,0,0
18:27:51:994738,-1,-4,-42,11,27,11,1,0
18:27:52:8898,2,27,46,17,-3,1,-4,-5
18:27:52:9740,2,27,46,17,-3,1,-4,-5
18:27:52:15814,0,-3,-6,3,8,1,1,-1
18:27:52:23219,1,-2,10,-7,-14,-2,-2,0
18:27:52:30907,1,-2,10,-7,-14,-2,-2,0
18:27:52:46474,-1,1,16,-3,-11,-1,-4,-6
18:27:52:47245,-1,-11,-15,0,-6,-5,2,-1
18:27:52:53869,-1,-11,-15,0,-6,-5,2,-1
18:27:52:54689,-6,-20,-30,3,5,4,-3,-5
18:27:52:68919,-2,-2,6,4,-3,-4,-2,-1
18:27:52:69690,-2,-2,6,4,-3,-4,-2,-1
18:27:52:75675,-2,-8,-27,-18,-13,2,-1,-1
18:27:52:83241,1,2,16,11,8,-7,3,0
18:27:52:90748,1,2,16,11,8,-7,3,0
18:27:52:98351,-6,-1,43,6,-4,-15,-5,-5
18:27:52:105659,1,3,21,-2,-17,6,1,6
18:27:52:114159,1,3,21,-2,-17,6,1,6
18:27:52:114765,2,11,27,-4,-1,-3,2,0
18:27:52:128991,6,20,22,-19,24,6,2,5
18:27:52:129741,6,20,22,-19,24,6,2,5
18:27:52:135723,2,4,-15,-14,-2,-10,-4,6
18:27:52:143369,-4,-6,11,-3,17,-16,-4,-2
18:27:52:150722,-4,-6,11,-3,17,-16,-4,-2
18:27:52:158205,0,2,24,21,-13,2,-1,0
18:27:52:165777,-5,-18,-39,-1,-15,-10,-2,-6
18:27:52:173916,-5,-18,-39,-1,-15,-10,-2,-6
18:27:52:174644,-1,-12,-29,-4,-6,-3,-3,-3
18:27:52:188874,3,13,26,34,11,-4,3,3
18:27:52:189681,3,13,26,34,11,-4,3,3
18:27:52:195814,0,-2,-20,-9,-1,-1,3,2
18:27:52:203285,0,-2,-13,6,4,2,-1,0
18:27:52:218900,0,-2,-13,6,4,2,-1,0
18:27:52:219663,0,11,46,17,-21,5,-2,-2
18:27:52:225695,3,14,44,7,-12,6,-1,1
18:27:52:233947,3,14,44,7,-12,6,-1,1
18:27:52:234744,2,0,15,9,-1,3,1,2
18:27:52:248979,-4,-11,-51,-21,9,-4,-2,-5
18:27:52:249748,-4,-11,-51,-21,9,-4,-2,-5
18:27:52:255667,0,-5,-35,-23,9,-1,1,2
18:27:52:263258,-1,4,8,-18,8,-1,-1,-3
18:27:52:270687,-1,4,8,-18,8,-1,-1,-3
18:27:52:278264,0,1,0,12,11,-1,-1,-2
18:27:52:285844,1,8,55,28,10,7,-5,0
18:27:52:293248,1,8,55,28,10,7,-5,0
18:27:52:300703,0,22,75,14,-8,6,-5,-3
18:27:52:309044,-6,-14,-42,-14,-13,4,2,-3
18:27:52:309708,-6,-14,-42,-14,-13,4,2,-3
18:27:52:315691,-4,-6,14,6,-17,-13,-3,0
18:27:52:331442,-1,-3,-6,-13,-21,-10,-5,-2
18:27:52:332238,-1,-3,-6,-13,-21,-10,-5,-2
18:27:52:338127,-4,-15,-60,-27,-5,2,-2,-4
18:27:52:345672,5,-2,-34,-4,12,4,7,7
18:27:52:353258,5,-2,-34,-4,12,4,7,7
18:27:52:360708,-1,6,8,-29,16,-2,0,-1
18:27:52:368932,1,-4,-30,-18,-19,-10,1,2
18:27:52:369718,1,-4,-30,-18,-19,-10,1,2
18:27:52:375694,1,-4,-30,-17,22,6,-2,-6
18:27:52:391395,-7,-2,-10,4,2,1,-3,-7
18:27:52:392215,-7,-2,-10,4,2,1,-3,-7
18:27:52:398286,1,13,23,18,15,5,4,6
18:27:52:406368,-1,-1,28,20,-3,-15,-10,-8
18:27:52:407216,-1,-1,28,20,-3,-15,-10,-8
18:27:52:420661,-2,-3,-33,-3,10,1,-3,-3
18:27:52:437034,-2,-5,28,15,-26,-5,-4,-1
18:27:52:437820,-2,-5,28,15,-26,-5,-4,-1
18:27:52:438615,4,-3,-12,-14,-8,-3,0,-1
18:27:52:451443,-4,-15,-48,-43,-3,-6,-8,-8
18:27:52:452235,-4,-15,-48,-43,-3,-6,-8,-8
18:27:52:458280,0,8,1,-4,-1,2,1,-5
18:27:52:466414,-2,8,6,3,13,3,1,-1
18:27:52:467265,-2,8,6,3,13,3,1,-1
18:27:52:480840,-3,-12,-29,-17,-27,-12,-1,-2
18:27:52:488866,-6,-2,19,5,-24,-12,0,-1
18:27:52:489645,-6,-2,19,5,-24,-12,0,-1
18:27:52:495819,-4,-2,10,33,-11,-5,2,-2
18:27:52:511484,-6,-19,-44,0,12,16,-1,0
18:27:52:512301,-6,-19,-44,0,12,16,-1,0
18:27:52:518261,-1,-6,4,15,-7,-2,-2,1
18:27:52:526391,0,-6,-20,-1,14,7,7,2
18:27:52:527263,0,-6,-20,-1,14,7,7,2
18:27:52:541157,-1,4,10,-6,-10,-3,-2,2
18:27:52:549080,-1,1,-11,-28,-9,4,-4,0
18:27:52:549754,-1,1,-11,-28,-9,4,-4,0
18:27:52:555685,1,2,21,2,7,-8,-7,-1
18:27:52:571400,4,9,24,-4,-4,-1,1,3
18:27:52:572198,4,9,24,-4,-4,-1,1,3
18:27:52:578331,1,10,34,13,2,5,3,-1
18:27:52:586345,1,-4,-22,7,14,-6,-4,-1
18:27:52:587214,1,-4,-22,7,14,-6,-4,-1
18:27:52:600665,0,-5,-11,-5,-15,-12,-6,-2
18:27:52:608884,-2,-11,-33,-6,16,10,0,-4
18:27:52:609701,-2,-11,-33,-6,16,10,0,-4
18:27:52:615799,-5,-9,-62,-31,27,8,2,1
18:27:52:631538,-5,-9,-4,-7,-3,-5,-7,-7
18:27:52:632251,-5,-9,-4,-7,-3,-5,-7,-7
18:27:52:654512,-3,0,28,-4,-10,-1,0,1
18:27:52:655317,1,25,62,26,7,5,1,-4
18:27:52:656180,1,25,62,26,7,5,1,-4
18:27:52:660696,0,-10,-13,-9,-1,-4,-3,-1
18:27:52:668892,0,-12,-13,-7,-23,-6,1,-5
18:27:52:669695,0,-12,-13,-7,-23,-6,1,-5
18:27:52:675680,-2,-8,-25,-11,-17,-3,-2,2
18:27:52:691354,0,-3,-15,7,-1,-3,-3,-2
18:27:52:692210,0,-3,-15,7,-1,-3,-3,-2
18:27:52:698250,1,2,13,11,-7,4,-2,-3
18:27:52:706428,-2,-2,-3,3,6,4,-2,3
18:27:52:707265,-2,-2,-3,3,6,4,-2,3
18:27:52:729657,-6,-27,-50,-1,18,-1,-5,-6
18:27:52:730325,1,3,-5,-22,-12,-1,1,1
18:27:52:731152,1,3,-5,-22,-12,-1,1,1
18:27:52:735736,-2,2,1,17,23,6,5,0
18:27:52:751947,1,-9,-26,-13,17,-1,-2,5
18:27:52:752739,1,-9,-26,-13,17,-1,-2,5
18:27:52:758231,-4,-1,16,16,1,-4,-4,-6
18:27:52:766474,1,11,32,28,-6,0,1,1
18:27:52:767234,1,11,32,28,-6,0,1,1
18:27:52:780774,4,4,-12,-7,2,6,4,4
18:27:52:788662,4,4,-12,-7,2,6,4,4
18:27:52:796389,4,7,1,-14,-17,1,1,3
18:27:52:797261,-4,-6,13,4,4,3,0,-2
18:27:52:811536,-4,-6,13,4,4,3,0,-2
18:27:52:812263,1,7,7,-11,7,-2,1,-3
18:27:52:818247,-1,8,26,6,3,4,-2,3
18:27:52:834028,-1,8,26,6,3,4,-2,3
18:27:52:834785,-11,-20,-29,7,27,9,0,-6
18:27:52:840644,-2,2,-6,-4,12,-1,0,-2
18:27:52:849584,-2,2,-6,-4,12,-1,0,-2
18:27:52:850365,3,-1,-13,-4,12,6,2,4
18:27:52:855658,4,-1,-18,-12,-13,-18,-7,-3
18:27:52:871410,4,-1,-18,-12,-13,-18,-7,-3
18:27:52:872201,-2,-9,-38,-12,0,-10,-5,-3
18:27:52:878374,-3,0,-2,-9,-16,2,2,-1
18:27:52:893755,-3,0,-2,-9,-16,2,2,-1
18:27:52:901365,4,8,-7,-13,-7,-11,0,1
18:27:52:902116,1,5,-10,8,6,-3,-1,-3
18:27:52:908913,1,5,-10,8,6,-3,-1,-3
18:27:52:909733,0,0,36,11,-33,-1,-3,2
18:27:52:915736,2,0,4,3,1,8,0,5
18:27:52:939557,2,0,4,3,1,8,0,5
18:27:52:940329,0,14,42,14,-6,0,-1,-2
18:27:52:941101,-2,-5,-17,-20,-8,-12,1,-3
18:27:52:953909,-2,-5,-17,-20,-8,-12,1,-3
18:27:52:954702,-3,-1,-2,7,12,9,7,4
18:27:52:960781,5,3,4,-10,-8,-1,1,1
18:27:52:968908,5,3,4,-10,-8,-1,1,1
18:27:52:969676,-7,-25,-46,-20,0,-12,-4,-10
18:27:52:975801,-2,0,-2,-20,0,4,4,0
18:27:52:991358,-2,0,-2,-20,0,4,4,0
18:27:52:992196,4,9,14,-18,15,-6,-1,1
18:27:53:5683,-4,9,58,13,5,9,3,0
18:27:53:14045,-4,9,58,13,5,9,3,0
18:27:53:14788,-6,-5,2,2,-5,9,3,2
18:27:53:20667,-3,-12,-33,15,7,5,0,-1
18:27:53:29682,-3,-12,-33,15,7,5,0,-1
18:27:53:30359,-3,-3,4,21,4,-2,-2,-9
18:27:53:35719,-4,-5,-22,1,2,1,-4,-1
18:27:53:51457,-4,-5,-22,1,2,1,-4,-1
18:27:53:52230,-8,-20,-33,9,25,10,-5,-2
18:27:53:65752,0,4,39,1,6,-5,-1,-2
18:27:53:73934,0,4,39,1,6,-5,-1,-2
18:27:53:74679,2,4,6,6,12,3,-2,-1
18:27:53:80776,-5,3,8,3,7,-6,-8,-6
18:27:53:88904,-5,3,8,3,7,-6,-8,-6
18:27:53:89697,3,9,40,31,-8,3,0,5
18:27:53:95762,0,-7,-17,11,-6,-3,1,4
18:27:53:111448,0,-7,-17,11,-6,-3,1,4
18:27:53:112217,0,-1,-8,4,-29,-12,0,-1
18:27:53:118247,0,4,5,1,-13,3,4,2
18:27:53:134369,0,4,5,1,-13,3,4,2
18:27:53:135252,1,12,18,8,-4,-7,-2,-1
18:27:53:140691,3,-7,-18,-2,-2,-11,-6,-3
18:27:53:148738,3,-7,-18,-2,-2,-11,-6,-3
18:27:53:156364,-4,-11,-4,-3,-28,-9,-6,-5
18:27:53:157186,-1,-6,-4,-8,-7,-3,-3,0
18:27:53:171847,-1,-6,-4,-8,-7,-3,-3,0
18:27:53:172649,4,8,-10,-60,-45,-15,-3,4
18:27:53:178344,-1,-3,9,1,-7,-18,-2,-1
18:27:53:193890,-1,-3,9,1,-7,-18,-2,-1
18:27:53:194642,-7,-5,1,6,20,9,4,-4
18:27:53:200742,-3,0,-13,-10,0,7,1,-3
18:27:53:208949,-3,0,-13,-10,0,7,1,-3
18:27:53:209667,-1,-10,-26,-6,4,4,1,-2
18:27:53:215715,0,-4,-31,-11,-7,6,3,-3
18:27:53:231463,0,-4,-31,-11,-7,6,3,-3
18:27:53:232195,4,5,0,-26,16,2,0,1
18:27:53:238204,-2,-12,-23,-7,-15,7,-2,-6
18:27:53:253883,-2,-12,-23,-7,-15,7,-2,-6
18:27:53:254666,-4,-4,-1,3,5,-1,-2,1
18:27:53:260853,3,5,-20,-18,-7,-1,2,3
18:27:53:268918,3,5,-20,-18,-7,-1,2,3
18:27:53:269728,-5,-15,-30,-8,3,-3,-3,-4
18:27:53:283272,-2,-6,-2,5,14,0,-2,-3
18:27:53:291391,-2,-6,-2,5,14,0,-2,-3
18:27:53:292217,-1,-1,-2,2,-1,3,0,-2
18:27:53:298268,-3,-9,-13,-10,-18,1,-11,-5
18:27:53:305703,-3,-9,-13,-10,-18,1,-11,-5
18:27:53:313362,-1,9,26,28,-4,-5,-4,-2
18:27:53:320630,-3,1,-5,0,9,7,1,-1
18:27:53:329028,-3,1,-5,0,9,7,1,-1
18:27:53:329685,-1,3,5,-18,16,3,-2,-4
18:27:53:352045,0,-3,12,10,2,-9,-5,0
18:27:53:352845,0,-3,12,10,2,-9,-5,0
18:27:53:353674,1,-15,-20,-25,-20,-1,-1,-4
18:27:53:358223,3,4,15,-11,-4,-20,-5,-2
18:27:53:373948,3,4,15,-11,-4,-20,-5,-2
18:27:53:374700,2,5,16,19,-6,-8,-2,-2
18:27:53:380766,-2,4,20,26,1,9,3,4
18:27:53:388863,-2,4,20,26,1,9,3,4
18:27:53:389665,1,2,0,12,7,9,5,2
18:27:53:403281,-2,0,1,-7,-2,-3,-2,-1
18:27:53:411462,-2,0,1,-7,-2,-3,-2,-1
18:27:53:412195,0,7,21,21,8,-3,-5,3
18:27:53:418233,-1,3,10,-1,13,8,5,0
18:27:53:425722,-1,3,10,-1,13,8,5,0
18:27:53:433260,0,-4,-2,-5,-19,3,2,0
18:27:53:440727,-4,-3,-11,-8,0,3,0,0
18:27:53:448878,-4,-3,-11,-8,0,3,0,0
18:27:53:449691,2,5,-4,-4,2,0,-2,-2
18:27:53:463303,0,-4,-15,-6,-7,5,2,-5
18:27:53:471353,0,-4,-15,-6,-7,5,2,-5
18:27:53:472205,-2,-8,-22,-8,-3,1,1,1
18:27:53:478334,-2,-8,9,16,4,-8,-8,-1
18:27:53:485779,-2,-8,9,16,4,-8,-8,-1
18:27:53:493260,-2,-4,-6,-12,31,1,0,2
18:27:53:500695,2,-1,-22,-9,-12,-6,-2,1
18:27:53:508900,2,-1,-22,-9,-12,-6,-2,1
18:27:53:509663,-2,7,31,-4,-10,6,1,0
18:27:53:523217,-3,-7,-30,-9,-4,1,3,-1
18:27:53:531494,-3,-7,-30,-9,-4,1,3,-1
18:27:53:532285,0,-4,-29,-3,22,4,1,2
18:27:53:538131,0,3,-5,-5,-2,4,-1,0
18:27:53:545708,0,3,-5,-5,-2,4,-1,0
18:27:53:553253,0,-4,3,10,3,-11,-4,-3
18:27:53:560718,1,1,11,5,2,0,2,-2
18:27:53:568972,1,1,11,5,2,0,2,-2
18:27:53:569772,0,1,18,19,-5,2,-1,-2
18:27:53:583232,4,24,42,-5,-7,-7,-2,-4
18:27:53:591409,4,24,42,-5,-7,-7,-2,-4
18:27:53:592204,-3,-7,-11,6,-1,10,-3,-1
18:27:53:598236,1,2,-2,20,1,-1,2,3
18:27:53:605757,1,2,-2,20,1,-1,2,3
18:27:53:613312,-2,-8,-19,-22,-24,-6,-1,-4
18:27:53:620658,0,9,34,5,21,-4,4,3
18:27:53:628912,0,9,34,5,21,-4,4,3
18:27:53:629669,1,-2,-12,-10,2,-1,0,4
18:27:53:643142,-7,-6,-7,-3,1,6,0,-1
18:27:53:651483,-7,-6,-7,-3,1,6,0,-1
18:27:53:652276,-2,0,12,-5,0,1,1,-1
18:27:53:658245,0,0,5,1,5,-5,-1,1
18:27:53:665889,0,0,5,1,5,-5,-1,1
18:27:53:673258,-2,0,-18,-16,-18,-5,-3,-5
18:27:53:680750,-1,-6,-19,-3,-11,-14,-11,-2
18:27:53:688861,-1,-6,-19,-3,-11,-14,-11,-2
18:27:53:689654,1,2,2,5,-11,-16,-4,-1
18:27:53:703237,-1,-6,-15,-18,-5,3,0,1
18:27:53:711478,-1,-6,-15,-18,-5,3,0,1
18:27:53:712207,0,3,16,7,-1,-7,-3,2
18:27:53:718237,0,-2,10,4,-9,9,-1,0
18:27:53:725708,0,-2,10,4,-9,9,-1,0
18:27:53:733262,0,-7,-24,8,-3,-4,1,-4
18:27:53:740731,0,4,9,9,8,5,4,-2
18:27:53:749045,0,4,9,9,8,5,4,-2
18:27:53:749749,0,0,-4,-18,0,-5,0,-2
18:27:53:763315,1,8,12,-3,-20,0,-3,0
18:27:53:771362,1,8,12,-3,-20,0,-3,0
18:27:53:772200,3,19,28,2,25,6,3,5
18:27:53:778322,4,4,-2,-22,-2,2,1,3
18:27:53:785750,4,4,-2,-22,-2,2,1,3
18:27:53:793185,1,2,4,-3,-4,-7,2,1
18:27:53:800673,-4,-10,-5,-1,1,-7,0,-1
18:27:53:808921,-4,-10,-5,-1,1,-7,0,-1
18:27:53:809690,-1,7,18,7,14,4,0,-2
18:27:53:823147,-2,-6,-13,-29,6,-6,-6,-8
18:27:53:831495,-2,-6,-13,-29,6,-6,-6,-8
18:27:53:832237,-5,-7,4,11,-21,-1,-5,-4
18:27:53:838134,5,10,-15,-12,6,-3,1,2
18:27:53:845800,5,10,-15,-12,6,-3,1,2
18:27:53:853276,-3,-6,-7,1,-6,2,-5,-3
18:27:53:860742,-1,-2,4,-3,-13,-4,2,1
18:27:53:868918,-1,-2,4,-3,-13,-4,2,1
18:27:53:869695,-4,-3,-15,-16,7,4,-2,-3
18:27:53:883266,-9,-22,-37,-3,-9,-9,-6,-2
18:27:53:891444,-9,-22,-37,-3,-9,-9,-6,-2
18:27:53:892215,-4,1,9,-3,7,0,-1,-9
18:27:53:898389,-3,-9,-6,17,7,5,4,2
18:27:53:905754,-3,-9,-6,17,7,5,4,2
18:27:53:921327,1,-2,2,6,-12,-7,-2,1
18:27:53:922092,-6,-11,-33,-10,-1,-2,-3,-6
18:27:53:928943,-6,-11,-33,-10,-1,-2,-3,-6
18:27:53:929739,-1,-1,4,22,9,-3,-3,1
18:27:53:943172,-3,-7,-12,4,6,7,-2,-5
18:27:53:951534,-3,-7,-12,4,6,7,-2,-5
18:27:53:952295,5,11,22,36,-8,-16,-1,0
18:27:53:958185,0,-12,-52,7,21,-1,-2,0
18:27:53:965753,0,-12,-52,7,21,-1,-2,0
18:27:53:973233,-6,-6,0,6,3,9,-6,-3
18:27:53:980868,1,2,12,-9,1,2,2,-1
18:27:53:988880,1,2,12,-9,1,2,2,-1
18:27:53:989707,0,-1,-17,-27,-2,6,2,1
18:27:54:3226,5,17,43,-14,-12,-4,2,1
18:27:54:11544,5,17,43,-14,-12,-4,2,1
18:27:54:12198,-2,-3,-13,-17,-6,-6,2,-4
18:27:54:18254,1,1,-12,5,-14,-1,-2,3
18:27:54:25787,1,1,-12,5,-14,-1,-2,3
18:27:54:33412,2,5,24,3,-24,-9,-3,2
18:27:54:40714,-1,9,44,18,-18,0,1,-3
18:27:54:48986,-1,9,44,18,-18,0,1,-3
18:27:54:49654,-4,-4,17,6,-9,20,6,-3
18:27:54:63246,-4,-4,-14,-5,6,0,3,-2
18:27:54:71406,-4,-4,-14,-5,6,0,3,-2
18:27:54:72204,-1,1,-11,1,20,6,0,6
18:27:54:78273,-2,-7,-5,-2,3,-1,-1,-6
18:27:54:85733,-2,-7,-5,-2,3,-1,-1,-6
18:27:54:93176,-2,-11,-50,-13,-2,-5,0,0
18:27:54:100799,-4,-13,-17,8,-4,-16,-9,-4
18:27:54:108919,-4,-13,-17,8,-4,-16,-9,-4
18:27:54:109702,1,-2,-13,-14,-32,-8,1,1
18:27:54:123252,3,17,53,16,1,7,2,4
18:27:54:131435,3,17,53,16,1,7,2,4
18:27:54:132244,-3,-4,13,4,0,2,-5,-7
18:27:54:138237,1,19,70,33,1,6,-3,-1
18:27:54:145809,1,19,70,33,1,6,-3,-1
18:27:54:153170,-1,1,-12,5,35,-4,1,1
18:27:54:160817,-3,0,8,2,-6,-7,-10,-5
18:27:54:168939,-3,0,8,2,-6,-7,-10,-5
18:27:54:169684,-4,-15,-36,-6,7,-8,-6,-8
18:27:54:183166,-1,-8,-49,-13,-6,-1,1,-2
18:27:54:191382,-1,-8,-49,-13,-6,-1,1,-2
18:27:54:192202,6,18,37,12,-7,-11,4,6
18:27:54:206385,-5,-18,-35,-13,-9,3,-5,-3
18:27:54:207241,-5,-18,-35,-13,-9,3,-5,-3
18:27:54:213269,-3,-2,-14,-9,-3,7,1,-5
18:27:54:220718,3,8,19,25,0,9,6,4
18:27:54:228295,3,8,19,25,0,9,6,4
18:27:54:235716,-2,-7,-1,-12,3,-4,-8,-3
18:27:54:243336,-4,-10,-40,-12,11,-1,-4,-8
18:27:54:251441,-4,-10,-40,-12,11,-1,-4,-8
18:27:54:252234,8,19,42,13,8,8,6,6
18:27:54:266417,-5,-13,-36,-10,9,-2,2,-2
18:27:54:267246,-5,-13,-36,-10,9,-2,2,-2
18:27:54:273202,-11,-23,-15,-16,14,-1,-7,-9
18:27:54:288899,-2,-3,-5,-15,3,2,1,-3
18:27:54:289698,-2,-3,-5,-15,3,2,1,-3
18:27:54:295795,1,-1,7,4,-5,5,0,2
18:27:54:303168,-5,-12,-21,-25,-24,-7,-2,-2
18:27:54:318937,-5,-12,-21,-25,-24,-7,-2,-2
18:27:54:319649,0,0,31,36,-3,-1,-3,-5
18:27:54:326431,0,-3,1,-26,-10,7,-3,1
18:27:54:327275,0,-3,1,-26,-10,7,-3,1
18:27:54:333178,-4,-2,-29,-10,1,7,0,1
18:27:54:340672,0,2,34,26,-7,2,-1,0
18:27:54:348351,0,2,34,26,-7,2,-1,0
18:27:54:355675,0,8,9,1,21,-1,1,-2
18:27:54:363324,2,8,8,16,18,-1,1,-2
18:27:54:371399,2,8,8,16,18,-1,1,-2
18:27:54:372192,-4,-5,-4,22,-4,-14,-4,-1
18:27:54:386419,0,11,15,7,-7,-16,-10,-5
18:27:54:387228,0,11,15,7,-7,-16,-10,-5
18:27:54:393322,1,1,-4,-16,-21,-5,2,-2
18:27:54:400715,-2,-3,0,-13,-6,-5,-3,-1
18:27:54:408245,-2,-3,0,-13,-6,-5,-3,-1
18:27:54:415784,1,4,-16,-8,10,9,-3,4
18:27:54:423167,7,23,48,38,7,6,3,6
18:27:54:431531,7,23,48,38,7,6,3,6
18:27:54:432261,-6,-13,-17,-5,2,3,-4,-8
18:27:54:446479,1,-4,-18,-4,8,-2,1,2
18:27:54:447250,1,-4,-18,-4,8,-2,1,2
18:27:54:461479,-1,-5,-21,-34,6,-8,-1,-2
18:27:54:462149,0,1,-11,-11,1,5,10,2
18:27:54:468282,0,1,-11,-11,1,5,10,2
18:27:54:475680,5,7,2,-2,-2,3,5,2
18:27:54:483286,-2,-1,5,1,-12,-1,-2,-2
18:27:54:491398,-2,-1,5,1,-12,-1,-2,-2
18:27:54:492244,-3,-7,-14,-11,-14,-5,-3,-4
18:27:54:506359,-3,-2,11,5,-3,0,0,-1
18:27:54:507218,-3,-2,11,5,-3,0,0,-1
18:27:54:513198,-2,-1,7,-3,-17,7,3,0
18:27:54:520657,11,-6,-13,-9,5,-1,-3,-1
18:27:54:528258,11,-6,-13,-9,5,-1,-3,-1
18:27:54:535830,-5,16,34,15,2,3,-4,6
18:27:54:543325,0,14,12,-18,-18,-21,-4,-5
18:27:54:551502,0,14,12,-18,-18,-21,-4,-5
18:27:54:552260,-1,-15,-10,4,16,1,-5,-1
18:27:54:566394,-4,0,0,1,5,-3,1,2
18:27:54:567291,-4,0,0,1,5,-3,1,2
18:27:54:573194,-3,-2,4,-7,13,9,2,0
18:27:54:580780,1,0,-17,8,20,13,4,6
18:27:54:588220,1,0,-17,8,20,13,4,6
18:27:54:595822,3,5,5,1,-16,4,6,2
18:27:54:603294,-5,-14,-14,-13,1,1,2,-2
18:27:54:611423,-5,-14,-14,-13,1,1,2,-2
18:27:54:612245,-8,3,-5,-11,-15,-3,-3,-8
18:27:54:626561,0,-5,-26,-22,-5,6,-6,-5
18:27:54:627247,0,-5,-26,-22,-5,6,-6,-5
18:27:54:633304,-1,-9,-22,-4,-3,-12,-4,-1
18:27:54:640677,-12,-11,0,27,1,9,0,-15
18:27:54:648375,-12,-11,0,27,1,9,0,-15
18:27:54:655711,-3,-21,-52,-15,-1,7,-3,-7
18:27:54:663342,5,-5,-12,2,-3,-2,1,13
18:27:54:671338,5,-5,-12,2,-3,-2,1,13
18:27:54:672194,10,10,6,-6,-13,-9,-3,14
18:27:54:686389,13,-5,11,-3,2,0,-2,-5
18:27:54:687214,13,-5,11,-3,2,0,-2,-5
18:27:54:693366,13,28,62,36,-1,12,8,9
18:27:54:700763,-5,6,10,0,-8,-4,-8,-13
18:27:54:708331,-5,6,10,0,-8,-4,-8,-13
18:27:54:715710,5,-5,-27,-21,-5,-12,-2,16
18:27:54:723174,-4,8,0,-15,8,0,7,7
18:27:54:731526,-4,8,0,-15,8,0,7,7
18:27:54:732247,-5,4,17,16,11,3,5,-7
18:27:54:746492,-4,-2,-8,17,7,-14,-17,-3
18:27:54:747313,-4,-2,-8,17,7,-14,-17,-3
18:27:54:753199,-4,-11,-7,0,-11,-3,-6,-6
18:27:54:760757,-4,-2,10,15,0,4,1,-15
18:27:54:768284,-4,-2,10,15,0,4,1,-15
18:27:54:775678,-34,-20,8,0,5,1,0,-17
18:27:54:783209,9,20,20,-23,2,3,6,7
18:27:54:791451,9,20,20,-23,2,3,6,7
18:27:54:792222,6,-3,-7,-9,-11,-5,-3,8
18:27:54:806348,-9,-7,2,-5,8,9,1,1
18:27:54:807213,-9,-7,2,-5,8,9,1,1
18:27:54:813345,4,10,-8,-24,-1,0,2,2
18:27:54:820658,-1,-17,-28,-11,-15,-7,-3,-7
18:27:54:828272,-1,-17,-28,-11,-15,-7,-3,-7
18:27:54:835780,5,-6,-15,8,8,-10,0,-18
18:27:54:843188,-4,-6,-7,19,-18,-20,-3,7
18:27:54:851504,-4,-6,-7,19,-18,-20,-3,7
18:27:54:852283,-2,-17,-31,-14,-11,2,-11,-15
18:27:54:866423,-13,-14,-15,-15,-8,3,5,-6
18:27:54:867212,-13,-14,-15,-15,-8,3,5,-6
18:27:54:873172,-21,-6,26,8,1,2,-1,10
18:27:54:880760,-1,-24,-2,-22,-2,-5,-7,19
18:27:54:888263,-1,-24,-2,-22,-2,-5,-7,19
18:27:54:895725,1,-2,-14,-5,-3,8,-9,1
18:27:54:903330,9,19,24,-15,0,-5,5,15
18:27:54:911414,9,19,24,-15,0,-5,5,15
18:27:54:912238,9,4,-2,4,5,-3,12,17
18:27:54:926467,2,-4,-21,16,-4,-4,-2,6
18:27:54:927219,2,-4,-21,16,-4,-4,-2,6
18:27:54:933221,1,13,-4,-5,2,-1,1,10
18:27:54:940680,6,-1,0,-4,5,-9,-7,-12
18:27:54:948370,6,-1,0,-4,5,-9,-7,-12
18:27:54:955611,3,26,52,41,0,3,2,4
18:27:54:963370,3,20,65,11,-16,-10,2,1
18:27:54:971339,3,20,65,11,-16,-10,2,1
18:27:54:972209,-3,-15,2,17,10,0,-4,-13
18:27:54:986433,-3,4,-13,2,4,10,4,5
18:27:54:987227,-3,4,-13,2,4,10,4,5
18:27:54:993180,-1,2,2,-11,1,-2,-2,-5
18:27:55:758,-3,13,-10,-5,-3,-5,-5,-17
18:27:55:8266,-3,13,-10,-5,-3,-5,-5,-17
18:27:55:15740,25,0,1,-15,-7,-9,1,4
18:27:55:23132,-4,-6,-7,-11,1,14,6,-15
18:27:55:31507,-4,-6,-7,-11,1,14,6,-15
18:27:55:32232,1,9,-8,-8,1,-6,1,4
18:27:55:46477,-4,11,19,17,2,6,-7,-11
18:27:55:47257,-4,11,19,17,2,6,-7,-11
18:27:55:53165,-1,-8,-28,-5,-2,-6,-6,-11
18:27:55:60841,-2,2,47,29,12,-12,-3,5
18:27:55:68343,-2,2,47,29,12,-12,-3,5
18:27:55:75672,-1,-1,-5,-1,-14,7,5,18
18:27:55:83249,42,14,19,9,-6,8,-7,8
18:27:55:91431,42,14,19,9,-6,8,-7,8
18:27:55:92219,-3,10,21,-2,-6,-10,6,4
18:27:55:106378,-23,-28,-26,2,-1,-7,-8,-13
18:27:55:107245,-23,-28,-26,2,-1,-7,-8,-13
18:27:55:121327,-3,-12,-22,7,3,2,-9,-8
18:27:55:122084,-11,13,-13,-13,2,-1,-1,4
18:27:55:128419,-11,13,-13,-13,2,-1,-1,4
18:27:55:135722,-19,-11,9,-4,-6,-20,-14,-55
18:27:55:143131,-17,-28,-21,-3,2,11,10,-3
18:27:55:150767,-17,-28,-21,-3,2,11,10,-3
18:27:55:158169,12,20,2,-3,8,-17,-3,-3
18:27:55:166445,4,8,10,14,12,-4,3,6
18:27:55:167234,4,8,10,14,12,-4,3,6
18:27:55:173171,-7,-22,-15,-24,-11,-16,-12,-9
18:27:55:188862,-6,6,3,-2,-3,-5,-8,-16
18:27:55:189661,-6,6,3,-2,-3,-5,-8,-16
18:27:55:195845,-1,-4,4,7,6,17,2,20
18:27:55:203256,-5,-11,-11,-26,-18,4,4,6
18:27:55:210774,-5,-11,-11,-26,-18,4,4,6
18:27:55:218312,11,13,-9,-17,-5,14,6,19
18:27:55:226385,-8,-12,-20,6,1,-8,2,4
18:27:55:227249,-8,-12,-20,6,1,-8,2,4
18:27:55:233357,17,-21,11,11,3,-1,1,-49
18:27:55:249028,22,2,-19,-14,0,-5,-2,6
18:27:55:249775,22,2,-19,-14,0,-5,-2,6
18:27:55:255697,2,8,5,6,-1,6,5,16
18:27:55:263358,-10,-8,-10,8,12,12,1,-3
18:27:55:270694,-10,-8,-10,8,12,12,1,-3
18:27:55:278322,-12,-9,4,1,14,10,-7,-10
18:27:55:286434,0,-8,-3,12,3,0,5,16
18:27:55:287224,0,-8,-3,12,3,0,5,16
18:27:55:293155,-3,9,21,16,11,-2,6,19
18:27:55:308851,5,3,1,-4,-12,-7,-8,-12
18:27:55:309640,5,3,1,-4,-12,-7,-8,-12
18:27:55:315836,-15,-13,-17,-8,-17,-1,2,8
18:27:55:323240,-2,10,39,-2,5,7,-7,2
18:27:55:330802,-2,10,39,-2,5,7,-7,2
18:27:55:338247,-1,22,32,-3,10,-12,-6,-24
18:27:55:346505,-2,8,-7,-3,-2,9,1,-7
18:27:55:347324,-2,8,-7,-3,-2,9,1,-7
18:27:55:353220,11,5,-13,-2,-15,-3,-4,-5
18:27:55:368895,-6,11,-7,3,6,-1,-1,-8
18:27:55:369763,-6,11,-7,3,6,-1,-1,-8
18:27:55:375663,-12,-1,-9,1,6,1,0,14
18:27:55:383264,-5,-6,-17,-2,-16,4,10,16
18:27:55:390716,-5,-6,-17,-2,-16,4,10,16
18:27:55:398233,-20,-6,-10,9,-4,0,1,3
18:27:55:406369,9,-2,7,-2,7,-3,-12,13
18:27:55:407213,9,-2,7,-2,7,-3,-12,13
18:27:55:413324,4,-7,-9,-5,-18,-3,5,8
18:27:55:428914,17,6,2,-7,-12,-8,9,1
18:27:55:429736,17,6,2,-7,-12,-8,9,1
18:27:55:435740,-6,-17,-37,-11,9,2,0,4
18:27:55:443165,3,5,8,-6,-7,-1,-3,-5
18:27:55:450871,3,5,8,-6,-7,-1,-3,-5
18:27:55:458193,2,-6,-7,-17,-2,2,0,-10
18:27:55:466532,-10,-25,-35,-4,6,-12,-5,-2
18:27:55:467316,-10,-25,-35,-4,6,-12,-5,-2
18:27:55:473246,1,27,29,8,8,6,-1,-1
18:27:55:488877,-5,2,4,-7,4,0,-2,-14
18:27:55:489698,-5,2,4,-7,4,0,-2,-14
18:27:55:495765,5,-4,2,6,-1,11,2,2
18:27:55:503253,-2,-4,5,-3,-8,-9,-13,-19
18:27:55:510803,-2,-4,5,-3,-8,-9,-13,-19
18:27:55:518335,-11,-9,5,-19,-2,3,6,16
18:27:55:526403,-13,-12,-14,-19,-10,-15,-10,-20
18:27:55:527209,-13,-12,-14,-19,-10,-15,-10,-20
18:27:55:533360,2,23,24,-8,-4,-6,-14,-18
18:27:55:549112,2,-8,1,0,-18,1,-3,4
18:27:55:549801,2,-8,1,0,-18,1,-3,4
18:27:55:555699,2,-12,-28,-15,7,-1,1,4
18:27:55:563302,-3,3,-1,-3,-6,3,7,9
18:27:55:570700,-3,3,-1,-3,-6,3,7,9
18:27:55:578274,-29,-24,-8,7,-5,7,-1,-13
18:27:55:586421,5,-1,-19,-4,4,7,1,-7
18:27:55:587224,5,-1,-19,-4,4,7,1,-7
18:27:55:593217,11,1,5,8,1,-5,-11,3
18:27:55:608888,9,9,4,6,2,2,7,17
18:27:55:609638,9,9,4,6,2,2,7,17
18:27:55:615846,12,15,27,8,0,-10,7,-2
18:27:55:623234,-8,4,5,-7,-16,8,-13,-13
18:27:55:630828,-8,4,5,-7,-16,8,-13,-13
18:27:55:638152,1,-6,-2,8,9,8,7,10
18:27:55:646510,-3,4,-10,-12,-14,-13,0,7
18:27:55:647233,-3,4,-10,-12,-14,-13,0,7
18:27:55:653251,2,9,43,16,-6,4,7,12
18:27:55:668917,-7,-6,-1,6,10,9,2,-3
18:27:55:669740,-7,-6,-1,6,10,9,2,-3
18:27:55:675668,7,-4,7,3,-12,-8,-1,3
18:27:55:683210,3,4,20,17,19,6,2,-12
18:27:55:690720,3,4,20,17,19,6,2,-12
18:27:55:698274,-1,0,-19,4,9,1,-1,3
18:27:55:706372,9,8,6,-2,28,-5,-3,-1
18:27:55:707226,9,8,6,-2,28,-5,-3,-1
18:27:55:713323,-6,-4,1,0,-5,7,-5,-7
18:27:55:729081,-1,-5,1,12,20,7,5,10
18:27:55:729758,-1,-5,1,12,20,7,5,10
18:27:55:735734,-5,-10,4,7,-5,5,-4,-17
18:27:55:743170,-1,7,4,-2,-11,3,9,1
18:27:55:750831,-1,7,4,-2,-11,3,9,1
18:27:55:758189,-1,-5,-15,0,8,3,3,5
18:27:55:766522,0,17,23,20,29,7,7,2
18:27:55:767276,0,17,23,20,29,7,7,2
18:27:55:773173,0,2,-10,-10,-1,-1,-7,3
18:27:55:788886,-6,-8,13,4,-2,-9,-2,-7
18:27:55:789669,-6,-8,13,4,-2,-9,-2,-7
18:27:55:795836,-2,-2,-4,-17,-11,-17,-12,-25
18:27:55:811474,-5,-7,-15,-11,-24,-11,-7,8
18:27:55:812305,-5,-7,-15,-11,-24,-11,-7,8
18:27:55:818216,2,-13,1,12,-5,-5,1,-2
18:27:55:826496,2,9,1,-8,-10,-11,-7,-2
18:27:55:827276,2,9,1,-8,-10,-11,-7,-2
18:27:55:833239,3,5,-3,-8,15,8,2,-16
18:27:55:849043,-2,-11,-16,-16,-3,14,4,2
18:27:55:849754,-2,-11,-16,-16,-3,14,4,2
18:27:55:855659,1,-1,-15,-12,-15,-11,-4,18
18:27:55:879620,-4,-10,-10,2,-2,-8,1,15
18:27:55:880383,-4,-10,-10,2,-2,-8,1,15
18:27:55:881209,-4,5,9,5,0,-1,2,4
18:27:55:886420,-6,-3,-8,-13,-5,-2,-1,-2
18:27:55:887248,-6,-3,-8,-13,-5,-2,-1,-2
18:27:55:893251,-3,-5,-5,12,-1,-11,-3,7
18:27:55:908883,-1,-3,5,3,-7,-3,-2,-5
18:27:55:909689,-1,-3,5,3,-7,-3,-2,-5
18:27:55:915828,-4,-13,-20,-11,-2,-9,-9,-9
18:27:55:923246,-2,6,9,2,-5,5,0,-8
18:27:55:930852,-2,6,9,2,-5,5,0,-8
18:27:55:947102,6,-2,-2,0,-3,0,5,9
18:27:55:947787,3,-14,-16,-5,-2,2,2,8
18:27:55:948656,3,-14,-16,-5,-2,2,2,8
18:27:55:953198,-18,9,-2,-18,-15,1,1,-2
18:27:55:968878,-29,-13,-9,-5,5,-3,-16,-56
18:27:55:969645,-29,-13,-9,-5,5,-3,-16,-56
18:27:55:975676,4,9,11,4,13,2,6,4
18:27:55:983270,4,9,9,-13,-3,-8,-2,7
18:27:55:990696,4,9,9,-13,-3,-8,-2,7
18:27:55:998234,-5,0,-12,4,9,8,-2,-9
18:27:56:6356,4,-9,-1,21,9,-16,-5,5
18:27:56:7225,4,-9,-1,21,9,-16,-5,5
18:27:56:13280,13,6,6,1,-28,-10,-7,9
18:27:56:28931,-12,-1,-8,5,7,-4,9,13
18:27:56:29652,-12,-1,-8,5,7,-4,9,13
18:27:56:35714,0,1,-7,0,-3,2,-2,-2
18:27:56:43192,14,-4,-4,-5,-14,3,-3,-1
18:27:56:50798,14,-4,-4,-5,-14,3,-3,-1
18:27:56:58202,-1,3,5,7,-3,1,6,2
18:27:56:66533,-1,3,5,7,-3,1,6,2
18:27:56:67352,-1,-7,-7,-5,5,-1,0,3
18:27:56:80754,2,-6,-7,-6,-35,-11,-5,-5
18:27:56:88894,2,-6,-7,-6,-35,-11,-5,-5
18:27:56:89667,4,0,-6,-17,-11,-8,-9,-21
18:27:56:95792,15,6,-13,-20,0,3,0,3
18:27:56:111435,15,6,-13,-20,0,3,0,3
18:27:56:112248,-6,-4,5,12,3,-3,-14,9
18:27:56:118231,-6,-13,-1,0,-2,-5,-5,-3
18:27:56:126379,-6,-13,-1,0,-2,-5,-5,-3
18:27:56:127282,7,10,-4,2,26,-4,-9,10
18:27:56:149635,-3,2,-9,-4,23,-9,-2,11
18:27:56:150349,-3,2,-9,-4,23,-9,-2,11
18:27:56:151129,-10,10,18,11,-10,-2,1,2
18:27:56:155641,2,8,39,26,17,3,5,-11
18:27:56:171401,2,8,39,26,17,3,5,-11
18:27:56:172216,6,-9,-2,4,-2,13,-2,-13
18:27:56:178295,-4,8,13,-8,-4,8,0,2
18:27:56:186499,-4,8,13,-8,-4,8,0,2
18:27:56:187234,0,1,-2,-3,-2,-8,4,8
18:27:56:200736,4,0,3,17,7,2,1,12
18:27:56:208964,4,0,3,17,7,2,1,12
18:27:56:209716,0,0,-5,-1,-35,5,6,4
18:27:56:223175,-8,-20,1,19,16,1,-1,-22
18:27:56:231530,-8,-20,1,19,16,1,-1,-22
18:27:56:232236,7,16,1,9,3,5,7,3
18:27:56:238174,-3,-11,-30,-15,16,6,-4,-13
18:27:56:246526,-3,-11,-30,-15,16,6,-4,-13
18:27:56:247263,-9,-12,0,3,7,4,-7,-19
18:27:56:260813,1,2,-8,-18,-1,-4,-5,-7
18:27:56:268963,1,2,-8,-18,-1,-4,-5,-7
18:27:56:269771,1,-6,-11,-16,-6,0,6,13
18:27:56:275712,10,1,7,4,15,-9,3,5
18:27:56:291530,10,1,7,4,15,-9,3,5
18:27:56:292265,4,0,2,12,-3,1,3,-5
18:27:56:298269,-3,-17,-15,-26,-28,-7,1,12
18:27:56:306415,-3,-17,-15,-26,-28,-7,1,12
18:27:56:307216,0,-7,-8,0,6,5,5,0
18:27:56:320642,-1,14,26,8,-15,-8,-4,-8
18:27:56:329062,-1,14,26,8,-15,-8,-4,-8
18:27:56:329694,-8,-16,-8,-11,-27,-7,-8,2
18:27:56:335756,-3,-3,1,2,4,11,4,21
18:27:56:351454,-3,-3,1,2,4,11,4,21
18:27:56:352332,-6,9,18,10,19,-7,0,7
18:27:56:358182,1,1,-19,-11,-4,2,2,14
18:27:56:366491,1,1,-19,-11,-4,2,2,14
18:27:56:367316,2,-3,-8,-23,-8,-23,-5,-6
18:27:56:380805,-5,-1,-9,-4,-8,-20,-1,1
18:27:56:388941,-5,-1,-9,-4,-8,-20,-1,1
18:27:56:389722,-5,9,8,0,3,21,-3,-1
18:27:56:395730,-5,-14,0,3,-14,-2,-10,-33
18:27:56:411441,-5,-14,0,3,-14,-2,-10,-33
18:27:56:412255,2,-13,-18,-6,13,7,5,2
18:27:56:427094,6,10,2,0,5,-2,-2,-3
18:27:56:427830,6,10,2,0,5,-2,-2,-3
18:27:56:428642,-6,-15,-14,-3,-1,-6,-11,-16
18:27:56:440705,3,-3,3,3,-5,12,5,5
18:27:56:448954,3,-3,3,3,-5,12,5,5
18:27:56:449704,7,9,7,-5,-20,-5,8,11
18:27:56:455693,12,-1,-6,-5,-35,0,3,5
18:27:56:471432,12,-1,-6,-5,-35,0,3,5
18:27:56:472257,-3,-13,-6,-12,-2,-19,-13,-28
18:27:56:478462,2,4,4,4,23,11,5,1
18:27:56:486388,2,4,4,4,23,11,5,1
18:27:56:487127,-7,-10,5,8,11,11,-4,-1
18:27:56:500797,-5,-3,-7,1,4,-3,-1,11
18:27:56:508925,-5,-3,-7,1,4,-3,-1,11
18:27:56:509727,-11,6,-3,3,5,-3,8,10
18:27:56:515724,-19,-5,-2,8,-19,8,-1,-11
18:27:56:531466,-19,-5,-2,8,-19,8,-1,-11
18:27:56:532260,8,-1,6,-2,-13,1,-5,-27
18:27:56:538189,-2,7,7,-2,11,5,-2,-12
18:27:56:546562,-2,7,7,-2,11,5,-2,-12
18:27:56:547243,1,0,-7,-1,15,5,6,19
18:27:56:560768,-9,-14,-22,-8,4,13,-2,3
18:27:56:568931,-9,-14,-22,-8,4,13,-2,3
18:27:56:569715,8,25,8,-8,29,5,-4,5
18:27:56:575691,1,0,22,15,-12,-10,-5,4
18:27:56:591431,1,0,22,15,-12,-10,-5,4
18:27:56:592259,2,-9,6,16,8,6,-6,-12
18:27:56:598298,-3,4,-4,-5,-3,-10,-9,-20
18:27:56:606429,-3,4,-4,-5,-3,-10,-9,-20
18:27:56:607247,-1,6,15,1,-6,-7,6,21
18:27:56:620688,-2,-8,-6,1,0,-8,1,-7
18:27:56:628922,-2,-8,-6,1,0,-8,1,-7
18:27:56:629715,-3,9,4,6,-16,-2,3,7
18:27:56:635794,-6,2,-2,9,-2,13,1,1
18:27:56:651456,-6,2,-2,9,-2,13,1,1
18:27:56:652272,-8,-4,-20,-19,3,14,9,5
18:27:56:658179,3,9,-3,-14,11,-9,-4,6
18:27:56:666450,3,9,-3,-14,11,-9,-4,6
18:27:56:667284,6,-2,3,2,-6,1,-2,7
18:27:56:680738,-10,-11,-12,-12,17,3,0,-3
18:27:56:688649,-10,-11,-12,-12,17,3,0,-3
18:27:56:696446,0,-2,-9,-14,-8,-20,-17,-14
18:27:56:697128,-1,-4,-5,-3,-15,-3,-4,-13
18:27:56:711484,-1,-4,-5,-3,-15,-3,-4,-13
18:27:56:712258,-4,-5,5,-2,1,2,0,-12
18:27:56:718144,4,10,20,13,13,-7,2,4
18:27:56:726415,4,10,20,13,13,-7,2,4
18:27:56:727258,-1,5,2,10,12,2,1,-6
18:27:56:740648,6,-4,-17,-4,13,-5,6,14
18:27:56:748964,6,-4,-17,-4,13,-5,6,14
18:27:56:749675,5,1,-6,1,-5,2,7,1
18:27:56:755664,-4,-3,9,0,-11,-5,-6,-14
18:27:56:788386,-4,-3,9,0,-11,-5,-6,-14
18:27:56:789128,-7,-2,-2,3,-6,2,-5,-10
18:27:56:790009,1,-14,-7,-2,-58,-15,-6,-3
18:27:56:790784,1,-14,-7,-2,-58,-15,-6,-3
18:27:56:793277,5,0,-3,-10,-5,-1,11,16
18:27:56:809626,-1,-2,10,1,5,-5,-13,-23
18:27:56:810379,-1,-2,10,1,5,-5,-13,-23
18:27:56:811152,1,9,19,3,-13,2,3,-2
18:27:56:815676,-5,-1,-9,-8,10,-11,4,-2
18:27:56:831538,-5,-1,-9,-8,10,-11,4,-2
18:27:56:832324,-5,6,11,0,-3,-4,-1,-15
18:27:56:838115,0,-3,-21,-23,11,7,3,0
18:27:56:846511,0,-3,-21,-23,11,7,3,0
18:27:56:847302,-1,-7,-14,-2,-19,-15,3,1
18:27:56:860778,-2,-2,6,7,-6,12,0,9
18:27:56:868934,-2,-2,6,7,-6,12,0,9
18:27:56:869672,5,0,0,-8,14,5,2,17
18:27:56:883246,0,-6,-13,-10,-20,9,0,6
18:27:56:891383,0,-6,-13,-10,-20,9,0,6
18:27:56:892245,-1,-5,-3,1,9,-1,-9,5
18:27:56:898300,1,1,-14,-12,15,2,3,15
18:27:56:906427,1,1,-14,-12,15,2,3,15
18:27:56:907258,-2,-4,-6,10,12,7,3,9
18:27:56:920723,-1,12,49,35,1,-3,2,10
18:27:56:929024,-1,12,49,35,1,-3,2,10
18:27:56:929711,-5,-7,-17,-34,-11,0,-3,-6
18:27:56:935662,10,17,35,24,10,-12,2,-2
18:27:56:951490,10,17,35,24,10,-12,2,-2
18:27:56:952202,1,11,39,50,10,10,2,-10
18:27:56:958258,-2,-2,11,1,-17,1,0,4
18:27:56:966508,-2,-2,11,1,-17,1,0,4
18:27:56:967311,-2,-11,-4,9,0,-8,-10,-11
18:27:56:980727,0,0,-26,-11,8,-1,-5,-7
18:27:56:988844,0,0,-26,-11,8,-1,-5,-7
18:27:56:989658,-2,0,9,16,32,6,0,1
18:27:56:995838,-6,-11,-6,-34,-38,-24,-4,-18
18:27:57:11461,-6,-11,-6,-34,-38,-24,-4,-18
18:27:57:12210,-4,6,8,-14,-2,3,8,-9
18:27:57:18212,-6,-5,-20,10,7,18,9,0
18:27:57:33930,-6,-5,-20,10,7,18,9,0
18:27:57:34728,-3,-9,-43,-25,-34,-4,0,8
18:27:57:40690,-4,6,10,5,38,4,1,2
18:27:57:56374,-4,6,10,5,38,4,1,2
18:27:57:57227,3,-8,-35,-19,-9,-3,-9,-7
18:27:57:63225,-1,6,27,4,1,6,0,-5
18:27:57:79586,-1,6,27,4,1,6,0,-5
18:27:57:80340,8,7,31,10,-16,-23,-3,6
18:27:57:81154,2,5,-12,-20,-23,-31,-7,5
18:27:57:85798,2,5,-12,-20,-23,-31,-7,5
18:27:57:93169,-1,-1,-4,-7,-3,3,5,-1
18:27:57:100742,-2,-13,-28,2,21,14,2,3
18:27:57:108907,-2,-13,-28,2,21,14,2,3
18:27:57:109723,-2,3,-4,5,-30,-1,-7,0
18:27:57:123175,-1,-3,-5,-4,-3,4,-3,2
18:27:57:139549,-1,-3,-5,-4,-3,4,-3,2
18:27:57:140326,0,-8,-14,15,12,-7,-4,-1
18:27:57:141132,1,-12,-37,-24,-20,-9,-7,-7
18:27:57:145848,1,-12,-37,-24,-20,-9,-7,-7
18:27:57:153215,-2,7,20,15,2,1,1,-4
18:27:57:160843,0,-3,6,-1,3,13,-2,-3
18:27:57:168980,0,-3,6,-1,3,13,-2,-3
18:27:57:169721,3,13,54,39,-1,7,3,4
18:27:57:183202,-2,-5,5,13,-20,0,-1,-4
18:27:57:191452,-2,-5,5,13,-20,0,-1,-4
18:27:57:192223,-2,-7,-17,-8,27,4,-2,13
18:27:57:198301,2,8,16,11,4,-2,3,6
18:27:57:205746,2,8,16,11,4,-2,3,6
18:27:57:213223,8,10,13,12,-12,5,9,4
18:27:57:220658,-3,-9,-25,-7,-8,12,-1,-13
18:27:57:228970,-3,-9,-25,-7,-8,12,-1,-13
18:27:57:229632,-5,-15,-30,-28,-2,-8,-14,-4
18:27:57:243784,3,10,30,18,11,4,-4,-9
18:27:57:251451,3,10,30,18,11,4,-4,-9
18:27:57:252264,-1,8,-11,-30,12,-2,3,-1
18:27:57:258189,0,-3,-11,-12,7,1,-5,1
18:27:57:265745,0,-3,-11,-12,7,1,-5,1
18:27:57:273186,2,-3,7,-1,0,-9,-1,-5
18:27:57:280763,1,2,9,17,-16,-19,-2,5
18:27:57:288864,1,2,9,17,-16,-19,-2,5
18:27:57:289644,-4,-17,-33,-29,-7,-1,-3,3
18:27:57:303256,-3,2,2,9,15,6,1,-10
18:27:57:311220,-3,2,2,9,15,6,1,-10
18:27:57:318923,-3,-3,-3,6,-6,14,2,-1
18:27:57:319683,-2,-5,-3,-14,2,7,-6,-12
18:27:57:325697,-2,-5,-3,-14,2,7,-6,-12
18:27:57:333228,-7,-7,-4,6,8,3,-2,-14
18:27:57:340654,4,-1,-4,-9,23,5,6,7
18:27:57:349031,4,-1,-4,-9,23,5,6,7
18:27:57:349669,5,3,-4,-10,-11,9,6,2
18:27:57:363322,-1,0,-13,-13,35,-6,-5,1
18:27:57:371372,-1,0,-13,-13,35,-6,-5,1
18:27:57:372138,-4,-16,-27,-45,-6,0,0,1
18:27:57:378183,-2,6,33,1,-13,5,1,-3
18:27:57:385781,-2,6,33,1,-13,5,1,-3
18:27:57:393281,5,15,44,14,-8,-3,-3,8
18:27:57:400691,-6,-14,-28,-19,-25,-3,3,1
18:27:57:416428,-6,-14,-28,-19,-25,-3,3,1
18:27:57:417277,-5,-5,4,1,-3,1,-2,-4
18:27:57:423141,-4,0,-11,-5,8,6,-7,-23
18:27:57:431460,-4,0,-11,-5,8,6,-7,-23
18:27:57:432233,-1,-2,-16,15,-20,1,-1,-5
18:27:57:438158,-4,-8,-6,13,-7,-4,1,0
18:27:57:445783,-4,-8,-6,13,-7,-4,1,0
18:27:57:453198,-2,-2,-13,4,26,-2,-6,-16
18:27:57:460691,4,4,14,16,5,-2,3,11
18:27:57:468979,4,4,14,16,5,-2,3,11
18:27:57:469649,-4,-6,4,17,7,0,9,16
18:27:57:483248,1,0,5,12,-10,-19,-6,2
18:27:57:491435,1,0,5,12,-10,-19,-6,2
18:27:57:492274,5,6,8,-5,-59,-14,-9,-4
18:27:57:498316,0,0,10,23,-5,9,2,1
18:27:57:505699,0,0,10,23,-5,9,2,1
18:27:57:521364,1,3,0,8,15,2,-2,2
18:27:57:522102,2,4,-10,-28,-14,-4,1,9
18:27:57:529015,2,4,-10,-28,-14,-4,1,9
18:27:57:529690,-4,6,26,8,24,0,-4,-24
18:27:57:543342,-2,-9,-12,-21,-9,-1,-2,-9
18:27:57:551437,-2,-9,-12,-21,-9,-1,-2,-9
18:27:57:552308,-8,-5,-26,-20,5,-10,-3,3
18:27:57:558170,0,13,27,21,6,-5,-6,4
18:27:57:565776,0,13,27,21,6,-5,-6,4
18:27:57:573199,2,-3,-16,-17,15,7,1,5
18:27:57:580777,0,-1,-7,1,9,2,2,-10
18:27:57:588862,0,-1,-7,1,9,2,2,-10
18:27:57:589626,-3,6,6,-10,-38,-1,1,-9
18:27:57:603225,2,4,7,-4,0,-1,1,6
18:27:57:611409,2,4,7,-4,0,-1,1,6
18:27:57:612253,-3,-3,18,22,6,-4,-5,-11
18:27:57:626537,-2,-4,-10,-17,-24,-19,-14,-1
18:27:57:627291,-2,-4,-10,-17,-24,-19,-14,-1
18:27:57:633207,1,-2,1,5,4,-12,-2,7
18:27:57:640668,-4,-9,-23,-10,18,14,3,4
18:27:57:648979,-4,-9,-23,-10,18,14,3,4
18:27:57:649731,-3,-6,-31,-8,30,4,-1,-6
18:27:57:663277,2,-3,-14,-7,-9,-9,6,1
18:27:57:671377,2,-3,-14,-7,-9,-9,6,1
18:27:57:672228,-1,-3,-16,-15,-5,-19,-5,3
18:27:57:678246,1,4,14,-8,1,10,2,-1
18:27:57:685784,1,4,14,-8,1,10,2,-1
18:27:57:693372,-1,-8,0,-6,12,11,2,9
18:27:57:700767,-10,-11,-16,0,-8,-17,-5,1
18:27:57:708956,-10,-11,-16,0,-8,-17,-5,1
18:27:57:709698,-2,1,-4,-3,-1,-6,-3,-2
18:27:57:723190,-5,-2,0,1,24,3,2,-6
18:27:57:731513,-5,-2,0,1,24,3,2,-6
18:27:57:732272,-4,-5,13,17,5,-8,1,5
18:27:57:738192,4,7,6,8,18,4,4,7
18:27:57:745717,4,7,6,8,18,4,4,7
18:27:57:753200,-1,-3,5,5,-35,4,-1,-3
18:27:57:760712,0,10,26,13,-1,5,-3,-3
18:27:57:768902,0,10,26,13,-1,5,-3,-3
18:27:57:769720,3,4,7,5,2,-8,-5,-12
18:27:57:792072,-3,-7,-23,-4,1,7,2,1
18:27:57:792867,-3,-7,-23,-4,1,7,2,1
18:27:57:793689,3,6,18,-2,25,-4,-4,-1
18:27:57:798301,-1,-3,-2,-3,-12,-5,-3,-2
18:27:57:805698,-1,-3,-2,-3,-12,-5,-3,-2
18:27:57:813339,-2,-8,-41,-18,-6,3,-1,5
18:27:57:820710,0,-4,2,0,-24,1,-4,-6
18:27:57:828980,0,-4,2,0,-24,1,-4,-6
18:27:57:829666,-2,-3,6,-3,-12,8,-2,-7
18:27:57:843150,3,2,-5,8,8,-5,0,2
18:27:57:851413,3,2,-5,8,8,-5,0,2
18:27:57:852168,-8,-4,-6,-13,-12,7,-3,0
18:27:57:858190,-2,-1,-3,-1,10,3,2,1
18:27:57:865860,-2,-1,-3,-1,10,3,2,1
18:27:57:873158,-3,0,25,-5,-3,-3,0,-5
18:27:57:880719,0,-5,-9,8,-10,-8,-8,-1
18:27:57:888894,0,-5,-9,8,-10,-8,-8,-1
18:27:57:889674,1,-3,-14,2,6,16,2,-2
18:27:57:903696,0,7,32,9,-2,2,0,-1
18:27:57:911395,0,7,32,9,-2,2,0,-1
18:27:57:912134,2,6,10,11,9,-12,1,1
18:27:57:918196,0,-2,-3,0,36,12,5,0
18:27:57:925831,0,-2,-3,0,36,12,5,0
18:27:57:933171,1,8,16,14,-1,2,3,-7
18:27:57:940632,1,-1,-23,-12,-13,-24,-4,7
18:27:57:948920,1,-1,-23,-12,-13,-24,-4,7
18:27:57:949668,0,-4,-24,-6,2,-1,-4,4
18:27:57:963227,2,-3,-10,-8,-14,4,-2,-1
18:27:57:971383,2,-3,-10,-8,-14,4,-2,-1
18:27:57:972232,-1,-7,-20,-15,1,-4,-2,4
18:27:57:986390,-1,1,1,4,-47,-14,3,-10
18:27:57:987134,-1,1,1,4,-47,-14,3,-10
18:27:57:993310,-1,-8,-29,-21,-1,4,-6,-2
18:27:58:8888,2,4,0,-15,19,12,2,4
18:27:58:9801,2,4,0,-15,19,12,2,4
18:27:58:15792,-4,-5,0,2,14,11,7,-2
18:27:58:32127,-1,1,2,8,7,-1,2,-6
18:27:58:32837,-1,1,2,8,7,-1,2,-6
18:27:58:33659,2,-3,5,-10,-39,-4,-1,8
18:27:58:46506,0,-5,1,4,9,-22,-3,1
18:27:58:47292,0,-5,1,4,9,-22,-3,1
18:27:58:53276,3,11,33,20,-1,-4,2,3
18:27:58:68947,-3,-1,7,-15,-11,-9,-9,-5
18:27:58:69755,-3,-1,7,-15,-11,-9,-9,-5
18:27:58:75690,0,-1,-2,2,14,-1,2,-2
18:27:58:83223,5,6,20,-3,25,2,5,13
18:27:58:91382,5,6,20,-3,25,2,5,13
18:27:58:92242,1,-5,-13,-13,-5,5,2,3
18:27:58:106353,-4,-7,-18,5,-3,-2,-2,-5
18:27:58:107233,-4,-7,-18,5,-3,-2,-2,-5
18:27:58:113285,-1,4,-1,1,17,4,-2,-2
18:27:58:120695,-4,-10,-22,-29,-38,-11,-3,-4
18:27:58:128350,-4,-10,-22,-29,-38,-11,-3,-4
18:27:58:135694,1,1,3,17,-38,-21,-8,-4
18:27:58:143310,-6,-6,-16,3,24,21,2,1
18:27:58:151512,-6,-6,-16,3,24,21,2,1
18:27:58:152286,-1,8,15,5,-9,-10,0,1
18:27:58:166824,2,2,3,7,-8,5,2,9
18:27:58:173909,2,2,3,7,-8,5,2,9
18:27:58:174703,-1,1,-6,12,26,-13,2,4
18:27:58:180833,-2,-6,-23,-17,-2,0,-4,-5
18:27:58:188264,-2,-6,-23,-17,-2,0,-4,-5
18:27:58:195717,-1,-4,-4,0,-3,3,4,-3
18:27:58:203258,1,4,14,-1,14,-11,-3,0
18:27:58:211544,1,4,14,-1,14,-11,-3,0
18:27:58:212212,-1,0,45,28,19,11,-3,-8
18:27:58:226361,-5,-4,6,10,-5,1,-1,-4
18:27:58:227152,-5,-4,6,10,-5,1,-1,-4
18:27:58:233283,-3,-1,-10,-4,8,-6,-1,1
18:27:58:240678,6,1,0,11,-9,-10,1,5
18:27:58:248253,6,1,0,11,-9,-10,1,5
18:27:58:255639,-8,-8,1,-4,-12,7,-5,-7
18:27:58:263231,-6,-5,-7,-4,-10,12,-5,-8
18:27:58:271370,-6,-5,-7,-4,-10,12,-5,-8
18:27:58:272129,-6,-7,-15,0,3,11,2,0
18:27:58:286886,-3,5,11,-2,-18,3,-8,-4
18:27:58:287616,-3,5,11,-2,-18,3,-8,-4
18:27:58:293274,4,5,-15,-8,-15,-18,4,0
18:27:58:300763,-4,-9,-11,-8,-3,4,-2,-4
18:27:58:308326,-4,-9,-11,-8,-3,4,-2,-4
18:27:58:315826,-1,-1,-6,-10,17,4,-5,0
18:27:58:323132,-1,1,2,-9,10,12,2,-2
18:27:58:331502,-1,1,2,-9,10,12,2,-2
18:27:58:332394,3,3,5,-6,-1,2,-2,3
18:27:58:346452,-6,4,21,13,27,-3,-1,-2
18:27:58:347289,-6,4,21,13,27,-3,-1,-2
18:27:58:353148,-2,-9,-20,-3,2,12,2,-2
18:27:58:360677,3,6,20,6,-15,1,8,5
18:27:58:368317,3,6,20,6,-15,1,8,5
18:27:58:375711,2,8,27,23,-12,-7,-6,0
18:27:58:383186,-5,-12,-40,-36,-30,2,-6,-14
18:27:58:391389,-5,-12,-40,-36,-30,2,-6,-14
18:27:58:392294,-2,5,10,-14,6,-19,-14,-3
18:27:58:406371,-5,-9,-25,-10,19,0,-4,-2
18:27:58:407236,-5,-9,-25,-10,19,0,-4,-2
18:27:58:413304,-10,-14,-25,-3,22,4,1,-1
18:27:58:420646,2,3,-10,14,6,-4,4,0
18:27:58:428400,2,3,-10,14,6,-4,4,0
18:27:58:435726,1,3,7,5,14,6,5,9
18:27:58:443281,0,-3,1,-12,-22,14,3,0
18:27:58:452066,0,-3,1,-12,-22,14,3,0
18:27:58:452889,-3,-6,-10,-7,-1,14,2,-7
18:27:58:466411,5,8,8,0,-14,6,-2,0
18:27:58:467295,5,8,8,0,-14,6,-2,0
18:27:58:473184,9,6,-31,-22,2,-4,7,7
18:27:58:480789,1,1,-2,-1,20,2,-2,5
18:27:58:488282,1,1,-2,-1,20,2,-2,5
18:27:58:495744,-1,1,15,6,11,-14,1,-7
18:27:58:503203,1,8,6,9,1,-19,-3,-1
18:27:58:511438,1,8,6,9,1,-19,-3,-1
18:27:58:512186,3,1,-4,-5,-10,0,-1,3
18:27:58:526376,4,1,9,8,5,-3,0,1
18:27:58:527173,4,1,9,8,5,-3,0,1
18:27:58:533224,-7,-13,-5,-7,-24,22,3,-5
18:27:58:540700,-2,-7,-9,-2,22,4,0,0
18:27:58:548356,-2,-7,-9,-2,22,4,0,0
18:27:58:555646,-5,6,8,-8,26,0,-4,-7
18:27:58:563324,-3,0,9,12,-3,-5,-2,-4
18:27:58:571357,-3,0,9,12,-3,-5,-2,-4
18:27:58:572148,-4,-1,10,11,3,-6,1,-19
18:27:58:586407,2,3,15,12,0,-8,2,1
18:27:58:587151,2,3,15,12,0,-8,2,1
18:27:58:593146,3,2,-18,-16,-37,-3,-5,5
18:27:58:600696,-7,-16,-12,-25,-13,16,-4,0
18:27:58:608275,-7,-16,-12,-25,-13,16,-4,0
18:27:58:624547,4,3,-17,-26,-1,0,0,5
18:27:58:625293,-1,-5,0,-1,-9,0,4,8
18:27:58:626138,-1,-5,0,-1,-9,0,4,8
18:27:58:630695,-4,-6,1,13,3,-6,-3,1
18:27:58:646373,-5,-10,-5,-4,4,11,0,-4
18:27:58:647165,-5,-10,-5,-4,4,11,0,-4
18:27:58:653230,-1,2,1,19,9,-6,2,3
18:27:58:660719,-2,1,-2,9,-1,-13,-5,-10
18:27:58:668274,-2,1,-2,9,-1,-13,-5,-10
18:27:58:675684,-1,-4,-5,-5,-12,5,1,7
18:27:58:683195,8,11,32,-3,-25,-3,4,11
18:27:58:691474,8,11,32,-3,-25,-3,4,11
18:27:58:692148,5,8,-6,-13,4,-5,-4,-3
18:27:58:706359,-4,1,3,9,-8,-21,-4,-5
18:27:58:707147,-4,1,3,9,-8,-21,-4,-5
18:27:58:713247,0,2,11,25,-7,-6,-1,4
18:27:58:720631,1,2,-4,5,10,-17,-5,0
18:27:58:728374,1,2,-4,5,10,-17,-5,0
18:27:58:735676,1,2,3,3,0,9,3,1
18:27:58:743859,-1,-4,-25,-17,10,6,-3,3
18:27:58:744716,-1,-4,-25,-17,10,6,-3,3
18:27:58:750695,-7,-10,0,3,0,-1,-5,6
18:27:58:766459,-5,-14,-22,-1,-11,7,-7,-7
18:27:58:767200,-5,-14,-22,-1,-11,7,-7,-7
18:27:58:773122,2,-4,-6,-16,-14,-2,-2,-4
18:27:58:780686,-4,0,1,0,6,3,2,-3
18:27:58:788262,-4,0,1,0,6,3,2,-3
18:27:58:795707,-3,1,10,0,-25,-19,-12,-10
18:27:58:803892,-1,8,17,-7,1,16,0,4
18:27:58:804728,-1,8,17,-7,1,16,0,4
18:27:58:810707,1,-2,1,-4,-33,-9,1,-5
18:27:58:826383,-2,4,17,0,9,7,0,-1
18:27:58:827266,-2,4,17,0,9,7,0,-1
18:27:58:833190,-3,0,25,4,2,-15,-7,-1
18:27:58:840666,0,5,2,-1,-32,-11,5,-8
18:27:58:856385,0,5,2,-1,-32,-11,5,-8
18:27:58:857251,0,-1,-1,1,-6,8,9,-1
18:27:58:864655,4,4,6,8,-12,-14,-5,1
18:27:58:865329,4,4,6,8,-12,-14,-5,1
18:27:58:870654,1,1,-3,7,19,-18,-7,-8
18:27:58:886414,-1,-4,-5,5,18,2,-1,-4
18:27:58:887279,-1,-4,-5,5,18,2,-1,-4
18:27:58:893234,-5,-8,-8,5,8,15,-3,-1
18:27:58:900687,-3,0,1,2,35,0,2,2
18:27:58:908284,-3,0,1,2,35,0,2,2
18:27:58:915807,-1,2,-14,-16,20,-1,-2,5
18:27:58:923938,-5,-8,-12,-17,-2,20,2,-1
18:27:58:924752,-5,-8,-12,-17,-2,20,2,-1
18:27:58:938151,0,-2,-8,-13,15,11,9,6
18:27:58:946491,-4,-8,2,7,-34,-17,-7,-7
18:27:58:947311,-4,-8,2,7,-34,-17,-7,-7
18:27:58:953169,-4,-6,9,-5,-28,1,-1,-2
18:27:58:968897,-4,-8,-9,-11,-9,-19,0,-4
18:27:58:969682,-4,-8,-9,-11,-9,-19,0,-4
18:27:58:975678,2,-1,-4,1,4,-11,2,7
18:27:58:983213,1,1,-5,-1,0,-10,-8,3
18:27:58:990733,1,1,-5,-1,0,-10,-8,3
18:27:58:998266,-5,-11,-3,5,1,2,-9,-9
18:27:59:6310,1,3,-12,22,-9,-2,-9,-6
18:27:59:7119,1,3,-12,22,-9,-2,-9,-6
18:27:59:13291,-1,-8,-12,4,8,11,1,-5
18:27:59:29463,1,-7,-13,5,6,8,1,-2
18:27:59:30179,1,-7,-13,5,6,8,1,-2
18:27:59:35686,-1,-2,0,-6,-15,-16,-6,-6
18:27:59:43917,1,5,14,1,10,1,5,5
18:27:59:44710,1,5,14,1,10,1,5,5
18:27:59:58179,7,7,6,-3,-4,-6,6,2
18:27:59:66500,5,13,31,8,-20,2,-2,10
18:27:59:67328,5,13,31,8,-20,2,-2,10
18:27:59:73160,-2,4,0,-1,-3,14,8,11
18:27:59:88877,-2,-12,-41,-17,-2,10,7,4
18:27:59:89666,-2,-12,-41,-17,-2,10,7,4
18:27:59:95783,-3,5,26,12,-18,-5,-9,-11
18:27:59:103860,-4,-4,-11,-10,36,-12,-8,-8
18:27:59:104695,-4,-4,-11,-10,36,-12,-8,-8
18:27:59:118185,-4,-11,-15,8,11,7,-3,-6
18:27:59:134565,-1,-10,-22,-7,-26,-8,-6,-9
18:27:59:135340,-1,-10,-22,-7,-26,-8,-6,-9
18:27:59:136156,1,5,21,25,2,-26,-11,-3
18:27:59:148989,1,-1,-8,-7,7,1,-4,2
18:27:59:149704,1,-1,-8,-7,7,1,-4,2
18:27:59:155696,-3,-11,-8,3,2,3,2,7
18:27:59:163900,-1,4,-1,-9,14,-28,-14,-5
18:27:59:164645,-1,4,-1,-9,14,-28,-14,-5
18:27:59:178177,1,-5,-17,-21,1,-1,2,3
18:27:59:186482,7,7,7,3,17,25,22,24
18:27:59:187133,7,7,7,3,17,25,22,24
18:27:59:193336,-1,-7,-8,-32,-1,-22,-10,-8
18:27:59:209497,-1,1,-11,5,10,6,0,1
18:27:59:210154,-1,1,-11,5,10,6,0,1
18:27:59:215713,2,9,1,5,-4,13,3,-3
18:27:59:223868,-4,-6,2,25,-2,3,-3,1
18:27:59:224660,-4,-6,2,25,-2,3,-3,1
18:27:59:238168,-3,-7,-12,1,-12,-9,-7,-15
18:27:59:247113,8,15,18,12,7,-15,6,2
18:27:59:247791,8,15,18,12,7,-15,6,2
18:27:59:253177,-3,3,-1,-11,-6,18,7,-7
18:27:59:268907,-1,-2,10,-4,-28,15,-4,-15
18:27:59:269717,-1,-2,10,-4,-28,15,-4,-15
18:27:59:275670,3,6,8,-1,25,-16,-4,7
18:27:59:283242,-3,-10,-17,-27,-4,-1,1,-4
18:27:59:290712,-3,-10,-17,-27,-4,-1,1,-4
18:27:59:298285,-2,10,16,-6,2,11,8,3
18:27:59:306808,-7,-10,-8,0,2,3,-9,-5
18:27:59:313970,-7,-10,-8,0,2,3,-9,-5
18:27:59:314667,0,4,6,17,19,-6,7,9
18:27:59:328926,-9,-10,15,-11,10,4,2,-15
18:27:59:329748,-9,-10,15,-11,10,4,2,-15
18:27:59:335720,-7,-11,-10,-4,9,19,-1,-1
18:27:59:351468,-7,-11,-10,-4,9,19,-1,-1
18:27:59:352281,-7,-1,-2,12,-2,-32,-14,-20
18:27:59:358189,-2,-1,-5,-1,11,5,-2,-5
18:27:59:366404,-2,-1,-5,-1,11,5,-2,-5
18:27:59:367163,-3,-2,16,-11,20,19,-2,1
18:27:59:373177,0,0,-11,-8,6,-11,0,-10
18:27:59:388898,0,0,-11,-8,6,-11,0,-10
18:27:59:389634,2,-2,-11,-11,-28,7,10,7
18:27:59:395765,3,-3,-16,-5,-8,9,0,1
18:27:59:411432,3,-3,-16,-5,-8,9,0,1
18:27:59:412237,0,6,13,15,31,-29,-7,-9
18:27:59:418193,-3,-8,-13,-23,-11,-2,-10,-15
18:27:59:426343,-3,-8,-13,-23,-11,-2,-10,-15
18:27:59:427132,1,0,8,1,-14,3,-1,3
18:27:59:433211,-7,-1,8,11,1,5,-4,2
18:27:59:457053,-7,-1,8,11,1,5,-4,2
18:27:59:457833,5,2,-12,-5,27,-5,5,12
18:27:59:458640,-1,-1,20,-6,-16,3,2,4
18:27:59:471382,-1,-1,20,-6,-16,3,2,4
18:27:59:472172,-5,13,22,15,-35,-2,-1,-1
18:27:59:478171,4,2,-8,-4,5,-2,-7,4
18:27:59:486417,4,2,-8,-4,5,-2,-7,4
18:27:59:487139,0,-2,-1,1,-22,8,1,-7
18:27:59:493279,-1,0,8,1,-2,-4,-1,-1
18:27:59:508895,-1,0,8,1,-2,-4,-1,-1
18:27:59:509647,-4,-6,-13,-8,-2,11,2,-6
18:27:59:515717,-2,-2,-6,-8,-46,-23,-11,-13
18:27:59:531500,-2,-2,-6,-8,-46,-23,-11,-13
18:27:59:532183,5,9,19,4,-5,-9,-1,4
18:27:59:538120,5,10,0,16,1,5,8,-9
18:27:59:546407,5,10,0,16,1,5,8,-9
18:27:59:547209,-5,-7,-4,-28,-12,14,-1,0
18:27:59:553189,-3,-6,-4,-11,18,-5,-11,1
18:27:59:568904,-3,-6,-4,-11,18,-5,-11,1
18:27:59:569706,1,-4,-22,-8,5,-18,-3,5
18:27:59:575642,-4,-10,-5,13,14,10,6,4
18:27:59:599586,-4,-10,-5,13,14,10,6,4
18:27:59:600362,-5,-6,-12,3,0,0,-3,-1
18:27:59:601178,3,-1,-4,6,17,-32,-3,5
18:27:59:606438,3,-1,-4,6,17,-32,-3,5
18:27:59:607289,4,5,-7,16,5,-4,11,13
18:27:59:613259,6,6,9,5,-3,10,12,15
18:27:59:628915,6,6,9,5,-3,10,12,15
18:27:59:629684,-1,-4,0,-2,-7,-3,-8,5
18:27:59:635846,-7,-8,-15,-13,-34,-4,-7,-7
18:27:59:651406,-7,-8,-15,-13,-34,-4,-7,-7
18:27:59:652263,-3,-4,-8,-19,-25,-5,-2,-3
18:27:59:658142,-2,-6,12,6,-20,6,-8,-1
18:27:59:666467,-2,-6,12,6,-20,6,-8,-1
18:27:59:667273,1,3,-1,-8,13,8,5,-3
18:27:59:673171,0,1,-3,0,-1,18,8,-4
18:27:59:688881,0,1,-3,0,-1,18,8,-4
18:27:59:689672,-2,4,14,-1,14,-4,-3,1
18:27:59:695838,1,4,-4,0,6,6,6,8
18:27:59:711454,1,4,-4,0,6,6,6,8
18:27:59:712186,1,-6,2,3,8,-6,2,-2
18:27:59:718187,2,5,5,-2,14,-10,4,-3
18:27:59:726600,2,5,5,-2,14,-10,4,-3
18:27:59:727294,-2,1,7,21,-1,-6,1,-13
18:27:59:733221,-4,-1,4,2,15,22,-4,-5
18:27:59:748945,-4,-1,4,2,15,22,-4,-5
18:27:59:749713,-4,-9,-27,-5,-18,10,-5,-7
18:27:59:755644,0,8,10,-14,-20,-10,-9,-3
18:27:59:771384,0,8,10,-14,-20,-10,-9,-3
18:27:59:772150,0,0,11,-5,5,3,-1,1
18:27:59:778221,0,-9,4,10,9,9,5,6
18:27:59:786440,0,-9,4,10,9,9,5,6
18:27:59:787211,2,16,-14,-20,22,0,-2,-5
18:27:59:793350,-2,-6,0,2,-8,2,-2,-3
18:27:59:808910,-2,-6,0,2,-8,2,-2,-3
18:27:59:809685,0,0,-2,10,10,-20,-22,-5
18:27:59:815705,0,2,0,-7,-5,-3,8,0
18:27:59:831501,0,2,0,-7,-5,-3,8,0
18:27:59:832228,-7,-9,2,-9,-2,12,8,-2
18:27:59:838141,-1,-2,12,16,-10,-6,-2,0
18:27:59:846474,-1,-2,12,16,-10,-6,-2,0
18:27:59:847155,-5,-14,-4,2,-9,-13,0,-12
18:27:59:853152,1,-1,-20,-25,-1,10,4,6
18:27:59:868930,1,-1,-20,-25,-1,10,4,6
18:27:59:869706,3,2,-15,-2,-2,8,5,14
18:27:59:875626,-6,-4,0,0,-16,-23,-11,-9
18:27:59:891364,-6,-4,0,0,-16,-23,-11,-9
18:27:59:892129,-2,-1,3,6,-4,6,-4,-11
18:27:59:898388,2,-5,-18,-1,12,-20,-3,10
18:27:59:906415,2,-5,-18,-1,12,-20,-3,10
18:27:59:907188,-2,1,15,13,11,12,3,22
18:27:59:920722,-3,0,-6,-2,2,1,-9,-7
18:27:59:928932,-3,0,-6,-2,2,1,-9,-7
18:27:59:929726,5,8,2,-6,6,-4,-2,-5
18:27:59:935841,4,0,-12,4,21,-38,-9,2
18:27:59:943222,4,0,-12,4,21,-38,-9,2
18:27:59:950784,2,3,15,-1,-14,15,8,6
18:27:59:958190,-2,-1,-3,-3,4,12,7,-4
18:27:59:966474,-2,-1,-3,-3,4,12,7,-4
18:27:59:967228,2,-6,-13,13,12,-5,4,3
18:27:59:980749,-4,2,11,6,-17,-4,-1,5
18:27:59:988882,-4,2,11,6,-17,-4,-1,5
18:27:59:989634,-2,-5,13,4,-1,17,0,-2
18:27:59:995738,-5,-7,-12,10,18,0,-4,-17
18:28:00:3471,-5,-7,-12,10,18,0,-4,-17
18:28:00:10743,-5,-4,1,-17,0,-1,-1,-19
18:28:00:18214,3,4,4,-13,-2,18,15,13
18:28:00:26517,3,4,4,-13,-2,18,15,13
18:28:00:27226,-4,-6,2,-4,-16,3,-2,-2
18:28:00:40665,-2,-4,6,-1,-38,-8,2,2
18:28:00:48974,-2,-4,6,-1,-38,-8,2,2
18:28:00:49742,0,5,15,-3,-10,-9,2,2
18:28:00:55647,-2,-4,-24,-19,-33,6,-1,2
18:28:00:63452,-2,-4,-24,-19,-33,6,-1,2
18:28:00:70665,-3,-6,-12,-5,-44,-16,-6,-3
18:28:00:78307,-1,2,7,15,19,12,-6,-41
18:28:00:86452,-1,2,7,15,19,12,-6,-41
18:28:00:87261,-5,-9,-7,0,8,13,3,10
18:28:00:100664,-3,-2,-7,-1,48,-2,2,3
18:28:00:108696,-3,-2,-7,-1,48,-2,2,3
18:28:00:116458,2,0,-5,-6,-24,-3,-1,2
18:28:00:117130,7,7,18,3,-4,6,7,0
18:28:00:123265,7,7,18,3,-4,6,7,0
18:28:00:130799,3,5,-8,4,4,-20,-5,7
18:28:00:138182,-2,-4,-9,-3,-12,1,3,9
18:28:00:153937,-2,-4,-9,-3,-12,1,3,9
18:28:00:154678,1,4,3,5,21,-3,-6,-1
18:28:00:160790,-5,-4,1,5,-8,-13,-12,-5
18:28:00:168937,-5,-4,1,5,-8,-13,-12,-5
18:28:00:169693,0,-8,-18,-11,4,20,4,7
18:28:00:175687,-2,-7,0,1,9,-12,-5,14
18:28:00:183354,-2,-7,0,1,9,-12,-5,14
18:28:00:190634,-1,-4,-6,-7,-4,4,5,-10
18:28:00:198236,1,3,1,-10,-4,-5,-7,-1
18:28:00:206377,1,3,1,-10,-4,-5,-7,-1
18:28:00:207156,4,0,4,6,-9,-13,-5,1
18:28:00:220703,1,5,-11,-15,0,9,5,6
18:28:00:229074,1,5,-11,-15,0,9,5,6
18:28:00:229661,-5,2,1,-9,33,15,-3,-10
18:28:00:235686,3,1,-8,3,-5,0,-11,-7
18:28:00:243214,3,1,-8,3,-5,0,-11,-7
18:28:00:258918,2,7,2,-16,-12,-8,-2,-2
18:28:00:259645,15,0,-4,-8,4,-3,2,-8
18:28:00:266459,15,0,-4,-8,4,-3,2,-8
18:28:00:267177,-1,2,6,13,3,-6,-7,-10
18:28:00:289540,-7,-5,0,1,-10,2,-1,-3
18:28:00:290339,-7,-5,0,1,-10,2,-1,-3
18:28:00:291165,-8,-16,-9,7,-1,-2,1,-11
18:28:00:295661,-3,-3,0,9,-2,0,0,8
18:28:00:303350,-3,-3,0,9,-2,0,0,8
18:28:00:310812,12,-6,-16,-10,-3,-6,1,17
18:28:00:318208,-6,-8,-5,-5,-32,-4,3,-4
18:28:00:326533,-6,-8,-5,-5,-32,-4,3,-4
18:28:00:327141,-27,-2,11,4,6,2,1,-11
18:28:00:340704,17,12,15,11,-15,1,6,-1
18:28:00:348955,17,12,15,11,-15,1,6,-1
18:28:00:349668,3,-5,-4,5,-6,-7,-5,-14
18:28:00:363907,-10,-7,-9,-2,7,-4,-1,19
18:28:00:364671,-10,-7,-9,-2,7,-4,-1,19
18:28:00:370657,3,2,2,1,6,-10,6,5
18:28:00:378286,0,-4,-3,0,1,-5,-4,6
18:28:00:386388,0,-4,-3,0,1,-5,-4,6
18:28:00:387145,-1,5,6,-3,-3,1,-4,4
18:28:00:400685,-15,2,-7,-17,-2,2,-6,-17
18:28:00:408933,-15,2,-7,-17,-2,2,-6,-17
18:28:00:409689,-14,3,-4,8,0,0,-2,0
18:28:00:415717,0,4,7,10,11,-1,-5,-10
18:28:00:423193,0,4,7,10,11,-1,-5,-10
18:28:00:430809,8,1,3,4,6,10,10,21
18:28:00:438192,0,0,6,1,14,3,-1,8
18:28:00:446477,0,0,6,1,14,3,-1,8
18:28:00:447206,16,1,-3,-11,-5,-1,3,2
18:28:00:460809,13,-3,-10,-11,4,0,4,2
18:28:00:468898,13,-3,-10,-11,4,0,4,2
18:28:00:469645,-2,-7,-8,5,-7,-5,-8,-6
18:28:00:475656,4,8,13,-9,-1,1,-1,12
18:28:00:483261,4,8,13,-9,-1,1,-1,12
18:28:00:490678,4,3,0,4,3,5,0,4
18:28:00:498240,-25,-8,-4,2,-39,7,1,-10
18:28:00:506394,-25,-8,-4,2,-39,7,1,-10
18:28:00:507172,0,0,5,-6,1,-4,-1,4
18:28:00:520672,-11,7,11,8,16,5,0,3
18:28:00:529372,-11,7,11,8,16,5,0,3
18:28:00:536317,-11,-2,14,3,-6,-9,-6,-6
18:28:00:537117,-3,-14,-12,6,4,-5,-4,-22
18:28:00:543284,-3,-14,-12,6,4,-5,-4,-22
18:28:00:550700,-9,-5,5,-20,-5,7,3,4
18:28:00:567063,-3,-7,-8,-1,-10,-6,-5,-17
18:28:00:567814,-3,-7,-8,-1,-10,-6,-5,-17
18:28:00:568681,8,-3,-21,-4,-11,7,-2,-4
18:28:00:580817,26,6,2,-5,-7,0,0,3
18:28:00:588860,26,6,2,-5,-7,0,0,3
18:28:00:589628,-4,1,-2,3,16,1,-5,-17
18:28:00:595833,3,-4,-5,-1,6,-15,-1,0
18:28:00:603289,3,-4,-5,-1,6,-15,-1,0
18:28:00:610767,-3,-4,3,-3,1,-15,-20,-8
18:28:00:618163,22,6,2,0,2,4,-2,13
18:28:00:626386,22,6,2,0,2,4,-2,13
18:28:00:627190,-28,-14,2,9,-1,-2,2,6
18:28:00:640640,10,3,2,3,6,10,-8,-9
18:28:00:649020,10,3,2,3,6,10,-8,-9
18:28:00:649656,9,0,-22,-7,-2,3,-2,-31
18:28:00:655642,-81,-8,-10,-3,9,6,5,3
18:28:00:663409,-81,-8,-10,-3,9,6,5,3
18:28:00:670664,20,2,4,2,-7,-1,1,4
18:28:00:678249,1,1,-8,-20,-1,-4,-1,-6
18:28:00:686400,1,1,-8,-20,-1,-4,-1,-6
18:28:00:687248,5,0,0,-3,8,-11,2,-7
18:28:00:700651,-3,-6,4,2,-6,-9,-8,-19
18:28:00:708908,-3,-6,4,2,-6,-9,-8,-19
18:28:00:709665,11,9,5,6,3,14,7,13
18:28:00:715821,6,-3,-3,0,3,-2,9,24
18:28:00:731473,6,-3,-3,0,3,-2,9,24
18:28:00:732239,-7,-2,2,1,-3,2,-1,3
18:28:00:738176,13,-4,-4,0,4,8,-1,7
18:28:00:746446,13,-4,-4,0,4,8,-1,7
18:28:00:747186,-15,-1,-11,-10,-6,7,-1,-8
18:28:00:760635,-4,-8,-6,1,3,2,-5,-6
18:28:00:777074,-4,-8,-6,1,3,2,-5,-6
18:28:00:777799,-3,-5,0,6,-4,-15,-4,3
18:28:00:778665,3,3,-12,8,4,-7,-10,-17
18:28:00:791408,3,3,-12,8,4,-7,-10,-17
18:28:00:792179,-2,-1,2,-2,-6,-1,-9,-2
18:28:00:798304,-1,2,21,-4,-3,-1,4,-2
18:28:00:814036,-1,2,21,-4,-3,-1,4,-2
18:28:00:814729,-26,3,9,13,15,5,1,0
18:28:00:820666,-20,-3,13,2,-17,-2,0,-13
18:28:00:828974,-20,-3,13,2,-17,-2,0,-13
18:28:00:829623,-5,0,2,-4,-3,-8,4,1
18:28:00:843831,19,0,5,4,-13,16,1,5
18:28:00:844650,19,0,5,4,-13,16,1,5
18:28:00:850699,-6,-14,-17,-4,-12,-6,-14,-9
18:28:00:858229,2,-1,8,6,-1,-21,-1,6
18:28:00:865818,2,-1,8,6,-1,-21,-1,6
18:28:00:873194,-2,5,18,9,7,4,13,37
18:28:00:880744,8,5,2,-1,14,-3,11,13
18:28:00:888859,8,5,2,-1,14,-3,11,13
18:28:00:889624,0,-4,3,1,3,-16,-12,-19
18:28:00:903871,-3,6,-5,9,3,6,1,2
18:28:00:904644,-3,6,-5,9,3,6,1,2
18:28:00:910766,16,1,-5,-6,0,-9,3,-10
18:28:00:918363,-1,3,-1,-4,3,1,6,15
18:28:00:925741,-1,3,-1,-4,3,1,6,15
18:28:00:933182,-16,6,15,2,-9,-8,9,25
18:28:00:940641,5,7,3,2,8,7,-2,-4
18:28:00:948934,5,7,3,2,8,7,-2,-4
18:28:00:949689,4,3,1,7,5,4,-2,3
18:28:00:964009,-21,-16,-15,-9,32,-3,-2,-2
18:28:00:964765,-21,-16,-15,-9,32,-3,-2,-2
18:28:00:970662,-9,-1,-14,-11,-8,-17,-15,-25
18:28:00:978169,-3,-9,-5,-1,-11,-4,-18,-24
18:28:00:985779,-3,-9,-5,-1,-11,-4,-18,-24
18:28:00:993309,20,-3,1,-6,-27,-2,1,-1
18:28:01:714,9,6,-1,-6,-13,19,0,0
18:28:01:8888,9,6,-1,-6,-13,19,0,0
18:28:01:9676,-4,-7,-11,-14,-2,10,2,-9
18:28:01:23895,-2,-2,-12,-12,-12,2,-4,7
18:28:01:24691,-2,-2,-12,-12,-12,2,-4,7
18:28:01:30771,6,-9,-8,-3,2,13,1,10
18:28:01:38154,1,4,-4,-5,4,-7,1,6
18:28:01:45820,1,4,-4,-5,4,-7,1,6
18:28:01:53162,-3,-4,1,4,10,7,4,9
18:28:01:60824,9,0,4,3,-13,-21,-12,21
18:28:01:68949,9,0,4,3,-13,-21,-12,21
18:28:01:69750,6,4,1,-5,1,-15,-6,-6
18:28:01:83944,4,0,-2,-2,11,6,10,0
18:28:01:84755,4,0,-2,-2,11,6,10,0
18:28:01:90670,-15,-3,-7,-9,6,3,-2,0
18:28:01:98302,-25,-4,4,3,6,0,4,-4
18:28:01:105729,-25,-4,4,3,6,0,4,-4
18:28:01:113316,-24,-4,-3,-2,0,5,-3,-14
18:28:01:120715,-14,-2,5,5,11,1,-7,-33
18:28:01:129059,-14,-2,5,5,11,1,-7,-33
18:28:01:129708,7,8,-6,-11,-14,10,5,9
18:28:01:143979,-5,-6,-4,-14,-61,-20,-1,-4
18:28:01:144663,-5,-6,-4,-14,-61,-20,-1,-4
18:28:01:150722,14,5,-8,-4,10,-13,-4,4
18:28:01:158202,-3,0,-6,3,10,-1,-1,-11
18:28:01:165788,-3,0,-6,3,10,-1,-1,-11
18:28:01:173196,20,-6,5,6,-3,-1,-4,-5
18:28:01:180810,34,-4,-9,-4,8,-5,-7,-16
18:28:01:188881,34,-4,-9,-4,8,-5,-7,-16
18:28:01:189654,0,3,2,13,5,-4,-5,-3
18:28:01:203832,3,7,12,-3,7,8,4,-1
18:28:01:204615,3,7,12,-3,7,8,4,-1
18:28:01:210664,-25,2,14,6,-3,-2,5,9
18:28:01:218293,-32,1,-3,-2,9,-2,-1,-3
18:28:01:225706,-32,1,-3,-2,9,-2,-1,-3
18:28:01:233244,0,-7,0,-6,-25,-8,-11,2
18:28:01:240629,10,-1,7,7,-6,-3,-1,29
18:28:01:248955,10,-1,7,7,-6,-3,-1,29
18:28:01:249755,6,8,16,11,11,-9,1,-15
18:28:01:263981,10,-4,-5,2,-6,7,7,11
18:28:01:264671,10,-4,-5,2,-6,7,7,11
18:28:01:270679,2,3,2,-12,-16,2,6,-2
18:28:01:278164,-16,-6,2,3,5,-5,-5,-14
18:28:01:285761,-16,-6,2,3,5,-5,-5,-14
18:28:01:293295,35,-10,-8,8,20,4,-3,0
18:28:01:300707,5,-2,-7,-4,7,-9,-5,10
18:28:01:308911,5,-2,-7,-4,7,-9,-5,10
18:28:01:309715,9,7,2,-4,-9,8,7,16
18:28:01:323885,-21,-2,3,-9,-13,-3,-10,-7
18:28:01:324675,-21,-2,3,-9,-13,-3,-10,-7
18:28:01:330787,5,8,2,18,11,2,8,6
18:28:01:338152,-4,-4,-3,16,-4,15,2,-4
18:28:01:345863,-4,-4,-3,16,-4,15,2,-4
18:28:01:353173,-7,-2,-1,-10,-17,12,6,9
18:28:01:360790,4,-7,-8,4,0,-6,6,-4
18:28:01:368878,4,-7,-8,4,0,-6,6,-4
18:28:01:369666,36,-8,-8,-3,2,-9,4,6
18:28:01:384013,6,-2,-1,-15,-25,-10,-11,0
18:28:01:384772,6,-2,-1,-15,-25,-10,-11,0
18:28:01:390655,-28,0,-3,-7,14,2,-7,-25
18:28:01:398257,8,-1,-5,-3,27,1,15,24
18:28:01:405763,8,-1,-5,-3,27,1,15,24
18:28:01:413269,17,-4,-2,-5,7,-2,-15,-19
18:28:01:420662,5,-3,2,6,2,8,2,0
18:28:01:428939,5,-3,2,6,2,8,2,0
18:28:01:429707,6,2,-8,1,5,3,-1,5
18:28:01:443973,7,-4,-2,-12,-1,-7,-21,-16
18:28:01:444679,7,-4,-2,-12,-1,-7,-21,-16
18:28:01:450724,0,-3,-7,7,-2,4,-9,3
18:28:01:458192,-1,3,-1,5,3,13,15,4
18:28:01:465832,-1,3,-1,5,3,13,15,4
18:28:01:473166,-18,6,6,-6,-3,-5,-5,-10
18:28:01:480811,-5,6,-4,3,7,-3,22,14
18:28:01:488882,-5,6,-4,3,7,-3,22,14
18:28:01:489680,5,6,10,12,9,-5,7,19
18:28:01:503887,-2,6,5,6,11,-4,-2,-5
18:28:01:504648,-2,6,5,6,11,-4,-2,-5
18:28:01:510738,-21,-2,-9,-10,-3,5,11,-4
18:28:01:518233,1,-2,9,-2,-12,3,-1,5
18:28:01:525732,1,-2,9,-2,-12,3,-1,5
18:28:01:533166,-1,-6,-1,-2,13,2,1,-2
18:28:01:540711,40,5,-2,-7,-13,-6,-7,-7
18:28:01:549008,40,5,-2,-7,-13,-6,-7,-7
18:28:01:549721,-37,-6,0,6,-2,-3,-5,-16
18:28:01:563961,-4,3,15,10,-3,2,-3,-5
18:28:01:564677,-4,3,15,10,-3,2,-3,-5
18:28:01:579003,11,-4,-18,1,-7,4,-5,2
18:28:01:579637,-11,1,-4,-11,3,4,-3,-14
18:28:01:585745,-11,1,-4,-11,3,4,-3,-14
18:28:01:593150,-7,4,-8,-3,0,-11,-4,15
18:28:01:600776,-13,-11,-16,-2,0,4,-2,-8
18:28:01:608891,-13,-11,-16,-2,0,4,-2,-8
18:28:01:609702,1,1,0,-11,2,4,2,-6
18:28:01:623862,5,0,2,-1,-4,-7,-5,-3
18:28:01:624644,5,0,2,-1,-4,-7,-5,-3
18:28:01:630738,-26,-8,1,-8,-8,-5,-7,-26
18:28:01:638153,-8,4,4,1,-7,-1,2,9
18:28:01:645840,-8,4,4,1,-7,-1,2,9
18:28:01:653178,4,8,8,-7,-4,4,1,6
18:28:01:660809,26,-2,-3,-4,-6,-25,-16,-15
18:28:01:668692,26,-2,-3,-4,-6,-25,-16,-15
18:28:01:675682,5,-5,0,-4,-3,5,-1,9
18:28:01:683907,-6,-4,0,-4,1,0,-7,7
18:28:01:684718,-6,-4,0,-4,1,0,-7,7
18:28:01:690692,-16,-2,6,8,2,-12,2,4
18:28:01:698236,-12,0,-2,6,4,5,6,7
18:28:01:705752,-12,0,-2,6,4,5,6,7
18:28:01:713226,1,-5,-5,-1,-15,1,-7,-9
18:28:01:729568,-7,3,5,-2,4,-1,2,-4
18:28:01:730371,-7,3,5,-2,4,-1,2,-4
18:28:01:731191,8,-5,-10,-11,-5,-16,-1,-17
18:28:01:743925,0,8,-4,-6,17,1,-1,-6
18:28:01:744705,0,8,-4,-6,17,1,-1,-6
18:28:01:750678,11,10,13,7,16,-13,-2,-3
18:28:01:766394,-12,-9,1,7,-3,15,8,8
18:28:01:767170,-12,-9,1,7,-3,15,8,8
18:28:01:773151,-18,-14,-16,-2,9,2,0,-11
18:28:01:780798,6,4,5,2,-1,6,16,10
18:28:01:788211,6,4,5,2,-1,6,16,10
18:28:01:795701,25,6,0,2,-8,11,8,22
18:28:01:803875,-7,-4,-4,-4,10,-14,-3,4
18:28:01:804703,-7,-4,-4,-4,10,-14,-3,4
18:28:01:810765,6,3,8,6,-17,4,-3,1
18:28:01:826381,9,2,2,7,13,-7,4,5
18:28:01:827176,9,2,2,7,13,-7,4,5
18:28:01:833291,13,6,-3,5,7,3,4,21
18:28:01:848950,10,-4,4,-2,-10,12,2,-4
18:28:01:849700,10,-4,4,-2,-10,12,2,-4
18:28:01:855653,-19,-15,-9,-19,-9,-3,-7,-12
18:28:01:864000,-6,3,-8,-30,-2,0,-5,-21
18:28:01:864767,-6,3,-8,-30,-2,0,-5,-21
18:28:01:870677,-28,-8,8,4,-6,-3,0,-9
18:28:01:886423,-6,6,5,7,-7,2,-3,4
18:28:01:887207,-6,6,5,7,-7,2,-3,4
18:28:01:893170,-9,-4,-3,-5,-8,-7,-2,-9
18:28:01:908889,-10,-3,-1,-3,-18,10,4,-4
18:28:01:909686,-10,-3,-1,-3,-18,10,4,-4
18:28:01:915756,-18,-3,1,12,-7,10,-2,6
18:28:01:923883,-5,-9,9,-2,-11,-7,-4,-11
18:28:01:924685,-5,-9,9,-2,-11,-7,-4,-11
18:28:01:930777,9,8,16,4,6,3,7,-3
18:28:01:946420,5,-5,-6,-6,8,1,-2,49
18:28:01:947221,5,-5,-6,-6,8,1,-2,49
18:28:01:953153,8,4,-1,-3,-4,10,-1,1
18:28:01:960655,3,-3,-6,-2,-27,-11,-5,-26
18:28:01:968288,3,-3,-6,-2,-27,-11,-5,-26
18:28:01:975685,-16,-6,-8,-19,-5,-7,-6,-3
18:28:01:983993,-7,-3,0,7,18,2,-5,-5
18:28:01:984738,-7,-3,0,7,18,2,-5,-5
18:28:01:990673,8,-4,-3,-8,6,-9,-2,2
18:28:02:6370,4,1,-1,-15,4,2,-4,-1
18:28:02:7170,4,1,-1,-15,4,2,-4,-1
18:28:02:13315,10,7,0,1,11,-11,-4,-3
18:28:02:20678,2,-2,2,9,13,-5,0,3
18:28:02:28300,2,-2,2,9,13,-5,0,3
18:28:02:35767,-8,-6,-10,-5,-22,-3,-1,-19
18:28:02:43825,15,0,-3,1,-10,-10,-9,-5
18:28:02:44726,15,0,-3,1,-10,-10,-9,-5
18:28:02:50718,-18,-7,0,0,-17,-1,-10,-8
18:28:02:66422,-12,2,12,18,1,-9,-2,-19
18:28:02:67198,-12,2,12,18,1,-9,-2,-19
18:28:02:73197,20,7,30,19,1,0,2,12
18:28:02:80766,-7,1,-3,8,16,2,-1,2
18:28:02:88221,-7,1,-3,8,16,2,-1,2
18:28:02:95768,9,2,-1,6,30,8,9,8
18:28:02:103868,-30,-8,-4,-10,-16,5,8,-9
18:28:02:104681,-30,-8,-4,-10,-16,5,8,-9
18:28:02:110658,11,-11,-14,-15,-2,-1,10,0
18:28:02:126420,5,3,2,-4,5,8,5,10
18:28:02:127148,5,3,2,-4,5,8,5,10
18:28:02:133350,-3,-9,-20,-19,-6,-9,-10,-19
18:28:02:140703,-10,-12,-13,-8,-19,2,-2,-3
18:28:02:148263,-10,-12,-13,-8,-19,2,-2,-3
18:28:02:155670,-5,5,6,9,0,6,0,7
18:28:02:163829,-14,-6,-9,-3,-5,-4,-5,-20
18:28:02:164720,-14,-6,-9,-3,-5,-4,-5,-20
18:28:02:170655,-8,4,4,10,-3,1,-2,-15
18:28:02:186383,55,9,0,-6,11,3,-6,7
18:28:02:187200,55,9,0,-6,11,3,-6,7
18:28:02:193340,-5,1,2,0,-5,4,-10,0
18:28:02:200691,-2,5,16,10,3,3,3,6
18:28:02:208245,-2,5,16,10,3,3,3,6
18:28:02:215690,12,0,-2,9,13,4,1,8
18:28:02:223895,-18,-10,-12,0,0,-4,-4,0
18:28:02:224683,-18,-10,-12,0,0,-4,-4,0
18:28:02:230794,-15,-2,0,-4,1,-1,1,5
18:28:02:246496,-3,-2,-4,-5,-22,-1,-2,-7
18:28:02:247209,-3,-2,-4,-5,-22,-1,-2,-7
18:28:02:253131,18,1,-4,-2,-26,9,6,-8
18:28:02:260741,-5,-1,-1,-7,-13,-19,-10,11
18:28:02:268254,-5,-1,-1,-7,-13,-19,-10,11
18:28:02:275666,0,-3,-8,-16,-17,-13,-10,7
18:28:02:283917,14,-5,0,7,7,-1,1,-6
18:28:02:284666,14,-5,0,7,7,-1,1,-6
18:28:02:290663,2,1,-11,3,7,0,2,3
18:28:02:306361,-9,1,-6,5,8,-4,-3,-5
18:28:02:307165,-9,1,-6,5,8,-4,-3,-5
18:28:02:313257,21,-10,-10,0,-1,0,2,8
18:28:02:320654,-16,5,11,-7,-22,9,-2,-3
18:28:02:328424,-16,5,11,-7,-22,9,-2,-3
18:28:02:335695,-16,3,1,-7,5,-3,-1,-1
18:28:02:343940,7,1,1,-6,-8,-4,0,0
18:28:02:344661,7,1,1,-6,-8,-4,0,0
18:28:02:350737,2,4,12,9,18,1,0,4
18:28:02:366427,-6,-2,-1,12,36,16,3,4
18:28:02:367241,-6,-2,-1,12,36,16,3,4
18:28:02:373178,-4,-2,-6,-6,-3,-10,-11,-25
18:28:02:380816,19,5,-5,-3,3,-2,2,11
18:28:02:388204,19,5,-5,-3,3,-2,2,11
18:28:02:404519,0,4,12,3,2,2,0,1
18:28:02:405268,-11,-4,-3,-1,-5,-4,4,2
18:28:02:406103,-11,-4,-3,-1,-5,-4,4,2
18:28:02:410771,9,6,4,5,11,-2,3,7
18:28:02:426383,5,5,3,4,8,-7,-1,-2
18:28:02:427213,5,5,3,4,8,-7,-1,-2
18:28:02:433225,-9,2,1,-16,-1,-7,-5,-1
18:28:02:440696,-9,-5,0,-2,-2,-3,-5,-9
18:28:02:448407,-9,-5,0,-2,-2,-3,-5,-9
18:28:02:455684,-36,-2,-1,3,-6,-6,-4,15
18:28:02:463916,-21,-5,-5,-5,-1,4,4,0
18:28:02:464661,-21,-5,-5,-5,-1,4,4,0
18:28:02:470721,15,-3,-12,-9,-3,7,3,7
18:28:02:486352,-9,-3,-1,4,9,-2,-5,6
18:28:02:487238,-9,-3,-1,4,9,-2,-5,6
18:28:02:493289,-5,-5,9,11,0,4,-1,-6
18:28:02:500707,6,0,0,2,6,3,0,-1
18:28:02:508206,6,0,0,2,6,3,0,-1
18:28:02:515806,13,-2,-9,5,2,-4,-4,-2
18:28:02:523854,-13,-1,18,7,-5,-14,-7,-10
18:28:02:524652,-13,-1,18,7,-5,-14,-7,-10
18:28:02:530745,10,4,-11,-13,-7,1,-2,3
18:28:02:546347,28,-2,-8,-5,-1,-2,6,-9
18:28:02:547131,28,-2,-8,-5,-1,-2,6,-9
18:28:02:553241,-6,-4,5,4,-1,5,3,-19
18:28:02:560708,0,3,-5,1,-2,-5,-4,1
18:28:02:568287,0,3,-5,1,-2,-5,-4,1
18:28:02:575701,1,-7,-6,-8,-12,0,2,0
18:28:02:583623,-16,4,9,-9,-12,8,6,-7
18:28:02:591419,-16,4,9,-9,-12,8,6,-7
18:28:02:592151,-10,0,0,1,7,-8,-2,4
18:28:02:606889,-10,0,0,1,7,-8,-2,4
18:28:02:607657,-29,-10,-7,-5,7,-7,-1,9
18:28:02:613253,-12,-4,-6,-5,-7,3,0,-7
18:28:02:628950,-12,-4,-6,-5,-7,3,0,-7
18:28:02:629666,10,-1,-3,-6,-12,1,-6,6
18:28:02:635719,-25,-10,-18,-13,0,0,-3,-5
18:28:02:643977,-25,-10,-18,-13,0,0,-3,-5
18:28:02:644706,8,0,-4,-1,-2,-9,-2,-6
18:28:02:650676,0,-5,2,1,-5,-4,4,8
18:28:02:666413,0,-5,2,1,-5,-4,4,8
18:28:02:667174,4,0,-8,-5,-5,6,6,-1
18:28:02:673143,-11,3,10,9,12,-6,-6,-10
18:28:02:688874,-11,3,10,9,12,-6,-6,-10
18:28:02:689627,-25,-3,0,3,4,-6,-8,-11
18:28:02:695811,21,4,7,2,0,-6,1,13
18:28:02:703875,21,4,7,2,0,-6,1,13
18:28:02:704654,6,-2,4,2,-10,8,-1,-18
18:28:02:718219,-3,6,3,0,3,3,1,-12
18:28:02:726540,-3,6,3,0,3,3,1,-12
18:28:02:727174,19,-6,-10,3,-3,-4,-3,10
18:28:02:733227,-3,-5,-4,-5,-14,-12,-9,-5
18:28:02:749009,-3,-5,-4,-5,-14,-12,-9,-5
18:28:02:749660,3,4,3,-1,-6,-1,0,7
18:28:02:755660,-3,-9,-5,1,0,6,3,-3
18:28:02:763992,-3,-9,-5,1,0,6,3,-3
18:28:02:764669,6,0,-8,-1,-7,-7,-7,0
18:28:02:778241,-9,4,2,4,-11,6,4,4
18:28:02:786387,-9,4,2,4,-11,6,4,4
18:28:02:787146,9,-4,-6,-12,-7,0,-4,6
18:28:02:793312,-12,3,12,1,7,5,2,-1
18:28:02:808929,-12,3,12,1,7,5,2,-1
18:28:02:809718,0,1,5,5,-1,-10,-6,15
18:28:02:815725,18,0,-4,7,14,-1,1,8
18:28:02:823915,18,0,-4,7,14,-1,1,8
18:28:02:824622,-3,4,14,-2,-3,-5,-1,-5
18:28:02:838188,-9,-3,12,5,-4,4,-2,2
18:28:02:846502,-9,-3,12,5,-4,4,-2,2
18:28:02:847261,-2,-4,-7,-12,-8,7,11,-17
18:28:02:853201,14,-4,-11,-9,8,7,2,0
18:28:02:868931,14,-4,-11,-9,8,7,2,0
18:28:02:869706,-26,1,2,2,12,2,0,-2
18:28:02:875670,11,-2,-4,-11,-7,-1,-2,-7
18:28:02:883944,11,-2,-4,-11,-7,-1,-2,-7
18:28:02:884718,2,-5,-8,-7,5,6,-3,-11
18:28:02:898211,-21,0,-8,-3,-5,-3,-4,-2
18:28:02:906382,-21,0,-8,-3,-5,-3,-4,-2
18:28:02:907164,-8,-5,-3,1,-1,5,3,1
18:28:02:913163,10,1,-5,1,4,-10,-3,0
18:28:02:928879,10,1,-5,1,4,-10,-3,0
18:28:02:929658,6,4,12,18,-2,3,2,4
18:28:02:935777,-4,-3,-9,-1,5,1,2,6
18:28:02:943930,-4,-3,-9,-1,5,1,2,6
18:28:02:944752,-5,-2,11,-2,-18,-6,-9,-16
18:28:02:958159,-10,-3,-1,0,-5,-8,2,-2
18:28:02:966407,-10,-3,-1,0,-5,-8,2,-2
18:28:02:967212,26,2,-7,-3,9,7,3,7
18:28:02:973137,6,2,5,4,3,-2,-3,-6
18:28:02:988886,6,2,5,4,3,-2,-3,-6
18:28:02:989650,-3,5,-2,0,9,-4,-1,4
18:28:02:995783,0,1,-9,-1,-6,-5,0,4
18:28:03:3893,0,1,-9,-1,-6,-5,0,4
18:28:03:4707,7,1,-7,-13,-1,-6,-5,1
18:28:03:18203,11,-4,6,3,-3,7,1,2
18:28:03:26404,11,-4,6,3,-3,7,1,2
18:28:03:27181,-11,-4,-1,-2,2,0,1,-1
18:28:03:40635,-7,4,13,4,0,1,-4,-5
18:28:03:49006,-7,4,13,4,0,1,-4,-5
18:28:03:49652,-5,-5,-17,-14,0,5,-2,-8
18:28:03:55645,-12,-6,2,-1,0,-3,-6,-4
18:28:03:64025,-12,-6,2,-1,0,-3,-6,-4
18:28:03:64677,1,-3,-1,-2,-5,-2,0,0
18:28:03:78319,7,-3,-12,-1,1,0,-4,6
18:28:03:86393,7,-3,-12,-1,1,0,-4,6
18:28:03:87183,-24,-3,0,12,6,-4,0,-4
18:28:03:93168,37,1,-2,-6,-3,-1,-2,-3
18:28:03:108876,37,1,-2,-6,-3,-1,-2,-3
18:28:03:109667,5,3,25,12,-5,-6,-7,-4
18:28:03:115719,3,4,12,-2,4,3,4,13
18:28:03:123884,3,4,12,-2,4,3,4,13
18:28:03:124672,1,0,-5,-2,-4,6,1,3
18:28:03:138191,-7,0,-3,3,3,-1,-2,-6
18:28:03:146401,-7,0,-3,3,3,-1,-2,-6
18:28:03:147168,10,-1,-4,-8,9,-1,1,2
18:28:03:153149,-2,-5,-19,-8,-4,-1,-6,-8
18:28:03:168924,-2,-5,-19,-8,-4,-1,-6,-8
18:28:03:169684,-6,-1,-9,-4,1,-4,-7,-4
18:28:03:175730,-28,1,12,8,2,-10,-6,-4
18:28:03:183940,-28,1,12,8,2,-10,-6,-4
18:28:03:184710,4,-3,-6,-2,-3,1,1,2
18:28:03:198271,-19,-7,7,-8,-1,1,3,3
18:28:03:206354,-19,-7,7,-8,-1,1,3,3
18:28:03:207123,7,7,-4,-9,-1,0,3,-2
18:28:03:213233,3,6,18,9,4,-5,-1,-1
18:28:03:228988,3,6,18,9,4,-5,-1,-1
18:28:03:229602,-7,3,31,30,6,1,4,1
18:28:03:235713,-5,1,4,-2,-6,0,4,1
18:28:03:243846,-5,1,4,-2,-6,0,4,1
18:28:03:244643,1,8,5,-10,5,-2,-3,-1
18:28:03:267218,-7,-6,-13,-8,-9,-1,-3,-3
18:28:03:267845,-7,-6,-13,-8,-9,-1,-3,-3
18:28:03:268662,17,-5,-7,-4,-7,3,-1,6
18:28:03:273157,17,7,-3,1,1,1,-4,5
18:28:03:288856,17,7,-3,1,1,1,-4,5
18:28:03:289674,-21,-7,-3,-4,-4,-3,1,-1
18:28:03:295709,-2,-2,-11,-4,-12,0,1,-2
18:28:03:303893,-2,-2,-11,-4,-12,0,1,-2
18:28:03:304653,4,-5,0,3,-4,1,2,5
18:28:03:318706,-4,-4,-14,-7,3,-18,-13,-48
18:28:03:326387,-4,-4,-14,-7,3,-18,-13,-48
18:28:03:327223,-4,-6,-10,-8,-11,-15,-7,-4
18:28:03:340639,14,-7,-10,-10,-2,2,2,-10
18:28:03:348971,14,-7,-10,-10,-2,2,2,-10
18:28:03:349671,-12,-13,-18,-6,8,-4,-2,-3
18:28:03:355643,-3,-6,-5,2,1,8,2,4
18:28:03:371376,-3,-6,-5,2,1,8,2,4
18:28:03:372128,0,4,-3,-5,-8,10,0,4
18:28:03:378302,-1,4,17,6,8,3,2,8
18:28:03:386416,-1,4,17,6,8,3,2,8
18:28:03:387167,-1,1,0,-5,3,-1,1,0
18:28:03:393203,1,2,-8,1,0,3,4,11
18:28:03:408896,1,2,-8,1,0,3,4,11
18:28:03:409730,-2,-1,-12,-7,0,-4,2,-7
18:28:03:424494,7,2,2,-4,-5,2,10,16
18:28:03:425325,7,2,2,-4,-5,2,10,16
18:28:03:426158,-9,-2,1,5,8,1,0,-5
18:28:03:447158,3,-4,-4,-2,-7,1,0,-9
18:28:03:447843,3,-4,-4,-2,-7,1,0,-9
18:28:03:448667,-22,-7,2,4,3,3,0,-6
18:28:03:453195,-2,-6,-4,-4,-5,1,2,11
18:28:03:468955,-2,-6,-4,-4,-5,1,2,11
18:28:03:469661,4,0,0,-3,-5,-2,-7,-5
18:28:03:475660,1,0,8,8,1,-2,-1,0
18:28:03:491424,1,0,8,8,1,-2,-1,0
18:28:03:492169,-7,-5,-8,3,-2,-3,3,8
18:28:03:498275,9,4,12,-2,-4,-1,-3,-2
18:28:03:506430,9,4,12,-2,-4,-1,-3,-2
18:28:03:507194,17,11,6,1,6,3,10,16
18:28:03:513261,-11,-4,6,8,-3,2,-4,-20
18:28:03:529457,-11,-4,6,8,-3,2,-4,-20
18:28:03:530203,-13,-5,-14,-10,3,3,-2,-8
18:28:03:535672,-20,-7,-12,1,3,-4,0,9
18:28:03:544046,-20,-7,-12,1,3,-4,0,9
18:28:03:544702,12,1,-4,0,-5,-2,-2,3
18:28:03:558150,0,1,-10,-16,-3,-8,-5,-6
18:28:03:566426,0,1,-10,-16,-3,-8,-5,-6
18:28:03:567197,-6,4,14,2,-3,-3,-2,1
18:28:03:573150,-7,5,13,7,3,0,0,5
18:28:03:597194,-7,5,13,7,3,0,0,5
18:28:03:597871,4,0,-16,-3,-1,0,3,3
18:28:03:598701,3,0,-6,-3,-3,1,-3,3
18:28:03:603825,3,0,-6,-3,-3,1,-3,3
18:28:03:604633,-3,-10,0,-1,-7,-6,-10,1
18:28:03:618244,17,-1,-14,-4,2,1,-4,13
18:28:03:626902,17,-1,-14,-4,2,1,-4,13
18:28:03:633854,7,-1,1,5,6,8,4,6
18:28:03:634671,-11,-4,-13,-7,-5,-4,-2,-8
18:28:03:649020,-11,-4,-13,-7,-5,-4,-2,-8
18:28:03:649753,9,-1,-6,-12,0,-3,-1,0
18:28:03:655670,-8,3,20,8,6,2,4,-3
18:28:03:663299,-8,3,20,8,6,2,4,-3
18:28:03:670699,-21,0,8,-2,-6,-3,-6,-11
18:28:03:678286,-19,-3,-3,1,-3,-4,-4,0
18:28:03:686392,-19,-3,-3,1,-3,-4,-4,0
18:28:03:687178,-5,-1,-7,8,2,4,3,-12
18:28:03:701227,0,-2,-3,-10,2,-1,1,14
18:28:03:708876,0,-2,-3,-10,2,-1,1,14
18:28:03:709654,1,-3,-5,-10,0,4,2,-7
18:28:03:715810,12,1,-7,3,-3,0,-6,-1
18:28:03:723218,12,1,-7,3,-3,0,-6,-1
18:28:03:730699,3,-3,-6,0,-1,-3,-5,-12
18:28:03:738138,12,6,3,-8,-4,-2,2,0
18:28:03:746454,12,6,3,-8,-4,-2,2,0
18:28:03:747185,8,1,3,5,-5,1,0,4
18:28:03:760846,-7,-10,-10,-1,2,-7,-2,-13
18:28:03:768908,-7,-10,-10,-1,2,-7,-2,-13
18:28:03:769687,-11,6,12,0,0,-3,0,7
18:28:03:775643,-2,-1,-13,-18,-8,0,1,-2
18:28:03:783278,-2,-1,-13,-18,-8,0,1,-2
18:28:03:790708,0,-2,12,4,-3,0,-2,-3
18:28:03:807009,-1,2,12,7,-3,1,-1,1
18:28:03:807805,-1,2,12,7,-3,1,-1,1
18:28:03:808613,-5,3,6,5,-1,-5,-2,4
18:28:03:820721,5,-5,-3,6,-1,-2,-2,-5
18:28:03:829052,5,-5,-3,6,-1,-2,-2,-5
18:28:03:829654,-6,-2,-8,-15,-1,-5,0,0
18:28:03:835675,-7,-8,5,4,5,-3,-2,0
18:28:03:843233,-7,-8,5,4,5,-3,-2,0
18:28:03:850710,11,-5,-2,2,0,2,-3,2
18:28:03:858130,2,-7,-14,-6,-6,2,1,-2
18:28:03:873864,2,-7,-14,-6,-6,2,1,-2
18:28:03:874650,1,4,2,4,-2,0,3,5
18:28:03:880746,-11,-5,1,7,1,2,-4,-10
18:28:03:888896,-11,-5,1,7,1,2,-4,-10
18:28:03:889674,3,-2,-4,1,0,-3,-7,-6
18:28:03:912129,-5,-1,-5,-7,-6,-5,-3,1
18:28:03:912876,-5,-1,-5,-7,-6,-5,-3,1
18:28:03:913663,15,6,-6,-8,-4,-2,-4,3
18:28:03:927225,10,2,-3,4,5,4,4,4
18:28:03:927855,10,2,-3,4,5,4,4,4
18:28:03:928630,9,3,9,-3,9,5,7,1
18:28:03:941101,2,-2,-4,-1,3,-3,-2,3
18:28:03:948967,2,-2,-4,-1,3,-3,-2,3
18:28:03:949669,5,5,2,4,0,-1,-1,-1
18:28:03:955650,1,-1,4,-4,-5,0,1,6
18:28:03:963290,1,-1,4,-4,-5,0,1,6
18:28:03:979001,-6,-7,-12,-6,-3,-8,0,2
18:28:03:979648,-7,6,3,2,-7,-2,-3,-2
18:28:03:986434,-7,6,3,2,-7,-2,-3,-2
18:28:03:987173,-4,7,8,-9,-6,0,-1,-15
18:28:04:17709,-7,-5,-11,7,8,1,-6,-7
18:28:04:18498,-7,-5,-11,7,8,1,-6,-7
18:28:04:19301,0,-6,-3,5,-2,0,0,3
18:28:04:20101,2,5,-3,-4,4,2,4,1
18:28:04:23258,2,5,-3,-4,4,2,4,1
18:28:04:30763,-5,-11,-14,2,8,2,-2,-1
18:28:04:38144,-14,2,14,16,-1,1,-2,-5
18:28:04:53883,-14,2,14,16,-1,1,-2,-5
18:28:04:54693,-10,-3,1,1,-5,-3,-1,-7
18:28:04:60846,6,5,-1,-13,-4,-4,-1,-2
18:28:04:68952,6,5,-1,-13,-4,-4,-1,-2
18:28:04:69716,0,-6,-1,0,-2,-1,-1,0
18:28:04:83874,7,-5,-2,-1,-3,-2,-4,-7
18:28:04:84682,7,-5,-2,-1,-3,-2,-4,-7
18:28:04:90677,18,4,-2,-5,-3,0,-2,9
18:28:04:98260,-28,2,4,-7,3,2,4,1
18:28:04:122011,-28,2,4,-7,3,2,4,1
18:28:04:122779,-21,-4,1,2,0,3,2,2
18:28:04:123627,11,2,-3,0,-1,2,4,0
18:28:04:128930,11,2,-3,0,-1,2,4,0
18:28:04:129683,6,-3,3,-1,1,0,-1,1
18:28:04:135643,0,2,1,4,-1,5,1,-2
18:28:04:143306,0,2,1,4,-1,5,1,-2
18:28:04:150798,18,10,3,0,4,-4,-1,-5
18:28:04:158178,9,3,1,10,-1,-3,-4,-1
18:28:04:166430,9,3,1,10,-1,-3,-4,-1
18:28:04:167227,-10,0,6,8,9,-8,-2,-4
18:28:04:180810,8,-3,5,-3,-6,-1,-2,4
18:28:04:188860,8,-3,5,-3,-6,-1,-2,4
18:28:04:189696,5,-1,7,3,-5,-3,0,-3
18:28:04:195754,0,-7,-2,-4,1,1,-5,-3
18:28:04:203251,0,-7,-2,-4,1,1,-5,-3
18:28:04:218871,-5,-1,7,3,-9,3,1,0
18:28:04:219613,-12,-4,-7,-8,-9,-2,3,0
18:28:04:226340,-12,-4,-7,-8,-9,-2,3,0
18:28:04:227131,-8,-4,-1,-2,-2,-5,-7,-13
18:28:04:240684,-1,-1,0,-4,-1,-1,-4,1
18:28:04:257047,-1,-1,0,-4,-1,-1,-4,1
18:28:04:257792,11,0,-15,1,2,-1,5,4
18:28:04:258693,-8,-2,-8,-5,4,-2,0,1
18:28:04:263255,-8,-2,-8,-5,4,-2,0,1
18:28:04:270625,6,-1,8,-6,-2,1,-3,3
18:28:04:278294,-6,0,-4,-5,-2,-4,-3,-1
18:28:04:286429,-6,0,-4,-5,-2,-4,-3,-1
18:28:04:287178,-7,-4,-11,-5,-3,-4,-3,-6
18:28:04:300773,-8,5,2,-1,9,1,4,3
18:28:04:308939,-8,5,2,-1,9,1,4,3
18:28:04:309651,-1,0,2,5,-1,5,3,1
18:28:04:323862,-3,-4,6,9,-2,-2,0,-2
18:28:04:324651,-3,-4,6,9,-2,-2,0,-2
18:28:04:330862,-2,-5,-14,8,-2,-3,-3,4
18:28:04:338217,8,3,8,3,-2,1,1,2
18:28:04:346489,8,3,8,3,-2,1,1,2
18:28:04:347169,-23,-10,4,-2,-4,-3,-5,-15
18:28:04:360834,13,-2,0,-8,-1,-2,-2,-5
18:28:04:368916,13,-2,0,-8,-1,-2,-2,-5
18:28:04:369672,-8,-5,-23,-6,3,4,5,4
18:28:04:375661,-3,-6,-18,-20,-1,-5,-7,-10
18:28:04:391356,-3,-6,-18,-20,-1,-5,-7,-10
18:28:04:392164,10,6,2,-23,-14,-5,-2,-1
18:28:04:398289,-6,-12,-13,9,-4,-7,-7,-14
18:28:04:406362,-6,-12,-13,9,-4,-7,-7,-14
18:28:04:407165,-9,-1,3,5,8,2,2,-1
18:28:04:429657,-23,-4,-2,3,0,1,3,-2
18:28:04:430416,-23,-4,-2,3,0,1,3,-2
18:28:04:431201,1,1,2,-15,-9,-4,-5,-9
18:28:04:435684,-2,2,-2,7,-3,0,-2,-9
18:28:04:443253,-2,2,-2,7,-3,0,-2,-9
18:28:04:458853,-4,-4,-4,7,-1,-1,1,2
18:28:04:459668,16,11,35,3,-2,5,3,6
18:28:04:466403,16,11,35,3,-2,5,3,6
18:28:04:467191,1,1,-15,-3,-2,3,-3,-5
18:28:04:480770,-5,-5,-15,-1,-1,-3,-2,-4
18:28:04:488899,-5,-5,-15,-1,-1,-3,-2,-4
18:28:04:489668,28,5,10,-7,5,-6,0,5
18:28:04:495732,4,9,11,0,3,0,2,5
18:28:04:503226,4,9,11,0,3,0,2,5
18:28:04:510772,-7,-2,-5,-4,-3,-1,-2,-4
18:28:04:518206,11,2,-6,-9,2,-2,-1,6
18:28:04:526352,11,2,-6,-9,2,-2,-1,6
18:28:04:527105,-16,14,48,38,2,4,0,2
18:28:04:540711,19,1,-7,-6,-5,-1,-3,3
18:28:04:548974,19,1,-7,-6,-5,-1,-3,3
18:28:04:549737,10,-3,-27,-31,-4,3,5,9
18:28:04:563609,-10,-4,2,-4,-1,-1,-2,0
18:28:04:571433,-10,-4,2,-4,-1,-1,-2,0
18:28:04:572194,19,-4,0,5,0,0,-1,-2
18:28:04:578174,31,5,-7,4,1,-4,-1,3
18:28:04:585854,31,5,-7,4,1,-4,-1,3
18:28:04:593336,-18,-4,1,2,1,1,-2,-2
18:28:04:601384,-2,1,11,8,0,4,1,-3
18:28:04:602152,-2,1,11,8,0,4,1,-3
18:28:04:608194,-6,-6,-9,2,0,-1,1,-2
18:28:04:623821,-37,-10,-1,-3,0,-3,-3,-4
18:28:04:624672,-37,-10,-1,-3,0,-3,-3,-4
18:28:04:630778,-9,-1,8,-1,-1,-3,-1,-10
18:28:04:638192,26,-7,1,5,-6,-3,3,1
18:28:04:645735,26,-7,1,5,-6,-3,3,1
18:28:04:670210,-10,-4,10,11,-4,-2,-6,-2
18:28:04:670975,-1,-9,-10,-21,-20,-9,-1,-1
18:28:04:671813,-1,-9,-10,-21,-20,-9,-1,-1
18:28:04:672624,7,-3,-3,-1,-6,-6,-4,2
18:28:04:683958,-10,3,2,7,3,8,2,1
18:28:04:684700,-10,3,2,7,3,8,2,1
18:28:04:698863,-10,9,2,3,1,2,-6,-4
18:28:04:699647,-1,6,10,8,5,-2,-1,7
18:28:04:705713,-1,6,10,8,5,-2,-1,7
18:28:04:713294,-11,-3,8,1,4,3,0,0
18:28:04:737055,8,-1,-5,3,-4,4,-1,6
18:28:04:737795,8,-1,-5,3,-4,4,-1,6
18:28:04:738597,-22,-1,-7,-1,11,-8,2,-3
18:28:04:743982,-10,-3,-2,-6,3,-9,-7,-7
18:28:04:744658,-10,-3,-2,-6,3,-9,-7,-7
18:28:04:750736,12,-7,-14,-5,3,5,-2,4
18:28:04:766384,18,9,13,5,10,3,1,3
18:28:04:767176,18,9,13,5,10,3,1,3
18:28:04:773204,14,-1,-8,-3,-3,-2,1,-5
18:28:04:781490,2,-1,-2,-1,-2,2,-2,1
18:28:04:782248,2,-1,-2,-1,-2,2,-2,1
18:28:04:788143,-13,2,9,-4,-8,1,1,-3
18:28:04:804334,-5,-3,-5,-2,-5,-4,-3,0
18:28:04:805133,-5,-3,-5,-2,-5,-4,-3,0
18:28:04:810818,-8,-6,-9,-3,6,-2,-6,-10
18:28:04:818252,-6,6,9,7,2,-2,-1,0
18:28:04:842717,-6,6,9,7,2,-2,-1,0
18:28:04:843535,5,-6,4,7,-1,-2,-3,-4
18:28:04:844329,-23,-7,-12,-12,3,0,1,-9
18:28:04:845146,-23,-7,-12,-12,3,0,1,-9
18:28:04:848223,8,20,19,-4,-9,-2,0,5
18:28:04:871997,-4,-8,-15,-9,-16,-12,-8,-3
18:28:04:872781,-4,-8,-15,-9,-16,-12,-8,-3
18:28:04:873610,-1,6,-5,-1,-1,3,2,1
18:28:04:878217,-2,5,10,3,1,-2,-3,-4
18:28:04:885753,-2,5,10,3,1,-2,-3,-4
18:28:04:893171,3,-4,-6,-5,-2,0,-1,9
18:28:04:909554,1,-2,-3,-2,1,6,0,9
18:28:04:910360,1,-2,-3,-2,1,6,0,9
18:28:04:911119,25,-4,-4,3,10,0,1,12
18:28:04:923844,-21,-4,2,0,4,1,4,1
18:28:04:924650,-21,-4,2,0,4,1,4,1
18:28:04:947117,-7,-7,-18,-20,-3,-5,-2,-1
18:28:04:947852,8,8,25,5,0,-3,-1,-6
18:28:04:948683,8,8,25,5,0,-3,-1,-6
18:28:04:953208,-1,-8,-15,10,-3,2,-1,-2
18:28:04:961502,0,-7,-18,-6,-1,1,-4,-4
18:28:04:962240,0,-7,-18,-6,-1,1,-4,-4
18:28:04:975656,-6,-3,4,0,-1,3,-4,-2
18:28:04:983929,7,-3,-10,-16,-5,-7,-7,-11
18:28:04:984715,7,-3,-10,-16,-5,-7,-7,-11
18:28:04:990697,7,-4,-19,-20,-1,-1,1,3
18:28:05:14651,-16,-8,-8,5,6,2,4,10
18:28:05:15304,-16,-8,-8,5,6,2,4,10
18:28:05:16199,1,11,33,-3,-6,-5,-1,-3
18:28:05:21318,29,1,-11,-1,3,4,-1,7
18:28:05:22188,29,1,-11,-1,3,4,-1,7
18:28:05:28196,-12,-4,11,22,-2,-6,0,-1
18:28:05:43847,-4,-7,-9,-7,0,0,-3,-12
18:28:05:44644,-4,-7,-9,-7,0,0,-3,-12
18:28:05:50746,4,-3,2,11,-1,-7,-5,-13
18:28:05:58186,7,4,3,-3,-3,-1,2,-1
18:28:05:65674,7,4,3,-3,-3,-1,2,-1
18:28:05:82063,27,7,-8,-5,-4,6,-3,5
18:28:05:82844,-40,-20,-6,1,-4,3,-9,-33
18:28:05:83688,-40,-20,-6,1,-4,3,-9,-33
18:28:05:88142,-33,-12,-19,-16,-6,-7,-10,-11
