Time,EMG1,EMG2,EMG3,EMG4,EMG5,EMG6,EMG7,EMG8
15:39:04:523476,3,7,-7,2,-3,-5,-12,-3
15:39:04:524257,-11,13,15,4,-11,-4,-1,1
15:39:04:530292,-12,-9,-68,-21,5,3,-1,-6
15:39:04:537821,-12,-9,-68,-21,5,3,-1,-6
15:39:04:545223,-9,-32,-70,-31,-17,-7,2,12
15:39:04:561600,29,9,17,1,7,7,17,-6
15:39:04:562415,29,9,17,1,7,7,17,-6
15:39:04:563189,-10,-11,17,-2,3,5,3,-10
15:39:04:575280,-3,11,33,12,13,-1,-2,-1
15:39:04:583582,-3,11,33,12,13,-1,-2,-1
15:39:04:584276,-18,-11,26,6,5,0,2,-2
15:39:04:590255,-6,-1,20,5,-9,-7,-8,1
15:39:04:597798,-6,-1,20,5,-9,-7,-8,1
15:39:04:605328,-9,20,12,-4,0,3,-1,1
15:39:04:612776,4,-6,-35,-14,-4,-3,4,1
15:39:04:621002,4,-6,-35,-14,-4,-3,4,1
15:39:04:621732,-7,8,16,8,0,-2,7,-5
15:39:04:635270,2,-5,26,24,12,7,8,2
15:39:04:643499,2,-5,26,24,12,7,8,2
15:39:04:644232,32,0,-4,-4,2,-2,-5,-10
15:39:04:650427,-2,15,-20,-4,0,-1,2,-7
15:39:04:657814,-2,15,-20,-4,0,-1,2,-7
15:39:04:665246,1,-26,-6,-8,-10,-1,-5,-46
15:39:04:681625,-10,9,31,-3,-3,-8,-9,-4
15:39:04:682440,-10,9,31,-3,-3,-8,-9,-4
15:39:04:683208,-6,5,-31,-12,2,-5,-6,9
15:39:04:695270,-10,-3,-12,-14,-1,0,-1,-1
15:39:04:703541,-10,-3,-12,-14,-1,0,-1,-1
15:39:04:704259,14,-9,2,19,8,1,2,10
15:39:04:710279,14,6,14,-7,-5,2,-2,-2
15:39:04:717822,14,6,14,-7,-5,2,-2,-2
15:39:04:725317,-1,21,81,12,1,-4,1,6
15:39:04:732802,30,44,56,18,11,9,27,12
15:39:04:740968,30,44,56,18,11,9,27,12
15:39:04:741767,-16,-8,-29,-9,0,-2,-5,2
15:39:04:755330,-45,1,6,-2,-4,-1,-8,5
15:39:04:763465,-45,1,6,-2,-4,-1,-8,5
15:39:04:764265,4,-25,2,1,-2,-5,-4,5
15:39:04:770260,4,-7,-66,-20,-7,0,-7,10
15:39:04:786017,4,-7,-66,-20,-7,0,-7,10
15:39:04:786714,9,2,-12,1,3,4,-2,-24
15:39:04:792771,10,-23,13,-2,-8,-3,-15,-23
15:39:04:800994,10,-23,13,-2,-8,-3,-15,-23
15:39:04:801768,12,33,5,6,-2,0,10,33
15:39:04:815297,-26,-22,-75,-15,1,-6,-6,0
15:39:04:823495,-26,-22,-75,-15,1,-6,-6,0
15:39:04:824302,-23,0,28,-3,-4,2,-3,-6
15:39:04:830279,-7,-18,-42,-4,6,-3,-9,-9
15:39:04:837838,-7,-18,-42,-4,6,-3,-9,-9
15:39:04:845258,-17,0,10,14,9,1,3,11
15:39:04:852814,-4,-1,10,-3,-6,-5,7,4
15:39:04:860968,-4,-1,10,-3,-6,-5,7,4
15:39:04:861765,0,-8,-8,-4,-8,-9,-7,0
15:39:04:875330,-42,16,23,4,-6,-4,-2,5
15:39:04:883501,-42,16,23,4,-6,-4,-2,5
15:39:04:884247,-17,-32,-17,-14,-22,-2,-3,-24
15:39:04:890266,35,7,61,34,13,2,1,-3
15:39:04:897783,35,7,61,34,13,2,1,-3
15:39:04:905272,-9,4,-23,0,6,-2,-19,8
15:39:04:912700,28,14,29,5,18,3,9,11
15:39:04:921018,28,14,29,5,18,3,9,11
15:39:04:921768,9,0,-65,-23,0,-12,0,5
15:39:04:935243,20,-4,37,0,-10,-1,-2,24
15:39:04:943462,20,-4,37,0,-10,-1,-2,24
15:39:04:944222,2,18,25,2,4,4,4,4
15:39:04:950309,-17,-32,-3,-13,-19,-6,-3,-12
15:39:04:957833,-17,-32,-3,-13,-19,-6,-3,-12
15:39:04:965267,-8,7,30,17,17,6,1,-1
15:39:04:972720,4,-1,-12,-1,-16,3,-10,-9
15:39:04:980995,4,-1,-12,-1,-16,3,-10,-9
15:39:04:981788,-63,-39,-19,-9,6,9,14,-5
15:39:04:995236,0,14,-78,-30,-7,-7,-1,-16
15:39:05:3574,0,14,-78,-30,-7,-7,-1,-16
15:39:05:4373,38,28,8,0,-1,3,6,23
15:39:05:10256,-16,-7,5,-3,-5,-4,-2,19
15:39:05:17897,-16,-7,5,-3,-5,-4,-2,19
15:39:05:25303,12,6,16,1,-1,1,-1,-13
15:39:05:32853,4,-3,6,-4,-9,-6,-8,-19
15:39:05:40284,4,-3,6,-4,-9,-6,-8,-19
15:39:05:47797,18,-8,-65,-17,2,0,-4,-13
15:39:05:55293,-2,0,10,5,4,1,0,0
15:39:05:63435,-2,0,10,5,4,1,0,0
15:39:05:64256,8,-2,24,-2,-20,-8,-6,-2
15:39:05:78409,-3,-6,1,4,9,3,0,17
15:39:05:79241,-3,-6,1,4,9,3,0,17
15:39:05:85320,18,15,5,-1,1,2,-2,-11
15:39:05:92748,3,-27,1,2,0,-3,-3,22
15:39:05:100330,3,-27,1,2,0,-3,-3,22
15:39:05:107741,10,3,-35,-4,1,-2,1,12
15:39:05:115285,-50,-15,17,-3,-9,-4,-3,-26
15:39:05:123493,-50,-15,17,-3,-9,-4,-3,-26
15:39:05:124278,-3,6,41,9,16,2,4,-2
15:39:05:138472,22,1,-19,-6,3,3,-3,3
15:39:05:139276,22,1,-19,-6,3,3,-3,3
15:39:05:145187,-7,3,-31,-3,-4,0,-1,-9
15:39:05:152840,16,18,20,17,7,0,1,-17
15:39:05:160278,16,18,20,17,7,0,1,-17
15:39:05:167769,-17,-16,49,12,7,-3,0,18
15:39:05:175251,1,12,28,5,-3,-4,-1,7
15:39:05:183548,1,12,28,5,-3,-4,-1,7
15:39:05:184251,-8,-11,11,-9,-17,-6,-5,-11
15:39:05:198478,13,-2,9,-1,-4,-1,1,-3
15:39:05:199253,13,-2,9,-1,-4,-1,1,-3
15:39:05:205246,-38,-33,-10,-6,2,-5,-3,-4
15:39:05:212742,-12,-9,-26,-11,-1,-3,1,-7
15:39:05:220365,-12,-9,-26,-11,-1,-3,1,-7
15:39:05:227713,18,12,-6,4,-2,1,2,-7
15:39:05:235257,18,4,-20,-10,-1,-2,-2,-6
15:39:05:243436,18,4,-20,-10,-1,-2,-2,-6
15:39:05:244311,-13,-8,-21,-10,-5,-3,-9,-11
15:39:05:258497,-1,-5,13,2,0,1,-1,0
15:39:05:259310,-1,-5,13,2,0,1,-1,0
15:39:05:265306,14,25,15,12,-4,-3,-2,-7
15:39:05:272771,-20,-2,-30,-11,-4,2,-4,-8
15:39:05:280297,-20,-2,-30,-11,-4,2,-4,-8
15:39:05:287785,9,-1,5,3,5,2,-10,12
15:39:05:295236,-5,3,44,8,1,3,3,2
15:39:05:303484,-5,3,44,8,1,3,3,2
15:39:05:304228,-13,7,34,3,-2,-4,-7,6
15:39:05:318517,-5,13,-33,-9,-3,-3,1,-17
15:39:05:319327,-5,13,-33,-9,-3,-3,1,-17
15:39:05:325276,47,6,25,13,22,6,2,-16
15:39:05:332814,-20,22,-3,-3,0,2,9,13
15:39:05:340285,-20,22,-3,-3,0,2,9,13
15:39:05:347832,-24,-27,-27,-14,-11,-3,-4,-1
15:39:05:355304,21,5,-3,-8,8,-1,-7,13
15:39:05:363462,21,5,-3,-8,8,-1,-7,13
15:39:05:364259,-4,7,-16,-11,-6,2,-1,-4
15:39:05:378404,-4,-56,-16,-6,3,4,0,-11
15:39:05:379215,-4,-56,-16,-6,3,4,0,-11
15:39:05:385307,47,53,-7,2,-9,-2,6,35
15:39:05:392761,-66,-84,-6,-8,-4,-8,-10,-16
15:39:05:400316,-66,-84,-6,-8,-4,-8,-10,-16
15:39:05:407726,-58,-16,-28,-8,-4,-10,-20,-7
15:39:05:415220,69,34,-72,-9,0,1,-1,14
15:39:05:423468,69,34,-72,-9,0,1,-1,14
15:39:05:424238,-15,-29,-11,-8,-10,-9,-5,-13
15:39:05:438453,52,40,30,14,4,3,5,0
15:39:05:439274,52,40,30,14,4,3,5,0
15:39:05:445203,5,-9,-4,-1,0,3,5,6
15:39:05:452739,-1,17,77,19,-3,-5,0,-3
15:39:05:460302,-1,17,77,19,-3,-5,0,-3
15:39:05:467781,-6,-34,44,37,-5,-3,0,-22
15:39:05:475235,-15,19,-4,-3,0,1,-3,-1
15:39:05:483523,-15,19,-4,-3,0,1,-3,-1
15:39:05:484281,-24,-17,12,-12,5,5,4,-16
15:39:05:498440,-23,15,8,10,-1,-10,-11,8
15:39:05:499262,-23,15,8,10,-1,-10,-11,8
15:39:05:505256,-3,7,-1,-12,-2,0,3,-8
15:39:05:512720,-56,-23,-37,-14,-3,-4,3,-12
15:39:05:520372,-56,-23,-37,-14,-3,-4,3,-12
15:39:05:527750,0,5,-86,-25,-1,-3,-4,5
15:39:05:535282,8,-15,3,4,-2,-3,-1,-1
15:39:05:543463,8,-15,3,4,-2,-3,-1,-1
15:39:05:544311,15,25,33,13,0,3,6,2
15:39:05:566714,34,-20,13,3,8,5,-1,5
15:39:05:567388,34,-20,13,3,8,5,-1,5
15:39:05:568210,-12,-7,-32,-13,1,2,3,3
15:39:05:572719,0,3,-16,-5,-5,0,-3,-9
15:39:05:580295,0,3,-16,-5,-5,0,-3,-9
15:39:05:587808,7,-26,-23,-1,-1,3,11,-2
15:39:05:604174,-18,10,4,6,3,-1,-19,-29
15:39:05:604933,-18,10,4,6,3,-1,-19,-29
15:39:05:605726,9,14,32,8,2,-8,-1,-12
15:39:05:618450,-7,-8,-1,-5,1,3,9,7
15:39:05:619291,-7,-8,-1,-5,1,3,9,7
15:39:05:625216,0,-2,14,-2,-3,2,0,6
15:39:05:632744,12,3,5,-7,-7,-6,-5,0
15:39:05:640320,12,3,5,-7,-7,-6,-5,0
15:39:05:647797,20,7,8,7,2,-4,-5,5
15:39:05:655273,-6,-8,-3,1,-18,-3,-4,-8
15:39:05:671030,-6,-8,-3,1,-18,-3,-4,-8
15:39:05:671723,-3,2,13,6,18,5,-13,-3
15:39:05:678406,0,0,18,3,6,12,11,-5
15:39:05:679245,0,0,18,3,6,12,11,-5
15:39:05:685266,-1,8,16,10,26,-1,-18,13
15:39:05:692737,-2,-5,-3,-10,-9,-5,18,17
15:39:05:700361,-2,-5,-3,-10,-9,-5,18,17
15:39:05:707749,-5,-4,3,-6,-14,7,7,9
15:39:05:715291,3,4,9,6,24,1,-17,-7
15:39:05:723489,3,4,9,6,24,1,-17,-7
15:39:05:724290,-2,0,6,15,2,-11,-4,-2
15:39:05:738971,-9,-4,-14,-32,-17,9,-7,-19
15:39:05:739780,-9,-4,-14,-32,-17,9,-7,-19
15:39:05:745250,6,3,10,-4,-5,-13,-11,10
15:39:05:752823,-2,5,-13,3,28,2,-2,-5
15:39:05:760314,-2,5,-13,3,28,2,-2,-5
15:39:05:767811,-5,-7,0,-8,-12,4,28,0
15:39:05:775246,3,8,25,7,-17,-10,3,3
15:39:05:783559,3,8,25,7,-17,-10,3,3
15:39:05:784261,2,4,-8,17,5,8,14,7
15:39:05:798450,-4,-4,-3,-1,-6,-5,4,2
15:39:05:799284,-4,-4,-3,-1,-6,-5,4,2
15:39:05:805240,7,5,9,-8,-7,7,4,-5
15:39:05:812761,-2,-8,10,6,-8,-4,0,9
15:39:05:820408,-2,-8,10,6,-8,-4,0,9
15:39:05:827778,-6,-10,-29,3,-8,3,-22,-3
15:39:05:835350,6,4,-2,9,-6,-10,-6,8
15:39:05:843467,6,4,-2,9,-6,-10,-6,8
15:39:05:844252,-4,-12,-8,-12,0,3,8,0
15:39:05:858464,7,-3,-1,4,7,4,14,21
15:39:05:859257,7,-3,-1,4,7,4,14,21
15:39:05:865317,1,-1,-4,-1,-9,-13,-2,-4
15:39:05:872791,-2,3,-11,-16,-9,4,5,1
15:39:05:880297,-2,3,-11,-16,-9,4,5,1
15:39:05:887737,-1,5,3,0,2,-1,7,-3
15:39:05:895221,2,4,-2,2,3,0,-5,1
15:39:05:903489,2,4,-2,2,3,0,-5,1
15:39:05:904344,-5,-1,14,-13,-7,-7,-6,-7
15:39:05:918540,-3,1,7,1,-1,0,-10,-2
15:39:05:919294,-3,1,7,1,-1,0,-10,-2
15:39:05:925283,-5,0,2,-4,4,-7,-22,-10
15:39:05:932750,10,-8,-4,7,-4,10,28,8
15:39:05:940315,10,-8,-4,7,-4,10,28,8
15:39:05:947773,9,-1,7,-5,2,4,-2,-23
15:39:05:955293,-11,-2,8,1,-10,-9,-12,-23
15:39:05:963472,-11,-2,8,1,-10,-9,-12,-23
15:39:05:964277,-2,-1,-3,10,8,5,4,11
15:39:05:978442,-1,0,-7,-7,-1,-7,-5,-4
15:39:05:979249,-1,0,-7,-7,-1,-7,-5,-4
15:39:05:985208,-1,1,-14,-8,-9,-6,-7,-5
15:39:06:989,-1,-1,0,-2,-6,-10,-3,4
15:39:06:1746,-1,-1,0,-2,-6,-10,-3,4
15:39:06:7754,-1,0,-29,0,-20,-9,22,2
15:39:06:15233,-1,5,2,-1,1,2,10,6
15:39:06:22834,-1,5,2,-1,1,2,10,6
15:39:06:30247,0,1,-2,-3,-17,-34,-9,7
15:39:06:38496,-1,-3,-6,1,21,9,-10,-8
15:39:06:39336,-1,-3,-6,1,21,9,-10,-8
15:39:06:45224,-4,2,0,-1,0,9,7,5
15:39:06:60956,1,3,7,-2,-7,-15,-12,3
15:39:06:61736,1,3,7,-2,-7,-15,-12,3
15:39:06:67833,-3,-4,-6,-5,19,9,0,1
15:39:06:75205,-1,-3,-13,-4,-6,-1,-4,-4
15:39:06:82933,-1,-3,-13,-4,-6,-1,-4,-4
15:39:06:90297,-2,-4,3,-6,-5,-3,-5,-2
15:39:06:98494,2,5,-2,2,0,-1,0,-7
15:39:06:99306,2,5,-2,2,0,-1,0,-7
15:39:06:105321,5,-2,1,2,1,14,-1,2
15:39:06:121024,2,22,30,6,-8,-5,-2,11
15:39:06:121798,2,22,30,6,-8,-5,-2,11
15:39:06:127741,1,5,9,3,-1,1,-4,-2
15:39:06:135290,-3,-5,-9,1,9,6,-3,-9
15:39:06:142852,-3,-5,-9,1,9,6,-3,-9
15:39:06:150374,-4,-4,-3,-7,-9,-5,-4,5
15:39:06:158421,-10,-9,-3,2,0,8,25,-5
15:39:06:159236,-10,-9,-3,2,0,8,25,-5
15:39:06:165264,4,-2,4,11,7,5,9,8
15:39:06:180893,-1,-11,-38,-20,14,4,-5,12
15:39:06:181725,-1,-11,-38,-20,14,4,-5,12
15:39:06:187804,-1,1,-4,-2,-4,-4,-1,-9
15:39:06:195234,-2,-2,-1,3,0,-1,-9,4
15:39:06:202816,-2,-2,-1,3,0,-1,-9,4
15:39:06:210317,-5,-1,1,-4,-5,-2,-5,-15
15:39:06:218463,-5,-8,-43,-13,-3,1,-8,-8
15:39:06:219284,-5,-8,-43,-13,-3,1,-8,-8
15:39:06:225239,-3,1,6,2,-2,-3,-7,-3
15:39:06:240942,-2,-2,-8,11,23,-6,-9,0
15:39:06:241732,-2,-2,-8,11,23,-6,-9,0
15:39:06:247795,8,10,-1,-3,-5,-1,-1,-1
15:39:06:255313,1,-1,14,1,-11,-2,0,7
15:39:06:262773,1,-1,14,1,-11,-2,0,7
15:39:06:270269,-4,-11,9,-1,3,5,-2,3
15:39:06:278425,-1,4,16,2,-7,0,-28,-9
15:39:06:279233,-1,4,16,2,-7,0,-28,-9
15:39:06:285206,-1,1,23,1,-6,-9,-30,-2
15:39:06:300996,-10,-5,-8,-5,-4,-3,-16,-3
15:39:06:301781,-10,-5,-8,-5,-4,-3,-16,-3
15:39:06:307695,-3,4,11,8,8,7,5,-6
15:39:06:315239,3,-3,-3,19,2,1,8,3
15:39:06:322862,3,-3,-3,19,2,1,8,3
15:39:06:330214,-3,-13,-15,1,15,2,12,0
15:39:06:338480,0,-1,-9,-17,-15,-6,9,-2
15:39:06:339226,0,-1,-9,-17,-15,-6,9,-2
15:39:06:345302,1,-1,-3,-4,-5,-1,7,1
15:39:06:360947,-4,-11,11,-3,4,10,3,-7
15:39:06:361751,-4,-11,11,-3,4,10,3,-7
15:39:06:367747,-4,-4,5,23,17,8,3,2
15:39:06:375205,3,3,15,2,-7,-6,6,1
15:39:06:382889,3,3,15,2,-7,-6,6,1
15:39:06:390292,-9,0,-26,-22,-20,-14,11,2
15:39:06:398517,-2,6,5,1,7,0,11,-13
15:39:06:399319,-2,6,5,1,7,0,11,-13
15:39:06:405281,1,7,8,-4,-7,-10,-8,-6
15:39:06:421055,0,-2,-6,-7,3,15,0,2
15:39:06:421815,0,-2,-6,-7,3,15,0,2
15:39:06:427716,-3,0,3,5,3,3,-2,-5
15:39:06:435269,-1,1,16,-1,-11,-8,-4,1
15:39:06:442813,-1,1,16,-1,-11,-8,-4,1
15:39:06:450350,1,-6,-15,-7,4,10,-1,15
15:39:06:458427,0,-1,1,2,1,-2,9,0
15:39:06:459271,0,-1,1,2,1,-2,9,0
15:39:06:465261,4,-2,-5,-8,-6,-3,-1,-16
15:39:06:480904,0,2,14,4,6,7,4,-10
15:39:06:481728,0,2,14,4,6,7,4,-10
15:39:06:487843,-5,-1,3,-5,-2,0,-2,0
15:39:06:495233,-4,2,0,-4,-10,-11,-1,-8
15:39:06:502812,-4,2,0,-4,-10,-11,-1,-8
15:39:06:510262,6,2,-18,-3,3,4,-5,10
15:39:06:518506,-11,-10,-19,-7,-4,-14,-8,2
15:39:06:519240,-11,-10,-19,-7,-4,-14,-8,2
15:39:06:525235,-1,8,5,2,8,-1,1,-3
15:39:06:540909,8,3,-3,2,15,3,4,18
15:39:06:541735,8,3,-3,2,15,3,4,18
15:39:06:547782,-3,-4,10,0,-10,-7,-7,-2
15:39:06:555291,-2,-9,-21,-3,2,1,1,-5
15:39:06:562759,-2,-9,-21,-3,2,1,1,-5
15:39:06:570218,0,-2,1,3,3,-9,0,-4
15:39:06:578426,3,-1,-17,1,6,1,-3,8
15:39:06:579233,3,-1,-17,1,6,1,-3,8
15:39:06:585241,-7,-3,-8,-3,-3,-7,-7,-7
15:39:06:600955,4,0,-12,-2,7,11,2,2
15:39:06:601755,4,0,-12,-2,7,11,2,2
15:39:06:607739,-1,-6,-37,-8,-3,-1,-1,3
15:39:06:615228,0,0,5,-3,-7,0,-5,-8
15:39:06:622899,0,0,5,-3,-7,0,-5,-8
15:39:06:630233,1,-5,9,8,4,4,3,-2
15:39:06:638506,-2,0,13,1,-3,-10,-9,3
15:39:06:639239,-2,0,13,1,-3,-10,-9,3
15:39:06:645255,4,3,8,-1,14,2,0,5
15:39:06:660932,0,5,9,3,2,1,-4,-3
15:39:06:661727,0,5,9,3,2,1,-4,-3
15:39:06:667762,1,-1,-2,-4,-14,-3,5,-7
15:39:06:683545,1,-1,-2,-4,-14,-3,5,-7
15:39:06:684296,3,1,-1,-2,-1,2,3,-15
15:39:06:690265,-3,-5,-13,-2,-1,0,-5,-2
15:39:06:698527,-3,-5,-13,-2,-1,0,-5,-2
15:39:06:699269,-3,2,21,-2,-14,-6,-4,-1
15:39:06:705237,1,3,12,-1,7,13,2,1
15:39:06:721396,1,3,12,-1,7,13,2,1
15:39:06:728383,-3,0,13,5,-10,-7,-1,2
15:39:06:729161,-1,-5,14,-2,-8,4,-6,-2
15:39:06:743463,-1,-5,14,-2,-8,4,-6,-2
15:39:06:744228,-1,-6,7,-8,-2,0,4,-5
15:39:06:750284,3,-8,-12,-7,-4,-9,-1,-3
15:39:06:758504,3,-8,-12,-7,-4,-9,-1,-3
15:39:06:759311,2,4,-1,-1,4,-7,-6,1
15:39:06:765297,-1,-4,-31,-6,4,4,4,1
15:39:06:781022,-1,-4,-31,-6,4,4,4,1
15:39:06:781768,-6,-4,-13,-4,-4,5,0,11
15:39:06:787781,1,8,12,2,-4,-2,-2,11
15:39:06:803519,1,8,12,2,-4,-2,-2,11
15:39:06:804254,1,-1,-34,-4,1,-6,0,0
15:39:06:810293,-3,5,9,0,-4,2,-1,-5
15:39:06:818528,-3,5,9,0,-4,2,-1,-5
15:39:06:819250,-4,-3,-22,-3,-6,-3,-5,-4
15:39:06:825279,-8,-8,3,-1,-11,-16,-1,-1
15:39:06:841007,-8,-8,3,-1,-11,-16,-1,-1
15:39:06:841784,-3,-3,4,-3,2,10,3,-7
15:39:06:847737,-4,-1,-12,-3,-3,-7,-7,-5
15:39:06:863446,-4,-1,-12,-3,-3,-7,-7,-5
15:39:06:864245,-3,-1,1,6,-5,-5,-1,-1
15:39:06:870322,0,-1,5,6,8,0,3,-6
15:39:06:878411,0,-1,5,6,8,0,3,-6
15:39:06:879231,-4,1,-24,-13,-7,-10,-6,-4
15:39:06:885237,-7,-10,3,3,2,4,-1,-2
15:39:06:901015,-7,-10,3,3,2,4,-1,-2
15:39:06:901764,4,1,-7,2,4,-6,-4,-2
15:39:06:907781,2,4,-11,-3,8,1,-2,-2
15:39:06:923527,2,4,-11,-3,8,1,-2,-2
15:39:06:924298,-11,-3,-6,-3,3,3,2,-2
15:39:06:930266,-1,0,0,-2,-5,-4,-4,2
15:39:06:938453,-1,0,0,-2,-5,-4,-4,2
15:39:06:939258,3,-3,7,5,-2,8,0,1
15:39:06:952832,-2,-6,4,-1,1,3,3,-1
15:39:06:960948,-2,-6,4,-1,1,3,3,-1
15:39:06:961700,-4,-6,12,-2,-12,-10,-6,0
15:39:06:967744,0,4,6,7,13,15,-1,-3
15:39:06:983542,0,4,6,7,13,15,-1,-3
15:39:06:984284,6,-1,10,0,-1,9,5,6
15:39:06:990248,0,-1,-11,-5,-10,-6,-4,-3
15:39:06:998472,0,-1,-11,-5,-10,-6,-4,-3
15:39:06:999236,-2,-2,2,-2,-1,-1,-4,-7
15:39:07:12771,0,0,12,2,-2,3,13,0
15:39:07:21019,0,0,12,2,-2,3,13,0
15:39:07:21749,-2,-4,6,-4,-1,-5,-6,-1
15:39:07:27777,1,0,0,-3,1,-2,0,-1
15:39:07:43526,1,0,0,-3,1,-2,0,-1
15:39:07:44254,1,0,1,0,-2,-2,4,-1
15:39:07:50295,-5,2,7,6,2,-4,-5,-6
15:39:07:58506,-5,2,7,6,2,-4,-5,-6
15:39:07:59321,-2,-2,-17,-5,-6,-10,-2,-1
15:39:07:73236,-6,-2,-22,-2,4,-3,3,9
15:39:07:81001,-6,-2,-22,-2,4,-3,3,9
15:39:07:81748,2,-2,8,-2,4,10,2,-2
15:39:07:87760,1,2,1,-1,4,3,1,6
15:39:07:103555,1,2,1,-1,4,3,1,6
15:39:07:104341,-2,0,-10,-8,-8,-7,-2,2
15:39:07:110251,3,-4,3,-3,-1,10,0,-7
15:39:07:118515,3,-4,3,-3,-1,10,0,-7
15:39:07:119292,0,1,9,9,2,-2,-2,3
15:39:07:132797,0,2,-22,-12,-8,-9,-5,-1
15:39:07:141004,0,2,-22,-12,-8,-9,-5,-1
15:39:07:141822,-1,-3,13,-1,2,5,1,-4
15:39:07:147753,2,2,25,1,-7,-11,-2,1
15:39:07:163453,2,2,25,1,-7,-11,-2,1
15:39:07:164262,3,-1,-5,3,10,1,-1,-1
15:39:07:170281,-1,4,8,0,-2,-3,-3,-2
15:39:07:178450,-1,4,8,0,-2,-3,-3,-2
15:39:07:179241,-1,1,12,0,-5,-6,-7,-16
15:39:07:192795,4,-2,1,7,11,3,-2,0
15:39:07:200972,4,-2,1,7,11,3,-2,0
15:39:07:201776,5,7,6,-5,-7,-12,-5,0
15:39:07:207750,-2,3,-13,4,2,-1,-3,-1
15:39:07:223502,-2,3,-13,4,2,-1,-3,-1
15:39:07:224240,0,0,-15,0,12,6,1,4
15:39:07:230206,-2,-14,22,-9,-13,-20,-5,-3
15:39:07:238487,-2,-14,22,-9,-13,-20,-5,-3
15:39:07:239262,2,-11,12,5,15,7,1,4
15:39:07:252861,-2,5,17,-1,-2,-1,-1,-1
15:39:07:260931,-2,5,17,-1,-2,-1,-1,-1
15:39:07:261709,-6,-9,-22,-5,-12,-7,-3,1
15:39:07:267803,1,-7,-21,1,5,7,-3,-4
15:39:07:283534,1,-7,-21,1,5,7,-3,-4
15:39:07:284290,-4,-3,-12,-3,-3,2,1,2
15:39:07:290203,0,6,2,-3,-5,1,-5,4
15:39:07:298445,0,6,2,-3,-5,1,-5,4
15:39:07:299262,-4,3,0,2,-4,-7,-3,0
15:39:07:312732,-13,-10,-5,-2,0,2,1,-2
15:39:07:320994,-13,-10,-5,-2,0,2,1,-2
15:39:07:321729,1,2,17,2,0,5,-4,-9
15:39:07:327701,1,-5,-24,-5,-3,1,3,-5
15:39:07:343468,1,-5,-24,-5,-3,1,3,-5
15:39:07:344221,-4,-1,9,6,-4,0,3,5
15:39:07:350324,0,0,-4,-8,-6,0,-1,0
15:39:07:358462,0,0,-4,-8,-6,0,-1,0
15:39:07:359228,0,-10,-2,2,-3,0,0,-2
15:39:07:372791,-6,-6,3,-1,0,-2,0,15
15:39:07:380985,-6,-6,3,-1,0,-2,0,15
15:39:07:381768,-1,2,-4,-6,-4,-4,-3,0
15:39:07:395308,-2,2,0,0,3,-4,-1,-5
15:39:07:403542,-2,2,0,0,3,-4,-1,-5
15:39:07:404243,-11,0,15,0,2,-4,-1,1
15:39:07:410267,4,-1,0,-2,-5,-1,-3,-6
15:39:07:418497,4,-1,0,-2,-5,-1,-3,-6
15:39:07:419299,0,-2,6,1,1,1,4,-5
15:39:07:432782,-1,1,3,-3,-4,-1,-5,-5
15:39:07:440935,-1,1,3,-3,-4,-1,-5,-5
15:39:07:441715,9,7,-8,1,-6,4,0,-3
15:39:07:447762,4,1,2,1,3,9,2,-13
15:39:07:463491,4,1,2,1,3,9,2,-13
15:39:07:464284,3,0,-3,-2,3,8,-1,3
15:39:07:470294,-5,1,29,4,-1,-3,-1,-4
15:39:07:478409,-5,1,29,4,-1,-3,-1,-4
15:39:07:479215,0,0,4,-4,-5,-10,-3,-2
15:39:07:492782,0,1,1,0,10,3,3,7
15:39:07:500988,0,1,1,0,10,3,3,7
15:39:07:501769,-3,1,-6,-9,-21,-11,-5,1
15:39:07:507747,-1,-4,-10,1,7,2,0,2
15:39:07:523530,-1,-4,-10,1,7,2,0,2
15:39:07:524301,-4,0,-8,-8,2,1,-2,9
15:39:07:530256,0,2,-13,-4,-12,-10,-19,-4
15:39:07:538518,0,2,-13,-4,-12,-10,-19,-4
15:39:07:539288,0,-2,-4,0,3,0,4,-2
15:39:07:552785,1,-1,1,3,3,-3,1,0
15:39:07:560953,1,-1,1,3,3,-3,1,0
15:39:07:561750,0,-1,-6,4,0,-5,-3,-3
15:39:07:567799,-3,-1,-7,0,3,0,0,-9
15:39:07:583566,-3,-1,-7,0,3,0,0,-9
15:39:07:584289,1,1,-2,3,5,0,3,-2
15:39:07:590258,-2,1,13,-1,-5,4,3,2
15:39:07:598475,-2,1,13,-1,-5,4,3,2
15:39:07:599338,-12,2,10,3,9,-2,-3,-6
15:39:07:612745,1,-1,-1,-2,-8,-3,3,3
15:39:07:621014,1,-1,-1,-2,-8,-3,3,3
15:39:07:621769,3,-4,-8,-2,-3,1,2,9
15:39:07:627703,-6,-1,-4,-1,2,1,9,1
15:39:07:643485,-6,-1,-4,-1,2,1,9,1
15:39:07:644229,-1,0,-6,-1,0,-4,-3,-7
15:39:07:650277,2,-2,-1,-1,-4,-1,-6,1
15:39:07:659122,2,-2,-1,-1,-4,-1,-6,1
15:39:07:659920,-3,-2,-7,-3,-3,-1,-3,-5
15:39:07:672739,3,-1,-3,2,0,1,1,-4
15:39:07:680965,3,-1,-3,2,0,1,1,-4
15:39:07:681726,2,2,-1,0,-2,0,-3,-4
15:39:07:687748,-4,-2,-6,-4,-5,0,-6,1
15:39:07:703518,-4,-2,-6,-4,-5,0,-6,1
15:39:07:704246,1,-2,1,1,2,-3,0,10
15:39:07:710226,-1,-2,-2,-4,-7,-9,-3,-1
15:39:07:718507,-1,-2,-2,-4,-7,-9,-3,-1
15:39:07:719311,-3,-2,-3,-1,-3,5,0,-7
15:39:07:733241,-3,-1,-22,-1,0,0,-1,7
15:39:07:740963,-3,-1,-22,-1,0,0,-1,7
15:39:07:741765,-2,-10,0,-5,-3,-3,0,-3
15:39:07:747740,10,2,8,1,1,1,3,-6
15:39:07:763473,10,2,8,1,1,1,3,-6
15:39:07:764279,-2,-3,-25,-10,-2,-2,-7,-3
15:39:07:770310,-6,-1,16,4,-5,-5,5,-2
15:39:07:778432,-6,-1,16,4,-5,-5,5,-2
15:39:07:779233,-1,-3,-11,1,15,5,1,-5
15:39:07:792791,1,-5,-9,-6,-9,-5,-6,1
15:39:07:800946,1,-5,-9,-6,-9,-5,-6,1
15:39:07:801757,0,1,-8,3,0,-3,-4,-1
15:39:07:807682,-10,-3,-15,3,10,3,-3,-5
15:39:07:823448,-10,-3,-15,3,10,3,-3,-5
15:39:07:824202,0,4,23,4,-2,-3,2,-2
15:39:07:830276,4,4,-8,1,0,6,9,5
15:39:07:838553,4,4,-8,1,0,6,9,5
15:39:07:839241,-3,0,1,-2,-6,-7,1,-2
15:39:07:852820,-22,-1,8,3,3,11,1,-2
15:39:07:860924,-22,-1,8,3,3,11,1,-2
15:39:07:861723,-1,0,7,-2,-7,2,2,3
15:39:07:867823,18,0,12,2,-3,-6,-12,-5
15:39:07:883549,18,0,12,2,-3,-6,-12,-5
15:39:07:884208,6,6,5,0,3,2,1,9
15:39:07:890271,-2,-1,-10,-3,-5,-2,0,-5
15:39:07:897781,-2,-1,-10,-3,-5,-2,0,-5
15:39:07:905297,-4,-9,-11,-9,12,6,1,1
15:39:07:912767,1,-5,-19,-11,0,-5,0,0
15:39:07:921011,1,-5,-19,-11,0,-5,0,0
15:39:07:921756,-3,-1,27,10,-9,-10,-5,-6
15:39:07:935307,6,0,9,2,6,6,9,2
15:39:07:943411,6,0,9,2,6,6,9,2
15:39:07:944246,-3,3,-2,-8,-10,-6,-4,-6
15:39:07:950396,-1,-1,15,4,-1,5,-3,-1
15:39:07:957809,-1,-1,15,4,-1,5,-3,-1
15:39:07:965278,9,0,4,9,4,8,14,0
15:39:07:972756,-4,-2,4,-5,-5,-19,-14,-2
15:39:07:980989,-4,-2,4,-5,-5,-19,-14,-2
15:39:07:981757,-15,-6,-42,-5,1,-3,-6,-6
15:39:07:995909,0,0,7,-1,-3,2,11,1
15:39:07:996748,0,0,7,-1,-3,2,11,1
15:39:08:2775,3,-6,0,-5,-3,4,-31,-4
15:39:08:10198,0,-2,5,2,0,-8,-13,4
15:39:08:17820,0,-2,5,2,0,-8,-13,4
15:39:08:25210,2,-2,-1,-6,-2,-6,3,0
15:39:08:32808,5,1,0,-6,1,2,0,5
15:39:08:40981,5,1,0,-6,1,2,0,5
15:39:08:41808,1,-1,2,2,2,3,4,0
15:39:08:55989,-7,0,-13,-4,-5,-10,-5,-6
15:39:08:56809,-7,0,-13,-4,-5,-10,-5,-6
15:39:08:62712,-1,1,6,6,7,6,3,4
15:39:08:70292,-6,-1,4,-1,3,-3,-7,0
15:39:08:77787,-6,-1,4,-1,3,-3,-7,0
15:39:08:85289,-3,-1,3,-2,-9,-2,10,-1
15:39:08:92755,3,0,1,3,6,4,7,-1
15:39:08:100929,3,0,1,3,6,4,7,-1
15:39:08:101694,-2,2,2,-3,-11,-11,-11,-2
15:39:08:115990,-1,-4,-8,1,-1,5,-4,-2
15:39:08:116794,-1,-4,-8,1,-1,5,-4,-2
15:39:08:122797,3,0,0,-1,-6,-4,-4,-2
15:39:08:130246,-2,-1,-2,-5,-3,0,-3,-1
15:39:08:137922,-2,-1,-2,-5,-3,0,-3,-1
15:39:08:145274,-1,-2,-18,-1,5,1,2,1
15:39:08:152830,-3,-3,-9,-3,-2,-3,-2,-4
15:39:08:160922,-3,-3,-9,-3,-2,-3,-2,-4
15:39:08:161737,4,-1,1,-3,5,11,14,4
15:39:08:175321,0,-2,4,0,1,2,2,-3
15:39:08:183541,0,-2,4,0,1,2,2,-3
15:39:08:184198,-4,-4,-5,-5,-9,-10,-7,7
15:39:08:190303,-8,-1,9,2,0,2,4,-3
15:39:08:197807,-8,-1,9,2,0,2,4,-3
15:39:08:205272,-2,1,10,2,6,-3,-5,-8
15:39:08:212753,3,4,28,0,-7,0,-12,-2
15:39:08:220992,3,4,28,0,-7,0,-12,-2
15:39:08:221750,-3,-2,-2,2,8,4,2,-3
15:39:08:235288,2,1,4,-3,-4,-7,-7,-4
15:39:08:243429,2,1,4,-3,-4,-7,-7,-4
15:39:08:244206,2,0,2,-5,-2,6,11,2
15:39:08:250350,-6,-2,-11,0,8,-3,1,0
15:39:08:257840,-6,-2,-11,0,8,-3,1,0
15:39:08:265233,-4,-1,-19,-4,-6,-5,-9,-4
15:39:08:272753,2,-5,-12,-1,3,2,13,3
15:39:08:288510,2,-5,-12,-1,3,2,13,3
15:39:08:289227,-6,-2,8,1,-2,-5,-7,-5
15:39:08:295925,-2,-2,-1,-4,-14,-13,-28,2
15:39:08:296735,-2,-2,-1,-4,-14,-13,-28,2
15:39:08:302718,-3,-10,-45,-7,12,0,5,-5
15:39:08:310214,3,-1,7,3,-3,0,5,-5
15:39:08:317807,3,-1,7,3,-3,0,5,-5
15:39:08:325257,1,-1,15,1,-9,-3,-7,-3
15:39:08:332759,10,0,-4,1,3,-2,-6,-5
15:39:08:341016,10,0,-4,1,3,-2,-6,-5
15:39:08:341832,3,7,14,7,-1,-7,-8,-2
15:39:08:355997,-2,-5,-4,-2,1,4,2,-7
15:39:08:356814,-2,-5,-4,-2,1,4,2,-7
15:39:08:362720,0,1,8,-2,-3,-6,-8,-2
15:39:08:370358,-8,-4,-13,-4,-3,-1,3,-5
15:39:08:377853,-8,-4,-13,-4,-3,-1,3,-5
15:39:08:385304,-1,-3,5,-1,-5,-3,-5,0
15:39:08:392724,2,8,1,3,6,10,10,8
15:39:08:400938,2,8,1,3,6,10,10,8
15:39:08:401737,-3,-9,6,-7,-5,-4,3,2
15:39:08:416039,-7,-5,-10,-4,-2,1,4,-6
15:39:08:416816,-7,-5,-10,-4,-2,1,4,-6
15:39:08:422773,-2,7,29,7,0,7,15,-5
15:39:08:430265,-1,3,-3,0,-2,-5,-6,3
15:39:08:437787,-1,3,-3,0,-2,-5,-6,3
15:39:08:445225,0,0,-8,-4,2,3,-7,2
15:39:08:452886,0,0,-14,-7,-4,-1,-1,3
15:39:08:460934,0,0,-14,-7,-4,-1,-1,3
15:39:08:461708,-1,-3,-9,0,0,-4,-24,-4
15:39:08:475273,0,-7,-6,-3,-3,-3,1,-3
15:39:08:483482,0,-7,-6,-3,-3,-3,1,-3
15:39:08:484210,5,12,12,1,-1,1,-10,0
15:39:08:490276,-18,-23,-17,-1,6,11,17,1
15:39:08:497772,-18,-23,-17,-1,6,11,17,1
15:39:08:505299,-2,-1,10,-1,-4,-6,-2,3
15:39:08:512744,8,7,23,4,-2,-4,-1,-2
15:39:08:521068,8,7,23,4,-2,-4,-1,-2
15:39:08:521786,-1,1,3,3,2,1,-2,-4
15:39:08:535327,5,8,33,5,1,-1,-6,5
15:39:08:543412,5,8,33,5,1,-1,-6,5
15:39:08:544209,-1,3,12,3,-2,4,33,5
15:39:08:550353,4,0,-58,-15,-1,-11,-22,-6
15:39:08:557826,4,0,-58,-15,-1,-11,-22,-6
15:39:08:565268,9,4,20,9,0,-2,1,5
15:39:08:572770,4,6,37,7,-2,-12,-6,-5
15:39:08:580991,4,6,37,7,-2,-12,-6,-5
15:39:08:581773,2,-1,1,5,6,11,33,2
15:39:08:595299,1,3,-13,-2,0,6,-1,0
15:39:08:603519,1,3,-13,-2,0,6,-1,0
15:39:08:604287,24,-1,-8,-4,-5,-6,-16,-6
15:39:08:610221,6,-6,-9,13,1,8,30,-2
15:39:08:617793,6,-6,-9,13,1,8,30,-2
15:39:08:625243,-32,3,-7,12,9,12,32,-1
15:39:08:632815,17,-1,-11,-5,-3,2,-6,-5
15:39:08:640990,17,-1,-11,-5,-3,2,-6,-5
15:39:08:641785,-2,-1,-23,-6,1,2,-7,12
15:39:08:655288,-25,2,28,6,0,-2,6,-9
15:39:08:663461,-25,2,28,6,0,-2,6,-9
15:39:08:664266,27,-5,-15,-9,-6,-11,-17,-2
15:39:08:670238,6,1,-2,-5,-4,0,0,6
15:39:08:677789,6,1,-2,-5,-4,0,0,6
15:39:08:685256,-10,-3,6,0,-3,2,-3,0
15:39:08:692722,-7,-1,-13,-6,-1,2,-1,1
15:39:08:701007,-7,-1,-13,-6,-1,2,-1,1
15:39:08:701729,-6,-6,-17,-17,-7,-11,5,-2
15:39:08:724110,0,-1,3,-6,-3,-3,0,5
15:39:08:724916,0,-1,3,-6,-3,-3,0,5
15:39:08:725732,-1,-6,-23,-1,1,-2,-8,3
15:39:08:730266,-8,-4,-19,-20,-6,0,-6,1
15:39:08:737866,-8,-4,-19,-20,-6,0,-6,1
15:39:08:745202,-3,-2,-3,-4,2,2,-8,-4
15:39:08:752848,-1,-1,7,5,-2,-5,-2,-1
15:39:08:760944,-1,-1,7,5,-2,-5,-2,-1
15:39:08:761759,-4,-2,1,-2,0,-5,-5,-5
15:39:08:775248,2,2,6,5,0,0,-7,-1
15:39:08:783509,2,2,6,5,0,0,-7,-1
15:39:08:784266,-2,-1,2,-3,-1,-5,-13,-6
15:39:08:790238,-2,-1,4,7,6,-2,-1,2
15:39:08:797833,-2,-1,4,7,6,-2,-1,2
15:39:08:805268,-5,-2,8,-1,-4,-5,7,-1
15:39:08:812725,-3,0,12,2,-3,-3,-6,-2
15:39:08:828479,-3,0,12,2,-3,-3,-6,-2
15:39:08:829252,-2,9,-1,2,0,3,-1,-2
15:39:08:835298,-2,-5,-3,1,1,0,0,-2
15:39:08:843540,-2,-5,-3,1,1,0,0,-2
15:39:08:844296,-7,-9,-2,-13,-10,-3,-4,-4
15:39:08:858504,-12,-10,1,4,-1,0,-4,1
15:39:08:859295,-12,-10,1,4,-1,0,-4,1
15:39:08:865267,0,-5,7,11,1,1,0,-1
15:39:08:872788,3,8,-2,-4,-1,-3,1,3
15:39:08:880296,3,8,-2,-4,-1,-3,1,3
15:39:08:887788,1,15,11,4,3,-1,-5,0
15:39:08:895234,-2,-5,-4,1,-3,2,2,-3
15:39:08:903552,-2,-5,-4,1,-3,2,2,-3
15:39:08:904271,-13,-7,-13,-7,-4,-3,-8,-7
15:39:08:918451,1,-3,3,11,0,3,2,-2
15:39:08:919263,1,-3,3,11,0,3,2,-2
15:39:08:925286,4,-2,-14,-3,-5,-3,-1,0
15:39:08:932860,-3,0,-8,-19,-9,-5,-6,-2
15:39:08:940289,-3,0,-8,-19,-9,-5,-6,-2
15:39:08:947770,0,6,-1,-10,-10,-3,-1,0
15:39:08:955308,-1,-1,-36,-13,-3,-3,0,-2
15:39:08:963438,-1,-1,-36,-13,-3,-3,0,-2
15:39:08:964237,0,-1,15,-2,2,0,-1,0
15:39:08:978427,-10,-4,4,-3,-2,-2,-4,-5
15:39:08:979232,-10,-4,4,-3,-2,-2,-4,-5
15:39:08:985293,-3,-7,-10,-9,-4,0,0,-4
15:39:08:992771,2,-8,4,10,13,4,-1,-2
15:39:09:390,2,-8,4,10,13,4,-1,-2
15:39:09:7715,1,-14,16,13,6,4,0,0
15:39:09:15233,2,7,9,-3,-7,-2,0,0
15:39:09:23468,2,7,9,-3,-7,-2,0,0
15:39:09:24268,3,12,12,5,3,-5,-2,0
15:39:09:38481,6,4,-6,-1,-2,-3,0,-5
15:39:09:39241,6,4,-6,-1,-2,-3,0,-5
15:39:09:53513,-1,3,-8,0,-1,0,-3,4
15:39:09:54249,3,27,28,-1,-1,-3,0,2
15:39:09:60264,3,27,28,-1,-1,-3,0,2
15:39:09:67705,-4,-3,-8,-4,-2,1,-2,-1
15:39:09:75269,2,0,-6,-7,7,4,3,-2
15:39:09:83538,2,0,-6,-7,7,4,3,-2
15:39:09:84238,-5,-10,-11,0,-1,-5,-2,-2
15:39:09:98416,-4,-17,21,3,-2,0,2,-2
15:39:09:99250,-4,-17,21,3,-2,0,2,-2
15:39:09:105292,6,0,-9,-1,2,0,-1,9
15:39:09:112713,6,12,9,4,-6,-6,-2,7
15:39:09:120329,6,12,9,4,-6,-6,-2,7
15:39:09:127708,-2,-2,0,7,0,1,-1,-9
15:39:09:135289,-4,5,0,13,1,-2,-2,-5
15:39:09:143500,-4,5,0,13,1,-2,-2,-5
15:39:09:144305,0,-6,-11,-3,2,1,-1,-2
15:39:09:158477,-2,-13,-25,-8,-2,0,2,-1
15:39:09:159298,-2,-13,-25,-8,-2,0,2,-1
15:39:09:165258,-12,2,13,0,4,1,-2,-5
15:39:09:172757,-4,-8,-2,1,-1,0,0,-1
15:39:09:180327,-4,-8,-2,1,-1,0,0,-1
15:39:09:187820,-3,-3,2,-8,-4,-4,0,15
15:39:09:195248,-6,25,-5,-4,-2,1,-4,-4
15:39:09:203533,-6,25,-5,-4,-2,1,-4,-4
15:39:09:204268,3,-16,-22,-4,-2,0,-3,1
15:39:09:218496,-6,-3,3,-2,0,-2,-3,-2
15:39:09:219260,-6,-3,3,-2,0,-2,-3,-2
15:39:09:225230,-7,4,-3,2,-1,-2,-3,-11
15:39:09:232764,-1,-7,-8,-5,-5,-1,-5,-4
15:39:09:240329,-1,-7,-8,-5,-5,-1,-5,-4
15:39:09:247764,2,-6,-5,-5,-4,0,2,-1
15:39:09:255263,-5,-12,-7,-5,-2,0,-2,0
15:39:09:263422,-5,-12,-7,-5,-2,0,-2,0
15:39:09:264252,4,3,7,-9,-10,-1,-1,-2
15:39:09:278482,1,-7,-3,-6,-4,-3,3,1
15:39:09:279269,1,-7,-3,-6,-4,-3,3,1
15:39:09:293437,1,3,0,3,6,1,-1,-2
15:39:09:294199,0,-10,-14,-6,-1,0,-2,-1
15:39:09:300399,0,-10,-14,-6,-1,0,-2,-1
15:39:09:307778,-7,-18,6,0,-9,-5,-1,-4
15:39:09:315308,4,1,12,8,5,3,-3,0
15:39:09:323510,4,1,12,8,5,3,-3,0
15:39:09:324306,1,4,-3,3,-1,1,1,-1
15:39:09:338490,-4,16,27,2,6,2,1,-2
15:39:09:339256,-4,16,27,2,6,2,1,-2
15:39:09:345217,3,2,-12,-4,0,-2,0,0
15:39:09:352791,1,-3,1,-10,-1,-2,0,1
15:39:09:360328,1,-3,1,-10,-1,-2,0,1
15:39:09:375943,1,-2,9,-3,14,5,1,3
15:39:09:376736,-1,-9,-26,-7,0,-6,1,0
15:39:09:383546,-1,-9,-26,-7,0,-6,1,0
15:39:09:384276,-1,-3,-11,16,-6,-8,-8,-5
15:39:09:398486,7,-10,-10,-12,-5,3,-2,-1
15:39:09:399297,7,-10,-10,-12,-5,3,-2,-1
15:39:09:405257,16,-28,-19,-20,-23,-10,-10,18
15:39:09:412718,6,-6,10,18,14,7,5,5
15:39:09:420340,6,-6,10,18,14,7,5,5
15:39:09:427755,-9,6,0,-1,2,1,-4,-12
15:39:09:435306,-2,-1,9,30,19,7,7,-2
15:39:09:443515,-2,-1,9,30,19,7,7,-2
15:39:09:444279,0,14,8,1,0,-2,2,0
15:39:09:458492,-5,6,5,20,-8,-11,-6,-4
15:39:09:459306,-5,6,5,20,-8,-11,-6,-4
15:39:09:465285,-1,6,-7,4,4,-11,-3,-5
15:39:09:472790,-8,1,0,-19,-11,1,-2,-2
15:39:09:480329,-8,1,0,-19,-11,1,-2,-2
15:39:09:487793,-5,-25,-21,-9,10,2,-1,-6
15:39:09:495224,6,19,-19,-6,1,7,1,0
15:39:09:503481,6,19,-19,-6,1,7,1,0
15:39:09:504219,-15,13,8,-5,-9,-1,-6,-12
15:39:09:526628,-1,-16,-18,-7,0,7,-2,2
15:39:09:527415,-1,-16,-18,-7,0,7,-2,2
15:39:09:528236,1,1,-20,-10,-4,1,9,6
15:39:09:532762,-3,2,21,-6,-11,-11,-8,-6
15:39:09:540353,-3,2,21,-6,-11,-11,-8,-6
15:39:09:555920,3,13,22,17,16,8,3,-8
15:39:09:556696,-2,-2,-5,-13,-8,-2,9,0
15:39:09:563461,-2,-2,-5,-13,-8,-2,9,0
15:39:09:564271,1,29,9,8,-18,-5,-1,-1
15:39:09:578422,-1,-12,-3,2,3,-5,-7,-7
15:39:09:579244,-1,-12,-3,2,3,-5,-7,-7
15:39:09:585249,-2,-5,9,-5,-12,-9,-5,-5
15:39:09:592748,-3,-5,-4,-6,-11,-6,-3,-1
15:39:09:600370,-3,-5,-4,-6,-11,-6,-3,-1
15:39:09:607770,2,-1,19,0,9,7,2,5
15:39:09:615277,13,8,10,7,-24,-8,2,-14
15:39:09:624169,13,8,10,7,-24,-8,2,-14
15:39:09:624925,-11,-19,2,-11,6,-10,-6,25
15:39:09:638579,4,3,-6,-9,4,12,-8,-6
15:39:09:639284,4,3,-6,-9,4,12,-8,-6
15:39:09:645247,-6,13,19,9,17,11,7,-13
15:39:09:660957,-3,7,-3,-5,-7,-18,-3,6
15:39:09:661748,-3,7,-3,-5,-7,-18,-3,6
15:39:09:667725,-1,-1,-6,-18,-9,6,2,1
15:39:09:675215,-4,-10,-17,-23,-6,-6,-2,1
15:39:09:683561,-4,-10,-17,-23,-6,-6,-2,1
15:39:09:684268,4,-16,-17,-2,15,11,3,-6
15:39:09:698469,-12,-11,-4,8,-2,-4,-3,-1
15:39:09:699244,-12,-11,-4,8,-2,-4,-3,-1
15:39:09:705216,15,2,-12,-3,-11,4,-4,-11
15:39:09:712696,-11,-7,0,-15,-3,3,4,6
15:39:09:720312,-11,-7,0,-15,-3,3,4,6
15:39:09:727731,6,0,-4,4,-14,-8,-2,-1
15:39:09:735289,3,34,24,15,11,7,2,2
15:39:09:743489,3,34,24,15,11,7,2,2
15:39:09:744281,7,10,-5,-13,-10,-10,-2,3
15:39:09:758487,-6,-17,-9,5,6,-5,-2,4
15:39:09:759269,-6,-17,-9,5,6,-5,-2,4
15:39:09:765229,0,-1,6,1,-8,2,-2,-12
15:39:09:780971,-6,1,4,16,14,3,0,4
15:39:09:781753,-6,1,4,16,14,3,0,4
15:39:09:787775,-6,-6,7,-1,-9,-3,-4,-3
15:39:09:795959,1,-3,-16,-7,-5,6,-9,-6
15:39:09:796742,1,-3,-16,-7,-5,6,-9,-6
15:39:09:810290,-12,-7,-8,0,4,3,-17,-7
15:39:09:818462,-1,-4,13,4,10,2,2,-11
15:39:09:819247,-1,-4,13,4,10,2,2,-11
15:39:09:825253,-11,-1,6,-6,-15,-7,-1,3
15:39:09:840954,11,-10,7,-6,33,8,1,3
15:39:09:841762,11,-10,7,-6,33,8,1,3
15:39:09:847738,1,-6,-14,3,14,-4,6,2
15:39:09:855951,-3,-7,20,-30,-38,-18,-5,-4
15:39:09:856783,-3,-7,20,-30,-38,-18,-5,-4
15:39:09:870242,11,16,-8,27,17,9,14,6
15:39:09:878420,-4,2,6,6,4,0,-10,-5
15:39:09:879277,-4,2,6,6,4,0,-10,-5
15:39:09:885217,18,6,-2,2,-5,5,5,7
15:39:09:900943,-10,4,-14,-2,-11,-12,2,-4
15:39:09:901713,-10,4,-14,-2,-11,-12,2,-4
15:39:09:907716,-7,18,17,-17,-21,-2,-3,3
15:39:09:916027,-3,-14,-33,4,36,19,10,-11
15:39:09:916856,-3,-14,-33,4,36,19,10,-11
15:39:09:930251,-21,-22,-12,0,2,-11,8,40
15:39:09:938475,1,4,2,5,-20,-12,3,3
15:39:09:939265,1,4,2,5,-20,-12,3,3
15:39:09:945207,6,-36,0,-8,-3,-2,-7,-14
15:39:09:960922,3,7,-7,8,18,15,4,2
15:39:09:961722,3,7,-7,8,18,15,4,2
15:39:09:967706,-5,9,22,-7,-11,-3,-8,-15
15:39:09:975959,7,-13,-12,10,-2,-5,-1,6
15:39:09:976740,7,-13,-12,10,-2,-5,-1,6
15:39:09:990309,3,7,-13,-3,-2,-5,1,-6
15:39:09:998451,-5,3,-1,-2,2,14,-3,-3
15:39:09:999235,-5,3,-1,-2,2,14,-3,-3
15:39:10:5272,-5,3,-24,8,1,-15,-8,-9
15:39:10:21005,5,-2,-1,0,-13,-6,-3,0
15:39:10:21732,5,-2,-1,0,-13,-6,-3,0
15:39:10:27757,-15,-20,-7,-5,13,0,-6,-8
15:39:10:36007,10,20,8,-17,-14,-18,-7,-1
15:39:10:36779,10,20,8,-17,-14,-18,-7,-1
15:39:10:50339,-5,-1,-4,26,53,28,-3,8
15:39:10:58439,-5,-1,-4,26,53,28,-3,8
15:39:10:59267,-4,-2,15,-6,-2,-3,1,-4
15:39:10:65254,-10,-7,3,-8,-13,-22,-36,-12
15:39:10:80968,-10,-7,3,-8,-13,-22,-36,-12
15:39:10:81759,5,1,-12,-8,-8,-13,-3,-9
15:39:10:87828,-7,-26,-8,1,20,29,6,-1
15:39:10:96345,-7,-26,-8,1,20,29,6,-1
15:39:10:102724,-4,-7,-5,-11,-9,-10,-2,3
15:39:10:110236,7,-18,-10,-22,-13,1,10,5
15:39:10:118462,7,-18,-10,-22,-13,1,10,5
15:39:10:119289,-1,5,5,9,5,6,1,11
15:39:10:125237,27,36,40,10,-10,-9,7,3
15:39:10:140970,27,36,40,10,-10,-9,7,3
15:39:10:141770,1,-1,-20,-14,-20,-8,-3,7
15:39:10:147755,-13,-6,-1,-3,-7,3,10,-11
15:39:10:155969,-13,-6,-1,-3,-7,3,10,-11
15:39:10:156744,-6,-10,-5,0,-6,-17,-7,-11
15:39:10:170292,16,10,-8,9,15,15,4,-8
15:39:10:178419,16,10,-8,9,15,15,4,-8
15:39:10:179226,-12,2,-5,-8,0,-10,-20,-4
15:39:10:185237,1,-1,-2,7,27,-3,1,5
15:39:10:200959,1,-1,-2,7,27,-3,1,5
15:39:10:201701,-2,10,7,27,19,4,0,-5
15:39:10:207771,-12,-5,-21,-15,-23,-10,-7,-2
15:39:10:223460,-12,-5,-21,-15,-23,-10,-7,-2
15:39:10:224228,1,-3,1,-8,-3,-1,1,-6
15:39:10:230260,0,-13,7,5,4,0,21,18
15:39:10:238470,0,-13,7,5,4,0,21,18
15:39:10:239249,3,-5,2,2,-4,25,14,-18
15:39:10:245255,-1,10,6,-19,-23,-35,-24,-10
15:39:10:260943,-1,10,6,-19,-23,-35,-24,-10
15:39:10:261742,-5,1,16,-1,4,12,2,8
15:39:10:267801,5,41,10,-10,-12,-6,-5,-13
15:39:10:283581,5,41,10,-10,-12,-6,-5,-13
15:39:10:284280,1,-1,8,-3,-8,2,-9,-9
15:39:10:290247,-16,-3,0,-7,-15,-3,5,11
15:39:10:298450,-16,-3,0,-7,-15,-3,5,11
15:39:10:299230,6,7,-11,3,4,1,-3,1
15:39:10:305283,2,-9,-4,9,2,1,-4,-4
15:39:10:321088,2,-9,-4,9,2,1,-4,-4
15:39:10:321775,-4,-9,8,-3,-3,9,14,7
15:39:10:327749,-13,-20,3,12,1,0,-5,-16
15:39:10:343502,-13,-20,3,12,1,0,-5,-16
15:39:10:344251,-12,-23,-3,8,1,-3,-2,0
15:39:10:350394,5,-12,-12,3,-3,-3,5,-17
15:39:10:358484,5,-12,-12,3,-3,-3,5,-17
15:39:10:359300,5,8,5,7,10,-4,-9,0
15:39:10:365266,0,-5,15,6,4,7,-9,-3
15:39:10:380992,0,-5,15,6,4,7,-9,-3
15:39:10:381761,-3,-6,-16,-7,-8,-3,-1,6
15:39:10:387824,5,18,8,-9,-29,-20,3,3
15:39:10:395916,5,18,8,-9,-29,-20,3,3
15:39:10:396701,-12,-2,5,6,27,15,-5,4
15:39:10:410303,-4,-1,-5,3,-6,-8,-16,1
15:39:10:418563,-4,-1,-5,3,-6,-8,-16,1
15:39:10:419258,-13,-35,-21,-1,-4,-7,17,13
15:39:10:425261,4,6,-12,-11,-2,10,17,8
15:39:10:440991,4,6,-12,-11,-2,10,17,8
15:39:10:441765,-5,-8,9,-14,-12,-13,-15,-2
15:39:10:447718,2,-1,-12,-11,6,12,-15,-12
15:39:10:456000,2,-1,-12,-11,6,12,-15,-12
15:39:10:456788,6,15,6,-1,-15,-16,3,4
15:39:10:470321,-18,-25,-5,-3,17,15,-1,8
15:39:10:478426,-18,-25,-5,-3,17,15,-1,8
15:39:10:479273,0,-10,-54,-17,-6,1,1,-1
15:39:10:485244,5,9,3,18,-3,-10,-2,-17
15:39:10:500999,5,9,3,18,-3,-10,-2,-17
15:39:10:501748,2,18,20,1,6,5,6,2
15:39:10:507739,0,5,-1,-6,-13,5,2,0
15:39:10:516031,0,5,-1,-6,-13,5,2,0
15:39:10:516797,8,-3,9,9,5,-3,-6,-23
15:39:10:530271,-1,-5,7,6,7,3,6,3
15:39:10:538544,-1,-5,7,6,7,3,6,3
15:39:10:539263,-21,-7,6,16,10,9,-1,9
15:39:10:545204,10,15,-2,1,13,-6,10,10
15:39:10:560944,10,15,-2,1,13,-6,10,10
15:39:10:561729,7,-3,-12,-15,2,2,1,-6
15:39:10:567753,0,0,0,3,14,-1,-4,4
15:39:10:583499,0,0,0,3,14,-1,-4,4
15:39:10:584245,-1,3,10,-9,-11,-9,0,2
15:39:10:590318,-5,4,2,5,-13,-8,1,-5
15:39:10:598524,-5,4,2,5,-13,-8,1,-5
15:39:10:599251,0,5,6,2,7,1,-9,-10
15:39:10:605277,1,-2,-1,-8,-19,-38,-9,7
15:39:10:621056,1,-2,-1,-8,-19,-38,-9,7
15:39:10:621758,7,23,3,2,2,19,15,17
15:39:10:627687,-12,-16,-13,-4,-13,-10,-12,3
15:39:10:643475,-12,-16,-13,-4,-13,-10,-12,3
15:39:10:644228,6,-2,11,-10,0,6,-4,3
15:39:10:650407,-1,8,11,16,33,24,11,1
15:39:10:658501,-1,8,11,16,33,24,11,1
15:39:10:659283,-7,-20,-26,-22,-22,-17,-6,-7
15:39:10:665241,11,4,-2,3,14,9,0,0
15:39:10:680958,11,4,-2,3,14,9,0,0
15:39:10:681718,0,4,2,-11,-18,-23,-6,0
15:39:10:687769,0,1,-1,-8,-4,8,10,7
15:39:10:695901,0,1,-1,-8,-4,8,10,7
15:39:10:696757,11,8,0,-2,1,2,-6,-13
15:39:10:710293,-2,-2,2,4,-16,-12,2,1
15:39:10:718478,-2,-2,2,4,-16,-12,2,1
15:39:10:719224,-9,-3,-9,33,15,6,11,7
15:39:10:732820,5,-4,-2,-14,-12,-2,0,8
15:39:10:741059,5,-4,-2,-14,-12,-2,0,8
15:39:10:741830,4,3,7,2,-11,-4,6,-8
15:39:10:747791,-3,0,-12,2,8,3,-2,-7
15:39:10:755349,-3,0,-12,2,8,3,-2,-7
15:39:10:762838,2,-7,-3,-2,7,2,-5,1
15:39:10:770337,-3,-8,-23,14,16,22,-1,-2
15:39:10:778467,-3,-8,-23,14,16,22,-1,-2
15:39:10:779253,-6,-3,7,24,11,1,7,1
15:39:10:792792,-5,-7,8,-9,3,-7,3,5
15:39:10:800983,-5,-7,8,-9,3,-7,3,5
15:39:10:801713,8,-6,-1,-9,6,4,-13,10
15:39:10:807784,-5,4,-23,-1,6,7,-4,-7
15:39:10:815307,-5,4,-23,-1,6,7,-4,-7
15:39:10:822784,-2,-7,4,-23,-20,-15,3,0
15:39:10:830211,-6,-6,5,-1,2,3,-7,-13
15:39:10:838519,-6,-6,5,-1,2,3,-7,-13
15:39:10:839241,-2,10,7,-3,-4,-6,-7,0
15:39:10:852911,-6,-6,7,-18,-19,-8,4,1
15:39:10:860921,-6,-6,7,-18,-19,-8,4,1
15:39:10:861729,-15,-12,1,6,19,7,-5,-8
15:39:10:867793,2,-4,4,-7,-7,-4,-7,-3
15:39:10:875334,2,-4,4,-7,-7,-4,-7,-3
15:39:10:890921,1,-1,-2,-2,9,4,-5,-14
15:39:10:891704,2,-2,-6,-11,-9,-5,3,0
15:39:10:898448,2,-2,-6,-11,-9,-5,3,0
15:39:10:899274,-14,1,-5,-6,-16,-1,5,-5
15:39:10:912748,-4,-3,8,3,22,0,-1,3
15:39:10:921022,-4,-3,8,3,22,0,-1,3
15:39:10:921793,2,-1,-24,-16,-16,-10,-6,2
15:39:10:927682,0,-4,3,-4,6,17,1,-4
15:39:10:935332,0,-4,3,-4,6,17,1,-4
15:39:10:942738,3,3,1,21,70,23,2,8
15:39:10:950282,2,0,-1,-2,-6,-38,-4,-1
15:39:10:958507,2,0,-1,-2,-6,-38,-4,-1
15:39:10:959262,-2,-4,4,-41,-74,-39,-9,3
15:39:10:972765,10,8,5,7,2,17,-2,10
15:39:10:980945,10,8,5,7,2,17,-2,10
15:39:10:981722,-4,-1,-4,-11,-78,-83,-13,-11
15:39:10:987815,6,15,4,5,6,64,10,2
15:39:10:995293,6,15,4,5,6,64,10,2
15:39:11:2801,5,1,5,17,14,33,11,3
15:39:11:19211,-7,-3,-6,-26,-67,-44,-18,-11
15:39:11:19970,-7,-3,-6,-26,-67,-44,-18,-11
15:39:11:20752,-3,-3,-1,15,22,18,7,-4
15:39:11:32807,-3,-2,-3,-16,-18,-12,-1,-7
15:39:11:40976,-3,-2,-3,-16,-18,-12,-1,-7
15:39:11:41773,4,4,-3,4,20,10,-1,-7
15:39:11:47746,-5,-6,-10,-32,7,-14,-4,1
15:39:11:55346,-5,-6,-10,-32,7,-14,-4,1
15:39:11:62768,5,1,9,-4,20,37,-1,15
15:39:11:70294,0,0,2,7,4,-13,-4,-6
15:39:11:79120,0,0,2,7,4,-13,-4,-6
15:39:11:79894,-1,-1,10,-9,-22,-25,8,-20
15:39:11:92748,-7,-2,4,20,28,30,2,1
15:39:11:100961,-7,-2,4,20,28,30,2,1
15:39:11:101735,0,-1,-5,-9,-18,-25,-7,3
15:39:11:107730,-9,-18,1,42,20,20,4,-7
15:39:11:115333,-9,-18,1,42,20,20,4,-7
15:39:11:122731,1,-1,-6,17,-27,5,-5,9
15:39:11:130249,6,1,1,-9,17,18,8,3
15:39:11:138556,6,1,1,-9,17,18,8,3
15:39:11:139283,0,-5,-40,-15,-7,-27,-5,4
15:39:11:152783,-8,10,3,6,-4,2,-8,-3
15:39:11:160919,-8,10,3,6,-4,2,-8,-3
15:39:11:161767,3,17,14,6,-14,-26,0,-4
15:39:11:167783,-5,0,-7,-10,1,36,6,-5
15:39:11:175343,-5,0,-7,-10,1,36,6,-5
15:39:11:182778,11,-2,7,0,14,8,5,10
15:39:11:190266,9,11,0,-23,17,-22,-19,-15
15:39:11:198467,9,11,0,-23,17,-22,-19,-15
15:39:11:199257,-14,-7,5,38,59,-9,-2,-4
15:39:11:212731,0,-6,-6,-10,-48,-8,2,-3
15:39:11:221135,0,-6,-6,-10,-48,-8,2,-3
15:39:11:221767,-2,-1,1,-2,37,90,5,17
15:39:11:236023,-1,-1,10,29,27,-9,6,5
15:39:11:236805,-1,-1,10,29,27,-9,6,5
15:39:11:242750,-2,-1,-3,-29,-75,-43,-10,2
15:39:11:250304,-9,-15,4,24,38,28,5,1
15:39:11:258480,-9,-15,4,24,38,28,5,1
15:39:11:259288,1,-7,-4,-23,-36,-13,19,-2
15:39:11:272767,5,1,-22,1,-7,-3,12,10
15:39:11:280977,5,1,-22,1,-7,-3,12,10
15:39:11:281789,-6,2,-1,-9,-24,-18,-18,-18
15:39:11:287748,4,-7,7,3,38,34,-8,8
15:39:11:295276,4,-7,7,3,38,34,-8,8
15:39:11:302849,6,10,6,24,40,23,13,-3
15:39:11:310259,-4,-6,-2,16,-8,-21,-20,-6
15:39:11:318485,-4,-6,-2,16,-8,-21,-20,-6
15:39:11:319218,-18,-7,12,24,53,65,11,-6
15:39:11:332730,-6,-3,-8,-26,-53,-25,-11,-1
15:39:11:340899,-6,-3,-8,-26,-53,-25,-11,-1
15:39:11:341730,9,-6,7,12,16,0,-3,3
15:39:11:347787,-3,0,0,-33,-111,-86,-17,-12
15:39:11:355292,-3,0,0,-33,-111,-86,-17,-12
15:39:11:362725,-4,-6,0,-17,28,42,-14,-6
15:39:11:370324,-4,9,-5,-21,4,-18,-3,-4
15:39:11:378464,-4,9,-5,-21,4,-18,-3,-4
15:39:11:379232,5,4,-7,-1,24,49,-5,4
15:39:11:401642,5,14,-4,18,28,11,20,7
15:39:11:402487,5,14,-4,18,28,11,20,7
15:39:11:403304,3,-8,-8,-13,-19,-1,-8,2
15:39:11:407799,3,-5,2,11,24,-1,12,5
15:39:11:415291,3,-5,2,11,24,-1,12,5
15:39:11:422794,0,-10,-8,-15,-40,-56,-5,1
15:39:11:430231,2,-9,9,33,85,37,17,4
15:39:11:438499,2,-9,9,33,85,37,17,4
15:39:11:439271,-8,-4,-4,14,9,-16,2,-20
15:39:11:452851,-4,7,5,27,-20,-13,-11,-2
15:39:11:460920,-4,7,5,27,-20,-13,-11,-2
15:39:11:461696,-1,8,10,13,-1,-9,7,0
15:39:11:467796,-3,2,0,-24,-56,-89,-19,-9
15:39:11:475271,-3,2,0,-24,-56,-89,-19,-9
15:39:11:482754,2,10,14,18,46,46,28,11
15:39:11:490230,1,-1,4,-18,-38,-40,-2,-10
15:39:11:498448,1,-1,4,-18,-38,-40,-2,-10
15:39:11:499247,5,1,-9,-9,21,4,-4,3
15:39:11:512742,6,3,-21,-1,6,16,7,-8
15:39:11:520964,6,3,-21,-1,6,16,7,-8
15:39:11:521730,-9,-4,-4,-20,-26,-17,-22,-11
15:39:11:527726,-5,-4,6,13,-5,-4,-7,-6
15:39:11:535303,-5,-4,6,13,-5,-4,-7,-6
15:39:11:542734,-5,-1,2,-9,-11,6,-9,-4
15:39:11:550294,-8,-6,-1,-3,28,53,5,3
15:39:11:558438,-8,-6,-1,-3,28,53,5,3
15:39:11:559292,7,-1,-19,-18,-8,-39,0,2
15:39:11:572753,-6,-20,14,11,40,39,21,6
15:39:11:580993,-6,-20,14,11,40,39,21,6
15:39:11:581726,2,0,-12,-5,-43,-46,-7,-1
15:39:11:587805,6,6,-10,-13,9,15,-9,2
15:39:11:595299,6,6,-10,-13,9,15,-9,2
15:39:11:602836,-25,-21,-2,40,22,-1,1,1
15:39:11:619161,4,-2,0,5,-16,13,-8,-3
15:39:11:619928,4,-2,0,5,-16,13,-8,-3
15:39:11:620700,-3,6,6,9,45,71,21,-4
15:39:11:632773,-11,-10,0,-24,-64,-74,-7,-21
15:39:11:640956,-11,-10,0,-24,-64,-74,-7,-21
15:39:11:641763,12,7,-11,10,86,46,25,1
15:39:11:647728,8,15,-11,-14,-13,-22,-20,2
15:39:11:655325,8,15,-11,-14,-13,-22,-20,2
15:39:11:662729,1,12,31,-2,-19,-10,5,-1
15:39:11:670285,2,-1,7,-9,-19,-23,-10,-7
15:39:11:677776,2,-1,7,-9,-19,-23,-10,-7
15:39:11:685253,11,4,2,6,19,6,-5,8
15:39:11:692726,-2,3,3,-8,14,17,6,-5
15:39:11:701008,-2,3,3,-8,14,17,6,-5
15:39:11:701763,19,-5,10,5,17,50,15,7
15:39:11:716660,10,7,0,-9,-24,-32,-4,16
15:39:11:717447,10,7,0,-9,-24,-32,-4,16
15:39:11:722740,-9,-2,-5,-10,-23,-31,-19,-20
15:39:11:730266,-13,-2,5,4,8,7,-4,-3
15:39:11:737870,-13,-2,5,4,8,7,-4,-3
15:39:11:745256,-5,-31,0,-22,-49,-31,-11,-5
15:39:11:752821,-4,-1,9,-15,-14,-7,-4,-5
15:39:11:760914,-4,-1,9,-15,-14,-7,-4,-5
15:39:11:761723,-9,0,26,15,12,-8,-14,-6
15:39:11:775974,10,-8,-9,18,29,11,31,13
15:39:11:776756,10,-8,-9,18,29,11,31,13
15:39:11:782825,-8,23,-23,-38,-86,-85,-15,-10
15:39:11:790282,-8,2,-10,4,17,41,-5,8
15:39:11:797793,-8,2,-10,4,17,41,-5,8
15:39:11:805322,3,-5,-33,0,-16,-37,-15,12
15:39:11:812764,-12,-5,-12,13,43,38,11,-15
15:39:11:820992,-12,-5,-12,13,43,38,11,-15
15:39:11:821725,-2,10,7,31,21,1,8,-11
15:39:11:835963,4,-3,-3,0,-19,40,-4,4
15:39:11:836759,4,-3,-3,0,-19,40,-4,4
15:39:11:842777,0,10,4,15,-11,17,17,12
15:39:11:850346,-6,1,-12,-16,-46,-60,-12,-6
15:39:11:857795,-6,1,-12,-16,-46,-60,-12,-6
15:39:11:865205,-13,-9,1,-9,34,25,-29,-14
15:39:11:872725,-12,-7,3,-1,-8,-20,4,0
15:39:11:880968,-12,-7,3,-1,-8,-20,4,0
15:39:11:881769,3,1,-15,-21,-42,-60,-12,-26
15:39:11:895917,14,6,-11,-18,10,4,3,6
15:39:11:896752,14,6,-11,-18,10,4,3,6
15:39:11:902738,6,-11,8,-7,-63,-67,21,13
15:39:11:910216,7,6,12,21,106,110,12,6
15:39:11:917823,7,6,12,21,106,110,12,6
15:39:11:933473,-1,-26,-27,-3,-26,-22,4,11
15:39:11:934254,-4,-5,4,5,9,-28,-7,-18
15:39:11:940937,-4,-5,4,5,9,-28,-7,-18
15:39:11:941711,-6,-1,3,2,34,26,3,-7
15:39:11:955953,-16,-18,0,8,-27,-38,-5,-5
15:39:11:956746,-16,-18,0,8,-27,-38,-5,-5
15:39:11:962701,0,21,33,0,23,79,-5,4
15:39:11:970326,-1,18,14,-10,-59,-86,-12,-9
15:39:11:985995,-1,18,14,-10,-59,-86,-12,-9
15:39:11:986753,0,0,-1,8,88,84,7,11
15:39:11:992764,6,-11,-10,-1,14,28,-7,-8
15:39:12:1027,6,-11,-10,-1,14,28,-7,-8
15:39:12:1733,9,16,3,1,-27,13,-13,-7
15:39:12:15993,-12,-44,-5,-5,-30,-39,-8,-19
15:39:12:16725,-12,-44,-5,-5,-30,-39,-8,-19
15:39:12:22768,18,-12,-2,-5,-2,-23,-23,-12
15:39:12:30257,-4,8,6,-1,-34,-22,-12,18
15:39:12:37804,-4,8,6,-1,-34,-22,-12,18
15:39:12:45195,-29,-18,-7,-44,-35,0,-6,-1
15:39:12:52756,3,4,-11,1,-14,40,8,-3
15:39:12:60926,3,4,-11,1,-14,40,8,-3
15:39:12:61774,5,13,-1,16,-12,11,17,20
15:39:12:75962,0,20,13,4,-12,10,2,6
15:39:12:76757,0,20,13,4,-12,10,2,6
15:39:12:82824,-6,-12,-23,-6,-11,-9,2,-5
15:39:12:90225,4,4,3,17,56,77,22,11
15:39:12:97815,4,4,3,17,56,77,22,11
15:39:12:105317,-6,4,19,18,4,-23,7,-2
15:39:12:112714,5,-20,-11,-18,-13,-8,-21,18
15:39:12:120992,5,-20,-11,-18,-13,-8,-21,18
15:39:12:121740,-14,-14,-5,-8,3,2,5,-2
15:39:12:136040,-2,2,-10,-24,-54,-92,-14,17
15:39:12:136748,-2,2,-10,-24,-54,-92,-14,17
15:39:12:142707,11,-2,3,11,36,12,12,0
15:39:12:150298,-2,10,-4,-6,20,-3,11,-6
15:39:12:157819,-2,10,-4,-6,20,-3,11,-6
15:39:12:165256,-3,14,-14,7,-29,-22,-9,-7
15:39:12:172797,-27,-16,10,8,15,8,0,5
15:39:12:180966,-27,-16,10,8,15,8,0,5
15:39:12:181769,9,6,4,-10,-27,-22,-20,-8
15:39:12:195942,5,-11,-5,15,19,3,-1,-7
15:39:12:196744,5,-11,-5,15,19,3,-1,-7
15:39:12:202769,0,-13,-7,-25,-21,-7,-8,2
15:39:12:210259,15,14,7,10,32,62,10,3
15:39:12:217890,15,14,7,10,32,62,10,3
15:39:12:225311,11,6,-14,-8,-32,-43,3,20
15:39:12:232823,-4,-1,-12,-4,50,62,-20,-2
15:39:12:240920,-4,-1,-12,-4,50,62,-20,-2
15:39:12:241729,14,-16,1,-1,9,-8,3,-6
15:39:12:256011,4,7,11,-4,-4,-36,-3,7
15:39:12:256794,4,7,11,-4,-4,-36,-3,7
15:39:12:262741,-11,8,-25,-6,-7,-15,-4,-1
15:39:12:270242,4,13,7,27,24,-6,7,-10
15:39:12:277741,4,13,7,27,24,-6,7,-10
15:39:12:285290,-3,4,21,16,-10,-14,-2,-6
15:39:12:292754,1,8,-1,-10,16,32,3,-1
15:39:12:301002,1,8,-1,-10,16,32,3,-1
15:39:12:301759,-23,-8,4,11,45,27,5,5
15:39:12:315981,4,-3,2,-7,-58,-52,-12,6
15:39:12:316739,4,-3,2,-7,-58,-52,-12,6
15:39:12:322779,-9,-18,-14,-9,-3,-10,-8,-17
15:39:12:330244,-19,-10,-9,4,-12,-13,0,-9
15:39:12:345993,-19,-10,-9,4,-12,-13,0,-9
15:39:12:346774,7,20,15,15,17,4,9,-13
15:39:12:352826,7,2,-6,-1,-10,-20,2,-1
15:39:12:360937,7,2,-6,-1,-10,-20,2,-1
15:39:12:361717,1,-3,-6,18,-19,-10,-7,9
15:39:12:375998,-2,12,12,-17,46,44,10,8
15:39:12:376802,-2,12,12,-17,46,44,10,8
15:39:12:382748,7,14,9,-27,-16,39,0,2
15:39:12:390261,0,17,15,6,-8,-5,-3,-17
15:39:12:397767,0,17,15,6,-8,-5,-3,-17
15:39:12:405303,-16,-6,-5,-11,-23,-36,1,4
15:39:12:412731,-2,-12,-19,-6,-19,-23,0,-2
15:39:12:421018,-2,-12,-19,-6,-19,-23,0,-2
15:39:12:421740,7,-6,8,-3,15,20,-4,0
15:39:12:435962,0,3,-2,-29,-23,-13,4,5
15:39:12:436802,0,3,-2,-29,-23,-13,4,5
15:39:12:442812,-12,-3,-3,-8,-4,-21,-14,-19
15:39:12:450324,9,4,2,99,-9,-3,13,4
15:39:12:457791,9,4,2,99,-9,-3,13,4
15:39:12:465254,5,1,-13,-6,13,5,7,-13
15:39:12:472787,-15,-22,-3,-46,-14,33,-2,-11
15:39:12:481015,-15,-22,-3,-46,-14,33,-2,-11
15:39:12:481770,0,4,4,4,10,-8,7,15
15:39:12:495921,2,-17,4,-22,-24,-24,0,16
15:39:12:496701,2,-17,4,-22,-24,-24,0,16
15:39:12:502737,4,-7,4,-2,26,17,-10,-12
15:39:12:510220,12,7,0,-6,-14,-4,-2,-3
15:39:12:517787,12,7,0,-6,-14,-4,-2,-3
15:39:12:525220,2,14,1,0,-11,-5,-2,20
15:39:12:532770,-12,-7,-14,9,18,1,-3,-35
15:39:12:540947,-12,-7,-14,9,18,1,-3,-35
15:39:12:541741,2,-10,-4,14,17,40,11,11
15:39:12:555966,-3,4,-3,-16,-5,-16,-8,-11
15:39:12:556766,-3,4,-3,-16,-5,-16,-8,-11
15:39:12:562740,-7,4,-17,-12,-21,-18,4,4
15:39:12:570243,-5,-4,-2,-2,-1,-14,-12,-5
15:39:12:577787,-5,-4,-2,-2,-1,-14,-12,-5
15:39:12:585262,-3,3,0,5,-4,2,6,16
15:39:12:592739,8,14,10,9,13,0,9,20
15:39:12:600987,8,14,10,9,13,0,9,20
15:39:12:601763,-11,8,-5,-12,-12,-10,-3,3
15:39:12:616041,-6,-4,-12,-5,-20,-40,-14,-1
15:39:12:616811,-6,-4,-12,-5,-20,-40,-14,-1
15:39:12:622747,6,-1,4,2,-3,20,-17,-13
15:39:12:638512,15,4,4,45,57,28,2,0
15:39:12:639285,15,4,4,45,57,28,2,0
15:39:12:645232,0,-4,-5,7,18,-4,6,-6
15:39:12:652804,-4,-9,-15,-10,-5,5,0,-8
15:39:12:660295,-4,-9,-15,-10,-5,5,0,-8
15:39:12:667833,-9,-9,5,0,-1,-11,-12,-10
15:39:12:675933,-10,-20,-7,-11,-10,-2,-7,-21
15:39:12:676725,-10,-20,-7,-11,-10,-2,-7,-21
15:39:12:682809,-10,-19,3,-2,-9,-2,0,15
15:39:12:698553,11,16,7,-11,9,36,24,22
15:39:12:699258,11,16,7,-11,9,36,24,22
15:39:12:713385,13,11,11,14,55,32,-13,-9
15:39:12:714176,3,3,6,35,-2,-10,-6,1
15:39:12:720374,3,3,6,35,-2,-10,-6,1
15:39:12:727719,-5,-8,0,5,-27,-25,8,0
15:39:12:736027,5,-10,-7,-12,0,4,6,14
15:39:12:736767,5,-10,-7,-12,0,4,6,14
15:39:12:742761,2,1,-10,-11,-18,-29,-5,-7
15:39:12:758482,-5,-8,3,-16,-3,4,9,19
15:39:12:759288,-5,-8,3,-16,-3,4,9,19
15:39:12:765265,0,11,2,-1,-10,-12,18,3
15:39:12:772760,-1,8,2,-10,-21,-15,-6,-14
15:39:12:780290,-1,8,2,-10,-21,-15,-6,-14
15:39:12:787781,0,-12,0,-7,3,28,-9,-4
15:39:12:795908,0,0,10,12,29,6,9,7
15:39:12:796703,0,0,10,12,29,6,9,7
15:39:12:802780,-7,-14,6,17,-3,-20,-7,-14
15:39:12:818414,2,19,9,-1,5,16,-12,-26
15:39:12:819191,2,19,9,-1,5,16,-12,-26
15:39:12:825259,-15,-3,6,-12,-21,-22,16,3
15:39:12:832771,10,-4,-6,-6,-12,-3,-4,2
15:39:12:840280,10,-4,-6,-6,-12,-3,-4,2
15:39:12:847798,6,0,6,-1,-14,-16,-8,12
15:39:12:855933,-1,2,-8,-12,1,18,20,19
15:39:12:856734,-1,2,-8,-12,1,18,20,19
15:39:12:862706,5,17,17,-23,-7,-2,1,-13
15:39:12:878417,-7,-5,-1,16,6,-5,-1,3
15:39:12:879220,-7,-5,-1,16,6,-5,-1,3
15:39:12:885208,-1,7,-3,-10,11,-2,-3,-7
15:39:12:892789,-9,-9,-4,-6,-2,10,-10,-8
15:39:12:900393,-9,-9,-4,-6,-2,10,-10,-8
15:39:12:907747,0,5,-5,-16,-2,5,-4,1
15:39:12:915960,-8,-9,-10,-4,-16,-13,-19,-2
15:39:12:916829,-8,-9,-10,-4,-16,-13,-19,-2
15:39:12:922699,-2,5,-4,0,-7,-2,-7,-4
15:39:12:938504,4,7,-2,-17,-12,-15,-3,4
15:39:12:939247,4,7,-2,-17,-12,-15,-3,4
15:39:12:945208,-4,-2,11,8,-6,-12,1,4
15:39:12:952763,0,-3,-12,4,21,21,7,-1
15:39:12:960279,0,-3,-12,4,21,21,7,-1
15:39:12:967743,-1,-2,-10,3,2,13,-3,5
15:39:12:975961,1,-44,10,8,21,-4,-8,17
15:39:12:976771,1,-44,10,8,21,-4,-8,17
15:39:12:990263,1,-7,0,30,12,-7,-6,-5
15:39:12:998487,-35,9,8,-13,-17,-11,1,-17
15:39:12:999299,-35,9,8,-13,-17,-11,1,-17
15:39:13:5250,-2,-7,-4,-2,0,-5,6,32
15:39:13:12714,-36,-9,-14,-1,29,21,-4,-22
15:39:13:20342,-36,-9,-14,-1,29,21,-4,-22
15:39:13:27721,-2,4,-3,-12,-18,-1,1,-3
15:39:13:36027,13,7,7,13,-8,-4,-10,11
15:39:13:36745,13,7,7,13,-8,-4,-10,11
15:39:13:42760,4,-8,-16,-13,-4,13,2,-30
15:39:13:58489,-6,4,-3,-17,-19,-27,-14,-24
15:39:13:59293,-6,4,-3,-17,-19,-27,-14,-24
15:39:13:65232,13,7,3,15,45,13,-10,6
15:39:13:72765,10,0,-1,1,-7,3,15,5
15:39:13:80307,10,0,-1,1,-7,3,15,5
15:39:13:87765,5,2,5,5,15,14,-7,-10
15:39:13:95918,17,22,9,2,0,8,38,31
15:39:13:96715,17,22,9,2,0,8,38,31
15:39:13:102780,-1,-7,-9,0,-4,8,3,8
15:39:13:118454,-12,10,-12,-10,-18,-23,-22,-21
15:39:13:119225,-12,10,-12,-10,-18,-23,-22,-21
15:39:13:125257,6,0,1,0,-1,-6,-2,-14
15:39:13:132754,-8,-18,-7,-10,0,-3,-4,-3
15:39:13:140293,-8,-18,-7,-10,0,-3,-4,-3
15:39:13:147778,1,-4,-3,-5,-14,-12,-5,-1
15:39:13:155939,19,-2,19,32,67,40,5,15
15:39:13:156747,19,-2,19,32,67,40,5,15
15:39:13:162709,-8,-12,-4,10,-6,-20,-17,-27
15:39:13:178426,2,3,10,-14,-39,-21,-1,6
15:39:13:179219,2,3,10,-14,-39,-21,-1,6
15:39:13:185276,-5,-11,2,-9,-20,-14,-2,21
15:39:13:192747,17,-9,4,14,10,12,9,5
15:39:13:200337,17,-9,4,14,10,12,9,5
15:39:13:207727,3,11,7,5,-11,-9,6,-7
15:39:13:215973,-1,0,-14,8,-4,11,-4,-18
15:39:13:216751,-1,0,-14,8,-4,11,-4,-18
15:39:13:222730,-6,0,-16,24,18,1,8,4
15:39:13:238550,7,8,2,-3,-29,-20,-6,0
15:39:13:239260,7,8,2,-3,-29,-20,-6,0
15:39:13:245207,-23,-24,-11,-2,20,15,5,7
15:39:13:252800,0,1,-7,-38,-17,-12,-12,4
15:39:13:268470,0,1,-7,-38,-17,-12,-12,4
15:39:13:269239,12,9,-13,-23,42,48,4,4
15:39:13:275933,1,-2,-5,-8,-5,-15,-10,-20
15:39:13:276745,1,-2,-5,-8,-5,-15,-10,-20
15:39:13:282800,10,24,10,-7,-36,-20,0,6
15:39:13:298465,-4,20,-11,-6,0,-9,1,5
15:39:13:299257,-4,20,-11,-6,0,-9,1,5
15:39:13:305313,-5,9,8,11,-1,-10,-5,-9
15:39:13:312786,-8,-7,-4,10,-5,-9,-4,-14
15:39:13:320355,-8,-7,-4,10,-5,-9,-4,-14
15:39:13:327722,10,2,-8,-14,-16,-3,-4,9
15:39:13:336016,2,-11,-17,7,-5,-17,-2,3
15:39:13:336813,2,-11,-17,7,-5,-17,-2,3
15:39:13:342753,-12,6,18,1,4,-6,-8,-17
15:39:13:358459,-9,-8,4,-14,-22,-14,-8,18
15:39:13:359256,-9,-8,4,-14,-22,-14,-8,18
15:39:13:365230,1,-7,-2,7,9,22,17,11
15:39:13:372717,-28,-11,-7,1,3,-1,-11,-6
15:39:13:388445,-28,-11,-7,1,3,-1,-11,-6
15:39:13:389282,-20,-13,11,-18,-9,8,4,6
15:39:13:395901,-6,-2,4,0,-1,3,6,5
15:39:13:396751,-6,-2,4,0,-1,3,6,5
15:39:13:402747,3,16,0,4,5,6,0,-1
15:39:13:426621,3,16,0,4,5,6,0,-1
15:39:13:427371,-6,4,-14,-18,-5,-4,-3,-23
15:39:13:428181,9,5,-3,-1,-1,-1,-3,-1
15:39:13:441029,9,5,-3,-1,-1,-1,-3,-1
15:39:13:441793,12,1,34,4,-1,-5,-5,-3
15:39:13:447789,-7,-10,-10,-3,-10,-10,-1,-13
15:39:13:455989,-7,-10,-10,-3,-10,-10,-1,-13
15:39:13:456745,3,-11,-14,-9,-6,-11,7,-2
15:39:13:462725,9,-6,-2,15,20,17,9,14
15:39:13:478479,9,-6,-2,15,20,17,9,14
15:39:13:479246,10,-3,-14,-1,20,28,13,10
15:39:13:485305,-12,-14,-7,10,15,-5,-14,-4
15:39:13:501031,-12,-14,-7,10,15,-5,-14,-4
15:39:13:501799,3,-9,-2,-4,-3,-6,-4,-17
15:39:13:516635,-4,-17,-4,-2,-23,-14,-13,-12
15:39:13:517424,-4,-17,-4,-2,-23,-14,-13,-12
15:39:13:518207,4,18,19,3,12,11,3,-5
15:39:13:522709,5,-3,-12,-4,-7,-9,1,-1
15:39:13:546608,5,-3,-12,-4,-7,-9,1,-1
15:39:13:547424,5,12,5,8,-4,-2,-14,-1
15:39:13:548185,-5,6,-2,-13,2,-1,-2,-3
15:39:13:560994,-5,6,-2,-13,2,-1,-2,-3
15:39:13:561747,1,-3,-9,15,10,15,2,17
15:39:13:567838,10,6,3,7,12,24,23,-12
15:39:13:575949,10,6,3,7,12,24,23,-12
15:39:13:576722,-11,-3,-5,-19,-40,-28,-2,-12
15:39:13:590271,-4,12,20,16,20,9,-6,7
15:39:13:598474,-4,12,20,16,20,9,-6,7
15:39:13:599271,-8,1,0,-7,0,-8,2,-7
15:39:13:605283,-6,-15,-14,-13,-23,-19,-4,-11
15:39:13:621086,-6,-15,-14,-13,-23,-19,-4,-11
15:39:13:621808,-12,15,-7,6,25,15,9,26
15:39:13:627702,2,-13,-6,-14,-23,-1,-16,5
15:39:13:635969,2,-13,-6,-14,-23,-1,-16,5
15:39:13:636760,6,1,-2,21,27,14,6,-1
15:39:13:650331,-6,-6,-5,0,5,8,1,-7
15:39:13:658508,-6,-6,-5,0,5,8,1,-7
15:39:13:659298,-4,0,10,-4,1,4,-4,-1
15:39:13:665291,9,-4,0,2,8,-9,4,5
15:39:13:681018,9,-4,0,2,8,-9,4,5
15:39:13:681828,10,-2,14,-26,-16,-7,1,21
15:39:13:687782,1,0,2,4,-13,-15,0,-3
15:39:13:695993,1,0,2,4,-13,-15,0,-3
15:39:13:696742,-2,-12,4,2,-7,14,-11,-7
15:39:13:710250,4,-4,-3,-11,1,-1,-6,-10
15:39:13:718491,4,-4,-3,-11,1,-1,-6,-10
15:39:13:719286,0,-2,-7,6,-10,-7,-7,-9
15:39:13:725231,0,3,0,5,19,3,6,-24
15:39:13:740980,0,3,0,5,19,3,6,-24
15:39:13:741755,3,-7,0,-9,-18,-15,-2,-8
15:39:13:747762,0,-17,1,-2,-11,-13,0,8
15:39:13:755959,0,-17,1,-2,-11,-13,0,8
15:39:13:756784,-9,-16,-9,0,-3,-13,-3,-9
15:39:13:770238,-6,1,-8,-5,-10,-2,6,15
15:39:13:778425,-6,1,-8,-5,-10,-2,6,15
15:39:13:779220,-1,7,0,13,16,35,1,25
15:39:13:792729,-12,9,4,-2,-4,-2,-11,2
15:39:13:800999,-12,9,4,-2,-4,-2,-11,2
15:39:13:801724,8,3,-11,-19,-25,-24,-8,-6
15:39:13:807687,4,6,-2,-17,-5,6,3,11
15:39:13:816075,4,6,-2,-17,-5,6,3,11
15:39:13:816802,-2,-4,2,12,8,-2,1,-8
15:39:13:830221,-22,-1,-59,-2,-9,-24,6,7
15:39:13:838512,-22,-1,-59,-2,-9,-24,6,7
15:39:13:839285,-12,0,-35,-3,22,28,6,-4
15:39:13:845236,8,6,17,1,-7,-7,1,-8
15:39:13:860942,8,6,17,1,-7,-7,1,-8
15:39:13:861736,4,-1,11,-1,-5,-5,-1,-16
15:39:13:867722,-5,-10,17,0,4,-5,-12,0
15:39:13:875944,-5,-10,17,0,4,-5,-12,0
15:39:13:876747,-2,-10,11,-18,-13,-9,-14,-11
15:39:13:890293,1,5,5,5,23,6,3,2
15:39:13:898446,1,5,5,5,23,6,3,2
15:39:13:899270,-4,3,9,41,13,-8,-18,-11
15:39:13:905248,-4,8,13,3,-12,8,-6,0
15:39:13:929132,-4,8,13,3,-12,8,-6,0
15:39:13:929930,-4,2,10,-11,0,-8,3,-15
15:39:13:930749,-2,-7,-3,-5,0,5,-9,-3
15:39:13:935953,-2,-7,-3,-5,0,5,-9,-3
15:39:13:936738,-27,-2,0,-14,-7,4,5,-1
15:39:13:950329,3,-5,3,-3,20,14,2,5
15:39:13:958501,3,-5,3,-3,20,14,2,5
15:39:13:959285,9,5,-8,-10,-7,-2,11,11
15:39:13:965298,10,2,-4,4,21,2,14,9
15:39:13:980999,10,2,-4,4,21,2,14,9
15:39:13:981770,9,5,4,-6,-3,-1,-5,7
15:39:13:987756,1,-8,2,2,-15,-14,-12,-1
15:39:13:995981,1,-8,2,2,-15,-14,-12,-1
15:39:13:996779,-10,-11,-2,0,-5,-12,9,10
15:39:14:10254,4,0,3,6,16,18,13,0
15:39:14:18502,4,0,3,6,16,18,13,0
15:39:14:19290,0,-2,-30,-10,-28,-9,7,-21
15:39:14:25251,2,5,-7,5,-5,-3,-6,-1
15:39:14:41018,2,5,-7,5,-5,-3,-6,-1
15:39:14:41804,-9,-8,3,2,8,0,3,2
15:39:14:47754,-3,8,-8,-7,-15,-10,-4,-5
15:39:14:55980,-3,8,-8,-7,-15,-10,-4,-5
15:39:14:56798,4,-8,7,7,6,2,-5,-6
15:39:14:70755,-8,-12,3,-6,0,6,-3,-5
15:39:14:78440,-8,-12,3,-6,0,6,-3,-5
15:39:14:79246,10,4,3,16,18,3,12,19
15:39:14:85259,6,4,8,3,-13,-11,1,-17
15:39:14:100981,6,4,8,3,-13,-11,1,-17
15:39:14:101740,7,3,7,5,8,1,4,11
15:39:14:107773,-2,6,-7,-12,-20,0,3,9
15:39:14:116014,-2,6,-7,-12,-20,0,3,9
15:39:14:116730,-1,20,2,2,9,-5,-6,-6
15:39:14:130190,-2,-4,-1,-2,-3,7,-1,4
15:39:14:138503,-2,-4,-1,-2,-3,7,-1,4
15:39:14:139265,6,6,-4,-3,-1,-1,-6,0
15:39:14:145220,-3,2,-3,-11,-18,-6,-15,-16
15:39:14:160942,-3,2,-3,-11,-18,-6,-15,-16
15:39:14:161712,14,-15,-6,17,25,14,5,-3
15:39:14:167728,6,4,17,-14,-9,-9,-10,-16
15:39:14:175976,6,4,17,-14,-9,-9,-10,-16
15:39:14:176774,2,-12,2,15,16,2,7,-2
15:39:14:190291,-11,2,-9,3,3,-4,7,-3
15:39:14:206587,-11,2,-9,3,3,-4,7,-3
15:39:14:207385,4,-2,-20,-16,-23,-18,-3,-6
15:39:14:208183,-6,-8,-3,-5,-8,2,-3,8
15:39:14:221023,-6,-8,-3,-5,-8,2,-3,8
15:39:14:221756,-2,6,7,-8,-3,-8,-6,-3
15:39:14:227728,3,-2,-8,-3,-4,-22,-9,-8
15:39:14:235974,3,-2,-8,-3,-4,-22,-9,-8
15:39:14:236726,-4,8,1,0,9,12,-13,-2
15:39:14:250342,-3,-8,9,3,-4,-13,-6,6
15:39:14:258430,-3,-8,9,3,-4,-13,-6,6
15:39:14:259254,-1,-2,-1,2,6,14,5,18
15:39:14:265279,1,-7,-7,3,6,9,9,10
15:39:14:280976,1,-7,-7,3,6,9,9,10
15:39:14:281713,-13,3,7,7,-18,-13,-17,-17
15:39:14:287820,0,2,1,8,6,-10,7,-5
15:39:14:295962,0,2,1,8,6,-10,7,-5
15:39:14:296736,4,-4,2,-8,1,9,6,0
15:39:14:310229,-23,-10,-13,-4,-2,-18,9,-11
15:39:14:318492,-23,-10,-13,-4,-2,-18,9,-11
15:39:14:319248,2,-12,-5,-9,-2,-8,-11,2
15:39:14:325204,7,9,1,-10,6,14,0,-9
15:39:14:341345,7,9,1,-10,6,14,0,-9
15:39:14:348144,-16,-4,-2,-22,-12,3,-5,5
15:39:14:356617,11,9,-2,1,5,-3,1,4
15:39:14:357379,11,9,-2,1,5,-3,1,4
15:39:14:358207,-4,-5,3,-11,-10,-6,-6,-24
15:39:14:379119,-5,-10,-5,-7,-23,-29,-18,-4
15:39:14:379888,-5,-10,-5,-7,-23,-29,-18,-4
15:39:14:380677,1,-9,-4,-2,15,21,17,26
15:39:14:392761,-8,2,11,18,22,8,5,2
15:39:14:400992,-8,2,11,18,22,8,5,2
15:39:14:401699,-4,-8,-25,-6,-21,-8,-11,-25
15:39:14:407776,1,3,10,0,-6,7,-5,2
15:39:14:415995,1,3,10,0,-6,7,-5,2
15:39:14:416742,8,5,2,-24,-21,-7,3,4
15:39:14:430274,-4,4,-4,-11,-5,1,-6,-7
15:39:14:438481,-4,4,-4,-11,-5,1,-6,-7
15:39:14:439266,1,-1,2,6,7,-9,-9,0
15:39:14:445230,1,1,1,-3,2,8,6,20
15:39:14:460904,1,1,1,-3,2,8,6,20
15:39:14:461696,-5,-13,-1,5,1,-8,14,0
15:39:14:467758,6,-10,-18,13,29,30,6,-2
15:39:14:475929,6,-10,-18,13,29,30,6,-2
15:39:14:476704,3,15,2,4,-8,-12,-3,12
15:39:14:490257,9,0,-3,10,0,1,-3,-3
15:39:14:498422,9,0,-3,10,0,1,-3,-3
15:39:14:499215,1,-1,1,1,-1,-5,0,1
15:39:14:512710,3,-7,-15,-19,-11,-9,-5,2
15:39:14:521044,3,-7,-15,-19,-11,-9,-5,2
15:39:14:521799,-3,6,6,5,14,16,-1,-3
15:39:14:527708,-10,-5,1,9,4,-4,-6,-5
15:39:14:535298,-10,-5,1,9,4,-4,-6,-5
15:39:14:542783,-4,-8,-6,6,-4,-12,-5,-5
15:39:14:550359,5,-4,8,-8,-8,5,9,20
15:39:14:558457,5,-4,8,-8,-8,5,9,20
15:39:14:559232,3,4,3,-2,1,-11,-2,5
15:39:14:572764,5,12,1,9,0,-5,-1,-2
15:39:14:580921,5,12,1,9,0,-5,-1,-2
15:39:14:581704,-5,-16,-11,0,-5,-9,-2,-8
15:39:14:587794,-26,-5,-4,-3,-8,-6,-7,-6
15:39:14:595260,-26,-5,-4,-3,-8,-6,-7,-6
15:39:14:602766,5,-4,5,-1,4,10,10,-23
15:39:14:610264,6,-22,-6,-5,-18,-11,-27,-8
15:39:14:625939,6,-22,-6,-5,-18,-11,-27,-8
15:39:14:626730,-6,-3,1,14,23,22,-7,6
15:39:14:632805,-3,7,5,1,16,14,4,-17
15:39:14:640952,-3,7,5,1,16,14,4,-17
15:39:14:641727,-9,-7,-11,-4,-5,-14,-9,8
15:39:14:647722,3,3,5,2,3,1,12,14
15:39:14:655320,3,3,5,2,3,1,12,14
15:39:14:662677,12,-2,1,5,0,18,3,-12
15:39:14:670275,6,-1,0,-6,-10,-4,4,-7
15:39:14:678447,6,-1,0,-6,-10,-4,4,-7
15:39:14:679227,2,19,6,-4,-8,0,1,2
15:39:14:692784,1,4,-7,-12,5,2,-1,-6
15:39:14:700968,1,4,-7,-12,5,2,-1,-6
15:39:14:701745,-8,10,-8,-19,-14,-14,2,-4
15:39:14:707708,5,13,7,3,17,1,9,13
15:39:14:715280,5,13,7,3,17,1,9,13
15:39:14:722755,0,3,12,-3,-9,-9,-8,9
15:39:14:730226,-4,6,-6,8,2,-3,-6,-1
15:39:14:738505,-4,6,-6,8,2,-3,-6,-1
15:39:14:739303,5,-2,-9,-5,-4,4,-4,1
15:39:14:752804,0,-10,1,-6,-8,-3,-5,-4
15:39:14:760933,0,-10,1,-6,-8,-3,-5,-4
15:39:14:761745,3,-2,-3,9,-17,-19,6,0
15:39:14:767756,-5,-14,-6,18,32,20,3,3
15:39:14:775334,-5,-14,-6,18,32,20,3,3
15:39:14:782771,-14,0,6,-1,-2,-13,-1,4
15:39:14:790265,-7,-3,2,0,-4,-3,4,4
15:39:14:799198,-7,-3,2,0,-4,-3,4,4
15:39:14:799949,-2,-15,2,2,-4,-3,-1,18
15:39:14:812751,8,8,1,-4,-6,4,-9,-9
15:39:14:821086,8,8,1,-4,-6,4,-9,-9
15:39:14:821849,-8,5,3,6,-4,13,-1,-10
15:39:14:827714,-1,3,1,-20,-15,-17,8,2
15:39:14:835305,-1,3,1,-20,-15,-17,8,2
15:39:14:850929,-2,-3,3,5,26,16,1,1
15:39:14:851707,-19,-1,-5,-13,-25,-16,-7,-8
15:39:14:858433,-19,-1,-5,-13,-25,-16,-7,-8
15:39:14:859286,1,18,-2,14,-11,-23,-6,-11
15:39:14:872740,10,0,3,9,12,10,11,-13
15:39:14:880985,10,0,3,9,12,10,11,-13
15:39:14:881763,-9,-9,-1,-12,6,6,2,5
15:39:14:887735,-4,-6,1,7,-12,-11,-5,-2
15:39:14:895316,-4,-6,1,7,-12,-11,-5,-2
15:39:14:902754,-3,-11,-4,-4,-2,3,-13,-15
15:39:14:910221,9,-3,8,1,1,18,30,30
15:39:14:918274,9,-3,8,1,1,18,30,30
15:39:14:925291,-20,-15,5,5,20,5,10,15
15:39:14:932805,9,-13,-14,0,-12,-15,-22,-3
15:39:14:941001,9,-13,-14,0,-12,-15,-22,-3
15:39:14:941781,18,16,-5,0,23,28,1,-5
15:39:14:947714,-8,2,2,-3,2,-1,-6,-8
15:39:14:955354,-8,2,2,-3,2,-1,-6,-8
15:39:14:962755,0,4,-1,-14,-18,-19,-11,-8
15:39:14:970271,6,13,1,1,12,15,0,0
15:39:14:978465,6,13,1,1,12,15,0,0
15:39:14:979264,6,4,-2,-2,-13,-7,-1,-17
15:39:14:992747,-15,-3,-3,-7,-16,-26,1,-1
15:39:15:1009,-15,-3,-3,-7,-16,-26,1,-1
15:39:15:1727,3,-13,-2,3,25,20,6,20
15:39:15:7730,-16,-18,0,2,9,-3,-10,-27
15:39:15:15287,-16,-18,0,2,9,-3,-10,-27
15:39:15:22765,20,2,1,-11,-9,0,3,13
15:39:15:30228,-2,11,7,1,3,5,-6,0
15:39:15:38487,-2,11,7,1,3,5,-6,0
15:39:15:39285,-5,-10,3,6,-1,2,-3,-12
15:39:15:52772,7,2,-6,-8,-3,0,-1,4
15:39:15:60950,7,2,-6,-8,-3,0,-1,4
15:39:15:61750,1,-10,1,-24,-17,-12,0,-2
15:39:15:67776,0,4,-2,7,-1,5,-3,2
15:39:15:75316,0,4,-2,7,-1,5,-3,2
15:39:15:82776,-12,3,-8,1,-9,-14,-8,5
15:39:15:90247,1,7,-6,-3,12,19,3,-11
15:39:15:98450,1,7,-6,-3,12,19,3,-11
15:39:15:99228,6,12,1,39,1,-5,19,10
15:39:15:112738,-3,5,5,1,-1,-7,-12,-1
15:39:15:120994,-3,5,5,1,-1,-7,-12,-1
15:39:15:121746,-6,-4,-14,-14,-5,-3,-6,-7
15:39:15:127740,-3,-10,-2,4,-4,-3,-6,-7
15:39:15:135312,-3,-10,-2,4,-4,-3,-6,-7
15:39:15:142794,-6,11,-2,-23,-27,-43,-11,6
15:39:15:150318,-1,-6,-3,8,25,30,15,-10
15:39:15:158481,-1,-6,-3,8,25,30,15,-10
15:39:15:159282,6,9,-1,-11,-13,-4,-6,-8
15:39:15:172789,-12,-4,7,-12,-13,-20,-12,-27
15:39:15:180933,-12,-4,7,-12,-13,-20,-12,-27
15:39:15:181717,-5,-2,-4,5,15,3,8,3
15:39:15:187827,7,-3,7,-2,2,7,-11,0
15:39:15:195251,7,-3,7,-2,2,7,-11,0
15:39:15:202776,-8,-6,-2,-1,4,-8,-5,-14
15:39:15:210268,14,1,-1,-2,-4,-2,-2,-2
15:39:15:226003,14,1,-1,-2,-4,-2,-2,-2
15:39:15:226804,12,-17,1,10,7,5,8,23
15:39:15:232841,-6,-6,-6,-5,-21,-18,-1,3
15:39:15:240940,-6,-6,-6,-5,-21,-18,-1,3
15:39:15:241727,0,-9,7,5,6,3,-5,-10
15:39:15:247774,-2,-9,-3,6,13,1,1,12
15:39:15:255394,-2,-9,-3,6,13,1,1,12
15:39:15:262711,-1,1,0,-4,5,23,2,9
15:39:15:270274,-3,-6,-13,-6,-5,-10,-2,6
15:39:15:278422,-3,-6,-13,-6,-5,-10,-2,6
15:39:15:279224,-7,-7,-6,-2,-10,-1,-6,-5
15:39:15:292724,9,1,4,7,11,7,-5,-7
15:39:15:301028,9,1,4,7,11,7,-5,-7
15:39:15:301717,-8,2,-4,6,-13,-5,-7,-7
15:39:15:307741,-6,10,7,2,31,18,11,8
15:39:15:315297,-6,10,7,2,31,18,11,8
15:39:15:322768,-6,5,8,14,17,6,0,-24
15:39:15:330224,-10,1,-4,-14,-13,-22,1,1
15:39:15:338529,-10,1,-4,-14,-13,-22,1,1
15:39:15:339273,0,5,-5,-19,-10,0,-6,7
15:39:15:353517,-5,-4,3,3,-2,0,-3,6
15:39:15:354243,-5,-4,3,3,-2,0,-3,6
15:39:15:360232,-2,-6,-4,-8,-7,-3,-7,-5
15:39:15:367770,1,-1,-5,-4,-14,-3,-9,9
15:39:15:375314,1,-1,-5,-4,-14,-3,-9,9
15:39:15:382827,-2,-4,-1,12,11,4,6,14
15:39:15:390259,4,27,-2,-2,-3,8,11,-14
15:39:15:398426,4,27,-2,-2,-3,8,11,-14
15:39:15:399190,4,5,8,-9,-1,1,4,-4
15:39:15:413435,8,0,-7,-2,-2,-2,1,5
15:39:15:414272,8,0,-7,-2,-2,-2,1,5
15:39:15:420278,5,1,2,3,-2,-4,2,-9
15:39:15:427735,2,-16,-7,-4,-17,-18,1,1
15:39:15:435286,2,-16,-7,-4,-17,-18,1,1
15:39:15:442772,-4,-7,5,0,14,33,-6,-29
15:39:15:450334,-6,-12,3,4,10,12,12,6
15:39:15:457781,-6,-12,3,4,10,12,12,6
15:39:15:465201,-12,2,-7,-7,-16,-8,-6,-14
15:39:15:473187,-1,11,2,-4,9,-2,-5,-5
15:39:15:480974,-1,11,2,-4,9,-2,-5,-5
15:39:15:481730,-7,5,-11,-14,-9,-19,-7,-10
15:39:15:495922,0,-9,2,-10,-5,-3,-8,8
15:39:15:496717,0,-9,2,-10,-5,-3,-8,8
15:39:15:502809,-6,0,3,3,3,9,0,6
15:39:15:510225,5,-13,-5,2,-9,-8,-17,15
15:39:15:517814,5,-13,-5,2,-9,-8,-17,15
15:39:15:525234,-15,7,-2,-3,0,2,13,12
15:39:15:532791,-5,1,0,16,0,7,6,-13
15:39:15:540981,-5,1,0,16,0,7,6,-13
15:39:15:541776,9,-4,8,5,17,5,-5,13
15:39:15:555955,-3,-25,-5,-14,-6,-2,2,0
15:39:15:556801,-3,-25,-5,-14,-6,-2,2,0
15:39:15:562695,2,-12,-4,8,1,-2,-8,-5
15:39:15:570325,5,5,2,-8,-13,-9,-2,24
15:39:15:577776,5,5,2,-8,-13,-9,-2,24
15:39:15:585298,7,-8,-4,12,6,-4,2,-17
15:39:15:593438,-7,0,-4,-2,-12,16,-7,-28
15:39:15:594284,-7,0,-4,-2,-12,16,-7,-28
15:39:15:600281,13,12,7,12,23,13,16,26
15:39:15:615996,8,12,-17,-6,-18,-23,-11,-3
15:39:15:616746,8,12,-17,-6,-18,-23,-11,-3
15:39:15:622726,-11,-9,-10,-14,-11,-2,-6,-17
15:39:15:630218,-5,-1,-9,-1,18,5,2,6
15:39:15:637842,-5,-1,-9,-1,18,5,2,6
15:39:15:645241,8,-7,-1,-1,-13,-13,-1,13
15:39:15:653477,-5,1,3,-7,-13,-3,2,-15
15:39:15:654260,-5,1,3,-7,-13,-3,2,-15
15:39:15:660286,-1,5,4,18,8,-8,-5,-5
15:39:15:675984,3,5,3,13,28,25,5,2
15:39:15:676805,3,5,3,13,28,25,5,2
15:39:15:682832,10,17,6,4,-3,-7,6,10
15:39:15:690251,-9,-6,2,14,-3,-11,-6,-19
15:39:15:697791,-9,-6,2,14,-3,-11,-6,-19
15:39:15:705266,2,-4,-7,-1,-3,-1,6,22
15:39:15:713405,4,-15,8,1,3,3,15,4
15:39:15:714217,4,-15,8,1,3,3,15,4
15:39:15:720235,1,-6,-1,-1,-18,-6,-10,-10
15:39:15:735963,-3,-5,-1,-7,-7,-12,-5,3
15:39:15:736714,-3,-5,-1,-7,-7,-12,-5,3
15:39:15:742756,-5,-5,-6,2,2,-15,-7,-13
15:39:15:750291,-3,5,-5,23,12,3,-1,2
15:39:15:757787,-3,5,-5,23,12,3,-1,2
15:39:15:765215,-4,-6,-7,-22,-13,-7,-7,-26
15:39:15:773419,-10,-2,0,-15,-15,-7,5,-16
15:39:15:774235,-10,-2,0,-15,-15,-7,5,-16
15:39:15:780192,-2,-12,-10,1,16,13,6,13
15:39:15:795914,-4,-2,-19,-9,-9,-4,-14,-5
15:39:15:796702,-4,-2,-19,-9,-9,-4,-14,-5
15:39:15:802725,-12,-3,5,-9,-1,24,8,1
15:39:15:810225,5,16,2,0,-5,-35,-8,6
15:39:15:817789,5,16,2,0,-5,-35,-8,6
15:39:15:825236,9,-2,-1,-3,-13,22,3,5
15:39:15:832752,2,4,8,2,-4,5,4,-10
15:39:15:840957,2,4,8,2,-4,5,4,-10
15:39:15:841765,-4,-3,-1,-28,-40,-34,-15,-2
15:39:15:855931,-2,3,5,1,33,17,14,20
15:39:15:856750,-2,3,5,1,33,17,14,20
15:39:15:862707,-4,4,-2,0,15,-24,-4,-24
15:39:15:870275,-5,-5,-2,-5,-8,19,7,3
15:39:15:886028,-5,-5,-2,-5,-8,19,7,3
15:39:15:886774,10,3,0,3,26,23,-6,7
15:39:15:893439,-10,-3,1,13,-6,-18,-2,1
15:39:15:894279,-10,-3,1,13,-6,-18,-2,1
15:39:15:900279,-1,4,5,-2,-9,-14,1,5
15:39:15:915946,-7,-10,-6,-9,-8,-1,-7,-32
15:39:15:916754,-7,-10,-6,-9,-8,-1,-7,-32
15:39:15:922717,1,4,-2,2,4,-14,0,8
15:39:15:930216,2,-1,-3,-2,12,14,-5,11
15:39:15:937829,2,-1,-3,-2,12,14,-5,11
15:39:15:953399,-9,-3,-7,-21,-38,-32,-23,-20
15:39:15:954213,12,3,6,16,62,34,23,13
15:39:15:960962,12,3,6,16,62,34,23,13
15:39:15:961740,6,-4,-2,2,-1,-16,7,10
15:39:15:975952,2,1,2,3,-23,-15,-15,-16
15:39:15:976764,2,1,2,3,-23,-15,-15,-16
15:39:15:982832,-3,-1,1,2,0,6,-2,7
15:39:15:990283,-6,-4,7,-6,-25,-28,-8,-3
15:39:15:997755,-6,-4,7,-6,-25,-28,-8,-3
15:39:16:5285,-1,-1,7,-1,8,23,1,-15
15:39:16:12746,3,-1,1,-10,-23,-30,-14,3
15:39:16:20979,3,-1,1,-10,-23,-30,-14,3
15:39:16:21729,2,-4,5,6,17,35,9,18
15:39:16:35990,-10,3,4,0,11,6,-3,3
15:39:16:36737,-10,3,4,0,11,6,-3,3
15:39:16:42701,-5,1,-6,-11,-19,-17,-5,-10
15:39:16:50319,0,3,-9,-15,-2,1,0,2
15:39:16:57789,0,3,-9,-15,-2,1,0,2
15:39:16:65236,-2,-4,5,12,7,18,9,-2
15:39:16:73471,4,-1,-2,-11,-12,-6,-13,-14
15:39:16:74241,4,-1,-2,-11,-12,-6,-13,-14
15:39:16:80235,-19,-2,-4,0,10,-10,-6,3
15:39:16:95924,0,-7,4,-6,-40,1,-4,-2
15:39:16:96768,0,-7,4,-6,-40,1,-4,-2
15:39:16:102737,-3,4,-9,3,12,33,-6,-12
15:39:16:110212,-5,2,0,4,19,16,20,11
15:39:16:117876,-5,2,0,4,19,16,20,11
15:39:16:125255,-4,1,-8,2,-17,-32,-10,-10
15:39:16:132805,1,12,1,-3,-6,2,-5,-12
15:39:16:140939,1,12,1,-3,-6,2,-5,-12
15:39:16:141728,12,0,-6,10,-11,-59,-1,22
15:39:16:155992,-9,-1,5,15,74,36,23,7
15:39:16:156774,-9,-1,5,15,74,36,23,7
15:39:16:162714,-1,-2,1,-10,-29,-74,2,0
15:39:16:170249,10,2,-2,3,3,27,-9,-2
15:39:16:177724,10,2,-2,3,3,27,-9,-2
15:39:16:185308,6,3,7,18,9,21,16,7
15:39:16:193419,-6,-11,-8,-3,-27,-35,-17,-17
15:39:16:194254,-6,-11,-8,-3,-27,-35,-17,-17
15:39:16:200281,6,-6,-5,-5,-7,16,-5,0
15:39:16:216026,4,-3,-1,22,19,36,17,28
15:39:16:216725,4,-3,-1,22,19,36,17,28
15:39:16:230939,0,1,-2,-6,24,17,2,0
15:39:16:231705,-11,-11,-6,-3,21,74,-5,-12
15:39:16:237849,-11,-11,-6,-3,21,74,-5,-12
15:39:16:245225,9,11,10,-4,18,21,17,17
15:39:16:252821,-4,-5,-6,-20,-58,-88,-14,3
15:39:16:260929,-4,-5,-6,-20,-58,-88,-14,3
15:39:16:261693,-9,-10,1,-14,-5,18,-4,-24
15:39:16:275934,2,6,1,6,1,-17,-3,-6
15:39:16:276742,2,6,1,6,1,-17,-3,-6
15:39:16:282793,7,4,-8,-6,-6,-9,-15,-11
15:39:16:290259,1,2,0,-6,4,6,10,-16
15:39:16:297769,1,2,0,-6,4,6,10,-16
15:39:16:305271,-6,-10,-4,-23,-10,6,-3,1
15:39:16:312721,12,3,5,22,17,16,16,23
15:39:16:320961,12,3,5,22,17,16,16,23
15:39:16:321747,1,1,-7,-5,-21,-12,-5,-9
15:39:16:335990,9,4,3,-5,-8,-10,-1,22
15:39:16:336752,9,4,3,-5,-8,-10,-1,22
15:39:16:342748,-6,4,-3,-2,-1,0,-8,5
15:39:16:350326,-3,-3,-3,6,14,0,9,10
15:39:16:357796,-3,-3,-3,6,14,0,9,10
15:39:16:365202,-7,-4,-7,8,4,4,-1,-6
15:39:16:373439,-12,-5,-4,-18,-38,-31,-12,-6
15:39:16:374255,-12,-5,-4,-18,-38,-31,-12,-6
15:39:16:380192,10,7,9,35,43,30,10,21
15:39:16:395918,-3,0,-8,-19,1,-5,-8,-12
15:39:16:396715,-3,0,-8,-19,1,-5,-8,-12
15:39:16:402751,-1,1,-5,15,4,7,-1,5
15:39:16:418428,-4,3,-3,-14,-11,-2,-2,0
15:39:16:419252,-4,3,-3,-14,-11,-2,-2,0
15:39:16:425205,-5,-5,-2,-9,-17,-8,0,-19
15:39:16:433489,-3,-5,-1,-6,1,-3,-9,-9
15:39:16:434232,-3,-5,-1,-6,1,-3,-9,-9
15:39:16:447773,-6,-5,-14,1,-2,-2,-5,-6
15:39:16:455944,4,10,6,-17,-12,-8,6,-23
15:39:16:456766,4,10,6,-17,-12,-8,6,-23
15:39:16:462685,-3,-20,1,33,-1,-9,-8,-14
15:39:16:478411,-1,-4,-5,4,3,2,-14,7
15:39:16:479203,-1,-4,-5,4,3,2,-14,7
15:39:16:485287,-1,-9,0,-13,-5,-14,8,5
15:39:16:493455,-3,-5,-8,15,5,4,0,7
15:39:16:494246,-3,-5,-8,15,5,4,0,7
15:39:16:507799,2,17,16,-1,-2,-4,-1,1
15:39:16:515961,-5,-6,6,8,-15,-6,-3,-11
15:39:16:516787,-5,-6,6,8,-15,-6,-3,-11
15:39:16:522774,2,-9,1,-11,6,9,0,11
15:39:16:538536,1,3,0,2,4,8,-4,-10
15:39:16:539250,1,3,0,2,4,8,-4,-10
15:39:16:545236,9,11,9,20,27,25,7,6
15:39:16:553481,-6,-8,-4,-11,-27,-50,-7,2
15:39:16:554235,-6,-8,-4,-11,-27,-50,-7,2
15:39:16:567754,1,4,-5,-11,14,17,4,-10
15:39:16:575925,-2,9,0,15,-1,-8,4,5
15:39:16:576747,-2,9,0,15,-1,-8,4,5
15:39:16:582769,3,5,-11,-9,-14,-8,-16,-8
15:39:16:598492,15,1,2,-5,12,8,10,17
15:39:16:599293,15,1,2,-5,12,8,10,17
15:39:16:605292,-11,-4,1,-12,-20,-38,-10,11
15:39:16:613410,-2,2,11,4,32,50,12,12
15:39:16:614243,-2,2,11,4,32,50,12,12
15:39:16:627712,-10,-1,-1,-7,-27,-26,-3,-2
15:39:16:636010,-9,-14,0,0,2,1,-3,-9
15:39:16:636797,-9,-14,0,0,2,1,-3,-9
15:39:16:642760,2,-8,4,-12,-12,2,0,-6
15:39:16:658495,2,3,-6,-1,5,2,-9,-10
15:39:16:659289,2,3,-6,-1,5,2,-9,-10
15:39:16:665277,1,-4,0,1,4,3,1,-3
15:39:16:673507,1,-4,-12,3,-12,-7,5,7
15:39:16:674308,1,-4,-12,3,-12,-7,5,7
15:39:16:687836,-3,3,0,3,16,30,15,8
15:39:16:695961,3,1,1,13,-1,-10,-10,-4
15:39:16:696766,3,1,1,13,-1,-10,-10,-4
15:39:16:702799,3,-4,1,8,1,-6,-15,2
15:39:16:718475,5,4,2,-8,3,6,5,-1
15:39:16:719306,5,4,2,-8,3,6,5,-1
15:39:16:725231,-15,-3,-2,-9,-1,6,1,-11
15:39:16:733499,-21,-20,-14,-5,-3,1,-11,-3
15:39:16:734301,-21,-20,-14,-5,-3,1,-11,-3
15:39:16:747750,2,8,0,-16,-8,1,-1,-2
15:39:16:755984,2,8,0,-16,-8,1,-1,-2
15:39:16:756787,-2,11,0,-12,7,-3,2,2
15:39:16:762702,-2,-3,0,-1,6,0,15,17
15:39:16:778448,-2,-3,0,-1,6,0,15,17
15:39:16:779234,-2,-11,0,-11,-14,-11,-1,1
15:39:16:785270,-5,-6,3,4,-1,-1,-7,-29
15:39:16:800971,-5,-6,3,4,-1,-1,-7,-29
15:39:16:801747,16,6,2,5,-3,-11,-4,8
15:39:16:807706,-2,-8,-6,5,18,19,7,-2
15:39:16:816008,-2,-8,-6,5,18,19,7,-2
15:39:16:816771,-5,1,-1,1,-12,-10,-5,-13
15:39:16:822732,1,-1,0,-5,-8,-39,-7,0
15:39:16:838472,1,-1,0,-5,-8,-39,-7,0
15:39:16:839266,4,-3,-8,16,22,7,5,-7
15:39:16:845167,1,0,-2,0,-8,-2,2,11
15:39:16:860969,1,0,-2,0,-8,-2,2,11
15:39:16:861709,-5,-13,-3,-16,-19,-8,-9,-3
15:39:16:867742,2,4,9,13,12,11,-7,-7
15:39:16:875958,2,4,9,13,12,11,-7,-7
15:39:16:876809,-5,4,6,-13,-11,3,-6,-3
15:39:16:882736,7,-7,-16,-8,-7,-9,-6,7
15:39:16:898467,7,-7,-16,-8,-7,-9,-6,7
15:39:16:899248,-9,0,-14,3,1,-4,1,-11
15:39:16:905219,1,5,7,-10,-24,-28,-20,3
15:39:16:912758,1,5,7,-10,-24,-28,-20,3
15:39:16:920261,3,0,2,5,-2,35,9,16
15:39:16:927692,-3,8,-3,-8,3,9,10,-6
15:39:16:936040,-3,8,-3,-8,3,9,10,-6
15:39:16:936759,-4,-3,3,4,-11,-15,-5,-4
15:39:16:942732,-6,-4,-10,-14,-8,0,-7,-8
15:39:16:958495,-6,-4,-10,-14,-8,0,-7,-8
15:39:16:959233,6,0,7,2,14,9,2,1
15:39:16:965215,-4,-4,-2,0,3,6,6,3
15:39:16:972811,-4,-4,-2,0,3,6,6,3
15:39:16:980229,-1,0,1,6,9,-6,2,4
15:39:16:987775,-3,3,14,0,-4,12,-2,-15
15:39:16:995940,-3,3,14,0,-4,12,-2,-15
15:39:16:996752,-1,-1,2,0,-7,-10,-5,-14
15:39:17:2738,2,-1,-6,1,-3,-8,-12,-3
15:39:17:18515,2,-1,-6,1,-3,-8,-12,-3
15:39:17:19254,-1,1,-15,-1,-3,-11,1,5
15:39:17:25230,0,1,3,2,0,0,3,-3
15:39:17:40991,0,1,3,2,0,0,3,-3
15:39:17:41762,-1,-2,-3,-6,-2,-2,-11,4
15:39:17:47734,0,-7,-2,4,9,4,0,-2
15:39:17:55994,0,-7,-2,4,9,4,0,-2
15:39:17:56791,-3,-3,2,19,4,-23,-9,8
15:39:17:62711,7,-6,-2,11,23,27,4,2
15:39:17:78471,7,-6,-2,11,23,27,4,2
15:39:17:79235,-8,-3,6,-5,-5,-18,-14,-24
15:39:17:85265,8,7,0,-4,-11,10,1,13
15:39:17:100938,8,7,0,-4,-11,10,1,13
15:39:17:101727,8,8,-13,-10,9,7,15,8
15:39:17:116616,-7,6,4,-15,-41,-37,-8,11
15:39:17:117378,-7,6,4,-15,-41,-37,-8,11
15:39:17:118184,7,-2,4,-2,18,44,18,12
15:39:17:122735,-5,-7,-3,5,-5,-14,4,-4
15:39:17:138455,-5,-7,-3,5,-5,-14,4,-4
15:39:17:139210,-12,-14,1,19,-11,14,3,-15
15:39:17:145208,8,3,7,18,16,7,5,10
15:39:17:152822,8,3,7,18,16,7,5,10
15:39:17:160200,-8,-4,-5,-22,-39,13,0,-9
15:39:17:167751,11,6,-2,1,4,-16,-30,3
15:39:17:175951,11,6,-2,1,4,-16,-30,3
15:39:17:176754,-6,6,1,-10,-8,-4,-1,5
15:39:17:182813,-7,-10,-8,-7,-43,-57,0,-8
15:39:17:198516,-7,-10,-8,-7,-43,-57,0,-8
15:39:17:199235,2,-2,7,12,66,41,2,2
15:39:17:205312,-8,-3,-4,-3,18,15,12,-7
15:39:17:212780,-8,-3,-4,-3,18,15,12,-7
15:39:17:220212,-6,-8,-1,-19,-31,-75,-16,-14
15:39:17:227693,-8,-11,-3,15,28,49,5,-22
15:39:17:236042,-8,-11,-3,15,28,49,5,-22
15:39:17:236776,7,1,0,-6,-17,-31,-14,-10
15:39:17:242706,-2,0,-3,-5,1,6,2,-2
15:39:17:258438,-2,0,-3,-5,1,6,2,-2
15:39:17:259238,3,3,-10,-7,-9,0,-1,3
15:39:17:265265,-5,-3,-2,15,14,14,4,5
15:39:17:272800,-5,-3,-2,15,14,14,4,5
15:39:17:280219,3,1,4,19,1,0,6,9
15:39:17:287774,-8,-5,-6,-5,-12,-11,-6,-4
15:39:17:295716,-8,-5,-6,-5,-12,-11,-6,-4
15:39:17:303488,2,4,1,0,25,32,-3,2
15:39:17:304180,-12,-1,3,-3,7,2,-1,-4
15:39:17:318507,-12,-1,3,-3,7,2,-1,-4
15:39:17:319285,-7,-6,5,-7,-5,2,-13,-31
15:39:17:325239,-2,4,3,-3,7,9,4,-3
15:39:17:340997,-2,4,3,-3,7,9,4,-3
15:39:17:341766,-4,14,5,-11,-9,-13,0,9
15:39:17:347747,1,-3,-6,-6,-6,-5,5,8
15:39:17:355977,1,-3,-6,-6,-6,-5,5,8
15:39:17:356739,7,4,-3,1,8,3,3,6
15:39:17:370308,7,0,-9,-13,-10,-3,10,4
15:39:17:378421,7,0,-9,-13,-10,-3,10,4
15:39:17:379283,5,-4,0,31,38,16,4,-19
15:39:17:385219,5,-7,-2,-16,-20,-24,-5,-1
15:39:17:392821,5,-7,-2,-16,-20,-24,-5,-1
15:39:17:400302,-5,-5,-9,-3,5,15,5,24
15:39:17:407771,-19,-5,1,-11,9,-4,-5,-13
15:39:17:416074,-19,-5,1,-11,9,-4,-5,-13
15:39:17:416810,-3,-1,0,-4,-3,-9,9,3
15:39:17:430250,13,12,8,12,15,22,6,12
15:39:17:438517,13,12,8,12,15,22,6,12
15:39:17:439267,-12,3,-2,-10,-13,-32,-9,0
15:39:17:445204,-7,-5,3,3,3,2,-2,-13
15:39:17:452872,-7,-5,3,3,3,2,-2,-13
15:39:17:460239,0,8,6,-6,-1,8,2,-19
15:39:17:467745,0,9,-16,-12,-18,-7,-13,1
15:39:17:475903,0,9,-16,-12,-18,-7,-13,1
15:39:17:476737,6,-1,-6,-9,5,8,-7,5
15:39:17:490247,-2,-5,3,-1,3,-3,3,8
15:39:17:498448,-2,-5,3,-1,3,-3,3,8
15:39:17:499258,-3,-6,1,2,-22,-20,-3,15
15:39:17:505231,2,-6,3,8,2,7,-20,6
15:39:17:512738,2,-6,3,8,2,7,-20,6
15:39:17:520253,6,3,-1,2,11,1,-4,8
15:39:17:527746,5,5,-4,-3,-11,-24,-9,1
15:39:17:536037,5,5,-4,-3,-11,-24,-9,1
15:39:17:536743,0,-2,-5,5,6,19,22,18
15:39:17:550289,-11,1,5,8,3,5,6,3
15:39:17:558450,-11,1,5,8,3,5,6,3
15:39:17:559254,-3,-4,-1,-14,-19,-16,-8,-19
15:39:17:565263,5,1,4,-10,-17,15,-2,-7
15:39:17:572804,5,1,4,-10,-17,15,-2,-7
15:39:17:580225,-4,-23,-20,3,1,-8,-7,-8
15:39:17:587749,-11,-1,2,-1,-20,-30,-13,-9
15:39:17:595944,-11,-1,2,-1,-20,-30,-13,-9
15:39:17:596717,3,5,2,8,18,17,4,9
15:39:17:610276,10,1,-2,2,22,27,22,7
15:39:17:618474,10,1,-2,2,22,27,22,7
15:39:17:619222,-6,-1,1,-11,-35,-23,-3,-5
15:39:17:625253,3,5,-1,8,16,-4,8,-3
15:39:17:632818,3,5,-1,8,16,-4,8,-3
15:39:17:640263,3,-4,-3,-3,-14,-16,-5,-4
15:39:17:647733,4,-10,-8,21,22,12,10,20
15:39:17:655984,4,-10,-8,21,22,12,10,20
15:39:17:656778,1,0,4,7,0,-2,2,8
15:39:17:670247,-12,5,7,-11,9,18,-1,13
15:39:17:678460,-12,5,7,-11,9,18,-1,13
15:39:17:679240,0,3,-1,-13,-35,-13,-2,-8
15:39:17:685249,9,14,10,5,11,28,8,2
15:39:17:692814,9,14,10,5,11,28,8,2
15:39:17:700295,-13,-2,1,-8,-15,-21,-14,-9
15:39:17:707735,-10,-14,-5,-6,2,-11,-6,-26
15:39:17:723475,-10,-14,-5,-6,2,-11,-6,-26
15:39:17:724258,5,0,-1,3,5,7,7,5
15:39:17:730193,0,0,-3,8,-1,-4,-7,-9
15:39:17:738503,0,0,-3,8,-1,-4,-7,-9
15:39:17:739253,0,3,4,11,14,8,0,-6
15:39:17:745204,9,-2,-2,7,-8,-9,-10,-11
15:39:17:752877,9,-2,-2,7,-8,-9,-10,-11
15:39:17:760259,-6,-13,1,-2,-11,-1,-2,-29
15:39:17:767753,1,-16,-22,-2,-17,1,1,5
15:39:17:775911,1,-16,-22,-2,-17,1,1,5
15:39:17:776736,6,-12,20,0,9,4,6,8
15:39:17:790275,-9,0,-7,-16,-10,-9,7,5
15:39:17:798454,-9,0,-7,-16,-10,-9,7,5
15:39:17:799218,1,0,-4,1,0,-8,3,4
15:39:17:805237,-2,2,5,11,7,-5,-9,-8
15:39:17:812744,-2,2,5,11,7,-5,-9,-8
15:39:17:820285,5,14,1,11,21,6,-2,14
15:39:17:827731,-1,5,4,-1,4,18,-9,5
15:39:17:835995,-1,5,4,-1,4,18,-9,5
15:39:17:836749,-3,3,-1,5,24,10,7,-1
15:39:17:850337,2,1,-1,-8,-16,-31,-3,-6
15:39:17:858452,2,1,-1,-8,-16,-31,-3,-6
15:39:17:859244,-9,-5,-6,-6,-7,16,-12,16
15:39:17:865294,-8,-6,-12,-5,-2,-6,-3,-3
15:39:17:872807,-8,-6,-12,-5,-2,-6,-3,-3
15:39:17:880221,-3,1,-10,-5,-12,5,7,-6
15:39:17:887808,0,-1,1,-10,-7,-8,8,-20
15:39:17:895916,0,-1,1,-10,-7,-8,8,-20
15:39:17:896758,1,5,0,-7,0,-15,-2,-6
15:39:17:910295,11,-3,8,-4,3,12,2,9
15:39:17:918476,11,-3,8,-4,3,12,2,9
15:39:17:919268,1,-4,-4,-2,8,2,1,8
15:39:17:925214,-1,0,3,27,15,1,0,3
15:39:17:932873,-1,0,3,27,15,1,0,3
15:39:17:940248,-10,0,-6,-17,-28,2,-9,-2
15:39:17:947730,-6,-8,-6,-11,5,6,7,-1
15:39:17:956000,-6,-8,-6,-11,5,6,7,-1
15:39:17:956761,1,-2,2,12,6,-3,-8,-4
15:39:17:970280,-7,-5,1,-9,-5,-9,-9,-3
15:39:17:978410,-7,-5,1,-9,-5,-9,-9,-3
15:39:17:979242,-4,2,-6,-10,-3,-4,-4,-5
15:39:17:985278,1,0,10,4,15,-5,-1,3
15:39:17:992793,1,0,10,4,15,-5,-1,3
15:39:18:325,9,-12,-6,4,14,0,5,-7
15:39:18:7746,-10,4,-6,-7,-15,-15,-9,-10
15:39:18:16052,-10,4,-6,-7,-15,-15,-9,-10
15:39:18:16775,4,-5,-1,7,3,-3,-9,3
15:39:18:30202,-8,0,-13,-6,3,31,4,8
15:39:18:38503,-8,0,-13,-6,3,31,4,8
15:39:18:39278,-1,-4,2,-10,-20,-12,2,10
15:39:18:45250,1,-1,-3,-1,-5,-1,-2,1
15:39:18:52877,1,-1,-3,-1,-5,-1,-2,1
15:39:18:60251,-2,0,1,-4,2,-1,-1,-4
15:39:18:67810,0,0,6,-5,-8,-8,-2,4
15:39:18:75964,0,0,6,-5,-8,-8,-2,4
15:39:18:76747,7,5,2,-6,12,16,2,-22
15:39:18:90267,8,-4,0,8,22,3,3,0
15:39:18:98429,8,-4,0,8,22,3,3,0
15:39:18:99244,-6,-7,-2,2,3,-8,-10,17
15:39:18:105236,4,-6,-4,-6,-15,-11,-6,-6
15:39:18:112744,4,-6,-4,-6,-15,-11,-6,-6
15:39:18:120230,-4,4,-3,-7,-10,-10,-1,-4
15:39:18:127732,-4,2,-4,21,6,-2,-5,-2
15:39:18:136019,-4,2,-4,21,6,-2,-5,-2
15:39:18:136776,-2,-3,-4,2,-6,-2,-2,-13
15:39:18:150340,-12,-11,3,-7,-21,-15,9,-8
15:39:18:158470,-12,-11,3,-7,-21,-15,9,-8
15:39:18:159255,-2,-9,6,5,13,10,-11,-13
15:39:18:165259,26,10,10,-5,-10,16,0,-16
15:39:18:172798,26,10,10,-5,-10,16,0,-16
15:39:18:180178,-6,-9,5,9,-9,-9,0,1
15:39:18:187780,-2,12,-5,-5,-8,-11,2,-1
15:39:18:195917,-2,12,-5,-5,-8,-11,2,-1
15:39:18:196747,12,11,0,20,-4,0,-3,9
15:39:18:210298,5,0,-3,1,-15,2,3,8
15:39:18:218495,5,0,-3,1,-15,2,3,8
15:39:18:219255,-10,6,-1,-9,3,8,19,-10
15:39:18:225226,7,-5,-4,2,28,22,13,29
15:39:18:232861,7,-5,-4,2,28,22,13,29
15:39:18:240276,-13,-14,-1,-10,-14,-19,-3,-5
15:39:18:247708,-10,1,-3,-13,-13,6,-14,-3
15:39:18:256016,-10,1,-3,-13,-13,6,-14,-3
15:39:18:256753,5,-11,-1,0,1,1,4,12
15:39:18:279078,-16,-6,-1,-12,-23,-43,-24,-12
15:39:18:279862,-16,-6,-1,-12,-23,-43,-24,-12
15:39:18:280665,5,5,4,8,44,33,-6,-11
15:39:18:293394,-2,2,5,29,1,-15,-10,-20
15:39:18:294219,-2,2,5,29,1,-15,-10,-20
15:39:18:300410,-16,5,-5,-7,11,27,10,13
15:39:18:307766,-5,-2,6,-3,10,7,9,-7
15:39:18:315261,-5,-2,6,-3,10,7,9,-7
15:39:18:322737,10,3,-16,-14,-35,-34,-11,2
15:39:18:330211,-18,-10,1,-4,24,16,-14,-20
15:39:18:338494,-18,-10,1,-4,24,16,-14,-20
15:39:18:339254,7,3,-1,0,6,-6,4,6
15:39:18:361555,9,1,-8,-16,-31,-40,-6,10
15:39:18:362363,9,1,-8,-16,-31,-40,-6,10
15:39:18:363196,-1,-3,-3,2,13,15,16,-1
15:39:18:367758,-5,-1,-3,-14,5,6,10,5
15:39:18:375261,-5,-1,-3,-14,5,6,10,5
15:39:18:382828,2,-4,5,17,-18,-13,-7,2
15:39:18:390295,5,3,-1,9,36,8,4,17
15:39:18:398444,5,3,-1,9,36,8,4,17
15:39:18:399223,-2,-4,-4,-17,-16,-12,-9,-11
15:39:18:413393,-14,10,-10,-1,-3,3,-16,-2
15:39:18:414213,-14,10,-10,-1,-3,3,-16,-2
15:39:18:420200,3,1,-13,-4,-4,6,-3,7
15:39:18:427752,6,-3,-1,-12,-26,-5,-13,-7
15:39:18:435281,6,-3,-1,-12,-26,-5,-13,-7
15:39:18:442731,4,8,9,6,28,21,5,-9
15:39:18:450239,-13,-4,11,25,13,-10,1,-3
15:39:18:458443,-13,-4,11,25,13,-10,1,-3
15:39:18:459255,7,8,11,29,-8,0,-11,8
15:39:18:473434,6,-9,1,-10,-7,4,5,-5
15:39:18:474273,6,-9,1,-10,-7,4,5,-5
15:39:18:480197,-8,0,-3,-12,-15,-12,6,20
15:39:18:487741,-1,16,2,-1,3,8,3,-6
15:39:18:495296,-1,16,2,-1,3,8,3,-6
15:39:18:502755,-9,-13,-8,-19,-29,-36,-13,-2
15:39:18:510270,11,-7,-3,9,27,34,18,6
15:39:18:518518,11,-7,-3,9,27,34,18,6
15:39:18:519243,-2,2,0,-5,-5,-8,1,-5
15:39:18:533506,11,-4,-5,-2,-2,-2,-4,7
15:39:18:534256,11,-4,-5,-2,-2,-2,-4,7
15:39:18:540248,-7,-5,-2,5,6,-9,-6,-21
15:39:18:547729,1,4,7,-26,-15,-6,2,12
15:39:18:555356,1,4,7,-26,-15,-6,2,12
15:39:18:562710,-6,-3,0,-11,-7,19,-3,-4
15:39:18:570332,5,-12,5,10,17,16,8,12
15:39:18:578433,5,-12,5,10,17,16,8,12
15:39:18:579229,3,-9,-4,-12,-13,-15,3,-1
15:39:18:593470,2,0,-3,10,6,-14,-12,-16
15:39:18:594263,2,0,-3,10,6,-14,-12,-16
15:39:18:600311,0,-3,2,14,20,13,-2,-6
15:39:18:607758,-11,-14,-12,-9,-20,-12,-1,5
15:39:18:615327,-11,-14,-12,-9,-20,-12,-1,5
15:39:18:622751,-7,6,2,-16,-7,-13,3,3
15:39:18:630275,-15,2,-14,2,2,8,-13,-8
15:39:18:638493,-15,2,-14,2,2,8,-13,-8
15:39:18:639235,-11,-3,3,-1,2,13,-10,-2
15:39:18:653455,8,4,-2,-3,-7,10,-1,-14
15:39:18:654259,8,4,-2,-3,-7,10,-1,-14
15:39:18:660237,-7,-6,1,13,39,44,8,-10
15:39:18:667740,-5,-10,-6,-10,-15,-17,2,-2
15:39:18:675281,-5,-10,-6,-10,-15,-17,2,-2
15:39:18:682860,2,-1,-6,-3,10,-9,-4,7
15:39:18:690289,-3,2,3,-9,-16,-9,4,12
15:39:18:698433,-3,2,3,-9,-16,-9,4,12
15:39:18:699284,5,-4,-3,-8,-10,-6,0,-1
15:39:18:713432,-14,-13,5,7,1,-2,-5,7
15:39:18:714266,-14,-13,5,7,1,-2,-5,7
15:39:18:720234,-1,4,-4,-7,-9,1,-8,-7
15:39:18:727787,-1,7,1,-4,-5,5,-6,-35
15:39:18:735313,-1,7,1,-4,-5,5,-6,-35
15:39:18:742741,-9,-13,-17,6,-2,-2,-3,-25
15:39:18:750265,11,10,-1,2,-6,-19,13,12
15:39:18:758439,11,10,-1,2,-6,-19,13,12
15:39:18:759282,14,10,3,-2,1,2,1,15
15:39:18:773449,-2,-1,-3,-3,-5,-4,-5,-4
15:39:18:774235,-2,-1,-3,-3,-5,-4,-5,-4
15:39:18:780216,6,5,10,22,11,4,4,6
15:39:18:787738,-2,-2,9,-1,3,1,0,6
15:39:18:795293,-2,-2,9,-1,3,1,0,6
15:39:18:802749,-10,-22,-15,-13,-20,-35,-14,-37
15:39:18:810214,10,-6,3,15,8,14,8,6
15:39:18:818498,10,-6,3,15,8,14,8,6
15:39:18:819232,4,19,4,0,-2,0,15,19
15:39:18:833503,-4,0,-15,-22,-5,-1,-5,-12
15:39:18:834241,-4,0,-15,-22,-5,-1,-5,-12
15:39:18:840205,0,-2,1,-7,3,-2,0,9
15:39:18:847739,9,1,5,7,4,0,0,15
15:39:18:855322,9,1,5,7,4,0,0,15
15:39:18:862720,1,5,2,-14,-19,-10,-7,-9
15:39:18:870260,-3,1,-3,18,18,-1,-16,-1
15:39:18:878451,-3,1,-3,18,18,-1,-16,-1
15:39:18:879242,-2,-5,-3,7,21,12,3,9
15:39:18:893449,-5,8,2,-8,-18,-14,-5,-14
15:39:18:894290,-5,8,2,-8,-18,-14,-5,-14
15:39:18:900307,-13,-17,5,-4,3,-7,-6,3
15:39:18:907746,1,-7,-14,-18,-9,5,2,4
15:39:18:915276,1,-7,-14,-18,-9,5,2,4
15:39:18:922757,0,-2,-6,-16,-21,-11,-4,-7
15:39:18:930243,-8,-7,2,23,8,4,1,-1
15:39:18:938457,-8,-7,2,23,8,4,1,-1
15:39:18:939268,3,4,6,-2,0,9,12,9
15:39:18:953516,0,-2,0,-14,-22,-16,-6,15
15:39:18:954241,0,-2,0,-14,-22,-16,-6,15
15:39:18:960250,11,13,5,19,14,14,7,12
15:39:18:967782,3,0,1,-6,-17,-20,-1,-8
15:39:18:975294,3,0,1,-6,-17,-20,-1,-8
15:39:18:982727,10,2,-8,3,2,-4,-8,-9
15:39:18:990225,-22,-15,-1,-7,1,-1,-4,1
15:39:19:5991,-22,-15,-1,-7,1,-1,-4,1
15:39:19:6695,2,4,0,-4,-12,1,1,-2
15:39:19:13416,5,3,4,-13,-4,-11,-4,-11
15:39:19:14216,5,3,4,-13,-4,-11,-4,-11
15:39:19:20212,-9,2,0,7,21,3,9,13
15:39:19:27750,14,22,-1,8,32,36,5,2
15:39:19:35281,14,22,-1,8,32,36,5,2
15:39:19:42734,6,3,-9,-7,-7,-6,3,5
15:39:19:50270,2,-6,-8,-8,-1,-2,16,3
15:39:19:58443,2,-6,-8,-8,-1,-2,16,3
15:39:19:59246,-19,-3,0,3,-14,9,-5,11
15:39:19:73442,5,-2,-3,0,2,1,2,5
15:39:19:74251,5,-2,-3,0,2,1,2,5
15:39:19:80190,-1,3,5,-5,-5,-9,-5,-11
15:39:19:87765,-6,-10,-7,-10,6,-2,-9,-9
15:39:19:95270,-6,-10,-7,-10,6,-2,-9,-9
15:39:19:102814,7,-6,-1,0,12,18,-12,-8
15:39:19:110219,2,-4,5,10,2,6,1,14
15:39:19:118461,2,-4,5,10,2,6,1,14
15:39:19:119255,12,-3,-1,5,5,9,10,2
15:39:19:133465,-7,1,-3,-10,-13,-16,-10,-13
15:39:19:134257,-7,1,-3,-10,-13,-16,-10,-13
15:39:19:140213,-16,2,-3,6,7,-3,1,-8
15:39:19:147733,-4,0,-11,4,-11,-15,-7,-2
15:39:19:155345,-4,0,-11,4,-11,-15,-7,-2
15:39:19:162722,-9,-7,5,-6,-25,-11,-7,3
15:39:19:170272,-10,4,-9,-2,2,20,12,14
15:39:19:178417,-10,4,-9,-2,2,20,12,14
15:39:19:179197,2,-5,-6,-8,-13,-17,1,-10
15:39:19:193499,12,2,15,17,13,7,6,4
15:39:19:194228,12,2,15,17,13,7,6,4
15:39:19:200309,0,4,-5,-7,-4,-15,-7,1
15:39:19:207788,-1,8,1,13,10,-6,-10,-14
15:39:19:215306,-1,8,1,13,10,-6,-10,-14
15:39:19:222795,-10,0,-1,-3,2,20,1,10
15:39:19:230239,8,-5,1,-2,-6,6,-12,-6
15:39:19:237894,8,-5,1,-2,-6,6,-12,-6
15:39:19:245170,-3,4,4,-2,-3,8,4,-2
15:39:19:253489,-19,-9,-3,-10,-19,-16,0,-19
15:39:19:254311,-19,-9,-3,-10,-19,-16,0,-19
15:39:19:260239,2,2,3,21,8,3,-1,-5
15:39:19:276435,-1,-6,1,-3,8,-14,-11,2
15:39:19:277209,-1,-6,1,-3,8,-14,-11,2
15:39:19:282726,1,-2,-6,-9,2,-9,-4,-3
15:39:19:290237,4,3,-16,-3,12,13,5,-6
15:39:19:297791,4,3,-16,-3,12,13,5,-6
15:39:19:305249,4,-2,-2,-1,7,0,0,1
15:39:19:313401,-6,-1,2,-8,-14,-12,-5,-2
15:39:19:314237,-6,-1,2,-8,-14,-12,-5,-2
15:39:19:320287,0,-3,-2,-4,-2,5,-6,-9
15:39:19:336026,3,1,-1,-2,-2,4,-3,12
15:39:19:336795,3,1,-1,-2,-2,4,-3,12
15:39:19:342732,-5,-18,-4,7,0,-7,1,-16
15:39:19:350319,6,0,8,1,2,3,5,-3
15:39:19:357822,6,0,8,1,2,3,5,-3
15:39:19:365270,6,12,1,-24,-17,-11,1,3
15:39:19:373465,1,-1,-16,-11,-11,-9,-1,-1
15:39:19:374291,1,-1,-16,-11,-11,-9,-1,-1
15:39:19:380225,-9,-2,3,23,31,11,5,-17
15:39:19:395919,-7,2,-1,3,-5,-5,0,-6
15:39:19:396725,-7,2,-1,3,-5,-5,0,-6
15:39:19:402762,-5,-2,3,-6,-15,-1,-4,-13
15:39:19:410230,1,-11,-3,-1,14,26,2,-11
15:39:19:417833,1,-11,-3,-1,14,26,2,-11
15:39:19:425254,5,-3,6,6,-2,-16,-6,7
15:39:19:433451,-26,-5,-5,-14,-15,-18,-4,8
15:39:19:434211,-26,-5,-5,-14,-15,-18,-4,8
15:39:19:440277,2,-2,-1,-5,6,12,-5,-6
15:39:19:456009,6,-7,4,-2,0,3,7,12
15:39:19:456793,6,-7,4,-2,0,3,7,12
15:39:19:462732,-10,1,-6,-6,-11,-19,-14,14
15:39:19:470348,6,7,4,6,23,16,-2,0
15:39:19:477724,6,7,4,6,23,16,-2,0
15:39:19:485250,-4,-6,1,-1,7,7,8,-1
15:39:19:493419,0,8,7,2,-8,-3,3,-7
15:39:19:494236,0,8,7,2,-8,-3,3,-7
15:39:19:500264,-1,-3,-6,-6,-4,4,-6,0
15:39:19:515962,5,-3,1,-3,-5,6,4,15
15:39:19:516702,5,-3,1,-3,-5,6,4,15
15:39:19:522759,7,-2,-8,-1,-10,-15,-12,-4
15:39:19:530276,10,-2,10,-7,1,9,4,7
15:39:19:537849,10,-2,10,-7,1,9,4,7
15:39:19:554189,3,3,1,2,-4,-10,-2,12
15:39:19:554877,-6,-6,-8,4,-13,-19,-8,-8
15:39:19:555746,-6,-6,-8,4,-13,-19,-8,-8
15:39:19:560290,-5,0,-4,-8,-2,0,6,-6
15:39:19:576011,-4,0,7,3,-4,0,2,-2
15:39:19:576817,-4,0,7,3,-4,0,2,-2
15:39:19:582807,-1,2,-4,-9,-23,-38,-10,-9
15:39:19:590242,-6,-2,1,9,33,19,3,8
15:39:19:597755,-6,-2,1,9,33,19,3,8
15:39:19:605312,2,-4,-2,-3,1,1,5,-8
15:39:19:613390,4,6,4,-9,-21,-3,-11,-15
15:39:19:614228,4,6,4,-9,-21,-3,-11,-15
15:39:19:620234,-4,-3,2,3,4,9,18,-8
15:39:19:635954,0,-5,-9,-7,-6,-8,2,-4
15:39:19:636696,0,-5,-9,-7,-6,-8,2,-4
15:39:19:642753,0,-5,-3,-3,-6,-8,-10,7
15:39:19:658463,3,1,-3,10,22,11,7,4
15:39:19:659319,3,1,-3,10,22,11,7,4
15:39:19:665254,-11,-5,-3,6,13,8,-9,1
15:39:19:673385,0,1,5,-8,-20,-15,-5,-12
15:39:19:674211,0,1,5,-8,-20,-15,-5,-12
15:39:19:680237,-10,3,5,1,-2,-1,14,16
15:39:19:695924,5,0,0,-8,8,-4,1,7
15:39:19:696746,5,0,0,-8,8,-4,1,7
15:39:19:702748,8,9,4,1,6,20,-10,-9
15:39:19:710239,-8,1,-3,-7,-20,-32,-1,-7
15:39:19:717768,-8,1,-3,-7,-20,-32,-1,-7
15:39:19:725270,16,12,12,-5,7,14,5,6
15:39:19:733436,-2,2,-5,1,-12,-16,-17,-12
15:39:19:734252,-2,2,-5,1,-12,-16,-17,-12
15:39:19:740220,0,-5,-10,-4,-17,0,9,19
15:39:19:755935,3,-1,-3,5,13,-4,-5,4
15:39:19:756715,3,-1,-3,5,13,-4,-5,4
15:39:19:762726,-7,2,-1,-7,0,7,-7,-9
15:39:19:770287,-4,-5,4,5,3,6,4,1
15:39:19:777785,-4,-5,4,5,3,6,4,1
15:39:19:785229,-5,1,6,-4,-14,-11,-1,15
15:39:19:801572,3,3,-8,-3,0,-2,-17,14
15:39:19:802407,3,3,-8,-3,0,-2,-17,14
15:39:19:803166,-14,-10,-1,9,18,14,39,22
15:39:19:815947,-20,-7,1,-3,-7,-3,3,-8
15:39:19:816694,-20,-7,1,-3,-7,-3,3,-8
15:39:19:822761,2,-1,0,-7,-15,-13,-18,-13
15:39:19:838497,1,2,-1,12,5,12,7,1
15:39:19:839215,1,2,-1,12,5,12,7,1
15:39:19:845237,4,-4,-7,0,14,6,3,-8
15:39:19:853523,6,-5,-5,9,-13,-28,-5,-6
15:39:19:854231,6,-5,-5,9,-13,-28,-5,-6
15:39:19:860256,-1,-9,-10,8,24,27,-12,-27
15:39:19:875917,3,2,-11,-11,-6,-5,-9,-14
15:39:19:876729,3,2,-11,-11,-6,-5,-9,-14
15:39:19:882741,4,-1,-10,-3,-7,-10,-10,-5
15:39:19:890279,-3,5,7,0,11,17,5,3
15:39:19:897721,-3,5,7,0,11,17,5,3
15:39:19:905249,-3,-13,-2,-3,-24,-20,-17,-2
15:39:19:913411,-6,7,2,-2,-3,6,3,11
15:39:19:914225,-6,7,2,-2,-3,6,3,11
15:39:19:920212,-20,2,5,1,-10,-28,-6,-6
15:39:19:936463,5,-2,4,4,18,33,-3,-24
15:39:19:937223,5,-2,4,4,18,33,-3,-24
15:39:19:942758,-6,3,1,-2,-2,-12,-1,-11
15:39:19:950342,-1,-12,-2,22,8,23,3,-3
15:39:19:957787,-1,-12,-2,22,8,23,3,-3
15:39:19:965238,14,8,10,3,7,18,7,7
15:39:19:973452,2,5,6,5,-12,-20,1,2
15:39:19:974270,2,5,6,5,-12,-20,1,2
15:39:19:980247,-2,-4,0,-13,-3,4,3,4
15:39:19:995887,8,-3,-12,-12,4,9,10,-5
15:39:19:996743,8,-3,-12,-12,4,9,10,-5
15:39:20:2740,2,0,-4,2,-3,-11,3,-2
15:39:20:10213,-14,-8,1,-9,0,-4,-3,-5
15:39:20:17795,-14,-8,1,-9,0,-4,-3,-5
15:39:20:25235,13,9,1,17,18,10,8,25
15:39:20:41603,-13,-8,-9,1,28,8,-6,2
15:39:20:42404,-13,-8,-9,1,28,8,-6,2
15:39:20:43229,-6,-8,-5,-24,-19,-9,-5,-3
15:39:20:55935,6,4,1,5,-12,-16,3,11
15:39:20:56778,6,4,1,5,-12,-16,3,11
15:39:20:62715,5,20,6,17,14,9,-5,-6
15:39:20:70257,-12,-15,2,-21,-35,-27,-14,-21
15:39:20:77751,-12,-15,2,-21,-35,-27,-14,-21
15:39:20:85239,-7,-13,4,-1,15,8,-10,-8
15:39:20:93435,-1,4,1,1,-11,-13,9,7
15:39:20:94277,-1,4,1,1,-11,-13,9,7
15:39:20:100313,0,-15,-1,-6,-12,6,-1,6
15:39:20:115979,0,-15,-1,-6,-12,6,-1,6
15:39:20:116712,1,-7,-2,4,6,12,1,10
15:39:20:122748,1,2,-2,11,-8,-5,-10,-21
15:39:20:138476,1,2,-2,11,-8,-5,-10,-21
15:39:20:139237,0,3,1,-4,1,0,2,2
15:39:20:145171,-6,-10,-16,-9,-13,-7,-16,-15
15:39:20:153483,-6,-10,-16,-9,-13,-7,-16,-15
15:39:20:154250,-9,-2,2,-5,-7,-9,28,-10
15:39:20:160230,-7,-8,3,-2,2,4,-2,13
15:39:20:175966,-7,-8,3,-2,2,4,-2,13
15:39:20:176728,-2,8,12,3,21,11,-7,15
15:39:20:182744,1,-6,5,-6,-17,-11,4,-1
15:39:20:198474,1,-6,5,-6,-17,-11,4,-1
15:39:20:199191,2,2,9,7,5,0,-4,3
15:39:20:214071,3,10,3,-2,-7,-2,1,5
15:39:20:214929,3,10,3,-2,-7,-2,1,5
15:39:20:215704,-5,-13,-16,-7,-14,-7,-7,-7
15:39:20:227729,-2,-4,-7,-12,0,-2,10,8
15:39:20:235925,-2,-4,-7,-12,0,-2,10,8
15:39:20:236712,13,7,-1,3,23,20,-6,1
15:39:20:242750,-3,-2,3,5,1,-10,1,6
15:39:20:258509,-3,-2,3,5,1,-10,1,6
15:39:20:259296,7,-3,-15,-20,-8,-13,-5,-5
15:39:20:265249,-3,0,4,-10,6,16,10,-8
15:39:20:273424,-3,0,4,-10,6,16,10,-8
15:39:20:274220,1,-3,1,10,11,4,0,-1
15:39:20:287777,4,6,3,-1,-7,-4,6,1
15:39:20:295922,4,6,3,-1,-7,-4,6,1
15:39:20:296739,-6,-3,0,7,0,2,2,1
15:39:20:302816,-1,-6,3,7,-5,-10,-9,-8
15:39:20:318536,-1,-6,3,7,-5,-10,-9,-8
15:39:20:319273,0,4,0,-5,-14,-4,-6,-1
15:39:20:325228,-3,-1,-5,-2,4,-1,4,-3
15:39:20:333544,-3,-1,-5,-2,4,-1,4,-3
15:39:20:334276,3,0,0,5,-17,-8,0,3
15:39:20:347785,-2,1,0,4,13,8,-3,-13
15:39:20:355958,-2,1,0,4,13,8,-3,-13
15:39:20:356780,-2,-12,-9,-1,17,33,-8,1
15:39:20:362731,7,3,-8,-2,-1,-6,0,-17
15:39:20:378449,7,3,-8,-2,-1,-6,0,-17
15:39:20:379234,-7,16,14,-9,-2,-9,6,-3
15:39:20:385269,-1,-4,-4,0,9,5,2,8
15:39:20:393486,-1,-4,-4,0,9,5,2,8
15:39:20:394254,-2,-1,-2,-4,-15,-9,-6,-16
15:39:20:407748,0,-2,-4,7,-6,-8,-9,-10
15:39:20:416026,0,-2,-4,7,-6,-8,-9,-10
15:39:20:416735,-1,-4,-3,13,12,4,5,6
15:39:20:422735,-1,-6,-3,-3,1,-5,-10,3
15:39:20:438473,-1,-6,-3,-3,1,-5,-10,3
15:39:20:439242,3,0,-1,-8,-17,-28,-1,-1
15:39:20:445183,5,10,-1,8,25,22,8,16
15:39:20:453528,5,10,-1,8,25,22,8,16
15:39:20:454251,-12,-8,-12,-9,-12,-20,-18,-8
15:39:20:467763,-3,-2,5,-2,9,11,-6,5
15:39:20:475934,-3,-2,5,-2,9,11,-6,5
15:39:20:476738,16,-3,-1,-4,0,-4,-1,1
15:39:20:482729,0,-4,-6,-6,-14,-10,-5,3
15:39:20:498454,0,-4,-6,-6,-14,-10,-5,3
15:39:20:499223,-2,0,6,-1,1,11,2,3
15:39:20:505211,-8,-1,-5,-4,-12,-21,6,-7
15:39:20:513417,-8,-1,-5,-4,-12,-21,6,-7
15:39:20:514268,-4,2,2,2,7,25,10,8
15:39:20:527739,9,2,3,4,6,-3,14,15
15:39:20:535973,9,2,3,4,6,-3,14,15
15:39:20:536750,0,1,-4,-2,-23,-23,-6,4
15:39:20:542689,-1,-9,-21,-5,-5,7,1,-3
15:39:20:558481,-1,-9,-21,-5,-5,7,1,-3
15:39:20:559251,-5,-3,-3,-5,-7,-3,-2,-11
15:39:20:565202,-3,-8,28,16,20,2,-2,0
15:39:20:573431,-3,-8,28,16,20,2,-2,0
15:39:20:574300,-1,-2,4,-4,10,6,10,10
15:39:20:596552,12,3,-17,-16,-35,-27,-8,15
15:39:20:597369,12,3,-17,-16,-35,-27,-8,15
15:39:20:598171,4,-22,-6,3,16,34,-4,7
15:39:20:602736,-4,4,-9,-1,10,1,-6,-19
15:39:20:618463,-4,4,-9,-1,10,1,-6,-19
15:39:20:619256,-3,7,7,3,16,-2,5,-5
15:39:20:625210,1,0,9,-5,-16,-9,-2,-5
15:39:20:633475,1,0,9,-5,-16,-9,-2,-5
15:39:20:634187,-9,-3,-3,-5,-14,-9,-2,-8
15:39:20:647766,-10,2,-5,4,5,-5,-5,4
15:39:20:655999,-10,2,-5,4,5,-5,-5,4
15:39:20:656800,3,2,3,2,-1,0,3,6
15:39:20:662729,-14,-8,-7,-9,-21,0,-4,-4
15:39:20:678469,-14,-8,-7,-9,-21,0,-4,-4
15:39:20:679236,-5,-1,1,9,25,25,6,-12
15:39:20:685228,8,1,9,10,2,7,-2,-8
15:39:20:693469,8,1,9,10,2,7,-2,-8
15:39:20:694273,2,7,-5,-14,-36,-51,-19,-1
15:39:20:707756,-2,-2,15,-8,18,36,-6,-20
15:39:20:716012,-2,-2,15,-8,18,36,-6,-20
15:39:20:716755,9,-10,-1,5,6,-1,-1,0
15:39:20:722738,-3,7,1,-1,-9,-23,4,1
15:39:20:738513,-3,7,1,-1,-9,-23,4,1
15:39:20:739313,-18,-5,1,-2,10,7,-2,7
15:39:20:745189,1,0,7,-7,12,1,2,9
15:39:20:753474,1,0,7,-7,12,1,2,9
15:39:20:754229,-3,4,-1,5,-6,-3,4,-5
15:39:20:776591,0,0,-4,-1,7,2,5,-1
15:39:20:777378,0,0,-4,-1,7,2,5,-1
15:39:20:778171,1,6,7,-9,-18,-8,-10,-8
15:39:20:782802,4,0,-19,3,-4,-14,-8,5
15:39:20:798508,4,0,-19,3,-4,-14,-8,5
15:39:20:799279,2,-3,-3,1,5,-1,1,5
15:39:20:805258,-14,-6,-5,-3,11,24,-5,-33
15:39:20:813411,-14,-6,-5,-3,11,24,-5,-33
15:39:20:814195,-9,-4,-4,1,-1,-4,-1,-6
15:39:20:827715,3,5,-3,0,-8,-12,-2,8
15:39:20:836000,3,5,-3,0,-8,-12,-2,8
15:39:20:836771,-1,-7,-6,-5,-9,-6,-4,-11
15:39:20:842762,-1,-3,1,-3,-4,2,-7,-9
15:39:20:858493,-1,-3,1,-3,-4,2,-7,-9
15:39:20:859279,9,6,1,-6,2,8,3,3
15:39:20:874125,-1,-1,-4,-14,-11,-3,2,7
15:39:20:874962,-1,-1,-4,-14,-11,-3,2,7
15:39:20:875724,-3,-6,-23,-14,-31,-42,-2,-1
15:39:20:887784,-1,-1,2,10,43,54,44,10
15:39:20:895961,-1,-1,2,10,43,54,44,10
15:39:20:896732,6,12,1,6,13,9,-11,-4
15:39:20:902745,-12,0,-12,-13,-38,-36,-24,-1
15:39:20:918493,-12,0,-12,-13,-38,-36,-24,-1
15:39:20:919241,5,9,4,13,30,19,18,1
15:39:20:925182,1,4,5,2,-3,-9,-7,1
15:39:20:933539,1,4,5,2,-3,-9,-7,1
15:39:20:934244,-4,-3,8,0,-13,-10,-13,-4
15:39:20:948223,2,-6,4,9,8,5,-1,4
15:39:20:955966,2,-6,4,9,8,5,-1,4
15:39:20:956774,1,-2,-1,-1,-2,3,-2,6
15:39:20:962697,0,-1,-3,14,-10,-28,-11,-11
15:39:20:978430,0,-1,-3,14,-10,-28,-11,-11
15:39:20:979195,-3,-7,5,1,15,52,-4,-13
15:39:20:994083,5,4,-1,-7,-11,-13,-9,1
15:39:20:994867,5,4,-1,-7,-11,-13,-9,1
15:39:20:995683,0,-3,-8,-1,-5,-6,9,19
15:39:21:7762,-2,-2,-2,-5,-6,0,2,8
15:39:21:15936,-2,-2,-2,-5,-6,0,2,8
15:39:21:16741,2,6,-2,-17,-10,-8,-2,-5
15:39:21:22808,-3,-2,-2,-4,-15,-12,3,-4
15:39:21:38513,-3,-2,-2,-4,-15,-12,3,-4
15:39:21:39313,0,-2,5,3,29,21,7,2
15:39:21:45193,4,5,6,-8,2,4,6,17
15:39:21:53456,4,5,6,-8,2,4,6,17
15:39:21:54202,-2,0,-9,0,-7,-22,-6,9
15:39:21:67748,4,-12,3,4,-3,2,-5,2
15:39:21:75978,4,-12,3,4,-3,2,-5,2
15:39:21:76820,-5,-8,-6,1,-2,-4,-2,-20
15:39:21:82770,9,5,1,4,3,3,-8,-4
15:39:21:98494,9,5,1,4,3,3,-8,-4
15:39:21:99257,4,1,0,-4,-17,-22,-5,7
15:39:21:105228,-12,-11,-1,-13,-7,-10,3,-4
15:39:21:113454,-12,-11,-1,-13,-7,-10,3,-4
15:39:21:114265,8,2,2,6,16,10,-9,-1
15:39:21:127751,-11,-8,7,-2,0,8,4,-2
15:39:21:136027,-11,-8,7,-2,0,8,4,-2
15:39:21:136783,3,-5,5,-3,-10,-11,-10,-4
15:39:21:150340,3,-3,-9,1,8,-2,0,2
15:39:21:158481,3,-3,-9,1,8,-2,0,2
15:39:21:159262,-9,-12,0,2,-4,2,-2,-5
15:39:21:165237,-6,8,-5,1,-2,6,-1,-12
15:39:21:172842,-6,8,-5,1,-2,6,-1,-12
15:39:21:180219,0,5,-1,-14,-18,-8,3,8
15:39:21:187817,3,-1,0,2,20,31,5,2
15:39:21:195895,3,-1,0,2,20,31,5,2
15:39:21:196709,-10,3,3,-2,0,-13,7,-20
15:39:21:210275,1,-2,-5,-5,5,-1,-6,-2
15:39:21:218499,1,-2,-5,-5,5,-1,-6,-2
15:39:21:219266,1,1,-17,5,-1,3,1,1
15:39:21:225248,-7,-1,-4,6,0,-8,-4,0
15:39:21:232762,-7,-1,-4,6,0,-8,-4,0
15:39:21:240276,-3,-10,2,-1,3,-3,-2,0
15:39:21:247725,4,-10,3,-2,0,-6,-1,16
15:39:21:255974,4,-10,3,-2,0,-6,-1,16
15:39:21:256752,0,5,7,7,3,0,-5,6
15:39:21:270285,-4,4,-3,19,-6,-1,-2,-7
15:39:21:278486,-4,4,-3,19,-6,-1,-2,-7
15:39:21:279204,-14,-6,1,2,-13,-27,2,17
15:39:21:285282,-13,-2,9,1,13,22,1,-25
15:39:21:292785,-13,-2,9,1,13,22,1,-25
15:39:21:300295,6,-7,-4,-5,-5,4,-1,-5
15:39:21:307761,-3,-6,-3,-9,-17,-10,-7,-3
15:39:21:316012,-3,-6,-3,-9,-17,-10,-7,-3
15:39:21:316739,2,-2,3,-12,-9,-10,0,-4
15:39:21:330232,1,-2,-2,-4,13,2,-7,-9
15:39:21:338480,1,-2,-2,-4,13,2,-7,-9
15:39:21:339259,6,12,0,4,-2,3,6,10
15:39:21:345194,-1,1,-5,-9,-12,-14,-7,2
15:39:21:352818,-1,1,-5,-9,-12,-14,-7,2
15:39:21:360220,-11,-2,3,12,29,31,3,-2
15:39:21:367744,4,1,-2,-5,-4,-10,-4,8
15:39:21:375942,4,1,-2,-5,-4,-10,-4,8
15:39:21:376761,1,0,-17,-18,-13,2,0,-4
15:39:21:390240,-5,-6,-1,-4,-1,-1,1,-5
15:39:21:398485,-5,-6,-1,-4,-1,-1,1,-5
15:39:21:399224,1,0,-1,-5,-5,-8,-3,-9
15:39:21:405242,-4,-12,1,-3,-5,-8,6,3
15:39:21:412758,-4,-12,1,-3,-5,-8,6,3
15:39:21:420291,4,4,6,18,28,10,-7,-12
15:39:21:427716,0,7,1,11,7,-6,-6,-2
15:39:21:436064,0,7,1,11,7,-6,-6,-2
15:39:21:436735,-1,1,-1,-6,-8,-2,4,3
15:39:21:450290,14,2,0,-4,6,10,12,35
15:39:21:458484,14,2,0,-4,6,10,12,35
15:39:21:459280,5,3,3,-1,8,18,-1,-7
15:39:21:465235,-6,-9,-2,-3,-10,-12,-9,-9
15:39:21:472835,-6,-9,-2,-3,-10,-12,-9,-9
15:39:21:480211,-7,-12,3,0,7,-7,-8,-8
15:39:21:487801,-16,0,-11,-1,-6,-2,3,-10
15:39:21:495899,-16,0,-11,-1,-6,-2,3,-10
15:39:21:496675,-1,0,1,-16,-26,-10,-10,-11
15:39:21:510262,6,4,-1,5,2,-2,2,-1
15:39:21:518489,6,4,-1,5,2,-2,2,-1
15:39:21:519249,-3,4,-6,-8,-11,-1,6,15
15:39:21:525233,-11,4,2,11,12,3,0,-12
15:39:21:532795,-11,4,2,11,12,3,0,-12
15:39:21:540262,5,6,1,2,4,-7,7,9
15:39:21:547768,15,15,7,4,-8,-8,5,1
15:39:21:555945,15,15,7,4,-8,-8,5,1
15:39:21:556729,-3,1,-24,-1,11,-2,-11,9
15:39:21:570274,-2,-3,-13,-17,-3,4,-2,-8
15:39:21:578380,-2,-3,-13,-17,-3,4,-2,-8
15:39:21:579249,-2,-38,10,13,-8,-10,-2,0
15:39:21:585288,6,-4,3,-1,-5,0,-6,-13
15:39:21:592762,6,-4,3,-1,-5,0,-6,-13
15:39:21:600249,-4,13,-2,1,0,11,-3,-9
15:39:21:607683,3,-8,4,10,3,-2,3,8
15:39:21:615975,3,-8,4,10,3,-2,3,8
15:39:21:616707,-6,0,2,-23,-21,-17,1,3
15:39:21:630257,7,10,3,8,11,7,-1,12
15:39:21:638459,7,10,3,8,11,7,-1,12
15:39:21:639241,-8,2,8,13,16,15,6,3
15:39:21:645195,9,-5,-4,-14,-22,-23,-2,13
15:39:21:652889,9,-5,-4,-14,-22,-23,-2,13
15:39:21:660238,-7,-7,-8,1,4,7,7,-10
15:39:21:667726,-23,-8,-7,-10,-7,7,7,-9
15:39:21:675944,-23,-8,-7,-10,-7,7,7,-9
15:39:21:676766,-3,5,0,1,-7,-10,-4,-1
15:39:21:690247,5,3,2,11,8,0,-1,-10
15:39:21:698468,5,3,2,11,8,0,-1,-10
15:39:21:699246,1,-7,-11,7,9,-4,2,1
15:39:21:705215,-10,-11,-1,1,-13,-10,-9,7
15:39:21:712781,-10,-11,-1,1,-13,-10,-9,7
15:39:21:720257,2,2,6,-1,0,0,-2,2
15:39:21:727670,-4,-4,2,-5,9,1,-4,-19
15:39:21:736022,-4,-4,2,-5,9,1,-4,-19
15:39:21:736763,6,-5,-3,-3,4,25,13,3
15:39:21:750281,-18,4,1,-3,13,3,-7,-1
15:39:21:758466,-18,4,1,-3,13,3,-7,-1
15:39:21:759253,-6,12,9,10,-7,-12,-8,-5
15:39:21:765260,2,-14,1,-4,-12,-3,6,9
15:39:21:772823,2,-14,1,-4,-12,-3,6,9
15:39:21:780246,6,14,-4,-6,-9,-4,3,5
15:39:21:787784,2,-3,-10,-9,-2,10,-1,-14
15:39:21:795920,2,-3,-10,-9,-2,10,-1,-14
15:39:21:796704,9,9,-6,-3,3,5,-3,4
15:39:21:810266,4,1,1,-4,-6,-10,4,9
15:39:21:818507,4,1,1,-4,-6,-10,4,9
15:39:21:819244,-7,-11,-7,-10,-14,-18,0,25
15:39:21:825244,10,5,2,4,11,11,9,2
15:39:21:832824,10,5,2,4,11,11,9,2
15:39:21:840264,4,-5,0,-5,-2,0,13,8
15:39:21:847725,-5,6,-1,-9,0,-5,-1,7
15:39:21:855947,-5,6,-1,-9,0,-5,-1,7
15:39:21:856761,-5,-1,0,3,3,5,-3,-6
15:39:21:870281,9,4,4,6,-2,5,-6,-29
15:39:21:886727,9,4,4,6,-2,5,-6,-29
15:39:21:887450,-3,-7,-2,-4,-8,6,-3,-9
15:39:21:888272,-11,-9,-6,-3,-1,2,-4,1
15:39:21:892820,-11,-9,-6,-3,-1,2,-4,1
15:39:21:900312,6,0,-3,2,-7,-10,-11,-14
15:39:21:907765,-4,-6,-7,-5,-3,-3,-3,5
15:39:21:915980,-4,-6,-7,-5,-3,-3,-3,5
15:39:21:916717,-13,1,4,-2,-7,-9,-2,-15
15:39:21:930266,3,8,-3,-1,-5,5,2,0
15:39:21:938503,3,8,-3,-1,-5,5,2,0
15:39:21:939277,7,-3,9,19,24,6,-12,1
15:39:21:945248,-12,-8,0,-1,-4,-10,-1,2
15:39:21:952827,-12,-8,0,-1,-4,-10,-1,2
15:39:21:960188,5,-2,-8,-11,16,14,6,2
15:39:21:967805,7,-1,5,-6,7,-2,-1,1
15:39:21:983543,7,-1,5,-6,7,-2,-1,1
15:39:21:984243,-5,-18,-24,-6,-9,-10,-1,-11
15:39:21:990271,1,-3,-10,-7,-13,-5,-2,2
15:39:21:998472,1,-3,-10,-7,-13,-5,-2,2
15:39:21:999239,-9,-2,0,-9,-7,-2,3,-12
15:39:22:5200,8,2,-4,-14,6,0,-1,2
15:39:22:12762,8,2,-4,-14,6,0,-1,2
15:39:22:20266,9,2,7,-4,4,-2,-1,0
15:39:22:27727,-9,-10,5,6,-7,-6,-14,-10
15:39:22:35975,-9,-10,5,6,-7,-6,-14,-10
15:39:22:36751,-3,5,7,-3,-10,-23,4,5
15:39:22:50250,0,-16,11,6,16,21,21,6
15:39:22:58448,0,-16,11,6,16,21,21,6
15:39:22:59235,-3,-7,1,5,-12,-14,-2,1
15:39:22:65226,6,0,-8,-3,2,5,-10,-1
15:39:22:72820,6,0,-8,-3,2,5,-10,-1
15:39:22:80192,-1,1,4,8,1,-6,-13,0
15:39:22:87796,6,11,-6,3,0,-2,5,5
15:39:22:95261,6,11,-6,3,0,-2,5,5
15:39:22:102828,7,12,-1,-2,14,15,4,-1
15:39:22:110250,-16,1,-1,2,-12,-7,2,-20
15:39:22:118429,-16,1,-1,2,-12,-7,2,-20
15:39:22:119203,-1,2,-9,-6,10,3,-4,-7
15:39:22:133493,1,-3,-22,-6,-2,1,-10,10
15:39:22:134243,1,-3,-22,-6,-2,1,-10,10
15:39:22:140273,-4,-4,3,-3,-4,0,-4,-1
15:39:22:147748,4,4,2,-6,-9,-8,-2,3
15:39:22:155332,4,4,2,-6,-9,-8,-2,3
15:39:22:162708,-5,-3,-3,1,-5,1,-5,9
15:39:22:170293,4,3,9,13,-2,-7,-7,-6
15:39:22:178410,4,3,9,13,-2,-7,-7,-6
15:39:22:179191,-8,-11,4,-3,-5,19,-15,-30
15:39:22:193420,-1,10,16,6,23,15,-14,2
15:39:22:194192,-1,10,16,6,23,15,-14,2
15:39:22:200345,2,11,5,-4,-11,-11,1,2
15:39:22:207765,1,-1,3,4,-2,-7,3,0
15:39:22:215333,1,-1,3,4,-2,-7,3,0
15:39:22:222703,3,4,-12,-17,-3,-1,-9,-5
15:39:22:230215,-8,4,10,9,-7,-7,2,2
15:39:22:238551,-8,4,10,9,-7,-7,2,2
15:39:22:239279,-1,-19,-2,25,17,5,3,1
15:39:22:253536,-6,-2,-5,-11,-6,2,0,-7
15:39:22:254318,-6,-2,-5,-11,-6,2,0,-7
15:39:22:260215,-1,-2,0,-3,-9,-6,-2,10
15:39:22:267758,2,1,5,1,4,13,8,13
15:39:22:275271,2,1,5,1,4,13,8,13
15:39:22:282795,-2,-3,-3,8,18,4,6,-3
15:39:22:290261,-11,-17,-9,-25,-20,-18,-14,-4
15:39:22:298462,-11,-17,-9,-25,-20,-18,-14,-4
15:39:22:299238,5,5,-1,-2,-3,4,4,10
15:39:22:313442,4,0,-1,3,-6,-8,3,-10
15:39:22:314238,4,0,-1,3,-6,-8,3,-10
15:39:22:320280,-5,-11,-4,-2,-2,-5,7,3
15:39:22:328345,-6,6,-1,15,4,-1,10,-6
15:39:22:335376,-6,6,-1,15,4,-1,10,-6
15:39:22:342726,2,5,3,-9,-15,-9,-1,-13
15:39:22:350324,-1,1,-14,-9,2,9,13,18
15:39:22:358487,-1,1,-14,-9,2,9,13,18
15:39:22:359315,-10,-24,-5,-3,-3,0,4,3
15:39:22:373460,9,2,-2,10,9,26,-5,12
15:39:22:374276,9,2,-2,10,9,26,-5,12
15:39:22:380197,-5,16,4,4,15,-4,6,-13
15:39:22:387798,4,4,3,-3,-9,-30,-5,-5
15:39:22:395277,4,4,3,-3,-9,-30,-5,-5
15:39:22:402869,3,2,1,-5,2,0,-11,-8
15:39:22:410265,2,2,4,6,11,3,-1,-5
15:39:22:418465,2,2,4,6,11,3,-1,-5
15:39:22:419232,-4,-4,-1,-7,-14,-7,-14,8
15:39:22:433559,-1,7,-6,-8,-2,0,-8,-15
15:39:22:434261,-1,7,-6,-8,-2,0,-8,-15
15:39:22:440270,-4,-3,-1,0,-8,-6,-1,-13
15:39:22:447830,-4,-4,-1,-9,1,14,-4,-2
15:39:22:455292,-4,-4,-1,-9,1,14,-4,-2
15:39:22:462727,0,0,-7,1,-1,-6,3,3
15:39:22:470267,-15,-6,-4,3,-12,-8,3,-4
15:39:22:478389,-15,-6,-4,3,-12,-8,3,-4
15:39:22:479210,2,2,3,7,13,33,11,2
15:39:22:493431,-1,-5,-6,0,1,1,-8,-6
15:39:22:494209,-1,-5,-6,0,1,1,-8,-6
15:39:22:500378,-13,9,7,3,-6,-4,-13,-13
15:39:22:507743,-1,-4,8,-1,1,1,7,8
15:39:22:515333,-1,-4,8,-1,1,1,7,8
15:39:22:522742,-1,-13,-12,-1,-6,-9,3,12
15:39:22:530181,6,8,-9,-15,-6,-8,-4,14
15:39:22:538470,6,8,-9,-15,-6,-8,-4,14
15:39:22:539253,4,7,1,-6,-1,-4,4,3
15:39:22:553446,-6,0,9,1,1,2,-4,-13
15:39:22:554269,-6,0,9,1,1,2,-4,-13
15:39:22:560217,11,9,0,-3,-2,0,-6,12
15:39:22:567752,5,-1,7,15,17,12,2,7
15:39:22:575267,5,-1,7,15,17,12,2,7
15:39:22:582799,0,-1,-2,-8,-10,-3,3,3
15:39:22:590247,1,-8,10,-8,-9,-20,-6,-20
15:39:22:598482,1,-8,10,-8,-9,-20,-6,-20
15:39:22:599315,11,6,3,-1,7,7,3,16
15:39:22:613911,-8,-10,-3,-3,-8,-17,4,-8
15:39:22:614702,-8,-10,-3,-3,-8,-17,4,-8
15:39:22:620298,-12,-2,-9,-4,1,-4,-4,-14
15:39:22:627702,5,16,-4,6,3,0,-7,7
15:39:22:635350,5,16,-4,6,3,0,-7,7
15:39:22:642738,1,-6,-2,4,-4,-7,5,7
15:39:22:650309,3,5,-6,1,10,1,-5,-7
15:39:22:658492,3,5,-6,1,10,1,-5,-7
15:39:22:659288,-6,-5,-12,-7,-4,-6,-1,-8
15:39:22:673500,1,1,-4,-8,-2,-7,-2,4
15:39:22:674275,1,1,-4,-8,-2,-7,-2,4
15:39:22:680190,2,-6,7,2,13,10,3,11
15:39:22:687776,-1,-11,-8,-5,-20,-13,7,15
15:39:22:695276,-1,-11,-8,-5,-20,-13,7,15
15:39:22:702799,5,7,0,1,16,18,-1,7
15:39:22:710904,2,-8,2,8,4,3,-3,-14
15:39:22:711700,2,-8,2,8,4,3,-3,-14
15:39:22:717852,2,-3,-3,-8,-16,-10,-5,-9
15:39:22:733486,-8,0,-4,3,-2,-2,2,-8
15:39:22:734256,-8,0,-4,3,-2,-2,2,-8
15:39:22:740275,-2,-6,-5,-3,-6,6,-3,-12
15:39:22:747750,8,-5,8,10,8,3,7,2
15:39:22:755306,8,-5,8,10,8,3,7,2
15:39:22:762735,0,4,6,-2,5,-3,-1,-18
15:39:22:770283,-3,0,-9,-1,7,14,5,8
15:39:22:778413,-3,0,-9,-1,7,14,5,8
15:39:22:779219,3,-18,-11,4,-9,-13,-6,-2
15:39:22:793422,-9,0,1,-7,-7,-3,0,8
15:39:22:794207,-9,0,1,-7,-7,-3,0,8
15:39:22:800247,-13,1,-1,-4,-6,0,0,-2
15:39:22:807718,0,-5,4,-4,-11,8,15,5
15:39:22:815310,0,-5,4,-4,-11,8,15,5
15:39:22:822727,-1,1,1,5,-13,-28,-1,-27
15:39:22:830885,-3,2,-8,3,12,30,-1,-8
15:39:22:831733,-3,2,-8,3,12,30,-1,-8
15:39:22:837778,-1,-5,-2,0,-2,2,-3,17
15:39:22:853501,-5,-3,-18,-8,-9,2,-2,-8
15:39:22:854264,-5,-3,-18,-8,-9,2,-2,-8
15:39:22:860239,-5,1,3,-6,5,0,-7,-1
15:39:22:867721,2,-5,7,1,2,-8,-6,12
15:39:22:875305,2,-5,7,1,2,-8,-6,12
15:39:22:882745,-10,-9,0,-4,-2,-2,-4,1
15:39:22:890947,-3,2,2,14,-6,-2,-12,-12
15:39:22:891794,-3,2,2,14,-6,-2,-12,-12
15:39:22:897721,2,-6,2,15,31,22,4,-4
15:39:22:913434,-3,-7,-8,-15,-13,-13,-3,-4
15:39:22:914258,-3,-7,-8,-15,-13,-13,-3,-4
15:39:22:920255,-12,8,-2,-1,-14,-11,-6,-22
15:39:22:927700,-11,-7,-8,7,-4,-18,-1,2
15:39:22:935330,-11,-7,-8,7,-4,-18,-1,2
15:39:22:942721,9,8,-3,10,7,8,-6,3
15:39:22:950907,-8,-8,2,-13,-5,-1,-12,-22
15:39:22:951711,-8,-8,2,-13,-5,-1,-12,-22
15:39:22:957821,-10,-17,-6,-3,-8,-2,-6,9
15:39:22:981595,2,5,-7,-9,2,2,1,8
15:39:22:982464,2,5,-7,-9,2,2,1,8
15:39:22:983218,4,6,4,-15,-11,-9,-1,1
15:39:22:987757,4,-4,2,0,1,-10,8,5
15:39:22:995258,4,-4,2,0,1,-10,8,5
15:39:23:2766,-17,8,6,7,15,11,5,1
15:39:23:10969,10,19,7,-12,-3,-3,2,-2
15:39:23:11753,10,19,7,-12,-3,-3,2,-2
15:39:23:25182,9,-5,-8,-6,-7,-4,9,4
15:39:23:33504,0,3,1,-2,-7,6,-2,-6
15:39:23:34230,0,3,1,-2,-7,6,-2,-6
15:39:23:40227,4,-2,1,-7,-3,-5,-7,11
15:39:23:55957,7,14,0,13,17,27,5,14
15:39:23:56748,7,14,0,13,17,27,5,14
15:39:23:62701,4,-4,-3,1,-2,-4,4,5
15:39:23:70988,-2,-5,-16,-3,-7,-13,3,3
15:39:23:71816,-2,-5,-16,-3,-7,-13,3,3
15:39:23:85228,-29,-8,-24,-9,-12,-4,-2,-11
15:39:23:93432,-6,-10,4,2,8,4,-19,5
15:39:23:94254,-6,-10,4,2,8,4,-19,5
15:39:23:100297,16,5,10,5,6,15,-2,-17
15:39:23:115972,7,-6,-5,-7,-7,-8,1,3
15:39:23:116760,7,-6,-5,-7,-7,-8,1,3
15:39:23:122685,-5,-6,6,-1,-2,-2,-3,0
15:39:23:130928,1,-4,10,2,4,-1,-5,-10
15:39:23:131718,1,-4,10,2,4,-1,-5,-10
15:39:23:145166,16,13,2,-8,2,-4,10,5
15:39:23:153517,4,-3,-8,4,9,-6,0,-2
15:39:23:154244,4,-3,-8,4,9,-6,0,-2
15:39:23:160201,5,-1,3,8,21,11,-6,-2
15:39:23:175941,-8,-2,-13,-6,-7,1,-9,-13
15:39:23:176741,-8,-2,-13,-6,-7,1,-9,-13
15:39:23:182763,3,11,2,-1,-4,-6,2,1
15:39:23:190930,-7,-2,-10,-2,-4,0,8,-1
15:39:23:191752,-7,-2,-10,-2,-4,0,8,-1
15:39:23:205325,-1,-17,-5,-2,-3,6,-2,19
15:39:23:213404,5,-4,7,-3,-2,-11,-2,-4
15:39:23:214194,5,-4,7,-3,-2,-11,-2,-4
15:39:23:220207,-3,5,0,-7,-4,-5,-6,3
15:39:23:236029,3,-11,-1,-14,-10,-2,-1,-5
15:39:23:236778,3,-11,-1,-14,-10,-2,-1,-5
15:39:23:242751,1,-7,-18,-32,-20,-8,-2,-24
15:39:23:250952,1,5,9,0,5,-2,8,5
15:39:23:251736,1,5,9,0,5,-2,8,5
15:39:23:274127,4,2,2,6,-8,-13,-3,-15
15:39:23:274918,-14,-9,2,2,8,11,-2,-3
15:39:23:275717,-14,-9,2,2,8,11,-2,-3
15:39:23:280209,2,-5,1,-3,-2,-9,0,13
15:39:23:295943,3,5,2,7,3,-5,-7,7
15:39:23:296722,3,5,2,7,3,-5,-7,7
15:39:23:302764,-4,0,7,4,11,6,4,0
15:39:23:310920,2,0,0,1,-4,-2,-8,-13
15:39:23:311741,2,0,0,1,-4,-2,-8,-13
15:39:23:325249,-13,-12,-14,-8,-7,0,2,10
15:39:23:333503,4,1,5,-1,0,-6,2,-1
15:39:23:334297,4,1,5,-1,0,-6,2,-1
15:39:23:340253,-10,5,12,5,-3,-3,3,2
15:39:23:355945,-9,-11,-6,0,14,23,7,20
15:39:23:356769,-9,-11,-6,0,14,23,7,20
15:39:23:362724,16,15,5,5,8,0,-11,5
15:39:23:370965,0,7,1,-3,-9,-10,-8,1
15:39:23:371762,0,7,1,-3,-9,-10,-8,1
15:39:23:385185,-10,-3,-2,4,-9,-6,7,-8
15:39:23:393445,1,4,7,-3,-5,-1,7,-1
15:39:23:394264,1,4,7,-3,-5,-1,7,-1
15:39:23:400346,0,-2,-1,4,-2,5,0,-9
15:39:23:416012,6,-6,-2,1,17,7,6,1
15:39:23:416744,6,-6,-2,1,17,7,6,1
15:39:23:422706,4,-1,-2,-2,-3,-5,-3,0
15:39:23:430923,-6,-4,-7,-10,-27,-20,-3,-2
15:39:23:431763,-6,-4,-7,-10,-27,-20,-3,-2
15:39:23:445216,1,19,1,6,7,9,3,3
15:39:23:453521,-7,0,-2,1,-4,-7,-8,-15
15:39:23:454266,-7,0,-2,1,-4,-7,-8,-15
15:39:23:460205,-10,0,2,-2,-1,1,0,-4
15:39:23:476013,-10,0,2,-2,-1,1,0,-4
15:39:23:476769,-8,-8,-13,-1,-2,-1,7,-5
15:39:23:482715,8,0,-2,-4,-12,-18,-6,-13
15:39:23:498448,8,0,-2,-4,-12,-18,-6,-13
15:39:23:499218,-4,3,9,40,23,11,12,10
15:39:23:505352,5,-2,14,9,-2,3,-10,-3
15:39:23:513471,5,-2,14,9,-2,3,-10,-3
15:39:23:514241,-13,4,0,0,-14,-6,-4,5
15:39:23:520271,-2,-4,1,2,7,-3,10,14
15:39:23:535989,-2,-4,1,2,7,-3,10,14
15:39:23:536721,-1,-2,4,-10,-2,13,-9,-9
15:39:23:542765,-5,-5,-1,-3,6,8,-7,-16
15:39:23:558460,-5,-5,-1,-3,6,8,-7,-16
15:39:23:559206,18,8,1,-4,-4,-6,7,6
15:39:23:565266,4,-4,-5,-6,-6,-6,-2,20
15:39:23:573482,4,-4,-5,-6,-6,-6,-2,20
15:39:23:574239,1,-6,5,-9,-8,7,4,0
15:39:23:580222,-2,-5,-10,-6,7,7,-3,-5
15:39:23:595902,-2,-5,-10,-6,7,7,-3,-5
15:39:23:596708,2,-20,-12,-15,-11,-9,-10,-6
15:39:23:602826,-1,1,-3,4,-1,9,11,-5
15:39:23:618520,-1,1,-3,4,-1,9,11,-5
15:39:23:619282,3,2,-9,-2,8,-6,-10,-1
15:39:23:625240,1,-11,6,0,-3,-6,0,-1
15:39:23:633486,1,-11,6,0,-3,-6,0,-1
15:39:23:634264,0,10,-5,3,-3,-9,-10,20
15:39:23:640257,-9,1,1,1,-4,0,-3,9
15:39:23:655937,-9,1,1,1,-4,0,-3,9
15:39:23:656690,-10,-1,6,-4,-1,-4,-2,-13
15:39:23:662708,6,4,-4,1,-6,-6,-2,1
15:39:23:678456,6,4,-4,1,-6,-6,-2,1
15:39:23:679231,6,-7,-2,3,10,7,6,-15
15:39:23:685282,-4,0,-3,2,-8,-6,-8,-12
15:39:23:693459,-4,0,-3,2,-8,-6,-8,-12
15:39:23:694243,-6,4,-6,-1,13,14,-4,-36
15:39:23:700298,-14,-24,-8,-3,-5,0,-8,-8
15:39:23:716068,-14,-24,-8,-3,-5,0,-8,-8
15:39:23:716785,1,2,-3,-2,3,-1,16,6
15:39:23:722774,-11,17,-23,-4,3,-7,-8,-10
15:39:23:738600,-11,17,-23,-4,3,-7,-8,-10
15:39:23:739279,3,5,4,8,-8,-10,-7,-4
15:39:23:745211,5,7,4,-3,3,3,11,10
15:39:23:753528,5,7,4,-3,3,3,11,10
15:39:23:754260,-1,-4,0,1,1,-4,-5,-12
15:39:23:760244,-10,-27,3,-3,-6,-8,0,13
15:39:23:775979,-10,-27,3,-3,-6,-8,0,13
15:39:23:776762,-9,4,6,0,12,19,5,7
15:39:23:782767,7,1,4,-1,-3,-7,-3,2
15:39:23:798467,7,1,4,-1,-3,-7,-3,2
15:39:23:799267,-6,2,5,-6,-2,-5,-2,18
15:39:23:805195,2,3,-5,12,13,6,1,-1
15:39:23:813446,2,3,-5,12,13,6,1,-1
15:39:23:814248,0,1,-1,-9,-6,-7,-4,2
15:39:23:820285,1,0,3,0,-1,-3,-1,-8
15:39:23:836015,1,0,3,0,-1,-3,-1,-8
15:39:23:836760,0,25,-1,-1,1,-5,2,7
15:39:23:842737,-1,1,-4,-3,-3,3,-5,-11
15:39:23:858484,-1,1,-4,-3,-3,3,-5,-11
15:39:23:859227,8,-7,5,-2,-6,-6,1,-7
15:39:23:865177,11,20,-1,5,-3,1,3,-16
15:39:23:873473,11,20,-1,5,-3,1,3,-16
15:39:23:874264,2,0,-26,11,-3,-2,-9,2
15:39:23:880196,0,-9,4,-2,0,0,2,12
15:39:23:895936,0,-9,4,-2,0,0,2,12
15:39:23:896735,-10,-5,4,6,1,18,8,-3
15:39:23:902752,-3,6,-4,-1,12,8,-6,-14
15:39:23:918460,-3,6,-4,-1,12,8,-6,-14
15:39:23:919240,0,-17,1,5,-8,-25,-6,0
15:39:23:925196,0,-5,4,-2,-1,-2,-6,7
15:39:23:933432,0,-5,4,-2,-1,-2,-6,7
15:39:23:934244,2,-4,1,-5,-3,-7,1,7
15:39:23:940205,1,-9,-5,-5,-8,-3,1,4
15:39:23:955964,1,-9,-5,-5,-8,-3,1,4
15:39:23:956707,-7,-1,3,-5,-4,-12,-2,-19
15:39:23:962680,1,-6,6,1,7,6,4,10
15:39:23:978385,1,-6,6,1,7,6,4,10
15:39:23:979206,4,-3,-3,5,-6,17,8,6
15:39:23:985188,-4,9,11,7,-5,-18,2,0
15:39:23:993435,-4,9,11,7,-5,-18,2,0
15:39:23:994199,-2,-1,-3,-9,-9,-7,-5,4
15:39:24:7757,-15,-5,-5,-5,-4,5,1,9
15:39:24:15959,-15,-5,-5,-5,-4,5,1,9
15:39:24:16711,-2,-7,1,8,13,1,-1,14
15:39:24:22775,1,-5,0,-2,-1,-1,-1,4
15:39:24:30256,1,-5,0,-2,-1,-1,-1,4
15:39:24:37741,-4,0,3,-6,-19,-14,-11,-14
15:39:24:45186,-1,-4,-14,-4,6,3,-8,-8
15:39:24:53450,-1,-4,-14,-4,6,3,-8,-8
15:39:24:54290,7,11,6,-2,2,3,7,2
15:39:24:67748,3,5,5,-1,2,7,0,-1
15:39:24:75944,3,5,5,-1,2,7,0,-1
15:39:24:76740,-18,-15,-5,-3,2,-1,-3,-7
15:39:24:82757,-3,-5,-2,-5,-3,-7,-4,0
15:39:24:90285,-3,-5,-2,-5,-3,-7,-4,0
15:39:24:97687,13,-13,-7,8,-3,0,2,-8
15:39:24:105213,-1,-2,5,-1,14,29,12,2
15:39:24:113455,-1,-2,5,-1,14,29,12,2
15:39:24:114253,-2,-5,4,3,2,0,-1,-6
15:39:24:127707,-4,-3,-5,16,-3,-10,-11,-16
15:39:24:135998,-4,-3,-5,16,-3,-10,-11,-16
15:39:24:136720,2,19,3,-14,-13,-8,2,20
15:39:24:142721,-3,17,6,-5,3,0,-1,-2
15:39:24:150379,-3,17,6,-5,3,0,-1,-2
15:39:24:157743,-6,0,-5,-4,0,-4,-10,1
15:39:24:165200,7,-3,-11,-2,-2,-5,-1,3
15:39:24:173449,7,-3,-11,-2,-2,-5,-1,3
15:39:24:174224,12,7,4,-6,-1,2,2,-8
15:39:24:187826,-1,-12,2,-5,-7,-5,-2,-4
15:39:24:195979,-1,-12,2,-5,-7,-5,-2,-4
15:39:24:196756,4,-8,-5,9,0,1,4,7
15:39:24:202778,4,5,-2,0,-3,-4,8,7
15:39:24:210273,4,5,-2,0,-3,-4,8,7
15:39:24:217796,-5,0,0,-4,6,-4,-6,-11
15:39:24:225231,-15,-1,-1,-9,-7,-10,1,3
15:39:24:233435,-15,-1,-1,-9,-7,-10,1,3
15:39:24:234213,-4,6,-2,-2,-3,-1,2,0
15:39:24:247725,-4,-6,7,-15,-11,-7,3,5
15:39:24:255935,-4,-6,7,-15,-11,-7,3,5
15:39:24:256725,-6,1,-2,-9,6,2,-12,-20
15:39:24:262717,-3,-12,5,25,5,4,-3,-6
15:39:24:270380,-3,-12,5,25,5,4,-3,-6
15:39:24:277681,-4,-1,-2,-3,-12,-5,-5,-1
15:39:24:285232,10,11,-3,-1,-1,2,-4,-5
15:39:24:293410,10,11,-3,-1,-1,2,-4,-5
15:39:24:294196,6,-6,-9,1,-2,-3,1,-6
15:39:24:307744,1,2,-3,-3,5,-12,-12,-8
15:39:24:315950,1,2,-3,-3,5,-12,-12,-8
15:39:24:316730,-8,-13,0,-1,11,11,-14,12
15:39:24:322706,-1,-15,-8,-1,6,2,3,11
15:39:24:330227,-1,-15,-8,-1,6,2,3,11
15:39:24:337717,-4,-3,-3,-3,-21,-10,3,-6
15:39:24:345172,-5,3,-1,1,14,26,4,-5
15:39:24:353488,-5,3,-1,1,14,26,4,-5
15:39:24:354231,14,0,-2,-2,3,-4,2,9
15:39:24:367749,5,2,-2,-6,-12,-9,-8,4
15:39:24:375943,5,2,-2,-6,-12,-9,-8,4
15:39:24:376702,-8,-3,-19,-4,7,6,0,-8
15:39:24:382761,4,0,-2,1,5,0,10,9
15:39:24:390315,4,0,-2,1,5,0,10,9
15:39:24:397715,-1,-9,7,-3,-4,-1,-4,-7
15:39:24:405225,-11,-9,-1,-2,-1,19,-10,-8
15:39:24:413438,-11,-9,-1,-2,-1,19,-10,-8
15:39:24:414265,6,-3,3,-2,-7,-11,-8,-16
15:39:24:427705,-5,6,3,-4,-5,-11,-3,-7
15:39:24:436022,-5,6,3,-4,-5,-11,-3,-7
15:39:24:436780,-8,9,0,-4,2,1,0,11
15:39:24:442748,9,3,-10,-6,-18,-19,-18,-15
15:39:24:450352,9,3,-10,-6,-18,-19,-18,-15
15:39:24:457787,1,8,3,15,7,13,5,-1
15:39:24:465244,7,3,5,8,11,-3,8,1
15:39:24:473450,7,3,5,8,11,-3,8,1
15:39:24:474225,4,0,-3,-3,-2,-2,15,14
15:39:24:487810,-8,0,-5,-3,8,3,-9,-3
15:39:24:495937,-8,0,-5,-3,8,3,-9,-3
15:39:24:496722,5,-6,8,11,6,-2,-7,4
15:39:24:502722,0,-9,3,-8,-9,-10,2,-6
15:39:24:510259,0,-9,3,-8,-9,-10,2,-6
15:39:24:517730,-7,-4,-2,-9,2,2,-4,-7
15:39:24:525233,-3,-1,-3,-6,-4,-4,4,3
15:39:24:533474,-3,-1,-3,-6,-4,-4,4,3
15:39:24:534237,-8,-3,-4,-9,-9,-2,-10,3
15:39:24:547740,-1,-11,-19,-18,-16,-18,-12,6
15:39:24:555973,-1,-11,-19,-18,-16,-18,-12,6
15:39:24:556727,-4,9,14,26,32,23,12,10
15:39:24:562712,-8,4,3,3,-5,0,3,-2
15:39:24:570291,-8,4,3,3,-5,0,3,-2
15:39:24:577695,-4,-15,-3,-7,-11,-5,-4,-23
15:39:24:585268,3,-13,1,7,-8,-3,-1,-3
15:39:24:593493,3,-13,1,7,-8,-3,-1,-3
15:39:24:594262,-8,2,-4,11,7,-9,-10,-4
15:39:24:607789,1,0,0,-2,1,16,7,-1
15:39:24:615972,1,0,0,-2,1,16,7,-1
15:39:24:616729,5,-1,-6,-12,-14,-25,-13,-20
15:39:24:622706,24,10,7,12,35,21,17,6
15:39:24:630250,24,10,7,12,35,21,17,6
15:39:24:637777,-3,-9,-18,-12,-15,-6,3,3
15:39:24:645188,-1,3,-15,-7,-13,-7,-6,1
15:39:24:653298,-1,3,-15,-7,-13,-7,-6,1
15:39:24:660214,4,18,9,-5,-1,-3,1,8
15:39:24:667742,-2,-3,-4,-3,0,-7,-6,3
15:39:24:675966,-2,-3,-4,-3,0,-7,-6,3
15:39:24:676754,-6,1,-3,10,10,9,-1,2
15:39:24:682741,-5,-1,-3,-2,-6,-4,0,-14
15:39:24:690231,-5,-1,-3,-2,-6,-4,0,-14
15:39:24:697731,7,6,1,-13,-20,-27,-10,-7
15:39:24:705290,0,1,8,-1,10,17,4,8
15:39:24:713393,0,1,8,-1,10,17,4,8
15:39:24:714231,-14,-3,5,-3,-4,3,10,5
15:39:24:727718,-8,-15,3,-5,-15,-15,-8,-18
15:39:24:735986,-8,-15,3,-5,-15,-15,-8,-18
15:39:24:736733,-2,-12,-2,0,6,6,4,0
15:39:24:742753,-1,4,-2,2,1,7,1,5
15:39:24:750364,-1,4,-2,2,1,7,1,5
15:39:24:757696,-2,-2,3,3,6,7,2,4
15:39:24:765224,-6,-5,2,4,6,-7,-6,-11
15:39:24:773469,-6,-5,2,4,6,-7,-6,-11
15:39:24:774251,-9,8,1,6,22,11,-12,4
15:39:24:796536,9,9,2,-1,-11,-17,-2,-11
15:39:24:797351,9,9,2,-1,-11,-17,-2,-11
15:39:24:798218,1,-11,0,-4,3,4,1,-17
15:39:24:802737,-10,-10,4,-4,-4,-10,-3,11
15:39:24:810248,-10,-10,4,-4,-4,-10,-3,11
15:39:24:817682,5,13,13,-7,-16,-4,1,4
15:39:24:834062,5,3,-7,9,-8,-4,8,14
15:39:24:834885,5,3,-7,9,-8,-4,8,14
15:39:24:835686,-12,-3,-2,3,2,-1,-10,-6
15:39:24:847716,-3,2,7,6,25,16,1,10
15:39:24:855983,-3,2,7,6,25,16,1,10
15:39:24:856764,4,-16,-4,-12,-9,-6,2,5
15:39:24:862707,0,-5,-6,3,-9,-8,-3,-13
15:39:24:870361,0,-5,-6,3,-9,-8,-3,-13
15:39:24:877749,4,-6,1,-3,1,7,7,1
15:39:24:885253,-9,-4,4,5,-2,-2,-5,-4
15:39:24:893419,-9,-4,4,5,-2,-2,-5,-4
15:39:24:894175,4,3,-14,16,-8,-2,1,6
15:39:24:907748,5,-9,-12,-10,0,0,1,-5
15:39:24:915975,5,-9,-12,-10,0,0,1,-5
15:39:24:916732,1,18,4,2,-4,-1,-7,4
15:39:24:939100,8,10,2,-1,7,5,12,14
15:39:24:939935,8,10,2,-1,7,5,12,14
15:39:24:940726,-5,7,-2,-1,23,9,2,8
15:39:24:945194,-7,0,6,-6,-10,-14,-9,5
15:39:24:952853,-7,0,6,-6,-10,-14,-9,5
15:39:24:960235,1,-11,-1,-11,-17,-13,3,6
15:39:24:967758,0,7,1,-3,-1,-3,-3,-9
15:39:24:975987,0,7,1,-3,-1,-3,-3,-9
15:39:24:976781,-2,3,0,-6,-7,0,-7,-11
15:39:24:990979,-5,2,-1,-3,-7,1,-11,-4
15:39:24:991788,-5,2,-1,-3,-7,1,-11,-4
15:39:24:997721,4,-3,-3,-3,-7,-3,0,3
15:39:25:5270,-1,-4,-2,-3,-1,22,4,0
15:39:25:12798,-1,-4,-2,-3,-1,22,4,0
15:39:25:20285,9,-7,-7,5,7,4,-1,-9
15:39:25:27746,1,0,-4,0,-4,6,-1,3
15:39:25:36009,1,0,-4,0,-4,6,-1,3
15:39:25:36697,0,5,3,-1,-2,-10,1,19
15:39:25:50924,-11,-3,-5,-20,-4,1,-9,-16
15:39:25:51697,-11,-3,-5,-20,-4,1,-9,-16
15:39:25:57755,-12,-16,-8,11,-4,-5,3,-6
15:39:25:65253,1,-4,-8,3,1,-5,-3,-2
15:39:25:72759,1,-4,-8,3,1,-5,-3,-2
15:39:25:80267,0,3,-1,-15,-7,5,3,1
15:39:25:87808,-3,-2,-4,14,3,-4,-16,-10
15:39:25:95887,-3,-2,-4,14,3,-4,-16,-10
15:39:25:96710,-2,-5,-14,0,-4,-9,-3,1
15:39:25:111376,1,7,-3,-4,7,-2,0,-3
15:39:25:112205,1,7,-3,-4,7,-2,0,-3
15:39:25:117752,-1,3,0,4,18,8,1,-6
15:39:25:125244,4,3,6,-6,-11,-11,1,3
15:39:25:132807,4,3,6,-6,-11,-11,1,3
15:39:25:140206,-4,-8,-1,-3,-8,1,3,-8
15:39:25:147704,0,-1,6,3,-1,1,7,7
15:39:25:155975,0,-1,6,3,-1,1,7,7
15:39:25:156765,3,0,-8,-26,-11,-7,-3,-2
15:39:25:170985,-10,-3,-8,4,-1,3,5,-9
15:39:25:171732,-10,-3,-8,4,-1,3,5,-9
15:39:25:177661,11,7,8,-3,6,7,-3,7
15:39:25:185229,-9,-5,-3,-1,2,2,6,-6
15:39:25:192764,-9,-5,-3,-1,2,2,6,-6
15:39:25:200268,-2,-4,-3,-6,-5,-4,-3,-12
15:39:25:207733,-5,5,9,0,2,-1,2,1
15:39:25:215983,-5,5,9,0,2,-1,2,1
15:39:25:216758,1,-1,6,0,3,-1,0,11
15:39:25:230929,-7,-10,-1,1,-1,-9,-10,-9
15:39:25:231761,-7,-10,-1,1,-1,-9,-10,-9
15:39:25:237707,-2,5,5,10,5,-10,2,-5
15:39:25:253461,0,-7,1,-9,7,17,-4,-7
15:39:25:254213,0,-7,1,-9,7,17,-4,-7
15:39:25:260213,5,-22,-2,14,-4,-4,-2,-9
15:39:25:267760,3,-3,-12,-8,-8,-14,0,18
15:39:25:275940,3,-3,-12,-8,-8,-14,0,18
15:39:25:276751,-4,8,-10,-1,-7,5,-2,-5
15:39:25:291431,0,-11,2,6,11,-3,2,-3
15:39:25:292215,0,-11,2,6,11,-3,2,-3
15:39:25:297702,-5,2,-2,-12,-10,-12,-7,1
15:39:25:305308,5,14,4,-1,6,10,4,17
15:39:25:312794,5,14,4,-1,6,10,4,17
15:39:25:320301,-6,-16,-1,5,7,8,5,8
15:39:25:327718,-2,0,0,-15,-23,-23,-9,3
15:39:25:335987,-2,0,0,-15,-23,-23,-9,3
15:39:25:336764,-6,4,-1,2,-11,4,-7,-21
15:39:25:350967,11,-5,4,9,14,4,20,2
15:39:25:351775,11,-5,4,9,14,4,20,2
15:39:25:357693,6,2,4,-15,2,-2,-2,7
15:39:25:365263,-4,-3,-2,19,2,2,-5,-5
15:39:25:372832,-4,-3,-2,19,2,2,-5,-5
15:39:25:388395,-4,2,0,-1,-5,-7,1,2
15:39:25:389236,-8,2,3,0,1,0,-8,-17
15:39:25:395905,-8,2,3,0,1,0,-8,-17
15:39:25:396719,0,-14,-4,8,9,7,6,4
15:39:25:410951,2,6,-3,4,-8,-15,-7,-22
15:39:25:411728,2,6,-3,4,-8,-15,-7,-22
15:39:25:417741,-10,3,11,2,10,14,9,2
15:39:25:433466,-5,3,-2,-10,-16,-6,-3,-17
15:39:25:434191,-5,3,-2,-10,-16,-6,-3,-17
15:39:25:440212,4,10,-1,9,3,-1,3,13
