Time,EMG1,EMG2,EMG3,EMG4,EMG5,EMG6,EMG7,EMG8
17:54:11:518471,-1,0,-1,0,-2,-1,1,3
17:54:11:526241,-1,0,-1,0,-2,-1,1,3
17:54:11:527044,0,-4,-2,-2,-1,-4,-1,-1
17:54:11:541213,1,1,1,-2,2,-3,-4,-1
17:54:11:541982,1,1,1,-2,2,-3,-4,-1
17:54:11:547981,-4,2,-2,-6,-2,1,-1,-1
17:54:11:555502,-2,-2,-3,-3,-2,-5,-5,5
17:54:11:563077,-2,-2,-3,-3,-2,-5,-5,5
17:54:11:570499,1,-2,-1,3,0,1,-4,-4
17:54:11:578738,0,-1,-1,-3,1,-3,2,-2
17:54:11:579551,0,-1,-1,-3,1,-3,2,-2
17:54:11:585515,1,4,-1,2,-2,-7,-1,0
17:54:11:609375,0,4,-2,-3,-4,1,2,-2
17:54:11:610180,0,4,-2,-3,-4,1,2,-2
17:54:11:610980,-6,-4,-2,0,1,-3,-1,-2
17:54:11:615452,-1,-6,8,-1,-2,-1,0,-4
17:54:11:623062,-1,-6,8,-1,-2,-1,0,-4
17:54:11:630564,-2,0,-4,2,-1,1,2,-4
17:54:11:638719,3,2,0,4,-1,0,-1,-2
17:54:11:639589,3,2,0,4,-1,0,-1,-2
17:54:11:645478,1,3,-1,5,1,-1,-5,-6
17:54:11:661204,-5,-4,3,-5,-3,-3,-2,-2
17:54:11:662019,-5,-4,3,-5,-3,-3,-2,-2
17:54:11:667998,3,-1,-5,-3,3,0,3,2
17:54:11:691812,-3,-3,2,-1,-2,-1,0,1
17:54:11:692706,-3,-3,2,-1,-2,-1,0,1
17:54:11:693453,2,-5,-2,-3,0,2,-2,-3
17:54:11:698682,1,0,0,-6,2,1,2,0
17:54:11:699497,1,0,0,-6,2,1,2,0
17:54:11:705524,4,-1,6,-2,1,-4,2,0
17:54:11:721183,-1,-2,-5,7,-3,-4,-3,1
17:54:11:721964,-1,-2,-5,7,-3,-4,-3,1
17:54:11:728011,2,-1,-6,0,-1,2,-3,2
17:54:11:735508,0,0,-1,-3,0,1,3,-3
17:54:11:743108,0,0,-1,-3,0,1,3,-3
17:54:11:750493,-4,2,2,2,-5,-2,-2,-1
17:54:11:758706,-3,-2,-6,-2,-2,2,-4,0
17:54:11:759496,-3,-2,-6,-2,-2,2,-4,0
17:54:11:765483,-4,-4,-1,1,1,-3,-6,1
17:54:11:781179,1,2,0,1,0,0,1,0
17:54:11:781995,1,2,0,1,0,0,1,0
17:54:11:787976,-2,0,0,-2,0,3,2,-2
17:54:11:803759,1,-7,-3,3,-1,-1,0,1
17:54:11:804527,1,-7,-3,3,-1,-1,0,1
17:54:11:810537,0,-3,-2,-4,-8,-3,0,-6
17:54:11:818675,-1,2,-10,0,-1,-5,-3,-3
17:54:11:819503,-1,2,-10,0,-1,-5,-3,-3
17:54:11:825479,-5,0,-1,-3,-2,0,-5,-7
17:54:11:841168,2,-4,0,-2,-3,-1,2,1
17:54:11:841974,2,-4,0,-2,-3,-1,2,1
17:54:11:847987,2,-1,-5,-5,0,2,0,6
17:54:11:855531,1,-3,4,2,-1,-3,0,0
17:54:11:863044,1,-3,4,2,-1,-3,0,0
17:54:11:870475,-4,1,1,-1,1,-2,-1,-1
17:54:11:886824,0,2,-5,-10,2,-1,-1,-3
17:54:11:887673,0,2,-5,-10,2,-1,-1,-3
17:54:11:888516,-7,-3,1,-2,-3,-1,4,-1
17:54:11:901210,-1,0,2,-1,-4,-5,2,0
17:54:11:902038,-1,0,2,-1,-4,-5,2,0
17:54:11:908002,1,4,-1,0,0,-3,-3,-1
17:54:11:915511,2,-7,2,3,0,5,-1,4
17:54:11:923010,2,-7,2,3,0,5,-1,4
17:54:11:930498,-1,-4,2,-1,-2,-3,-2,3
17:54:11:938712,-4,1,-4,-2,3,-2,-5,-4
17:54:11:939568,-4,1,-4,-2,3,-2,-5,-4
17:54:11:945470,0,-3,2,0,1,-2,-1,4
17:54:11:969841,-1,1,-4,2,-2,2,-2,3
17:54:11:970764,-1,1,-4,2,-2,2,-2,3
17:54:11:971462,5,-1,2,1,4,4,1,-1
17:54:11:975557,-1,-5,-3,3,-3,-2,1,-7
17:54:11:983066,-1,-5,-3,3,-3,-2,1,-7
17:54:11:990518,4,3,0,0,-4,-1,-4,-6
17:54:11:998663,-4,4,3,-7,3,-2,-4,-1
17:54:11:999489,-4,4,3,-7,3,-2,-4,-1
17:54:12:5519,-3,-3,-9,-1,-2,1,0,-2
17:54:12:21181,-3,-3,3,1,-5,2,2,1
17:54:12:22041,-3,-3,3,1,-5,2,2,1
17:54:12:28002,-3,-5,0,3,-1,-1,-2,-2
17:54:12:35524,-2,2,3,-3,0,-1,1,0
17:54:12:43030,-2,2,3,-3,0,-1,1,0
17:54:12:50516,-1,4,-2,-3,2,1,1,-2
17:54:12:58683,5,-4,-5,1,2,-7,-4,3
17:54:12:59502,5,-4,-5,1,2,-7,-4,3
17:54:12:65505,-5,-3,-7,-5,-2,-1,1,3
17:54:12:81628,-2,6,-4,-3,-1,4,-5,-5
17:54:12:82455,-2,6,-4,-3,-1,4,-5,-5
17:54:12:88016,-2,-1,6,3,-5,-6,-1,0
17:54:12:95508,-2,-6,-3,-2,-2,-2,2,1
17:54:12:103086,-2,-6,-3,-2,-2,-2,2,1
17:54:12:110477,-2,-1,0,1,3,0,1,-3
17:54:12:118753,-1,2,-3,-3,0,3,-3,1
17:54:12:119526,-1,2,-3,-3,0,3,-3,1
17:54:12:125492,-2,0,-2,-3,0,-1,1,4
17:54:12:141197,0,2,3,0,-3,-3,4,-11
17:54:12:141992,0,2,3,0,-3,-3,4,-11
17:54:12:147955,1,1,4,1,-3,-4,0,8
17:54:12:163683,-1,1,6,-4,-2,2,1,-3
17:54:12:164474,-1,1,6,-4,-2,2,1,-3
17:54:12:170512,-3,-3,-2,-2,-1,1,-5,0
17:54:12:178683,1,-5,-5,-1,3,-1,-7,-9
17:54:12:179491,1,-5,-5,-1,3,-1,-7,-9
17:54:12:185464,0,-1,-3,4,0,3,3,0
17:54:12:201220,0,-1,-3,4,0,3,3,0
17:54:12:201960,-6,-1,0,2,-3,-4,0,-6
17:54:12:208014,3,-2,-7,-2,-1,-4,-3,-5
17:54:12:215510,-2,-1,-2,-5,-4,1,3,2
17:54:12:223040,-2,-1,-2,-5,-4,1,3,2
17:54:12:230480,-8,0,-2,-4,-3,-3,0,-3
17:54:12:238687,3,-5,-3,-2,4,-2,3,4
17:54:12:239505,3,-5,-3,-2,4,-2,3,4
17:54:12:245547,4,-2,-2,-1,-5,3,-2,2
17:54:12:261178,-3,1,-2,4,-2,-2,-7,6
17:54:12:262002,-3,1,-2,4,-2,-2,-7,6
17:54:12:267947,-5,-4,-3,-5,1,2,-2,-5
17:54:12:275467,-2,3,-2,1,-1,-1,3,-2
17:54:12:283053,-2,3,-2,1,-1,-1,3,-2
17:54:12:290494,-1,-1,5,1,1,-1,-1,-5
17:54:12:298691,-1,-2,4,-1,-2,-5,-5,3
17:54:12:299556,-1,-2,4,-1,-2,-5,-5,3
17:54:12:312963,1,-2,-2,-2,0,-3,7,-2
17:54:12:321191,6,-3,-2,0,-2,1,-7,-1
17:54:12:321989,6,-3,-2,0,-2,1,-7,-1
17:54:12:327979,-5,-2,-4,4,1,1,-1,-2
17:54:12:343711,-5,-1,-2,1,-2,-3,3,2
17:54:12:344506,-5,-1,-2,1,-2,-3,3,2
17:54:12:350487,-3,0,-3,2,4,-4,-2,-4
17:54:12:358724,-1,-4,-5,2,-1,0,-3,-2
17:54:12:359507,-1,-4,-5,2,-1,0,-3,-2
17:54:12:373037,3,-5,6,-3,0,0,2,0
17:54:12:381205,3,-5,6,-3,0,0,2,0
17:54:12:382011,-2,1,1,-2,4,-2,2,0
17:54:12:387980,0,-1,-2,-4,-7,0,1,-9
17:54:12:403702,0,-1,-2,-4,-7,0,1,-9
17:54:12:404504,-5,2,-1,1,-5,3,1,0
17:54:12:410454,-5,0,-5,-2,0,0,-5,1
17:54:12:418718,-5,0,-5,-2,0,0,-5,1
17:54:12:419577,0,-2,-2,-3,-1,0,-2,-7
17:54:12:433018,2,-3,1,0,0,-1,0,0
17:54:12:441191,2,-3,1,0,0,-1,0,0
17:54:12:442074,-1,0,-2,-1,1,-3,-2,-2
17:54:12:447977,0,2,-4,0,-6,0,2,-7
17:54:12:463711,0,2,-4,0,-6,0,2,-7
17:54:12:464470,3,-3,1,-6,5,-2,-1,-2
17:54:12:470497,-3,-2,-3,5,-4,-2,-3,5
17:54:12:478695,-3,-2,-3,5,-4,-2,-3,5
17:54:12:479503,-7,-4,-2,-3,2,-1,-2,-4
17:54:12:493104,1,1,3,1,-2,-4,0,-1
17:54:12:501186,1,1,3,1,-2,-4,0,-1
17:54:12:501978,-1,0,-6,-4,0,-2,-1,4
17:54:12:507955,3,5,1,-6,0,2,-1,-6
17:54:12:523696,3,5,1,-6,0,2,-1,-6
17:54:12:524477,1,-1,2,-3,-4,-5,-2,-9
17:54:12:530507,-9,-1,1,-1,-2,0,0,7
17:54:12:538692,-9,-1,1,-1,-2,0,0,7
17:54:12:539483,2,2,-1,3,-3,2,-1,4
17:54:12:553017,-2,-1,-3,0,1,0,-5,-9
17:54:12:561901,-2,-1,-3,0,1,0,-5,-9
17:54:12:562681,-3,-3,-3,2,-2,2,-2,0
17:54:12:568029,3,-8,3,-4,3,-3,-1,-2
17:54:12:583685,3,-8,3,-4,3,-3,-1,-2
17:54:12:584486,-1,-3,2,-2,-1,-3,1,-1
17:54:12:590532,-3,-4,-5,-1,-4,-1,0,0
17:54:12:598699,-3,-4,-5,-1,-4,-1,0,0
17:54:12:599488,-4,-3,-5,-2,-3,2,4,1
17:54:12:612995,1,5,28,2,3,0,2,4
17:54:12:621289,1,5,28,2,3,0,2,4
17:54:12:622021,2,1,11,-5,-5,-1,-3,1
17:54:12:628016,2,-1,-18,6,4,0,-1,-3
17:54:12:643841,2,-1,-18,6,4,0,-1,-3
17:54:12:644582,-6,0,-7,-3,1,0,-3,-3
17:54:12:650489,-6,0,-9,-7,-2,-3,-3,2
17:54:12:658667,-6,0,-9,-7,-2,-3,-3,2
17:54:12:659464,-3,-1,-8,-3,0,2,2,-5
17:54:12:672989,0,-1,-2,0,-4,-1,-2,-2
17:54:12:681214,0,-1,-2,0,-4,-1,-2,-2
17:54:12:682023,-2,1,-7,3,2,-6,-3,4
17:54:12:687978,4,0,5,4,-3,-2,0,1
17:54:12:703702,4,0,5,4,-3,-2,0,1
17:54:12:704506,-1,-1,4,-2,1,2,2,-3
17:54:12:710481,-7,-5,-6,-10,-4,1,-8,-1
17:54:12:718702,-7,-5,-6,-10,-4,1,-8,-1
17:54:12:719533,3,0,1,4,-3,-2,-6,-1
17:54:12:732981,0,1,-9,2,0,-4,0,0
17:54:12:741207,0,1,-9,2,0,-4,0,0
17:54:12:741990,-1,-2,1,-2,-1,-3,5,-3
17:54:12:747973,3,-4,-1,-2,0,1,4,-1
17:54:12:763715,3,-4,-1,-2,0,1,4,-1
17:54:12:764494,0,-1,-2,-3,-3,-4,-4,0
17:54:12:770502,-2,2,1,5,-1,1,-2,-2
17:54:12:778707,-2,2,1,5,-1,1,-2,-2
17:54:12:779487,-4,-3,1,6,-1,1,-8,-4
17:54:12:792994,2,-2,-1,-3,2,0,2,0
17:54:12:801206,2,-2,-1,-3,2,0,2,0
17:54:12:802000,7,1,0,-3,-1,-4,2,1
17:54:12:807985,-2,-2,0,-1,-1,0,-5,1
17:54:12:831857,-2,-2,0,-1,-1,0,-5,1
17:54:12:832646,-1,-3,2,3,-3,-2,-2,-4
17:54:12:833502,-3,-1,-5,-3,-2,-5,-3,1
17:54:12:838762,-3,-1,-5,-3,-2,-5,-3,1
17:54:12:839481,1,-1,-9,-2,0,2,3,1
17:54:12:853878,-8,-1,1,-4,-3,4,-3,-5
17:54:12:861643,-8,-1,1,-4,-3,4,-3,-5
17:54:12:876291,2,4,1,-1,0,-1,0,4
17:54:12:876993,-3,-2,5,-1,3,-4,1,-11
17:54:12:883664,-3,-2,5,-1,3,-4,1,-11
17:54:12:884468,-7,-5,-6,-4,-4,-2,-2,4
17:54:12:890518,-3,-3,-2,-3,-5,1,-1,8
17:54:12:898682,-3,-3,-2,-3,-5,1,-1,8
17:54:12:899484,-2,-4,4,4,-2,-1,-1,-4
17:54:12:912995,-3,-2,-4,1,0,2,-5,-1
17:54:12:921177,-3,-2,-4,1,0,2,-5,-1
17:54:12:921977,-5,0,-8,-1,3,0,2,1
17:54:12:928049,5,-1,-5,-2,-2,-4,3,-1
17:54:12:943759,5,-1,-5,-2,-2,-4,3,-1
17:54:12:944543,0,2,-2,-4,-4,1,-2,0
17:54:12:950468,4,1,0,-1,2,-4,-9,7
17:54:12:958678,4,1,0,-1,2,-4,-9,7
17:54:12:959476,-3,-2,-2,-1,1,0,-7,-2
17:54:12:973021,-2,2,0,0,-5,-2,6,-10
17:54:12:981248,-2,2,0,0,-5,-2,6,-10
17:54:12:982030,-4,-2,4,-2,-1,-5,-1,-5
17:54:12:987997,0,-1,1,0,-7,3,5,6
17:54:13:11882,0,-1,1,0,-7,3,5,6
17:54:13:12662,3,-1,-3,-1,7,5,2,2
17:54:13:13467,0,1,-1,-1,7,-4,5,0
17:54:13:18723,0,1,-1,-1,7,-4,5,0
17:54:13:19512,2,0,-4,5,14,3,0,-1
17:54:13:32967,-5,-3,-4,2,-1,-11,0,-1
17:54:13:41179,-5,-3,-4,2,-1,-11,0,-1
17:54:13:41994,-3,-2,-3,0,0,-16,-3,-5
17:54:13:47956,-3,-2,-4,-5,-5,1,-5,1
17:54:13:71931,-3,-2,-4,-5,-5,1,-5,1
17:54:13:72699,1,-6,1,1,-1,7,-3,5
17:54:13:73478,1,-1,4,-6,-6,4,0,-8
17:54:13:78681,1,-1,4,-6,-6,4,0,-8
17:54:13:79510,-4,3,-5,-1,-7,-3,2,-3
17:54:13:101854,-2,-1,-3,-4,-1,-2,-4,-4
17:54:13:102683,-2,-1,-3,-4,-1,-2,-4,-4
17:54:13:103506,-2,-2,3,-3,1,2,3,2
17:54:13:107969,0,-2,3,-1,-5,-1,-5,0
17:54:13:124120,0,-2,3,-1,-5,-1,-5,0
17:54:13:131588,0,1,9,-3,-4,0,-2,-1
17:54:13:139390,-1,0,-7,7,-1,-5,0,-2
17:54:13:140257,-1,0,-7,7,-1,-5,0,-2
17:54:13:141027,-7,-1,-2,-5,-10,0,1,0
17:54:13:152972,1,-3,3,6,1,-5,-1,5
17:54:13:161303,1,-3,3,6,1,-5,-1,5
17:54:13:161995,-2,0,-3,-7,-3,3,-2,-6
17:54:13:168005,-3,0,-5,-2,2,3,-6,-3
17:54:13:183730,-3,0,-5,-2,2,3,-6,-3
17:54:13:184509,2,-5,-3,-5,-4,-7,-2,-4
17:54:13:190468,1,-3,-1,-5,-3,0,6,-5
17:54:13:198703,1,-3,-1,-5,-3,0,6,-5
17:54:13:199516,-3,0,3,5,-3,-4,2,0
17:54:13:213029,4,-1,2,4,0,4,-2,4
17:54:13:221226,4,-1,2,4,0,4,-2,4
17:54:13:221985,0,1,-9,-1,-3,-5,-4,3
17:54:13:227970,-1,-1,6,-4,0,2,-2,0
17:54:13:243719,-1,-1,6,-4,0,2,-2,0
17:54:13:244486,0,0,3,1,-1,3,3,1
17:54:13:250527,-1,2,-7,-3,0,-1,3,1
17:54:13:258056,-1,2,-7,-3,0,-1,3,1
17:54:13:265483,1,0,5,0,0,0,-3,-9
17:54:13:272966,-6,2,-4,3,0,1,1,2
17:54:13:281187,-6,2,-4,3,0,1,1,2
17:54:13:282017,-2,-2,1,3,2,-2,-2,-5
17:54:13:295498,3,-4,-2,-9,-3,-4,0,-3
17:54:13:303703,3,-4,-2,-9,-3,-4,0,-3
17:54:13:304469,-1,-7,-4,-1,-3,5,0,-4
17:54:13:310510,5,0,2,1,0,-5,-2,3
17:54:13:318056,5,0,2,1,0,-5,-2,3
17:54:13:325477,-1,0,-9,1,-1,0,-6,4
17:54:13:332987,-7,3,-6,0,-1,1,0,-4
17:54:13:348725,-7,3,-6,0,-1,1,0,-4
17:54:13:349513,0,-3,-1,-1,-1,-4,5,1
17:54:13:355483,-1,1,3,2,-1,1,-3,-2
17:54:13:363777,-1,1,3,2,-1,1,-3,-2
17:54:13:364528,2,0,-1,5,3,-2,-2,-2
17:54:13:370474,-3,-7,-1,-10,-5,-2,-3,-4
17:54:13:378075,-3,-7,-1,-10,-5,-2,-3,-4
17:54:13:385520,-2,-4,-1,0,1,2,-1,4
17:54:13:392993,-1,0,1,2,-5,0,-2,0
17:54:13:401171,-1,0,1,2,-5,0,-2,0
17:54:13:401947,-5,1,7,-7,-2,-1,-2,-2
17:54:13:415518,-5,-1,-3,-1,4,1,-1,1
17:54:13:431927,-5,-1,-3,-1,4,1,-1,1
17:54:13:432759,-1,7,-2,-1,-2,-5,-1,-10
17:54:13:433466,4,-6,3,1,-2,-2,-1,1
17:54:13:454389,4,-6,3,1,-2,-2,-1,1
17:54:13:455111,-2,0,-5,-4,-1,0,0,2
17:54:13:455952,1,-5,-6,1,1,0,-5,-3
17:54:13:461203,1,-5,-6,1,1,0,-5,-3
17:54:13:461988,5,-3,1,-2,-5,1,2,1
17:54:13:475503,-5,1,-1,-7,0,-1,2,-3
17:54:13:483676,-5,1,-1,-7,0,-1,2,-3
17:54:13:484463,-4,-1,-2,-4,-3,-3,0,-1
17:54:13:490512,1,-5,2,7,0,1,-4,-7
17:54:13:498042,1,-5,2,7,0,1,-4,-7
17:54:13:505533,2,0,-3,-1,1,-1,2,1
17:54:13:513000,-6,-1,5,3,0,-1,0,4
17:54:13:521196,-6,-1,5,3,0,-1,0,4
17:54:13:522033,1,0,-7,-3,-1,-2,1,-7
17:54:13:535507,-1,5,4,1,1,-3,1,-3
17:54:13:543687,-1,5,4,1,1,-3,1,-3
17:54:13:544487,-2,-1,-7,-6,-3,-4,-1,6
17:54:13:550537,0,-2,-13,-1,-2,-1,0,-3
17:54:13:558027,0,-2,-13,-1,-2,-1,0,-3
17:54:13:565488,-2,1,7,6,-2,-1,-7,4
17:54:13:572972,2,2,6,-2,0,1,-4,-1
17:54:13:581193,2,2,6,-2,0,1,-4,-1
17:54:13:582017,-7,-4,-13,-5,-2,-1,2,0
17:54:13:595523,-1,-1,-2,6,0,-2,0,-4
17:54:13:603701,-1,-1,-2,6,0,-2,0,-4
17:54:13:604490,1,4,18,-1,0,-1,1,-4
17:54:13:610458,0,-1,-10,-7,-5,-4,0,0
17:54:13:626187,0,-1,-10,-7,-5,-4,0,0
17:54:13:626993,-1,-4,10,-1,4,2,-5,4
17:54:13:633020,2,-3,-18,-4,-4,0,-1,7
17:54:13:641203,2,-3,-18,-4,-4,0,-1,7
17:54:13:641970,-1,1,-3,8,-3,2,4,-4
17:54:13:655535,-6,3,12,-5,4,-7,-2,-3
17:54:13:663697,-6,3,12,-5,4,-7,-2,-3
17:54:13:664505,-1,0,7,-4,-5,-1,-4,7
17:54:13:678701,-1,-7,-19,-4,-5,2,0,-2
17:54:13:679494,-1,-7,-19,-4,-5,2,0,-2
17:54:13:685532,5,1,8,0,0,0,0,-2
17:54:13:693062,0,2,3,-3,0,-4,0,-2
17:54:13:701205,0,2,3,-3,0,-4,0,-2
17:54:13:701979,-1,-3,-4,-3,0,-4,-2,-6
17:54:13:715495,-6,-4,5,3,-3,4,-3,-2
17:54:13:723707,-6,-4,5,3,-3,4,-3,-2
17:54:13:724489,-2,0,-9,-2,-1,-5,2,4
17:54:13:730720,-1,1,21,7,1,1,0,-4
17:54:13:738044,-1,1,21,7,1,1,0,-4
17:54:13:745488,0,-6,-5,6,-1,1,-1,-6
17:54:13:752977,3,0,7,-3,0,2,0,1
17:54:13:761214,3,0,7,-3,0,2,0,1
17:54:13:761998,-1,-2,-7,-3,-1,-3,2,0
17:54:13:775540,3,0,0,-7,-3,1,-4,5
17:54:13:783713,3,0,0,-7,-3,1,-4,5
17:54:13:784491,0,-2,-17,-4,-2,-2,-1,-5
17:54:13:790467,-6,-2,-1,13,1,0,-2,-7
17:54:13:798040,-6,-2,-1,13,1,0,-2,-7
17:54:13:805479,0,1,22,1,2,0,-3,1
17:54:13:821860,-2,-7,-6,-8,-2,-1,-1,0
17:54:13:822671,-2,-7,-6,-8,-2,-1,-1,0
17:54:13:823466,-3,2,-1,2,1,0,-1,-2
17:54:13:835534,-1,5,0,-5,0,-5,-3,-1
17:54:13:843717,-1,5,0,-5,0,-5,-3,-1
17:54:13:844477,-1,-1,4,5,-4,4,-2,1
17:54:13:850478,-2,-4,-15,-2,-2,-2,-2,3
17:54:13:858070,-2,-4,-15,-2,-2,-2,-2,3
17:54:13:865481,-3,-1,-17,-10,1,4,11,-5
17:54:13:872990,-2,0,2,3,-5,-1,3,-4
17:54:13:881227,-2,0,2,3,-5,-1,3,-4
17:54:13:882242,0,-2,-4,-7,-2,2,-3,0
17:54:13:895480,4,4,-20,-4,-1,-1,2,1
17:54:13:903712,4,4,-20,-4,-1,-1,2,1
17:54:13:904494,1,-2,0,-5,-5,-4,-3,-4
17:54:13:910457,5,3,6,-4,-4,-1,-4,-4
17:54:13:918072,5,3,6,-4,-4,-1,-4,-4
17:54:13:925513,-5,-1,8,0,-2,-2,-4,2
17:54:13:933007,-7,-3,9,2,4,-3,5,-3
17:54:13:941227,-7,-3,9,2,4,-3,5,-3
17:54:13:942032,1,0,-2,4,-2,-1,-4,-2
17:54:13:955528,2,-3,-11,5,3,4,2,4
17:54:13:963749,2,-3,-11,5,3,4,2,4
17:54:13:964510,-3,1,3,2,1,-6,-9,1
17:54:13:970521,0,4,6,1,2,0,0,-1
17:54:13:978110,0,4,6,1,2,0,0,-1
17:54:13:985508,-3,-1,-7,-10,-3,-2,4,-3
17:54:13:992999,-1,-4,-8,8,1,0,1,3
17:54:14:1187,-1,-4,-8,8,1,0,1,3
17:54:14:1953,4,-10,-6,7,1,-2,-5,-2
17:54:14:15488,-5,-3,3,1,-8,1,-3,-2
17:54:14:23738,-5,-3,3,1,-8,1,-3,-2
17:54:14:24519,0,-1,5,1,1,0,-6,-6
17:54:14:30505,3,-1,7,-9,0,2,3,-2
17:54:14:38025,3,-1,7,-9,0,2,3,-2
17:54:14:45530,7,2,-4,-5,3,2,7,-1
17:54:14:53003,0,-1,2,-10,-1,-6,-5,-6
17:54:14:61208,0,-1,2,-10,-1,-6,-5,-6
17:54:14:61974,-8,-2,-2,1,-5,-5,-14,-1
17:54:14:75519,-4,-1,-3,1,-3,-1,-2,2
17:54:14:83665,-4,-1,-3,1,-3,-1,-2,2
17:54:14:84494,8,4,-2,-5,-3,0,5,-2
17:54:14:90511,0,-5,1,-9,-5,-3,4,3
17:54:14:98023,0,-5,1,-9,-5,-3,4,3
17:54:14:105484,-6,0,-5,1,3,2,0,-1
17:54:14:112994,0,-3,-2,7,4,1,-5,-3
17:54:14:121211,0,-3,-2,7,4,1,-5,-3
17:54:14:121981,-9,0,5,6,-5,0,-4,0
17:54:14:135540,0,0,2,8,0,-4,-2,1
17:54:14:143736,0,0,2,8,0,-4,-2,1
17:54:14:144475,-2,-1,-5,-4,-2,1,1,0
17:54:14:150472,0,2,-10,-1,-1,-3,-2,-4
17:54:14:158063,0,2,-10,-1,-1,-3,-2,-4
17:54:14:165475,3,-2,-9,-12,-2,-8,-4,-2
17:54:14:172986,1,-4,1,2,-5,-5,-2,0
17:54:14:181212,1,-4,1,2,-5,-5,-2,0
17:54:14:182003,-2,2,-8,-8,0,-4,-6,4
17:54:14:195494,2,-2,5,-15,1,6,1,-4
17:54:14:203695,2,-2,5,-15,1,6,1,-4
17:54:14:204517,0,-14,2,3,-2,-4,-4,-4
17:54:14:218683,-1,6,-4,13,4,5,14,3
17:54:14:219479,-1,6,-4,13,4,5,14,3
17:54:14:225474,-5,-8,-8,-9,-2,2,11,0
17:54:14:232971,-4,-7,6,5,3,-4,-5,-1
17:54:14:240577,-4,-7,6,5,3,-4,-5,-1
17:54:14:247996,5,6,5,0,0,-4,3,-4
17:54:14:255503,-2,-1,-6,-2,-3,2,-13,-1
17:54:14:263742,-2,-1,-6,-2,-3,2,-13,-1
17:54:14:264515,-8,52,2,2,0,0,-4,-7
17:54:14:278710,0,31,-1,-1,0,-3,-2,1
17:54:14:279504,0,31,-1,-1,0,-3,-2,1
17:54:14:285721,-7,-37,3,4,-1,3,0,3
17:54:14:292980,-2,-24,1,-1,39,-6,-14,2
17:54:14:300560,-2,-24,1,-1,39,-6,-14,2
17:54:14:308270,-4,-24,1,2,14,6,-3,-4
17:54:14:315511,5,-12,-11,-15,-12,-4,1,0
17:54:14:323692,5,-12,-11,-15,-12,-4,1,0
17:54:14:324463,7,-5,-15,13,-18,-1,2,6
17:54:14:338715,-5,-18,-10,-5,-18,2,-2,1
17:54:14:339524,-5,-18,-10,-5,-18,2,-2,1
17:54:14:345501,-1,13,33,-4,-2,-3,-3,-5
17:54:14:353010,-3,7,8,-7,-5,-3,2,-2
17:54:14:360500,-3,7,8,-7,-5,-3,2,-2
17:54:14:368007,-2,19,3,6,-5,3,11,-6
17:54:14:375516,-1,8,-7,0,-6,-4,-3,-9
17:54:14:383693,-1,8,-7,0,-6,-4,-3,-9
17:54:14:384489,7,-14,-11,7,-1,1,2,7
17:54:14:398667,-1,-10,-1,-12,-4,2,-7,-4
17:54:14:399469,-1,-10,-1,-12,-4,2,-7,-4
17:54:14:405505,-5,-7,-9,-3,4,2,-4,4
17:54:14:412985,-3,-2,-1,8,-2,-5,-1,-6
17:54:14:420539,-3,-2,-1,8,-2,-5,-1,-6
17:54:14:428006,-1,-8,-2,-7,-4,-3,1,-7
17:54:14:435447,1,1,10,6,-1,0,3,-3
17:54:14:443721,1,1,10,6,-1,0,3,-3
17:54:14:444496,3,3,-5,-1,1,-3,-3,4
17:54:14:458693,-4,-1,0,4,0,6,13,0
17:54:14:459523,-4,-1,0,4,0,6,13,0
17:54:14:465548,5,2,-4,-2,-1,-4,-6,0
17:54:14:472960,-3,0,-8,-7,-7,-3,4,0
17:54:14:480530,-3,0,-8,-7,-7,-3,4,0
17:54:14:488045,-4,-10,1,-3,-1,2,5,-1
17:54:14:495483,-2,1,0,-5,-3,-3,-8,3
17:54:14:503719,-2,1,0,-5,-3,-3,-8,3
17:54:14:504498,-2,7,1,3,-1,0,3,-2
17:54:14:518682,4,-7,-3,0,1,0,3,-1
17:54:14:519517,4,-7,-3,0,1,0,3,-1
17:54:14:525472,-1,-4,-2,3,-2,-5,-14,0
17:54:14:532956,3,4,6,1,-3,-1,-1,2
17:54:14:540560,3,4,6,1,-3,-1,-1,2
17:54:14:547985,-5,5,-1,-3,2,0,7,-7
17:54:14:555491,-4,-5,-13,-6,-2,-2,-4,-11
17:54:14:563732,-4,-5,-13,-6,-2,-2,-4,-11
17:54:14:564545,0,-2,1,-6,-1,-4,0,4
17:54:14:578717,-8,-11,-2,-6,-2,-2,-6,1
17:54:14:579530,-8,-11,-2,-6,-2,-2,-6,1
17:54:14:585475,2,4,4,-4,-6,1,9,-4
17:54:14:593010,-2,8,0,2,6,1,-3,-5
17:54:14:600551,-2,8,0,2,6,1,-3,-5
17:54:14:607996,3,1,5,-2,2,-7,-8,-1
17:54:14:615499,-1,-1,0,-1,1,5,8,3
17:54:14:623689,-1,-1,0,-1,1,5,8,3
17:54:14:624471,-11,0,-4,-11,-2,-4,-7,-1
17:54:14:638717,4,0,2,8,-1,2,-4,4
17:54:14:639524,4,0,2,8,-1,2,-4,4
17:54:14:645498,-4,-3,-8,-7,-3,-2,-11,0
17:54:14:653008,3,1,-1,10,5,1,4,-1
17:54:14:660490,3,1,-1,10,5,1,4,-1
17:54:14:667997,-2,-7,-10,-2,2,1,5,-4
17:54:14:675548,-6,-2,-4,-12,-6,-1,-5,-5
17:54:14:683681,-6,-2,-4,-12,-6,-1,-5,-5
17:54:14:684504,13,6,-5,2,0,3,11,4
17:54:14:698653,-3,-11,-1,-4,-8,3,-2,2
17:54:14:699475,-3,-11,-1,-4,-8,3,-2,2
17:54:14:705507,-5,-8,3,6,-2,-2,-14,-3
17:54:14:713007,4,14,6,2,2,-1,12,9
17:54:14:720545,4,14,6,2,2,-1,12,9
17:54:14:736192,-35,-38,1,-1,-2,-5,1,-5
17:54:14:737006,12,17,-2,0,0,-9,-11,-2
17:54:14:743751,12,17,-2,0,0,-9,-11,-2
17:54:14:744477,-7,-18,-7,10,0,6,5,-2
17:54:14:758676,-11,-19,-6,5,3,0,0,-4
17:54:14:759486,-11,-19,-6,5,3,0,0,-4
17:54:14:765528,12,16,2,-4,0,-3,1,-5
17:54:14:773008,22,10,-3,-14,0,0,4,17
17:54:14:788770,22,10,-3,-14,0,0,4,17
17:54:14:789533,-9,1,8,-2,-2,-1,-3,25
17:54:14:795503,-54,-53,3,-6,-2,-5,-7,-5
17:54:14:803684,-54,-53,3,-6,-2,-5,-7,-5
17:54:14:804456,-19,-20,-11,-1,-1,4,2,-3
17:54:14:818734,26,13,-7,7,-5,4,8,-1
17:54:14:819558,26,13,-7,7,-5,4,8,-1
17:54:14:825516,8,25,-2,21,-1,-6,2,-4
17:54:14:833031,4,2,12,34,13,1,0,-12
17:54:14:840518,4,2,12,34,13,1,0,-12
17:54:14:848033,9,20,1,-7,-1,-7,-3,19
17:54:14:855513,-25,2,-10,8,-8,-8,-14,-11
17:54:14:863720,-25,2,-10,8,-8,-8,-14,-11
17:54:14:864498,6,-2,2,-5,-3,3,-5,-23
17:54:14:878666,-19,-3,-9,-12,-10,-4,-1,-8
17:54:14:879476,-19,-3,-9,-12,-10,-4,-1,-8
17:54:14:885493,-4,-19,-10,-9,-4,-1,-2,4
17:54:14:893036,17,21,8,-8,3,2,3,7
17:54:14:900531,17,21,8,-8,3,2,3,7
17:54:14:907965,32,-8,0,-3,0,0,-3,-15
17:54:14:915482,9,11,-2,-25,-6,-4,-2,-10
17:54:14:923697,9,11,-2,-25,-6,-4,-2,-10
17:54:14:924498,-6,-20,-2,1,3,7,7,5
17:54:14:938686,-6,-19,1,7,7,1,-8,1
17:54:14:939500,-6,-19,1,7,7,1,-8,1
17:54:14:945454,-25,-6,-4,-15,-9,-1,3,-11
17:54:14:952984,-22,-32,-1,18,8,8,1,-13
17:54:14:960540,-22,-32,-1,18,8,8,1,-13
17:54:14:967986,9,8,9,-2,5,-4,-11,5
17:54:14:975488,5,4,-1,-5,0,7,24,5
17:54:14:983796,5,4,-1,-5,0,7,24,5
17:54:14:984497,21,8,4,-5,3,-3,20,24
17:54:14:998687,-1,-16,-3,1,-1,-3,-14,6
17:54:14:999497,-1,-16,-3,1,-1,-3,-14,6
17:54:15:5474,-17,-14,-3,5,0,2,-4,1
17:54:15:13032,25,-4,3,-6,-4,-15,5,20
17:54:15:20578,25,-4,3,-6,-4,-15,5,20
17:54:15:27976,25,4,6,18,10,27,11,11
17:54:15:36205,24,2,-10,14,1,-9,-9,-4
17:54:15:37024,24,2,-10,14,1,-9,-9,-4
17:54:15:43011,-31,-10,2,10,-2,-6,-5,-5
17:54:15:58710,-8,23,1,9,-4,-3,-5,6
17:54:15:59525,-8,23,1,9,-4,-3,-5,6
17:54:15:65472,55,70,14,4,2,-16,4,-3
17:54:15:72989,1,7,-20,2,-6,3,-3,-8
17:54:15:80551,1,7,-20,2,-6,3,-3,-8
17:54:15:88005,-18,4,1,7,-2,-4,-28,-32
17:54:15:95527,-26,-16,2,-3,3,8,7,-16
17:54:15:103682,-26,-16,2,-3,3,8,7,-16
17:54:15:104471,5,8,-3,6,0,-10,0,7
17:54:15:118655,3,-10,2,-9,-9,-5,-3,-3
17:54:15:119489,3,-10,2,-9,-9,-5,-3,-3
17:54:15:125504,-6,-20,2,14,3,-3,-7,-4
17:54:15:141197,-4,-10,-1,-6,-2,2,1,-7
17:54:15:142020,-4,-10,-1,-6,-2,2,1,-7
17:54:15:147991,-6,-11,-11,-7,-3,-1,-26,-13
17:54:15:156162,-48,9,3,-13,-10,-5,-7,-7
17:54:15:156971,-48,9,3,-13,-10,-5,-7,-7
17:54:15:170478,-15,1,-8,-17,0,14,-17,-1
17:54:15:178815,5,9,-1,6,9,-1,25,16
17:54:15:179574,5,9,-1,6,9,-1,25,16
17:54:15:185492,-35,-3,-5,-8,-16,-11,3,-1
17:54:15:201216,5,9,-8,-13,-1,5,-6,-1
17:54:15:202000,5,9,-8,-13,-1,5,-6,-1
17:54:15:207997,17,21,1,-19,-1,-5,3,-11
17:54:15:216209,-12,-13,11,15,0,2,-8,-8
17:54:15:217046,-12,-13,11,15,0,2,-8,-8
17:54:15:230494,2,1,-4,-10,-9,-1,3,-4
17:54:15:238683,8,5,1,-2,9,3,-19,8
17:54:15:239541,8,5,1,-2,9,3,-19,8
17:54:15:245492,-3,-11,-3,-6,2,4,24,7
17:54:15:261198,10,4,7,6,-2,-2,-2,-2
17:54:15:261997,10,4,7,6,-2,-2,-2,-2
17:54:15:267963,11,-5,-11,-13,-3,-3,-1,4
17:54:15:276167,45,19,10,17,6,-7,-7,-1
17:54:15:277028,45,19,10,17,6,-7,-7,-1
17:54:15:290482,7,7,-7,9,-8,-4,6,4
17:54:15:298692,-33,-16,0,-15,-1,6,15,0
17:54:15:299490,-33,-16,0,-15,-1,6,15,0
17:54:15:305482,13,-11,-9,-4,-1,3,10,1
17:54:15:321189,8,15,-1,-8,-8,-6,12,1
17:54:15:321988,8,15,-1,-8,-8,-6,12,1
17:54:15:327947,-11,11,10,9,1,-1,-16,-11
17:54:15:336177,-3,-13,2,-11,4,3,-8,-2
17:54:15:337011,-3,-13,2,-11,4,3,-8,-2
17:54:15:350484,-12,-45,5,-9,3,0,5,11
17:54:15:358696,-16,14,-17,-20,-5,-2,-2,-2
17:54:15:359500,-16,14,-17,-20,-5,-2,-2,-2
17:54:15:365481,4,12,11,11,2,-4,6,-3
17:54:15:381168,17,9,1,-2,4,2,-3,-4
17:54:15:382020,17,9,1,-2,4,2,-3,-4
17:54:15:387987,3,7,-7,15,3,-2,-7,-1
17:54:15:396193,2,-2,-11,-9,-10,-6,-5,3
17:54:15:397077,2,-2,-11,-9,-10,-6,-5,3
17:54:15:410530,9,-15,-7,-32,-12,1,9,-5
17:54:15:418690,-5,-21,7,25,2,-1,-7,-9
17:54:15:419511,-5,-21,7,25,2,-1,-7,-9
17:54:15:425482,33,57,-2,-3,-1,-4,4,-2
17:54:15:441183,-16,-62,-10,4,0,-4,1,5
17:54:15:441958,-16,-62,-10,4,0,-4,1,5
17:54:15:447963,-18,-5,0,3,-4,-5,-14,-13
17:54:15:456243,21,19,-3,-16,-6,-3,-2,-1
17:54:15:457015,21,19,-3,-16,-6,-3,-2,-1
17:54:15:470505,-8,-9,3,19,5,5,-1,2
17:54:15:478724,10,19,0,8,1,1,13,8
17:54:15:479479,10,19,0,8,1,1,13,8
17:54:15:485465,-1,-12,-11,-2,0,-8,-3,10
17:54:15:501151,8,32,10,15,8,6,2,-3
17:54:15:501958,8,32,10,15,8,6,2,-3
17:54:15:508018,-6,-7,1,1,0,-2,-13,-7
17:54:15:516164,-2,-13,-10,-19,0,0,-1,2
17:54:15:516977,-2,-13,-10,-19,0,0,-1,2
17:54:15:530512,-7,-7,-2,-11,-8,2,1,7
17:54:15:538653,-2,10,9,8,2,-2,-4,-4
17:54:15:539466,-2,10,9,8,2,-2,-4,-4
17:54:15:545522,-7,4,3,-21,-3,-1,1,0
17:54:15:561125,-27,-29,-16,-22,-5,1,2,-8
17:54:15:561968,-27,-29,-16,-22,-5,1,2,-8
17:54:15:568012,4,10,-2,-3,-5,1,0,9
17:54:15:576179,-34,-8,0,12,-3,-10,-8,-9
17:54:15:576987,-34,-8,0,12,-3,-10,-8,-9
17:54:15:590489,-9,-18,-8,13,0,-1,1,2
17:54:15:598661,8,9,10,-10,-1,-4,-5,2
17:54:15:599483,8,9,10,-10,-1,-4,-5,2
17:54:15:605509,-6,9,-5,9,-1,7,0,-9
17:54:15:621248,-6,9,-5,9,-1,7,0,-9
17:54:15:622022,22,5,-2,-12,-7,-2,-5,-5
17:54:15:627978,-18,-56,-1,6,3,-6,2,6
17:54:15:643738,-18,-56,-1,6,3,-6,2,6
17:54:15:644503,8,13,-3,-15,0,7,3,4
17:54:15:650488,6,18,1,-1,-3,-4,-3,-7
17:54:15:658712,6,18,1,-1,-3,-4,-3,-7
17:54:15:659521,-8,4,5,9,-2,-7,4,2
17:54:15:665487,-9,-11,-3,2,10,0,-1,-3
17:54:15:681232,-9,-11,-3,2,10,0,-1,-3
17:54:15:681988,14,10,0,-18,-7,3,-1,3
17:54:15:687995,10,-6,-4,-4,-1,5,2,-7
17:54:15:703749,10,-6,-4,-4,-1,5,2,-7
17:54:15:704535,-3,8,-7,15,2,-7,1,7
17:54:15:710512,7,-9,9,12,-1,7,-1,-3
17:54:15:718729,7,-9,9,12,-1,7,-1,-3
17:54:15:719520,-16,-23,-3,-1,-6,0,-7,4
17:54:15:725485,-7,7,-2,-6,-7,0,5,-8
17:54:15:741256,-7,7,-2,-6,-7,0,5,-8
17:54:15:741994,5,-6,-2,11,0,0,9,-1
17:54:15:747980,8,-6,-1,-1,3,-4,-8,2
17:54:15:763699,8,-6,-1,-1,3,-4,-8,2
17:54:15:764502,4,-17,4,23,4,-4,-2,-2
17:54:15:770442,-25,-26,-3,-9,-5,7,-9,-3
17:54:15:778733,-25,-26,-3,-9,-5,7,-9,-3
17:54:15:779508,-1,5,-2,8,4,-3,0,-3
17:54:15:785492,11,31,5,-5,-7,-5,1,11
17:54:15:801230,11,31,5,-5,-7,-5,1,11
17:54:15:801992,-11,2,-7,-12,-7,-2,-6,-1
17:54:15:807968,0,28,-1,-8,1,1,16,-1
17:54:15:823709,0,28,-1,-8,1,1,16,-1
17:54:15:824491,-1,20,4,1,-4,-9,-10,-4
17:54:15:830462,-2,1,0,31,8,0,1,-2
17:54:15:838703,-2,1,0,31,8,0,1,-2
17:54:15:839501,4,13,-5,-19,3,8,-3,2
17:54:15:845455,1,7,-1,-12,2,-4,-9,-2
17:54:15:861194,1,7,-1,-12,2,-4,-9,-2
17:54:15:861976,-18,-8,7,2,-2,-3,-3,-4
17:54:15:867970,-12,-11,-4,-23,-16,-15,-2,-4
17:54:15:883695,-12,-11,-4,-23,-16,-15,-2,-4
17:54:15:884471,10,-17,-7,-12,-2,7,6,-1
17:54:15:890441,6,8,2,7,2,4,-3,2
17:54:15:898700,6,8,2,7,2,4,-3,2
17:54:15:899499,11,18,-2,-1,-2,0,-2,-5
17:54:15:905448,-10,-4,-6,-3,2,7,-7,0
17:54:15:921199,-10,-4,-6,-3,2,7,-7,0
17:54:15:921972,8,-23,0,0,2,-7,-5,12
17:54:15:927946,1,-5,7,12,5,12,7,-2
17:54:15:943684,1,-5,7,12,5,12,7,-2
17:54:15:944476,-16,-1,-5,-10,-9,-7,24,-7
17:54:15:950507,12,18,3,4,-6,4,3,-2
17:54:15:958701,12,18,3,4,-6,4,3,-2
17:54:15:959480,6,-16,-1,9,7,-6,-9,1
17:54:15:965468,-10,5,-2,-7,-3,-6,3,1
17:54:15:981206,-10,5,-2,-7,-3,-6,3,1
17:54:15:981976,-11,23,-3,-2,-6,-8,-6,-6
17:54:15:988017,20,15,4,1,5,1,-14,-4
17:54:16:3686,20,15,4,1,5,1,-14,-4
17:54:16:4464,-10,-4,6,-13,-9,0,-8,-3
17:54:16:10512,6,-9,-2,-25,-4,-14,3,4
17:54:16:18694,6,-9,-2,-25,-4,-14,3,4
17:54:16:19465,2,-9,2,5,7,14,2,1
17:54:16:25510,-1,8,-2,7,-2,-7,5,3
17:54:16:41258,-1,8,-2,7,-2,-7,5,3
17:54:16:41975,0,-3,-7,6,-6,3,-3,-5
17:54:16:48012,-13,3,-8,-4,0,-7,-1,2
17:54:16:63722,-13,3,-8,-4,0,-7,-1,2
17:54:16:64540,-3,-10,4,-3,5,5,7,0
17:54:16:70503,-13,-26,-10,1,12,6,12,-6
17:54:16:78692,-13,-26,-10,1,12,6,12,-6
17:54:16:79553,-2,-1,-4,1,-4,1,-3,0
17:54:16:93106,-28,-27,-11,-10,-10,-8,-19,1
17:54:16:101236,-28,-27,-11,-10,-10,-8,-19,1
17:54:16:102048,0,-11,-5,-11,0,2,3,-4
17:54:16:107988,14,9,1,-5,-3,-1,-9,-5
17:54:16:115524,14,9,1,-5,-3,-1,-9,-5
17:54:16:123026,-6,12,-4,-8,-14,-15,-7,-1
17:54:16:130517,2,-8,4,7,11,3,2,-7
17:54:16:138697,2,-8,4,7,11,3,2,-7
17:54:16:139481,12,-6,-4,-5,-1,0,-20,4
17:54:16:152989,0,-5,-7,-5,0,-5,-15,-11
17:54:16:161170,0,-5,-7,-5,0,-5,-15,-11
17:54:16:161966,-14,-5,-2,8,7,-4,-3,4
17:54:16:168036,-12,7,-3,3,-4,-5,-3,-3
17:54:16:175548,-12,7,-3,3,-4,-5,-3,-3
17:54:16:182978,0,-12,1,-8,4,8,7,-3
17:54:16:190520,3,7,0,1,-4,0,7,2
17:54:16:198703,3,7,0,1,-4,0,7,2
17:54:16:199493,-1,20,0,21,-7,10,0,0
17:54:16:213096,3,-2,-5,-2,-6,-4,-3,7
17:54:16:221196,3,-2,-5,-2,-6,-4,-3,7
17:54:16:221988,8,3,-5,5,5,-2,11,-5
17:54:16:227979,12,-39,10,-1,-6,17,-8,-7
17:54:16:235589,12,-39,10,-1,-6,17,-8,-7
17:54:16:242994,-4,-11,-5,-4,2,-2,4,-3
17:54:16:250472,-4,10,3,4,-4,-17,16,1
17:54:16:258754,-4,10,3,4,-4,-17,16,1
17:54:16:259493,4,-24,-4,-1,2,-5,-10,0
17:54:16:272963,6,5,3,-4,-2,3,17,4
17:54:16:281209,6,5,3,-4,-2,3,17,4
17:54:16:282014,9,19,6,3,-8,-2,0,-6
17:54:16:287951,-9,-5,-4,13,0,-2,-13,2
17:54:16:295527,-9,-5,-4,13,0,-2,-13,2
17:54:16:303002,-11,-12,0,-5,-4,4,8,4
17:54:16:310587,-6,14,-10,-19,0,-4,2,0
17:54:16:318717,-6,14,-10,-19,0,-4,2,0
17:54:16:319531,-1,-7,1,-1,-7,-13,-5,1
17:54:16:332979,6,10,-1,1,-10,5,-3,1
17:54:16:341219,6,10,-1,1,-10,5,-3,1
17:54:16:342166,16,-8,5,6,10,10,6,4
17:54:16:348029,5,-11,-3,-3,2,-11,-9,-7
17:54:16:355578,5,-11,-3,-3,2,-11,-9,-7
17:54:16:362996,-13,15,-4,-6,-5,11,2,-1
17:54:16:370482,1,-19,-7,-7,-4,3,-6,-3
17:54:16:378676,1,-19,-7,-7,-4,3,-6,-3
17:54:16:379509,3,-10,1,-8,-3,-19,0,-7
17:54:16:402209,-15,-13,2,0,8,7,8,-2
17:54:16:402657,-15,-13,2,0,8,7,8,-2
17:54:16:403491,-17,0,-6,0,-1,-6,-10,-10
17:54:16:407965,3,24,5,-3,-7,-4,-5,8
17:54:16:415541,3,24,5,-3,-7,-4,-5,8
17:54:16:422988,-6,9,4,2,-4,-4,-6,2
17:54:16:430490,1,8,-2,3,2,0,-8,-6
17:54:16:438678,1,8,-2,3,2,0,-8,-6
17:54:16:439466,4,17,-1,1,0,-1,-2,4
17:54:16:452985,-1,-13,-3,-3,-3,-14,-6,4
17:54:16:461296,-1,-13,-3,-3,-3,-14,-6,4
17:54:16:462035,-12,-15,-2,11,5,13,-11,-3
17:54:16:467995,-2,1,3,5,7,2,9,-3
17:54:16:475585,-2,1,3,5,7,2,9,-3
17:54:16:482997,4,38,-5,1,-4,-3,-2,2
17:54:16:490520,-1,15,3,14,1,-6,-5,-7
17:54:16:498684,-1,15,3,14,1,-6,-5,-7
17:54:16:499481,3,5,4,-6,7,15,4,-1
17:54:16:512984,0,-5,-3,0,-4,-1,-1,-9
17:54:16:521169,0,-5,-3,0,-4,-1,-1,-9
17:54:16:522015,3,28,-1,-10,-8,-15,0,-2
17:54:16:527989,-9,32,4,-2,-1,10,5,-1
17:54:16:535515,-9,32,4,-2,-1,10,5,-1
17:54:16:542945,8,1,-8,6,-4,-8,-3,-5
17:54:16:550515,-1,-9,0,1,2,0,20,0
17:54:16:558763,-1,-9,0,1,2,0,20,0
17:54:16:559496,1,-14,4,-4,2,-1,2,6
17:54:16:573021,-3,-14,-1,-16,-7,0,-9,0
17:54:16:581175,-3,-14,-1,-16,-7,0,-9,0
17:54:16:581993,-2,-14,-5,10,8,7,2,-7
17:54:16:587944,1,-1,-4,-4,-2,-7,-1,3
17:54:16:595521,1,-1,-4,-4,-2,-7,-1,3
17:54:16:602991,3,2,3,-3,-1,2,-2,7
17:54:16:610476,1,-11,-5,17,4,-7,-8,-2
17:54:16:618707,1,-11,-5,17,4,-7,-8,-2
17:54:16:619520,0,15,-2,-6,-11,3,5,-3
17:54:16:632959,-9,-12,-2,2,3,6,0,0
17:54:16:641245,-9,-12,-2,2,3,6,0,0
17:54:16:641996,7,13,-1,-9,-6,-1,9,1
17:54:16:647980,-4,-21,2,-4,11,14,4,-9
17:54:16:655540,-4,-21,2,-4,11,14,4,-9
17:54:16:662967,-17,-36,-2,2,3,-8,2,-3
17:54:16:670468,3,18,-9,-11,-9,-3,5,7
17:54:16:678733,3,18,-9,-11,-9,-3,5,7
17:54:16:679515,-3,-15,-2,-9,-1,1,-8,0
17:54:16:692963,16,19,5,-4,1,-12,-3,-3
17:54:16:701190,16,19,5,-4,1,-12,-3,-3
17:54:16:701999,2,-9,-2,-7,8,5,-5,0
17:54:16:707962,-3,3,1,3,-3,-4,2,-4
17:54:16:715564,-3,3,1,3,-3,-4,2,-4
17:54:16:723008,5,28,-1,-23,-4,-3,6,-1
17:54:16:730567,4,-2,-3,-10,-8,-8,-5,3
17:54:16:738687,4,-2,-3,-10,-8,-8,-5,3
17:54:16:739475,2,-1,2,5,1,1,0,2
17:54:16:752992,-11,-4,0,1,-6,-3,-7,-5
17:54:16:761236,-11,-4,0,1,-6,-3,-7,-5
17:54:16:762030,-29,-37,-6,7,-2,3,-8,-3
17:54:16:767991,3,-15,-5,12,7,1,-2,2
17:54:16:775567,3,-15,-5,12,7,1,-2,2
17:54:16:782994,-5,-16,-5,-6,-7,-14,-9,-3
17:54:16:790499,3,-12,-10,-8,-5,2,-5,1
17:54:16:798673,3,-12,-10,-8,-5,2,-5,1
17:54:16:799488,9,-3,14,32,6,1,6,-5
17:54:16:813028,-1,-20,3,-5,2,-3,-16,1
17:54:16:821153,-1,-20,3,-5,2,-3,-16,1
17:54:16:821961,2,-2,-7,-3,0,-5,0,-5
17:54:16:827995,-2,13,-6,-1,-7,1,3,-5
17:54:16:835505,-2,13,-6,-1,-7,1,3,-5
17:54:16:842966,-7,-19,4,3,-5,3,-4,-1
17:54:16:850426,-26,-48,-3,-5,-8,-2,12,2
17:54:16:858773,-26,-48,-3,-5,-8,-2,12,2
17:54:16:859493,10,14,-4,-4,3,8,8,5
17:54:16:872999,-3,15,8,6,0,-7,-9,-3
17:54:16:881190,-3,15,8,6,0,-7,-9,-3
17:54:16:881998,-6,-21,-8,-4,-3,-5,-10,3
17:54:16:887934,5,25,-2,-2,12,8,-1,-4
17:54:16:895563,5,25,-2,-2,12,8,-1,-4
17:54:16:902967,5,35,-1,0,-2,-12,2,-2
17:54:16:910492,19,7,2,3,-5,6,1,3
17:54:16:918713,19,7,2,3,-5,6,1,3
17:54:16:919523,4,-3,0,-11,-9,-4,0,-3
17:54:16:932933,3,7,5,5,-6,-7,-6,0
17:54:16:941341,3,7,5,5,-6,-7,-6,0
17:54:16:941981,-10,2,1,12,2,-2,0,-10
17:54:16:956175,9,10,1,0,9,13,-7,-2
17:54:16:956987,9,10,1,0,9,13,-7,-2
17:54:16:962963,15,12,-2,-3,-10,-18,-6,3
17:54:16:970457,-4,1,-1,4,2,8,11,6
17:54:16:978696,-4,1,-1,4,2,8,11,6
17:54:16:979487,4,8,6,-7,1,1,-6,2
17:54:16:993029,11,-11,9,2,-1,-5,-4,-4
17:54:17:1166,11,-11,9,2,-1,-5,-4,-4
17:54:17:1987,6,-32,-3,-1,-3,-2,-4,-5
17:54:17:7969,-20,-7,-2,26,14,-1,-3,-1
17:54:17:15555,-20,-7,-2,26,14,-1,-3,-1
17:54:17:22972,-16,-45,-1,-6,4,12,-1,6
17:54:17:30470,-13,7,-4,-9,-6,-9,-9,-7
17:54:17:38043,-13,7,-4,-9,-6,-9,-9,-7
17:54:17:45473,-1,13,-2,-10,4,8,-4,-4
17:54:17:52976,3,-9,-7,-10,-3,-7,6,7
17:54:17:61234,3,-9,-7,-10,-3,-7,6,7
17:54:17:62033,6,9,3,2,2,-12,-15,-4
17:54:17:76184,8,20,-5,2,-3,3,-4,-3
17:54:17:77028,8,20,-5,2,-3,3,-4,-3
17:54:17:83001,-4,4,-2,16,14,8,9,6
17:54:17:90469,6,-16,-6,-14,-7,-4,3,0
17:54:17:98033,6,-16,-6,-14,-7,-4,3,0
17:54:17:105497,3,13,-3,9,1,-8,7,-5
17:54:17:113015,-6,-4,-1,-15,-4,7,-3,1
17:54:17:121161,-6,-4,-1,-15,-4,7,-3,1
17:54:17:121973,-2,-13,-8,4,-10,-4,3,1
17:54:17:136160,0,-27,0,-18,-9,-4,-10,-6
17:54:17:136987,0,-27,0,-18,-9,-4,-10,-6
17:54:17:143006,-23,-18,-8,1,-4,7,-2,-5
17:54:17:150496,1,11,4,12,-5,1,-2,-2
17:54:17:158023,1,11,4,12,-5,1,-2,-2
17:54:17:165504,2,5,0,-1,0,-1,5,-3
17:54:17:173010,5,12,3,-1,0,-4,3,3
17:54:17:181169,5,12,3,-1,0,-4,3,3
17:54:17:181989,-11,-9,-3,-5,-8,0,-12,1
17:54:17:196176,9,48,-2,16,1,0,4,-1
17:54:17:196953,9,48,-2,16,1,0,4,-1
17:54:17:202989,-3,8,-8,-25,-5,7,-1,-3
17:54:17:210497,-14,-12,-6,-10,-1,-7,3,-3
17:54:17:218028,-14,-12,-6,-10,-1,-7,3,-3
17:54:17:225466,5,-8,10,4,4,-1,-4,-3
17:54:17:232930,0,-26,-5,-12,-6,5,9,-1
17:54:17:241204,0,-26,-5,-12,-6,5,9,-1
17:54:17:241976,-2,-7,-3,-4,-1,-3,14,-2
17:54:17:256219,-12,-8,2,0,0,-11,-3,-1
17:54:17:256983,-12,-8,2,0,0,-11,-3,-1
17:54:17:262987,15,15,8,4,4,-5,-4,6
17:54:17:270436,3,-5,-7,2,1,9,-4,0
17:54:17:278055,3,-5,-7,2,1,9,-4,0
17:54:17:285460,5,4,-2,12,-6,-4,-6,-6
17:54:17:292995,-8,1,5,8,1,-10,4,2
17:54:17:301211,-8,1,5,8,1,-10,4,2
17:54:17:301997,8,-3,-6,-8,9,5,-3,7
17:54:17:316201,10,10,8,-13,-7,-4,-7,-4
17:54:17:316984,10,10,8,-13,-7,-4,-7,-4
17:54:17:322997,-1,4,0,-1,-4,-5,-18,3
17:54:17:330554,3,-20,-2,0,2,-3,-9,0
17:54:17:338058,3,-20,-2,0,2,-3,-9,0
17:54:17:345498,-8,-13,-2,6,4,1,5,1
17:54:17:352980,-10,-9,-7,-15,0,-3,1,-4
17:54:17:361236,-10,-9,-7,-15,0,-3,1,-4
17:54:17:361999,-1,17,0,-13,-5,2,14,-4
17:54:17:376219,-4,0,0,5,0,-1,5,-1
17:54:17:377019,-4,0,0,5,0,-1,5,-1
17:54:17:383001,-22,-17,5,5,2,1,2,-5
17:54:17:390476,3,-1,0,4,5,5,0,4
17:54:17:398047,3,-1,0,4,5,5,0,4
17:54:17:405507,-9,6,0,-1,1,-7,-2,1
17:54:17:413003,4,31,7,4,-1,2,12,-1
17:54:17:421161,4,31,7,4,-1,2,12,-1
17:54:17:421951,10,21,-2,-3,-4,-8,11,-6
17:54:17:436160,0,4,-2,2,2,5,-9,3
17:54:17:436965,0,4,-2,2,2,5,-9,3
17:54:17:443014,-5,8,-3,-12,-1,1,-17,-2
17:54:17:450495,9,5,-7,-6,-10,-8,-2,-1
17:54:17:458082,9,5,-7,-6,-10,-8,-2,-1
17:54:17:465495,10,3,-8,-8,-3,1,-7,-1
17:54:17:473003,4,10,-3,10,-1,-4,1,3
17:54:17:481184,4,10,-3,10,-1,-4,1,3
17:54:17:481999,1,-11,6,-6,-6,3,4,4
17:54:17:496177,-5,-3,-3,1,-1,3,-3,-1
17:54:17:496982,-5,-3,-3,1,-1,3,-3,-1
17:54:17:502996,-2,-10,6,9,3,1,2,2
17:54:17:510484,-5,-28,-4,-3,-6,-4,1,-7
17:54:17:518000,-5,-28,-4,-3,-6,-4,1,-7
17:54:17:525476,-4,-3,-3,19,-1,-6,0,-7
17:54:17:532949,3,9,4,-2,9,10,10,1
17:54:17:541228,3,9,4,-2,9,10,10,1
17:54:17:541985,-6,2,-4,-9,-5,2,-4,2
17:54:17:556168,-17,4,-3,-1,-2,-11,-8,-6
17:54:17:557012,-17,4,-3,-1,-2,-11,-8,-6
17:54:17:563014,4,-13,-6,-2,-6,-6,-7,3
17:54:17:570534,4,-2,-4,4,-2,-2,-5,-5
17:54:17:578070,4,-2,-4,4,-2,-2,-5,-5
17:54:17:585490,-12,-23,7,-1,8,2,-2,-3
17:54:17:592999,-5,-13,-7,-1,3,-2,-2,2
17:54:17:601213,-5,-13,-7,-1,3,-2,-2,2
17:54:17:601999,11,7,2,-7,-10,-5,-8,0
17:54:17:616181,8,8,2,0,7,12,-7,-4
17:54:17:617015,8,8,2,0,7,12,-7,-4
17:54:17:622980,6,14,-9,-9,-8,-6,-8,-4
17:54:17:630473,-11,-2,3,8,4,-6,-6,5
17:54:17:638085,-11,-2,3,8,4,-6,-6,5
17:54:17:645482,-2,15,-6,-1,-2,10,0,-11
17:54:17:652985,0,-9,1,7,-3,-4,6,2
17:54:17:661181,0,-9,1,7,-3,-4,6,2
17:54:17:661973,-1,3,3,-4,0,-5,9,-4
17:54:17:676206,4,-1,-6,-14,-6,-4,-7,-6
17:54:17:677022,4,-1,-6,-14,-6,-4,-7,-6
17:54:17:682994,-1,2,-2,-11,-1,-3,3,4
17:54:17:690489,-11,-11,-1,4,-2,0,-4,2
17:54:17:698000,-11,-11,-1,4,-2,0,-4,2
17:54:17:705506,0,-10,4,0,0,-4,4,2
17:54:17:713001,4,12,-1,-2,-1,3,0,-2
17:54:17:721192,4,12,-1,-2,-1,3,0,-2
17:54:17:721954,-4,2,2,-2,-3,6,10,-5
17:54:17:736150,16,6,-4,-4,-5,-6,-2,3
17:54:17:736957,16,6,-4,-4,-5,-6,-2,3
17:54:17:743013,-11,-29,-5,4,-5,-3,0,1
17:54:17:750492,2,4,3,-6,0,4,7,-1
17:54:17:758047,2,4,3,-6,0,4,7,-1
17:54:17:765453,-3,29,-3,2,1,1,3,0
17:54:17:773006,3,5,-5,-5,3,6,-3,-6
17:54:17:781178,3,5,-5,-5,3,6,-3,-6
17:54:17:782000,16,11,3,8,6,-8,-5,0
17:54:17:796183,1,3,-2,0,4,0,5,-4
17:54:17:797011,1,3,-2,0,4,0,5,-4
17:54:17:802947,-5,-13,-2,1,7,2,-8,-5
17:54:17:810470,-9,-21,3,-2,-2,-3,1,1
17:54:17:818036,-9,-21,3,-2,-2,-3,1,1
17:54:17:825470,10,-2,-3,10,2,-3,2,6
17:54:17:833034,-30,-30,-2,-14,-11,-10,-2,-5
17:54:17:841211,-30,-30,-2,-14,-11,-10,-2,-5
17:54:17:842001,6,-9,-8,-4,-7,2,-5,4
17:54:17:856195,5,5,3,-2,1,5,-2,-3
17:54:17:857003,5,5,3,-2,1,5,-2,-3
17:54:17:862972,0,-2,-3,-2,-1,-4,-10,1
17:54:17:870452,-9,4,-3,3,-6,-2,-7,-2
17:54:17:878056,-9,4,-3,3,-6,-2,-7,-2
17:54:17:885473,-4,25,3,0,-5,-1,1,-3
17:54:17:892989,-10,-8,-5,0,2,3,3,2
17:54:17:901214,-10,-8,-5,0,2,3,3,2
17:54:17:902003,-3,4,-3,-4,-3,1,-3,-6
17:54:17:916190,8,-7,3,1,-2,-2,1,-2
17:54:17:917026,8,-7,3,1,-2,-2,1,-2
17:54:17:922989,-10,-17,0,3,0,-2,-6,-2
17:54:17:930519,3,8,2,9,2,-4,6,2
17:54:17:938074,3,8,2,9,2,-4,6,2
17:54:17:945509,9,-5,4,-9,-7,3,10,-6
17:54:17:952975,-8,-8,2,1,3,-5,-1,0
17:54:17:961181,-8,-8,2,1,3,-5,-1,0
17:54:17:962032,0,1,1,6,0,-4,-5,4
17:54:17:976284,16,10,-1,-9,-3,2,-7,-8
17:54:17:977106,16,10,-1,-9,-3,2,-7,-8
17:54:17:983002,1,-10,-4,-2,-1,1,-2,5
17:54:17:998684,8,4,2,7,-1,1,1,-4
17:54:17:999522,8,4,2,7,-1,1,1,-4
17:54:18:5472,1,-3,-2,5,5,-2,2,1
17:54:18:12976,14,24,-3,-4,-1,-5,-2,2
17:54:18:20558,14,24,-3,-4,-1,-5,-2,2
17:54:18:28040,-5,1,7,-4,-1,0,-3,-1
17:54:18:36150,-17,-11,1,-1,-8,-2,7,3
17:54:18:36998,-17,-11,1,-1,-8,-2,7,3
17:54:18:43036,-10,-13,-8,-7,4,1,-3,-3
17:54:18:58733,0,0,1,-7,-2,-4,6,5
17:54:18:59529,0,0,1,-7,-2,-4,6,5
17:54:18:65647,-5,-5,5,-3,5,2,4,-7
17:54:18:73086,3,-15,-7,-7,-1,-7,-11,0
17:54:18:80534,3,-15,-7,-7,-1,-7,-11,0
17:54:18:88025,8,9,-5,-6,-5,1,-1,-5
17:54:18:96149,-11,-13,-4,4,3,7,19,6
17:54:18:97022,-11,-13,-4,4,3,7,19,6
17:54:18:102979,1,6,5,3,-5,-1,6,-3
17:54:18:118658,1,-12,2,6,-3,-1,-9,0
17:54:18:119460,1,-12,2,6,-3,-1,-9,0
17:54:18:125502,-1,3,-4,2,3,-3,5,2
17:54:18:132988,-2,2,1,8,3,-4,-3,-2
17:54:18:140535,-2,2,1,8,3,-4,-3,-2
17:54:18:147953,-3,-2,-5,-4,0,0,-4,-2
17:54:18:156203,-8,5,1,4,-5,7,7,1
17:54:18:157017,-8,5,1,4,-5,7,7,1
17:54:18:162961,-6,14,-2,-14,-5,-8,-3,-2
17:54:18:178706,1,10,-10,-15,-4,-4,-7,-2
17:54:18:179495,1,10,-10,-15,-4,-4,-7,-2
17:54:18:185453,6,3,4,9,2,11,5,7
17:54:18:192962,6,-17,-7,2,-6,-5,-6,-2
17:54:18:200516,6,-17,-7,2,-6,-5,-6,-2
17:54:18:207990,1,-1,5,-1,-4,-3,-3,4
17:54:18:216186,-1,1,2,6,7,4,-6,-4
17:54:18:217013,-1,1,2,6,7,4,-6,-4
17:54:18:222972,-6,-8,-6,0,-5,2,14,-7
17:54:18:238720,-3,-7,0,-4,0,-7,-4,-3
17:54:18:239577,-3,-7,0,-4,0,-7,-4,-3
17:54:18:245481,-14,-5,-4,8,1,-1,-3,0
17:54:18:252993,-1,4,1,-6,3,2,-3,-7
17:54:18:260618,-1,4,1,-6,3,2,-3,-7
17:54:18:268014,10,2,-7,1,0,2,-9,-1
17:54:18:276134,-10,-8,-1,5,-5,-6,-15,0
17:54:18:277053,-10,-8,-1,5,-5,-6,-15,0
17:54:18:283003,5,6,0,-6,-2,-5,-12,1
17:54:18:298698,10,9,-3,-4,-2,4,-11,-5
17:54:18:299533,10,9,-3,-4,-2,4,-11,-5
17:54:18:305465,-4,-3,3,-1,-4,-2,6,1
17:54:18:312978,-10,-13,-4,-6,4,1,14,2
17:54:18:320553,-10,-13,-4,-6,4,1,14,2
17:54:18:328079,6,-21,0,1,-1,0,-6,3
17:54:18:336162,-2,2,2,5,-2,-5,-24,-3
17:54:18:336988,-2,2,2,5,-2,-5,-24,-3
17:54:18:343007,-20,-2,-5,-9,-5,3,1,-9
17:54:18:358660,-15,0,0,-4,0,0,6,2
17:54:18:359478,-15,0,0,-4,0,0,6,2
17:54:18:365480,-4,12,2,3,-4,-7,2,-3
17:54:18:373031,5,13,-6,-1,-1,0,-1,-3
17:54:18:380492,5,13,-6,-1,-1,0,-1,-3
17:54:18:388024,0,-3,-3,-1,-2,-4,7,2
17:54:18:396152,9,4,-1,-4,-3,-1,24,-4
17:54:18:397001,9,4,-1,-4,-3,-1,24,-4
17:54:18:402950,-3,9,5,-2,6,6,4,-2
17:54:18:418649,7,-5,2,2,-2,-2,-5,2
17:54:18:419464,7,-5,2,2,-2,-2,-5,2
17:54:18:425441,6,-1,-2,-7,2,-5,-4,3
17:54:18:433010,-12,-5,-2,-2,-2,-2,5,-3
17:54:18:440542,-12,-5,-2,-2,-2,-2,5,-3
17:54:18:447953,1,3,-3,0,-4,1,-8,-6
17:54:18:456190,1,17,6,0,1,-5,9,2
17:54:18:456999,1,17,6,0,1,-5,9,2
17:54:18:462976,6,9,4,3,2,-3,-5,-1
17:54:18:478761,-4,-5,-3,1,-1,0,-7,0
17:54:18:479509,-4,-5,-3,1,-1,0,-7,0
17:54:18:485441,-6,-10,0,-2,-1,-3,-4,-3
17:54:18:492967,-1,-11,-3,-6,-4,4,3,-2
17:54:18:500552,-1,-11,-3,-6,-4,4,3,-2
17:54:18:507989,-2,-12,-1,1,2,-3,-13,4
17:54:18:516199,-5,-4,-5,-2,3,5,8,-2
17:54:18:517039,-5,-4,-5,-2,3,5,8,-2
17:54:18:523056,1,-1,1,1,-3,-1,-4,-2
17:54:18:538695,2,10,-1,0,2,-3,-9,1
17:54:18:539509,2,10,-1,0,2,-3,-9,1
17:54:18:545499,-3,-2,-6,0,-4,-6,-11,-1
17:54:18:553003,4,10,1,2,-4,-3,-12,-8
17:54:18:560564,4,10,1,2,-4,-3,-12,-8
17:54:18:567981,4,-6,0,2,0,1,-9,-3
17:54:18:576174,-2,-4,-3,0,3,2,-7,2
17:54:18:576988,-2,-4,-3,0,3,2,-7,2
17:54:18:582994,-3,4,-2,-1,-3,5,12,2
17:54:18:598670,5,9,6,0,0,-1,-8,-3
17:54:18:599513,5,9,6,0,0,-1,-8,-3
17:54:18:605478,-8,-4,1,2,-2,3,13,-1
17:54:18:612970,11,-9,-1,1,-3,2,17,3
17:54:18:620515,11,-9,-1,1,-3,2,17,3
17:54:18:627999,-16,-25,-7,-4,0,0,-4,-3
17:54:18:636167,-2,-11,-3,1,0,0,-12,-3
17:54:18:636977,-2,-11,-3,1,0,0,-12,-3
17:54:18:642937,7,2,6,-2,1,2,19,3
17:54:18:658660,-3,-10,-2,-3,-1,-6,9,2
17:54:18:659460,-3,-10,-2,-3,-1,-6,9,2
17:54:18:665517,-16,-7,-3,0,-1,-2,-13,-5
17:54:18:673007,-2,-2,-9,-4,-1,-1,-1,1
17:54:18:680507,-2,-2,-9,-4,-1,-1,-1,1
17:54:18:688048,6,-1,3,-1,-1,-3,3,0
17:54:18:696152,-12,-15,-7,-7,-5,-3,1,-1
17:54:18:697005,-12,-15,-7,-7,-5,-3,1,-1
17:54:18:702970,1,-3,-7,-3,-1,-2,0,-2
17:54:18:718677,-27,-14,3,-1,-2,-4,-9,-2
17:54:18:719480,-27,-14,3,-1,-2,-4,-9,-2
17:54:18:725517,0,5,0,-3,-2,-3,3,-9
17:54:18:732955,0,0,4,4,0,5,0,-3
17:54:18:740542,0,0,4,4,0,5,0,-3
17:54:18:747976,-1,7,4,1,-2,-7,-1,6
17:54:18:756169,-2,6,2,-2,0,-4,-5,-1
17:54:18:757001,-2,6,2,-2,0,-4,-5,-1
17:54:18:762979,13,4,-4,-4,0,-1,-6,-3
17:54:18:778693,-9,-6,0,5,-7,2,-9,-3
17:54:18:779533,-9,-6,0,5,-7,2,-9,-3
17:54:18:785471,-2,-3,-3,-5,-3,-2,-5,-6
17:54:18:792992,10,-10,3,0,1,-2,9,-3
17:54:18:800539,10,-10,3,0,1,-2,9,-3
17:54:18:807998,6,-9,1,1,-2,0,-5,-2
17:54:18:816186,6,14,3,-2,2,2,7,5
17:54:18:817027,6,14,3,-2,2,2,7,5
17:54:18:823003,4,-4,-5,0,-3,-3,2,4
17:54:18:838731,4,-4,-5,0,-3,-3,2,4
17:54:18:839498,1,8,-8,-4,-8,-3,-11,-3
17:54:18:845477,12,21,2,-2,1,1,-8,1
17:54:18:861192,12,21,2,-2,1,1,-8,1
17:54:18:862001,8,10,-2,-1,0,-3,7,-1
17:54:18:867960,-10,-11,-3,0,-3,7,13,-3
17:54:18:876216,-10,-11,-3,0,-3,7,13,-3
17:54:18:876986,5,7,-5,2,1,-4,-14,-5
17:54:18:882970,-3,-5,2,0,2,2,-10,2
17:54:18:898691,-3,-5,2,0,2,2,-10,2
17:54:18:899507,-6,-1,-8,-9,-3,1,5,0
17:54:18:905470,-9,-14,-2,-1,-1,-4,-5,-3
17:54:18:921205,-9,-14,-2,-1,-1,-4,-5,-3
17:54:18:922038,-7,-13,3,2,1,0,5,6
17:54:18:928019,1,5,-5,-4,-1,1,16,1
17:54:18:936217,1,5,-5,-4,-1,1,16,1
17:54:18:937003,4,-1,1,-1,-2,2,-3,-8
17:54:18:950468,-6,10,5,5,1,-4,-7,-3
17:54:18:958708,-6,10,5,5,1,-4,-7,-3
17:54:18:959511,1,8,-4,-1,0,2,-3,0
17:54:18:965477,7,-7,3,-3,3,-2,-1,2
17:54:18:981183,7,-7,3,-3,3,-2,-1,2
17:54:18:981963,-2,-24,-7,-1,1,-2,-3,3
17:54:18:987967,5,-2,-3,1,0,-1,2,-2
17:54:18:996183,5,-2,-3,1,0,-1,2,-2
17:54:18:997001,1,8,-6,1,-7,-5,-4,-6
17:54:19:10531,-6,-2,3,-2,5,3,-4,1
17:54:19:18690,-6,-2,3,-2,5,3,-4,1
17:54:19:19493,8,16,9,5,-1,-5,-9,2
17:54:19:25466,-2,14,-6,0,-5,2,3,0
17:54:19:41174,-2,14,-6,0,-5,2,3,0
17:54:19:41987,-7,-8,-2,-7,0,-3,13,0
17:54:19:48016,-13,-4,4,2,-4,-4,-7,0
17:54:19:56263,-13,-4,4,2,-4,-4,-7,0
17:54:19:57001,3,2,2,-1,-2,5,30,2
17:54:19:70492,12,7,-7,-4,0,0,-1,1
17:54:19:78699,12,7,-7,-4,0,0,-1,1
17:54:19:79490,-19,-3,-1,-3,-3,0,-10,-7
17:54:19:85465,4,-5,-2,-3,-2,0,-2,-2
17:54:19:101195,4,-5,-2,-3,-2,0,-2,-2
17:54:19:101975,5,3,-3,-5,1,-2,-7,3
17:54:19:108150,-3,-1,-6,-4,-6,-5,-4,-3
17:54:19:116200,-3,-1,-6,-4,-6,-5,-4,-3
17:54:19:117003,-5,-10,1,3,2,3,-6,-2
17:54:19:130512,-3,-1,4,-2,-6,-5,1,-1
17:54:19:138681,-3,-1,4,-2,-6,-5,1,-1
17:54:19:139488,17,-2,-4,2,7,0,5,6
17:54:19:145525,1,-3,-4,3,2,-1,5,1
17:54:19:161221,1,-3,-4,3,2,-1,5,1
17:54:19:162039,0,0,7,0,-2,-3,-12,-10
17:54:19:167995,0,-17,6,3,1,0,-8,-3
17:54:19:176215,0,-17,6,3,1,0,-8,-3
17:54:19:176979,-4,-1,-2,2,5,5,-1,4
17:54:19:190484,-11,2,-4,-11,-2,-4,-3,0
17:54:19:198676,-11,2,-4,-11,-2,-4,-3,0
17:54:19:199460,2,-1,-3,-3,-9,-4,9,2
17:54:19:205501,4,-6,1,1,0,0,-8,-4
17:54:19:220983,4,-6,1,1,0,0,-8,-4
17:54:19:228643,3,11,1,-1,-7,-5,-29,-4
17:54:19:229467,-1,20,-4,-3,-6,-2,-3,-1
17:54:19:236196,-1,20,-4,-3,-6,-2,-3,-1
17:54:19:236957,-2,5,-1,-2,1,-1,-2,-4
17:54:19:250477,4,-13,4,2,0,-1,-16,4
17:54:19:258723,4,-13,4,2,0,-1,-16,4
17:54:19:259509,2,-4,-2,-5,-2,2,16,5
17:54:19:265500,-6,5,-5,-3,2,-3,7,-9
17:54:19:281270,-6,5,-5,-3,2,-3,7,-9
17:54:19:282040,-8,-11,2,6,-5,-5,2,-7
17:54:19:288065,-3,-9,-2,0,-1,-3,13,1
17:54:19:296223,-3,-9,-2,0,-1,-3,13,1
17:54:19:297001,-12,-22,-2,-3,0,2,34,1
17:54:19:310479,-6,1,1,7,-3,0,-6,-6
17:54:19:318741,-6,1,1,7,-3,0,-6,-6
17:54:19:319509,-9,-20,-7,0,2,2,-9,0
17:54:19:325508,4,8,2,-3,1,3,2,2
17:54:19:341213,4,8,2,-3,1,3,2,2
17:54:19:342028,0,20,3,-2,1,-1,0,-1
17:54:19:347968,6,4,-1,-4,2,-4,-5,3
17:54:19:356241,6,4,-1,-4,2,-4,-5,3
17:54:19:357011,7,5,-7,1,2,-3,-11,1
17:54:19:370483,4,1,4,2,-1,-3,-6,-3
17:54:19:378698,4,1,4,2,-1,-3,-6,-3
17:54:19:379508,0,1,4,-4,-4,-2,-7,1
17:54:19:385472,-4,-15,-7,1,-3,5,17,2
17:54:19:401221,-4,-15,-7,1,-3,5,17,2
17:54:19:401988,8,0,-3,3,-2,-2,-3,3
17:54:19:407968,-5,-3,1,1,-7,-5,1,-2
17:54:19:416194,-5,-3,1,1,-7,-5,1,-2
17:54:19:417003,-3,-10,1,-4,1,-4,-8,-6
17:54:19:430535,-12,-6,-7,-5,-3,2,3,0
17:54:19:438696,-12,-6,-7,-5,-3,2,3,0
17:54:19:439479,-8,-20,-5,1,-4,-3,-8,-1
17:54:19:445470,-3,-4,4,0,3,-2,-5,-4
17:54:19:461182,-3,-4,4,0,3,-2,-5,-4
17:54:19:461982,7,-10,-2,2,6,-4,0,0
17:54:19:467956,3,-16,-4,-1,-5,-2,-2,2
17:54:19:476212,3,-16,-4,-1,-5,-2,-2,2
17:54:19:477018,0,8,0,-1,-1,6,4,-1
17:54:19:490516,1,12,-6,-1,0,-5,6,3
17:54:19:498714,1,12,-6,-1,0,-5,6,3
17:54:19:499481,-5,-8,-3,-4,-7,-1,9,-7
17:54:19:505481,-9,-7,-4,-3,0,-1,11,2
17:54:19:521200,-9,-7,-4,-3,0,-1,11,2
17:54:19:521970,16,24,4,6,3,-2,-2,4
17:54:19:527917,8,5,3,0,1,1,-8,-5
17:54:19:536221,8,5,3,0,1,1,-8,-5
17:54:19:536978,0,10,2,-5,-4,3,-13,-3
17:54:19:550474,-18,8,-2,-4,-1,-2,-10,-5
17:54:19:558673,-18,8,-2,-4,-1,-2,-10,-5
17:54:19:559471,-3,6,-2,-2,3,0,-10,-2
17:54:19:565459,3,4,0,-2,3,0,-8,-1
17:54:19:581192,3,4,0,-2,3,0,-8,-1
17:54:19:581983,-10,-1,-4,0,-5,-1,2,-3
17:54:19:588020,0,4,4,0,-1,3,-3,0
17:54:19:596221,0,4,4,0,-1,3,-3,0
17:54:19:596989,-3,-21,-6,-4,4,-2,6,5
17:54:19:610501,-1,-6,3,-3,-4,-1,-14,-3
17:54:19:618674,-1,-6,3,-3,-4,-1,-14,-3
17:54:19:619488,7,14,-4,-3,-3,6,20,3
17:54:19:625517,4,-12,-5,0,-3,-8,0,-5
17:54:19:641174,4,-12,-5,0,-3,-8,0,-5
17:54:19:641941,-4,-12,0,-1,-5,-2,-5,-4
17:54:19:647981,11,-7,-3,3,2,0,0,9
17:54:19:656257,11,-7,-3,3,2,0,0,9
17:54:19:656981,1,11,0,3,0,-2,-1,3
17:54:19:670496,-6,-8,-1,-1,2,1,2,2
17:54:19:678686,-6,-8,-1,-1,2,1,2,2
17:54:19:679499,3,-10,-2,-3,-2,-6,-20,-5
17:54:19:685492,-7,-4,-5,4,0,2,21,-6
17:54:19:701243,-7,-4,-5,4,0,2,21,-6
17:54:19:702034,-15,3,2,-3,-3,-5,-8,-2
17:54:19:707986,4,18,4,-1,-3,-1,-2,1
17:54:19:716175,4,18,4,-1,-3,-1,-2,1
17:54:19:716953,5,-17,1,-2,0,-6,-12,-5
17:54:19:730467,-1,18,-10,0,-3,-1,5,-2
17:54:19:738748,-1,18,-10,0,-3,-1,5,-2
17:54:19:739513,-1,4,4,-4,0,0,-23,-1
17:54:19:745485,-7,-16,0,0,0,2,-14,1
17:54:19:761228,-7,-16,0,0,0,2,-14,1
17:54:19:761990,-2,-4,-5,2,-7,-6,7,-1
17:54:19:767968,-2,4,-4,-5,-3,-3,6,1
17:54:19:776222,-2,4,-4,-5,-3,-3,6,1
17:54:19:777004,-3,-6,1,-2,2,-2,8,0
17:54:19:790450,8,0,4,3,-1,2,-6,-3
17:54:19:798697,8,0,4,3,-1,2,-6,-3
17:54:19:799505,3,12,1,1,1,4,6,1
17:54:19:805489,-14,1,-3,0,0,-5,-8,-3
17:54:19:821200,-14,1,-3,0,0,-5,-8,-3
17:54:19:822016,2,10,4,1,3,6,11,-4
17:54:19:827962,-1,-11,3,-2,0,1,6,-2
17:54:19:836245,-1,-11,3,-2,0,1,6,-2
17:54:19:837031,0,2,-3,0,-2,-1,-1,-2
17:54:19:850487,7,-4,-7,-2,0,-1,1,0
17:54:19:858714,7,-4,-7,-2,0,-1,1,0
17:54:19:859519,-3,-1,-1,-1,-1,-2,4,-1
17:54:19:872973,3,25,2,4,-1,-4,3,1
17:54:19:881177,3,25,2,4,-1,-4,3,1
17:54:19:881973,-11,-5,-7,0,-4,-1,0,2
17:54:19:887972,1,-5,3,-8,1,-3,-6,-4
17:54:19:895599,1,-5,3,-8,1,-3,-6,-4
17:54:19:902981,-7,-6,-3,1,-1,4,11,0
17:54:19:910476,1,-3,-5,-2,-7,-1,-15,-6
17:54:19:918739,1,-3,-5,-2,-7,-1,-15,-6
17:54:19:919496,1,-3,1,-2,-5,-3,-7,-3
17:54:19:932960,-3,2,-7,-2,-6,-2,-7,-7
17:54:19:941208,-3,2,-7,-2,-6,-2,-7,-7
17:54:19:942034,-7,5,2,-9,3,-8,15,-3
17:54:19:947968,-1,4,2,0,2,1,2,2
17:54:19:955560,-1,4,2,0,2,1,2,2
17:54:19:962987,-3,4,3,2,-2,0,-17,-1
17:54:19:970516,-3,-24,-5,-3,-1,-2,-2,4
17:54:19:978676,-3,-24,-5,-3,-1,-2,-2,4
17:54:19:979473,11,6,-1,-2,3,4,3,-3
17:54:19:993068,9,3,1,7,2,-3,9,0
17:54:20:1227,9,3,1,7,2,-3,9,0
17:54:20:1998,-9,-17,-2,0,2,-3,-7,-5
17:54:20:7992,-16,-15,0,-2,0,-2,-7,-1
17:54:20:15520,-16,-15,0,-2,0,-2,-7,-1
17:54:20:23005,4,-3,2,2,-3,-2,-8,2
17:54:20:30530,-16,-13,-6,-3,0,9,38,6
17:54:20:38687,-16,-13,-6,-3,0,9,38,6
17:54:20:39516,-12,-5,-7,-1,-1,1,10,1
17:54:20:53007,13,17,3,-2,-1,-2,-8,2
17:54:20:61168,13,17,3,-2,-1,-2,-8,2
17:54:20:61972,4,1,-2,2,-2,-5,-9,-1
17:54:20:67981,3,-4,3,1,2,-1,-5,-1
17:54:20:75523,3,-4,3,1,2,-1,-5,-1
17:54:20:82923,2,3,5,-1,3,1,-8,-1
17:54:20:90437,3,-2,3,-1,-3,4,16,-1
17:54:20:98697,3,-2,3,-1,-3,4,16,-1
17:54:20:99469,2,-8,-6,1,-4,-1,5,-5
17:54:20:112994,11,11,4,-3,5,-6,-12,-2
17:54:20:121184,11,11,4,-3,5,-6,-12,-2
17:54:20:121979,9,5,-1,-3,-1,1,-2,0
17:54:20:127990,0,0,-4,-4,-3,-3,6,-5
17:54:20:135567,0,0,-4,-4,-3,-3,6,-5
17:54:20:142982,3,1,-6,0,2,3,6,6
17:54:20:150470,-6,0,-5,-1,-4,2,2,-3
17:54:20:158709,-6,0,-5,-1,-4,2,2,-3
17:54:20:159521,-1,1,-1,1,0,1,-1,-1
17:54:20:172965,-2,27,1,2,1,0,7,7
17:54:20:181192,-2,27,1,2,1,0,7,7
17:54:20:182055,-7,12,0,-1,-4,-4,-6,-1
17:54:20:188022,1,-7,3,-5,1,-8,-19,-7
17:54:20:195553,1,-7,3,-5,1,-8,-19,-7
17:54:20:202988,-2,-10,0,0,0,0,17,1
17:54:20:210474,-3,-6,-7,-3,-3,-2,-9,0
17:54:20:218740,-3,-6,-7,-3,-3,-2,-9,0
17:54:20:219518,-7,-11,5,-1,-6,-1,3,-6
17:54:20:232985,-3,4,-3,-1,-2,1,8,-2
17:54:20:241199,-3,4,-3,-1,-2,1,8,-2
17:54:20:242057,-11,14,-7,-1,-2,-2,-8,-2
17:54:20:247985,-4,-17,-7,-1,-2,-6,-18,-4
17:54:20:255555,-4,-17,-7,-1,-2,-6,-18,-4
17:54:20:262986,1,-2,0,-4,-2,1,2,0
17:54:20:270507,1,6,6,-1,-1,-1,-2,0
17:54:20:278685,1,6,6,-1,-1,-1,-2,0
17:54:20:279477,7,-11,1,-2,4,1,-2,3
17:54:20:292984,-2,16,-2,1,2,5,18,1
17:54:20:301157,-2,16,-2,1,2,5,18,1
17:54:20:301969,0,-7,0,5,-3,0,-3,-3
17:54:20:308017,21,-18,-1,2,-3,-6,-6,-2
17:54:20:315542,21,-18,-1,2,-3,-6,-6,-2
17:54:20:323025,4,2,0,-5,1,-2,-4,0
17:54:20:330511,-2,-4,1,4,-5,3,6,0
17:54:20:338684,-2,-4,1,4,-5,3,6,0
17:54:20:339508,-4,15,3,0,-6,-5,-4,-3
17:54:20:353046,-6,-4,-1,-7,-2,0,25,-4
17:54:20:361159,-6,-4,-1,-7,-2,0,25,-4
17:54:20:361980,-2,-10,1,-5,-2,-2,-4,0
17:54:20:367993,-8,-11,-1,3,-3,-1,-17,4
17:54:20:375546,-8,-11,-1,3,-3,-1,-17,4
17:54:20:382981,-3,1,-5,1,1,-4,-6,-4
17:54:20:390429,-15,-7,-5,1,-1,5,7,4
17:54:20:398694,-15,-7,-5,1,-1,5,7,4
17:54:20:399476,0,-25,-2,-3,0,1,0,1
17:54:20:412987,0,0,3,-5,0,-8,-24,-7
17:54:20:421191,0,0,3,-5,0,-8,-24,-7
17:54:20:422055,-7,8,-5,-1,-2,0,13,-2
17:54:20:427966,1,-16,-4,-1,4,5,0,-1
17:54:20:435522,1,-16,-4,-1,4,5,0,-1
17:54:20:442985,-3,-1,-1,5,1,-3,-11,-4
17:54:20:450467,-6,10,0,-1,2,2,-9,-5
17:54:20:458703,-6,10,0,-1,2,2,-9,-5
17:54:20:459516,-2,5,0,3,1,-1,0,3
17:54:20:473026,9,10,0,-1,0,-6,-8,-1
17:54:20:481308,9,10,0,-1,0,-6,-8,-1
17:54:20:481987,1,25,-2,-2,-3,0,-6,-4
17:54:20:487984,2,10,1,-5,2,3,6,1
17:54:20:495574,2,10,1,-5,2,3,6,1
17:54:20:503007,6,-10,-2,-5,3,4,9,-3
17:54:20:510492,-10,6,7,-4,-2,-1,-18,-4
17:54:20:518673,-10,6,7,-4,-2,-1,-18,-4
17:54:20:519465,-6,13,-8,0,-1,-3,-5,-3
17:54:20:532981,0,-1,-5,-1,-1,0,0,-1
17:54:20:541276,0,-1,-5,-1,-1,0,0,-1
17:54:20:542019,-7,-13,3,-1,-5,-4,-2,-4
17:54:20:548007,-2,-11,3,1,1,-4,4,3
17:54:20:555551,-2,-11,3,1,1,-4,4,3
17:54:20:562993,0,-10,-2,3,-2,-2,-9,2
17:54:20:570522,5,-1,-8,-5,-2,-2,-10,0
17:54:20:578671,5,-1,-8,-5,-2,-2,-10,0
17:54:20:579464,4,15,2,3,0,3,-1,6
17:54:20:592998,5,10,1,-3,-4,-3,2,0
17:54:20:601171,5,10,1,-3,-4,-3,2,0
17:54:20:601980,14,21,1,-11,-4,-10,-7,3
17:54:20:607999,-8,-6,1,4,-1,5,14,1
17:54:20:615557,-8,-6,1,4,-1,5,14,1
17:54:20:622967,0,-10,-2,0,4,-3,1,4
17:54:20:630503,6,-12,-2,0,-6,-7,-5,2
17:54:20:638682,6,-12,-2,0,-6,-7,-5,2
17:54:20:639489,-9,-15,-1,1,-5,0,-4,-6
17:54:20:653020,-16,1,3,-4,-4,-9,-15,2
17:54:20:661199,-16,1,3,-4,-4,-9,-15,2
17:54:20:661968,14,6,-5,-7,-2,1,10,5
17:54:20:667961,-5,-13,-4,2,6,5,9,2
17:54:20:675530,-5,-13,-4,2,6,5,9,2
17:54:20:682977,-1,1,-1,-3,-2,-1,3,-9
17:54:20:690451,2,13,1,1,-1,0,-6,-3
17:54:20:698720,2,13,1,1,-1,0,-6,-3
17:54:20:699513,1,5,6,-5,-3,1,1,1
17:54:20:713692,0,3,-1,0,-1,1,6,2
17:54:20:714490,0,3,-1,0,-1,1,6,2
17:54:20:720471,3,-15,-4,5,0,-2,-12,2
17:54:20:727954,0,10,-5,-4,-1,1,6,-6
17:54:20:735521,0,10,-5,-4,-1,1,6,-6
17:54:20:742991,-11,0,0,1,0,4,6,-4
17:54:20:750465,8,7,0,0,1,-3,-9,-8
17:54:20:758716,8,7,0,0,1,-3,-9,-8
17:54:20:759515,2,7,-2,1,0,-7,-6,5
17:54:20:773690,6,2,3,-2,0,2,1,-1
17:54:20:774488,6,2,3,-2,0,2,1,-1
17:54:20:780467,5,-7,0,-1,0,0,4,-10
17:54:20:788006,-2,-17,-8,1,-3,-3,-7,-4
17:54:20:795577,-2,-17,-8,1,-3,-3,-7,-4
17:54:20:802963,-13,-18,-2,-3,-5,2,-1,3
17:54:20:810467,2,-5,1,0,-1,1,-5,-4
17:54:20:818000,2,-5,1,0,-1,1,-5,-4
17:54:20:825514,-8,-4,-2,-5,1,0,-3,0
17:54:20:833653,-4,-29,-4,1,-5,-8,-18,-2
17:54:20:834494,-4,-29,-4,1,-5,-8,-18,-2
17:54:20:840461,5,0,-8,1,-1,2,32,2
17:54:20:856217,-3,-1,0,2,2,0,3,-1
17:54:20:856968,-3,-1,0,2,2,0,3,-1
17:54:20:863065,0,-6,3,-4,-1,3,-15,-1
17:54:20:870491,-4,0,-5,-4,-3,-3,10,-4
17:54:20:878016,-4,0,-5,-4,-3,-3,10,-4
17:54:20:885462,14,6,1,0,-3,-1,-6,-6
17:54:20:893824,-12,-14,-7,1,0,3,4,4
17:54:20:894500,-12,-14,-7,1,0,3,4,4
17:54:20:900451,8,21,4,-1,0,-5,-7,0
17:54:20:916200,-1,7,-1,2,4,-3,5,-2
17:54:20:917018,-1,7,-1,2,4,-3,5,-2
17:54:20:922961,-8,-7,5,3,-2,-5,9,0
17:54:20:930472,-16,-11,0,2,-6,0,-2,-3
17:54:20:938017,-16,-11,0,2,-6,0,-2,-3
17:54:20:945483,1,3,-5,-4,1,-2,2,-3
17:54:20:953681,3,-3,-5,-4,-6,-2,4,1
17:54:20:954520,3,-3,-5,-4,-6,-2,4,1
17:54:20:960482,-8,-3,-2,-1,0,-1,-8,-3
17:54:20:976214,2,14,-4,1,0,1,8,3
17:54:20:976993,2,14,-4,1,0,1,8,3
17:54:20:982956,0,4,0,1,-2,-5,-4,-1
17:54:20:990457,5,7,4,-1,-1,-4,-10,-1
17:54:20:998017,5,7,4,-1,-1,-4,-10,-1
17:54:21:5482,-3,1,-2,-4,1,6,-1,-3
17:54:21:13730,7,-11,-4,2,0,2,-5,3
17:54:21:14532,7,-11,-4,2,0,2,-5,3
17:54:21:20459,-2,-11,-2,3,1,-2,-1,-4
17:54:21:36168,0,4,2,-4,-3,-1,2,-4
17:54:21:36997,0,4,2,-4,-3,-1,2,-4
17:54:21:42981,13,-2,-1,-2,-4,-2,-6,0
17:54:21:50486,8,7,6,-4,1,-2,1,-3
17:54:21:58060,8,7,6,-4,1,-2,1,-3
17:54:21:65483,-5,-26,-3,-4,-6,-1,0,4
17:54:21:73650,-9,-11,0,0,-2,1,-10,-2
17:54:21:74496,-9,-11,0,0,-2,1,-10,-2
17:54:21:80515,-3,2,-3,0,-2,-2,3,-1
17:54:21:96259,-4,2,-6,3,-4,2,0,-4
17:54:21:97084,-4,2,-6,3,-4,2,0,-4
17:54:21:102957,-9,1,6,0,0,-1,-3,-7
17:54:21:110473,12,21,0,-9,-4,-4,-2,4
17:54:21:118070,12,21,0,-9,-4,-4,-2,4
17:54:21:125521,-5,8,0,-1,0,-1,-1,0
17:54:21:133646,-2,-13,0,-3,1,-3,-10,2
17:54:21:134480,-2,-13,0,-3,1,-3,-10,2
17:54:21:140466,-6,-5,-8,1,3,2,-8,1
17:54:21:156166,-1,-5,1,4,-2,-7,-2,2
17:54:21:156973,-1,-5,1,4,-2,-7,-2,2
17:54:21:163006,4,16,2,1,1,3,-2,-2
17:54:21:170510,0,1,-4,-5,1,-1,-6,1
17:54:21:178048,0,1,-4,-5,1,-1,-6,1
17:54:21:185449,0,-10,1,2,-6,2,2,-6
17:54:21:193672,-6,-5,1,6,4,-1,4,-1
17:54:21:194500,-6,-5,1,6,4,-1,4,-1
17:54:21:200464,-5,12,-4,-2,0,-6,-7,1
17:54:21:216161,-3,-22,-7,-4,3,6,17,1
17:54:21:216975,-3,-22,-7,-4,3,6,17,1
17:54:21:222949,-6,-12,2,-4,-2,3,3,2
17:54:21:230464,-5,-9,-1,2,2,0,-5,-7
17:54:21:238031,-5,-9,-1,2,2,0,-5,-7
17:54:21:245494,-10,-13,-3,0,-3,3,-4,-1
17:54:21:253676,12,-3,-1,-4,-3,-3,2,-2
17:54:21:254487,12,-3,-1,-4,-3,-3,2,-2
17:54:21:260490,-1,11,-3,-1,-3,-2,5,-8
17:54:21:276188,-13,16,2,-1,0,-6,-16,0
17:54:21:276996,-13,16,2,-1,0,-6,-16,0
17:54:21:282974,-1,2,-1,-4,-5,1,8,0
17:54:21:290448,4,7,-1,-4,-3,0,6,1
17:54:21:298025,4,7,-1,-4,-3,0,6,1
17:54:21:305486,0,-10,2,1,1,-8,-4,2
17:54:21:313705,1,-7,-2,4,4,-2,-5,-1
17:54:21:314528,1,-7,-2,4,4,-2,-5,-1
17:54:21:320473,-3,2,-7,-1,-3,-2,-1,-3
17:54:21:336181,0,8,2,5,2,2,-3,-3
17:54:21:336988,0,8,2,5,2,2,-3,-3
17:54:21:343002,-2,-10,3,-2,2,-3,-11,-1
17:54:21:350485,-2,-8,-1,-7,-3,-5,2,-3
17:54:21:358054,-2,-8,-1,-7,-3,-5,2,-3
17:54:21:365463,11,20,0,-7,-3,-1,-5,-3
17:54:21:373652,12,3,-1,0,0,4,2,-1
17:54:21:374460,12,3,-1,0,0,4,2,-1
17:54:21:380501,-2,-1,-4,-2,-1,-2,-6,0
17:54:21:396221,-4,-14,-10,-5,-5,3,4,-1
17:54:21:397020,-4,-14,-10,-5,-5,3,4,-1
17:54:21:402996,-3,-22,-4,-6,-2,-6,3,-1
17:54:21:410469,1,1,-2,-7,-6,-5,-4,1
17:54:21:418038,1,1,-2,-7,-6,-5,-4,1
17:54:21:425524,5,-8,1,7,-4,2,1,-3
17:54:21:433640,-4,5,0,1,-6,1,4,-4
17:54:21:434478,-4,5,0,1,-6,1,4,-4
17:54:21:440555,-2,-6,0,2,5,-11,3,6
17:54:21:456178,-4,-2,1,0,5,1,8,3
17:54:21:456978,-4,-2,1,0,5,1,8,3
17:54:21:463010,9,13,-4,-4,4,0,0,-2
17:54:21:470504,0,11,5,-13,-7,-4,-4,2
17:54:21:478004,0,11,5,-13,-7,-4,-4,2
17:54:21:485457,7,9,-4,-9,-6,7,2,1
17:54:21:493694,-3,-26,-1,18,6,-3,1,-4
17:54:21:494509,-3,-26,-1,18,6,-3,1,-4
17:54:21:500477,15,13,0,-4,-3,-1,-5,-4
17:54:21:516155,13,14,10,-8,9,-3,-4,-2
17:54:21:516987,13,14,10,-8,9,-3,-4,-2
17:54:21:522956,-11,-7,3,18,1,1,-3,-1
17:54:21:530455,-11,7,-2,3,-1,-2,2,0
17:54:21:538026,-11,7,-2,3,-1,-2,2,0
17:54:21:545484,-16,-56,-7,-11,0,-3,-4,0
17:54:21:552943,-14,-1,-7,-7,-9,-11,-4,2
17:54:21:561196,-14,-1,-7,-7,-9,-11,-4,2
17:54:21:561981,4,11,3,3,6,3,2,7
17:54:21:576187,2,13,-2,-3,-2,2,-5,-3
17:54:21:577060,2,13,-2,-3,-2,2,-5,-3
17:54:21:582978,-26,4,-3,-6,1,4,4,-10
17:54:21:590488,-3,-3,1,-6,-5,-5,3,6
17:54:21:598038,-3,-3,1,-6,-5,-5,3,6
17:54:21:605490,4,10,3,3,7,6,-2,2
17:54:21:612964,-2,25,-5,-6,-10,3,-1,-2
17:54:21:621178,-2,25,-5,-6,-10,3,-1,-2
17:54:21:621944,-3,0,-1,5,-8,-10,-4,5
17:54:21:636197,0,0,1,0,-2,9,3,-1
17:54:21:637025,0,0,1,0,-2,9,3,-1
17:54:21:643046,-7,-6,-3,-12,2,13,2,-6
17:54:21:650531,7,-16,-1,8,15,1,-2,9
17:54:21:658064,7,-16,-1,8,15,1,-2,9
17:54:21:665505,-5,6,5,-6,-13,-9,5,-11
17:54:21:672972,9,22,-4,-10,-6,4,-2,2
17:54:21:681276,9,22,-4,-10,-6,4,-2,2
17:54:21:681970,-8,-12,-6,9,-2,-11,-5,1
17:54:21:696160,-14,-3,-6,13,-1,4,1,-18
17:54:21:696980,-14,-3,-6,13,-1,4,1,-18
17:54:21:703005,1,-6,6,-1,-5,-3,-1,-2
17:54:21:710488,-6,-2,-3,-13,-13,-16,-4,-9
17:54:21:717996,-6,-2,-3,-13,-13,-16,-4,-9
17:54:21:725452,10,28,-1,2,3,12,-1,-11
17:54:21:733671,13,3,3,6,-1,4,-7,3
17:54:21:734482,13,3,3,6,-1,4,-7,3
17:54:21:748040,-18,-23,-11,-5,-8,-4,3,7
17:54:21:756166,-30,8,-2,-3,-1,-5,-4,2
17:54:21:756985,-30,8,-2,-3,-1,-5,-4,2
17:54:21:762995,5,15,-7,7,8,-3,-2,1
17:54:21:778644,-24,-12,-1,7,2,4,0,-11
17:54:21:779482,-24,-12,-1,7,2,4,0,-11
17:54:21:785508,4,-1,-4,2,5,-5,2,2
17:54:21:793653,8,-29,6,-4,0,-8,2,0
17:54:21:794505,8,-29,6,-4,0,-8,2,0
17:54:21:807990,14,38,8,4,2,5,-12,-2
17:54:21:816161,6,34,0,0,-4,4,1,2
17:54:21:817000,6,34,0,0,-4,4,1,2
17:54:21:823028,2,4,2,0,5,-1,9,2
17:54:21:838662,1,-24,5,5,4,-8,-1,5
17:54:21:839453,1,-24,5,5,4,-8,-1,5
17:54:21:845478,17,5,4,7,-2,1,-6,0
17:54:21:853658,-2,-44,-2,6,6,-1,-1,2
17:54:21:854457,-2,-44,-2,6,6,-1,-1,2
17:54:21:867975,4,-5,4,-5,7,-1,-2,-1
17:54:21:876124,9,2,-4,-2,-1,6,-3,-4
17:54:21:876938,9,2,-4,-2,-1,6,-3,-4
17:54:21:882999,-2,-16,1,-2,-6,-7,3,6
17:54:21:898704,3,0,-6,-2,-4,5,-3,5
17:54:21:899497,3,0,-6,-2,-4,5,-3,5
17:54:21:905486,10,-24,0,-7,-12,-6,10,-3
17:54:21:913646,8,-7,6,5,5,1,-3,-4
17:54:21:914455,8,-7,6,5,5,1,-3,-4
17:54:21:928065,-4,-33,-8,-6,2,-9,-4,3
17:54:21:936206,-14,-29,-2,-4,1,6,4,-10
17:54:21:937026,-14,-29,-2,-4,1,6,4,-10
17:54:21:943006,-19,12,-9,-14,-9,-1,-6,-2
17:54:21:958702,1,13,1,-7,-4,0,-9,1
17:54:21:959516,1,13,1,-7,-4,0,-9,1
17:54:21:965491,-9,-4,0,9,3,-4,2,-2
17:54:21:973688,-29,-17,-13,-3,-5,-7,2,-5
17:54:21:974538,-29,-17,-13,-3,-5,-7,2,-5
17:54:21:987967,11,9,-3,-6,-5,-2,-8,-3
17:54:21:996184,14,27,1,-8,2,-2,6,0
17:54:21:997003,14,27,1,-8,2,-2,6,0
17:54:22:2971,-8,12,1,2,-1,6,-1,-1
17:54:22:18723,12,33,22,7,3,1,-4,-3
17:54:22:19486,12,33,22,7,3,1,-4,-3
17:54:22:25454,2,-14,-4,10,-2,0,-6,4
17:54:22:33690,3,-1,-4,-5,-1,-5,1,-4
17:54:22:34502,3,-1,-4,-5,-1,-5,1,-4
17:54:22:47971,1,-1,1,-6,2,-7,0,-2
17:54:22:56195,-16,-11,-5,5,-1,-5,0,-1
17:54:22:57003,-16,-11,-5,5,-1,-5,0,-1
17:54:22:62988,7,42,2,2,-1,-6,-2,1
17:54:22:78712,7,42,2,2,-1,-6,-2,1
17:54:22:79504,-7,19,-6,9,9,9,2,-4
17:54:22:85456,-12,-4,-1,-5,2,1,-2,-2
17:54:22:93050,-12,-4,-1,-5,2,1,-2,-2
17:54:22:100487,17,29,3,-1,-7,-3,-3,7
17:54:22:108141,-9,-5,-8,-3,-3,-1,-4,-5
17:54:22:116257,-9,-5,-8,-3,-3,-1,-4,-5
17:54:22:116984,1,-10,-8,-5,-1,4,2,-1
17:54:22:122964,-4,-9,6,12,7,4,-1,1
17:54:22:138754,-4,-9,6,12,7,4,-1,1
17:54:22:139538,4,-46,-4,-1,2,-8,-3,0
17:54:22:145503,3,-18,-1,-7,-6,0,-1,-4
17:54:22:153102,3,-18,-1,-7,-6,0,-1,-4
17:54:22:160479,-2,-16,3,1,6,9,-4,-2
17:54:22:167996,-8,-2,0,-18,-15,0,4,0
17:54:22:176156,-8,-2,0,-18,-15,0,4,0
17:54:22:176961,-1,13,-3,3,-7,-6,-1,2
17:54:22:182996,-1,-26,-1,-6,4,3,1,9
17:54:22:198722,-1,-26,-1,-6,4,3,1,9
17:54:22:199497,6,3,-3,2,-5,2,4,1
17:54:22:205489,-5,-26,1,4,-4,-8,-1,-5
17:54:22:213669,-5,-26,1,4,-4,-8,-1,-5
17:54:22:214439,4,-9,-2,3,0,3,-3,2
17:54:22:228001,10,8,1,3,0,-1,-4,1
17:54:22:236237,10,8,1,3,0,-1,-4,1
17:54:22:237047,3,10,-3,4,4,-1,0,-4
17:54:22:242990,-1,-13,1,21,3,0,-1,-5
17:54:22:258748,-1,-13,1,21,3,0,-1,-5
17:54:22:259517,5,17,6,-5,-8,-4,0,-3
17:54:22:265481,-5,46,-8,-10,-7,7,5,-5
17:54:22:273675,-5,46,-8,-10,-7,7,5,-5
17:54:22:274476,-12,-34,-13,-4,-2,-7,-2,2
17:54:22:287990,-2,-8,-3,-7,-1,-1,2,0
17:54:22:296237,-2,-8,-3,-7,-1,-1,2,0
17:54:22:297006,9,4,1,-6,0,2,2,-10
17:54:22:303000,7,4,-7,-4,-3,0,-8,0
17:54:22:318708,7,4,-7,-4,-3,0,-8,0
17:54:22:319500,5,6,10,-4,2,-4,-6,4
17:54:22:325472,-14,14,4,3,-1,-2,-2,-1
17:54:22:333718,-14,14,4,3,-1,-2,-2,-1
17:54:22:334504,5,26,-2,-3,2,3,1,-4
17:54:22:347982,1,-17,9,2,2,-1,-1,10
17:54:22:356215,1,-17,9,2,2,-1,-1,10
17:54:22:357028,-24,-22,-11,-5,-6,-1,0,2
17:54:22:362991,-8,0,3,-1,3,-2,1,0
17:54:22:378681,-8,0,3,-1,3,-2,1,0
17:54:22:379508,-4,16,-8,-3,-6,2,0,0
17:54:22:385472,0,-6,1,-5,-3,4,6,1
17:54:22:393807,0,-6,1,-5,-3,4,6,1
17:54:22:394532,-4,-12,-1,-4,-3,-6,-4,-8
17:54:22:407969,-12,-16,-5,-5,8,-2,-1,-7
17:54:22:416194,-12,-16,-5,-5,8,-2,-1,-7
17:54:22:416986,4,9,7,-1,-3,-1,-6,2
17:54:22:422978,4,-23,-5,-4,-6,0,-1,-12
17:54:22:438705,4,-23,-5,-4,-6,0,-1,-12
17:54:22:439483,-14,-10,-8,-15,-11,-7,-3,-1
17:54:22:445474,-2,4,-2,1,-2,6,2,7
17:54:22:453702,-2,4,-2,1,-2,6,2,7
17:54:22:454513,-9,-39,3,3,3,0,-1,-7
17:54:22:467937,3,20,-1,2,8,-2,-9,-2
17:54:22:476202,3,20,-1,2,8,-2,-9,-2
17:54:22:476960,12,-13,0,-6,-2,4,-3,2
17:54:22:482950,-4,1,-6,-8,-2,-4,-8,-3
17:54:22:498670,-4,1,-6,-8,-2,-4,-8,-3
17:54:22:499495,4,19,4,9,-5,-9,-2,-4
17:54:22:505465,7,-5,-4,-8,-2,5,5,0
17:54:22:513751,7,-5,-4,-8,-2,5,5,0
17:54:22:514471,-4,-37,-1,6,-1,0,1,0
17:54:22:528027,9,7,-2,10,-2,0,0,-7
17:54:22:536216,9,7,-2,10,-2,0,0,-7
17:54:22:537003,11,9,2,4,0,-6,1,3
17:54:22:543025,7,3,-2,-2,-8,-2,-3,-3
17:54:22:558680,7,3,-2,-2,-8,-2,-3,-3
17:54:22:559491,-6,40,6,7,10,-3,-6,2
17:54:22:565511,2,19,-10,-7,-6,-1,10,2
17:54:22:573699,2,19,-10,-7,-6,-1,10,2
17:54:22:574497,-5,1,-3,-6,12,1,7,6
17:54:22:587993,-4,-2,2,12,6,7,-6,-8
17:54:22:596247,-4,-2,2,12,6,7,-6,-8
17:54:22:596977,-2,3,-6,-3,-15,-2,-4,-4
17:54:22:603020,4,-13,-5,-1,0,-4,-1,1
17:54:22:618707,4,-13,-5,-1,0,-4,-1,1
17:54:22:619455,-14,5,3,-3,-4,3,-1,-1
17:54:22:625487,10,28,0,7,-3,1,0,-3
17:54:22:633667,10,28,0,7,-3,1,0,-3
17:54:22:634481,5,-19,-2,0,-1,-6,-8,-9
17:54:22:648037,-7,2,5,4,1,-5,-4,1
17:54:22:656181,-7,2,5,4,1,-5,-4,1
17:54:22:656938,4,17,-2,0,1,5,12,1
17:54:22:663011,-3,-13,-2,-5,-7,-3,-1,2
17:54:22:678715,-3,-13,-2,-5,-7,-3,-1,2
17:54:22:679499,0,-27,2,-7,5,-5,-1,-2
17:54:22:685522,7,-7,1,-10,0,-4,-4,3
17:54:22:693732,7,-7,1,-10,0,-4,-4,3
17:54:22:694522,11,-9,-10,11,1,1,2,7
17:54:22:708021,-2,7,3,-1,3,-2,1,0
17:54:22:716237,-2,7,3,-1,3,-2,1,0
17:54:22:717016,-18,-13,-2,-3,-1,0,-3,-7
17:54:22:730476,-12,-21,-2,-4,-4,-3,-4,-1
17:54:22:738731,-12,-21,-2,-4,-4,-3,-4,-1
17:54:22:739519,-16,-9,-7,3,-3,0,-3,-7
17:54:22:745532,-1,-6,-4,1,4,0,-2,0
17:54:22:753050,-1,-6,-4,1,4,0,-2,0
17:54:22:760478,13,10,5,-7,-3,1,4,21
17:54:22:767991,8,1,0,11,4,2,-1,-3
17:54:22:776162,8,1,0,11,4,2,-1,-3
17:54:22:776960,5,2,2,6,4,-1,-2,-9
17:54:22:790515,-13,3,-2,-14,3,-5,2,-1
17:54:22:798689,-13,3,-2,-14,3,-5,2,-1
17:54:22:799480,-2,-25,-4,-8,-10,1,-2,1
17:54:22:805562,10,12,6,-4,1,0,-3,-1
17:54:22:813030,10,12,6,-4,1,0,-3,-1
17:54:22:820471,4,8,-6,-3,-11,-2,0,-2
17:54:22:828037,-25,-24,-2,15,0,3,-1,1
17:54:22:836221,-25,-24,-2,15,0,3,-1,1
17:54:22:836972,6,9,8,8,10,2,-3,-4
17:54:22:850510,3,-22,-2,-3,-19,-10,-2,-13
17:54:22:858684,3,-22,-2,-3,-19,-10,-2,-13
17:54:22:859492,-4,27,-5,-6,0,6,-2,-1
17:54:22:865511,0,24,3,-5,-2,-6,-1,-1
17:54:22:873040,0,24,3,-5,-2,-6,-1,-1
17:54:22:880460,5,10,5,4,3,-1,6,-4
17:54:22:887969,-4,-1,-1,-8,-2,-2,-2,0
17:54:22:896188,-4,-1,-1,-8,-2,-2,-2,0
17:54:22:897008,8,42,5,-6,1,-5,4,7
17:54:22:910482,8,9,-5,6,8,-1,4,1
17:54:22:918703,8,9,-5,6,8,-1,4,1
17:54:22:919500,-2,-40,-1,12,2,-12,-8,-2
17:54:22:925468,8,7,4,1,-1,10,1,-2
17:54:22:933039,8,7,4,1,-1,10,1,-2
17:54:22:940479,-9,-12,-9,-8,-6,2,5,-3
17:54:22:947966,-2,0,4,23,-3,-7,-1,1
17:54:22:956263,-2,0,4,23,-3,-7,-1,1
17:54:22:957008,-9,10,2,-3,6,-1,-6,-10
17:54:22:970474,1,-16,-6,-17,8,3,-1,1
17:54:22:978692,1,-16,-6,-17,8,3,-1,1
17:54:22:979512,-3,2,-3,-2,-10,-12,-4,-16
17:54:22:985464,-10,-2,-2,3,-5,6,-4,-1
17:54:22:993061,-10,-2,-2,3,-5,6,-4,-1
17:54:23:509,-22,-34,-2,-10,-2,1,1,6
17:54:23:8010,0,-4,-6,-9,-5,-7,2,-3
17:54:23:16169,0,-4,-6,-9,-5,-7,2,-3
17:54:23:16971,-1,-4,-5,-4,-6,-1,-2,3
17:54:23:30477,-3,-12,-2,-4,-10,-7,-5,-3
17:54:23:38766,-3,-12,-2,-4,-10,-7,-5,-3
17:54:23:39554,2,-13,-4,-4,9,11,3,-4
17:54:23:45528,6,42,0,-6,1,-1,0,6
17:54:23:53006,6,42,0,-6,1,-1,0,6
17:54:23:60532,-1,11,-4,-9,-12,-7,-4,0
17:54:23:68034,-2,-6,-2,-4,-7,-8,-2,0
17:54:23:76185,-2,-6,-2,-4,-7,-8,-2,0
17:54:23:76983,6,23,6,1,0,1,-4,3
17:54:23:90551,4,-9,-6,-8,-3,-4,-3,7
17:54:23:98673,4,-9,-6,-8,-3,-4,-3,7
17:54:23:99453,1,-27,-1,11,1,4,0,0
17:54:23:105545,-12,-2,5,3,0,-5,-1,-1
17:54:23:113021,-12,-2,5,3,0,-5,-1,-1
17:54:23:120451,1,12,-6,-8,-9,0,-1,4
17:54:23:127954,-5,7,-4,-5,-2,2,-2,-3
17:54:23:136905,-5,7,-4,-5,-2,2,-2,-3
17:54:23:137746,-6,6,-3,-3,-6,2,0,-4
17:54:23:150505,-4,-5,-2,9,0,1,0,-4
17:54:23:158657,-4,-5,-2,9,0,1,0,-4
17:54:23:159523,5,5,-1,-1,-4,1,5,4
17:54:23:165448,-11,-52,-3,-9,-3,-2,-2,-4
17:54:23:173032,-11,-52,-3,-9,-3,-2,-2,-4
17:54:23:180472,-5,-6,-4,-7,2,-5,-2,4
17:54:23:188129,15,19,4,8,8,-1,-5,-5
17:54:23:196222,15,19,4,8,8,-1,-5,-5
17:54:23:197007,18,47,2,9,4,2,-6,-7
17:54:23:210467,-37,-21,-12,5,-8,-3,-4,-6
17:54:23:218721,-37,-21,-12,5,-8,-3,-4,-6
17:54:23:219500,-8,4,4,-1,1,3,-4,0
17:54:23:225449,16,25,0,-10,-1,1,-1,3
17:54:23:233043,16,25,0,-10,-1,1,-1,3
17:54:23:240462,-3,-41,-7,-7,-10,0,1,0
17:54:23:247989,-2,-1,-3,-4,-5,-4,3,-3
17:54:23:256240,-2,-1,-3,-4,-5,-4,3,-3
17:54:23:256997,-1,4,-1,8,14,7,6,-7
17:54:23:270494,10,-11,1,7,1,5,4,0
17:54:23:278695,10,-11,1,7,1,5,4,0
17:54:23:279510,15,-3,5,1,2,-4,-6,0
17:54:23:285449,10,39,-1,1,3,4,6,-3
17:54:23:293045,10,39,-1,1,3,4,6,-3
17:54:23:300495,7,16,-3,3,-2,-6,-4,1
17:54:23:308009,-8,1,0,11,6,4,6,5
17:54:23:316179,-8,1,0,11,6,4,6,5
17:54:23:316946,-3,13,3,-2,2,4,3,1
17:54:23:330489,7,12,-4,3,-7,3,-6,-2
17:54:23:338739,7,12,-4,3,-7,3,-6,-2
17:54:23:339567,-12,-19,-3,4,-6,-10,4,-6
17:54:23:345508,4,-1,-3,-8,-3,-3,-4,0
17:54:23:353013,4,-1,-3,-8,-3,-3,-4,0
17:54:23:360502,15,-11,1,-2,-7,0,-4,4
17:54:23:368013,-6,-16,-1,-3,7,-6,-1,-4
17:54:23:376183,-6,-16,-1,-3,7,-6,-1,-4
17:54:23:376980,2,4,2,15,7,-3,1,1
17:54:23:390503,-10,-13,-1,-6,-2,-4,2,5
17:54:23:398676,-10,-13,-1,-6,-2,-4,2,5
17:54:23:399486,-8,-11,-6,-6,-6,-6,-3,-1
17:54:23:405511,-8,-8,1,0,-1,1,3,-3
17:54:23:413026,-8,-8,1,0,-1,1,3,-3
17:54:23:420510,-13,-34,-6,-1,-4,-1,3,2
17:54:23:427930,0,-7,3,0,-2,-5,-3,-5
17:54:23:436226,0,-7,3,0,-2,-5,-3,-5
17:54:23:437002,-7,1,-1,0,-3,0,0,-7
17:54:23:450493,-17,-32,-4,-4,-1,3,-9,-4
17:54:23:458667,-17,-32,-4,-4,-1,3,-9,-4
17:54:23:459490,0,-10,-8,-11,2,0,-6,0
17:54:23:465438,4,-1,1,-8,0,-1,-8,-8
17:54:23:473060,4,-1,1,-8,0,-1,-8,-8
17:54:23:480485,-5,-9,5,-6,-6,1,8,-2
17:54:23:488137,6,12,-3,0,0,-2,-6,3
17:54:23:496205,6,12,-3,0,0,-2,-6,3
17:54:23:497011,-11,3,1,0,1,1,-4,-2
17:54:23:510478,-3,-12,-2,-3,-6,-1,-2,-7
17:54:23:518727,-3,-12,-2,-3,-6,-1,-2,-7
17:54:23:519478,13,1,-7,-1,-2,-10,-7,-3
17:54:23:525461,-3,-13,0,-6,8,5,11,5
17:54:23:533048,-3,-13,0,-6,8,5,11,5
17:54:23:540482,-2,5,-4,-4,0,-2,-2,0
17:54:23:547963,10,21,10,11,0,3,10,2
17:54:23:556228,10,21,10,11,0,3,10,2
17:54:23:557027,-2,20,3,1,-5,-3,-7,-1
17:54:23:570492,-8,10,1,4,-2,-6,-7,-1
17:54:23:578705,-8,10,1,4,-2,-6,-7,-1
17:54:23:579571,-16,-37,-5,1,4,3,2,-1
17:54:23:585502,-3,-1,-1,-3,0,-2,1,-4
17:54:23:593062,-3,-1,-1,-3,0,-2,1,-4
17:54:23:600504,2,9,4,-3,-1,0,-5,1
17:54:23:616858,0,-5,-3,6,-4,1,2,9
17:54:23:617667,0,-5,-3,6,-4,1,2,9
17:54:23:618481,11,9,1,-4,1,2,2,6
17:54:23:630490,1,7,-4,-7,-3,-4,2,-2
17:54:23:638703,1,7,-4,-7,-3,-4,2,-2
17:54:23:639562,7,4,5,1,-7,-1,-5,2
17:54:23:645474,4,2,-4,-5,-4,-1,-7,-6
17:54:23:653047,4,2,-4,-5,-4,-1,-7,-6
17:54:23:660480,-4,0,3,-5,2,-3,3,-3
17:54:23:667982,-1,-3,-3,-4,-1,-4,-4,0
17:54:23:675537,-1,-3,-3,-4,-1,-4,-4,0
17:54:23:682996,-6,-3,-1,2,4,3,3,-2
17:54:23:690496,-3,-4,-3,-6,0,-2,-5,5
17:54:23:698666,-3,-4,-3,-6,0,-2,-5,5
17:54:23:699450,1,1,-2,1,-2,-2,-8,-2
17:54:23:713660,5,-7,2,-3,1,-1,1,-2
17:54:23:714459,5,-7,2,-3,1,-1,1,-2
17:54:23:720535,-4,2,-6,-5,-2,4,-1,-4
17:54:23:728013,7,1,-2,3,5,4,4,-1
17:54:23:735499,7,1,-2,3,5,4,4,-1
17:54:23:743031,-8,1,-3,-1,-6,-5,-6,1
17:54:23:750492,4,-2,2,-1,-3,-4,-8,2
17:54:23:758675,4,-2,2,-1,-3,-4,-8,2
17:54:23:759524,-5,0,-7,0,1,0,-5,-5
17:54:23:773648,-6,-6,6,-1,-2,6,-4,-7
17:54:23:774464,-6,-6,6,-1,-2,6,-4,-7
17:54:23:780443,8,0,-2,-3,-5,-6,-1,5
17:54:23:787995,-9,2,-2,-2,-2,3,6,-8
17:54:23:795520,-9,2,-2,-2,-2,3,6,-8
17:54:23:802938,-1,9,-4,-4,3,-5,-3,-1
17:54:23:810467,-3,-1,-2,-3,-4,-3,-1,1
17:54:23:818702,-3,-1,-2,-3,-4,-3,-1,1
17:54:23:819474,-10,-4,6,-1,0,2,-7,-7
17:54:23:833681,3,8,-5,3,-5,-3,-1,-2
17:54:23:834502,3,8,-5,3,-5,-3,-1,-2
17:54:23:840470,0,-7,0,2,1,-4,1,3
17:54:23:847944,-5,-12,-3,-1,1,0,6,3
17:54:23:855528,-5,-12,-3,-1,1,0,6,3
17:54:23:862977,4,-6,1,-4,-2,1,8,-1
17:54:23:870479,7,17,1,1,-1,-6,-4,2
17:54:23:878694,7,17,1,1,-1,-6,-4,2
17:54:23:879595,2,6,-3,7,0,3,9,-8
17:54:23:893660,0,-2,2,1,-3,-2,-5,-1
17:54:23:894521,0,-2,2,1,-3,-2,-5,-1
17:54:23:900471,-4,-17,-1,-2,1,-1,6,3
17:54:23:908013,9,10,-7,-4,-4,0,7,1
17:54:23:915551,9,10,-7,-4,-4,0,7,1
17:54:23:922967,-4,6,1,-2,-6,-6,-9,-2
17:54:23:930489,11,-7,0,3,0,-3,0,2
17:54:23:938640,11,-7,0,3,0,-3,0,2
17:54:23:939476,10,-2,1,-3,-3,2,4,1
17:54:23:953728,-10,-8,-3,-2,0,-2,-4,-3
17:54:23:954517,-10,-8,-3,-2,0,-2,-4,-3
17:54:23:960470,-11,-3,-7,0,-3,-2,1,-6
17:54:23:967971,-3,4,-5,-3,-1,-1,-6,-5
17:54:23:975517,-3,4,-5,-3,-1,-1,-6,-5
17:54:23:983006,0,3,0,-1,1,1,-14,1
17:54:23:990511,-16,-21,-1,0,0,-3,-19,1
17:54:23:998661,-16,-21,-1,0,0,-3,-19,1
17:54:23:999448,6,-16,-4,1,-3,3,17,2
17:54:24:13648,-4,-3,-3,3,0,0,-5,-8
17:54:24:14465,-4,-3,-3,3,0,0,-5,-8
17:54:24:20582,16,25,-2,-3,2,-3,-2,-3
17:54:24:27990,-1,-2,1,-3,3,5,10,2
17:54:24:35497,-1,-2,1,-3,3,5,10,2
17:54:24:43005,-4,-4,1,2,-4,-4,-4,-1
17:54:24:50450,-2,5,1,-1,7,1,1,-1
17:54:24:58676,-2,5,1,-1,7,1,1,-1
17:54:24:59506,-10,-23,-1,4,1,-2,0,6
17:54:24:73668,9,-1,0,-3,-2,-2,8,-2
17:54:24:74474,9,-1,0,-3,-2,-2,8,-2
17:54:24:80439,-10,-8,-6,0,0,3,-3,-7
17:54:24:87958,-17,-6,4,1,-1,-1,-1,1
17:54:24:95522,-17,-6,4,1,-1,-1,-1,1
17:54:24:102957,-14,-3,3,-5,2,-4,-10,-5
17:54:24:110432,-3,11,0,4,1,4,5,-3
17:54:24:118699,-3,11,0,4,1,4,5,-3
17:54:24:119502,8,11,-3,1,-8,-3,-22,0
17:54:24:133676,10,13,-2,-4,3,-5,8,-1
17:54:24:134501,10,13,-2,-4,3,-5,8,-1
17:54:24:140458,1,1,-1,1,1,1,3,0
17:54:24:147943,4,9,-10,-5,-9,-3,-8,-2
17:54:24:155610,4,9,-10,-5,-9,-3,-8,-2
17:54:24:162967,-11,3,-1,-2,-1,-1,2,1
17:54:24:170494,-6,-15,-2,-1,-5,-2,-4,3
17:54:24:178715,-6,-15,-2,-1,-5,-2,-4,3
17:54:24:179522,7,0,-2,-1,-2,1,7,-3
17:54:24:193697,-4,-17,0,1,1,3,22,0
17:54:24:194494,-4,-17,0,1,1,3,22,0
17:54:24:200469,-6,-7,-1,1,-2,-5,16,-3
17:54:24:207995,-10,-20,-2,-4,-6,-2,-5,0
17:54:24:215559,-10,-20,-2,-4,-6,-2,-5,0
17:54:24:222979,2,-4,-4,-2,5,-4,-7,3
17:54:24:230482,-1,-5,-2,1,-4,-4,-16,-2
17:54:24:238646,-1,-5,-2,1,-4,-4,-16,-2
17:54:24:239468,-6,-10,3,-2,0,6,-3,2
17:54:24:253707,9,3,-4,4,0,-1,-7,-1
17:54:24:254519,9,3,-4,4,0,-1,-7,-1
17:54:24:260481,-4,13,-1,-6,-4,-2,6,-4
17:54:24:267994,-7,-7,-1,-3,-3,-4,-3,-3
17:54:24:275516,-7,-7,-1,-3,-3,-4,-3,-3
17:54:24:283000,-1,0,-2,5,1,5,5,-2
17:54:24:290509,3,12,5,-2,-2,-3,-1,2
17:54:24:298686,3,12,5,-2,-2,-3,-1,2
17:54:24:299465,8,-2,0,-5,-1,-2,5,5
17:54:24:313637,2,0,1,0,-3,1,-8,0
17:54:24:314482,2,0,1,0,-3,1,-8,0
17:54:24:320507,-13,-7,-1,-2,-1,-3,-7,-5
17:54:24:328017,-5,9,-3,-5,1,-3,-4,-6
17:54:24:335522,-5,9,-3,-5,1,-3,-4,-6
17:54:24:342989,3,0,-1,0,-2,-1,0,0
17:54:24:350433,1,0,-3,0,1,0,-2,2
17:54:24:358668,1,0,-3,0,1,0,-2,2
17:54:24:359498,7,7,4,6,0,0,8,3
17:54:24:373653,2,0,-1,-2,1,2,14,-2
17:54:24:374461,2,0,-1,-2,1,2,14,-2
17:54:24:380447,-4,-5,2,1,-6,5,-5,-5
17:54:24:387965,3,10,0,2,0,-5,-9,-2
17:54:24:395533,3,10,0,2,0,-5,-9,-2
17:54:24:402940,2,-5,-5,-2,-2,-5,-8,1
17:54:24:410475,-3,-16,-5,-7,-2,-2,5,-1
17:54:24:426229,-3,-16,-5,-7,-2,-2,5,-1
17:54:24:426987,4,10,0,-2,-8,-1,-3,-3
17:54:24:433735,-2,-6,3,1,0,-1,-3,-1
17:54:24:434503,-2,-6,3,1,0,-1,-3,-1
17:54:24:440472,0,4,-3,1,-2,-1,1,-2
17:54:24:447937,-5,-10,-2,-3,-2,-3,2,3
17:54:24:455536,-5,-10,-2,-3,-2,-3,2,3
17:54:24:462983,-1,-5,-4,-2,4,-1,-1,-1
17:54:24:470503,-2,-4,0,3,3,4,9,-7
17:54:24:478711,-2,-4,0,3,3,4,9,-7
17:54:24:479525,-1,-3,1,0,0,2,-6,2
17:54:24:493702,-3,-3,1,-2,0,-3,-8,-2
17:54:24:494496,-3,-3,1,-2,0,-3,-8,-2
17:54:24:500459,2,0,-1,-1,-4,-4,-7,1
17:54:24:507999,-5,-5,-2,-4,1,8,5,3
17:54:24:515562,-5,-5,-2,-4,1,8,5,3
17:54:24:522998,3,-2,-4,2,-1,1,2,1
17:54:24:539367,3,8,2,1,-2,-4,8,4
17:54:24:540193,3,8,2,1,-2,-4,8,4
17:54:24:540983,-1,7,2,-2,-1,0,11,-4
17:54:24:553676,2,18,0,-5,-4,-2,-15,-6
17:54:24:554521,2,18,0,-5,-4,-2,-15,-6
17:54:24:568628,2,7,2,1,4,-5,-13,-1
17:54:24:569431,3,-1,-2,3,-1,0,-3,0
17:54:24:575543,3,-1,-2,3,-1,0,-3,0
17:54:24:582959,-16,-13,-3,-6,-3,-4,1,0
17:54:24:590526,-3,7,0,0,4,-6,-3,-2
17:54:24:598044,-3,7,0,0,4,-6,-3,-2
17:54:24:605467,3,3,1,-2,-1,-6,1,-1
17:54:24:613676,1,-2,2,-2,-3,4,7,-3
17:54:24:614531,1,-2,2,-2,-3,4,7,-3
17:54:24:620479,0,-5,-4,-3,-2,-2,-6,-1
17:54:24:636180,-3,11,6,4,-2,-2,-6,-5
17:54:24:637012,-3,11,6,4,-2,-2,-6,-5
17:54:24:651113,1,0,-3,-1,-1,-3,-10,4
17:54:24:651932,10,-2,1,-2,5,-2,-6,2
17:54:24:658029,10,-2,1,-2,5,-2,-6,2
17:54:24:665453,1,6,-4,-4,-4,-3,-3,-1
17:54:24:674115,2,-1,-7,0,-2,0,4,4
17:54:24:681216,2,-1,-7,0,-2,0,4,4
17:54:24:681976,-7,-8,5,1,3,1,10,-2
17:54:24:696205,-2,-12,-2,-4,-4,-1,5,5
17:54:24:697001,-2,-12,-2,-4,-4,-1,5,5
17:54:24:702971,-5,-13,-6,3,0,1,5,-5
17:54:24:710471,-15,-30,-2,1,-4,-9,0,1
17:54:24:718029,-15,-30,-2,1,-4,-9,0,1
17:54:24:734347,-6,10,2,1,0,1,4,1
17:54:24:735171,6,5,0,-2,-5,1,-3,-1
17:54:24:735988,6,5,0,-2,-5,1,-3,-1
17:54:24:740493,-1,3,3,-2,0,-6,-9,-6
17:54:24:756189,-8,3,-5,-8,-1,0,-1,-9
17:54:24:757026,-8,3,-5,-8,-1,0,-1,-9
17:54:24:762962,9,-1,-3,6,6,9,-3,2
17:54:24:770466,-5,0,3,1,5,-1,0,-5
17:54:24:778032,-5,0,3,1,5,-1,0,-5
17:54:24:785486,-1,5,1,-5,-3,-2,0,-1
17:54:24:793684,3,0,-4,1,-4,-3,-2,-2
17:54:24:794544,3,0,-4,1,-4,-3,-2,-2
17:54:24:800474,-4,5,0,1,-2,-1,8,-3
17:54:24:816207,5,11,-7,-6,-7,-4,-7,4
17:54:24:817022,5,11,-7,-6,-7,-4,-7,4
17:54:24:822992,-3,0,2,-4,0,-2,-4,-5
17:54:24:830491,4,-13,0,0,2,0,-2,-2
17:54:24:838043,4,-13,0,0,2,0,-2,-2
17:54:24:845500,5,-3,-2,-3,-7,-3,-6,1
17:54:24:853675,-11,-9,-3,4,1,0,10,-4
17:54:24:854474,-11,-9,-3,4,1,0,10,-4
17:54:24:860583,-1,6,5,-3,1,-1,-2,-1
17:54:24:876145,1,5,0,0,0,2,-3,-1
17:54:24:876973,1,5,0,0,0,2,-3,-1
17:54:24:882987,-4,-6,-5,-2,-1,0,12,1
17:54:24:890504,-1,-2,-4,-4,0,5,5,0
17:54:24:898061,-1,-2,-4,-4,0,5,5,0
17:54:24:905500,7,-2,2,-3,5,1,-9,-6
17:54:24:913678,-3,-9,-1,3,-3,3,-9,-2
17:54:24:914500,-3,-9,-1,3,-3,3,-9,-2
17:54:24:920459,3,-8,-3,-2,-4,1,-15,1
17:54:24:936149,-9,6,2,0,1,4,-4,3
17:54:24:936961,-9,6,2,0,1,4,-4,3
17:54:24:943019,-6,-5,-6,4,0,-5,1,-2
17:54:24:950516,0,2,0,2,-2,-4,-5,-1
17:54:24:958039,0,2,0,2,-2,-4,-5,-1
17:54:24:965483,1,4,-5,0,-4,1,5,2
17:54:24:973685,2,-8,2,-3,-1,-3,-4,1
17:54:24:974481,2,-8,2,-3,-1,-3,-4,1
17:54:24:980466,1,7,-2,0,-3,-1,2,-7
17:54:25:4304,-2,15,-5,-1,3,2,-2,-4
17:54:25:5112,-2,15,-5,-1,3,2,-2,-4
17:54:25:5922,-5,-2,5,1,4,2,5,5
17:54:25:10475,2,0,-3,-1,-3,1,4,-3
17:54:25:18023,2,0,-3,-1,-3,1,4,-3
17:54:25:25519,-3,-8,-2,2,-2,-5,-5,-3
17:54:25:33657,3,11,-1,2,3,5,11,1
17:54:25:34486,3,11,-1,2,3,5,11,1
17:54:25:40472,-7,-12,-6,-3,-3,1,-4,-1
17:54:25:56166,4,-2,0,-3,-2,-3,-2,2
17:54:25:56978,4,-2,0,-3,-2,-3,-2,2
17:54:25:62954,4,2,-1,-1,-5,1,4,6
17:54:25:70516,-2,1,1,1,-3,-7,14,-6
17:54:25:78036,-2,1,1,1,-3,-7,14,-6
17:54:25:85473,-9,-18,-1,-1,-3,-4,-4,-1
17:54:25:93698,3,-7,-4,1,-7,-6,-8,5
17:54:25:94585,3,-7,-4,1,-7,-6,-8,5
17:54:25:100435,-2,3,3,-2,-2,-2,0,-1
17:54:25:116145,-11,-9,-5,-6,-2,-5,-6,-1
17:54:25:116972,-11,-9,-5,-6,-2,-5,-6,-1
17:54:25:122963,10,5,1,-1,7,0,1,1
17:54:25:130483,11,-9,-7,0,-4,-1,-6,4
17:54:25:138048,11,-9,-7,0,-4,-1,-6,4
17:54:25:145470,-2,-10,-2,3,-2,3,-3,-2
17:54:25:153674,2,5,4,-4,-2,1,-2,-4
17:54:25:154490,2,5,4,-4,-2,1,-2,-4
17:54:25:160469,3,13,-2,1,-1,-2,1,0
17:54:25:176290,-3,-6,-1,-3,-4,-1,-5,-3
17:54:25:177010,-3,-6,-1,-3,-4,-1,-5,-3
17:54:25:182982,-3,-1,-10,-3,1,5,-8,-8
17:54:25:190531,-3,10,5,2,-2,-1,1,-2
17:54:25:198034,-3,10,5,2,-2,-1,1,-2
17:54:25:205495,4,2,2,-1,-1,0,0,1
17:54:25:213641,1,-2,-1,3,-1,-2,3,-4
17:54:25:214437,1,-2,-1,3,-1,-2,3,-4
17:54:25:220495,3,-1,0,-2,3,1,4,-3
17:54:25:236194,-10,-7,0,2,7,0,-5,-5
17:54:25:237012,-10,-7,0,2,7,0,-5,-5
17:54:25:243005,-1,1,0,2,0,-2,-5,-2
17:54:25:250517,-2,7,-2,-2,-2,-1,-2,3
17:54:25:257973,-2,7,-2,-2,-2,-1,-2,3
17:54:25:265495,-14,-11,-8,-7,-7,-8,-1,-2
17:54:25:273667,-3,-9,0,-1,-4,1,1,2
17:54:25:274478,-3,-9,0,-1,-4,1,1,2
17:54:25:280494,3,1,2,-3,-3,-5,-7,-4
17:54:25:296143,-7,-20,0,-5,0,-2,-6,0
17:54:25:296952,-7,-20,0,-5,0,-2,-6,0
17:54:25:302982,-4,4,-2,-5,-3,0,5,2
17:54:25:318723,-4,4,-2,-5,-3,0,5,2
17:54:25:319479,6,1,2,3,2,3,0,-7
17:54:25:325499,-4,-2,5,0,3,-8,-8,-1
17:54:25:333646,-4,-2,5,0,3,-8,-8,-1
17:54:25:334462,10,2,0,-5,-2,-6,-2,4
17:54:25:340501,4,16,1,2,-5,-2,2,0
17:54:25:356190,4,16,1,2,-5,-2,2,0
17:54:25:356959,4,2,-1,-1,0,0,2,-3
17:54:25:362988,-3,0,-1,-3,-5,-5,1,-1
17:54:25:379176,-3,0,-1,-3,-5,-5,1,-1
17:54:25:380062,-6,11,-3,-2,-3,-3,2,-2
17:54:25:385487,3,10,1,2,3,3,10,1
17:54:25:393665,3,10,1,2,3,3,10,1
17:54:25:394433,4,8,-4,-3,3,4,-1,-2
17:54:25:400502,8,9,1,1,3,-6,-7,1
17:54:25:416212,8,9,1,1,3,-6,-7,1
17:54:25:416983,-4,-7,0,0,-1,0,-4,-3
17:54:25:422990,-1,-21,-10,2,-5,7,12,-1
17:54:25:438713,-1,-21,-10,2,-5,7,12,-1
17:54:25:439500,-1,-7,0,4,1,-3,-4,1
17:54:25:445440,-8,-10,-3,-7,5,-4,-7,1
17:54:25:453711,-8,-10,-3,-7,5,-4,-7,1
17:54:25:454500,-1,3,-2,-2,-6,0,9,-2
17:54:25:460467,6,-4,-3,3,-5,4,1,-3
17:54:25:476191,6,-4,-3,3,-5,4,1,-3
17:54:25:477000,-5,-1,-5,-2,-1,-7,-12,-1
17:54:25:482942,1,9,1,2,3,4,0,-1
17:54:25:498683,1,9,1,2,3,4,0,-1
17:54:25:499465,-2,-2,-1,2,-2,0,-3,4
17:54:25:505479,-4,-9,-2,0,-3,-1,2,2
17:54:25:513668,-4,-9,-2,0,-3,-1,2,2
17:54:25:514488,-3,-1,-6,-3,3,-2,2,-6
17:54:25:520460,-6,-4,4,-1,-3,0,-3,-3
17:54:25:536199,-6,-4,4,-1,-3,0,-3,-3
17:54:25:536962,-3,-12,1,1,0,-4,-11,-4
17:54:25:542957,-6,-3,-6,-2,-2,5,-6,3
17:54:25:558689,-6,-3,-6,-2,-2,5,-6,3
17:54:25:559479,4,-12,-1,3,1,1,-7,2
17:54:25:574322,-6,-10,-1,-1,-1,-5,-2,-4
17:54:25:575138,-6,-10,-1,-1,-1,-5,-2,-4
17:54:25:575955,-2,2,5,-1,-3,1,1,0
17:54:25:588008,-1,-15,-1,0,-1,-1,5,-6
17:54:25:596161,-1,-15,-1,0,-1,-1,5,-6
17:54:25:596973,-3,3,-6,-4,2,1,5,-1
17:54:25:603008,1,1,-2,-1,-1,-5,-10,-2
17:54:25:618720,1,1,-2,-1,-1,-5,-10,-2
17:54:25:619510,0,-1,-1,-1,-4,-1,4,-2
17:54:25:625482,0,-6,0,2,1,-4,8,0
17:54:25:633674,0,-6,0,2,1,-4,8,0
17:54:25:634440,1,-23,-1,-7,-3,-2,4,0
17:54:25:648016,2,22,-2,2,0,-5,-7,-4
17:54:25:656166,2,22,-2,2,0,-5,-7,-4
17:54:25:656934,6,14,-1,2,-2,-1,-3,-3
17:54:25:662976,-5,-8,0,-5,-2,-4,-3,0
17:54:25:686857,-5,-8,0,-5,-2,-4,-3,0
17:54:25:687651,-2,9,0,-2,-4,2,0,2
17:54:25:688526,8,19,1,-2,2,3,6,-1
17:54:25:693823,8,19,1,-2,2,3,6,-1
17:54:25:694501,-1,0,0,-2,0,-4,-3,1
17:54:25:707978,-2,-6,5,0,-1,4,3,-1
17:54:25:716185,-2,-6,5,0,-1,4,3,-1
17:54:25:716983,10,26,-1,4,3,5,10,4
17:54:25:722970,3,0,-1,3,-2,4,-8,-2
17:54:25:738722,3,0,-1,3,-2,4,-8,-2
17:54:25:739480,-19,-10,3,2,-2,-2,-4,-3
17:54:25:745457,-5,-10,-6,-1,-1,-2,1,4
17:54:25:753734,-5,-10,-6,-1,-1,-2,1,4
17:54:25:754480,-4,-4,1,-3,4,3,1,-5
17:54:25:767943,-5,-12,-4,-2,-2,-3,-5,-1
17:54:25:776194,-5,-12,-4,-2,-2,-3,-5,-1
17:54:25:776980,0,-9,0,0,1,-4,-10,-6
17:54:25:782954,2,9,2,-2,0,-4,-6,-2
17:54:25:798677,2,9,2,-2,0,-4,-6,-2
17:54:25:799476,-7,4,-8,-2,-7,4,-4,-1
17:54:25:805468,-6,-11,-6,4,-2,0,5,1
17:54:25:813719,-6,-11,-6,4,-2,0,5,1
17:54:25:814478,-3,-6,4,5,-1,-3,0,-4
17:54:25:828019,-4,22,-1,-6,-3,0,-4,-4
17:54:25:836181,-4,22,-1,-6,-3,0,-4,-4
17:54:25:836985,2,8,-5,-2,2,0,0,5
17:54:25:842932,4,12,1,1,0,1,-1,-1
17:54:25:858674,4,12,1,1,0,1,-1,-1
17:54:25:859449,-11,-16,-1,-5,-4,0,1,-1
17:54:25:865480,0,-7,3,2,3,0,0,-3
17:54:25:874145,0,-7,3,2,3,0,0,-3
17:54:25:880464,0,7,-2,-1,-1,-1,-8,-4
17:54:25:887945,-4,-10,-2,2,-1,-9,-4,1
17:54:25:896222,-4,-10,-2,2,-1,-9,-4,1
17:54:25:896965,-5,-2,-4,-1,-5,-2,6,0
17:54:25:902943,5,-12,-3,-3,-2,2,-6,4
17:54:25:918683,5,-12,-3,-3,-2,2,-6,4
17:54:25:919485,7,-1,0,4,2,2,1,1
17:54:25:925467,-6,-5,1,1,-2,-5,0,-4
17:54:25:933670,-6,-5,1,1,-2,-5,0,-4
17:54:25:934501,-2,-5,-8,-1,0,4,4,0
17:54:25:947944,0,1,-2,-5,-4,-3,-3,-6
17:54:25:956279,0,1,-2,-5,-4,-3,-3,-6
17:54:25:957031,1,-4,1,2,-2,-4,-2,2
17:54:25:962959,-10,-8,-4,-3,-3,-2,1,-4
17:54:25:978694,-10,-8,-4,-3,-3,-2,1,-4
17:54:25:979500,7,13,-1,0,-6,-3,-1,-6
17:54:25:985470,1,-9,-6,-7,-3,2,-5,6
17:54:25:993712,1,-9,-6,-7,-3,2,-5,6
17:54:25:994510,2,-3,2,-2,0,-2,-4,0
17:54:26:8009,0,1,-6,-2,-1,0,5,-2
17:54:26:16165,0,1,-6,-2,-1,0,5,-2
17:54:26:16979,-5,0,4,1,-2,-1,-14,3
17:54:26:22959,-1,-6,1,5,1,2,-2,5
17:54:26:38692,-1,-6,1,5,1,2,-2,5
17:54:26:39488,6,-14,-3,-2,0,1,4,-3
17:54:26:45487,1,2,0,-3,-1,-5,0,-3
17:54:26:53779,1,2,0,-3,-1,-5,0,-3
17:54:26:54491,0,0,4,-2,5,-3,0,-4
17:54:26:68000,-7,-7,-5,-5,2,-2,-1,2
17:54:26:76171,-7,-7,-5,-5,2,-2,-1,2
17:54:26:76976,-6,4,-4,-2,2,-5,0,0
17:54:26:82970,-3,4,5,3,-2,-1,4,-5
17:54:26:98677,-3,4,5,3,-2,-1,4,-5
17:54:26:99455,12,2,1,-4,5,3,2,-6
17:54:26:105506,12,8,1,3,3,0,-1,-2
17:54:26:113688,12,8,1,3,3,0,-1,-2
17:54:26:114469,-3,-6,-3,0,-2,-4,2,-2
17:54:26:127997,-6,-2,2,-3,3,3,1,-4
17:54:26:136193,-6,-2,2,-3,3,3,1,-4
17:54:26:136951,-8,-8,-2,3,-2,-4,-2,1
17:54:26:142988,0,0,-4,4,-4,2,-3,1
17:54:26:158713,0,0,-4,4,-4,2,-3,1
17:54:26:159508,-4,7,-3,-3,-9,-1,-4,-1
17:54:26:165471,-7,15,-3,-5,-5,0,1,-2
17:54:26:173768,-7,15,-3,-5,-5,0,1,-2
17:54:26:174471,-2,17,0,-1,-1,0,-2,3
17:54:26:187970,-1,-4,-3,-3,1,-1,2,-2
17:54:26:196218,-1,-4,-3,-3,1,-1,2,-2
17:54:26:197011,1,3,0,-1,4,2,-4,-2
17:54:26:203015,2,-5,1,3,-2,-2,5,-4
17:54:26:210641,2,-5,1,3,-2,-2,5,-4
17:54:26:218028,4,10,1,-4,-1,-7,1,0
17:54:26:225498,-8,-6,-5,-5,-2,-1,-4,-3
17:54:26:233670,-8,-6,-5,-5,-2,-1,-4,-3
17:54:26:234484,0,-9,-1,-2,2,-2,1,-2
17:54:26:248009,1,-10,3,1,0,-2,-1,6
17:54:26:256157,1,-10,3,1,0,-2,-1,6
17:54:26:256997,-6,0,1,2,-2,1,-2,-1
17:54:26:262988,9,26,-6,1,-2,3,-4,3
17:54:26:270552,9,26,-6,1,-2,3,-4,3
17:54:26:277966,-4,-3,-3,-2,-3,-3,-8,0
17:54:26:285445,3,0,1,-2,2,-1,-2,-1
17:54:26:293717,3,0,1,-2,2,-1,-2,-1
17:54:26:294521,0,-5,-3,-3,-2,3,5,2
17:54:26:307999,0,-22,2,2,0,-4,-1,-2
17:54:26:316230,0,-22,2,2,0,-4,-1,-2
17:54:26:317017,-5,-6,-3,-1,-6,-8,1,-3
17:54:26:322937,-3,0,-4,0,2,1,0,-5
17:54:26:330503,-3,0,-4,0,2,1,0,-5
17:54:26:337969,-1,0,2,4,-2,2,-2,0
17:54:26:354342,-4,-24,-1,-8,-7,-6,-10,-1
17:54:26:355145,-4,-24,-1,-8,-7,-6,-10,-1
17:54:26:355956,3,-3,-7,-1,0,-1,14,2
17:54:26:368017,-7,-3,-3,-3,-2,-2,-2,1
17:54:26:376173,-7,-3,-3,-3,-2,-2,-2,1
17:54:26:376965,-1,0,6,-2,2,1,-6,2
17:54:26:391204,5,-6,-1,3,-2,-1,-2,1
17:54:26:391973,5,-6,-1,3,-2,-1,-2,1
17:54:26:397980,-8,-8,-5,2,2,5,-8,-7
17:54:26:405606,-1,10,2,-1,-2,-1,2,-5
17:54:26:413687,-1,10,2,-1,-2,-1,2,-5
17:54:26:414491,-15,4,-1,-5,1,-4,-2,-3
17:54:26:428017,0,6,-3,1,4,3,-1,-2
17:54:26:436173,0,6,-3,1,4,3,-1,-2
17:54:26:436957,1,-8,1,-4,-4,-2,3,-1
17:54:26:443001,-1,1,3,-6,-3,-2,-2,0
17:54:26:450523,-1,1,3,-6,-3,-2,-2,0
17:54:26:457955,8,1,-1,4,-2,-2,-4,-2
17:54:26:465538,-6,-5,1,-2,-4,-6,3,-2
17:54:26:473724,-6,-5,1,-2,-4,-6,3,-2
17:54:26:474504,4,-6,-6,-4,1,2,1,0
17:54:26:487995,1,9,-3,-5,0,-1,-1,-4
17:54:26:496184,1,9,-3,-5,0,-1,-1,-4
17:54:26:496991,1,1,-3,3,0,-1,0,-1
17:54:26:511195,2,2,0,-6,-5,-1,-3,1
17:54:26:511981,2,2,0,-6,-5,-1,-3,1
17:54:26:517925,-3,-1,-4,-6,-5,-6,-1,1
17:54:26:525504,-3,-7,0,-3,-2,-3,-1,0
17:54:26:549378,-3,-7,0,-3,-2,-3,-1,0
17:54:26:550191,-6,-2,-1,-1,-2,-3,-4,-3
17:54:26:550968,-6,-6,-5,-4,-1,4,3,1
17:54:26:556193,-6,-6,-5,-4,-1,4,3,1
17:54:26:557036,1,-2,1,6,1,3,5,0
17:54:26:570466,4,0,-2,-5,2,0,-2,-5
17:54:26:578698,4,0,-2,-5,2,0,-2,-5
17:54:26:579486,-6,-2,3,10,-4,-3,-4,-1
17:54:26:585477,-11,-6,-8,1,-6,2,-1,1
17:54:26:593055,-11,-6,-8,1,-6,2,-1,1
17:54:26:600491,9,-4,6,-8,0,-1,2,3
17:54:26:607981,-1,-2,-1,32,15,1,3,-2
17:54:26:616142,-1,-2,-1,32,15,1,3,-2
17:54:26:616943,0,19,3,4,-3,-3,-1,-2
17:54:26:630474,4,0,0,5,0,-2,5,-2
17:54:26:638702,4,0,0,5,0,-2,5,-2
17:54:26:639555,5,-12,-2,1,0,1,0,2
17:54:26:645446,8,-8,-6,0,0,1,-2,3
17:54:26:653001,8,-8,-6,0,0,1,-2,3
17:54:26:660531,-5,-10,-9,-12,-7,-2,-3,-10
17:54:26:667997,-6,-12,-2,-16,-8,-5,-4,-1
17:54:26:676176,-6,-12,-2,-16,-8,-5,-4,-1
17:54:26:676967,4,3,-5,-9,-3,-1,-2,2
17:54:26:690477,-6,-6,5,-6,-1,-1,3,0
17:54:26:698657,-6,-6,5,-6,-1,-1,3,0
17:54:26:699471,-17,-2,-10,0,-3,2,-1,-7
17:54:26:705549,3,0,-2,-12,-5,-4,-7,-5
17:54:26:713014,3,0,-2,-12,-5,-4,-7,-5
17:54:26:720481,1,8,2,-3,-5,0,0,8
17:54:26:727996,0,18,2,9,3,-2,3,3
17:54:26:736159,0,18,2,9,3,-2,3,3
17:54:26:736970,4,-3,3,14,4,-3,-2,-2
17:54:26:750512,7,3,7,7,-2,2,-4,3
17:54:26:758687,7,3,7,7,-2,2,-4,3
17:54:26:759464,0,-4,0,-13,3,0,-2,2
17:54:26:765461,-5,-2,-5,5,-2,-4,-2,-4
17:54:26:773023,-5,-2,-5,5,-2,-4,-2,-4
17:54:26:780464,2,0,3,-2,4,0,-2,-4
17:54:26:787963,-2,10,-2,-3,-1,1,1,-1
17:54:26:796201,-2,10,-2,-3,-1,1,1,-1
17:54:26:796984,-2,-3,3,3,0,1,1,5
17:54:26:810474,-3,-9,2,4,1,0,-5,-5
17:54:26:818659,-3,-9,2,4,1,0,-5,-5
17:54:26:819467,-5,-8,-6,-12,0,-2,1,-2
17:54:26:825474,-3,3,-3,-8,-1,-2,2,0
17:54:26:833033,-3,3,-3,-8,-1,-2,2,0
17:54:26:840454,3,11,-1,1,0,-2,-2,-2
17:54:26:847953,2,4,-7,-3,-11,-1,-1,-3
17:54:26:856184,2,4,-7,-3,-11,-1,-1,-3
17:54:26:857021,-1,0,4,3,5,5,0,-2
17:54:26:871175,-2,-2,3,3,3,-3,-4,0
17:54:26:872000,-2,-2,3,3,3,-3,-4,0
17:54:26:878076,1,-2,2,1,-4,-5,-2,-3
17:54:26:885480,3,4,-4,-1,1,1,2,1
17:54:26:893062,3,4,-4,-1,1,1,2,1
17:54:26:900474,-2,3,-4,-9,-3,-3,2,0
17:54:26:907979,-1,2,-1,-1,-1,-1,1,-3
17:54:26:916173,-1,2,-1,-1,-1,-1,1,-3
17:54:26:916949,4,-3,-2,8,-1,0,-3,-1
17:54:26:939339,1,-1,-1,10,3,0,-2,-2
17:54:26:940149,1,-1,-1,10,3,0,-2,-2
17:54:26:940987,-6,-8,-6,-1,1,2,-2,0
17:54:26:945460,1,-2,-5,-19,-6,-4,1,1
17:54:26:953061,1,-2,-5,-19,-6,-4,1,1
17:54:26:960509,-2,2,2,-9,-6,-3,-1,-6
17:54:26:967991,0,3,-5,3,-3,-4,-4,-4
17:54:26:976214,0,3,-5,3,-3,-4,-4,-4
17:54:26:977038,-2,-2,-1,-4,-4,1,-1,0
17:54:26:990958,-16,-16,-2,-3,-2,3,3,4
17:54:26:998694,-16,-16,-2,-3,-2,3,3,4
17:54:26:999487,-10,1,2,2,-4,-2,-2,3
17:54:27:5475,0,-1,7,7,1,3,0,2
17:54:27:13049,0,-1,7,7,1,3,0,2
17:54:27:20506,2,-14,-2,3,0,0,0,-4
17:54:27:27973,0,6,1,5,7,2,1,0
17:54:27:36153,0,6,1,5,7,2,1,0
17:54:27:36964,5,8,2,5,1,-2,-1,-3
17:54:27:51195,4,1,0,-7,-4,0,-1,3
17:54:27:52026,4,1,0,-7,-4,0,-1,3
17:54:27:58037,0,-12,-4,0,2,-2,0,1
17:54:27:65492,-3,-10,-3,-6,-7,-2,-5,-5
17:54:27:73018,-3,-10,-3,-6,-7,-2,-5,-5
17:54:27:80516,0,0,-6,-5,-1,-1,0,-1
17:54:27:88103,3,4,2,4,1,0,0,5
17:54:27:96182,3,4,2,4,1,0,0,5
17:54:27:96974,-1,-3,5,8,7,2,-2,-2
17:54:27:111147,-1,-10,-6,-12,0,-1,-2,-6
17:54:27:111961,-1,-10,-6,-12,0,-1,-2,-6
17:54:27:117941,-4,-1,-5,-9,-4,-1,-5,-2
17:54:27:125500,4,-3,-3,-4,-1,-3,0,-3
17:54:27:133060,4,-3,-3,-4,-1,-3,0,-3
17:54:27:140468,7,6,-3,1,1,-4,2,6
17:54:27:147954,-2,6,-6,-8,-2,-2,-1,-4
17:54:27:163723,-2,6,-6,-8,-2,-2,-1,-4
17:54:27:164462,-6,3,2,13,2,3,0,0
17:54:27:171168,0,2,4,3,-1,-5,1,0
17:54:27:172018,0,2,4,3,-1,-5,1,0
17:54:27:177972,-2,-6,-1,-10,-3,-2,0,-1
17:54:27:185682,3,-1,0,4,-3,0,-1,2
17:54:27:193010,3,-1,0,4,-3,0,-1,2
17:54:27:200460,3,6,2,-1,-3,-4,0,-2
17:54:27:207970,-5,5,-5,-1,0,1,1,-3
17:54:27:216205,-5,5,-5,-1,0,1,1,-3
17:54:27:216991,1,0,1,-1,-4,1,-4,-5
17:54:27:231203,0,-12,-2,-9,-4,-3,-4,-2
17:54:27:232022,0,-12,-2,-9,-4,-3,-4,-2
17:54:27:238106,-4,-4,-5,4,-1,1,0,0
17:54:27:245476,0,2,1,1,1,0,2,1
17:54:27:253038,0,2,1,1,1,0,2,1
17:54:27:260478,2,0,-3,-2,-3,-1,0,-4
17:54:27:267970,1,6,0,-2,-2,-2,-2,-3
17:54:27:276158,1,6,0,-2,-2,-2,-2,-3
17:54:27:276964,1,-6,-3,4,0,-2,-2,1
17:54:27:291168,-4,-4,-1,0,2,1,-2,-2
17:54:27:292031,-4,-4,-1,0,2,1,-2,-2
17:54:27:297966,-1,1,2,-5,-1,-1,-2,1
17:54:27:305470,-4,-23,-5,-6,-5,-2,-2,0
17:54:27:312997,-4,-23,-5,-6,-5,-2,-2,0
17:54:27:320502,-7,-4,3,5,1,-3,2,-2
17:54:27:327999,4,7,-4,4,2,-2,-1,-5
17:54:27:336225,4,7,-4,4,2,-2,-1,-5
17:54:27:336958,-3,-8,1,11,-3,1,-4,4
17:54:27:351183,-1,-1,3,0,0,1,-2,0
17:54:27:351974,-1,-1,3,0,0,1,-2,0
17:54:27:358001,-3,6,-4,-9,1,-3,3,0
17:54:27:365495,0,8,2,2,-1,0,1,3
17:54:27:372999,0,8,2,2,-1,0,1,3
17:54:27:380461,0,3,1,-4,-1,0,1,-1
17:54:27:387959,-11,-7,2,1,-8,1,3,0
17:54:27:396184,-11,-7,2,1,-8,1,3,0
17:54:27:396990,-6,-11,-9,1,-1,1,-1,0
17:54:27:411155,0,8,9,-2,1,-6,-4,0
17:54:27:411952,0,8,9,-2,1,-6,-4,0
17:54:27:417949,3,5,-4,-4,-3,1,-3,1
17:54:27:425504,2,-6,0,-2,-2,-1,-1,3
17:54:27:441174,2,-6,0,-2,-2,-1,-1,3
17:54:27:441961,-3,-4,-2,-7,-3,-4,-5,-8
17:54:27:448028,1,4,-3,-10,2,-2,-2,-1
17:54:27:455513,1,4,-3,-10,2,-2,-2,-1
17:54:27:462977,4,-1,-6,-12,-4,-2,-1,-4
17:54:27:471170,-4,2,0,15,0,2,4,2
17:54:27:471994,-4,2,0,15,0,2,4,2
17:54:27:477934,7,0,2,-3,2,2,-1,2
17:54:27:493668,-4,-1,0,4,4,-1,0,-1
17:54:27:494471,-4,-1,0,4,4,-1,0,-1
17:54:27:500469,-5,-11,1,7,-1,-1,-1,-3
17:54:27:507944,4,-4,-4,-3,-1,0,-2,-1
17:54:27:523673,4,-4,-4,-3,-1,0,-2,-1
17:54:27:524451,4,9,3,2,1,-1,-2,-2
17:54:27:531141,1,-4,-2,0,-1,0,-2,1
17:54:27:531970,1,-4,-2,0,-1,0,-2,1
17:54:27:537947,-4,3,-2,-4,-1,-2,1,-5
17:54:27:553666,1,6,-3,-2,-1,2,-3,-6
17:54:27:554467,1,6,-3,-2,-1,2,-3,-6
17:54:27:560487,-3,0,-5,-6,-3,-1,0,3
17:54:27:568000,2,-5,-5,-13,-3,-4,-3,-2
17:54:27:575533,2,-5,-5,-13,-3,-4,-3,-2
17:54:27:582960,1,-3,0,7,-2,-4,-2,-7
17:54:27:591181,-4,-4,0,-3,-6,-1,2,-7
17:54:27:592001,-4,-4,0,-3,-6,-1,2,-7
17:54:27:605517,2,-1,-2,2,-2,-3,-5,3
17:54:27:613651,-4,-2,0,-2,-2,4,-2,-4
17:54:27:614471,-4,-2,0,-2,-2,4,-2,-4
17:54:27:620484,-1,0,-2,-6,-7,-2,4,-2
17:54:27:627930,-4,1,-4,-1,0,-2,-3,0
17:54:27:635562,-4,1,-4,-1,0,-2,-3,0
17:54:27:642948,1,1,3,-1,-2,2,3,0
17:54:27:651176,-11,-3,-5,-5,1,-3,-5,3
17:54:27:651989,-11,-3,-5,-5,1,-3,-5,3
17:54:27:657968,0,1,-1,-4,-6,-3,-2,-4
17:54:27:673691,1,-5,1,-2,-5,-4,1,4
17:54:27:674497,1,-5,1,-2,-5,-4,1,4
17:54:27:680493,1,-1,-1,-5,5,0,3,13
17:54:27:687932,-1,-4,0,3,-1,-1,-1,-5
17:54:27:695528,-1,-4,0,3,-1,-1,-1,-5
17:54:27:702979,-3,-2,-5,4,-1,-4,-1,-3
17:54:27:711191,4,1,-4,-5,-1,1,4,5
17:54:27:712020,4,1,-4,-5,-1,1,4,5
17:54:27:717976,-1,4,0,-3,-3,-1,-2,-3
17:54:27:733726,-18,-8,-5,-3,0,-1,0,-9
17:54:27:734549,-18,-8,-5,-3,0,-1,0,-9
17:54:27:740489,2,0,-4,5,0,4,0,-4
17:54:27:748002,5,1,8,20,5,-2,3,5
17:54:27:755591,5,1,8,20,5,-2,3,5
17:54:27:763001,-7,-4,1,1,0,-1,-5,-1
17:54:27:770910,5,0,-2,-7,-2,0,1,-2
17:54:27:778680,5,0,-2,-7,-2,0,1,-2
17:54:27:779481,3,-8,1,0,2,-1,0,-7
17:54:27:801831,5,3,1,-1,-2,-2,-3,-3
17:54:27:802660,5,3,1,-1,-2,-2,-3,-3
17:54:27:803466,0,3,3,5,2,4,-3,-6
17:54:27:808040,-1,0,2,4,4,-3,-4,-3
17:54:27:815545,-1,0,2,4,4,-3,-4,-3
17:54:27:822994,-1,-3,-2,-3,-1,-7,-2,2
17:54:27:831123,-5,7,-1,-4,0,-1,-7,-3
17:54:27:831956,-5,7,-1,-4,0,-1,-7,-3
17:54:27:838020,-4,-3,-9,-6,-1,0,4,3
17:54:27:853693,4,1,-4,-5,-9,0,0,0
17:54:27:854495,4,1,-4,-5,-9,0,0,0
17:54:27:860479,0,0,-1,1,2,-2,-5,-6
17:54:27:868011,-2,-6,-4,4,1,-1,-5,1
17:54:27:883720,-2,-6,-4,4,1,-1,-5,1
17:54:27:884508,0,-1,-1,-8,-3,-3,1,4
17:54:27:891120,10,0,3,-6,-2,1,2,-3
17:54:27:891938,10,0,3,-6,-2,1,2,-3
17:54:27:897984,-2,-1,0,-1,-7,-2,1,8
17:54:27:913731,-6,-2,0,6,3,2,3,1
17:54:27:914521,-6,-2,0,6,3,2,3,1
17:54:27:920484,5,2,-1,0,3,1,1,3
17:54:27:927992,1,-13,0,-3,-3,-2,0,-11
17:54:27:935493,1,-13,0,-3,-3,-2,0,-11
17:54:27:942978,-5,0,4,15,3,1,-1,2
17:54:27:951156,-1,2,0,-6,-1,-1,3,1
17:54:27:951972,-1,2,0,-6,-1,-1,3,1
17:54:27:957932,-7,-2,-5,-5,3,0,-5,-3
17:54:27:973659,0,3,-3,4,1,-3,-2,2
17:54:27:974482,0,3,-3,4,1,-3,-2,2
17:54:27:980487,1,-2,-3,-9,-5,-4,2,-2
17:54:27:988000,-17,-6,-2,2,-5,-3,-1,-2
17:54:27:995518,-17,-6,-2,2,-5,-3,-1,-2
17:54:28:2919,4,4,1,-1,-2,-2,-3,-9
17:54:28:11148,6,8,0,-6,-4,1,-2,1
17:54:28:11986,6,8,0,-6,-4,1,-2,1
17:54:28:17937,-4,-9,-7,-2,-8,-3,0,0
17:54:28:33659,0,1,-1,-7,0,3,-2,1
17:54:28:34476,0,1,-1,-7,0,3,-2,1
17:54:28:40466,-2,2,-1,-7,-2,-2,-3,-4
17:54:28:56151,7,6,-4,0,2,-2,-4,4
17:54:28:56956,7,6,-4,0,2,-2,-4,4
17:54:28:62997,3,-1,-3,-8,1,0,-1,-5
17:54:28:71184,2,-8,-5,2,-4,2,0,1
17:54:28:72010,2,-8,-5,2,-4,2,0,1
17:54:28:77972,-3,0,0,0,-3,-1,0,0
17:54:28:93714,4,6,-1,-9,-2,-4,-1,-5
17:54:28:94472,4,6,-1,-9,-2,-4,-1,-5
17:54:28:100500,-5,-3,0,8,2,1,-3,-3
17:54:28:107981,-11,-2,1,-2,1,-1,0,-1
17:54:28:115513,-11,-2,1,-2,1,-1,0,-1
17:54:28:122956,-1,0,-1,1,0,0,-2,5
17:54:28:131142,0,-2,-4,-3,-1,0,-1,-2
17:54:28:131972,0,-2,-4,-3,-1,0,-1,-2
17:54:28:137948,0,-5,1,-1,-1,1,1,-1
17:54:28:153680,-2,2,3,-6,-5,0,-4,-6
17:54:28:154517,-2,2,3,-6,-5,0,-4,-6
17:54:28:160493,1,1,-1,4,-4,-2,3,2
17:54:28:167968,-3,-4,-1,2,6,-2,0,2
17:54:28:175507,-3,-4,-1,2,6,-2,0,2
17:54:28:182989,-15,-5,-2,2,4,-1,-7,-7
17:54:28:191184,-6,-6,-4,-1,-3,-2,-3,-13
17:54:28:192031,-6,-6,-4,-1,-3,-2,-3,-13
17:54:28:197977,6,-1,3,-1,-2,-1,1,4
17:54:28:213660,-2,-3,5,-1,-1,-2,1,7
17:54:28:214473,-2,-3,5,-1,-1,-2,1,7
17:54:28:228601,2,-1,0,0,-2,1,1,1
17:54:28:229468,1,1,-2,4,1,-2,-2,-2
17:54:28:235525,1,1,-2,4,1,-2,-2,-2
17:54:28:242962,2,-2,-6,-4,1,1,1,2
17:54:28:251197,-6,-2,-3,-1,0,1,-1,-10
17:54:28:252008,-6,-2,-3,-1,0,1,-1,-10
17:54:28:257955,0,3,-1,-3,-1,-1,-1,-2
17:54:28:273655,0,2,-4,-2,0,-3,3,6
17:54:28:274472,0,2,-4,-2,0,-3,3,6
17:54:28:280474,2,2,-3,-1,-2,1,1,2
17:54:28:296180,3,0,2,-1,-2,-3,4,3
17:54:28:296961,3,0,2,-1,-2,-3,4,3
17:54:28:302933,-1,-2,-3,0,0,-6,-3,1
17:54:28:311149,-1,0,0,9,-2,3,0,0
17:54:28:311982,-1,0,0,9,-2,3,0,0
17:54:28:317952,-3,-2,2,-5,-1,0,-1,-7
17:54:28:333708,6,-2,-3,1,-1,1,2,-3
17:54:28:334512,6,-2,-3,1,-1,1,2,-3
17:54:28:340486,-13,-10,0,7,0,-1,-1,1
17:54:28:347932,1,0,0,0,0,-4,-5,1
17:54:28:355528,1,0,0,0,0,-4,-5,1
17:54:28:362956,-1,0,1,0,0,-1,-1,-3
17:54:28:378663,-1,1,1,-3,-3,0,-3,-3
17:54:28:379483,-1,1,1,-3,-3,0,-3,-3
17:54:28:385492,-2,2,-5,-1,-3,-1,2,3
17:54:28:393667,7,5,-1,-3,-3,-1,1,4
17:54:28:394576,7,5,-1,-3,-3,-1,1,4
17:54:28:400485,2,2,-2,1,-3,-6,0,-7
17:54:28:416584,-3,-4,1,1,0,0,-1,0
17:54:28:423693,-3,-4,1,1,0,0,-1,0
17:54:28:424477,-1,-4,4,8,4,-1,3,-1
17:54:28:431160,-3,0,-2,-2,-1,-3,1,1
17:54:28:431977,-3,0,-2,-2,-1,-3,1,1
17:54:28:445513,3,0,-2,-9,-4,0,-1,1
17:54:28:461799,-4,-5,-4,1,-2,-1,0,3
17:54:28:462637,-4,-5,-4,1,-2,-1,0,3
17:54:28:463473,1,0,1,-5,-1,0,-2,-2
17:54:28:476234,-16,-5,-1,-5,-6,-3,-2,0
17:54:28:476985,-16,-5,-1,-5,-6,-3,-2,0
17:54:28:491835,3,2,-3,-1,4,1,3,1
17:54:28:492653,3,-1,2,0,3,0,-2,2
17:54:28:493524,3,-1,2,0,3,0,-2,2
17:54:28:505907,1,1,0,3,1,-4,-4,1
17:54:28:513691,1,1,0,3,1,-4,-4,1
17:54:28:514482,3,2,-3,-6,-5,0,4,-2
17:54:28:520528,-6,-2,-5,-5,-5,-1,1,-9
17:54:28:536607,-6,-2,-5,-5,-5,-1,1,-9
17:54:28:543595,7,1,1,0,0,-1,-5,-11
17:54:28:544474,0,-2,-3,-3,-2,1,0,2
17:54:28:551187,0,-2,-3,-3,-2,1,0,2
17:54:28:551997,1,-3,2,1,2,2,-1,1
17:54:28:574313,-1,-1,-2,-7,-1,-5,-3,-2
17:54:28:575127,-1,-1,-2,-7,-1,-5,-3,-2
17:54:28:575923,-2,-2,-2,-2,-2,-2,-1,-5
17:54:28:587995,1,-3,-6,-1,-2,-2,-4,0
17:54:28:596166,1,-3,-6,-1,-2,-2,-4,0
17:54:28:596951,1,-2,-5,1,4,-2,-3,1
17:54:28:602988,-3,0,6,0,-3,1,1,3
17:54:28:611159,-3,0,6,0,-3,1,1,3
17:54:28:611950,1,-1,0,2,-1,0,1,-2
17:54:28:625526,2,-4,-2,-3,0,-2,-3,-4
17:54:28:633670,2,-4,-2,-3,0,-2,-3,-4
17:54:28:634459,-1,1,-1,0,-3,-3,-3,0
17:54:28:640480,-3,-1,1,-2,-6,2,0,3
17:54:28:656215,-3,-1,1,-2,-6,2,0,3
17:54:28:657004,3,0,0,-1,1,-2,0,0
17:54:28:671852,0,-1,-2,-5,1,1,1,0
17:54:28:672658,0,-1,-2,-5,1,1,1,0
17:54:28:673463,-4,-6,-1,-14,-4,0,0,-3
17:54:28:685505,2,1,2,8,3,-2,0,-1
17:54:28:693706,2,1,2,8,3,-2,0,-1
17:54:28:694477,-5,-1,-1,1,-2,-1,-1,-2
17:54:28:700481,2,1,-2,0,0,-1,-4,-6
17:54:28:716176,2,1,-2,0,0,-1,-4,-6
17:54:28:716958,-6,-2,-3,4,-3,1,-1,9
17:54:28:722965,3,0,-4,6,0,1,-3,-3
17:54:28:731194,3,0,-4,6,0,1,-3,-3
17:54:28:732003,-4,0,0,-5,-3,-1,-1,-1
17:54:28:745500,-2,-1,0,-4,0,-9,2,-11
17:54:28:753701,-2,-1,0,-4,0,-9,2,-11
17:54:28:754661,3,-2,-4,5,3,-1,-3,-1
17:54:28:760477,-6,0,2,5,-4,2,-2,7
17:54:28:776204,-6,0,2,5,-4,2,-2,7
17:54:28:776988,4,3,2,0,-1,1,-2,-6
17:54:28:782957,-2,-3,-3,-2,0,2,-1,0
17:54:28:791187,-2,-3,-3,-2,0,2,-1,0
17:54:28:791979,-4,-4,-2,3,-1,0,-2,-1
17:54:28:805502,0,2,-2,-3,0,1,-2,4
17:54:28:813689,0,2,-2,-3,0,1,-2,4
17:54:28:814498,4,-3,-6,-1,0,-3,0,1
17:54:28:820505,0,-1,3,-3,0,3,-1,-2
17:54:28:836186,0,-1,3,-3,0,3,-1,-2
17:54:28:837074,-2,0,1,-3,-1,0,2,0
17:54:28:842953,-1,1,-4,0,-2,-2,1,1
17:54:28:851216,-1,1,-4,0,-2,-2,1,1
17:54:28:851984,-3,-4,1,-2,-3,-4,-8,-5
17:54:28:865493,0,-5,-2,-4,-2,1,2,10
17:54:28:873665,0,-5,-2,-4,-2,1,2,10
17:54:28:874481,-3,-1,3,2,1,-1,0,2
17:54:28:880503,-1,-5,-3,-3,-3,-1,-3,-8
17:54:28:896161,-1,-5,-3,-3,-3,-1,-3,-8
17:54:28:896945,-4,-1,-2,-5,-1,-2,5,-4
17:54:28:902995,0,-1,-1,-4,-1,-3,0,0
17:54:28:911148,0,-1,-1,-4,-1,-3,0,0
17:54:28:911958,-4,2,-6,2,-1,-1,-4,-6
17:54:28:925489,-3,-2,2,-3,-2,-1,-1,1
17:54:28:933717,-3,-2,2,-3,-2,-1,-1,1
17:54:28:934473,0,-2,-2,4,-1,-1,-2,-3
17:54:28:947966,-5,0,1,0,1,1,-1,-3
17:54:28:956222,-5,0,1,0,1,1,-1,-3
17:54:28:956997,3,0,3,-3,1,-2,1,1
17:54:28:962969,-7,-5,0,1,-2,-1,-1,0
17:54:28:971270,-7,-5,0,1,-2,-1,-1,0
17:54:28:971980,-3,-3,-5,-3,-2,1,-3,-2
17:54:28:985520,1,3,-2,0,2,1,-2,-3
17:54:28:993624,1,3,-2,0,2,1,-2,-3
17:54:28:994506,0,-4,-4,2,5,1,-1,1
17:54:29:502,2,-2,-2,0,-5,-2,-2,-3
17:54:29:16204,2,-2,-2,0,-5,-2,-2,-3
17:54:29:17013,1,-2,1,0,1,1,0,-5
17:54:29:31846,1,1,-5,-1,2,-1,0,-2
17:54:29:32660,1,1,-5,-1,2,-1,0,-2
17:54:29:33461,0,0,0,-4,-2,-3,-3,-4
17:54:29:45481,1,-6,4,-1,1,-2,-3,-4
17:54:29:53696,1,-6,4,-1,1,-2,-3,-4
17:54:29:54478,0,3,-6,-1,-2,-1,2,5
17:54:29:60485,0,0,-1,-1,-1,0,1,-4
17:54:29:76174,0,0,-1,-1,-1,0,1,-4
17:54:29:76978,-7,1,3,-3,-1,-2,-1,0
17:54:29:82933,-2,1,3,-3,-2,1,0,2
17:54:29:91190,-2,1,3,-3,-2,1,0,2
17:54:29:91985,0,-3,-2,3,-2,-1,0,-1
17:54:29:105490,2,2,0,3,-2,-2,-5,-5
17:54:29:113659,2,2,0,3,-2,-2,-5,-5
17:54:29:114467,0,-1,0,1,0,-1,2,-2
17:54:29:120482,0,0,-5,-1,0,2,0,1
17:54:29:136177,0,0,-5,-1,0,2,0,1
17:54:29:136950,-5,-1,-1,3,-3,-1,0,-3
17:54:29:151791,0,-4,0,-3,-4,-4,-2,-2
17:54:29:152603,0,-4,0,-3,-4,-4,-2,-2
17:54:29:153475,-2,-4,-3,-2,0,0,-3,0
17:54:29:165528,-4,-1,-1,-1,-2,2,0,0
17:54:29:173735,-4,-1,-1,-1,-2,2,0,0
17:54:29:174514,-1,-1,1,-2,-1,1,1,6
17:54:29:180514,1,2,-1,1,-1,-5,-1,-3
17:54:29:196211,1,2,-1,1,-1,-5,-1,-3
17:54:29:197012,3,0,1,-4,-1,-4,0,1
17:54:29:203054,-15,-2,-4,3,-3,-2,-3,-3
17:54:29:211213,-15,-2,-4,3,-3,-2,-3,-3
17:54:29:212003,-2,1,-2,-3,2,1,1,0
17:54:29:225517,-1,0,-3,-3,0,-4,5,-6
17:54:29:233701,-1,0,-3,-3,0,-4,5,-6
17:54:29:234500,0,1,0,-3,-3,0,-1,-2
17:54:29:240505,1,0,0,4,-3,-3,-6,0
17:54:29:256251,1,0,0,4,-3,-3,-6,0
17:54:29:256989,-5,-1,1,1,-3,-1,1,5
17:54:29:262972,5,0,-7,0,5,0,-1,0
17:54:29:271200,5,0,-7,0,5,0,-1,0
17:54:29:272002,3,-1,-1,-2,-4,0,-2,1
17:54:29:285508,0,-3,-1,-2,0,0,-2,2
17:54:29:293691,0,-3,-1,-2,0,0,-2,2
17:54:29:294483,-1,0,-3,-3,2,-3,-2,2
17:54:29:307942,0,2,1,-2,0,-2,2,3
17:54:29:316178,0,2,1,-2,0,-2,2,3
17:54:29:316968,0,2,-1,-1,-1,-1,-2,-6
17:54:29:322945,1,-6,2,-3,-3,2,0,-1
17:54:29:330518,1,-6,2,-3,-3,2,0,-1
17:54:29:337976,-4,-3,-3,-3,-2,0,-3,-4
17:54:29:345488,-2,-1,0,-3,2,0,-2,-3
17:54:29:353726,-2,-1,0,-3,2,0,-2,-3
17:54:29:354506,-1,-4,0,4,3,-2,-3,-2
17:54:29:367967,-11,-1,-1,-1,-4,1,0,0
17:54:29:376205,-11,-1,-1,-1,-4,1,0,0
17:54:29:376987,0,-2,0,-3,5,0,-3,-9
17:54:29:382955,1,-3,-1,4,-4,-2,-6,3
17:54:29:390543,1,-3,-1,4,-4,-2,-6,3
17:54:29:397970,-8,1,-1,-2,-4,-2,0,1
17:54:29:405496,1,1,-1,-4,2,-3,-2,-1
17:54:29:413640,1,1,-1,-4,2,-3,-2,-1
17:54:29:414479,4,-6,-3,1,-1,-2,-2,0
17:54:29:428504,3,2,-3,-2,-1,0,0,-1
17:54:29:436274,3,2,-3,-2,-1,0,0,-1
17:54:29:437014,-6,2,-1,-5,-3,0,-1,-1
17:54:29:442977,-2,-4,-4,0,0,-3,1,-1
17:54:29:450519,-2,-4,-4,0,0,-3,1,-1
17:54:29:458030,-1,0,-1,2,-2,-4,0,-3
17:54:29:465504,3,-3,-2,-3,-2,3,0,-5
17:54:29:473681,3,-3,-2,-3,-2,3,0,-5
17:54:29:474486,4,-2,1,1,-2,1,-3,0
17:54:29:487962,2,1,-3,-3,0,-2,1,-4
17:54:29:496166,2,1,-3,-3,0,-2,1,-4
17:54:29:496958,-1,-1,-1,1,-3,-2,1,-1
17:54:29:503003,6,1,3,1,-2,0,-2,-2
17:54:29:510504,6,1,3,1,-2,0,-2,-2
17:54:29:517932,1,0,2,-1,-4,-4,-2,0
17:54:29:525491,-1,-1,-1,0,-2,-2,0,-1
17:54:29:533702,-1,-1,-1,0,-2,-2,0,-1
17:54:29:534479,2,1,-5,2,0,0,1,1
17:54:29:548002,-3,-4,-1,-1,-1,-1,0,6
17:54:29:556174,-3,-4,-1,-1,-1,-1,0,6
17:54:29:556955,-5,-2,-2,-6,2,2,-3,-2
17:54:29:562957,5,3,1,1,1,-5,-1,4
17:54:29:570540,5,3,1,1,1,-5,-1,4
17:54:29:577934,1,-4,-1,5,-1,2,-1,-1
17:54:29:585501,-3,0,-4,-6,-5,2,1,2
17:54:29:593691,-3,0,-4,-6,-5,2,1,2
17:54:29:594484,-4,-1,1,-2,-1,-2,1,-6
17:54:29:608024,2,1,-4,1,0,-2,-6,-2
17:54:29:616181,2,1,-4,1,0,-2,-6,-2
17:54:29:616966,-3,-3,-2,1,0,-5,-4,-2
17:54:29:622935,-4,-2,3,-2,0,-1,1,-4
17:54:29:630507,-4,-2,3,-2,0,-1,1,-4
17:54:29:638094,0,-5,3,-2,1,3,0,4
17:54:29:645515,6,1,3,-3,-2,0,-3,2
17:54:29:653725,6,1,3,-3,-2,0,-3,2
17:54:29:654520,1,4,-2,0,-2,0,-4,0
17:54:29:667955,0,-5,-4,-1,0,1,3,0
17:54:29:676201,0,-5,-4,-1,0,1,3,0
17:54:29:676991,-1,-1,-2,-2,-1,-3,-2,-3
17:54:29:682960,-1,0,1,4,4,-3,-2,-4
17:54:29:690556,-1,0,1,4,4,-3,-2,-4
17:54:29:697965,-4,-5,-5,0,-3,-1,-1,1
17:54:29:705574,4,1,2,-1,-3,-3,-1,-4
17:54:29:713627,4,1,2,-1,-3,-3,-1,-4
17:54:29:714484,3,0,-2,-1,-3,-5,-1,0
17:54:29:727963,-4,1,-5,-2,-2,0,-2,2
17:54:29:736194,-4,1,-5,-2,-2,0,-2,2
17:54:29:736995,-1,4,2,2,-2,2,3,4
17:54:29:742946,-4,0,-3,-1,-1,-1,-2,-2
17:54:29:750480,-4,0,-3,-1,-1,-1,-2,-2
17:54:29:757972,-4,2,-2,-4,0,-3,1,-1
17:54:29:765486,-19,-8,-6,1,-4,0,-2,-8
17:54:29:773671,-19,-8,-6,1,-4,0,-2,-8
17:54:29:774487,1,-4,-2,2,1,5,1,-1
17:54:29:787982,-2,-2,-1,0,-3,1,1,6
17:54:29:796139,-2,-2,-1,0,-3,1,1,6
17:54:29:796958,-1,-7,-2,-2,0,-5,-3,-2
17:54:29:802988,2,-6,2,-4,3,-5,2,2
17:54:29:810490,2,-6,2,-4,3,-5,2,2
17:54:29:817930,-2,1,0,-3,0,-2,-2,-3
17:54:29:825486,-1,3,-3,-1,-4,-1,0,-5
17:54:29:833680,-1,3,-3,-1,-4,-1,0,-5
17:54:29:834493,-6,-2,-3,-2,-4,0,-4,-4
17:54:29:847995,-3,-3,-3,0,1,3,-2,0
17:54:29:856198,-3,-3,-3,0,1,3,-2,0
17:54:29:856939,5,-2,-1,2,1,0,-1,-1
17:54:29:862925,3,2,5,4,3,0,0,0
17:54:29:870521,3,2,5,4,3,0,0,0
17:54:29:877941,-2,-2,-3,-2,-7,-2,0,-8
17:54:29:885479,-4,0,-3,-4,-2,1,-2,-4
17:54:29:893684,-4,0,-3,-4,-2,1,-2,-4
17:54:29:894486,-1,-1,-1,-1,2,-2,-1,4
17:54:29:907978,4,0,-3,-3,-4,-3,-4,-2
17:54:29:916166,4,0,-3,-3,-4,-3,-4,-2
17:54:29:916984,6,2,-2,-5,-4,-1,0,1
17:54:29:923039,-3,-6,1,-1,-1,1,2,0
17:54:29:930535,-3,-6,1,-1,-1,1,2,0
17:54:29:937974,-1,4,-1,2,-3,1,-1,1
17:54:29:945525,1,-9,-2,-2,-1,-2,-2,-4
17:54:29:953713,1,-9,-2,-2,-1,-2,-2,-4
17:54:29:954513,5,-2,3,-7,-1,1,2,-8
17:54:29:967956,-1,3,0,1,-2,-1,-2,-2
17:54:29:976195,-1,3,0,1,-2,-1,-2,-2
17:54:29:976984,4,0,-1,1,-2,-3,0,8
17:54:29:982962,2,4,0,-1,-3,-4,-1,-4
17:54:29:990568,2,4,0,-1,-3,-4,-1,-4
17:54:29:997959,-3,6,-1,5,0,2,0,0
17:54:30:5501,-6,3,2,2,0,0,1,1
17:54:30:13650,-6,3,2,2,0,0,1,1
17:54:30:14489,-3,-4,-2,-6,4,-6,-4,-2
17:54:30:27963,0,-8,-2,-7,-3,-2,-4,-6
17:54:30:36201,0,-8,-2,-7,-3,-2,-4,-6
17:54:30:37010,-2,0,-3,0,2,0,2,1
17:54:30:42963,1,-3,-4,0,-2,-4,0,-6
17:54:30:50496,1,-3,-4,0,-2,-4,0,-6
17:54:30:57993,-2,-13,-5,-2,-3,4,-1,2
17:54:30:65501,3,12,-2,1,1,2,-2,-5
17:54:30:73686,3,12,-2,1,1,2,-2,-5
17:54:30:74482,2,3,0,2,0,-1,0,-4
17:54:30:87980,-7,-14,1,2,1,1,3,5
17:54:30:96165,-7,-14,1,2,1,1,3,5
17:54:30:96944,-7,-13,-6,-4,-3,-4,-5,-14
17:54:30:102992,-1,6,-3,3,-2,-1,-1,0
17:54:30:110529,-1,6,-3,3,-2,-1,-1,0
17:54:30:118095,-1,2,2,0,-4,0,0,6
17:54:30:125490,8,-3,-2,-1,-2,2,-1,3
17:54:30:133694,8,-3,-2,-1,-2,2,-1,3
17:54:30:134495,1,2,0,-1,1,1,4,0
17:54:30:147994,-1,8,3,-1,-1,-1,-1,2
17:54:30:156191,-1,8,3,-1,-1,-1,-1,2
17:54:30:156978,-8,4,2,0,-1,0,-3,-3
17:54:30:162950,-4,-5,-1,-2,-1,-4,-2,1
17:54:30:170508,-4,-5,-1,-2,-1,-4,-2,1
17:54:30:178033,-6,-1,4,-3,-1,-3,-2,1
17:54:30:185500,-2,-5,-5,-3,0,2,-3,1
17:54:30:193722,-2,-5,-5,-3,0,2,-3,1
17:54:30:194572,-12,-8,-6,-2,-4,2,1,-6
17:54:30:207962,3,-5,5,-4,-1,-2,0,-1
17:54:30:216206,3,-5,5,-4,-1,-2,0,-1
17:54:30:216991,5,3,-2,-2,2,-2,2,2
17:54:30:222984,-7,1,2,3,-3,-4,-3,-5
17:54:30:230518,-7,1,2,3,-3,-4,-3,-5
17:54:30:237981,2,0,0,5,-2,1,2,-6
17:54:30:245512,3,-6,-4,1,0,0,1,3
17:54:30:253700,3,-6,-4,1,0,0,1,3
17:54:30:254535,2,3,3,-2,-3,-3,-4,3
17:54:30:267967,1,1,-5,4,0,2,0,-1
17:54:30:276210,1,1,-5,4,0,2,0,-1
17:54:30:276996,-5,-3,1,-5,-2,3,-3,-1
17:54:30:291190,2,-1,-2,-6,-6,-8,3,-2
17:54:30:292063,2,-1,-2,-6,-6,-8,3,-2
17:54:30:306148,4,-1,2,3,2,-3,-4,-3
17:54:30:306935,3,3,-6,-4,-3,1,-2,4
17:54:30:313008,3,3,-6,-4,-3,1,-2,4
17:54:30:320498,1,0,-1,1,1,-2,-1,-1
17:54:30:327978,-10,-9,-3,-2,-1,-5,-1,-2
17:54:30:336211,-10,-9,-3,-2,-1,-5,-1,-2
17:54:30:337007,-2,2,-3,-3,-2,1,-2,-9
17:54:30:351170,1,-4,-10,-2,2,0,-7,-13
17:54:30:352011,1,-4,-10,-2,2,0,-7,-13
17:54:30:357980,1,1,-6,1,-1,2,2,8
17:54:30:365490,-6,1,4,1,0,-1,4,4
17:54:30:373040,-6,1,4,1,0,-1,4,4
17:54:30:380511,0,-2,-2,-3,-1,-2,0,-3
17:54:30:387995,0,5,3,2,1,1,0,-2
17:54:30:396207,0,5,3,2,1,1,0,-2
17:54:30:396974,1,0,-2,-6,3,-4,-8,2
17:54:30:411196,-18,-20,-2,-4,-4,-2,-1,-5
17:54:30:411996,-18,-20,-2,-4,-4,-2,-1,-5
17:54:30:417976,-4,-2,-4,0,-3,-1,-1,1
17:54:30:425497,-4,6,-1,-3,-2,-2,-3,-14
17:54:30:433037,-4,6,-1,-3,-2,-2,-3,-14
17:54:30:440514,2,2,-4,2,-3,-1,1,5
17:54:30:447981,2,-3,5,3,1,0,-1,11
17:54:30:456158,2,-3,5,3,1,0,-1,11
17:54:30:456943,-1,-3,0,-3,1,-4,1,-2
17:54:30:471180,-2,3,-2,-7,-1,0,-2,5
17:54:30:472011,-2,3,-2,-7,-1,0,-2,5
17:54:30:478021,-4,-5,3,1,-1,-2,-2,-3
17:54:30:485515,3,4,4,1,2,1,3,-2
17:54:30:493070,3,4,4,1,2,1,3,-2
17:54:30:500513,1,0,-2,-2,-4,-1,3,4
17:54:30:507997,12,2,-3,-3,-5,0,-6,0
17:54:30:516170,12,2,-3,-3,-5,0,-6,0
17:54:30:516989,-10,-10,2,-1,-1,-2,-2,-11
17:54:30:531124,-3,4,0,-1,1,-1,5,-2
17:54:30:531991,-3,4,0,-1,1,-1,5,-2
17:54:30:538027,-5,4,2,5,-2,3,-3,3
17:54:30:545502,-1,-1,-3,1,3,1,-4,1
17:54:30:553080,-1,-1,-3,1,3,1,-4,1
17:54:30:560495,4,-4,-6,0,-3,-4,1,-7
17:54:30:567947,6,-1,0,0,-2,-2,0,-1
17:54:30:576184,6,-1,0,0,-2,-2,0,-1
17:54:30:576964,-1,-2,-5,-3,0,-2,2,3
17:54:30:591156,0,-1,-3,-2,-1,-3,-3,1
17:54:30:591969,0,-1,-3,-2,-1,-3,-3,1
17:54:30:597945,-1,-2,-3,-1,1,-1,-1,-1
17:54:30:605496,2,-2,-2,-1,-5,1,2,1
17:54:30:613008,2,-2,-2,-1,-5,1,2,1
17:54:30:620491,-3,-9,-4,-4,-2,-2,2,5
17:54:30:627947,-7,3,0,-3,-2,-2,-2,-1
17:54:30:636186,-7,3,0,-3,-2,-2,-2,-1
17:54:30:637056,4,23,5,3,2,0,-3,-3
17:54:30:651153,-2,-4,-1,2,0,-2,-4,-1
17:54:30:651995,-2,-4,-1,2,0,-2,-4,-1
17:54:30:657961,0,-9,-4,0,2,0,-2,-2
17:54:30:665514,-2,4,1,-2,-1,0,-2,-5
17:54:30:673053,-2,4,1,-2,-1,0,-2,-5
17:54:30:680520,1,-2,-5,-4,-2,3,-3,-4
17:54:30:687959,0,-1,0,1,2,1,1,4
17:54:30:696237,0,-1,0,1,2,1,1,4
17:54:30:696993,-14,-9,-1,-1,-3,-3,1,4
17:54:30:711179,-5,-2,-2,5,1,0,-4,-1
17:54:30:712092,-5,-2,-2,5,1,0,-4,-1
17:54:30:717965,2,-7,2,-4,0,-3,-2,-10
17:54:30:725516,0,-7,0,-2,2,-2,-2,-8
17:54:30:733036,0,-7,0,-2,2,-2,-2,-8
17:54:30:740597,10,9,7,0,-2,1,0,1
17:54:30:747984,5,5,-3,-1,-4,1,0,0
17:54:30:756152,5,5,-3,-1,-4,1,0,0
17:54:30:756939,-3,-4,1,6,-2,-4,0,0
17:54:30:771189,0,1,0,-7,0,-2,3,9
17:54:30:772013,0,1,0,-7,0,-2,3,9
17:54:30:777966,-6,-20,-7,-6,-5,0,-5,-8
17:54:30:785518,-3,-6,-5,-17,-6,-3,-1,5
17:54:30:792998,-3,-6,-5,-17,-6,-3,-1,5
17:54:30:800486,-4,-9,-9,-4,-6,-4,-8,-21
17:54:30:807981,5,4,-4,0,0,2,1,-7
17:54:30:816154,5,4,-4,0,0,2,1,-7
17:54:30:816967,6,17,-1,-3,0,1,1,6
17:54:30:831136,-7,-14,-3,2,-1,-1,-3,0
17:54:30:831968,-7,-14,-3,2,-1,-1,-3,0
17:54:30:838017,2,-2,3,-3,-1,0,3,4
17:54:30:845531,1,0,0,4,3,-3,-1,-8
17:54:30:853018,1,0,0,4,3,-3,-1,-8
17:54:30:860501,-3,-4,3,0,-2,3,-1,4
17:54:30:867953,13,33,-5,-5,-8,0,1,0
17:54:30:876174,13,33,-5,-5,-8,0,1,0
17:54:30:876957,-5,17,4,-19,-2,-2,-1,-1
17:54:30:891143,14,18,16,7,1,-1,4,-1
17:54:30:891972,14,18,16,7,1,-1,4,-1
17:54:30:897932,-7,-20,-5,-4,-1,0,-3,0
17:54:30:905486,-6,7,-6,8,6,0,-2,3
17:54:30:913039,-6,7,-6,8,6,0,-2,3
17:54:30:920511,-2,-32,-1,3,-3,-1,-3,-5
17:54:30:927933,0,-13,-2,-6,-2,-1,8,24
17:54:30:943722,0,-13,-2,-6,-2,-1,8,24
17:54:30:944506,4,13,5,14,9,1,1,26
17:54:30:951142,-14,-3,-8,-13,-9,-6,-13,-6
17:54:30:951997,-14,-3,-8,-13,-9,-6,-13,-6
17:54:30:957954,-14,9,3,4,5,2,5,11
17:54:30:965501,-10,-9,1,13,6,0,3,-17
17:54:30:973030,-10,-9,1,13,6,0,3,-17
17:54:30:980489,13,7,-7,-6,-7,-2,1,-8
17:54:30:988034,-2,2,4,14,0,0,-3,14
17:54:30:996205,-2,2,4,14,0,0,-3,14
17:54:30:997014,-2,7,-11,-10,-2,-4,0,-10
17:54:31:11195,-10,-3,3,1,-4,3,1,-2
17:54:31:11996,-10,-3,3,1,-4,3,1,-2
17:54:31:17972,3,-6,-2,18,8,-1,-3,-1
17:54:31:25499,-9,-7,-3,5,-8,0,-4,-5
17:54:31:33019,-9,-7,-3,5,-8,0,-4,-5
17:54:31:40498,1,3,2,2,-1,-6,-3,-1
17:54:31:47977,7,-5,-6,-18,-2,-2,2,-2
17:54:31:56168,7,-5,-6,-18,-2,-2,2,-2
17:54:31:56967,14,1,3,-3,-3,0,-3,-9
17:54:31:71130,-14,-30,-3,-10,2,-1,0,3
17:54:31:71967,-14,-30,-3,-10,2,-1,0,3
17:54:31:77981,-7,0,-9,1,-4,-5,0,-8
17:54:31:85495,1,7,-1,8,4,0,-5,-13
17:54:31:93010,1,7,-1,8,4,0,-5,-13
17:54:31:100491,-23,11,3,-19,-8,-1,0,5
17:54:31:107988,7,0,-2,7,2,-6,-9,-15
17:54:31:116189,7,0,-2,7,2,-6,-9,-15
17:54:31:116990,-5,-11,-1,-2,-1,-3,3,1
17:54:31:131115,-2,-14,1,-2,-3,3,3,2
17:54:31:131974,-2,-14,1,-2,-3,3,3,2
17:54:31:137983,12,-5,-1,3,-7,0,1,4
17:54:31:145497,20,4,1,-3,-2,1,4,2
17:54:31:153019,20,4,1,-3,-2,1,4,2
17:54:31:160495,-7,-4,1,9,4,2,-1,-3
17:54:31:167939,-1,-12,-10,-10,2,-1,0,-1
17:54:31:176166,-1,-12,-10,-10,2,-1,0,-1
17:54:31:176949,-3,-13,0,-7,2,-3,-3,-12
17:54:31:191204,0,-1,0,3,-1,-2,0,5
17:54:31:192005,0,-1,0,3,-1,-2,0,5
17:54:31:197939,1,1,-7,-5,-5,-2,-7,-7
17:54:31:205510,-14,1,-1,7,2,-1,0,-5
17:54:31:213030,-14,1,-1,7,2,-1,0,-5
17:54:31:220536,9,14,7,2,-1,-1,2,5
17:54:31:227952,-2,0,3,0,-2,-3,-3,0
17:54:31:235533,-2,0,3,0,-2,-3,-3,0
17:54:31:242989,6,-4,0,17,9,3,-1,-3
17:54:31:251197,11,10,-4,-14,-5,-3,3,10
17:54:31:252007,11,10,-4,-14,-5,-3,3,10
17:54:31:257971,2,-12,0,5,4,0,-2,6
17:54:31:273719,-12,19,3,-6,-6,-1,-4,-5
17:54:31:274496,-12,19,3,-6,-6,-1,-4,-5
17:54:31:280486,0,2,-6,-14,-3,1,-1,-8
17:54:31:287953,-4,-2,-1,-5,-2,-2,-2,1
17:54:31:295545,-4,-2,-1,-5,-2,-2,-2,1
17:54:31:302983,-10,9,1,-5,-1,0,-4,-10
17:54:31:311126,-6,-7,-3,-13,-2,-5,-7,-5
17:54:31:312040,-6,-7,-3,-13,-2,-5,-7,-5
17:54:31:317996,3,-13,-2,3,-1,0,8,7
17:54:31:333634,1,5,9,11,-2,2,-2,-2
17:54:31:334507,1,5,9,11,-2,2,-2,-2
17:54:31:340505,-9,-3,-10,-10,-3,-1,1,2
17:54:31:347977,-1,-7,-5,-3,-5,-2,-3,-2
17:54:31:355502,-1,-7,-5,-3,-5,-2,-3,-2
17:54:31:362969,6,19,1,-6,-6,-5,-1,4
17:54:31:371167,1,2,-3,-7,-6,6,-1,-2
17:54:31:371969,1,2,-3,-7,-6,6,-1,-2
17:54:31:377907,-10,-1,-2,-6,-2,1,1,8
17:54:31:401854,0,-1,0,-8,6,1,-1,-7
17:54:31:402659,0,-1,0,-8,6,1,-1,-7
17:54:31:403501,4,-7,-2,11,0,2,-4,4
17:54:31:408004,4,-4,-2,9,2,2,-3,0
17:54:31:415552,4,-4,-2,9,2,2,-3,0
17:54:31:422979,-2,-7,5,11,4,1,-8,-10
17:54:31:431613,3,12,-2,11,0,0,-3,-19
17:54:31:438658,3,12,-2,11,0,0,-3,-19
17:54:31:439494,2,2,0,-10,-2,-1,1,-3
17:54:31:453715,7,-5,-3,-11,-1,-2,0,-7
17:54:31:454507,7,-5,-3,-11,-1,-2,0,-7
17:54:31:468677,2,-2,2,0,-5,-3,2,-2
17:54:31:469505,-5,-2,4,19,-3,-5,0,5
17:54:31:475523,-5,-2,4,19,-3,-5,0,5
17:54:31:482978,12,6,-9,0,4,-1,-5,-13
17:54:31:491166,-1,10,0,-15,-3,-3,2,11
17:54:31:492027,-1,10,0,-15,-3,-3,2,11
17:54:31:497968,-6,6,3,-3,-3,-8,3,6
17:54:31:513636,2,-7,0,-16,2,5,1,1
17:54:31:514484,2,-7,0,-16,2,5,1,1
17:54:31:520593,-6,3,5,1,-2,1,-2,-20
17:54:31:528003,3,11,-7,-2,-6,-4,0,-3
17:54:31:535537,3,11,-7,-2,-6,-4,0,-3
17:54:31:542989,-10,11,-3,6,3,3,-2,6
17:54:31:551172,0,-20,6,26,11,7,2,-5
17:54:31:551995,0,-20,6,26,11,7,2,-5
17:54:31:557922,-1,-6,-3,-6,-3,-4,-1,5
17:54:31:573690,-3,-8,1,-10,-3,-6,-5,4
17:54:31:574618,-3,-8,1,-10,-3,-6,-5,4
17:54:31:580515,2,-6,-1,-7,-8,-3,-2,-12
17:54:31:587993,0,0,-8,-1,-8,-5,-7,0
17:54:31:595578,0,0,-8,-1,-8,-5,-7,0
17:54:31:602944,-2,-6,11,-4,0,1,0,8
17:54:31:611177,12,24,5,4,5,-1,5,-2
17:54:31:612036,12,24,5,4,5,-1,5,-2
17:54:31:617957,8,4,-3,-8,-2,0,1,7
17:54:31:633648,-4,-8,-3,7,-3,-5,-10,-25
17:54:31:634487,-4,-8,-3,7,-3,-5,-10,-25
17:54:31:640494,2,-8,-8,9,7,1,2,3
17:54:31:647939,-19,-15,-7,-12,-6,-4,4,4
17:54:31:655526,-19,-15,-7,-12,-6,-4,4,4
17:54:31:662968,-13,-24,-4,0,-12,-7,-10,-25
17:54:31:679318,-6,5,1,-4,4,9,1,-1
17:54:31:680123,-6,5,1,-4,4,9,1,-1
17:54:31:680944,9,5,0,-9,-3,-2,-1,10
17:54:31:693654,-14,-26,-7,5,8,-3,-6,-13
17:54:31:694543,-14,-26,-7,5,8,-3,-6,-13
17:54:31:700420,5,9,5,-8,-4,-5,-13,-22
17:54:31:707975,5,4,-3,-5,-5,-1,3,13
17:54:31:715510,5,4,-3,-5,-5,-1,3,13
17:54:31:722948,-6,-9,-5,-13,-4,3,-3,5
17:54:31:731151,1,1,4,6,5,-3,4,8
17:54:31:731977,1,1,4,6,5,-3,4,8
17:54:31:737950,4,8,-3,3,3,1,1,11
17:54:31:761802,3,1,5,8,-1,0,-2,-11
17:54:31:762603,3,1,5,8,-1,0,-2,-11
17:54:31:763585,7,19,-7,7,-6,1,-2,-1
17:54:31:776314,7,19,-7,7,-6,1,-2,-1
17:54:31:777047,6,8,-2,-1,-7,-2,3,22
17:54:31:782992,-6,-7,3,11,17,1,8,13
17:54:31:791306,-6,-7,3,11,17,1,8,13
17:54:31:791978,-1,-10,-2,-10,-8,-6,0,7
17:54:31:797975,-8,3,6,10,3,-6,-1,-1
17:54:31:813716,-8,3,6,10,3,-6,-1,-1
17:54:31:814512,-9,-22,0,3,-4,1,-6,-18
17:54:31:820509,-1,14,-5,-2,2,-4,6,2
17:54:31:836199,-1,14,-5,-2,2,-4,6,2
17:54:31:837020,-3,-8,2,-2,-5,-1,-7,-8
17:54:31:842959,-4,-18,1,-30,-7,-2,-7,-3
17:54:31:851121,-4,-18,1,-30,-7,-2,-7,-3
17:54:31:851959,-2,0,0,16,-1,-2,2,4
17:54:31:858018,-18,-14,-11,6,-10,-4,-1,-3
17:54:31:873693,-18,-14,-11,6,-10,-4,-1,-3
17:54:31:874666,7,6,-2,11,-1,2,-4,-2
17:54:31:880518,-4,-21,-1,-8,-7,3,5,14
17:54:31:896184,-4,-21,-1,-8,-7,3,5,14
17:54:31:897022,-18,-23,2,3,1,5,-2,3
17:54:31:902991,-3,-4,-5,16,2,-1,-7,-10
17:54:31:911198,-3,-4,-5,16,2,-1,-7,-10
17:54:31:912001,11,13,1,-9,4,-5,3,2
17:54:31:917979,2,12,11,7,7,1,8,15
17:54:31:933690,2,12,11,7,7,1,8,15
17:54:31:934496,3,5,6,2,10,2,4,6
17:54:31:940499,0,7,-3,10,3,-2,-1,-4
17:54:31:956668,0,7,-3,10,3,-2,-1,-4
17:54:31:957498,-5,19,-11,-33,-7,-5,-5,-4
17:54:31:962984,3,8,9,-5,-6,-5,-1,-1
17:54:31:971202,3,8,9,-5,-6,-5,-1,-1
17:54:31:972088,-8,-13,-5,-5,-5,-7,4,-2
17:54:31:978049,-2,7,-4,3,5,6,-3,-15
17:54:31:993686,-2,7,-4,3,5,6,-3,-15
17:54:31:994543,1,34,14,13,3,-5,1,11
17:54:32:690,3,19,1,1,-6,-6,-2,-2
17:54:32:16159,3,19,1,1,-6,-6,-2,-2
17:54:32:16958,0,-1,-2,2,7,2,2,0
17:54:32:22960,-21,-7,-6,-1,-4,-2,0,-1
17:54:32:31241,-21,-7,-6,-1,-4,-2,0,-1
17:54:32:31981,-3,-12,-3,-1,-7,0,1,8
17:54:32:37953,10,-13,-3,0,7,3,-3,2
17:54:32:53678,10,-13,-3,0,7,3,-3,2
17:54:32:54540,-4,-18,-1,20,2,6,-7,-20
17:54:32:60445,-2,-1,2,-7,-2,-3,0,0
17:54:32:76192,-2,-1,2,-7,-2,-3,0,0
17:54:32:76974,7,-3,-1,15,1,0,0,5
17:54:32:82926,5,8,-2,8,3,5,5,3
17:54:32:91195,5,8,-2,8,3,5,5,3
17:54:32:92006,-12,-7,-5,4,4,2,-1,5
17:54:32:97954,4,-3,-1,-1,-4,-2,1,15
17:54:32:113723,4,-3,-1,-1,-4,-2,1,15
17:54:32:114500,-1,7,6,9,9,3,-6,3
17:54:32:120415,4,-12,8,-10,-10,-1,1,8
17:54:32:136188,4,-12,8,-10,-10,-1,1,8
17:54:32:136965,3,-10,-12,-14,-2,-3,-2,-3
17:54:32:142979,3,-6,-3,-13,-6,-5,-7,-13
17:54:32:151162,3,-6,-3,-13,-6,-5,-7,-13
17:54:32:152048,-14,-5,-10,-9,-5,-5,3,-8
17:54:32:165522,-13,6,-2,-12,-4,-1,6,-4
17:54:32:173688,-13,6,-2,-12,-4,-1,6,-4
17:54:32:174497,5,-6,4,-4,0,-2,-3,-13
17:54:32:180509,-9,5,0,12,0,2,5,1
17:54:32:196140,-9,5,0,12,0,2,5,1
17:54:32:196997,10,8,-6,-12,-9,-5,-2,-5
17:54:32:203015,-2,-19,-8,-9,-1,2,-3,-9
17:54:32:211169,-2,-19,-8,-9,-1,2,-3,-9
17:54:32:211976,-6,-7,6,-2,-3,-1,-3,-7
17:54:32:225525,-7,4,-4,-27,-8,-4,-12,-31
17:54:32:233685,-7,4,-4,-27,-8,-4,-12,-31
17:54:32:234525,-5,-18,-4,-16,-1,1,2,0
17:54:32:240522,11,-8,-2,-3,0,-1,3,5
17:54:32:256208,11,-8,-2,-3,0,-1,3,5
17:54:32:257022,8,7,-3,2,-7,1,0,0
17:54:32:262982,2,-5,-2,-9,-3,-1,0,3
17:54:32:271252,2,-5,-2,-9,-3,-1,0,3
17:54:32:271954,0,12,6,10,9,-3,3,13
17:54:32:285534,-2,1,4,17,7,0,-4,-12
17:54:32:293710,-2,1,4,17,7,0,-4,-12
17:54:32:294500,-8,2,-4,-13,-5,-3,-3,-10
17:54:32:300514,1,4,5,-6,-1,-1,3,13
17:54:32:307999,1,4,5,-6,-1,-1,3,13
17:54:32:315518,5,-3,0,1,-6,-3,1,12
17:54:32:322984,2,-10,-7,-5,1,8,-7,-6
17:54:32:331159,2,-10,-7,-5,1,8,-7,-6
17:54:32:331964,-2,-6,-9,-2,-11,0,-2,-23
17:54:32:345515,-5,4,0,23,6,2,0,0
17:54:32:353673,-5,4,0,23,6,2,0,0
17:54:32:354509,-3,-6,0,10,-1,-5,-1,1
17:54:32:360491,7,-3,2,-3,-3,-4,0,-3
17:54:32:368009,7,-3,2,-3,-3,-4,0,-3
17:54:32:375435,-1,2,12,1,-5,0,1,11
17:54:32:382942,4,2,2,17,2,0,-2,8
17:54:32:391209,4,2,2,17,2,0,-2,8
17:54:32:391994,1,-5,-2,-9,0,0,-7,-10
17:54:32:405503,0,-2,1,3,2,-2,-1,-1
17:54:32:413663,0,-2,1,3,2,-2,-1,-1
17:54:32:414509,-3,-1,0,-4,0,2,2,6
17:54:32:420457,10,35,4,7,8,5,9,16
17:54:32:428031,10,35,4,7,8,5,9,16
17:54:32:435497,5,16,-5,26,11,1,2,9
17:54:32:442970,-8,-18,-11,-14,-12,-8,-5,1
17:54:32:451190,-8,-18,-11,-14,-12,-8,-5,1
17:54:32:451961,-14,-14,-4,19,9,10,6,-2
17:54:32:465424,-4,7,2,2,12,-1,-2,-13
17:54:32:473697,-4,7,2,2,12,-1,-2,-13
17:54:32:474505,-4,-24,-2,-27,-11,-9,-11,-2
17:54:32:480540,-7,-10,-3,-4,-6,-3,-2,-9
17:54:32:488129,-7,-10,-3,-4,-6,-3,-2,-9
17:54:32:495528,3,6,-1,-1,-4,-2,6,5
17:54:32:502983,3,-8,-3,-7,-3,-3,-1,6
17:54:32:511212,3,-8,-3,-7,-3,-3,-1,6
17:54:32:512025,-17,-10,-5,-29,-12,-5,-3,-6
17:54:32:525535,-3,-12,-5,4,-11,-7,1,-4
17:54:32:533693,-3,-12,-5,4,-11,-7,1,-4
17:54:32:534504,8,12,2,5,9,3,-2,-7
17:54:32:540504,-10,7,-2,11,-2,-5,-8,-1
17:54:32:548066,-10,7,-2,11,-2,-5,-8,-1
17:54:32:555558,0,-1,-4,-25,-4,-4,-3,0
17:54:32:563084,9,-8,-6,-21,-9,2,4,-9
17:54:32:571204,9,-8,-6,-21,-9,2,4,-9
17:54:32:571983,0,-5,-7,-14,-11,-1,-4,-4
17:54:32:585526,10,-7,0,-2,-3,3,5,8
17:54:32:593658,10,-7,0,-2,-3,3,5,8
17:54:32:594507,2,0,-8,-12,0,-5,-6,-11
17:54:32:600535,2,17,11,-12,-2,-6,-2,-10
17:54:32:608034,2,17,11,-12,-2,-6,-2,-10
17:54:32:615444,2,18,7,18,-3,0,6,9
17:54:32:623041,4,-3,-6,-3,-3,1,-2,3
17:54:32:631175,4,-3,-6,-3,-3,1,-2,3
17:54:32:631953,3,9,11,2,-1,-1,0,4
17:54:32:645512,8,-23,3,12,3,1,3,12
17:54:32:653741,8,-23,3,12,3,1,3,12
17:54:32:654526,-4,-6,-3,3,8,0,-4,-7
17:54:32:660512,-11,-1,-4,-10,-4,-1,-9,-20
17:54:32:668015,-11,-1,-4,-10,-4,-1,-9,-20
17:54:32:675442,-6,-11,-7,2,2,-3,-2,1
17:54:32:682918,3,5,-7,-5,-1,-2,4,13
17:54:32:691198,3,5,-7,-5,-1,-2,4,13
17:54:32:691975,5,10,-2,-16,-4,2,3,4
17:54:32:705541,-13,-14,-9,-16,-2,-2,-4,-7
17:54:32:713684,-13,-14,-9,-16,-2,-2,-4,-7
17:54:32:714503,-5,2,-7,1,-1,-8,-9,-33
17:54:32:720516,2,8,8,5,6,14,0,0
17:54:32:728028,2,8,8,5,6,14,0,0
17:54:32:735516,0,-8,1,21,3,-1,6,8
17:54:32:743054,0,13,3,19,-1,-3,-3,-6
17:54:32:751219,0,13,3,19,-1,-3,-3,-6
17:54:32:751991,5,-9,3,35,3,3,1,10
17:54:32:765444,-12,-10,-6,-31,-5,-6,-1,-1
17:54:32:773763,-12,-10,-6,-31,-5,-6,-1,-1
17:54:32:774511,-2,0,4,-16,-7,-7,-1,0
17:54:32:780563,-4,12,-6,-6,-6,-3,3,7
17:54:32:788053,-4,12,-6,-6,-6,-3,3,7
17:54:32:795522,4,12,-2,-12,1,-1,-1,8
17:54:32:802951,-7,-26,3,13,7,-1,-9,-7
17:54:32:811147,-7,-26,3,13,7,-1,-9,-7
17:54:32:812033,-6,3,2,21,0,3,1,9
17:54:32:825530,-2,1,-8,15,-1,0,4,-13
17:54:32:833711,-2,1,-8,15,-1,0,4,-13
17:54:32:834505,0,2,4,3,-6,-2,-3,3
17:54:32:840520,-5,-28,-2,13,4,0,0,-4
17:54:32:847986,-5,-28,-2,13,4,0,0,-4
17:54:32:855525,12,-1,0,-4,-5,-1,7,12
17:54:32:863039,-6,4,-1,6,-6,5,1,8
17:54:32:871199,-6,4,-1,6,-6,5,1,8
17:54:32:871956,-5,1,2,18,8,3,-1,-9
17:54:32:885532,2,11,5,-6,-2,0,-8,-5
17:54:32:893630,2,11,5,-6,-2,0,-8,-5
17:54:32:894509,-1,5,-3,-8,-1,-2,-5,-5
17:54:32:900535,-7,23,8,-10,-5,-5,4,12
17:54:32:907991,-7,23,8,-10,-5,-5,4,12
17:54:32:915585,1,5,-5,-16,1,1,-3,-5
17:54:32:923042,10,-1,4,19,7,3,-1,-2
17:54:32:931174,10,-1,4,19,7,3,-1,-2
17:54:32:931961,-16,-5,-2,10,-4,-4,-2,-22
17:54:32:945544,-4,9,-4,-9,5,-4,1,-1
17:54:32:953655,-4,9,-4,-9,5,-4,1,-1
17:54:32:954515,2,-19,-7,-11,-1,3,-8,6
17:54:32:960447,6,12,-2,-9,-2,-5,0,2
17:54:32:968021,6,12,-2,-9,-2,-5,0,2
17:54:32:975442,-1,2,4,-8,-8,2,1,6
17:54:32:982943,2,-13,-10,-11,-9,-3,-1,-3
17:54:32:991226,2,-13,-10,-11,-9,-3,-1,-3
17:54:32:992009,4,3,2,8,7,-1,-1,-10
17:54:33:5448,8,-7,-3,2,6,1,1,4
17:54:33:13669,8,-7,-3,2,6,1,1,4
17:54:33:14508,2,-10,-9,-21,-3,-4,2,5
17:54:33:20441,-20,-6,0,7,1,-1,-1,-7
17:54:33:28033,-20,-6,0,7,1,-1,-1,-7
17:54:33:35512,-7,-16,-7,-9,-4,-6,1,1
17:54:33:42969,-17,-13,-3,-4,-6,-6,-2,4
17:54:33:51201,-17,-13,-3,-4,-6,-6,-2,4
17:54:33:51978,-2,-11,-8,-23,-6,-1,2,-6
17:54:33:65523,4,-18,2,-6,-1,0,-4,-2
17:54:33:73764,4,-18,2,-6,-1,0,-4,-2
17:54:33:74518,7,5,5,4,-1,0,-4,2
17:54:33:80650,2,10,7,8,-1,-5,5,6
17:54:33:88036,2,10,7,8,-1,-5,5,6
17:54:33:95523,0,-8,-1,-4,-10,-3,-4,-11
17:54:33:102965,3,8,-5,-15,-5,4,3,15
