Time,EMG1,EMG2,EMG3,EMG4,EMG5,EMG6,EMG7,EMG8
13:22:46:91325,0,3,1,-4,-2,-1,-2,-2
13:22:46:98829,-1,-2,-4,-1,-2,1,0,-2
13:22:46:106140,-2,0,-3,-2,0,1,-1,0
13:22:46:114914,-2,0,-3,-2,0,1,-1,0
13:22:46:121306,-2,1,-1,0,-1,-1,-2,0
13:22:46:128780,1,-3,-2,0,-1,0,-2,0
13:22:46:137018,1,-3,-2,0,-1,0,-2,0
13:22:46:137825,-6,31,5,-1,1,-1,1,0
13:22:46:143756,1,-2,-2,0,-1,-1,-1,1
13:22:46:151253,1,-2,-2,0,-1,-1,-1,1
13:22:46:158810,0,-8,-3,-3,-1,-1,0,0
13:22:46:175172,-1,5,2,-1,4,3,1,-1
13:22:46:175892,-1,5,2,-1,4,3,1,-1
13:22:46:176791,-1,-3,-1,1,-1,1,-1,-4
13:22:46:188772,0,-9,-4,-2,1,2,-2,-1
13:22:46:205158,0,-9,-4,-2,1,2,-2,-1
13:22:46:205887,0,-8,-2,0,1,-4,-2,-2
13:22:46:206750,-1,-1,-1,-3,-1,-3,-1,-2
13:22:46:211269,-1,-1,-1,-3,-1,-3,-1,-2
13:22:46:218774,-1,-4,-2,-1,-4,-1,0,-1
13:22:46:226277,2,-2,-3,-1,0,-2,0,0
13:22:46:234389,2,-2,-3,-1,0,-2,0,0
13:22:46:235249,-3,-4,-2,-1,-2,-2,-2,-3
13:22:46:248776,-1,0,-2,-1,-3,0,1,-3
13:22:46:265151,-1,0,-2,-1,-3,0,1,-3
13:22:46:265895,1,-2,-2,-4,-1,-2,-2,-1
13:22:46:266767,-2,-4,0,-1,-2,-3,-1,-3
13:22:46:271264,-2,-4,0,-1,-2,-3,-1,-3
13:22:46:286890,-1,3,-3,-2,-2,1,-3,0
13:22:46:287751,-3,-4,0,-1,-3,-2,1,-3
13:22:46:294450,-3,-4,0,-1,-3,-2,1,-3
13:22:46:295367,0,-1,3,0,-1,0,2,0
13:22:46:308782,5,4,-1,0,-2,-1,-2,0
13:22:46:317005,5,4,-1,0,-2,-1,-2,0
13:22:46:317770,1,-1,-3,1,1,-1,-3,-2
13:22:46:323756,-2,30,4,-2,0,-1,-2,0
13:22:46:331306,-2,30,4,-2,0,-1,-2,0
13:22:46:346915,0,0,0,0,-3,-2,-2,0
13:22:46:347782,-2,-11,-4,-4,-1,-2,0,0
13:22:46:354515,-2,-11,-4,-4,-1,-2,0,0
13:22:46:355272,-2,1,-2,-4,-2,-1,-2,-2
13:22:46:368773,-1,-4,-1,-2,0,1,-1,1
13:22:46:376791,-1,-4,-1,-2,0,1,-1,1
13:22:46:384414,0,-6,-4,-3,-2,3,-3,-2
13:22:46:385290,-1,-6,-2,0,2,0,-1,0
13:22:46:391294,-1,-6,-2,0,2,0,-1,0
13:22:46:398774,5,-7,-5,-2,2,-1,0,0
13:22:46:406261,-2,-5,-2,1,-2,-2,0,-2
13:22:46:414394,-2,-5,-2,1,-2,-2,0,-2
13:22:46:415290,1,-1,0,1,-1,-2,2,3
13:22:46:428786,0,-3,-1,-2,0,-2,0,-1
13:22:46:436907,0,-3,-1,-2,0,-2,0,-1
13:22:46:437799,-2,-6,1,2,-1,-2,-2,0
13:22:46:443808,0,3,0,-1,0,-3,-3,0
13:22:46:451251,0,3,0,-1,0,-3,-3,0
13:22:46:458677,-2,4,2,-4,3,-2,-1,1
13:22:46:466291,0,-3,0,-1,-3,1,0,-1
13:22:46:481925,0,-3,0,-1,-3,1,0,-1
13:22:46:482773,-5,-3,-4,-3,-1,2,-3,-2
13:22:46:488771,-2,-8,-3,1,1,0,-1,-2
13:22:46:496895,-2,-8,-3,1,1,0,-1,-2
13:22:46:497770,-3,-7,-4,1,4,1,-1,-3
13:22:46:503776,-4,-16,-2,-2,-1,1,-2,-4
13:22:46:511285,-4,-16,-2,-2,-1,1,-2,-4
13:22:46:518768,0,0,1,-3,-1,-2,-2,0
13:22:46:542695,-2,0,-3,0,1,-4,-3,-1
13:22:46:543400,-2,0,-3,0,1,-4,-3,-1
13:22:46:544274,-4,-10,-1,-3,-2,1,1,-4
13:22:46:548772,0,4,2,0,-3,-1,0,0
13:22:46:556897,0,4,2,0,-3,-1,0,0
13:22:46:557761,-4,3,-1,3,-1,-2,0,-1
13:22:46:563780,-1,0,0,-2,0,0,-1,-2
13:22:46:571266,-1,0,0,-2,0,0,-1,-2
13:22:46:578632,-1,-2,2,0,0,2,0,0
13:22:46:586256,2,2,1,-1,5,1,1,-1
13:22:46:594411,2,2,1,-1,5,1,1,-1
13:22:46:595290,2,5,1,0,-3,0,-1,-2
13:22:46:608795,-1,-6,-2,3,-2,-1,-3,-1
13:22:46:625182,-1,-6,-2,3,-2,-1,-3,-1
13:22:46:625905,2,6,-2,0,0,1,-2,-2
13:22:46:626770,-2,-2,1,-4,-2,1,1,1
13:22:46:631267,-2,-2,1,-4,-2,1,1,1
13:22:46:638788,-12,-5,1,3,0,-2,-2,-2
13:22:46:646284,-1,6,-3,-4,1,0,1,-1
13:22:46:662022,-1,6,-3,-4,1,0,1,-1
13:22:46:662761,3,-1,0,-2,-2,-3,0,1
13:22:46:677661,-7,-5,0,-1,1,-2,-3,-1
13:22:46:678442,-7,-5,0,-1,1,-2,-3,-1
13:22:46:679275,-2,-5,1,0,-3,-3,-2,0
13:22:46:683770,4,3,-2,2,-1,1,-1,-1
13:22:46:691303,4,3,-2,2,-1,1,-1,-1
13:22:46:698793,4,6,-2,-1,-1,-2,-2,0
13:22:46:706299,-2,-2,-2,1,-5,-2,-1,-1
13:22:46:714388,-2,-2,-2,1,-5,-2,-1,-1
13:22:46:715264,-5,4,1,0,2,-3,2,-2
13:22:46:728785,-2,-7,-3,-3,0,1,-2,-4
13:22:46:737022,-2,-7,-3,-3,0,1,-2,-4
13:22:46:737782,0,-23,-5,-4,3,2,-2,-2
13:22:46:743777,-1,1,-2,-2,0,-3,-3,0
13:22:46:759557,-1,1,-2,-2,0,-3,-3,0
13:22:46:760272,-2,0,-1,0,2,-1,-2,-3
13:22:46:766275,-1,5,3,0,3,-2,1,2
13:22:46:774579,-1,5,3,0,3,-2,1,2
13:22:46:775267,-6,7,0,0,-3,0,-1,1
13:22:46:788800,-1,-3,-1,-1,-3,-3,1,-2
13:22:46:797005,-1,-3,-1,-1,-3,-3,1,-2
13:22:46:797787,3,2,0,0,2,0,3,0
13:22:46:803779,0,-1,-1,-1,-4,2,-2,0
13:22:46:819410,0,-1,-1,-1,-4,2,-2,0
13:22:46:820281,2,0,-1,-2,-4,0,-3,0
13:22:46:826279,1,2,-4,-1,-1,1,-1,-3
13:22:46:834911,1,2,-4,-1,-1,1,-1,-3
13:22:46:841328,0,6,-3,-2,0,-1,-3,-1
13:22:46:848797,-1,1,-2,2,0,-1,1,-3
13:22:46:857041,-1,1,-2,2,0,-1,1,-3
13:22:46:857763,-1,-7,-2,-5,-1,1,-2,-1
13:22:46:863786,-3,-3,-1,-1,-2,0,-1,0
13:22:46:871271,-3,-3,-1,-1,-2,0,-1,0
13:22:46:878783,-1,0,-4,-3,-2,1,1,-1
13:22:46:886268,0,6,-1,1,0,0,0,0
13:22:46:894410,0,6,-1,1,0,0,0,0
13:22:46:895282,-2,4,-2,0,-1,-1,-1,0
13:22:46:908775,-3,-25,-5,-2,3,0,-1,-1
13:22:46:916885,-3,-25,-5,-2,3,0,-1,-1
13:22:46:917785,2,2,1,1,-1,-1,-2,1
13:22:46:931667,1,3,-1,1,-1,-1,0,0
13:22:46:939417,1,3,-1,1,-1,-1,0,0
13:22:46:940277,-1,3,-2,-3,3,0,-1,-1
13:22:46:955151,-4,-3,-2,-2,-1,1,0,0
13:22:46:955881,-4,-3,-2,-2,-1,1,0,0
13:22:46:956783,4,4,-1,-2,-1,-2,-1,0
13:22:46:968783,0,6,-1,-1,2,-1,-1,-2
13:22:46:984409,0,6,-1,-1,2,-1,-1,-2
13:22:46:985280,0,-4,1,3,-1,-1,-1,-1
13:22:46:991908,-3,-10,-1,-5,0,0,-2,-2
13:22:46:992805,-3,-10,-1,-5,0,0,-2,-2
13:22:46:998754,-1,-6,-1,-2,-1,-1,1,-1
13:22:47:6282,2,1,-1,-2,1,-2,-2,-1
13:22:47:13768,2,1,-1,-2,1,-2,-2,-1
13:22:47:21323,-3,-7,-4,-1,-1,0,0,-3
13:22:47:37693,1,-4,-3,0,1,0,-4,-1
13:22:47:38415,1,-4,-3,0,1,0,-4,-1
13:22:47:39292,-1,-1,1,0,-4,-1,-1,-1
13:22:47:51900,-3,-1,0,-1,-1,-1,0,-1
13:22:47:52771,-3,-1,0,-1,-1,-1,0,-1
13:22:47:66918,-2,-1,-1,-1,-3,-1,0,-2
13:22:47:67749,-1,0,2,1,-3,-3,-2,-2
13:22:47:73801,-1,0,2,1,-3,-3,-2,-2
13:22:47:81301,1,-3,-1,-2,0,-3,-2,-2
13:22:47:97649,5,3,0,-1,-2,1,2,-1
13:22:47:98389,5,3,0,-1,-2,1,2,-1
13:22:47:99146,-1,-3,0,-1,-2,-1,-3,-1
13:22:47:111929,-3,1,0,-1,-2,-1,0,-1
13:22:47:112768,-3,1,0,-1,-2,-1,0,-1
13:22:47:118819,0,3,-1,-4,1,2,-1,1
13:22:47:126295,-2,0,-3,-1,-1,0,-3,-3
13:22:47:133775,-2,0,-3,-1,-1,0,-3,-3
13:22:47:149434,-3,-4,-3,0,-2,0,-2,-2
13:22:47:150265,-1,3,-1,-1,0,-2,0,-1
13:22:47:156812,-1,3,-1,-1,0,-2,0,-1
13:22:47:163758,1,-4,0,0,-1,-2,0,-1
13:22:47:180152,-4,0,1,-1,-1,-1,1,0
13:22:47:180894,-4,0,1,-1,-1,-1,1,0
13:22:47:181779,-3,-3,-3,3,2,-1,-1,-2
13:22:47:186274,-5,-5,0,0,-2,-1,-1,-1
13:22:47:193782,-5,-5,0,0,-2,-1,-1,-1
13:22:47:201277,-1,-1,-2,-2,-1,0,-2,-1
13:22:47:217665,1,-5,-2,-1,0,2,1,-1
13:22:47:218385,1,-5,-2,-1,0,2,1,-1
13:22:47:219280,-1,0,-1,-2,1,1,-1,1
13:22:47:232397,-2,0,-2,0,-1,-4,-1,0
13:22:47:233272,-2,0,-2,0,-1,-4,-1,0
13:22:47:238792,-3,-2,0,0,-3,-1,-1,-4
13:22:47:246277,2,-1,-2,-2,1,0,-1,0
13:22:47:253785,2,-1,-2,-2,1,0,-1,0
13:22:47:261303,-9,-3,-2,-1,0,-3,1,-1
13:22:47:268770,-2,1,-3,-2,-1,0,-3,-1
13:22:47:276932,-2,1,-3,-2,-1,0,-3,-1
13:22:47:277773,1,4,1,-1,-1,3,1,-3
13:22:47:291910,-2,1,-1,-2,-3,-4,-2,0
13:22:47:292783,-2,1,-1,-2,-3,-4,-2,0
13:22:47:298761,2,-2,-2,-3,0,-1,1,-1
13:22:47:314404,2,0,-2,-1,1,0,-4,-2
13:22:47:315270,2,0,-2,-1,1,0,-4,-2
13:22:47:321279,-2,3,-1,-3,1,-2,-2,0
13:22:47:328781,0,0,1,0,0,2,1,-1
13:22:47:344414,0,0,1,0,0,2,1,-1
13:22:47:345291,0,-4,-2,-3,-1,0,-2,-1
13:22:47:351902,-3,-2,0,-1,2,-3,-1,-2
13:22:47:352790,-3,-2,0,-1,2,-3,-1,-2
13:22:47:358793,2,14,2,-1,-1,1,-2,-2
13:22:47:374406,6,-5,-1,1,1,-4,1,0
13:22:47:375277,6,-5,-1,1,1,-4,1,0
13:22:47:381307,0,-5,-2,-2,-2,0,-1,1
13:22:47:388771,-3,-5,-3,0,-2,1,-1,0
13:22:47:396905,-3,-5,-3,0,-2,1,-1,0
13:22:47:397767,1,-4,-3,1,-1,-2,1,2
13:22:47:411944,1,3,2,-2,0,1,1,-1
13:22:47:412770,1,3,2,-2,0,1,1,-1
13:22:47:426915,-1,-6,-2,-2,1,-1,-1,-2
13:22:47:427777,-1,4,-1,-2,1,-2,-2,-3
13:22:47:433806,-1,4,-1,-2,1,-2,-2,-3
13:22:47:441306,3,8,5,0,-1,-2,-3,1
13:22:47:457719,-3,-4,-1,-4,1,0,-1,0
13:22:47:458422,-3,-4,-1,-4,1,0,-1,0
13:22:47:459147,-1,-3,-3,0,0,-2,-1,-2
13:22:47:471908,-5,-14,0,-1,-5,0,-2,-1
13:22:47:472769,-5,-14,0,-1,-5,0,-2,-1
13:22:47:478799,-4,-11,-1,-2,0,-1,-1,-3
13:22:47:486291,-2,1,3,0,-2,-1,1,0
13:22:47:493806,-2,1,3,0,-2,-1,1,0
13:22:47:509440,0,-3,-2,0,-1,-3,1,0
13:22:47:510156,-1,-3,-5,-1,-1,-1,-2,-3
13:22:47:516915,-1,-3,-5,-1,-1,-1,-2,-3
13:22:47:517773,0,2,-2,-3,0,0,-2,-1
13:22:47:540062,-3,8,-1,-1,0,-2,-1,-1
13:22:47:540922,-3,8,-1,-1,0,-2,-1,-1
13:22:47:541789,-1,-3,-3,0,3,1,-2,-1
13:22:47:546292,-1,-5,-1,-1,2,-2,-2,-2
13:22:47:553822,-1,-5,-1,-1,2,-2,-2,-2
13:22:47:561290,-4,-5,-3,0,-4,-3,-1,-2
13:22:47:568807,3,4,0,0,0,-1,0,-1
13:22:47:577075,3,4,0,0,0,-1,0,-1
13:22:47:577842,0,4,-3,0,-1,-2,1,0
13:22:47:592405,-1,1,1,-2,-1,-1,-1,-1
13:22:47:593281,-1,1,1,-2,-1,-1,-1,-1
13:22:47:598779,-1,-6,0,-2,0,0,-2,-4
13:22:47:606289,-1,0,-1,-4,-2,0,-2,0
13:22:47:621931,-1,0,-1,-4,-2,0,-2,0
13:22:47:622787,1,4,0,1,-2,-1,1,-1
13:22:47:628767,-2,1,-5,-1,1,-2,0,-1
13:22:47:637680,-2,1,-5,-1,1,-2,0,-1
13:22:47:638424,-1,0,-1,-4,2,1,-1,-1
13:22:47:651886,-2,-3,-2,-1,1,0,-1,-2
13:22:47:652769,-2,-3,-2,-1,1,0,-1,-2
13:22:47:658783,-1,0,-1,0,0,-1,-2,0
13:22:47:666268,-2,-3,-2,0,1,-2,-3,-2
13:22:47:673842,-2,-3,-2,0,1,-2,-3,-2
13:22:47:681321,0,-2,1,0,-1,-1,-3,-1
13:22:47:688772,0,0,3,-1,-2,0,0,0
13:22:47:704411,0,0,3,-1,-2,0,0,0
13:22:47:705314,0,0,1,-2,-3,-4,0,1
13:22:47:711925,-3,0,-4,1,-3,0,-3,-1
13:22:47:712780,-3,0,-4,1,-3,0,-3,-1
13:22:47:718815,-1,0,-2,-2,0,0,-2,0
13:22:47:726307,0,-3,0,-2,-4,1,0,-2
13:22:47:733783,0,-3,0,-2,-4,1,0,-2
13:22:47:741292,-4,-8,-2,0,0,0,-2,-1
13:22:47:748776,0,-4,-6,0,-1,0,0,-1
13:22:47:756297,0,-4,-6,0,-1,0,0,-1
13:22:47:763648,0,-1,-2,1,-1,0,0,-1
13:22:47:771271,0,2,1,0,1,2,-2,-3
13:22:47:780176,0,2,1,0,1,2,-2,-3
13:22:47:780915,0,1,0,0,-3,-2,-2,-3
13:22:47:786258,-3,-1,-1,1,2,0,1,-1
13:22:47:793804,-3,-1,-1,1,2,0,1,-1
13:22:47:801303,2,3,-3,-2,-3,-2,1,0
13:22:47:817677,0,-1,2,5,-1,-1,1,-2
13:22:47:818413,0,-1,2,5,-1,-1,1,-2
13:22:47:819282,1,3,2,1,-1,0,-2,0
13:22:47:831310,-4,-18,-8,-5,-3,-3,-3,-2
13:22:47:839448,-4,-18,-8,-5,-3,-3,-3,-2
13:22:47:840298,0,1,-1,-4,1,-2,-2,-2
13:22:47:846180,1,-6,11,5,1,-4,-2,-1
13:22:47:853790,1,-6,11,5,1,-4,-2,-1
13:22:47:869425,1,4,-1,2,2,-2,-1,1
13:22:47:870260,0,5,1,0,-5,-3,-1,-1
13:22:47:876941,0,5,1,0,-5,-3,-1,-1
13:22:47:877767,-2,-7,0,-2,-2,1,1,0
13:22:47:900165,-6,-15,-1,-1,3,2,-2,-1
13:22:47:900929,-6,-15,-1,-1,3,2,-2,-1
13:22:47:901801,-2,0,4,-1,-1,-3,1,-1
13:22:47:906325,0,5,-5,-6,-3,-1,1,-1
13:22:47:913782,0,5,-5,-6,-3,-1,1,-1
13:22:47:921281,-3,-6,-3,-2,1,-2,-3,-2
13:22:47:928782,47,1,-3,0,-2,1,0,0
13:22:47:936308,47,1,-3,0,-2,1,0,0
13:22:47:943832,30,-1,-3,4,5,1,-2,0
13:22:47:951282,-67,10,0,2,-1,-6,0,-3
13:22:47:959423,-67,10,0,2,-1,-6,0,-3
13:22:47:960298,-33,-2,1,-2,2,-2,-1,0
13:22:47:982678,-24,0,-7,-5,-1,-2,-2,1
13:22:47:983405,-24,0,-7,-5,-1,-2,-2,1
13:22:47:984266,-12,-2,1,-1,-3,0,0,-2
13:22:47:988802,8,2,-3,1,1,2,-2,-1
13:22:47:996289,8,2,-3,1,1,2,-2,-1
13:22:48:11979,-12,0,-1,-2,2,0,-3,-1
13:22:48:12666,39,-4,-3,-1,-1,2,-1,-1
13:22:48:19392,39,-4,-3,-1,-1,2,-1,-1
13:22:48:20276,31,-4,-5,1,-7,-2,2,-3
13:22:48:34401,0,0,2,-3,-1,-1,1,-2
13:22:48:35290,0,0,2,-3,-1,-1,1,-2
13:22:48:41317,-8,-3,-9,-8,0,0,-1,-1
13:22:48:48792,-8,5,3,0,1,-2,1,0
13:22:48:65162,-8,5,3,0,1,-2,1,0
13:22:48:65923,-5,-2,1,0,1,1,-4,-1
13:22:48:71281,-1,-5,-1,2,4,1,-3,-3
13:22:48:79394,-1,-5,-1,2,4,1,-3,-3
13:22:48:80268,0,3,0,0,1,1,1,-1
13:22:48:94428,2,1,-1,-8,-8,-3,-1,-1
13:22:48:95292,2,1,-1,-8,-8,-3,-1,-1
13:22:48:101286,-3,4,9,-1,-1,-3,-2,-1
13:22:48:116898,-1,2,-3,-5,-1,-2,0,0
13:22:48:117777,-1,2,-3,-5,-1,-2,0,0
13:22:48:123678,1,1,5,-1,2,3,-1,-1
13:22:48:131168,-1,-4,-6,-1,-2,-3,-4,-1
13:22:48:146919,-1,-4,-6,-1,-2,-3,-4,-1
13:22:48:147792,0,-8,-17,-1,-1,1,0,1
13:22:48:154453,-4,-6,-3,-10,-1,0,-1,0
13:22:48:155287,-4,-6,-3,-10,-1,0,-1,0
13:22:48:161310,-2,5,25,5,-2,-2,2,2
13:22:48:168660,-4,-10,4,7,2,-3,-5,-8
13:22:48:176274,-4,-10,4,7,2,-3,-5,-8
13:22:48:183782,-5,-11,7,-5,-3,-3,0,-2
13:22:48:191318,2,5,13,2,2,0,2,20
13:22:48:199399,2,5,13,2,2,0,2,20
13:22:48:200270,-4,-3,-2,-5,1,-2,-1,-10
13:22:48:214395,1,-5,-2,-4,0,1,2,14
13:22:48:215260,1,-5,-2,-4,0,1,2,14
13:22:48:229436,5,0,-24,-6,2,0,-1,6
13:22:48:230146,-5,0,0,0,-4,2,-2,-15
13:22:48:236284,-5,0,0,0,-4,2,-2,-15
13:22:48:243671,-4,-5,-21,-2,1,0,-1,-7
13:22:48:260040,3,4,-5,5,2,-1,0,4
13:22:48:260931,3,4,-5,5,2,-1,0,4
13:22:48:261670,-2,2,23,0,-1,-3,1,7
13:22:48:274426,-6,-4,9,-2,-1,-3,-3,-19
13:22:48:275295,-6,-4,9,-2,-1,-3,-3,-19
13:22:48:281150,-4,-3,-12,2,-1,-2,-2,-3
13:22:48:288779,2,-1,-5,-3,0,0,-2,4
13:22:48:296271,2,-1,-5,-3,0,0,-2,4
13:22:48:311979,0,0,2,0,-4,-1,3,0
13:22:48:312793,2,5,0,0,1,0,-1,-1
13:22:48:319414,2,5,0,0,1,0,-1,-1
13:22:48:320304,3,2,6,0,-1,0,-1,-4
13:22:48:334424,-1,-1,-6,-10,-4,-4,-1,-6
13:22:48:335272,-1,-1,-6,-10,-4,-4,-1,-6
13:22:48:341313,-1,6,-1,0,0,0,-3,-1
13:22:48:348805,-6,-10,-19,-3,-3,0,-2,-2
13:22:48:364419,-6,-10,-19,-3,-3,0,-2,-2
13:22:48:365310,0,-2,-6,1,-1,-4,0,-2
13:22:48:371311,1,2,3,2,1,-1,-1,-3
13:22:48:379442,1,2,3,2,1,-1,-1,-3
13:22:48:380293,-1,-2,-3,-2,-1,1,-3,-4
13:22:48:403045,-2,0,0,2,1,-1,-1,-2
13:22:48:403918,-2,0,0,2,1,-1,-1,-2
13:22:48:404659,-2,-2,-3,-2,-1,0,-2,1
13:22:48:408802,1,-2,7,2,2,1,0,-1
13:22:48:416282,1,-2,7,2,2,1,0,-1
13:22:48:423843,-3,-2,-10,-7,0,1,-5,-2
13:22:48:431303,1,-1,-2,2,-1,-2,-1,-3
13:22:48:439529,1,-1,-2,2,-1,-2,-1,-3
13:22:48:440294,1,-1,3,0,-2,0,2,-1
13:22:48:454427,1,4,-1,-4,0,-1,-1,-1
13:22:48:455292,1,4,-1,-4,0,-1,-1,-1
13:22:48:461352,0,-2,-2,1,-2,-1,-1,0
13:22:48:468786,1,3,1,2,-2,-2,0,1
13:22:48:484411,1,3,1,2,-2,-2,0,1
13:22:48:485306,-1,-5,3,0,-1,-1,-1,-2
13:22:48:491291,-1,-10,-15,-3,-2,1,-2,-1
13:22:48:506952,-1,-10,-15,-3,-2,1,-2,-1
13:22:48:507799,-6,-6,-13,-3,1,0,0,-2
13:22:48:514414,-1,4,4,1,-1,1,1,-1
13:22:48:515279,-1,4,4,1,-1,1,1,-1
13:22:48:521291,-1,-1,-4,0,-2,-2,-3,0
13:22:48:528791,-2,0,5,1,-1,-2,-1,5
13:22:48:536300,-2,0,5,1,-1,-2,-1,5
13:22:48:543806,1,2,4,2,2,-1,0,-1
13:22:48:551296,1,1,0,-2,0,0,-3,-2
13:22:48:559475,1,1,0,-2,0,0,-3,-2
13:22:48:560282,0,-1,10,0,-1,0,-4,-2
13:22:48:574440,-1,-3,-14,-2,1,-2,-1,-2
13:22:48:575281,-1,-3,-14,-2,1,-2,-1,-2
13:22:48:581310,0,-2,-3,-1,0,1,-3,0
13:22:48:588796,-1,1,2,3,0,0,0,-3
13:22:48:596287,-1,1,2,3,0,0,0,-3
13:22:48:603800,0,-4,-1,0,0,-2,0,2
13:22:48:611293,-1,-6,-4,-3,-2,-2,-1,-2
13:22:48:619465,-1,-6,-4,-3,-2,-2,-1,-2
13:22:48:620285,-2,4,3,-2,-4,-4,1,-2
13:22:48:634445,-2,-3,7,1,0,-1,1,-2
13:22:48:635301,-2,-3,7,1,0,-1,1,-2
13:22:48:641305,-1,0,-7,-6,0,-2,0,-1
13:22:48:648793,0,-7,-5,1,0,1,2,1
13:22:48:664413,0,-7,-5,1,0,1,2,1
13:22:48:665289,-3,0,-3,1,0,1,0,-2
13:22:48:671320,-1,0,-22,-8,-3,-1,-2,-2
13:22:48:679442,-1,0,-22,-8,-3,-1,-2,-2
13:22:48:680281,1,2,-5,0,-1,-1,2,0
13:22:48:694413,-3,3,9,0,-1,0,-1,-3
13:22:48:695272,-3,3,9,0,-1,0,-1,-3
13:22:48:701310,0,-4,-1,-2,3,0,0,-2
13:22:48:708811,-3,0,2,-4,-4,1,-2,-2
13:22:48:716284,-3,0,2,-4,-4,1,-2,-2
13:22:48:723817,-2,0,6,2,0,0,-2,-2
13:22:48:731293,0,-5,3,-1,-2,0,-3,-1
13:22:48:746915,0,-5,3,-1,-2,0,-3,-1
13:22:48:747777,-3,-6,-7,-3,-2,-2,-4,-4
13:22:48:754406,1,6,11,4,3,0,-1,-1
13:22:48:755286,1,6,11,4,3,0,-1,-1
13:22:48:761321,-2,-5,-27,-7,-1,1,-2,-3
13:22:48:768788,1,4,2,3,-1,-2,0,0
13:22:48:776343,1,4,2,3,-1,-2,0,0
13:22:48:783678,-1,-5,-5,0,3,1,-1,-1
13:22:48:800057,-2,-5,0,4,1,0,-1,0
13:22:48:800903,-2,-5,0,4,1,0,-1,0
13:22:48:801668,-1,1,5,7,-7,-2,0,0
13:22:48:814427,1,1,-3,-3,0,-3,0,0
13:22:48:815277,1,1,-3,-3,0,-3,0,0
13:22:48:821330,-2,-6,-8,-5,-1,-4,-1,2
13:22:48:828792,1,4,3,-1,2,-4,1,1
13:22:48:836283,1,4,3,-1,2,-4,1,1
13:22:48:843802,-6,-2,-24,-8,-1,-1,-2,-4
13:22:48:860180,-1,0,1,-3,1,2,-2,-3
13:22:48:860914,-1,0,1,-3,1,2,-2,-3
13:22:48:861834,1,-4,21,-7,-2,-4,-2,-1
13:22:48:874410,3,9,-1,-1,0,3,-3,1
13:22:48:875303,3,9,-1,-1,0,3,-3,1
13:22:48:881297,5,4,13,1,0,1,2,2
13:22:48:896969,-10,-16,-6,-1,-1,-2,-5,-1
13:22:48:897829,-10,-16,-6,-1,-1,-2,-5,-1
13:22:48:903846,4,17,6,1,-2,2,-3,2
13:22:48:911299,-6,3,-16,-3,-3,-2,-2,-1
13:22:48:918790,-6,3,-16,-3,-3,-2,-2,-1
13:22:48:926323,-1,19,16,5,0,-3,6,2
13:22:48:934451,-5,-13,-5,0,0,2,-3,-2
13:22:48:935286,-5,-13,-5,0,0,2,-3,-2
13:22:48:941285,-1,-16,-7,-4,4,5,-3,-3
13:22:48:956919,1,10,6,-5,-2,-5,-4,-17
13:22:48:957792,1,10,6,-5,-2,-5,-4,-17
13:22:48:963773,-4,-21,3,3,2,0,-1,-1
13:22:48:971349,-8,-41,-5,-2,0,0,1,19
13:22:48:978793,-8,-41,-5,-2,0,0,1,19
13:22:48:986294,8,-71,-18,-4,5,-1,-6,8
13:22:48:994422,11,26,10,4,1,5,4,-12
13:22:48:995275,11,26,10,4,1,5,4,-12
13:22:49:1287,-5,27,12,6,-1,2,0,-10
13:22:49:16928,-8,-31,-12,-9,-10,-5,-7,5
13:22:49:17794,-8,-31,-12,-9,-10,-5,-7,5
13:22:49:23794,1,38,11,4,-5,-11,1,-5
13:22:49:31294,6,43,2,-2,-4,-2,1,-2
13:22:49:38798,6,43,2,-2,-4,-2,1,-2
13:22:49:46305,-13,-24,2,-1,-1,-1,-4,5
13:22:49:63049,2,2,6,2,2,12,6,17
13:22:49:63789,2,2,6,2,2,12,6,17
13:22:49:68779,1,2,3,3,-6,1,0,1
13:22:49:76954,-10,0,2,-6,-4,-8,-3,-22
13:22:49:77791,-10,0,2,-6,-4,-8,-3,-22
13:22:49:83669,-7,9,-13,0,5,2,0,-26
13:22:49:91258,15,-2,-5,-2,-6,1,2,4
13:22:49:98808,15,-2,-5,-2,-6,1,2,4
13:22:49:106219,-9,-10,-3,-3,2,-1,-1,18
13:22:49:114411,16,26,-2,3,6,-4,-7,-59
13:22:49:115297,16,26,-2,3,6,-4,-7,-59
13:22:49:121327,-1,37,3,-8,-10,-3,1,12
13:22:49:137684,12,-32,-5,-1,9,2,3,55
13:22:49:138417,12,-32,-5,-1,9,2,3,55
13:22:49:143703,19,-25,-8,0,4,5,-5,-44
13:22:49:151152,-89,-15,0,0,-2,-4,-7,-21
13:22:49:158851,-89,-15,0,0,-2,-4,-7,-21
13:22:49:166299,38,-11,-2,-4,-3,6,-9,0
13:22:49:174485,12,-56,-14,1,5,-1,-16,-27
13:22:49:175312,12,-56,-14,1,5,-1,-16,-27
13:22:49:181298,11,-3,4,1,-3,-14,6,28
13:22:49:196903,-1,10,-6,-6,-6,-7,-2,-11
13:22:49:197783,-1,10,-6,-6,-6,-7,-2,-11
13:22:49:203793,17,20,0,-3,-4,2,2,13
13:22:49:211308,-7,8,-4,-2,3,5,-1,16
13:22:49:218800,-7,8,-4,-2,3,5,-1,16
13:22:49:226343,-5,-5,3,3,0,-2,4,4
13:22:49:234419,-5,-5,3,3,0,-2,4,4
13:22:49:235169,-14,38,12,-1,0,5,5,9
13:22:49:241327,-13,-35,0,1,5,1,-5,-8
13:22:49:256926,-13,-35,0,1,5,1,-5,-8
13:22:49:257833,14,0,-2,-5,-2,-5,6,22
13:22:49:263789,-20,-1,-6,-3,3,0,-7,-18
13:22:49:279426,-20,-1,-6,-3,3,0,-7,-18
13:22:49:280298,24,1,3,-1,-2,-1,5,14
13:22:49:286313,-11,3,-1,1,0,1,0,-5
13:22:49:294420,-11,3,-1,1,0,1,0,-5
13:22:49:295314,3,-4,-1,1,1,-1,-3,-6
13:22:49:301288,-7,15,-1,-1,-3,1,2,2
13:22:49:316934,-7,15,-1,-1,-3,1,2,2
13:22:49:317796,-2,-4,-9,-1,-2,-3,2,8
13:22:49:323793,-5,11,0,-1,-2,-4,-1,4
13:22:49:339425,-5,11,0,-1,-2,-4,-1,4
13:22:49:340315,5,13,6,2,-4,-3,0,2
13:22:49:346301,-15,-1,-2,-2,-1,-1,-1,2
13:22:49:354436,-15,-1,-2,-2,-1,-1,-1,2
13:22:49:355309,3,5,1,-2,-1,-1,-2,-5
13:22:49:361348,-11,-5,-2,0,1,-1,-6,-34
13:22:49:376961,-11,-5,-2,0,1,-1,-6,-34
13:22:49:377788,-9,-4,0,3,2,2,-1,-16
13:22:49:383791,10,3,-4,-3,0,1,-4,-6
13:22:49:399434,10,3,-4,-3,0,1,-4,-6
13:22:49:400276,-5,-13,-2,-2,-2,-2,-1,-8
13:22:49:406197,-1,-1,-10,-6,-6,-3,-1,1
13:22:49:414454,-1,-1,-10,-6,-6,-3,-1,1
13:22:49:415295,1,-10,-3,-4,-1,0,0,6
13:22:49:421305,-1,5,3,2,-2,-2,4,13
13:22:49:436931,-1,5,3,2,-2,-2,4,13
13:22:49:437810,8,8,2,0,-2,-2,5,-4
13:22:49:443715,3,-4,2,-2,3,0,1,-15
13:22:49:459449,3,-4,2,-2,3,0,1,-15
13:22:49:460318,8,4,0,-3,1,-1,0,-13
13:22:49:466218,-6,2,-1,-2,-2,-4,-9,13
13:22:49:474448,-6,2,-1,-2,-2,-4,-9,13
13:22:49:475330,-2,-8,-1,-1,-1,-1,-8,-10
13:22:49:481151,-4,-8,-2,1,4,2,-1,-3
13:22:49:496937,-4,-8,-2,1,4,2,-1,-3
13:22:49:497831,-1,-5,-3,-2,1,-1,-3,11
13:22:49:503706,2,1,0,-1,0,4,2,4
13:22:49:519437,2,1,0,-1,0,4,2,4
13:22:49:520283,0,-4,-1,0,1,1,4,18
13:22:49:526182,-2,2,0,-5,-3,-2,0,-1
13:22:49:534431,-2,2,0,-5,-3,-2,0,-1
13:22:49:535302,-1,-5,-2,0,-2,-1,-5,-7
13:22:49:541172,1,7,2,1,-2,-2,-3,0
13:22:49:556955,1,7,2,1,-2,-2,-3,0
13:22:49:557791,2,8,0,-1,-3,0,6,3
13:22:49:563661,-4,-2,0,-2,3,4,-2,-2
13:22:49:579422,-4,-2,0,-2,3,4,-2,-2
13:22:49:580301,2,0,3,1,-1,-3,2,15
13:22:49:586286,-7,-4,-5,-3,-2,1,-1,0
13:22:49:594418,-7,-4,-5,-3,-2,1,-1,0
13:22:49:595287,-3,-16,-9,2,1,1,2,8
13:22:49:601188,2,-1,-1,-1,-3,-3,0,-3
13:22:49:616937,2,-1,-1,-1,-3,-3,0,-3
13:22:49:617811,1,18,3,0,0,1,-5,-2
13:22:49:623827,2,-13,2,-4,3,-2,7,7
13:22:49:639454,2,-13,2,-4,3,-2,7,7
13:22:49:640178,2,22,1,1,-1,-5,-3,-7
13:22:49:646309,1,-10,-8,-1,-2,-3,-1,0
13:22:49:654442,1,-10,-8,-1,-2,-3,-1,0
13:22:49:655312,6,9,7,-1,-2,1,0,-2
13:22:49:668819,3,-11,-6,-3,-4,0,3,3
13:22:49:676976,3,-11,-6,-3,-4,0,3,3
13:22:49:677793,-6,-20,-17,-3,3,0,-2,-3
13:22:49:683800,0,2,-5,1,-4,-4,-2,2
13:22:49:699941,0,2,-5,1,-4,-4,-2,2
13:22:49:700666,-4,-6,3,-8,-2,-1,-1,-3
13:22:49:706331,-3,3,5,-1,-1,-3,1,0
13:22:49:714411,-3,3,5,-1,-1,-3,1,0
13:22:49:715296,-7,-18,-10,-6,1,0,-6,-6
13:22:49:721319,0,12,-1,3,-1,-3,2,2
13:22:49:736935,0,12,-1,3,-1,-3,2,2
13:22:49:737797,-5,-10,-14,-4,0,0,-2,-4
13:22:49:743857,0,4,9,1,-1,-1,-4,-1
13:22:49:759462,0,4,9,1,-1,-1,-4,-1
13:22:49:760292,0,0,3,1,-2,-2,-1,-1
13:22:49:766285,1,-1,4,-2,-2,1,-1,-1
13:22:49:774445,1,-1,4,-2,-2,1,-1,-1
13:22:49:775170,-2,-10,1,0,-1,2,0,-2
13:22:49:781295,-3,-11,-10,-5,1,1,-1,-1
13:22:49:796929,-3,-11,-10,-5,1,1,-1,-1
13:22:49:797803,-2,5,6,0,-2,-1,0,-2
13:22:49:803824,-2,1,-8,-6,2,-1,-1,-2
13:22:49:819458,-2,1,-8,-6,2,-1,-1,-2
13:22:49:820306,3,2,9,2,-3,-4,-1,1
13:22:49:826201,0,6,-1,0,-3,-4,-1,-1
13:22:49:834450,0,6,-1,0,-3,-4,-1,-1
13:22:49:835321,0,-5,4,1,3,0,0,1
13:22:49:848680,0,-4,3,2,0,-1,0,-1
13:22:49:856939,0,-4,3,2,0,-1,0,-1
13:22:49:857787,-5,2,-2,1,-3,-2,-4,-2
13:22:49:871204,1,7,1,-1,-1,-1,0,0
13:22:49:879462,1,7,1,-1,-1,-1,0,0
13:22:49:880310,-1,-5,-12,1,3,0,-1,-2
13:22:49:886176,-1,-4,-6,-2,0,0,-1,-2
13:22:49:894434,-1,-4,-6,-2,0,0,-1,-2
13:22:49:895318,0,-1,0,-4,-1,-2,-3,0
13:22:49:908728,-1,-5,-2,1,0,1,1,-2
13:22:49:916931,-1,-5,-2,1,0,1,1,-2
13:22:49:917803,1,3,0,-2,-1,0,0,-3
13:22:49:923716,-7,-12,6,0,2,3,-5,-4
13:22:49:939456,-7,-12,6,0,2,3,-5,-4
13:22:49:940301,-1,1,-6,-4,-3,-3,-2,-1
13:22:49:946205,-3,1,-15,-1,-5,-2,0,6
13:22:49:954443,-3,1,-15,-1,-5,-2,0,6
13:22:49:955293,1,-4,0,1,-3,0,1,10
13:22:49:968670,1,3,17,-2,0,1,-2,-6
13:22:49:976932,1,3,17,-2,0,1,-2,-6
13:22:49:977803,0,5,5,1,-5,-3,0,-1
13:22:49:991347,1,0,-7,1,-1,3,1,2
13:22:49:999417,1,0,-7,1,-1,3,1,2
13:22:50:298,-1,-4,1,-2,2,1,-2,-6
13:22:50:6281,3,4,4,2,0,-1,-1,0
13:22:50:14438,3,4,4,2,0,-1,-1,0
13:22:50:15300,-5,-8,2,1,1,-2,0,-2
13:22:50:28803,-2,-8,-1,0,-2,-2,0,0
13:22:50:36927,-2,-8,-1,0,-2,-2,0,0
13:22:50:37794,1,5,-4,-6,-1,-1,-1,-2
13:22:50:43698,-1,-3,-7,-1,-2,-4,2,2
13:22:50:59445,-1,-3,-7,-1,-2,-4,2,2
13:22:50:60170,-3,-8,-1,2,1,-3,-2,-5
13:22:50:66298,0,4,0,-4,2,-4,-5,-2
13:22:50:74461,0,4,0,-4,2,-4,-5,-2
13:22:50:75337,0,2,-6,-2,-2,0,2,0
13:22:50:88823,0,8,1,-1,0,-2,-1,-3
13:22:50:96935,0,8,1,-1,0,-2,-1,-3
13:22:50:97811,-1,2,-4,-1,-1,-3,-1,0
13:22:50:103824,-4,0,2,-5,-1,0,-3,-3
13:22:50:119421,-4,0,2,-5,-1,0,-3,-3
13:22:50:120174,-6,-8,-4,-1,-3,0,-2,-2
13:22:50:126325,2,10,3,1,1,-1,0,0
13:22:50:134441,2,10,3,1,1,-1,0,0
13:22:50:135296,4,10,0,-3,-3,-1,-2,-2
13:22:50:148786,-3,-3,2,-1,-3,0,-3,-4
13:22:50:157008,-3,-3,2,-1,-3,0,-3,-4
13:22:50:157681,-2,-1,17,2,-1,-2,-2,0
13:22:50:163793,1,1,0,0,-3,-3,-1,-2
13:22:50:179438,1,1,0,0,-3,-3,-1,-2
13:22:50:180300,-3,-6,-5,-3,3,-1,0,-2
13:22:50:186305,-3,-6,-2,-1,-2,-2,-2,0
13:22:50:194437,-3,-6,-2,-1,-2,-2,-2,0
13:22:50:195205,1,9,8,1,-1,0,-1,-2
13:22:50:208833,-2,-10,-10,-3,1,-2,-1,-1
13:22:50:216926,-2,-10,-10,-3,1,-2,-1,-1
13:22:50:217818,-1,0,0,-1,-1,2,-1,0
13:22:50:223825,0,-4,-5,-4,-3,0,1,1
13:22:50:231313,0,-4,-5,-4,-3,0,1,1
13:22:50:238824,-1,-8,-5,-1,-2,-1,-1,-1
13:22:50:246307,-3,-1,1,0,-2,1,0,-2
13:22:50:254444,-3,-1,1,0,-2,1,0,-2
13:22:50:255308,-2,-1,-2,-3,1,0,-3,-1
13:22:50:268789,-1,-4,-3,-1,0,-1,-3,-3
13:22:50:276985,-1,-4,-3,-1,0,-1,-3,-3
13:22:50:277673,-3,0,7,1,4,0,-1,-2
13:22:50:283806,-4,-12,-11,-4,3,0,-1,-3
13:22:50:291325,-4,-12,-11,-4,3,0,-1,-3
13:22:50:298715,0,-3,-9,-3,0,1,1,-2
13:22:50:306217,-1,-2,2,-2,0,0,-2,0
13:22:50:314448,-1,-2,2,-2,0,0,-2,0
13:22:50:315297,2,3,3,0,1,0,2,0
13:22:50:328837,2,5,9,3,-2,-1,-3,0
13:22:50:336953,2,5,9,3,-2,-1,-3,0
13:22:50:337816,3,6,3,1,1,-3,-2,0
13:22:50:351922,-1,-4,-10,-3,0,-1,0,-2
13:22:50:352789,-1,-4,-10,-3,0,-1,0,-2
13:22:50:358832,-5,-9,-10,-3,-2,1,-4,-3
13:22:50:366313,1,0,-2,3,0,-2,0,1
13:22:50:374470,1,0,-2,3,0,-2,0,1
13:22:50:375327,-2,-5,0,-4,0,-1,-2,-1
13:22:50:388820,-1,1,-2,1,1,-1,0,0
13:22:50:396925,-1,1,-2,1,1,-1,0,0
13:22:50:397789,1,2,-2,5,3,-2,-1,1
13:22:50:403795,-2,3,11,0,1,0,0,-2
13:22:50:411294,-2,3,11,0,1,0,0,-2
13:22:50:418690,1,-3,-8,-5,-4,-1,-1,0
13:22:50:426234,-3,-9,8,1,3,1,0,-3
13:22:50:434448,-3,-9,8,1,3,1,0,-3
13:22:50:435301,0,5,-4,0,0,0,0,0
13:22:50:448810,0,0,-8,-3,-1,-2,-2,-1
13:22:50:456950,0,0,-8,-3,-1,-2,-2,-1
13:22:50:457811,-3,-4,0,0,3,1,-1,-1
13:22:50:463677,-4,-2,-6,-5,-3,-3,-3,-2
13:22:50:471295,-4,-2,-6,-5,-3,-3,-3,-2
13:22:50:478700,-2,-3,-10,-4,-4,-3,-3,-3
13:22:50:486173,-1,4,6,1,-3,1,0,0
13:22:50:494462,-1,4,6,1,-3,1,0,0
13:22:50:495339,1,-6,-8,0,-3,-2,-2,0
13:22:50:508719,-1,-2,-13,-4,0,-2,1,-3
13:22:50:516931,-1,-2,-13,-4,0,-2,1,-3
13:22:50:517789,-1,-1,-3,-2,-5,1,0,-1
13:22:50:523704,-1,-4,2,4,-3,-4,-1,-2
13:22:50:531302,-1,-4,2,4,-3,-4,-1,-2
13:22:50:538800,-3,-15,6,-1,1,-2,-3,-4
13:22:50:546171,1,-1,-9,-5,-2,2,-2,0
13:22:50:554434,1,-1,-9,-5,-2,2,-2,0
13:22:50:555301,1,6,1,-2,-1,0,1,0
13:22:50:568684,-2,-2,3,2,4,0,0,0
13:22:50:585053,-2,-2,3,2,4,0,0,0
13:22:50:585939,-2,-4,9,0,0,1,2,-3
13:22:50:586687,1,1,0,-1,-1,-1,1,-1
13:22:50:591368,1,1,0,-1,-1,-1,1,-1
13:22:50:598687,-4,0,-2,-1,0,-2,0,1
13:22:50:606197,0,4,-2,-2,-1,3,-2,-2
13:22:50:614447,0,4,-2,-2,-1,3,-2,-2
13:22:50:615324,-3,-6,-21,-5,-2,-5,0,0
13:22:50:629177,4,5,-1,1,-2,0,-2,2
13:22:50:636945,4,5,-1,1,-2,0,-2,2
13:22:50:637806,-1,4,3,0,2,3,-4,-1
13:22:50:643711,-2,-3,-1,0,0,-1,-2,-1
13:22:50:651313,-2,-3,-1,0,0,-1,-2,-1
13:22:50:658703,-2,-4,-4,0,4,0,2,0
13:22:50:666169,0,2,0,-3,1,-1,-3,-2
13:22:50:674456,0,2,0,-3,1,-1,-3,-2
13:22:50:675323,-1,-3,-3,-1,-2,-1,0,-2
13:22:50:688738,1,-1,-11,1,-4,-3,0,1
13:22:50:696937,1,-1,-11,1,-4,-3,0,1
13:22:50:697798,0,3,5,1,1,-1,-1,-2
13:22:50:703814,1,5,3,-3,2,1,-2,1
13:22:50:711314,1,5,3,-3,2,1,-2,1
13:22:50:718831,0,2,4,-1,-2,0,1,-1
13:22:50:726321,-2,-13,7,-1,-2,-1,0,-3
13:22:50:734426,-2,-13,7,-1,-2,-1,0,-3
13:22:50:735180,-2,0,4,0,-1,1,-2,-2
13:22:50:748824,0,0,-2,-2,-1,1,0,-1
13:22:50:756941,0,0,-2,-2,-1,1,0,-1
13:22:50:757695,-1,2,0,-1,0,-1,0,-2
13:22:50:771946,-1,-6,-9,0,-2,-2,-1,-2
13:22:50:772817,-1,-6,-9,0,-2,-2,-1,-2
13:22:50:778809,3,1,-3,1,1,-2,-2,-1
13:22:50:786287,-3,1,-8,-2,1,-2,-2,-2
13:22:50:793888,-3,1,-8,-2,1,-2,-2,-2
13:22:50:801313,-1,-3,-5,-6,-4,-1,0,-1
13:22:50:808815,-1,6,7,0,1,-1,-3,-1
13:22:50:816938,-1,6,7,0,1,-1,-3,-1
13:22:50:817676,0,1,9,5,0,1,-4,0
13:22:50:831935,-2,-9,2,-3,-3,-2,0,-2
13:22:50:832687,-2,-9,2,-3,-3,-2,0,-2
13:22:50:838858,-7,-11,-10,-4,-3,-1,-3,-3
13:22:50:846317,-4,-3,-3,0,-2,-1,-2,1
13:22:50:861987,-4,-3,-3,0,-2,-1,-2,1
13:22:50:862820,0,-5,-1,1,-2,0,2,-1
13:22:50:868684,-2,3,0,1,2,-1,0,-1
13:22:50:876951,-2,3,0,1,2,-1,0,-1
13:22:50:877686,-1,6,5,0,2,1,1,1
13:22:50:891952,1,4,11,1,1,0,0,-1
13:22:50:892713,1,4,11,1,1,0,0,-1
13:22:50:898803,-6,-18,-9,-3,0,0,-2,-2
13:22:50:906330,-1,1,3,-3,-2,1,0,-1
13:22:50:913909,-1,1,3,-3,-2,1,0,-1
13:22:50:921317,2,7,6,1,-2,-1,-1,1
13:22:50:928836,-1,-3,1,-1,0,-2,0,1
13:22:50:936922,-1,-3,1,-1,0,-2,0,1
13:22:50:937799,1,3,2,-1,0,-2,2,0
13:22:50:951942,0,-3,-4,-1,0,-1,0,-2
13:22:50:952682,0,-3,-4,-1,0,-1,0,-2
13:22:50:958815,-2,-2,-2,-2,-1,-4,-3,-3
13:22:50:966307,-1,-5,-6,0,0,3,-2,-1
13:22:50:973882,-1,-5,-6,0,0,3,-2,-1
13:22:50:981190,0,2,8,-3,-3,0,-2,-1
13:22:50:988703,1,9,1,-2,-2,-2,0,-1
13:22:50:996951,1,9,1,-2,-2,-2,0,-1
13:22:50:997813,1,2,-6,0,-3,-4,-2,-1
13:22:51:11966,-2,-4,-3,-1,-3,-2,-2,1
13:22:51:12795,-2,-4,-3,-1,-3,-2,-2,1
13:22:51:18666,-1,1,-2,-2,0,1,1,0
13:22:51:26187,1,-3,-16,-2,-3,-2,-1,0
13:22:51:33819,1,-3,-16,-2,-3,-2,-1,0
13:22:51:41195,0,-1,-1,-1,0,0,-2,-1
13:22:51:48692,-2,-3,7,2,1,2,-1,-2
13:22:51:56945,-2,-3,7,2,1,2,-1,-2
13:22:51:57861,-2,3,1,-1,-2,-2,1,0
13:22:51:71973,0,-2,9,1,2,-1,-3,0
13:22:51:72812,0,-2,9,1,2,-1,-3,0
13:22:51:78684,2,-1,-2,2,0,0,-1,-1
13:22:51:86191,0,-8,-8,1,1,0,0,-2
13:22:51:93930,0,-8,-8,1,1,0,0,-2
13:22:51:101174,-2,-5,-8,-1,0,0,-2,-1
13:22:51:108714,-2,-1,-18,-8,0,-2,-1,-2
13:22:51:116945,-2,-1,-18,-8,0,-2,-1,-2
13:22:51:117847,-3,-6,2,1,3,-1,1,-2
13:22:51:131925,0,2,6,4,-1,-4,0,-1
13:22:51:132823,0,2,6,4,-1,-4,0,-1
13:22:51:138753,2,5,1,-1,-1,-1,-1,0
13:22:51:146188,-4,-2,-7,0,2,-1,-1,-1
13:22:51:153825,-4,-2,-7,0,2,-1,-1,-1
13:22:51:161313,1,-5,-4,-3,-1,-2,0,0
13:22:51:168811,-3,-5,12,3,0,-1,-1,-2
13:22:51:184453,-3,-5,12,3,0,-1,-1,-2
13:22:51:185308,-3,-3,5,2,-1,0,2,-1
13:22:51:191947,-6,-10,-22,-7,-3,0,-1,-2
13:22:51:192809,-6,-10,-22,-7,-3,0,-1,-2
13:22:51:198806,2,3,-1,-2,-2,0,-1,-2
13:22:51:206362,0,4,9,-1,-1,-3,0,-1
13:22:51:213802,0,4,9,-1,-1,-3,0,-1
13:22:51:229455,1,1,-10,-2,-1,-2,-2,-1
13:22:51:230194,3,-5,0,-2,-2,2,0,-1
13:22:51:236932,3,-5,0,-2,-2,2,0,-1
13:22:51:237692,-5,-2,-11,-3,-2,2,-2,-3
13:22:51:251935,0,3,-7,-4,-1,-3,2,-2
13:22:51:252799,0,3,-7,-4,-1,-3,2,-2
13:22:51:258822,-1,-7,-4,-2,2,0,-1,-1
13:22:51:266195,3,15,4,0,-2,2,-3,1
13:22:51:273815,3,15,4,0,-2,2,-3,1
13:22:51:281341,-1,5,3,1,-4,-2,-2,0
13:22:51:288810,1,-1,10,6,3,-1,0,0
13:22:51:296931,1,-1,10,6,3,-1,0,0
13:22:51:297709,-2,-8,0,-1,-2,0,-2,-4
13:22:51:311995,-4,-1,11,3,0,1,-4,-1
13:22:51:312727,-4,-1,11,3,0,1,-4,-1
13:22:51:318823,2,4,-2,-1,-2,-3,0,1
13:22:51:326357,-10,-23,-28,-5,-1,-1,-1,-2
13:22:51:333812,-10,-23,-28,-5,-1,-1,-1,-2
13:22:51:341185,-4,-22,-19,-1,4,-1,-1,0
13:22:51:348686,0,-9,2,-1,-2,-2,-2,0
13:22:51:356946,0,-9,2,-1,-2,-2,-2,0
13:22:51:357833,0,5,3,-2,-2,-2,1,0
13:22:51:371705,-1,2,0,0,1,1,1,-1
13:22:51:379438,-1,2,0,0,1,1,1,-1
13:22:51:380179,1,5,12,-3,-1,0,-2,0
13:22:51:386188,3,2,-4,-5,-2,-1,1,-2
13:22:51:393820,3,2,-4,-5,-2,-1,1,-2
13:22:51:401194,-1,8,7,-1,0,0,-3,-1
13:22:51:408692,0,0,3,-1,0,-1,-3,-1
13:22:51:417318,0,0,3,-1,0,-1,-3,-1
13:22:51:423701,-2,-6,0,-5,-2,1,0,0
13:22:51:431936,0,3,11,-3,-4,-1,-3,0
13:22:51:432795,0,3,11,-3,-4,-1,-3,0
13:22:51:438697,-2,1,-5,-1,2,0,-1,-3
13:22:51:446188,3,0,-2,3,1,-2,-1,0
13:22:51:453813,3,0,-2,3,1,-2,-1,0
13:22:51:461316,0,6,4,-1,0,-2,-2,-1
13:22:51:468815,-8,-16,-6,-7,-2,-4,-1,-4
13:22:51:476952,-8,-16,-6,-7,-2,-4,-1,-4
13:22:51:477681,2,5,0,1,1,0,1,-1
13:22:51:491995,0,1,-2,-2,-2,-2,1,-1
13:22:51:492713,0,1,-2,-2,-2,-2,1,-1
13:22:51:498838,-1,-4,5,1,1,1,0,-2
13:22:51:506332,-1,0,3,0,3,2,-2,2
13:22:51:513846,-1,0,3,0,3,2,-2,2
13:22:51:521184,1,1,-2,1,2,-3,-4,1
13:22:51:528720,-2,1,0,2,1,0,-1,-2
13:22:51:536933,-2,1,0,2,1,0,-1,-2
13:22:51:537834,-4,-3,2,0,-2,-6,-1,0
13:22:51:551948,1,0,-3,-3,-2,1,1,-1
13:22:51:552690,1,0,-3,-3,-2,1,1,-1
13:22:51:558753,-4,-4,1,1,-1,-1,-1,-3
13:22:51:566234,0,1,5,-4,-3,-3,0,-1
13:22:51:573831,0,1,5,-4,-3,-3,0,-1
13:22:51:581185,-3,-12,-7,-9,-1,0,-2,-2
13:22:51:588722,0,4,3,-1,-2,-2,-2,-1
13:22:51:596944,0,4,3,-1,-2,-2,-2,-1
13:22:51:597817,2,18,3,3,-1,-2,-2,-1
13:22:51:611988,-1,6,0,-2,3,0,-3,-2
13:22:51:612823,-1,6,0,-2,3,0,-3,-2
13:22:51:618676,-2,-11,-8,-2,-3,2,-3,-1
13:22:51:626213,-1,4,0,3,-1,0,-1,0
13:22:51:633818,-1,4,0,3,-1,0,-1,0
13:22:51:641209,-1,5,3,-2,1,-1,1,-2
13:22:51:648689,0,-3,0,0,-2,-2,-1,1
13:22:51:656948,0,-3,0,0,-2,-2,-1,1
13:22:51:657849,-2,8,0,-1,2,-1,-3,-1
13:22:51:671937,-2,-3,-4,2,0,0,2,0
13:22:51:672831,-2,-3,-4,2,0,0,2,0
13:22:51:678716,2,1,1,1,-4,-2,-1,0
13:22:51:686184,1,4,-3,2,-1,-1,-1,-2
13:22:51:693878,1,4,-3,2,-1,-1,-1,-2
13:22:51:701183,-3,-4,-4,-2,-3,-2,-2,-1
13:22:51:708784,-2,-6,-3,-4,0,0,-2,-1
13:22:51:716341,-2,-6,-3,-4,0,0,-2,-1
13:22:51:723878,-4,-18,-2,-5,2,1,-2,-3
13:22:51:731976,3,12,4,1,0,1,-2,0
13:22:51:732704,3,12,4,1,0,1,-2,0
13:22:51:738699,1,-3,0,2,1,1,-1,0
13:22:51:754450,-3,-14,-7,-2,-1,-1,-2,0
13:22:51:755196,-3,-14,-7,-2,-1,-1,-2,0
13:22:51:761332,1,2,-3,4,0,-1,5,2
13:22:51:768814,3,3,0,-1,1,-2,-1,0
13:22:51:776343,3,3,0,-1,1,-2,-1,0
13:22:51:783716,-1,-2,1,-3,0,-3,0,0
13:22:51:791983,1,0,0,0,-2,0,0,-1
13:22:51:792815,1,0,0,0,-2,0,0,-1
13:22:51:798693,0,-6,-3,-1,-3,-2,-1,-1
13:22:51:814452,1,12,-3,-5,-5,-2,-3,-1
13:22:51:815198,1,12,-3,-5,-5,-2,-3,-1
13:22:51:821207,-2,-7,-1,0,0,1,0,-1
13:22:51:828702,-3,-4,3,4,1,-1,0,0
13:22:51:836305,-3,-4,3,4,1,-1,0,0
13:22:51:843711,-2,-3,-7,-9,1,0,0,-1
13:22:51:851931,-6,-7,-6,-5,4,3,-4,-5
13:22:51:852820,-6,-7,-6,-5,4,3,-4,-5
13:22:51:858751,1,1,2,4,4,0,0,0
13:22:51:874478,1,-3,-2,-4,1,-2,-1,-1
13:22:51:875331,1,-3,-2,-4,1,-2,-1,-1
13:22:51:881188,0,4,-2,4,-5,-1,-4,-1
13:22:51:896954,4,10,1,4,0,0,-2,1
13:22:51:897690,4,10,1,4,0,0,-2,1
13:22:51:903682,-3,-14,-2,2,0,-1,-1,-1
13:22:51:911951,0,-2,-4,-3,-2,-1,0,-1
13:22:51:912829,0,-2,-4,-3,-2,-1,0,-1
13:22:51:918687,3,2,-3,-3,-5,-1,0,-2
13:22:51:934443,-4,-2,3,-2,-1,0,-1,-1
13:22:51:935193,-4,-2,3,-2,-1,0,-1,-1
13:22:51:941233,-7,-9,-2,-3,-3,-4,-4,-2
13:22:51:948738,-4,-6,-5,-4,-4,-1,-1,-2
13:22:51:956317,-4,-6,-5,-4,-4,-1,-1,-2
13:22:51:963718,-3,-6,-2,0,-2,2,-2,-1
13:22:51:980077,-3,-7,0,0,-4,-2,-2,-2
13:22:51:980932,-3,-7,0,0,-4,-2,-2,-2
13:22:51:981711,-2,-1,-4,-2,0,0,-1,0
13:22:51:994494,-2,-9,-3,1,-2,-1,1,0
13:22:51:995234,-2,-9,-3,1,-2,-1,1,0
13:22:52:9491,-3,0,-3,-1,1,0,-1,-2
13:22:52:10219,0,-1,-1,-3,2,0,0,1
13:22:52:24502,0,-1,-1,-3,2,0,0,1
13:22:52:25340,-4,8,5,2,4,0,-1,0
13:22:52:31981,-2,-4,-5,0,1,-1,1,-1
13:22:52:32839,-2,-4,-5,0,1,-1,1,-1
13:22:52:38714,2,4,0,-4,-3,0,-3,-1
13:22:52:62604,1,-3,0,-3,-3,3,-2,-2
13:22:52:63461,1,-3,0,-3,-3,3,-2,-2
13:22:52:64222,0,3,2,-3,-3,-1,2,-2
13:22:52:68687,-2,-4,-2,0,0,0,0,0
13:22:52:76376,-2,-4,-2,0,0,0,0,0
13:22:52:92577,4,5,2,0,0,-2,1,0
13:22:52:93442,-1,-1,1,4,-1,0,1,-1
13:22:52:94184,-1,-1,1,4,-1,0,1,-1
13:22:52:98696,0,-4,-5,-5,1,-2,0,0
13:22:52:114817,3,12,0,1,-1,-3,-1,-1
13:22:52:121970,3,12,0,1,-1,-3,-1,-1
13:22:52:122695,-1,-6,0,-1,-1,-3,-3,-1
13:22:52:136946,0,3,0,0,2,3,1,1
13:22:52:137675,0,3,0,0,2,3,1,1
13:22:52:143809,3,5,0,0,-2,0,0,-1
13:22:52:151935,-4,-8,-3,-2,1,-1,0,2
13:22:52:152686,-4,-8,-3,-2,1,-1,0,2
13:22:52:158721,0,-2,0,0,3,0,-2,-1
13:22:52:174961,0,3,3,-1,-5,-2,-4,-4
13:22:52:175690,0,3,3,-1,-5,-2,-4,-4
13:22:52:181235,-1,0,-4,2,1,-1,-2,-3
13:22:52:188830,0,-2,-4,-10,-1,0,-4,0
13:22:52:204204,0,-2,-4,-10,-1,0,-4,0
13:22:52:220719,-2,6,-1,-2,1,-2,2,-3
13:22:52:221572,2,1,1,0,2,-2,1,0
13:22:52:222333,2,1,1,0,2,-2,1,0
13:22:52:223198,3,6,2,0,-2,1,1,1
13:22:52:234440,-2,-4,-4,-5,0,-2,0,-3
13:22:52:235318,-2,-4,-4,-5,0,-2,0,-3
13:22:52:241227,2,5,0,-1,-5,-4,-1,0
13:22:52:256979,-5,-8,-2,-1,-1,-1,-2,-1
13:22:52:257813,-5,-8,-2,-1,-1,-1,-2,-1
13:22:52:263706,-2,-10,-1,-2,-1,0,-1,-1
13:22:52:271981,1,-2,-3,4,0,2,-1,-1
13:22:52:272824,1,-2,-3,4,0,2,-1,-1
13:22:52:286215,-4,-8,-4,-2,1,2,-1,-1
13:22:52:302574,-2,3,1,1,-1,-4,0,-1
13:22:52:303440,-2,3,1,1,-1,-4,0,-1
13:22:52:304189,-1,-1,-5,-3,-4,0,-3,-1
13:22:52:308710,-1,5,1,-2,-3,-1,0,-2
13:22:52:316335,-1,5,1,-2,-3,-1,0,-2
13:22:52:323710,-2,-2,-1,-3,0,-3,-1,-4
13:22:52:340111,1,2,2,0,0,-1,-2,0
13:22:52:340964,1,2,2,0,0,-1,-2,0
13:22:52:341696,-1,-3,0,-1,-2,-2,-1,0
13:22:52:354454,0,-5,-4,0,0,-2,0,0
13:22:52:355186,0,-5,-4,0,0,-2,0,0
13:22:52:369476,-4,-1,-1,1,1,1,-1,-1
13:22:52:370242,2,-8,-1,2,-4,0,-3,-2
13:22:52:376337,2,-8,-1,2,-4,0,-3,-2
13:22:52:383683,-4,-1,-4,1,3,-3,0,0
13:22:52:391969,-9,-17,-6,-6,0,-1,0,-2
13:22:52:392703,-9,-17,-6,-6,0,-1,0,-2
13:22:52:398815,-2,-4,2,-2,0,2,-1,-1
13:22:52:414466,-5,-11,-7,-3,-2,1,-3,-1
13:22:52:415203,-5,-11,-7,-3,-2,1,-3,-1
13:22:52:421351,3,2,-4,-1,-1,-2,-1,1
13:22:52:428697,-3,-3,1,2,2,1,-1,-2
13:22:52:436323,-3,-3,1,2,2,1,-1,-2
13:22:52:452607,4,-7,-5,0,1,-1,-1,0
13:22:52:453333,1,11,0,0,-1,-3,0,-1
13:22:52:454220,1,11,0,0,-1,-3,0,-1
13:22:52:458846,1,0,1,0,1,1,0,-1
13:22:52:482335,-3,-4,-1,-2,-4,-2,0,-1
13:22:52:483202,-3,-4,-1,-2,-4,-2,0,-1
13:22:52:497583,-3,-4,-1,-4,-3,-1,0,-2
13:22:52:498453,2,10,1,-2,-1,-1,0,1
13:22:52:499196,2,10,1,-2,-1,-1,0,1
13:22:52:503710,-2,-2,1,0,-2,-2,-3,-1
13:22:52:511976,1,7,2,-2,1,-1,-1,-2
13:22:52:512828,1,7,2,-2,1,-1,-1,-2
13:22:52:518715,2,3,-1,1,0,-2,-2,-1
13:22:52:534955,0,-4,-5,-1,2,-1,-2,-1
13:22:52:535702,0,-4,-5,-1,2,-1,-2,-1
13:22:52:541209,-2,3,-3,-2,0,1,0,-3
13:22:52:548705,-2,0,-1,3,4,-2,0,-1
13:22:52:564462,-2,0,-1,3,4,-2,0,-1
13:22:52:565205,-3,-4,-3,-2,-2,0,0,1
13:22:52:580096,0,-2,-1,-2,-2,-1,-1,-1
13:22:52:580940,0,-2,-1,-2,-2,-1,-1,-1
13:22:52:581714,-6,0,1,2,-3,0,-2,0
13:22:52:594495,-4,2,-1,-1,-1,-3,-2,-1
13:22:52:595317,-4,2,-1,-1,-1,-3,-2,-1
13:22:52:601212,-1,3,4,-3,0,-1,0,-2
13:22:52:616966,1,5,1,-2,-1,0,1,0
13:22:52:617843,1,5,1,-2,-1,0,1,0
13:22:52:623727,3,2,0,-2,0,0,0,0
13:22:52:631945,-1,-13,-1,-3,1,0,0,-3
13:22:52:632811,-1,-13,-1,-3,1,0,0,-3
13:22:52:646205,-4,-3,0,-1,-3,0,0,-1
13:22:52:654457,-2,-1,-2,-4,-1,0,-3,-3
13:22:52:655329,-2,-1,-2,-4,-1,0,-3,-3
13:22:52:661223,0,-3,-3,-1,-1,-4,1,-2
13:22:52:676972,0,1,1,3,-4,-1,2,0
13:22:52:677708,0,1,1,3,-4,-1,2,0
13:22:52:691746,0,-4,-3,-2,-2,-3,-2,-1
13:22:52:699449,-3,-1,-3,-2,-1,-1,-1,-1
13:22:52:700192,-3,-1,-3,-2,-1,-1,-1,-1
13:22:52:706203,1,1,0,-1,0,1,-2,0
13:22:52:714438,1,1,0,-1,-1,-1,-3,-1
13:22:52:715185,1,1,0,-1,-1,-1,-3,-1
13:22:52:728714,-1,0,-2,2,0,0,0,0
13:22:52:736960,1,0,-1,-1,1,-1,-3,-2
13:22:52:737700,1,0,-1,-1,1,-1,-3,-2
13:22:52:743882,-2,-5,-3,-2,-4,-1,0,-2
13:22:52:759493,0,-3,-4,-1,0,-2,-2,1
13:22:52:760221,0,-3,-4,-1,0,-2,-2,1
13:22:52:775067,-5,-11,-6,-4,-3,-2,-3,-3
13:22:52:775964,1,-1,0,2,0,0,2,1
13:22:52:776736,1,-1,0,2,0,0,2,1
13:22:52:781210,0,2,1,0,0,-2,-3,-1
13:22:52:796715,-5,0,-1,-1,-3,-1,2,-1
13:22:52:813334,-5,0,-1,-1,-3,-1,2,-1
13:22:52:814086,-4,0,0,1,6,-2,-1,0
13:22:52:814942,1,-3,-1,0,1,1,-2,-1
13:22:52:815860,1,-3,-1,0,1,1,-2,-1
13:22:52:826351,-1,5,1,1,1,1,-1,-1
13:22:52:842657,1,3,2,-1,0,-2,0,0
13:22:52:843448,1,3,2,-1,0,-2,0,0
13:22:52:844203,1,-3,2,0,-1,0,-1,0
13:22:52:857551,-5,-10,-1,0,1,-4,-2,-3
13:22:52:858218,-5,-10,-1,0,1,-4,-2,-3
13:22:52:863721,2,0,-1,-1,1,0,1,-1
13:22:52:871989,-4,-3,-1,-2,-2,0,-1,-3
13:22:52:872718,-4,-3,-1,-2,-2,0,-1,-3
13:22:52:895600,-1,0,-1,1,-2,-2,-1,-2
13:22:52:896327,3,5,5,-1,0,1,1,-2
13:22:52:897197,3,5,5,-1,0,1,1,-2
13:22:52:901206,-1,-5,-5,-4,-2,-1,0,-1
13:22:52:925116,2,6,-2,0,0,-3,-2,-3
13:22:52:925962,2,6,-2,0,0,-3,-2,-3
13:22:52:926726,-2,-7,-7,-4,-3,-3,-1,-3
13:22:52:931973,0,2,1,-1,0,4,1,0
13:22:52:932695,0,2,1,-1,0,4,1,0
13:22:52:946224,-2,4,3,0,0,1,0,1
13:22:52:970101,-2,3,-2,0,-2,0,0,-2
13:22:52:970960,-2,3,-2,0,-2,0,0,-2
13:22:52:971713,-1,-7,-2,-1,1,-1,1,1
13:22:52:977018,-1,-2,-2,-2,0,-4,-2,-1
13:22:52:977688,-1,-2,-2,-2,0,-4,-2,-1
13:22:52:983702,-2,15,2,-2,-1,0,-3,-4
13:22:53:7780,-1,5,4,-1,-3,1,0,0
13:22:53:8468,-1,5,4,-1,-3,1,0,0
13:22:53:9211,1,-9,-2,-3,0,-3,-2,-1
13:22:53:14452,-1,0,-3,-2,-2,-1,-1,-1
13:22:53:15214,-1,0,-3,-2,-2,-1,-1,-1
13:22:53:21209,-2,-15,1,2,1,-1,-2,-4
13:22:53:37465,-2,-13,-6,0,-1,-1,-1,2
13:22:53:38200,-2,-13,-6,0,-1,-1,-1,2
13:22:53:60147,-2,-1,-2,-2,-4,1,-1,-2
13:22:53:60940,-2,-1,-2,-2,-4,1,-1,-2
13:22:53:61747,-2,-11,-5,-7,-2,-3,-2,-1
13:22:53:66212,0,11,1,-4,0,-3,-1,2
13:22:53:74483,0,11,1,-4,0,-3,-1,2
13:22:53:75197,0,2,-1,-2,2,1,2,0
13:22:53:88836,1,-6,-5,-7,3,0,-2,-2
13:22:53:96976,1,-6,-5,-7,3,0,-2,-2
13:22:53:97714,-3,-4,-5,-1,-1,-3,-1,-2
13:22:53:103700,5,2,0,1,0,0,-2,2
13:22:53:136460,5,2,0,1,0,0,-2,2
13:22:53:137367,4,0,-2,5,4,2,-2,-4
13:22:53:138103,0,-9,-2,-5,-1,0,1,0
13:22:53:138984,0,-9,-2,-5,-1,0,1,0
13:22:53:141985,9,3,-5,1,3,1,-2,1
13:22:53:142716,-16,0,-2,0,-3,-1,2,-2
13:22:53:172760,-16,0,-2,0,-3,-1,2,-2
13:22:53:173469,-6,-8,0,2,-4,0,-3,-2
13:22:53:174198,0,1,1,1,0,2,-1,-1
13:22:53:179444,0,1,1,1,0,2,-1,-1
13:22:53:180316,-3,6,1,2,-2,-2,2,-1
13:22:53:186235,-3,-13,-2,-1,-3,-3,-4,-3
13:22:53:202716,-3,-13,-2,-1,-3,-3,-4,-3
13:22:53:203455,-4,-1,-1,-4,-4,0,-1,1
13:22:53:204188,-3,5,-1,2,-1,-1,0,0
13:22:53:217478,-3,5,-1,2,-1,-1,0,0
13:22:53:218212,-2,-5,-2,-6,0,-2,-1,0
13:22:53:223738,4,1,-1,3,2,2,-3,0
13:22:53:256498,4,1,-1,3,2,2,-3,0
13:22:53:257211,-8,-1,-1,5,2,0,-1,-3
13:22:53:258076,3,0,0,-1,-2,0,1,-1
13:22:53:258834,3,0,0,-1,-2,0,1,-1
13:22:53:261972,-2,-4,-4,-4,0,0,-1,-1
13:22:53:262700,1,13,4,-2,-3,-2,0,-1
13:22:53:285620,1,13,4,-2,-3,-2,0,-1
13:22:53:286337,3,-1,1,-1,-1,-2,0,-2
13:22:53:287211,1,0,-2,0,0,0,0,0
13:22:53:299451,1,0,-2,0,0,0,0,0
13:22:53:300201,3,-1,-1,-1,-3,-1,-2,0
13:22:53:306265,-3,-2,1,0,3,0,-2,-2
13:22:53:314227,-3,-2,1,0,3,0,-2,-2
13:22:53:329485,-2,-3,-4,0,-4,-1,-1,1
13:22:53:330234,0,-4,-1,-1,-1,-2,-4,-1
13:22:53:336985,0,-4,-1,-1,-1,-2,-4,-1
13:22:53:337713,1,2,-1,-1,0,-4,-2,-1
13:22:53:343742,-4,-1,0,0,-1,-1,0,-2
13:22:53:367751,-4,-1,0,0,-1,-1,0,-2
13:22:53:368458,-4,2,-1,-3,-3,0,-2,-1
13:22:53:369192,1,-5,-4,-1,4,-1,1,0
13:22:53:374480,1,-5,-4,-1,4,-1,1,0
13:22:53:375240,-1,-2,1,-2,-1,-1,-4,-1
13:22:53:381206,-2,-5,-4,-1,-3,-3,0,-1
13:22:53:397207,-2,-5,-4,-1,-3,-3,0,-1
13:22:53:411869,-1,-2,1,0,-2,-3,0,0
13:22:53:412708,1,0,-2,-4,0,1,-1,-1
13:22:53:419475,1,0,-2,-4,0,1,-1,-1
13:22:53:420209,0,9,0,-4,0,-3,-1,-1
13:22:53:426237,1,19,-10,-3,-2,-5,2,-1
13:22:53:450098,1,19,-10,-3,-2,-5,2,-1
13:22:53:450956,-1,-2,0,-2,-2,0,-2,-1
13:22:53:451701,-1,-5,-1,2,3,0,-4,-2
13:22:53:456997,-1,-5,-1,2,3,0,-4,-2
13:22:53:457754,-2,-7,-6,1,-1,-1,4,1
13:22:53:463838,-3,-13,2,3,-1,2,-7,-2
13:22:53:479861,-3,-13,2,3,-1,2,-7,-2
13:22:53:480708,-9,-8,5,3,2,1,-7,-6
13:22:53:495134,-1,-2,-1,-1,-2,-3,-2,-1
13:22:53:495943,-1,-2,-1,-1,-2,-3,-2,-1
13:22:53:496691,-2,-6,1,-2,-1,-2,-1,0
13:22:53:501189,1,-1,0,1,-1,-6,-2,-1
13:22:53:532600,1,-1,0,1,-1,-6,-2,-1
13:22:53:533463,4,-3,-2,1,-1,1,-2,3
13:22:53:534211,-2,0,-2,-5,-3,-1,0,-2
13:22:53:539488,-2,0,-2,-5,-3,-1,0,-2
13:22:53:540216,1,16,0,0,3,-1,-4,-4
13:22:53:563249,7,3,4,3,-1,0,1,0
13:22:53:564082,7,3,4,3,-1,0,1,0
13:22:53:564965,-17,-24,-7,-3,1,0,-1,-5
13:22:53:565709,-5,-6,0,-2,-2,-2,-1,-2
13:22:53:577006,-5,-6,0,-2,-2,-2,-1,-2
13:22:53:577705,10,7,3,0,-3,-1,1,3
13:22:53:583711,-2,2,2,1,-1,2,1,-2
13:22:53:607635,-2,2,2,1,-1,2,1,-2
13:22:53:608464,-3,5,1,-2,-3,-2,1,0
13:22:53:609196,-2,-4,-5,-6,-2,-3,-1,-1
13:22:53:614471,-2,-4,-5,-6,-2,-3,-1,-1
13:22:53:615206,4,-5,-4,-4,1,1,0,0
13:22:53:628721,-1,8,1,3,0,-2,-3,-3
13:22:53:637719,-1,8,1,3,0,-2,-3,-3
13:22:53:638463,9,10,-8,2,-2,-2,4,2
13:22:53:643704,-3,4,2,0,2,-2,-2,-1
13:22:53:659500,-3,4,2,0,2,-2,-2,-1
13:22:53:660354,3,-5,2,2,1,0,-2,-3
13:22:53:666211,-11,3,1,-2,-1,1,0,2
13:22:53:674508,-11,3,1,-2,-1,1,0,2
13:22:53:675239,-14,-11,-2,3,6,1,-4,-4
13:22:53:689204,-4,-5,-4,-1,-1,1,-2,1
13:22:53:696970,-4,-5,-4,-1,-1,1,-2,1
13:22:53:697835,-6,2,1,-6,-2,-2,-1,-1
13:22:53:703701,3,-9,-5,-3,-2,-1,0,0
13:22:53:728120,3,-9,-5,-3,-2,-1,0,0
13:22:53:728841,-1,7,9,8,-5,-3,-1,1
13:22:53:729712,-11,3,0,-5,1,0,-1,0
13:22:53:734450,-11,3,0,-5,1,0,-1,0
13:22:53:735200,-18,-8,0,-3,-4,-3,-4,-2
13:22:53:748733,9,3,2,-1,1,-1,-1,-5
13:22:53:756962,9,3,2,-1,1,-1,-1,-5
13:22:53:757699,19,4,-3,-5,2,2,-4,0
13:22:53:772003,3,-15,-6,0,5,1,-4,-5
13:22:53:772704,3,-15,-6,0,5,1,-4,-5
13:22:53:778717,-4,0,-1,0,1,0,1,-2
13:22:53:786228,7,4,-6,-9,-3,0,1,2
13:22:53:810156,7,4,-6,-9,-3,0,1,2
13:22:53:810960,-24,-2,-8,-9,-3,-2,-2,-6
13:22:53:811731,-12,-17,4,4,-3,-1,-1,0
13:22:53:816980,-12,-17,4,4,-3,-1,-1,0
13:22:53:817742,15,-5,-4,-3,3,2,1,0
13:22:53:823760,-38,-11,3,3,3,-1,-2,-4
13:22:53:831347,-38,-11,3,3,3,-1,-2,-4
13:22:53:838711,9,-1,-1,-4,-1,-1,-1,0
13:22:53:846336,20,0,-5,1,-2,0,0,0
13:22:53:854509,20,0,-5,1,-2,0,0,0
13:22:53:855219,-1,14,5,1,-1,-2,-2,3
13:22:53:868727,-5,2,0,2,-6,-3,-2,-3
13:22:53:893368,-5,2,0,2,-6,-3,-2,-3
13:22:53:894085,16,15,-4,1,-4,-1,0,-1
13:22:53:894886,-20,5,1,2,0,-1,0,-3
13:22:53:895706,-20,5,1,2,0,-1,0,-3
13:22:53:898709,8,-5,5,-1,-3,-2,0,1
13:22:53:906215,10,-4,-3,-5,-6,-1,-2,-2
13:22:53:914471,10,-4,-3,-5,-6,-1,-2,-2
13:22:53:915344,5,-9,-2,-5,-5,-3,2,4
13:22:53:928705,27,12,-2,-5,-1,0,2,1
13:22:53:936982,27,12,-2,-5,-1,0,2,1
13:22:53:937886,11,2,-1,-2,1,-2,-2,-2
13:22:53:943743,17,5,3,1,0,0,2,5
13:22:53:967599,17,5,3,1,0,0,2,5
13:22:53:968471,2,2,-2,0,2,-2,-2,-4
13:22:53:969208,-14,-3,-3,-1,-1,-6,-6,-4
13:22:53:974496,-14,-3,-3,-1,-1,-6,-6,-4
13:22:53:975226,-10,-3,-2,1,1,2,0,0
13:22:54:5722,32,-25,-2,-1,-1,0,-1,3
13:22:54:6593,32,-25,-2,-1,-1,0,-1,3
13:22:54:7471,-20,-7,-4,-8,-5,0,-4,-4
13:22:54:8208,9,19,3,-3,0,2,0,2
13:22:54:11360,9,19,3,-3,0,2,0,2
13:22:54:18725,7,-4,-2,0,3,1,0,1
13:22:54:26241,-15,-3,-3,-7,2,-1,0,5
13:22:54:34474,-15,-3,-3,-7,2,-1,0,5
13:22:54:35209,-33,13,-1,-3,1,0,-4,-6
13:22:54:48721,9,-1,0,1,-2,2,1,-2
13:22:54:56968,9,-1,0,1,-2,2,1,-2
13:22:54:57856,-4,-11,0,3,-1,-1,0,-1
13:22:54:63720,19,-3,-2,0,3,-2,-1,0
13:22:54:87602,19,-3,-2,0,3,-2,-1,0
13:22:54:88469,3,-3,3,4,0,1,-3,-5
13:22:54:89201,-4,3,-1,1,-2,-2,0,-1
13:22:54:94487,-4,3,-1,1,-2,-2,0,-1
13:22:54:95220,1,-8,-5,-3,0,-1,-1,-2
13:22:54:108759,-2,-24,-6,-5,-2,3,-5,-2
13:22:54:116954,-2,-24,-6,-5,-2,3,-5,-2
13:22:54:117713,-15,-11,-2,-4,-3,-1,-4,-2
13:22:54:123722,-9,3,2,-3,-4,0,0,-3
13:22:54:131353,-9,3,2,-3,-4,0,0,-3
13:22:54:138715,7,9,2,-2,3,0,2,2
13:22:54:146232,-13,-4,-4,1,2,-2,-1,-9
13:22:54:170091,-13,-4,-4,1,2,-2,-1,-9
13:22:54:170846,-6,-3,-5,0,4,-1,-1,0
13:22:54:171709,-14,6,3,2,-1,0,0,-4
13:22:54:176987,-14,6,3,2,-1,0,0,-4
13:22:54:177733,-5,-12,-6,0,3,0,0,-1
13:22:54:183724,-12,-1,-3,2,2,-2,0,-1
13:22:54:191387,-12,-1,-3,2,2,-2,0,-1
13:22:54:198718,5,-3,0,2,0,0,0,0
13:22:54:206244,4,11,1,-4,-2,-3,-3,1
13:22:54:214486,4,11,1,-4,-2,-3,-3,1
13:22:54:215220,17,0,1,-1,-3,-3,0,-1
13:22:54:228734,-8,7,-2,-7,1,-1,-2,-2
13:22:54:245156,-8,7,-2,-7,1,-1,-2,-2
13:22:54:245854,3,5,-1,3,-2,0,-4,0
13:22:54:246731,2,-6,-3,0,0,1,-1,0
13:22:54:251373,2,-6,-3,0,0,1,-1,0
13:22:54:258732,13,0,-4,0,4,-2,7,2
13:22:54:282609,-2,24,7,2,-3,-1,-1,-1
13:22:54:283366,-2,24,7,2,-3,-1,-1,-1
13:22:54:284208,-5,-8,-6,-1,-3,-3,-5,-3
13:22:54:288714,-14,-4,1,2,1,2,3,0
13:22:54:296965,-14,-4,1,2,1,2,3,0
13:22:54:297702,4,16,5,1,-2,-2,-1,-1
13:22:54:303767,0,-13,-6,-1,-3,-3,-3,-4
13:22:54:311370,0,-13,-6,-1,-3,-3,-3,-4
13:22:54:327609,-4,-12,0,-2,2,3,-1,0
13:22:54:328352,1,-13,1,0,4,0,-1,1
13:22:54:334468,1,-13,1,0,4,0,-1,1
13:22:54:335224,1,14,4,0,-4,-4,-1,0
13:22:54:365755,-7,-7,-5,0,-4,-4,-2,-1
13:22:54:366633,-7,-7,-5,0,-4,-4,-2,-1
13:22:54:367369,-14,-13,1,0,-1,4,-1,-4
13:22:54:368241,9,-15,-7,-2,3,-1,-3,-1
13:22:54:371351,9,-15,-7,-2,3,-1,-3,-1
13:22:54:387331,13,9,4,7,-1,-2,-1,1
13:22:54:395491,-25,2,5,-4,0,-1,-1,-7
13:22:54:396347,-25,2,5,-4,0,-1,-1,-7
13:22:54:401206,7,-10,-8,-10,-6,-3,0,1
13:22:54:417615,-7,5,0,-5,3,1,8,5
13:22:54:418497,-7,5,0,-5,3,1,8,5
13:22:54:419216,-7,-5,-3,-7,2,-1,-1,2
13:22:54:448240,-3,-16,-3,0,-5,0,-4,-6
13:22:54:449106,-3,-16,-3,0,-5,0,-4,-6
13:22:54:449858,4,3,5,3,-3,-2,-3,-1
13:22:54:450718,6,-2,-1,0,1,1,2,0
13:22:54:455103,6,-2,-1,0,1,1,2,0
13:22:54:455990,-2,-10,-5,0,-2,0,-4,-3
13:22:54:477599,10,6,-1,2,-2,1,-1,4
13:22:54:478381,10,6,-1,2,-2,1,-1,4
13:22:54:479210,-13,-13,-2,3,1,0,2,-4
13:22:54:492004,2,7,-4,-4,0,-1,0,2
13:22:54:492866,2,7,-4,-4,0,-1,0,2
13:22:54:498757,-11,-6,-3,0,3,-2,-10,-9
13:22:54:506242,7,-3,-5,-5,-5,-3,-3,-3
13:22:54:522732,7,-3,-5,-5,-5,-3,-3,-3
13:22:54:523347,2,24,5,-1,-1,-1,3,1
13:22:54:528719,7,-2,3,3,-2,0,0,-2
13:22:54:537004,7,-2,3,3,-2,0,0,-2
13:22:54:537863,6,-2,0,0,-1,-2,2,1
13:22:54:560125,-6,-1,0,-2,0,-2,3,-1
13:22:54:560966,-6,-1,0,-2,0,-2,3,-1
13:22:54:561743,5,-1,-2,-1,2,2,-1,-1
13:22:54:566214,11,-4,2,6,2,0,-8,-2
13:22:54:581753,11,-4,2,6,2,0,-8,-2
13:22:54:589364,-34,-47,-18,-12,0,2,-1,-4
13:22:54:590227,-8,0,-1,2,1,0,-1,1
13:22:54:604474,-8,0,-1,2,1,0,-1,1
13:22:54:605213,-2,-13,-5,-3,-1,3,6,2
13:22:54:611980,2,-2,-1,-1,-1,-2,-5,-1
13:22:54:612721,2,-2,-1,-1,-1,-2,-5,-1
13:22:54:643272,4,12,0,3,2,-2,3,1
13:22:54:644108,-9,-1,0,-5,-4,0,14,3
13:22:54:644874,-9,-1,0,-5,-4,0,14,3
13:22:54:645723,-5,8,6,4,-3,-3,-4,-3
13:22:54:648711,-11,19,8,1,-1,-4,-11,-6
13:22:54:664496,-11,19,8,1,-1,-4,-11,-6
13:22:54:665235,4,-8,-4,-5,2,4,-2,0
13:22:54:671962,4,9,4,-1,-1,-1,-2,-2
13:22:54:672756,4,9,4,-1,-1,-1,-2,-2
13:22:54:678734,11,12,6,2,-2,-5,-4,0
13:22:54:686240,1,-3,-5,1,-1,-1,-2,-2
13:22:54:693896,1,-3,-5,1,-1,-1,-2,-2
13:22:54:701214,-6,7,-2,-6,1,1,0,-1
13:22:54:725134,-13,-10,-5,-4,0,0,0,0
13:22:54:726040,-13,-10,-5,-4,0,0,0,0
13:22:54:726733,-5,10,-5,-4,-1,-3,0,1
13:22:54:731974,1,-32,-9,-7,2,-1,-8,1
13:22:54:732735,1,-32,-9,-7,2,-1,-8,1
13:22:54:738719,8,6,3,2,-4,-6,-4,-2
13:22:54:746233,-5,5,0,-1,-2,-2,-5,-9
13:22:54:753895,-5,5,0,-1,-2,-2,-5,-9
13:22:54:761219,-23,-25,-15,-4,2,-1,-3,-3
13:22:54:777610,5,5,1,0,0,1,4,2
13:22:54:778484,5,5,1,0,0,1,4,2
13:22:54:779210,13,26,6,2,0,0,-1,1
13:22:54:808266,-6,-12,-7,1,0,1,-1,-3
13:22:54:809094,-6,-12,-7,1,0,1,-1,-3
13:22:54:810000,-10,-3,-1,-5,3,0,-6,-4
13:22:54:810727,-16,-8,-4,-1,4,-1,-2,-3
13:22:54:813860,-16,-8,-4,-1,4,-1,-2,-3
13:22:54:838243,10,-24,-7,-4,-1,-2,-1,0
13:22:54:839120,-2,-7,-10,1,0,0,-1,2
13:22:54:839884,-2,-7,-10,1,0,0,-1,2
13:22:54:840750,17,7,3,2,-1,-3,3,4
13:22:54:860123,2,9,3,-5,-2,-3,-8,0
13:22:54:860971,2,9,3,-5,-2,-3,-8,0
13:22:54:861760,-10,-8,-4,1,-1,0,-4,-3
13:22:54:866252,7,14,3,4,1,2,-1,0
13:22:54:882027,7,14,3,4,1,2,-1,0
13:22:54:882865,-20,9,4,-1,0,-1,-3,-5
13:22:54:888766,13,-1,2,-5,-1,0,-1,0
13:22:54:921492,13,-1,2,-5,-1,0,-1,0
13:22:54:922230,-11,3,4,3,-2,1,3,-2
13:22:54:923099,11,-2,0,1,-2,-2,1,3
13:22:54:923853,11,-2,0,1,-2,-2,1,3
13:22:54:926854,9,7,0,1,0,0,-8,0
13:22:54:927726,10,3,-2,-4,-1,0,0,-1
13:22:54:941991,10,3,-2,-4,-1,0,0,-1
13:22:54:942719,-5,-7,6,7,0,3,5,-3
13:22:54:948746,-20,7,1,-2,0,-3,-3,-6
13:22:54:956992,-20,7,1,-2,0,-3,-3,-6
13:22:54:957735,1,2,-6,-6,-1,-2,1,0
13:22:55:4000,5,-5,-2,-6,-2,1,1,0
13:22:55:4723,5,-5,-2,-6,-2,1,1,0
13:22:55:5619,1,-5,0,-1,-3,-3,-2,-5
13:22:55:6378,-13,-21,-8,-2,-4,-1,0,1
13:22:55:10105,-13,-21,-8,-2,-4,-1,0,1
13:22:55:10959,7,0,2,3,0,-1,0,1
13:22:55:11752,9,-8,0,0,-1,0,10,4
13:22:55:16955,9,-8,0,0,-1,0,10,4
13:22:55:17720,-19,-12,-2,-5,-2,-1,-2,0
13:22:55:31846,12,6,-1,-3,-2,-2,-3,3
13:22:55:32719,12,6,-1,-3,-2,-2,-3,3
13:22:55:38750,14,23,-2,-6,-4,-1,-3,-1
13:22:55:46229,3,12,4,4,1,0,-1,-2
13:22:55:53874,3,12,4,4,1,0,-1,-2
13:22:55:61225,-2,-15,-1,5,0,-2,0,1
13:22:55:77648,-16,-5,-7,0,5,2,-2,0
13:22:55:78385,-16,-5,-7,0,5,2,-2,0
13:22:55:79221,2,1,-1,-7,-1,-2,-4,1
13:22:55:92378,-3,9,0,2,-1,-2,-2,-2
13:22:55:99486,-3,9,0,2,-1,-2,-2,-2
13:22:55:100351,-14,-16,-13,-7,1,1,5,-3
13:22:55:106228,2,4,1,-2,0,-2,0,-2
13:22:55:113745,2,4,1,-2,0,-2,0,-2
13:22:55:121280,5,1,4,1,0,-1,-2,2
13:22:55:128710,10,-8,0,-6,-6,-5,0,-2
13:22:55:136976,10,-8,0,-6,-6,-5,0,-2
13:22:55:137723,-1,8,1,1,0,-2,2,0
13:22:55:152622,14,11,2,4,2,1,-7,0
13:22:55:153344,14,11,2,4,2,1,-7,0
13:22:55:158746,2,-14,-3,-2,-2,-2,-6,-2
13:22:55:166231,7,-17,-2,-1,5,1,-2,1
13:22:55:182746,7,-17,-2,-1,5,1,-2,1
13:22:55:183363,-5,-6,-4,-7,-1,0,-2,0
13:22:55:205140,3,-11,-4,1,-1,2,1,0
13:22:55:205992,3,-11,-4,1,-1,2,1,0
13:22:55:206750,-4,1,2,1,-2,-2,1,-4
13:22:55:220098,-14,-1,-1,-3,-3,-1,2,-1
13:22:55:220962,-14,-1,-1,-3,-3,-1,2,-1
13:22:55:221751,-2,10,2,2,-3,-1,2,0
13:22:55:226217,-6,4,1,-1,-2,-4,-3,-3
13:22:55:233898,-6,4,1,-1,-2,-4,-3,-3
13:22:55:241312,-4,-21,-5,-3,-1,-1,0,1
13:22:55:248740,-14,7,0,4,5,2,-3,-4
13:22:55:257528,-14,7,0,4,5,2,-3,-4
13:22:55:280745,-14,0,-4,-1,-1,0,-4,-6
13:22:55:281601,-3,-14,-3,-1,-4,0,-1,0
13:22:55:282349,-3,-14,-3,-1,-4,0,-1,0
13:22:55:283232,10,26,4,1,1,1,-2,-4
13:22:55:286240,-6,-1,3,1,2,-2,0,-1
13:22:55:293856,-6,-1,3,1,2,-2,0,-1
13:22:55:309492,21,2,-4,-2,-3,-4,1,2
13:22:55:310234,0,4,1,-4,-5,-2,-2,-3
13:22:55:316967,0,4,1,-4,-5,-2,-2,-3
13:22:55:317720,3,-6,-1,-3,2,0,-1,-1
13:22:55:332659,-8,-5,-6,-2,0,-1,-1,-4
13:22:55:333368,-8,-5,-6,-2,0,-1,-1,-4
13:22:55:338731,7,16,6,1,-2,-1,-1,1
13:22:55:354510,0,-17,-1,-2,2,-1,-3,1
13:22:55:355364,0,-17,-1,-2,2,-1,-3,1
13:22:55:361292,-11,-12,-3,8,3,-3,1,-4
13:22:55:368735,5,-2,-8,-3,-2,0,-1,-1
13:22:55:377051,5,-2,-8,-3,-2,0,-1,-1
13:22:55:377743,9,11,0,-2,-2,-1,-5,1
13:22:55:392482,8,8,-2,0,-2,-2,-3,-3
13:22:55:393219,8,8,-2,0,-2,-2,-3,-3
13:22:55:398730,-4,5,3,-5,-1,4,9,4
13:22:55:406244,4,8,6,-2,-3,2,2,-1
13:22:55:413721,4,8,6,-2,-3,2,2,-1
13:22:55:421210,9,-21,1,-3,-1,-2,-5,1
13:22:55:437606,-4,-8,-5,1,1,0,-1,-2
13:22:55:438352,-4,-8,-5,1,1,0,-1,-2
13:22:55:439247,0,3,2,-2,-2,0,3,-1
13:22:55:460561,-18,-29,-1,-1,1,-2,0,0
13:22:55:461352,-18,-29,-1,-1,1,-2,0,0
13:22:55:475120,-5,4,0,1,-2,-4,-3,-1
13:22:55:475843,-15,-1,3,-3,1,3,0,-3
13:22:55:476781,-15,-1,3,-3,1,3,0,-3
13:22:55:481225,-11,13,-3,-1,1,2,0,-3
13:22:55:497634,9,13,-4,-4,-3,-2,4,1
13:22:55:498365,9,13,-4,-4,-3,-2,4,1
13:22:55:499216,-4,-7,0,-2,0,-1,-1,0
13:22:55:511940,1,11,6,4,-1,-2,-3,1
13:22:55:512748,1,11,6,4,-1,-2,-3,1
13:22:55:518839,0,-3,1,4,3,-1,0,0
13:22:55:534508,17,-5,-9,-1,-5,-5,5,2
13:22:55:535345,17,-5,-9,-1,-5,-5,5,2
13:22:55:557627,-9,14,-2,-13,-4,-1,-3,-4
13:22:55:558357,15,37,6,3,3,2,-3,3
13:22:55:559245,15,37,6,3,3,2,-3,3
13:22:55:563723,-8,-11,-2,0,-2,-2,-1,-5
13:22:55:571999,-3,-11,-4,-2,-1,-1,-3,-4
13:22:55:572727,-3,-11,-4,-2,-1,-1,-3,-4
13:22:55:578746,3,5,4,1,0,0,-2,2
13:22:55:594501,0,4,3,0,-1,-4,-1,1
13:22:55:595225,0,4,3,0,-1,-4,-1,1
13:22:55:601217,-5,6,-2,2,1,3,2,1
13:22:55:608756,-25,-20,-6,-3,-2,2,0,-1
13:22:55:633358,-25,-20,-6,-3,-2,2,0,-1
13:22:55:634123,18,-8,-4,-4,-3,-4,-1,-4
13:22:55:634960,0,1,-1,-2,5,0,-3,2
13:22:55:635732,0,1,-1,-2,5,0,-3,2
13:22:55:638720,-1,-6,-2,-1,-2,-1,-3,1
13:22:55:663758,-1,-3,1,-5,-5,-5,0,-3
13:22:55:664490,-1,-3,1,-5,-5,-5,0,-3
13:22:55:669362,-2,-9,-7,0,2,0,-3,-2
13:22:55:670245,1,1,-2,-2,-1,0,-3,0
13:22:55:676403,1,1,-2,-2,-1,0,-3,0
13:22:55:683755,-7,-4,-4,-3,2,-2,5,-6
13:22:55:691994,2,-29,-11,-1,-3,-2,7,0
13:22:55:692863,2,-29,-11,-1,-3,-2,7,0
13:22:55:698754,-14,8,-5,1,0,1,-13,-1
13:22:55:715010,0,11,4,1,1,-1,-1,0
13:22:55:715730,0,11,4,1,1,-1,-1,0
13:22:55:721222,-8,-9,0,1,-1,1,2,0
13:22:55:754031,9,15,9,-3,-2,-5,-3,1
13:22:55:754769,9,15,9,-3,-2,-5,-3,1
13:22:55:755609,-19,-3,9,1,-2,-3,0,-3
13:22:55:756351,0,-4,2,-1,2,0,-2,-2
13:22:55:759476,0,-4,2,-1,2,0,-2,-2
13:22:55:760262,-12,-11,-5,1,1,-1,3,1
13:22:55:774482,-7,4,-3,-1,-1,0,-2,-6
13:22:55:775228,-7,4,-3,-1,-1,0,-2,-6
13:22:55:781225,17,-5,-1,0,-1,2,-7,0
13:22:55:788814,-13,0,-9,1,0,-2,-8,-7
13:22:55:796342,-13,0,-9,1,0,-2,-8,-7
13:22:55:803761,5,8,6,-2,-3,-2,-3,-1
13:22:55:834249,-8,8,-6,-3,3,3,1,-3
13:22:55:844007,-8,8,-6,-3,3,3,1,-3
13:22:55:844773,14,-1,1,-1,0,1,2,4
13:22:55:845595,-12,-9,-3,0,0,1,-3,-6
13:22:55:846358,-12,-9,-3,0,0,1,-3,-6
13:22:55:849426,-11,-11,-7,-7,1,-1,12,3
13:22:55:850220,-2,5,-8,-13,4,1,-4,-2
13:22:55:856370,-2,5,-8,-13,4,1,-4,-2
13:22:55:863756,2,-1,3,3,0,-2,-9,-6
13:22:55:871976,6,-2,2,2,-5,-1,0,-1
13:22:55:872741,6,-2,2,2,-5,-1,0,-1
13:22:55:878739,8,-10,-8,-1,-2,-4,-2,-3
13:22:55:894492,-4,-7,0,0,-1,2,-2,1
13:22:55:895228,-4,-7,0,0,-1,2,-2,1
13:22:55:909430,17,-1,-5,-1,-1,-2,1,0
13:22:55:910226,11,33,8,5,2,0,2,3
13:22:55:916218,11,33,8,5,2,0,2,3
13:22:55:923800,-13,-9,-6,-6,-5,-2,6,1
13:22:55:940113,-2,3,2,1,-1,-3,4,1
13:22:55:940878,-2,3,2,1,-1,-3,4,1
13:22:55:941748,5,21,4,-2,-1,0,-6,-4
13:22:55:954358,-9,-5,-7,-2,0,-1,-3,1
13:22:55:955231,-9,-5,-7,-2,0,-1,-3,1
13:22:55:961227,1,32,11,3,-3,3,4,1
13:22:55:968742,6,2,1,-8,-5,-4,-8,-6
13:22:55:976308,6,2,1,-8,-5,-4,-8,-6
13:22:55:992650,17,-11,-4,-3,-2,1,-1,-2
13:22:55:993385,11,-1,3,0,-3,-2,1,3
13:22:55:994215,11,-1,3,0,-3,-2,1,3
13:22:55:998738,2,-10,-1,0,1,0,-7,-2
13:22:56:31257,-11,-47,-10,1,0,1,-4,-6
13:22:56:31982,-11,-47,-10,1,0,1,-4,-6
13:22:56:32851,-23,-12,-22,-13,1,1,0,-2
13:22:56:33729,1,7,2,-3,1,1,2,1
13:22:56:36237,1,7,2,-3,1,1,2,1
13:22:56:52632,4,-14,-2,1,3,2,1,3
13:22:56:53371,0,-6,-3,0,-4,-6,-5,2
13:22:56:54227,0,-6,-3,0,-4,-6,-5,2
13:22:56:58743,-16,-6,1,0,-2,0,-2,-6
13:22:56:74380,12,-5,-1,3,-1,0,2,0
13:22:56:75229,12,-5,-1,3,-1,0,2,0
13:22:56:81260,12,9,1,-7,0,-2,-10,-1
13:22:56:105161,1,2,-1,0,-4,0,8,1
13:22:56:113233,1,2,-1,0,-4,0,8,1
13:22:56:114144,5,-12,9,8,0,1,8,3
13:22:56:114868,-8,-24,0,9,5,2,-1,-4
13:22:56:115747,-8,-24,0,9,5,2,-1,-4
13:22:56:118735,-5,7,-12,-5,-2,0,1,-3
13:22:56:134494,-12,11,7,-1,2,0,-4,2
13:22:56:135257,-12,11,7,-1,2,0,-4,2
13:22:56:141278,-11,-7,-3,1,4,-1,17,3
13:22:56:148771,12,18,-3,-5,-2,-3,-2,1
13:22:56:156416,12,18,-3,-5,-2,-3,-2,1
13:22:56:163774,-6,34,15,4,-1,-1,-5,1
13:22:56:187622,-31,5,8,-1,-2,-2,-2,-7
13:22:56:188489,-31,5,8,-1,-2,-2,-2,-7
13:22:56:189221,-19,22,0,5,-1,0,8,1
13:22:56:194504,1,-11,-4,-2,0,-1,-5,0
13:22:56:195254,1,-11,-4,-2,0,-1,-5,0
13:22:56:225777,7,-8,-3,-3,-2,-4,-10,-2
13:22:56:226646,15,8,-1,0,-1,0,1,2
13:22:56:227377,15,8,-1,0,-1,0,1,2
13:22:56:228276,0,0,-3,2,-1,-3,-6,-2
13:22:56:232390,-20,-30,-7,-2,1,0,-2,-5
13:22:56:239487,-20,-30,-7,-2,1,0,-2,-5
13:22:56:240282,-2,-17,-2,2,-2,-2,0,-2
13:22:56:254502,18,34,9,-3,-3,-3,0,8
13:22:56:255282,18,34,9,-3,-3,-3,0,8
13:22:56:269384,-14,-3,-2,-5,0,-4,-10,-10
13:22:56:270258,-5,-43,-16,0,2,-1,-1,-5
13:22:56:276399,-5,-43,-16,0,2,-1,-1,-5
13:22:56:308251,2,-14,-10,-4,-1,1,1,2
13:22:56:309099,5,14,2,-2,-4,-3,-4,-3
13:22:56:309888,5,14,2,-2,-4,-3,-4,-3
13:22:56:310740,17,1,6,0,2,-1,-9,-1
13:22:56:314481,-6,-1,-4,-7,-3,-1,-4,-3
13:22:56:315238,-6,-1,-4,-7,-3,-1,-4,-3
13:22:56:321233,-8,4,6,-1,-2,-1,-7,-3
13:22:56:328771,-14,-5,-3,-3,0,2,0,1
13:22:56:336369,-14,-5,-3,-3,0,2,0,1
13:22:56:352631,0,-22,-8,-4,0,1,-1,1
13:22:56:353484,-3,-21,-14,-2,3,1,4,-1
13:22:56:354237,-3,-21,-14,-2,3,1,4,-1
13:22:56:358766,8,1,-1,-1,0,-1,-2,0
13:22:56:375619,7,-4,-6,0,1,2,4,-1
13:22:56:376350,7,-4,-6,0,1,2,4,-1
13:22:56:389411,9,9,3,-7,-6,-1,1,0
13:22:56:390262,-4,30,8,2,1,-1,0,1
13:22:56:396381,-4,30,8,2,1,-1,0,1
13:22:56:412639,-7,7,-2,-2,-1,-4,12,4
13:22:56:413404,-13,11,6,5,3,2,-11,-5
13:22:56:414240,-13,11,6,5,3,2,-11,-5
13:22:56:418734,0,21,5,-1,-3,-3,-5,-1
13:22:56:434375,6,14,5,0,1,-4,1,1
13:22:56:435269,6,14,5,0,1,-4,1,1
13:22:56:441239,14,-20,-9,3,1,0,0,0
13:22:56:456752,11,-2,4,0,-4,1,0,0
13:22:56:464590,11,-2,4,0,-4,1,0,0
13:22:56:465232,7,36,15,3,3,4,7,1
13:22:56:471877,-17,-15,-4,-5,-3,-1,9,4
13:22:56:472753,-17,-15,-4,-5,-3,-1,9,4
13:22:56:494783,-6,6,-1,-10,0,1,-1,-3
13:22:56:502608,9,15,3,-10,-4,-3,-3,0
13:22:56:503474,9,15,3,-10,-4,-3,-3,0
13:22:56:504223,5,-29,-13,6,0,-3,-9,0
13:22:56:517008,-25,-6,-6,-2,0,1,-1,-8
13:22:56:517729,-25,-6,-6,-2,0,1,-1,-8
13:22:56:523746,-13,-27,-14,-5,-2,0,1,1
13:22:56:532009,4,29,-1,2,0,-6,9,6
13:22:56:532747,4,29,-1,2,0,-6,9,6
13:22:56:546735,6,14,4,-2,-4,0,3,-1
13:22:56:554514,26,28,12,-7,-2,-2,-2,2
13:22:56:555261,26,28,12,-7,-2,-2,-2,2
13:22:56:568741,0,39,15,-6,-6,-5,1,4
13:22:56:585117,12,-2,5,3,1,1,-5,3
13:22:56:585851,12,-2,5,3,1,1,-5,3
13:22:56:586741,-1,-31,-9,2,0,-2,-1,1
13:22:56:592035,-4,-20,-18,-4,0,-2,-3,-10
13:22:56:592769,-4,-20,-18,-4,0,-2,-3,-10
13:22:56:606779,8,6,0,-1,0,1,-5,1
13:22:56:614378,1,-37,-19,-3,2,-2,1,-4
13:22:56:615224,1,-37,-19,-3,2,-2,1,-4
13:22:56:628745,2,-33,-3,0,0,0,-3,-4
13:22:56:636978,11,-1,7,0,-2,1,-6,2
13:22:56:637737,11,-1,7,0,-2,1,-6,2
13:22:56:652623,0,3,-5,1,0,-2,3,-2
13:22:56:653486,-23,-13,4,3,2,-1,-3,-8
13:22:56:654235,-23,-13,4,3,2,-1,-3,-8
13:22:56:666740,-3,22,10,5,0,0,-6,0
13:22:56:674508,16,7,-5,1,-1,0,-5,-2
13:22:56:675265,16,7,-5,1,-1,0,-5,-2
13:22:56:681262,-1,-27,-8,-2,-1,-3,-1,-6
13:22:56:697027,-19,-10,1,1,-1,3,0,-3
13:22:56:697740,-19,-10,1,1,-1,3,0,-3
13:22:56:703768,3,15,1,6,4,1,-1,-1
13:22:56:712015,-7,1,1,-1,-2,-1,2,3
13:22:56:712746,-7,1,1,-1,-2,-1,2,3
13:22:56:735117,-28,-7,-17,-12,-2,-3,-3,-7
13:22:56:735868,-9,-11,1,1,-1,-5,-5,-5
13:22:56:736758,-9,-11,1,1,-1,-5,-5,-5
13:22:56:741281,5,3,15,2,0,0,3,2
13:22:56:757025,6,-11,0,-1,0,1,-2,1
13:22:56:757756,6,-11,0,-1,0,1,-2,1
13:22:56:763754,-18,-6,0,6,9,5,0,-4
13:22:56:771995,14,10,-7,-5,-4,-1,12,9
13:22:56:772746,14,10,-7,-5,-4,-1,12,9
13:22:56:786265,14,5,1,-4,-3,1,-1,6
13:22:56:794518,-8,12,-10,1,-1,-3,-3,-8
13:22:56:795246,-8,12,-10,1,-1,-3,-3,-8
13:22:56:801229,0,-5,8,0,-1,0,5,-1
13:22:56:825184,-18,-47,-10,-6,2,1,-2,-5
13:22:56:825995,-18,-47,-10,-6,2,1,-2,-5
13:22:56:826766,13,-4,-3,3,-1,-2,-6,0
13:22:56:832023,12,15,0,-1,-2,-1,8,5
13:22:56:832732,12,15,0,-1,-2,-1,8,5
13:22:56:846755,10,-11,-8,-11,-4,-4,-3,2
13:22:56:862632,17,16,15,1,-3,0,-4,0
13:22:56:863379,17,16,15,1,-3,0,-4,0
13:22:56:864244,-8,-9,0,4,-4,-2,0,0
13:22:56:877113,-8,-9,0,4,-4,-2,0,0
13:22:56:877788,3,10,4,1,-1,-3,-3,-1
13:22:56:883755,-7,-2,-9,-1,2,0,-12,-7
13:22:56:907680,-7,-2,-9,-1,2,0,-12,-7
13:22:56:908491,-9,2,11,4,0,3,0,-1
13:22:56:909239,5,3,2,-6,-3,-5,-6,-9
13:22:56:914511,5,3,2,-6,-3,-5,-6,-9
13:22:56:915264,-28,-40,-17,-7,0,1,8,-5
13:22:56:928734,-11,-8,-6,-1,-1,2,3,2
13:22:56:944263,-11,-8,-6,-1,-1,2,3,2
13:22:56:951887,13,-1,-6,-3,-1,-1,0,4
13:22:56:952752,-8,-3,-6,-6,-2,-2,0,-4
13:22:56:959574,-8,-3,-6,-6,-2,-2,0,-4
13:22:56:960285,5,16,2,-2,0,-4,-1,-3
13:22:56:966245,-18,-12,-1,5,4,1,-5,-4
13:22:56:974515,-18,-12,-1,5,4,1,-5,-4
13:22:56:975255,-5,-21,0,-2,-4,-2,-7,-2
13:22:56:981264,6,2,-3,1,-1,-1,0,1
13:22:56:996992,6,2,-3,1,-1,-1,0,1
13:22:56:997744,-7,-3,-10,-2,4,0,-1,-6
13:22:57:11282,10,-8,-1,2,-2,1,2,1
13:22:57:19511,10,-8,-1,2,-2,1,2,1
13:22:57:20274,15,1,11,3,-4,-1,1,-4
13:22:57:26261,-4,0,9,0,0,2,-3,1
13:22:57:34496,-4,0,9,0,0,2,-3,1
13:22:57:35248,1,3,-7,-2,-2,0,-3,0
13:22:57:41287,-29,-15,-7,-2,-3,-3,-2,-4
13:22:57:57575,-29,-15,-7,-2,-3,-3,-2,-4
13:22:57:58275,-5,-21,0,2,2,2,-2,2
13:22:57:63772,4,1,-1,1,3,3,3,2
13:22:57:79508,4,1,-1,1,3,3,3,2
13:22:57:80254,-7,2,-5,-6,-6,-3,-6,-5
13:22:57:86264,7,6,8,-3,-2,-3,5,1
13:22:57:94880,7,6,8,-3,-2,-3,5,1
13:22:57:101881,-6,-10,3,0,3,-1,-2,-1
13:22:57:102746,-10,-16,-8,-3,3,4,2,-1
13:22:57:125138,-10,-16,-8,-3,3,4,2,-1
13:22:57:125884,9,11,5,0,-2,-4,-3,-2
13:22:57:126837,-4,-10,-5,5,4,1,-7,4
13:22:57:140038,-4,-10,-5,5,4,1,-7,4
13:22:57:140776,-13,3,-3,-2,0,-1,0,1
13:22:57:146232,17,12,-8,-4,-7,-2,0,1
13:22:57:154530,17,12,-8,-4,-7,-2,0,1
13:22:57:155279,-4,22,-13,2,-1,-2,4,-8
13:22:57:161269,11,20,7,4,1,-2,2,9
13:22:57:185123,11,20,7,4,1,-2,2,9
13:22:57:185877,6,19,16,3,0,2,-3,2
13:22:57:186750,-11,-5,-4,-2,-1,-7,1,-4
13:22:57:207673,-11,-5,-4,-2,-1,-7,1,-4
13:22:57:208403,13,5,1,-3,-2,0,-1,0
13:22:57:209265,7,-5,-1,0,-1,0,16,2
13:22:57:214482,7,-5,-1,0,-1,0,16,2
13:22:57:215230,13,9,-9,-4,0,-1,-8,-5
13:22:57:221230,5,28,4,-9,-4,0,0,-1
13:22:57:237003,5,28,4,-9,-4,0,0,-1
13:22:57:237739,-28,-4,14,18,4,-1,3,5
13:22:57:243810,0,-10,4,6,1,-3,-5,-1
13:22:57:259293,0,-10,4,6,1,-3,-5,-1
13:22:57:266889,7,9,3,-2,-4,0,-4,-2
13:22:57:267744,0,2,6,-2,-1,1,-4,-4
13:22:57:274549,0,2,6,-2,-1,1,-4,-4
13:22:57:275267,-5,9,-3,-6,0,0,3,2
13:22:57:288763,3,-9,-2,-4,-3,-2,8,5
13:22:57:297007,3,-9,-2,-4,-3,-2,8,5
13:22:57:297765,-19,-52,-19,-4,1,0,-6,-6
13:22:57:303728,-19,11,2,2,2,2,-7,-4
13:22:57:319525,-19,11,2,2,2,2,-7,-4
13:22:57:320241,-21,16,14,-6,-9,-6,0,0
13:22:57:326284,17,-9,-9,1,0,-4,-9,-10
13:22:57:334502,17,-9,-9,1,0,-4,-9,-10
13:22:57:335244,-10,8,7,-1,0,-1,-5,-3
13:22:57:341283,9,12,2,-4,-4,-3,6,6
13:22:57:357013,9,12,2,-4,-4,-3,6,6
13:22:57:357748,12,-25,-8,-2,2,-3,6,-2
13:22:57:363732,-18,18,12,-1,-2,1,10,-10
13:22:57:379531,-18,18,12,-1,-2,1,10,-10
13:22:57:380237,9,7,0,-2,1,-1,4,-1
13:22:57:386255,-16,-8,-3,-7,-1,-1,-10,-7
13:22:57:394254,-16,-8,-3,-7,-1,-1,-10,-7
13:22:57:401268,2,16,1,0,-2,-4,-5,-7
13:22:57:408784,-14,9,8,2,-3,0,-7,0
13:22:57:417015,-14,9,8,2,-3,0,-7,0
13:22:57:417761,9,15,5,5,0,1,0,4
13:22:57:423758,-3,-15,-6,-5,-6,-1,-10,-4
13:22:57:439546,-3,-15,-6,-5,-6,-1,-10,-4
13:22:57:440260,27,-33,-7,-2,-1,0,6,12
13:22:57:446272,-6,-63,-15,-4,2,2,-5,-1
13:22:57:454518,-6,-63,-15,-4,2,2,-5,-1
13:22:57:455256,-12,-18,-16,-3,1,-1,-10,1
13:22:57:468781,-4,7,-3,3,0,1,8,4
13:22:57:485122,-4,7,-3,3,0,1,8,4
13:22:57:485877,-2,15,8,-4,3,2,5,2
13:22:57:486737,3,7,-2,-2,4,-2,0,-11
13:22:57:491264,3,7,-2,-2,4,-2,0,-11
13:22:57:498761,-14,3,-8,-5,-3,0,-4,-10
13:22:57:506267,17,2,0,-1,1,-1,5,16
13:22:57:514493,17,2,0,-1,1,-1,5,16
13:22:57:515269,4,-6,1,0,0,2,1,-4
13:22:57:528745,2,-4,-9,0,1,-3,2,-2
13:22:57:537015,2,-4,-9,0,1,-3,2,-2
13:22:57:537745,-14,-22,-6,-2,3,2,2,2
13:22:57:543808,2,-7,-10,-12,0,1,-6,1
13:22:57:551387,2,-7,-10,-12,0,1,-6,1
13:22:57:566899,14,7,-6,-4,-3,-1,1,1
13:22:57:567760,2,-2,-8,1,-4,0,10,6
13:22:57:574549,2,-2,-8,1,-4,0,10,6
13:22:57:575240,-15,-11,7,0,-2,1,-3,-3
13:22:57:588798,-19,-13,-4,0,0,-3,-9,-9
13:22:57:597026,-19,-13,-4,0,0,-3,-9,-9
13:22:57:597776,8,16,9,2,-3,-2,2,2
13:22:57:603765,3,22,-1,-6,-4,-2,4,-2
13:22:57:611395,3,22,-1,-6,-4,-2,4,-2
13:22:57:618757,-27,-37,-12,2,1,-1,-3,-8
13:22:57:626298,-1,13,5,9,3,-4,-7,-7
13:22:57:634520,-1,13,5,9,3,-4,-7,-7
13:22:57:635252,23,-27,-43,-3,-3,-1,4,5
13:22:57:648756,4,0,-3,2,-2,-3,0,-3
13:22:57:657021,4,0,-3,2,-2,-3,0,-3
13:22:57:657776,8,15,11,-3,2,1,-3,3
13:22:57:663798,2,24,3,5,-2,-2,-7,-8
13:22:57:671404,2,24,3,5,-2,-2,-7,-8
13:22:57:678769,-4,18,4,1,0,-2,1,-3
13:22:57:686294,-9,22,17,5,3,1,-2,2
13:22:57:694516,-9,22,17,5,3,1,-2,2
13:22:57:695258,-13,-14,-3,-6,-2,-3,0,-11
13:22:57:708766,-8,-67,-17,-5,-3,-1,2,3
13:22:57:717012,-8,-67,-17,-5,-3,-1,2,3
13:22:57:717753,17,3,4,3,-6,-1,-6,-1
13:22:57:723768,25,-4,-6,-2,-1,-2,0,-2
13:22:57:731255,25,-4,-6,-2,-1,-2,0,-2
13:22:57:738761,9,22,4,-8,-5,-3,-2,0
13:22:57:746268,-15,23,13,-6,1,5,3,-1
13:22:57:761993,-15,23,13,-6,1,5,3,-1
13:22:57:762763,-6,9,13,-1,-3,-3,6,7
13:22:57:768748,17,23,2,0,-5,1,-9,-5
13:22:57:777012,17,23,2,0,-5,1,-9,-5
13:22:57:777750,-2,-10,-2,2,4,1,3,3
13:22:57:783747,-1,-23,1,2,0,0,-5,-1
13:22:57:791285,-1,-23,1,2,0,0,-5,-1
13:22:57:798767,4,51,13,1,1,-2,-2,4
13:22:57:806280,4,27,6,4,-2,-3,3,7
13:22:57:822032,4,27,6,4,-2,-3,3,7
13:22:57:822766,-9,-16,0,0,0,0,3,7
13:22:57:828749,-18,-32,-7,-9,-4,-1,-9,-12
13:22:57:845155,-18,-32,-7,-9,-4,-1,-9,-12
13:22:57:846011,-7,-5,-9,1,4,-1,12,3
13:22:57:846778,-17,-13,-15,8,5,2,-5,-11
13:22:57:851259,-17,-13,-15,8,5,2,-5,-11
13:22:57:858779,-7,-1,-2,0,2,3,-15,-12
13:22:57:866275,15,-33,-5,0,0,-1,3,6
13:22:57:874538,15,-33,-5,0,0,-1,3,6
13:22:57:875284,-9,-9,-9,-4,-4,0,-4,-9
13:22:57:888778,-2,0,-8,-3,2,0,4,0
13:22:57:896988,-2,0,-8,-3,2,0,4,0
13:22:57:897756,-1,-16,-18,-1,0,0,-5,-2
13:22:57:903762,3,54,3,0,-8,-7,-1,-1
13:22:57:911290,3,54,3,0,-8,-7,-1,-1
13:22:57:918745,-1,-5,-5,-1,-3,0,-5,-4
13:22:57:926271,-6,-23,-7,-5,-2,-2,-6,-2
13:22:57:934520,-6,-23,-7,-5,-2,-2,-6,-2
13:22:57:935269,13,-43,-4,-4,-3,-1,-9,6
13:22:57:948774,-30,-31,-5,-3,2,-2,10,-2
13:22:57:957004,-30,-31,-5,-3,2,-2,10,-2
13:22:57:957809,5,-53,3,2,10,3,4,-4
13:22:57:963768,-3,4,0,-2,-2,1,-1,-16
13:22:57:971283,-3,4,0,-2,-2,1,-1,-16
13:22:57:978752,-3,-3,-1,2,2,-5,-3,-15
13:22:57:986261,-2,24,14,-4,-3,1,-3,3
13:22:57:994517,-2,24,14,-4,-3,1,-3,3
13:22:57:995252,4,10,-3,0,-6,-6,-4,1
13:22:58:17642,-1,16,6,3,0,-2,-9,0
13:22:58:18387,-1,16,6,3,0,-2,-9,0
13:22:58:19257,-9,25,-7,-3,-1,-4,1,1
13:22:58:23790,9,2,-7,-11,2,-1,-6,4
13:22:58:39548,9,2,-7,-11,2,-1,-6,4
13:22:58:40273,-7,-10,0,-1,1,3,-1,-6
13:22:58:46274,17,-10,1,-2,-2,-2,-3,1
13:22:58:54266,17,-10,1,-2,-2,-2,-3,1
13:22:58:61274,0,4,1,-4,-2,3,7,0
13:22:58:68764,-18,-64,-17,0,10,4,-6,-6
13:22:58:77010,-18,-64,-17,0,10,4,-6,-6
13:22:58:77773,7,3,3,-3,-7,-4,7,-1
13:22:58:83768,7,32,15,0,2,-3,-1,-4
13:22:58:99516,7,32,15,0,2,-3,-1,-4
13:22:58:100244,-13,10,-4,-8,1,-1,-4,6
13:22:58:106267,4,3,-8,0,-1,0,-2,2
13:22:58:121927,4,3,-8,0,-1,0,-2,2
13:22:58:122770,2,-11,-6,-7,1,0,-2,-6
13:22:58:128763,-6,20,-4,-6,-3,0,0,-1
13:22:58:137022,-6,20,-4,-6,-3,0,0,-1
13:22:58:137766,-9,19,8,3,0,0,3,9
13:22:58:143793,14,9,11,1,-4,-2,-4,7
13:22:58:151249,14,9,11,1,-4,-2,-4,7
13:22:58:158788,-7,-10,0,-1,-1,-6,-7,-5
13:22:58:166250,-4,12,-4,2,0,-1,3,4
13:22:58:174507,-4,12,-4,2,0,-1,3,4
13:22:58:175277,2,7,-12,0,3,0,1,-1
13:22:58:188792,2,-33,1,-8,-3,2,3,1
13:22:58:197003,2,-33,1,-8,-3,2,3,1
13:22:58:197763,4,4,9,2,-7,-1,3,-3
13:22:58:203778,18,-16,-6,3,3,-1,14,14
13:22:58:211268,18,-16,-6,3,3,-1,14,14
13:22:58:218765,5,40,13,0,-3,-1,-2,5
13:22:58:226327,2,-6,-5,3,2,-1,4,-10
13:22:58:234505,2,-6,-5,3,2,-1,4,-10
13:22:58:235259,-8,12,-7,2,6,1,-1,-3
13:22:58:248756,10,16,1,-5,-5,-3,-10,-27
13:22:58:257070,10,16,1,-5,-5,-3,-10,-27
13:22:58:257784,1,-7,2,1,1,3,-6,0
13:22:58:263753,-32,10,1,0,2,3,2,3
13:22:58:271420,-32,10,1,0,2,3,2,3
13:22:58:278774,1,-6,-4,-5,-2,-4,-1,-1
13:22:58:286269,21,-28,-8,-3,0,-1,-4,8
13:22:58:294410,21,-28,-8,-3,0,-1,-4,8
13:22:58:295248,-4,-1,9,1,0,3,-4,-4
13:22:58:317648,-7,1,8,2,1,-2,-5,0
13:22:58:318387,-7,1,8,2,1,-2,-5,0
13:22:58:319260,-4,12,7,-4,0,-3,6,3
13:22:58:323778,-7,-30,0,4,1,-1,-8,-3
13:22:58:331262,-7,-30,0,4,1,-1,-8,-3
13:22:58:338771,0,-21,-3,-2,1,-2,-8,-3
13:22:58:346266,-3,0,-20,-12,1,-4,1,1
13:22:58:353902,-3,0,-20,-12,1,-4,1,1
13:22:58:361276,-7,-6,-5,3,-2,-2,0,-4
13:22:58:368759,16,1,-4,3,-4,0,-3,1
13:22:58:376903,16,1,-4,3,-4,0,-3,1
13:22:58:377760,6,16,-3,-6,-6,-4,-1,5
13:22:58:400137,-4,20,10,5,-1,0,2,6
13:22:58:400869,-4,20,10,5,-1,0,2,6
13:22:58:401767,12,-51,-21,2,6,4,-4,-6
13:22:58:406295,10,27,3,-6,-2,0,-1,8
13:22:58:413808,10,27,3,-6,-2,0,-1,8
13:22:58:421300,9,-7,-4,-4,-3,1,-6,3
13:22:58:428777,-16,36,10,3,-1,-1,5,1
13:22:58:437009,-16,36,10,3,-1,-1,5,1
13:22:58:437759,3,-21,3,-2,1,-1,-5,-4
13:22:58:452008,-16,34,-1,-7,-7,-4,-8,-10
13:22:58:452748,-16,34,-1,-7,-7,-4,-8,-10
13:22:58:458787,1,1,0,0,-3,3,3,4
13:22:58:466276,8,-1,-12,-12,-6,-2,-2,15
13:22:58:473914,8,-1,-12,-12,-6,-2,-2,15
13:22:58:481282,-9,3,6,3,-5,-5,-5,8
13:22:58:488841,-5,-92,-6,3,3,0,-9,-6
13:22:58:496886,-5,-92,-6,3,3,0,-9,-6
13:22:58:497749,-12,-6,0,0,-4,-4,-1,-9
13:22:58:511894,-17,-27,4,-1,-3,-1,0,-5
13:22:58:512758,-17,-27,4,-1,-3,-1,0,-5
13:22:58:518781,4,27,10,3,0,-1,-3,-4
13:22:58:526283,-10,4,-4,-2,1,4,6,-4
13:22:58:533778,-10,4,-4,-2,1,4,6,-4
13:22:58:541293,9,38,-2,6,-1,1,2,1
13:22:58:548785,0,13,6,11,2,0,3,-9
13:22:58:557059,0,13,6,11,2,0,3,-9
13:22:58:557776,7,12,0,-1,-3,-2,11,6
13:22:58:571904,-47,3,-5,0,-1,-1,-2,-14
13:22:58:572786,-47,3,-5,0,-1,-1,-2,-14
13:22:58:578764,-1,22,4,-7,-5,-2,-5,-7
13:22:58:586280,16,25,5,-1,2,-3,-1,7
13:22:58:593821,16,25,5,-1,2,-3,-1,7
13:22:58:601277,-4,-11,-11,-2,-3,-2,1,-3
13:22:58:608776,22,2,-11,-2,1,0,-1,0
13:22:58:617012,22,2,-11,-2,1,0,-1,0
13:22:58:617750,11,-15,-4,-3,1,-3,-3,3
13:22:58:631920,4,-31,-10,-1,-1,0,-1,-3
13:22:58:632751,4,-31,-10,-1,-1,0,-1,-3
13:22:58:638792,12,9,5,-2,0,-2,-6,0
13:22:58:646298,7,-2,9,2,-3,0,12,8
13:22:58:653759,7,-2,9,2,-3,0,12,8
13:22:58:661290,-1,-4,-4,-4,4,1,-2,-3
13:22:58:677659,-9,43,21,0,-3,-1,-4,-6
13:22:58:678411,-9,43,21,0,-3,-1,-4,-6
13:22:58:679252,-10,5,-4,8,1,-1,2,0
13:22:58:691920,1,-25,-12,-1,-1,-2,-2,-1
13:22:58:692784,1,-25,-12,-1,-1,-2,-2,-1
13:22:58:698787,-33,-23,-4,-7,2,-3,4,-8
13:22:58:706312,15,-22,-6,-6,0,1,-4,1
13:22:58:713767,15,-22,-6,-6,0,1,-4,1
13:22:58:721298,-13,-30,-9,-1,-2,2,-3,-5
13:22:58:728762,14,28,-7,-1,0,0,-4,0
13:22:58:737003,14,28,-7,-1,0,0,-4,0
13:22:58:737777,1,-10,-8,-2,-6,-6,-2,8
13:22:58:752657,16,-17,0,3,-3,-2,-1,-3
13:22:58:753382,16,-17,0,3,-3,-2,-1,-3
13:22:58:758787,22,19,10,1,-3,1,0,7
13:22:58:766288,18,-6,0,-2,-2,-2,1,4
13:22:58:773782,18,-6,0,-2,-2,-2,1,4
13:22:58:781311,-5,-25,-2,-11,1,0,0,-3
13:22:58:788775,-15,37,19,-3,-2,-1,-5,-4
13:22:58:797042,-15,37,19,-3,-2,-1,-5,-4
13:22:58:797784,4,19,-4,3,-2,-7,1,-2
13:22:58:812009,-18,-2,-8,2,1,-1,-6,-5
13:22:58:812757,-18,-2,-8,2,1,-1,-6,-5
13:22:58:818769,-20,-68,-6,6,6,6,-2,-8
13:22:58:826300,1,12,-3,7,1,-1,-4,-4
13:22:58:833942,1,12,-3,7,1,-1,-4,-4
13:22:58:841321,12,5,-7,1,2,1,-7,-4
13:22:58:848778,-1,-2,10,3,4,-1,-1,2
13:22:58:857410,-1,-2,10,3,4,-1,-1,2
13:22:58:863777,2,8,0,1,-1,1,3,1
13:22:58:871926,-2,-19,-13,-3,-4,0,3,0
13:22:58:872771,-2,-19,-13,-3,-4,0,3,0
13:22:58:878775,-1,-28,0,3,1,0,-4,-3
13:22:58:886272,-12,-15,-9,-4,-3,-3,-2,1
13:22:58:893776,-12,-15,-9,-4,-3,-3,-2,1
13:22:58:901300,-12,-19,1,7,1,0,8,3
13:22:58:908821,-20,8,-5,-7,-2,-2,3,-7
13:22:58:917024,-20,8,-5,-7,-2,-2,3,-7
13:22:58:917771,-4,29,11,-9,-1,1,-3,-6
13:22:58:931908,-5,-26,-1,1,0,0,-6,-3
13:22:58:932762,-5,-26,-1,1,0,0,-6,-3
13:22:58:938765,4,-39,-23,-6,0,0,-5,1
13:22:58:954416,9,-6,12,1,4,0,4,2
13:22:58:955279,9,-6,12,1,4,0,4,2
13:22:58:961281,-7,14,13,3,-3,2,-2,-5
13:22:58:968767,14,23,1,0,-3,0,-2,0
13:22:58:977059,14,23,1,0,-3,0,-2,0
13:22:58:977760,-1,10,-2,-2,-2,-3,-6,1
13:22:58:991908,10,28,11,-4,2,-1,14,8
13:22:58:992787,10,28,11,-4,2,-1,14,8
13:22:58:998771,-4,1,-10,-4,0,-1,-8,-4
13:22:59:6281,-1,-8,-11,-5,-4,-2,1,-1
13:22:59:13785,-1,-8,-11,-5,-4,-2,1,-1
13:22:59:21268,5,26,4,0,3,-2,4,3
13:22:59:37635,0,30,8,-3,-1,2,-6,2
13:22:59:38389,0,30,8,-3,-1,2,-6,2
13:22:59:39262,11,61,18,1,-4,-3,2,2
13:22:59:51903,-16,22,6,-1,-3,-4,-10,-8
13:22:59:52750,-16,22,6,-1,-3,-4,-10,-8
13:22:59:66912,-25,-6,-1,-2,-3,-5,-3,-3
13:22:59:67764,-7,-48,-16,3,4,0,-1,-5
13:22:59:73901,-7,-48,-16,3,4,0,-1,-5
13:22:59:81301,8,-2,8,-7,-3,-1,-2,3
13:22:59:88810,4,-19,3,1,0,1,9,1
13:22:59:96910,4,-19,3,1,0,1,9,1
13:22:59:97789,-3,-9,7,7,6,3,1,-1
13:22:59:120148,-7,-11,-14,0,-1,-2,-10,-6
13:22:59:121023,-7,-11,-14,0,-1,-2,-10,-6
13:22:59:121784,0,0,-10,-8,-3,1,0,-2
13:22:59:126282,-1,-37,-6,0,1,-2,-7,1
13:22:59:133911,-1,-37,-6,0,1,-2,-7,1
13:22:59:149408,-14,31,11,3,-4,-5,-3,-3
13:22:59:150265,13,21,14,-3,-1,1,2,-1
13:22:59:157029,13,21,14,-3,-1,1,2,-1
13:22:59:157762,-7,37,10,1,0,1,-1,-8
13:22:59:171904,-24,-55,-12,0,5,1,0,-6
13:22:59:172777,-24,-55,-12,0,5,1,0,-6
13:22:59:178764,13,23,8,-2,-1,4,2,0
13:22:59:186287,7,18,-11,-1,-7,0,-3,-3
13:22:59:193794,7,18,-11,-1,-7,0,-3,-3
13:22:59:201270,1,-34,-11,-7,-1,-3,2,0
13:22:59:208792,3,2,5,0,-5,-3,-5,3
13:22:59:217017,3,2,5,0,-5,-3,-5,3
13:22:59:217763,6,-41,-25,1,-3,-3,-2,-3
13:22:59:232417,-14,2,-3,-4,2,1,-1,2
13:22:59:233272,-14,2,-3,-4,2,1,-1,2
13:22:59:238789,15,-8,1,3,-2,1,13,9
13:22:59:246296,-18,-12,0,7,5,1,-1,-9
13:22:59:253783,-18,-12,0,7,5,1,-1,-9
13:22:59:261329,-1,-4,0,0,4,-2,-6,-1
13:22:59:268767,8,31,1,-1,-7,-1,1,0
13:22:59:277031,8,31,1,-1,-7,-1,1,0
13:22:59:277795,-9,-65,-5,3,4,3,-8,-8
13:22:59:291911,4,16,-24,-13,-5,0,6,2
13:22:59:292769,4,16,-24,-13,-5,0,6,2
13:22:59:298754,5,24,5,-3,-3,-5,-2,0
13:22:59:314912,12,26,18,4,0,1,-4,4
13:22:59:315758,12,26,18,4,0,1,-4,4
13:22:59:321272,2,30,9,3,-3,-2,2,-2
13:22:59:328792,3,-11,-1,-6,-1,-5,7,-2
13:22:59:336267,3,-11,-1,-6,-1,-5,7,-2
13:22:59:343787,-22,-11,-4,-4,0,1,-5,-9
13:22:59:351907,21,-5,-1,0,4,0,-3,-2
13:22:59:352766,21,-5,-1,0,4,0,-3,-2
13:22:59:358792,11,-7,-8,-2,-1,-3,-3,-2
13:22:59:374450,3,0,-2,4,-3,-6,-3,1
13:22:59:375282,3,0,-2,4,-3,-6,-3,1
13:22:59:381291,-6,-31,-14,-2,3,1,-2,0
13:22:59:397056,-1,13,6,-3,-2,-1,11,5
13:22:59:397782,-1,13,6,-3,-2,-1,11,5
13:22:59:403774,-7,-15,-5,-7,-1,-3,4,0
13:22:59:411938,-4,0,1,0,0,4,-4,-4
13:22:59:412777,-4,0,1,0,0,4,-4,-4
13:22:59:418812,2,-9,-2,0,-1,2,4,3
13:22:59:434508,7,14,-2,-6,-3,-5,-1,4
13:22:59:435281,7,14,-2,-6,-3,-5,-1,4
13:22:59:441320,3,9,-4,-5,-4,-5,-2,0
13:22:59:448797,-15,-41,-13,-3,-1,2,9,-2
13:22:59:456283,-15,-41,-13,-3,-1,2,9,-2
13:22:59:463782,19,4,-2,1,-7,-4,0,1
13:22:59:480043,-10,-10,-8,2,-1,-1,-6,-8
13:22:59:480906,-10,-10,-8,2,-1,-1,-6,-8
13:22:59:481778,-6,-4,-32,-4,7,2,-1,0
13:22:59:494528,-4,6,4,0,-1,-1,0,5
13:22:59:495280,-4,6,4,0,-1,-1,0,5
13:22:59:501275,-6,-21,1,-4,-3,1,-6,-1
13:22:59:508801,2,-17,-39,-2,4,4,-5,-3
13:22:59:516420,2,-17,-39,-2,4,4,-5,-3
13:22:59:523831,8,3,12,-4,1,-2,6,5
13:22:59:531888,-10,-4,1,-3,1,2,4,-1
13:22:59:532781,-10,-4,1,-3,1,2,4,-1
13:22:59:538766,-4,71,13,6,-3,0,12,4
13:22:59:554426,14,-6,12,0,1,-4,-2,5
13:22:59:555279,14,-6,12,0,1,-4,-2,5
13:22:59:561303,-9,-17,0,0,0,-1,-8,-10
13:22:59:568773,-5,5,8,-4,-2,-2,-3,-3
13:22:59:576277,-5,5,8,-4,-2,-2,-3,-3
13:22:59:592581,0,-9,6,3,2,0,-6,-6
13:22:59:593426,-2,3,-12,-4,3,-3,-17,-11
13:22:59:594282,-2,3,-12,-4,3,-3,-17,-11
13:22:59:598771,-12,0,-22,-17,-2,-2,-1,-2
13:22:59:614525,2,0,14,-3,2,1,3,3
13:22:59:615280,2,0,14,-3,2,1,3,3
13:22:59:621324,-3,9,-3,-3,-1,1,2,0
13:22:59:628777,-6,4,3,4,-1,-1,-4,1
13:22:59:636378,-6,4,3,4,-1,-1,-4,1
13:22:59:643792,4,-2,-2,0,-1,0,1,7
13:22:59:651889,-7,-10,-16,1,-4,-2,0,-1
13:22:59:652753,-7,-10,-16,1,-4,-2,0,-1
13:22:59:658796,-25,-7,-9,-1,-5,0,2,-4
13:22:59:674897,8,-35,6,-3,-4,-5,1,2
13:22:59:675788,8,-35,6,-3,-4,-5,1,2
13:22:59:681283,2,7,1,1,1,0,-3,-1
13:22:59:688785,-8,1,9,-2,1,-1,-7,-8
13:22:59:696269,-8,1,9,-2,1,-1,-7,-8
13:22:59:703766,33,15,9,2,-2,1,-3,-1
13:22:59:711892,12,54,14,1,-2,-3,4,7
13:22:59:712766,12,54,14,1,-2,-3,4,7
13:22:59:718758,2,-10,7,4,-1,-7,-7,-4
13:22:59:734419,-3,15,5,3,-1,0,2,-3
13:22:59:735275,-3,15,5,3,-1,0,2,-3
13:22:59:741322,10,20,-1,-4,-1,0,-1,2
13:22:59:756929,10,23,3,0,0,-2,0,-3
13:22:59:757821,10,23,3,0,0,-2,0,-3
13:22:59:763778,-5,1,-1,-1,-2,4,6,0
13:22:59:771902,-13,-12,-5,5,4,-1,1,-4
13:22:59:772773,-13,-12,-5,5,4,-1,1,-4
13:22:59:778784,-8,-30,-12,-1,0,0,5,8
13:22:59:794421,-3,-12,-10,-2,-3,0,-3,-6
13:22:59:795270,-3,-12,-10,-2,-3,0,-3,-6
13:22:59:801312,-22,8,14,1,0,-2,-3,-10
13:22:59:808785,12,8,1,-4,-5,0,-4,-3
13:22:59:816260,12,8,1,-4,-5,0,-4,-3
13:22:59:823760,-13,73,-4,-11,-5,-1,-4,-4
13:22:59:840127,13,26,7,-1,4,1,2,7
13:22:59:840932,13,26,7,-1,4,1,2,7
13:22:59:841776,-6,-39,2,8,5,-4,-13,-3
13:22:59:854527,-24,-34,-1,0,-2,-4,-4,-1
13:22:59:855279,-24,-34,-1,0,-2,-4,-4,-1
13:22:59:861282,-8,9,10,2,0,-4,0,-2
13:22:59:868794,10,-13,-23,-2,1,4,8,2
13:22:59:876272,10,-13,-23,-2,1,4,8,2
13:22:59:883782,0,-14,-2,5,2,1,-6,-3
13:22:59:891908,4,23,7,-1,0,-1,2,0
13:22:59:892788,4,23,7,-1,0,-1,2,0
13:22:59:898782,15,-14,3,1,0,2,18,8
13:22:59:914409,-11,-15,-4,-2,-2,-5,-3,-11
13:22:59:915278,-11,-15,-4,-2,-2,-5,-3,-11
13:22:59:921281,13,-4,-11,-4,2,0,-10,-9
13:22:59:928769,-9,-8,-1,1,2,3,-9,4
13:22:59:936338,-9,-8,-1,1,2,3,-9,4
13:22:59:952658,5,-6,6,0,-1,-1,1,0
13:22:59:953430,-9,9,6,2,5,1,0,-6
13:22:59:954275,-9,9,6,2,5,1,0,-6
13:22:59:958818,-13,0,8,-4,-4,-1,-1,3
13:22:59:974178,-8,40,5,-7,-3,-2,-1,0
13:22:59:982029,-8,40,5,-7,-3,-2,-1,0
13:22:59:982766,-16,-26,-6,-4,1,-1,-1,-3
13:22:59:988779,4,-43,3,1,-4,-1,6,6
13:22:59:996301,4,-43,3,1,-4,-1,6,6
13:23:00:3795,-4,-14,-13,0,0,-1,-3,-7
13:23:00:11906,9,4,3,2,0,2,-7,-6
13:23:00:12802,9,4,3,2,0,2,-7,-6
13:23:00:18760,5,-5,13,7,2,1,-1,3
13:23:00:34927,4,-16,-2,-1,1,-3,-5,-2
13:23:00:35796,4,-16,-2,-1,1,-3,-5,-2
13:23:00:41301,15,57,11,1,-2,-1,1,2
13:23:00:48766,23,-9,-4,5,0,1,-5,4
13:23:00:56317,23,-9,-4,5,0,1,-5,4
13:23:00:63782,9,14,-6,-2,-3,-1,-6,-2
13:23:00:71898,-20,11,10,-1,-2,0,13,-1
13:23:00:72780,-20,11,10,-1,-2,0,13,-1
13:23:00:78757,-4,-29,-3,-1,0,2,9,2
13:23:00:94439,-13,-10,4,-7,-6,-4,-5,-5
13:23:00:95267,-13,-10,4,-7,-6,-4,-5,-5
13:23:00:101280,5,-4,5,-5,2,-2,-10,-7
13:23:00:116907,-10,7,-8,-1,-1,-2,-2,-3
13:23:00:117774,-10,7,-8,-1,-1,-2,-2,-3
13:23:00:123768,-3,-1,-17,1,-1,4,1,-4
13:23:00:131893,-8,-9,-17,-9,-3,-1,6,4
13:23:00:132775,-8,-9,-17,-9,-3,-1,6,4
13:23:00:146273,2,-48,-2,-1,-4,-3,6,7
13:23:00:154396,20,-1,-7,-2,0,-1,-4,5
13:23:00:155256,20,-1,-7,-2,0,-1,-4,5
13:23:00:161296,1,-13,-8,-3,2,-1,-3,0
13:23:00:168791,-2,-6,7,4,-1,-2,4,-3
13:23:00:176330,-2,-6,7,4,-1,-2,4,-3
13:23:00:183776,9,8,-3,-6,-3,-1,4,0
13:23:00:191962,-13,5,-20,5,4,-1,-5,-2
13:23:00:192774,-13,5,-20,5,4,-1,-5,-2
13:23:00:198771,-3,-46,-7,4,4,4,-1,-4
13:23:00:214449,-3,0,1,-1,2,0,1,-2
13:23:00:215281,-3,0,1,-1,2,0,1,-2
13:23:00:229410,0,2,-3,1,0,1,-7,-4
13:23:00:230322,13,46,16,1,-2,1,1,2
13:23:00:236302,13,46,16,1,-2,1,1,2
13:23:00:243825,5,1,18,1,0,-6,-1,2
13:23:00:251893,-30,-35,-4,-6,-5,-7,-3,-6
13:23:00:252755,-30,-35,-4,-6,-5,-7,-3,-6
13:23:00:266328,-26,8,10,-6,-1,-1,-2,1
13:23:00:274156,-1,-25,5,-3,0,-2,-3,-3
13:23:00:281899,-1,-25,5,-3,0,-2,-3,-3
13:23:00:282782,-2,3,4,3,-3,-5,4,-16
13:23:00:296927,3,48,10,0,-2,1,0,3
13:23:00:297815,3,48,10,0,-2,1,0,3
13:23:00:312672,-2,10,-6,-3,0,-5,-4,-2
13:23:00:313390,17,2,0,-2,2,2,-21,-3
13:23:00:314284,17,2,0,-2,2,2,-21,-3
13:23:00:326287,-19,27,13,5,-6,-3,-3,1
13:23:00:334898,12,-6,16,5,0,1,4,8
13:23:00:342044,12,-6,16,5,0,1,4,8
13:23:00:342780,-2,-20,-17,-7,2,1,5,5
13:23:00:356902,-7,-7,-15,-5,-2,3,9,-2
13:23:00:357812,-7,-7,-15,-5,-2,3,9,-2
13:23:00:363790,8,21,-8,-1,-7,-1,-1,-4
13:23:00:372030,-10,-23,-16,-9,-1,-3,3,-8
13:23:00:372762,-10,-23,-16,-9,-1,-3,3,-8
13:23:00:395174,10,-20,-9,-4,2,-3,-5,3
13:23:00:395907,-12,-26,-2,1,-2,0,-27,-16
13:23:00:396782,-12,-26,-2,1,-2,0,-27,-16
13:23:00:401324,10,40,9,3,3,-4,7,9
13:23:00:416911,-1,-11,-1,-1,1,-2,7,3
13:23:00:417776,-1,-11,-1,-1,1,-2,7,3
13:23:00:423806,-2,-4,-3,-1,-2,3,-8,-4
13:23:00:431928,-5,-9,-15,-6,2,5,5,4
13:23:00:432795,-5,-9,-15,-6,2,5,5,4
13:23:00:446311,-7,1,-7,1,-4,-11,-17,-3
13:23:00:454407,-16,-10,3,0,-4,-4,1,11
13:23:00:455268,-16,-10,3,0,-4,-4,1,11
13:23:00:461302,-16,-16,-11,-3,2,7,4,1
13:23:00:477440,15,-5,5,-2,0,-7,-3,-1
13:23:00:478301,15,-5,5,-2,0,-7,-3,-1
13:23:00:483786,18,14,-2,-16,-7,0,3,0
13:23:00:491941,6,-3,0,-1,-1,0,2,5
13:23:00:492802,6,-3,0,-1,-1,0,2,5
13:23:00:506793,-13,-2,-17,0,3,-1,-2,-4
13:23:00:514540,-1,-9,0,0,-1,3,-9,-12
13:23:00:515276,-1,-9,0,0,-1,3,-9,-12
13:23:00:537671,-5,-7,8,3,2,1,0,-8
13:23:00:538411,11,23,2,0,-4,-6,8,3
13:23:00:539283,11,23,2,0,-4,-6,8,3
13:23:00:543826,8,-2,5,3,-1,6,5,-6
13:23:00:551929,10,-3,-5,1,-3,1,6,-2
13:23:00:552806,10,-3,-5,1,-3,1,6,-2
13:23:00:566288,-26,-22,-37,-6,3,0,-23,-11
13:23:00:574437,-6,54,22,1,2,2,6,13
13:23:00:575289,-6,54,22,1,2,2,6,13
13:23:00:581336,17,12,20,5,0,-1,9,5
13:23:00:596920,-4,-9,-4,-6,-5,-5,-6,-9
13:23:00:597783,-4,-9,-4,-6,-5,-5,-6,-9
13:23:00:603798,0,1,12,-2,-1,-3,-7,3
13:23:00:619413,-1,-4,-2,-3,-4,-3,13,5
13:23:00:620288,-1,-4,-2,-3,-4,-3,13,5
13:23:00:626314,10,-9,-14,-2,0,-2,-4,0
13:23:00:634398,10,1,-6,0,1,-6,-8,-2
13:23:00:635275,10,1,-6,0,1,-6,-8,-2
13:23:00:641301,2,30,17,1,-4,-1,13,4
13:23:00:656937,-4,3,-5,2,2,-4,-3,-9
13:23:00:657805,-4,3,-5,2,2,-4,-3,-9
13:23:00:671327,0,-6,-4,-9,-3,0,-1,3
13:23:00:679413,0,-6,-4,-9,-3,0,-1,3
13:23:00:680285,7,-9,-2,7,2,-1,3,0
13:23:00:686303,6,-9,10,3,1,1,0,4
13:23:00:695030,6,-9,10,3,1,1,0,4
13:23:00:701908,0,-8,10,-1,-3,2,2,-5
13:23:00:702779,-10,-3,0,4,-1,1,6,1
13:23:00:716898,-10,-3,0,4,-1,1,6,1
13:23:00:717802,12,10,-24,-1,-1,2,-3,-3
13:23:00:731310,6,16,11,4,0,-2,-5,1
13:23:00:739589,6,16,11,4,0,-2,-5,1
13:23:00:740302,-1,-14,-2,-6,0,-3,2,6
13:23:00:746308,19,-27,-4,3,-3,4,-2,-1
13:23:00:754410,19,-27,-4,3,-3,4,-2,-1
13:23:00:755284,-21,-25,-8,-2,0,-4,-11,-6
13:23:00:761335,13,0,0,-1,0,-2,14,14
13:23:00:785172,13,0,0,-1,0,-2,14,14
13:23:00:785958,-28,-62,-17,-3,1,0,-3,-10
13:23:00:786815,-15,-13,-20,-6,0,-4,-20,-13
13:23:00:806814,-15,-13,-20,-6,0,-4,-20,-13
13:23:00:815796,3,-22,-6,-1,5,-2,1,9
13:23:00:816546,-13,-39,-24,2,1,-11,-13,-8
13:23:00:817434,-13,-39,-24,2,1,-11,-13,-8
13:23:00:818152,-13,28,-3,-1,-2,9,7,1
13:23:00:821287,-5,32,11,-1,-3,-1,18,11
13:23:00:836928,-5,32,11,-1,-3,-1,18,11
13:23:00:837782,7,12,11,-4,-4,-1,1,-2
13:23:00:843787,3,13,7,0,1,0,24,5
13:23:00:859411,3,13,7,0,1,0,24,5
13:23:00:860290,11,12,7,1,1,1,-1,-2
13:23:00:866290,2,-6,2,4,2,-3,-6,-4
13:23:00:874417,2,-6,2,4,2,-3,-6,-4
13:23:00:875291,-19,-43,-8,-1,4,3,-1,-2
13:23:00:881302,-13,10,-3,-5,-6,1,4,4
13:23:00:896909,-13,10,-3,-5,-6,1,4,4
13:23:00:897776,18,36,8,3,1,-2,-14,-4
13:23:00:903790,-1,-20,-11,-10,0,1,-8,-10
13:23:00:919532,-1,-20,-11,-10,0,1,-8,-10
13:23:00:920273,2,-7,3,5,0,-2,-6,-5
13:23:00:926341,2,3,15,1,-1,4,-4,-3
13:23:00:934438,2,3,15,1,-1,4,-4,-3
13:23:00:935301,9,22,8,-3,-3,-3,-2,1
13:23:00:948778,-6,-7,-2,-5,0,0,-14,-4
13:23:00:956922,-6,-7,-2,-5,0,0,-14,-4
13:23:00:957827,1,3,-6,-4,-6,-2,-4,-4
13:23:00:963780,-16,-25,-5,-3,3,0,-6,-2
13:23:00:979905,-16,-25,-5,-3,3,0,-6,-2
13:23:00:980775,-13,-2,3,-2,-4,-1,-4,-5
13:23:00:986275,-5,-7,-27,-1,-3,-5,1,-3
13:23:00:994439,-5,-7,-27,-1,-3,-5,1,-3
13:23:00:995267,7,3,9,2,-1,-1,5,4
13:23:01:1338,-3,7,6,-2,-3,0,-2,-4
13:23:01:17054,-3,7,6,-2,-3,0,-2,-4
13:23:01:17789,5,42,11,0,-5,-1,-6,1
13:23:01:23786,-8,7,10,-3,1,-1,5,-2
13:23:01:39542,-8,7,10,-3,1,-1,5,-2
13:23:01:40324,-2,13,1,3,-4,-5,11,3
13:23:01:46273,9,14,-19,-5,-2,-5,2,-3
13:23:01:62669,9,14,-19,-5,-2,-5,2,-3
13:23:01:63411,13,-13,1,1,0,1,7,9
13:23:01:64268,-20,-9,-4,0,-1,-3,-13,-3
13:23:01:76960,-20,-9,-4,0,-1,-3,-13,-3
13:23:01:77788,-16,46,-7,-6,-3,-5,-7,-5
13:23:01:83799,2,-4,11,3,-2,-1,-8,-6
13:23:01:99433,2,-4,11,3,-2,-1,-8,-6
13:23:01:100277,-10,-9,-3,-1,-2,-3,2,4
13:23:01:106317,-5,-47,-7,3,2,2,5,-3
13:23:01:114422,-5,-47,-7,3,2,2,5,-3
13:23:01:115273,0,-29,-12,-4,3,7,-4,-2
13:23:01:121333,-2,14,5,-1,-3,2,3,0
13:23:01:145164,-2,14,5,-1,-3,2,3,0
13:23:01:145913,2,-11,2,-6,-4,-4,-3,-5
13:23:01:146787,14,18,3,1,-3,-4,-6,0
13:23:01:159598,14,18,3,1,-3,-4,-6,0
13:23:01:160325,-12,6,-17,-4,1,-3,-2,-5
13:23:01:166297,14,-2,7,-1,3,4,1,1
13:23:01:174463,14,-2,7,-1,3,4,1,1
13:23:01:175280,6,-26,-17,-5,-2,-1,8,-4
13:23:01:188791,-11,-20,-4,0,2,5,17,6
13:23:01:205185,-11,-20,-4,0,2,5,17,6
13:23:01:205917,-5,-14,-4,-2,2,11,-4,-2
13:23:01:206793,2,29,11,3,1,-2,-6,-2
13:23:01:227562,2,29,11,3,1,-2,-6,-2
13:23:01:228422,-10,-35,-9,-2,0,2,-12,-5
13:23:01:229148,4,8,-3,-2,-4,-1,-6,-4
13:23:01:234399,4,8,-3,-2,-4,-1,-6,-4
13:23:01:235274,0,14,-10,2,1,-2,25,11
13:23:01:257750,-4,-12,-14,-5,3,2,-5,-5
13:23:01:258440,-4,-12,-14,-5,3,2,-5,-5
13:23:01:259313,1,-54,-20,-4,2,-9,-15,-3
13:23:01:263808,4,-16,-6,-2,-1,-7,-6,-1
13:23:01:279405,4,-16,-6,-2,-1,-7,-6,-1
13:23:01:280283,7,17,9,2,-4,-2,-9,-3
13:23:01:286304,2,-5,10,4,-3,-2,-5,-7
13:23:01:294551,2,-5,10,4,-3,-2,-5,-7
13:23:01:295278,1,10,7,4,1,-3,0,2
13:23:01:308841,1,16,19,0,-2,2,2,9
13:23:01:316911,1,16,19,0,-2,2,2,9
13:23:01:317807,0,-50,2,5,0,2,-9,-3
13:23:01:323851,1,22,1,3,1,-7,-3,2
13:23:01:339440,1,22,1,3,1,-7,-3,2
13:23:01:340313,0,3,4,0,0,-1,-15,-7
13:23:01:346296,-10,-11,7,1,1,-2,-7,-8
13:23:01:354551,-10,-11,7,1,1,-2,-7,-8
13:23:01:355304,-8,-1,-1,-4,-3,-1,-5,-5
13:23:01:368787,-7,-2,-17,-7,0,6,10,9
13:23:01:376946,-7,-2,-17,-7,0,6,10,9
13:23:01:377798,-2,22,8,-2,3,1,5,4
13:23:01:383816,-4,37,6,1,0,-1,6,1
13:23:01:391318,-4,37,6,1,0,-1,6,1
13:23:01:398802,-4,-28,-12,-7,-3,-4,11,6
13:23:01:406305,24,32,5,-3,-3,-5,-5,-3
13:23:01:414547,24,32,5,-3,-3,-5,-5,-3
13:23:01:415277,3,22,12,3,0,-2,6,1
13:23:01:428797,-9,-49,-10,0,-2,-2,3,-3
13:23:01:437059,-9,-49,-10,0,-2,-2,3,-3
13:23:01:437825,8,7,-4,0,1,1,-7,-9
13:23:01:443839,-15,-44,-20,-3,0,0,1,-3
13:23:01:451309,-15,-44,-20,-3,0,0,1,-3
13:23:01:458815,-4,17,5,0,0,-2,-2,-2
13:23:01:466290,15,-7,-5,-2,1,-2,-9,1
13:23:01:474462,15,-7,-5,-2,1,-2,-9,1
13:23:01:475303,-1,26,10,2,0,2,-5,-4
13:23:01:488820,-5,11,14,2,4,4,-4,1
13:23:01:497028,-5,11,14,2,4,4,-4,1
13:23:01:497795,5,-4,9,-1,-4,-3,-19,-13
13:23:01:503815,-9,-47,-26,-6,-1,0,7,-5
13:23:01:511315,-9,-47,-26,-6,-1,0,7,-5
13:23:01:518839,-10,-15,-1,-1,-3,-2,0,-5
13:23:01:535176,-6,27,1,-1,-3,6,2,5
13:23:01:535921,-6,27,1,-1,-3,6,2,5
13:23:01:536784,1,36,22,2,-2,-2,13,4
13:23:01:548812,-5,-2,-5,-3,-4,0,13,1
13:23:01:565193,-5,-2,-5,-3,-4,0,13,1
13:23:01:565912,-7,18,21,5,3,2,2,1
13:23:01:566782,12,-17,-19,-2,3,1,-15,-2
13:23:01:571285,12,-17,-19,-2,3,1,-15,-2
13:23:01:586930,-8,-7,-8,-2,-1,2,6,6
13:23:01:587791,9,0,8,1,-3,-2,-11,-8
13:23:01:594440,9,0,8,1,-3,-2,-11,-8
13:23:01:595319,2,39,0,1,-1,-4,-11,-1
13:23:01:608808,-13,25,10,-1,1,2,10,7
13:23:01:616939,-13,25,10,-1,1,2,10,7
13:23:01:617824,0,-53,-21,-7,-2,1,0,-2
13:23:01:623801,3,-60,-19,-8,-3,-4,1,-8
13:23:01:631315,3,-60,-19,-8,-3,-4,1,-8
13:23:01:646931,-10,-3,-21,-5,-4,-1,11,-1
13:23:01:647826,-1,10,8,1,0,-2,-13,-9
13:23:01:654426,-1,10,8,1,0,-2,-13,-9
13:23:01:655292,2,-13,5,-4,-5,-4,3,2
13:23:01:668821,-10,30,-3,-7,-4,-4,0,-1
13:23:01:676974,-10,30,-3,-7,-4,-4,0,-1
13:23:01:677810,7,0,3,0,2,2,-5,0
13:23:01:683785,-17,25,14,5,1,1,2,-2
13:23:01:691311,-17,25,14,5,1,1,2,-2
13:23:01:698813,0,-57,-30,-4,4,3,-5,-6
13:23:01:706294,20,36,11,-1,-3,-1,9,8
13:23:01:714437,20,36,11,-1,-3,-1,9,8
13:23:01:715312,7,31,15,3,4,1,12,-2
13:23:01:728814,-7,-13,-2,0,-3,2,-5,-8
13:23:01:736930,-7,-13,-2,0,-3,2,-5,-8
13:23:01:737785,3,-10,6,-3,0,-3,-6,1
13:23:01:743852,1,-4,11,8,8,2,16,7
13:23:01:751294,1,-4,11,8,8,2,16,7
13:23:01:758784,-16,-12,-9,-1,3,1,1,-1
13:23:01:766313,5,30,7,0,-3,-7,-9,-1
13:23:01:774565,5,30,7,0,-3,-7,-9,-1
13:23:01:775314,2,-17,2,0,-4,-3,-13,-5
13:23:01:788818,-2,-34,-18,-4,2,-2,-9,-3
13:23:01:796942,-2,-34,-18,-4,2,-2,-9,-3
13:23:01:797784,5,14,3,2,2,-4,-14,2
13:23:01:803832,-11,-17,-1,-3,-4,0,8,-7
13:23:01:811334,-11,-17,-1,-3,-4,0,8,-7
13:23:01:818798,-7,11,0,4,4,5,5,-7
13:23:01:826374,0,69,20,1,1,-1,-6,0
13:23:01:834555,0,69,20,1,1,-1,-6,0
13:23:01:835291,-9,-8,5,-1,-4,-1,5,-3
13:23:01:848815,16,5,7,0,-3,6,12,10
13:23:01:865161,16,5,7,0,-3,6,12,10
13:23:01:865925,-6,-65,-13,-7,0,3,-2,6
13:23:01:866793,-5,-26,-6,-1,1,-6,-13,-8
13:23:01:871302,-5,-26,-6,-1,1,-6,-13,-8
13:23:01:878812,5,-3,-6,-1,-2,-4,-5,0
13:23:01:886300,3,12,2,-1,-1,-3,-6,-8
13:23:01:894548,3,12,2,-1,-1,-3,-6,-8
13:23:01:895287,-23,22,-3,-5,-4,-6,-2,-10
13:23:01:908789,0,-32,-17,-9,-7,-2,-2,-14
13:23:01:925198,0,-32,-17,-9,-7,-2,-2,-14
13:23:01:925917,15,21,3,2,-1,-3,17,15
13:23:01:926807,2,-17,-3,2,-1,0,-5,4
13:23:01:931284,2,-17,-3,2,-1,0,-5,4
13:23:01:938798,11,17,2,-2,-3,3,-8,-2
13:23:01:946305,16,31,20,-1,1,4,9,15
13:23:01:954430,16,31,20,-1,1,4,9,15
13:23:01:955323,4,16,4,2,-2,-1,3,2
13:23:01:968817,6,22,6,-1,-2,0,-6,-3
13:23:01:976929,6,22,6,-1,-2,0,-6,-3
13:23:01:977832,-2,10,6,2,0,1,-8,-8
13:23:01:983816,-20,-4,2,-4,-2,-7,-2,-6
13:23:01:991345,-20,-4,2,-4,-2,-7,-2,-6
13:23:02:6939,-22,-87,-28,-4,2,-7,-19,-10
13:23:02:7812,-2,-46,-8,1,6,6,-9,3
13:23:02:14435,-2,-46,-8,1,6,6,-9,3
13:23:02:15297,-25,-25,12,-2,-4,0,-9,-23
13:23:02:29290,6,0,2,-4,-4,-4,3,3
13:23:02:36909,6,0,2,-4,-4,-4,3,3
13:23:02:37783,16,19,-2,1,2,0,-2,8
13:23:02:43818,1,10,-11,5,2,-5,-4,-5
13:23:02:51299,1,10,-11,5,2,-5,-4,-5
13:23:02:58828,-5,-7,-25,-5,-1,-2,4,7
13:23:02:66301,-7,9,-12,-4,-5,-9,-6,1
13:23:02:74474,-7,9,-12,-4,-5,-9,-6,1
13:23:02:75321,10,-14,-6,3,5,3,8,5
13:23:02:88859,-1,-6,0,-1,0,7,-3,-3
13:23:02:96920,-1,-6,0,-1,0,7,-3,-3
13:23:02:97789,6,18,3,-2,0,1,7,1
13:23:02:103834,7,1,-1,5,2,2,-7,3
13:23:02:111310,7,1,-1,5,2,2,-7,3
13:23:02:118803,2,25,3,-5,-5,-4,-10,-3
13:23:02:126338,-7,-5,-3,-6,-2,-7,4,1
13:23:02:133787,-7,-5,-3,-6,-2,-7,4,1
13:23:02:141343,18,20,5,0,-2,-2,-1,0
13:23:02:148790,-19,26,6,-1,-4,-6,-3,-11
13:23:02:157099,-19,26,6,-1,-4,-6,-3,-11
13:23:02:157844,10,10,-10,-4,0,0,10,4
13:23:02:171954,6,-10,-6,-3,-2,-6,27,14
13:23:02:172825,6,-10,-6,-3,-2,-6,27,14
13:23:02:178794,-21,8,-1,-3,-2,0,-7,-3
13:23:02:202598,-21,-27,-31,-5,3,1,-5,-13
13:23:02:203462,-21,-27,-31,-5,3,1,-5,-13
13:23:02:204319,2,-22,-1,-6,0,-4,-4,-6
13:23:02:208821,3,-23,6,0,-4,-1,-14,6
13:23:02:216925,3,-23,6,0,-4,-1,-14,6
13:23:02:217819,-20,1,-21,-1,-2,6,-1,-6
13:23:02:231931,-1,-33,-13,0,5,1,-20,-5
13:23:02:232788,-1,-33,-13,0,5,1,-20,-5
13:23:02:238825,7,12,17,4,3,0,-8,2
13:23:02:246327,8,-3,-10,-8,-2,4,8,5
13:23:02:253799,8,-3,-10,-8,-2,4,8,5
13:23:02:261313,-10,4,16,-8,-8,0,10,2
13:23:02:268808,1,-8,15,3,2,-3,1,-5
13:23:02:277080,1,-8,15,3,2,-3,1,-5
13:23:02:277794,20,-1,-6,4,5,-11,-2,-6
13:23:02:291950,-10,-14,-1,2,1,6,1,-1
13:23:02:292797,-10,-14,-1,2,1,6,1,-1
13:23:02:298828,9,25,1,1,-3,-2,-7,3
13:23:02:306297,16,18,-7,1,1,-1,1,2
13:23:02:313827,16,18,-7,1,1,-1,1,2
13:23:02:321341,3,8,7,1,-2,-1,5,4
13:23:02:328790,2,31,13,3,-6,-2,-7,0
13:23:02:337058,2,31,13,3,-6,-2,-7,0
13:23:02:337795,-9,-43,-5,-2,-4,-5,7,-3
13:23:02:351908,-3,-11,2,3,0,-2,4,3
13:23:02:352784,-3,-11,2,3,0,-2,4,3
13:23:02:366924,7,20,-7,2,0,2,-11,2
13:23:02:367838,4,14,-1,-2,-5,-1,-6,-4
13:23:02:373873,4,14,-1,-2,-5,-1,-6,-4
13:23:02:389421,-4,21,7,0,1,2,6,3
13:23:02:390191,9,-8,0,-1,-1,2,16,-3
13:23:02:396911,9,-8,0,-1,-1,2,16,-3
13:23:02:397785,-8,-46,-9,-1,1,-12,-3,-4
13:23:02:411927,-9,33,0,-8,-4,-3,-3,-4
13:23:02:412782,-9,33,0,-8,-4,-3,-3,-4
13:23:02:418806,-9,-28,13,3,1,3,-5,-1
13:23:02:426385,2,32,12,0,-1,-8,-9,-2
13:23:02:433806,2,32,12,0,-1,-8,-9,-2
13:23:02:441331,2,48,-14,-2,0,1,-4,-6
13:23:02:448829,-17,-14,-17,-3,1,0,2,-2
13:23:02:456960,-17,-14,-17,-3,1,0,2,-2
13:23:02:457808,14,-3,12,4,1,-1,16,5
13:23:02:471922,-14,-16,-4,-8,1,0,7,5
13:23:02:472801,-14,-16,-4,-8,1,0,7,5
13:23:02:478817,-5,-4,-2,-3,-2,0,7,2
13:23:02:486331,-12,-22,-14,2,4,1,-10,-6
13:23:02:493846,-12,-22,-14,2,4,1,-10,-6
13:23:02:501300,1,-19,-10,-6,-2,1,-7,-2
13:23:02:508815,-3,-7,8,2,-2,-3,-1,1
13:23:02:517042,-3,-7,8,2,-2,-3,-1,1
13:23:02:517793,-1,25,15,0,-3,-6,-9,-3
13:23:02:531913,4,26,-2,1,-5,7,18,10
13:23:02:532813,4,26,-2,1,-5,7,18,10
13:23:02:538836,6,27,-13,-7,-3,2,5,1
13:23:02:546311,-13,-33,-2,1,-4,-4,-7,-10
13:23:02:553825,-13,-33,-2,1,-4,-4,-7,-10
13:23:02:561317,-9,-21,-1,-1,2,3,1,1
13:23:02:568835,17,-12,-2,1,-6,-6,3,-4
13:23:02:576956,17,-12,-2,1,-6,-6,3,-4
13:23:02:577801,6,-9,4,2,0,-2,14,-2
13:23:02:591933,-11,12,11,0,6,0,-5,-7
13:23:02:592883,-11,12,11,0,6,0,-5,-7
13:23:02:598810,0,5,5,2,-1,0,-5,3
13:23:02:606325,-12,24,-12,-6,4,0,-7,0
13:23:02:613796,-12,24,-12,-6,4,0,-7,0
13:23:02:621319,6,4,12,-3,1,4,0,5
13:23:02:628829,-3,-8,0,0,-2,1,4,7
13:23:02:637703,-3,-8,0,0,-2,1,4,7
13:23:02:638472,2,-26,-17,1,0,0,6,-5
13:23:02:651931,7,30,6,-2,-2,-1,4,-6
13:23:02:652800,7,30,6,-2,-2,-1,4,-6
13:23:02:658813,-1,22,3,-5,1,-4,-8,-3
13:23:02:666312,-3,13,1,-9,1,0,4,0
13:23:02:673823,-3,13,1,-9,1,0,4,0
13:23:02:681341,-3,-17,-14,-1,-3,-12,-10,4
13:23:02:688848,0,-7,-9,4,-2,-3,-5,-2
13:23:02:696947,0,-7,-9,4,-2,-3,-5,-2
13:23:02:697813,7,18,4,2,-4,7,2,1
13:23:02:711940,-3,-41,-2,3,0,-2,-4,-6
13:23:02:712840,-3,-41,-2,3,0,-2,-4,-6
13:23:02:718822,-21,-11,-5,-6,0,-1,1,-6
13:23:02:726314,-1,-8,0,0,1,-2,-12,-1
13:23:02:733811,-1,-8,0,0,1,-2,-12,-1
13:23:02:749423,-15,-7,-7,-6,-2,-1,-11,-7
13:23:02:750291,11,18,2,0,-3,0,3,6
13:23:02:756933,11,18,2,0,-3,0,3,6
13:23:02:757832,-4,41,22,4,-3,-4,0,9
13:23:02:771948,15,-9,-3,-1,1,1,6,6
13:23:02:772865,15,-9,-3,-1,1,1,6,6
13:23:02:778806,14,13,30,5,-4,2,-5,8
13:23:02:786197,-2,-24,-6,-1,0,-3,-6,-1
13:23:02:793886,-2,-24,-6,-1,0,-3,-6,-1
13:23:02:801314,-1,-24,-22,-6,0,4,-4,-6
13:23:02:808800,9,7,3,3,0,3,6,-2
13:23:02:816947,9,7,3,3,0,3,6,-2
13:23:02:817808,-14,-17,-20,-1,3,6,-9,-11
13:23:02:832337,2,17,14,-5,-6,3,-8,-4
13:23:02:839527,2,17,14,-5,-6,3,-8,-4
13:23:02:840290,-4,-46,-19,-3,2,-4,0,-6
13:23:02:846308,-25,36,8,3,1,-4,2,-1
13:23:02:861953,-25,36,8,3,1,-4,2,-1
13:23:02:862813,-3,-8,-9,3,5,0,-1,-4
13:23:02:868802,0,-12,-21,3,5,-1,0,-7
13:23:02:876985,0,-12,-21,3,5,-1,0,-7
13:23:02:877830,12,-27,-9,-2,0,-3,-4,1
13:23:02:891968,-2,-31,-14,-2,-1,-3,-8,-5
13:23:02:892794,-2,-31,-14,-2,-1,-3,-8,-5
13:23:02:898812,-4,-3,12,1,2,-1,-11,-3
13:23:02:906188,15,-23,8,-2,-3,-2,1,-2
13:23:02:913830,15,-23,8,-2,-3,-2,1,-2
13:23:02:921308,-5,-2,7,0,-2,-2,4,3
13:23:02:928817,-3,-25,-8,-3,1,0,-14,-12
13:23:02:944457,-3,-25,-8,-3,1,0,-14,-12
13:23:02:945313,10,19,12,1,-5,0,7,6
13:23:02:951939,6,21,8,-1,-5,1,-2,-8
13:23:02:952804,6,21,8,-1,-5,1,-2,-8
13:23:02:958855,-21,18,-17,-5,-1,0,-5,-11
13:23:02:966327,-4,-14,-27,-11,-2,-1,8,8
13:23:02:973835,-4,-14,-27,-11,-2,-1,8,8
13:23:02:981315,5,-23,-38,-12,-6,0,2,2
13:23:02:988829,-2,12,6,0,-1,-3,-5,4
13:23:02:997048,-2,12,6,0,-1,-3,-5,4
13:23:02:997819,-3,9,12,2,-1,1,3,1
13:23:03:11925,1,2,16,2,-3,-4,9,9
13:23:03:12803,1,2,16,2,-3,-4,9,9
13:23:03:26884,15,-3,-4,-7,2,-5,-4,-3
13:23:03:42670,7,9,6,5,7,5,-15,-7
13:23:03:43456,7,9,6,5,7,5,-15,-7
13:23:03:44199,-6,13,14,4,0,-1,8,6
13:23:03:48812,-3,-24,2,-3,6,2,2,0
13:23:03:56920,-3,-24,2,-3,6,2,2,0
13:23:03:57812,-2,-5,3,-1,-1,0,-4,-6
13:23:03:71929,-4,23,5,-5,-1,0,-7,-2
13:23:03:72859,-4,23,5,-5,-1,0,-7,-2
13:23:03:78796,-7,-15,-6,6,1,-6,3,-3
13:23:03:94450,-11,-14,-10,-1,3,1,-4,-7
13:23:03:95299,-11,-14,-10,-1,3,1,-4,-7
13:23:03:101312,14,32,8,0,-1,2,-8,-1
13:23:03:116932,-5,-11,-27,-1,-3,-1,0,0
13:23:03:117805,-5,-11,-27,-1,-3,-1,0,0
13:23:03:123829,-4,-62,-7,-4,3,-1,-11,-1
13:23:03:131930,-3,-26,-6,-3,-2,1,5,-2
13:23:03:132803,-3,-26,-6,-3,-2,1,5,-2
13:23:03:138796,17,21,5,0,-1,-2,-3,7
13:23:03:154430,-6,15,21,0,-4,-3,-10,-4
13:23:03:155337,-6,15,21,0,-4,-3,-10,-4
13:23:03:161381,-7,11,0,4,-2,0,16,6
13:23:03:168830,-6,-11,-7,6,4,3,5,-3
13:23:03:176336,-6,-11,-7,6,4,3,5,-3
13:23:03:183832,-13,1,5,2,2,-2,-1,-13
13:23:03:191978,16,1,7,6,4,4,-9,15
13:23:03:192822,16,1,7,6,4,4,-9,15
13:23:03:198787,11,6,-8,-1,1,2,4,-5
13:23:03:214688,-5,36,11,1,0,-1,-8,-8
13:23:03:221952,-5,36,11,1,0,-1,-8,-8
13:23:03:222838,-13,5,6,-6,-2,-3,-6,-5
13:23:03:228819,-9,-7,1,-2,0,0,1,-5
13:23:03:236312,-9,-7,1,-2,0,0,1,-5
13:23:03:243834,-15,-12,-5,4,-1,-4,-3,2
13:23:03:251915,-10,4,-4,3,-6,-6,5,-5
13:23:03:252820,-10,4,-4,3,-6,-6,5,-5
13:23:03:258844,13,21,-7,4,-5,-2,0,0
13:23:03:274454,10,-16,1,-5,-3,-3,0,3
13:23:03:275306,10,-16,1,-5,-3,-3,0,3
13:23:03:281201,-4,19,5,-4,-5,-5,-13,2
13:23:03:288839,-4,1,4,0,-1,-7,5,10
13:23:03:304428,-4,1,4,0,-1,-7,5,10
13:23:03:305302,4,-4,-4,1,5,6,3,-9
13:23:03:311955,-10,-8,-4,2,-3,3,-4,-6
13:23:03:312814,-10,-8,-4,2,-3,3,-4,-6
13:23:03:318809,-4,12,4,4,-1,0,8,8
13:23:03:334434,1,4,-14,-11,-1,-1,2,0
13:23:03:335305,1,4,-14,-11,-1,-1,2,0
13:23:03:341197,-14,-22,-14,-1,0,-4,-2,-2
13:23:03:348808,6,12,4,-3,-2,-2,-20,-2
13:23:03:356382,6,12,4,-3,-2,-2,-20,-2
13:23:03:363806,-11,27,-5,-2,5,4,11,6
13:23:03:371952,-15,20,6,2,0,-4,3,-7
13:23:03:372804,-15,20,6,2,0,-4,3,-7
13:23:03:386191,13,2,17,-6,-2,-1,4,2
13:23:03:394450,-24,-56,-20,-12,3,6,5,-8
13:23:03:395315,-24,-56,-20,-12,3,6,5,-8
13:23:03:401290,-9,-1,4,-2,1,-5,10,-2
13:23:03:408842,22,-1,22,5,-1,-2,-5,-4
13:23:03:416310,22,-1,22,5,-1,-2,-5,-4
13:23:03:423843,-6,-16,-9,-2,-2,-1,-10,-5
13:23:03:431946,0,-4,-12,-1,0,-4,17,2
13:23:03:432820,0,-4,-12,-1,0,-4,17,2
13:23:03:438870,7,36,13,-3,-6,1,-5,-12
13:23:03:454445,21,17,3,2,3,-4,-10,14
13:23:03:455316,21,17,3,2,3,-4,-10,14
13:23:03:461317,-12,-58,-5,2,0,-2,-4,2
13:23:03:468804,-7,-28,2,1,1,2,-7,-13
13:23:03:476318,-7,-28,2,1,1,2,-7,-13
13:23:03:483818,6,-23,-2,4,3,2,0,6
13:23:03:499203,-1,-21,-4,0,-1,2,4,-4
13:23:03:506941,-1,-21,-4,0,-1,2,4,-4
13:23:03:507814,6,-57,-5,-4,-1,3,-3,-2
13:23:03:514450,7,38,4,-3,-1,3,7,12
13:23:03:515331,7,38,4,-3,-1,3,7,12
13:23:03:521328,-9,21,-2,1,-2,-4,3,0
13:23:03:528900,9,18,5,-4,-3,-2,2,2
13:23:03:536343,9,18,5,-4,-3,-2,2,2
13:23:03:543860,-5,-11,-14,-8,-5,-2,-15,-12
13:23:03:551920,3,-5,9,1,1,3,-6,-8
13:23:03:552870,3,-5,9,1,1,3,-6,-8
13:23:03:558883,6,12,-1,-19,-4,-2,-3,0
13:23:03:582713,-5,10,-2,-1,-5,-5,1,5
13:23:03:583423,-5,10,-2,-1,-5,-5,1,5
13:23:03:584311,-13,-31,-17,9,9,5,4,3
13:23:03:588823,2,22,-3,4,1,-1,-3,-2
13:23:03:596314,2,22,-3,4,1,-1,-3,-2
13:23:03:603819,9,44,14,2,-3,-3,-6,-2
13:23:03:611941,-11,-46,-41,-8,-4,-3,3,-3
13:23:03:612803,-11,-46,-41,-8,-4,-3,3,-3
13:23:03:618829,21,-23,9,3,0,-2,-8,3
13:23:03:634448,8,18,14,6,-4,-1,-8,-1
13:23:03:635343,8,18,14,6,-4,-1,-8,-1
13:23:03:641326,-1,-20,-12,-3,0,0,-2,-2
13:23:03:648814,13,15,13,0,-3,-7,-4,11
13:23:03:664485,13,15,13,0,-3,-7,-4,11
13:23:03:665310,-15,42,-2,-2,0,4,8,-9
13:23:03:671988,11,-5,-2,-1,2,-2,3,-6
13:23:03:672835,11,-5,-2,-1,2,-2,3,-6
13:23:03:678825,0,12,-6,1,0,1,3,8
13:23:03:694442,-10,-31,0,-3,-2,-4,-5,1
13:23:03:695314,-10,-31,0,-3,-2,-4,-5,1
13:23:03:701327,4,30,7,8,0,0,13,-2
13:23:03:708835,-4,-25,-22,1,2,4,6,5
13:23:03:716321,-4,-25,-22,1,2,4,6,5
13:23:03:723830,-3,11,11,2,-1,-3,-10,-3
13:23:03:731956,-6,-25,-6,-5,-1,0,5,-10
13:23:03:732829,-6,-25,-6,-5,-1,0,5,-10
13:23:03:746341,-19,-40,4,-8,-4,0,-8,7
13:23:03:754460,8,18,3,3,1,2,-6,12
13:23:03:755318,8,18,3,3,1,2,-6,12
13:23:03:761357,-1,58,8,0,-7,-3,10,0
13:23:03:768825,-2,30,11,-4,-4,-4,-11,-7
13:23:03:784583,-2,30,11,-4,-4,-4,-11,-7
13:23:03:785306,6,33,4,2,-2,-6,-2,-7
13:23:03:791974,-5,12,9,-4,1,0,2,-5
13:23:03:792852,-5,12,9,-4,1,0,2,-5
13:23:03:798849,8,-11,-15,-6,-1,4,-4,3
13:23:03:814442,-8,-39,-9,4,1,5,5,0
13:23:03:815312,-8,-39,-9,4,1,5,5,0
13:23:03:821315,9,-6,9,-5,2,2,8,1
13:23:03:828813,-12,-13,-29,-2,-1,3,21,4
13:23:03:836324,-12,-13,-29,-2,-1,3,21,4
13:23:03:843825,-15,-28,-9,-2,-2,-6,-20,-10
13:23:03:851687,18,7,-7,3,0,-5,-10,-3
13:23:03:859450,18,7,-7,3,0,-5,-10,-3
13:23:03:860320,20,17,4,1,6,1,10,-8
13:23:03:874520,-6,11,15,4,0,2,-3,4
13:23:03:875318,-6,11,15,4,0,2,-3,4
13:23:03:881315,7,15,11,1,-4,-3,8,10
13:23:03:888798,-13,-5,-2,-9,-2,0,2,-2
13:23:03:896322,-13,-5,-2,-9,-2,0,2,-2
13:23:03:903811,3,-7,3,-1,-2,-1,0,3
13:23:03:912027,18,11,-14,1,4,1,1,5
13:23:03:912802,18,11,-14,1,4,1,1,5
13:23:03:918857,-13,50,17,-5,-6,-2,-11,-3
13:23:03:942579,-19,34,34,-1,-5,0,-8,-4
13:23:03:943465,-19,34,34,-1,-5,0,-8,-4
13:23:03:944181,9,-26,-12,2,1,-5,-7,6
13:23:03:948822,-9,2,3,2,0,-4,-1,-5
13:23:03:956347,-9,2,3,2,0,-4,-1,-5
13:23:03:963831,-23,-68,-25,-5,3,-1,-14,-13
13:23:03:971981,15,-1,11,2,-1,-2,-10,-5
13:23:03:972851,15,-1,11,2,-1,-2,-10,-5
13:23:03:978836,7,0,1,3,-5,-7,-16,-4
13:23:03:994444,-12,14,-3,-4,-4,0,-6,-8
13:23:03:995307,-12,14,-3,-4,-4,0,-6,-8
13:23:04:1178,-27,57,8,2,0,-1,-3,-13
13:23:04:8878,6,-22,-13,0,1,4,12,7
13:23:04:16307,6,-22,-13,0,1,4,12,7
13:23:04:23901,3,-17,-13,-2,-1,5,10,4
13:23:04:31969,2,4,-14,-3,1,-1,5,-8
13:23:04:32817,2,4,-14,-3,1,-1,5,-8
13:23:04:46208,0,-24,-6,-2,3,4,2,-2
13:23:04:54446,5,-19,-10,-4,-1,-8,-17,-6
13:23:04:55311,5,-19,-10,-4,-1,-8,-17,-6
13:23:04:61198,-1,-29,-6,3,4,-4,11,7
13:23:04:77039,-12,-5,15,5,-1,-5,-6,-1
13:23:04:77857,-12,-5,15,5,-1,-5,-6,-1
13:23:04:83830,-1,1,-10,0,3,5,-2,0
13:23:04:91956,-4,-25,-12,3,4,1,-6,-20
13:23:04:92833,-4,-25,-12,3,4,1,-6,-20
13:23:04:106328,5,-7,-19,-4,-3,1,3,11
13:23:04:114470,-7,-3,12,-5,2,1,9,-4
13:23:04:115330,-7,-3,12,-5,2,1,9,-4
13:23:04:121202,3,14,-1,-1,0,-8,19,1
13:23:04:136961,3,31,10,-4,-5,-4,10,10
13:23:04:137817,3,31,10,-4,-5,-4,10,10
13:23:04:143868,4,4,6,-4,3,7,-10,-2
13:23:04:151955,1,-16,2,-2,0,-3,-12,4
13:23:04:152821,1,-16,2,-2,0,-3,-12,4
13:23:04:166330,-14,-12,-15,-3,-3,-1,-4,-5
13:23:04:174453,-3,5,-26,-3,2,-1,4,4
13:23:04:175322,-3,5,-26,-3,2,-1,4,4
13:23:04:181313,4,12,4,0,-1,4,1,-4
13:23:04:196957,-12,1,1,1,-5,2,-8,-3
13:23:04:197796,-12,1,1,1,-5,2,-8,-3
13:23:04:203835,7,-7,4,2,-3,-5,-4,-10
13:23:04:219467,17,18,4,-1,-1,4,7,12
13:23:04:220342,17,18,4,-1,-1,4,7,12
13:23:04:226388,-19,12,9,-6,0,5,1,-4
13:23:04:234473,-4,-4,-6,-6,-2,3,9,-9
13:23:04:235319,-4,-4,-6,-6,-2,3,9,-9
13:23:04:241417,-5,-45,-7,4,5,0,15,-4
13:23:04:256972,3,15,-2,-7,-2,-3,-7,1
13:23:04:257833,3,15,-2,-7,-2,-3,-7,1
13:23:04:263826,4,-25,-8,0,-1,2,0,-15
13:23:04:271964,6,-13,-3,1,-4,-3,-8,-4
13:23:04:272811,6,-13,-3,1,-4,-3,-8,-4
13:23:04:286338,6,13,-1,-2,0,-2,-3,15
13:23:04:302589,-16,5,14,3,1,-12,-4,-9
13:23:04:303453,-16,5,14,3,1,-12,-4,-9
13:23:04:304309,-16,-37,-10,-10,-4,0,-11,-3
13:23:04:316944,-5,-24,-4,-2,2,3,1,-1
13:23:04:317813,-5,-24,-4,-2,2,3,1,-1
13:23:04:323866,9,19,7,4,-3,-6,-3,1
13:23:04:331936,-7,-3,-12,-10,-1,-7,-8,8
13:23:04:332835,-7,-3,-12,-10,-1,-7,-8,8
13:23:04:346180,-4,-15,-4,-2,-2,-1,-10,2
13:23:04:354443,-6,17,-2,5,-2,1,-6,-7
13:23:04:355309,-6,17,-2,5,-2,1,-6,-7
13:23:04:361239,7,24,14,1,0,0,2,6
13:23:04:377360,10,13,-3,-1,3,-2,4,3
13:23:04:384427,10,13,-3,-1,3,-2,4,3
13:23:04:385297,11,-24,-6,3,3,-7,6,4
13:23:04:391941,-1,4,-15,-5,-4,0,-13,-16
13:23:04:392835,-1,4,-15,-5,-4,0,-13,-16
13:23:04:406399,-15,-7,11,-5,-2,-2,-1,8
13:23:04:414229,1,29,31,6,-1,-3,-1,3
13:23:04:421969,1,29,31,6,-1,-3,-1,3
13:23:04:422820,-2,15,17,0,-5,3,6,2
13:23:04:436970,3,2,3,-3,-2,4,4,4
13:23:04:437801,3,2,3,-3,-2,4,4,4
13:23:04:443887,11,39,11,-1,-1,-2,-2,6
13:23:04:451948,-8,-56,-3,-2,4,8,3,-5
13:23:04:452820,-8,-56,-3,-2,4,8,3,-5
13:23:04:466341,-1,-1,1,4,2,-3,-13,-1
13:23:04:474455,0,-22,3,2,-1,-3,-1,0
13:23:04:475345,0,-22,3,2,-1,-3,-1,0
13:23:04:481210,-8,-52,-13,-2,-1,0,-9,-8
13:23:04:497492,-8,-52,-13,-2,-1,0,-9,-8
13:23:04:498212,4,4,-16,-6,-3,1,3,8
13:23:04:503819,-22,-59,-32,-5,2,-2,-6,-13
13:23:04:519452,-22,-59,-32,-5,2,-2,-6,-13
13:23:04:520311,-3,-17,-4,1,4,1,7,0
13:23:04:526321,10,-1,-10,-1,-1,-9,-6,-9
13:23:04:534443,10,-1,-10,-1,-1,-9,-6,-9
13:23:04:535317,7,-3,-14,1,1,2,18,14
13:23:04:541381,12,64,13,-2,-5,-4,-10,1
13:23:04:556957,12,64,13,-2,-5,-4,-10,1
13:23:04:557846,-14,-5,0,3,3,-1,-10,-10
13:23:04:563812,-7,16,2,-3,-2,0,-17,1
13:23:04:579958,-7,16,2,-3,-2,0,-17,1
13:23:04:580826,3,-7,16,-3,-1,4,16,12
13:23:04:586332,-6,27,19,3,-1,4,-3,-15
13:23:04:594480,-6,27,19,3,-1,4,-3,-15
13:23:04:595337,-3,-37,-7,0,3,1,-4,-5
13:23:04:601338,4,-13,-5,1,6,-1,10,4
13:23:04:616974,4,-13,-5,1,6,-1,10,4
13:23:04:617831,2,3,-26,-5,-7,-7,0,-7
13:23:04:623877,3,3,2,-5,-3,-4,-7,2
13:23:04:639510,3,3,2,-5,-3,-4,-7,2
13:23:04:640331,0,32,-4,-1,-2,7,-7,1
13:23:04:646351,11,27,-2,-3,-4,-3,1,-7
13:23:04:654450,11,27,-2,-3,-4,-3,1,-7
13:23:04:655318,-18,-17,-2,2,2,-8,-3,-14
13:23:04:661357,7,-9,4,3,4,5,2,6
13:23:04:677008,7,-9,4,3,4,5,2,6
13:23:04:677828,-5,8,16,6,-2,-5,-11,-5
13:23:04:683834,0,-31,-16,0,4,4,0,2
13:23:04:699463,0,-31,-16,0,4,4,0,2
13:23:04:700329,6,-4,8,-3,-4,-3,-5,-9
13:23:04:706225,4,28,4,-1,-3,-1,1,5
13:23:04:714995,4,28,4,-1,-3,-1,1,5
13:23:04:721948,7,-8,-23,-9,-2,-3,8,3
13:23:04:722823,-2,-30,6,-3,-1,1,5,-11
13:23:04:736942,-2,-30,6,-3,-1,1,5,-11
13:23:04:737808,4,12,10,0,4,1,-5,-3
13:23:04:743829,-8,27,-1,3,-4,-1,2,-20
13:23:04:759517,-8,27,-1,3,-4,-1,2,-20
13:23:04:760331,9,12,10,1,-1,-4,9,10
13:23:04:775082,-29,-16,-4,-2,-3,-8,-6,-8
13:23:04:775996,-29,-16,-4,-2,-3,-8,-6,-8
13:23:04:776863,-3,-34,-10,4,4,4,-5,4
13:23:04:781184,18,1,5,-2,-2,-2,16,11
13:23:04:796975,18,1,5,-2,-2,-2,16,11
13:23:04:797839,-3,34,11,-1,-4,-3,5,-2
13:23:04:803828,0,11,-18,-2,-4,3,2,15
13:23:04:819448,0,11,-18,-2,-4,3,2,15
13:23:04:820327,-1,-18,-19,-7,-2,-2,-4,9
13:23:04:826341,3,-14,-9,-3,-3,2,0,3
13:23:04:834457,3,-14,-9,-3,-3,2,0,3
13:23:04:835306,-1,5,4,2,1,-1,-9,-7
13:23:04:841232,10,-71,-23,0,3,4,12,11
13:23:04:857497,10,-71,-23,0,3,4,12,11
13:23:04:858206,-1,4,15,2,-3,-4,3,-10
13:23:04:863827,5,17,1,-3,-1,1,-8,-24
13:23:04:879461,5,17,1,-3,-1,1,-8,-24
13:23:04:880315,-17,-11,0,0,-2,-6,-7,0
13:23:04:886332,-4,-7,-7,-3,0,-3,-8,-2
13:23:04:894463,-4,-7,-7,-3,0,-3,-8,-2
13:23:04:895331,-15,25,-13,-6,2,2,-13,-9
13:23:04:901346,-13,-15,8,1,-2,-4,6,8
13:23:04:916960,-13,-15,8,1,-2,-4,6,8
13:23:04:917820,6,-50,-19,3,2,5,5,0
13:23:04:923860,10,-18,-11,-2,3,2,-1,10
13:23:04:939457,10,-18,-11,-2,3,2,-1,10
13:23:04:940320,-6,-27,-3,-1,5,5,-7,1
13:23:04:946331,-3,11,15,5,2,1,-13,-2
13:23:04:954450,-3,11,15,5,2,1,-13,-2
13:23:04:955183,15,16,3,-3,-6,-5,25,18
13:23:04:968836,3,-5,13,-5,-5,1,-10,-10
13:23:04:976992,3,-5,13,-5,-5,1,-10,-10
13:23:04:977843,12,27,-3,-2,-8,-3,-10,-1
13:23:04:983815,7,70,19,-1,-4,1,12,2
13:23:04:999489,7,70,19,-1,-4,1,12,2
13:23:05:333,-13,-22,-14,-4,0,-2,3,12
13:23:05:6348,-4,7,6,-3,1,0,-4,-9
13:23:05:14474,-4,7,6,-3,1,0,-4,-9
13:23:05:15326,-2,-3,3,-2,-4,-13,-21,1
13:23:05:28830,-21,-25,-3,-3,1,0,-5,-2
13:23:05:36952,-21,-25,-3,-3,1,0,-5,-2
13:23:05:37822,-13,21,-7,-4,0,-1,5,-12
13:23:05:51206,3,-4,-6,-4,-4,2,3,8
13:23:05:59500,3,-4,-6,-4,-4,2,3,8
13:23:05:60358,1,30,11,1,-1,5,2,-2
13:23:05:66344,3,13,5,4,7,2,11,-2
13:23:05:74483,3,13,5,4,7,2,11,-2
13:23:05:75337,-9,-21,20,3,-1,1,-3,-9
13:23:05:88860,3,-6,-14,-1,0,-1,-3,4
13:23:05:96956,3,-6,-14,-1,0,-1,-3,4
13:23:05:97829,13,30,12,-3,-1,5,6,8
13:23:05:103866,-3,-12,-2,3,-1,-5,3,5
13:23:05:111348,-3,-12,-2,3,-1,-5,3,5
13:23:05:118842,6,27,-3,0,-4,0,2,19
13:23:05:135206,-10,6,-2,-1,3,-2,-6,-8
13:23:05:135948,-10,6,-2,-1,3,-2,-6,-8
13:23:05:136862,3,-6,5,0,5,2,6,3
13:23:05:148832,-2,-29,-19,-1,1,-2,-2,-3
13:23:05:156962,-2,-29,-19,-1,1,-2,-2,-3
13:23:05:157842,3,6,-12,-5,0,-3,-2,-11
13:23:05:163822,-11,19,16,-2,-4,-1,-8,-7
13:23:05:171335,-11,19,16,-2,-4,-1,-8,-7
13:23:05:178830,-21,-25,2,-3,-1,3,11,-2
13:23:05:186356,8,23,1,8,3,0,7,11
13:23:05:194465,8,23,1,8,3,0,7,11
13:23:05:195329,10,-6,-14,0,-1,-1,-13,-5
13:23:05:208847,-5,4,-5,-7,-3,0,9,-4
13:23:05:216960,-5,4,-5,-7,-3,0,9,-4
13:23:05:217816,11,-8,8,1,2,-1,-16,-13
13:23:05:223822,7,12,10,3,-4,-2,5,8
13:23:05:231353,7,12,10,3,-4,-2,5,8
13:23:05:238845,3,11,25,7,-4,3,23,8
13:23:05:246336,-8,-21,5,-3,-4,-6,-8,-8
13:23:05:254439,-8,-21,5,-3,-4,-6,-8,-8
13:23:05:255312,7,25,3,2,-2,-2,1,-3
13:23:05:268847,2,0,10,4,-2,-8,-1,4
13:23:05:276987,2,0,10,4,-2,-8,-1,4
13:23:05:277864,-5,-1,-8,-7,-3,-3,2,-7
13:23:05:283815,2,0,7,3,0,-1,-4,-2
13:23:05:291361,2,0,7,3,0,-1,-4,-2
13:23:05:298857,-2,6,-17,4,1,-7,-1,-4
13:23:05:306217,-5,-21,-16,-4,1,2,-3,-3
13:23:05:314457,-5,-21,-16,-4,1,2,-3,-3
13:23:05:315327,2,-50,-25,1,2,4,-11,-10
13:23:05:329214,7,-4,-3,6,2,-5,-3,-9
13:23:05:336974,7,-4,-3,6,2,-5,-3,-9
13:23:05:337840,-2,20,-6,-3,-4,-5,-16,-11
13:23:05:343840,-9,-14,-7,-2,-2,5,7,1
13:23:05:351322,-9,-14,-7,-2,-2,5,7,1
13:23:05:358854,13,32,15,2,-3,-10,1,1
13:23:05:366201,1,-15,-8,-1,0,-4,-7,-5
13:23:05:374495,1,-15,-8,-1,0,-4,-7,-5
13:23:05:375339,-6,-22,17,6,-1,-8,13,9
13:23:05:388884,0,19,-12,-7,2,1,-6,-3
13:23:05:396984,0,19,-12,-7,2,1,-6,-3
13:23:05:397862,-10,-4,1,-2,1,-5,-12,2
13:23:05:403851,-24,-33,-7,-2,0,-6,-4,-3
13:23:05:411368,-24,-33,-7,-2,0,-6,-4,-3
13:23:05:418846,-8,-10,5,2,-1,3,-10,-9
13:23:05:426253,9,-8,-2,-3,2,4,-8,-9
13:23:05:434977,9,-8,-2,-3,2,4,-8,-9
13:23:05:441355,-28,-39,-7,-4,1,2,7,-16
13:23:05:448812,-6,34,28,-1,-4,-1,-6,-4
13:23:05:456950,-6,34,28,-1,-4,-1,-6,-4
13:23:05:457841,8,-6,3,-6,4,1,-2,11
13:23:05:463833,14,-18,-14,-8,-4,-1,1,2
13:23:05:471350,14,-18,-14,-8,-4,-1,1,2
13:23:05:478830,0,13,-19,-12,-6,0,-6,-6
13:23:05:486351,-10,-2,-24,-5,1,2,1,10
13:23:05:494474,-10,-2,-24,-5,1,2,1,10
13:23:05:495340,-4,-6,0,1,4,8,2,-12
13:23:05:508862,5,2,-19,-3,-5,-7,-2,-5
13:23:05:524239,5,2,-19,-3,-5,-7,-2,-5
13:23:05:532582,11,19,-14,2,-3,-5,-3,9
13:23:05:533453,-6,24,16,1,-2,-2,1,-3
13:23:05:534201,-6,24,16,1,-2,-2,1,-3
13:23:05:538841,22,22,-4,0,1,4,-4,5
13:23:05:546351,-15,-7,-2,3,-1,6,20,0
13:23:05:554481,-15,-7,-2,3,-1,6,20,0
13:23:05:555347,-14,-35,-2,-2,1,6,-21,-1
13:23:05:568837,10,27,-6,-2,-2,2,3,4
13:23:05:576974,10,27,-6,-2,-2,2,3,4
13:23:05:577831,-10,15,3,-4,-4,-4,8,-13
13:23:05:583839,-9,-1,1,-4,-2,-5,-10,-3
13:23:05:591383,-9,-1,1,-4,-2,-5,-10,-3
13:23:05:607024,2,-13,-21,0,1,-2,0,-2
13:23:05:607851,16,14,15,4,-1,-1,10,4
13:23:05:614454,16,14,15,4,-1,-1,10,4
13:23:05:615330,8,-2,6,1,-1,-6,7,1
13:23:05:637622,-4,-2,-6,-8,-3,3,-6,-7
13:23:05:638463,-4,-2,-6,-8,-3,3,-6,-7
13:23:05:639199,1,-66,-9,0,3,0,9,1
13:23:05:643876,-8,-10,-28,-5,2,-1,-14,-3
13:23:05:651329,-8,-10,-28,-5,2,-1,-14,-3
13:23:05:658898,2,-3,13,-1,1,-2,-14,-6
13:23:05:666352,0,-28,-13,-3,4,-5,5,3
13:23:05:674469,0,-28,-13,-3,4,-5,5,3
13:23:05:675340,8,8,-3,-4,0,2,-2,4
13:23:05:688838,-11,27,14,5,-1,0,2,-2
13:23:05:696961,-11,27,14,5,-1,0,2,-2
13:23:05:697833,-6,5,10,-4,-4,-3,-9,5
13:23:05:703837,-4,-66,1,-2,2,0,5,10
13:23:05:719465,-4,-66,1,-2,2,0,5,10
13:23:05:720315,-3,33,3,-2,-2,-4,7,1
13:23:05:726360,2,-8,4,-1,2,0,-9,-3
13:23:05:734473,2,-8,4,-1,2,0,-9,-3
13:23:05:735346,-11,43,-7,-3,-4,0,0,5
13:23:05:748849,6,24,28,1,-3,-8,-3,-1
13:23:05:757000,6,24,28,1,-3,-8,-3,-1
13:23:05:757846,-3,-5,6,2,-2,3,6,6
13:23:05:763832,9,40,7,1,-2,1,1,-10
13:23:05:771316,9,40,7,1,-2,1,1,-10
13:23:05:778833,6,-28,-8,-6,3,5,7,3
13:23:05:786378,-12,-22,2,-2,-3,-2,1,5
13:23:05:801959,-12,-22,2,-2,-3,-2,1,5
13:23:05:802827,-13,4,-2,0,0,0,-9,-15
13:23:05:808843,10,-30,-7,-3,2,1,4,-1
13:23:05:816948,10,-30,-7,-3,2,1,4,-1
13:23:05:817876,7,1,12,4,1,5,-4,0
13:23:05:823890,6,15,-5,-4,-3,-1,-1,-1
13:23:05:831335,6,15,-5,-4,-3,-1,-1,-1
13:23:05:838871,-1,17,14,6,-1,-3,2,8
13:23:05:846358,-1,3,-1,3,1,4,-3,-6
13:23:05:854468,-1,3,-1,3,1,4,-3,-6
13:23:05:855338,-10,-12,-11,-2,-2,3,-13,-2
13:23:05:868832,5,2,5,3,-1,-7,0,-1
13:23:05:876998,5,2,5,3,-1,-7,0,-1
13:23:05:877848,2,17,10,-3,-2,-2,-6,-2
13:23:05:883836,7,5,2,-2,-2,-4,5,7
13:23:05:891386,7,5,2,-2,-2,-4,5,7
13:23:05:898838,6,-3,-16,-2,-1,1,11,3
13:23:05:906285,-13,23,-20,-2,-3,-2,-4,-6
13:23:05:914473,-13,23,-20,-2,-3,-2,-4,-6
13:23:05:915362,-14,-30,-7,-7,1,-16,-6,-14
13:23:05:928861,-3,-3,6,2,1,0,-3,8
13:23:05:936957,-3,-3,6,2,1,0,-3,8
13:23:05:937850,13,11,6,-1,-1,-4,-11,-3
13:23:05:951991,3,-31,-13,-5,1,2,-12,-7
13:23:05:952891,3,-31,-13,-5,1,2,-12,-7
13:23:05:958856,0,7,4,-3,-2,1,3,1
13:23:05:966222,6,-17,3,-5,-2,1,-3,10
13:23:05:973880,6,-17,3,-5,-2,1,-3,10
13:23:05:981218,-16,-25,-40,-4,0,-4,1,7
13:23:05:997614,-9,37,-16,1,0,-1,8,-1
13:23:05:998455,-9,37,-16,1,0,-1,8,-1
13:23:05:999229,-3,-28,-4,-1,0,4,10,0
13:23:06:11974,-11,-51,-19,4,3,-4,-9,-11
13:23:06:12853,-11,-51,-19,4,3,-4,-9,-11
13:23:06:18846,-16,-6,-8,3,-1,2,9,3
13:23:06:26376,-6,1,11,6,0,2,-9,-4
13:23:06:33833,-6,1,11,6,0,2,-9,-4
13:23:06:41231,3,-33,3,2,-4,2,-14,-13
13:23:06:48828,7,54,10,-3,0,2,8,11
13:23:06:56983,7,54,10,-3,0,2,8,11
13:23:06:57828,2,-11,9,2,1,0,4,-2
13:23:06:79226,9,-4,-27,-6,-4,-1,-2,-4
13:23:06:87601,9,-4,-27,-6,-4,-1,-2,-4
13:23:06:88465,9,12,3,-1,3,4,-17,-3
13:23:06:89204,-5,17,5,-2,-1,5,-6,1
13:23:06:93869,-5,17,5,-2,-1,5,-6,1
13:23:06:101193,5,2,4,-3,-3,-1,-10,-6
13:23:06:108864,-4,-36,-21,-16,-2,-4,-1,-2
13:23:06:116967,-4,-36,-21,-16,-2,-4,-1,-2
13:23:06:117857,-7,34,15,4,-2,2,7,2
13:23:06:131988,-5,-11,-13,-5,-3,2,6,1
13:23:06:132840,-5,-11,-13,-5,-3,2,6,1
13:23:06:138847,8,38,25,-1,2,-9,3,-1
13:23:06:146239,13,17,22,1,-2,-3,-8,-3
13:23:06:161870,13,17,22,1,-2,-3,-8,-3
13:23:06:169496,3,-57,-15,-3,-4,-1,9,6
13:23:06:170220,-21,-3,5,-1,0,-4,4,1
13:23:06:177001,-21,-3,5,-1,0,-4,4,1
13:23:06:177855,2,26,17,3,-2,-10,-6,2
13:23:06:191996,-8,-13,11,4,-1,-4,11,-2
13:23:06:192824,-8,-13,11,4,-1,-4,11,-2
13:23:06:198887,-10,-52,-19,-7,0,3,5,-4
13:23:06:206351,-11,-27,6,2,4,-2,-1,-1
13:23:06:213860,-11,-27,6,2,4,-2,-1,-1
13:23:06:221218,-7,8,-2,-2,6,4,-2,-1
13:23:06:228867,5,7,2,5,1,3,-14,4
13:23:06:236964,5,7,2,5,1,3,-14,4
13:23:06:237837,-3,54,3,-1,-7,1,-3,-2
13:23:06:251986,8,2,2,3,-1,-2,6,-9
13:23:06:252836,8,2,2,3,-1,-2,6,-9
13:23:06:258893,-3,1,-20,-2,-4,2,-7,-7
13:23:06:274476,1,-10,-25,-4,-3,-7,6,-6
13:23:06:275220,1,-10,-25,-4,-3,-7,6,-6
13:23:06:281340,7,-6,-4,1,5,1,15,17
13:23:06:288884,4,8,-16,2,-1,3,3,-6
13:23:06:296971,4,8,-16,2,-1,3,3,-6
13:23:06:297862,-8,2,-13,-8,-4,-6,-12,-13
13:23:06:311974,-6,-8,-2,2,4,-3,-6,-2
13:23:06:312834,-6,-8,-2,2,4,-3,-6,-2
13:23:06:318835,11,-47,10,2,6,2,16,10
13:23:06:326391,-10,14,11,-5,-8,0,0,5
13:23:06:333845,-10,14,11,-5,-8,0,0,5
13:23:06:341238,4,2,10,0,-1,-1,-4,-9
13:23:06:357613,8,-9,5,1,-3,2,-5,5
13:23:06:358459,8,-9,5,1,-3,2,-5,5
13:23:06:359209,-3,28,4,3,-2,3,6,0
13:23:06:371982,2,60,7,-1,-7,-6,10,-1
13:23:06:372825,2,60,7,-1,-7,-6,10,-1
13:23:06:378868,1,-1,-15,-6,-2,1,-15,-4
13:23:06:386377,6,-47,6,1,1,-1,-6,-4
13:23:06:393917,6,-47,6,1,1,-1,-6,-4
13:23:06:401222,0,18,9,-1,-3,1,-3,0
13:23:06:408847,-13,-30,-6,-3,2,1,-2,-7
13:23:06:416969,-13,-30,-6,-3,2,1,-2,-7
13:23:06:417851,-8,0,-18,-2,0,-3,8,7
13:23:06:431986,3,-26,0,-7,-1,0,5,-11
13:23:06:432839,3,-26,0,-7,-1,0,5,-11
13:23:06:438899,-10,6,-31,-9,0,0,-12,-5
13:23:06:446243,-22,-14,-9,1,1,-1,-17,-5
13:23:06:453848,-22,-14,-9,1,1,-1,-17,-5
13:23:06:469490,13,11,-2,-3,-3,-3,-3,3
13:23:06:470216,-2,14,0,1,4,2,-17,-9
13:23:06:476999,-2,14,0,1,4,2,-17,-9
13:23:06:477825,-7,50,26,-3,-3,-2,-6,-4
13:23:06:491975,14,38,24,3,-4,-4,-6,3
13:23:06:492841,14,38,24,3,-4,-4,-6,3
13:23:06:498853,7,-8,15,2,-2,-8,-8,-24
13:23:06:506342,-19,-23,-22,-15,2,1,2,-2
13:23:06:513855,-19,-23,-22,-15,2,1,2,-2
13:23:06:521226,-10,-27,-36,-11,-4,-10,2,4
13:23:06:528877,6,-6,0,3,-3,-8,4,3
13:23:06:536968,6,-6,0,3,-3,-8,4,3
13:23:06:537842,-30,10,15,2,-2,2,-3,-4
13:23:06:552497,-4,-12,7,-3,2,4,1,3
13:23:06:553226,-4,-12,7,-3,2,4,1,3
13:23:06:558904,5,-35,9,9,4,-1,-3,5
13:23:06:566208,-5,-11,-12,-1,-3,-3,5,-4
13:23:06:573862,-5,-11,-12,-1,-3,-3,5,-4
13:23:06:581286,-21,-39,-5,-2,1,-2,-5,-15
13:23:06:588875,9,3,7,5,1,-2,-3,-1
13:23:06:596968,9,3,7,5,1,-2,-3,-1
13:23:06:597842,12,16,7,5,-2,0,14,12
13:23:06:611984,10,-6,-3,1,4,-1,-6,1
13:23:06:612838,10,-6,-3,1,4,-1,-6,1
13:23:06:618866,-13,26,-2,-4,-5,1,-10,-1
13:23:06:626262,10,31,2,-8,-4,3,-7,7
13:23:06:633837,10,31,2,-8,-4,3,-7,7
13:23:06:641292,28,43,19,1,-1,-8,1,11
13:23:06:648876,-32,-7,0,-3,-4,-2,2,4
13:23:06:657053,-32,-7,0,-3,-4,-2,2,4
13:23:06:657890,1,-9,-8,-2,1,0,6,-6
13:23:06:671964,11,-7,2,2,-1,-5,0,0
13:23:06:672845,11,-7,2,2,-1,-5,0,0
13:23:06:678835,-8,-33,-2,-5,-3,3,6,0
13:23:06:686222,-35,-2,-34,-1,0,0,-10,-6
13:23:06:693848,-35,-2,-34,-1,0,0,-10,-6
13:23:06:701363,17,-14,-6,-2,0,4,-1,-7
13:23:06:708885,13,33,12,2,3,-2,-9,-5
13:23:06:716965,13,33,12,2,3,-2,-9,-5
13:23:06:717848,8,-31,-25,-5,-1,-5,-14,8
13:23:06:731981,-7,-6,-1,1,3,1,-7,-4
13:23:06:732831,-7,-6,-1,1,3,1,-7,-4
13:23:06:746973,0,-8,-5,1,-1,7,-1,0
13:23:06:747831,0,21,7,4,-3,-5,3,4
13:23:06:753840,0,21,7,4,-3,-5,3,4
13:23:06:761218,-14,-31,-6,2,1,0,15,22
13:23:06:768853,-1,-16,2,-5,-3,1,0,0
13:23:06:776975,-1,-16,2,-5,-3,1,0,0
13:23:06:777853,19,-1,4,2,2,2,10,5
13:23:06:792032,-4,3,-5,5,3,4,-1,-23
13:23:06:792835,-4,3,-5,5,3,4,-1,-23
13:23:06:798840,2,3,-24,-6,-6,-4,-8,0
13:23:06:806362,-4,-18,2,-8,-2,-7,-5,-8
13:23:06:813847,-4,-18,2,-8,-2,-7,-5,-8
13:23:06:829477,-1,19,20,6,3,1,-6,-10
13:23:06:830205,13,-79,-42,-8,0,-1,14,16
13:23:06:836982,13,-79,-42,-8,0,-1,14,16
13:23:06:837834,6,7,15,-2,1,-2,-1,-5
13:23:06:851978,7,38,29,2,-1,0,6,21
13:23:06:852851,7,38,29,2,-1,0,6,21
13:23:06:858886,-4,14,17,8,0,1,11,-5
13:23:06:874504,-25,1,3,2,-1,0,4,-5
13:23:06:875352,-25,1,3,2,-1,0,4,-5
13:23:06:881239,-18,-40,-12,3,5,3,-3,-9
13:23:06:888894,5,6,8,0,-2,-2,23,1
13:23:06:896374,5,6,8,0,-2,-2,23,1
13:23:06:912625,-1,10,22,-2,-1,-1,4,2
13:23:06:913491,-6,13,8,-1,0,7,-6,-1
13:23:06:914335,-6,13,8,-1,0,7,-6,-1
13:23:06:918853,-3,-15,-12,-7,-2,-4,-6,20
13:23:06:934220,-2,-48,-23,-5,-4,-6,-12,5
13:23:06:941982,-2,-48,-23,-5,-4,-6,-12,5
13:23:06:942885,7,-2,-8,5,1,-4,-9,-5
13:23:06:948866,-6,-12,-5,-3,-5,-2,11,7
13:23:06:956378,-6,-12,-5,-3,-5,-2,11,7
13:23:06:963852,7,33,-3,-1,0,2,4,-12
13:23:06:971984,20,42,9,-1,2,4,-18,-9
13:23:06:972846,20,42,9,-1,2,4,-18,-9
13:23:06:978844,-7,-25,-7,-10,-4,-3,7,1
13:23:06:994489,6,0,-1,6,0,4,1,9
13:23:06:995336,6,0,-1,6,0,4,1,9
13:23:07:1357,2,43,7,4,0,0,-13,-4
13:23:07:8876,8,-62,1,-2,0,2,-2,-5
13:23:07:24471,8,-62,1,-2,0,2,-2,-5
13:23:07:25403,-9,-12,-24,-5,-5,1,6,0
13:23:07:31963,-5,30,5,1,3,-4,-5,-8
13:23:07:32846,-5,30,5,1,3,-4,-5,-8
13:23:07:38923,9,37,8,-5,-6,-6,-23,-6
13:23:07:54479,17,-27,-13,-7,-3,10,15,0
13:23:07:55488,17,-27,-13,-7,-3,10,15,0
13:23:07:61277,-3,36,30,1,0,-2,12,7
13:23:07:68877,-22,70,32,4,-2,-3,-8,-3
13:23:07:84473,-22,70,32,4,-2,-3,-8,-3
13:23:07:85328,-20,-16,-14,1,3,0,-12,-18
13:23:07:91973,-3,26,-5,-5,-2,1,-11,-4
13:23:07:92861,-3,26,-5,-5,-2,1,-11,-4
13:23:07:106226,7,-50,-10,0,4,-1,-6,-6
13:23:07:114464,-6,-53,-10,-4,2,-1,15,2
13:23:07:115337,-6,-53,-10,-4,2,-1,15,2
13:23:07:121208,12,-16,-38,-7,-5,-2,-1,-6
13:23:07:128845,-5,34,10,-9,-1,0,-13,-8
13:23:07:136339,-5,34,10,-9,-1,0,-13,-8
13:23:07:143919,-10,-12,16,8,-3,0,8,7
13:23:07:152001,-16,-28,7,3,-3,-2,-2,-3
13:23:07:152903,-16,-28,7,3,-3,-2,-2,-3
13:23:07:158889,11,-23,10,-5,-1,1,-11,-7
13:23:07:174506,-7,-41,-24,3,7,-2,32,10
13:23:07:175378,-7,-41,-24,3,7,-2,32,10
13:23:07:189513,-29,-9,-3,3,2,-5,-3,-1
13:23:07:190247,21,29,4,-2,-3,-2,-12,4
13:23:07:196353,21,29,4,-2,-3,-2,-12,4
13:23:07:203850,12,7,-9,-1,5,0,-2,-15
13:23:07:211966,-11,-57,-10,2,1,-3,-3,-1
13:23:07:212840,-11,-57,-10,2,1,-3,-3,-1
13:23:07:218856,7,-4,8,3,1,0,8,-7
13:23:07:234470,35,62,16,2,-3,-7,-9,7
13:23:07:235351,35,62,16,2,-3,-7,-9,7
13:23:07:241237,-9,-1,-4,-7,-4,3,-3,9
13:23:07:248853,6,1,-12,0,-2,-7,-16,-11
13:23:07:256399,6,1,-12,0,-2,-7,-16,-11
13:23:07:263843,-10,23,-17,-2,-3,-4,-1,3
13:23:07:280084,-6,9,-5,-4,-3,6,13,-5
13:23:07:280955,-6,9,-5,-4,-3,6,13,-5
13:23:07:281824,6,-9,4,0,-3,-1,1,7
13:23:07:302603,8,42,-2,-1,-2,2,-20,-10
13:23:07:303491,8,42,-2,-1,-2,2,-20,-10
13:23:07:304219,-9,11,-15,3,2,-3,-12,4
13:23:07:308884,-19,-8,-2,1,1,1,-19,-12
13:23:07:316381,-19,-8,-2,1,1,1,-19,-12
13:23:07:323895,-3,18,23,4,4,-1,-10,-2
13:23:07:331999,14,32,4,1,-1,-3,11,8
13:23:07:332838,14,32,4,1,-1,-3,11,8
13:23:07:338882,-7,-26,-2,-3,1,3,7,5
13:23:07:354491,8,26,-4,-5,-4,-2,-3,3
13:23:07:355371,8,26,-4,-5,-4,-2,-3,3
13:23:07:361282,-7,23,-6,-8,-5,-6,-9,-12
13:23:07:368851,1,5,-3,-2,-3,0,8,-17
13:23:07:384473,1,5,-3,-2,-3,0,8,-17
13:23:07:385214,13,-19,15,-5,-2,0,2,3
13:23:07:392131,4,-7,-1,-2,-1,3,7,-1
13:23:07:392858,4,-7,-1,-2,-1,3,7,-1
13:23:07:398847,3,19,12,0,1,2,-2,-8
13:23:07:414512,10,57,25,-3,-3,-6,-9,5
13:23:07:415360,10,57,25,-3,-3,-6,-9,5
13:23:07:421222,-1,-7,25,8,-1,2,-1,-4
13:23:07:428842,-9,-30,-7,2,0,-6,-4,-4
13:23:07:436354,-9,-30,-7,2,0,-6,-4,-4
13:23:07:443852,0,14,-2,-1,-3,5,-3,-3
13:23:07:451230,11,-45,7,3,1,5,0,0
13:23:07:466985,11,-45,7,3,1,5,0,0
13:23:07:467851,19,-33,-36,-14,-4,-2,0,1
13:23:07:474525,-11,-1,-4,1,2,-5,0,11
13:23:07:475357,-11,-1,-4,1,2,-5,0,11
13:23:07:481218,8,1,-35,0,5,-1,-4,-3
13:23:07:488861,13,12,25,1,3,0,4,3
13:23:07:496363,13,12,25,1,3,0,4,3
13:23:07:503835,-14,-29,-6,2,-1,0,18,6
13:23:07:511979,-3,-17,-13,4,3,3,4,0
13:23:07:512848,-3,-17,-13,4,3,3,4,0
13:23:07:518875,-23,-4,6,-4,1,0,1,1
13:23:07:534480,-10,27,6,-4,1,2,-3,-5
13:23:07:535337,-10,27,6,-4,1,2,-3,-5
