Time,EMG1,EMG2,EMG3,EMG4,EMG5,EMG6,EMG7,EMG8
17:29:29:210765,0,1,11,10,3,-1,1,-1
17:29:29:218269,2,4,23,21,11,3,2,-1
17:29:29:226516,2,4,23,21,11,3,2,-1
17:29:29:227236,-3,-6,-22,-30,-5,-3,-3,-3
17:29:29:240880,-1,-2,-11,-1,-6,-3,-1,-1
17:29:29:248930,-1,-2,-11,-1,-6,-3,-1,-1
17:29:29:249714,3,5,20,28,3,0,-2,1
17:29:29:255938,-5,-10,-31,-36,-7,-4,-3,-3
17:29:29:271600,-5,-10,-31,-36,-7,-4,-3,-3
17:29:29:272275,-1,1,17,8,-2,-2,1,2
17:29:29:278250,-2,0,-4,5,4,2,-2,-1
17:29:29:286933,-2,0,-4,5,4,2,-2,-1
17:29:29:301486,-2,-3,6,-28,-7,0,-2,-2
17:29:29:302200,-3,0,4,5,2,0,-1,-1
17:29:29:309047,-3,0,4,5,2,0,-1,-1
17:29:29:309692,0,-2,-28,-15,0,-1,-1,-1
17:29:29:315749,-1,-4,-24,-25,-7,-2,-1,-1
17:29:29:323368,-1,-4,-24,-25,-7,-2,-1,-1
17:29:29:330725,-4,-4,40,26,1,-2,-3,-1
17:29:29:354803,-4,-3,-3,3,-4,-4,-3,-2
17:29:29:355419,-4,-3,-3,3,-4,-4,-3,-2
17:29:29:356193,3,7,4,27,10,5,4,2
17:29:29:360864,-1,1,8,5,1,0,-3,0
17:29:29:369630,-1,1,8,5,1,0,-3,0
17:29:29:370392,0,-3,-29,8,0,-1,-2,-2
17:29:29:375812,-1,-2,-11,9,-3,1,0,1
17:29:29:383248,-1,-2,-11,9,-3,1,0,1
17:29:29:390853,-2,1,36,30,8,1,2,0
17:29:29:407143,0,-1,-10,-4,-1,0,-3,-3
17:29:29:407884,0,-1,-10,-4,-1,0,-3,-3
17:29:29:408707,0,1,15,1,-7,-3,-1,-1
17:29:29:429581,-1,-4,45,8,-6,-4,-1,-1
17:29:29:430375,-1,-4,45,8,-6,-4,-1,-1
17:29:29:431217,0,-1,-1,-6,-1,0,-2,0
17:29:29:435680,-1,2,17,17,-1,-1,-3,-1
17:29:29:451543,-1,2,17,17,-1,-1,-3,-1
17:29:29:452204,2,1,21,13,-1,-2,-2,-1
17:29:29:458411,-1,2,7,4,3,1,0,0
17:29:29:482123,-1,2,7,4,3,1,0,0
17:29:29:482917,-2,-2,2,2,0,-2,-2,-3
17:29:29:483727,0,0,-16,-14,-2,0,1,-2
17:29:29:489063,0,0,-16,-14,-2,0,1,-2
17:29:29:489684,-2,0,-15,-3,-2,0,-2,-2
17:29:29:503906,-3,-2,-5,-22,-8,-6,-2,-1
17:29:29:504733,-3,-2,-5,-22,-8,-6,-2,-1
17:29:29:527729,-2,0,-12,-7,0,-1,-1,-2
17:29:29:528523,-1,-5,-64,-39,-3,-1,0,-1
17:29:29:529355,-1,-5,-64,-39,-3,-1,0,-1
17:29:29:530140,-3,-2,-2,-14,-3,-3,-3,-1
17:29:29:540840,1,3,25,21,5,0,-1,0
17:29:29:557160,1,3,25,21,5,0,-1,0
17:29:29:557900,-3,-4,3,2,-2,-2,-2,-1
17:29:29:558685,0,-3,4,16,-4,-1,-2,1
17:29:29:563247,0,-3,4,16,-4,-1,-2,1
17:29:29:570743,1,0,1,8,-2,-2,1,0
17:29:29:578253,0,1,7,11,2,0,0,-1
17:29:29:586474,0,1,7,11,2,0,0,-1
17:29:29:587196,1,-2,-8,-5,1,1,0,0
17:29:29:600721,-1,-1,22,-2,3,-2,-2,0
17:29:29:608967,-1,-1,22,-2,3,-2,-2,0
17:29:29:609688,-3,0,15,30,-5,-6,-4,-2
17:29:29:624008,1,-2,-43,-20,2,2,-1,-3
17:29:29:624735,1,-2,-43,-20,2,2,-1,-3
17:29:29:630724,0,3,-4,0,5,2,1,-3
17:29:29:638349,-1,2,7,14,5,1,0,2
17:29:29:646389,-1,2,7,14,5,1,0,2
17:29:29:647204,-2,-2,-5,-14,-2,-3,-2,-1
17:29:29:660726,0,0,5,-5,-2,0,-1,0
17:29:29:668950,0,0,5,-5,-2,0,-1,0
17:29:29:669703,-3,-3,-14,-5,-4,-2,-2,-1
17:29:29:675782,0,1,19,15,-1,-2,-2,1
17:29:29:683272,0,1,19,15,-1,-2,-2,1
17:29:29:690826,-1,-3,-39,-39,-3,-1,-1,0
17:29:29:698253,-1,-5,-8,-9,-5,-1,-1,-1
17:29:29:714637,-1,-5,-8,-9,-5,-1,-1,-1
17:29:29:715441,1,1,3,-14,2,1,0,1
17:29:29:720763,-2,2,11,1,-2,-1,0,-6
17:29:29:728952,-2,2,11,1,-2,-1,0,-6
17:29:29:729710,0,-1,0,-6,-2,0,0,-6
17:29:29:735770,-5,-1,-2,-2,-2,-2,-1,-3
17:29:29:743392,-5,-1,-2,-2,-2,-2,-1,-3
17:29:29:767785,-2,-2,13,6,-3,0,-1,1
17:29:29:768556,3,-1,-9,-3,1,1,1,-3
17:29:29:769375,3,-1,-9,-3,1,1,1,-3
17:29:29:770195,0,-8,-38,-17,-7,-5,-2,0
17:29:29:780706,-3,1,5,5,1,-1,-2,1
17:29:29:789056,-3,1,5,5,1,-1,-2,1
17:29:29:789751,-1,2,5,12,3,1,-1,-1
17:29:29:795732,0,0,20,7,-2,-2,0,-2
17:29:29:803330,0,0,20,7,-2,-2,0,-2
17:29:29:810719,-3,-4,23,18,-3,-1,-1,-2
17:29:29:834550,-1,-6,14,1,-2,-1,-2,0
17:29:29:835421,-1,-6,14,1,-2,-1,-2,0
17:29:29:836196,0,2,28,34,0,0,0,2
17:29:29:848660,-2,-2,-8,-8,-2,-2,-2,0
17:29:29:857179,-2,-2,-8,-8,-2,-2,-2,0
17:29:29:857872,-3,-2,-1,-10,-1,-1,-2,-3
17:29:29:858730,-1,-1,-12,-3,-1,2,-1,-1
17:29:29:871577,-1,-1,-12,-3,-1,2,-1,-1
17:29:29:872201,-2,0,-6,-13,2,0,1,-5
17:29:29:878241,0,0,-6,-2,0,-2,-1,-1
17:29:29:886410,0,0,-6,-2,0,-2,-1,-1
17:29:29:887199,0,-1,-9,-7,0,-2,-3,0
17:29:29:909476,-2,-1,-13,-7,-3,-1,0,-1
17:29:29:910166,-2,-1,-13,-7,-3,-1,0,-1
17:29:29:924761,0,1,3,4,-1,0,-2,1
17:29:29:925376,-2,0,4,5,0,1,-3,0
17:29:29:926219,-2,0,4,5,0,1,-3,0
17:29:29:930680,1,-4,-12,-11,-2,1,0,1
17:29:29:938421,0,-1,-10,-5,-2,-1,-1,-2
17:29:29:946454,0,-1,-10,-5,-2,-1,-1,-2
17:29:29:947235,1,0,-3,22,-1,-1,-1,0
17:29:29:961431,-2,-1,-9,-4,-2,-1,-4,0
17:29:29:962221,-2,-1,-9,-4,-2,-1,-4,0
17:29:29:968221,0,0,0,-9,0,1,0,0
17:29:29:975855,-1,-1,5,-15,-1,0,-3,0
17:29:29:983265,-1,-1,5,-15,-1,0,-3,0
17:29:29:990857,-3,-1,-13,-7,0,-1,-1,-1
17:29:29:998219,0,-2,2,2,0,1,0,-1
17:29:30:6552,0,-2,2,2,0,1,0,-1
17:29:30:7287,-1,-3,-10,-10,-3,-1,-1,-1
17:29:30:21674,-1,0,3,9,2,-3,1,-2
17:29:30:22298,-1,0,3,9,2,-3,1,-2
17:29:30:28247,0,-2,0,1,-1,-2,-1,1
17:29:30:43943,-1,-1,-7,-1,-3,-2,0,0
17:29:30:44754,-1,-1,-7,-1,-3,-2,0,0
17:29:30:50731,-2,0,6,-2,2,-1,-1,-2
17:29:30:58322,1,-1,12,4,1,-1,0,-2
17:29:30:65773,1,-1,12,4,1,-1,0,-2
17:29:30:73412,-2,-2,-10,-23,-3,-3,-1,-2
17:29:30:81375,0,1,-1,3,0,0,-2,-1
17:29:30:82190,0,1,-1,3,0,0,-2,-1
17:29:30:88510,0,0,7,0,0,-1,-1,-1
17:29:30:103978,-1,0,-2,-2,-1,-1,-1,0
17:29:30:104817,-1,0,-2,-2,-1,-1,-1,0
17:29:30:118908,-2,-2,2,-7,-1,-1,-2,-1
17:29:30:119669,-2,-2,-3,-8,-1,1,-2,0
17:29:30:125922,-2,-2,-3,-8,-1,1,-2,0
17:29:30:133195,1,-1,3,7,-3,-1,1,-1
17:29:30:141568,-1,-3,3,-3,-2,-2,-1,-2
17:29:30:142267,-1,-3,3,-3,-2,-2,-1,-2
17:29:30:148204,-1,-1,1,1,-2,-1,-1,-1
17:29:30:163918,-2,0,2,6,-1,-1,0,1
17:29:30:164741,-2,0,2,6,-1,-1,0,1
17:29:30:170724,-1,-1,1,10,-1,-2,-1,0
17:29:30:178233,-1,-1,1,0,-2,-3,-1,0
17:29:30:185797,-1,-1,1,0,-2,-3,-1,0
17:29:30:193328,0,-1,-2,-1,-1,3,0,-1
17:29:30:200717,-2,0,-3,2,0,-3,0,-1
17:29:30:209106,-2,0,-3,2,0,-3,0,-1
17:29:30:209725,-1,1,2,7,1,-2,-1,-1
17:29:30:224123,1,-2,-6,-1,-1,-1,0,0
17:29:30:224805,1,-2,-6,-1,-1,-1,0,0
17:29:30:230742,-2,-1,-1,-1,-3,-2,-2,1
17:29:30:238397,0,-2,2,1,-2,-1,0,-2
17:29:30:245761,0,-2,2,1,-2,-1,0,-2
17:29:30:253303,0,-2,-1,-5,-2,-1,-1,0
17:29:30:260780,0,0,1,2,0,0,0,-2
17:29:30:268939,0,0,1,2,0,0,0,-2
17:29:30:269685,0,-1,-4,-10,0,-2,-3,-1
17:29:30:292173,-3,1,-2,2,0,2,0,-1
17:29:30:292930,-3,1,-2,2,0,2,0,-1
17:29:30:293758,-1,-1,1,2,0,-2,-1,0
17:29:30:298237,-1,0,-3,-10,-3,-2,-2,-1
17:29:30:306008,-1,0,-3,-10,-3,-2,-2,-1
17:29:30:313254,-2,-1,6,6,-1,0,-3,-3
17:29:30:320743,0,-1,5,2,-1,-3,-1,-2
17:29:30:328932,0,-1,5,2,-1,-3,-1,-2
17:29:30:329725,-1,-2,2,3,-1,-2,0,-2
17:29:30:343926,0,1,-5,2,-1,-1,-2,-1
17:29:30:344705,0,1,-5,2,-1,-1,-2,-1
17:29:30:358997,-1,-1,-3,-2,-1,-1,0,-1
17:29:30:359710,-1,0,0,1,-1,0,-2,-2
17:29:30:365756,-1,0,0,1,-1,0,-2,-2
17:29:30:373410,-2,-3,-8,-9,-1,1,-2,-2
17:29:30:380746,-1,-2,0,0,0,-2,-1,-1
17:29:30:389115,-1,-2,0,0,0,-2,-1,-1
17:29:30:389708,0,-1,-7,-4,0,-1,0,0
17:29:30:403944,-1,-2,-4,-2,-2,-2,-2,0
17:29:30:404846,-1,-2,-4,-2,-2,-2,-2,0
17:29:30:410757,-1,0,-2,0,-1,-2,0,0
17:29:30:418268,0,-1,-1,0,1,0,-1,1
17:29:30:425889,0,-1,-1,0,1,0,-1,1
17:29:30:433219,-1,1,1,0,-1,0,-1,-1
17:29:30:440890,-2,-2,-4,0,-1,-1,-1,-1
17:29:30:448918,-2,-2,-4,0,-1,-1,-1,-1
17:29:30:449698,1,-1,-1,5,-2,-1,0,0
17:29:30:463900,0,0,1,-3,1,1,0,-1
17:29:30:464735,0,0,1,-3,1,1,0,-1
17:29:30:478902,-1,0,-2,0,-1,-1,0,-1
17:29:30:479681,-1,0,7,6,-1,-1,-1,-3
17:29:30:485790,-1,0,7,6,-1,-1,-1,-3
17:29:30:493411,-1,-2,3,-1,1,0,-3,-1
17:29:30:500747,-1,0,0,-3,0,-1,0,1
17:29:30:509009,-1,0,0,-3,0,-1,0,1
17:29:30:509732,-3,-1,-4,-2,-2,-1,0,-2
17:29:30:532091,-2,-3,-3,0,-1,-1,-1,-2
17:29:30:532894,-2,-3,-3,0,-1,-1,-1,-2
17:29:30:533699,0,-1,1,-1,-1,-1,-3,1
17:29:30:538417,-2,-2,-12,-4,-3,-1,-1,-1
17:29:30:545814,-2,-2,-12,-4,-3,-1,-1,-1
17:29:30:553328,-2,1,1,-1,-2,-2,-3,-1
17:29:30:560706,0,-1,1,-2,-1,-3,-1,1
17:29:30:576544,0,-1,1,-2,-1,-3,-1,1
17:29:30:577222,-1,-1,1,0,-1,-2,2,-3
17:29:30:583909,-2,-1,1,-3,0,-1,1,0
17:29:30:584780,-2,-1,1,-3,0,-1,1,0
17:29:30:590833,-2,-4,0,-7,-1,-1,-1,-2
17:29:30:598236,-1,-1,-3,-2,-2,-3,-2,-1
17:29:30:605948,-1,-1,-3,-2,-2,-3,-2,-1
17:29:30:613247,-1,-1,-7,-1,-3,-1,0,1
17:29:30:621306,1,0,2,3,0,-1,-1,-2
17:29:30:628899,1,0,2,3,0,-1,-1,-2
17:29:30:629720,-2,0,-4,-4,0,1,0,0
17:29:30:643961,-1,-2,-1,0,-1,-2,-1,-2
17:29:30:644691,-1,-2,-1,0,-1,-2,-1,-2
17:29:30:650717,-2,-1,2,0,0,0,-1,-1
17:29:30:658318,0,0,-3,-2,-1,-2,0,1
17:29:30:665761,0,0,-3,-2,-1,-2,0,1
17:29:30:673383,-1,-1,1,1,0,-1,-1,-1
17:29:30:681451,-1,0,-4,-1,-2,0,-2,-1
17:29:30:682256,-1,0,-4,-1,-2,0,-2,-1
17:29:30:688395,-1,-2,-2,0,0,-1,-3,0
17:29:30:703918,-4,-2,-1,-6,-3,-1,-1,-2
17:29:30:704774,-4,-2,-1,-6,-3,-1,-1,-2
17:29:30:710735,-1,-1,1,-2,0,-2,-1,0
17:29:30:718260,-1,0,-2,-1,-2,-3,0,-2
17:29:30:725858,-1,0,-2,-1,-2,-3,0,-2
17:29:30:733207,1,-3,-7,-5,0,0,0,-1
17:29:30:741514,1,-2,3,2,0,0,0,-1
17:29:30:742226,1,-2,3,2,0,0,0,-1
17:29:30:748178,-1,-1,4,-5,-2,-2,0,-2
17:29:30:763926,-2,-2,-8,0,0,1,-1,1
17:29:30:764736,-2,-2,-8,0,0,1,-1,1
17:29:30:770717,-2,-1,7,8,-2,-2,-1,-2
17:29:30:778215,0,-1,-1,2,2,2,-3,-3
17:29:30:785801,0,-1,-1,2,2,2,-3,-3
17:29:30:793322,-2,-2,-12,-1,-3,-6,-2,-1
17:29:30:801451,0,-1,-7,-25,-3,-2,1,1
17:29:30:802269,0,-1,-7,-25,-3,-2,1,1
17:29:30:808422,-1,0,0,-3,-5,0,0,-2
17:29:30:824051,0,1,21,10,1,-2,-1,-1
17:29:30:824774,0,1,21,10,1,-2,-1,-1
17:29:30:830699,-1,-1,4,-2,1,-1,0,-2
17:29:30:838403,-1,0,11,6,3,5,0,0
17:29:30:845784,-1,0,11,6,3,5,0,0
17:29:30:853255,-2,-1,3,9,6,2,0,0
17:29:30:861388,-3,-2,4,7,-8,-7,0,-2
17:29:30:862212,-3,-2,4,7,-8,-7,0,-2
17:29:30:868235,-1,1,1,0,3,4,1,1
17:29:30:884348,0,1,1,5,15,0,-2,1
17:29:30:885181,0,1,1,5,15,0,-2,1
17:29:30:890797,-1,0,-2,-16,0,-5,-4,-1
17:29:30:898225,-6,-8,-59,-44,-16,-3,-4,-4
17:29:30:905956,-6,-8,-59,-44,-16,-3,-4,-4
17:29:30:913250,1,-2,-19,-5,-8,-3,-3,0
17:29:30:921563,0,-2,18,7,6,0,0,-1
17:29:30:922186,0,-2,18,7,6,0,0,-1
17:29:30:928240,0,1,22,8,-3,-1,-2,-1
17:29:30:943858,-1,0,2,7,-11,-2,-1,-2
17:29:30:944696,-1,0,2,7,-11,-2,-1,-2
17:29:30:950711,-3,0,15,10,-8,2,1,-1
17:29:30:958347,1,3,25,7,-3,-4,1,1
17:29:30:965727,1,3,25,7,-3,-4,1,1
17:29:30:973327,-1,-2,-19,9,12,6,4,0
17:29:30:981428,-1,-2,-7,-11,-10,-6,-2,-2
17:29:30:982216,-1,-2,-7,-11,-10,-6,-2,-2
17:29:30:995733,1,1,-11,8,5,1,0,2
17:29:31:3644,0,0,7,8,-1,-2,-2,-1
17:29:31:11430,0,0,7,8,-1,-2,-2,-1
17:29:31:12209,-2,-4,-8,-10,2,-5,-4,-3
17:29:31:34584,-1,-1,-6,6,28,7,1,1
17:29:31:35382,-1,-1,-6,6,28,7,1,1
17:29:31:36217,-2,-3,0,-13,-10,-4,-1,-2
17:29:31:41520,-1,-2,-1,-4,0,1,-2,-1
17:29:31:42261,-1,-2,-1,-4,0,1,-2,-1
17:29:31:55914,1,4,39,21,-2,1,-2,0
17:29:31:63913,1,-2,-22,-12,-8,0,-2,-1
17:29:31:64728,1,-2,-22,-12,-8,0,-2,-1
17:29:31:70727,1,0,2,-1,-3,-3,-2,0
17:29:31:86443,-2,-2,-18,-7,-3,-3,0,-1
17:29:31:87207,-2,-2,-18,-7,-3,-3,0,-1
17:29:31:93356,-2,-1,-4,-8,-4,2,-1,-2
17:29:31:101506,-3,-4,0,1,-8,-6,-4,0
17:29:31:102281,-3,-4,0,1,-8,-6,-4,0
17:29:31:115703,-2,-5,-19,-15,-3,-2,-3,-2
17:29:31:124004,0,2,-9,-5,-2,-3,-1,0
17:29:31:124769,0,2,-9,-5,-2,-3,-1,0
17:29:31:130718,-1,-4,-31,-5,0,0,-1,-2
17:29:31:146439,-2,2,15,7,5,-2,0,-1
17:29:31:147245,-2,2,15,7,5,-2,0,-1
17:29:31:153233,-1,-3,7,-24,1,2,-1,-1
17:29:31:168945,-1,-3,7,-24,1,2,-1,-1
17:29:31:169709,0,5,4,8,2,1,-2,-3
17:29:31:192910,-1,1,7,2,3,-1,6,1
17:29:31:193567,-1,1,7,2,3,-1,6,1
17:29:31:194363,-2,-3,6,-4,-7,2,0,-1
17:29:31:195185,0,2,1,5,-4,-4,-4,-1
17:29:31:206601,0,2,1,5,-4,-4,-4,-1
17:29:31:207202,3,0,-2,6,-6,2,2,-1
17:29:31:213220,2,-1,8,16,1,-2,0,-1
17:29:31:228956,2,-1,8,16,1,-2,0,-1
17:29:31:229733,2,1,9,22,-2,-4,-4,-1
17:29:31:235697,-1,-1,1,-19,3,3,-1,-1
17:29:31:244026,-1,-1,1,-19,3,3,-1,-1
17:29:31:244710,-5,-10,-33,-46,-9,-5,-5,-2
17:29:31:250708,-5,1,6,23,-4,-1,3,-3
17:29:31:266459,-5,1,6,23,-4,-1,3,-3
17:29:31:267234,-2,-6,-75,-57,1,-3,-4,-1
17:29:31:273382,0,0,7,-5,6,1,9,0
17:29:31:289106,0,0,7,-5,6,1,9,0
17:29:31:289753,-3,-8,-38,-28,-5,-3,2,4
17:29:31:295700,0,1,8,4,-2,-2,-6,2
17:29:31:303974,0,1,8,4,-2,-2,-6,2
17:29:31:304787,1,7,48,36,9,5,2,-2
17:29:31:318202,-1,-4,6,12,-3,-5,-6,-3
17:29:31:326619,-1,-4,6,12,-3,-5,-6,-3
17:29:31:327239,2,7,83,39,15,6,-1,-1
17:29:31:333175,-4,-3,21,43,-16,-7,-6,-1
17:29:31:348924,-4,-3,21,43,-16,-7,-6,-1
17:29:31:349724,-2,-2,14,8,-4,-5,-21,-4
17:29:31:355871,-2,-4,-21,-22,1,-7,-8,0
17:29:31:363937,-2,-4,-21,-22,1,-7,-8,0
17:29:31:364713,-5,-16,-38,-31,-7,-4,6,-4
17:29:31:378235,-1,-6,-35,-29,-4,-6,-7,-2
17:29:31:386404,-1,-6,-35,-29,-4,-6,-7,-2
17:29:31:387200,-2,-2,2,23,4,-2,-4,0
17:29:31:393370,1,-1,1,-10,4,3,4,0
17:29:31:409031,1,-1,1,-10,4,3,4,0
17:29:31:409733,-2,-1,-2,9,4,5,6,0
17:29:31:415657,2,5,21,23,-14,3,7,1
17:29:31:424056,2,5,21,23,-14,3,7,1
17:29:31:424739,3,6,16,11,6,2,3,2
17:29:31:430701,-2,1,-5,1,3,-9,-13,-3
17:29:31:446426,-2,1,-5,1,3,-9,-13,-3
17:29:31:447197,0,2,-10,-13,10,1,-2,0
17:29:31:453238,-2,-4,-3,-11,-16,-4,9,3
17:29:31:468941,-2,-4,-3,-11,-16,-4,9,3
17:29:31:469703,0,-1,9,-3,-11,0,0,0
17:29:31:475838,-2,0,-11,-5,10,3,-8,-2
17:29:31:483910,-2,0,-11,-5,10,3,-8,-2
17:29:31:484732,-4,-8,-15,8,-2,-5,-3,-3
17:29:31:490793,-1,0,-6,-13,-12,-1,-2,-1
17:29:31:506486,-1,0,-6,-13,-12,-1,-2,-1
17:29:31:507217,-1,1,4,1,-11,1,1,1
17:29:31:513246,0,-1,-20,-10,1,-4,0,-2
17:29:31:528908,0,-1,-20,-10,1,-4,0,-2
17:29:31:529700,0,2,-1,4,-2,1,9,1
17:29:31:535759,-2,-3,4,8,12,-3,-4,-4
17:29:31:543921,-2,-3,4,8,12,-3,-4,-4
17:29:31:544706,-2,-2,-2,-27,-20,0,-2,0
17:29:31:550651,-1,-7,-15,1,16,-1,-2,-2
17:29:31:566453,-1,-7,-15,1,16,-1,-2,-2
17:29:31:567208,-1,1,1,11,1,-6,-3,-4
17:29:31:573371,-4,-12,-21,-11,-1,3,-8,-2
17:29:31:589559,-4,-12,-21,-11,-1,3,-8,-2
17:29:31:590200,-1,5,17,4,4,1,2,-1
17:29:31:595687,-2,0,7,1,-3,-4,-1,0
17:29:31:603935,-2,0,7,1,-3,-4,-1,0
17:29:31:604794,1,-3,-6,10,12,-3,-2,-1
17:29:31:610735,-1,3,23,10,13,9,-5,1
17:29:31:626594,-1,3,23,10,13,9,-5,1
17:29:31:627255,-1,-1,-3,-3,8,1,5,-3
17:29:31:633209,0,4,-1,-4,-17,-3,0,0
17:29:31:656253,0,4,-1,-4,-17,-3,0,0
17:29:31:665241,-1,-3,4,8,8,-2,-6,0
17:29:31:666029,-1,0,-3,-11,-19,-2,-1,-2
17:29:31:666851,-1,0,-3,-11,-19,-2,-1,-2
17:29:31:667675,-2,-1,-5,-7,-18,9,6,0
17:29:31:670715,-1,-1,-5,-11,-16,-1,0,-2
17:29:31:686455,-1,-1,-5,-11,-16,-1,0,-2
17:29:31:687224,-2,-3,-1,-3,2,-6,-3,-1
17:29:31:693276,2,-2,1,5,13,6,12,2
17:29:31:709728,2,-2,1,5,13,6,12,2
17:29:31:710422,0,1,8,3,-4,-13,-5,-1
17:29:31:715657,1,0,-5,-2,13,11,7,1
17:29:31:724006,1,0,-5,-2,13,11,7,1
17:29:31:724740,0,3,-5,-1,5,1,0,2
17:29:31:730675,-1,12,15,3,-5,-5,-1,-1
17:29:31:746422,-1,12,15,3,-5,-5,-1,-1
17:29:31:747188,-1,-4,4,4,-7,-8,-7,-3
17:29:31:753200,-1,-7,-9,-5,14,10,14,0
17:29:31:769432,-1,-7,-9,-5,14,10,14,0
17:29:31:770197,1,1,-7,-2,-5,-1,-4,0
17:29:31:775867,-1,1,1,2,1,-2,-4,-1
17:29:31:783917,-1,1,1,2,1,-2,-4,-1
17:29:31:784793,-3,-2,-1,-1,-13,-2,-3,0
17:29:31:790793,-4,-2,6,7,5,-1,-4,-1
17:29:31:806548,-4,-2,6,7,5,-1,-4,-1
17:29:31:807247,-3,-5,-6,-2,-6,-10,2,-4
17:29:31:813244,2,1,-1,-8,-22,0,14,2
17:29:31:828893,2,1,-1,-8,-22,0,14,2
17:29:31:829700,3,0,-5,0,15,8,32,1
17:29:31:844597,0,0,0,-1,10,-6,-7,-1
17:29:31:845386,0,0,0,-1,10,-6,-7,-1
17:29:31:846213,-1,-8,0,3,11,1,-1,0
17:29:31:850713,-2,-22,-37,-21,-22,-7,2,-6
17:29:31:874704,-2,-22,-37,-21,-22,-7,2,-6
17:29:31:875379,-5,-2,2,4,0,-2,-14,0
17:29:31:876181,-2,0,7,11,-8,-10,-15,-3
17:29:31:889081,-2,0,7,11,-8,-10,-15,-3
17:29:31:889712,0,1,-3,-5,18,6,-3,-3
17:29:31:895748,-1,4,3,-1,-6,0,-8,0
17:29:31:903934,-1,4,3,-1,-6,0,-8,0
17:29:31:904784,-2,0,1,-2,-11,-8,-18,-4
17:29:31:910715,1,4,7,4,5,-1,1,-1
17:29:31:926540,1,4,7,4,5,-1,1,-1
17:29:31:927231,-1,-1,1,-2,-5,-9,-10,0
17:29:31:941462,-1,-1,2,-3,9,9,5,-2
17:29:31:942208,-1,-1,2,-3,9,9,5,-2
17:29:31:956457,3,12,15,14,14,1,-3,1
17:29:31:957190,-2,-2,4,1,3,-2,-1,-1
17:29:31:963955,-2,-2,4,1,3,-2,-1,-1
17:29:31:964764,-1,-5,5,-2,-11,8,2,0
17:29:31:978251,-3,1,-6,-8,0,-6,-5,-1
17:29:31:986447,-3,1,-6,-8,0,-6,-5,-1
17:29:31:987253,-2,-2,-13,-14,-6,8,23,1
17:29:31:993379,-1,-4,-4,2,27,0,-5,-3
17:29:32:815,-1,-4,-4,2,27,0,-5,-3
17:29:32:8364,2,-4,-8,-3,-7,-2,24,0
17:29:32:15725,-4,4,13,10,-1,5,13,2
17:29:32:24032,-4,4,13,10,-1,5,13,2
17:29:32:24735,0,3,-5,-4,-1,8,-5,-2
17:29:32:38416,3,10,10,-3,-9,-1,-18,-1
17:29:32:46454,3,10,10,-3,-9,-1,-18,-1
17:29:32:47266,-5,-11,-6,-2,3,-8,-21,-5
17:29:32:53254,0,1,-1,-2,-27,-1,-9,-1
17:29:32:60760,0,1,-1,-2,-27,-1,-9,-1
17:29:32:76521,-3,-3,2,3,1,-9,-8,-2
17:29:32:77188,1,-7,-19,-11,-6,8,5,1
17:29:32:83928,1,-7,-19,-11,-6,8,5,1
17:29:32:84803,-7,-5,-2,-4,-4,-5,-4,-2
17:29:32:98215,-1,-2,-1,-2,-11,-8,-13,-2
17:29:32:106572,-1,-2,-1,-2,-11,-8,-13,-2
17:29:32:107264,0,10,6,-1,4,8,-3,4
17:29:32:113201,-6,-1,3,8,-7,-9,11,-3
17:29:32:120818,-6,-1,3,8,-7,-9,11,-3
17:29:32:128211,2,-3,-13,-7,-6,13,16,36
17:29:32:135721,-7,-8,4,5,22,-3,-13,-10
17:29:32:143956,-7,-8,4,5,22,-3,-13,-10
17:29:32:144699,-3,-7,-5,0,-5,-11,-17,-13
17:29:32:158387,7,12,0,1,4,-7,3,4
17:29:32:166442,7,12,0,1,4,-7,3,4
17:29:32:167270,-2,0,8,0,8,6,0,2
17:29:32:173343,-4,-3,4,7,14,-8,-3,-8
17:29:32:180771,-4,-3,4,7,14,-8,-3,-8
17:29:32:188457,4,3,2,-12,-39,9,5,-5
17:29:32:195750,-1,4,2,-2,-8,10,14,-1
17:29:32:203926,-1,4,2,-2,-8,10,14,-1
17:29:32:204823,-2,-2,2,8,-6,-18,-9,-10
17:29:32:218302,1,0,-5,-9,-34,3,4,8
17:29:32:226515,1,0,-5,-9,-34,3,4,8
17:29:32:227227,-1,-1,-5,-5,21,-3,-5,-10
17:29:32:233229,1,-18,-22,-12,-11,-4,-2,-1
17:29:32:240935,1,-18,-22,-12,-11,-4,-2,-1
17:29:32:248220,-2,3,-16,-15,-17,-4,-11,-7
17:29:32:255934,-1,-1,30,16,12,-2,-3,1
17:29:32:271618,-1,-1,30,16,12,-2,-3,1
17:29:32:272210,2,4,23,24,15,18,35,3
17:29:32:278257,0,-7,-85,-57,1,-3,-7,-2
17:29:32:286424,0,-7,-85,-57,1,-3,-7,-2
17:29:32:287208,2,-3,38,41,14,-1,3,-2
17:29:32:293356,1,10,85,73,-5,9,-1,-3
17:29:32:300777,1,10,85,73,-5,9,-1,-3
17:29:32:308348,-3,3,-56,-51,-12,-6,-8,-4
17:29:32:315682,-5,-6,15,-6,12,-12,-1,1
17:29:32:324127,-5,-6,15,-6,12,-12,-1,1
17:29:32:324756,1,6,17,17,-9,-1,5,1
17:29:32:338414,-5,-18,-31,-29,-8,5,2,-3
17:29:32:346426,-5,-18,-31,-29,-8,5,2,-3
17:29:32:347219,-1,0,1,10,1,-4,-2,-3
17:29:32:353241,0,-7,-42,-34,18,-14,-7,0
17:29:32:360782,0,-7,-42,-34,18,-14,-7,0
17:29:32:368277,-1,-3,1,-11,6,6,-1,-1
17:29:32:375811,2,7,13,21,7,-3,-6,-1
17:29:32:383930,2,7,13,21,7,-3,-6,-1
17:29:32:384751,-4,-5,-1,6,31,-12,-13,-4
17:29:32:398196,-2,4,-1,-1,-19,-10,-9,-3
17:29:32:406582,-2,4,-1,-1,-19,-10,-9,-3
17:29:32:407215,-1,-4,-5,-17,-18,9,8,0
17:29:32:413846,1,2,9,17,18,7,9,3
17:29:32:420823,1,2,9,17,18,7,9,3
17:29:32:428227,1,-1,-3,-4,4,-6,-8,5
17:29:32:435708,-1,-5,-1,1,-20,-6,-2,-20
17:29:32:444025,-1,-5,-1,1,-20,-6,-2,-20
17:29:32:444705,-7,5,12,7,3,0,3,1
17:29:32:458394,7,3,0,-2,-23,7,12,31
17:29:32:466393,7,3,0,-2,-23,7,12,31
17:29:32:467189,-15,-4,6,-1,9,-6,-30,-22
17:29:32:473323,-9,-4,-6,-3,-3,-2,-15,-89
17:29:32:480761,-9,-4,-6,-3,-3,-2,-15,-89
17:29:32:488463,-17,-13,-6,-9,-30,4,1,-9
17:29:32:495754,14,16,-1,6,28,-4,12,78
17:29:32:503963,14,16,-1,6,28,-4,12,78
17:29:32:504831,7,2,-16,-3,-7,-4,-13,-24
17:29:32:518258,-3,3,8,1,5,5,2,6
17:29:32:526577,-3,3,8,1,5,5,2,6
17:29:32:527245,12,-2,13,4,15,6,10,22
17:29:32:533225,30,-3,-3,0,3,-3,-8,-65
17:29:32:540908,30,-3,-3,0,3,-3,-8,-65
17:29:32:548218,9,4,6,5,32,11,20,19
17:29:32:555880,-1,6,6,1,2,-6,-4,-1
17:29:32:563965,-1,6,6,1,2,-6,-4,-1
17:29:32:564720,-10,4,28,13,-14,-9,-2,-7
17:29:32:578278,-21,-12,-24,-37,-20,2,0,16
17:29:32:586431,-21,-12,-24,-37,-20,2,0,16
17:29:32:587188,20,-2,-20,-29,-39,6,3,27
17:29:32:593334,-28,-35,-82,-86,-22,-10,-9,-1
17:29:32:600788,-28,-35,-82,-86,-22,-10,-9,-1
17:29:32:608332,9,4,3,19,-11,3,1,1
17:29:32:615739,5,-9,22,27,1,1,3,15
17:29:32:623835,5,-9,22,27,1,1,3,15
17:29:32:630737,-7,3,-38,-46,-16,-13,-11,-26
17:29:32:638475,23,13,0,-5,5,1,-8,-17
17:29:32:646474,23,13,0,-5,5,1,-8,-17
17:29:32:647269,3,7,52,46,-3,4,4,-24
17:29:32:653218,-5,-5,6,-1,1,4,6,31
17:29:32:660777,-5,-5,6,-1,1,4,6,31
17:29:32:676545,-6,-12,-20,-1,10,-12,-2,9
17:29:32:677212,-25,16,23,17,-3,1,1,2
17:29:32:683951,-25,16,23,17,-3,1,1,2
17:29:32:684787,23,-11,7,13,-1,6,7,13
17:29:32:698299,7,0,-18,-7,12,-3,-6,7
17:29:32:706639,7,0,-18,-7,12,-3,-6,7
17:29:32:707244,-3,-7,-17,-12,-3,-7,-6,14
17:29:32:713230,13,-6,0,14,-11,13,6,18
17:29:32:720816,13,-6,0,14,-11,13,6,18
17:29:32:728233,25,20,25,15,6,4,4,13
17:29:32:735718,-24,-9,-40,-48,2,-19,-6,-3
17:29:32:744016,-24,-9,-40,-48,2,-19,-6,-3
17:29:32:744675,-61,-32,-1,-19,-5,-4,-9,-27
17:29:32:758314,21,16,53,41,-9,11,4,-1
17:29:32:766439,21,16,53,41,-9,11,4,-1
17:29:32:767248,-5,7,0,-22,-5,-13,-3,-10
17:29:32:773357,2,30,45,49,31,3,5,-12
17:29:32:780769,2,30,45,49,31,3,5,-12
17:29:32:788423,9,12,5,21,1,2,0,18
17:29:32:795749,-50,9,1,9,-3,3,1,-5
17:29:32:804017,-50,9,1,9,-3,3,1,-5
17:29:32:804762,9,10,-12,1,3,5,6,-18
17:29:32:818324,23,-10,19,16,-2,-8,-6,-4
17:29:32:826468,23,-10,19,16,-2,-8,-6,-4
17:29:32:827208,-6,-18,-31,-13,-15,-4,1,35
17:29:32:833222,-39,-14,22,38,30,7,-3,-5
17:29:32:840879,-39,-14,22,38,30,7,-3,-5
17:29:32:848211,-1,-20,12,2,7,1,0,-5
17:29:32:855910,-21,-9,-14,-21,-13,1,-1,-29
17:29:32:863277,-21,-9,-14,-21,-13,1,-1,-29
17:29:32:871504,-9,3,12,-3,1,-3,-2,-1
17:29:32:878184,13,14,-4,-2,-14,1,4,30
17:29:32:886506,13,14,-4,-2,-14,1,4,30
17:29:32:887247,3,-7,-31,-20,-11,-4,-3,-86
17:29:32:909654,11,-14,5,-14,10,-8,-5,9
17:29:32:910373,11,-14,5,-14,10,-8,-5,9
17:29:32:911177,4,12,-2,5,-2,0,0,25
17:29:32:915678,10,2,7,12,3,-1,-11,-21
17:29:32:923302,10,2,7,12,3,-1,-11,-21
17:29:32:930712,-9,-1,17,21,-2,-5,-7,-8
17:29:32:938439,5,-9,-35,-6,-16,-12,-18,-54
17:29:32:946431,5,-9,-35,-6,-16,-12,-18,-54
17:29:32:947224,-24,2,14,-27,-10,-3,-3,6
17:29:32:961416,-4,-15,-33,-9,3,1,9,16
17:29:32:962189,-4,-15,-33,-9,3,1,9,16
17:29:32:968241,27,-7,-80,-62,-7,-3,3,-13
17:29:32:975789,28,5,32,-2,-8,-1,-13,-23
17:29:32:983258,28,5,32,-2,-8,-1,-13,-23
17:29:32:990821,2,-16,-14,-19,-1,-2,2,54
17:29:32:998218,-2,-7,10,37,-6,-1,-6,16
17:29:33:6582,-2,-7,10,37,-6,-1,-6,16
17:29:33:7251,-1,-1,18,4,4,-8,-8,8
17:29:33:21646,6,1,-29,-22,21,8,12,-20
17:29:33:22230,6,1,-29,-22,21,8,12,-20
17:29:33:28210,-67,-20,-6,-12,16,5,-3,-3
17:29:33:35731,-23,-14,7,-3,-19,-4,6,15
17:29:33:51588,-23,-14,7,-3,-19,-4,6,15
17:29:33:52209,45,18,42,26,4,-4,1,10
17:29:33:58375,-22,-3,39,11,7,-1,-4,-14
17:29:33:74007,-22,-3,39,11,7,-1,-4,-14
17:29:33:74711,-12,4,52,17,-7,2,-7,16
17:29:33:81405,-35,1,-23,-24,4,-2,4,14
17:29:33:82201,-35,1,-23,-24,4,-2,4,14
17:29:33:88386,24,23,-11,-2,-1,-6,-5,-48
17:29:33:95714,-5,-4,1,10,7,2,3,-13
17:29:33:103281,-5,-4,1,10,7,2,3,-13
17:29:33:110795,9,-29,-1,2,-1,-4,0,0
17:29:33:118252,24,8,-4,5,-7,-6,0,23
17:29:33:126532,24,8,-4,5,-7,-6,0,23
17:29:33:127238,22,23,16,6,-1,4,-2,19
17:29:33:141525,20,8,3,-8,-8,-1,-3,-1
17:29:33:142249,20,8,3,-8,-8,-1,-3,-1
17:29:33:148163,-33,7,-8,14,6,6,3,21
17:29:33:155990,16,11,13,-3,-4,-1,-9,20
17:29:33:163281,16,11,13,-3,-4,-1,-9,20
17:29:33:170725,-7,-3,-9,0,0,0,-4,-41
17:29:33:178242,-7,13,-12,-47,-29,-5,1,22
17:29:33:186400,-7,13,-12,-47,-29,-5,1,22
17:29:33:187183,-12,-12,-49,-14,-4,-4,-2,14
17:29:33:201510,11,-2,-38,-23,-4,2,3,-9
17:29:33:202219,11,-2,-38,-23,-4,2,3,-9
17:29:33:208323,38,1,-42,2,-1,3,2,-32
17:29:33:215721,7,9,-41,-34,-18,-3,-4,-50
17:29:33:223379,7,9,-41,-34,-18,-3,-4,-50
17:29:33:230738,-7,4,37,34,19,-1,6,10
17:29:33:238533,-1,-6,8,22,22,0,5,14
17:29:33:246424,-1,-6,8,22,22,0,5,14
17:29:33:247216,-20,-13,-23,-9,-4,5,-2,-17
17:29:33:261381,20,-2,20,17,3,-2,-6,13
17:29:33:262185,20,-2,20,17,3,-2,-6,13
17:29:33:268230,6,1,64,30,9,-2,-6,59
17:29:33:275913,10,-6,-10,-19,-8,-2,-1,-1
17:29:33:283283,10,-6,-10,-19,-8,-2,-1,-1
17:29:33:290840,-11,2,-6,-1,-8,2,1,7
17:29:33:298217,-20,-37,29,5,5,-3,-2,1
17:29:33:306570,-20,-37,29,5,5,-3,-2,1
17:29:33:307230,6,21,5,-3,-2,2,8,3
17:29:33:321579,-30,-11,-25,-8,-11,-3,-11,-24
17:29:33:322243,-30,-11,-25,-8,-11,-3,-11,-24
17:29:33:328211,4,23,-15,-18,-8,-5,-7,-36
17:29:33:335710,-3,-12,5,47,0,1,-6,-7
17:29:33:343365,-3,-12,5,47,0,1,-6,-7
17:29:33:350669,6,-1,-1,-2,-3,-4,-7,-11
17:29:33:358325,8,-5,-43,-17,0,-6,4,16
17:29:33:366425,8,-5,-43,-17,0,-6,4,16
17:29:33:367242,-40,-11,9,11,5,2,-6,-19
17:29:33:381396,-25,-13,18,2,5,-5,-7,-5
17:29:33:382197,-25,-13,18,2,5,-5,-7,-5
17:29:33:388369,-6,-11,-11,-9,10,11,4,-31
17:29:33:395699,31,16,24,29,4,8,4,7
17:29:33:403281,31,16,24,29,4,8,4,7
17:29:33:410711,3,-16,18,13,-7,-14,-2,47
17:29:33:418207,-9,-14,29,13,4,5,2,18
17:29:33:426527,-9,-14,29,13,4,5,2,18
17:29:33:427231,7,-7,4,7,10,2,3,2
17:29:33:441592,3,-10,11,-15,-15,0,9,19
17:29:33:442257,3,-10,11,-15,-15,0,9,19
17:29:33:448226,26,26,21,-16,-4,-2,4,-18
17:29:33:463927,-10,10,-11,-23,-13,-3,-4,-43
17:29:33:464728,-10,10,-11,-23,-13,-3,-4,-43
17:29:33:470708,27,-3,11,11,4,9,10,1
17:29:33:478214,-19,-11,-11,-4,-2,-4,-2,-43
17:29:33:486442,-19,-11,-11,-4,-2,-4,-2,-43
17:29:33:487230,-4,-2,29,22,-5,-7,-8,8
17:29:33:509678,1,18,11,25,5,1,9,-14
17:29:33:510405,1,18,11,25,5,1,9,-14
17:29:33:511166,-14,-10,-36,9,22,6,11,4
17:29:33:515714,0,-25,-36,-17,5,-4,-8,13
17:29:33:523342,0,-25,-36,-17,5,-4,-8,13
17:29:33:530723,-23,-8,-6,4,-8,-4,0,22
17:29:33:538451,8,21,14,17,28,3,1,27
17:29:33:546444,8,21,14,17,28,3,1,27
17:29:33:547222,-25,2,20,-14,-10,-10,-12,-45
17:29:33:561425,-12,-10,21,-11,17,8,-1,-29
17:29:33:562222,-12,-10,21,-11,17,8,-1,-29
17:29:33:568207,24,5,-43,-11,10,-5,0,11
17:29:33:575888,23,39,41,-5,-13,3,7,13
17:29:33:583288,23,39,41,-5,-13,3,7,13
17:29:33:590813,8,-2,16,11,-14,-3,-10,21
17:29:33:598204,16,10,-6,10,-8,-3,10,42
17:29:33:606574,16,10,-6,10,-8,-3,10,42
17:29:33:607280,6,2,-75,-29,-19,-7,0,16
17:29:33:621567,17,17,-11,5,-17,-6,-4,13
17:29:33:622273,17,17,-11,5,-17,-6,-4,13
17:29:33:628199,4,-1,4,-6,7,-1,-17,1
17:29:33:635707,-22,-48,-36,-29,0,5,19,6
17:29:33:643424,-22,-48,-36,-29,0,5,19,6
17:29:33:650705,-13,-13,-47,-43,6,-3,-7,-13
17:29:33:658310,-10,5,56,42,18,-1,-7,62
17:29:33:666403,-10,5,56,42,18,-1,-7,62
17:29:33:667184,-18,-2,1,-8,-12,-4,3,14
17:29:33:681423,-2,4,-80,-42,14,9,4,24
17:29:33:682225,-2,4,-80,-42,14,9,4,24
17:29:33:688404,-26,-30,24,28,5,1,5,6
17:29:33:695719,16,3,5,12,4,-5,-15,-10
17:29:33:711443,16,3,5,12,4,-5,-15,-10
17:29:33:712213,-15,24,-5,-14,-16,-4,9,29
17:29:33:718201,42,22,-7,-3,11,3,-8,-71
17:29:33:726676,42,22,-7,-3,11,3,-8,-71
17:29:33:727272,-13,-7,-12,-3,-10,-5,-10,-21
17:29:33:741548,24,20,23,4,-13,0,6,-1
17:29:33:742263,24,20,23,4,-13,0,6,-1
17:29:33:748185,9,8,-30,-10,-7,3,-2,-22
17:29:33:755875,-29,-1,2,-5,-4,-8,-7,0
17:29:33:763311,-29,-1,2,-5,-4,-8,-7,0
17:29:33:770782,16,17,71,33,15,11,-3,-23
17:29:33:778225,-30,-21,-5,-17,-27,-6,7,9
17:29:33:786422,-30,-21,-5,-17,-27,-6,7,9
17:29:33:787208,22,-18,25,12,1,1,15,23
17:29:33:801497,-4,28,4,26,9,8,9,27
17:29:33:802245,-4,28,4,26,9,8,9,27
17:29:33:808409,-4,5,15,-10,-2,-3,-2,-64
17:29:33:824063,-17,6,36,8,-9,-4,1,-53
17:29:33:824747,-17,6,36,8,-9,-4,1,-53
17:29:33:830718,34,11,33,-14,-12,1,4,20
17:29:33:838407,-3,-4,55,-4,-8,-7,-10,8
17:29:33:845800,-3,-4,55,-4,-8,-7,-10,8
17:29:33:853241,-12,-16,-6,6,14,-4,-7,-4
17:29:33:861376,3,-7,-86,-33,4,-2,-9,-41
17:29:33:862214,3,-7,-86,-33,4,-2,-9,-41
17:29:33:868213,3,-3,30,-9,7,10,-3,2
17:29:33:892209,8,-2,-10,-7,-12,-1,-2,-26
17:29:33:892933,8,-2,-10,-7,-12,-1,-2,-26
17:29:33:893770,-14,14,-27,6,-11,-7,-18,23
17:29:33:898206,13,-28,-33,-19,-7,-4,-13,13
17:29:33:905938,13,-28,-33,-19,-7,-4,-13,13
17:29:33:913227,19,8,6,7,-13,-13,6,35
17:29:33:921676,-10,-19,-51,-13,-11,8,10,52
17:29:33:922277,-10,-19,-51,-13,-11,8,10,52
17:29:33:928258,-9,-34,18,16,14,4,-3,-30
17:29:33:944008,-8,5,52,19,-4,-4,-9,-56
17:29:33:944781,-8,5,52,19,-4,-4,-9,-56
17:29:33:950721,-35,-30,-13,-11,-1,-7,-7,-29
17:29:33:958297,12,19,-8,21,14,-4,0,18
17:29:33:965790,12,19,-8,21,14,-4,0,18
17:29:33:973407,36,24,10,29,0,5,14,36
17:29:33:981406,-9,-1,13,4,15,11,5,34
17:29:33:982208,-9,-1,13,4,15,11,5,34
17:29:33:988457,-25,-11,-9,0,2,-6,-6,-4
17:29:34:3940,-15,-16,-12,-1,-8,-3,0,-11
17:29:34:4824,-15,-16,-12,-1,-8,-3,0,-11
17:29:34:10744,-6,-19,-32,-11,-1,-5,-5,-2
17:29:34:18222,17,0,51,22,26,6,-1,-76
17:29:34:25929,17,0,51,22,26,6,-1,-76
17:29:34:33220,-5,13,-53,-23,11,-1,0,4
17:29:34:41582,-15,-25,-110,-9,-6,-8,-5,10
17:29:34:42221,-15,-25,-110,-9,-6,-8,-5,10
17:29:34:48197,-5,9,-59,-37,17,15,5,-32
17:29:34:63931,20,26,42,10,-2,-7,4,43
17:29:34:64698,20,26,42,10,-2,-7,4,43
17:29:34:70707,-7,-7,-16,-22,-7,-2,-12,12
17:29:34:86422,-18,-14,-53,-40,-25,-13,-21,-6
17:29:34:87188,-18,-14,-53,-40,-25,-13,-21,-6
17:29:34:93322,9,-7,37,-5,-7,6,-7,-3
17:29:34:101447,-31,-5,5,-10,-10,-1,-1,-27
17:29:34:102199,-31,-5,5,-10,-10,-1,-1,-27
17:29:34:108302,-5,6,55,22,-12,-8,10,8
17:29:34:124024,-24,-22,53,9,-14,-1,0,24
17:29:34:124698,-24,-22,53,9,-14,-1,0,24
17:29:34:130727,39,-10,-70,-45,2,-3,5,12
17:29:34:138460,-17,4,5,7,10,5,1,-15
17:29:34:145737,-17,4,5,7,10,5,1,-15
17:29:34:162011,17,10,60,8,-8,1,7,-88
17:29:34:162858,21,18,22,-9,-11,3,2,11
17:29:34:163658,21,18,22,-9,-11,3,2,11
17:29:34:168208,33,2,-15,18,-3,-2,5,13
17:29:34:183946,3,-17,17,25,31,-2,-7,-38
17:29:34:184740,3,-17,17,25,31,-2,-7,-38
17:29:34:190894,-24,18,18,13,-1,-12,-15,-45
17:29:34:198237,14,8,-6,21,23,15,16,47
17:29:34:206006,14,8,-6,21,23,15,16,47
17:29:34:213247,-31,-18,-9,9,10,0,-3,25
17:29:34:221592,12,3,2,0,-13,-12,4,16
17:29:34:222219,12,3,2,0,-13,-12,4,16
17:29:34:228196,0,-4,-32,-14,-9,5,-8,2
17:29:34:244047,17,17,11,-17,-14,9,10,-4
17:29:34:244694,17,17,11,-17,-14,9,10,-4
17:29:34:250723,-5,26,69,20,-10,-4,3,-22
17:29:34:258472,-24,-18,-32,-19,-16,-7,2,28
17:29:34:265748,-24,-18,-32,-19,-16,-7,2,28
17:29:34:273301,26,13,1,14,13,8,17,38
17:29:34:281175,-10,0,21,-5,-2,0,-13,-21
17:29:34:296431,-10,0,21,-5,-2,0,-13,-21
17:29:34:297200,-18,-7,-31,-43,0,-2,-10,4
17:29:34:303931,-11,22,3,9,-14,-11,-7,-30
17:29:34:304836,-11,22,3,9,-14,-11,-7,-30
17:29:34:310691,22,11,17,33,0,2,-3,6
17:29:34:318190,-5,-22,10,-47,13,0,2,23
17:29:34:325909,-5,-22,10,-47,13,0,2,23
17:29:34:342201,-9,-6,-38,0,-3,1,-8,-3
17:29:34:342876,10,-3,55,22,-1,0,-6,-5
17:29:34:343668,10,-3,55,22,-1,0,-6,-5
17:29:34:348165,-14,-28,21,10,-5,-9,-8,0
17:29:34:364371,-9,-5,7,19,10,4,-2,2
17:29:34:365168,-9,-5,7,19,10,4,-2,2
17:29:34:370747,-29,6,39,24,5,0,8,-18
17:29:34:378251,-10,-20,6,24,7,-1,9,-12
17:29:34:385777,-10,-20,6,24,7,-1,9,-12
17:29:34:393285,8,-21,-82,-55,-23,7,4,31
17:29:34:401477,-3,4,2,-24,-9,-9,1,2
17:29:34:402230,-3,4,2,-24,-9,-9,1,2
17:29:34:408344,-19,-27,-17,6,15,0,-2,26
17:29:34:424036,40,10,-60,-18,-17,11,7,49
17:29:34:424702,40,10,-60,-18,-17,11,7,49
17:29:34:430688,2,7,17,48,18,3,-3,4
17:29:34:438395,-9,30,21,20,2,-16,-14,-30
17:29:34:445785,-9,30,21,20,2,-16,-14,-30
17:29:34:453212,-35,-12,-31,-17,-5,5,5,-3
17:29:34:469604,29,28,8,5,6,4,1,23
17:29:34:470394,29,28,8,5,6,4,1,23
17:29:34:471233,-9,-7,14,-20,-27,-12,-16,-62
17:29:34:483892,5,-15,-20,-21,0,-2,9,10
17:29:34:484764,5,-15,-20,-21,0,-2,9,10
17:29:34:490840,28,4,21,-1,-15,-6,-12,-21
17:29:34:506457,28,4,21,-1,-15,-6,-12,-21
17:29:34:507207,6,-20,6,-8,-13,-4,-4,-6
17:29:34:513233,-17,-16,-75,-22,6,4,0,0
17:29:34:521614,-17,-16,-75,-22,6,4,0,0
17:29:34:522222,-13,22,12,7,-1,-12,-11,8
17:29:34:528182,-20,1,22,-9,-23,-1,-4,21
17:29:34:543930,-20,1,22,-9,-23,-1,-4,21
17:29:34:544681,-22,-13,-11,9,4,-5,-18,-17
17:29:34:550717,48,27,81,28,15,3,11,-7
17:29:34:566223,48,27,81,28,15,3,11,-7
17:29:34:573997,-34,19,42,3,-7,6,9,4
17:29:34:574697,-24,-6,33,15,16,-2,6,17
17:29:34:581419,-24,-6,33,15,16,-2,6,17
17:29:34:582213,7,-2,-11,-9,11,-5,3,-9
17:29:34:588435,9,19,2,4,-4,5,0,10
17:29:34:603926,9,19,2,4,-4,5,0,10
17:29:34:604748,8,-9,22,14,0,6,2,6
17:29:34:610791,13,15,-40,-10,7,3,16,-7
17:29:34:626528,13,15,-40,-10,7,3,16,-7
17:29:34:627244,4,28,-46,-6,-6,-8,-10,-14
17:29:34:633191,5,14,33,2,-6,-2,-12,-21
17:29:34:641476,5,14,33,2,-6,-2,-12,-21
17:29:34:642284,-10,-22,-40,-7,14,12,8,-19
17:29:34:648219,9,4,40,-37,-23,-14,0,25
17:29:34:663969,9,4,40,-37,-23,-14,0,25
17:29:34:664747,-15,-7,-14,-21,7,4,-10,-81
17:29:34:670743,13,2,-39,-4,-4,-3,12,37
17:29:34:686452,13,2,-39,-4,-4,-3,12,37
17:29:34:687208,12,-19,3,12,6,-5,-4,22
17:29:34:693353,-8,3,9,-3,-4,-6,-14,2
17:29:34:701487,-8,3,9,-3,-4,-6,-14,2
17:29:34:702240,12,-11,-13,8,2,4,8,19
17:29:34:708335,23,-18,12,-16,-8,-16,-1,-3
17:29:34:724145,23,-18,12,-16,-8,-16,-1,-3
17:29:34:724780,2,-13,11,-4,3,9,-10,-39
17:29:34:730709,0,0,-38,-5,-1,-1,-5,1
17:29:34:746449,0,0,-38,-5,-1,-1,-5,1
17:29:34:747218,-8,-6,12,4,-4,-8,-9,22
17:29:34:753261,-40,-43,-19,10,11,-1,-1,-33
17:29:34:761448,-40,-43,-19,10,11,-1,-1,-33
17:29:34:762244,-11,-3,-10,-14,-3,6,14,18
17:29:34:775846,-32,-9,-82,-28,-7,1,3,-28
17:29:34:783942,-32,-9,-82,-28,-7,1,3,-28
17:29:34:784778,38,15,36,6,-1,-3,3,22
17:29:34:790883,16,2,32,17,17,3,4,14
17:29:34:806526,16,2,32,17,17,3,4,14
17:29:34:807236,13,4,-6,26,13,2,-4,-35
17:29:34:813192,-16,-16,44,47,2,-3,-3,-13
17:29:34:821642,-16,-16,44,47,2,-3,-3,-13
17:29:34:822232,1,11,18,12,2,1,2,18
17:29:34:835718,23,41,39,-12,2,-6,-12,-31
17:29:34:843981,23,41,39,-12,2,-6,-12,-31
17:29:34:844723,12,7,-55,-16,2,23,2,-11
17:29:34:850698,-10,-2,6,5,-3,2,-2,18
17:29:34:866440,-10,-2,6,5,-3,2,-2,18
17:29:34:867216,-19,2,9,-14,-20,-16,-9,0
17:29:34:873320,17,9,19,-9,-8,-7,-1,13
17:29:34:881415,17,9,19,-9,-8,-7,-1,13
17:29:34:882220,-32,8,30,2,5,5,6,13
17:29:34:895685,7,-10,-62,-14,-12,1,-3,27
17:29:34:903963,7,-10,-62,-14,-12,1,-3,27
17:29:34:904798,-24,-30,76,0,2,6,4,-35
17:29:34:910686,26,16,33,6,11,-3,1,-6
17:29:34:926524,26,16,33,6,11,-3,1,-6
17:29:34:927196,-10,-12,-35,4,-4,-10,2,51
17:29:34:933159,-32,-2,-31,22,18,17,-6,-28
17:29:34:941526,-32,-2,-31,22,18,17,-6,-28
17:29:34:942237,-2,-60,-81,-7,-14,-15,-16,-29
17:29:34:955897,11,0,30,10,-10,-2,3,77
17:29:34:963928,11,0,30,10,-10,-2,3,77
17:29:34:964693,17,20,20,-6,12,6,3,-4
17:29:34:970699,-20,-17,-51,-22,-5,-5,-8,-35
17:29:34:994588,-20,-17,-51,-22,-5,-5,-8,-35
17:29:34:995383,0,24,1,2,-2,0,1,-15
17:29:34:996186,-2,6,-29,-1,-5,-4,-6,-40
17:29:35:1363,-2,6,-29,-1,-5,-4,-6,-40
17:29:35:2171,-3,-13,-23,41,13,-11,-4,7
17:29:35:15706,34,20,23,0,20,7,5,-8
17:29:35:24059,34,20,23,0,20,7,5,-8
17:29:35:24728,-10,13,42,-5,-6,-13,-6,12
17:29:35:30696,9,5,7,0,5,8,1,2
17:29:35:46449,9,5,7,0,5,8,1,2
17:29:35:47221,-16,-23,65,1,3,0,-6,-14
17:29:35:53283,-29,-9,-31,-25,-21,-15,-6,-41
17:29:35:61460,-29,-9,-31,-25,-21,-15,-6,-41
17:29:35:62209,2,-19,-1,0,3,8,8,3
17:29:35:75821,-1,-28,-33,-1,-8,-8,-2,14
17:29:35:83947,-1,-28,-33,-1,-8,-8,-2,14
17:29:35:84817,-6,19,-85,-5,3,10,6,44
17:29:35:98190,9,10,47,-8,5,-1,11,9
17:29:35:106546,9,10,47,-8,5,-1,11,9
17:29:35:107242,-11,-28,31,-10,-23,-3,-13,-9
17:29:35:113213,3,0,48,40,5,1,8,23
17:29:35:128927,3,0,48,40,5,1,8,23
17:29:35:129695,-29,0,-14,6,-11,-10,-9,-5
17:29:35:135723,12,13,6,-27,-3,16,0,-2
17:29:35:152084,12,13,6,-27,-3,16,0,-2
17:29:35:152857,43,29,27,-2,-8,-13,2,39
17:29:35:153726,-5,16,-4,9,-16,-8,2,23
17:29:35:174709,-5,16,-4,9,-16,-8,2,23
17:29:35:175432,1,1,-56,-54,-4,3,2,-13
17:29:35:176208,-8,-12,24,-8,-7,-4,3,77
17:29:35:181375,-8,-12,24,-8,-7,-4,3,77
17:29:35:182168,2,-7,-22,2,3,-1,2,-47
17:29:35:195716,-6,-23,-40,-12,10,-3,-1,4
17:29:35:204019,-6,-23,-40,-12,10,-3,-1,4
17:29:35:204831,10,2,15,-9,6,21,1,-9
17:29:35:210724,2,30,-22,15,-11,-6,6,18
17:29:35:226640,2,30,-22,15,-11,-6,6,18
17:29:35:227194,8,9,23,9,-5,-9,10,54
17:29:35:233189,6,8,49,-10,-12,3,-10,-13
17:29:35:241558,6,8,49,-10,-12,3,-10,-13
17:29:35:242232,10,3,-6,3,-13,-9,-7,-16
17:29:35:255846,-6,-18,-9,2,11,14,2,-69
17:29:35:263707,-6,-18,-9,2,11,14,2,-69
17:29:35:271544,-7,-13,26,2,4,-8,-2,-35
17:29:35:272161,11,21,-14,8,6,4,4,-12
17:29:35:286416,11,21,-14,8,6,4,4,-12
17:29:35:287237,-11,-27,-97,-28,-5,-5,-2,22
17:29:35:302140,0,19,-14,4,15,2,-9,-17
17:29:35:302855,0,19,-14,4,15,2,-9,-17
17:29:35:303723,4,18,-4,14,-3,-6,4,28
17:29:35:315723,-16,9,24,5,11,7,16,55
17:29:35:324036,-16,9,24,5,11,7,16,55
17:29:35:324725,4,13,5,-10,-2,-4,-5,-39
17:29:35:330689,30,18,24,-11,1,0,-11,-13
17:29:35:346400,30,18,24,-11,1,0,-11,-13
17:29:35:347200,22,19,-5,-17,-3,-1,-5,6
17:29:35:353234,-6,-7,2,-6,-11,-19,4,11
17:29:35:361442,-6,-7,2,-6,-11,-19,4,11
17:29:35:362256,-4,16,15,-9,-3,6,-6,-34
17:29:35:375843,-27,-57,-24,-9,-13,-17,-10,-39
17:29:35:383880,-27,-57,-24,-9,-13,-17,-10,-39
17:29:35:384682,-7,-15,-97,-7,2,1,1,10
17:29:35:398223,-27,-32,-35,-13,-22,-23,-18,-15
17:29:35:406553,-27,-32,-35,-13,-22,-23,-18,-15
17:29:35:407193,-10,17,93,18,27,14,16,34
17:29:35:413214,-21,-15,-40,14,-4,-9,-7,-54
17:29:35:428945,-21,-15,-40,14,-4,-9,-7,-54
17:29:35:429718,8,-5,43,25,23,14,6,6
17:29:35:435728,13,1,26,-2,-5,-6,-2,37
17:29:35:443908,13,1,26,-2,-5,-6,-2,37
17:29:35:444670,-40,-11,13,18,4,5,0,-12
17:29:35:450719,1,-29,-25,16,2,-5,-14,-23
17:29:35:474770,1,-29,-25,16,2,-5,-14,-23
17:29:35:475385,16,4,16,5,4,10,8,-9
17:29:35:476185,18,18,14,18,25,7,2,28
17:29:35:481436,18,18,14,18,25,7,2,28
17:29:35:482235,-6,-31,-106,-44,-24,-12,5,-1
17:29:35:495718,-38,-13,87,11,11,17,10,36
17:29:35:503984,-38,-13,87,11,11,17,10,36
17:29:35:504793,7,-13,16,3,-2,2,-8,45
17:29:35:510696,45,23,28,13,-4,6,-5,5
17:29:35:518268,45,23,28,13,-4,6,-5,5
17:29:35:525844,-12,18,22,6,-1,4,10,-56
17:29:35:533212,1,0,11,-26,-18,-8,-7,6
17:29:35:541569,1,0,11,-26,-18,-8,-7,6
17:29:35:542208,18,22,1,-1,10,12,7,19
17:29:35:555799,-3,15,-7,14,-4,-1,8,-20
17:29:35:563950,-3,15,-7,14,-4,-1,8,-20
17:29:35:564728,10,-11,-29,9,-2,-17,-21,27
17:29:35:570726,-7,-14,-2,17,8,-4,0,12
17:29:35:578235,-7,-14,-2,17,8,-4,0,12
17:29:35:585733,-32,-21,13,-3,-22,-11,-9,-19
17:29:35:593286,22,-14,-4,37,9,-2,-18,-25
17:29:35:601956,22,-14,-4,37,9,-2,-18,-25
17:29:35:608297,-12,-7,22,14,-1,-5,-4,-32
17:29:35:615737,-55,-26,-45,-40,-19,-7,0,-22
17:29:35:624079,-55,-26,-45,-40,-19,-7,0,-22
17:29:35:624712,20,11,-14,-7,-6,0,9,24
17:29:35:630694,-15,-8,21,27,11,14,-10,-92
17:29:35:638468,-15,-8,21,27,11,14,-10,-92
17:29:35:645701,-20,-8,-24,-50,-17,-9,-2,-3
17:29:35:653240,-3,17,-24,-8,-24,-17,6,0
17:29:35:661460,-3,17,-24,-8,-24,-17,6,0
17:29:35:662222,-9,-8,34,17,29,18,2,-47
17:29:35:675789,-13,26,11,9,11,0,-1,37
17:29:35:683900,-13,26,11,9,11,0,-1,37
17:29:35:684724,21,7,28,19,11,-7,-3,-43
17:29:35:690789,5,4,-9,-20,-1,15,6,-10
17:29:35:698269,5,4,-9,-20,-1,15,6,-10
17:29:35:705882,-35,1,-23,-20,-23,-7,-7,19
17:29:35:713207,30,28,15,-32,-5,-2,-9,20
17:29:35:720815,30,28,15,-32,-5,-2,-9,20
17:29:35:728224,16,38,-10,26,9,-8,-10,2
17:29:35:735776,4,-23,-39,-18,3,15,5,31
17:29:35:743899,4,-23,-39,-18,3,15,5,31
17:29:35:744708,-2,-11,-59,-29,-12,-14,-16,9
17:29:35:758987,22,-1,-24,-30,-1,7,12,58
17:29:35:759688,22,-1,-24,-30,-1,7,12,58
17:29:35:765716,-28,-67,-60,-31,-22,-16,-12,-20
17:29:35:773297,-31,8,-23,8,13,3,9,23
17:29:35:780752,-31,8,-23,8,13,3,9,23
17:29:35:788449,17,35,127,21,-2,-9,-12,18
17:29:35:795722,12,-5,19,8,32,16,14,26
17:29:35:803972,12,-5,19,8,32,16,14,26
17:29:35:804799,-15,-11,-15,17,-4,-4,0,11
17:29:35:818747,-6,15,-23,-8,-13,1,-2,-21
17:29:35:826486,-6,15,-23,-8,-13,1,-2,-21
17:29:35:827228,-13,10,21,14,0,4,8,35
17:29:35:833226,-21,-22,-8,-15,-14,-12,2,25
17:29:35:840837,-21,-22,-8,-15,-14,-12,2,25
17:29:35:848215,20,34,-84,-20,13,23,13,-15
17:29:35:855910,3,-34,37,28,10,6,5,-60
17:29:35:863922,3,-34,37,28,10,6,5,-60
17:29:35:864713,35,-10,-1,-36,-13,-14,2,20
17:29:35:878886,3,-18,24,-16,-6,-10,-21,-13
17:29:35:879706,3,-18,24,-16,-6,-10,-21,-13
17:29:35:885710,23,12,41,16,11,2,8,-41
17:29:35:893282,-3,-10,14,3,-23,-13,-19,-11
17:29:35:900756,-3,-10,14,3,-23,-13,-19,-11
17:29:35:908308,6,0,11,4,-2,10,4,-32
17:29:35:915683,24,27,-30,-4,-12,-11,-1,-43
17:29:35:924049,24,27,-30,-4,-12,-11,-1,-43
17:29:35:924778,14,5,-27,-23,12,-11,-12,21
17:29:35:939050,1,13,-48,-25,24,11,3,2
17:29:35:939738,1,13,-48,-25,24,11,3,2
17:29:35:945685,-12,-16,67,15,-7,-11,-3,23
17:29:35:953219,-8,-32,-19,9,5,-3,5,30
17:29:35:960772,-8,-32,-19,9,5,-3,5,30
17:29:35:968234,-9,-1,-1,-30,-10,-3,-4,19
17:29:35:975828,6,30,17,19,-2,7,6,16
17:29:35:983900,6,30,17,19,-2,7,6,16
17:29:35:984680,-25,6,-42,-1,-1,11,-1,-26
17:29:35:998944,2,13,17,-29,-29,-17,-2,-4
17:29:35:999739,2,13,17,-29,-29,-17,-2,-4
17:29:36:6002,-7,11,21,-5,-10,-1,4,49
17:29:36:13219,-13,-38,-9,11,-10,-10,-8,-2
17:29:36:20761,-13,-38,-9,11,-10,-10,-8,-2
17:29:36:28226,26,4,2,7,-14,-11,-2,-31
17:29:36:35735,6,9,10,4,7,-3,-7,-52
17:29:36:44003,6,9,10,4,7,-3,-7,-52
17:29:36:44697,36,30,-19,3,24,15,12,22
17:29:36:59001,36,17,-16,18,17,1,2,29
17:29:36:59691,36,17,-16,18,17,1,2,29
17:29:36:65694,13,-19,-12,36,18,-6,-9,8
17:29:36:73386,-22,2,3,-13,13,17,1,7
17:29:36:80750,-22,2,3,-13,13,17,1,7
17:29:36:88413,-32,-7,13,47,-11,-15,-8,-18
17:29:36:95722,-17,-33,-66,2,31,10,8,-17
17:29:36:103984,-17,-33,-66,2,31,10,8,-17
17:29:36:104806,-27,-37,-21,-36,-12,5,-5,4
17:29:36:118928,13,37,19,4,-17,-9,-12,-31
17:29:36:119724,13,37,19,4,-17,-9,-12,-31
17:29:36:125778,-4,-18,-10,37,2,1,-2,-3
17:29:36:133235,-45,-5,-30,-62,-32,-11,4,14
17:29:36:140914,-45,-5,-30,-62,-32,-11,4,14
17:29:36:148204,4,-13,13,-10,2,13,10,4
17:29:36:155938,-2,18,-28,-7,-36,-15,2,20
17:29:36:163939,-2,18,-28,-7,-36,-15,2,20
17:29:36:164710,-18,-40,-30,-23,-5,4,15,28
17:29:36:187053,-25,14,-34,-53,-32,-23,-7,18
17:29:36:187920,-25,14,-34,-53,-32,-23,-7,18
17:29:36:188666,17,54,-4,9,13,11,9,-32
17:29:36:193397,26,-45,17,45,16,14,0,-3
17:29:36:200731,26,-45,17,45,16,14,0,-3
17:29:36:208323,-12,0,-3,-38,-11,-10,-10,-25
17:29:36:215709,0,8,45,9,2,4,12,17
17:29:36:224001,0,8,45,9,2,4,12,17
17:29:36:224714,-6,29,94,21,-4,-14,-11,0
17:29:36:247017,29,21,75,-2,17,15,2,17
17:29:36:247894,29,21,75,-2,17,15,2,17
17:29:36:248633,-9,18,25,6,-3,-7,-15,-72
17:29:36:253224,1,-13,16,2,-19,0,3,-8
17:29:36:260744,1,-13,16,2,-19,0,3,-8
17:29:36:276479,21,-8,68,13,5,3,2,-5
17:29:36:277170,3,-44,-2,3,16,-3,-1,-23
17:29:36:283883,3,-44,-2,3,16,-3,-1,-23
17:29:36:284691,2,-19,2,-18,-12,7,2,31
17:29:36:298934,-3,20,26,14,-5,-9,-16,-1
17:29:36:299729,-3,20,26,14,-5,-9,-16,-1
17:29:36:305899,-6,-9,-2,23,-2,3,9,36
17:29:36:313230,32,-10,-11,-10,-17,-4,-21,-46
17:29:36:320731,32,-10,-11,-10,-17,-4,-21,-46
17:29:36:328260,11,-3,-3,30,22,0,-6,-42
17:29:36:335739,-13,-9,12,4,-2,-16,-7,23
17:29:36:343957,-13,-9,12,4,-2,-16,-7,23
17:29:36:344709,7,-1,-59,-29,7,9,12,-1
17:29:36:358999,-21,4,3,17,13,6,-13,5
17:29:36:359684,-21,4,3,17,13,6,-13,5
17:29:36:365703,-18,24,-3,-44,-26,-12,-19,-63
17:29:36:373350,-16,-18,-3,-4,-2,-4,8,8
17:29:36:380770,-16,-18,-3,-4,-2,-4,8,8
17:29:36:388387,-9,-17,-5,-6,14,-6,-9,-1
17:29:36:395706,-24,5,37,28,1,12,15,-6
17:29:36:411420,-24,5,37,28,1,12,15,-6
17:29:36:412217,-8,-12,-27,0,7,-3,5,-6
17:29:36:418934,23,16,28,-4,12,10,10,32
17:29:36:419690,23,16,28,-4,12,10,10,32
17:29:36:425805,-19,-20,16,6,-36,-25,-21,-3
17:29:36:441458,-12,15,-26,-9,2,7,9,6
17:29:36:442232,-12,15,-26,-9,2,7,9,6
17:29:36:448222,-26,7,-1,27,14,2,-19,-23
17:29:36:455855,-60,-22,-33,-6,-3,-14,-10,-60
17:29:36:463917,-60,-22,-33,-6,-3,-14,-10,-60
17:29:36:464689,-6,8,-8,-8,-10,2,10,4
17:29:36:478920,19,23,20,16,4,-4,-8,-4
17:29:36:479716,19,23,20,16,4,-4,-8,-4
17:29:36:485746,-18,5,20,-22,-16,-10,2,-19
17:29:36:493444,14,18,-17,-6,8,8,2,38
17:29:36:500759,14,18,-17,-6,8,8,2,38
17:29:36:508311,-2,-25,28,16,6,-12,1,40
17:29:36:524657,11,-11,6,-14,-21,0,3,-26
17:29:36:525396,11,-11,6,-14,-21,0,3,-26
17:29:36:526189,51,0,-73,-31,4,-12,-12,69
17:29:36:539075,-10,-1,-40,-33,10,12,6,-24
17:29:36:539716,-10,-1,-40,-33,10,12,6,-24
17:29:36:545741,30,26,31,3,0,9,12,-18
17:29:36:553274,48,38,-71,24,7,-9,7,48
17:29:36:560735,48,38,-71,24,7,-9,7,48
17:29:36:568279,3,-22,0,36,13,22,17,25
17:29:36:575851,14,7,94,37,11,-1,3,-10
17:29:36:583937,14,7,94,37,11,-1,3,-10
17:29:36:584686,-21,17,-7,18,2,-4,-2,68
17:29:36:598905,15,2,10,16,18,4,0,44
17:29:36:599682,15,2,10,16,18,4,0,44
17:29:36:605880,6,-78,46,-25,-12,-13,-7,28
17:29:36:613918,-19,-18,15,-10,19,-2,-25,-21
17:29:36:620745,-19,-18,15,-10,19,-2,-25,-21
17:29:36:628182,8,26,-17,-13,-20,7,13,-11
17:29:36:635676,1,-1,28,-23,-23,-1,2,7
17:29:36:644047,1,-1,28,-23,-23,-1,2,7
17:29:36:644727,14,-5,-56,-5,-1,4,-8,-70
17:29:36:659062,-5,-12,53,16,-5,-13,-15,-33
17:29:36:659732,-5,-12,53,16,-5,-13,-15,-33
17:29:36:665654,-43,16,16,-6,5,-1,-3,16
17:29:36:681383,-11,-27,-53,-38,-7,4,7,-25
17:29:36:682189,-11,-27,-53,-38,-7,4,7,-25
17:29:36:688366,9,-7,11,62,45,23,0,-37
17:29:36:695734,29,50,15,25,21,24,17,44
17:29:36:703289,29,50,15,25,21,24,17,44
17:29:36:710697,-4,22,-16,-25,-16,-17,-14,-12
17:29:36:718928,24,3,-21,-2,-9,-12,1,-3
17:29:36:719706,24,3,-21,-2,-9,-12,1,-3
17:29:36:725783,-5,28,62,-3,8,7,2,-11
17:29:36:741548,-14,-28,7,0,10,6,3,-18
17:29:36:742238,-14,-28,7,0,10,6,3,-18
17:29:36:748203,26,18,16,-28,-16,-13,5,-2
17:29:36:755866,-2,-74,-68,-24,-12,3,-7,5
17:29:36:763260,-2,-74,-68,-24,-12,3,-7,5
17:29:36:770734,-51,-28,-68,-20,-7,-8,-15,27
17:29:36:778917,-5,18,-6,17,-5,0,1,-18
17:29:36:779771,-5,18,-6,17,-5,0,1,-18
17:29:36:785690,7,13,-79,36,2,-13,6,9
17:29:36:801505,-25,-61,27,-26,7,-12,-21,-32
17:29:36:802198,-25,-61,27,-26,7,-12,-21,-32
17:29:36:808351,13,20,53,-27,6,2,-5,13
17:29:36:815722,-54,23,-7,9,44,9,22,33
17:29:36:823413,-54,23,-7,9,44,9,22,33
17:29:36:830714,-11,-48,-7,-6,-15,9,-2,-4
17:29:36:839472,-10,-29,-27,-6,-26,-15,-16,19
17:29:36:846386,-10,-29,-27,-6,-26,-15,-16,19
17:29:36:847194,13,3,-70,-8,9,6,0,-42
17:29:36:861443,-7,12,37,0,-11,13,10,-31
17:29:36:862231,-7,12,37,0,-11,13,10,-31
17:29:36:868237,26,24,32,13,-8,-4,9,14
17:29:36:875903,-31,-33,16,3,-12,-3,-3,-19
17:29:36:883223,-31,-33,16,3,-12,-3,-3,-19
17:29:36:890869,50,12,29,-18,-23,0,6,-25
17:29:36:898906,-2,5,10,18,-7,-21,-1,23
17:29:36:899698,-2,5,10,18,-7,-21,-1,23
17:29:36:905830,-11,5,-86,-18,24,20,16,-1
17:29:36:922141,27,2,-78,-37,-31,-10,-8,-31
17:29:36:922677,27,2,-78,-37,-31,-10,-8,-31
17:29:36:928241,-26,-8,44,2,-14,-19,-18,-28
17:29:36:935737,6,59,-46,-3,4,1,1,-2
17:29:36:943345,6,59,-46,-3,4,1,1,-2
17:29:36:950650,-49,-57,-50,16,-6,-9,1,17
17:29:36:959026,76,82,89,9,5,12,10,-7
17:29:36:959709,76,82,89,9,5,12,10,-7
17:29:36:965684,-16,-26,60,5,-9,-8,-1,-1
17:29:36:981383,-41,-8,-57,-5,-16,-14,-18,8
17:29:36:982245,-41,-8,-57,-5,-16,-14,-18,8
17:29:36:996383,10,-13,10,-5,3,7,10,62
17:29:36:997184,12,-11,22,6,-15,6,3,-54
17:29:37:3251,12,-11,22,6,-15,6,3,-54
17:29:37:10753,-15,-37,-43,-4,0,-8,-21,7
17:29:37:18919,-21,8,20,-18,-5,-9,3,13
17:29:37:19705,-21,8,20,-18,-5,-9,3,13
17:29:37:25805,5,21,-13,17,2,10,7,-17
17:29:37:49558,17,-7,-26,-10,0,-1,0,0
17:29:37:50352,17,-7,-26,-10,0,-1,0,0
17:29:37:51176,3,-11,-17,-42,-23,-2,-9,6
17:29:37:55904,-18,-66,-22,13,-4,-8,-6,2
17:29:37:63247,-18,-66,-22,13,-4,-8,-6,2
17:29:37:70770,-3,9,42,14,13,-8,-8,4
17:29:37:78950,-46,-22,-21,-29,-13,-9,-13,-1
17:29:37:79704,-46,-22,-21,-29,-13,-9,-13,-1
17:29:37:85701,15,8,52,38,19,7,-7,-16
17:29:37:101408,8,3,5,21,12,-2,9,34
17:29:37:102215,8,3,5,21,12,-2,9,34
17:29:37:108364,-42,-12,31,5,-4,18,14,13
17:29:37:115732,4,-6,-17,12,15,7,-6,29
17:29:37:123359,4,-6,-17,12,15,7,-6,29
17:29:37:130692,52,54,36,-5,-7,-6,0,-6
17:29:37:139069,-29,6,1,-37,-3,-6,-9,2
17:29:37:139778,-29,6,1,-37,-3,-6,-9,2
17:29:37:145699,8,22,-8,-3,14,-8,10,-14
17:29:37:161403,-23,-25,-47,9,7,8,10,-28
17:29:37:162205,-23,-25,-47,9,7,8,10,-28
17:29:37:176510,20,2,-12,13,8,-8,-17,-3
17:29:37:177171,48,66,82,70,50,14,3,-6
17:29:37:183225,48,66,82,70,50,14,3,-6
17:29:37:190918,-11,10,-9,-27,6,4,-3,-41
17:29:37:198925,12,29,30,12,-8,-5,-2,-28
17:29:37:199712,12,29,30,12,-8,-5,-2,-28
17:29:37:222303,-28,-6,-24,27,21,11,11,31
17:29:37:222897,1,-15,5,-20,16,16,4,20
17:29:37:223725,1,-15,5,-20,16,16,4,20
17:29:37:228223,8,-38,14,-18,-21,-1,-5,32
17:29:37:235702,0,-1,-19,-16,-14,2,21,-4
17:29:37:243464,0,-1,-19,-16,-14,2,21,-4
17:29:37:250757,-9,-7,-1,-18,7,0,2,2
17:29:37:259018,60,-1,45,0,-9,-5,4,27
17:29:37:259704,60,-1,45,0,-9,-5,4,27
17:29:37:265725,-9,-44,-46,-24,-18,4,-7,-15
17:29:37:289691,-22,-43,-8,8,-8,-10,-11,-6
17:29:37:290388,-22,-43,-8,8,-8,-10,-11,-6
17:29:37:291199,12,28,-2,11,3,-2,12,-7
17:29:37:295709,-45,43,-52,-67,-15,-8,-25,18
17:29:37:303351,-45,43,-52,-67,-15,-8,-25,18
17:29:37:310732,-7,-26,-37,-2,0,-2,5,16
17:29:37:318928,19,21,15,22,5,9,5,3
17:29:37:319695,19,21,15,22,5,9,5,3
17:29:37:325932,-3,40,-1,-8,-17,-8,-7,-33
17:29:37:341557,-3,-45,-14,-12,-15,-6,-3,49
17:29:37:342296,-3,-45,-14,-12,-15,-6,-3,49
17:29:37:348214,37,20,55,10,-14,-11,-5,-1
17:29:37:355937,4,-19,-38,10,9,8,13,-28
17:29:37:363254,4,-19,-38,10,9,8,13,-28
17:29:37:370788,1,-3,-62,-30,-1,-8,-7,19
17:29:37:378937,31,13,-31,2,-12,-10,0,-5
17:29:37:379725,31,13,-31,2,-12,-10,0,-5
17:29:37:385701,-20,-11,-7,22,-11,1,-2,-45
17:29:37:401403,-23,-17,31,-15,-12,-12,-14,-27
17:29:37:402203,-23,-17,31,-15,-12,-12,-14,-27
17:29:37:409068,-45,-91,37,17,2,5,-12,9
17:29:37:415751,-16,2,63,46,16,9,-5,-61
17:29:37:423386,-16,2,63,46,16,9,-5,-61
17:29:37:430702,11,58,68,50,27,12,24,64
17:29:37:439105,-39,-10,-36,-40,-4,-1,-8,-34
17:29:37:439755,-39,-10,-36,-40,-4,-1,-8,-34
17:29:37:453246,-14,-17,-20,-6,-14,-6,2,-18
17:29:37:461368,-10,23,0,-6,5,-4,-2,37
17:29:37:462201,-10,23,0,-6,5,-4,-2,37
17:29:37:468161,22,2,-22,-32,-10,-17,-21,-15
17:29:37:475781,-21,19,51,4,0,12,12,22
17:29:37:483250,-21,19,51,4,0,12,12,22
17:29:37:490780,23,-15,-69,-2,21,5,-1,11
17:29:37:498912,21,31,25,14,13,6,-1,50
17:29:37:499716,21,31,25,14,13,6,-1,50
17:29:37:505808,-49,-11,55,1,-6,-3,3,-35
17:29:37:529532,-9,-67,-27,-10,-8,-11,-3,17
17:29:37:530314,-9,-67,-27,-10,-8,-11,-3,17
17:29:37:531149,-14,11,-21,-5,8,15,33,-40
17:29:37:535750,5,-15,9,9,-4,-11,-4,-21
17:29:37:543330,5,-15,9,9,-4,-11,-4,-21
17:29:37:550675,13,-11,-6,0,-5,2,11,47
17:29:37:558982,-11,-10,52,12,-5,-4,-7,-18
17:29:37:559714,-11,-10,52,12,-5,-4,-7,-18
17:29:37:565665,13,31,59,46,4,-10,-19,13
17:29:37:581401,-10,6,11,-12,9,6,-4,43
17:29:37:582211,-10,6,11,-12,9,6,-4,43
17:29:37:588378,1,22,12,-18,-10,-6,-26,-59
17:29:37:603944,24,25,-18,-3,-14,-13,7,-46
17:29:37:604782,24,25,-18,-3,-14,-13,7,-46
17:29:37:619593,12,10,-6,-16,-4,-1,5,-15
17:29:37:620314,50,12,-120,-21,-1,16,33,54
17:29:37:621268,50,12,-120,-21,-1,16,33,54
17:29:37:633224,-1,-30,-15,-14,-9,-12,-17,5
17:29:37:641520,26,27,26,-4,3,-4,-17,6
17:29:37:642283,26,27,26,-4,3,-4,-17,6
17:29:37:664572,-18,-6,-18,3,12,12,4,-48
17:29:37:665354,4,23,-25,18,12,-4,12,-11
17:29:37:666179,4,23,-25,18,12,-4,12,-11
17:29:37:670687,-3,3,-34,-32,-2,5,-12,28
17:29:37:678929,-10,16,-16,-9,-16,-6,-2,-7
17:29:37:679703,-10,16,-16,-9,-16,-6,-2,-7
17:29:37:693400,-14,12,-44,4,-5,-9,10,26
17:29:37:701400,-40,-58,26,4,-1,0,4,-14
17:29:37:702198,-40,-58,26,4,-1,0,4,-14
17:29:37:708297,22,-22,-79,4,15,15,19,35
17:29:37:724048,5,11,51,-5,-8,-11,-3,-9
17:29:37:724691,5,11,51,-5,-8,-11,-3,-9
17:29:37:730717,10,17,7,-21,-15,-14,-12,-12
17:29:37:739039,8,-42,-89,-9,9,2,-5,-8
17:29:37:739700,8,-42,-89,-9,9,2,-5,-8
17:29:37:753258,2,25,16,3,-6,-12,-3,-10
17:29:37:761404,9,-17,29,14,8,10,-20,1
17:29:37:762223,9,-17,29,14,8,10,-20,1
17:29:37:768181,15,-9,48,-11,-3,7,15,-2
17:29:37:783916,15,-9,48,-11,-3,7,15,-2
17:29:37:784663,-7,-20,-19,15,-3,-2,-3,47
17:29:37:790825,-22,-52,7,23,-1,3,8,17
17:29:37:798924,-22,-52,7,23,-1,3,8,17
17:29:37:799721,-3,36,-14,-5,-14,-7,-15,-10
17:29:37:813225,1,42,75,2,0,3,12,36
17:29:37:821648,1,42,75,2,0,3,12,36
17:29:37:822246,-31,-21,1,-13,6,0,-6,-32
17:29:37:828268,32,-7,-13,-9,-7,-10,-29,32
17:29:37:843962,32,-7,-13,-9,-7,-10,-29,32
17:29:37:844689,-15,20,44,5,-12,-3,0,10
17:29:37:850699,24,6,22,12,15,18,4,2
17:29:37:859055,24,6,22,12,15,18,4,2
17:29:37:859705,4,-47,-22,-16,-12,-12,-2,6
17:29:37:873329,-20,-35,-85,-41,-17,-21,-29,-28
17:29:37:881393,-20,-35,-85,-41,-17,-21,-29,-28
17:29:37:882187,-27,42,29,5,-2,2,0,-18
17:29:37:888477,14,17,11,2,-1,3,-7,-8
17:29:37:904014,14,17,11,2,-1,3,-7,-8
17:29:37:904820,10,4,3,9,11,1,0,6
17:29:37:910715,-32,24,-9,32,2,-6,5,22
17:29:37:918968,-32,24,-9,32,2,-6,5,22
17:29:37:919690,-5,1,-31,-32,-15,-8,8,-28
17:29:37:933680,14,-6,3,-13,11,3,18,20
17:29:37:941461,14,-6,3,-13,11,3,18,20
17:29:37:942161,-6,-79,-18,-32,4,9,17,-17
17:29:37:948189,-35,-34,20,-5,-20,-10,1,-18
17:29:37:963934,-35,-34,20,-5,-20,-10,1,-18
17:29:37:964720,22,5,-59,-15,-8,-2,2,13
17:29:37:970722,-17,-11,-41,-8,-1,4,0,-25
17:29:37:978920,-17,-11,-41,-8,-1,4,0,-25
17:29:37:979680,-2,32,-1,13,-9,2,6,6
17:29:38:2095,4,66,54,9,-5,2,1,-21
17:29:38:2892,4,66,54,9,-5,2,1,-21
17:29:38:3702,-7,5,-41,-27,-10,-9,0,0
17:29:38:8302,-33,-61,-17,-2,33,14,-17,-6
17:29:38:24068,-33,-61,-17,-2,33,14,-17,-6
17:29:38:24719,8,-1,68,18,-5,3,-1,26
17:29:38:30671,-13,-17,75,-6,-4,-9,0,8
17:29:38:39084,-13,-17,75,-6,-4,-9,0,8
17:29:38:39754,13,14,-10,23,8,-5,-24,-88
17:29:38:53250,31,24,-11,-9,-12,-1,7,5
17:29:38:61425,31,24,-11,-9,-12,-1,7,5
17:29:38:62194,12,28,73,26,12,3,-3,3
17:29:38:68193,8,33,-81,-41,-9,-7,-11,-25
17:29:38:83952,8,33,-81,-41,-9,-7,-11,-25
17:29:38:84689,-22,2,-122,20,21,5,22,48
17:29:38:90844,18,-11,8,26,9,3,16,49
17:29:38:98920,18,-11,8,26,9,3,16,49
17:29:38:99726,17,-6,22,-36,-14,-4,-17,-7
17:29:38:113239,-2,-29,-67,15,-4,-3,-4,-17
17:29:38:121668,-2,-29,-67,15,-4,-3,-4,-17
17:29:38:122236,22,3,-9,7,-6,-2,12,36
17:29:38:128176,6,15,57,-11,5,8,-3,-56
17:29:38:144010,6,15,57,-11,5,8,-3,-56
17:29:38:144653,-31,-41,-29,-16,-7,-11,-12,-52
17:29:38:150695,20,8,-78,7,-13,-5,3,46
17:29:38:159061,20,8,-78,7,-13,-5,3,46
17:29:38:159731,24,5,-18,-9,11,6,3,17
17:29:38:173355,7,6,20,13,-3,-4,-10,-40
17:29:38:181396,7,6,20,13,-3,-4,-10,-40
17:29:38:182195,-5,-30,25,-3,-17,-9,-14,13
17:29:38:188458,-4,33,68,6,-2,-2,-22,-31
17:29:38:212097,-4,33,68,6,-2,-2,-22,-31
17:29:38:212902,-8,-11,6,-19,0,3,8,20
17:29:38:213696,0,11,34,19,-2,-4,6,39
17:29:38:218950,0,11,34,19,-2,-4,6,39
17:29:38:219721,-11,14,19,15,-8,-2,-6,5
17:29:38:233201,-19,1,27,7,-3,5,13,-5
17:29:38:241326,-19,1,27,7,-3,5,13,-5
17:29:38:248912,0,-39,-5,17,11,4,-7,-39
17:29:38:249649,-6,51,35,0,11,10,-12,-24
17:29:38:263932,-6,51,35,0,11,10,-12,-24
17:29:38:264702,3,-13,3,4,6,7,10,-4
17:29:38:270710,10,-31,-12,6,1,-9,-8,20
17:29:38:278920,10,-31,-12,6,1,-9,-8,20
17:29:38:279712,8,51,-9,-3,-6,-6,-12,24
17:29:38:293299,7,-5,-6,4,-7,-2,-9,-8
17:29:38:301416,7,-5,-6,4,-7,-2,-9,-8
17:29:38:302198,-3,-9,35,-35,-10,-7,-10,-16
17:29:38:308290,36,-9,-71,-30,-10,-8,-7,8
17:29:38:324037,36,-9,-71,-30,-10,-8,-7,8
17:29:38:324705,-25,4,16,9,8,4,5,-1
17:29:38:330679,1,-13,-26,-2,-5,-8,-3,-15
17:29:38:339080,1,-13,-26,-2,-5,-8,-3,-15
17:29:38:339734,-5,27,28,19,8,9,8,2
17:29:38:353265,-77,-54,20,-14,-5,-4,8,36
17:29:38:361444,-77,-54,20,-14,-5,-4,8,36
17:29:38:362213,2,12,33,-5,-16,-18,-17,-8
17:29:38:368255,0,-9,7,-6,0,10,7,-5
17:29:38:383970,0,-9,7,-6,0,10,7,-5
17:29:38:384688,-28,-40,12,6,-3,4,7,20
17:29:38:390858,-15,-32,-81,-50,-12,-8,-11,-21
17:29:38:398945,-15,-32,-81,-50,-12,-8,-11,-21
17:29:38:399738,16,33,12,40,21,9,11,-51
17:29:38:413233,-6,-18,-5,19,3,4,3,0
17:29:38:421631,-6,-18,-5,19,3,4,3,0
17:29:38:422230,4,-15,-5,15,-6,-4,11,10
17:29:38:428255,-26,11,49,-35,-13,5,3,5
17:29:38:444035,-26,11,49,-35,-13,5,3,5
17:29:38:444681,19,11,-17,-9,-7,-5,-3,12
17:29:38:450698,15,8,18,4,-7,-2,9,52
17:29:38:459009,15,8,18,4,-7,-2,9,52
17:29:38:459703,-7,29,18,14,7,0,-13,-17
17:29:38:473348,-1,60,20,36,20,-3,10,1
17:29:38:489674,-1,60,20,36,20,-3,10,1
17:29:38:490373,19,-9,47,-7,-1,-6,-20,-17
17:29:38:491218,0,28,45,24,-2,-1,-15,-28
17:29:38:504034,0,28,45,24,-2,-1,-15,-28
17:29:38:504761,11,-61,-22,-23,4,13,5,-33
17:29:38:510725,-9,2,99,36,22,-5,-11,-15
17:29:38:518988,-9,2,99,36,22,-5,-11,-15
17:29:38:519767,19,57,2,16,3,-4,11,13
17:29:38:533241,3,-19,-21,-10,-1,4,2,-40
17:29:38:541522,3,-19,-21,-10,-1,4,2,-40
17:29:38:542254,-36,4,-25,-15,-19,-8,13,-28
17:29:38:555795,31,9,64,8,-1,2,11,-3
17:29:38:563928,31,9,64,8,-1,2,11,-3
17:29:38:564705,-26,-60,-10,-9,-1,-15,-18,-4
17:29:38:570723,5,15,-18,-4,8,23,13,-14
17:29:38:586418,5,15,-18,-4,8,23,13,-14
17:29:38:587222,-22,-40,-45,-11,1,8,7,13
17:29:38:602158,-25,-31,-59,3,0,-7,7,33
17:29:38:602904,-25,-31,-59,3,0,-7,7,33
17:29:38:603673,9,31,-2,-3,1,-1,4,38
17:29:38:615692,9,-13,-13,-5,-11,-3,6,53
17:29:38:624024,9,-13,-13,-5,-11,-3,6,53
17:29:38:624715,-7,18,6,-20,-20,-12,1,-9
17:29:38:630706,-11,-40,-68,6,-3,-7,-34,-36
17:29:38:638443,-11,-40,-68,6,-3,-7,-34,-36
17:29:38:645711,27,23,-6,10,0,2,-8,17
17:29:38:653225,16,2,-90,-1,1,1,21,17
17:29:38:661414,16,2,-90,-1,1,1,21,17
17:29:38:662210,-4,-12,-57,5,6,5,-2,12
17:29:38:675805,-15,-5,45,1,5,4,2,-1
17:29:38:683901,-15,-5,45,1,5,4,2,-1
17:29:38:684685,28,24,-12,6,4,-7,-2,19
17:29:38:690813,40,53,41,-31,-19,-10,5,18
17:29:38:698258,40,53,41,-31,-19,-10,5,18
17:29:38:705869,-19,-10,92,3,-3,11,2,-4
17:29:38:713191,18,64,57,6,4,3,-22,17
17:29:38:721649,18,64,57,6,4,3,-22,17
17:29:38:722270,12,40,-27,-9,-1,-6,-29,-30
17:29:38:735761,-16,-7,57,6,5,5,21,-14
17:29:38:744112,-16,-7,57,6,5,5,21,-14
17:29:38:744729,-19,10,-40,29,27,19,31,33
17:29:38:750690,-23,-9,-18,7,10,3,-7,-37
17:29:38:758428,-23,-9,-18,7,10,3,-7,-37
17:29:38:765696,-1,-11,16,-17,-12,-10,4,-6
17:29:38:773375,-2,-71,-81,-15,-2,-4,8,10
17:29:38:781434,-2,-71,-81,-15,-2,-4,8,10
17:29:38:782263,-18,-19,2,-19,6,5,-3,-13
17:29:38:795703,-22,-27,-9,11,10,0,-6,22
17:29:38:803965,-22,-27,-9,11,10,0,-6,22
17:29:38:804797,3,-1,69,3,-11,-4,-12,-26
17:29:38:810693,31,45,10,-3,-7,-10,-9,11
17:29:38:818332,31,45,10,-3,-7,-10,-9,11
17:29:38:825823,-26,-40,-43,-14,-10,-6,6,20
17:29:38:842192,55,55,3,-10,-11,-9,-26,-43
17:29:38:842911,55,55,3,-10,-11,-9,-26,-43
17:29:38:843679,-28,-10,-69,-37,-11,0,5,-3
17:29:38:855905,-28,-10,-8,3,-14,-10,2,5
17:29:38:863931,-28,-10,-8,3,-14,-10,2,5
17:29:38:864699,27,13,12,7,6,4,-12,-19
17:29:38:870710,-56,8,57,2,1,-6,-9,-12
17:29:38:878275,-56,8,57,2,1,-6,-9,-12
17:29:38:885702,-4,14,11,15,0,0,3,-10
17:29:38:893271,-6,-32,-11,-12,6,6,11,8
17:29:38:901419,-6,-32,-11,-12,6,6,11,8
17:29:38:902283,24,-26,8,-13,0,2,-21,16
17:29:38:915715,1,-10,-47,-25,-17,-12,-18,8
17:29:38:924023,1,-10,-47,-25,-17,-12,-18,8
17:29:38:924783,22,19,-1,8,-7,-13,-20,2
17:29:38:930687,-17,-19,9,16,3,0,7,7
17:29:38:938502,-17,-19,9,16,3,0,7,7
17:29:38:945726,-15,-12,43,63,32,15,24,5
17:29:38:962086,15,13,-8,2,-2,0,4,-33
17:29:38:962889,15,13,-8,2,-2,0,4,-33
17:29:38:963664,-23,-19,-46,-7,-10,-12,1,46
17:29:38:976250,-20,-24,-44,-11,-5,-8,-39,-7
17:29:38:983915,-20,-24,-44,-11,-5,-8,-39,-7
17:29:38:984715,-65,-28,-6,-1,-3,-7,-11,1
17:29:38:990857,17,-32,-56,-22,-10,0,26,29
17:29:38:998274,17,-32,-56,-22,-10,0,26,29
17:29:39:13839,31,40,40,-2,-2,3,10,28
17:29:39:14622,-34,-31,-35,2,7,-5,-39,-50
17:29:39:21669,-34,-31,-35,2,7,-5,-39,-50
17:29:39:22202,16,-19,14,-11,-8,-9,-3,-12
17:29:39:36201,22,-4,-46,-9,5,0,-2,6
17:29:39:44011,22,-4,-46,-9,5,0,-2,6
17:29:39:44686,17,15,33,-1,0,6,-1,-11
17:29:39:50640,5,1,-7,5,2,3,7,13
17:29:39:58399,5,1,-7,5,2,3,7,13
17:29:39:65676,24,40,0,5,-3,-4,-11,-24
17:29:39:73317,-13,-44,5,17,5,-1,9,-5
17:29:39:81442,-13,-44,5,17,5,-1,9,-5
17:29:39:82228,0,-13,6,-9,-11,-8,4,7
17:29:39:96153,-10,4,61,4,-15,-9,-31,-10
17:29:39:103961,-10,4,61,4,-15,-9,-31,-10
17:29:39:104761,-8,-15,-28,-4,-4,5,4,-10
17:29:39:110775,5,-4,12,-4,4,9,24,48
17:29:39:118289,5,-4,12,-4,4,9,24,48
17:29:39:125799,-4,3,-38,-13,-8,-10,-11,-23
17:29:39:133178,25,-10,86,24,13,8,5,15
17:29:39:141540,25,-10,86,24,13,8,5,15
17:29:39:142174,10,29,-21,-9,-2,-3,-10,3
17:29:39:156325,7,40,-9,-17,-11,-4,17,-45
17:29:39:163931,7,40,-9,-17,-11,-4,17,-45
17:29:39:164733,-14,-27,37,20,15,3,-2,-18
17:29:39:170722,-25,9,29,-6,-1,11,23,-1
17:29:39:178284,-25,9,29,-6,-1,11,23,-1
17:29:39:185724,0,-14,-4,3,11,11,9,7
17:29:39:193338,-8,24,-23,8,-4,-7,-13,-43
17:29:39:201394,-8,24,-23,8,-4,-7,-13,-43
17:29:39:202178,-9,4,-6,11,4,-5,-5,2
17:29:39:215700,18,33,28,-2,-2,6,9,24
17:29:39:224091,18,33,28,-2,-2,6,9,24
17:29:39:224683,20,32,39,-11,1,5,4,9
17:29:39:230726,-34,-3,-32,-16,-20,-13,-20,-9
17:29:39:238477,-34,-3,-32,-16,-20,-13,-20,-9
17:29:39:245718,-15,8,10,47,16,7,-12,-89
17:29:39:253264,-5,21,33,25,20,10,2,7
17:29:39:261413,-5,21,33,25,20,10,2,7
17:29:39:262226,-2,-16,-57,-20,-6,-2,-16,16
17:29:39:275883,22,4,5,11,6,1,20,9
17:29:39:291319,22,4,5,11,6,1,20,9
17:29:39:299556,2,-1,3,-10,-1,-5,18,64
17:29:39:300380,-15,-32,-34,-20,0,2,-8,-3
17:29:39:301158,-15,-32,-34,-20,0,2,-8,-3
17:29:39:305932,-4,-23,51,0,-6,8,27,28
17:29:39:313260,-2,7,34,1,-13,-10,1,2
17:29:39:321631,-2,7,34,1,-13,-10,1,2
17:29:39:322224,1,-5,26,-5,-1,1,-6,40
17:29:39:335746,22,-14,-34,-6,-7,-1,11,24
17:29:39:343985,22,-14,-34,-6,-7,-1,11,24
17:29:39:344685,19,14,-28,-13,-8,-6,8,48
17:29:39:350706,13,-11,18,-3,7,-3,-25,-8
17:29:39:358439,13,-11,18,-3,7,-3,-25,-8
17:29:39:365692,0,-42,-26,25,13,1,12,-5
17:29:39:373226,-4,-16,-36,-12,-2,10,22,-9
17:29:39:381412,-4,-16,-36,-12,-2,10,22,-9
17:29:39:382221,-25,1,2,-22,-15,-5,-5,-75
17:29:39:395721,4,0,-15,8,4,-6,-4,-3
17:29:39:404002,4,0,-15,8,4,-6,-4,-3
17:29:39:404730,4,-31,2,13,9,4,-2,10
17:29:39:410749,10,38,6,-7,-12,-6,-14,25
17:29:39:418243,10,38,6,-7,-12,-6,-14,25
17:29:39:433969,1,9,-1,-17,-3,2,-10,-13
17:29:39:434675,6,16,-7,1,-2,-4,-2,24
17:29:39:441514,6,16,-7,1,-2,-4,-2,24
17:29:39:442206,-1,17,-28,-6,3,-3,-2,-39
17:29:39:455875,-13,-23,-30,-1,9,14,8,20
17:29:39:472340,-13,-23,-30,-1,9,14,8,20
17:29:39:472920,6,16,2,-10,-15,-6,-5,25
17:29:39:473676,-34,-11,37,16,4,-9,-28,-19
17:29:39:478303,-34,-11,37,16,4,-9,-28,-19
17:29:39:485747,13,-19,-21,-1,-13,-11,-18,-2
17:29:39:493342,-19,-8,50,-9,1,0,1,-63
17:29:39:500737,-19,-8,50,-9,1,0,1,-63
17:29:39:508343,13,-8,-57,-1,7,1,-10,-40
17:29:39:515726,29,61,-32,-4,0,7,7,8
17:29:39:524039,29,61,-32,-4,0,7,7,8
17:29:39:524686,5,22,-27,-11,-6,-7,-20,-40
17:29:39:539082,7,21,-16,-8,-12,-17,-7,20
17:29:39:539763,7,21,-16,-8,-12,-17,-7,20
17:29:39:545749,13,10,3,22,5,5,27,30
17:29:39:553265,-23,-16,-31,-27,-12,3,7,3
17:29:39:560750,-23,-16,-31,-27,-12,3,7,3
17:29:39:568156,-12,-24,-6,13,-4,-11,3,-15
17:29:39:584538,-9,-44,-57,-19,17,-3,10,9
17:29:39:585401,-9,-44,-57,-19,17,-3,10,9
17:29:39:586138,-33,11,31,-20,5,16,20,9
17:29:39:598938,6,-18,38,11,1,-1,2,-4
17:29:39:599715,6,-18,38,11,1,-1,2,-4
17:29:39:605906,-32,-23,36,11,4,-8,-16,17
17:29:39:613235,12,10,11,-10,-4,1,-3,-46
17:29:39:637087,12,10,11,-10,-4,1,-3,-46
17:29:39:637957,-6,-24,19,0,5,9,13,-42
17:29:39:638715,11,-6,33,6,0,-5,-8,1
17:29:39:651449,11,-6,33,6,0,-5,-8,1
17:29:39:652170,2,-15,-36,-26,-15,-14,-22,-7
17:29:39:659028,4,14,13,11,-1,-1,-15,1
17:29:39:659720,4,14,13,11,-1,-1,-15,1
17:29:39:665698,20,38,57,-1,5,6,4,27
17:29:39:673417,-9,-34,-19,-3,1,-3,-9,-52
17:29:39:680804,-9,-34,-19,-3,1,-3,-9,-52
17:29:39:688439,15,23,7,-17,-10,-13,-7,-17
17:29:39:695704,26,10,-14,19,18,8,4,26
17:29:39:711417,26,10,-14,19,18,8,4,26
17:29:39:712221,-7,1,6,7,-6,-7,5,9
17:29:39:718907,-4,14,-7,1,-10,-14,2,-12
17:29:39:719708,-4,14,-7,1,-10,-14,2,-12
17:29:39:725802,-8,3,-12,8,0,3,15,23
17:29:39:733174,-2,48,17,8,5,9,10,11
17:29:39:740936,-2,48,17,8,5,9,10,11
17:29:39:765284,3,10,30,5,0,2,-10,12
17:29:39:766014,13,46,22,-5,-6,-2,8,-5
17:29:39:766918,13,46,22,-5,-6,-2,8,-5
17:29:39:767599,-10,15,27,3,-3,-5,-22,10
17:29:39:778632,-17,-27,13,13,3,4,16,4
17:29:39:786418,-17,-27,13,13,3,4,16,4
17:29:39:787198,1,10,-30,8,7,-1,-18,-10
17:29:39:793295,-5,-38,-3,-22,-13,0,8,-20
17:29:39:800742,-5,-38,-3,-22,-13,0,8,-20
17:29:39:808289,7,12,40,14,14,12,12,-2
17:29:39:815685,21,-17,14,2,-1,-3,-8,-8
17:29:39:824072,21,-17,14,2,-1,-3,-8,-8
17:29:39:824764,16,-49,-91,-19,3,-4,-4,-5
17:29:39:847078,37,53,-2,-3,-2,6,-16,-20
17:29:39:847898,37,53,-2,-3,-2,6,-16,-20
17:29:39:848576,-18,-22,-39,-15,-16,-10,1,2
17:29:39:853214,-15,9,54,19,14,-7,-21,-49
17:29:39:860748,-15,9,54,19,14,-7,-21,-49
17:29:39:868198,0,9,47,9,0,10,29,21
17:29:39:875792,-11,-16,54,21,6,3,22,0
17:29:39:883923,-11,-16,54,21,6,3,22,0
17:29:39:884698,1,2,4,-5,-1,0,4,-1
17:29:39:898931,-7,-37,-19,-10,-3,-4,-4,32
17:29:39:899700,-7,-37,-19,-10,-3,-4,-4,32
17:29:39:905871,4,-9,11,15,1,7,5,9
17:29:39:913179,-13,-37,-38,-7,7,17,53,10
17:29:39:920799,-13,-37,-38,-7,7,17,53,10
17:29:39:928196,-18,5,18,5,-8,-7,5,30
17:29:39:935682,-17,31,-53,-4,-17,-8,-14,28
17:29:39:944028,-17,31,-53,-4,-17,-8,-14,28
17:29:39:944719,-4,9,-47,-15,16,5,5,-18
17:29:39:959492,-28,-45,6,-22,-5,-4,-3,16
17:29:39:960204,-28,-45,6,-22,-5,-4,-3,16
17:29:39:965696,-2,-6,22,-11,-15,-4,-3,-20
17:29:39:973297,9,10,-58,7,-8,-9,-22,10
17:29:39:989065,9,10,-58,7,-8,-9,-22,10
17:29:39:989693,5,-2,-36,-6,11,3,-17,4
17:29:39:995694,7,-25,-18,3,-9,-10,-18,28
17:29:40:3956,7,-25,-18,3,-9,-10,-18,28
17:29:40:4728,2,-6,0,-10,-14,-7,-3,8
17:29:40:18998,-10,-13,-11,-7,-1,-5,0,25
17:29:40:19725,-10,-13,-11,-7,-1,-5,0,25
17:29:40:25777,2,-4,13,12,2,2,13,-26
17:29:40:33169,3,-12,60,7,11,9,17,-17
17:29:40:40860,3,-12,60,7,11,9,17,-17
17:29:40:56412,3,-10,13,27,12,4,13,-6
17:29:40:57124,5,1,-1,4,-6,-4,-11,-11
17:29:40:63934,5,1,-1,4,-6,-4,-11,-11
17:29:40:64687,6,2,-35,8,15,2,-16,-88
17:29:40:78937,12,32,26,11,6,5,12,-8
17:29:40:79695,12,32,26,11,6,5,12,-8
17:29:40:85689,-7,-8,27,-11,-8,-5,-1,5
17:29:40:101399,21,13,-2,-13,-7,-4,-4,-3
17:29:40:102211,21,13,-2,-13,-7,-4,-4,-3
17:29:40:108360,8,5,26,15,1,-1,-9,-3
17:29:40:115718,-10,12,-10,-2,4,1,-29,-14
17:29:40:124049,-10,12,-10,-2,4,1,-29,-14
17:29:40:124702,32,63,30,14,12,4,7,38
17:29:40:139087,-10,-26,-26,-7,0,-6,-33,-27
17:29:40:139776,-10,-26,-26,-7,0,-6,-33,-27
17:29:40:145731,-59,4,16,-21,-17,-5,-22,8
17:29:40:161407,-3,12,-6,7,2,4,6,-33
17:29:40:162187,-3,12,-6,7,2,4,6,-33
17:29:40:168243,13,22,-17,-4,-1,-2,1,-12
17:29:40:175828,-27,-5,7,-14,-11,-8,-1,14
17:29:40:183904,-27,-5,7,-14,-11,-8,-1,14
17:29:40:184671,2,-14,-20,-32,-17,-14,-27,-27
17:29:40:198924,17,9,24,-7,2,4,20,9
17:29:40:199694,17,9,24,-7,2,4,20,9
17:29:40:205941,-7,-19,54,-4,-2,2,14,73
17:29:40:213227,-2,2,13,-4,-9,-5,-4,11
17:29:40:220767,-2,2,13,-4,-9,-5,-4,11
17:29:40:228193,-1,-7,6,-6,-8,-5,3,24
17:29:40:235660,-6,-1,11,-1,0,0,-1,-22
17:29:40:244055,-6,-1,11,-1,0,0,-1,-22
17:29:40:244703,-13,-3,-3,45,22,13,7,-8
17:29:40:259049,-5,-30,0,10,0,-4,6,-6
17:29:40:259699,-5,-30,0,10,0,-4,6,-6
17:29:40:265652,5,0,-50,-7,-3,4,15,15
17:29:40:273290,7,-13,4,4,6,1,17,45
17:29:40:280778,7,-13,4,4,6,1,17,45
17:29:40:288410,-6,-9,35,-17,-12,-7,-4,-5
17:29:40:295683,17,-7,-57,-18,-9,-3,4,48
17:29:40:304015,17,-7,-57,-18,-9,-3,4,48
17:29:40:304774,-1,-15,-41,2,5,-3,-7,-39
17:29:40:318964,-8,-48,-11,-7,5,-6,-16,-18
17:29:40:319690,-8,-48,-11,-7,5,-6,-16,-18
17:29:40:325803,-9,-24,-20,-8,-1,-2,-13,-20
17:29:40:341511,0,34,13,17,3,2,2,-17
17:29:40:342231,0,34,13,17,3,2,2,-17
17:29:40:348165,16,-13,-37,-10,-7,-2,19,2
17:29:40:355908,1,41,-19,-14,-14,-6,-16,-7
17:29:40:363936,1,41,-19,-14,-14,-6,-16,-7
17:29:40:364734,13,14,-23,-24,-10,-1,-5,33
17:29:40:378967,3,-26,5,18,6,7,-1,-33
17:29:40:379697,3,-26,5,18,6,7,-1,-33
17:29:40:385657,-4,-10,-27,-6,-8,-7,-18,-29
17:29:40:393295,20,23,-15,-6,-3,-4,-11,-12
17:29:40:400765,20,23,-15,-6,-3,-4,-11,-12
17:29:40:408298,27,3,49,7,-5,4,4,-6
17:29:40:415679,-13,-11,21,12,-4,-6,-17,-4
17:29:40:424099,-13,-11,21,12,-4,-6,-17,-4
17:29:40:424728,-7,6,-16,9,1,-1,-3,4
17:29:40:439069,13,11,-29,13,-4,3,32,51
17:29:40:439743,13,11,-29,13,-4,3,32,51
17:29:40:445698,-18,-49,-58,2,8,6,-4,5
17:29:40:461389,5,14,34,-6,-8,-2,-6,-32
17:29:40:462206,5,14,34,-6,-8,-2,-6,-32
17:29:40:468153,0,2,16,-2,-3,-2,6,16
17:29:40:475757,-46,-17,-18,1,-4,-9,-13,-18
17:29:40:483242,-46,-17,-18,1,-4,-9,-13,-18
17:29:40:490877,-19,16,85,29,13,3,9,-29
17:29:40:498925,-8,20,26,-14,-3,-4,-3,8
17:29:40:499711,-8,20,26,-14,-3,-4,-3,8
17:29:40:505939,-3,-41,-33,-16,-9,-2,-5,-51
17:29:40:521640,-25,-11,-44,28,19,5,1,-70
17:29:40:522236,-25,-11,-44,28,19,5,1,-70
17:29:40:528214,-26,30,12,5,-3,0,4,2
17:29:40:535712,0,18,-2,-29,-6,0,-5,2
17:29:40:543465,0,18,-2,-29,-6,0,-5,2
17:29:40:550716,22,34,-12,-6,-4,-1,13,46
17:29:40:559033,14,-37,31,10,17,10,18,28
17:29:40:559744,14,-37,31,10,17,10,18,28
17:29:40:565710,21,63,-23,-18,1,-2,-11,-15
17:29:40:581415,33,-26,-62,-41,-12,-3,1,57
17:29:40:582243,33,-26,-62,-41,-12,-3,1,57
17:29:40:588443,-13,-15,36,-37,-19,-4,5,-5
17:29:40:595708,-34,31,20,12,2,2,2,-1
17:29:40:603239,-34,31,20,12,2,2,2,-1
17:29:40:610775,14,47,29,-4,-12,-6,-4,-46
17:29:40:618955,-17,10,51,-5,4,3,-1,8
17:29:40:619688,-17,10,51,-5,4,3,-1,8
17:29:40:625822,25,8,-38,-13,-2,4,8,75
17:29:40:641539,14,-13,28,-4,-7,-9,-24,-18
17:29:40:642258,14,-13,28,-4,-7,-9,-24,-18
17:29:40:648265,5,-23,-71,-2,4,-2,-11,48
17:29:40:655933,-4,6,-4,13,13,8,-3,-10
17:29:40:663235,-4,6,-4,13,13,8,-3,-10
17:29:40:670705,-6,-49,-23,13,-2,-11,-13,-2
17:29:40:678966,-20,-13,31,12,-5,-1,4,-39
17:29:40:679738,-20,-13,31,12,-5,-1,4,-39
17:29:40:685665,-24,-11,34,24,18,13,17,-2
17:29:40:701445,-10,-6,-41,-23,-10,-13,-36,-21
17:29:40:702178,-10,-6,-41,-23,-10,-13,-36,-21
17:29:40:708306,-5,-18,2,-10,-8,-4,7,-25
17:29:40:715688,-32,-24,-34,-8,-7,-10,-8,54
17:29:40:723352,-32,-24,-34,-8,-7,-10,-8,54
17:29:40:730688,-21,-28,-18,-14,-4,-8,-19,8
17:29:40:739062,13,-11,-52,25,15,2,18,63
17:29:40:739732,13,-11,-52,25,15,2,18,63
17:29:40:745705,11,24,1,6,9,11,-10,-25
17:29:40:761407,25,-12,68,-5,1,7,10,-8
17:29:40:762244,25,-12,68,-5,1,7,10,-8
17:29:40:768159,10,0,0,6,-5,-6,-2,-17
17:29:40:775796,20,32,34,15,-2,-3,9,80
17:29:40:783250,20,32,34,15,-2,-3,9,80
17:29:40:790875,-4,7,-26,-28,-13,-2,-22,-34
17:29:40:798936,-40,54,27,-10,-16,-1,9,-35
17:29:40:799723,-40,54,27,-10,-16,-1,9,-35
17:29:40:805836,-33,-8,0,2,3,-1,1,-71
17:29:40:821640,24,27,-42,-6,-5,-2,2,-37
17:29:40:822254,24,27,-42,-6,-5,-2,2,-37
17:29:40:828221,24,39,33,13,17,4,23,-1
17:29:40:835719,11,8,-46,-35,-24,-7,5,-17
17:29:40:843379,11,8,-46,-35,-24,-7,5,-17
17:29:40:850717,-14,-8,-12,-3,-7,-8,-7,41
17:29:40:858984,-14,-9,9,11,3,3,8,26
17:29:40:859710,-14,-9,9,11,3,3,8,26
17:29:40:865720,16,21,-5,19,0,-1,10,24
17:29:40:881363,49,-1,22,5,-3,-3,5,-1
17:29:40:882167,49,-1,22,5,-3,-3,5,-1
17:29:40:888421,1,-51,-8,-4,-3,-7,-9,-9
17:29:40:895714,-1,-50,-32,-15,5,5,-9,7
17:29:40:903259,-1,-50,-32,-15,5,5,-9,7
17:29:40:910814,-6,27,-6,-4,-11,-13,-26,-5
17:29:40:919018,-21,-36,-27,-1,5,-4,-25,-44
17:29:40:919678,-21,-36,-27,-1,5,-4,-25,-44
17:29:40:925848,-15,-32,58,-14,-2,-1,18,31
17:29:40:941560,-14,-34,-17,6,-2,0,-2,-4
17:29:40:942217,-14,-34,-17,6,-2,0,-2,-4
17:29:40:948163,8,-44,12,15,9,-5,-21,9
17:29:40:955926,14,49,59,-22,-5,4,23,13
17:29:40:971616,14,49,59,-22,-5,4,23,13
17:29:40:972187,-36,-32,38,0,-2,5,14,17
17:29:40:978941,0,36,54,46,6,2,1,-17
17:29:40:979688,0,36,54,46,6,2,1,-17
17:29:40:985738,15,-6,-4,5,-5,4,11,23
17:29:41:1377,18,-24,-37,-10,1,1,0,-29
17:29:41:2242,18,-24,-37,-10,1,1,0,-29
17:29:41:8336,-1,8,4,10,2,-1,-8,14
17:29:41:15719,21,5,-11,4,7,-8,-17,-40
17:29:41:23353,21,5,-11,4,7,-8,-17,-40
17:29:41:30757,-26,-10,-28,-22,-18,-8,-25,-46
17:29:41:39111,-2,25,-5,-15,-1,3,9,21
17:29:41:39720,-2,25,-5,-15,-1,3,9,21
17:29:41:45690,-21,-20,10,50,33,1,3,-26
17:29:41:61405,-15,21,19,7,3,2,3,19
17:29:41:62225,-15,21,19,7,3,2,3,19
17:29:41:68200,16,88,-42,-16,-10,2,16,-2
17:29:41:84358,16,88,-42,-16,-10,2,16,-2
17:29:41:91530,-22,-42,18,-15,-15,-2,4,4
17:29:41:92217,47,42,-26,-20,-9,-1,1,48
17:29:41:98967,47,42,-26,-20,-9,-1,1,48
17:29:41:99751,-12,-15,13,-17,-12,-10,-10,-10
17:29:41:105858,0,11,-61,-14,5,11,4,-24
17:29:41:121648,0,11,-61,-14,5,11,4,-24
17:29:41:122167,-14,-27,17,28,19,11,7,-89
17:29:41:128232,0,-53,15,-30,-16,-12,-9,-1
17:29:41:144087,0,-53,15,-30,-16,-12,-9,-1
17:29:41:144673,15,-2,-47,-22,-19,-8,-9,-2
17:29:41:150689,-9,-8,63,7,-2,1,2,-29
17:29:41:159077,-9,-8,63,7,-2,1,2,-29
17:29:41:159686,12,13,-27,0,6,2,-6,35
17:29:41:173350,-14,-2,9,-7,-10,-15,-27,-9
17:29:41:181394,-14,-2,9,-7,-10,-15,-27,-9
17:29:41:182167,7,28,52,26,12,5,22,26
17:29:41:188424,-13,8,16,32,21,7,8,42
17:29:41:203978,-13,8,16,32,21,7,8,42
17:29:41:204840,-26,-56,-99,-24,-29,-11,-16,-11
17:29:41:210723,33,6,4,3,-3,1,13,21
17:29:41:218952,33,6,4,3,-3,1,13,21
17:29:41:219675,15,3,89,-5,-1,6,12,65
17:29:41:225939,-12,-2,-81,13,31,5,-5,-23
17:29:41:241536,-12,-2,-81,13,31,5,-5,-23
17:29:41:242498,-30,2,-59,4,3,4,8,28
17:29:41:248194,24,4,55,0,1,7,8,18
17:29:41:263949,24,4,55,0,1,7,8,18
17:29:41:264727,-7,7,31,5,0,-11,-38,-58
17:29:41:270719,5,-11,-7,-18,-11,-2,-2,-1
17:29:41:278965,5,-11,-7,-18,-11,-2,-2,-1
17:29:41:279744,10,45,53,6,-3,0,12,30
17:29:41:285758,-18,-47,-1,11,-5,-10,-7,-16
17:29:41:301453,-18,-47,-1,11,-5,-10,-7,-16
17:29:41:302289,-12,-4,-11,0,15,2,-1,27
17:29:41:308296,-7,1,-25,-12,-6,-2,8,16
17:29:41:324085,-7,1,-25,-12,-6,-2,8,16
17:29:41:324716,30,-4,-61,26,14,6,4,-19
17:29:41:330714,6,-42,-1,12,1,5,8,-4
17:29:41:339093,6,-42,-1,12,1,5,8,-4
17:29:41:339743,7,27,74,-1,1,6,8,-5
17:29:41:345759,15,29,15,2,-1,-2,-10,-18
17:29:41:361398,15,29,15,2,-1,-2,-10,-18
17:29:41:362252,-2,12,59,18,13,5,3,-6
17:29:41:368219,16,54,12,-2,-3,-1,3,-7
17:29:41:383992,16,54,12,-2,-3,-1,3,-7
17:29:41:384693,-23,-10,6,-24,-22,-7,-17,-16
17:29:41:390820,14,-15,-31,-6,2,-3,-13,-18
17:29:41:398988,14,-15,-31,-6,2,-3,-13,-18
17:29:41:399773,-16,0,-52,27,13,-2,-6,-19
17:29:41:413173,25,44,9,-9,-7,-1,5,-16
17:29:41:421684,25,44,9,-9,-7,-1,5,-16
17:29:41:422209,7,-36,-39,-16,-3,-6,-9,9
17:29:41:428196,-10,-34,-4,23,8,5,-3,-10
17:29:41:452068,-10,-34,-4,23,8,5,-3,-10
17:29:41:452828,-1,-19,-16,-12,3,0,-4,-52
17:29:41:453692,-37,-30,14,-43,-35,-10,-2,23
17:29:41:459108,-37,-30,14,-43,-35,-10,-2,23
17:29:41:459690,19,38,42,9,-1,-4,-6,39
17:29:41:473308,-13,23,21,0,-6,-1,11,34
17:29:41:481414,-13,23,21,0,-6,-1,11,34
17:29:41:482193,0,-7,-25,-11,-14,-3,3,9
17:29:41:488404,-7,-17,2,-36,18,7,-4,-17
17:29:41:503738,-7,-17,2,-36,18,7,-4,-17
17:29:41:511383,1,7,-55,-20,-8,-2,2,15
17:29:41:512180,-1,-29,-48,-9,-4,-8,-13,-16
17:29:41:518973,-1,-29,-48,-9,-4,-8,-13,-16
17:29:41:519673,-48,-5,48,-3,-2,0,-3,-36
17:29:41:533207,6,23,18,27,10,2,-1,26
17:29:41:541555,6,23,18,27,10,2,-1,26
17:29:41:542250,-6,-31,-22,-6,-15,-9,1,62
17:29:41:548275,-30,14,22,23,2,-3,-1,-20
17:29:41:563969,-30,14,22,23,2,-3,-1,-20
17:29:41:564726,2,-30,-59,-18,-7,-6,8,-17
17:29:41:570776,-18,-82,-45,-8,-5,-7,-19,-14
17:29:41:578984,-18,-82,-45,-8,-5,-7,-19,-14
17:29:41:579723,7,62,-16,31,-2,-2,3,1
17:29:41:593315,23,21,-26,1,1,0,5,24
17:29:41:601412,23,21,-26,1,1,0,5,24
17:29:41:602238,27,-7,-40,-32,1,5,-2,35
17:29:41:608318,-28,-40,-14,19,-2,3,10,46
17:29:41:624080,-28,-40,-14,19,-2,3,10,46
17:29:41:624711,-13,3,12,-6,12,-5,6,9
17:29:41:630697,19,26,-34,-20,-3,5,-1,-42
17:29:41:639063,19,26,-34,-20,-3,5,-1,-42
17:29:41:639730,32,15,19,14,4,8,4,-39
17:29:41:653234,-32,13,60,20,-7,-4,-4,1
17:29:41:661435,-32,13,60,20,-7,-4,-4,1
17:29:41:662224,-14,-29,8,2,2,-2,-1,-52
17:29:41:668170,10,42,22,3,-10,-6,-7,9
17:29:41:683936,10,42,22,3,-10,-6,-7,9
17:29:41:684725,-29,-24,-13,-10,-10,-7,-17,1
17:29:41:690838,-9,34,-9,-19,7,-4,10,-21
17:29:41:698948,-9,34,-9,-19,7,-4,10,-21
17:29:41:699705,-15,-61,82,10,36,14,4,-4
17:29:41:713176,17,-15,-33,7,11,8,12,-36
17:29:41:721615,17,-15,-33,7,11,8,12,-36
17:29:41:722200,32,48,-53,-16,-4,2,8,2
17:29:41:728199,25,-55,0,-56,-3,5,5,63
17:29:41:744027,25,-55,0,-56,-3,5,5,63
17:29:41:744709,-49,-32,-1,8,-3,-3,-6,14
17:29:41:750683,14,-8,-100,-15,22,14,14,37
17:29:41:759054,14,-8,-100,-15,22,14,14,37
17:29:41:759726,13,-12,27,7,-2,-4,3,62
17:29:41:773193,19,70,55,-14,-7,5,2,7
17:29:41:781423,19,70,55,-14,-7,5,2,7
17:29:41:782196,3,-33,-87,5,-1,-5,-7,-47
17:29:41:788266,19,51,7,27,-13,-2,-5,-10
17:29:41:795785,19,51,7,27,-13,-2,-5,-10
17:29:41:803254,5,-3,29,-10,-20,-5,-17,-82
17:29:41:810713,5,-75,12,38,-2,-6,-4,-35
17:29:41:818965,5,-75,12,38,-2,-6,-4,-35
17:29:41:819705,27,44,-10,11,-9,4,20,52
17:29:41:833216,-21,14,2,-20,-31,-16,-11,8
17:29:41:841592,-21,14,2,-20,-31,-16,-11,8
17:29:41:842219,13,32,39,20,20,5,8,-5
17:29:41:848187,-5,3,-45,-4,-8,-6,-4,18
17:29:41:855975,-5,3,-45,-4,-8,-6,-4,18
17:29:41:863224,11,60,48,20,11,2,-10,16
17:29:41:870728,-81,-91,-59,17,5,-18,-25,-38
17:29:41:878895,-81,-91,-59,17,5,-18,-25,-38
17:29:41:879682,8,5,-1,-26,-12,2,1,-9
17:29:41:893304,-10,14,16,29,-9,-11,-17,13
17:29:41:901402,-10,14,16,29,-9,-11,-17,13
17:29:41:902251,-35,-28,-70,-3,13,6,-2,-18
17:29:41:908342,-1,-6,31,-22,5,8,9,-24
17:29:41:915716,-1,-6,31,-22,5,8,9,-24
17:29:41:923356,-20,-53,-45,-84,-50,-9,15,9
17:29:41:930720,16,29,68,13,16,2,-13,-5
17:29:41:939125,16,29,68,13,16,2,-13,-5
17:29:41:939672,15,-8,-19,-15,-18,-8,1,65
17:29:41:953261,21,9,65,8,10,12,16,-11
17:29:41:961405,21,9,65,8,10,12,16,-11
17:29:41:962180,-9,-33,-20,11,-5,-5,-8,36
17:29:41:968249,-29,-55,-13,-30,-12,2,6,0
17:29:41:975859,-29,-55,-13,-30,-12,2,6,0
17:29:41:983165,15,34,24,8,22,1,-7,-37
17:29:41:990805,-13,32,48,-10,-1,5,-1,2
17:29:42:6511,-13,32,48,-10,-1,5,-1,2
17:29:42:7177,20,55,-24,6,-7,-8,-19,-63
17:29:42:13222,-50,-32,-15,-53,-9,-11,3,11
17:29:42:21549,-50,-32,-15,-53,-9,-11,3,11
17:29:42:22198,3,29,58,28,4,2,-8,37
17:29:42:28189,-8,18,-3,11,-4,-2,-13,-3
17:29:42:35762,-8,18,-3,11,-4,-2,-13,-3
17:29:42:43332,2,1,-35,-4,5,8,0,-37
17:29:42:50664,21,11,8,18,15,1,3,-5
17:29:42:59101,21,11,8,18,15,1,3,-5
17:29:42:59747,2,21,22,11,5,-4,-1,-2
17:29:42:73309,9,-9,-10,15,-6,-3,10,-26
17:29:42:81426,9,-9,-10,15,-6,-3,10,-26
17:29:42:82200,5,-9,0,-16,5,-2,2,-17
17:29:42:88391,15,37,29,15,9,4,-2,-2
17:29:42:95763,15,37,29,15,9,4,-2,-2
17:29:42:103234,-5,5,12,-8,-14,1,16,16
17:29:42:110754,-19,28,-54,3,-7,-5,-2,-71
17:29:42:118999,-19,28,-54,3,-7,-5,-2,-71
17:29:42:119751,-26,-9,32,-59,-27,-10,-2,36
17:29:42:133212,22,39,57,40,20,4,-5,6
17:29:42:141516,22,39,57,40,20,4,-5,6
17:29:42:142241,-7,-30,2,40,38,11,-2,-77
17:29:42:148179,-16,-14,-77,-17,-15,-3,-3,70
17:29:42:155949,-16,-14,-77,-17,-15,-3,-3,70
17:29:42:163224,-15,5,25,17,5,-4,-13,-72
17:29:42:170736,-6,-5,-8,-3,1,-3,0,-5
17:29:42:178987,-6,-5,-8,-3,1,-3,0,-5
17:29:42:179631,12,-19,-26,2,-2,6,-4,9
17:29:42:193298,-5,15,42,10,-11,-10,-5,12
17:29:42:201495,-5,15,42,10,-11,-10,-5,12
17:29:42:202244,-1,7,-5,9,8,1,0,-28
17:29:42:208343,83,26,25,-3,4,9,0,11
17:29:42:215719,83,26,25,-3,4,9,0,11
17:29:42:223288,7,29,-33,29,22,4,10,44
17:29:42:230740,16,12,-26,-9,-7,-7,14,5
17:29:42:239150,16,12,-26,-9,-7,-7,14,5
17:29:42:239734,-2,-43,-32,-48,-16,-8,-5,17
17:29:42:253238,3,25,52,-2,4,6,18,71
17:29:42:261409,3,25,52,-2,4,6,18,71
17:29:42:262219,23,44,7,6,-7,-11,-9,-31
17:29:42:268192,-3,-21,-22,7,5,3,-14,-74
17:29:42:275842,-3,-21,-22,7,5,3,-14,-74
17:29:42:283141,15,2,13,36,-9,-6,15,34
17:29:42:290766,0,-7,-29,-6,1,-4,4,-43
17:29:42:298939,0,-7,-29,-6,1,-4,4,-43
17:29:42:299694,-20,-3,6,13,3,-5,-9,23
17:29:42:313218,-31,-65,-12,-16,-15,-3,-13,-4
17:29:42:321582,-31,-65,-12,-16,-15,-3,-13,-4
17:29:42:322199,12,15,52,23,28,15,-3,0
17:29:42:336382,2,13,6,44,32,3,-18,18
17:29:42:337185,2,13,6,44,32,3,-18,18
17:29:42:343327,-41,-3,-38,-35,-18,-22,-50,-32
17:29:42:350666,-1,21,30,14,23,17,7,-40
17:29:42:358358,-1,21,30,14,23,17,7,-40
17:29:42:365679,2,2,-11,2,-12,2,17,2
17:29:42:373299,-10,-38,-2,-24,-9,-17,-11,23
17:29:42:389101,-10,-38,-2,-24,-9,-17,-11,23
17:29:42:389690,5,-25,34,-12,-15,-2,10,24
17:29:42:404521,-5,-46,-43,-25,-20,-3,-5,-20
17:29:42:405363,-5,-46,-43,-25,-20,-3,-5,-20
17:29:42:406192,-30,2,26,-17,-20,-1,10,21
17:29:42:410853,2,38,9,7,-28,-17,-25,9
17:29:42:418206,2,38,9,7,-28,-17,-25,9
17:29:42:425764,-21,-32,21,15,15,13,12,-8
17:29:42:433210,20,11,-40,-9,-8,-4,-1,2
17:29:42:441534,20,11,-40,-9,-8,-4,-1,2
17:29:42:442218,5,-48,11,-27,-18,-15,1,36
17:29:42:456477,8,9,-25,-18,-8,0,11,3
17:29:42:457183,8,9,-25,-18,-8,0,11,3
17:29:42:463143,30,-13,-21,62,35,1,-2,46
17:29:42:470709,-43,12,33,-34,-19,-13,-4,-22
17:29:42:478269,-43,12,33,-34,-19,-13,-4,-22
17:29:42:485686,21,3,-11,7,2,-1,-1,-100
17:29:42:493287,18,-16,82,18,1,1,2,12
17:29:42:501413,18,-16,82,18,1,1,2,12
17:29:42:502234,12,21,9,54,56,43,9,17
17:29:42:516424,-6,-11,-94,8,10,-1,-4,-21
17:29:42:517238,-6,-11,-94,8,10,-1,-4,-21
17:29:42:523278,-2,19,18,-3,-21,-11,-14,3
17:29:42:530723,1,-48,-50,19,15,23,21,35
17:29:42:538523,1,-48,-50,19,15,23,21,35
17:29:42:545723,-30,17,-11,0,-7,-9,5,4
17:29:42:553237,14,36,15,-10,-19,-25,6,11
17:29:42:561433,14,36,15,-10,-19,-25,6,11
17:29:42:562263,6,74,64,-18,11,15,8,-7
17:29:42:576487,-18,12,79,-1,-15,-15,-11,10
17:29:42:577260,-18,12,79,-1,-15,-15,-11,10
17:29:42:583158,-22,-33,9,-31,-1,12,-4,-18
17:29:42:590846,2,-6,17,12,5,9,21,65
17:29:42:606580,2,-6,17,12,5,9,21,65
17:29:42:607229,-4,-25,50,5,-1,-14,-21,17
17:29:42:613231,-1,1,-48,-34,-16,0,-6,5
17:29:42:621680,-1,1,-48,-34,-16,0,-6,5
17:29:42:622209,2,-17,-50,-3,-18,-9,-15,-4
17:29:42:636424,21,3,-60,13,5,5,6,-24
17:29:42:637233,21,3,-60,13,5,5,6,-24
17:29:42:643371,-39,-92,-55,21,4,-11,7,-87
17:29:42:650665,-10,-2,16,-3,5,22,-2,-46
17:29:42:658425,-10,-2,16,-3,5,22,-2,-46
17:29:42:665691,27,24,-50,-13,7,14,16,26
17:29:42:673263,-28,-42,-1,1,2,-1,-15,-57
17:29:42:681441,-28,-42,-1,1,2,-1,-15,-57
17:29:42:682270,49,76,72,-36,-31,-15,8,35
17:29:42:696418,-9,-24,8,-26,0,-26,-19,-26
17:29:42:697231,-9,-24,8,-26,0,-26,-19,-26
17:29:42:703218,-9,-24,-13,-32,3,7,10,39
17:29:42:710730,-37,5,17,-24,-2,-13,-12,-23
17:29:42:718349,-37,5,17,-24,-2,-13,-12,-23
17:29:42:725789,-2,12,-20,7,27,8,2,6
17:29:42:733247,10,1,10,28,4,1,16,16
17:29:42:741509,10,1,10,28,4,1,16,16
17:29:42:742232,-46,2,17,-45,-24,-12,-31,21
17:29:42:756428,10,27,12,28,3,1,10,44
17:29:42:757197,10,27,12,28,3,1,10,44
17:29:42:771540,10,-23,-18,-6,-19,-17,4,9
17:29:42:772163,-7,-4,-52,-22,10,23,14,-25
17:29:42:778275,-7,-4,-52,-22,10,23,14,-25
17:29:42:785717,36,-33,-12,49,2,-10,-15,2
17:29:42:793354,8,43,68,-40,-8,0,5,29
17:29:42:801401,8,43,68,-40,-8,0,5,29
17:29:42:802252,-64,21,-33,-11,0,3,-11,-64
17:29:42:816415,6,4,-71,-40,-6,-6,2,0
17:29:42:817217,6,4,-71,-40,-6,-6,2,0
17:29:42:823315,-1,-46,-83,-25,-26,-33,-5,-13
17:29:42:830712,-7,34,68,7,20,28,17,15
17:29:42:838558,-7,34,68,7,20,28,17,15
17:29:42:845713,9,-8,16,-7,-58,-23,-5,14
17:29:42:853213,-20,-96,-37,-13,-16,-19,-10,-5
17:29:42:869041,-20,-96,-37,-13,-16,-19,-10,-5
17:29:42:869742,0,18,17,-4,0,6,-5,48
17:29:42:876488,10,-63,4,-25,-22,-16,-30,-10
17:29:42:877215,10,-63,4,-25,-22,-16,-30,-10
17:29:42:883204,-6,5,-58,-15,2,16,8,5
17:29:42:890874,-35,11,10,10,3,8,-7,-11
17:29:42:898231,-35,11,10,10,3,8,-7,-11
17:29:42:905874,-5,-31,24,13,28,14,-5,-3
17:29:42:913274,17,39,-21,42,-27,-25,-19,-70
17:29:42:921671,17,39,-21,42,-27,-25,-19,-70
17:29:42:922245,-23,23,19,8,-32,7,14,13
17:29:42:936409,20,26,47,38,16,22,8,16
17:29:42:937200,20,26,47,38,16,22,8,16
17:29:42:943333,11,1,-6,47,10,14,-1,-11
17:29:42:950747,-11,-2,-54,43,36,6,13,55
17:29:42:958401,-11,-2,-54,43,36,6,13,55
17:29:42:965700,-38,-37,5,-22,13,-5,1,12
17:29:42:982092,17,17,5,-24,22,1,8,46
17:29:42:982842,17,17,5,-24,22,1,8,46
17:29:42:983645,20,13,32,-2,34,-4,-2,14
17:29:42:996351,-27,-2,-60,-39,-18,14,10,4
17:29:42:997182,-27,-2,-60,-39,-18,14,10,4
17:29:43:3235,10,31,49,-9,-33,-31,-23,-52
17:29:43:10829,21,0,37,26,-2,2,11,-48
17:29:43:18194,21,0,37,26,-2,2,11,-48
17:29:43:25856,-5,23,4,40,37,12,18,9
17:29:43:42219,13,8,32,12,-36,-29,-24,-1
17:29:43:42831,13,8,32,12,-36,-29,-24,-1
17:29:43:43651,7,31,-28,-44,-27,-3,5,27
17:29:43:56496,-9,3,7,9,3,-1,-1,1
17:29:43:57264,-9,3,7,9,3,-1,-1,1
17:29:43:63211,6,-32,-21,37,76,32,-7,-63
17:29:43:70708,-6,-10,-30,-18,3,-9,3,12
17:29:43:78242,-6,-10,-30,-18,3,-9,3,12
17:29:43:85744,-10,2,25,-41,-50,-10,-3,0
17:29:43:93337,29,26,70,1,27,17,8,2
17:29:43:101380,29,26,70,1,27,17,8,2
17:29:43:102232,3,-41,7,-24,-21,-4,-8,-56
17:29:43:116353,10,3,-12,-11,3,-17,-9,15
17:29:43:117186,10,3,-12,-11,3,-17,-9,15
17:29:43:123312,19,48,14,13,-10,-6,-17,-8
17:29:43:130704,12,41,21,31,13,7,9,-27
17:29:43:138440,12,41,21,31,13,7,9,-27
17:29:43:145681,5,-10,-31,-4,15,-14,4,27
17:29:43:153234,-16,14,15,11,-4,3,-14,40
17:29:43:161407,-16,14,15,11,-4,3,-14,40
17:29:43:162175,-6,-14,-8,-12,-55,-19,2,18
17:29:43:176462,5,-37,35,27,4,5,-11,-32
17:29:43:177236,5,-37,35,27,4,5,-11,-32
17:29:43:183147,-16,20,5,-14,0,7,5,-11
17:29:43:190776,8,23,-25,-18,-11,12,8,14
17:29:43:198261,8,23,-25,-18,-11,12,8,14
17:29:43:205809,-9,-10,-21,1,20,-3,-12,5
17:29:43:213185,2,-8,26,-12,-27,-15,12,-2
17:29:43:228901,2,-8,26,-12,-27,-15,12,-2
17:29:43:229681,24,33,-13,36,62,37,25,20
17:29:43:244996,-7,-13,-23,-22,2,-16,6,41
17:29:43:245794,-7,-13,-23,-22,2,-16,6,41
17:29:43:251373,0,-40,45,-19,-3,-5,-4,30
17:29:43:252162,-8,-12,-45,-42,10,16,-13,-73
17:29:43:258405,-8,-12,-45,-42,10,16,-13,-73
17:29:43:265685,-7,35,36,2,19,27,16,4
17:29:43:289736,-10,-16,10,-19,-36,-18,-8,-11
17:29:43:290406,-10,-16,10,-19,-36,-18,-8,-11
17:29:43:291199,40,4,23,14,-12,-9,-1,14
17:29:43:296361,-2,-3,22,11,0,14,3,47
17:29:43:297171,-2,-3,22,11,0,14,3,47
17:29:43:303211,-13,-17,-22,-12,-22,-14,2,7
17:29:43:318998,-4,56,-18,-5,-51,-20,-7,11
17:29:43:319716,-4,56,-18,-5,-51,-20,-7,11
17:29:43:325818,-11,-33,-4,-10,10,27,15,43
17:29:43:333185,16,12,-83,12,14,-12,-3,5
17:29:43:340917,16,12,-83,12,14,-12,-3,5
17:29:43:348209,11,3,1,31,8,-13,-5,-3
17:29:43:356447,12,44,40,16,6,-9,3,25
17:29:43:357222,12,44,40,16,6,-9,3,25
17:29:43:363232,-45,16,-31,-3,10,0,-10,-22
17:29:43:378890,8,-56,-55,21,17,3,10,-33
17:29:43:379662,8,-56,-55,21,17,3,10,-33
17:29:43:385700,-2,-71,3,-3,13,9,11,-42
17:29:43:393323,-1,-66,-12,-10,13,-12,-5,-23
17:29:43:400736,-1,-66,-12,-10,13,-12,-5,-23
17:29:43:408309,-9,-25,-18,4,-26,-21,-24,-20
17:29:43:416371,-11,-23,29,52,12,22,10,-1
17:29:43:417185,-11,-23,29,52,12,22,10,-1
17:29:43:423278,6,9,37,-23,18,23,-5,-33
17:29:43:439012,-29,35,7,-18,-51,-4,-2,-5
17:29:43:439749,-29,35,7,-18,-51,-4,-2,-5
17:29:43:445689,-16,-9,-35,8,10,29,-10,14
17:29:43:453259,-28,-72,-24,-30,-8,-13,-8,16
17:29:43:460840,-28,-72,-24,-30,-8,-13,-8,16
17:29:43:468173,10,48,-47,-43,-64,-28,-1,0
17:29:43:476541,-6,-13,9,-15,22,34,3,-5
17:29:43:477227,-6,-13,9,-15,22,34,3,-5
17:29:43:483166,13,-4,6,5,-23,-26,-4,-12
17:29:43:498889,-30,-53,-9,-30,10,7,-5,-46
17:29:43:499687,-30,-53,-9,-30,10,7,-5,-46
17:29:43:505873,-7,-22,-73,-3,9,-14,-5,28
17:29:43:513192,24,45,25,38,56,15,11,29
17:29:43:520779,24,45,25,38,56,15,11,29
17:29:43:528176,-12,-28,-29,-10,2,-11,-6,22
17:29:43:536426,8,39,0,-3,-63,-18,-30,-2
17:29:43:537257,8,39,0,-3,-63,-18,-30,-2
17:29:43:543274,21,74,55,18,19,9,10,32
17:29:43:559054,8,-12,-11,-22,-4,-12,2,15
17:29:43:559734,8,-12,-11,-22,-4,-12,2,15
17:29:43:565661,-34,-47,-31,-33,17,3,-23,-22
17:29:43:573262,25,-16,23,7,10,11,-2,6
17:29:43:580778,25,-16,23,7,10,11,-2,6
17:29:43:588478,-34,25,22,-6,-35,-27,-2,8
17:29:43:596369,6,13,29,6,51,28,10,-39
17:29:43:597190,6,13,29,6,51,28,10,-39
17:29:43:603204,27,11,26,34,8,4,15,-30
17:29:43:626345,9,-6,-17,-5,-34,-15,10,-6
17:29:43:634561,9,-6,-17,-5,-34,-15,10,-6
17:29:43:635377,21,14,-44,28,18,-2,0,-43
17:29:43:636174,3,0,-69,-28,-5,-1,6,29
17:29:43:640935,3,0,-69,-28,-5,-1,6,29
17:29:43:656927,-3,-14,27,49,35,33,21,17
17:29:43:657605,-21,1,18,28,16,-17,-14,-71
17:29:43:663961,-21,1,18,28,16,-17,-14,-71
17:29:43:664722,-13,-21,43,54,42,20,0,64
17:29:43:679365,-17,16,4,3,0,-19,-23,1
17:29:43:680168,-17,16,4,3,0,-19,-23,1
17:29:43:685683,-1,30,26,-31,-45,-15,-12,-28
17:29:43:702096,-10,-18,-6,-12,1,17,15,39
17:29:43:702818,-10,-18,-6,-12,1,17,15,39
17:29:43:708242,3,-37,42,3,21,0,5,-10
17:29:43:716776,8,-7,-30,-8,11,-17,-29,30
17:29:43:731388,8,-7,-30,-8,11,-17,-29,30
17:29:43:732151,8,22,20,0,5,-22,0,-41
17:29:43:739021,0,22,-12,22,13,14,-3,-3
17:29:43:739727,0,22,-12,22,13,14,-3,-3
17:29:43:753897,12,-13,3,-8,-11,1,-2,24
17:29:43:754758,-1,5,-6,0,-16,-34,5,19
17:29:43:768984,-1,5,-6,0,-16,-34,5,19
17:29:43:769719,-1,24,-24,-38,-14,13,15,16
17:29:43:776456,0,23,23,-10,-22,-2,0,-18
17:29:43:777173,0,23,23,-10,-22,-2,0,-18
17:29:43:783176,2,-38,1,-36,-17,-5,-7,-25
17:29:43:798965,3,-16,-34,14,13,2,-3,-44
17:29:43:799719,3,-16,-34,14,13,2,-3,-44
17:29:43:805881,12,35,-14,6,2,14,13,17
17:29:43:813207,8,-20,-35,-17,-16,15,4,22
17:29:43:820800,8,-20,-35,-17,-16,15,4,22
17:29:43:828209,7,-45,-61,-9,-16,-28,-18,25
17:29:43:836387,-12,1,10,-1,-10,-2,14,9
17:29:43:837208,-12,1,10,-1,-10,-2,14,9
17:29:43:843336,-12,19,81,8,-19,-2,-12,15
17:29:43:858972,8,40,-34,-38,-18,-6,-11,-4
17:29:43:859694,8,40,-34,-38,-18,-6,-11,-4
17:29:43:865694,4,19,24,-5,-8,-23,3,-12
17:29:43:873350,2,21,20,9,19,16,12,35
17:29:43:880747,2,21,20,9,19,16,12,35
17:29:43:888383,-8,-2,-17,9,-22,-5,-15,14
17:29:43:896397,-11,-14,-43,-6,-1,3,-2,-17
17:29:43:897199,-11,-14,-43,-6,-1,3,-2,-17
17:29:43:910766,-8,-26,25,4,24,-27,-6,1
17:29:43:919560,5,-16,81,30,-5,10,-1,-24
17:29:43:920344,5,-16,81,30,-5,10,-1,-24
17:29:43:925771,-17,-5,-12,-5,-16,8,2,-19
17:29:43:933155,4,-21,63,1,7,9,7,9
17:29:43:940884,4,-21,63,1,7,9,7,9
17:29:43:948187,-4,-17,-28,47,29,7,-7,-42
17:29:43:964557,6,9,1,-27,-5,-9,4,71
17:29:43:965358,6,9,1,-27,-5,-9,4,71
17:29:43:966169,-4,-2,10,-12,18,20,16,-18
17:29:43:987133,3,-61,32,4,-3,-13,-21,-34
17:29:43:987976,3,-61,32,4,-3,-13,-21,-34
17:29:43:988655,23,19,-11,-1,-7,6,13,54
17:29:43:993361,-19,6,-6,8,16,-3,3,-19
17:29:44:791,-19,6,-6,8,16,-3,3,-19
17:29:44:8412,-39,-35,-6,-15,-4,0,-13,-52
17:29:44:16352,7,31,-21,8,6,-11,-8,-5
17:29:44:17170,7,31,-21,8,6,-11,-8,-5
17:29:44:23306,10,-22,-44,-18,-33,-1,15,18
17:29:44:39514,23,43,62,39,41,23,4,-2
17:29:44:40152,23,43,62,39,41,23,4,-2
17:29:44:45718,17,8,36,-33,30,-29,8,-50
17:29:44:53241,-29,6,25,-10,-5,8,6,17
17:29:44:60840,-29,6,25,-10,-5,8,6,17
17:29:44:68268,-12,2,-58,-25,-34,-1,6,32
17:29:44:76461,-4,-22,-58,-14,18,-3,-9,-54
17:29:44:77197,-4,-22,-58,-14,18,-3,-9,-54
17:29:44:83139,5,11,-53,-35,-6,-10,-1,-9
17:29:44:98866,-5,45,9,6,-21,-3,7,53
17:29:44:99704,-5,45,9,6,-21,-3,7,53
17:29:44:113892,12,30,10,2,-11,27,11,37
17:29:44:114667,-7,-48,-76,-34,-19,5,-12,-3
17:29:44:120795,-7,-48,-76,-34,-19,5,-12,-3
17:29:44:128234,0,-4,4,95,34,14,-5,-23
17:29:44:136405,-2,-7,6,16,-20,-17,-3,6
17:29:44:137212,-2,-7,6,16,-20,-17,-3,6
17:29:44:150743,2,-10,-42,-17,-19,-18,-14,-5
17:29:44:167061,-4,24,43,15,4,5,4,-39
17:29:44:168008,-4,24,43,15,4,5,4,-39
17:29:44:168645,-16,3,15,-35,-6,-6,-29,0
17:29:44:173327,28,-7,59,-10,9,-32,-11,-23
17:29:44:180771,28,-7,59,-10,9,-32,-11,-23
17:29:44:188461,-14,16,32,-17,7,10,15,23
17:29:44:204550,-23,23,7,24,-3,-1,-13,-14
17:29:44:205390,-23,23,7,24,-3,-1,-13,-14
17:29:44:206210,10,-27,3,22,-7,1,-1,-12
17:29:44:220027,-5,-13,1,76,3,-2,15,-13
17:29:44:226596,-5,-13,1,76,3,-2,15,-13
17:29:44:227199,-21,7,-25,37,20,14,4,-23
17:29:44:241557,-9,-13,-49,-65,-13,-10,-9,6
17:29:44:242203,-9,-13,-49,-65,-13,-10,-9,6
17:29:44:248200,-10,-35,-14,0,-5,3,17,-16
17:29:44:256593,19,62,66,11,-6,-1,-4,2
17:29:44:257228,19,62,66,11,-6,-1,-4,2
17:29:44:279541,-29,8,-28,-18,-19,-21,-44,21
17:29:44:280321,-2,-35,-51,-12,7,7,-4,0
17:29:44:281141,-2,-35,-51,-12,7,7,-4,0
17:29:44:285738,28,22,37,-25,-26,-12,8,-12
17:29:44:301403,-6,-16,17,23,20,28,11,-8
17:29:44:302211,-6,-16,17,23,20,28,11,-8
17:29:44:308305,-1,-2,24,46,20,0,15,-37
17:29:44:316351,16,20,15,38,28,7,9,16
17:29:44:317230,16,20,15,38,28,7,9,16
17:29:44:330735,13,0,15,-14,9,5,-3,17
17:29:44:339065,-2,-37,-47,-15,-13,-6,-6,3
17:29:44:339696,-2,-37,-47,-15,-13,-6,-6,3
17:29:44:353223,-2,-27,54,2,13,1,-6,-2
17:29:44:361434,-33,-47,-14,-17,-15,3,-13,-78
17:29:44:362223,-33,-47,-14,-17,-15,3,-13,-78
17:29:44:368186,-15,-28,-22,-35,-17,-8,-1,31
17:29:44:376438,26,25,-3,-45,-25,-9,6,19
17:29:44:377149,26,25,-3,-45,-25,-9,6,19
17:29:44:390855,17,32,33,-12,-2,5,-7,-1
17:29:44:398964,17,32,33,-12,-2,5,-7,-1
17:29:44:399718,2,-2,17,-19,-19,-10,3,-66
17:29:44:405881,30,26,46,2,13,14,2,2
17:29:44:421608,30,26,46,2,13,14,2,2
17:29:44:422238,-7,24,11,-4,5,2,9,35
17:29:44:428221,-3,23,33,14,1,-3,0,-11
17:29:44:436395,-3,23,33,14,1,-3,0,-11
17:29:44:437185,-3,19,-33,-9,-12,-6,-2,22
17:29:44:450718,18,-35,-90,-36,-10,-8,-7,31
17:29:44:459097,18,-35,-90,-36,-10,-8,-7,31
17:29:44:459767,-11,-33,-86,-45,-26,-18,-19,22
17:29:44:465676,-8,0,-3,-16,-15,-7,4,10
17:29:44:481421,-8,0,-3,-16,-15,-7,4,10
17:29:44:482192,-14,-67,40,3,5,6,-12,6
17:29:44:488412,-31,-18,18,13,-5,-3,-7,47
17:29:44:496423,-31,-18,18,13,-5,-3,-7,47
17:29:44:497220,-6,-19,-22,-37,-11,-11,-10,-13
17:29:44:510784,-37,48,2,23,0,-3,6,12
17:29:44:518982,-37,48,2,23,0,-3,6,12
17:29:44:519705,4,39,24,12,13,12,14,24
17:29:44:533202,22,33,-30,-33,-1,-2,1,-11
17:29:44:541531,22,33,-30,-33,-1,-2,1,-11
17:29:44:542207,-3,17,50,4,-4,-7,-9,21
17:29:44:557130,22,0,-17,11,2,5,5,-15
17:29:44:557869,22,0,-17,11,2,5,5,-15
17:29:44:558668,-6,-30,-45,9,20,9,24,23
17:29:44:570765,11,-1,-50,-11,14,1,-6,2
17:29:44:578906,11,-1,-50,-11,14,1,-6,2
17:29:44:579699,3,9,-23,9,8,4,7,-29
17:29:44:585655,-19,-29,-6,-4,-9,-4,-3,-24
17:29:44:601450,-19,-29,-6,-4,-9,-4,-3,-24
17:29:44:602188,7,-3,22,24,9,2,5,-5
17:29:44:608383,28,-16,16,2,-5,0,-2,3
17:29:44:616411,28,-16,16,2,-5,0,-2,3
17:29:44:617220,12,37,54,-28,-11,-7,-23,-2
17:29:44:630721,8,21,59,40,16,-1,1,-18
17:29:44:639080,8,21,59,40,16,-1,1,-18
17:29:44:639711,12,2,13,-14,-5,2,1,8
17:29:44:645731,-10,-33,34,12,1,-4,-20,-39
17:29:44:661392,-10,-33,34,12,1,-4,-20,-39
17:29:44:662171,-7,-28,-17,82,43,14,1,-15
17:29:44:668260,0,18,-55,-1,2,-2,4,-11
17:29:44:683975,0,18,-55,-1,2,-2,4,-11
17:29:44:684733,-10,-24,83,-5,-2,-3,3,9
17:29:44:690837,17,52,23,-8,-6,7,17,33
17:29:44:698683,17,52,23,-8,-6,7,17,33
17:29:44:706473,-11,14,-13,-19,-13,-7,-10,-25
17:29:44:707155,22,20,-6,-12,-4,2,-14,-38
17:29:44:721622,22,20,-6,-12,-4,2,-14,-38
17:29:44:722257,-2,-58,-79,-33,-17,-2,12,21
17:29:44:744567,-10,-13,35,-20,-3,-12,-17,-9
17:29:44:745356,-10,-13,35,-20,-3,-12,-17,-9
17:29:44:746150,27,47,39,5,-3,0,2,39
17:29:44:759644,-23,-31,17,5,-3,-1,3,-11
17:29:44:760355,-23,-31,17,5,-3,-1,3,-11
17:29:44:761146,-9,6,-41,-3,-2,-2,-4,-9
17:29:44:765694,-21,-38,-16,6,-3,3,17,29
17:29:44:781377,-21,-38,-16,6,-3,3,17,29
17:29:44:782171,-7,22,-26,24,1,0,21,-30
17:29:44:788508,-27,23,7,22,3,-4,4,-14
17:29:44:796410,-27,23,7,22,3,-4,4,-14
17:29:44:797184,-19,13,71,35,22,7,11,-33
17:29:44:810811,9,9,-22,-10,-6,0,11,51
17:29:44:818932,9,9,-22,-10,-6,0,11,51
17:29:44:819690,9,35,4,1,3,11,-12,21
17:29:44:842172,-3,-27,-3,-9,-3,-8,-16,6
17:29:44:842872,-3,-27,-3,-9,-3,-8,-16,6
17:29:44:843684,8,-23,-15,-12,-12,-6,22,11
17:29:44:848182,-15,11,-9,-30,-20,1,10,24
17:29:44:856564,-15,11,-9,-30,-20,1,10,24
17:29:44:857246,-13,-3,-11,-22,-17,-13,-28,4
17:29:44:870706,-1,-15,46,28,27,12,1,-22
17:29:44:887109,-1,-15,46,28,27,12,1,-22
17:29:44:887832,10,-18,-12,-8,-12,-9,-19,-43
17:29:44:888670,-18,10,59,-2,-16,-14,-30,-2
17:29:44:909690,-18,10,59,-2,-16,-14,-30,-2
17:29:44:910380,9,-7,13,-4,-1,-2,-18,28
17:29:44:911162,9,17,-58,-15,-8,-11,-29,-11
17:29:44:916406,9,17,-58,-15,-8,-11,-29,-11
17:29:44:917209,-15,-22,3,-15,-5,-2,19,-13
17:29:44:930685,-12,13,-14,-12,-9,3,8,8
17:29:44:939100,-12,13,-14,-12,-9,3,8,8
17:29:44:939701,-5,3,55,9,-2,-1,5,5
17:29:44:945687,20,-1,-17,27,12,8,12,-47
17:29:44:961417,20,-1,-17,27,12,8,12,-47
17:29:44:962191,-1,58,46,-6,-3,-6,-4,49
17:29:44:968153,-10,-46,-21,-10,-2,-3,2,-35
17:29:44:976895,-10,-46,-21,-10,-2,-3,2,-35
17:29:44:983172,-29,-21,-18,-4,6,-13,-15,4
17:29:44:990814,30,17,-74,-5,9,15,22,33
17:29:44:998980,30,17,-74,-5,9,15,22,33
17:29:44:999742,-15,-30,-37,-17,-10,-4,0,-27
17:29:45:13200,15,-3,59,6,-5,-10,-2,-8
17:29:45:21629,15,-3,59,6,-5,-10,-2,-8
17:29:45:22206,13,7,8,5,15,10,9,-10
17:29:45:37117,-31,-12,-12,-11,-7,-2,6,-42
17:29:45:37980,-31,-12,-12,-11,-7,-2,6,-42
17:29:45:38682,26,-7,-44,-7,-13,-12,-22,45
17:29:45:50705,3,16,44,18,11,15,9,27
17:29:45:59073,3,16,44,18,11,15,9,27
17:29:45:59650,-18,-23,-17,-13,-11,-7,-11,-15
17:29:45:65686,-23,-1,-70,-42,-18,-17,-32,-9
17:29:45:81408,-23,-1,-70,-42,-18,-17,-32,-9
17:29:45:82204,20,23,20,21,21,10,8,-22
17:29:45:88398,-8,-9,32,13,5,5,-2,32
17:29:45:96431,-8,-9,32,13,5,5,-2,32
17:29:45:97209,7,-16,-62,-12,-11,-9,-7,2
17:29:45:110821,-6,-21,-38,55,18,4,7,-38
17:29:45:118967,-6,-21,-38,55,18,4,7,-38
17:29:45:119725,-10,-1,13,12,13,8,11,4
17:29:45:125766,-16,-76,-70,-22,-4,-5,-2,-10
17:29:45:141513,-16,-76,-70,-22,-4,-5,-2,-10
17:29:45:142181,-1,11,-3,8,-9,1,-3,11
17:29:45:148205,27,-7,19,-20,-12,-4,3,-28
17:29:45:163878,27,-7,19,-20,-12,-4,3,-28
17:29:45:164673,48,16,2,-7,3,-1,-8,41
17:29:45:170783,39,-2,17,-6,-7,9,29,115
17:29:45:186395,39,-2,17,-6,-7,9,29,115
17:29:45:187202,-4,26,19,-7,-12,-1,15,33
17:29:45:193343,0,56,26,11,14,4,-14,16
17:29:45:201403,0,56,26,11,14,4,-14,16
17:29:45:202194,-2,-60,-31,-15,-4,1,-1,-4
17:29:45:208325,6,44,34,11,8,0,-8,-18
17:29:45:216389,6,44,34,11,8,0,-8,-18
17:29:45:223282,-12,-1,-2,32,8,5,1,-6
17:29:45:230676,-10,-19,-37,-22,-10,-12,-14,-8
17:29:45:239145,-10,-19,-37,-22,-10,-12,-14,-8
17:29:45:239697,-12,-13,-18,-5,-15,-13,-23,-64
17:29:45:262700,-21,-17,-33,11,7,1,17,15
17:29:45:263489,-21,-17,-33,11,7,1,17,15
17:29:45:264316,20,36,-24,-14,-1,13,18,35
17:29:45:268196,-10,35,60,2,-3,-8,-16,-8
17:29:45:275850,-10,35,60,2,-3,-8,-16,-8
17:29:45:283173,-16,-30,-63,-31,-12,-12,-19,-34
17:29:45:290836,6,-21,9,-5,7,4,0,24
17:29:45:298911,6,-21,9,-5,7,4,0,24
17:29:45:299680,5,2,49,-2,-4,-7,-8,10
17:29:45:313217,4,10,16,-5,3,3,8,-6
17:29:45:321584,4,10,16,-5,3,3,8,-6
17:29:45:322211,-1,-12,-26,-23,-7,2,10,-21
17:29:45:328180,-9,-42,-67,-15,-5,-1,-6,-2
17:29:45:335735,-9,-42,-67,-15,-5,-1,-6,-2
17:29:45:343351,-4,-11,45,24,13,5,14,-14
17:29:45:350650,6,11,-33,35,10,5,24,76
17:29:45:366408,6,11,-33,35,10,5,24,76
17:29:45:367197,-1,9,8,-1,-8,-11,-4,11
17:29:45:373223,11,-10,8,0,-3,-3,-4,9
17:29:45:389627,11,-10,8,0,-3,-3,-4,9
17:29:45:390315,-5,2,-2,5,4,-3,-11,-9
17:29:45:391194,-8,13,36,-9,-14,-7,-13,-52
17:29:45:395735,-8,13,36,-9,-14,-7,-13,-52
17:29:45:403163,0,2,25,10,4,5,-14,-17
17:29:45:410782,21,25,61,16,18,16,21,-2
17:29:45:418983,21,25,61,16,18,16,21,-2
17:29:45:419696,-11,13,50,1,-1,2,6,12
17:29:45:433238,0,-4,-6,36,-9,-5,-2,-55
17:29:45:441545,0,-4,-6,36,-9,-5,-2,-55
17:29:45:442217,-40,3,-18,0,1,7,16,-13
17:29:45:448162,-13,-2,16,-16,-4,-3,-7,1
17:29:45:463886,-13,-2,16,-16,-4,-3,-7,1
17:29:45:464685,-8,-10,-83,-2,-5,-3,3,-4
17:29:45:470728,-12,-7,16,-3,-3,-14,-17,24
17:29:45:478908,-12,-7,16,-3,-3,-14,-17,24
17:29:45:479676,11,34,28,-11,-3,8,0,-9
17:29:45:493318,-1,-53,-9,6,6,-4,-11,-14
17:29:45:501380,-1,-53,-9,6,6,-4,-11,-14
17:29:45:502215,-2,-45,-34,18,-1,-11,-15,-27
17:29:45:508347,-10,-17,-49,-3,10,6,-3,-55
17:29:45:515737,-10,-17,-49,-3,10,6,-3,-55
17:29:45:523262,0,19,29,-3,8,7,18,68
17:29:45:531324,-3,44,77,-17,-18,-9,-2,17
17:29:45:539127,-3,44,77,-17,-18,-9,-2,17
17:29:45:539689,11,15,4,-28,-6,-4,-3,-12
17:29:45:553253,4,-24,-83,-22,-7,-1,-11,-14
17:29:45:561415,4,-24,-83,-22,-7,-1,-11,-14
17:29:45:562181,8,-19,31,25,4,-1,-8,-7
17:29:45:568147,0,-28,-4,-6,-7,-18,-21,23
17:29:45:575898,0,-28,-4,-6,-7,-18,-21,23
17:29:45:583179,-3,3,8,16,10,12,15,-14
17:29:45:590835,2,33,35,24,12,11,10,24
17:29:45:598989,2,33,35,24,12,11,10,24
17:29:45:599724,1,53,31,10,-1,-8,6,30
17:29:45:613673,11,88,8,-15,-28,-5,-1,-6
17:29:45:621661,11,88,8,-15,-28,-5,-1,-6
17:29:45:622225,-9,-61,-108,-12,4,-3,-1,-8
17:29:45:628173,12,37,44,26,3,2,-5,-23
17:29:45:635752,12,37,44,26,3,2,-5,-23
17:29:45:643391,-22,-17,12,-6,-8,-13,-35,0
17:29:45:650707,-13,-13,-24,-18,-3,-2,6,-39
17:29:45:666434,-13,-13,-24,-18,-3,-2,6,-39
17:29:45:667216,14,42,92,13,1,8,4,26
17:29:45:673256,16,1,-5,10,14,6,-2,24
17:29:45:681432,16,1,-5,10,14,6,-2,24
17:29:45:682201,11,-14,-36,-24,-8,-5,-5,-23
17:29:45:688441,5,-27,-42,-26,-6,0,3,44
17:29:45:695783,5,-27,-42,-26,-6,0,3,44
17:29:45:703209,-8,-8,-2,-22,0,-1,8,-12
17:29:45:710798,-26,-110,-16,-13,-7,-7,-5,-14
17:29:45:718950,-26,-110,-16,-13,-7,-7,-5,-14
17:29:45:719695,10,6,54,5,0,6,-4,0
17:29:45:733188,12,36,-9,-19,-8,-4,-8,-6
17:29:45:741504,12,36,-9,-19,-8,-4,-8,-6
17:29:45:742241,4,64,10,1,-10,-8,-7,-11
17:29:45:748189,-12,-4,47,31,9,4,13,34
17:29:45:755895,-12,-4,47,31,9,4,13,34
17:29:45:763215,38,4,-40,-23,-4,3,6,7
17:29:45:770774,-14,-32,-57,-17,8,6,-3,-40
17:29:45:778912,-14,-32,-57,-17,8,6,-3,-40
17:29:45:779686,-11,-60,-27,20,22,-12,-15,-10
17:29:45:793280,-4,31,26,-6,-12,-14,-19,-25
17:29:45:801384,-4,31,26,-6,-12,-14,-19,-25
17:29:45:802185,-13,-31,48,4,0,2,-3,-17
17:29:45:808370,-13,2,26,25,17,4,-2,9
17:29:45:815718,-13,2,26,25,17,4,-2,9
17:29:45:823342,-27,10,-1,-6,-12,-8,-6,-11
17:29:45:830675,2,-8,-24,-22,-12,-3,3,-7
17:29:45:839081,2,-8,-24,-22,-12,-3,3,-7
17:29:45:839690,24,9,-32,4,9,14,27,17
17:29:45:853233,3,-1,-67,-5,-5,-7,-10,-4
17:29:45:861431,3,-1,-67,-5,-5,-7,-10,-4
17:29:45:862194,-8,14,15,6,4,1,-7,7
17:29:45:868163,-2,12,39,29,0,3,7,27
17:29:45:875870,-2,12,39,29,0,3,7,27
17:29:45:891483,20,0,-78,-4,-6,-2,2,4
17:29:45:892188,-12,-5,44,-4,4,-8,10,42
17:29:45:898881,-12,-5,44,-4,4,-8,10,42
17:29:45:899683,-4,-7,35,-3,-5,3,-14,-1
17:29:45:922315,-5,-37,-68,-29,-10,2,6,-13
17:29:45:922901,-5,-37,-68,-29,-10,2,6,-13
17:29:45:923698,4,26,-24,12,0,-1,6,-29
17:29:45:928210,-7,-43,6,1,0,5,7,13
17:29:45:943981,-7,-43,6,1,0,5,7,13
17:29:45:944704,23,-7,-96,-35,-12,2,6,-9
17:29:45:950668,11,-1,-34,11,3,2,-13,-34
17:29:45:959103,11,-1,-34,11,3,2,-13,-34
17:29:45:959719,7,-1,1,5,13,6,8,11
17:29:45:973277,12,-4,-26,-7,2,-2,8,14
17:29:45:981411,12,-4,-26,-7,2,-2,8,14
17:29:45:982205,-12,-11,52,4,-11,-11,4,13
17:29:45:988382,15,36,52,27,14,13,8,52
17:29:45:995759,15,36,52,27,14,13,8,52
17:29:46:3202,2,-16,30,2,-4,-10,-20,-16
17:29:46:10822,-16,-39,-93,-30,-20,-12,-22,-69
17:29:46:18929,-16,-39,-93,-30,-20,-12,-22,-69
17:29:46:19656,-10,15,24,3,5,-1,2,45
17:29:46:33188,17,36,48,7,-2,8,11,-19
17:29:46:41572,17,36,48,7,-2,8,11,-19
17:29:46:42224,-3,2,22,2,0,7,15,0
17:29:46:48193,-12,9,-42,-16,-3,1,-1,12
17:29:46:55923,-12,9,-42,-16,-3,1,-1,12
17:29:46:71363,2,33,25,11,-2,4,9,-7
17:29:46:72173,1,-1,95,-5,-2,-4,-8,-21
17:29:46:79005,1,-1,95,-5,-2,-4,-8,-21
17:29:46:79720,14,1,-20,-6,-9,-10,-3,14
17:29:46:93304,-11,-13,40,7,9,-6,-12,-49
17:29:46:101410,-11,-13,40,7,9,-6,-12,-49
17:29:46:102234,-13,-35,65,-4,-6,-3,-11,9
17:29:46:116384,2,2,12,4,2,-1,10,49
17:29:46:117226,2,2,12,4,2,-1,10,49
17:29:46:123264,-21,-8,42,7,-5,-10,-11,-12
17:29:46:130682,1,23,-10,20,0,-13,7,-74
17:29:46:138477,1,23,-10,20,0,-13,7,-74
17:29:46:145705,-1,34,-88,-8,6,12,6,20
17:29:46:161138,0,31,71,4,-6,3,4,51
17:29:46:168950,0,31,71,4,-6,3,4,51
17:29:46:169680,-22,2,67,17,8,0,-10,-25
17:29:46:176505,4,-26,-67,-22,-2,1,-1,3
17:29:46:177216,4,-26,-67,-22,-2,1,-1,3
17:29:46:183184,-25,-57,-93,-46,-17,-11,-4,11
17:29:46:190873,13,8,30,-3,-7,-5,0,14
17:29:46:198301,13,8,30,-3,-7,-5,0,14
17:29:46:205853,-4,-22,-61,-8,-5,-12,-35,-26
17:29:46:213198,5,21,-11,23,13,5,1,65
17:29:46:221593,5,21,-11,23,13,5,1,65
17:29:46:222160,-8,39,-33,7,-1,0,-3,-51
17:29:46:236375,-26,6,-28,-23,-5,4,9,-13
17:29:46:237168,-26,6,-28,-23,-5,4,9,-13
17:29:46:243324,-6,-23,30,11,5,1,16,7
17:29:46:250685,6,-3,26,2,-5,-1,4,-29
17:29:46:258323,6,-3,26,2,-5,-1,4,-29
17:29:46:273915,4,-18,-55,-12,-6,-6,-11,-15
17:29:46:274638,-14,12,66,8,10,13,14,9
17:29:46:281432,-14,12,66,8,10,13,14,9
17:29:46:282222,-2,-10,14,12,2,-3,4,-20
17:29:46:296831,7,13,-34,-4,-6,-3,-3,16
17:29:46:297634,7,13,-34,-4,-6,-3,-3,16
17:29:46:303257,32,41,20,12,3,0,5,26
17:29:46:310790,4,-14,-38,-15,-10,-7,-5,39
17:29:46:318367,4,-14,-38,-15,-10,-7,-5,39
17:29:46:325906,6,-32,53,-7,-8,-9,-17,-19
17:29:46:333201,18,3,26,27,7,1,-3,4
17:29:46:341507,18,3,26,27,7,1,-3,4
17:29:46:342234,9,31,-3,2,3,7,13,10
17:29:46:356486,-2,-1,-32,-3,-2,0,2,-31
17:29:46:357183,-2,-1,-32,-3,-2,0,2,-31
17:29:46:371426,-27,27,52,6,1,3,-10,-17
17:29:46:372218,18,2,-32,-6,4,-1,6,34
17:29:46:378307,18,2,-32,-6,4,-1,6,34
17:29:46:385722,8,7,14,7,-4,-3,6,15
17:29:46:393334,-22,-9,-9,2,-1,1,-3,-81
17:29:46:401383,-22,-9,-9,2,-1,1,-3,-81
17:29:46:402182,-22,-104,-27,11,0,-4,5,15
17:29:46:424658,20,1,23,9,22,11,12,9
17:29:46:425414,20,1,23,9,22,11,12,9
17:29:46:426219,13,15,-44,-17,0,10,3,-1
17:29:46:430677,-16,10,53,-17,-12,-12,-26,-13
17:29:46:446433,-16,10,53,-17,-12,-12,-26,-13
17:29:46:447202,-1,29,-53,-22,-10,-8,-10,31
17:29:46:453197,0,-33,44,11,-4,-3,1,17
17:29:46:461436,0,-33,44,11,-4,-3,1,17
17:29:46:462212,15,8,52,0,-1,4,10,-19
17:29:46:476508,-4,-64,-77,-15,-17,-7,-13,-28
17:29:46:477194,-4,-64,-77,-15,-17,-7,-13,-28
17:29:46:483150,-28,12,30,14,10,6,6,-4
17:29:46:498635,2,-17,-61,-10,-4,-3,-10,18
17:29:46:506497,2,-17,-61,-10,-4,-3,-10,18
17:29:46:507210,-10,-10,-19,12,5,-2,-13,-15
17:29:46:513180,-4,-2,-6,4,2,-6,-28,-32
17:29:46:521605,-4,-2,-6,4,2,-6,-28,-32
17:29:46:522224,19,-5,-53,23,14,0,-1,0
17:29:46:536421,2,16,-34,14,5,4,8,3
17:29:46:537171,2,16,-34,14,5,4,8,3
17:29:46:543334,-1,-32,4,-17,-7,-2,-3,11
17:29:46:550665,-5,-20,-27,-21,-12,-1,18,-37
17:29:46:558409,-5,-20,-27,-21,-12,-1,18,-37
17:29:46:565726,8,42,17,-9,-9,0,5,-43
17:29:46:573351,3,16,14,-10,-2,1,6,7
17:29:46:581414,3,16,14,-10,-2,1,6,7
17:29:46:582200,4,-48,-2,7,-8,3,5,16
17:29:46:596390,6,-25,-65,-13,-3,-3,-5,8
17:29:46:597215,6,-25,-65,-13,-3,-3,-5,8
17:29:46:603185,16,9,-10,-19,-8,-9,-15,-16
17:29:46:610679,-16,-2,-43,-14,-12,-4,-7,-6
17:29:46:618352,-16,-2,-43,-14,-12,-4,-7,-6
17:29:46:625871,-18,3,53,20,4,-4,-3,-29
17:29:46:633180,30,22,32,11,-3,-13,-1,15
17:29:46:641557,30,22,32,11,-3,-13,-1,15
17:29:46:642219,-16,-25,-40,-12,4,-3,4,17
17:29:46:656537,-9,25,81,20,4,4,2,-20
17:29:46:657226,-9,25,81,20,4,4,2,-20
17:29:46:663208,25,3,9,-6,-1,0,9,38
17:29:46:678914,-13,-21,-23,-58,-10,0,1,-7
17:29:46:679718,-13,-21,-23,-58,-10,0,1,-7
17:29:46:685677,-14,8,0,-10,2,8,11,6
17:29:46:702166,10,44,54,4,6,5,-1,2
17:29:46:702898,10,44,54,4,6,5,-1,2
17:29:46:703677,23,-10,-42,-20,-10,-6,-3,0
17:29:46:716813,-3,-9,-38,-2,-4,0,14,18
17:29:46:724022,-3,-9,-38,-2,-4,0,14,18
17:29:46:724721,-3,20,10,0,3,6,-1,-4
17:29:46:730669,-14,-5,33,20,1,-3,-1,17
17:29:46:738466,-14,-5,33,20,1,-3,-1,17
17:29:46:745675,-11,-23,-16,-5,-3,2,-1,-1
17:29:46:753196,16,49,29,14,2,3,-3,-21
17:29:46:761444,16,49,29,14,2,3,-3,-21
17:29:46:762201,13,51,69,12,5,1,2,7
17:29:46:785113,-56,-29,17,7,3,0,-6,-2
17:29:46:785794,-56,-29,17,7,3,0,-6,-2
17:29:46:786627,-9,-25,85,25,9,6,20,43
17:29:46:790833,18,75,-18,3,5,-1,-8,0
17:29:46:798237,18,75,-18,3,5,-1,-8,0
17:29:46:805866,-6,51,-1,1,-4,-7,-15,0
17:29:46:813191,-13,-28,21,-6,-3,-8,-2,5
17:29:46:821619,-13,-28,21,-6,-3,-8,-2,5
17:29:46:822255,34,32,-36,-7,-12,-9,-9,73
17:29:46:836401,8,-33,-33,-10,-3,-1,-15,-22
17:29:46:837203,8,-33,-33,-10,-3,-1,-15,-22
17:29:46:843306,-24,-38,-27,-26,-10,-4,-2,-15
17:29:46:851341,-5,-15,62,11,5,-1,-9,3
17:29:46:858380,-5,-15,62,11,5,-1,-9,3
17:29:46:865702,-32,-61,-18,4,-2,-12,-26,-41
17:29:46:873277,2,-17,3,-4,-6,0,0,-16
17:29:46:881456,2,-17,3,-4,-6,0,0,-16
17:29:46:882201,11,16,-4,3,1,3,3,-11
17:29:46:896834,-10,6,19,13,6,0,-15,-14
17:29:46:904010,-10,6,19,13,6,0,-15,-14
17:29:46:904709,-2,-32,-23,24,8,2,1,6
17:29:46:910696,0,26,-40,6,-4,0,0,-11
17:29:46:918266,0,26,-40,6,-4,0,0,-11
17:29:46:925840,3,36,43,-6,1,7,10,-25
17:29:46:933168,-3,15,-20,10,-1,1,2,-22
17:29:46:941500,-3,15,-20,10,-1,1,2,-22
17:29:46:942173,-2,-62,-53,-29,-13,-8,-9,-6
17:29:46:956569,-1,-4,-39,-13,-2,-5,4,10
17:29:46:957242,-1,-4,-39,-13,-2,-5,4,10
17:29:46:963863,-8,-15,-13,-23,-5,3,2,6
17:29:46:970733,-4,-7,-3,-1,3,3,7,26
17:29:46:978211,-4,-7,-3,-1,3,3,7,26
17:29:46:993697,0,-1,7,2,-2,-5,4,-19
17:29:47:2006,16,9,-28,3,-3,0,0,7
17:29:47:2834,16,9,-28,3,-3,0,0,7
17:29:47:3649,1,16,67,19,2,3,7,25
17:29:47:16417,2,-11,29,-24,-5,2,-6,-61
17:29:47:17220,2,-11,29,-24,-5,2,-6,-61
17:29:47:23308,-11,5,13,-8,4,-7,-11,-20
17:29:47:30699,-1,-4,53,-3,6,-2,13,81
17:29:47:38527,-1,-4,53,-3,6,-2,13,81
17:29:47:53857,-7,32,3,8,1,2,7,-1
17:29:47:54668,1,-38,-14,5,5,3,11,-20
17:29:47:60831,1,-38,-14,5,5,3,11,-20
17:29:47:68194,-5,-7,-4,12,6,-2,3,10
17:29:47:76447,4,-34,-80,-23,-10,-2,-6,-30
17:29:47:77175,4,-34,-80,-23,-10,-2,-6,-30
17:29:47:83194,18,21,-52,4,0,0,-4,-15
17:29:47:98907,13,7,-16,2,-5,0,5,53
17:29:47:99710,13,7,-16,2,-5,0,5,53
17:29:47:105820,-3,2,37,3,0,2,9,11
17:29:47:113192,-35,-13,-23,5,-9,-6,0,34
17:29:47:120771,-35,-13,-23,5,-9,-6,0,34
17:29:47:128217,-1,-24,-38,7,-3,2,-7,-4
17:29:47:136358,-1,20,-10,-10,-5,-6,-10,-25
17:29:47:137160,-1,20,-10,-10,-5,-6,-10,-25
17:29:47:143281,-11,5,2,-2,-1,-2,-4,-48
17:29:47:158987,-7,5,35,-6,-2,4,6,6
17:29:47:159669,-7,5,35,-6,-2,4,6,6
17:29:47:165682,20,18,4,13,6,3,-4,-15
17:29:47:173273,13,-28,-45,6,6,-9,-16,-2
17:29:47:180690,13,-28,-45,6,6,-9,-16,-2
17:29:47:188427,-5,-1,0,-18,-12,-6,-3,-1
17:29:47:196389,-28,-7,21,-2,-9,-12,-24,-39
17:29:47:197213,-28,-7,21,-2,-9,-12,-24,-39
17:29:47:203165,1,0,-33,13,9,1,8,22
17:29:47:218963,19,48,52,-3,-7,-1,5,6
17:29:47:219689,19,48,52,-3,-7,-1,5,6
17:29:47:225835,3,5,38,-25,-7,-5,2,36
17:29:47:233195,-20,20,87,19,15,-4,-19,-30
17:29:47:240869,-20,20,87,19,15,-4,-19,-30
17:29:47:248161,-14,-32,3,-22,-11,-5,1,6
17:29:47:256587,4,6,25,-2,-6,4,18,-25
17:29:47:257199,4,6,25,-2,-6,4,18,-25
17:29:47:263201,7,0,-11,-15,3,2,-4,-3
17:29:47:279374,-14,-16,4,-9,2,8,6,8
17:29:47:280196,-14,-16,4,-9,2,8,6,8
17:29:47:285676,12,52,1,-10,-9,0,3,-20
17:29:47:293325,11,23,15,11,6,9,10,43
17:29:47:300729,11,23,15,11,6,9,10,43
17:29:47:308291,-19,-34,-55,7,5,-7,-5,-3
17:29:47:316446,8,-45,-10,-7,3,0,-11,17
17:29:47:317254,8,-45,-10,-7,3,0,-11,17
17:29:47:323265,-22,-29,22,18,4,5,-2,-18
17:29:47:339059,15,-21,-80,-20,-18,-13,-12,15
17:29:47:339729,15,-21,-80,-20,-18,-13,-12,15
17:29:47:345696,-2,-19,-1,29,17,3,-5,-13
17:29:47:353212,-1,15,11,6,-2,8,6,16
17:29:47:360775,-1,15,11,6,-2,8,6,16
17:29:47:368163,-2,0,-32,-25,-5,-2,-8,0
17:29:47:376484,18,19,24,6,6,-1,3,-2
17:29:47:377169,18,19,24,6,6,-1,3,-2
17:29:47:383202,-17,-63,-28,-2,-11,-7,-6,-10
17:29:47:398927,1,-35,-13,3,4,0,3,-5
17:29:47:399733,1,-35,-13,3,4,0,3,-5
17:29:47:405811,-11,28,61,-4,-8,-4,4,6
17:29:47:413178,-11,26,-48,3,-4,-4,-5,-18
17:29:47:421510,-11,26,-48,3,-4,-4,-5,-18
17:29:47:428245,7,-1,-5,2,2,5,10,23
17:29:47:436404,11,55,-29,-3,13,1,0,-12
17:29:47:437192,11,55,-29,-3,13,1,0,-12
17:29:47:443328,4,1,-11,-7,-8,-2,4,0
17:29:47:458983,7,59,66,9,-1,-2,-6,-22
17:29:47:459729,7,59,66,9,-1,-2,-6,-22
17:29:47:465687,-14,-22,23,-12,-5,0,-7,-16
17:29:47:481423,-15,-26,-23,-14,-4,-5,-6,-17
17:29:47:482219,-15,-26,-23,-14,-4,-5,-6,-17
17:29:47:488465,-17,-15,28,-1,5,-1,-19,-60
17:29:47:496362,-1,-1,23,11,11,6,4,0
17:29:47:497176,-1,-1,23,11,11,6,4,0
17:29:47:503217,19,25,-55,-8,-6,0,0,21
17:29:47:518998,-9,-23,-29,-4,2,4,0,-1
17:29:47:519732,-9,-23,-29,-4,2,4,0,-1
17:29:47:525797,5,1,-40,9,4,1,1,-2
17:29:47:533187,-10,-32,15,4,-7,-6,-2,2
17:29:47:540891,-10,-32,15,4,-7,-6,-2,2
17:29:47:548213,-5,28,24,-3,-1,-1,2,33
17:29:47:556539,-16,-12,-29,-10,-9,-11,-8,-19
17:29:47:557191,-16,-12,-29,-10,-9,-11,-8,-19
17:29:47:563173,4,-13,94,-4,-6,-8,-1,13
17:29:47:587177,6,-7,17,-1,5,5,12,20
17:29:47:587900,6,-7,17,-1,5,5,12,20
17:29:47:588741,13,48,15,9,-3,0,-2,4
17:29:47:593291,7,-11,-35,-9,-15,-1,6,4
17:29:47:600741,7,-11,-35,-9,-15,-1,6,4
17:29:47:608351,9,39,57,5,5,0,-4,-19
17:29:47:624680,-11,-2,-13,5,1,-3,-5,-5
17:29:47:625392,-11,-2,-13,5,1,-3,-5,-5
17:29:47:626178,1,27,46,17,-5,4,16,-18
17:29:47:639024,-5,-31,-4,-3,0,-3,9,27
17:29:47:639707,-5,-31,-4,-3,0,-3,9,27
17:29:47:645683,17,-38,-43,8,5,1,10,51
17:29:47:661419,-1,15,14,4,-9,-6,-4,2
17:29:47:662209,-1,15,14,4,-9,-6,-4,2
17:29:47:668144,2,17,-60,3,5,0,-1,1
17:29:47:684548,2,17,-60,3,5,0,-1,1
17:29:47:685378,7,35,56,12,-5,-4,0,-5
17:29:47:686143,-12,-38,-34,-5,-4,-6,-7,-11
17:29:47:698900,-12,-38,-34,-5,-4,-6,-7,-11
17:29:47:699676,-5,-23,-57,18,17,6,-7,17
17:29:47:705899,-15,-50,-97,-19,-7,-8,-14,-21
17:29:47:721601,-15,-50,-97,-19,-7,-8,-14,-21
17:29:47:722234,42,57,78,-3,-13,1,24,83
17:29:47:728221,-3,-27,-41,-26,-7,-9,-18,-12
17:29:47:736401,-3,-27,-41,-26,-7,-9,-18,-12
17:29:47:737203,-8,-8,8,8,10,8,2,-3
17:29:47:743294,4,81,124,-22,-6,1,1,-21
17:29:47:758999,4,81,124,-22,-6,1,1,-21
17:29:47:759675,-3,-38,-14,-14,-13,-5,-3,-16
17:29:47:765687,-12,-20,-45,10,17,9,6,-56
17:29:47:781430,-12,-20,-45,10,17,9,6,-56
17:29:47:782260,0,-4,4,-13,-11,-13,-9,-27
17:29:47:788424,31,24,-54,-37,-10,-2,-1,44
17:29:47:796362,31,24,-54,-37,-10,-2,-1,44
17:29:47:797184,-10,-45,-16,-18,-8,-1,-12,-28
17:29:47:803226,-9,-17,125,13,-11,-4,3,-27
17:29:47:819032,-9,-17,125,13,-11,-4,3,-27
17:29:47:819720,0,-6,20,-5,13,3,-15,-38
17:29:47:833197,-9,-28,-23,4,1,3,4,-24
17:29:47:841556,-9,-28,-23,4,1,3,4,-24
17:29:47:842240,1,-20,-67,-11,-7,-10,-2,16
17:29:47:848193,30,54,-22,1,-14,-3,9,57
17:29:47:856475,30,54,-22,1,-14,-3,9,57
17:29:47:857173,0,47,-41,-28,-6,-2,-2,-15
17:29:47:863234,5,-2,-70,10,13,5,2,23
17:29:47:878972,5,-2,-70,10,13,5,2,23
17:29:47:879712,-3,-77,3,-5,6,4,-1,-15
17:29:47:885695,-21,-52,5,-4,-5,-2,-7,-7
17:29:47:901459,-21,-52,5,-4,-5,-2,-7,-7
17:29:47:902239,-36,-7,-31,89,88,27,9,18
17:29:47:908351,8,30,-21,-22,-29,-20,-12,-19
17:29:47:917026,8,30,-21,-22,-29,-20,-12,-19
17:29:47:917819,33,52,23,-17,-29,-7,8,18
17:29:47:923357,26,28,62,43,28,15,12,28
17:29:47:939077,26,28,62,43,28,15,12,28
17:29:47:939713,-2,20,-5,0,-12,-3,2,3
17:29:47:945681,-10,4,-74,-27,-14,0,1,-25
17:29:47:961416,-10,4,-74,-27,-14,0,1,-25
17:29:47:962190,-11,17,36,11,-9,-3,-6,24
17:29:47:968190,-18,-28,-1,-6,1,-2,1,17
17:29:47:976581,-18,-28,-1,-6,1,-2,1,17
17:29:47:977211,-5,7,-58,-13,-2,-5,-8,-18
17:29:47:983173,-7,-24,6,23,13,-3,-12,-9
17:29:47:998676,-7,-24,6,23,13,-3,-12,-9
17:29:48:13860,-9,-5,57,-33,-21,-7,-2,-17
17:29:48:14606,7,-41,20,-2,6,1,6,16
17:29:48:21433,7,-41,20,-2,6,1,6,16
17:29:48:22237,11,23,82,23,-2,0,-2,-49
17:29:48:37077,-6,34,-16,-24,-11,-3,-1,13
17:29:48:37859,-6,34,-16,-24,-11,-3,-1,13
17:29:48:38706,13,-35,-78,11,7,0,12,2
17:29:48:50744,12,63,22,23,17,-1,9,51
17:29:48:59034,12,63,22,23,17,-1,9,51
17:29:48:59745,3,7,19,-10,8,5,8,7
17:29:48:65725,-18,-69,-64,-21,3,3,-3,7
17:29:48:81390,-18,-69,-64,-21,3,3,-3,7
17:29:48:82191,12,27,-14,7,3,-3,1,26
17:29:48:88394,-14,-30,20,12,-11,-4,-5,-22
17:29:48:96447,-14,-30,20,12,-11,-4,-5,-22
17:29:48:97186,-8,-16,29,-24,-13,-5,-9,-55
17:29:48:111182,36,75,77,36,17,8,15,-38
17:29:48:118933,36,75,77,36,17,8,15,-38
17:29:48:119660,-21,-24,27,9,-5,-2,-3,1
17:29:48:125818,2,39,43,-2,-4,1,-1,14
17:29:48:141548,2,39,43,-2,-4,1,-1,14
17:29:48:142217,-18,-42,-40,8,16,1,-9,-44
17:29:48:148180,-10,-61,-71,-12,-7,2,-4,6
17:29:48:156547,-10,-61,-71,-12,-7,2,-4,6
17:29:48:157187,3,2,-51,-51,-35,-9,-9,15
17:29:48:170763,-12,-10,-15,0,5,-3,-1,5
17:29:48:178930,-12,-10,-15,0,5,-3,-1,5
17:29:48:179733,-3,6,-25,-10,-14,-3,7,-15
17:29:48:185710,-9,-54,-75,-12,-2,-1,-15,-11
17:29:48:210395,-9,-54,-75,-12,-2,-1,-15,-11
17:29:48:211059,-26,-32,15,-49,-30,-17,-16,-15
17:29:48:211875,-2,59,103,15,9,8,-2,-12
17:29:48:216422,-2,59,103,15,9,8,-2,-12
17:29:48:217215,17,35,40,37,27,6,6,-8
17:29:48:239431,-12,-31,21,-24,-21,-6,-5,-5
17:29:48:240156,-12,-31,21,-24,-21,-6,-5,-5
17:29:48:246382,8,-6,5,23,13,-1,-1,22
17:29:48:247174,7,62,15,20,6,1,7,11
17:29:48:253260,7,62,15,20,6,1,7,11
17:29:48:260796,-7,-13,-9,24,7,3,-8,-7
17:29:48:268156,8,-35,-72,-25,-5,-6,5,58
17:29:48:276533,8,-35,-72,-25,-5,-6,5,58
17:29:48:277244,-17,-24,-36,-16,-7,3,-6,-13
17:29:48:290800,12,22,-5,25,11,5,-6,-17
17:29:48:298944,12,22,-5,25,11,5,-6,-17
17:29:48:299689,9,65,47,13,3,5,8,18
17:29:48:305820,-19,-15,-7,-32,-23,-14,-9,2
17:29:48:313264,-19,-15,-7,-32,-23,-14,-9,2
17:29:48:320753,-15,-41,-97,-52,-17,-8,-7,-1
17:29:48:328179,8,50,94,-12,-13,0,2,-4
17:29:48:336421,8,50,94,-12,-13,0,2,-4
17:29:48:337206,14,1,66,19,0,-2,2,21
17:29:48:350696,-11,-12,-37,-14,-9,-4,0,-9
17:29:48:367043,-11,-12,-37,-14,-9,-4,0,-9
17:29:48:367847,-18,7,40,-5,5,1,-6,6
17:29:48:368670,9,0,27,35,11,-1,-13,-36
17:29:48:373328,9,0,27,35,11,-1,-13,-36
17:29:48:380674,9,-13,-73,10,5,2,6,-19
17:29:48:388470,11,13,-15,-48,7,7,4,11
17:29:48:396424,11,13,-15,-48,7,7,4,11
17:29:48:397221,15,-5,40,5,-5,-1,-1,24
17:29:48:419541,-3,-11,-20,19,7,-2,-1,-14
17:29:48:420321,-3,-11,-20,19,7,-2,-1,-14
17:29:48:421121,10,28,-20,7,1,1,4,15
17:29:48:425810,-12,-13,51,8,-1,-1,1,2
17:29:48:433235,-12,-13,51,8,-1,-1,1,2
17:29:48:440841,-10,39,83,7,-13,-16,-21,-64
17:29:48:448225,-6,-6,10,16,5,4,4,-7
17:29:48:456605,-6,-6,10,16,5,4,4,-7
17:29:48:457181,4,11,-38,4,2,-1,6,-12
17:29:48:470776,5,20,66,34,9,1,-4,9
17:29:48:478930,5,20,66,34,9,1,-4,9
17:29:48:479679,8,3,36,-17,10,11,12,56
17:29:48:494087,-1,-14,16,-21,-28,-9,-6,-47
17:29:48:494678,-1,-14,16,-21,-28,-9,-6,-47
17:29:48:500715,-18,-22,-1,-10,-4,-4,0,1
17:29:48:508354,-7,-26,-81,-5,-10,-7,2,19
17:29:48:516427,-7,-26,-81,-5,-10,-7,2,19
17:29:48:517186,-6,-37,-23,19,-26,-6,3,2
17:29:48:530733,-4,52,3,5,-4,-3,-12,-67
17:29:48:539021,-4,52,3,5,-4,-3,-12,-67
17:29:48:539705,-12,-16,-82,-42,-11,3,7,59
17:29:48:545740,-6,-15,34,7,15,4,3,18
17:29:48:553260,-6,-15,34,7,15,4,3,18
17:29:48:568907,-5,10,46,-26,-23,-9,-11,-24
17:29:48:569652,-8,5,-36,-9,10,4,0,-5
17:29:48:576540,-8,5,-36,-9,10,4,0,-5
17:29:48:577193,8,24,84,27,8,0,6,13
17:29:48:590794,-6,-35,-18,54,15,0,-3,-41
17:29:48:598890,-6,-35,-18,54,15,0,-3,-41
17:29:48:599657,8,28,15,29,18,3,-2,-59
17:29:48:605865,-8,23,58,-5,2,-2,0,-7
17:29:48:613230,-8,23,58,-5,2,-2,0,-7
17:29:48:620786,13,0,-89,2,7,-4,-16,-19
17:29:48:628246,8,13,-2,-43,-7,0,5,29
17:29:48:644116,8,13,-2,-43,-7,0,5,29
17:29:48:644679,17,9,30,-8,8,-1,-4,13
17:29:48:650690,-1,-39,-8,-1,-7,-5,-6,30
17:29:48:667086,-1,-39,-8,-1,-7,-5,-6,30
17:29:48:667890,-16,-61,-79,-23,-14,-7,-3,10
17:29:48:668713,-1,8,-23,-11,-12,1,13,58
17:29:48:673353,-1,8,-23,-11,-12,1,13,58
17:29:48:680738,48,100,96,51,21,6,6,22
17:29:48:697022,1,-3,-7,-10,6,0,-10,-27
17:29:48:697849,1,-3,-7,-10,6,0,-10,-27
17:29:48:698627,-8,-11,-28,2,0,6,3,-1
17:29:48:710800,0,-4,-17,-4,-15,-6,6,0
17:29:48:718999,0,-4,-17,-4,-15,-6,6,0
17:29:48:719715,-1,17,36,35,31,13,4,26
17:29:48:725831,-28,-111,-85,-75,-6,-5,-9,-16
17:29:48:733270,-28,-111,-85,-75,-6,-5,-9,-16
17:29:48:740880,-17,-42,-56,-45,-22,-3,-2,-11
17:29:48:748212,0,-26,27,48,26,5,-2,-4
17:29:48:756579,0,-26,27,48,26,5,-2,-4
17:29:48:757178,-10,11,64,14,19,3,4,8
17:29:48:771184,38,51,94,17,-2,-7,-2,1
17:29:48:778959,38,51,94,17,-2,-7,-2,1
17:29:48:779712,-3,-33,-58,-14,-1,-2,-10,-9
17:29:48:785679,21,27,-18,4,1,4,3,26
17:29:48:793359,21,27,-18,4,1,4,3,26
17:29:48:800732,15,86,70,23,-11,-8,-8,-27
17:29:48:808393,-28,0,-22,11,5,4,3,-1
17:29:48:816385,-28,0,-22,11,5,4,3,-1
17:29:48:817194,-26,-16,-40,-7,-2,-5,0,-3
17:29:48:830719,-1,0,-29,-20,-32,-5,0,-9
17:29:48:847095,-1,0,-29,-20,-32,-5,0,-9
17:29:48:847879,9,-7,63,-33,-22,-1,6,25
17:29:48:848691,-5,-31,-51,-26,-21,-10,-12,-1
17:29:48:853218,-5,-31,-51,-26,-21,-10,-12,-1
17:29:48:868958,3,-9,4,-10,10,10,2,12
17:29:48:869651,3,25,65,24,31,13,13,26
17:29:48:876522,3,25,65,24,31,13,13,26
17:29:48:877207,-10,23,49,12,0,-7,-9,-47
17:29:48:899565,-1,4,0,68,54,16,-2,-20
17:29:48:900380,-1,4,0,68,54,16,-2,-20
17:29:48:901166,-6,-63,-117,-30,-15,-7,2,22
17:29:48:905848,34,-25,-43,-5,-10,-13,-12,-58
17:29:48:921617,34,-25,-43,-5,-10,-13,-12,-58
17:29:48:922264,-2,-1,3,0,-9,3,6,-16
17:29:48:944563,-4,35,-17,-17,-8,-6,4,47
17:29:48:945358,-4,35,-17,-17,-8,-6,4,47
17:29:48:946180,-9,-31,-46,-3,12,-2,-5,-3
17:29:48:950679,16,47,30,11,-5,2,12,14
17:29:48:959085,16,47,30,11,-5,2,12,14
17:29:48:959707,-4,10,-31,-8,-3,0,0,5
17:29:48:974451,-23,-43,10,-7,-13,-4,1,45
17:29:48:975151,-23,-43,10,-7,-13,-4,1,45
17:29:48:980709,7,16,10,23,7,-1,-1,5
17:29:48:988374,-11,29,72,-9,-19,-2,10,46
17:29:48:995779,-11,29,72,-9,-19,-2,10,46
17:29:49:3204,-14,27,7,-20,-8,-8,-7,-10
17:29:49:10750,4,13,-19,-1,-4,-1,1,8
17:29:49:18881,4,13,-19,-1,-4,-1,1,8
17:29:49:19653,14,-21,24,12,3,-1,-5,8
17:29:49:33868,7,15,-9,-29,-14,3,9,-3
17:29:49:34731,7,15,-9,-29,-14,3,9,-3
17:29:49:48872,-9,-59,2,17,22,8,-1,-10
17:29:49:49659,-42,-73,-93,-18,-9,-10,-9,-37
17:29:49:55921,-42,-73,-93,-18,-9,-10,-9,-37
17:29:49:71507,0,46,35,12,20,5,-3,-14
17:29:49:72188,-8,-2,-80,-16,3,1,-18,-27
17:29:49:78918,-8,-2,-80,-16,3,1,-18,-27
17:29:49:79688,4,39,61,10,2,-2,2,20
17:29:49:94029,-8,7,14,-9,-8,-4,-8,-69
17:29:49:94685,-8,7,14,-9,-8,-4,-8,-69
17:29:49:100683,11,12,-10,-3,-2,1,6,12
17:29:49:108249,15,-34,53,4,2,-3,-3,33
17:29:49:115749,15,-34,53,4,2,-3,-3,33
17:29:49:123231,-9,14,15,0,-3,-5,-12,-26
17:29:49:130683,17,-34,27,3,1,3,12,36
17:29:49:139091,17,-34,27,3,1,3,12,36
17:29:49:139699,4,0,-30,-43,-29,-11,-6,0
17:29:49:153904,-9,16,11,38,2,-4,-5,-60
17:29:49:154726,-9,16,11,38,2,-4,-5,-60
17:29:49:160742,3,-41,-75,14,-12,-4,-2,4
17:29:49:176515,3,30,3,-7,0,-1,1,-45
17:29:49:177210,3,30,3,-7,0,-1,1,-45
17:29:49:183167,-20,18,44,-5,-16,-3,1,-25
17:29:49:190800,21,19,-49,-24,3,2,-13,-16
17:29:49:198878,21,19,-49,-24,3,2,-13,-16
17:29:49:199696,9,26,21,2,-9,-1,0,20
17:29:49:222363,-21,-31,-8,46,32,6,-1,15
17:29:49:222827,-21,-31,-8,46,32,6,-1,15
17:29:49:223683,-6,-55,-29,-33,-7,-4,2,1
17:29:49:228158,-22,4,27,-9,-16,-6,-8,12
17:29:49:235767,-22,4,27,-9,-16,-6,-8,12
17:29:49:243326,0,-15,21,3,-2,1,2,-10
17:29:49:250662,8,80,68,-8,-6,-1,8,18
17:29:49:259000,8,80,68,-8,-6,-1,8,18
17:29:49:259746,6,-54,-77,-18,-7,-9,-7,-14
17:29:49:273989,-26,-60,-42,-7,-4,6,-4,-37
17:29:49:274721,-26,-60,-42,-7,-4,6,-4,-37
17:29:49:280670,4,0,40,17,8,6,6,5
17:29:49:288404,11,14,19,13,-2,2,5,11
