Time,EMG1,EMG2,EMG3,EMG4,EMG5,EMG6,EMG7,EMG8
17:15:20:792852,-1,-4,-1,2,0,-3,5,-3
17:15:20:800451,-1,-4,-1,2,0,-3,5,-3
17:15:20:807876,-1,1,-7,-2,0,0,-2,-1
17:15:20:815354,-3,0,-2,1,-4,-1,-8,1
17:15:20:823647,-3,0,-2,1,-4,-1,-8,1
17:15:20:824407,0,-1,1,-1,-3,-2,-3,-5
17:15:20:838587,-3,-4,4,0,-5,3,-1,-4
17:15:20:839389,-3,-4,4,0,-5,3,-1,-4
17:15:20:845368,-5,-1,1,1,6,-5,-2,0
17:15:20:852883,2,0,-6,-1,2,-5,1,0
17:15:20:860464,2,0,-6,-1,2,-5,1,0
17:15:20:867864,1,-4,2,-2,-1,2,1,-1
17:15:20:875416,-1,-2,-4,-2,0,2,0,-1
17:15:20:883589,-1,-2,-4,-2,0,2,0,-1
17:15:20:884350,1,1,0,1,2,2,-2,-1
17:15:20:898628,-4,0,-2,0,0,-1,-3,-4
17:15:20:899414,-4,0,-2,0,0,-1,-3,-4
17:15:20:905400,-4,0,-3,-2,-3,-5,-3,3
17:15:20:912906,4,0,-2,0,3,3,-4,1
17:15:20:920407,4,0,-2,0,3,3,-4,1
17:15:20:927959,-2,-1,-2,-1,-2,-2,3,-5
17:15:20:944284,2,0,0,-6,-5,-2,4,2
17:15:20:945056,2,0,0,-6,-5,-2,4,2
17:15:20:945856,-1,0,-4,-1,-4,2,-4,2
17:15:20:958598,-3,-3,1,1,0,-1,4,-6
17:15:20:959410,-3,-3,1,1,0,-1,4,-6
17:15:20:965382,-1,-2,2,2,-7,-2,-5,-5
17:15:20:972915,3,-1,-6,-1,3,-4,-8,-2
17:15:20:980421,3,-1,-6,-1,3,-4,-8,-2
17:15:20:987899,1,-1,1,-4,8,0,3,-1
17:15:20:995378,-4,0,2,-3,-2,3,-1,0
17:15:21:3561,-4,0,2,-3,-2,3,-1,0
17:15:21:4375,-1,-2,-2,-7,-5,-2,2,-1
17:15:21:18530,-4,0,1,2,1,0,0,1
17:15:21:19370,-4,0,1,2,1,0,0,1
17:15:21:25409,-2,2,-2,3,-5,-2,-2,5
17:15:21:32872,-4,-2,1,-1,-1,-1,-2,-4
17:15:21:48553,-4,-2,1,-1,-1,-1,-2,-4
17:15:21:49337,-1,-1,-5,-3,3,3,2,-5
17:15:21:56040,-1,-1,2,-1,-3,-2,-1,-2
17:15:21:56969,-1,-1,2,-1,-3,-2,-1,-2
17:15:21:62975,-2,-7,4,-1,0,-6,-4,0
17:15:21:78573,1,1,-3,-2,-7,-4,2,-3
17:15:21:79370,1,1,-3,-2,-7,-4,2,-3
17:15:21:85378,0,1,-3,-1,-4,3,-5,-2
17:15:21:92929,0,-4,0,2,3,3,-3,0
17:15:21:100409,0,-4,0,2,3,3,-3,0
17:15:21:117373,-2,0,3,-2,0,-1,3,5
17:15:21:118135,-3,1,-3,-2,0,-5,-2,0
17:15:21:118989,-3,1,-3,-2,0,-5,-2,0
17:15:21:122965,1,2,0,0,1,4,3,-4
17:15:21:138616,0,-2,-3,1,1,-2,1,2
17:15:21:139409,0,-2,-3,1,1,-2,1,2
17:15:21:145398,-4,-1,-5,-2,-7,-5,-1,-1
17:15:21:152902,-2,-3,-1,-5,-3,1,-1,-1
17:15:21:160401,-2,-3,-1,-5,-3,1,-1,-1
17:15:21:167895,0,-5,0,-2,-2,-1,-6,-3
17:15:21:176068,1,0,-1,0,1,-4,0,-4
17:15:21:176937,1,0,-1,0,1,-4,0,-4
17:15:21:182826,6,2,-2,0,2,4,-1,1
17:15:21:198531,-2,3,-1,-1,-4,3,2,0
17:15:21:199328,-2,3,-1,-1,-4,3,2,0
17:15:21:205427,-2,-4,2,-2,-3,-5,-1,-1
17:15:21:221762,-1,-1,0,-1,-5,-1,-2,3
17:15:21:222547,-1,-1,0,-1,-5,-1,-2,3
17:15:21:227891,-2,-5,-4,-1,-1,-2,1,-1
17:15:21:236074,0,2,-2,-2,2,-34,2,-3
17:15:21:236862,0,2,-2,-2,2,-34,2,-3
17:15:21:242910,0,-2,-5,0,2,-28,-7,1
17:15:21:258603,-1,-4,1,-1,-1,8,-1,1
17:15:21:259409,-1,-4,1,-1,-1,8,-1,1
17:15:21:265376,-4,1,1,-4,-5,12,0,0
17:15:21:272901,1,-3,-2,0,-3,19,-3,-1
17:15:21:280408,1,-3,-2,0,-3,19,-3,-1
17:15:21:287885,1,3,3,3,0,13,0,-5
17:15:21:296067,0,0,-5,-4,1,7,0,0
17:15:21:296954,0,0,-5,-4,1,7,0,0
17:15:21:302847,-3,-4,-1,2,3,2,-1,-2
17:15:21:318535,-5,-2,3,-1,-2,-5,-1,0
17:15:21:319355,-5,-2,3,-1,-2,-5,-1,0
17:15:21:325382,-3,-3,1,0,-1,3,-1,-2
17:15:21:332901,1,-1,-1,-5,2,1,-3,-1
17:15:21:340414,1,-1,-1,-5,2,1,-3,-1
17:15:21:347838,-3,-1,1,-1,-1,-1,-7,1
17:15:21:356083,-2,2,-2,5,-4,1,-5,2
17:15:21:356963,-2,2,-2,5,-4,1,-5,2
17:15:21:362840,3,-2,1,-2,-3,-4,7,3
17:15:21:378617,1,-6,0,-6,0,-2,6,-2
17:15:21:379386,1,-6,0,-6,0,-2,6,-2
17:15:21:393596,-1,-1,-2,1,1,2,-4,-5
17:15:21:394358,-2,1,1,-2,-2,-3,-2,-2
17:15:21:400424,-2,1,1,-2,-2,-3,-2,-2
17:15:21:407837,1,3,-6,0,2,-7,-3,1
17:15:21:424225,-2,-3,-4,-3,0,-1,-1,-1
17:15:21:425028,-2,-3,-4,-3,0,-1,-1,-1
17:15:21:425816,0,-4,-3,-5,-5,3,4,-2
17:15:21:438595,-2,1,-2,1,0,-5,-1,-2
17:15:21:439411,-2,1,-2,1,0,-5,-1,-2
17:15:21:445414,-1,1,3,-1,3,-2,-1,-2
17:15:21:452886,2,-1,-1,-2,1,-4,-4,-3
17:15:21:460374,2,-1,-1,-2,1,-4,-4,-3
17:15:21:467883,-3,-1,0,2,-4,-5,0,-1
17:15:21:476076,-6,-3,5,-1,-4,-3,0,-4
17:15:21:476874,-6,-3,5,-1,-4,-3,0,-4
17:15:21:482831,4,-4,-4,-2,1,4,-5,0
17:15:21:498523,3,0,-4,1,-2,3,-6,-1
17:15:21:499356,3,0,-4,1,-2,3,-6,-1
17:15:21:505411,-3,-1,2,-1,-8,-3,-2,-1
17:15:21:512896,-7,-1,1,-1,-6,3,0,1
17:15:21:528610,-7,-1,1,-1,-6,3,0,1
17:15:21:529421,0,-1,-2,-1,0,-7,5,-1
17:15:21:536038,1,2,-4,2,1,-4,2,5
17:15:21:536851,1,2,-4,2,1,-4,2,5
17:15:21:542876,1,-1,-3,-3,5,-1,-4,1
17:15:21:566742,0,-2,3,-4,-3,1,1,-2
17:15:21:567533,0,-2,3,-4,-3,1,1,-2
17:15:21:568326,-1,2,-1,-1,0,-1,-1,-5
17:15:21:572857,-1,-1,-5,-2,2,-5,-3,-3
17:15:21:580437,-1,-1,-5,-2,2,-5,-3,-3
17:15:21:587890,-4,-2,-1,-2,-1,0,-1,-3
17:15:21:596063,1,1,-1,-1,1,2,1,1
17:15:21:596853,1,1,-1,-1,1,2,1,1
17:15:21:602887,0,-1,-3,-1,-3,0,-5,3
17:15:21:618593,2,-5,3,1,-2,1,-5,-1
17:15:21:619396,2,-5,3,1,-2,1,-5,-1
17:15:21:633540,-2,-1,-3,-1,5,-2,0,-3
17:15:21:634306,-2,-5,-1,-3,-1,2,3,-1
17:15:21:640414,-2,-5,-1,-3,-1,2,3,-1
17:15:21:647857,-6,-2,0,-2,-4,1,-1,-3
17:15:21:656093,0,4,-4,1,-4,-7,1,1
17:15:21:656980,0,4,-4,1,-4,-7,1,1
17:15:21:662879,-3,1,-1,-3,-3,0,-4,-1
17:15:21:678573,1,-2,0,1,2,5,-3,-5
17:15:21:679399,1,-2,0,1,2,5,-3,-5
17:15:21:685367,0,-3,3,3,1,-5,0,-1
17:15:21:701044,-1,-2,-1,0,1,-1,-1,1
17:15:21:701947,-1,-2,-1,0,1,-1,-1,1
17:15:21:707847,1,-1,-4,-2,1,-4,-6,-2
17:15:21:716067,-2,0,-3,-3,-5,-5,-3,3
17:15:21:716960,-2,0,-3,-3,-5,-5,-3,3
17:15:21:739225,-2,-2,3,2,-3,4,-2,-2
17:15:21:739992,-4,1,-2,-4,-3,0,6,-3
17:15:21:740831,-4,1,-2,-4,-3,0,6,-3
17:15:21:745384,1,-1,-5,-4,0,-1,3,1
17:15:21:761023,0,-1,1,-1,3,3,-6,-5
17:15:21:761851,0,-1,1,-1,3,3,-6,-5
17:15:21:767868,2,0,0,-2,4,2,2,-3
17:15:21:776009,-4,0,-4,-3,-6,0,-5,0
17:15:21:776859,-4,0,-4,-3,-6,0,-5,0
17:15:21:790392,-3,0,0,-1,-4,1,0,3
17:15:21:806749,1,-5,-2,0,0,-3,1,-3
17:15:21:807566,1,-5,-2,0,0,-3,1,-3
17:15:21:808369,0,0,-6,-1,0,-6,2,3
17:15:21:821066,1,-1,3,0,-3,-6,0,2
17:15:21:821956,1,-1,3,0,-3,-6,0,2
17:15:21:827844,-2,0,-5,0,-4,2,3,-3
17:15:21:843566,-3,-4,-3,0,0,3,-4,-3
17:15:21:844388,-3,-4,-3,0,0,3,-4,-3
17:15:21:850376,0,-1,5,2,3,-4,-5,1
17:15:21:858579,0,-1,5,2,3,-4,-5,1
17:15:21:859380,-1,-1,-2,0,5,-6,-1,-2
17:15:21:865338,0,-1,1,-3,-4,-3,0,-4
17:15:21:881119,0,-1,1,-3,-4,-3,0,-4
17:15:21:881943,1,-1,-3,-3,-5,2,0,-2
17:15:21:887857,-5,-1,-4,-5,3,-3,0,-2
17:15:21:896104,-5,-1,-4,-5,3,-3,0,-2
17:15:21:896948,-4,-2,0,1,-1,0,-3,1
17:15:21:910336,2,-1,-3,1,-2,2,1,3
17:15:21:918570,2,-1,-3,1,-2,2,1,3
17:15:21:919370,1,2,-2,2,5,-6,-2,-3
17:15:21:925350,1,0,2,3,-5,-3,-9,-5
17:15:21:949280,1,0,2,3,-5,-3,-9,-5
17:15:21:950035,3,0,2,-5,-4,4,6,4
17:15:21:950956,-7,-4,-2,-2,0,3,0,0
17:15:21:956198,-7,-4,-2,-2,0,3,0,0
17:15:21:956855,-8,-3,0,-4,-6,1,0,-2
17:15:21:979247,0,-1,-1,-6,-2,0,-1,-5
17:15:21:980047,0,-1,-1,-6,-2,0,-1,-5
17:15:21:980844,4,-2,-4,4,0,-4,0,-3
17:15:21:985346,-1,1,-4,0,7,-2,-1,-1
17:15:22:1098,-1,1,-4,0,7,-2,-1,-1
17:15:22:1950,-1,-2,-4,-5,2,1,-2,1
17:15:22:16701,2,0,4,3,-7,-2,0,3
17:15:22:17524,2,0,4,3,-7,-2,0,3
17:15:22:18345,-2,-1,1,-2,-1,1,-4,0
17:15:22:30389,-1,-1,0,1,-6,-2,2,-2
17:15:22:38554,-1,-1,0,1,-6,-2,2,-2
17:15:22:39347,-3,-1,-2,3,2,1,-1,-2
17:15:22:52954,-2,-3,-2,-10,0,-2,-5,-1
17:15:22:61044,-2,-3,-2,-10,0,-2,-5,-1
17:15:22:61833,-3,0,-1,-2,1,-3,-2,-3
17:15:22:67885,0,-3,0,-1,-1,3,-1,-3
17:15:22:83635,0,-3,0,-1,-1,3,-1,-3
17:15:22:84388,-3,-1,-1,4,-6,-1,3,-1
17:15:22:90385,4,0,-3,-2,3,0,0,-2
17:15:22:98581,4,0,-3,-2,3,0,0,-2
17:15:22:99374,3,-1,-1,-4,-1,-4,2,2
17:15:22:105361,-5,-1,-2,-1,-3,-3,-3,1
17:15:22:121153,-5,-1,-2,-1,-3,-3,-3,1
17:15:22:121951,-4,0,-3,1,3,2,-3,-2
17:15:22:127875,-1,-2,-3,0,-1,-5,2,-2
17:15:22:136068,-1,-2,-3,0,-1,-5,2,-2
17:15:22:136857,-2,-1,-2,-3,-5,-2,-4,-4
17:15:22:150376,-2,-2,-3,2,0,3,-4,-1
17:15:22:158597,-2,-2,-3,2,0,3,-4,-1
17:15:22:159384,0,-3,-1,0,-2,-2,-2,-1
17:15:22:165379,3,0,-2,-1,-7,-1,2,0
17:15:22:189233,3,0,-2,-1,-7,-1,2,0
17:15:22:190013,0,-1,-2,-2,2,-1,-4,-2
17:15:22:190812,-6,-2,-5,-3,-1,-2,3,1
17:15:22:196111,-6,-2,-5,-3,-1,-2,3,1
17:15:22:196947,0,1,0,-1,0,-1,1,0
17:15:22:210406,0,1,4,-4,-2,3,-3,5
17:15:22:226747,0,1,4,-4,-2,3,-3,5
17:15:22:227494,-2,1,4,1,0,-3,-1,0
17:15:22:228319,-4,-2,-2,-1,0,-3,0,-3
17:15:22:241118,-4,-2,-2,-1,0,-3,0,-3
17:15:22:241949,-3,-2,0,-2,4,2,-5,-1
17:15:22:256743,2,2,-1,0,0,-2,2,0
17:15:22:257552,2,2,-1,0,0,-2,2,0
17:15:22:258372,0,-1,-1,3,-2,-8,-2,1
17:15:22:270350,0,-3,-2,0,1,0,-7,-4
17:15:22:278584,0,-3,-2,0,1,0,-7,-4
17:15:22:279396,0,-2,0,-3,-1,4,-3,-1
17:15:22:292934,0,-4,4,1,-4,-6,-1,-5
17:15:22:301066,0,-4,4,1,-4,-6,-1,-5
17:15:22:301893,0,-1,-2,1,-6,-3,2,0
17:15:22:307853,-4,2,-2,1,-1,5,0,1
17:15:22:316109,-4,2,-2,1,-1,5,0,1
17:15:22:316948,0,1,-6,-1,0,1,0,-1
17:15:22:330348,1,-3,-5,1,2,-3,3,-3
17:15:22:338607,1,-3,-5,1,2,-3,3,-3
17:15:22:339367,1,-3,6,-3,0,-5,1,1
17:15:22:345370,1,-2,1,-1,2,-4,-7,-3
17:15:22:361557,1,-2,1,-1,2,-4,-7,-3
17:15:22:362354,-6,3,-1,2,3,2,2,-2
17:15:22:376719,-3,1,-5,-6,-7,2,1,1
17:15:22:377514,-3,1,-5,-6,-7,2,1,1
17:15:22:378307,-3,-5,-4,-2,-5,-1,-2,-2
17:15:22:399230,2,0,3,1,1,-5,0,-2
17:15:22:400050,2,0,3,1,1,-5,0,-2
17:15:22:400856,5,-4,2,-1,0,-1,-3,-7
17:15:22:412874,0,-1,3,-2,4,0,4,5
17:15:22:421101,0,-1,3,-2,4,0,4,5
17:15:22:421947,-5,-1,-9,-3,-5,0,2,2
17:15:22:427894,-2,1,0,-1,-5,5,-5,0
17:15:22:436104,-2,1,0,-1,-5,5,-5,0
17:15:22:436953,2,0,5,0,-1,0,-7,-2
17:15:22:450393,-2,-5,-3,1,-1,-3,0,-3
17:15:22:466738,-2,-5,-3,1,-1,-3,0,-3
17:15:22:467552,-4,2,-3,-1,1,-1,4,-2
17:15:22:468336,-4,2,4,-1,-2,0,-1,5
17:15:22:481568,-4,2,4,-1,-2,0,-1,5
17:15:22:482324,1,-1,-3,2,-2,-1,-3,1
17:15:22:487836,-3,-4,-4,-2,-2,-1,-3,-5
17:15:22:503552,-3,-4,-4,-2,-2,-1,-3,-5
17:15:22:504373,0,-2,-1,-4,1,-3,2,-2
17:15:22:510397,-2,-2,2,2,0,-1,-2,5
17:15:22:518589,-2,-2,2,2,0,-1,-2,5
17:15:22:519359,-1,-2,-4,-1,2,-3,-1,0
17:15:22:532910,1,-2,-2,-1,2,0,0,-4
17:15:22:541051,1,-2,-2,-1,2,0,0,-4
17:15:22:541866,3,1,1,-1,-3,1,-4,-6
17:15:22:547914,2,1,-1,-3,-5,0,1,-2
17:15:22:556088,2,1,-1,-3,-5,0,1,-2
17:15:22:556835,-3,-4,-2,-3,-1,-4,-2,0
17:15:22:570841,-3,-3,-3,-1,-2,-2,-4,0
17:15:22:578544,-3,-3,-3,-1,-2,-2,-4,0
17:15:22:579381,2,1,1,-3,-4,3,1,3
17:15:22:585401,-2,-1,-2,-2,-2,-3,-4,-3
17:15:22:609288,-2,-1,-2,-2,-2,-3,-4,-3
17:15:22:610032,-5,-3,-1,0,3,1,-1,1
17:15:22:610870,-1,0,-3,0,3,-1,-1,2
17:15:22:616103,-1,0,-3,0,3,-1,-1,2
17:15:22:616983,3,-2,-4,-2,-9,-4,3,0
17:15:22:630401,-1,2,-5,0,-2,0,2,1
17:15:22:638605,-1,2,-5,0,-2,0,2,1
17:15:22:639383,-2,-2,-1,-3,0,-2,-4,1
17:15:22:652829,-5,-2,4,-3,-2,0,-4,-2
17:15:22:661080,-5,-2,4,-3,-2,0,-4,-2
17:15:22:661952,-3,-1,0,1,4,-2,0,1
17:15:22:667895,1,-2,-3,-1,-1,1,3,-2
17:15:22:675444,1,-2,-3,-1,-1,1,3,-2
17:15:22:682882,0,2,2,2,-6,3,-7,-6
17:15:22:690358,0,1,1,-2,-2,-2,2,-3
17:15:22:698556,0,1,1,-2,-2,-2,2,-3
17:15:22:699352,0,0,-2,-1,4,-5,-1,-1
17:15:22:712882,3,-3,-2,6,3,-3,3,-7
17:15:22:721111,3,-3,-2,6,3,-3,3,-7
17:15:22:721934,-4,-5,-3,-4,-5,1,0,1
17:15:22:727873,-2,2,-3,-3,-3,-3,-5,5
17:15:22:743604,-2,2,-3,-3,-3,-3,-5,5
17:15:22:744376,4,1,-3,1,0,1,-4,-2
17:15:22:750372,0,1,4,-2,-1,-7,-4,-4
17:15:22:758588,0,1,4,-2,-1,-7,-4,-4
17:15:22:759363,-5,-2,4,-3,-1,-4,-1,0
17:15:22:772873,-4,-4,1,-1,0,2,2,3
17:15:22:781104,-4,-4,1,-1,0,2,2,3
17:15:22:782045,0,-4,0,0,-4,1,6,1
17:15:22:787854,1,-1,-4,-3,3,-6,-4,-2
17:15:22:795471,1,-1,-4,-3,3,-6,-4,-2
17:15:22:811039,-1,-1,-1,-1,-2,0,-3,-2
17:15:22:811797,-3,-3,4,-3,-5,0,0,-2
17:15:22:818604,-3,-3,4,-3,-5,0,0,-2
17:15:22:819377,0,3,-4,4,1,3,2,1
17:15:22:832860,0,2,-1,-2,-1,0,-5,-3
17:15:22:841087,0,2,-1,-2,-1,0,-5,-3
17:15:22:841882,-2,2,2,0,4,-5,-5,0
17:15:22:847852,-2,-1,0,-4,0,3,5,-4
17:15:22:855432,-2,-1,0,-4,0,3,5,-4
17:15:22:862876,-1,3,-2,1,0,6,10,-1
17:15:22:870387,-3,-3,-2,-3,-8,-2,3,-1
17:15:22:878612,-3,-3,-2,-3,-8,-2,3,-1
17:15:22:879393,0,-5,-3,2,-4,-3,-10,2
17:15:22:892865,2,-1,-5,1,4,0,-3,-1
17:15:22:901093,2,-1,-5,1,4,0,-3,-1
17:15:22:901960,3,1,1,-3,-1,-7,0,-2
17:15:22:907861,-2,-1,-4,-6,2,-6,1,-1
17:15:22:915467,-2,-1,-4,-6,2,-6,1,-1
17:15:22:922873,-5,-1,2,-3,1,3,0,-2
17:15:22:939243,2,-1,0,1,-4,5,4,1
17:15:22:940068,2,-1,0,1,-4,5,4,1
17:15:22:940859,-2,-1,-1,-2,-3,-6,-5,0
17:15:22:952862,3,-2,-6,-2,0,-3,-7,-4
17:15:22:961076,3,-2,-6,-2,0,-3,-7,-4
17:15:22:961964,1,-3,-6,-5,2,-1,0,-1
17:15:22:976066,-3,2,1,2,-4,-2,-3,1
17:15:22:977104,-3,2,1,2,-4,-2,-3,1
17:15:22:982858,0,2,4,6,-5,-2,4,-3
17:15:22:990350,-2,-2,-7,-18,2,-5,-5,1
17:15:22:998599,-2,-2,-7,-18,2,-5,-5,1
17:15:22:999381,-2,-3,-5,-2,-1,-2,-7,-2
17:15:23:13298,-5,-4,2,5,-3,1,4,1
17:15:23:21074,-5,-4,2,5,-3,1,4,1
17:15:23:21854,0,0,0,-1,-2,1,-3,-5
17:15:23:27871,0,3,-4,5,2,2,-2,-1
17:15:23:35408,0,3,-4,5,2,2,-2,-1
17:15:23:42873,-1,-1,-1,2,2,0,-2,-2
17:15:23:50371,1,-4,1,0,-3,-5,0,-1
17:15:23:58610,1,-4,1,0,-3,-5,0,-1
17:15:23:59408,-5,-2,-3,-5,-1,0,0,-2
17:15:23:73343,5,2,1,-2,-2,2,3,-2
17:15:23:89235,5,2,1,-2,-2,2,3,-2
17:15:23:90037,4,3,2,1,2,-1,-5,3
17:15:23:90830,-3,-1,-1,-3,-5,1,3,4
17:15:23:95424,-3,-1,-1,-3,-5,1,3,4
17:15:23:102857,-2,-1,2,2,1,-7,-3,1
17:15:23:110376,-6,1,-2,3,0,-2,-1,-6
17:15:23:118623,-6,1,-2,3,0,-2,-1,-6
17:15:23:119366,-2,-2,-2,1,5,-1,0,1
17:15:23:132846,0,-1,-4,-13,-1,-1,-6,-5
17:15:23:141128,0,-1,-4,-13,-1,-1,-6,-5
17:15:23:141872,0,-4,-3,3,-10,0,-2,-3
17:15:23:147824,0,-4,9,18,-4,0,-7,-1
17:15:23:155423,0,-4,9,18,-4,0,-7,-1
17:15:23:162891,0,-1,-9,-27,1,3,6,-4
17:15:23:170385,-1,3,-5,2,11,0,-1,2
17:15:23:178641,-1,3,-5,2,11,0,-1,2
17:15:23:179407,-1,-2,3,4,-5,1,3,0
17:15:23:192857,0,0,9,1,-5,-8,-3,-3
17:15:23:201154,0,0,9,1,-5,-8,-3,-3
17:15:23:201965,-3,1,4,12,-4,-4,-3,-2
17:15:23:207863,-2,-4,-5,10,8,3,-5,-2
17:15:23:215468,-2,-4,-5,10,8,3,-5,-2
17:15:23:222883,0,0,-1,-14,-4,-1,-1,-1
17:15:23:230367,5,2,-5,-6,-6,-1,3,4
17:15:23:238573,5,2,-5,-6,-6,-1,3,4
17:15:23:239363,0,-2,-11,-4,3,2,0,0
17:15:23:252901,-5,-2,8,2,-1,-2,-3,-6
17:15:23:261088,-5,-2,8,2,-1,-2,-3,-6
17:15:23:261954,-3,1,9,-18,-5,-9,-3,0
17:15:23:267882,-1,1,6,6,0,1,2,-1
17:15:23:275397,-1,1,6,6,0,1,2,-1
17:15:23:282896,1,-4,-10,-15,3,-1,-5,0
17:15:23:290425,-3,0,-5,-14,4,-5,-5,0
17:15:23:298570,-3,0,-5,-14,4,-5,-5,0
17:15:23:299349,2,2,11,15,-8,1,0,-1
17:15:23:312893,-2,-4,-11,3,-8,2,5,-1
17:15:23:321042,-2,-4,-11,3,-8,2,5,-1
17:15:23:321838,-3,0,-11,-8,-1,-3,-1,-4
17:15:23:327885,-3,-5,1,-5,-5,2,1,-3
17:15:23:335414,-3,-5,1,-5,-5,2,1,-3
17:15:23:342838,0,-1,3,10,-3,0,2,-2
17:15:23:350368,3,3,1,-29,1,-2,-9,-1
17:15:23:358301,3,3,1,-29,1,-2,-9,-1
17:15:23:365374,2,-5,-5,4,1,-1,2,1
17:15:23:372856,-3,-1,-2,10,-4,-4,-3,-2
17:15:23:381115,-3,-1,-2,10,-4,-4,-3,-2
17:15:23:381880,-7,-3,5,-1,-2,-1,-1,-2
17:15:23:387905,-3,-1,0,5,-2,-2,0,-1
17:15:23:395533,-3,-1,0,5,-2,-2,0,-1
17:15:23:402954,-2,-1,-2,10,1,0,-4,0
17:15:23:410402,1,0,-6,8,-6,-5,0,1
17:15:23:418599,1,0,-6,8,-6,-5,0,1
17:15:23:419378,-2,-2,3,24,1,-2,4,4
17:15:23:432897,2,0,-7,-5,3,3,5,2
17:15:23:441151,2,0,-7,-5,3,3,5,2
17:15:23:441975,3,-5,-14,-7,5,3,2,-1
17:15:23:456105,-7,-4,3,-2,-3,0,-7,-5
17:15:23:456980,-7,-4,3,-2,-3,0,-7,-5
17:15:23:470997,0,3,3,6,-4,0,-7,-5
17:15:23:471804,0,-2,-21,-33,-10,-3,3,0
17:15:23:478560,0,-2,-21,-33,-10,-3,3,0
17:15:23:479371,-5,0,6,-8,-2,-1,-4,-1
17:15:23:492911,2,-2,6,10,8,-2,1,1
17:15:23:501107,2,-2,6,10,8,-2,1,1
17:15:23:501891,2,-4,-9,-3,-3,-1,0,-2
17:15:23:507857,-4,4,25,23,-1,-1,-8,-3
17:15:23:515430,-4,4,25,23,-1,-1,-8,-3
17:15:23:522847,-2,3,-2,-2,1,3,-2,3
17:15:23:530340,4,2,11,24,2,-1,5,2
17:15:23:538612,4,2,11,24,2,-1,5,2
17:15:23:539389,-1,-3,12,3,-1,7,2,-1
17:15:23:553060,3,-3,-3,-2,-7,-4,0,2
17:15:23:561087,3,-3,-3,-2,-7,-4,0,2
17:15:23:561877,-2,0,-6,-34,6,-3,0,1
17:15:23:567858,-2,-2,-16,-14,2,0,-9,-4
17:15:23:575423,-2,-2,-16,-14,2,0,-9,-4
17:15:23:591016,-3,-3,-11,-1,-2,-3,-4,-7
17:15:23:591789,-3,-4,2,-48,-11,-5,1,-3
17:15:23:597966,-3,-4,2,-48,-11,-5,1,-3
17:15:23:605344,1,0,-4,-18,-10,-3,0,2
17:15:23:612818,0,0,0,27,7,1,1,-1
17:15:23:621100,0,0,0,27,7,1,1,-1
17:15:23:621969,1,3,7,4,3,3,-1,0
17:15:23:635860,0,-3,7,19,0,0,2,-1
17:15:23:643572,0,-3,7,19,0,0,2,-1
17:15:23:644429,-3,1,-4,7,2,0,0,-2
17:15:23:650344,-3,-5,-7,11,-5,-3,-9,-4
17:15:23:657962,-3,-5,-7,11,-5,-3,-9,-4
17:15:23:665356,-1,-2,-5,-46,-1,-6,-4,-2
17:15:23:672952,0,2,3,-4,10,2,5,0
17:15:23:681092,0,2,3,-4,10,2,5,0
17:15:23:681958,3,2,14,27,2,4,2,1
17:15:23:696093,0,0,-1,-4,-6,-1,-1,1
17:15:23:696970,0,0,-1,-4,-6,-1,-1,1
17:15:23:702876,-4,-7,-5,28,0,-9,-7,-4
17:15:23:718587,-7,-1,-5,-15,1,1,-1,2
17:15:23:719398,-7,-1,-5,-15,1,1,-1,2
17:15:23:725378,-2,0,2,-1,-8,-5,-2,0
17:15:23:732879,1,-1,-6,5,-8,-1,2,-4
17:15:23:748601,1,-1,-6,5,-8,-1,2,-4
17:15:23:749390,-2,-2,10,22,-9,0,5,-4
17:15:23:756085,1,3,-1,10,5,1,-4,1
17:15:23:756985,1,3,-1,10,5,1,-4,1
17:15:23:762879,-2,2,12,16,1,-1,1,6
17:15:23:770382,-4,0,2,8,8,1,-3,-7
17:15:23:777968,-4,0,2,8,8,1,-3,-7
17:15:23:785405,0,-2,-11,-36,3,4,-3,-4
17:15:23:792884,-5,-1,-3,10,-6,-6,-5,-2
17:15:23:801080,-5,-1,-3,10,-6,-6,-5,-2
17:15:23:801898,0,-3,-9,-28,-6,-8,-1,-4
17:15:23:816053,-1,0,1,-11,-4,4,-5,6
17:15:23:816847,-1,0,1,-11,-4,4,-5,6
17:15:23:822862,-4,-5,-3,-10,-5,-4,-1,-2
17:15:23:830391,2,1,-5,0,10,7,8,2
17:15:23:837911,2,1,-5,0,10,7,8,2
17:15:23:845395,-1,1,-1,5,4,0,2,3
17:15:23:852928,2,-3,-2,-6,-1,2,-2,-1
17:15:23:861066,2,-3,-2,-6,-1,2,-2,-1
17:15:23:861869,6,3,-3,-32,8,4,-4,-6
17:15:23:876066,0,1,0,-5,-6,-2,3,2
17:15:23:876847,0,1,0,-5,-6,-2,3,2
17:15:23:882828,-1,-2,4,40,3,-1,-3,1
17:15:23:890384,-2,-2,7,-14,-1,-8,-6,-3
17:15:23:897895,-2,-2,7,-14,-1,-8,-6,-3
17:15:23:905344,-6,-3,-13,-4,0,-3,-4,-3
17:15:23:921707,-3,-3,-11,-5,-15,-2,-5,-3
17:15:23:922496,-3,-3,-11,-5,-15,-2,-5,-3
17:15:23:923333,3,-1,9,14,1,3,4,5
17:15:23:936044,3,-1,8,4,3,-4,5,-2
17:15:23:936843,3,-1,8,4,3,-4,5,-2
17:15:23:942892,-9,-6,-13,5,-6,-6,-6,-6
17:15:23:950409,-5,0,-3,0,-5,0,-5,-5
17:15:23:957892,-5,0,-3,0,-5,0,-5,-5
17:15:23:965318,6,1,2,10,-2,3,2,2
17:15:23:972931,-1,-5,-7,5,-3,-9,2,-5
17:15:23:981073,-1,-5,-7,5,-3,-9,2,-5
17:15:23:981866,-1,5,2,-6,1,5,1,-1
17:15:23:996069,1,1,-3,-6,17,4,0,3
17:15:23:996870,1,1,-3,-6,17,4,0,3
17:15:24:2863,-1,1,4,-5,-4,0,0,1
17:15:24:10320,-1,-3,-3,2,-13,-5,1,0
17:15:24:17900,-1,-3,-3,2,-13,-5,1,0
17:15:24:25349,-3,2,-3,3,10,-4,-6,-3
17:15:24:32862,4,1,3,-23,-4,1,0,1
17:15:24:41169,4,1,3,-23,-4,1,0,1
17:15:24:41863,1,-7,-7,15,-2,-2,-5,-6
17:15:24:56052,-1,-2,-8,-2,0,0,-2,4
17:15:24:56871,-1,-2,-8,-2,0,0,-2,4
17:15:24:62855,-2,-1,0,5,-2,-2,0,3
17:15:24:70372,-4,-1,4,0,-3,12,-4,0
17:15:24:77969,-4,-1,4,0,-3,12,-4,0
17:15:24:85398,1,-5,-7,-10,-11,-6,2,-3
17:15:24:92844,-3,2,1,8,-5,-6,-2,-3
17:15:24:101135,-3,2,1,8,-5,-6,-2,-3
17:15:24:101983,-2,2,6,-8,-4,-4,-2,-3
17:15:24:116081,0,-4,-5,28,10,-2,-4,-3
17:15:24:116856,0,-4,-5,28,10,-2,-4,-3
17:15:24:122833,2,0,1,-12,5,-1,-2,1
17:15:24:130355,-4,1,-2,0,-7,-2,-4,-5
17:15:24:138002,-4,1,-2,0,-7,-2,-4,-5
17:15:24:145381,4,1,2,-2,-2,2,4,3
17:15:24:152888,-1,1,0,-6,-18,-10,-2,-2
17:15:24:161054,-1,1,0,-6,-18,-10,-2,-2
17:15:24:161841,-3,-10,-1,3,-3,2,-1,-1
17:15:24:176132,-2,3,8,12,-5,-6,3,-5
17:15:24:177011,-2,3,8,12,-5,-6,3,-5
17:15:24:182879,4,19,0,12,12,-4,1,2
17:15:24:190385,3,-8,-6,-8,4,4,-3,1
17:15:24:197869,3,-8,-6,-8,4,4,-3,1
17:15:24:205396,-9,-3,1,0,-4,0,0,-4
17:15:24:212904,-1,2,0,4,22,9,9,2
17:15:24:221082,-1,2,0,4,22,9,9,2
17:15:24:221846,-2,-3,0,1,-3,3,-1,-3
17:15:24:236048,1,-2,-2,-17,-12,-4,-3,2
17:15:24:236836,1,-2,-2,-17,-12,-4,-3,2
17:15:24:242907,0,-3,-2,5,14,3,-1,0
17:15:24:250398,-2,-2,-4,-5,-8,-7,-1,-6
17:15:24:257898,-2,-2,-4,-5,-8,-7,-1,-6
17:15:24:265337,-5,-2,-4,1,-4,-7,-6,-4
17:15:24:272815,1,1,4,-1,1,3,0,0
17:15:24:281098,1,1,4,-1,1,3,0,0
17:15:24:281847,4,-2,9,-2,-7,7,0,-1
17:15:24:296077,-5,-4,-7,-17,-1,3,-8,2
17:15:24:296883,-5,-4,-7,-17,-1,3,-8,2
17:15:24:302857,-5,-10,0,-13,10,-8,1,-1
17:15:24:310331,2,-2,-11,-4,-6,-3,3,-2
17:15:24:317906,2,-2,-11,-4,-6,-3,3,-2
17:15:24:325354,-9,-11,-8,-1,-9,-2,-1,-3
17:15:24:332853,1,3,4,-2,9,3,-3,-3
17:15:24:341086,1,3,4,-2,9,3,-3,-3
17:15:24:341968,1,3,-3,-2,-8,-5,-6,3
17:15:24:356064,-3,-4,0,18,11,4,6,1
17:15:24:356881,-3,-4,0,18,11,4,6,1
17:15:24:362848,0,0,-6,7,23,8,4,0
17:15:24:370377,1,6,3,0,6,-1,-3,1
17:15:24:377973,1,6,3,0,6,-1,-3,1
17:15:24:385355,-4,0,-12,-24,-13,-8,-9,-3
17:15:24:392844,1,-5,5,-13,11,7,3,0
17:15:24:401106,1,-5,5,-13,11,7,3,0
17:15:24:401947,6,13,-9,-9,-3,1,3,-2
17:15:24:416069,-2,0,0,7,-13,-12,-4,-3
17:15:24:416960,-2,0,0,7,-13,-12,-4,-3
17:15:24:422831,0,1,2,5,-11,-1,5,1
17:15:24:430332,-3,-10,-6,-8,0,-1,-5,0
17:15:24:437981,-3,-10,-6,-8,0,-1,-5,0
17:15:24:445355,0,5,10,-2,-20,-9,-10,-7
17:15:24:452896,-2,-1,-4,-9,-3,1,-1,-1
17:15:24:461056,-2,-1,-4,-9,-3,1,-1,-1
17:15:24:461844,0,-18,2,-4,-13,-4,-4,-4
17:15:24:476079,0,9,7,7,-9,4,6,1
17:15:24:476982,0,9,7,7,-9,4,6,1
17:15:24:482871,-2,-2,-4,12,10,2,-1,3
17:15:24:490429,2,2,-11,0,-7,-8,-1,-4
17:15:24:497855,2,2,-11,0,-7,-8,-1,-4
17:15:24:505392,7,3,6,1,13,0,-2,3
17:15:24:512874,-13,1,-17,1,13,3,-2,-4
17:15:24:521079,-13,1,-17,1,13,3,-2,-4
17:15:24:521831,-5,0,-2,8,5,-1,1,2
17:15:24:536039,3,8,-7,-14,-4,-4,0,0
17:15:24:536930,3,8,-7,-14,-4,-4,0,0
17:15:24:542933,5,2,1,3,6,6,-2,-3
17:15:24:558540,4,-10,-3,-2,-8,-2,-3,-5
17:15:24:559347,4,-10,-3,-2,-8,-2,-3,-5
17:15:24:565374,-10,-20,6,5,-8,-3,4,-4
17:15:24:572888,4,10,10,1,0,-1,-3,-1
17:15:24:580415,4,10,10,1,0,-1,-3,-1
17:15:24:587866,2,1,-17,-20,-4,3,-2,-4
17:15:24:596079,-7,-2,4,-13,-8,-7,-6,1
17:15:24:596883,-7,-2,4,-13,-8,-7,-6,1
17:15:24:602871,-3,2,2,-2,-6,2,-2,-1
17:15:24:618561,4,7,1,4,-9,-8,-2,2
17:15:24:619393,4,7,1,4,-9,-8,-2,2
17:15:24:625320,-6,-4,-6,-12,-6,-5,4,0
17:15:24:632868,3,-9,1,7,10,8,-3,4
17:15:24:640414,3,-9,1,7,10,8,-3,4
17:15:24:647857,4,2,-3,6,11,4,3,0
17:15:24:656090,-3,-9,-5,-8,0,-3,10,-6
17:15:24:656899,-3,-9,-5,-8,0,-3,10,-6
17:15:24:662852,-4,0,6,-6,-19,-9,-6,-3
17:15:24:678564,2,-2,1,4,11,11,2,7
17:15:24:679399,2,-2,1,4,11,11,2,7
17:15:24:685379,-7,-6,-13,-7,7,0,1,-1
17:15:24:692827,8,11,0,-9,-8,-3,2,-3
17:15:24:700416,8,11,0,-9,-8,-3,2,-3
17:15:24:707865,5,9,7,6,7,0,-6,-1
17:15:24:716230,4,11,4,-6,-6,-5,-4,-2
17:15:24:716998,4,11,4,-6,-6,-5,-4,-2
17:15:24:722906,-3,-15,-6,25,30,6,2,3
17:15:24:738547,-8,-9,0,5,-5,-3,-4,-3
17:15:24:739381,-8,-9,0,5,-5,-3,-4,-3
17:15:24:753522,-2,-7,1,-5,-11,-3,-3,-3
17:15:24:754298,-7,-14,-1,-1,3,1,2,1
17:15:24:760395,-7,-14,-1,-1,3,1,2,1
17:15:24:767839,10,6,5,1,-15,-9,1,-5
17:15:24:776053,2,1,-4,-2,-11,-5,-3,0
17:15:24:776909,2,1,-4,-2,-11,-5,-3,0
17:15:24:782904,-5,0,-1,2,-2,0,-1,2
17:15:24:798552,-5,-2,1,4,-6,-3,2,-3
17:15:24:799371,-5,-2,1,4,-6,-3,2,-3
17:15:24:805339,-4,-4,4,-4,-8,1,-2,-4
17:15:24:813546,-3,-7,-11,-11,-1,-9,-6,-2
17:15:24:814380,-3,-7,-11,-11,-1,-9,-6,-2
17:15:24:827862,-4,7,6,3,6,6,2,-4
17:15:24:836054,-4,-17,-3,0,0,4,-6,-1
17:15:24:836882,-4,-17,-3,0,0,4,-6,-1
17:15:24:842961,0,-1,-11,-17,-6,-5,-8,2
17:15:24:858568,-1,6,2,3,9,4,-1,-1
17:15:24:859411,-1,6,2,3,9,4,-1,-1
17:15:24:865417,0,0,0,7,1,-6,-2,-1
17:15:24:873590,-1,-3,4,-4,0,3,8,-2
17:15:24:874383,-1,-3,4,-4,0,3,8,-2
17:15:24:887907,-4,-2,-5,-9,0,-1,-3,-1
17:15:24:896073,-6,-8,-3,5,-3,-7,-9,-1
17:15:24:896882,-6,-8,-3,5,-3,-7,-9,-1
17:15:24:902873,1,-4,0,-3,-5,0,1,-2
17:15:24:918554,-2,-1,1,-4,5,0,3,-5
17:15:24:919377,-2,-1,1,-4,5,0,3,-5
17:15:24:925340,-2,2,-1,2,-12,-3,0,1
17:15:24:932890,-3,-1,-16,-8,-15,-4,-1,-1
17:15:24:940420,-3,-1,-16,-8,-15,-4,-1,-1
17:15:24:947822,-1,9,1,2,-1,-4,5,-1
17:15:24:956086,10,10,20,9,8,-2,-3,1
17:15:24:956880,10,10,20,9,8,-2,-3,1
17:15:24:962924,1,-4,-5,-6,-3,2,-3,-1
17:15:24:978564,-6,0,1,10,6,0,-2,1
17:15:24:979398,-6,0,1,10,6,0,-2,1
17:15:24:985338,-3,3,0,15,15,12,8,4
17:15:24:993553,1,-2,5,0,1,-3,-3,-4
17:15:24:994369,1,-2,5,0,1,-3,-3,-4
17:15:25:7916,1,-6,8,19,3,1,0,1
17:15:25:16048,-4,-17,-6,-5,-7,1,-2,0
17:15:25:16886,-4,-17,-6,-5,-7,1,-2,0
17:15:25:22858,3,1,-4,-14,-15,-14,-6,-7
17:15:25:38570,3,1,-4,-14,-15,-14,-6,-7
17:15:25:39368,0,4,-5,-6,0,0,1,-2
17:15:25:45311,3,6,0,0,11,0,2,-4
17:15:25:61050,3,6,0,0,11,0,2,-4
17:15:25:61837,-6,-3,8,0,-6,6,-5,-2
17:15:25:67897,-5,-3,-5,-9,4,6,-3,-2
17:15:25:76134,-5,-3,-5,-9,4,6,-3,-2
17:15:25:76871,1,-9,5,-4,11,-9,-8,-2
17:15:25:82972,-2,-7,-10,-11,-10,-2,1,2
17:15:25:98650,-2,-7,-10,-11,-10,-2,1,2
17:15:25:99364,3,4,-13,-4,6,10,2,1
17:15:25:105413,-5,-8,-5,-9,-10,-6,-9,-7
17:15:25:121068,-5,-8,-5,-9,-10,-6,-9,-7
17:15:25:121955,-1,-1,-5,-1,-4,0,5,1
17:15:25:127859,1,6,-1,-3,-3,-1,4,3
17:15:25:136054,1,6,-1,-3,-3,-1,4,3
17:15:25:136854,-1,0,2,18,8,2,1,-1
17:15:25:142838,-2,-5,0,1,0,-6,-1,1
17:15:25:158569,-2,-5,0,1,0,-6,-1,1
17:15:25:159343,3,-2,0,5,9,7,1,-2
17:15:25:165373,4,5,15,1,-6,-4,-13,0
17:15:25:181123,4,5,15,1,-6,-4,-13,0
17:15:25:181955,-3,-2,-7,-9,-12,-10,-6,-2
17:15:25:187960,-1,1,-8,1,2,5,3,6
17:15:25:196085,-1,1,-8,1,2,5,3,6
17:15:25:196871,-3,-4,-11,-14,-12,-14,-3,-5
17:15:25:202890,0,-8,-2,13,7,3,2,-8
17:15:25:218609,0,-8,-2,13,7,3,2,-8
17:15:25:219407,3,8,11,-1,10,0,2,1
17:15:25:225360,-3,-5,-4,-7,-4,-4,1,-3
17:15:25:241186,-3,-5,-4,-7,-4,-4,1,-3
17:15:25:241877,-5,2,2,9,4,6,5,-3
17:15:25:247912,5,2,-1,1,-3,3,6,5
17:15:25:256143,5,2,-1,1,-3,3,6,5
17:15:25:256997,-4,-9,1,-6,-14,-7,-4,2
17:15:25:262880,-7,-4,-2,-1,-11,-1,-7,-3
17:15:25:278576,-7,-4,-2,-1,-11,-1,-7,-3
17:15:25:279382,9,4,2,-2,-8,-5,-4,-1
17:15:25:285355,-1,-6,3,-2,0,-8,-6,-2
17:15:25:301100,-1,-6,3,-2,0,-8,-6,-2
17:15:25:301887,-4,-2,-2,7,9,10,2,1
17:15:25:307862,-3,-9,0,-2,-2,-1,-10,-7
17:15:25:316091,-3,-9,0,-2,-2,-1,-10,-7
17:15:25:316888,0,-3,0,2,3,5,6,0
17:15:25:322862,2,3,-2,1,8,-2,3,-3
17:15:25:338597,2,3,-2,1,8,-2,3,-3
17:15:25:339371,-4,5,-2,-1,-7,-6,1,-2
17:15:25:345445,3,11,5,-2,-6,1,2,2
17:15:25:361157,3,11,5,-2,-6,1,2,2
17:15:25:361880,1,-7,1,-1,2,-6,-4,0
17:15:25:367857,-4,-4,0,1,6,4,0,-3
17:15:25:376100,-4,-4,0,1,6,4,0,-3
17:15:25:376874,5,5,-1,1,-3,2,4,4
17:15:25:382894,-1,4,-5,-12,-8,-8,-1,0
17:15:25:398580,-1,4,-5,-12,-8,-8,-1,0
17:15:25:399417,-11,-8,-11,-5,-4,1,-1,1
17:15:25:405344,-3,-2,-5,-3,4,1,-4,4
17:15:25:421076,-3,-2,-5,-3,4,1,-4,4
17:15:25:421860,3,5,1,4,4,-8,-6,-5
17:15:25:427839,0,-2,2,20,16,8,14,-5
17:15:25:436119,0,-2,2,20,16,8,14,-5
17:15:25:436909,-3,-1,-3,-5,-8,5,0,-5
17:15:25:442851,-1,0,2,-4,-5,-6,-9,1
17:15:25:458591,-1,0,2,-4,-5,-6,-9,1
17:15:25:459396,-3,-4,-7,2,10,5,-6,-3
17:15:25:465316,-4,1,8,1,-6,-3,-3,-2
17:15:25:481070,-4,1,8,1,-6,-3,-3,-2
17:15:25:481867,3,-1,6,-3,-6,-4,-2,1
17:15:25:487838,1,-4,-9,-4,-2,-2,-1,0
17:15:25:496052,1,-4,-9,-4,-2,-2,-1,0
17:15:25:496859,-3,-5,-2,-9,-1,-7,2,0
17:15:25:510395,-8,-3,2,1,0,-1,2,-3
17:15:25:518546,-8,-3,2,1,0,-1,2,-3
17:15:25:519371,5,4,-6,-4,-5,0,4,4
17:15:25:525325,0,0,-2,-6,1,4,-2,-1
17:15:25:541166,0,0,-2,-6,1,4,-2,-1
17:15:25:541948,-3,-1,3,-4,-8,-1,-8,-5
17:15:25:547878,3,-1,-5,-6,2,5,-2,0
17:15:25:556092,3,-1,-5,-6,2,5,-2,0
17:15:25:556853,-2,-1,2,-2,-8,-10,-4,0
17:15:25:570406,4,7,-9,-6,-3,-1,-3,-3
17:15:25:578562,4,7,-9,-6,-3,-1,-3,-3
17:15:25:579442,-6,-4,-1,4,7,3,4,0
17:15:25:585382,2,-4,-11,-4,-9,-9,3,-1
17:15:25:592916,2,-4,-11,-4,-9,-9,3,-1
17:15:25:600330,-2,-14,-3,8,6,-3,-10,-3
17:15:25:607926,-4,4,1,12,7,13,4,1
17:15:25:616055,-4,4,1,12,7,13,4,1
17:15:25:616877,-6,-3,-4,-5,-4,2,6,-2
17:15:25:630409,-3,-6,1,-4,-8,-10,1,2
17:15:25:638555,-3,-6,1,-4,-8,-10,1,2
17:15:25:639461,2,3,0,-4,1,-1,2,0
17:15:25:645407,0,-6,1,-5,-11,-6,-2,-5
17:15:25:652906,0,-6,1,-5,-11,-6,-2,-5
17:15:25:660364,-2,3,3,-3,-3,0,0,0
17:15:25:667860,-2,-4,7,-3,6,3,-1,0
17:15:25:676094,-2,-4,7,-3,6,3,-1,0
17:15:25:676878,3,5,-6,-1,-5,-2,-1,1
17:15:25:690331,-2,-4,-1,6,0,0,-6,-2
17:15:25:698585,-2,-4,-1,6,0,0,-6,-2
17:15:25:699356,-6,-8,-8,-7,2,9,-4,-7
17:15:25:705350,-2,1,-2,-3,-9,-5,2,-2
17:15:25:713006,-2,1,-2,-3,-9,-5,2,-2
17:15:25:720369,-1,0,-3,1,-4,-8,-3,1
17:15:25:727857,-2,5,-5,-1,2,-5,0,3
17:15:25:736043,-2,5,-5,-1,2,-5,0,3
17:15:25:736851,0,-2,0,12,-1,1,2,-4
17:15:25:750372,0,2,1,1,6,2,-1,-2
17:15:25:758593,0,2,1,1,6,2,-1,-2
17:15:25:759401,2,1,2,0,-3,-4,-3,0
17:15:25:765358,-2,-6,0,-11,-3,-3,-3,-1
17:15:25:772889,-2,-6,0,-11,-3,-3,-3,-1
17:15:25:780380,2,7,-3,-3,-1,1,0,-1
17:15:25:787962,-1,0,1,8,1,-1,-8,-4
17:15:25:796088,-1,0,1,8,1,-1,-8,-4
17:15:25:796861,0,3,8,6,7,6,3,1
17:15:25:810371,-1,-2,1,-4,0,1,-3,2
17:15:25:818565,-1,-2,1,-4,0,1,-3,2
17:15:25:819390,2,-1,-2,-9,-7,-13,-7,-3
17:15:25:825389,1,-2,5,17,13,1,4,-5
17:15:25:832884,1,-2,5,17,13,1,4,-5
17:15:25:840386,-2,-7,-7,-2,-5,-5,-4,-5
17:15:25:847827,-2,-4,-4,-10,0,8,-6,-2
17:15:25:856082,-2,-4,-4,-10,0,8,-6,-2
17:15:25:856854,-4,-15,-1,4,-1,2,3,5
17:15:25:870398,-5,1,-6,-2,-17,-15,-5,-1
17:15:25:878647,-5,1,-6,-2,-17,-15,-5,-1
17:15:25:879420,-1,0,2,-9,-4,-7,-3,-1
17:15:25:885392,4,0,10,14,-3,5,6,-1
17:15:25:892922,4,0,10,14,-3,5,6,-1
17:15:25:900336,0,4,-6,-11,-2,-1,-6,0
17:15:25:907881,-1,0,-2,-3,-10,-2,4,2
17:15:25:916066,-1,0,-2,-3,-10,-2,4,2
17:15:25:916920,2,-1,6,-4,5,7,4,-4
17:15:25:930346,-3,-7,0,3,0,-1,0,1
17:15:25:938587,-3,-7,0,3,0,-1,0,1
17:15:25:939390,-4,2,3,6,4,1,0,6
17:15:25:945368,-4,-5,-6,-11,-4,-10,0,-4
17:15:25:952918,-4,-5,-6,-11,-4,-10,0,-4
17:15:25:960365,3,1,-3,0,8,3,7,-8
17:15:25:967900,4,1,-6,-11,-4,-7,-15,-5
17:15:25:976122,4,1,-6,-11,-4,-7,-15,-5
17:15:25:976930,-10,-7,-2,8,0,10,-1,0
17:15:25:990369,7,-3,1,-4,-5,-2,8,4
17:15:25:998628,7,-3,1,-4,-5,-2,8,4
17:15:25:999387,-4,-5,-9,-5,-4,2,-3,2
17:15:26:5399,-5,8,2,1,0,3,0,-1
17:15:26:12994,-5,8,2,1,0,3,0,-1
17:15:26:20373,1,-5,3,2,11,-8,-10,5
17:15:26:27856,-2,-1,-9,-6,-1,-1,0,-4
17:15:26:36046,-2,-1,-9,-6,-1,-1,0,-4
17:15:26:36844,-3,-1,-2,0,-16,0,7,-5
17:15:26:50408,2,4,-2,-6,7,0,1,-6
17:15:26:58583,2,4,-2,-6,7,0,1,-6
17:15:26:59384,5,2,-1,0,-4,-12,-6,-3
17:15:26:65393,-6,-1,-2,5,7,13,4,10
17:15:26:72923,-6,-1,-2,5,7,13,4,10
17:15:26:80422,-3,3,2,-14,-17,-15,-8,-2
17:15:26:87867,0,-6,0,3,-1,12,-1,-8
17:15:26:96065,0,-6,0,3,-1,12,-1,-8
17:15:26:96868,2,2,-5,8,12,12,0,-1
17:15:26:110392,-4,-3,-2,-3,-13,-12,2,-3
17:15:26:118535,-4,-3,-2,-3,-13,-12,2,-3
17:15:26:119363,-2,-9,6,5,13,6,5,-1
17:15:26:125401,3,0,2,32,14,5,1,7
17:15:26:132886,3,0,2,32,14,5,1,7
17:15:26:140352,-7,-7,-1,-3,-10,-5,1,-4
17:15:26:147837,0,1,-11,-16,-1,-4,4,1
17:15:26:156077,0,1,-11,-16,-1,-4,4,1
17:15:26:156843,3,6,-1,7,0,1,-3,2
17:15:26:170398,-1,-1,3,-3,-4,-4,-2,-7
17:15:26:178591,-1,-1,3,-3,-4,-4,-2,-7
17:15:26:179374,-1,-6,4,-7,0,5,-1,2
17:15:26:185330,-2,-5,-3,-4,-6,-6,-11,-1
17:15:26:192945,-2,-5,-3,-4,-6,-6,-11,-1
17:15:26:200355,2,10,-5,10,10,7,2,-1
17:15:26:207870,-4,-12,2,-10,-7,-7,-6,-3
17:15:26:216114,-4,-12,2,-10,-7,-7,-6,-3
17:15:26:216912,0,5,-5,-1,0,-10,3,-6
17:15:26:230369,3,5,-10,-11,-2,-2,-5,4
17:15:26:238561,3,5,-10,-11,-2,-2,-5,4
17:15:26:239362,0,-1,-4,-4,-5,-3,9,2
17:15:26:245381,-2,-2,5,2,-4,3,2,2
17:15:26:252922,-2,-2,5,2,-4,3,2,2
17:15:26:260392,-2,-4,0,-3,-4,-9,-11,1
17:15:26:267875,-5,-2,4,11,15,14,5,-5
17:15:26:276123,-5,-2,4,11,15,14,5,-5
17:15:26:276943,1,-8,0,6,4,5,5,-4
17:15:26:290395,-6,0,1,-3,-10,-11,-7,-1
17:15:26:298598,-6,0,1,-3,-10,-11,-7,-1
17:15:26:299380,1,-3,1,0,6,3,-17,2
17:15:26:305372,3,1,5,13,17,16,6,0
17:15:26:312995,3,1,5,13,17,16,6,0
17:15:26:328545,-4,1,3,-7,-9,-1,3,-1
17:15:26:329314,2,0,-3,4,1,-4,0,1
17:15:26:336108,2,0,-3,4,1,-4,0,1
17:15:26:336916,-4,-1,-2,2,-1,-3,4,0
17:15:26:350379,-1,3,1,-13,-13,-12,-10,-9
17:15:26:358574,-1,3,1,-13,-13,-12,-10,-9
17:15:26:359387,-3,-7,-8,1,5,-3,5,-6
17:15:26:365341,11,2,5,-7,-5,-5,-5,6
17:15:26:372943,11,2,5,-7,-5,-5,-5,6
17:15:26:380388,-2,1,0,-3,-6,-1,-12,-1
17:15:26:387903,-4,-3,-6,8,1,9,5,0
17:15:26:396019,-4,-3,-6,8,1,9,5,0
17:15:26:396858,0,0,-2,-1,-10,-9,4,-1
17:15:26:410364,-5,-4,-6,1,-5,-5,-5,-9
17:15:26:418605,-5,-4,-6,1,-5,-5,-5,-9
17:15:26:419382,-2,0,-3,1,-5,-2,-2,-2
17:15:26:433558,2,-10,-2,-7,-7,-10,-4,3
17:15:26:434403,2,-10,-2,-7,-7,-10,-4,3
17:15:26:440361,2,-1,0,0,9,12,-2,-1
17:15:26:447862,-4,2,-3,-13,-7,1,6,-1
17:15:26:455425,-4,2,-3,-13,-7,1,6,-1
17:15:26:462853,2,-2,4,13,-4,-7,-11,-2
17:15:26:470369,-4,3,0,7,-3,-11,-16,-1
17:15:26:478532,-4,3,0,7,-3,-11,-16,-1
17:15:26:479333,5,9,0,-3,1,5,10,-2
17:15:26:493516,-5,-6,-3,-7,3,-1,5,0
17:15:26:494339,-5,-6,-3,-7,3,-1,5,0
17:15:26:500390,2,-2,0,1,1,-6,-2,0
17:15:26:507880,3,7,-5,0,6,5,0,-3
17:15:26:515388,3,7,-5,0,6,5,0,-3
17:15:26:522894,-6,0,0,-5,5,9,2,6
17:15:26:530346,-6,-3,-1,-7,-6,-6,-2,-5
17:15:26:538577,-6,-3,-1,-7,-6,-6,-2,-5
17:15:26:539365,-5,-2,-1,-5,-16,-22,-8,-9
17:15:26:553562,5,3,5,-3,9,11,7,-2
17:15:26:554361,5,3,5,-3,9,11,7,-2
17:15:26:560391,1,-6,-7,-14,-11,4,5,-2
17:15:26:567885,0,-4,-5,-8,-7,-9,-4,3
17:15:26:575404,0,-4,-5,-8,-7,-9,-4,3
17:15:26:582842,-5,-4,-8,-2,8,-4,-5,2
17:15:26:590347,-2,-3,-3,9,9,3,-3,3
17:15:26:598585,-2,-3,-3,9,9,3,-3,3
17:15:26:599369,-3,-15,7,-1,0,5,-4,0
17:15:26:613589,-3,-1,6,2,-4,-6,-7,-3
17:15:26:614394,-3,-1,6,2,-4,-6,-7,-3
17:15:26:620338,-4,0,1,-7,-11,-6,-1,1
17:15:26:627853,5,-1,-3,-4,1,9,4,-3
17:15:26:635444,5,-1,-3,-4,1,9,4,-3
17:15:26:642857,-1,1,4,-9,-12,-13,-6,-8
17:15:26:650347,-1,4,-3,5,4,4,7,2
17:15:26:658576,-1,4,-3,5,4,4,7,2
17:15:26:659384,2,3,-2,2,4,2,0,3
17:15:26:673571,-6,-3,4,-2,-10,-8,-4,-3
17:15:26:674464,-6,-3,4,-2,-10,-8,-4,-3
17:15:26:680353,-5,-4,-7,-1,-12,-6,-4,1
17:15:26:687885,1,-3,-3,-8,5,0,-3,0
17:15:26:695441,1,-3,-3,-8,5,0,-3,0
17:15:26:702872,2,3,-7,-7,-4,-4,0,-3
17:15:26:710340,-2,-2,0,2,1,4,4,3
17:15:26:718603,-2,-2,0,2,1,4,4,3
17:15:26:719407,-2,1,1,7,-5,0,-2,-1
17:15:26:733589,3,-5,2,-1,7,8,3,-3
17:15:26:734370,3,-5,2,-1,7,8,3,-3
17:15:26:740377,4,8,6,18,24,7,0,3
17:15:26:747876,-2,2,-5,-8,-8,-12,-7,-6
17:15:26:755482,-2,2,-5,-8,-8,-12,-7,-6
17:15:26:762870,-3,-4,-9,6,1,-1,-1,-4
17:15:26:770375,-2,3,-2,0,5,2,10,3
17:15:26:778600,-2,3,-2,0,5,2,10,3
17:15:26:779367,4,3,11,-5,-5,4,0,-3
17:15:26:793525,-4,-4,-2,-2,-5,-1,2,0
17:15:26:794396,-4,-4,-2,-2,-5,-1,2,0
17:15:26:800408,4,0,-9,-2,11,3,8,0
17:15:26:807900,-4,-2,-4,-4,-3,-1,-3,-5
17:15:26:815413,-4,-2,-4,-4,-3,-1,-3,-5
17:15:26:822901,0,-8,3,-4,-9,-3,-12,1
17:15:26:830392,2,-1,-8,1,-6,-4,-5,-1
17:15:26:838603,2,-1,-8,1,-6,-4,-5,-1
17:15:26:839356,-3,-1,-4,-14,-9,-4,-6,-1
17:15:26:853578,-5,-4,7,10,5,4,-1,-4
17:15:26:854369,-5,-4,7,10,5,4,-1,-4
17:15:26:860392,-2,1,-1,3,-2,-3,-2,-1
17:15:26:867892,2,1,0,0,1,-6,-2,2
17:15:26:875402,2,1,0,0,1,-6,-2,2
17:15:26:882844,0,-11,1,-11,-2,6,0,-1
17:15:26:890345,-1,-1,-3,1,-4,2,3,3
17:15:26:898586,-1,-1,-3,1,-4,2,3,3
17:15:26:899364,-6,2,-15,0,3,9,1,-8
17:15:26:913580,3,-1,-4,-4,-3,-3,-2,0
17:15:26:914357,3,-1,-4,-4,-3,-3,-2,0
17:15:26:920361,-1,6,2,1,0,-7,0,1
17:15:26:927845,0,-2,1,-16,-10,-12,-7,1
17:15:26:935403,0,-2,1,-16,-10,-12,-7,1
17:15:26:942851,-5,-3,-2,1,3,4,-4,-3
17:15:26:950396,3,-3,-2,-2,-12,-3,-1,2
17:15:26:958574,3,-3,-2,-2,-12,-3,-1,2
17:15:26:959386,3,1,1,-3,0,0,2,3
17:15:26:973573,0,4,8,7,10,7,3,-4
17:15:26:974443,0,4,8,7,10,7,3,-4
17:15:26:980344,-6,-7,-4,5,0,-4,-5,-5
17:15:26:987857,-7,-7,-10,0,0,-5,-5,-1
17:15:26:995429,-7,-7,-10,0,0,-5,-5,-1
17:15:27:2883,3,3,2,3,8,3,1,1
17:15:27:10373,0,-1,-3,0,0,4,7,0
17:15:27:18615,0,-1,-3,0,0,4,7,0
17:15:27:19391,-3,-2,-2,-8,-6,-4,-3,-4
17:15:27:33593,-4,-2,5,5,-1,-7,-6,-2
17:15:27:34381,-4,-2,5,5,-1,-7,-6,-2
17:15:27:40385,0,-88,-2,-11,-3,0,-4,-3
17:15:27:47907,7,-14,9,7,7,2,2,-1
17:15:27:55462,7,-14,9,7,7,2,2,-1
17:15:27:62890,-1,61,-6,3,1,-3,2,-2
17:15:27:70370,0,11,-1,-4,-7,-1,-1,1
17:15:27:78571,0,11,-1,-4,-7,-1,-1,1
17:15:27:79359,0,18,6,-6,-5,1,3,3
17:15:27:93560,-3,8,-4,-6,-5,-2,3,-6
17:15:27:94332,-3,8,-4,-6,-5,-2,3,-6
17:15:27:100363,-5,-4,1,14,0,3,-2,-7
17:15:27:107876,2,6,-5,4,-2,2,1,4
17:15:27:115394,2,6,-5,4,-2,2,1,4
17:15:27:122810,-3,-2,4,-2,11,4,1,3
17:15:27:130375,-5,-12,-4,-2,-3,-7,-9,-5
17:15:27:138585,-5,-12,-4,-2,-3,-7,-9,-5
17:15:27:139360,-3,5,3,-1,-7,-11,-8,-5
17:15:27:153567,3,-2,-2,-1,6,0,-1,1
17:15:27:154358,3,-2,-2,-1,6,0,-1,1
17:15:27:160331,0,3,-1,-6,-4,-8,1,-3
17:15:27:167875,-11,-1,-6,-14,-3,0,0,-1
17:15:27:175439,-11,-1,-6,-14,-3,0,0,-1
17:15:27:182856,11,7,-20,-9,-8,-4,4,3
17:15:27:190329,1,-2,6,5,3,5,-9,0
17:15:27:198578,1,-2,6,5,3,5,-9,0
17:15:27:199379,-1,-7,9,2,1,5,-2,-2
17:15:27:213580,-2,3,-3,-2,-5,-3,3,-2
17:15:27:214383,-2,3,-3,-2,-5,-3,3,-2
17:15:27:220370,0,0,1,6,6,16,8,3
17:15:27:236071,1,-1,3,12,1,-10,-2,-1
17:15:27:236867,1,-1,3,12,1,-10,-2,-1
17:15:27:242820,1,9,-2,-17,-5,-5,-7,-2
17:15:27:250326,-2,-10,3,7,14,14,3,-3
17:15:27:258590,-2,-10,3,7,14,14,3,-3
17:15:27:259369,5,-3,-3,5,-4,-4,2,2
17:15:27:273553,0,4,-4,-12,-14,-8,-6,-2
17:15:27:274369,0,4,-4,-12,-14,-8,-6,-2
17:15:27:280308,-4,-3,3,-2,8,0,0,-3
17:15:27:287854,2,-1,-4,-9,-3,1,-4,-2
17:15:27:295431,2,-1,-4,-9,-3,1,-4,-2
17:15:27:302853,-4,-8,-2,-5,-24,-15,-8,-3
17:15:27:310353,-2,4,-6,1,0,3,2,-1
17:15:27:318600,-2,4,-6,1,0,3,2,-1
17:15:27:319385,-6,-2,2,-5,-1,-6,-3,1
17:15:27:333547,-2,3,5,0,1,13,4,-2
17:15:27:334351,-2,3,5,0,1,13,4,-2
17:15:27:340341,-4,-11,-8,3,-1,4,1,1
17:15:27:356075,-2,-4,-4,1,-1,-7,-1,3
17:15:27:356863,-2,-4,-4,1,-1,-7,-1,3
17:15:27:362817,-1,1,-3,7,9,-3,3,-2
17:15:27:370334,5,-2,-1,-7,-4,-4,2,0
17:15:27:377879,5,-2,-1,-7,-4,-4,2,0
17:15:27:385347,5,3,8,7,1,1,-4,1
17:15:27:393582,-3,3,6,3,-6,-5,-11,-1
17:15:27:394402,-3,3,6,3,-6,-5,-11,-1
17:15:27:400322,-4,-1,-9,-11,-8,-12,0,0
17:15:27:416057,3,3,1,10,19,19,15,2
17:15:27:416879,3,3,1,10,19,19,15,2
17:15:27:422857,3,-1,-3,3,8,9,-6,-4
17:15:27:430406,-5,-5,0,-7,-9,-16,-14,-4
17:15:27:437917,-5,-5,0,-7,-9,-16,-14,-4
17:15:27:445356,-1,0,-6,5,3,3,3,-1
17:15:27:453567,-2,1,-6,4,7,2,0,-2
17:15:27:454400,-2,1,-6,4,7,2,0,-2
17:15:27:460358,-5,1,6,-4,-8,-5,-9,-4
17:15:27:476090,-1,-3,0,-2,-5,1,1,-7
17:15:27:476890,-1,-3,0,-2,-5,1,1,-7
17:15:27:482864,-2,-1,4,1,1,3,-8,0
17:15:27:490413,1,-2,-4,-6,-2,-4,9,3
17:15:27:497927,1,-2,-4,-6,-2,-4,9,3
17:15:27:505400,2,-4,-4,2,14,10,8,1
17:15:27:513545,-5,-6,4,4,-5,-6,-11,0
17:15:27:514361,-5,-6,4,4,-5,-6,-11,0
17:15:27:520415,1,-4,-2,5,11,0,-7,1
17:15:27:536084,-4,-2,-8,-13,-8,-9,-5,-5
17:15:27:536883,-4,-2,-8,-13,-8,-9,-5,-5
17:15:27:542881,-2,4,3,-1,-10,-6,11,0
17:15:27:550371,4,2,3,3,4,0,0,-1
17:15:27:557895,4,2,3,3,4,0,0,-1
17:15:27:565381,-1,1,-3,-5,-4,-4,2,2
17:15:27:573556,2,2,-1,1,-6,-1,-6,-2
17:15:27:574386,2,2,-1,1,-6,-1,-6,-2
17:15:27:580335,-4,-3,-2,2,5,7,4,-3
17:15:27:596058,-6,-6,-8,-3,1,1,-2,1
17:15:27:596862,-6,-6,-8,-3,1,1,-2,1
17:15:27:602900,8,8,-1,-15,-7,-1,10,1
17:15:27:610400,-4,-12,-4,-3,7,4,5,-3
17:15:27:617914,-4,-12,-4,-3,7,4,5,-3
17:15:27:625344,-4,-3,-6,-6,-4,-5,3,-2
17:15:27:633591,2,7,0,-1,-14,-10,-10,-4
17:15:27:634366,2,7,0,-1,-14,-10,-10,-4
17:15:27:640368,-2,0,7,2,-2,-3,-19,-3
17:15:27:656085,0,0,-2,2,3,12,22,2
17:15:27:656891,0,0,-2,2,3,12,22,2
17:15:27:662842,-1,4,-1,1,7,1,-1,-2
17:15:27:670352,5,8,6,-1,-13,-14,-13,-1
17:15:27:677904,5,8,6,-1,-13,-14,-13,-1
17:15:27:685355,1,2,-2,0,0,0,3,3
17:15:27:693610,1,-6,-5,-2,8,3,2,2
17:15:27:694419,1,-6,-5,-2,8,3,2,2
17:15:27:700347,0,2,10,2,-13,-8,-8,-5
17:15:27:716045,-2,4,1,-1,7,6,1,1
17:15:27:716883,-2,4,1,-1,7,6,1,1
17:15:27:722862,-3,0,0,3,7,11,0,-1
17:15:27:730361,-1,-5,-5,-5,-7,-3,21,3
17:15:27:737954,-1,-5,-5,-5,-7,-3,21,3
17:15:27:745364,0,-17,-6,-1,-6,-11,-7,-4
17:15:27:753602,-4,-5,-5,0,7,6,-8,-6
17:15:27:754401,-4,-5,-5,0,7,6,-8,-6
17:15:27:760375,-3,-3,-7,-4,-1,6,6,2
17:15:27:776080,-1,-2,-5,3,-5,-1,-6,4
17:15:27:776887,-1,-2,-5,3,-5,-1,-6,4
17:15:27:782858,-2,4,-1,3,-3,8,1,-4
17:15:27:790360,-2,4,3,0,-10,-14,-8,-2
17:15:27:797929,-2,4,3,0,-10,-14,-8,-2
17:15:27:805412,0,0,-1,-1,1,-5,11,0
17:15:27:813522,4,2,5,-2,2,-3,-3,2
17:15:27:814343,4,2,5,-2,2,-3,-3,2
17:15:27:820381,-2,-5,-4,-9,-8,-8,-16,-3
17:15:27:836032,-6,3,0,-3,-3,-7,1,-9
17:15:27:836832,-6,3,0,-3,-3,-7,1,-9
17:15:27:842898,-3,0,-3,2,13,1,1,3
17:15:27:850390,2,-4,-4,1,-6,4,-6,-2
17:15:27:857913,2,-4,-4,1,-6,4,-6,-2
17:15:27:865390,6,-3,3,3,-8,-10,-1,-2
17:15:27:873543,0,2,-1,-3,6,2,1,-3
17:15:27:874366,0,2,-1,-3,6,2,1,-3
17:15:27:880325,-3,-1,1,6,-6,-8,4,-1
17:15:27:896039,-7,-16,-4,0,2,12,-1,3
17:15:27:896860,-7,-16,-4,0,2,12,-1,3
17:15:27:902835,0,-1,-9,-2,-3,5,4,-1
17:15:27:910448,1,4,1,7,16,6,-3,-2
17:15:27:917899,1,4,1,7,16,6,-3,-2
17:15:27:925355,3,-2,8,4,14,0,-8,-1
17:15:27:933568,-1,2,2,1,-4,-10,-7,4
17:15:27:934382,-1,2,2,1,-4,-10,-7,4
17:15:27:940371,-7,1,3,-1,-14,-6,-5,-1
17:15:27:956052,1,1,5,2,-2,0,-2,-4
17:15:27:956886,1,1,5,2,-2,0,-2,-4
17:15:27:962842,-1,0,-9,-7,-6,-2,-1,-4
17:15:27:970340,3,3,2,-7,-8,-5,-7,1
17:15:27:977928,3,3,2,-7,-8,-5,-7,1
17:15:27:985394,-1,-8,4,-3,-15,-6,-6,0
17:15:27:993590,-2,-2,1,1,8,2,1,1
17:15:27:994415,-2,-2,1,1,8,2,1,1
17:15:28:354,-3,3,-1,-1,10,5,-6,-7
17:15:28:16068,2,0,-2,-7,-11,-5,-7,-7
17:15:28:16875,2,0,-2,-7,-11,-5,-7,-7
17:15:28:22876,0,-3,-1,-5,-3,-3,4,0
17:15:28:30370,-6,-5,-6,-4,-4,-3,1,1
17:15:28:37945,-6,-5,-6,-4,-4,-3,1,1
17:15:28:45371,-2,-11,-3,1,0,-2,-6,2
17:15:28:53547,-1,3,-2,-1,-7,-4,-1,1
17:15:28:54334,-1,3,-2,-1,-7,-4,-1,1
17:15:28:60386,-4,1,-5,-10,-6,-1,0,-4
17:15:28:76111,-4,-11,-3,5,-2,1,9,0
17:15:28:76880,-4,-11,-3,5,-2,1,9,0
17:15:28:82902,0,2,3,4,8,0,-2,-2
17:15:28:90392,4,2,1,1,6,2,2,2
17:15:28:97946,4,2,1,1,6,2,2,2
17:15:28:105393,0,-2,-6,1,3,4,3,2
17:15:28:113546,-2,0,-1,-1,-6,-7,-6,-1
17:15:28:114354,-2,0,-1,-1,-6,-7,-6,-1
17:15:28:120379,1,5,-3,-6,-10,-11,-8,2
17:15:28:136025,-4,-9,-1,-6,-5,0,-2,-3
17:15:28:136854,-4,-9,-1,-6,-5,0,-2,-3
17:15:28:142922,0,2,0,-2,0,6,5,-3
17:15:28:150396,-1,-4,-2,2,-5,-3,-3,-4
17:15:28:157913,-1,-4,-2,2,-5,-3,-3,-4
17:15:28:165347,1,-2,1,-4,-1,9,4,-3
17:15:28:173574,4,3,5,6,4,-2,2,7
17:15:28:174370,4,3,5,6,4,-2,2,7
17:15:28:180376,-4,-4,6,2,-6,-8,-2,-1
17:15:28:196036,-1,0,-4,-9,0,2,-6,-1
17:15:28:196859,-1,0,-4,-9,0,2,-6,-1
17:15:28:202848,1,1,-2,4,11,6,-4,0
17:15:28:210433,-1,2,-8,-4,-6,-7,-9,-6
17:15:28:217923,-1,2,-8,-4,-6,-7,-9,-6
17:15:28:225335,0,-4,-12,-5,-3,-6,-6,-4
17:15:28:233590,-3,0,-6,1,1,2,5,-6
17:15:28:234378,-3,0,-6,1,1,2,5,-6
17:15:28:240357,1,-1,3,2,-6,-6,-4,-1
17:15:28:256068,1,-1,3,2,-6,-6,-4,-1
17:15:28:256836,-3,-3,0,-2,-3,-4,-5,-2
17:15:28:262832,-3,2,-2,3,7,8,3,1
17:15:28:278572,-3,2,-2,3,7,8,3,1
17:15:28:279358,-2,-3,3,-1,-5,-4,11,0
17:15:28:285337,-3,5,5,3,4,7,6,0
17:15:28:293734,-3,5,5,3,4,7,6,0
17:15:28:294372,-4,-1,-1,-1,-5,1,-2,-4
17:15:28:300326,3,-4,-4,-4,-3,-8,2,-2
17:15:28:316080,3,-4,-4,-4,-3,-8,2,-2
17:15:28:316848,0,-2,-8,-4,-2,-1,-1,0
17:15:28:322859,0,3,-10,-3,-4,-5,5,3
17:15:28:338586,0,3,-10,-3,-4,-5,5,3
17:15:28:339332,4,2,4,1,4,6,-3,-3
17:15:28:345409,-2,-5,-3,-3,-2,-4,-13,2
17:15:28:353556,-2,-5,-3,-3,-2,-4,-13,2
17:15:28:354368,-5,0,-2,4,7,6,0,0
17:15:28:367883,-2,0,-1,15,10,9,8,1
17:15:28:376069,-2,0,-1,15,10,9,8,1
17:15:28:376830,-3,-6,0,-2,-10,-7,-2,-2
17:15:28:382880,1,-1,-1,-14,-9,-3,-2,-4
17:15:28:398544,1,-1,-1,-14,-9,-3,-2,-4
17:15:28:399343,7,3,1,-3,1,-3,-3,-1
17:15:28:405368,-4,-1,3,-2,-1,-8,-9,0
17:15:28:413555,-4,-1,3,-2,-1,-8,-9,0
17:15:28:414343,-6,-3,-1,4,-1,1,14,-1
17:15:28:427852,4,0,1,9,-2,-3,-1,-5
17:15:28:436026,4,0,1,9,-2,-3,-1,-5
17:15:28:436853,1,7,4,-8,0,1,0,-1
17:15:28:442896,-8,-6,-5,-7,-6,-5,2,-2
17:15:28:458595,-8,-6,-5,-7,-6,-5,2,-2
17:15:28:459379,2,0,0,-4,-3,0,-3,-1
17:15:28:465385,2,3,2,-4,-7,-2,-6,-2
17:15:28:473558,2,3,2,-4,-7,-2,-6,-2
17:15:28:474346,-2,6,3,11,-3,-4,5,3
17:15:28:487857,-1,-1,-1,3,16,13,4,2
17:15:28:496048,-1,-1,-1,3,16,13,4,2
17:15:28:496832,0,-8,-7,-10,-6,-9,-6,-3
17:15:28:502876,-4,-7,-10,3,-9,-5,-5,-3
17:15:28:518583,-4,-7,-10,3,-9,-5,-5,-3
17:15:28:519397,-9,-12,-12,-9,-2,-2,-3,0
17:15:28:525360,2,2,11,3,0,-2,-1,2
17:15:28:533526,2,2,11,3,0,-2,-1,2
17:15:28:534349,1,1,7,-1,5,3,-4,-2
17:15:28:547845,-6,-3,2,-4,-8,-9,-2,-1
17:15:28:556084,-6,-3,2,-4,-8,-9,-2,-1
17:15:28:556862,0,3,-1,3,-4,-1,1,0
17:15:28:562847,2,5,-1,-3,7,4,0,-3
17:15:28:578639,2,5,-1,-3,7,4,0,-3
17:15:28:579390,0,1,0,-7,-2,-4,-6,-2
17:15:28:585350,2,0,-7,-7,4,6,3,-1
17:15:28:593586,2,0,-7,-7,4,6,3,-1
17:15:28:594392,-3,-1,-7,0,2,-2,2,0
17:15:28:607826,2,2,7,10,3,-1,0,1
17:15:28:616083,2,2,7,10,3,-1,0,1
17:15:28:616865,3,-3,-3,-7,-6,-2,-6,1
17:15:28:622855,0,-1,-3,-4,-1,-1,0,2
17:15:28:638574,0,-1,-3,-4,-1,-1,0,2
17:15:28:639371,-3,0,2,0,4,-3,-6,-2
17:15:28:645323,-4,-2,-2,-1,-7,-3,1,-6
17:15:28:653617,-4,-2,-2,-1,-7,-3,1,-6
17:15:28:654463,-1,-1,2,2,-4,-5,1,-2
17:15:28:667851,0,-3,-2,-6,-10,-8,-3,2
17:15:28:676065,0,-3,-2,-6,-10,-8,-3,2
17:15:28:676877,-2,-4,-6,2,7,5,-5,-2
17:15:28:682859,-4,-2,1,-3,0,3,4,1
17:15:28:698562,-4,-2,1,-3,0,3,4,1
17:15:28:699395,3,0,9,12,9,5,5,-2
17:15:28:705401,-4,-5,-4,2,4,-4,-4,-2
17:15:28:713588,-4,-5,-4,2,4,-4,-4,-2
17:15:28:714359,-4,1,6,-1,-8,1,0,2
17:15:28:727851,-1,-2,-1,-5,-2,0,-3,0
17:15:28:736071,-1,-2,-1,-5,-2,0,-3,0
17:15:28:736857,1,0,-4,-4,4,4,4,-4
17:15:28:742824,4,3,-2,-3,2,-1,0,-1
17:15:28:758573,4,3,-2,-3,2,-1,0,-1
17:15:28:759348,-6,-2,6,4,-6,1,-2,0
17:15:28:765316,-7,-1,0,-3,-4,-3,-7,1
17:15:28:773575,-7,-1,0,-3,-4,-3,-7,1
17:15:28:774374,-1,0,-4,-6,-8,-12,-2,-2
17:15:28:787899,3,-5,1,3,2,-1,2,-1
17:15:28:796061,3,-5,1,3,2,-1,2,-1
17:15:28:796850,1,-1,-5,1,11,7,-4,5
17:15:28:802822,-5,-5,3,1,-9,-1,-3,-3
17:15:28:818572,-5,-5,3,1,-9,-1,-3,-3
17:15:28:819347,-1,-2,-1,-1,-2,-7,-2,-5
17:15:28:825373,5,2,-3,0,-2,4,1,-3
17:15:28:833560,5,2,-3,0,-2,4,1,-3
17:15:28:834352,-1,-4,-5,-4,-9,2,-2,-3
17:15:28:847867,1,-1,-3,-2,-9,-7,3,3
17:15:28:856054,1,-1,-3,-2,-9,-7,3,3
17:15:28:856854,-3,1,-5,-3,2,-9,1,-3
17:15:28:862869,-1,-4,-1,-6,1,-4,-4,-3
17:15:28:878565,-1,-4,-1,-6,1,-4,-4,-3
17:15:28:879356,1,-3,-2,-2,-2,0,0,0
17:15:28:885398,-1,3,-2,-1,6,2,-3,-7
17:15:28:893575,-1,3,-2,-1,6,2,-3,-7
17:15:28:894367,-3,0,-3,-4,-4,3,4,4
17:15:28:907867,4,1,1,3,-9,-1,0,1
17:15:28:916032,4,1,1,3,-9,-1,0,1
17:15:28:916843,3,-1,5,8,0,4,-4,-1
17:15:28:922919,-5,0,-3,0,0,5,3,-2
17:15:28:938617,-5,0,-3,0,0,5,3,-2
17:15:28:939417,0,1,2,0,4,1,1,-2
17:15:28:945335,2,-2,-5,-9,-9,-7,2,-4
17:15:28:953529,2,-2,-5,-9,-9,-7,2,-4
17:15:28:954341,1,2,-4,0,1,0,-6,-2
17:15:28:967890,-3,-3,2,-3,5,1,-4,2
17:15:28:976038,-3,-3,2,-3,5,1,-4,2
17:15:28:976829,0,-2,1,5,5,-3,-1,-1
17:15:28:982863,-2,-2,-4,-2,-3,-2,-6,1
17:15:28:998603,-2,-2,-4,-2,-3,-2,-6,1
17:15:28:999361,-3,-3,-4,-6,-9,-8,-2,-2
17:15:29:5365,-3,-2,2,0,-2,-3,-3,-1
17:15:29:13526,-3,-2,2,0,-2,-3,-3,-1
17:15:29:14349,1,-2,-2,-6,-3,4,5,-1
17:15:29:27973,4,-6,1,6,8,4,2,2
17:15:29:36098,4,-6,1,6,8,4,2,2
17:15:29:36867,1,2,1,0,-2,-7,-8,-2
17:15:29:42858,-8,0,-2,0,-2,-1,5,0
17:15:29:58601,-8,0,-2,0,-2,-1,5,0
17:15:29:59374,-5,-4,0,2,7,7,10,-4
17:15:29:65367,-2,-2,-2,-3,4,2,-2,-3
17:15:29:73609,-2,-2,-2,-3,4,2,-2,-3
17:15:29:74398,2,1,-2,-1,-4,2,2,0
17:15:29:87849,-1,0,-3,1,-4,-5,-4,2
17:15:29:96083,-1,0,-3,1,-4,-5,-4,2
17:15:29:96890,-3,1,-2,-7,-5,1,-6,-3
17:15:29:102872,2,2,-3,0,-1,-3,-5,0
17:15:29:118572,2,2,-3,0,-1,-3,-5,0
17:15:29:119388,1,-2,5,0,6,-6,-4,2
17:15:29:125518,-1,-1,-3,-4,0,1,0,0
17:15:29:133579,-1,-1,-3,-4,0,1,0,0
17:15:29:134374,0,-6,-5,-3,-3,-4,-11,0
17:15:29:147850,0,2,-1,-5,-2,-1,-1,-5
17:15:29:156072,0,2,-1,-5,-2,-1,-1,-5
17:15:29:156857,0,0,-3,2,-2,-2,-1,-3
17:15:29:162823,-1,-3,-2,-1,-1,-5,-1,1
17:15:29:178573,-1,-3,-2,-1,-1,-5,-1,1
17:15:29:179334,-2,1,1,3,-6,2,0,2
17:15:29:185330,-1,4,4,2,4,1,-2,-5
17:15:29:193555,-1,4,4,2,4,1,-2,-5
17:15:29:194376,-3,-1,-2,0,-1,3,5,1
17:15:29:207976,1,0,5,2,1,0,3,-3
17:15:29:216051,1,0,5,2,1,0,3,-3
17:15:29:216847,2,3,2,-3,-2,-1,2,4
17:15:29:222862,-5,1,-5,-5,0,0,13,5
17:15:29:238659,-5,1,-5,-5,0,0,13,5
17:15:29:239354,0,-3,-8,-3,6,-2,3,-3
17:15:29:245330,-1,-6,1,-1,-8,-7,-14,-5
17:15:29:253577,-1,-6,1,-1,-8,-7,-14,-5
17:15:29:254382,1,1,0,4,5,5,2,-2
17:15:29:267904,-3,-2,-5,-3,-3,1,-3,-5
17:15:29:276061,-3,-2,-5,-3,-3,1,-3,-5
17:15:29:276873,-2,-6,-3,-4,-3,-7,-4,0
17:15:29:290365,-2,-12,-1,3,6,2,3,-2
17:15:29:298538,-2,-12,-1,3,6,2,3,-2
17:15:29:299374,-2,-1,-3,-2,-5,-12,-40,-5
17:15:29:305355,0,5,2,-3,-5,1,0,0
17:15:29:312871,0,5,2,-3,-5,1,0,0
17:15:29:320349,0,-1,-3,-6,1,7,19,-5
17:15:29:327832,1,2,3,2,-5,0,-10,-2
17:15:29:336077,1,2,3,2,-5,0,-10,-2
17:15:29:336859,0,-2,2,-3,-7,-8,-8,-1
17:15:29:350358,6,4,2,1,3,6,2,2
17:15:29:358567,6,4,2,1,3,6,2,2
17:15:29:359349,-6,1,2,-5,5,-3,1,2
17:15:29:365328,-3,-4,-9,1,-2,2,3,3
17:15:29:372907,-3,-4,-9,1,-2,2,3,3
17:15:29:380332,-5,-2,-7,-1,-8,-1,8,-1
17:15:29:387845,2,-2,-3,-2,-2,-13,-11,-6
17:15:29:396089,2,-2,-3,-2,-2,-13,-11,-6
17:15:29:396889,1,-1,7,3,8,6,7,1
17:15:29:410346,-1,2,0,-2,5,1,11,0
17:15:29:418565,-1,2,0,-2,5,1,11,0
17:15:29:419362,3,2,-12,-6,-5,0,0,-5
17:15:29:425318,-3,-9,-2,-2,-4,-3,4,-4
17:15:29:432922,-3,-9,-2,-2,-4,-3,4,-4
17:15:29:440365,-2,1,2,4,-6,0,0,3
17:15:29:447877,-2,-3,5,0,-1,-5,0,-3
17:15:29:456138,-2,-3,5,0,-1,-5,0,-3
17:15:29:456837,-2,-1,1,5,-3,2,2,-2
17:15:29:470844,1,6,-1,-4,-3,-3,-2,-1
17:15:29:478607,1,6,-1,-4,-3,-3,-2,-1
17:15:29:479382,-2,-4,-3,-2,-1,-4,-11,3
17:15:29:485372,2,-1,1,1,3,3,1,2
17:15:29:492947,2,-1,1,1,3,3,1,2
17:15:29:500377,2,3,-1,-1,1,-2,-8,-3
17:15:29:507867,-2,-2,-8,-6,-6,0,8,-2
17:15:29:516046,-2,-2,-8,-6,-6,0,8,-2
17:15:29:516832,0,-5,6,1,2,-3,6,-2
17:15:29:530350,3,6,5,2,1,-1,-10,0
17:15:29:538577,3,6,5,2,1,-1,-10,0
17:15:29:539348,-3,1,-2,-3,-1,2,-1,-2
17:15:29:545364,-3,-4,-2,-1,0,-1,-3,0
17:15:29:552882,-3,-4,-2,-1,0,-1,-3,0
17:15:29:560319,-5,-4,-1,-3,-4,-2,10,3
17:15:29:567888,-8,-3,-4,-2,1,-2,-6,-1
17:15:29:576082,-8,-3,-4,-2,1,-2,-6,-1
17:15:29:576860,1,-1,0,-6,-1,5,-4,-5
17:15:29:590425,3,2,-7,0,-4,-1,-2,2
17:15:29:598558,3,2,-7,0,-4,-1,-2,2
17:15:29:599359,-1,-2,-4,2,-1,1,-8,-2
17:15:29:605314,-3,-1,4,6,0,2,-9,0
17:15:29:612930,-3,-1,4,6,0,2,-9,0
17:15:29:620383,-4,-9,2,-6,-2,-11,-2,-3
17:15:29:627827,-1,-4,-4,-9,2,2,24,1
17:15:29:636074,-1,-4,-4,-9,2,2,24,1
17:15:29:636856,5,0,-1,4,1,1,6,1
17:15:29:650345,2,-3,-1,-1,-10,-10,-12,-5
17:15:29:658580,2,-3,-1,-1,-10,-10,-12,-5
17:15:29:659349,0,4,-2,-2,0,4,-4,-2
17:15:29:665322,-6,1,2,0,-4,1,-8,0
17:15:29:672940,-6,1,2,0,-4,1,-8,0
17:15:29:680329,-2,-1,-4,-2,-1,-11,-14,-2
17:15:29:687844,0,-5,-2,-1,2,7,7,2
17:15:29:696067,0,-5,-2,-1,2,7,7,2
17:15:29:696888,1,0,-5,-7,0,-1,16,1
17:15:29:710342,0,0,0,-2,-2,-8,-1,-1
17:15:29:718585,0,0,0,-2,-2,-8,-1,-1
17:15:29:719386,1,2,-1,7,1,1,-5,-4
17:15:29:725353,3,1,-3,0,3,4,-2,-2
17:15:29:732933,3,1,-3,0,3,4,-2,-2
17:15:29:740374,-2,1,-1,1,-3,3,9,5
17:15:29:747841,-4,-2,4,-1,0,0,5,3
17:15:29:756078,-4,-2,4,-1,0,0,5,3
17:15:29:756833,0,-4,2,-4,-5,0,3,5
17:15:29:770396,-1,-3,-8,0,-5,-4,-9,-8
17:15:29:778610,-1,-3,-8,0,-5,-4,-9,-8
17:15:29:779384,-2,0,0,-4,0,-2,-4,2
17:15:29:785369,1,0,0,6,-2,-2,-1,2
17:15:29:792972,1,0,0,6,-2,-2,-1,2
17:15:29:800370,2,-3,-1,0,-1,-1,2,-2
17:15:29:807879,1,5,-2,-5,-1,-4,4,-5
17:15:29:816039,1,5,-2,-5,-1,-4,4,-5
17:15:29:816869,-6,-6,-3,-3,1,2,-4,-3
17:15:29:830384,-1,-1,1,3,11,8,-9,3
17:15:29:838557,-1,-1,1,3,11,8,-9,3
17:15:29:839328,-1,2,1,0,0,-2,13,3
17:15:29:845356,-2,-6,-1,0,-2,-1,17,1
17:15:29:852926,-2,-6,-1,0,-2,-1,17,1
17:15:29:860324,1,2,1,-1,-3,-7,-12,-3
17:15:29:867820,-2,4,1,-5,-4,-2,-6,-6
17:15:29:876080,-2,4,1,-5,-4,-2,-6,-6
17:15:29:876850,0,0,-8,3,-1,-2,-4,-3
17:15:29:890386,1,-6,-7,-3,-6,-1,-8,-3
17:15:29:898536,1,-6,-7,-3,-6,-1,-8,-3
17:15:29:899342,-2,-9,3,-3,0,5,-11,-6
17:15:29:905385,-1,-4,2,1,4,2,0,-6
17:15:29:912884,-1,-4,2,1,4,2,0,-6
17:15:29:920335,1,0,1,3,-2,-5,7,-1
17:15:29:927938,-3,6,4,-5,-8,-8,0,3
17:15:29:936065,-3,6,4,-5,-8,-8,0,3
17:15:29:936864,-2,-2,-1,-2,3,-5,-11,-5
17:15:29:950342,-5,-2,-1,-3,8,5,14,1
17:15:29:958571,-5,-2,-1,-3,8,5,14,1
17:15:29:959367,-2,-1,-3,1,-5,-2,-8,-1
17:15:29:965332,2,-1,-2,1,1,3,4,4
17:15:29:972946,2,-1,-2,1,1,3,4,4
17:15:29:980342,2,3,2,-5,-6,-1,11,1
17:15:29:987866,-6,-4,-2,-2,-6,3,-3,-2
17:15:29:996118,-6,-4,-2,-2,-6,3,-3,-2
17:15:29:996863,1,6,0,3,13,-3,-5,1
17:15:30:10372,2,-1,-4,1,2,-8,-21,-2
17:15:30:18323,2,-1,-4,1,2,-8,-21,-2
17:15:30:25997,-2,-2,-1,-3,2,9,10,3
17:15:30:26943,3,1,2,0,2,1,2,-3
17:15:30:32919,3,1,2,0,2,1,2,-3
17:15:30:40364,-4,-3,1,-1,-8,-4,-4,-1
17:15:30:47868,1,-4,2,2,-6,-7,14,7
17:15:30:56047,1,-4,2,2,-6,-7,14,7
17:15:30:56824,1,1,-4,0,5,10,7,0
17:15:30:70354,-5,2,-6,-7,-6,-3,-16,-8
17:15:30:78620,-5,2,-6,-7,-6,-3,-16,-8
17:15:30:79404,0,1,1,-4,0,-5,-20,-3
17:15:30:85379,-1,1,-2,6,1,-2,-13,-8
17:15:30:92881,-1,1,-2,6,1,-2,-13,-8
17:15:30:100381,-3,-8,-5,-1,-16,-4,7,-1
17:15:30:107881,-3,-3,-3,-7,-2,-3,1,3
17:15:30:116057,-3,-3,-3,-7,-2,-3,1,3
17:15:30:116844,-3,-3,2,0,2,-1,1,0
17:15:30:130394,2,-1,6,7,9,1,9,2
17:15:30:138564,2,-1,6,7,9,1,9,2
17:15:30:139338,-2,0,-2,-4,1,0,9,0
17:15:30:145381,1,1,-2,-1,-2,3,-14,0
17:15:30:152913,1,1,-2,-1,-2,3,-14,0
17:15:30:160341,0,-1,1,-2,-3,5,16,1
17:15:30:167813,1,1,-3,1,1,-9,0,-3
17:15:30:176087,1,1,-3,1,1,-9,0,-3
17:15:30:176870,0,4,0,2,-3,-1,0,6
17:15:30:191067,-5,-6,-6,-8,-5,-7,-11,-4
17:15:30:191860,-5,-6,-6,-8,-5,-7,-11,-4
17:15:30:197822,0,-3,-1,-3,0,3,-4,-6
17:15:30:213524,0,3,-1,2,5,1,9,3
17:15:30:214324,0,3,-1,2,5,1,9,3
17:15:30:220378,-2,0,0,2,-6,-2,6,-6
17:15:30:227881,-1,0,1,-7,-14,-1,9,-1
17:15:30:235411,-1,0,1,-7,-14,-1,9,-1
17:15:30:242890,1,-2,-3,3,5,-3,-21,2
17:15:30:251073,1,0,0,-5,-3,1,-7,-5
17:15:30:251879,1,0,0,-5,-3,1,-7,-5
17:15:30:257831,-1,-4,1,-6,-4,-4,5,2
17:15:30:273563,3,3,-1,2,6,0,-2,2
17:15:30:274381,3,3,-1,2,6,0,-2,2
17:15:30:280361,-5,1,-7,2,-5,-4,-19,-7
17:15:30:287857,-3,-3,5,2,1,5,7,3
17:15:30:303563,-3,-3,5,2,1,5,7,3
17:15:30:304331,-2,-2,-3,-4,-3,-6,0,-4
17:15:30:311046,-1,-2,-5,-2,-5,-8,4,-1
17:15:30:311883,-1,-2,-5,-2,-5,-8,4,-1
17:15:30:317835,4,4,1,-2,2,-1,-22,1
17:15:30:333540,-5,-17,0,7,2,-1,-24,-8
17:15:30:334335,-5,-17,0,7,2,-1,-24,-8
17:15:30:340367,2,3,1,-3,-4,-4,0,2
17:15:30:347848,4,4,-1,-8,1,2,10,2
17:15:30:355411,4,4,-1,-8,1,2,10,2
17:15:30:362838,-7,-7,-1,-3,-2,-3,-7,-2
17:15:30:371103,-3,-2,-6,-3,0,3,-3,1
17:15:30:371869,-3,-2,-6,-3,0,3,-3,1
17:15:30:377840,-1,-4,0,-3,-3,-4,-3,-4
17:15:30:393569,-3,2,2,-2,-7,-6,-12,-7
17:15:30:394362,-3,2,2,-2,-7,-6,-12,-7
17:15:30:400381,-1,1,-1,3,-1,-2,10,-3
17:15:30:407882,0,1,-1,5,3,5,-2,-2
17:15:30:415434,0,1,-1,5,3,5,-2,-2
17:15:30:422866,0,-6,-1,-3,-6,-3,-5,-3
17:15:30:431083,3,0,-7,-6,-9,-9,-10,2
17:15:30:431902,3,0,-7,-6,-9,-9,-10,2
17:15:30:437890,-1,1,0,-3,3,1,5,-2
17:15:30:453571,-1,3,2,-1,2,-8,32,8
17:15:30:454394,-1,3,2,-1,2,-8,32,8
17:15:30:460353,0,1,0,-4,0,-5,1,-2
17:15:30:467863,-3,-9,2,1,1,6,-12,-5
17:15:30:475442,-3,-9,2,1,1,6,-12,-5
17:15:30:482876,-2,0,-3,2,4,5,-4,-6
17:15:30:491013,-3,5,-1,-4,-4,-4,-12,-5
17:15:30:491854,-3,5,-1,-4,-4,-4,-12,-5
17:15:30:497911,-4,4,0,6,4,8,3,4
17:15:30:513594,0,-6,-3,1,-3,-1,-1,4
17:15:30:514386,0,-6,-3,1,-3,-1,-1,4
17:15:30:520361,3,-7,-7,0,-4,0,20,-2
17:15:30:527880,-1,1,7,-3,5,1,6,-2
17:15:30:535471,-1,1,7,-3,5,1,6,-2
17:15:30:542877,-4,-1,2,-2,-13,-6,1,4
17:15:30:551036,-1,1,3,1,9,5,-17,-5
17:15:30:551898,-1,1,3,1,9,5,-17,-5
17:15:30:557845,3,-1,-2,-1,1,-4,-6,-4
17:15:30:573526,-5,-10,-7,-5,-12,-8,-12,0
17:15:30:574347,-5,-10,-7,-5,-12,-8,-12,0
17:15:30:580384,3,0,2,1,12,11,0,1
17:15:30:588033,0,2,0,-2,-8,1,1,0
17:15:30:595379,0,2,0,-2,-8,1,1,0
17:15:30:602889,-3,0,-4,4,-5,-11,-15,-3
17:15:30:611070,3,-2,2,-3,0,0,7,4
17:15:30:611867,3,-2,2,-3,0,0,7,4
17:15:30:617839,-4,-2,-3,-9,1,-3,-2,-2
17:15:30:633550,-5,-1,0,6,-1,3,14,-3
17:15:30:634353,-5,-1,0,6,-1,3,14,-3
17:15:30:640324,1,8,2,3,1,4,-19,-6
17:15:30:647830,-3,-2,-7,1,7,0,30,3
17:15:30:655407,-3,-2,-7,1,7,0,30,3
17:15:30:662836,-1,-5,-2,1,-2,-6,2,1
17:15:30:671065,8,6,1,-3,-9,-6,-11,2
17:15:30:671851,8,6,1,-3,-9,-6,-11,2
17:15:30:677870,-7,0,0,1,-6,-10,0,6
17:15:30:693575,-3,-1,1,-1,9,10,13,3
17:15:30:694346,-3,-1,1,-1,9,10,13,3
17:15:30:700336,1,-2,0,-3,2,4,-8,-4
17:15:30:707888,-1,5,-2,-3,-4,4,26,1
17:15:30:715404,-1,5,-2,-3,-4,4,26,1
17:15:30:722859,0,3,0,-4,4,-2,-3,-2
17:15:30:731068,-3,-5,1,-2,-10,-7,-22,-1
17:15:30:731906,-3,-5,1,-2,-10,-7,-22,-1
17:15:30:737859,2,-5,1,4,3,3,9,5
17:15:30:753555,0,-4,-2,-2,-9,-11,-47,-9
17:15:30:754364,0,-4,-2,-2,-9,-11,-47,-9
17:15:30:760326,-7,-7,0,-1,-2,-3,-11,-4
17:15:30:767840,-6,-7,-4,0,2,0,-1,-6
17:15:30:775473,-6,-7,-4,0,2,0,-1,-6
17:15:30:782843,2,0,-8,2,-6,-1,12,3
17:15:30:791032,-1,3,1,-3,3,3,-1,2
17:15:30:791842,-1,3,1,-3,3,3,-1,2
17:15:30:797853,-3,-3,1,3,4,20,38,4
17:15:30:813573,-5,1,-4,3,-1,1,-24,-6
17:15:30:814391,-5,1,-4,3,-1,1,-24,-6
17:15:30:820378,-3,-2,-3,-10,-2,-8,-17,-5
17:15:30:827825,-2,-1,-6,-3,1,-5,6,0
17:15:30:835469,-2,-1,-6,-3,1,-5,6,0
17:15:30:842869,1,-4,-5,-3,-4,-8,-11,-8
17:15:30:851037,-1,-3,7,5,2,1,4,-6
17:15:30:851852,-1,-3,7,5,2,1,4,-6
17:15:30:857800,3,3,5,0,0,2,-6,0
17:15:30:873532,7,3,-2,2,-6,-2,-2,1
17:15:30:874330,7,3,-2,2,-6,-2,-2,1
17:15:30:880369,0,3,-2,-5,-1,0,-5,0
17:15:30:887865,-2,-4,-1,-4,6,-5,-2,1
17:15:30:895375,-2,-4,-1,-4,6,-5,-2,1
17:15:30:902818,-5,-2,-5,1,-2,-1,1,1
17:15:30:911107,-3,-2,-5,-2,0,5,3,-4
17:15:30:911864,-3,-2,-5,-2,0,5,3,-4
17:15:30:917830,4,3,-1,-3,-3,1,-9,-5
17:15:30:933535,2,-1,3,1,-4,-6,-5,-4
17:15:30:934363,2,-1,3,1,-4,-6,-5,-4
17:15:30:940313,1,-5,1,3,-2,0,7,5
17:15:30:947811,-3,-1,4,-3,1,5,7,-2
17:15:30:955392,-3,-1,4,-3,1,5,7,-2
17:15:30:962860,-5,-3,-4,-4,-6,-7,-4,-3
17:15:30:971078,-1,7,-7,-1,0,-5,18,5
17:15:30:971876,-1,7,-7,-1,0,-5,18,5
17:15:30:977843,0,-3,1,2,-2,-6,-2,-3
17:15:30:993575,-2,-2,2,-1,-8,-3,-7,0
17:15:30:994386,-2,-2,2,-1,-8,-3,-7,0
17:15:31:349,0,0,2,-6,3,2,-2,-1
17:15:31:7851,-2,-3,-2,0,-5,-6,-5,2
17:15:31:15436,-2,-3,-2,0,-5,-6,-5,2
17:15:31:22854,-5,-8,-5,-1,-4,-6,-3,-5
17:15:31:31052,5,0,-6,-3,0,4,20,3
17:15:31:31878,5,0,-6,-3,0,4,20,3
17:15:31:37849,1,4,1,-1,-3,3,-4,1
17:15:31:53551,4,1,1,1,6,3,5,-2
17:15:31:54373,4,1,1,1,6,3,5,-2
17:15:31:60342,-5,-8,-1,1,-1,-5,10,-2
17:15:31:67844,-4,-1,4,1,-1,5,8,3
17:15:31:75435,-4,-1,4,1,-1,5,8,3
17:15:31:82849,3,-2,0,0,1,-2,5,0
17:15:31:91041,-3,-6,-7,0,4,-1,1,-9
17:15:31:91836,-3,-6,-7,0,4,-1,1,-9
17:15:31:97900,-2,1,0,3,-4,5,6,2
17:15:31:113588,-1,-5,-4,-7,-4,2,-12,0
17:15:31:114390,-1,-5,-4,-7,-4,2,-12,0
17:15:31:120371,1,4,-4,0,1,-1,-14,-4
17:15:31:127850,-2,-4,-2,-8,0,-7,-1,-2
17:15:31:135381,-2,-4,-2,-8,0,-7,-1,-2
17:15:31:142847,2,-1,-2,4,5,4,20,2
17:15:31:151041,1,0,4,5,-2,2,18,7
17:15:31:151849,1,0,4,5,-2,2,18,7
17:15:31:165392,-2,2,-1,-4,-6,-1,-1,0
17:15:31:173544,-4,1,-2,-2,-5,0,-19,-5
17:15:31:174341,-4,1,-2,-2,-5,0,-19,-5
17:15:31:180378,-3,0,4,1,7,5,0,3
17:15:31:196047,0,-4,-3,1,-6,-7,4,2
17:15:31:196841,0,-4,-3,1,-6,-7,4,2
17:15:31:202892,3,3,0,-5,-1,-5,-5,-2
17:15:31:211019,-3,4,2,3,-2,-7,7,-2
17:15:31:211849,-3,4,2,3,-2,-7,7,-2
17:15:31:225426,-4,-6,-2,1,-4,-4,-4,3
17:15:31:233552,2,1,2,-5,-5,0,-14,-3
17:15:31:234349,2,1,2,-5,-5,0,-14,-3
17:15:31:240374,5,5,5,-1,12,4,1,4
17:15:31:256093,-3,0,-3,-9,-1,-1,-2,-5
17:15:31:256905,-3,0,-3,-9,-1,-1,-2,-5
17:15:31:262841,-9,-5,2,2,-6,-3,-18,-6
17:15:31:271037,7,5,-3,1,0,3,37,5
17:15:31:271946,7,5,-3,1,0,3,37,5
17:15:31:285356,2,1,-3,-9,-1,-4,-2,0
17:15:31:293579,-2,-6,1,5,6,-3,-37,2
17:15:31:294380,-2,-6,1,5,6,-3,-37,2
17:15:31:300351,-1,-3,0,0,-7,-1,-9,4
17:15:31:316092,1,3,-4,-3,0,-6,2,-3
17:15:31:316880,1,3,-4,-3,0,-6,2,-3
17:15:31:322855,-3,-7,-8,3,2,5,6,-5
17:15:31:331069,-3,0,2,6,-9,1,-6,-39
17:15:31:331900,-3,0,2,6,-9,1,-6,-39
17:15:31:345376,2,12,-1,-4,-4,0,9,20
17:15:31:353586,-5,-8,-3,3,8,3,3,19
17:15:31:354394,-5,-8,-3,3,8,3,3,19
17:15:31:360369,2,-1,-7,-5,-2,-3,-14,7
17:15:31:376070,-3,-3,0,-7,-7,-6,-15,0
17:15:31:376877,-3,-3,0,-7,-7,-6,-15,0
17:15:31:382863,-2,-3,8,2,4,4,5,-7
17:15:31:391044,-3,1,-3,1,-8,-4,-5,2
17:15:31:391898,-3,1,-3,1,-8,-4,-5,2
17:15:31:405436,-6,-4,-6,1,0,-8,-11,-10
17:15:31:413559,2,-2,-2,-1,1,-4,-5,1
17:15:31:414355,2,-2,-2,-1,1,-4,-5,1
17:15:31:420374,0,-8,-2,-2,-7,-6,-11,-10
17:15:31:436082,1,-2,1,-3,7,7,0,4
17:15:31:436870,1,-2,1,-3,7,7,0,4
17:15:31:442836,1,1,-1,-4,-7,1,22,5
17:15:31:450452,1,1,-1,-4,-7,1,22,5
17:15:31:457871,-2,-2,-1,0,-1,-8,-16,-4
17:15:31:465368,-4,-1,-2,5,4,-4,-17,-8
17:15:31:473588,-4,-1,-2,5,4,-4,-17,-8
17:15:31:474388,-4,-2,-5,-3,-1,0,2,2
17:15:31:480381,1,2,1,-10,-6,0,0,1
17:15:31:496088,1,2,1,-10,-6,0,0,1
17:15:31:496873,2,3,3,-1,-5,-6,-20,-1
17:15:31:502841,-6,-1,-6,2,-4,-7,-10,-7
17:15:31:510430,-6,-1,-6,2,-4,-7,-10,-7
17:15:31:517864,2,-4,-1,0,0,3,12,3
17:15:31:525349,6,1,6,1,7,18,50,5
17:15:31:533554,6,1,6,1,7,18,50,5
17:15:31:534339,-1,2,2,-4,2,3,21,-2
17:15:31:540374,0,-2,-7,-3,2,-2,-4,-3
17:15:31:556046,0,-2,-7,-3,2,-2,-4,-3
17:15:31:556817,-3,-1,-5,4,4,1,10,-1
17:15:31:562849,-4,-4,0,1,-9,-3,15,6
17:15:31:571055,-4,-4,0,1,-9,-3,15,6
17:15:31:571843,-3,0,0,-4,-3,-1,-25,3
17:15:31:585386,-1,-1,-4,2,1,-2,-10,-8
17:15:31:593552,-1,-1,-4,2,1,-2,-10,-8
17:15:31:594333,2,-3,-5,0,-1,0,-4,-2
17:15:31:600381,0,0,3,-5,-8,-9,-7,-2
17:15:31:616130,0,0,3,-5,-8,-9,-7,-2
17:15:31:616882,-1,1,4,1,3,-4,-17,-10
17:15:31:622876,-2,1,3,2,-1,-3,-10,-5
17:15:31:631023,-2,1,3,2,-1,-3,-10,-5
17:15:31:631830,-3,-3,-1,2,-1,2,16,-6
17:15:31:645345,-3,-1,0,1,5,5,0,-4
17:15:31:653623,-3,-1,0,1,5,5,0,-4
17:15:31:654426,-2,0,0,-5,-7,-7,-7,1
17:15:31:660357,-5,-2,-6,-2,-2,-2,-2,-1
17:15:31:676116,-5,-2,-6,-2,-2,-2,-2,-1
17:15:31:676899,1,-1,-3,6,-1,3,-12,-3
17:15:31:682864,2,-1,-2,-2,-1,4,0,0
17:15:31:691097,2,-1,-2,-2,-1,4,0,0
17:15:31:691884,0,-2,-2,-8,-4,-5,-9,4
17:15:31:705352,-1,-1,2,-2,1,-2,-7,-5
17:15:31:713577,-1,-1,2,-2,1,-2,-7,-5
17:15:31:714376,0,-4,0,9,10,6,15,0
17:15:31:720362,-2,-4,-1,-6,1,-2,-1,0
17:15:31:736082,-2,-4,-1,-6,1,-2,-1,0
17:15:31:736862,-6,1,3,-2,-4,1,-6,0
17:15:31:742832,-1,-3,-5,-2,-2,-3,3,3
17:15:31:751101,-1,-3,-5,-2,-2,-3,3,3
17:15:31:751903,4,1,-1,-3,-2,2,1,-1
17:15:31:765325,1,1,-1,-1,-4,-5,-8,-4
17:15:31:773596,1,1,-1,-1,-4,-5,-8,-4
17:15:31:774367,-5,-2,-2,3,3,1,12,0
17:15:31:780336,1,-6,0,-1,-2,5,23,1
17:15:31:796091,1,-6,0,-1,-2,5,23,1
17:15:31:796855,-2,3,-5,-4,-4,2,22,-6
17:15:31:802852,-5,-10,-5,-1,-7,-10,-24,2
17:15:31:811103,-5,-10,-5,-1,-7,-10,-24,2
17:15:31:811889,-2,1,3,-8,-4,-4,-9,4
17:15:31:825389,2,4,-3,4,1,0,-7,-6
17:15:31:833573,2,4,-3,4,1,0,-7,-6
17:15:31:834389,0,-3,-4,-3,-2,-5,-3,1
17:15:31:840353,1,0,4,0,0,0,-4,-1
17:15:31:856087,1,0,4,0,0,0,-4,-1
17:15:31:856875,-3,-6,-1,-2,0,-3,-12,-4
17:15:31:862830,-1,3,1,-1,-4,0,12,0
17:15:31:871073,-1,3,1,-1,-4,0,12,0
17:15:31:871867,-1,3,-4,-1,3,-4,-7,-3
17:15:31:885389,-2,1,1,-4,-1,-2,-12,-3
17:15:31:893586,-2,1,1,-4,-1,-2,-12,-3
17:15:31:894345,1,-1,-1,3,-6,-2,9,1
17:15:31:900341,-3,1,-5,-1,-1,-3,4,4
17:15:31:916045,-3,1,-5,-1,-1,-3,4,4
17:15:31:916864,3,-1,3,-4,-3,-10,1,5
17:15:31:922888,-1,1,-1,4,1,-6,-13,-10
17:15:31:931050,-1,1,-1,4,1,-6,-13,-10
17:15:31:931866,-3,2,-2,1,2,3,-13,-1
17:15:31:945392,2,-5,3,-3,5,20,47,5
17:15:31:953556,2,-5,3,-3,5,20,47,5
17:15:31:954341,0,-4,-3,-7,-5,2,-6,-7
17:15:31:960334,-4,-5,-8,-7,-5,-8,-20,-1
17:15:31:976067,-4,-5,-8,-7,-5,-8,-20,-1
17:15:31:976835,1,2,5,2,-3,5,-7,-2
17:15:31:982859,3,2,3,-2,3,-6,10,-4
17:15:31:991062,3,2,3,-2,3,-6,10,-4
17:15:31:991838,-4,-5,-9,-3,-3,-6,8,8
17:15:32:5412,1,1,-3,1,7,6,-6,3
17:15:32:13529,1,1,-3,1,7,6,-6,3
17:15:32:14345,-2,-1,-2,-5,-4,-1,3,0
17:15:32:20394,2,1,-1,-5,-10,0,14,0
17:15:32:36099,2,1,-1,-5,-10,0,14,0
17:15:32:36883,1,-3,-5,-6,-4,10,21,5
17:15:32:42927,-8,-1,4,3,-2,-5,-5,-2
17:15:32:51043,-8,-1,4,3,-2,-5,-5,-2
17:15:32:51849,-9,-3,4,1,3,-5,0,-6
17:15:32:65359,0,1,2,6,2,2,-13,-9
17:15:32:73528,0,1,2,6,2,2,-13,-9
17:15:32:74320,5,1,-2,3,3,-9,-12,-1
17:15:32:80349,2,-7,-7,-4,4,5,-16,3
17:15:32:96118,2,-7,-7,-4,4,5,-16,3
17:15:32:96859,1,-3,0,3,-8,-8,-5,-4
17:15:32:102865,3,-4,1,2,-3,-4,-14,0
17:15:32:110386,3,-4,1,2,-3,-4,-14,0
17:15:32:117911,-1,2,-4,-3,4,0,-27,1
17:15:32:125359,-3,2,-2,-3,-3,-4,-9,-4
17:15:32:133544,-3,2,-2,-3,-3,-4,-9,-4
17:15:32:134345,-2,4,2,0,-3,-2,3,-2
17:15:32:147870,-1,-2,0,1,2,-5,-13,-3
17:15:32:156042,-1,-2,0,1,2,-5,-13,-3
17:15:32:156843,-2,-4,4,-6,-1,-3,-7,-1
17:15:32:162840,-2,3,-1,-1,5,4,9,-2
17:15:32:170417,-2,3,-1,-1,5,4,9,-2
17:15:32:177799,0,-6,-4,2,6,9,5,-1
17:15:32:185382,-4,-4,-5,-2,-14,-1,11,0
17:15:32:193568,-4,-4,-5,-2,-14,-1,11,0
17:15:32:194348,-1,0,-1,4,-1,-8,-8,-8
17:15:32:207868,-2,1,5,1,5,1,-1,-3
17:15:32:216028,-2,1,5,1,5,1,-1,-3
17:15:32:216857,2,-1,-4,-6,-6,0,19,2
17:15:32:222828,-2,-2,-5,-1,-3,-3,-11,0
17:15:32:230367,-2,-2,-5,-1,-3,-3,-11,0
17:15:32:237846,0,-2,0,2,0,0,0,0
17:15:32:245334,1,-2,4,-3,3,-4,30,8
17:15:32:253573,1,-2,4,-3,3,-4,30,8
17:15:32:254394,4,2,2,-3,-6,-5,-10,3
17:15:32:267876,1,2,-5,-3,-3,-1,-3,-2
17:15:32:276054,1,2,-5,-3,-3,-1,-3,-2
17:15:32:276852,-3,3,1,-2,1,1,-6,-6
17:15:32:282834,-2,-2,-1,-1,-9,2,16,4
17:15:32:290412,-2,-2,-1,-1,-9,2,16,4
17:15:32:297862,-7,-2,-2,-2,-1,3,-8,-1
17:15:32:305351,-1,-2,-1,-2,-1,0,-9,-4
17:15:32:313594,-1,-2,-1,-2,-1,0,-9,-4
17:15:32:314385,-1,-4,-4,-2,-1,-4,-16,-7
17:15:32:327920,-4,-1,-1,-2,-7,-12,-10,-2
17:15:32:336113,-4,-1,-1,-2,-7,-12,-10,-2
17:15:32:336886,0,4,8,-2,2,-2,1,-6
17:15:32:342874,2,-3,-2,3,2,3,10,8
17:15:32:350443,2,-3,-2,3,2,3,10,8
17:15:32:357893,-6,0,-3,-1,-1,2,7,-4
17:15:32:365374,2,2,0,-8,-1,-4,-27,-1
17:15:32:373570,2,2,0,-8,-1,-4,-27,-1
17:15:32:374339,3,-4,-2,2,3,2,14,5
17:15:32:387897,-1,-4,-4,2,2,5,14,-5
17:15:32:396127,-1,-4,-4,2,2,5,14,-5
17:15:32:396870,0,-4,1,2,-4,0,2,0
17:15:32:402853,-2,0,-4,2,3,-1,3,-3
17:15:32:410432,-2,0,-4,2,3,-1,3,-3
17:15:32:417906,-1,3,-2,1,2,-5,-3,4
17:15:32:425360,0,-1,0,2,-1,4,-4,-4
17:15:32:433552,0,-1,0,2,-1,4,-4,-4
17:15:32:434373,-4,-2,3,2,0,5,12,-2
17:15:32:447849,-5,1,4,-1,1,3,1,2
17:15:32:456119,-5,1,4,-1,1,3,1,2
17:15:32:456860,1,-5,-1,-1,-4,2,11,2
17:15:32:462850,-2,3,-4,-6,1,-3,-6,-8
17:15:32:470416,-2,3,-4,-6,1,-3,-6,-8
17:15:32:477824,-5,-1,-5,-4,-6,-1,-6,-2
17:15:32:485351,-3,-5,-1,-4,1,-3,9,1
17:15:32:493584,-3,-5,-1,-4,1,-3,9,1
17:15:32:494343,1,0,-1,-4,0,5,34,0
17:15:32:507880,2,0,-2,4,-1,-2,-11,1
17:15:32:516067,2,0,-2,4,-1,-2,-11,1
17:15:32:516864,1,-4,3,1,0,-10,-22,-1
17:15:32:522830,-4,-1,0,0,-5,4,11,0
17:15:32:530382,-4,-1,0,0,-5,4,11,0
17:15:32:537864,2,4,-1,-3,1,-4,-6,4
17:15:32:545343,-1,-8,-3,-9,-3,-7,-6,-5
17:15:32:553576,-1,-8,-3,-9,-3,-7,-6,-5
17:15:32:554376,0,-3,-3,-5,0,3,22,-2
17:15:32:567832,3,1,5,-1,-5,5,15,4
17:15:32:576044,3,1,5,-1,-5,5,15,4
17:15:32:576848,-6,2,1,2,-4,-2,-20,-4
17:15:32:582824,-2,-1,-3,2,-5,-9,-26,-14
17:15:32:590429,-2,-1,-3,2,-5,-9,-26,-14
17:15:32:597869,2,-1,-8,0,1,7,13,3
17:15:32:605343,-1,3,2,2,1,-7,-43,0
17:15:32:613331,-1,3,2,2,1,-7,-43,0
17:15:32:620372,-5,-5,1,-3,-2,-4,-7,-1
17:15:32:627861,6,-4,-2,-4,0,0,27,9
17:15:32:636057,6,-4,-2,-4,0,0,27,9
17:15:32:636832,1,2,-2,1,-1,-4,0,0
17:15:32:642841,0,5,-1,1,-3,-5,-17,-1
17:15:32:650403,0,5,-1,1,-3,-5,-17,-1
17:15:32:657811,-2,-3,-1,1,6,7,7,0
17:15:32:665390,0,0,-4,-6,8,8,29,-7
17:15:32:673557,0,0,-4,-6,8,8,29,-7
17:15:32:674353,-1,-2,-7,-5,-6,-6,-18,4
17:15:32:687866,1,-4,-1,-11,-15,-11,-9,-3
17:15:32:696027,1,-4,-1,-11,-15,-11,-9,-3
17:15:32:696846,-2,1,8,-1,-5,-4,-11,-10
17:15:32:702807,-6,-1,1,5,5,6,32,5
17:15:32:710386,-6,-1,1,5,5,6,32,5
17:15:32:717846,2,-4,-6,0,2,0,12,-2
17:15:32:725341,3,-1,-1,-1,-5,-7,-20,-1
17:15:32:741063,3,-1,-1,-1,-5,-7,-20,-1
17:15:32:741851,-1,-3,5,-3,-7,0,-1,0
17:15:32:747903,-7,0,1,4,8,2,-16,-3
17:15:32:756070,-7,0,1,4,8,2,-16,-3
17:15:32:756864,-1,-4,-1,-3,3,0,3,1
17:15:32:762830,-2,-1,-1,-5,-5,-6,3,-1
17:15:32:770436,-2,-1,-1,-5,-5,-6,3,-1
17:15:32:777837,2,3,-5,-3,-2,-5,1,-3
17:15:32:785362,-1,-4,-5,0,2,-5,-18,-2
17:15:32:793582,-1,-4,-5,0,2,-5,-18,-2
17:15:32:794401,-6,1,0,-4,1,-6,-14,-4
17:15:32:807853,-1,-2,-2,4,-5,0,-8,0
17:15:32:816052,-1,-2,-2,4,-5,0,-8,0
17:15:32:816865,-2,1,-2,3,-7,1,-20,0
17:15:32:822835,0,-1,2,0,8,4,-17,-4
17:15:32:830420,0,-1,2,0,8,4,-17,-4
17:15:32:846029,2,-2,-2,-3,3,3,17,4
17:15:32:846851,-3,-9,-3,0,-3,4,15,0
17:15:32:853589,-3,-9,-3,0,-3,4,15,0
17:15:32:854353,-3,2,-1,4,-5,1,-21,-6
17:15:32:867819,-5,1,-3,-5,-3,-9,-28,-5
17:15:32:876077,-5,1,-3,-5,-3,-9,-28,-5
17:15:32:876852,2,-1,2,0,1,-2,2,-1
17:15:32:882843,-2,-2,-2,-6,-10,-4,9,-3
17:15:32:890452,-2,-2,-2,-6,-10,-4,9,-3
17:15:32:897829,1,-6,-4,-2,-1,-3,0,-3
17:15:32:905350,-2,-1,-1,1,2,-2,7,-4
17:15:32:913623,-2,-1,-1,1,2,-2,7,-4
17:15:32:914377,-2,3,1,2,10,8,23,3
17:15:32:927838,-3,2,-3,5,0,4,-13,0
17:15:32:936064,-3,2,-3,5,0,4,-13,0
17:15:32:936874,1,2,4,1,2,4,-4,-3
17:15:32:951040,-4,1,-1,-6,-4,1,4,0
17:15:32:951848,-4,1,-1,-6,-4,1,4,0
17:15:32:957836,2,-5,-4,-1,-6,-5,-11,-2
17:15:32:965340,3,-3,3,-4,7,-1,2,-4
17:15:32:973568,3,-3,3,-4,7,-1,2,-4
17:15:32:974402,-10,-1,-1,-1,-5,-3,-8,-4
17:15:32:987860,1,3,-2,5,-7,1,3,5
17:15:32:996073,1,3,-2,5,-7,1,3,5
17:15:32:996856,2,3,-4,-4,-2,5,-4,1
17:15:33:2845,-1,-3,-2,-6,-5,-19,-34,-5
17:15:33:10447,-1,-3,-2,-6,-5,-19,-34,-5
17:15:33:17839,0,-6,-1,8,5,2,23,-7
17:15:33:25358,-1,-2,2,8,3,-2,-2,2
17:15:33:33592,-1,-2,2,8,3,-2,-2,2
17:15:33:34363,3,2,4,-4,-3,-2,-5,-1
17:15:33:47869,-1,-1,1,-4,-1,4,18,4
17:15:33:56128,-1,-1,1,-4,-1,4,18,4
17:15:33:56899,1,0,-3,-3,5,1,2,-5
17:15:33:70831,-2,1,-4,-2,0,8,14,0
17:15:33:78577,-2,1,-4,-2,0,8,14,0
17:15:33:79356,-4,0,-1,1,-3,-3,-18,-2
17:15:33:85365,-5,-5,-5,-1,-3,-3,-22,-9
17:15:33:93104,-5,-5,-5,-1,-3,-3,-22,-9
17:15:33:100381,5,-3,0,0,2,-2,14,5
17:15:33:107869,1,1,0,-3,-5,-7,11,4
17:15:33:116081,1,1,0,-3,-5,-7,11,4
17:15:33:116854,-6,1,-2,-1,-6,2,-7,2
17:15:33:131109,-1,-3,0,-3,2,-2,5,-6
17:15:33:131904,-1,-3,0,-3,2,-2,5,-6
17:15:33:137894,1,-6,-6,-8,-3,-5,3,-2
17:15:33:145404,3,2,-2,-1,0,-3,-7,3
17:15:33:152892,3,2,-2,-1,0,-3,-7,3
17:15:33:160361,-5,-1,0,4,-4,-2,-14,-2
17:15:33:167891,1,1,-1,1,-2,5,42,2
17:15:33:176060,1,1,-1,1,-2,5,42,2
17:15:33:176858,-3,-3,-4,-4,-3,-6,-20,-4
17:15:33:191087,-3,-6,-4,2,-5,-3,-8,1
17:15:33:191840,-3,-6,-4,2,-5,-3,-8,1
17:15:33:197859,1,1,1,0,3,1,12,2
17:15:33:205399,2,-1,2,-1,-5,-5,-4,-3
17:15:33:212909,2,-1,2,-1,-5,-5,-4,-3
17:15:33:220320,-1,-4,-5,-4,-6,-6,-9,0
17:15:33:227860,-3,2,2,-4,7,11,3,8
17:15:33:236088,-3,2,2,-4,7,11,3,8
17:15:33:236858,2,2,-1,2,1,10,48,3
17:15:33:251058,-1,-2,4,3,-2,-2,-10,-1
17:15:33:251881,-1,-2,4,3,-2,-2,-10,-1
17:15:33:257830,0,-7,2,-7,-6,-5,-8,1
17:15:33:265310,0,4,-5,6,6,5,1,-3
17:15:33:272908,0,4,-5,6,6,5,1,-3
17:15:33:280345,-4,0,-3,0,-3,-2,-7,-7
17:15:33:287851,0,1,-2,-4,-3,-1,-8,2
17:15:33:296092,0,1,-2,-4,-3,-1,-8,2
17:15:33:296865,-1,0,2,5,2,5,1,-2
17:15:33:311130,2,-2,2,-4,-1,-7,-10,-7
17:15:33:311978,2,-2,2,-4,-1,-7,-10,-7
17:15:33:317847,-1,-3,-2,-3,6,2,4,2
17:15:33:325363,-5,-5,-2,-1,-1,-8,-7,-7
17:15:33:332943,-5,-5,-2,-1,-1,-8,-7,-7
17:15:33:340373,0,0,1,3,-2,-10,-14,4
17:15:33:347847,-1,3,0,-4,-6,-2,6,2
17:15:33:356087,-1,3,0,-4,-6,-2,6,2
17:15:33:356886,-5,-9,-1,-1,-6,0,-2,3
17:15:33:371072,-4,-2,0,-2,-1,0,-3,-4
17:15:33:371890,-4,-2,0,-2,-1,0,-3,-4
17:15:33:377830,0,0,-3,-5,3,-2,2,-5
17:15:33:385360,1,-2,-4,0,-7,-1,3,0
17:15:33:392918,1,-2,-4,0,-7,-1,3,0
17:15:33:400375,2,2,-3,3,-2,-2,16,10
17:15:33:407857,-6,-2,-10,0,10,13,13,2
17:15:33:416057,-6,-2,-10,0,10,13,13,2
17:15:33:416847,-2,-1,1,1,-5,-3,-29,-4
17:15:33:431090,-5,-4,2,-6,-4,-6,-9,-2
17:15:33:431922,-5,-4,2,-6,-4,-6,-9,-2
17:15:33:437871,-1,3,2,-4,-1,0,4,-6
17:15:33:445375,3,4,1,3,1,1,-1,-7
17:15:33:452874,3,4,1,3,1,1,-1,-7
17:15:33:460374,0,0,-1,-2,1,-1,-3,-5
17:15:33:467879,0,-2,-3,-2,-1,-2,3,4
17:15:33:476059,0,-2,-3,-2,-1,-2,3,4
17:15:33:476853,-1,1,0,1,4,-3,-5,2
17:15:33:491049,-1,0,4,-3,-5,-2,-10,0
17:15:33:491852,-1,0,4,-3,-5,-2,-10,0
17:15:33:497863,0,-1,-3,-4,0,-4,-4,-4
17:15:33:505374,3,-1,-5,1,2,3,10,0
17:15:33:512904,3,-1,-5,1,2,3,10,0
17:15:33:520336,-2,-1,1,1,-4,0,-5,-1
17:15:33:527840,-1,-3,-2,5,6,8,40,7
17:15:33:536463,-1,-3,-2,5,6,8,40,7
17:15:33:542852,-1,1,0,0,-7,-1,7,-2
17:15:33:551051,0,-1,2,-4,-2,-9,-15,-3
17:15:33:551870,0,-1,2,-4,-2,-9,-15,-3
17:15:33:557845,-4,-6,1,0,6,0,4,1
17:15:33:565340,2,-6,-6,-2,-6,0,-9,-2
17:15:33:572943,2,-6,-6,-2,-6,0,-9,-2
17:15:33:580333,2,-1,-1,-1,-3,2,-15,-8
17:15:33:587852,-3,1,6,1,-1,0,-11,-1
17:15:33:596050,-3,1,6,1,-1,0,-11,-1
17:15:33:596830,-3,1,0,2,-2,2,11,4
17:15:33:611102,0,-2,-11,-10,-1,-2,-1,2
17:15:33:611917,0,-2,-11,-10,-1,-2,-1,2
17:15:33:617871,-2,0,-8,-5,-1,0,-7,-5
17:15:33:633565,-2,-1,3,1,-3,0,-14,-3
17:15:33:634355,-2,-1,3,1,-3,0,-14,-3
17:15:33:640347,-5,-10,2,-1,6,12,38,6
17:15:33:647843,-1,-4,-4,6,0,1,7,0
17:15:33:656088,-1,-4,-4,6,0,1,7,0
17:15:33:656861,0,4,0,0,-2,-10,-15,-7
17:15:33:671088,1,1,0,-1,6,-1,-13,-5
17:15:33:671854,1,1,0,-1,6,-1,-13,-5
17:15:33:677837,-2,-5,-2,-6,-3,0,-11,3
17:15:33:685376,2,-3,0,-3,-11,-6,-6,0
17:15:33:692902,2,-3,0,-3,-11,-6,-6,0
17:15:33:700398,-4,7,3,5,6,11,14,5
17:15:33:707871,0,7,-1,6,0,-1,5,-2
17:15:33:716090,0,7,-1,6,0,-1,5,-2
17:15:33:716849,1,-6,-4,2,1,-4,-14,-4
17:15:33:731066,-5,-3,2,-4,-1,-1,-6,0
17:15:33:731865,-5,-3,2,-4,-1,-1,-6,0
17:15:33:737951,2,4,-1,0,-5,-7,-4,-1
17:15:33:753562,-1,-2,-2,5,5,-3,0,-4
17:15:33:754392,-1,-2,-2,5,5,-3,0,-4
17:15:33:760325,-2,-1,1,-3,-3,-4,-11,-3
17:15:33:767870,-4,-5,-7,-6,-5,1,16,-2
17:15:33:776099,-4,-5,-7,-6,-5,1,16,-2
17:15:33:776919,1,3,2,-2,-8,-4,-3,0
17:15:33:791099,0,2,0,1,4,-3,-11,1
17:15:33:791888,0,2,0,1,4,-3,-11,1
17:15:33:797841,1,-3,-4,0,2,-2,-4,-7
17:15:33:805382,-2,-3,6,-5,-8,2,-7,3
17:15:33:812932,-2,-3,6,-5,-8,2,-7,3
17:15:33:820462,-1,0,1,-5,-4,-1,-1,2
17:15:33:827861,0,-1,-2,0,5,0,-3,-4
17:15:33:836066,0,-1,-2,0,5,0,-3,-4
17:15:33:836943,-1,2,0,-4,-2,-4,-15,-6
17:15:33:851051,1,1,-4,-1,1,0,4,5
17:15:33:851859,1,1,-4,-1,1,0,4,5
17:15:33:857877,0,-2,-7,-2,-1,-4,0,0
17:15:33:865489,1,-2,2,-7,-7,-9,-3,-10
17:15:33:872897,1,-2,2,-7,-7,-9,-3,-10
17:15:33:880462,-5,-1,0,-4,-3,-2,6,0
17:15:33:887899,0,2,-4,-4,-4,4,4,-1
17:15:33:896058,0,2,-4,-4,-4,4,4,-1
17:15:33:896854,-2,-2,-2,-1,-7,-3,-2,-5
17:15:33:911068,-2,-1,-1,2,-6,-1,-9,2
17:15:33:911855,-2,-1,-1,2,-6,-1,-9,2
17:15:33:917852,0,-4,-4,3,12,12,15,6
17:15:33:925378,0,-1,-1,4,-2,-3,2,0
17:15:33:932882,0,-1,-1,4,-2,-3,2,0
17:15:33:940354,1,-1,1,-3,0,-2,18,2
17:15:33:947808,-1,3,0,-2,3,4,9,0
17:15:33:956083,-1,3,0,-2,3,4,9,0
17:15:33:956887,-4,-7,-2,4,4,12,64,7
17:15:33:971069,3,-2,2,-1,6,2,12,1
17:15:33:971872,3,-2,2,-1,6,2,12,1
17:15:33:977821,4,1,-3,-5,-7,-10,-19,-6
17:15:33:985330,0,-1,1,0,-6,-6,-4,-2
17:15:33:992921,0,-1,1,0,-6,-6,-4,-2
17:15:34:346,-1,1,3,1,-4,3,-15,3
17:15:34:7864,0,-2,0,-2,5,-2,-17,-3
17:15:34:15430,0,-2,0,-2,5,-2,-17,-3
17:15:34:22875,-5,-5,-1,-3,-3,-9,-23,-4
17:15:34:31079,-5,-8,-6,4,-7,4,4,-3
17:15:34:31917,-5,-8,-6,4,-7,4,4,-3
17:15:34:37931,0,-3,-3,0,2,0,-2,-4
17:15:34:53586,-2,5,3,-7,-1,-3,0,0
17:15:34:54395,-2,5,3,-7,-1,-3,0,0
17:15:34:60359,-3,-5,1,-1,-1,-2,2,-5
17:15:34:67876,-1,4,-7,2,-4,-4,-1,-2
17:15:34:75453,-1,4,-7,2,-4,-4,-1,-2
17:15:34:82877,1,5,1,-4,-8,-16,-35,3
17:15:34:91049,3,-1,3,-7,1,3,5,-1
17:15:34:91852,3,-1,3,-7,1,3,5,-1
17:15:34:97870,-2,-7,3,7,0,0,-6,-2
17:15:34:113488,-1,-5,-4,1,2,1,-3,1
17:15:34:114319,-1,-5,-4,1,2,1,-3,1
17:15:34:120394,-1,1,-12,-5,-5,-5,-5,0
17:15:34:127853,-4,-1,0,-2,-1,-4,-3,-1
17:15:34:135402,-4,-1,0,-2,-1,-4,-3,-1
17:15:34:142922,2,1,3,1,-2,3,3,-4
17:15:34:151074,1,-1,0,-5,1,-1,-1,-1
17:15:34:151838,1,-1,0,-5,1,-1,-1,-1
17:15:34:157812,-2,1,3,-10,1,7,3,4
17:15:34:173528,-5,-2,3,1,-5,-5,-14,-4
17:15:34:174390,-5,-2,3,1,-5,-5,-14,-4
17:15:34:188538,0,1,-4,9,18,13,6,-3
17:15:34:189320,2,-4,-4,1,1,4,4,-2
17:15:34:195438,2,-4,-4,1,1,4,4,-2
17:15:34:202893,-2,-5,0,-6,-5,-6,-11,-2
17:15:34:211024,-4,-2,-1,-3,0,-1,3,0
17:15:34:211901,-4,-2,-1,-3,0,-1,3,0
17:15:34:217877,2,6,-1,2,-3,-2,-5,0
17:15:34:233523,-1,-2,1,-4,-10,-3,-1,3
17:15:34:234341,-1,-2,1,-4,-10,-3,-1,3
17:15:34:240364,-2,2,-4,-8,-5,-5,1,-3
17:15:34:247876,-2,0,-9,-11,-1,1,-9,-1
17:15:34:255424,-2,0,-9,-11,-1,1,-9,-1
17:15:34:262864,-2,-1,4,9,0,2,0,-1
17:15:34:271107,1,-2,-1,2,-2,-3,5,2
17:15:34:271875,1,-2,-1,2,-2,-3,5,2
17:15:34:277812,-1,-6,-7,-7,-6,-12,0,-2
17:15:34:293548,-2,1,1,5,4,9,-8,0
17:15:34:294364,-2,1,1,5,4,9,-8,0
17:15:34:300332,-2,-3,1,-2,-3,-4,-1,2
17:15:34:307883,0,-6,3,1,1,4,10,-2
17:15:34:315404,0,-6,3,1,1,4,10,-2
17:15:34:322834,-3,2,1,-1,5,2,3,2
17:15:34:331050,-3,-4,0,2,-3,-4,-5,-3
17:15:34:331873,-3,-4,0,2,-3,-4,-5,-3
17:15:34:337878,-2,-4,0,0,1,0,-6,-4
17:15:34:353598,2,3,1,2,7,3,-3,1
17:15:34:354372,2,3,1,2,7,3,-3,1
17:15:34:360318,0,5,-1,-1,-2,2,9,-1
17:15:34:367841,-1,-1,-4,3,-10,-21,-12,-2
17:15:34:375404,-1,-1,-4,3,-10,-21,-12,-2
17:15:34:382851,4,-1,0,-2,-2,-8,-18,-4
17:15:34:391079,-2,-2,1,-5,0,10,42,7
17:15:34:391916,-2,-2,1,-5,0,10,42,7
17:15:34:397851,0,-5,0,5,-2,-3,0,-1
17:15:34:413576,-1,1,-7,-5,-7,-7,-20,-2
17:15:34:414391,-1,1,-7,-5,-7,-7,-20,-2
17:15:34:420375,0,3,0,7,2,7,8,-1
17:15:34:427882,-2,0,0,5,5,3,2,-3
17:15:34:435440,-2,0,0,5,5,3,2,-3
17:15:34:443038,-1,-5,-3,-9,-10,-4,-10,3
17:15:34:451070,-1,-1,-5,1,6,8,-5,-7
17:15:34:451845,-1,-1,-5,1,6,8,-5,-7
17:15:34:457852,-5,-7,-3,-2,2,-4,1,1
17:15:34:473568,-1,-2,0,2,12,-1,-5,1
17:15:34:474397,-1,-2,0,2,12,-1,-5,1
17:15:34:480352,0,2,3,3,-5,-2,6,0
17:15:34:487893,-1,-1,-3,-1,-9,1,0,-1
17:15:34:495400,-1,-1,-3,-1,-9,1,0,-1
17:15:34:502922,-6,-8,2,-15,-6,0,0,-5
17:15:34:511069,-2,0,7,-15,-17,-12,-13,-3
17:15:34:511853,-2,0,7,-15,-17,-12,-13,-3
17:15:34:517894,1,3,-3,1,-6,-12,0,8
17:15:34:533532,3,2,-7,4,10,14,5,0
17:15:34:534361,3,2,-7,4,10,14,5,0
17:15:34:540373,5,3,-1,7,10,6,8,-4
17:15:34:547883,2,-5,-11,-13,-7,-13,4,-3
17:15:34:555427,2,-5,-11,-13,-7,-13,4,-3
17:15:34:562915,0,-18,5,4,11,10,-12,-1
17:15:34:571072,-8,1,6,18,8,-2,4,6
17:15:34:571856,-8,1,6,18,8,-2,4,6
17:15:34:577847,-2,0,-6,2,-5,-11,0,-5
17:15:34:593543,3,2,3,-7,0,7,-2,-7
17:15:34:594343,3,2,3,-7,0,7,-2,-7
17:15:34:600357,0,6,-6,-10,-15,0,4,-1
17:15:34:607855,-4,-15,-2,1,-8,-13,-18,-5
17:15:34:615460,-4,-15,-2,1,-8,-13,-18,-5
17:15:34:622840,-3,-8,5,-1,12,9,0,2
17:15:34:631053,1,5,4,2,0,-1,4,1
17:15:34:631871,1,5,4,2,0,-1,4,1
17:15:34:637906,-7,-2,-8,2,0,-9,-6,-2
17:15:34:653556,0,7,-2,5,4,7,-3,5
17:15:34:654382,0,7,-2,5,4,7,-3,5
17:15:34:660342,0,5,0,3,8,10,5,-4
17:15:34:676063,0,5,0,3,8,10,5,-4
17:15:34:676879,-3,0,-4,-1,-8,-3,-1,-3
17:15:34:682810,2,3,4,-14,-2,-1,0,6
17:15:34:691056,2,3,4,-14,-2,-1,0,6
17:15:34:691868,-8,-3,-2,-17,-6,-8,-1,-3
17:15:34:697887,2,2,0,-15,-11,-11,-6,-3
17:15:34:713604,2,2,0,-15,-11,-11,-6,-3
17:15:34:714384,-1,-6,-4,9,-9,12,2,-1
17:15:34:720338,1,1,-3,2,6,-4,-1,-3
17:15:34:744270,1,1,-3,2,6,-4,-1,-3
17:15:34:745085,-8,-8,2,-9,2,-9,-8,-1
17:15:34:745904,0,-3,1,3,-8,-2,-8,-2
17:15:34:751061,0,-3,1,3,-8,-2,-8,-2
17:15:34:751835,4,10,1,5,14,3,-3,-3
17:15:34:757868,1,1,-2,4,4,4,-7,1
17:15:34:773627,1,1,-2,4,4,4,-7,1
17:15:34:774393,-1,-2,-5,-7,-8,-6,-4,2
17:15:34:780355,-5,-2,-1,7,5,-1,3,-1
17:15:34:796098,-5,-2,-1,7,5,-1,3,-1
17:15:34:796868,-1,3,-5,2,7,2,1,-3
17:15:34:802876,-2,-4,-2,-9,-23,-10,1,-6
17:15:34:811090,-2,-4,-2,-9,-23,-10,1,-6
17:15:34:811888,4,-5,1,6,20,9,-6,-5
17:15:34:817868,0,7,-1,11,16,8,-8,-7
17:15:34:833586,0,7,-1,11,16,8,-8,-7
17:15:34:834376,-6,-3,1,3,0,4,3,-6
17:15:34:840334,1,-8,-1,-10,4,4,4,4
17:15:34:856046,1,-8,-1,-10,4,4,4,4
17:15:34:856854,0,-1,2,14,5,0,3,0
17:15:34:862824,-3,0,-6,19,5,5,-4,0
17:15:34:871112,-3,0,-6,19,5,5,-4,0
17:15:34:871895,4,-1,1,-15,-15,-14,-9,0
17:15:34:877845,0,-2,5,-5,1,2,16,-1
17:15:34:893651,0,-2,5,-5,1,2,16,-1
17:15:34:894397,-2,0,3,6,4,7,1,3
17:15:34:900353,-4,1,-2,-3,-2,-2,15,0
17:15:34:916236,-4,1,-2,-3,-2,-2,15,0
17:15:34:916860,1,-4,-6,1,-4,-6,0,3
17:15:34:922832,1,0,-3,-3,1,-1,-10,-7
17:15:34:931055,1,0,-3,-3,1,-1,-10,-7
17:15:34:931864,-1,1,3,-20,-8,-6,4,3
17:15:34:945346,-2,1,-8,-12,-18,-10,-3,-3
17:15:34:953567,-2,1,-8,-12,-18,-10,-3,-3
17:15:34:954370,5,3,-1,2,-5,0,-5,-1
17:15:34:960319,2,-4,2,-7,-11,-12,-11,-3
17:15:34:976048,2,-4,2,-7,-11,-12,-11,-3
17:15:34:976887,0,-1,3,10,-6,-2,-2,1
17:15:34:982812,-3,-3,-6,-1,4,6,-7,5
17:15:34:991057,-3,-3,-6,-1,4,6,-7,5
17:15:34:991838,-5,-14,-4,-7,-11,-8,1,-2
17:15:35:5308,2,2,1,2,4,-2,2,-4
17:15:35:13289,2,2,1,2,4,-2,2,-4
17:15:35:21007,0,7,-6,6,9,0,2,-1
17:15:35:21781,-5,-1,3,-9,-2,4,-1,3
17:15:35:36066,-5,-1,3,-9,-2,4,-1,3
17:15:35:36864,0,4,3,-5,0,1,3,3
17:15:35:42864,0,-4,-2,2,-2,-9,-7,-1
17:15:35:51061,0,-4,-2,2,-2,-9,-7,-1
17:15:35:51845,2,-5,-6,-2,-9,-5,-2,-8
17:15:35:65344,0,0,2,16,0,-4,-5,-4
17:15:35:73545,0,0,2,16,0,-4,-5,-4
17:15:35:74352,-3,3,1,2,8,5,-5,-1
17:15:35:80321,-4,0,-2,-4,7,4,6,2
17:15:35:96069,-4,0,-2,-4,7,4,6,2
17:15:35:96830,1,0,-1,6,2,4,1,3
17:15:35:102885,1,4,2,-13,-3,3,1,1
17:15:35:111113,1,4,2,-13,-3,3,1,1
17:15:35:111846,1,-3,4,-4,-6,3,-6,-2
17:15:35:125352,-2,-4,-9,-3,-4,-2,-2,1
17:15:35:133545,-2,-4,-9,-3,-4,-2,-2,1
17:15:35:134334,-5,0,-2,-2,-1,-1,13,5
17:15:35:140374,2,4,7,3,-7,3,3,-5
17:15:35:156118,2,4,7,3,-7,3,3,-5
17:15:35:156848,-2,1,-9,-5,-4,-11,-8,-10
17:15:35:162915,1,-3,-3,-3,-3,-5,-9,-2
17:15:35:171065,1,-3,-3,-3,-3,-5,-9,-2
17:15:35:171846,1,2,-2,-4,2,-1,2,7
17:15:35:185369,-5,-2,17,7,1,1,4,-1
17:15:35:193604,-5,-2,17,7,1,1,4,-1
17:15:35:194331,-4,0,-7,-12,-6,2,-1,-2
17:15:35:200369,-2,-4,-5,-7,0,-4,-6,-1
17:15:35:216099,-2,-4,-5,-7,0,-4,-6,-1
17:15:35:216873,2,-3,-3,4,-5,-1,3,-5
17:15:35:222869,-1,-1,-4,2,15,11,-3,6
17:15:35:231064,-1,-1,-4,2,15,11,-3,6
17:15:35:231847,-5,-4,5,5,1,-6,1,-1
17:15:35:245334,5,3,-1,5,10,11,7,-3
17:15:35:253706,5,3,-1,5,10,11,7,-3
17:15:35:254383,2,-1,5,-11,-11,-10,-5,-2
17:15:35:260352,-2,0,-3,7,13,-2,0,-1
17:15:35:276175,-2,0,-3,7,13,-2,0,-1
17:15:35:276882,1,-2,5,-1,1,9,4,-2
17:15:35:282848,-4,-3,-2,13,-8,-9,-1,-3
17:15:35:298576,-4,-3,-2,13,-8,-9,-1,-3
17:15:35:299395,-5,0,1,-1,-2,-5,-2,0
17:15:35:305350,-1,-2,-4,-14,-5,-1,-5,-1
17:15:35:313566,-1,-2,-4,-14,-5,-1,-5,-1
17:15:35:314398,-1,6,12,4,-1,-1,2,5
17:15:35:320367,2,-3,-6,9,-5,-6,5,2
17:15:35:336066,2,-3,-6,9,-5,-6,5,2
17:15:35:336867,5,-5,-6,-2,8,13,0,-4
17:15:35:342826,-1,1,3,-19,-10,-6,-6,-5
17:15:35:351103,-1,1,3,-19,-10,-6,-6,-5
17:15:35:351865,-2,2,6,-8,15,12,4,-1
17:15:35:365320,-3,-8,-3,4,-9,-5,1,2
17:15:35:373602,-3,-8,-3,4,-9,-5,1,2
17:15:35:374398,-6,-6,-6,5,3,-2,-9,-3
17:15:35:380326,-2,2,-1,-9,3,-4,-3,-1
17:15:35:387919,-2,2,-1,-9,3,-4,-3,-1
17:15:35:395339,0,0,-14,-2,-9,-2,0,-4
17:15:35:402873,-1,-4,-7,2,1,3,-5,-1
17:15:35:411047,-1,-4,-7,2,1,3,-5,-1
17:15:35:411826,-6,-7,2,6,-5,-9,2,-8
17:15:35:425352,4,0,4,5,-8,-2,2,-4
17:15:35:433598,4,0,4,5,-8,-2,2,-4
17:15:35:434376,5,2,-1,-2,-5,-7,1,5
17:15:35:440369,-1,0,3,-2,6,10,-3,-2
17:15:35:447875,-1,0,3,-2,6,10,-3,-2
17:15:35:455464,2,-3,0,-7,-1,-6,-15,3
17:15:35:462871,-1,0,-5,-8,-7,-5,3,0
17:15:35:471124,-1,0,-5,-8,-7,-5,3,0
17:15:35:471857,-3,0,1,-2,-2,-4,-6,3
17:15:35:485375,2,0,-3,-1,-5,0,-6,-1
17:15:35:493546,2,0,-3,-1,-5,0,-6,-1
17:15:35:494306,-2,-5,-2,2,-3,1,-2,-1
17:15:35:500360,-4,-4,5,6,10,4,10,-2
17:15:35:507906,-4,-4,5,6,10,4,10,-2
17:15:35:515310,3,4,-3,13,23,4,2,2
17:15:35:522912,-2,-3,-2,-4,-8,-7,1,-6
17:15:35:531058,-2,-3,-2,-4,-8,-7,1,-6
17:15:35:531856,1,-2,-7,-1,-6,-10,-10,-6
17:15:35:545360,-1,3,-5,-2,8,12,4,7
17:15:35:553543,-1,3,-5,-2,8,12,4,7
17:15:35:554373,-4,-5,14,-11,1,-5,1,-6
17:15:35:560321,-4,-1,-4,-4,-14,-11,-7,-6
17:15:35:567903,-4,-1,-4,-4,-14,-11,-7,-6
17:15:35:575334,-8,-5,7,11,-4,-1,-3,4
17:15:35:582854,-3,-2,-8,-11,-2,-4,-7,2
17:15:35:591147,-3,-2,-8,-11,-2,-4,-7,2
17:15:35:591876,6,1,-9,-16,-8,-1,-7,-6
17:15:35:605330,1,-2,7,24,2,6,-1,3
17:15:35:613632,1,-2,7,24,2,6,-1,3
17:15:35:614364,3,0,-2,-4,-16,-10,1,-2
17:15:35:620360,4,1,1,-3,17,4,1,-10
17:15:35:627911,4,1,1,-3,17,4,1,-10
17:15:35:635343,-1,-3,-8,1,11,6,25,5
17:15:35:642831,-6,-4,1,2,-10,-9,-39,-3
17:15:35:651117,-6,-4,1,2,-10,-9,-39,-3
17:15:35:651884,0,5,6,-10,-18,-3,7,2
17:15:35:665352,-1,-2,-7,0,0,-3,3,0
17:15:35:673569,-1,-2,-7,0,0,-3,3,0
17:15:35:674374,-6,-4,-9,-1,-2,-7,-9,-7
17:15:35:680351,-1,-2,0,-6,-1,-7,-9,1
17:15:35:687926,-1,-2,0,-6,-1,-7,-9,1
17:15:35:695356,5,4,-2,8,8,9,3,3
17:15:35:702865,2,1,6,-6,-6,0,14,0
17:15:35:711058,2,1,6,-6,-6,0,14,0
17:15:35:711833,-7,-12,-8,-10,-2,9,-2,-8
17:15:35:725367,-2,-2,-8,0,-2,-2,7,2
17:15:35:733582,-2,-2,-8,0,-2,-2,7,2
17:15:35:734363,-2,4,0,0,-4,-7,-1,0
17:15:35:748604,-4,-6,9,-4,-5,2,18,3
17:15:35:749386,-4,-6,9,-4,-5,2,18,3
17:15:35:755327,1,-2,0,-1,3,0,-7,-1
17:15:35:762849,-5,-1,-5,3,-6,-4,-4,-7
17:15:35:771105,-5,-1,-5,3,-6,-4,-4,-7
17:15:35:771894,-1,-1,5,3,4,-3,-6,-4
17:15:35:785364,6,6,-4,-19,-6,-4,2,1
17:15:35:793575,6,6,-4,-19,-6,-4,2,1
17:15:35:794396,-3,1,-5,2,-3,-1,-5,5
17:15:35:800334,-4,-4,13,10,8,4,-3,-2
17:15:35:807912,-4,-4,13,10,8,4,-3,-2
17:15:35:815387,-5,-4,-7,-11,-24,-15,-6,1
17:15:35:822871,-3,-6,-4,5,0,-2,1,-2
17:15:35:831061,-3,-6,-4,5,0,-2,1,-2
17:15:35:831840,1,4,4,15,14,2,1,-5
17:15:35:845337,-4,1,-3,-12,-6,-5,-13,-2
17:15:35:853616,-4,1,-3,-12,-6,-5,-13,-2
17:15:35:854459,-5,-6,-7,-6,-4,0,3,7
17:15:35:860342,0,-1,-4,-3,0,-1,0,1
17:15:35:867865,0,-1,-4,-3,0,-1,0,1
17:15:35:875373,4,2,2,-2,6,7,-1,-11
17:15:35:882876,-6,0,-6,-4,8,5,-23,-3
17:15:35:890401,-6,0,-6,-4,8,5,-23,-3
17:15:35:897834,0,0,5,3,-3,-2,-2,-4
17:15:35:905385,1,0,5,12,1,6,11,0
17:15:35:913569,1,0,5,12,1,6,11,0
17:15:35:914362,0,-6,-4,-11,1,1,1,-1
17:15:35:928577,4,0,-2,3,4,-7,-2,-1
17:15:35:929361,4,0,-2,3,4,-7,-2,-1
17:15:35:935341,-6,-1,4,4,4,0,5,0
17:15:35:942934,0,-2,-2,-1,-10,0,6,8
17:15:35:950398,0,-2,-2,-1,-10,0,6,8
17:15:35:957854,-5,2,-3,-2,-1,-5,-26,-3
17:15:35:965346,-1,-8,0,-2,6,4,13,-2
17:15:35:973567,-1,-8,0,-2,6,4,13,-2
17:15:35:974372,-1,-1,-1,-3,-17,-9,7,-2
17:15:35:988552,0,4,-3,-2,2,2,0,-1
17:15:35:989388,0,4,-3,-2,2,2,0,-1
17:15:35:995338,-4,-3,-6,-5,-5,-1,-10,0
17:15:36:2863,-1,-3,-2,-6,-15,-4,1,-4
17:15:36:10439,-1,-3,-2,-6,-15,-4,1,-4
17:15:36:17857,-3,-4,-2,-3,4,1,4,-2
17:15:36:25349,1,0,-11,-6,-13,-8,-11,-2
17:15:36:33585,1,0,-11,-6,-13,-8,-11,-2
17:15:36:34364,1,0,6,8,15,11,6,2
17:15:36:48604,1,1,-2,6,15,0,8,1
17:15:36:49369,1,1,-2,6,15,0,8,1
17:15:36:55358,-4,-5,-3,-3,-5,-1,-3,-5
17:15:36:62835,-1,4,7,4,-5,-5,-13,-4
17:15:36:70511,-1,4,7,4,-5,-5,-13,-4
17:15:36:77876,1,3,-3,2,-4,1,-4,2
17:15:36:85383,-2,1,3,-5,-2,-2,2,4
17:15:36:93544,-2,1,3,-5,-2,-2,2,4
17:15:36:94347,0,-3,-4,-3,-2,-4,-5,-3
17:15:36:108526,-2,-8,-15,0,18,15,6,-4
17:15:36:109407,-2,-8,-15,0,18,15,6,-4
17:15:36:115366,-3,-2,-4,0,-3,0,1,-4
17:15:36:122884,-3,5,3,-2,-9,-11,-14,-3
17:15:36:130365,-3,5,3,-2,-9,-11,-14,-3
17:15:36:137870,5,5,-1,-5,5,-6,2,-3
17:15:36:145353,3,-1,3,13,2,11,11,1
17:15:36:153608,3,-1,3,13,2,11,11,1
17:15:36:154345,-2,2,9,10,-4,-4,-32,1
17:15:36:168538,-5,-7,-2,-3,-2,-11,-9,-4
17:15:36:169339,-5,-7,-2,-3,-2,-11,-9,-4
17:15:36:175363,0,2,2,-5,-8,-3,-2,0
17:15:36:182887,0,-1,0,-3,-6,-8,4,-5
17:15:36:190410,0,-1,0,-3,-6,-8,4,-5
17:15:36:197821,-1,-5,-4,-4,-4,6,8,6
17:15:36:205343,0,-5,-4,-8,0,6,4,-1
17:15:36:213588,0,-5,-4,-8,0,6,4,-1
17:15:36:214383,1,-2,-7,5,7,3,9,0
17:15:36:228632,-3,3,4,-6,-3,-6,-2,-1
17:15:36:229461,-3,3,4,-6,-3,-6,-2,-1
17:15:36:235317,-2,-4,8,4,-15,-13,8,2
17:15:36:242830,1,-3,-9,0,14,2,-11,0
17:15:36:250414,1,-3,-9,0,14,2,-11,0
17:15:36:257858,-1,1,-2,-1,3,2,-5,-6
17:15:36:265335,-1,-3,-3,-4,-11,-6,-1,-3
17:15:36:273583,-1,-3,-3,-4,-11,-6,-1,-3
17:15:36:274404,0,0,-4,-5,8,3,-11,-3
17:15:36:288566,5,4,1,3,-2,-1,8,3
17:15:36:289376,5,4,1,3,-2,-1,8,3
17:15:36:295341,1,-1,17,0,1,-2,0,-4
17:15:36:302864,-2,-2,4,2,0,6,7,2
17:15:36:310443,-2,-2,4,2,0,6,7,2
17:15:36:317831,1,1,4,4,2,-2,-3,-2
17:15:36:325350,-6,-1,3,-4,0,-4,-9,-6
17:15:36:333603,-6,-1,3,-4,0,-4,-9,-6
17:15:36:334378,-2,-3,-1,-5,-8,-2,8,4
17:15:36:348575,3,0,-5,-3,-1,1,6,1
17:15:36:349416,3,0,-5,-3,-1,1,6,1
17:15:36:355342,1,-1,1,-1,10,5,10,5
17:15:36:362828,-2,5,0,-13,-12,-7,-14,2
17:15:36:370425,-2,5,0,-13,-12,-7,-14,2
17:15:36:377893,1,9,-2,3,-1,0,-4,-5
17:15:36:385382,-6,-4,0,-3,-1,-1,-2,-2
17:15:36:393522,-6,-4,0,-3,-1,-1,-2,-2
17:15:36:394330,-6,-5,-3,1,5,5,4,1
17:15:36:408559,2,-5,-3,15,11,1,8,1
17:15:36:409359,2,-5,-3,15,11,1,8,1
17:15:36:415381,-3,-5,8,-2,-2,-2,0,0
17:15:36:422848,2,-2,0,-3,-1,7,-4,-4
17:15:36:430383,2,-2,0,-3,-1,7,-4,-4
17:15:36:437856,-5,-2,-11,-10,-5,-3,-12,2
17:15:36:445386,-2,3,-6,-2,-4,4,-7,-6
17:15:36:453552,-2,3,-6,-2,-4,4,-7,-6
17:15:36:454357,1,-4,-7,-13,-7,-7,8,-3
17:15:36:468541,5,-2,-7,0,5,-3,-1,3
17:15:36:469339,5,-2,-7,0,5,-3,-1,3
17:15:36:475339,-7,-12,-11,-1,3,1,9,-4
17:15:36:482877,-4,2,-2,5,1,-3,3,-3
17:15:36:490409,-4,2,-2,5,1,-3,3,-3
17:15:36:497799,-1,3,-7,-3,-5,-9,-11,1
17:15:36:514183,-1,-9,-4,-4,-7,1,11,3
17:15:36:515045,-1,-9,-4,-4,-7,1,11,3
17:15:36:515815,1,3,3,4,4,4,-4,-3
17:15:36:528542,0,-3,4,3,-10,-9,-11,-2
17:15:36:529354,0,-3,4,3,-10,-9,-11,-2
17:15:36:535396,3,3,9,8,19,19,5,5
17:15:36:542860,-6,3,0,1,6,-7,-22,-7
17:15:36:550403,-6,3,0,1,6,-7,-22,-7
17:15:36:557892,0,3,-5,8,2,5,16,1
17:15:36:565321,-4,1,1,-4,-15,-13,-14,2
17:15:36:573599,-4,1,1,-4,-15,-13,-14,2
17:15:36:574383,4,-3,0,-3,-2,2,8,-5
17:15:36:588544,-2,-3,7,-3,-5,-2,5,-6
17:15:36:589393,-2,-3,7,-3,-5,-2,5,-6
17:15:36:595309,0,-5,-8,-3,-14,-10,0,-1
17:15:36:602846,1,1,-3,3,4,-2,-4,3
17:15:36:610400,1,1,-3,3,4,-2,-4,3
17:15:36:617925,-5,-5,-14,2,1,-2,0,-2
17:15:36:625304,-5,2,-4,-13,-10,-2,-10,-10
17:15:36:633575,-5,2,-4,-13,-10,-2,-10,-10
17:15:36:634359,4,1,7,1,-5,1,-7,2
17:15:36:648567,4,0,-6,-7,-6,-1,11,1
17:15:36:649366,4,0,-6,-7,-6,-1,11,1
17:15:36:655341,1,-3,-6,-8,-5,-5,-3,-4
17:15:36:662836,-2,-3,-3,-1,6,5,-33,0
17:15:36:670427,-2,-3,-3,-1,6,5,-33,0
17:15:36:677851,-5,0,2,3,-2,-5,5,-1
17:15:36:685350,1,-3,7,-2,-2,-5,3,0
17:15:36:693575,1,-3,7,-2,-2,-5,3,0
17:15:36:694377,-2,1,-21,-5,-11,-6,-5,0
17:15:36:708550,2,1,0,5,3,5,4,0
17:15:36:709368,2,1,0,5,3,5,4,0
17:15:36:715329,-1,2,3,-8,1,-5,-6,-1
17:15:36:722841,0,-3,2,3,10,11,25,2
17:15:36:730416,0,-3,2,3,10,11,25,2
17:15:36:737886,-3,-3,-4,19,8,3,-4,-5
17:15:36:745336,5,4,12,-2,-4,-4,-2,-4
17:15:36:753555,5,4,12,-2,-4,-4,-2,-4
17:15:36:754325,1,2,6,-6,3,0,-26,1
17:15:36:768537,-3,-6,2,0,3,1,22,7
17:15:36:769338,-3,-6,2,0,3,1,22,7
17:15:36:775385,-4,1,-1,-1,4,5,2,-3
17:15:36:791091,-4,0,-6,-7,-12,-4,-9,-2
17:15:36:791849,-4,0,-6,-7,-12,-4,-9,-2
17:15:36:797848,-3,-3,-1,-12,-4,-3,-2,-2
17:15:36:805420,-2,-2,-8,2,8,3,-6,-3
17:15:36:813575,-2,-2,-8,2,8,3,-6,-3
17:15:36:814366,3,-3,8,-1,-10,-8,3,0
17:15:36:828622,-4,-3,0,-1,7,-1,3,0
17:15:36:829457,-4,-3,0,-1,7,-1,3,0
17:15:36:835362,0,-1,-2,1,-6,-5,-3,-2
17:15:36:851466,1,2,3,-2,-5,0,-14,-9
17:15:36:858573,1,2,3,-2,-5,0,-14,-9
17:15:36:859356,-4,7,-2,1,-4,-2,-10,-2
17:15:36:865348,-1,-11,-1,-1,-9,-4,3,5
17:15:36:872947,-1,-11,-1,-1,-9,-4,3,5
17:15:36:880338,-1,-1,4,-11,-5,-2,7,0
17:15:36:888591,-4,-1,-7,12,16,4,10,2
17:15:36:889346,-4,-1,-7,12,16,4,10,2
17:15:36:895372,4,-2,6,3,7,-1,-1,3
17:15:36:911106,-3,-3,0,-8,-15,-10,0,0
17:15:36:911897,-3,-3,0,-8,-15,-10,0,0
17:15:36:917842,4,1,-2,8,12,7,8,-4
17:15:36:925344,-8,-3,-8,-2,-13,-10,-2,-2
17:15:36:932868,-8,-3,-8,-2,-13,-10,-2,-2
17:15:36:940386,-1,-4,0,-1,12,18,61,11
17:15:36:948540,1,-5,4,-4,0,3,6,1
17:15:36:949346,1,-5,4,-4,0,3,6,1
17:15:36:955343,1,-3,-1,-4,-6,3,-18,-5
17:15:36:971205,0,2,-6,-6,-2,-5,10,1
17:15:36:971842,0,2,-6,-6,-2,-5,10,1
17:15:36:977866,-8,1,1,-6,-7,-8,-15,-4
17:15:36:985376,5,3,-1,4,-3,0,-7,3
17:15:36:992871,5,3,-1,4,-3,0,-7,3
17:15:37:317,0,-5,-9,9,-3,-5,-11,-10
17:15:37:8517,-2,3,0,-3,2,8,-1,-7
17:15:37:9363,-2,3,0,-3,2,8,-1,-7
17:15:37:15316,-3,-3,-4,0,1,-6,-6,1
17:15:37:31082,-1,-4,3,4,2,0,-1,0
17:15:37:31873,-1,-4,3,4,2,0,-1,0
17:15:37:37818,0,0,-11,-14,4,-6,-14,-3
17:15:37:45345,-1,-2,-6,-5,-7,-6,-1,-6
17:15:37:52921,-1,-2,-6,-5,-7,-6,-1,-6
17:15:37:60335,-3,-3,-13,0,-5,2,-16,-6
17:15:37:68558,1,5,0,-9,1,-2,-8,3
17:15:37:69360,1,5,0,-9,1,-2,-8,3
17:15:37:75365,-1,0,12,4,-2,-1,-4,1
17:15:37:91104,-1,-6,-4,3,4,5,-6,0
17:15:37:91910,-1,-6,-4,3,4,5,-6,0
17:15:37:97850,-3,-4,3,-7,-8,1,4,0
17:15:37:105345,-4,-5,0,1,11,1,6,-2
17:15:37:112995,-4,-5,0,1,11,1,6,-2
17:15:37:120417,4,4,13,6,-1,-5,6,-2
17:15:37:128574,0,4,5,10,-2,2,0,-3
17:15:37:129426,0,4,5,10,-2,2,0,-3
17:15:37:135365,-8,0,0,1,-3,-4,-2,1
17:15:37:151100,-3,-4,-8,-7,-6,-3,-2,3
17:15:37:151878,-3,-4,-8,-7,-6,-3,-2,3
17:15:37:157847,5,1,-2,2,-4,1,7,3
17:15:37:165341,1,2,3,-4,-10,-4,5,-3
17:15:37:172936,1,2,3,-4,-10,-4,5,-3
17:15:37:180371,-4,-2,-4,-2,8,3,-10,-4
17:15:37:188531,1,-3,1,3,9,1,-7,-1
17:15:37:189339,1,-3,1,3,9,1,-7,-1
17:15:37:195357,0,1,0,3,7,2,-2,3
17:15:37:211109,4,4,-4,1,-11,2,0,2
17:15:37:211894,4,4,-4,1,-11,2,0,2
17:15:37:217867,0,-4,7,-9,-7,-9,3,-3
17:15:37:225376,-1,-1,10,-4,8,1,3,4
17:15:37:232904,-1,-1,10,-4,8,1,3,4
17:15:37:240372,-5,0,-2,-2,-12,-4,-1,3
17:15:37:248517,-6,-4,-5,2,7,10,8,-9
17:15:37:249325,-6,-4,-5,2,7,10,8,-9
17:15:37:255338,0,1,-1,2,4,0,-6,-6
17:15:37:271122,1,-1,-5,0,-3,-3,-4,-3
17:15:37:271823,1,-1,-5,0,-3,-3,-4,-3
17:15:37:277893,1,-2,-3,-1,-9,-6,2,2
17:15:37:285395,-3,-4,0,-2,1,-3,-7,1
17:15:37:292868,-3,-4,0,-2,1,-3,-7,1
17:15:37:300323,0,-2,-3,-1,-2,9,7,2
17:15:37:308540,-3,0,-5,-4,-4,-6,-4,-2
17:15:37:309363,-3,0,-5,-4,-4,-6,-4,-2
17:15:37:315321,0,-1,0,6,10,3,0,-4
17:15:37:331090,-3,1,-2,-1,-4,0,4,5
17:15:37:331849,-3,1,-2,-1,-4,0,4,5
17:15:37:337834,-1,1,-4,4,-1,-7,-1,1
17:15:37:345316,4,6,9,-8,-2,1,-9,-3
17:15:37:352903,4,6,9,-8,-2,1,-9,-3
17:15:37:360319,-1,0,3,-1,-3,-3,-3,-6
17:15:37:368536,-4,-6,-2,3,-3,-4,0,2
17:15:37:369343,-4,-6,-2,3,-3,-4,0,2
17:15:37:375363,0,-2,-6,-4,-4,-2,-4,-2
17:15:37:391101,1,3,1,-6,-8,-14,5,-3
17:15:37:391862,1,3,1,-6,-8,-14,5,-3
17:15:37:397817,-4,-5,-2,1,2,5,0,-2
17:15:37:405330,3,-5,-10,-1,-1,3,-9,0
17:15:37:412961,3,-5,-10,-1,-1,3,-9,0
17:15:37:420353,-3,-4,0,-5,0,-5,-2,4
17:15:37:428532,0,-5,2,5,-2,-6,1,-6
17:15:37:429378,0,-5,2,5,-2,-6,1,-6
17:15:37:435352,2,1,-4,-4,-2,1,-2,-3
17:15:37:451110,-2,3,-3,-3,1,-3,2,-4
17:15:37:451876,-2,3,-3,-3,1,-3,2,-4
17:15:37:457852,-1,-2,2,-7,-2,-4,2,3
17:15:37:465364,-4,0,-2,1,2,3,-2,4
17:15:37:472953,-4,0,-2,1,2,3,-2,4
17:15:37:480349,1,3,4,0,1,3,-7,-4
17:15:37:488542,1,1,-2,1,3,-1,5,-4
17:15:37:489373,1,1,-2,1,3,-1,5,-4
17:15:37:495391,-1,-5,0,-3,-5,-2,-5,-5
17:15:37:519229,1,1,-2,7,5,16,-1,2
17:15:37:520092,1,1,-2,7,5,16,-1,2
17:15:37:520841,-2,-2,-10,1,-1,-11,-3,-5
17:15:37:525333,-2,1,11,-2,-4,-15,-9,-1
17:15:37:532898,-2,1,11,-2,-4,-15,-9,-1
17:15:37:540365,-3,-1,-4,3,1,8,5,6
17:15:37:548539,2,-4,-2,-3,3,4,-5,-3
17:15:37:549399,2,-4,-2,-3,3,4,-5,-3
17:15:37:555401,0,5,-3,1,3,-2,5,-1
17:15:37:571094,-9,-2,-5,-4,-11,-6,2,0
17:15:37:571873,-9,-2,-5,-4,-11,-6,2,0
17:15:37:577877,-1,0,-8,-2,3,-5,-7,0
17:15:37:585350,1,-2,-4,-8,-3,1,-1,-4
17:15:37:592924,1,-2,-4,-8,-3,1,-1,-4
17:15:37:600367,0,-2,4,-3,-3,5,5,-1
17:15:37:608521,-2,-3,5,3,-4,-9,2,0
17:15:37:609347,-2,-3,5,3,-4,-9,2,0
17:15:37:615365,-1,-1,6,-7,5,2,-3,-2
17:15:37:631029,1,-4,-7,8,0,-5,-9,0
17:15:37:631817,1,-4,-7,8,0,-5,-9,0
17:15:37:637855,2,-2,-6,1,-7,4,2,-2
17:15:37:645364,0,4,0,-4,1,-4,-1,-1
17:15:37:652887,0,4,0,-4,1,-4,-1,-1
17:15:37:660383,0,-3,5,-4,1,-4,-9,4
17:15:37:668539,1,-3,2,-6,0,5,4,0
17:15:37:669342,1,-3,2,-6,0,5,4,0
17:15:37:675323,-7,-6,-1,-3,-15,-6,-1,-2
17:15:37:691095,1,-1,-1,1,10,10,1,1
17:15:37:691861,1,-1,-1,1,10,10,1,1
17:15:37:697888,2,1,-2,0,2,3,0,-7
17:15:37:705492,4,3,-2,-2,-7,-13,-4,-2
17:15:37:712877,4,3,-2,-2,-7,-13,-4,-2
17:15:37:720320,-2,-2,-6,6,5,5,12,2
17:15:37:728521,-6,-4,-5,4,3,0,-2,2
17:15:37:729366,-6,-4,-5,4,3,0,-2,2
17:15:37:735343,-2,1,0,-3,-10,-10,-13,1
17:15:37:751091,-3,-4,-3,8,7,9,4,-5
17:15:37:751861,-3,-4,-3,8,7,9,4,-5
17:15:37:757829,-2,2,0,-3,0,2,0,0
17:15:37:765310,3,5,-1,-6,-4,-5,-11,2
17:15:37:772941,3,5,-1,-6,-4,-5,-11,2
17:15:37:780319,5,-1,3,1,2,14,51,5
17:15:37:788555,-2,-3,-1,1,-6,-1,4,-2
17:15:37:789381,-2,-3,-1,1,-6,-1,4,-2
17:15:37:802836,-4,-3,2,-2,-2,-8,-20,-4
17:15:37:811097,0,-5,1,1,9,4,5,4
17:15:37:811893,0,-5,1,1,9,4,5,4
17:15:37:817826,-2,-1,1,0,1,-6,-8,-6
17:15:37:833553,-7,0,-2,-7,-3,3,-7,-2
17:15:37:834345,-7,0,-2,-7,-3,3,-7,-2
17:15:37:840340,5,-1,-2,-8,-13,-10,-9,-1
17:15:37:848555,-1,1,-6,-2,-2,3,-4,-2
17:15:37:849370,-1,1,-6,-2,-2,3,-4,-2
17:15:37:862856,-1,-2,-3,-2,0,3,-11,1
17:15:37:871089,-1,-2,-3,-2,0,3,-11,1
17:15:37:871845,-1,-3,2,2,-1,-3,-21,-8
17:15:37:877823,1,1,3,6,2,-6,-8,-2
17:15:37:893580,1,1,3,6,2,-6,-8,-2
17:15:37:894338,-2,-5,4,2,-10,-10,4,0
17:15:37:900330,-3,2,1,4,5,-4,-10,-2
17:15:37:908551,-3,2,1,4,5,-4,-10,-2
17:15:37:909365,0,1,-2,-8,-4,-1,5,3
17:15:37:922891,-2,-2,-1,6,-2,3,4,-2
17:15:37:931072,-2,-2,-1,6,-2,3,4,-2
17:15:37:931855,0,0,4,-5,-2,-3,5,0
17:15:37:937857,1,0,-6,-6,-3,-7,-3,-3
17:15:37:953527,1,0,-6,-6,-3,-7,-3,-3
17:15:37:954329,-3,-2,-1,7,12,0,-4,-1
17:15:37:960315,-3,0,-4,-10,-10,6,7,0
17:15:37:968538,-3,0,-4,-10,-10,6,7,0
17:15:37:969322,2,-3,5,0,-15,-8,4,-3
17:15:37:982850,0,-6,-7,0,-1,0,-9,-5
17:15:37:991069,0,-6,-7,0,-1,0,-9,-5
17:15:37:991937,-4,0,-4,-10,2,2,-4,0
17:15:37:997866,-4,3,7,1,4,1,4,-3
17:15:38:13566,-4,3,7,1,4,1,4,-3
17:15:38:14322,5,-1,-3,1,2,-3,-2,-8
17:15:38:20424,-2,-6,-7,-6,0,-1,5,0
17:15:38:28525,-2,-6,-7,-6,0,-1,5,0
17:15:38:29337,-4,-1,-5,3,1,4,2,4
17:15:38:42847,-1,2,3,6,3,-4,-2,-2
17:15:38:51094,-1,2,3,6,3,-4,-2,-2
17:15:38:51820,-3,-7,-10,0,4,2,5,0
17:15:38:57902,0,-1,1,0,-6,-4,-1,-2
17:15:38:73616,0,-1,1,0,-6,-4,-1,-2
17:15:38:74398,0,5,-17,-2,-1,0,0,0
17:15:38:80367,-2,-3,-4,2,5,-1,-7,4
17:15:38:88547,-2,-3,-4,2,5,-1,-7,4
17:15:38:89354,0,-4,6,6,-6,-10,-7,-1
17:15:38:102872,-4,-2,-3,-8,-7,-5,-6,-2
17:15:38:111161,-4,-2,-3,-8,-7,-5,-6,-2
17:15:38:111880,-1,-1,0,-8,1,2,1,-7
17:15:38:117867,2,0,-4,2,2,5,4,-1
17:15:38:133595,2,0,-4,2,2,5,4,-1
17:15:38:134371,1,3,13,1,-9,-2,-1,3
17:15:38:140376,0,1,1,1,-5,-4,1,0
17:15:38:148535,0,1,1,1,-5,-4,1,0
17:15:38:149334,-1,1,3,-5,-3,-2,1,-1
17:15:38:162865,0,-5,2,0,1,-4,1,0
17:15:38:171088,0,-5,2,0,1,-4,1,0
17:15:38:171878,0,1,-3,6,0,0,-6,0
17:15:38:177847,-2,-2,-13,-2,-2,-1,-1,0
17:15:38:193590,-2,-2,-13,-2,-2,-1,-1,0
17:15:38:194399,0,-4,-2,-6,-2,-1,2,-5
17:15:38:200356,-3,4,2,1,-3,3,-8,-4
17:15:38:208586,-3,4,2,1,-3,3,-8,-4
17:15:38:209370,-2,1,0,4,3,0,-3,1
17:15:38:222869,0,-2,2,-5,-1,1,8,2
17:15:38:231060,0,-2,2,-5,-1,1,8,2
17:15:38:231875,-2,1,3,-4,-1,-1,0,2
17:15:38:237852,0,1,-10,-9,-4,-5,-8,-2
17:15:38:253579,0,1,-10,-9,-4,-5,-8,-2
17:15:38:254439,-3,-9,-13,-3,-5,3,1,-1
17:15:38:260336,4,-4,8,-2,-5,-1,-5,2
17:15:38:268612,4,-4,8,-2,-5,-1,-5,2
17:15:38:269389,3,0,2,0,-1,-2,-5,-4
17:15:38:282829,-1,5,8,7,7,2,9,0
17:15:38:291096,-1,5,8,7,7,2,9,0
17:15:38:291863,-3,1,-2,-6,-1,-5,3,2
17:15:38:297836,-2,-5,1,3,6,4,1,-1
17:15:38:313585,-2,-5,1,3,6,4,1,-1
17:15:38:314345,4,2,9,3,1,-3,-1,-1
17:15:38:320335,-2,2,2,-3,-5,-4,-3,-5
17:15:38:328561,-2,2,2,-3,-5,-4,-3,-5
17:15:38:329384,-3,-8,-1,-5,-1,3,-5,-1
17:15:38:342883,2,-5,-8,-4,-5,6,-6,1
17:15:38:351084,2,-5,-8,-4,-5,6,-6,1
17:15:38:351883,-2,0,-2,-2,-5,-8,-2,-2
17:15:38:357835,-9,-2,-5,-2,-10,-14,-12,-4
17:15:38:373557,-9,-2,-5,-2,-10,-14,-12,-4
17:15:38:374358,-2,1,2,2,10,11,9,0
17:15:38:380338,0,-1,2,-4,2,-2,7,-3
17:15:38:388550,0,-1,2,-4,2,-2,7,-3
17:15:38:389327,2,0,-4,1,1,-2,-4,-6
17:15:38:402897,2,-10,-2,-1,3,5,-1,2
17:15:38:411104,2,-10,-2,-1,3,5,-1,2
17:15:38:411858,-2,-2,-8,3,-6,-2,0,-2
17:15:38:417821,-2,1,-12,-2,-4,-8,1,0
17:15:38:433565,-2,1,-12,-2,-4,-8,1,0
17:15:38:434381,-2,-2,0,-2,-1,-5,-3,-2
17:15:38:440348,-2,2,3,-5,3,7,-6,3
17:15:38:448550,-2,2,3,-5,3,7,-6,3
17:15:38:449340,-4,1,-6,-2,2,5,-4,4
17:15:38:462877,-3,0,-4,0,4,-5,-3,-2
17:15:38:471089,-3,0,-4,0,4,-5,-3,-2
17:15:38:471816,-2,0,2,-3,-1,2,7,-4
17:15:38:477789,2,-2,14,2,2,0,2,2
17:15:38:493527,2,-2,14,2,2,0,2,2
17:15:38:494306,1,-4,-8,-3,-9,-13,-9,1
17:15:38:500374,-1,0,-5,1,0,3,10,1
17:15:38:508548,-1,0,-5,1,0,3,10,1
17:15:38:509346,-4,1,-2,-15,-11,1,-1,1
17:15:38:522872,3,2,3,0,2,0,-2,-1
17:15:38:531094,3,2,3,0,2,0,-2,-1
17:15:38:531827,-2,-1,-6,0,2,-1,2,-1
17:15:38:537861,-1,-4,-5,4,3,2,-3,-10
17:15:38:553581,-1,-4,-5,4,3,2,-3,-10
17:15:38:554369,0,-4,-6,1,5,5,3,-4
17:15:38:560348,3,1,-8,-4,-4,-6,-4,2
17:15:38:568552,3,1,-8,-4,-4,-6,-4,2
17:15:38:569315,-3,-3,2,1,-2,0,-1,5
17:15:38:582867,-7,-6,-5,4,0,3,1,-2
17:15:38:591183,-7,-6,-5,4,0,3,1,-2
17:15:38:591843,4,-2,11,3,2,-5,3,-1
17:15:38:597836,3,0,1,-9,-6,-4,-6,-3
17:15:38:613608,3,0,1,-9,-6,-4,-6,-3
17:15:38:614359,1,0,-6,9,11,7,0,1
17:15:38:620363,1,3,-1,-6,-8,-5,-7,1
17:15:38:628578,1,3,-1,-6,-8,-5,-7,1
17:15:38:629352,-3,2,2,1,4,8,4,-3
17:15:38:642842,0,-2,-2,-2,3,1,4,0
17:15:38:651097,0,-2,-2,-2,3,1,4,0
17:15:38:651875,1,-2,-3,0,-8,-1,-2,-6
17:15:38:657851,-2,-1,-1,-3,-4,-6,-3,-2
17:15:38:673614,-2,-1,-1,-3,-4,-6,-3,-2
17:15:38:674385,-2,-1,3,3,-4,-4,3,2
17:15:38:680322,-6,0,-3,-1,-2,2,-1,-3
17:15:38:688589,-6,0,-3,-1,-2,2,-1,-3
17:15:38:689451,2,2,-2,-3,1,-9,-11,-5
17:15:38:702843,3,-1,0,-2,-5,2,11,3
17:15:38:711098,3,-1,0,-2,-5,2,11,3
17:15:38:711917,-4,-12,5,2,9,6,-4,0
17:15:38:717874,-2,5,4,5,1,-2,-10,7
17:15:38:733553,-2,5,4,5,1,-2,-10,7
17:15:38:734375,3,2,-3,-5,-10,-9,-8,4
17:15:38:740415,-1,-4,-12,-2,1,1,-2,-5
17:15:38:747952,-1,-4,-12,-2,1,1,-2,-5
17:15:38:755373,1,-2,-4,-8,-3,3,-2,-5
17:15:38:762853,1,1,4,-3,-1,-5,4,2
17:15:38:771107,1,1,4,-3,-1,-5,4,2
17:15:38:771781,-1,0,-6,1,0,-4,2,1
17:15:38:785338,-2,-2,9,4,2,0,1,-7
17:15:38:793590,-2,-2,9,4,2,0,1,-7
17:15:38:794374,-1,-2,9,-2,-5,1,-12,-6
17:15:38:800386,-4,-1,-3,-1,4,-2,-5,2
17:15:38:807861,-4,-1,-3,-1,4,-2,-5,2
17:15:38:815354,-2,-4,-1,0,6,3,6,0
17:15:38:822871,-2,-5,-1,1,2,3,2,-13
17:15:38:831084,-2,-5,-1,1,2,3,2,-13
17:15:38:831851,-4,2,-4,-1,-4,-2,-7,0
17:15:38:845349,1,-1,2,1,-10,-3,-5,4
17:15:38:853537,1,-1,2,1,-10,-3,-5,4
17:15:38:854335,1,-2,0,-2,2,-1,5,-1
17:15:38:860350,-4,-2,-2,-6,-2,-2,-6,-7
17:15:38:867913,-4,-2,-2,-6,-2,-2,-6,-7
17:15:38:875345,2,1,8,-3,-1,-4,7,3
17:15:38:882860,-3,-1,-6,9,11,6,-1,1
17:15:38:891081,-3,-1,-6,9,11,6,-1,1
17:15:38:891882,-6,-1,-5,3,-7,-8,2,-6
17:15:38:905880,-3,-2,0,-3,-3,-5,-7,-3
17:15:38:913534,-3,-2,0,-3,-3,-5,-7,-3
17:15:38:914334,1,-1,2,2,6,5,1,2
17:15:38:920355,2,4,-4,-11,-10,-8,-15,-2
17:15:38:927967,2,4,-4,-11,-10,-8,-15,-2
17:15:38:935304,-1,-3,1,-5,-11,-6,8,-2
17:15:38:942825,-3,0,-1,-4,4,1,20,4
17:15:38:951087,-3,0,-1,-4,4,1,20,4
17:15:38:951836,0,-3,-10,-5,-7,-7,-2,0
17:15:38:965384,2,-1,-6,3,2,1,-1,0
17:15:38:973578,2,-1,-6,3,2,1,-1,0
17:15:38:974358,-4,1,1,0,2,1,-15,-7
17:15:38:980334,-2,0,4,0,-3,-1,-4,-2
17:15:38:987930,-2,0,4,0,-3,-1,-4,-2
17:15:38:995312,-3,0,0,-2,0,1,0,7
17:15:39:2834,1,-3,2,2,-4,2,7,5
17:15:39:11105,1,-3,2,2,-4,2,7,5
17:15:39:11898,0,3,-7,-2,-5,-11,-23,-5
17:15:39:25342,-6,-12,-3,-4,2,5,-14,-12
17:15:39:33581,-6,-12,-3,-4,2,5,-14,-12
17:15:39:34367,2,1,4,5,0,12,29,7
17:15:39:40360,5,2,11,3,0,-4,5,9
17:15:39:47916,5,2,11,3,0,-4,5,9
17:15:39:55353,-1,0,-3,-8,-1,0,-10,-1
17:15:39:62834,-1,1,1,1,-4,-3,1,1
17:15:39:71036,-1,1,1,1,-4,-3,1,1
17:15:39:71822,0,3,-7,1,-3,-6,-8,-2
17:15:39:85345,-2,1,-5,-3,1,-1,-18,-10
17:15:39:93576,-2,1,-5,-3,1,-1,-18,-10
17:15:39:94386,-4,-7,0,-2,-4,-4,-12,-5
17:15:39:100331,2,-3,-1,-5,-3,-9,-17,-2
17:15:39:107906,2,-3,-1,-5,-3,-9,-17,-2
17:15:39:115349,-1,0,4,-1,-1,4,18,6
17:15:39:122862,1,2,-6,4,2,8,12,1
17:15:39:131103,1,2,-6,4,2,8,12,1
17:15:39:131857,-4,-1,-5,3,6,-3,-6,-4
17:15:39:145347,-2,-1,-1,-6,-3,3,4,10
17:15:39:153565,-2,-1,-1,-6,-3,3,4,10
17:15:39:154409,-1,-2,-16,-6,-4,-4,19,1
17:15:39:160356,-1,-5,-1,1,2,-3,7,-5
17:15:39:167911,-1,-5,-1,1,2,-3,7,-5
17:15:39:175310,-3,0,4,2,-1,-5,-8,-2
17:15:39:182849,1,0,-2,1,0,0,15,1
17:15:39:191092,1,0,-2,1,0,0,15,1
17:15:39:191841,2,-1,3,-2,-2,-1,-8,-7
17:15:39:205372,-3,0,1,-5,-9,-2,2,-4
17:15:39:213521,-3,0,1,-5,-9,-2,2,-4
17:15:39:214326,1,-1,-1,-1,2,1,9,4
17:15:39:220366,0,-2,0,2,7,3,10,2
17:15:39:227896,0,-2,0,2,7,3,10,2
17:15:39:235308,0,2,6,-2,3,2,-9,-1
17:15:39:242805,-1,-1,-10,-2,1,0,11,4
17:15:39:251091,-1,-1,-10,-2,1,0,11,4
17:15:39:251860,0,-1,-1,0,3,0,0,-1
17:15:39:265325,-1,-1,4,2,-5,-6,-20,-5
17:15:39:273601,-1,-1,4,2,-5,-6,-20,-5
17:15:39:274357,1,-5,-4,3,-9,-2,-15,-6
17:15:39:280326,-3,-2,-5,-3,-4,-3,-7,0
17:15:39:287910,-3,-2,-5,-3,-4,-3,-7,0
17:15:39:295372,-2,3,1,-3,0,-1,-12,-7
17:15:39:302851,-4,-1,4,-9,-2,1,-12,-1
17:15:39:311172,-4,-1,4,-9,-2,1,-12,-1
17:15:39:311868,-1,-2,2,1,-9,-4,13,2
17:15:39:325357,-2,1,-1,2,0,-4,-5,-2
17:15:39:333566,-2,1,-1,2,0,-4,-5,-2
17:15:39:334340,0,-4,-18,0,10,-5,-21,-5
17:15:39:340429,0,-5,-7,-2,-8,1,2,-1
17:15:39:347919,0,-5,-7,-2,-8,1,2,-1
17:15:39:355358,-3,0,3,0,-3,2,16,0
17:15:39:362843,1,-1,1,-4,1,-3,-2,1
17:15:39:371044,1,-1,1,-4,1,-3,-2,1
17:15:39:371832,-2,-3,6,0,-3,-3,-13,2
17:15:39:385360,3,1,4,3,3,3,14,1
17:15:39:393558,3,1,4,3,3,3,14,1
17:15:39:394381,0,2,-2,-5,-5,5,1,2
17:15:39:400370,0,-6,-2,1,0,-2,5,0
17:15:39:407887,0,-6,-2,1,0,-2,5,0
17:15:39:415371,-2,-3,-5,3,0,-5,0,-4
17:15:39:422880,0,1,1,1,-1,-3,13,-2
17:15:39:431119,0,1,1,1,-1,-3,13,-2
17:15:39:431844,2,-2,7,-1,-3,-9,-15,-5
17:15:39:445393,-6,1,-2,1,-2,0,-1,-3
17:15:39:453535,-6,1,-2,1,-2,0,-1,-3
17:15:39:454334,-1,-3,-4,-2,3,6,2,1
17:15:39:460353,1,-1,-1,1,4,2,-8,2
17:15:39:467878,1,-1,-1,1,4,2,-8,2
17:15:39:475318,-4,3,-2,-3,-2,-2,-2,-3
17:15:39:482885,-4,-1,-4,-1,-6,-3,-24,-3
17:15:39:491094,-4,-1,-4,-1,-6,-3,-24,-3
17:15:39:491834,-1,-4,3,2,7,4,-2,-4
17:15:39:505366,-2,-3,2,-2,-8,-11,-8,-12
17:15:39:513538,-2,-3,2,-2,-8,-11,-8,-12
17:15:39:514324,2,2,-5,-5,-3,1,10,4
17:15:39:520326,-1,3,-3,-4,0,-5,3,-2
17:15:39:527899,-1,3,-3,-4,0,-5,3,-2
17:15:39:535352,-5,0,2,-1,-3,-3,5,-2
17:15:39:542821,2,-2,3,1,-7,5,-1,1
17:15:39:551095,2,-2,3,1,-7,5,-1,1
17:15:39:551869,0,-5,-2,-3,-3,-1,3,1
17:15:39:565308,-1,-1,10,-6,0,-2,-3,1
17:15:39:573551,-1,-1,10,-6,0,-2,-3,1
17:15:39:574353,-3,-2,0,-5,-1,-3,5,-4
17:15:39:580317,-1,-3,-4,-1,5,3,34,2
17:15:39:587975,-1,-3,-4,-1,5,3,34,2
17:15:39:595364,2,-3,-3,1,-2,-1,3,-1
17:15:39:602867,-4,2,-4,1,-4,-4,-25,-2
17:15:39:611104,-4,2,-4,1,-4,-4,-25,-2
17:15:39:611872,-4,0,0,-3,-7,-2,-6,3
17:15:39:625367,-2,-1,-4,-1,2,-6,-37,-3
17:15:39:633579,-2,-1,-4,-1,2,-6,-37,-3
17:15:39:634363,2,0,2,-3,-3,-1,-5,-2
17:15:39:640346,-4,-4,-3,1,-3,4,0,-2
17:15:39:647984,-4,-4,-3,1,-3,4,0,-2
17:15:39:655352,3,5,-3,4,9,5,11,1
17:15:39:662843,4,-1,-2,1,-6,-7,-10,2
17:15:39:670382,4,-1,-2,1,-6,-7,-10,2
17:15:39:677893,0,-3,1,-2,4,5,19,-2
17:15:39:685384,-4,1,-2,-1,4,3,1,-2
17:15:39:693563,-4,1,-2,-1,4,3,1,-2
17:15:39:694348,-3,-1,2,-5,-5,-3,-16,5
17:15:39:708550,1,-1,0,0,-2,4,38,3
17:15:39:709359,1,-1,0,0,-2,4,38,3
17:15:39:715357,1,-3,-3,3,-5,-1,-3,-6
17:15:39:722914,5,1,-5,-7,0,-4,-8,-1
17:15:39:730358,5,1,-5,-7,0,-4,-8,-1
17:15:39:737826,-3,-3,-1,-5,3,-4,2,1
17:15:39:745389,-3,-4,1,0,1,0,-5,0
17:15:39:753566,-3,-4,1,0,1,0,-5,0
17:15:39:754373,-4,-1,-2,-3,-3,2,-8,-6
17:15:39:768523,1,-2,-1,-1,0,-3,-2,0
17:15:39:769329,1,-2,-1,-1,0,-3,-2,0
17:15:39:775338,-1,-1,-3,6,-3,-1,5,4
17:15:39:782828,-2,0,-3,-5,-1,1,8,-3
17:15:39:790395,-2,0,-3,-5,-1,1,8,-3
17:15:39:797813,-2,2,-3,1,7,-2,-18,-3
17:15:39:805348,-1,-2,-2,-1,1,-2,3,0
17:15:39:813591,-1,-2,-2,-1,1,-2,3,0
17:15:39:814354,3,-4,-4,-6,0,-11,-4,1
17:15:39:828541,-1,-2,0,0,-7,-3,-9,-7
17:15:39:829365,-1,-2,0,0,-7,-3,-9,-7
17:15:39:835348,-3,0,2,7,-4,3,7,-3
17:15:39:842880,-1,1,2,0,8,10,17,5
17:15:39:850436,-1,1,2,0,8,10,17,5
17:15:39:857852,1,-1,-2,-5,-9,-4,-6,0
17:15:39:865351,-1,-1,-2,0,-2,-8,-13,-3
17:15:39:873611,-1,-1,-2,0,-2,-8,-13,-3
17:15:39:874447,0,-4,1,-3,0,3,8,-2
17:15:39:888577,-2,1,0,-1,2,1,4,-1
17:15:39:889391,-2,1,0,-1,2,1,4,-1
17:15:39:895333,-3,-2,-5,1,6,5,20,4
17:15:39:902893,-5,-5,-4,0,-4,-1,-4,-3
17:15:39:910427,-5,-5,-4,0,-4,-1,-4,-3
17:15:39:917848,1,0,1,0,-4,-7,7,0
17:15:39:925359,-3,-2,-6,0,-2,-4,-9,2
17:15:39:933527,-3,-2,-6,0,-2,-4,-9,2
17:15:39:934348,-2,-1,0,-2,0,1,-18,-3
17:15:39:948571,1,-2,9,0,-2,-1,-9,-3
17:15:39:949412,1,-2,9,0,-2,-1,-9,-3
17:15:39:955368,-2,-4,-4,1,0,0,-1,-2
17:15:39:962820,1,-3,-9,-2,-5,-1,16,2
17:15:39:970391,1,-3,-9,-2,-5,-1,16,2
17:15:39:977871,1,2,1,-2,2,-2,-7,-2
17:15:39:985397,-1,5,5,0,3,2,-6,-4
17:15:40:1103,-1,5,5,0,3,2,-6,-4
17:15:40:1919,-3,0,3,-4,2,-7,-29,-6
17:15:40:8513,-2,1,-2,0,-1,7,49,8
17:15:40:9320,-2,1,-2,0,-1,7,49,8
17:15:40:15364,2,-2,-2,-1,-2,-4,-17,-2
17:15:40:22870,4,-1,0,-1,2,4,-8,-1
17:15:40:30369,4,-1,0,-1,2,4,-8,-1
17:15:40:37897,-3,-3,0,0,-2,2,10,-3
17:15:40:45368,0,1,-9,-3,-3,-3,-1,-4
17:15:40:53552,0,1,-9,-3,-3,-3,-1,-4
17:15:40:54342,-2,-2,-5,-3,-5,-3,12,0
17:15:40:68531,-3,-3,2,3,-5,-2,-15,1
17:15:40:69339,-3,-3,2,3,-5,-2,-15,1
17:15:40:75387,-1,1,-1,3,0,-3,-8,0
17:15:40:82838,4,-1,1,-9,0,1,-8,-3
17:15:40:90388,4,-1,1,-9,0,1,-8,-3
17:15:40:97825,0,-3,0,-1,-3,-1,0,6
17:15:40:105364,-1,-1,2,-2,9,-2,-9,2
17:15:40:113576,-1,-1,2,-2,9,-2,-9,2
17:15:40:114377,0,-1,0,5,-1,0,-16,-7
17:15:40:128568,-3,-2,-8,-5,-7,-5,-44,-8
17:15:40:129362,-3,-2,-8,-5,-7,-5,-44,-8
17:15:40:135351,0,-4,-2,-2,-1,1,18,4
17:15:40:142937,-4,0,2,0,-2,-1,8,-3
17:15:40:150411,-4,0,2,0,-2,-1,8,-3
17:15:40:157855,-4,3,1,1,1,0,18,0
17:15:40:165360,2,-1,-2,2,2,-6,-2,5
17:15:40:173588,2,-1,-2,2,2,-6,-2,5
17:15:40:174382,2,-4,-3,-4,-3,1,-3,-8
17:15:40:188595,-4,-3,-5,-8,-2,2,9,-2
17:15:40:189369,-4,-3,-5,-8,-2,2,9,-2
17:15:40:195366,-3,-3,6,-1,-3,-4,-21,-7
17:15:40:202878,-1,-2,-3,0,0,6,30,3
17:15:40:210440,-1,-2,-3,0,0,6,30,3
17:15:40:217848,3,5,-5,2,4,-2,-10,2
17:15:40:225452,-4,-2,1,5,-6,-7,-8,-2
17:15:40:233561,-4,-2,1,5,-6,-7,-8,-2
17:15:40:234354,-2,-6,-2,-4,-14,-3,23,5
17:15:40:248579,3,3,1,-4,-1,-2,5,-2
17:15:40:249416,3,3,1,-4,-1,-2,5,-2
17:15:40:255382,-3,-5,-1,-4,3,3,0,-1
17:15:40:262862,-4,-5,1,-1,0,-3,-16,-7
17:15:40:278657,-4,-5,1,-1,0,-3,-16,-7
17:15:40:279352,-2,4,-2,-1,-1,-5,8,-2
17:15:40:285355,1,-3,-2,1,-6,-5,-11,-1
17:15:40:293570,1,-3,-2,1,-6,-5,-11,-1
17:15:40:294398,-2,-1,-5,1,-5,1,-6,-1
17:15:40:308547,-1,1,-2,4,3,1,16,0
17:15:40:309379,-1,1,-2,4,3,1,16,0
17:15:40:315360,-1,-1,0,-1,4,-1,-6,-1
17:15:40:322875,1,-3,2,-4,-1,4,6,-3
17:15:40:330415,1,-3,2,-4,-1,4,6,-3
17:15:40:337858,0,0,0,-5,6,1,-8,-2
17:15:40:345327,3,-2,-4,1,-1,3,-3,1
17:15:40:361148,3,-2,-4,1,-1,3,-3,1
17:15:40:361917,-2,-2,-3,-1,-10,-3,-9,2
17:15:40:368614,-4,-1,1,2,1,5,8,5
17:15:40:369428,-4,-1,1,2,1,5,8,5
17:15:40:383516,-1,0,-5,1,-1,-4,5,2
17:15:40:384315,-3,-2,0,-2,-2,6,48,-3
17:15:40:390418,-3,-2,0,-2,-2,6,48,-3
17:15:40:405983,-1,-4,-4,-5,1,2,-2,-1
17:15:40:406786,-2,1,0,1,3,-12,-30,-5
17:15:40:413520,-2,1,0,1,3,-12,-30,-5
17:15:40:414355,-4,-2,1,2,3,3,4,-3
17:15:40:428539,0,-2,0,-1,0,-2,-4,0
17:15:40:429361,0,-2,0,-1,0,-2,-4,0
17:15:40:435308,5,1,2,-1,-2,-4,-9,1
17:15:40:442860,-2,1,-6,-1,-4,-2,-15,-8
17:15:40:450405,-2,1,-6,-1,-4,-2,-15,-8
17:15:40:457821,0,-2,5,0,3,8,10,0
17:15:40:465327,-5,-2,-10,0,-8,-11,-21,-8
17:15:40:473551,-5,-2,-10,0,-8,-11,-21,-8
17:15:40:474388,0,-1,-2,-1,2,4,15,2
17:15:40:488550,0,-4,5,-3,3,-3,-15,8
17:15:40:489364,0,-4,5,-3,3,-3,-15,8
17:15:40:495323,-2,2,2,-6,-6,-4,1,-3
17:15:40:511068,-1,2,-4,-2,-1,2,3,1
17:15:40:511864,-1,2,-4,-2,-1,2,3,1
17:15:40:517825,4,-3,-4,-3,-1,2,-12,-1
17:15:40:525329,1,-2,-1,-4,-9,-6,4,2
17:15:40:533580,1,-2,-1,-4,-9,-6,4,2
17:15:40:534359,-5,1,-6,3,3,0,-3,2
17:15:40:548558,5,1,5,1,0,5,26,3
17:15:40:549373,5,1,5,1,0,5,26,3
17:15:40:555310,-5,-5,-1,-4,0,-7,-9,-11
17:15:40:562817,-3,1,1,-1,-8,-9,-9,1
17:15:40:570408,-3,1,1,-1,-8,-9,-9,1
17:15:40:577848,-3,-1,-2,2,-3,4,-7,-3
17:15:40:585405,1,-5,-1,-3,6,1,-21,-7
17:15:40:593576,1,-5,-1,-3,6,1,-21,-7
17:15:40:594363,1,4,1,-4,-6,-9,-10,-3
17:15:40:616707,-1,1,-3,5,2,1,-7,-4
17:15:40:617521,-1,1,-3,5,2,1,-7,-4
17:15:40:618338,1,-1,-1,1,-6,-3,3,2
17:15:40:631023,-4,0,-1,-2,-2,1,5,-1
17:15:40:631853,-4,0,-1,-2,-2,1,5,-1
17:15:40:637811,-2,-2,-2,2,2,1,17,7
17:15:40:661741,1,-8,-1,-3,-2,-2,-8,-2
17:15:40:662540,1,-8,-1,-3,-2,-2,-8,-2
17:15:40:663334,2,3,2,-2,-1,-4,-1,0
17:15:40:668506,-4,-1,-1,2,-1,-5,15,0
17:15:40:669356,-4,-1,-1,2,-1,-5,15,0
17:15:40:675389,-5,-2,0,6,1,9,5,-1
17:15:40:691099,1,3,-5,-3,2,7,-10,1
17:15:40:691847,1,3,-5,-3,2,7,-10,1
17:15:40:697848,-1,0,2,-3,3,-1,4,0
17:15:40:706026,1,1,0,0,-1,-6,6,-2
17:15:40:706851,1,1,0,0,-1,-6,6,-2
17:15:40:720355,-1,-5,-2,-2,-3,-4,3,-2
17:15:40:728503,-4,-1,-5,-1,1,12,36,8
17:15:40:729306,-4,-1,-5,-1,1,12,36,8
17:15:40:735350,-1,0,-5,-2,0,-7,-31,-9
17:15:40:751097,0,1,5,1,2,6,15,0
17:15:40:751883,0,1,5,1,2,6,15,0
17:15:40:766707,-2,3,-5,2,0,5,14,10
17:15:40:767594,-6,-3,1,-2,-1,-5,-16,-7
17:15:40:768348,-6,-3,1,-2,-1,-5,-16,-7
17:15:40:789187,1,-2,0,-2,-5,-8,-18,-10
17:15:40:789967,1,-2,-5,-3,-3,-1,-9,-1
17:15:40:790813,1,-2,-5,-3,-3,-1,-9,-1
17:15:40:795352,-1,-3,-1,0,-2,-6,-11,0
17:15:40:811006,-1,-6,-1,3,1,-1,-31,-4
17:15:40:811818,-1,-6,-1,3,1,-1,-31,-4
17:15:40:826044,1,-2,0,-3,-2,-2,-1,-3
17:15:40:826779,-2,1,3,-3,-1,-10,-19,-8
17:15:40:832890,-2,1,3,-3,-1,-10,-19,-8
17:15:40:840344,0,-1,-3,0,-6,3,11,-3
17:15:40:848490,-2,2,-3,-3,3,-2,31,1
17:15:40:849315,-2,2,-3,-3,3,-2,31,1
17:15:40:855345,-1,-2,1,-7,-3,-5,-3,-1
17:15:40:871108,-7,-4,-1,1,0,9,16,-1
17:15:40:871900,-7,-4,-1,1,0,9,16,-1
17:15:40:877836,5,3,0,3,8,7,24,6
17:15:40:893587,3,1,-2,-3,-8,-8,-11,2
17:15:40:894369,3,1,-2,-3,-8,-8,-11,2
17:15:40:900309,-7,-4,-1,-4,-7,-7,-29,-8
17:15:40:908540,1,0,2,-1,1,0,-8,-4
17:15:40:909349,1,0,2,-1,1,0,-8,-4
17:15:40:915334,-2,0,1,-2,-2,1,2,-4
17:15:40:931520,0,-3,-3,0,1,0,-4,3
17:15:40:932335,0,-3,-3,0,1,0,-4,3
17:15:40:937843,3,-3,-2,0,0,-2,-4,7
17:15:40:946097,-2,-3,-2,-2,-1,-1,2,2
17:15:40:946857,-2,-3,-2,-2,-1,-1,2,2
17:15:40:960324,-2,2,0,-2,-4,8,41,3
17:15:40:968556,2,3,3,3,1,10,37,7
17:15:40:969369,2,3,3,3,1,10,37,7
17:15:40:975318,-2,-2,-5,3,2,-8,-12,-6
17:15:40:999206,-3,-1,-3,-4,-3,-7,-7,-2
17:15:40:999987,-3,-1,-3,-4,-3,-7,-7,-2
17:15:41:805,-2,-2,2,-9,1,1,2,0
17:15:41:6037,5,2,-5,4,-2,-4,6,-3
17:15:41:6848,5,2,-5,4,-2,-4,6,-3
17:15:41:20375,-4,-2,-2,6,0,-3,-16,-3
17:15:41:28927,-5,-5,-1,-7,-8,-2,-14,-2
17:15:41:36050,-5,-5,-1,-7,-8,-2,-14,-2
17:15:41:36848,-4,-4,-3,-2,4,5,5,3
17:15:41:51015,6,3,-2,0,1,-3,-7,3
17:15:41:51920,6,3,-2,0,1,-3,-7,3
17:15:41:57910,2,-1,2,-1,-2,4,-4,-3
17:15:41:66029,0,0,0,-1,0,-3,1,2
17:15:41:66856,0,0,0,-1,0,-3,1,2
17:15:41:80389,-1,-1,8,-2,2,-6,-9,-3
17:15:41:88571,-1,-1,8,-2,2,-6,-9,-3
17:15:41:89357,0,3,-4,-1,-2,-3,-24,-5
17:15:41:102875,2,-1,-4,-2,-2,0,4,-2
17:15:41:111044,2,-1,-4,-2,-2,0,4,-2
17:15:41:111818,-3,-3,-5,-3,-2,-8,-12,-4
17:15:41:125339,-1,1,0,2,-5,-3,-2,1
17:15:41:133599,-1,1,0,2,-5,-3,-2,1
17:15:41:134369,-8,-3,2,-1,-5,-2,-5,-5
17:15:41:140342,-5,-2,-2,1,-1,-2,-28,-7
17:15:41:148578,-5,-2,-2,1,-1,-2,-28,-7
17:15:41:149370,8,4,3,2,1,-2,15,8
17:15:41:155398,14,-4,-4,2,7,3,-29,3
17:15:41:171207,14,-4,-4,2,7,3,-29,3
17:15:41:171873,-15,-6,-4,-3,-7,1,-18,-14
17:15:41:177851,19,0,-7,-8,0,4,25,12
17:15:41:193582,19,0,-7,-8,0,4,25,12
17:15:41:194384,3,3,-14,2,3,-3,6,1
17:15:41:209213,-8,1,2,5,-6,-4,17,-3
17:15:41:210082,-8,1,2,5,-6,-4,17,-3
17:15:41:210775,-3,-3,6,-7,0,2,-2,0
17:15:41:215329,-3,-2,-7,-4,3,-1,4,-1
17:15:41:231112,-3,-2,-7,-4,3,-1,4,-1
17:15:41:231778,-1,-2,-10,-1,-2,10,32,2
17:15:41:237833,-3,-1,2,0,-3,2,22,-5
17:15:41:253540,-3,-1,2,0,-3,2,22,-5
17:15:41:254342,6,3,12,-2,-3,-8,-21,-9
17:15:41:260398,-20,-4,1,-3,-7,-8,-16,-5
17:15:41:276697,-20,-4,1,-3,-7,-8,-16,-5
17:15:41:277488,-5,-4,3,2,6,15,57,8
17:15:41:278286,0,2,3,-4,2,4,-3,3
17:15:41:291100,0,2,3,-4,2,4,-3,3
17:15:41:291857,-1,-6,-8,3,-5,-10,-35,-5
17:15:41:297861,5,2,-5,1,0,-2,17,4
17:15:41:313580,5,2,-5,1,0,-2,17,4
17:15:41:314376,0,1,3,-4,-8,-3,-9,-2
17:15:41:320329,-5,-1,14,2,3,-2,-14,-1
17:15:41:328586,-5,-1,14,2,3,-2,-14,-1
17:15:41:329372,0,0,1,-7,5,-2,19,2
17:15:41:335358,2,3,1,-2,-1,2,21,5
17:15:41:351133,2,3,1,-2,-1,2,21,5
17:15:41:351869,7,-4,-2,-1,1,2,-41,0
17:15:41:357835,15,-6,-3,3,-8,-9,-28,-5
17:15:41:381731,15,-6,-3,3,-8,-9,-28,-5
17:15:41:382512,1,-1,-15,-6,1,-3,-3,-1
17:15:41:383287,-4,-7,-31,-1,-3,-7,-23,-5
17:15:41:388572,-4,-7,-31,-1,-3,-7,-23,-5
17:15:41:389361,-2,0,-2,5,-5,-2,-15,-4
17:15:41:395334,-6,1,1,-2,-1,2,5,-5
17:15:41:411073,-6,1,1,-2,-1,2,5,-5
17:15:41:411846,-5,-3,8,3,6,-4,3,-2
17:15:41:417871,-3,2,2,0,4,-2,-8,-5
17:15:41:433565,-3,2,2,0,4,-2,-8,-5
17:15:41:434316,2,1,4,-1,-2,6,16,2
17:15:41:440353,-3,3,8,3,0,4,12,4
17:15:41:448532,-3,3,8,3,0,4,12,4
17:15:41:449483,-7,-1,10,1,0,0,9,1
17:15:41:455327,-14,-3,0,-7,-2,-5,5,-13
17:15:41:471065,-14,-3,0,-7,-2,-5,5,-13
17:15:41:471835,0,0,0,0,2,-1,-13,-6
17:15:41:485327,5,3,1,0,-2,-6,-22,-1
17:15:41:493601,5,3,1,0,-2,-6,-22,-1
17:15:41:494364,-1,-2,-5,-2,-6,-4,16,1
17:15:41:500340,-4,-5,-7,-8,-5,-4,-9,-2
17:15:41:508595,-4,-5,-7,-8,-5,-4,-9,-2
17:15:41:509328,-4,-3,-6,-2,-6,3,10,3
17:15:41:515347,5,-2,13,4,-1,-8,-12,0
17:15:41:531135,5,-2,13,4,-1,-8,-12,0
17:15:41:531883,9,1,0,3,5,2,11,0
17:15:41:537861,-3,3,6,2,-4,5,17,4
17:15:41:553590,-3,3,6,2,-4,5,17,4
17:15:41:554373,-1,-5,-2,-6,0,-2,-10,-6
17:15:41:560367,22,1,-2,-4,-1,4,22,7
17:15:41:568533,22,1,-2,-4,-1,4,22,7
17:15:41:569304,-9,0,-10,-5,-5,-7,-30,-11
17:15:41:591732,2,-1,-3,4,1,0,4,0
17:15:41:592503,2,-1,-3,4,1,0,4,0
17:15:41:593315,-1,0,1,1,0,-1,-3,4
17:15:41:597844,-3,-2,0,-2,1,9,49,8
17:15:41:605408,-3,-2,0,-2,1,9,49,8
17:15:41:612824,-7,-2,0,-2,0,1,-2,0
17:15:41:620328,-9,-3,-6,2,0,2,-21,-5
17:15:41:628553,-9,-3,-6,2,0,2,-21,-5
17:15:41:629365,1,3,-1,-1,3,5,9,5
17:15:41:642848,-3,1,-4,-6,-1,-8,-16,-3
17:15:41:651689,-3,1,-4,-6,-1,-8,-16,-3
17:15:41:652507,2,-1,4,1,1,-4,-13,-4
17:15:41:657837,-3,-3,-6,-1,-11,-3,3,-3
17:15:41:665473,-3,-3,-6,-1,-11,-3,3,-3
17:15:41:672867,-3,1,-3,0,0,-1,1,-3
17:15:41:680358,-10,-2,-1,-1,5,4,16,-4
17:15:41:688547,-10,-2,-1,-1,5,4,16,-4
17:15:41:689330,4,-2,-1,-2,4,0,0,4
17:15:41:702860,-1,-1,2,-5,-2,-1,-13,-1
17:15:41:711136,-1,-1,2,-5,-2,-1,-13,-1
17:15:41:711891,-2,-2,13,0,-6,-13,-11,-3
17:15:41:717855,-9,-3,-9,-4,-2,-9,-23,-11
17:15:41:725402,-9,-3,-9,-4,-2,-9,-23,-11
17:15:41:732860,3,-3,-4,2,-1,9,12,1
17:15:41:740356,2,-2,3,0,-1,3,-14,0
17:15:41:748526,2,-2,3,0,-1,3,-14,0
17:15:41:749376,0,1,-3,-1,-1,3,-3,-1
17:15:41:762877,0,-2,-4,-3,4,-6,-16,0
17:15:41:771111,0,-2,-4,-3,4,-6,-16,0
17:15:41:771829,1,0,1,-1,-3,0,1,-4
17:15:41:777858,-1,-1,-1,2,-2,1,17,2
17:15:41:785391,-1,-1,-1,2,-2,1,17,2
17:15:41:792812,-8,-5,-6,4,-6,-8,-31,-5
17:15:41:800306,0,-1,2,2,-1,7,36,1
17:15:41:808565,0,-1,2,2,-1,7,36,1
17:15:41:809371,-2,-2,-2,-8,2,-3,-12,-2
17:15:41:822902,3,-3,-2,-3,-1,-3,9,2
17:15:41:831056,3,-3,-2,-3,-1,-3,9,2
17:15:41:831867,-1,0,-2,-1,2,-3,7,5
17:15:41:837854,-1,1,0,1,-4,-5,-22,1
17:15:41:845396,-1,1,0,1,-4,-5,-22,1
17:15:41:852824,3,3,-4,-1,-3,-2,0,-6
17:15:41:860347,-2,-2,-1,-4,0,-1,-6,-5
17:15:41:868574,-2,-2,-1,-4,0,-1,-6,-5
17:15:41:869342,-4,-2,-2,-3,1,0,-25,-13
17:15:41:882849,4,-2,-1,-5,-1,6,35,5
17:15:41:891142,4,-2,-1,-5,-1,6,35,5
17:15:41:891790,0,0,0,-5,-2,-1,-1,3
17:15:41:897851,-3,2,0,-4,0,-4,-22,-6
17:15:41:905443,-3,2,0,-4,0,-4,-22,-6
17:15:41:912842,-5,1,14,3,-2,-3,4,1
17:15:41:920320,-1,-4,1,3,2,3,3,-1
17:15:41:929226,-1,-4,1,3,2,3,3,-1
17:15:41:930098,0,-3,-3,2,-8,-5,-29,-5
17:15:41:942841,-1,1,-2,2,0,9,0,3
17:15:41:951124,-1,1,-2,2,0,9,0,3
17:15:41:951835,-5,0,-2,-4,-1,0,17,1
17:15:41:957855,1,2,-6,-4,4,-8,-9,5
17:15:41:965405,1,2,-6,-4,4,-8,-9,5
17:15:41:972867,4,0,-5,-3,-1,-4,9,2
17:15:41:980358,4,-2,-7,-1,-4,-1,-8,-2
17:15:41:988541,4,-2,-7,-1,-4,-1,-8,-2
17:15:41:989368,-1,2,-3,3,2,4,10,2
17:15:42:2843,1,-2,4,1,1,1,-5,0
17:15:42:11115,1,-2,4,1,1,1,-5,0
17:15:42:11874,-1,-6,4,-2,-1,-3,2,-3
17:15:42:17839,0,0,2,-1,-6,-3,1,-3
17:15:42:25367,0,0,2,-1,-6,-3,1,-3
17:15:42:32836,1,-2,-1,1,7,20,62,13
17:15:42:40393,-1,-1,4,-1,-1,-3,10,-1
17:15:42:48532,-1,-1,4,-1,-1,-3,10,-1
17:15:42:49347,-2,-6,-8,-1,-3,-8,-24,-8
17:15:42:62863,-5,-1,6,0,0,3,14,3
17:15:42:71031,-5,-1,6,0,0,3,14,3
17:15:42:71804,-1,-3,-13,-6,-4,0,-4,2
17:15:42:77861,0,0,-8,0,-1,-4,-19,-6
17:15:42:85383,0,0,-8,0,-1,-4,-19,-6
17:15:42:92802,-4,0,-1,3,0,-3,18,-1
17:15:42:100321,-1,0,-2,1,-5,-2,12,5
17:15:42:108673,-1,0,-2,1,-5,-2,12,5
17:15:42:109348,16,1,1,-3,4,1,-12,0
17:15:42:122866,-18,-3,0,-3,3,4,15,-6
17:15:42:131032,-18,-3,0,-3,3,4,15,-6
17:15:42:131847,2,2,4,-5,-5,-4,-24,-8
17:15:42:137798,-5,-2,-3,1,-2,-6,-14,-6
17:15:42:145387,-5,-2,-3,1,-2,-6,-14,-6
17:15:42:152815,-4,1,2,-2,2,0,-7,1
17:15:42:160319,-3,-1,-10,-2,-1,-5,-18,-2
17:15:42:168550,-3,-1,-10,-2,-1,-5,-18,-2
17:15:42:169332,-5,-3,-3,0,-2,1,3,0
17:15:42:182813,6,-2,1,-2,4,-4,6,2
17:15:42:191117,6,-2,1,-2,4,-4,6,2
17:15:42:191777,-5,-2,-3,-1,-3,-3,-3,-4
17:15:42:197853,3,4,3,-2,-1,3,0,-1
17:15:42:205421,3,4,3,-2,-1,3,0,-1
17:15:42:212825,-8,-2,2,4,-4,-10,-22,-2
17:15:42:220313,2,1,6,-1,2,6,4,1
17:15:42:228588,2,1,6,-1,2,6,4,1
17:15:42:229390,1,-2,-9,-4,-2,2,-5,-4
17:15:42:242917,7,1,-6,1,-6,-5,-13,0
17:15:42:251088,7,1,-6,1,-6,-5,-13,0
17:15:42:251856,-11,3,4,3,-1,-7,-7,-1
17:15:42:257922,-2,-7,0,1,0,-2,7,-6
17:15:42:265431,-2,-7,0,1,0,-2,7,-6
17:15:42:272872,1,-6,1,-5,-3,4,10,-2
17:15:42:280362,1,-3,-4,-3,1,-1,-19,-4
17:15:42:296137,1,-3,-4,-3,1,-1,-19,-4
17:15:42:296864,0,0,2,-4,-5,-9,1,3
17:15:42:302840,-4,0,0,1,0,-4,-22,0
17:15:42:311025,-4,0,0,1,0,-4,-22,0
17:15:42:311821,-2,-3,2,1,-4,8,31,4
17:15:42:317841,-24,-4,-4,-2,7,10,33,-11
17:15:42:325382,-24,-4,-4,-2,7,10,33,-11
17:15:42:332795,30,4,-14,-3,2,-5,-9,-7
17:15:42:340350,8,3,1,4,-3,2,33,12
17:15:42:348529,8,3,1,4,-3,2,33,12
17:15:42:349348,-20,-5,0,3,3,0,1,-4
17:15:42:362862,0,-3,-1,-9,-4,-4,-24,-6
17:15:42:371022,0,-3,-1,-9,-4,-4,-24,-6
17:15:42:371814,-7,-2,2,-2,-1,-4,-11,2
17:15:42:377807,-5,-4,-6,-1,-3,-6,-8,-1
17:15:42:385397,-5,-4,-6,-1,-3,-6,-8,-1
17:15:42:392847,1,3,6,-2,-2,-2,3,-4
17:15:42:409238,4,-1,-16,-3,-2,-2,3,2
17:15:42:410021,4,-1,-16,-3,-2,-2,3,2
17:15:42:410807,1,-3,-1,-1,-1,1,-8,4
17:15:42:422859,0,0,1,4,-4,-6,-9,-3
17:15:42:431092,0,0,1,4,-4,-6,-9,-3
17:15:42:431833,-8,2,-2,-4,-2,-4,6,1
17:15:42:437884,5,-1,3,-7,-1,-1,10,6
17:15:42:445371,5,-1,3,-7,-1,-1,10,6
17:15:42:452803,1,-2,4,-1,1,9,55,7
17:15:42:460369,-1,-4,-3,-2,3,0,5,5
17:15:42:468531,-1,-4,-3,-2,3,0,5,5
17:15:42:469371,1,-2,-1,4,-1,2,-16,-5
17:15:42:482876,-3,5,-4,3,-2,-5,-9,-7
