Time,EMG1,EMG2,EMG3,EMG4,EMG5,EMG6,EMG7,EMG8
15:22:56:859387,-7,-24,-28,12,3,1,-3,-8
15:22:56:860177,23,-12,-12,-9,-3,-1,6,25
15:22:56:866286,23,-12,-12,-9,-3,-1,6,25
15:22:56:873692,2,22,-11,0,5,5,-1,0
15:22:56:890091,-9,6,-23,-21,3,3,1,-4
15:22:56:890890,-9,6,-23,-21,3,3,1,-4
15:22:56:891804,-9,-14,16,11,-11,0,1,-2
15:22:56:912599,0,-13,4,27,-11,-1,1,-2
15:22:56:913366,0,-13,4,27,-11,-1,1,-2
15:22:56:914177,-36,-90,-51,-40,-1,-8,-6,-13
15:22:56:918693,10,0,33,-3,1,1,0,2
15:22:56:926253,10,0,33,-3,1,1,0,2
15:22:56:941949,7,11,21,5,1,-1,1,2
15:22:56:942699,-12,-35,-26,4,-21,-4,-5,-10
15:22:56:949437,-12,-35,-26,4,-21,-4,-5,-10
15:22:56:950198,4,6,10,-13,6,4,4,1
15:22:56:964869,18,16,-14,-15,4,-1,0,7
15:22:56:971899,18,16,-14,-15,4,-1,0,7
15:22:56:972700,12,36,6,15,12,5,3,5
15:22:56:978814,-38,14,-42,-6,9,-3,-5,-32
15:22:56:986232,-38,14,-42,-6,9,-3,-5,-32
15:22:56:993706,33,13,43,2,11,8,8,21
15:22:57:1178,-25,-36,0,3,-5,-6,-5,4
15:22:57:9425,-25,-36,0,3,-5,-6,-5,4
15:22:57:10194,-6,39,37,18,-4,-7,-1,-1
15:22:57:24408,-5,-21,31,8,-3,-5,-6,-12
15:22:57:25213,-5,-21,31,8,-3,-5,-6,-12
15:22:57:39429,-16,-31,-11,-12,-13,-2,0,-5
15:22:57:40220,7,32,49,29,11,0,2,3
15:22:57:46283,7,32,49,29,11,0,2,3
15:22:57:53737,-26,-66,-20,-5,-4,-5,-5,-10
15:22:57:70092,-48,-23,0,-11,-4,-1,0,-12
15:22:57:70869,-48,-23,0,-11,-4,-1,0,-12
15:22:57:71658,-5,26,59,26,17,6,1,-4
15:22:57:84413,5,-18,-23,-16,-3,0,0,-1
15:22:57:85227,5,-18,-23,-16,-3,0,0,-1
15:22:57:107637,10,-3,-18,0,-11,-8,0,10
15:22:57:108425,8,5,7,11,4,0,1,1
15:22:57:109250,8,5,7,11,4,0,1,1
15:22:57:138299,-2,-34,-47,-7,-3,-3,-8,-7
15:22:57:139008,19,23,0,-10,0,-2,0,8
15:22:57:139829,19,23,0,-10,0,-2,0,8
15:22:57:140678,-10,33,-3,-10,-10,-1,-6,-34
15:22:57:144435,32,44,-25,-14,5,3,4,31
15:22:57:145210,32,44,-25,-14,5,3,4,31
15:22:57:167532,60,20,-23,3,-14,-6,-4,-4
15:22:57:168333,23,-10,27,-12,-11,-1,3,10
15:22:57:169192,23,-10,27,-12,-11,-1,3,10
15:22:57:173785,-3,-8,41,-12,1,2,-2,24
15:22:57:197594,-13,-37,-31,-17,7,-2,-4,-5
15:22:57:198384,-13,-37,-31,-17,7,-2,-4,-5
15:22:57:199213,-5,23,-8,-30,4,0,-2,3
15:22:57:204377,-15,-6,-8,-6,-8,-2,2,-4
15:22:57:205223,-15,-6,-8,-6,-8,-2,2,-4
15:22:57:211207,16,11,-18,-3,-23,-4,-2,-13
15:22:57:227423,73,15,28,24,8,0,10,34
15:22:57:228220,73,15,28,24,8,0,10,34
15:22:57:233687,86,25,6,6,-4,0,14,77
15:22:57:241175,-3,-49,-43,-23,-9,-7,1,-4
15:22:57:256966,-3,-49,-43,-23,-9,-7,1,-4
15:22:57:257785,-34,24,8,-8,14,-3,-9,-29
15:22:57:264453,-37,22,2,-5,7,6,-5,-13
15:22:57:265236,-37,22,2,-5,7,6,-5,-13
15:22:57:271198,-28,-4,-12,9,-4,2,-5,-14
15:22:57:287373,-19,-38,24,33,8,0,-5,-9
15:22:57:288189,-19,-38,24,33,8,0,-5,-9
15:22:57:293701,-53,25,1,11,10,3,1,-35
15:22:57:301173,-16,29,-14,-12,-6,1,-5,-26
15:22:57:316954,-16,29,-14,-12,-6,1,-5,-26
15:22:57:317779,8,-14,0,29,8,5,2,44
15:22:57:324433,-32,-27,-11,-18,0,1,-7,1
15:22:57:325233,-32,-27,-11,-18,0,1,-7,1
15:22:57:338684,-37,-5,-19,-7,-3,-2,-2,-37
15:22:57:346917,14,40,-10,-22,-8,4,-2,5
15:22:57:347786,14,40,-10,-22,-8,4,-2,5
15:22:57:353679,30,-47,-3,-5,14,-1,2,25
15:22:57:386343,10,-4,0,-3,-2,2,-2,5
15:22:57:387243,10,-4,0,-3,-2,2,-2,5
15:22:57:387996,-34,19,1,-2,1,-5,-4,-3
15:22:57:388761,2,-4,4,8,5,-6,-5,13
15:22:57:416437,2,-4,4,8,5,-6,-5,13
15:22:57:417215,-10,-1,13,1,-1,1,7,-2
15:22:57:417984,-30,-8,-52,-7,-9,-5,-1,-12
15:22:57:418789,-30,-8,-52,-7,-9,-5,-1,-12
15:22:57:446422,2,-16,-32,-81,-1,-1,-4,-8
15:22:57:447141,-1,-16,20,47,3,5,3,-9
15:22:57:447967,-1,-16,20,47,3,5,3,-9
15:22:57:448774,1,25,6,20,-29,4,-1,-8
15:22:57:476394,3,-21,-10,-2,-2,-6,-3,-10
15:22:57:477209,3,-21,-10,-2,-2,-6,-3,-10
15:22:57:478024,-7,-10,1,2,6,-14,-6,-11
15:22:57:478819,-1,4,5,11,5,0,2,2
15:22:57:489839,-1,4,5,11,5,0,2,2
15:22:57:490627,-6,-16,-3,5,7,-3,-2,-12
15:22:57:505043,14,39,45,-1,-1,0,3,6
15:22:57:521504,14,39,45,-1,-1,0,3,6
15:22:57:522234,-17,-2,5,31,12,3,-3,-23
15:22:57:523021,-29,9,-32,-59,-49,-20,-9,-25
15:22:57:523876,-29,9,-32,-59,-49,-20,-9,-25
15:22:57:551344,10,13,-12,17,2,6,6,18
15:22:57:552185,1,-9,0,5,11,-4,0,-4
15:22:57:553036,1,-9,0,5,11,-4,0,-4
15:22:57:553826,-7,-17,2,-11,-11,-3,-3,-6
15:22:57:581408,46,26,-11,8,12,1,1,48
15:22:57:582258,46,26,-11,8,12,1,1,48
15:22:57:583074,11,9,53,22,25,4,2,9
15:22:57:583838,-8,-14,-19,-62,-26,-3,2,-8
15:22:57:596527,-8,-14,-19,-62,-26,-3,2,-8
15:22:57:597254,-2,-38,-35,-11,-13,-2,-8,-4
15:22:57:598034,8,-14,-14,5,2,7,5,7
15:22:57:598874,8,-14,-14,5,2,7,5,7
15:22:57:601857,17,1,-4,-13,5,6,2,3
15:22:57:602680,11,4,1,23,17,1,-4,-2
15:22:57:625856,11,4,1,23,17,1,-4,-2
15:22:57:626592,-43,-31,-35,1,-7,-8,-6,-39
15:22:57:627408,29,44,52,25,9,3,4,3
15:22:57:628260,29,44,52,25,9,3,4,3
15:22:57:631200,-10,-21,-23,-9,-1,-6,-6,-11
15:22:57:656219,-22,-20,-12,-40,-10,-2,-5,-20
15:22:57:657054,-22,-20,-12,-40,-10,-2,-5,-20
15:22:57:657881,17,67,40,-11,-17,5,4,11
15:22:57:661205,-9,-23,9,6,8,8,2,3
15:22:57:685854,-9,-23,9,6,8,8,2,3
15:22:57:686547,-5,-25,1,-13,-11,-12,-4,0
15:22:57:687310,-4,-3,18,32,2,1,-2,-2
15:22:57:688229,-4,-3,18,32,2,1,-2,-2
15:22:57:691157,9,2,-20,24,6,0,0,13
15:22:57:715556,-9,-20,-20,4,4,-2,-2,-14
15:22:57:716355,-9,-20,-20,4,4,-2,-2,-14
15:22:57:717150,20,-22,18,-20,-18,1,4,46
15:22:57:721199,-3,11,25,14,7,2,1,2
15:22:57:745890,-3,11,25,14,7,2,1,2
15:22:57:746567,-6,-13,-2,16,-13,-8,-4,-10
15:22:57:747376,-3,8,14,19,8,-4,-2,-1
15:22:57:748202,-3,8,14,19,8,-4,-2,-1
15:22:57:751199,4,13,5,-14,4,2,3,0
15:22:57:767365,2,-54,-24,-6,13,-2,-4,0
15:22:57:768179,2,-54,-24,-6,13,-2,-4,0
15:22:57:773687,8,10,40,-6,13,6,3,4
15:22:57:781185,19,-39,-17,-19,-9,-7,-3,5
15:22:57:796924,19,-39,-17,-19,-9,-7,-3,5
15:22:57:797780,8,41,-1,19,2,-1,-3,-8
15:22:57:804368,-6,40,17,2,-6,3,3,3
15:22:57:805244,-6,40,17,2,-6,3,3,3
15:22:57:811222,17,-32,-51,-26,-7,-5,-6,18
15:22:57:826909,-13,17,18,12,2,-4,0,-7
15:22:57:827804,-13,17,18,12,2,-4,0,-7
15:22:57:833717,-15,3,20,11,5,2,1,-18
15:22:57:841221,-2,0,-14,3,5,-1,-3,-3
15:22:57:848822,-2,0,-14,3,5,-1,-3,-3
15:22:57:856189,-3,-30,-4,-24,-39,-17,-3,-4
15:22:57:864419,-5,23,-8,8,-19,4,4,-2
15:22:57:865225,-5,23,-8,8,-19,4,4,-2
15:22:57:871171,-4,1,6,-1,9,6,1,0
15:22:57:886929,12,7,-9,-3,5,-2,-2,14
15:22:57:887758,12,7,-9,-3,5,-2,-2,14
15:22:57:893688,1,-12,-9,3,-23,-10,-1,2
15:22:57:901191,-7,5,-1,-12,4,3,-4,-15
15:22:57:908812,-7,5,-1,-12,4,3,-4,-15
15:22:57:916224,-12,44,3,4,9,5,-2,-13
15:22:57:932611,-10,-16,-16,3,-10,-6,-4,-10
15:22:57:933390,-10,-16,-16,3,-10,-6,-4,-10
15:22:57:934200,7,-5,10,11,15,2,4,26
15:22:57:946976,-4,14,24,-7,4,2,1,4
15:22:57:947791,-4,14,24,-7,4,2,1,4
15:22:57:961946,-13,2,-20,2,-2,0,-3,-9
15:22:57:962645,-5,-19,-11,-8,-6,-4,-2,-4
15:22:57:968795,-5,-19,-11,-8,-6,-4,-2,-4
15:22:57:976230,6,0,3,0,13,1,1,6
15:22:57:984381,-8,5,-4,-10,-9,1,-2,-8
15:22:57:985198,-8,5,-4,-10,-9,1,-2,-8
15:22:57:991215,-7,6,21,2,2,4,-2,-13
15:22:58:6951,-22,-16,-12,-27,-2,-3,-1,-5
15:22:58:7811,-22,-16,-12,-27,-2,-3,-1,-5
15:22:58:13753,1,-2,-4,0,17,5,-1,-6
15:22:58:21154,0,-41,-10,10,1,-4,-3,0
15:22:58:28860,0,-41,-10,10,1,-4,-3,0
15:22:58:45061,-2,-6,17,3,-8,-4,-2,-7
15:22:58:45887,7,5,4,17,6,1,-4,0
15:22:58:46703,7,5,4,17,6,1,-4,0
15:22:58:51177,13,-35,-5,-18,-11,-5,0,-2
15:22:58:75104,12,16,-7,-5,-12,-3,5,21
15:22:58:75937,12,16,-7,-5,-12,-3,5,21
15:22:58:76818,7,-9,-4,9,15,1,-3,-1
15:22:58:81195,-10,-8,6,1,-2,-3,-2,-9
15:22:58:88713,-10,-8,6,1,-2,-3,-2,-9
15:22:58:105044,-19,-21,-31,8,-3,-2,0,-5
15:22:58:105822,10,54,-16,-16,-3,2,2,2
15:22:58:106630,10,54,-16,-16,-3,2,2,2
15:22:58:111271,-9,-10,-4,14,-4,-1,0,-2
15:22:58:135055,0,0,17,33,-12,-3,-1,-1
15:22:58:135867,0,0,17,33,-12,-3,-1,-1
15:22:58:136643,7,17,-14,3,6,4,0,8
15:22:58:149418,7,17,-14,3,6,4,0,8
15:22:58:150230,6,3,9,-17,25,5,-1,-1
15:22:58:156154,-11,-5,-46,-1,1,0,-2,-4
15:22:58:172539,-11,-5,-46,-1,1,0,-2,-4
15:22:58:173349,15,31,9,12,-3,-4,-6,-5
15:22:58:174149,-5,3,21,-15,2,-5,-2,-2
15:22:58:186937,-5,3,21,-15,2,-5,-2,-2
15:22:58:187792,-33,-27,-15,-11,-1,-1,0,-3
15:22:58:201177,1,15,-12,-20,-2,-1,3,-1
15:22:58:209439,1,15,-12,-20,-2,-1,3,-1
15:22:58:210248,-9,-2,-24,-15,5,-3,-1,-9
15:22:58:216197,2,-2,-9,-27,-20,-9,-6,1
15:22:58:231960,2,-2,-9,-27,-20,-9,-6,1
15:22:58:232824,-4,8,27,0,33,6,-2,-6
15:22:58:238668,2,13,27,6,-13,-11,-1,2
15:22:58:246951,2,13,27,6,-13,-11,-1,2
15:22:58:247807,10,-2,14,-9,-34,-14,1,5
15:22:58:270073,-3,-16,4,4,-5,-4,-5,-8
15:22:58:270855,-3,-16,4,4,-5,-4,-5,-8
15:22:58:271678,1,-42,-25,-3,1,2,3,3
15:22:58:276173,-6,11,1,-18,-19,-7,-4,-3
15:22:58:300110,-6,11,1,-18,-19,-7,-4,-3
15:22:58:300924,-1,-8,20,14,-2,1,-1,-3
15:22:58:301710,28,27,-10,14,11,8,3,8
15:22:58:306945,28,27,-10,14,11,8,3,8
15:22:58:307849,-4,-36,-21,-2,-18,3,0,0
15:22:58:330095,-7,-8,-4,-6,-3,1,3,0
15:22:58:330891,-7,-8,-4,-6,-3,1,3,0
15:22:58:331696,3,14,22,18,-2,6,-3,-3
15:22:58:336173,-7,0,-4,14,14,0,-4,-4
15:22:58:351920,-7,0,-4,14,14,0,-4,-4
15:22:58:352720,-3,13,2,-1,6,-2,0,-1
15:22:58:358655,-1,2,14,23,0,-3,1,15
15:22:58:366958,-1,2,14,23,0,-3,1,15
15:22:58:367788,2,0,-5,14,4,-2,-3,-3
15:22:58:381190,-1,-7,16,-1,-1,-3,1,-4
15:22:58:389369,-1,-7,16,-1,-1,-3,1,-4
15:22:58:390221,-5,-11,-23,0,-5,-1,-1,3
15:22:58:396211,-9,8,8,-26,3,1,-2,-11
15:22:58:404451,-9,8,8,-26,3,1,-2,-11
15:22:58:405214,-10,11,28,11,-8,1,-1,-16
15:22:58:418682,-16,-11,-19,-40,-49,-6,-8,-12
15:22:58:426914,-16,-11,-19,-40,-49,-6,-8,-12
15:22:58:427821,-5,11,-8,11,6,2,1,-14
15:22:58:433708,-3,11,-1,16,1,-3,-1,-3
15:22:58:449178,-3,11,-1,16,1,-3,-1,-3
15:22:58:456864,1,-14,-2,1,-3,-9,-4,-7
15:22:58:457687,2,-21,17,18,9,3,-1,1
15:22:58:464839,2,-21,17,18,9,3,-1,1
15:22:58:471184,0,31,14,8,11,0,3,7
15:22:58:478723,7,6,1,0,-5,0,-1,4
15:22:58:486939,7,6,1,0,-5,0,-1,4
15:22:58:487829,6,3,-30,-15,-8,-4,-2,4
15:22:58:493724,-4,-15,-18,3,0,5,3,1
15:22:58:509424,-4,-15,-18,3,0,5,3,1
15:22:58:510249,49,-2,-8,-3,4,8,2,23
15:22:58:516185,-4,21,37,27,24,2,4,11
15:22:58:524445,-4,21,37,27,24,2,4,11
15:22:58:525194,-17,-22,-20,-16,4,-8,-5,-13
15:22:58:538666,0,-21,-11,28,10,-6,-4,-9
15:22:58:546942,0,-21,-11,28,10,-6,-4,-9
15:22:58:547817,3,12,2,0,11,5,1,6
15:22:58:553713,-4,5,5,37,-2,0,-2,-7
15:22:58:578302,-4,5,5,37,-2,0,-2,-7
15:22:58:579093,-11,-11,0,-6,-8,-3,-6,-6
15:22:58:579865,6,3,-1,-11,4,5,1,5
15:22:58:584366,6,3,-1,-11,4,5,1,5
15:22:58:585165,-2,23,30,23,17,3,4,4
15:22:58:607639,-11,-20,-27,-54,-32,-10,-6,-9
15:22:58:608381,-11,-20,-27,-54,-32,-10,-6,-9
15:22:58:609167,-1,0,-10,13,18,9,1,1
15:22:58:613698,13,16,19,-8,22,1,0,-9
15:22:58:629455,13,16,19,-8,22,1,0,-9
15:22:58:630239,0,26,40,-11,-4,-1,0,3
15:22:58:636170,-13,-10,-4,-11,-3,6,0,-15
15:22:58:644485,-13,-10,-4,-11,-3,6,0,-15
15:22:58:645294,-11,-6,-25,2,-10,-3,-4,1
15:22:58:658743,1,1,3,-1,2,3,1,13
15:22:58:666936,1,1,3,-1,2,3,1,13
15:22:58:667792,-6,16,-5,-9,-11,-2,3,3
15:22:58:673741,15,-22,-18,2,10,2,-2,-2
15:22:58:689449,15,-22,-18,2,10,2,-2,-2
15:22:58:690236,9,-42,-15,-24,-19,-6,-3,7
15:22:58:696211,-4,-5,10,-11,-13,-1,-2,5
15:22:58:704414,-4,-5,10,-11,-13,-1,-2,5
15:22:58:705207,-3,-8,-16,-15,-35,-19,-7,-11
15:22:58:718665,2,23,12,11,12,-5,-1,-2
15:22:58:726951,2,23,12,11,12,-5,-1,-2
15:22:58:727704,-2,5,-9,3,10,1,-3,-3
15:22:58:733691,-17,13,-17,1,3,15,2,3
15:22:58:749407,-17,13,-17,1,3,15,2,3
15:22:58:750217,-1,17,8,5,3,11,0,-2
15:22:58:756158,0,-3,2,-3,1,-15,-3,-5
15:22:58:764432,0,-3,2,-3,1,-15,-3,-5
15:22:58:765227,-21,-42,-23,-18,-5,-11,-5,-15
15:22:58:778773,23,10,6,-3,22,0,1,7
15:22:58:786904,23,10,6,-3,22,0,1,7
15:22:58:787709,5,-22,7,2,-7,-4,-2,3
15:22:58:793691,-2,-9,-4,-6,-6,-3,0,-9
15:22:58:809403,-2,-9,-4,-6,-6,-3,0,-9
15:22:58:810196,-10,15,21,20,12,10,4,-3
15:22:58:816180,-4,-9,-10,-13,-23,-5,-4,-3
15:22:58:824432,-4,-9,-10,-13,-23,-5,-4,-3
15:22:58:825257,41,0,26,-1,3,-4,-2,34
15:22:58:838748,-25,-3,-12,17,2,12,0,-24
15:22:58:846985,-25,-3,-12,17,2,12,0,-24
15:22:58:847686,15,15,-16,-18,-11,-2,-3,5
15:22:58:853657,13,9,15,7,16,5,1,15
15:22:58:869381,13,9,15,7,16,5,1,15
15:22:58:870193,-20,1,9,6,-29,-13,-5,-20
15:22:58:876248,-8,0,20,-16,6,-3,0,-6
15:22:58:884379,-8,0,20,-16,6,-3,0,-6
15:22:58:885181,6,5,-9,-11,11,-1,-1,3
15:22:58:898740,-3,-6,11,20,4,2,0,0
15:22:58:906939,-3,-6,11,20,4,2,0,0
15:22:58:907699,2,-7,-11,-18,1,11,3,7
15:22:58:913712,-3,-27,-17,6,9,6,-3,-13
15:22:58:929449,-3,-27,-17,6,9,6,-3,-13
15:22:58:930206,-10,16,18,4,3,0,2,-11
15:22:58:936207,9,-3,6,-22,-9,-12,-3,12
15:22:58:944242,9,-3,6,-22,-9,-12,-3,12
15:22:58:951153,-16,-14,-12,-2,7,-3,-4,-9
15:22:58:958684,44,41,36,0,-9,-1,2,26
15:22:58:966957,44,41,36,0,-9,-1,2,26
15:22:58:967715,10,-2,-6,11,-5,5,4,9
15:22:58:973736,-22,-23,-31,-5,0,0,-1,6
15:22:58:989412,-22,-23,-31,-5,0,0,-1,6
15:22:58:990237,2,11,27,8,3,-15,-4,-1
15:22:58:996217,-6,-8,-6,18,-1,-7,-3,-7
15:22:59:4399,-6,-8,-6,18,-1,-7,-3,-7
15:22:59:5231,-17,-33,-20,0,-1,-3,1,-4
15:22:59:18741,0,8,-29,-19,4,5,-3,-1
15:22:59:26906,0,8,-29,-19,4,5,-3,-1
15:22:59:27730,-4,-20,-11,-1,-7,0,-1,-6
15:22:59:33697,-2,15,26,-10,-19,-19,-10,-11
15:22:59:49413,-2,15,26,-10,-19,-19,-10,-11
15:22:59:50223,1,-13,-14,-5,12,4,0,-7
15:22:59:56202,-9,-6,-11,10,2,0,2,0
15:22:59:64421,-9,-6,-11,10,2,0,2,0
15:22:59:65191,11,20,17,-3,-11,-6,-1,5
15:22:59:78750,-3,-11,-11,0,-9,-3,-6,-28
15:22:59:86936,-3,-11,-11,0,-9,-3,-6,-28
15:22:59:87684,9,6,0,-5,8,4,2,10
15:22:59:93729,-8,-6,-1,-9,3,1,0,6
15:22:59:109411,-8,-6,-1,-9,3,1,0,6
15:22:59:110215,-8,10,-1,11,14,3,-7,-14
15:22:59:116209,-4,9,-11,8,15,1,2,6
15:22:59:124477,-4,9,-11,8,15,1,2,6
15:22:59:125197,-8,0,-1,1,7,3,0,-5
15:22:59:138703,2,-2,-4,-13,-23,-2,-3,2
15:22:59:146929,2,-2,-4,-13,-23,-2,-3,2
15:22:59:147673,1,9,8,2,-15,2,5,11
15:22:59:153705,-4,-8,-10,-4,-13,-6,0,4
15:22:59:169868,-4,-8,-10,-4,-13,-6,0,4
15:22:59:170658,-9,-2,-4,-1,-23,-21,-3,-11
15:22:59:176165,-2,6,-8,-8,-6,-11,-5,-15
15:22:59:183723,-2,6,-8,-8,-6,-11,-5,-15
15:22:59:199378,3,9,0,9,15,35,21,16
15:22:59:200147,-1,-7,-2,1,-5,-13,-2,5
15:22:59:206914,-1,-7,-2,1,-5,-13,-2,5
15:22:59:207706,38,-4,-4,2,17,2,-3,23
15:22:59:221184,3,0,2,-3,13,16,7,8
15:22:59:229452,3,0,2,-3,13,16,7,8
15:22:59:230262,-19,-3,3,-7,-15,-12,-17,-18
15:22:59:236204,43,10,7,20,5,3,30,74
15:22:59:243795,43,10,7,20,5,3,30,74
15:22:59:251218,-14,-8,-5,-3,-5,-16,-31,-26
15:22:59:258752,-16,-4,-3,-13,-25,-25,-22,-8
15:22:59:266933,-16,-4,-3,-13,-25,-25,-22,-8
15:22:59:267730,-2,-3,-5,-10,13,-25,-23,6
15:22:59:281236,-3,4,9,8,3,5,-2,-3
15:22:59:289360,-3,4,9,8,3,5,-2,-3
15:22:59:290247,-5,1,-1,-3,-20,12,17,-3
15:22:59:296255,-3,1,-3,-2,4,2,2,-12
15:22:59:303749,-3,1,-3,-2,4,2,2,-12
15:22:59:311236,0,4,8,-1,5,4,9,3
15:22:59:318728,-6,-5,-6,-3,9,12,-9,-27
15:22:59:326919,-6,-5,-6,-3,9,12,-9,-27
15:22:59:327746,-9,-10,-13,9,16,23,15,1
15:22:59:341219,4,3,1,-12,-17,11,43,15
15:22:59:349388,4,3,1,-12,-17,11,43,15
15:22:59:350174,-3,-3,0,-10,-8,-16,-7,-21
15:22:59:356209,-8,-7,-3,8,34,18,7,3
15:22:59:363787,-8,-7,-3,8,34,18,7,3
15:22:59:371201,-1,-2,-5,-15,30,-22,-20,-4
15:22:59:378755,-15,3,7,10,-22,-33,-32,3
15:22:59:386871,-15,3,7,10,-22,-33,-32,3
15:22:59:387815,-2,2,-1,1,-2,11,-28,-6
15:22:59:401168,13,-11,-5,-8,7,-6,-14,-6
15:22:59:409380,13,-11,-5,-8,7,-6,-14,-6
15:22:59:410183,0,2,-1,-18,-48,-17,-5,-1
15:22:59:416181,-14,-1,-5,-17,-20,9,7,-21
15:22:59:423816,-14,-1,-5,-17,-20,9,7,-21
15:22:59:431206,21,0,2,8,9,6,16,19
15:22:59:438670,4,0,3,6,52,6,-4,-8
15:22:59:446952,4,0,3,6,52,6,-4,-8
15:22:59:447788,-5,1,-3,-15,-27,-8,3,-3
15:22:59:461209,6,1,3,12,10,10,0,18
15:22:59:469420,6,1,3,12,10,10,0,18
15:22:59:470198,-15,6,1,9,42,18,-18,-55
15:22:59:476198,-5,-2,-2,-6,1,-1,9,-17
15:22:59:483820,-5,-2,-2,-6,1,-1,9,-17
15:22:59:491261,1,-12,-5,-3,4,17,38,50
15:22:59:498722,-18,-3,3,-4,68,-28,-63,-51
15:22:59:506943,-18,-3,3,-4,68,-28,-63,-51
15:22:59:507725,-4,-6,-5,15,14,-1,5,-5
15:22:59:521225,7,3,-5,6,5,27,19,27
15:22:59:529478,7,3,-5,6,5,27,19,27
15:22:59:530247,-5,-2,-4,10,9,14,-3,6
15:22:59:536201,14,13,11,4,-35,1,34,12
15:22:59:543779,14,13,11,4,-35,1,34,12
15:22:59:559424,2,0,1,-5,-15,-15,4,6
15:22:59:560179,-6,-6,-8,-5,-31,-9,0,-46
15:22:59:566922,-6,-6,-8,-5,-31,-9,0,-46
15:22:59:567798,-9,1,2,-5,-3,-7,-1,-27
15:22:59:581209,-8,-11,-16,-35,-64,-7,2,19
15:22:59:589407,-8,-11,-16,-35,-64,-7,2,19
15:22:59:590195,5,5,0,-8,-25,-13,-7,0
15:22:59:596221,14,22,23,-9,-55,20,17,25
15:22:59:603826,14,22,23,-9,-55,20,17,25
15:22:59:611278,-5,6,8,-3,-21,-16,-33,-22
15:22:59:618753,5,-1,7,36,23,-4,-35,-2
15:22:59:626948,5,-1,7,36,23,-4,-35,-2
15:22:59:627713,13,5,12,28,39,-1,-10,-3
15:22:59:641224,-31,-15,-13,-16,-3,12,8,-1
15:22:59:649409,-31,-15,-13,-16,-3,12,8,-1
15:22:59:650224,5,-12,-6,6,-2,-16,10,8
15:22:59:656201,-2,2,-4,17,12,-23,-13,-5
15:22:59:663713,-2,2,-4,17,12,-23,-13,-5
15:22:59:671221,-13,-11,-14,-13,3,7,9,13
15:22:59:678750,4,17,17,16,10,-1,2,-5
15:22:59:686855,4,17,17,16,10,-1,2,-5
15:22:59:687685,-3,0,-20,-2,-2,11,0,-21
15:22:59:701188,0,9,26,-21,-14,-8,0,1
15:22:59:709386,0,9,26,-21,-14,-8,0,1
15:22:59:710209,-9,-29,-20,-1,-6,0,9,25
15:22:59:716253,2,-13,-26,5,23,0,1,-17
15:22:59:723774,2,-13,-26,5,23,0,1,-17
15:22:59:731206,88,18,6,-7,-9,-6,21,94
15:22:59:738660,0,-5,-2,4,-1,13,-3,-11
15:22:59:746908,0,-5,-2,4,-1,13,-3,-11
15:22:59:747709,-21,7,18,6,-7,0,-4,-14
15:22:59:761280,-9,24,6,2,34,39,5,10
15:22:59:769412,-9,24,6,2,34,39,5,10
15:22:59:770182,-27,-2,-7,-19,-67,0,-15,-86
15:22:59:776177,-13,-11,-34,-7,-15,-22,-1,-13
15:22:59:783821,-13,-11,-34,-7,-15,-22,-1,-13
15:22:59:791227,0,1,6,-12,-4,8,17,28
15:22:59:798698,7,-14,-28,8,1,-13,1,3
15:22:59:806967,7,-14,-28,8,1,-13,1,3
15:22:59:807802,-27,-11,-17,-5,-5,-11,-8,-13
15:22:59:821158,-2,-16,-40,0,4,-2,13,16
15:22:59:829444,-2,-16,-40,0,4,-2,13,16
15:22:59:830220,-8,24,-2,-36,-3,-16,-22,-17
15:22:59:836184,6,38,19,-1,4,-25,-3,17
15:22:59:843815,6,38,19,-1,4,-25,-3,17
15:22:59:851180,-3,-27,12,0,18,39,39,77
15:22:59:858700,-25,-42,18,-5,-18,-66,-27,-39
15:22:59:866949,-25,-42,18,-5,-18,-66,-27,-39
15:22:59:867776,-4,14,-13,16,34,5,9,-14
15:22:59:881195,-11,-25,-42,-7,-18,25,-13,-3
15:22:59:889408,-11,-25,-42,-7,-18,25,-13,-3
15:22:59:890226,-1,-9,20,-6,4,11,-28,-26
15:22:59:896200,14,10,60,-11,11,20,12,16
15:22:59:903804,14,10,60,-11,11,20,12,16
15:22:59:911224,4,22,-11,12,7,43,27,13
15:22:59:927674,-2,-12,-22,-38,26,-5,-30,-10
15:22:59:928402,-2,-12,-22,-38,26,-5,-30,-10
15:22:59:929243,-29,-31,-7,-6,-39,-30,15,-28
15:22:59:941206,2,41,33,28,6,-11,-12,-48
15:22:59:949398,2,41,33,28,6,-11,-12,-48
15:22:59:950221,32,16,-6,22,30,-8,-5,16
15:22:59:956161,1,-26,-15,-9,-19,4,7,27
15:22:59:963819,1,-26,-15,-9,-19,4,7,27
15:22:59:971178,-18,-16,-23,-4,34,-8,-10,-20
15:22:59:978716,24,15,17,10,18,16,29,44
15:22:59:986940,24,15,17,10,18,16,29,44
15:22:59:987791,-10,-7,-21,4,-8,-7,-6,8
15:23:00:1199,54,-36,-32,-13,-14,-1,3,53
15:23:00:9454,54,-36,-32,-13,-14,-1,3,53
15:23:00:10236,4,9,30,-26,-2,-4,-9,-10
15:23:00:16199,-42,-20,-41,-1,-42,-10,-4,-37
15:23:00:23878,-42,-20,-41,-1,-42,-10,-4,-37
15:23:00:31225,6,3,4,4,-7,12,10,0
15:23:00:47600,-24,19,14,-19,63,-4,-22,-29
15:23:00:48412,-24,19,14,-19,63,-4,-22,-29
15:23:00:49201,-4,-20,-2,7,-1,0,-4,-4
15:23:00:61219,40,-38,2,-7,-30,-10,3,36
15:23:00:69398,40,-38,2,-7,-30,-10,3,36
15:23:00:70198,4,22,105,11,19,-10,-8,-19
15:23:00:76159,-9,23,17,5,-3,10,10,4
15:23:00:83808,-9,23,17,5,-3,10,10,4
15:23:00:91229,4,38,-113,-20,-36,-31,-12,-4
15:23:00:98724,1,53,105,36,7,14,7,-7
15:23:00:106903,1,53,105,36,7,14,7,-7
15:23:00:107674,-11,-33,26,31,7,0,-3,5
15:23:00:121169,-58,-21,-61,4,-4,-3,-11,-85
15:23:00:129530,-58,-21,-61,4,-4,-3,-11,-85
15:23:00:130285,83,15,24,5,2,-4,0,87
15:23:00:144949,28,-77,-8,-13,-12,14,16,25
15:23:00:145751,28,-77,-8,-13,-12,14,16,25
15:23:00:151182,-15,46,11,12,18,4,-7,-33
15:23:00:158717,-19,57,2,-7,-5,3,20,23
15:23:00:174463,-19,57,2,-7,-5,3,20,23
15:23:00:175210,2,21,24,13,-18,1,-5,-3
15:23:00:181171,-13,-33,-36,10,-4,-1,2,-10
15:23:00:189400,-13,-33,-36,10,-4,-1,2,-10
15:23:00:190228,-9,5,15,11,-2,-3,4,-16
15:23:00:204370,-7,-60,33,-1,6,-2,-1,-11
15:23:00:205244,-7,-60,33,-1,6,-2,-1,-11
15:23:00:211212,29,12,-85,-41,-23,-4,-3,13
15:23:00:218705,11,-16,64,-43,8,4,0,10
15:23:00:226250,11,-16,64,-43,8,4,0,10
15:23:00:233715,-40,-14,-18,-13,12,3,-3,-51
15:23:00:241218,5,18,-42,27,6,-8,-12,10
15:23:00:249435,5,18,-42,27,6,-8,-12,10
15:23:00:250225,81,-6,0,-11,1,6,0,12
15:23:00:272555,-9,0,-20,-27,-36,-22,-14,-14
15:23:00:273359,-9,0,-20,-27,-36,-22,-14,-14
15:23:00:274175,-64,-37,-5,1,-3,-10,-2,-31
15:23:00:278713,22,-20,44,1,-23,7,4,17
15:23:00:302543,22,-20,44,1,-23,7,4,17
15:23:00:303372,-7,3,54,46,42,7,9,33
15:23:00:304130,-32,-28,-77,-8,8,10,-6,-36
15:23:00:309372,-32,-28,-77,-8,8,10,-6,-36
15:23:00:310224,-19,-11,23,-23,-22,-3,-15,-35
15:23:00:324848,12,14,-11,15,3,-6,-13,-34
15:23:00:325657,12,14,-11,15,3,-6,-13,-34
15:23:00:331218,68,-55,-40,-36,-22,-14,9,88
15:23:00:338706,20,80,10,26,-17,-3,3,9
15:23:00:354419,20,80,10,26,-17,-3,3,9
15:23:00:355196,-46,-38,-3,17,-1,0,-1,-25
15:23:00:361241,20,37,92,35,14,13,4,44
15:23:00:369393,20,37,92,35,14,13,4,44
15:23:00:370180,-27,71,27,-5,-10,-4,-19,-19
15:23:00:393094,-20,-5,-62,11,6,-9,-4,5
15:23:00:393935,-20,-5,-62,11,6,-9,-4,5
15:23:00:394699,-47,-44,-26,-13,4,-3,5,-48
15:23:00:398698,34,14,-13,-7,29,4,0,26
15:23:00:406285,34,14,-13,-7,29,4,0,26
15:23:00:413744,-2,0,-20,-50,-5,-13,-1,1
15:23:00:421197,-33,-57,-40,-14,-24,-9,-17,-16
15:23:00:429491,-33,-57,-40,-14,-24,-9,-17,-16
15:23:00:430220,3,57,47,-9,-8,-2,-3,0
15:23:00:444493,-4,22,-16,-32,-39,-7,1,-8
15:23:00:445258,-4,22,-16,-32,-39,-7,1,-8
15:23:00:451237,-28,-8,-40,48,24,12,-17,-24
15:23:00:458701,0,2,28,22,41,11,24,21
15:23:00:466269,0,2,28,22,41,11,24,21
15:23:00:473774,64,-5,-5,12,-13,2,-9,16
15:23:00:481353,-23,66,-18,4,-8,-8,-8,-22
15:23:00:489395,-23,66,-18,4,-8,-8,-8,-22
15:23:00:490227,-7,-72,-24,8,6,22,33,57
15:23:00:504385,-16,9,32,-2,-12,-67,-32,-34
15:23:00:505211,-16,9,32,-2,-12,-67,-32,-34
15:23:00:519360,-13,33,12,-12,-11,-4,7,9
15:23:00:520215,9,1,-19,3,26,31,14,-28
15:23:00:526331,9,1,-19,3,26,31,14,-28
15:23:00:533723,1,-4,-24,13,8,12,-2,17
15:23:00:550128,2,-3,-1,-17,-15,1,2,9
15:23:00:550889,2,-3,-1,-17,-15,1,2,9
15:23:00:551683,-38,-35,15,-18,-15,15,6,-43
15:23:00:565102,76,1,-28,-21,-19,39,15,110
15:23:00:565885,76,1,-28,-21,-19,39,15,110
15:23:00:571177,-37,27,-13,-18,-10,-49,-44,-65
15:23:00:578736,-14,11,33,13,8,25,8,-26
15:23:00:586257,-14,11,33,13,8,25,8,-26
15:23:00:601629,5,-12,-64,-2,13,-7,7,-14
15:23:00:610105,-10,5,22,-6,-7,56,36,-14
15:23:00:610922,-10,5,22,-6,-7,56,36,-14
15:23:00:611719,-4,-8,47,44,9,0,-4,17
15:23:00:632569,-15,-5,-18,14,2,-41,-52,-42
15:23:00:633409,-15,-5,-18,14,2,-41,-52,-42
15:23:00:634123,14,13,26,2,-28,-14,9,-62
15:23:00:638688,-25,-11,12,-14,-15,-39,-4,-10
15:23:00:646283,-25,-11,12,-14,-15,-39,-4,-10
15:23:00:653671,31,48,-13,-14,-32,9,-3,51
15:23:00:661901,46,-49,-27,18,-9,-20,-7,1
15:23:00:662717,46,-49,-27,18,-9,-20,-7,1
15:23:00:668689,13,-3,28,3,-36,3,21,18
15:23:00:684407,-18,4,-4,7,-2,0,-6,17
15:23:00:685184,-18,4,-4,7,-2,0,-6,17
15:23:00:691164,6,4,-1,-15,16,24,0,33
15:23:00:698661,-8,0,5,16,43,13,-11,-15
15:23:00:706234,-8,0,5,16,43,13,-11,-15
15:23:00:713708,10,-29,-20,1,60,35,80,89
15:23:00:721854,-1,15,-8,18,7,-52,-28,33
15:23:00:722676,-1,15,-8,18,7,-52,-28,33
15:23:00:728724,-72,-1,-41,-21,-5,-23,-47,-117
15:23:00:744407,-14,7,9,-3,12,4,17,40
15:23:00:745212,-14,7,9,-3,12,4,17,40
15:23:00:751167,15,-19,21,34,-1,-14,8,25
15:23:00:758692,22,-17,16,-17,-14,-4,-26,-55
15:23:00:766282,22,-17,16,-17,-14,-4,-26,-55
15:23:00:773669,-10,-53,-11,-9,1,-2,-13,10
15:23:00:781938,-20,-3,14,-18,-10,-26,-5,-32
15:23:00:782779,-20,-3,14,-18,-10,-26,-5,-32
15:23:00:788695,22,8,2,-7,8,3,18,82
15:23:00:804381,-9,0,-17,-8,-8,-1,15,18
15:23:00:805228,-9,0,-17,-8,-8,-1,15,18
15:23:00:811208,-9,29,-4,-12,-37,27,-31,-6
15:23:00:826914,-29,-22,14,-25,71,28,-12,-47
15:23:00:827740,-29,-22,14,-25,71,28,-12,-47
15:23:00:833694,26,17,15,10,21,-14,8,3
15:23:00:841939,5,-77,-36,-16,-86,34,16,5
15:23:00:842734,5,-77,-36,-16,-86,34,16,5
15:23:00:848717,-23,16,35,5,6,6,-35,-91
15:23:00:864460,-2,16,-9,22,43,13,13,30
15:23:00:865206,-2,16,-9,22,43,13,13,30
15:23:00:879342,-21,-17,-7,-17,-25,7,17,-3
15:23:00:880144,2,-8,24,19,-35,-29,9,-1
15:23:00:886215,2,-8,24,19,-35,-29,9,-1
15:23:00:893707,15,18,12,7,0,-60,-25,-15
15:23:00:910054,23,7,-1,-9,25,-1,17,9
15:23:00:910869,23,7,-1,-9,25,-1,17,9
15:23:00:911666,-2,11,47,17,20,26,9,-9
15:23:00:924427,-37,18,-1,22,-32,-24,-53,6
15:23:00:925210,-37,18,-1,22,-32,-24,-53,6
15:23:00:939375,-24,-16,-56,-11,50,48,-5,-58
15:23:00:940155,21,21,-16,-55,-66,-32,-6,-32
15:23:00:946267,21,21,-16,-55,-66,-32,-6,-32
15:23:00:953678,7,27,33,3,-35,-53,-31,-25
15:23:00:970057,-2,-7,-9,-11,16,22,3,2
15:23:00:970871,-2,-7,-9,-11,16,22,3,2
15:23:00:971696,-5,-57,-32,-21,-24,16,10,36
15:23:00:984371,-17,5,3,1,45,-24,5,-3
15:23:00:985232,-17,5,3,1,45,-24,5,-3
15:23:00:991243,10,39,13,9,10,-2,-6,25
15:23:00:998688,-3,5,-3,9,17,-6,-10,-12
15:23:01:6255,-3,5,-3,9,17,-6,-10,-12
15:23:01:13708,-4,-9,-35,20,38,-9,-9,-95
15:23:01:21878,7,-34,23,9,-13,34,25,19
15:23:01:22681,7,-34,23,9,-13,34,25,19
15:23:01:28696,-3,18,36,7,0,-7,5,41
15:23:01:44491,11,-8,-8,7,18,13,5,2
15:23:01:45341,11,-8,-8,7,18,13,5,2
15:23:01:51209,59,30,-39,-4,3,39,49,56
15:23:01:58688,-29,-6,-11,3,-26,-27,-50,-39
15:23:01:66202,-29,-6,-11,3,-26,-27,-50,-39
15:23:01:73742,-6,-15,-6,-23,-19,-32,-16,15
15:23:01:81885,1,11,-11,-19,11,13,7,10
15:23:01:82685,1,11,-11,-19,11,13,7,10
15:23:01:96265,3,-24,-2,9,-19,-12,-9,8
15:23:01:104347,14,24,-10,3,20,17,11,12
15:23:01:105160,14,24,-10,3,20,17,11,12
15:23:01:111259,-10,16,11,-27,-15,-2,26,2
15:23:01:126997,-35,16,3,21,-12,22,13,-22
15:23:01:127820,-35,16,3,21,-12,22,13,-22
15:23:01:133712,-4,0,8,19,10,-1,3,6
15:23:01:141849,-20,76,16,-4,-18,-11,-2,27
15:23:01:142687,-20,76,16,-4,-18,-11,-2,27
15:23:01:156691,1,-29,-14,-16,0,13,17,33
15:23:01:164384,15,-25,-34,-11,0,-23,-7,32
15:23:01:165192,15,-25,-34,-11,0,-23,-7,32
15:23:01:171188,30,15,22,39,4,5,7,0
15:23:01:187314,-13,-29,-12,-15,-6,-8,4,-25
15:23:01:188172,-13,-29,-12,-15,-6,-8,4,-25
15:23:01:193694,-21,3,-2,0,-3,4,18,6
15:23:01:201875,9,20,-9,12,-32,15,-8,-20
15:23:01:202696,9,20,-9,12,-32,15,-8,-20
15:23:01:216218,-4,2,28,21,-1,32,7,-18
15:23:01:224444,-5,-7,6,0,2,12,16,32
15:23:01:225269,-5,-7,6,0,2,12,16,32
15:23:01:231210,-17,-16,-29,13,-18,-8,-17,8
15:23:01:246951,25,-14,29,8,-1,21,18,2
15:23:01:247735,25,-14,29,8,-1,21,18,2
15:23:01:253681,-21,-9,36,-19,-16,-18,-31,-57
15:23:01:269421,1,-34,7,11,0,1,13,12
15:23:01:270243,1,-34,7,11,0,1,13,12
15:23:01:285054,10,50,-11,6,26,4,0,25
15:23:01:285818,30,16,-1,4,17,3,16,42
15:23:01:286632,30,16,-1,4,17,3,16,42
15:23:01:291205,-21,-14,-35,-21,7,-16,-6,14
15:23:01:307071,45,13,50,-3,-3,29,8,1
15:23:01:307718,45,13,50,-3,-3,29,8,1
15:23:01:313738,1,0,27,-1,7,-15,-8,-11
15:23:01:321875,-16,-2,-24,-20,7,2,11,-10
15:23:01:322711,-16,-2,-24,-20,7,2,11,-10
15:23:01:336224,-9,-19,-44,-11,-2,-13,-15,1
15:23:01:344448,6,22,21,-5,5,-9,1,-27
15:23:01:345256,6,22,21,-5,5,-9,1,-27
15:23:01:351167,-19,-50,-25,-17,11,20,11,6
15:23:01:366888,-11,-25,-25,0,0,22,-4,0
15:23:01:367663,-11,-25,-25,0,0,22,-4,0
15:23:01:373721,5,17,16,-7,-2,17,-17,-74
15:23:01:381875,-1,-29,-29,-18,-9,-30,-20,-1
15:23:01:382705,-1,-29,-29,-18,-9,-30,-20,-1
15:23:01:396277,19,2,14,0,-44,-17,-19,34
15:23:01:412682,-15,-43,-26,9,9,-10,-18,11
15:23:01:413427,-15,-43,-26,9,9,-10,-18,11
15:23:01:414191,-2,2,-19,-8,13,-1,11,17
15:23:01:426647,-3,18,10,4,-10,0,-8,-14
15:23:01:434434,-3,18,10,4,-10,0,-8,-14
15:23:01:435195,-6,-13,-1,11,4,-16,-16,-14
15:23:01:441943,-8,15,-5,-20,6,-39,-11,21
15:23:01:442816,-8,15,-5,-20,6,-39,-11,21
15:23:01:464868,-4,-13,-31,-45,-40,-20,-11,-17
15:23:01:465582,-8,20,61,32,22,21,32,16
15:23:01:471885,-8,20,61,32,22,21,32,16
15:23:01:472676,-31,-11,13,7,3,-8,-2,-44
15:23:01:487362,-31,-11,13,7,3,-8,-2,-44
15:23:01:494345,-38,1,-14,-3,-21,-28,-20,-65
15:23:01:495126,9,-26,-24,9,12,15,-9,17
15:23:01:509377,9,-26,-24,9,12,15,-9,17
15:23:01:510211,7,13,2,2,-9,-1,-31,-51
15:23:01:516216,9,18,18,-5,5,5,12,18
15:23:01:524408,9,18,18,-5,5,5,12,18
15:23:01:525187,10,-17,-9,-18,12,39,12,31
15:23:01:531180,-18,47,-3,0,7,-17,-16,-38
15:23:01:546939,-18,47,-3,0,7,-17,-16,-38
15:23:01:547691,27,-4,-21,7,11,-7,18,25
15:23:01:561271,2,-14,-10,30,-1,-14,-12,-14
15:23:01:569462,2,-14,-10,30,-1,-14,-12,-14
15:23:01:570230,1,7,-20,4,-14,-10,-8,-5
15:23:01:576223,4,16,18,-15,-22,-16,-19,-26
15:23:01:584381,4,16,18,-15,-22,-16,-19,-26
15:23:01:585172,-28,-39,-25,-1,8,9,7,-18
15:23:01:591290,9,10,23,-6,6,2,0,6
15:23:01:606911,9,10,23,-6,6,2,0,6
15:23:01:607692,1,6,-3,5,-17,-2,-7,13
15:23:01:613728,-15,-14,-10,9,4,-1,1,25
15:23:01:629469,-15,-14,-10,9,4,-1,1,25
15:23:01:630240,27,12,8,-13,-9,-1,10,-2
15:23:01:636220,10,-4,-1,-4,13,12,24,47
15:23:01:644388,10,-4,-1,-4,13,12,24,47
15:23:01:645185,7,31,17,-27,-3,-17,9,36
15:23:01:651199,-16,-17,-10,-18,-2,-12,-16,-24
15:23:01:666948,-16,-17,-10,-18,-2,-12,-16,-24
15:23:01:667699,-11,-21,-21,-12,-27,-19,-13,-23
15:23:01:673720,17,-9,-3,16,6,5,22,33
15:23:01:689420,17,-9,-3,16,6,5,22,33
15:23:01:690280,23,8,-3,-2,13,1,-1,-7
15:23:01:696248,-1,3,-21,-9,-15,33,24,13
15:23:01:704856,-1,3,-21,-9,-15,33,24,13
15:23:01:711876,-39,8,-2,4,23,6,-6,-21
15:23:01:712678,8,-22,-9,3,22,3,-1,-6
15:23:01:726972,8,-22,-9,3,22,3,-1,-6
15:23:01:727734,0,-13,36,46,3,10,23,44
15:23:01:741219,-6,2,1,-23,-27,-22,-13,-20
15:23:01:749439,-6,2,1,-23,-27,-22,-13,-20
15:23:01:750235,-8,-24,-17,-15,1,10,-3,2
15:23:01:756181,10,24,17,24,15,3,2,15
15:23:01:772569,10,24,17,24,15,3,2,15
15:23:01:773371,2,13,26,20,12,1,-2,6
15:23:01:774183,-16,-3,-2,-1,13,15,-17,-90
15:23:01:786894,-16,-3,-2,-1,13,15,-17,-90
15:23:01:787671,-10,5,6,-12,8,-8,13,-15
15:23:01:793687,12,-19,-8,11,13,-19,17,14
15:23:01:809414,12,-19,-8,11,13,-19,17,14
15:23:01:810193,-19,3,0,-1,-13,-17,-5,-28
15:23:01:816162,18,-5,0,-11,2,-7,-3,22
15:23:01:824392,18,-5,0,-11,2,-7,-3,22
15:23:01:825202,4,-7,-12,-3,-10,3,-11,17
15:23:01:838735,1,4,0,-8,2,-5,9,25
15:23:01:855078,1,4,0,-8,2,-5,9,25
15:23:01:855852,7,5,1,-13,-14,-15,-9,0
15:23:01:856639,-24,14,-6,1,-6,-16,-14,8
15:23:01:869460,-24,14,-6,1,-6,-16,-14,8
15:23:01:870269,0,2,6,-3,-2,-10,-20,-21
15:23:01:876195,2,-17,-7,-8,2,21,-8,16
15:23:01:884381,2,-17,-7,-8,2,21,-8,16
15:23:01:885215,-18,-7,-6,-11,11,1,-2,2
15:23:01:891220,4,12,20,12,-2,-9,-8,2
15:23:01:906931,4,12,20,12,-2,-9,-8,2
15:23:01:907756,8,-11,18,22,-10,15,1,-27
15:23:01:913708,-23,-4,0,3,-16,-3,-2,2
15:23:01:929439,-23,-4,0,3,-16,-3,-2,2
15:23:01:930218,4,-8,5,7,1,-38,1,30
15:23:01:936183,25,5,5,5,-8,12,3,-21
15:23:01:944441,25,5,5,5,-8,12,3,-21
15:23:01:945261,-1,-16,-21,5,18,28,10,30
15:23:01:951180,1,1,-7,-5,-1,-2,17,15
15:23:01:966934,1,1,-7,-5,-1,-2,17,15
15:23:01:967731,18,11,-1,13,21,11,-2,-13
15:23:01:973702,6,-6,-10,27,9,27,20,23
15:23:01:981243,6,-6,-10,27,9,27,20,23
15:23:01:988729,-31,3,-30,-43,-10,-6,4,33
15:23:01:996258,-15,-14,-14,-34,-34,-27,-4,2
15:23:02:4399,-15,-14,-14,-34,-34,-27,-4,2
15:23:02:5196,11,-8,9,17,3,14,2,14
15:23:02:18749,9,14,15,-5,-50,-16,-20,-42
15:23:02:26912,9,14,15,-5,-50,-16,-20,-42
15:23:02:27723,-25,15,15,-3,-12,-7,-16,-26
15:23:02:33732,-27,-18,-8,4,17,-7,-14,-31
15:23:02:49462,-27,-18,-8,4,17,-7,-14,-31
15:23:02:50241,-21,-3,-9,-11,-3,32,8,22
15:23:02:56189,-20,-26,9,0,12,-11,4,27
15:23:02:64389,-20,-26,9,0,12,-11,4,27
15:23:02:65191,24,17,-11,-9,-6,19,20,16
15:23:02:78721,16,11,-15,-14,-13,-7,-4,-3
15:23:02:86898,16,11,-15,-14,-13,-7,-4,-3
15:23:02:87691,8,7,22,13,-9,-15,-8,-13
15:23:02:101935,22,0,48,22,24,-2,-8,23
15:23:02:102749,22,0,48,22,24,-2,-8,23
15:23:02:116652,23,-2,-23,-9,13,-12,-4,9
15:23:02:132590,-24,-5,-20,0,31,-8,0,-19
15:23:02:133387,-24,-5,-20,0,31,-8,0,-19
15:23:02:134169,11,2,14,16,-33,-16,-11,-22
15:23:02:138664,-4,5,-4,9,3,35,15,-8
15:23:02:146905,-4,5,-4,9,3,35,15,-8
15:23:02:147709,-8,-1,9,-24,0,-20,-7,-46
15:23:02:153652,14,1,1,-6,-11,-14,-8,14
15:23:02:161262,14,1,1,-6,-11,-14,-8,14
15:23:02:168703,-6,16,-8,-8,9,35,13,-21
15:23:02:176219,2,-5,-6,16,10,-7,-2,-4
15:23:02:184430,2,-5,-6,16,10,-7,-2,-4
15:23:02:185191,-2,-16,-14,0,-2,-21,-10,12
15:23:02:207641,-7,1,-10,-26,0,8,1,6
15:23:02:208375,-7,1,-10,-26,0,8,1,6
15:23:02:209156,-15,-3,8,9,-5,1,-24,-38
15:23:02:213708,4,10,-3,-13,-11,9,0,-27
15:23:02:221218,4,10,-3,-13,-11,9,0,-27
15:23:02:228688,4,-52,-14,-4,-2,5,6,8
15:23:02:236165,-4,30,76,9,-3,-23,10,27
15:23:02:244453,-4,30,76,9,-3,-23,10,27
15:23:02:245229,-23,-4,-1,3,4,11,-1,-3
15:23:02:258711,16,-38,-34,-1,-9,3,10,27
15:23:02:266943,16,-38,-34,-1,-9,3,10,27
15:23:02:267733,-11,8,12,0,-3,-13,-6,-6
15:23:02:273699,-10,7,-15,-4,7,-6,8,-20
15:23:02:281304,-10,7,-15,-4,7,-6,8,-20
15:23:02:288690,14,6,-17,-31,24,-9,1,6
15:23:02:296253,-9,-15,-21,-5,8,-1,-14,4
15:23:02:304363,-9,-15,-21,-5,8,-1,-14,4
15:23:02:305171,-2,-5,-6,-7,-12,-16,1,7
15:23:02:328068,-7,-7,-8,16,-1,6,4,-26
15:23:02:328856,-7,-7,-8,16,-1,6,4,-26
15:23:02:329674,-1,-8,6,16,13,4,-9,10
15:23:02:333675,2,27,16,-60,-31,-5,-6,-56
15:23:02:341277,2,27,16,-60,-31,-5,-6,-56
15:23:02:348720,10,16,25,-2,5,-5,7,-2
15:23:02:356178,2,-13,2,33,-3,8,8,66
15:23:02:364459,2,-13,2,33,-3,8,8,66
15:23:02:365218,-5,28,4,2,0,-18,-1,11
15:23:02:378732,0,2,-9,-18,-7,18,7,-5
15:23:02:386898,0,2,-9,-18,-7,18,7,-5
15:23:02:387743,-10,24,-9,3,28,16,1,9
15:23:02:393760,10,15,27,24,14,6,3,22
15:23:02:401283,10,15,27,24,14,6,3,22
15:23:02:408717,2,-2,-18,4,-32,8,-1,-14
15:23:02:416221,-5,8,7,18,1,6,1,-27
15:23:02:424161,-5,8,7,18,1,6,1,-27
15:23:02:431190,-1,-14,1,-2,-22,-23,2,4
15:23:02:438699,-7,-17,-9,-8,-4,-30,-32,-27
15:23:02:446891,-7,-17,-9,-8,-4,-30,-32,-27
15:23:02:447724,8,-12,-9,-11,-23,-12,-4,24
15:23:02:453754,38,15,-5,0,21,19,11,13
15:23:02:461248,38,15,-5,0,21,19,11,13
15:23:02:468671,-2,2,1,-10,1,14,5,0
15:23:02:476165,-32,-7,-10,0,-21,-9,-14,-19
15:23:02:484435,-32,-7,-10,0,-21,-9,-14,-19
15:23:02:485197,6,0,6,11,-7,5,-9,1
15:23:02:498752,-1,-17,-13,-32,2,6,6,6
15:23:02:506924,-1,-17,-13,-32,2,6,6,6
15:23:02:507708,-3,-14,1,10,6,-9,-9,-10
15:23:02:513698,0,7,0,19,-3,12,8,24
15:23:02:521231,0,7,0,19,-3,12,8,24
15:23:02:528766,7,0,4,17,-9,-1,0,30
15:23:02:536218,-3,-18,-42,-28,-9,-20,2,-35
15:23:02:544497,-3,-18,-42,-28,-9,-20,2,-35
15:23:02:545213,14,20,17,-13,15,1,11,8
15:23:02:558759,-6,-4,3,4,9,14,-3,14
15:23:02:567013,-6,-4,3,4,9,14,-3,14
15:23:02:567729,-4,-5,11,44,0,3,-2,-15
15:23:02:573714,-11,-4,0,2,32,14,8,26
15:23:02:581292,-11,-4,0,2,32,14,8,26
15:23:02:588687,-13,-3,6,3,22,-6,4,-4
15:23:02:596277,-9,6,11,-14,-15,-33,-11,6
15:23:02:604380,-9,6,11,-14,-15,-33,-11,6
15:23:02:605180,-10,-17,-27,-19,-14,5,2,-45
15:23:02:627636,-6,-17,-9,-9,-8,-26,-6,3
15:23:02:628417,-6,-17,-9,-9,-8,-26,-6,3
15:23:02:629247,9,3,-14,-29,-6,2,0,2
15:23:02:633701,17,-5,4,10,-4,14,-8,-10
15:23:02:641250,17,-5,4,10,-4,14,-8,-10
15:23:02:648716,11,24,35,1,-23,9,10,25
15:23:02:656227,6,10,8,-13,-14,14,10,-9
15:23:02:664843,6,10,8,-13,-14,14,10,-9
15:23:02:671176,3,-15,-39,-13,5,-9,9,-5
15:23:02:678707,17,19,29,26,17,-21,-8,19
15:23:02:686918,17,19,29,26,17,-21,-8,19
15:23:02:687651,-2,2,5,9,6,2,3,-15
15:23:02:701876,-16,6,-8,2,3,21,-2,-29
15:23:02:702744,-16,6,-8,2,3,21,-2,-29
15:23:02:708697,2,4,-2,17,-18,6,-10,23
15:23:02:716186,-9,6,14,12,-4,26,16,10
15:23:02:731704,-9,6,14,12,-4,26,16,10
15:23:02:739316,-8,-17,0,3,10,-12,2,-28
15:23:02:740180,3,6,-1,8,4,-21,-24,-18
15:23:02:746896,3,6,-1,8,4,-21,-24,-18
15:23:02:747690,-12,-13,-32,-20,-7,-2,-2,14
15:23:02:753683,-20,-46,-31,-6,-12,-30,-23,-33
15:23:02:761233,-20,-46,-31,-6,-12,-30,-23,-33
15:23:02:768687,8,20,16,11,7,-26,-26,-14
15:23:02:776236,6,39,-12,7,-9,5,-10,-24
15:23:02:784376,6,39,-12,7,-9,5,-10,-24
15:23:02:785182,2,-1,20,1,-5,43,31,23
15:23:02:799211,8,-7,-8,-23,1,4,14,22
15:23:02:806907,8,-7,-8,-23,1,4,14,22
15:23:02:807696,17,8,0,-8,16,-4,1,-16
15:23:02:813722,25,20,29,27,-10,-15,-2,21
15:23:02:821213,25,20,29,27,-10,-15,-2,21
15:23:02:828695,-9,-22,-11,1,-24,-16,-22,-1
15:23:02:836185,5,-6,-8,-18,6,-3,-5,5
15:23:02:844438,5,-6,-8,-18,6,-3,-5,5
15:23:02:845201,1,-15,-18,-13,1,1,-8,-16
15:23:02:858719,-13,5,3,1,-1,4,3,-14
15:23:02:866916,-13,5,3,1,-1,4,3,-14
15:23:02:867703,-18,14,13,-2,-33,-17,-7,-7
15:23:02:873700,-11,-41,-29,-8,15,0,8,17
15:23:02:881298,-11,-41,-29,-8,15,0,8,17
15:23:02:888683,-9,5,8,-25,8,2,-17,-14
15:23:02:896205,-12,1,10,-10,-14,-10,-16,1
15:23:02:904420,-12,1,10,-10,-14,-10,-16,1
15:23:02:905201,10,-9,-10,-8,10,26,15,14
15:23:02:918647,-6,0,2,0,7,9,-1,-7
15:23:02:926901,-6,0,2,0,7,9,-1,-7
15:23:02:927697,-4,-7,-13,4,24,6,13,-6
15:23:02:933696,11,-2,0,6,-6,17,8,8
15:23:02:949442,11,-2,0,6,-6,17,8,8
15:23:02:950186,8,-15,-19,-6,-5,12,11,4
15:23:02:956186,2,15,34,21,-9,-6,-5,10
15:23:02:963753,2,15,34,21,-9,-6,-5,10
15:23:02:979358,-9,-9,7,26,8,-11,-1,40
15:23:02:980125,-13,-5,-20,-5,2,9,6,-22
15:23:02:986923,-13,-5,-20,-5,2,9,6,-22
15:23:02:987669,-2,-3,0,0,-15,-25,-8,2
15:23:03:10005,22,-14,-22,-15,9,14,4,-13
15:23:03:10876,22,-14,-22,-15,9,14,4,-13
15:23:03:11679,0,42,25,26,7,-5,9,-13
15:23:03:16201,-10,4,2,-9,-4,-3,5,15
15:23:03:23751,-10,4,2,-9,-4,-3,5,15
15:23:03:31237,-8,-9,-7,-10,-42,3,-4,-10
15:23:03:47524,22,-7,-13,-5,5,-7,-3,-2
15:23:03:48346,22,-7,-13,-5,5,-7,-3,-2
15:23:03:49119,-15,-20,-21,-22,-3,-12,-8,-17
15:23:03:61953,1,28,21,9,13,-3,4,11
15:23:03:62727,1,28,21,9,13,-3,4,11
15:23:03:68708,-19,2,12,1,25,43,-15,-55
15:23:03:76211,-6,-13,-35,7,-2,-23,-17,-13
15:23:03:83710,-6,-13,-35,7,-2,-23,-17,-13
15:23:03:91187,7,-2,-2,5,16,-13,-1,25
15:23:03:98707,8,-7,0,21,-6,8,28,30
15:23:03:106901,8,-7,0,21,-6,8,28,30
15:23:03:107704,-6,13,1,-34,-46,-19,-2,-34
15:23:03:121864,-12,-14,-9,-11,-7,-13,-17,-14
15:23:03:122695,-12,-14,-9,-11,-7,-13,-17,-14
15:23:03:128703,9,-27,-24,-33,8,3,-3,13
15:23:03:136187,-4,-17,5,6,-5,32,15,6
15:23:03:143777,-4,-17,5,6,-5,32,15,6
15:23:03:151142,9,18,4,-7,5,-21,6,-6
15:23:03:158637,-9,-2,-15,-12,10,0,-2,2
15:23:03:166903,-9,-2,-15,-12,10,0,-2,2
15:23:03:167679,7,-22,-4,0,-14,-13,-12,20
15:23:03:181897,11,31,35,5,-5,12,13,24
15:23:03:182688,11,31,35,5,-5,12,13,24
15:23:03:188649,-2,-11,-10,-6,-20,-16,-9,-5
15:23:03:196203,-5,-14,-5,-7,-4,-19,-27,-10
15:23:03:203715,-5,-14,-5,-7,-4,-19,-27,-10
15:23:03:211268,8,-7,-14,6,21,12,14,14
15:23:03:227574,3,42,42,1,-22,-33,-14,-5
15:23:03:228363,3,42,42,1,-22,-33,-14,-5
15:23:03:229198,-30,-8,-4,18,18,17,-6,-7
15:23:03:241847,-8,5,-8,-5,12,10,1,8
15:23:03:242664,-8,5,-8,-5,12,10,1,8
15:23:03:256933,-33,22,23,10,-4,6,15,-30
15:23:03:257679,-15,1,-10,-3,10,13,-3,-18
15:23:03:263787,-15,1,-10,-3,10,13,-3,-18
15:23:03:271216,23,-2,-16,-19,9,-12,-7,28
15:23:03:287546,-8,-17,7,6,-13,-37,-12,-20
15:23:03:288364,-8,-17,7,6,-13,-37,-12,-20
15:23:03:289174,-6,-9,-6,19,5,-24,-5,6
15:23:03:301899,-5,-14,-4,-1,5,27,6,-16
15:23:03:302712,-5,-14,-4,-1,5,27,6,-16
15:23:03:316865,-2,21,48,40,53,17,-12,3
15:23:03:317613,1,-18,-32,-35,-19,8,13,14
15:23:03:323832,1,-18,-32,-35,-19,8,13,14
15:23:03:331218,8,9,12,24,-6,26,2,-4
15:23:03:338707,9,-1,-4,-1,3,9,-3,15
15:23:03:346945,9,-1,-4,-1,3,9,-3,15
15:23:03:347721,1,-26,-24,-2,-10,-36,-20,-5
15:23:03:361922,-5,14,24,44,-1,-9,-8,5
15:23:03:362722,-5,14,24,44,-1,-9,-8,5
15:23:03:368656,12,3,9,-11,7,34,30,6
15:23:03:376176,-2,-12,-10,-16,12,0,3,0
15:23:03:383762,-2,-12,-10,-16,12,0,3,0
15:23:03:391213,7,-9,12,9,1,-10,-6,9
15:23:03:398706,8,4,-7,-18,-13,37,23,18
15:23:03:406896,8,4,-7,-18,-13,37,23,18
15:23:03:407669,8,1,-28,-21,-28,-27,4,21
15:23:03:421920,-24,1,17,27,-11,-21,-15,-39
15:23:03:422716,-24,1,17,27,-11,-21,-15,-39
15:23:03:436843,-1,3,-11,-10,2,26,10,-1
15:23:03:437665,6,0,-8,-3,-7,-14,0,21
15:23:03:443753,6,0,-8,-3,-7,-14,0,21
15:23:03:451162,-6,0,-16,-26,-21,-21,-20,-12
15:23:03:458668,2,-32,-11,1,14,-2,-3,-4
15:23:03:466939,2,-32,-11,1,14,-2,-3,-4
15:23:03:467701,0,17,44,24,-4,-31,-10,-1
15:23:03:481938,-10,-14,-12,-6,19,7,12,-14
15:23:03:482774,-10,-14,-12,-6,19,7,12,-14
15:23:03:488661,-12,0,-22,-1,3,4,-16,-19
15:23:03:504370,2,13,9,1,-11,-16,-7,-18
15:23:03:505185,2,13,9,1,-11,-16,-7,-18
15:23:03:511230,-6,-24,-10,-3,-8,1,-2,-2
15:23:03:518656,7,25,18,-8,-14,3,-23,-32
15:23:03:534374,7,25,18,-8,-14,3,-23,-32
15:23:03:535273,10,4,19,20,26,31,-4,2
15:23:03:541905,3,2,-17,8,-7,-6,6,18
15:23:03:542702,3,2,-17,8,-7,-6,6,18
15:23:03:548711,13,8,-10,-8,0,5,7,13
15:23:03:564410,8,26,50,1,-18,-7,-10,14
15:23:03:565209,8,26,50,1,-18,-7,-10,14
15:23:03:571162,0,3,-5,-6,3,13,14,10
15:23:03:578731,2,-11,-26,-5,8,2,15,22
15:23:03:586932,2,-11,-26,-5,8,2,15,22
15:23:03:587737,-3,4,17,-3,-8,6,-15,-49
15:23:03:601922,-14,-7,3,7,11,-3,-6,15
15:23:03:602693,-14,-7,3,7,11,-3,-6,15
15:23:03:608675,-6,-1,-19,-23,-11,-25,3,-16
15:23:03:616179,-4,-28,-32,-22,-7,-15,-10,-8
15:23:03:623806,-4,-28,-32,-22,-7,-15,-10,-8
15:23:03:631197,13,11,1,26,15,-2,15,42
15:23:03:638695,8,-4,0,-39,-10,9,5,5
15:23:03:654442,8,-4,0,-39,-10,9,5,5
15:23:03:655198,7,-10,10,-7,-4,10,-1,12
15:23:03:661923,-20,7,22,27,26,7,12,8
15:23:03:662788,-20,7,22,27,26,7,12,8
15:23:03:668713,-36,-23,-12,-13,-10,34,10,-3
15:23:03:676197,3,1,-10,-4,-10,6,-6,-12
15:23:03:683780,3,1,-10,-4,-10,6,-6,-12
15:23:03:691281,2,1,-8,-9,-1,-11,-18,3
15:23:03:698721,-3,12,10,2,8,-17,11,8
15:23:03:714439,-3,12,10,2,8,-17,11,8
15:23:03:715185,5,2,4,-3,-28,-6,1,5
15:23:03:721923,11,5,-2,-5,-17,-1,-10,-1
15:23:03:722756,11,5,-2,-5,-17,-1,-10,-1
15:23:03:728707,-11,3,-4,-2,7,8,0,-11
15:23:03:736165,3,-18,-13,-22,-19,-11,6,-6
15:23:03:743716,3,-18,-13,-22,-19,-11,6,-6
15:23:03:751190,-1,6,11,5,3,-20,-18,11
15:23:03:758697,0,-8,-24,29,-15,-8,-13,-8
15:23:03:766901,0,-8,-24,29,-15,-8,-13,-8
15:23:03:767650,-12,-1,5,12,1,-15,-14,26
15:23:03:781883,-12,-14,-20,-4,9,4,-10,-20
15:23:03:782677,-12,-14,-20,-4,9,4,-10,-20
15:23:03:788705,-10,-18,-14,-5,-5,-6,6,-8
15:23:03:796222,-15,9,4,3,17,8,-2,-8
15:23:03:803713,-15,9,4,3,17,8,-2,-8
15:23:03:811244,1,0,13,-12,-11,6,4,-42
15:23:03:818704,4,-13,10,5,8,0,-3,-21
15:23:03:826904,4,-13,10,5,8,0,-3,-21
15:23:03:827700,5,15,1,11,8,-7,3,-3
15:23:03:842370,11,-1,5,-16,19,-22,-11,14
15:23:03:843176,11,-1,5,-16,19,-22,-11,14
15:23:03:848671,-17,-17,-14,7,6,19,-16,-75
15:23:03:856144,2,-3,-10,-13,1,2,3,-6
15:23:03:863743,2,-3,-10,-13,1,2,3,-6
15:23:03:871146,37,19,-1,7,9,10,5,31
15:23:03:879333,-1,4,13,31,-6,14,8,6
15:23:03:886907,-1,4,13,31,-6,14,8,6
15:23:03:887727,-2,-15,-18,-28,-35,-26,2,27
15:23:03:901894,-1,-5,-16,-15,2,-3,5,8
15:23:03:902708,-1,-5,-16,-15,2,-3,5,8
15:23:03:908718,-8,-3,-17,-17,7,-15,-11,-19
15:23:03:924442,-5,16,23,34,6,-8,1,3
15:23:03:925197,-5,16,23,34,6,-8,1,3
15:23:03:931159,11,11,10,-20,-20,12,15,4
15:23:03:938656,3,0,21,22,-11,-8,18,30
15:23:03:946271,3,0,21,22,-11,-8,18,30
15:23:03:953688,-11,-12,-25,-45,-35,7,3,21
15:23:03:961946,-6,-9,-14,-35,-37,10,-15,-20
15:23:03:962771,-6,-9,-14,-35,-37,10,-15,-20
15:23:03:968669,6,-5,-6,21,30,3,7,20
15:23:03:984120,5,16,29,1,10,13,16,8
15:23:03:991929,5,16,29,1,10,13,16,8
15:23:03:992701,-4,-8,14,28,2,-17,-15,-18
15:23:03:998672,-4,-6,-3,-5,-30,-4,-8,-7
15:23:04:6248,-4,-6,-3,-5,-30,-4,-8,-7
15:23:04:13710,-5,3,5,-1,4,4,1,-5
15:23:04:22290,5,31,28,35,3,3,-1,-7
15:23:04:29468,5,31,28,35,3,3,-1,-7
15:23:04:30219,-3,13,-14,2,2,-1,9,-24
15:23:04:44440,4,2,-5,8,33,5,11,-3
15:23:04:45245,4,2,-5,8,33,5,11,-3
15:23:04:59365,-11,-10,13,9,-9,21,-3,-13
15:23:04:60146,16,-14,-37,-19,-10,-38,-9,5
15:23:04:66254,16,-14,-37,-19,-10,-38,-9,5
15:23:04:73736,-1,2,-11,-19,1,-31,-25,3
15:23:04:90121,-1,-3,-11,-7,10,10,-9,5
15:23:04:90948,-1,-3,-11,-7,10,10,-9,5
15:23:04:91705,2,0,46,39,13,-4,14,0
15:23:04:104340,-1,18,0,-14,-1,5,3,3
15:23:04:105154,-1,18,0,-14,-1,5,3,3
15:23:04:111186,-2,10,33,17,9,22,2,-10
15:23:04:118734,-5,-14,-13,-20,-20,-16,-11,9
15:23:04:126238,-5,-14,-13,-20,-20,-16,-11,9
15:23:04:133658,10,-11,-12,-2,2,0,12,11
15:23:04:141884,1,-4,19,-7,0,15,-2,-16
15:23:04:142770,1,-4,19,-7,0,15,-2,-16
15:23:04:156166,3,-4,-3,-13,-24,-1,-18,-28
15:23:04:164443,-4,-13,-16,1,11,-11,-8,6
15:23:04:165225,-4,-13,-16,1,11,-11,-8,6
15:23:04:171182,2,-3,-18,-24,-2,-14,7,14
15:23:04:178697,1,0,-2,-11,-3,14,9,-11
15:23:04:186226,1,0,-2,-11,-3,14,9,-11
15:23:04:193722,-7,-3,-10,13,15,-2,-11,13
15:23:04:201885,-12,-14,-4,-15,9,-2,8,-5
15:23:04:202712,-12,-14,-4,-15,9,-2,8,-5
15:23:04:208746,9,43,25,-3,26,18,12,27
15:23:04:224471,-4,-7,9,4,-1,0,-3,1
15:23:04:225275,-4,-7,9,4,-1,0,-3,1
15:23:04:231224,-36,-29,-22,8,-7,-2,-12,-46
15:23:04:238659,-10,3,-6,3,-5,-2,6,4
15:23:04:246275,-10,3,-6,3,-5,-2,6,4
15:23:04:253695,12,1,17,12,-42,-10,9,32
15:23:04:261943,-1,-15,-41,-18,-3,-11,-15,6
15:23:04:262716,-1,-15,-41,-18,-3,-11,-15,6
15:23:04:268722,-16,-13,-17,-5,10,2,12,-2
15:23:04:292589,27,6,1,11,-9,6,-3,0
15:23:04:293437,27,6,1,11,-9,6,-3,0
15:23:04:294229,7,-11,-35,-5,14,-4,0,-1
15:23:04:298690,7,26,35,14,20,21,9,15
15:23:04:314400,7,26,35,14,20,21,9,15
15:23:04:315184,7,-13,-5,-16,-5,1,13,8
15:23:04:321899,-25,-22,19,41,14,-12,-10,-62
15:23:04:322670,-25,-22,19,41,14,-12,-10,-62
15:23:04:345510,-11,12,-6,-8,14,0,-12,2
15:23:04:346291,3,13,23,7,27,5,-6,21
15:23:04:351940,3,13,23,7,27,5,-6,21
15:23:04:352726,1,1,-8,-17,-16,-5,-16,0
15:23:04:366942,-1,-19,-24,2,-8,-18,-12,9
15:23:04:367733,-1,-19,-24,2,-8,-18,-12,9
15:23:04:373666,16,12,19,4,9,4,0,6
15:23:04:381877,-9,11,7,-42,1,-5,2,-13
15:23:04:382676,-9,11,7,-42,1,-5,2,-13
15:23:04:388681,5,-2,1,2,-16,-19,-6,11
15:23:04:404416,-13,-1,3,14,-8,9,-4,-21
15:23:04:405210,-13,-1,3,14,-8,9,-4,-21
15:23:04:411220,5,4,10,5,12,7,-8,-11
15:23:04:418689,0,-19,-32,-29,-45,-11,17,12
15:23:04:426224,0,-19,-32,-29,-45,-11,17,12
15:23:04:433739,-2,11,4,5,-17,-14,-16,-31
15:23:04:441883,23,1,3,3,32,16,11,4
15:23:04:442654,23,1,3,3,32,16,11,4
15:23:04:456256,0,14,7,-29,24,0,-1,-1
15:23:04:464388,5,1,-19,-17,-13,-8,10,31
15:23:04:465204,5,1,-19,-17,-13,-8,10,31
15:23:04:471198,-4,-7,-9,-4,5,17,9,7
15:23:04:478726,12,14,3,1,-5,-28,2,26
15:23:04:486252,12,14,3,1,-5,-28,2,26
15:23:04:493696,-7,-21,0,15,-5,16,1,1
15:23:04:501888,10,1,-21,-22,7,8,6,-11
15:23:04:502717,10,1,-21,-22,7,8,6,-11
15:23:04:508743,-3,-1,6,18,3,-14,-9,-9
15:23:04:524407,-12,24,9,18,10,12,-6,-12
15:23:04:525231,-12,24,9,18,10,12,-6,-12
15:23:04:531199,-1,-7,-16,-22,3,4,-3,5
15:23:04:538663,-25,-2,32,54,-15,-17,-10,-10
15:23:04:546258,-25,-2,32,54,-15,-17,-10,-10
15:23:04:553690,-12,4,29,43,4,-1,5,3
15:23:04:561942,-17,-7,-15,-20,8,-2,-21,-27
15:23:04:562738,-17,-7,-15,-20,8,-2,-21,-27
15:23:04:568659,6,-4,-2,-5,21,-10,9,-8
15:23:04:592997,0,-7,4,-11,-21,10,-14,12
15:23:04:593850,0,-7,4,-11,-21,10,-14,12
15:23:04:594656,7,-6,-22,-13,-5,31,35,17
15:23:04:598711,-14,-10,-24,-26,-11,-40,-2,11
15:23:04:623980,-14,-10,-24,-26,-11,-40,-2,11
15:23:04:624734,-8,42,1,-4,-35,-7,-9,15
15:23:04:625541,7,11,28,-8,21,4,6,-4
15:23:04:626334,7,11,28,-8,21,4,6,-4
15:23:04:628683,-5,-16,-9,24,3,-7,0,1
15:23:04:644444,9,-8,-26,-13,-9,7,1,-9
15:23:04:645248,9,-8,-26,-13,-9,7,1,-9
15:23:04:651209,5,14,16,-13,-25,8,-7,-27
15:23:04:658784,-11,-6,-3,18,2,1,-11,-2
15:23:04:666305,-11,-6,-3,18,2,1,-11,-2
15:23:04:673718,2,-20,-16,-5,-13,-23,-22,-5
15:23:04:681853,28,-17,-1,2,-4,17,4,9
15:23:04:682675,28,-17,-1,2,-4,17,4,9
15:23:04:688700,-17,-11,-6,-7,15,15,3,16
15:23:04:704455,-9,-9,-9,-4,5,15,-1,-4
15:23:04:705210,-9,-9,-9,-4,5,15,-1,-4
15:23:04:711191,-9,10,-6,-15,9,-21,0,-10
15:23:04:718694,-20,-9,-38,-22,-14,6,-8,-6
15:23:04:726308,-20,-9,-38,-22,-14,6,-8,-6
15:23:04:733753,11,0,15,2,-19,-11,3,7
15:23:04:741956,1,14,22,9,23,1,-17,-27
15:23:04:742728,1,14,22,9,23,1,-17,-27
15:23:04:748705,-6,-27,-19,-11,-2,4,0,1
15:23:04:764411,-3,-12,-14,-6,-3,-2,8,9
15:23:04:765199,-3,-12,-14,-6,-3,-2,8,9
15:23:04:771201,13,0,12,11,7,28,12,-28
15:23:04:778704,-14,2,7,27,-3,8,-3,-26
15:23:04:786203,-14,2,7,27,-3,8,-3,-26
15:23:04:793667,1,21,5,1,7,-2,4,12
15:23:04:801844,11,3,0,-16,7,-2,11,20
15:23:04:802676,11,3,0,-16,7,-2,11,20
15:23:04:808635,-21,-14,-29,-9,-10,-14,-14,-4
15:23:04:824409,-21,-14,-29,-9,-10,-14,-14,-4
15:23:04:825164,-6,-21,-16,-2,8,-3,-1,2
15:23:04:838704,-12,15,37,-3,-4,-3,9,5
15:23:04:846916,-12,15,37,-3,-4,-3,9,5
15:23:04:847689,-24,-17,-8,9,2,1,2,7
15:23:04:863639,9,1,-17,26,13,-38,-31,9
15:23:04:864445,9,1,-17,26,13,-38,-31,9
15:23:04:868684,3,12,16,-4,-19,0,13,-10
15:23:04:876202,-11,-20,-11,-11,0,7,1,-18
15:23:04:892559,-11,-20,-11,-11,0,7,1,-18
15:23:04:893395,12,-10,-4,-8,-2,-15,-9,-5
15:23:04:894187,11,-7,2,-5,-23,-5,1,2
15:23:04:906964,11,-7,2,-5,-23,-5,1,2
15:23:04:907710,2,7,8,-8,-26,-19,-6,12
15:23:04:913721,7,7,18,16,21,4,-8,3
15:23:04:921898,7,7,18,16,21,4,-8,3
15:23:04:922671,7,8,7,8,-2,-5,14,20
15:23:04:936159,2,9,21,-13,-7,-12,-22,-17
15:23:04:944458,2,9,21,-13,-7,-12,-22,-17
15:23:04:945207,16,-4,5,5,-6,10,15,25
15:23:04:958663,-7,1,-7,2,-10,-18,1,-3
15:23:04:966924,-7,1,-7,2,-10,-18,1,-3
15:23:04:967716,19,19,44,63,9,-7,-14,3
15:23:04:973720,4,-4,-9,-2,-23,6,-6,15
15:23:04:981933,4,-4,-9,-2,-23,6,-6,15
15:23:04:982729,-9,-14,-13,27,14,3,0,-22
15:23:04:996204,-4,-6,-9,-9,15,24,-2,-41
15:23:05:4421,-4,-6,-9,-9,15,24,-2,-41
15:23:05:5197,-5,12,-1,-9,4,-10,-11,-10
15:23:05:11211,-5,-22,-32,-17,27,15,17,11
15:23:05:26944,-5,-22,-32,-17,27,15,17,11
15:23:05:27713,-7,4,1,-21,10,8,-5,-30
15:23:05:33683,4,15,8,2,8,21,9,-6
15:23:05:41943,4,15,8,2,8,21,9,-6
15:23:05:42709,-4,-16,-11,-8,-5,-21,1,16
15:23:05:56174,-44,-16,-7,-11,-21,-17,-5,-6
15:23:05:64465,-44,-16,-7,-11,-21,-17,-5,-6
15:23:05:65267,-6,-2,-11,-32,-14,3,6,2
15:23:05:71150,14,-13,1,11,-2,6,3,24
15:23:05:86954,14,-13,1,11,-2,6,3,24
15:23:05:87739,-20,18,19,-15,-12,-11,-1,-40
15:23:05:93720,15,-6,-6,1,-28,8,6,10
15:23:05:101912,15,-6,-6,1,-28,8,6,10
15:23:05:102674,2,0,-13,1,3,9,6,2
15:23:05:116251,12,17,33,-4,-9,-13,-4,19
15:23:05:124384,12,17,33,-4,-9,-13,-4,19
15:23:05:125179,-3,7,12,25,3,20,1,10
15:23:05:131165,-1,2,-20,-3,2,12,-1,-20
15:23:05:146923,-1,2,-20,-3,2,12,-1,-20
15:23:05:147699,7,-3,-21,-13,-19,17,12,3
15:23:05:153678,2,-4,-16,7,14,-18,4,5
15:23:05:169372,2,-4,-16,7,14,-18,4,5
15:23:05:170200,-6,-4,3,-23,1,5,-5,1
15:23:05:176246,3,13,2,8,23,-16,-10,8
15:23:05:184382,3,13,2,8,23,-16,-10,8
15:23:05:185156,-6,-36,-20,-25,-23,-17,8,27
15:23:05:191191,7,14,24,18,-16,-4,1,7
15:23:05:206933,7,14,24,18,-16,-4,1,7
15:23:05:207713,0,-15,-14,-6,0,-10,-26,-14
15:23:05:213730,-12,0,-5,-15,-3,-22,-15,-14
15:23:05:221955,-12,0,-5,-15,-3,-22,-15,-14
15:23:05:222683,6,-1,-16,-18,-9,11,9,14
15:23:05:236195,8,1,-8,-10,-16,2,-10,4
15:23:05:244455,8,1,-8,-10,-16,2,-10,4
15:23:05:245230,17,-3,3,27,7,-21,-38,-19
15:23:05:251195,-6,0,0,-9,-2,6,10,2
15:23:05:267371,-6,0,0,-9,-2,6,10,2
15:23:05:268122,-6,14,35,33,5,7,9,-23
15:23:05:273739,-15,-15,2,25,-3,-5,-6,-10
15:23:05:281919,-15,-15,2,25,-3,-5,-6,-10
15:23:05:282723,-8,14,5,2,30,24,9,-5
15:23:05:296254,-17,-7,-3,-9,21,-5,7,8
15:23:05:304382,-17,-7,-3,-9,21,-5,7,8
15:23:05:305209,3,20,-3,-17,-5,-15,-6,1
15:23:05:311270,3,-14,-1,-13,-4,-11,4,-20
15:23:05:326907,3,-14,-1,-13,-4,-11,4,-20
15:23:05:327693,9,-4,-2,5,-3,-15,1,5
15:23:05:333713,11,-8,31,41,-3,-33,0,-7
15:23:05:341882,11,-8,31,41,-3,-33,0,-7
15:23:05:342657,-13,-2,-2,-1,-1,1,-8,-21
15:23:05:356209,7,-13,-30,-5,6,26,13,29
15:23:05:364396,7,-13,-30,-5,6,26,13,29
15:23:05:365174,11,0,-3,18,1,-11,6,16
15:23:05:371179,0,6,9,6,16,-1,-9,2
15:23:05:387344,0,6,9,6,16,-1,-9,2
15:23:05:394417,-9,-3,-17,-26,15,26,2,-17
15:23:05:395194,-9,-1,8,-12,28,17,-1,-10
15:23:05:401850,-9,-1,8,-12,28,17,-1,-10
15:23:05:402664,-16,7,5,-2,26,-8,-4,7
15:23:05:416223,0,13,-7,-6,-6,-8,-4,5
15:23:05:424460,0,13,-7,-6,-6,-8,-4,5
15:23:05:425206,4,2,-5,-9,3,22,20,29
15:23:05:431231,-5,-7,-28,-5,-2,14,18,12
15:23:05:446924,-5,-7,-28,-5,-2,14,18,12
15:23:05:447742,-4,1,2,15,0,-20,-14,-9
15:23:05:453651,10,15,3,1,-19,-15,-8,14
15:23:05:461962,10,15,3,1,-19,-15,-8,14
15:23:05:462760,-8,-16,-16,10,-8,-6,-1,-12
15:23:05:476695,6,1,-6,-10,17,15,0,-17
15:23:05:484443,6,1,-6,-10,17,15,0,-17
15:23:05:485215,-3,-11,-7,-7,-14,-9,-1,7
15:23:05:491246,2,-7,7,2,4,12,-12,-1
15:23:05:506950,2,-7,7,2,4,12,-12,-1
15:23:05:507771,5,14,-15,2,36,0,4,13
15:23:05:513695,-2,3,7,6,-4,16,11,-4
15:23:05:521911,-2,3,7,6,-4,16,11,-4
15:23:05:522699,-3,-14,-11,-16,-12,12,-7,-20
15:23:05:545091,13,6,9,-21,9,8,5,12
15:23:05:545915,13,6,9,-21,9,8,5,12
15:23:05:546699,26,10,33,24,-23,-18,0,13
15:23:05:551163,-15,-12,-11,-1,-18,-11,4,-20
15:23:05:566878,-15,-12,-11,-1,-18,-11,4,-20
15:23:05:567680,-11,21,64,-5,-12,16,4,-2
15:23:05:573665,-14,-9,-4,-8,-48,-24,-5,5
15:23:05:581934,-14,-9,-4,-8,-48,-24,-5,5
15:23:05:582665,6,-3,-27,-41,-42,14,8,12
15:23:05:596291,5,6,16,16,9,-7,1,-7
15:23:05:604370,5,6,16,16,9,-7,1,-7
15:23:05:605167,1,-5,-23,14,12,1,-12,-20
15:23:05:611155,5,0,-5,3,-5,-11,-16,-7
15:23:05:626939,5,0,-5,3,-5,-11,-16,-7
15:23:05:627671,-7,-6,-3,-12,-3,3,-11,6
15:23:05:633710,9,-12,2,14,17,14,2,1
15:23:05:641901,9,-12,2,14,17,14,2,1
15:23:05:642666,-21,-18,-4,-20,-7,0,7,-2
15:23:05:656190,13,10,21,-5,-9,-2,-4,-47
15:23:05:664429,13,10,21,-5,-9,-2,-4,-47
15:23:05:665196,8,14,16,-8,-6,0,-4,-1
15:23:05:671197,-11,-10,-27,9,19,-24,-6,17
15:23:05:695165,-11,-10,-27,9,19,-24,-6,17
15:23:05:695896,0,2,7,35,-1,-2,3,7
15:23:05:696691,6,1,-24,-23,0,-10,-1,14
15:23:05:701965,6,1,-24,-23,0,-10,-1,14
15:23:05:702732,-3,-9,-12,5,9,-2,6,12
15:23:05:725072,-1,5,0,6,3,34,6,4
15:23:05:725883,-1,5,0,6,3,34,6,4
15:23:05:726655,-1,7,8,0,-4,9,13,-4
15:23:05:731166,-26,-4,1,-6,-9,10,9,19
15:23:05:746923,-26,-4,1,-6,-9,10,9,19
15:23:05:747703,1,3,3,2,2,-19,-15,-27
15:23:05:753714,-24,32,-12,-7,2,9,3,-20
15:23:05:761863,-24,32,-12,-7,2,9,3,-20
15:23:05:762668,0,-18,12,13,-2,-15,-8,-12
15:23:05:776215,17,10,17,-24,-11,-31,-17,8
15:23:05:784390,17,10,17,-24,-11,-31,-17,8
15:23:05:785199,-12,3,-10,8,1,-8,-4,-26
15:23:05:791422,12,-2,16,33,1,11,9,4
15:23:05:806915,12,-2,16,33,1,11,9,4
15:23:05:807696,12,3,12,-3,5,0,4,32
15:23:05:821930,-10,-17,-15,-10,-14,-24,1,-15
15:23:05:822692,-10,-17,-15,-10,-14,-24,1,-15
15:23:05:828707,-15,-4,-8,4,-34,-10,-4,-30
15:23:05:836173,14,-13,-14,-1,14,5,-6,-8
15:23:05:844430,14,-13,-14,-1,14,5,-6,-8
15:23:05:845179,-16,3,-2,16,-13,-29,-14,12
15:23:05:858697,-11,-12,1,11,-19,16,12,0
15:23:05:866958,-11,-12,1,11,-19,16,12,0
15:23:05:867712,-1,18,6,2,-30,3,3,-28
15:23:05:873719,0,-4,-2,18,0,-15,-6,-4
15:23:05:881246,0,-4,-2,18,0,-15,-6,-4
15:23:05:888683,-5,-9,-13,-17,16,-13,-21,21
15:23:05:896222,-2,19,15,-6,-5,5,-3,-9
15:23:05:904395,-2,19,15,-6,-5,5,-3,-9
15:23:05:905199,5,-11,-4,-12,16,3,-1,12
15:23:05:918680,-20,-14,-14,3,-15,-15,3,-43
15:23:05:926884,-20,-14,-14,3,-15,-15,3,-43
15:23:05:927708,4,2,11,19,13,12,11,13
15:23:05:941943,10,4,21,9,-10,-7,1,29
15:23:05:942730,10,4,21,9,-10,-7,1,29
15:23:05:948716,-3,-5,-7,-10,18,1,-4,-53
15:23:05:956189,-4,1,10,-25,-11,-23,-30,-6
15:23:05:971949,-4,1,10,-25,-11,-23,-30,-6
15:23:05:972717,6,-1,8,0,13,14,5,17
15:23:05:978722,-19,-15,-17,-12,4,21,15,0
15:23:05:986931,-19,-15,-17,-12,4,21,15,0
15:23:05:987700,-3,-12,-33,-22,-3,-3,-6,-1
15:23:06:1922,5,14,13,10,22,-14,-1,31
15:23:06:2711,5,14,13,10,22,-14,-1,31
15:23:06:8673,-3,-2,-16,-11,-1,-6,0,-34
15:23:06:16167,-8,-1,6,8,29,40,6,-43
15:23:06:24446,-8,-1,6,8,29,40,6,-43
15:23:06:25212,3,2,8,25,5,-32,-17,2
15:23:06:38729,12,11,-7,-27,1,5,9,19
15:23:06:46962,12,11,-7,-27,1,5,9,19
15:23:06:47760,4,6,-3,-12,11,27,11,9
15:23:06:53694,-7,-8,2,29,-8,-9,3,-3
15:23:06:69438,-7,-8,2,29,-8,-9,3,-3
15:23:06:70215,9,8,-4,-14,-13,22,10,22
15:23:06:76198,14,-2,-11,-17,-9,4,-6,1
15:23:06:84393,14,-2,-11,-17,-9,4,-6,1
15:23:06:85233,-13,10,1,9,0,4,2,13
15:23:06:99173,7,5,18,8,-3,3,3,48
15:23:06:106990,7,5,18,8,-3,3,3,48
15:23:06:107739,0,-23,-17,-32,-25,13,9,9
15:23:06:113701,-1,-7,-11,-7,16,4,-17,-5
15:23:06:121270,-1,-7,-11,-7,16,4,-17,-5
15:23:06:128742,6,-8,-4,-14,-13,-7,9,4
15:23:06:136154,1,-4,-6,-21,-37,-9,11,5
15:23:06:144506,1,-4,-6,-21,-37,-9,11,5
15:23:06:145289,-4,12,5,0,5,-30,-11,3
15:23:06:158719,-2,12,11,-10,11,-9,-10,0
15:23:06:166911,-2,12,11,-10,11,-9,-10,0
15:23:06:167705,0,7,14,19,-1,4,1,-22
15:23:06:173745,6,-14,-14,27,18,15,1,-11
15:23:06:181275,6,-14,-14,27,18,15,1,-11
15:23:06:188719,-9,-14,-10,17,7,-4,-3,-31
15:23:06:196282,-13,-4,-15,-24,-6,-8,-9,-4
15:23:06:204388,-13,-4,-15,-24,-6,-8,-9,-4
15:23:06:205184,6,-1,-4,-20,-17,16,12,14
15:23:06:218657,-2,-3,-6,10,16,3,-2,-5
15:23:06:235056,-2,-3,-6,10,16,3,-2,-5
15:23:06:235914,-5,-9,-11,-26,0,-13,-8,10
15:23:06:236676,10,9,-1,-8,-5,-2,12,22
15:23:06:249403,10,9,-1,-8,-5,-2,12,22
15:23:06:250216,4,-5,-21,-11,25,17,0,-36
15:23:06:256156,6,-5,-19,-17,-9,-5,-17,4
15:23:06:264417,6,-5,-19,-17,-9,-5,-17,4
15:23:06:265196,2,-13,13,20,27,28,4,2
15:23:06:278808,1,2,-1,10,23,-19,-7,-13
15:23:06:286891,1,2,-1,10,23,-19,-7,-13
15:23:06:287658,0,8,3,4,-4,-2,5,26
15:23:06:293759,6,24,17,-9,-8,14,15,-17
15:23:06:301227,6,24,17,-9,-8,14,15,-17
15:23:06:308701,-5,-1,-1,8,-21,2,8,-9
15:23:06:316189,-11,8,17,13,-23,-9,-7,-9
15:23:06:324451,-11,8,17,13,-23,-9,-7,-9
15:23:06:325221,-9,1,0,-32,-39,-38,-14,20
15:23:06:347557,-12,-20,-16,15,11,8,-7,-34
15:23:06:348331,-12,-20,-16,15,11,8,-7,-34
15:23:06:349188,3,-3,-7,6,-5,12,5,0
15:23:06:353698,16,-6,-1,8,-14,-21,-8,8
15:23:06:361231,16,-6,-1,8,-14,-21,-8,8
15:23:06:376973,13,19,13,-2,22,12,-8,9
15:23:06:377738,-13,-15,-13,-18,1,-17,0,-5
15:23:06:384394,-13,-15,-13,-18,1,-17,0,-5
15:23:06:385183,-19,-7,-2,13,2,-9,0,-14
15:23:06:398738,-20,-10,-7,-2,-6,-5,-10,0
15:23:06:406894,-20,-10,-7,-2,-6,-5,-10,0
15:23:06:407699,23,7,9,8,-3,-7,-17,15
15:23:06:413742,9,-3,0,-11,-7,-5,2,18
15:23:06:421233,9,-3,0,-11,-7,-5,2,18
15:23:06:428738,-5,-12,-11,-2,5,11,-2,7
15:23:06:436182,14,2,2,5,12,7,0,-1
15:23:06:444479,14,2,2,5,12,7,0,-1
15:23:06:445258,-1,6,-12,-8,10,-9,-4,-5
15:23:06:458707,5,3,-11,1,17,20,7,22
15:23:06:466914,5,3,-11,1,17,20,7,22
15:23:06:467661,6,2,-5,-15,-8,7,2,4
15:23:06:473717,-5,-11,-12,-12,-2,13,1,-66
15:23:06:481237,-5,-11,-12,-12,-2,13,1,-66
15:23:06:488651,-9,-6,11,13,-1,-30,-11,-4
15:23:06:496195,-4,-5,-5,-22,-16,-11,-9,21
15:23:06:504371,-4,-5,-5,-22,-16,-11,-9,21
15:23:06:505206,12,12,31,22,7,-2,-3,16
15:23:06:527666,-5,1,23,-6,-4,-8,-4,9
15:23:06:528419,-5,1,23,-6,-4,-8,-4,9
15:23:06:529180,8,-5,-22,-12,4,12,2,-19
15:23:06:533677,-2,12,13,-10,-27,-34,-13,8
15:23:06:541236,-2,12,13,-10,-27,-34,-13,8
15:23:06:548661,-6,-20,-3,-11,-1,-13,3,9
15:23:06:556138,13,-19,-1,20,13,21,12,17
15:23:06:564418,13,-19,-1,20,13,21,12,17
15:23:06:565212,1,0,-1,-9,-13,-18,1,31
15:23:06:578747,-7,-10,-9,0,2,8,4,-3
15:23:06:586877,-7,-10,-9,0,2,8,4,-3
15:23:06:587695,8,1,-1,-2,5,5,-7,-15
15:23:06:593678,-14,7,2,-6,-4,7,2,-2
15:23:06:601254,-14,7,2,-6,-4,7,2,-2
15:23:06:608758,-7,-1,-6,27,10,16,3,0
15:23:06:625094,4,-6,-12,-11,20,-3,1,9
15:23:06:625859,4,-6,-12,-11,20,-3,1,9
15:23:06:626649,-6,7,-5,-25,-14,13,2,-46
15:23:06:638693,-15,-2,18,32,19,10,4,-34
15:23:06:655096,-15,-2,18,32,19,10,4,-34
15:23:06:655869,-14,-14,-10,-16,-15,-32,-27,2
15:23:06:656694,4,-3,-11,-10,-17,-12,0,4
15:23:06:661222,4,-3,-11,-10,-17,-12,0,4
15:23:06:668758,-12,4,3,-8,3,25,13,-4
15:23:06:685011,-8,-4,-6,0,-1,10,-1,-2
15:23:06:685873,-8,-4,-6,0,-1,10,-1,-2
15:23:06:686615,-2,23,18,11,-9,-13,1,-8
15:23:06:698695,0,2,4,-2,-10,-13,-6,-33
15:23:06:706917,0,2,4,-2,-10,-13,-6,-33
15:23:06:707777,-2,-18,-4,7,2,9,18,-1
15:23:06:713722,10,19,36,44,-1,18,-9,-19
15:23:06:721189,10,19,36,44,-1,18,-9,-19
15:23:06:728734,-5,5,5,10,-6,-9,-1,-8
15:23:06:736221,1,-10,-35,-19,-32,-8,2,32
15:23:06:743774,1,-10,-35,-19,-32,-8,2,32
15:23:06:751146,-5,-8,-3,31,-5,-10,-7,0
15:23:06:758694,16,7,-6,5,16,9,11,31
15:23:06:766929,16,7,-6,5,16,9,11,31
15:23:06:767709,-2,2,-4,-7,16,8,1,1
15:23:06:781907,-5,-9,-7,-9,-7,-11,-13,-10
15:23:06:782721,-5,-9,-7,-9,-7,-11,-13,-10
15:23:06:788654,-3,-5,-7,-22,24,-33,-16,-55
15:23:06:804357,-23,6,-7,-7,-4,-13,-8,-7
15:23:06:805138,-23,6,-7,-7,-4,-13,-8,-7
15:23:06:811243,10,3,8,2,-10,34,36,53
15:23:06:818692,-5,-30,-13,-10,1,-2,2,12
15:23:06:826963,-5,-30,-13,-10,1,-2,2,12
15:23:06:827711,-10,3,20,7,-9,1,-8,-9
15:23:06:841856,10,-11,10,9,-1,15,5,4
15:23:06:842681,10,-11,10,9,-1,15,5,4
15:23:06:848722,18,10,21,11,0,-1,11,20
15:23:06:856207,-12,0,-25,-5,11,-7,-10,-13
15:23:06:863722,-12,0,-25,-5,11,-7,-10,-13
15:23:06:871160,-15,-3,-23,-17,-19,-6,-25,8
15:23:06:878700,-16,10,1,-21,4,39,38,25
15:23:06:886869,-16,10,1,-21,4,39,38,25
15:23:06:887690,7,-10,-9,2,33,1,-3,14
15:23:06:902353,6,15,14,12,8,-10,-3,1
15:23:06:903166,6,15,14,12,8,-10,-3,1
15:23:06:908679,-6,-9,-7,0,-1,-18,2,-14
15:23:06:916217,14,-2,-13,3,-14,5,-12,-2
15:23:06:931877,14,-2,-13,3,-14,5,-12,-2
15:23:06:932681,3,10,28,33,-8,-12,-10,-3
15:23:06:938681,2,-4,-7,-19,-7,3,3,3
15:23:06:946923,2,-4,-7,-19,-7,3,3,3
15:23:06:947690,-4,-10,-27,-33,-17,-26,-17,6
15:23:06:962397,-9,8,21,3,19,13,8,-6
15:23:06:963145,-9,8,21,3,19,13,8,-6
15:23:06:968723,0,-20,-2,13,10,-10,13,26
15:23:06:976219,-1,11,6,-4,1,-17,-7,-60
15:23:06:983752,-1,11,6,-4,1,-17,-7,-60
15:23:06:991189,1,-4,13,11,6,22,16,-12
15:23:06:998669,41,5,4,5,-9,-36,-11,2
15:23:07:6877,41,5,4,5,-9,-36,-11,2
15:23:07:7688,-1,-8,-11,-16,-27,10,-7,-14
15:23:07:22361,-15,3,-1,0,-3,-1,-7,13
15:23:07:23179,-15,3,-1,0,-3,-1,-7,13
15:23:07:28668,-12,-4,-19,-19,-8,2,-23,-4
15:23:07:36157,-15,-8,-8,22,-12,-15,-4,-50
15:23:07:60123,-15,-8,-8,22,-12,-15,-4,-50
15:23:07:60922,-7,-8,-22,-16,13,-6,2,-35
15:23:07:61708,-2,-8,0,-4,21,6,8,33
15:23:07:66924,-2,-8,0,-4,21,6,8,33
15:23:07:67711,-4,14,14,2,-1,-12,-10,-10
15:23:07:81936,6,12,18,24,30,11,9,-10
15:23:07:82712,6,12,18,24,30,11,9,-10
15:23:07:88676,13,18,-2,-3,-2,8,18,10
15:23:07:96225,7,7,1,-20,-34,-1,-13,23
15:23:07:103746,7,7,1,-20,-34,-1,-13,23
15:23:07:111238,0,0,6,15,3,5,-13,-29
15:23:07:127617,-13,-11,-20,-7,13,15,-5,-1
15:23:07:128413,-13,-11,-20,-7,13,15,-5,-1
15:23:07:129172,-2,-7,-12,-9,6,30,17,20
15:23:07:141901,-1,4,16,2,-6,-11,-2,7
15:23:07:142680,-1,4,16,2,-6,-11,-2,7
15:23:07:148668,8,2,-8,6,-6,7,17,17
15:23:07:156148,-8,1,12,13,13,-21,-5,-5
15:23:07:163777,-8,1,12,13,13,-21,-5,-5
15:23:07:171159,6,-7,14,4,-2,3,-6,1
15:23:07:178728,-23,0,-8,-12,3,3,10,14
15:23:07:186921,-23,0,-8,-12,3,3,10,14
15:23:07:187720,8,8,3,1,-7,-7,2,11
15:23:07:201912,-3,-16,-8,3,2,18,2,7
15:23:07:202772,-3,-16,-8,3,2,18,2,7
15:23:07:208705,-5,2,-10,-15,-15,10,-4,5
15:23:07:216236,5,-6,0,3,-32,-10,-7,-10
15:23:07:223779,5,-6,0,3,-32,-10,-7,-10
15:23:07:239388,-3,-25,-1,-2,4,-32,-16,-1
15:23:07:240157,-4,-4,-9,-26,-25,-8,-28,-35
15:23:07:246961,-4,-4,-9,-26,-25,-8,-28,-35
15:23:07:247699,-4,9,31,-2,17,16,3,1
15:23:07:270039,13,4,1,4,-6,-19,-19,15
15:23:07:270853,13,4,1,4,-6,-19,-19,15
15:23:07:271662,-5,-7,-7,1,-1,2,-10,-32
15:23:07:276159,9,-6,-25,-17,3,10,7,4
15:23:07:283743,9,-6,-25,-17,3,10,7,4
15:23:07:299325,8,17,19,14,6,-15,10,28
15:23:07:300147,-3,-2,-8,-22,4,-9,5,11
15:23:07:306888,-3,-2,-8,-22,4,-9,5,11
15:23:07:307651,-1,-2,-12,-31,-40,-9,18,20
15:23:07:338270,-10,0,1,-8,-6,-12,3,4
15:23:07:339025,-10,0,1,-8,-6,-12,3,4
15:23:07:339844,2,-3,-1,27,10,0,-12,3
15:23:07:340621,11,0,11,7,-22,1,8,20
15:23:07:343737,11,0,11,7,-22,1,8,20
15:23:07:368188,-5,0,21,28,16,17,15,4
15:23:07:369017,-5,-9,1,16,5,4,3,2
15:23:07:369901,-5,-9,1,16,5,4,3,2
15:23:07:370620,-3,-4,-22,-18,-9,-8,-2,-28
15:23:07:381930,0,4,-1,16,-2,12,2,-1
15:23:07:382731,0,4,-1,16,-2,12,2,-1
15:23:07:388728,-13,-1,-9,-14,-7,-5,-14,0
15:23:07:404387,-6,-2,-6,-11,15,4,4,-19
15:23:07:405263,-6,-2,-6,-11,15,4,4,-19
15:23:07:411248,-11,7,8,0,20,-1,8,7
15:23:07:418707,9,6,25,23,-4,-9,-14,3
15:23:07:434455,9,6,25,23,-4,-9,-14,3
15:23:07:435241,6,7,2,-6,1,-13,11,39
15:23:07:441951,-3,-10,-18,-19,-20,17,3,-14
15:23:07:442770,-3,-10,-18,-19,-20,17,3,-14
15:23:07:448685,2,5,-9,23,28,33,11,-6
15:23:07:456196,-30,-12,3,-11,5,-10,-14,-6
15:23:07:463765,-30,-12,3,-11,5,-10,-14,-6
15:23:07:471194,14,-6,-10,-18,-12,8,-7,-21
15:23:07:487527,-27,-6,2,2,8,-9,-12,2
15:23:07:488361,-27,-6,2,2,8,-9,-12,2
15:23:07:489115,-11,-5,-5,-1,-5,-3,-16,-21
15:23:07:501890,10,6,1,13,-4,-10,18,8
15:23:07:502736,10,6,1,13,-4,-10,18,8
15:23:07:516897,-2,-6,-1,-3,-4,0,-4,-27
15:23:07:517636,1,-4,-9,3,4,26,10,20
15:23:07:523764,1,-4,-9,3,4,26,10,20
15:23:07:531197,5,1,6,17,-4,-8,-11,-8
15:23:07:547573,11,7,-6,-5,19,16,4,-37
15:23:07:548359,11,7,-6,-5,19,16,4,-37
15:23:07:549182,-14,1,-18,-29,4,-3,-6,-22
15:23:07:561922,4,-3,-4,14,10,-15,0,-7
15:23:07:562675,4,-3,-4,14,10,-15,0,-7
15:23:07:576941,-9,-2,0,-11,-11,-34,-5,-7
15:23:07:577684,-1,2,3,-3,12,3,0,15
15:23:07:583745,-1,2,3,-3,12,3,0,15
15:23:07:591266,-6,9,8,3,-3,13,-2,32
15:23:07:608229,-5,-6,-3,-18,-14,9,7,-13
15:23:07:609034,-5,-6,-3,-18,-14,9,7,-13
15:23:07:609890,3,0,0,-7,1,10,-3,8
15:23:07:621923,9,-14,-19,8,30,8,9,12
15:23:07:622705,9,-14,-19,8,30,8,9,12
15:23:07:645140,11,3,18,10,-8,-8,-11,15
15:23:07:645878,4,12,36,7,-64,-35,-10,-11
15:23:07:646709,4,12,36,7,-64,-35,-10,-11
15:23:07:651149,0,-11,-11,11,-4,-6,7,-10
15:23:07:659392,-7,11,4,0,1,12,5,-28
15:23:07:660207,-7,11,4,0,1,12,5,-28
15:23:07:666185,1,-9,-7,17,-5,9,14,-17
15:23:07:681857,-8,11,1,-4,5,12,2,-17
15:23:07:682728,-8,11,1,-4,5,12,2,-17
15:23:07:688668,-9,-23,-7,6,10,-40,-18,-3
15:23:07:704402,20,0,-9,-4,-2,-9,-5,14
15:23:07:705222,20,0,-9,-4,-2,-9,-5,14
15:23:07:711270,0,14,2,-18,-6,11,3,13
15:23:07:719387,-15,-16,-14,-2,3,1,-16,5
15:23:07:720194,-15,-16,-14,-2,3,1,-16,5
15:23:07:733724,-2,0,11,0,-7,-12,-1,0
15:23:07:750084,0,4,-6,-18,5,9,2,-40
15:23:07:750861,0,4,-6,-18,5,9,2,-40
15:23:07:751667,3,-3,-5,-5,14,22,8,-8
15:23:07:764436,1,-2,1,-29,-21,-46,-24,-11
15:23:07:765193,1,-2,1,-29,-21,-46,-24,-11
15:23:07:771165,-11,4,8,4,20,18,12,-5
15:23:07:779410,-7,-3,-7,-2,-21,21,-8,-8
15:23:07:780258,-7,-3,-7,-2,-21,21,-8,-8
15:23:07:793787,13,-2,-13,-13,-1,-14,-10,-14
15:23:07:801934,21,6,13,16,13,-4,4,-2
15:23:07:802753,21,6,13,16,13,-4,4,-2
15:23:07:808686,10,1,0,38,-4,-15,-19,12
15:23:07:824907,-10,2,-10,-1,3,-4,5,5
15:23:07:825677,-10,2,-10,-1,3,-4,5,5
15:23:07:831200,4,-4,-6,-18,-19,10,8,10
15:23:07:839413,-1,-4,-8,-15,10,-4,9,2
15:23:07:840242,-1,-4,-8,-15,10,-4,9,2
15:23:07:854149,-7,0,-6,-5,-5,11,13,14
15:23:07:861938,0,5,5,11,-17,-21,-10,9
15:23:07:862741,0,5,5,11,-17,-21,-10,9
15:23:07:885009,7,9,3,-11,4,3,16,17
15:23:07:885898,-16,-8,22,28,-11,-11,-12,2
15:23:07:886629,-16,-8,22,28,-11,-11,-12,2
15:23:07:891230,-10,1,4,6,-10,-11,-5,-4
15:23:07:899363,-29,-3,-24,-4,-11,-14,-6,8
15:23:07:900159,-29,-3,-24,-4,-11,-14,-6,8
15:23:07:914173,4,-5,-4,7,0,12,-4,-3
15:23:07:922496,10,7,30,9,10,26,17,1
15:23:07:923342,10,7,30,9,10,26,17,1
15:23:07:928711,28,0,0,-10,13,10,7,28
15:23:07:944408,1,-10,-22,-6,9,5,13,19
15:23:07:945226,1,-10,-22,-6,9,5,13,19
15:23:07:960090,-10,-15,-11,-14,-11,7,-27,-36
15:23:07:960904,-2,6,9,10,26,-7,-2,20
15:23:07:961736,-2,6,9,10,26,-7,-2,20
15:23:07:973694,-9,-2,-9,-16,-13,-9,0,-26
15:23:07:981932,4,-1,-4,-7,21,5,-1,4
15:23:07:982745,4,-1,-4,-7,21,5,-1,4
15:23:07:988690,-8,-5,-19,-34,-19,-23,-9,5
15:23:08:4410,4,-15,2,10,8,6,-1,6
15:23:08:5194,4,-15,2,10,8,6,-1,6
15:23:08:11211,-5,-5,11,0,-4,-5,0,-18
15:23:08:19460,30,7,9,11,-3,12,10,15
15:23:08:20244,30,7,9,11,-3,12,10,15
15:23:08:33665,-4,5,10,22,12,-3,-9,-16
15:23:08:41926,2,2,0,-8,1,-3,-4,-4
15:23:08:42716,2,2,0,-8,1,-3,-4,-4
15:23:08:48716,6,2,-6,-5,-1,11,12,-1
15:23:08:72511,-3,15,8,29,-6,-12,-8,-23
15:23:08:73357,-3,15,8,29,-6,-12,-8,-23
15:23:08:74168,-1,10,33,31,20,-25,-1,23
15:23:08:79395,-15,-12,-10,-28,-10,-4,-7,4
15:23:08:80211,-15,-12,-10,-28,-10,-4,-7,4
15:23:08:102580,0,-1,-27,-26,-9,-16,-11,-17
15:23:08:103399,0,-3,-4,-10,-19,-17,-5,-27
15:23:08:104165,0,-3,-4,-10,-19,-17,-5,-27
15:23:08:108676,-8,-10,0,-6,-16,11,-7,15
15:23:08:132539,-3,-6,-22,-22,2,-2,-10,-16
15:23:08:133340,-3,-6,-22,-22,2,-2,-10,-16
15:23:08:134144,4,2,15,29,8,12,6,28
15:23:08:139349,-3,-10,-9,-3,-11,9,1,-3
15:23:08:140194,-3,-10,-9,-3,-11,9,1,-3
15:23:08:153701,-3,-4,-16,-15,-12,-17,-12,5
15:23:08:161934,-3,-4,-16,-15,-12,-17,-12,5
15:23:08:162716,3,-1,2,-10,-18,10,-5,25
15:23:08:168695,-8,7,22,-32,-18,-11,0,-3
15:23:08:184358,-8,7,22,-32,-18,-11,0,-3
15:23:08:185173,8,5,-6,-27,-8,3,12,18
15:23:08:191248,-2,9,0,29,16,13,-10,-20
15:23:08:206923,-2,9,0,29,16,13,-10,-20
15:23:08:207676,-6,-2,-2,13,43,34,12,-2
15:23:08:213718,4,-11,-19,17,4,0,-2,3
15:23:08:221868,4,-11,-19,17,4,0,-2,3
15:23:08:222682,-1,5,4,-10,4,2,5,0
15:23:08:228726,1,2,11,36,5,-1,2,2
15:23:08:244454,1,2,11,36,5,-1,2,2
15:23:08:245239,-16,-3,5,16,1,3,-11,-29
15:23:08:251194,-1,-8,-23,-27,-11,-18,8,10
15:23:08:266908,-1,-8,-23,-27,-11,-18,8,10
15:23:08:267694,3,5,-2,-4,3,-7,15,21
15:23:08:282558,-3,-8,6,22,48,31,3,3
15:23:08:283338,-3,-8,6,22,48,31,3,3
15:23:08:284163,-2,-2,-9,-6,14,9,7,1
15:23:08:288660,-1,-4,-20,-2,5,12,-6,-6
15:23:08:304386,-1,-4,-20,-2,5,12,-6,-6
15:23:08:305191,0,-9,-28,-29,0,-13,-8,6
15:23:08:311155,-5,12,24,12,7,-23,-15,7
15:23:08:326980,-5,12,24,12,7,-23,-15,7
15:23:08:327725,2,6,6,4,-16,-24,-25,-13
15:23:08:333690,-13,-15,-20,-51,-31,-8,7,-23
15:23:08:350081,-13,-15,-20,-51,-31,-8,7,-23
15:23:08:350873,12,-8,-9,-13,-2,18,24,12
15:23:08:351620,-3,13,10,-10,-27,1,9,-2
15:23:08:364407,-3,13,10,-10,-27,1,9,-2
15:23:08:365178,18,4,4,7,-8,-6,5,11
15:23:08:378740,-10,-6,-13,-20,5,5,3,-7
15:23:08:386925,-10,-6,-13,-20,5,5,3,-7
15:23:08:387727,-12,-12,-7,4,-13,-22,-16,-9
15:23:08:393734,-16,-5,0,-8,-13,6,3,-6
15:23:08:410151,-16,-5,0,-8,-13,6,3,-6
15:23:08:410901,-2,0,3,-5,-15,13,15,-4
15:23:08:411726,-4,-17,3,11,29,9,3,14
15:23:08:424439,-4,-17,3,11,29,9,3,14
15:23:08:425227,-4,-3,-16,-5,-14,-6,-4,-10
15:23:08:438669,-17,4,15,1,-10,-6,13,-29
15:23:08:446960,-17,4,15,1,-10,-6,13,-29
15:23:08:447728,-6,-10,6,30,8,4,-19,-21
15:23:08:453669,6,15,23,26,-38,11,-5,-10
15:23:08:461919,6,15,23,26,-38,11,-5,-10
15:23:08:462776,-4,2,-14,-22,-24,-25,-5,21
15:23:08:468681,14,-2,6,18,-4,1,-12,-5
15:23:08:484380,14,-2,6,18,-4,1,-12,-5
15:23:08:485200,9,15,27,13,-12,4,-6,27
15:23:08:491222,16,-11,-20,-14,-3,-24,-20,-4
15:23:08:515135,16,-11,-20,-14,-3,-24,-20,-4
15:23:08:515905,24,-5,-3,-6,2,-7,-4,24
15:23:08:516720,4,3,-12,-11,53,-9,11,-7
15:23:08:521905,4,3,-12,-11,53,-9,11,-7
15:23:08:522701,-2,5,7,-5,20,19,6,5
15:23:08:528758,8,1,-8,8,-11,-29,-12,10
15:23:08:544469,8,1,-8,8,-11,-29,-12,10
15:23:08:545246,-7,-34,-17,-17,1,7,7,13
15:23:08:551174,8,7,-11,-10,-7,22,16,-10
15:23:08:566937,8,7,-11,-10,-7,22,16,-10
15:23:08:567723,-6,2,7,-1,11,-14,-11,-15
15:23:08:573716,-3,-9,12,11,-11,0,6,15
15:23:08:581944,-3,-9,12,11,-11,0,6,15
15:23:08:582717,-3,22,22,26,15,8,14,1
15:23:08:588678,-14,1,-8,-22,-13,-5,-6,7
15:23:08:604425,-14,1,-8,-22,-13,-5,-6,7
15:23:08:605191,-10,-8,1,5,-7,-17,-15,-23
15:23:08:611177,15,-12,-12,-3,0,8,-5,-16
15:23:08:626974,15,-12,-12,-3,0,8,-5,-16
15:23:08:627709,-2,-4,-9,-2,2,-6,-13,-17
15:23:08:633686,-3,4,6,-4,16,12,18,12
15:23:08:641936,-3,4,6,-4,16,12,18,12
15:23:08:642729,2,1,-15,-19,-16,-15,-1,4
15:23:08:656660,-8,-3,5,0,15,10,-16,-39
15:23:08:664407,-8,-3,5,0,15,10,-16,-39
15:23:08:665207,-3,-11,-2,-12,-7,25,10,-3
15:23:08:671158,8,10,1,11,0,-8,-4,-6
15:23:08:686904,8,10,1,11,0,-8,-4,-6
15:23:08:687714,-8,-3,14,11,-17,1,0,-5
15:23:08:693694,-12,-5,-13,-1,-3,10,8,23
15:23:08:701919,-12,-5,-13,-1,-3,10,8,23
15:23:08:702710,-17,1,6,2,-3,2,6,-3
15:23:08:716219,-3,5,-7,-9,-9,-23,-8,15
15:23:08:724446,-3,5,-7,-9,-9,-23,-8,15
15:23:08:725229,-10,7,-3,-9,-2,-6,5,-12
15:23:08:731206,-9,-15,-3,3,26,-14,-27,-20
15:23:08:738734,-9,-15,-3,3,26,-14,-27,-20
15:23:08:746259,3,15,8,2,-11,-18,-14,-21
15:23:08:753724,3,-5,-22,-26,4,-5,-3,-3
15:23:08:761967,3,-5,-22,-26,4,-5,-3,-3
15:23:08:762754,14,6,15,-1,-7,-28,-4,-20
15:23:08:776195,8,-7,22,3,-31,-12,11,15
15:23:08:784402,8,-7,22,3,-31,-12,11,15
15:23:08:785178,10,-1,-15,12,13,9,-6,13
15:23:08:791251,4,-10,-16,-7,14,28,11,12
15:23:08:798793,4,-10,-16,-7,14,28,11,12
15:23:08:806178,-3,0,0,1,3,-3,16,20
15:23:08:813702,-8,0,3,20,17,14,5,5
15:23:08:821864,-8,0,3,20,17,14,5,5
15:23:08:822651,19,6,4,18,14,26,-11,-8
15:23:08:836180,4,-6,-9,-2,-23,-5,0,2
15:23:08:844450,4,-6,-9,-2,-23,-5,0,2
15:23:08:845202,-9,2,18,4,-5,-12,-5,-25
15:23:08:851185,-10,-8,23,43,-10,-4,10,14
15:23:08:858712,-10,-8,23,43,-10,-4,10,14
15:23:08:866215,2,3,14,10,-2,8,-1,-30
15:23:08:873736,-4,-16,2,-1,6,-1,-11,-12
15:23:08:881902,-4,-16,2,-1,6,-1,-11,-12
15:23:08:882693,0,2,-6,-4,23,17,7,26
15:23:08:896246,11,9,5,-19,-20,1,5,28
15:23:08:904368,11,9,5,-19,-20,1,5,28
15:23:08:905167,-46,-24,-17,-14,-16,11,0,-6
15:23:08:911181,2,8,-3,-4,3,3,9,15
15:23:08:918739,2,8,-3,-4,3,3,9,15
15:23:08:934346,10,16,16,-3,6,-13,-3,11
15:23:08:935155,-17,1,-11,-7,-2,-16,-12,-40
15:23:08:941872,-17,1,-11,-7,-2,-16,-12,-40
15:23:08:942665,31,-5,-16,-19,-7,-17,3,2
15:23:08:965089,1,5,9,5,1,4,1,-5
15:23:08:965878,1,5,9,5,1,4,1,-5
15:23:08:966687,8,-6,-14,0,4,-4,-1,26
15:23:08:971155,-6,4,-17,-16,-10,2,-10,-5
15:23:08:978770,-6,4,-17,-16,-10,2,-10,-5
15:23:08:986194,16,-8,-16,4,17,2,7,21
15:23:08:993759,1,-5,-6,0,9,-6,-7,-39
15:23:09:1902,1,-5,-6,0,9,-6,-7,-39
15:23:09:2687,-1,-11,-5,0,5,0,5,5
15:23:09:16191,0,4,0,38,-5,-12,4,3
15:23:09:32606,0,4,0,38,-5,-12,4,3
15:23:09:33357,-10,5,17,25,4,3,-2,-12
15:23:09:34162,0,-10,-20,-18,-17,-19,-12,-2
15:23:09:38760,0,-10,-20,-18,-17,-19,-12,-2
15:23:09:46255,-6,6,-2,-13,7,21,11,9
15:23:09:53694,4,1,11,7,-3,-12,0,8
15:23:09:61947,4,1,11,7,-3,-12,0,8
15:23:09:62703,2,0,-4,-9,-16,-9,-18,-23
15:23:09:76178,-7,5,1,6,11,2,-4,-5
15:23:09:84401,-7,5,1,6,11,2,-4,-5
15:23:09:85190,-17,-1,2,10,-9,-11,-10,-42
15:23:09:99403,-12,-1,1,-13,-16,-3,-6,-12
15:23:09:100216,-12,-1,1,-13,-16,-3,-6,-12
15:23:09:106164,3,3,-8,-8,-10,14,9,21
15:23:09:113692,43,10,10,-3,1,7,-2,-13
15:23:09:121923,43,10,10,-3,1,7,-2,-13
15:23:09:122699,-21,-4,-6,10,0,-17,-15,-12
15:23:09:136218,-20,-12,-10,-13,-4,16,1,-2
15:23:09:144487,-20,-12,-10,-13,-4,16,1,-2
15:23:09:145223,10,25,48,11,6,-3,0,22
15:23:09:151148,5,7,17,-7,29,-11,5,30
15:23:09:158797,5,7,17,-7,29,-11,5,30
15:23:09:166226,-16,-25,-41,-16,6,7,0,6
15:23:09:182583,-5,2,7,-39,-8,-6,-8,14
15:23:09:183402,-5,2,7,-39,-8,-6,-8,14
15:23:09:184160,-1,-2,1,3,6,2,9,-2
15:23:09:196213,13,1,-9,20,-17,-7,-6,-14
15:23:09:212591,13,1,-9,20,-17,-7,-6,-14
15:23:09:213335,-6,-9,2,-11,-32,-6,-4,-32
15:23:09:214139,-4,8,-15,9,11,7,4,1
15:23:09:218734,-4,8,-15,9,11,7,4,1
15:23:09:226219,8,14,10,7,-3,-21,-9,16
15:23:09:233676,-20,-12,0,1,-4,7,-3,-4
15:23:09:241949,-20,-12,0,1,-4,7,-3,-4
15:23:09:242712,2,-14,-25,10,12,8,-7,-17
15:23:09:265076,-7,6,0,-11,15,12,-1,-1
15:23:09:265862,-7,6,0,-11,15,12,-1,-1
15:23:09:266637,-1,-3,3,-13,-5,-18,-4,-5
15:23:09:271176,2,1,15,29,-20,-6,0,1
15:23:09:278749,2,1,15,29,-20,-6,0,1
15:23:09:286182,-7,-8,-4,-10,-9,2,-3,0
15:23:09:293689,-7,1,-9,-12,0,13,11,10
15:23:09:301878,-7,1,-9,-12,0,13,11,10
15:23:09:302695,6,4,0,11,1,6,-2,7
15:23:09:316649,4,-2,-14,-23,-12,-28,-15,-6
15:23:09:324404,4,-2,-14,-23,-12,-28,-15,-6
15:23:09:325216,-7,-8,-14,-17,2,0,1,7
15:23:09:331142,0,6,37,30,-26,19,-2,-16
15:23:09:346927,0,6,37,30,-26,19,-2,-16
15:23:09:347676,-3,15,27,13,-36,6,7,-17
15:23:09:353706,-2,-3,-18,-35,-30,-2,21,-14
15:23:09:361947,-2,-3,-18,-35,-30,-2,21,-14
15:23:09:362687,6,5,-3,-2,19,-9,8,10
15:23:09:376226,-7,-8,-6,-17,6,1,2,3
15:23:09:384380,-7,-8,-6,-17,6,1,2,3
15:23:09:385163,1,-5,2,16,11,-5,-7,6
15:23:09:391232,4,-11,-5,9,6,-15,13,23
15:23:09:398725,4,-11,-5,9,6,-15,13,23
15:23:09:406149,-10,3,1,-13,-4,-10,-14,-8
15:23:09:413695,-2,13,37,34,11,6,-11,-7
15:23:09:421898,-2,13,37,34,11,6,-11,-7
15:23:09:422686,0,-12,-10,28,1,-6,-7,10
15:23:09:436240,4,-8,-14,-11,-10,-6,8,-2
15:23:09:444470,4,-8,-14,-11,-10,-6,8,-2
15:23:09:445248,18,-12,-3,18,4,-16,-1,-22
15:23:09:451164,-11,4,0,-9,0,-2,-3,-15
15:23:09:458775,-11,4,0,-9,0,-2,-3,-15
15:23:09:466210,2,-4,4,-8,-17,16,26,34
15:23:09:473730,1,-7,-13,-10,4,-10,-6,17
15:23:09:489403,1,-7,-13,-10,4,-10,-6,17
15:23:09:490159,-7,4,-8,-30,-4,-12,0,5
15:23:09:496222,-5,-11,-11,8,13,11,-9,1
15:23:09:504399,-5,-11,-11,8,13,11,-9,1
15:23:09:505209,0,4,3,-4,-3,4,-1,-4
15:23:09:511199,3,-2,-19,21,28,26,-2,-7
15:23:09:518743,3,-2,-19,21,28,26,-2,-7
15:23:09:526233,-8,-2,8,-20,-22,-1,-14,-21
15:23:09:533700,4,-7,-3,8,6,-15,-16,3
15:23:09:541890,4,-7,-3,8,6,-15,-16,3
15:23:09:542657,-1,-4,3,-6,3,11,6,14
15:23:09:556162,2,7,-5,-5,-9,5,3,1
15:23:09:564417,2,7,-5,-5,-9,5,3,1
15:23:09:565203,14,-6,-39,-37,-6,-35,8,38
15:23:09:571144,-5,-2,13,4,-6,13,17,-10
15:23:09:578784,-5,-2,13,4,-6,13,17,-10
15:23:09:586201,-12,-8,4,26,-7,4,4,-16
15:23:09:593724,5,9,15,7,-19,-2,0,14
15:23:09:601220,5,9,15,7,-19,-2,0,14
15:23:09:608725,5,4,5,-2,15,13,-7,18
15:23:09:625031,-7,-7,-3,-21,-45,-31,-13,-22
15:23:09:625846,-7,-7,-3,-21,-45,-31,-13,-22
15:23:09:626595,-7,16,-5,-9,1,-14,-13,-18
15:23:09:639396,-7,5,10,-10,25,23,0,-27
15:23:09:640220,-7,5,10,-10,25,23,0,-27
15:23:09:646165,9,0,11,-1,14,14,6,-2
15:23:09:653654,-8,-24,-25,0,16,4,-15,-27
15:23:09:661280,-8,-24,-25,0,16,4,-15,-27
15:23:09:668718,-4,16,20,-16,-43,23,17,14
15:23:09:676215,2,13,26,20,-2,-17,5,11
15:23:09:684372,2,13,26,20,-2,-17,5,11
15:23:09:685188,-5,-12,-7,8,10,6,-5,6
15:23:09:699396,2,-11,-22,1,16,14,0,13
15:23:09:700242,2,-11,-22,1,16,14,0,13
15:23:09:706231,-2,15,2,9,-3,-13,-7,8
15:23:09:713729,1,-4,-9,20,11,-30,-24,-10
15:23:09:721238,1,-4,-9,20,11,-30,-24,-10
15:23:09:728734,2,-8,9,6,2,-14,-3,-10
15:23:09:736199,4,2,-9,-34,5,-1,7,-6
15:23:09:744437,4,2,-9,-34,5,-1,7,-6
15:23:09:745211,-13,-7,-10,14,22,-16,-7,-5
15:23:09:759770,-5,3,-3,-26,7,-7,-3,17
15:23:09:766895,-5,3,-3,-26,7,-7,-3,17
15:23:09:767670,-15,1,8,39,17,12,-4,-9
15:23:09:773653,-8,9,-9,-12,-19,-11,-24,-59
15:23:09:781233,-8,9,-9,-12,-19,-11,-24,-59
15:23:09:788675,-21,-22,-26,-21,2,-7,8,11
15:23:09:796187,1,-3,30,12,3,-11,2,11
15:23:09:804394,1,-3,30,12,3,-11,2,11
15:23:09:805184,12,-3,-16,1,16,22,-3,-8
15:23:09:819400,1,-6,-10,0,-5,17,13,13
15:23:09:820191,1,-6,-10,0,-5,17,13,13
15:23:09:826168,16,30,20,10,-2,1,8,20
15:23:09:833658,-1,1,2,24,7,19,0,-7
15:23:09:841234,-1,1,2,24,7,19,0,-7
15:23:09:848671,-10,-13,-25,-19,-12,10,-24,-9
15:23:09:856167,0,22,15,13,-2,-13,-8,13
15:23:09:864495,0,22,15,13,-2,-13,-8,13
15:23:09:865233,3,-4,-12,-7,8,-14,-5,0
15:23:09:879402,9,-13,-5,-7,4,6,8,16
15:23:09:880200,9,-13,-5,-7,4,6,8,16
15:23:09:886167,2,4,8,-6,5,-4,4,-9
15:23:09:893731,-2,2,12,-17,-15,-2,3,-14
15:23:09:901297,-2,2,12,-17,-15,-2,3,-14
15:23:09:908733,-3,-11,-9,-9,4,1,-3,-35
15:23:09:916186,-27,-10,-12,-6,-16,6,4,8
15:23:09:924471,-27,-10,-12,-6,-16,6,4,8
15:23:09:925243,11,8,30,4,1,-14,-19,-32
15:23:09:939387,-4,1,21,9,-13,-18,0,-6
15:23:09:940263,-4,1,21,9,-13,-18,0,-6
15:23:09:946222,-3,9,9,-10,-4,21,-3,3
15:23:09:953692,16,-16,8,21,14,13,14,9
15:23:09:961303,16,-16,8,21,14,13,14,9
15:23:09:968694,-3,-4,5,10,15,18,8,3
15:23:09:976195,1,-5,-18,-10,1,-17,-4,12
15:23:09:984379,1,-5,-18,-10,1,-17,-4,12
15:23:09:985160,-1,-16,-21,4,9,-9,-1,-7
15:23:09:999364,22,14,2,-18,15,22,26,28
15:23:10:148,22,14,2,-18,15,22,26,28
15:23:10:6194,-13,-3,-12,-35,-33,1,0,6
15:23:10:13722,-14,-8,-18,13,2,-17,-15,-15
15:23:10:29365,-14,-8,-18,13,2,-17,-15,-15
15:23:10:30188,-1,10,7,4,-7,-2,-17,-50
15:23:10:36172,7,0,-19,-6,-5,-5,-14,6
15:23:10:44411,7,0,-19,-6,-5,-5,-14,6
15:23:10:45164,-2,-10,1,12,14,8,9,24
15:23:10:59364,6,-3,0,-11,8,14,-1,-12
15:23:10:60190,6,-3,0,-11,8,14,-1,-12
15:23:10:66199,20,23,6,7,-30,-18,11,31
15:23:10:73708,-16,5,7,-12,2,-22,-32,-32
15:23:10:81214,-16,5,7,-12,2,-22,-32,-32
15:23:10:88634,-1,-20,-18,-9,-1,2,-1,-30
15:23:10:96211,-7,-8,3,20,-19,-5,12,1
15:23:10:104357,-7,-8,3,20,-19,-5,12,1
15:23:10:105173,-4,-5,-6,-17,2,34,17,17
15:23:10:119362,13,8,31,18,21,11,0,16
15:23:10:120188,13,8,31,18,21,11,0,16
15:23:10:126191,-1,-4,1,-5,9,0,15,3
15:23:10:133698,-6,-9,-18,15,8,-7,0,6
15:23:10:149379,-6,-9,-18,15,8,-7,0,6
15:23:10:150187,0,-1,7,14,7,-5,1,7
15:23:10:156196,-9,4,-8,18,6,0,-3,-1
15:23:10:164389,-9,4,-8,18,6,0,-3,-1
15:23:10:165182,-4,-14,-19,-16,-12,-4,-3,12
15:23:10:179393,10,11,1,-18,-9,23,10,26
15:23:10:180178,10,11,1,-18,-9,23,10,26
15:23:10:186179,-4,-2,2,24,-9,-25,-27,-24
15:23:10:193744,-1,-8,-10,-6,10,2,11,10
15:23:10:201198,-1,-8,-10,-6,10,2,11,10
15:23:10:208652,-6,-17,5,2,-6,-8,-3,-20
15:23:10:216179,2,-1,11,-1,-17,-15,-5,-6
15:23:10:224397,2,-1,11,-1,-17,-15,-5,-6
15:23:10:225184,-1,19,5,-31,-5,-40,-9,36
15:23:10:239347,-1,14,21,-3,-10,-8,26,-10
15:23:10:240150,-1,14,21,-3,-10,-8,26,-10
15:23:10:246188,-5,-3,3,-18,-13,25,14,13
15:23:10:253655,-6,-11,-18,-28,-14,4,-3,0
15:23:10:261261,-6,-11,-18,-28,-14,4,-3,0
15:23:10:268683,15,10,5,7,2,7,6,1
15:23:10:276159,-8,-19,-18,2,23,9,-7,-13
15:23:10:284406,-8,-19,-18,2,23,9,-7,-13
15:23:10:285172,0,9,13,42,-9,-29,-2,2
15:23:10:299375,3,-2,0,-3,-6,18,4,19
15:23:10:300198,3,-2,0,-3,-6,18,4,19
15:23:10:306172,-9,-6,-5,36,26,2,-8,-13
15:23:10:313691,-18,-6,-4,4,-22,-12,-12,-13
15:23:10:321248,-18,-6,-4,4,-22,-12,-12,-13
15:23:10:328684,9,-7,-8,-26,-19,-3,4,1
15:23:10:336163,0,24,12,-9,5,5,6,-21
15:23:10:344442,0,24,12,-9,5,5,6,-21
15:23:10:345233,-8,-10,-11,8,-4,5,-4,-8
15:23:10:359388,5,8,1,-9,23,-10,-5,7
15:23:10:360240,5,8,1,-9,23,-10,-5,7
15:23:10:366179,7,8,8,0,39,12,7,-6
15:23:10:373696,2,-15,-15,-22,-24,-1,-4,4
15:23:10:381303,2,-15,-15,-22,-24,-1,-4,4
15:23:10:388721,-4,3,-7,-16,-5,-7,2,14
15:23:10:396212,13,5,6,-1,13,-26,-4,22
15:23:10:404349,13,5,6,-1,13,-26,-4,22
15:23:10:405170,-6,-11,10,11,14,-3,0,15
15:23:10:419328,17,9,13,-7,-14,13,12,14
15:23:10:420160,17,9,13,-7,-14,13,12,14
15:23:10:426227,-10,-10,-25,-23,-21,-8,0,-10
15:23:10:433693,-11,-9,-14,4,-36,3,-12,-18
15:23:10:441200,-11,-9,-14,4,-36,3,-12,-18
15:23:10:456897,-3,0,0,-18,-24,8,0,-14
15:23:10:457650,4,-8,20,18,12,-8,-8,13
15:23:10:464388,4,-8,20,18,12,-8,-8,13
15:23:10:465175,5,5,-11,-6,2,8,-6,1
15:23:10:479443,-7,-1,-29,-24,15,-17,10,-4
15:23:10:480269,-7,-1,-29,-24,15,-17,10,-4
15:23:10:486182,5,-16,-14,-1,1,-12,0,0
15:23:10:493698,6,16,6,0,-11,14,-4,-32
15:23:10:501188,6,16,6,0,-11,14,-4,-32
15:23:10:508713,0,1,11,41,9,8,-2,-1
15:23:10:516217,-1,-5,4,15,2,-21,-3,0
15:23:10:524420,-1,-5,4,15,2,-21,-3,0
15:23:10:525190,3,16,22,-4,-15,-11,-3,3
15:23:10:539369,0,-3,-2,2,19,8,0,5
15:23:10:540201,0,-3,-2,2,19,8,0,5
15:23:10:546250,-9,-13,-13,-6,20,-16,-16,-7
15:23:10:561977,-3,3,-4,-9,-1,10,-1,4
15:23:10:562725,-3,3,-4,-9,-1,10,-1,4
15:23:10:568693,-1,11,16,-16,24,0,-7,-19
15:23:10:576180,-3,-3,-21,5,4,11,-4,16
15:23:10:583733,-3,-3,-21,5,4,11,-4,16
15:23:10:591265,-3,2,2,-36,-4,7,-2,5
15:23:10:599342,-3,-6,-3,3,11,-27,-11,-15
15:23:10:600199,-3,-6,-3,3,11,-27,-11,-15
15:23:10:606149,2,-2,-14,-1,-17,-3,2,-5
15:23:10:621919,20,10,3,-18,7,23,9,25
15:23:10:622688,20,10,3,-18,7,23,9,25
15:23:10:628767,2,-1,1,-11,-18,4,12,-7
15:23:10:636219,-4,-3,13,4,4,-19,-2,-7
15:23:10:643798,-4,-3,13,4,4,-19,-2,-7
15:23:10:651178,-7,8,9,1,-16,-4,6,12
15:23:10:659406,23,0,-8,25,9,19,-7,-18
15:23:10:660234,23,0,-8,25,9,19,-7,-18
15:23:10:666209,-20,-1,-6,-5,10,6,-2,-6
15:23:10:681907,-1,-1,7,2,-11,2,9,-7
15:23:10:682681,-1,-1,7,2,-11,2,9,-7
15:23:10:688633,17,-3,-18,8,-21,-39,-7,2
15:23:10:696152,-13,-5,6,21,-19,12,0,19
15:23:10:703747,-13,-5,6,21,-19,12,0,19
15:23:10:711177,-5,-5,-14,-3,6,9,1,3
15:23:10:719389,-9,-7,-11,-57,-10,16,5,2
15:23:10:720185,-9,-7,-11,-57,-10,16,5,2
15:23:10:726206,5,-3,0,4,-14,-4,0,-3
15:23:10:741874,-16,-11,-12,-20,-41,-14,-16,-33
15:23:10:742727,-16,-11,-12,-20,-41,-14,-16,-33
15:23:10:748692,-1,2,19,7,9,7,-4,-26
15:23:10:756190,-20,12,-7,8,14,13,1,-15
15:23:10:763789,-20,12,-7,8,14,13,1,-15
15:23:10:771200,1,5,13,22,0,-13,-19,-5
15:23:10:779497,-19,-7,0,1,-7,-14,-21,-17
15:23:10:780305,-19,-7,0,1,-7,-14,-21,-17
15:23:10:786157,17,-4,-5,-3,-11,-11,-13,-2
15:23:10:801886,-4,-4,-27,-22,-17,-24,3,-6
15:23:10:802716,-4,-4,-27,-22,-17,-24,3,-6
15:23:10:816916,-7,0,13,9,9,1,2,-1
15:23:10:817681,2,-4,5,-7,-5,14,6,15
15:23:10:823769,2,-4,5,-7,-5,14,6,15
15:23:10:831231,-3,-3,-7,3,-16,1,-2,-1
15:23:10:839381,-2,-17,-28,-11,1,10,14,-4
15:23:10:840249,-2,-17,-28,-11,1,10,14,-4
15:23:10:846174,-4,3,12,-8,1,5,-11,23
15:23:10:861954,-1,9,13,17,11,-10,2,5
15:23:10:862700,-1,9,13,17,11,-10,2,5
15:23:10:868694,-4,-11,-13,-9,1,14,14,28
15:23:10:876209,1,-2,-2,29,6,-22,-4,5
15:23:10:883800,1,-2,-2,29,6,-22,-4,5
15:23:10:891271,2,8,-1,13,20,17,12,5
15:23:10:899391,-5,10,26,19,9,14,0,-8
15:23:10:900210,-5,10,26,19,9,14,0,-8
15:23:10:906215,3,-12,-32,-51,-13,-5,-7,-26
15:23:10:930190,5,3,21,-18,0,0,-7,-1
15:23:10:930965,5,3,21,-18,0,0,-7,-1
15:23:10:931690,-1,22,52,26,11,2,1,-18
15:23:10:936163,-1,-10,-17,-26,23,-1,-4,-6
15:23:10:943741,-1,-10,-17,-26,23,-1,-4,-6
15:23:10:951180,-3,-9,-17,-1,2,17,2,-62
15:23:10:959349,14,-1,5,40,-9,-25,-7,19
15:23:10:960150,14,-1,5,40,-9,-25,-7,19
15:23:10:966172,18,2,1,32,6,20,5,23
15:23:10:981924,-12,-2,-1,-3,3,0,7,-7
15:23:10:982715,-12,-2,-1,-3,3,0,7,-7
15:23:10:988695,-19,-16,-1,22,-28,-18,-7,-10
15:23:10:996208,3,11,13,-6,9,15,15,19
15:23:11:3782,3,11,13,-6,9,15,15,19
15:23:11:11195,-16,1,1,-37,-5,-15,-8,-13
15:23:11:19362,16,-3,-9,-8,5,30,18,35
15:23:11:20180,16,-3,-9,-8,5,30,18,35
15:23:11:26259,-9,-13,-13,23,3,-44,-21,-19
15:23:11:41928,-4,11,-2,-18,-7,7,-7,-8
15:23:11:42664,-4,11,-2,-18,-7,7,-7,-8
15:23:11:48746,-8,-13,-11,-8,-3,-3,7,21
15:23:11:56197,-6,-4,0,13,12,11,8,-7
15:23:11:63699,-6,-4,0,13,12,11,8,-7
15:23:11:71209,-1,-5,-24,0,-33,-2,-9,13
15:23:11:79389,8,-4,-10,-20,-20,-20,-12,-18
15:23:11:80229,8,-4,-10,-20,-20,-20,-12,-18
15:23:11:86179,-17,5,13,35,17,-14,3,-3
15:23:11:101929,-3,-11,-11,1,-9,-10,-9,-15
15:23:11:102718,-3,-11,-11,1,-9,-10,-9,-15
15:23:11:108713,9,1,2,-40,-8,12,1,-12
15:23:11:116242,4,-1,9,-10,-11,2,9,5
15:23:11:123728,4,-1,9,-10,-11,2,9,5
15:23:11:140054,4,1,-8,-10,-4,-4,-5,-1
15:23:11:140918,-6,-10,-17,-7,7,-7,-7,-11
15:23:11:141724,-6,-10,-17,-7,7,-7,-7,-11
15:23:11:146207,13,12,2,-20,2,12,2,19
15:23:11:161937,-5,-4,-7,-1,5,14,0,13
15:23:11:162721,-5,-4,-7,-1,5,14,0,13
15:23:11:168720,-18,-5,-2,-11,-4,2,-12,-17
15:23:11:176234,-2,4,23,14,-12,-13,-10,24
15:23:11:183730,-2,4,23,14,-12,-13,-10,24
15:23:11:191217,11,2,10,-3,18,17,26,25
15:23:11:199400,5,6,-1,8,-6,-41,-3,-20
15:23:11:200248,5,6,-1,8,-6,-41,-3,-20
15:23:11:206160,2,-1,-6,-1,0,8,6,-3
15:23:11:221947,11,5,0,5,17,11,5,8
15:23:11:222708,11,5,0,5,17,11,5,8
15:23:11:228697,27,5,2,-3,11,-9,3,3
15:23:11:236142,8,-8,-39,-40,-20,-15,-10,-6
15:23:11:243767,8,-8,-39,-40,-20,-15,-10,-6
15:23:11:251153,-3,-12,7,-4,-19,23,5,-1
15:23:11:259436,-9,-1,3,20,-10,-18,-5,-6
15:23:11:260231,-9,-1,3,20,-10,-18,-5,-6
15:23:11:266214,4,2,5,16,-11,-15,-15,-8
15:23:11:281912,-9,1,7,4,22,14,-7,-25
15:23:11:282720,-9,1,7,4,22,14,-7,-25
15:23:11:288668,10,1,-16,-2,20,-3,-8,13
15:23:11:296227,10,4,22,19,7,16,14,18
15:23:11:303746,10,4,22,19,7,16,14,18
15:23:11:311261,-6,-3,-11,-6,9,14,3,-5
15:23:11:319386,-14,2,25,9,11,12,7,-7
15:23:11:320236,-14,2,25,9,11,12,7,-7
15:23:11:326219,2,0,16,18,-16,-8,9,23
15:23:11:341949,-9,-4,8,26,-4,5,-5,-21
15:23:11:342736,-9,-4,8,26,-4,5,-5,-21
15:23:11:348723,-8,12,-20,-2,5,-8,4,28
15:23:11:356193,5,3,-10,-12,8,-21,-18,-5
15:23:11:363820,5,3,-10,-12,8,-21,-18,-5
15:23:11:371219,0,-5,2,0,6,22,8,-7
15:23:11:379390,-10,-5,-7,-8,1,-16,-11,7
15:23:11:380226,-10,-5,-7,-8,1,-16,-11,7
15:23:11:386184,-5,-3,-2,-2,-4,-25,2,6
15:23:11:401874,-2,-2,-16,-16,11,4,3,2
15:23:11:402688,-2,-2,-16,-16,11,4,3,2
15:23:11:408731,0,1,17,0,2,1,8,-4
15:23:11:424407,8,-4,-18,-23,-40,13,30,28
15:23:11:425211,8,-4,-18,-23,-40,13,30,28
15:23:11:431199,-12,-2,-7,0,10,10,-13,1
15:23:11:439359,0,3,7,-3,8,5,2,5
15:23:11:440164,0,3,7,-3,8,5,2,5
15:23:11:446195,0,-4,-19,-36,3,23,8,3
15:23:11:461950,-5,-2,-2,-32,-26,-7,-5,-3
15:23:11:462752,-5,-2,-2,-32,-26,-7,-5,-3
15:23:11:468670,2,-4,-1,6,2,-12,-9,1
15:23:11:484391,2,-4,-1,6,2,-12,-9,1
15:23:11:485207,20,4,6,10,4,14,-3,5
15:23:11:491218,-12,-1,11,19,-13,17,4,-25
15:23:11:499444,-12,-1,11,19,-13,17,4,-25
15:23:11:500218,13,-7,1,-3,-34,-14,8,42
15:23:11:513705,-23,14,14,-3,-13,-1,-19,-19
15:23:11:521883,-23,14,14,-3,-13,-1,-19,-19
15:23:11:522719,-2,-12,3,24,-1,-19,-13,-10
15:23:11:528710,-2,-1,-11,11,-2,-12,-4,17
15:23:11:544469,-2,-1,-11,11,-2,-12,-4,17
15:23:11:545220,47,5,-4,-8,-1,6,-11,-1
15:23:11:551199,35,7,1,8,13,-6,5,13
15:23:11:566935,35,7,1,8,13,-6,5,13
15:23:11:567708,-15,2,3,2,2,-15,-3,0
15:23:11:573670,-2,-8,-6,-5,-26,5,0,-7
15:23:11:581918,-2,-8,-6,-5,-26,5,0,-7
15:23:11:582691,-20,-1,0,2,-2,1,-19,-15
15:23:11:588674,1,-6,-23,-11,7,-17,-2,1
15:23:11:604408,1,-6,-23,-11,7,-17,-2,1
15:23:11:605215,-4,-6,-12,2,17,9,10,3
15:23:11:611174,-8,2,22,16,14,18,-12,-28
15:23:11:619414,-8,2,22,16,14,18,-12,-28
15:23:11:620233,-7,10,15,-3,0,-13,9,-12
15:23:11:633679,0,6,-9,-18,-21,-5,0,-2
15:23:11:650053,0,6,-9,-18,-21,-5,0,-2
15:23:11:650866,-7,-6,1,16,13,20,5,10
15:23:11:651620,8,-1,15,3,20,-7,-7,11
15:23:11:664458,8,-1,15,3,20,-7,-7,11
15:23:11:665222,-4,3,3,21,-15,-33,-16,-33
15:23:11:671210,-4,-9,-28,-29,4,18,16,-1
15:23:11:679386,-4,-9,-28,-29,4,18,16,-1
15:23:11:680189,-4,-2,-12,-25,-9,10,3,4
15:23:11:693719,-10,-2,10,6,7,0,-6,-16
15:23:11:701866,-10,-2,10,6,7,0,-6,-16
15:23:11:702702,-9,-10,-15,-12,-9,18,6,23
15:23:11:708729,-7,-9,-1,-29,-26,-33,0,-6
15:23:11:724501,-7,-9,-1,-29,-26,-33,0,-6
15:23:11:725226,9,2,14,16,7,9,9,-14
15:23:11:740084,0,-9,-13,-1,7,-10,3,-3
15:23:11:740922,0,-9,-13,-1,7,-10,3,-3
15:23:11:741686,-11,-11,-10,-3,6,-17,-6,-28
15:23:11:753683,25,6,8,2,-3,-2,-3,7
15:23:11:761686,25,6,8,2,-3,-2,-3,7
15:23:11:769332,-6,-2,-1,-12,-15,-7,-13,17
15:23:11:770100,-4,-2,8,8,5,3,-1,-4
15:23:11:784365,-4,-2,8,8,5,3,-1,-4
15:23:11:785183,3,-8,-22,-24,5,5,3,-23
15:23:11:791167,-11,0,6,14,20,13,-2,5
15:23:11:799413,-11,0,6,14,20,13,-2,5
15:23:11:800182,-3,2,-7,-28,-29,-36,-7,13
15:23:11:813734,-14,0,-2,-22,1,-25,2,-1
15:23:11:821906,-14,0,-2,-22,1,-25,2,-1
15:23:11:822712,-8,2,9,21,-6,-4,-18,-13
15:23:11:828675,-11,-9,-13,-15,-5,-2,3,8
15:23:11:844399,-11,-9,-13,-15,-5,-2,3,8
15:23:11:845190,13,2,4,22,17,-1,-1,7
15:23:11:851203,13,14,17,23,1,14,-1,15
15:23:11:859422,13,14,17,23,1,14,-1,15
15:23:11:860232,13,4,12,1,9,21,12,35
15:23:11:873699,-9,-6,-8,-5,1,-11,-7,13
15:23:11:881902,-9,-6,-8,-5,1,-11,-7,13
15:23:11:882681,-8,4,-2,-21,6,38,20,-4
15:23:11:888650,13,-1,-3,3,0,31,11,-3
15:23:11:904363,13,-1,-3,3,0,31,11,-3
15:23:11:905155,-47,-9,-4,9,6,-12,-16,-47
15:23:11:911190,10,2,2,0,-14,15,8,0
15:23:11:919347,10,2,2,0,-14,15,8,0
15:23:11:920206,-13,-9,-8,2,10,3,6,-23
15:23:11:933707,-16,-12,-35,8,2,21,-5,-13
15:23:11:941953,-16,-12,-35,8,2,21,-5,-13
15:23:11:942676,-1,-8,-1,-2,9,6,-10,-10
15:23:11:948701,1,-4,-11,-2,-25,-25,-11,-8
15:23:11:964406,1,-4,-11,-2,-25,-25,-11,-8
15:23:11:965174,-2,-2,6,10,15,8,-5,-9
15:23:11:971216,3,-3,-2,-6,16,23,20,16
15:23:11:979371,3,-3,-2,-6,16,23,20,16
15:23:11:980192,4,6,10,28,10,-37,-8,8
15:23:11:993723,2,9,13,6,-3,-9,0,-13
15:23:12:1868,2,9,13,6,-3,-9,0,-13
15:23:12:2694,3,-4,-19,-19,-36,5,-2,0
15:23:12:8713,-1,-2,-11,-27,-17,-30,-3,10
15:23:12:24460,-1,-2,-11,-27,-17,-30,-3,10
15:23:12:25194,2,4,-3,-7,21,30,9,-1
15:23:12:40072,0,0,21,38,-9,-19,-13,-10
15:23:12:40890,0,0,21,38,-9,-19,-13,-10
15:23:12:41645,7,-8,-6,-12,4,2,2,24
15:23:12:53660,-2,-5,2,1,17,-3,-8,-12
15:23:12:61907,-2,-5,2,1,17,-3,-8,-12
15:23:12:62682,1,20,48,3,-10,-10,-13,8
15:23:12:68639,3,-14,-9,9,10,-1,-6,8
15:23:12:84350,3,-14,-9,9,10,-1,-6,8
15:23:12:85175,-2,14,-2,-11,-12,-8,-5,-29
15:23:12:91136,-11,-12,-9,-10,-7,0,-10,-27
15:23:12:99430,-11,-12,-9,-10,-7,0,-10,-27
15:23:12:100198,12,-5,1,22,25,23,13,22
15:23:12:113722,-22,4,4,-2,-11,-30,-22,-12
15:23:12:121878,-22,4,4,-2,-11,-30,-22,-12
15:23:12:122683,-3,-3,-13,-18,-22,0,4,-7
15:23:12:128645,-5,-4,3,-34,-7,9,21,1
15:23:12:144430,-5,-4,3,-34,-7,9,21,1
15:23:12:145187,0,1,18,14,-8,-29,-29,-20
15:23:12:151208,2,-5,2,2,-16,2,10,11
15:23:12:159382,2,-5,2,2,-16,2,10,11
15:23:12:160192,10,-3,-23,-5,-9,-7,9,1
15:23:12:173727,16,0,-6,-5,10,10,4,-3
15:23:12:181919,16,0,-6,-5,10,10,4,-3
15:23:12:182693,7,3,-6,3,-9,-6,-2,-1
15:23:12:188677,0,-3,-8,-18,-15,2,-8,9
15:23:12:204372,0,-3,-8,-18,-15,2,-8,9
15:23:12:205139,-10,-11,-16,-22,-9,5,16,23
15:23:12:211260,-9,-1,-17,-7,16,-40,-10,-6
15:23:12:219370,-9,-1,-17,-7,16,-40,-10,-6
15:23:12:220209,1,-7,-9,19,2,-9,-4,23
15:23:12:233721,-1,5,20,61,9,3,-7,3
15:23:12:241896,-1,5,20,61,9,3,-7,3
15:23:12:242689,-1,0,-3,-5,26,16,12,29
15:23:12:248678,1,-1,-3,-6,-14,-9,0,-9
15:23:12:264400,1,-1,-3,-6,-14,-9,0,-9
15:23:12:265151,-17,-6,5,-32,-16,35,15,-40
15:23:12:271197,-3,3,3,4,1,-11,2,-3
15:23:12:279468,-3,3,3,4,1,-11,2,-3
15:23:12:280180,2,2,-7,-12,-18,-19,3,25
15:23:12:293751,4,2,8,18,10,32,22,11
15:23:12:301919,4,2,8,18,10,32,22,11
15:23:12:302692,-31,4,15,9,-6,-39,-27,-4
15:23:12:308736,9,3,6,21,33,8,-4,16
15:23:12:324409,9,3,6,21,33,8,-4,16
15:23:12:325189,3,-2,-8,13,20,12,-2,-8
15:23:12:331239,-11,-6,1,-9,22,6,2,9
15:23:12:339394,-11,-6,1,-9,22,6,2,9
15:23:12:340180,21,1,-4,13,29,7,-8,-23
15:23:12:353698,-4,-3,-18,-28,-20,20,1,19
15:23:12:361954,-4,-3,-18,-28,-20,20,1,19
15:23:12:362723,6,-2,1,-13,11,-4,3,-5
15:23:12:368698,8,10,7,-15,-18,-27,0,1
15:23:12:384409,8,10,7,-15,-18,-27,0,1
15:23:12:385235,8,3,-6,1,-22,-14,-10,10
15:23:12:391218,11,1,-8,-2,4,-17,-7,-15
15:23:12:399438,11,1,-8,-2,4,-17,-7,-15
15:23:12:400230,6,-6,-10,-8,-5,17,19,15
15:23:12:413707,-15,-10,-15,-8,-7,-10,-30,-58
15:23:12:422576,-15,-10,-15,-8,-7,-10,-30,-58
15:23:12:423351,-2,3,9,-18,-27,-6,-6,-6
15:23:12:436142,-1,-2,5,-3,8,-4,-1,15
15:23:12:444449,-1,-2,5,-3,8,-4,-1,15
15:23:12:445193,-15,-6,-4,0,-3,-8,-3,-21
15:23:12:451152,25,9,13,1,5,5,4,1
15:23:12:458752,25,9,13,1,5,5,4,1
15:23:12:466160,-12,-6,-11,6,8,-6,-7,-22
15:23:12:473724,-12,16,34,24,-11,21,13,-8
15:23:12:481899,-12,16,34,24,-11,21,13,-8
15:23:12:482674,0,7,12,7,15,-1,6,5
15:23:12:496168,-6,-3,-12,-22,-22,-7,-5,-8
15:23:12:504377,-6,-3,-12,-22,-22,-7,-5,-8
15:23:12:505211,22,-1,18,4,-8,-21,-2,-12
15:23:12:511181,-2,-3,-15,-13,-4,8,-1,25
15:23:12:518675,-2,-3,-15,-13,-4,8,-1,25
15:23:12:526227,-26,-3,3,-11,-3,-8,-8,-12
15:23:12:533727,10,4,3,15,13,-11,6,18
15:23:12:541928,10,4,3,15,13,-11,6,18
15:23:12:542685,-11,-6,-4,-3,6,19,8,4
15:23:12:556224,-3,4,12,36,14,-15,-14,-5
15:23:12:564403,-3,4,12,36,14,-15,-14,-5
15:23:12:565142,13,1,1,4,-10,6,-3,10
15:23:12:571345,-6,-22,-24,-24,-12,-22,-9,-10
15:23:12:578725,-6,-22,-24,-24,-12,-22,-9,-10
15:23:12:586174,17,6,-1,-23,-22,4,5,11
15:23:12:593737,5,-9,-15,-34,-33,13,-9,-40
15:23:12:601901,5,-9,-15,-34,-33,13,-9,-40
15:23:12:602700,26,13,-4,3,-2,-3,-18,-26
15:23:12:616239,-11,5,12,12,15,47,19,23
15:23:12:624385,-11,5,12,12,15,47,19,23
15:23:12:625176,-21,-6,-9,1,-15,-20,-14,-1
15:23:12:631150,-15,-12,-16,-21,6,-10,0,-11
15:23:12:646969,-15,-12,-16,-21,6,-10,0,-11
15:23:12:647669,-16,-1,-16,-10,33,11,19,13
15:23:12:653685,-17,-4,-13,-9,-18,-24,-15,-2
15:23:12:661922,-17,-4,-13,-9,-18,-24,-15,-2
15:23:12:662673,-11,-9,11,23,-25,16,14,-3
15:23:12:676649,6,4,5,24,20,12,0,-2
15:23:12:684350,6,4,5,24,20,12,0,-2
15:23:12:685169,-1,-6,3,2,2,-9,2,27
15:23:12:691219,-16,-3,9,17,-8,4,8,2
15:23:12:698728,-16,-3,9,17,-8,4,8,2
15:23:12:706204,11,1,8,-3,10,17,-7,22
15:23:12:713714,19,10,10,0,-8,-22,-9,14
15:23:12:721920,19,10,10,0,-8,-22,-9,14
15:23:12:722668,4,-9,-31,-14,8,-23,-10,4
15:23:12:736189,24,11,19,6,29,15,14,14
15:23:12:744423,24,11,19,6,29,15,14,14
15:23:12:745181,13,-2,5,23,13,-2,-14,-35
15:23:12:751126,9,-5,1,12,15,5,14,9
15:23:12:758784,9,-5,1,12,15,5,14,9
15:23:12:766179,15,9,7,-1,-12,-17,-26,-45
15:23:12:773648,-11,-9,-18,-14,-21,3,4,-1
15:23:12:781932,-11,-9,-18,-14,-21,3,4,-1
15:23:12:782722,-2,9,11,-3,-5,-2,9,24
15:23:12:805099,-4,6,11,-8,4,2,10,4
15:23:12:805930,-4,6,11,-8,4,2,10,4
15:23:12:806626,-28,9,55,34,-8,-12,-1,-15
15:23:12:811234,1,-1,-14,-7,-1,-9,-9,-7
15:23:12:818715,1,-1,-14,-7,-1,-9,-9,-7
15:23:12:826175,8,2,-10,-3,-18,6,10,25
15:23:12:833619,-9,3,7,3,3,-3,-8,-19
15:23:12:841955,-9,3,7,3,3,-3,-8,-19
15:23:12:842705,12,-8,-14,-7,14,23,-3,-24
15:23:12:856222,2,1,-1,-4,-15,18,17,2
15:23:12:864141,2,1,-1,-4,-15,18,17,2
15:23:12:871820,-8,-12,-14,-1,-5,8,-6,6
15:23:12:872613,8,9,0,-16,31,19,2,13
15:23:12:878775,8,9,0,-16,31,19,2,13
15:23:12:886204,-8,-3,-8,-37,-16,-8,16,1
15:23:12:893689,-6,-8,-9,-4,4,-16,-9,-12
15:23:12:901899,-6,-8,-9,-4,4,-16,-9,-12
15:23:12:902755,-14,-8,-20,9,34,-14,-10,27
15:23:12:925067,-2,-4,-10,10,10,12,-1,-11
15:23:12:925885,-2,-4,-10,10,10,12,-1,-11
15:23:12:926572,15,-10,-16,-7,-35,-26,5,13
15:23:12:931211,-12,1,-2,-5,4,-23,15,3
15:23:12:938709,-12,1,-2,-5,4,-23,15,3
15:23:12:946146,-14,1,-4,-12,-22,-14,-5,-4
15:23:12:953639,-4,-10,-9,-6,-31,-21,-10,-14
15:23:12:961950,-4,-10,-9,-6,-31,-21,-10,-14
15:23:12:962708,-14,-9,-6,6,32,12,-1,8
15:23:12:976237,-14,7,10,6,-7,-2,-7,-15
15:23:12:984389,-14,7,10,6,-7,-2,-7,-15
15:23:12:985164,-12,2,11,18,7,-14,-5,12
15:23:12:991168,20,-11,-6,5,-13,1,-6,-1
15:23:12:998742,20,-11,-6,5,-13,1,-6,-1
15:23:13:6150,12,14,9,12,15,10,-10,-13
15:23:13:13685,21,0,-12,-13,-3,-15,-3,-10
15:23:13:21890,21,0,-12,-13,-3,-15,-3,-10
15:23:13:22687,8,-3,0,0,17,-16,-14,-10
15:23:13:36159,-11,-11,-10,6,-3,2,-8,17
15:23:13:44426,-11,-11,-10,6,-3,2,-8,17
15:23:13:45225,4,9,16,-1,-10,-1,6,-13
15:23:13:51174,-14,1,10,-4,8,9,-12,-15
15:23:13:58792,-14,1,10,-4,8,9,-12,-15
15:23:13:66291,-8,-6,-4,13,-13,-16,-7,8
15:23:13:73693,-11,-4,-6,-10,18,10,0,-30
15:23:13:81925,-11,-4,-6,-10,18,10,0,-30
15:23:13:82748,11,-1,-11,-21,10,6,2,-23
15:23:13:96204,-4,0,-5,-26,-11,0,0,9
15:23:13:104428,-4,0,-5,-26,-11,0,0,9
15:23:13:105186,-6,-6,-8,-16,-14,6,15,7
15:23:13:111246,7,-1,-1,11,1,24,7,25
15:23:13:118734,7,-1,-1,11,1,24,7,25
15:23:13:126232,-5,-3,-13,10,8,16,14,10
15:23:13:133699,-16,3,8,22,-17,-1,-2,-7
15:23:13:141932,-16,3,8,22,-17,-1,-2,-7
15:23:13:142676,-3,8,6,11,-4,20,13,2
15:23:13:156163,-9,-7,-3,-3,-35,-27,0,-3
15:23:13:164367,-9,-7,-3,-3,-35,-27,0,-3
15:23:13:165170,-8,2,20,0,13,16,6,-31
15:23:13:171174,-1,-3,0,-22,3,-14,-2,13
15:23:13:178773,-1,-3,0,-22,3,-14,-2,13
15:23:13:186223,3,0,14,21,3,-6,6,-8
15:23:13:193749,4,3,10,19,-2,-8,8,9
15:23:13:201880,4,3,10,19,-2,-8,8,9
15:23:13:202694,-6,-9,-5,21,-12,-9,-12,15
15:23:13:216220,18,9,8,12,15,20,-1,2
15:23:13:224377,18,9,8,12,15,20,-1,2
15:23:13:225212,-12,-6,-17,-24,-27,-13,2,8
15:23:13:231203,-7,-7,-36,-7,-12,-17,-3,-6
15:23:13:238699,-7,-7,-36,-7,-12,-17,-3,-6
15:23:13:246206,10,-2,-10,-20,-21,9,-8,15
15:23:13:253622,1,2,-10,-16,-16,6,-8,-21
15:23:13:261987,1,2,-10,-16,-16,6,-8,-21
15:23:13:262700,21,-2,-14,0,17,5,-5,-2
15:23:13:276199,2,-2,-4,-2,32,26,9,9
15:23:13:284383,2,-2,-4,-2,32,26,9,9
15:23:13:285147,-8,-4,-17,2,12,15,10,-3
15:23:13:291175,1,2,19,11,-18,-7,-6,10
15:23:13:298738,1,2,19,11,-18,-7,-6,10
15:23:13:306146,-7,-5,-21,-24,12,16,4,-8
15:23:13:313670,-41,-6,17,23,2,-21,-14,-7
15:23:13:321877,-41,-6,17,23,2,-21,-14,-7
15:23:13:322677,0,6,17,-1,3,-14,-5,-7
15:23:13:336180,29,-6,-4,-3,3,4,-4,-18
15:23:13:344442,29,-6,-4,-3,3,4,-4,-18
15:23:13:345202,0,-9,-9,-11,4,5,-2,1
15:23:13:351157,-7,15,17,11,1,7,3,2
15:23:13:358777,-7,15,17,11,1,7,3,2
15:23:13:366186,-4,10,16,1,13,-18,-12,-12
15:23:13:373677,-12,-10,-15,-16,-8,-22,-10,-7
15:23:13:381281,-12,-10,-15,-16,-8,-22,-10,-7
15:23:13:388687,-9,-4,6,4,2,14,0,-12
15:23:13:396196,0,9,21,31,-4,-10,-11,-24
15:23:13:404358,0,9,21,31,-4,-10,-11,-24
15:23:13:405175,-2,-10,-7,24,51,6,3,14
15:23:13:419410,13,-2,-4,-8,-16,-9,4,23
15:23:13:420210,13,-2,-4,-8,-16,-9,4,23
15:23:13:426255,6,-7,6,-9,4,-17,-5,-1
15:23:13:433705,9,15,25,21,22,22,14,15
15:23:13:441222,9,15,25,21,22,22,14,15
15:23:13:448693,13,2,-11,-7,-19,20,4,14
15:23:13:456212,27,-16,-24,-8,18,8,-2,3
15:23:13:464378,27,-16,-24,-8,18,8,-2,3
15:23:13:465160,-6,-2,4,-4,-17,-7,-1,-13
15:23:13:479432,-6,-7,-20,-29,-28,-3,-3,-7
15:23:13:480175,-6,-7,-20,-29,-28,-3,-3,-7
15:23:13:486179,-2,3,1,1,-13,1,-1,11
15:23:13:493716,0,2,6,0,24,-8,-12,-14
15:23:13:501173,0,2,6,0,24,-8,-12,-14
15:23:13:508637,6,5,-2,-2,-24,0,-5,-8
15:23:13:516140,-13,2,12,-3,4,10,9,-3
15:23:13:524402,-13,2,12,-3,4,10,9,-3
15:23:13:525188,-2,4,12,23,-1,-17,-4,18
15:23:13:539343,1,-1,-1,2,3,-14,-5,14
15:23:13:540170,1,-1,-1,2,3,-14,-5,14
15:23:13:546210,-11,5,24,18,-30,-5,-2,0
15:23:13:562015,-12,11,6,16,22,19,5,8
15:23:13:562667,-12,11,6,16,22,19,5,8
15:23:13:568675,-5,-9,-17,-9,24,-2,1,-14
15:23:13:576237,4,4,-14,-21,-43,-34,-5,-8
15:23:13:584398,4,4,-14,-21,-43,-34,-5,-8
15:23:13:585153,5,6,15,-27,17,4,6,11
15:23:13:599373,-8,-12,-9,5,-22,-17,0,13
15:23:13:600260,-8,-12,-9,5,-22,-17,0,13
15:23:13:606149,-12,-3,-11,11,-7,-8,-28,-22
15:23:13:613760,-1,0,4,21,19,8,-5,-3
15:23:13:621189,-1,0,4,21,19,8,-5,-3
15:23:13:628693,0,-2,-5,-8,12,6,6,9
15:23:13:636122,-1,-3,11,-6,-27,17,3,-1
15:23:13:644429,-1,-3,11,-6,-27,17,3,-1
15:23:13:645196,3,1,4,-20,-27,-7,6,3
15:23:13:659364,-9,-1,-3,-22,1,4,11,-11
15:23:13:660199,-9,-1,-3,-22,1,4,11,-11
15:23:13:666146,-4,9,-10,-37,-7,3,7,-2
15:23:13:673689,-3,-6,-6,24,22,6,-14,-5
15:23:13:681255,-3,-6,-6,24,22,6,-14,-5
15:23:13:688671,-4,2,10,13,7,-9,-11,-41
15:23:13:696221,-5,1,-7,-18,-5,-12,17,16
15:23:13:704394,-5,1,-7,-18,-5,-12,17,16
15:23:13:705183,7,1,-15,7,-1,1,-7,4
15:23:13:719377,4,-1,8,-1,-34,-49,-23,-13
15:23:13:720202,4,-1,8,-1,-34,-49,-23,-13
15:23:13:726170,13,-2,0,1,7,9,9,11
15:23:13:733703,3,-9,-39,-23,1,13,18,-5
15:23:13:741231,3,-9,-39,-23,1,13,18,-5
15:23:13:748687,4,0,-9,-12,-5,17,15,6
15:23:13:756152,-3,-5,-1,6,1,-19,-20,-8
15:23:13:764366,-3,-5,-1,6,1,-19,-20,-8
15:23:13:765147,-7,-4,-2,5,14,2,-9,-10
15:23:13:779443,-4,-9,2,4,-11,-10,-11,9
15:23:13:780222,-4,-9,2,4,-11,-10,-11,9
15:23:13:786178,-10,-3,0,9,-39,-12,-7,1
15:23:13:793679,3,3,15,4,-17,11,0,4
15:23:13:801243,3,3,15,4,-17,11,0,4
15:23:13:808680,5,0,-1,27,18,-23,5,28
15:23:13:816200,3,0,-2,-15,-8,16,-14,-15
15:23:13:824410,3,0,-2,-15,-8,16,-14,-15
15:23:13:825162,-20,-10,0,-4,36,1,-23,-43
15:23:13:839355,7,9,15,4,-1,-2,10,8
15:23:13:840146,7,9,15,4,-1,-2,10,8
15:23:13:846187,-4,-9,-10,-15,-13,25,6,-2
15:23:13:853672,0,-1,-6,-10,23,17,4,-14
15:23:13:861245,0,-1,-6,-10,23,17,4,-14
15:23:13:868644,8,3,3,-3,15,4,14,3
15:23:13:876264,-9,-6,-17,-2,19,-23,-3,-9
15:23:13:884400,-9,-6,-17,-2,19,-23,-3,-9
15:23:13:885178,0,-8,-18,-25,-13,-14,-2,11
15:23:13:899388,-10,-4,-4,-23,20,19,4,1
15:23:13:900192,-10,-4,-4,-23,20,19,4,1
15:23:13:906179,-7,1,9,11,-9,1,-2,-34
15:23:13:913708,4,-6,-17,-12,1,14,3,16
15:23:13:921231,4,-6,-17,-12,1,14,3,16
15:23:13:928702,-7,-3,-1,-7,-27,-11,-10,4
15:23:13:936190,1,2,-11,-6,1,2,-6,10
15:23:13:944406,1,2,-11,-6,1,2,-6,10
15:23:13:945207,1,3,16,22,-19,1,-6,4
15:23:13:959357,-6,-3,-6,-13,-4,-8,-6,-13
15:23:13:960204,-6,-3,-6,-13,-4,-8,-6,-13
15:23:13:966159,10,0,-20,-28,-4,-4,-3,22
15:23:13:973661,-1,0,-9,-13,-10,19,7,1
15:23:13:981272,-1,0,-9,-13,-10,19,7,1
15:23:13:988680,-10,-17,-12,7,-15,-19,-11,3
15:23:13:996206,-7,-8,-3,-5,-25,-11,-3,0
15:23:14:4431,-7,-8,-3,-5,-25,-11,-3,0
15:23:14:5207,-1,-5,-13,-1,7,23,4,5
15:23:14:19172,-1,7,0,4,0,12,1,-7
15:23:14:26976,-1,7,0,4,0,12,1,-7
15:23:14:27731,-3,12,19,28,-30,-37,3,-16
15:23:14:33673,-3,-5,-7,-5,-6,8,4,-18
15:23:14:41256,-3,-5,-7,-5,-6,8,4,-18
15:23:14:48690,4,-4,-12,1,8,14,-4,14
15:23:14:56159,3,12,25,25,12,10,12,20
15:23:14:64370,3,12,25,25,12,10,12,20
15:23:14:65161,-1,-2,-11,-8,11,-20,1,-6
15:23:14:79441,11,-3,0,-5,9,-6,12,32
15:23:14:80215,11,-3,0,-5,9,-6,12,32
15:23:14:86180,-9,-8,1,-11,18,0,2,25
15:23:14:93754,-2,7,9,-3,23,-8,-1,-3
15:23:14:101186,-2,7,9,-3,23,-8,-1,-3
15:23:14:108713,-5,0,4,1,9,14,1,-15
15:23:14:116203,-4,-9,-12,3,-3,-24,-11,20
15:23:14:124384,-4,-9,-12,3,-3,-24,-11,20
15:23:14:125180,-12,-4,-1,-2,6,9,6,-27
15:23:14:139325,-2,-2,0,31,13,-3,-2,-6
15:23:14:140195,-2,-2,0,31,13,-3,-2,-6
15:23:14:146214,-7,-6,-7,-30,-6,11,1,-9
15:23:14:153672,-10,-2,5,-1,-11,-22,0,-11
15:23:14:161244,-10,-2,5,-1,-11,-22,0,-11
15:23:14:168654,3,-10,4,12,-5,-12,-27,5
15:23:14:176180,1,2,26,16,-2,-2,-11,-20
15:23:14:184380,1,2,26,16,-2,-2,-11,-20
15:23:14:185148,7,0,11,15,-44,10,16,15
15:23:14:199407,4,7,5,4,-16,-21,-14,-7
15:23:14:200178,4,7,5,4,-16,-21,-14,-7
15:23:14:206152,2,4,4,12,21,-9,1,-7
15:23:14:213675,4,-3,-6,-1,5,9,-8,7
15:23:14:221249,4,-3,-6,-1,5,9,-8,7
15:23:14:228671,-15,10,1,-10,5,6,3,-8
15:23:14:236168,0,-1,-15,-65,-9,-21,1,2
15:23:14:244407,0,-1,-15,-65,-9,-21,1,2
15:23:14:245201,-2,-2,-2,-18,-19,-21,-7,-53
15:23:14:259352,-8,-14,-27,-10,4,2,-2,13
15:23:14:260195,-8,-14,-27,-10,4,2,-2,13
15:23:14:266147,7,2,-5,-18,19,10,5,22
15:23:14:273667,4,-6,-4,-7,-28,-4,1,2
15:23:14:281275,4,-6,-4,-7,-28,-4,1,2
15:23:14:288683,-8,6,23,37,12,-3,-15,-19
15:23:14:296183,0,-1,-5,-21,-1,18,14,-6
15:23:14:304392,0,-1,-5,-21,-1,18,14,-6
15:23:14:305184,3,3,-2,-50,-24,19,0,-17
15:23:14:319420,-9,14,2,23,16,-6,-12,-35
15:23:14:320190,-9,14,2,23,16,-6,-12,-35
15:23:14:326219,5,-13,-18,20,33,-6,4,14
15:23:14:341927,-4,-2,2,-6,-38,6,-1,3
15:23:14:342703,-4,-2,2,-6,-38,6,-1,3
15:23:14:348650,17,5,-2,-3,4,4,4,25
15:23:14:356148,-6,-1,12,20,18,-17,-5,6
15:23:14:363753,-6,-1,12,20,18,-17,-5,6
15:23:14:371170,-7,-3,-13,-11,-6,-16,-17,-9
15:23:14:379428,-6,5,8,9,-12,17,14,8
15:23:14:380215,-6,5,8,9,-12,17,14,8
15:23:14:386212,9,2,-4,1,7,5,7,21
15:23:14:401933,-12,0,-2,-1,12,17,0,4
15:23:14:402706,-12,0,-2,-1,12,17,0,4
15:23:14:408738,-18,4,14,9,-14,-23,-14,-22
15:23:14:416199,0,-12,11,50,-2,13,22,11
15:23:14:423822,0,-12,11,50,-2,13,22,11
15:23:14:431196,-1,-2,-8,-6,16,8,-1,1
15:23:14:439315,14,10,16,-6,15,2,10,-25
15:23:14:440172,14,10,16,-6,15,2,10,-25
15:23:14:446262,5,-4,2,32,43,13,1,19
15:23:14:461907,11,-6,-6,3,9,11,-1,7
15:23:14:462702,11,-6,-6,3,9,11,-1,7
15:23:14:468681,1,-5,-15,-13,-25,-16,9,12
15:23:14:476205,-2,4,20,14,-4,14,-12,1
15:23:14:483751,-2,4,20,14,-4,14,-12,1
15:23:14:491161,-2,-1,6,-5,5,10,-3,3
15:23:14:499389,2,-7,-12,-21,0,23,5,-5
15:23:14:500184,2,-7,-12,-21,0,23,5,-5
15:23:14:506156,-3,-5,-10,-4,-22,-4,-3,-6
15:23:14:521954,-1,-5,-11,-29,7,-6,-2,-20
15:23:14:522691,-1,-5,-11,-29,7,-6,-2,-20
15:23:14:528699,10,0,-9,-7,-6,4,3,10
15:23:14:536895,-4,8,16,33,5,-2,-4,-5
15:23:14:537704,-4,8,16,33,5,-2,-4,-5
15:23:14:551238,-3,13,44,37,7,-18,4,-20
15:23:14:559401,5,-5,-8,5,-2,13,22,18
15:23:14:560197,5,-5,-8,5,-2,13,22,18
15:23:14:566173,11,-8,12,-3,-6,-36,-1,-9
15:23:14:590077,10,5,0,-25,19,1,22,9
15:23:14:590942,10,5,0,-25,19,1,22,9
15:23:14:591693,9,-3,-27,-33,-10,27,17,8
15:23:14:596901,-18,-6,-17,-2,34,-21,-30,-38
15:23:14:597694,-18,-6,-17,-2,34,-21,-30,-38
15:23:14:611263,-10,-2,-2,-9,7,4,3,21
15:23:14:619402,-1,9,-1,-5,6,42,7,12
15:23:14:620208,-1,9,-1,-5,6,42,7,12
15:23:14:626196,-12,-3,0,9,-29,11,-23,-25
15:23:14:641982,6,-9,-10,-28,-26,-20,-6,12
15:23:14:642710,6,-9,-10,-28,-26,-20,-6,12
15:23:14:648680,-3,8,20,23,-18,20,17,-3
15:23:14:656941,-7,-6,10,65,-4,-10,-19,-17
15:23:14:657697,-7,-6,10,65,-4,-10,-19,-17
15:23:14:671162,-6,3,17,19,-5,-8,-7,-5
15:23:14:679431,5,1,6,-21,0,-20,13,-1
15:23:14:680195,5,1,6,-21,0,-20,13,-1
15:23:14:686154,-8,-8,-8,4,27,36,-5,-43
15:23:14:701929,4,-3,-10,8,-45,-23,0,8
15:23:14:702720,4,-3,-10,8,-45,-23,0,8
15:23:14:708685,7,-1,-7,-9,5,-11,11,47
15:23:14:716228,-2,-5,-12,-1,13,1,-12,0
15:23:14:723747,-2,-5,-12,-1,13,1,-12,0
15:23:14:731208,-1,2,-10,-8,-19,-10,4,21
15:23:14:739376,0,10,1,-4,-17,-18,-8,-11
15:23:14:740201,0,10,1,-4,-17,-18,-8,-11
15:23:14:746215,8,3,-1,-6,0,-24,-12,10
15:23:14:761982,-1,6,51,33,24,-22,-30,-9
15:23:14:762687,-1,6,51,33,24,-22,-30,-9
15:23:14:777589,12,9,14,-6,-13,31,22,14
15:23:14:778338,-1,-11,-27,-32,-21,19,9,18
15:23:14:779205,-1,-11,-27,-32,-21,19,9,18
15:23:14:791204,1,1,9,29,14,3,-13,3
15:23:14:799404,4,1,-4,-14,7,11,22,16
15:23:14:800190,4,1,-4,-14,7,11,22,16
15:23:14:806150,-6,-4,-3,-4,4,-21,-8,-16
15:23:14:821954,-6,-4,-3,-4,4,-21,-8,-16
15:23:14:822689,-7,-8,-16,-16,-7,-4,-1,5
15:23:14:828747,-3,-9,-19,1,-11,4,-8,-4
15:23:14:844457,-3,-9,-19,1,-11,4,-8,-4
15:23:14:845202,9,-10,-12,9,6,-8,-4,-3
15:23:14:851174,-10,3,16,-8,-21,12,7,-4
15:23:14:867577,-10,3,16,-8,-21,12,7,-4
15:23:14:868372,2,-14,-25,7,25,17,5,-31
15:23:14:869171,0,1,-17,-2,-2,-8,-20,-8
15:23:14:881903,0,1,-17,-2,-2,-8,-20,-8
15:23:14:882699,3,7,2,3,-9,-2,-9,-6
15:23:14:888708,1,2,-3,1,0,-24,-12,-24
15:23:14:904442,1,2,-3,1,0,-24,-12,-24
15:23:14:905193,4,4,3,-8,4,-9,-22,-11
15:23:14:911171,-9,-13,-22,-2,8,17,-1,18
15:23:14:919426,-9,-13,-22,-2,8,17,-1,18
15:23:14:920216,-9,-2,-4,1,-20,-40,-28,-16
15:23:14:926194,7,-3,-6,-14,4,-34,-3,14
15:23:14:942006,7,-3,-6,-14,4,-34,-3,14
15:23:14:942719,3,0,6,-14,-50,-19,0,10
15:23:14:948680,10,5,8,-4,3,0,7,4
15:23:14:964431,10,5,8,-4,3,0,7,4
15:23:14:965216,-16,8,18,6,11,13,9,-5
15:23:14:971146,-5,8,24,-9,2,0,-2,6
15:23:14:979399,-5,8,24,-9,2,0,-2,6
15:23:14:980226,-9,1,-10,-40,-7,-14,-15,-8
15:23:14:986170,1,2,2,10,15,-9,12,8
15:23:15:1958,1,2,2,10,15,-9,12,8
15:23:15:2729,-6,-8,-9,-11,-17,-11,-10,-29
15:23:15:8670,2,-1,1,-10,-11,11,15,13
15:23:15:24406,2,-1,1,-10,-11,11,15,13
15:23:15:25208,1,-14,0,8,6,-24,-8,-13
15:23:15:31200,1,-11,-14,-7,11,4,4,-17
15:23:15:39414,1,-11,-14,-7,11,4,4,-17
15:23:15:40211,2,-7,-22,-15,24,31,5,41
15:23:15:46201,-1,4,-1,-18,-15,-4,-12,-9
15:23:15:61988,-1,4,-1,-18,-15,-4,-12,-9
15:23:15:62685,-12,-2,-18,-3,5,0,-2,1
15:23:15:68659,1,2,7,29,-1,12,2,-4
15:23:15:84353,1,2,7,29,-1,12,2,-4
15:23:15:85193,-6,8,9,-3,-16,7,-8,0
15:23:15:91164,5,-5,-7,-3,17,-4,-23,13
15:23:15:99376,5,-5,-7,-3,17,-4,-23,13
15:23:15:100198,1,6,3,2,4,10,8,31
15:23:15:106146,-9,-4,9,7,-23,-8,-17,-20
15:23:15:121954,-9,-4,9,7,-23,-8,-17,-20
15:23:15:122675,-2,-3,-24,-34,9,18,4,3
15:23:15:128687,-1,-5,-11,1,4,-1,-1,16
15:23:15:144439,-1,-5,-11,1,4,-1,-1,16
15:23:15:145232,7,7,25,18,-1,22,20,11
15:23:15:151191,2,14,21,-11,-3,14,21,-11
15:23:15:159370,2,14,21,-11,-3,14,21,-11
15:23:15:160178,-2,-6,-9,5,-38,-20,-16,-30
15:23:15:166146,-13,-9,3,6,3,-35,-2,-11
15:23:15:182597,-13,-9,3,6,3,-35,-2,-11
15:23:15:183405,-8,3,13,21,15,21,12,8
15:23:15:188693,17,-2,-9,-19,-35,1,-5,-12
15:23:15:204422,17,-2,-9,-19,-35,1,-5,-12
15:23:15:205227,5,1,26,33,-2,-20,5,-5
15:23:15:211237,-14,-3,-13,-21,11,-38,-18,-33
15:23:15:219354,-14,-3,-13,-21,11,-38,-18,-33
15:23:15:220143,-1,-14,-13,2,-4,24,15,5
15:23:15:226173,-8,5,14,21,-2,4,4,20
15:23:15:241944,-8,5,14,21,-2,4,4,20
15:23:15:242581,-7,0,-9,-10,14,12,-24,-56
15:23:15:248709,-2,2,3,-14,-2,-7,3,-20
15:23:15:264444,-2,2,3,-14,-2,-7,3,-20
15:23:15:265219,8,-1,13,13,15,-14,15,9
15:23:15:271181,8,-2,-13,-3,35,27,9,12
15:23:15:279443,8,-2,-13,-3,35,27,9,12
15:23:15:280198,-5,6,7,-7,9,-23,-17,3
15:23:15:293729,-5,-7,-7,1,-7,5,33,12
15:23:15:301950,-5,-7,-7,1,-7,5,33,12
15:23:15:302748,-1,-3,6,23,-8,4,-6,-17
15:23:15:308771,-8,4,-8,1,7,21,-2,-11
15:23:15:324460,-8,4,-8,1,7,21,-2,-11
15:23:15:325259,12,3,2,-10,10,-36,-3,0
15:23:15:331190,-2,-7,-11,-6,-10,-3,-4,14
15:23:15:339382,-2,-7,-11,-6,-10,-3,-4,14
15:23:15:340158,-3,-6,-5,-8,3,3,-4,17
15:23:15:353716,-6,-3,2,24,-1,-28,-14,-17
15:23:15:370088,-6,-3,2,24,-1,-28,-14,-17
15:23:15:370930,-2,1,10,12,13,42,9,2
15:23:15:371628,0,3,-3,-10,-11,-7,-7,-16
15:23:15:376279,0,3,-3,-10,-11,-7,-7,-16
15:23:15:383687,1,-7,-16,-14,-6,11,-2,-10
15:23:15:391214,-1,-7,-17,0,7,12,-5,7
15:23:15:399424,-1,-7,-17,0,7,12,-5,7
15:23:15:400225,2,7,26,31,-10,24,24,11
15:23:15:413693,-7,-3,-7,-17,-22,-42,-25,-12
15:23:15:422580,-7,-3,-7,-17,-22,-42,-25,-12
15:23:15:423345,-7,0,-17,-8,-12,-16,6,-4
15:23:15:428672,-7,-6,-3,-9,14,21,-5,-19
15:23:15:436236,-7,-6,-3,-9,14,21,-5,-19
15:23:15:443719,-13,0,-5,-7,-39,-24,-9,10
15:23:15:460090,-6,-18,-29,-5,24,24,4,1
15:23:15:460958,-6,-18,-29,-5,24,24,4,1
15:23:15:461708,10,-2,-6,0,-23,-15,-10,29
15:23:15:473657,6,2,-6,2,-8,15,0,28
15:23:15:481944,6,2,-6,2,-8,15,0,28
15:23:15:482712,-4,-5,-6,14,22,2,-16,-48
15:23:15:488653,3,2,2,23,-19,-17,27,2
15:23:15:496265,3,2,2,23,-19,-17,27,2
15:23:15:503670,6,4,-2,-14,16,9,5,30
15:23:15:511170,-10,0,14,7,4,-6,-3,-5
15:23:15:519396,-10,0,14,7,4,-6,-3,-5
15:23:15:520202,-5,4,7,9,11,-14,-8,-13
15:23:15:533683,-4,-3,6,3,14,-1,-2,4
15:23:15:541956,-4,-3,6,3,14,-1,-2,4
15:23:15:542695,4,-5,-6,-9,10,-12,-7,-3
15:23:15:548681,-1,-3,14,6,0,25,15,15
15:23:15:556234,-1,-3,14,6,0,25,15,15
15:23:15:563725,-3,3,-10,-28,12,3,6,9
15:23:15:571203,-1,-8,-1,31,10,4,-26,5
15:23:15:579484,-1,-8,-1,31,10,4,-26,5
15:23:15:580194,2,6,2,21,1,2,-10,-9
15:23:15:593711,9,6,-6,-15,15,4,0,-5
15:23:15:601904,9,6,-6,-15,15,4,0,-5
15:23:15:602696,-7,-3,-5,-36,-35,-28,19,-3
15:23:15:608726,2,-1,1,12,-6,-5,9,1
15:23:15:616212,2,-1,1,12,-6,-5,9,1
15:23:15:623711,-9,-9,-1,-3,5,22,7,-7
15:23:15:631232,-9,9,4,2,-32,0,7,10
15:23:15:639387,-9,9,4,2,-32,0,7,10
15:23:15:640183,-2,-12,10,35,13,-12,4,15
15:23:15:653679,-20,5,8,0,-6,-6,0,-49
15:23:15:661977,-20,5,8,0,-6,-6,0,-49
15:23:15:662717,6,-2,9,20,7,9,-2,-1
15:23:15:668664,9,5,22,-5,-4,-2,-5,12
15:23:15:676249,9,5,22,-5,-4,-2,-5,12
15:23:15:683633,-5,-5,-23,-44,-38,-2,14,1
15:23:15:691172,-1,-6,-22,-4,12,-4,-4,-6
15:23:15:699400,-1,-6,-22,-4,12,-4,-4,-6
15:23:15:700178,5,-5,-11,7,13,20,-2,-10
15:23:15:713707,7,9,27,2,-48,-39,-7,2
15:23:15:721911,7,9,27,2,-48,-39,-7,2
15:23:15:722654,6,-1,-19,-36,-25,-8,-21,12
15:23:15:728704,-4,-1,-10,-5,7,-5,-1,-6
15:23:15:736200,-4,-1,-10,-5,7,-5,-1,-6
15:23:15:743716,-1,1,9,9,7,-22,-9,-22
15:23:15:751118,-5,-3,-5,-13,20,5,-8,-15
15:23:15:759444,-5,-3,-5,-13,20,5,-8,-15
15:23:15:760197,-4,-1,1,8,-1,16,11,17
15:23:15:773644,10,0,-6,2,31,-2,-8,3
15:23:15:781980,10,0,-6,2,31,-2,-8,3
15:23:15:782711,-2,1,13,29,5,10,25,6
15:23:15:788654,1,2,-1,-31,-10,0,-1,7
15:23:15:796276,1,2,-1,-31,-10,0,-1,7
15:23:15:803647,-6,5,-4,-6,38,-7,-12,18
15:23:15:811231,-4,-4,-24,-29,-22,15,4,-5
15:23:15:819419,-4,-4,-24,-29,-22,15,4,-5
15:23:15:820236,-12,-2,6,-3,-8,-4,-11,-49
15:23:15:833688,-1,-9,-2,24,0,0,-11,10
15:23:15:841905,-1,-9,-2,24,0,0,-11,10
15:23:15:842667,1,1,9,25,-8,-12,-3,-6
15:23:15:848668,-3,0,2,-11,-22,12,17,-12
15:23:15:856229,-3,0,2,-11,-22,12,17,-12
15:23:15:863688,9,-1,-6,16,30,37,-1,4
15:23:15:871201,26,-2,-2,-9,16,2,7,18
15:23:15:879454,26,-2,-2,-9,16,2,7,18
15:23:15:880133,-5,-5,-11,-24,-19,-20,-24,2
15:23:15:893766,2,6,9,30,-14,5,-5,-3
15:23:15:901854,2,6,9,30,-14,5,-5,-3
15:23:15:902636,1,-3,8,-4,-13,-1,-3,-2
15:23:15:908685,-10,-12,-2,3,-10,-24,-17,-23
15:23:15:916184,-10,-12,-2,3,-10,-24,-17,-23
15:23:15:923738,2,12,5,-6,-3,10,15,26
15:23:15:931191,-8,-4,-10,-21,-4,-1,6,-7
15:23:15:939361,-8,-4,-10,-21,-4,-1,6,-7
15:23:15:940147,7,-6,-10,-8,26,14,17,15
15:23:15:953714,-10,8,20,-2,19,16,1,-31
15:23:15:962045,-10,8,20,-2,19,16,1,-31
15:23:15:962626,21,9,25,18,-6,1,-7,8
15:23:15:968668,-5,-6,-5,1,5,3,-4,-2
15:23:15:976256,-5,-6,-5,1,5,3,-4,-2
15:23:15:983628,8,7,9,15,-8,-12,-4,0
15:23:15:991203,11,-6,-24,-22,-3,19,13,37
15:23:15:999424,11,-6,-24,-22,-3,19,13,37
15:23:16:233,9,3,-16,25,10,-15,2,26
15:23:16:13699,-19,5,14,18,-40,-27,-13,-19
15:23:16:22032,-19,5,14,18,-40,-27,-13,-19
15:23:16:22670,-18,-16,-14,-24,-11,-10,-8,-25
15:23:16:28684,10,3,0,2,17,24,14,-4
15:23:16:36183,10,3,0,2,17,24,14,-4
15:23:16:43728,-8,-1,-5,-20,-11,-31,-9,-19
15:23:16:51143,-15,-2,4,13,5,-32,-13,2
15:23:16:59464,-15,-2,4,13,5,-32,-13,2
15:23:16:60226,-7,4,3,-17,23,27,9,-1
15:23:16:73774,12,-2,15,17,-9,-10,5,28
15:23:16:82006,12,-2,15,17,-9,-10,5,28
15:23:16:82731,-9,-5,-8,-24,-7,-2,-1,-1
15:23:16:88650,-2,-7,-8,-38,-16,16,-7,1
15:23:16:96249,-2,-7,-8,-38,-16,16,-7,1
15:23:16:103714,7,0,6,11,16,15,15,7
15:23:16:111252,1,1,3,0,35,36,12,-3
15:23:16:119444,1,1,3,0,35,36,12,-3
15:23:16:120187,-7,1,-14,-32,-24,-11,-8,-11
15:23:16:133731,1,-4,-33,-18,-15,-18,2,3
15:23:16:142005,1,-4,-33,-18,-15,-18,2,3
15:23:16:142696,-5,-4,6,9,-2,0,-23,-6
15:23:16:148721,-1,-2,16,23,23,1,6,10
15:23:16:156180,-1,-2,16,23,23,1,6,10
15:23:16:163690,-16,-5,-1,12,-1,0,-6,-42
15:23:16:171200,-4,1,2,-5,-2,-10,-5,-13
15:23:16:179433,-4,1,2,-5,-2,-10,-5,-13
15:23:16:180169,-6,-13,-18,-4,2,14,5,-1
15:23:16:193704,0,11,18,7,8,18,5,-35
15:23:16:201852,0,11,18,7,8,18,5,-35
15:23:16:202719,11,4,5,3,-4,4,3,14
15:23:16:216952,0,-5,-9,1,-5,-18,-8,25
15:23:16:217660,0,-5,-9,1,-5,-18,-8,25
15:23:16:223667,-3,-4,-9,-20,-15,-2,-14,-19
15:23:16:231178,-5,4,-10,-28,-12,-7,-17,-27
15:23:16:238708,-5,4,-10,-28,-12,-7,-17,-27
15:23:16:246197,-1,-6,-9,-11,-40,-39,-13,8
15:23:16:253728,8,8,6,14,13,25,19,25
15:23:16:261966,8,8,6,14,13,25,19,25
15:23:16:262609,-6,-10,-16,-13,35,8,-9,6
15:23:16:276986,2,0,7,3,14,-15,-24,5
15:23:16:277694,2,0,7,3,14,-15,-24,5
15:23:16:283733,5,4,9,2,-14,-6,-2,15
15:23:16:291258,-5,5,9,19,-4,1,6,4
15:23:16:298701,-5,5,9,19,-4,1,6,4
15:23:16:306193,7,3,-1,-5,-6,-1,6,18
15:23:16:313748,9,-4,-3,8,-11,-33,-16,-5
15:23:16:321962,9,-4,-3,8,-11,-33,-16,-5
15:23:16:322656,3,9,-3,-2,-8,16,9,-32
15:23:16:336905,-1,-12,-12,-6,-13,7,16,12
15:23:16:337667,-1,-12,-12,-6,-13,7,16,12
15:23:16:343724,-1,-5,2,-2,0,-34,2,16
15:23:16:351127,-1,-3,-4,1,6,-15,-12,-13
15:23:16:358742,-1,-3,-4,1,6,-15,-12,-13
15:23:16:366181,-2,7,25,4,3,16,6,1
15:23:16:373641,0,-4,1,-3,1,2,-9,-1
15:23:16:381940,0,-4,1,-3,1,2,-9,-1
15:23:16:382702,-5,8,42,43,20,14,-1,11
15:23:16:396939,6,-1,-14,4,16,12,-4,25
15:23:16:397696,6,-1,-14,4,16,12,-4,25
15:23:16:403654,-3,-2,-11,12,23,10,4,11
15:23:16:411187,-11,1,-6,-24,-26,-18,-20,-4
15:23:16:418733,-11,1,-6,-24,-26,-18,-20,-4
15:23:16:426161,4,-3,-5,-6,1,14,5,27
15:23:16:433684,-15,-11,-6,2,15,-8,4,-18
15:23:16:441926,-15,-11,-6,2,15,-8,4,-18
15:23:16:442692,2,-1,-13,-6,3,6,1,-6
15:23:16:456967,-15,2,-11,-3,-15,2,20,-4
15:23:16:457756,-15,2,-11,-3,-15,2,20,-4
15:23:16:463704,-5,-3,-9,-5,8,11,-2,-22
15:23:16:471161,-11,-5,10,4,-6,12,-12,-37
15:23:16:478823,-11,-5,10,4,-6,12,-12,-37
15:23:16:486156,-7,9,28,15,-24,-8,6,-10
15:23:16:493686,11,1,-11,-27,31,5,13,20
15:23:16:501867,11,1,-11,-27,31,5,13,20
15:23:16:502624,-11,-11,-6,14,-30,-21,-15,-25
15:23:16:516928,9,7,22,4,12,13,3,9
15:23:16:517698,9,7,22,4,12,13,3,9
15:23:16:523676,6,4,-1,24,21,8,10,7
15:23:16:531185,2,-2,6,-2,-30,4,-6,-5
15:23:16:538705,2,-2,6,-2,-30,4,-6,-5
15:23:16:546237,0,1,-13,-19,-13,-10,18,-9
15:23:16:553662,1,9,24,33,13,-11,-5,-14
15:23:16:569416,1,9,24,33,13,-11,-5,-14
15:23:16:570206,-5,-6,-1,-15,18,-4,-5,24
15:23:16:576846,2,-5,-18,-13,-2,-10,5,-4
15:23:16:577682,2,-5,-18,-13,-2,-10,5,-4
15:23:16:583724,-5,-6,-6,-11,-25,-24,-12,-12
15:23:16:591213,6,-3,0,-17,-38,-28,-6,1
15:23:16:598717,6,-3,0,-17,-38,-28,-6,1
15:23:16:606164,5,5,-4,-3,18,8,-12,-13
15:23:16:613740,0,-2,-7,-10,12,-8,1,8
15:23:16:621962,0,-2,-7,-10,12,-8,1,8
15:23:16:622677,1,-5,-3,12,-8,-13,-7,0
15:23:16:637348,-5,-1,1,20,12,21,10,-4
15:23:16:638142,-5,-1,1,20,12,21,10,-4
15:23:16:643660,3,0,-4,-11,-3,-16,-6,24
15:23:16:651222,-14,-8,-14,8,21,-11,-17,-11
15:23:16:666897,-14,-8,-14,8,21,-11,-17,-11
15:23:16:667682,-20,-9,-5,-3,-6,11,0,-58
15:23:16:673737,-1,4,-2,-3,-7,12,5,18
15:23:16:682004,-1,4,-2,-3,-7,12,5,18
15:23:16:682589,-2,-2,-8,-9,12,1,-15,11
15:23:16:696919,-2,-15,-25,-47,-31,7,-11,-25
15:23:16:697675,-2,-15,-25,-47,-31,7,-11,-25
15:23:16:703731,4,8,18,-11,-18,-8,-6,-3
15:23:16:711242,8,17,37,31,1,8,9,22
15:23:16:718723,8,17,37,31,1,8,9,22
15:23:16:726178,-3,-10,-10,-37,-25,-8,-6,-23
15:23:16:733688,-1,-5,-19,-15,-3,-22,7,-8
15:23:16:741966,-1,-5,-19,-15,-3,-22,7,-8
15:23:16:742695,4,1,6,10,-3,-24,9,30
15:23:16:757342,-18,-3,-4,0,7,-3,-7,6
15:23:16:758170,-18,-3,-4,0,7,-3,-7,6
15:23:16:763674,-2,-9,-5,10,9,9,5,7
15:23:16:771179,4,1,-2,11,-18,2,1,4
15:23:16:778789,4,1,-2,11,-18,2,1,4
15:23:16:786159,-6,-4,-11,9,19,-6,9,-14
15:23:16:793659,-4,0,9,-6,30,3,-18,0
15:23:16:801953,-4,0,9,-6,30,3,-18,0
15:23:16:802694,-5,-3,-13,-6,23,32,4,12
15:23:16:817281,3,-10,-12,-1,-6,4,17,20
15:23:16:824446,3,-10,-12,-1,-6,4,17,20
15:23:16:825162,23,5,13,5,14,13,-6,-26
15:23:16:831179,13,8,-7,-5,0,3,6,-12
15:23:16:838732,13,8,-7,-5,0,3,6,-12
15:23:16:854310,2,5,7,-8,-22,-14,2,19
15:23:16:855115,-18,-7,1,18,-5,8,-3,-18
15:23:16:861974,-18,-7,1,18,-5,8,-3,-18
15:23:16:862689,-5,-6,-3,3,-15,-10,-16,5
15:23:16:876859,-6,-7,-2,-26,-18,-20,-28,-21
15:23:16:877694,-6,-7,-2,-26,-18,-20,-28,-21
15:23:16:883659,-7,7,18,-4,9,23,16,10
15:23:16:891205,0,2,-2,-4,-25,0,4,-4
15:23:16:898735,0,2,-2,-4,-25,0,4,-4
15:23:16:906139,10,1,8,-5,-26,-19,10,25
15:23:16:913674,4,3,13,29,26,35,16,0
15:23:16:921958,4,3,13,29,26,35,16,0
15:23:16:922730,-21,-10,-24,-18,-7,-22,-6,-25
15:23:16:936906,-4,0,6,2,1,-12,-6,5
15:23:16:937697,-4,0,6,2,1,-12,-6,5
15:23:16:943733,-12,0,-2,14,20,20,3,2
15:23:16:951146,0,-5,-13,-11,13,1,-7,14
15:23:16:958817,0,-5,-13,-11,13,1,-7,14
15:23:16:966222,6,-10,-2,1,-20,-6,-7,19
15:23:16:973710,-14,0,-9,-8,7,-8,-2,8
15:23:16:981870,-14,0,-9,-8,7,-8,-2,8
15:23:16:982641,-7,-10,-1,18,15,4,0,-4
15:23:16:996941,10,-3,-2,5,-7,-7,-7,1
15:23:16:997720,10,-3,-2,5,-7,-7,-7,1
15:23:17:3681,8,7,-4,-4,-5,-23,-17,-4
15:23:17:11213,3,-1,-6,-12,-11,2,0,-9
15:23:17:18681,3,-1,-6,-12,-11,2,0,-9
15:23:17:26189,1,8,4,3,-6,17,0,8
15:23:17:33680,1,-3,1,4,-33,-13,9,1
15:23:17:41875,1,-3,1,4,-33,-13,9,1
15:23:17:42683,6,9,13,18,17,14,13,12
15:23:17:56852,-8,-1,2,-23,16,-37,4,-5
15:23:17:57674,-8,-1,2,-23,16,-37,4,-5
