Time,EMG1,EMG2,EMG3,EMG4,EMG5,EMG6,EMG7,EMG8
18:14:38:117060,-1,0,3,-3,-3,0,-1,3
18:14:38:117860,3,-1,-3,0,1,2,3,-1
18:14:38:131320,1,0,2,-2,0,-1,1,-2
18:14:38:140212,1,0,2,-2,0,-1,1,-2
18:14:38:140983,-2,1,-2,1,0,-3,2,0
18:14:38:146313,-3,-4,-3,4,-1,0,-1,-1
18:14:38:153912,-3,-4,-3,4,-1,0,-1,-1
18:14:38:161319,-5,-3,1,-3,-2,-3,-5,-3
18:14:38:168811,0,0,2,-2,-3,-2,-1,4
18:14:38:177074,0,0,2,-2,-3,-2,-1,4
18:14:38:177843,0,-3,0,-1,-2,0,-1,0
18:14:38:191335,-1,-6,-1,2,1,2,2,-5
18:14:38:199530,-1,-6,-1,2,1,2,2,-5
18:14:38:200382,-3,3,0,-4,-2,-4,-3,-3
18:14:38:206319,-1,1,1,-4,-1,1,-3,2
18:14:38:213906,-1,1,1,-4,-1,1,-3,2
18:14:38:221345,-4,-4,0,1,-2,2,-1,-4
18:14:38:228858,-2,-3,-7,1,-1,-1,2,-2
18:14:38:237034,-2,-3,-7,1,-1,-1,2,-2
18:14:38:237798,3,0,1,1,2,-3,-2,1
18:14:38:251411,1,2,2,-5,0,-3,-2,1
18:14:38:259532,1,2,2,-5,0,-3,-2,1
18:14:38:260285,-1,-6,-2,-3,0,-2,-1,-1
18:14:38:266324,0,-1,-5,5,-4,2,-4,-1
18:14:38:282076,0,-1,-5,5,-4,2,-4,-1
18:14:38:282841,-2,-1,-2,4,-5,0,0,2
18:14:38:288831,-1,-1,3,-4,-1,-6,3,-4
18:14:38:297020,-1,-1,3,-4,-1,-6,3,-4
18:14:38:297874,1,2,-4,-3,-5,-2,-2,-3
18:14:38:311323,-3,-4,-2,0,0,5,1,0
18:14:38:319611,-3,-4,-2,0,0,5,1,0
18:14:38:320352,2,-2,0,-5,3,-2,-1,2
18:14:38:326330,-1,2,3,-2,-2,-1,-5,-3
18:14:38:333873,-1,2,3,-2,-2,-1,-5,-3
18:14:38:341353,0,1,2,1,1,-4,0,-3
18:14:38:348955,3,-3,-4,-1,0,-5,-2,1
18:14:38:357065,3,-3,-4,-1,0,-5,-2,1
18:14:38:357845,-2,-1,-1,0,-1,2,-1,-1
18:14:38:371338,-4,-4,-2,-6,-3,-2,-2,-3
18:14:38:379538,-4,-4,-2,-6,-3,-2,-2,-3
18:14:38:380281,-2,1,1,-1,-4,1,0,-1
18:14:38:386385,0,2,-6,3,2,-2,-1,3
18:14:38:393875,0,2,-6,3,2,-2,-1,3
18:14:38:401359,2,-2,-2,0,2,-2,-1,-1
18:14:38:408838,2,-1,0,-3,-4,2,2,-5
18:14:38:417067,2,-1,0,-3,-4,2,2,-5
18:14:38:417853,-3,0,-1,-3,2,0,0,-2
18:14:38:431354,-3,0,2,0,-3,-2,-6,2
18:14:38:439538,-3,0,2,0,-3,-2,-6,2
18:14:38:440327,-1,0,2,-1,-4,2,1,-3
18:14:38:446292,-5,0,-2,-1,-1,1,1,-1
18:14:38:453958,-5,0,-2,-1,-1,1,1,-1
18:14:38:461291,-3,-3,-2,1,1,-2,-1,-1
18:14:38:468777,4,-3,-4,-1,0,-4,0,-1
18:14:38:477062,4,-3,-4,-1,0,-4,0,-1
18:14:38:477826,2,-3,-6,0,-1,-4,-5,3
18:14:38:491317,-5,1,2,0,0,-1,-4,-8
18:14:38:499400,-5,1,2,0,0,-1,-4,-8
18:14:38:506968,-3,-3,-1,-2,1,0,1,0
18:14:38:507789,2,3,6,-5,-1,2,2,5
18:14:38:513861,2,3,6,-5,-1,2,2,5
18:14:38:521423,-2,0,-1,-2,-2,1,-3,-4
18:14:38:528829,-1,-1,-3,1,-3,-5,-2,-2
18:14:38:537063,-1,-1,-3,1,-3,-5,-2,-2
18:14:38:537856,0,4,0,0,-4,-2,0,-3
18:14:38:551349,-2,-3,3,2,0,0,2,0
18:14:38:559547,-2,-3,3,2,0,0,2,0
18:14:38:560323,-1,-5,-6,-5,-1,-5,-2,0
18:14:38:574606,-1,1,-8,-2,-4,0,-3,-2
18:14:38:575331,-1,1,-8,-2,-4,0,-3,-2
18:14:38:581324,1,3,-2,-1,3,0,-2,-1
18:14:38:588792,0,-3,-2,-3,1,0,-1,-2
18:14:38:596382,0,-3,-2,-3,1,0,-1,-2
18:14:38:603854,-2,1,4,3,-3,-5,-2,-2
18:14:38:611325,-5,3,-4,-1,1,-1,2,1
18:14:38:619687,-5,3,-4,-1,1,-1,2,1
18:14:38:620373,1,-5,-2,-2,-2,4,-1,1
18:14:38:634565,-1,-1,6,-1,0,2,-2,1
18:14:38:635328,-1,-1,6,-1,0,2,-2,1
18:14:38:641328,-4,-2,-3,-4,-8,-2,0,-6
18:14:38:648967,2,-3,-2,-1,-3,-4,-4,-1
18:14:38:656472,2,-3,-2,-1,-3,-4,-4,-1
18:14:38:663873,-1,-4,2,-2,5,-5,-1,-3
18:14:38:671319,-2,-2,-3,0,-1,-1,2,-2
18:14:38:679500,-2,-2,-3,0,-1,-1,2,-2
18:14:38:680338,-5,4,-4,1,0,3,-2,1
18:14:38:702765,-1,-1,0,-1,-3,-1,1,-2
18:14:38:703559,-1,-1,0,-1,-3,-1,1,-2
18:14:38:704368,1,-1,1,3,-1,0,-2,2
18:14:38:708765,-1,-2,-5,-2,0,-1,-6,2
18:14:38:724672,-1,-2,-5,-2,0,-1,-6,2
18:14:38:725351,-2,1,5,-1,1,-2,1,0
18:14:38:731294,-2,-1,3,-1,-1,-4,0,-3
18:14:38:739507,-2,-1,3,-1,-1,-4,0,-3
18:14:38:740319,-2,-3,-8,1,0,0,1,-1
18:14:38:754537,-2,1,0,-2,-2,-2,-4,2
18:14:38:755331,-2,1,0,-2,-2,-2,-4,2
18:14:38:761316,2,-5,2,-2,-2,-1,-3,-1
18:14:38:768796,0,-5,2,0,0,4,-2,-7
18:14:38:776385,0,-5,2,0,0,4,-2,-7
18:14:38:783850,-2,-1,3,4,1,1,3,-3
18:14:38:791312,-1,-2,11,0,1,-2,-1,1
18:14:38:799642,-1,-2,11,0,1,-2,-1,1
18:14:38:800351,-1,-2,-1,-5,-5,-1,-1,-3
18:14:38:814521,-1,2,-11,0,2,-2,-3,-3
18:14:38:815343,-1,2,-11,0,2,-2,-3,-3
18:14:38:821390,-2,9,-8,-1,-1,0,-1,3
18:14:38:828862,-2,-2,-5,-9,-1,2,0,1
18:14:38:836425,-2,-2,-5,-9,-1,2,0,1
18:14:38:843814,2,-6,-2,2,-5,-6,0,-1
18:14:38:851424,1,2,-1,2,1,-3,-2,-3
18:14:38:859529,1,2,-1,2,1,-3,-2,-3
18:14:38:860331,-4,0,1,1,5,4,-2,-3
18:14:38:874323,1,4,3,0,1,-1,3,-2
18:14:38:882103,1,4,3,0,1,-1,3,-2
18:14:38:882861,-2,-4,-2,-5,-4,-1,-3,2
18:14:38:888833,-1,-7,-1,3,-2,-3,0,-2
18:14:38:896340,-1,-7,-1,3,-2,-3,0,-2
18:14:38:903895,-2,-3,-2,-5,-6,-5,1,1
18:14:38:911322,0,-1,-4,1,-4,-2,-2,1
18:14:38:919479,0,-1,-4,1,-4,-2,-2,1
18:14:38:935181,0,-3,6,-1,1,5,-1,-3
18:14:38:935973,-3,-2,-3,-1,-1,-2,-1,-2
18:14:38:936810,-3,-2,-3,-1,-1,-2,-1,-2
18:14:38:941339,-2,2,-2,0,1,1,-3,-3
18:14:38:948978,0,-2,1,3,-1,0,-1,-3
18:14:38:956428,0,-2,1,3,-1,0,-1,-3
18:14:38:963850,1,2,-2,1,-3,-2,-3,-2
18:14:38:971399,-3,-2,-4,-7,-6,1,-1,1
18:14:38:979546,-3,-2,-4,-7,-6,1,-1,1
18:14:38:980338,-3,-4,0,-4,5,-1,3,2
18:14:39:2743,-2,0,-5,6,2,-3,1,-2
18:14:39:3497,-2,0,-5,6,2,-3,1,-2
18:14:39:4284,2,1,2,-3,-1,-5,-2,0
18:14:39:8800,-1,0,-1,-3,-6,-1,0,-3
18:14:39:16365,-1,0,-1,-3,-6,-1,0,-3
18:14:39:23951,-3,-1,-2,3,0,-2,-2,-2
18:14:39:31391,3,-3,7,-4,-1,0,-6,3
18:14:39:39538,3,-3,7,-4,-1,0,-6,3
18:14:39:40341,2,-2,0,0,2,1,-1,-3
18:14:39:54547,-4,1,-9,2,2,0,0,-4
18:14:39:55308,-4,1,-9,2,2,0,0,-4
18:14:39:61260,-3,-2,-4,-4,-1,-5,-3,1
18:14:39:68864,1,-4,5,-4,-1,0,1,4
18:14:39:76437,1,-4,5,-4,-1,0,1,4
18:14:39:83821,0,3,2,1,-5,-1,1,-6
18:14:39:91305,-3,-1,-6,4,1,1,-2,-2
18:14:39:99570,-3,-1,-6,4,1,1,-2,-2
18:14:39:100351,0,-4,-5,-10,-4,2,0,1
18:14:39:114506,0,1,-2,-3,-2,-3,6,0
18:14:39:115311,0,1,-2,-3,-2,-3,6,0
18:14:39:121311,-1,-1,-1,3,3,-2,-2,-3
18:14:39:128818,2,-3,-4,-3,-3,-3,-5,3
18:14:39:136410,2,-3,-4,-3,-3,-3,-5,3
18:14:39:143791,-2,-1,1,1,-3,-3,-4,-1
18:14:39:151382,-3,0,9,-6,-13,-5,-4,-6
18:14:39:159554,-3,0,9,-6,-13,-5,-4,-6
18:14:39:160299,1,2,9,-3,-13,2,0,-3
18:14:39:174638,-4,-4,-18,-12,-18,-5,-2,1
18:14:39:175392,-4,-4,-18,-12,-18,-5,-2,1
18:14:39:181341,2,-1,0,12,8,-1,0,1
18:14:39:188839,2,2,6,-7,31,9,3,2
18:14:39:196418,2,2,6,-7,31,9,3,2
18:14:39:203936,-5,-3,-4,-7,-6,-6,1,2
18:14:39:211346,4,-2,1,2,-5,3,-1,-3
18:14:39:219714,4,-2,1,2,-5,3,-1,-3
18:14:39:220351,2,1,-10,6,8,8,3,1
18:14:39:234563,-4,-1,-11,25,-3,-4,-2,-1
18:14:39:235365,-4,-1,-11,25,-3,-4,-2,-1
18:14:39:241336,-1,1,1,-12,-22,-10,-4,-5
18:14:39:248878,1,2,8,-9,11,-4,-4,1
18:14:39:256460,1,2,8,-9,11,-4,-4,1
18:14:39:263851,-1,-2,3,-26,0,1,1,-2
18:14:39:280248,3,16,11,-17,-4,1,2,-1
18:14:39:281057,3,16,11,-17,-4,1,2,-1
18:14:39:281863,1,1,-4,-25,-2,-1,4,1
18:14:39:302772,-10,-22,-16,-1,-2,-3,-5,-6
18:14:39:303472,-10,-22,-16,-1,-2,-3,-5,-6
18:14:39:304307,-6,-20,-26,10,-2,-1,-3,-3
18:14:39:308807,2,-10,-7,3,-6,-7,-1,3
18:14:39:316381,2,-10,-7,3,-6,-7,-1,3
18:14:39:323942,2,-4,-5,7,1,-4,-3,1
18:14:39:331333,-1,4,13,-5,0,4,0,-3
18:14:39:339574,-1,4,13,-5,0,4,0,-3
18:14:39:340389,1,8,7,4,-2,-2,-1,-2
18:14:39:354594,1,8,5,5,-4,0,1,0
18:14:39:355362,1,8,5,5,-4,0,1,0
18:14:39:361298,-2,2,4,-4,5,3,1,-1
18:14:39:368805,-4,-1,-6,5,0,0,4,0
18:14:39:376385,-4,-1,-6,5,0,0,4,0
18:14:39:383851,0,-2,-3,4,2,-2,-2,2
18:14:39:391340,-1,1,4,17,9,-4,-3,3
18:14:39:399710,-1,1,4,17,9,-4,-3,3
18:14:39:400355,4,5,10,19,24,18,14,10
18:14:39:414572,-2,-3,-5,15,7,5,4,-1
18:14:39:415342,-2,-3,-5,15,7,5,4,-1
18:14:39:421307,-1,4,52,28,-1,-7,-3,-3
18:14:39:428802,-2,-3,-13,-12,-6,1,-1,-5
18:14:39:444558,-2,-3,-13,-12,-6,1,-1,-5
18:14:39:445300,0,1,18,5,-3,0,-9,-3
18:14:39:451392,-4,-8,-23,-13,-17,-3,-6,-8
18:14:39:459581,-4,-8,-23,-13,-17,-3,-6,-8
18:14:39:460359,-1,-2,-22,6,-6,-7,-5,-1
18:14:39:474318,-3,-2,16,3,4,-3,-5,2
18:14:39:482008,-3,-2,16,3,4,-3,-5,2
18:14:39:482791,1,2,-29,-16,-3,0,-2,0
18:14:39:488789,2,-2,-7,5,2,-2,-4,-1
18:14:39:496396,2,-2,-7,5,2,-2,-4,-1
18:14:39:503867,-2,-7,-2,-20,1,-5,-3,-5
18:14:39:511333,0,-4,10,6,-1,-1,2,0
18:14:39:519582,0,-4,10,6,-1,-1,2,0
18:14:39:520377,-3,-3,-38,-17,-11,1,1,-3
18:14:39:534564,2,10,21,30,3,-2,-2,3
18:14:39:535379,2,10,21,30,3,-2,-2,3
18:14:39:541253,-3,4,14,17,8,-2,-3,-1
18:14:39:557041,-1,-5,-17,-22,-7,-4,-2,2
18:14:39:557869,-1,-5,-17,-22,-7,-4,-2,2
18:14:39:563830,0,-8,-1,-4,3,2,1,-2
18:14:39:571360,4,-7,-3,-3,1,5,4,-2
18:14:39:578916,4,-7,-3,-3,1,5,4,-2
18:14:39:586347,-1,6,12,3,-4,1,-1,-2
18:14:39:594559,-2,5,1,-16,3,-8,1,1
18:14:39:595360,-2,5,1,-16,3,-8,1,1
18:14:39:601387,-3,0,2,-18,-8,-4,-2,-4
18:14:39:625292,-2,-2,3,-5,0,-4,-2,3
18:14:39:625994,-2,-2,3,-5,0,-4,-2,3
18:14:39:626766,-3,-2,-9,-23,-3,-3,-3,0
18:14:39:631308,1,0,2,14,8,5,3,-2
18:14:39:638865,1,0,2,14,8,5,3,-2
18:14:39:646287,2,-8,-6,3,1,0,-4,-5
18:14:39:654570,-5,0,-18,-14,-2,-6,-7,-2
18:14:39:655360,-5,0,-18,-14,-2,-6,-7,-2
18:14:39:661379,-4,4,9,16,2,2,4,2
18:14:39:677033,1,3,-9,-11,-3,2,1,-7
18:14:39:677808,1,3,-9,-11,-3,2,1,-7
18:14:39:683822,-1,-9,-26,17,-1,-5,0,0
18:14:39:691291,0,-4,1,5,-7,1,3,3
18:14:39:698977,0,-4,1,5,-7,1,3,3
18:14:39:706392,-2,2,16,17,-2,-2,-2,1
18:14:39:714505,0,-1,-3,-15,-4,-6,-2,-5
18:14:39:715304,0,-1,-3,-15,-4,-6,-2,-5
18:14:39:721426,1,1,9,-3,2,3,2,2
18:14:39:737098,-3,-2,6,-4,-2,-1,-4,-3
18:14:39:737858,-3,-2,6,-4,-2,-1,-4,-3
18:14:39:743837,-2,-3,15,-4,0,3,-3,0
18:14:39:751465,-3,-2,1,8,-3,-10,17,-5
18:14:39:758818,-3,-2,1,8,-3,-10,17,-5
18:14:39:766404,6,5,-5,-1,7,5,4,-1
18:14:39:774583,-5,-4,-5,7,11,7,-6,-2
18:14:39:775306,-5,-4,-5,7,11,7,-6,-2
18:14:39:781376,-2,-2,-5,7,-11,-5,0,-7
18:14:39:805050,3,5,12,6,-12,-4,-3,4
18:14:39:812753,3,5,12,6,-12,-4,-3,4
18:14:39:813512,-2,-1,1,-2,2,0,-10,2
18:14:39:814306,-3,-2,1,-25,-2,0,-4,-3
18:14:39:818876,-3,-2,1,-25,-2,0,-4,-3
18:14:39:826360,-4,-3,-7,-14,-4,-8,-6,-3
18:14:39:834491,4,-3,-2,5,2,0,-16,0
18:14:39:835308,4,-3,-2,5,2,0,-16,0
18:14:39:841332,-4,-3,-14,-20,-7,-29,-46,-4
18:14:39:857112,9,3,0,7,8,33,48,7
18:14:39:857845,9,3,0,7,8,33,48,7
18:14:39:863887,-1,1,-1,1,1,10,15,-2
18:14:39:871465,-8,8,11,3,0,-11,-19,-6
18:14:39:878864,-8,8,11,3,0,-11,-19,-6
18:14:39:886380,1,1,13,4,-5,-5,6,2
18:14:39:894519,2,-2,0,-10,-9,-6,0,-2
18:14:39:895312,2,-2,0,-10,-9,-6,0,-2
18:14:39:901400,-2,-1,-5,1,0,1,-3,1
18:14:39:917005,-2,-2,-9,-34,-6,-2,-8,-2
18:14:39:917798,-2,-2,-9,-34,-6,-2,-8,-2
18:14:39:923956,-5,-6,-8,-6,3,3,-2,-5
18:14:39:931337,1,-1,5,-5,-2,0,5,-1
18:14:39:938901,1,-1,5,-5,-2,0,5,-1
18:14:39:946300,-3,-6,-2,1,-13,-16,-13,-1
18:14:39:954628,-2,-4,-6,11,7,20,25,5
18:14:39:955487,-2,-4,-6,11,7,20,25,5
18:14:39:961320,2,-3,-2,-4,1,2,10,0
18:14:39:977053,2,-3,-2,-4,1,2,10,0
18:14:39:977806,-2,-1,4,2,-2,-15,-13,-5
18:14:39:983813,0,6,-9,3,3,2,-2,-1
18:14:39:999522,0,6,-9,3,3,2,-2,-1
18:14:40:377,4,-1,-5,-1,-3,-3,-5,3
18:14:40:6397,-3,-6,-1,-4,-3,-5,-1,-8
18:14:40:14554,-3,-6,-1,-4,-3,-5,-1,-8
18:14:40:15313,-7,-7,1,6,2,1,0,-1
18:14:40:21334,-2,-1,-2,-6,-5,-2,0,-4
18:14:40:37005,-2,-1,-2,-6,-5,-2,0,-4
18:14:40:37843,-1,8,-2,8,2,0,-10,-1
18:14:40:43806,2,3,2,-1,4,2,10,3
18:14:40:59491,2,3,2,-1,4,2,10,3
18:14:40:60260,-2,-5,0,5,1,-6,-3,0
18:14:40:66374,3,6,18,5,-4,5,1,5
18:14:40:82736,3,6,18,5,-4,5,1,5
18:14:40:83546,3,0,3,-36,0,-2,-17,-2
18:14:40:84324,2,0,-10,-27,-1,6,12,-1
18:14:40:97202,2,0,-10,-27,-1,6,12,-1
18:14:40:97894,-3,6,1,10,-5,-2,4,0
18:14:40:103863,-1,-2,-7,-4,4,3,0,3
18:14:40:119702,-1,-2,-7,-4,4,3,0,3
18:14:40:120350,-3,-3,-5,4,-3,-8,-10,-6
18:14:40:126308,-3,-5,-1,10,-3,-7,-9,-7
18:14:40:134554,-3,-5,-1,10,-3,-7,-9,-7
18:14:40:135369,-1,0,-5,4,2,5,7,3
18:14:40:141324,-1,-4,-1,3,0,-3,4,-2
18:14:40:157073,-1,-4,-1,3,0,-3,4,-2
18:14:40:157855,-2,-7,7,5,5,1,-1,-3
18:14:40:163845,-4,-1,-4,-6,-9,-9,-9,0
18:14:40:179504,-4,-1,-4,-6,-9,-9,-9,0
18:14:40:180285,0,0,-2,7,-12,-9,-18,-2
18:14:40:186310,0,0,-6,1,4,6,2,1
18:14:40:194521,0,0,-6,1,4,6,2,1
18:14:40:195289,-1,-9,-20,-2,4,-1,-4,-3
18:14:40:201414,-1,-3,-5,-5,-3,0,3,-2
18:14:40:217072,-1,-3,-5,-5,-3,0,3,-2
18:14:40:217847,2,6,11,8,-3,-7,1,0
18:14:40:223952,1,-3,-1,10,6,11,31,6
18:14:40:239572,1,-3,-1,10,6,11,31,6
18:14:40:240346,-2,-3,0,-6,0,-3,-1,-4
18:14:40:246269,-1,1,9,7,4,1,-9,0
18:14:40:254643,-1,1,9,7,4,1,-9,0
18:14:40:255356,-2,0,-7,0,-5,0,16,-1
18:14:40:261304,5,-1,-6,5,6,1,1,-1
18:14:40:277010,5,-1,-6,5,6,1,1,-1
18:14:40:277808,1,3,-1,-8,0,-14,-17,-2
18:14:40:283859,-6,-1,3,5,-2,6,1,-1
18:14:40:299648,-6,-1,3,5,-2,6,1,-1
18:14:40:300332,-3,0,3,-2,-6,0,6,2
18:14:40:306375,-3,-5,-10,-14,1,0,-9,-1
18:14:40:314553,-3,-5,-10,-14,1,0,-9,-1
18:14:40:315370,-3,-10,-25,-6,-9,0,-1,3
18:14:40:321368,3,5,14,4,8,1,1,0
18:14:40:337050,3,5,14,4,8,1,1,0
18:14:40:337832,2,-11,-8,-4,-2,-4,-1,-4
18:14:40:343822,-3,-2,6,-11,-6,-4,0,-1
18:14:40:359493,-3,-2,6,-11,-6,-4,0,-1
18:14:40:360263,5,4,15,7,3,-1,-1,1
18:14:40:366393,-8,-2,14,26,-13,-12,-8,-14
18:14:40:374630,-8,-2,14,26,-13,-12,-8,-14
18:14:40:375371,-3,3,12,9,7,3,8,5
18:14:40:381430,1,0,-11,-16,-2,-15,-23,-4
18:14:40:397099,1,0,-11,-16,-2,-15,-23,-4
18:14:40:397827,-4,1,-2,-4,-1,8,5,-4
18:14:40:403910,-3,-5,-12,-1,-4,-3,0,-6
18:14:40:419680,-3,-5,-12,-1,-4,-3,0,-6
18:14:40:420355,-3,-2,-5,0,1,-2,-12,-2
18:14:40:426404,0,-2,-20,3,9,7,-1,3
18:14:40:434569,0,-2,-20,3,9,7,-1,3
18:14:40:435352,-5,-3,5,-8,-7,-7,-6,-3
18:14:40:441377,4,0,3,-1,1,8,11,2
18:14:40:457128,4,0,3,-1,1,8,11,2
18:14:40:457902,0,-6,-10,-10,4,-1,2,-4
18:14:40:463936,0,0,-7,-9,-18,-12,-6,5
18:14:40:479548,0,0,-7,-9,-18,-12,-6,5
18:14:40:480417,4,7,5,11,12,9,0,-2
18:14:40:486351,-1,-2,-2,-4,2,-2,-1,0
18:14:40:494476,-1,-2,-2,-4,2,-2,-1,0
18:14:40:495280,-1,-1,-6,-2,-11,-1,-9,-2
18:14:40:508797,-4,2,19,1,5,2,8,1
18:14:40:517095,-4,2,19,1,5,2,8,1
18:14:40:517895,-6,-6,-7,-11,-7,-16,-4,-7
18:14:40:523928,3,2,12,4,7,3,8,-1
18:14:40:539335,3,2,12,4,7,3,8,-1
18:14:40:547052,-1,-3,10,5,5,2,-10,2
18:14:40:547793,-1,0,-4,0,-4,4,2,-1
18:14:40:554576,-1,0,-4,0,-4,4,2,-1
18:14:40:555376,2,2,4,6,-1,-1,2,3
18:14:40:568820,-2,-9,-13,6,4,-4,-20,-13
18:14:40:577034,-2,-9,-13,6,4,-4,-20,-13
18:14:40:577803,1,10,8,6,2,4,16,7
18:14:40:583854,0,-2,-5,-6,-9,-10,-4,1
18:14:40:599557,0,-2,-5,-6,-9,-10,-4,1
18:14:40:600383,-6,-1,-3,-5,7,26,29,-9
18:14:40:606370,1,-2,-16,-10,1,28,89,23
18:14:40:614579,1,-2,-16,-10,1,28,89,23
18:14:40:615315,-4,-11,-15,4,-4,-23,-27,2
18:14:40:628811,0,2,9,6,3,0,-26,-8
18:14:40:637075,0,2,9,6,3,0,-26,-8
18:14:40:637863,-12,-19,-24,-24,-9,-9,-12,-9
18:14:40:643822,-5,-11,-22,-9,-13,-13,-26,-5
18:14:40:659507,-5,-11,-22,-9,-13,-13,-26,-5
18:14:40:660317,3,2,-19,-10,-7,4,-6,0
18:14:40:666347,-5,2,-38,-16,-6,-14,-23,-9
18:14:40:674676,-5,2,-38,-16,-6,-14,-23,-9
18:14:40:675290,6,9,14,8,21,17,18,1
18:14:40:688866,3,8,21,6,2,-5,-4,5
18:14:40:697091,3,8,21,6,2,-5,-4,5
18:14:40:697867,3,0,-2,-4,-8,3,0,2
18:14:40:703847,1,-1,13,4,-2,-8,-19,1
18:14:40:711361,1,-1,13,4,-2,-8,-19,1
18:14:40:718839,-10,-6,13,4,-5,-10,-3,-45
18:14:40:726299,30,23,5,-6,-5,5,0,12
18:14:40:734576,30,23,5,-6,-5,5,0,12
18:14:40:735359,-20,-13,-7,-4,0,-2,3,9
18:14:40:748960,1,9,20,13,9,-5,-17,0
18:14:40:757100,1,9,20,13,9,-5,-17,0
18:14:40:757834,8,12,10,3,-5,-2,1,10
18:14:40:763873,-3,-10,9,5,-2,0,14,5
18:14:40:771535,-3,-10,9,5,-2,0,14,5
18:14:40:778819,8,1,-6,5,3,0,-6,0
18:14:40:786359,-6,-4,3,-11,1,13,16,16
18:14:40:794472,-6,-4,3,-11,1,13,16,16
18:14:40:795292,-13,-14,1,8,13,-2,-12,-15
18:14:40:808815,19,7,0,1,12,13,25,42
18:14:40:817107,19,7,0,1,12,13,25,42
18:14:40:817849,-5,8,7,-17,-34,-38,-42,-46
18:14:40:823951,-10,-5,-1,-7,-8,-5,-13,-31
18:14:40:831387,-10,-5,-1,-7,-8,-5,-13,-31
18:14:40:838829,26,14,6,-3,-6,18,33,65
18:14:40:846320,-25,-28,-5,-4,-8,-10,-26,-30
18:14:40:854606,-25,-28,-5,-4,-8,-10,-26,-30
18:14:40:855296,21,27,3,8,6,9,31,82
18:14:40:868822,-7,48,1,8,10,1,-9,-26
18:14:40:876984,-7,48,1,8,10,1,-9,-26
18:14:40:877761,-9,-67,-9,7,26,3,-25,-20
18:14:40:883856,35,23,-1,1,19,8,10,14
18:14:40:891325,35,23,-1,1,19,8,10,14
18:14:40:898830,-16,35,-19,2,3,-2,4,-7
18:14:40:906394,-38,-74,-38,-5,32,-4,-10,-29
18:14:40:914544,-38,-74,-38,-5,32,-4,-10,-29
18:14:40:915316,-28,6,-8,-5,-3,3,7,-10
18:14:40:928838,15,23,22,23,30,19,9,18
18:14:40:937040,15,23,22,23,30,19,9,18
18:14:40:937824,2,-16,0,-17,-20,-8,-13,-22
18:14:40:943818,-21,-9,-18,-12,1,-12,9,2
18:14:40:951499,-21,-9,-18,-12,1,-12,9,2
18:14:40:958798,-12,-38,-14,-13,-13,-17,-24,-21
18:14:40:966324,-6,11,5,-34,-25,-4,3,3
18:14:40:974693,-6,11,5,-34,-25,-4,3,3
18:14:40:975313,-6,3,-1,11,-6,7,7,11
18:14:40:988883,13,-3,15,28,-28,-9,-6,0
18:14:40:997262,13,-3,15,28,-28,-9,-6,0
18:14:40:997916,8,34,5,27,52,8,-1,4
18:14:41:12012,19,2,-6,33,-28,-15,-5,-4
18:14:41:12784,19,2,-6,33,-28,-15,-5,-4
18:14:41:18832,8,-14,2,15,6,1,-9,-5
18:14:41:26336,-21,-44,17,-24,-86,-9,16,-7
18:14:41:34536,-21,-44,17,-24,-86,-9,16,-7
18:14:41:35333,15,36,16,-12,-32,-10,-13,9
18:14:41:48877,28,38,-9,3,14,-12,-17,6
18:14:41:57102,28,38,-9,3,14,-12,-17,6
18:14:41:57879,-12,-21,11,33,29,14,8,-13
18:14:41:63828,-23,-12,3,-12,13,-1,0,4
18:14:41:71433,-23,-12,3,-12,13,-1,0,4
18:14:41:78798,18,23,8,26,11,12,12,12
18:14:41:86298,-29,-53,-12,-9,-14,-17,-5,-18
18:14:41:94528,-29,-53,-12,-9,-14,-17,-5,-18
18:14:41:95321,-7,16,0,-37,-23,-5,2,-9
18:14:41:108819,4,4,-31,-52,-28,-19,-6,2
18:14:41:117084,4,4,-31,-52,-28,-19,-6,2
18:14:41:117893,14,-10,-12,-6,3,-10,-1,-5
18:14:41:123901,0,13,-6,-24,12,29,8,1
18:14:41:131390,0,13,-6,-24,12,29,8,1
18:14:41:138868,3,-30,1,-3,1,-11,1,-4
18:14:41:146317,-6,3,10,-2,-9,-11,-32,-9
18:14:41:154618,-6,3,10,-2,-9,-11,-32,-9
18:14:41:155372,0,2,-6,-28,-35,-1,12,2
18:14:41:168884,21,6,0,27,26,19,18,8
18:14:41:177093,21,6,0,27,26,19,18,8
18:14:41:177858,-30,-7,-8,-9,-22,4,7,-5
18:14:41:183879,-10,11,20,37,-11,-8,-6,-9
18:14:41:191410,-10,11,20,37,-11,-8,-6,-9
18:14:41:198849,5,8,14,-15,-7,-9,-5,-4
18:14:41:206366,16,0,-4,-1,18,11,-5,-3
18:14:41:214527,16,0,-4,-1,18,11,-5,-3
18:14:41:215294,-27,-83,-49,1,-11,-9,-7,-12
18:14:41:228844,-15,-4,-4,-10,-14,0,4,-6
18:14:41:245217,-15,-4,-4,-10,-14,0,4,-6
18:14:41:245974,30,36,25,14,10,6,8,17
18:14:41:246843,-7,-12,2,111,109,21,5,-2
18:14:41:251518,-7,-12,2,111,109,21,5,-2
18:14:41:258857,5,17,21,14,-16,0,-11,-2
18:14:41:266360,-13,3,-2,-69,-21,-16,11,9
18:14:41:274676,-13,3,-2,-69,-21,-16,11,9
18:14:41:275361,8,19,8,-3,6,18,11,5
18:14:41:288823,-3,3,5,-5,-51,-19,-16,-10
18:14:41:297184,-3,3,5,-5,-51,-19,-16,-10
18:14:41:297853,-1,15,5,27,-37,-26,-7,3
18:14:41:303837,11,2,-8,-13,-15,6,10,7
18:14:41:311400,11,2,-8,-13,-15,6,10,7
18:14:41:318839,-11,5,9,-6,-12,-8,-29,-18
18:14:41:326332,6,12,2,-8,57,33,18,8
18:14:41:334532,6,12,2,-8,57,33,18,8
18:14:41:335327,24,29,9,-23,-49,-24,-6,1
18:14:41:348947,-9,-19,-4,-7,-12,7,-10,-6
18:14:41:357023,-9,-19,-4,-7,-12,7,-10,-6
18:14:41:357803,-2,-6,-15,25,63,20,13,2
18:14:41:363889,3,-12,-23,66,45,-7,-4,0
18:14:41:371429,3,-12,-23,66,45,-7,-4,0
18:14:41:378841,-24,-11,6,-27,-15,4,-1,-10
18:14:41:386397,-2,10,8,-82,-97,-32,-9,4
18:14:41:394508,-2,10,8,-82,-97,-32,-9,4
18:14:41:395275,-3,-24,2,-3,6,1,-11,-3
18:14:41:408813,-12,-11,-2,-5,-42,-16,-12,-10
18:14:41:417016,-12,-11,-2,-5,-42,-16,-12,-10
18:14:41:417820,29,21,-8,-44,-42,-4,13,19
18:14:41:431970,-22,-17,4,-40,-49,-17,-17,-14
18:14:41:432827,-22,-17,4,-40,-49,-17,-17,-14
18:14:41:438852,2,4,2,64,93,36,31,5
18:14:41:446324,24,33,31,-62,-39,-7,2,9
18:14:41:453961,24,33,31,-62,-39,-7,2,9
18:14:41:461338,-13,-30,-25,-54,-49,-26,-6,-3
18:14:41:468877,8,11,18,49,64,18,1,2
18:14:41:477036,8,11,18,49,64,18,1,2
18:14:41:477798,17,-4,-9,1,-1,17,15,6
18:14:41:491986,-19,-13,-7,8,-8,-6,-8,-11
18:14:41:492778,-19,-13,-7,8,-8,-6,-8,-11
18:14:41:498868,2,17,6,-4,-40,-6,-9,-5
18:14:41:506352,8,-10,-30,-37,-7,0,-3,2
18:14:41:513877,8,-10,-30,-37,-7,0,-3,2
18:14:41:521373,-19,-12,6,47,-13,-16,-13,-12
18:14:41:528819,-10,-4,9,8,-6,-1,-4,-2
18:14:41:537046,-10,-4,9,8,-6,-1,-4,-2
18:14:41:537829,-5,9,9,1,19,1,3,-1
18:14:41:552103,-21,-6,-7,19,41,19,15,-3
18:14:41:552850,-21,-6,-7,19,41,19,15,-3
18:14:41:558787,-8,8,7,-2,-1,-21,-35,-11
18:14:41:566335,8,18,8,28,46,28,5,0
18:14:41:573984,8,18,8,28,46,28,5,0
18:14:41:581348,-7,-13,-23,-14,4,11,-8,-8
18:14:41:588856,23,21,26,-22,-54,-19,6,5
18:14:41:597080,23,21,26,-22,-54,-19,6,5
18:14:41:597831,-17,-7,1,22,21,-5,-14,-9
18:14:41:612021,-20,-24,-19,12,-5,-5,3,-3
18:14:41:612816,-20,-24,-19,12,-5,-5,3,-3
18:14:41:618822,4,-27,-8,-24,-22,0,7,2
18:14:41:626412,0,0,-19,8,8,10,22,8
18:14:41:633894,0,0,-19,8,8,10,22,8
18:14:41:641347,-6,-8,-5,-44,-56,-19,-7,-5
18:14:41:648845,-8,-12,-13,6,23,3,-14,0
18:14:41:657055,-8,-12,-13,6,23,3,-14,0
18:14:41:657859,15,13,13,11,39,24,11,5
18:14:41:672134,-7,-19,-4,37,75,20,2,-9
18:14:41:672904,-7,-19,-4,37,75,20,2,-9
18:14:41:678821,0,-7,-16,-4,-3,-4,-11,-1
18:14:41:686353,18,25,25,-4,-30,3,4,8
18:14:41:702196,18,25,25,-4,-30,3,4,8
18:14:41:702882,2,-9,-18,-11,8,-6,-5,-4
18:14:41:708830,10,9,10,-9,-11,-8,-1,1
18:14:41:717116,10,9,10,-9,-11,-8,-1,1
18:14:41:717893,1,19,37,-35,-50,-11,7,-1
18:14:41:732067,2,-5,17,0,-24,-18,-9,0
18:14:41:732844,2,-5,17,0,-24,-18,-9,0
18:14:41:738839,-2,16,23,66,66,28,11,1
18:14:41:746330,-6,-7,-8,31,19,-9,-8,-2
18:14:41:753875,-6,-7,-8,31,19,-9,-8,-2
18:14:41:761323,14,-3,-31,-21,7,-4,2,14
18:14:41:768840,0,-5,-12,2,14,17,1,-5
18:14:41:777026,0,-5,-12,2,14,17,1,-5
18:14:41:777803,-15,-3,-7,25,52,0,-12,-9
18:14:41:792055,9,17,8,9,-1,7,9,1
18:14:41:792821,9,17,8,9,-1,7,9,1
18:14:41:798845,20,-5,-3,16,32,34,24,20
18:14:41:806345,-31,-22,-2,-33,-51,-25,-24,-13
18:14:41:813879,-31,-22,-2,-33,-51,-25,-24,-13
18:14:41:821369,5,-11,-27,-7,6,5,7,10
18:14:41:828850,5,0,-20,-10,-14,-22,6,6
18:14:41:837015,5,0,-20,-10,-14,-22,6,6
18:14:41:837806,-18,-9,-8,-25,-25,-9,-5,-20
18:14:41:852024,-1,6,-2,15,54,9,-6,-6
18:14:41:852798,-1,6,-2,15,54,9,-6,-6
18:14:41:858825,-1,-1,8,-15,-48,-23,-3,-5
18:14:41:866309,-2,-3,-23,-22,16,18,10,4
18:14:41:873912,-2,-3,-23,-22,16,18,10,4
18:14:41:881318,-4,6,17,12,1,-1,-3,5
18:14:41:888823,-4,-8,0,12,8,-6,1,-2
18:14:41:897190,-4,-8,0,12,8,-6,1,-2
18:14:41:897823,-2,12,-3,-12,-23,-14,-10,-1
18:14:41:912003,12,12,-11,-5,-5,0,6,5
18:14:41:912812,12,12,-11,-5,-5,0,6,5
18:14:41:918822,2,-7,14,14,20,4,14,-8
18:14:41:926301,-9,-15,-4,-25,-57,-7,-18,-11
18:14:41:933888,-9,-15,-4,-25,-57,-7,-18,-11
18:14:41:941289,-11,-10,-9,-3,14,2,-4,45
18:14:41:948968,1,-1,1,13,3,6,-2,-18
18:14:41:957060,1,-1,1,13,3,6,-2,-18
18:14:41:957863,4,6,8,-11,-26,-13,-11,-22
18:14:41:980202,2,7,-11,-7,1,9,31,-7
18:14:41:981017,2,7,-11,-7,1,9,31,-7
18:14:41:981828,9,-18,-11,30,36,7,0,7
18:14:41:986342,21,18,-5,-11,-27,5,13,13
18:14:41:993861,21,18,-5,-11,-27,5,13,13
18:14:42:1418,-21,-20,6,-33,-40,-2,6,-13
18:14:42:8807,-9,-13,-2,45,39,-12,-16,3
18:14:42:17088,-9,-13,-2,45,39,-12,-16,3
18:14:42:17906,-2,-1,-18,-18,-29,-12,-8,-17
18:14:42:32091,-14,-8,9,-40,-62,-16,-9,-3
18:14:42:32855,-14,-8,9,-40,-62,-16,-9,-3
18:14:42:38904,3,1,6,3,19,-3,1,-8
18:14:42:46325,0,-7,-2,-23,0,12,17,5
18:14:42:53958,0,-7,-2,-23,0,12,17,5
18:14:42:61350,15,1,-21,1,-14,0,1,6
18:14:42:68835,6,12,24,3,-8,-12,-9,-2
18:14:42:77038,6,12,24,3,-8,-12,-9,-2
18:14:42:77838,-2,12,-12,15,23,-7,-9,1
18:14:42:91989,2,-6,1,-5,-12,21,22,13
18:14:42:92829,2,-6,1,-5,-12,21,22,13
18:14:42:98814,-6,1,2,18,29,5,0,1
18:14:42:106434,-5,-19,17,31,23,1,-11,-1
18:14:42:113897,-5,-19,17,31,23,1,-11,-1
18:14:42:121317,5,13,3,-27,-15,1,6,0
18:14:42:128854,-9,0,-24,-2,11,-16,-11,-13
18:14:42:137120,-9,0,-24,-2,11,-16,-11,-13
18:14:42:137880,-13,-9,18,49,61,18,-6,-5
18:14:42:152056,0,2,-5,15,21,13,-8,5
18:14:42:152881,0,2,-5,15,21,13,-8,5
18:14:42:158827,-10,-13,-9,-32,-49,-17,1,-3
18:14:42:166359,10,20,25,13,21,-6,0,3
18:14:42:182036,10,20,25,13,21,-6,0,3
18:14:42:182840,9,2,8,41,44,33,50,9
18:14:42:188826,1,-14,-18,-47,-55,-38,-30,-1
18:14:42:197216,1,-14,-18,-47,-55,-38,-30,-1
18:14:42:197823,-4,7,2,-28,-7,-2,-8,-7
18:14:42:212018,5,11,37,5,-13,-11,-4,-7
18:14:42:212832,5,11,37,5,-13,-11,-4,-7
18:14:42:226946,-7,-7,-9,26,33,14,-6,-2
18:14:42:227795,-8,-17,4,-36,-35,0,6,1
18:14:42:233860,-8,-17,4,-36,-35,0,6,1
18:14:42:241292,-11,-1,-28,-45,-11,-6,-2,-14
18:14:42:248885,16,25,-7,17,26,7,1,6
18:14:42:257088,16,25,-7,17,26,7,1,6
18:14:42:257884,-3,3,21,16,-41,-6,-1,-2
18:14:42:272126,-17,-17,-26,15,13,-10,-13,-10
18:14:42:272901,-17,-17,-26,15,13,-10,-13,-10
18:14:42:278845,-4,-5,-1,39,25,17,1,4
18:14:42:286335,6,16,2,-17,-2,5,3,-1
18:14:42:293860,6,16,2,-17,-2,5,3,-1
18:14:42:301318,7,19,16,-46,-85,-41,-39,-5
18:14:42:308838,-16,-6,-7,23,72,33,17,1
18:14:42:317098,-16,-6,-7,23,72,33,17,1
18:14:42:317886,-2,-19,-31,-51,-27,-31,-16,0
18:14:42:332046,12,3,-1,18,15,41,44,10
18:14:42:332867,12,3,-1,18,15,41,44,10
18:14:42:338835,7,14,-7,-48,-70,-19,0,-2
18:14:42:346307,-7,-7,-13,8,-13,-25,-27,-10
18:14:42:353913,-7,-7,-13,8,-13,-25,-27,-10
18:14:42:361341,5,0,18,-8,-7,11,6,4
18:14:42:368852,-4,1,-5,-40,-57,-24,-5,-2
18:14:42:376348,-4,1,-5,-40,-57,-24,-5,-2
18:14:42:383840,0,0,10,33,12,-5,-28,-5
18:14:42:392014,13,16,22,-11,-6,7,4,-2
18:14:42:392819,13,16,22,-11,-6,7,4,-2
18:14:42:398943,-2,-17,5,20,63,10,-5,1
18:14:42:414482,10,2,-5,-13,-17,-24,-16,2
18:14:42:415285,10,2,-5,-13,-17,-24,-16,2
18:14:42:421462,-2,-10,1,21,19,3,1,-4
18:14:42:428845,-7,-7,-15,-29,-23,16,12,-9
18:14:42:436391,-7,-7,-15,-29,-23,16,12,-9
18:14:42:443851,-4,-1,-27,-24,-26,-13,3,-3
18:14:42:452766,-5,-4,-12,-6,4,1,-2,2
18:14:42:453484,-5,-4,-12,-6,4,1,-2,2
18:14:42:458815,-14,-13,26,-4,-45,-16,2,-5
18:14:42:474631,6,-11,-5,25,31,8,-9,2
18:14:42:475331,6,-11,-5,25,31,8,-9,2
18:14:42:489542,-9,4,-2,31,53,7,-3,2
18:14:42:490369,-4,-7,15,6,-6,5,3,-1
18:14:42:504590,-4,-7,15,6,-6,5,3,-1
18:14:42:505384,10,9,-16,-21,-19,-8,-1,-6
18:14:42:512003,-9,10,16,21,-4,-16,-6,1
18:14:42:512849,-9,10,16,21,-4,-16,-6,1
18:14:42:518892,5,-2,17,25,11,12,6,1
18:14:42:534598,8,0,-26,-30,-26,-15,-13,-7
18:14:42:535405,8,0,-26,-30,-26,-15,-13,-7
18:14:42:541382,-8,-6,-24,-15,5,7,16,-8
18:14:42:548869,-6,-3,-7,1,49,10,-5,1
18:14:42:556429,-6,-3,-7,1,49,10,-5,1
18:14:42:563872,12,1,-12,-2,8,8,-15,7
18:14:42:572029,0,-4,-6,-14,-19,-16,0,-3
18:14:42:572837,0,-4,-6,-14,-19,-16,0,-3
18:14:42:578830,6,-3,-9,-1,20,-1,-9,-5
18:14:42:594453,2,0,-5,-24,6,15,5,6
18:14:42:595275,2,0,-5,-24,6,15,5,6
18:14:42:601353,-18,-6,3,12,11,-5,-1,-10
18:14:42:608850,11,18,34,19,-2,12,6,9
18:14:42:616358,11,18,34,19,-2,12,6,9
18:14:42:623891,-5,0,13,-8,-33,-17,-1,-1
18:14:42:640151,2,2,-8,-14,17,10,3,-3
18:14:42:640934,2,2,-8,-14,17,10,3,-3
18:14:42:641797,-1,0,23,31,41,18,10,-1
18:14:42:654558,-10,-19,-6,-11,-18,-15,10,-5
18:14:42:655357,-10,-19,-6,-11,-18,-15,10,-5
18:14:42:661369,-1,-4,4,-16,-13,5,19,0
18:14:42:668830,-12,-3,31,43,28,1,-28,-3
18:14:42:676364,-12,-3,31,43,28,1,-28,-3
18:14:42:683860,10,14,18,13,-27,-13,-6,2
18:14:42:691973,-5,4,5,20,-1,-5,-5,-6
18:14:42:692803,-5,4,5,20,-1,-5,-5,-6
18:14:42:698840,-7,8,19,23,58,15,5,8
18:14:42:714503,-5,-12,-38,-38,-32,-12,-19,-13
18:14:42:715283,-5,-12,-38,-38,-32,-12,-19,-13
18:14:42:721395,1,-3,-26,-37,-68,-24,-6,-7
18:14:42:728845,11,2,9,35,53,16,6,5
18:14:42:736378,11,2,9,35,53,16,6,5
18:14:42:743804,-11,-14,-3,-25,-8,8,-5,-7
18:14:42:752047,-2,-9,2,23,-15,-12,8,-4
18:14:42:752806,-2,-9,2,23,-15,-12,8,-4
18:14:42:758797,13,5,5,3,32,16,23,21
18:14:42:782699,3,6,-10,-27,-32,-18,-6,-3
18:14:42:783531,3,6,-10,-27,-32,-18,-6,-3
18:14:42:784341,5,-3,-2,-8,-6,2,1,8
18:14:42:788861,-15,-7,0,-17,-57,-12,-1,-3
18:14:42:796340,-15,-7,0,-17,-57,-12,-1,-3
18:14:42:803843,-3,5,-14,7,-17,1,-2,-4
18:14:42:812019,12,15,22,12,18,14,1,3
18:14:42:812824,12,15,22,12,18,14,1,3
18:14:42:818832,-9,-17,-32,31,34,-7,-5,-13
18:14:42:834536,-5,-8,-9,21,12,-8,-5,1
18:14:42:835311,-5,-8,-9,21,12,-8,-5,1
18:14:42:841336,2,5,-4,18,37,22,-4,-1
18:14:42:857074,-6,-18,-9,8,22,20,10,5
18:14:42:857914,-6,-18,-9,8,22,20,10,5
18:14:42:863892,-2,10,11,-41,-62,-42,-27,-10
18:14:42:872050,3,2,-28,-49,-5,25,12,1
18:14:42:872831,3,2,-28,-49,-5,25,12,1
18:14:42:878859,7,-21,-9,-9,-2,1,6,1
18:14:42:894536,-6,-12,1,-20,-28,-28,-9,-2
18:14:42:895306,-6,-12,1,-20,-28,-28,-9,-2
18:14:42:901402,-5,10,7,47,60,19,-3,-2
18:14:42:908815,-12,4,5,-45,-66,-10,9,1
18:14:42:916341,-12,4,5,-45,-66,-10,9,1
18:14:42:923908,5,6,11,-16,-48,-8,7,-5
18:14:42:931995,-2,-13,38,74,76,26,24,3
18:14:42:932811,-2,-13,38,74,76,26,24,3
18:14:42:938824,9,14,-12,-13,-21,-16,-7,3
18:14:42:954565,3,13,-7,11,9,-6,-29,-4
18:14:42:955387,3,13,-7,11,9,-6,-29,-4
18:14:42:961365,-3,5,16,-6,-4,9,14,3
18:14:42:968881,10,11,14,-11,-12,-21,-26,3
18:14:42:976469,10,11,14,-11,-12,-21,-26,3
18:14:42:983870,-29,-1,0,-12,-38,-13,-8,-7
18:14:42:991789,6,9,3,27,12,3,-6,-3
18:14:42:999665,6,9,3,27,12,3,-6,-3
18:14:43:371,-13,-12,-3,15,-6,-3,-9,-6
18:14:43:14541,-2,-2,-4,19,64,12,-7,-4
18:14:43:15334,-2,-2,-4,19,64,12,-7,-4
18:14:43:21352,8,-1,-7,0,48,10,-9,3
18:14:43:28861,-7,-4,-8,15,28,-6,-8,-5
18:14:43:44506,-7,-4,-8,15,28,-6,-8,-5
18:14:43:45275,7,-5,4,6,-2,8,4,-3
18:14:43:52113,3,0,0,-20,-44,-8,-1,2
18:14:43:52825,3,0,0,-20,-44,-8,-1,2
18:14:43:58810,24,9,-5,-36,7,9,3,6
18:14:43:74623,-2,-12,4,27,6,1,26,-1
18:14:43:75312,-2,-12,4,27,6,1,26,-1
18:14:43:89578,-2,-6,5,-8,20,7,5,-17
18:14:43:90333,0,2,-6,-15,-4,-3,-6,-3
18:14:43:96387,0,2,-6,-15,-4,-3,-6,-3
18:14:43:103938,14,25,38,11,-2,-9,-4,15
18:14:43:111976,-17,-10,-1,-3,27,29,33,7
18:14:43:112799,-17,-10,-1,-3,27,29,33,7
18:14:43:118848,-20,-34,-30,-38,-64,-22,-2,-4
18:14:43:134530,10,9,3,-4,-24,2,-4,3
18:14:43:135296,10,9,3,-4,-24,2,-4,3
18:14:43:141331,-14,-26,-12,3,-9,-8,-9,-2
18:14:43:148936,-6,-13,-6,-14,-35,-13,-7,-16
18:14:43:156360,-6,-13,-6,-14,-35,-13,-7,-16
18:14:43:163858,-3,0,-25,-39,-35,-12,-6,-3
18:14:43:172186,4,-8,-44,-20,-14,-2,4,0
18:14:43:172870,4,-8,-44,-20,-14,-2,4,0
18:14:43:178835,-3,-25,-18,4,14,-5,9,-2
18:14:43:194475,5,5,9,8,15,5,-4,-1
18:14:43:195279,5,5,9,8,15,5,-4,-1
18:14:43:201378,-6,-3,-12,0,-4,4,2,0
18:14:43:208825,1,23,1,4,-11,-2,-3,-2
18:14:43:216408,1,23,1,4,-11,-2,-3,-2
18:14:43:223878,17,16,17,40,42,16,-2,3
18:14:43:232048,17,16,17,40,42,16,-2,3
18:14:43:232800,0,-1,-14,5,-21,-12,3,-2
18:14:43:238866,2,9,27,35,37,17,7,-1
18:14:43:254539,2,9,27,35,37,17,7,-1
18:14:43:255326,-3,-6,-5,-29,-22,-8,7,-4
18:14:43:261268,4,15,20,-6,-4,-16,-12,1
18:14:43:277015,4,15,20,-6,-4,-16,-12,1
18:14:43:277786,-4,-5,-6,29,53,10,4,-2
18:14:43:283892,-18,4,0,-8,-21,-21,-18,-7
18:14:43:291991,-18,4,0,-8,-21,-21,-18,-7
18:14:43:292802,11,27,15,-43,-20,4,-12,6
18:14:43:298864,-11,-15,-18,-15,-24,-2,11,0
18:14:43:322784,-11,-15,-18,-15,-24,-2,11,0
18:14:43:323449,4,-8,10,20,2,-16,-11,3
18:14:43:324269,-14,-5,-3,-12,-15,-3,-8,-8
18:14:43:337031,-14,-5,-3,-12,-15,-3,-8,-8
18:14:43:337836,8,-13,-1,13,-3,12,14,5
18:14:43:343838,-3,-13,-23,19,58,5,-3,-3
18:14:43:352085,-3,-13,-23,19,58,5,-3,-3
18:14:43:352841,-5,1,12,-8,-26,-19,-17,0
18:14:43:366357,11,8,4,3,4,24,15,4
18:14:43:374705,11,8,4,3,4,24,15,4
18:14:43:375335,-6,6,6,13,55,12,-10,7
18:14:43:381299,-27,-5,-5,-29,-52,-19,-22,-10
18:14:43:397179,-27,-5,-5,-29,-52,-19,-22,-10
18:14:43:397908,-7,0,5,-8,-3,9,11,-12
18:14:43:403925,13,4,7,12,21,8,11,3
18:14:43:411986,13,4,7,12,21,8,11,3
18:14:43:412799,-15,-16,-18,-9,-18,-22,-17,-11
18:14:43:426306,2,13,14,11,-12,-12,-4,-5
18:14:43:434597,2,13,14,11,-12,-12,-4,-5
18:14:43:435364,14,4,15,-16,-7,6,19,1
18:14:43:441330,1,6,-4,-46,-46,-10,4,4
18:14:43:457074,1,6,-4,-46,-46,-10,4,4
18:14:43:457817,-5,-3,8,2,-9,-2,-11,-2
18:14:43:463875,-4,0,-1,16,-13,-5,-3,-1
18:14:43:472130,-4,0,-1,16,-13,-5,-3,-1
18:14:43:472859,2,-9,-11,23,33,-15,-28,-5
18:14:43:486328,8,-19,-9,-5,46,40,30,20
18:14:43:494516,8,-19,-9,-5,46,40,30,20
18:14:43:495287,-9,-3,6,-6,-44,-20,-10,-10
18:14:43:501403,18,2,-11,8,-12,0,14,9
18:14:43:517089,18,2,-11,8,-12,0,14,9
18:14:43:517844,-6,2,-14,-8,-9,-9,-9,-3
18:14:43:523888,9,15,17,-41,-16,4,15,4
18:14:43:532081,9,15,17,-41,-16,4,15,4
18:14:43:532815,-5,0,-29,-16,-43,-14,24,-2
18:14:43:546270,-5,-20,-15,7,14,15,-8,-3
18:14:43:554598,-5,-20,-15,7,14,15,-8,-3
18:14:43:555328,-17,-19,-18,-8,16,9,2,-5
18:14:43:561309,4,11,-20,-11,6,-9,-1,-8
18:14:43:577015,4,11,-20,-11,6,-9,-1,-8
18:14:43:577788,1,8,26,18,-2,2,-4,5
18:14:43:583873,-10,-3,-4,32,5,-7,-10,-6
18:14:43:591992,-10,-3,-4,32,5,-7,-10,-6
18:14:43:592789,22,12,4,0,10,2,13,11
18:14:43:606331,-5,2,-1,11,12,-7,-30,-7
18:14:43:614547,-5,2,-1,11,12,-7,-30,-7
18:14:43:615371,8,2,3,-9,-31,-3,10,-1
18:14:43:621313,6,1,35,23,28,24,14,5
18:14:43:636966,6,1,35,23,28,24,14,5
18:14:43:645100,2,-7,0,10,23,14,-2,5
18:14:43:645860,6,17,-6,-2,22,-1,-4,-1
18:14:43:652137,6,17,-6,-2,22,-1,-4,-1
18:14:43:652810,-1,0,-6,-2,-11,3,-2,5
18:14:43:666379,18,22,2,15,-5,-10,13,17
18:14:43:674614,18,22,2,15,-5,-10,13,17
18:14:43:675297,-8,-18,-28,-10,-4,-18,-4,-8
18:14:43:681297,-1,4,-2,-21,-14,2,11,3
18:14:43:705235,-1,4,-2,-21,-14,2,11,3
18:14:43:706005,-6,-7,-37,-27,-25,5,-2,-4
18:14:43:706811,-5,-11,-19,1,2,-1,-7,-3
18:14:43:712049,-5,-11,-19,1,2,-1,-7,-3
18:14:43:712835,-16,-19,-25,-5,5,5,-8,-10
18:14:43:726292,-8,-2,-17,7,15,-1,1,-1
18:14:43:734567,-8,-2,-17,7,15,-1,1,-1
18:14:43:735348,-5,5,19,24,24,5,0,-2
18:14:43:741313,4,-3,3,2,-34,-13,-9,-7
18:14:43:757530,4,-3,3,2,-34,-13,-9,-7
18:14:43:758329,10,24,26,-5,-12,-12,-9,-3
18:14:43:763878,-11,-21,-24,-22,-23,-14,-11,-6
18:14:43:772127,-11,-21,-24,-22,-23,-14,-11,-6
18:14:43:772873,4,-4,2,3,19,25,16,10
18:14:43:786379,-14,-11,18,33,85,31,4,2
18:14:43:794537,-14,-11,18,33,85,31,4,2
18:14:43:795304,3,14,25,-4,-20,-15,1,1
18:14:43:801387,13,10,-17,-8,-36,-17,-1,1
18:14:43:817051,13,10,-17,-8,-36,-17,-1,1
18:14:43:817843,0,-4,10,-5,1,-8,-15,-4
18:14:43:823898,-8,-2,21,5,22,7,14,-6
18:14:43:832086,-8,-2,21,5,22,7,14,-6
18:14:43:832858,-2,2,18,-6,-15,-4,1,-3
18:14:43:846333,7,-5,-9,-41,-51,-16,-13,-3
18:14:43:854654,7,-5,-9,-41,-51,-16,-13,-3
18:14:43:855329,-3,-13,6,31,24,3,1,0
18:14:43:861276,-4,-25,16,6,42,8,-3,-1
18:14:43:877483,-4,-25,16,6,42,8,-3,-1
18:14:43:878239,-3,-1,-10,14,37,3,-3,-5
18:14:43:883850,-12,2,-14,-18,-1,11,6,-6
18:14:43:892001,-12,2,-14,-18,-1,11,6,-6
18:14:43:892822,9,-2,-26,6,10,4,-5,10
18:14:43:906384,-6,6,-3,-20,-60,-24,4,-7
18:14:43:914299,-6,6,-3,-20,-60,-24,4,-7
18:14:43:922026,-2,-2,29,-14,-24,-7,9,-2
18:14:43:922890,2,6,-19,-14,-31,-12,-11,-4
18:14:43:937087,2,6,-19,-14,-31,-12,-11,-4
18:14:43:937838,2,-5,-16,-24,-8,-4,-7,-1
18:14:43:943828,0,-9,4,-7,1,-5,2,1
18:14:43:952147,0,-9,4,-7,1,-5,2,1
18:14:43:952866,-6,-12,-2,11,21,12,-1,1
18:14:43:966407,14,-5,11,-11,-25,-15,-21,1
18:14:43:974651,14,-5,11,-11,-25,-15,-21,1
18:14:43:975282,-3,15,1,2,-25,-18,-37,-8
18:14:43:981355,-8,-19,-14,30,43,15,5,0
18:14:43:997031,-8,-19,-14,30,43,15,5,0
18:14:43:997870,3,5,-4,9,-2,-3,-6,2
18:14:44:3954,4,10,25,-10,-4,2,-3,10
18:14:44:12088,4,10,25,-10,-4,2,-3,10
18:14:44:12884,-5,-1,-14,-15,-7,10,37,-1
18:14:44:26386,-12,-14,-7,9,5,3,7,-3
18:14:44:34571,-12,-14,-7,9,5,3,7,-3
18:14:44:35358,12,6,9,-20,-25,-27,-18,1
18:14:44:41398,14,16,12,10,35,26,14,6
18:14:44:57077,14,16,12,10,35,26,14,6
18:14:44:57890,-19,-17,-1,42,18,-1,-22,-13
18:14:44:63865,-12,-6,-5,-33,-41,-8,14,-1
18:14:44:72092,-12,-6,-5,-33,-41,-8,14,-1
18:14:44:72838,-1,0,-7,-12,-20,0,10,1
18:14:44:86462,-3,2,7,34,30,-4,-18,-7
18:14:44:94501,-3,2,7,34,30,-4,-18,-7
18:14:44:95282,-8,-19,0,9,15,12,-4,0
18:14:44:101304,-3,-16,-19,-38,-57,-17,-9,-3
18:14:44:117067,-3,-16,-19,-38,-57,-17,-9,-3
18:14:44:117815,-10,10,-4,7,38,10,-4,0
18:14:44:123956,-8,2,14,-7,-1,6,12,-3
18:14:44:132024,-8,2,14,-7,-1,6,12,-3
18:14:44:132827,17,14,0,7,10,8,15,1
18:14:44:155186,-4,-6,-16,1,11,2,5,1
18:14:44:155978,-4,-6,-16,1,11,2,5,1
18:14:44:156827,12,-5,-5,-60,-61,-26,-5,-4
18:14:44:161282,-1,9,-4,3,6,-13,-8,2
18:14:44:177005,-1,9,-4,3,6,-13,-8,2
18:14:44:177818,-3,6,-9,-14,-10,-4,0,-5
18:14:44:183870,7,-5,0,17,1,6,-3,3
18:14:44:199597,7,-5,0,17,1,6,-3,3
18:14:44:200316,-7,-6,8,36,53,3,2,-2
18:14:44:206410,11,-21,2,22,15,7,19,6
18:14:44:214554,11,-21,2,22,15,7,19,6
18:14:44:215340,-6,-8,4,-29,-27,-6,7,3
18:14:44:221323,6,23,-3,35,38,3,-14,0
18:14:44:237018,6,23,-3,35,38,3,-14,0
18:14:44:237812,13,0,0,-1,19,13,5,5
18:14:44:243825,3,10,-11,-57,-13,-7,-1,-4
18:14:44:252112,3,10,-11,-57,-13,-7,-1,-4
18:14:44:252859,16,0,-21,25,26,14,3,7
18:14:44:266353,-4,20,4,3,-8,-16,-7,-7
18:14:44:274622,-4,20,4,3,-8,-16,-7,-7
18:14:44:275344,-20,-27,-3,-2,28,10,-7,-4
18:14:44:288886,11,12,13,28,-4,-12,-4,-4
18:14:44:296987,11,12,13,28,-4,-12,-4,-4
18:14:44:297829,-3,4,-11,-18,-18,8,14,4
18:14:44:303947,3,2,-9,-28,-40,-4,-9,-6
18:14:44:311342,3,2,-9,-28,-40,-4,-9,-6
18:14:44:318851,-6,7,4,29,-7,-23,-20,-3
18:14:44:326318,-15,-17,-6,-3,10,11,1,3
18:14:44:334543,-15,-17,-6,-3,10,11,1,3
18:14:44:335339,-1,-4,0,-3,-30,-15,8,-3
18:14:44:348885,-9,-7,-4,18,25,0,-24,-13
18:14:44:357083,-9,-7,-4,18,25,0,-24,-13
18:14:44:357847,0,11,17,2,-12,0,-5,2
18:14:44:363851,-4,-1,-13,3,22,2,-10,-3
18:14:44:371449,-4,-1,-13,3,22,2,-10,-3
18:14:44:378846,5,13,7,20,24,12,4,2
18:14:44:386301,3,9,-12,-13,-6,-6,14,5
18:14:44:394538,3,9,-12,-13,-6,-6,14,5
18:14:44:395311,-13,-15,-3,-29,-18,-11,-35,-6
18:14:44:408840,3,8,26,11,3,11,20,2
18:14:44:417048,3,8,26,11,3,11,20,2
18:14:44:417819,2,9,14,-11,-26,2,-11,-2
18:14:44:423937,0,-10,14,1,-2,-5,-8,0
18:14:44:431387,0,-10,14,1,-2,-5,-8,0
18:14:44:438864,-6,-6,5,45,62,-5,7,-2
18:14:44:446330,12,11,3,9,5,18,24,13
18:14:44:454604,12,11,3,9,5,18,24,13
18:14:44:455382,5,5,-8,13,-1,5,10,-3
18:14:44:468845,-15,-22,3,-12,-51,-16,-23,-4
18:14:44:477025,-15,-22,3,-12,-51,-16,-23,-4
18:14:44:477804,2,-10,-17,-14,-12,1,6,-3
18:14:44:483853,7,-6,-16,-14,4,-1,-28,-6
18:14:44:491366,7,-6,-16,-14,4,-1,-28,-6
18:14:44:499018,6,3,12,5,3,6,15,8
18:14:44:506401,-6,-13,-8,10,3,1,-1,-3
18:14:44:514502,-6,-13,-8,10,3,1,-1,-3
18:14:44:515239,4,-2,7,-2,-6,-13,-8,2
18:14:44:528859,-14,-17,-1,-16,16,9,0,-7
18:14:44:537043,-14,-17,-1,-16,16,9,0,-7
18:14:44:537845,-10,7,-6,-27,-49,-12,2,-5
18:14:44:543821,3,10,13,7,-27,-18,-6,-6
18:14:44:551354,3,10,13,7,-27,-18,-6,-6
18:14:44:558828,-7,-14,-14,-2,21,11,6,-6
18:14:44:566351,-3,0,7,42,51,10,6,-7
18:14:44:574611,-3,0,7,42,51,10,6,-7
18:14:44:575319,1,9,-11,-27,-32,-17,-19,3
18:14:44:588870,1,7,-21,-37,-35,-1,11,10
18:14:44:597147,1,7,-21,-37,-35,-1,11,10
18:14:44:597849,-14,-24,-20,-19,1,2,7,-9
18:14:44:603881,-7,5,3,-5,-3,-7,-2,-3
18:14:44:611372,-7,5,3,-5,-3,-7,-2,-3
18:14:44:618825,1,7,11,-6,-18,-2,8,6
18:14:44:626265,0,4,-7,-8,-19,-18,-25,-5
18:14:44:634596,0,4,-7,-8,-19,-18,-25,-5
18:14:44:635366,2,14,16,13,15,12,11,0
18:14:44:648874,-7,-4,13,13,8,0,2,-2
18:14:44:656801,-7,-4,13,13,8,0,2,-2
18:14:44:664580,0,3,3,-6,3,0,-10,-8
18:14:44:665219,-8,9,-19,-19,-32,-7,-2,-7
18:14:44:671416,-8,9,-19,-19,-32,-7,-2,-7
18:14:44:678854,3,1,-24,-4,8,8,4,5
18:14:44:686401,-2,-11,3,-3,-1,4,-1,0
18:14:44:694526,-2,-11,3,-3,-1,4,-1,0
18:14:44:695310,4,-3,-26,-13,-16,-17,-2,-3
18:14:44:709247,11,4,31,-5,31,16,15,6
18:14:44:717080,11,4,31,-5,31,16,15,6
18:14:44:717833,-6,-2,-3,1,-3,-4,-2,3
18:14:44:723832,-7,-3,-10,-33,-30,-16,-4,-3
18:14:44:731391,-7,-3,-10,-33,-30,-16,-4,-3
18:14:44:738965,-8,-7,1,1,-2,0,-4,-5
18:14:44:755216,6,7,11,14,13,1,12,-6
18:14:44:755984,6,7,11,14,13,1,12,-6
18:14:44:756852,-2,-12,16,-6,5,10,2,1
18:14:44:768914,-8,-2,8,27,30,2,-7,-2
18:14:44:777006,-8,-2,8,27,30,2,-7,-2
18:14:44:777820,-2,-15,-12,-29,-42,-14,-4,-3
18:14:44:783785,-13,-6,-13,21,4,-5,-3,-5
18:14:44:791479,-13,-6,-13,21,4,-5,-3,-5
18:14:44:798863,2,12,16,17,7,6,-15,4
18:14:44:806307,-3,-15,-1,11,12,-5,0,1
18:14:44:822038,-3,-15,-1,11,12,-5,0,1
18:14:44:822819,-1,-3,16,8,30,4,-7,-3
18:14:44:828761,4,6,-11,-15,-17,5,5,2
18:14:44:837136,4,6,-11,-15,-17,5,5,2
18:14:44:837840,0,5,5,-4,-16,-7,1,2
18:14:44:843842,14,11,-1,-21,-24,-3,14,5
18:14:44:851396,14,11,-1,-21,-24,-3,14,5
18:14:44:867031,-4,-15,-26,10,18,0,7,-4
18:14:44:867809,-9,-15,-5,3,-3,0,5,0
18:14:44:874565,-9,-15,-5,3,-3,0,5,0
18:14:44:875310,3,-17,4,17,11,7,8,2
18:14:44:888957,5,-1,1,1,-2,-15,-18,-5
18:14:44:897068,5,-1,1,1,-2,-15,-18,-5
18:14:44:897854,-1,17,0,-21,-28,2,5,-4
18:14:44:911988,-3,2,9,17,2,-7,-10,0
18:14:44:912797,-3,2,9,17,2,-7,-10,0
18:14:44:918867,7,0,-11,-5,6,6,3,6
18:14:44:926330,-8,-10,-15,-46,-15,7,4,-1
18:14:44:934581,-8,-10,-15,-46,-15,7,4,-1
18:14:44:935309,-15,-23,2,-12,3,-5,-10,-5
18:14:44:949530,8,4,4,11,-8,7,3,5
18:14:44:950287,8,4,4,11,-8,7,3,5
18:14:44:956285,16,15,-23,-18,-12,-34,-24,-2
18:14:44:963793,3,-2,12,22,27,42,28,6
18:14:44:971401,3,-2,12,22,27,42,28,6
18:14:44:978851,4,6,-6,12,18,-1,2,4
18:14:44:986381,0,8,-1,22,-15,-15,-14,-2
18:14:44:994515,0,8,-1,22,-15,-15,-14,-2
18:14:44:995288,-10,-7,-1,2,14,6,2,-10
18:14:45:9485,-4,9,-21,-4,-4,-10,-12,-3
18:14:45:10292,-4,9,-21,-4,-4,-10,-12,-3
18:14:45:16356,-5,5,19,15,-7,12,-2,-4
18:14:45:23840,0,-3,2,23,20,-8,-2,-2
18:14:45:31375,0,-3,2,23,20,-8,-2,-2
18:14:45:38896,5,-2,-1,-6,12,14,16,1
18:14:45:46340,-1,8,16,-4,22,1,-9,-4
18:14:45:54615,-1,8,16,-4,22,1,-9,-4
18:14:45:55371,1,9,-1,16,-4,-1,3,-1
18:14:45:69596,10,-21,2,-13,2,7,12,5
18:14:45:70365,10,-21,2,-13,2,7,12,5
18:14:45:84540,-7,4,2,0,-9,-9,-9,-9
18:14:45:85217,-3,-8,-1,-5,8,-13,-20,-2
18:14:45:91379,-3,-8,-1,-5,8,-13,-20,-2
18:14:45:98875,1,-11,5,0,0,0,-1,6
18:14:45:106420,0,5,4,-8,5,7,-4,-2
18:14:45:114536,0,5,4,-8,5,7,-4,-2
18:14:45:115301,-1,15,-3,20,13,0,0,-2
18:14:45:129537,1,-14,-16,-7,-15,-3,4,-4
18:14:45:130355,1,-14,-16,-7,-15,-3,4,-4
18:14:45:136388,18,13,2,-14,5,11,-4,6
18:14:45:143875,-2,-16,-6,-11,-9,-1,-11,0
18:14:45:151391,-2,-16,-6,-11,-9,-1,-11,0
18:14:45:158835,-4,-9,-2,-19,-14,-15,7,-1
18:14:45:166312,8,26,-16,22,33,13,1,-5
18:14:45:174559,8,26,-16,22,33,13,1,-5
18:14:45:175296,-5,-7,-17,-30,-27,-6,-1,7
18:14:45:189536,-7,6,3,-5,6,7,0,1
18:14:45:190338,-7,6,3,-5,6,7,0,1
18:14:45:196291,-5,-10,31,33,24,12,10,-6
18:14:45:203964,-1,-12,-1,5,8,0,8,0
18:14:45:211391,-1,-12,-1,5,8,0,8,0
18:14:45:218879,4,-5,-3,-3,-12,-14,-20,2
18:14:45:226297,-7,2,0,12,-2,-12,5,4
18:14:45:233937,-7,2,0,12,-2,-12,5,4
18:14:45:241335,2,8,4,4,7,12,-1,-2
18:14:45:249505,-10,-5,-10,-12,-16,-10,-5,-6
18:14:45:250328,-10,-5,-10,-12,-16,-10,-5,-6
18:14:45:256316,0,3,1,5,5,9,18,8
18:14:45:271995,-3,-5,10,-7,-16,2,-1,0
18:14:45:272857,-3,-5,10,-7,-16,2,-1,0
18:14:45:278850,0,0,-4,-20,-31,-10,-6,-2
18:14:45:286395,-2,-10,-32,-42,-25,-6,-6,-4
18:14:45:293866,-2,-10,-32,-42,-25,-6,-6,-4
18:14:45:301303,3,5,35,-1,-2,-2,-1,-3
18:14:45:317645,-1,-2,7,24,-2,-9,-5,-3
18:14:45:318476,-1,-2,7,24,-2,-9,-5,-3
18:14:45:319266,4,2,3,32,27,0,3,-2
18:14:45:332572,-4,-5,-17,-15,-14,-12,-14,-5
18:14:45:333283,-4,-5,-17,-15,-14,-12,-14,-5
18:14:45:338863,0,-10,-6,-10,21,4,-14,-7
18:14:45:346310,1,11,5,-10,15,-2,-9,1
18:14:45:353908,1,11,5,-10,15,-2,-9,1
18:14:45:361355,-8,7,-6,1,-12,-11,-5,-1
18:14:45:377632,-3,-21,-15,11,7,0,10,-1
18:14:45:378402,-3,-21,-15,11,7,0,10,-1
18:14:45:379241,-10,-21,-7,-6,6,7,1,-7
18:14:45:392042,-1,2,-10,1,-11,6,4,8
18:14:45:392867,-1,2,-10,1,-11,6,4,8
18:14:45:398867,-5,6,-5,2,-15,-8,-5,-4
18:14:45:406422,1,6,20,-9,-26,-8,-2,-4
18:14:45:413899,1,6,20,-9,-26,-8,-2,-4
18:14:45:421332,-3,-14,-16,-26,-38,-22,-7,-2
18:14:45:429472,5,6,18,3,19,15,12,3
18:14:45:430325,5,6,18,3,19,15,12,3
18:14:45:436390,-3,4,8,21,25,17,9,8
18:14:45:452010,-9,-17,-2,13,2,-4,-16,-6
18:14:45:452859,-9,-17,-2,13,2,-4,-16,-6
18:14:45:458952,9,6,-42,-1,6,15,22,7
18:14:45:466359,6,10,-12,-18,-31,-10,-3,-3
18:14:45:473871,6,10,-12,-18,-31,-10,-3,-3
18:14:45:481328,-15,-9,0,-7,-12,-13,-22,-8
18:14:45:489551,8,23,16,-3,20,6,-7,6
18:14:45:490353,8,23,16,-3,20,6,-7,6
18:14:45:496318,6,-6,0,12,18,5,1,-4
18:14:45:511975,-7,-8,16,22,30,10,5,1
18:14:45:512824,-7,-8,16,22,30,10,5,1
18:14:45:518786,-13,-27,-24,-23,-20,-13,-12,-12
18:14:45:526312,-7,-21,-30,-20,-30,-6,14,1
18:14:45:550883,-7,-21,-30,-20,-30,-6,14,1
18:14:45:551652,-14,-7,21,32,30,7,-13,-10
18:14:45:552474,8,11,0,-1,-3,-1,0,-1
18:14:45:553317,8,11,0,-1,-3,-1,0,-1
18:14:45:563848,8,26,13,-9,-1,-1,7,6
18:14:45:572044,-11,2,7,-2,-6,-6,-5,-11
18:14:45:572881,-11,2,7,-2,-6,-6,-5,-11
18:14:45:578831,8,4,13,0,14,7,1,3
18:14:45:594497,0,-8,3,4,11,-4,3,4
18:14:45:595297,0,-8,3,4,11,-4,3,4
18:14:45:601310,-11,-7,12,1,4,6,-3,2
18:14:45:609523,0,11,-2,-18,-10,-2,-8,-6
18:14:45:610328,0,11,-2,-18,-10,-2,-8,-6
18:14:45:616291,-3,-12,-21,-17,-8,-9,1,4
18:14:45:633182,-7,4,11,19,14,15,8,-3
18:14:45:639624,-7,4,11,19,14,15,8,-3
18:14:45:640367,11,10,21,28,45,8,13,3
18:14:45:646306,-5,-8,2,-10,-31,-14,-2,-9
18:14:45:653966,-5,-8,2,-10,-31,-14,-2,-9
18:14:45:661312,-3,8,10,-15,-45,-7,21,1
18:14:45:669507,10,1,-3,-21,-9,-6,1,5
18:14:45:670292,10,1,-3,-21,-9,-6,1,5
18:14:45:683976,-6,2,-38,-9,-11,-13,-11,-9
18:14:45:692022,2,-4,-32,-31,-31,-4,-6,-1
18:14:45:692826,2,-4,-32,-31,-31,-4,-6,-1
18:14:45:698877,3,1,0,-3,8,6,-6,-2
18:14:45:706379,-14,-10,8,15,8,2,-1,-2
18:14:45:713898,-14,-10,8,15,8,2,-1,-2
18:14:45:721409,0,28,20,37,-10,-6,-2,6
18:14:45:729495,-1,3,1,3,-11,-23,-26,-3
18:14:45:730330,-1,3,1,3,-11,-23,-26,-3
18:14:45:736330,22,7,20,-23,-24,18,17,-2
18:14:45:752045,1,6,5,15,-6,1,-1,0
18:14:45:752902,1,6,5,15,-6,1,-1,0
18:14:45:758835,2,2,-2,-26,-9,-12,-1,4
18:14:45:766355,-1,-5,-9,15,24,7,4,-5
18:14:45:773982,-1,-5,-9,15,24,7,4,-5
18:14:45:781339,2,-6,-10,-5,-2,-1,-1,0
18:14:45:789561,-1,3,9,4,11,8,4,0
18:14:45:790375,-1,3,9,4,11,8,4,0
18:14:45:796271,-3,-2,9,14,11,1,-9,-3
18:14:45:811980,12,1,-1,12,9,-1,-1,1
18:14:45:812821,12,1,-1,12,9,-1,-1,1
18:14:45:818850,-9,-12,-5,-8,-6,-1,10,-2
18:14:45:826350,-3,6,32,6,-3,8,11,6
18:14:45:833847,-3,6,32,6,-3,8,11,6
18:14:45:841317,-8,-23,-20,5,-10,-19,-17,-5
18:14:45:849584,2,6,-30,-4,9,13,13,-1
18:14:45:850299,2,6,-30,-4,9,13,13,-1
18:14:45:856312,-3,-3,-2,9,15,14,-1,-1
18:14:45:872100,14,-3,-7,-13,-17,-7,5,7
18:14:45:872875,14,-3,-7,-13,-17,-7,5,7
18:14:45:878847,-1,-5,-9,-12,18,3,-8,1
18:14:45:886255,-12,-19,14,22,15,7,8,0
18:14:45:893832,-12,-19,14,22,15,7,8,0
18:14:45:909887,0,1,2,1,1,-7,-4,-1
18:14:45:910687,1,-7,12,-16,-16,-4,-5,-5
18:14:45:917017,1,-7,12,-16,-16,-4,-5,-5
18:14:45:917855,-7,-5,-7,5,14,-3,-6,-2
18:14:45:932054,-9,9,-7,5,-9,-1,1,-3
18:14:45:932839,-9,9,-7,5,-9,-1,1,-3
18:14:45:938783,-6,-10,-7,-4,-16,-3,5,-2
18:14:45:946291,-4,-7,-15,13,19,1,-4,-4
18:14:45:962004,-4,-7,-15,13,19,1,-4,-4
18:14:45:962821,-3,-17,5,-3,-1,3,-3,3
18:14:45:969615,-4,-2,4,7,11,-11,-19,-4
18:14:45:970369,-4,-2,4,7,11,-11,-19,-4
18:14:45:976275,10,11,3,20,9,-9,-2,0
18:14:45:991993,-4,4,-2,-1,-9,-3,-1,-5
18:14:45:992827,-4,4,-2,-1,-9,-3,-1,-5
18:14:45:998948,-11,-14,-24,-23,-16,-6,-1,0
18:14:46:6405,4,8,4,0,16,6,-8,0
18:14:46:13916,4,8,4,0,16,6,-8,0
18:14:46:21402,-1,11,1,3,-2,6,7,-3
18:14:46:29514,-3,-10,-5,-20,-22,-13,-4,0
18:14:46:30338,-3,-10,-5,-20,-22,-13,-4,0
18:14:46:36321,0,4,13,-2,-11,0,-2,-7
18:14:46:52092,7,5,-6,-6,-6,-3,9,-2
18:14:46:52860,7,5,-6,-6,-6,-3,9,-2
18:14:46:58830,1,-11,3,-18,-9,-3,-8,2
18:14:46:66267,-11,-4,5,-18,-13,-1,-2,0
18:14:46:73952,-11,-4,5,-18,-13,-1,-2,0
18:14:46:81330,5,3,-22,0,-6,0,4,2
18:14:46:89546,7,3,2,2,13,1,-2,0
18:14:46:90341,7,3,2,2,13,1,-2,0
18:14:46:96317,-8,4,-11,-2,-5,-7,10,-7
18:14:46:112002,-10,-8,-19,-10,-7,3,3,6
18:14:46:112822,-10,-8,-19,-10,-7,3,3,6
18:14:46:118900,-9,-11,3,15,0,0,-6,-5
18:14:46:126280,10,-3,-6,15,2,0,8,4
18:14:46:133937,10,-3,-6,15,2,0,8,4
18:14:46:141334,5,8,-8,0,8,-2,-2,7
18:14:46:149581,-10,13,6,-10,-2,-2,-9,-10
18:14:46:150391,-10,13,6,-10,-2,-2,-9,-10
18:14:46:163921,13,4,-1,-3,-7,-2,-5,5
18:14:46:172124,10,12,8,-15,0,-3,-12,-3
18:14:46:172853,10,12,8,-15,0,-3,-12,-3
18:14:46:178854,-2,-9,16,-1,-1,-2,-4,-6
18:14:46:194505,-8,-8,-2,-8,-3,5,12,-2
18:14:46:195307,-8,-8,-2,-8,-3,5,12,-2
18:14:46:201441,2,-1,18,1,4,-8,4,2
18:14:46:209501,1,8,1,13,13,-7,-1,1
18:14:46:210323,1,8,1,13,13,-7,-1,1
18:14:46:223911,-5,-2,10,26,1,8,9,3
18:14:46:232053,1,-10,-1,-11,1,-1,-5,3
18:14:46:232841,1,-10,-1,-11,1,-1,-5,3
18:14:46:238856,2,8,4,7,23,0,-24,-9
18:14:46:254565,-1,4,-4,18,13,7,11,2
18:14:46:255353,-1,4,-4,18,13,7,11,2
18:14:46:261269,-7,-14,-5,-16,-20,-9,-5,-6
18:14:46:269674,2,-1,3,5,-18,-11,-15,-5
18:14:46:270387,2,-1,3,5,-18,-11,-15,-5
18:14:46:283839,-7,-6,14,-7,-2,-9,-6,-8
18:14:46:291987,-20,-11,-11,2,-13,-3,-8,-6
18:14:46:292830,-20,-11,-11,2,-13,-3,-8,-6
18:14:46:298893,-8,7,-31,-13,1,3,15,10
18:14:46:314534,5,2,1,-6,-10,2,2,3
18:14:46:315296,5,2,1,-6,-10,2,2,3
18:14:46:330163,0,-4,-11,-6,-11,-7,-27,-4
18:14:46:330955,-17,-13,-4,-5,-7,-3,20,-5
18:14:46:331825,-17,-13,-4,-5,-7,-3,20,-5
18:14:46:343835,9,5,-4,6,34,10,9,9
18:14:46:352073,5,6,1,17,15,8,-22,-1
18:14:46:352865,5,6,1,17,15,8,-22,-1
18:14:46:358812,-10,-24,-9,-6,-12,10,26,6
18:14:46:374618,-5,-9,-1,8,31,0,3,-2
18:14:46:375377,-5,-9,-1,8,31,0,3,-2
18:14:46:381359,12,23,-1,-11,-18,-6,-21,-7
18:14:46:389501,-13,-15,-12,-6,-5,-14,-21,-12
18:14:46:390333,-13,-15,-12,-6,-5,-14,-21,-12
18:14:46:403957,1,2,-25,-4,6,4,-1,-5
18:14:46:412010,20,23,39,-7,-8,3,2,8
18:14:46:412819,20,23,39,-7,-8,3,2,8
18:14:46:426409,5,-6,6,2,-6,-8,-10,-3
18:14:46:434586,5,-6,6,2,-6,-8,-10,-3
18:14:46:435376,9,2,-20,7,-1,4,19,4
18:14:46:441345,-19,4,18,-1,-7,0,5,-1
18:14:46:449669,-19,4,18,-1,-7,0,5,-1
18:14:46:450412,-7,-33,-40,-36,-24,-10,-6,-5
18:14:46:472815,2,-1,-7,-6,0,3,0,0
18:14:46:473549,2,-1,-7,-6,0,3,0,0
18:14:46:474346,-11,-5,-11,-10,-3,-2,-11,-1
18:14:46:478769,2,-3,21,8,1,1,9,1
18:14:46:494489,2,-3,21,8,1,1,9,1
18:14:46:495280,5,8,29,-6,-1,-5,-4,-2
18:14:46:501523,-16,-4,-4,7,13,-4,6,-4
18:14:46:517049,-16,-4,-4,7,13,-4,6,-4
18:14:46:517904,-7,-12,6,9,-6,-7,-24,-8
18:14:46:523976,13,3,18,-4,-36,-3,6,11
18:14:46:532026,13,3,18,-4,-36,-3,6,11
18:14:46:532895,5,12,5,-6,2,1,-8,9
18:14:46:538899,5,4,-15,-3,-2,-2,-6,-6
18:14:46:555245,5,4,-15,-3,-2,-2,-6,-6
18:14:46:556050,-10,-21,-3,-8,-8,-2,10,-11
18:14:46:561329,-1,13,-2,5,3,-2,-8,-5
18:14:46:569632,-1,13,-2,5,3,-2,-8,-5
18:14:46:570385,9,-11,-15,-6,1,11,19,6
18:14:46:583931,-8,-3,-1,1,16,0,-8,-5
18:14:46:591952,-8,-3,-1,1,16,0,-8,-5
18:14:46:592824,12,7,-8,9,4,-2,2,1
18:14:46:598862,2,-10,-6,12,5,2,-4,0
18:14:46:614554,2,-10,-6,12,5,2,-4,0
18:14:46:615324,-6,5,4,-8,-17,-5,3,4
18:14:46:621428,2,8,13,0,9,3,4,-1
18:14:46:629467,2,8,13,0,9,3,4,-1
18:14:46:630274,-1,1,7,7,-7,2,1,3
18:14:46:643873,-16,-14,-4,-1,1,0,-1,0
18:14:46:652106,-16,-14,-4,-1,1,0,-1,0
18:14:46:652867,9,10,7,14,25,12,30,6
18:14:46:658832,-7,-7,-10,-3,-6,0,6,-8
18:14:46:674671,-7,-7,-10,-3,-6,0,6,-8
18:14:46:675329,16,8,-19,10,21,0,-9,1
18:14:46:681390,22,19,-12,-4,-15,-5,5,12
18:14:46:689501,22,19,-12,-4,-15,-5,5,12
18:14:46:690348,-2,3,-10,-4,5,-2,-1,-6
18:14:46:703959,-7,-32,4,-6,-3,11,15,3
18:14:46:712052,-7,-32,4,-6,-3,11,15,3
18:14:46:712881,-5,-2,14,1,-4,-8,-18,-6
18:14:46:718907,-3,-2,0,-8,-2,-6,-1,-10
18:14:46:734594,-3,-2,0,-8,-2,-6,-1,-10
18:14:46:735351,-10,-4,-20,3,16,-1,6,-1
18:14:46:741340,-3,-2,4,-1,-2,-7,-20,-3
18:14:46:749517,-3,-2,4,-1,-2,-7,-20,-3
18:14:46:750409,-3,-2,24,15,-10,1,21,-3
18:14:46:763834,4,-5,0,6,12,3,1,4
18:14:46:772082,4,-5,0,6,12,3,1,4
18:14:46:772926,-8,-2,-17,-16,-13,-9,-17,-5
18:14:46:778857,-3,3,-7,-3,-33,-12,-6,-3
18:14:46:794514,-3,3,-7,-3,-33,-12,-6,-3
18:14:46:795287,13,3,14,12,9,5,-1,2
18:14:46:801402,-8,11,-6,-4,-22,2,-2,0
18:14:46:809592,-8,11,-6,-4,-22,2,-2,0
18:14:46:810287,-7,-1,0,-10,10,2,-9,-1
18:14:46:823887,6,0,-21,1,19,11,21,9
18:14:46:832030,6,0,-21,1,19,11,21,9
18:14:46:832906,2,11,10,-2,-6,0,6,-4
18:14:46:838832,13,23,22,6,0,-7,-15,4
18:14:46:855107,13,23,22,6,0,-7,-15,4
18:14:46:855851,-8,-12,-4,-5,-8,-8,3,0
18:14:46:861297,0,-10,-8,-16,-13,-7,-5,-8
18:14:46:869698,0,-10,-8,-16,-13,-7,-5,-8
18:14:46:870307,-8,-1,-7,-29,-30,-11,-23,-6
18:14:46:883852,-5,3,-28,-10,12,1,-19,-11
18:14:46:892001,-5,3,-28,-10,12,1,-19,-11
18:14:46:892837,-3,-9,-1,-13,-19,2,8,-1
18:14:46:898843,10,13,4,7,14,1,-3,0
18:14:46:914506,10,13,4,7,14,1,-3,0
18:14:46:915263,27,24,4,15,8,-5,-31,17
18:14:46:921397,-7,-23,-4,7,6,22,32,7
18:14:46:929563,-7,-23,-4,7,6,22,32,7
18:14:46:930290,8,1,2,4,5,7,14,3
18:14:46:943898,-4,1,-7,-14,-21,-25,-23,-12
18:14:46:952149,-4,1,-7,-14,-21,-25,-23,-12
18:14:46:952832,-12,-15,2,-2,-1,0,-6,-6
18:14:46:958773,2,-3,-8,-1,-3,5,2,-3
18:14:46:974973,2,-3,-8,-1,-3,5,2,-3
18:14:46:982015,-12,-30,-37,-5,-5,-14,-14,-8
18:14:46:982897,-4,-28,6,-3,1,-11,2,-4
18:14:46:989643,-4,-28,6,-3,1,-11,2,-4
18:14:46:990358,-3,11,0,10,29,11,9,4
18:14:47:3869,-8,3,-11,1,3,-7,-2,-1
18:14:47:11891,-8,3,-11,1,3,-7,-2,-1
18:14:47:26966,1,-5,-7,0,-10,-3,5,-5
18:14:47:27738,0,7,10,-21,-7,-17,-49,-10
18:14:47:34583,0,7,10,-21,-7,-17,-49,-10
18:14:47:35272,-21,-24,0,-4,-10,-2,-15,-3
18:14:47:41402,-11,-7,-16,-6,-11,-2,6,1
18:14:47:49523,-11,-7,-16,-6,-11,-2,6,1
18:14:47:50302,9,18,13,31,30,12,4,3
18:14:47:63884,-3,9,18,9,7,2,4,-3
18:14:47:72071,-3,9,18,9,7,2,4,-3
18:14:47:72906,-10,0,10,3,-13,-6,-2,-5
18:14:47:78892,4,2,8,-2,1,1,-12,4
18:14:47:94548,4,2,8,-2,1,1,-12,4
18:14:47:95327,9,13,15,-3,-13,2,19,6
18:14:47:101347,-6,-9,13,5,8,8,11,2
18:14:47:108840,-6,-9,13,5,8,8,11,2
18:14:47:116381,7,12,5,-7,4,7,8,0
18:14:47:123909,-22,-20,-1,-1,5,-3,-3,-6
18:14:47:131987,-22,-20,-1,-1,5,-3,-3,-6
18:14:47:132876,-9,-7,-16,2,7,-5,1,-8
18:14:47:146353,9,8,4,5,-2,2,11,7
18:14:47:154335,9,8,4,5,-2,2,11,7
18:14:47:161973,10,0,-4,-14,-5,-1,19,1
18:14:47:162837,15,16,2,6,13,14,27,7
18:14:47:168954,15,16,2,6,13,14,27,7
18:14:47:176308,8,0,8,-7,-16,-13,-21,0
18:14:47:183791,-11,-5,-7,2,-12,-3,3,4
18:14:47:192139,-11,-5,-7,2,-12,-3,3,4
18:14:47:192916,-4,-3,14,29,10,6,6,1
18:14:47:206351,-2,5,5,2,2,7,24,2
18:14:47:214480,-2,5,5,2,2,7,24,2
18:14:47:215272,-12,-3,15,0,4,5,12,-4
18:14:47:221351,-11,-1,6,-3,-12,-7,-6,-12
18:14:47:228852,-11,-1,6,-3,-12,-7,-6,-12
18:14:47:236412,3,26,6,6,16,5,-11,5
18:14:47:243778,6,6,11,4,2,-10,-11,-5
18:14:47:259478,6,6,11,4,2,-10,-11,-5
18:14:47:260308,-11,5,-22,-18,-4,-2,2,-5
18:14:47:266423,-2,1,-16,-6,-8,-2,1,-4
18:14:47:274622,-2,1,-16,-6,-8,-2,1,-4
18:14:47:275378,5,-1,-2,-13,-11,-8,-13,1
18:14:47:281338,24,33,13,4,1,11,18,3
18:14:47:288905,24,33,13,4,1,11,18,3
18:14:47:296309,-10,-18,-48,-18,-9,-6,-8,-9
18:14:47:303847,-3,-12,-1,0,3,1,24,0
18:14:47:312080,-3,-12,-1,0,3,1,24,0
18:14:47:312853,-4,-2,17,16,13,9,2,0
18:14:47:326368,-3,-1,-10,-13,-4,-19,-43,-11
18:14:47:334553,-3,-1,-10,-13,-4,-19,-43,-11
18:14:47:335308,2,-11,1,10,9,1,4,-1
18:14:47:341356,-5,1,-4,-6,-10,2,-10,-2
18:14:47:348899,-5,1,-4,-6,-10,2,-10,-2
18:14:47:356315,-3,-3,-21,-9,-13,-10,-3,-3
18:14:47:363976,6,3,-5,0,16,0,12,5
18:14:47:372022,6,3,-5,0,16,0,12,5
18:14:47:372882,-2,-8,17,-9,-18,-14,-19,-7
18:14:47:386399,-11,-7,18,13,7,1,2,0
18:14:47:402700,-11,-7,18,13,7,1,2,0
18:14:47:403507,4,10,12,13,-11,-1,-6,3
18:14:47:404302,-3,-14,-29,-21,-11,-10,-24,-6
18:14:47:408840,-3,-14,-29,-21,-11,-10,-24,-6
18:14:47:416383,-12,-8,-1,-11,12,13,16,-5
18:14:47:423910,7,11,-1,3,-3,6,2,3
18:14:47:432103,7,11,-1,3,-3,6,2,3
18:14:47:432849,11,-1,-9,-9,4,-4,11,8
18:14:47:446307,-5,-15,7,-11,-19,-11,-4,-3
18:14:47:454569,-5,-15,7,-11,-19,-11,-4,-3
18:14:47:455332,-7,8,13,1,-21,-6,-17,-11
18:14:47:461305,-5,-10,7,11,-1,-3,0,-3
18:14:47:468984,-5,-10,7,11,-1,-3,0,-3
18:14:47:484482,5,13,13,-2,-2,-2,-6,1
18:14:47:485240,3,2,-19,4,27,13,8,-2
18:14:47:492084,3,2,-19,4,27,13,8,-2
18:14:47:492858,-11,11,-18,-8,-2,-6,-8,-2
18:14:47:506361,2,-3,9,-19,-19,-3,-6,3
18:14:47:514651,2,-3,9,-19,-19,-3,-6,3
18:14:47:515333,6,9,-3,8,3,5,1,2
18:14:47:529515,-2,-8,19,7,-6,-13,-13,-5
18:14:47:530318,-2,-8,19,7,-6,-13,-13,-5
18:14:47:544519,-1,-24,-4,-5,-2,-2,2,2
18:14:47:545298,-8,-23,-25,-3,-5,0,-4,0
18:14:47:552048,-8,-23,-25,-3,-5,0,-4,0
18:14:47:552919,-5,-15,1,3,13,6,6,1
18:14:47:566379,14,10,6,12,13,14,18,2
18:14:47:574554,14,10,6,12,13,14,18,2
18:14:47:575299,3,-6,-9,-3,-2,-4,21,-2
18:14:47:581376,8,10,-3,1,7,4,-1,3
18:14:47:588995,8,10,-3,1,7,4,-1,3
18:14:47:596298,-1,-10,3,-4,1,-13,-31,-3
18:14:47:603798,-4,-12,7,3,2,-8,13,0
18:14:47:612025,-4,-12,7,3,2,-8,13,0
18:14:47:612856,-2,5,-20,0,1,-4,4,0
18:14:47:635219,-2,2,5,3,9,8,-8,1
18:14:47:636010,-2,2,5,3,9,8,-8,1
18:14:47:636890,7,2,-6,-3,-15,0,-3,2
18:14:47:641394,-4,0,-24,-7,12,2,-19,0
18:14:47:648916,-4,0,-24,-7,12,2,-19,0
18:14:47:656334,1,-19,-3,-1,1,-5,-16,0
18:14:47:663881,8,0,9,-4,-14,-6,-9,-3
18:14:47:679582,8,0,9,-4,-14,-6,-9,-3
18:14:47:680352,-12,9,11,-11,0,7,17,-3
18:14:47:686398,-5,0,4,2,-4,-7,-13,-6
18:14:47:694507,-5,0,4,2,-4,-7,-13,-6
18:14:47:695279,3,-2,-8,-2,-4,-10,-18,-4
18:14:47:701342,9,10,-14,7,6,4,10,5
18:14:47:708840,9,10,-14,7,6,4,10,5
18:14:47:724519,9,4,6,2,-3,4,4,16
18:14:47:725282,-4,-2,-11,-6,7,7,10,-3
18:14:47:732018,-4,-2,-11,-6,7,7,10,-3
18:14:47:732889,-6,-1,3,2,-8,-10,-17,-8
18:14:47:746296,10,16,8,-1,-4,-4,-15,-3
18:14:47:754508,10,16,8,-1,-4,-4,-15,-3
18:14:47:755299,-7,-25,-12,-9,-2,8,-1,-4
18:14:47:769561,-9,-2,-1,4,-7,-12,-16,-4
18:14:47:770372,-9,-2,-1,4,-7,-12,-16,-4
18:14:47:776308,5,11,14,6,0,-7,4,0
18:14:47:783837,-2,-12,-7,-5,-6,-7,5,6
18:14:47:792030,-2,-12,-7,-5,-6,-7,5,6
18:14:47:792838,-5,2,-9,9,9,5,33,1
18:14:47:806441,-9,1,28,-2,-8,5,10,-1
18:14:47:814530,-9,1,28,-2,-8,5,10,-1
18:14:47:815313,2,-11,-13,3,6,-3,-16,-3
18:14:47:821279,-10,-6,11,4,-1,-3,-6,-7
18:14:47:828879,-10,-6,11,4,-1,-3,-6,-7
18:14:47:836447,-15,-8,18,-16,-21,-4,11,-8
18:14:47:852775,-2,2,-2,0,2,-3,7,2
18:14:47:853500,-2,2,-2,0,2,-3,7,2
18:14:47:854330,1,5,-15,-5,8,7,-4,-1
18:14:47:866323,-6,-6,-1,0,-5,-10,-27,0
18:14:47:874567,-6,-6,-1,0,-5,-10,-27,0
18:14:47:875315,7,16,28,14,11,0,2,3
18:14:47:881493,-10,-12,-1,17,16,5,-8,-4
18:14:47:888917,-10,-12,-1,17,16,5,-8,-4
18:14:47:896336,-4,-1,15,8,14,10,10,-5
18:14:47:903981,0,3,-15,-11,-3,5,24,7
18:14:47:912024,0,3,-15,-11,-3,5,24,7
18:14:47:912853,6,13,25,3,-13,3,-4,2
18:14:47:926288,8,8,-11,-9,-17,-8,-12,5
18:14:47:934662,8,8,-11,-9,-17,-8,-12,5
18:14:47:935337,9,13,-15,-16,-6,2,-5,1
18:14:47:941363,-7,-16,1,-17,-18,1,3,-8
18:14:47:948918,-7,-16,1,-17,-18,1,3,-8
18:14:47:956418,-14,-14,-24,-11,-11,-12,-6,-9
18:14:47:963907,4,5,19,-2,-9,-9,8,2
18:14:47:972013,4,5,19,-2,-9,-9,8,2
18:14:47:972871,-5,-1,-19,-27,-10,-6,-8,-6
18:14:47:986413,8,-9,-6,1,1,1,2,2
18:14:47:994502,8,-9,-6,1,1,1,2,2
18:14:47:995271,11,24,18,12,2,7,-1,7
18:14:48:1385,-20,-16,3,-5,0,-5,4,-8
18:14:48:8987,-20,-16,3,-5,0,-5,4,-8
18:14:48:24520,16,-2,-10,2,10,-4,5,6
18:14:48:25272,-3,2,-26,2,7,1,-12,0
18:14:48:39580,-3,2,-26,2,7,1,-12,0
18:14:48:40340,2,5,4,10,7,4,-1,-2
18:14:48:46326,-6,-6,-12,-2,0,9,39,6
18:14:48:54555,-6,-6,-12,-2,0,9,39,6
18:14:48:55377,1,-5,9,7,2,0,7,-2
18:14:48:69537,8,-1,-23,-8,0,4,1,2
18:14:48:70401,8,-1,-23,-8,0,4,1,2
18:14:48:76287,-5,2,2,-1,8,10,-3,-1
18:14:48:83989,-7,-6,-7,12,5,-2,11,-12
18:14:48:91424,-7,-6,-7,12,5,-2,11,-12
18:14:48:98878,2,-6,-9,7,3,-9,-17,-4
18:14:48:106445,6,22,16,-4,-5,-4,-17,-2
18:14:48:114518,6,22,16,-4,-5,-4,-17,-2
18:14:48:115288,-8,-7,-25,-4,-1,-6,4,-3
18:14:48:129247,-1,2,25,0,-5,-8,-7,-2
18:14:48:137079,-1,2,25,0,-5,-8,-7,-2
18:14:48:137883,-10,-5,-10,-19,-9,-3,-16,-3
18:14:48:143879,5,13,19,-3,-1,-1,-5,-1
18:14:48:151333,5,13,19,-3,-1,-1,-5,-1
18:14:48:158884,-7,-6,-5,-5,-4,-9,-10,-5
18:14:48:166374,6,-1,-5,3,2,12,32,9
18:14:48:174516,6,-1,-5,3,2,12,32,9
18:14:48:175270,-8,-7,-3,5,11,5,-7,0
18:14:48:189527,0,6,4,0,-7,-2,-9,-6
18:14:48:190316,0,6,4,0,-7,-2,-9,-6
18:14:48:196347,6,-9,-1,-2,-15,-7,-5,5
18:14:48:204030,1,-5,-11,-2,1,0,11,-2
18:14:48:211381,1,-5,-11,-2,1,0,11,-2
18:14:48:218812,-8,-4,-10,-10,-1,0,5,-6
18:14:48:226251,-4,-11,-13,-6,1,-3,-23,-1
18:14:48:234560,-4,-11,-13,-6,1,-3,-23,-1
18:14:48:235317,-6,-4,27,8,4,-4,9,-1
18:14:48:249528,2,6,18,16,16,1,-20,5
18:14:48:250326,2,6,18,16,16,1,-20,5
18:14:48:256359,0,-9,-10,1,-13,-8,-3,-6
18:14:48:263785,-9,14,9,9,16,-4,-6,-9
18:14:48:271339,-9,14,9,9,16,-4,-6,-9
18:14:48:278791,1,3,-12,3,2,15,43,7
18:14:48:286355,11,6,-20,-6,-7,-3,-2,-1
18:14:48:301993,11,6,-20,-6,-7,-3,-2,-1
18:14:48:302889,-7,-7,9,5,-2,2,-18,-8
18:14:48:309609,0,-4,-8,-1,5,5,-6,5
18:14:48:310300,0,-4,-8,-1,5,5,-6,5
18:14:48:324536,2,2,5,3,3,-8,-19,-3
18:14:48:325281,-9,-23,-2,-1,-10,0,26,-3
18:14:48:331511,-9,-23,-2,-1,-10,0,26,-3
18:14:48:346973,6,25,18,8,0,8,28,6
18:14:48:347759,-3,16,8,8,-2,-4,-13,2
18:14:48:354410,-3,16,8,8,-2,-4,-13,2
18:14:48:361326,-4,-1,-1,8,1,1,-3,-5
18:14:48:369488,-12,-21,5,-4,-6,3,34,-3
18:14:48:370318,-12,-21,5,-4,-6,3,34,-3
18:14:48:376270,0,-10,-19,-6,11,-5,-24,-2
18:14:48:392030,7,9,-2,-6,1,2,-12,-3
18:14:48:392849,7,9,-2,-6,1,2,-12,-3
18:14:48:398892,6,-5,-1,-13,-9,2,24,7
18:14:48:406427,14,-11,6,2,-3,-5,8,2
18:14:48:414517,14,-11,6,2,-3,-5,8,2
18:14:48:415296,-6,-7,-5,14,19,0,-11,1
18:14:48:429476,-10,3,-18,-9,-8,-4,-10,-4
18:14:48:430309,-10,3,-18,-9,-8,-4,-10,-4
18:14:48:436366,-10,3,-7,-8,-9,1,-11,-7
18:14:48:443867,-2,-17,-16,-10,1,-6,-9,0
18:14:48:451404,-2,-17,-16,-10,1,-6,-9,0
18:14:48:458860,7,5,-1,0,-5,-15,-18,2
18:14:48:466289,-12,-8,10,1,-6,-2,8,1
18:14:48:474532,-12,-8,10,1,-6,-2,8,1
18:14:48:475314,-8,-23,11,-12,-1,9,18,-5
18:14:48:489514,15,7,-4,-6,-8,-5,-17,3
18:14:48:490347,15,7,-4,-6,-8,-5,-17,3
18:14:48:496279,1,-3,-23,-5,-8,-12,-8,-3
18:14:48:503798,0,-1,1,2,3,5,11,-2
18:14:48:511357,0,-1,1,2,3,5,11,-2
18:14:48:518833,3,11,4,-5,-4,8,7,2
18:14:48:535285,-2,4,2,4,-1,-7,-14,0
18:14:48:535970,-2,4,2,4,-1,-7,-14,0
18:14:48:536747,8,16,-6,-4,-5,-2,-9,1
18:14:48:549445,-3,-2,0,2,4,0,-6,-2
18:14:48:550260,-3,-2,0,2,4,0,-6,-2
18:14:48:556349,0,-1,-7,4,3,14,41,9
18:14:48:563778,-2,7,-16,-12,-11,1,-11,-6
18:14:48:571340,-2,7,-16,-12,-11,1,-11,-6
18:14:48:578791,-10,-22,-1,3,-6,-5,-5,-3
18:14:48:586309,1,3,0,1,-1,3,1,1
18:14:48:594535,1,3,0,1,-1,3,1,1
18:14:48:595294,-3,3,5,-4,-11,-24,-42,-13
18:14:48:609498,1,-6,3,-14,-6,-9,6,3
18:14:48:610294,1,-6,3,-14,-6,-9,6,3
18:14:48:616302,5,3,8,-4,7,-3,-14,-7
18:14:48:623786,17,19,-7,-7,-5,4,16,4
18:14:48:631449,17,19,-7,-7,-5,4,16,4
18:14:48:638857,0,-2,12,7,2,3,5,0
18:14:48:646320,-16,-17,-3,10,16,6,-7,-1
18:14:48:654540,-16,-17,-3,10,16,6,-7,-1
18:14:48:655357,-3,-7,6,-6,-2,-8,-30,-10
18:14:48:669549,-11,-4,-14,-9,-13,-16,-18,-11
18:14:48:670322,-11,-4,-14,-9,-13,-16,-18,-11
18:14:48:676277,12,22,-1,-2,-7,-5,-2,0
18:14:48:692016,-4,2,11,5,3,5,-11,-3
18:14:48:692847,-4,2,11,5,3,5,-11,-3
18:14:48:698808,-9,-13,-10,-7,-5,-3,-19,-5
18:14:48:706422,-8,-6,6,4,-2,1,-11,-7
18:14:48:714569,-8,-6,6,4,-2,1,-11,-7
18:14:48:715297,-4,5,-10,3,6,3,0,3
18:14:48:729477,0,2,9,-4,1,9,28,4
18:14:48:730345,0,2,9,-4,1,9,28,4
18:14:48:736316,-6,-2,10,0,-4,-3,9,7
18:14:48:743800,3,-8,-4,-6,-8,-17,-17,0
18:14:48:751389,3,-8,-4,-6,-8,-17,-17,0
18:14:48:758792,2,4,14,4,-5,9,10,1
18:14:48:766304,11,6,-11,8,14,30,56,18
18:14:48:774453,11,6,-11,8,14,30,56,18
18:14:48:775276,-17,-13,-12,-6,1,-2,-4,-1
18:14:48:789570,2,5,1,0,-5,-11,-23,-4
18:14:48:790364,2,5,1,0,-5,-11,-23,-4
18:14:48:796363,0,-6,-12,-2,-4,-2,22,-1
18:14:48:803885,-13,-15,0,-8,-10,-16,-61,-8
18:14:48:811335,-13,-15,0,-8,-10,-16,-61,-8
18:14:48:818950,6,13,-2,-2,0,1,-9,3
18:14:48:826336,-7,-5,4,2,2,0,-10,-6
18:14:48:834574,-7,-5,4,2,2,0,-10,-6
18:14:48:835299,-1,-4,-5,-6,-3,4,9,-4
18:14:48:849551,12,2,-3,6,4,-3,-1,-2
18:14:48:850377,12,2,-3,6,4,-3,-1,-2
18:14:48:856426,-19,-30,-9,2,2,-5,-3,-4
18:14:48:863867,-7,5,11,10,-1,1,9,-5
18:14:48:871343,-7,5,11,10,-1,1,9,-5
18:14:48:878794,-2,-21,-31,-16,-2,-6,-16,-1
18:14:48:886429,12,-1,8,8,8,9,23,4
18:14:48:894503,12,-1,8,8,8,9,23,4
18:14:48:895284,0,-2,-13,-7,-9,-3,-6,-3
18:14:48:909284,9,5,-1,-1,-1,-9,26,4
18:14:48:917030,9,5,-1,-1,-1,-9,26,4
18:14:48:917866,3,18,8,-8,-1,7,9,2
18:14:48:923899,-2,4,-3,-10,1,-2,-28,-6
18:14:48:931383,-2,4,-3,-10,1,-2,-28,-6
18:14:48:938890,6,5,22,3,1,1,25,4
18:14:48:946274,4,13,17,4,2,6,27,5
18:14:48:954522,4,13,17,4,2,6,27,5
18:14:48:955301,-10,-21,-8,0,-2,-6,-19,-11
18:14:48:969523,0,11,-9,4,3,-2,-6,1
18:14:48:970347,0,11,-9,4,3,-2,-6,1
18:14:48:976310,6,9,10,13,5,-1,18,3
18:14:48:983873,-10,-17,-2,-5,4,-2,1,-8
18:14:48:991401,-10,-17,-2,-5,4,-2,1,-8
18:14:48:998816,3,-12,-7,3,2,5,16,3
18:14:49:6425,-9,-10,-19,-5,-7,-3,-9,-1
18:14:49:13960,-9,-10,-19,-5,-7,-3,-9,-1
18:14:49:21329,-1,5,-7,-6,-5,-5,-4,2
18:14:49:29463,9,0,-12,0,2,13,8,0
18:14:49:30343,9,0,-12,0,2,13,8,0
18:14:49:36329,13,12,14,-6,-3,-4,0,-3
18:14:49:52022,-8,-4,8,0,-4,-9,-6,-12
18:14:49:52907,-8,-4,8,0,-4,-9,-6,-12
18:14:49:58785,-2,11,0,6,-5,4,11,5
18:14:49:66340,-11,-25,-25,-7,-2,3,-7,4
18:14:49:73877,-11,-25,-25,-7,-2,3,-7,4
18:14:49:81478,10,9,-1,-3,-3,-13,-28,-1
18:14:49:89470,20,14,12,5,6,3,1,0
18:14:49:90310,20,14,12,5,6,3,1,0
18:14:49:96293,-9,-2,6,-7,3,3,12,6
18:14:49:111969,-1,1,17,0,-6,-4,-7,2
18:14:49:112773,-1,1,17,0,-6,-4,-7,2
18:14:49:118892,-3,-25,2,1,2,6,-4,-4
18:14:49:126288,-13,-13,1,2,2,-9,-16,-4
18:14:49:134010,-13,-13,1,2,2,-9,-16,-4
18:14:49:141306,7,11,-23,4,5,7,8,2
18:14:49:149271,-5,3,3,-6,6,5,-3,2
18:14:49:157119,-5,3,3,-6,6,5,-3,2
18:14:49:157888,-1,-3,5,-8,-12,-15,-23,4
18:14:49:172033,1,9,-5,-3,-2,3,13,1
18:14:49:172858,1,9,-5,-3,-2,3,13,1
18:14:49:178766,-1,-11,-10,0,0,-2,21,-3
18:14:49:186366,-3,4,17,5,-6,5,18,7
18:14:49:193865,-3,4,17,5,-6,5,18,7
18:14:49:201353,4,20,18,11,-5,-6,-9,-7
18:14:49:209639,-1,-16,-10,0,4,-8,-5,0
18:14:49:210287,-1,-16,-10,0,4,-8,-5,0
18:14:49:216333,-3,-6,-5,-7,-5,7,4,3
18:14:49:232094,0,7,-8,-5,-10,2,2,-3
18:14:49:232872,0,7,-8,-5,-10,2,2,-3
18:14:49:238819,-7,-7,-7,7,8,-9,-29,-6
18:14:49:246314,17,21,8,1,4,5,16,5
18:14:49:253924,17,21,8,1,4,5,16,5
18:14:49:261302,-9,-4,-6,-8,-4,-5,-3,2
18:14:49:269508,7,3,2,6,2,-13,-15,-10
18:14:49:270295,7,3,2,6,2,-13,-15,-10
18:14:49:276281,5,9,-7,-1,2,0,-15,2
18:14:49:292045,-7,-9,1,3,-5,-4,-30,-7
18:14:49:292889,-7,-9,1,3,-5,-4,-30,-7
18:14:49:298835,2,0,-2,0,4,9,13,2
18:14:49:306373,-13,-8,4,-12,-1,1,-33,-8
18:14:49:313912,-13,-8,4,-12,-1,1,-33,-8
18:14:49:321338,6,15,11,0,4,9,22,4
18:14:49:329469,-9,-19,-9,-10,-5,0,-1,-1
18:14:49:330275,-9,-19,-9,-10,-5,0,-1,-1
18:14:49:336363,-6,-10,0,6,-2,14,13,-1
18:14:49:352029,-4,4,1,10,-2,-3,2,3
18:14:49:352864,-4,4,1,10,-2,-3,2,3
18:14:49:358916,-11,-39,5,-4,-6,1,4,-1
18:14:49:366316,-16,-7,-15,-8,-2,-1,17,-8
18:14:49:373910,-16,-7,-15,-8,-2,-1,17,-8
18:14:49:381335,-1,13,11,2,4,-9,-4,-3
18:14:49:389537,-3,-42,-24,-7,-7,-2,13,1
18:14:49:390319,-3,-42,-24,-7,-7,-2,13,1
18:14:49:396297,6,4,-16,-9,1,-7,-11,-6
18:14:49:411972,-2,15,-4,-4,0,-3,4,6
18:14:49:412781,-2,15,-4,-4,0,-3,4,6
18:14:49:418903,6,6,20,-7,-2,0,-5,2
18:14:49:426288,-8,6,-2,5,7,-22,-41,-8
18:14:49:433979,-8,6,-2,5,7,-22,-41,-8
18:14:49:441309,-3,8,5,10,7,9,22,-3
18:14:49:449482,-20,-12,-8,-11,-24,-19,-33,-4
18:14:49:450345,-20,-12,-8,-11,-24,-19,-33,-4
18:14:49:456422,-12,3,13,0,-5,-2,-5,-4
18:14:49:472114,28,10,4,-2,2,9,21,-4
18:14:49:472911,28,10,4,-2,2,9,21,-4
18:14:49:478838,15,-5,-20,-8,-4,-11,-8,-4
18:14:49:486285,13,-12,-33,-4,-5,0,-8,-3
18:14:49:493872,13,-12,-33,-4,-5,0,-8,-3
18:14:49:501344,-7,0,-1,5,-2,-1,-2,-5
18:14:49:509519,2,23,23,12,16,8,13,8
18:14:49:510336,2,23,23,12,16,8,13,8
18:14:49:516342,1,-5,6,3,-7,-11,-19,-10
18:14:49:532016,11,13,2,-1,2,18,30,4
18:14:49:532876,11,13,2,-1,2,18,30,4
18:14:49:538800,-3,4,-3,-4,-4,-3,19,8
18:14:49:546291,-6,-2,7,4,4,-2,14,4
18:14:49:553917,-6,-2,7,4,4,-2,14,4
18:14:49:561330,-2,5,-22,-14,2,-2,-38,-10
18:14:49:569724,-12,0,14,-1,4,-2,-7,4
18:14:49:570331,-12,0,14,-1,4,-2,-7,4
18:14:49:576503,2,-8,-3,-4,-4,7,16,8
18:14:49:592033,-5,-1,-3,3,-4,-16,-26,-11
18:14:49:592881,-5,-1,-3,3,-4,-16,-26,-11
18:14:49:598878,-1,-3,-4,10,14,7,-12,-1
18:14:49:606315,2,-9,-8,-9,-9,1,9,-3
18:14:49:613888,2,-9,-8,-9,-9,1,9,-3
18:14:49:621404,-6,1,-18,-7,-11,-19,-18,0
18:14:49:629479,-11,-17,-3,4,0,-3,-6,-11
18:14:49:630279,-11,-17,-3,4,0,-3,-6,-11
18:14:49:636320,6,10,22,5,0,0,-6,-5
18:14:49:652183,6,10,22,5,0,0,-6,-5
18:14:49:652919,1,-1,-15,4,4,3,-1,3
18:14:49:658796,-8,3,4,2,-4,-5,21,-6
18:14:49:674677,-8,3,4,2,-4,-5,21,-6
18:14:49:675337,5,3,1,2,7,5,7,1
18:14:49:681349,-12,-9,7,5,-8,-5,7,0
18:14:49:689555,-12,-9,7,5,-8,-5,7,0
18:14:49:690347,-18,-3,-7,-9,2,14,16,3
18:14:49:696312,5,6,-6,-2,10,8,-14,3
18:14:49:712056,5,6,-6,-2,10,8,-14,3
18:14:49:712878,12,4,4,-5,-6,-2,0,2
18:14:49:718809,4,-10,-3,-2,4,-4,-13,-3
18:14:49:734550,4,-10,-3,-2,4,-4,-13,-3
18:14:49:735341,-7,-2,6,-3,-14,-11,-32,3
18:14:49:741289,9,-2,-11,-1,0,14,25,5
18:14:49:749684,9,-2,-11,-1,0,14,25,5
18:14:49:750286,-1,0,18,-4,-9,-15,-15,-9
18:14:49:756350,-5,0,-20,-15,1,7,22,1
18:14:49:772081,-5,0,-20,-15,1,7,22,1
18:14:49:772939,10,38,10,8,4,0,-8,-6
18:14:49:778798,11,-3,7,-2,-3,-5,11,5
18:14:49:794545,11,-3,7,-2,-3,-5,11,5
18:14:49:795292,2,-3,3,-1,2,10,27,12
18:14:49:801350,-11,-6,-1,-1,2,0,-24,-10
18:14:49:809571,-11,-6,-1,-1,2,0,-24,-10
18:14:49:810324,7,-13,-14,-7,-3,3,-1,-6
18:14:49:816287,-2,8,30,4,-11,-8,5,3
18:14:49:832051,-2,8,30,4,-11,-8,5,3
18:14:49:832864,-23,-42,3,5,4,2,-2,-5
18:14:49:838780,-3,-6,-24,-7,1,-11,-13,1
18:14:49:854567,-3,-6,-24,-7,1,-11,-13,1
18:14:49:855306,5,7,-2,-16,-17,-9,-14,0
18:14:49:861333,19,14,15,13,8,7,19,4
18:14:49:869747,19,14,15,13,8,7,19,4
18:14:49:870313,-4,1,-5,-12,-9,-4,14,-9
18:14:49:876444,-16,-24,-14,0,-13,-15,-29,-8
18:14:49:892046,-16,-24,-14,0,-13,-15,-29,-8
18:14:49:892904,1,0,1,2,3,-14,-28,-3
18:14:49:898917,3,16,4,-3,6,15,27,3
18:14:49:914506,3,16,4,-3,6,15,27,3
18:14:49:915325,-7,3,-14,-5,3,5,13,0
18:14:49:921287,-18,-1,-1,0,0,0,-25,-3
18:14:49:929541,-18,-1,-1,0,0,0,-25,-3
18:14:49:930304,8,2,-2,5,7,6,10,6
18:14:49:936305,-5,-1,13,11,-5,-10,-20,-1
18:14:49:952042,-5,-1,13,11,-5,-10,-20,-1
18:14:49:952881,-4,-9,-1,3,2,4,17,-2
18:14:49:958794,1,3,-1,3,-3,0,11,-2
18:14:49:982715,1,3,-1,3,-3,0,11,-2
18:14:49:983462,-3,2,8,-7,-9,-10,-27,-2
18:14:49:984285,7,1,8,-10,-7,-1,0,2
18:14:49:989549,7,1,8,-10,-7,-1,0,2
18:14:49:990311,7,5,12,8,6,12,30,5
18:14:50:3776,-2,-8,-23,0,-1,2,12,-3
18:14:50:12054,-2,-8,-23,0,-1,2,12,-3
18:14:50:12878,-1,8,-1,0,-9,-9,-21,-6
18:14:50:18797,2,-18,16,-7,1,5,29,5
18:14:50:34557,2,-18,16,-7,1,5,29,5
18:14:50:35353,10,11,1,1,3,-8,-16,-2
18:14:50:41306,-8,-3,-4,-9,-3,-8,-18,-7
18:14:50:49675,-8,-3,-4,-9,-3,-8,-18,-7
18:14:50:50368,15,11,-4,3,2,11,18,3
18:14:50:63846,9,9,-4,5,1,19,27,4
18:14:50:72111,9,9,-4,5,1,19,27,4
18:14:50:72943,5,11,8,9,4,-2,-4,4
18:14:50:78802,-6,-9,0,-2,2,-8,-5,0
18:14:50:94527,-6,-9,0,-2,2,-8,-5,0
18:14:50:95271,-9,-6,0,-5,-11,-5,-8,0
18:14:50:101366,-14,-23,-7,-8,-14,-10,-5,-8
18:14:50:109559,-14,-23,-7,-8,-14,-10,-5,-8
18:14:50:110318,-1,-4,-2,-1,-4,-11,-29,-6
18:14:50:123899,4,9,2,5,6,-4,-18,2
18:14:50:132058,4,9,2,5,6,-4,-18,2
18:14:50:132912,-5,-8,-2,-5,1,10,12,2
18:14:50:138832,-13,9,6,1,6,6,0,2
18:14:50:154608,-13,9,6,1,6,6,0,2
18:14:50:155320,-6,1,-4,-2,-1,-3,6,-7
18:14:50:161294,2,3,2,-5,1,0,-2,0
18:14:50:169612,2,3,2,-5,1,0,-2,0
18:14:50:170321,-6,-3,-16,2,1,1,10,1
18:14:50:183786,11,13,2,-2,-5,-9,-32,-3
18:14:50:191977,11,13,2,-2,-5,-9,-32,-3
18:14:50:192877,-1,4,19,4,11,8,11,5
18:14:50:198880,0,8,-23,-8,-4,7,20,3
18:14:50:206385,0,8,-23,-8,-4,7,20,3
18:14:50:213821,-5,-3,-6,-1,-2,0,16,-3
18:14:50:221370,-14,-2,-11,-4,-7,-15,-27,-13
18:14:50:229545,-14,-2,-11,-4,-7,-15,-27,-13
18:14:50:230316,-2,-3,-4,0,4,11,11,-4
18:14:50:243840,1,-10,13,13,17,2,-15,-1
18:14:50:252141,1,-10,13,13,17,2,-15,-1
18:14:50:252913,-1,-4,-10,-10,-9,-2,8,11
18:14:50:258818,3,-9,-3,4,0,-2,2,0
18:14:50:274632,3,-9,-3,4,0,-2,2,0
18:14:50:275308,-8,-12,-1,5,6,-12,-24,-9
18:14:50:281324,17,6,-1,8,-1,-7,6,2
18:14:50:289667,17,6,-1,8,-1,-7,6,2
18:14:50:290316,-3,-8,0,-10,-10,-8,1,2
18:14:50:303808,2,0,-21,-7,4,15,12,3
18:14:50:312026,2,0,-21,-7,4,15,12,3
18:14:50:312860,-1,5,-21,0,-1,-6,-13,-2
18:14:50:318915,4,10,7,-3,-5,3,29,5
18:14:50:326384,4,10,7,-3,-5,3,29,5
18:14:50:333839,-9,-15,-2,-2,-3,-5,-11,-4
18:14:50:341442,-4,-2,9,-8,8,-1,-22,-6
18:14:50:349601,-4,-2,9,-8,8,-1,-22,-6
18:14:50:350371,-26,-2,4,4,-7,1,0,-8
18:14:50:363835,-1,2,11,0,-9,-7,4,-4
18:14:50:372087,-1,2,11,0,-9,-7,4,-4
18:14:50:372886,12,-6,-4,-1,6,0,-1,-3
18:14:50:378795,8,-2,-12,-3,-3,-10,-5,3
18:14:50:386474,8,-2,-12,-3,-3,-10,-5,3
18:14:50:393831,0,-12,-5,0,8,-2,-9,-6
18:14:50:401351,1,-2,21,9,3,11,-3,-4
18:14:50:409468,1,-2,21,9,3,11,-3,-4
18:14:50:410278,22,15,2,0,-3,10,15,6
18:14:50:423860,2,1,-5,1,5,-10,-27,-3
18:14:50:432082,2,1,-5,1,5,-10,-27,-3
18:14:50:432893,-10,-15,-2,-3,-6,-10,5,-1
18:14:50:438914,0,-1,-3,1,0,7,17,3
18:14:50:446337,0,-1,-3,1,0,7,17,3
18:14:50:453865,-9,-8,-10,-6,-5,1,-3,-6
18:14:50:461322,5,-7,6,0,-4,1,-7,0
18:14:50:469543,5,-7,6,0,-4,1,-7,0
18:14:50:470307,10,-20,-11,-6,1,7,14,7
18:14:50:483883,-13,-5,-8,-1,-2,-8,-17,-5
18:14:50:492034,-13,-5,-8,-1,-2,-8,-17,-5
18:14:50:492775,-7,11,19,-1,-4,1,-19,2
18:14:50:498875,1,0,-21,-14,-8,-3,-4,2
18:14:50:506447,1,0,-21,-14,-8,-3,-4,2
18:14:50:513813,2,21,4,7,6,3,17,5
18:14:50:521271,0,-2,7,-1,-5,-2,28,-5
18:14:50:529905,0,-2,7,-1,-5,-2,28,-5
18:14:50:536323,5,5,12,1,-4,2,13,-7
18:14:50:543792,-7,3,9,9,7,-7,-7,-2
18:14:50:552020,-7,3,9,9,7,-7,-7,-2
18:14:50:552878,-7,-1,-6,5,-4,-21,-49,-8
18:14:50:558805,7,12,14,-3,0,22,32,7
18:14:50:566390,7,12,14,-3,0,22,32,7
18:14:50:573829,5,3,-4,-6,-2,-11,-45,-6
18:14:50:581315,0,1,-12,-2,-2,16,32,4
18:14:50:589518,0,1,-12,-2,-2,16,32,4
18:14:50:590315,6,-9,-25,-5,3,0,-3,3
18:14:50:603894,-4,-6,-6,-4,-8,-13,-24,-6
18:14:50:620821,-4,-6,-6,-4,-8,-13,-24,-6
18:14:50:621640,-3,7,13,8,5,1,10,-1
18:14:50:622454,-9,-11,1,2,0,-15,-12,-10
18:14:50:626348,-9,-11,1,2,0,-15,-12,-10
18:14:50:633940,7,-6,2,1,-4,8,20,2
18:14:50:641294,1,12,10,2,1,-9,-15,-5
18:14:50:649553,1,12,10,2,1,-9,-15,-5
18:14:50:650351,4,6,5,7,1,17,46,9
18:14:50:664304,-5,-12,3,-6,-4,-7,-11,-4
18:14:50:672038,-5,-12,3,-6,-4,-7,-11,-4
18:14:50:672891,-6,-3,0,-7,-4,-11,-5,2
18:14:50:678826,-2,5,-3,-3,1,-5,-1,3
18:14:50:686400,-2,5,-3,-3,1,-5,-1,3
18:14:50:693808,-5,-9,-8,-9,-2,5,6,0
18:14:50:710178,-6,-10,4,6,-1,-6,-11,-9
18:14:50:710962,-6,-10,4,6,-1,-6,-11,-9
18:14:50:711774,0,-10,-11,-6,-6,-3,-8,-3
18:14:50:723776,4,-4,-17,-2,2,-9,-23,-4
18:14:50:732076,4,-4,-17,-2,2,-9,-23,-4
18:14:50:732894,-2,16,17,3,12,3,-20,-8
18:14:50:738835,6,1,10,1,2,18,36,12
18:14:50:754568,6,1,10,1,2,18,36,12
18:14:50:755320,-4,-16,-9,2,-6,-9,6,-4
18:14:50:761277,-5,-2,5,2,1,15,20,-1
18:14:50:769545,-5,-2,5,2,1,15,20,-1
18:14:50:770345,0,15,17,1,1,-2,-16,-1
18:14:50:783906,-5,-8,-11,-7,-6,-6,-9,2
18:14:50:791982,-5,-8,-11,-7,-6,-6,-9,2
18:14:50:792773,1,6,-8,7,7,-4,-14,-1
18:14:50:798786,1,-1,1,-4,-10,-5,-5,-4
18:14:50:806436,1,-1,1,-4,-10,-5,-5,-4
18:14:50:813815,2,-2,-1,-4,-2,1,-2,4
18:14:50:821308,2,-2,-9,-6,-4,1,-11,-1
18:14:50:829523,2,-2,-9,-6,-4,1,-11,-1
18:14:50:830307,-1,-13,-21,-5,1,3,18,3
18:14:50:843779,-3,-4,-10,0,9,-9,-29,-7
18:14:50:852024,-3,-4,-10,0,9,-9,-29,-7
18:14:50:852906,-6,3,-10,-4,2,3,6,0
18:14:50:858760,-4,-1,-4,-1,-3,2,10,-1
18:14:50:866423,-4,-1,-4,-1,-3,2,10,-1
18:14:50:873911,-4,-7,11,8,10,-7,-13,-4
18:14:50:881296,-8,-2,4,-1,-4,-2,-1,-2
18:14:50:889010,-8,-2,4,-1,-4,-2,-1,-2
18:14:50:896352,6,19,6,0,-9,-13,-32,-2
18:14:50:903868,-8,-14,-14,1,-5,-2,6,-3
18:14:50:911978,-8,-14,-14,1,-5,-2,6,-3
18:14:50:912764,-3,-3,-5,-7,-6,-4,-8,-6
18:14:50:927020,4,6,15,4,-4,-4,-11,-5
18:14:50:927868,4,6,15,4,-4,-4,-11,-5
18:14:50:933988,3,1,-7,-3,-2,-4,7,3
18:14:50:941306,3,-11,-23,-11,2,11,16,11
18:14:50:948859,3,-11,-23,-11,2,11,16,11
18:14:50:956432,-3,3,-8,-4,-5,10,17,-3
18:14:50:963884,1,4,12,9,32,0,-11,-6
18:14:50:972007,1,4,12,9,32,0,-11,-6
18:14:50:972815,4,7,5,3,2,0,5,1
18:14:50:987015,4,5,10,-2,-14,-1,-1,3
18:14:50:987809,4,5,10,-2,-14,-1,-1,3
18:14:50:993817,-1,-1,11,-3,-14,-15,1,-7
18:14:51:1396,24,16,3,8,1,7,20,3
18:14:51:8976,24,16,3,8,1,7,20,3
18:14:51:16300,-7,-7,-3,-11,-18,-12,-17,-9
18:14:51:33334,-11,-12,-8,-8,5,4,16,0
18:14:51:34110,-11,-12,-8,-8,5,4,16,0
18:14:51:34898,0,5,2,3,10,3,7,7
18:14:51:46991,-18,-20,-32,-3,0,2,4,-4
18:14:51:47791,-18,-20,-32,-3,0,2,4,-4
18:14:51:53886,-18,0,2,-1,-4,16,36,5
18:14:51:61303,0,10,11,0,-1,-9,-8,-2
18:14:51:68876,0,10,11,0,-1,-9,-8,-2
18:14:51:76294,21,15,2,7,3,-1,-3,3
18:14:51:83917,6,12,-4,-1,-5,12,11,-2
18:14:51:92387,6,12,-4,-1,-5,12,11,-2
18:14:51:98783,-2,-19,-17,-8,6,3,10,1
18:14:51:107099,-9,-1,11,-10,-17,-15,-13,-7
18:14:51:107821,-9,-1,11,-10,-17,-15,-13,-7
18:14:51:113795,-1,14,19,19,13,-6,-38,-5
18:14:51:121294,-8,-20,-6,-2,-5,1,19,4
18:14:51:128885,-8,-20,-6,-2,-5,1,19,4
18:14:51:136387,-12,-10,-11,-7,-2,5,-1,-5
18:14:51:143784,1,10,8,-4,-4,-3,-4,1
18:14:51:152010,1,10,8,-4,-4,-3,-4,1
18:14:51:152881,6,-10,15,9,5,-2,-22,-2
18:14:51:167020,0,4,-8,-14,-4,-8,-14,-7
18:14:51:167877,0,4,-8,-14,-4,-8,-14,-7
18:14:51:173787,4,0,10,-7,2,1,10,0
18:14:51:181278,-3,-7,11,19,27,7,-13,6
18:14:51:188942,-3,-7,11,19,27,7,-13,6
18:14:51:196307,-9,-2,-18,-17,-9,-7,-6,-4
18:14:51:203903,6,1,-10,-4,-1,2,6,5
18:14:51:211990,6,1,-10,-4,-1,2,6,5
18:14:51:212764,-7,21,7,19,13,9,-6,1
18:14:51:227041,-1,-1,-34,-28,-14,7,19,2
18:14:51:227881,-1,-1,-34,-28,-14,7,19,2
18:14:51:233934,11,-3,8,-5,-8,0,9,2
18:14:51:241315,-6,-6,19,4,2,-12,-7,-3
18:14:51:248808,-6,-6,19,4,2,-12,-7,-3
18:14:51:256400,-2,-18,-16,-13,-7,9,47,3
18:14:51:263842,-9,-10,-15,-7,-21,-17,-22,-6
18:14:51:272122,-9,-10,-15,-7,-21,-17,-22,-6
18:14:51:272788,12,9,25,8,3,-7,-3,5
18:14:51:286985,-21,-2,10,-4,-11,6,17,0
18:14:51:287785,-21,-2,10,-4,-11,6,17,0
18:14:51:293816,-9,1,-3,-3,0,-5,-19,-8
18:14:51:317670,4,5,21,-6,-8,-4,-12,-3
18:14:51:318487,4,5,21,-6,-8,-4,-12,-3
18:14:51:319299,-10,-28,-38,11,36,11,1,-5
18:14:51:323875,16,26,-6,14,-6,2,-2,2
18:14:51:332047,16,26,-6,14,-6,2,-2,2
18:14:51:332911,10,6,5,-11,-2,-4,-1,-2
18:14:51:347010,-2,1,-4,9,24,4,-6,-2
18:14:51:347898,-2,1,-4,9,24,4,-6,-2
18:14:51:353897,-2,6,-7,-13,-18,-8,1,-1
18:14:51:361311,-13,-34,-1,49,63,6,-4,-3
18:14:51:368903,-13,-34,-1,49,63,6,-4,-3
18:14:51:376303,1,-22,-10,5,9,9,-4,0
18:14:51:383840,0,16,8,-38,-64,-23,-22,-7
18:14:51:391964,0,16,8,-38,-64,-23,-22,-7
18:14:51:392780,-12,-13,-24,8,-3,-11,-11,-4
18:14:51:407082,-17,-37,-36,-20,-1,-3,-3,-2
18:14:51:407932,-17,-37,-36,-20,-1,-3,-3,-2
18:14:51:413858,-9,0,-2,-17,-27,-10,-11,0
18:14:51:421354,3,4,8,16,2,6,22,-2
18:14:51:428842,3,4,8,16,2,6,22,-2
18:14:51:436348,-4,-5,10,-10,-40,-19,-11,-4
18:14:51:443832,-5,-19,9,37,27,2,-4,-1
18:14:51:459536,-5,-19,9,37,27,2,-4,-1
18:14:51:460334,12,7,-1,24,67,21,3,2
18:14:51:467033,19,18,-17,-15,-23,-8,-10,3
18:14:51:467747,19,18,-17,-15,-23,-8,-10,3
18:14:51:473922,2,13,17,-9,-18,-3,19,1
18:14:51:481364,-5,-3,1,-7,0,5,17,-1
18:14:51:488880,-5,-3,1,-7,0,5,17,-1
18:14:51:496316,-14,-19,4,25,6,-6,-19,-5
18:14:51:503950,3,-1,-11,-9,-1,6,-12,2
18:14:51:512007,3,-1,-11,-9,-1,6,-12,2
18:14:51:512824,3,18,-12,-36,-94,-24,-10,-4
18:14:51:527063,0,5,15,7,-21,-23,-19,-3
18:14:51:527793,0,5,15,7,-21,-23,-19,-3
18:14:51:533794,3,-9,15,4,9,3,1,1
18:14:51:541288,2,4,3,-16,1,8,13,1
18:14:51:548924,2,4,3,-16,1,8,13,1
18:14:51:556356,6,10,17,9,17,19,13,3
18:14:51:563834,1,-16,14,-25,-21,-10,-11,-5
18:14:51:572190,1,-16,14,-25,-21,-10,-11,-5
18:14:51:572935,-1,-12,-16,-7,18,9,-3,4
18:14:51:595149,-2,15,19,6,10,1,19,4
18:14:51:595926,-2,15,19,6,10,1,19,4
18:14:51:596818,1,19,14,3,-23,-18,-6,-7
18:14:51:601443,28,31,3,8,10,3,2,5
18:14:51:608872,28,31,3,8,10,3,2,5
18:14:51:616265,-9,3,-15,-13,-1,7,7,3
18:14:51:623848,-13,-11,-27,-26,-34,-31,-51,-22
18:14:51:632006,-13,-11,-27,-26,-34,-31,-51,-22
18:14:51:632869,-7,-1,0,8,19,1,-19,4
18:14:51:647110,-18,-17,8,2,7,23,24,1
18:14:51:647800,-18,-17,8,2,7,23,24,1
18:14:51:653820,-11,-16,-12,-15,-13,-22,-30,-15
18:14:51:661265,-5,11,11,-12,-17,-3,1,0
18:14:51:668898,-5,11,11,-12,-17,-3,1,0
18:14:51:676269,-8,-14,-1,-32,-37,-11,5,-9
18:14:51:692637,12,28,1,83,96,33,13,8
18:14:51:693431,12,28,1,83,96,33,13,8
18:14:51:694248,-7,0,1,-6,12,15,21,2
18:14:51:707026,-10,-45,-57,-29,-33,-16,-12,-3
18:14:51:707834,-10,-45,-57,-29,-33,-16,-12,-3
18:14:51:713784,8,10,12,86,78,27,16,3
18:14:51:721373,9,8,16,-19,-32,-4,-6,5
18:14:51:728909,9,8,16,-19,-32,-4,-6,5
18:14:51:736417,23,3,-26,-7,-32,-9,0,11
18:14:51:743784,-15,-19,-18,-10,-10,-1,16,-9
18:14:51:752059,-15,-19,-18,-10,-10,-1,16,-9
18:14:51:752841,-2,18,24,-7,6,-1,27,3
18:14:51:767113,4,6,6,-12,20,12,-5,7
18:14:51:767818,4,6,6,-12,20,12,-5,7
18:14:51:773808,-8,-26,-8,7,10,4,-25,-1
18:14:51:781309,-20,-6,9,1,-25,-10,11,-1
18:14:51:788963,-20,-6,9,1,-25,-10,11,-1
18:14:51:796300,15,5,25,17,39,5,2,7
18:14:51:803790,13,15,-9,-3,8,-14,-22,1
18:14:51:812044,13,15,-9,-3,8,-14,-22,1
18:14:51:812850,-34,-39,-13,-39,-57,-14,8,-14
18:14:51:827005,12,17,36,15,29,23,5,7
18:14:51:827879,12,17,36,15,29,23,5,7
18:14:51:833847,6,23,9,-10,4,12,7,2
18:14:51:849558,-2,-12,16,-12,-52,-15,-4,-5
18:14:51:850369,-2,-12,16,-12,-52,-15,-4,-5
18:14:51:856398,-37,-43,-11,-8,-18,-26,-25,-21
18:14:51:863805,-17,-3,-12,-36,-67,-23,0,-2
18:14:51:871441,-17,-3,-12,-36,-67,-23,0,-2
18:14:51:878810,4,8,-8,20,30,6,-6,1
18:14:51:887138,-3,-2,-1,0,0,4,35,2
18:14:51:887893,-3,-2,-1,0,0,4,35,2
18:14:51:893803,-6,3,-18,-12,1,5,10,2
18:14:51:909506,6,21,7,0,7,-6,-8,-9
18:14:51:910319,6,21,7,0,7,-6,-8,-9
18:14:51:916373,43,23,-21,8,42,29,35,19
18:14:51:923855,-4,-22,3,3,29,6,-17,-7
18:14:51:931423,-4,-22,3,3,29,6,-17,-7
18:14:51:938978,5,-14,1,-27,-28,-15,-10,2
18:14:51:955199,4,5,6,5,-2,9,1,11
18:14:51:955991,4,5,6,5,-2,9,1,11
18:14:51:956766,23,18,-26,-35,-66,-21,14,6
18:14:51:969618,-13,-29,-22,-4,25,10,-27,-13
18:14:51:970369,-13,-29,-22,-4,25,10,-27,-13
18:14:51:976285,2,9,45,13,-1,-7,-9,-6
18:14:51:983792,6,26,10,14,-6,-16,-5,1
18:14:51:999537,6,26,10,14,-6,-16,-5,1
18:14:52:307,0,-10,-17,57,74,13,6,9
18:14:52:7001,-23,-3,-34,10,22,7,-13,-1
18:14:52:7896,-23,-3,-34,10,22,7,-13,-1
18:14:52:13797,-6,-7,17,-7,-23,34,59,9
18:14:52:29484,25,-3,-9,-49,-46,-10,15,0
18:14:52:30317,25,-3,-9,-49,-46,-10,15,0
18:14:52:44473,-12,-19,-24,-29,-30,-30,-42,-16
18:14:52:45236,20,6,-20,10,8,17,18,6
18:14:52:51343,20,6,-20,10,8,17,18,6
18:14:52:58738,-43,-64,-1,4,-7,-6,-11,-12
18:14:52:67115,4,18,39,28,32,-13,-22,-3
18:14:52:67895,4,18,39,28,32,-13,-22,-3
18:14:52:73814,-10,8,-13,3,6,10,42,-10
18:14:52:89592,-6,-15,-4,-62,-60,-16,-1,-1
18:14:52:90384,-6,-15,-4,-62,-60,-16,-1,-1
18:14:52:96293,-2,20,1,-8,15,-11,-55,-10
18:14:52:103795,3,3,-8,6,-11,16,19,3
18:14:52:111369,3,3,-8,6,-11,16,19,3
18:14:52:118891,7,33,26,-10,-6,-2,-16,2
18:14:52:126995,1,3,3,11,16,1,2,5
18:14:52:127894,1,3,3,11,16,1,2,5
18:14:52:133846,5,-1,3,15,34,1,-1,0
18:14:52:149512,-10,-16,-17,-24,6,-5,-12,-9
18:14:52:150334,-10,-16,-17,-24,6,-5,-12,-9
18:14:52:156273,22,7,16,19,10,4,-4,13
18:14:52:163777,-33,-19,30,17,4,14,25,-15
18:14:52:171393,-33,-19,30,17,4,14,25,-15
18:14:52:187784,19,40,25,-19,-40,-18,-7,3
18:14:52:188468,6,25,18,20,44,8,7,3
18:14:52:189293,6,25,18,20,44,8,7,3
18:14:52:193808,-1,-6,2,-8,-7,3,11,-1
18:14:52:209508,-8,0,-5,1,-12,-14,-14,-5
18:14:52:210263,-8,0,-5,1,-12,-14,-14,-5
18:14:52:216264,7,15,-21,-16,-6,3,-3,2
18:14:52:223845,0,8,16,11,-24,-18,9,0
18:14:52:231359,0,8,16,11,-24,-18,9,0
18:14:52:238877,-4,-46,-4,14,3,8,-1,5
18:14:52:247011,6,1,-3,-11,-36,-2,9,4
18:14:52:247880,6,1,-3,-11,-36,-2,9,4
18:14:52:253824,-4,2,-22,-10,-20,1,11,0
18:14:52:269665,5,-2,-69,-10,-10,-11,-11,-4
18:14:52:270326,5,-2,-69,-10,-10,-11,-11,-4
18:14:52:276318,-9,-4,-20,-1,21,1,-45,-13
18:14:52:283757,10,-2,9,5,14,15,9,4
18:14:52:291330,10,-2,9,5,14,15,9,4
18:14:52:298853,-8,5,8,-33,-27,-23,-19,-14
18:14:52:306994,-4,-20,-6,8,17,9,-10,1
18:14:52:307798,-4,-20,-6,8,17,9,-10,1
18:14:52:313847,-8,-3,-7,3,-19,-2,8,1
18:14:52:329559,2,-4,-37,-23,-8,-19,-12,-9
18:14:52:330330,2,-4,-37,-23,-8,-19,-12,-9
18:14:52:336278,3,18,31,38,12,21,10,9
18:14:52:343814,-5,-36,-13,-1,-3,-8,12,-7
18:14:52:351436,-5,-36,-13,-1,-3,-8,12,-7
18:14:52:358833,-1,11,-4,2,11,12,10,-11
18:14:52:367008,4,-2,7,12,7,-15,-32,-2
18:14:52:367768,4,-2,7,12,7,-15,-32,-2
18:14:52:373867,-1,-18,-35,-10,-19,-3,9,6
18:14:52:389497,-10,5,4,-57,-57,-18,-12,-5
18:14:52:390301,-10,5,4,-57,-57,-18,-12,-5
18:14:52:412676,1,6,10,17,14,5,-11,-6
18:14:52:413432,-13,2,-4,7,-2,12,9,2
18:14:52:414317,-13,2,-4,7,-2,12,9,2
18:14:52:418792,18,5,14,-1,-5,-17,2,0
18:14:52:427025,1,15,22,12,16,-8,-25,-7
18:14:52:427893,1,15,22,12,16,-8,-25,-7
18:14:52:433848,-25,-25,-7,0,19,22,18,8
18:14:52:449647,3,8,19,42,67,6,-4,4
18:14:52:450358,3,8,19,42,67,6,-4,4
18:14:52:456324,11,18,-2,-28,-17,-18,-13,-6
18:14:52:463832,-12,-22,-1,-21,-39,-5,2,8
18:14:52:471354,-12,-22,-1,-21,-39,-5,2,8
18:14:52:478838,0,-7,-32,-17,-27,-14,-2,-3
18:14:52:486992,16,10,17,13,10,12,6,9
18:14:52:487790,16,10,17,13,10,12,6,9
18:14:52:493810,-10,12,53,18,-7,1,18,-7
18:14:52:509501,2,20,-1,1,-25,-29,-18,-9
18:14:52:510293,2,20,-1,1,-25,-29,-18,-9
18:14:52:516335,6,-51,-55,-7,43,38,56,24
18:14:52:523879,-5,10,-6,2,63,31,32,4
18:14:52:531312,-5,10,-6,2,63,31,32,4
18:14:52:538815,-6,4,-1,-60,-85,-55,-54,-19
18:14:52:547221,6,-24,-40,-15,6,14,-9,-6
18:14:52:547842,6,-24,-40,-15,6,14,-9,-6
18:14:52:553812,-6,5,12,29,4,8,7,2
18:14:52:569643,-20,2,24,26,-3,-6,-9,-3
18:14:52:570264,-20,2,24,26,-3,-6,-9,-3
18:14:52:576328,-6,4,11,4,31,12,5,9
18:14:52:583856,16,6,-11,23,58,32,23,10
18:14:52:591344,16,6,-11,23,58,32,23,10
18:14:52:598839,-11,-2,-12,-20,-31,-16,-22,-12
18:14:52:607057,-2,-2,-50,-20,-18,-18,-19,-10
18:14:52:607803,-2,-2,-50,-20,-18,-18,-19,-10
18:14:52:613834,-16,-3,2,-16,-3,9,-10,-4
18:14:52:629493,5,7,7,0,-14,-14,11,5
18:14:52:630286,5,7,7,0,-14,-14,11,5
18:14:52:636266,12,40,5,44,60,4,1,2
18:14:52:643798,-6,-7,22,-3,-3,5,-1,-4
18:14:52:651444,-6,-7,22,-3,-3,5,-1,-4
18:14:52:658776,-4,-21,16,49,62,2,-18,-1
18:14:52:666993,18,14,-3,-20,-5,2,31,11
18:14:52:667782,18,14,-3,-20,-5,2,31,11
18:14:52:673898,-20,-21,4,-35,-32,2,-19,-4
18:14:52:689984,17,2,36,16,-10,-1,-5,3
18:14:52:690791,17,2,36,16,-10,-1,-5,3
18:14:52:696319,-1,0,-39,-56,-34,-2,4,-3
18:14:52:703917,10,10,-23,-16,-16,-9,-18,-1
18:14:52:711387,10,10,-23,-16,-16,-9,-18,-1
18:14:52:718780,6,-10,5,1,-18,-11,8,0
18:14:52:735185,-12,12,44,-9,-8,-1,4,-13
18:14:52:736017,-12,12,44,-9,-8,-1,4,-13
18:14:52:736756,3,18,4,22,-3,4,32,5
18:14:52:749275,-7,-41,-3,-13,2,7,-5,4
18:14:52:757049,-7,-41,-3,-13,2,7,-5,4
18:14:52:757826,2,12,-1,7,2,-22,-39,-10
18:14:52:763769,-17,-22,-8,2,5,12,-2,0
18:14:52:771401,-17,-22,-8,2,5,12,-2,0
18:14:52:778827,17,16,-29,15,26,6,-13,2
18:14:52:787017,1,-11,-19,47,39,11,7,5
18:14:52:787829,1,-11,-19,47,39,11,7,5
18:14:52:801392,1,-6,7,12,-22,-1,-8,-2
18:14:52:809498,-13,5,4,10,16,0,-2,-6
18:14:52:810309,-13,5,4,10,16,0,-2,-6
18:14:52:816325,10,-4,27,-8,-12,7,16,-4
18:14:52:831992,-7,8,73,35,-4,14,31,7
18:14:52:832813,-7,8,73,35,-4,14,31,7
18:14:52:838769,7,9,12,7,16,6,36,6
18:14:52:847129,7,9,12,7,16,6,36,6
18:14:52:847826,7,3,-50,-26,-8,-14,-17,-9
18:14:52:861348,-1,-5,-4,45,73,11,-7,0
18:14:52:869643,-1,-5,-4,45,73,11,-7,0
18:14:52:870309,15,2,-26,3,12,12,-1,3
18:14:52:876255,-11,-18,7,0,16,-5,-8,1
18:14:52:891998,-11,-18,7,0,16,-5,-8,1
18:14:52:892783,3,-20,-25,11,14,-14,-4,-3
18:14:52:898853,-9,1,18,18,18,5,8,-12
18:14:52:907038,-9,1,18,18,18,5,8,-12
18:14:52:907807,-6,-5,-6,-16,-15,10,30,11
18:14:52:921350,-18,-11,0,-15,-36,-25,-26,-10
18:14:52:929496,-18,-11,0,-15,-36,-25,-26,-10
18:14:52:930288,-10,-8,-5,-17,-21,-23,-21,-6
18:14:52:936263,10,-4,-6,-15,-6,30,34,7
18:14:52:952098,10,-4,-6,-15,-6,30,34,7
18:14:52:952814,3,6,-6,-2,-4,-3,-13,0
18:14:52:967656,-12,0,2,9,-15,-20,-25,-5
18:14:52:968450,-12,0,2,9,-15,-20,-25,-5
18:14:52:969245,3,22,27,20,-6,-3,0,-2
18:14:52:981311,8,2,2,6,-29,-3,-10,0
18:14:52:989535,8,2,2,6,-29,-3,-10,0
18:14:52:990377,10,36,8,14,-1,-2,-32,1
18:14:52:996421,-17,-23,-22,-15,-17,3,18,-7
18:14:53:12512,-17,-23,-22,-15,-17,3,18,-7
18:14:53:13277,13,-13,-4,-9,-7,-9,-1,-4
18:14:53:18790,4,-4,17,3,2,-5,0,10
18:14:53:27035,4,-4,17,3,2,-5,0,10
18:14:53:27813,-2,4,3,-10,-11,13,25,-3
18:14:53:41306,2,16,0,0,14,-18,-32,-8
18:14:53:49538,2,16,0,0,14,-18,-32,-8
18:14:53:50297,8,18,26,-3,1,2,15,5
18:14:53:56315,-11,4,11,-14,-6,-1,-8,-2
18:14:53:72039,-11,4,11,-14,-6,-1,-8,-2
18:14:53:72786,-2,-25,-40,-18,-20,-29,-22,-2
18:14:53:78795,8,11,-34,7,31,14,-4,-3
18:14:53:87015,8,11,-34,7,31,14,-4,-3
18:14:53:87812,-19,-2,21,26,1,13,28,-3
18:14:53:101315,0,13,6,-15,-20,-13,-5,-1
18:14:53:109510,0,13,6,-15,-20,-13,-5,-1
18:14:53:110272,-5,-16,-14,-9,19,2,-27,0
18:14:53:123865,4,-14,-17,28,10,3,-14,10
18:14:53:132020,4,-14,-17,28,10,3,-14,10
18:14:53:132766,16,13,10,1,-1,-16,-27,-1
18:14:53:138757,2,-32,-30,-40,-6,13,9,0
18:14:53:154512,2,-32,-30,-40,-6,13,9,0
18:14:53:155287,-32,-32,-16,-13,9,8,-12,-15
18:14:53:161305,16,15,-15,-1,-19,-10,14,2
18:14:53:169940,16,15,-15,-1,-19,-10,14,2
18:14:53:176942,1,-1,-14,-5,31,-6,3,2
18:14:53:177708,-11,-10,-7,-11,-14,-9,6,-5
18:14:53:192000,-11,-10,-7,-11,-14,-9,6,-5
18:14:53:192788,23,19,24,-17,-67,-6,-1,8
18:14:53:198867,5,0,15,-20,-12,-10,-8,4
18:14:53:206995,5,0,15,-20,-12,-10,-8,4
18:14:53:207802,-9,18,11,25,19,10,1,-4
18:14:53:221363,2,10,39,4,-7,-4,-4,-4
18:14:53:229518,2,10,39,4,-7,-4,-4,-4
18:14:53:230265,7,-11,2,-9,-33,-11,-8,1
18:14:53:243779,-4,4,-27,-6,0,-12,16,-8
18:14:53:251992,-4,4,-27,-6,0,-12,16,-8
18:14:53:252810,-13,-1,-13,6,27,11,13,-3
18:14:53:267694,20,15,10,-19,4,3,9,6
18:14:53:268493,20,15,10,-19,4,3,9,6
18:14:53:269280,-7,-9,2,2,-5,-3,4,-8
18:14:53:290161,-13,0,9,-20,-38,-7,-14,-6
18:14:53:290957,-13,0,9,-20,-38,-7,-14,-6
18:14:53:291750,1,11,-2,-36,-29,-6,11,1
18:14:53:296283,1,-3,10,23,35,14,18,3
18:14:53:320301,1,-3,10,23,35,14,18,3
18:14:53:320976,6,4,0,9,-18,-12,-13,-3
18:14:53:321755,-19,-20,-4,13,12,1,-8,-2
18:14:53:327056,-19,-20,-4,13,12,1,-8,-2
18:14:53:327885,10,-5,-7,9,2,12,22,3
18:14:53:341327,-3,-34,-36,7,30,18,21,0
18:14:53:349615,-3,-34,-36,7,30,18,21,0
18:14:53:350330,-21,-11,-2,-7,3,1,-1,-6
18:14:53:356286,-2,25,38,-11,-1,-4,-4,7
18:14:53:372129,-2,25,38,-11,-1,-4,-4,7
18:14:53:372845,-18,3,11,3,-7,11,11,4
18:14:53:378801,-3,7,13,29,23,0,-11,-3
18:14:53:387001,-3,7,13,29,23,0,-11,-3
18:14:53:387826,6,6,-10,-25,38,-5,-8,-2
18:14:53:401324,12,6,-20,11,1,8,-3,8
18:14:53:409556,12,6,-20,11,1,8,-3,8
18:14:53:410308,-9,0,20,3,-11,1,5,-4
18:14:53:423992,3,4,-2,-14,-24,-8,-8,-5
18:14:53:432071,3,4,-2,-14,-24,-8,-8,-5
18:14:53:432789,12,7,11,13,14,12,-2,-1
18:14:53:438799,-11,-1,13,26,-29,-5,1,-1
18:14:53:447138,-11,-1,13,26,-29,-5,1,-1
18:14:53:447790,-9,-13,-12,9,5,-19,-24,2
18:14:53:461307,0,13,47,-21,-34,-13,-8,-8
18:14:53:469716,0,13,47,-21,-34,-13,-8,-8
18:14:53:470302,-7,-22,-20,-8,16,24,17,10
18:14:53:483845,-1,-9,-8,0,10,-10,-15,1
18:14:53:491976,-1,-9,-8,0,10,-10,-15,1
18:14:53:492788,-3,-3,-17,3,25,24,19,-2
18:14:53:498835,-8,-24,-14,-12,-13,-4,12,-3
18:14:53:507037,-8,-24,-14,-12,-13,-4,12,-3
18:14:53:507828,3,10,6,5,0,-17,-26,-7
18:14:53:521317,-16,-31,-8,19,39,24,10,3
18:14:53:529508,-16,-31,-8,19,39,24,10,3
18:14:53:530292,-13,6,3,-7,-2,-10,-7,-2
18:14:53:536339,12,24,-40,-35,-5,-24,-19,-5
18:14:53:552109,12,24,-40,-35,-5,-24,-19,-5
18:14:53:552839,-1,-12,6,8,1,5,-11,-3
18:14:53:558743,9,-7,-9,11,-1,16,23,1
18:14:53:567059,9,-7,-9,11,-1,16,23,1
18:14:53:567797,3,-1,-10,-7,-19,-21,-29,-6
18:14:53:581337,5,8,-2,18,16,23,9,4
18:14:53:597759,5,8,-2,18,16,23,9,4
18:14:53:598470,-12,-11,9,1,-30,-31,-10,-9
18:14:53:599298,11,14,27,8,20,16,12,9
18:14:53:612017,11,14,27,8,20,16,12,9
18:14:53:612787,7,11,5,7,36,19,1,-1
18:14:53:618811,-1,8,-26,-21,-51,-37,-28,-16
18:14:53:627003,-1,8,-26,-21,-51,-37,-28,-16
18:14:53:627762,-6,-34,-9,22,12,7,4,-1
18:14:53:641305,-15,-3,-1,8,-6,-7,-32,-9
18:14:53:649671,-15,-3,-1,8,-6,-7,-32,-9
18:14:53:650333,-3,-1,42,-4,-31,-4,-1,-1
18:14:53:656374,-7,-2,11,-6,-14,-2,-1,-11
18:14:53:672150,-7,-2,11,-6,-14,-2,-1,-11
18:14:53:672839,28,20,6,-16,-22,1,30,20
18:14:53:678798,-6,4,1,-10,-5,3,5,-7
18:14:53:687027,-6,4,1,-10,-5,3,5,-7
18:14:53:687834,-9,-5,-19,8,7,2,-5,-9
18:14:53:701411,0,1,-12,15,31,10,2,5
18:14:53:709537,0,1,-12,15,31,10,2,5
18:14:53:710295,-2,14,-15,-9,18,8,-14,2
18:14:53:716347,11,-6,6,1,-15,7,37,6
18:14:53:732692,11,-6,6,1,-15,7,37,6
18:14:53:733459,-8,-27,-14,-17,-16,-15,1,-5
18:14:53:738814,13,11,15,-2,12,3,-28,7
18:14:53:746354,13,11,15,-2,12,3,-28,7
18:14:53:761945,6,-17,2,-9,15,10,4,-5
18:14:53:762706,-4,-11,26,10,21,-5,16,2
18:14:53:769661,-4,-11,26,10,21,-5,16,2
18:14:53:770311,-10,3,-10,9,-2,10,8,-4
18:14:53:783803,-9,-5,-20,0,-31,-23,-18,-8
18:14:53:800215,-9,-5,-20,0,-31,-23,-18,-8
18:14:53:800914,0,-20,-11,13,15,6,4,-1
18:14:53:801755,-24,-8,-41,-31,-32,-17,-18,-6
18:14:53:806346,-24,-8,-41,-31,-32,-17,-18,-6
18:14:53:813792,-10,28,-6,-2,-50,-14,-9,-6
18:14:53:821358,0,-23,-28,-19,34,21,22,3
18:14:53:829502,0,-23,-28,-19,34,21,22,3
18:14:53:830277,8,9,14,9,19,-1,5,-4
18:14:53:843808,-4,9,10,49,47,-15,-21,-11
18:14:53:851968,-4,9,10,49,47,-15,-21,-11
18:14:53:852807,-2,-5,-26,7,28,16,7,11
18:14:53:858744,2,-10,12,-18,-10,-6,0,-1
18:14:53:866356,2,-10,12,-18,-10,-6,0,-1
18:14:53:873887,-11,15,5,7,-1,-4,-14,-7
18:14:53:881310,-2,7,32,4,-11,-8,-17,3
18:14:53:889542,-2,7,32,4,-11,-8,-17,3
18:14:53:890326,-2,24,17,2,9,10,-10,-1
18:14:53:903771,-3,12,25,-1,-6,10,9,-2
18:14:53:912036,-3,12,25,-1,-6,10,9,-2
18:14:53:912836,8,-7,-13,-28,-21,-19,-3,-4
18:14:53:918784,15,23,-13,-8,5,8,-1,7
18:14:53:926382,15,23,-13,-8,5,8,-1,7
18:14:53:933803,-6,-25,-29,-23,-29,-8,20,-2
18:14:53:941262,3,-11,12,21,-11,-7,9,6
18:14:53:957020,3,-11,12,21,-11,-7,9,6
18:14:53:957825,9,2,18,-16,-28,-11,-1,9
18:14:53:963784,-4,6,-15,-7,4,2,-2,-1
18:14:53:972121,-4,6,-15,-7,4,2,-2,-1
18:14:53:972828,-13,3,17,1,4,4,8,2
18:14:53:978784,-2,-24,-15,-12,-15,-11,-1,-8
18:14:53:986405,-2,-24,-15,-12,-15,-11,-1,-8
18:14:53:993777,-8,-15,-1,-1,19,3,-17,-12
18:14:54:1346,-4,-46,-20,-26,-26,3,22,3
18:14:54:17053,-4,-46,-20,-26,-26,3,22,3
18:14:54:17781,4,7,-3,3,7,-14,-9,-1
18:14:54:32669,14,20,28,31,22,13,3,5
18:14:54:33502,14,20,28,31,22,13,3,5
18:14:54:34290,2,-10,9,18,8,9,5,0
18:14:54:38797,-6,-9,-23,-27,-8,-15,-16,-8
18:14:54:54531,-6,-9,-23,-27,-8,-15,-16,-8
18:14:54:55308,0,19,-8,-3,-11,4,6,3
18:14:54:61299,11,24,-9,15,34,6,11,15
18:14:54:76997,11,24,-9,15,34,6,11,15
18:14:54:77763,20,14,1,18,52,6,-2,5
18:14:54:83782,-15,21,11,-10,-9,-7,-5,-1
18:14:54:91988,-15,21,11,-10,-9,-7,-5,-1
18:14:54:92803,14,7,-24,-17,-39,-8,-9,0
18:14:54:98863,-3,-11,-14,1,13,17,2,-8
18:14:54:106376,-3,-11,-14,1,13,17,2,-8
18:14:54:122518,-13,-1,-7,-15,-27,-3,8,-2
18:14:54:130187,7,-4,9,-8,-27,-2,13,7
18:14:54:130993,7,-4,9,-8,-27,-2,13,7
18:14:54:131803,6,2,36,41,10,0,-8,0
18:14:54:143842,-2,4,9,-9,-29,1,7,-4
18:14:54:152058,-2,4,9,-9,-29,1,7,-4
18:14:54:152759,-13,-8,-15,-12,14,0,-18,-6
18:14:54:158782,17,-3,5,-5,-18,-14,-2,2
18:14:54:174615,17,-3,5,-5,-18,-14,-2,2
18:14:54:175299,-8,-7,-9,-16,3,-2,4,-12
18:14:54:181306,0,8,-5,4,-7,-8,-4,0
18:14:54:189950,0,8,-5,4,-7,-8,-4,0
18:14:54:196271,5,-13,-4,8,-10,-26,3,1
18:14:54:212641,-25,-49,-3,29,32,13,-5,-3
18:14:54:213449,-25,-49,-3,29,32,13,-5,-3
18:14:54:214284,-7,12,11,-1,-21,-7,-13,-4
18:14:54:218781,3,4,11,-16,-26,-19,-19,-2
18:14:54:226505,3,4,11,-16,-26,-19,-19,-2
18:14:54:233774,-2,-2,-20,-8,24,25,29,2
18:14:54:241249,-3,4,6,0,7,3,-17,-8
18:14:54:257007,-3,4,6,0,7,3,-17,-8
18:14:54:257803,-2,-2,12,-13,-32,-6,9,-1
18:14:54:263777,19,31,-16,-4,7,20,31,15
18:14:54:272075,19,31,-16,-4,7,20,31,15
18:14:54:272819,-2,-2,-6,3,22,-7,-10,-1
18:14:54:303393,2,-1,10,14,11,-6,-13,-8
18:14:54:304151,2,-1,10,14,11,-6,-13,-8
18:14:54:304953,-12,-11,-12,-29,-9,11,5,1
18:14:54:305760,-13,-9,-45,-10,-2,-11,-12,-9
18:14:54:317032,-13,-9,-45,-10,-2,-11,-12,-9
18:14:54:317762,5,3,39,24,17,3,-3,0
18:14:54:323824,11,-1,15,17,-5,3,19,-2
18:14:54:346795,11,-1,15,17,-5,3,19,-2
18:14:54:355813,8,14,-5,0,-21,-18,25,4
18:14:54:356627,0,-5,-16,-3,21,9,2,-1
18:14:54:357457,0,-5,-16,-3,21,9,2,-1
18:14:54:358277,-11,-19,6,-1,-7,-26,-33,-11
18:14:54:361378,-10,-31,-26,-29,-15,-8,2,-2
18:14:54:369519,-10,-31,-26,-29,-15,-8,2,-2
18:14:54:370325,-3,7,-6,-12,4,11,-5,2
18:14:54:384292,-4,3,-9,14,12,7,2,7
18:14:54:400211,-4,3,-9,14,12,7,2,7
18:14:54:400971,2,-12,-9,8,6,-1,8,6
18:14:54:401787,-28,-9,20,0,-8,7,2,-16
18:14:54:406387,-28,-9,20,0,-8,7,2,-16
18:14:54:413825,14,2,-4,-10,8,6,13,9
18:14:54:421334,-7,31,30,-1,11,4,-3,0
18:14:54:429314,-7,31,30,-1,11,4,-3,0
18:14:54:436356,10,6,-6,-2,-4,7,8,9
18:14:54:443805,30,27,8,-1,13,-9,-8,5
18:14:54:452048,30,27,8,-1,13,-9,-8,5
18:14:54:452794,-8,-15,10,-3,-18,-11,-23,-11
18:14:54:458759,-9,-14,-19,3,21,5,0,-3
18:14:54:466348,-9,-14,-19,3,21,5,0,-3
18:14:54:473856,3,14,18,7,-4,14,-2,5
18:14:54:481299,0,-7,-3,2,-14,-10,-30,-8
18:14:54:489548,0,-7,-3,2,-14,-10,-30,-8
18:14:54:490345,-3,-19,-33,-2,22,6,2,-6
18:14:54:503840,-14,-32,0,-8,-13,-2,-14,1
18:14:54:520229,-14,-32,0,-8,-13,-2,-14,1
18:14:54:520959,-5,-27,-17,-12,0,0,-5,-5
18:14:54:521771,2,-22,-18,-14,-38,-14,-3,4
18:14:54:526347,2,-22,-18,-14,-38,-14,-3,4
18:14:54:533846,-1,18,11,20,16,16,8,-1
18:14:54:541298,-6,-7,-14,-8,-5,-1,37,0
18:14:54:549597,-6,-7,-14,-8,-5,-1,37,0
18:14:54:550305,-3,15,-12,-26,-22,-23,-10,-2
18:14:54:563788,0,1,13,15,18,6,-26,-5
18:14:54:580149,0,1,13,15,18,6,-26,-5
18:14:54:580929,2,-11,-19,-6,-10,-1,6,1
18:14:54:581767,-2,22,6,10,-7,-9,-8,-1
18:14:54:586349,-2,22,6,10,-7,-9,-8,-1
18:14:54:593775,-5,24,19,40,54,3,-18,-5
18:14:54:601399,0,5,-26,-5,6,-2,5,-1
18:14:54:609943,0,5,-26,-5,6,-2,5,-1
18:14:54:624628,-7,-3,-1,-3,-35,-1,25,-1
18:14:54:625296,5,2,12,12,11,12,0,1
18:14:54:632024,5,2,12,12,11,12,0,1
18:14:54:632781,-8,-32,-8,-8,-6,-13,-32,-1
18:14:54:638805,4,-1,-1,-10,-7,6,-14,-6
18:14:54:646336,4,-1,-1,-10,-7,6,-14,-6
18:14:54:653828,0,6,-4,-17,-23,-8,-1,-7
18:14:54:677656,-7,-8,1,-17,-11,-22,-8,-3
18:14:54:678461,-7,-8,1,-17,-11,-22,-8,-3
18:14:54:679265,-2,-8,15,14,12,7,0,-3
18:14:54:692661,-6,-7,4,3,2,-5,-1,0
18:14:54:693465,-6,-7,4,3,2,-5,-1,0
18:14:54:694285,-3,-9,12,-14,-22,1,1,4
18:14:54:723443,-19,-2,-1,8,24,5,-13,-9
18:14:54:724223,-19,-2,-1,8,24,5,-13,-9
18:14:54:725019,18,4,-3,7,4,30,34,13
18:14:54:725759,2,15,7,-9,-13,-20,-6,-4
18:14:54:728927,2,15,7,-9,-13,-20,-6,-4
18:14:54:744459,-6,0,-38,-13,-20,-4,1,-3
18:14:54:745224,-6,-11,-18,-6,-20,-23,1,1
18:14:54:768406,-6,-11,-18,-6,-20,-23,1,1
18:14:54:769133,6,9,13,10,37,9,-6,-5
18:14:54:769941,16,9,-6,-9,-8,-2,8,12
18:14:54:770823,16,9,-6,-9,-8,-2,8,12
18:14:54:773833,-4,-14,16,5,3,-5,-4,-1
18:14:54:781409,2,13,17,-1,13,12,10,-2
18:14:54:788820,2,13,17,-1,13,12,10,-2
18:14:54:813311,-11,-11,-17,-14,-14,-13,1,-3
18:14:54:814075,8,11,-3,18,47,40,17,3
18:14:54:814951,8,11,-3,18,47,40,17,3
18:14:54:815719,2,24,25,16,-12,2,19,3
18:14:54:826999,-2,-2,-6,-17,-36,-12,0,-9
18:14:54:827802,-2,-2,-6,-17,-36,-12,0,-9
18:14:54:833783,1,-14,-12,0,15,-1,-27,-4
18:14:54:841294,-5,12,37,0,-13,-4,10,2
18:14:54:848951,-5,12,37,0,-13,-4,10,2
18:14:54:856378,8,10,0,7,35,2,-5,8
18:14:54:863814,4,1,-12,-11,-1,5,-7,-5
18:14:54:872091,4,1,-12,-11,-1,5,-7,-5
18:14:54:872783,-23,-19,-19,-29,-28,-29,-22,-15
18:14:54:887419,-3,-2,23,12,7,23,9,4
18:14:54:894529,-3,-2,23,12,7,23,9,4
18:14:54:895331,6,6,13,-7,-18,-1,12,-2
18:14:54:901402,8,-12,-26,-10,-31,-14,-5,-2
18:14:54:917082,8,-12,-26,-10,-31,-14,-5,-2
18:14:54:917803,2,2,10,6,4,3,-9,-3
18:14:54:932686,10,6,11,-1,-13,-15,-1,2
18:14:54:933473,10,6,11,-1,-13,-15,-1,2
18:14:54:934291,-9,4,24,17,1,1,-4,1
18:14:54:947017,-7,-5,-23,-20,0,9,15,1
18:14:54:947807,-7,-5,-23,-20,0,9,15,1
18:14:54:953896,9,0,-25,2,1,-4,14,3
18:14:54:961286,-21,-13,17,1,23,-7,-18,-9
18:14:54:968855,-21,-13,17,1,23,-7,-18,-9
18:14:54:976316,-3,8,4,-6,-27,-19,-21,-12
18:14:54:983803,7,7,31,21,15,24,16,9
18:14:54:992016,7,7,31,21,15,24,16,9
18:14:54:992871,-5,-2,14,10,21,5,0,3
18:14:55:7063,4,9,-7,11,35,1,-3,-5
18:14:55:7855,4,9,-7,11,35,1,-3,-5
18:14:55:13836,-16,-9,2,19,-6,5,-4,-3
18:14:55:21377,1,-18,-32,-4,-11,-11,-9,3
18:14:55:37029,1,-18,-32,-4,-11,-11,-9,3
18:14:55:37827,10,14,3,1,42,10,3,5
18:14:55:52654,-22,-38,-23,-12,-16,-21,-45,-14
18:14:55:53470,-22,-38,-23,-12,-16,-21,-45,-14
18:14:55:54316,13,13,10,-1,-29,10,20,6
18:14:55:67006,-6,20,5,12,10,-7,-23,-5
18:14:55:67787,-6,20,5,12,10,-7,-23,-5
18:14:55:73909,-1,-7,-4,-10,9,12,15,5
18:14:55:81317,2,1,-1,-23,-55,-14,1,3
18:14:55:97008,2,1,-1,-23,-55,-14,1,3
18:14:55:97764,6,8,-46,-30,-10,-2,-5,-6
18:14:55:103934,3,-7,-13,-19,-40,-12,6,-11
18:14:55:112005,3,-7,-13,-19,-40,-12,6,-11
18:14:55:112805,-1,-6,-13,15,15,-8,-7,-3
18:14:55:127029,13,10,-8,10,17,-2,10,2
18:14:55:127753,13,10,-8,10,17,-2,10,2
18:14:55:133815,-6,-15,10,7,8,-4,-10,-4
18:14:55:141317,0,-2,-5,-21,4,25,37,11
18:14:55:148919,0,-2,-5,-21,4,25,37,11
18:14:55:164462,-3,-6,-2,-29,-21,-19,-13,-3
18:14:55:165277,6,24,12,14,14,12,6,4
18:14:55:172097,6,24,12,14,14,12,6,4
18:14:55:172783,-9,-25,-19,-18,-35,-15,-2,-7
18:14:55:186960,12,12,6,22,18,2,-18,-5
18:14:55:187790,12,12,6,22,18,2,-18,-5
18:14:55:193793,-13,-2,18,10,1,5,20,5
18:14:55:201363,-2,-13,7,-22,-13,-20,2,4
18:14:55:208846,-2,-13,7,-22,-13,-20,2,4
18:14:55:216329,5,3,-30,-18,-7,0,-11,0
18:14:55:223948,-11,-8,12,22,-14,-8,-8,0
18:14:55:231993,-11,-8,12,22,-14,-8,-8,0
18:14:55:232811,-4,-16,5,10,33,18,-6,1
18:14:55:255672,-6,-7,3,-11,-1,-10,-13,-6
18:14:55:256445,-6,-7,3,-11,-1,-10,-13,-6
18:14:55:257278,-3,6,21,52,43,14,-1,-2
18:14:55:261270,-5,-13,9,3,-9,-5,5,-9
18:14:55:268880,-5,-13,9,3,-9,-5,5,-9
18:14:55:276302,13,2,-6,-16,-12,-10,-4,4
18:14:55:293293,13,16,-1,-3,1,22,30,9
18:14:55:294108,13,16,-1,-3,1,22,30,9
18:14:55:294920,2,10,3,-11,-33,-17,2,-3
18:14:55:307055,-2,-1,-35,-7,37,28,-3,1
18:14:55:307846,-2,-1,-35,-7,37,28,-3,1
18:14:55:313777,-19,4,13,-8,-5,-5,-8,-7
18:14:55:321340,9,2,-6,1,-7,-10,-1,-1
18:14:55:328859,9,2,-6,1,-7,-10,-1,-1
18:14:55:353391,5,-2,-13,-9,-4,5,-9,-1
18:14:55:354078,-10,6,12,-1,-1,6,25,3
18:14:55:354968,-10,6,12,-1,-1,6,25,3
18:14:55:355767,1,-9,10,13,4,7,16,-4
18:14:55:375322,3,2,15,-1,-8,0,-13,-3
18:14:55:375983,3,2,15,-1,-8,0,-13,-3
18:14:55:376783,7,4,-15,0,4,-12,-8,6
18:14:55:381289,-9,-4,-13,2,5,1,-15,-5
18:14:55:397047,-9,-4,-13,2,5,1,-15,-5
18:14:55:397823,7,9,8,8,6,4,6,4
18:14:55:403879,-2,7,15,14,-3,-11,0,5
18:14:55:411996,-2,7,15,14,-3,-11,0,5
18:14:55:412782,-2,-7,-24,-16,-28,3,0,-3
18:14:55:427411,7,5,-24,20,27,4,-2,1
18:14:55:442624,7,5,-24,20,27,4,-2,1
18:14:55:443418,0,7,1,-5,3,-8,-20,-4
18:14:55:444202,-9,0,-9,-25,-22,0,4,2
18:14:55:448903,-9,0,-9,-25,-22,0,4,2
18:14:55:456337,3,-2,14,9,8,1,-10,-3
18:14:55:463822,-4,-8,-19,-4,-11,-5,-7,-8
18:14:55:488398,-4,-8,-19,-4,-11,-5,-7,-8
18:14:55:489192,2,-5,13,8,20,7,6,2
18:14:55:489980,9,4,23,10,-3,-2,0,0
18:14:55:490810,9,4,23,10,-3,-2,0,0
18:14:55:493798,-12,-22,-38,-30,-19,-7,6,-4
18:14:55:501418,-4,-10,36,11,6,1,-7,-4
18:14:55:508826,-4,-10,36,11,6,1,-7,-4
18:14:55:533377,0,13,13,11,4,-8,-23,-1
18:14:55:534148,-7,-12,-6,-12,-5,-2,7,-1
18:14:55:534968,-7,-12,-6,-12,-5,-2,7,-1
18:14:55:535753,-1,-8,8,1,4,7,23,2
18:14:55:547040,4,-14,-9,11,12,3,1,5
18:14:55:547802,4,-14,-9,11,12,3,1,5
18:14:55:553745,-7,4,-16,-2,-3,-4,-3,-5
18:14:55:561256,0,1,-24,-36,-17,-12,-6,-8
18:14:55:576751,0,1,-24,-36,-17,-12,-6,-8
18:14:55:584450,-4,-4,0,-18,-6,-4,-6,-4
18:14:55:585200,2,10,-10,-17,17,1,-3,-1
18:14:55:591993,2,10,-10,-17,17,1,-3,-1
18:14:55:592782,4,10,3,-4,-16,-3,-14,-2
18:14:55:607423,-5,-22,-8,11,1,-1,-6,3
18:14:55:622073,-5,-22,-8,11,1,-1,-6,3
18:14:55:622814,-2,-2,-16,-1,-5,-8,-2,-3
18:14:55:629452,-10,8,-12,0,-6,3,4,-6
18:14:55:630324,-10,8,-12,0,-6,3,4,-6
18:14:55:636409,-2,-3,4,5,3,2,2,8
18:14:55:644479,3,6,38,0,-12,-5,-9,-7
18:14:55:645276,3,6,38,0,-12,-5,-9,-7
18:14:55:675805,10,2,4,0,6,-3,4,6
18:14:55:676587,-16,-2,-17,6,10,1,3,-4
18:14:55:677425,-16,-2,-17,6,10,1,3,-4
18:14:55:678213,3,6,-3,-16,-12,0,-4,-4
18:14:55:689607,-3,-7,-12,-15,-11,0,3,-7
18:14:55:690297,-3,-7,-12,-15,-11,0,3,-7
18:14:55:696268,-15,-32,-30,1,4,15,14,-2
18:14:55:704517,-14,-7,0,10,3,-1,-10,-3
18:14:55:705345,-14,-7,0,10,3,-1,-10,-3
18:14:55:719273,5,14,21,6,-7,-8,-4,0
18:14:55:727006,8,-9,1,-2,-4,-3,1,4
18:14:55:727776,8,-9,1,-2,-4,-3,1,4
18:14:55:733805,-11,-20,-1,19,9,-6,-11,-9
18:14:55:749562,3,2,-11,3,-1,0,6,-3
18:14:55:750302,3,2,-11,3,-1,0,6,-3
18:14:55:765206,9,15,17,-14,-22,-10,10,-1
18:14:55:765971,-9,-13,-7,-8,0,-6,-11,-2
18:14:55:766780,-9,-13,-7,-8,0,-6,-11,-2
18:14:55:778781,5,5,21,-1,0,-2,-12,1
18:14:55:787055,3,-7,-18,-9,-5,5,-2,1
18:14:55:787812,3,-7,-18,-9,-5,5,-2,1
18:14:55:793806,-13,-9,14,14,18,3,1,-1
18:14:55:809553,3,-20,-9,-2,-4,-5,3,5
18:14:55:810304,3,-20,-9,-2,-4,-5,3,5
18:14:55:816380,8,7,-5,11,11,4,-8,0
18:14:55:824503,2,11,3,-1,0,-6,4,-5
18:14:55:825309,2,11,3,-1,0,-6,4,-5
18:14:55:838927,-39,-6,-23,-8,0,-9,-4,-15
18:14:55:847036,-6,3,9,6,-5,3,-12,-1
18:14:55:847876,-6,3,9,6,-5,3,-12,-1
18:14:55:861287,12,-3,7,11,9,9,9,1
18:14:55:869593,7,3,22,16,-2,-6,-2,-3
18:14:55:870310,7,3,22,16,-2,-6,-2,-3
18:14:55:876285,14,-3,1,-3,-38,-6,5,5
18:14:55:900188,1,1,-22,-8,-2,0,18,2
18:14:55:900943,1,1,-22,-8,-2,0,18,2
18:14:55:901742,0,-15,-1,-3,17,14,-2,6
18:14:55:906973,5,8,9,0,-1,3,-1,2
18:14:55:907795,5,8,9,0,-1,3,-1,2
18:14:55:913771,-12,4,9,3,4,-3,3,-10
18:14:55:929440,-5,-2,30,21,13,0,-9,-5
18:14:55:930297,-5,-2,30,21,13,0,-9,-5
18:14:55:936328,10,7,-18,-20,-14,-4,-1,8
18:14:55:944508,-3,10,7,-5,-19,-12,-19,-4
18:14:55:945311,-3,10,7,-5,-19,-12,-19,-4
18:14:55:958803,-1,3,1,-13,-3,-10,-15,5
18:14:55:967057,-11,6,-12,-8,3,4,9,5
18:14:55:967801,-11,6,-12,-8,3,4,9,5
18:14:55:973830,-16,-12,-3,-6,2,5,-5,-5
18:14:55:997720,26,5,4,15,5,-2,-3,9
18:14:55:998462,26,5,4,15,5,-2,-3,9
18:14:55:999282,9,17,-7,9,7,1,9,3
18:14:56:4513,-11,-23,-20,-6,7,8,19,-4
18:14:56:5367,-11,-23,-20,-6,7,8,19,-4
18:14:56:18853,9,-3,-2,-4,4,-4,-6,-2
18:14:56:26981,-5,2,0,-9,-1,5,-2,2
18:14:56:27786,-5,2,0,-9,-1,5,-2,2
18:14:56:33793,3,22,8,-1,1,10,16,8
18:14:56:49528,-29,-21,-5,-7,-6,-6,-13,-15
18:14:56:50283,-29,-21,-5,-7,-6,-6,-13,-15
18:14:56:56314,-7,-2,-16,9,2,-5,-7,-8
18:14:56:72045,-7,-2,-16,9,2,-5,-7,-8
18:14:56:72854,12,2,-12,-12,-7,-1,1,5
18:14:56:87698,1,5,12,1,-6,2,-15,2
18:14:56:88439,1,5,12,1,-6,2,-15,2
18:14:56:89225,-9,-4,6,-3,5,0,20,-2
18:14:56:93740,4,9,-13,-15,-25,-6,0,0
18:14:56:109516,4,9,-13,-15,-25,-6,0,0
18:14:56:110255,3,7,-1,-3,-2,-3,-1,9
18:14:56:116329,0,-6,-5,-13,-2,-1,1,-5
18:14:56:132075,0,-6,-5,-13,-2,-1,1,-5
18:14:56:132892,-1,11,8,-10,15,2,-13,-1
18:14:56:138884,-17,-29,-11,-22,-19,-9,-5,-12
18:14:56:146984,-17,-29,-11,-22,-19,-9,-5,-12
18:14:56:147793,-1,4,12,13,7,0,8,-3
18:14:56:153844,-2,1,23,-12,-17,-11,-15,-4
18:14:56:169335,-2,1,23,-12,-17,-11,-15,-4
18:14:56:176951,1,4,-1,1,2,1,-17,-7
18:14:56:177755,13,22,23,12,1,8,12,8
18:14:56:192076,13,22,23,12,1,8,12,8
18:14:56:192787,5,-6,12,1,-9,-1,10,4
18:14:56:198783,2,18,-11,11,4,5,8,3
18:14:56:207018,2,18,-11,11,4,5,8,3
18:14:56:207805,-2,-12,10,3,2,1,-3,-5
18:14:56:213980,17,-5,-29,-12,1,-11,-25,0
18:14:56:229527,17,-5,-29,-12,1,-11,-25,0
18:14:56:230327,-2,1,-5,19,28,3,9,5
18:14:56:236292,-2,9,5,15,3,-10,-26,-6
18:14:56:252080,-2,9,5,15,3,-10,-26,-6
18:14:56:252869,3,-10,-7,-14,-19,1,5,-1
18:14:56:258776,-4,-41,-49,-8,6,-4,-6,0
18:14:56:275245,-4,-41,-49,-8,6,-4,-6,0
18:14:56:275939,1,1,4,3,-8,3,11,-3
18:14:56:276751,-16,-29,18,6,4,1,15,-5
18:14:56:289709,-16,-29,18,6,4,1,15,-5
18:14:56:290399,2,4,-23,-21,-24,-13,-24,-5
18:14:56:296258,2,-1,5,7,5,11,20,2
18:14:56:320320,2,-1,5,7,5,11,20,2
18:14:56:321034,-3,-21,-22,-8,-6,-3,11,-4
18:14:56:321841,-5,3,24,7,4,2,23,2
18:14:56:326996,-5,3,24,7,4,2,23,2
18:14:56:327771,-11,-9,-1,-5,0,-1,-6,3
18:14:56:333856,-10,-17,7,17,6,3,8,-2
18:14:56:349591,-10,-17,7,17,6,3,8,-2
18:14:56:350389,8,19,15,1,1,6,0,2
18:14:56:363964,7,18,4,-13,2,2,2,2
18:14:56:372090,7,18,4,-13,2,2,2,2
18:14:56:372887,3,2,3,7,0,-12,-22,-11
18:14:56:378780,-14,-16,-7,13,21,5,25,-7
18:14:56:387152,-14,-16,-7,13,21,5,25,-7
18:14:56:388167,3,-10,2,-1,-11,-15,-33,-4
18:14:56:393787,2,8,11,-1,-7,12,7,8
18:14:56:409933,2,8,11,-1,-7,12,7,8
18:14:56:417033,-12,0,14,-2,5,0,16,3
18:14:56:417810,10,6,-12,-7,-5,-9,-16,-1
18:14:56:432097,10,6,-12,-7,-5,-9,-16,-1
18:14:56:432867,6,13,-3,-1,-4,-3,-16,1
18:14:56:438929,-3,15,2,-6,-10,4,20,2
18:14:56:446846,-3,15,2,-6,-10,4,20,2
18:14:56:454521,6,-4,-38,-9,-6,-3,37,2
18:14:56:455336,5,10,10,-12,-8,-10,-15,-5
18:14:56:469583,5,10,10,-12,-8,-10,-15,-5
18:14:56:470313,-1,-14,-5,-14,-11,0,-8,-1
18:14:56:476268,-2,-12,3,4,5,-6,-22,-10
18:14:56:492058,-2,-12,3,4,5,-6,-22,-10
18:14:56:492767,-15,-30,-29,-3,-2,4,4,-3
18:14:56:507781,2,-3,-18,7,6,4,-2,9
18:14:56:508549,2,-3,-18,7,6,4,-2,9
18:14:56:509255,-20,-21,5,5,-3,-4,-15,-7
18:14:56:513844,4,4,3,-8,4,-9,-44,-8
18:14:56:529490,4,4,3,-8,4,-9,-44,-8
18:14:56:530329,-11,10,16,1,-11,-4,-6,1
18:14:56:536359,-11,-17,-14,11,-1,-6,-7,-9
18:14:56:552003,-11,-17,-14,11,-1,-6,-7,-9
18:14:56:552801,6,32,9,5,8,3,-12,3
18:14:56:558886,-15,4,7,0,-6,0,4,-3
18:14:56:567044,-15,4,7,0,-6,0,4,-3
18:14:56:567793,2,-14,-9,2,5,-10,0,-10
18:14:56:581396,-2,-4,-3,2,-2,-4,-9,0
18:14:56:597662,-2,-4,-3,2,-2,-4,-9,0
18:14:56:598506,6,21,-14,3,10,9,-7,4
18:14:56:599253,7,-17,-22,-13,-3,2,23,5
18:14:56:603973,7,-17,-22,-13,-3,2,23,5
18:14:56:611316,2,9,16,8,6,-7,-27,1
18:14:56:618810,-5,-17,5,-6,2,0,4,1
18:14:56:626965,-5,-17,5,-6,2,0,4,1
18:14:56:627745,3,-8,-20,14,-1,1,1,4
18:14:56:641345,5,14,15,0,5,-2,-15,-4
18:14:56:649706,5,14,15,0,5,-2,-15,-4
18:14:56:650383,3,-4,0,-18,-6,-1,12,-8
18:14:56:656339,18,27,4,6,3,9,16,7
18:14:56:672103,18,27,4,6,3,9,16,7
18:14:56:672841,-5,26,13,-11,-8,-13,-11,-3
18:14:56:695100,10,-2,27,-2,-3,-3,-13,6
18:14:56:695916,10,-2,27,-2,-3,-3,-13,6
18:14:56:696717,17,2,40,3,7,19,20,8
18:14:56:701403,-12,-8,6,6,-3,-9,-5,-2
18:14:56:709475,-12,-8,6,6,-3,-9,-5,-2
18:14:56:710268,-7,7,8,-1,-6,-5,-10,1
18:14:56:716312,10,18,-11,1,9,4,27,3
18:14:56:724002,10,18,-11,1,9,4,27,3
18:14:56:731303,-1,-13,2,-6,5,2,0,-7
18:14:56:738851,-35,-24,-2,4,-14,-10,-8,-14
18:14:56:747234,-35,-24,-2,4,-14,-10,-8,-14
18:14:56:747884,5,-28,-30,1,1,11,39,8
18:14:56:761265,10,16,-12,-3,-3,-10,-19,1
18:14:56:769676,10,16,-12,-3,-3,-10,-19,1
18:14:56:770359,-22,3,12,6,3,1,2,-7
18:14:56:776291,-8,7,34,1,8,7,-2,-6
18:14:56:783933,-8,7,34,1,8,7,-2,-6
18:14:56:791329,21,5,12,0,-6,-5,-6,4
18:14:56:798899,-14,-15,-7,0,-13,-1,-10,-3
18:14:56:807025,-14,-15,-7,0,-13,-1,-10,-3
18:14:56:807804,30,31,0,-1,4,8,8,15
18:14:56:830126,10,9,-19,-4,0,3,10,-1
18:14:56:831033,10,9,-19,-4,0,3,10,-1
18:14:56:831744,-27,-9,-17,-1,-3,-16,-21,-8
18:14:56:836313,12,-21,-33,-17,-2,1,6,2
18:14:56:843838,12,-21,-33,-17,-2,1,6,2
18:14:56:851397,-4,3,-4,5,18,5,5,1
18:14:56:858801,-10,-12,-7,-1,-16,-9,1,-5
18:14:56:867062,-10,-12,-7,-1,-16,-9,1,-5
18:14:56:867794,30,4,-1,7,-10,1,-7,1
18:14:56:881299,-30,-28,-12,-5,-4,-2,-8,-18
18:14:56:889519,-30,-28,-12,-5,-4,-2,-8,-18
18:14:56:890352,-2,-1,-4,-2,-2,-8,-6,-2
18:14:56:896269,7,14,27,-8,-9,4,29,11
18:14:56:903980,7,14,27,-8,-9,4,29,11
18:14:56:919475,-7,-5,-28,-3,5,16,29,-6
18:14:56:920266,-10,-16,7,10,6,7,-2,-1
18:14:56:927068,-10,-16,7,10,6,7,-2,-1
18:14:56:927825,-7,-4,12,-7,-17,-3,-1,-4
18:14:56:941290,31,36,-28,-3,2,-5,-10,9
18:14:56:949601,31,36,-28,-3,2,-5,-10,9
18:14:56:950358,-21,-16,-4,1,-3,-9,-3,0
18:14:56:956293,-7,0,-5,-12,5,5,7,0
18:14:56:963880,-7,0,-5,-12,5,5,7,0
18:14:56:971417,-21,-8,-16,-7,1,-12,-25,-14
18:14:56:978804,-23,-7,-7,-2,-2,9,13,-1
18:14:56:987024,-23,-7,-7,-2,-2,9,13,-1
18:14:56:987814,-4,0,14,-1,-6,-7,-14,-5
18:14:57:18292,5,3,19,4,-7,-5,-10,-4
18:14:57:19070,5,3,19,4,-7,-5,-10,-4
18:14:57:19921,-2,-8,-2,-7,-9,0,15,3
18:14:57:20710,-2,9,15,1,-3,-4,1,-2
18:14:57:23853,-2,9,15,1,-3,-4,1,-2
18:14:57:31330,5,8,-7,0,10,0,-4,2
18:14:57:38833,11,-1,-33,0,7,-11,-9,-5
18:14:57:46985,11,-1,-33,0,7,-11,-9,-5
18:14:57:47775,17,-4,-8,-2,6,2,7,6
18:14:57:61302,-3,-1,2,15,-4,-8,-8,-3
18:14:57:69525,-3,-1,2,15,-4,-8,-8,-3
18:14:57:70303,-12,-12,-4,-1,-2,-5,-10,-7
18:14:57:76329,18,-4,-8,-5,9,8,-4,2
18:14:57:83836,18,-4,-8,-5,9,8,-4,2
18:14:57:91247,-2,-10,-9,1,0,11,14,5
18:14:57:98785,21,15,21,9,-1,4,0,5
18:14:57:107031,21,15,21,9,-1,4,0,5
18:14:57:107802,-7,12,15,2,5,-3,-7,-3
18:14:57:121408,-10,-14,6,-4,-6,-2,-13,-2
18:14:57:129482,-10,-14,6,-4,-6,-2,-13,-2
18:14:57:130266,-7,-13,0,-15,-26,-12,-20,-3
18:14:57:136291,-25,-24,-23,-1,5,1,7,-4
18:14:57:143855,-25,-24,-23,-1,5,1,7,-4
18:14:57:151414,5,3,8,-13,-3,3,17,3
18:14:57:158803,-10,7,16,-4,0,1,16,-5
18:14:57:167069,-10,7,16,-4,0,1,16,-5
18:14:57:167790,11,8,6,0,-7,-5,9,2
18:14:57:181333,6,14,-1,10,14,5,-16,4
18:14:57:189268,6,14,-1,10,14,5,-16,4
18:14:57:198094,11,4,-8,3,12,-3,-8,-1
18:14:57:204521,-5,-2,-12,-6,-19,-3,-7,0
18:14:57:205356,-5,-2,-12,-6,-19,-3,-7,0
18:14:57:211288,4,11,19,0,-9,-2,1,2
18:14:57:218792,5,-1,3,-6,-13,-11,-13,-4
18:14:57:227034,5,-1,3,-6,-13,-11,-13,-4
18:14:57:227793,9,8,-27,-18,5,4,0,-1
18:14:57:241763,3,-2,-26,-2,-1,6,30,1
18:14:57:249620,3,-2,-26,-2,-1,6,30,1
18:14:57:250351,-4,-36,2,9,3,2,4,0
18:14:57:256294,17,-6,-16,-4,2,-5,-24,8
18:14:57:263906,17,-6,-16,-4,2,-5,-24,8
18:14:57:271357,-24,-31,7,8,-7,5,3,-11
18:14:57:278797,-2,13,1,2,4,-19,-37,-9
18:14:57:294521,-2,13,1,2,4,-19,-37,-9
18:14:57:295289,19,28,7,11,9,0,-7,4
18:14:57:301326,9,17,34,3,13,6,10,-5
18:14:57:309539,9,17,34,3,13,6,10,-5
18:14:57:310291,-30,21,-12,0,0,-5,-9,-4
18:14:57:316366,-6,6,-1,-11,-11,-10,-16,-2
18:14:57:323884,-6,6,-1,-11,-11,-10,-16,-2
18:14:57:339562,-6,14,6,4,-1,-3,-10,-9
18:14:57:340277,-6,-5,12,21,0,2,14,8
18:14:57:347071,-6,-5,12,21,0,2,14,8
18:14:57:347817,-1,-17,1,9,6,4,9,7
18:14:57:361264,-7,-21,-7,-6,-3,1,3,-8
18:14:57:369633,-7,-21,-7,-6,-3,1,3,-8
18:14:57:370312,5,17,12,3,10,-7,-24,-2
18:14:57:384488,6,-2,-2,-7,-4,3,10,6
18:14:57:385292,6,-2,-2,-7,-4,3,10,6
18:14:57:391392,-3,-1,-9,8,2,6,4,-6
18:14:57:398800,-13,-20,-6,-12,-9,-7,-9,6
18:14:57:407004,-13,-20,-6,-12,-9,-7,-9,6
18:14:57:407791,10,-10,-13,-5,-2,6,8,-1
18:14:57:421369,-3,0,-10,-9,-11,1,4,-6
18:14:57:429510,-3,0,-10,-9,-11,1,4,-6
18:14:57:430338,-1,-16,-40,-8,4,1,13,-4
18:14:57:436363,-9,7,-7,-5,8,-2,14,0
18:14:57:443825,-9,7,-7,-5,8,-2,14,0
18:14:57:451336,8,29,25,10,4,-6,-17,4
18:14:57:458779,6,3,-16,4,3,12,14,3
18:14:57:466879,6,3,-16,4,3,12,14,3
18:14:57:473842,-8,-3,8,-3,0,-8,-7,0
18:14:57:481341,2,6,12,11,9,2,10,-1
18:14:57:489593,2,6,12,11,9,2,10,-1
18:14:57:490351,-8,-5,0,-21,-6,-7,-8,2
18:14:57:496421,-10,-26,-32,-13,-1,-5,-7,-8
18:14:57:503825,-10,-26,-32,-13,-1,-5,-7,-8
18:14:57:511275,-14,-17,-11,-2,-4,-3,-13,-14
18:14:57:526955,16,20,14,2,-2,-6,-4,-3
18:14:57:527758,16,20,14,2,-2,-6,-4,-3
18:14:57:533870,12,11,15,7,-3,14,34,5
18:14:57:541435,-7,0,21,16,6,-8,-23,-3
18:14:57:549550,-7,0,21,16,6,-8,-23,-3
18:14:57:550355,-6,-7,-18,-13,-7,-10,-7,-4
18:14:57:573129,3,8,-3,-16,-10,4,12,-1
18:14:57:573984,3,8,-3,-16,-10,4,12,-1
18:14:57:574727,5,3,12,11,10,7,6,2
18:14:57:578816,7,5,8,-1,9,2,-14,4
18:14:57:586497,7,5,8,-1,9,2,-14,4
18:14:57:593788,-2,-9,15,-2,-2,-4,-1,-5
18:14:57:601284,-1,2,8,4,-9,2,21,4
18:14:57:617038,-1,2,8,4,-9,2,21,4
18:14:57:617817,19,4,2,5,1,-8,-14,0
18:14:57:632676,-3,-5,-9,5,-6,2,-3,1
18:14:57:633485,-3,-5,-9,5,-6,2,-3,1
18:14:57:634319,-14,-3,0,-1,-2,-3,-24,0
18:14:57:638873,9,18,18,2,7,13,16,8
18:14:57:646371,9,18,18,2,7,13,16,8
18:14:57:661970,-6,-14,6,0,-6,5,13,-1
18:14:57:662708,-13,-21,4,-2,-4,-5,-11,-8
18:14:57:669616,-13,-21,4,-2,-4,-5,-11,-8
18:14:57:670317,6,20,-3,-3,-5,-14,-8,0
18:14:57:684481,-16,-14,-38,-22,-4,-3,-1,-7
18:14:57:685289,-16,-14,-38,-22,-4,-3,-1,-7
18:14:57:691357,2,11,-4,0,-7,1,7,-1
18:14:57:699402,-2,-20,-31,-3,3,-3,3,1
18:14:57:706330,-2,-20,-31,-3,3,-3,3,1
18:14:57:713911,-4,17,-6,6,6,7,16,-1
18:14:57:721277,-3,3,14,-2,2,2,-9,-6
18:14:57:729536,-3,3,14,-2,2,2,-9,-6
18:14:57:730296,-6,-15,-1,8,-7,3,40,1
18:14:57:744252,-1,3,9,3,-4,-4,-4,-1
18:14:57:760199,-1,3,9,3,-4,-4,-4,-1
18:14:57:760914,3,5,55,8,-3,-6,-8,1
18:14:57:761731,6,5,-2,6,3,-12,-9,-5
18:14:57:766398,6,5,-2,6,3,-12,-9,-5
18:14:57:773769,1,-6,7,-4,0,10,12,6
18:14:57:781249,-19,-10,12,10,-9,-7,-27,-9
18:14:57:789586,-19,-10,12,10,-9,-7,-27,-9
18:14:57:790301,-3,-2,-34,-7,1,2,-3,-4
18:14:57:804505,11,4,5,-5,-5,1,2,6
18:14:57:805301,11,4,5,-5,-5,1,2,6
18:14:57:811299,-20,-21,9,3,-3,-3,0,-5
18:14:57:818844,-8,-6,-42,-13,3,3,3,7
18:14:57:826439,-8,-6,-42,-13,3,3,3,7
18:14:57:833833,10,-7,-9,-2,-6,-11,-22,4
18:14:57:841386,-2,-11,9,8,9,6,17,-2
18:14:57:849576,-2,-11,9,8,9,6,17,-2
18:14:57:850352,8,1,0,-2,3,1,-2,5
18:14:57:864533,22,22,12,1,-5,8,17,9
18:14:57:865301,22,22,12,1,-5,8,17,9
18:14:57:871398,-12,-11,-1,5,4,-4,-11,-5
18:14:57:878797,-3,8,45,12,6,-3,-10,-6
18:14:57:894523,-3,8,45,12,6,-3,-10,-6
18:14:57:895287,6,-1,-2,-21,-8,-3,8,4
18:14:57:901304,-10,-1,1,-3,0,4,1,-2
18:14:57:909539,-10,-1,1,-3,0,4,1,-2
18:14:57:910302,6,4,-9,-18,-11,-1,-11,-9
18:14:57:924535,7,2,-6,3,2,1,-14,-3
18:14:57:925348,7,2,-6,3,2,1,-14,-3
18:14:57:939555,0,11,23,12,5,3,-18,-2
18:14:57:940261,7,-1,40,10,-1,-2,0,0
18:14:57:946318,7,-1,40,10,-1,-2,0,0
18:14:57:953817,5,0,-29,-7,-1,6,8,4
18:14:57:961287,-1,-14,-23,-16,0,-5,2,2
18:14:57:969567,-1,-14,-23,-16,0,-5,2,2
18:14:57:970314,-9,-9,-11,1,1,-8,2,1
18:14:57:984490,-11,-20,-43,-13,-6,2,26,-6
18:14:57:985286,-11,-20,-43,-13,-6,2,26,-6
18:14:57:991405,-9,-16,-13,-7,-9,-4,-5,-2
18:14:57:998803,7,12,26,4,-4,-13,-27,-4
18:14:58:6374,7,12,26,4,-4,-13,-27,-4
18:14:58:13759,-23,-2,14,33,3,-2,-11,-8
18:14:58:21387,-10,-14,-4,10,3,5,2,3
18:14:58:37132,-10,-14,-4,10,3,5,2,3
18:14:58:37807,15,10,-26,-11,3,-5,-25,2
18:14:58:44509,10,9,17,5,-3,0,0,5
18:14:58:45285,10,9,17,5,-3,0,0,5
18:14:58:51299,0,4,6,-12,-4,-4,10,-5
18:14:58:58789,-2,7,-10,-12,-4,-6,-11,-1
18:14:58:66507,-2,7,-10,-12,-4,-6,-11,-1
18:14:58:73877,-4,2,1,4,1,-1,0,-4
18:14:58:81360,2,5,-10,-4,-11,2,31,-4
18:14:58:89586,2,5,-10,-4,-11,2,31,-4
18:14:58:90280,1,-11,-6,0,-3,-7,-3,1
18:14:58:104543,5,9,19,-2,2,-6,-23,-3
18:14:58:105361,5,9,19,-2,2,-6,-23,-3
18:14:58:119569,2,1,-1,-8,6,4,-6,-1
18:14:58:120255,-3,-6,-40,0,6,6,-6,-2
18:14:58:126326,-3,-6,-40,0,6,6,-6,-2
18:14:58:133850,-6,-2,15,2,-1,3,13,-5
18:14:58:141378,-13,1,-9,-5,-1,2,24,5
18:14:58:149519,-13,1,-9,-5,-1,2,24,5
18:14:58:150308,18,-2,-6,1,-7,2,11,9
18:14:58:172682,-13,-11,3,-5,-3,-5,-20,-9
18:14:58:173513,-13,-11,3,-5,-3,-5,-20,-9
18:14:58:174310,2,9,-21,-7,2,-4,-13,-5
18:14:58:178790,8,14,0,-6,-2,-16,-12,-9
18:14:58:186522,8,14,0,-6,-2,-16,-12,-9
18:14:58:193763,2,-12,-22,-12,-9,-10,-5,-3
18:14:58:201332,7,8,45,18,0,8,7,2
18:14:58:217077,7,8,45,18,0,8,7,2
18:14:58:217786,9,6,-6,-2,5,9,-2,-2
18:14:58:224545,-20,-63,-18,1,3,-7,-7,-13
18:14:58:225365,-20,-63,-18,1,3,-7,-7,-13
18:14:58:231339,-3,6,26,8,-1,-1,-8,2
18:14:58:238830,7,28,13,6,4,2,-9,6
18:14:58:246379,7,28,13,6,4,2,-9,6
18:14:58:253840,-19,2,-6,-21,-1,-2,-1,-8
18:14:58:270318,8,-2,-18,-8,-7,6,14,7
18:14:58:271071,8,-2,-18,-8,-7,6,14,7
18:14:58:271893,7,8,6,6,0,7,19,12
18:14:58:284511,-16,16,27,14,-1,-10,13,5
18:14:58:285301,-16,16,27,14,-1,-10,13,5
18:14:58:291415,12,17,34,3,-2,2,3,5
18:14:58:307026,0,-1,-9,-8,-1,-6,-29,-3
18:14:58:307812,0,-1,-9,-8,-1,-6,-29,-3
18:14:58:313863,-1,-11,-39,3,-4,-2,9,-4
18:14:58:321283,9,-16,-2,-7,0,11,5,-3
18:14:58:329518,9,-16,-2,-7,0,11,5,-3
18:14:58:330280,-8,-2,18,3,9,3,4,-5
18:14:58:352672,16,24,15,4,3,-2,-6,5
18:14:58:353429,16,24,15,4,3,-2,-6,5
18:14:58:354262,3,-19,-1,13,4,-2,-4,1
18:14:58:358787,-19,-15,-30,-6,-7,-12,-16,-7
18:14:58:366397,-19,-15,-30,-6,-7,-12,-16,-7
18:14:58:373797,-8,0,3,5,-3,-7,-39,-5
18:14:58:381340,-14,3,3,-3,-2,8,27,-3
18:14:58:389376,-14,3,3,-3,-2,8,27,-3
18:14:58:405180,-13,-3,-30,-9,-5,3,26,2
18:14:58:405977,34,11,8,-1,-2,-9,-16,8
18:14:58:406762,34,11,8,-1,-2,-9,-16,8
18:14:58:411259,-4,-21,17,4,0,-3,-7,-27
18:14:58:418876,-31,-20,-19,-2,-2,4,11,-4
18:14:58:426369,-31,-20,-19,-2,-2,4,11,-4
18:14:58:433800,1,-6,4,8,-2,5,0,4
18:14:58:450141,7,17,-31,-3,-3,-4,-7,-10
18:14:58:450932,7,17,-31,-3,-3,-4,-7,-10
18:14:58:451766,-27,-24,-33,-12,-3,-5,4,-1
18:14:58:464478,5,-3,13,-3,3,-3,0,7
18:14:58:465234,5,-3,13,-3,3,-3,0,7
18:14:58:471375,15,33,7,-2,0,8,14,2
18:14:58:503332,-11,-20,12,5,-5,2,5,-5
18:14:58:504134,-11,-20,12,5,-5,2,5,-5
18:14:58:504987,-21,-28,-6,-3,0,-7,-16,-4
18:14:58:505745,-18,-4,-11,-13,-1,-3,6,-9
18:14:58:508814,-18,-4,-11,-13,-1,-3,6,-9
18:14:58:516374,17,10,13,-3,-3,-17,-22,7
18:14:58:524533,1,-8,2,6,8,21,27,2
18:14:58:525350,1,-8,2,6,8,21,27,2
18:14:58:531330,2,3,-25,-2,-2,2,27,2
18:14:58:547472,11,-34,-29,-11,-7,-1,6,3
18:14:58:548263,11,-34,-29,-11,-7,-1,6,3
18:14:58:553912,53,46,33,12,2,-2,3,0
18:14:58:561313,12,-12,-20,-18,2,-8,-9,-6
18:14:58:568905,12,-12,-20,-18,2,-8,-9,-6
18:14:58:576318,0,9,-5,-3,-1,-2,-14,3
18:14:58:592624,4,18,-2,5,2,-4,4,-5
18:14:58:593430,4,18,-2,5,2,-4,4,-5
18:14:58:594250,-29,-34,-50,-20,-5,1,-3,-7
18:14:58:607059,-9,2,5,16,0,-1,-7,-2
18:14:58:607808,-9,2,5,16,0,-1,-7,-2
18:14:58:613772,7,6,2,7,-2,-5,-4,0
18:14:58:621290,-9,-2,18,-1,3,8,14,7
18:14:58:637112,-9,-2,18,-1,3,8,14,7
18:14:58:637823,-3,-9,-11,-4,-1,-7,-28,-3
18:14:58:644483,11,-15,9,1,-4,-2,-7,-1
18:14:58:645291,11,-15,9,1,-4,-2,-7,-1
18:14:58:651334,-4,-8,5,-1,-8,-3,-2,1
18:14:58:667012,-11,5,12,0,1,1,2,14
18:14:58:667802,-11,5,12,0,1,1,2,14
18:14:58:681980,4,-4,20,-8,0,3,-8,-1
18:14:58:682726,2,18,-19,-13,-3,4,13,0
18:14:58:688947,2,18,-19,-13,-3,4,13,0
18:14:58:696302,1,-4,0,6,7,11,20,10
18:14:58:704489,3,-1,-5,0,2,-14,-25,-4
18:14:58:705285,3,-1,-5,0,2,-14,-25,-4
18:14:58:711294,6,7,17,-11,-2,3,16,2
18:14:58:726957,-8,15,9,4,-4,-8,-18,1
18:14:58:727739,-8,15,9,4,-4,-8,-18,1
18:14:58:733893,6,-7,-6,-7,2,0,1,-2
18:14:58:741326,14,25,-1,7,-2,-9,-21,-5
