Time,EMG1,EMG2,EMG3,EMG4,EMG5,EMG6,EMG7,EMG8
18:26:53:616117,-3,-2,-11,-19,-4,-2,-2,0
18:26:53:616869,-2,-1,6,3,-2,-1,-2,-3
18:26:53:622852,0,-2,5,7,-1,-3,-1,-2
18:26:53:631135,0,-2,5,7,-1,-3,-1,-2
18:26:53:631881,-1,-3,-11,-18,-4,-2,-2,-1
18:26:53:637869,-1,-2,-2,-1,-3,-1,0,-1
18:26:53:653604,-1,-2,-2,-1,-3,-1,0,-1
18:26:53:654344,-1,0,9,12,2,0,-1,-1
18:26:53:660364,-2,-1,-1,-6,-3,0,-2,1
18:26:53:668621,-2,-1,-1,-6,-3,0,-2,1
18:26:53:669369,-2,0,1,3,-2,-2,-1,-1
18:26:53:682895,-1,2,6,11,1,0,0,-1
18:26:53:691134,-1,2,6,11,1,0,0,-1
18:26:53:691881,0,0,-2,0,-1,-2,-2,0
18:26:53:697873,0,0,6,-1,-1,-2,1,-1
18:26:53:713620,0,0,6,-1,-1,-2,1,-1
18:26:53:714363,-1,-1,-8,-9,-1,-2,-1,-1
18:26:53:720378,-2,-1,-3,-1,-7,-2,-1,-3
18:26:53:728611,-2,-1,-3,-1,-7,-2,-1,-3
18:26:53:729357,-1,-3,-7,-14,-5,-1,-2,-1
18:26:53:742866,-1,-1,-7,-4,1,-1,-1,-2
18:26:53:751140,-1,-1,-7,-4,1,-1,-1,-2
18:26:53:751882,-1,-2,3,9,1,-1,-1,-1
18:26:53:765367,-1,0,1,-2,1,0,-1,-1
18:26:53:773653,-1,0,1,-2,1,0,-1,-1
18:26:53:774377,0,-2,13,12,5,1,0,2
18:26:53:780412,0,-1,-4,0,0,0,-2,-2
18:26:53:788639,0,-1,-4,0,0,0,-2,-2
18:26:53:789405,-2,-1,-13,-11,3,0,-1,-2
18:26:53:802896,-1,-3,-3,-2,-4,0,0,1
18:26:53:811142,-1,-3,-3,-2,-4,0,0,1
18:26:53:811886,-2,-2,-4,2,-1,0,-1,-2
18:26:53:817884,0,-2,-3,-3,0,-1,-1,-2
18:26:53:833650,0,-2,-3,-3,0,-1,-1,-2
18:26:53:834384,-1,1,5,1,-3,-1,-1,-1
18:26:53:840367,0,-1,-2,3,2,-2,0,0
18:26:53:848630,0,-1,-2,3,2,-2,0,0
18:26:53:849372,-1,1,-2,3,3,0,-1,-2
18:26:53:862941,-2,-1,-2,-6,-1,-2,-2,0
18:26:53:871102,-2,-1,-2,-6,-1,-2,-2,0
18:26:53:871839,0,0,17,9,-4,-1,-1,0
18:26:53:885386,0,-1,4,7,1,0,-2,0
18:26:53:893632,0,-1,4,7,1,0,-2,0
18:26:53:894377,0,0,0,2,-2,-1,0,-2
18:26:53:900388,-2,-3,-9,-3,-4,-4,-1,-1
18:26:53:908629,-2,-3,-9,-3,-4,-4,-1,-1
18:26:53:909378,0,-1,-3,4,0,0,-2,-1
18:26:53:922882,-2,-1,-4,-2,5,1,0,-1
18:26:53:931138,-2,-1,-4,-2,5,1,0,-1
18:26:53:931878,1,-1,0,-2,-1,-2,2,-1
18:26:53:937904,-1,-2,3,-4,-1,-3,-1,-1
18:26:53:953696,-1,-2,3,-4,-1,-3,-1,-1
18:26:53:954408,-2,-1,-14,-13,-4,-3,-1,-1
18:26:53:960356,-1,1,-6,-10,-2,0,-1,-1
18:26:53:968649,-1,1,-6,-10,-2,0,-1,-1
18:26:53:969388,-1,-2,-2,-1,0,-2,-1,-1
18:26:53:982891,-1,-2,8,7,-4,-2,-1,-2
18:26:53:991107,-1,-2,8,7,-4,-2,-1,-2
18:26:53:991854,-1,0,-8,-7,2,1,0,-2
18:26:53:997916,1,0,-3,-4,1,-2,0,-2
18:26:54:13660,1,0,-3,-4,1,-2,0,-2
18:26:54:14391,-2,-3,3,5,-1,0,0,0
18:26:54:20388,-1,-2,2,3,-2,-2,-1,-1
18:26:54:28618,-1,-2,2,3,-2,-2,-1,-1
18:26:54:29362,1,0,-2,-6,-2,-2,-2,0
18:26:54:42867,-1,-2,-12,-13,-3,1,-1,-1
18:26:54:51123,-1,-2,-12,-13,-3,1,-1,-1
18:26:54:51868,-1,-1,-4,-2,0,-2,-1,-1
18:26:54:57853,-1,3,2,6,1,2,-1,-1
18:26:54:73632,-1,3,2,6,1,2,-1,-1
18:26:54:74385,0,0,0,-1,-3,0,-1,1
18:26:54:80387,-1,0,4,6,-1,0,-1,-1
18:26:54:88652,-1,0,4,6,-1,0,-1,-1
18:26:54:89362,-1,1,1,1,-1,-1,-1,-3
18:26:54:102876,-1,-2,-2,6,0,-1,-1,1
18:26:54:111115,-1,-2,-2,6,0,-1,-1,1
18:26:54:111874,-1,-1,7,6,-3,-1,-1,-1
18:26:54:117871,-2,-4,-9,-2,-2,-2,-1,-1
18:26:54:133647,-2,-4,-9,-2,-2,-2,-1,-1
18:26:54:134364,0,-2,-2,4,4,-1,0,0
18:26:54:140387,0,1,1,-5,-2,-1,0,-1
18:26:54:148040,0,1,1,-5,-2,-1,0,-1
18:26:54:163501,0,-1,-13,-9,-6,-1,-1,0
18:26:54:164386,-2,-1,-1,2,-1,-1,-2,-1
18:26:54:171121,-2,-1,-1,2,-1,-1,-2,-1
18:26:54:171850,-2,-1,-3,1,1,0,-1,0
18:26:54:194261,-3,0,-4,-4,-4,-1,-1,-1
18:26:54:194996,-3,0,-4,-4,-4,-1,-1,-1
18:26:54:195972,-2,-1,-5,-5,4,1,-1,-1
18:26:54:200415,-1,0,3,-4,0,-1,-1,0
18:26:54:207913,-1,0,3,-4,0,-1,-1,0
18:26:54:215435,-3,-2,-9,-3,-2,-3,0,-2
18:26:54:222871,0,-1,9,2,0,-3,-1,-1
18:26:54:231185,0,-1,9,2,0,-3,-1,-1
18:26:54:231890,1,-1,4,-7,-3,-2,-2,0
18:26:54:245394,0,-1,0,2,-2,-1,-1,-1
18:26:54:253597,0,-1,0,2,-2,-1,-1,-1
18:26:54:254339,-1,-1,2,-2,-3,-1,-1,-1
18:26:54:260370,0,1,-5,-3,-1,-2,0,-1
18:26:54:267856,0,1,-5,-3,-1,-2,0,-1
18:26:54:275427,-2,1,-3,-2,-1,0,-1,-1
18:26:54:282869,-1,-2,3,2,1,0,-1,-2
18:26:54:291112,-1,-2,3,2,1,0,-1,-2
18:26:54:291859,1,0,14,18,-2,-1,-1,0
18:26:54:305360,-2,1,3,1,1,0,-1,2
18:26:54:314288,-2,1,3,1,1,0,-1,2
18:26:54:315152,-2,0,0,4,5,0,0,1
18:26:54:320363,-1,-3,3,1,3,-1,-1,-3
18:26:54:328011,-1,-3,3,1,3,-1,-1,-3
18:26:54:335420,-2,-1,-2,2,-1,-1,0,0
18:26:54:342887,0,-1,-4,-3,0,-1,-2,-1
18:26:54:351123,0,-1,-4,-3,0,-1,-2,-1
18:26:54:351846,1,-3,6,-1,-1,-1,-2,-1
18:26:54:365406,0,-2,1,-3,-7,-3,-2,-1
18:26:54:373642,0,-2,1,-3,-7,-3,-2,-1
18:26:54:374392,-1,-3,0,-1,-6,-1,-3,0
18:26:54:380414,-1,-1,-1,4,2,-1,-1,-1
18:26:54:388002,-1,-1,-1,4,2,-1,-1,-1
18:26:54:395412,-1,-1,1,-8,-4,1,-2,-2
18:26:54:402873,-3,0,3,3,1,-2,-2,-1
18:26:54:418621,-3,0,3,3,1,-2,-2,-1
18:26:54:419358,-1,0,-6,-5,3,-3,0,-1
18:26:54:425361,0,-1,-4,-5,-3,-2,-1,-1
18:26:54:441762,0,-1,-4,-5,-3,-2,-1,-1
18:26:54:442625,-2,2,-2,3,6,0,-1,-1
18:26:54:443379,0,0,-5,-4,-1,-2,0,-1
18:26:54:448065,0,0,-5,-4,-1,-2,0,-1
18:26:54:455378,1,-4,0,1,-3,-2,0,1
18:26:54:462920,-1,-1,2,2,-1,1,-2,-2
18:26:54:471134,-1,-1,2,2,-1,1,-2,-2
18:26:54:471871,-1,-2,-8,-6,-1,-2,1,0
18:26:54:485355,-1,-2,-4,-6,-1,1,-1,-2
18:26:54:493638,-1,-2,-4,-6,-1,1,-1,-2
18:26:54:494387,-1,0,2,-3,-3,-3,-2,-2
18:26:54:500407,-1,-1,-5,0,3,0,-1,-1
18:26:54:508014,-1,-1,-5,0,3,0,-1,-1
18:26:54:515396,-1,1,1,3,0,-1,-1,-1
18:26:54:522867,0,-2,-5,-10,-4,-2,-1,0
18:26:54:531147,0,-2,-5,-10,-4,-2,-1,0
18:26:54:531883,0,0,4,0,-3,0,-2,-1
18:26:54:545391,-2,-2,-8,2,3,0,0,-1
18:26:54:553515,-2,-2,-8,2,3,0,0,-1
18:26:54:554363,-1,0,-5,0,0,1,-1,-1
18:26:54:560352,-1,-1,3,2,0,-1,-1,0
18:26:54:567872,-1,-1,3,2,0,-1,-1,0
18:26:54:575389,-2,-1,-4,-1,-2,-3,-1,0
18:26:54:582888,1,-3,0,2,1,0,0,1
18:26:54:591114,1,-3,0,2,1,0,0,1
18:26:54:591898,-2,0,1,-2,-2,-1,-1,-1
18:26:54:605389,-2,0,-4,5,-1,-1,-2,-3
18:26:54:613677,-2,0,-4,5,-1,-1,-2,-3
18:26:54:614415,-3,-2,-13,-3,0,0,-2,-2
18:26:54:620365,-2,0,7,-4,-4,-1,0,0
18:26:54:627883,-2,0,7,-4,-4,-1,0,0
18:26:54:643508,-1,-3,0,-3,-2,-3,0,-2
18:26:54:644389,0,1,-1,-5,-5,-3,-1,0
18:26:54:651128,0,1,-1,-5,-5,-3,-1,0
18:26:54:651876,0,-1,-2,-1,0,-1,0,-2
18:26:54:665412,0,-1,12,2,-2,-1,-2,-1
18:26:54:673642,0,-1,12,2,-2,-1,-2,-1
18:26:54:674355,-2,0,-3,0,-2,-1,-1,1
18:26:54:680359,0,0,-2,0,-1,-2,-2,0
18:26:54:687882,0,0,-2,0,-1,-2,-2,0
18:26:54:695365,2,-2,-1,5,-2,-2,-2,-2
18:26:54:702876,0,-2,2,-4,-2,-1,-2,-2
18:26:54:718602,0,-2,2,-4,-2,-1,-2,-2
18:26:54:719355,-2,0,12,-2,-2,-1,-1,-1
18:26:54:725359,-1,-2,-17,-22,-3,1,-1,-2
18:26:54:733644,-1,-2,-17,-22,-3,1,-1,-2
18:26:54:734364,0,-1,-2,-3,-3,-1,-1,-2
18:26:54:740442,-1,-2,-9,-15,-1,-3,1,-1
18:26:54:747955,-1,-2,-9,-15,-1,-3,1,-1
18:26:54:755367,-1,1,-2,-5,-1,-1,-2,-1
18:26:54:762879,0,0,-4,3,1,-1,1,0
18:26:54:771126,0,0,-4,3,1,-1,1,0
18:26:54:771865,0,-2,2,2,-2,-2,-1,0
18:26:54:785384,-2,1,4,14,7,0,-1,-1
18:26:54:793620,-2,1,4,14,7,0,-1,-1
18:26:54:794376,-1,0,0,1,1,0,0,-2
18:26:54:800407,0,1,4,-1,-4,-1,-3,-1
18:26:54:808000,0,1,4,-1,-4,-1,-3,-1
18:26:54:815387,0,-1,-1,3,2,1,-1,-2
18:26:54:822868,-3,0,7,6,0,-2,-2,0
18:26:54:831150,-3,0,7,6,0,-2,-2,0
18:26:54:831875,-2,-2,-7,-6,1,-1,-1,-1
18:26:54:845423,0,-2,1,2,-3,-5,0,-1
18:26:54:853629,0,-2,1,2,-3,-5,0,-1
18:26:54:854392,0,-2,-7,-5,-1,-3,1,1
18:26:54:860389,0,0,-2,-1,-3,-3,1,1
18:26:54:867997,0,0,-2,-1,-3,-3,1,1
18:26:54:875363,-2,-1,-1,3,0,0,-1,0
18:26:54:882858,-2,-4,-3,-20,-7,-2,-2,0
18:26:54:898657,-2,-4,-3,-20,-7,-2,-2,0
18:26:54:899387,-2,-1,2,3,0,2,-2,-1
18:26:54:905377,0,-1,3,6,1,2,0,-1
18:26:54:913625,0,-1,3,6,1,2,0,-1
18:26:54:914397,-2,-2,-2,-3,2,0,-2,-2
18:26:54:920370,-2,0,-4,3,2,-1,-1,-2
18:26:54:928015,-2,0,-4,3,2,-1,-1,-2
18:26:54:935381,0,0,-3,-4,-4,-2,2,-2
18:26:54:942866,0,0,0,3,0,-1,-2,-2
18:26:54:951167,0,0,0,3,0,-1,-2,-2
18:26:54:951894,-2,-2,0,0,-1,-2,-3,-2
18:26:54:965394,-2,-1,-2,0,-2,-1,0,-1
18:26:54:973617,-2,-1,-2,0,-2,-1,0,-1
18:26:54:974374,-1,-1,-8,-5,-3,-1,0,-1
18:26:54:980375,-1,-2,-1,0,0,0,-1,-3
18:26:54:996130,-1,-2,-1,0,0,0,-1,-3
18:26:54:996855,-1,-1,3,-1,-2,-1,0,-1
18:26:55:2872,-2,-2,-4,4,5,0,0,1
18:26:55:18659,-2,-2,-4,4,5,0,0,1
18:26:55:19367,0,-3,1,2,1,-1,-1,0
18:26:55:25371,-1,-1,2,3,0,0,-1,-1
18:26:55:41121,-1,-1,2,3,0,0,-1,-1
18:26:55:41882,0,2,8,5,1,0,-1,1
18:26:55:48649,0,1,-7,-19,-5,-1,-1,-2
18:26:55:49405,0,1,-7,-19,-5,-1,-1,-2
18:26:55:63568,-1,0,-3,-2,-2,-1,-1,-2
18:26:55:64370,0,-2,3,6,-1,0,-1,0
18:26:55:70536,0,-2,3,6,-1,0,-1,0
18:26:55:77900,0,-1,-4,-7,-3,-1,0,0
18:26:55:85396,-1,-1,-4,-2,-4,-2,-1,-1
18:26:55:93633,-1,-1,-4,-2,-4,-2,-1,-1
18:26:55:94379,-3,-1,-3,2,0,-1,-3,-1
18:26:55:108629,-1,-2,-10,-16,-4,-2,-1,-1
18:26:55:109375,-1,-2,-10,-16,-4,-2,-1,-1
18:26:55:115431,0,-1,0,3,1,0,-1,-1
18:26:55:122907,-1,0,0,4,-1,-1,0,0
18:26:55:130532,-1,0,0,4,-1,-1,0,0
18:26:55:137890,-2,0,-4,-8,-2,-1,0,0
18:26:55:154271,-2,-1,6,9,4,-1,0,-3
18:26:55:155145,-2,-1,6,9,4,-1,0,-3
18:26:55:155888,-2,-1,2,2,-1,-1,-1,-1
18:26:55:168630,-2,-1,1,6,-2,-1,-3,-2
18:26:55:169369,-2,-1,1,6,-2,-1,-3,-2
18:26:55:175371,-1,-2,-1,-1,-2,-2,-2,-1
18:26:55:182869,0,-1,3,3,0,-1,0,-2
18:26:55:190492,0,-1,3,3,0,-1,0,-2
18:26:55:197884,0,-2,0,-5,-1,-2,-2,-1
18:26:55:205379,-1,-1,3,-1,-3,-3,-1,0
18:26:55:213669,-1,-1,3,-1,-3,-3,-1,0
18:26:55:214425,0,-2,-5,-2,0,0,1,0
18:26:55:228630,0,-1,-5,-6,-1,0,-1,-2
18:26:55:229408,0,-1,-5,-6,-1,0,-1,-2
18:26:55:235383,0,0,5,5,-1,-2,-2,-2
18:26:55:242865,-1,-2,-7,-2,1,0,1,1
18:26:55:250553,-1,-2,-7,-2,1,0,1,1
18:26:55:257866,0,-2,-12,-15,3,0,1,0
18:26:55:274240,0,-3,4,3,-1,-1,0,-2
18:26:55:275109,0,-3,4,3,-1,-1,0,-2
18:26:55:275858,1,-1,3,0,-3,-3,-2,-2
18:26:55:288652,-1,0,-12,-2,0,0,-2,0
18:26:55:289397,-1,0,-12,-2,0,0,-2,0
18:26:55:295468,-2,-2,-3,-2,-4,-1,-1,0
18:26:55:302907,2,5,-5,-1,-5,-3,-3,1
18:26:55:310538,2,5,-5,-1,-5,-3,-3,1
18:26:55:317902,-1,-1,2,7,5,2,2,-1
18:26:55:325391,-2,16,10,0,-3,1,0,-2
18:26:55:333657,-2,16,10,0,-3,1,0,-2
18:26:55:334390,-2,-4,-21,-4,-7,-6,-2,-1
18:26:55:348660,-2,-13,-3,0,12,6,2,1
18:26:55:349393,-2,-13,-3,0,12,6,2,1
18:26:55:355392,0,-1,6,0,-4,-3,-6,-4
18:26:55:362877,-3,-4,2,6,-4,-3,-3,-1
18:26:55:370508,-3,-4,2,6,-4,-3,-3,-1
18:26:55:377936,-1,1,-1,5,3,1,-3,0
18:26:55:385380,-1,-4,1,-3,-1,-2,-2,-1
18:26:55:393666,-1,-4,1,-3,-1,-2,-2,-1
18:26:55:394413,1,1,5,1,-4,-6,-19,1
18:26:55:408497,-2,-5,-10,-7,-2,-3,-4,-1
18:26:55:409398,-2,-5,-10,-7,-2,-3,-4,-1
18:26:55:415408,0,-1,-7,-20,-4,-1,1,1
18:26:55:431160,-1,-3,2,-4,5,3,2,-1
18:26:55:431890,-1,-3,2,-4,5,3,2,-1
18:26:55:437892,-4,-5,0,13,-4,-7,-2,-4
18:26:55:445396,-1,0,1,-18,-17,0,4,-2
18:26:55:453483,-1,0,1,-18,-17,0,4,-2
18:26:55:454355,-2,0,3,5,4,2,6,0
18:26:55:468628,2,6,20,9,-1,-1,-2,1
18:26:55:469360,2,6,20,9,-1,-1,-2,1
18:26:55:483555,-2,1,11,1,4,3,3,-2
18:26:55:484377,-2,1,20,11,1,-2,-4,-4
18:26:55:490488,-2,1,20,11,1,-2,-4,-4
18:26:55:497937,0,6,2,20,2,2,6,0
18:26:55:505391,0,14,-3,-26,1,-3,-1,-1
18:26:55:513654,0,14,-3,-26,1,-3,-1,-1
18:26:55:514399,-1,2,0,-4,3,0,0,-2
18:26:55:528652,3,9,15,12,2,1,1,1
18:26:55:529417,3,9,15,12,2,1,1,1
18:26:55:535402,-3,-6,17,-6,-4,-3,0,0
18:26:55:542890,-7,-37,-29,-8,3,-1,-1,-1
18:26:55:550538,-7,-37,-29,-8,3,-1,-1,-1
18:26:55:557864,-2,-10,-10,-10,-5,0,-1,-1
18:26:55:565408,1,6,-1,-20,-2,-4,-1,-1
18:26:55:573493,1,6,-1,-20,-2,-4,-1,-1
18:26:55:574358,1,9,-9,0,-5,-3,-1,1
18:26:55:588626,-6,-60,3,13,-3,-3,-2,-3
18:26:55:589378,-6,-60,3,13,-3,-3,-2,-3
18:26:55:595388,1,17,3,-16,-2,-1,1,1
18:26:55:602917,3,17,-18,6,1,1,0,-1
18:26:55:610382,3,17,-18,6,1,1,0,-1
18:26:55:617891,-1,-11,-50,-23,2,1,-1,-1
18:26:55:625378,-2,13,-2,-1,-4,-2,-4,-3
18:26:55:633671,-2,13,-2,-1,-4,-2,-4,-3
18:26:55:634379,2,9,34,5,3,2,1,0
18:26:55:648521,-2,-5,-6,0,-6,-3,0,-2
18:26:55:649387,-2,-5,-6,0,-6,-3,0,-2
18:26:55:655389,8,-4,23,-3,0,0,-1,5
18:26:55:662888,2,-19,-9,7,5,1,1,2
18:26:55:670418,2,-19,-9,7,5,1,1,2
18:26:55:677904,-14,0,26,4,-10,-6,-3,40
18:26:55:685389,13,21,-8,-42,-8,-5,-8,-26
18:26:55:693680,13,21,-8,-42,-8,-5,-8,-26
18:26:55:694415,-10,-8,13,12,9,6,8,20
18:26:55:716818,-12,2,-27,-35,-7,-4,-6,9
18:26:55:717520,-12,2,-27,-35,-7,-4,-6,9
18:26:55:718375,12,20,16,8,3,4,21,-55
18:26:55:722895,-7,2,-2,-42,-3,0,9,-15
18:26:55:730392,-7,2,-2,-42,-3,0,9,-15
18:26:55:737871,-12,-12,10,-24,-9,-10,-11,-95
18:26:55:745367,12,12,8,29,-2,3,67,51
18:26:55:753627,12,12,8,29,-2,3,67,51
18:26:55:754386,-33,-8,-5,10,-6,-11,-67,41
18:26:55:768525,-25,-9,8,19,3,1,-33,-91
18:26:55:769394,-25,-9,8,19,3,1,-33,-91
18:26:55:775386,-2,-14,-40,4,1,-1,1,-1
18:26:55:782883,-1,12,38,15,2,2,-6,36
18:26:55:790383,-1,12,38,15,2,2,-6,36
18:26:55:797896,8,-19,-34,-6,1,-2,-19,5
18:26:55:805379,6,-5,-3,13,2,1,4,-3
18:26:55:813642,6,-5,-3,13,2,1,4,-3
18:26:55:814403,15,1,-7,-24,0,3,24,68
18:26:55:828650,-8,-28,-20,15,2,0,-4,19
18:26:55:829375,-8,-28,-20,15,2,0,-4,19
18:26:55:835382,-3,12,1,3,3,4,18,14
18:26:55:842886,0,5,-15,11,2,1,-9,8
18:26:55:850402,0,5,-15,11,2,1,-9,8
18:26:55:857861,-8,-7,-8,-2,-2,3,11,-5
18:26:55:865420,5,4,5,3,-2,-2,-7,-11
18:26:55:873654,5,4,5,3,-2,-2,-7,-11
18:26:55:874398,0,-1,-23,3,-7,-5,1,-20
18:26:55:888641,-2,10,0,2,6,7,-5,42
18:26:55:889383,-2,10,0,2,6,7,-5,42
18:26:55:895435,6,12,31,10,-2,-1,-11,-1
18:26:55:902879,1,5,-7,-8,-2,-2,-6,-7
18:26:55:910522,1,5,-7,-8,-2,-2,-6,-7
18:26:55:917887,6,-1,5,7,-1,-3,-5,-15
18:26:55:925400,-1,-12,-41,-1,-2,-4,-4,-13
18:26:55:933553,-1,-12,-41,-1,-2,-4,-4,-13
18:26:55:934384,-2,-6,0,20,-3,-1,2,9
18:26:55:948652,1,3,9,8,1,-1,1,0
18:26:55:949397,1,3,9,8,1,-1,1,0
18:26:55:955394,3,-2,-10,-19,1,1,3,-6
18:26:55:971133,0,-5,10,4,-3,-5,-11,9
18:26:55:971884,0,-5,10,4,-3,-5,-11,9
18:26:55:977893,0,-1,8,2,-2,-2,-4,-11
18:26:55:985391,1,2,-1,-11,-5,-3,3,0
18:26:55:993668,1,2,-1,-11,-5,-3,3,0
18:26:55:994397,2,8,-9,5,2,1,3,-4
18:26:56:16783,-1,-17,-16,6,1,2,-2,3
18:26:56:17513,-1,-17,-16,6,1,2,-2,3
18:26:56:18381,1,-5,5,0,-1,-1,-1,-1
18:26:56:39269,-8,6,12,5,2,-4,-27,-13
18:26:56:40003,-8,6,12,5,2,-4,-27,-13
18:26:56:40878,5,-4,-8,-8,-1,3,19,-6
18:26:56:45412,-1,6,7,-2,-2,-5,0,-13
18:26:56:52879,-1,6,7,-2,-2,-5,0,-13
18:26:56:60374,-4,-4,2,3,4,-1,-4,2
18:26:56:68528,3,1,6,-4,-6,-3,0,7
18:26:56:69396,3,1,6,-4,-6,-3,0,7
18:26:56:75407,-2,-5,-6,-3,-4,-2,-1,4
18:26:56:91006,-2,-4,8,1,-1,-1,-1,-3
18:26:56:91875,-2,-4,8,1,-1,-1,-1,-3
18:26:56:97924,-2,0,-10,-2,1,0,-4,-6
18:26:56:105401,1,3,8,1,1,0,4,0
18:26:56:112899,1,3,8,1,1,0,4,0
18:26:56:120401,-1,-13,-18,4,0,-3,-5,3
18:26:56:128642,-4,-7,2,-4,-1,-2,-3,-81
18:26:56:129385,-4,-7,2,-4,-1,-2,-3,-81
18:26:56:135403,-1,3,12,0,0,0,-3,7
18:26:56:151029,2,2,-1,2,-3,-3,4,18
18:26:56:151883,2,2,-1,2,-3,-3,4,18
18:26:56:157884,-2,-1,5,1,-2,-4,-5,-7
18:26:56:165404,0,2,4,6,9,4,4,18
18:26:56:172881,0,2,4,6,9,4,4,18
18:26:56:180389,2,3,0,4,-5,-1,1,10
18:26:56:188629,1,0,-11,-17,4,1,0,13
18:26:56:189366,1,0,-11,-17,4,1,0,13
18:26:56:195416,-1,0,-1,-1,-3,0,-1,-4
18:26:56:211131,-2,-16,-3,2,-3,-1,1,2
18:26:56:211885,-2,-16,-3,2,-3,-1,1,2
18:26:56:217880,-4,-4,-2,-4,-3,-2,-2,-3
18:26:56:225369,0,6,1,0,-2,-1,0,14
18:26:56:233052,0,6,1,0,-2,-1,0,14
18:26:56:240389,-3,-2,-5,-6,0,-4,-5,-4
18:26:56:248506,-3,4,2,-2,-3,-5,-24,-7
18:26:56:249414,-3,4,2,-2,-3,-5,-24,-7
18:26:56:255414,-2,1,3,-2,0,-1,1,-2
18:26:56:271157,-2,2,0,0,-4,0,7,30
18:26:56:271897,-2,2,0,0,-4,0,7,30
18:26:56:277903,1,2,-3,-3,1,0,0,11
18:26:56:285403,2,0,-1,0,-2,-3,2,-3
18:26:56:292902,2,0,-1,0,-2,-3,2,-3
18:26:56:309268,-4,3,4,3,3,-3,3,-3
18:26:56:310073,0,-2,-4,-1,0,3,4,0
18:26:56:310937,0,-2,-4,-1,0,3,4,0
18:26:56:315437,0,-3,-3,-1,-5,-2,-3,-8
18:26:56:331155,-2,5,1,-2,0,-1,-1,3
18:26:56:331901,-2,5,1,-2,0,-1,-1,3
18:26:56:337909,-1,-5,-7,-3,-1,1,0,-1
18:26:56:345410,-1,-1,1,-2,-4,-3,5,-9
18:26:56:353028,-1,-1,1,-2,-4,-3,5,-9
18:26:56:360398,-3,-5,2,3,1,1,-5,14
18:26:56:368550,3,3,-8,-4,-2,0,-3,3
18:26:56:369406,3,3,-8,-4,-2,0,-3,3
18:26:56:375391,0,-15,-4,0,0,-1,5,-37
18:26:56:391148,-1,7,-4,2,2,3,1,0
18:26:56:391899,-1,7,-4,2,2,3,1,0
18:26:56:397899,11,29,22,1,0,3,4,16
18:26:56:405391,0,-2,4,-2,-2,-1,0,-9
18:26:56:412925,0,-2,4,-2,-2,-1,0,-9
18:26:56:420396,-3,5,2,-1,-2,-3,2,10
18:26:56:428521,2,-7,-4,0,-3,-3,-2,1
18:26:56:429411,2,-7,-4,0,-3,-3,-2,1
18:26:56:435392,15,7,-5,-1,-4,-1,-2,18
18:26:56:451040,6,-3,-3,-3,-2,-1,-5,-7
18:26:56:451900,6,-3,-3,-3,-2,-1,-5,-7
18:26:56:457887,9,-5,-6,0,-2,-2,-2,-6
18:26:56:465408,-28,-2,9,4,0,-2,-1,-11
18:26:56:472887,-28,-2,9,4,0,-2,-1,-11
18:26:56:480419,-46,-8,-1,-2,-1,-2,-3,-10
18:26:56:488525,15,7,2,3,0,2,9,32
18:26:56:489398,15,7,2,3,0,2,9,32
18:26:56:495422,-13,-39,-44,-13,-1,-2,-6,-25
18:26:56:511540,-4,2,-4,-8,-7,-4,-3,-76
18:26:56:518650,-4,2,-4,-8,-7,-4,-3,-76
18:26:56:519394,7,9,14,5,3,-1,-3,1
18:26:56:525390,-5,-1,29,26,5,3,2,25
18:26:56:532892,-5,-1,29,26,5,3,2,25
18:26:56:540391,3,2,-17,-13,1,-2,-3,-6
18:26:56:548636,18,1,5,3,2,0,-2,9
18:26:56:549398,18,1,5,3,2,0,-2,9
18:26:56:562917,1,-6,6,2,-3,-1,0,11
18:26:56:571140,13,-14,-18,-5,0,-2,-2,1
18:26:56:571892,13,-14,-18,-5,0,-2,-2,1
18:26:56:577920,3,-3,-31,-15,-3,-2,-1,9
18:26:56:585410,-12,3,-5,-2,1,-1,-1,-1
18:26:56:592889,-12,3,-5,-2,1,-1,-1,-1
18:26:56:600426,-11,-10,14,8,3,-2,1,31
18:26:56:608682,4,0,7,-9,-5,-1,1,59
18:26:56:609423,4,0,7,-9,-5,-1,1,59
18:26:56:615396,13,10,-6,0,0,0,-1,-23
18:26:56:631174,-8,-6,8,3,2,-1,0,-10
18:26:56:631921,-8,-6,8,3,2,-1,0,-10
18:26:56:637897,-2,4,11,-2,-3,1,0,-3
18:26:56:653668,-9,-14,2,13,3,-1,0,-8
18:26:56:654391,-9,-14,2,13,3,-1,0,-8
18:26:56:660411,1,-51,-7,-17,-8,-4,-3,-7
18:26:56:676775,-10,2,-3,2,7,2,-2,-10
18:26:56:677522,-10,2,-3,2,7,2,-2,-10
18:26:56:678402,-7,2,0,9,4,0,-2,-4
18:26:56:691024,-20,-13,4,-8,-5,0,1,29
18:26:56:691925,-20,-13,4,-8,-5,0,1,29
18:26:56:697892,-2,17,8,3,-3,-1,-4,-62
18:26:56:705394,15,25,-19,-8,-2,-3,-1,-2
18:26:56:712892,15,25,-19,-8,-2,-3,-1,-2
18:26:56:720382,-58,51,90,26,1,0,-3,6
18:26:56:728670,-8,-33,13,-25,-7,-8,-18,-5
18:26:56:729425,-8,-33,13,-25,-7,-8,-18,-5
18:26:56:735387,34,30,26,8,1,0,1,-23
18:26:56:751027,9,2,-24,2,9,3,-3,2
18:26:56:751892,9,2,-24,2,9,3,-3,2
18:26:56:757890,40,-6,-19,1,0,0,-4,14
18:26:56:765424,48,-2,-23,-2,-7,-4,1,-10
18:26:56:772889,48,-2,-23,-2,-7,-4,1,-10
18:26:56:780391,0,-33,-25,-18,1,-1,8,25
18:26:56:788665,-2,9,20,1,-5,-3,-1,-4
18:26:56:789392,-2,9,20,1,-5,-3,-1,-4
18:26:56:795387,-3,31,-15,-5,-3,-2,-3,37
18:26:56:811141,4,-4,4,7,1,2,3,9
18:26:56:811925,4,-4,4,7,1,2,3,9
18:26:56:817892,-10,-49,-17,-9,-6,-3,-5,-12
18:26:56:825390,-1,2,1,1,-2,-1,2,-6
18:26:56:832928,-1,2,1,1,-2,-1,2,-6
18:26:56:840416,-26,-35,-3,-7,-1,-1,0,5
18:26:56:848543,-37,10,2,-4,-4,-4,-3,0
18:26:56:849402,-37,10,2,-4,-4,-4,-3,0
18:26:56:855399,28,25,15,12,4,4,2,3
18:26:56:871181,-35,-6,-25,-20,-2,-1,-1,-16
18:26:56:871883,-35,-6,-25,-20,-2,-1,-1,-16
18:26:56:877915,25,26,14,3,1,-2,-2,-28
18:26:56:885426,20,21,-9,-10,-4,0,3,3
18:26:56:892911,20,21,-9,-10,-4,0,3,3
18:26:56:900436,-5,-25,4,-7,-7,-2,0,3
18:26:56:908523,5,-21,-1,7,0,-1,-7,-7
18:26:56:909395,5,-21,-1,7,0,-1,-7,-7
18:26:56:915397,0,20,21,9,-1,-2,-3,-2
18:26:56:931016,5,21,-1,1,-6,-3,-2,-1
18:26:56:931893,5,21,-1,1,-6,-3,-2,-1
18:26:56:937916,4,8,-15,-5,-2,0,-1,8
18:26:56:953678,4,8,-15,-5,-2,0,-1,8
18:26:56:954420,-30,18,9,2,1,-1,-1,-12
18:26:56:960438,-22,-8,-21,1,1,2,3,40
18:26:56:968531,-22,-8,-21,1,1,2,3,40
18:26:56:969404,2,-18,1,3,0,0,4,4
18:26:56:982926,22,4,-19,-7,-2,-1,-1,13
18:26:56:991151,22,4,-19,-7,-2,-1,-1,13
18:26:56:991909,43,14,6,-4,-4,2,12,4
18:26:56:997936,-5,15,-4,4,-1,0,-4,-12
18:26:57:13673,-5,15,-4,4,-1,0,-4,-12
18:26:57:14442,-6,-60,-27,-11,-4,-3,1,0
18:26:57:20388,-14,9,7,0,2,-3,-6,-4
18:26:57:28546,-14,9,7,0,2,-3,-6,-4
18:26:57:29384,-7,3,9,5,5,2,1,-7
18:26:57:42903,-1,35,16,6,5,7,22,4
18:26:57:51174,-1,35,16,6,5,7,22,4
18:26:57:51885,-1,24,31,10,-2,-10,-34,3
18:26:57:57897,-2,0,4,0,0,1,-8,-99
18:26:57:73647,-2,0,4,0,0,1,-8,-99
18:26:57:74395,-13,-30,-108,-32,-3,-1,-12,-1
18:26:57:80437,-3,-25,13,-7,-8,-9,-19,30
18:26:57:88669,-3,-25,13,-7,-8,-9,-19,30
18:26:57:89403,6,28,29,14,1,-6,-25,13
18:26:57:102908,-17,-4,-22,-3,2,2,1,-63
18:26:57:111185,-17,-4,-22,-3,2,2,1,-63
18:26:57:111922,1,7,42,22,16,30,65,-3
18:26:57:117903,-5,-10,-7,-5,-3,-6,-20,32
18:26:57:141752,-5,-10,-7,-5,-3,-6,-20,32
18:26:57:142517,-5,-28,-93,-21,-13,-22,-57,9
18:26:57:143390,-3,-15,-28,-5,0,-2,-18,10
18:26:57:148700,-3,-15,-28,-5,0,-2,-18,10
18:26:57:149407,-11,3,-12,-9,-4,2,29,4
18:26:57:162889,-2,-3,-20,1,-1,-5,2,-4
18:26:57:171025,-2,-3,-20,1,-1,-5,2,-4
18:26:57:171890,-1,4,28,2,-7,-3,11,-20
18:26:57:177888,5,-54,-61,-13,-2,-4,15,22
18:26:57:193523,5,-54,-61,-13,-2,-4,15,22
18:26:57:194385,-4,-14,27,5,3,-1,-22,11
18:26:57:200434,-67,-19,18,2,-7,-5,0,34
18:26:57:216149,-67,-19,18,2,-7,-5,0,34
18:26:57:216922,-20,37,53,6,5,5,16,-82
18:26:57:222879,41,33,58,12,14,7,-1,-15
18:26:57:231038,41,33,58,12,14,7,-1,-15
18:26:57:231891,-14,34,12,11,2,-1,9,17
18:26:57:237896,22,10,7,-2,0,-4,-19,33
18:26:57:253674,22,10,7,-2,0,-4,-19,33
18:26:57:254407,29,-33,-42,-12,-6,-7,22,-68
18:26:57:260415,42,8,8,-1,-4,-7,34,55
18:26:57:268552,42,8,8,-1,-4,-7,34,55
18:26:57:269411,-8,-52,-42,-26,-7,-5,-7,-51
18:26:57:282893,10,40,17,-15,2,5,12,-19
18:26:57:291019,10,40,17,-15,2,5,12,-19
18:26:57:291905,1,11,-22,-15,-1,-4,-19,67
18:26:57:297888,7,-20,-5,13,0,-2,-27,4
18:26:57:313682,7,-20,-5,13,0,-2,-27,4
18:26:57:314406,30,99,55,20,7,6,16,63
18:26:57:320391,-25,28,13,3,-2,-4,10,-2
18:26:57:328518,-25,28,13,3,-2,-4,10,-2
18:26:57:329404,4,-15,-22,-15,-5,11,40,3
18:26:57:342906,-2,-20,6,-15,-8,-4,-9,-8
18:26:57:351153,-2,-20,6,-15,-8,-4,-9,-8
18:26:57:351902,0,-28,-5,7,2,-5,-11,15
18:26:57:357910,-12,-76,-42,1,-10,6,22,11
18:26:57:373677,-12,-76,-42,1,-10,6,22,11
18:26:57:374395,-57,-4,17,5,-1,-3,7,-54
18:26:57:380448,-31,-11,-35,-14,-13,-22,-60,-31
18:26:57:388681,-31,-11,-35,-14,-13,-22,-60,-31
18:26:57:389430,56,-16,3,5,-3,-15,-75,16
18:26:57:402918,2,-50,-11,-8,-1,6,51,17
18:26:57:411151,2,-50,-11,-8,-1,6,51,17
18:26:57:411893,60,5,-5,-4,-2,-1,7,73
18:26:57:417901,1,7,-62,-1,10,22,-37,-17
18:26:57:433715,1,7,-62,-1,10,22,-37,-17
18:26:57:434397,-15,-26,27,12,4,1,-2,29
18:26:57:440440,-54,76,44,14,1,5,120,39
18:26:57:448696,-54,76,44,14,1,5,120,39
18:26:57:449456,-59,-28,-11,-10,-7,-3,21,53
18:26:57:462915,30,-25,-1,-7,-3,-8,-89,-33
18:26:57:471164,30,-25,-1,-7,-3,-8,-89,-33
18:26:57:471907,-25,-66,-14,-9,-6,-11,-32,-99
18:26:57:477914,-22,14,42,18,16,28,78,-102
18:26:57:493645,-22,14,42,18,16,28,78,-102
18:26:57:494391,-8,6,0,-8,1,2,5,-23
18:26:57:500416,10,75,-18,-2,-2,-9,-58,18
18:26:57:516035,10,75,-18,-2,-2,-9,-58,18
18:26:57:516929,16,-8,-10,3,3,-2,-14,-6
18:26:57:522898,18,-35,25,4,-7,-8,16,-9
18:26:57:531204,18,-35,25,4,-7,-8,16,-9
18:26:57:531941,-2,43,0,13,3,-2,-4,-34
18:26:57:537918,1,41,-22,2,2,-12,-44,43
18:26:57:553540,1,41,-22,2,2,-12,-44,43
18:26:57:554422,41,14,7,5,-4,-9,-65,-13
18:26:57:560419,47,-1,22,-5,-2,-8,4,-13
18:26:57:576028,47,-1,22,-5,-2,-8,4,-13
18:26:57:576916,-27,-29,7,3,2,9,77,37
18:26:57:582924,-6,75,83,27,9,5,-21,-2
18:26:57:591166,-6,75,83,27,9,5,-21,-2
18:26:57:591909,76,-9,-55,-27,-11,6,94,14
18:26:57:597939,-19,-37,-20,-7,-16,-13,-26,-26
18:26:57:613620,-19,-37,-20,-7,-16,-13,-26,-26
18:26:57:614418,12,-29,1,7,10,7,-78,5
18:26:57:620403,11,33,30,-1,-9,-13,-72,28
18:26:57:628718,11,33,30,-1,-9,-13,-72,28
18:26:57:629446,0,-1,-6,2,-7,-5,-29,48
18:26:57:642918,-4,-32,-37,-5,1,8,40,46
18:26:57:651029,-4,-32,-37,-5,1,8,40,46
18:26:57:651881,-26,14,9,7,4,-1,-11,-2
18:26:57:657902,24,1,22,11,11,2,-70,-29
18:26:57:674024,24,1,22,11,11,2,-70,-29
18:26:57:674907,-2,12,-16,-4,0,0,-11,-17
18:26:57:680468,-1,-6,-6,0,-5,-8,23,-33
18:26:57:688420,-1,-6,-6,0,-5,-8,23,-33
18:26:57:695433,-16,9,14,-2,9,6,-3,-10
18:26:57:702901,46,-57,-37,-23,-3,-6,29,35
18:26:57:711215,46,-57,-37,-23,-3,-6,29,35
18:26:57:711962,41,97,36,7,-14,-3,37,15
18:26:57:717911,4,-56,-37,0,17,15,14,13
18:26:57:733567,4,-56,-37,0,17,15,14,13
18:26:57:734408,-73,5,11,-4,5,10,-38,24
18:26:57:740407,-60,-16,-4,11,-2,4,53,34
18:26:57:748658,-60,-16,-4,11,-2,4,53,34
18:26:57:749399,21,-3,7,-7,-2,-10,-39,2
18:26:57:762923,-37,31,-9,-1,0,14,73,-30
18:26:57:771031,-37,31,-9,-1,0,14,73,-30
18:26:57:771884,18,-46,14,12,-2,-6,31,-20
18:26:57:778009,6,37,18,3,2,-1,-9,80
18:26:57:793522,6,37,18,3,2,-1,-9,80
18:26:57:794406,-57,0,12,3,0,2,2,-24
18:26:57:800454,33,-20,-2,-15,-16,-5,55,-18
18:26:57:808511,33,-20,-2,-15,-16,-5,55,-18
18:26:57:809396,-4,-26,-33,-6,0,-15,3,-18
18:26:57:822914,-54,20,-20,-15,-4,0,-20,29
18:26:57:831083,-54,20,-20,-15,-4,0,-20,29
18:26:57:831906,50,-4,24,1,-7,7,17,0
18:26:57:837904,30,-32,-26,-4,-2,6,101,13
18:26:57:853539,30,-32,-26,-4,-2,6,101,13
18:26:57:854399,-14,23,-22,-5,-5,-3,-70,26
18:26:57:860448,43,21,21,-8,5,2,3,-5
18:26:57:868521,43,21,21,-8,5,2,3,-5
18:26:57:869388,-18,26,9,-1,2,5,104,-5
18:26:57:882916,7,-58,-28,-15,-10,-5,-80,-48
18:26:57:891017,7,-58,-28,-15,-10,-5,-80,-48
18:26:57:891888,-4,2,11,4,0,-4,-28,20
18:26:57:897950,-47,23,19,13,9,9,-28,-9
18:26:57:913684,-47,23,19,13,9,9,-28,-9
18:26:57:914427,0,8,4,-1,1,-2,14,33
18:26:57:920407,9,5,12,-7,-9,-16,-96,-64
18:26:57:927917,9,5,12,-7,-9,-16,-96,-64
18:26:57:935416,-11,-42,46,-1,-6,-3,8,-22
18:26:57:942909,-38,-6,22,9,-1,-4,44,22
18:26:57:951062,-38,-6,22,9,-1,-4,44,22
18:26:57:951913,18,34,10,2,-3,-1,22,47
18:26:57:965408,15,29,-4,-5,-6,3,-6,84
18:26:57:973527,15,29,-4,-5,-6,3,-6,84
18:26:57:974404,-21,-25,-13,-5,4,5,60,12
18:26:57:980469,-50,-33,-19,-6,-2,-15,-12,-12
18:26:57:987953,-50,-33,-19,-6,-2,-15,-12,-12
18:26:57:995447,55,-8,-52,-21,-12,3,-32,7
18:26:58:2925,2,62,53,17,12,13,-3,-22
18:26:58:11037,2,62,53,17,12,13,-3,-22
18:26:58:11943,7,27,45,7,-5,-10,21,-28
18:26:58:25403,59,-9,-4,3,10,-1,-5,-6
18:26:58:41786,59,-9,-4,3,10,-1,-5,-6
18:26:58:42561,-21,-19,-8,1,-4,-11,-20,-32
18:26:58:43404,39,-81,-21,-8,-1,-10,-30,30
18:26:58:47906,39,-81,-21,-8,-1,-10,-30,30
18:26:58:55424,-16,-23,2,3,4,-2,-22,-26
18:26:58:62925,-8,49,-3,9,-2,-4,-18,-10
18:26:58:71014,-8,49,-3,9,-2,-4,-18,-10
18:26:58:71885,-13,15,-28,8,9,3,-9,-5
18:26:58:85411,48,-25,-31,-19,-8,-12,25,35
18:26:58:93535,48,-25,-31,-19,-8,-12,25,35
18:26:58:94408,11,37,58,23,9,7,-12,-9
18:26:58:100441,4,23,-11,1,5,0,-30,3
18:26:58:107909,4,23,-11,1,5,0,-30,3
18:26:58:115429,27,-13,-17,-13,-15,-3,4,-32
18:26:58:122916,-12,22,42,18,4,2,14,-52
18:26:58:131167,-12,22,42,18,4,2,14,-52
18:26:58:131969,-2,-81,-71,-13,-3,0,-26,19
18:26:58:145427,-46,-17,-28,-11,-9,-7,9,-83
18:26:58:153672,-46,-17,-28,-11,-9,-7,9,-83
18:26:58:154427,1,37,0,4,9,7,8,33
18:26:58:160413,4,7,-20,-7,-13,6,50,22
18:26:58:167911,4,7,-20,-7,-13,6,50,22
18:26:58:175400,74,6,-17,-20,-9,-8,-32,10
18:26:58:182916,-8,-18,40,13,16,-6,-73,6
18:26:58:191143,-8,-18,40,13,16,-6,-73,6
18:26:58:191912,0,10,4,3,-1,8,22,30
18:26:58:205420,-24,22,29,7,-6,-5,-15,-3
18:26:58:213666,-24,22,29,7,-6,-5,-15,-3
18:26:58:214421,9,3,1,-7,-5,-7,0,-38
18:26:58:228563,8,-14,0,6,7,-1,17,28
18:26:58:229419,8,-14,0,6,7,-1,17,28
18:26:58:235419,-48,-37,-7,2,-7,-5,-55,18
18:26:58:251768,-4,30,17,-11,-11,-1,28,3
18:26:58:252522,-4,30,17,-11,-11,-1,28,3
18:26:58:253399,-35,-25,6,5,12,-5,-1,14
18:26:58:265454,22,-2,-24,-12,-8,16,85,17
18:26:58:273538,22,-2,-24,-12,-8,16,85,17
18:26:58:274392,7,45,4,-10,-10,-4,-4,-19
18:26:58:280409,-19,-54,-56,-4,0,-4,-52,20
18:26:58:287911,-19,-54,-56,-4,0,-4,-52,20
18:26:58:295469,-74,-21,18,11,2,-9,-24,42
18:26:58:302912,19,66,19,9,0,4,62,-48
18:26:58:311211,19,66,19,9,0,4,62,-48
18:26:58:311943,49,35,-28,-6,4,0,-29,1
18:26:58:325396,-49,-4,-28,-10,-2,2,9,20
18:26:58:333562,-49,-4,-28,-10,-2,2,9,20
18:26:58:334407,26,-6,2,-22,8,7,26,-10
18:26:58:340419,-6,-30,-26,-3,7,8,-4,-17
18:26:58:356091,-6,-30,-26,-3,7,8,-4,-17
18:26:58:356930,20,-13,13,-6,-23,-23,-32,-35
18:26:58:362926,-28,-65,-11,-1,2,-8,-29,-34
18:26:58:378670,-28,-65,-11,-1,2,-8,-29,-34
18:26:58:379395,-16,26,39,15,3,-5,2,8
18:26:58:385430,-9,30,9,-7,-9,11,80,-33
18:26:58:401798,-9,30,9,-7,-9,11,80,-33
18:26:58:402534,-26,-20,-8,6,4,21,105,-10
18:26:58:403410,37,-9,3,0,-6,-27,-95,14
18:26:58:407938,37,-9,3,0,-6,-27,-95,14
18:26:58:415449,28,30,-12,2,0,9,-84,9
18:26:58:422908,55,20,21,5,4,-1,-40,28
18:26:58:431068,55,20,21,5,4,-1,-40,28
18:26:58:431936,-22,-55,-25,-9,0,-2,12,-13
18:26:58:445444,-12,4,-14,0,-3,-11,-44,11
18:26:58:453668,-12,4,-14,0,-3,-11,-44,11
18:26:58:454392,4,15,7,9,-2,0,2,-13
18:26:58:460425,-14,15,0,-5,4,7,58,-25
18:26:58:467934,-14,15,0,-5,4,7,58,-25
18:26:58:475402,46,45,14,-2,1,1,0,20
18:26:58:482944,35,-4,-42,-20,-9,-5,-58,58
18:26:58:491050,35,-4,-42,-20,-9,-5,-58,58
18:26:58:491984,18,-27,-30,-17,-5,-16,-57,-1
18:26:58:505398,-44,24,44,9,3,1,-6,29
18:26:58:513529,-44,24,44,9,3,1,-6,29
18:26:58:514433,-22,-46,19,-1,-2,10,51,16
18:26:58:520431,54,-7,-15,-6,-3,-26,-86,-76
18:26:58:527911,54,-7,-15,-6,-3,-26,-86,-76
18:26:58:535413,49,-9,-47,-2,-1,-11,-4,-54
18:26:58:542908,7,-2,9,6,1,3,-62,-5
18:26:58:551166,7,-2,9,6,1,3,-62,-5
18:26:58:551923,-47,26,-6,17,6,15,57,23
18:26:58:565479,-48,25,8,0,-6,-1,-12,40
18:26:58:573550,-48,25,8,0,-6,-1,-12,40
18:26:58:574433,-19,-32,-8,0,5,20,61,54
18:26:58:580414,22,-29,2,-4,-2,10,35,21
18:26:58:587916,22,-29,2,-4,-2,10,35,21
18:26:58:595443,-35,17,-1,5,0,-11,-72,-117
18:26:58:602921,48,-65,-17,-4,-9,-3,-38,-10
18:26:58:611189,48,-65,-17,-4,-9,-3,-38,-10
18:26:58:611915,-60,-10,9,1,-1,-2,44,-45
18:26:58:634297,-36,-19,-41,-11,-8,-4,-3,36
18:26:58:635044,-36,-19,-41,-11,-8,-4,-3,36
18:26:58:635912,40,20,-18,-6,3,2,0,28
18:26:58:640458,30,10,-10,7,0,-17,-36,-21
18:26:58:656030,30,10,-10,7,0,-17,-36,-21
18:26:58:656902,-4,18,10,4,2,-14,-102,19
18:26:58:662934,7,26,43,11,6,9,27,-42
18:26:58:678654,7,26,43,11,6,9,27,-42
18:26:58:679418,17,-25,19,-26,-4,16,-17,11
18:26:58:685430,-31,13,-43,1,9,6,35,84
18:26:58:694314,-31,13,-43,1,9,6,35,84
18:26:58:695059,-43,-12,20,8,-9,-11,-10,27
18:26:58:700427,25,-2,27,-4,12,11,34,1
18:26:58:707925,25,-2,27,-4,12,11,34,1
18:26:58:715426,-12,-8,7,12,-5,20,24,1
18:26:58:722920,8,-13,9,4,4,2,55,12
18:26:58:731085,8,-13,9,4,4,2,55,12
18:26:58:731932,-67,-15,15,-3,-3,-23,5,10
18:26:58:745443,-19,-9,0,0,-2,5,17,-32
18:26:58:753537,-19,-9,0,0,-2,5,17,-32
18:26:58:754412,44,-34,-83,-25,-5,-21,2,3
18:26:58:760439,-20,-3,0,-23,-7,-7,-39,-17
18:26:58:767916,-20,-3,0,-23,-7,-7,-39,-17
18:26:58:775429,16,8,11,7,10,-2,-12,-40
18:26:58:782915,-8,16,30,10,-5,3,101,19
18:26:58:791200,-8,16,30,10,-5,3,101,19
18:26:58:791957,33,30,-9,-4,-8,-21,-49,25
18:26:58:805405,7,16,-2,-8,1,13,86,56
18:26:58:813567,7,16,-2,-8,1,13,86,56
18:26:58:814416,-33,35,39,15,8,23,104,10
18:26:58:820420,-69,-5,33,11,6,7,19,0
18:26:58:836048,-69,-5,33,11,6,7,19,0
18:26:58:836918,22,-2,-29,-5,-2,13,-74,3
18:26:58:842917,28,-12,-2,-15,6,2,12,-50
18:26:58:851044,28,-12,-2,-15,6,2,12,-50
18:26:58:851914,3,-44,20,3,3,-1,-36,17
18:26:58:865459,-2,-42,-42,-8,-18,-18,-70,-19
18:26:58:873559,-2,-42,-42,-8,-18,-18,-70,-19
18:26:58:874428,-2,28,18,3,-1,4,52,45
18:26:58:888569,-38,6,-3,-2,1,6,21,12
18:26:58:889437,-38,6,-3,-2,1,6,21,12
18:26:58:895413,20,-1,-18,-14,-4,-3,1,-20
18:26:58:902910,65,49,52,8,-2,-10,-67,-1
18:26:58:910413,65,49,52,8,-2,-10,-67,-1
18:26:58:917925,26,-14,-39,-4,-1,-3,-17,4
18:26:58:925428,-85,-28,-21,-4,-3,-3,13,1
18:26:58:933692,-85,-28,-21,-4,-3,-3,13,1
18:26:58:934413,16,60,20,-3,-8,-1,40,16
18:26:58:956775,21,-1,8,-4,-1,14,45,-3
18:26:58:957568,21,-1,8,-4,-1,14,45,-3
18:26:58:958441,-21,-24,22,7,-7,-11,-37,-39
18:26:58:962956,37,-30,35,10,6,1,-59,-29
18:26:58:970416,37,-30,35,10,6,1,-59,-29
18:26:58:977927,18,18,8,26,2,-2,15,9
18:26:58:985419,6,-59,-59,-4,-10,-16,11,-10
18:26:58:993577,6,-59,-59,-4,-10,-16,11,-10
18:26:58:994452,-45,-25,-50,-15,-9,-5,24,-75
18:26:59:8541,20,-21,-31,-5,-5,-7,-44,20
18:26:59:9437,20,-21,-31,-5,-5,-7,-44,20
18:26:59:15453,24,22,6,-2,-2,-2,-25,3
18:26:59:22929,-17,28,43,17,10,11,18,-18
18:26:59:30454,-17,28,43,17,10,11,18,-18
18:26:59:37923,6,4,5,-10,-5,-13,-48,13
18:26:59:45420,4,10,25,13,7,-12,-24,36
18:26:59:61040,4,10,25,13,7,-12,-24,36
18:26:59:61929,-6,2,25,8,10,13,33,16
18:26:59:68543,-12,-27,-5,-3,-6,2,-11,15
18:26:59:69437,-12,-27,-5,-3,-6,2,-11,15
18:26:59:83599,9,-2,9,-3,1,-35,-118,63
18:26:59:84439,-9,-45,-17,-4,2,20,82,-15
18:26:59:90435,-9,-45,-17,-4,2,20,82,-15
18:26:59:97943,10,1,-4,-5,-6,0,-23,-62
18:26:59:105409,40,36,14,2,-2,-2,-36,-12
18:26:59:113572,40,36,14,2,-2,-2,-36,-12
18:26:59:114407,-19,11,7,9,11,15,42,-13
18:26:59:128569,-16,44,-9,0,-5,1,-25,-10
18:26:59:129457,-16,44,-9,0,-5,1,-25,-10
18:26:59:135418,49,4,34,10,0,19,112,71
18:26:59:142926,27,5,-17,-15,-13,-28,-55,34
18:26:59:150417,27,5,-17,-15,-13,-28,-55,34
18:26:59:157910,-2,-35,-39,-20,-6,-4,-27,-9
18:26:59:165473,-29,3,-41,-3,-2,11,87,-27
18:26:59:173690,-29,3,-41,-3,-2,11,87,-27
18:26:59:174443,-7,-15,-36,-13,-3,-9,-47,0
18:26:59:188559,-28,44,61,5,-3,-3,-19,21
18:26:59:189426,-28,44,61,5,-3,-3,-19,21
18:26:59:195463,-52,10,-16,-2,6,5,9,25
18:26:59:202946,-5,24,-10,-2,-1,0,17,20
18:26:59:210433,-5,24,-10,-2,-1,0,17,20
18:26:59:217944,-46,-48,5,4,-2,12,56,-27
18:26:59:225429,33,-18,-46,-5,2,8,21,62
18:26:59:233693,33,-18,-46,-5,2,8,21,62
18:26:59:234405,11,3,0,0,0,10,62,9
18:26:59:249092,108,-49,-28,-4,-2,-9,-25,27
18:26:59:256187,108,-49,-28,-4,-2,-9,-25,27
18:26:59:256934,-14,-22,2,1,-2,-7,-46,-35
18:26:59:262999,6,-3,8,-4,0,1,22,-28
18:26:59:270427,6,-3,8,-4,0,1,22,-28
18:26:59:277944,-6,-9,-6,-25,-20,-1,21,-18
18:26:59:285440,-43,26,-2,-5,10,-1,3,-24
18:26:59:293560,-43,26,-2,-5,10,-1,3,-24
18:26:59:294418,37,70,71,3,4,-8,-27,40
18:26:59:308552,-69,-19,42,11,-14,-10,31,-7
18:26:59:309482,-69,-19,42,11,-14,-10,31,-7
18:26:59:315449,21,3,-29,4,9,6,85,17
18:26:59:322920,46,-27,-2,-7,-7,-29,-63,-91
18:26:59:330454,46,-27,-2,-7,-7,-29,-63,-91
18:26:59:337936,23,-1,-55,0,8,2,-19,0
18:26:59:345480,24,-29,-35,-3,6,1,47,-15
18:26:59:353544,24,-29,-35,-3,6,1,47,-15
18:26:59:354410,28,3,41,4,-3,9,76,22
18:26:59:368563,-47,90,-10,-9,2,5,-63,-6
18:26:59:369460,-47,90,-10,-9,2,5,-63,-6
18:26:59:375453,27,38,-12,11,3,-18,-128,0
18:26:59:382952,-44,-21,58,12,-1,-11,-70,-61
18:26:59:398569,-44,-21,58,12,-1,-11,-70,-61
18:26:59:399440,-58,49,26,5,-1,7,70,18
18:26:59:405439,10,-32,-49,-5,1,14,-17,71
18:26:59:413600,10,-32,-49,-5,1,14,-17,71
18:26:59:414444,0,-7,13,5,3,-4,-15,-55
18:26:59:428538,21,25,25,1,-8,-5,-4,11
18:26:59:429439,21,25,25,1,-8,-5,-4,11
18:26:59:435409,-4,-50,-43,-19,-14,-15,-46,43
18:26:59:442959,-42,-21,25,-4,-3,-4,1,-8
18:26:59:450457,-42,-21,25,-4,-3,-4,1,-8
18:26:59:457920,-19,-15,-29,-7,-8,5,-128,-28
18:26:59:465506,11,-9,-34,-9,-3,-6,-63,14
18:26:59:473563,11,-9,-34,-9,-3,-6,-63,14
18:26:59:474433,32,19,29,-7,-4,-4,-29,-6
18:26:59:488578,-8,-67,-41,-9,3,22,88,60
18:26:59:489448,-8,-67,-41,-9,3,22,88,60
18:26:59:495450,-13,-16,2,-5,-7,-1,52,12
18:26:59:511045,42,19,30,6,0,-8,-35,29
18:26:59:512012,42,19,30,6,0,-8,-35,29
18:26:59:517925,66,19,51,17,10,10,25,0
18:26:59:534189,-35,-43,-24,-3,2,-6,-56,-9
18:26:59:535053,-35,-43,-24,-3,2,-6,-56,-9
18:26:59:535810,4,-17,-32,-1,3,-10,17,-18
18:26:59:548552,49,28,-1,5,-3,-6,-7,15
18:26:59:549439,49,28,-1,5,-3,-6,-7,15
18:26:59:555406,-34,2,-3,2,5,2,69,-21
18:26:59:562938,20,30,13,8,0,10,60,21
18:26:59:570424,20,30,13,8,0,10,60,21
18:26:59:577928,-7,-9,21,2,0,-3,-53,-29
18:26:59:585424,-28,7,28,8,-4,-1,43,12
18:26:59:593532,-28,7,28,8,-4,-1,43,12
18:26:59:594406,-20,-38,-41,-8,-7,23,35,3
18:26:59:608545,29,7,28,6,10,3,18,-38
18:26:59:609419,29,7,28,6,10,3,18,-38
18:26:59:615425,-10,1,-23,1,-7,-10,-16,-95
18:26:59:622917,-40,-36,-34,-15,5,5,-5,16
18:26:59:630433,-40,-36,-34,-15,5,5,-5,16
18:26:59:637923,-8,-27,20,2,-7,-40,-94,50
18:26:59:645456,47,22,-42,-14,-2,-8,-57,-48
18:26:59:653553,47,22,-42,-14,-2,-8,-57,-48
18:26:59:654426,-10,-34,-21,-2,9,5,4,27
18:26:59:668548,-35,19,-8,-2,-12,-5,-16,-20
18:26:59:669429,-35,19,-8,-2,-12,-5,-16,-20
18:26:59:675422,-22,26,-2,4,18,11,58,20
18:26:59:682923,14,-12,-26,-8,8,7,40,-1
18:26:59:690416,14,-12,-26,-8,8,7,40,-1
18:26:59:697955,-86,16,13,-14,-9,-3,-29,-81
18:26:59:705417,-42,-39,13,4,-5,-3,-43,-8
18:26:59:713546,-42,-39,13,4,-5,-3,-43,-8
18:26:59:714403,55,33,32,9,2,0,0,29
18:26:59:728579,20,64,44,14,5,21,56,6
18:26:59:729444,20,64,44,14,5,21,56,6
18:26:59:735422,-8,-20,1,6,0,-12,-42,8
18:26:59:742927,5,0,-17,-9,-1,9,-28,28
18:26:59:750462,5,0,-17,-9,-1,9,-28,28
18:26:59:766050,44,20,-3,-7,5,23,93,57
18:26:59:766814,-36,-65,-28,-10,-5,-9,-31,-36
18:26:59:773551,-36,-65,-28,-10,-5,-9,-31,-36
18:26:59:774424,2,1,-5,-5,-15,-17,-50,-49
18:26:59:789060,30,-4,-22,-10,-5,4,44,-22
18:26:59:789939,30,-4,-22,-10,-5,4,44,-22
18:26:59:795434,21,4,26,10,-1,6,51,13
18:26:59:811073,-4,16,43,15,0,-12,-8,27
18:26:59:811970,-4,16,43,15,0,-12,-8,27
18:26:59:817934,32,38,15,10,-5,-9,-49,-9
18:26:59:825319,-16,-7,-43,-15,-2,-41,-112,-18
18:26:59:832931,-16,-7,-43,-15,-2,-41,-112,-18
18:26:59:840424,-17,-19,-27,-12,-3,-5,-45,4
18:26:59:848625,-21,31,19,6,-1,-4,-11,21
18:26:59:849432,-21,31,19,6,-1,-4,-11,21
18:26:59:855411,-27,-11,-3,-9,-4,-11,-75,31
18:26:59:871076,29,5,-20,5,-3,3,29,19
18:26:59:871950,29,5,-20,5,-3,3,29,19
18:26:59:877947,-5,-1,-4,-4,-4,0,55,26
18:26:59:885438,26,19,10,-1,-5,4,-21,-51
18:26:59:892935,26,19,10,-1,-5,4,-21,-51
18:26:59:900458,30,-19,22,9,6,15,124,12
18:26:59:908549,18,10,6,2,-2,19,112,-22
18:26:59:909424,18,10,6,2,-2,19,112,-22
18:26:59:915470,8,-14,-57,-12,-5,3,57,-4
18:26:59:931066,23,-11,32,11,10,3,-68,-11
18:26:59:931951,23,-11,32,11,10,3,-68,-11
18:26:59:937927,34,21,-6,3,6,-1,-32,14
18:26:59:945440,-53,1,-14,-10,-11,-15,27,46
18:26:59:952924,-53,1,-14,-10,-11,-15,27,46
18:26:59:960422,-26,5,57,12,5,-3,-24,-16
18:26:59:968574,-17,-3,-1,-12,-9,-30,-75,-31
18:26:59:969451,-17,-3,-1,-12,-9,-30,-75,-31
18:26:59:975448,9,1,-23,3,-3,-6,-56,16
18:26:59:991036,38,-17,-20,-3,0,3,37,-31
18:26:59:991923,38,-17,-20,-3,0,3,37,-31
18:26:59:997933,12,-24,-15,-6,-4,1,23,-62
18:27:00:5429,-69,25,-17,-9,-8,12,96,10
18:27:00:12928,-69,25,-17,-9,-8,12,96,10
18:27:00:20419,-99,-42,-16,-20,-1,4,64,-23
18:27:00:28543,14,19,41,13,-7,-10,23,55
18:27:00:29451,14,19,41,13,-7,-10,23,55
18:27:00:35410,-13,1,-22,-13,0,-6,-87,21
18:27:00:51058,-25,-17,-50,-13,4,-1,-67,1
18:27:00:51931,-25,-17,-50,-13,4,-1,-67,1
18:27:00:57923,57,5,-38,-11,-6,6,88,20
18:27:00:65467,-29,-17,-9,10,8,12,1,18
18:27:00:72928,-29,-17,-9,10,8,12,1,18
18:27:00:89167,-45,-18,9,1,-2,-9,-36,-3
18:27:00:90048,-6,10,6,-6,-5,-14,-67,1
18:27:00:90933,-6,10,6,-6,-5,-14,-67,1
18:27:00:95454,-15,-5,-19,0,5,0,42,-5
18:27:00:111075,65,-1,41,-2,-2,8,38,31
18:27:00:111941,65,-1,41,-2,-2,8,38,31
18:27:00:117913,43,8,24,1,-4,10,-26,3
18:27:00:125429,65,13,-24,2,7,-1,-64,1
18:27:00:132941,65,13,-24,2,7,-1,-64,1
18:27:00:140434,19,21,-17,-8,-6,-5,-68,28
18:27:00:148589,-30,14,26,-6,-8,14,74,3
18:27:00:149445,-30,14,26,-6,-8,14,74,3
18:27:00:155444,32,8,-5,1,5,-5,12,-15
18:27:00:171566,-11,-9,-8,2,4,5,26,66
18:27:00:172432,-11,-9,-8,2,4,5,26,66
18:27:00:177942,19,-3,-34,-13,-7,-3,-8,-76
18:27:00:185439,-36,-31,26,1,-4,-3,-4,-15
18:27:00:192936,-36,-31,26,1,-4,-3,-4,-15
18:27:00:200339,-29,4,44,9,5,5,66,20
18:27:00:208571,-29,-41,-5,-5,-5,-3,41,-17
18:27:00:209441,-29,-41,-5,-5,-5,-3,41,-17
18:27:00:215447,8,38,38,9,2,-3,24,74
18:27:00:231081,52,5,6,1,-6,-4,-19,-19
18:27:00:231966,52,5,6,1,-6,-4,-19,-19
18:27:00:237952,-12,-48,-14,-8,9,5,-24,-13
18:27:00:245335,-36,13,46,19,15,17,60,-48
18:27:00:252946,-36,13,46,19,15,17,60,-48
18:27:00:260421,6,19,48,6,-3,3,-11,-75
18:27:00:268563,19,24,13,10,7,9,-48,-68
18:27:00:269424,19,24,13,10,7,9,-48,-68
18:27:00:275421,-5,23,-11,4,-5,-8,52,9
18:27:00:291055,63,3,1,-3,-4,-7,-34,37
18:27:00:291926,63,3,1,-3,-4,-7,-34,37
18:27:00:297944,-76,16,-5,-3,-1,-14,-92,-20
18:27:00:305428,29,-37,-40,-14,6,-11,-68,-55
18:27:00:312910,29,-37,-40,-14,6,-11,-68,-55
18:27:00:320453,-9,-8,59,9,0,9,-16,-41
18:27:00:328550,-49,32,-23,2,0,2,-18,-29
18:27:00:329468,-49,32,-23,2,0,2,-18,-29
18:27:00:335446,1,-24,-111,-28,-10,-9,-17,20
18:27:00:351074,-38,-3,-17,1,-3,-5,17,-2
18:27:00:351941,-38,-3,-17,1,-3,-5,17,-2
18:27:00:366048,39,-28,17,16,1,13,88,-21
18:27:00:366852,17,-11,6,-3,-8,-3,111,51
18:27:00:372938,17,-11,6,-3,-8,-3,111,51
18:27:00:380439,37,3,12,6,-4,2,36,27
18:27:00:388552,36,-15,-2,7,-6,-18,-65,-5
18:27:00:389425,36,-15,-2,7,-6,-18,-65,-5
18:27:00:395413,11,21,30,12,0,-6,-53,13
18:27:00:411068,10,16,2,4,-2,-23,-93,15
18:27:00:411930,10,16,2,4,-2,-23,-93,15
18:27:00:417929,-71,-18,-6,7,17,1,-10,14
18:27:00:425425,10,-6,-7,-9,-10,-6,-62,-43
18:27:00:432941,10,-6,-7,-9,-10,-6,-62,-43
18:27:00:440430,-10,7,-10,-8,-10,-9,-34,-6
18:27:00:448593,0,50,9,2,5,3,22,19
18:27:00:449439,0,50,9,2,5,3,22,19
18:27:00:455431,37,10,-17,-5,-1,5,49,47
18:27:00:471081,-1,21,37,4,-1,4,10,22
18:27:00:471947,-1,21,37,4,-1,4,10,22
18:27:00:477944,-52,-13,-3,6,2,25,-15,20
18:27:00:485437,9,-30,-5,-8,-5,-4,-30,-27
18:27:00:492947,9,-30,-5,-8,-5,-4,-30,-27
18:27:00:500473,-6,20,-18,5,4,5,40,-29
18:27:00:508548,9,-29,-39,-9,-4,1,62,-28
18:27:00:509436,9,-29,-39,-9,-4,1,62,-28
18:27:00:515477,32,-21,-17,-17,-10,-18,-74,-67
18:27:00:531099,-20,-41,-14,5,-1,3,-34,60
18:27:00:531996,-20,-41,-14,5,-1,3,-34,60
18:27:00:537933,-5,-31,-21,0,-8,-19,-52,31
18:27:00:545444,-12,5,-16,-5,3,9,54,-24
18:27:00:552946,-12,5,-16,-5,3,9,54,-24
18:27:00:560436,-48,8,22,6,7,26,13,-2
18:27:00:568556,-42,25,29,3,3,19,121,46
18:27:00:569465,-42,25,29,3,3,19,121,46
18:27:00:575440,-12,-40,38,-8,-7,-12,7,67
18:27:00:591072,-2,-59,-91,-11,1,-8,-59,-35
18:27:00:591942,-2,-59,-91,-11,1,-8,-59,-35
18:27:00:597965,24,22,50,5,0,-1,-31,19
18:27:00:605304,29,16,-4,-3,-7,-10,-64,-75
18:27:00:612960,29,16,-4,-3,-7,-10,-64,-75
18:27:00:620441,31,7,13,5,-3,-1,61,-30
18:27:00:628581,47,0,56,17,3,0,-43,-25
18:27:00:629430,47,0,56,17,3,0,-43,-25
18:27:00:635427,-23,8,11,-11,-5,-17,-76,4
18:27:00:651122,21,-7,10,1,2,9,45,70
18:27:00:651980,21,-7,10,1,2,9,45,70
18:27:00:657964,-16,-37,-18,-5,-5,-13,5,18
18:27:00:665489,-24,31,44,-1,6,9,45,43
18:27:00:672912,-24,31,44,-1,6,9,45,43
18:27:00:680484,-35,13,-28,1,1,-2,44,24
18:27:00:688564,-44,-29,38,6,-11,0,-23,19
18:27:00:689429,-44,-29,38,6,-11,0,-23,19
18:27:00:695448,15,20,5,5,4,6,21,-34
18:27:00:719195,-1,34,11,0,0,-4,3,2
18:27:00:720042,-1,34,11,0,0,-4,3,2
18:27:00:720932,65,13,13,-1,-4,-16,-90,-4
18:27:00:725422,-26,-13,-39,-8,5,-1,-53,-24
18:27:00:732966,-26,-13,-39,-8,5,-1,-53,-24
18:27:00:749194,2,-8,-27,-10,2,10,79,-25
18:27:00:750093,-30,-38,1,-6,-10,7,65,-60
18:27:00:750928,-30,-38,1,-6,-10,7,65,-60
18:27:00:762947,2,-25,-41,-9,8,0,1,-6
18:27:00:771066,-25,1,-28,-4,-4,-12,-77,3
18:27:00:771936,-25,1,-28,-4,-4,-12,-77,3
18:27:00:777804,2,22,32,10,-2,0,44,22
18:27:00:793582,28,16,-18,4,8,4,-4,23
18:27:00:794450,28,16,-18,4,8,4,-4,23
18:27:00:800470,50,28,10,4,1,6,71,33
18:27:00:808545,-10,41,50,2,1,1,19,-24
18:27:00:809431,-10,41,50,2,1,1,19,-24
18:27:00:822927,-1,1,-10,1,-4,15,52,-15
18:27:00:831110,4,-16,28,0,-10,3,52,14
18:27:00:831948,4,-16,28,0,-10,3,52,14
18:27:00:837940,-1,58,34,11,1,-12,-91,-16
18:27:00:854075,-7,-1,-55,-8,4,-1,11,3
18:27:00:854812,-7,-1,-55,-8,4,-1,11,3
18:27:00:860440,-14,-14,10,0,-1,14,80,-48
18:27:00:868577,-10,-23,22,8,3,0,57,-38
18:27:00:869441,-10,-23,22,8,3,0,57,-38
18:27:00:882945,12,-13,29,2,-3,-8,-66,-7
18:27:00:891056,26,-4,-17,-4,1,-1,12,35
18:27:00:891916,26,-4,-17,-4,1,-1,12,35
18:27:00:897954,3,4,-3,-8,-2,-19,-81,-21
18:27:00:913562,-21,3,-5,-2,-5,-16,-24,-25
18:27:00:914431,-21,3,-5,-2,-5,-16,-24,-25
18:27:00:920451,-59,7,6,5,-3,0,7,59
18:27:00:928623,13,-7,-39,-18,-2,3,-13,18
18:27:00:929453,13,-7,-39,-18,-2,3,-13,18
18:27:00:942918,-5,4,6,-13,-7,1,-8,-9
18:27:00:951190,-5,4,6,-13,-7,1,-8,-9
18:27:00:951932,-2,26,25,2,1,7,5,5
18:27:00:957931,-65,-16,42,7,5,-4,-70,12
18:27:00:973559,-65,-16,42,7,5,-4,-70,12
18:27:00:974420,21,-52,0,-12,-9,-9,-3,33
18:27:00:980431,101,8,-41,-8,-2,3,-23,36
18:27:00:988697,101,8,-41,-8,-2,3,-23,36
18:27:00:989444,10,-25,-31,1,5,-9,-90,-23
18:27:01:2932,20,-12,-53,-29,-18,-17,-27,-8
18:27:01:11129,20,-12,-53,-29,-18,-17,-27,-8
18:27:01:11957,-5,16,6,3,2,3,34,-3
18:27:01:17941,2,-9,-11,1,0,-8,-25,-9
18:27:01:33607,2,-9,-11,1,0,-8,-25,-9
18:27:01:34437,-36,37,50,11,10,6,44,29
18:27:01:40419,-66,-19,8,7,3,6,36,7
18:27:01:48702,-66,-19,8,7,3,6,36,7
18:27:01:49428,27,-15,-29,-2,-7,6,49,-34
18:27:01:62970,-10,5,-15,7,3,-8,-37,15
18:27:01:71074,-10,5,-15,7,3,-8,-37,15
18:27:01:71945,17,51,30,-6,3,1,7,5
18:27:01:77918,52,19,10,1,-4,4,-1,30
18:27:01:93563,52,19,10,1,-4,4,-1,30
18:27:01:94429,27,-7,-35,5,-2,-4,21,8
18:27:01:100442,-4,-9,41,5,-1,-10,-31,-26
18:27:01:108562,-4,-9,41,5,-1,-10,-31,-26
18:27:01:109430,-13,28,5,-3,-9,-1,53,20
18:27:01:122819,-39,-27,-2,0,4,13,94,32
18:27:01:131061,-39,-27,-2,0,4,13,94,32
18:27:01:131973,-12,-33,-35,-10,0,-4,60,21
18:27:01:137940,4,-14,-34,-15,-4,9,18,0
18:27:01:153575,4,-14,-34,-15,-4,9,18,0
18:27:01:154465,12,-20,4,2,1,1,25,-22
18:27:01:160305,21,-4,2,-7,-10,-21,-40,-90
18:27:01:168574,21,-4,2,-7,-10,-21,-40,-90
18:27:01:169437,-46,-35,26,0,1,0,-11,-117
18:27:01:182818,-34,-1,19,1,4,12,-7,-46
18:27:01:191051,-34,-1,19,1,4,12,-7,-46
18:27:01:191927,-93,16,27,0,-9,-16,-128,23
18:27:01:197846,92,-6,-14,8,0,-14,12,-38
18:27:01:213598,92,-6,-14,8,0,-14,12,-38
18:27:01:214435,1,-5,-17,-11,-2,9,-119,-40
18:27:01:220302,33,-47,-13,4,4,16,11,42
18:27:01:228564,33,-47,-13,4,4,16,11,42
18:27:01:229516,41,14,-14,4,1,0,-27,80
18:27:01:242958,45,-27,8,7,-1,-1,-24,34
18:27:01:251055,45,-27,8,7,-1,-1,-24,34
18:27:01:251955,-5,24,12,11,0,-9,-47,43
18:27:01:257825,-13,48,-2,-12,4,-14,-94,32
18:27:01:273563,-13,48,-2,-12,4,-14,-94,32
18:27:01:274441,9,2,8,2,7,-10,-5,2
18:27:01:280447,-65,-35,-42,-8,-2,5,-1,14
18:27:01:288585,-65,-35,-42,-8,-2,5,-1,14
18:27:01:289446,-1,31,12,0,-2,3,-16,-7
18:27:01:302956,-18,6,-8,9,0,-5,-7,37
18:27:01:311072,-18,6,-8,9,0,-5,-7,37
18:27:01:311991,-8,6,34,1,-1,12,127,-3
18:27:01:317940,11,6,-14,-11,-4,-8,-51,-9
18:27:01:333607,11,6,-14,-11,-4,-8,-51,-9
18:27:01:334447,31,-3,-4,-2,-2,-5,2,86
18:27:01:340458,5,-83,-31,-10,-6,-9,-60,-32
18:27:01:348573,5,-83,-31,-10,-6,-9,-60,-32
18:27:01:349441,39,23,-15,-8,-5,0,-9,23
18:27:01:362951,-62,-13,43,21,10,2,-30,-54
18:27:01:371076,-62,-13,43,21,10,2,-30,-54
18:27:01:371943,9,-23,40,4,-1,13,24,-42
18:27:01:377938,12,64,35,10,5,13,86,-2
18:27:01:393711,12,64,35,10,5,13,86,-2
18:27:01:394440,44,-3,-22,-4,-8,-19,-35,-8
18:27:01:400442,11,6,31,2,-2,-4,50,34
18:27:01:408567,11,6,31,2,-2,-4,50,34
18:27:01:409458,13,28,-10,-1,2,-1,-66,5
18:27:01:422932,-10,21,-1,-4,-5,5,51,5
18:27:01:431185,-10,21,-1,-4,-5,5,51,5
18:27:01:431930,-69,-79,-37,2,2,-13,-8,-42
18:27:01:437942,-82,46,-15,-6,16,13,61,21
18:27:01:453570,-82,46,-15,-6,16,13,61,21
18:27:01:454421,-20,13,-5,-1,5,5,-43,10
18:27:01:460503,30,3,-48,-9,-20,-21,-49,-17
18:27:01:468572,30,3,-48,-9,-20,-21,-49,-17
18:27:01:469442,17,14,38,3,3,-4,-7,12
18:27:01:482952,-12,1,-21,-6,-5,3,9,-7
18:27:01:499342,-12,1,-21,-6,-5,3,9,-7
18:27:01:500074,120,-47,-13,1,-3,-3,-12,23
18:27:01:500957,16,2,18,2,3,11,87,-8
18:27:01:513588,16,2,18,2,3,11,87,-8
18:27:01:514463,-30,-3,51,18,4,23,65,-17
18:27:01:520306,-11,-1,29,-11,-5,-12,-37,12
18:27:01:528585,-11,-1,29,-11,-5,-12,-37,12
18:27:01:529489,5,7,-23,-8,-5,-11,-49,19
18:27:01:542961,64,-5,-23,-14,-12,-8,40,-29
18:27:01:551060,64,-5,-23,-14,-12,-8,40,-29
18:27:01:551930,49,-2,9,-5,0,-20,-34,16
18:27:01:557834,70,23,39,13,9,14,-8,83
18:27:01:573577,70,23,39,13,9,14,-8,83
18:27:01:574444,-71,3,-54,-1,-2,5,-37,-9
18:27:01:581120,-21,-1,14,18,15,-4,-41,-10
18:27:01:588584,-21,-1,14,18,15,-4,-41,-10
18:27:01:589448,15,20,-5,-15,-4,6,21,-36
18:27:01:602942,-64,-35,-24,-15,-8,-4,72,34
18:27:01:611072,-64,-35,-24,-15,-8,-4,72,34
18:27:01:611954,-6,18,10,-3,-8,0,49,20
18:27:01:617832,27,1,-15,-12,-4,-2,-42,-8
18:27:01:633607,27,1,-15,-12,-4,-2,-42,-8
18:27:01:634442,5,-12,8,1,-10,-9,39,-97
18:27:01:640450,-30,-8,-3,14,5,-10,-128,-17
18:27:01:648586,-30,-8,-3,14,5,-10,-128,-17
18:27:01:649473,-2,24,-14,-3,-5,-15,-25,-14
18:27:01:662944,13,-4,-33,-13,-6,-1,24,-23
18:27:01:671077,13,-4,-33,-13,-6,-1,24,-23
18:27:01:671943,-9,11,-13,-6,1,1,1,51
18:27:01:677964,57,16,7,-8,-13,32,64,-43
18:27:01:693578,57,16,7,-8,-13,32,64,-43
18:27:01:694507,-41,67,21,19,20,30,23,-11
18:27:01:700462,-32,7,-3,-11,-4,0,63,24
18:27:01:707938,-32,7,-3,-11,-4,0,63,24
18:27:01:715480,6,-32,25,3,-2,-1,30,29
18:27:01:722944,-50,-8,-26,1,0,-11,-65,-14
18:27:01:731105,-50,-8,-26,1,0,-11,-65,-14
18:27:01:731978,-53,-13,-42,-7,-1,-11,-51,-5
18:27:01:745456,35,12,15,17,2,1,-13,17
18:27:01:753587,35,12,15,17,2,1,-13,17
18:27:01:754452,-73,-29,3,3,-2,9,42,7
18:27:01:760461,-14,24,25,12,6,19,15,-10
18:27:01:767950,-14,24,25,12,6,19,15,-10
18:27:01:775323,88,8,-37,-8,-5,-12,-58,43
18:27:01:782831,-11,-18,-9,1,0,-17,-56,16
18:27:01:791071,-11,-18,-9,1,0,-17,-56,16
18:27:01:791939,36,-17,-39,-24,-12,-6,15,-39
18:27:01:805459,70,3,9,7,7,-1,7,23
18:27:01:813595,70,3,9,7,7,-1,7,23
18:27:01:814477,90,-11,11,2,-1,-8,-18,20
18:27:01:820332,-29,-12,5,-1,-2,1,-15,-50
18:27:01:827975,-29,-12,5,-1,-2,1,-15,-50
18:27:01:835458,-52,-2,7,6,9,17,9,-8
18:27:01:842836,18,-16,1,1,3,39,87,31
18:27:01:851064,18,-16,1,1,3,39,87,31
18:27:01:851940,6,-30,-11,-15,-9,1,62,-44
18:27:01:865389,-14,-6,-14,-12,-3,-16,-91,13
18:27:01:873591,-14,-6,-14,-12,-3,-16,-91,13
18:27:01:874461,-4,21,-26,-16,6,-7,-13,-12
18:27:01:880455,-11,-27,-38,-19,-8,-19,-36,-3
18:27:01:887993,-11,-27,-38,-19,-8,-19,-36,-3
18:27:01:903580,-74,9,7,4,-6,-8,14,34
18:27:01:904334,-52,-4,-10,0,3,1,15,-16
18:27:01:911088,-52,-4,-10,0,3,1,15,-16
18:27:01:911945,13,32,-2,10,4,8,-31,-3
18:27:01:925315,-11,0,12,10,-3,0,29,-39
18:27:01:933586,-11,0,12,10,-3,0,29,-39
18:27:01:934461,32,2,12,3,-3,-22,-19,18
18:27:01:940418,18,15,7,6,7,-3,83,0
18:27:01:947940,18,15,7,6,7,-3,83,0
18:27:01:955494,-26,-10,9,-2,-2,7,18,-26
18:27:01:962986,-46,-23,13,-4,-4,-12,-56,13
18:27:01:971132,-46,-23,13,-4,-4,-12,-56,13
18:27:01:971959,-12,-8,-19,-5,1,9,61,35
18:27:01:985340,10,-11,-1,-14,-11,12,98,2
18:27:01:993601,10,-11,-1,-14,-11,12,98,2
18:27:01:994472,-28,-83,-28,-16,3,-7,-6,34
18:27:02:459,-19,5,8,-3,-1,-13,-32,-3
18:27:02:7958,-19,5,8,-3,-1,-13,-32,-3
18:27:02:15457,-21,5,20,5,-5,-8,-68,-26
18:27:02:31840,-21,-5,-18,-2,0,-26,-99,-28
18:27:02:32571,-21,-5,-18,-2,0,-26,-99,-28
18:27:02:33490,17,33,12,-5,-6,-3,-35,-21
18:27:02:45348,-7,13,-16,4,7,31,96,0
18:27:02:53584,-7,13,-16,4,7,31,96,0
18:27:02:54451,-73,1,15,2,0,-7,44,-44
18:27:02:60455,-17,-74,20,-9,-8,-4,-28,14
18:27:02:67946,-17,-74,20,-9,-8,-4,-28,14
18:27:02:75461,0,-24,50,4,-4,5,-17,6
18:27:02:82975,33,17,3,1,0,-1,4,58
18:27:02:91077,33,17,3,1,0,-1,4,58
18:27:02:91963,36,9,15,7,-1,17,70,-53
18:27:02:105474,22,43,30,2,-2,4,55,4
18:27:02:113583,22,43,30,2,-2,4,55,4
18:27:02:114442,67,29,11,13,3,6,9,8
18:27:02:120471,-12,11,4,11,3,-6,-56,2
18:27:02:127966,-12,11,4,11,3,-6,-56,2
18:27:02:135469,-25,-11,-45,-13,0,1,19,40
18:27:02:142965,40,20,-24,10,-10,0,33,-40
18:27:02:151072,40,20,-24,10,-10,0,33,-40
18:27:02:151934,28,-4,-23,-4,7,-2,-48,2
18:27:02:165506,56,43,33,6,1,-15,-49,-30
18:27:02:173564,56,43,33,6,1,-15,-49,-30
18:27:02:174463,-38,-52,-24,-8,-7,-4,0,9
18:27:02:180488,-3,21,-24,-1,3,-3,-53,-22
18:27:02:187953,-3,21,-24,-1,3,-3,-53,-22
18:27:02:195311,-22,-20,-26,-16,5,17,85,10
18:27:02:202948,17,-13,3,-3,-2,-1,46,2
18:27:02:211082,17,-13,3,-3,-2,-1,46,2
18:27:02:211958,72,59,-16,0,-17,-5,36,37
18:27:02:225441,-5,12,-68,-16,5,0,-2,-9
18:27:02:233587,-5,12,-68,-16,5,0,-2,-9
18:27:02:234444,-41,-4,25,11,2,-12,-52,-13
18:27:02:240432,-4,10,69,4,-4,-9,-70,27
18:27:02:247999,-4,10,69,4,-4,-9,-70,27
18:27:02:255328,28,9,45,6,4,4,-62,31
18:27:02:262851,-33,-45,-25,-8,-1,10,38,14
18:27:02:271098,-33,-45,-25,-8,-1,10,38,14
18:27:02:271956,35,38,9,15,0,-15,-60,22
18:27:02:285363,-82,-36,-28,0,-5,-6,-8,-68
18:27:02:293589,-82,-36,-28,0,-5,-6,-8,-68
18:27:02:294462,71,-13,-17,1,6,0,-10,-54
18:27:02:308594,5,20,2,-1,-2,10,98,68
18:27:02:309466,5,20,2,-1,-2,10,98,68
18:27:02:315351,-27,-11,1,-4,-1,-23,-128,12
18:27:02:322838,17,-37,-4,0,0,-2,-34,-1
18:27:02:331116,17,-37,-4,0,0,-2,-34,-1
18:27:02:331991,16,29,37,4,3,4,42,-7
18:27:02:345471,-11,28,-1,-11,-13,-14,-54,-12
18:27:02:353592,-11,28,-1,-11,-13,-14,-54,-12
18:27:02:354468,7,-13,5,-1,14,14,18,-17
18:27:02:360339,37,7,20,2,-1,-1,25,77
18:27:02:367938,37,7,20,2,-1,-1,25,77
18:27:02:375345,-23,-30,-19,-2,-3,-8,-21,54
18:27:02:382874,-3,-13,8,2,2,-9,-33,2
18:27:02:391081,-3,-13,8,2,2,-9,-33,2
18:27:02:391959,-75,-18,-13,-13,-13,-5,23,-49
18:27:02:405351,20,10,10,13,5,4,2,-22
18:27:02:413584,20,10,10,13,5,4,2,-22
18:27:02:414465,3,-5,-11,4,2,-3,-82,-4
18:27:02:420371,-24,7,-3,-5,-4,8,72,25
18:27:02:427961,-24,7,-3,-5,-4,8,72,25
18:27:02:435454,-54,-16,-11,-7,-6,10,7,-43
18:27:02:442954,19,-7,-31,-10,-4,-8,-41,12
18:27:02:451083,19,-7,-31,-10,-4,-8,-41,12
18:27:02:451949,12,-61,-52,-18,-16,-9,15,-2
18:27:02:465362,12,10,52,3,4,-8,-22,6
18:27:02:473563,12,10,52,3,4,-8,-22,6
18:27:02:474440,9,14,-7,2,-5,-9,6,6
18:27:02:480456,24,-4,-25,-8,-1,-4,52,0
18:27:02:487961,24,-4,-25,-8,-1,-4,52,0
18:27:02:495495,-3,6,23,0,-4,-3,15,7
18:27:02:502953,46,13,5,-2,0,-5,-34,26
18:27:02:511092,46,13,5,-2,0,-5,-34,26
18:27:02:511967,0,47,26,7,11,9,40,-6
18:27:02:525480,16,-19,15,2,4,6,-43,-5
18:27:02:533564,16,-19,15,2,4,6,-43,-5
18:27:02:534431,12,21,17,1,-5,-7,-39,-3
18:27:02:540434,-60,5,0,-1,5,10,-18,-78
18:27:02:547959,-60,5,0,-1,5,10,-18,-78
18:27:02:555479,-6,-22,10,0,1,7,-6,15
18:27:02:562986,-25,5,22,6,1,-11,-46,-2
18:27:02:571093,-25,5,22,6,1,-11,-46,-2
18:27:02:571969,35,-7,-31,12,6,6,-53,26
18:27:02:585472,10,45,12,2,1,-4,-28,5
18:27:02:593595,10,45,12,2,1,-4,-28,5
18:27:02:594484,-2,-6,11,0,1,-6,23,-19
18:27:02:600512,-23,-26,-44,-7,4,-7,-57,-7
18:27:02:607944,-23,-26,-44,-7,4,-7,-57,-7
18:27:02:615337,-25,-4,16,-4,-4,9,114,29
18:27:02:622857,9,-9,-18,-4,-7,-10,41,6
18:27:02:631106,9,-9,-18,-4,-7,-10,41,6
18:27:02:631958,10,-34,-40,-21,-7,-20,-57,3
18:27:02:645477,-5,-4,-24,-2,6,35,127,15
18:27:02:653631,-5,-4,-24,-2,6,35,127,15
18:27:02:654492,7,-48,5,-3,-1,6,-25,10
18:27:02:668615,-22,-22,30,-4,-6,1,-42,7
18:27:02:669471,-22,-22,30,-4,-6,1,-42,7
18:27:02:675468,6,28,31,6,-4,-4,11,-17
18:27:02:682994,28,12,5,8,12,1,3,2
18:27:02:690474,28,12,5,8,12,1,3,2
18:27:02:697841,0,34,4,1,1,2,9,6
18:27:02:705344,3,3,-21,-12,-12,-17,-42,-43
18:27:02:713587,3,3,-21,-12,-12,-17,-42,-43
18:27:02:714451,1,30,8,10,13,-4,-72,6
18:27:02:728577,14,7,19,1,-11,-6,34,-19
18:27:02:729779,14,7,19,1,-11,-6,34,-19
18:27:02:735342,-39,12,8,1,0,-1,-36,-42
18:27:02:742823,-25,-25,-44,-7,-6,-9,-5,0
18:27:02:750505,-25,-25,-44,-7,-6,-9,-5,0
18:27:02:757837,14,1,-25,4,-2,4,63,32
18:27:02:765383,-12,-25,65,10,-1,19,5,18
18:27:02:773583,-12,-25,65,10,-1,19,5,18
18:27:02:774461,10,-3,-24,-2,5,6,66,-11
18:27:02:788613,-10,33,6,0,1,-3,-11,35
18:27:02:789449,-10,33,6,0,1,-3,-11,35
18:27:02:795343,4,25,1,4,-4,-3,1,-9
18:27:02:802864,4,14,21,15,7,3,-24,22
18:27:02:810453,4,14,21,15,7,3,-24,22
18:27:02:817966,25,6,-13,-4,-3,-1,20,-4
18:27:02:825482,-64,20,-6,6,-5,-4,48,-24
18:27:02:833617,-64,20,-6,6,-5,-4,48,-24
18:27:02:834439,22,-5,2,7,8,2,-50,21
18:27:02:848604,33,-25,-85,-34,-8,-8,6,-36
18:27:02:849461,33,-25,-85,-34,-8,-8,6,-36
18:27:02:863601,-59,-15,19,4,2,15,45,10
18:27:02:864340,-10,-67,-14,2,-5,2,103,-53
18:27:02:870466,-10,-67,-14,2,-5,2,103,-53
18:27:02:877858,-44,-16,18,-2,3,9,41,16
18:27:02:885323,12,17,8,7,1,-9,-54,69
18:27:02:893594,12,17,8,7,1,-9,-54,69
18:27:02:894464,17,-3,1,-6,-18,-13,-1,-5
18:27:02:908596,7,0,31,-9,-2,-9,-61,10
18:27:02:909469,7,0,31,-9,-2,-9,-61,10
18:27:02:915478,58,-2,-15,-3,-6,-8,-29,-19
18:27:02:922849,66,-6,0,2,-2,7,76,-86
18:27:02:930472,66,-6,0,2,-2,7,76,-86
18:27:02:937966,26,-8,0,-5,-7,13,-1,9
18:27:02:945468,-22,-3,4,7,16,2,-41,-49
18:27:02:953587,-22,-3,4,7,16,2,-41,-49
18:27:02:954455,14,-7,6,-9,-3,-11,-53,4
18:27:02:968583,-20,-7,34,6,-6,-2,-42,17
18:27:02:969446,-20,-7,34,6,-6,-2,-42,17
18:27:02:975450,-78,-41,-53,-8,2,-6,-27,-45
18:27:02:982960,23,-1,8,5,3,19,-3,1
18:27:02:990453,23,-1,8,5,3,19,-3,1
18:27:02:998003,16,-3,-10,-5,-7,6,112,25
18:27:03:5470,-19,10,-28,-7,3,-8,-14,-20
18:27:03:13638,-19,10,-28,-7,3,-8,-14,-20
18:27:03:14496,1,18,-18,-2,-5,-8,-80,-48
18:27:03:28597,-11,5,-7,-7,-9,-2,-33,16
18:27:03:29340,-11,5,-7,-7,-9,-2,-33,16
18:27:03:35456,-3,5,0,-4,2,-15,-27,-52
18:27:03:42949,17,15,7,2,0,4,35,9
18:27:03:50503,17,15,7,2,0,4,35,9
18:27:03:57844,-3,-1,33,3,2,-2,-30,-17
18:27:03:65489,26,-17,-14,-2,1,-10,-66,-78
18:27:03:73584,26,-17,-14,-2,1,-10,-66,-78
18:27:03:74480,13,17,37,11,-1,1,29,102
18:27:03:88590,25,11,-45,-23,-5,-9,24,45
18:27:03:89455,25,11,-45,-23,-5,-9,24,45
18:27:03:95350,-5,-3,-2,4,1,-3,-30,-19
18:27:03:102838,12,13,1,2,0,14,102,95
18:27:03:110486,12,13,1,2,0,14,102,95
18:27:03:117878,-15,-18,-48,-2,5,6,7,-4
18:27:03:125346,-29,-12,-32,5,10,-5,-2,17
18:27:03:133635,-29,-12,-32,5,10,-5,-2,17
18:27:03:134467,-39,-13,75,5,0,0,47,-26
18:27:03:148576,-22,-21,-28,-6,0,1,-28,-53
18:27:03:149459,-22,-21,-28,-6,0,1,-28,-53
18:27:03:155336,5,13,29,-9,-6,5,65,1
18:27:03:162829,2,-2,3,-3,-10,-1,91,-36
18:27:03:170465,2,-2,3,-3,-10,-1,91,-36
18:27:03:177837,2,6,0,5,-1,5,-66,25
18:27:03:185336,14,28,12,0,-2,-2,-20,8
18:27:03:193332,14,28,12,0,-2,-2,-20,8
18:27:03:200456,21,1,-58,-16,-3,-6,19,3
18:27:03:208587,48,15,23,11,-3,-6,28,-4
18:27:03:209319,48,15,23,11,-3,-6,28,-4
18:27:03:215464,-1,24,6,0,-2,-17,-39,9
18:27:03:231085,1,21,70,8,-1,-8,-48,-4
18:27:03:231990,1,21,70,8,-1,-8,-48,-4
18:27:03:237967,7,-8,-9,-17,-8,12,90,40
18:27:03:245340,-18,6,10,7,2,2,19,40
18:27:03:253602,-18,6,10,7,2,2,19,40
18:27:03:254342,-21,-21,-22,-10,-6,-6,-48,-29
18:27:03:268596,-84,-24,-19,-6,-5,-6,16,24
18:27:03:269459,-84,-24,-19,-6,-5,-6,16,24
18:27:03:275459,-41,-20,-13,3,8,6,111,18
18:27:03:282970,-37,-3,-25,-4,8,1,-72,-55
18:27:03:290458,-37,-3,-25,-4,8,1,-72,-55
18:27:03:297981,37,15,4,8,3,11,-16,-54
18:27:03:305459,42,66,62,13,1,8,-3,42
18:27:03:313570,42,66,62,13,1,8,-3,42
18:27:03:314448,8,16,-4,-9,0,-1,-36,46
18:27:03:328625,23,-8,-14,-1,0,-11,-128,4
18:27:03:329504,23,-8,-14,-1,0,-11,-128,4
18:27:03:335463,15,16,22,9,1,-1,9,-46
18:27:03:342949,-35,-33,3,1,0,3,-12,19
18:27:03:350477,-35,-33,3,1,0,3,-12,19
18:27:03:357842,-15,-13,-43,-10,-3,-8,-45,51
18:27:03:365361,24,11,32,3,-3,-1,-28,-3
18:27:03:373577,24,11,32,3,-3,-1,-28,-3
18:27:03:374462,21,25,-4,2,3,2,25,14
18:27:03:388350,-3,0,-21,-12,-4,14,87,24
18:27:03:396117,-3,0,-21,-12,-4,14,87,24
18:27:03:396988,-12,9,2,0,-5,9,26,24
18:27:03:402853,-5,-28,6,2,1,-4,-11,-3
18:27:03:410486,-5,-28,6,2,1,-4,-11,-3
18:27:03:417890,-17,11,6,4,0,3,22,-39
18:27:03:425329,8,36,-42,5,-6,-10,-18,3
18:27:03:433613,8,36,-42,5,-6,-10,-18,3
18:27:03:434452,5,-31,27,2,1,3,-34,-75
18:27:03:448639,-36,-8,-38,-17,1,-7,-13,-11
18:27:03:449462,-36,-8,-38,-17,1,-7,-13,-11
18:27:03:455347,-17,-8,-35,-17,-4,15,53,-61
18:27:03:462828,-46,-50,-35,-3,1,11,-6,-30
18:27:03:470470,-46,-50,-35,-3,1,11,-6,-30
18:27:03:477838,-90,-9,16,10,0,-7,-59,-10
18:27:03:485495,38,6,21,6,1,-2,-24,8
18:27:03:501137,38,6,21,6,1,-2,-24,8
18:27:03:502005,22,-87,-18,-1,-2,-21,-72,45
18:27:03:508587,51,12,-22,-9,-17,-7,-4,19
18:27:03:509459,51,12,-22,-9,-17,-7,-4,19
18:27:03:515392,43,17,11,0,2,-2,39,-4
18:27:03:522882,-58,-53,-1,-10,-16,-13,-23,-99
18:27:03:530478,-58,-53,-1,-10,-16,-13,-23,-99
18:27:03:537997,20,38,18,1,0,-5,-66,33
18:27:03:545479,38,-24,-15,-1,1,-11,-81,-26
18:27:03:553602,38,-24,-15,-1,1,-11,-81,-26
18:27:03:554348,4,-24,-22,-1,-1,-5,-50,8
18:27:03:568613,-3,5,6,-2,-1,-3,33,26
18:27:03:569475,-3,5,6,-2,-1,-3,33,26
18:27:03:575455,68,-40,12,8,-7,-1,105,4
18:27:03:582966,31,-32,-43,-2,2,7,73,50
18:27:03:590461,31,-32,-43,-2,2,7,73,50
18:27:03:597998,-40,8,14,5,-3,-2,-38,-15
18:27:03:605497,15,25,15,0,-2,9,94,-4
18:27:03:612982,15,25,15,0,-2,9,94,-4
18:27:03:620370,-64,-28,-3,-3,-1,-9,21,17
18:27:03:628605,-16,10,19,11,12,5,-51,-16
18:27:03:629444,-16,10,19,11,12,5,-51,-16
18:27:03:635379,-7,18,-24,-7,-3,-18,-110,-35
18:27:03:651119,31,27,-24,-20,-3,7,49,13
18:27:03:651988,31,27,-24,-20,-3,7,49,13
18:27:03:657841,16,39,2,6,7,1,-51,15
18:27:03:665392,12,63,43,11,4,3,-21,9
18:27:03:672942,12,63,43,11,4,3,-21,9
18:27:03:680337,24,11,-45,-19,-5,-1,18,49
18:27:03:688610,2,-12,17,0,-5,6,2,17
18:27:03:689476,2,-12,17,0,-5,6,2,17
18:27:03:695369,-1,9,56,23,10,1,59,-33
18:27:03:711099,-19,-17,13,-4,-7,-10,11,15
18:27:03:711960,-19,-17,13,-4,-7,-10,11,15
18:27:03:717852,-39,12,42,9,3,10,77,-44
18:27:03:725367,-56,-2,-1,-1,3,-11,-99,-37
18:27:03:732974,-56,-2,-1,-1,3,-11,-99,-37
18:27:03:740378,37,4,12,-5,-4,-2,-60,-40
18:27:03:748632,-19,-15,-25,-3,0,1,6,22
18:27:03:749459,-19,-15,-25,-3,0,1,6,22
18:27:03:755520,-54,-27,-12,-4,0,4,61,-62
18:27:03:771087,52,-5,-20,5,8,8,-30,35
18:27:03:771981,52,-5,-20,5,8,8,-30,35
18:27:03:777836,-13,-50,-34,-4,-11,-6,5,40
18:27:03:793604,33,-11,19,3,1,-8,26,7
18:27:03:794474,33,-11,19,3,1,-8,26,7
18:27:03:800389,-13,44,6,3,-1,23,60,7
18:27:03:808608,-10,1,-10,0,-1,-2,-30,-73
18:27:03:809479,-10,1,-10,0,-1,-2,-30,-73
18:27:03:815377,13,6,-40,-10,-9,2,37,19
18:27:03:831150,18,17,24,-4,-1,1,16,16
18:27:03:832022,18,17,24,-4,-1,1,16,16
18:27:03:837839,-2,-15,18,-5,-1,-7,-37,-56
18:27:03:845360,-64,-21,4,-4,-5,-10,-23,-2
18:27:03:852986,-64,-21,4,-4,-5,-10,-23,-2
18:27:03:860330,25,1,5,4,1,11,53,69
18:27:03:868595,14,0,14,1,7,5,-25,16
18:27:03:869468,14,0,14,1,7,5,-25,16
18:27:03:875496,7,37,30,14,10,-1,-44,-24
18:27:03:891097,-1,-4,26,1,-9,-2,18,43
18:27:03:891968,-1,-4,26,1,-9,-2,18,43
18:27:03:897865,33,-6,-3,-4,-3,7,53,56
18:27:03:905342,16,8,-39,3,-1,1,-32,-10
18:27:03:912998,16,8,-39,3,-1,1,-32,-10
18:27:03:920483,-1,7,-5,-2,-3,-13,-77,20
18:27:03:928598,-25,-11,18,3,-1,0,85,12
18:27:03:929362,-25,-11,18,3,-1,0,85,12
18:27:03:935471,-15,1,-14,-3,5,19,45,-17
18:27:03:951101,14,7,-21,-7,-3,-1,-30,-19
18:27:03:951855,14,7,-21,-7,-3,-1,-30,-19
18:27:03:957984,-27,-9,-16,-4,4,-4,-87,41
18:27:03:965481,-3,-63,-29,-11,-9,-13,-24,-22
18:27:03:972976,-3,-63,-29,-11,-9,-13,-24,-22
18:27:03:980500,7,-4,0,-6,4,-10,11,17
18:27:03:988590,-22,-21,4,2,1,14,3,3
18:27:03:989465,-22,-21,4,2,1,14,3,3
18:27:03:995336,30,7,20,-5,-11,-10,-14,-22
18:27:04:11113,97,51,16,8,4,-1,14,50
18:27:04:12001,97,51,16,8,4,-1,14,50
18:27:04:17845,17,32,-14,-8,-1,-10,-111,-28
18:27:04:25478,-29,3,-16,-11,0,1,-60,-17
18:27:04:32971,-29,3,-16,-11,0,1,-60,-17
18:27:04:40355,0,2,20,6,-2,0,-11,73
18:27:04:56726,-39,15,5,3,-3,-16,-15,15
18:27:04:57611,-39,15,5,3,-3,-16,-15,15
18:27:04:58341,12,-44,12,2,-2,-14,-33,-5
18:27:04:71105,1,-5,101,6,-4,-10,-34,25
18:27:04:71837,1,-5,101,6,-4,-10,-34,25
18:27:04:77964,16,-1,-14,-14,-2,-10,18,13
18:27:04:85493,-37,27,-44,3,7,0,-28,-48
18:27:04:92993,-37,27,-44,3,7,0,-28,-48
18:27:04:100377,1,-1,12,7,1,15,51,-19
18:27:04:108609,26,-8,-29,-7,-3,1,37,20
18:27:04:109486,26,-8,-29,-7,-3,1,37,20
18:27:04:115371,-37,-64,-21,-3,-7,1,48,-15
18:27:04:131167,8,-14,-15,-4,1,0,28,32
18:27:04:132048,8,-14,-15,-4,1,0,28,32
18:27:04:137850,-28,-11,-2,-8,-1,-10,-92,8
18:27:04:145473,-20,-25,-37,-19,-6,9,79,-60
18:27:04:152960,-20,-25,-37,-19,-6,9,79,-60
18:27:04:160358,-31,35,-22,2,1,-1,-1,-2
18:27:04:168621,20,8,-12,1,4,14,78,-47
18:27:04:169489,20,8,-12,1,4,14,78,-47
18:27:04:175346,0,-25,23,7,-1,7,2,-46
18:27:04:191092,-34,3,15,-3,-2,-13,-1,-11
18:27:04:191976,-34,3,15,-3,-2,-13,-1,-11
18:27:04:197869,-27,6,-10,-4,-5,-5,-36,-13
18:27:04:205341,-4,-5,14,5,5,2,-32,-25
18:27:04:213004,-4,-5,14,5,5,2,-32,-25
18:27:04:220336,15,32,-31,6,4,3,13,-2
18:27:04:228597,3,-8,12,9,-1,-3,-12,36
18:27:04:229466,3,-8,12,9,-1,-3,-12,36
18:27:04:235351,12,-6,50,7,4,-2,1,-10
18:27:04:251094,35,-1,-5,-14,-4,-9,-5,-11
18:27:04:251970,35,-1,-5,-14,-4,-9,-5,-11
18:27:04:257851,59,12,-27,-9,-1,3,-48,6
18:27:04:265358,-15,-44,-6,6,3,3,-56,97
18:27:04:272971,-15,-44,-6,6,3,3,-56,97
18:27:04:289237,17,-27,-8,-7,-6,7,109,45
18:27:04:290120,0,-16,-60,-11,-4,2,-17,14
18:27:04:290858,0,-16,-60,-11,-4,2,-17,14
18:27:04:295363,-14,28,7,2,7,1,10,60
18:27:04:311088,13,49,32,7,-1,-8,-17,-55
18:27:04:311982,13,49,32,7,-1,-8,-17,-55
18:27:04:317856,33,-5,-3,-1,-5,-5,-29,-13
18:27:04:325360,-7,24,3,-4,1,0,-9,-14
18:27:04:332992,-7,24,3,-4,1,0,-9,-14
18:27:04:340363,-21,7,47,3,3,0,30,-24
18:27:04:348594,9,19,-47,-9,-7,-12,-37,-27
18:27:04:349478,9,19,-47,-9,-7,-12,-37,-27
18:27:04:355362,-14,-39,-84,-25,-11,-8,18,-7
18:27:04:371103,15,-4,-4,-8,-2,7,34,-45
18:27:04:371990,15,-4,-4,-8,-2,7,34,-45
18:27:04:377862,10,-32,0,-1,-2,-7,50,-11
18:27:04:385366,14,-13,3,4,0,2,-2,35
18:27:04:393009,14,-13,3,4,0,2,-2,35
18:27:04:400477,51,58,-1,4,-2,-7,-60,38
18:27:04:408608,-8,-2,32,-4,-11,4,28,31
18:27:04:409346,-8,-2,32,-4,-11,4,28,31
18:27:04:422855,-40,15,-10,-1,-1,-9,-64,-6
18:27:04:431141,-30,1,2,3,-8,17,102,24
18:27:04:432012,-30,1,2,3,-8,17,102,24
18:27:04:437980,73,-18,25,3,-1,10,42,-2
18:27:04:445375,-8,-14,7,7,1,-9,-35,-79
18:27:04:452988,-8,-14,7,7,1,-9,-35,-79
18:27:04:460516,16,49,68,12,3,5,38,-78
18:27:04:468589,-11,-16,16,4,4,6,54,23
18:27:04:469330,-11,-16,16,4,4,6,54,23
18:27:04:475347,55,-29,-45,-13,-1,1,-69,34
18:27:04:491110,12,20,16,4,6,-4,-85,20
18:27:04:491888,12,20,16,4,6,-4,-85,20
18:27:04:498010,-56,32,-27,-9,-4,0,-23,58
18:27:04:505508,-44,1,30,3,3,-5,-21,14
18:27:04:512991,-44,1,30,3,3,-5,-21,14
18:27:04:520368,-82,4,22,-3,-2,7,8,-9
18:27:04:528610,-14,9,-13,1,5,8,73,-25
18:27:04:529509,-14,9,-13,1,5,8,73,-25
18:27:04:542999,-40,12,7,-4,2,-11,-37,-29
18:27:04:551087,71,31,21,2,-2,11,58,10
18:27:04:551954,71,31,21,2,-2,11,58,10
18:27:04:557852,-16,-2,-19,8,11,-4,-31,-15
18:27:04:573611,52,53,-20,-7,0,-4,-23,38
18:27:04:574349,52,53,-20,-7,0,-4,-23,38
18:27:04:580497,-27,-43,48,10,-4,4,40,-1
18:27:04:588620,32,-13,17,9,-1,-5,-54,-29
18:27:04:589486,32,-13,17,9,-1,-5,-54,-29
18:27:04:602985,28,-6,-12,-4,-8,-4,-21,-47
18:27:04:611101,-25,0,-16,-2,-3,-3,-44,6
18:27:04:611842,-25,0,-16,-2,-3,-3,-44,6
18:27:04:617855,44,-84,21,6,-25,-4,26,26
18:27:04:633646,-81,-14,-100,-20,-18,-21,-46,-96
18:27:04:634350,-81,-14,-100,-20,-18,-21,-46,-96
18:27:04:640483,26,-10,-46,-5,1,-8,-38,-24
18:27:04:656092,63,6,4,0,-4,4,117,46
18:27:04:656969,63,6,4,0,-4,4,117,46
18:27:04:662873,-41,3,-10,2,1,-8,-91,-18
18:27:04:671112,-40,38,9,11,24,4,-42,-5
18:27:04:671864,-40,38,9,11,24,4,-42,-5
18:27:04:677983,-8,21,-37,2,7,-8,25,-13
18:27:04:693621,22,-20,13,-1,0,-2,-36,40
18:27:04:694525,22,-20,13,-1,0,-2,-36,40
18:27:04:700507,-6,-10,15,-7,-1,-1,-36,-17
18:27:04:708608,37,-1,5,0,-11,1,-32,40
18:27:04:709394,37,-1,5,0,-11,1,-32,40
18:27:04:722866,-17,-53,-10,-10,-3,1,69,7
18:27:04:731120,-2,-23,-11,-13,-9,-13,40,-5
18:27:04:731976,-2,-23,-11,-13,-9,-13,40,-5
18:27:04:737992,-5,-9,-86,-34,-8,-2,75,-69
18:27:04:753610,-37,-12,19,11,0,0,-15,-69
18:27:04:754514,-37,-12,19,11,0,0,-15,-69
18:27:04:760382,-35,19,29,14,2,-2,-44,13
18:27:04:768596,-37,-96,-4,-6,-6,-6,-48,-61
18:27:04:769346,-37,-96,-4,-6,-6,-6,-48,-61
18:27:04:782866,23,47,41,17,13,5,-58,50
18:27:04:791092,18,41,48,10,-1,10,11,-51
18:27:04:791967,18,41,48,10,-1,10,11,-51
18:27:04:797872,8,-22,-55,2,1,-8,-17,-60
18:27:04:813593,-19,-7,0,2,0,-9,3,7
18:27:04:814457,-19,-7,0,2,0,-9,3,7
18:27:04:820388,19,8,3,-4,2,24,104,120
18:27:04:828612,38,29,-31,-21,0,4,-25,31
18:27:04:829496,38,29,-31,-21,0,4,-25,31
18:27:04:842845,-10,10,22,-2,-4,-11,-67,-28
18:27:04:851104,-6,10,19,2,0,-10,-3,29
18:27:04:851973,-6,10,19,2,0,-10,-3,29
18:27:04:857838,6,37,-16,6,9,3,-57,15
18:27:04:873620,-10,-1,3,-2,-2,7,49,20
18:27:04:874507,-10,-1,3,-2,-2,7,49,20
18:27:04:880369,-31,9,49,8,-3,3,54,26
18:27:04:888597,-19,-66,16,7,0,-10,-18,44
18:27:04:889476,-19,-66,16,7,0,-10,-18,44
18:27:04:902864,9,5,19,2,-3,-7,-22,32
18:27:04:911105,-58,-43,-55,-15,-5,-3,-29,-32
18:27:04:911970,-58,-43,-55,-15,-5,-3,-29,-32
18:27:04:917859,71,11,-7,3,-1,-7,-20,10
18:27:04:941728,55,34,-6,-8,1,-5,-31,-21
18:27:04:942632,55,34,-6,-8,1,-5,-31,-21
18:27:04:943378,-3,17,15,14,-2,9,63,-20
18:27:04:956099,-3,17,15,14,-2,9,63,-20
18:27:04:956959,-18,-4,42,18,5,-9,-15,11
18:27:04:962917,-24,-27,-51,-19,-13,-18,-44,-10
18:27:04:971100,-24,-27,-51,-19,-13,-18,-44,-10
18:27:04:971865,24,-18,-1,9,3,-5,-65,18
18:27:04:978010,39,11,22,-2,0,-3,-35,-21
18:27:04:993605,39,11,22,-2,0,-3,-35,-21
18:27:04:994488,-8,14,-1,4,-1,-2,-31,12
18:27:05:499,44,28,20,4,-11,-1,27,-6
18:27:05:16111,44,28,20,4,-11,-1,27,-6
18:27:05:16995,-4,-2,-66,-8,2,1,35,9
18:27:05:22867,-6,11,-9,-9,8,13,43,-23
18:27:05:31167,-6,11,-9,-9,8,13,43,-23
18:27:05:31978,1,45,63,4,2,12,-19,69
18:27:05:37983,33,7,0,-2,-1,-8,-30,54
18:27:05:53631,33,7,0,-2,-1,-8,-30,54
18:27:05:54492,-75,-22,-3,-16,1,-11,-29,16
18:27:05:60360,-10,-28,-31,-4,6,11,28,-60
18:27:05:76101,-10,-28,-31,-4,6,11,28,-60
18:27:05:76976,26,19,14,3,-4,11,73,-14
18:27:05:82856,-27,-16,-73,-16,-7,-6,-25,-34
18:27:05:99261,-27,-16,-73,-16,-7,-6,-25,-34
18:27:05:100140,43,-69,-49,-17,-1,-3,-23,33
18:27:05:100866,-29,-25,25,7,-5,-11,-8,9
18:27:05:113618,-29,-25,25,7,-5,-11,-8,9
18:27:05:114507,11,28,-18,3,5,48,42,-64
18:27:05:120352,-5,21,22,17,0,9,2,34
18:27:05:136114,-5,21,22,17,0,9,2,34
18:27:05:136856,-36,9,33,9,1,-2,7,-41
18:27:05:142865,-50,4,30,-4,-1,-13,-22,-75
18:27:05:151097,-50,4,30,-4,-1,-13,-22,-75
18:27:05:151959,39,22,-5,-3,1,-11,61,22
18:27:05:157852,-39,-58,15,1,0,-7,-17,62
18:27:05:173690,-39,-58,15,1,0,-7,-17,62
18:27:05:174363,-40,0,6,-2,-6,-5,11,-1
18:27:05:180382,18,20,5,-2,6,22,28,-6
18:27:05:196144,18,20,5,-2,6,22,28,-6
18:27:05:196897,-19,1,-13,1,-2,-4,-50,-10
18:27:05:202983,-12,-17,-45,-19,-12,2,-9,-28
18:27:05:211113,-12,-17,-45,-19,-12,2,-9,-28
18:27:05:211968,22,86,-4,-5,-7,-14,5,-17
18:27:05:217891,31,43,9,7,5,15,30,57
18:27:05:233631,31,43,9,7,5,15,30,57
18:27:05:234359,-58,-46,-54,-26,-13,2,125,-18
18:27:05:240493,39,41,4,0,0,-14,-94,45
18:27:05:256108,39,41,4,0,0,-14,-94,45
18:27:05:256853,22,-22,13,3,-3,-12,-62,73
18:27:05:262889,7,-5,-12,-1,1,-16,-1,5
18:27:05:271127,7,-5,-12,-1,1,-16,-1,5
18:27:05:271866,21,-26,-47,-4,0,0,-5,4
18:27:05:277990,-13,-15,7,-8,-5,0,62,-13
18:27:05:293624,-13,-15,7,-8,-5,0,62,-13
18:27:05:294359,26,21,14,7,6,1,-28,-18
18:27:05:300490,15,32,36,-1,-4,-6,6,-35
18:27:05:316105,15,32,36,-1,-4,-6,6,-35
18:27:05:316980,46,-5,11,0,-6,-27,-122,-3
18:27:05:322902,-4,-27,-19,5,3,6,-59,-10
18:27:05:331162,-4,-27,-19,5,3,6,-59,-10
18:27:05:331908,4,8,89,26,3,-9,67,-32
18:27:05:337997,1,-31,-18,-5,-2,-2,18,18
18:27:05:353624,1,-31,-18,-5,-2,-2,18,18
18:27:05:354493,-11,22,-6,-3,-3,-3,-45,-9
18:27:05:360362,-12,4,36,10,2,5,45,-26
18:27:05:376139,-12,4,36,10,2,5,45,-26
18:27:05:376995,-43,-38,-18,-11,-10,10,101,9
18:27:05:382857,0,3,1,7,4,7,-6,67
18:27:05:391095,0,3,1,7,4,7,-6,67
18:27:05:391849,-4,-11,-39,-10,2,11,-2,8
18:27:05:398001,-57,-64,-15,-2,-6,-13,-34,-34
18:27:05:421873,-57,-64,-15,-2,-6,-13,-34,-34
18:27:05:422602,2,16,7,12,13,27,83,-28
18:27:05:423347,20,-14,-12,-11,-7,-21,-99,17
18:27:05:436113,20,-14,-12,-11,-7,-21,-99,17
18:27:05:436867,-45,1,12,1,-2,0,-16,-3
18:27:05:442863,21,11,31,8,1,1,-19,-76
18:27:05:451113,21,11,31,8,1,1,-19,-76
18:27:05:451982,28,-31,14,-2,-9,-13,-47,-18
18:27:05:457845,32,5,-1,2,3,11,79,42
18:27:05:473607,32,5,-1,2,3,11,79,42
18:27:05:474355,4,-47,-25,-11,0,-12,-85,-33
18:27:05:480377,24,31,23,1,4,9,-57,8
18:27:05:496100,24,31,23,1,4,9,-57,8
18:27:05:496877,34,22,18,0,-7,-18,-29,49
18:27:05:502999,-24,-28,-35,-6,-8,-1,34,32
18:27:05:511097,-24,-28,-35,-6,-8,-1,34,32
18:27:05:511838,-1,-16,-31,-2,4,-3,-57,47
18:27:05:525506,41,29,1,8,-2,19,123,-15
18:27:05:533692,41,29,1,8,-2,19,123,-15
18:27:05:534388,81,31,15,7,3,19,63,-37
18:27:05:540401,-1,3,-31,-9,2,0,-22,-32
18:27:05:556109,-1,3,-31,-9,2,0,-22,-32
18:27:05:556841,-12,-4,5,-7,-10,-15,-41,-15
18:27:05:562908,-19,6,4,10,-2,-7,-41,23
18:27:05:571138,-19,6,4,10,-2,-7,-41,23
18:27:05:571848,-54,-3,-16,-4,-4,-3,15,-12
18:27:05:585361,-19,-28,3,5,10,-8,-61,-3
18:27:05:593618,-19,-28,3,5,10,-8,-61,-3
18:27:05:594373,-23,9,9,10,4,9,47,69
18:27:05:600482,-11,-14,10,-10,-3,2,2,46
18:27:05:607987,-11,-14,10,-10,-3,2,2,46
18:27:05:615363,-85,-3,-2,1,7,-1,-104,-71
18:27:05:622864,18,28,-17,-7,0,-5,14,-51
18:27:05:631113,18,28,-17,-7,0,-5,14,-51
18:27:05:632005,43,24,13,3,-1,6,61,35
18:27:05:645504,-57,17,20,-10,-13,8,109,13
18:27:05:653609,-57,17,20,-10,-13,8,109,13
18:27:05:654346,31,-36,-5,-5,1,-11,-109,-36
18:27:05:660360,24,-28,-43,-10,-11,-25,-14,73
18:27:05:667975,24,-28,-43,-10,-11,-25,-14,73
18:27:05:675391,26,48,10,10,3,9,29,16
18:27:05:682864,65,10,8,4,2,0,-40,-14
18:27:05:691102,65,10,8,4,2,0,-40,-14
18:27:05:691967,42,6,32,8,6,15,76,41
18:27:05:705377,30,-12,4,3,13,4,-71,-18
18:27:05:713612,30,-12,4,3,13,4,-71,-18
18:27:05:714379,33,48,-7,-5,1,-6,8,17
18:27:05:720353,-40,-54,-49,-15,-8,-8,-29,-5
18:27:05:727985,-40,-54,-49,-15,-8,-8,-29,-5
18:27:05:735367,5,-7,-26,-8,-9,-5,-16,-3
18:27:05:742869,-22,26,39,9,3,-8,-25,9
18:27:05:751117,-22,26,39,9,3,-8,-25,9
18:27:05:751978,-86,-57,11,-1,-6,11,59,15
18:27:05:765370,-64,-19,23,5,-1,3,1,-3
18:27:05:773687,-64,-19,23,5,-1,3,1,-3
18:27:05:774494,24,9,-14,-9,0,-11,-69,-25
18:27:05:780361,-19,58,3,-8,0,21,64,-60
18:27:05:787987,-19,58,3,-8,0,21,64,-60
18:27:05:795408,5,-35,-23,-5,-3,9,28,15
18:27:05:802888,13,12,25,4,0,5,26,32
18:27:05:811117,13,12,25,4,0,5,26,32
18:27:05:811918,24,-23,-55,-4,-7,-10,-50,5
18:27:05:825382,-3,4,-22,-15,-6,-15,-102,-57
18:27:05:833658,-3,4,-22,-15,-6,-15,-102,-57
18:27:05:834519,-56,-13,18,-9,0,-4,-20,-3
18:27:05:840390,41,-1,7,5,-3,-23,-16,34
18:27:05:848035,41,-1,7,5,-3,-23,-16,34
18:27:05:855499,20,-5,7,0,-7,-17,17,-3
18:27:05:862896,2,-10,15,-6,-3,31,123,-25
18:27:05:871151,2,-10,15,-6,-3,31,123,-25
18:27:05:871902,11,3,31,-8,3,2,-56,11
18:27:05:885393,-25,-22,24,4,-2,-8,-55,32
18:27:05:893642,-25,-22,24,4,-2,-8,-55,32
18:27:05:894389,-12,45,6,10,0,-8,-97,-45
18:27:05:900515,53,15,-35,3,6,7,77,21
18:27:05:908010,53,15,-35,3,6,7,77,21
18:27:05:915395,28,22,34,15,9,16,59,3
18:27:05:922874,-12,-28,37,7,6,11,101,35
18:27:05:931147,-12,-28,37,7,6,11,101,35
18:27:05:932009,-10,-19,-14,-3,-5,2,-33,-6
18:27:05:945493,-24,-18,-25,-12,-2,-1,32,-81
18:27:05:953660,-24,-18,-25,-12,-2,-1,32,-81
18:27:05:954407,-17,-25,-47,6,1,8,38,-22
18:27:05:960393,14,21,-7,-9,-4,-4,-47,1
18:27:05:968008,14,21,-7,-9,-4,-4,-47,1
18:27:05:975387,91,26,11,-1,-3,-3,63,74
18:27:05:982880,4,-23,-8,-5,-1,-1,-72,6
18:27:05:991116,4,-23,-8,-5,-1,-1,-72,6
18:27:05:991985,-14,-17,9,-3,5,-3,-43,15
18:27:06:5360,-6,-37,-19,1,-7,-6,-59,27
18:27:06:13650,-6,-37,-19,1,-7,-6,-59,27
18:27:06:14506,-29,8,1,-8,-3,4,58,-23
18:27:06:20365,-37,9,-1,6,4,-6,-18,18
18:27:06:27987,-37,9,-1,6,4,-6,-18,18
18:27:06:35372,77,-27,-23,-5,-7,-4,18,17
18:27:06:42877,63,-3,-3,15,7,5,7,29
18:27:06:51115,63,-3,-3,15,7,5,7,29
18:27:06:51967,-63,-37,32,1,-1,-10,-20,-45
18:27:06:65435,21,9,-2,3,-1,3,21,32
18:27:06:73632,21,9,-2,3,-1,3,21,32
18:27:06:74469,-17,3,-45,-11,-2,-10,45,23
18:27:06:80344,29,-26,1,-2,-1,2,80,-74
18:27:06:88003,29,-26,1,-2,-1,2,80,-74
18:27:06:95396,78,29,-26,2,8,10,4,12
18:27:06:102885,4,11,-7,-1,1,-12,-15,12
18:27:06:111122,4,11,-7,-1,1,-12,-15,12
18:27:06:111887,8,-27,-26,-9,-5,10,29,-9
18:27:06:125365,-3,3,-26,-3,-6,-7,-72,-64
18:27:06:133661,-3,3,-26,-3,-6,-7,-72,-64
18:27:06:134366,-25,35,43,8,4,1,-52,45
18:27:06:140373,-5,-36,4,-9,-5,-2,-37,-40
18:27:06:148000,-5,-36,4,-9,-5,-2,-37,-40
18:27:06:155394,-53,22,-2,0,7,7,42,-35
18:27:06:162997,-1,43,1,0,-1,2,-36,53
18:27:06:171150,-1,43,1,0,-1,2,-36,53
18:27:06:171876,11,-22,12,5,-1,-6,-18,5
18:27:06:185366,-29,35,1,0,1,-10,-35,21
18:27:06:193639,-29,35,1,0,1,-10,-35,21
18:27:06:194383,-56,-46,27,3,-14,-11,-50,8
18:27:06:200402,36,19,7,2,3,6,48,8
18:27:06:207990,36,19,7,2,3,6,48,8
18:27:06:215371,-25,-8,-14,3,4,3,-4,-46
18:27:06:222868,-24,8,12,-2,-4,-5,11,-23
18:27:06:231138,-24,8,12,-2,-4,-5,11,-23
18:27:06:232011,-1,16,16,11,2,-2,-12,-4
18:27:06:245348,-26,-16,4,-2,-9,-18,-3,11
18:27:06:253610,-26,-16,4,-2,-9,-18,-3,11
18:27:06:254355,45,0,-27,-11,-10,-13,-53,10
18:27:06:260347,20,3,3,0,6,19,88,-27
18:27:06:276113,20,3,3,0,6,19,88,-27
18:27:06:276849,1,7,-5,-13,-1,-3,25,-60
18:27:06:282862,0,0,-25,-15,-6,6,-97,21
18:27:06:291135,0,0,-25,-15,-6,6,-97,21
18:27:06:291888,2,23,30,2,-3,4,-13,-3
18:27:06:305370,-21,-31,8,-11,-3,0,33,7
18:27:06:313683,-21,-31,8,-11,-3,0,33,7
18:27:06:314418,-42,-4,1,-9,-6,-9,-8,-47
18:27:06:320383,3,7,10,16,3,-16,-79,15
18:27:06:328070,3,7,10,16,3,-16,-79,15
18:27:06:335377,23,31,4,2,3,8,-35,57
18:27:06:342858,15,43,27,-2,-4,1,31,9
18:27:06:351110,15,43,27,-2,-4,1,31,9
18:27:06:351994,74,43,19,14,1,4,100,-11
18:27:06:365420,4,-36,13,9,0,-17,-54,15
18:27:06:373615,4,-36,13,9,0,-17,-54,15
18:27:06:374412,-5,45,1,-2,-4,-4,26,17
18:27:06:380367,15,0,-7,-12,-3,-1,-6,-2
18:27:06:387987,15,0,-7,-12,-3,-1,-6,-2
18:27:06:395383,-17,-24,-4,-5,2,-4,-32,20
18:27:06:402874,-52,38,0,6,-5,-10,-18,40
18:27:06:411121,-52,38,0,6,-5,-10,-18,40
18:27:06:412030,-29,37,-18,9,9,17,103,31
18:27:06:425438,27,20,-26,-12,-8,5,44,-19
18:27:06:433651,27,20,-26,-12,-8,5,44,-19
18:27:06:434486,-71,-49,-20,-10,0,-4,-18,-81
18:27:06:448666,19,-13,-14,-12,4,2,17,-4
18:27:06:449476,19,-13,-14,-12,4,2,17,-4
18:27:06:455363,-30,-33,-18,-8,-7,-9,-43,-8
18:27:06:462868,-24,-37,-18,-4,1,-4,-12,-7
18:27:06:470495,-24,-37,-18,-4,1,-4,-12,-7
18:27:06:477875,5,-3,6,-9,-3,3,69,-47
18:27:06:485388,-36,13,9,5,0,1,-8,-3
18:27:06:493706,-36,13,9,5,0,1,-8,-3
18:27:06:494578,29,25,9,18,-4,-3,-27,-25
18:27:06:508654,28,-29,16,0,-1,3,-19,-23
18:27:06:509533,28,-29,16,0,-1,3,-19,-23
18:27:06:515380,7,-23,-1,-4,-6,-13,-56,40
18:27:06:522863,5,-14,12,4,4,16,60,64
18:27:06:530508,5,-14,12,4,4,16,60,64
18:27:06:537882,24,-4,2,-3,0,-8,-68,-8
18:27:06:545424,-46,-17,18,4,10,7,13,0
18:27:06:553624,-46,-17,18,4,10,7,13,0
18:27:06:554360,-18,-1,-7,-10,-5,-11,-6,35
18:27:06:568619,11,33,-24,-6,2,2,52,-24
18:27:06:569381,11,33,-24,-6,2,2,52,-24
18:27:06:575382,46,-5,-9,2,1,-1,-52,42
18:27:06:582875,58,55,-9,3,-3,-4,-20,-64
18:27:06:590525,58,55,-9,3,-3,-4,-20,-64
18:27:06:598022,34,-17,1,4,3,13,40,70
18:27:06:605504,11,-28,23,14,4,-3,15,15
18:27:06:613662,11,-28,23,14,4,-3,15,15
18:27:06:614395,-2,-7,18,-18,-1,9,29,-12
18:27:06:628620,-23,-24,-17,-3,-5,-8,21,-13
18:27:06:629389,-23,-24,-17,-3,-5,-8,21,-13
18:27:06:635377,26,-19,-28,-5,-1,11,90,-21
18:27:06:643016,-88,-35,-36,-13,-9,-8,-27,-72
18:27:06:658612,-88,-35,-36,-13,-9,-8,-27,-72
18:27:06:659382,23,56,12,11,1,-13,-123,11
18:27:06:665388,3,37,28,7,-1,9,7,55
18:27:06:673613,3,37,28,7,-1,9,7,55
18:27:06:674385,-26,-2,43,23,2,-10,-6,3
18:27:06:688616,11,19,39,2,2,0,-31,1
18:27:06:689381,11,19,39,2,2,0,-31,1
18:27:06:695423,7,-29,-19,-2,-9,-5,-9,5
18:27:06:702868,-15,9,-25,-12,-3,-11,-89,12
18:27:06:710502,-15,9,-25,-12,-3,-11,-89,12
18:27:06:717868,-37,-10,-3,4,0,4,49,-102
18:27:06:725375,4,-8,-16,-11,-4,-9,3,18
18:27:06:733683,4,-8,-16,-11,-4,-9,3,18
18:27:06:734382,5,2,-29,-25,-4,1,63,18
18:27:06:748663,36,-6,20,14,5,4,-16,-3
18:27:06:749385,36,-6,20,14,5,4,-16,-3
18:27:06:755384,12,-23,-39,-8,-4,2,28,22
18:27:06:762917,46,10,-9,-5,-2,-9,23,16
18:27:06:770512,46,10,-9,-5,-2,-9,23,16
18:27:06:777903,6,-14,-8,-1,-6,-19,-85,10
18:27:06:785372,-10,-11,-32,-13,-3,-5,9,-14
18:27:06:793637,-10,-11,-32,-13,-3,-5,9,-14
18:27:06:794495,-24,-8,7,-10,0,5,22,4
18:27:06:808638,-9,14,11,12,7,8,94,21
18:27:06:809387,-9,14,11,12,7,8,94,21
18:27:06:815453,-4,-11,-14,-5,2,-1,-26,2
18:27:06:822881,-16,-1,14,-2,-10,17,46,-15
18:27:06:830539,-16,-1,14,-2,-10,17,46,-15
18:27:06:837867,-12,18,3,7,3,1,-29,28
18:27:06:845380,-47,24,-44,-13,-1,-7,-41,-24
18:27:06:853619,-47,24,-44,-13,-1,-7,-41,-24
18:27:06:854510,-17,18,31,-2,0,4,-2,-17
18:27:06:868634,39,-60,8,-7,-9,-4,-20,14
18:27:06:869484,39,-60,8,-7,-9,-4,-20,14
18:27:06:875375,-66,1,29,14,12,6,30,8
18:27:06:882886,-11,5,16,17,0,6,-3,10
18:27:06:890487,-11,5,16,17,0,6,-3,10
18:27:06:897917,31,27,6,-3,-8,7,49,30
18:27:06:905371,-46,-24,-26,-1,-3,-14,-71,-48
18:27:06:913667,-46,-24,-26,-1,-3,-14,-71,-48
18:27:06:914389,19,0,-4,12,7,17,-11,63
18:27:06:928640,0,8,-3,-1,-1,18,-19,-15
18:27:06:929518,0,8,-3,-1,-1,18,-19,-15
18:27:06:935422,24,-7,9,-5,-4,-7,-20,-27
18:27:06:942901,35,49,52,4,0,-9,-33,10
18:27:06:958652,35,49,52,4,0,-9,-33,10
18:27:06:959523,-31,-52,0,-14,-7,-11,-28,-16
18:27:06:965409,38,41,-1,8,8,-1,12,-2
18:27:06:973636,38,41,-1,8,8,-1,12,-2
18:27:06:974531,37,20,8,5,-4,-14,12,-82
18:27:06:988662,6,2,4,-3,-5,-11,-27,-55
18:27:06:989518,6,2,4,-3,-5,-11,-27,-55
18:27:06:995391,37,50,-12,-6,5,-5,-40,18
18:27:07:2903,67,58,-1,-8,3,3,-4,-5
18:27:07:10539,67,58,-1,-8,3,3,-4,-5
18:27:07:17896,-39,-12,21,18,-1,-10,-39,-51
18:27:07:25371,29,-21,-7,5,-3,4,61,58
18:27:07:33640,29,-21,-7,5,-3,4,61,58
18:27:07:34366,-41,-20,29,17,4,-4,44,17
18:27:07:48659,-79,-38,-41,-8,4,2,50,55
18:27:07:49372,-79,-38,-41,-8,4,2,50,55
18:27:07:55367,103,18,-25,-11,-5,1,2,45
18:27:07:62876,-15,13,-15,-9,0,6,40,-5
18:27:07:70506,-15,13,-15,-9,0,6,40,-5
18:27:07:77893,2,-8,-10,-8,-8,0,50,-11
18:27:07:85385,5,-7,-25,-3,-1,-2,-45,-37
18:27:07:93670,5,-7,-25,-3,-1,-2,-45,-37
18:27:07:94410,-65,-42,-20,-2,1,4,11,-28
18:27:07:108620,-80,-10,29,-1,-4,-7,-5,-7
18:27:07:109365,-80,-10,29,-1,-4,-7,-5,-7
18:27:07:115505,-42,-35,-3,1,1,-7,-95,-2
18:27:07:122862,-12,-11,-8,-5,-6,-4,-4,3
18:27:07:130552,-12,-11,-8,-5,-6,-4,-4,3
18:27:07:137915,-1,3,3,-1,3,1,1,33
18:27:07:145376,1,-21,24,8,-5,-12,-66,-63
18:27:07:153648,1,-21,24,8,-5,-12,-66,-63
18:27:07:154376,50,1,7,-3,-4,-7,-39,-10
18:27:07:168658,37,12,34,9,0,7,0,50
18:27:07:169399,37,12,34,9,0,7,0,50
18:27:07:175403,18,8,13,9,2,8,30,-36
18:27:07:182901,28,20,0,4,0,10,59,24
18:27:07:190487,28,20,0,4,0,10,59,24
18:27:07:197923,10,12,-11,-8,-1,5,-3,41
18:27:07:205393,17,5,12,-14,2,-1,38,30
18:27:07:213634,17,5,12,-14,2,-1,38,30
18:27:07:214526,-13,4,-2,-9,-6,-2,-27,4
18:27:07:228653,10,10,-13,-4,3,3,-33,19
18:27:07:229362,10,10,-13,-4,3,3,-33,19
18:27:07:235391,-23,6,9,-2,-7,-12,-25,-49
18:27:07:242892,-24,40,11,1,-1,-7,-82,-95
18:27:07:250516,-24,40,11,1,-1,-7,-82,-95
18:27:07:257885,-55,-7,-8,-2,-2,16,63,57
18:27:07:265450,30,-54,5,7,-6,-5,-8,41
18:27:07:273622,30,-54,5,7,-6,-5,-8,41
18:27:07:274499,23,5,1,-4,3,-4,-7,-3
18:27:07:288641,-7,-19,24,4,-7,1,104,11
18:27:07:289499,-7,-19,24,4,-7,1,104,11
18:27:07:295383,24,18,20,10,0,-10,-12,22
18:27:07:302885,-1,-48,-24,-2,4,0,-31,-25
18:27:07:310392,-1,-48,-24,-2,4,0,-31,-25
18:27:07:317891,48,9,2,-12,-5,-4,-11,-18
18:27:07:325405,28,32,-15,4,0,-4,26,33
18:27:07:333625,28,32,-15,4,0,-4,26,33
18:27:07:334365,-4,-16,-13,8,4,11,22,-61
18:27:07:348710,-22,-18,24,3,-1,0,-11,-33
18:27:07:349376,-22,-18,24,3,-1,0,-11,-33
18:27:07:355383,18,12,-18,2,0,-12,-33,32
18:27:07:362886,-25,-6,-22,-14,-2,-2,-27,21
18:27:07:370515,-25,-6,-22,-14,-2,-2,-27,21
18:27:07:377875,-28,-2,13,8,5,-8,-25,-17
18:27:07:385379,-17,-51,-32,-14,-6,-21,-74,49
18:27:07:393020,-17,-51,-32,-14,-6,-21,-74,49
18:27:07:400379,-78,-58,-10,0,5,3,54,-41
18:27:07:408647,26,24,-60,-11,0,0,31,-22
18:27:07:409388,26,24,-60,-11,0,0,31,-22
18:27:07:415460,92,-13,11,6,-2,7,-3,34
18:27:07:431183,-10,-76,-11,-2,-2,-1,-20,-9
18:27:07:431912,-10,-76,-11,-2,-2,-1,-20,-9
18:27:07:437885,47,14,16,7,-4,5,121,19
18:27:07:445385,52,-21,31,0,-5,-18,51,73
18:27:07:461149,52,-21,31,0,-5,-18,51,73
18:27:07:461921,-35,5,-5,-8,2,-9,-59,-16
18:27:07:468635,-79,41,6,0,0,-3,-37,-61
18:27:07:469374,-79,41,6,0,0,-3,-37,-61
18:27:07:475391,-38,-18,-22,-16,-11,-4,-21,7
18:27:07:491133,3,41,44,17,-5,3,11,7
18:27:07:491880,3,41,44,17,-5,3,11,7
18:27:07:497969,-12,23,-11,-11,-3,1,-103,-14
18:27:07:505382,-31,20,8,-4,-1,1,14,33
18:27:07:513031,-31,20,8,-4,-1,1,14,33
18:27:07:520370,-21,-67,-27,-8,-5,1,73,-40
18:27:07:528639,-75,-2,-13,-6,3,-3,-9,-25
18:27:07:529411,-75,-2,-13,-6,3,-3,-9,-25
18:27:07:535386,-8,9,-11,0,2,-10,-79,40
18:27:07:551138,54,-45,-19,-2,-2,-4,-10,-14
18:27:07:551885,54,-45,-19,-2,-2,-4,-10,-14
18:27:07:557891,5,19,-2,-3,6,14,80,-81
18:27:07:565384,30,5,8,-8,-3,-4,-51,-59
18:27:07:573038,30,5,8,-8,-3,-4,-51,-59
18:27:07:580403,31,-14,3,-5,-10,-11,-8,12
18:27:07:588644,1,7,11,-6,-3,1,45,-6
18:27:07:589496,1,7,11,-6,-3,1,45,-6
18:27:07:595424,38,-61,-18,-10,-8,19,109,14
18:27:07:611164,40,21,-12,11,7,8,-39,47
18:27:07:611880,40,21,-12,11,7,8,-39,47
18:27:07:617897,-23,15,-34,-14,-8,2,-7,27
18:27:07:625422,-6,-32,2,-2,0,6,73,46
18:27:07:633021,-6,-32,2,-2,0,6,73,46
18:27:07:640382,10,31,38,14,10,3,-23,20
18:27:07:648666,-23,51,15,5,3,23,94,-31
18:27:07:649404,-23,51,15,5,3,23,94,-31
18:27:07:662900,-20,3,5,3,4,-5,2,36
18:27:07:671136,-5,-76,-6,-1,2,-6,-55,-8
18:27:07:671990,-5,-76,-6,-1,2,-6,-55,-8
18:27:07:677964,24,15,-3,-7,-5,4,-29,5
18:27:07:685414,2,26,19,8,9,3,-11,8
18:27:07:692882,2,26,19,8,9,3,-11,8
18:27:07:700433,6,52,20,1,-5,-15,-6,-69
18:27:07:707874,-14,14,-38,-16,-11,6,5,-23
18:27:07:716188,-14,14,-38,-16,-11,6,5,-23
18:27:07:716942,22,15,-10,-2,-3,-9,-29,41
18:27:07:731190,85,-16,4,-2,-9,-8,-53,7
18:27:07:731893,85,-16,4,-2,-9,-8,-53,7
18:27:07:737877,-77,-21,-18,-11,1,-6,-51,-15
18:27:07:745402,-10,30,-6,1,-1,-17,-5,24
18:27:07:753001,-10,30,-6,1,-1,-17,-5,24
18:27:07:760362,92,33,-10,-3,-3,12,73,29
18:27:07:768659,-9,12,-5,-10,-5,-5,-4,20
18:27:07:769396,-9,12,-5,-10,-5,-5,-4,20
18:27:07:775391,2,-16,26,9,9,-5,-42,48
18:27:07:791158,20,-11,10,1,0,-7,2,-18
18:27:07:791894,20,-11,10,1,0,-7,2,-18
18:27:07:797888,-10,-12,2,4,-4,11,22,-71
18:27:07:805462,-18,10,13,10,2,2,30,-65
18:27:07:813046,-18,10,13,10,2,2,30,-65
18:27:07:820402,4,21,-9,2,0,-9,16,45
18:27:07:828650,15,-51,-24,-10,-2,-2,-57,15
18:27:07:829459,15,-51,-24,-10,-2,-2,-57,15
18:27:07:835413,28,-44,-75,-13,-3,-11,-61,11
18:27:07:851158,23,61,2,-1,-3,2,-19,57
18:27:07:851897,23,61,2,-1,-3,2,-19,57
18:27:07:857905,-35,12,59,19,9,-1,6,-74
18:27:07:865393,24,-45,-39,-17,-15,-18,-46,-72
18:27:07:873029,24,-45,-39,-17,-15,-18,-46,-72
18:27:07:880419,-38,1,6,7,10,29,53,0
18:27:07:888617,-44,5,9,9,5,14,-20,-80
18:27:07:889504,-44,5,9,9,5,14,-20,-80
18:27:07:895386,-22,-29,-49,-27,-16,-23,-56,-4
18:27:07:911768,12,18,16,16,6,-6,-39,49
18:27:07:912639,12,18,16,16,6,-6,-39,49
18:27:07:917907,35,8,27,11,0,2,31,19
18:27:07:925397,20,10,27,-2,2,19,56,67
18:27:07:933034,20,10,27,-2,2,19,56,67
18:27:07:940381,17,8,24,6,-4,1,-25,18
18:27:07:948646,-37,29,-5,-3,0,-3,82,9
18:27:07:949386,-37,29,-5,-3,0,-3,82,9
18:27:07:955469,-20,12,-39,-19,-11,-10,-45,31
18:27:07:971137,-12,-19,10,5,4,2,-4,19
18:27:07:971999,-12,-19,10,5,4,2,-4,19
18:27:07:977914,17,-23,-3,9,1,0,-21,-23
18:27:07:985388,-3,-19,-32,0,2,-1,-26,-2
18:27:07:992893,-3,-19,-32,0,2,-1,-26,-2
18:27:08:410,11,19,9,1,-4,-9,-28,4
18:27:08:7886,14,-25,-20,-5,2,-6,-14,14
18:27:08:16147,14,-25,-20,-5,2,-6,-14,14
18:27:08:16891,-24,-11,-13,-6,0,-5,3,17
18:27:08:31261,-5,3,16,-1,-6,9,104,-19
18:27:08:32000,-5,3,16,-1,-6,9,104,-19
18:27:08:37917,-29,10,46,12,1,-2,-37,-39
18:27:08:45405,-68,-26,2,3,-5,-10,-70,8
18:27:08:53011,-68,-26,2,3,-5,-10,-70,8
18:27:08:60369,6,-24,-18,3,6,20,13,-12
18:27:08:67879,22,-16,8,5,7,3,-5,40
18:27:08:76160,22,-16,8,5,7,3,-5,40
18:27:08:76895,4,-14,-42,-10,-6,-9,17,10
18:27:08:91533,6,19,-17,-6,0,0,-14,1
18:27:08:98664,6,19,-17,-6,0,0,-14,1
18:27:08:99396,5,16,-1,-6,4,-4,50,-62
18:27:08:113625,-50,9,25,2,-4,-5,50,-70
18:27:08:114389,-50,9,25,2,-4,-5,50,-70
18:27:08:120405,-6,-30,43,3,-2,-15,27,38
18:27:08:127932,93,-24,-10,-13,-12,-23,-111,-15
18:27:08:136143,93,-24,-10,-13,-12,-23,-111,-15
18:27:08:136887,28,0,9,5,2,17,26,19
18:27:08:151126,-23,31,-4,-3,-6,-5,115,56
18:27:08:151866,-23,31,-4,-3,-6,-5,115,56
18:27:08:157897,-18,26,10,8,0,-5,-85,-24
18:27:08:165424,9,-8,25,-8,-3,4,-23,-13
18:27:08:172993,9,-8,25,-8,-3,4,-23,-13
18:27:08:180382,-44,32,16,3,1,-1,15,21
18:27:08:187887,9,-9,-35,-6,-4,-6,-26,15
18:27:08:196151,9,-9,-35,-6,-4,-6,-26,15
18:27:08:196903,-35,-3,7,4,4,10,40,-11
18:27:08:210891,1,-17,-32,-11,-6,10,-6,18
18:27:08:218661,1,-17,-32,-11,-6,10,-6,18
18:27:08:219383,19,-25,-12,-6,-4,-8,6,14
18:27:08:225393,-52,-7,7,9,4,10,85,4
18:27:08:241135,-52,-7,7,9,4,10,85,4
18:27:08:241884,46,5,5,-2,-2,14,39,41
18:27:08:247909,29,11,28,14,11,-1,-81,22
18:27:08:256137,29,11,28,14,11,-1,-81,22
18:27:08:256863,48,-24,-25,-8,6,-4,-1,75
18:27:08:271541,-20,11,-40,-9,3,-7,-7,-23
18:27:08:278646,-20,11,-40,-9,3,-7,-7,-23
18:27:08:279407,-31,1,10,-7,-7,4,-29,13
18:27:08:285383,-16,-46,-8,-5,2,6,-2,-33
18:27:08:293002,-16,-46,-8,-5,2,6,-2,-33
18:27:08:300404,-33,23,18,3,-5,-20,-32,-2
18:27:08:307896,-2,25,-28,-14,-5,-5,-24,4
18:27:08:316132,-2,25,-28,-14,-5,-5,-24,4
18:27:08:316895,23,2,8,1,-8,-13,-4,-25
18:27:08:331159,48,80,21,3,4,4,46,44
18:27:08:331924,48,80,21,3,4,4,46,44
18:27:08:337897,10,-31,-24,-12,-8,-2,8,-27
18:27:08:354027,4,-28,16,21,-1,-5,57,-81
18:27:08:361126,4,-28,16,21,-1,-5,57,-81
18:27:08:361882,4,10,-3,-9,-2,12,103,-82
18:27:08:367895,1,0,-10,-1,-2,-12,-73,14
18:27:08:375509,1,0,-10,-1,-2,-12,-73,14
18:27:08:382896,29,-37,-9,6,1,-2,-71,12
18:27:08:391142,-10,-11,24,2,4,12,-9,21
18:27:08:391884,-10,-11,24,2,4,12,-9,21
18:27:08:397906,3,13,-8,4,1,-8,-88,1
18:27:08:413657,15,72,36,11,3,5,-9,3
18:27:08:414390,15,72,36,11,3,5,-9,3
18:27:08:420406,-5,-7,1,4,5,8,28,38
18:27:08:427887,-20,-40,-8,2,-6,-11,-51,-4
18:27:08:435551,-20,-40,-8,2,-6,-11,-51,-4
18:27:08:442926,-60,21,11,1,6,3,51,1
18:27:08:451162,-16,3,-6,-4,-4,11,39,5
18:27:08:452012,-16,3,-6,-4,-4,11,39,5
18:27:08:457913,-36,-14,-2,9,2,-5,-43,-16
18:27:08:473648,-5,-23,-20,-12,-6,-3,61,-27
18:27:08:474436,-5,-23,-20,-12,-6,-3,61,-27
18:27:08:480497,12,0,-2,-1,4,5,-34,32
18:27:08:487922,32,-2,-39,-13,-2,-2,-20,-11
18:27:08:495574,32,-2,-39,-13,-2,-2,-20,-11
18:27:08:502914,15,20,-7,-7,-7,-3,-5,-48
18:27:08:511158,-87,10,30,-1,1,4,15,-4
18:27:08:511905,-87,10,30,-1,1,4,15,-4
18:27:08:517890,-15,-9,4,3,0,-5,0,8
18:27:08:533691,-21,-9,0,-7,2,0,-40,43
18:27:08:534526,-21,-9,0,-7,2,0,-40,43
18:27:08:540386,-33,2,-18,-5,-6,-17,-70,24
18:27:08:547965,16,-23,8,7,-1,-12,-111,-47
18:27:08:555404,16,-23,8,7,-1,-12,-111,-47
18:27:08:562936,33,10,0,9,2,0,-1,-21
18:27:08:571154,-65,-46,25,7,-8,-6,-2,-14
18:27:08:571905,-65,-46,25,7,-8,-6,-2,-14
18:27:08:577910,25,-23,6,-5,-5,-7,-80,39
18:27:08:593662,118,-1,18,6,2,5,63,19
18:27:08:594406,118,-1,18,6,2,5,63,19
18:27:08:600436,-17,-34,-9,-4,-2,17,33,21
18:27:08:607911,6,7,-48,-4,-7,-4,-4,-7
18:27:08:615388,6,7,-48,-4,-7,-4,-4,-7
18:27:08:622897,48,42,12,-1,-1,1,50,6
18:27:08:631231,31,8,22,10,6,-2,-21,-49
18:27:08:631899,31,8,22,10,6,-2,-21,-49
18:27:08:637909,-32,14,-26,-5,-8,-10,37,-32
18:27:08:654028,-3,5,-8,-4,8,8,-26,64
18:27:08:661159,-3,5,-8,-4,8,8,-26,64
18:27:08:661888,82,13,3,7,6,11,-24,20
18:27:08:667893,-17,14,5,-5,3,-1,3,-41
18:27:08:675523,-17,14,5,-5,3,-1,3,-41
18:27:08:682907,-67,-42,-2,1,4,2,62,-8
18:27:08:691148,-1,-16,15,0,-1,7,19,19
18:27:08:691906,-1,-16,15,0,-1,7,19,19
18:27:08:697904,-11,14,9,-2,-3,-10,-54,-4
18:27:08:713662,32,6,60,10,2,0,39,51
18:27:08:714447,32,6,60,10,2,0,39,51
18:27:08:720425,-33,-13,-5,-12,-1,-3,5,25
18:27:08:727926,9,12,-16,-1,2,-15,-96,-22
18:27:08:735525,9,12,-16,-1,2,-15,-96,-22
18:27:08:751789,-70,-50,-23,-4,-5,-12,-62,-13
18:27:08:752636,-65,-1,-4,-10,-9,-7,-15,-62
18:27:08:753403,-65,-1,-4,-10,-9,-7,-15,-62
18:27:08:757898,81,-38,-85,-18,-2,4,42,2
18:27:08:773627,2,-22,-24,-22,-16,2,61,20
18:27:08:774409,2,-22,-24,-22,-16,2,61,20
18:27:08:780390,30,7,23,-4,-2,1,57,-69
18:27:08:787881,26,-22,-37,-5,-3,4,35,-4
18:27:08:795543,26,-22,-37,-5,-3,4,35,-4
18:27:08:811766,14,-6,20,-2,-7,-6,-17,66
18:27:08:812507,-75,-13,24,8,3,-13,-61,3
18:27:08:813395,-75,-13,24,8,3,-13,-61,3
18:27:08:817894,-92,-43,-5,-6,-10,-1,-10,1
18:27:08:834029,52,53,12,9,3,10,-11,30
18:27:08:834902,52,53,12,9,3,10,-11,30
18:27:08:840382,-4,22,-14,-2,0,-2,-81,-23
18:27:08:847982,23,-2,-25,-9,6,10,53,2
18:27:08:855547,23,-2,-25,-9,6,10,53,2
18:27:08:862944,15,38,-29,-11,3,25,123,-28
18:27:08:871141,-30,-40,-51,-2,7,7,16,-1
18:27:08:871881,-30,-40,-51,-2,7,7,16,-1
18:27:08:877904,50,37,26,8,0,4,26,0
18:27:08:893659,58,16,-13,-4,-8,-13,-62,5
18:27:08:894390,58,16,-13,-4,-8,-13,-62,5
18:27:08:900477,4,-9,24,6,-2,-12,13,11
18:27:08:907896,-2,26,13,5,-6,-27,-56,-60
18:27:08:915559,-2,26,13,5,-6,-27,-56,-60
18:27:08:922897,10,-10,-4,-7,-1,-8,-39,37
18:27:08:931234,10,-10,-4,-7,-1,-8,-39,37
18:27:08:931947,5,-25,-21,-2,-1,8,101,35
18:27:08:937910,-7,15,14,3,-4,-4,15,-27
18:27:08:953647,-7,15,14,3,-4,-4,15,-27
18:27:08:954385,11,7,5,-3,-3,-15,-108,-38
18:27:08:960396,-42,19,50,9,8,-7,-100,-32
18:27:08:976175,-42,19,50,9,8,-7,-100,-32
18:27:08:976904,8,-6,-4,-8,-6,-12,53,10
18:27:08:982900,-11,-21,9,7,3,8,34,22
18:27:08:991147,-11,-21,9,7,3,8,34,22
18:27:08:992015,-77,-5,21,9,4,6,33,-4
18:27:08:997937,23,25,1,7,3,3,-14,13
18:27:09:13691,23,25,1,7,3,3,-14,13
18:27:09:14461,88,56,-3,-3,-1,1,50,47
18:27:09:20396,11,-21,-4,-4,0,6,-2,72
18:27:09:36133,11,-21,-4,-4,0,6,-2,72
18:27:09:36896,-7,23,2,-3,-3,-18,-109,-15
18:27:09:42897,22,-3,-17,-9,-3,-16,-75,-22
18:27:09:51149,22,-3,-17,-9,-3,-16,-75,-22
18:27:09:51877,-47,-2,-5,5,7,18,48,-27
18:27:09:57905,-3,-3,2,9,-3,-2,11,-20
18:27:09:73666,-3,-3,2,9,-3,-2,11,-20
18:27:09:74396,48,62,-34,-19,-4,13,83,1
18:27:09:80412,-7,-12,-58,-17,-2,-4,-8,-33
18:27:09:96700,-7,-12,-58,-17,-2,-4,-8,-33
18:27:09:97449,-15,7,52,13,3,-5,1,-59
18:27:09:119911,-28,10,22,6,1,8,28,30
18:27:09:120770,-28,10,22,6,1,8,28,30
18:27:09:121516,37,-43,-13,1,3,-4,-35,45
18:27:09:122391,-11,15,5,13,0,-1,33,-34
18:27:09:134775,-11,15,5,13,0,-1,33,-34
18:27:09:135512,42,-34,-10,-4,-10,-15,56,32
18:27:09:140377,-16,-11,-20,-12,-1,-3,-60,20
18:27:09:164312,-16,-11,-20,-12,-1,-3,-60,20
18:27:09:165058,32,-17,7,-10,-5,-2,-23,78
18:27:09:165914,0,-19,30,8,8,-6,27,-38
18:27:09:171189,0,-19,30,8,8,-6,27,-38
18:27:09:171925,-41,-23,-29,-3,3,12,35,-41
18:27:09:177897,6,23,19,4,-4,6,-3,-64
18:27:09:193671,6,23,19,4,-4,6,-3,-64
18:27:09:194409,-13,7,28,5,-4,-7,-61,19
18:27:09:207907,28,-28,-43,-11,-4,-9,-29,15
18:27:09:216156,28,-28,-43,-11,-4,-9,-29,15
18:27:09:216943,8,3,-13,6,2,12,79,6
18:27:09:222904,4,37,0,-6,-5,-10,52,53
18:27:09:231162,4,37,0,-6,-5,-10,52,53
18:27:09:231943,-25,13,-7,-8,-6,-16,-9,20
18:27:09:237902,-42,-37,-5,1,7,28,127,8
18:27:09:253670,-42,-37,-5,1,7,28,127,8
18:27:09:254423,1,-3,-32,1,-5,-7,-98,7
18:27:09:260407,15,-5,6,-11,-13,-4,8,-60
18:27:09:276156,15,-5,6,-11,-13,-4,8,-60
18:27:09:276903,-60,24,49,15,12,12,-12,-12
18:27:09:282930,112,1,1,-3,1,-3,-80,55
18:27:09:291161,112,1,1,-3,1,-3,-80,55
18:27:09:291910,8,-64,-31,-9,-7,-4,-43,-66
18:27:09:305435,7,-41,6,-4,-7,-18,-33,27
18:27:09:313675,7,-41,6,-4,-7,-18,-33,27
18:27:09:314419,-47,1,5,4,0,-9,34,-8
18:27:09:320425,14,2,-28,-11,-9,-10,-24,-74
18:27:09:336171,14,2,-28,-11,-9,-10,-24,-74
18:27:09:336914,-21,25,16,5,2,-2,-57,15
18:27:09:342934,-11,44,18,7,-4,-9,-32,21
18:27:09:351194,-11,44,18,7,-4,-9,-32,21
18:27:09:351965,22,-18,23,-4,-1,-2,-30,-9
18:27:09:365460,26,52,10,0,3,-3,-43,11
18:27:09:373660,26,52,10,0,3,-3,-43,11
18:27:09:374426,-42,-38,19,6,-3,-3,-57,9
18:27:09:380436,-23,-53,-54,-10,5,4,-30,79
18:27:09:396576,-23,-53,-54,-10,5,4,-30,79
18:27:09:397490,16,-12,-40,-21,-11,10,79,-24
18:27:09:419291,-11,12,29,10,2,18,93,-16
18:27:09:420057,-11,12,29,10,2,18,93,-16
18:27:09:420926,-53,-2,4,7,1,7,35,3
18:27:09:442413,-36,47,16,8,-2,2,-11,18
18:27:09:443308,-36,47,16,8,-2,2,-11,18
18:27:09:444071,-11,1,8,4,5,-4,-84,-4
18:27:09:444943,-8,-40,-45,-11,1,12,4,41
18:27:09:456658,-8,-40,-45,-11,1,12,4,41
18:27:09:457396,27,29,-1,0,-5,-3,-5,22
18:27:09:462952,-3,2,13,2,-4,-10,27,-13
18:27:09:471182,-3,2,13,2,-4,-10,27,-13
18:27:09:471912,29,14,-47,-2,7,5,-36,-10
18:27:09:494303,-6,-3,25,2,-7,0,18,-31
18:27:09:495192,-6,-3,25,2,-7,0,18,-31
18:27:09:495932,80,11,11,-2,5,11,-1,27
18:27:09:501034,-14,-8,27,9,8,-8,-96,-15
18:27:09:516153,-14,-8,27,9,8,-8,-96,-15
18:27:09:516923,25,8,35,0,-5,4,36,-8
18:27:09:522923,-55,-55,-18,-5,4,-2,-27,-7
18:27:09:531169,-55,-55,-18,-5,4,-2,-27,-7
18:27:09:531906,-34,0,3,16,6,9,54,6
18:27:09:545421,-42,8,39,9,-5,-7,-14,-75
18:27:09:553652,-42,8,39,9,-5,-7,-14,-75
18:27:09:554385,-25,-16,-1,3,-6,-7,-52,-65
18:27:09:560393,14,-3,-23,-4,5,4,-4,29
18:27:09:576148,14,-3,-23,-4,5,4,-4,29
18:27:09:576908,79,15,32,7,6,9,21,65
18:27:09:582900,-11,5,37,11,5,14,51,49
18:27:09:591156,-11,5,37,11,5,14,51,49
18:27:09:591900,25,-3,-22,-20,-13,-8,71,22
18:27:09:605464,19,9,-67,-11,8,9,66,1
18:27:09:613662,19,9,-67,-11,8,9,66,1
18:27:09:614440,-56,-11,-10,-3,-5,-7,-18,-39
18:27:09:620424,27,-3,0,-5,-11,-5,42,-10
18:27:09:636160,27,-3,0,-5,-11,-5,42,-10
18:27:09:636891,-3,5,6,-5,-2,8,22,5
18:27:09:651777,1,-47,1,13,0,13,65,-35
18:27:09:652641,1,-47,1,13,0,13,65,-35
18:27:09:653388,-30,-19,20,-1,-5,-11,29,-23
18:27:09:665420,-48,31,13,-4,-8,-17,13,-65
18:27:09:673679,-48,31,13,-4,-8,-17,13,-65
18:27:09:674404,40,-36,-36,-1,5,7,-10,0
18:27:09:680394,-54,25,54,5,5,3,-3,-70
18:27:09:696689,-54,25,54,5,5,3,-3,-70
18:27:09:697404,0,-5,-4,-9,-5,-4,-35,12
18:27:09:711787,60,-4,-14,-10,-3,-10,-83,76
18:27:09:718666,60,-4,-14,-10,-3,-10,-83,76
18:27:09:719409,13,18,15,-3,1,-8,-86,1
18:27:09:734301,-3,10,6,8,4,1,-51,-37
18:27:09:735036,-3,10,6,8,4,1,-51,-37
18:27:09:735919,-15,-36,-32,-8,0,-5,-31,-27
18:27:09:740415,14,19,-31,-6,-12,3,38,23
18:27:09:764825,14,19,-31,-6,-12,3,38,23
18:27:09:765583,-50,-21,36,-1,0,-2,30,-87
18:27:09:766411,-15,4,14,-11,-8,-3,46,35
18:27:09:771153,-15,4,14,-11,-8,-3,46,35
18:27:09:771896,-2,25,23,6,3,10,62,34
18:27:09:785404,-29,5,8,5,6,3,-29,9
18:27:09:793696,-29,5,8,5,6,3,-29,9
18:27:09:794428,14,65,-11,0,-1,1,11,31
18:27:09:800407,10,-28,-25,-2,-3,-2,-21,8
18:27:09:816158,10,-28,-25,-2,-3,-2,-21,8
18:27:09:816915,21,12,-6,6,0,-2,48,19
18:27:09:822916,21,26,25,0,-1,4,45,-30
18:27:09:831176,21,26,25,0,-1,4,45,-30
18:27:09:831909,6,-13,-8,-6,0,3,-28,11
18:27:09:845448,-20,-20,7,-3,-2,-11,-49,-7
18:27:09:853672,-20,-20,7,-3,-2,-11,-49,-7
18:27:09:854407,-3,-16,-14,1,2,9,24,-2
18:27:09:860401,24,25,23,1,-3,-4,-66,16
18:27:09:876172,24,25,23,1,-3,-4,-66,16
18:27:09:876910,3,-29,-56,-11,-5,-11,-22,38
18:27:09:882916,-2,36,29,-3,1,3,47,25
18:27:09:891168,-2,36,29,-3,1,3,47,25
18:27:09:891906,-1,-19,22,4,0,-3,-25,17
18:27:09:905516,-18,-23,-17,-3,-1,-3,1,26
18:27:09:913702,-18,-23,-17,-3,-1,-3,1,26
18:27:09:914405,1,3,4,3,-8,-14,-76,0
18:27:09:920441,53,10,12,2,3,-11,-81,17
18:27:09:936184,53,10,12,2,3,-11,-81,17
18:27:09:936906,22,-2,3,3,-3,-3,4,-30
18:27:09:942890,14,19,29,-2,-1,-4,-28,-82
18:27:09:951177,14,19,29,-2,-1,-4,-28,-82
18:27:09:951922,10,-39,19,-2,-3,0,25,11
18:27:09:974286,12,-5,-40,-10,-2,15,58,19
18:27:09:975027,12,-5,-40,-10,-2,15,58,19
18:27:09:975900,-69,31,2,5,11,3,-38,-19
18:27:09:987911,3,-15,-27,-14,-10,-8,-16,8
18:27:09:996166,3,-15,-27,-14,-10,-8,-16,8
18:27:09:996909,40,14,47,8,-3,5,18,8
18:27:10:11781,-3,-4,-16,2,-1,-10,-10,27
18:27:10:12685,-3,-4,-16,2,-1,-10,-10,27
18:27:10:13431,-6,48,21,2,4,4,64,23
18:27:10:34301,20,6,-6,5,0,-1,3,11
18:27:10:35044,20,6,-6,5,0,-1,3,11
18:27:10:35920,-4,-32,-19,-3,-5,-16,-18,-36
18:27:10:40402,12,27,-22,-8,0,-2,-42,11
18:27:10:56542,12,27,-22,-8,0,-2,-42,11
18:27:10:57406,-58,-6,-19,-3,-4,-20,-112,-94
18:27:10:62908,-45,-33,13,9,3,6,46,1
18:27:10:71150,-45,-33,13,9,3,6,46,1
18:27:10:71889,-34,-19,-45,-17,-3,1,54,4
18:27:10:85422,23,9,28,7,-3,0,-111,23
18:27:10:93675,23,9,28,7,-3,0,-111,23
18:27:10:94418,59,13,41,8,12,7,-7,-31
18:27:10:100414,-52,-58,-11,2,2,-12,2,0
18:27:10:116177,-52,-58,-11,2,2,-12,2,0
18:27:10:116951,25,12,-37,-16,-5,-11,-35,41
18:27:10:122926,32,6,-26,-2,3,1,62,-12
18:27:10:138665,32,6,-26,-2,3,1,62,-12
18:27:10:139402,-17,-40,-5,-2,0,4,11,16
18:27:10:145455,-57,15,-8,-5,-5,-4,69,-6
18:27:10:153683,-57,15,-8,-5,-5,-4,69,-6
18:27:10:154404,7,8,0,-10,-2,3,33,77
18:27:10:160412,68,25,38,5,-4,8,105,-36
18:27:10:176160,68,25,38,5,-4,8,105,-36
18:27:10:176888,33,34,-10,0,-1,4,38,3
18:27:10:182932,2,7,-19,-5,10,4,39,11
18:27:10:191149,2,7,-19,-5,10,4,39,11
18:27:10:191910,9,-5,32,1,-11,-1,22,2
18:27:10:205408,-32,8,25,17,-2,-6,-71,-44
18:27:10:213702,-32,8,25,17,-2,-6,-71,-44
18:27:10:214423,-56,7,-3,-2,-3,8,-29,-36
18:27:10:220441,-3,-41,-81,-27,-7,1,-18,-4
18:27:10:236177,-3,-41,-81,-27,-7,1,-18,-4
18:27:10:236913,-50,13,16,6,4,0,-23,-22
18:27:10:242917,-1,-69,-92,-35,-6,-1,-27,27
18:27:10:250547,-1,-69,-92,-35,-6,-1,-27,27
18:27:10:257932,16,-1,-47,-8,-6,21,123,-3
18:27:10:265497,-33,6,51,16,13,8,-49,22
18:27:10:273671,-33,6,51,16,13,8,-49,22
18:27:10:274433,-12,-4,10,1,1,4,4,56
18:27:10:296797,-25,24,-15,-1,-4,-9,-5,30
18:27:10:297727,-25,24,-15,-1,-4,-9,-5,30
18:27:10:298501,-3,-12,-3,3,2,-7,-11,-21
18:27:10:302961,33,31,52,19,-4,-9,-48,27
18:27:10:310541,33,31,52,19,-4,-9,-48,27
18:27:10:317940,21,-13,14,-9,-3,-11,50,40
18:27:10:334294,41,-9,4,-7,-10,18,77,-55
18:27:10:335157,41,-9,4,-7,-10,18,77,-55
18:27:10:335921,-34,34,38,12,1,-7,-64,-81
18:27:10:347966,28,-56,-19,12,8,-5,-7,36
18:27:10:356167,28,-56,-19,12,8,-5,-7,36
18:27:10:356913,52,-5,15,-1,-7,-12,11,14
18:27:10:362990,13,-13,45,-2,-11,-3,-14,-14
18:27:10:370410,13,-13,45,-2,-11,-3,-14,-14
18:27:10:377974,27,18,8,22,15,-6,-81,15
18:27:10:385405,0,1,-21,-9,-12,-10,-7,-49
18:27:10:393688,0,1,-21,-9,-12,-10,-7,-49
18:27:10:394430,-26,-3,-68,-20,-3,2,-55,-7
18:27:10:407914,4,-19,-54,-3,-2,3,22,-9
18:27:10:416148,4,-19,-54,-3,-2,3,22,-9
18:27:10:416929,7,-55,-14,4,6,17,81,38
18:27:10:422939,14,19,35,0,-1,-4,-34,-40
18:27:10:430587,14,19,35,0,-1,-4,-34,-40
18:27:10:437924,41,-18,-24,-6,-7,-7,-41,31
18:27:10:445443,9,-3,30,10,2,-10,-23,-62
18:27:10:453676,9,-3,30,10,2,-10,-23,-62
18:27:10:454420,-61,12,-39,-6,-6,1,49,17
18:27:10:467913,-2,27,3,-5,-3,17,101,35
18:27:10:476194,-2,27,3,-5,-3,17,101,35
18:27:10:476919,-8,4,48,8,3,-4,-27,-12
18:27:10:482913,-97,18,48,0,-1,1,55,-45
18:27:10:490539,-97,18,48,0,-1,1,55,-45
18:27:10:497931,-1,26,-11,-5,2,14,40,-73
18:27:10:505427,23,-20,25,-6,-3,6,-37,28
18:27:10:513655,23,-20,25,-6,-3,6,-37,28
18:27:10:514400,21,15,2,-2,-5,-14,-50,-6
18:27:10:527904,23,-4,-95,-7,-6,-15,35,40
18:27:10:536168,23,-4,-95,-7,-6,-15,35,40
18:27:10:536913,-17,-3,9,1,1,4,-75,1
18:27:10:542923,-6,32,13,6,8,-14,-26,26
18:27:10:550415,-6,32,13,6,8,-14,-26,26
18:27:10:557892,7,-16,3,-7,-7,3,77,36
18:27:10:565454,-19,89,28,10,17,9,-41,9
18:27:10:573656,-19,89,28,10,17,9,-41,9
18:27:10:574398,0,-22,-48,-6,2,-7,-31,-5
18:27:10:587914,96,-36,-26,-1,11,11,64,-53
18:27:10:596192,96,-36,-26,-1,11,11,64,-53
18:27:10:596916,7,25,40,4,-4,-2,-8,31
18:27:10:602914,-2,7,6,10,-1,-14,-75,-7
18:27:10:610431,-2,7,6,10,-1,-14,-75,-7
18:27:10:617952,-37,-29,-17,0,1,0,22,-23
18:27:10:634298,18,16,-3,-8,4,19,23,33
18:27:10:635046,18,16,-3,-8,4,19,23,33
18:27:10:635909,-20,-16,5,9,13,14,68,-72
18:27:10:648496,-12,-40,-6,-6,-12,-4,9,51
18:27:10:656158,-12,-40,-6,-6,-12,-4,9,51
18:27:10:656910,23,27,19,-2,-7,-5,-8,8
18:27:10:662944,-34,-31,-8,-6,-2,-6,-38,-31
18:27:10:670463,-34,-31,-8,-6,-2,-6,-38,-31
18:27:10:677947,47,4,25,2,0,3,7,47
18:27:10:685449,11,6,-29,-20,-9,-9,78,0
18:27:10:693682,11,6,-29,-20,-9,-9,78,0
18:27:10:694424,17,-44,-26,0,-11,-2,17,-27
18:27:10:707927,-2,-20,12,4,0,12,-36,-47
18:27:10:716202,-2,-20,12,4,0,12,-36,-47
18:27:10:716944,10,-25,-1,-3,-1,4,-7,27
18:27:10:722937,-27,-27,8,3,2,-16,-66,-6
18:27:10:730474,-27,-27,8,3,2,-16,-66,-6
18:27:10:737908,-30,8,-10,-8,-16,-14,64,-71
18:27:10:745477,-46,40,7,0,5,2,-53,33
18:27:10:753684,-46,40,7,0,5,2,-53,33
18:27:10:754434,42,-12,-52,-24,-7,-11,-22,38
18:27:10:767920,-5,-20,-50,-15,-6,-4,-70,-22
18:27:10:776160,-5,-20,-50,-15,-6,-4,-70,-22
18:27:10:776908,-28,61,17,5,-2,-8,-66,-34
18:27:10:782917,9,-92,13,6,3,-9,-20,64
18:27:10:790534,9,-92,13,6,3,-9,-20,64
18:27:10:797913,13,14,21,8,5,-1,-51,56
18:27:10:805431,6,-3,-21,-5,-8,-3,27,-81
18:27:10:813689,6,-3,-21,-5,-8,-3,27,-81
18:27:10:814451,15,-15,-1,-8,-1,1,0,25
18:27:10:827937,-1,25,22,-2,-1,-1,-13,51
18:27:10:836166,-1,25,22,-2,-1,-1,-13,51
18:27:10:836920,27,21,-40,-2,-7,8,-38,-52
18:27:10:842928,36,46,23,8,2,-9,-33,14
18:27:10:850538,36,46,23,8,2,-9,-33,14
18:27:10:857935,35,-24,56,12,0,-3,11,60
18:27:10:865466,52,3,5,-5,-7,2,16,-2
18:27:10:873627,52,3,5,-5,-7,2,16,-2
18:27:10:874433,-7,24,3,1,10,9,46,19
18:27:10:888418,-68,-26,-4,1,1,3,-14,22
18:27:10:896192,-68,-26,-4,1,1,3,-14,22
18:27:10:896929,-20,0,-73,-21,-5,-7,22,-2
18:27:10:902921,-35,-1,11,4,-1,-4,32,46
18:27:10:910451,-35,-1,11,4,-1,-4,32,46
18:27:10:917919,-76,-3,35,10,8,-5,-41,-1
18:27:10:925439,2,-1,17,-4,-10,-3,31,-28
18:27:10:933686,2,-1,17,-4,-10,-3,31,-28
18:27:10:934423,-2,-11,5,-2,0,2,50,-25
18:27:10:947917,6,28,10,-5,0,4,0,-48
18:27:10:956148,6,28,10,-5,0,4,0,-48
18:27:10:956897,-3,-17,8,-4,-5,-13,-72,-15
18:27:10:962951,-71,12,15,-3,-6,3,27,9
18:27:10:970420,-71,12,15,-3,-6,3,27,9
18:27:10:977962,18,5,14,7,-8,-11,-59,-43
18:27:10:985440,12,2,2,15,15,12,21,7
18:27:10:993671,12,2,2,15,15,12,21,7
18:27:10:994416,-61,-11,-14,-6,-9,-8,71,41
18:27:11:7917,49,-27,-12,3,4,-12,-57,30
18:27:11:16192,49,-27,-12,3,4,-12,-57,30
18:27:11:16937,68,43,22,-1,-1,-5,10,55
18:27:11:22915,-10,12,28,10,-1,10,2,13
18:27:11:30421,-10,12,28,10,-1,10,2,13
18:27:11:37945,-24,-3,22,2,0,9,7,17
18:27:11:45460,43,37,21,1,-2,-1,-87,-6
18:27:11:53685,43,37,21,1,-2,-1,-87,-6
18:27:11:54413,-49,-31,-19,3,14,5,76,-9
18:27:11:67925,-13,-8,24,14,-2,3,-21,5
18:27:11:76160,-13,-8,24,14,-2,3,-21,5
18:27:11:76916,-16,-17,11,-3,7,3,-8,44
18:27:11:82914,-10,10,-33,-4,-7,-14,11,-7
18:27:11:90420,-10,10,-33,-4,-7,-14,11,-7
18:27:11:97958,18,-9,30,3,3,3,-26,5
18:27:11:105428,21,-63,-69,-15,-6,-8,15,2
18:27:11:113686,21,-63,-69,-15,-6,-8,15,2
18:27:11:114435,16,19,3,8,8,11,-20,-50
18:27:11:127917,-55,-5,-13,-13,-5,6,95,-8
18:27:11:135925,-55,-5,-13,-13,-5,6,95,-8
18:27:11:143552,-37,2,11,8,-5,-4,-19,28
18:27:11:144429,28,52,19,1,11,2,-64,34
18:27:11:150548,28,52,19,1,11,2,-64,34
18:27:11:166066,17,21,0,1,-2,-8,-20,-23
18:27:11:166941,8,23,-23,-9,1,-3,5,9
18:27:11:173050,8,23,-23,-9,1,-3,5,9
18:27:11:180429,38,9,-62,-2,-6,9,69,32
18:27:11:187918,0,30,51,14,10,1,12,-21
18:27:11:196077,0,30,51,14,10,1,12,-21
18:27:11:196928,34,-8,-6,-11,-9,0,33,-48
18:27:11:211171,59,-37,-23,-11,-7,-3,-39,29
18:27:11:211905,59,-37,-23,-11,-7,-3,-39,29
18:27:11:217918,10,4,-5,-7,-3,-3,29,40
18:27:11:225435,-26,7,46,5,5,15,17,-4
18:27:11:232921,-26,7,46,5,5,15,17,-4
18:27:11:240440,3,-3,14,-4,-2,-10,-79,-79
18:27:11:247930,2,-20,15,10,0,-6,22,20
18:27:11:256175,2,-20,15,10,0,-6,22,20
18:27:11:256916,-69,-26,-34,-12,-7,-5,-52,-36
18:27:11:271068,-14,-22,-15,3,-4,3,27,-1
18:27:11:271932,-14,-22,-15,3,-4,3,27,-1
18:27:11:277919,36,-11,-14,6,1,-9,-35,-3
18:27:11:285437,4,-34,-23,-15,-8,-3,-7,6
18:27:11:292930,4,-34,-23,-15,-8,-3,-7,6
18:27:11:300418,12,-6,-2,-1,-3,-4,12,57
18:27:11:307924,16,-4,-44,-8,-3,0,36,5
18:27:11:316173,16,-4,-44,-8,-3,0,36,5
18:27:11:316937,-11,29,35,-2,-3,7,-9,-73
18:27:11:331092,36,0,3,-4,-5,-24,-23,44
18:27:11:331961,36,0,3,-4,-5,-24,-23,44
18:27:11:337936,-8,-5,-5,-1,5,8,12,58
18:27:11:345467,-39,-11,-59,-28,-4,10,9,-57
18:27:11:352929,-39,-11,-59,-28,-4,10,9,-57
18:27:11:360420,-5,-6,5,-2,5,4,23,35
18:27:11:367938,52,58,32,8,-11,-20,-103,-90
18:27:11:376170,52,58,32,8,-11,-20,-103,-90
18:27:11:376911,-10,-37,0,1,3,6,2,9
18:27:11:391183,-37,8,1,5,8,-3,-29,37
18:27:11:391915,-37,8,1,5,8,-3,-29,37
18:27:11:397959,6,-14,-3,11,8,2,7,-30
18:27:11:405465,8,-4,-6,1,6,6,32,7
18:27:11:413064,8,-4,-6,1,6,6,32,7
18:27:11:420434,-17,-7,-35,-18,-7,-17,17,51
18:27:11:427962,-8,8,35,8,2,-3,-12,48
18:27:11:443698,-8,8,35,8,2,-3,-12,48
18:27:11:444445,-16,-19,-5,-10,-12,-4,-26,76
18:27:11:451184,24,29,5,4,2,5,6,-23
18:27:11:451922,24,29,5,4,2,5,6,-23
18:27:11:457949,5,-22,15,3,-1,-8,-44,-32
18:27:11:465486,8,-60,-21,2,-3,5,17,2
18:27:11:472922,8,-60,-21,2,-3,5,17,2
18:27:11:480454,-5,44,-7,-5,1,-2,-50,-66
18:27:11:487944,-41,2,10,-3,-8,7,56,-32
18:27:11:496209,-41,2,10,-3,-8,7,56,-32
18:27:11:496934,15,-22,-21,-4,-8,4,53,-13
18:27:11:511050,-6,11,-35,-7,-5,-26,-49,24
18:27:11:511923,-6,11,-35,-7,-5,-26,-49,24
18:27:11:517921,22,49,7,-3,7,-1,75,46
18:27:11:525406,-33,3,29,3,-1,3,67,24
18:27:11:532915,-33,3,29,3,-1,3,67,24
18:27:11:540450,13,3,23,8,-2,-6,-25,59
18:27:11:548011,35,14,-4,1,-1,9,37,53
18:27:11:556186,35,14,-4,1,-1,9,37,53
18:27:11:556961,19,-59,-36,-9,4,18,84,-24
18:27:11:571052,-11,-26,-1,-8,-1,-3,1,29
18:27:11:571900,-11,-26,-1,-8,-1,-3,1,29
18:27:11:577940,0,29,-5,1,3,-6,-14,-64
18:27:11:585444,28,47,23,9,5,0,-20,-35
18:27:11:592941,28,47,23,9,5,0,-20,-35
18:27:11:600497,-2,56,35,11,-1,-4,-16,28
18:27:11:607929,30,11,24,-2,-15,-1,41,2
18:27:11:616181,30,11,24,-2,-15,-1,41,2
18:27:11:616943,-82,-39,-10,-4,-1,-6,-77,-29
18:27:11:631076,-22,9,-13,-2,3,-5,-69,-8
18:27:11:631932,-22,9,-13,-2,3,-5,-69,-8
18:27:11:637925,14,-16,-6,-2,-3,-1,-25,62
18:27:11:645421,23,-11,-33,7,8,0,-45,-10
18:27:11:652934,23,-11,-33,7,8,0,-45,-10
18:27:11:660468,-20,-17,29,5,-1,-8,-5,-6
18:27:11:667948,-6,-24,6,1,3,12,-36,17
18:27:11:676184,-6,-24,6,1,3,12,-36,17
18:27:11:676930,-42,-33,-32,-4,-8,0,-61,-67
18:27:11:691194,-101,-16,-29,-10,-6,0,39,-23
18:27:11:691931,-101,-16,-29,-10,-6,0,39,-23
18:27:11:697961,18,46,0,3,3,10,-1,-11
18:27:11:705438,-5,-7,8,-3,0,7,29,-44
18:27:11:713041,-5,-7,8,-3,0,7,29,-44
18:27:11:720440,12,3,14,-4,-6,-17,-41,39
18:27:11:727947,-35,-16,-30,-11,0,-14,-71,14
18:27:11:736066,-35,-16,-30,-11,0,-14,-71,14
18:27:11:736930,39,2,31,8,-3,-26,-86,-13
18:27:11:751178,52,-11,21,3,0,-4,50,-13
18:27:11:751916,52,-11,21,3,0,-4,50,-13
18:27:11:757911,36,-56,-8,-3,0,-2,-9,-46
18:27:11:765435,7,-13,18,1,4,-6,-71,-19
18:27:11:772932,7,-13,18,1,4,-6,-71,-19
18:27:11:780461,-22,35,31,12,-1,11,56,27
18:27:11:787925,16,-21,9,-3,-1,0,35,-34
18:27:11:796173,16,-21,9,-3,-1,0,35,-34
18:27:11:796951,36,0,-13,-8,-2,-8,-44,-7
18:27:11:811099,14,19,4,-4,0,7,8,75
18:27:11:811960,14,19,4,-4,0,7,8,75
18:27:11:817918,7,65,17,3,3,3,-65,-2
18:27:11:825427,-6,-20,-25,0,-2,-11,-48,-4
18:27:11:832941,-6,-20,-25,0,-2,-11,-48,-4
18:27:11:840440,-27,-7,-4,-4,-6,9,37,34
18:27:11:847930,-37,51,-6,-6,-9,5,107,-26
18:27:11:856202,-37,51,-6,-6,-9,5,107,-26
18:27:11:856929,-67,-60,-40,-11,-8,-6,14,20
18:27:11:871064,30,6,7,2,0,-13,-73,-100
18:27:11:871942,30,6,7,2,0,-13,-73,-100
18:27:11:877945,-93,0,-11,0,-3,-4,13,9
18:27:11:885444,-39,-14,-46,-19,-4,-10,33,37
18:27:11:892935,-39,-14,-46,-19,-4,-10,33,37
18:27:11:900435,68,62,14,6,7,-6,-65,-55
18:27:11:907946,19,-4,-34,2,14,10,40,37
18:27:11:916203,19,-4,-34,2,14,10,40,37
18:27:11:917008,50,-43,-9,0,-4,-3,55,-65
18:27:11:931199,22,17,16,6,-3,0,-54,30
18:27:11:931942,22,17,16,6,-3,0,-54,30
18:27:11:937961,-79,-13,9,1,4,9,-33,-25
18:27:11:945457,42,1,19,3,-5,5,10,31
18:27:11:952934,42,1,19,3,-5,5,10,31
18:27:11:960440,86,-3,5,1,6,11,58,-8
18:27:11:967931,-12,4,16,-3,-5,4,-7,4
18:27:11:976183,-12,4,16,-3,-5,4,-7,4
18:27:11:976934,1,35,32,9,-5,-2,13,10
18:27:11:991172,2,9,1,1,-3,0,93,-40
18:27:11:991923,2,9,1,1,-3,0,93,-40
18:27:11:997923,-31,-34,-17,-13,-9,1,98,32
18:27:12:5436,-32,28,1,-2,0,-6,-22,-47
18:27:12:13060,-32,28,1,-2,0,-6,-22,-47
18:27:12:20443,37,39,-58,-30,-9,-14,-86,32
18:27:12:27960,2,13,32,8,4,19,20,6
18:27:12:35933,2,13,32,8,4,19,20,6
18:27:12:42927,10,-15,23,7,1,2,-9,13
18:27:12:51061,-35,-15,-70,-21,-13,-16,-12,2
18:27:12:51929,-35,-15,-70,-21,-13,-16,-12,2
18:27:12:57934,-15,-2,-30,-4,-4,-12,-54,-69
18:27:12:65477,-15,-21,14,9,3,-4,-1,27
18:27:12:72944,-15,-21,14,9,3,-4,-1,27
18:27:12:80439,-8,5,-65,-19,1,-1,-31,-39
18:27:12:87961,24,32,53,13,-2,-9,-104,55
18:27:12:96212,24,32,53,13,-2,-9,-104,55
18:27:12:96951,15,-27,41,16,6,8,36,-38
18:27:12:111071,33,36,5,11,13,1,-28,53
18:27:12:111943,33,36,5,11,13,1,-28,53
18:27:12:117933,-28,-27,-22,-7,-11,-3,-30,17
18:27:12:133623,38,-27,0,-2,-6,-9,-9,12
18:27:12:134427,38,-27,0,-2,-6,-9,-9,12
18:27:12:140444,30,24,20,10,8,-9,-20,91
18:27:12:147941,-57,-11,-45,-15,-4,3,10,-48
18:27:12:155429,-57,-11,-45,-15,-4,3,10,-48
18:27:12:162935,-5,-8,-3,3,1,6,55,24
18:27:12:171190,-24,-21,-1,-4,7,24,77,-21
18:27:12:171933,-24,-21,-1,-4,7,24,77,-21
18:27:12:177937,9,10,3,-5,0,5,5,21
18:27:12:193548,-10,-15,-39,-11,-14,-6,39,-55
18:27:12:194469,-10,-15,-39,-11,-14,-6,39,-55
18:27:12:200467,8,-2,39,8,5,13,108,-6
18:27:12:207963,-15,-81,-48,-8,-2,-7,-54,36
18:27:12:215490,-15,-81,-48,-8,-2,-7,-54,36
18:27:12:222949,15,20,8,-1,2,1,-22,-19
18:27:12:231176,3,32,24,-2,-7,-19,-80,-71
18:27:12:231978,3,32,24,-2,-7,-19,-80,-71
18:27:12:237933,-62,7,12,9,7,10,68,-21
18:27:12:253708,31,14,12,3,0,-5,-56,-6
18:27:12:254449,31,14,12,3,0,-5,-56,-6
18:27:12:260420,-64,-25,-67,-10,-7,-7,-50,-79
18:27:12:267935,9,0,44,1,6,10,52,-2
18:27:12:275540,9,0,44,1,6,10,52,-2
18:27:12:282939,-15,-8,-2,3,-5,-10,2,32
18:27:12:291058,-43,-5,1,-5,-5,-8,-50,20
18:27:12:291939,-43,-5,1,-5,-5,-8,-50,20
18:27:12:297920,-2,29,17,11,9,0,-69,42
18:27:12:313573,33,7,29,13,-1,-6,-32,-16
18:27:12:314503,33,7,29,13,-1,-6,-32,-16
18:27:12:328565,-22,-73,-53,-16,-4,-7,-55,-19
18:27:12:329459,-1,25,11,5,3,8,43,50
18:27:12:335440,-1,25,11,5,3,8,43,50
18:27:12:342940,-13,16,36,13,3,0,21,7
18:27:12:351060,3,-2,16,-6,-6,4,40,-20
18:27:12:351925,3,-2,16,-6,-6,4,40,-20
18:27:12:357919,67,22,16,-4,-8,10,77,-83
18:27:12:373678,82,0,-16,0,-6,-10,18,7
18:27:12:374421,82,0,-16,0,-6,-10,18,7
18:27:12:380483,31,37,29,0,7,22,45,44
18:27:12:387934,36,11,-5,1,11,22,31,-23
18:27:12:395565,36,11,-5,1,11,22,31,-23
18:27:12:402941,8,-5,29,12,3,0,-10,10
18:27:12:411095,-32,1,-16,-14,-9,-2,12,42
18:27:12:411988,-32,1,-16,-14,-9,-2,12,42
18:27:12:417934,-31,-13,-7,-8,-4,-6,-3,-20
18:27:12:433560,-31,-11,18,8,2,-13,-62,49
18:27:12:434441,-31,-11,18,8,2,-13,-62,49
18:27:12:440431,45,28,24,-3,-1,-10,10,6
18:27:12:447995,-16,-18,15,12,4,1,8,-19
18:27:12:455421,-16,-18,15,12,4,1,8,-19
18:27:12:462943,21,-61,-1,1,-7,-4,-33,69
18:27:12:471079,-28,-35,32,13,4,-4,-3,-15
18:27:12:471942,-28,-35,32,13,4,-4,-3,-15
18:27:12:477955,-23,-9,-27,-14,-4,-4,-25,13
18:27:12:493557,57,7,-2,0,-7,-8,-42,4
18:27:12:494423,57,7,-2,0,-7,-8,-42,4
18:27:12:500444,1,-7,-14,-4,-2,8,38,-34
18:27:12:507928,32,3,-27,-7,0,-1,-15,16
18:27:12:523615,32,3,-27,-7,0,-1,-15,16
18:27:12:524426,-19,-1,32,10,3,-7,-73,-74
18:27:12:531064,-74,-3,7,6,-2,-2,23,-80
18:27:12:531943,-74,-3,7,6,-2,-2,23,-80
18:27:12:537929,21,7,-5,-6,4,8,36,42
18:27:12:553550,-8,-17,4,4,0,2,36,26
18:27:12:554439,-8,-17,4,4,0,2,36,26
18:27:12:560448,-29,26,9,-2,-1,-19,-95,-37
18:27:12:576061,-15,-4,-22,-15,-10,3,-60,-24
18:27:12:576962,-15,-4,-22,-15,-10,3,-60,-24
18:27:12:582932,51,15,-2,4,10,5,6,27
18:27:12:591059,-22,7,19,-8,-1,-6,31,-5
18:27:12:591934,-22,7,19,-8,-1,-6,31,-5
18:27:12:597933,36,6,52,4,-5,-8,-12,32
18:27:12:613589,-18,15,-12,-3,3,6,19,14
18:27:12:614437,-18,15,-12,-3,3,6,19,14
18:27:12:620441,26,3,-19,-2,-2,0,-4,56
18:27:12:627937,-1,-6,-1,2,6,-3,38,-64
18:27:12:635440,-1,-6,-1,2,6,-3,38,-64
18:27:12:642930,-17,-15,-45,-4,-5,-5,15,35
18:27:12:651073,57,-19,-46,0,-4,-11,-78,52
18:27:12:651939,57,-19,-46,0,-4,-11,-78,52
18:27:12:657953,4,-14,-53,3,4,6,35,-22
18:27:12:673561,-8,17,-11,-16,-5,2,-55,12
18:27:12:674420,-8,17,-11,-16,-5,2,-55,12
18:27:12:680434,-53,-12,-28,-10,-9,-3,1,-43
18:27:12:687942,-57,-15,22,5,10,-1,-31,-18
18:27:12:695470,-57,-15,22,5,10,-1,-31,-18
18:27:12:702932,-7,11,22,5,-4,8,39,-70
18:27:12:711161,69,3,-18,-2,-4,1,21,-45
18:27:12:711954,69,3,-18,-2,-4,1,21,-45
18:27:12:717938,-13,27,26,-12,-1,-11,-44,63
18:27:12:733581,18,-60,-7,-9,-5,-5,-48,32
18:27:12:734437,18,-60,-7,-9,-5,-5,-48,32
18:27:12:740440,11,3,-9,2,-2,-13,2,-26
18:27:12:747939,-9,13,14,7,8,14,115,73
18:27:12:755426,-9,13,14,7,8,14,115,73
18:27:12:762966,12,-10,-20,-4,0,8,-22,-36
18:27:12:771203,2,22,-35,-1,0,-4,-40,0
18:27:12:771949,2,22,-35,-1,0,-4,-40,0
18:27:12:777965,-36,-3,-20,-3,-5,-4,3,16
18:27:12:793692,-34,-2,8,11,-10,-20,-48,-31
18:27:12:794428,-34,-2,8,11,-10,-20,-48,-31
18:27:12:800428,11,14,36,15,0,10,118,21
18:27:12:807921,-9,26,37,8,1,0,32,13
18:27:12:815546,-9,26,37,8,1,0,32,13
18:27:12:831838,29,-33,-41,-19,-5,11,96,64
18:27:12:832555,-70,-24,-22,-9,-10,12,74,12
18:27:12:833460,-70,-24,-22,-9,-10,12,74,12
18:27:12:837937,-29,-73,-13,-10,-2,7,-31,-66
18:27:12:854072,-46,21,11,-3,-2,-3,-30,-26
18:27:12:854978,-46,21,11,-3,-2,-3,-30,-26
18:27:12:860439,-21,0,-31,-21,4,-9,-33,12
18:27:12:867948,44,-8,-31,-12,-2,-4,-30,-2
18:27:12:875439,44,-8,-31,-12,-2,-4,-30,-2
18:27:12:882947,21,29,39,21,-5,-12,-21,-10
18:27:12:891078,23,22,-8,-8,4,7,8,-13
18:27:12:891925,23,22,-8,-8,4,7,8,-13
18:27:12:897964,-3,12,15,6,7,-9,-69,-8
18:27:12:913621,-3,12,15,6,7,-9,-69,-8
18:27:12:914441,-11,-42,17,-4,-6,1,49,-7
18:27:12:920441,-81,7,16,3,2,0,-35,13
18:27:12:936206,-81,7,16,3,2,0,-35,13
18:27:12:936942,47,16,14,-1,5,10,98,-12
18:27:12:942940,40,2,15,-1,-7,-4,-37,21
18:27:12:951067,40,2,15,-1,-7,-4,-37,21
18:27:12:951935,22,-16,-6,0,-4,-2,27,48
18:27:12:957931,-18,-9,-1,2,0,-6,28,-38
18:27:12:973695,-18,-9,-1,2,0,-6,28,-38
18:27:12:974447,-39,-54,-40,-14,-5,12,20,-22
18:27:12:980477,-6,0,-43,-6,-2,-2,1,10
18:27:12:996227,-6,0,-43,-6,-2,-2,1,10
18:27:12:996982,-9,34,10,8,9,10,-34,29
18:27:13:2969,39,26,-21,12,3,-1,-40,22
18:27:13:11188,39,26,-21,12,3,-1,-40,22
18:27:13:11929,42,41,20,2,-1,-6,-59,7
18:27:13:17976,43,12,45,6,-2,-12,-65,84
18:27:13:33720,43,12,45,6,-2,-12,-65,84
18:27:13:34446,-22,6,-9,8,21,4,5,1
18:27:13:40427,4,-26,-7,-9,-1,2,-11,-57
18:27:13:56196,4,-26,-7,-9,-1,2,-11,-57
18:27:13:56942,30,5,-4,-5,-10,-8,16,-2
18:27:13:62977,25,-21,9,-7,-5,5,24,-3
18:27:13:71199,25,-21,9,-7,-5,5,24,-3
18:27:13:71921,-5,-2,22,17,2,-19,-76,-20
18:27:13:85464,-49,11,-24,-4,-1,4,42,-63
18:27:13:93703,-49,11,-24,-4,-1,4,42,-63
18:27:13:94450,21,-20,-8,-13,-14,-8,-9,-50
18:27:13:100424,41,-14,-46,-9,-1,-4,-8,17
18:27:13:116188,41,-14,-46,-9,-1,-4,-8,17
18:27:13:116990,10,-11,-1,8,0,-1,-10,18
18:27:13:122933,57,4,17,-5,-7,-3,28,6
18:27:13:131203,57,4,17,-5,-7,-3,28,6
18:27:13:131944,5,-10,-18,-10,-12,-5,-9,-17
18:27:13:145485,35,7,-7,5,9,15,57,29
18:27:13:153691,35,7,-7,5,9,15,57,29
18:27:13:154439,4,7,-1,4,1,-7,-40,8
18:27:13:160432,-30,3,4,0,-6,7,21,-55
18:27:13:176222,-30,3,4,0,-6,7,21,-55
18:27:13:176939,12,0,18,6,-1,3,1,32
18:27:13:182954,-37,-39,7,-7,-8,-13,-94,-23
18:27:13:191216,-37,-39,7,-7,-8,-13,-94,-23
18:27:13:191953,1,82,41,-2,2,6,32,9
18:27:13:222203,-50,28,-12,-2,-2,-4,-16,24
18:27:13:223064,-50,28,-12,-2,-2,-4,-16,24
18:27:13:223808,-18,-8,-36,3,-3,-3,18,-4
18:27:13:236842,-8,-18,15,7,7,1,-1,1
18:27:13:237580,-8,-18,15,7,7,1,-1,1
18:27:13:238470,-76,-26,-35,-18,-3,-11,19,18
18:27:13:251836,15,6,23,8,-11,-8,1,-42
18:27:13:252567,15,6,23,8,-11,-8,1,-42
18:27:13:253451,15,-32,-1,-1,3,-2,-38,-47
18:27:13:265487,-83,-15,32,4,4,5,62,-11
18:27:13:273586,-83,-15,32,4,4,5,62,-11
18:27:13:274437,63,-27,-34,-10,-8,-2,2,61
18:27:13:280476,10,36,7,4,1,0,27,8
18:27:13:296174,10,36,7,4,1,0,27,8
18:27:13:296944,-7,-46,5,2,2,-3,-50,-7
18:27:13:302922,25,29,12,-4,-1,-10,-16,36
18:27:13:311073,25,29,12,-4,-1,-10,-16,36
18:27:13:311929,38,22,-10,-4,-1,1,-17,-33
18:27:13:325443,-26,-35,-22,-7,7,2,1,11
18:27:13:333590,-26,-35,-22,-7,7,2,1,11
18:27:13:334445,9,47,48,1,-1,11,50,5
18:27:13:340452,29,-11,-41,-8,3,-11,-36,15
18:27:13:356192,29,-11,-41,-8,3,-11,-36,15
18:27:13:356926,-30,-2,2,3,-2,5,61,17
18:27:13:362951,-47,10,2,-2,6,-1,-75,4
18:27:13:371079,-47,10,2,-2,6,-1,-75,4
18:27:13:371948,-51,12,-28,4,4,22,59,-41
18:27:13:385440,22,34,25,9,-1,7,91,43
18:27:13:393588,22,34,25,9,-1,7,91,43
18:27:13:394468,16,-40,24,-4,-4,7,80,-2
18:27:13:400457,11,9,15,9,4,0,76,-19
18:27:13:416180,11,9,15,9,4,0,76,-19
18:27:13:416963,-11,30,-4,7,13,2,-26,37
18:27:13:422947,-23,-18,-23,-11,-7,-11,-86,-92
18:27:13:431098,-23,-18,-23,-11,-7,-11,-86,-92
18:27:13:431958,-6,1,-3,-18,-11,-9,-76,0
18:27:13:445476,21,24,-18,0,8,17,12,-56
18:27:13:461847,21,24,-18,0,8,17,12,-56
18:27:13:462605,-28,-18,10,4,-10,-12,-77,-44
18:27:13:463480,14,-49,-1,-7,-11,-4,36,6
18:27:13:475931,14,-49,-1,-7,-11,-4,36,6
18:27:13:483591,60,25,20,4,-5,-11,-66,-28
18:27:13:484455,-17,-27,-16,0,1,-7,-43,-5
18:27:13:491194,-17,-27,-16,0,1,-7,-43,-5
18:27:13:491939,-28,-7,-30,-14,-5,-13,-9,-72
18:27:13:505464,13,2,-33,-9,-4,6,-25,-29
18:27:13:513734,13,2,-33,-9,-4,6,-25,-29
18:27:13:514465,34,23,0,9,11,2,29,34
18:27:13:520481,5,0,-23,-8,-4,-4,59,60
18:27:13:536077,5,0,-23,-8,-4,-4,59,60
18:27:13:536959,-2,-89,-5,-13,-5,4,41,-13
18:27:13:542968,-12,18,21,-14,-5,4,-3,22
18:27:13:551206,-12,18,21,-14,-5,4,-3,22
18:27:13:551943,41,-14,-7,-1,-4,-2,33,-11
18:27:13:565486,-23,-59,-4,7,5,-5,-30,96
18:27:13:573579,-23,-59,-4,7,5,-5,-30,96
18:27:13:574437,5,17,13,19,4,-8,-6,20
18:27:13:580469,17,45,14,7,-5,-6,-1,-13
18:27:13:596068,17,45,14,7,-5,-6,-1,-13
18:27:13:596956,-36,-8,-41,-4,-3,5,15,9
18:27:13:602961,-2,-3,8,7,-3,-9,-31,-4
18:27:13:611071,-2,-3,8,7,-3,-9,-31,-4
18:27:13:611943,7,73,41,4,2,-3,-34,3
18:27:13:625445,42,22,10,4,-6,5,61,27
18:27:13:633596,42,22,10,4,-6,5,61,27
18:27:13:634429,-7,-5,-11,-8,2,3,34,63
18:27:13:640443,17,-7,-21,-8,-8,-14,-18,37
18:27:13:656068,17,-7,-21,-8,-8,-14,-18,37
18:27:13:656945,-30,-24,-48,-21,3,4,36,-48
18:27:13:662966,14,35,36,11,-6,-2,-23,-18
18:27:13:671061,14,35,36,11,-6,-2,-23,-18
