Time,EMG1,EMG2,EMG3,EMG4,EMG5,EMG6,EMG7,EMG8
14:04:03:861909,-1,-3,-1,-6,-3,-8,-6,-4
14:04:03:869362,-1,-3,-1,-6,-3,-8,-6,-4
14:04:03:876824,-4,-1,-2,0,3,4,3,-3
14:04:03:885011,-3,5,4,-8,-7,-2,-1,0
14:04:03:885773,-3,5,4,-8,-7,-2,-1,0
14:04:03:891902,0,-3,-2,0,-1,0,4,0
14:04:03:907579,-2,-4,-2,4,-1,-7,-1,0
14:04:03:908338,-2,-4,-2,4,-1,-7,-1,0
14:04:03:914369,-5,-2,0,0,-9,-6,-2,-1
14:04:03:921800,-1,-2,-1,-6,-7,0,-3,-4
14:04:03:929468,-1,-2,-1,-6,-7,0,-3,-4
14:04:03:936811,0,-1,5,11,9,-3,3,0
14:04:03:945039,1,-4,-4,-4,-9,-6,1,0
14:04:03:945830,1,-4,-4,-4,-9,-6,1,0
14:04:03:951754,2,0,-3,-5,9,12,3,-2
14:04:03:967524,-4,-9,-9,4,6,-2,-4,-1
14:04:03:968348,-4,-9,-9,4,6,-2,-4,-1
14:04:03:974321,1,3,-1,0,-4,4,0,-1
14:04:03:981933,0,0,-1,3,-6,0,0,1
14:04:03:989378,0,0,-1,3,-6,0,0,1
14:04:03:996842,-3,0,-6,1,1,-3,-4,1
14:04:04:4990,3,1,-1,0,6,4,3,-3
14:04:04:5842,3,1,-1,0,6,4,3,-3
14:04:04:11893,0,-2,3,-6,-15,-1,10,0
14:04:04:27552,0,5,2,3,0,-6,-3,3
14:04:04:28287,0,5,2,3,0,-6,-3,3
14:04:04:34243,0,-3,-2,3,-1,2,2,-2
14:04:04:41813,-1,-2,-3,11,11,-1,-1,7
14:04:04:49477,-1,-2,-3,11,11,-1,-1,7
14:04:04:56960,2,-3,-3,-3,-5,-4,-4,-5
14:04:04:65000,-5,6,1,-1,1,-1,0,-4
14:04:04:65799,-5,6,1,-1,1,-1,0,-4
14:04:04:71824,3,1,-2,4,-6,-6,-5,-3
14:04:04:87536,-7,0,2,-1,-1,5,1,-1
14:04:04:88352,-7,0,2,-1,-1,5,1,-1
14:04:04:94359,-7,-1,1,-4,3,-4,0,0
14:04:04:101802,0,-1,2,-8,-15,-3,-3,-3
14:04:04:109394,0,-1,2,-8,-15,-3,-3,-3
14:04:04:116843,3,-1,1,-7,12,7,-1,3
14:04:04:124980,-1,-5,1,-5,-4,-5,-14,-1
14:04:04:125767,-1,-5,1,-5,-4,-5,-14,-1
14:04:04:131843,-3,1,14,8,4,-3,-5,-6
14:04:04:147532,1,0,6,-4,6,1,-2,-3
14:04:04:148351,1,0,6,-4,6,1,-2,-3
14:04:04:154292,-3,-4,-20,-9,0,-3,-2,3
14:04:04:161883,-12,-2,-7,-5,-4,-3,40,3
14:04:04:169371,-12,-2,-7,-5,-4,-3,40,3
14:04:04:176963,2,2,11,6,1,1,-16,1
14:04:04:185002,-1,-3,-15,-1,-3,2,-18,-3
14:04:04:185779,-1,-3,-15,-1,-3,2,-18,-3
14:04:04:191903,-1,4,-1,0,0,-1,-10,-4
14:04:04:207570,2,-9,-27,-19,-2,3,-9,-5
14:04:04:208289,2,-9,-27,-19,-2,3,-9,-5
14:04:04:214319,-2,0,6,-4,1,-3,9,-1
14:04:04:221818,0,-9,-10,-1,5,-3,8,1
14:04:04:229523,0,-9,-10,-1,5,-3,8,1
14:04:04:236831,-4,-12,-10,-16,-7,7,48,1
14:04:04:245037,-2,0,9,2,-2,-1,-22,1
14:04:04:245788,-2,0,9,2,-2,-1,-22,1
14:04:04:251775,-5,-9,-34,-7,-4,-1,-41,0
14:04:04:267533,4,-3,-1,6,0,0,8,-2
14:04:04:268324,4,-3,-1,6,0,0,8,-2
14:04:04:274397,1,-1,12,2,0,-6,18,-3
14:04:04:289994,1,-1,12,2,0,-6,18,-3
14:04:04:290814,4,10,11,7,4,0,-8,3
14:04:04:296884,-2,1,5,4,2,0,5,-2
14:04:04:305011,-2,1,5,4,2,0,5,-2
14:04:04:305772,4,6,23,3,-2,8,-5,1
14:04:04:319320,1,0,-11,4,0,10,5,-2
14:04:04:327602,1,0,-11,4,0,10,5,-2
14:04:04:328263,0,0,4,6,2,-6,0,-3
14:04:04:334305,-5,-3,-3,-2,0,0,-13,0
14:04:04:350059,-5,-3,-3,-2,0,0,-13,0
14:04:04:350816,-1,-2,-25,-8,-3,0,4,1
14:04:04:356871,2,8,12,1,0,-6,-12,2
14:04:04:364345,2,8,12,1,0,-6,-12,2
14:04:04:371806,-2,-1,2,-5,-3,4,2,-4
14:04:04:379409,4,0,-33,6,2,1,8,-2
14:04:04:387520,4,0,-33,6,2,1,8,-2
14:04:04:388266,2,2,3,8,-6,-6,5,-1
14:04:04:394352,-1,7,33,31,14,6,-2,-2
14:04:04:410532,-1,7,33,31,14,6,-2,-2
14:04:04:411274,-5,-14,-28,-22,-4,6,1,1
14:04:04:416826,1,-2,-3,-17,-13,1,-14,-4
14:04:04:424459,1,-2,-3,-17,-13,1,-14,-4
14:04:04:431833,6,1,-9,-5,-1,-3,-4,-5
14:04:04:439291,-1,0,5,-6,-2,-5,-6,2
14:04:04:447567,-1,0,5,-6,-2,-5,-6,2
14:04:04:448306,0,0,19,12,4,3,-2,2
14:04:04:454307,-14,2,23,2,1,-5,1,0
14:04:04:470022,-14,2,23,2,1,-5,1,0
14:04:04:470785,-3,1,-8,-17,-7,-13,-2,0
14:04:04:476808,2,-2,6,-17,-9,-5,2,-3
14:04:04:484355,2,-2,6,-17,-9,-5,2,-3
14:04:04:491903,-8,2,33,7,10,6,-9,0
14:04:04:499354,1,0,-20,-12,-4,16,-2,0
14:04:04:507627,1,0,-20,-12,-4,16,-2,0
14:04:04:508404,3,1,27,1,-10,-17,0,-5
14:04:04:514342,0,0,13,9,1,16,2,-1
14:04:04:530139,0,0,13,9,1,16,2,-1
14:04:04:530933,-1,2,1,5,-2,-5,2,-1
14:04:04:536767,5,-4,7,-9,0,-13,3,-2
14:04:04:545127,5,-4,7,-9,0,-13,3,-2
14:04:04:545803,1,0,5,4,2,-13,2,2
14:04:04:559384,-13,-2,-15,-4,1,-7,1,-2
14:04:04:567537,-13,-2,-15,-4,1,-7,1,-2
14:04:04:568336,5,-4,-17,-8,-5,-2,-1,-2
14:04:04:574396,4,0,-7,2,-1,-2,1,-2
14:04:04:590056,4,0,-7,2,-1,-2,1,-2
14:04:04:590812,-2,-2,-7,-6,-5,14,0,-2
14:04:04:596906,-1,-4,-1,-7,0,-16,-1,-1
14:04:04:605049,-1,-4,-1,-7,0,-16,-1,-1
14:04:04:605796,1,0,1,7,10,7,0,2
14:04:04:619251,-3,-1,-9,1,-4,1,-2,-4
14:04:04:627631,-3,-1,-9,1,-4,1,-2,-4
14:04:04:628342,-2,-2,-10,-2,-5,-1,3,-7
14:04:04:634314,-12,-2,-4,1,-1,-11,-3,-2
14:04:04:650020,-12,-2,-4,1,-1,-11,-3,-2
14:04:04:650820,3,0,0,1,-3,-2,-1,0
14:04:04:656817,5,0,-1,2,6,1,-5,-1
14:04:04:665056,5,0,-1,2,6,1,-5,-1
14:04:04:665829,-12,-5,-7,-19,-10,0,-4,-2
14:04:04:679482,12,0,5,2,7,-2,1,8
14:04:04:687509,12,0,5,2,7,-2,1,8
14:04:04:688293,2,-3,-20,-7,-6,-21,-3,7
14:04:04:694351,-4,-5,-20,1,-13,-6,-7,7
14:04:04:710093,-4,-5,-20,1,-13,-6,-7,7
14:04:04:710774,2,1,7,1,-7,8,0,0
14:04:04:716852,-14,1,3,-8,-7,-8,0,-5
14:04:04:725066,-14,1,3,-8,-7,-8,0,-5
14:04:04:725842,-10,1,-8,5,3,-2,-1,-9
14:04:04:739385,4,0,0,-4,-2,7,-1,-1
14:04:04:747540,4,0,0,-4,-2,7,-1,-1
14:04:04:748322,-7,0,13,3,9,1,2,-3
14:04:04:754311,0,-5,-6,6,-3,-11,-1,-1
14:04:04:770002,0,-5,-6,6,-3,-11,-1,-1
14:04:04:770741,4,-1,17,10,6,2,-1,0
14:04:04:776864,1,2,-1,-1,-4,-1,0,-1
14:04:04:785010,1,2,-1,-1,-4,-1,0,-1
14:04:04:785751,2,2,-8,1,0,1,-4,0
14:04:04:799382,2,4,2,1,4,6,1,0
14:04:04:807573,2,4,2,1,4,6,1,0
14:04:04:808309,-8,0,-10,-4,-2,-9,-1,0
14:04:04:814352,1,0,7,1,12,-1,-1,-1
14:04:04:830112,1,0,7,1,12,-1,-1,-1
14:04:04:830866,-1,-1,2,6,2,-3,0,5
14:04:04:836793,5,-2,-1,-7,-5,1,-7,-1
14:04:04:845031,5,-2,-1,-7,-5,1,-7,-1
14:04:04:845779,-2,-3,1,-6,7,4,2,-4
14:04:04:859317,6,0,0,-2,-6,-6,3,0
14:04:04:867621,6,0,0,-2,-6,-6,3,0
14:04:04:868373,1,3,-5,-3,-4,-5,-3,-3
14:04:04:874460,-7,0,1,-1,4,1,-3,-4
14:04:04:890081,-7,0,1,-1,4,1,-3,-4
14:04:04:890916,1,-2,-1,-2,-1,1,-1,-2
14:04:04:896857,-5,-3,-3,-4,0,0,-4,-4
14:04:04:904962,-5,-3,-3,-4,0,0,-4,-4
14:04:04:905756,0,-7,-11,-7,-2,3,-2,0
14:04:04:919262,3,-4,1,1,-7,2,-3,2
14:04:04:935675,3,-4,1,1,-7,2,-3,2
14:04:04:936430,-2,-2,-3,-3,-9,11,-7,0
14:04:04:937253,-5,2,-3,4,2,18,2,-2
14:04:04:950079,-5,2,-3,4,2,18,2,-2
14:04:04:950898,-22,-5,-23,-6,-4,-5,-6,-3
14:04:04:956836,9,-1,4,0,0,-5,2,-2
14:04:04:965070,9,-1,4,0,0,-5,2,-2
14:04:04:965844,13,3,10,8,7,2,1,-2
14:04:04:979441,-3,-2,-12,0,-5,-9,1,-2
14:04:04:987488,-3,-2,-12,0,-5,-9,1,-2
14:04:04:988306,-5,1,11,1,-3,-3,0,-2
14:04:04:994365,2,-2,9,-7,-5,2,-3,1
14:04:05:10135,2,-2,9,-7,-5,2,-3,1
14:04:05:10801,4,0,5,1,16,-10,0,-3
14:04:05:16776,-7,0,-1,2,7,3,0,0
14:04:05:25026,-7,0,-1,2,7,3,0,0
14:04:05:25769,-2,-2,0,-5,-4,3,-1,-2
14:04:05:39318,-6,-5,-14,-9,4,-4,-3,-7
14:04:05:47541,-6,-5,-14,-9,4,-4,-3,-7
14:04:05:48275,5,-5,-7,0,-3,-6,2,3
14:04:05:54315,-4,-9,-2,-3,-5,-3,0,1
14:04:05:69981,-4,-9,-2,-3,-5,-3,0,1
14:04:05:70789,-9,-4,5,-2,9,4,1,-4
14:04:05:76914,-15,-3,-17,-10,-8,-8,0,0
14:04:05:85022,-15,-3,-17,-10,-8,-8,0,0
14:04:05:85741,5,-3,11,7,-14,-8,-1,1
14:04:05:99390,2,2,4,-4,-4,-6,-2,-2
14:04:05:107586,2,2,4,-4,-4,-6,-2,-2
14:04:05:108295,2,2,-6,2,-3,12,-1,-1
14:04:05:114366,5,-2,-2,-2,-2,9,-1,3
14:04:05:130153,5,-2,-2,-2,-2,9,-1,3
14:04:05:130824,1,-2,-2,0,-4,-4,-5,0
14:04:05:136806,2,3,3,2,-7,-3,-3,0
14:04:05:145050,2,3,3,2,-7,-3,-3,0
14:04:05:145766,-1,-4,-24,-11,-4,-6,-2,0
14:04:05:159315,-12,-2,2,-7,12,-7,-1,-5
14:04:05:167562,-12,-2,2,-7,12,-7,-1,-5
14:04:05:168365,4,1,-13,3,0,11,4,3
14:04:05:174381,2,3,6,-3,-3,-2,-2,1
14:04:05:190048,2,3,6,-3,-3,-2,-2,1
14:04:05:190807,1,1,6,0,7,-2,0,-2
14:04:05:196858,0,-3,-1,8,6,-2,-2,1
14:04:05:204976,0,-3,-1,8,6,-2,-2,1
14:04:05:205757,-18,-1,5,3,1,0,-1,-2
14:04:05:219286,-2,-4,-2,10,1,-1,2,-2
14:04:05:227587,-2,-4,-2,10,1,-1,2,-2
14:04:05:228340,-8,-1,1,-7,-8,-12,-4,0
14:04:05:241797,2,-2,-7,-7,0,1,1,0
14:04:05:250066,2,-2,-7,-7,0,1,1,0
14:04:05:250813,-11,-7,-4,-10,-5,-7,-1,-1
14:04:05:256905,6,7,-2,2,-4,-3,-1,-1
14:04:05:264380,6,7,-2,2,-4,-3,-1,-1
14:04:05:271759,7,-2,-3,-4,11,-4,3,0
14:04:05:279360,-4,-1,7,6,6,2,1,0
14:04:05:287451,-4,-1,7,6,6,2,1,0
14:04:05:288285,7,7,7,-4,-2,-5,-3,0
14:04:05:301809,0,2,8,-6,-1,2,-1,-2
14:04:05:310086,0,2,8,-6,-1,2,-1,-2
14:04:05:310803,5,6,4,4,-5,1,2,1
14:04:05:316782,1,-5,-3,-3,-2,7,-1,-2
14:04:05:324434,1,-5,-3,-3,-2,7,-1,-2
14:04:05:331834,-3,3,-12,4,-2,-6,-2,-1
14:04:05:339328,-5,-5,-3,-1,-3,-10,-3,-1
14:04:05:347530,-5,-5,-3,-1,-3,-10,-3,-1
14:04:05:348307,5,5,8,5,4,0,0,-3
14:04:05:361899,1,-2,-24,-7,-11,-15,1,-1
14:04:05:369998,1,-2,-24,-7,-11,-15,1,-1
14:04:05:370766,7,1,2,-1,-1,11,-2,4
14:04:05:376898,0,3,4,0,-4,-1,0,-1
14:04:05:384368,0,3,4,0,-4,-1,0,-1
14:04:05:391800,2,-3,-1,-4,-1,-2,-6,-6
14:04:05:399292,3,3,8,1,-1,-2,-3,-1
14:04:05:407532,3,3,8,1,-1,-2,-3,-1
14:04:05:408304,-4,-3,4,-11,5,2,4,-2
14:04:05:421811,10,-2,-14,-4,-8,-6,-5,-1
14:04:05:430059,10,-2,-14,-4,-8,-6,-5,-1
14:04:05:430857,-3,-5,-5,-9,-7,-2,0,1
14:04:05:436757,-1,-12,2,-1,0,3,4,2
14:04:05:444452,-1,-12,2,-1,0,3,4,2
14:04:05:451744,0,-8,16,4,-13,2,-4,-3
14:04:05:459324,-4,4,9,6,5,3,-4,-1
14:04:05:467553,-4,4,9,6,5,3,-4,-1
14:04:05:468337,-13,-4,-6,3,0,-8,-3,-5
14:04:05:481819,-5,-5,13,3,1,4,-2,0
14:04:05:490091,-5,-5,13,3,1,4,-2,0
14:04:05:490885,4,3,0,-3,-4,-5,-3,0
14:04:05:496919,3,4,5,-1,0,3,-2,-2
14:04:05:504357,3,4,5,-1,0,3,-2,-2
14:04:05:511811,5,0,-2,6,2,4,4,-2
14:04:05:519260,-1,1,-8,-4,8,-4,-3,-3
14:04:05:527579,-1,1,-8,-4,8,-4,-3,-3
14:04:05:528310,-4,-4,3,8,12,-6,-2,-2
14:04:05:541835,-6,3,6,-1,-6,6,-3,2
14:04:05:550010,-6,3,6,-1,-6,6,-3,2
14:04:05:550790,-4,3,-11,-10,-7,-4,0,1
14:04:05:556830,-5,-7,-6,-4,-1,4,3,-4
14:04:05:564404,-5,-7,-6,-4,-1,4,3,-4
14:04:05:571835,-4,0,-1,-2,0,-2,-2,2
14:04:05:579368,2,1,0,-2,0,-1,-3,-1
14:04:05:587452,2,1,0,-2,0,-1,-3,-1
14:04:05:588272,4,6,13,-2,4,7,4,1
14:04:05:601792,-5,0,-12,-4,-13,-11,-7,-1
14:04:05:610117,-5,0,-12,-4,-13,-11,-7,-1
14:04:05:610937,3,-1,-4,-3,-4,-4,-1,-1
14:04:05:616830,-5,2,-5,-10,-6,3,3,3
14:04:05:624488,-5,2,-5,-10,-6,3,3,3
14:04:05:631865,1,3,-4,-4,-4,-7,-1,-1
14:04:05:639355,3,-1,-9,9,4,0,1,-1
14:04:05:647542,3,-1,-9,9,4,0,1,-1
14:04:05:648305,8,-1,7,-2,-1,1,-1,2
14:04:05:661872,4,1,8,-2,14,1,4,-1
14:04:05:669957,4,1,8,-2,14,1,4,-1
14:04:05:670762,-6,-1,9,0,-2,-12,-4,-1
14:04:05:676870,0,0,2,-1,4,-1,1,-1
14:04:05:684355,0,0,2,-1,4,-1,1,-1
14:04:05:691862,-2,4,-5,2,-1,3,-2,-3
14:04:05:699359,4,-6,-5,-2,-4,-6,-4,-4
14:04:05:707575,4,-6,-5,-2,-4,-6,-4,-4
14:04:05:708316,-4,6,-6,-5,-7,9,-4,-2
14:04:05:721810,1,-2,-8,-2,-10,-5,-2,0
14:04:05:730100,1,-2,-8,-2,-10,-5,-2,0
14:04:05:730796,-1,-8,-11,1,3,1,4,-1
14:04:05:736774,-5,-5,3,10,-9,1,0,0
14:04:05:744429,-5,-5,3,10,-9,1,0,0
14:04:05:751766,-5,-12,-7,1,-2,3,-2,0
14:04:05:759290,-4,3,1,-2,-2,-2,-4,-3
14:04:05:767571,-4,3,1,-2,-2,-2,-4,-3
14:04:05:768293,-3,-1,-6,-1,-1,0,1,0
14:04:05:781818,-1,-2,-2,3,2,5,-1,-1
14:04:05:790038,-1,-2,-2,3,2,5,-1,-1
14:04:05:790812,-3,4,7,2,3,-3,-1,-3
14:04:05:796838,-8,-9,0,-4,3,-2,-1,1
14:04:05:804372,-8,-9,0,-4,3,-2,-1,1
14:04:05:811902,-1,2,3,-2,-7,-3,0,-1
14:04:05:819275,2,1,8,-8,0,-1,3,-3
14:04:05:827633,2,1,8,-8,0,-1,3,-3
14:04:05:828311,-8,1,7,-2,4,3,-2,-1
14:04:05:841887,0,-1,10,-8,-8,-6,0,3
14:04:05:850090,0,-1,10,-8,-8,-6,0,3
14:04:05:850870,1,4,11,2,9,6,1,-2
14:04:05:856824,-3,-1,0,2,-4,4,-1,-6
14:04:05:864427,-3,-1,0,2,-4,4,-1,-6
14:04:05:871817,-2,-5,-11,0,3,-3,-3,0
14:04:05:879445,0,2,-2,-4,-3,3,-2,1
14:04:05:887451,0,2,-2,-4,-3,3,-2,1
14:04:05:888278,2,-1,-8,-5,2,-3,-1,-3
14:04:05:902234,2,2,-6,2,0,-3,0,-1
14:04:05:910125,2,2,-6,2,0,-3,0,-1
14:04:05:910902,-2,1,6,-1,2,6,-2,-1
14:04:05:916858,1,6,0,-7,-6,1,-1,-2
14:04:05:924441,1,6,0,-7,-6,1,-1,-2
14:04:05:931848,1,-2,-1,-6,-2,0,0,0
14:04:05:939367,-9,-2,-4,3,4,-8,-2,-1
14:04:05:947591,-9,-2,-4,3,4,-8,-2,-1
14:04:05:948353,2,-7,-10,-2,-7,-4,-2,0
14:04:05:961847,-2,-3,3,-5,0,-1,-2,-2
14:04:05:970040,-2,-3,3,-5,0,-1,-2,-2
14:04:05:970810,1,0,-3,-7,-4,-11,-1,0
14:04:05:976883,0,-1,-2,1,4,-2,-2,0
14:04:05:984421,0,-1,-2,1,4,-2,-2,0
14:04:05:991832,2,1,-3,1,-4,-1,-2,-3
14:04:05:999351,0,1,-2,6,-1,4,1,1
14:04:06:7596,0,1,-2,6,-1,4,1,1
14:04:06:8288,-2,-1,-4,-2,-2,-3,-3,-1
14:04:06:21849,-1,1,2,-1,2,2,2,-1
14:04:06:30098,-1,1,2,-1,2,2,2,-1
14:04:06:30818,0,5,-2,-1,-6,9,2,1
14:04:06:36745,0,4,16,1,4,9,0,-1
14:04:06:44473,0,4,16,1,4,9,0,-1
14:04:06:51751,-2,5,5,0,-11,-6,-1,0
14:04:06:59316,3,2,-4,0,-2,-1,3,4
14:04:06:67572,3,2,-4,0,-2,-1,3,4
14:04:06:68382,-1,-4,8,4,4,2,3,1
14:04:06:81840,-2,-3,-14,-3,-3,-4,-1,0
14:04:06:90072,-2,-3,-14,-3,-3,-4,-1,0
14:04:06:90821,1,-7,-8,1,5,-2,-3,-1
14:04:06:96857,-4,-7,-49,-5,1,-1,0,-1
14:04:06:104355,-4,-7,-49,-5,1,-1,0,-1
14:04:06:111874,0,-10,-22,-5,-10,-10,-5,-1
14:04:06:119273,0,9,13,3,-4,-5,-4,-4
14:04:06:127614,0,9,13,3,-4,-5,-4,-4
14:04:06:128360,1,2,-3,-2,-2,-2,-5,-2
14:04:06:141796,-5,-3,3,5,4,-10,-2,-2
14:04:06:150077,-5,-3,3,5,4,-10,-2,-2
14:04:06:150825,-2,2,3,4,4,2,2,2
14:04:06:156970,-3,-6,2,0,9,-4,-6,-2
14:04:06:164436,-3,-6,2,0,9,-4,-6,-2
14:04:06:171795,-3,-2,14,-6,-4,5,0,0
14:04:06:179425,4,-13,-11,0,-1,-3,-1,-4
14:04:06:186835,4,-13,-11,0,-1,-3,-1,-4
14:04:06:194464,3,-6,-18,-1,1,-2,0,-3
14:04:06:201798,3,-1,6,-7,-6,1,-5,0
14:04:06:210051,3,-1,6,-7,-6,1,-5,0
14:04:06:210811,-3,-6,-3,3,4,17,-3,-3
14:04:06:225077,-3,-2,1,2,4,-1,-1,-2
14:04:06:225822,-3,-2,1,2,4,-1,-1,-2
14:04:06:231864,-8,-6,-4,-3,0,5,-5,0
14:04:06:239389,0,0,11,-2,-13,-3,-4,-1
14:04:06:246954,0,0,11,-2,-13,-3,-4,-1
14:04:06:254275,0,12,20,3,-1,-12,1,-1
14:04:06:262069,-1,0,12,-5,-5,4,0,-2
14:04:06:270010,-1,0,12,-5,-5,4,0,-2
14:04:06:270768,-1,7,-35,-7,-4,-5,1,-1
14:04:06:285018,-1,3,-2,4,7,-3,-1,0
14:04:06:285810,-1,3,-2,4,7,-3,-1,0
14:04:06:291853,-2,-4,9,1,3,0,-1,-2
14:04:06:299313,-7,6,-2,0,4,2,-3,0
14:04:06:307088,-7,6,-2,0,4,2,-3,0
14:04:06:314326,14,-7,-7,-4,2,-5,-5,1
14:04:06:321823,5,-9,-15,-3,8,-1,3,-1
14:04:06:330116,5,-9,-15,-3,8,-1,3,-1
14:04:06:330834,-5,1,20,-4,-3,-1,3,-3
14:04:06:345102,-4,3,20,7,-9,-3,1,4
14:04:06:345856,-4,3,20,7,-9,-3,1,4
14:04:06:351778,-7,3,13,-3,-4,8,3,-1
14:04:06:359292,0,-3,-1,-6,-5,-1,-5,0
14:04:06:366895,0,-3,-1,-6,-5,-1,-5,0
14:04:06:374437,-8,-2,3,-1,0,-7,-5,-4
14:04:06:381824,1,0,-5,-6,-7,-5,4,-2
14:04:06:390031,1,0,-5,-6,-7,-5,4,-2
14:04:06:390810,4,3,1,-3,2,6,0,1
14:04:06:405039,-2,-14,-7,-4,4,2,-4,-1
14:04:06:405842,-2,-14,-7,-4,4,2,-4,-1
14:04:06:411874,0,0,6,7,2,-6,-2,2
14:04:06:419272,3,1,-2,-8,-4,-2,1,-3
14:04:06:426981,3,1,-2,-8,-4,-2,1,-3
14:04:06:434322,1,-4,-4,-6,-7,-6,-1,0
14:04:06:441847,-1,-1,-6,-3,-15,4,2,-1
14:04:06:457636,-1,-1,-6,-3,-15,4,2,-1
14:04:06:458296,2,-7,-16,-3,-3,0,1,-1
14:04:06:465015,-3,1,-8,-3,2,4,0,0
14:04:06:465827,-3,1,-8,-3,2,4,0,0
14:04:06:471846,5,2,-6,-1,-7,-4,-3,1
14:04:06:479423,-3,1,-16,-3,0,-3,-2,0
14:04:06:486874,-3,1,-16,-3,0,-3,-2,0
14:04:06:494403,-7,-2,-1,-5,1,-6,1,1
14:04:06:501806,2,-5,4,3,3,-3,2,-1
14:04:06:510037,2,-5,4,3,3,-3,2,-1
14:04:06:510819,1,-5,-2,2,-1,-2,3,-3
14:04:06:524996,-2,9,8,-2,10,-3,-2,-4
14:04:06:525770,-2,9,8,-2,10,-3,-2,-4
14:04:06:531874,-6,-1,3,0,0,-2,0,-3
14:04:06:539299,-1,1,-4,-2,1,7,-1,1
14:04:06:546957,-1,1,-4,-2,1,7,-1,1
14:04:06:554304,-2,0,-5,3,4,1,1,-3
14:04:06:561899,-2,4,12,0,-4,-1,0,-1
14:04:06:569975,-2,4,12,0,-4,-1,0,-1
14:04:06:570761,-6,-3,2,-4,-3,2,-2,-3
14:04:06:584991,-2,3,7,-1,-1,-1,-2,1
14:04:06:585831,-2,3,7,-1,-1,-1,-2,1
14:04:06:591849,-3,7,4,2,2,-6,-2,1
14:04:06:599285,-6,5,3,3,0,-1,-1,-1
14:04:06:606946,-6,5,3,3,0,-1,-1,-1
14:04:06:622513,2,4,-2,1,-4,0,-1,0
14:04:06:623311,-11,-6,-1,-3,0,-3,-3,0
14:04:06:630086,-11,-6,-1,-3,0,-3,-3,0
14:04:06:630779,0,4,4,2,2,1,-1,-3
14:04:06:645064,1,0,-1,3,3,5,3,-2
14:04:06:645780,1,0,-1,3,3,5,3,-2
14:04:06:651814,-8,-9,0,-3,-7,-3,-4,0
14:04:06:659338,8,-6,5,-5,0,-5,-1,-1
14:04:06:666883,8,-6,5,-5,0,-5,-1,-1
14:04:06:674448,6,-1,2,0,0,1,-3,1
14:04:06:690824,-5,-3,0,-1,-4,-1,-4,-3
14:04:06:691471,-5,-3,0,-1,-4,-1,-4,-3
14:04:06:692286,-8,-3,-1,-2,0,1,1,-1
14:04:06:704978,3,0,-5,-1,-2,-1,-1,0
14:04:06:705772,3,0,-5,-1,-2,-1,-1,0
14:04:06:711938,3,-7,-12,-1,0,-2,-2,-1
14:04:06:719271,5,3,-4,-2,-5,0,1,1
14:04:06:735075,5,3,-4,-2,-5,0,1,1
14:04:06:735818,5,-10,-5,-3,-2,5,1,-1
14:04:06:741838,0,-1,-7,-2,-3,-3,-4,-2
14:04:06:750031,0,-1,-7,-2,-3,-3,-4,-2
14:04:06:750792,-8,7,-1,-3,1,0,0,-1
14:04:06:765057,3,-6,-10,-3,-3,-8,-3,-1
14:04:06:765864,3,-6,-10,-3,-3,-8,-3,-1
14:04:06:771809,5,6,2,0,0,-1,-1,1
14:04:06:779412,-19,2,9,1,-4,6,3,-1
14:04:06:786855,-19,2,9,1,-4,6,3,-1
14:04:06:794368,1,6,4,-1,-3,-3,-2,0
14:04:06:801811,3,1,-1,0,0,-3,-2,-3
14:04:06:810041,3,1,-1,0,0,-3,-2,-3
14:04:06:810825,-2,-1,-2,-6,-2,-4,0,-2
14:04:06:825063,-8,-6,-4,-3,4,-1,-3,-3
14:04:06:825821,-8,-6,-4,-3,4,-1,-3,-3
14:04:06:831849,6,-3,-11,3,0,-1,1,-1
14:04:06:839353,2,6,-1,4,3,1,3,-1
14:04:06:855073,2,6,-1,4,3,1,3,-1
14:04:06:855849,-1,-6,-5,-3,-3,-8,-7,-2
14:04:06:861963,-1,1,1,4,0,4,-1,1
14:04:06:869980,-1,1,1,4,0,4,-1,1
14:04:06:870770,1,-1,-2,-3,-2,-2,1,-1
14:04:06:885077,-5,-6,-3,-5,-2,-3,-3,0
14:04:06:885797,-5,-6,-3,-5,-2,-3,-3,0
14:04:06:891850,-1,-2,3,-1,0,-1,-1,-1
14:04:06:899381,11,-2,2,1,1,1,2,0
14:04:06:907099,11,-2,2,1,1,1,2,0
14:04:06:914398,0,-5,-2,1,1,2,-2,1
14:04:06:921849,-1,1,-3,-6,-4,-5,-1,2
14:04:06:930125,-1,1,-3,-6,-4,-5,-1,2
14:04:06:930877,1,-5,-10,-3,0,-3,-1,-4
14:04:06:945094,14,3,2,0,0,7,-3,-2
14:04:06:945911,14,3,2,0,0,7,-3,-2
14:04:06:951825,-3,1,-1,-2,-13,-2,-2,2
14:04:06:959313,-5,-6,-3,-4,-2,-10,-2,-5
14:04:06:966884,-5,-6,-3,-4,-2,-10,-2,-5
14:04:06:974397,-11,1,5,3,1,-1,0,-2
14:04:06:981829,-3,-2,0,0,-4,-2,-2,-1
14:04:06:990078,-3,-2,0,0,-4,-2,-2,-1
14:04:06:990784,4,4,-2,-2,4,3,1,0
14:04:07:13211,-4,0,-1,-1,0,1,-1,-2
14:04:07:13966,-4,0,-1,-1,0,1,-1,-2
14:04:07:14800,-1,-7,1,0,0,-4,4,1
14:04:07:19265,3,6,4,3,2,1,-3,0
14:04:07:26938,3,6,4,3,2,1,-3,0
14:04:07:34354,-14,-6,-1,-1,-1,1,0,-2
14:04:07:41870,-4,-3,-3,1,-3,-7,0,-1
14:04:07:50060,-4,-3,-3,1,-3,-7,0,-1
14:04:07:50876,8,-9,-1,0,2,-1,-1,-1
14:04:07:64983,-2,-3,0,-1,1,-4,-1,-4
14:04:07:65830,-2,-3,0,-1,1,-4,-1,-4
14:04:07:71832,6,1,-1,-5,1,0,-2,-1
14:04:07:79404,-1,-2,-4,-2,-2,1,2,-1
14:04:07:86918,-1,-2,-4,-2,-2,1,2,-1
14:04:07:94430,6,0,-1,1,3,0,-4,0
14:04:07:101747,-3,-8,-1,-7,-3,-1,-2,1
14:04:07:109353,-3,-8,-1,-7,-3,-1,-2,1
14:04:07:116806,-5,1,0,-2,-4,-3,-1,-1
14:04:07:125032,1,0,-1,3,7,8,2,3
14:04:07:125861,1,0,-1,3,7,8,2,3
14:04:07:131857,-3,2,2,-2,-1,-5,-4,1
14:04:07:147558,-4,-3,-1,1,-1,2,1,0
14:04:07:148367,-4,-3,-1,1,-1,2,1,0
14:04:07:154284,-3,-4,-2,-4,-2,1,0,-2
14:04:07:161940,1,4,1,-3,-3,-14,-3,-5
14:04:07:169350,1,4,1,-3,-3,-14,-3,-5
14:04:07:176856,-4,-3,1,3,3,4,3,-3
14:04:07:185041,-1,5,-1,0,5,-4,-1,2
14:04:07:185798,-1,5,-1,0,5,-4,-1,2
14:04:07:191823,2,-5,-3,-3,-3,2,-1,0
14:04:07:207634,-1,-2,-2,-4,-3,0,-9,0
14:04:07:208313,-1,-2,-2,-4,-3,0,-9,0
14:04:07:214396,9,-14,-3,-2,2,-4,1,2
14:04:07:221783,1,-4,-6,-6,-4,-6,-5,-1
14:04:07:229476,1,-4,-6,-6,-4,-6,-5,-1
14:04:07:236795,0,9,2,1,-2,2,-3,0
14:04:07:245069,0,-4,0,-5,-3,-1,0,0
14:04:07:245796,0,-4,0,-5,-3,-1,0,0
14:04:07:251805,-7,-1,2,0,-1,1,2,-5
14:04:07:267464,0,5,-3,-3,-2,-4,0,-3
14:04:07:268243,0,5,-3,-3,-2,-4,0,-3
14:04:07:274414,-3,5,-2,-3,-2,-2,-3,-4
14:04:07:281802,-5,1,5,0,0,7,4,0
14:04:07:289346,-5,1,5,0,0,7,4,0
14:04:07:296849,-6,-4,-6,-5,-2,-4,-2,0
14:04:07:304963,1,-3,2,-2,-4,-4,3,0
14:04:07:305780,1,-3,2,-2,-4,-4,3,0
14:04:07:311817,-5,-1,-3,-1,-1,-3,-4,0
14:04:07:327564,-4,-10,-8,0,-4,-3,-1,-2
14:04:07:328274,-4,-10,-8,0,-4,-3,-1,-2
14:04:07:334379,1,4,5,3,3,0,0,-2
14:04:07:341897,-10,7,5,2,3,0,0,0
14:04:07:349366,-10,7,5,2,3,0,0,0
14:04:07:356897,2,3,1,-3,-1,-3,0,-1
14:04:07:365009,3,11,-1,1,1,1,-2,-1
14:04:07:365798,3,11,-1,1,1,1,-2,-1
14:04:07:371783,2,2,1,0,-1,1,-2,1
14:04:07:387504,1,-2,-4,-3,0,0,-2,1
14:04:07:388293,1,-2,-4,-3,0,0,-2,1
14:04:07:394324,2,0,3,-2,1,-2,-3,-3
14:04:07:401742,1,-4,-2,1,-1,0,1,-2
14:04:07:409362,1,-4,-2,1,-1,0,1,-2
14:04:07:416829,2,2,-3,1,0,-2,-2,-2
14:04:07:425088,-1,-7,2,0,-2,-1,-2,-2
14:04:07:425828,-1,-7,2,0,-2,-1,-2,-2
14:04:07:431822,-1,12,-1,-3,-4,-3,-1,-2
14:04:07:447527,6,-2,0,0,-1,1,3,0
14:04:07:448322,6,-2,0,0,-1,1,3,0
14:04:07:454270,2,-15,-6,1,-1,4,-2,0
14:04:07:461879,-9,-7,-7,-4,-3,-2,-5,-3
14:04:07:469324,-9,-7,-7,-4,-3,-2,-5,-3
14:04:07:476883,-5,-1,2,-2,-3,-4,0,1
14:04:07:485047,0,-3,-4,0,0,3,-2,0
14:04:07:485793,0,-3,-4,0,0,3,-2,0
14:04:07:491846,-2,-3,-1,-1,-1,0,-2,-3
14:04:07:507663,-2,-1,6,0,0,-3,2,-2
14:04:07:508321,-2,-1,6,0,0,-3,2,-2
14:04:07:514332,2,1,-9,-2,0,-1,1,1
14:04:07:522504,-4,-4,1,1,1,2,1,0
14:04:07:523297,-4,-4,1,1,1,2,1,0
14:04:07:536808,-2,-1,2,-2,-1,-6,3,0
14:04:07:545122,4,3,-5,-3,-2,-4,0,-1
14:04:07:545860,4,3,-5,-3,-2,-4,0,-1
14:04:07:551826,-5,2,3,5,4,1,0,-4
14:04:07:567531,-1,-7,-2,-4,-1,-5,0,-1
14:04:07:568367,-1,-7,-2,-4,-1,-5,0,-1
14:04:07:574396,1,2,1,-1,0,3,1,5
14:04:07:581840,-6,2,-5,-6,-1,5,0,-1
14:04:07:589410,-6,2,-5,-6,-1,5,0,-1
14:04:07:596905,1,-8,-8,-4,1,4,-4,-1
14:04:07:604967,7,-6,0,-1,-2,-9,-3,0
14:04:07:605802,7,-6,0,-1,-2,-9,-3,0
14:04:07:611874,-6,7,-3,-5,-4,-2,-1,0
14:04:07:627619,-1,-2,-4,-3,0,0,-2,-3
14:04:07:628393,-1,-2,-4,-3,0,0,-2,-3
14:04:07:634371,4,0,-2,-5,-2,-7,-1,-2
14:04:07:650062,4,0,-2,-5,-2,-7,-1,-2
14:04:07:650859,-7,-1,-2,-2,-5,8,-8,-7
14:04:07:656885,5,0,-1,-3,-4,-6,2,-1
14:04:07:665081,5,0,-1,-3,-4,-6,2,-1
14:04:07:665871,-8,5,4,0,0,-1,-9,-2
14:04:07:671803,-5,-7,-1,-2,1,5,-6,2
14:04:07:687504,-5,-7,-1,-2,1,5,-6,2
14:04:07:688308,-4,0,4,3,2,11,11,2
14:04:07:694408,-1,1,-5,-2,-2,-4,1,3
14:04:07:710160,-1,1,-5,-2,-2,-4,1,3
14:04:07:710894,0,1,6,1,-1,0,0,-6
14:04:07:716828,2,-1,7,-1,-2,0,-4,-7
14:04:07:725110,2,-1,7,-1,-2,0,-4,-7
14:04:07:725812,15,7,-2,1,2,8,10,6
14:04:07:731831,-5,0,10,-1,0,-5,-5,-4
14:04:07:747554,-5,0,10,-1,0,-5,-5,-4
14:04:07:748295,-12,-13,-17,-6,7,3,-3,-2
14:04:07:754319,-4,-10,-79,-15,-4,2,0,3
14:04:07:770060,-4,-10,-79,-15,-4,2,0,3
14:04:07:770805,-13,0,22,7,12,2,3,2
14:04:07:776852,-1,-1,13,1,-4,-2,-2,-5
14:04:07:785067,-1,-1,13,1,-4,-2,-2,-5
14:04:07:785814,4,1,-9,-5,-8,-4,-12,-3
14:04:07:791860,1,1,12,2,4,10,-2,1
14:04:07:807604,1,1,12,2,4,10,-2,1
14:04:07:808277,6,-9,-18,5,-4,-11,2,1
14:04:07:814329,3,-16,-10,-16,-9,-2,-5,-4
14:04:07:830051,3,-16,-10,-16,-9,-2,-5,-4
14:04:07:830786,12,2,0,-5,-1,-3,-5,3
14:04:07:836774,10,7,-7,0,-4,7,2,2
14:04:07:845120,10,7,-7,0,-4,7,2,2
14:04:07:845794,1,-1,-3,11,-7,-17,-4,3
14:04:07:851782,-14,0,7,1,4,1,-3,1
14:04:07:867498,-14,0,7,1,4,1,-3,1
14:04:07:868316,2,-2,0,1,4,3,7,-4
14:04:07:874332,1,-2,22,10,1,-10,0,-1
14:04:07:890012,1,-2,22,10,1,-10,0,-1
14:04:07:890754,-21,2,14,5,3,2,-2,-6
14:04:07:896825,-5,1,35,3,-6,-7,1,-5
14:04:07:905013,-5,1,35,3,-6,-7,1,-5
14:04:07:905789,-6,6,-3,-4,-6,-1,-3,-1
14:04:07:911829,10,-9,20,8,6,1,-2,-1
14:04:07:927610,10,-9,20,8,6,1,-2,-1
14:04:07:928274,13,-2,13,-19,-11,-6,1,-1
14:04:07:934275,-20,-13,-17,-4,-3,-9,-3,-5
14:04:07:950046,-20,-13,-17,-4,-3,-9,-3,-5
14:04:07:950801,-2,1,2,-3,-6,1,-1,-1
14:04:07:956835,-10,-2,-23,-3,-1,-1,4,1
14:04:07:965030,-10,-2,-23,-3,-1,-1,4,1
14:04:07:965758,0,7,-2,4,10,7,5,8
14:04:07:971814,-7,0,-16,-14,-9,5,-6,-1
14:04:07:987502,-7,0,-16,-14,-9,5,-6,-1
14:04:07:988267,12,-6,1,-9,-4,-10,-5,0
14:04:07:994366,5,5,4,-5,9,4,2,0
14:04:08:10121,5,5,4,-5,9,4,2,0
14:04:08:10903,-5,-7,-5,-4,-2,1,-1,-5
14:04:08:16814,3,10,8,-4,7,-10,3,4
14:04:08:25080,3,10,8,-4,7,-10,3,4
14:04:08:25756,-6,-2,-13,6,0,-4,-4,-3
14:04:08:31875,1,-5,0,7,14,7,-2,0
14:04:08:47537,1,-5,0,7,14,7,-2,0
14:04:08:48302,-3,-16,-9,-4,-8,-2,0,-2
14:04:08:54315,0,7,4,-1,-8,-5,1,-3
14:04:08:70075,0,7,4,-1,-8,-5,1,-3
14:04:08:70818,3,8,1,-7,-5,-2,-1,-2
14:04:08:85681,-1,-2,0,1,-3,-3,1,0
14:04:08:86488,-1,-2,0,1,-3,-3,1,0
14:04:08:87259,-6,3,-8,-2,1,-2,-5,-3
14:04:08:99296,-3,-12,-5,4,2,1,0,-4
14:04:08:107637,-3,-12,-5,4,2,1,0,-4
14:04:08:108277,-4,3,1,2,0,-6,-3,2
14:04:08:114317,8,1,-1,0,-6,-6,-4,0
14:04:08:130068,8,1,-1,0,-6,-6,-4,0
14:04:08:130810,6,-18,2,-1,1,2,0,2
14:04:08:136755,3,2,7,8,-2,-1,1,1
14:04:08:145095,3,2,7,8,-2,-1,1,1
14:04:08:145831,-5,-17,-8,-7,0,-4,-4,1
14:04:08:159265,-2,10,4,-2,-2,2,0,1
14:04:08:167522,-2,10,4,-2,-2,2,0,1
14:04:08:168322,5,4,25,3,-2,-2,0,1
14:04:08:174406,-2,5,5,2,-1,8,0,1
14:04:08:190047,-2,5,5,2,-1,8,0,1
14:04:08:190807,3,9,5,2,-1,1,2,-3
14:04:08:196807,1,5,1,-5,-3,-4,0,0
14:04:08:204993,1,5,1,-5,-3,-4,0,0
14:04:08:205786,-7,2,-5,5,6,10,-1,-2
14:04:08:219305,-2,-2,-24,0,0,1,-1,-12
14:04:08:227586,-2,-2,-24,0,0,1,-1,-12
14:04:08:228342,1,2,-34,-9,-4,-13,-7,-1
14:04:08:234279,-5,1,0,-3,-13,-3,1,-4
14:04:08:241878,-5,1,0,-3,-13,-3,1,-4
14:04:08:249347,3,4,-21,-9,-3,5,-2,-2
14:04:08:256922,-4,-5,-12,5,8,5,-2,-1
14:04:08:265074,-4,-5,-12,5,8,5,-2,-1
14:04:08:265831,1,0,18,-1,-5,-8,0,0
14:04:08:279346,4,-8,28,-3,2,-5,-1,4
14:04:08:287500,4,-8,28,-3,2,-5,-1,4
14:04:08:288287,0,3,4,1,4,4,5,-2
14:04:08:294382,-2,0,-14,4,1,-2,-2,-1
14:04:08:301879,-2,0,-14,4,1,-2,-2,-1
14:04:08:309354,2,-8,-23,-13,-8,3,2,-4
14:04:08:316792,-20,-3,-3,-1,1,-6,-3,-8
14:04:08:325070,-20,-3,-3,-1,1,-6,-3,-8
14:04:08:325819,2,5,11,2,2,4,7,6
14:04:08:339286,7,7,-10,-8,6,8,6,5
14:04:08:347542,7,7,-10,-8,6,8,6,5
14:04:08:348310,12,-5,5,0,-2,2,-10,2
14:04:08:354301,-10,-10,-32,-12,-4,-19,-8,-9
14:04:08:361933,-10,-10,-32,-12,-4,-19,-8,-9
14:04:08:369295,-12,5,-8,0,-3,0,-1,0
14:04:08:376907,3,-2,19,3,-2,0,-1,4
14:04:08:385018,3,-2,19,3,-2,0,-1,4
14:04:08:385761,11,6,4,8,7,-8,-3,-2
14:04:08:399334,-16,-3,-27,-3,-9,-9,-2,-1
14:04:08:407581,-16,-3,-27,-3,-9,-9,-2,-1
14:04:08:408306,-15,-9,24,-3,-9,-1,-4,-5
14:04:08:414353,9,-9,3,5,-8,-9,-2,5
14:04:08:421854,9,-9,3,5,-8,-9,-2,5
14:04:08:429541,-39,-3,0,-7,-2,-5,-4,-3
14:04:08:436797,13,-1,-42,-7,4,6,-6,6
14:04:08:445059,13,-1,-42,-7,4,6,-6,6
14:04:08:445849,-12,-5,-8,5,-8,5,0,-7
14:04:08:459388,-1,7,38,-6,-2,11,-6,-4
14:04:08:467560,-1,7,38,-6,-2,11,-6,-4
14:04:08:468320,11,7,6,1,3,2,0,-1
14:04:08:474468,11,-4,1,6,4,3,5,2
14:04:08:481837,11,-4,1,6,4,3,5,2
14:04:08:489273,-6,5,-5,-2,1,-7,-7,-1
14:04:08:496817,14,-8,28,-3,17,9,4,11
14:04:08:505065,14,-8,28,-3,17,9,4,11
14:04:08:505823,20,3,12,0,-12,-4,3,4
14:04:08:519308,9,9,50,25,6,-1,-1,1
14:04:08:527632,9,9,50,25,6,-1,-1,1
14:04:08:528323,-44,-9,-23,-6,15,-5,-7,-5
14:04:08:534280,-12,-1,-6,-6,-10,-11,0,-3
14:04:08:541923,-12,-1,-6,-6,-10,-11,0,-3
14:04:08:549330,43,5,8,7,5,5,4,1
14:04:08:556804,-27,0,-7,-18,-25,11,-11,-11
14:04:08:565065,-27,0,-7,-18,-25,11,-11,-11
14:04:08:565836,8,5,19,-14,-12,-1,6,1
14:04:08:579381,-11,-2,-4,-15,-4,-9,3,-12
14:04:08:587519,-11,-2,-4,-15,-4,-9,3,-12
14:04:08:588318,1,-5,-9,10,29,5,-4,-3
14:04:08:594458,-12,2,4,0,-4,4,0,1
14:04:08:601899,-12,2,4,0,-4,4,0,1
14:04:08:609329,31,-4,-5,1,-9,-4,1,7
14:04:08:616849,0,9,18,1,-2,4,-8,-10
14:04:08:625106,0,9,18,1,-2,4,-8,-10
14:04:08:625928,-13,-2,-5,-5,-3,1,-2,0
14:04:08:639356,8,-9,1,-3,-6,-3,-2,3
14:04:08:647583,8,-9,1,-3,-6,-3,-2,3
14:04:08:648334,-2,-1,19,4,9,-6,0,-5
14:04:08:654340,26,0,-2,6,7,-8,7,10
14:04:08:661962,26,0,-2,6,7,-8,7,10
14:04:08:669302,-21,5,-14,4,-14,-3,-14,1
14:04:08:676889,11,2,-13,4,5,-12,-5,1
14:04:08:684935,11,2,-13,4,5,-12,-5,1
14:04:08:685745,25,9,10,8,8,8,3,2
14:04:08:699333,-22,-1,-27,-2,-4,5,0,-3
14:04:08:707633,-22,-1,-27,-2,-4,5,0,-3
14:04:08:708293,-3,-10,-16,-5,-12,-7,-4,-1
14:04:08:714311,20,11,23,7,0,9,10,3
14:04:08:721910,20,11,23,7,0,9,10,3
14:04:08:729421,1,-3,-3,-31,-5,17,2,1
14:04:08:736795,-31,4,-9,10,-2,-19,-3,-3
14:04:08:745064,-31,4,-9,10,-2,-19,-3,-3
14:04:08:745822,-1,-5,-8,11,1,-5,-9,3
14:04:08:759336,18,-1,-8,-4,25,-2,2,1
14:04:08:767530,18,-1,-8,-4,25,-2,2,1
14:04:08:768314,-5,-2,17,-5,-11,-18,3,0
14:04:08:774457,12,-3,-27,-1,4,-4,-9,2
14:04:08:781883,12,-3,-27,-1,4,-4,-9,2
14:04:08:789276,-29,-4,10,2,0,2,-3,-7
14:04:08:796837,-15,-6,1,-18,-11,0,2,-3
14:04:08:805013,-15,-6,1,-18,-11,0,2,-3
14:04:08:805843,-14,-7,-5,6,24,13,0,-8
14:04:08:819250,0,-4,-9,-18,-15,-6,-9,-1
14:04:08:827602,0,-4,-9,-18,-15,-6,-9,-1
14:04:08:828300,-9,-9,-61,7,1,-9,11,1
14:04:08:834301,29,8,31,0,-2,-7,5,10
14:04:08:841944,29,8,31,0,-2,-7,5,10
14:04:08:849354,-6,2,13,-4,7,18,14,0
14:04:08:856852,28,2,12,3,-11,-4,9,6
14:04:08:865070,28,2,12,3,-11,-4,9,6
14:04:08:865847,16,2,23,-7,-16,-16,-10,-4
14:04:08:879357,-9,-7,-76,-6,9,8,-1,1
14:04:08:887519,-9,-7,-76,-6,9,8,-1,1
14:04:08:888286,-1,-7,-31,-28,-12,11,-3,-4
14:04:08:894341,-17,-8,13,-7,-6,-10,-1,-9
14:04:08:901922,-17,-8,13,-7,-6,-10,-1,-9
14:04:08:909306,9,3,10,8,3,-2,1,9
14:04:08:916783,-29,-10,-37,11,3,0,-14,-5
14:04:08:925019,-29,-10,-37,11,3,0,-14,-5
14:04:08:925723,4,7,25,14,11,11,-4,-6
14:04:08:939297,-10,-5,-7,6,-9,3,-8,-11
14:04:08:947552,-10,-5,-7,6,-9,3,-8,-11
14:04:08:948270,-11,-8,4,1,-11,-16,-3,-7
14:04:08:954297,-8,-3,7,-9,2,-2,3,-1
14:04:08:961917,-8,-3,7,-9,2,-2,3,-1
14:04:08:969281,-10,2,-10,-9,-6,1,-1,3
14:04:08:976892,17,0,-24,-21,-2,3,2,-1
14:04:08:984987,17,0,-24,-21,-2,3,2,-1
14:04:08:985791,-24,1,14,9,7,7,-3,-8
14:04:08:999304,-25,0,-10,19,4,2,-4,0
14:04:09:7522,-25,0,-10,19,4,2,-4,0
14:04:09:8234,13,-14,-5,3,-9,-9,-8,1
14:04:09:22480,11,3,21,3,13,3,-4,1
14:04:09:23296,11,3,21,3,13,3,-4,1
14:04:09:29365,13,2,19,12,4,-10,-6,4
14:04:09:36786,-13,-12,-26,-16,-8,-5,1,-2
14:04:09:44460,-13,-12,-26,-16,-8,-5,1,-2
14:04:09:51798,-5,-1,8,-9,3,0,4,-5
14:04:09:59332,3,6,35,10,1,19,13,2
14:04:09:67531,3,6,35,10,1,19,13,2
14:04:09:68301,2,-16,-5,1,-5,-7,0,1
14:04:09:82519,18,2,36,11,-1,2,3,6
14:04:09:83290,18,2,36,11,-1,2,3,6
14:04:09:89338,8,9,-10,4,-8,6,7,3
14:04:09:96892,6,1,-4,-10,-5,-3,7,-5
14:04:09:104337,6,1,-4,-10,-5,-3,7,-5
14:04:09:111846,9,-2,0,9,12,6,-4,-7
14:04:09:119242,1,4,2,4,-19,-12,-6,-6
14:04:09:127581,1,4,2,4,-19,-12,-6,-6
14:04:09:128258,-9,0,-13,-10,-6,-11,5,0
14:04:09:142497,-5,-3,0,-14,5,-10,-10,-7
14:04:09:143274,-5,-3,0,-14,5,-10,-10,-7
14:04:09:149313,-4,1,7,-3,2,-6,0,2
14:04:09:156782,-31,-5,-20,19,-8,-13,-9,-6
14:04:09:164394,-31,-5,-20,19,-8,-13,-9,-6
14:04:09:171799,17,-3,-20,0,-7,-6,-1,1
14:04:09:179360,-1,1,16,6,-10,6,3,0
14:04:09:187501,-1,1,16,6,-10,6,3,0
14:04:09:188303,-10,4,10,18,9,13,1,-7
14:04:09:202470,25,3,10,-6,-1,-4,-2,7
14:04:09:203307,25,3,10,-6,-1,-4,-2,7
14:04:09:209312,-11,-2,-19,-23,-3,-4,-17,-5
14:04:09:216797,4,-7,7,-11,15,19,4,-3
14:04:09:224456,4,-7,7,-11,15,19,4,-3
14:04:09:231814,-10,1,-4,0,-6,0,3,0
14:04:09:239288,19,9,-3,-3,-5,3,-2,-1
14:04:09:247558,19,9,-3,-3,-5,3,-2,-1
14:04:09:248349,20,1,1,2,6,-5,6,8
14:04:09:262596,-21,-1,2,1,17,14,12,5
14:04:09:263365,-21,-1,2,1,17,14,12,5
14:04:09:269271,-17,-6,-19,-22,-17,-17,-5,2
14:04:09:276924,-1,-1,-3,-15,3,12,1,1
14:04:09:284388,-1,-1,-3,-15,3,12,1,1
14:04:09:291815,-3,2,-5,-2,-6,-1,3,-5
14:04:09:299320,-5,-5,5,3,9,11,-8,-2
14:04:09:307548,-5,-5,5,3,9,11,-8,-2
14:04:09:308269,1,-18,0,-3,-17,-7,1,-5
14:04:09:322563,27,6,-2,-12,-5,0,3,3
14:04:09:323350,27,6,-2,-12,-5,0,3,3
14:04:09:329398,0,1,6,-14,-17,2,-10,3
14:04:09:336795,4,4,-19,2,13,-3,6,-4
14:04:09:344372,4,4,-19,2,13,-3,6,-4
14:04:09:351811,0,4,12,-1,6,2,10,-1
14:04:09:359327,-8,0,-6,-13,-14,-2,7,1
14:04:09:367485,-8,0,-6,-13,-14,-2,7,1
14:04:09:368317,3,8,-10,-30,-2,3,3,6
14:04:09:382467,9,-6,-18,-9,1,-12,-13,-9
14:04:09:383286,9,-6,-18,-9,1,-12,-13,-9
14:04:09:389359,10,7,5,6,14,5,-6,-2
14:04:09:396870,-10,-3,31,17,-11,0,-2,6
14:04:09:404319,-10,-3,31,17,-11,0,-2,6
14:04:09:411882,-4,2,-3,9,18,3,1,-5
14:04:09:419219,-5,3,15,1,-7,-7,-9,-4
14:04:09:427661,-5,3,15,1,-7,-7,-9,-4
14:04:09:428318,1,5,20,0,-3,2,2,4
14:04:09:442517,8,-3,-5,14,4,-3,0,3
14:04:09:443291,8,-3,-5,14,4,-3,0,3
14:04:09:449292,-2,-6,6,6,-6,-11,-6,0
14:04:09:456919,-16,-1,-5,11,22,-7,-19,-6
14:04:09:464382,-16,-1,-5,11,22,-7,-19,-6
14:04:09:471818,-31,-9,-19,-6,-14,-1,-2,-7
14:04:09:479409,11,-4,-24,-3,-1,-25,1,-11
14:04:09:487536,11,-4,-24,-3,-1,-25,1,-11
14:04:09:488324,7,0,4,-10,23,16,-2,1
14:04:09:510676,-23,-12,-2,-13,0,-8,-1,5
14:04:09:511468,-23,-12,-2,-13,0,-8,-1,5
14:04:09:512262,-32,-3,-13,-1,-2,1,0,-9
14:04:09:516802,-1,5,-7,-21,-13,-11,-1,-3
14:04:09:524466,-1,5,-7,-21,-13,-11,-1,-3
14:04:09:531809,16,-2,2,7,3,11,-6,-1
14:04:09:539332,28,0,5,17,-4,1,-6,3
14:04:09:547534,28,0,5,17,-4,1,-6,3
14:04:09:548329,5,12,-9,8,5,-4,-3,-7
14:04:09:562583,-13,-3,-5,6,0,12,4,-4
14:04:09:563399,-13,-3,-5,6,0,12,4,-4
14:04:09:569266,18,-4,7,0,-6,-3,7,7
14:04:09:576894,-9,-3,-19,-24,7,6,-1,1
14:04:09:584429,-9,-3,-19,-24,7,6,-1,1
14:04:09:591824,-12,1,-11,-18,-3,-13,-5,-1
14:04:09:599344,-8,5,7,11,4,-1,0,0
14:04:09:607628,-8,5,7,11,4,-1,0,0
14:04:09:608324,17,-1,-17,-10,-24,2,0,4
14:04:09:622507,5,1,9,-6,-9,-2,-8,0
14:04:09:623283,5,1,9,-6,-9,-2,-8,0
14:04:09:629350,2,0,13,-5,0,-12,3,0
14:04:09:636785,-7,-4,-6,5,-8,-14,-4,-3
14:04:09:644465,-7,-4,-6,5,-8,-14,-4,-3
14:04:09:651813,17,-5,-2,20,4,-2,7,9
14:04:09:659345,-27,-9,3,-2,-2,3,-1,-4
14:04:09:667581,-27,-9,3,-2,-2,3,-1,-4
14:04:09:668332,1,-4,-22,5,2,-2,-8,-3
14:04:09:682545,11,3,-5,18,21,24,-3,-3
14:04:09:683331,11,3,-5,18,21,24,-3,-3
14:04:09:689279,30,-1,5,-11,-8,-6,-1,3
14:04:09:696859,-6,-4,0,-7,-15,-7,-1,1
14:04:09:704379,-6,-4,0,-7,-15,-7,-1,1
14:04:09:711908,-15,4,6,1,8,-1,2,-1
14:04:09:719262,15,-4,-3,-5,-15,13,8,-2
14:04:09:727613,15,-4,-3,-5,-15,13,8,-2
14:04:09:728263,-20,8,-9,13,-12,-8,-2,-5
14:04:09:742505,-20,5,15,6,-4,-17,-1,0
14:04:09:743262,-20,5,15,6,-4,-17,-1,0
14:04:09:749347,-16,-4,7,0,6,3,-6,-7
14:04:09:756958,-15,5,16,1,-7,0,9,-1
14:04:09:764386,-15,5,16,1,-7,0,9,-1
14:04:09:771834,-37,-5,22,8,0,0,-6,-2
14:04:09:788148,10,-7,-2,-9,-3,-16,-2,-3
14:04:09:788956,10,-7,-2,-9,-3,-16,-2,-3
14:04:09:789709,22,2,19,-3,6,10,13,3
14:04:09:802494,-16,0,12,1,-8,-7,-1,-13
14:04:09:803292,-16,0,12,1,-8,-7,-1,-13
14:04:09:809334,11,-1,-7,-13,0,-6,-7,-7
14:04:09:816792,-3,1,-8,-9,0,0,3,6
14:04:09:824440,-3,1,-8,-9,0,0,3,6
14:04:09:831838,16,-2,-8,-16,7,3,-3,1
14:04:09:839341,12,5,-7,-5,-5,1,2,1
14:04:09:847528,12,5,-7,-5,-5,1,2,1
14:04:09:848300,12,1,16,5,8,-14,-11,-1
14:04:09:862628,18,-2,-2,-3,-2,4,-4,5
14:04:09:863302,18,-2,-2,-3,-2,4,-4,5
14:04:09:869263,11,-5,0,1,-9,5,5,2
14:04:09:876912,-7,-1,0,-1,14,5,1,-7
14:04:09:884352,-7,-1,0,-1,14,5,1,-7
14:04:09:891868,11,-4,-7,7,11,7,-3,-2
14:04:09:899351,23,1,-7,3,-6,0,3,6
14:04:09:907669,23,1,-7,3,-6,0,3,6
14:04:09:908349,-13,3,-4,11,-11,0,-2,-9
14:04:09:922533,12,-1,-1,-1,0,0,-5,0
14:04:09:923300,12,-1,-1,-1,0,0,-5,0
14:04:09:929399,11,-10,-13,0,-11,1,9,0
14:04:09:936808,7,2,8,8,-1,-9,-21,3
14:04:09:944422,7,2,8,8,-1,-9,-21,3
14:04:09:951772,-21,-7,-10,-18,-18,-7,-3,-2
14:04:09:959304,-11,6,3,9,14,13,-2,3
14:04:09:966896,-11,6,3,9,14,13,-2,3
14:04:09:974366,-22,-2,15,-1,1,-6,-3,-8
14:04:09:982541,-30,-4,-14,-1,5,-2,1,-5
14:04:09:983339,-30,-4,-14,-1,5,-2,1,-5
14:04:09:989326,-2,5,6,10,1,11,2,1
14:04:10:4983,-19,-4,18,-23,-13,-9,2,-11
14:04:10:5781,-19,-4,18,-23,-13,-9,2,-11
14:04:10:11814,1,4,2,25,31,-5,2,3
14:04:10:19253,1,1,-6,-12,-6,4,12,3
14:04:10:26957,1,1,-6,-12,-6,4,12,3
14:04:10:34324,-11,-3,-25,-22,0,3,-11,-5
14:04:10:42488,7,0,-21,-9,2,-2,2,-2
14:04:10:43282,7,0,-21,-9,2,-2,2,-2
14:04:10:49350,-6,-2,0,12,4,2,-8,-2
14:04:10:65535,-5,-8,-24,8,-16,-11,-9,-5
14:04:10:66325,-5,-8,-24,8,-16,-11,-9,-5
14:04:10:71819,-6,2,6,-14,3,1,1,3
14:04:10:79377,19,3,12,-11,-12,8,6,5
14:04:10:86877,19,3,12,-11,-12,8,6,5
14:04:10:94444,11,-4,-7,6,-16,-9,-4,2
14:04:10:102459,4,-2,-4,1,13,3,1,7
14:04:10:103255,4,-2,-4,1,13,3,1,7
14:04:10:109348,-10,-7,-2,-8,-3,2,9,5
14:04:10:125009,-9,1,9,-5,6,3,2,-2
14:04:10:125792,-9,1,9,-5,6,3,2,-2
14:04:10:131831,13,1,5,-9,7,-2,1,0
14:04:10:139327,12,2,-6,2,-9,1,-5,0
14:04:10:146894,12,2,-6,2,-9,1,-5,0
14:04:10:154296,-7,-3,0,3,-1,0,-6,-3
14:04:10:162605,6,4,6,1,4,6,6,-5
14:04:10:163327,6,4,6,1,4,6,6,-5
14:04:10:169220,19,1,7,2,-12,-20,0,-3
14:04:10:184970,18,-1,10,-8,3,-6,-6,3
14:04:10:185791,18,-1,10,-8,3,-6,-6,3
14:04:10:191851,-13,4,4,17,22,9,-6,-3
14:04:10:199332,-17,-6,-7,-4,-14,-11,0,1
14:04:10:206855,-17,-6,-7,-4,-14,-11,0,1
14:04:10:214287,17,-15,14,-5,11,13,8,1
14:04:10:222496,1,-6,8,-2,-8,-8,-7,-5
14:04:10:223269,1,-6,8,-2,-8,-8,-7,-5
14:04:10:229386,2,9,-4,-7,-2,-7,-3,0
14:04:10:253117,-23,-1,-9,18,13,7,-11,-3
14:04:10:253908,-23,-1,-9,18,13,7,-11,-3
14:04:10:254737,-22,-2,-5,-10,-11,-5,0,1
14:04:10:259307,-34,-4,8,-8,20,7,4,-5
14:04:10:266856,-34,-4,8,-8,20,7,4,-5
14:04:10:274456,-15,3,-12,-6,-20,-7,-9,-6
14:04:10:282536,-1,1,-3,-3,-8,0,0,-1
14:04:10:283331,-1,1,-3,-3,-8,0,0,-1
14:04:10:289326,14,-3,2,-6,-8,-6,-6,3
14:04:10:304993,27,-4,1,-17,1,0,1,0
14:04:10:305821,27,-4,1,-17,1,0,1,0
14:04:10:311843,19,5,-14,-2,-12,7,-2,-2
14:04:10:319292,-3,3,-9,12,0,0,1,-4
14:04:10:326930,-3,3,-9,12,0,0,1,-4
14:04:10:343227,-27,2,0,7,-6,0,4,2
14:04:10:343954,-9,-1,5,0,0,-5,-1,1
14:04:10:344751,-9,-1,5,0,0,-5,-1,1
14:04:10:349260,-22,-2,-4,-12,6,-5,4,-3
14:04:10:365029,16,2,5,0,2,2,-2,8
14:04:10:365789,16,2,5,0,2,2,-2,8
14:04:10:371784,5,2,10,4,2,-3,3,3
14:04:10:379463,4,-6,-1,8,8,13,9,-4
14:04:10:386817,4,-6,-1,8,8,13,9,-4
14:04:10:394314,-2,2,6,4,-13,-2,-1,0
14:04:10:402452,-26,-7,-8,-7,-8,-8,-15,-7
14:04:10:403310,-26,-7,-8,-7,-8,-8,-15,-7
14:04:10:416840,-1,-2,-6,12,29,12,-4,-13
14:04:10:425014,4,3,5,-1,-5,-5,-8,0
14:04:10:425795,4,3,5,-1,-5,-5,-8,0
14:04:10:431786,5,0,1,0,0,-10,-7,0
14:04:10:439339,14,1,-4,-6,0,1,5,7
14:04:10:446939,14,1,-4,-6,0,1,5,7
14:04:10:454285,1,3,2,-2,-7,7,3,0
14:04:10:462557,2,2,-1,6,-5,-6,5,3
14:04:10:463319,2,2,-1,6,-5,-6,5,3
14:04:10:469260,16,0,-19,-19,0,-11,-6,-5
14:04:10:485014,0,2,16,3,12,0,4,-2
14:04:10:485778,0,2,16,3,12,0,4,-2
14:04:10:491871,-16,-4,6,4,-15,-4,0,-1
14:04:10:499293,-56,-10,-12,5,-2,0,-1,-7
14:04:10:507001,-56,-10,-12,5,-2,0,-1,-7
14:04:10:514314,7,0,-3,3,0,2,1,5
14:04:10:522553,5,-1,-1,8,8,9,2,1
14:04:10:523320,5,-1,-1,8,8,9,2,1
14:04:10:529372,6,-5,-8,-5,5,-7,0,-4
14:04:10:545038,17,-2,-12,-18,-16,-17,-2,-7
14:04:10:545817,17,-2,-12,-18,-16,-17,-2,-7
14:04:10:551788,-4,1,8,6,1,-6,9,-2
14:04:10:559294,4,-4,-10,-4,-7,-9,-1,6
14:04:10:566869,4,-4,-10,-4,-7,-9,-1,6
14:04:10:574397,-3,-3,6,0,5,11,3,1
14:04:10:582521,-14,2,-2,-1,5,-7,3,-8
14:04:10:583334,-14,2,-2,-1,5,-7,3,-8
14:04:10:589363,-9,-1,-5,0,5,-2,-1,5
14:04:10:605046,5,-2,8,-2,-18,8,-5,6
14:04:10:605806,5,-2,8,-2,-18,8,-5,6
14:04:10:611854,25,2,1,-15,-17,1,6,0
14:04:10:619262,12,-2,-5,21,15,-1,6,-6
14:04:10:626979,12,-2,-5,21,15,-1,6,-6
14:04:10:643131,-19,-4,-7,1,-4,9,1,2
14:04:10:643854,13,-2,-8,-4,8,-10,-6,4
14:04:10:644770,13,-2,-8,-4,8,-10,-6,4
14:04:10:649307,-6,-3,-16,2,-19,-9,-1,-8
14:04:10:665053,-15,-3,1,15,14,11,9,-5
14:04:10:665862,-15,-3,1,15,14,11,9,-5
14:04:10:671789,0,2,2,5,3,-21,-13,6
14:04:10:679434,0,-2,14,-11,5,14,-2,2
14:04:10:686853,0,-2,14,-11,5,14,-2,2
14:04:10:694403,-15,9,-6,-4,18,27,3,-4
14:04:10:702483,-12,4,6,3,-18,-14,-5,-7
14:04:10:703238,-12,4,6,3,-18,-14,-5,-7
14:04:10:709342,12,2,5,22,5,-2,-6,4
14:04:10:724995,-1,-3,6,-3,-6,-2,-4,-2
14:04:10:725746,-1,-3,6,-3,-6,-2,-4,-2
14:04:10:731881,26,-8,3,-2,12,10,6,-2
14:04:10:739326,22,2,-12,-23,-11,-8,-9,-1
14:04:10:746959,22,2,-12,-23,-11,-8,-9,-1
14:04:10:754301,-5,2,5,-4,3,14,-1,-1
14:04:10:762572,-4,2,-7,-13,3,7,-3,2
14:04:10:763342,-4,2,-7,-13,3,7,-3,2
14:04:10:769212,-25,-7,-5,-8,-16,-14,-8,-1
14:04:10:784944,17,2,-13,6,5,-6,-2,1
14:04:10:785757,17,2,-13,6,5,-6,-2,1
14:04:10:791871,-4,-9,14,0,-1,-9,-2,-2
14:04:10:799351,15,5,2,0,11,3,4,2
14:04:10:806874,15,5,2,0,11,3,4,2
14:04:10:814258,6,0,5,-5,-8,-12,-1,-3
14:04:10:822507,-6,-4,-4,-1,-12,5,0,0
14:04:10:823333,-6,-4,-4,-1,-12,5,0,0
14:04:10:829361,-6,0,-12,-14,4,6,7,-6
14:04:10:845034,-31,-3,13,-7,-6,4,-8,-3
14:04:10:845790,-31,-3,13,-7,-6,4,-8,-3
14:04:10:851747,3,-4,-4,3,-2,2,-1,-6
14:04:10:859273,-4,-2,4,30,25,-9,-4,-7
14:04:10:866896,-4,-2,4,30,25,-9,-4,-7
14:04:10:874382,12,-2,-1,-4,-2,-14,1,2
14:04:10:882534,-7,3,-6,-9,-5,2,-3,3
14:04:10:883369,-7,3,-6,-9,-5,2,-3,3
14:04:10:889333,-13,3,-4,4,8,-7,-13,-11
14:04:10:904994,-27,4,-4,8,-5,-6,-9,-2
14:04:10:905807,-27,4,-4,8,-5,-6,-9,-2
14:04:10:911874,-3,2,-13,-20,-8,-3,-1,5
14:04:10:927598,10,-1,-4,-12,-14,9,4,1
14:04:10:928319,10,-1,-4,-12,-14,9,4,1
14:04:10:934259,0,4,11,16,-8,8,4,-1
14:04:10:942497,5,-4,-5,2,-17,5,15,-2
14:04:10:943297,5,-4,-5,2,-17,5,15,-2
14:04:10:956818,-23,-6,-4,-2,-1,2,-2,2
14:04:10:965027,5,-3,6,-3,8,16,4,0
14:04:10:965797,5,-3,6,-3,8,16,4,0
14:04:10:971784,-2,-3,-4,-14,-10,4,-4,-3
14:04:10:987494,-2,-3,-4,-14,-10,4,-4,-3
14:04:10:988257,1,0,-11,-4,11,-4,-1,-3
14:04:10:994377,15,4,-13,10,3,-5,1,1
14:04:11:2530,15,4,-13,10,3,-5,1,1
14:04:11:3283,6,-2,-4,-8,15,10,2,-1
14:04:11:16843,-4,8,-22,2,-9,-6,1,-1
14:04:11:25059,-4,8,-22,2,-9,-6,1,-1
14:04:11:25817,-22,-5,-13,-8,-12,-20,3,-2
14:04:11:31784,-10,-6,6,-2,0,-19,1,-2
14:04:11:47518,-10,-6,6,-2,0,-19,1,-2
14:04:11:48286,9,0,-8,2,-16,-6,-9,5
14:04:11:54315,2,-8,6,-14,-8,-3,-5,0
14:04:11:62604,2,-8,6,-14,-8,-3,-5,0
14:04:11:63306,-9,-2,6,-14,-2,-10,10,-2
14:04:11:76900,-12,-1,1,7,6,-1,7,-4
14:04:11:85016,-12,-1,1,7,6,-1,7,-4
14:04:11:85750,4,-4,4,9,11,-6,1,5
14:04:11:91812,4,-11,-26,-21,-3,5,2,5
14:04:11:107581,4,-11,-26,-21,-3,5,2,5
14:04:11:108248,7,3,1,-12,11,6,1,0
14:04:11:114341,23,2,2,1,-14,-7,-4,-5
14:04:11:122487,23,2,2,1,-14,-7,-4,-5
14:04:11:123271,-1,-1,-1,10,16,10,-6,-2
14:04:11:145758,4,1,-1,-9,2,-4,-5,3
14:04:11:146447,4,1,-1,-9,2,-4,-5,3
14:04:11:147292,1,3,-1,2,5,2,6,-10
14:04:11:151808,-18,0,1,-21,-17,-2,-2,3
14:04:11:167558,-18,0,1,-21,-17,-2,-2,3
14:04:11:168331,19,-3,0,-6,-3,-10,-6,-1
14:04:11:174379,-2,-6,-4,-9,18,-7,-5,-8
14:04:11:190802,-2,-6,-4,-9,18,-7,-5,-8
14:04:11:191521,-19,0,6,7,-11,-13,2,2
14:04:11:196852,-5,6,16,22,32,-5,-13,-4
14:04:11:205036,-5,6,16,22,32,-5,-13,-4
14:04:11:205809,-26,0,-32,-6,2,5,-3,2
14:04:11:211936,-18,-3,8,9,15,5,7,0
14:04:11:227598,-18,-3,8,9,15,5,7,0
14:04:11:228287,11,-6,9,7,-9,-7,-15,-1
14:04:11:234235,29,5,3,9,-9,7,-14,0
14:04:11:242502,29,5,3,9,-9,7,-14,0
14:04:11:243293,-2,-2,20,-20,-17,-2,6,0
14:04:11:256860,12,-2,20,6,10,11,7,2
14:04:11:265028,12,-2,20,6,10,11,7,2
14:04:11:265822,12,2,8,8,14,5,-4,-6
14:04:11:271765,-1,-12,3,-1,-22,3,3,3
14:04:11:287505,-1,-12,3,-1,-22,3,3,3
14:04:11:288282,11,-8,3,-6,-2,1,0,-5
14:04:11:294336,-18,7,-17,15,-1,1,-4,3
14:04:11:302463,-18,7,-17,15,-1,1,-4,3
14:04:11:303283,2,-4,-1,3,-4,6,-4,-3
14:04:11:316867,6,3,-4,1,6,4,8,0
14:04:11:325037,6,3,-4,1,6,4,8,0
14:04:11:325784,14,-1,-9,-5,-19,-9,-1,3
14:04:11:331834,1,7,5,-12,-2,-1,-1,1
14:04:11:347558,1,7,5,-12,-2,-1,-1,1
14:04:11:348275,-11,4,-3,-21,1,-1,0,-2
14:04:11:354310,-5,-5,-4,5,12,-10,1,-7
14:04:11:362608,-5,-5,-4,5,12,-10,1,-7
14:04:11:363269,-19,10,12,2,13,-12,-4,-1
14:04:11:376866,4,0,-10,0,16,-3,-4,-3
14:04:11:385012,4,0,-10,0,16,-3,-4,-3
14:04:11:385744,6,-8,12,12,10,-12,-1,-1
14:04:11:391817,-6,-12,-2,-5,-8,-9,-10,-3
14:04:11:407651,-6,-12,-2,-5,-8,-9,-10,-3
14:04:11:408304,-13,-4,-25,-15,-15,-4,-2,-1
14:04:11:414350,7,-1,5,4,-27,2,6,-4
14:04:11:422524,7,-1,5,4,-27,2,6,-4
14:04:11:423269,1,-1,-10,-5,-8,9,0,0
14:04:11:436825,-23,0,13,18,1,-4,-3,-3
14:04:11:445108,-23,0,13,18,1,-4,-3,-3
14:04:11:445817,6,4,17,22,4,0,4,1
14:04:11:451837,24,4,1,-9,-8,-5,2,6
14:04:11:467548,24,4,1,-9,-8,-5,2,6
14:04:11:468350,5,-4,-10,-1,-6,-2,-8,-6
14:04:11:474365,-1,-8,-1,-4,-2,6,6,-4
14:04:11:482475,-1,-8,-1,-4,-2,6,6,-4
14:04:11:483238,-3,2,-3,3,8,7,6,4
14:04:11:496860,-3,0,-15,-20,-4,-5,-1,5
14:04:11:504965,-3,0,-15,-20,-4,-5,-1,5
14:04:11:505747,9,4,-3,4,-4,-5,-4,-5
14:04:11:511831,-7,-2,-2,-6,15,-3,-5,-6
14:04:11:527604,-7,-2,-2,-6,15,-3,-5,-6
14:04:11:528319,12,-3,-18,-2,10,4,-2,5
14:04:11:534312,-17,-4,-7,-8,-5,6,-11,-7
14:04:11:542536,-17,-4,-7,-8,-5,6,-11,-7
14:04:11:543260,8,-1,15,2,17,24,9,-1
14:04:11:556803,15,3,-4,13,-3,4,11,-2
14:04:11:565071,15,3,-4,13,-3,4,11,-2
14:04:11:565849,-5,-4,1,6,-19,-11,-2,3
14:04:11:571815,-9,0,11,0,-6,-9,0,1
14:04:11:587540,-9,0,11,0,-6,-9,0,1
14:04:11:588271,-6,1,-7,6,13,6,2,-4
14:04:11:594387,-9,-3,7,9,-6,1,0,-6
14:04:11:602514,-9,-3,7,9,-6,1,0,-6
14:04:11:603294,-17,-2,9,-9,-20,-10,-4,-3
14:04:11:616842,1,-1,-1,-10,9,-3,0,4
14:04:11:625099,1,-1,-1,-10,9,-3,0,4
14:04:11:625812,-30,1,8,13,14,6,9,-8
14:04:11:631836,9,4,6,-12,-22,-7,-2,0
14:04:11:647532,9,4,6,-12,-22,-7,-2,0
14:04:11:648313,-16,1,18,3,2,-2,-2,3
14:04:11:654270,5,6,-3,0,9,-2,-6,-1
14:04:11:662585,5,6,-3,0,9,-2,-6,-1
14:04:11:663338,7,-1,0,-3,3,-6,-6,1
14:04:11:676820,13,1,9,8,1,0,-25,-2
14:04:11:685048,13,1,9,8,1,0,-25,-2
14:04:11:685785,-14,-11,-12,-17,5,-1,1,-5
14:04:11:691838,-9,0,-5,-4,-4,24,12,-3
14:04:11:707599,-9,0,-5,-4,-4,24,12,-3
14:04:11:708279,-16,-3,-6,-1,-11,0,-2,-2
14:04:11:714297,-33,-8,-30,-13,0,2,5,-2
14:04:11:722265,-33,-8,-30,-13,0,2,5,-2
14:04:11:729446,3,3,1,-10,-13,-15,-8,2
14:04:11:736736,10,1,8,5,9,-14,-11,1
14:04:11:745083,10,1,8,5,9,-14,-11,1
14:04:11:745803,7,2,-4,-12,-20,0,-1,-2
14:04:11:751779,16,0,9,-10,-8,12,3,7
14:04:11:767584,16,0,9,-10,-8,12,3,7
14:04:11:768351,17,-2,2,16,-5,3,-1,-3
14:04:11:774831,6,1,8,-4,4,8,-2,-6
14:04:11:782541,6,1,8,-4,4,8,-2,-6
14:04:11:783320,-5,-8,-17,-14,-6,-1,-2,7
14:04:11:806737,12,1,-3,14,3,-13,6,5
14:04:11:807545,12,1,-3,14,3,-13,6,5
14:04:11:812539,2,3,-4,2,9,2,3,-3
14:04:11:813207,10,-12,-1,0,11,-4,10,-1
14:04:11:827546,10,-12,-1,0,11,-4,10,-1
14:04:11:828298,-10,2,1,-8,-6,4,-5,-9
14:04:11:834309,3,0,-6,-2,-18,-11,-17,-1
14:04:11:841859,3,0,-6,-2,-18,-11,-17,-1
14:04:11:866292,4,-1,-1,0,6,1,6,6
14:04:11:867073,-14,1,-5,14,5,13,-6,-4
14:04:11:867924,-14,1,-5,14,5,13,-6,-4
14:04:11:868738,1,3,-1,2,-9,-7,-2,-3
14:04:11:879412,13,0,-4,-4,-13,-2,0,0
14:04:11:887507,13,0,-4,-4,-13,-2,0,0
14:04:11:888303,17,0,-8,-2,-1,-2,-1,-2
14:04:11:894371,-28,-9,-5,6,10,-35,-5,-3
14:04:11:901851,-28,-9,-5,6,10,-35,-5,-3
14:04:11:909316,11,2,7,7,14,9,3,3
14:04:11:916794,12,2,0,-2,0,5,-8,0
14:04:11:925023,12,2,0,-2,0,5,-8,0
14:04:11:925784,13,-11,-2,-11,-4,-15,-9,1
14:04:11:939310,-34,0,-2,3,-7,-7,10,-2
14:04:11:947563,-34,0,-2,3,-7,-7,10,-2
14:04:11:948327,-42,-8,-27,-5,8,2,-6,-5
14:04:11:954301,4,-2,-2,-5,30,-9,5,2
14:04:11:970022,4,-2,-2,-5,30,-9,5,2
14:04:11:970788,17,1,-14,-6,-6,-4,-4,5
14:04:11:976847,18,-3,2,-7,8,23,-1,-2
14:04:11:984988,18,-3,2,-7,8,23,-1,-2
14:04:11:985734,14,3,8,3,-8,-5,1,5
14:04:11:999312,-34,1,-7,-4,-18,-30,-4,-6
14:04:12:7608,-34,1,-7,-4,-18,-30,-4,-6
14:04:12:8277,8,4,5,-5,4,16,-3,-5
14:04:12:14328,-11,-4,6,-4,-6,15,4,-12
14:04:12:21836,-11,-4,6,-4,-6,15,4,-12
14:04:12:29357,-3,-2,3,-1,1,-7,2,-4
14:04:12:36811,14,7,0,13,8,2,-3,8
14:04:12:45016,14,7,0,13,8,2,-3,8
14:04:12:45812,3,-1,-4,-5,-5,-17,-8,-3
14:04:12:59344,-14,0,-6,-13,1,14,2,-1
14:04:12:67515,-14,0,-6,-13,1,14,2,-1
14:04:12:68314,-14,-18,-1,2,-3,7,-4,-6
14:04:12:74450,-22,-4,4,4,-1,6,-2,3
14:04:12:81875,-22,-4,4,4,-1,6,-2,3
14:04:12:89297,-17,2,9,2,-15,1,7,-6
14:04:12:96817,2,-3,2,14,-16,-7,-9,-3
14:04:12:105011,2,-3,2,14,-16,-7,-9,-3
14:04:12:105794,4,2,1,11,-7,-17,-14,7
14:04:12:119284,32,3,5,-4,-12,-14,5,5
14:04:12:127572,32,3,5,-4,-12,-14,5,5
14:04:12:128272,22,0,-7,3,4,-17,-14,-9
14:04:12:134276,22,0,-9,-10,-10,-16,-13,-5
14:04:12:141858,22,0,-9,-10,-10,-16,-13,-5
14:04:12:149306,-18,3,1,-11,21,10,10,2
14:04:12:156860,-15,-3,9,-2,4,-3,-13,-6
14:04:12:165052,-15,-3,9,-2,4,-3,-13,-6
14:04:12:165831,-9,2,9,0,9,2,10,3
14:04:12:179357,-14,0,-2,-9,-1,11,13,1
14:04:12:187531,-14,0,-2,-9,-1,11,13,1
14:04:12:188305,-1,-16,-7,8,-10,-7,-1,-3
14:04:12:194378,-7,-4,-2,2,-3,17,4,-7
14:04:12:201868,-7,-4,-2,2,-3,17,4,-7
14:04:12:209330,3,8,0,-7,-15,3,2,3
14:04:12:216794,-13,0,3,1,10,7,10,5
14:04:12:225080,-13,0,3,1,10,7,10,5
14:04:12:225852,4,3,6,-14,2,8,7,-6
14:04:12:239304,18,-1,-4,-15,-11,11,5,0
14:04:12:247551,18,-1,-4,-15,-11,11,5,0
14:04:12:248325,39,-6,15,5,0,2,5,5
14:04:12:254277,19,-1,-15,-5,0,-8,0,0
14:04:12:261956,19,-1,-15,-5,0,-8,0,0
14:04:12:269284,-15,0,11,17,14,9,2,6
14:04:12:276862,8,-6,6,7,18,-7,-7,0
14:04:12:285096,8,-6,6,7,18,-7,-7,0
14:04:12:285752,9,5,-3,7,-3,9,17,8
14:04:12:299315,1,3,-8,-5,-13,-6,-3,0
14:04:12:307582,1,3,-8,-5,-13,-6,-3,0
14:04:12:308306,-13,-9,-5,8,12,15,-9,-6
14:04:12:314331,-26,0,-16,-10,-3,0,-4,2
14:04:12:321847,-26,0,-16,-10,-3,0,-4,2
14:04:12:329412,-18,5,-3,-14,-1,-14,-4,-4
14:04:12:336808,17,3,7,-5,9,-16,-10,3
14:04:12:345077,17,3,7,-5,9,-16,-10,3
14:04:12:345821,-19,1,-25,-2,-1,-4,-12,-8
14:04:12:359318,-15,-4,8,15,6,2,3,-2
14:04:12:367530,-15,-4,8,15,6,2,3,-2
14:04:12:368283,-18,-13,1,-2,0,-5,-3,0
14:04:12:374406,-3,8,-8,6,12,-10,2,-7
14:04:12:381847,-3,8,-8,6,12,-10,2,-7
14:04:12:389300,6,5,-2,-12,-20,-12,-2,2
14:04:12:396860,17,1,10,3,-7,6,7,2
14:04:12:405048,17,1,10,3,-7,6,7,2
14:04:12:405781,27,-3,-6,-17,12,-7,0,0
14:04:12:419296,8,-1,0,-2,-10,13,5,2
14:04:12:427594,8,-1,0,-2,-10,13,5,2
14:04:12:428363,6,1,1,-9,-13,-10,-2,-6
14:04:12:434308,10,-4,-4,-6,2,3,7,-2
14:04:12:441892,10,-4,-4,-6,2,3,7,-2
14:04:12:449298,-9,0,-7,3,-1,-7,-3,-2
14:04:12:456832,-28,5,13,1,6,13,3,-4
14:04:12:465063,-28,5,13,1,6,13,3,-4
14:04:12:465846,1,-14,8,0,-8,8,3,4
14:04:12:479331,-13,-8,-10,-6,-7,-6,-6,-7
14:04:12:487513,-13,-8,-10,-6,-7,-6,-6,-7
14:04:12:488297,1,8,4,3,6,-9,2,-1
14:04:12:494425,-4,-10,-7,-5,2,9,-8,-5
14:04:12:501864,-4,-10,-7,-5,2,9,-8,-5
14:04:12:509303,-12,6,1,-9,8,-5,-7,1
14:04:12:516816,-8,-1,1,-3,4,0,3,-5
14:04:12:525116,-8,-1,1,-3,4,0,3,-5
14:04:12:525856,3,-1,-6,2,-23,8,-3,4
14:04:12:539328,33,2,-4,-9,2,4,0,7
14:04:12:547551,33,2,-4,-9,2,4,0,7
14:04:12:548366,8,-16,2,14,5,-3,1,-4
14:04:12:562568,-9,0,-5,0,-12,-5,-3,2
14:04:12:563281,-9,0,-5,0,-12,-5,-3,2
14:04:12:569223,-11,10,1,-4,8,12,-25,-8
14:04:12:576826,11,-2,3,-7,-4,-9,-8,4
14:04:12:585031,11,-2,3,-7,-4,-9,-8,4
14:04:12:585806,-34,3,-11,-6,6,0,2,-2
14:04:12:599319,-19,-1,-6,-6,-23,2,-3,-5
14:04:12:607602,-19,-1,-6,-6,-23,2,-3,-5
14:04:12:608288,2,-3,-3,-5,-17,-2,6,-4
14:04:12:614324,-14,-3,6,21,11,9,6,-3
14:04:12:621849,-14,-3,6,21,11,9,6,-3
14:04:12:629400,13,-4,4,5,-12,-7,4,5
14:04:12:636796,-11,-13,6,-8,-12,-43,-3,-1
14:04:12:645132,-11,-13,6,-8,-12,-43,-3,-1
14:04:12:645805,21,7,-1,-11,9,11,7,3
14:04:12:659266,20,4,6,1,-4,-12,-13,-1
14:04:12:667531,20,4,6,1,-4,-12,-13,-1
14:04:12:668334,-16,-2,-3,14,1,6,2,-4
14:04:12:674432,-5,2,9,12,10,11,1,-2
14:04:12:681886,-5,2,9,12,10,11,1,-2
14:04:12:689351,-11,0,-7,-12,-2,-12,-5,0
14:04:12:696881,3,3,-2,-1,15,9,8,0
14:04:12:705005,3,3,-2,-1,15,9,8,0
14:04:12:705739,-20,-1,3,-7,-10,0,-3,1
14:04:12:719285,11,-1,-2,4,2,10,4,1
14:04:12:727595,11,-1,-2,4,2,10,4,1
14:04:12:728305,14,-5,1,-3,-16,2,-2,1
14:04:12:734250,-14,1,4,-1,-9,9,-3,-3
14:04:12:741862,-14,1,4,-1,-9,9,-3,-3
14:04:12:749350,1,0,-9,0,1,-14,-18,5
14:04:12:756891,18,-10,-13,-21,-6,9,-8,-5
14:04:12:765001,18,-10,-13,-21,-6,9,-8,-5
14:04:12:765834,21,5,-10,-5,3,-4,1,-1
14:04:12:779389,-7,3,-24,-15,-6,-19,-3,-3
14:04:12:787518,-7,3,-24,-15,-6,-19,-3,-3
14:04:12:788284,16,6,20,10,17,11,5,2
14:04:12:802436,1,5,-1,7,-6,-4,-3,6
14:04:12:803240,1,5,-1,7,-6,-4,-3,6
14:04:12:809296,-3,-2,-12,-5,2,-9,0,3
14:04:12:816801,-15,2,-6,-8,5,7,-1,3
14:04:12:824424,-15,2,-6,-8,5,7,-1,3
14:04:12:840013,5,5,5,-12,-6,1,10,-2
14:04:12:840735,22,2,-5,-3,-4,-2,-1,3
14:04:12:847516,22,2,-5,-3,-4,-2,-1,3
14:04:12:848294,-10,2,7,13,0,-6,0,1
14:04:12:862575,-13,3,11,4,4,6,4,2
14:04:12:863347,-13,3,11,4,4,6,4,2
14:04:12:869268,-7,-2,9,7,3,-9,-3,-6
14:04:12:876948,13,-3,-4,13,-2,-13,-9,-5
14:04:12:884322,13,-3,-4,13,-2,-13,-9,-5
14:04:12:891870,-20,-9,2,19,-4,14,6,-7
14:04:12:899334,1,-8,7,1,-1,13,1,-4
14:04:12:907569,1,-8,7,1,-1,13,1,-4
14:04:12:908306,-11,2,10,3,-8,8,7,2
14:04:12:922510,-4,12,12,8,0,-8,-13,-3
14:04:12:923286,-4,12,12,8,0,-8,-13,-3
14:04:12:929420,22,-3,-6,7,7,7,-1,0
14:04:12:936842,-8,-10,-2,-7,5,-4,8,3
14:04:12:944438,-8,-10,-2,-7,5,-4,8,3
14:04:12:951754,2,9,10,-1,-6,-11,7,2
14:04:12:959408,-1,-10,-17,-12,-3,-2,-1,0
14:04:12:967551,-1,-10,-17,-12,-3,-2,-1,0
14:04:12:968297,-23,-6,-31,1,20,-3,-8,-11
14:04:12:982550,-30,-2,4,-15,-14,-4,4,-3
14:04:12:983296,-30,-2,4,-15,-14,-4,4,-3
14:04:12:989258,-37,-6,-5,-2,-6,-17,-13,-8
14:04:12:996830,-2,-1,-2,10,5,3,1,6
14:04:13:4328,-2,-1,-2,10,5,3,1,6
14:04:13:11863,0,1,-6,-9,-15,-4,-6,3
14:04:13:19254,-14,-10,-12,-12,-12,-20,-6,-5
14:04:13:27612,-14,-10,-12,-12,-12,-20,-6,-5
14:04:13:28285,5,-1,-2,-10,3,22,2,-3
14:04:13:42516,19,2,1,9,7,21,11,1
14:04:13:43274,19,2,1,9,7,21,11,1
14:04:13:49272,18,1,-14,-8,-4,-5,-8,6
14:04:13:56843,0,-4,-6,3,-16,-10,-4,0
14:04:13:72486,0,-4,-6,3,-16,-10,-4,0
14:04:13:73260,6,-5,12,7,20,18,2,-3
14:04:13:79328,-20,8,5,0,-5,-4,-14,-9
14:04:13:87523,-20,8,5,0,-5,-4,-14,-9
14:04:13:88258,8,0,7,7,3,-3,4,-3
14:04:13:102467,10,0,-9,-4,-4,3,4,2
14:04:13:103272,10,0,-9,-4,-4,3,4,2
14:04:13:109280,11,0,-7,5,-16,-14,-15,0
14:04:13:116794,-2,4,1,-12,12,1,8,-1
14:04:13:124514,-2,4,1,-12,12,1,8,-1
14:04:13:131849,-25,11,6,-11,-3,-6,6,-3
14:04:13:139291,5,-1,-14,2,1,-18,-6,-2
14:04:13:147539,5,-1,-14,2,1,-18,-6,-2
14:04:13:148296,12,0,-7,-3,-6,11,-9,-2
14:04:13:162570,-7,2,0,-4,3,7,3,-1
14:04:13:163315,-7,2,0,-4,3,7,3,-1
14:04:13:169230,-1,-5,19,-12,-7,-20,-5,-5
14:04:13:176816,6,-2,3,3,15,9,-1,1
14:04:13:184381,6,-2,3,3,15,9,-1,1
14:04:13:199958,11,-5,-4,-11,-3,-4,0,0
14:04:13:200734,15,6,15,4,1,-7,-9,2
14:04:13:207614,15,6,15,4,1,-7,-9,2
14:04:13:208284,-16,1,-27,-14,3,9,2,-1
14:04:13:222520,-7,-7,-11,-5,-22,2,-10,-3
14:04:13:223362,-7,-7,-11,-5,-22,2,-10,-3
14:04:13:229377,-4,2,-3,4,6,2,8,1
14:04:13:236731,-4,-7,5,5,8,-16,-13,2
14:04:13:244411,-4,-7,5,5,8,-16,-13,2
14:04:13:251783,1,-4,-8,-6,3,8,-3,1
14:04:13:259326,-21,0,1,-5,-5,5,-4,-8
14:04:13:267551,-21,0,1,-5,-5,5,-4,-8
14:04:13:268333,-2,-1,5,-2,0,-7,2,-2
14:04:13:282501,-24,-5,-11,2,-6,2,8,-6
14:04:13:283287,-24,-5,-11,2,-6,2,8,-6
14:04:13:289319,-11,0,4,-2,-7,-3,1,0
14:04:13:296858,-7,2,-15,3,-7,-2,11,-4
14:04:13:304373,-7,2,-15,3,-7,-2,11,-4
14:04:13:311851,-2,-5,-11,-6,-4,-7,1,-3
14:04:13:319265,10,-1,1,-7,7,-6,8,5
14:04:13:327650,10,-1,1,-7,7,-6,8,5
14:04:13:328348,9,-8,-2,-1,-5,-4,1,3
14:04:13:342521,8,-4,-2,-5,8,11,8,-1
14:04:13:343329,8,-4,-2,-5,8,11,8,-1
14:04:13:349327,8,-3,3,7,0,-8,-3,0
14:04:13:356926,14,-1,11,1,8,-1,4,1
14:04:13:364371,14,-1,11,1,8,-1,4,1
14:04:13:371846,6,-4,2,-2,-9,3,3,1
14:04:13:379497,-19,10,5,9,-3,-34,-14,-5
14:04:13:395117,-19,10,5,9,-3,-34,-14,-5
14:04:13:395878,-30,5,9,4,14,16,4,1
14:04:13:402476,0,1,-3,-2,-8,9,-4,-1
14:04:13:403317,0,1,-3,-2,-8,9,-4,-1
14:04:13:409305,-1,1,-7,-2,-10,-15,-12,2
14:04:13:416831,28,0,8,6,10,20,-2,4
14:04:13:424452,28,0,8,6,10,20,-2,4
14:04:13:431887,25,-8,-15,-17,-4,1,7,-7
14:04:13:439307,6,-2,7,-11,-5,-12,-6,-6
14:04:13:447522,6,-2,7,-11,-5,-12,-6,-6
14:04:13:448300,11,2,4,5,22,22,1,2
14:04:13:462571,7,2,-8,2,3,0,8,1
14:04:13:463306,7,2,-8,2,3,0,8,1
14:04:13:477587,-17,1,4,-4,-9,-12,-3,-12
14:04:13:478288,-6,-3,1,-8,6,9,2,4
14:04:13:484385,-6,-3,1,-8,6,9,2,4
14:04:13:491852,-23,-4,-2,-4,5,-5,-9,1
14:04:13:499326,-2,3,0,0,-16,13,12,4
14:04:13:507591,-2,3,0,0,-16,13,12,4
14:04:13:508243,-20,-10,0,11,-6,-5,-4,-11
14:04:13:522491,-1,-5,-1,0,-5,5,0,-1
14:04:13:523268,-1,-5,-1,0,-5,5,0,-1
14:04:13:529387,23,5,4,15,21,25,8,10
14:04:13:536791,-3,-5,-7,-16,-7,-6,-3,-5
14:04:13:544417,-3,-5,-7,-16,-7,-6,-3,-5
14:04:13:551799,11,-3,-9,-18,28,-14,-7,-2
14:04:13:559343,4,0,0,-3,1,0,1,1
14:04:13:567459,4,0,0,-3,1,0,1,1
14:04:13:568263,4,5,11,11,-14,-24,-2,0
14:04:13:582497,-28,2,6,3,-2,-10,-4,1
14:04:13:583288,-28,2,6,3,-2,-10,-4,1
14:04:13:589346,-10,3,6,2,-4,8,3,1
14:04:13:596910,-7,-1,-3,8,4,-12,-7,-8
14:04:13:604326,-7,-1,-3,8,4,-12,-7,-8
14:04:13:611823,7,-6,-15,-5,-14,-15,-5,0
14:04:13:619214,26,-3,-6,-3,15,17,1,2
14:04:13:627601,26,-3,-6,-3,15,17,1,2
14:04:13:628282,11,1,-5,-9,-13,8,-1,-11
14:04:13:642539,0,-3,-7,-7,-18,-23,-11,-9
14:04:13:643342,0,-3,-7,-7,-18,-23,-11,-9
14:04:13:649275,1,5,2,5,9,9,-4,7
14:04:13:656804,-13,1,0,0,-3,0,-10,2
14:04:13:672513,-13,1,0,0,-3,0,-10,2
14:04:13:673262,-8,-7,1,3,-1,10,4,-6
14:04:13:679398,-12,-1,18,-8,-7,-11,-1,1
14:04:13:687474,-12,-1,18,-8,-7,-11,-1,1
14:04:13:688271,-8,-2,-2,-11,-9,-1,-1,0
14:04:13:702577,6,-12,-2,10,-19,-6,-1,0
14:04:13:703232,6,-12,-2,10,-19,-6,-1,0
14:04:13:709281,-1,3,-4,-11,-2,-7,-2,2
14:04:13:716853,-3,4,-5,3,-3,4,-7,6
14:04:13:724433,-3,4,-5,3,-3,4,-7,6
14:04:13:731815,1,-2,-18,7,-3,-5,-11,1
14:04:13:739252,10,-2,-11,3,30,5,-1,-6
14:04:13:746917,10,-2,-11,3,30,5,-1,-6
14:04:13:754292,-8,2,14,6,-12,6,4,-5
14:04:13:770646,-7,-1,-7,-4,0,-7,11,2
14:04:13:771465,-7,-1,-7,-4,0,-7,11,2
14:04:13:772259,-21,-5,2,2,-2,-21,1,0
14:04:13:784998,-10,-1,10,3,-6,7,5,0
14:04:13:785770,-10,-1,10,3,-6,7,5,0
14:04:13:791780,-5,13,8,-6,-15,-8,0,3
14:04:13:799326,-13,1,-8,-12,-6,-9,-7,0
14:04:13:806921,-13,1,-8,-12,-6,-9,-7,0
14:04:13:814315,12,8,2,5,8,10,5,-1
14:04:13:822545,13,3,1,12,7,9,-13,3
14:04:13:823290,13,3,1,12,7,9,-13,3
14:04:13:829387,-2,-8,5,6,3,3,-2,-5
14:04:13:845084,32,-1,5,-8,12,-9,8,1
14:04:13:845847,32,-1,5,-8,12,-9,8,1
14:04:13:851758,14,-1,-5,-14,-24,-13,-5,7
14:04:13:859268,4,0,2,10,16,15,-5,2
14:04:13:866878,4,0,2,10,16,15,-5,2
14:04:13:874420,11,-4,-3,-4,7,2,-2,1
14:04:13:882517,-22,-5,-9,4,-12,2,4,-2
14:04:13:883314,-22,-5,-9,4,-12,2,4,-2
14:04:13:889310,6,-28,-2,3,-2,-8,-8,-4
14:04:13:905018,1,0,14,5,12,8,7,-3
14:04:13:905813,1,0,14,5,12,8,7,-3
14:04:13:911868,-15,3,3,-9,-4,-13,-4,2
14:04:13:927581,-9,-7,-17,-11,-5,-8,-1,-9
14:04:13:928302,-9,-7,-17,-11,-5,-8,-1,-9
14:04:13:934276,11,5,-4,4,15,11,2,-1
14:04:13:942564,8,11,3,-2,-23,-22,-7,-1
14:04:13:943307,8,11,3,-2,-23,-22,-7,-1
14:04:13:949335,-1,2,10,2,3,-1,4,-6
14:04:13:965037,-17,-5,-3,-9,3,-6,-2,0
14:04:13:965809,-17,-5,-3,-9,3,-6,-2,0
14:04:13:979970,14,2,0,-3,6,4,-11,5
14:04:13:980731,-15,11,-6,0,-5,-13,-20,-7
14:04:13:986816,-15,11,-6,0,-5,-13,-20,-7
14:04:13:994369,-8,-8,10,7,9,15,9,3
14:04:14:2460,3,1,10,-3,-5,9,-2,0
14:04:14:3279,3,1,10,-3,-5,9,-2,0
14:04:14:9284,-8,3,-2,0,24,10,-2,-7
14:04:14:25026,-2,-7,-6,-4,-11,8,-3,-1
14:04:14:25786,-2,-7,-6,-4,-11,8,-3,-1
14:04:14:40006,-7,-3,3,6,6,-1,-5,-5
14:04:14:40788,20,1,1,-1,9,18,-3,-4
14:04:14:46882,20,1,1,-1,9,18,-3,-4
14:04:14:54256,-6,6,-6,-1,-11,-15,-12,-5
14:04:14:62624,16,-5,0,-5,-10,-8,-7,1
14:04:14:63312,16,-5,0,-5,-10,-8,-7,1
14:04:14:69223,13,-34,6,0,2,-3,6,4
14:04:14:85994,-3,-5,-10,-2,7,9,8,-7
14:04:14:92579,-3,-5,-10,-2,7,9,8,-7
14:04:14:93257,-19,6,0,9,-1,11,-6,-4
14:04:14:99284,18,-7,0,1,-4,-2,6,6
14:04:14:106855,18,-7,0,1,-4,-2,6,6
14:04:14:114296,7,5,-15,-26,-21,-12,3,0
14:04:14:122516,-7,4,-14,0,-4,-3,7,3
14:04:14:123323,-7,4,-14,0,-4,-3,7,3
14:04:14:129376,-25,-2,-3,-5,-10,15,-3,-6
14:04:14:145087,-10,2,-1,1,2,-7,2,1
14:04:14:145825,-10,2,-1,1,2,-7,2,1
14:04:14:151810,8,8,-20,-11,-15,-7,3,2
14:04:14:159278,-53,1,4,8,11,15,4,-2
14:04:14:166931,-53,1,4,8,11,15,4,-2
14:04:14:174321,18,6,-11,-1,-21,-11,1,3
14:04:14:182540,16,-9,2,3,-1,-13,5,-7
14:04:14:183366,16,-9,2,3,-1,-13,5,-7
14:04:14:189346,6,0,0,8,12,8,2,4
14:04:14:205476,3,-2,2,-28,-15,-12,1,-1
14:04:14:206268,3,-2,2,-28,-15,-12,1,-1
14:04:14:211895,-10,6,-1,-1,12,-8,-5,-8
14:04:14:219245,5,-18,7,12,-2,3,-2,-1
14:04:14:226979,5,-18,7,12,-2,3,-2,-1
14:04:14:234300,-13,11,2,-4,-1,-4,-3,-4
14:04:14:242523,-9,5,-4,-3,-2,-1,-3,-1
14:04:14:243272,-9,5,-4,-3,-2,-1,-3,-1
14:04:14:249324,13,0,-6,11,2,-2,2,2
14:04:14:264945,0,-1,10,-10,-8,3,-1,1
14:04:14:265776,0,-1,10,-10,-8,3,-1,1
14:04:14:271803,-16,0,4,6,7,12,0,-2
14:04:14:279368,0,-1,2,-2,-4,-5,-3,2
14:04:14:286808,0,-1,2,-2,-4,-5,-3,2
14:04:14:294369,-10,-7,-3,-2,4,-5,-1,-9
14:04:14:302438,18,1,-14,9,7,-1,-13,-3
14:04:14:303273,18,1,-14,9,7,-1,-13,-3
14:04:14:316793,4,-5,-5,-5,-5,-10,0,3
14:04:14:325077,4,-5,-5,-5,-5,-10,0,3
14:04:14:325819,12,-1,-4,-7,-5,0,-7,-3
14:04:14:331855,16,1,7,1,1,7,2,-2
14:04:14:347520,16,1,7,1,1,7,2,-2
14:04:14:348275,-36,-2,7,2,5,10,11,-14
14:04:14:354306,14,4,3,0,-6,-2,1,6
14:04:14:362600,14,4,3,0,-6,-2,1,6
14:04:14:363312,5,-5,-21,2,10,-9,-10,4
14:04:14:369308,-29,0,-2,-14,2,-3,-1,-3
14:04:14:385012,-29,0,-2,-14,2,-3,-1,-3
14:04:14:385720,-1,9,4,-4,-6,-3,1,1
14:04:14:391866,6,2,5,7,1,-9,4,7
14:04:14:407667,6,2,5,7,1,-9,4,7
14:04:14:408284,14,3,0,-4,-9,-30,-6,-3
14:04:14:414344,14,-13,8,-5,2,13,-2,0
14:04:14:422484,14,-13,8,-5,2,13,-2,0
14:04:14:423252,26,-5,6,-3,-3,0,3,0
14:04:14:429355,-2,-2,-5,-3,-4,-13,-8,3
14:04:14:445120,-2,-2,-5,-3,-4,-13,-8,3
14:04:14:445852,7,-1,-14,-11,-8,4,-4,3
14:04:14:451791,-4,-2,-14,6,9,0,-12,-3
14:04:14:467566,-4,-2,-14,6,9,0,-12,-3
14:04:14:468333,2,-4,-8,-7,0,4,5,7
14:04:14:483185,7,-5,-6,-2,-6,6,6,2
14:04:14:483960,7,-5,-6,-2,-6,6,6,2
14:04:14:484805,-7,-2,6,1,9,5,-3,-7
14:04:14:489300,4,-2,4,-9,-10,1,-1,0
14:04:14:505485,4,-2,4,-9,-10,1,-1,0
14:04:14:506221,12,3,2,4,7,12,10,3
14:04:14:511876,-15,3,-11,-3,-10,-1,-10,-7
14:04:14:527544,-15,3,-11,-3,-10,-1,-10,-7
14:04:14:528320,-7,3,-21,6,-2,2,9,2
14:04:14:534297,-6,-1,1,-4,-19,0,5,-5
14:04:14:542506,-6,-1,1,-4,-19,0,5,-5
14:04:14:543305,-14,0,6,11,8,-4,-3,-3
14:04:14:549302,22,-2,-5,-1,7,-2,-2,3
14:04:14:565027,22,-2,-5,-1,7,-2,-2,3
14:04:14:565774,-2,-1,4,-12,-12,2,-9,-6
14:04:14:571839,8,3,3,-4,-4,-17,2,-1
14:04:14:595716,8,3,3,-4,-4,-17,2,-1
14:04:14:596457,-11,-1,0,8,6,3,-12,4
14:04:14:597289,-11,4,-5,-4,-4,-8,-6,-2
14:04:14:602482,-11,4,-5,-4,-4,-8,-6,-2
14:04:14:603279,-7,-9,-2,-5,-1,-6,-6,-7
14:04:14:609301,-23,-4,11,8,8,5,5,-5
14:04:14:625050,-23,-4,11,8,8,5,5,-5
14:04:14:625805,-11,0,7,-3,-12,-7,-1,-5
14:04:14:631782,-1,0,7,1,0,-8,-7,-5
14:04:14:647532,-1,0,7,1,0,-8,-7,-5
14:04:14:648325,-7,3,-6,5,14,4,-9,7
14:04:14:654247,-11,3,1,-1,-2,-6,0,-1
14:04:14:662356,-11,3,1,-1,-2,-6,0,-1
14:04:14:669908,7,-5,3,3,-7,-1,8,-2
14:04:14:670727,4,-2,-14,4,7,8,-4,1
14:04:14:685071,4,-2,-14,4,7,8,-4,1
14:04:14:685781,14,4,-5,5,-7,-10,7,0
14:04:14:691786,5,2,3,-6,-1,14,1,4
14:04:14:707568,5,2,3,-6,-1,14,1,4
14:04:14:708254,-9,-7,-1,-4,-2,16,8,-7
14:04:14:714310,7,3,1,0,-5,6,12,0
14:04:14:722530,7,3,1,0,-5,6,12,0
14:04:14:723295,-5,0,-4,1,-2,-3,4,3
14:04:14:736769,4,-2,-7,-5,0,8,6,0
14:04:14:745104,4,-2,-7,-5,0,8,6,0
14:04:14:745794,8,-2,4,-6,-11,-13,-2,-2
14:04:14:751770,-23,1,5,0,-2,9,9,-2
14:04:14:767497,-23,1,5,0,-2,9,9,-2
14:04:14:768306,3,2,-6,-9,7,-4,-6,3
14:04:14:783152,19,1,-3,-5,1,-9,2,5
14:04:14:783950,19,1,-3,-5,1,-9,2,5
14:04:14:784754,-15,2,5,3,-2,-7,11,1
14:04:14:796872,-11,-5,-9,-8,-21,-4,-5,-10
14:04:14:804981,-11,-5,-9,-8,-21,-4,-5,-10
14:04:14:805752,9,3,4,1,2,3,-6,-5
14:04:14:811877,26,0,6,14,11,-4,-1,6
14:04:14:827629,26,0,6,14,11,-4,-1,6
14:04:14:828299,5,-2,0,-6,0,13,6,-2
14:04:14:834303,-6,-6,-5,-10,7,11,-8,-4
14:04:14:842534,-6,-6,-5,-10,7,11,-8,-4
14:04:14:843237,-1,1,-5,11,16,-5,-2,8
14:04:14:856804,-15,-3,1,6,-23,-10,-9,2
14:04:14:873204,-15,-3,1,6,-23,-10,-9,2
14:04:14:873965,-19,-5,6,-14,-6,-7,-6,-5
14:04:14:874724,6,2,-3,-12,-3,-6,10,-3
14:04:14:879359,6,2,-3,-12,-3,-6,10,-3
14:04:14:886769,-9,0,2,2,-5,-9,12,-1
14:04:14:894354,-16,-1,3,8,28,5,2,0
14:04:14:902517,-16,-1,3,8,28,5,2,0
14:04:14:903318,9,0,-5,3,6,3,-10,-3
14:04:14:916812,14,4,-5,-2,2,-5,-4,1
14:04:14:925102,14,4,-5,-2,2,-5,-4,1
14:04:14:925863,5,-5,-5,-4,-16,-10,-13,3
14:04:14:931848,13,0,-13,-4,-26,-1,7,-1
14:04:14:939399,13,0,-13,-4,-26,-1,7,-1
14:04:14:946907,-10,-4,1,-1,1,17,1,-4
14:04:14:954298,-9,-8,6,-8,-2,-2,4,-1
14:04:14:962532,-9,-8,6,-8,-2,-2,4,-1
14:04:14:963286,5,-1,-1,-18,-9,0,-1,-1
14:04:14:985637,0,2,6,8,19,5,-6,-3
14:04:14:986461,0,2,6,8,19,5,-6,-3
14:04:14:987251,-6,-3,-1,0,-6,-4,-3,3
14:04:14:991843,0,0,-2,-6,-8,-4,-12,-3
14:04:14:999390,0,0,-2,-6,-8,-4,-12,-3
14:04:15:6781,37,8,11,11,32,-7,-17,2
14:04:15:14336,-14,-7,2,-9,6,19,-5,-6
14:04:15:22523,-14,-7,2,-9,6,19,-5,-6
14:04:15:23344,-3,1,7,-2,-5,-5,-2,1
14:04:15:36771,3,5,-1,-8,-8,-20,-12,2
14:04:15:45107,3,5,-1,-8,-8,-20,-12,2
14:04:15:45797,-18,-3,6,7,10,0,4,-7
14:04:15:51780,-5,-4,-7,-3,-13,6,1,0
14:04:15:59430,-5,-4,-7,-3,-13,6,1,0
14:04:15:66825,-5,2,-15,-1,-12,-20,-1,4
14:04:15:74433,-15,0,9,19,33,-4,3,1
14:04:15:82505,-15,0,9,19,33,-4,3,1
14:04:15:83296,-7,-5,-6,-6,8,13,-14,-10
14:04:15:97351,8,-3,-8,8,-2,-20,1,-1
14:04:15:104985,8,-3,-8,8,-2,-20,1,-1
14:04:15:105766,-2,1,0,6,-10,10,4,-1
14:04:15:111861,-4,0,5,4,4,-5,1,-1
14:04:15:119281,-4,0,5,4,4,-5,1,-1
14:04:15:126829,1,-3,-4,-7,-18,-17,-3,-2
14:04:15:134254,-9,1,1,-2,0,19,-7,0
14:04:15:142900,-9,1,1,-2,0,19,-7,0
14:04:15:149295,-4,0,2,-5,2,4,4,2
14:04:15:156789,9,1,5,7,6,-18,3,-2
14:04:15:165002,9,1,5,7,6,-18,3,-2
14:04:15:165813,23,0,0,6,2,13,4,11
14:04:15:171777,-3,-2,-5,-3,-10,11,-3,-6
14:04:15:179494,-3,-2,-5,-3,-10,11,-3,-6
14:04:15:186764,7,-6,-6,-3,1,-7,-5,-7
14:04:15:194380,1,-3,-3,-3,-7,-8,-8,-9
14:04:15:202475,1,-3,-3,-3,-7,-8,-8,-9
14:04:15:203231,1,2,-9,3,4,1,6,0
14:04:15:216813,-11,1,2,-7,1,1,3,0
14:04:15:225068,-11,1,2,-7,1,1,3,0
14:04:15:225799,-29,-4,-2,-11,-6,-1,-9,-5
14:04:15:231807,-7,2,-5,-2,-5,8,2,4
14:04:15:239382,-7,2,-5,-2,-5,8,2,4
14:04:15:246917,-5,7,11,2,-9,-2,4,-4
14:04:15:263220,13,-1,0,-6,2,-21,-19,1
14:04:15:264000,13,-1,0,-6,2,-21,-19,1
14:04:15:264803,-34,-4,-4,-4,0,-2,-6,-9
14:04:15:276842,3,3,-6,-5,0,7,2,3
14:04:15:285038,3,3,-6,-5,0,7,2,3
14:04:15:285795,13,1,-5,-2,-1,-6,3,6
14:04:15:291816,-20,-5,3,4,-14,-12,1,-2
14:04:15:299382,-20,-5,3,4,-14,-12,1,-2
14:04:15:306833,30,2,6,10,7,12,4,-3
14:04:15:314335,29,-4,-2,-14,3,0,10,3
14:04:15:322530,29,-4,-2,-14,3,0,10,3
14:04:15:323252,9,0,-4,4,4,0,1,-1
14:04:15:336774,-4,2,1,2,1,-3,-2,-3
14:04:15:345079,-4,2,1,2,1,-3,-2,-3
14:04:15:345776,13,0,-13,-7,5,-4,-2,-2
14:04:15:351775,2,0,-4,-7,-8,7,3,2
14:04:15:359313,2,0,-4,-7,-8,7,3,2
14:04:15:374988,-8,-3,1,-6,-5,2,-8,0
14:04:15:375738,3,-4,-1,11,-1,-11,0,-2
14:04:15:382556,3,-4,-1,11,-1,-11,0,-2
14:04:15:383326,-39,-6,-1,-3,6,-9,3,-2
14:04:15:396880,-24,8,1,1,15,4,-3,-2
14:04:15:405022,-24,8,1,1,15,4,-3,-2
14:04:15:405788,4,0,1,4,-13,2,0,-2
14:04:15:411849,6,-5,1,2,-4,-3,0,0
14:04:15:419333,6,-5,1,2,-4,-3,0,0
14:04:15:426917,7,6,-3,-20,-7,6,0,2
14:04:15:434358,6,2,-1,0,5,2,-3,-2
14:04:15:442508,6,2,-1,0,5,2,-3,-2
14:04:15:443274,-7,-5,-24,5,4,-17,1,5
14:04:15:456827,5,-2,-4,-15,-10,-3,-2,1
14:04:15:465070,5,-2,-4,-15,-10,-3,-2,1
14:04:15:465856,8,-5,-3,0,-1,6,-3,1
14:04:15:471820,-17,2,5,14,18,5,2,-8
14:04:15:487481,-17,2,5,14,18,5,2,-8
14:04:15:488325,15,2,8,-7,-6,-1,-3,-1
14:04:15:494380,-29,-6,-3,5,-1,-4,-1,4
14:04:15:502536,-29,-6,-3,5,-1,-4,-1,4
14:04:15:503295,7,-3,12,12,14,-1,-1,1
14:04:15:516806,-16,-4,-19,-9,-12,6,-1,-4
14:04:15:525099,-16,-4,-19,-9,-12,6,-1,-4
14:04:15:525818,-26,-1,3,-7,5,-2,3,-6
14:04:15:531820,26,-3,13,-9,-10,-4,-6,0
14:04:15:539343,26,-3,13,-9,-10,-4,-6,0
14:04:15:546880,1,1,5,5,5,12,-1,-4
14:04:15:554301,14,4,1,-2,-2,-5,4,4
14:04:15:562596,14,4,1,-2,-2,-5,4,4
14:04:15:563333,-23,-3,-14,-4,1,-4,0,-3
14:04:15:576906,1,0,-9,-6,-1,0,5,2
14:04:15:584997,1,0,-9,-6,-1,0,5,2
14:04:15:585737,-22,-5,-4,7,-8,-1,4,-5
14:04:15:591893,-1,-1,4,7,2,1,-4,0
14:04:15:599390,-1,-1,4,7,2,1,-4,0
14:04:15:606809,11,5,4,-19,6,0,-2,3
14:04:15:614317,-19,-7,-7,-13,-7,7,3,-2
14:04:15:622520,-19,-7,-7,-13,-7,7,3,-2
14:04:15:623289,-17,-6,13,12,-5,-1,-5,-3
14:04:15:636825,4,-3,3,1,4,-3,-1,-2
14:04:15:652521,4,-3,3,1,4,-3,-1,-2
14:04:15:653311,5,-4,-7,-4,0,1,1,2
14:04:15:659983,-7,3,-2,3,0,2,-6,-2
14:04:15:660788,-7,3,-2,3,0,2,-6,-2
14:04:15:666799,17,5,3,11,3,-2,-4,5
14:04:15:674405,11,-1,-11,-1,-5,-1,-10,2
14:04:15:681841,11,-1,-11,-1,-5,-1,-10,2
14:04:15:689271,4,2,-7,13,1,1,0,-1
14:04:15:696873,3,-3,5,16,11,-7,1,-5
14:04:15:704945,3,-3,5,16,11,-7,1,-5
14:04:15:705757,-20,-2,4,-1,2,6,3,3
14:04:15:719939,11,1,0,-11,-4,6,1,-5
14:04:15:720771,11,1,0,-11,-4,6,1,-5
14:04:15:726776,6,-2,-6,-17,-14,-10,-10,-5
14:04:15:734279,-16,4,22,1,10,-1,-6,-2
14:04:15:741896,-16,4,22,1,10,-1,-6,-2
14:04:15:749290,9,2,3,1,9,6,2,4
14:04:15:765667,16,-2,-12,5,-1,-6,-6,-4
14:04:15:766469,16,-2,-12,5,-1,-6,-6,-4
14:04:15:767287,-7,-1,-6,-11,-11,-2,-2,-1
14:04:15:780067,1,-1,3,-5,6,-8,3,2
14:04:15:780772,1,-1,3,-5,6,-8,3,2
14:04:15:786794,11,1,0,-12,-21,-2,3,-2
14:04:15:794374,1,1,-14,-2,3,7,-1,4
14:04:15:801793,1,1,-14,-2,3,7,-1,4
14:04:15:809327,0,-7,4,4,-4,15,-7,-2
14:04:15:816774,6,-4,2,-3,-8,0,2,4
14:04:15:825079,6,-4,2,-3,-8,0,2,4
14:04:15:825764,29,-2,-4,-1,9,-7,4,7
14:04:15:839984,-10,-7,-6,-12,8,16,-4,-3
14:04:15:840784,-10,-7,-6,-12,8,16,-4,-3
14:04:15:846825,5,3,-1,-16,-13,-15,-1,-3
14:04:15:854281,-13,2,3,6,0,-29,-10,-8
14:04:15:861940,-13,2,3,6,0,-29,-10,-8
14:04:15:869246,1,-2,5,1,6,8,7,-2
14:04:15:876883,18,6,-3,-11,-21,-4,3,4
14:04:15:885028,18,6,-3,-11,-21,-4,3,4
14:04:15:885755,1,-4,5,6,5,-2,-3,-4
14:04:15:900034,-11,-4,1,-5,0,4,-5,-10
14:04:15:900820,-11,-4,1,-5,0,4,-5,-10
14:04:15:906815,4,1,7,3,-5,6,0,1
14:04:15:914354,-22,-4,-3,-4,-7,-18,-9,-5
14:04:15:930090,-22,-4,-3,-4,-7,-18,-9,-5
14:04:15:930766,-14,6,13,9,2,10,-7,-3
14:04:15:936763,-35,1,-7,4,0,-5,2,0
14:04:15:945108,-35,1,-7,4,0,-5,2,0
14:04:15:945847,-7,-2,-19,-12,-8,-24,-1,-2
14:04:15:960069,4,2,-8,5,-3,27,7,4
14:04:15:960917,4,2,-8,5,-3,27,7,4
14:04:15:966805,-2,-1,2,-6,-6,-5,1,-6
14:04:15:974362,18,-6,3,-1,-5,0,-5,4
14:04:15:981863,18,-6,3,-1,-5,0,-5,4
14:04:15:989302,2,-2,-13,2,15,10,4,3
14:04:15:996888,11,0,-1,9,-2,-16,-1,-4
14:04:16:5016,11,0,-1,9,-2,-16,-1,-4
14:04:16:5761,15,2,1,-2,-10,-15,-2,2
14:04:16:19973,-21,-3,10,-3,-3,23,5,-5
14:04:16:20765,-21,-3,10,-3,-3,23,5,-5
14:04:16:26888,-4,-2,-11,1,-5,7,4,-4
14:04:16:42501,12,-4,-14,-10,-22,-18,-3,2
14:04:16:43316,12,-4,-14,-10,-22,-18,-3,2
14:04:16:49294,4,-3,0,2,15,-10,-1,-2
14:04:16:56752,8,3,9,-10,12,-9,-8,0
14:04:16:64999,8,3,9,-10,12,-9,-8,0
14:04:16:65760,-14,1,-8,-6,-12,-10,-3,3
14:04:16:80058,19,0,6,5,14,-15,3,3
14:04:16:80782,19,0,6,5,14,-15,3,3
14:04:16:94994,1,-4,-10,-4,-3,-1,-10,-10
14:04:16:95722,-37,-4,-3,-1,-9,3,-5,-5
14:04:16:101790,-37,-4,-3,-1,-9,3,-5,-5
14:04:16:109279,-10,3,5,4,-7,9,0,3
14:04:16:116763,16,-1,-7,4,15,23,9,-2
14:04:16:125041,16,-1,-7,4,15,23,9,-2
14:04:16:125790,-13,2,8,-3,6,27,-27,-3
14:04:16:139990,7,-2,-7,-11,-5,-24,-2,0
14:04:16:140780,7,-2,-7,-11,-5,-24,-2,0
14:04:16:146821,12,-1,1,7,22,-4,-4,0
14:04:16:154275,2,-7,-8,-3,-5,-4,2,-10
14:04:16:161859,2,-7,-8,-3,-5,-4,2,-10
14:04:16:169239,-7,1,3,-5,-21,-25,4,-5
14:04:16:176821,10,8,0,14,20,18,3,10
14:04:16:185059,10,8,0,14,20,18,3,10
14:04:16:185811,0,7,-1,-1,-8,-8,6,5
14:04:16:208244,-7,4,-4,-12,-7,1,0,-1
14:04:16:208956,-7,4,-4,-12,-7,1,0,-1
14:04:16:209734,-4,-2,11,17,27,9,2,4
14:04:16:214351,-1,0,2,-10,-23,-15,-5,-1
14:04:16:221838,-1,0,2,-10,-23,-15,-5,-1
14:04:16:229428,5,-3,-4,-15,-9,-9,-11,-5
14:04:16:236747,-12,-2,0,9,10,-2,-3,-1
14:04:16:245109,-12,-2,0,9,10,-2,-3,-1
14:04:16:245820,-1,1,-11,-5,-14,1,3,-1
14:04:16:260081,-7,-3,-7,-4,7,8,2,-3
14:04:16:260843,-7,-3,-7,-4,7,8,2,-3
14:04:16:266737,2,-4,-6,-3,-3,21,5,-1
14:04:16:274421,-4,-1,2,13,-15,-3,-5,-6
14:04:16:281841,-4,-1,2,13,-15,-3,-5,-6
14:04:16:289292,-1,0,6,9,16,-10,7,3
14:04:16:296817,10,1,6,-4,-8,17,-3,-1
14:04:16:305016,10,1,6,-4,-8,17,-3,-1
14:04:16:305836,-7,1,0,-1,-4,-30,-6,2
14:04:16:319967,-28,-6,15,16,8,3,4,-3
14:04:16:320767,-28,-6,15,16,8,3,4,-3
14:04:16:326891,-2,-6,-8,-15,-14,3,9,-7
14:04:16:334267,0,0,9,-11,-5,-4,3,1
14:04:16:341948,0,0,9,-11,-5,-4,3,1
14:04:16:349304,-1,-2,-11,4,15,10,8,1
14:04:16:356789,8,3,-1,2,2,2,0,1
14:04:16:365719,8,3,-1,2,2,2,0,1
14:04:16:366470,-21,-7,-16,-3,-1,-2,-13,-5
14:04:16:380056,14,1,8,-5,-5,4,-1,-2
14:04:16:380812,14,1,8,-5,-5,4,-1,-2
14:04:16:386754,19,0,1,0,-2,1,-20,1
14:04:16:394365,3,1,-11,-5,-2,-20,1,1
14:04:16:401800,3,1,-11,-5,-2,-20,1,1
14:04:16:409360,0,-2,13,2,-3,20,-13,-4
14:04:16:416837,10,1,5,-4,-5,1,-1,6
14:04:16:425049,10,1,5,-4,-5,1,-1,6
14:04:16:425781,-8,-3,-1,-10,2,-9,7,-4
14:04:16:439743,11,-4,-10,-8,-11,6,-1,0
14:04:16:447509,11,-4,-10,-8,-11,6,-1,0
14:04:16:448294,1,-2,-16,2,5,-1,1,-1
14:04:16:454310,-10,-1,-12,5,2,4,0,-8
14:04:16:461923,-10,-1,-12,5,2,4,0,-8
14:04:16:469234,-12,-3,2,3,5,-1,-2,-1
14:04:16:485587,-8,0,-1,-4,-6,-6,-6,2
14:04:16:486413,-8,0,-1,-4,-6,-6,-6,2
14:04:16:487267,7,4,4,11,10,-16,9,3
14:04:16:499998,-21,-3,-10,5,-17,-18,-8,-3
14:04:16:500784,-21,-3,-10,5,-17,-18,-8,-3
14:04:16:506857,-18,-2,1,-10,-13,12,8,-4
14:04:16:514325,16,1,11,5,11,7,-4,1
14:04:16:521791,16,1,11,5,11,7,-4,1
14:04:16:529383,12,1,-6,0,-6,-26,-20,-2
14:04:16:536781,-5,-8,-7,-1,13,10,-6,-4
14:04:16:545061,-5,-8,-7,-1,13,10,-6,-4
14:04:16:545767,7,-2,5,15,12,21,23,1
14:04:16:560049,-1,-4,-11,-19,-4,-11,6,1
14:04:16:560766,-1,-4,-11,-19,-4,-11,6,1
14:04:16:566754,0,-2,9,-6,-20,-4,6,-2
14:04:16:582509,11,-10,-1,-6,0,17,5,2
14:04:16:583287,11,-10,-1,-6,0,17,5,2
14:04:16:589338,-4,2,4,-7,-15,3,-12,3
14:04:16:596915,-5,2,2,2,16,7,3,-1
14:04:16:604322,-5,2,2,2,16,7,3,-1
14:04:16:611872,7,-4,9,-6,-7,8,1,-9
14:04:16:619994,-16,0,-7,10,20,6,-6,-6
14:04:16:620786,-16,0,-7,10,20,6,-6,-6
14:04:16:626828,10,5,-8,-3,-1,-31,11,2
14:04:16:642493,0,2,-4,-12,-7,-23,1,-2
14:04:16:643285,0,2,-4,-12,-7,-23,1,-2
14:04:16:649355,-8,-2,-4,2,1,4,-2,1
14:04:16:656768,3,7,10,9,2,1,10,3
14:04:16:664381,3,7,10,9,2,1,10,3
14:04:16:671745,-16,-4,-5,6,2,7,0,-5
14:04:16:680110,7,0,0,7,0,15,10,-2
14:04:16:680811,7,0,0,7,0,15,10,-2
14:04:16:686745,-15,-4,-7,-7,6,9,4,0
14:04:16:702484,3,-1,-10,-6,-11,-16,-1,2
14:04:16:703272,3,-1,-10,-6,-11,-16,-1,2
14:04:16:709287,3,2,-2,6,11,11,0,-1
14:04:16:725002,5,3,4,3,-15,-15,-8,3
14:04:16:725795,5,3,4,3,-15,-15,-8,3
14:04:16:731812,-9,-1,-3,-16,-6,-4,-9,-6
14:04:16:740019,2,1,11,23,22,4,-25,-2
14:04:16:740807,2,1,11,23,22,4,-25,-2
14:04:16:746907,6,-5,-6,2,-3,8,-6,2
14:04:16:763073,3,-2,-10,-9,-6,-10,4,-2
14:04:16:763780,3,-2,-10,-9,-6,-10,4,-2
14:04:16:769257,-8,-4,-2,-4,7,-16,-15,-2
14:04:16:776925,-15,-5,-6,-6,7,22,7,-9
14:04:16:784349,-15,-5,-6,-6,7,22,7,-9
14:04:16:791787,10,-2,-4,2,-7,-12,0,0
14:04:16:800019,4,-1,-4,-13,-8,-15,3,6
14:04:16:800829,4,-1,-4,-13,-8,-15,3,6
14:04:16:806822,-17,-3,-18,-2,2,-17,8,-5
14:04:16:822574,-7,-1,-11,-6,-3,-4,10,5
14:04:16:823319,-7,-1,-11,-6,-3,-4,10,5
14:04:16:829414,-22,-1,3,-10,-7,-3,2,-1
14:04:16:836744,-22,-1,13,2,19,24,3,-7
14:04:16:844472,-22,-1,13,2,19,24,3,-7
14:04:16:851754,18,7,10,-4,-10,16,3,4
14:04:16:860111,-13,1,3,-6,-14,1,-14,-6
14:04:16:860896,-13,1,3,-6,-14,1,-14,-6
14:04:16:866805,2,-1,-2,10,-4,3,14,-1
14:04:16:882546,8,-1,2,10,7,-10,-5,2
14:04:16:883327,8,-1,2,10,7,-10,-5,2
14:04:16:889327,2,2,-1,-12,-11,-30,-26,3
14:04:16:896871,13,0,-4,-5,0,-8,-6,4
14:04:16:904374,13,0,-4,-5,0,-8,-6,4
14:04:16:911865,5,1,0,-6,4,-1,3,-2
14:04:16:919946,-14,-5,8,1,-14,4,0,-3
14:04:16:920779,-14,-5,8,1,-14,4,0,-3
14:04:16:926828,11,5,5,-1,-6,-2,14,4
14:04:16:942567,-8,2,-10,-4,6,2,-1,-3
14:04:16:943297,-8,2,-10,-4,6,2,-1,-3
14:04:16:949323,-16,-4,8,5,7,5,-7,-1
14:04:16:956793,7,0,1,4,-10,-11,-2,-3
14:04:16:964332,7,0,1,4,-10,-11,-2,-3
14:04:16:971826,4,1,1,4,0,-6,-6,1
14:04:16:980050,15,2,-4,-9,-2,1,-1,-2
14:04:16:980776,15,2,-4,-9,-2,1,-1,-2
14:04:16:986767,5,-5,-7,-10,3,25,11,-2
14:04:17:2437,3,-2,0,-10,-4,-41,-8,2
14:04:17:3243,3,-2,0,-10,-4,-41,-8,2
14:04:17:9339,8,1,0,0,6,15,-2,-1
14:04:17:16866,-8,1,-18,-1,-3,4,2,-5
14:04:17:24438,-8,1,-18,-1,-3,4,2,-5
14:04:17:31800,-7,-5,-2,9,4,-3,2,-2
14:04:17:39975,8,1,4,3,0,5,-3,0
14:04:17:40820,8,1,4,3,0,5,-3,0
14:04:17:46860,-12,-2,3,-1,-5,-4,1,-3
14:04:17:62520,-12,-3,2,-7,-1,9,3,1
14:04:17:63283,-12,-3,2,-7,-1,9,3,1
14:04:17:69285,12,-4,-14,-4,-2,-10,-1,-1
14:04:17:76814,-15,-3,4,-5,-10,-17,-3,-6
14:04:17:84406,-15,-3,4,-5,-10,-17,-3,-6
14:04:17:91875,10,1,14,14,22,-4,4,-1
14:04:17:100016,-8,-1,-6,0,0,16,3,5
14:04:17:100838,-8,-1,-6,0,0,16,3,5
14:04:17:106810,-35,-3,-8,-13,-12,1,-4,-4
14:04:17:122462,-26,0,-5,7,18,6,-4,-5
14:04:17:123279,-26,0,-5,7,18,6,-4,-5
14:04:17:129365,-7,-3,2,4,0,10,4,0
14:04:17:136738,-27,0,-1,-6,-16,-4,1,-5
14:04:17:152487,-27,0,-1,-6,-16,-4,1,-5
14:04:17:153232,9,1,-1,-4,6,5,6,1
14:04:17:159736,18,-3,5,-2,0,-20,-1,3
14:04:17:167986,18,-3,5,-2,0,-20,-1,3
14:04:17:174390,-16,-2,2,-1,-12,-9,-9,-2
14:04:17:182520,24,-1,-3,5,7,12,2,-3
14:04:17:183295,24,-1,-3,5,7,12,2,-3
14:04:17:189317,-3,3,-4,2,-6,-5,-3,0
14:04:17:196856,13,-4,7,9,-2,-5,1,1
14:04:17:204350,13,-4,7,9,-2,-5,1,1
14:04:17:211845,6,3,8,-1,-10,8,-7,-3
14:04:17:219949,2,1,2,-9,-9,2,-1,2
14:04:17:220767,2,1,2,-9,-9,2,-1,2
14:04:17:226934,5,-20,-3,-6,-3,5,5,-2
14:04:17:242523,-1,6,1,0,-4,-4,-3,-2
14:04:17:243328,-1,6,1,0,-4,-4,-3,-2
14:04:17:249327,8,4,-3,-6,-4,-3,1,-1
14:04:17:256847,15,-2,-5,-2,-15,11,4,0
14:04:17:264395,15,-2,-5,-2,-15,11,4,0
14:04:17:271844,6,-1,-9,-1,-4,-12,-4,-2
14:04:17:280060,-13,-1,-4,6,10,6,3,0
14:04:17:280808,-13,-1,-4,6,10,6,3,0
14:04:17:286758,15,6,-15,-7,4,3,-3,-4
14:04:17:302467,0,-1,-6,-7,-3,3,-4,-1
14:04:17:303261,0,-1,-6,-7,-3,3,-4,-1
14:04:17:309319,-41,2,-4,16,12,-6,-7,-4
14:04:17:316878,0,5,-4,-1,-2,0,4,1
14:04:17:332507,0,5,-4,-1,-2,0,4,1
14:04:17:333326,17,0,1,-4,-1,-3,-3,0
14:04:17:339992,-14,-2,5,-4,3,3,-3,-1
14:04:17:340793,-14,-2,5,-4,3,3,-3,-1
14:04:17:346911,16,0,11,-2,-6,-16,-6,3
14:04:17:362568,19,0,4,-6,0,-9,-3,5
14:04:17:363274,19,0,4,-6,0,-9,-3,5
14:04:17:369322,6,-5,5,11,15,19,-1,0
14:04:17:376852,-6,-2,-4,-3,-8,-12,-5,-2
14:04:17:384375,-6,-2,-4,-3,-8,-12,-5,-2
14:04:17:391798,-2,2,-1,-5,1,-5,5,1
14:04:17:399992,-9,-12,-10,-10,-5,8,-3,-3
14:04:17:400804,-9,-12,-10,-10,-5,8,-3,-3
14:04:17:406813,-1,9,1,8,0,0,2,0
14:04:17:422538,2,-1,3,-2,8,-6,-6,-5
14:04:17:423328,2,-1,3,-2,8,-6,-6,-5
14:04:17:429428,0,-5,-4,-6,7,4,-2,-2
14:04:17:436788,4,-3,2,16,5,2,-2,-3
14:04:17:452460,4,-3,2,16,5,2,-2,-3
14:04:17:453252,1,3,-14,-21,-18,-25,-13,1
14:04:17:460060,-10,-5,-2,-3,-1,2,9,1
14:04:17:460824,-10,-5,-2,-3,-1,2,9,1
14:04:17:474390,-7,-8,1,6,3,21,2,-1
14:04:17:490800,11,1,-5,3,-6,1,0,1
14:04:17:491468,11,1,-5,3,-6,1,0,1
14:04:17:492337,-2,-15,-4,-12,7,-7,-6,-9
14:04:17:496877,-13,9,1,-3,-11,7,6,-1
14:04:17:504347,-13,9,1,-3,-11,7,6,-1
14:04:17:511875,-6,0,3,-3,-14,-11,6,0
14:04:17:519947,14,2,4,9,26,-2,-6,3
14:04:17:520763,14,2,4,9,26,-2,-6,3
14:04:17:543151,-7,-4,-7,-4,5,14,12,1
14:04:17:544008,-12,-8,-3,-11,-7,3,-12,-9
14:04:17:544782,-12,-8,-3,-11,-7,3,-12,-9
14:04:17:549288,5,1,-1,-4,-2,-2,-3,2
14:04:17:565034,4,-26,4,-6,10,-2,2,-3
14:04:17:565819,4,-26,4,-6,10,-2,2,-3
14:04:17:571765,-5,2,13,-3,-13,-1,6,2
14:04:17:580048,1,1,11,-1,-12,-14,4,0
14:04:17:580820,1,1,11,-1,-12,-14,4,0
14:04:17:594396,2,1,3,6,2,0,-2,-1
14:04:17:602877,-3,4,-1,5,14,-1,-2,-1
14:04:17:610056,-3,4,-1,5,14,-1,-2,-1
14:04:17:610772,2,6,-2,-3,-5,-28,-16,0
14:04:17:625053,-4,-7,-9,-6,0,-4,-7,-1
14:04:17:625806,-4,-7,-9,-6,0,-4,-7,-1
14:04:17:631780,9,-13,0,5,-11,-5,-8,0
14:04:17:640027,9,-13,0,5,-11,-5,-8,0
14:04:17:640797,-5,8,12,-1,6,-19,-10,1
14:04:17:654703,-4,8,6,2,5,3,9,-2
14:04:17:662603,-4,8,6,2,5,3,9,-2
14:04:17:663306,0,3,-11,3,-5,7,2,-1
14:04:17:669254,-4,2,2,-3,-3,3,-3,0
14:04:17:684993,-4,2,2,-3,-3,3,-3,0
14:04:17:685742,3,10,5,-6,-14,-8,4,-2
14:04:17:691818,0,0,-23,-7,-4,-1,3,-1
14:04:17:700005,0,0,-23,-7,-4,-1,3,-1
14:04:17:700792,1,-8,-5,5,-3,2,-6,4
14:04:17:714343,4,-8,13,4,1,9,6,0
14:04:17:722555,4,-8,13,4,1,9,6,0
14:04:17:723291,2,-2,-37,-12,-8,3,5,0
14:04:17:729343,1,-15,-10,-2,1,-9,-11,3
14:04:17:745021,1,-15,-10,-2,1,-9,-11,3
14:04:17:745815,0,2,2,-1,-1,7,3,0
14:04:17:751850,-3,13,0,0,-2,0,-2,-2
14:04:17:767484,-3,13,0,0,-2,0,-2,-2
14:04:17:768278,-2,7,-12,1,2,-6,5,-2
14:04:17:783171,-5,0,0,2,1,-2,1,-1
14:04:17:783947,-5,0,0,2,1,-2,1,-1
14:04:17:784757,0,5,28,2,2,6,-2,-3
14:04:17:789298,2,2,20,13,2,7,1,-2
14:04:17:805043,2,2,20,13,2,7,1,-2
14:04:17:805786,0,6,38,5,-7,-11,-8,0
14:04:17:820621,6,-8,8,4,0,10,-3,-1
14:04:17:821412,6,-8,8,4,0,10,-3,-1
14:04:17:822268,-1,5,20,-6,3,5,3,-2
14:04:17:834344,-6,-2,-12,-3,24,-3,-19,-5
14:04:17:842542,-6,-2,-12,-3,24,-3,-19,-5
14:04:17:843283,-2,-20,-11,-6,-4,-16,-1,-1
14:04:17:849335,-2,-4,-15,-5,-5,1,4,1
14:04:17:865057,-2,-4,-15,-5,-5,1,4,1
14:04:17:865806,-3,7,-8,4,-1,-4,-5,-2
14:04:17:871787,-4,-6,3,-2,-7,13,7,-4
14:04:17:880091,-4,-6,3,-2,-7,13,7,-4
14:04:17:880865,0,4,-8,-3,-15,-9,4,0
14:04:17:894480,-8,10,8,4,4,-3,0,-1
14:04:17:902459,-8,10,8,4,4,-3,0,-1
14:04:17:903285,-2,-4,-18,2,6,18,15,1
14:04:17:909365,1,11,14,-8,-3,-6,-1,-2
14:04:17:933264,1,11,14,-8,-3,-6,-1,-2
14:04:17:934037,-2,-2,-9,0,15,4,-2,1
14:04:17:934826,3,-20,-24,-4,-11,-13,0,4
14:04:17:940056,3,-20,-24,-4,-11,-13,0,4
14:04:17:940748,-5,4,-4,-10,-8,-5,-1,-5
14:04:17:954282,1,3,-29,-10,2,-3,-12,-1
14:04:17:962644,1,3,-29,-10,2,-3,-12,-1
14:04:17:963313,2,-9,4,-10,-15,5,1,-4
14:04:17:969273,5,-15,8,6,-5,-1,3,2
14:04:17:985486,5,-15,8,6,-5,-1,3,2
14:04:17:986246,1,-2,-5,3,11,5,-6,2
14:04:17:991873,-1,12,-2,-10,-6,-12,-6,-6
14:04:18:84,-1,12,-2,-10,-6,-12,-6,-6
14:04:18:856,8,9,5,-4,-7,-9,-3,-2
14:04:18:14330,7,3,23,20,13,6,8,4
14:04:18:22477,7,3,23,20,13,6,8,4
14:04:18:23289,-8,3,-8,-14,4,4,2,-4
14:04:18:29398,-2,1,2,-6,11,19,3,-5
14:04:18:45088,-2,1,2,-6,11,19,3,-5
14:04:18:45788,-5,-11,2,1,1,3,1,0
14:04:18:51794,-7,1,-6,-15,0,15,2,-4
14:04:18:67540,-7,1,-6,-15,0,15,2,-4
14:04:18:68301,0,2,18,10,8,13,-16,1
14:04:18:74397,-12,3,11,1,-12,-5,-2,-3
14:04:18:82540,-12,3,11,1,-12,-5,-2,-3
14:04:18:83300,6,-21,-16,-13,-13,-10,-5,0
14:04:18:89340,1,-8,-9,-6,-10,-3,3,-1
14:04:18:105035,1,-8,-9,-6,-10,-3,3,-1
14:04:18:105793,4,2,10,29,20,-7,13,1
14:04:18:111910,-8,14,16,4,-5,-29,2,1
14:04:18:119325,-8,14,16,4,-5,-29,2,1
14:04:18:126829,2,1,3,2,2,-1,-2,2
14:04:18:134345,-18,6,1,-21,-25,-10,1,-3
14:04:18:142569,-18,6,1,-21,-25,-10,1,-3
14:04:18:143356,4,-16,4,10,-3,14,9,1
14:04:18:149334,10,-1,-4,7,5,-3,3,5
14:04:18:165058,10,-1,-4,7,5,-3,3,5
14:04:18:165840,2,-2,-10,-6,-8,-11,-7,1
14:04:18:171761,-4,0,-12,-10,-5,-10,-10,-2
14:04:18:187475,-4,0,-12,-10,-5,-10,-10,-2
14:04:18:188257,-2,6,8,10,7,10,-1,-2
14:04:18:194364,24,0,5,3,-7,7,-7,-2
14:04:18:202478,24,0,5,3,-7,7,-7,-2
14:04:18:203293,-8,0,-10,-12,-28,-17,-4,1
14:04:18:209302,-4,-9,-6,21,18,1,-19,0
14:04:18:225071,-4,-9,-6,21,18,1,-19,0
14:04:18:225755,-7,-27,-34,-23,-8,6,-3,-5
14:04:18:231804,3,0,-1,-2,0,-9,14,0
14:04:18:239408,3,0,-1,-2,0,-9,14,0
14:04:18:246898,-4,3,-18,0,8,-2,-1,-3
14:04:18:254295,-11,-7,9,-6,3,-2,6,0
14:04:18:262616,-11,-7,9,-6,3,-2,6,0
14:04:18:263328,-8,10,19,-1,-1,-10,-10,-3
14:04:18:269331,6,-1,-14,-6,-5,-6,-4,3
