Time,EMG1,EMG2,EMG3,EMG4,EMG5,EMG6,EMG7,EMG8
14:05:23:367552,-2,-2,-5,-12,-6,0,-2,-2
14:05:23:375862,-1,-2,0,0,-4,0,-3,-3
14:05:23:376549,-1,-2,0,0,-4,0,-3,-3
14:05:23:382596,-1,-1,0,9,2,0,1,-1
14:05:23:398301,-4,-8,-6,-6,2,0,-1,-2
14:05:23:399104,-4,-8,-6,-6,2,0,-1,-2
14:05:23:405051,-1,-1,2,4,5,0,0,-2
14:05:23:412604,1,1,1,1,2,-1,0,0
14:05:23:420086,1,1,1,1,2,-1,0,0
14:05:23:427606,-4,-1,-2,-3,-1,-3,-1,-1
14:05:23:435808,-2,4,-2,-3,-2,-2,-2,-2
14:05:23:436568,-2,4,-2,-3,-2,-2,-2,-2
14:05:23:442590,1,4,4,-2,1,0,1,-1
14:05:23:458345,0,-1,-1,-5,-4,-1,1,-2
14:05:23:459056,0,-1,-1,-5,-4,-1,1,-2
14:05:23:465078,0,-5,-5,-2,-2,-2,-3,-2
14:05:23:472533,-2,-2,-8,-6,-4,-2,-2,3
14:05:23:480487,-2,-2,-8,-6,-4,-2,-2,3
14:05:23:487535,0,0,-1,-11,-8,-2,-2,1
14:05:23:495904,3,-1,1,-6,-1,2,1,0
14:05:23:496612,3,-1,1,-6,-1,2,1,0
14:05:23:502569,-3,-1,-2,0,-2,0,-1,-3
14:05:23:518296,0,0,-3,-6,-3,1,0,-1
14:05:23:519079,0,0,-3,-6,-3,1,0,-1
14:05:23:525106,0,0,-3,-5,1,-1,-1,-2
14:05:23:540828,-4,-5,3,11,0,-4,-1,-2
14:05:23:541579,-4,-5,3,11,0,-4,-1,-2
14:05:23:547598,1,1,-1,-3,-2,1,-1,0
14:05:23:555802,-1,0,-5,-12,-2,2,-1,0
14:05:23:556619,-1,0,-5,-12,-2,2,-1,0
14:05:23:570074,-1,1,4,13,-2,-3,1,1
14:05:23:578291,-1,0,0,9,1,-1,-1,0
14:05:23:579124,-1,0,0,9,1,-1,-1,0
14:05:23:585069,0,1,3,-3,0,0,1,-1
14:05:23:600802,-8,-2,0,0,-1,-1,-2,-5
14:05:23:601570,-8,-2,0,0,-1,-1,-2,-5
14:05:23:607605,-2,-4,-7,-23,-6,-3,-3,-1
14:05:23:615829,-2,2,-1,-3,-1,0,-1,0
14:05:23:616572,-2,2,-1,-3,-1,0,-1,0
14:05:23:630118,-1,-4,-2,-10,-2,-1,-2,-2
14:05:23:638237,-3,-4,-6,3,1,0,0,-1
14:05:23:639020,-3,-4,-6,3,1,0,0,-1
14:05:23:645112,0,3,-1,-1,-1,-2,-4,0
14:05:23:660847,1,0,2,3,0,-2,-2,-2
14:05:23:661579,1,0,2,3,0,-2,-2,-2
14:05:23:667560,0,-5,-4,11,2,1,1,1
14:05:23:675876,1,0,5,-3,-4,0,-2,0
14:05:23:676606,1,0,5,-3,-4,0,-2,0
14:05:23:690085,-2,-1,1,0,1,-1,0,-1
14:05:23:698285,3,1,4,12,1,-1,-2,1
14:05:23:699079,3,1,4,12,1,-1,-2,1
14:05:23:705037,-3,1,-5,-3,-2,-1,-2,0
14:05:23:720717,1,1,1,-4,2,-2,-2,0
14:05:23:721497,1,1,1,-4,2,-2,-2,0
14:05:23:727626,0,-1,1,18,4,0,0,1
14:05:23:735786,-2,-5,-6,-7,1,0,0,0
14:05:23:736540,-2,-5,-6,-7,1,0,0,0
14:05:23:750093,-1,-4,-2,1,2,1,-1,-1
14:05:23:758282,-1,0,-1,2,-1,0,-3,-1
14:05:23:759072,-1,0,-1,2,-1,0,-3,-1
14:05:23:765065,1,2,-1,3,-1,0,-2,-3
14:05:23:780892,1,2,-1,3,-1,0,-2,-3
14:05:23:781515,0,2,-1,-8,-1,1,1,1
14:05:23:787519,3,4,6,3,1,0,0,0
14:05:23:795821,3,4,6,3,1,0,0,0
14:05:23:796528,0,-5,-4,-3,-3,-4,1,-1
14:05:23:810045,0,0,4,7,11,3,1,-1
14:05:23:818228,0,0,4,7,11,3,1,-1
14:05:23:819010,-3,-9,-9,-6,-2,0,-5,0
14:05:23:825156,-9,-2,-6,-9,3,1,1,-5
14:05:23:840813,-9,-2,-6,-9,3,1,1,-5
14:05:23:841464,-4,-8,-8,-4,-3,-3,-2,-1
14:05:23:847657,0,-1,0,1,-5,-2,1,0
14:05:23:855799,0,-1,0,1,-5,-2,1,0
14:05:23:856497,-1,2,0,-7,-3,-1,2,0
14:05:23:870064,-3,-3,0,-3,-6,-5,-2,0
14:05:23:878316,-3,-3,0,-3,-6,-5,-2,0
14:05:23:879004,1,-3,0,3,1,-1,-2,-1
14:05:23:885050,1,1,3,-2,-3,-3,-3,0
14:05:23:900827,1,1,3,-2,-3,-3,-3,0
14:05:23:901568,0,-3,-2,-4,-4,-3,-3,-1
14:05:23:907670,2,2,0,-2,3,-2,-1,-3
14:05:23:915823,2,2,0,-2,3,-2,-1,-3
14:05:23:916538,-3,1,-1,-9,-6,0,1,1
14:05:23:930082,-3,-5,2,-9,-3,-1,-1,-2
14:05:23:938313,-3,-5,2,-9,-3,-1,-1,-2
14:05:23:939043,0,3,3,4,1,4,3,1
14:05:23:945119,1,3,-1,-2,-4,-1,-2,1
14:05:23:960907,1,3,-1,-2,-4,-1,-2,1
14:05:23:961567,5,9,-3,13,5,-2,-1,-1
14:05:23:967499,-2,2,3,-2,-4,-3,-2,-2
14:05:23:975823,-2,2,3,-2,-4,-3,-2,-2
14:05:23:976568,1,3,-4,-4,-4,-5,-2,1
14:05:23:990065,1,0,-7,-1,-3,-2,-4,-2
14:05:23:998325,1,0,-7,-1,-3,-2,-4,-2
14:05:23:999084,-1,-2,-17,5,-2,0,-2,-3
14:05:24:5014,-8,-14,-20,-12,-8,-6,-3,-4
14:05:24:20789,-8,-14,-20,-12,-8,-6,-3,-4
14:05:24:21518,-1,3,8,0,0,0,-4,6
14:05:24:27581,0,-3,5,4,0,0,-1,0
14:05:24:43305,0,-3,5,4,0,0,-1,0
14:05:24:44081,-4,-3,9,-1,1,-2,-2,-5
14:05:24:50075,-5,-2,10,1,-3,-2,-2,2
14:05:24:58351,-5,-2,10,1,-3,-2,-2,2
14:05:24:59025,0,3,6,-4,-5,-3,0,2
14:05:24:65070,1,-1,-1,3,4,2,1,-4
14:05:24:80888,1,-1,-1,3,4,2,1,-4
14:05:24:81593,-3,-4,-9,1,1,-8,0,-5
14:05:24:87535,0,-3,-2,3,1,-3,2,1
14:05:24:103253,0,-3,-2,3,1,-3,2,1
14:05:24:104067,-2,-1,-26,-2,4,-11,-1,0
14:05:24:110022,1,2,13,-5,-5,0,-7,-1
14:05:24:118333,1,2,13,-5,-5,0,-7,-1
14:05:24:119053,-4,-11,-51,-13,-2,-17,-7,-5
14:05:24:125104,1,7,10,18,2,-2,-4,0
14:05:24:148930,1,7,10,18,2,-2,-4,0
14:05:24:149711,-2,-4,27,4,-7,-7,6,2
14:05:24:150508,0,-2,-1,-10,-18,-1,-5,0
14:05:24:163391,0,-2,-1,-10,-18,-1,-5,0
14:05:24:164099,2,3,-24,-2,6,12,0,-1
14:05:24:170027,0,-4,-27,-7,-8,11,3,1
14:05:24:178318,0,-4,-27,-7,-8,11,3,1
14:05:24:179002,-2,2,2,-5,-7,11,6,-3
14:05:24:185075,2,1,45,-4,7,-18,4,3
14:05:24:200812,2,1,45,-4,7,-18,4,3
14:05:24:201599,-2,-1,46,7,15,-6,4,-4
14:05:24:207675,-6,-8,-20,-4,11,4,0,-4
14:05:24:223269,-6,-8,-20,-4,11,4,0,-4
14:05:24:224048,-1,5,20,11,9,9,-13,-1
14:05:24:230077,-2,-2,-2,-9,-6,3,5,-1
14:05:24:238281,-2,-2,-2,-9,-6,3,5,-1
14:05:24:239102,-13,-3,-8,6,0,16,3,2
14:05:24:245106,4,2,0,13,26,8,11,4
14:05:24:260839,4,2,0,13,26,8,11,4
14:05:24:261568,7,-1,-1,7,-13,-8,2,-1
14:05:24:267547,2,-3,-29,-19,-3,-8,-4,-4
14:05:24:283309,2,-3,-29,-19,-3,-8,-4,-4
14:05:24:284033,4,3,23,9,-6,5,2,-1
14:05:24:290076,-3,-2,-14,-2,-8,-1,-2,-1
14:05:24:298312,-3,-2,-14,-2,-8,-1,-2,-1
14:05:24:299066,1,0,-26,-24,-11,-10,-5,-3
14:05:24:305032,3,0,6,13,33,6,0,0
14:05:24:320762,3,0,6,13,33,6,0,0
14:05:24:321521,-4,-4,16,-3,0,-5,-9,-1
14:05:24:327634,-1,3,-17,-3,-17,3,0,-3
14:05:24:343306,-1,3,-17,-3,-17,3,0,-3
14:05:24:344079,1,-2,-20,-1,-5,5,0,-4
14:05:24:350033,8,-3,11,3,-9,-2,-2,-2
14:05:24:358347,8,-3,11,3,-9,-2,-2,-2
14:05:24:359079,-2,-2,14,-10,-12,-2,-1,-4
14:05:24:365076,11,-3,-17,-1,-26,-6,-3,-1
14:05:24:380978,11,-3,-17,-1,-26,-6,-3,-1
14:05:24:381603,6,-4,8,-1,10,4,-1,-1
14:05:24:387524,-9,-5,-15,-7,4,3,-3,0
14:05:24:403226,-9,-5,-15,-7,4,3,-3,0
14:05:24:404122,-7,0,-36,-32,0,-6,-2,-2
14:05:24:410034,-5,-5,-25,-7,-6,11,3,-4
14:05:24:418273,-5,-5,-25,-7,-6,11,3,-4
14:05:24:419052,3,4,18,12,-4,-3,3,1
14:05:24:425118,-8,-2,8,10,12,-7,-3,-1
14:05:24:440809,-8,-2,8,10,12,-7,-3,-1
14:05:24:441573,7,1,17,-1,-3,0,0,1
14:05:24:447605,2,-1,1,-12,-5,-8,-2,-3
14:05:24:463386,2,-1,1,-12,-5,-8,-2,-3
14:05:24:464027,-10,-3,2,-6,-5,-1,-2,-2
14:05:24:470000,-5,6,3,8,1,-1,1,0
14:05:24:478370,-5,6,3,8,1,-1,1,0
14:05:24:479076,5,0,21,20,-2,3,-2,-1
14:05:24:492611,-5,4,37,4,-6,-14,-1,1
14:05:24:500848,-5,4,37,4,-6,-14,-1,1
14:05:24:501499,0,-3,-8,21,10,6,1,-4
14:05:24:507555,-5,-3,-19,-5,4,-10,-7,-4
14:05:24:523259,-5,-3,-19,-5,4,-10,-7,-4
14:05:24:524041,-2,1,-18,0,-1,-2,-4,4
14:05:24:538922,-2,0,33,4,12,5,1,-1
14:05:24:539677,-2,0,33,4,12,5,1,-1
14:05:24:540500,-6,-2,-4,-8,-12,-6,-5,1
14:05:24:552566,7,3,7,6,-1,-2,-3,2
14:05:24:560909,7,3,7,6,-1,-2,-3,2
14:05:24:561576,1,2,-19,-1,-4,1,2,4
14:05:24:567556,-14,-2,-18,5,5,4,-1,1
14:05:24:575168,-14,-2,-18,5,5,4,-1,1
14:05:24:582568,-8,-10,-15,-17,-8,-9,-2,2
14:05:24:590034,4,3,21,-19,-5,3,-2,2
14:05:24:605802,4,3,21,-19,-5,3,-2,2
14:05:24:606560,2,-1,-5,-15,-4,-4,-4,-2
14:05:24:612642,-5,-6,-28,-7,-3,-5,-1,-2
14:05:24:620739,-5,-6,-28,-7,-3,-5,-1,-2
14:05:24:621515,8,4,38,3,2,1,-1,-1
14:05:24:627646,3,-4,9,0,-4,0,-1,-2
14:05:24:635138,3,-4,9,0,-4,0,-1,-2
14:05:24:642582,-6,-7,-32,-2,1,-1,4,3
14:05:24:650165,2,-1,9,4,-7,4,-5,5
14:05:24:658317,2,-1,9,4,-7,4,-5,5
14:05:24:659057,-3,1,50,2,5,4,1,11
14:05:24:672623,0,-3,17,0,-3,1,-2,-2
14:05:24:680899,0,-3,17,0,-3,1,-2,-2
14:05:24:681533,-10,0,-5,1,6,1,-3,-8
14:05:24:687529,-8,1,-27,3,-3,-2,-1,-3
14:05:24:695218,-8,1,-27,3,-3,-2,-1,-3
14:05:24:702478,0,-5,-23,-9,-5,-5,-1,-7
14:05:24:710034,-2,-8,-47,-5,-1,-1,0,-2
14:05:24:718281,-2,-8,-47,-5,-1,-1,0,-2
14:05:24:719010,10,1,-16,3,7,-4,8,0
14:05:24:732549,-17,-3,13,5,20,17,-14,-2
14:05:24:740828,-17,-3,13,5,20,17,-14,-2
14:05:24:741540,-1,2,13,22,11,5,6,-3
14:05:24:747601,14,1,6,-16,-21,-9,0,-1
14:05:24:755082,14,1,6,-16,-21,-9,0,-1
14:05:24:762595,-2,-2,13,1,7,-5,-9,6
14:05:24:770025,12,6,22,7,0,-3,4,0
14:05:24:778435,12,6,22,7,0,-3,4,0
14:05:24:779097,-7,-6,-11,-12,-8,-3,-5,-7
14:05:24:792596,4,3,9,-4,4,-4,0,1
14:05:24:800818,4,3,9,-4,4,-4,0,1
14:05:24:801562,1,-1,15,-10,2,9,0,3
14:05:24:807624,-3,-7,-20,-2,-13,-6,1,-1
14:05:24:815161,-3,-7,-20,-2,-13,-6,1,-1
14:05:24:822572,6,-5,-3,-1,-10,5,1,0
14:05:24:830131,-1,0,16,-3,-10,-10,1,0
14:05:24:838234,-1,0,16,-3,-10,-10,1,0
14:05:24:839032,-4,-2,-5,-2,8,4,-2,-4
14:05:24:852549,-16,-1,-7,-5,-2,1,1,0
14:05:24:860869,-16,-1,-7,-5,-2,1,1,0
14:05:24:861593,-13,-8,-29,-23,-1,-10,-1,-6
14:05:24:867565,5,4,-4,2,-2,-6,0,-2
14:05:24:875203,5,4,-4,2,-2,-6,0,-2
14:05:24:882622,-4,4,2,8,-5,-1,1,0
14:05:24:890135,-7,-1,9,6,5,4,1,-2
14:05:24:898281,-7,-1,9,6,5,4,1,-2
14:05:24:899055,4,-6,-5,-4,-1,1,-1,-1
14:05:24:912624,-3,2,30,-9,1,-1,-3,-5
14:05:24:920729,-3,2,30,-9,1,-1,-3,-5
14:05:24:921529,1,2,21,5,0,5,-5,-5
14:05:24:927617,3,0,-12,-13,4,6,1,2
14:05:24:935102,3,0,-12,-13,4,6,1,2
14:05:24:942558,-3,-3,-23,1,-13,-5,-3,1
14:05:24:950050,1,-4,-20,1,-6,-3,2,5
14:05:24:958371,1,-4,-20,1,-6,-3,2,5
14:05:24:959057,4,5,-6,14,18,4,-3,-2
14:05:24:972628,-2,-2,-8,-2,-5,-5,-1,4
14:05:24:980879,-2,-2,-8,-2,-5,-5,-1,4
14:05:24:981566,1,4,16,0,-4,-14,4,-2
14:05:24:987510,-5,1,-25,7,19,0,-2,-1
14:05:24:995240,-5,1,-25,7,19,0,-2,-1
14:05:25:2525,0,2,4,3,6,-4,-4,-4
14:05:25:10063,5,-4,-25,4,-6,10,-4,-4
14:05:25:18333,5,-4,-25,4,-6,10,-4,-4
14:05:25:19044,3,-8,-36,-13,-5,-1,2,-2
14:05:25:32563,-1,-2,-20,-2,-9,-8,-8,-4
14:05:25:40823,-1,-2,-20,-2,-9,-8,-8,-4
14:05:25:41514,-8,8,-13,2,-4,-2,-3,-1
14:05:25:47612,-3,-4,18,14,8,-3,2,0
14:05:25:55116,-3,-4,18,14,8,-3,2,0
14:05:25:62625,-1,2,7,6,12,15,0,2
14:05:25:70011,-5,0,12,-14,-7,-4,2,2
14:05:25:78363,-5,0,12,-14,-7,-4,2,2
14:05:25:79097,1,-3,22,4,4,-5,-2,5
14:05:25:92562,0,-3,-12,-12,-22,-4,-3,11
14:05:25:100932,0,-3,-12,-12,-22,-4,-3,11
14:05:25:101590,9,3,8,3,-2,12,0,-3
14:05:25:107582,1,0,18,7,-1,-4,-7,-8
14:05:25:115180,1,0,18,7,-1,-4,-7,-8
14:05:25:122600,-3,-2,13,-2,0,-1,-1,-1
14:05:25:130167,-1,-2,12,-10,-9,0,0,1
14:05:25:138212,-1,-2,12,-10,-9,0,0,1
14:05:25:139017,-2,-2,-22,-1,4,-11,0,-1
14:05:25:152525,-3,2,19,4,14,7,1,-6
14:05:25:160890,-3,2,19,4,14,7,1,-6
14:05:25:161646,1,-1,15,5,2,-3,-2,-1
14:05:25:167547,4,2,11,6,15,2,1,-5
14:05:25:175201,4,2,11,6,15,2,1,-5
14:05:25:182578,-1,-3,-16,-3,-17,-10,3,0
14:05:25:190066,-5,-8,-42,-18,-13,-2,3,1
14:05:25:198256,-5,-8,-42,-18,-13,-2,3,1
14:05:25:199127,-3,-2,13,3,10,3,-1,-2
14:05:25:212616,-10,1,5,6,7,-2,12,-3
14:05:25:220702,-10,1,5,6,7,-2,12,-3
14:05:25:221551,-1,0,4,3,11,-2,-5,-1
14:05:25:227623,2,0,13,23,27,5,5,-4
14:05:25:235096,2,0,13,23,27,5,5,-4
14:05:25:242570,-5,1,-16,-10,-13,-9,-1,-3
14:05:25:250072,3,1,5,-13,-8,-7,-7,-3
14:05:25:258310,3,1,5,-13,-8,-7,-7,-3
14:05:25:259046,12,-5,-16,2,6,5,-3,4
14:05:25:272599,-2,5,-3,3,-11,1,-5,-4
14:05:25:280818,-2,5,-3,3,-11,1,-5,-4
14:05:25:281514,-3,0,2,-5,-13,-10,0,-1
14:05:25:287480,8,-1,-5,-3,7,10,-4,0
14:05:25:295190,8,-1,-5,-3,7,10,-4,0
14:05:25:302528,-2,6,24,-3,-3,3,-1,0
14:05:25:310019,-11,-9,8,-4,-10,-1,-4,3
14:05:25:318287,-11,-9,8,-4,-10,-1,-4,3
14:05:25:319048,-6,0,10,7,14,-3,2,4
14:05:25:332575,-7,-1,-9,-9,-8,-5,-1,-13
14:05:25:340880,-7,-1,-9,-9,-8,-5,-1,-13
14:05:25:341574,-1,-1,-1,1,-11,1,-3,-1
14:05:25:347605,7,-1,-2,6,-3,3,0,-2
14:05:25:355148,7,-1,-2,6,-3,3,0,-2
14:05:25:362635,-1,-9,-36,-9,8,-1,-2,0
14:05:25:370026,3,-7,-21,-2,2,-5,-4,0
14:05:25:378436,3,-7,-21,-2,2,-5,-4,0
14:05:25:379132,1,3,13,-4,-22,11,-5,-2
14:05:25:392615,-6,16,10,2,-6,-9,-2,-1
14:05:25:400844,-6,16,10,2,-6,-9,-2,-1
14:05:25:401599,-7,-8,-19,-9,-13,-7,-1,-15
14:05:25:407577,-1,6,7,5,-6,3,9,5
14:05:25:423311,-1,6,7,5,-6,3,9,5
14:05:25:424108,-1,12,-3,-4,-4,-6,2,1
14:05:25:430178,-6,-3,9,8,10,-5,1,-3
14:05:25:437599,-6,-3,9,8,10,-5,1,-3
14:05:25:445177,5,1,15,6,7,-1,-6,1
14:05:25:452523,-1,-9,-10,-6,-2,3,3,-1
14:05:25:460895,-1,-9,-10,-6,-2,3,3,-1
14:05:25:461580,-5,-1,8,12,0,-2,4,-2
14:05:25:475903,6,-7,-21,-8,-5,-7,-9,-2
14:05:25:476572,6,-7,-21,-8,-5,-7,-9,-2
14:05:25:482578,-9,3,8,0,2,-2,-1,-1
14:05:25:490099,-6,4,16,-5,7,7,5,0
14:05:25:497664,-6,4,16,-5,7,7,5,0
14:05:25:505042,0,6,7,-7,-7,-1,-5,1
14:05:25:512623,-14,-5,7,-4,-8,-3,-2,1
14:05:25:520707,-14,-5,7,-4,-8,-3,-2,1
14:05:25:521540,0,-6,-10,6,11,-1,-3,6
14:05:25:535715,3,0,-27,13,-8,-4,0,0
14:05:25:536498,3,0,-27,13,-8,-4,0,0
14:05:25:542602,-3,-2,-20,-5,-8,-13,-9,1
14:05:25:550071,2,0,-11,-7,0,-2,-2,-1
14:05:25:557695,2,0,-11,-7,0,-2,-2,-1
14:05:25:573315,-8,-6,-5,-14,6,-1,-4,-4
14:05:25:574073,4,2,13,1,0,-4,-3,-3
14:05:25:580792,4,2,13,1,0,-4,-3,-3
14:05:25:581549,-4,-18,-2,-10,-14,0,4,0
14:05:25:595956,-1,-16,-7,-6,-6,-5,0,0
14:05:25:596634,-1,-16,-7,-6,-6,-5,0,0
14:05:25:602591,-7,19,-14,-20,-8,-6,0,-6
14:05:25:610076,3,7,1,-9,-4,9,0,0
14:05:25:617606,3,7,1,-9,-4,9,0,0
14:05:25:625170,7,-1,7,19,9,2,2,-4
14:05:25:632607,-2,1,6,-5,8,2,1,-3
14:05:25:640849,-2,1,6,-5,8,2,1,-3
14:05:25:641497,-8,-14,-31,-17,-4,1,-2,6
14:05:25:655742,4,-2,10,11,13,5,-2,3
14:05:25:656527,4,-2,10,11,13,5,-2,3
14:05:25:662637,7,4,6,11,2,7,0,-7
14:05:25:670038,-4,2,11,-2,-26,-5,-7,1
14:05:25:677658,-4,2,11,-2,-26,-5,-7,1
14:05:25:685043,2,4,21,5,12,4,1,1
14:05:25:692545,-3,2,-6,0,2,-2,3,-1
14:05:25:700810,-3,2,-6,0,2,-2,3,-1
14:05:25:701549,-3,0,-6,8,-1,0,-6,-2
14:05:25:715772,3,-5,-13,-3,5,-1,1,0
14:05:25:716544,3,-5,-13,-3,5,-1,1,0
14:05:25:722501,-3,3,3,1,-4,0,3,0
14:05:25:730091,-11,1,3,6,2,-9,-3,-2
14:05:25:737592,-11,1,3,6,2,-9,-3,-2
14:05:25:745108,-4,-8,2,-12,15,5,-2,-5
14:05:25:752515,-3,-4,-5,-1,7,-3,-2,-5
14:05:25:760828,-3,-4,-5,-1,7,-3,-2,-5
14:05:25:761597,3,-15,-3,-5,-7,-5,1,-2
14:05:25:775871,-6,5,5,-3,-6,-1,-5,0
14:05:25:776495,-6,5,5,-3,-6,-1,-5,0
14:05:25:782555,-1,1,-25,-6,-8,-3,0,3
14:05:25:790041,8,1,0,6,4,0,-2,-1
14:05:25:797678,8,1,0,6,4,0,-2,-1
14:05:25:805045,5,2,0,-1,-5,-10,3,1
14:05:25:812629,-2,-1,-7,-2,21,-5,1,-1
14:05:25:820809,-2,-1,-7,-2,21,-5,1,-1
14:05:25:821559,2,-1,-4,-3,-2,7,5,-2
14:05:25:835851,1,-4,8,-2,-4,-7,-2,-1
14:05:25:836561,1,-4,8,-2,-4,-7,-2,-1
14:05:25:842669,1,1,14,6,3,-3,-3,-5
14:05:25:850086,-4,-10,-6,-3,-5,-1,-2,-3
14:05:25:857728,-4,-10,-6,-3,-5,-1,-2,-3
14:05:25:865076,-8,1,2,-5,-14,-1,0,-5
14:05:25:872550,2,7,-4,-1,-17,-4,2,1
14:05:25:880821,2,7,-4,-1,-17,-4,2,1
14:05:25:881531,-4,5,12,7,5,2,-3,-1
14:05:25:895747,1,5,-11,-5,-23,-6,0,1
14:05:25:896526,1,5,-11,-5,-23,-6,0,1
14:05:25:902515,5,-1,12,-3,-9,-9,-2,0
14:05:25:910063,1,2,8,4,6,1,-2,2
14:05:25:917621,1,2,8,4,6,1,-2,2
14:05:25:925184,-4,-5,-20,-1,-4,-3,-2,-2
14:05:25:932614,-4,-8,-5,-15,3,-1,-2,-2
14:05:25:940811,-4,-8,-5,-15,3,-1,-2,-2
14:05:25:941444,-6,-3,11,-7,4,-5,-1,-2
14:05:25:955749,1,5,-2,2,12,5,-1,0
14:05:25:956541,1,5,-2,2,12,5,-1,0
14:05:25:962694,0,7,-22,-4,-16,3,1,0
14:05:25:970042,3,3,19,6,7,1,1,2
14:05:25:977726,3,3,19,6,7,1,1,2
14:05:25:985055,-3,-5,-19,3,2,1,-1,1
14:05:25:992593,-19,6,-6,-3,-3,1,2,-3
14:05:26:833,-19,6,-6,-3,-3,1,2,-3
14:05:26:1569,1,1,3,-3,2,2,-2,1
14:05:26:15704,5,-7,-17,-1,0,0,-4,-1
14:05:26:16540,5,-7,-17,-1,0,0,-4,-1
14:05:26:22570,-1,-12,3,1,-11,4,-3,-3
14:05:26:30125,0,0,5,4,9,-1,0,-1
14:05:26:37643,0,0,5,4,9,-1,0,-1
14:05:26:45118,4,0,15,3,7,-1,-1,-1
14:05:26:52531,9,-20,7,-4,-9,1,-2,-3
14:05:26:60846,9,-20,7,-4,-9,1,-2,-3
14:05:26:61588,-5,-5,-3,-3,3,5,-1,1
14:05:26:75832,-3,0,2,1,-1,2,-2,-2
14:05:26:76547,-3,0,2,1,-1,2,-2,-2
14:05:26:82548,-3,-4,-17,-6,-1,-6,0,-4
14:05:26:90059,1,1,0,1,-4,1,3,-1
14:05:26:97687,1,1,0,1,-4,1,3,-1
14:05:26:105051,-1,15,-9,5,6,4,1,0
14:05:26:112622,-4,4,-10,-8,-3,3,-1,0
14:05:26:120734,-4,4,-10,-8,-3,3,-1,0
14:05:26:121508,0,0,9,1,2,-7,-3,1
14:05:26:135826,4,4,5,2,-2,-5,-1,0
14:05:26:136571,4,4,5,2,-2,-5,-1,0
14:05:26:142591,1,-5,-15,-5,-6,-8,0,3
14:05:26:158334,-3,-2,-22,0,5,3,-2,-4
14:05:26:159102,-3,-2,-22,0,5,3,-2,-4
14:05:26:165092,5,2,6,2,-11,3,-1,-1
14:05:26:172532,-1,4,2,-1,-4,-5,0,1
14:05:26:180915,-1,4,2,-1,-4,-5,0,1
14:05:26:181583,4,-18,-2,1,2,5,3,-2
14:05:26:195864,-4,5,9,-2,-4,-1,-4,-1
14:05:26:196626,-4,5,9,-2,-4,-1,-4,-1
14:05:26:202547,-1,7,15,7,-5,2,1,-1
14:05:26:210076,0,-9,7,2,3,1,-4,1
14:05:26:217638,0,-9,7,2,3,1,-4,1
14:05:26:225194,-3,2,0,-6,-4,0,-1,-1
14:05:26:232586,0,3,2,-3,-11,-2,3,-3
14:05:26:240759,0,3,2,-3,-11,-2,3,-3
14:05:26:241566,-6,0,3,6,6,0,-4,-3
14:05:26:255712,-3,-17,-21,-6,2,-4,4,-4
14:05:26:256519,-3,-17,-21,-6,2,-4,4,-4
14:05:26:262618,-2,1,-15,-3,1,-10,4,-3
14:05:26:270054,-1,-5,5,-4,-7,-3,0,-1
14:05:26:277679,-1,-5,5,-4,-7,-3,0,-1
14:05:26:285074,1,-2,6,-1,8,4,-5,1
14:05:26:292618,1,8,-3,-5,-10,-2,-1,0
14:05:26:300782,1,8,-3,-5,-10,-2,-1,0
14:05:26:301552,1,-2,1,-4,2,-2,-4,0
14:05:26:323932,-4,-4,-1,7,-1,-14,-5,-3
14:05:26:324822,-4,-4,-1,7,-1,-14,-5,-3
14:05:26:325486,-1,4,4,-4,-3,4,4,1
14:05:26:330138,9,-23,-20,-7,-7,-3,-1,2
14:05:26:337669,9,-23,-20,-7,-7,-3,-1,2
14:05:26:345141,6,-1,13,5,9,4,-9,-3
14:05:26:352591,1,7,6,6,2,0,-2,-1
14:05:26:360766,1,7,6,6,2,0,-2,-1
14:05:26:361540,-3,-2,-2,6,3,0,1,2
14:05:26:375794,0,2,5,-5,1,6,-1,0
14:05:26:376548,0,2,5,-5,1,6,-1,0
14:05:26:382597,2,17,6,-10,-10,1,-3,-4
14:05:26:398326,-5,-3,-14,-5,4,-1,-3,1
14:05:26:399121,-5,-3,-14,-5,4,-1,-3,1
14:05:26:405046,9,-16,1,2,0,-4,-2,-1
14:05:26:412595,-2,0,4,-3,4,-2,-4,-3
14:05:26:420051,-2,0,4,-3,4,-2,-4,-3
14:05:26:427607,2,-2,-2,-2,0,-4,-3,0
14:05:26:435706,-3,-9,-4,2,0,-1,3,-1
14:05:26:436572,-3,-9,-4,2,0,-1,3,-1
14:05:26:442583,-7,-1,-5,3,-3,-11,-1,0
14:05:26:458310,-6,8,1,3,-2,-6,0,-2
14:05:26:459040,-6,8,1,3,-2,-6,0,-2
14:05:26:465034,-13,-5,-2,3,2,-4,-1,-2
14:05:26:472565,2,7,6,-1,1,2,-2,-3
14:05:26:480192,2,7,6,-1,1,2,-2,-3
14:05:26:487501,-16,-3,-6,-5,-22,-4,-1,-1
14:05:26:495807,3,-13,1,1,1,4,0,2
14:05:26:496568,3,-13,1,1,1,4,0,2
14:05:26:502530,1,1,-3,-5,2,-2,-2,-1
14:05:26:518259,3,1,-14,-6,-5,-1,-1,-2
14:05:26:519034,3,1,-14,-6,-5,-1,-1,-2
14:05:26:525089,18,-28,0,-3,1,0,-2,1
14:05:26:532539,-1,11,6,2,4,0,-6,0
14:05:26:540119,-1,11,6,2,4,0,-6,0
14:05:26:547590,-3,1,-18,-5,3,5,2,-3
14:05:26:555720,-5,-6,-1,-3,-1,-3,1,-1
14:05:26:556585,-5,-6,-1,-3,-1,-3,1,-1
14:05:26:562566,-4,7,2,0,1,-3,-1,-1
14:05:26:578327,-9,9,-1,0,0,-1,2,0
14:05:26:579053,-9,9,-1,0,0,-1,2,0
14:05:26:585024,4,6,13,-2,-1,-6,1,0
14:05:26:592576,2,1,-6,-1,-4,-4,-2,0
14:05:26:600136,2,1,-6,-1,-4,-4,-2,0
14:05:26:607620,6,5,6,5,5,5,2,0
14:05:26:615850,-8,-18,-5,-4,-4,-3,-3,-4
14:05:26:616579,-8,-18,-5,-4,-4,-3,-3,-4
14:05:26:622548,-3,6,-1,-1,-3,3,2,1
14:05:26:638277,-4,0,2,2,3,4,2,-2
14:05:26:639050,-4,0,2,2,3,4,2,-2
14:05:26:645127,0,-2,-1,-4,1,-2,-2,-1
14:05:26:652505,0,0,0,2,2,-1,0,0
14:05:26:660118,0,0,0,2,2,-1,0,0
14:05:26:667567,0,6,1,1,-3,-3,1,0
14:05:26:675766,0,-18,-4,-4,-1,-1,-2,0
14:05:26:676525,0,-18,-4,-4,-1,-1,-2,0
14:05:26:682570,-2,-6,-5,-2,1,0,-1,-1
14:05:26:698294,-1,14,8,2,-1,-2,1,0
14:05:26:699106,-1,14,8,2,-1,-2,1,0
14:05:26:705045,-16,-19,-6,-4,-1,-2,-3,-5
14:05:26:712674,0,15,12,0,-2,-3,0,-3
14:05:26:720031,0,15,12,0,-2,-3,0,-3
14:05:26:727637,1,9,2,1,2,2,0,-1
14:05:26:735737,2,3,-6,-3,-4,-1,-3,-1
14:05:26:736553,2,3,-6,-3,-4,-1,-3,-1
14:05:26:742585,-5,3,-4,-1,-2,-2,-1,-3
14:05:26:758798,0,-9,-1,2,1,-2,-3,-3
14:05:26:759492,0,-9,-1,2,1,-2,-3,-3
14:05:26:765087,1,-1,1,2,0,0,-1,-1
14:05:26:772592,-3,-1,-9,-3,-19,0,-4,1
14:05:26:780176,-3,-1,-9,-3,-19,0,-4,1
14:05:26:787486,1,9,-5,-5,3,-4,-4,-4
14:05:26:795824,0,-10,0,0,7,0,0,1
14:05:26:796572,0,-10,0,0,7,0,0,1
14:05:26:802505,0,-1,2,-1,-5,-3,-1,-1
14:05:26:818265,-2,16,0,1,4,2,0,0
14:05:26:819028,-2,16,0,1,4,2,0,0
14:05:26:825103,-3,-4,-6,-1,4,-3,-4,-2
14:05:26:832556,5,-7,-6,-2,1,0,-1,-1
14:05:26:840093,5,-7,-6,-2,1,0,-1,-1
14:05:26:847617,0,1,6,3,0,9,2,-3
14:05:26:855746,-2,-2,-1,-1,0,-3,0,-2
14:05:26:856565,-2,-2,-1,-1,0,-3,0,-2
14:05:26:862607,-12,-17,-12,-3,-2,-4,-4,-4
14:05:26:878325,1,4,-1,0,2,3,2,-3
14:05:26:879052,1,4,-1,0,2,3,2,-3
14:05:26:885026,5,5,3,-1,4,-2,0,0
14:05:26:892605,-2,3,4,-1,5,0,-2,-1
14:05:26:900175,-2,3,4,-1,5,0,-2,-1
14:05:26:907572,5,2,2,-2,-1,2,-4,1
14:05:26:915856,9,5,0,-1,-3,-1,-1,0
14:05:26:916603,9,5,0,-1,-3,-1,-1,0
14:05:26:922557,-2,11,1,-1,-4,-9,2,0
14:05:26:938225,0,4,-5,-3,-3,2,0,3
14:05:26:939078,0,4,-5,-3,-3,2,0,3
14:05:26:945099,-8,-4,-10,-3,-4,-2,1,-3
14:05:26:952527,-6,-14,-4,0,-1,0,-1,-2
14:05:26:960160,-6,-14,-4,0,-1,0,-1,-2
14:05:26:967600,2,5,6,1,-3,-2,-1,0
14:05:26:975791,-5,-6,-4,-3,-2,-1,-3,-3
14:05:26:976496,-5,-6,-4,-3,-2,-1,-3,-3
14:05:26:982585,4,-1,0,-1,1,-2,0,2
14:05:26:998226,3,-4,-6,-3,2,-6,-6,-2
14:05:26:999041,3,-4,-6,-3,2,-6,-6,-2
14:05:27:5045,-3,-5,-9,3,5,9,1,-3
14:05:27:12614,-5,-1,5,-2,-5,-2,0,-3
14:05:27:20060,-5,-1,5,-2,-5,-2,0,-3
14:05:27:27656,-3,-12,-3,-3,-2,-4,-3,-2
14:05:27:35696,-9,-1,-3,2,-1,-1,6,-2
14:05:27:36525,-9,-1,-3,2,-1,-1,6,-2
14:05:27:42596,-2,10,1,-1,-3,0,-1,3
14:05:27:58324,2,3,1,1,0,2,0,1
14:05:27:59056,2,3,1,1,0,2,0,1
14:05:27:65100,-10,15,0,0,-2,-5,-6,-1
14:05:27:72582,1,2,7,4,6,-6,0,0
14:05:27:80225,1,2,7,4,6,-6,0,0
14:05:27:87495,0,5,2,0,9,7,6,-2
14:05:27:95837,3,8,1,-5,0,0,1,0
14:05:27:96632,3,8,1,-5,0,0,1,0
14:05:27:102565,4,-8,14,3,1,-1,-2,1
14:05:27:118292,4,-8,14,3,1,-1,-2,1
14:05:27:119001,-5,2,-2,2,-4,-2,-4,-3
14:05:27:125118,3,0,4,9,-7,-3,1,0
14:05:27:140771,3,0,4,9,-7,-3,1,0
14:05:27:141543,-1,4,1,-7,-8,-5,0,0
14:05:27:147586,3,-6,-9,-3,-3,2,2,0
14:05:27:155724,3,-6,-9,-3,-3,2,2,0
14:05:27:156533,3,-23,-7,-2,2,-2,-3,3
14:05:27:162566,0,-9,-1,-4,-4,-8,1,2
14:05:27:178334,0,-9,-1,-4,-4,-8,1,2
14:05:27:179017,-4,4,-6,-2,1,5,-1,-2
14:05:27:185008,-2,1,-13,-4,-4,-7,-6,-4
14:05:27:200771,-2,1,-13,-4,-4,-7,-6,-4
14:05:27:201522,-2,-6,-2,-3,2,5,0,-3
14:05:27:207589,-7,-1,-2,-3,1,6,-12,-5
14:05:27:215787,-7,-1,-2,-3,1,6,-12,-5
14:05:27:216551,-1,0,-1,-3,-2,-2,-3,1
14:05:27:222499,6,-1,-5,-7,-9,-1,6,1
14:05:27:238221,6,-1,-5,-7,-9,-1,6,1
14:05:27:239003,0,-12,-1,-2,-6,-5,-6,-6
14:05:27:245181,7,-12,1,1,-4,5,-5,0
14:05:27:260779,7,-12,1,1,-4,5,-5,0
14:05:27:261555,2,8,0,-7,-2,-6,3,2
14:05:27:267581,3,1,0,9,3,5,6,-9
14:05:27:275817,3,1,0,9,3,5,6,-9
14:05:27:276509,1,-26,-20,-12,9,10,-1,-5
14:05:27:282598,4,1,0,-7,-1,-4,1,1
14:05:27:298212,4,1,0,-7,-1,-4,1,1
14:05:27:299050,-3,19,12,3,-2,-5,0,1
14:05:27:305084,-11,-8,-7,-5,-6,-4,-7,-10
14:05:27:320846,-11,-8,-7,-5,-6,-4,-7,-10
14:05:27:321539,12,8,3,1,-3,-1,3,3
14:05:27:327592,-15,9,17,0,-2,-7,-2,5
14:05:27:335701,-15,9,17,0,-2,-7,-2,5
14:05:27:336505,-2,-6,0,6,2,-2,2,1
14:05:27:350071,-14,-10,-21,-8,-1,-5,0,1
14:05:27:358383,-14,-10,-21,-8,-1,-5,0,1
14:05:27:359066,-6,-1,0,3,-4,1,-6,-3
14:05:27:365079,27,10,11,0,5,6,1,8
14:05:27:380928,27,10,11,0,5,6,1,8
14:05:27:381568,-29,-16,-37,-5,-8,-7,-3,-8
14:05:27:387526,7,8,7,-1,1,-4,0,-4
14:05:27:395790,7,8,7,-1,1,-4,0,-4
14:05:27:396524,4,10,23,8,7,1,2,3
14:05:27:410044,5,-4,-6,8,-1,5,8,2
14:05:27:418261,5,-4,-6,8,-1,5,8,2
14:05:27:419075,-8,9,3,-1,-1,-10,2,1
14:05:27:425102,-6,-5,3,-5,-8,0,-9,-6
14:05:27:440836,-6,-5,3,-5,-8,0,-9,-6
14:05:27:441554,11,-17,-10,-6,-1,13,1,5
14:05:27:447642,9,-3,2,19,8,8,2,1
14:05:27:455811,9,-3,2,19,8,8,2,1
14:05:27:456580,-23,2,-4,8,-1,1,-3,-7
14:05:27:470063,9,6,2,-11,-6,3,1,2
14:05:27:478331,9,6,2,-11,-6,3,1,2
14:05:27:479080,-1,-4,78,-1,-11,-10,-5,-8
14:05:27:485023,-7,8,-2,-3,-12,1,1,1
14:05:27:500751,-7,8,-2,-3,-12,1,1,1
14:05:27:501556,4,-7,-19,-5,3,-16,-3,1
14:05:27:507563,-14,-10,-3,-8,9,-9,0,2
14:05:27:515827,-14,-10,-3,-8,9,-9,0,2
14:05:27:516555,4,2,-8,7,15,8,0,-6
14:05:27:530116,-23,-11,-16,-6,-18,-11,-3,-3
14:05:27:538244,-23,-11,-16,-6,-18,-11,-3,-3
14:05:27:539045,23,11,-21,-5,3,3,3,1
14:05:27:545107,-10,-10,16,-6,-25,-9,-14,-10
14:05:27:560805,-10,-10,16,-6,-25,-9,-14,-10
14:05:27:561558,-7,0,-12,10,13,7,11,5
14:05:27:567493,-21,0,-3,-5,0,-2,-2,-5
14:05:27:575896,-21,0,-3,-5,0,-2,-2,-5
14:05:27:576486,25,6,-7,-10,4,17,5,3
14:05:27:590040,18,0,-24,-12,12,-18,2,3
14:05:27:598288,18,0,-24,-12,12,-18,2,3
14:05:27:599069,-51,-1,0,-5,-13,-22,-7,-4
14:05:27:605021,17,-7,9,9,16,-14,-5,-2
14:05:27:620746,17,-7,9,9,16,-14,-5,-2
14:05:27:621537,0,-3,-10,4,0,5,1,-1
14:05:27:627628,9,-12,7,-8,-5,7,5,5
14:05:27:635731,9,-12,7,-8,-5,7,5,5
14:05:27:636547,-13,0,1,3,-11,-10,-9,-5
14:05:27:650135,-8,3,-25,4,32,0,3,4
14:05:27:666440,-8,3,-25,4,32,0,3,4
14:05:27:667232,28,-1,6,-4,-5,26,-17,2
14:05:27:668020,-4,-3,24,-4,-7,-6,7,2
14:05:27:680910,-4,-3,24,-4,-7,-6,7,2
14:05:27:681610,-15,3,16,-5,-17,-19,-7,-1
14:05:27:687541,-25,6,-4,-4,7,14,4,1
14:05:27:695852,-25,6,-4,-4,7,14,4,1
14:05:27:696589,-6,-1,-3,-12,15,20,-3,-10
14:05:27:710073,-2,12,-22,-17,-8,-1,-8,-5
14:05:27:718303,-2,12,-22,-17,-8,-1,-8,-5
14:05:27:719039,-36,-10,-15,-17,-16,26,14,-1
14:05:27:725110,-12,-1,3,13,-5,10,-4,-9
14:05:27:740820,-12,-1,3,13,-5,10,-4,-9
14:05:27:741540,2,6,26,20,1,4,11,5
14:05:27:747626,-14,2,-5,4,-11,-14,-1,-2
14:05:27:755831,-14,2,-5,4,-11,-14,-1,-2
14:05:27:756547,-3,-2,22,-18,-2,-21,-5,0
14:05:27:770008,6,-24,-20,-17,19,16,-6,-8
14:05:27:778389,6,-24,-20,-17,19,16,-6,-8
14:05:27:779091,4,-2,2,8,1,-19,-5,-7
14:05:27:785026,35,6,6,9,-27,-14,3,6
14:05:27:800793,35,6,6,9,-27,-14,3,6
14:05:27:801598,10,5,2,24,17,15,3,-3
14:05:27:807585,5,-1,18,-10,5,14,8,2
14:05:27:815868,5,-1,18,-10,5,14,8,2
14:05:27:816600,39,0,-32,2,-7,-7,4,9
14:05:27:830096,-11,0,-8,-7,6,-23,-3,-6
14:05:27:838239,-11,0,-8,-7,6,-23,-3,-6
14:05:27:839029,2,-8,-14,-8,7,4,2,3
14:05:27:845092,-28,2,-20,-6,-11,-7,-11,-4
14:05:27:860780,-28,2,-20,-6,-11,-7,-11,-4
14:05:27:861534,12,5,-3,8,18,2,4,7
14:05:27:867531,30,6,4,-14,-12,3,0,3
14:05:27:875857,30,6,4,-14,-12,3,0,3
14:05:27:876492,-18,0,6,-12,-7,-13,-7,-4
14:05:27:890063,-15,-4,8,10,-3,1,-4,-3
14:05:27:898287,-15,-4,8,10,-3,1,-4,-3
14:05:27:899080,-13,11,10,-18,-9,-4,0,-7
14:05:27:905007,-37,-3,5,12,19,1,-2,-6
14:05:27:920723,-37,-3,5,12,19,1,-2,-6
14:05:27:921505,-40,-11,-5,17,-15,-40,-2,-4
14:05:27:927618,22,5,8,-5,4,9,11,1
14:05:27:935759,22,5,8,-5,4,9,11,1
14:05:27:936547,-19,-7,-31,-17,-32,-8,-17,-7
14:05:27:950099,-21,-40,-55,5,10,-1,-9,-9
14:05:27:958339,-21,-40,-55,5,10,-1,-9,-9
14:05:27:959008,32,5,10,32,1,-8,-15,8
14:05:27:965039,13,8,15,6,-1,1,-3,-1
14:05:27:980843,13,8,15,6,-1,1,-3,-1
14:05:27:981530,16,0,-37,-34,-1,7,7,2
14:05:27:987535,-5,4,0,-16,3,8,-2,-7
14:05:27:995865,-5,4,0,-16,3,8,-2,-7
14:05:27:996568,9,1,27,-10,-9,11,-1,-5
14:05:28:10093,-5,2,-14,10,-18,-27,-13,4
14:05:28:18288,-5,2,-14,10,-18,-27,-13,4
14:05:28:19043,22,0,3,20,9,9,-2,3
14:05:28:25116,18,3,23,-17,-7,0,-10,2
14:05:28:40743,18,3,23,-17,-7,0,-10,2
14:05:28:41524,-7,-15,18,6,-10,7,2,-1
14:05:28:47639,-2,14,17,17,5,8,10,7
14:05:28:55750,-2,14,17,17,5,8,10,7
14:05:28:56513,-35,-6,-25,-14,-21,-14,2,-4
14:05:28:70046,-8,-4,-3,-1,-8,-13,-6,-5
14:05:28:78241,-8,-4,-3,-1,-8,-13,-6,-5
14:05:28:79006,1,5,-6,-10,19,9,0,-1
14:05:28:85060,12,-2,-13,-2,12,7,18,4
14:05:28:100845,12,-2,-13,-2,12,7,18,4
14:05:28:101575,24,6,10,15,12,7,1,3
14:05:28:107578,17,6,9,7,0,8,-2,4
14:05:28:115794,17,6,9,7,0,8,-2,4
14:05:28:116588,-12,-1,-16,-25,13,2,1,1
14:05:28:130159,12,2,3,9,-10,1,7,5
14:05:28:138250,12,2,3,9,-10,1,7,5
14:05:28:138977,5,-14,-22,18,15,-16,-13,-11
14:05:28:145075,13,5,6,-6,-25,1,10,12
14:05:28:160839,13,5,6,-6,-25,1,10,12
14:05:28:161526,-6,5,16,0,-6,2,5,7
14:05:28:167533,-5,-2,4,-8,-3,-15,-13,-8
14:05:28:175810,-5,-2,4,-8,-3,-15,-13,-8
14:05:28:176522,-20,0,8,14,12,5,3,-10
14:05:28:190076,-10,-4,-18,-9,9,11,-12,1
14:05:28:198306,-10,-4,-18,-9,9,11,-12,1
14:05:28:199058,-14,-2,-16,-3,-30,-17,-3,1
14:05:28:205031,-29,9,-6,-7,-14,4,-6,-12
14:05:28:220943,-29,9,-6,-7,-14,4,-6,-12
14:05:28:221535,16,0,-3,-11,18,2,-2,-1
14:05:28:227629,-3,-5,-9,13,26,3,7,0
14:05:28:235857,-3,-5,-9,13,26,3,7,0
14:05:28:236546,6,3,13,-12,-14,-6,7,-1
14:05:28:250068,14,1,25,4,39,12,8,1
14:05:28:258389,14,1,25,4,39,12,8,1
14:05:28:259051,-7,-8,-23,-1,-1,-12,9,4
14:05:28:272526,-25,-2,17,10,-3,-15,-7,-5
14:05:28:280824,-25,-2,17,10,-3,-15,-7,-5
14:05:28:281586,-50,2,-3,-15,-38,-21,-1,-9
14:05:28:287495,4,-6,-5,16,-8,25,10,1
14:05:28:295185,4,-6,-5,16,-8,25,10,1
14:05:28:302494,-35,-7,-10,-16,-15,-8,-2,-3
14:05:28:310035,14,0,1,-27,-3,12,-3,-3
14:05:28:318305,14,0,1,-27,-3,12,-3,-3
14:05:28:319003,48,7,18,6,18,20,-3,7
14:05:28:332589,-39,-10,-27,-11,-6,-15,-6,-11
14:05:28:340861,-39,-10,-27,-11,-6,-15,-6,-11
14:05:28:341571,25,8,11,18,24,17,1,1
14:05:28:347676,-2,0,-9,19,-8,-9,1,4
14:05:28:355138,-2,0,-9,19,-8,-9,1,4
14:05:28:362587,-45,-4,20,-4,10,0,-1,-3
14:05:28:370035,15,1,26,18,5,-14,4,4
14:05:28:378307,15,1,26,18,5,-14,4,4
14:05:28:379056,13,0,-7,-8,2,0,-2,0
14:05:28:392775,-19,-3,-12,-28,-5,-4,-13,-5
14:05:28:400774,-19,-3,-12,-28,-5,-4,-13,-5
14:05:28:401552,34,2,3,21,5,-3,10,8
14:05:28:407614,-8,-8,-18,0,-10,5,0,2
14:05:28:415118,-8,-8,-18,0,-10,5,0,2
14:05:28:422507,11,-3,-10,4,11,7,1,6
14:05:28:430141,3,-2,-13,13,11,14,0,1
14:05:28:438261,3,-2,-13,13,11,14,0,1
14:05:28:439039,25,7,18,-8,-28,-16,-7,-7
14:05:28:452583,38,4,18,-1,-18,0,-16,3
14:05:28:460821,38,4,18,-1,-18,0,-16,3
14:05:28:461584,-7,5,20,-7,-12,-7,-14,-2
14:05:28:467502,-53,-46,19,-19,8,10,11,-5
14:05:28:475148,-53,-46,19,-19,8,10,11,-5
14:05:28:482535,20,-3,-5,8,-9,-9,5,2
14:05:28:490034,-34,5,-14,-1,-1,-4,0,-5
14:05:28:498299,-34,5,-14,-1,-1,-4,0,-5
14:05:28:499083,10,-6,-12,1,18,19,-7,-1
14:05:28:513311,55,14,-11,-22,-13,-15,5,5
14:05:28:514061,55,14,-11,-22,-13,-15,5,5
14:05:28:519987,41,5,-9,-12,28,9,-10,6
14:05:28:527581,-1,3,-13,-22,-31,-11,-4,-9
14:05:28:535112,-1,3,-13,-22,-31,-11,-4,-9
14:05:28:542629,-19,-10,-20,-6,11,10,10,-1
14:05:28:550020,-3,-4,7,12,0,-3,-2,4
14:05:28:558377,-3,-4,7,12,0,-3,-2,4
14:05:28:559057,-2,2,-2,7,-5,8,-4,2
14:05:28:573263,-22,-6,-7,-2,18,-22,-14,-12
14:05:28:574057,-22,-6,-7,-2,18,-22,-14,-12
14:05:28:580123,6,-1,0,9,12,8,3,-4
14:05:28:587535,8,9,-19,20,21,4,11,1
14:05:28:595191,8,9,-19,20,21,4,11,1
14:05:28:602528,12,5,4,-8,-29,-10,-4,-5
14:05:28:610089,21,7,0,-10,4,2,2,2
14:05:28:618237,21,7,0,-10,4,2,2,2
14:05:28:619009,-19,1,-6,-3,-12,8,9,4
14:05:28:633295,-6,2,-3,-3,-7,-1,-2,-5
14:05:28:634081,-6,2,-3,-3,-7,-1,-2,-5
14:05:28:640080,5,-1,8,6,-15,-14,-3,-2
14:05:28:647643,-2,-5,-6,-3,-2,-9,-3,-2
14:05:28:655032,-2,-5,-6,-3,-2,-9,-3,-2
14:05:28:662602,-4,4,5,12,-29,1,8,-2
14:05:28:670012,15,-8,-36,-4,-9,-1,-6,-2
14:05:28:678294,15,-8,-36,-4,-9,-1,-6,-2
14:05:28:679028,-11,-1,0,-5,0,-6,-8,-4
14:05:28:701415,-10,1,3,4,-7,-4,-7,1
14:05:28:702188,-10,1,3,4,-7,-4,-7,1
14:05:28:703007,-64,-11,-8,-25,10,6,3,-13
14:05:28:707530,3,2,-11,-7,13,9,-1,-5
14:05:28:715119,3,2,-11,-7,13,9,-1,-5
14:05:28:722541,-3,-1,-8,6,6,-13,0,-1
14:05:28:730147,31,8,35,14,-8,-1,-8,7
14:05:28:738199,31,8,35,14,-8,-1,-8,7
14:05:28:738990,6,-8,4,-21,-5,-5,-11,-6
14:05:28:753195,25,2,-24,4,-40,-11,9,6
14:05:28:753991,25,2,-24,4,-40,-11,9,6
14:05:28:760043,19,-3,2,10,15,2,-1,4
14:05:28:767570,-19,-5,16,12,-2,3,4,-1
14:05:28:775195,-19,-5,16,12,-2,3,4,-1
14:05:28:782602,15,9,9,20,18,26,10,8
14:05:28:790057,-14,4,16,-2,1,7,11,-5
14:05:28:798301,-14,4,16,-2,1,7,11,-5
14:05:28:799085,1,-2,14,9,-21,-29,-11,-9
14:05:28:813332,20,-1,-10,1,18,6,4,1
14:05:28:814150,20,-1,-10,1,18,6,4,1
14:05:28:820034,-2,1,-21,-10,27,-10,-18,-4
14:05:28:827619,-8,1,13,-8,9,9,7,-5
14:05:28:835069,-8,1,13,-8,9,9,7,-5
14:05:28:842576,-8,5,16,-6,-10,-7,4,7
14:05:28:850050,2,-6,12,3,13,-4,-5,0
14:05:28:858406,2,-6,12,3,13,-4,-5,0
14:05:28:859039,10,-4,-12,-1,-8,6,3,0
14:05:28:873255,-11,-4,-17,-25,-5,1,-3,1
14:05:28:874054,-11,-4,-17,-25,-5,1,-3,1
14:05:28:880127,19,0,-6,16,0,-10,-13,-1
14:05:28:887534,-10,-6,-30,-10,-7,-4,-9,-5
14:05:28:895175,-10,-6,-30,-10,-7,-4,-9,-5
14:05:28:902505,-10,-3,7,-24,-7,23,18,4
14:05:28:910022,-20,-4,17,4,13,20,5,-5
14:05:28:918293,-20,-4,17,4,13,20,5,-5
14:05:28:919085,-5,-1,9,1,-29,-23,-4,-2
14:05:28:933242,5,6,36,22,12,13,8,5
14:05:28:934081,5,6,36,22,12,13,8,5
14:05:28:940061,-29,-6,-35,5,-2,-11,4,-1
14:05:28:947586,-26,-3,1,9,1,-7,-5,-2
14:05:28:955115,-26,-3,1,9,1,-7,-5,-2
14:05:28:962592,3,-1,-10,-14,-4,-22,-1,3
14:05:28:979000,12,12,16,-13,-20,-10,-19,6
14:05:28:979807,12,12,16,-13,-20,-10,-19,6
14:05:28:980574,-13,-5,-7,2,-5,5,2,-3
14:05:28:993244,-6,-5,-20,-16,-10,-5,-10,4
14:05:28:994028,-6,-5,-20,-16,-10,-5,-10,4
14:05:29:72,0,1,1,-7,12,-3,-5,2
14:05:29:7571,-18,-14,-36,11,1,-3,-4,3
14:05:29:15167,-18,-14,-36,11,1,-3,-4,3
14:05:29:22551,-4,-5,19,-10,22,13,-2,-11
14:05:29:30135,4,4,30,7,23,-6,5,-2
14:05:29:38263,4,4,30,7,23,-6,5,-2
14:05:29:39027,-6,-2,-8,12,12,3,-9,-7
14:05:29:53238,8,-4,21,31,13,4,8,-6
14:05:29:54053,8,-4,21,31,13,4,8,-6
14:05:29:60001,-1,-1,9,-8,-22,-10,-12,-5
14:05:29:67569,19,2,4,0,4,-14,-4,-3
14:05:29:75149,19,2,4,0,4,-14,-4,-3
14:05:29:82623,-40,-7,3,8,-2,8,-9,-8
14:05:29:90045,11,0,21,5,4,4,3,-1
14:05:29:98251,11,0,21,5,4,4,3,-1
14:05:29:99028,9,7,4,-5,-17,1,-1,2
14:05:29:113343,-8,6,14,-12,-6,7,-5,-7
14:05:29:114037,-8,6,14,-12,-6,7,-5,-7
14:05:29:120053,16,2,-3,-6,25,9,3,9
14:05:29:127587,-52,-3,-11,-14,-28,-19,-9,-14
14:05:29:135061,-52,-3,-11,-14,-28,-19,-9,-14
14:05:29:142632,14,1,21,10,-4,7,7,3
14:05:29:150079,32,2,-14,4,6,2,3,3
14:05:29:158286,32,2,-14,4,6,2,3,3
14:05:29:158995,21,-4,-35,-17,-31,-10,7,2
14:05:29:173250,19,-3,-32,7,23,2,-3,4
14:05:29:174045,19,-3,-32,7,23,2,-3,4
14:05:29:180168,4,-5,-9,1,7,11,2,3
14:05:29:187551,15,-4,-13,-1,0,-7,-4,-4
14:05:29:195150,15,-4,-13,-1,0,-7,-4,-4
14:05:29:202515,-29,5,-12,-8,-4,-1,8,-3
14:05:29:210091,21,-2,-10,-9,-2,3,-3,-1
14:05:29:217622,21,-2,-10,-9,-2,3,-3,-1
14:05:29:225158,22,0,-8,-6,21,-4,4,-2
14:05:29:233284,19,0,-15,-3,-13,15,10,5
14:05:29:234102,19,0,-15,-3,-13,15,10,5
14:05:29:240058,-17,-1,4,14,19,-4,-11,-5
14:05:29:256240,-25,-2,13,9,-9,-6,-2,2
14:05:29:257018,-25,-2,13,9,-9,-6,-2,2
14:05:29:262601,-10,5,10,4,-19,-17,-15,-3
14:05:29:269973,-9,-1,8,-9,-18,5,8,3
14:05:29:277658,-9,-1,8,-9,-18,5,8,3
14:05:29:285054,-35,-2,6,10,-4,4,4,2
14:05:29:293276,-13,-6,-9,8,26,-4,2,0
14:05:29:294075,-13,-6,-9,8,26,-4,2,0
14:05:29:300063,31,0,27,-28,-1,15,7,2
14:05:29:315764,-28,-2,9,-17,-19,-11,-4,-12
14:05:29:316565,-28,-2,9,-17,-19,-11,-4,-12
14:05:29:322518,7,-1,-5,2,33,-2,-11,-3
14:05:29:330143,27,0,-4,-1,3,-2,0,4
14:05:29:337614,27,0,-4,-1,3,-2,0,4
14:05:29:345117,-5,-4,0,2,7,2,-5,-1
14:05:29:353186,7,-22,-20,8,-5,-10,-16,-5
14:05:29:354030,7,-22,-20,8,-5,-10,-16,-5
14:05:29:360082,1,-1,-10,11,-5,-2,3,-2
14:05:29:375790,-29,6,34,-2,6,9,-11,-3
14:05:29:376564,-29,6,34,-2,6,9,-11,-3
14:05:29:382560,-6,-5,10,22,-13,-12,4,1
14:05:29:390048,18,9,-1,6,-12,8,11,9
14:05:29:397679,18,9,-1,6,-12,8,11,9
14:05:29:405046,-17,1,0,-6,-41,2,-3,-7
14:05:29:413286,-21,-3,5,-14,-21,-15,-1,-7
14:05:29:414264,-21,-3,5,-14,-21,-15,-1,-7
14:05:29:420009,-16,-6,-51,-11,-5,-9,-10,-2
14:05:29:435711,12,0,3,-1,1,-9,-2,0
14:05:29:436484,12,0,3,-1,1,-9,-2,0
14:05:29:442604,-17,-7,17,10,9,2,2,-3
14:05:29:450079,3,10,-11,-11,-7,8,-3,2
14:05:29:457632,3,10,-11,-11,-7,8,-3,2
14:05:29:465029,-30,2,-3,22,2,-1,8,5
14:05:29:473221,-12,-2,-27,3,6,-14,-7,-8
14:05:29:474024,-12,-2,-27,3,6,-14,-7,-8
14:05:29:480090,6,3,-18,-8,-7,8,5,6
14:05:29:495775,-23,-2,1,3,-11,-26,-8,-7
14:05:29:496556,-23,-2,1,3,-11,-26,-8,-7
14:05:29:502492,-9,6,17,1,-1,6,-3,-6
14:05:29:510024,9,-1,3,3,-1,4,9,5
14:05:29:517623,9,-1,3,3,-1,4,9,5
14:05:29:525146,-6,-3,3,-16,12,-16,-3,-1
14:05:29:533278,16,4,21,18,-1,2,9,9
14:05:29:534058,16,4,21,18,-1,2,9,9
14:05:29:540071,5,1,5,0,1,7,4,0
14:05:29:555749,-4,-5,1,9,8,1,-9,-4
14:05:29:556583,-4,-5,1,9,8,1,-9,-4
14:05:29:562628,36,3,14,-3,2,0,-5,-2
14:05:29:569993,5,2,-2,0,12,8,0,-1
14:05:29:577662,5,2,-2,0,12,8,0,-1
14:05:29:585065,22,-8,-12,8,-7,5,-16,-10
14:05:29:593243,-7,5,-14,-4,18,2,-11,2
14:05:29:594077,-7,5,-14,-4,18,2,-11,2
14:05:29:600048,6,1,9,-17,-6,-15,-3,2
14:05:29:615756,14,3,3,-3,-16,-3,3,0
14:05:29:616561,14,3,3,-3,-16,-3,3,0
14:05:29:622512,37,5,-2,-4,0,2,-15,4
14:05:29:630137,0,0,-2,7,1,-2,2,-3
14:05:29:637591,0,0,-2,7,1,-2,2,-3
14:05:29:645122,-16,-3,25,-1,-10,-6,8,-8
14:05:29:653225,-13,2,-1,-5,-2,-3,6,-1
14:05:29:654007,-13,2,-1,-5,-2,-3,6,-1
14:05:29:660064,5,-4,7,9,9,1,11,0
14:05:29:675864,-4,-1,5,-8,-8,8,5,1
14:05:29:676552,-4,-1,5,-8,-8,8,5,1
14:05:29:690740,2,0,-15,-5,7,-19,2,2
14:05:29:691493,13,-2,-12,1,7,6,12,5
14:05:29:697661,13,-2,-12,1,7,6,12,5
14:05:29:705035,24,-3,-6,-3,3,5,11,7
14:05:29:713337,23,6,4,-12,-6,-6,-5,2
14:05:29:714100,23,6,4,-12,-6,-6,-5,2
14:05:29:720006,-39,-6,-4,-18,20,7,-1,-3
14:05:29:735771,-10,-8,1,11,12,-13,-4,-10
14:05:29:736546,-10,-8,1,11,12,-13,-4,-10
14:05:29:742658,-6,1,-9,-1,-7,7,-12,-3
14:05:29:750072,-7,3,0,-10,-4,2,-2,-1
14:05:29:757781,-7,3,0,-10,-4,2,-2,-1
14:05:29:765095,-22,-2,-7,5,5,9,0,0
14:05:29:773228,-23,0,4,-1,5,2,1,-7
14:05:29:774034,-23,0,4,-1,5,2,1,-7
14:05:29:780173,24,3,-7,11,10,4,5,0
14:05:29:795854,-8,-13,-8,-8,-51,-5,-6,-4
14:05:29:796627,-8,-13,-8,-8,-51,-5,-6,-4
14:05:29:802532,-42,-2,9,2,7,11,5,-6
14:05:29:810075,1,0,6,3,-5,-23,-14,-6
14:05:29:817610,1,0,6,3,-5,-23,-14,-6
14:05:29:825158,13,-2,-16,-14,-13,-5,-7,5
14:05:29:833222,-22,-2,34,-13,-3,11,6,6
14:05:29:834083,-22,-2,34,-13,-3,11,6,6
14:05:29:840023,40,0,-6,11,20,27,-7,-2
14:05:29:855743,-2,0,-11,-13,-4,-8,1,-3
14:05:29:856542,-2,0,-11,-13,-4,-8,1,-3
14:05:29:862686,-27,-6,-17,-15,-60,-2,5,-3
14:05:29:870139,-4,-1,0,16,34,3,-1,-2
14:05:29:885869,-4,-1,0,16,34,3,-1,-2
14:05:29:886471,13,1,13,-11,-14,2,17,0
14:05:29:893217,8,-4,-19,-7,-10,-3,1,2
14:05:29:894013,8,-4,-19,-7,-10,-3,1,2
14:05:29:900087,-17,-1,-19,-21,-27,-21,1,-9
14:05:29:915724,-45,-1,12,17,17,-4,-15,-6
14:05:29:916540,-45,-1,12,17,17,-4,-15,-6
14:05:29:922556,3,-2,7,20,17,2,11,5
14:05:29:930150,34,3,-20,-2,13,0,14,-2
14:05:29:945804,34,3,-20,-2,13,0,14,-2
14:05:29:946592,0,-3,4,21,31,-14,-23,-5
14:05:29:953198,31,6,3,-12,-12,2,-2,8
14:05:29:954033,31,6,3,-12,-12,2,-2,8
14:05:29:960099,3,-5,5,-13,0,-24,0,-5
14:05:29:975839,-8,7,-1,-2,2,10,-13,-4
14:05:29:976557,-8,7,-1,-2,2,10,-13,-4
14:05:29:982566,-5,1,2,-24,-13,1,-19,0
14:05:29:990024,0,-7,4,0,7,-7,3,8
14:05:29:997630,0,-7,4,0,7,-7,3,8
14:05:30:5038,-2,-1,9,26,42,0,6,-4
14:05:30:13269,10,0,2,15,-4,25,-13,4
14:05:30:14015,10,0,2,15,-4,25,-13,4
14:05:30:19978,12,5,-3,-2,-13,-22,-1,2
14:05:30:35717,11,1,-2,8,4,0,11,1
14:05:30:36487,11,1,-2,8,4,0,11,1
14:05:30:42584,4,5,-3,2,-2,-2,-8,1
14:05:30:50093,6,-4,-18,-21,-1,-3,-10,-4
14:05:30:57741,6,-4,-18,-21,-1,-3,-10,-4
14:05:30:65040,-6,-1,-4,9,5,20,9,1
14:05:30:73258,-29,-9,-23,-20,-38,-48,-21,-9
14:05:30:74033,-29,-9,-23,-20,-38,-48,-21,-9
14:05:30:80125,14,3,6,-15,-7,-2,1,2
14:05:30:95797,-49,-9,12,-13,-5,17,5,-6
14:05:30:96547,-49,-9,12,-13,-5,17,5,-6
14:05:30:102514,-10,0,-16,10,-11,2,4,4
14:05:30:110115,-2,-1,24,-4,-7,-8,6,-3
14:05:30:117584,-2,-1,24,-4,-7,-8,6,-3
14:05:30:125154,-2,5,3,7,14,4,11,4
14:05:30:133269,24,7,-12,0,-3,-28,10,0
14:05:30:134056,24,7,-12,0,-3,-28,10,0
14:05:30:140057,7,0,20,-3,-15,-23,3,-2
14:05:30:155738,6,4,11,14,26,54,17,6
14:05:30:156563,6,4,11,14,26,54,17,6
14:05:30:162631,-23,-4,-7,-13,-14,3,-13,-4
14:05:30:178300,9,-4,-21,6,14,6,17,-1
14:05:30:179057,9,-4,-21,6,14,6,17,-1
14:05:30:185009,4,-3,15,-12,14,23,3,1
14:05:30:193278,17,-7,-13,0,-28,0,-3,-3
14:05:30:194089,17,-7,-13,0,-28,0,-3,-3
14:05:30:207559,11,-2,-13,-3,10,-24,-22,-9
14:05:30:216871,-21,0,4,3,12,6,-9,-1
14:05:30:223248,-21,0,4,3,12,6,-9,-1
14:05:30:224072,-3,-4,-3,-1,8,2,-11,1
14:05:30:238221,-26,-7,-4,4,-3,3,-2,2
14:05:30:239003,-26,-7,-4,4,-3,3,-2,2
14:05:30:245084,-13,3,15,0,-15,-5,8,1
14:05:30:253239,-8,-5,-2,-5,-6,-10,-12,-4
14:05:30:254028,-8,-5,-2,-5,-6,-10,-12,-4
14:05:30:267600,-24,-7,-31,-8,-8,2,-4,-4
14:05:30:275762,13,-1,0,-25,-13,-9,-9,0
14:05:30:276507,13,-1,0,-25,-13,-9,-9,0
14:05:30:282493,43,6,-8,3,0,1,-1,1
14:05:30:298226,-2,4,11,9,-3,-9,9,-5
14:05:30:299035,-2,4,11,9,-3,-9,9,-5
14:05:30:305056,-9,-5,22,5,4,9,2,3
14:05:30:313266,27,7,-1,-6,-2,3,-2,9
14:05:30:314014,27,7,-1,-6,-2,3,-2,9
14:05:30:327633,-20,-5,-23,10,11,-3,-7,-11
14:05:30:335696,20,4,20,-13,-7,22,-1,-3
14:05:30:336533,20,4,20,-13,-7,22,-1,-3
14:05:30:342589,-11,4,5,-3,-8,-37,-19,2
14:05:30:366409,1,2,-11,17,15,-1,5,-1
14:05:30:367244,1,2,-11,17,15,-1,5,-1
14:05:30:368036,19,7,16,0,-1,15,12,7
14:05:30:373256,14,4,2,7,-6,-16,-5,0
14:05:30:374057,14,4,2,7,-6,-16,-5,0
14:05:30:387505,2,-13,-39,3,4,0,2,3
14:05:30:395799,13,-3,-12,-15,10,2,-6,-3
14:05:30:396565,13,-3,-12,-15,10,2,-6,-3
14:05:30:402500,13,1,6,11,-22,-11,3,-12
14:05:30:418880,5,-5,-10,-3,-3,-8,-18,1
14:05:30:419694,5,-5,-10,-3,-3,-8,-18,1
14:05:30:425176,-29,-2,-4,-27,-33,-5,2,0
14:05:30:433262,-29,-2,-4,-27,-33,-5,2,0
14:05:30:434057,-4,3,7,4,-9,4,8,-1
14:05:30:447588,12,-3,14,5,11,5,2,0
14:05:30:455781,12,-3,14,5,11,5,2,0
14:05:30:456525,-1,-7,-15,-5,0,-2,-9,3
14:05:30:462646,-34,3,2,-1,2,12,-2,-12
14:05:30:478355,-34,3,2,-1,2,12,-2,-12
14:05:30:479052,2,1,7,11,16,-2,0,-4
14:05:30:485023,-19,-4,5,9,17,-4,-17,-2
14:05:30:500777,-19,-4,5,9,17,-4,-17,-2
14:05:30:501561,-4,-8,-15,-7,15,-9,11,2
14:05:30:507575,3,-1,-3,11,10,3,12,-2
14:05:30:515770,3,-1,-3,11,10,3,12,-2
14:05:30:516554,-4,-2,-3,-4,-7,10,0,-3
14:05:30:522509,33,1,-15,4,9,-12,2,6
14:05:30:538219,33,1,-15,4,9,-12,2,6
14:05:30:539007,27,-2,18,-9,-6,4,3,0
14:05:30:545104,-28,-2,-8,-16,-22,-17,-6,0
14:05:30:553230,-28,-2,-8,-16,-22,-17,-6,0
14:05:30:554012,-11,1,-21,-4,-3,-3,6,2
14:05:30:567598,7,5,3,0,4,17,-1,4
14:05:30:575811,7,5,3,0,4,17,-1,4
14:05:30:576516,-15,-4,30,-12,-10,9,22,-4
14:05:30:582517,3,2,10,0,4,-3,-5,-1
14:05:30:598239,3,2,10,0,4,-3,-5,-1
14:05:30:598997,7,7,-2,7,7,-1,-9,1
14:05:30:605033,41,0,6,0,34,9,2,-2
14:05:30:613331,41,0,6,0,34,9,2,-2
14:05:30:614011,-20,-5,-2,-4,-10,-17,-7,-2
14:05:30:627663,9,4,1,4,13,14,20,6
14:05:30:635713,9,4,1,4,13,14,20,6
14:05:30:636506,-33,-14,-6,3,-1,-6,-1,-7
14:05:30:642623,2,-2,-2,20,-11,1,-9,-2
14:05:30:658381,2,-2,-2,20,-11,1,-9,-2
14:05:30:659082,5,-1,2,0,2,-5,-14,2
14:05:30:665092,-19,-8,-7,5,-24,11,3,0
14:05:30:673266,-19,-8,-7,5,-24,11,3,0
14:05:30:674059,22,3,-20,3,-6,-8,-1,-4
14:05:30:687527,22,6,-1,9,-8,-8,0,8
14:05:30:695839,22,6,-1,9,-8,-8,0,8
14:05:30:696514,-44,-5,-23,-24,1,-12,-4,-6
14:05:30:702567,0,-24,-20,-16,-17,-7,1,3
14:05:30:718300,0,-24,-20,-16,-17,-7,1,3
14:05:30:719086,24,4,3,17,-32,5,-6,1
14:05:30:725107,-20,5,25,-5,11,-2,-23,-4
14:05:30:740807,-20,5,25,-5,11,-2,-23,-4
14:05:30:741555,-5,1,17,3,15,15,-1,2
14:05:30:747631,-13,-20,7,-12,-6,2,-4,-12
14:05:30:755754,-13,-20,7,-12,-6,2,-4,-12
14:05:30:756493,-4,10,2,-6,-8,-22,1,-5
14:05:30:762625,-31,-4,-16,-14,13,3,12,-1
14:05:30:778358,-31,-4,-16,-14,13,3,12,-1
14:05:30:779068,9,-2,5,12,11,13,-1,2
14:05:30:785018,38,11,-1,-5,-2,-19,-12,-1
14:05:30:793239,38,11,-1,-5,-2,-19,-12,-1
14:05:30:793990,6,3,5,-10,0,5,7,3
14:05:30:807589,1,-3,-1,9,-9,21,10,3
14:05:30:815811,1,-3,-1,9,-9,21,10,3
14:05:30:816583,-82,4,22,13,14,-7,-8,-7
14:05:30:830146,-3,0,10,-14,5,-7,-4,-12
14:05:30:838268,-3,0,10,-14,5,-7,-4,-12
14:05:30:839017,22,-4,5,23,3,4,1,-4
14:05:30:845126,2,5,-5,14,-9,-13,2,8
14:05:30:853252,2,5,-5,14,-9,-13,2,8
14:05:30:854056,32,-3,-6,-19,3,0,-1,0
14:05:30:867564,-2,2,-15,-16,0,-24,-16,-9
14:05:30:875848,-2,2,-15,-16,0,-24,-16,-9
14:05:30:876568,-1,-10,-65,-13,5,-12,5,2
14:05:30:882599,7,3,0,11,24,16,-3,1
14:05:30:906427,7,3,0,11,24,16,-3,1
14:05:30:907237,-3,1,2,-3,-12,-4,-18,-1
14:05:30:908030,-6,5,-12,-1,-9,3,-2,1
14:05:30:913316,-6,5,-12,-1,-9,3,-2,1
14:05:30:914072,-11,3,21,-13,29,-2,5,1
14:05:30:927601,1,-1,1,-5,6,17,1,-4
14:05:30:935712,1,-1,1,-5,6,17,1,-4
14:05:30:936500,10,-5,-6,3,-1,28,11,3
14:05:30:942635,-19,-6,2,-5,-4,-5,6,-8
14:05:30:958296,-19,-6,2,-5,-4,-5,6,-8
14:05:30:958994,-32,-3,-8,12,-10,-3,-16,-9
14:05:30:965097,26,6,-19,-8,-17,-14,8,13
14:05:30:973962,26,6,-19,-8,-17,-14,8,13
14:05:30:974747,23,-1,1,-4,0,-7,-4,6
14:05:30:987525,-22,-3,16,-4,-3,-8,6,1
14:05:30:995769,-22,-3,16,-4,-3,-8,6,1
14:05:30:996526,-15,0,14,17,3,3,1,-8
14:05:31:2549,-30,-2,12,2,-19,-13,-4,-10
14:05:31:18318,-30,-2,12,2,-19,-13,-4,-10
14:05:31:19014,-1,0,-2,-21,-17,4,3,3
14:05:31:25171,-14,-4,7,4,-8,0,-5,-7
14:05:31:33240,-14,-4,7,4,-8,0,-5,-7
14:05:31:34021,6,1,-39,-23,4,-9,-8,0
14:05:31:47640,-9,-3,-15,7,4,3,-7,2
14:05:31:55722,-9,-3,-15,7,4,3,-7,2
14:05:31:56529,-21,-5,5,-2,-15,3,-8,-10
14:05:31:62636,-9,-6,-9,17,23,17,-2,1
14:05:31:78333,-9,-6,-9,17,23,17,-2,1
14:05:31:79101,-25,-4,-14,5,-32,-3,4,3
14:05:31:85041,17,3,16,-14,-6,-22,0,-1
14:05:31:93295,17,3,16,-14,-6,-22,0,-1
14:05:31:94027,7,7,19,-3,-17,1,3,-1
14:05:31:108080,9,-1,1,5,-14,35,8,-2
14:05:31:115749,9,-1,1,5,-14,35,8,-2
14:05:31:116541,23,1,-5,4,-10,-14,-17,3
14:05:31:130087,26,8,-3,-13,0,5,13,6
14:05:31:138251,26,8,-3,-13,0,5,13,6
14:05:31:139032,3,6,14,4,16,19,17,1
14:05:31:145085,6,1,-11,3,-5,8,-9,-5
14:05:31:152669,6,1,-11,3,-5,8,-9,-5
14:05:31:160094,-7,3,7,13,-5,6,0,0
14:05:31:167581,25,4,-5,-20,-6,-13,4,5
14:05:31:183250,25,4,-5,-20,-6,-13,4,5
14:05:31:184046,20,-2,-5,8,17,-6,3,-2
14:05:31:190008,-19,-8,3,11,24,9,-9,-7
14:05:31:198289,-19,-8,3,11,24,9,-9,-7
14:05:31:199037,9,-4,-5,12,30,1,4,2
14:05:31:205025,-8,-9,-5,-9,3,3,-7,-4
14:05:31:212675,-8,-9,-5,-9,3,3,-7,-4
14:05:31:220012,13,1,37,-10,0,-5,-4,-3
14:05:31:227579,27,1,5,-9,0,11,-7,4
14:05:31:235704,27,1,5,-9,0,11,-7,4
14:05:31:236489,5,3,6,5,-11,-18,1,2
14:05:31:250068,-10,-1,-21,-35,-17,-18,-2,2
14:05:31:258319,-10,-1,-21,-35,-17,-18,-2,2
14:05:31:259008,-41,-3,-12,-12,3,9,7,3
14:05:31:265070,2,1,8,20,13,-26,0,-4
14:05:31:272572,2,1,8,20,13,-26,0,-4
14:05:31:280099,-5,-3,-5,-14,-9,0,0,-2
14:05:31:287483,-30,6,7,4,-7,7,-2,-4
14:05:31:295810,-30,6,7,4,-7,7,-2,-4
14:05:31:296582,23,4,10,9,5,-19,-6,6
14:05:31:310084,-90,-14,-8,-5,5,-18,-17,-7
14:05:31:318287,-90,-14,-8,-5,5,-18,-17,-7
14:05:31:319030,-13,-2,-3,-4,-6,14,11,1
14:05:31:333238,-15,-4,-12,-18,-29,-28,-9,0
14:05:31:334041,-15,-4,-12,-18,-29,-28,-9,0
14:05:31:339980,-13,0,-4,-17,-23,8,4,-5
14:05:31:347652,23,-4,-7,-1,1,5,11,3
14:05:31:355743,23,-4,-7,-1,1,5,11,3
14:05:31:356532,19,-2,-27,15,12,-9,11,4
14:05:31:370039,4,2,13,18,24,10,2,0
14:05:31:386426,4,2,13,18,24,10,2,0
14:05:31:387213,5,-7,-3,3,5,1,5,-4
14:05:31:387993,14,0,7,27,13,-5,-4,-3
14:05:31:392591,14,0,7,27,13,-5,-4,-3
14:05:31:400073,15,-2,-8,11,-7,5,-22,-3
14:05:31:407579,17,1,4,6,-3,14,5,4
14:05:31:415759,17,1,4,6,-3,14,5,4
14:05:31:416540,-1,-1,9,-3,-2,-12,-12,-5
14:05:31:430129,20,2,7,-9,-13,6,8,2
14:05:31:438229,20,2,7,-9,-13,6,8,2
14:05:31:439006,-7,-8,-10,-9,5,8,9,-3
14:05:31:445178,40,1,-13,-20,-4,9,4,3
14:05:31:460822,40,1,-13,-20,-4,9,4,3
14:05:31:461580,-16,-2,13,22,-1,4,-4,-2
14:05:31:467564,-24,0,-4,-9,-9,-6,-4,3
14:05:31:475794,-24,0,-4,-9,-9,-6,-4,3
14:05:31:476558,4,5,-1,4,27,-5,-19,-5
14:05:31:490080,15,-5,-15,-2,6,3,9,2
14:05:31:498234,15,-5,-15,-2,6,3,9,2
14:05:31:499024,-18,0,-2,-10,5,-21,-12,-7
14:05:31:505035,-28,0,-5,7,12,-2,-7,-5
14:05:31:512647,-28,0,-5,7,12,-2,-7,-5
14:05:31:520069,23,3,-26,-1,-10,11,16,5
14:05:31:527620,-22,-3,17,-7,-8,29,18,-2
14:05:31:535751,-22,-3,17,-7,-8,29,18,-2
14:05:31:536496,-8,-2,11,-6,-2,-22,-13,0
14:05:31:550068,15,-2,-6,-17,-33,-13,-20,0
14:05:31:558304,15,-2,-6,-17,-33,-13,-20,0
14:05:31:559037,-5,-2,-1,-2,3,11,6,3
14:05:31:565097,14,8,-4,13,20,22,12,2
14:05:31:572581,14,8,-4,13,20,22,12,2
14:05:31:588207,-15,1,-6,-9,-7,-12,6,-6
14:05:31:588977,-18,-5,7,14,5,-23,1,-1
14:05:31:595846,-18,-5,7,14,5,-23,1,-1
14:05:31:596531,-3,-3,-3,-8,31,21,-1,2
14:05:31:610053,5,-1,-7,-1,11,-10,-2,-6
14:05:31:618289,5,-1,-7,-1,11,-10,-2,-6
14:05:31:619016,-7,0,7,-6,-13,7,-2,-6
14:05:31:625134,3,4,10,-5,-9,-7,-25,-3
14:05:31:632596,3,4,10,-5,-9,-7,-25,-3
14:05:31:640010,-10,-6,-12,-5,-10,17,6,-3
14:05:31:647535,9,9,1,1,-1,-3,3,-3
14:05:31:663349,9,9,1,1,-1,-3,3,-3
14:05:31:664072,-2,-7,-14,3,16,-4,1,-1
14:05:31:670062,-15,-3,-6,-6,-5,-15,11,-2
14:05:31:678308,-15,-3,-6,-6,-5,-15,11,-2
14:05:31:679061,34,2,-3,-18,-17,-5,7,10
14:05:31:685020,-6,-2,2,6,-27,-22,-14,1
14:05:31:692739,-6,-2,2,6,-27,-22,-14,1
14:05:31:700061,23,-5,3,25,-1,0,-2,-1
14:05:31:707580,1,3,-15,-19,-2,2,7,0
14:05:31:715822,1,3,-15,-19,-2,2,7,0
14:05:31:716608,-5,-3,10,-21,-16,-7,-7,-10
14:05:31:730131,23,-7,3,13,-2,-6,-11,0
14:05:31:738247,23,-7,3,13,-2,-6,-11,0
14:05:31:739049,23,-2,-7,4,6,-1,0,4
14:05:31:753264,-14,-2,9,-3,-12,21,22,1
14:05:31:753998,-14,-2,9,-3,-12,21,22,1
14:05:31:760030,-9,7,-6,1,-17,-14,6,5
14:05:31:767548,-7,-7,-11,13,-15,0,0,4
14:05:31:775786,-7,-7,-11,13,-15,0,0,4
14:05:31:776553,2,6,-8,-10,-13,-7,-12,5
14:05:31:790479,11,-1,6,-1,16,15,3,-4
14:05:31:798282,11,-1,6,-1,16,15,3,-4
14:05:31:799047,-8,-7,11,8,17,-10,-10,-6
14:05:31:805018,27,2,2,-2,15,-18,-8,0
14:05:31:812671,27,2,2,-2,15,-18,-8,0
14:05:31:819989,-15,-5,7,0,7,4,5,-3
14:05:31:827640,-23,-5,6,5,26,12,6,-3
14:05:31:835745,-23,-5,6,5,26,12,6,-3
14:05:31:836538,-3,5,21,13,-31,-4,-5,4
14:05:31:850055,-5,6,0,-1,-13,-13,-13,-2
14:05:31:866438,-5,6,0,-1,-13,-13,-13,-2
14:05:31:867178,-1,1,-6,-21,1,9,7,4
14:05:31:868017,15,-3,-20,4,23,17,3,-11
14:05:31:872601,15,-3,-20,4,23,17,3,-11
14:05:31:880122,19,2,-15,-4,0,-17,-3,-2
14:05:31:887487,2,-3,15,7,14,11,3,-3
14:05:31:895847,2,-3,15,7,14,11,3,-3
14:05:31:896560,-2,0,7,24,4,3,2,-1
14:05:31:910025,-9,0,8,2,-2,-31,-10,0
14:05:31:918278,-9,0,8,2,-2,-31,-10,0
14:05:31:919035,-14,-4,8,6,27,8,-16,-9
14:05:31:925113,-7,5,1,10,-6,-11,3,3
14:05:31:932621,-7,5,1,10,-6,-11,3,3
14:05:31:940055,2,-6,-23,-9,16,-16,-1,-3
14:05:31:947641,-18,-7,-6,-13,-12,-1,8,-3
14:05:31:955793,-18,-7,-6,-13,-12,-1,8,-3
14:05:31:956533,5,9,9,6,-10,11,6,6
14:05:31:970013,12,3,13,-4,-18,-4,-4,4
14:05:31:978361,12,3,13,-4,-18,-4,-4,4
14:05:31:979099,0,-2,2,-22,6,7,-3,-1
14:05:31:985032,-15,-9,-21,4,8,0,-9,-7
14:05:31:992714,-15,-9,-21,4,8,0,-9,-7
14:05:32:86,-24,3,12,23,-3,3,-14,-15
14:05:32:7604,-6,1,-16,-19,-12,15,0,0
14:05:32:15751,-6,1,-16,-19,-12,15,0,0
14:05:32:16501,-26,-10,-16,8,26,4,30,6
14:05:32:30142,8,-2,1,6,3,7,2,-1
14:05:32:38209,8,-2,1,6,3,7,2,-1
14:05:32:38979,3,1,-22,-31,-25,4,8,-1
14:05:32:45132,-7,3,-23,-29,-20,-11,-8,1
14:05:32:52589,-7,3,-23,-29,-20,-11,-8,1
14:05:32:68199,-7,-3,12,6,-9,2,-12,-9
14:05:32:69013,17,-22,-11,-2,-4,-4,-8,4
14:05:32:75132,17,-22,-11,-2,-4,-4,-8,4
14:05:32:82592,13,4,17,11,-8,-3,-7,3
14:05:32:90066,-18,8,31,-5,8,13,6,-3
14:05:32:98276,-18,8,31,-5,8,13,6,-3
14:05:32:99013,11,-1,1,-2,1,4,2,4
14:05:32:113302,34,-2,-1,6,8,-17,-1,-4
14:05:32:113993,34,-2,-1,6,8,-17,-1,-4
14:05:32:120016,-14,4,-4,-15,-1,-1,-3,-2
14:05:32:127608,-2,5,-4,-15,-11,-6,-6,-1
14:05:32:135087,-2,5,-4,-15,-11,-6,-6,-1
14:05:32:142533,13,0,-13,1,3,-3,6,4
14:05:32:150028,-1,9,0,15,-2,1,-1,1
14:05:32:158432,-1,9,0,15,-2,1,-1,1
14:05:32:159031,12,2,5,-5,-35,-14,2,-2
14:05:32:173229,-16,-1,14,29,24,-5,-5,-4
14:05:32:174008,-16,-1,14,29,24,-5,-5,-4
14:05:32:180047,-2,-1,-13,-26,-14,-22,-17,3
14:05:32:187467,-12,-6,-2,-3,-8,8,-2,-3
14:05:32:195133,-12,-6,-2,-3,-8,8,-2,-3
14:05:32:202526,-4,-13,7,-1,18,0,6,-3
14:05:32:210024,0,7,-5,-7,7,12,8,2
14:05:32:218273,0,7,-5,-7,7,12,8,2
14:05:32:219063,-1,-3,-17,-7,-11,0,-6,-5
14:05:32:233266,-8,-2,-3,-4,-11,-7,-5,-4
14:05:32:234044,-8,-2,-3,-4,-11,-7,-5,-4
14:05:32:240031,9,1,11,9,17,9,-7,-1
14:05:32:247577,-25,-2,3,14,-7,-6,1,9
14:05:32:255105,-25,-2,3,14,-7,-6,1,9
14:05:32:270678,-2,1,25,-8,-18,-15,-11,3
14:05:32:271430,28,3,3,1,3,5,7,-2
14:05:32:278309,28,3,3,1,3,5,7,-2
14:05:32:279063,-29,-3,-7,13,12,20,5,-2
14:05:32:293248,14,4,-6,-17,-16,-14,2,6
14:05:32:294069,14,4,-6,-17,-16,-14,2,6
14:05:32:300039,-2,-2,-17,5,3,-2,-1,-2
14:05:32:307552,-21,-7,-9,4,8,24,11,-6
14:05:32:315129,-21,-7,-9,4,8,24,11,-6
14:05:32:322529,-28,-2,7,13,-1,-2,11,-6
14:05:32:330127,35,12,4,-9,-4,-5,-20,-1
14:05:32:345839,35,12,4,-9,-4,-5,-20,-1
14:05:32:346560,19,5,0,-2,-4,1,4,3
14:05:32:353204,-49,0,-3,-2,8,4,0,-2
14:05:32:354052,-49,0,-3,-2,8,4,0,-2
14:05:32:360055,5,-3,-2,-17,-1,-13,-13,1
14:05:32:367541,3,-9,0,12,-7,3,-5,-1
14:05:32:383245,3,-9,0,12,-7,3,-5,-1
14:05:32:384064,10,3,-13,-8,4,4,9,-3
14:05:32:390040,2,-3,-14,-8,-12,-9,-11,-4
14:05:32:398315,2,-3,-14,-8,-12,-9,-11,-4
14:05:32:399091,-11,-1,-17,-8,2,-10,-12,-3
14:05:32:413333,-15,-1,-1,-2,9,-2,-2,7
14:05:32:414095,-15,-1,-1,-2,9,-2,-2,7
14:05:32:420013,13,-3,7,-17,4,-6,1,-4
14:05:32:427630,23,-3,8,2,13,4,4,-9
14:05:32:435126,23,-3,8,2,13,4,4,-9
14:05:32:442555,-4,0,9,30,17,1,-10,-2
14:05:32:450057,2,-3,-1,-11,-16,-32,-7,-1
14:05:32:458339,2,-3,-1,-11,-16,-32,-7,-1
14:05:32:459051,-18,0,2,9,-11,7,9,5
14:05:32:473252,-6,-1,17,9,7,0,3,-3
14:05:32:474077,-6,-1,17,9,7,0,3,-3
14:05:32:480100,-27,-7,-2,2,-10,-15,-1,-3
14:05:32:495750,-3,7,10,13,27,22,14,2
14:05:32:496550,-3,7,10,13,27,22,14,2
14:05:32:502530,18,5,-1,4,34,-5,10,4
14:05:32:510026,-6,-11,-8,-14,-16,-4,-3,1
14:05:32:518312,-6,-11,-8,-14,-16,-4,-3,1
14:05:32:519073,14,-1,12,6,0,1,1,-2
14:05:32:533286,-1,1,-17,-19,-12,-6,2,1
14:05:32:534077,-1,1,-17,-19,-12,-6,2,1
14:05:32:548240,-19,-4,2,-3,-21,-4,-10,-1
14:05:32:548996,-5,-6,-13,11,-6,14,-7,-6
14:05:32:555077,-5,-6,-13,11,-6,14,-7,-6
14:05:32:562621,9,3,0,-1,3,5,-24,2
14:05:32:570007,-38,1,7,0,-8,1,2,-7
14:05:32:578339,-38,1,7,0,-8,1,2,-7
14:05:32:579049,19,1,-5,2,2,-3,-14,1
14:05:32:593231,23,6,2,-15,-11,11,7,4
14:05:32:594009,23,6,2,-15,-11,11,7,4
14:05:32:599998,-26,-8,-20,-1,-18,-7,-1,-6
14:05:32:607560,23,-1,-23,15,11,-6,-2,-9
14:05:32:623252,23,-1,-23,15,11,-6,-2,-9
14:05:32:624042,17,2,0,-17,-25,4,5,1
14:05:32:630053,6,8,-10,0,16,-7,-16,3
14:05:32:638251,6,8,-10,0,16,-7,-16,3
14:05:32:639026,-4,0,-2,2,0,-15,-2,-4
14:05:32:653216,12,-2,-3,30,40,24,11,4
14:05:32:654000,12,-2,-3,30,40,24,11,4
14:05:32:660011,-21,-7,-9,7,-23,-41,9,-3
14:05:32:667543,4,-3,7,-9,-8,-22,-15,1
14:05:32:675167,4,-3,7,-9,-8,-22,-15,1
14:05:32:682657,-19,-1,-23,-1,15,26,8,6
14:05:32:689995,8,-8,2,-7,-7,0,-9,1
14:05:32:698276,8,-8,2,-7,-7,0,-9,1
14:05:32:699092,2,2,11,-2,-5,8,-13,3
14:05:32:713279,2,-5,6,-17,0,-12,-9,-4
14:05:32:714048,2,-5,6,-17,0,-12,-9,-4
14:05:32:720006,5,-3,-4,-3,7,-1,-5,-10
14:05:32:727583,3,2,8,-6,28,5,10,-1
14:05:32:735144,3,2,8,-6,28,5,10,-1
14:05:32:742627,5,-4,-25,-23,-4,-3,3,1
14:05:32:750072,-24,4,-1,-1,-10,1,1,0
14:05:32:758413,-24,4,-1,-1,-10,1,1,0
14:05:32:759095,3,3,15,16,-10,9,-2,1
14:05:32:773203,2,-4,10,-1,4,0,3,-3
14:05:32:774013,2,-4,10,-1,4,0,3,-3
14:05:32:780136,-3,-1,6,-2,-7,-2,-13,0
14:05:32:787540,-12,0,1,5,7,4,-4,-3
14:05:32:795165,-12,0,1,5,7,4,-4,-3
14:05:32:802534,18,3,11,7,-4,-35,1,0
14:05:32:810100,-12,3,0,-3,-21,11,1,-1
14:05:32:818265,-12,3,0,-3,-21,11,1,-1
14:05:32:819006,-10,-1,-3,-2,-30,35,11,5
14:05:32:833235,4,-6,3,-5,-16,10,22,3
14:05:32:834040,4,-6,3,-5,-16,10,22,3
14:05:32:840060,-13,2,5,-6,7,2,5,-3
14:05:32:847635,1,0,-5,-2,-5,5,-5,3
14:05:32:855095,1,0,-5,-2,-5,5,-5,3
14:05:32:862644,-16,-6,3,10,-5,5,-3,-5
14:05:32:869984,17,6,-1,6,16,0,0,1
14:05:32:878339,17,6,-1,6,16,0,0,1
14:05:32:879092,14,-2,2,-9,21,14,5,-1
14:05:32:901395,-26,-7,-12,4,-15,-27,-26,-2
14:05:32:902179,-26,-7,-12,4,-15,-27,-26,-2
14:05:32:902964,14,0,-12,-1,-7,9,8,-2
14:05:32:907586,0,7,26,-8,-40,4,-4,0
14:05:32:915123,0,7,26,-8,-40,4,-4,0
14:05:32:922489,5,2,-4,-3,2,-6,2,-1
14:05:32:930110,9,2,-1,16,21,-6,-7,-2
14:05:32:938271,9,2,-1,16,21,-6,-7,-2
14:05:32:939038,-4,-7,3,-5,5,13,6,-11
14:05:32:953203,-15,-6,-3,-7,-2,-18,-3,-5
14:05:32:954003,-15,-6,-3,-7,-2,-18,-3,-5
14:05:32:960016,11,3,0,-1,21,-17,-11,2
14:05:32:967563,3,-4,-10,-10,-8,16,14,-4
14:05:32:975213,3,-4,-10,-10,-8,16,14,-4
14:05:32:982543,-13,-5,-3,8,-7,-12,4,3
14:05:32:989994,-30,-7,3,-2,-25,11,1,-4
14:05:32:997699,-30,-7,3,-2,-25,11,1,-4
14:05:33:5028,15,1,13,12,14,24,3,4
14:05:33:13392,-13,-4,-14,-11,-5,-24,-4,-6
14:05:33:14106,-13,-4,-14,-11,-5,-24,-4,-6
14:05:33:20000,0,1,-19,-9,-7,-6,-14,1
14:05:33:35534,7,-7,-7,1,4,7,6,0
14:05:33:43359,7,-7,-7,1,4,7,6,0
14:05:33:44043,-17,4,12,-1,3,-21,-3,-1
14:05:33:50056,12,0,-4,-12,1,-3,3,6
14:05:33:65772,12,0,-4,-12,1,-3,3,6
14:05:33:66571,-20,-8,-6,-1,-28,14,-2,-12
14:05:33:73244,30,7,0,14,1,16,14,2
14:05:33:74056,30,7,0,14,1,16,14,2
14:05:33:80125,16,-5,-7,-5,-9,-9,2,0
14:05:33:103883,0,0,-4,12,10,-7,1,3
14:05:33:104670,0,0,-4,12,10,-7,1,3
14:05:33:105480,7,7,20,-2,6,-7,-4,-2
14:05:33:109977,8,3,9,-23,13,-21,-17,2
14:05:33:117597,8,3,9,-23,13,-21,-17,2
14:05:33:125176,-50,-4,-17,0,-3,2,-4,-2
14:05:33:133250,-15,-4,1,6,14,7,-4,-3
14:05:33:134045,-15,-4,1,6,14,7,-4,-3
14:05:33:140016,0,-1,17,-3,-14,-5,-16,-3
14:05:33:155673,24,2,-7,6,-13,-7,0,-1
14:05:33:156504,24,2,-7,6,-13,-7,0,-1
14:05:33:162609,19,1,-6,3,12,16,20,2
14:05:33:169988,-2,-4,-18,-1,-5,-28,-7,-1
14:05:33:177734,-2,-4,-18,-1,-5,-28,-7,-1
14:05:33:185071,-4,-5,18,-4,2,-17,-1,0
14:05:33:193267,-10,-4,2,2,-19,7,5,1
14:05:33:194111,-10,-4,2,2,-19,7,5,1
14:05:33:200089,1,3,-16,-13,-15,0,-6,3
14:05:33:215827,-16,-3,19,1,-4,-2,9,-10
14:05:33:216615,-16,-3,19,1,-4,-2,9,-10
14:05:33:222570,4,2,-1,21,6,12,9,4
14:05:33:230204,22,7,-13,-5,1,-2,13,4
14:05:33:237596,22,7,-13,-5,1,-2,13,4
14:05:33:245140,5,-7,13,-4,13,10,-2,-2
14:05:33:253200,-3,1,-14,-4,8,10,0,-10
14:05:33:253982,-3,1,-14,-4,8,10,0,-10
14:05:33:260077,33,3,-10,-5,20,-2,2,3
14:05:33:275841,-19,-8,-8,-11,-24,1,-12,-5
14:05:33:276559,-19,-8,-8,-11,-24,1,-12,-5
14:05:33:282558,13,4,-17,2,12,-24,-20,0
14:05:33:290094,0,-4,-4,-2,6,-6,-1,6
14:05:33:305795,0,-4,-4,-2,6,-6,-1,6
14:05:33:306610,-4,-2,-5,-29,-12,-15,-3,-6
14:05:33:313370,-19,0,8,8,4,-11,-15,3
14:05:33:314145,-19,0,8,8,4,-11,-15,3
14:05:33:319992,16,5,14,0,5,-6,-4,3
14:05:33:335757,17,-3,-13,-10,8,18,-2,1
14:05:33:336530,17,-3,-13,-10,8,18,-2,1
14:05:33:342544,-11,-5,-6,-5,-14,-8,-2,0
14:05:33:350119,-17,-4,2,8,6,7,-3,-3
14:05:33:357684,-17,-4,2,8,6,7,-3,-3
14:05:33:365110,-7,3,1,0,-1,3,4,0
14:05:33:373273,-17,2,1,-16,8,6,-2,0
14:05:33:374047,-17,2,1,-16,8,6,-2,0
14:05:33:380169,-10,2,1,1,-2,3,3,0
14:05:33:395832,21,6,7,-16,6,-20,-6,1
14:05:33:396624,21,6,7,-16,6,-20,-6,1
14:05:33:402536,-22,-5,6,12,17,4,5,2
14:05:33:410029,-33,-1,8,-19,5,1,-1,-4
14:05:33:417632,-33,-1,8,-19,5,1,-1,-4
14:05:33:425149,10,3,9,-6,-2,1,3,-1
14:05:33:433285,-7,-12,-16,6,-7,-20,-6,-2
14:05:33:434072,-7,-12,-16,6,-7,-20,-6,-2
14:05:33:440025,10,1,8,30,12,13,1,0
14:05:33:455681,-1,-6,-3,-12,-5,-9,5,1
14:05:33:456499,-1,-6,-3,-12,-5,-9,5,1
14:05:33:462581,11,3,1,-10,-2,3,4,5
14:05:33:470015,-17,-5,-15,-1,-5,11,3,-7
14:05:33:477666,-17,-5,-15,-1,-5,11,3,-7
14:05:33:485049,-42,-3,-18,-2,-1,3,-14,-4
14:05:33:493289,14,3,7,6,6,3,-12,1
14:05:33:494024,14,3,7,6,6,3,-12,1
14:05:33:500072,3,-3,-9,-8,-14,-9,-3,-1
14:05:33:515763,-4,-1,11,21,-25,5,7,3
14:05:33:516538,-4,-1,11,21,-25,5,7,3
14:05:33:522535,-12,-4,1,17,-11,13,8,-7
14:05:33:530052,20,5,3,-7,-8,-14,1,2
14:05:33:537574,20,5,3,-7,-8,-14,1,2
14:05:33:545087,6,-5,1,6,11,10,6,-1
14:05:33:553256,-20,-2,-6,-12,-4,-1,0,-2
14:05:33:554067,-20,-2,-6,-12,-4,-1,0,-2
14:05:33:560057,13,1,-15,-9,7,-8,-1,0
14:05:33:583879,22,-2,-13,-10,-3,23,6,5
14:05:33:584676,22,-2,-13,-10,-3,23,6,5
14:05:33:585492,-18,-18,2,8,1,6,-3,-1
14:05:33:590095,-18,-4,21,4,-13,-13,-16,-16
14:05:33:597660,-18,-4,21,4,-13,-13,-16,-16
14:05:33:605009,5,2,-3,-1,5,-10,0,-1
14:05:33:613069,12,2,27,17,14,3,0,3
14:05:33:620738,12,2,27,17,14,3,0,3
14:05:33:621530,-33,-2,11,-2,-6,-6,-5,-3
14:05:33:635725,-16,-4,-8,10,-10,-18,-8,0
14:05:33:636531,-16,-4,-8,10,-10,-18,-8,0
14:05:33:642547,32,6,-5,-5,8,-1,1,2
14:05:33:650055,-23,5,7,-3,13,3,5,-3
14:05:33:657603,-23,5,7,-3,13,3,5,-3
14:05:33:664995,12,-2,8,-31,-12,-2,1,1
14:05:33:673222,19,2,-14,18,34,6,11,3
14:05:33:674022,19,2,-14,18,34,6,11,3
14:05:33:680109,-15,-4,-34,-5,-5,-9,-2,-4
14:05:33:695745,35,2,4,9,-8,-12,-3,5
14:05:33:696536,35,2,4,9,-8,-12,-3,5
14:05:33:702506,-5,2,0,8,-3,-2,-13,-10
14:05:33:710004,18,-6,33,0,-10,12,6,3
14:05:33:717594,18,-6,33,0,-10,12,6,3
14:05:33:725134,28,-5,9,-7,-14,2,13,-3
14:05:33:733189,13,6,-17,-1,6,-9,-2,-2
14:05:33:734003,13,6,-17,-1,6,-9,-2,-2
14:05:33:740043,-24,-1,13,2,-5,-3,-11,-1
14:05:33:755787,-24,-1,13,2,-5,-3,-11,-1
14:05:33:756566,-16,-4,-24,-1,-11,5,-9,-2
14:05:33:762635,16,-5,4,-6,-7,11,6,-1
14:05:33:778389,16,-5,4,-6,-7,11,6,-1
14:05:33:779043,-8,-3,-20,5,7,0,-1,-7
14:05:33:785030,12,9,-18,-13,-3,0,-1,4
14:05:33:793270,12,9,-18,-13,-3,0,-1,4
14:05:33:794049,-10,1,-2,-9,8,3,23,3
14:05:33:800059,-9,3,8,11,13,-13,-10,2
14:05:33:815793,-9,3,8,11,13,-13,-10,2
14:05:33:816574,1,4,7,-10,-20,4,1,5
14:05:33:822549,-40,-4,1,1,15,16,1,-11
14:05:33:838242,-40,-4,1,1,15,16,1,-11
14:05:33:839058,-17,-4,5,-2,-7,-25,-2,-1
14:05:33:845087,-14,-6,3,2,-4,-5,-2,-1
14:05:33:861482,-14,-6,3,2,-4,-5,-2,-1
14:05:33:862217,23,11,31,20,15,18,2,2
14:05:33:863005,8,4,5,19,-1,-9,-1,5
14:05:33:875814,8,4,5,19,-1,-9,-1,5
14:05:33:876547,-39,0,-14,-11,-28,-10,-14,-10
14:05:33:882547,3,-1,1,-9,9,4,16,5
14:05:33:898235,3,-1,1,-9,9,4,16,5
14:05:33:899029,-10,-2,-2,2,2,-16,-6,0
14:05:33:905028,-1,-6,-24,-19,-4,-6,-3,-3
14:05:33:913337,-1,-6,-24,-19,-4,-6,-3,-3
14:05:33:914032,20,-3,-8,-11,13,17,1,0
14:05:33:919965,-22,-3,7,-8,-30,-29,-28,-4
14:05:33:935738,-22,-3,7,-8,-30,-29,-28,-4
14:05:33:936524,-10,-4,-5,13,11,-8,-1,1
14:05:33:942672,-17,-1,-3,13,9,21,2,-1
14:05:33:958802,-17,-1,-3,13,9,21,2,-1
14:05:33:965771,20,-1,-2,-4,23,10,-3,-1
14:05:33:966527,6,-7,-9,-12,-6,7,-3,-1
14:05:33:973259,6,-7,-9,-12,-6,7,-3,-1
14:05:33:974041,5,-1,-8,-4,15,0,4,-9
14:05:33:987538,42,1,-12,-13,-19,14,25,0
14:05:33:995788,42,1,-12,-13,-19,14,25,0
14:05:33:996506,-24,-5,5,15,4,-19,-27,-2
14:05:34:2530,-5,4,12,4,4,7,7,1
14:05:34:18317,-5,4,12,4,4,7,7,1
14:05:34:19031,6,-3,-9,-14,-13,-4,-5,-5
14:05:34:25173,9,3,-6,8,19,-3,-7,4
14:05:34:33255,9,3,-6,8,19,-3,-7,4
14:05:34:34039,6,-1,-2,-1,8,6,5,0
14:05:34:48042,-19,-2,2,1,-14,-33,3,-4
14:05:34:64001,-19,-2,2,1,-14,-33,3,-4
14:05:34:64740,-5,-2,-2,-14,-21,21,6,6
14:05:34:65527,-24,-9,-12,1,9,-4,-22,-7
14:05:34:78327,-24,-9,-12,1,9,-4,-22,-7
14:05:34:79010,10,7,7,1,-10,13,10,5
14:05:34:85034,-8,-2,3,6,-12,17,-1,1
14:05:34:93293,-8,-2,3,6,-12,17,-1,1
14:05:34:93998,-27,-2,-6,0,13,-26,-11,-7
14:05:34:107638,-8,2,-7,0,-1,-8,-1,3
14:05:34:115800,-8,2,-7,0,-1,-8,-1,3
14:05:34:116582,2,-12,-2,1,-5,9,-12,0
14:05:34:138899,9,-1,0,8,18,5,-12,-3
14:05:34:139703,9,-1,0,8,18,5,-12,-3
14:05:34:140491,-8,0,14,8,-1,4,4,3
14:05:34:145147,-12,-1,-7,-15,-6,-26,-3,-5
14:05:34:153200,-12,-1,-7,-15,-6,-26,-3,-5
14:05:34:153984,3,-2,-17,-2,16,-12,2,-6
14:05:34:167558,41,6,-8,-4,10,-7,1,6
14:05:34:183904,41,6,-8,-4,10,-7,1,6
14:05:34:184715,20,1,5,-12,-13,12,11,1
14:05:34:185513,-16,-4,-3,1,4,36,1,-8
14:05:34:198319,-16,-4,-3,1,4,36,1,-8
14:05:34:199018,4,0,-5,12,14,-19,-4,-3
14:05:34:205032,10,-6,-4,-9,-17,-11,5,-3
14:05:34:213361,10,-6,-4,-9,-17,-11,5,-3
14:05:34:214118,2,3,9,11,13,7,-4,0
14:05:34:227574,2,1,-7,-3,-5,-21,0,-3
14:05:34:235761,2,1,-7,-3,-5,-21,0,-3
14:05:34:236539,-39,-11,-19,-20,-55,-25,-27,-11
14:05:34:242545,3,6,18,9,54,-3,-44,4
14:05:34:258297,3,6,18,9,54,-3,-44,4
14:05:34:259033,18,3,-5,-6,-4,-1,5,-1
14:05:34:265092,-51,-6,-7,14,6,-12,6,-3
14:05:34:273283,-51,-6,-7,14,6,-12,6,-3
14:05:34:274066,-11,-2,-6,-6,-10,12,10,5
14:05:34:287550,10,-1,-12,-12,-14,2,26,0
14:05:34:295835,10,-1,-12,-12,-14,2,26,0
14:05:34:296527,-16,0,-4,3,-2,6,10,4
14:05:34:302504,-2,-4,0,1,-5,1,27,3
14:05:34:318233,-2,-4,0,1,-5,1,27,3
14:05:34:318988,4,3,-4,-21,-7,7,5,-1
14:05:34:325122,40,6,14,2,8,-2,-6,0
14:05:34:333942,40,6,14,2,8,-2,-6,0
14:05:34:334740,-2,-3,19,-2,20,-29,5,-6
14:05:34:347667,-3,-6,-21,-24,-21,6,10,1
14:05:34:355700,-3,-6,-21,-24,-21,6,10,1
14:05:34:356528,8,4,14,-4,-10,13,-2,4
14:05:34:362643,30,5,28,10,16,16,2,-3
14:05:34:378342,30,5,28,10,16,16,2,-3
14:05:34:379034,6,-2,-5,-1,-22,14,-3,2
14:05:34:385044,-28,-2,-9,-5,-37,10,-7,1
14:05:34:393236,-28,-2,-9,-5,-37,10,-7,1
14:05:34:394052,-9,-2,-8,7,-1,-5,8,-3
14:05:34:407590,21,2,6,28,21,-15,-8,1
14:05:34:415728,21,2,6,28,21,-15,-8,1
14:05:34:416527,-1,6,-12,-31,-10,-4,-3,2
14:05:34:422548,-10,-2,10,-10,-6,-22,-11,-9
14:05:34:438286,-10,-2,10,-10,-6,-22,-11,-9
14:05:34:439047,13,2,8,17,15,23,2,3
14:05:34:445159,-10,-1,5,-18,-5,3,-5,-4
14:05:34:453213,-10,-1,5,-18,-5,3,-5,-4
14:05:34:454003,33,3,15,10,6,-11,-9,2
14:05:34:467550,-13,-29,4,-5,-6,6,-2,0
14:05:34:475825,-13,-29,4,-5,-6,6,-2,0
14:05:34:476538,2,-4,16,7,16,4,11,-1
14:05:34:482538,-14,4,-1,-2,-12,11,-4,0
14:05:34:498308,-14,4,-1,-2,-12,11,-4,0
14:05:34:499056,-24,-8,-3,-8,-5,-16,-8,-6
14:05:34:505024,7,4,-12,7,4,5,5,-4
14:05:34:513760,7,4,-12,7,4,5,5,-4
14:05:34:520028,1,4,-6,10,6,-8,-3,3
14:05:34:527595,0,3,16,-7,-15,-3,4,4
14:05:34:535698,0,3,16,-7,-15,-3,4,4
14:05:34:536488,7,-2,-21,-1,-3,-1,3,-2
14:05:34:542573,-18,-5,-17,-4,-4,-3,-9,-3
14:05:34:558319,-18,-5,-17,-4,-4,-3,-9,-3
14:05:34:559048,-18,-10,-15,-21,-9,-6,-4,-4
14:05:34:565114,18,3,5,11,-5,11,8,6
14:05:34:573261,18,3,5,11,-5,11,8,6
14:05:34:574014,4,6,-2,28,18,-9,-6,-1
14:05:34:587527,-5,1,4,-10,8,-15,4,0
14:05:34:595760,-5,1,4,-10,8,-15,4,0
14:05:34:596512,-34,-7,14,-2,-8,-4,-12,-9
14:05:34:602537,18,-4,-8,-8,-1,-6,-4,4
14:05:34:618298,18,-4,-8,-8,-1,-6,-4,4
14:05:34:619046,-1,6,0,3,0,4,9,-3
14:05:34:625132,12,8,12,14,19,10,3,3
14:05:34:633250,12,8,12,14,19,10,3,3
14:05:34:634001,22,-3,-7,-19,-16,-3,-7,0
14:05:34:647618,15,-11,7,0,-12,-2,2,-2
14:05:34:655760,15,-11,7,0,-12,-2,2,-2
14:05:34:656541,27,-1,4,4,-7,18,10,2
14:05:34:662581,-2,9,-1,0,13,0,-7,-1
14:05:34:678364,-2,9,-1,0,13,0,-7,-1
14:05:34:679044,-15,-1,15,-2,-4,0,-3,-2
14:05:34:685010,-26,3,1,8,13,-7,-3,-4
14:05:34:693264,-26,3,1,8,13,-7,-3,-4
14:05:34:694072,-7,8,17,-9,10,0,-15,5
14:05:34:707567,5,-4,14,-3,-6,-7,-9,-6
14:05:34:715775,5,-4,14,-3,-6,-7,-9,-6
14:05:34:716609,-4,-5,-9,21,6,-2,1,4
14:05:34:722564,-46,-3,-28,-31,-20,-7,-8,-2
14:05:34:738250,-46,-3,-28,-31,-20,-7,-8,-2
14:05:34:739016,21,0,-1,10,-6,-1,12,2
14:05:34:745151,-9,9,0,2,13,1,-1,-11
14:05:34:753251,-9,9,0,2,13,1,-1,-11
14:05:34:754046,-16,-22,-26,-5,15,10,1,-4
14:05:34:767570,7,1,-19,-4,-10,-9,-22,4
14:05:34:775837,7,1,-19,-4,-10,-9,-22,4
14:05:34:776589,-1,6,10,-10,-14,-14,2,0
14:05:34:782534,5,-11,-30,-25,-11,11,11,2
14:05:34:806407,5,-11,-30,-25,-11,11,11,2
14:05:34:807196,19,8,-29,-17,-5,-3,-11,-4
14:05:34:808000,-4,3,-11,14,-4,-2,13,3
14:05:34:813327,-4,3,-11,14,-4,-2,13,3
14:05:34:814008,-16,-8,7,8,-8,-17,-3,-10
14:05:34:827629,22,6,7,12,16,-7,6,-1
14:05:34:835735,22,6,7,12,16,-7,6,-1
14:05:34:836471,8,11,-10,-9,-16,-3,-4,6
14:05:34:842585,-11,-5,0,19,14,-1,-2,-7
14:05:34:858354,-11,-5,0,19,14,-1,-2,-7
14:05:34:859075,6,-4,-16,-21,4,-13,-18,-6
14:05:34:873936,2,-5,0,-13,-4,1,1,-1
14:05:34:874727,2,-5,0,-13,-4,1,1,-1
14:05:34:875566,-13,-6,-22,-5,3,10,-1,-2
14:05:34:887506,20,-2,-12,5,-1,10,1,3
14:05:34:895860,20,-2,-12,5,-1,10,1,3
14:05:34:896528,5,7,16,2,-9,-1,2,-7
14:05:34:910041,5,-6,3,8,-26,5,3,0
14:05:34:918259,5,-6,3,8,-26,5,3,0
14:05:34:919030,6,2,34,11,-3,6,6,6
14:05:34:925087,10,8,7,14,-1,-2,-2,0
14:05:34:932594,10,8,7,14,-1,-2,-2,0
14:05:34:948184,-10,-1,4,13,14,-5,-9,-4
14:05:34:948948,1,3,14,-6,-1,3,8,1
14:05:34:955744,1,3,14,-6,-1,3,8,1
14:05:34:956503,-14,9,2,0,2,-2,-3,3
14:05:34:970037,24,-1,16,15,5,-7,-3,-2
14:05:34:978286,24,-1,16,15,5,-7,-3,-2
14:05:34:979016,-6,-7,-19,-28,-10,2,1,-5
14:05:34:985003,-26,1,50,3,-11,2,-1,-4
14:05:34:992604,-26,1,50,3,-11,2,-1,-4
14:05:35:31,3,4,-3,6,1,-1,13,7
14:05:35:7505,-10,-6,-9,13,14,8,15,-1
14:05:35:15785,-10,-6,-9,13,14,8,15,-1
14:05:35:16558,-18,-8,-7,11,11,8,9,-2
14:05:35:30125,7,-2,-18,-16,4,9,-4,-2
14:05:35:38237,7,-2,-18,-16,4,9,-4,-2
14:05:35:39005,-19,-7,-5,-6,6,-9,2,-7
14:05:35:45126,-9,2,-26,-36,3,-4,-6,-5
14:05:35:52575,-9,2,-26,-36,3,-4,-6,-5
14:05:35:60031,-9,2,20,9,6,1,-3,2
14:05:35:75555,11,0,-11,-13,-2,1,-4,5
14:05:35:83248,11,0,-11,-13,-2,1,-4,5
14:05:35:84042,18,3,13,-3,-13,-3,0,-1
14:05:35:89986,9,1,-6,-5,-18,-13,-15,0
14:05:35:98255,9,1,-6,-5,-18,-13,-15,0
14:05:35:99068,-29,-7,19,7,-2,-3,-1,1
14:05:35:105014,-24,-3,6,23,12,-5,4,-2
14:05:35:112726,-24,-3,6,23,12,-5,4,-2
14:05:35:120024,3,-9,-29,-6,-6,0,0,2
14:05:35:127653,8,2,4,-2,-9,-6,-5,0
14:05:35:135726,8,2,4,-2,-9,-6,-5,0
14:05:35:136484,18,-1,-2,1,-6,-1,-5,0
14:05:35:150500,0,-15,2,-5,1,8,-10,1
14:05:35:158310,0,-15,2,-5,1,8,-10,1
14:05:35:159001,37,2,-11,-6,-5,5,2,2
14:05:35:165075,-41,1,-10,-6,0,-2,-6,0
14:05:35:172584,-41,1,-10,-6,0,-2,-6,0
14:05:35:180082,9,-5,-8,-8,-11,11,-2,-4
14:05:35:187550,7,0,11,-10,-5,-1,3,-4
14:05:35:195819,7,0,11,-10,-5,-1,3,-4
14:05:35:196528,0,7,12,7,7,-26,1,4
14:05:35:210072,-1,-5,-26,4,16,11,7,-6
14:05:35:226455,-1,-5,-26,4,16,11,7,-6
14:05:35:227153,14,0,19,-6,4,23,5,-2
14:05:35:227975,29,8,11,6,4,2,7,3
14:05:35:240768,29,8,11,6,4,2,7,3
14:05:35:241569,15,6,-12,-6,-8,-19,-14,-1
14:05:35:247656,18,2,-31,-1,-5,-3,1,1
14:05:35:255724,18,2,-31,-1,-5,-3,1,1
14:05:35:256502,5,-3,-13,1,19,5,-9,0
14:05:35:270022,26,0,0,-4,-6,10,-5,-3
14:05:35:278321,26,0,0,-4,-6,10,-5,-3
14:05:35:279081,-25,-4,-18,-5,3,3,-5,-2
14:05:35:285015,-2,-1,5,0,18,-23,1,-1
14:05:35:292680,-2,-1,5,0,18,-23,1,-1
14:05:35:300080,-28,-5,20,-4,-2,6,-6,-3
14:05:35:307592,-3,-2,6,1,-1,7,-11,3
14:05:35:315719,-3,-2,6,1,-1,7,-11,3
14:05:35:316521,21,-2,-7,16,3,28,22,-1
14:05:35:330064,-11,-3,-5,10,-9,17,-4,9
14:05:35:338200,-11,-3,-5,10,-9,17,-4,9
14:05:35:338989,-10,-1,-18,-4,-16,-7,-14,-3
14:05:35:361460,5,-41,-1,-9,3,-27,0,-5
14:05:35:362235,5,-41,-1,-9,3,-27,0,-5
14:05:35:363045,27,12,14,9,13,-15,-22,0
14:05:35:367536,-31,9,-9,-9,-18,-5,0,-10
14:05:35:375848,-31,9,-9,-9,-18,-5,0,-10
14:05:35:376554,-2,-3,4,-4,4,-38,-1,-1
14:05:35:390023,-18,-1,3,1,3,13,4,-5
14:05:35:398285,-18,-1,3,1,3,13,4,-5
14:05:35:399057,-8,3,1,-6,-12,8,11,0
14:05:35:405043,-11,7,-17,-22,0,-13,6,3
14:05:35:412756,-11,7,-17,-22,0,-13,6,3
14:05:35:419988,-25,0,-16,2,-5,-7,1,2
14:05:35:427640,4,10,10,11,10,-26,4,-1
14:05:35:435780,4,10,10,11,10,-26,4,-1
14:05:35:436546,6,-4,-6,1,12,-18,-8,-1
14:05:35:450780,14,15,10,0,-21,-2,-2,3
14:05:35:451549,14,15,10,0,-21,-2,-2,3
14:05:35:457561,-11,-2,0,3,-6,10,2,-10
14:05:35:465061,-21,-5,2,-4,-3,-23,-7,-1
14:05:35:472607,-21,-5,2,-4,-3,-23,-7,-1
14:05:35:480135,-2,-1,37,-13,-17,5,-22,-2
14:05:35:487549,5,0,9,0,-4,26,3,-4
14:05:35:503257,5,0,9,0,-4,26,3,-4
14:05:35:504073,-26,-12,-9,-10,-7,4,6,-6
14:05:35:510785,-1,-2,20,28,3,-13,-12,-1
14:05:35:511536,-1,-2,20,28,3,-13,-12,-1
14:05:35:517567,-10,1,2,0,-14,-17,5,5
14:05:35:525146,-5,-24,-3,-12,1,25,13,-1
14:05:35:532610,-5,-24,-3,-12,1,25,13,-1
14:05:35:540016,3,8,-4,-12,-2,-1,9,-3
14:05:35:556385,12,4,-1,15,9,8,13,4
14:05:35:557221,12,4,-1,15,9,8,13,4
14:05:35:557966,31,8,-3,5,10,-14,-3,1
14:05:35:570737,0,-1,-9,-4,-15,-8,-16,-6
14:05:35:571508,0,-1,-9,-4,-15,-8,-16,-6
14:05:35:577608,10,0,-1,3,20,6,-9,6
14:05:35:585081,6,5,7,-12,-17,-2,-2,2
14:05:35:592623,6,5,7,-12,-17,-2,-2,2
14:05:35:600078,-7,-9,-4,-5,-24,28,0,-7
14:05:35:607617,6,2,-6,-3,-17,11,1,5
14:05:35:615746,6,2,-6,-3,-17,11,1,5
14:05:35:616532,18,-1,-20,9,10,-2,-6,-5
14:05:35:630534,-17,3,-18,-3,-7,-6,-5,-5
14:05:35:638244,-17,3,-18,-3,-7,-6,-5,-5
14:05:35:639016,-8,5,-12,-5,3,-4,0,0
14:05:35:645152,0,2,-6,-4,8,2,-14,-6
14:05:35:652573,0,2,-6,-4,8,2,-14,-6
14:05:35:660031,5,-1,14,5,-33,25,15,4
14:05:35:667515,-13,2,-6,-26,-5,-20,2,-5
14:05:35:675829,-13,2,-6,-26,-5,-20,2,-5
14:05:35:676524,-53,-9,-22,-15,-2,-11,-7,-7
14:05:35:690763,-12,2,2,21,-6,7,1,1
14:05:35:691560,-12,2,2,21,-6,7,1,1
14:05:35:697579,13,-7,4,4,7,0,-3,3
14:05:35:704991,5,-3,-4,-22,22,-25,-13,-2
14:05:35:712627,5,-3,-4,-22,22,-25,-13,-2
14:05:35:719995,-26,2,-2,4,4,12,13,0
14:05:35:727590,4,-7,0,-1,14,-39,-16,-3
14:05:35:735765,4,-7,0,-1,14,-39,-16,-3
14:05:35:736563,18,6,7,-16,-5,13,5,-2
14:05:35:750793,6,-5,9,9,11,33,9,-1
14:05:35:751619,6,-5,9,9,11,33,9,-1
14:05:35:757569,-8,-4,-6,8,13,3,-17,-6
14:05:35:765093,2,3,6,23,-5,8,1,-3
14:05:35:772634,2,3,6,23,-5,8,1,-3
14:05:35:780168,-2,3,19,1,-5,2,-3,0
14:05:35:787543,11,9,-14,16,4,9,0,7
14:05:35:795785,11,9,-14,16,4,9,0,7
14:05:35:796567,-6,-7,-8,6,6,-23,2,-3
14:05:35:810894,-11,-8,1,13,7,28,14,3
14:05:35:811601,-11,-8,1,13,7,28,14,3
14:05:35:817544,-14,10,12,1,-30,-10,-18,0
14:05:35:833266,-3,5,22,-11,-1,19,15,4
14:05:35:834071,-3,5,22,-11,-1,19,15,4
14:05:35:840058,-28,-6,-4,19,18,-9,0,-1
14:05:35:847648,-67,-5,-12,-5,3,-10,-2,-5
14:05:35:855080,-67,-5,-12,-5,3,-10,-2,-5
14:05:35:862602,17,-8,-18,-27,-5,-13,-2,0
14:05:35:870681,22,0,-8,-10,-6,20,-1,-11
14:05:35:871503,22,0,-8,-10,-6,20,-1,-11
14:05:35:877660,-43,-4,12,18,2,-15,3,-9
14:05:35:893365,5,-6,-16,-5,-7,-8,2,-1
14:05:35:894055,5,-6,-16,-5,-7,-8,2,-1
14:05:35:900037,14,9,-17,-2,31,15,10,3
14:05:35:907564,6,10,-4,1,6,-17,-7,3
14:05:35:915090,6,10,-4,1,6,-17,-7,3
14:05:35:922563,-10,0,-1,3,9,-16,11,2
14:05:35:930894,1,-7,11,2,-7,-6,-4,2
14:05:35:931522,1,-7,11,2,-7,-6,-4,2
14:05:35:937483,16,-2,24,-7,-13,-8,1,-2
14:05:35:953204,17,-1,3,0,10,12,-4,2
14:05:35:954002,17,-1,3,0,10,12,-4,2
14:05:35:960084,-24,-6,-2,0,-19,-21,-8,-12
14:05:35:967560,-16,7,-7,3,-19,9,22,1
14:05:35:975172,-16,7,-7,3,-19,9,22,1
14:05:35:991439,1,10,-33,-14,3,6,-5,3
14:05:35:992172,9,20,-1,2,-1,-31,-29,-8
14:05:35:992989,9,20,-1,2,-1,-31,-29,-8
14:05:35:997576,30,-6,-16,15,6,-3,1,5
14:05:36:13362,-56,-18,-11,8,-8,1,-2,-10
14:05:36:14100,-56,-18,-11,8,-8,1,-2,-10
14:05:36:19990,7,1,10,-15,-15,-16,-7,3
14:05:36:35721,17,-1,12,-6,15,3,-4,5
14:05:36:36528,17,-1,12,-6,15,3,-4,5
14:05:36:42592,-17,-5,6,2,-5,17,10,-1
14:05:36:50681,19,10,11,-15,-6,-56,-34,1
14:05:36:58328,19,10,11,-15,-6,-56,-34,1
14:05:36:59010,19,-1,-5,-10,-7,-1,-3,1
14:05:36:73243,-11,-8,11,7,6,15,4,-5
14:05:36:74072,-11,-8,11,7,6,15,4,-5
14:05:36:80059,27,-15,3,0,-1,24,9,0
14:05:36:87526,7,-3,-19,-13,0,-7,12,3
14:05:36:95139,7,-3,-19,-13,0,-7,12,3
14:05:36:102594,-22,0,-15,-5,7,-20,-22,-9
14:05:36:110757,-20,-6,-4,-17,-7,-5,-11,-1
14:05:36:111559,-20,-6,-4,-17,-7,-5,-11,-1
14:05:36:117507,-5,3,2,7,4,1,8,4
14:05:36:133241,17,-1,3,-5,-12,-4,7,3
14:05:36:134038,17,-1,3,-5,-12,-4,7,3
14:05:36:140070,14,-3,-9,-4,2,8,-7,6
14:05:36:147633,0,-16,-3,-1,-3,5,0,-7
14:05:36:155043,0,-16,-3,-1,-3,5,0,-7
14:05:36:162581,20,9,15,5,11,-31,-40,1
14:05:36:170688,-5,-8,5,2,-14,10,19,1
14:05:36:171525,-5,-8,5,2,-14,10,19,1
14:05:36:177584,16,-2,-2,13,1,22,12,-1
14:05:36:193260,-13,0,-7,-18,-9,16,1,-3
14:05:36:194017,-13,0,-7,-18,-9,16,1,-3
14:05:36:200063,-3,-3,9,-16,-2,4,14,-3
14:05:36:207546,17,14,12,9,3,15,24,0
14:05:36:215122,17,14,12,9,3,15,24,0
14:05:36:222504,-19,-1,-8,5,2,-1,-1,-4
14:05:36:230894,3,-3,-21,5,10,-1,-7,-3
14:05:36:231560,3,-3,-21,5,10,-1,-7,-3
14:05:36:237526,16,-10,-6,-13,-2,40,15,5
14:05:36:253240,38,6,8,-13,8,9,-17,0
14:05:36:254033,38,6,8,-13,8,9,-17,0
14:05:36:260081,14,11,4,1,-2,-16,2,3
14:05:36:267516,-3,-4,-10,8,10,-13,-2,-3
14:05:36:275116,-3,-4,-10,8,10,-13,-2,-3
14:05:36:282577,-21,4,-1,-4,-5,-20,-18,-4
14:05:36:290752,-17,-7,-27,-14,12,-5,-2,-2
14:05:36:291558,-17,-7,-27,-14,12,-5,-2,-2
14:05:36:297657,-4,-6,3,-4,9,8,15,-4
14:05:36:313388,-28,-6,7,18,16,-12,-8,-5
14:05:36:314034,-28,-6,7,18,16,-12,-8,-5
14:05:36:319979,10,0,-4,4,18,23,11,1
14:05:36:327603,-31,-1,12,3,-10,-9,4,-1
14:05:36:335111,-31,-1,12,3,-10,-9,4,-1
14:05:36:351415,-6,-3,3,-11,-25,-22,-9,6
14:05:36:352220,-10,1,10,7,-16,-9,-11,1
14:05:36:353034,-10,1,10,7,-16,-9,-11,1
14:05:36:357561,4,-9,-4,-7,5,10,3,-11
14:05:36:373316,9,-8,22,-6,-4,30,22,1
14:05:36:374071,9,-8,22,-6,-4,30,22,1
14:05:36:380151,1,1,19,-8,10,0,-1,1
14:05:36:387485,22,9,13,-5,-11,-20,-7,4
14:05:36:395232,22,9,13,-5,-11,-20,-7,4
14:05:36:402547,10,8,-1,12,11,11,-4,2
14:05:36:410741,6,-3,-9,-11,-14,13,2,4
14:05:36:411613,6,-3,-9,-11,-14,13,2,4
14:05:36:417544,-25,-8,0,-3,-16,-21,-16,-6
14:05:36:433279,3,5,6,14,11,23,15,0
14:05:36:434080,3,5,6,14,11,23,15,0
14:05:36:440059,-16,0,-14,0,-25,20,-9,-3
14:05:36:447611,-11,9,-11,-8,-23,-2,-7,-14
14:05:36:455092,-11,9,-11,-8,-23,-2,-7,-14
14:05:36:462671,-21,-4,1,-7,3,-9,8,2
14:05:36:470706,14,6,-9,-3,8,-1,-7,4
14:05:36:471495,14,6,-9,-3,8,-1,-7,4
14:05:36:477673,14,2,4,-3,-3,-26,-13,-5
14:05:36:493218,17,0,-7,15,15,5,-3,3
14:05:36:494010,17,0,-7,15,15,5,-3,3
14:05:36:500053,-31,-9,-15,-3,-26,19,7,-4
14:05:36:507551,-4,-2,0,-6,-1,-18,-28,0
14:05:36:515063,-4,-2,0,-6,-1,-18,-28,0
14:05:36:522553,17,0,11,11,-4,-5,-10,1
14:05:36:530807,14,2,-8,-7,-6,-8,-5,2
14:05:36:531514,14,2,-8,-7,-6,-8,-5,2
14:05:36:537475,2,2,-2,3,1,6,11,-7
14:05:36:553202,-19,-5,19,-10,-7,7,12,2
14:05:36:554000,-19,-5,19,-10,-7,7,12,2
14:05:36:560096,3,-12,14,-15,8,-12,6,4
14:05:36:567580,5,3,-16,11,-24,-18,-1,1
14:05:36:575137,5,3,-16,11,-24,-18,-1,1
14:05:36:582550,-11,3,-9,0,13,22,-5,-3
14:05:36:590783,5,-4,-11,-16,10,-6,-7,-4
14:05:36:591605,5,-4,-11,-16,10,-6,-7,-4
14:05:36:597584,13,-2,-19,6,11,0,2,-1
14:05:36:613271,-1,6,8,15,12,9,13,0
14:05:36:614046,-1,6,8,15,12,9,13,0
14:05:36:619992,-31,-1,2,5,6,-12,-5,-6
14:05:36:627570,2,0,-16,-4,-5,12,4,5
14:05:36:635098,2,0,-16,-4,-5,12,4,5
14:05:36:642575,28,-5,-13,-2,3,2,-8,-1
14:05:36:650771,-6,-7,0,3,4,10,7,-5
14:05:36:651565,-6,-7,0,3,4,10,7,-5
14:05:36:657564,7,12,3,1,-23,-3,0,5
14:05:36:673267,5,-9,-33,1,14,-12,2,-1
14:05:36:674040,5,-9,-33,1,14,-12,2,-1
14:05:36:680123,-7,11,12,1,-19,-19,-1,0
14:05:36:687489,25,5,5,-6,-7,-12,-13,-4
14:05:36:695217,25,5,5,-6,-7,-12,-13,-4
14:05:36:702546,19,-6,-15,-6,-10,-10,1,-2
14:05:36:710723,5,3,3,12,4,1,4,-8
14:05:36:711514,5,3,3,12,4,1,4,-8
14:05:36:717605,10,6,-8,1,-4,4,4,4
14:05:36:733295,-11,-3,3,13,9,6,0,-4
14:05:36:734118,-11,-3,3,13,9,6,0,-4
14:05:36:740068,-23,16,23,5,1,-23,-7,-6
14:05:36:747597,-11,-6,-6,-14,-28,-19,-6,-4
14:05:36:755110,-11,-6,-6,-14,-28,-19,-6,-4
14:05:36:762601,-1,-15,3,5,12,25,7,3
14:05:36:770697,-17,-4,9,-14,0,13,6,0
14:05:36:771546,-17,-4,9,-14,0,13,6,0
14:05:36:793936,18,0,-2,1,-4,-6,8,5
14:05:36:794715,-17,1,13,7,11,-47,-52,0
14:05:36:795519,-17,1,13,7,11,-47,-52,0
14:05:36:800033,-3,-7,-7,-14,-11,-1,-4,-1
14:05:36:815737,5,-3,4,-2,15,5,13,-1
14:05:36:816590,5,-3,4,-2,15,5,13,-1
14:05:36:822514,3,-8,2,-8,13,3,12,-7
14:05:36:830819,10,4,15,-9,-11,3,-2,8
14:05:36:831543,10,4,15,-9,-11,3,-2,8
14:05:36:845058,-31,-8,-5,3,12,-14,-9,-10
14:05:36:853228,1,7,-15,-5,-7,-3,-4,0
14:05:36:854021,1,7,-15,-5,-7,-3,-4,0
14:05:36:860018,8,9,-6,0,-3,9,3,5
14:05:36:875762,6,1,-6,2,3,-20,2,4
14:05:36:876513,6,1,-6,2,3,-20,2,4
14:05:36:891552,-10,21,-4,12,11,26,10,2
14:05:36:892179,0,-7,0,-8,-3,3,13,-4
14:05:36:893024,0,-7,0,-8,-3,3,13,-4
14:05:36:905044,5,-22,12,-3,-20,-1,8,1
14:05:36:913306,-9,-6,-7,-2,5,23,-6,-5
14:05:36:914036,-9,-6,-7,-2,5,23,-6,-5
14:05:36:920023,6,3,4,0,-38,-1,-9,5
14:05:36:935711,-7,-7,-3,27,12,-11,-19,-4
14:05:36:936488,-7,-7,-3,27,12,-11,-19,-4
14:05:36:942578,-5,-2,2,-9,11,3,3,-2
14:05:36:950715,-5,-1,0,-10,-4,8,9,1
14:05:36:951548,-5,-1,0,-10,-4,8,9,1
14:05:36:965082,-4,-7,-12,0,30,-24,-17,-2
14:05:36:973203,2,8,14,-6,18,25,34,-1
14:05:36:973965,2,8,14,-6,18,25,34,-1
14:05:36:980113,1,-5,9,-4,6,-2,-2,-1
14:05:36:995844,2,-9,1,-2,-2,-15,-7,0
14:05:36:996606,2,-9,1,-2,-2,-15,-7,0
14:05:37:2563,-7,8,-5,6,7,8,-7,-6
14:05:37:10799,-5,-2,4,-3,-9,-3,-24,-4
14:05:37:11539,-5,-2,4,-3,-9,-3,-24,-4
14:05:37:25069,6,-7,-6,-8,-33,-27,-24,0
14:05:37:33245,-6,-10,-4,4,0,3,1,-5
14:05:37:34004,-6,-10,-4,4,0,3,1,-5
14:05:37:40052,0,3,-2,-2,9,-2,13,2
14:05:37:55763,-10,11,5,-9,-19,-18,-7,-2
14:05:37:56545,-10,11,5,-9,-19,-18,-7,-2
14:05:37:71386,-2,0,16,2,6,-5,3,-1
14:05:37:72198,4,3,5,-17,0,8,-2,0
14:05:37:73047,4,3,5,-17,0,8,-2,0
14:05:37:85015,0,9,9,-6,0,43,21,2
14:05:37:101427,0,9,9,-6,0,43,21,2
14:05:37:102181,1,4,-11,-3,-6,1,10,0
14:05:37:102943,-1,1,-41,-9,1,-6,3,1
14:05:37:115739,-1,1,-41,-9,1,-6,3,1
14:05:37:116517,-1,-3,-89,2,-14,9,8,3
14:05:37:122523,6,-18,52,-3,-37,-3,-2,0
14:05:37:130157,6,-18,52,-3,-37,-3,-2,0
14:05:37:137500,-5,-17,10,-6,-2,-23,-17,0
14:05:37:145111,-7,-15,-64,-16,6,-2,1,3
14:05:37:153215,-7,-15,-64,-16,6,-2,1,3
14:05:37:153986,6,10,14,5,2,-7,-9,2
14:05:37:160029,2,2,19,11,2,-21,-34,-6
14:05:37:175779,2,2,19,11,2,-21,-34,-6
14:05:37:176540,2,9,56,19,13,3,15,3
14:05:37:182546,-5,21,14,-1,2,-34,-4,0
14:05:37:190094,-5,21,14,-1,2,-34,-4,0
14:05:37:197616,4,-18,-24,-9,-6,-20,-15,3
14:05:37:204998,-9,2,-3,6,3,10,11,-5
14:05:37:213347,-9,2,-3,6,3,10,11,-5
14:05:37:214047,-5,-2,38,-12,2,19,9,-6
14:05:37:219962,-1,0,-51,-2,8,5,-1,-1
14:05:37:235753,-1,0,-51,-2,8,5,-1,-1
14:05:37:236497,5,24,40,-9,-29,-17,-5,-10
14:05:37:242599,0,10,-67,-18,30,33,1,-3
14:05:37:250127,0,10,-67,-18,30,33,1,-3
14:05:37:257550,0,-5,-95,-18,-7,14,13,-1
14:05:37:265052,1,-7,-7,5,-7,10,5,-2
14:05:37:273321,1,-7,-7,5,-7,10,5,-2
14:05:37:274098,-10,-8,24,15,1,3,19,2
14:05:37:280147,-2,22,48,12,8,-11,-17,0
14:05:37:295885,-2,22,48,12,8,-11,-17,0
14:05:37:296616,-8,-7,2,1,-1,-6,-1,4
14:05:37:302522,4,6,14,14,5,9,9,-15
14:05:37:310931,4,6,14,14,5,9,9,-15
14:05:37:311591,5,14,44,4,-1,-11,5,2
14:05:37:325130,0,-25,11,0,-3,-6,-6,1
14:05:37:333271,0,-25,11,0,-3,-6,-6,1
14:05:37:334069,9,-19,20,5,8,-2,-17,-12
14:05:37:347614,-9,25,27,7,-8,-5,3,2
14:05:37:355747,-9,25,27,7,-8,-5,3,2
14:05:37:356491,-3,-4,-39,-1,3,4,-17,8
14:05:37:362606,-3,-13,-16,-6,-24,-11,29,1
14:05:37:370726,-3,-13,-16,-6,-24,-11,29,1
14:05:37:371539,3,18,-14,-6,3,-2,11,1
14:05:37:385065,4,7,14,8,-1,-2,-14,2
14:05:37:393404,4,7,14,8,-1,-2,-14,2
14:05:37:394099,-37,5,0,1,-1,-8,-8,-9
14:05:37:400033,-2,-36,37,-3,5,6,-11,3
14:05:37:415819,-2,-36,37,-3,5,6,-11,3
14:05:37:416586,-4,-8,15,-4,3,17,5,-4
14:05:37:422559,4,-8,-11,5,3,-2,4,0
14:05:37:430917,4,-8,-11,5,3,-2,4,0
14:05:37:431579,6,-3,-23,-3,3,9,0,4
14:05:37:445124,-5,16,-9,-5,1,10,3,0
14:05:37:453903,-5,16,-9,-5,1,10,3,0
14:05:37:454675,3,-10,-5,-4,-4,-14,-11,-3
14:05:37:460075,3,12,9,3,-6,-10,-13,-2
14:05:37:475799,3,12,9,3,-6,-10,-13,-2
14:05:37:476537,6,19,10,20,-5,9,7,1
14:05:37:482483,1,1,-18,5,0,-5,-7,3
14:05:37:490068,1,1,-18,5,0,-5,-7,3
14:05:37:505730,12,5,30,-3,3,3,5,-6
14:05:37:506482,-5,-6,-14,-9,-2,3,5,-2
14:05:37:513386,-5,-6,-14,-9,-2,3,5,-2
14:05:37:514036,-10,-10,-27,-9,-11,-6,-12,-6
14:05:37:519963,4,-8,14,10,0,-5,-13,-4
14:05:37:535728,4,-8,14,10,0,-5,-13,-4
14:05:37:536467,4,-8,-47,1,-1,-44,-42,0
