Time,EMG1,EMG2,EMG3,EMG4,EMG5,EMG6,EMG7,EMG8
18:08:55:911316,-3,-3,-2,0,-2,-2,-1,-8
18:08:55:912097,-2,0,0,1,-1,-4,-9,-7
18:08:55:918097,-1,0,-1,-1,-1,2,16,-4
18:08:55:926257,-1,0,-1,-1,-1,2,16,-4
18:08:55:927064,0,1,2,-2,2,0,-5,0
18:08:55:940579,-4,-1,0,-3,-2,0,3,11
18:08:55:948792,-4,-1,0,-3,-2,0,3,11
18:08:55:949623,-2,-1,-2,0,-1,-2,-14,2
18:08:55:955539,2,0,-1,-1,0,-1,-3,-13
18:08:55:971313,2,0,-1,-1,0,-1,-3,-13
18:08:55:972096,0,-1,1,-1,-4,-4,-13,-3
18:08:55:978100,-3,0,0,-1,1,-3,-5,-3
18:08:55:986304,-3,0,0,-1,1,-3,-5,-3
18:08:55:987128,-2,-1,-5,-5,-3,3,24,4
18:08:56:570,1,-3,1,0,-2,-3,-31,-5
18:08:56:16972,1,-3,1,0,-2,-3,-31,-5
18:08:56:17739,1,-1,1,1,1,2,4,4
18:08:56:18512,-3,-3,-1,0,0,-3,0,-2
18:08:56:31297,-3,-3,-1,0,0,-3,0,-2
18:08:56:32050,-1,-1,1,-2,-2,-4,-15,-3
18:08:56:46910,-1,-2,2,1,-2,0,-4,-1
18:08:56:47700,-1,-2,2,1,-2,0,-4,-1
18:08:56:48537,0,0,-1,-4,-4,-1,12,-6
18:08:56:60580,-2,-1,-2,-2,-1,-3,-2,-4
18:08:56:68776,-2,-1,-2,-2,-1,-3,-2,-4
18:08:56:69569,-1,-1,-1,-2,-3,0,7,2
18:08:56:75613,-1,-1,-1,1,-1,1,15,-17
18:08:56:91282,-1,-1,-1,1,-1,1,15,-17
18:08:56:92066,-4,-1,-2,-3,-2,-1,3,-13
18:08:56:98096,-2,-1,-1,0,-3,3,12,8
18:08:56:106245,-2,-1,-1,0,-3,3,12,8
18:08:56:107029,-1,1,-2,2,-1,-2,-9,-2
18:08:56:120578,0,-2,-2,-1,0,-1,5,-4
18:08:56:137006,0,-2,-2,-1,0,-1,5,-4
18:08:56:137767,-3,-2,0,1,-1,-1,3,10
18:08:56:138521,1,-1,0,-3,-1,-2,8,0
18:08:56:151288,1,-1,0,-3,-1,-2,8,0
18:08:56:152070,0,-1,-3,-2,-1,-6,-10,-6
18:08:56:158060,-1,0,-4,0,-1,0,0,3
18:08:56:166320,-1,0,-4,0,-1,0,0,3
18:08:56:167129,0,0,0,-1,0,1,1,-4
18:08:56:180611,0,-1,-3,-3,-3,-3,-7,3
18:08:56:188779,0,-1,-3,-3,-3,-3,-7,3
18:08:56:189571,0,-1,-1,-1,-3,0,-1,0
18:08:56:195539,-2,-1,1,-2,0,2,1,-2
18:08:56:211288,-2,-1,1,-2,0,2,1,-2
18:08:56:212054,-2,0,-1,1,0,-1,-3,-25
18:08:56:218070,-1,-2,-1,0,-1,-3,-3,-2
18:08:56:226298,-1,-2,-1,0,-1,-3,-3,-2
18:08:56:227083,0,-2,0,0,0,1,1,18
18:08:56:240598,1,1,-1,-3,-1,-2,-5,-4
18:08:56:256305,1,1,-1,-3,-1,-2,-5,-4
18:08:56:257148,-1,-1,-2,-1,-1,0,-1,-5
18:08:56:263084,0,2,1,-1,0,-3,-1,15
18:08:56:271259,0,2,1,-1,0,-3,-1,15
18:08:56:272054,0,-3,-1,2,-2,-1,1,3
18:08:56:278105,-1,-2,0,1,-3,0,5,0
18:08:56:285639,-1,-2,0,1,-3,0,5,0
18:08:56:293068,0,0,0,-1,0,-3,-4,-1
18:08:56:300551,-2,-1,0,-3,-2,1,1,-7
18:08:56:308776,-2,-1,0,-3,-2,1,1,-7
18:08:56:309591,-1,-2,0,-2,0,-2,-10,2
18:08:56:323128,-2,-2,-2,0,1,2,-2,-1
18:08:56:331274,-2,-2,-2,0,1,2,-2,-1
18:08:56:332071,-2,0,0,-3,0,1,-16,1
18:08:56:338039,0,0,-2,0,-2,1,0,23
18:08:56:345624,0,0,-2,0,-2,1,0,23
18:08:56:353061,0,-2,-1,-2,0,1,13,3
18:08:56:360564,-1,0,1,0,-3,1,-2,-2
18:08:56:368841,-1,0,1,0,-3,1,-2,-2
18:08:56:369606,0,0,1,-3,-3,-1,2,0
18:08:56:383065,-1,-1,0,-2,2,-2,-2,-8
18:08:56:391280,-1,-1,0,-2,2,-2,-2,-8
18:08:56:392097,-2,-1,2,0,0,-5,-23,0
18:08:56:398083,-2,-2,-3,-2,0,-1,-13,-4
18:08:56:413788,-2,-2,-3,-2,0,-1,-13,-4
18:08:56:414541,-1,-1,0,-3,0,-1,-2,3
18:08:56:420556,-2,-2,-1,-2,-2,-2,-6,-7
18:08:56:428777,-2,-2,-1,-2,-2,-2,-6,-7
18:08:56:429602,1,-2,-4,0,-1,2,13,1
18:08:56:443106,-3,0,-1,1,0,0,10,-12
18:08:56:451283,-3,0,-1,1,0,0,10,-12
18:08:56:452071,-1,-1,1,-2,-3,1,2,1
18:08:56:458075,-1,-2,-1,0,-2,-5,-6,-2
18:08:56:473775,-1,-2,-1,0,-2,-5,-6,-2
18:08:56:474576,-3,0,-3,3,0,-1,5,-6
18:08:56:480596,-1,-1,-1,-2,0,-1,3,3
18:08:56:488778,-1,-1,-1,-2,0,-1,3,3
18:08:56:489557,1,1,0,0,-1,-1,0,-3
18:08:56:503103,-2,-2,-1,1,-1,-3,10,-3
18:08:56:511265,-2,-2,-1,1,-1,-3,10,-3
18:08:56:512055,-2,-2,-3,-1,0,0,0,-4
18:08:56:518037,0,-2,-1,-3,-3,0,-3,0
18:08:56:525604,0,-2,-1,-3,-3,0,-3,0
18:08:56:533051,0,-3,-4,-5,-6,-2,15,-23
18:08:56:540555,-1,-3,4,-2,-3,1,5,-1
18:08:56:548798,-1,-3,4,-2,-3,1,5,-1
18:08:56:549622,-1,1,1,-1,1,1,1,-22
18:08:56:571899,0,1,1,0,1,1,11,-3
18:08:56:572719,0,1,1,0,1,1,11,-3
18:08:56:573513,-2,-3,-3,-3,-1,-2,-12,8
18:08:56:578108,-2,-3,-1,-1,-2,-5,-22,-2
18:08:56:585644,-2,-3,-1,-1,-2,-5,-22,-2
18:08:56:593053,-2,-2,-2,1,-2,-2,6,6
18:08:56:600555,2,0,-4,2,-2,-1,-6,3
18:08:56:608791,2,0,-4,2,-2,-1,-6,3
18:08:56:609549,-1,-1,1,-1,-2,-1,-6,6
18:08:56:623102,-1,-2,-1,-2,-1,-2,-18,4
18:08:56:631303,-1,-2,-1,-2,-1,-2,-18,4
18:08:56:632093,0,0,1,-1,0,0,2,5
18:08:56:638049,-2,3,2,-2,-1,-1,-3,-3
18:08:56:645668,-2,3,2,-2,-1,-1,-3,-3
18:08:56:653089,-1,0,1,0,0,-2,-4,4
18:08:56:660557,-2,-1,-3,0,-2,-5,6,-12
18:08:56:668779,-2,-1,-3,0,-2,-5,6,-12
18:08:56:669575,1,-1,-3,1,-3,-2,-11,-3
18:08:56:691926,0,0,-2,-2,-1,2,1,3
18:08:56:692712,0,0,-2,-2,-1,2,1,3
18:08:56:693495,0,-1,0,0,-3,-5,-25,25
18:08:56:698093,0,2,0,-2,-1,2,17,3
18:08:56:705597,0,2,0,-2,-1,2,17,3
18:08:56:713070,-1,-1,0,-4,0,3,10,2
18:08:56:720546,-4,-5,-1,-1,-1,-2,-2,-1
18:08:56:728785,-4,-5,-1,-1,-1,-2,-2,-1
18:08:56:729600,1,-3,1,-1,-1,-1,0,-6
18:08:56:751916,-2,0,-4,-1,-1,-2,-3,-4
18:08:56:752738,-2,0,-4,-1,-1,-2,-3,-4
18:08:56:753529,-1,3,0,0,-2,-1,3,-7
18:08:56:758062,1,-1,1,-1,0,2,8,8
18:08:56:765612,1,-1,1,-1,0,2,8,8
18:08:56:773074,-2,-1,-1,-2,0,3,9,-6
18:08:56:796988,1,3,1,1,-1,-4,-9,2
18:08:56:797762,1,3,1,1,-1,-4,-9,2
18:08:56:798574,-4,-2,-2,-4,1,-1,-2,-4
18:08:56:803084,-1,-3,-2,-4,-1,0,-4,-3
18:08:56:811328,-1,-3,-2,-4,-1,0,-4,-3
18:08:56:812116,0,-2,-3,-1,-3,-1,-6,-1
18:08:56:818081,0,-2,0,-3,-2,-1,-2,-1
18:08:56:825609,0,-2,0,-3,-2,-1,-2,-1
18:08:56:833136,-3,-3,-2,-2,-1,-2,-20,8
18:08:56:849389,-1,0,1,1,-2,1,35,-4
18:08:56:850232,-1,0,1,1,-2,1,35,-4
18:08:56:851061,1,1,0,0,-3,-6,8,-1
18:08:56:863082,-1,-3,-3,-1,2,-1,-15,-1
18:08:56:871326,-1,-3,-3,-1,2,-1,-15,-1
18:08:56:872105,0,4,0,-1,-2,1,7,-5
18:08:56:878114,-4,-1,-2,0,-1,-1,-7,-1
18:08:56:885656,-4,-1,-2,0,-1,-1,-7,-1
18:08:56:893106,-3,-2,1,-1,1,-2,-1,-2
18:08:56:909455,0,1,-1,0,-3,-3,2,23
18:08:56:910263,0,1,-1,0,-3,-3,2,23
18:08:56:911062,-2,-2,-2,-2,-1,-2,1,-1
18:08:56:923052,-3,-3,-3,0,-3,0,-2,0
18:08:56:931305,-3,-3,-3,0,-3,0,-2,0
18:08:56:932101,2,4,3,0,-2,0,10,-2
18:08:56:938064,0,1,1,-4,-1,-3,-6,-20
18:08:56:945642,0,1,1,-4,-1,-3,-6,-20
18:08:56:953072,-1,-6,-3,2,0,-3,-5,-6
18:08:56:960612,-3,-1,1,-2,-2,-4,-15,-7
18:08:56:968837,-3,-1,1,-2,-2,-4,-15,-7
18:08:56:969602,-2,-1,-6,-3,-1,1,-2,-1
18:08:56:983073,1,0,-1,3,0,0,0,-3
18:08:56:991309,1,0,-1,3,0,0,0,-3
18:08:56:992087,1,-2,1,0,-3,-4,-3,-8
18:08:56:998075,0,-9,-7,0,-4,1,1,35
18:08:57:5611,0,-9,-7,0,-4,1,1,35
18:08:57:13081,-1,0,-2,-1,-1,1,3,6
18:08:57:29471,-2,3,-2,-3,0,-2,-12,-9
18:08:57:30272,-2,3,-2,-3,0,-2,-12,-9
18:08:57:31064,-2,-4,-2,-2,0,-1,10,-1
18:08:57:43092,-6,-14,-4,-2,-3,-7,-5,5
18:08:57:51274,-6,-14,-4,-2,-3,-7,-5,5
18:08:57:52090,3,2,1,-2,-2,0,-6,21
18:08:57:58064,3,9,2,-2,-1,2,5,-7
18:08:57:65637,3,9,2,-2,-1,2,5,-7
18:08:57:73113,-4,-5,-1,2,0,-4,-9,-4
18:08:57:89453,2,1,1,-2,1,0,-2,-19
18:08:57:90270,2,1,1,-2,1,0,-2,-19
18:08:57:91091,1,6,4,1,-1,2,1,1
18:08:57:103076,-1,4,1,-1,0,0,-17,35
18:08:57:111286,-1,4,1,-1,0,0,-17,35
18:08:57:112112,-2,3,1,-4,2,-1,-4,-1
18:08:57:118074,-5,-3,-1,0,-1,0,15,-34
18:08:57:125654,-5,-3,-1,0,-1,0,15,-34
18:08:57:133120,-1,-3,-4,-4,-5,-2,-12,-8
18:08:57:140638,-2,-3,0,0,-1,2,3,-4
18:08:57:148788,-2,-3,0,0,-1,2,3,-4
18:08:57:149533,-3,-6,-1,-1,-1,-1,-1,-14
18:08:57:163088,0,3,3,-2,1,0,3,-6
18:08:57:171325,0,3,3,-2,1,0,3,-6
18:08:57:172107,2,2,-2,-3,-1,-2,-2,15
18:08:57:178113,3,6,-1,2,0,-5,-24,11
18:08:57:185596,3,6,-1,2,0,-5,-24,11
18:08:57:193111,2,6,-1,0,3,2,-2,-8
18:08:57:200590,-7,-6,-3,5,-4,0,4,-55
18:08:57:208127,-7,-6,-3,5,-4,0,4,-55
18:08:57:215625,-3,-1,-3,-2,-1,1,13,-10
18:08:57:223124,2,-4,-1,-2,-1,1,8,20
18:08:57:231311,2,-4,-1,-2,-1,1,8,20
18:08:57:232112,-4,-15,-6,-1,-1,-3,4,-4
18:08:57:246260,-1,0,1,-5,-3,-1,2,10
18:08:57:247082,-1,0,1,-5,-3,-1,2,10
18:08:57:253128,1,3,4,0,-2,1,4,5
18:08:57:260624,0,1,-2,-3,0,-5,-25,4
18:08:57:268116,0,1,-2,-3,0,-5,-25,4
18:08:57:275581,-1,-2,-2,-2,-2,2,9,-10
18:08:57:283075,-1,3,1,2,0,1,2,-6
18:08:57:291288,-1,3,1,2,0,1,2,-6
18:08:57:292115,0,2,2,1,-1,-2,-4,7
18:08:57:306248,-6,-8,-4,-1,-1,-2,5,1
18:08:57:307074,-6,-8,-4,-1,-1,-2,5,1
18:08:57:313092,-5,5,-1,2,-3,-2,-7,8
18:08:57:320569,3,0,-1,0,-1,-2,7,14
18:08:57:328175,3,0,-1,0,-1,-2,7,14
18:08:57:335605,0,-4,-1,2,-3,-5,10,-13
18:08:57:343051,-4,-4,-2,-1,-4,2,11,3
18:08:57:351311,-4,-4,-2,-1,-4,2,11,3
18:08:57:352128,-1,-4,-2,-2,-1,-4,-13,14
18:08:57:366265,2,2,3,-3,-2,-3,-5,-34
18:08:57:367122,2,2,3,-3,-2,-3,-5,-34
18:08:57:381208,-3,-13,-5,1,-1,-1,-5,-5
18:08:57:382015,-3,-3,-4,1,-3,-1,-1,-2
18:08:57:388100,-3,-3,-4,1,-3,-1,-1,-2
18:08:57:395595,3,-5,1,-3,-1,0,2,13
18:08:57:403053,2,-2,2,-3,-4,-1,11,55
18:08:57:411289,2,-2,2,-3,-4,-1,11,55
18:08:57:412101,0,7,0,-3,-2,2,-2,-23
18:08:57:426263,-3,-11,-9,-1,1,-2,-12,-7
18:08:57:427083,-3,-11,-9,-1,1,-2,-12,-7
18:08:57:433061,-2,-2,0,-2,-1,-1,2,9
18:08:57:440547,1,4,3,1,0,-4,-8,-21
18:08:57:448157,1,4,3,1,0,-4,-8,-21
18:08:57:455602,3,2,0,-1,-1,1,-3,2
18:08:57:463061,3,1,0,-2,0,3,2,3
18:08:57:471318,3,1,0,-2,0,3,2,3
18:08:57:472118,-5,0,1,1,2,-4,-3,11
18:08:57:486288,0,1,1,-1,-1,2,3,-7
18:08:57:487110,0,1,1,-1,-1,2,3,-7
18:08:57:493072,-2,2,0,0,-1,-2,-18,-8
18:08:57:500574,-1,2,-2,-2,0,-3,-1,37
18:08:57:508138,-1,2,-2,-2,0,-3,-1,37
18:08:57:515582,-1,2,3,0,0,0,-3,-7
18:08:57:523110,-3,-1,-1,0,0,1,-1,6
18:08:57:531280,-3,-1,-1,0,0,1,-1,6
18:08:57:532068,-3,-2,-3,0,-3,0,16,-14
18:08:57:546308,-2,-2,-2,-3,0,-3,2,-12
18:08:57:547122,-2,-2,-2,-3,0,-3,2,-12
18:08:57:553100,-1,6,1,-2,-3,-2,4,-10
18:08:57:560596,-2,-1,-2,0,-2,1,10,-1
18:08:57:568096,-2,-1,-2,0,-2,1,10,-1
18:08:57:575586,1,-4,-1,-1,0,0,-7,27
18:08:57:583085,1,1,0,-1,-1,-2,-2,-14
18:08:57:591270,1,1,0,-1,-1,-2,-2,-14
18:08:57:592078,-2,10,-1,-1,-1,-1,6,32
18:08:57:606712,-1,-3,-6,0,-1,-4,-17,-13
18:08:57:607516,-1,-3,-6,0,-1,-4,-17,-13
18:08:57:613097,-4,-5,-3,-1,-2,1,24,-32
18:08:57:620596,0,1,0,-1,-2,1,0,-4
18:08:57:628110,0,1,0,-1,-2,1,0,-4
18:08:57:635516,0,-1,-4,0,0,0,-17,-3
18:08:57:643030,1,-2,3,1,-3,0,-10,-12
18:08:57:651322,1,-2,3,1,-3,0,-10,-12
18:08:57:652101,-3,-8,-1,-2,-6,-5,-5,-42
18:08:57:666266,-4,-16,-9,-1,0,0,3,12
18:08:57:667077,-4,-16,-9,-1,0,0,3,12
18:08:57:673073,2,-1,-2,-2,1,-1,-1,7
18:08:57:680537,1,1,3,0,-3,-4,-10,-23
18:08:57:688121,1,1,3,0,-3,-4,-10,-23
18:08:57:695615,1,2,1,-4,-3,-1,2,-26
18:08:57:703071,-5,-3,0,-2,-3,-1,3,6
18:08:57:711291,-5,-3,0,-2,-3,-1,3,6
18:08:57:712090,-1,-7,-2,0,1,-1,-5,9
18:08:57:726284,2,8,0,-2,-1,-2,-7,-4
18:08:57:727093,2,8,0,-2,-1,-2,-7,-4
18:08:57:733087,-5,-19,-11,1,-2,-2,-7,7
18:08:57:740561,-4,-1,0,-1,0,-1,0,-38
18:08:57:748192,-4,-1,0,-1,0,-1,0,-38
18:08:57:755590,0,2,-1,1,1,1,-6,-14
18:08:57:763063,2,2,0,-4,-3,-1,-1,-20
18:08:57:771318,2,2,0,-4,-3,-1,-1,-20
18:08:57:772111,-1,7,4,-1,-1,-3,-17,8
18:08:57:786334,-1,9,4,-1,-1,0,0,28
18:08:57:787110,-1,9,4,-1,-1,0,0,28
18:08:57:793076,-2,0,4,-1,-2,-4,-23,-51
18:08:57:800620,-3,0,-4,0,-1,-1,12,14
18:08:57:808134,-3,0,-4,0,-1,-1,12,14
18:08:57:815626,3,2,0,-3,0,1,7,21
18:08:57:823083,-15,-3,-2,-3,-2,-1,5,-14
18:08:57:831298,-15,-3,-2,-3,-2,-1,5,-14
18:08:57:832070,2,7,2,1,-4,-1,-16,-17
18:08:57:846265,4,-2,0,-1,0,0,1,14
18:08:57:847076,4,-2,0,-1,0,0,1,14
18:08:57:861208,-1,-3,-1,0,-1,-1,5,39
18:08:57:862031,3,11,1,-1,-1,-6,-12,15
18:08:57:868165,3,11,1,-1,-1,-6,-12,15
18:08:57:875639,-20,-9,5,1,-1,-1,17,10
18:08:57:883076,0,-1,0,0,0,0,-1,13
18:08:57:891316,0,-1,0,0,0,0,-1,13
18:08:57:892099,7,7,-3,-2,-1,-2,6,32
18:08:57:906282,-3,-5,-4,0,-1,1,5,-18
18:08:57:907103,-3,-5,-4,0,-1,1,5,-18
18:08:57:921208,2,-35,-13,-2,-1,-1,5,-6
18:08:57:921995,7,8,2,0,0,0,-2,33
18:08:57:928132,7,8,2,0,0,0,-2,33
18:08:57:935601,2,9,0,-2,1,3,-2,2
18:08:57:943056,-2,-15,2,2,-1,0,10,4
18:08:57:951284,-2,-15,2,2,-1,0,10,4
18:08:57:952101,-4,-2,1,1,-2,-1,15,-3
18:08:57:966277,-1,-17,-6,1,-5,-2,-5,-37
18:08:57:967122,-1,-17,-6,1,-5,-2,-5,-37
18:08:57:981233,-8,5,-3,-2,-1,-3,-21,-1
18:08:57:982017,3,2,-1,-1,1,-1,8,25
18:08:57:988119,3,2,-1,-1,1,-1,8,25
18:08:57:995593,21,5,1,-1,-1,0,2,-2
18:08:58:3089,-7,-3,-14,-9,-2,-1,-7,-32
18:08:58:18787,-7,-3,-14,-9,-2,-1,-7,-32
18:08:58:19538,16,23,5,-3,-1,-1,3,-4
18:08:58:26247,3,-9,7,-1,1,-3,-16,54
18:08:58:27089,3,-9,7,-1,1,-3,-16,54
18:08:58:33079,0,-1,-4,2,-1,2,4,23
18:08:58:40543,-1,1,2,1,-1,-1,17,2
18:08:58:48112,-1,1,2,1,-1,-1,17,2
18:08:58:55583,17,10,3,0,-2,-2,-10,-56
18:08:58:63052,0,-11,-11,-6,-3,-3,-15,-22
18:08:58:71306,0,-11,-11,-6,-3,-3,-15,-22
18:08:58:72099,-12,-11,-2,-2,-1,-2,4,-46
18:08:58:86949,2,5,2,1,-1,-2,-1,3
18:08:58:87739,2,5,2,1,-1,-2,-1,3
18:08:58:93081,-8,-9,-1,-1,0,-2,-11,21
18:08:58:100579,-7,2,2,-3,-3,4,-4,4
18:08:58:108136,-7,2,2,-3,-3,4,-4,4
18:08:58:115622,-1,5,-1,0,-1,-5,-2,41
18:08:58:123094,4,20,5,-3,-2,0,5,-65
18:08:58:131307,4,20,5,-3,-2,0,5,-65
18:08:58:132074,-35,-20,-7,-3,-3,1,10,-2
18:08:58:146322,-1,-9,-16,-3,-2,-4,-2,11
18:08:58:147155,-1,-9,-16,-3,-2,-4,-2,11
18:08:58:153105,6,-8,-10,-2,-2,-2,8,26
18:08:58:185071,-4,1,4,1,-1,-2,1,15
18:08:58:185890,-4,1,4,1,-1,-2,1,15
18:08:58:186669,-1,0,-7,0,-1,1,25,-22
18:08:58:187476,4,14,5,2,-1,-1,-6,-1
18:08:58:190628,4,14,5,2,-1,-1,-6,-1
18:08:58:198090,-5,-10,-14,-5,-2,-3,-10,-96
18:08:58:206241,1,7,4,2,-9,-8,-5,-33
18:08:58:207085,1,7,4,2,-9,-8,-5,-33
18:08:58:220599,2,12,3,2,1,6,1,26
18:08:58:228752,-6,-11,-1,8,5,2,1,17
18:08:58:229565,-6,-11,-1,8,5,2,1,17
18:08:58:235537,5,-2,6,-3,-3,-3,-2,9
18:08:58:243032,-1,-14,-33,2,-5,-2,-3,18
18:08:58:258799,-1,-14,-33,2,-5,-2,-3,18
18:08:58:259537,-4,-3,11,14,1,-2,-5,13
18:08:58:266267,-1,1,7,-1,-1,0,-7,-6
18:08:58:267077,-1,1,7,-1,-1,0,-7,-6
18:08:58:273121,-1,-1,-7,-14,-3,-6,-10,16
18:08:58:288750,0,0,-3,-1,4,16,14,-3
18:08:58:289569,0,0,-3,-1,4,16,14,-3
18:08:58:295630,2,3,13,3,-1,-3,-3,20
18:08:58:303099,-2,-11,-22,-17,-6,-8,-2,1
18:08:58:310650,-2,-11,-22,-17,-6,-8,-2,1
18:08:58:318043,0,1,4,3,12,5,-2,9
18:08:58:326263,-1,-2,5,4,-1,-5,-3,6
18:08:58:327082,-1,-2,5,4,-1,-5,-3,6
18:08:58:333097,0,0,-1,2,-11,-6,-6,3
18:08:58:356934,-3,-9,5,-2,2,-1,3,4
18:08:58:357730,-3,-9,5,-2,2,-1,3,4
18:08:58:358530,-2,-1,11,1,0,2,-1,1
18:08:58:363095,1,8,18,5,0,-1,-2,4
18:08:58:370602,1,8,18,5,0,-1,-2,4
18:08:58:378105,-9,-20,-37,-25,-9,-4,-7,32
18:08:58:386309,-1,1,9,-7,-4,-3,-2,1
18:08:58:387065,-1,1,9,-7,-4,-3,-2,1
18:08:58:393068,0,0,5,-9,-2,1,3,13
18:08:58:408761,-3,-4,-16,-9,-2,-2,-2,-1
18:08:58:409566,-3,-4,-16,-9,-2,-2,-2,-1
18:08:58:415534,0,1,8,-1,-4,-2,16,-1
18:08:58:423109,1,3,12,4,1,1,-3,-6
18:08:58:430627,1,3,12,4,1,1,-3,-6
18:08:58:438070,0,1,-4,8,0,-2,2,-10
18:08:58:446279,2,1,6,2,2,2,7,9
18:08:58:447095,2,1,6,2,2,2,7,9
18:08:58:453066,-1,-4,-15,-4,-1,-1,8,-6
18:08:58:468809,-2,-3,-13,3,1,1,8,11
18:08:58:469604,-2,-3,-13,3,1,1,8,11
18:08:58:475588,1,15,26,9,3,-4,-29,-18
18:08:58:483034,-4,-2,-11,-1,1,-2,-7,7
18:08:58:490623,-4,-2,-11,-1,1,-2,-7,7
18:08:58:498072,0,5,-12,9,-3,-3,-3,1
18:08:58:507320,0,0,13,8,1,-2,-5,7
18:08:58:513811,0,0,13,8,1,-2,-5,7
18:08:58:514615,-1,-1,-5,0,-1,0,-12,5
18:08:58:528781,0,-1,10,2,-1,-2,-3,68
18:08:58:529602,0,-1,10,2,-1,-2,-3,68
18:08:58:535621,-3,-7,-22,-25,-4,2,9,-73
18:08:58:543083,-9,12,6,2,4,3,14,-23
18:08:58:550652,-9,12,6,2,4,3,14,-23
18:08:58:558046,-1,-4,17,4,-7,-4,-5,30
18:08:58:566270,-1,-10,13,-17,-7,-5,-8,-11
18:08:58:567061,-1,-10,13,-17,-7,-5,-8,-11
18:08:58:573103,-5,12,10,0,-3,0,1,-87
18:08:58:588796,0,-1,-19,6,-1,-1,6,5
18:08:58:589606,0,-1,-19,6,-1,-1,6,5
18:08:58:595582,1,12,-10,3,3,-1,0,14
18:08:58:603058,-5,0,-16,-9,-6,-5,-8,-97
18:08:58:610647,-5,0,-16,-9,-6,-5,-8,-97
18:08:58:618075,4,5,5,3,2,0,-15,-36
18:08:58:634471,0,-30,18,5,5,3,2,73
18:08:58:635257,0,-30,18,5,5,3,2,73
18:08:58:636047,-1,-8,-14,-11,0,-5,3,72
18:08:58:648775,1,8,65,38,-6,-5,12,-15
18:08:58:649577,1,8,65,38,-6,-5,12,-15
18:08:58:655632,-5,-13,-4,-4,-1,-2,-13,10
18:08:58:663076,4,14,-14,-5,3,1,-8,-68
18:08:58:670647,4,14,-14,-5,3,1,-8,-68
18:08:58:678093,-8,-6,-30,0,-4,0,12,19
18:08:58:686265,4,13,28,31,2,-3,-6,47
18:08:58:687072,4,13,28,31,2,-3,-6,47
18:08:58:693086,1,5,18,0,4,2,-6,-87
18:08:58:708815,-1,3,-20,-3,0,1,9,17
18:08:58:709615,-1,3,-20,-3,0,1,9,17
18:08:58:715580,-1,-3,15,-2,1,3,11,74
18:08:58:723098,-8,-16,-18,-10,-4,-4,-14,28
18:08:58:730609,-8,-16,-18,-10,-4,-4,-14,28
18:08:58:738118,0,-8,12,4,-3,-3,2,26
18:08:58:754446,0,0,-6,-18,-3,-1,-4,-56
18:08:58:755265,0,0,-6,-18,-3,-1,-4,-56
18:08:58:756101,0,3,-4,-3,-4,-4,-12,-23
18:08:58:768773,0,4,-15,-11,-2,1,-12,12
18:08:58:769591,0,4,-15,-11,-2,1,-12,12
18:08:58:775576,1,10,10,11,6,8,10,1
18:08:58:783074,-5,-10,5,-7,0,0,-38,-56
18:08:58:790673,-5,-10,5,-7,0,0,-38,-56
18:08:58:798082,2,-4,8,5,0,1,3,17
18:08:58:806260,-2,1,-28,-21,-5,0,9,36
18:08:58:807091,-2,1,-28,-21,-5,0,9,36
18:08:58:813102,-3,-5,0,1,-4,-3,-7,4
18:08:58:828744,4,16,5,0,-1,-2,8,-8
18:08:58:829562,4,16,5,0,-1,-2,8,-8
18:08:58:835581,-2,5,-8,-7,-2,-5,2,12
18:08:58:843104,0,-4,-5,1,-1,-2,-3,15
18:08:58:850592,0,-4,-5,1,-1,-2,-3,15
18:08:58:858137,0,5,6,-1,0,2,-1,13
18:08:58:866265,0,-6,-7,-4,-2,-1,1,4
18:08:58:867084,0,-6,-7,-4,-2,-1,1,4
18:08:58:873049,2,-3,-1,0,2,-3,-1,-17
18:08:58:888761,2,-3,-1,0,2,-3,-1,-17
18:08:58:889550,-1,-9,-4,-5,-4,-3,8,11
18:08:58:895618,-1,-9,-2,5,-1,-2,-5,9
18:08:58:911741,-1,-9,-2,5,-1,-2,-5,9
18:08:58:912526,-3,8,-14,-1,-1,-2,-2,-5
18:08:58:918089,1,-6,3,-6,13,5,8,7
18:08:58:926303,1,-6,3,-6,13,5,8,7
18:08:58:927067,-1,-6,-3,-7,-2,-2,3,-6
18:08:58:933118,-7,-18,-4,-2,-7,-4,-5,1
18:08:58:948753,-7,-18,-4,-2,-7,-4,-5,1
18:08:58:949564,-10,-12,-3,-2,0,-1,-1,0
18:08:58:955652,2,5,-3,-1,-5,-2,1,2
18:08:58:971323,2,5,-3,-1,-5,-2,1,2
18:08:58:972106,1,1,1,0,-1,1,0,2
18:08:58:978091,-1,-1,-5,-2,-2,0,14,2
18:08:58:986283,-1,-1,-5,-2,-2,0,14,2
18:08:58:987069,1,29,5,2,2,2,6,6
18:08:58:993094,4,11,5,-2,-3,-5,-4,21
18:08:59:8817,4,11,5,-2,-3,-5,-4,21
18:08:59:9616,2,-4,3,0,-1,-4,-8,0
18:08:59:15595,-2,4,1,-1,-6,-4,-8,-7
18:08:59:31290,-2,4,1,-1,-6,-4,-8,-7
18:08:59:32077,0,-7,0,2,0,1,-2,5
18:08:59:38104,-1,-4,-5,-2,0,-1,-2,3
18:08:59:47008,-1,-4,-5,-2,0,-1,-2,3
18:08:59:47751,-1,-3,-4,-2,-2,-2,3,-2
18:08:59:53072,-2,-2,-1,2,-1,3,1,-3
18:08:59:68797,-2,-2,-1,2,-1,3,1,-3
18:08:59:69587,-2,-1,2,0,-3,-2,0,1
18:08:59:75602,0,1,1,-1,-2,-3,-5,-1
18:08:59:91325,0,1,1,-1,-2,-3,-5,-1
18:08:59:92108,-1,-2,-6,-10,-2,-2,-2,-3
18:08:59:98100,-4,-11,-7,-7,-1,-1,1,-5
18:08:59:106297,-4,-11,-7,-7,-1,-1,1,-5
18:08:59:107083,-1,0,1,-1,-1,0,1,1
18:08:59:120543,-4,11,-1,0,-1,-1,1,-5
18:08:59:128827,-4,11,-1,0,-1,-1,1,-5
18:08:59:129677,-1,-2,0,1,0,-1,-2,-1
18:08:59:135603,4,1,11,8,1,0,-2,-1
18:08:59:151281,4,1,11,8,1,0,-2,-1
18:08:59:152100,7,-10,-17,-7,-3,-3,-7,19
18:08:59:158066,-1,-5,-1,-2,-4,-3,-8,-96
18:08:59:166288,-1,-5,-1,-2,-4,-3,-8,-96
18:08:59:167065,3,7,12,4,0,-1,-11,-7
18:08:59:180568,-3,-18,-10,-3,-1,-1,-2,23
18:08:59:188775,-3,-18,-10,-3,-1,-1,-2,23
18:08:59:189581,-2,1,0,1,0,2,6,-14
18:08:59:195525,-1,7,0,-2,-1,-3,-2,48
18:08:59:211301,-1,7,0,-2,-1,-3,-2,48
18:08:59:212079,0,-1,-5,1,1,2,2,14
18:08:59:218056,-1,-4,-2,-4,-3,-2,-1,7
18:08:59:226296,-1,-4,-2,-4,-3,-2,-1,7
18:08:59:227124,-5,-12,-3,2,-2,-1,1,-4
18:08:59:240553,1,16,5,0,2,1,3,-7
18:08:59:248806,1,16,5,0,2,1,3,-7
18:08:59:249578,2,9,16,2,-2,-2,-2,-27
18:08:59:255531,0,2,2,1,-3,-1,-2,12
18:08:59:271310,0,2,2,1,-3,-1,-2,12
18:08:59:272100,-1,3,8,2,-2,-1,-3,4
18:08:59:278055,-1,3,-21,-3,-1,-4,-8,-2
18:08:59:286293,-1,3,-21,-3,-1,-4,-8,-2
18:08:59:287087,-4,-8,-6,-4,-1,-3,2,-18
18:08:59:300603,-5,-26,-1,1,0,1,5,10
18:08:59:308782,-5,-26,-1,1,0,1,5,10
18:08:59:309574,-2,4,1,2,-1,-1,-2,-63
18:08:59:315580,1,-4,-2,-2,-2,0,2,-2
18:08:59:331270,1,-4,-2,-2,-2,0,2,-2
18:08:59:332092,-1,-2,-1,-1,2,-1,2,36
18:08:59:338121,4,6,4,1,0,0,-3,7
18:08:59:346284,4,6,4,1,0,0,-3,7
18:08:59:347071,7,-6,-6,-2,0,6,27,78
18:08:59:360604,-3,-6,1,-1,-1,0,-3,53
18:08:59:368813,-3,-6,1,-1,-1,0,-3,53
18:08:59:369567,3,0,1,-3,0,1,6,1
18:08:59:375624,-3,4,-2,-1,0,-2,-5,-25
18:08:59:391260,-3,4,-2,-1,0,-2,-5,-25
18:08:59:392053,-1,-1,-9,-3,-2,-3,-3,10
18:08:59:398093,-1,5,-1,3,-2,-2,-2,-21
18:08:59:406296,-1,5,-1,3,-2,-2,-2,-21
18:08:59:407048,6,-3,0,-2,-3,-4,-7,-5
18:08:59:420578,-4,-3,-1,-2,-2,0,2,-9
18:08:59:428749,-4,-3,-1,-2,-2,0,2,-9
18:08:59:429535,10,8,8,0,0,0,-5,-3
18:08:59:435589,1,-9,16,-2,-4,-1,-4,0
18:08:59:451320,1,-9,16,-2,-4,-1,-4,0
18:08:59:452084,-12,-1,10,-3,-1,-2,-5,-13
18:08:59:458076,-3,-10,1,-2,-4,-4,-11,-11
18:08:59:466274,-3,-10,1,-2,-4,-4,-11,-11
18:08:59:467074,3,-6,-18,2,-3,-3,-7,1
18:08:59:480592,-11,-9,-6,-9,-2,-2,-1,-2
18:08:59:488800,-11,-9,-6,-9,-2,-2,-1,-2
18:08:59:489625,-6,-6,-39,-8,-7,-11,-10,2
18:08:59:495580,3,11,-4,4,1,2,3,4
18:08:59:511303,3,11,-4,4,1,2,3,4
18:08:59:512093,-1,-1,41,3,-4,-2,-36,19
18:08:59:518104,8,11,-40,-3,1,4,16,10
18:08:59:526296,8,11,-40,-3,1,4,16,10
18:08:59:527141,-12,-8,-78,-29,-7,-11,-6,-7
18:08:59:540570,11,8,115,40,7,2,-17,-8
18:08:59:548809,11,8,115,40,7,2,-17,-8
18:08:59:549613,-3,4,102,4,-3,1,7,-7
18:08:59:555586,0,7,-1,6,1,2,27,-6
18:08:59:571295,0,7,-1,6,1,2,27,-6
18:08:59:572111,-6,2,-8,6,-3,-18,-54,-19
18:08:59:578059,-4,22,7,-3,-4,-3,-11,-93
18:08:59:586322,-4,22,7,-3,-4,-3,-11,-93
18:08:59:587113,-13,-36,-37,3,1,7,17,3
18:08:59:600557,-8,-16,-87,-15,0,-2,-6,9
18:08:59:608779,-8,-16,-87,-15,0,-2,-6,9
18:08:59:609614,3,17,23,16,7,3,15,2
18:08:59:615577,2,7,21,0,-7,-5,-21,-26
18:08:59:631286,2,7,21,0,-7,-5,-21,-26
18:08:59:632108,7,-34,9,1,-1,4,14,66
18:08:59:638071,5,24,13,-4,2,2,11,41
18:08:59:646318,5,24,13,-4,2,2,11,41
18:08:59:647100,0,73,29,-5,0,5,6,-30
18:08:59:660581,2,5,-31,-1,-4,-3,2,12
18:08:59:668780,2,5,-31,-1,-4,-3,2,12
18:08:59:669619,7,4,-17,1,0,4,15,1
18:08:59:675621,-9,-20,11,-1,-2,-5,-2,23
18:08:59:691323,-9,-20,11,-1,-2,-5,-2,23
18:08:59:692122,1,-2,-1,0,-2,0,4,-4
18:08:59:698040,-7,-16,-39,-12,-4,0,-1,17
18:08:59:713773,-7,-16,-39,-12,-4,0,-1,17
18:08:59:714566,-4,-18,-5,-1,-1,0,1,-1
18:08:59:720592,8,-25,29,7,4,2,15,18
18:08:59:728810,8,-25,29,7,4,2,15,18
18:08:59:729578,-4,3,-18,-4,-1,-5,16,60
18:08:59:743117,-4,5,-3,-5,-3,0,1,24
18:08:59:751280,-4,5,-3,-5,-3,0,1,24
18:08:59:752071,0,-18,-11,2,2,7,12,17
18:08:59:758127,-16,-7,7,-20,-9,-5,-4,-1
18:08:59:773787,-16,-7,7,-20,-9,-5,-4,-1
18:08:59:774555,-6,-1,-5,-1,1,2,1,-18
18:08:59:780595,20,-9,14,5,-1,-2,-6,-20
18:08:59:788782,20,-9,14,5,-1,-2,-6,-20
18:08:59:789576,1,-4,-3,-4,-1,4,42,-16
18:08:59:795529,-2,19,0,-1,0,1,13,9
18:08:59:811296,-2,19,0,-1,0,1,13,9
18:08:59:812058,23,-65,-19,-6,-3,3,11,-20
18:08:59:818067,-5,-3,50,17,5,-5,-29,9
18:08:59:826255,-5,-3,50,17,5,-5,-29,9
18:08:59:827069,-3,20,49,-1,1,10,15,-9
18:08:59:840621,15,1,13,1,-4,2,22,9
18:08:59:848767,15,1,13,1,-4,2,22,9
18:08:59:849555,6,-13,26,13,-7,-47,-76,-16
18:08:59:855578,-8,-9,-68,-18,-6,-5,-10,-2
18:08:59:871333,-8,-9,-68,-18,-6,-5,-10,-2
18:08:59:872116,1,62,10,19,10,19,13,5
18:08:59:878053,-7,-32,-27,-3,-1,-3,4,-2
18:08:59:886279,-7,-32,-27,-3,-1,-3,4,-2
18:08:59:887064,-7,-22,-16,-7,-7,-4,-19,-5
18:08:59:900628,-28,90,2,-4,5,8,21,10
18:08:59:908775,-28,90,2,-4,5,8,21,10
18:08:59:909579,-1,10,2,0,-1,-7,-17,-15
18:08:59:915618,10,1,8,2,1,2,0,3
18:08:59:931329,10,1,8,2,1,2,0,3
18:08:59:932123,-3,16,-16,-7,-7,-3,-1,-1
18:08:59:938077,4,-27,15,2,-1,-4,-8,-4
18:08:59:946241,4,-27,15,2,-1,-4,-8,-4
18:08:59:947036,-1,-30,-44,-14,-4,-1,-6,-7
18:08:59:960589,9,-9,5,0,-1,-1,-8,2
18:08:59:968795,9,-9,5,0,-1,-1,-8,2
18:08:59:969627,30,-19,1,-2,1,3,-4,14
18:08:59:975621,-8,1,-23,-9,-5,-4,-4,-5
18:08:59:991322,-8,1,-23,-9,-5,-4,-4,-5
18:08:59:992122,-18,82,-10,-1,6,6,5,8
18:08:59:998094,1,14,12,-2,-4,-2,-1,4
18:09:00:6327,1,14,12,-2,-4,-2,-1,4
18:09:00:7094,5,-24,8,-5,-5,0,0,-4
18:09:00:20596,-3,17,21,11,3,0,-4,-4
18:09:00:28825,-3,17,21,11,3,0,-4,-4
18:09:00:29632,0,-20,-1,0,-1,-2,3,-6
18:09:00:43075,8,-40,-4,1,-3,-1,-3,-3
18:09:00:51293,8,-40,-4,1,-3,-1,-3,-3
18:09:00:52095,-24,-55,-29,-5,-4,-1,3,-1
18:09:00:58070,-56,61,1,-9,12,9,24,14
18:09:00:65640,-56,61,1,-9,12,9,24,14
18:09:00:73070,26,20,13,3,3,-3,6,-24
18:09:00:80586,11,-51,-7,0,-4,-3,-4,-4
18:09:00:88828,11,-51,-7,0,-4,-3,-4,-4
18:09:00:89602,-25,67,19,4,-1,1,5,11
18:09:00:103110,2,-3,-2,6,3,1,-4,-2
18:09:00:111351,2,-3,-2,6,3,1,-4,-2
18:09:00:112090,16,-47,-15,-2,-3,1,30,27
18:09:00:118088,-39,101,-10,-11,-6,-5,-20,-29
18:09:00:125666,-39,101,-10,-11,-6,-5,-20,-29
18:09:00:133099,-35,25,16,11,3,0,-35,-39
18:09:00:140614,38,-57,19,6,-4,-1,17,34
18:09:00:148761,38,-57,19,6,-4,-1,17,34
18:09:00:149542,38,-17,12,2,1,2,7,19
18:09:00:163100,16,-6,26,11,6,0,-12,-4
18:09:00:171301,16,-6,26,11,6,0,-12,-4
18:09:00:172094,6,-22,19,0,-2,-1,0,18
18:09:00:178088,2,2,-18,-16,-8,-3,3,2
18:09:00:185614,2,2,-18,-16,-8,-3,3,2
18:09:00:193106,10,-56,-37,-21,-7,-2,-29,18
18:09:00:200641,-10,-22,-14,-9,-8,-6,-10,-5
18:09:00:208798,-10,-22,-14,-9,-8,-6,-10,-5
18:09:00:209588,-24,10,19,-13,3,3,12,-7
18:09:00:223091,-10,-12,4,9,1,2,15,25
18:09:00:231287,-10,-12,4,9,1,2,15,25
18:09:00:232097,-11,39,-4,11,-1,-3,-1,-3
18:09:00:238120,-10,-23,49,2,-5,-4,0,-14
18:09:00:245613,-10,-23,49,2,-5,-4,0,-14
18:09:00:253062,33,-58,20,1,5,-1,-8,-11
18:09:00:260586,18,37,-6,-6,6,3,-3,-6
18:09:00:268790,18,37,-6,-6,6,3,-3,-6
18:09:00:269574,-10,60,-6,7,-3,2,-2,0
18:09:00:283133,5,-61,4,-8,-9,-4,-6,-5
18:09:00:291310,5,-61,4,-8,-9,-4,-6,-5
18:09:00:292115,-30,3,-9,-2,-1,0,3,10
18:09:00:298095,-63,40,14,5,-4,-2,-20,-30
18:09:00:305664,-63,40,14,5,-4,-2,-20,-30
18:09:00:313063,14,9,15,-3,-6,-9,-16,-31
18:09:00:320556,64,-101,-93,-38,-16,-11,-17,0
18:09:00:336316,64,-101,-93,-38,-16,-11,-17,0
18:09:00:337105,-29,8,-18,-14,-7,1,22,1
18:09:00:343070,10,-3,14,14,-2,0,8,-8
18:09:00:351283,10,-3,14,14,-2,0,8,-8
18:09:00:352086,20,0,-12,0,4,2,5,8
18:09:00:358061,34,23,19,-2,1,0,2,7
18:09:00:365670,34,23,19,-2,1,0,2,7
18:09:00:373102,-52,-37,-5,-5,-11,-9,-24,-17
18:09:00:380575,-13,19,6,19,16,4,3,-3
18:09:00:388851,-13,19,6,19,16,4,3,-3
18:09:00:389587,37,10,55,8,-1,1,-3,2
18:09:00:403084,-26,-3,-38,-2,-5,-2,-3,-4
18:09:00:411286,-26,-3,-38,-2,-5,-2,-3,-4
18:09:00:412121,-15,10,-10,3,2,0,3,-18
18:09:00:418052,16,85,44,28,2,5,13,3
18:09:00:425631,16,85,44,28,2,5,13,3
18:09:00:433080,-4,6,-28,-9,-3,-1,15,4
18:09:00:440608,13,-31,-50,-10,-2,-1,-6,5
18:09:00:448776,13,-31,-50,-10,-2,-1,-6,5
18:09:00:449590,-10,107,10,-2,2,3,1,9
18:09:00:463100,-9,9,10,7,8,1,-11,15
18:09:00:471344,-9,9,10,7,8,1,-11,15
18:09:00:472101,16,-29,-22,-11,-2,-2,-10,-1
18:09:00:478093,-81,-76,15,-7,-12,-8,5,-31
18:09:00:485625,-81,-76,15,-7,-12,-8,5,-31
18:09:00:493047,21,-4,-27,-11,-6,-8,-20,-11
18:09:00:500590,28,16,5,-13,-2,0,-4,10
18:09:00:508753,28,16,5,-13,-2,0,-4,10
18:09:00:509571,-12,-69,6,3,-4,-5,7,-2
18:09:00:523113,-11,7,11,-3,-6,-6,-30,-18
18:09:00:531268,-11,7,11,-3,-6,-6,-30,-18
18:09:00:532053,-90,92,3,10,8,0,27,-2
18:09:00:538084,10,-12,-33,-17,2,5,10,1
18:09:00:545618,10,-12,-33,-17,2,5,10,1
18:09:00:553050,22,-68,-10,-10,-3,-4,-9,-11
18:09:00:560530,-3,-59,-13,-14,-7,-4,-1,-8
18:09:00:576264,-3,-59,-13,-14,-7,-4,-1,-8
18:09:00:577058,36,7,26,10,-2,6,4,3
18:09:00:583113,73,-54,-3,5,0,-3,-3,-1
18:09:00:591254,73,-54,-3,5,0,-3,-3,-1
18:09:00:592065,-4,-43,5,3,-2,-6,4,14
18:09:00:598044,3,-23,-3,-6,-11,-10,9,11
18:09:00:605679,3,-23,-3,-6,-11,-10,9,11
18:09:00:613066,3,2,11,1,3,3,1,0
18:09:00:620566,-36,72,-2,-19,9,2,12,2
18:09:00:628783,-36,72,-2,-19,9,2,12,2
18:09:00:629599,29,5,7,8,6,4,-1,33
18:09:00:643055,-12,94,27,24,1,-18,-59,3
18:09:00:651347,-12,94,27,24,1,-18,-59,3
18:09:00:652109,-8,-5,17,6,0,3,-2,2
18:09:00:658043,-18,-5,-16,-4,-5,10,27,4
18:09:00:665674,-18,-5,-16,-4,-5,10,27,4
18:09:00:673071,17,-63,18,6,0,1,-5,-3
18:09:00:680589,53,-7,15,0,2,6,3,15
18:09:00:688855,53,-7,15,0,2,6,3,15
18:09:00:689608,-17,-18,-2,-1,0,2,20,-8
18:09:00:703069,-29,-14,10,11,1,-1,15,5
18:09:00:711296,-29,-14,10,11,1,-1,15,5
18:09:00:712102,-11,36,-4,1,-1,-4,-10,1
18:09:00:718074,12,-19,-6,-7,1,4,15,-7
18:09:00:725653,12,-19,-6,-7,1,4,15,-7
18:09:00:733078,-9,99,5,6,5,3,20,6
18:09:00:740578,2,-12,-3,6,-1,2,-20,1
18:09:00:748776,2,-12,-3,6,-1,2,-20,1
18:09:00:749561,36,-1,-25,1,6,1,-11,-4
18:09:00:763058,-18,74,24,4,-6,-3,9,-18
18:09:00:771291,-18,74,24,4,-6,-3,9,-18
18:09:00:772097,2,3,-3,-5,-15,-11,-47,-29
18:09:00:778078,5,-42,-1,3,2,1,-1,13
18:09:00:785651,5,-42,-1,3,2,1,-1,13
18:09:00:793100,3,20,-4,-6,-4,3,13,4
18:09:00:800569,6,14,0,-2,-1,5,10,4
18:09:00:808798,6,14,0,-2,-1,5,10,4
18:09:00:809576,-48,17,-1,0,-4,-6,-38,-30
18:09:00:823105,-3,-13,-6,-20,6,4,-4,-1
18:09:00:831285,-3,-13,-6,-20,6,4,-4,-1
18:09:00:832067,-34,-69,-3,-7,-7,-5,9,-3
18:09:00:838098,0,0,8,-2,-4,1,16,10
18:09:00:845606,0,0,8,-2,-4,1,16,10
18:09:00:853071,16,76,-3,7,-1,-4,0,1
18:09:00:860545,-19,-41,-5,10,2,-1,11,-1
18:09:00:868792,-19,-41,-5,10,2,-1,11,-1
18:09:00:869581,16,-30,-6,0,-1,2,12,-5
18:09:00:883091,-13,21,-14,-5,-7,-12,-28,-3
18:09:00:891272,-13,21,-14,-5,-7,-12,-28,-3
18:09:00:892109,36,-26,-13,-7,-3,-16,-28,16
18:09:00:898045,20,29,22,6,4,7,0,2
18:09:00:905628,20,29,22,6,4,7,0,2
18:09:00:913094,33,-42,7,-3,-6,1,-1,15
18:09:00:920593,-4,17,0,1,4,-1,0,-10
18:09:00:928795,-4,17,0,1,4,-1,0,-10
18:09:00:929597,-19,45,-3,-3,2,7,21,10
18:09:00:943030,-12,8,4,4,-4,-4,-28,-2
18:09:00:951332,-12,8,4,4,-4,-4,-28,-2
18:09:00:952091,-6,-60,-6,-4,-3,-7,-23,-40
18:09:00:958067,-23,-31,-26,-12,-13,-7,9,1
18:09:00:965687,-23,-31,-26,-12,-13,-7,9,1
18:09:00:973095,23,-7,-35,-16,1,6,15,21
18:09:00:980576,-46,-38,-8,-1,0,1,-6,-1
18:09:00:988146,-46,-38,-8,-1,0,1,-6,-1
18:09:00:995579,4,-76,-22,-12,-8,-4,9,0
18:09:01:3129,9,22,2,0,7,5,2,-5
18:09:01:11304,9,22,2,0,7,5,2,-5
18:09:01:12069,-20,-21,-1,6,6,4,2,4
18:09:01:26238,10,39,45,10,5,-1,-2,-20
18:09:01:27066,10,39,45,10,5,-1,-2,-20
18:09:01:33114,3,78,48,4,-1,2,48,-10
18:09:01:40611,25,52,36,16,-3,-12,-18,25
18:09:01:48100,25,52,36,16,-3,-12,-18,25
18:09:01:55635,-10,-8,-12,-9,-6,-1,-17,1
18:09:01:63093,22,-46,-10,-4,-1,8,17,2
18:09:01:71286,22,-46,-10,-4,-1,8,17,2
18:09:01:72101,-50,42,7,5,-1,-6,0,-2
18:09:01:86266,-12,-116,-41,-10,-4,-4,-10,-6
18:09:01:87086,-12,-116,-41,-10,-4,-4,-10,-6
18:09:01:93102,14,13,-7,0,7,10,8,2
18:09:01:100583,8,19,-51,-6,-8,-8,-39,-6
18:09:01:108106,8,19,-51,-6,-8,-8,-39,-6
18:09:01:115577,42,4,7,-1,1,-2,-26,-5
18:09:01:123070,-32,74,1,0,3,7,10,3
18:09:01:131320,-32,74,1,0,3,7,10,3
18:09:01:132110,-40,75,27,15,8,2,-26,-31
18:09:01:146290,-15,-8,-6,0,6,7,19,-9
18:09:01:147111,-15,-8,-6,0,6,7,19,-9
18:09:01:153065,10,-28,29,11,2,2,55,35
18:09:01:160563,-24,49,6,4,-6,-23,-55,-8
18:09:01:168138,-24,49,6,4,-6,-23,-55,-8
18:09:01:175568,38,-55,-32,-1,-3,-5,-27,18
18:09:01:183106,31,-68,-33,-6,-4,7,32,18
18:09:01:191334,31,-68,-33,-6,-4,7,32,18
18:09:01:192147,25,-31,0,-9,-5,-9,2,6
18:09:01:214445,20,-26,-21,-10,-6,-3,-5,-34
18:09:01:215441,20,-26,-21,-10,-6,-3,-5,-34
18:09:01:216033,10,-84,-6,-12,-7,3,-9,-4
18:09:01:220532,8,20,23,1,-1,10,92,7
18:09:01:228148,8,20,23,1,-1,10,92,7
18:09:01:235544,8,6,-5,3,1,18,15,-21
18:09:01:243076,-10,8,-1,-5,-7,-2,2,-42
18:09:01:251319,-10,8,-1,-5,-7,-2,2,-42
18:09:01:252108,-10,21,56,14,1,-8,-10,-2
18:09:01:266277,20,-99,33,1,-5,-9,4,7
18:09:01:267076,20,-99,33,1,-5,-9,4,7
18:09:01:273054,-18,14,-7,-4,-1,-3,-15,-4
18:09:01:280551,-18,28,-4,-3,-1,-3,-47,-4
18:09:01:288191,-18,28,-4,-3,-1,-3,-47,-4
18:09:01:295593,-24,-45,24,9,-4,-2,21,-9
18:09:01:303080,7,4,-25,-11,5,2,16,29
18:09:01:311311,7,4,-25,-11,5,2,16,29
18:09:01:312140,-14,8,-13,-1,-3,-6,-43,-5
18:09:01:326279,-26,43,4,3,-1,-7,32,3
18:09:01:327095,-26,43,4,3,-1,-7,32,3
18:09:01:333059,2,-24,12,1,-1,-4,-9,-33
18:09:01:340562,20,1,2,-5,-2,3,-19,-3
18:09:01:348172,20,1,2,-5,-2,3,-19,-3
18:09:01:355595,29,17,10,17,3,-2,12,10
18:09:01:363103,9,-41,7,4,7,6,5,8
18:09:01:371270,9,-41,7,4,7,6,5,8
18:09:01:372103,-13,31,-16,-8,-6,-7,-10,-8
18:09:01:386325,-3,-27,8,2,-1,-3,-16,4
18:09:01:387105,-3,-27,8,2,-1,-3,-16,4
18:09:01:393066,8,31,-13,-6,-1,1,18,11
18:09:01:400592,32,51,19,5,3,5,-2,0
18:09:01:408174,32,51,19,5,3,5,-2,0
18:09:01:415598,-12,110,-39,-19,-2,6,26,22
18:09:01:423129,30,-37,7,7,3,-2,51,18
18:09:01:431335,30,-37,7,7,3,-2,51,18
18:09:01:432076,2,-104,3,6,-1,-14,-8,4
18:09:01:446253,2,54,-32,-1,-4,3,0,1
18:09:01:447079,2,54,-32,-1,-4,3,0,1
18:09:01:453107,-22,-34,8,-7,-2,-2,0,0
18:09:01:460624,-5,30,6,2,-2,2,-3,2
18:09:01:468077,-5,30,6,2,-2,2,-3,2
18:09:01:475532,-39,33,-79,-28,-8,-2,-23,6
18:09:01:483053,0,-19,-30,-8,-8,-11,-39,-16
18:09:01:491281,0,-19,-30,-8,-8,-11,-39,-16
18:09:01:492087,9,-30,23,6,-3,-4,-38,6
18:09:01:506279,-17,-3,-15,-2,3,6,-5,3
18:09:01:507079,-17,-3,-15,-2,3,6,-5,3
18:09:01:513042,4,-6,-4,-3,0,5,-8,-1
18:09:01:520537,-36,-71,34,8,-3,-15,-50,-15
18:09:01:528141,-36,-71,34,8,-3,-15,-50,-15
18:09:01:535586,0,13,21,-4,2,9,28,9
18:09:01:543071,0,4,19,-8,-4,5,39,-5
18:09:01:551305,0,4,19,-8,-4,5,39,-5
18:09:01:552086,-18,17,18,7,-1,-14,-12,-11
18:09:01:566259,3,47,-15,3,4,2,6,-7
18:09:01:567091,3,47,-15,3,4,2,6,-7
18:09:01:573051,11,-24,-8,-7,-3,2,30,5
18:09:01:580542,20,-17,13,3,-5,-10,-41,-44
18:09:01:588133,20,-17,13,3,-5,-10,-41,-44
18:09:01:595615,-48,8,-59,-19,5,2,-24,-31
18:09:01:603127,13,-11,-14,0,6,5,17,21
18:09:01:611295,13,-11,-14,0,6,5,17,21
18:09:01:612114,21,-46,9,13,-5,-1,19,-3
18:09:01:626279,13,19,-1,8,1,-1,0,12
18:09:01:627110,13,19,-1,8,1,-1,0,12
18:09:01:633106,19,7,19,5,-6,-8,21,13
18:09:01:640581,-29,-1,16,-2,-2,1,-2,-10
18:09:01:648162,-29,-1,16,-2,-2,1,-2,-10
18:09:01:655618,7,16,1,1,-1,-4,-6,-3
18:09:01:663122,-5,80,25,4,3,8,-10,21
18:09:01:671253,-5,80,25,4,3,8,-10,21
18:09:01:672054,29,34,20,11,-3,-2,-32,4
18:09:01:686329,-3,-32,-9,-12,-4,-5,15,35
18:09:01:687137,-3,-32,-9,-12,-4,-5,15,35
18:09:01:693076,3,-8,7,10,2,10,-21,8
18:09:01:700576,-25,26,-35,-18,-5,1,1,-13
18:09:01:708107,-25,26,-35,-18,-5,1,1,-13
18:09:01:715669,-15,-32,-42,-13,-2,0,12,-8
18:09:01:723094,-4,-25,11,5,-2,-4,0,-4
18:09:01:731313,-4,-25,11,5,-2,-4,0,-4
18:09:01:732076,8,18,2,2,4,13,28,8
18:09:01:746277,5,-65,-11,-3,0,-8,12,-6
18:09:01:747091,5,-65,-11,-3,0,-8,12,-6
18:09:01:753119,40,-1,11,-3,-3,-4,5,-10
18:09:01:760603,-14,-15,19,9,6,9,39,20
18:09:01:768114,-14,-15,19,9,6,9,39,20
18:09:01:775579,-29,-22,6,-4,1,5,-2,0
18:09:01:783073,-2,22,17,6,-5,-9,-12,-11
18:09:01:791265,-2,22,17,6,-5,-9,-12,-11
18:09:01:792084,-63,44,16,10,8,2,-8,-6
18:09:01:806242,-6,19,14,8,4,1,-16,-3
18:09:01:807105,-6,19,14,8,4,1,-16,-3
18:09:01:813056,30,-10,9,-5,-3,-6,4,-10
18:09:01:820552,-8,59,-2,-5,-6,-15,-76,-4
18:09:01:828163,-8,59,-2,-5,-6,-15,-76,-4
18:09:01:835540,-2,59,-16,-10,-4,3,7,15
18:09:01:843072,17,4,-1,-4,4,4,17,-1
18:09:01:851296,17,4,-1,-4,4,4,17,-1
18:09:01:852090,-25,-72,5,-3,-10,-27,-40,-16
18:09:01:866269,4,33,-16,-17,-6,-5,15,7
18:09:01:867133,4,33,-16,-17,-6,-5,15,7
18:09:01:873133,11,-42,20,1,-3,2,6,-8
18:09:01:880579,-13,-8,-10,-7,1,12,15,-1
18:09:01:888124,-13,-8,-10,-7,1,12,15,-1
18:09:01:895582,16,-9,29,4,-3,-2,19,-3
18:09:01:903092,-7,31,-7,-8,-8,-5,-20,-21
18:09:01:911336,-7,31,-7,-8,-8,-5,-20,-21
18:09:01:912139,-9,-13,-7,0,8,8,-1,7
18:09:01:926300,-20,-111,-83,-22,-7,3,7,3
18:09:01:927122,-20,-111,-83,-22,-7,3,7,3
18:09:01:933083,-3,35,6,2,-1,-11,-36,6
18:09:01:948791,24,-36,19,-1,-5,5,21,6
18:09:01:949590,24,-36,19,-1,-5,5,21,6
18:09:01:955590,3,-95,-26,-2,-5,-17,-27,-14
18:09:01:963055,0,21,-21,11,1,-6,-36,-35
18:09:01:970619,0,21,-21,11,1,-6,-36,-35
18:09:01:978084,20,-32,21,0,0,7,11,-10
18:09:01:986305,14,-7,21,2,4,4,22,16
18:09:01:987114,14,-7,21,2,4,4,22,16
18:09:01:993088,-9,37,14,11,0,-5,4,-11
18:09:02:8783,14,-52,9,1,2,8,0,-1
18:09:02:9624,14,-52,9,1,2,8,0,-1
18:09:02:15595,-11,-4,-28,-10,2,7,-3,5
18:09:02:23071,-11,-14,18,1,-10,-15,-35,-14
18:09:02:30673,-11,-14,18,1,-10,-15,-35,-14
18:09:02:38142,4,7,-1,1,-1,6,7,-5
18:09:02:46289,32,11,0,-1,2,-18,-38,10
18:09:02:47056,32,11,0,-1,2,-18,-38,10
18:09:02:53090,7,9,17,1,-3,-4,13,6
18:09:02:68761,-44,36,31,1,-1,3,-1,-8
18:09:02:69591,-44,36,31,1,-1,3,-1,-8
18:09:02:75587,5,-1,-5,1,-1,7,14,5
18:09:02:83112,9,-75,1,3,-7,-9,-11,0
18:09:02:90615,9,-75,1,3,-7,-9,-11,0
18:09:02:98115,-8,7,-52,-15,1,-3,-9,2
18:09:02:106255,15,-4,-14,-12,-1,4,6,-37
18:09:02:107065,15,-4,-14,-12,-1,4,6,-37
18:09:02:113056,-42,10,22,14,0,-4,-4,2
18:09:02:128791,11,72,23,10,2,5,22,23
18:09:02:129579,11,72,23,10,2,5,22,23
18:09:02:135595,-9,68,19,-2,0,2,11,-1
18:09:02:143132,-20,19,4,11,3,4,-3,2
18:09:02:150638,-20,19,4,11,3,4,-3,2
18:09:02:158065,13,17,5,7,1,4,13,12
18:09:02:166302,16,2,-8,0,-1,-12,-15,-48
18:09:02:167128,16,2,-8,0,-1,-12,-15,-48
18:09:02:173079,35,-22,-7,-15,2,-5,13,-18
18:09:02:188755,-4,44,-3,9,0,7,28,18
18:09:02:189579,-4,44,-3,9,0,7,28,18
18:09:02:195579,10,-34,10,1,-1,4,-5,-8
18:09:02:203078,-6,-39,7,-7,-5,-1,8,13
18:09:02:210669,-6,-39,7,-7,-5,-1,8,13
18:09:02:218052,5,7,4,0,-9,-7,0,6
18:09:02:226283,7,-41,-6,-11,-7,-3,-1,8
18:09:02:227097,7,-41,-6,-11,-7,-3,-1,8
18:09:02:240558,8,-8,-3,-14,-6,-4,-17,-24
18:09:02:248774,20,-55,19,3,0,-8,17,19
18:09:02:249584,20,-55,19,3,0,-8,17,19
18:09:02:255569,-31,-12,1,-13,-7,2,31,-22
18:09:02:263063,-19,-18,-12,-7,-6,0,6,0
18:09:02:270634,-19,-18,-12,-7,-6,0,6,0
18:09:02:278091,-11,37,-8,16,5,3,-4,13
18:09:02:286306,12,10,2,9,2,-2,-33,4
18:09:02:287145,12,10,2,9,2,-2,-33,4
18:09:02:293073,-6,21,9,9,7,0,-21,0
18:09:02:308790,-28,14,-12,-11,1,4,12,4
18:09:02:309599,-28,14,-12,-11,1,4,12,4
18:09:02:315629,14,7,-14,-1,4,-15,-17,14
18:09:02:323098,-2,0,-25,1,-2,4,10,24
18:09:02:330674,-2,0,-25,1,-2,4,10,24
18:09:02:338083,10,-45,-14,-11,-12,-2,-61,7
18:09:02:346267,-26,-3,1,-4,-7,-5,-11,-8
18:09:02:347083,-26,-3,1,-4,-7,-5,-11,-8
18:09:02:353112,17,-23,-51,-13,-5,-2,23,6
18:09:02:368847,-3,10,-22,-11,3,5,9,-12
18:09:02:369654,-3,10,-22,-11,3,5,9,-12
18:09:02:375592,-22,11,21,-6,5,5,8,-19
18:09:02:383106,4,-36,-38,-18,-11,-11,-2,-10
18:09:02:390621,4,-36,-38,-18,-11,-11,-2,-10
18:09:02:398108,-47,55,15,8,3,6,20,-4
18:09:02:406247,-6,60,21,10,8,-14,-12,7
18:09:02:407081,-6,60,21,10,8,-14,-12,7
18:09:02:413044,-22,-32,14,3,-7,-10,1,12
18:09:02:428751,16,2,2,4,1,6,-8,5
18:09:02:429593,16,2,2,4,1,6,-8,5
18:09:02:435615,24,14,0,-8,5,5,41,16
18:09:02:443107,1,-35,-4,-1,-1,-10,-23,0
18:09:02:450606,1,-35,-4,-1,-1,-10,-23,0
18:09:02:458096,6,-29,-10,3,-5,0,-20,-1
18:09:02:466322,6,8,-2,-6,-2,1,-1,1
18:09:02:467107,6,8,-2,-6,-2,1,-1,1
18:09:02:473055,4,-24,4,5,-2,6,-9,-7
18:09:02:488781,-29,-10,15,4,-1,-5,4,-18
18:09:02:489585,-29,-10,15,4,-1,-5,4,-18
18:09:02:495536,6,-4,-6,-2,5,-7,-34,15
18:09:02:503065,26,-12,-2,1,0,15,15,-5
18:09:02:510611,26,-12,-2,1,0,15,15,-5
18:09:02:518063,12,27,11,-6,-1,3,22,-3
18:09:02:526321,-18,53,0,10,1,-6,25,0
18:09:02:527094,-18,53,0,10,1,-6,25,0
18:09:02:533079,11,-8,-31,-14,-8,-7,-4,5
18:09:02:548789,-15,-25,18,6,-1,9,13,2
18:09:02:549615,-15,-25,18,6,-1,9,13,2
18:09:02:555581,-22,18,-14,-2,0,-7,-5,-3
18:09:02:563065,-1,9,8,-4,-4,-3,-2,-3
18:09:02:570647,-1,9,8,-4,-4,-3,-2,-3
18:09:02:578111,29,-62,-72,-15,-8,-9,-14,-22
18:09:02:586269,6,39,33,15,3,-5,-19,9
18:09:02:587059,6,39,33,15,3,-5,-19,9
18:09:02:593129,-9,6,31,5,-2,4,8,10
18:09:02:608810,-24,25,-10,-2,7,7,2,-7
18:09:02:609609,-24,25,-10,-2,7,7,2,-7
18:09:02:615596,-7,2,-12,-2,-6,-2,-15,-14
18:09:02:623120,-4,43,19,0,-2,2,6,-4
18:09:02:630673,-4,43,19,0,-2,2,6,-4
18:09:02:638070,-77,-4,23,4,2,4,22,12
18:09:02:646280,-26,-27,1,-2,-1,19,-10,-33
18:09:02:647084,-26,-27,1,-2,-1,19,-10,-33
18:09:02:653112,10,0,-14,0,-7,11,32,4
18:09:02:668733,-2,-29,7,4,-1,-6,-27,7
18:09:02:669562,-2,-29,7,4,-1,-6,-27,7
18:09:02:675605,21,-74,-20,-1,-2,-3,-14,9
18:09:02:683115,16,-7,-21,-5,1,11,17,-16
18:09:02:690606,16,-7,-21,-5,1,11,17,-16
18:09:02:698086,11,3,23,3,2,0,-2,-5
18:09:02:706282,4,-2,13,-2,0,-6,-10,15
18:09:02:707096,4,-2,13,-2,0,-6,-10,15
18:09:02:713108,-5,8,47,10,6,-6,2,-2
18:09:02:728761,20,-36,-18,-6,-4,-2,2,8
18:09:02:729574,20,-36,-18,-6,-4,-2,2,8
18:09:02:735594,-17,109,2,10,7,-13,-87,-20
18:09:02:743153,5,-92,15,-5,-5,-6,-3,-9
18:09:02:750639,5,-92,15,-5,-5,-6,-3,-9
18:09:02:758062,25,-10,8,-1,-1,2,-2,-10
18:09:02:766294,25,-10,8,-1,-1,2,-2,-10
18:09:02:767105,3,6,20,2,-4,3,14,-6
18:09:02:773064,19,-57,-8,-8,-6,2,26,2
18:09:02:788801,19,-57,-8,-8,-6,2,26,2
18:09:02:789579,23,5,1,1,-2,7,24,10
18:09:02:795616,-18,-26,-23,-13,1,2,-11,0
18:09:02:811333,-18,-26,-23,-13,1,2,-11,0
18:09:02:812090,-34,37,-35,-12,5,-6,-2,-8
18:09:02:818038,4,-25,24,2,-4,-12,-11,-13
18:09:02:826289,4,-25,24,2,-4,-12,-11,-13
18:09:02:827115,17,-69,3,-12,-17,-14,-34,9
18:09:02:833072,-1,30,0,-6,-1,1,17,8
18:09:02:848839,-1,30,0,-6,-1,1,17,8
18:09:02:849596,41,-28,-29,0,3,7,13,4
18:09:02:855616,5,6,-3,4,-6,-5,8,9
18:09:02:871260,5,6,-3,4,-6,-5,8,9
18:09:02:872093,-27,19,15,6,5,5,49,17
18:09:02:878104,18,2,-27,-3,6,3,41,5
18:09:02:886280,18,2,-27,-3,6,3,41,5
18:09:02:887100,9,28,-2,3,-7,-12,-17,1
18:09:02:900612,-6,-21,-14,-3,-5,1,3,-4
18:09:02:908611,-6,-21,-14,-3,-5,1,3,-4
18:09:02:916224,-42,46,-8,4,3,0,-11,-12
18:09:02:917020,-15,70,-4,-1,5,3,-8,3
18:09:02:931308,-15,70,-4,-1,5,3,-8,3
18:09:02:932051,-33,28,12,11,4,-5,-6,7
18:09:02:938088,-35,60,-5,3,0,5,23,-12
18:09:02:946274,-35,60,-5,3,0,5,23,-12
18:09:02:947095,37,1,0,-9,-6,-5,-9,8
18:09:02:960576,-8,-1,23,7,5,5,-7,0
18:09:02:968757,-8,-1,23,7,5,5,-7,0
18:09:02:969561,-7,-38,-12,-9,-3,-1,34,4
18:09:02:975640,6,-37,9,6,-5,-1,-9,6
18:09:02:991327,6,-37,9,6,-5,-1,-9,6
18:09:02:992125,-6,-29,13,1,4,-4,-32,-14
18:09:02:998069,3,-65,1,-3,-10,-10,-27,0
18:09:03:6261,3,-65,1,-3,-10,-10,-27,0
18:09:03:7075,8,-1,-3,-5,-4,-12,-15,-1
18:09:03:20590,34,21,10,-5,3,2,-4,4
18:09:03:28825,34,21,10,-5,3,2,-4,4
18:09:03:29609,20,-50,15,1,1,-11,-8,18
18:09:03:35611,-11,-18,17,4,-4,2,9,-1
18:09:03:51314,-11,-18,17,4,-4,2,9,-1
18:09:03:52112,24,35,2,-10,-7,-8,-62,-2
18:09:03:58076,-20,91,11,-3,1,16,-3,-20
18:09:03:66324,-20,91,11,-3,1,16,-3,-20
18:09:03:67109,10,-35,-18,-4,-2,2,16,5
18:09:03:80614,-44,81,12,5,10,10,16,2
18:09:03:88821,-44,81,12,5,10,10,16,2
18:09:03:89596,12,48,-10,1,4,6,21,5
18:09:03:95590,13,-79,-3,0,-2,8,0,-6
18:09:03:111306,13,-79,-3,0,-2,8,0,-6
18:09:03:112108,-21,4,-5,4,-2,16,38,8
18:09:03:118061,9,-77,-13,-5,-6,0,39,6
18:09:03:126330,9,-77,-13,-5,-6,0,39,6
18:09:03:127097,-30,58,-70,-20,-9,-6,-8,-22
18:09:03:140552,39,-40,-7,-15,-11,-13,-34,-2
18:09:03:148819,39,-40,-7,-15,-11,-13,-34,-2
18:09:03:149585,-3,-9,20,6,2,2,-4,-7
18:09:03:155580,3,15,-7,3,1,-11,4,2
18:09:03:171299,3,15,-7,3,1,-11,4,2
18:09:03:172074,19,23,31,9,-7,-7,-5,-1
18:09:03:178051,3,8,-34,9,1,-10,-9,8
18:09:03:186294,3,8,-34,9,1,-10,-9,8
18:09:03:187110,3,-22,17,3,3,6,15,17
18:09:03:200590,17,15,-11,-11,-6,-7,-1,-5
18:09:03:208824,17,15,-11,-11,-6,-7,-1,-5
18:09:03:209693,-14,14,-4,-7,-6,-1,-22,-3
18:09:03:215586,-7,-25,9,6,1,-1,-6,8
18:09:03:239459,-7,-25,9,6,1,-1,-6,8
18:09:03:240235,-23,40,-36,-10,-4,-3,-2,-16
18:09:03:241034,-1,18,3,1,5,0,-10,-12
18:09:03:246272,-1,18,3,1,5,0,-10,-12
18:09:03:247134,16,-18,13,16,7,22,51,3
18:09:03:260641,-38,116,23,5,1,10,41,10
18:09:03:268785,-38,116,23,5,1,10,41,10
18:09:03:269535,-35,56,-25,-2,0,-2,-11,-19
18:09:03:275603,30,31,3,-2,16,1,-4,-6
18:09:03:291353,30,31,3,-2,16,1,-4,-6
18:09:03:292146,-19,-30,24,0,-8,-12,-27,-18
18:09:03:298158,8,-53,11,-2,-6,-8,-5,13
18:09:03:306339,8,-53,11,-2,-6,-8,-5,13
18:09:03:307098,21,-34,0,-8,-1,-6,-2,1
18:09:03:320642,-18,-47,-3,5,0,11,45,3
18:09:03:328838,-18,-47,-3,5,0,11,45,3
18:09:03:329610,10,-18,9,-1,-10,-11,-71,-1
18:09:03:335632,-3,-77,-25,-3,-4,3,21,8
18:09:03:351367,-3,-77,-25,-3,-4,3,21,8
18:09:03:352120,-10,62,17,9,4,-3,14,1
18:09:03:358102,0,57,-5,-4,-7,-7,-32,-6
18:09:03:366278,0,57,-5,-4,-7,-7,-32,-6
18:09:03:367084,8,-45,1,3,-2,-15,-28,-17
18:09:03:380570,7,11,12,-5,-7,-16,-35,-3
18:09:03:388833,7,11,12,-5,-7,-16,-35,-3
18:09:03:389609,-36,7,4,0,-6,7,36,-24
18:09:03:395655,1,-61,-17,-5,-5,2,31,10
18:09:03:411300,1,-61,-17,-5,-5,2,31,10
18:09:03:412126,20,-105,-43,-17,-6,-4,-1,2
18:09:03:418069,11,-10,-29,-6,-1,8,64,9
18:09:03:426339,11,-10,-29,-6,-1,8,64,9
18:09:03:427130,26,28,25,9,7,10,12,18
18:09:03:440572,-18,51,5,5,7,24,26,-3
18:09:03:448799,-18,51,5,5,7,24,26,-3
18:09:03:449608,1,15,-12,-2,4,-4,2,9
18:09:03:455539,-17,-42,22,-2,-3,-5,-30,-6
18:09:03:471973,-17,-42,22,-2,-3,-5,-30,-6
18:09:03:472722,0,-29,4,17,11,8,22,-1
18:09:03:478069,18,-31,-21,-14,-7,-7,-38,-32
18:09:03:486311,18,-31,-21,-14,-7,-7,-38,-32
18:09:03:487118,15,47,13,3,5,-9,-97,11
18:09:03:500580,-8,23,23,13,5,2,1,-17
18:09:03:516960,-8,23,23,13,5,2,1,-17
18:09:03:517734,-11,-31,-20,-13,-5,-1,27,10
18:09:03:518533,-15,-16,-34,-14,-9,-9,-33,-3
18:09:03:531294,-15,-16,-34,-14,-9,-9,-33,-3
18:09:03:532060,29,-58,-8,-8,-4,-8,-12,1
18:09:03:538089,-1,18,-29,-3,0,-7,7,-1
18:09:03:546252,-1,18,-29,-3,0,-7,7,-1
18:09:03:547086,-22,15,7,-8,-5,2,62,-13
18:09:03:560592,28,-28,11,-4,-6,-6,21,11
18:09:03:568793,28,-28,11,-4,-6,-6,21,11
18:09:03:569613,-25,-3,-8,-1,-4,1,1,-17
18:09:03:575618,-23,-64,15,6,3,-6,-4,1
18:09:03:591350,-23,-64,15,6,3,-6,-4,1
18:09:03:592121,34,-16,14,5,2,-1,24,-1
18:09:03:598094,11,12,11,-2,0,7,-35,5
18:09:03:606264,11,12,11,-2,0,7,-35,5
18:09:03:607091,-5,24,-6,1,-5,-15,-71,5
18:09:03:620599,5,33,40,9,-3,-4,7,4
18:09:03:636987,5,33,40,9,-3,-4,7,4
18:09:03:637802,-29,-7,-2,-13,-3,5,47,11
18:09:03:638566,-55,25,8,6,-3,-7,-28,-27
18:09:03:651329,-55,25,8,6,-3,-7,-28,-27
18:09:03:652110,-1,-18,0,-2,3,2,1,-1
18:09:03:658056,10,17,2,-1,-6,-10,-10,4
18:09:03:666291,10,17,2,-1,-6,-10,-10,4
18:09:03:667106,17,3,7,-11,0,3,32,2
18:09:03:680577,11,12,-7,0,-5,-14,-22,-10
18:09:03:688806,11,12,-7,0,-5,-14,-22,-10
18:09:03:689592,13,77,9,6,-2,20,36,8
18:09:03:695588,6,-70,-28,-13,-3,-6,-13,2
18:09:03:711320,6,-70,-28,-13,-3,-6,-13,2
18:09:03:712102,-31,5,-5,0,-2,0,3,11
18:09:03:718088,-40,-7,40,5,-2,5,23,-4
18:09:03:726318,-40,-7,40,5,-2,5,23,-4
18:09:03:727105,10,2,24,10,6,-5,-25,-5
18:09:03:740573,14,12,23,6,3,9,3,-5
18:09:03:748813,14,12,23,6,3,9,3,-5
18:09:03:749593,-34,97,-12,-5,-2,2,28,19
18:09:03:755567,16,-21,1,0,-2,-17,-62,-25
18:09:03:771282,16,-21,1,0,-2,-17,-62,-25
18:09:03:772103,-9,12,-16,1,1,-5,-29,13
18:09:03:778068,35,74,-16,-4,9,15,44,35
18:09:03:793824,35,74,-16,-4,9,15,44,35
18:09:03:794588,0,28,18,5,5,2,12,-17
18:09:03:800600,-21,24,-10,3,3,0,21,14
18:09:03:808816,-21,24,-10,3,3,0,21,14
18:09:03:809600,4,-65,-81,-27,-10,-13,-30,-8
18:09:03:815564,19,53,-1,-11,-2,-8,-30,-4
18:09:03:831288,19,53,-1,-11,-2,-8,-30,-4
18:09:03:832088,22,26,37,17,3,6,-6,-18
18:09:03:838080,38,39,-31,-12,-1,8,35,21
18:09:03:845613,38,39,-31,-12,-1,8,35,21
18:09:03:853098,-40,-25,45,14,4,-5,2,-13
18:09:03:860587,-26,-24,14,0,-3,-1,-5,-2
18:09:03:868828,-26,-24,14,0,-3,-1,-5,-2
18:09:03:869595,9,-11,-10,-6,-8,-6,24,23
18:09:03:883127,-26,51,-17,11,8,-4,-1,8
18:09:03:891285,-26,51,-17,11,8,-4,-1,8
18:09:03:892096,3,-37,4,-1,-11,-17,-31,-29
18:09:03:898074,65,5,-10,-12,-7,-3,34,4
18:09:03:905658,65,5,-10,-12,-7,-3,34,4
18:09:03:913078,29,7,-9,-4,0,-10,-9,-16
18:09:03:920569,-24,-22,1,-3,-5,4,-1,-13
18:09:03:928783,-24,-22,1,-3,-5,4,-1,-13
18:09:03:929630,-15,-4,5,3,4,19,-9,3
18:09:03:943106,23,-99,11,4,-7,3,-6,-11
18:09:03:951317,23,-99,11,4,-7,3,-6,-11
18:09:03:952101,-12,-20,-15,-10,-9,7,7,17
18:09:03:958076,8,-22,-18,0,3,13,-23,-12
18:09:03:965668,8,-22,-18,0,3,13,-23,-12
18:09:03:973125,-69,-43,10,7,-2,-7,-20,-14
18:09:03:980588,31,-18,14,3,-1,-2,-8,-8
18:09:03:988778,31,-18,14,3,-1,-2,-8,-8
18:09:03:989576,16,-6,-27,-14,-6,5,-15,-2
18:09:04:3130,-30,-3,8,5,2,-7,14,-5
18:09:04:11303,-30,-3,8,5,2,-7,14,-5
18:09:04:12114,32,-27,-15,-1,-1,-14,-63,-8
18:09:04:18077,-5,110,6,1,-2,-19,-63,6
18:09:04:25604,-5,110,6,1,-2,-19,-63,6
18:09:04:33120,2,60,-3,-5,-3,-5,-5,-23
18:09:04:40640,-66,3,21,-4,-3,2,15,16
18:09:04:48778,-66,3,21,-4,-3,2,15,16
18:09:04:49567,1,1,30,9,6,-5,3,12
18:09:04:71973,-12,-13,14,-3,-8,-6,60,-30
18:09:04:72793,-12,-13,14,-3,-8,-6,60,-30
18:09:04:73583,30,-20,6,7,-4,19,33,2
18:09:04:78058,3,-87,-31,-11,-5,-3,33,21
18:09:04:85632,3,-87,-31,-11,-5,-3,33,21
18:09:04:93095,-10,21,20,5,5,3,34,7
18:09:04:100607,-3,-6,-73,-15,-4,-3,-39,-7
18:09:04:108764,-3,-6,-73,-15,-4,-3,-39,-7
18:09:04:109540,24,-36,11,1,0,5,6,12
18:09:04:123067,-4,-46,25,19,7,13,6,-35
18:09:04:131314,-4,-46,25,19,7,13,6,-35
18:09:04:132093,-20,-14,-11,3,-3,-11,-11,-7
18:09:04:138113,7,74,15,7,-8,-7,-19,-13
18:09:04:145609,7,74,15,7,-8,-7,-19,-13
18:09:04:153099,-19,-1,19,3,4,11,41,12
18:09:04:160626,13,14,9,4,5,10,-6,20
18:09:04:168801,13,14,9,4,5,10,-6,20
18:09:04:169658,-2,17,3,0,1,9,18,-1
18:09:04:191994,2,-27,-4,-7,-1,-15,-54,1
18:09:04:192795,2,-27,-4,-7,-1,-15,-54,1
18:09:04:193589,-1,22,8,-3,1,6,-9,17
18:09:04:198092,14,-14,-46,-16,-2,7,3,13
18:09:04:205636,14,-14,-46,-16,-2,7,3,13
18:09:04:213144,-2,-67,-67,-16,-4,-16,-50,-26
18:09:04:220602,27,-51,17,3,3,-5,17,13
18:09:04:228808,27,-51,17,3,3,-5,17,13
18:09:04:229604,7,-10,-9,-15,5,2,31,9
18:09:04:243068,-23,-2,-13,-1,-6,0,19,1
18:09:04:251306,-23,-2,-13,-1,-6,0,19,1
18:09:04:252073,-13,-7,-7,5,-5,-7,-6,3
18:09:04:258144,-6,-21,26,4,-1,-5,-34,12
18:09:04:265636,-6,-21,26,4,-1,-5,-34,12
18:09:04:273058,-54,69,21,21,7,4,56,4
18:09:04:280619,9,-57,-14,-8,-5,2,17,10
18:09:04:288783,9,-57,-14,-8,-5,2,17,10
18:09:04:289574,3,-48,-3,-8,-10,3,32,10
18:09:04:303110,-29,11,1,4,6,5,1,-23
18:09:04:311299,-29,11,1,4,6,5,1,-23
18:09:04:312088,-6,35,2,-4,-2,3,0,0
18:09:04:318101,-38,29,36,9,-2,-5,24,-10
18:09:04:325637,-38,29,36,9,-2,-5,24,-10
18:09:04:333064,-29,68,3,-5,-1,-2,-43,7
18:09:04:340585,-8,41,1,-5,-1,7,-1,2
18:09:04:348816,-8,41,1,-5,-1,7,-1,2
18:09:04:349605,15,-77,8,-6,-7,-4,8,-21
18:09:04:363066,1,-11,4,0,-6,-15,-37,-22
18:09:04:371279,1,-11,4,0,-6,-15,-37,-22
18:09:04:372094,47,-18,-35,-12,-9,6,-29,20
18:09:04:378094,2,-11,-23,-12,0,-3,-6,-14
18:09:04:385704,2,-11,-23,-12,0,-3,-6,-14
18:09:04:393087,5,6,6,6,4,0,-7,9
18:09:04:400590,15,3,0,-4,-4,3,-5,6
18:09:04:408800,15,3,0,-4,-4,3,-5,6
18:09:04:409625,-23,66,11,2,7,-4,-11,-12
18:09:04:423136,27,64,-17,-8,-4,-1,19,10
18:09:04:431330,27,64,-17,-8,-4,-1,19,10
18:09:04:432109,-1,-23,1,7,-5,-5,12,14
18:09:04:438105,-2,3,-4,4,5,-15,-6,-4
18:09:04:445686,-2,3,-4,4,5,-15,-6,-4
18:09:04:453090,15,-18,10,-2,-3,-4,-6,-23
18:09:04:460592,51,-32,-2,-5,-1,3,14,19
18:09:04:468774,51,-32,-2,-5,-1,3,14,19
18:09:04:469614,21,-15,23,3,-3,-7,10,-25
18:09:04:483147,2,80,-50,-13,4,12,30,5
18:09:04:491345,2,80,-50,-13,4,12,30,5
18:09:04:492151,4,22,6,6,2,8,-10,4
18:09:04:498071,-15,-70,26,3,-9,-22,-46,-7
18:09:04:505623,-15,-70,26,3,-9,-22,-46,-7
18:09:04:513131,-23,-32,-39,-7,1,-8,-12,-22
18:09:04:520640,-3,-1,4,4,7,8,10,17
18:09:04:528794,-3,-1,4,4,7,8,10,17
18:09:04:529579,47,-4,-4,-14,2,-15,-54,0
18:09:04:543091,-4,-15,12,2,8,5,13,-5
18:09:04:551256,-4,-15,12,2,8,5,13,-5
18:09:04:552110,35,-25,-8,-9,-10,-10,8,7
18:09:04:558141,-22,43,12,0,1,0,0,2
18:09:04:565627,-22,43,12,0,1,0,0,2
18:09:04:573085,-35,-17,4,10,7,-15,-5,15
18:09:04:580610,-24,-62,-5,-5,-11,-15,-28,10
18:09:04:588824,-24,-62,-5,-5,-11,-15,-28,10
18:09:04:589595,27,14,-10,-6,-6,2,-13,7
18:09:04:603135,-66,62,11,19,14,21,-10,-24
18:09:04:611309,-66,62,11,19,14,21,-10,-24
18:09:04:612082,-18,-60,-47,-11,-13,-14,3,15
18:09:04:618077,22,0,17,4,-8,7,0,18
18:09:04:625638,22,0,17,4,-8,7,0,18
18:09:04:633086,-9,80,6,13,5,-6,3,-7
18:09:04:640571,21,-14,-16,-1,-4,-8,-17,-12
18:09:04:648800,21,-14,-16,-1,-4,-8,-17,-12
18:09:04:649581,-39,-25,32,-2,-2,4,7,-27
18:09:04:663082,2,-12,11,2,0,0,-40,-28
18:09:04:671308,2,-12,11,2,0,0,-40,-28
18:09:04:672119,26,18,9,-4,-2,19,4,-9
18:09:04:678067,10,-58,-1,-7,1,3,35,22
18:09:04:685655,10,-58,-1,-7,1,3,35,22
18:09:04:693089,-2,-32,11,1,3,-2,-12,15
18:09:04:700609,59,1,-7,-5,-4,-14,16,11
18:09:04:708818,59,1,-7,-5,-4,-14,16,11
18:09:04:709640,-1,-19,20,4,7,4,-18,-23
18:09:04:723075,0,5,-19,-3,-5,-7,-20,-4
18:09:04:731340,0,5,-19,-3,-5,-7,-20,-4
18:09:04:732115,0,6,-18,5,2,12,29,6
18:09:04:738078,-28,54,14,6,4,-12,-24,-8
18:09:04:745680,-28,54,14,6,4,-12,-24,-8
18:09:04:753086,-8,-108,-10,-8,-13,-2,20,0
18:09:04:760574,-10,-14,3,-3,-6,10,25,-21
18:09:04:768107,-10,-14,3,-3,-6,10,25,-21
18:09:04:775629,-9,23,11,-4,3,0,12,0
18:09:04:783099,-20,9,6,3,-2,0,-46,-24
18:09:04:791327,-20,9,6,3,-2,0,-46,-24
18:09:04:792081,25,34,-25,-5,-4,-3,8,14
18:09:04:806285,-2,-13,9,-11,1,12,31,10
18:09:04:807078,-2,-13,9,-11,1,12,31,10
18:09:04:813104,-3,60,26,10,5,5,42,11
18:09:04:820626,8,-46,-35,-15,-12,-11,-43,-2
18:09:04:828130,8,-46,-35,-15,-12,-11,-43,-2
18:09:04:835616,-1,-5,-26,-19,-7,-7,-27,7
18:09:04:843057,9,-5,-1,5,2,-1,29,18
18:09:04:851310,9,-5,-1,5,2,-1,29,18
18:09:04:852108,-28,-10,19,1,-3,0,-59,-34
18:09:04:866289,-7,18,28,1,2,-12,9,-6
18:09:04:867061,-7,18,28,1,2,-12,9,-6
18:09:04:873069,15,-23,22,5,-2,-9,-23,1
18:09:04:880568,-23,63,16,16,2,5,9,-6
18:09:04:888137,-23,63,16,16,2,5,9,-6
18:09:04:903745,11,14,28,14,9,7,42,10
18:09:04:904548,2,-51,-5,-11,-13,-13,6,-8
18:09:04:911312,2,-51,-5,-11,-13,-13,6,-8
18:09:04:912079,-58,18,-14,-4,8,3,-36,-7
18:09:04:926286,-43,-36,17,-1,-2,14,0,20
18:09:04:927103,-43,-36,17,-1,-2,14,0,20
18:09:04:933085,8,13,-1,4,1,-6,-5,-1
18:09:04:940582,-12,-12,-22,-12,0,10,28,10
18:09:04:948119,-12,-12,-22,-12,0,10,28,10
18:09:04:955618,12,1,18,-4,-7,-3,-49,14
18:09:04:963078,23,10,-9,4,-4,-12,-60,-35
18:09:04:971263,23,10,-9,4,-4,-12,-60,-35
18:09:04:972107,23,-8,-32,-8,-4,7,53,-12
18:09:04:986284,-28,-29,18,11,1,6,22,2
18:09:04:987128,-28,-29,18,11,1,6,22,2
18:09:04:993057,-38,38,-18,3,1,-2,15,-5
18:09:05:574,-31,-50,-4,-4,-11,-6,-32,-24
18:09:05:8177,-31,-50,-4,-4,-11,-6,-32,-24
18:09:05:15622,15,25,12,9,2,-6,3,14
18:09:05:23116,38,7,20,2,6,-1,-30,4
18:09:05:31335,38,7,20,2,6,-1,-30,4
18:09:05:32118,-2,-36,-2,-9,-5,-1,-22,2
18:09:05:46317,30,18,-61,-30,-6,-9,35,22
18:09:05:47115,30,18,-61,-30,-6,-9,35,22
18:09:05:53075,6,-58,5,5,-3,-2,29,1
18:09:05:60624,-26,-23,1,10,1,-19,-49,-30
18:09:05:68155,-26,-23,1,10,1,-19,-49,-30
18:09:05:75606,-15,30,-7,-6,-14,-10,19,-10
18:09:05:83103,-8,12,-4,-8,0,2,-21,11
18:09:05:91267,-8,12,-4,-8,0,2,-21,11
18:09:05:92076,8,6,-6,-1,2,-3,11,8
18:09:05:106289,14,27,-1,-9,-3,6,35,20
18:09:05:107155,14,27,-1,-9,-3,6,35,20
18:09:05:113076,23,-39,8,-7,-7,14,13,0
18:09:05:120592,-6,16,22,-5,-1,-2,13,12
18:09:05:128167,-6,16,22,-5,-1,-2,13,12
18:09:05:135604,16,28,-16,2,4,-2,-25,12
18:09:05:143086,-31,-43,-16,5,-1,-7,-28,7
18:09:05:151324,-31,-43,-16,5,-1,-7,-28,7
18:09:05:152104,-19,-19,-9,0,4,21,41,-37
18:09:05:166291,1,32,5,12,12,14,41,-10
18:09:05:167100,1,32,5,12,12,14,41,-10
18:09:05:181262,15,18,-1,2,-3,-7,-15,9
18:09:05:182048,8,0,-12,-13,-7,5,38,-4
18:09:05:188200,8,0,-12,-13,-7,5,38,-4
18:09:05:195622,-32,-32,6,-17,6,2,-11,4
18:09:05:203071,24,-10,7,-1,-6,-5,-15,4
18:09:05:211266,24,-10,7,-1,-6,-5,-15,4
18:09:05:212070,-49,49,1,13,6,-7,4,5
18:09:05:226356,6,-12,-1,-4,-5,0,20,-2
18:09:05:227156,6,-12,-1,-4,-5,0,20,-2
18:09:05:233079,31,15,-47,-13,-4,-10,4,3
18:09:05:240585,4,104,30,13,4,15,9,-6
18:09:05:248138,4,104,30,13,4,15,9,-6
18:09:05:255640,5,-37,-15,10,12,5,6,-3
18:09:05:263105,-28,-29,-24,-3,-3,-6,1,-9
18:09:05:271334,-28,-29,-24,-3,-3,-6,1,-9
18:09:05:272080,5,75,15,0,-5,-13,-31,-44
18:09:05:286275,19,-6,12,8,0,-8,-25,-31
18:09:05:287102,19,-6,12,8,0,-8,-25,-31
18:09:05:293115,-9,-74,3,-4,-15,-7,22,15
18:09:05:300619,22,48,-20,7,2,-5,14,21
18:09:05:308111,22,48,-20,7,2,-5,14,21
18:09:05:315602,-9,0,21,-4,0,2,-3,-4
18:09:05:323070,13,-78,13,-5,-3,-1,18,-5
18:09:05:331325,13,-78,13,-5,-3,-1,18,-5
18:09:05:332189,-25,-14,14,7,-5,15,27,2
18:09:05:346252,6,-31,10,5,1,3,-16,-13
18:09:05:347081,6,-31,10,5,1,3,-16,-13
18:09:05:353105,-17,-32,5,-5,-10,-8,-8,18
18:09:05:360565,18,-37,-8,-3,-1,3,17,17
18:09:05:368146,18,-37,-8,-3,-1,3,17,17
18:09:05:375570,0,-47,-11,-6,-4,-1,-3,12
18:09:05:383088,15,-16,23,2,-1,-4,-7,8
18:09:05:391289,15,-16,23,2,-1,-4,-7,8
18:09:05:392089,-7,41,-4,-10,-8,-10,-39,-15
18:09:05:406276,-15,61,-15,-9,5,5,3,4
18:09:05:407113,-15,61,-15,-9,5,5,3,4
18:09:05:413068,20,17,26,11,5,-5,-6,17
18:09:05:420584,3,-46,-15,-7,-12,-7,-30,9
18:09:05:428142,3,-46,-15,-7,-12,-7,-30,9
18:09:05:443733,-9,-27,-11,-7,-4,-2,-6,-1
18:09:05:444525,5,-26,2,-4,-4,-8,-16,-15
18:09:05:451324,5,-26,2,-4,-4,-8,-16,-15
18:09:05:452111,38,-36,-8,-7,-6,-9,-14,-11
18:09:05:466306,7,19,-9,-2,2,-10,-4,-19
18:09:05:467104,7,19,-9,-2,2,-10,-4,-19
18:09:05:473061,-6,-37,-25,3,-5,3,-35,-47
18:09:05:480574,-15,31,21,7,5,6,-43,8
18:09:05:488144,-15,31,21,7,5,6,-43,8
18:09:05:495623,23,15,-6,-1,6,8,6,13
18:09:05:503113,40,-82,-21,-16,-13,4,10,-15
18:09:05:511325,40,-82,-21,-16,-13,4,10,-15
18:09:05:512100,-8,-19,5,8,-5,3,-41,11
18:09:05:526327,7,49,4,9,2,-12,-30,7
18:09:05:527110,7,49,4,9,2,-12,-30,7
18:09:05:533063,-23,-11,-28,-14,1,-7,3,-1
18:09:05:540554,-19,8,-1,4,12,-3,32,8
18:09:05:548157,-19,8,-1,4,12,-3,32,8
18:09:05:555631,3,22,-42,-14,-2,-1,35,-18
18:09:05:563074,-4,-29,2,-4,-4,3,-15,1
18:09:05:578847,-4,-29,2,-4,-4,3,-15,1
18:09:05:579589,-14,-13,15,13,9,-3,-3,8
18:09:05:586291,23,-3,-6,-2,5,11,27,-2
18:09:05:587101,23,-3,-6,-2,5,11,27,-2
18:09:05:593115,3,-26,18,0,-7,-13,-39,-21
18:09:05:600606,-38,-47,-11,-2,-3,-8,29,6
18:09:05:608172,-38,-47,-11,-2,-3,-8,29,6
18:09:05:615580,4,9,23,-5,-2,6,3,5
18:09:05:623097,9,-48,2,8,-6,-3,18,1
18:09:05:631332,9,-48,2,8,-6,-3,18,1
18:09:05:632075,0,-44,-34,-11,-10,-3,13,-12
18:09:05:646232,-27,-15,-44,-26,-14,-1,-59,5
18:09:05:647082,-27,-15,-44,-26,-14,-1,-59,5
18:09:05:653106,30,-37,19,8,3,20,53,17
18:09:05:660614,0,38,-10,4,3,-5,5,-21
18:09:05:668120,0,38,-10,4,3,-5,5,-21
18:09:05:675656,25,10,13,4,8,-1,32,-13
18:09:05:683124,-32,33,16,0,4,-6,9,16
18:09:05:698800,-32,33,16,0,4,-6,9,16
18:09:05:699579,-34,6,54,27,-8,-4,-23,-1
18:09:05:706302,35,-23,60,1,1,-12,-53,-4
18:09:05:707110,35,-23,60,1,1,-12,-53,-4
18:09:05:713098,-1,-36,-14,-6,-2,-4,11,13
18:09:05:728780,-2,-20,-12,-2,-6,6,-3,0
18:09:05:729600,-2,-20,-12,-2,-6,6,-3,0
18:09:05:735646,17,29,0,-6,-1,-6,-29,8
18:09:05:743109,4,-9,-5,3,5,5,18,-10
18:09:05:750605,4,-9,-5,3,5,5,18,-10
18:09:05:758068,-13,56,-19,8,8,-1,-1,12
18:09:05:766273,-27,39,2,3,-5,3,60,11
18:09:05:767119,-27,39,2,3,-5,3,60,11
18:09:05:780640,23,28,39,1,-1,-12,-10,4
18:09:05:788791,3,-43,38,0,-1,3,15,-6
18:09:05:789613,3,-43,38,0,-1,3,15,-6
18:09:05:795622,4,24,-5,-1,4,11,29,15
18:09:05:803059,-41,21,3,-4,-3,8,-24,2
18:09:05:810638,-41,21,3,-4,-3,8,-24,2
18:09:05:818083,-16,33,7,-10,-5,-17,-95,-26
18:09:05:826306,-5,43,-42,-2,10,5,28,7
18:09:05:827119,-5,43,-42,-2,10,5,28,7
18:09:05:833093,1,-32,-32,1,-4,6,26,3
18:09:05:848797,-10,5,-21,-9,-16,-6,0,-15
18:09:05:849619,-10,5,-21,-9,-16,-6,0,-15
18:09:05:855630,3,29,1,14,6,7,13,3
18:09:05:863084,2,-4,12,-4,0,4,27,1
18:09:05:870648,2,-4,12,-4,0,4,27,1
18:09:05:878107,15,-13,-6,-11,-4,-2,29,13
18:09:05:886321,-34,21,23,9,2,-6,-36,-37
18:09:05:887136,-34,21,23,9,2,-6,-36,-37
18:09:05:893068,-30,-20,6,-3,-5,-8,-19,-17
18:09:05:908814,8,18,7,1,-3,-9,-15,-11
18:09:05:909652,8,18,7,1,-3,-9,-15,-11
18:09:05:915602,-24,-49,28,1,1,6,36,5
18:09:05:923086,15,-21,3,4,4,-5,19,6
18:09:05:930701,15,-21,3,4,4,-5,19,6
18:09:05:938108,0,-28,-27,-6,-3,11,-15,-6
18:09:05:946245,18,-20,-15,-5,-2,-6,-45,2
18:09:05:947086,18,-20,-15,-5,-2,-6,-45,2
18:09:05:953099,-23,13,-1,2,-4,-19,30,0
18:09:05:976962,19,17,-6,0,1,-1,17,3
18:09:05:977770,19,17,-6,0,1,-1,17,3
18:09:05:978574,16,44,0,-3,6,0,13,2
18:09:05:983069,-15,-61,11,-6,6,5,-11,1
18:09:05:990653,-15,-61,11,-6,6,5,-11,1
18:09:05:998087,0,27,12,-1,-2,0,-31,11
18:09:06:6253,-21,-27,12,6,-1,-13,-27,-20
18:09:06:7057,-21,-27,12,6,-1,-13,-27,-20
18:09:06:13096,23,-3,-12,-3,1,5,5,1
18:09:06:28818,-13,11,1,-9,-8,6,1,11
18:09:06:29612,-13,11,1,-9,-8,6,1,11
18:09:06:35614,5,-54,8,-9,-8,-6,21,-13
18:09:06:43110,-1,14,-13,4,4,-9,-7,0
18:09:06:50627,-1,14,-13,4,4,-9,-7,0
18:09:06:58123,6,-62,-18,-14,-3,11,11,-6
18:09:06:66272,22,14,-2,15,8,14,39,11
18:09:06:67097,22,14,-2,15,8,14,39,11
18:09:06:73092,-33,66,-1,2,6,3,14,5
18:09:06:88760,10,5,0,-14,-10,6,14,11
18:09:06:89575,10,5,0,-14,-10,6,14,11
18:09:06:95594,13,-1,17,6,4,10,9,-1
18:09:06:103086,-2,33,26,1,-2,15,15,14
18:09:06:110638,-2,33,26,1,-2,15,15,14
18:09:06:118082,6,-19,-30,1,-7,-8,-22,2
18:09:06:126278,-6,-1,-4,2,7,2,36,18
18:09:06:127075,-6,-1,-4,2,7,2,36,18
18:09:06:133074,-1,24,-4,-7,-12,-14,-76,-38
18:09:06:148761,-36,-1,-7,-1,-2,-11,-58,-18
18:09:06:149604,-36,-1,-7,-1,-2,-11,-58,-18
18:09:06:155563,-8,0,5,-7,-4,3,17,-7
18:09:06:163060,-21,28,-39,-8,0,6,1,2
18:09:06:170622,-21,28,-39,-8,0,6,1,2
18:09:06:178098,26,-12,0,9,9,-5,-3,-1
18:09:06:186293,29,-14,-14,-17,-9,-7,16,0
18:09:06:187109,29,-14,-14,-17,-9,-7,16,0
18:09:06:193062,9,-12,8,0,2,18,47,27
18:09:06:208766,-39,52,52,9,-4,-5,-34,-44
18:09:06:209607,-39,52,52,9,-4,-5,-34,-44
18:09:06:215568,7,-16,11,-8,-9,-13,3,-7
18:09:06:223064,-2,-19,9,13,-7,-7,6,3
18:09:06:230638,-2,-19,9,13,-7,-7,6,3
18:09:06:238081,-14,40,5,12,6,-11,-16,15
18:09:06:254462,31,13,-6,1,0,-3,-1,15
18:09:06:255283,31,13,-6,1,0,-3,-1,15
18:09:06:256072,12,-10,-16,-6,-7,-7,26,-6
18:09:06:268768,11,48,-1,-8,-5,-9,-35,-11
18:09:06:269597,11,48,-1,-8,-5,-9,-35,-11
18:09:06:275577,-13,7,12,5,7,-4,-21,10
18:09:06:283089,23,-3,-54,0,6,15,46,16
18:09:06:290663,23,-3,-54,0,6,15,46,16
18:09:06:298059,23,-27,-40,-15,-3,-5,-25,1
18:09:06:306290,0,-34,9,8,-3,-10,-12,9
18:09:06:307126,0,-34,9,8,-3,-10,-12,9
18:09:06:313097,-14,2,13,4,4,6,8,-3
18:09:06:328769,-28,-34,-6,10,2,-23,-3,-25
18:09:06:329587,-28,-34,-6,10,2,-23,-3,-25
18:09:06:335590,-34,-9,-1,0,-1,7,1,-25
18:09:06:343074,0,-5,-13,-7,0,12,13,8
18:09:06:350648,0,-5,-13,-7,0,12,13,8
18:09:06:358082,-12,-13,13,9,-10,-4,-58,-2
18:09:06:366309,-8,-16,36,-13,-3,6,-26,3
18:09:06:367117,-8,-16,36,-13,-3,6,-26,3
18:09:06:373108,-6,28,7,-1,-7,-5,-59,-6
18:09:06:388796,22,-14,24,3,0,-11,-41,19
18:09:06:389613,22,-14,24,3,0,-11,-41,19
18:09:06:395590,-17,-10,11,-5,-6,-8,7,2
18:09:06:403070,7,-62,-6,-25,-6,-3,10,-12
18:09:06:410665,7,-62,-6,-25,-6,-3,10,-12
18:09:06:418084,22,38,1,-14,-4,1,37,0
18:09:06:426252,-23,7,23,18,4,11,56,-36
18:09:06:427086,-23,7,23,18,4,11,56,-36
18:09:06:433101,11,18,7,2,2,-10,-7,9
18:09:06:448807,3,5,-8,1,-5,-10,-1,6
18:09:06:449605,3,5,-8,1,-5,-10,-1,6
18:09:06:455594,6,-2,-9,7,1,-13,-15,-3
18:09:06:463125,18,11,-4,5,5,-1,-31,7
18:09:06:470622,18,11,-4,5,5,-1,-31,7
18:09:06:478118,-51,33,39,7,-4,-13,-12,-21
18:09:06:486309,0,28,23,-3,-2,7,23,-10
18:09:06:487094,0,28,23,-3,-2,7,23,-10
18:09:06:493109,-2,1,-4,2,6,17,57,27
18:09:06:508761,-24,6,-4,6,11,13,19,25
18:09:06:509566,-24,6,-4,6,11,13,19,25
18:09:06:515605,-15,15,0,6,2,-4,15,7
18:09:06:523126,11,-12,-22,3,2,3,7,-6
18:09:06:530643,11,-12,-22,3,2,3,7,-6
18:09:06:538093,-20,-46,-4,-1,-8,-5,-39,-26
18:09:06:546281,-8,-14,-26,-3,-1,-3,2,-1
18:09:06:547132,-8,-14,-26,-3,-1,-3,2,-1
18:09:06:553082,16,-2,-23,-11,-2,-2,34,14
18:09:06:568779,9,-18,4,0,-8,-2,-27,-19
18:09:06:569631,9,-18,4,0,-8,-2,-27,-19
18:09:06:575591,0,-16,-18,-7,-3,4,11,7
18:09:06:583062,-8,-1,-15,-10,-5,-11,-7,-7
18:09:06:590627,-8,-1,-15,-10,-5,-11,-7,-7
18:09:06:598085,63,-2,-1,-2,-2,6,-9,3
18:09:06:606308,28,-6,-2,-8,-4,-10,-13,7
18:09:06:607136,28,-6,-2,-8,-4,-10,-13,7
18:09:06:613107,-26,-21,-9,5,11,10,27,-1
18:09:06:628808,-26,-21,-9,5,11,10,27,-1
18:09:06:629594,-5,-66,-27,2,3,13,22,13
18:09:06:635587,7,-1,4,0,-7,-29,-54,-3
18:09:06:651309,7,-1,4,0,-7,-29,-54,-3
18:09:06:652096,11,-61,12,3,-5,0,-8,6
18:09:06:658070,-16,-18,-28,-12,5,16,31,9
18:09:06:666320,-16,-18,-28,-12,5,16,31,9
18:09:06:667098,-7,24,5,-3,-7,-8,-45,-34
18:09:06:680560,-3,7,4,-2,-5,4,-21,4
18:09:06:688806,-3,7,4,-2,-5,4,-21,4
18:09:06:689596,2,70,-23,-20,-8,1,23,15
18:09:06:695605,14,35,-27,-2,3,0,3,-6
18:09:06:711310,14,35,-27,-2,3,0,3,-6
18:09:06:712093,29,25,15,11,6,2,30,25
18:09:06:718065,-6,28,12,-4,-1,5,66,8
18:09:06:726300,-6,28,12,-4,-1,5,66,8
18:09:06:727075,-14,-60,18,6,-4,-14,1,-60
18:09:06:740578,3,-73,21,3,-4,-5,-15,3
18:09:06:748784,3,-73,21,3,-4,-5,-15,3
18:09:06:749612,-17,19,-9,3,7,4,-21,25
18:09:06:755579,17,-13,21,-2,-4,-14,-59,11
18:09:06:771277,17,-13,21,-2,-4,-14,-59,11
18:09:06:772060,22,-13,-9,4,1,3,28,19
18:09:06:778106,-28,-14,-6,-3,-12,5,22,-57
18:09:06:786276,-28,-14,-6,-3,-12,5,22,-57
18:09:06:787084,-4,-15,-7,2,4,-4,-32,8
18:09:06:800651,-10,2,8,1,-1,18,22,9
18:09:06:808784,-10,2,8,1,-1,18,22,9
18:09:06:809553,17,28,12,-1,-5,8,66,2
18:09:06:815668,9,77,1,2,4,5,0,-10
18:09:06:831309,9,77,1,2,4,5,0,-10
18:09:06:832069,-12,46,6,4,0,-3,-3,8
18:09:06:838113,2,-70,-4,-2,2,-3,15,1
18:09:06:846302,2,-70,-4,-2,2,-3,15,1
18:09:06:847087,-26,-8,-16,-5,-8,-7,-50,0
18:09:06:860611,2,14,-51,-19,1,-7,23,-10
18:09:06:868776,2,14,-51,-19,1,-7,23,-10
18:09:06:869571,8,-2,4,-2,3,7,3,6
18:09:06:875613,-18,12,6,11,0,-13,-15,-2
18:09:06:891340,-18,12,6,11,0,-13,-15,-2
18:09:06:892117,-37,28,-7,-2,-8,-23,-8,0
18:09:06:898122,7,16,-2,-7,1,9,23,8
18:09:06:906296,7,16,-2,-7,1,9,23,8
18:09:06:907110,-10,31,-9,-6,-6,-6,10,-11
18:09:06:929525,-13,-43,1,-2,-8,6,-32,18
18:09:06:930288,-13,-43,1,-2,-8,6,-32,18
18:09:06:931084,-1,-69,1,-2,-1,6,-19,3
18:09:06:935583,-12,-12,2,-1,-3,-4,-42,2
18:09:06:951319,-12,-12,2,-1,-3,-4,-42,2
18:09:06:952111,8,2,5,-8,-4,-2,5,4
18:09:06:958086,-31,69,-21,16,4,8,6,-5
18:09:06:966316,-31,69,-21,16,4,8,6,-5
18:09:06:967114,8,10,34,12,3,6,9,-7
18:09:06:980567,41,-3,-32,-6,4,2,59,-4
18:09:06:988808,41,-3,-32,-6,4,2,59,-4
18:09:06:989645,-32,-6,0,-5,-2,7,20,-8
18:09:06:995577,17,2,34,6,-5,-13,4,3
18:09:07:11270,17,2,34,6,-5,-13,4,3
18:09:07:12087,1,-17,-40,-15,10,15,1,-24
18:09:07:18110,1,-21,8,-3,-1,8,-15,2
18:09:07:26319,1,-21,8,-3,-1,8,-15,2
18:09:07:27087,-1,-15,24,7,-6,-10,-50,9
18:09:07:40608,-14,-32,12,-4,-2,-5,-32,-12
18:09:07:48801,-14,-32,12,-4,-2,-5,-32,-12
18:09:07:49598,12,9,22,10,4,-1,-22,-12
18:09:07:55543,-47,16,18,6,2,-15,-52,12
18:09:07:71287,-47,16,18,6,2,-15,-52,12
18:09:07:72079,19,15,-23,-10,-8,-10,-3,-9
18:09:07:78123,25,35,25,8,4,3,50,18
18:09:07:86266,25,35,25,8,4,3,50,18
18:09:07:87122,-21,10,15,3,4,11,41,7
18:09:07:100606,-37,53,7,3,-3,11,34,5
18:09:07:108584,-37,53,7,3,-3,11,34,5
18:09:07:116220,19,-5,0,1,-5,-10,-46,-6
18:09:07:117079,-14,-83,-13,-12,-11,-6,-7,-23
18:09:07:131296,-14,-83,-13,-12,-11,-6,-7,-23
18:09:07:132100,11,-4,-27,-11,-9,-7,24,3
18:09:07:138093,20,-8,-24,-10,2,-1,-49,7
18:09:07:146265,20,-8,-24,-10,2,-1,-49,7
18:09:07:147118,1,13,24,1,-6,-14,-11,7
18:09:07:160629,11,-13,5,17,13,19,0,0
18:09:07:168782,11,-13,5,17,13,19,0,0
18:09:07:169569,30,-3,-3,1,1,1,-2,1
18:09:07:175632,-14,27,-10,-1,6,8,42,13
18:09:07:191335,-14,27,-10,-1,6,8,42,13
18:09:07:192127,11,-76,-8,3,-5,-2,37,-12
18:09:07:206981,-5,56,14,-1,2,-1,13,-15
18:09:07:207820,-5,56,14,-1,2,-1,13,-15
18:09:07:208605,-10,-47,-7,2,4,4,-5,6
18:09:07:220615,13,-34,-8,-5,-7,-10,-23,-6
18:09:07:228835,13,-34,-8,-5,-7,-10,-23,-6
18:09:07:229599,-13,22,-2,-3,-6,-2,-24,-6
18:09:07:235608,-5,20,9,-3,-2,-21,-106,-16
18:09:07:251320,-5,20,9,-3,-2,-21,-106,-16
18:09:07:252115,24,15,-1,-8,-6,-6,39,28
18:09:07:258108,20,-27,-18,-10,-9,2,44,-6
18:09:07:266311,20,-27,-18,-10,-9,2,44,-6
18:09:07:267125,-4,34,10,0,4,2,39,3
18:09:07:280562,43,-32,14,5,-4,-16,-13,1
18:09:07:288816,43,-32,14,5,-4,-16,-13,1
18:09:07:289607,-19,-4,-61,-9,2,12,-12,-3
18:09:07:295609,27,-36,-12,-13,-10,-9,-17,8
18:09:07:311316,27,-36,-12,-13,-10,-9,-17,8
18:09:07:312119,-15,32,11,6,-3,-31,-101,-19
18:09:07:318086,-41,-3,12,4,-1,12,18,7
18:09:07:333795,-41,-3,12,4,-1,12,18,7
18:09:07:334574,14,-11,2,-15,2,9,-37,-8
18:09:07:340607,19,22,15,4,-1,4,3,7
18:09:07:348792,19,22,15,4,-1,4,3,7
18:09:07:349590,-28,18,19,11,3,1,6,-3
18:09:07:355543,6,78,4,5,3,12,31,1
18:09:07:371280,6,78,4,5,3,12,31,1
18:09:07:372079,-29,1,-17,-11,1,6,38,2
18:09:07:378119,-57,-38,-3,0,-4,-5,-1,1
18:09:07:386262,-57,-38,-3,0,-4,-5,-1,1
18:09:07:387133,17,-46,32,0,-6,-1,7,-5
18:09:07:400628,-1,-17,-21,-2,-3,-7,-5,-11
18:09:07:408823,-1,-17,-21,-2,-3,-7,-5,-11
18:09:07:409603,-7,-19,28,14,2,2,17,6
18:09:07:415587,11,-4,-35,-20,-3,-12,-24,7
18:09:07:431291,11,-4,-35,-20,-3,-12,-24,7
18:09:07:432087,22,35,17,1,-5,-23,-70,-43
18:09:07:438110,6,-22,2,3,-1,-6,35,-35
18:09:07:446283,6,-22,2,3,-1,-6,35,-35
18:09:07:447108,-11,11,-21,-14,-3,9,39,12
18:09:07:460623,0,-20,0,-6,-4,-16,-18,8
18:09:07:468810,0,-20,0,-6,-4,-16,-18,8
18:09:07:469636,6,32,0,6,7,8,17,13
18:09:07:475660,-2,-43,8,5,0,7,1,-4
18:09:07:491352,-2,-43,8,5,0,7,1,-4
18:09:07:492128,7,-23,-16,-4,2,4,23,33
18:09:07:498123,3,15,20,-1,3,0,5,4
18:09:07:506305,3,15,20,-1,3,0,5,4
18:09:07:507120,10,-7,-36,-5,1,-8,-47,1
18:09:07:520588,-2,12,-8,1,-3,-11,-57,-3
18:09:07:528845,-2,12,-8,1,-3,-11,-57,-3
18:09:07:529624,6,25,16,1,0,30,94,12
18:09:07:535616,9,7,-10,-4,-3,10,5,3
18:09:07:551328,9,7,-10,-4,-3,10,5,3
18:09:07:552148,9,-30,-19,-4,2,7,-14,-9
18:09:07:558074,-23,4,-1,-1,6,27,77,29
18:09:07:566269,-23,4,-1,-1,6,27,77,29
18:09:07:567108,-15,15,19,3,-14,-11,5,-45
18:09:07:580592,36,30,-17,1,3,-4,-14,4
18:09:07:588827,36,30,-17,1,3,-4,-14,4
18:09:07:589609,-10,39,-10,-9,-4,-10,-15,13
18:09:07:595584,3,-37,21,2,-8,-8,-7,-3
18:09:07:611322,3,-37,21,2,-8,-8,-7,-3
18:09:07:612084,1,58,-3,0,6,5,-11,25
18:09:07:618089,17,17,-9,5,0,0,-78,1
18:09:07:625679,17,17,-9,5,0,0,-78,1
18:09:07:633074,28,-20,-34,-7,-9,-17,-10,10
18:09:07:640574,24,22,4,1,4,0,3,15
18:09:07:648769,24,22,4,1,4,0,3,15
18:09:07:649580,-27,-37,-7,-7,-4,-4,-1,0
18:09:07:663083,-20,-8,35,8,4,-6,30,-9
18:09:07:671316,-20,-8,35,8,4,-6,30,-9
18:09:07:672131,-21,-24,17,-5,1,7,27,4
18:09:07:678116,-30,-51,-7,-8,-13,-10,-26,-20
18:09:07:685628,-30,-51,-7,-8,-13,-10,-26,-20
18:09:07:693119,-16,35,9,-1,2,3,-5,-5
18:09:07:700617,-17,-24,-11,-1,-1,11,23,-6
18:09:07:708786,-17,-24,-11,-1,-1,11,23,-6
18:09:07:709603,17,-26,10,2,-12,-19,-2,-15
18:09:07:723104,-12,94,-15,-6,7,13,68,-1
18:09:07:731281,-12,94,-15,-6,7,13,68,-1
18:09:07:732105,-4,10,37,6,1,-4,-9,-10
18:09:07:738110,-1,-29,-20,-10,1,-7,28,16
18:09:07:745620,-1,-29,-20,-10,1,-7,28,16
18:09:07:753085,4,10,0,8,1,3,10,-3
18:09:07:760638,26,18,15,-6,-2,-2,9,-17
18:09:07:768790,26,18,15,-6,-2,-2,9,-17
18:09:07:769626,10,-3,4,5,0,3,8,15
18:09:07:783135,-9,-12,-16,2,5,-3,-4,9
18:09:07:791298,-9,-12,-16,2,5,-3,-4,9
18:09:07:792086,-10,-68,11,4,5,1,0,-2
18:09:07:798090,1,14,-12,-18,-7,-14,-34,-7
18:09:07:805665,1,14,-12,-18,-7,-14,-34,-7
18:09:07:813135,-64,-42,-1,1,-11,-31,-86,-27
18:09:07:820574,-6,-21,5,5,-3,-1,-15,-17
18:09:07:828837,-6,-21,5,5,-3,-1,-15,-17
18:09:07:829595,-35,54,20,1,0,16,-22,6
18:09:07:843127,26,-41,-15,-8,-5,4,16,-20
18:09:07:851286,26,-41,-15,-8,-5,4,16,-20
18:09:07:852113,32,-18,-11,-2,5,9,60,10
18:09:07:858074,18,19,-8,5,4,15,43,9
18:09:07:865676,18,19,-8,5,4,15,43,9
18:09:07:873096,11,-12,-28,-10,1,-12,-12,-16
18:09:07:880616,-15,75,38,13,-2,-13,-55,7
18:09:07:888820,-15,75,38,13,-2,-13,-55,7
18:09:07:889632,6,29,-3,3,1,2,-21,11
18:09:07:903096,-22,-46,-2,-4,-3,30,76,9
18:09:07:911341,-22,-46,-2,-4,-3,30,76,9
18:09:07:912109,28,14,-16,-6,0,7,34,15
18:09:07:918095,-14,-41,-9,1,-10,7,-14,19
18:09:07:925681,-14,-41,-9,1,-10,7,-14,19
18:09:07:933092,9,0,33,8,1,5,-35,-12
18:09:07:940606,10,-10,-28,-8,-5,-14,-41,3
18:09:07:948771,10,-10,-28,-8,-5,-14,-41,3
18:09:07:949606,5,-7,-18,2,5,-3,-80,-18
18:09:07:963109,-5,48,26,4,5,2,-9,-13
18:09:07:971363,-5,48,26,4,5,2,-9,-13
18:09:07:972108,0,-25,-5,-5,-1,13,80,5
18:09:07:978120,6,-12,19,4,-6,-26,-32,0
18:09:07:985620,6,-12,19,4,-6,-26,-32,0
18:09:07:993111,-34,78,20,1,-5,-7,26,2
18:09:08:599,6,-25,-30,-5,3,-5,-11,5
18:09:08:8797,6,-25,-30,-5,3,-5,-11,5
18:09:08:9591,22,-19,-5,-8,-3,-3,16,-14
18:09:08:23114,-1,13,17,-3,4,7,-12,-3
18:09:08:31274,-1,13,17,-3,4,7,-12,-3
18:09:08:32101,-14,-12,17,4,-4,0,25,2
18:09:08:38102,6,2,-4,2,-8,-13,11,-6
18:09:08:45639,6,2,-4,2,-8,-13,11,-6
18:09:08:53109,-30,-30,-14,3,-6,-24,-32,-15
18:09:08:60572,-3,-19,-2,-1,0,2,8,20
18:09:08:68795,-3,-19,-2,-1,0,2,8,20
18:09:08:69617,-49,42,-2,1,-12,-26,-52,-43
18:09:08:83139,-16,-44,-18,-13,-4,-12,8,-8
18:09:08:91324,-16,-44,-18,-13,-4,-12,8,-8
18:09:08:92103,34,-1,-5,-5,4,16,37,22
18:09:08:98101,5,20,-23,7,3,-2,-4,-20
18:09:08:105624,5,20,-23,7,3,-2,-4,-20
18:09:08:113092,14,-48,-44,-15,-7,3,-6,5
18:09:08:120585,12,62,23,2,9,-7,-11,6
18:09:08:128838,12,62,23,2,9,-7,-11,6
18:09:08:129632,4,-7,6,-3,2,5,24,16
18:09:08:143104,-22,-18,2,0,-2,-2,10,-32
18:09:08:151297,-22,-18,2,0,-2,-2,10,-32
18:09:08:152111,14,5,11,1,3,12,9,22
18:09:08:158118,-17,-8,31,9,4,0,-36,-16
18:09:08:165668,-17,-8,31,9,4,0,-36,-16
18:09:08:173117,11,-29,-40,-12,-2,8,25,-6
18:09:08:180609,-3,-19,11,2,-8,13,32,23
18:09:08:188831,-3,-19,11,2,-8,13,32,23
18:09:08:189692,14,-8,20,11,7,6,-3,21
18:09:08:203091,0,47,4,-4,7,3,-1,8
18:09:08:211313,0,47,4,-4,7,3,-1,8
18:09:08:212111,-16,-44,-8,-2,-8,-6,10,-8
18:09:08:218092,38,-10,-11,1,0,20,-15,17
18:09:08:225675,38,-10,-11,1,0,20,-15,17
18:09:08:233105,19,35,18,4,1,2,6,-1
18:09:08:240593,6,-45,-8,-5,-12,-33,-28,-16
18:09:08:248789,6,-45,-8,-5,-12,-33,-28,-16
18:09:08:249595,28,14,-3,0,-3,0,-10,-21
18:09:08:263096,-3,17,8,3,3,-11,-45,-45
18:09:08:271346,-3,17,8,3,3,-11,-45,-45
18:09:08:272138,-59,65,33,19,9,-8,-22,-2
18:09:08:278091,-17,-1,22,-1,-3,18,-8,-5
18:09:08:285641,-17,-1,22,-1,-3,18,-8,-5
18:09:08:293107,-2,-94,9,1,3,1,-36,15
18:09:08:300594,-11,15,-18,-5,-1,8,14,-10
18:09:08:308791,-11,15,-18,-5,-1,8,14,-10
18:09:08:309584,18,2,21,9,0,-9,-20,23
18:09:08:323103,4,-45,-26,-7,-4,9,44,1
18:09:08:331290,4,-45,-26,-7,-4,9,44,1
18:09:08:332115,1,22,-25,-11,-10,-7,-47,2
18:09:08:338129,-19,31,-6,1,-8,-12,13,-20
18:09:08:345815,-19,31,-6,1,-8,-12,13,-20
18:09:08:353109,5,1,-96,-19,-6,13,-1,-3
18:09:08:360573,-31,-7,35,6,-1,-18,-69,12
18:09:08:368818,-31,-7,35,6,-1,-18,-69,12
18:09:08:369612,18,21,32,7,0,1,1,-17
18:09:08:383121,32,-21,3,-5,5,0,46,28
18:09:08:391330,32,-21,3,-5,5,0,46,28
18:09:08:392090,2,11,20,-1,1,-6,24,-2
18:09:08:398107,-4,21,-12,2,0,-4,21,7
18:09:08:405626,-4,21,-12,2,0,-4,21,7
18:09:08:413094,4,-22,12,-1,-7,-13,-21,-12
18:09:08:420559,-51,0,-3,-4,-11,15,-13,-3
18:09:08:428847,-51,0,-3,-4,-11,15,-13,-3
18:09:08:429624,-34,30,-12,0,6,-1,-21,-50
18:09:08:443093,17,-81,-18,-3,0,-5,9,5
18:09:08:451299,17,-81,-18,-3,0,-5,9,5
18:09:08:452135,-2,-12,38,0,-3,-4,18,10
18:09:08:458091,16,-1,20,8,-2,7,2,-1
18:09:08:465665,16,-1,20,8,-2,7,2,-1
18:09:08:473099,22,74,-20,0,2,-6,25,0
18:09:08:480596,7,29,-1,2,3,-1,-9,16
18:09:08:488803,7,29,-1,2,3,-1,-9,16
18:09:08:489654,2,-60,-10,-8,-12,-2,-42,-17
18:09:08:503112,-12,36,15,-9,-13,-17,-5,0
18:09:08:511354,-12,36,15,-9,-13,-17,-5,0
18:09:08:512096,4,-11,22,-1,7,8,6,12
18:09:08:518116,-7,47,-13,-4,7,27,46,-2
18:09:08:525757,-7,47,-13,-4,7,27,46,-2
18:09:08:533113,-7,11,-9,3,4,-1,-17,22
18:09:08:540598,-36,-34,-31,-9,-2,-19,-57,-11
18:09:08:548782,-36,-34,-31,-9,-2,-19,-57,-11
18:09:08:549581,8,-3,3,2,4,12,47,0
18:09:08:563135,15,-58,-3,-1,-14,-10,14,-5
18:09:08:571268,15,-58,-3,-1,-14,-10,14,-5
18:09:08:572094,-5,-17,7,4,1,13,-16,2
18:09:08:586335,4,19,7,8,7,-8,-18,-20
18:09:08:587114,4,19,7,8,7,-8,-18,-20
18:09:08:593097,-31,23,-29,-9,3,6,4,9
18:09:08:600630,20,16,33,8,2,-14,53,10
18:09:08:608182,20,16,33,8,2,-14,53,10
18:09:08:615588,4,12,17,2,-2,-2,20,1
18:09:08:623119,-15,21,8,-1,-4,-14,-43,3
18:09:08:631272,-15,21,8,-1,-4,-14,-43,3
18:09:08:632112,5,-31,2,-2,-3,4,6,0
18:09:08:646245,30,-14,0,1,3,-10,-96,-16
18:09:08:647087,30,-14,0,1,3,-10,-96,-16
18:09:08:653106,16,-35,15,0,-4,6,27,7
18:09:08:660609,7,7,-14,-5,1,27,14,7
18:09:08:668111,7,7,-14,-5,1,27,14,7
18:09:08:675607,-26,-51,14,-1,-6,-12,-14,-8
18:09:08:683067,7,-2,-20,-12,-5,6,20,3
18:09:08:691292,7,-2,-20,-12,-5,6,20,3
18:09:08:692096,29,6,-14,4,-4,-19,-67,-2
18:09:08:706778,-31,76,20,10,11,19,58,1
18:09:08:707572,-31,76,20,10,11,19,58,1
18:09:08:713140,-39,-13,3,-9,-4,3,1,-16
18:09:08:720586,24,-27,-69,-17,-19,-17,-37,-35
18:09:08:728156,24,-27,-69,-17,-19,-17,-37,-35
18:09:08:743820,-10,20,7,4,3,-3,25,-3
18:09:08:744573,22,3,21,4,0,0,27,14
18:09:08:751325,22,3,21,4,0,0,27,14
18:09:08:752102,-36,52,-45,-4,-1,-5,9,-6
18:09:08:766032,2,-4,-29,-4,-4,-7,-1,0
18:09:08:773785,2,-4,-29,-4,-4,-7,-1,0
18:09:08:774594,34,29,12,10,3,4,36,8
18:09:08:780630,-20,-8,23,2,-1,-13,-15,8
18:09:08:788167,-20,-8,23,2,-1,-13,-15,8
18:09:08:795598,40,1,-3,-4,-3,9,2,7
18:09:08:803104,-22,-21,-9,1,2,14,27,3
18:09:08:811316,-22,-21,-9,1,2,14,27,3
18:09:08:812130,5,-26,-47,-12,-4,-3,-9,16
18:09:08:826285,-5,-37,22,1,6,-12,-37,-19
18:09:08:827106,-5,-37,22,1,6,-12,-37,-19
18:09:08:833100,-3,6,25,-2,2,-7,-36,-6
18:09:08:840601,19,-31,-5,1,-2,3,60,19
18:09:08:848161,19,-31,-5,1,-2,3,60,19
18:09:08:855603,9,4,20,-5,1,11,1,23
18:09:08:863112,-13,-15,0,-9,-5,-24,-62,-10
18:09:08:871338,-13,-15,0,-9,-5,-24,-62,-10
18:09:08:872135,-18,-37,17,11,9,1,28,-8
18:09:08:886325,-29,11,-48,-10,7,14,36,14
18:09:08:887154,-29,11,-48,-10,7,14,36,14
18:09:08:893101,18,2,29,-7,-9,-4,25,4
18:09:08:900583,-3,-3,24,5,-3,4,7,11
18:09:08:908149,-3,-3,24,5,-3,4,7,11
18:09:08:915604,-27,-51,-24,-4,0,5,18,-40
18:09:08:923104,-10,12,15,-3,-7,2,11,-8
18:09:08:931363,-10,12,15,-3,-7,2,11,-8
18:09:08:932149,-17,-6,-48,-18,-11,-11,3,-7
18:09:08:946297,-17,17,12,10,-3,0,-4,-15
18:09:08:947110,-17,17,12,10,-3,0,-4,-15
18:09:08:953121,7,19,0,2,-2,15,2,-14
18:09:08:960632,-1,1,20,0,-6,-6,22,5
18:09:08:968193,-1,1,20,0,-6,-6,22,5
18:09:08:975653,-17,11,-8,5,2,-15,-14,0
18:09:08:983129,38,30,-8,-1,5,2,-6,6
18:09:08:991293,38,30,-8,-1,5,2,-6,6
18:09:08:992113,-1,-2,-28,-9,-9,-6,-20,-13
18:09:09:6274,-1,-21,-10,-6,5,-2,-15,20
18:09:09:7109,-1,-21,-10,-6,5,-2,-15,20
18:09:09:13113,-7,-5,-24,-8,-4,-15,-51,3
18:09:09:20583,-16,-50,-8,3,-2,-11,-2,-13
18:09:09:28117,-16,-50,-8,3,-2,-11,-2,-13
18:09:09:35627,11,37,27,10,-2,-4,33,8
18:09:09:43109,4,29,-16,-1,-1,4,5,-4
18:09:09:51347,4,29,-16,-1,-1,4,5,-4
18:09:09:52115,-5,-59,-7,-1,-4,-9,-2,-13
18:09:09:66296,16,-12,-4,-4,-6,-21,-23,1
18:09:09:67104,16,-12,-4,-4,-6,-21,-23,1
18:09:09:73092,-18,-20,26,-8,-9,-8,5,11
18:09:09:80624,17,86,42,15,14,19,-29,-24
18:09:09:88128,17,86,42,15,14,19,-29,-24
18:09:09:95626,-18,-32,-1,0,5,2,10,-18
18:09:09:103121,34,14,0,3,5,9,15,11
18:09:09:111295,34,14,0,3,5,9,15,11
18:09:09:112113,8,-5,6,11,4,4,-5,16
18:09:09:126273,9,-45,-103,-33,-6,1,-17,-1
18:09:09:127134,9,-45,-103,-33,-6,1,-17,-1
18:09:09:133132,6,-4,-6,3,-4,6,-17,12
18:09:09:140598,-5,-2,27,5,-1,17,36,5
18:09:09:148186,-5,-2,27,5,-1,17,36,5
18:09:09:155593,-7,20,2,1,1,-8,-37,2
18:09:09:163119,-14,18,0,1,-2,15,24,0
18:09:09:178836,-14,18,0,1,-2,15,24,0
18:09:09:179593,21,82,18,9,9,10,35,17
18:09:09:186281,6,-109,20,-1,-5,-17,-40,-24
18:09:09:187128,6,-109,20,-1,-5,-17,-40,-24
18:09:09:193105,-6,-3,19,8,-2,-5,0,-1
18:09:09:200614,-17,-34,-31,-16,-8,-5,0,6
18:09:09:208150,-17,-34,-31,-16,-8,-5,0,6
18:09:09:215658,6,-17,-16,-2,0,-1,57,1
18:09:09:223133,-18,7,6,0,-2,11,31,27
18:09:09:231358,-18,7,6,0,-2,11,31,27
18:09:09:232147,-45,-47,-11,-6,-4,-15,-45,-20
18:09:09:246313,9,15,-29,-5,-5,2,38,15
18:09:09:247118,9,15,-29,-5,-5,2,38,15
18:09:09:253109,3,-9,7,-10,-2,-2,-6,-4
18:09:09:260638,9,13,39,10,3,2,-2,-12
18:09:09:268165,9,13,39,10,3,2,-2,-12
18:09:09:275602,45,-8,21,4,1,-27,-57,13
18:09:09:283130,-13,51,31,0,5,1,16,3
18:09:09:291297,-13,51,31,0,5,1,16,3
18:09:09:292117,-12,-15,2,7,9,3,20,17
18:09:09:306299,-13,-27,22,4,-3,-14,-51,-4
18:09:09:307146,-13,-27,22,4,-3,-14,-51,-4
18:09:09:313153,25,30,6,1,4,14,-15,5
18:09:09:320606,-44,-2,-18,-4,-12,-28,-111,-19
18:09:09:328159,-44,-2,-18,-4,-12,-28,-111,-19
18:09:09:335617,9,12,-1,1,3,14,39,1
18:09:09:343157,-28,-47,-48,-6,-2,2,-3,-12
18:09:09:351297,-28,-47,-48,-6,-2,2,-3,-12
18:09:09:352096,-1,2,1,-2,-6,-3,0,-13
18:09:09:366279,-28,-5,37,9,-11,-17,-44,-33
18:09:09:367129,-28,-5,37,9,-11,-17,-44,-33
18:09:09:373109,22,-7,-37,-10,-2,17,40,-8
18:09:09:380660,28,14,8,4,5,18,50,4
18:09:09:388134,28,14,8,4,5,18,50,4
18:09:09:395633,4,-35,-6,-6,-8,-13,-38,3
18:09:09:403136,29,9,19,3,4,12,-6,-5
18:09:09:411327,29,9,19,3,4,12,-6,-5
18:09:09:412119,-4,12,24,4,0,5,17,-5
18:09:09:426269,-16,33,-32,-13,3,6,26,-5
18:09:09:427089,-16,33,-32,-13,3,6,26,-5
18:09:09:433128,2,22,13,-4,-4,4,0,20
18:09:09:440599,12,-37,16,-3,-8,-14,-54,4
18:09:09:448173,12,-37,16,-3,-8,-14,-54,4
18:09:09:455626,-10,-30,-11,-3,2,-1,-21,7
18:09:09:463126,-5,7,1,-9,1,6,44,15
18:09:09:471337,-5,7,1,-9,1,6,44,15
18:09:09:472128,-30,32,36,2,-4,-5,1,-11
18:09:09:486337,23,5,6,6,-1,-5,0,18
18:09:09:487138,23,5,6,6,-1,-5,0,18
18:09:09:493109,-22,-21,-44,-14,-5,-14,-33,-16
18:09:09:508799,-37,-5,13,4,-1,-10,4,-11
18:09:09:509607,-37,-5,13,4,-1,-10,4,-11
18:09:09:515588,31,-10,18,11,4,8,10,-17
18:09:09:523121,17,5,-36,-24,-11,-2,-4,-5
18:09:09:530681,17,5,-36,-24,-11,-2,-4,-5
18:09:09:538111,-17,-6,8,-2,1,-2,5,-5
18:09:09:546309,-12,-33,-12,-2,-2,6,19,-3
18:09:09:547140,-12,-33,-12,-2,-2,6,19,-3
18:09:09:553108,5,10,0,0,-6,-36,-77,0
18:09:09:568797,18,23,14,8,7,8,1,8
18:09:09:569644,18,23,14,8,7,8,1,8
18:09:09:575598,-6,-13,-11,-3,-7,10,16,14
18:09:09:583106,15,-3,22,5,4,-8,-1,4
18:09:09:590652,15,-3,22,5,4,-8,-1,4
18:09:09:598134,-20,-77,-40,-22,-10,-3,20,-18
18:09:09:606260,21,-49,-8,-3,1,4,25,10
18:09:09:607097,21,-49,-8,-3,1,4,25,10
18:09:09:613130,13,12,3,1,3,6,20,5
18:09:09:628799,3,36,17,8,-5,-41,-55,-22
18:09:09:629625,3,36,17,8,-5,-41,-55,-22
18:09:09:635607,-10,14,0,0,1,14,18,-9
18:09:09:643123,-22,-47,-5,-8,-3,1,33,16
18:09:09:658842,-22,-47,-5,-8,-3,1,33,16
18:09:09:659617,-9,9,3,17,6,2,31,-9
18:09:09:666262,7,-4,21,1,0,6,8,0
18:09:09:667108,7,-4,21,1,0,6,8,0
18:09:09:673114,-8,42,34,8,7,8,13,20
18:09:09:688810,-3,-65,-32,-6,0,2,-10,-4
18:09:09:689635,-3,-65,-32,-6,0,2,-10,-4
18:09:09:695663,16,8,-18,-5,-3,9,19,1
18:09:09:703141,7,31,4,2,-5,7,-18,-3
18:09:09:710690,7,31,4,2,-5,7,-18,-3
18:09:09:718145,0,21,-13,-8,-8,-10,-13,-6
18:09:09:726251,-12,48,15,-6,0,8,23,10
18:09:09:727106,-12,48,15,-6,0,8,23,10
18:09:09:733136,7,-49,-12,-17,-7,-10,-4,5
18:09:09:748792,-16,22,25,7,2,2,-5,-10
18:09:09:749578,-16,22,25,7,2,2,-5,-10
18:09:09:755640,-1,-28,-4,1,0,9,-12,-16
18:09:09:763112,-5,7,-66,-17,-9,-24,-25,15
18:09:09:770644,-5,7,-66,-17,-9,-24,-25,15
18:09:09:778116,6,7,6,3,5,4,-10,24
18:09:09:786300,-21,-24,-11,3,8,18,39,-10
18:09:09:787107,-21,-24,-11,3,8,18,39,-10
18:09:09:793100,-12,16,19,2,-2,-11,-2,-2
18:09:09:808775,-9,44,26,3,1,4,0,-8
18:09:09:809628,-9,44,26,3,1,4,0,-8
18:09:09:815578,10,-14,12,9,3,7,27,1
18:09:09:823137,2,-23,-44,-3,-8,-11,-29,-1
18:09:09:830647,2,-23,-44,-3,-8,-11,-29,-1
18:09:09:838125,-9,34,-12,-2,0,3,-14,-7
18:09:09:846302,1,18,15,13,10,24,62,-8
18:09:09:847081,1,18,15,13,10,24,62,-8
18:09:09:853140,20,-19,-12,-9,-8,-7,31,23
18:09:09:868795,14,-1,3,-3,5,27,27,16
18:09:09:869595,14,-1,3,-3,5,27,27,16
18:09:09:875571,-42,-4,18,12,8,8,1,-28
18:09:09:883107,8,53,8,-14,-9,-16,-25,-9
18:09:09:890652,8,53,8,-14,-9,-16,-25,-9
18:09:09:898100,-29,46,-31,0,9,-15,-41,-2
18:09:09:906345,-3,-30,4,10,-1,0,17,8
18:09:09:907159,-3,-30,4,10,-1,0,17,8
18:09:09:913121,12,-23,5,1,-2,-8,30,-23
18:09:09:928789,8,-3,9,6,5,12,71,1
18:09:09:929631,8,-3,9,6,5,12,71,1
18:09:09:935600,-17,22,12,0,-4,10,-1,1
18:09:09:943125,4,-23,2,-6,-8,-7,-16,-6
18:09:09:950650,4,-23,2,-6,-8,-7,-16,-6
18:09:09:958151,7,9,-10,-17,-6,2,5,0
18:09:09:966303,11,-3,-10,5,-4,-27,-54,-4
18:09:09:967107,11,-3,-10,5,-4,-27,-54,-4
18:09:09:973134,31,67,20,13,1,-8,-75,-6
18:09:09:988800,2,-2,29,3,-7,-10,36,-10
18:09:09:989621,2,-2,29,3,-7,-10,36,-10
18:09:09:995599,38,-24,2,-10,-8,-4,27,26
18:09:10:3137,-3,14,-3,-1,-8,-43,-74,-2
18:09:10:10692,-3,14,-3,-1,-8,-43,-74,-2
18:09:10:18118,-8,-13,-15,-3,-4,1,22,7
18:09:10:26248,-32,-1,8,-6,0,21,22,-5
18:09:10:27114,-32,-1,8,-6,0,21,22,-5
18:09:10:33105,3,-29,-20,-8,-4,-8,-15,-5
18:09:10:48767,29,13,-11,-1,10,5,-11,12
18:09:10:49583,29,13,-11,-1,10,5,-11,12
18:09:10:55632,-34,2,-4,-2,-4,5,-10,12
18:09:10:63132,-9,6,14,5,-1,-4,1,-12
18:09:10:70634,-9,6,14,5,-1,-4,1,-12
18:09:10:78114,-12,-8,36,6,-1,6,1,-3
18:09:10:86299,-17,-7,-12,-3,-5,2,-6,9
18:09:10:87148,-17,-7,-12,-3,-5,2,-6,9
18:09:10:93151,-9,-9,-9,-6,-1,-18,-1,8
18:09:10:108793,3,-2,13,8,1,6,-93,-11
18:09:10:109612,3,-2,13,8,1,6,-93,-11
18:09:10:115599,-1,-3,6,1,1,6,-81,-29
18:09:10:123112,17,-63,-28,-4,-3,13,15,0
18:09:10:130653,17,-63,-28,-4,-3,13,15,0
18:09:10:138120,-12,-5,-17,-18,-1,-4,33,-5
18:09:10:146308,6,-61,-21,3,-1,-3,10,10
18:09:10:147108,6,-61,-21,3,-1,-3,10,10
18:09:10:153111,15,43,-55,-14,-2,3,19,-2
18:09:10:168780,14,-6,31,3,6,17,64,9
18:09:10:169648,14,-6,31,3,6,17,64,9
18:09:10:175624,9,8,7,12,4,-7,-18,11
18:09:10:183155,-4,11,-10,1,-2,-12,-33,-21
18:09:10:190697,-4,11,-10,1,-2,-12,-33,-21
18:09:10:198124,-32,-47,1,-3,-3,3,-19,-7
18:09:10:206742,-5,28,-2,-7,-3,6,41,4
18:09:10:213844,-5,28,-2,-7,-3,6,41,4
18:09:10:214671,12,3,22,-1,-10,-24,-50,5
18:09:10:228805,-1,-34,29,8,1,-2,-18,-1
18:09:10:229643,-1,-34,29,8,1,-2,-18,-1
18:09:10:235623,7,2,-28,-9,-2,10,26,2
18:09:10:243135,1,-21,-4,-4,2,15,54,17
18:09:10:250678,1,-21,-4,-4,2,15,54,17
18:09:10:258115,28,-22,7,8,-7,-9,-27,-39
18:09:10:266253,-35,6,-13,-2,1,4,2,-17
18:09:10:267101,-35,6,-13,-2,1,4,2,-17
18:09:10:273128,16,7,16,8,6,8,45,13
18:09:10:289469,3,2,-2,-1,0,-3,-31,-1
18:09:10:290266,3,2,-2,-1,0,-3,-31,-1
18:09:10:295607,-20,2,0,-1,4,12,47,19
18:09:10:303131,-5,20,-12,5,0,-5,15,6
18:09:10:310638,-5,20,-12,5,0,-5,15,6
18:09:10:318129,-25,-12,5,2,1,0,4,-7
18:09:10:326267,-26,32,-13,-5,0,-3,-8,4
18:09:10:327100,-26,32,-13,-5,0,-3,-8,4
18:09:10:333104,-6,57,40,9,6,13,2,10
18:09:10:348755,16,1,-29,-9,-10,-20,-102,6
18:09:10:349578,16,1,-29,-9,-10,-20,-102,6
18:09:10:355662,-25,-25,-10,-6,-2,-13,-82,-2
18:09:10:363155,23,23,40,5,0,0,19,20
18:09:10:370641,23,23,40,5,0,0,19,20
18:09:10:378126,30,-8,-24,-7,1,7,45,0
18:09:10:386291,-5,9,-16,-12,-3,11,22,-10
18:09:10:387141,-5,9,-16,-12,-3,11,22,-10
18:09:10:393155,22,18,1,-2,-1,-2,18,-5
18:09:10:408787,-27,-18,26,4,4,18,11,5
18:09:10:409593,-27,-18,26,4,4,18,11,5
18:09:10:415571,-14,-21,-24,-13,-1,-10,-13,-7
18:09:10:423140,11,14,22,-4,3,-8,-15,0
18:09:10:430658,11,14,22,-4,3,-8,-15,0
18:09:10:438112,4,0,-2,0,-5,-9,48,-1
18:09:10:446292,11,1,5,-2,-7,-26,-18,-5
18:09:10:447126,11,1,5,-2,-7,-26,-18,-5
18:09:10:460566,-14,41,27,14,2,15,43,2
18:09:10:468809,-23,11,-43,-10,7,26,48,1
18:09:10:469610,-23,11,-43,-10,7,26,48,1
18:09:10:475621,-19,-1,-3,-5,-10,-11,-31,-17
18:09:10:491294,1,-12,-4,-2,-8,-19,4,-24
18:09:10:492135,1,-12,-4,-2,-8,-19,4,-24
18:09:10:498132,-17,-18,10,4,-1,2,-3,2
18:09:10:506315,-17,-18,10,4,-1,2,-3,2
18:09:10:507101,25,-17,18,1,-4,4,1,-10
18:09:10:520643,8,-16,11,4,-2,-16,-22,-1
18:09:10:528805,8,-16,11,4,-2,-16,-22,-1
18:09:10:529602,-16,38,13,14,-2,-27,-51,-14
18:09:10:535584,-40,21,-9,3,5,9,30,-5
18:09:10:551310,-40,21,-9,3,5,9,30,-5
18:09:10:552122,5,-18,6,4,7,3,-21,-23
18:09:10:566938,-30,-27,-16,-8,-2,16,11,-12
18:09:10:567762,-30,-27,-16,-8,-2,16,11,-12
18:09:10:568558,25,-21,-35,1,-7,0,-20,37
18:09:10:580594,40,-17,-4,-1,4,6,16,16
18:09:10:588810,40,-17,-4,-1,4,6,16,16
18:09:10:589620,9,-78,-22,-15,-10,-16,34,7
18:09:10:595670,1,-20,0,0,2,11,-4,-6
18:09:10:611360,1,-20,0,0,2,11,-4,-6
18:09:10:612161,12,-1,8,4,3,13,3,-13
18:09:10:618139,9,-22,3,-2,5,10,-47,18
18:09:10:626322,9,-22,3,-2,5,10,-47,18
18:09:10:627130,-26,-10,40,4,-8,-7,12,-12
18:09:10:640599,9,-1,-1,1,-4,-16,-30,-25
18:09:10:648868,9,-1,-1,1,-4,-16,-30,-25
18:09:10:649646,-4,16,-30,-6,-2,-26,-43,-5
18:09:10:655640,3,-20,-1,1,2,-17,8,-2
18:09:10:671342,3,-20,-1,1,2,-17,8,-2
18:09:10:672140,-5,23,-37,-9,-1,4,16,-8
18:09:10:686929,1,24,12,4,-1,-2,28,3
18:09:10:687765,1,24,12,4,-1,-2,28,3
18:09:10:688606,-13,-1,25,11,3,2,12,9
18:09:10:700637,-15,26,9,5,-7,-9,-8,-17
18:09:10:708790,-15,26,9,5,-7,-9,-8,-17
18:09:10:709600,27,-14,9,-6,-1,0,-11,28
18:09:10:715609,2,12,3,1,-6,0,43,-3
18:09:10:731309,2,12,3,1,-6,0,43,-3
18:09:10:732115,-5,19,-29,-1,5,8,6,8
18:09:10:738138,24,28,-4,-1,-6,0,-20,21
18:09:10:746303,24,28,-4,-1,-6,0,-20,21
18:09:10:747133,28,29,-10,-1,-3,-1,4,8
18:09:10:760629,26,-32,-21,-15,-3,17,84,15
18:09:10:768641,26,-32,-21,-15,-3,17,84,15
18:09:10:776250,15,-3,25,7,-9,-11,-51,-24
18:09:10:777117,-16,-8,-11,-1,4,10,16,-17
18:09:10:791309,-16,-8,-11,-1,4,10,16,-17
18:09:10:792129,28,18,10,-3,6,8,17,27
18:09:10:798112,10,-15,-30,-14,2,4,-19,16
18:09:10:806334,10,-15,-30,-14,2,4,-19,16
18:09:10:807108,-48,-1,-27,-6,-8,-24,-80,-6
18:09:10:820630,-20,69,10,8,12,4,-14,-8
18:09:10:828790,-20,69,10,8,12,4,-14,-8
18:09:10:829579,-19,-24,20,5,2,20,72,-11
18:09:10:835622,6,-8,21,1,-8,-39,-101,-4
18:09:10:851343,6,-8,21,1,-8,-39,-101,-4
18:09:10:852130,-50,-13,19,0,1,-5,39,19
18:09:10:858124,34,-7,34,-4,-6,0,7,25
18:09:10:866312,34,-7,34,-4,-6,0,7,25
18:09:10:867115,-2,25,25,1,4,9,31,9
18:09:10:880620,29,-22,1,3,-5,-22,-31,0
18:09:10:888776,29,-22,1,3,-5,-22,-31,0
18:09:10:889593,20,-31,-27,-7,-3,5,-24,1
18:09:10:895651,-35,-47,4,0,-6,2,-30,-30
18:09:10:911347,-35,-47,4,0,-6,2,-30,-30
18:09:10:912135,-24,-44,-33,-6,-5,-4,-5,-28
18:09:10:918139,-5,-25,-11,1,-2,1,53,6
18:09:10:926282,-5,-25,-11,1,-2,1,53,6
18:09:10:927125,7,-2,-3,6,5,7,39,-1
18:09:10:940599,-1,19,-7,-1,-1,7,19,5
18:09:10:948857,-1,19,-7,-1,-1,7,19,5
18:09:10:949633,2,15,2,0,-1,-8,-8,3
18:09:10:955613,24,21,13,0,-2,-12,-15,-17
18:09:10:971366,24,21,13,0,-2,-12,-15,-17
18:09:10:972132,45,-1,-4,-8,-12,-33,-35,-7
18:09:10:978118,-32,-28,-5,0,2,5,-33,-34
18:09:10:986315,-32,-28,-5,0,2,5,-33,-34
18:09:10:987129,2,3,-16,2,3,4,20,-1
18:09:11:595,12,50,17,2,0,0,0,9
18:09:11:8814,12,50,17,2,0,0,0,9
18:09:11:9627,-7,1,-25,-6,-1,10,-10,-18
18:09:11:15584,22,-40,-3,5,-2,18,29,3
18:09:11:31317,22,-40,-3,5,-2,18,29,3
18:09:11:32106,-8,32,40,7,0,-5,-3,-11
18:09:11:46956,-49,-9,5,1,-2,14,2,-6
18:09:11:47790,-49,-9,5,1,-2,14,2,-6
18:09:11:48605,39,26,-16,-7,0,-2,-17,-10
18:09:11:60638,18,-8,0,2,5,13,15,35
18:09:11:68793,18,-8,0,2,5,13,15,35
18:09:11:69621,-2,-32,7,4,3,-8,-41,7
18:09:11:75606,-8,1,0,-1,-10,-1,-10,-6
18:09:11:91315,-8,1,0,-1,-10,-1,-10,-6
18:09:11:92127,-13,-39,-34,-22,-9,-3,11,3
18:09:11:98124,1,-70,6,-1,0,-9,-7,16
18:09:11:106302,1,-70,6,-1,0,-9,-7,16
18:09:11:107126,-12,2,1,6,8,13,28,17
18:09:11:120637,-11,-25,-22,-9,-6,-24,-62,-41
18:09:11:128820,-11,-25,-22,-9,-6,-24,-62,-41
18:09:11:129597,-15,3,19,4,-2,19,62,11
18:09:11:135586,-8,34,29,12,8,6,53,18
18:09:11:151288,-8,34,29,12,8,6,53,18
18:09:11:152114,-11,-4,12,-7,-4,-5,-17,-18
18:09:11:158139,1,48,-7,0,3,-5,1,-5
18:09:11:166295,1,48,-7,0,3,-5,1,-5
18:09:11:167117,29,7,6,0,2,12,-52,25
18:09:11:180614,-11,-43,-9,-3,-8,-16,9,-16
18:09:11:188815,-11,-43,-9,-3,-8,-16,9,-16
18:09:11:189613,14,48,13,0,-2,1,33,24
18:09:11:195647,-5,16,-36,-16,0,-2,-24,1
18:09:11:211296,-5,16,-36,-16,0,-2,-24,1
18:09:11:212115,4,-9,4,-11,-4,-19,-38,-24
18:09:11:218118,15,-11,-11,-10,-7,16,92,1
18:09:11:226280,15,-11,-11,-10,-7,16,92,1
18:09:11:227121,-11,-15,-5,4,1,3,0,0
18:09:11:240609,-35,8,3,-2,-5,8,-44,-11
18:09:11:248820,-35,8,3,-2,-5,8,-44,-11
18:09:11:249634,-6,-15,18,18,-1,-10,-31,-17
18:09:11:255620,5,-46,14,4,-1,-8,-19,19
18:09:11:271330,5,-46,14,4,-1,-8,-19,19
18:09:11:272161,-28,-17,19,0,-2,1,2,-3
18:09:11:278132,-1,49,-6,9,6,-9,-9,17
18:09:11:286299,-1,49,-6,9,6,-9,-9,17
18:09:11:287113,-3,-30,-11,-1,4,6,33,-8
18:09:11:300609,19,-5,-9,-7,-4,-3,-26,20
18:09:11:308826,19,-5,-9,-7,-4,-3,-26,20
18:09:11:309639,-9,39,1,2,5,1,54,-8
18:09:11:315623,-11,-9,13,-6,-1,-10,-2,6
18:09:11:331348,-11,-9,13,-6,-1,-10,-2,6
18:09:11:332096,13,-15,10,1,-3,8,-15,5
18:09:11:338155,21,-2,-8,-9,1,5,51,21
18:09:11:346315,21,-2,-8,-9,1,5,51,21
18:09:11:347121,-16,-12,30,1,-4,-13,-70,-11
18:09:11:360578,-3,29,21,3,-5,-6,-55,-12
18:09:11:368846,-3,29,21,3,-5,-6,-55,-12
18:09:11:369629,3,-5,-14,-7,-1,-1,-6,13
18:09:11:375622,-2,-50,-18,0,0,10,34,-29
18:09:11:391306,-2,-50,-18,0,0,10,34,-29
18:09:11:392162,-17,-5,-21,-1,-5,-17,-26,-27
18:09:11:398135,-3,-23,-28,-4,-5,-6,-30,-10
18:09:11:405653,-3,-23,-28,-4,-5,-6,-30,-10
18:09:11:413116,8,0,-32,-8,0,13,62,9
18:09:11:420621,-22,2,5,3,-3,-30,-43,3
18:09:11:428822,-22,2,5,3,-3,-30,-43,3
18:09:11:429640,15,13,-15,2,3,15,-19,7
18:09:11:443133,22,8,7,-2,-2,-20,-60,4
18:09:11:451351,22,8,7,-2,-2,-20,-60,4
18:09:11:452140,-40,-3,12,-4,-6,-2,77,-28
18:09:11:458128,0,-37,-29,-5,-1,14,0,-34
18:09:11:465625,0,-37,-29,-5,-1,14,0,-34
18:09:11:473142,-21,-8,12,0,-1,-6,7,0
18:09:11:480630,-16,44,-3,-1,-1,4,10,10
18:09:11:488777,-16,44,-3,-1,-1,4,10,10
18:09:11:489577,27,22,-20,-11,2,10,-10,35
18:09:11:503130,-21,65,36,13,3,12,5,-41
18:09:11:511295,-21,65,36,13,3,12,5,-41
18:09:11:512144,-9,-24,-32,-14,-6,-2,-14,-13
18:09:11:518136,36,30,45,5,1,7,45,15
18:09:11:525655,36,30,45,5,1,7,45,15
18:09:11:533165,-14,-8,31,5,-4,-12,0,-14
18:09:11:540668,13,33,3,-3,-4,-14,12,-22
18:09:11:548804,13,33,3,-3,-4,-14,12,-22
18:09:11:549609,-44,-35,-11,-2,-3,3,13,-1
18:09:11:563130,9,-10,-2,-8,1,19,41,7
18:09:11:571311,9,-10,-2,-8,1,19,41,7
18:09:11:572123,16,19,-1,6,1,-16,-4,17
18:09:11:578134,13,-18,-21,2,-2,-23,-21,18
18:09:11:585649,13,-18,-21,2,-2,-23,-21,18
18:09:11:593137,18,-30,-6,-4,-8,0,-29,-10
18:09:11:600594,32,17,-13,-4,4,12,30,-1
18:09:11:608805,32,17,-13,-4,4,12,30,-1
18:09:11:609635,-11,-6,2,-3,-4,-28,-24,19
18:09:11:623148,-20,-51,-11,0,-5,-3,60,-3
18:09:11:631340,-20,-51,-11,0,-5,-3,60,-3
18:09:11:632119,-15,43,6,9,1,0,-18,-32
18:09:11:638100,-5,-10,-61,-15,0,2,-7,9
18:09:11:645660,-5,-10,-61,-15,0,2,-7,9
18:09:11:653147,25,0,29,2,-8,-15,10,5
18:09:11:660588,-16,-5,9,4,1,-19,-60,0
18:09:11:668821,-16,-5,9,4,1,-19,-60,0
18:09:11:669614,29,8,-18,0,8,10,-14,-7
18:09:11:683131,-23,-16,5,-8,-4,3,4,24
18:09:11:691311,-23,-16,5,-8,-4,3,4,24
18:09:11:692099,-5,6,8,-2,6,0,-12,16
18:09:11:698127,-7,-36,20,8,6,29,17,-2
18:09:11:705682,-7,-36,20,8,6,29,17,-2
18:09:11:713156,25,-18,-2,6,4,20,38,-4
18:09:11:720617,12,85,-11,-4,0,-2,-15,2
18:09:11:728778,12,85,-11,-4,0,-2,-15,2
18:09:11:729570,17,-16,0,0,0,2,5,4
18:09:11:743141,10,-29,16,-2,-3,-6,9,-12
18:09:11:759491,10,-29,16,-2,-3,-6,9,-12
18:09:11:760281,-1,32,19,6,-2,7,22,-8
18:09:11:761117,-11,-15,-41,-15,-12,-17,-73,-11
18:09:11:765647,-11,-15,-41,-15,-12,-17,-73,-11
18:09:11:773119,-26,-27,1,-2,-2,7,-7,2
18:09:11:780606,-36,-7,15,13,9,3,28,-14
18:09:11:788825,-36,-7,15,13,9,3,28,-14
18:09:11:789616,38,79,-17,-7,-2,-2,-1,29
18:09:11:803138,-24,57,33,9,2,-6,25,-1
18:09:11:811322,-24,57,33,9,2,-6,25,-1
18:09:11:812108,-14,-54,-8,-6,-4,-7,6,6
18:09:11:818139,2,-40,10,-5,-6,-1,0,-8
18:09:11:825710,2,-40,10,-5,-6,-1,0,-8
18:09:11:833168,-4,-29,-17,-17,-6,0,-16,-13
18:09:11:840619,24,-2,-7,5,0,-4,-8,22
18:09:11:848812,24,-2,-7,5,0,-4,-8,22
18:09:11:849595,2,24,21,2,-2,-2,-9,16
18:09:11:863130,-14,-55,-19,-11,0,9,56,22
18:09:11:871294,-14,-55,-19,-11,0,9,56,22
18:09:11:872118,-13,-15,2,4,-9,-28,-39,-27
18:09:11:878130,35,-58,-17,-4,-8,-1,-19,18
18:09:11:885628,35,-58,-17,-4,-8,-1,-19,18
18:09:11:893137,-24,-15,5,-1,4,5,-34,-15
18:09:11:900624,1,15,-8,1,6,16,-8,-23
18:09:11:908817,1,15,-8,1,6,16,-8,-23
18:09:11:909601,23,38,15,4,1,-4,-19,3
18:09:11:923127,-3,19,0,4,-5,-15,-1,-15
18:09:11:931296,-3,19,0,4,-5,-15,-1,-15
18:09:11:932141,21,-23,-21,-3,1,-16,-74,-3
18:09:11:938166,29,-31,0,1,-3,2,-14,1
18:09:11:953860,29,-31,0,1,-3,2,-14,1
18:09:11:954653,22,-16,-52,-7,2,14,71,10
18:09:11:960601,-16,28,16,3,0,10,62,-21
18:09:11:968796,-16,28,16,3,0,10,62,-21
18:09:11:969623,-31,8,1,2,-3,2,9,-17
18:09:11:983128,25,63,8,1,-2,-3,16,25
18:09:11:991291,25,63,8,1,-2,-3,16,25
18:09:11:992148,1,37,2,-1,0,11,61,5
18:09:11:998142,-54,-44,11,-7,-6,-1,-18,8
18:09:12:5686,-54,-44,11,-7,-6,-1,-18,8
18:09:12:13165,-20,-61,11,-3,-2,-1,5,-5
18:09:12:20650,-8,-15,-3,-4,0,-8,-6,-3
18:09:12:28585,-8,-15,-3,-4,0,-8,-6,-3
18:09:12:35619,11,-5,10,7,6,10,67,0
18:09:12:43162,-38,-16,18,3,1,-5,-15,-38
18:09:12:51322,-38,-16,18,3,1,-5,-15,-38
18:09:12:52126,-25,56,-9,-5,-7,-1,26,4
18:09:12:58150,-14,19,4,0,2,1,-15,-26
18:09:12:65668,-14,19,4,0,2,1,-15,-26
18:09:12:73135,19,7,-6,0,-5,-10,-2,-18
18:09:12:80623,6,-16,-14,-5,-5,7,17,6
18:09:12:88863,6,-16,-14,-5,-5,7,17,6
18:09:12:89637,-6,-3,41,8,4,15,-4,4
18:09:12:103141,22,-26,3,-1,-9,-21,-17,-1
18:09:12:111339,22,-26,3,-1,-9,-21,-17,-1
18:09:12:112120,-4,-92,3,1,-3,-1,-3,10
18:09:12:118135,13,8,-20,1,9,7,-11,0
18:09:12:125709,13,8,-20,1,9,7,-11,0
18:09:12:133167,51,12,-12,-3,3,-5,-36,-2
18:09:12:140598,3,31,4,-1,5,-8,-4,24
18:09:12:148795,3,31,4,-1,5,-8,-4,24
18:09:12:149585,-17,7,-24,-2,0,2,-13,-4
18:09:12:163187,-15,6,12,1,-1,0,26,4
18:09:12:171296,-15,6,12,1,-1,0,26,4
18:09:12:172139,-17,-32,-21,-5,-4,6,37,3
18:09:12:178145,15,-7,-4,1,-6,-17,-40,21
18:09:12:185659,15,-7,-4,1,-6,-17,-40,21
18:09:12:193126,6,22,7,-7,0,-3,-30,1
18:09:12:200613,-31,79,0,2,11,21,-7,12
18:09:12:208837,-31,79,0,2,11,21,-7,12
18:09:12:209622,-10,42,24,2,2,2,9,13
18:09:12:231986,14,-3,-3,-4,-10,-11,-47,-32
18:09:12:232827,14,-3,-3,-4,-10,-11,-47,-32
18:09:12:233618,-8,8,6,-4,-3,-3,26,12
18:09:12:238145,5,-29,-27,-13,-1,1,35,11
18:09:12:245752,5,-29,-27,-13,-1,1,35,11
18:09:12:253134,1,-29,3,4,-3,2,-9,-30
18:09:12:260650,17,-8,4,2,-2,8,19,-13
18:09:12:268781,17,-8,4,2,-2,8,19,-13
18:09:12:269600,-15,-12,12,-3,-6,-11,-30,-17
18:09:12:283151,-35,-16,-28,-1,-2,2,-33,-36
18:09:12:291310,-35,-16,-28,-1,-2,2,-33,-36
18:09:12:292137,-1,54,3,4,3,6,29,22
18:09:12:298140,30,8,-7,6,2,9,18,16
18:09:12:313843,30,8,-7,6,2,9,18,16
18:09:12:314628,1,35,1,-1,1,1,-31,2
18:09:12:320613,3,-29,-7,3,2,4,35,9
18:09:12:328810,3,-29,-7,3,2,4,35,9
18:09:12:329571,15,30,-9,-6,-3,-5,12,-22
18:09:12:343131,-7,6,3,-7,-10,-7,-9,2
18:09:12:351327,-7,6,3,-7,-10,-7,-9,2
18:09:12:352134,-3,-14,7,-2,-4,-17,-48,-18
18:09:12:366327,37,-42,-5,-3,2,0,-49,-23
18:09:12:367138,37,-42,-5,-3,2,0,-49,-23
18:09:12:373132,-50,-6,-8,-7,-6,-1,15,-19
18:09:12:380587,-2,-15,27,0,-1,14,48,-7
18:09:12:388177,-2,-15,27,0,-1,14,48,-7
18:09:12:395636,4,-24,-2,5,-2,5,-2,11
18:09:12:403160,-2,19,35,9,1,-10,-52,3
18:09:12:411313,-2,19,35,9,1,-10,-52,3
18:09:12:412149,8,-3,-38,8,-3,-4,4,18
18:09:12:426326,-18,31,5,4,7,8,7,2
18:09:12:427146,-18,31,5,4,7,8,7,2
18:09:12:433126,16,78,8,6,13,12,19,8
18:09:12:440582,31,19,-21,-4,-1,-11,5,14
18:09:12:448120,31,19,-21,-4,-1,-11,5,14
18:09:12:455611,-16,-49,24,11,-2,-3,-6,2
18:09:12:463168,4,26,-12,-6,-3,-2,-4,-9
18:09:12:471326,4,26,-12,-6,-3,-2,-4,-9
18:09:12:472139,25,14,15,-6,-4,-3,-13,10
18:09:12:486304,-6,-33,-16,-3,3,3,24,5
18:09:12:487171,-6,-33,-16,-3,3,3,24,5
18:09:12:493111,-43,28,4,-7,-2,-3,7,-10
18:09:12:500618,-10,-74,35,9,2,4,7,1
18:09:12:508140,-10,-74,35,9,2,4,7,1
18:09:12:515577,-18,-9,6,-5,-5,-16,-23,-3
18:09:12:523072,-10,-44,11,-3,-4,-9,-19,2
18:09:12:531318,-10,-44,11,-3,-4,-9,-19,2
18:09:12:532139,-30,-25,-55,-16,-5,3,15,10
18:09:12:546313,2,4,-24,-15,-5,-7,-13,-7
18:09:12:547154,2,4,-24,-15,-5,-7,-13,-7
18:09:12:553133,27,88,4,6,14,5,19,8
18:09:12:560605,-13,24,16,0,-6,-2,-7,-22
18:09:12:568150,-13,24,16,0,-6,-2,-7,-22
18:09:12:575611,21,-58,7,6,-2,4,47,-7
18:09:12:591962,11,42,13,-2,-9,-26,-51,15
18:09:12:592780,11,42,13,-2,-9,-26,-51,15
18:09:12:593594,-23,-40,-12,-7,2,10,7,22
18:09:12:606295,6,-18,-6,4,5,8,1,16
18:09:12:607126,6,-18,-6,4,5,8,1,16
18:09:12:613153,13,-30,-2,0,7,5,-9,12
18:09:12:620648,-11,19,6,-5,-2,10,7,19
18:09:12:628196,-11,19,6,-5,-2,10,7,19
18:09:12:635591,3,25,-14,3,3,3,-7,-19
18:09:12:643069,-20,-23,-36,-12,-7,-7,20,-8
18:09:12:651327,-20,-23,-36,-12,-7,-7,20,-8
18:09:12:652154,15,25,25,8,2,26,-16,-16
18:09:12:666288,-30,12,-35,-2,-2,14,76,22
18:09:12:667157,-30,12,-35,-2,-2,14,76,22
18:09:12:673153,17,-38,4,1,-6,-10,6,-27
18:09:12:680579,1,9,-56,-20,-1,4,19,3
18:09:12:688163,1,9,-56,-20,-1,4,19,3
18:09:12:695616,-26,7,5,0,0,3,-31,-28
18:09:12:703155,0,9,26,4,2,-1,-9,0
18:09:12:711301,0,9,26,4,2,-1,-9,0
18:09:12:712138,0,1,16,-10,-12,-27,-59,14
18:09:12:726313,-8,-1,-14,1,-3,-9,8,-15
18:09:12:727149,-8,-1,-14,1,-3,-9,8,-15
18:09:12:733163,-26,-5,-4,10,3,-7,1,-38
18:09:12:740600,7,-24,-21,-12,-10,-8,-27,2
18:09:12:748150,7,-24,-21,-12,-10,-8,-27,2
18:09:12:755654,43,-25,1,-5,0,23,43,24
18:09:12:763141,19,-6,19,13,0,11,33,4
18:09:12:771354,19,-6,19,13,0,11,33,4
18:09:12:772151,-8,-13,17,-2,-9,-6,16,-7
18:09:12:786346,-8,-1,31,5,5,-7,-10,-9
18:09:12:787141,-8,-1,31,5,5,-7,-10,-9
18:09:12:793156,16,-9,1,-6,-6,-1,-24,-10
18:09:12:800612,6,-1,7,0,-4,-45,-73,-1
18:09:12:808182,6,-1,7,0,-4,-45,-73,-1
18:09:12:815605,-7,-30,-7,-2,1,-10,-45,20
18:09:12:823164,-9,-9,17,5,-3,8,-11,-6
18:09:12:831332,-9,-9,17,5,-3,8,-11,-6
18:09:12:832146,8,0,-16,-17,-12,-14,8,8
18:09:12:846286,-7,29,-77,-9,0,5,10,-3
18:09:12:847138,-7,29,-77,-9,0,5,10,-3
18:09:12:853178,-9,-38,-1,-3,-9,-5,0,-5
18:09:12:868840,-4,-3,12,4,9,6,-22,-29
18:09:12:869647,-4,-3,12,4,9,6,-22,-29
18:09:12:875600,-23,28,-26,-4,-1,-1,19,13
18:09:12:883145,13,9,23,8,1,8,74,12
18:09:12:891332,13,9,23,8,1,8,74,12
18:09:12:892137,-1,-14,16,6,-5,-20,-4,-9
18:09:12:906346,5,41,14,3,-1,8,9,1
18:09:12:907145,5,41,14,3,-1,8,9,1
18:09:12:913133,-8,34,-46,-11,6,8,-8,6
18:09:12:920626,1,-29,19,1,-8,-10,-33,-13
18:09:12:928184,1,-29,19,1,-8,-10,-33,-13
18:09:12:935602,23,13,24,8,9,6,2,10
18:09:12:943155,12,40,4,-7,1,2,58,-9
18:09:12:951302,12,40,4,-7,1,2,58,-9
18:09:12:952142,17,31,-3,-1,-3,-28,23,25
18:09:12:966270,-23,-33,2,3,-11,4,5,-5
18:09:12:967156,-23,-33,2,3,-11,4,5,-5
18:09:12:973151,-1,-41,-5,-10,0,7,48,-10
18:09:12:988516,13,3,2,12,2,-15,-80,6
18:09:12:996334,13,3,2,12,2,-15,-80,6
18:09:12:997151,35,3,-47,-11,-3,0,-4,11
18:09:13:3130,-9,-3,18,-1,4,8,-24,-4
18:09:13:11294,-9,-3,18,-1,4,8,-24,-4
18:09:13:12161,3,-25,17,4,4,6,7,-3
18:09:13:26288,-36,-13,0,-8,-9,-15,3,-16
18:09:13:27159,-36,-13,0,-8,-9,-15,3,-16
18:09:13:33131,-21,-6,31,16,2,1,-42,-9
18:09:13:40625,24,26,38,6,-1,2,16,28
18:09:13:48161,24,26,38,6,-1,2,16,28
18:09:13:55617,16,8,33,9,-8,1,-19,-5
18:09:13:63172,17,-10,-15,-5,0,-2,16,3
18:09:13:71317,17,-10,-15,-5,0,-2,16,3
18:09:13:72148,-10,-17,0,-3,-12,-5,-17,-14
18:09:13:86258,-7,-51,-15,-3,0,-9,-5,-3
18:09:13:87160,-7,-51,-15,-3,0,-9,-5,-3
18:09:13:93135,-9,-25,-11,-11,-3,-12,2,11
18:09:13:100626,-8,-11,0,-4,-5,5,22,-5
18:09:13:108162,-8,-11,0,-4,-5,5,22,-5
18:09:13:115622,-4,-12,22,9,0,4,-29,-26
18:09:13:123139,18,35,25,6,2,-4,-14,2
18:09:13:131306,18,35,25,6,2,-4,-14,2
18:09:13:132113,0,20,-15,-7,-5,-3,8,-2
18:09:13:146765,-6,-20,-8,-4,-7,-48,-63,-5
18:09:13:147588,-6,-20,-8,-4,-7,-48,-63,-5
18:09:13:153131,-26,64,-1,1,7,2,1,1
18:09:13:160553,-20,-35,1,-9,-6,12,17,-8
18:09:13:168180,-20,-35,1,-9,-6,12,17,-8
18:09:13:175595,10,-2,-15,-14,1,-5,0,-16
18:09:13:183136,-22,15,12,1,7,15,31,4
18:09:13:191305,-22,15,12,1,7,15,31,4
18:09:13:192133,-7,17,-18,4,5,4,-22,-2
18:09:13:206082,23,9,8,5,0,-4,-42,35
18:09:13:213824,23,9,8,5,0,-4,-42,35
18:09:13:214599,0,-12,8,4,2,3,33,27
18:09:13:220624,28,12,-18,-2,2,24,37,-24
18:09:13:228198,28,12,-18,-2,2,24,37,-24
18:09:13:235623,-15,75,-16,-1,0,5,29,-8
18:09:13:243166,-28,-22,-10,-2,0,9,-15,-39
18:09:13:251308,-28,-22,-10,-2,0,9,-15,-39
18:09:13:252138,2,-23,1,-1,-7,-39,-68,-8
18:09:13:266344,-1,15,5,4,3,1,-2,12
18:09:13:267126,-1,15,5,4,3,1,-2,12
18:09:13:273147,6,-48,-10,-10,-7,0,-15,-51
18:09:13:280601,-55,91,-9,-4,-6,-19,-49,-3
18:09:13:288178,-55,91,-9,-4,-6,-19,-49,-3
18:09:13:295645,38,-60,-12,-5,0,-22,24,28
18:09:13:303153,-12,-56,-25,-7,-6,3,12,14
18:09:13:310624,-12,-56,-25,-7,-6,3,12,14
18:09:13:318150,-31,12,-6,5,-6,-20,-86,4
18:09:13:326309,10,-13,12,-3,-8,-4,-17,-17
18:09:13:327173,10,-13,12,-3,-8,-4,-17,-17
18:09:13:333080,-4,-40,-7,2,8,12,4,-17
18:09:13:357022,50,60,5,-2,3,-6,28,30
18:09:13:357771,50,60,5,-2,3,-6,28,30
18:09:13:358621,-1,-39,16,2,-2,14,51,-3
18:09:13:363165,33,-38,4,0,-1,14,17,-30
18:09:13:370638,33,-38,4,0,-1,14,17,-30
18:09:13:378171,-9,10,23,1,6,10,23,20
18:09:13:386284,27,13,5,-4,6,-11,-34,21
18:09:13:387160,27,13,5,-4,6,-11,-34,21
18:09:13:393068,-46,76,-2,-2,-7,10,11,-17
18:09:13:408804,31,-32,13,5,1,0,37,-17
18:09:13:409580,31,-32,13,5,1,0,37,-17
18:09:13:415629,4,68,32,7,-3,-13,-67,13
18:09:13:423146,-16,7,8,-5,-3,12,30,-9
18:09:13:430688,-16,7,8,-5,-3,12,30,-9
18:09:13:438075,10,4,-42,-10,-12,6,40,21
18:09:13:446325,-16,4,-13,3,7,4,-7,5
18:09:13:447158,-16,4,-13,3,7,4,-7,5
18:09:13:453085,11,39,27,5,6,9,8,6
18:09:13:468796,22,-70,-6,-6,-1,8,3,-8
18:09:13:469587,22,-70,-6,-6,-1,8,3,-8
18:09:13:475598,-24,14,23,12,-3,-2,39,-12
18:09:13:483089,1,-50,-83,-19,-13,-1,15,9
18:09:13:490694,1,-50,-83,-19,-13,-1,15,9
18:09:13:498160,12,-54,-27,-5,0,5,-31,-14
18:09:13:506304,-24,72,40,10,-3,-49,-114,24
18:09:13:507170,-24,72,40,10,-3,-49,-114,24
18:09:13:513149,4,-42,-13,-8,-4,10,23,18
18:09:13:528806,-18,2,31,-1,1,13,-10,-3
18:09:13:529610,-18,2,31,-1,1,13,-10,-3
18:09:13:535628,16,-53,9,-3,-5,-12,-11,-8
18:09:13:543187,0,6,-13,1,0,-3,14,-2
18:09:13:550676,0,6,-13,1,0,-3,14,-2
18:09:13:558144,-41,-36,26,2,1,10,33,-11
18:09:13:566358,4,10,-9,-14,-6,-17,-61,-31
18:09:13:567163,4,10,-9,-14,-6,-17,-61,-31
18:09:13:573144,10,26,10,5,3,10,14,6
18:09:13:588555,5,33,-1,5,4,15,66,33
18:09:13:596361,5,33,-1,5,4,15,66,33
18:09:13:597137,-26,10,-4,-13,-5,-18,-25,-27
18:09:13:603168,21,-55,-32,2,4,31,31,5
18:09:13:610683,21,-55,-32,2,4,31,31,5
18:09:13:618168,20,24,15,9,-2,-1,-28,28
18:09:13:626248,9,2,2,-5,4,15,30,15
18:09:13:627135,9,2,2,-5,4,15,30,15
18:09:13:633147,-10,-19,11,2,6,-4,-27,15
18:09:13:648857,-18,11,-11,3,5,23,8,18
18:09:13:649661,-18,11,-11,3,5,23,8,18
18:09:13:655604,-14,-42,-34,-8,-2,2,14,-11
18:09:13:663168,-1,1,8,11,11,20,-21,-4
18:09:13:670641,-1,1,8,11,11,20,-21,-4
18:09:13:678146,-10,-6,-22,-22,-6,-3,-19,-9
18:09:13:686270,-6,0,-23,-10,-4,-2,90,-8
18:09:13:687150,-6,0,-23,-10,-4,-2,90,-8
18:09:13:693062,41,11,36,16,8,-12,14,43
18:09:13:708824,1,-30,15,-1,-12,-3,-1,-4
18:09:13:709610,1,-30,15,-1,-12,-3,-1,-4
18:09:13:715596,21,57,-17,5,1,11,75,24
18:09:13:723151,-5,54,17,3,5,-1,2,-3
18:09:13:730643,-5,54,17,3,5,-1,2,-3
18:09:13:738071,37,-9,11,-1,-7,0,-46,-13
18:09:13:746316,-10,-3,7,1,-6,-17,-30,-21
18:09:13:747150,-10,-3,7,1,-6,-17,-30,-21
18:09:13:753091,-8,20,-14,0,7,14,-17,-22
18:09:13:768772,-64,-45,2,-2,-4,-11,5,-17
18:09:13:769618,-64,-45,2,-2,-4,-11,5,-17
18:09:13:783786,5,-22,12,2,2,5,26,21
18:09:13:784593,34,-10,9,-2,-9,-5,-17,11
18:09:13:790622,34,-10,9,-2,-9,-5,-17,11
18:09:13:798084,-9,64,5,2,8,38,95,5
18:09:13:806328,24,9,3,5,-4,-19,-7,-25
18:09:13:807146,24,9,3,5,-4,-19,-7,-25
18:09:13:813103,-13,-44,32,4,-5,-7,8,4
18:09:13:828774,-2,25,10,-14,0,9,-39,0
18:09:13:829594,-2,25,10,-14,0,9,-39,0
18:09:13:835587,-1,-22,4,6,-4,-16,11,4
18:09:13:843135,9,-24,-15,5,3,13,9,12
18:09:13:850642,9,-24,-15,5,3,13,9,12
18:09:13:858086,3,2,-47,-13,2,35,41,-10
18:09:13:866299,-1,-38,-30,-17,-10,-2,-15,-41
18:09:13:867148,-1,-38,-30,-17,-10,-2,-15,-41
18:09:13:873151,5,51,-52,-3,0,-20,12,3
18:09:13:888798,-5,14,18,8,-2,-17,21,12
18:09:13:889596,-5,14,18,8,-2,-17,21,12
18:09:13:895585,-40,-4,-11,-1,4,10,-25,-51
18:09:13:903077,-53,-21,8,3,-4,-15,-83,-38
18:09:13:910670,-53,-21,8,3,-4,-15,-83,-38
18:09:13:918164,33,-32,-36,-14,-10,-37,-62,18
18:09:13:926310,28,-30,-8,0,2,29,86,18
18:09:13:927150,28,-30,-8,0,2,29,86,18
18:09:13:933173,-10,-23,15,-4,-8,-25,-59,0
18:09:13:948809,18,26,8,1,-8,-17,-3,15
18:09:13:949621,18,26,8,1,-8,-17,-3,15
18:09:13:955622,-23,-11,5,1,-3,-10,-10,-13
18:09:13:963178,12,23,19,1,9,-7,42,11
18:09:13:970688,12,23,19,1,9,-7,42,11
18:09:13:978166,-11,-7,12,-20,-8,-9,-24,-34
18:09:13:986279,-34,47,21,13,4,-7,-47,5
18:09:13:987158,-34,47,21,13,4,-7,-47,5
18:09:13:993155,-2,-17,17,7,3,11,28,21
18:09:14:8837,3,-28,-15,4,-4,-3,-69,-2
18:09:14:9689,3,-28,-15,4,-4,-3,-69,-2
18:09:14:15630,8,0,-46,-21,0,17,39,26
18:09:14:23168,-16,-9,8,-9,-18,-18,-69,-16
18:09:14:30688,-16,-9,8,-9,-18,-18,-69,-16
18:09:14:38160,-5,0,18,11,0,-23,34,-5
18:09:14:46270,-2,57,-18,-6,1,-9,53,-37
18:09:14:47143,-2,57,-18,-6,1,-9,53,-37
18:09:14:60603,-6,-6,12,6,-5,-22,-46,-46
18:09:14:68794,2,18,-1,4,9,12,30,30
18:09:14:69618,2,18,-1,4,9,12,30,30
18:09:14:75646,-7,-4,-7,6,-2,4,-3,-1
18:09:14:83158,18,-21,-19,-6,5,22,99,9
18:09:14:90634,18,-21,-19,-6,5,22,99,9
18:09:14:98076,11,-5,16,9,0,6,2,-17
18:09:14:106299,11,8,9,4,2,-16,-4,14
18:09:14:107154,11,8,9,4,2,-16,-4,14
18:09:14:113088,-16,65,25,-3,0,3,-26,-7
18:09:14:128787,23,34,1,4,4,6,10,19
18:09:14:129581,23,34,1,4,4,6,10,19
18:09:14:135615,-22,-4,8,2,-3,-5,-22,-5
18:09:14:151279,-3,8,-18,-14,-12,-10,-40,9
18:09:14:152143,-3,8,-18,-14,-12,-10,-40,9
18:09:14:158139,13,-25,-68,-12,-5,-9,19,28
18:09:14:166013,-3,-60,-29,3,2,-1,25,0
18:09:14:173798,-3,-60,-29,3,2,-1,25,0
18:09:14:174611,-13,-61,10,-1,3,24,24,-5
18:09:14:188773,1,-61,10,1,-3,-6,-16,8
18:09:14:189590,1,-61,10,1,-3,-6,-16,8
18:09:14:195636,-29,-69,17,4,-18,-30,-41,2
18:09:14:203160,-7,4,2,-3,5,7,18,17
18:09:14:218839,-7,4,2,-3,5,7,18,17
18:09:14:219643,25,-23,-33,-18,0,7,-23,12
18:09:14:226293,-10,10,15,2,-7,-20,-99,5
18:09:14:227160,-10,10,15,2,-7,-20,-99,5
18:09:14:233205,-6,73,26,13,10,17,-20,-4
18:09:14:248785,-34,-10,21,-7,-3,9,26,-4
18:09:14:249586,-34,-10,21,-7,-3,9,26,-4
18:09:14:255682,13,39,30,-3,4,0,-1,6
18:09:14:271312,2,16,13,7,-6,-17,-40,-34
18:09:14:272158,2,16,13,7,-6,-17,-40,-34
18:09:14:278212,5,1,-13,0,-7,-46,-85,-4
18:09:14:286289,9,-58,-15,-8,-3,5,54,-14
18:09:14:287161,9,-58,-15,-8,-3,5,54,-14
18:09:14:300621,43,7,2,4,9,37,38,19
18:09:14:308829,-3,24,-11,-8,-5,-18,-33,-7
18:09:14:309668,-3,24,-11,-8,-5,-18,-33,-7
18:09:14:315623,48,-61,-12,6,1,3,20,12
18:09:14:331342,9,26,19,8,2,-29,-75,-20
18:09:14:332180,9,26,19,8,2,-29,-75,-20
18:09:14:338160,3,7,9,8,4,28,75,-1
18:09:14:346314,7,19,-30,-2,10,31,56,18
18:09:14:347141,7,19,-30,-2,10,31,56,18
18:09:14:360627,-17,0,16,-5,-8,-15,-23,-17
18:09:14:368807,-30,-51,21,2,-7,-18,-82,35
18:09:14:369634,-30,-51,21,2,-7,-18,-82,35
18:09:14:375582,0,-16,-48,-7,0,16,46,-1
18:09:14:391333,0,-16,-48,-7,0,16,46,-1
18:09:14:392146,-21,-10,12,-4,-7,10,52,-19
18:09:14:398176,9,-52,-14,-7,-5,-14,-60,18
18:09:14:405679,9,-52,-14,-7,-5,-14,-60,18
18:09:14:413152,-20,-22,-53,-20,-5,-6,-1,-13
18:09:14:420619,11,36,37,6,-7,-31,-30,0
18:09:14:428858,11,36,37,6,-7,-31,-30,0
18:09:14:429657,4,31,2,9,11,18,40,-4
18:09:14:435590,-12,31,8,6,12,9,4,-17
18:09:14:451350,-12,31,8,6,12,9,4,-17
18:09:14:452159,9,46,-11,-11,-10,1,-7,-38
18:09:14:458160,-9,-3,-29,-5,0,4,24,13
18:09:14:466276,-9,-3,-29,-5,0,4,24,13
18:09:14:467144,-8,92,7,9,7,8,35,30
18:09:14:480610,5,-22,-1,-7,-10,-8,18,12
18:09:14:488823,5,-22,-1,-7,-10,-8,18,12
18:09:14:489651,24,8,-35,-2,1,-3,-11,-50
18:09:14:495618,-2,-2,26,16,5,6,16,20
18:09:14:511381,-2,-2,26,16,5,6,16,20
18:09:14:512160,6,-5,37,14,2,3,-12,12
18:09:14:518164,-40,-54,-21,-16,-3,1,8,-25
18:09:14:526091,-40,-54,-21,-16,-3,1,8,-25
18:09:14:533165,-59,-61,46,5,-4,-31,-62,-4
18:09:14:540607,8,37,23,2,-11,4,20,28
18:09:14:548805,8,37,23,2,-11,4,20,28
18:09:14:549597,21,-16,-30,-17,1,23,46,-11
18:09:14:555637,-17,100,3,-4,1,-7,-11,-14
18:09:14:571311,-17,100,3,-4,1,-7,-11,-14
18:09:14:572125,14,-15,1,-2,-5,16,12,-11
18:09:14:578161,-33,-25,0,0,-3,0,-30,-25
18:09:14:586283,-33,-25,0,0,-3,0,-30,-25
18:09:14:587154,21,-50,9,2,-3,-2,-43,37
18:09:14:600627,10,-35,-8,0,-5,-13,-26,-11
18:09:14:608836,10,-35,-8,0,-5,-13,-26,-11
18:09:14:609657,6,1,-15,1,2,-6,23,18
18:09:14:615636,-21,-50,-30,-8,-8,-18,-22,-14
18:09:14:631337,-21,-50,-30,-8,-8,-18,-22,-14
18:09:14:632163,18,-7,12,-8,-6,-47,-61,20
18:09:14:638165,-17,32,-9,-17,-2,3,19,-18
18:09:14:646310,-17,32,-9,-17,-2,3,19,-18
18:09:14:647134,0,1,2,9,2,5,8,25
18:09:14:660619,31,36,-22,-4,3,-8,-30,25
18:09:14:668846,31,36,-22,-4,3,-8,-30,25
18:09:14:669619,-3,-19,5,-8,-2,6,90,-13
18:09:14:675625,-33,95,19,13,3,0,36,-15
18:09:14:691378,-33,95,19,13,3,0,36,-15
18:09:14:692131,-8,4,-11,9,1,8,-10,-11
18:09:14:698197,15,-47,-35,-4,6,25,35,8
18:09:14:705736,15,-47,-35,-4,6,25,35,8
18:09:14:713170,-13,24,12,0,-6,4,58,-3
18:09:14:720621,36,-42,26,14,1,-15,-85,0
18:09:14:728794,36,-42,26,14,1,-15,-85,0
18:09:14:729559,21,9,-1,4,3,10,-1,12
18:09:14:735627,11,51,18,-4,-5,5,61,13
18:09:14:751354,11,51,18,-4,-5,5,61,13
18:09:14:752152,-5,-65,-57,-31,-8,-4,6,-11
18:09:14:758195,24,-13,27,-2,0,3,9,0
18:09:14:767000,24,-13,27,-2,0,3,9,0
18:09:14:767802,-12,3,-21,-12,-7,-18,-19,0
18:09:14:780641,-39,-82,12,-1,-4,-4,6,-10
18:09:14:788875,-39,-82,12,-1,-4,-4,6,-10
18:09:14:789645,-3,-16,16,2,-5,-3,-14,-22
18:09:14:795660,3,-11,5,7,3,7,10,-4
18:09:14:811353,3,-11,5,7,3,7,10,-4
18:09:14:812178,3,-9,15,-4,-4,3,-28,1
18:09:14:818174,43,-61,4,7,-2,-2,5,-11
18:09:14:826340,43,-61,4,7,-2,-2,5,-11
18:09:14:827152,0,31,30,4,-2,-1,7,3
18:09:14:840593,-23,-3,-26,-11,-3,2,14,6
18:09:14:848845,-23,-3,-26,-11,-3,2,14,6
18:09:14:849640,-32,76,15,10,5,-8,-29,10
18:09:14:855639,11,53,3,-2,-1,7,52,2
18:09:14:871300,11,53,3,-2,-1,7,52,2
18:09:14:872140,38,67,3,10,4,37,44,2
18:09:14:878084,27,31,-43,-10,5,-6,-38,-6
18:09:14:886346,27,31,-43,-10,5,-6,-38,-6
18:09:14:887148,-4,-21,7,-4,5,0,-2,13
18:09:14:900598,-19,-1,46,7,-4,-3,-8,-35
18:09:14:908845,-19,-1,46,7,-4,-3,-8,-35
18:09:14:909613,-8,-47,6,5,-10,-29,-20,-15
18:09:14:915605,-22,-1,-8,-4,1,22,54,8
18:09:14:931327,-22,-1,-8,-4,1,22,54,8
18:09:14:932154,-6,-32,-8,-1,0,10,32,13
18:09:14:938076,13,12,4,-5,-8,0,12,-8
18:09:14:946352,13,12,4,-5,-8,0,12,-8
18:09:14:947162,20,-54,14,-7,-4,-11,18,-19
18:09:14:960588,23,-7,-45,-10,2,-10,-38,7
18:09:14:968816,23,-7,-45,-10,2,-10,-38,7
18:09:14:969633,-52,10,4,2,-8,-18,-66,-9
18:09:14:975603,-5,66,10,2,5,6,-19,44
18:09:14:991301,-5,66,10,2,5,6,-19,44
18:09:14:992143,14,-19,-5,9,1,4,15,-8
18:09:14:998118,3,20,3,2,-5,-10,-6,-23
18:09:15:6350,3,20,3,2,-5,-10,-6,-23
18:09:15:7178,21,7,-5,-12,0,11,5,28
18:09:15:20576,3,-30,-1,8,5,-9,-50,-3
18:09:15:28807,3,-30,-1,8,5,-9,-50,-3
18:09:15:29597,-2,31,17,10,5,2,-15,12
18:09:15:35620,13,-47,-38,-9,-7,-17,-70,9
18:09:15:51328,13,-47,-38,-9,-7,-17,-70,9
18:09:15:52153,-44,20,-6,2,4,-22,-31,-18
18:09:15:58113,-3,31,32,4,3,-1,30,-6
18:09:15:66335,-3,31,32,4,3,-1,30,-6
18:09:15:67140,-23,55,-2,-9,5,3,-8,5
18:09:15:80633,-17,-37,5,-6,-1,14,2,-8
18:09:15:88824,-17,-37,5,-6,-1,14,2,-8
18:09:15:89612,9,-23,9,1,-8,-11,-21,7
18:09:15:95604,4,-22,7,3,3,7,-6,28
18:09:15:111329,4,-22,7,3,3,7,-6,28
18:09:15:112163,21,10,-15,-3,4,18,49,11
18:09:15:118155,-13,20,29,-5,-7,-6,28,1
18:09:15:126319,-13,20,29,-5,-7,-6,28,1
18:09:15:127165,-56,7,13,7,3,4,20,-5
18:09:15:149471,-21,0,36,6,6,5,3,-6
18:09:15:150287,-21,0,36,6,6,5,3,-6
18:09:15:151158,-26,33,-39,-10,-5,-5,-2,-13
18:09:15:155672,-55,32,-26,-11,-3,-10,-49,-27
18:09:15:179470,-55,32,-26,-11,-3,-10,-49,-27
18:09:15:180263,42,-42,4,2,-4,-2,-13,29
18:09:15:181157,-33,13,-20,5,7,26,67,13
18:09:15:185672,-33,13,-20,5,7,26,67,13
18:09:15:193111,-30,-24,52,12,2,12,15,-30
18:09:15:200596,12,-11,43,1,-1,-9,6,10
18:09:15:208838,12,-11,43,1,-1,-9,6,10
18:09:15:209639,21,-23,-1,8,1,15,89,5
18:09:15:223125,-28,-8,-11,3,-8,-30,-30,-6
18:09:15:231331,-28,-8,-11,3,-8,-30,-30,-6
18:09:15:232170,9,115,17,2,6,-11,4,7
18:09:15:238095,19,-25,-20,-15,2,1,22,-10
18:09:15:245701,19,-25,-20,-15,2,1,22,-10
18:09:15:253104,20,-38,-34,-9,-2,4,-22,-2
18:09:15:260589,59,-69,-6,-1,-15,-70,-109,-28
18:09:15:268847,59,-69,-6,-1,-15,-70,-109,-28
18:09:15:269638,24,-22,11,-20,-7,10,1,-4
18:09:15:283104,-1,-44,-11,-1,-5,16,33,26
18:09:15:291329,-1,-44,-11,-1,-5,16,33,26
18:09:15:292173,1,16,-1,5,-1,-6,10,-10
18:09:15:298090,-11,8,-36,-11,9,18,19,-3
18:09:15:305666,-11,8,-36,-11,9,18,19,-3
18:09:15:313177,-4,-76,-41,-3,4,16,-2,-15
18:09:15:320621,9,-31,28,7,-10,-11,-30,-11
18:09:15:328805,9,-31,28,7,-10,-11,-30,-11
18:09:15:329598,-6,6,9,-1,-6,-15,-60,-7
18:09:15:343169,-32,127,1,4,0,11,-15,-7
18:09:15:351335,-32,127,1,4,0,11,-15,-7
18:09:15:352155,-5,38,-51,-16,-8,-18,1,14
18:09:15:358167,16,29,-8,2,7,16,16,-1
18:09:15:365665,16,29,-8,2,7,16,16,-1
18:09:15:373171,-33,-31,-37,-2,-1,13,46,-4
18:09:15:380647,20,10,31,5,6,12,51,-5
18:09:15:388803,20,10,31,5,6,12,51,-5
18:09:15:389618,21,-44,18,2,5,13,18,2
18:09:15:403172,6,-20,1,-7,-12,-20,-74,7
18:09:15:411290,6,-20,1,-7,-12,-20,-74,7
18:09:15:412142,-13,61,29,-1,-1,-22,-13,6
18:09:15:418155,13,0,2,3,-5,2,1,-27
18:09:15:425647,13,0,2,3,-5,2,1,-27
18:09:15:433109,27,7,-19,2,2,8,25,-27
18:09:15:440586,10,17,4,6,1,24,45,21
18:09:15:448816,10,17,4,6,1,24,45,21
18:09:15:449617,-39,-4,42,10,-5,10,87,-19
18:09:15:471918,-18,-41,-55,-28,3,8,19,-23
18:09:15:472768,-18,-41,-55,-28,3,8,19,-23
18:09:15:473557,5,21,7,4,3,10,3,16
18:09:15:478204,13,-13,7,7,-4,-8,0,12
18:09:15:485633,13,-13,7,7,-4,-8,0,12
18:09:15:493185,-18,-35,10,-4,-8,-29,-68,-6
18:09:15:500629,-14,-8,5,5,0,-1,-1,-12
18:09:15:508826,-14,-8,5,5,0,-1,-1,-12
18:09:15:509600,-3,-32,-17,0,-3,-19,-71,6
18:09:15:523168,-24,43,2,0,-2,-3,16,17
18:09:15:531300,-24,43,2,0,-2,-3,16,17
18:09:15:532157,18,-84,-19,-15,-12,-5,-42,-18
18:09:15:538158,1,38,-22,-1,-9,-3,10,-5
18:09:15:545669,1,38,-22,-1,-9,-3,10,-5
18:09:15:553109,10,3,-29,-11,-4,-11,-29,-20
18:09:15:560550,-5,-20,9,5,0,-4,0,24
18:09:15:568853,-5,-20,9,5,0,-4,0,24
18:09:15:569623,1,65,6,-9,3,13,35,11
18:09:15:583195,33,1,-1,5,2,2,36,4
18:09:15:591338,33,1,-1,5,2,2,36,4
18:09:15:592168,8,-12,13,11,-4,-23,-39,0
18:09:15:598105,-52,10,-1,-3,-1,-10,6,9
18:09:15:605708,-52,10,-1,-3,-1,-10,6,9
18:09:15:613118,13,17,4,11,15,28,30,-2
18:09:15:620595,29,-4,18,2,6,-7,23,-2
18:09:15:628876,29,-4,18,2,6,-7,23,-2
18:09:15:629660,28,10,-14,-7,-7,0,-3,4
18:09:15:643152,18,-31,-8,-17,-18,-50,-29,-18
18:09:15:651311,18,-31,-8,-17,-18,-50,-29,-18
18:09:15:652163,5,1,24,8,1,-4,-44,14
18:09:15:658087,-1,-8,10,3,3,21,-8,10
18:09:15:665665,-1,-8,10,3,3,21,-8,10
18:09:15:673117,12,8,-16,-10,-7,-2,8,-41
18:09:15:689505,26,-44,16,-4,-6,1,-27,-3
18:09:15:690300,26,-44,16,-4,-6,1,-27,-3
18:09:15:691173,10,18,6,8,6,14,36,-1
18:09:15:703190,-23,15,1,2,-1,5,-11,0
18:09:15:711341,-23,15,1,2,-1,5,-11,0
18:09:15:712174,-1,-16,-11,-4,-4,-7,2,-1
18:09:15:718082,-3,-47,10,4,3,5,-25,-3
18:09:15:725685,-3,-47,10,4,3,5,-25,-3
18:09:15:733109,3,-2,15,10,-4,-35,-89,34
18:09:15:740596,-2,69,-19,0,6,24,33,5
18:09:15:748849,-2,69,-19,0,6,24,33,5
18:09:15:749643,15,-25,26,6,6,15,48,38
18:09:15:763106,-45,16,-16,-1,-2,-4,-45,-17
18:09:15:771332,-45,16,-16,-1,-2,-4,-45,-17
18:09:15:772157,-35,-1,-8,-4,-6,-7,-33,-18
18:09:15:778167,2,20,32,13,6,-10,67,0
18:09:15:785667,2,20,32,13,6,-10,67,0
18:09:15:793156,10,25,-4,-7,-2,29,69,4
18:09:15:800595,3,1,-9,-3,-5,11,-22,1
18:09:15:808859,3,1,-9,-3,-5,11,-22,1
18:09:15:809648,-6,-83,3,-14,-6,-5,8,-11
18:09:15:823106,-13,28,-20,-19,-10,-8,5,11
18:09:15:831355,-13,28,-20,-19,-10,-8,5,11
18:09:15:832184,-20,-19,-23,-3,-2,2,-53,0
18:09:15:838208,-36,-65,-2,4,-3,-20,-47,-41
18:09:15:845707,-36,-65,-2,4,-3,-20,-47,-41
18:09:15:853181,-11,88,24,8,11,27,60,34
18:09:15:860649,3,-19,-13,-5,-2,-5,-26,8
18:09:15:868829,3,-19,-13,-5,-2,-5,-26,8
18:09:15:869584,-3,-2,46,19,2,0,0,10
18:09:15:883198,49,-60,26,-1,-6,0,-4,-9
18:09:15:891305,49,-60,26,-1,-6,0,-4,-9
18:09:15:892168,41,10,1,2,-3,-5,4,15
18:09:15:898178,28,-20,-26,-3,2,13,35,-4
18:09:15:905661,28,-20,-26,-3,2,13,35,-4
18:09:15:913081,-52,-3,-9,-3,0,9,12,-26
18:09:15:920594,-25,20,-11,-1,2,9,1,2
18:09:15:928828,-25,20,-11,-1,2,9,1,2
18:09:15:929606,11,16,7,7,5,15,63,5
18:09:15:943173,6,34,10,-2,-1,-8,-17,-18
18:09:15:951327,6,34,10,-2,-1,-8,-17,-18
18:09:15:952193,-7,-28,-23,-4,-3,-14,-42,-24
18:09:15:958193,33,-62,-21,-4,0,-2,47,38
18:09:15:965655,33,-62,-21,-4,0,-2,47,38
18:09:15:973122,1,-59,23,12,-2,-28,-14,-23
18:09:15:980588,-18,-16,19,-4,0,10,25,7
18:09:15:988824,-18,-16,19,-4,0,10,25,7
18:09:15:989615,21,14,-8,-4,4,-8,-37,7
18:09:16:3095,-36,16,-23,2,3,19,-34,32
18:09:16:11306,-36,16,-23,2,3,19,-34,32
18:09:16:12173,-27,36,-2,0,-5,-15,34,10
18:09:16:18136,41,-7,2,2,0,4,3,12
18:09:16:25710,41,-7,2,2,0,4,3,12
18:09:16:33114,25,-90,-59,-34,-21,-8,-13,-14
18:09:16:40608,-12,-59,14,-10,-12,-8,-1,-39
18:09:16:48827,-12,-59,14,-10,-12,-8,-1,-39
18:09:16:49663,52,-22,-40,-4,1,7,29,1
18:09:16:63164,3,73,40,13,-2,-16,1,-54
18:09:16:71345,3,73,40,13,-2,-16,1,-54
18:09:16:72160,-36,51,-26,-5,0,-6,-11,15
18:09:16:78083,-4,26,-38,-5,3,11,-7,18
18:09:16:85716,-4,26,-38,-5,3,11,-7,18
18:09:16:93200,-39,7,14,3,2,4,18,-3
18:09:16:100616,35,-4,4,-2,-1,-17,-12,5
18:09:16:108854,35,-4,4,-2,-1,-17,-12,5
18:09:16:109649,8,-7,45,-7,-3,-1,-16,5
18:09:16:123102,-12,6,19,11,5,-5,13,7
18:09:16:131353,-12,6,19,11,5,-5,13,7
18:09:16:132171,20,20,-1,0,-1,-1,-32,7
18:09:16:146331,1,-5,-1,1,1,-6,-1,22
18:09:16:147147,1,-5,-1,1,1,-6,-1,22
18:09:16:153098,9,8,-4,0,6,40,105,2
18:09:16:160625,35,46,27,7,-2,-10,-50,-21
18:09:16:168179,35,46,27,7,-2,-10,-50,-21
18:09:16:175613,-40,-3,14,-14,-10,-26,0,-24
18:09:16:183169,-16,-36,24,2,-17,-61,-27,-18
18:09:16:191320,-16,-36,24,2,-17,-61,-27,-18
18:09:16:192162,-18,-6,-52,-5,2,-4,-30,-27
18:09:16:206309,-22,-30,6,2,4,18,-16,-2
18:09:16:207165,-22,-30,6,2,4,18,-16,-2
18:09:16:213168,-9,-2,-4,-3,-2,2,-4,16
18:09:16:220672,4,49,-24,-3,2,-11,-10,-25
18:09:16:228173,4,49,-24,-3,2,-11,-10,-25
18:09:16:235702,48,-39,2,7,-6,5,-21,-9
18:09:16:243198,-12,-22,16,7,0,7,36,8
18:09:16:251342,-12,-22,16,7,0,7,36,8
18:09:16:252180,0,-18,25,1,-12,-33,-45,-26
18:09:16:266301,5,-12,-64,-17,-7,21,42,-5
18:09:16:267180,5,-12,-64,-17,-7,21,42,-5
18:09:16:273185,3,-56,-1,-6,-2,-5,-33,36
18:09:16:280660,0,-18,-9,-6,0,-2,8,22
18:09:16:288195,0,-18,-9,-6,0,-2,8,22
18:09:16:295555,-4,10,-20,-7,-6,-1,-31,-4
18:09:16:303081,-25,28,43,13,3,-1,-42,-13
