Time,EMG1,EMG2,EMG3,EMG4,EMG5,EMG6,EMG7,EMG8
13:53:03:242339,-2,-3,5,-4,-1,-2,0,2
13:53:03:243101,-7,-10,-1,-5,1,2,-4,-5
13:53:03:249163,1,5,-7,-1,-9,1,-1,-4
13:53:03:256789,1,5,-7,-1,-9,1,-1,-4
13:53:03:264091,0,-5,5,-5,1,1,3,-1
13:53:03:271689,2,1,-4,12,-1,1,-2,-2
13:53:03:279809,2,1,-4,12,-1,1,-2,-2
13:53:03:280601,4,11,-8,0,2,2,-4,0
13:53:03:286605,-1,-7,-1,0,0,-1,-5,0
13:53:03:302341,-1,-7,-1,0,0,-1,-5,0
13:53:03:303092,-4,-7,-2,0,-9,-2,4,-1
13:53:03:309166,1,-3,3,4,-1,0,-5,0
13:53:03:316714,1,-3,3,4,-1,0,-5,0
13:53:03:324122,1,-4,-6,-18,-2,0,-1,-1
13:53:03:331591,-2,-9,4,-8,0,-1,-1,-1
13:53:03:339950,-2,-9,4,-8,0,-1,-1,-1
13:53:03:340610,-4,5,-6,2,-4,-7,2,-1
13:53:03:347788,1,2,1,4,4,-2,-3,-1
13:53:03:362301,1,2,1,4,4,-2,-3,-1
13:53:03:363213,0,5,-7,1,-1,1,-4,0
13:53:03:369127,-4,-22,-5,-2,0,-2,2,-4
13:53:03:376659,-4,-22,-5,-2,0,-2,2,-4
13:53:03:384168,-3,1,2,6,0,-1,-5,-1
13:53:03:391669,0,-5,-1,-9,-3,-8,3,7
13:53:03:400002,0,-5,-1,-9,-3,-8,3,7
13:53:03:400638,0,-11,-6,2,3,-1,0,4
13:53:03:406698,4,-3,1,5,-2,2,-3,-7
13:53:03:422458,4,-3,1,5,-2,2,-3,-7
13:53:03:423266,-5,-1,7,-7,3,7,-1,-4
13:53:03:429151,-2,-7,-10,-15,-4,-6,1,2
13:53:03:437446,-2,-7,-10,-15,-4,-6,1,2
13:53:03:438206,0,-11,-4,-1,-5,-2,-3,1
13:53:03:451689,-6,-14,-1,6,-4,-2,1,-4
13:53:03:459895,-6,-14,-1,6,-4,-2,1,-4
13:53:03:460695,4,7,6,4,0,-2,0,-2
13:53:03:466659,4,9,0,1,3,-1,-2,3
13:53:03:482383,4,9,0,1,3,-1,-2,3
13:53:03:483135,-1,5,-3,4,-1,0,-2,-6
13:53:03:489165,1,17,1,-1,0,-1,-7,2
13:53:03:497339,1,17,1,-1,0,-1,-7,2
13:53:03:498192,-3,8,-2,-7,-5,4,1,0
13:53:03:511613,3,5,-4,3,1,1,10,-1
13:53:03:519898,3,5,-4,3,1,1,10,-1
13:53:03:520618,1,-1,-3,1,1,-1,2,1
13:53:03:526624,-2,5,-7,3,-2,0,0,-3
13:53:03:542365,-2,5,-7,3,-2,0,0,-3
13:53:03:543240,4,3,24,6,-2,1,-3,0
13:53:03:549138,-4,9,4,1,-1,-2,1,-5
13:53:03:557401,-4,9,4,1,-1,-2,1,-5
13:53:03:558213,-3,0,3,-1,0,-1,5,2
13:53:03:571638,3,-4,6,-1,1,6,2,1
13:53:03:579796,3,-4,6,-1,1,6,2,1
13:53:03:580630,2,2,-8,-2,-4,-6,-3,-5
13:53:03:586606,2,-2,-20,-4,-1,-7,0,-1
13:53:03:602336,2,-2,-20,-4,-1,-7,0,-1
13:53:03:603096,-3,-9,1,-1,2,-3,-3,2
13:53:03:609118,-5,-3,2,-3,-5,2,-5,-2
13:53:03:617443,-5,-3,2,-3,-5,2,-5,-2
13:53:03:618230,-3,-5,-19,-2,-1,-7,-2,-7
13:53:03:631666,1,11,5,4,-1,1,2,1
13:53:03:639915,1,11,5,4,-1,1,2,1
13:53:03:640642,1,-1,13,-2,-3,3,-1,-4
13:53:03:646623,-1,-3,12,1,0,-2,6,-1
13:53:03:662323,-1,-3,12,1,0,-2,6,-1
13:53:03:663188,-8,-18,-3,-3,-3,-5,-1,-4
13:53:03:669169,0,4,1,0,2,4,-3,1
13:53:03:676704,0,4,1,0,2,4,-3,1
13:53:03:684181,-3,-3,7,4,0,-1,-9,2
13:53:03:691644,-6,-10,-1,-1,0,-3,-11,-1
13:53:03:699882,-6,-10,-1,-1,0,-3,-11,-1
13:53:03:700649,-3,7,-3,1,2,2,-1,2
13:53:03:714147,2,-7,-8,0,-2,2,-6,-7
13:53:03:722385,2,-7,-8,0,-2,2,-6,-7
13:53:03:723137,-1,6,1,-2,0,-2,-6,-4
13:53:03:729083,3,7,2,-2,0,-2,-4,0
13:53:03:736752,3,7,2,-2,0,-2,-4,0
13:53:03:744123,2,-3,-5,1,-1,3,5,0
13:53:03:751656,-6,-10,1,0,-3,-1,0,1
13:53:03:759888,-6,-10,1,0,-3,-1,0,1
13:53:03:760661,2,9,-5,4,4,0,5,3
13:53:03:774108,-3,5,-2,1,1,0,3,0
13:53:03:782345,-3,5,-2,1,1,0,3,0
13:53:03:783203,0,-13,-4,4,5,-3,-4,-5
13:53:03:789221,-2,1,-10,3,0,-3,3,-2
13:53:03:796683,-2,1,-10,3,0,-3,3,-2
13:53:03:804232,-4,0,-11,-8,-1,3,1,2
13:53:03:811613,0,2,-4,-10,-3,5,-3,-1
13:53:03:819870,0,2,-4,-10,-3,5,-3,-1
13:53:03:820553,0,-2,6,6,-3,-2,-7,-2
13:53:03:834197,1,5,6,9,4,0,-3,-1
13:53:03:842384,1,5,6,9,4,0,-3,-1
13:53:03:843233,-6,-9,0,-15,3,3,3,-4
13:53:03:849142,-5,-7,4,-1,-6,-9,-5,-3
13:53:03:856775,-5,-7,4,-1,-6,-9,-5,-3
13:53:03:864147,2,5,3,4,-2,5,-3,-3
13:53:03:871724,1,3,1,-7,1,0,0,3
13:53:03:879816,1,3,1,-7,1,0,0,3
13:53:03:880606,-2,-5,1,3,-3,-11,-3,0
13:53:03:894165,-4,-4,-8,3,-6,-2,2,-2
13:53:03:902327,-4,-4,-8,3,-6,-2,2,-2
13:53:03:903090,-4,2,-5,-22,-9,-2,1,-1
13:53:03:909143,6,-7,2,11,-1,-2,1,-4
13:53:03:916661,6,-7,2,11,-1,-2,1,-4
13:53:03:924178,3,-1,-1,-3,3,3,3,1
13:53:03:931632,-5,-6,0,-12,-3,2,-6,-2
13:53:03:939960,-5,-6,0,-12,-3,2,-6,-2
13:53:03:940624,3,-3,3,4,-2,2,-5,2
13:53:03:954226,-3,2,4,-3,-4,1,3,0
13:53:03:962323,-3,2,4,-3,-4,1,3,0
13:53:03:963106,-2,3,-1,3,0,3,-4,1
13:53:03:969178,-2,-4,2,-8,-1,-5,-1,-6
13:53:03:976709,-2,-4,2,-8,-1,-5,-1,-6
13:53:03:984224,-4,-1,-3,4,-3,-1,-2,-4
13:53:03:991680,0,7,0,1,-1,2,-2,2
13:53:03:999859,0,7,0,1,-1,2,-2,2
13:53:04:625,0,1,0,5,-1,-6,-2,-2
13:53:04:14091,-1,1,0,1,1,-2,1,-1
13:53:04:22374,-1,1,0,1,1,-2,1,-1
13:53:04:23131,-1,-9,-4,-3,-3,0,5,3
13:53:04:29058,-1,-4,-3,0,2,2,-4,0
13:53:04:36705,-1,-4,-3,0,2,2,-4,0
13:53:04:44138,-4,2,-1,0,0,-8,5,-5
13:53:04:51650,-3,0,-1,-5,-4,-2,-3,-3
13:53:04:59870,-3,0,-1,-5,-4,-2,-3,-3
13:53:04:60659,-1,-10,-1,1,-2,1,-1,1
13:53:04:74136,-2,8,-3,0,2,0,7,-1
13:53:04:82344,-2,8,-3,0,2,0,7,-1
13:53:04:83255,5,12,-3,-1,-2,-3,-11,-3
13:53:04:89264,3,9,1,2,1,0,-4,4
13:53:04:96709,3,9,1,2,1,0,-4,4
13:53:04:104235,-5,-14,0,2,-2,-3,2,-4
13:53:04:111619,-3,-10,-2,-1,1,6,-8,-2
13:53:04:119833,-3,-10,-2,-1,1,6,-8,-2
13:53:04:120592,-3,-1,3,-5,-4,-4,0,0
13:53:04:134180,0,-4,-2,-1,-1,-1,1,-7
13:53:04:142369,0,-4,-2,-1,-1,-1,1,-7
13:53:04:143255,-5,9,0,1,-4,-6,-13,-3
13:53:04:149118,-2,5,-2,-5,-5,-6,2,0
13:53:04:156689,-2,5,-2,-5,-5,-6,2,0
13:53:04:164137,0,0,-1,3,2,2,1,-1
13:53:04:171723,-5,-4,-1,-3,-3,5,5,1
13:53:04:187440,-5,-4,-1,-3,-3,5,5,1
13:53:04:188233,2,0,-6,-3,0,1,-8,-1
13:53:04:194130,4,-10,-1,5,9,4,6,-3
13:53:04:202182,4,-10,-1,5,9,4,6,-3
13:53:04:209824,0,0,-2,-3,-3,-4,6,3
13:53:04:210609,-2,5,-4,1,2,3,-6,2
13:53:04:216742,-2,5,-4,1,2,3,-6,2
13:53:04:224176,5,0,-1,1,-1,6,4,-3
13:53:04:231668,0,-3,-2,-2,-2,-7,-4,-3
13:53:04:239937,0,-3,-2,-2,-2,-7,-4,-3
13:53:04:240658,-7,6,-2,-2,-1,1,-2,-1
13:53:04:254246,0,-7,0,-1,-2,-2,3,-4
13:53:04:262300,0,-7,0,-1,-2,-2,3,-4
13:53:04:263161,4,-8,0,2,1,-1,3,-1
13:53:04:269121,-3,9,-3,-2,-3,-6,-2,-1
13:53:04:276697,-3,9,-3,-2,-3,-6,-2,-1
13:53:04:292332,0,-11,-3,-2,-4,2,-3,-2
13:53:04:293098,0,1,1,1,-2,-1,-1,3
13:53:04:299840,0,1,1,1,-2,-1,-1,3
13:53:04:300586,-2,9,-8,-3,1,0,5,2
13:53:04:314122,0,-1,-3,3,-1,-2,-9,-1
13:53:04:322370,0,-1,-3,3,-1,-2,-9,-1
13:53:04:323117,-2,-11,-4,0,-1,0,-4,-2
13:53:04:329120,-2,-4,-1,-4,0,-4,0,2
13:53:04:336698,-2,-4,-1,-4,0,-4,0,2
13:53:04:344123,-5,-6,6,-2,-4,-6,5,0
13:53:04:351611,1,-4,2,-9,-3,-4,-1,1
13:53:04:359844,1,-4,2,-9,-3,-4,-1,1
13:53:04:360623,0,-6,0,5,2,1,-4,5
13:53:04:374582,0,-2,0,-1,1,4,-6,-5
13:53:04:382375,0,-2,0,-1,1,4,-6,-5
13:53:04:383133,-1,6,-1,1,1,5,3,-3
13:53:04:389176,0,2,-8,-1,-2,-9,-1,3
13:53:04:396697,0,2,-8,-1,-2,-9,-1,3
13:53:04:404151,-1,11,3,3,-3,1,2,-1
13:53:04:411585,0,-6,0,1,-1,-1,2,-5
13:53:04:419310,0,-6,0,1,-1,-1,2,-5
13:53:04:426671,-1,-4,-2,-4,0,-3,-4,0
13:53:04:434173,-1,-2,1,2,1,4,-8,-3
13:53:04:442377,-1,-2,1,2,1,4,-8,-3
13:53:04:443245,0,-2,-6,-3,0,-5,4,-2
13:53:04:457365,-1,-3,1,-1,-2,1,0,-1
13:53:04:458223,-1,-3,1,-1,-2,1,0,-1
13:53:04:464089,-6,5,-2,-11,-1,0,1,-2
13:53:04:471681,-4,4,0,-1,-2,-3,7,-1
13:53:04:479843,-4,4,0,-1,-2,-3,7,-1
13:53:04:480625,5,-11,0,0,1,-3,-2,-2
13:53:04:494146,-3,-8,0,-6,-3,2,-3,1
13:53:04:502428,-3,-8,0,-6,-3,2,-3,1
13:53:04:503234,4,9,-3,5,-4,-2,-4,3
13:53:04:517385,3,1,-7,-8,0,-1,-2,2
13:53:04:518207,3,1,-7,-8,0,-1,-2,2
13:53:04:524175,-5,-6,3,5,-2,-8,-1,-5
13:53:04:540479,-3,-2,0,-2,-2,-4,-2,0
13:53:04:541279,-3,-2,0,-2,-2,-4,-2,0
13:53:04:542076,-4,3,3,-5,1,4,2,3
13:53:04:554249,-2,-1,-5,-1,0,-2,-6,-5
13:53:04:562300,-2,-1,-5,-1,0,-2,-6,-5
13:53:04:563116,-5,-13,-2,-2,-8,1,-6,0
13:53:04:569099,4,4,8,1,-8,0,-3,-3
13:53:04:576692,4,4,8,1,-8,0,-3,-3
13:53:04:584157,2,1,-6,-1,3,-3,-3,-3
13:53:04:591598,-4,-2,1,3,3,4,1,-1
13:53:04:599221,-4,-2,1,3,3,4,1,-1
13:53:04:606696,0,-2,0,-5,-4,0,1,-2
13:53:04:614083,3,5,-5,4,-1,-2,-3,1
13:53:04:622439,3,5,-5,4,-1,-2,-3,1
13:53:04:623245,2,-9,0,4,0,0,-1,-7
13:53:04:637418,0,-8,-2,-1,1,2,2,-6
13:53:04:638134,0,-8,-2,-1,1,2,2,-6
13:53:04:644147,-1,8,-4,-11,-2,-1,-7,-1
13:53:04:651708,-6,5,-1,0,-4,-2,-3,0
13:53:04:659241,-6,5,-1,0,-4,-2,-3,0
13:53:04:666642,-1,-4,-4,0,1,-1,-1,0
13:53:04:674161,-1,-8,1,-2,-4,-4,-4,1
13:53:04:682321,-1,-8,1,-2,-4,-4,-4,1
13:53:04:683093,-2,0,1,0,-2,-3,0,-2
13:53:04:697324,4,2,-3,-6,-3,-5,2,1
13:53:04:698203,4,2,-3,-6,-3,-5,2,1
13:53:04:704229,4,-1,0,0,0,5,-4,-1
13:53:04:711624,1,-1,1,-2,-3,2,0,-2
13:53:04:719141,1,-1,1,-2,-3,2,0,-2
13:53:04:726675,-3,7,-3,-2,0,-2,-4,1
13:53:04:734171,-5,-12,4,-1,-5,3,0,1
13:53:04:742347,-5,-12,4,-1,-5,3,0,1
13:53:04:743157,5,0,1,1,2,2,0,-1
13:53:04:757267,-1,25,-11,0,3,-1,3,2
13:53:04:758128,-1,25,-11,0,3,-1,3,2
13:53:04:764131,3,11,4,1,-7,-1,-1,-2
13:53:04:771707,-2,5,15,0,0,3,2,1
13:53:04:779134,-2,5,15,0,0,3,2,1
13:53:04:786654,-7,-10,-53,-13,-4,-10,5,-2
13:53:04:794092,-12,-29,-7,-1,-7,-10,-9,-11
13:53:04:802316,-12,-29,-7,-1,-7,-10,-9,-11
13:53:04:803101,1,7,24,3,1,5,-5,1
13:53:04:817170,1,7,5,2,4,2,-7,-1
13:53:04:824870,1,7,5,2,4,2,-7,-1
13:53:04:825655,5,2,-13,2,0,1,2,0
13:53:04:831584,1,18,11,-1,-2,1,-4,0
13:53:04:839349,1,18,11,-1,-2,1,-4,0
13:53:04:846570,1,-2,39,4,0,2,-10,-3
13:53:04:854160,-5,-11,13,4,4,-6,9,4
13:53:04:862330,-5,-11,13,4,4,-6,9,4
13:53:04:863157,1,6,-16,-6,1,2,2,-7
13:53:04:877325,9,-13,1,3,3,4,-6,-4
13:53:04:878156,9,-13,1,3,3,4,-6,-4
13:53:04:884178,-9,12,6,3,-1,5,8,-2
13:53:04:891644,1,14,-12,-5,-2,1,0,5
13:53:04:899238,1,14,-12,-5,-2,1,0,5
13:53:04:906714,-6,-25,0,2,-2,-5,1,1
13:53:04:914082,0,0,-43,-1,-1,-2,-6,-1
13:53:04:922499,0,0,-43,-1,-1,-2,-6,-1
13:53:04:923242,-3,-2,5,-2,-2,-7,-9,-4
13:53:04:937413,-4,-5,22,3,1,-1,2,-6
13:53:04:938208,-4,-5,22,3,1,-1,2,-6
13:53:04:944109,-4,1,-27,-2,1,-1,7,2
13:53:04:951704,-6,-19,-17,-3,1,3,-5,-1
13:53:04:959273,-6,-19,-17,-3,1,3,-5,-1
13:53:04:966665,-5,-15,-26,-1,-3,4,-12,-1
13:53:04:974194,-9,-38,2,-6,-6,-12,7,-3
13:53:04:982324,-9,-38,2,-6,-6,-12,7,-3
13:53:04:983104,-6,-11,-2,-3,-3,-12,3,-3
13:53:04:997287,1,-11,-13,1,-4,1,4,3
13:53:04:998075,1,-11,-13,1,-4,1,4,3
13:53:05:4190,1,3,19,-1,-2,1,-2,5
13:53:05:11651,-9,17,31,2,-2,-1,-4,-4
13:53:05:19166,-9,17,31,2,-2,-1,-4,-4
13:53:05:26676,-1,13,8,-1,1,1,-7,-1
13:53:05:34211,7,1,-20,-3,-4,0,-5,-2
13:53:05:42324,7,1,-20,-3,-4,0,-5,-2
13:53:05:43128,-1,18,-13,-2,-3,-9,-2,0
13:53:05:57315,9,10,11,2,3,4,-5,-6
13:53:05:58148,9,10,11,2,3,4,-5,-6
13:53:05:64096,0,-5,15,3,3,-4,-2,-11
13:53:05:71755,3,12,-10,0,4,7,10,0
13:53:05:79150,3,12,-10,0,4,7,10,0
13:53:05:86691,4,-4,10,3,-1,8,-4,5
13:53:05:94125,1,-6,-18,-1,0,-4,1,2
13:53:05:102389,1,-6,-18,-1,0,-4,1,2
13:53:05:103154,-6,-20,7,1,-2,0,-2,-3
13:53:05:117412,-10,-5,19,-5,-3,0,-6,0
13:53:05:118093,-10,-5,19,-5,-3,0,-6,0
13:53:05:124120,0,3,-4,-1,-4,-4,0,6
13:53:05:131594,-3,-1,-19,-11,-9,-7,6,-1
13:53:05:139330,-3,-1,-19,-11,-9,-7,6,-1
13:53:05:146608,-6,0,-63,-4,0,2,6,-1
13:53:05:154187,14,30,13,0,-3,2,0,-11
13:53:05:162319,14,30,13,0,-3,2,0,-11
13:53:05:163231,0,-2,5,-6,-2,3,1,2
13:53:05:178387,-5,10,-5,5,-2,-6,-2,7
13:53:05:184903,-5,10,-5,5,-2,-6,-2,7
13:53:05:185611,3,8,19,1,-3,-3,6,-6
13:53:05:191629,4,-15,14,1,-2,6,-16,-3
13:53:05:199299,4,-15,14,1,-2,6,-16,-3
13:53:05:206692,4,-2,7,-3,2,-4,-12,-1
13:53:05:214091,9,-10,-3,-4,1,-7,23,-2
13:53:05:222400,9,-10,-3,-4,1,-7,23,-2
13:53:05:223197,14,3,3,-2,3,7,-10,1
13:53:05:237441,-3,2,10,-5,3,2,-9,-2
13:53:05:238208,-3,2,10,-5,3,2,-9,-2
13:53:05:244141,0,-7,2,0,1,-5,4,-5
13:53:05:251660,-2,-5,-4,1,0,1,0,3
13:53:05:259263,-2,-5,-4,1,0,1,0,3
13:53:05:266658,-6,-8,-4,-2,-4,1,-3,4
13:53:05:274155,-3,0,-6,-2,-6,-2,-4,0
13:53:05:282315,-3,0,-6,-2,-6,-2,-4,0
13:53:05:283092,16,-2,11,13,0,-5,2,-5
13:53:05:297266,1,-6,7,6,-1,-1,2,2
13:53:05:298112,1,-6,7,6,-1,-1,2,2
13:53:05:312291,-11,-6,-5,-19,-6,3,-9,0
13:53:05:313088,-2,6,-3,4,4,7,-2,-2
13:53:05:319257,-2,6,-3,4,4,7,-2,-2
13:53:05:326670,-10,6,3,3,2,-5,4,-1
13:53:05:342992,-10,0,-7,-7,-2,-11,-6,-4
13:53:05:343779,-10,0,-7,-7,-2,-11,-6,-4
13:53:05:344624,-2,7,8,5,6,6,6,0
13:53:05:357346,-3,-2,-6,10,4,-2,-2,-4
13:53:05:358144,-3,-2,-6,10,4,-2,-2,-4
13:53:05:364073,-4,-9,-7,-10,-6,-3,-1,1
13:53:05:371718,1,5,1,-2,4,-3,0,1
13:53:05:379237,1,5,1,-2,4,-3,0,1
13:53:05:386693,-6,7,-9,2,-3,-7,3,2
13:53:05:394175,-1,-2,-3,-14,-6,4,-6,-3
13:53:05:402350,-1,-2,-3,-14,-6,4,-6,-3
13:53:05:403098,-2,10,-3,3,1,6,-7,-6
13:53:05:417403,1,-1,10,4,1,9,-1,0
13:53:05:418205,1,-1,10,4,1,9,-1,0
13:53:05:424179,6,-9,-5,-4,3,-1,-8,-5
13:53:05:431629,-8,10,0,4,3,-6,8,8
13:53:05:439243,-8,10,0,4,3,-6,8,8
13:53:05:446616,-13,-18,15,-8,6,-9,-10,5
13:53:05:454221,3,2,3,-6,-7,-9,5,7
13:53:05:462302,3,2,3,-6,-7,-9,5,7
13:53:05:463130,7,12,12,8,4,26,20,8
13:53:05:477300,-12,0,-6,-10,-8,-18,-42,-21
13:53:05:478118,-12,0,-6,-10,-8,-18,-42,-21
13:53:05:484186,5,-3,-5,-2,1,15,-5,-2
13:53:05:491639,11,-6,-1,2,-2,-2,-23,5
13:53:05:499159,11,-6,-1,2,-2,-2,-23,5
13:53:05:506650,-1,4,-4,2,-6,-2,-12,1
13:53:05:514125,-9,4,-11,3,-4,4,-3,-8
13:53:05:522464,-9,4,-11,3,-4,4,-3,-8
13:53:05:523119,-7,33,-38,0,-3,-16,-28,-10
13:53:05:537103,-3,-32,50,2,-2,-4,6,2
13:53:05:552383,-3,-32,50,2,-2,-4,6,2
13:53:05:553226,0,-31,2,-5,-5,-12,3,2
13:53:05:559785,-4,6,-5,-3,1,39,74,9
13:53:05:560611,-4,6,-5,-3,1,39,74,9
13:53:05:566688,-5,10,26,5,-6,45,15,7
13:53:05:574252,-7,0,1,-3,-4,2,-45,-7
13:53:05:581672,-7,0,1,-3,-4,2,-45,-7
13:53:05:589172,0,2,-3,5,-2,-13,-19,-13
13:53:05:597309,0,2,-4,1,-2,-28,7,-2
13:53:05:598104,0,2,-4,1,-2,-28,7,-2
13:53:05:604210,0,-12,-7,-4,6,17,-42,5
13:53:05:619853,-1,1,-2,-5,2,-18,-123,3
13:53:05:620636,-1,1,-2,-5,2,-18,-123,3
13:53:05:626586,-7,-10,10,-8,-13,-58,-100,-15
13:53:05:634167,2,-10,-9,5,-6,-10,-96,-1
13:53:05:641708,2,-10,-9,5,-6,-10,-96,-1
13:53:05:649130,-5,-12,-8,-5,2,-5,61,-1
13:53:05:657345,11,4,-9,6,7,10,82,-3
13:53:05:658165,11,4,-9,6,7,10,82,-3
13:53:05:664076,3,4,-6,7,7,0,107,-2
13:53:05:679812,5,-2,-10,5,7,4,102,5
13:53:05:680587,5,-2,-10,5,7,4,102,5
13:53:05:686671,-11,-4,-4,-5,-7,-5,49,-10
13:53:05:694127,-1,0,-1,-1,4,-1,54,-4
13:53:05:701729,-1,0,-1,-1,4,-1,54,-4
13:53:05:709132,2,4,3,-1,-5,-5,-13,-3
13:53:05:717388,-7,0,-2,-3,-7,-2,11,-2
13:53:05:718228,-7,0,-2,-3,-7,-2,11,-2
13:53:05:724170,0,2,-4,-1,0,-2,13,1
13:53:05:739934,-4,-7,-6,-3,-2,3,-56,-5
13:53:05:740651,-4,-7,-6,-3,-2,3,-56,-5
13:53:05:746606,4,-3,4,-3,1,-6,-26,10
13:53:05:754173,2,4,1,-4,1,-1,16,-2
13:53:05:761683,2,4,1,-4,1,-1,16,-2
13:53:05:769195,1,-2,-1,0,-4,2,36,2
13:53:05:777319,2,-2,-5,-2,-3,3,15,3
13:53:05:778119,2,-2,-5,-2,-3,3,15,3
13:53:05:784180,-2,-3,-4,-1,-3,-7,9,-3
13:53:05:799856,1,-1,3,3,1,10,28,1
13:53:05:800641,1,-1,3,3,1,10,28,1
13:53:05:806699,-1,5,-3,-1,3,1,-7,2
13:53:05:814116,-1,5,1,-3,-4,-10,-90,3
13:53:05:821720,-1,5,1,-3,-4,-10,-90,3
13:53:05:829119,-7,-8,1,5,-1,-9,-29,-1
13:53:05:837366,-5,1,-3,-1,2,3,50,1
13:53:05:838123,-5,1,-3,-1,2,3,50,1
13:53:05:844073,6,2,0,-3,3,3,-18,-4
13:53:05:859808,-1,3,0,-5,-5,-3,20,-10
13:53:05:860607,-1,3,0,-5,-5,-3,20,-10
13:53:05:866688,2,4,-5,0,1,6,39,0
13:53:05:874178,-1,-3,-4,-2,1,-2,17,4
13:53:05:881675,-1,-3,-4,-2,1,-2,17,4
13:53:05:889176,-3,-8,-4,-13,-6,-4,-2,-5
13:53:05:897072,-2,-6,-7,0,0,6,-5,-2
13:53:05:904919,-2,-6,-7,0,0,6,-5,-2
13:53:05:905628,-1,0,-2,3,-5,-5,1,4
13:53:05:919813,-3,-2,0,-3,-3,-5,-5,-6
13:53:05:920636,-3,-2,0,-3,-3,-5,-5,-6
13:53:05:926592,3,2,4,5,1,1,-8,4
13:53:05:934133,0,-1,-5,3,-4,-7,8,0
13:53:05:941721,0,-1,-5,3,-4,-7,8,0
13:53:05:949123,3,-4,1,-1,3,6,11,-1
13:53:05:957338,-3,-10,2,-3,-7,-7,13,-10
13:53:05:958223,-3,-10,2,-3,-7,-7,13,-10
13:53:05:964101,-2,-6,2,2,0,-10,-10,-2
13:53:05:979834,2,7,2,2,3,8,-5,5
13:53:05:980613,2,7,2,2,3,8,-5,5
13:53:05:986619,-3,-7,-3,1,0,2,-12,-2
13:53:05:994119,3,-8,-12,-4,-3,-4,9,5
13:53:06:1735,3,-8,-12,-4,-3,-4,9,5
13:53:06:9129,0,0,-7,-5,2,2,-3,-2
13:53:06:17416,3,12,0,-5,-4,-1,-3,-1
13:53:06:18250,3,12,0,-5,-4,-1,-3,-1
13:53:06:24157,-3,-3,-1,-6,-1,-1,-3,4
13:53:06:39889,-1,4,2,3,0,6,1,-4
13:53:06:40651,-1,4,2,3,0,6,1,-4
13:53:06:46612,4,-6,0,0,-2,-3,20,-1
13:53:06:54206,-4,-3,2,-3,1,-4,-9,1
13:53:06:61695,-4,-3,2,-3,1,-4,-9,1
13:53:06:69151,0,-2,-6,-3,-4,-4,-5,4
13:53:06:77311,0,-2,-6,-3,-4,-4,-5,4
13:53:06:78098,-1,-7,2,2,4,0,-7,-8
13:53:06:84210,0,4,6,2,-1,-3,4,-6
13:53:06:99861,0,4,6,2,-1,-3,4,-6
13:53:06:100625,-2,-1,0,4,-2,-2,7,0
13:53:06:106698,-4,4,-2,0,-1,0,-3,-3
13:53:06:122417,-4,4,-2,0,-1,0,-3,-3
13:53:06:123234,-5,6,0,1,0,1,5,-2
13:53:06:129127,1,13,-1,1,0,10,-5,-2
13:53:06:137370,1,13,-1,1,0,10,-5,-2
13:53:06:138115,-7,-13,-4,2,-2,1,-7,1
13:53:06:144147,2,-13,-4,-1,1,-6,-4,-1
13:53:06:159887,2,-13,-4,-1,1,-6,-4,-1
13:53:06:160633,3,4,2,-5,3,5,3,-3
13:53:06:166655,-3,2,5,3,0,12,13,3
13:53:06:182344,-3,2,5,3,0,12,13,3
13:53:06:183113,-2,2,-8,-8,-7,-8,-8,0
13:53:06:189172,-4,-4,-6,0,1,-5,-11,-2
13:53:06:197371,-4,-4,-6,0,1,-5,-11,-2
13:53:06:198228,-1,4,2,0,-3,1,2,0
13:53:06:204232,-2,-12,0,1,4,-3,-1,-6
13:53:06:219927,-2,-12,0,1,4,-3,-1,-6
13:53:06:220696,-1,-3,-3,5,0,-1,0,-1
13:53:06:226639,-4,-7,2,-4,-5,-3,5,0
13:53:06:242375,-4,-7,2,-4,-5,-3,5,0
13:53:06:243138,-4,-4,6,-6,-5,1,-6,1
13:53:06:249108,-3,-10,2,0,1,2,1,-5
13:53:06:257374,-3,-10,2,0,1,2,1,-5
13:53:06:258150,2,-3,-4,-2,-2,-11,-4,2
13:53:06:264095,1,18,1,6,1,13,8,5
13:53:06:279844,1,18,1,6,1,13,8,5
13:53:06:280598,5,1,-1,1,2,0,3,-3
13:53:06:286676,2,2,0,-1,-5,-8,-10,-7
13:53:06:302323,2,2,0,-1,-5,-8,-10,-7
13:53:06:303130,7,7,-8,3,2,8,13,0
13:53:06:309143,-1,-2,-6,-3,1,-8,1,5
13:53:06:317430,-1,-2,-6,-3,1,-8,1,5
13:53:06:318120,-3,-4,-1,1,-7,-16,-5,-5
13:53:06:324125,-5,1,1,-7,-5,0,3,1
13:53:06:339869,-5,1,1,-7,-5,0,3,1
13:53:06:340657,-4,0,1,-2,-1,4,-1,4
13:53:06:346626,-3,-15,-3,0,4,4,0,-4
13:53:06:362311,-3,-15,-3,0,4,4,0,-4
13:53:06:363126,4,-7,3,-3,-3,7,6,4
13:53:06:369160,0,7,-5,-1,3,2,-11,-2
13:53:06:377781,0,7,-5,-1,3,2,-11,-2
13:53:06:384836,-1,-1,-8,1,-2,-2,-3,-4
13:53:06:385640,0,-4,1,0,2,-4,-16,-9
13:53:06:399963,0,-4,1,0,2,-4,-16,-9
13:53:06:400669,-7,-9,3,-4,0,0,9,0
13:53:06:406718,0,4,5,0,-3,5,32,2
13:53:06:422406,0,4,5,0,-3,5,32,2
13:53:06:423153,-8,-4,-6,-3,-2,-3,-4,-2
13:53:06:429075,0,10,-8,1,-12,3,-18,0
13:53:06:437451,0,10,-8,1,-12,3,-18,0
13:53:06:438156,-3,3,-3,4,-1,0,2,0
13:53:06:444090,0,-3,19,-6,2,-19,-116,8
13:53:06:459850,0,-3,19,-6,2,-19,-116,8
13:53:06:460576,-1,-1,-1,1,4,2,23,-6
13:53:06:466637,-3,1,-5,-2,0,6,92,-5
13:53:06:482312,-3,1,-5,-2,0,6,92,-5
13:53:06:483092,-2,-4,-1,-1,1,0,24,-2
13:53:06:489264,3,6,1,0,0,7,4,-1
13:53:06:497320,3,6,1,0,0,7,4,-1
13:53:06:498081,0,-13,0,-8,-1,3,-14,-8
13:53:06:511665,0,-10,-6,-4,-5,-1,-18,-3
13:53:06:519878,0,-10,-6,-4,-5,-1,-18,-3
13:53:06:520597,3,1,6,1,5,10,0,8
13:53:06:526641,-6,4,5,4,-2,0,13,1
13:53:06:542333,-6,4,5,4,-2,0,13,1
13:53:06:543092,3,5,-3,-10,-3,-12,-10,-5
13:53:06:549154,0,-5,-11,-2,2,-2,30,-6
13:53:06:557345,0,-5,-11,-2,2,-2,30,-6
13:53:06:558120,-1,-4,-5,-8,-6,-2,-6,1
13:53:06:571672,1,-6,-2,1,-2,-6,3,1
13:53:06:579784,1,-6,-2,1,-2,-6,3,1
13:53:06:580572,0,-11,4,2,8,-2,0,1
13:53:06:586670,-5,-2,-3,-2,-8,-10,6,-7
13:53:06:602348,-5,-2,-3,-2,-8,-10,6,-7
13:53:06:603244,-6,-13,0,1,-3,0,9,-1
13:53:06:609173,-1,5,-2,4,2,2,-4,2
13:53:06:617336,-1,5,-2,4,2,2,-4,2
13:53:06:618087,2,8,-2,2,-2,-1,4,-5
13:53:06:631620,0,-7,-1,-4,3,0,7,1
13:53:06:639965,0,-7,-1,-4,3,0,7,1
13:53:06:640701,5,15,-3,5,-1,-1,-13,5
13:53:06:646624,-3,2,-5,-2,0,0,3,-6
13:53:06:654269,-3,2,-5,-2,0,0,3,-6
13:53:06:661657,1,1,10,0,-4,-5,-2,-5
13:53:06:669216,-1,-4,1,0,-2,-8,-4,5
13:53:06:677366,-1,-4,1,0,-2,-8,-4,5
13:53:06:678139,-3,-5,-1,0,2,6,-27,-6
13:53:06:691655,-8,2,2,-3,-6,-5,-2,5
13:53:06:699823,-8,2,2,-3,-6,-5,-2,5
13:53:06:700560,-3,1,-1,-2,-6,3,13,2
13:53:06:706680,0,-3,-1,-2,-2,6,3,-5
13:53:06:714146,0,-3,-1,-2,-2,6,3,-5
13:53:06:721670,-3,-8,-6,1,-2,-7,-3,-4
13:53:06:729108,0,2,-2,1,1,3,4,-2
13:53:06:744833,0,2,-2,1,1,3,4,-2
13:53:06:745613,0,5,-7,-6,-1,-4,-5,-5
13:53:06:751745,4,0,-5,0,-4,-3,-13,-3
13:53:06:759874,4,0,-5,0,-4,-3,-13,-3
13:53:06:760637,-3,-5,-9,-2,0,-2,14,5
13:53:06:766675,3,-5,-2,-2,1,2,-5,-4
13:53:06:774190,3,-5,-2,-2,1,2,-5,-4
13:53:06:781590,0,7,2,3,-2,-2,-3,-1
13:53:06:789188,-2,-5,2,-5,-4,-9,-5,2
13:53:06:797330,-2,-5,2,-5,-4,-9,-5,2
13:53:06:798121,-3,-7,4,-3,-3,-5,-8,-4
13:53:06:811615,-2,9,1,3,-1,5,9,-4
13:53:06:819890,-2,9,1,3,-1,5,9,-4
13:53:06:820610,-1,6,2,-3,-7,-7,4,1
13:53:06:826600,-10,-6,1,1,0,0,-12,-2
13:53:06:834246,-10,-6,1,1,0,0,-12,-2
13:53:06:849776,-2,-5,-2,2,2,1,-9,3
13:53:06:850562,0,1,1,1,0,3,3,2
13:53:06:857355,0,1,1,1,0,3,3,2
13:53:06:858164,-1,-1,-6,-6,-1,-1,-3,-5
13:53:06:871748,-5,9,-4,-1,-1,-3,3,-2
13:53:06:879812,-5,9,-4,-1,-1,-3,3,-2
13:53:06:880597,-10,4,-4,-3,-4,1,3,-2
13:53:06:886650,8,7,9,-10,1,4,5,-7
13:53:06:894178,8,7,9,-10,1,4,5,-7
13:53:06:901614,12,2,0,3,2,0,0,2
13:53:06:909075,4,-6,2,-1,-2,1,1,4
13:53:06:917388,4,-6,2,-1,-2,1,1,4
13:53:06:918120,-16,-7,-7,-5,2,0,-15,3
13:53:06:931582,0,-2,-4,4,-3,-4,-1,0
13:53:06:939864,0,-2,-4,4,-3,-4,-1,0
13:53:06:940588,3,-5,-1,2,3,0,11,-4
13:53:06:946586,-5,3,1,-1,-4,-1,-6,-3
13:53:06:962313,-5,3,1,-1,-4,-1,-6,-3
13:53:06:963134,5,4,9,11,0,6,0,0
13:53:06:969101,1,-3,-3,-6,0,-1,-19,-1
13:53:06:977376,1,-3,-3,-6,0,-1,-19,-1
13:53:06:978123,2,-1,6,-4,-3,-3,-2,2
13:53:06:991611,-5,-7,-24,-24,-2,-1,15,2
13:53:06:999868,-5,-7,-24,-24,-2,-1,15,2
13:53:07:602,-1,5,3,6,-5,1,-17,-1
13:53:07:6653,-6,-6,-5,-4,-6,-13,11,1
13:53:07:22406,-6,-6,-5,-4,-6,-13,11,1
13:53:07:23148,5,-8,-9,-16,-3,-16,-21,-9
13:53:07:29107,2,-6,0,17,7,4,-7,0
13:53:07:37847,2,-6,0,17,7,4,-7,0
13:53:07:44109,1,-5,-5,2,-3,9,24,4
13:53:07:51672,-4,5,-4,11,-10,-20,-38,-7
13:53:07:59860,-4,5,-4,11,-10,-20,-38,-7
13:53:07:60653,0,5,0,8,4,5,42,4
13:53:07:66727,0,1,11,25,4,3,-7,-5
13:53:07:82356,0,1,11,25,4,3,-7,-5
13:53:07:83136,-7,1,-1,-1,-4,-10,-31,-5
13:53:07:89169,7,3,11,-16,2,8,6,3
13:53:07:97341,7,3,11,-16,2,8,6,3
13:53:07:98148,-4,-4,-6,-3,5,1,7,-1
13:53:07:111649,-6,1,-7,-9,-3,-3,7,0
13:53:07:119891,-6,1,-7,-9,-3,-3,7,0
13:53:07:120604,1,-3,2,-8,-3,-5,-9,-1
13:53:07:126629,2,-10,-4,10,9,8,11,6
13:53:07:142379,2,-10,-4,10,9,8,11,6
13:53:07:143161,1,-3,-1,-3,-1,-8,-8,-1
13:53:07:149102,0,-2,-2,-2,-1,3,-2,-2
13:53:07:157354,0,-2,-2,-2,-1,3,-2,-2
13:53:07:158130,2,-2,2,3,-3,0,8,-1
13:53:07:171705,-5,-4,3,-4,-4,-4,8,-3
13:53:07:179853,-5,-4,3,-4,-4,-4,8,-3
13:53:07:180592,1,1,-12,-5,-3,1,-9,-1
13:53:07:186649,-1,4,-2,1,-3,-2,10,0
13:53:07:202330,-1,4,-2,1,-3,-2,10,0
13:53:07:203098,-4,-3,-4,16,5,4,-6,-5
13:53:07:217990,0,-5,-1,-15,-3,2,-14,-5
13:53:07:218753,0,-5,-1,-15,-3,2,-14,-5
13:53:07:219537,-6,-3,-3,1,3,3,1,3
13:53:07:231624,2,0,-1,-5,0,1,4,-3
13:53:07:239960,2,0,-1,-5,0,1,4,-3
13:53:07:240657,4,0,2,-17,-5,0,-15,1
13:53:07:246636,-2,-1,5,4,-4,2,3,-1
13:53:07:262355,-2,-1,5,4,-4,2,3,-1
13:53:07:263154,-2,5,6,4,0,2,7,-5
13:53:07:269147,-3,-1,-5,6,0,0,-16,-2
13:53:07:277368,-3,-1,-5,6,0,0,-16,-2
13:53:07:278138,-1,5,-1,-13,-6,0,-7,3
13:53:07:291590,-5,-1,-9,-6,-2,-5,0,3
13:53:07:299878,-5,-1,-9,-6,-2,-5,0,3
13:53:07:300644,0,2,3,-3,1,-1,8,0
13:53:07:306676,3,-6,-8,7,5,0,4,-3
13:53:07:322425,3,-6,-8,7,5,0,4,-3
13:53:07:323107,0,2,1,1,6,1,-1,-3
13:53:07:329055,1,0,4,1,-4,-5,5,0
13:53:07:337396,1,0,4,1,-4,-5,5,0
13:53:07:338110,-3,-7,1,5,2,-1,-2,-2
13:53:07:351674,-2,5,-3,-2,-1,0,-5,0
13:53:07:359865,-2,5,-3,-2,-1,0,-5,0
13:53:07:360633,3,4,0,-1,-5,-6,16,-2
13:53:07:366737,-5,0,2,-15,3,3,3,-1
13:53:07:382323,-5,0,2,-15,3,3,3,-1
13:53:07:383109,-2,-1,2,-5,-8,1,10,1
13:53:07:389211,3,-7,4,-5,-1,-1,-6,-5
13:53:07:397385,3,-7,4,-5,-1,-1,-6,-5
13:53:07:398127,3,4,3,2,-3,-7,-7,0
13:53:07:411643,-3,-1,0,3,-3,-2,5,2
13:53:07:419858,-3,-1,0,3,-3,-2,5,2
13:53:07:420612,-1,-14,0,-2,-1,-4,-3,-3
13:53:07:426631,1,1,-1,8,9,6,-10,2
13:53:07:442357,1,1,-1,8,9,6,-10,2
13:53:07:443123,-2,3,2,-1,1,1,-7,1
13:53:07:449116,-6,-1,0,-3,-5,2,5,-4
13:53:07:456761,-6,-1,0,-3,-5,2,5,-4
13:53:07:464080,1,-1,-8,-1,-5,-3,0,3
13:53:07:471675,1,-9,-9,-6,2,-5,-1,0
13:53:07:479867,1,-9,-9,-6,2,-5,-1,0
13:53:07:480612,2,-3,-7,1,-6,0,-6,-2
13:53:07:494131,3,-1,-54,-3,-3,-1,6,-1
13:53:07:502338,3,-1,-54,-3,-3,-1,6,-1
13:53:07:503139,1,-3,8,1,22,7,-3,-2
13:53:07:509158,-2,5,17,3,-2,-2,-1,0
13:53:07:516789,-2,5,17,3,-2,-2,-1,0
13:53:07:524158,-4,4,-10,-1,-5,0,0,-1
13:53:07:531607,-2,-1,11,1,-1,-3,6,-1
13:53:07:539955,-2,-1,11,1,-1,-3,6,-1
13:53:07:540604,-2,-2,-3,2,-4,1,-5,0
13:53:07:554209,1,4,5,0,-6,-4,-9,-3
13:53:07:562399,1,4,5,0,-6,-4,-9,-3
13:53:07:563144,-9,-9,-9,-3,2,0,6,-1
13:53:07:569171,1,-1,16,-3,-4,4,0,-1
13:53:07:576744,1,-1,16,-3,-4,4,0,-1
13:53:07:584199,0,11,-1,-4,0,-7,7,8
13:53:07:591645,3,-11,-42,-6,5,-7,7,-5
13:53:07:599866,3,-11,-42,-6,5,-7,7,-5
13:53:07:600602,-3,-3,-10,3,-2,-6,-1,-1
13:53:07:614774,-1,7,6,2,1,-1,-4,0
13:53:07:615559,-1,7,6,2,1,-1,-4,0
13:53:07:621717,-3,-3,-7,-3,-6,0,-7,-4
13:53:07:629097,-7,-1,9,7,-1,-6,-14,0
13:53:07:636722,-7,-1,9,7,-1,-6,-14,0
13:53:07:644098,-2,3,31,5,3,7,2,-10
13:53:07:651685,3,-5,11,7,-10,-4,-9,-2
13:53:07:659859,3,-5,11,7,-10,-4,-9,-2
13:53:07:660619,4,2,5,3,-3,3,0,6
13:53:07:674158,2,7,9,1,-3,10,0,4
13:53:07:682292,2,7,9,1,-3,10,0,4
13:53:07:683095,1,1,4,4,5,-1,-8,-6
13:53:07:689221,1,-2,-25,-9,3,-5,-4,3
13:53:07:696660,1,-2,-25,-9,3,-5,-4,3
13:53:07:704168,-4,-10,0,-2,-4,-6,0,-8
13:53:07:711596,-3,-4,24,-6,-1,2,10,-4
13:53:07:719872,-3,-4,24,-6,-1,2,10,-4
13:53:07:720649,6,6,-44,-10,-3,-4,19,6
13:53:07:734162,1,-6,2,3,8,11,-5,7
13:53:07:742360,1,-6,2,3,8,11,-5,7
13:53:07:743119,-1,3,25,2,-6,1,-14,1
13:53:07:749124,-4,4,4,-4,0,3,-15,-3
13:53:07:756759,-4,4,4,-4,0,3,-15,-3
13:53:07:764072,1,-4,-6,-3,-6,-15,0,6
13:53:07:771680,-6,-4,1,2,-7,-8,1,-3
13:53:07:779884,-6,-4,1,2,-7,-8,1,-3
13:53:07:780612,5,1,5,-2,1,0,-2,-1
13:53:07:794890,2,-9,-8,-4,2,-5,31,-13
13:53:07:795643,2,-9,-8,-4,2,-5,31,-13
13:53:07:801711,-12,-8,7,6,-2,-9,-4,-26
13:53:07:809131,2,16,14,1,-7,3,8,-1
13:53:07:816692,2,16,14,1,-7,3,8,-1
13:53:07:824143,2,-12,4,3,11,17,-5,9
13:53:07:831619,1,-3,5,-4,-12,-8,-16,-6
13:53:07:839869,1,-3,5,-4,-12,-8,-16,-6
13:53:07:840595,-3,3,-26,-12,-8,-9,-4,11
13:53:07:854935,-1,-6,2,2,5,6,-2,7
13:53:07:855682,-1,-6,2,2,5,6,-2,7
13:53:07:861632,1,-8,-11,-13,4,18,-1,-3
13:53:07:869134,-2,1,-6,1,-9,-4,-5,3
13:53:07:876653,-2,1,-6,1,-9,-4,-5,3
13:53:07:884218,-5,7,33,4,4,11,9,-12
13:53:07:891636,4,7,22,-3,2,2,2,1
13:53:07:899847,4,7,22,-3,2,2,2,1
13:53:07:900653,4,-5,-10,5,5,-5,-10,9
13:53:07:914794,-2,0,-3,-3,1,-11,-9,1
13:53:07:915570,-2,0,-3,-3,1,-11,-9,1
13:53:07:921736,-3,12,3,-6,-8,2,-3,-3
13:53:07:929108,-3,-1,24,25,9,6,-8,3
13:53:07:936729,-3,-1,24,25,9,6,-8,3
13:53:07:944099,-7,-9,-8,10,-12,-11,7,15
13:53:07:951597,1,10,-9,-10,13,1,1,-3
13:53:07:959833,1,10,-9,-10,13,1,1,-3
13:53:07:960609,3,11,3,-3,-6,-3,-3,3
13:53:07:974828,-2,5,-10,2,5,5,-3,-11
13:53:07:975618,-2,5,-10,2,5,5,-3,-11
13:53:07:981576,3,2,-23,-8,7,3,3,-3
13:53:07:989171,-4,-7,-22,3,-8,-9,13,4
13:53:07:996661,-4,-7,-22,3,-8,-9,13,4
13:53:08:4166,-1,-3,13,0,2,6,-15,-8
13:53:08:11599,2,2,36,10,15,16,-15,1
13:53:08:19918,2,2,36,10,15,16,-15,1
13:53:08:20644,-10,-28,1,-11,-7,-11,6,-7
13:53:08:34817,-6,-8,9,21,-3,7,1,-5
13:53:08:35626,-6,-8,9,21,-3,7,1,-5
13:53:08:41625,2,3,20,1,-11,-9,14,0
13:53:08:49119,-7,-5,3,-13,1,1,-11,-8
13:53:08:56741,-7,-5,3,-13,1,1,-11,-8
13:53:08:64068,6,14,1,1,-5,2,-11,-3
13:53:08:71697,-2,-13,-18,-4,-9,-11,4,-4
13:53:08:79869,-2,-13,-18,-4,-9,-11,4,-4
13:53:08:80636,-6,-4,0,3,7,-1,6,5
13:53:08:94883,0,-9,49,-30,-4,8,1,1
13:53:08:95640,0,-9,49,-30,-4,8,1,1
13:53:08:101651,4,-7,0,0,1,-5,3,-2
13:53:08:109130,-9,-7,-56,-15,-6,-17,3,-1
13:53:08:116826,-9,-7,-56,-15,-6,-17,3,-1
13:53:08:124123,-5,-3,38,2,-8,-9,-12,-12
13:53:08:131605,5,3,-23,-15,6,9,7,7
13:53:08:139887,5,3,-23,-15,6,9,7,7
13:53:08:140595,-3,-1,-27,-4,2,3,-5,-3
13:53:08:154859,-7,-9,15,15,-2,-4,-9,-10
13:53:08:155616,-7,-9,15,15,-2,-4,-9,-10
13:53:08:161633,-3,10,-12,-3,-12,-10,10,-11
13:53:08:169145,2,11,-45,8,-12,-4,6,6
13:53:08:176664,2,11,-45,8,-12,-4,6,6
13:53:08:184194,12,-4,-18,15,5,7,-5,1
13:53:08:191686,-3,-18,-9,3,-12,-6,3,-6
13:53:08:199832,-3,-18,-9,3,-12,-6,3,-6
13:53:08:200652,3,8,-16,14,8,6,-3,8
13:53:08:214774,-3,2,5,3,0,-7,-8,-19
13:53:08:215558,-3,2,5,3,0,-7,-8,-19
13:53:08:221702,-6,-15,-11,-4,0,-9,-2,-3
13:53:08:229118,5,2,8,3,8,-3,-1,-7
13:53:08:236735,5,2,8,3,8,-3,-1,-7
13:53:08:244104,-7,4,-18,-8,3,7,-9,-8
13:53:08:251644,-3,3,11,1,2,-4,-7,9
13:53:08:259885,-3,3,11,1,2,-4,-7,9
13:53:08:260637,3,-15,4,-6,18,8,-10,7
13:53:08:274827,-9,-9,-71,-9,6,6,1,7
13:53:08:275627,-9,-9,-71,-9,6,6,1,7
13:53:08:281583,0,3,2,16,-15,-10,4,-2
13:53:08:289162,4,7,13,4,0,1,5,1
13:53:08:296634,4,7,13,4,0,1,5,1
13:53:08:304189,-3,4,-4,-5,-10,-7,0,0
13:53:08:311585,-7,2,21,-5,-12,-17,5,3
13:53:08:319881,-7,2,21,-5,-12,-17,5,3
13:53:08:320658,9,6,21,4,2,12,6,1
13:53:08:334898,1,-5,53,-12,-11,-5,-6,1
13:53:08:335579,1,-5,53,-12,-11,-5,-6,1
13:53:08:341627,-4,-6,-14,0,10,7,-6,1
13:53:08:349124,6,14,-15,-7,-10,1,0,0
13:53:08:356799,6,14,-15,-7,-10,1,0,0
13:53:08:364088,-4,6,7,-9,-7,-1,13,2
13:53:08:371699,2,6,-8,4,1,-1,0,0
13:53:08:379853,2,6,-8,4,1,-1,0,0
13:53:08:380602,-2,1,11,-8,-15,-31,-11,-4
13:53:08:394888,0,-11,-15,-1,3,3,0,1
13:53:08:395642,0,-11,-15,-1,3,3,0,1
13:53:08:401690,-13,-10,27,-7,0,-5,3,-9
13:53:08:417454,4,-1,16,2,5,4,11,7
13:53:08:418123,4,-1,16,2,5,4,11,7
13:53:08:424146,3,1,-6,-3,-2,-1,7,5
13:53:08:431649,-1,-1,-30,-2,6,5,-2,0
13:53:08:439253,-1,-1,-30,-2,6,5,-2,0
13:53:08:446649,2,2,-13,4,-1,4,2,-4
13:53:08:454945,-2,-4,3,-8,-7,-3,7,-4
13:53:08:455642,-2,-4,3,-8,-7,-3,7,-4
13:53:08:461624,-8,1,-8,-1,6,-2,-21,-3
13:53:08:477294,-2,-1,7,-5,-2,-8,-33,-16
13:53:08:478152,-2,-1,7,-5,-2,-8,-33,-16
13:53:08:484153,4,-9,-37,5,5,0,1,1
13:53:08:491624,-10,1,1,-1,5,-4,-9,-5
13:53:08:499135,-10,1,1,-1,5,-4,-9,-5
13:53:08:506754,0,8,21,0,-5,6,-10,3
13:53:08:514774,0,-4,-22,-4,-5,-2,12,7
13:53:08:515571,0,-4,-22,-4,-5,-2,12,7
13:53:08:529136,2,-3,7,-4,-5,-5,0,5
13:53:08:537364,2,3,32,10,-2,3,-1,12
13:53:08:538081,2,3,32,10,-2,3,-1,12
13:53:08:544148,-2,4,-28,-12,-3,-5,10,-3
13:53:08:551639,2,-5,-14,13,0,4,5,4
13:53:08:559177,2,-5,-14,13,0,4,5,4
13:53:08:566663,1,0,19,-7,-5,-6,1,-8
13:53:08:574897,-4,7,-2,-8,-13,-6,4,6
13:53:08:575635,-4,7,-2,-8,-13,-6,4,6
13:53:08:581579,0,-19,-3,-1,4,8,-11,3
13:53:08:597775,0,3,27,-1,-13,-10,0,-10
13:53:08:604908,0,3,27,-1,-13,-10,0,-10
13:53:08:605652,-1,1,15,2,11,16,-2,-9
13:53:08:611636,5,-2,0,-3,-2,0,1,-4
13:53:08:619223,5,-2,0,-3,-2,0,1,-4
13:53:08:626641,-8,0,12,7,-1,-13,-7,-8
13:53:08:634894,-11,-10,-7,0,0,-6,-12,-11
13:53:08:635621,-11,-10,-7,0,0,-6,-12,-11
13:53:08:641671,-6,4,-37,-8,-2,3,6,8
13:53:08:657348,2,1,-3,-3,14,7,-1,2
13:53:08:658147,2,1,-3,-3,14,7,-1,2
13:53:08:664073,2,-1,19,8,3,2,-7,-2
13:53:08:679785,-6,-1,-27,-7,6,-9,-4,-16
13:53:08:680572,-6,-1,-27,-7,6,-9,-4,-16
13:53:08:686635,0,6,3,2,4,10,18,7
13:53:08:694832,2,9,20,-6,3,7,-1,0
13:53:08:695599,2,9,20,-6,3,7,-1,0
13:53:08:701669,0,0,-3,-11,-7,-2,-26,1
13:53:08:717385,2,-8,3,5,2,-3,7,0
13:53:08:718131,2,-8,3,5,2,-3,7,0
13:53:08:724110,7,0,25,-1,-3,-1,-3,2
13:53:08:731570,-2,-2,5,0,1,1,-9,0
13:53:08:739208,-2,-2,5,0,1,1,-9,0
13:53:08:746608,-1,-2,-13,5,4,-9,-6,-3
13:53:08:754934,-1,-8,-7,4,7,1,6,-1
13:53:08:755603,-1,-8,-7,4,7,1,6,-1
13:53:08:761601,-2,-10,-11,-11,-1,-1,15,4
13:53:08:777295,-1,4,-13,-3,-3,6,36,6
13:53:08:778111,-1,4,-13,-3,-3,6,36,6
13:53:08:784183,0,-2,31,3,-5,7,7,5
13:53:08:791655,-4,-2,-16,-5,-10,-11,-33,-7
13:53:08:807365,-4,-2,-16,-5,-10,-11,-33,-7
13:53:08:808121,-2,-6,-1,7,6,1,5,-16
13:53:08:814788,-2,-1,6,14,3,0,-2,2
13:53:08:815611,-2,-1,6,14,3,0,-2,2
13:53:08:821684,-5,-2,-13,-9,2,-5,-6,4
13:53:08:837398,6,4,-20,-12,-6,8,-11,2
13:53:08:838132,6,4,-20,-12,-6,8,-11,2
13:53:08:844130,-2,-1,-15,-5,-2,-2,7,-7
13:53:08:851633,-3,-2,-10,-2,-3,-3,7,-4
13:53:08:859199,-3,-2,-10,-2,-3,-3,7,-4
13:53:08:866648,5,12,13,17,8,18,13,4
13:53:08:874837,-1,-8,1,2,-7,6,-5,11
13:53:08:875620,-1,-8,1,2,-7,6,-5,11
13:53:08:881597,-3,-7,-7,-4,-11,-21,-17,-9
13:53:08:897306,1,-9,54,-2,-10,-3,-17,-18
13:53:08:898103,1,-9,54,-2,-10,-3,-17,-18
13:53:08:904179,-2,6,11,1,-2,2,-6,-4
13:53:08:911634,0,0,-9,2,0,-1,5,3
13:53:08:919185,0,0,-9,2,0,-1,5,3
13:53:08:926638,-4,1,-14,-5,-2,1,-4,-2
13:53:08:934921,2,0,-7,-1,0,4,-1,5
13:53:08:935652,2,0,-7,-1,0,4,-1,5
13:53:08:941667,2,4,0,-2,-4,0,-12,11
13:53:08:957350,6,6,42,-4,0,4,-12,0
13:53:08:958139,6,6,42,-4,0,4,-12,0
13:53:08:964091,2,-17,-23,-10,-5,-8,-1,0
13:53:08:971722,1,2,-2,-6,-2,0,3,-5
13:53:08:979195,1,2,-2,-6,-2,0,3,-5
13:53:08:986672,2,3,7,0,-8,-4,11,-3
13:53:08:994797,-4,1,-19,-5,-2,-9,3,3
13:53:08:995599,-4,1,-19,-5,-2,-9,3,3
13:53:09:1667,-3,1,-9,-6,-1,1,8,1
13:53:09:17339,1,6,-4,4,5,3,-3,-4
13:53:09:18083,1,6,-4,4,5,3,-3,-4
13:53:09:24183,-9,-11,-18,-1,8,-7,-14,-23
13:53:09:31616,-2,6,7,-6,2,-14,-11,-6
13:53:09:39203,-2,6,7,-6,2,-14,-11,-6
13:53:09:46663,-5,1,17,7,-4,1,4,7
13:53:09:54890,-2,-8,-18,-8,-4,-2,5,1
13:53:09:55638,-2,-8,-18,-8,-4,-2,5,1
13:53:09:61579,0,-1,18,8,7,5,-17,0
13:53:09:85591,-7,-10,-48,-4,-1,-5,-3,3
13:53:09:86339,-7,-10,-48,-4,-1,-5,-3,3
13:53:09:87144,3,-1,-21,-1,-8,-12,-6,1
13:53:09:91609,-1,-5,2,1,5,-1,4,-4
13:53:09:99252,-1,-5,2,1,5,-1,4,-4
13:53:09:106737,3,-5,-12,-3,0,5,7,9
13:53:09:114780,0,-2,-34,0,0,0,6,0
13:53:09:115606,0,-2,-34,0,0,0,6,0
13:53:09:121719,0,3,8,0,-1,2,16,1
13:53:09:137369,-11,3,34,5,0,9,2,1
13:53:09:138094,-11,3,34,5,0,9,2,1
13:53:09:144131,-6,1,15,-4,-8,9,3,6
13:53:09:151672,-4,3,36,12,7,9,5,-2
13:53:09:167416,-4,3,36,12,7,9,5,-2
13:53:09:168135,-9,-2,8,-13,-3,-8,-5,-11
13:53:09:174803,0,0,20,5,-3,-7,5,-1
13:53:09:175614,0,0,20,5,-3,-7,5,-1
13:53:09:181629,4,3,23,7,0,0,-3,-19
13:53:09:197279,9,-8,-28,-1,-3,8,-1,2
13:53:09:198065,9,-8,-28,-1,-3,8,-1,2
13:53:09:204241,8,3,0,6,6,5,-7,3
13:53:09:211640,2,4,9,7,-12,-8,14,0
13:53:09:219159,2,4,9,7,-12,-8,14,0
13:53:09:226692,5,-1,3,0,-4,-5,-14,-4
13:53:09:234879,2,2,-17,-6,-6,-6,-6,6
13:53:09:235603,2,2,-17,-6,-6,-6,-6,6
13:53:09:241586,2,-1,-7,6,-1,-3,-3,4
13:53:09:257285,0,1,15,-9,-4,3,5,-5
13:53:09:258120,0,1,15,-9,-4,3,5,-5
13:53:09:264084,3,-1,-40,4,-8,-15,-3,3
13:53:09:271712,-2,-19,-24,5,4,-6,-26,-7
13:53:09:279137,-2,-19,-24,5,4,-6,-26,-7
13:53:09:286660,-2,0,-2,1,3,3,8,-3
13:53:09:294792,-5,0,-10,-4,4,-6,-16,-9
13:53:09:295595,-5,0,-10,-4,4,-6,-16,-9
13:53:09:301691,-6,-6,2,-1,-3,1,19,6
13:53:09:317422,9,15,4,-3,-8,6,18,8
13:53:09:318150,9,15,4,-3,-8,6,18,8
13:53:09:324147,0,-4,-70,-1,-3,-9,7,9
13:53:09:339876,1,3,21,0,-2,0,23,-3
13:53:09:340598,1,3,21,0,-2,0,23,-3
13:53:09:346604,1,12,12,-5,-1,9,-20,-3
13:53:09:354919,-9,-2,-12,-1,-4,1,-4,-6
13:53:09:355658,-9,-2,-12,-1,-4,1,-4,-6
13:53:09:369142,-2,-2,40,4,6,1,-9,-7
13:53:09:377323,-3,11,19,0,10,3,-11,-2
13:53:09:378129,-3,11,19,0,10,3,-11,-2
13:53:09:384174,-2,-8,-18,-20,3,7,-4,6
13:53:09:399900,-2,-8,-18,-20,3,7,-4,6
13:53:09:400648,4,-6,6,-2,-9,-7,-13,4
13:53:09:406788,2,4,7,-5,4,6,15,0
13:53:09:414807,2,4,7,-5,4,6,15,0
13:53:09:415637,-4,6,-14,-7,-4,-6,23,3
13:53:09:446128,-15,-17,17,-3,1,-4,-5,-19
13:53:09:446953,-15,-17,17,-3,1,-4,-5,-19
13:53:09:447745,0,0,-19,3,0,-1,-1,4
13:53:09:448537,5,17,-14,2,-10,-8,-8,-9
13:53:09:459883,5,17,-14,2,-10,-8,-8,-9
13:53:09:460658,-1,-9,-16,-11,3,-1,-13,-1
13:53:09:466619,-1,-11,7,-8,-7,-13,5,-1
13:53:09:474899,-1,-11,7,-8,-7,-13,5,-1
13:53:09:475677,3,0,1,4,4,17,-2,0
13:53:09:489213,-3,11,-1,5,1,4,-8,2
13:53:09:497316,-3,11,-1,5,1,4,-8,2
13:53:09:498118,4,-5,3,-11,4,-12,-13,3
13:53:09:504135,6,1,32,-1,-10,6,6,8
13:53:09:528054,6,1,32,-1,-10,6,6,8
13:53:09:528801,5,1,-10,5,-2,-4,-10,-17
13:53:09:529569,0,-9,-8,8,-1,3,-6,7
13:53:09:534904,0,-9,-8,8,-1,3,-6,7
13:53:09:535584,-4,7,17,7,5,-2,-2,1
13:53:09:549155,1,-16,-20,-6,-3,1,6,8
13:53:09:557385,1,-16,-20,-6,-3,1,6,8
13:53:09:558141,-7,-13,-2,1,5,1,5,-6
13:53:09:564100,-2,7,-1,-3,5,8,-1,5
13:53:09:579838,-2,7,-1,-3,5,8,-1,5
13:53:09:580602,-3,-5,-10,2,-5,-7,2,4
13:53:09:586681,-2,4,2,-5,-1,-3,-7,-4
13:53:09:594897,-2,4,2,-5,-1,-3,-7,-4
13:53:09:595669,-5,-5,4,-3,-13,-8,1,-4
13:53:09:609117,1,5,9,5,4,-3,7,-3
13:53:09:617448,1,5,9,5,4,-3,7,-3
13:53:09:618132,-3,-11,-12,3,12,5,-3,-2
13:53:09:624141,-1,-3,-7,4,-5,-13,-6,-8
13:53:09:639902,-1,-3,-7,4,-5,-13,-6,-8
13:53:09:640637,-3,9,5,-14,-1,4,8,-2
13:53:09:646603,0,9,10,4,3,5,-6,9
13:53:09:654989,0,9,10,4,3,5,-6,9
13:53:09:655603,-1,-6,13,3,-10,-1,0,6
13:53:09:669135,-2,-2,-7,-2,-7,-10,-4,-4
13:53:09:677407,-2,-2,-7,-2,-7,-10,-4,-4
13:53:09:678140,-2,5,-11,-14,-4,-2,-6,6
13:53:09:684206,3,4,-3,9,-2,6,9,0
13:53:09:699841,3,4,-3,9,-2,6,9,0
13:53:09:700681,2,7,-60,-6,0,1,-2,1
13:53:09:706713,-8,-17,12,2,2,-2,-4,-8
13:53:09:714854,-8,-17,12,2,2,-2,-4,-8
13:53:09:715599,-4,5,0,7,0,4,-7,-8
13:53:09:729104,-5,-9,-40,-17,1,-11,-3,-7
13:53:09:737399,-5,-9,-40,-17,1,-11,-3,-7
13:53:09:738175,4,-2,15,-4,-5,-1,-14,9
13:53:09:744101,4,5,16,11,3,-3,-10,-4
13:53:09:759848,4,5,16,11,3,-3,-10,-4
13:53:09:760640,0,-5,-5,-6,-6,-6,9,1
13:53:09:766644,1,3,-11,-2,4,-3,-4,-3
13:53:09:774864,1,3,-11,-2,4,-3,-4,-3
13:53:09:775658,4,3,29,3,-8,-5,11,-3
13:53:09:789202,2,-7,-11,-7,3,9,4,4
13:53:09:805566,2,-7,-11,-7,3,9,4,4
13:53:09:806229,-1,4,40,7,-7,-1,3,-12
13:53:09:807032,-2,6,2,-13,-6,2,3,5
13:53:09:819831,-2,6,2,-13,-6,2,3,5
13:53:09:820578,-10,-4,-4,6,6,1,1,1
13:53:09:826599,-3,-8,16,0,5,-1,-3,-4
13:53:09:834825,-3,-8,16,0,5,-1,-3,-4
13:53:09:835590,-4,-1,12,-4,-2,-5,-1,1
13:53:09:849129,3,3,-23,-11,1,6,1,4
13:53:09:857321,3,3,-23,-11,1,6,1,4
13:53:09:858061,9,11,-43,-1,-4,2,6,16
13:53:09:864119,2,5,21,12,-7,1,-8,-6
13:53:09:879853,2,5,21,12,-7,1,-8,-6
13:53:09:880590,-2,1,6,3,4,6,-7,3
13:53:09:886675,-11,-1,1,-1,-3,-6,11,-16
13:53:09:894795,-11,-1,1,-1,-3,-6,11,-16
13:53:09:895603,-1,-13,5,3,-2,0,0,-6
13:53:09:909096,-4,-13,18,-3,-1,-2,4,4
13:53:09:917458,-4,-13,18,-3,-1,-2,4,4
13:53:09:918184,-1,-4,-14,3,-2,-10,-3,-6
13:53:09:924157,3,1,0,9,-4,0,-5,6
13:53:09:940040,3,1,0,9,-4,0,-5,6
13:53:09:940659,-16,-16,14,4,9,-6,0,-15
13:53:09:946611,1,0,37,-5,-4,1,0,-2
13:53:09:954992,1,0,37,-5,-4,1,0,-2
13:53:09:955677,-1,9,-21,-6,-3,-8,-2,3
13:53:09:969127,-7,-3,-19,-10,5,3,-3,-5
13:53:09:977410,-7,-3,-19,-10,5,3,-3,-5
13:53:09:978166,3,-7,7,-4,-3,4,-9,0
13:53:09:984211,0,3,-12,8,-2,-4,7,3
13:53:09:999849,0,3,-12,8,-2,-4,7,3
13:53:10:656,-2,-18,0,-1,3,9,3,1
13:53:10:6723,-3,-7,10,-4,-8,-9,17,-8
13:53:10:14886,-3,-7,10,-4,-8,-9,17,-8
13:53:10:15608,1,3,-8,4,3,-3,-16,-2
13:53:10:29113,1,-3,-3,5,-4,0,-3,4
13:53:10:37366,1,-3,-3,5,-4,0,-3,4
13:53:10:38137,-1,0,-1,1,-1,2,-3,-4
13:53:10:44089,2,8,-7,6,4,0,-2,4
13:53:10:59862,2,8,-7,6,4,0,-2,4
13:53:10:60581,2,9,10,-2,-2,1,8,1
13:53:10:66578,3,-10,-15,-7,-6,-10,-7,1
13:53:10:74815,3,-10,-15,-7,-6,-10,-7,1
13:53:10:75608,-4,9,-11,2,-1,-7,-15,-9
13:53:10:89138,-1,12,5,1,-2,2,-8,-4
13:53:10:97326,-1,12,5,1,-2,2,-8,-4
13:53:10:98096,3,5,-9,-5,0,6,3,-11
13:53:10:104197,-1,-1,0,8,0,-2,-11,-1
13:53:10:119935,-1,-1,0,8,0,-2,-11,-1
13:53:10:120627,-1,-5,3,-6,-1,-1,-2,-1
13:53:10:126597,1,4,-44,1,8,7,0,4
13:53:10:134905,1,4,-44,1,8,7,0,4
13:53:10:135656,-8,-16,-41,0,-8,5,98,-5
13:53:10:149186,-3,3,21,-7,-5,-10,-63,-1
13:53:10:157356,-3,3,21,-7,-5,-10,-63,-1
13:53:10:158128,2,5,-1,1,-4,-2,-18,9
13:53:10:164060,-4,2,4,3,1,5,-38,-4
13:53:10:179805,-4,2,4,3,1,5,-38,-4
13:53:10:180573,4,-3,52,5,-5,-9,-27,-7
13:53:10:186665,5,-9,-30,-2,6,-3,6,3
13:53:10:194835,5,-9,-30,-2,6,-3,6,3
13:53:10:195586,5,-9,-5,-4,-1,-3,-3,14
13:53:10:209147,-5,-7,-18,1,-4,10,40,-8
13:53:10:217374,-5,-7,-18,1,-4,10,40,-8
13:53:10:218109,-6,-7,-8,-2,5,1,-9,9
13:53:10:224157,-4,-11,2,-7,-1,-4,30,-8
13:53:10:239930,-4,-11,2,-7,-1,-4,30,-8
13:53:10:240659,-3,0,7,-1,2,5,1,2
13:53:10:246630,-7,6,22,-6,-4,-4,-10,-1
13:53:10:254940,-7,6,22,-6,-4,-4,-10,-1
13:53:10:255675,-3,10,-10,-3,0,6,-24,6
13:53:10:269143,-1,0,16,-7,-7,-5,0,-1
13:53:10:277342,-1,0,16,-7,-7,-5,0,-1
13:53:10:278073,-3,3,15,-4,-8,-7,-7,-7
13:53:10:291698,3,-4,2,5,0,1,7,2
13:53:10:299841,3,-4,2,5,0,1,7,2
13:53:10:300581,8,0,-8,6,5,2,-3,-9
13:53:10:306712,2,10,12,-9,-4,-5,4,4
13:53:10:314132,2,10,12,-9,-4,-5,4,4
13:53:10:321734,-1,11,-68,-3,3,3,-14,-1
13:53:10:329146,5,1,8,-2,-4,-1,-11,-20
13:53:10:337461,5,1,8,-2,-4,-1,-11,-20
13:53:10:338141,-3,-6,23,-4,-4,-6,-5,-9
13:53:10:351697,-1,-6,6,-2,-3,5,14,12
13:53:10:359845,-1,-6,6,-2,-3,5,14,12
13:53:10:360661,2,-4,11,-1,-7,-2,0,3
13:53:10:366589,-4,-5,-14,3,5,-3,-8,-3
13:53:10:374175,-4,-5,-14,3,5,-3,-8,-3
13:53:10:381565,-6,-1,10,-7,3,-11,18,1
13:53:10:389177,3,5,-16,-18,-3,4,-5,1
13:53:10:397323,3,5,-16,-18,-3,4,-5,1
13:53:10:398098,0,14,-3,7,-2,-2,5,-4
13:53:10:411601,-1,1,-20,-1,-1,-4,-12,-2
13:53:10:419940,-1,1,-20,-1,-1,-4,-12,-2
13:53:10:420631,0,-22,20,5,9,8,20,-3
13:53:10:426603,3,-5,31,11,4,-1,-4,6
13:53:10:434277,3,-5,31,11,4,-1,-4,6
13:53:10:441651,-3,2,0,3,-6,-5,-8,5
13:53:10:449137,-115,4,-9,-5,4,-12,27,-2
13:53:10:457380,-115,4,-9,-5,4,-12,27,-2
13:53:10:458179,-128,-7,27,-7,1,-21,20,-8
13:53:10:471694,38,-1,3,-1,-2,2,-4,2
13:53:10:479844,38,-1,3,-1,-2,2,-4,2
13:53:10:480616,102,1,-26,-7,-7,0,-16,3
13:53:10:486698,84,-5,-2,-2,3,6,-7,-13
13:53:10:494244,84,-5,-2,-2,3,6,-7,-13
13:53:10:501683,66,9,-2,-7,-3,19,10,3
13:53:10:509168,36,0,-8,10,3,3,-22,-1
13:53:10:518095,36,0,-8,10,3,3,-22,-1
13:53:10:518769,22,9,-5,-2,-4,0,-23,-1
13:53:10:531636,11,-3,-22,2,-1,-6,11,4
13:53:10:539968,11,-3,-22,2,-1,-6,11,4
13:53:10:540671,25,-5,-6,-13,-6,-5,-9,-2
13:53:10:554920,42,7,-2,-9,-11,-3,-7,-6
13:53:10:555684,42,7,-2,-9,-11,-3,-7,-6
13:53:10:561639,26,1,17,5,8,8,-1,-6
13:53:10:569123,0,-1,1,-11,-4,1,-2,3
13:53:10:577405,0,-1,1,-11,-4,1,-2,3
13:53:10:578189,3,-5,35,-3,-9,-6,-8,0
13:53:10:591641,7,-14,-5,-8,0,-6,7,2
13:53:10:599893,7,-14,-5,-8,0,-6,7,2
13:53:10:600660,-2,-2,-7,2,3,0,-11,-3
13:53:10:606675,-5,6,12,17,4,-1,3,4
13:53:10:614189,-5,6,12,17,4,-1,3,4
13:53:10:621761,-11,-4,-27,-3,4,-2,-9,-3
13:53:10:629104,-14,-8,-3,-7,-7,0,-3,-7
13:53:10:637377,-14,-8,-3,-7,-7,0,-3,-7
13:53:10:638096,-2,-6,30,-5,-5,-6,-9,-7
13:53:10:651691,5,11,15,3,-2,1,-6,-3
13:53:10:659867,5,11,15,3,-2,1,-6,-3
13:53:10:660651,2,-3,-14,-6,-2,-7,-9,-5
13:53:10:666768,-3,-10,7,4,3,2,11,0
13:53:10:674213,-3,-10,7,4,3,2,11,0
13:53:10:681635,-3,1,-6,11,3,2,11,2
13:53:10:689232,-6,-17,-12,0,-4,-3,11,-3
13:53:10:697274,-6,-17,-12,0,-4,-3,11,-3
13:53:10:698071,0,-6,-13,-2,-3,-1,10,5
13:53:10:711642,-10,2,0,-13,2,1,-2,2
13:53:10:719929,-10,2,0,-13,2,1,-2,2
13:53:10:720633,-9,9,14,-3,-8,8,-3,6
13:53:10:726679,-4,2,12,-1,3,-4,-14,0
13:53:10:734242,-4,2,12,-1,3,-4,-14,0
13:53:10:749807,-5,-4,19,-5,-2,-4,1,-2
13:53:10:750553,4,4,32,2,-7,3,-5,-3
13:53:10:757354,4,4,32,2,-7,3,-5,-3
13:53:10:758083,-4,-10,4,10,2,2,14,-7
13:53:10:771709,-1,-1,2,12,-1,5,-5,-4
13:53:10:779784,-1,-1,2,12,-1,5,-5,-4
13:53:10:780550,-6,-5,-24,6,-1,1,9,0
13:53:10:786723,0,-11,-20,-1,3,-4,6,-5
13:53:10:794165,0,-11,-20,-1,3,-4,6,-5
13:53:10:801635,-3,-2,-17,0,5,-4,-8,5
13:53:10:809103,-2,5,22,-1,-8,0,-12,4
13:53:10:817461,-2,5,22,-1,-8,0,-12,4
13:53:10:818153,-4,-3,-7,1,-4,-5,-21,1
13:53:10:832049,0,12,-23,0,1,-9,-11,-10
13:53:10:839891,0,12,-23,0,1,-9,-11,-10
13:53:10:840590,4,14,12,-2,3,10,-8,-3
13:53:10:846534,0,14,-5,4,1,0,12,3
13:53:10:854208,0,14,-5,4,1,0,12,3
13:53:10:861594,5,2,-13,0,-6,2,8,4
13:53:10:869097,-10,-9,-16,-4,0,-3,-3,-4
13:53:10:877315,-10,-9,-16,-4,0,-3,-3,-4
13:53:10:878113,-4,-13,2,-9,0,0,7,-4
13:53:10:891577,5,9,30,10,1,-4,-2,-1
13:53:10:899835,5,9,30,10,1,-4,-2,-1
13:53:10:900668,0,5,25,-3,3,0,-10,-2
13:53:10:906688,-2,-14,-1,-9,-5,4,3,-7
13:53:10:914157,-2,-14,-1,-9,-5,4,3,-7
13:53:10:921760,1,7,21,-6,3,-4,2,-2
13:53:10:929090,-4,-13,-16,-1,-3,-2,-13,7
13:53:10:937399,-4,-13,-16,-1,-3,-2,-13,7
13:53:10:938151,4,-4,-15,-1,-2,-9,-21,-3
13:53:10:951641,-3,-5,4,-13,-2,2,0,-4
13:53:10:959857,-3,-5,4,-13,-2,2,0,-4
13:53:10:960640,1,-8,31,-10,-3,-11,-4,-4
13:53:10:966618,0,-10,3,6,2,-2,32,8
13:53:10:974176,0,-10,3,6,2,-2,32,8
13:53:10:981640,-6,-14,-12,-4,0,-1,7,1
13:53:10:989199,-2,10,-45,-9,16,0,-7,5
13:53:10:997298,-2,10,-45,-9,16,0,-7,5
13:53:10:998082,3,14,-9,-3,-1,0,3,-3
13:53:11:11618,4,5,-21,1,5,6,11,9
13:53:11:28030,4,5,-21,1,5,6,11,9
13:53:11:28743,-5,-6,-29,5,-5,2,2,-4
13:53:11:29577,1,-7,12,4,-7,-3,-17,-5
13:53:11:34279,1,-7,12,4,-7,-3,-17,-5
13:53:11:41641,-3,-23,-21,11,-7,-12,-6,3
13:53:11:49143,-6,-4,12,1,-6,-5,2,-1
13:53:11:57336,-6,-4,12,1,-6,-5,2,-1
13:53:11:58110,-3,17,14,1,-1,-2,3,0
13:53:11:71707,-5,3,-12,5,-1,5,-3,3
13:53:11:79869,-5,3,-12,5,-1,5,-3,3
13:53:11:80606,1,10,-1,-9,13,9,4,1
13:53:11:86697,-4,1,26,7,-4,-6,2,-5
13:53:11:94159,-4,1,26,7,-4,-6,2,-5
13:53:11:109829,-6,5,-18,-4,1,3,-6,2
13:53:11:110590,7,-2,-4,-6,-5,0,1,-3
13:53:11:117440,7,-2,-4,-6,-5,0,1,-3
13:53:11:118134,-13,-14,18,9,-9,-3,-5,4
13:53:11:131605,-5,2,-21,-3,-3,-4,-2,4
13:53:11:139909,-5,2,-21,-3,-3,-4,-2,4
13:53:11:140669,4,-12,-15,-7,-11,-6,6,-6
13:53:11:146575,-2,1,-1,0,-4,-8,-14,0
13:53:11:154279,-2,1,-1,0,-4,-8,-14,0
13:53:11:161683,11,16,16,0,4,1,-10,3
13:53:11:178023,-1,-8,16,-2,-1,-3,-1,-5
13:53:11:178774,-1,-8,16,-2,-1,-3,-1,-5
13:53:11:179587,-8,8,-23,1,2,-2,3,-9
13:53:11:191625,-8,-10,-30,-5,5,5,8,2
13:53:11:199958,-8,-10,-30,-5,5,5,8,2
13:53:11:200673,-3,-4,-8,-7,-2,-3,-2,6
13:53:11:206672,1,-3,6,-1,0,0,6,-4
13:53:11:214173,1,-3,6,-1,0,0,6,-4
13:53:11:221683,7,-2,20,-6,-4,6,5,-6
13:53:11:229080,9,11,-18,-2,-3,1,-12,-1
13:53:11:236744,9,11,-18,-2,-3,1,-12,-1
13:53:11:244159,-9,-1,30,14,3,-3,-6,-11
13:53:11:251699,1,-4,3,8,-5,0,-1,-7
13:53:11:259819,1,-4,3,8,-5,0,-1,-7
13:53:11:260600,-6,-21,-1,-3,-2,-9,-8,-6
13:53:11:274812,-8,7,-6,-1,6,-4,-24,-5
13:53:11:275617,-8,7,-6,-1,6,-4,-24,-5
13:53:11:281608,-1,8,9,11,6,8,9,10
13:53:11:289226,-1,2,1,-12,-1,4,-1,0
13:53:11:296666,-1,2,1,-12,-1,4,-1,0
13:53:11:304233,-4,-8,-62,1,2,-6,1,0
13:53:11:311668,1,-7,3,-12,-3,-1,8,1
13:53:11:319911,1,-7,3,-12,-3,-1,8,1
13:53:11:320614,-4,-4,6,-1,4,4,9,3
13:53:11:334831,-4,-4,-1,2,2,-2,-15,-3
13:53:11:335579,-4,-4,-1,2,2,-2,-15,-3
13:53:11:341663,-2,18,-4,-7,-2,-5,30,1
13:53:11:349202,2,-11,22,5,-6,-2,0,2
13:53:11:356723,2,-11,22,5,-6,-2,0,2
13:53:11:364104,10,16,1,-3,6,17,2,-4
13:53:11:371716,-1,8,14,9,-8,3,16,8
13:53:11:380298,-1,8,14,9,-8,3,16,8
13:53:11:386704,0,-14,6,0,-12,-2,-1,-5
13:53:11:394861,5,-1,-7,-1,-2,-4,-3,1
13:53:11:395655,5,-1,-7,-1,-2,-4,-3,1
13:53:11:401663,4,-4,-36,-3,0,-3,-21,2
13:53:11:409135,-1,3,-4,-6,-2,0,-13,-3
13:53:11:416759,-1,3,-4,-6,-2,0,-13,-3
13:53:11:424177,-13,9,24,3,-3,-5,-25,-2
13:53:11:431616,-2,12,-11,-1,4,11,5,3
13:53:11:439888,-2,12,-11,-1,4,11,5,3
13:53:11:440608,-2,1,21,-7,1,7,7,-2
13:53:11:454887,4,0,10,8,-7,-8,7,2
13:53:11:455624,4,0,10,8,-7,-8,7,2
13:53:11:461644,3,6,9,0,-2,1,0,-2
13:53:11:469173,-12,-13,10,-2,-4,-7,-1,-8
13:53:11:476673,-12,-13,10,-2,-4,-7,-1,-8
13:53:11:484196,-12,-16,-29,2,-4,-10,6,4
13:53:11:491652,-12,8,16,4,1,-3,-4,-1
13:53:11:499843,-12,8,16,4,1,-3,-4,-1
13:53:11:500612,3,1,5,1,0,6,-3,5
13:53:11:514772,8,-7,6,1,12,3,4,-6
13:53:11:515567,8,-7,6,1,12,3,4,-6
13:53:11:521729,16,-14,-61,-14,-5,-14,6,0
13:53:11:529101,6,-4,-1,3,0,3,-10,4
13:53:11:536717,6,-4,-1,3,0,3,-10,4
13:53:11:544096,13,-8,35,7,1,-6,-26,12
13:53:11:551618,5,-10,-8,-6,1,1,1,-4
13:53:11:559847,5,-10,-8,-6,1,1,1,-4
13:53:11:560612,4,11,25,11,-5,-1,-3,-4
13:53:11:574824,-2,-4,16,-5,-6,-7,-3,-4
13:53:11:575620,-2,-4,16,-5,-6,-7,-3,-4
13:53:11:581571,-6,2,17,-11,0,4,11,-5
13:53:11:589157,-5,-2,14,-1,-4,-6,-2,-6
13:53:11:596672,-5,-2,14,-1,-4,-6,-2,-6
13:53:11:604198,-7,-5,9,1,-4,0,2,-4
13:53:11:611597,1,-2,-5,2,-2,4,3,-1
13:53:11:619859,1,-2,-5,2,-2,4,3,-1
13:53:11:620625,-2,-1,6,3,1,1,-12,-9
13:53:11:634988,1,2,-9,-13,-3,1,1,4
13:53:11:635627,1,2,-9,-13,-3,1,1,4
13:53:11:641638,3,10,-57,2,-3,-7,14,1
13:53:11:649169,1,9,-3,-3,-4,0,7,4
13:53:11:656805,1,9,-3,-3,-4,0,7,4
13:53:11:664135,-4,-4,1,-7,0,-6,1,0
13:53:11:671728,-5,2,-11,4,3,2,1,-4
13:53:11:679857,-5,2,-11,4,3,2,1,-4
13:53:11:680640,-10,-5,-18,-8,-1,-1,-29,3
13:53:11:694808,0,-7,-4,2,8,7,1,0
13:53:11:695649,0,-7,-4,2,8,7,1,0
13:53:11:701671,-5,-2,32,2,4,-6,-8,-8
13:53:11:709112,3,1,11,-7,-5,-4,4,6
13:53:11:716799,3,1,11,-7,-5,-4,4,6
13:53:11:724162,0,-4,0,-3,-5,1,16,9
13:53:11:731596,2,-3,-10,5,-1,2,-3,-12
13:53:11:739869,2,-3,-10,5,-1,2,-3,-12
13:53:11:740648,-9,-15,16,0,-3,1,9,-9
13:53:11:754978,-4,-10,-34,-3,2,1,9,-4
13:53:11:755622,-4,-10,-34,-3,2,1,9,-4
13:53:11:761637,7,4,-57,-2,5,-4,-1,-2
13:53:11:769174,-5,2,-5,1,-1,-4,-3,-5
13:53:11:776707,-5,2,-5,1,-1,-4,-3,-5
13:53:11:784279,0,2,12,1,0,0,3,2
13:53:11:791698,-5,1,-14,-12,-7,-14,-5,-13
13:53:11:799831,-5,1,-14,-12,-7,-14,-5,-13
13:53:11:800626,-4,3,-1,-15,-2,6,-4,-2
13:53:11:814798,0,-4,12,-8,-7,-2,-2,5
13:53:11:815583,0,-4,12,-8,-7,-2,-2,5
13:53:11:821754,5,-8,12,13,0,2,-2,-4
13:53:11:829100,7,-2,-5,-2,-8,-4,-3,6
13:53:11:836710,7,-2,-5,-2,-8,-4,-3,6
13:53:11:844116,5,-13,8,4,-2,6,3,2
13:53:11:860526,-13,20,-4,0,1,-10,-13,-8
13:53:11:861341,-13,20,-4,0,1,-10,-13,-8
13:53:11:862103,-11,3,-7,5,0,-2,-5,-3
13:53:11:874809,0,2,-17,4,1,-2,6,4
13:53:11:875629,0,2,-17,4,1,-2,6,4
13:53:11:881635,2,0,-5,-7,-8,-7,-7,-4
13:53:11:889222,-5,-24,20,-7,0,-1,-5,3
13:53:11:896657,-5,-24,20,-7,0,-1,-5,3
13:53:11:904182,0,1,11,-1,-4,3,32,5
13:53:11:911605,0,2,13,-15,-8,5,3,0
13:53:11:919846,0,2,13,-15,-8,5,3,0
13:53:11:920603,0,6,2,5,4,5,-7,3
13:53:11:935280,0,-2,2,13,9,2,-11,-1
13:53:11:942350,0,-2,2,13,9,2,-11,-1
13:53:11:943146,4,4,-7,9,5,8,1,7
13:53:11:949077,4,-1,20,0,-3,3,0,3
13:53:11:956771,4,-1,20,0,-3,3,0,3
13:53:11:964102,0,4,12,-6,-5,-5,-9,-1
13:53:11:971669,-4,11,0,-3,-1,-3,8,1
13:53:11:979868,-4,11,0,-3,-1,-3,8,1
13:53:11:980596,2,-9,-23,-8,-1,-1,5,-5
13:53:11:994867,-8,-15,23,6,-8,-11,2,-7
13:53:11:995663,-8,-15,23,6,-8,-11,2,-7
13:53:12:1701,-3,3,15,4,0,4,-17,-2
13:53:12:9145,2,4,-21,1,0,-2,3,-4
13:53:12:16749,2,4,-21,1,0,-2,3,-4
13:53:12:24141,-2,3,7,8,-1,-4,4,-15
13:53:12:31613,1,-11,-43,5,-5,-4,-1,2
13:53:12:39991,1,-11,-43,5,-5,-4,-1,2
13:53:12:40693,-3,11,8,-4,10,8,-9,0
13:53:12:54988,-4,10,20,0,2,11,4,-4
13:53:12:55648,-4,10,20,0,2,11,4,-4
13:53:12:61616,-1,-5,-16,-7,-4,-1,-13,0
13:53:12:69109,9,5,-2,-10,-3,2,-4,4
13:53:12:76696,9,5,-2,-10,-3,2,-4,4
13:53:12:84205,3,-7,-1,-6,-5,-10,-13,-2
13:53:12:91618,0,6,0,-12,-6,2,23,2
13:53:12:99804,0,6,0,-12,-6,2,23,2
13:53:12:100611,-5,-16,-23,-4,-3,-12,4,1
13:53:12:114760,1,-3,-15,5,0,-4,2,2
13:53:12:115587,1,-3,-15,5,0,-4,2,2
13:53:12:121665,-2,-2,16,10,-8,-3,9,1
13:53:12:129097,-5,-6,8,8,8,5,-7,1
13:53:12:136687,-5,-6,8,8,8,5,-7,1
13:53:12:144140,-8,0,6,10,0,0,-2,2
13:53:12:151653,-1,3,-8,-5,-1,-4,-12,-5
13:53:12:159838,-1,3,-8,-5,-1,-4,-12,-5
13:53:12:160625,5,0,-2,-2,0,3,-8,-1
13:53:12:174781,-1,9,11,4,5,-3,-11,-6
13:53:12:175577,-1,9,11,4,5,-3,-11,-6
13:53:12:181607,-10,-20,-40,-4,2,-6,1,0
13:53:12:197294,-2,-21,-3,16,-3,-3,-8,-2
13:53:12:198070,-2,-21,-3,16,-3,-3,-8,-2
13:53:12:204194,4,8,22,10,4,5,13,3
13:53:12:219881,0,-7,6,-4,-4,-2,0,3
13:53:12:220637,0,-7,6,-4,-4,-2,0,3
13:53:12:226615,2,-2,-56,-12,-6,-9,-12,-2
13:53:12:234870,-5,-8,14,-7,-1,-9,-17,-13
13:53:12:235590,-5,-8,14,-7,-1,-9,-17,-13
13:53:12:241639,-15,-7,23,-9,-3,-1,15,7
13:53:12:257326,-1,8,-15,-10,-4,-4,3,8
13:53:12:258156,-1,8,-15,-10,-4,-4,3,8
13:53:12:264097,8,3,10,-14,3,2,9,2
13:53:12:271684,-13,17,-27,0,11,10,6,5
13:53:12:279130,-13,17,-27,0,11,10,6,5
13:53:12:286720,-6,6,29,-6,-5,4,-4,-1
13:53:12:295288,13,8,-15,-8,4,-2,-14,-1
13:53:12:302341,13,8,-15,-8,4,-2,-14,-1
13:53:12:303096,-3,-9,-16,-9,-3,-3,3,-9
13:53:12:317416,0,-8,-12,3,-3,2,4,1
13:53:12:318115,0,-8,-12,3,-3,2,4,1
13:53:12:332282,8,2,-16,3,0,-1,13,-4
13:53:12:333062,1,15,26,6,-1,9,-30,9
13:53:12:339291,1,15,26,6,-1,9,-30,9
13:53:12:346625,3,18,23,9,1,9,-7,0
13:53:12:354959,-6,0,26,-12,-3,-6,8,-10
13:53:12:355584,-6,0,26,-12,-3,-6,8,-10
13:53:12:361629,1,-5,22,2,-5,-3,-9,-4
13:53:12:377356,4,-10,14,-13,-8,-5,7,-9
13:53:12:378130,4,-10,14,-13,-8,-5,7,-9
13:53:12:384208,-2,-6,-9,0,-4,-3,5,-1
13:53:12:391599,-3,-6,-2,5,1,-1,17,8
13:53:12:399145,-3,-6,-2,5,1,-1,17,8
13:53:12:406754,-8,1,23,5,4,-7,0,-4
13:53:12:414758,-1,-6,-14,2,5,-1,-11,3
13:53:12:415572,-1,-6,-14,2,5,-1,-11,3
13:53:12:421663,-6,-11,8,7,-7,-13,-5,-2
13:53:12:437376,6,-6,-2,-6,-8,0,9,6
13:53:12:438130,6,-6,-2,-6,-8,0,9,6
13:53:12:444172,-1,-7,-18,-4,-5,1,4,1
13:53:12:451672,-4,0,2,5,-3,-2,-19,-6
13:53:12:459192,-4,0,2,5,-3,-2,-19,-6
13:53:12:466601,-5,4,-19,-3,5,2,-30,-17
13:53:12:474830,3,-2,-53,6,2,-2,7,-5
13:53:12:475634,3,-2,-53,6,2,-2,7,-5
13:53:12:481591,0,11,-4,5,1,3,-8,3
13:53:12:497817,2,5,4,3,4,2,3,9
13:53:12:498555,2,5,4,3,4,2,3,9
13:53:12:504163,8,1,0,-4,-3,-5,0,-5
13:53:12:511581,1,8,23,6,-13,6,0,1
13:53:12:519285,1,8,23,6,-13,6,0,1
13:53:12:526615,8,-10,70,0,-1,3,-8,4
13:53:12:534833,-4,-8,9,2,-4,-7,1,-7
13:53:12:535583,-4,-8,9,2,-4,-7,1,-7
13:53:12:541617,3,7,-6,0,7,0,5,8
13:53:12:557320,-2,-1,-4,-8,5,3,-6,-12
13:53:12:558128,-2,-1,-4,-8,5,3,-6,-12
13:53:12:564065,-13,-15,-12,-2,3,-2,-4,-6
13:53:12:571673,-2,1,11,10,3,-4,-8,-3
13:53:12:579147,-2,1,11,10,3,-4,-8,-3
13:53:12:586668,-1,3,12,4,-5,0,2,-6
13:53:12:594810,3,2,-22,-18,-1,8,11,6
13:53:12:595631,3,2,-22,-18,-1,8,11,6
13:53:12:601642,-5,3,-23,-1,-3,-1,-1,8
13:53:12:617420,2,-1,-3,-3,-4,-14,-20,-12
13:53:12:618182,2,-1,-3,-3,-4,-14,-20,-12
13:53:12:624137,4,-1,-4,0,4,0,-17,4
13:53:12:632284,-2,-1,-6,0,6,5,1,-1
13:53:12:633092,-2,-1,-6,0,6,5,1,-1
13:53:12:646612,2,1,6,5,2,10,9,-4
13:53:12:654873,-2,-3,3,-15,-2,-5,1,-1
13:53:12:655641,-2,-3,3,-15,-2,-5,1,-1
13:53:12:661619,3,1,-2,-13,-8,2,2,-2
13:53:12:677317,-13,-1,19,4,4,4,9,-4
13:53:12:678127,-13,-1,19,4,4,4,9,-4
13:53:12:691608,-7,0,-15,-3,-9,-4,10,3
13:53:12:699844,-7,0,-15,-3,-9,-4,10,3
13:53:12:700583,-1,-3,1,6,-6,-8,-5,3
13:53:12:706673,0,5,-17,-11,-5,-9,-6,-9
13:53:12:714835,0,5,-17,-11,-5,-9,-6,-9
13:53:12:715612,5,-1,-5,1,-3,-2,6,7
13:53:12:721605,4,-8,7,-8,-2,-9,-8,-5
13:53:12:737399,4,-8,7,-8,-2,-9,-8,-5
13:53:12:738082,-3,-10,-1,-7,3,-4,-5,-4
13:53:12:744076,5,7,15,7,12,12,12,6
13:53:12:759840,5,7,15,7,12,12,12,6
13:53:12:760617,-3,1,-15,-9,-6,10,22,4
13:53:12:775460,3,-1,-11,-6,-1,-2,-8,9
13:53:12:776284,3,-1,-11,-6,-1,-2,-8,9
13:53:12:777074,-3,-3,6,5,-2,-4,0,3
13:53:12:781579,-5,-3,-39,-14,-5,-4,-1,-4
13:53:12:797275,-5,-3,-39,-14,-5,-4,-1,-4
13:53:12:798057,-5,2,-8,-7,-7,-5,-3,-10
13:53:12:804151,-7,-9,-16,-4,-1,-4,3,0
13:53:12:819914,-7,-9,-16,-4,-1,-4,3,0
13:53:12:820595,-1,-8,9,1,2,-5,-7,1
13:53:12:826627,4,-5,8,6,-5,-2,4,-1
13:53:12:834826,4,-5,8,6,-5,-2,4,-1
13:53:12:835629,2,7,9,1,-3,-3,-13,-3
13:53:12:841625,-2,-2,13,1,-2,-8,-1,-2
13:53:12:857325,-2,-2,13,1,-2,-8,-1,-2
13:53:12:858060,0,-3,-6,11,2,0,0,-3
13:53:12:864104,-3,2,18,4,4,8,-13,-1
13:53:12:879861,-3,2,18,4,4,8,-13,-1
13:53:12:880600,-2,-11,-12,-21,8,1,8,-4
13:53:12:886663,-5,-9,-6,-4,2,0,16,-1
13:53:12:894811,-5,-9,-6,-4,2,0,16,-1
13:53:12:895559,0,4,-5,3,-7,-6,19,4
13:53:12:901706,4,8,12,-2,5,3,51,3
13:53:12:917449,4,8,12,-2,5,3,51,3
13:53:12:918151,-12,-9,14,-18,0,-3,-11,-5
13:53:12:924111,3,2,-15,-2,-6,-11,-5,-28
13:53:12:939903,3,2,-15,-2,-6,-11,-5,-28
13:53:12:940627,5,9,-9,-1,3,10,12,-2
13:53:12:946621,1,0,-3,-7,-1,-1,-22,-2
13:53:12:954938,1,0,-3,-7,-1,-1,-22,-2
13:53:12:955650,-1,7,-6,-12,-3,2,-13,-3
13:53:12:969061,-4,1,-19,2,1,-3,0,10
13:53:12:977286,-4,1,-19,2,1,-3,0,10
13:53:12:978128,5,-1,0,24,5,6,-9,7
13:53:12:984188,-5,-5,14,14,6,4,-11,-1
13:53:12:999821,-5,-5,14,14,6,4,-11,-1
13:53:13:628,-3,-5,28,3,-6,-2,-4,-7
13:53:13:6708,-4,0,2,-5,-9,-3,-11,3
13:53:13:14819,-4,0,2,-5,-9,-3,-11,3
13:53:13:15603,2,-2,-14,3,-1,0,-7,-3
13:53:13:21765,7,5,7,-5,-4,1,-14,5
13:53:13:37452,7,5,7,-5,-4,1,-14,5
13:53:13:38128,4,0,-1,3,-4,0,1,8
13:53:13:51683,-2,-4,-27,-8,0,-5,-9,-2
13:53:13:59848,-2,-4,-27,-8,0,-5,-9,-2
13:53:13:60615,-2,2,-21,-9,-8,-4,-5,-5
13:53:13:66634,-1,-4,9,9,-6,-3,-9,10
13:53:13:74866,-1,-4,9,9,-6,-3,-9,10
13:53:13:75633,-4,-4,-8,-2,0,-6,5,-6
13:53:13:81555,0,-9,-33,-2,1,-4,11,-1
13:53:13:97295,0,-9,-33,-2,1,-4,11,-1
13:53:13:98075,-1,-16,-63,-2,-5,-9,-8,1
13:53:13:104189,-5,0,-17,7,0,6,12,2
13:53:13:120379,-5,0,-17,7,0,6,12,2
13:53:13:121042,-1,2,-3,7,-2,-2,3,-1
13:53:13:126637,-3,-5,3,-6,0,-1,3,-1
13:53:13:134930,-3,-5,3,-6,0,-1,3,-1
13:53:13:135613,1,-1,9,2,1,2,2,0
13:53:13:149116,-1,14,25,1,-1,-7,-21,0
13:53:13:165498,-1,14,25,1,-1,-7,-21,0
13:53:13:166265,2,12,14,26,6,-3,3,6
13:53:13:167088,-5,-12,17,2,-4,0,-9,-4
13:53:13:179826,-5,-12,17,2,-4,0,-9,-4
13:53:13:180607,-4,-9,35,5,0,-6,0,-5
13:53:13:186666,-6,-1,0,-1,2,4,-3,-9
13:53:13:194911,-6,-1,0,-1,2,4,-3,-9
13:53:13:195677,3,1,13,-15,-1,4,-1,-6
13:53:13:209120,-9,-13,-33,-10,6,1,-7,-23
13:53:13:217468,-9,-13,-33,-10,6,1,-7,-23
13:53:13:218128,-4,-1,4,1,1,4,-10,1
13:53:13:224200,3,-2,19,10,-6,-3,3,-1
13:53:13:247990,3,-2,19,10,-6,-3,3,-1
13:53:13:248724,-4,-2,-10,2,-1,0,-12,3
13:53:13:249634,-7,-3,51,2,2,4,12,-1
13:53:13:254940,-7,-3,51,2,2,4,12,-1
13:53:13:255663,-2,0,3,8,4,0,9,4
13:53:13:269232,-6,10,-1,-7,-1,0,-2,-9
13:53:13:277343,-6,10,-1,-7,-1,0,-2,-9
13:53:13:278148,-4,-9,-3,-6,3,-4,5,0
13:53:13:284177,2,1,-4,8,-3,0,-9,-9
13:53:13:291721,2,1,-4,8,-3,0,-9,-9
13:53:13:299115,-2,5,9,-7,-7,-4,-10,-2
13:53:13:306664,7,2,-15,-3,-5,-5,18,21
13:53:13:314814,7,2,-15,-3,-5,-5,18,21
13:53:13:315610,2,3,3,0,-1,-1,6,-4
13:53:13:329089,-13,1,13,-4,-6,-2,3,1
13:53:13:337362,-13,1,13,-4,-6,-2,3,1
13:53:13:338106,6,8,8,3,7,3,13,4
13:53:13:344116,3,13,1,7,5,2,-12,3
13:53:13:351711,3,13,1,7,5,2,-12,3
13:53:13:359133,2,-12,-12,-3,-3,2,1,-5
13:53:13:366636,9,3,-5,-4,5,7,-9,-2
13:53:13:374897,9,3,-5,-4,5,7,-9,-2
13:53:13:375651,-10,-7,-19,-1,-6,-3,-13,-5
13:53:13:389216,4,-3,-40,-1,1,1,-4,2
13:53:13:397306,4,-3,-40,-1,1,1,-4,2
13:53:13:398119,3,0,-26,9,6,5,-5,1
13:53:13:404179,5,-12,-8,-6,-6,-2,3,3
13:53:13:411697,5,-12,-8,-6,-6,-2,3,3
13:53:13:419133,-6,-1,4,-8,-7,-1,-25,2
13:53:13:426647,-2,0,7,8,2,-1,-16,-4
13:53:13:434828,-2,0,7,8,2,-1,-16,-4
13:53:13:435570,-6,10,15,-11,-2,-2,-6,-5
13:53:13:449141,-1,-10,-41,-18,-3,-8,10,5
13:53:13:457349,-1,-10,-41,-18,-3,-8,10,5
13:53:13:458143,-3,-5,2,-2,-1,-3,12,0
13:53:13:464130,3,8,3,2,0,-2,2,-6
13:53:13:471777,3,8,3,2,0,-2,2,-6
13:53:13:479111,-8,9,-6,3,-1,1,7,3
13:53:13:486663,-4,-5,17,15,1,3,7,-9
13:53:13:494827,-4,-5,17,15,1,3,7,-9
13:53:13:495581,-3,1,2,12,-2,0,8,3
13:53:13:509170,-7,7,18,-3,2,2,0,-4
13:53:13:517364,-7,7,18,-3,2,2,0,-4
13:53:13:518081,7,5,-9,-12,-4,0,5,-3
13:53:13:524094,-1,-5,29,0,4,-3,3,0
13:53:13:531636,-1,-5,29,0,4,-3,3,0
13:53:13:539179,-4,-6,4,11,1,-4,-8,-2
13:53:13:546607,8,8,-18,-10,-4,5,4,8
13:53:13:554914,8,8,-18,-10,-4,5,4,8
13:53:13:555639,-2,-5,-12,-1,-2,-3,-5,-5
13:53:13:569163,-7,-2,17,1,2,-1,6,3
13:53:13:577366,-7,-2,17,1,2,-1,6,3
13:53:13:578135,1,-14,-3,-15,1,1,5,-1
13:53:13:584195,8,-14,14,1,-1,3,-8,0
13:53:13:591710,8,-14,14,1,-1,3,-8,0
13:53:13:599095,6,1,5,2,0,-2,13,-3
13:53:13:606719,1,2,8,-4,-5,2,8,0
13:53:13:614831,1,2,8,-4,-5,2,8,0
13:53:13:615622,-5,3,4,6,9,5,4,3
13:53:13:629145,-5,1,0,3,-5,-4,-3,-1
13:53:13:637478,-5,1,0,3,-5,-4,-3,-1
13:53:13:638106,5,5,41,-9,-4,-5,-2,2
13:53:13:644116,-7,-8,-1,7,-1,4,-11,-3
13:53:13:651756,-7,-8,-1,7,-1,4,-11,-3
13:53:13:659142,0,2,2,-3,0,-4,-9,0
13:53:13:675479,2,-9,9,8,-7,-10,17,-12
13:53:13:676276,2,-9,9,8,-7,-10,17,-12
13:53:13:677085,-1,-1,-10,0,-4,-5,7,-2
13:53:13:689149,-6,9,5,4,4,-2,1,2
13:53:13:697302,-6,9,5,4,4,-2,1,2
13:53:13:698083,-6,-11,15,10,-2,3,-14,-4
13:53:13:704214,2,-1,5,-8,2,-9,-14,-5
13:53:13:711715,2,-1,5,-8,2,-9,-14,-5
13:53:13:719111,3,1,-12,-10,1,1,2,-1
13:53:13:726619,0,-5,-9,-2,-3,-1,-8,1
13:53:13:734934,0,-5,-9,-2,-3,-1,-8,1
13:53:13:735688,0,0,-22,5,-4,2,10,1
13:53:13:749097,-2,-7,-11,-1,-2,-4,-14,-10
13:53:13:757381,-2,-7,-11,-1,-2,-4,-14,-10
13:53:13:758178,-1,5,-47,-8,-5,0,4,7
13:53:13:764080,-2,3,-11,-4,-3,-1,0,1
13:53:13:771760,-2,3,-11,-4,-3,-1,0,1
13:53:13:779107,-6,-14,-5,-4,0,-11,7,-6
13:53:13:786653,-3,-1,-20,-21,-7,-5,0,-2
13:53:13:794836,-3,-1,-20,-21,-7,-5,0,-2
13:53:13:795568,0,9,5,-2,-7,3,-5,2
13:53:13:809140,4,-5,14,1,-8,1,10,6
13:53:13:817466,4,-5,14,1,-8,1,10,6
13:53:13:818115,-3,1,-20,-13,0,2,-19,-7
13:53:13:824169,0,2,17,2,2,-2,-1,0
13:53:13:831615,0,2,17,2,2,-2,-1,0
13:53:13:839215,4,-6,10,5,1,0,5,-1
13:53:13:846646,5,-1,-12,-5,6,7,15,2
13:53:13:854911,5,-1,-12,-5,6,7,15,2
13:53:13:855606,2,2,22,-1,-2,-1,-14,-8
13:53:13:869181,-8,3,-5,-7,-1,-2,-28,6
13:53:13:877333,-8,3,-5,-7,-1,-2,-28,6
13:53:13:878126,8,-8,-25,-9,1,-2,15,7
13:53:13:884177,-7,9,22,23,0,1,-1,-9
13:53:13:891717,-7,9,22,23,0,1,-1,-9
13:53:13:899081,1,-5,-14,-9,0,1,-11,-1
13:53:13:906658,1,-1,-4,7,1,-5,4,-4
13:53:13:914818,1,-1,-4,7,1,-5,4,-4
13:53:13:915598,-4,1,14,2,0,-2,-4,-5
13:53:13:929118,-3,-8,-11,-6,-2,-1,-1,6
13:53:13:937401,-3,-8,-11,-6,-2,-1,-1,6
13:53:13:938122,-4,-3,16,-4,-1,-8,8,0
13:53:13:944076,3,-2,8,3,4,3,-4,-2
13:53:13:951665,3,-2,8,3,4,3,-4,-2
13:53:13:959138,1,-3,26,16,-6,3,0,-3
13:53:13:966612,-2,3,-11,-5,-8,-9,-14,-12
13:53:13:974868,-2,3,-11,-5,-8,-9,-14,-12
13:53:13:975640,-9,13,8,3,-1,-2,-19,-5
13:53:13:989171,1,8,-1,-1,2,6,-15,-2
13:53:13:997353,1,8,-1,-1,2,6,-15,-2
13:53:13:998131,-7,-3,38,-1,-2,-13,-8,-3
13:53:14:4136,0,-1,-28,-18,-2,-2,15,6
13:53:14:11684,0,-1,-28,-18,-2,-2,15,6
13:53:14:19215,6,-5,-22,-11,2,5,15,7
13:53:14:35546,-1,-2,3,-4,-4,2,-9,-6
13:53:14:36268,-1,-2,3,-4,-4,2,-9,-6
13:53:14:37099,-3,-8,-13,12,5,-1,-13,-7
13:53:14:49089,0,-4,-76,-9,-5,-4,4,-9
13:53:14:57326,0,-4,-76,-9,-5,-4,4,-9
13:53:14:58079,2,3,-4,-8,-11,-2,10,2
13:53:14:72360,1,1,1,-1,3,5,3,0
13:53:14:73081,1,1,1,-1,3,5,3,0
13:53:14:79052,-8,6,-7,4,-2,1,-7,-3
13:53:14:86657,-7,-4,6,0,-1,-7,0,-7
13:53:14:94174,-7,-4,6,0,-1,-7,0,-7
13:53:14:101629,4,7,6,7,3,7,-4,2
13:53:14:109136,1,-12,-9,-15,2,-2,10,7
13:53:14:117466,1,-12,-9,-15,2,-2,10,7
13:53:14:118138,0,-9,-11,3,1,3,3,2
13:53:14:132289,3,-1,6,10,8,3,-2,11
13:53:14:133136,3,-1,6,10,8,3,-2,11
13:53:14:139159,3,0,-3,-12,-7,-2,5,1
13:53:14:146572,1,6,15,10,-4,0,-2,2
13:53:14:154244,1,6,15,10,-4,0,-2,2
13:53:14:161604,-2,6,8,10,3,1,2,-4
13:53:14:169205,-2,1,25,6,-1,1,3,3
13:53:14:177359,-2,1,25,6,-1,1,3,3
13:53:14:178121,1,1,25,4,4,5,18,-6
13:53:14:192364,-7,0,0,1,-4,7,-9,-1
13:53:14:193165,-7,0,0,1,-4,7,-9,-1
13:53:14:199129,-5,-2,-6,6,-3,-7,0,-4
13:53:14:206719,1,3,-11,8,8,3,6,5
13:53:14:214185,1,3,-11,8,8,3,6,5
13:53:14:221693,0,-5,-16,2,-3,-3,-10,-1
13:53:14:229081,1,-5,2,4,-3,-5,-33,-4
13:53:14:237362,1,-5,2,4,-3,-5,-33,-4
13:53:14:238162,3,-1,7,-10,-4,6,-4,2
13:53:14:252349,-4,-3,-17,-5,0,1,12,-2
13:53:14:253093,-4,-3,-17,-5,0,1,12,-2
13:53:14:259180,0,-1,-7,-8,-3,-3,-7,6
13:53:14:266671,-1,4,10,-7,-4,-2,8,-4
13:53:14:274205,-1,4,10,-7,-4,-2,8,-4
13:53:14:281610,0,-8,-33,-5,4,1,2,-5
13:53:14:289203,-3,3,10,-16,-10,-7,-2,-3
13:53:14:297268,-3,3,10,-16,-10,-7,-2,-3
13:53:14:298097,-4,2,2,-2,-7,2,4,-1
13:53:14:312291,-1,-4,0,3,5,-1,6,-5
13:53:14:313071,-1,-4,0,3,5,-1,6,-5
13:53:14:319155,-4,-1,-9,-4,6,-4,-2,0
13:53:14:326656,5,-6,15,12,0,-7,-1,-5
13:53:14:334219,5,-6,15,12,0,-7,-1,-5
13:53:14:341634,8,5,10,1,-1,-4,4,8
13:53:14:349103,5,11,-9,-1,-1,4,-2,3
13:53:14:357345,5,11,-9,-1,-1,4,-2,3
13:53:14:358125,4,0,4,1,1,-7,-1,-2
13:53:14:372386,-3,-3,3,-5,0,-3,3,1
13:53:14:373093,-3,-3,3,-5,0,-3,3,1
13:53:14:379084,-9,-8,12,-8,-2,-1,-6,-1
13:53:14:386609,-7,-11,-12,-1,-2,-7,-3,-9
13:53:14:394175,-7,-11,-12,-1,-2,-7,-3,-9
13:53:14:401657,0,-6,-38,-5,-3,-8,-7,-4
13:53:14:409128,-4,5,3,10,-1,-1,3,0
13:53:14:417430,-4,5,3,10,-1,-1,3,0
13:53:14:418164,2,-2,13,-3,-1,5,7,2
13:53:14:432304,-2,-6,-17,-10,-8,-7,-16,-2
13:53:14:433101,-2,-6,-17,-10,-8,-7,-16,-2
13:53:14:439163,-1,9,9,2,-1,1,-14,1
13:53:14:446597,6,-4,13,6,3,7,5,11
13:53:14:454278,6,-4,13,6,3,7,5,11
13:53:14:461617,-5,-6,-24,0,-3,3,-2,7
13:53:14:469117,-6,-1,11,3,1,-3,-1,2
13:53:14:477349,-6,-1,11,3,1,-3,-1,2
13:53:14:478110,-4,-8,3,3,-2,-2,0,-5
13:53:14:492329,-1,1,-4,-2,4,5,7,-1
13:53:14:493142,-1,1,-4,-2,4,5,7,-1
13:53:14:499093,0,5,-5,-4,-3,-7,-6,-10
13:53:14:506669,6,1,-7,-4,-2,-5,-3,2
13:53:14:514208,6,1,-7,-4,-2,-5,-3,2
13:53:14:521684,3,-2,15,0,3,4,-18,-3
13:53:14:529127,-10,-13,-8,-10,-4,-7,2,-1
13:53:14:537379,-10,-13,-8,-10,-4,-7,2,-1
13:53:14:538161,1,-2,13,5,7,-2,-2,-5
13:53:14:552371,-5,5,0,3,2,-3,-7,-5
13:53:14:553098,-5,5,0,3,2,-3,-7,-5
13:53:14:559148,-1,3,6,-3,-1,4,16,3
13:53:14:566708,2,0,-5,-4,-1,-4,9,4
13:53:14:574244,2,0,-5,-4,-1,-4,9,4
13:53:14:581624,-5,-5,0,2,5,6,-4,-3
13:53:14:589227,2,0,-53,-13,2,-2,2,2
13:53:14:597291,2,0,-53,-13,2,-2,2,2
13:53:14:598076,2,4,6,3,-6,-1,-1,-10
13:53:14:612318,-4,-1,2,-3,0,2,7,1
13:53:14:613114,-4,-1,2,-3,0,2,7,1
13:53:14:619081,-7,-5,-3,2,1,-3,-4,1
13:53:14:626688,6,6,19,10,-1,6,-6,-2
13:53:14:634256,6,6,19,10,-1,6,-6,-2
13:53:14:641615,0,0,19,2,-6,-4,6,1
13:53:14:649065,-6,4,2,7,1,-5,-10,-2
13:53:14:657385,-6,4,2,7,1,-5,-10,-2
13:53:14:658137,13,-1,2,-11,-2,4,5,14
13:53:14:672369,-4,-2,21,-1,-7,2,-10,-10
13:53:14:673141,-4,-2,21,-1,-7,2,-10,-10
13:53:14:679039,-6,-3,-27,-7,1,1,2,-1
13:53:14:686602,3,-4,-9,19,3,-2,7,-3
13:53:14:694177,3,-4,-9,19,3,-2,7,-3
13:53:14:701605,-1,-2,4,-2,-4,-4,0,-4
13:53:14:709132,-2,-3,-4,-1,4,-3,-9,-4
13:53:14:717425,-2,-3,-4,-1,4,-3,-9,-4
13:53:14:718089,-5,6,5,10,-2,-1,1,-2
13:53:14:732309,-5,-12,19,4,-6,-5,-1,-9
13:53:14:733118,-5,-12,19,4,-6,-5,-1,-9
13:53:14:739244,-12,-16,-40,-9,-1,-7,-3,-16
13:53:14:746573,2,1,-5,-12,-7,0,7,1
13:53:14:754311,2,1,-5,-12,-7,0,7,1
13:53:14:761610,7,6,6,-12,-4,-4,-16,1
13:53:14:769159,-1,-9,-12,-20,-2,-3,-5,6
13:53:14:777089,-1,-9,-12,-20,-2,-3,-5,6
13:53:14:784216,-2,-9,-10,1,8,2,1,6
13:53:14:792335,-3,5,6,-4,-1,11,0,2
13:53:14:793099,-3,5,6,-4,-1,11,0,2
13:53:14:799118,-3,5,4,1,-5,2,-3,-2
13:53:14:806740,-1,7,9,-10,2,-5,0,-2
13:53:14:814149,-1,7,9,-10,2,-5,0,-2
13:53:14:821637,-1,-8,-2,1,-3,-6,4,-7
13:53:14:829044,3,9,-10,-3,-4,3,-16,-2
13:53:14:837346,3,9,-10,-3,-4,3,-16,-2
13:53:14:838075,2,3,7,-2,8,-8,-28,-4
13:53:14:852341,1,-7,-18,-14,5,-5,3,-3
13:53:14:853090,1,-7,-18,-14,5,-5,3,-3
13:53:14:867430,4,3,-5,1,-4,-3,24,1
13:53:14:868071,-1,3,6,10,-4,2,6,-6
13:53:14:874161,-1,3,6,10,-4,2,6,-6
13:53:14:881559,-3,-8,-30,2,5,0,5,3
13:53:14:889209,1,6,-10,-11,5,3,12,-2
13:53:14:897291,1,6,-10,-11,5,3,12,-2
13:53:14:898075,-9,11,7,9,1,5,-7,3
13:53:14:912299,2,-10,-4,12,0,4,-9,4
13:53:14:913090,2,-10,-4,12,0,4,-9,4
13:53:14:919099,-8,2,9,-24,-9,-5,-17,-8
13:53:14:926587,-7,-21,-26,6,5,-12,0,0
13:53:14:934241,-7,-21,-26,6,5,-12,0,0
13:53:14:941558,1,-6,24,5,-5,9,0,3
13:53:14:949071,4,7,17,-5,-5,6,-3,-4
13:53:14:957344,4,7,17,-5,-5,6,-3,-4
13:53:14:958137,1,-3,-6,8,3,3,10,-4
13:53:14:972396,3,0,-9,-15,-7,-5,-6,-1
13:53:14:973100,3,0,-9,-15,-7,-5,-6,-1
13:53:14:979034,-5,2,28,-10,-9,-10,-1,2
13:53:14:986633,-5,-1,-15,-3,2,1,6,-4
13:53:14:994190,-5,-1,-15,-3,2,1,6,-4
13:53:15:1604,2,1,2,-17,-9,-2,2,4
13:53:15:9140,3,7,11,14,-1,2,3,1
13:53:15:16750,3,7,11,14,-1,2,3,1
13:53:15:24120,4,1,-19,5,1,-2,3,-3
13:53:15:32274,1,9,-12,-5,-7,0,-13,-1
13:53:15:33050,1,9,-12,-5,-7,0,-13,-1
13:53:15:39199,-3,-9,17,14,3,1,2,10
13:53:15:62950,-2,-6,22,6,3,0,-4,2
13:53:15:63748,-2,-6,22,6,3,0,-4,2
13:53:15:64543,4,1,-4,5,1,6,3,-3
13:53:15:69116,-8,-16,-2,-2,4,-4,12,-4
13:53:15:76710,-8,-16,-2,-2,4,-4,12,-4
13:53:15:84188,0,-10,-4,-5,-5,-2,1,-8
13:53:15:92368,-2,0,7,-2,-6,-6,-1,4
13:53:15:93182,-2,0,7,-2,-6,-6,-1,4
13:53:15:99111,-13,-5,10,3,-3,-7,-2,-2
13:53:15:114802,0,-5,19,-13,-3,-3,-4,-9
13:53:15:115595,0,-5,19,-13,-3,-3,-4,-9
13:53:15:121733,1,9,-4,-1,-1,0,-5,-3
13:53:15:129105,-5,-1,-10,1,-5,-5,3,0
13:53:15:144829,-5,-1,-10,1,-5,-5,3,0
13:53:15:145610,1,10,6,10,-2,3,-8,1
13:53:15:152406,2,-5,21,6,-2,4,-6,7
13:53:15:153109,2,-5,21,6,-2,4,-6,7
13:53:15:159138,-2,-7,-11,-13,1,-3,-10,-8
13:53:15:174861,-1,7,-5,0,-5,-1,9,2
13:53:15:175626,-1,7,-5,0,-5,-1,9,2
13:53:15:181565,0,5,5,-1,0,0,-1,6
13:53:15:189126,3,6,-15,-5,11,6,0,-1
13:53:15:196653,3,6,-15,-5,11,6,0,-1
13:53:15:204154,3,-2,-2,-7,-5,-1,-4,-3
13:53:15:212286,1,8,-2,17,5,-1,-2,-5
13:53:15:213134,1,8,-2,17,5,-1,-2,-5
13:53:15:219101,0,-8,-4,9,4,1,4,3
13:53:15:234857,1,-7,-37,-1,-5,-2,-3,-9
13:53:15:235586,1,-7,-37,-1,-5,-2,-3,-9
13:53:15:241643,9,5,-6,-13,0,-4,3,-2
13:53:15:249145,-7,2,30,6,-2,0,-16,1
13:53:15:256792,-7,2,30,6,-2,0,-16,1
13:53:15:264111,-3,-8,4,-4,-6,-4,7,-2
13:53:15:272437,-5,-1,-4,-14,-2,-7,6,0
13:53:15:273121,-5,-1,-4,-14,-2,-7,6,0
13:53:15:279129,-3,-1,0,3,1,1,-8,3
13:53:15:294772,3,-2,2,-2,-5,-2,-1,4
13:53:15:295544,3,-2,2,-2,-5,-2,-1,4
13:53:15:301670,-4,-7,-1,-7,0,-6,3,-4
13:53:15:309127,-3,-2,-3,5,3,4,18,0
13:53:15:316647,-3,-2,-3,5,3,4,18,0
13:53:15:324147,3,3,-13,-13,-1,-7,4,2
13:53:15:332304,5,-6,11,-5,-7,3,-1,3
13:53:15:333092,5,-6,11,-5,-7,3,-1,3
13:53:15:339176,-3,-4,-7,12,1,-2,9,-7
13:53:15:354902,3,0,-5,-3,-10,-5,-3,-4
13:53:15:355616,3,0,-5,-3,-10,-5,-3,-4
13:53:15:361621,1,-8,30,-2,-1,4,4,-3
13:53:15:369146,-5,0,-9,10,2,0,-2,0
13:53:15:376654,-5,0,-9,10,2,0,-2,0
13:53:15:384172,-4,2,11,-4,1,-5,-13,-5
13:53:15:392331,-1,-13,11,-8,2,-10,-3,-4
13:53:15:393124,-1,-13,11,-8,2,-10,-3,-4
13:53:15:399084,-2,-5,34,5,6,5,-4,-1
13:53:15:423058,1,-3,-26,-19,-2,4,1,5
13:53:15:423750,1,-3,-26,-19,-2,4,1,5
13:53:15:424529,-1,7,1,10,-1,0,-4,-2
13:53:15:429070,-6,4,4,4,6,-2,-4,-3
13:53:15:436686,-6,4,4,4,6,-2,-4,-3
13:53:15:444150,-5,-8,-51,-28,-8,-8,4,2
13:53:15:452368,10,7,7,1,-5,-3,-16,-8
13:53:15:453095,10,7,7,1,-5,-3,-16,-8
13:53:15:459095,1,-10,-8,4,1,-7,-15,-10
13:53:15:474820,5,4,6,0,2,1,4,2
13:53:15:475608,5,4,6,0,2,1,4,2
13:53:15:481540,0,6,4,5,-4,-1,2,3
13:53:15:489225,-1,-2,-3,8,-5,-1,1,-3
13:53:15:496644,-1,-2,-3,8,-5,-1,1,-3
13:53:15:504158,-4,3,-15,4,1,4,2,9
13:53:15:512323,-5,0,8,-13,-1,-3,-7,-4
13:53:15:513084,-5,0,8,-13,-1,-3,-7,-4
13:53:15:519138,-3,1,-4,6,-1,5,3,2
13:53:15:534887,-8,-14,-22,-4,-5,-1,-5,3
13:53:15:535632,-8,-14,-22,-4,-5,-1,-5,3
13:53:15:541604,2,5,-30,5,1,4,-5,6
13:53:15:549076,0,-1,-6,8,-5,-1,5,-1
13:53:15:556779,0,-1,-6,8,-5,-1,5,-1
13:53:15:564052,2,-1,6,7,3,3,6,0
13:53:15:572372,-4,4,12,7,2,-3,0,0
13:53:15:573087,-4,4,12,7,2,-3,0,0
13:53:15:579096,0,-1,-25,-1,0,3,-19,-8
13:53:15:594926,3,7,-10,0,4,1,-9,-10
13:53:15:595610,3,7,-10,0,4,1,-9,-10
13:53:15:601642,-8,1,23,-3,-1,-3,2,-13
13:53:15:609110,-8,-3,-1,-2,3,-4,-1,9
13:53:15:616713,-8,-3,-1,-2,3,-4,-1,9
13:53:15:624168,6,8,19,6,-7,-5,10,7
13:53:15:632286,2,1,8,7,-1,-2,-2,-4
13:53:15:633078,2,1,8,7,-1,-2,-2,-4
13:53:15:639171,-5,-3,-3,-8,3,-4,-6,0
13:53:15:654945,0,-7,-30,-15,-3,-3,-2,3
13:53:15:655612,0,-7,-30,-15,-3,-3,-2,3
13:53:15:661624,2,-5,-17,1,4,-6,-1,1
13:53:15:669120,4,6,26,3,5,12,15,6
13:53:15:676622,4,6,26,3,5,12,15,6
13:53:15:684149,-1,12,17,3,-3,-4,0,-5
13:53:15:700555,7,1,1,-2,-7,-2,-14,3
13:53:15:701312,7,1,1,-2,-7,-2,-14,3
13:53:15:702130,2,-3,-13,-3,-5,-7,-5,-3
13:53:15:714867,-2,-11,-9,-6,-3,-3,-15,-4
13:53:15:715633,-2,-11,-9,-6,-3,-3,-15,-4
13:53:15:721727,-4,-2,-41,2,0,-5,29,-5
13:53:15:729084,-1,0,1,3,2,5,12,1
13:53:15:736725,-1,0,1,3,2,5,12,1
13:53:15:744141,0,-10,14,-5,7,7,-32,2
13:53:15:752308,-9,2,13,-2,-2,-6,-2,-10
13:53:15:753154,-9,2,13,-2,-2,-6,-2,-10
13:53:15:759141,1,-5,-2,-11,-6,-6,2,1
13:53:15:774837,-7,-4,-6,-6,6,0,3,-2
13:53:15:775632,-7,-4,-6,-6,6,0,3,-2
13:53:15:781608,-1,7,12,1,-1,3,-3,1
13:53:15:789180,-7,-1,-4,5,-7,-4,8,1
13:53:15:796603,-7,-1,-4,5,-7,-4,8,1
13:53:15:812939,3,0,20,-4,-4,4,10,5
13:53:15:813703,4,4,2,2,1,-2,2,6
13:53:15:814528,4,4,2,2,1,-2,2,6
13:53:15:819206,-5,-8,8,-3,1,5,2,0
13:53:15:834818,-4,-9,-2,-6,-4,-6,-6,-8
13:53:15:835616,-4,-9,-2,-6,-4,-6,-6,-8
13:53:15:841658,1,1,-7,8,0,-1,3,-6
13:53:15:849111,4,-5,10,4,-4,-2,6,7
13:53:15:856758,4,-5,10,4,-4,-2,6,7
13:53:15:864080,-9,-4,7,5,2,3,-13,0
13:53:15:872416,-14,-7,-2,5,2,4,6,-5
13:53:15:873110,-14,-7,-2,5,2,4,6,-5
13:53:15:879110,-4,-4,-6,-5,-2,-2,-16,1
13:53:15:895259,5,4,-5,-7,-1,1,-2,-5
13:53:15:896053,5,4,-5,-7,-1,1,-2,-5
13:53:15:901636,3,7,-2,-2,-1,-2,5,-3
13:53:15:909155,2,0,0,6,-2,-5,-12,-6
13:53:15:916705,2,0,0,6,-2,-5,-12,-6
13:53:15:924125,-3,-14,11,-2,-2,1,0,-8
13:53:15:932294,-5,-4,23,7,2,-5,-1,-10
13:53:15:933085,-5,-4,23,7,2,-5,-1,-10
13:53:15:939189,-1,-14,3,2,-1,-2,-2,12
13:53:15:954950,10,-3,-11,11,-2,3,2,11
13:53:15:955691,10,-3,-11,11,-2,3,2,11
13:53:15:961585,1,1,4,-11,-6,-8,-23,-7
13:53:15:977792,5,4,-2,9,-2,3,-3,4
13:53:15:978583,5,4,-2,9,-2,3,-3,4
13:53:15:984192,-3,2,19,14,1,-2,-8,4
13:53:15:992381,-3,2,-14,-14,0,2,2,-8
13:53:15:993094,-3,2,-14,-14,0,2,2,-8
13:53:16:6687,2,7,3,11,1,1,4,-1
13:53:16:14771,2,7,3,11,1,1,4,-1
13:53:16:15562,-4,5,6,-8,-5,6,0,1
13:53:16:21745,0,1,-21,-12,-10,-3,11,-2
13:53:16:37350,0,1,-21,-12,-10,-3,11,-2
13:53:16:38146,1,-1,-1,-4,1,2,-1,-3
13:53:16:44124,0,6,-19,-11,-5,-3,29,-5
13:53:16:52416,0,6,-19,-11,-5,-3,29,-5
13:53:16:53088,-1,-2,11,-3,0,1,-4,0
13:53:16:66648,0,-2,-28,0,5,1,3,-1
13:53:16:74878,0,-2,-28,0,5,1,3,-1
13:53:16:75566,-1,-5,3,2,-4,-2,-3,-13
13:53:16:81589,3,-6,9,-11,-10,-5,-9,-5
13:53:16:97340,3,-6,9,-11,-10,-5,-9,-5
13:53:16:98113,-5,0,-75,-11,2,-4,-3,-8
13:53:16:104207,-1,3,-1,2,2,2,-5,10
13:53:16:112358,-1,3,-1,2,2,2,-5,10
13:53:16:113126,-1,-4,1,-6,-5,-7,0,4
13:53:16:126608,-1,-6,-9,4,0,-3,4,-1
13:53:16:134941,-1,-6,-9,4,0,-3,4,-1
13:53:16:135607,0,4,10,-1,1,-7,4,8
13:53:16:141648,-3,6,4,-5,5,4,2,-6
13:53:16:157336,-3,6,4,-5,5,4,2,-6
13:53:16:158136,1,1,32,-4,-1,4,1,4
13:53:16:164080,-2,-8,-4,1,-3,-2,-6,2
13:53:16:172456,-2,-8,-4,1,-3,-2,-6,2
13:53:16:173185,-9,6,19,2,1,2,-8,5
13:53:16:186640,-3,-2,37,14,2,-2,0,12
13:53:16:194816,-3,-2,37,14,2,-2,0,12
13:53:16:195632,5,-2,18,-3,0,2,2,2
13:53:16:201626,2,13,-4,-6,-4,-2,-4,-7
13:53:16:217396,2,13,-4,-6,-4,-2,-4,-7
13:53:16:218079,3,-2,-9,1,-3,0,-8,-1
13:53:16:224119,5,-1,-10,-9,-3,-2,-9,-10
13:53:16:232337,5,-1,-10,-9,-3,-2,-9,-10
13:53:16:233131,-8,-4,-22,-7,-5,-6,6,-10
13:53:16:246613,-3,-3,7,-3,-4,0,-14,-3
13:53:16:254952,-3,-3,7,-3,-4,0,-14,-3
13:53:16:255635,1,-1,16,-2,-4,-1,0,2
13:53:16:261614,-2,-13,-10,-1,-5,-9,-8,5
13:53:16:277356,-2,-13,-10,-1,-5,-9,-8,5
13:53:16:278145,4,-4,-45,-3,6,-2,3,6
13:53:16:284185,-8,2,5,3,8,8,-4,-13
13:53:16:292373,-8,2,5,3,8,8,-4,-13
13:53:16:293147,2,-1,1,-3,-4,-6,5,-2
13:53:16:306699,-1,0,-17,-2,0,-1,9,4
13:53:16:314883,-1,0,-17,-2,0,-1,9,4
13:53:16:315632,3,2,15,14,4,1,-17,-2
13:53:16:321676,8,-2,-12,3,1,1,-17,1
13:53:16:337402,8,-2,-12,3,1,1,-17,1
13:53:16:338115,-2,6,-13,5,0,3,-9,0
13:53:16:344094,-2,-5,-25,-11,1,-1,21,7
13:53:16:352384,-2,-5,-25,-11,1,-1,21,7
13:53:16:353128,-1,-2,11,5,-2,-3,3,-3
13:53:16:366660,-7,-3,6,6,-2,-4,-5,-2
13:53:16:374827,-7,-3,6,6,-2,-4,-5,-2
13:53:16:375613,0,-7,25,-3,0,-5,-13,-11
13:53:16:381588,3,7,19,3,2,-4,-4,-3
13:53:16:397329,3,7,19,3,2,-4,-4,-3
13:53:16:398077,0,6,24,20,5,10,9,1
13:53:16:404145,-2,-2,-1,-7,-1,0,-6,-3
13:53:16:412316,-2,-2,-1,-7,-1,0,-6,-3
13:53:16:413093,-1,4,-11,-6,0,-3,-5,-1
13:53:16:426621,1,-4,1,11,-1,-2,7,3
13:53:16:434963,1,-4,1,11,-1,-2,7,3
13:53:16:435597,-8,-7,-24,-19,-9,-3,22,5
13:53:16:449116,4,1,-11,-6,-8,-4,5,1
13:53:16:457349,4,1,-11,-6,-8,-4,5,1
13:53:16:458104,-2,-3,-21,-7,-3,1,-3,0
13:53:16:464082,-3,1,-2,2,5,1,5,0
13:53:16:473098,-3,1,-2,2,5,1,5,0
13:53:16:473799,0,2,12,-3,2,4,6,0
13:53:16:486681,-4,4,4,-14,-8,-3,3,-4
13:53:16:494800,-4,4,4,-14,-8,-3,3,-4
13:53:16:495548,-6,-6,-16,3,2,-4,-4,0
13:53:16:501724,-5,11,11,1,3,-1,-17,-1
13:53:16:517473,-5,11,11,1,3,-1,-17,-1
13:53:16:518110,1,1,6,9,6,4,-9,-7
13:53:16:532987,0,-8,15,9,2,-5,16,3
13:53:16:533832,0,-8,15,9,2,-5,16,3
13:53:16:534588,0,-4,-6,0,-3,-6,-1,0
13:53:16:546632,-2,-2,2,1,2,-4,3,5
13:53:16:554924,-2,-2,2,1,2,-4,3,5
13:53:16:555668,-3,2,14,2,-4,2,1,-3
13:53:16:561604,-5,2,-48,-38,-10,-1,-2,-4
13:53:16:577356,-5,2,-48,-38,-10,-1,-2,-4
13:53:16:578112,-1,0,0,-10,-3,-3,-7,2
13:53:16:584178,7,-2,-48,10,-1,4,5,-1
13:53:16:592347,7,-2,-48,10,-1,4,5,-1
13:53:16:593114,-1,-2,2,-5,-4,1,-1,0
13:53:16:606678,-6,-7,12,5,0,2,10,-3
13:53:16:614891,-6,-7,12,5,0,2,10,-3
13:53:16:615581,-3,-7,-10,3,-3,-8,6,-6
13:53:16:621652,-1,1,15,6,4,10,-1,-2
13:53:16:637410,-1,1,15,6,4,10,-1,-2
13:53:16:638167,-1,-5,-11,-13,-6,-4,-9,2
13:53:16:644075,-1,-3,21,11,-3,-4,-11,-10
13:53:16:652356,-1,-3,21,11,-3,-4,-11,-10
13:53:16:653115,-5,-11,-34,-9,2,-5,-3,1
13:53:16:666606,-2,-2,19,5,5,-3,-11,4
13:53:16:674918,-2,-2,19,5,5,-3,-11,4
13:53:16:675623,3,4,18,7,-3,1,3,-1
13:53:16:681564,-2,-6,-3,-7,-3,-8,0,-2
13:53:16:697304,-2,-6,-3,-7,-3,-8,0,-2
13:53:16:698073,-2,1,27,10,5,6,4,4
13:53:16:704153,5,4,0,-2,0,4,-9,-5
13:53:16:712322,5,4,0,-2,0,4,-9,-5
13:53:16:713103,3,2,-3,-5,-7,-4,-12,-1
13:53:16:726666,-5,5,-19,-13,-10,-7,4,1
13:53:16:734813,-5,5,-19,-13,-10,-7,4,1
13:53:16:735568,2,6,-4,-22,-2,-1,-3,-1
13:53:16:741598,-6,-11,15,-12,-7,-4,-7,-13
13:53:16:757333,-6,-11,15,-12,-7,-4,-7,-13
13:53:16:758108,-3,4,-22,-2,-7,-1,1,-6
13:53:16:764040,7,6,11,3,2,-4,-45,-3
13:53:16:772415,7,6,11,3,2,-4,-45,-3
13:53:16:773106,0,-10,1,3,-3,0,10,7
13:53:16:786693,-5,-3,-7,13,-1,1,11,2
13:53:16:794828,-5,-3,-7,13,-1,1,11,2
13:53:16:795567,2,-2,-8,-26,9,0,-10,1
13:53:16:801623,3,-3,4,3,7,7,11,2
13:53:16:817385,3,-3,4,3,7,7,11,2
13:53:16:818089,-1,-7,-17,4,-1,-1,15,14
13:53:16:824112,-4,-2,-12,-10,-2,1,-7,-2
13:53:16:832341,-4,-2,-12,-10,-2,1,-7,-2
13:53:16:833051,-5,-2,14,13,0,2,15,-8
13:53:16:846625,-3,-8,-66,9,0,-6,4,-4
13:53:16:854937,-3,-8,-66,9,0,-6,4,-4
13:53:16:855577,-3,7,17,-15,-6,-2,-8,0
13:53:16:861616,0,5,15,8,-1,6,0,-6
13:53:16:877357,0,5,15,8,-1,6,0,-6
13:53:16:878088,-1,-9,7,14,5,0,-9,-3
13:53:16:884161,0,2,1,13,-1,3,19,5
13:53:16:892347,0,2,1,13,-1,3,19,5
13:53:16:893085,5,-1,21,6,-5,3,4,1
13:53:16:906699,2,-2,12,0,-1,-2,4,1
13:53:16:922430,2,-2,12,0,-1,-2,4,1
13:53:16:923089,-1,2,-31,-9,2,-4,-8,-4
13:53:16:929112,1,-3,2,-3,-2,0,10,2
13:53:16:937402,1,-3,2,-3,-2,0,10,2
13:53:16:938125,-4,-1,-7,1,0,1,-10,0
13:53:16:944103,-3,1,-3,-10,-3,4,4,4
13:53:16:951693,-3,1,-3,-10,-3,4,4,4
13:53:16:959172,2,14,3,7,2,-3,1,-4
13:53:16:966666,5,1,17,4,-2,-4,-9,-5
13:53:16:974823,5,1,17,4,-2,-4,-9,-5
13:53:16:975608,-3,-4,-3,-1,-3,1,3,-5
13:53:16:989252,4,-5,0,0,10,1,19,11
13:53:16:997113,4,-5,0,0,10,1,19,11
13:53:17:4903,5,2,-7,0,4,-3,-3,1
13:53:17:5563,-4,1,29,-4,0,-1,-6,-1
13:53:17:11624,-4,1,29,-4,0,-1,-6,-1
13:53:17:19064,-4,0,5,-1,5,-7,-18,-6
13:53:17:26616,-1,3,13,6,6,-1,-6,-2
13:53:17:34838,-1,3,13,6,6,-1,-6,-2
13:53:17:35594,-13,-6,6,5,-4,0,0,-1
13:53:17:49144,1,1,-26,7,-7,-11,-16,-7
13:53:17:57329,1,1,-26,7,-7,-11,-16,-7
13:53:17:58069,1,-5,-44,6,-1,-3,10,2
13:53:17:64047,-12,2,7,6,-2,0,5,-2
13:53:17:71726,-12,2,7,6,-2,0,5,-2
13:53:17:79054,0,-3,-6,4,0,1,-1,-8
13:53:17:86611,1,-2,-11,-11,-4,2,-9,-2
13:53:17:94833,1,-2,-11,-11,-4,2,-9,-2
13:53:17:95617,2,7,16,2,1,4,-4,3
13:53:17:109118,-3,1,-16,-14,1,-1,5,-3
13:53:17:117396,-3,1,-16,-14,1,-1,5,-3
13:53:17:118128,-1,-3,-13,-7,-11,2,6,3
13:53:17:124070,0,2,46,11,5,4,11,4
13:53:17:131633,0,2,46,11,5,4,11,4
13:53:17:139159,2,1,7,-14,-5,-1,7,-2
13:53:17:146600,-2,-2,-5,-10,-7,2,-2,0
13:53:17:154986,-2,-2,-5,-10,-7,2,-2,0
13:53:17:155643,5,1,-6,-8,-2,-1,-9,0
13:53:17:169161,-1,5,-21,2,2,-4,2,-2
13:53:17:177327,-1,5,-21,2,2,-4,2,-2
13:53:17:178129,-5,-1,9,7,0,-1,-6,-5
13:53:17:184136,6,-5,-22,-7,-9,-6,-21,-1
13:53:17:191745,6,-5,-22,-7,-9,-6,-21,-1
13:53:17:199112,-4,-3,25,4,1,-2,2,3
13:53:17:206707,0,-8,10,-3,1,-6,7,0
13:53:17:214757,0,-8,10,-3,1,-6,7,0
13:53:17:215562,-2,-2,12,2,-1,-2,-4,1
13:53:17:229078,-2,-2,-8,-6,0,-1,-9,-4
13:53:17:237438,-2,-2,-8,-6,0,-1,-9,-4
13:53:17:238166,0,-3,21,8,3,5,-12,-5
13:53:17:244121,3,-4,9,-5,0,7,3,2
13:53:17:251689,3,-4,9,-5,0,7,3,2
13:53:17:259186,-1,3,6,6,-4,-2,1,-1
13:53:17:266618,-5,-2,21,3,-1,-3,-18,3
13:53:17:274810,-5,-2,21,3,-1,-3,-18,3
13:53:17:275637,0,-5,-2,-5,-2,-6,-3,-6
13:53:17:289179,-3,-1,-11,-3,1,-5,0,-2
13:53:17:297349,-3,-1,-11,-3,1,-5,0,-2
13:53:17:298134,-3,-1,-20,-5,3,0,5,-1
13:53:17:304210,-4,-7,21,1,-2,-2,2,0
13:53:17:311660,-4,-7,21,1,-2,-2,2,0
13:53:17:319096,4,1,-4,4,-5,-3,10,8
13:53:17:326603,-3,-7,6,-12,-5,0,-1,-5
13:53:17:334929,-3,-7,6,-12,-5,0,-1,-5
13:53:17:335668,1,-2,11,5,4,-2,-4,-4
13:53:17:349158,1,4,3,0,1,-2,2,5
13:53:17:357373,1,4,3,0,1,-2,2,5
13:53:17:358133,3,5,44,-7,-1,-1,-16,-7
13:53:17:364065,-8,5,-4,4,2,0,-4,-8
13:53:17:371747,-8,5,-4,4,2,0,-4,-8
13:53:17:379056,-4,-3,-14,5,0,1,1,2
13:53:17:386641,5,2,-10,7,-4,-2,-5,1
13:53:17:394837,5,2,-10,7,-4,-2,-5,1
13:53:17:395588,1,-2,-20,4,-1,-3,-4,0
13:53:17:409105,-5,-7,-8,-2,2,-4,12,-7
13:53:17:417388,-5,-7,-8,-2,2,-4,12,-7
13:53:17:418106,-6,-8,6,-9,9,7,4,-4
13:53:17:424111,-5,-5,-14,-8,-5,-6,-3,2
13:53:17:431646,-5,-5,-14,-8,-5,-6,-3,2
13:53:17:439176,1,1,-11,-7,-3,-1,-7,-1
13:53:17:446603,-7,6,32,-2,-1,2,-10,-9
13:53:17:454974,-7,6,32,-2,-1,2,-10,-9
13:53:17:455623,-1,-5,-4,3,-12,-5,-2,1
13:53:17:469120,2,3,-15,-8,3,-3,-2,-4
13:53:17:477332,2,3,-15,-8,3,-3,-2,-4
13:53:17:478105,-8,0,-3,-11,1,-6,38,-2
13:53:17:484173,4,-10,3,-2,-3,-2,-4,-1
13:53:17:491681,4,-10,3,-2,-3,-2,-4,-1
13:53:17:499106,-1,1,-23,-8,2,3,-9,2
13:53:17:506703,6,1,-37,-2,-1,3,-5,-4
13:53:17:514806,6,1,-37,-2,-1,3,-5,-4
13:53:17:515561,-5,7,6,9,-3,-7,-13,-5
13:53:17:529091,2,3,5,-9,3,3,-5,2
13:53:17:537400,2,3,5,-9,3,3,-5,2
13:53:17:538149,1,4,9,5,-5,-2,-3,-2
13:53:17:544067,0,1,16,15,2,4,2,5
13:53:17:551650,0,1,16,15,2,4,2,5
13:53:17:559120,2,-2,5,2,1,2,14,1
13:53:17:566789,1,-5,-9,2,-2,4,12,2
13:53:17:574774,1,-5,-9,2,-2,4,12,2
13:53:17:575541,0,-4,-2,-4,-5,-4,4,2
13:53:17:589131,3,-8,-9,2,-4,-6,0,-2
13:53:17:597326,3,-8,-9,2,-4,-6,0,-2
13:53:17:598069,-1,-9,-26,-22,-8,-3,-14,-2
13:53:17:604230,-7,-11,-10,0,-4,-7,1,-5
13:53:17:611642,-7,-11,-10,0,-4,-7,1,-5
13:53:17:619065,1,-1,-6,7,-4,1,1,3
13:53:17:626598,1,1,-1,8,5,-5,-3,0
13:53:17:634929,1,1,-1,8,5,-5,-3,0
13:53:17:635623,-1,-11,7,10,2,-4,6,-4
13:53:17:649165,-2,2,13,10,-1,7,-6,5
13:53:17:657368,-2,2,13,10,-1,7,-6,5
13:53:17:658117,0,3,-38,-13,0,5,3,1
13:53:17:664044,-2,3,3,-9,-8,-3,-5,0
13:53:17:671764,-2,3,3,-9,-8,-3,-5,0
13:53:17:679035,-1,2,17,3,2,0,-2,6
13:53:17:686684,1,-1,-1,-11,-1,-5,-12,-9
13:53:17:702346,1,-1,-1,-11,-1,-5,-12,-9
13:53:17:703110,-1,7,14,2,5,0,-10,-4
13:53:17:709099,-1,-10,-1,-25,-6,-9,8,3
13:53:17:717406,-1,-10,-1,-25,-6,-9,8,3
13:53:17:718142,-5,-10,2,8,2,-1,-8,-6
13:53:17:724131,0,-1,3,4,2,6,15,-1
13:53:17:731621,0,-1,3,4,2,6,15,-1
13:53:17:739205,-3,0,3,-16,-2,-4,18,3
13:53:17:746599,-4,-8,-8,16,5,2,-2,2
13:53:17:754983,-4,-8,-8,16,5,2,-2,2
13:53:17:755628,-2,4,13,8,-4,1,-10,-2
13:53:17:769086,-3,5,-6,-3,-4,-6,3,-3
13:53:17:777351,-3,5,-6,-3,-4,-6,3,-3
13:53:17:778122,2,-1,1,10,4,1,-3,-3
13:53:17:784181,-2,4,-4,-5,-7,-1,3,2
13:53:17:791680,-2,4,-4,-5,-7,-1,3,2
13:53:17:799123,0,6,-4,-5,0,3,2,-1
13:53:17:806695,7,-2,-13,2,0,-1,6,0
13:53:17:814794,7,-2,-13,2,0,-1,6,0
13:53:17:815577,-3,-6,9,-17,1,-1,-6,-1
13:53:17:829117,-5,9,19,-6,0,4,-17,-3
13:53:17:837475,-5,9,19,-6,0,4,-17,-3
13:53:17:838167,-1,4,0,0,1,-3,-14,1
13:53:17:852467,-5,9,-19,0,2,2,1,-3
13:53:17:853146,-5,9,-19,0,2,2,1,-3
13:53:17:859185,3,-11,10,-17,-4,-5,15,2
13:53:17:866622,-1,1,29,0,-1,-2,-6,-5
13:53:17:874273,-1,1,29,0,-1,-2,-6,-5
13:53:17:881606,-2,-9,-14,1,-2,4,-4,-2
13:53:17:889294,1,-6,5,-3,6,2,4,4
13:53:17:897317,1,-6,5,-3,6,2,4,4
13:53:17:898060,3,-1,6,2,2,-1,-13,3
13:53:17:912271,-2,-16,-45,-15,-6,-3,1,-1
13:53:17:913080,-2,-16,-45,-15,-6,-3,1,-1
13:53:17:919135,0,3,-40,4,-1,-4,-3,-4
13:53:17:926607,4,1,5,-2,-3,-4,-1,5
13:53:17:934226,4,1,5,-2,-3,-4,-1,5
13:53:17:941685,-8,-1,-7,3,-2,2,-4,-8
13:53:17:949165,-3,3,7,-1,-4,-9,10,0
13:53:17:957349,-3,3,7,-1,-4,-9,10,0
13:53:17:958109,2,6,28,-1,-3,1,6,-3
13:53:17:972412,5,-10,-64,1,-4,-5,-5,3
13:53:17:973122,5,-10,-64,1,-4,-5,-5,3
13:53:17:979028,-2,3,15,1,-4,-6,-2,5
13:53:17:986708,-2,-4,0,-14,-4,3,0,-7
13:53:17:994141,-2,-4,0,-14,-4,3,0,-7
13:53:18:1637,-1,-8,-10,2,-5,-7,-1,-3
13:53:18:9091,-2,7,22,3,-4,0,-4,0
13:53:18:17439,-2,7,22,3,-4,0,-4,0
13:53:18:18128,-5,-1,5,0,-3,0,-15,3
13:53:18:32370,-4,5,23,10,9,6,-10,-5
13:53:18:33098,-4,5,23,10,9,6,-10,-5
13:53:18:39207,-5,-10,-4,-25,2,2,10,5
13:53:18:46608,-3,1,-11,-8,0,-4,-1,-3
13:53:18:54242,-3,1,-11,-8,0,-4,-1,-3
13:53:18:61613,6,12,-6,11,4,-2,-6,-2
13:53:18:69066,-2,6,15,-1,2,4,-5,0
13:53:18:77362,-2,6,15,-1,2,4,-5,0
13:53:18:78117,-4,-8,1,0,-1,-7,-12,-18
13:53:18:92368,6,0,8,11,-1,-2,-5,1
13:53:18:93112,6,0,8,11,-1,-2,-5,1
13:53:18:99083,-8,1,9,17,0,-7,1,-7
13:53:18:106651,-2,1,-7,10,3,3,5,-4
13:53:18:114148,-2,1,-7,10,3,3,5,-4
13:53:18:121669,6,1,-6,-3,2,7,10,6
13:53:18:129078,-3,-2,10,-1,-2,1,-5,-2
13:53:18:137374,-3,-2,10,-1,-2,1,-5,-2
13:53:18:138046,-4,-1,5,-5,-1,4,-11,0
13:53:18:152372,-4,-8,5,-2,-8,-6,-7,-8
13:53:18:153134,-4,-8,5,-2,-8,-6,-7,-8
13:53:18:159118,8,0,-17,-5,-7,0,3,-1
13:53:18:166607,3,-2,1,3,-1,3,3,-2
13:53:18:174133,3,-2,1,3,-1,3,3,-2
13:53:18:181607,0,2,-1,0,-3,4,12,0
13:53:18:189214,1,0,5,4,-5,-8,10,-9
13:53:18:197322,1,0,5,4,-5,-8,10,-9
13:53:18:198048,2,5,16,18,2,-5,-16,-3
13:53:18:212263,-7,-10,-10,-6,-1,-5,-13,0
13:53:18:213060,-7,-10,-10,-6,-1,-5,-13,0
13:53:18:219109,4,-9,17,8,-3,-1,-3,9
13:53:18:226609,0,4,-10,-11,0,-2,7,-1
13:53:18:234165,0,4,-10,-11,0,-2,7,-1
13:53:18:241590,1,1,0,-11,-3,-3,1,-1
13:53:18:249129,-1,5,9,0,3,7,11,6
13:53:18:257338,-1,5,9,0,3,7,11,6
13:53:18:258103,2,-4,-5,103,-6,-9,11,1
13:53:18:272425,-9,-17,2,-22,0,-7,-7,-8
13:53:18:273066,-9,-17,2,-22,0,-7,-7,-8
13:53:18:279049,0,-1,4,-59,3,7,1,-3
13:53:18:286611,-1,10,32,-3,-3,2,-7,3
13:53:18:294178,-1,10,32,-3,-3,2,-7,3
13:53:18:301697,-4,-1,-7,-9,1,-3,6,-2
13:53:18:309145,-5,-4,-4,-22,3,0,-3,6
13:53:18:317424,-5,-4,-4,-22,3,0,-3,6
13:53:18:318106,-2,2,-6,-16,2,2,-11,-6
13:53:18:332355,-2,-2,-23,4,-4,-4,-6,-1
13:53:18:333109,-2,-2,-23,4,-4,-4,-6,-1
13:53:18:339173,-1,0,-30,-9,3,-3,7,-1
13:53:18:346583,8,2,4,4,3,-1,-2,10
13:53:18:354188,8,2,4,4,3,-1,-2,10
13:53:18:361586,-5,-2,31,-7,4,1,-6,-3
13:53:18:369071,2,3,-7,5,-4,8,11,2
13:53:18:377380,2,3,-7,5,-4,8,11,2
13:53:18:378160,-1,1,-5,-14,-6,-2,4,-2
13:53:18:392378,1,-6,-4,4,-2,-4,-11,-1
13:53:18:393154,1,-6,-4,4,-2,-4,-11,-1
13:53:18:399118,-5,-1,-1,-3,-5,3,-9,-5
13:53:18:406647,5,5,31,-6,-3,-2,12,0
13:53:18:414158,5,5,31,-6,-3,-2,12,0
13:53:18:421656,5,7,32,15,5,2,4,3
13:53:18:429089,7,8,3,7,3,2,2,5
13:53:18:437423,7,8,3,7,3,2,2,5
13:53:18:438090,-7,-10,-6,-4,2,-3,-4,-5
13:53:18:452464,3,0,-13,-2,-3,-3,4,-4
13:53:18:453178,3,0,-13,-2,-3,-3,4,-4
13:53:18:459151,2,-3,-30,-7,-5,-4,7,3
13:53:18:466599,-9,-4,-15,3,0,-5,-5,-4
13:53:18:474107,-9,-4,-15,3,0,-5,-5,-4
13:53:18:481652,5,-2,1,-4,3,8,0,1
13:53:18:489187,4,-5,-16,-12,-5,0,2,-1
13:53:18:497326,4,-5,-16,-12,-5,0,2,-1
13:53:18:498071,-11,-8,-18,-18,-5,-7,-6,-9
13:53:18:512227,1,-5,-20,2,3,-2,-2,-1
13:53:18:513065,1,-5,-20,2,3,-2,-2,-1
13:53:18:519134,1,7,4,-7,-8,-1,-1,8
13:53:18:526650,-11,-6,4,-8,-8,-6,-11,-6
13:53:18:534201,-11,-6,4,-8,-8,-6,-11,-6
13:53:18:541602,1,3,-24,-2,1,1,13,2
13:53:18:549042,1,-4,2,2,-2,7,0,-4
13:53:18:557372,1,-4,2,2,-2,7,0,-4
13:53:18:558105,1,-2,0,-8,-4,-4,-9,2
13:53:18:572417,2,6,31,0,6,1,0,10
13:53:18:573112,2,6,31,0,6,1,0,10
13:53:18:579073,2,7,3,3,2,3,-5,-1
13:53:18:586582,-3,0,19,1,-6,-6,-7,-6
13:53:18:594157,-3,0,19,1,-6,-6,-7,-6
13:53:18:601624,1,0,12,11,-5,4,2,-2
13:53:18:618026,-5,-5,-23,16,-2,-4,4,-4
13:53:18:618734,-5,-5,-23,16,-2,-4,4,-4
13:53:18:619581,-1,1,12,-6,-3,5,0,-4
13:53:18:632277,-6,-13,-32,-11,-2,-4,6,1
13:53:18:633053,-6,-13,-32,-11,-2,-4,6,1
13:53:18:639208,-1,-3,-7,-15,1,-1,19,1
13:53:18:646624,0,4,-12,5,-2,-1,0,5
13:53:18:654199,0,4,-12,5,-2,-1,0,5
13:53:18:661625,-11,-9,-5,-1,2,-2,-14,-1
13:53:18:669063,2,11,-20,-13,-5,-7,-4,-2
13:53:18:677365,2,11,-20,-13,-5,-7,-4,-2
13:53:18:678125,1,3,5,15,-1,1,-1,-2
13:53:18:692351,-4,-7,-6,0,7,2,-4,-2
13:53:18:693088,-4,-7,-6,0,7,2,-4,-2
13:53:18:699075,0,-6,-5,-8,-7,-13,-5,-7
13:53:18:706679,-2,-5,-15,-1,2,-3,-4,-7
13:53:18:714125,-2,-5,-15,-1,2,-3,-4,-7
13:53:18:721641,-7,-9,-16,-1,-4,-3,-1,1
13:53:18:729078,-2,3,21,-1,-4,-1,-3,-1
13:53:18:737444,-2,3,21,-1,-4,-1,-3,-1
13:53:18:738138,-3,0,-11,0,-2,-4,-2,1
13:53:18:752407,-1,2,-35,-4,3,-1,-6,0
13:53:18:753073,-1,2,-35,-4,3,-1,-6,0
13:53:18:759119,7,0,6,1,4,0,-16,-1
13:53:18:766638,0,5,18,16,2,2,-1,-2
13:53:18:774189,0,5,18,16,2,2,-1,-2
13:53:18:781595,2,6,-2,-1,-3,-6,-12,0
13:53:18:789166,4,7,17,16,-1,3,-5,0
13:53:18:796647,4,7,17,16,-1,3,-5,0
13:53:18:804142,-1,-5,20,13,2,-1,5,1
13:53:18:812247,-6,0,14,5,-5,-8,-4,-1
13:53:18:813102,-6,0,14,5,-5,-8,-4,-1
13:53:18:819103,-2,2,30,-17,5,4,1,-2
13:53:18:834782,3,-5,16,-3,2,-3,2,-8
13:53:18:835605,3,-5,16,-3,2,-3,2,-8
13:53:18:841592,-1,2,-19,-7,-7,-4,-7,-2
13:53:18:849108,2,1,16,-14,-1,2,-6,-4
13:53:18:856720,2,1,16,-14,-1,2,-6,-4
13:53:18:864103,-1,-5,-9,-4,-5,-2,9,4
13:53:18:872393,-9,-3,-50,-6,-6,-5,5,3
13:53:18:873081,-9,-3,-50,-6,-6,-5,5,3
13:53:18:879059,-3,-10,-13,12,0,-8,0,-5
13:53:18:894792,3,-2,-8,-4,5,1,5,-2
13:53:18:895576,3,-2,-8,-4,5,1,5,-2
13:53:18:901625,0,-3,-9,-18,4,1,6,1
13:53:18:909121,-3,0,-23,-4,1,8,17,-2
13:53:18:916683,-3,0,-23,-4,1,8,17,-2
13:53:18:924130,6,4,20,3,-2,-2,-4,-3
13:53:18:932327,1,-6,-8,-8,1,-5,0,0
13:53:18:933070,1,-6,-8,-8,1,-5,0,0
13:53:18:946615,-5,5,-14,16,4,-1,3,7
13:53:18:954932,-1,-3,34,7,2,4,-12,0
13:53:18:955582,-1,-3,34,7,2,4,-12,0
13:53:18:961592,0,-2,7,-9,-5,2,-7,-1
13:53:18:969093,-3,-8,4,-2,-2,-4,0,-8
13:53:18:976670,-3,-8,4,-2,-2,-4,0,-8
13:53:18:984174,-3,-7,-46,-18,-3,-3,9,0
13:53:18:992349,-1,-6,-32,-1,-2,-5,-5,0
13:53:18:993088,-1,-6,-32,-1,-2,-5,-5,0
13:53:18:999102,-5,1,6,-10,-2,0,-9,1
13:53:19:14783,8,-5,15,1,0,2,-8,7
13:53:19:15578,8,-5,15,1,0,2,-8,7
13:53:19:21716,-1,2,-11,-10,-3,0,5,0
13:53:19:29079,-7,0,19,8,1,-1,-2,-1
13:53:19:36768,-7,0,19,8,1,-1,-2,-1
13:53:19:44099,2,-2,11,6,-5,-3,2,-3
13:53:19:52376,1,0,10,2,-2,-2,9,-1
13:53:19:53128,1,0,10,2,-2,-2,9,-1
13:53:19:59145,1,-3,-16,0,3,4,-5,-2
13:53:19:74833,-3,-6,11,5,-1,5,-2,-1
13:53:19:75642,-3,-6,11,5,-1,5,-2,-1
13:53:19:81571,5,6,26,5,0,4,7,-1
13:53:19:89157,-6,-4,-1,-9,-3,-6,-5,-3
13:53:19:96693,-6,-4,-1,-9,-3,-6,-5,-3
13:53:19:104146,0,0,-5,4,-2,-5,-3,-5
13:53:19:112256,1,8,-37,-6,-2,3,2,1
13:53:19:113096,1,8,-37,-6,-2,3,2,1
13:53:19:119096,-5,-2,3,3,7,-2,-15,-2
13:53:19:134868,2,8,10,6,-2,-2,0,-3
13:53:19:135607,2,8,10,6,-2,-2,0,-3
13:53:19:141660,-3,-2,13,-11,-5,-5,8,0
13:53:19:149108,-2,0,12,-3,-5,-6,-2,-2
13:53:19:156749,-2,0,12,-3,-5,-6,-2,-2
13:53:19:164107,4,-3,5,9,0,-2,-3,6
13:53:19:172465,1,2,-3,-17,0,4,33,1
13:53:19:173112,1,2,-3,-17,0,4,33,1
13:53:19:179049,-4,4,-3,8,7,6,-5,-8
13:53:19:194807,-2,-4,-13,2,-2,-1,-12,0
13:53:19:195574,-2,-4,-13,2,-2,-1,-12,0
13:53:19:201713,1,-1,0,10,0,1,-1,2
13:53:19:209164,-5,-8,25,7,3,9,-6,-2
13:53:19:216701,-5,-8,25,7,3,9,-6,-2
13:53:19:224104,1,3,6,7,0,-1,1,-4
13:53:19:232330,-10,-3,18,8,-2,-5,-6,-3
13:53:19:233111,-10,-3,18,8,-2,-5,-6,-3
13:53:19:239194,-4,-6,-7,-5,-2,-1,-11,-4
13:53:19:254902,9,-2,3,-18,-2,-6,-7,3
13:53:19:255660,9,-2,3,-18,-2,-6,-7,3
13:53:19:261602,-2,-2,-22,-17,0,1,13,0
13:53:19:269092,5,5,-22,3,-3,4,14,3
13:53:19:276693,5,5,-22,3,-3,4,14,3
13:53:19:284197,-6,-10,7,2,-5,-1,-11,3
13:53:19:292367,1,9,29,-8,7,1,-7,-2
13:53:19:293129,1,9,29,-8,7,1,-7,-2
13:53:19:299101,-2,4,-15,-5,0,-1,9,0
13:53:19:314770,1,-3,5,-12,-6,-8,-10,1
13:53:19:315563,1,-3,5,-12,-6,-8,-10,1
13:53:19:321619,-9,-5,15,7,-5,-3,-11,-10
13:53:19:337399,-9,-5,15,7,-5,-3,-11,-10
13:53:19:338141,4,6,-53,6,-2,2,2,-4
13:53:19:344105,-4,-6,1,-1,3,1,-5,1
13:53:19:352366,-4,-6,1,-1,3,1,-5,1
13:53:19:353158,-1,-2,13,7,-5,1,-3,-3
13:53:19:359139,2,-1,0,6,4,-7,7,4
13:53:19:374820,2,-1,0,6,4,-7,7,4
13:53:19:375638,0,3,5,3,-5,1,8,1
13:53:19:381587,1,2,13,-1,1,4,-6,-7
13:53:19:397346,1,2,13,-1,1,4,-6,-7
13:53:19:398101,-2,-5,-4,-18,-5,-8,-3,-3
13:53:19:404143,4,3,33,-2,-3,-5,-3,2
13:53:19:412332,4,3,33,-2,-3,-5,-3,2
13:53:19:413086,-1,4,24,4,1,2,-4,-7
13:53:19:419153,-8,-3,5,2,5,0,-6,-6
13:53:19:434950,-8,-3,5,2,5,0,-6,-6
13:53:19:435655,-11,-7,11,12,6,2,-3,1
13:53:19:441594,2,2,-28,6,0,1,0,1
13:53:19:457402,2,2,-28,6,0,1,0,1
13:53:19:458131,-2,-1,-11,-14,-2,-2,9,-1
13:53:19:464068,-2,-1,-23,3,-3,2,6,3
13:53:19:472418,-2,-1,-23,3,-3,2,6,3
13:53:19:473083,0,-8,1,2,6,4,0,2
13:53:19:479036,2,1,3,0,0,-3,4,1
13:53:19:494642,2,1,3,0,0,-3,4,1
13:53:19:502254,1,-2,9,3,6,6,-5,8
13:53:19:503012,-4,-11,-15,-12,1,0,0,-1
13:53:19:517473,-4,-11,-15,-12,1,0,0,-1
13:53:19:518161,-3,-6,-8,-2,-5,-7,-7,-6
13:53:19:524112,3,-3,12,-6,-5,1,1,-7
13:53:19:532386,3,-3,12,-6,-5,1,1,-7
13:53:19:533116,0,0,-16,6,-3,-4,-9,-8
13:53:19:539152,5,1,-12,5,-1,0,-4,4
13:53:19:554969,5,1,-12,5,-1,0,-4,4
13:53:19:555590,0,6,15,0,0,1,-4,0
13:53:19:561605,-2,4,-2,1,0,0,-8,0
13:53:19:577305,-2,4,-2,1,0,0,-8,0
13:53:19:578049,-2,0,-14,1,-8,-4,-3,6
13:53:19:584171,-7,-10,-11,0,1,2,4,-5
13:53:19:592367,-7,-10,-11,0,1,2,4,-5
13:53:19:593083,5,-6,-63,-7,-2,0,9,-1
13:53:19:599102,7,7,-1,-9,-7,-3,1,2
13:53:19:615232,7,7,-1,-9,-7,-3,1,2
13:53:19:616060,-3,-3,8,2,0,-1,-7,0
13:53:19:621721,6,6,-3,-10,-4,-2,0,4
13:53:19:637450,6,6,-3,-10,-4,-2,0,4
13:53:19:638171,-7,-6,-1,4,-2,-3,-1,-1
13:53:19:644134,-2,-7,-2,-5,-3,-3,10,0
13:53:19:652427,-2,-7,-2,-5,-3,-3,10,0
13:53:19:653044,3,6,16,-6,3,-1,-1,2
13:53:19:659139,-1,4,1,2,-3,-1,-5,0
13:53:19:674864,-1,4,1,2,-3,-1,-5,0
13:53:19:675597,1,-6,5,8,1,3,7,-4
13:53:19:681595,-1,-4,8,0,-1,-6,-4,-1
13:53:19:698163,-1,-4,8,0,-1,-6,-4,-1
13:53:19:704893,-4,2,-1,3,0,-2,1,-8
13:53:19:705552,-6,-1,9,3,-3,-1,-3,-7
13:53:19:712253,-6,-1,9,3,-3,-1,-3,-7
13:53:19:713091,-3,1,8,3,0,0,-4,-1
13:53:19:719151,4,6,-9,-7,-1,-5,3,5
13:53:19:734939,4,6,-9,-7,-1,-5,3,5
13:53:19:735619,1,4,8,-4,-1,5,-7,0
13:53:19:741609,-1,-1,9,5,3,0,-1,1
13:53:19:757383,-1,-1,9,5,3,0,-1,1
13:53:19:758130,-3,-5,25,8,-2,0,-4,0
13:53:19:764077,-3,2,13,13,-3,0,-16,5
13:53:19:772444,-3,2,13,13,-3,0,-16,5
13:53:19:773156,0,-4,11,2,0,-1,-7,-6
13:53:19:786653,-6,-9,-44,-20,-4,-6,8,-1
13:53:19:794814,-6,-9,-44,-20,-4,-6,8,-1
13:53:19:795619,2,3,3,0,1,0,1,3
13:53:19:801638,1,5,10,7,0,-3,-5,-4
13:53:19:817423,1,5,10,7,0,-3,-5,-4
13:53:19:818119,-4,-10,-14,-15,-4,-8,-4,-5
13:53:19:824151,-4,-1,6,2,5,-1,5,-2
13:53:19:832340,-4,-1,6,2,5,-1,5,-2
13:53:19:833159,-1,2,-40,-11,-2,3,-1,-3
13:53:19:846603,4,-1,-11,-1,-4,1,2,4
13:53:19:854990,4,-1,-11,-1,-4,1,2,4
13:53:19:855653,0,2,-1,1,-3,0,1,-1
13:53:19:861598,0,-4,-13,-15,-1,0,10,-8
13:53:19:869165,0,-4,-13,-15,-1,0,10,-8
13:53:19:876620,1,-6,2,-1,-4,-8,0,0
13:53:19:884226,-5,3,13,3,4,0,-11,-14
13:53:19:892328,-5,3,13,3,4,0,-11,-14
13:53:19:893113,0,6,11,-10,-4,0,8,3
13:53:19:906727,1,-8,-6,-22,-2,-7,4,2
13:53:19:914827,1,-8,-6,-22,-2,-7,4,2
13:53:19:915608,0,0,-8,-3,-1,-7,10,-1
13:53:19:921669,-1,-4,4,-1,-1,3,8,4
13:53:19:929128,-1,-4,4,-1,-1,3,8,4
13:53:19:936686,4,2,-3,-2,5,4,9,19
13:53:19:944140,-6,5,-15,4,-3,0,-10,-2
13:53:19:952399,-6,5,-15,4,-3,0,-10,-2
13:53:19:953047,4,-2,-10,-15,2,2,0,2
13:53:19:966613,0,1,19,4,0,3,-4,-5
13:53:19:974790,0,1,19,4,0,3,-4,-5
13:53:19:975575,-12,-1,-5,-16,1,-4,-5,-3
13:53:19:981615,6,6,-1,-8,-3,-1,-5,0
13:53:19:989162,6,6,-1,-8,-3,-1,-5,0
13:53:19:996575,2,-2,-7,29,-1,-4,-7,-4
13:53:20:4129,3,-3,1,-14,-5,-3,-10,4
13:53:20:12333,3,-3,1,-14,-5,-3,-10,4
13:53:20:13074,-4,2,15,-6,0,-3,-13,-8
13:53:20:26639,-6,-1,-3,12,-1,0,5,-3
13:53:20:34825,-6,-1,-3,12,-1,0,5,-3
13:53:20:35562,-4,-12,7,9,3,0,-11,-9
13:53:20:41577,-5,-8,0,3,2,-9,4,-6
13:53:20:49149,-5,-8,0,3,2,-9,4,-6
13:53:20:56608,0,13,23,7,-3,3,8,-1
13:53:20:64045,3,-1,-12,15,-1,2,-2,-2
13:53:20:72435,3,-1,-12,15,-1,2,-2,-2
13:53:20:73097,4,-4,5,-11,-6,-6,-17,-5
13:53:20:86660,0,0,2,-1,-4,-2,-2,0
13:53:20:94820,0,0,2,-1,-4,-2,-2,0
13:53:20:95605,-6,0,8,11,1,3,1,4
13:53:20:101618,5,-9,14,-16,-4,-2,3,2
13:53:20:109176,5,-9,14,-16,-4,-2,3,2
13:53:20:116627,4,-5,17,14,-2,0,4,-6
13:53:20:124125,-3,14,44,0,-1,1,4,0
13:53:20:132333,-3,14,44,0,-1,1,4,0
13:53:20:133140,-5,-2,-14,-11,-2,0,-7,3
13:53:20:146607,0,1,6,13,1,6,-12,-8
13:53:20:155008,0,1,6,13,1,6,-12,-8
13:53:20:155587,-6,3,-33,-19,-5,-3,11,3
13:53:20:161606,8,0,2,-13,-2,2,-3,2
13:53:20:169197,8,0,2,-13,-2,2,-3,2
13:53:20:176623,2,2,-23,-21,-1,-8,0,3
13:53:20:184162,-9,-5,-12,1,2,0,-7,-2
13:53:20:192296,-9,-5,-12,1,2,0,-7,-2
13:53:20:193082,4,-3,26,14,-2,0,2,3
13:53:20:206670,-3,-3,-7,11,4,-2,-10,-2
13:53:20:214814,-3,-3,-7,11,4,-2,-10,-2
13:53:20:215608,-6,-10,-12,11,1,1,8,-1
13:53:20:221686,-7,-9,1,4,-1,4,-1,-3
13:53:20:229087,-7,-9,1,4,-1,4,-1,-3
13:53:20:236669,1,1,10,-7,-1,-3,-4,3
13:53:20:244125,1,-4,-20,-2,-2,-4,21,0
13:53:20:252450,1,-4,-20,-2,-2,-4,21,0
13:53:20:253075,0,5,-18,-14,-3,0,0,-2
13:53:20:266657,-2,3,-2,-3,3,0,-11,5
13:53:20:274822,-2,3,-2,-3,3,0,-11,5
13:53:20:275622,2,-1,-13,1,1,-1,-1,-1
13:53:20:281604,-5,-1,-8,9,6,0,-4,5
13:53:20:289192,-5,-1,-8,9,6,0,-4,5
13:53:20:296597,-4,-7,16,16,1,6,-4,-4
13:53:20:304177,0,2,16,7,-6,0,6,-2
13:53:20:312380,0,2,16,7,-6,0,6,-2
13:53:20:313105,-4,-1,11,4,-2,0,-4,-3
13:53:20:326661,6,-4,-12,-1,1,-6,1,0
13:53:20:334829,6,-4,-12,-1,1,-6,1,0
13:53:20:335602,3,2,26,-5,-1,-5,-7,0
13:53:20:341615,-4,3,-4,-4,-1,-1,2,-6
13:53:20:349161,-4,3,-4,-4,-1,-1,2,-6
13:53:20:356630,0,-2,-4,12,2,-6,1,-7
13:53:20:364038,1,5,-29,-3,9,3,4,3
13:53:20:372454,1,5,-29,-3,9,3,4,3
13:53:20:373131,-1,-2,-9,5,-3,-2,0,-8
13:53:20:386651,2,-9,20,11,-4,1,9,1
13:53:20:394831,2,-9,20,11,-4,1,9,1
13:53:20:395582,-9,-4,-32,-2,-5,-10,-1,-7
13:53:20:401602,0,-1,-1,11,-2,1,-7,0
13:53:20:409190,0,-1,-1,11,-2,1,-7,0
13:53:20:416603,1,7,11,-2,-1,3,-5,-1
13:53:20:424135,-1,-2,-20,-38,-5,-3,4,-1
13:53:20:439924,-1,-2,-20,-38,-5,-3,4,-1
13:53:20:440619,2,2,3,-2,0,5,3,4
13:53:20:446594,-6,0,-8,-19,-2,2,0,-2
13:53:20:454920,-6,0,-8,-19,-2,2,0,-2
13:53:20:455651,5,0,46,4,3,4,6,-3
13:53:20:461592,1,-5,12,7,-3,-12,-20,-3
13:53:20:469162,1,-5,12,7,-3,-12,-20,-3
13:53:20:476636,-3,-1,-1,1,-5,-2,-12,1
13:53:20:484177,-4,-1,7,4,-2,-6,-2,-6
13:53:20:492291,-4,-1,7,4,-2,-6,-2,-6
13:53:20:493065,-1,-7,-2,-1,4,0,-10,6
13:53:20:506630,-3,-5,-8,15,6,-2,-2,-3
13:53:20:514815,-3,-5,-8,15,6,-2,-2,-3
13:53:20:515616,-4,-4,0,1,-8,-1,-1,-6
13:53:20:521678,-3,3,23,2,-4,0,-13,-2
13:53:20:529080,-3,3,23,2,-4,0,-13,-2
13:53:20:536673,5,4,2,9,3,3,-2,0
13:53:20:544128,-4,-2,-21,-9,-5,-2,-21,-2
13:53:20:552364,-4,-2,-21,-9,-5,-2,-21,-2
13:53:20:553078,-3,-14,-5,-23,-3,-2,-12,-3
13:53:20:566632,0,0,7,5,1,8,20,-2
13:53:20:574801,0,0,7,5,1,8,20,-2
13:53:20:575585,-2,2,-3,-31,-6,-9,8,-5
13:53:20:581608,0,-3,-2,-3,-2,1,-3,-2
13:53:20:589214,0,-3,-2,-3,-2,1,-3,-2
13:53:20:596564,-1,3,-8,1,8,2,15,0
13:53:20:604176,5,1,13,-6,-9,-13,0,4
13:53:20:612348,5,1,13,-6,-9,-13,0,4
13:53:20:613117,-2,-2,-4,15,1,1,1,5
13:53:20:626669,0,0,3,15,1,-3,-4,1
13:53:20:634893,0,0,3,15,1,-3,-4,1
13:53:20:635588,-2,5,-15,-3,-1,1,-2,0
13:53:20:641602,-2,-5,-26,-9,11,6,0,-5
13:53:20:649148,-2,-5,-26,-9,11,6,0,-5
13:53:20:656709,1,9,-15,9,6,-5,6,0
13:53:20:664052,-6,0,-8,-21,0,-2,0,-4
13:53:20:672435,-6,0,-8,-21,0,-2,0,-4
13:53:20:673141,3,0,-7,-3,4,-1,-2,-1
13:53:20:686626,2,-1,-39,14,-6,-1,-15,6
13:53:20:694826,2,-1,-39,14,-6,-1,-15,6
13:53:20:695584,3,4,-5,0,-2,5,-6,-2
13:53:20:718446,3,5,20,2,-3,-5,3,-1
13:53:20:719189,3,5,20,2,-3,-5,3,-1
13:53:20:724783,-1,-8,-6,1,2,-1,-14,0
13:53:20:725556,5,-3,15,-7,-4,3,7,-2
13:53:20:731619,5,-3,15,-7,-4,3,7,-2
13:53:20:739159,-6,-8,13,5,-9,-1,-3,-4
13:53:20:746568,1,7,22,9,2,3,-1,2
13:53:20:754864,1,7,22,9,2,3,-1,2
13:53:20:755612,-6,-7,1,-14,-4,0,8,-3
13:53:20:769787,-5,1,27,0,-6,-4,0,-10
13:53:20:770573,-5,1,27,0,-6,-4,0,-10
13:53:20:776581,0,0,-20,-7,4,-9,2,-2
13:53:20:784149,-8,1,2,-12,-5,-3,9,0
13:53:20:791652,-8,1,2,-12,-5,-3,9,0
13:53:20:799076,-2,3,6,-7,-8,3,-6,-4
13:53:20:806645,4,0,-7,7,1,-4,-2,2
13:53:20:814765,4,0,-7,7,1,-4,-2,2
13:53:20:815586,-3,-5,6,26,2,-1,7,-1
13:53:20:829770,-1,-3,-6,6,3,0,1,4
13:53:20:830597,-1,-3,-6,6,3,0,1,4
13:53:20:836660,5,7,9,12,-2,3,7,3
13:53:20:844151,-3,6,-33,-9,3,0,-6,-1
13:53:20:851708,-3,6,-33,-9,3,0,-6,-1
13:53:20:859175,0,-6,-10,-7,-5,-5,-8,-4
13:53:20:866617,1,1,17,-6,-2,1,-4,1
13:53:20:874828,1,1,17,-6,-2,1,-4,1
13:53:20:875631,-5,4,-29,-12,-4,-5,-2,1
13:53:20:889883,1,3,19,15,5,1,-9,-2
13:53:20:890648,1,3,19,15,5,1,-9,-2
13:53:20:896585,-1,-13,1,-2,4,-4,-8,-5
13:53:20:904193,-4,-1,-7,-4,-5,0,-4,3
13:53:20:911686,-4,-1,-7,-4,-5,0,-4,3
13:53:20:919173,-1,-3,-47,-7,-1,0,3,2
13:53:20:926629,-13,-10,-10,11,-2,-7,7,-3
13:53:20:934901,-13,-10,-10,11,-2,-7,7,-3
13:53:20:935575,2,-2,-20,-2,-2,-3,-15,0
13:53:20:949857,-5,3,3,-6,5,1,-7,-1
13:53:20:950602,-5,3,3,-6,5,1,-7,-1
13:53:20:956696,-8,-4,19,2,-2,-3,-2,-3
13:53:20:964067,-8,-6,-3,-14,-6,-1,-6,-7
13:53:20:971722,-8,-6,-3,-14,-6,-1,-6,-7
13:53:20:979100,-3,2,11,-21,3,5,13,4
13:53:20:986663,-3,-3,-7,-22,2,-4,11,0
13:53:20:994809,-3,-3,-7,-22,2,-4,11,0
13:53:20:995585,3,3,12,12,-4,-1,2,-2
13:53:21:9820,3,2,6,-11,3,4,1,-3
13:53:21:10617,3,2,6,-11,3,4,1,-3
13:53:21:16618,-2,0,20,3,3,-2,-8,1
13:53:21:24135,1,-9,-6,1,-4,0,-7,5
13:53:21:31619,1,-9,-6,1,-4,0,-7,5
13:53:21:39162,-3,-8,-14,-11,-1,0,-1,-1
13:53:21:46547,2,-3,-22,-13,-2,-6,-2,-1
13:53:21:54989,2,-3,-22,-13,-2,-6,-2,-1
13:53:21:55582,5,13,18,-1,-3,0,0,-1
13:53:21:69778,2,-2,-3,8,-1,-1,-8,1
13:53:21:70585,2,-2,-3,8,-1,-1,-8,1
13:53:21:76604,2,-11,-39,-8,-5,-4,2,1
13:53:21:84123,4,-3,18,9,3,2,-2,0
13:53:21:91693,4,-3,18,9,3,2,-2,0
13:53:21:99074,5,-7,38,-17,0,1,3,-1
13:53:21:106671,-9,-5,-2,1,-3,-4,3,-7
13:53:21:114774,-9,-5,-2,1,-3,-4,3,-7
13:53:21:115598,0,1,5,-4,4,5,-12,3
13:53:21:129789,-1,-4,3,-6,-3,3,11,1
13:53:21:130579,-1,-4,3,-6,-3,3,11,1
13:53:21:136631,-1,6,13,17,-1,-2,-4,-2
13:53:21:144138,3,-5,19,6,-3,0,-4,-5
13:53:21:151729,3,-5,19,6,-3,0,-4,-5
13:53:21:167326,-8,-1,-5,7,-2,-2,5,-2
13:53:21:168053,6,6,9,-6,0,2,2,-3
13:53:21:174838,6,6,9,-6,0,2,2,-3
13:53:21:175599,-4,-6,11,-17,-9,-11,3,-6
13:53:21:189878,-5,-4,6,11,0,0,6,1
13:53:21:190606,-5,-4,6,11,0,0,6,1
13:53:21:196609,0,2,-22,3,-4,3,11,-2
13:53:21:204185,0,0,-3,-1,-2,2,4,7
13:53:21:211700,0,0,-3,-1,-2,2,4,7
13:53:21:219123,-7,-6,-12,7,-3,0,-4,-2
13:53:21:226619,-5,-1,-6,8,-2,1,1,1
13:53:21:234903,-5,-1,-6,8,-2,1,1,1
13:53:21:235626,-3,5,-3,-4,-2,-3,-9,-4
13:53:21:249809,4,2,3,4,-1,5,-9,-3
13:53:21:250624,4,2,3,4,-1,5,-9,-3
13:53:21:256649,11,-2,2,14,-3,-1,2,-1
13:53:21:264044,2,0,-4,3,-1,-6,7,-3
13:53:21:271734,2,0,-4,3,-1,-6,7,-3
13:53:21:279104,-3,2,4,-1,3,-1,-10,0
13:53:21:286652,2,4,26,-9,-4,0,-10,3
13:53:21:294884,2,4,26,-9,-4,0,-10,3
13:53:21:295604,0,1,7,-2,-2,-5,-3,-2
13:53:21:309846,-2,-2,9,7,-1,-1,12,1
13:53:21:310629,-2,-2,9,7,-1,-1,12,1
13:53:21:316606,5,-4,-2,-22,-3,-1,-1,-1
13:53:21:324132,-9,-4,-15,9,0,0,5,-2
13:53:21:331675,-9,-4,-15,9,0,0,5,-2
13:53:21:339160,2,3,-6,-2,0,4,14,0
13:53:21:346619,0,0,-10,3,-2,-3,-20,-2
13:53:21:354990,0,0,-10,3,-2,-3,-20,-2
13:53:21:355630,-5,-1,-3,3,0,0,-3,-2
13:53:21:369744,-7,-4,-11,5,0,-5,-5,-3
13:53:21:370570,-7,-4,-11,5,0,-5,-5,-3
13:53:21:376623,1,8,-6,4,6,4,-3,1
13:53:21:384140,1,1,4,-16,4,0,3,-7
13:53:21:391645,1,1,4,-16,4,0,3,-7
13:53:21:399124,-4,-1,12,2,1,-5,-1,-1
13:53:21:406681,6,1,-6,-12,-3,0,-3,0
13:53:21:414800,6,1,-6,-12,-3,0,-3,0
13:53:21:415582,-3,0,16,18,4,-7,-8,-3
13:53:21:429733,2,1,-18,-2,0,-6,-16,-1
13:53:21:430612,2,1,-18,-2,0,-6,-16,-1
13:53:21:436613,-2,-2,-5,18,-2,-1,-11,-2
13:53:21:444137,-4,-1,4,6,-8,2,13,3
13:53:21:451667,-4,-1,4,6,-8,2,13,3
13:53:21:459096,-5,1,3,-3,-4,0,10,-1
13:53:21:466609,0,1,7,-2,-2,3,-1,-2
13:53:21:474870,0,1,7,-2,-2,3,-1,-2
13:53:21:475617,-1,-9,-9,-12,-3,1,1,-1
13:53:21:489944,0,1,-1,-14,3,-2,-1,-2
13:53:21:490568,0,1,-1,-14,3,-2,-1,-2
13:53:21:496584,-3,-4,-7,-16,0,-3,-3,3
13:53:21:504142,3,-1,17,8,3,4,-7,1
13:53:21:511664,3,-1,17,8,3,4,-7,1
13:53:21:519142,0,0,28,8,13,5,8,4
13:53:21:526594,-3,-4,-11,17,6,1,11,-1
13:53:21:534870,-3,-4,-11,17,6,1,11,-1
13:53:21:535610,6,8,2,3,-7,3,-2,1
13:53:21:549840,-7,8,-2,0,0,-8,-17,-9
13:53:21:550653,-7,8,-2,0,0,-8,-17,-9
13:53:21:556679,-7,-5,-25,-11,-4,1,2,0
13:53:21:564055,3,-7,-19,2,-7,-6,8,2
13:53:21:571729,3,-7,-19,2,-7,-6,8,2
13:53:21:579080,-3,-1,-1,-5,-2,3,4,2
13:53:21:586654,1,-2,-18,-21,-4,-3,-1,-1
13:53:21:594803,1,-2,-18,-21,-4,-3,-1,-1
13:53:21:595553,-1,-3,13,-2,-3,2,-4,-5
13:53:21:609839,0,-5,13,-1,1,-1,0,-4
13:53:21:610656,0,-5,13,-1,1,-1,0,-4
13:53:21:616615,-2,1,-3,13,-2,-8,-6,-8
13:53:21:624138,-3,4,0,10,2,-2,-4,-3
13:53:21:631586,-3,4,0,10,2,-2,-4,-3
13:53:21:639188,-2,-6,-18,-5,9,-2,-2,-5
13:53:21:646626,-2,-1,4,-3,5,6,4,6
13:53:21:654201,-2,-1,4,-3,5,6,4,6
13:53:21:661537,-2,-1,16,6,0,2,0,2
13:53:21:669836,1,-1,-10,-22,-5,-2,-9,3
13:53:21:670619,1,-1,-10,-22,-5,-2,-9,3
13:53:21:676584,-2,2,2,-6,-2,-3,0,2
13:53:21:692283,1,-7,0,10,3,0,5,-1
13:53:21:693098,1,-7,0,10,3,0,5,-1
13:53:21:699069,0,-2,-52,-4,-6,-8,-4,-3
13:53:21:706694,7,9,-12,-16,-3,3,0,0
13:53:21:714122,7,9,-12,-16,-3,3,0,0
13:53:21:721616,2,-6,3,1,-1,-2,5,0
13:53:21:729774,2,-6,21,7,-9,-6,-8,-2
13:53:21:730599,2,-6,21,7,-9,-6,-8,-2
13:53:21:736619,-1,0,11,-6,-5,0,-2,-4
13:53:21:752309,-2,-4,13,2,0,-2,-9,-5
13:53:21:753070,-2,-4,13,2,0,-2,-9,-5
13:53:21:759087,9,0,-6,-9,-4,-8,7,1
13:53:21:766569,-18,-12,9,-21,0,2,-1,-3
13:53:21:774210,-18,-12,9,-21,0,2,-1,-3
13:53:21:781569,-7,3,-4,-8,0,4,-10,0
13:53:21:789886,5,1,-6,2,-2,1,9,0
13:53:21:790601,5,1,-6,2,-2,1,9,0
13:53:21:796600,-2,0,-1,-2,-3,-2,-2,-1
13:53:21:812278,3,-3,-17,14,8,-4,5,1
13:53:21:813116,3,-3,-17,14,8,-4,5,1
13:53:21:819098,2,-1,-6,-3,-4,-4,-7,-8
13:53:21:826656,2,7,-6,-8,-5,6,8,1
13:53:21:834239,2,7,-6,-8,-5,6,8,1
13:53:21:841672,-2,2,1,-11,2,5,-4,-5
13:53:21:849763,-10,0,14,-6,-6,-11,-11,0
13:53:21:850556,-10,0,14,-6,-6,-11,-11,0
13:53:21:856700,-6,-7,2,11,4,-1,-2,3
13:53:21:872425,-1,2,-6,-22,-6,-3,-4,-4
13:53:21:873123,-1,2,-6,-22,-6,-3,-4,-4
13:53:21:879132,-3,0,9,16,-1,1,5,-4
13:53:21:886728,-2,-1,-1,21,-2,4,3,4
13:53:21:894134,-2,-1,-1,21,-2,4,3,4
13:53:21:901636,5,-4,-7,2,-1,-5,-8,1
13:53:21:909772,0,1,9,3,-2,1,9,-1
13:53:21:910615,0,1,9,3,-2,1,9,-1
13:53:21:916607,-2,-4,21,-8,-10,-2,3,-2
13:53:21:932248,-4,0,7,5,7,0,-10,-7
13:53:21:933071,-4,0,7,5,7,0,-10,-7
13:53:21:939216,5,0,-8,19,7,9,4,3
13:53:21:946627,0,-2,-4,16,5,-1,0,1
13:53:21:954222,0,-2,-4,16,5,-1,0,1
13:53:21:961592,-1,-1,-2,19,9,0,0,2
13:53:21:969857,-11,-13,-18,-5,1,-5,-6,-5
13:53:21:970590,-11,-13,-18,-5,1,-5,-6,-5
13:53:21:976598,-1,-4,6,-11,1,-3,7,6
13:53:21:992299,1,-6,-9,-11,-3,-5,-2,-2
13:53:21:993134,1,-6,-9,-11,-3,-5,-2,-2
13:53:21:999086,-1,-2,5,-14,-7,-4,0,-5
13:53:22:6628,6,-3,-11,-15,-4,-3,-5,0
13:53:22:14137,6,-3,-11,-15,-4,-3,-5,0
13:53:22:21624,-1,2,7,7,-1,-1,-7,-8
13:53:22:29763,-9,-3,-6,0,-8,-6,-3,1
13:53:22:30575,-9,-3,-6,0,-8,-6,-3,1
13:53:22:44091,-7,5,-39,-4,-2,-9,-1,0
13:53:22:52356,11,5,-19,5,0,1,2,1
13:53:22:53127,11,5,-19,5,0,1,2,1
13:53:22:59119,-5,-9,-5,-40,-1,1,-2,-2
13:53:22:66585,-2,4,-7,-3,-1,5,4,5
13:53:22:74201,-2,4,-7,-3,-1,5,4,5
13:53:22:81571,0,-3,1,10,-1,-4,-11,-1
13:53:22:89895,-1,1,13,-6,-3,3,-1,-1
13:53:22:90600,-1,1,13,-6,-3,3,-1,-1
13:53:22:96558,-3,-3,1,12,-1,-5,-6,-15
13:53:22:112342,-6,7,14,23,8,1,1,2
13:53:22:113132,-6,7,14,23,8,1,1,2
13:53:22:119079,2,-5,5,3,0,2,0,6
13:53:22:126616,-4,-8,0,-10,-8,-1,0,-3
13:53:22:134226,-4,-8,0,-10,-8,-1,0,-3
13:53:22:141632,-3,6,1,-11,-7,-3,1,-2
13:53:22:149804,4,0,3,-4,-6,-2,1,0
13:53:22:150570,4,0,3,-4,-6,-2,1,0
13:53:22:156649,5,-1,1,11,-3,2,4,6
13:53:22:172353,-2,3,-4,4,10,-2,-7,-1
13:53:22:173117,-2,3,-4,4,10,-2,-7,-1
13:53:22:179114,4,3,-15,-1,5,10,2,0
13:53:22:186631,-1,6,3,2,-2,-2,-4,-14
13:53:22:194156,-1,6,3,2,-2,-2,-4,-14
13:53:22:201667,-1,-7,19,13,0,1,6,5
13:53:22:209814,9,0,-1,-2,-2,-1,-6,3
13:53:22:210616,9,0,-1,-2,-2,-1,-6,3
13:53:22:216585,11,-6,7,-9,-7,0,1,0
13:53:22:232237,-8,-5,-15,-2,-2,-5,-2,-4
13:53:22:233105,-8,-5,-15,-2,-2,-5,-2,-4
13:53:22:239205,-2,4,0,2,0,-2,0,2
13:53:22:246576,0,-2,-13,-15,-3,0,0,-1
13:53:22:254235,0,-2,-13,-15,-3,0,0,-1
13:53:22:261551,-3,-2,-12,13,1,-6,1,0
13:53:22:269783,-8,-8,1,-9,-6,-2,3,-2
13:53:22:270600,-8,-8,1,-9,-6,-2,3,-2
13:53:22:276624,-2,8,12,-7,-2,1,-4,-1
13:53:22:292347,-2,-5,14,-10,0,-14,3,-4
13:53:22:293137,-2,-5,14,-10,0,-14,3,-4
13:53:22:299057,-2,-1,8,1,2,-1,-9,-5
13:53:22:306671,3,-20,-1,1,-3,0,0,-5
13:53:22:314120,3,-20,-1,1,-3,0,0,-5
13:53:22:321639,-3,4,11,-26,-1,-2,-3,1
13:53:22:329806,0,10,-7,-13,3,3,3,5
13:53:22:330621,0,10,-7,-13,3,3,3,5
13:53:22:336687,-1,-2,-3,-1,-6,-4,-2,-2
13:53:22:352356,4,5,0,4,-5,6,-3,8
13:53:22:353096,4,5,0,4,-5,6,-3,8
13:53:22:359079,-2,1,-2,5,-4,2,0,-3
13:53:22:366618,5,5,-9,12,0,0,-2,1
13:53:22:374165,5,5,-9,12,0,0,-2,1
13:53:22:381558,-1,-4,-13,-1,2,1,-1,-4
13:53:22:389848,-2,7,-4,-6,-6,3,8,-2
13:53:22:390568,-2,7,-4,-6,-6,3,8,-2
13:53:22:396604,-5,-3,9,4,-5,-4,1,-1
13:53:22:412389,-2,-3,-1,9,-4,-2,3,-3
13:53:22:413106,-2,-3,-1,9,-4,-2,3,-3
13:53:22:419182,-4,-1,0,5,1,-4,-4,-1
13:53:22:426608,-6,0,4,-10,1,-3,-11,-15
13:53:22:434220,-6,0,4,-10,1,-3,-11,-15
13:53:22:441648,-7,-22,-16,9,4,-3,-8,-2
13:53:22:449766,-9,-16,-12,-3,1,-8,4,-1
13:53:22:450563,-9,-16,-12,-3,1,-8,4,-1
13:53:22:456688,7,10,-12,-10,-2,3,5,7
13:53:22:472354,0,3,2,1,-3,-9,-3,1
13:53:22:473078,0,3,2,1,-3,-9,-3,1
13:53:22:479075,10,2,-2,-7,-6,-3,-5,6
13:53:22:486678,1,-3,-1,-12,-1,-3,-8,0
13:53:22:494119,1,-3,-1,-12,-1,-3,-8,0
13:53:22:501667,-4,4,-19,3,1,-3,3,-3
13:53:22:509805,5,6,11,11,6,4,-1,1
13:53:22:510625,5,6,11,11,6,4,-1,1
13:53:22:516598,-4,1,4,-4,3,6,-3,-1
13:53:22:532282,-9,-9,-7,-7,-2,-3,6,0
13:53:22:533105,-9,-9,-7,-7,-2,-3,6,0
13:53:22:539169,-6,-2,2,22,9,4,0,-2
13:53:22:546636,1,-1,8,12,-1,4,2,-4
13:53:22:554202,1,-1,8,12,-1,4,2,-4
13:53:22:561557,4,1,10,-9,-3,-9,-8,-7
13:53:22:569858,-7,2,10,11,3,5,7,4
13:53:22:570604,-7,2,10,11,3,5,7,4
13:53:22:584165,0,-4,-20,-14,-1,-3,-3,-5
13:53:22:592343,4,-2,-24,5,0,-2,-3,-8
13:53:22:593125,4,-2,-24,5,0,-2,-3,-8
13:53:22:599122,-3,-4,4,22,5,-3,-3,-2
13:53:22:614803,-5,-7,-39,-8,-3,-2,-6,3
13:53:22:615554,-5,-7,-39,-8,-3,-2,-6,3
13:53:22:621674,-5,-3,3,-5,-3,-7,4,-2
13:53:22:629834,1,10,3,1,-6,-5,5,-5
13:53:22:630635,1,10,3,1,-6,-5,5,-5
13:53:22:644171,2,10,-29,-19,-5,-1,-9,-10
13:53:22:652379,2,10,-29,-19,-5,-1,-9,-10
13:53:22:653058,2,-6,18,-24,-3,-8,-13,-2
13:53:22:659103,3,-3,-1,11,2,4,-3,4
13:53:22:674800,3,-3,-1,11,2,4,-3,4
13:53:22:675619,6,7,-4,-7,0,-3,-6,-1
13:53:22:681609,-12,-8,11,-4,-10,1,6,-1
13:53:22:689868,-12,-8,11,-4,-10,1,6,-1
13:53:22:690578,-1,-7,16,8,5,1,4,2
13:53:22:704251,-2,0,-4,-24,-7,-2,4,1
13:53:22:712311,-2,0,-4,-24,-7,-2,4,1
13:53:22:713091,-4,3,7,9,3,2,-3,1
13:53:22:719108,5,-4,-15,-8,2,5,-3,-3
13:53:22:734830,5,-4,-15,-8,2,5,-3,-3
13:53:22:735539,3,-7,-16,-2,4,-2,14,-1
13:53:22:741652,-1,0,18,5,0,-3,5,2
13:53:22:749817,-1,0,18,5,0,-3,5,2
13:53:22:750577,5,10,13,8,1,9,-3,1
13:53:22:764104,2,-3,14,-14,-3,-1,3,-1
13:53:22:772384,2,-3,14,-14,-3,-1,3,-1
13:53:22:773064,-7,-6,7,-3,-5,-2,-9,0
13:53:22:779109,-3,9,8,6,1,0,-12,-3
13:53:22:794807,-3,9,8,6,1,0,-12,-3
13:53:22:795609,10,4,-3,0,-7,-4,5,-4
13:53:22:801593,-8,4,0,3,3,4,5,3
13:53:22:809819,-8,4,0,3,3,4,5,3
13:53:22:810594,-2,-1,7,-2,0,0,-5,10
13:53:22:824111,9,-1,-11,9,3,-6,-1,0
13:53:22:832251,9,-1,-11,9,3,-6,-1,0
13:53:22:833044,-6,-6,-13,6,6,4,-5,-3
13:53:22:839248,-2,-6,2,9,-5,1,2,-3
13:53:22:854957,-2,-6,2,9,-5,1,2,-3
13:53:22:855632,6,0,-26,10,0,-2,-1,-4
13:53:22:861553,0,4,-16,-4,-9,-3,9,1
13:53:22:869817,0,4,-16,-4,-9,-3,9,1
13:53:22:870603,-4,0,14,10,5,2,7,-2
13:53:22:884178,-9,-15,-16,-7,-1,-4,-10,-1
13:53:22:892413,-9,-15,-16,-7,-1,-4,-10,-1
13:53:22:893108,-2,-5,-5,0,-3,0,-1,-5
13:53:22:899075,1,-1,0,-28,-5,-2,-4,-1
13:53:22:914812,1,-1,0,-28,-5,-2,-4,-1
13:53:22:915578,10,1,-4,0,4,-4,-4,-2
13:53:22:921677,-1,2,13,2,-4,1,-2,2
13:53:22:929816,-1,2,13,2,-4,1,-2,2
13:53:22:930599,-7,0,6,-9,-7,-3,-5,1
13:53:22:944087,2,-1,12,-3,-1,-3,-4,3
13:53:22:952450,2,-1,12,-3,-1,-3,-4,3
13:53:22:953132,-6,-7,1,-6,-8,0,4,0
13:53:22:959126,-9,-2,10,17,7,-3,-6,-3
13:53:22:974862,-9,-2,10,17,7,-3,-6,-3
13:53:22:975618,-4,7,12,3,2,-2,2,1
13:53:22:981593,8,2,10,6,-1,-3,-8,-4
13:53:22:989940,8,2,10,6,-1,-3,-8,-4
13:53:22:990646,-1,-2,-11,-8,4,0,1,0
13:53:23:4098,-1,2,10,6,1,0,0,-3
13:53:23:12388,-1,2,10,6,1,0,0,-3
13:53:23:13084,7,1,24,2,-5,-3,-6,1
13:53:23:19135,-4,9,5,12,0,-1,0,-4
13:53:23:34886,-4,9,5,12,0,-1,0,-4
13:53:23:35597,5,9,13,0,-6,5,0,11
13:53:23:41600,5,0,15,-10,-2,1,5,0
13:53:23:49890,5,0,15,-10,-2,1,5,0
13:53:23:50605,-9,0,1,1,-3,-1,2,-1
13:53:23:64050,-9,2,-17,-9,-3,-4,-1,-1
13:53:23:72369,-9,2,-17,-9,-3,-4,-1,-1
13:53:23:73075,-4,-3,-6,-6,1,-2,-6,-8
13:53:23:79094,14,-7,-13,-15,5,2,0,4
13:53:23:94862,14,-7,-13,-15,5,2,0,4
13:53:23:95605,-5,1,0,8,1,-3,1,-1
13:53:23:101649,-8,-13,-51,1,1,-3,-5,-3
13:53:23:109843,-8,-13,-51,1,1,-3,-5,-3
13:53:23:110634,-6,-3,0,1,2,1,-7,-3
13:53:23:124133,-1,-3,10,0,-3,2,1,0
13:53:23:132332,-1,-3,10,0,-3,2,1,0
13:53:23:133104,-6,2,-16,-21,2,6,-7,0
13:53:23:139204,-11,5,-2,4,-2,-4,-6,-3
13:53:23:154725,-11,5,-2,4,-2,-4,-6,-3
13:53:23:162238,3,-9,-1,1,-3,-5,-6,1
13:53:23:163016,-1,-5,-7,-32,-2,1,3,0
13:53:23:169790,-1,-5,-7,-32,-2,1,3,0
13:53:23:170581,1,3,-6,-2,2,-4,3,-2
13:53:23:184201,-8,1,-2,16,1,0,4,-2
13:53:23:192295,-8,1,-2,16,1,0,4,-2
13:53:23:193098,-2,-6,3,0,5,-1,-12,-3
13:53:23:199072,11,-6,5,3,-6,-2,1,2
13:53:23:214758,11,-6,5,3,-6,-2,1,2
13:53:23:215572,-9,-3,-8,-1,-1,-1,26,0
13:53:23:221714,-1,2,3,5,2,-5,6,-3
13:53:23:229791,-1,2,3,5,2,-5,6,-3
13:53:23:230590,1,-3,1,-4,-6,-2,-8,-4
13:53:23:244125,11,-3,8,8,-6,2,-5,3
13:53:23:252417,11,-3,8,8,-6,2,-5,3
13:53:23:253072,-1,9,1,-2,-2,1,2,4
13:53:23:259189,1,2,-2,-13,-4,3,0,-1
13:53:23:274817,1,2,-2,-13,-4,3,0,-1
13:53:23:275600,9,-5,-11,2,-1,0,-17,-7
13:53:23:281580,-8,-2,1,7,-2,0,3,5
13:53:23:289850,-8,-2,1,7,-2,0,3,5
13:53:23:290605,-10,-18,23,3,-1,-5,-7,-5
13:53:23:304179,-5,-8,-15,-4,3,0,-1,0
13:53:23:312230,-5,-8,-15,-4,3,0,-1,0
13:53:23:313061,2,5,30,-4,-4,-8,-11,-18
13:53:23:319157,4,1,-6,5,0,-2,-3,-1
13:53:23:334909,4,1,-6,5,0,-2,-3,-1
13:53:23:335616,-1,-5,-5,5,-5,3,-1,3
13:53:23:341645,0,-1,3,-4,0,1,-14,-5
13:53:23:349800,0,-1,3,-4,0,1,-14,-5
13:53:23:350629,1,3,-25,-15,2,-4,0,1
13:53:23:364118,-1,3,-5,7,5,0,6,0
13:53:23:372456,-1,3,-5,7,5,0,6,0
13:53:23:373193,6,-4,0,6,-5,-5,-3,2
13:53:23:379047,6,-1,11,-4,-4,-6,4,0
13:53:23:394919,6,-1,11,-4,-4,-6,4,0
13:53:23:395583,-10,5,19,14,9,3,3,1
13:53:23:401668,-12,-7,14,14,-3,2,-7,-2
13:53:23:409837,-12,-7,14,14,-3,2,-7,-2
13:53:23:410628,3,-2,2,24,0,1,3,5
13:53:23:424097,4,6,5,-4,2,3,0,-1
13:53:23:432365,4,6,5,-4,2,3,0,-1
13:53:23:433094,-3,-3,-13,-2,-2,1,1,0
13:53:23:439141,-3,3,0,-2,6,1,-13,-6
13:53:23:454915,-3,3,0,-2,6,1,-13,-6
13:53:23:455639,4,6,19,-19,0,-4,14,5
13:53:23:461585,0,-1,2,-19,0,4,-6,-4
13:53:23:469870,0,-1,2,-19,0,4,-6,-4
13:53:23:470584,-14,-10,-56,-10,-1,-3,6,-6
13:53:23:484199,7,-3,-6,0,-2,-5,17,-2
13:53:23:492316,7,-3,-6,0,-2,-5,17,-2
13:53:23:493114,-4,3,-7,2,1,-3,-3,-3
13:53:23:499084,-12,-3,-27,-8,-7,-4,-4,2
13:53:23:514789,-12,-3,-27,-8,-7,-4,-4,2
13:53:23:515613,6,-3,-25,13,4,4,0,3
13:53:23:521690,-2,3,0,-10,0,-1,7,-3
13:53:23:529122,-2,3,0,-10,0,-1,7,-3
13:53:23:536636,6,5,4,-8,-3,1,-5,-1
13:53:23:544105,0,-4,-12,-3,-8,-4,1,5
13:53:23:552397,0,-4,-12,-3,-8,-4,1,5
13:53:23:553086,13,-5,7,6,-3,4,13,3
13:53:23:566599,0,-12,8,14,-6,-4,-4,-5
13:53:23:574821,0,-12,8,14,-6,-4,-4,-5
13:53:23:575592,-8,0,-10,-4,-2,-8,-19,-7
13:53:23:581578,-14,2,-25,13,6,2,-1,3
13:53:23:589259,-14,2,-25,13,6,2,-1,3
13:53:23:596585,0,2,13,-14,-2,-6,-4,-2
13:53:23:604166,1,0,18,-8,1,5,-6,-3
13:53:23:612281,1,0,18,-8,1,5,-6,-3
13:53:23:613088,-1,-2,1,-15,-5,-1,6,4
13:53:23:626645,-6,8,8,-12,-7,-5,-3,0
13:53:23:634968,-6,8,8,-12,-7,-5,-3,0
13:53:23:635571,5,-2,14,6,0,4,-4,3
13:53:23:641634,1,-2,-48,11,3,-4,3,1
13:53:23:649140,1,-2,-48,11,3,-4,3,1
13:53:23:656692,4,0,11,2,5,-2,-1,-5
13:53:23:664072,6,0,20,-5,9,6,3,-3
13:53:23:672368,6,0,20,-5,9,6,3,-3
13:53:23:673185,-8,-3,-7,-20,-7,3,9,-5
13:53:23:686655,-11,3,19,6,-4,-4,9,-1
13:53:23:694798,-11,3,19,6,-4,-4,9,-1
13:53:23:695559,-4,-2,12,3,2,4,-3,-1
13:53:23:701713,1,-4,30,-19,-12,-5,-13,-2
13:53:23:709153,1,-4,30,-19,-12,-5,-13,-2
13:53:23:716623,4,1,1,7,0,1,-5,1
13:53:23:724114,5,-5,5,5,7,1,0,-1
13:53:23:732325,5,-5,5,5,7,1,0,-1
13:53:23:733111,-3,7,-8,-7,1,-2,-5,0
13:53:23:746625,8,-3,1,-14,-1,0,-2,2
13:53:23:754982,8,-3,1,-14,-1,0,-2,2
13:53:23:755582,-6,-5,-13,16,-2,-1,5,-7
13:53:23:761577,15,3,-4,5,-5,-4,-4,-2
13:53:23:769192,15,3,-4,5,-5,-4,-4,-2
13:53:23:776605,-6,-7,8,3,3,-4,-12,-1
13:53:23:784144,-7,-4,-3,19,1,1,-4,-2
13:53:23:792406,-7,-4,-3,19,1,1,-4,-2
13:53:23:793063,-7,0,-4,8,0,-5,0,-1
13:53:23:806677,-4,2,-9,-7,8,0,-2,-9
13:53:23:814790,-4,2,-9,-7,8,0,-2,-9
13:53:23:815597,5,-5,-15,-6,-2,-1,7,-4
13:53:23:821600,4,1,8,5,2,0,-5,-2
13:53:23:829105,4,1,8,5,2,0,-5,-2
13:53:23:836672,-7,7,13,4,0,-2,-3,-6
13:53:23:844089,0,-11,-24,-10,-11,4,-7,1
13:53:23:852385,0,-11,-24,-10,-11,4,-7,1
13:53:23:853129,7,-3,-9,1,-9,-5,10,9
13:53:23:866588,-12,13,13,6,4,1,-8,1
13:53:23:874887,-12,13,13,6,4,1,-8,1
13:53:23:875629,-3,6,6,-1,-8,-5,-5,-9
13:53:23:881610,6,-4,17,-11,-6,0,0,1
13:53:23:889282,6,-4,17,-11,-6,0,0,1
13:53:23:896617,1,3,4,2,-4,0,-3,4
13:53:23:904198,0,-9,9,-10,-5,-3,13,3
13:53:23:912283,0,-9,9,-10,-5,-3,13,3
13:53:23:913061,4,-7,2,5,-5,-1,-3,-1
13:53:23:926642,-7,-2,-8,-7,1,-2,4,1
13:53:23:934636,-7,-2,-8,-7,1,-2,4,1
13:53:23:942297,-4,-3,-7,-8,-5,-4,-15,-3
13:53:23:943061,1,0,-13,5,2,2,12,2
13:53:23:949121,1,0,-13,5,2,2,12,2
13:53:23:956694,6,4,-3,16,5,1,-5,1
13:53:23:964119,-7,5,5,5,-6,-2,-11,-6
13:53:23:972396,-7,5,5,5,-6,-2,-11,-6
13:53:23:973103,-16,-7,6,-11,4,5,15,1
13:53:23:986697,2,5,21,-1,-6,1,-7,-1
13:53:23:994801,2,5,21,-1,-6,1,-7,-1
13:53:23:995538,4,-10,12,1,-3,-2,-1,-7
13:53:24:1666,-3,4,1,-8,0,-3,2,-3
13:53:24:9148,-3,4,1,-8,0,-3,2,-3
13:53:24:16616,5,-6,-13,-17,-4,-4,15,4
13:53:24:24108,-7,1,-8,-4,0,-3,-5,2
13:53:24:32295,-7,1,-8,-4,0,-3,-5,2
13:53:24:33066,-1,8,-5,-7,4,2,8,1
13:53:24:46658,6,-4,-18,-3,0,0,10,-5
13:53:24:54945,6,-4,-18,-3,0,0,10,-5
13:53:24:55590,-7,1,-12,0,-2,-5,-7,-3
13:53:24:61573,1,-7,5,1,-3,-1,-1,-6
13:53:24:69169,1,-7,5,1,-3,-1,-1,-6
13:53:24:76583,-1,3,-2,-11,3,3,-6,3
13:53:24:84186,4,-4,-27,5,0,0,0,-3
13:53:24:92359,4,-4,-27,5,0,0,0,-3
13:53:24:93055,3,-9,7,-10,-1,-5,-7,-3
13:53:24:106654,-4,-11,7,2,0,-1,12,7
13:53:24:114779,-4,-11,7,2,0,-1,12,7
13:53:24:115591,-2,-1,1,-7,0,2,3,8
13:53:24:121654,2,4,14,7,0,-3,-4,-4
13:53:24:129119,2,4,14,7,0,-3,-4,-4
13:53:24:136637,-2,-2,5,9,-3,0,-10,0
13:53:24:144130,-4,-7,-53,-13,2,-8,-10,-4
13:53:24:152467,-4,-7,-53,-13,2,-8,-10,-4
13:53:24:153134,5,1,-2,12,1,0,-4,-1
13:53:24:166605,-5,-1,6,-10,-4,-4,-5,-1
13:53:24:174878,-5,-1,6,-10,-4,-4,-5,-1
13:53:24:175605,5,1,-3,-14,-1,2,0,6
13:53:24:181580,-1,7,3,13,0,1,10,1
13:53:24:189268,-1,7,3,13,0,1,10,1
13:53:24:196600,3,2,18,-1,-6,4,0,-6
13:53:24:204127,-2,-2,25,4,-1,-1,-8,2
13:53:24:212262,-2,-2,25,4,-1,-1,-8,2
13:53:24:213079,0,5,-4,11,1,-5,1,-2
13:53:24:226645,-2,-2,-12,12,5,5,-2,-1
13:53:24:234835,-2,-2,-12,12,5,5,-2,-1
13:53:24:235554,2,-2,4,-3,-1,-5,8,0
13:53:24:241641,3,2,7,-10,-5,1,15,1
13:53:24:249169,3,2,7,-10,-5,1,15,1
13:53:24:256649,-11,-5,2,12,0,1,17,-10
13:53:24:264151,-10,-5,-21,-6,-3,3,-7,2
13:53:24:272367,-10,-5,-21,-6,-3,3,-7,2
13:53:24:273067,-10,-7,-14,-19,-7,-5,-6,4
13:53:24:286723,6,-2,19,8,-1,0,7,3
13:53:24:294803,6,-2,19,8,-1,0,7,3
13:53:24:295559,-4,-2,10,6,3,2,-11,-3
13:53:24:301693,1,2,8,-5,2,-1,-9,-5
13:53:24:309161,1,2,8,-5,2,-1,-9,-5
13:53:24:316567,6,2,6,-10,-3,-4,-1,0
13:53:24:324111,0,-1,11,19,4,-4,-5,0
13:53:24:332294,0,-1,11,19,4,-4,-5,0
13:53:24:333071,3,2,-11,-4,2,1,-15,1
13:53:24:346554,3,-1,-30,-14,-9,-6,-9,-4
13:53:24:354902,3,-1,-30,-14,-9,-6,-9,-4
13:53:24:355629,0,-2,-11,7,-7,-3,5,-3
13:53:24:361599,2,-5,-12,-8,0,-3,1,0
13:53:24:369171,2,-5,-12,-8,0,-3,1,0
13:53:24:376583,-7,-1,-5,-4,-5,-1,12,3
13:53:24:384136,-4,1,-12,-9,-1,-2,-3,-2
13:53:24:392381,-4,1,-12,-9,-1,-2,-3,-2
13:53:24:393049,1,3,-38,0,4,2,1,-3
13:53:24:406646,-7,0,19,9,-3,-3,-9,3
13:53:24:414798,-7,0,19,9,-3,-3,-9,3
13:53:24:415589,-8,-5,4,11,7,5,-4,-2
13:53:24:421648,-1,-2,14,21,-6,1,-4,-4
13:53:24:429144,-1,-2,14,21,-6,1,-4,-4
13:53:24:436729,-1,-3,14,-2,-10,-6,6,-9
13:53:24:444156,-7,1,-5,-4,3,0,-1,-4
13:53:24:452368,-7,1,-5,-4,3,0,-1,-4
13:53:24:453067,-2,1,5,7,2,-3,-3,4
13:53:24:466666,7,-1,-6,-2,4,-2,-5,0
13:53:24:474896,7,-1,-6,-2,4,-2,-5,0
13:53:24:475636,-6,-6,-2,-4,0,0,10,-3
13:53:24:489667,-3,-2,13,1,6,1,-3,3
13:53:24:497315,-3,-2,13,1,6,1,-3,3
13:53:24:498071,0,4,14,5,-2,4,-17,-5
13:53:24:504117,-2,-13,-1,-8,-1,-1,10,0
13:53:24:511630,-2,-13,-1,-8,-1,-1,10,0
13:53:24:519117,-7,-6,-12,1,-1,-4,-8,-1
13:53:24:526637,0,3,-12,-20,-7,2,2,-5
13:53:24:534948,0,3,-12,-20,-7,2,2,-5
13:53:24:535611,9,6,0,-1,2,-3,0,5
13:53:24:549770,-5,1,-7,-4,-1,-2,14,-1
13:53:24:550571,-5,1,-7,-4,-1,-2,14,-1
13:53:24:556709,4,0,8,-19,0,1,-10,-9
13:53:24:564116,3,-3,-3,6,-3,-2,-14,0
13:53:24:571669,3,-3,-3,6,-3,-2,-14,0
13:53:24:579117,6,5,13,9,-3,-3,-7,5
13:53:24:586612,-2,10,6,-11,2,-2,4,-2
13:53:24:594816,-2,10,6,-11,2,-2,4,-2
13:53:24:595584,-8,2,2,-19,-1,0,-7,-2
13:53:24:609806,-3,-1,-8,6,3,0,-3,-4
13:53:24:610597,-3,-1,-8,6,3,0,-3,-4
13:53:24:616617,0,-4,-10,-1,-2,-1,-11,-2
13:53:24:624147,-1,-1,9,-1,1,-5,-2,-2
13:53:24:631601,-1,-1,9,-1,1,-5,-2,-2
13:53:24:639144,-6,-6,-13,10,-2,1,14,0
13:53:24:646552,9,-2,13,13,-6,-4,-11,-4
13:53:24:654944,9,-2,13,13,-6,-4,-11,-4
13:53:24:655562,-12,-4,13,10,0,-4,3,3
13:53:24:669754,0,1,-9,3,1,0,12,2
13:53:24:670588,0,1,-9,3,1,0,12,2
13:53:24:676582,-4,0,-1,5,5,-3,2,-8
13:53:24:684175,6,8,24,0,-5,-2,-9,-7
13:53:24:691667,6,8,24,0,-5,-2,-9,-7
