Time,EMG1,EMG2,EMG3,EMG4,EMG5,EMG6,EMG7,EMG8
13:54:54:197417,1,-2,-1,-1,-2,-3,-2,-8
13:54:54:204843,-2,0,-4,1,-1,1,0,-5
13:54:54:212343,-1,-2,1,-2,-1,-2,-3,1
13:54:54:220499,-1,-2,1,-2,-1,-2,-3,1
13:54:54:221316,-2,-1,0,-2,-1,0,-5,1
13:54:54:235576,0,1,-1,0,-3,1,1,1
13:54:54:236359,0,1,-1,0,-3,1,1,1
13:54:54:242355,0,-2,0,-1,-1,-2,0,-5
13:54:54:249805,1,-3,-1,-1,-1,-2,-2,3
13:54:54:257484,1,-3,-1,-1,-1,-2,-2,3
13:54:54:264822,-1,-1,-1,-2,-2,-1,-1,-1
13:54:54:272427,0,1,-1,0,0,1,0,-4
13:54:54:280479,0,1,-1,0,0,1,0,-4
13:54:54:281278,0,-2,-3,-2,1,-1,-3,-1
13:54:54:295449,-2,-1,-1,-1,0,1,-1,7
13:54:54:296267,-2,-1,-1,-1,0,1,-1,7
13:54:54:302364,1,-1,-1,-2,-3,-5,-1,-3
13:54:54:309824,-3,-1,1,0,1,1,-1,-3
13:54:54:317368,-3,-1,1,0,1,1,-1,-3
13:54:54:324872,-3,-2,-1,1,-1,-2,0,4
13:54:54:332372,0,-1,1,0,-3,-1,-1,4
13:54:54:340602,0,-1,1,0,-3,-1,-1,4
13:54:54:341318,1,2,1,-2,0,-1,-3,-2
13:54:54:355539,-3,-1,0,0,1,0,1,-2
13:54:54:356361,-3,-1,0,0,1,0,1,-2
13:54:54:362324,-1,-2,-1,-2,0,1,-2,1
13:54:54:369869,1,0,0,-2,-2,-2,-3,-5
13:54:54:377429,1,0,0,-2,-2,-2,-3,-5
13:54:54:384892,-1,-1,0,1,0,-2,0,0
13:54:54:392329,1,-1,-2,-1,-2,-3,-2,0
13:54:54:400528,1,-1,-2,-1,-2,-3,-2,0
13:54:54:401344,0,-3,1,1,-2,-2,-1,-12
13:54:54:415517,-2,1,-1,1,0,-3,-1,-2
13:54:54:416315,-2,1,-1,1,0,-3,-1,-2
13:54:54:422404,-3,-2,-1,-1,-3,-1,2,3
13:54:54:429758,1,-2,-3,-2,-1,-1,0,4
13:54:54:437408,1,-2,-3,-2,-1,-1,0,4
13:54:54:444864,0,2,-4,-1,-1,2,-2,1
13:54:54:452407,-1,-1,1,-1,-1,0,-1,-1
13:54:54:460544,-1,-1,1,-1,-1,0,-1,-1
13:54:54:461341,1,-1,0,0,-2,0,1,-6
13:54:54:475560,-2,-2,-1,-1,-1,-4,-1,-3
13:54:54:476342,-2,-2,-1,-1,-1,-4,-1,-3
13:54:54:482308,-1,0,0,0,0,-3,-3,4
13:54:54:489926,-4,-3,-3,1,-1,-2,-1,0
13:54:54:497370,-4,-3,-3,1,-1,-2,-1,0
13:54:54:504938,-6,1,-2,0,-3,-1,-2,-2
13:54:54:512329,-2,-2,-1,-1,2,-1,-3,-2
13:54:54:520526,-2,-2,-1,-1,2,-1,-3,-2
13:54:54:521257,5,-1,-1,-1,1,-4,-1,2
13:54:54:535666,-2,0,-2,-2,-2,0,-1,-3
13:54:54:536291,-2,0,-2,-2,-2,0,-1,-3
13:54:54:542349,-1,-2,1,-1,-2,2,1,0
13:54:54:558170,0,0,1,-2,0,-1,0,0
13:54:54:558821,0,0,1,-2,0,-1,0,0
13:54:54:564769,-2,-2,-4,0,-3,-2,-3,-2
13:54:54:572384,0,-1,-2,-2,-2,1,-2,1
13:54:54:580532,0,-1,-2,-2,-2,1,-2,1
13:54:54:581303,0,-3,1,-2,1,-1,2,5
13:54:54:595540,-1,-1,-2,-2,0,-2,1,1
13:54:54:596333,-1,-1,-2,-2,0,-2,1,1
13:54:54:602382,-2,-2,-1,-3,1,-3,-1,-3
13:54:54:609846,1,-1,-2,0,-2,0,2,-1
13:54:54:617414,1,-1,-2,0,-2,0,2,-1
13:54:54:624821,-1,-1,0,-1,-1,-1,0,-4
13:54:54:632303,-5,-2,0,-1,-1,-1,-3,1
13:54:54:640560,-5,-2,0,-1,-1,-1,-3,1
13:54:54:641293,-1,1,-3,0,1,-2,0,-1
13:54:54:655535,0,-1,-2,-1,0,-1,0,-2
13:54:54:656249,0,-1,-2,-1,0,-1,0,-2
13:54:54:662323,-1,-1,-1,-3,0,-1,-1,-8
13:54:54:669831,0,0,-1,0,-2,-1,-2,-4
13:54:54:677351,0,0,-1,0,-2,-1,-2,-4
13:54:54:684883,-1,0,3,0,-2,0,-1,-2
13:54:54:692341,-2,-3,0,-2,-2,0,-1,-7
13:54:54:708112,-2,-3,0,-2,-2,0,-1,-7
13:54:54:708799,-1,-3,0,-1,-2,-1,-1,0
13:54:54:715490,-1,-1,-2,-1,-1,-2,2,0
13:54:54:716316,-1,-1,-2,-1,-1,-2,2,0
13:54:54:722398,0,1,-1,1,-2,-3,-2,5
13:54:54:738060,0,-1,-1,-3,-3,-1,-4,0
13:54:54:738793,0,-1,-1,-3,-3,-1,-4,0
13:54:54:744813,-1,-2,-1,-1,1,-1,-4,-3
13:54:54:752443,2,1,1,1,1,2,-1,-1
13:54:54:759862,2,1,1,1,1,2,-1,-1
13:54:54:767416,-3,-1,-2,-2,0,-2,-2,1
13:54:54:775526,2,-2,0,-1,1,-3,-2,4
13:54:54:776316,2,-2,0,-1,1,-3,-2,4
13:54:54:782268,-3,-1,-3,1,-1,0,0,-2
13:54:54:798007,2,0,-1,-1,-1,-3,-2,-6
13:54:54:798766,2,0,-1,-1,-1,-3,-2,-6
13:54:54:804877,1,-1,-1,-2,-4,1,0,1
13:54:54:812344,-3,-1,-2,-2,0,-1,0,-1
13:54:54:819903,-3,-1,-2,-2,0,-1,0,-1
13:54:54:827296,0,-1,0,-3,1,0,1,3
13:54:54:835547,-1,-1,0,-3,-1,-2,3,1
13:54:54:836290,-1,-1,0,-3,-1,-2,3,1
13:54:54:842313,-2,-2,2,-1,-1,-2,-3,-6
13:54:54:858024,-1,-2,-1,-2,0,1,-2,-3
13:54:54:858807,-1,-2,-1,-2,0,1,-2,-3
13:54:54:864756,-1,-1,-3,0,-1,-3,1,3
13:54:54:872330,-1,-3,-1,0,1,-1,-2,0
13:54:54:879841,-1,-3,-1,0,1,-1,-2,0
13:54:54:887282,2,-1,-2,-1,-1,-1,-3,-3
13:54:54:895530,-1,-2,0,-1,-2,-2,1,2
13:54:54:896299,-1,-2,0,-1,-2,-2,1,2
13:54:54:902357,-3,0,-3,-1,0,-1,-1,-2
13:54:54:918112,-1,-1,1,0,-1,1,-3,-3
13:54:54:918711,-1,-1,1,0,-1,1,-3,-3
13:54:54:924788,-3,-1,-2,0,-4,-1,2,1
13:54:54:932251,-1,0,-2,-1,0,-1,2,-1
13:54:54:939929,-1,0,-2,-1,0,-1,2,-1
13:54:54:947321,-2,-2,0,-3,0,1,0,0
13:54:54:955561,0,-2,0,-1,-2,-4,-1,-5
13:54:54:956275,0,-2,0,-1,-2,-4,-1,-5
13:54:54:962316,1,-2,-2,0,0,0,-4,-5
13:54:54:978087,-3,1,-1,0,-2,-2,-4,-8
13:54:54:978880,-3,1,-1,0,-2,-2,-4,-8
13:54:54:984959,-2,1,-1,-1,-1,-1,-1,1
13:54:54:992351,1,-2,-1,2,-1,0,-1,0
13:54:54:999794,1,-2,-1,2,-1,0,-1,0
13:54:55:7408,3,-1,-1,-3,0,-1,0,-1
13:54:55:15475,-1,-2,-1,-1,0,1,-1,-1
13:54:55:16274,-1,-2,-1,-1,0,1,-1,-1
13:54:55:22338,0,0,0,-1,-2,-3,-1,3
13:54:55:38013,0,-2,0,-2,-2,-3,-2,3
13:54:55:38777,0,-2,0,-2,-2,-3,-2,3
13:54:55:44812,-2,-3,0,0,-1,1,-2,-8
13:54:55:52378,-1,-1,0,-1,-2,-2,-5,-7
13:54:55:59879,-1,-1,0,-1,-2,-2,-5,-7
13:54:55:67331,-1,-1,-1,-2,-1,-2,2,4
13:54:55:75516,1,1,-3,0,-1,0,0,4
13:54:55:76327,1,1,-3,0,-1,0,0,4
13:54:55:82273,0,2,0,2,0,-2,0,0
13:54:55:98004,0,-2,-3,-3,1,-3,0,-5
13:54:55:98748,0,-2,-3,-3,1,-3,0,-5
13:54:55:104807,1,-3,1,0,0,-1,-2,4
13:54:55:112327,1,1,-1,-1,-2,1,-1,2
13:54:55:119858,1,1,-1,-1,-2,1,-1,2
13:54:55:127325,-2,-1,-1,-1,-4,-1,0,-3
13:54:55:135590,-5,0,-2,-1,0,-1,-1,-2
13:54:55:136347,-5,0,-2,-1,0,-1,-1,-2
13:54:55:142315,0,-3,0,-1,-5,-3,-3,-5
13:54:55:158080,0,-1,0,-1,0,-1,1,1
13:54:55:158832,0,-1,0,-1,0,-1,1,1
13:54:55:164769,-1,-1,-1,-1,1,-2,1,-3
13:54:55:172478,-1,-1,1,-3,2,-2,-1,-3
13:54:55:179835,-1,-1,1,-3,2,-2,-1,-3
13:54:55:187336,0,0,-3,0,-1,3,-1,-4
13:54:55:195549,0,-1,-2,-2,0,0,-1,3
13:54:55:196347,0,-1,-2,-2,0,0,-1,3
13:54:55:202391,-3,-1,1,-2,1,-2,-3,-1
13:54:55:218182,1,-2,-1,0,-1,0,-1,2
13:54:55:218909,1,-2,-1,0,-1,0,-1,2
13:54:55:224823,1,-3,-2,-2,1,-2,-2,3
13:54:55:232266,-2,-2,0,-2,-1,-1,-2,-4
13:54:55:239938,-2,-2,0,-2,-1,-1,-2,-4
13:54:55:247323,1,0,0,-1,0,0,-2,0
13:54:55:255541,-2,0,-2,0,-1,0,1,-2
13:54:55:256304,-2,0,-2,0,-1,0,1,-2
13:54:55:262319,-1,-2,-2,-2,-2,-3,-3,-4
13:54:55:278090,-2,-1,1,-2,-2,-1,-2,6
13:54:55:278868,-2,-1,1,-2,-2,-1,-2,6
13:54:55:284952,0,-1,0,1,-3,-3,-1,2
13:54:55:292324,2,-3,1,3,-1,-2,1,-2
13:54:55:299831,2,-3,1,3,-1,-2,1,-2
13:54:55:307356,-5,-1,-2,-1,-1,0,-1,-11
13:54:55:315479,-3,-2,-2,-2,1,-2,1,2
13:54:55:316274,-3,-2,-2,-2,1,-2,1,2
13:54:55:322334,-1,-1,-2,-1,-1,0,2,-1
13:54:55:337988,-1,-1,-3,0,0,-2,-3,-5
13:54:55:338803,-1,-1,-3,0,0,-2,-3,-5
13:54:55:344846,-1,0,0,-1,-1,-1,1,-1
13:54:55:352422,-2,-1,1,-2,-2,-1,-2,4
13:54:55:359880,-2,-1,1,-2,-2,-1,-2,4
13:54:55:367280,-2,0,1,-1,0,-1,1,0
13:54:55:375559,0,-1,-3,-2,-3,-3,0,1
13:54:55:376334,0,-1,-3,-2,-3,-3,0,1
13:54:55:382256,-1,-2,-3,0,0,0,-2,-4
13:54:55:398012,0,-1,-1,0,-2,-2,-3,0
13:54:55:398761,0,-1,-1,0,-2,-2,-3,0
13:54:55:404818,4,0,1,-1,1,-1,-2,1
13:54:55:420525,4,0,1,-1,1,-1,-2,1
13:54:55:421262,-4,1,-1,-3,-3,-1,-1,-2
13:54:55:427335,0,-1,0,-1,-1,-1,-3,3
13:54:55:435580,0,-1,0,-1,-1,-1,-3,3
13:54:55:436326,0,0,-2,-1,-4,-2,1,-2
13:54:55:442317,-1,-1,-2,0,0,0,0,-1
13:54:55:458131,-1,-1,-2,0,0,0,0,-1
13:54:55:458749,0,-1,-1,-1,-2,0,0,-2
13:54:55:464803,-1,-2,0,-1,-1,-1,-2,0
13:54:55:480519,-1,-2,0,-1,-1,-1,-2,0
13:54:55:481238,-2,-1,0,1,1,-1,0,-3
13:54:55:487366,-2,-1,-1,-3,-3,-3,-3,-10
13:54:55:495523,-2,-1,-1,-3,-3,-3,-3,-10
13:54:55:496276,0,-3,1,0,0,0,-1,0
13:54:55:502324,0,-2,-2,0,-1,-1,0,2
13:54:55:518105,0,-2,-2,0,-1,-1,0,2
13:54:55:518827,-1,-1,-3,0,0,-2,-4,-4
13:54:55:524863,-4,-1,-3,-2,-1,-1,0,0
13:54:55:540551,-4,-1,-3,-2,-1,-1,0,0
13:54:55:541265,1,-2,-2,-1,2,0,1,4
13:54:55:547282,-2,0,-2,0,-1,-2,0,0
13:54:55:555597,-2,0,-2,0,-1,-2,0,0
13:54:55:556261,-2,-1,3,-3,-2,0,-2,-4
13:54:55:562332,1,-1,-1,-2,0,0,-1,4
13:54:55:577967,1,-1,-1,-2,0,0,-1,4
13:54:55:578749,-2,0,-2,0,-2,-2,0,-3
13:54:55:584957,0,-1,0,1,0,3,2,7
13:54:55:608691,0,-1,0,1,0,3,2,7
13:54:55:609418,-1,-1,-3,-3,-2,0,1,-2
13:54:55:610271,-2,-1,0,-1,-1,0,-1,0
13:54:55:615477,-2,-1,0,-1,-1,0,-1,0
13:54:55:616316,-1,1,-1,-1,0,-1,-1,-1
13:54:55:622347,-2,-1,1,-3,-1,-2,-3,-2
13:54:55:638179,-2,-1,1,-3,-1,-2,-3,-2
13:54:55:638807,-1,-5,-1,-2,-2,-3,1,-1
13:54:55:644775,0,0,0,-2,-1,-1,0,-10
13:54:55:660526,0,0,0,-2,-1,-1,0,-10
13:54:55:661374,-1,0,-3,-2,-2,0,-1,1
13:54:55:667258,0,-2,-1,-1,-2,-1,-2,7
13:54:55:675513,0,-2,-1,-1,-2,-1,-2,7
13:54:55:676252,0,0,-1,1,-1,1,0,-5
13:54:55:689926,-2,-1,1,1,-2,-4,-3,-4
13:54:55:698048,-2,-1,1,1,-2,-4,-3,-4
13:54:55:698757,1,0,0,-1,0,-2,-2,3
13:54:55:704803,0,-3,0,-2,0,-1,-2,0
13:54:55:720526,0,-3,0,-2,0,-1,-2,0
13:54:55:721266,-1,-2,1,-1,-1,-1,-3,0
13:54:55:727344,-5,0,-3,-1,-1,-2,-1,-4
13:54:55:735595,-5,0,-3,-1,-1,-2,-1,-4
13:54:55:736296,-2,0,-2,-2,-2,-1,1,-1
13:54:55:749852,3,-3,-1,-1,-1,-2,-2,-6
13:54:55:758095,3,-3,-1,-1,-1,-2,-2,-6
13:54:55:758796,0,-1,-2,0,-2,-1,-3,-4
13:54:55:764784,1,0,0,-2,-1,-2,2,2
13:54:55:780502,1,0,0,-2,-1,-2,2,2
13:54:55:781233,-1,1,-2,-2,-1,-2,-1,1
13:54:55:787342,-2,-4,0,-2,-2,-1,-1,-2
13:54:55:795482,-2,-4,0,-2,-2,-1,-1,-2
13:54:55:796290,0,-2,2,-1,1,1,-2,1
13:54:55:809835,0,2,0,1,1,0,0,1
13:54:55:818108,0,2,0,1,1,0,0,1
13:54:55:818807,-2,1,-1,0,-1,-2,-3,-9
13:54:55:824893,2,-1,-3,-1,-1,1,1,4
13:54:55:840573,2,-1,-3,-1,-1,1,1,4
13:54:55:841280,-3,-2,-1,0,-1,-1,-2,1
13:54:55:847314,-1,0,-2,-1,-1,-1,1,3
13:54:55:855590,-1,0,-2,-1,-1,-1,1,3
13:54:55:856300,2,-2,0,-2,-1,-2,0,4
13:54:55:869837,-2,-1,0,-2,0,-3,-1,-2
13:54:55:878003,-2,-1,0,-2,0,-3,-1,-2
13:54:55:878756,-3,-3,-4,-1,0,0,-3,-4
13:54:55:884879,-2,0,-4,-2,-2,-2,-6,-12
13:54:55:900503,-2,0,-4,-2,-2,-2,-6,-12
13:54:55:901364,1,-2,1,1,-4,-7,0,-6
13:54:55:907345,-4,-3,-3,-2,-2,-5,-2,-9
13:54:55:915451,-4,-3,-3,-2,-2,-5,-2,-9
13:54:55:916262,-2,0,2,-2,3,3,-11,-15
13:54:55:929823,-6,5,0,-4,-7,-7,-7,0
13:54:55:938119,-6,5,0,-4,-7,-7,-7,0
13:54:55:938880,5,1,1,3,4,6,7,14
13:54:55:944778,0,0,-2,2,0,-6,4,10
13:54:55:960532,0,0,-2,2,0,-6,4,10
13:54:55:961316,-7,-5,-1,2,4,1,2,-15
13:54:55:967303,-2,-4,2,0,-12,4,61,14
13:54:55:975548,-2,-4,2,0,-12,4,61,14
13:54:55:976318,4,8,1,4,14,-1,-13,10
13:54:55:989886,4,0,2,-2,11,15,-10,-5
13:54:55:998043,4,0,2,-2,11,15,-10,-5
13:54:55:998790,-1,2,-1,-5,-18,-4,-2,8
13:54:56:4857,-4,-2,-3,2,5,12,-7,-16
13:54:56:20503,-4,-2,-3,2,5,12,-7,-16
13:54:56:21292,-3,-5,-3,-9,2,-15,-10,-9
13:54:56:27287,0,-2,-3,-6,15,-14,30,8
13:54:56:35647,0,-2,-3,-6,15,-14,30,8
13:54:56:36331,-4,-4,-6,4,22,32,-2,-4
13:54:56:49780,2,0,-2,-6,-14,-11,-9,6
13:54:56:58160,2,0,-2,-6,-14,-11,-9,6
13:54:56:58821,0,0,1,0,-10,-21,-5,-11
13:54:56:64764,-3,-13,3,0,1,6,-9,9
13:54:56:80552,-3,-13,3,0,1,6,-9,9
13:54:56:81280,-2,-2,2,0,-12,-15,-13,2
13:54:56:87307,0,-2,-3,3,15,11,-8,-5
13:54:56:95526,0,-2,-3,3,15,11,-8,-5
13:54:56:96302,-5,-2,-5,-9,-17,1,17,20
13:54:56:109806,-4,-1,-2,-3,-25,-25,-11,15
13:54:56:118222,-4,-1,-2,-3,-25,-25,-11,15
13:54:56:118742,-2,1,4,-1,-24,-2,2,-13
13:54:56:124836,0,-1,0,6,6,1,-8,-6
13:54:56:140600,0,-1,0,6,6,1,-8,-6
13:54:56:141362,-6,-9,-2,6,-2,-5,-1,-9
13:54:56:147263,1,2,0,-2,-10,-7,-11,-11
13:54:56:155584,1,2,0,-2,-10,-7,-11,-11
13:54:56:156332,4,3,-6,-6,6,0,4,2
13:54:56:169835,1,-1,-3,3,5,5,-3,0
13:54:56:178026,1,-1,-3,3,5,5,-3,0
13:54:56:178793,-3,-3,-2,-9,6,-2,5,15
13:54:56:184887,-3,-3,2,-7,-14,-9,-13,-17
13:54:56:200534,-3,-3,2,-7,-14,-9,-13,-17
13:54:56:201288,5,2,6,2,12,15,11,-7
13:54:56:207420,1,1,1,5,1,-3,-8,4
13:54:56:215487,1,1,1,5,1,-3,-8,4
13:54:56:216272,-2,2,-1,-6,3,-5,-25,4
13:54:56:229861,1,0,-2,-1,-3,2,9,2
13:54:56:238050,1,0,-2,-1,-3,2,9,2
13:54:56:238797,-3,-7,-4,-19,-7,-8,-4,-8
13:54:56:244842,1,-9,1,-4,8,12,-2,-6
13:54:56:260508,1,-9,1,-4,8,12,-2,-6
13:54:56:261291,-7,0,1,5,1,6,-5,-6
13:54:56:267349,-2,2,-4,-8,-5,-11,8,1
13:54:56:275542,-2,2,-4,-8,-5,-11,8,1
13:54:56:276309,3,1,0,26,1,5,3,-4
13:54:56:290384,5,4,-1,6,-1,3,4,14
13:54:56:297973,5,4,-1,6,-1,3,4,14
13:54:56:298780,1,2,-1,4,-1,-4,12,-1
13:54:56:304884,-7,-1,0,-4,-4,1,-2,-1
13:54:56:320562,-7,-1,0,-4,-4,1,-2,-1
13:54:56:321317,-4,-1,-5,-2,-6,-6,0,2
13:54:56:327373,0,0,-2,-7,12,4,10,2
13:54:56:335605,0,0,-2,-7,12,4,10,2
13:54:56:336245,1,3,2,-18,-8,-1,14,6
13:54:56:349784,-2,-1,2,10,-5,-2,-15,-12
13:54:56:358069,-2,-1,2,10,-5,-2,-15,-12
13:54:56:358828,-1,-4,5,6,0,1,3,0
13:54:56:364807,-2,0,-6,-3,-2,-9,-13,-1
13:54:56:380992,-2,0,-6,-3,-2,-9,-13,-1
13:54:56:381796,2,-4,1,0,-2,-3,12,1
13:54:56:387342,1,1,2,1,-2,11,9,4
13:54:56:395468,1,1,2,1,-2,11,9,4
13:54:56:396271,1,-1,-3,1,-2,-3,-59,0
13:54:56:410293,-1,-3,1,8,0,4,-3,2
13:54:56:418208,-1,-3,1,8,0,4,-3,2
13:54:56:418829,2,-5,-3,-5,-8,-5,12,2
13:54:56:424878,-4,1,-3,3,0,3,-7,-6
13:54:56:440629,-4,1,-3,3,0,3,-7,-6
13:54:56:441337,-1,0,-2,-2,-1,3,-7,-4
13:54:56:447281,-3,-2,-6,-9,-1,-2,6,-5
13:54:56:455592,-3,-2,-6,-9,-1,-2,6,-5
13:54:56:456303,5,-1,-2,2,4,-3,4,-6
13:54:56:469821,1,0,12,-5,9,6,-1,1
13:54:56:478086,1,0,12,-5,9,6,-1,1
13:54:56:478808,1,0,-2,7,-2,-17,0,1
13:54:56:484875,0,-1,0,3,1,-12,-11,5
13:54:56:500504,0,-1,0,3,1,-12,-11,5
13:54:56:501312,-39,-3,-3,1,16,12,7,-8
13:54:56:507304,-3,-4,-2,0,-3,-6,-1,-3
13:54:56:515521,-3,-4,-2,0,-3,-6,-1,-3
13:54:56:516277,5,0,-3,-5,-4,-2,-3,-1
13:54:56:529740,-5,1,-4,-4,2,1,-1,-7
13:54:56:538016,-5,1,-4,-4,2,1,-1,-7
13:54:56:538810,2,0,2,5,1,2,11,0
13:54:56:544773,7,-1,-1,4,4,-2,-3,-3
13:54:56:560527,7,-1,-1,4,4,-2,-3,-3
13:54:56:561281,5,8,1,-2,3,1,6,2
13:54:56:567283,0,-1,-2,1,8,7,-1,-10
13:54:56:575498,0,-1,-2,1,8,7,-1,-10
13:54:56:576289,1,0,-1,-3,-1,5,3,6
13:54:56:589875,-1,-1,-1,-5,-9,-9,-4,0
13:54:56:597957,-1,-1,-1,-5,-9,-9,-4,0
13:54:56:598752,7,-2,-2,-2,1,-2,-1,-2
13:54:56:612339,-2,-2,-1,-3,-2,-1,-2,4
13:54:56:620490,-2,-2,-1,-3,-2,-1,-2,4
13:54:56:621239,-1,-4,-2,-9,-26,-21,-13,-9
13:54:56:627312,-6,-1,0,11,17,7,6,1
13:54:56:634913,-6,-1,0,11,17,7,6,1
13:54:56:642322,0,-1,5,-1,9,11,4,1
13:54:56:649778,1,-4,-3,-4,-12,-9,2,2
13:54:56:658121,1,-4,-3,-4,-12,-9,2,2
13:54:56:658813,-1,-4,-7,-4,-5,-1,2,-2
13:54:56:672355,1,-1,-1,-6,-4,-3,-3,-9
13:54:56:680231,1,-1,-1,-6,-4,-3,-3,-9
13:54:56:687991,-1,1,1,5,2,-2,1,3
13:54:56:688785,1,-2,-13,-1,-5,0,-1,-2
13:54:56:694889,1,-2,-13,-1,-5,0,-1,-2
13:54:56:702395,0,-3,0,7,-1,-2,0,-6
13:54:56:709818,-1,-3,-1,-3,-11,-2,-1,0
13:54:56:718738,-1,-3,-1,-3,-11,-2,-1,0
13:54:56:719503,-1,-3,-4,1,-4,-13,-1,1
13:54:56:732250,-2,0,3,-7,4,4,1,-4
13:54:56:740660,-2,0,3,-7,4,4,1,-4
13:54:56:741291,-2,-3,-1,1,5,6,7,6
13:54:56:747281,-5,-2,2,0,-11,-12,-4,-1
13:54:56:755003,-5,-2,2,0,-11,-12,-4,-1
13:54:56:762283,1,-3,0,-2,8,5,-5,-2
13:54:56:769839,1,0,0,2,1,4,-1,0
13:54:56:777959,1,0,0,2,1,4,-1,0
13:54:56:778762,0,0,-2,0,-6,-3,-12,3
13:54:56:792326,-4,0,1,-12,-6,-7,-4,-3
13:54:56:800520,-4,0,1,-12,-6,-7,-4,-3
13:54:56:801340,-2,-1,0,-10,-17,-3,-2,-6
13:54:56:807344,-3,-4,1,-8,14,-8,-6,-1
13:54:56:814786,-3,-4,1,-8,14,-8,-6,-1
13:54:56:822448,-3,-12,-5,-8,7,-9,0,1
13:54:56:829831,-2,-1,-2,-5,-2,11,3,-3
13:54:56:838071,-2,-1,-2,-5,-2,11,3,-3
13:54:56:838760,1,0,1,1,-1,-2,2,3
13:54:56:853013,-1,-1,0,2,-7,-1,-2,2
13:54:56:853774,-1,-1,0,2,-7,-1,-2,2
13:54:56:859845,1,5,0,-9,-3,11,3,-1
13:54:56:867380,-3,1,-7,2,3,7,1,3
13:54:56:874911,-3,1,-7,2,3,7,1,3
13:54:56:882257,2,1,-7,3,10,10,6,10
13:54:56:889907,2,-2,-1,-3,-4,-6,0,-4
13:54:56:898025,2,-2,-1,-3,-4,-6,0,-4
13:54:56:898810,1,-1,4,1,8,7,3,-2
13:54:56:913008,-5,0,-1,-2,-15,-12,-5,-3
13:54:56:913789,-5,0,-1,-2,-15,-12,-5,-3
13:54:56:919881,1,2,3,1,-3,9,6,3
13:54:56:927338,-1,-14,6,-6,-14,-1,1,-4
13:54:56:935018,-1,-14,6,-6,-14,-1,1,-4
13:54:56:942306,-1,-2,8,6,-7,-8,-8,-10
13:54:56:949760,5,5,5,15,7,5,0,2
13:54:56:958134,5,5,5,15,7,5,0,2
13:54:56:958807,-1,-4,-7,-7,0,-2,-5,6
13:54:56:973546,11,0,-35,-20,-2,-8,-3,1
13:54:56:974320,11,0,-35,-20,-2,-8,-3,1
13:54:56:979789,2,8,1,5,-2,0,3,9
13:54:56:996136,-1,1,13,5,2,-5,-6,-7
13:54:56:996908,-1,1,13,5,2,-5,-6,-7
13:54:57:2365,-5,-2,3,-8,-15,-10,0,-3
13:54:57:9798,-2,-3,-27,8,2,11,4,2
13:54:57:18185,-2,-3,-27,8,2,11,4,2
13:54:57:18784,0,-2,3,0,2,-5,-13,-9
13:54:57:32993,-3,2,12,-1,-3,-4,-4,-5
13:54:57:33775,-3,2,12,-1,-3,-4,-4,-5
13:54:57:39789,-2,-2,-12,1,4,1,2,-3
13:54:57:47281,-1,-3,1,-3,0,-1,-3,14
13:54:57:54920,-1,-3,1,-3,0,-1,-3,14
13:54:57:62255,-4,1,0,-3,2,-8,-1,-4
13:54:57:69787,-6,-1,19,4,0,-4,1,-21
13:54:57:78129,-6,-1,19,4,0,-4,1,-21
13:54:57:78755,-5,-15,-23,-3,-1,-1,5,-9
13:54:57:93029,-2,-1,-2,3,-1,-1,7,7
13:54:57:93813,-2,-1,-2,3,-1,-1,7,7
13:54:57:99744,0,5,24,14,7,3,-3,4
13:54:57:107372,0,0,13,2,10,3,-2,4
13:54:57:114819,0,0,13,2,10,3,-2,4
13:54:57:122418,0,-4,3,3,-5,-5,2,-8
13:54:57:129796,-2,-1,1,-4,-2,-4,-2,2
13:54:57:138112,-2,-1,1,-4,-2,-4,-2,2
13:54:57:138816,3,-2,-8,-4,2,-3,-2,2
13:54:57:153079,-2,1,18,4,7,10,1,-7
13:54:57:153809,-2,1,18,4,7,10,1,-7
13:54:57:159843,-6,-4,0,-11,-14,-5,-6,-11
13:54:57:167309,1,-3,-13,1,12,2,5,7
13:54:57:174882,1,-3,-13,1,12,2,5,7
13:54:57:182262,2,1,-10,-2,3,4,-5,0
13:54:57:189896,1,-3,-11,-3,-9,-4,-5,0
13:54:57:197977,1,-3,-11,-3,-9,-4,-5,0
13:54:57:198764,2,6,-6,5,4,6,6,6
13:54:57:212969,2,2,-1,-2,-3,-5,-2,0
13:54:57:213809,2,2,-1,-2,-3,-5,-2,0
13:54:57:219863,16,2,17,0,1,-5,0,-2
13:54:57:227333,0,3,-3,4,6,2,-1,0
13:54:57:235003,0,3,-3,4,6,2,-1,0
13:54:57:242363,-4,-2,-2,-8,-16,-11,-6,-7
13:54:57:249809,0,2,2,1,24,5,10,-5
13:54:57:258088,0,2,2,1,24,5,10,-5
13:54:57:258796,-5,-1,0,-2,6,3,-2,-1
13:54:57:273042,-9,-13,1,-1,-8,-8,-7,-6
13:54:57:273814,-9,-13,1,-1,-8,-8,-7,-6
13:54:57:279773,-3,-2,-1,-3,2,1,2,2
13:54:57:287334,0,2,3,-3,-11,-4,-6,-2
13:54:57:294834,0,2,3,-3,-11,-4,-6,-2
13:54:57:302419,-3,-1,-1,0,-12,-16,-5,-1
13:54:57:309826,0,0,0,-5,-4,-2,-2,4
13:54:57:318114,0,0,0,-5,-4,-2,-2,4
13:54:57:318809,-2,1,-1,-8,-8,-4,-1,1
13:54:57:332969,-3,-2,-8,-4,-2,3,1,-4
13:54:57:333834,-3,-2,-8,-4,-2,3,1,-4
13:54:57:339840,-3,-2,-1,3,14,11,4,2
13:54:57:347289,1,-1,-4,0,-9,-4,-5,-1
13:54:57:354939,1,-1,-4,0,-9,-4,-5,-1
13:54:57:362300,2,-3,7,-4,-10,-9,-1,-4
13:54:57:369860,0,2,0,-9,-11,3,2,0
13:54:57:378031,0,2,0,-9,-11,3,2,0
13:54:57:378823,-5,0,4,6,-3,-4,-1,1
13:54:57:393024,-2,-2,0,19,14,1,-1,2
13:54:57:393796,-2,-2,0,19,14,1,-1,2
13:54:57:399806,-5,-4,-7,-2,4,9,-4,-4
13:54:57:407347,-4,-1,-4,-4,2,-5,-2,-1
13:54:57:414856,-4,-1,-4,-4,2,-5,-2,-1
13:54:57:422412,1,-1,-20,-1,3,7,5,1
13:54:57:429761,-1,-4,0,-6,-15,-6,-4,-7
13:54:57:438136,-1,-4,0,-6,-15,-6,-4,-7
13:54:57:438886,-16,1,14,1,-2,0,0,-4
13:54:57:453067,-3,0,1,-4,-2,-2,-1,-2
13:54:57:453825,-3,0,1,-4,-2,-2,-1,-2
13:54:57:459856,6,2,3,-3,0,2,-4,-1
13:54:57:467319,-4,0,-1,-2,-4,-1,8,-1
13:54:57:474917,-4,0,-1,-2,-4,-1,8,-1
13:54:57:482277,2,0,0,0,3,1,2,4
13:54:57:489876,3,-4,-2,-4,0,-3,-1,1
13:54:57:497987,3,-4,-2,-4,0,-3,-1,1
13:54:57:498824,0,-1,-1,-2,-5,-3,-2,2
13:54:57:512955,1,0,1,5,6,2,-1,-1
13:54:57:513733,1,0,1,5,6,2,-1,-1
13:54:57:519868,0,-1,1,1,-5,-12,-2,-2
13:54:57:527406,-2,1,-5,-4,-5,10,-11,-5
13:54:57:534991,-2,1,-5,-4,-5,10,-11,-5
13:54:57:542372,1,-2,-2,-2,13,1,-2,2
13:54:57:549808,-15,-2,-22,-3,1,-3,0,2
13:54:57:557517,-15,-2,-22,-3,1,-3,0,2
13:54:57:564772,0,0,0,-4,-4,0,-4,-1
13:54:57:572340,4,1,7,2,-3,2,3,-2
13:54:57:580489,4,1,7,2,-3,2,3,-2
13:54:57:581258,-4,-3,-16,-2,-3,3,-2,-1
13:54:57:595530,4,-2,-19,-3,-5,1,2,4
13:54:57:596355,4,-2,-19,-3,-5,1,2,4
13:54:57:602378,-1,-2,2,4,-2,-6,0,-3
13:54:57:609812,-5,-2,-2,-5,-4,-2,-3,-4
13:54:57:617414,-5,-2,-2,-5,-4,-2,-3,-4
13:54:57:624873,3,1,-2,-4,-5,4,6,1
13:54:57:633016,4,0,20,3,-4,-1,0,1
13:54:57:633844,4,0,20,3,-4,-1,0,1
13:54:57:639893,-15,-3,5,-1,-1,3,2,-6
13:54:57:655612,-10,-3,21,-10,-4,-15,-3,-4
13:54:57:656375,-10,-3,21,-10,-4,-15,-3,-4
13:54:57:662287,4,1,-2,0,2,-1,1,3
13:54:57:669901,-3,2,-1,2,5,3,1,-2
13:54:57:677388,-3,2,-1,2,5,3,1,-2
13:54:57:684941,1,-2,-14,-6,1,-2,-3,2
13:54:57:692328,6,2,-6,-8,-3,-1,-2,5
13:54:57:700563,6,2,-6,-8,-3,-1,-2,5
13:54:57:701352,24,-3,-16,3,0,1,-2,-5
13:54:57:715507,4,5,8,20,6,-3,2,-3
13:54:57:716317,4,5,8,20,6,-3,2,-3
13:54:57:722363,1,2,18,0,-1,0,11,1
13:54:57:729786,0,-5,-17,1,-1,-1,-2,-1
13:54:57:737381,0,-5,-17,1,-1,-1,-2,-1
13:54:57:744835,-5,-2,5,7,3,0,-3,-3
13:54:57:752401,-3,2,11,-13,-4,-2,-1,-4
13:54:57:760524,-3,2,11,-13,-4,-2,-1,-4
13:54:57:761287,-3,2,1,-2,-4,-4,-2,0
13:54:57:775511,7,-2,1,22,-4,1,1,5
13:54:57:776272,7,-2,1,22,-4,1,1,5
13:54:57:782298,-7,1,-1,-21,-1,1,-8,-4
13:54:57:789918,3,-5,-6,-59,-8,-4,-2,-2
13:54:57:797317,3,-5,-6,-59,-8,-4,-2,-2
13:54:57:804799,-7,-9,-11,-6,-5,-8,-22,-8
13:54:57:812364,-8,-4,-7,17,-2,0,3,0
13:54:57:820547,-8,-4,-7,17,-2,0,3,0
13:54:57:821323,2,9,23,13,5,20,4,8
13:54:57:835558,-2,-1,1,40,-1,-5,-8,-5
13:54:57:836256,-2,-1,1,40,-1,-5,-8,-5
13:54:57:842267,-6,1,1,20,6,-4,-27,-4
13:54:57:849831,1,0,17,21,8,11,60,-11
13:54:57:857365,1,0,17,21,8,11,60,-11
13:54:57:864791,2,-2,-2,4,-17,-16,42,3
13:54:57:872332,0,-4,0,-17,-10,-11,-16,-3
13:54:57:880502,0,-4,0,-17,-10,-11,-16,-3
13:54:57:881251,2,-3,-16,10,15,14,-11,3
13:54:57:895498,-6,-2,2,0,8,-4,62,0
13:54:57:896322,-6,-2,2,0,8,-4,62,0
13:54:57:902333,0,2,19,-2,4,6,-31,-12
13:54:57:909826,2,4,16,39,4,12,-28,1
13:54:57:917347,2,4,16,39,4,12,-28,1
13:54:57:924866,0,-1,11,7,3,-6,24,2
13:54:57:932257,-3,0,16,22,-8,-6,-29,-11
13:54:57:940630,-3,0,16,22,-8,-6,-29,-11
13:54:57:941348,-1,-3,-16,-51,-7,-1,2,-2
13:54:57:955588,3,-3,-21,-29,-1,-3,-14,6
13:54:57:956383,3,-3,-21,-29,-1,-3,-14,6
13:54:57:962308,-5,-3,-12,-2,-4,-3,3,4
13:54:57:969876,1,-1,-2,-3,-2,14,-3,-1
13:54:57:977402,1,-1,-2,-3,-2,14,-3,-1
13:54:57:984920,-2,-5,-7,2,-12,-13,-10,-5
13:54:57:992340,0,-1,-4,-12,-1,-7,-9,1
13:54:58:543,0,-1,-4,-12,-1,-7,-9,1
13:54:58:1331,-1,-2,-9,-25,-3,5,6,5
13:54:58:15527,-4,-9,-49,-23,-2,-4,-8,4
13:54:58:16311,-4,-9,-49,-23,-2,-4,-8,4
13:54:58:22352,-1,-4,-6,8,-4,-3,0,-7
13:54:58:29807,2,6,15,1,5,-5,-13,2
13:54:58:37324,2,6,15,1,5,-5,-13,2
13:54:58:44811,0,-4,11,7,0,-1,0,1
13:54:58:52364,-4,-2,-21,-9,-3,-4,-5,-2
13:54:58:60532,-4,-2,-21,-9,-3,-4,-5,-2
13:54:58:61301,-1,2,15,8,0,-2,2,-1
13:54:58:75975,3,3,4,2,5,-4,-1,1
13:54:58:76751,3,3,4,2,5,-4,-1,1
13:54:58:82319,2,3,14,1,0,0,-1,3
13:54:58:89972,-2,-1,22,-16,-15,-6,-7,3
13:54:58:97317,-2,-1,22,-16,-15,-6,-7,3
13:54:58:104858,2,-1,10,-4,1,1,2,-2
13:54:58:112332,5,3,14,-8,-3,5,3,0
13:54:58:120495,5,3,14,-8,-3,5,3,0
13:54:58:121309,-6,-4,-30,-5,-3,-6,-8,-6
13:54:58:135616,-3,-3,-2,-8,0,-3,0,-4
13:54:58:136293,-3,-3,-2,-8,0,-3,0,-4
13:54:58:142313,1,-4,-11,-1,-2,-4,-2,-2
13:54:58:149812,-1,0,-7,-7,-4,-3,-4,-1
13:54:58:157449,-1,0,-7,-7,-4,-3,-4,-1
13:54:58:164751,-2,1,3,6,4,3,2,-1
13:54:58:172290,-2,-4,6,2,2,2,-1,-1
13:54:58:180514,-2,-4,6,2,2,2,-1,-1
13:54:58:181288,1,-2,-61,-14,-2,-3,-3,-1
13:54:58:195520,-5,-19,-30,1,-3,-3,-5,-8
13:54:58:196317,-5,-19,-30,1,-3,-3,-5,-8
13:54:58:202381,-1,1,0,-8,-4,-3,1,-2
13:54:58:209782,0,6,-4,9,4,1,3,2
13:54:58:217342,0,6,-4,9,4,1,3,2
13:54:58:224871,-1,0,12,2,-2,0,-4,3
13:54:58:232265,-1,-3,17,-8,-18,-15,-6,4
13:54:58:240601,-1,-3,17,-8,-18,-15,-6,4
13:54:58:241332,6,-1,1,13,15,14,4,6
13:54:58:255582,-2,-12,-17,-7,-4,-2,-3,-2
13:54:58:256311,-2,-12,-17,-7,-4,-2,-3,-2
13:54:58:262287,-16,-8,-2,-7,-3,-9,-4,-12
13:54:58:269845,6,10,26,-4,27,8,5,3
13:54:58:277407,6,10,26,-4,27,8,5,3
13:54:58:284920,0,4,21,-19,-6,-6,3,4
13:54:58:292313,-3,2,-15,-1,-7,0,3,1
13:54:58:300513,-3,2,-15,-1,-7,0,3,1
13:54:58:301285,2,6,11,12,0,-2,0,5
13:54:58:315498,-6,-4,-4,-5,-2,1,-7,-5
13:54:58:316296,-6,-4,-4,-5,-2,1,-7,-5
13:54:58:322403,13,26,-6,2,-2,-3,3,4
13:54:58:329774,-6,-10,-3,8,-5,1,-6,-4
13:54:58:337331,-6,-10,-3,8,-5,1,-6,-4
13:54:58:344856,-3,-2,14,31,-1,5,0,-2
13:54:58:352380,7,4,-4,-7,-2,-3,-2,4
13:54:58:360530,7,4,-4,-7,-2,-3,-2,4
13:54:58:361309,15,0,8,16,-1,-6,-1,-1
13:54:58:383653,-11,-7,-2,-2,-5,-4,-5,-15
13:54:58:384452,-11,-7,-2,-2,-5,-4,-5,-15
13:54:58:385237,1,-10,-6,-16,-17,-7,-6,3
13:54:58:389870,2,16,4,17,41,11,4,8
13:54:58:397329,2,16,4,17,41,11,4,8
13:54:58:404854,-12,-29,-5,-12,13,-2,-12,-16
13:54:58:412289,13,15,-1,-11,-9,-2,-1,18
13:54:58:420452,13,15,-1,-11,-9,-2,-1,18
13:54:58:421274,-25,-18,-44,-56,-9,5,-18,-5
13:54:58:435643,6,14,0,5,-17,3,7,-2
13:54:58:436354,6,14,0,5,-17,3,7,-2
13:54:58:442348,6,-5,17,6,-31,0,11,11
13:54:58:449776,-9,-1,7,4,-11,-10,-12,-7
13:54:58:457376,-9,-1,7,4,-11,-10,-12,-7
13:54:58:464783,-4,9,9,12,-10,-11,1,-5
13:54:58:473054,9,-27,10,13,-2,6,15,14
13:54:58:473823,9,-27,10,13,-2,6,15,14
13:54:58:479736,-16,37,-14,-11,5,-8,-5,-2
13:54:58:495483,4,-10,10,-19,-5,-10,-12,-5
13:54:58:496303,4,-10,10,-19,-5,-10,-12,-5
13:54:58:502393,2,-2,8,7,20,11,8,-10
13:54:58:518083,-2,13,3,0,2,3,10,0
13:54:58:518786,-2,13,3,0,2,3,10,0
13:54:58:524837,3,-5,-14,-3,-13,-10,-6,-1
13:54:58:532294,-11,-16,-12,8,23,10,4,-5
13:54:58:539951,-11,-16,-12,8,23,10,4,-5
13:54:58:547429,7,-2,7,13,15,12,6,3
13:54:58:555594,-17,-5,9,-4,-15,-20,-16,-34
13:54:58:556327,-17,-5,9,-4,-15,-20,-16,-34
13:54:58:562288,-2,5,7,5,-9,1,-8,-8
13:54:58:577986,16,9,-1,2,1,11,14,11
13:54:58:578769,16,9,-1,2,1,11,14,11
13:54:58:584882,-2,-9,10,-1,-3,-6,-5,-5
13:54:58:592332,-9,-9,-16,-22,4,8,-17,-5
13:54:58:599861,-9,-9,-16,-22,4,8,-17,-5
13:54:58:607358,11,-6,-45,8,-5,-9,2,0
13:54:58:615494,2,15,-15,-61,-2,18,8,4
13:54:58:616266,2,15,-15,-61,-2,18,8,4
13:54:58:622319,1,2,14,-8,-1,-4,-2,1
13:54:58:638076,0,-3,-29,18,9,-7,-2,2
13:54:58:638790,0,-3,-29,18,9,-7,-2,2
13:54:58:644763,1,2,30,-1,12,3,13,4
13:54:58:653039,-1,0,38,17,-11,3,-5,0
13:54:58:653798,-1,0,38,17,-11,3,-5,0
13:54:58:676109,-7,-9,0,11,-8,-5,-6,-3
13:54:58:676875,3,4,17,25,19,0,-11,-12
13:54:58:677761,3,4,17,25,19,0,-11,-12
13:54:58:682282,1,-6,-50,-5,-4,2,2,1
13:54:58:697985,0,-6,-9,-3,-16,-14,1,3
13:54:58:698799,0,-6,-9,-3,-16,-14,1,3
13:54:58:704859,0,-5,9,-1,-16,-6,-3,6
13:54:58:712300,-2,6,8,-7,2,0,6,0
13:54:58:719833,-2,6,8,-7,2,0,6,0
13:54:58:727335,-1,-11,-40,-15,-1,-4,1,-3
13:54:58:735566,0,-7,6,6,-7,-1,1,6
13:54:58:736315,0,-7,6,6,-7,-1,1,6
13:54:58:742330,-1,5,55,-15,20,15,2,2
13:54:58:758061,-1,5,55,-15,20,15,2,2
13:54:58:758811,12,-5,4,-41,-10,-10,-14,-13
13:54:58:764784,-1,10,15,17,10,-2,-4,-4
13:54:58:773068,-1,10,15,17,10,-2,-4,-4
13:54:58:773813,2,1,-41,12,-3,-1,2,26
13:54:58:787347,3,-14,21,-15,-12,-5,6,-11
13:54:58:795507,3,-14,21,-15,-12,-5,6,-11
13:54:58:796293,-5,6,49,17,0,4,5,3
13:54:58:802365,-1,5,-4,7,-2,3,1,7
13:54:58:818085,-1,5,-4,7,-2,3,1,7
13:54:58:818788,-9,-12,-7,-19,-6,-12,-4,-16
13:54:58:824867,-7,-7,-1,0,4,-1,-1,-10
13:54:58:832980,-7,-7,-1,0,4,-1,-1,-10
13:54:58:833746,-16,-15,-71,9,-6,-3,-5,0
13:54:58:847296,-2,-1,-14,0,0,-3,0,2
13:54:58:855552,-2,-1,-14,0,0,-3,0,2
13:54:58:856277,-6,5,-10,6,2,-5,4,4
13:54:58:862272,-2,-9,-48,-26,-6,-3,-5,2
13:54:58:878034,-2,-9,-48,-26,-6,-3,-5,2
13:54:58:878823,0,3,16,14,-7,5,-4,-6
13:54:58:884942,-1,4,22,18,4,-2,-1,0
13:54:58:893027,-1,4,22,18,4,-2,-1,0
13:54:58:893779,12,5,11,16,15,7,8,6
13:54:58:907357,-6,6,30,18,20,-3,-3,-9
13:54:58:915538,-6,6,30,18,20,-3,-3,-9
13:54:58:916308,-2,-13,26,-4,-7,-14,-6,-8
13:54:58:922433,-2,12,62,4,-6,-8,1,3
13:54:58:938077,-2,12,62,4,-6,-8,1,3
13:54:58:938818,4,5,10,-7,-10,5,3,-1
13:54:58:944806,8,11,-27,21,32,26,6,10
13:54:58:953161,8,11,-27,21,32,26,6,10
13:54:58:953742,-4,6,-14,4,-6,-1,-12,5
13:54:58:967300,-3,4,-4,2,-1,-2,19,15
13:54:58:975547,-3,4,-4,2,-1,-2,19,15
13:54:58:976346,-8,-20,-30,-8,-6,-12,-14,-7
13:54:58:982279,4,-11,-24,-23,-10,3,-7,2
13:54:58:998014,4,-11,-24,-23,-10,3,-7,2
13:54:58:998794,5,-6,2,11,11,-4,2,-1
13:54:59:4855,0,6,49,12,3,-1,0,-7
13:54:59:13001,0,6,49,12,3,-1,0,-7
13:54:59:13809,-2,1,7,-6,-5,-8,-18,2
13:54:59:27305,9,12,21,-7,-8,-8,-19,-8
13:54:59:35639,9,12,21,-7,-8,-8,-19,-8
13:54:59:36309,-2,-5,33,-19,-2,-5,9,4
13:54:59:42343,5,-3,-22,-27,-19,-2,-12,5
13:54:59:58096,5,-3,-22,-27,-19,-2,-12,5
13:54:59:58816,1,12,9,-13,-18,-8,-13,-6
13:54:59:64722,-6,-9,-26,-11,3,1,5,-5
13:54:59:73063,-6,-9,-26,-11,3,1,5,-5
13:54:59:73831,5,7,3,7,4,17,21,4
13:54:59:87252,9,-13,-69,-8,7,1,3,0
13:54:59:95563,9,-13,-69,-8,7,1,3,0
13:54:59:96342,-8,-13,-5,-6,-5,-20,-14,-12
13:54:59:102367,-20,-33,-4,13,4,4,-4,4
13:54:59:118017,-20,-33,-4,13,4,4,-4,4
13:54:59:118756,0,12,16,31,19,4,5,-7
13:54:59:124857,5,20,47,9,-4,-11,-1,2
13:54:59:133035,5,20,47,9,-4,-11,-1,2
13:54:59:133830,1,9,4,-7,2,-1,15,7
13:54:59:147283,-10,3,3,-17,-9,-2,-7,-5
13:54:59:155561,-10,3,3,-17,-9,-2,-7,-5
13:54:59:156300,13,24,-28,-4,3,2,5,0
13:54:59:162258,-4,-2,16,11,6,-3,-1,-10
13:54:59:178039,-4,-2,16,11,6,-3,-1,-10
13:54:59:178856,2,-12,18,5,-14,-16,-7,-10
13:54:59:184838,0,3,28,20,-6,10,9,3
13:54:59:193000,0,3,28,20,-6,10,9,3
13:54:59:193819,0,-1,17,1,-1,3,2,1
13:54:59:207425,4,-2,10,6,5,-3,7,-3
13:54:59:215474,4,-2,10,6,5,-3,7,-3
13:54:59:216263,-18,-2,-35,-29,8,-8,-7,-4
13:54:59:222310,1,3,-35,15,21,-2,2,-5
13:54:59:237994,1,3,-35,15,21,-2,2,-5
13:54:59:238759,-4,-3,15,15,-1,3,13,0
13:54:59:244793,-4,0,-21,-15,-10,10,-10,-7
13:54:59:253072,-4,0,-21,-15,-10,10,-10,-7
13:54:59:253793,-4,-8,0,7,-1,3,-7,0
13:54:59:267513,-1,-1,-27,6,-12,0,-5,0
13:54:59:275531,-1,-1,-27,6,-12,0,-5,0
13:54:59:276300,4,2,-17,6,-9,7,3,1
13:54:59:282289,0,1,-13,-4,-9,-11,3,4
13:54:59:297958,0,1,-13,-4,-9,-11,3,4
13:54:59:298750,4,-4,-20,-5,-6,-2,-5,6
13:54:59:304868,-1,-7,16,-4,-11,0,-2,-1
13:54:59:312973,-1,-7,16,-4,-11,0,-2,-1
13:54:59:313753,4,-4,6,1,10,3,4,-9
13:54:59:327310,-6,-7,12,1,-1,-3,4,-4
13:54:59:335522,-6,-7,12,1,-1,-3,4,-4
13:54:59:336254,-2,-1,-52,10,12,-2,-6,0
13:54:59:342337,5,-18,-48,-60,-13,-6,7,2
13:54:59:358053,5,-18,-48,-60,-13,-6,7,2
13:54:59:358809,0,4,56,10,13,17,0,-5
13:54:59:364786,2,9,0,2,-7,-8,-17,-6
13:54:59:373105,2,9,0,2,-7,-8,-17,-6
13:54:59:373762,-3,-17,-28,-26,-21,-12,16,3
13:54:59:387322,6,10,33,22,11,5,-2,2
13:54:59:395547,6,10,33,22,11,5,-2,2
13:54:59:396321,3,22,79,13,-14,6,-10,-1
13:54:59:402476,-11,-11,15,-5,27,-2,2,-7
13:54:59:418150,-11,-11,15,-5,27,-2,2,-7
13:54:59:418898,-1,-1,-12,3,4,24,2,3
13:54:59:424874,-24,-2,-13,10,-3,-5,-5,-2
13:54:59:432373,-24,-2,-13,10,-3,-5,-5,-2
13:54:59:439908,0,-9,31,-6,-1,-15,-8,4
13:54:59:447281,5,-14,-22,5,3,2,10,-3
13:54:59:455592,5,-14,-22,5,3,2,10,-3
13:54:59:456255,-3,3,-18,-37,-15,-6,8,0
13:54:59:469830,4,36,-44,9,-13,-6,4,7
13:54:59:477999,4,36,-44,9,-13,-6,4,7
13:54:59:478795,5,-3,-23,-2,-11,6,1,3
13:54:59:484881,-6,-4,-44,-8,-16,-8,2,-7
13:54:59:492327,-6,-4,-44,-8,-16,-8,2,-7
13:54:59:499793,-9,-11,-31,3,-4,-8,-2,-5
13:54:59:507405,13,17,104,21,3,10,2,19
13:54:59:515487,13,17,104,21,3,10,2,19
13:54:59:516237,-4,-20,-7,1,6,4,-2,-9
13:54:59:529779,5,-28,-35,-26,-15,-5,6,4
13:54:59:537997,5,-28,-35,-26,-15,-5,6,4
13:54:59:538770,-4,2,-2,22,6,-7,-9,2
13:54:59:544814,2,4,-4,-6,-5,-9,-2,-1
13:54:59:552364,2,4,-4,-6,-5,-9,-2,-1
13:54:59:559757,-3,-23,-62,0,0,-1,9,0
13:54:59:567292,0,5,30,-8,-10,-12,-14,-9
13:54:59:575533,0,5,30,-8,-10,-12,-14,-9
13:54:59:576318,-3,9,25,-10,10,14,-12,1
13:54:59:589883,-4,1,-26,-5,-16,6,16,1
13:54:59:597983,-4,1,-26,-5,-16,6,16,1
13:54:59:598774,-10,5,10,-9,-10,-14,-15,-5
13:54:59:604812,-4,-7,30,4,15,1,1,4
13:54:59:612334,-4,-7,30,4,15,1,1,4
13:54:59:619881,-7,-5,-76,-16,2,-12,-7,-12
13:54:59:627306,14,23,-32,9,19,15,0,6
13:54:59:635680,14,23,-32,9,19,15,0,6
13:54:59:636284,9,6,102,15,2,6,17,11
13:54:59:649759,-2,-15,-40,-19,-13,-15,-9,-3
13:54:59:658103,-2,-15,-40,-19,-13,-15,-9,-3
13:54:59:658878,6,10,56,23,19,7,-3,-1
13:54:59:664794,-3,-7,-7,-1,8,9,-15,5
13:54:59:672456,-3,-7,-7,-1,8,9,-15,5
13:54:59:679771,-7,-11,16,-5,-4,8,-24,0
13:54:59:687308,-3,-13,27,21,20,3,1,-3
13:54:59:695498,-3,-13,27,21,20,3,1,-3
13:54:59:696268,12,-3,-80,12,19,4,6,3
13:54:59:709815,-7,11,-52,-17,-10,-8,-8,-10
13:54:59:718136,-7,11,-52,-17,-10,-8,-8,-10
13:54:59:718772,-16,8,-3,-23,-7,-13,4,-10
13:54:59:724829,-9,-10,-2,-22,-3,-5,-12,-2
13:54:59:732308,-9,-10,-2,-22,-3,-5,-12,-2
13:54:59:739855,2,9,40,-7,-1,6,8,1
13:54:59:747311,12,16,45,10,-1,-6,8,5
13:54:59:755550,12,16,45,10,-1,-6,8,5
13:54:59:756254,-5,-3,-43,-27,-12,-18,8,-13
13:54:59:769833,14,5,8,11,13,4,-6,-6
13:54:59:778003,14,5,8,11,13,4,-6,-6
13:54:59:778790,-8,-6,0,0,-11,-3,-5,-9
13:54:59:784926,-5,1,14,-14,-8,2,0,-9
13:54:59:792370,-5,1,14,-14,-8,2,0,-9
13:54:59:799765,-4,-20,27,5,4,0,-11,10
13:54:59:807497,-13,-20,77,3,-8,0,-1,8
13:54:59:815486,-13,-20,77,3,-8,0,-1,8
13:54:59:816267,0,5,8,-2,-22,0,4,8
13:54:59:829793,1,2,16,-7,2,-1,22,4
13:54:59:838047,1,2,16,-7,2,-1,22,4
13:54:59:838793,4,1,-114,-4,2,-8,-13,1
13:54:59:844795,4,-1,-17,26,13,17,15,9
13:54:59:852411,4,-1,-17,26,13,17,15,9
13:54:59:859797,5,12,53,3,-12,-2,-17,-8
13:54:59:867276,-2,12,-6,8,-8,-9,-29,-13
13:54:59:875548,-2,12,-6,8,-8,-9,-29,-13
13:54:59:876324,-4,-1,-13,-5,-11,3,0,6
13:54:59:889935,-5,-4,-71,16,-8,-7,4,-7
13:54:59:906207,-5,-4,-71,16,-8,-7,4,-7
13:54:59:906957,-6,-13,4,0,6,-1,11,-5
13:54:59:907752,-7,-7,0,-33,-17,-8,2,-4
13:54:59:912343,-7,-7,0,-33,-17,-8,2,-4
13:54:59:919826,-5,-39,12,15,-3,5,-5,-7
13:54:59:927317,1,-3,5,27,14,22,2,4
13:54:59:935595,1,-3,5,27,14,22,2,4
13:54:59:936294,4,19,48,-10,-6,-5,13,15
13:54:59:949840,-8,-12,9,-25,-8,-14,-16,-7
13:54:59:958077,-8,-12,9,-25,-8,-14,-16,-7
13:54:59:958809,6,4,-2,-1,23,-1,8,-4
13:54:59:964756,-3,-2,-7,0,8,-8,-2,-6
13:54:59:972457,-3,-2,-7,0,8,-8,-2,-6
13:54:59:979775,24,24,26,15,12,11,2,9
13:54:59:987277,-13,-15,11,0,-7,-2,-10,-10
13:54:59:995536,-13,-15,11,0,-7,-2,-10,-10
13:54:59:996317,-1,2,-3,9,26,12,13,-3
13:55:00:9805,4,-1,46,-7,6,4,3,3
13:55:00:18138,4,-1,46,-7,6,4,3,3
13:55:00:18837,4,20,-32,4,11,-1,2,8
13:55:00:24817,-11,-15,18,-27,1,4,-8,-8
13:55:00:32310,-11,-15,18,-27,1,4,-8,-8
13:55:00:39866,3,3,-10,7,0,7,-7,1
13:55:00:47273,6,7,-16,-9,-3,-3,9,2
13:55:00:55562,6,7,-16,-9,-3,-3,9,2
13:55:00:56304,-20,-3,-31,11,-12,-9,-31,0
13:55:00:69797,4,1,20,-4,-16,-18,-17,-6
13:55:00:77996,4,1,20,-4,-16,-18,-17,-6
13:55:00:78794,16,10,34,-1,-9,-11,2,4
13:55:00:84859,1,9,-7,9,7,10,13,5
13:55:00:92355,1,9,-7,9,7,10,13,5
13:55:00:99791,-5,-11,-15,-75,-20,-15,-2,-12
13:55:00:107361,8,3,3,28,11,3,0,2
13:55:00:115485,8,3,3,28,11,3,0,2
13:55:00:116229,1,-12,24,6,-7,13,8,4
13:55:00:129793,-8,-14,-20,-13,-16,6,16,3
13:55:00:138076,-8,-14,-20,-13,-16,6,16,3
13:55:00:138804,-3,-1,-1,0,-10,-24,15,-6
13:55:00:144810,10,5,-33,-9,-6,-13,-6,5
13:55:00:152418,10,5,-33,-9,-6,-13,-6,5
13:55:00:159814,-4,-19,26,6,17,16,11,-12
13:55:00:167331,-6,-11,-19,-16,-1,-5,1,-4
13:55:00:174905,-6,-11,-19,-16,-1,-5,1,-4
13:55:00:182262,-16,-27,-1,9,-6,-8,-10,3
13:55:00:189812,-4,-4,25,-6,13,10,10,9
13:55:00:197991,-4,-4,25,-6,13,10,10,9
13:55:00:198795,2,-3,-15,7,21,5,-10,-4
13:55:00:204848,-3,6,-23,-24,-10,-2,-1,0
13:55:00:212390,-3,6,-23,-24,-10,-2,-1,0
13:55:00:219805,0,9,7,-7,7,-1,0,0
13:55:00:227306,2,10,-8,-2,-9,-6,-10,0
13:55:00:235564,2,10,-8,-2,-9,-6,-10,0
13:55:00:236276,-8,-7,-60,-3,2,3,-2,-21
13:55:00:249771,5,8,1,16,3,2,-6,-6
13:55:00:258053,5,8,1,16,3,2,-6,-6
13:55:00:258800,3,2,6,10,-14,-6,-11,8
13:55:00:264776,0,-7,38,23,23,-2,-16,3
13:55:00:272485,0,-7,38,23,23,-2,-16,3
13:55:00:279790,-5,-5,32,10,5,1,10,-11
13:55:00:287311,-10,-1,45,-6,-14,3,-3,4
13:55:00:295506,-10,-1,45,-6,-14,3,-3,4
13:55:00:296279,4,9,10,-3,-8,-3,-15,-9
13:55:00:309814,-4,3,9,6,-5,-4,3,-2
13:55:00:318104,-4,3,9,6,-5,-4,3,-2
13:55:00:318786,-1,-2,16,-31,-17,0,6,5
13:55:00:324872,12,-2,-24,-7,1,4,14,-3
13:55:00:332308,12,-2,-24,-7,1,4,14,-3
13:55:00:339868,-5,2,64,13,-12,-18,3,3
13:55:00:347288,-6,16,46,12,2,-5,0,1
13:55:00:355594,-6,16,46,12,2,-5,0,1
13:55:00:356273,1,-3,-38,-13,-4,3,-10,1
13:55:00:369861,2,-5,-25,7,-2,-2,0,-6
13:55:00:377998,2,-5,-25,7,-2,-2,0,-6
13:55:00:378749,2,5,9,-1,12,11,5,7
13:55:00:393022,-11,-13,5,-2,-2,-1,3,-6
13:55:00:393824,-11,-13,5,-2,-2,-1,3,-6
13:55:00:399827,-3,-3,-64,-1,-10,-8,4,0
13:55:00:407403,0,-4,28,-1,-4,-6,-12,-8
13:55:00:414851,0,-4,28,-1,-4,-6,-12,-8
13:55:00:422366,1,1,-12,-1,-8,-3,0,-1
13:55:00:429759,-8,-12,-40,-12,-2,-7,-4,-17
13:55:00:438049,-8,-12,-40,-12,-2,-7,-4,-17
13:55:00:438871,-5,-18,8,2,-17,10,3,5
13:55:00:452953,5,13,3,9,-6,6,0,4
13:55:00:453753,5,13,3,9,-6,6,0,4
13:55:00:459855,-3,10,40,3,-1,-3,-8,-3
13:55:00:467325,-3,-6,-22,3,8,5,-8,-4
13:55:00:474828,-3,-6,-22,3,8,5,-8,-4
13:55:00:482251,3,11,-29,9,13,4,3,5
13:55:00:489839,6,7,29,-3,6,-3,-4,6
13:55:00:497978,6,7,29,-3,6,-3,-4,6
13:55:00:498763,11,3,53,14,10,3,12,9
13:55:00:512959,-12,3,3,-9,-4,-4,3,-5
13:55:00:513763,-12,3,3,-9,-4,-4,3,-5
13:55:00:519805,-8,-16,12,3,5,-15,-24,-1
13:55:00:527297,12,-12,45,25,6,9,-22,7
13:55:00:535017,12,-12,45,25,6,9,-22,7
13:55:00:542287,-5,-15,-10,11,-5,-2,5,-5
13:55:00:549805,-10,-13,28,6,-8,-3,1,-2
13:55:00:558099,-10,-13,28,6,-8,-3,1,-2
13:55:00:558782,2,7,14,8,22,2,0,-4
13:55:00:573022,-1,0,-3,-20,1,0,9,-2
13:55:00:573813,-1,0,-3,-20,1,0,9,-2
13:55:00:579771,6,1,-26,-14,-10,-5,25,16
13:55:00:587308,-14,-9,-51,-9,7,-1,-4,-4
13:55:00:594912,-14,-9,-51,-9,7,-1,-4,-4
13:55:00:602399,-3,-3,-22,-2,-6,-5,-20,-9
13:55:00:609790,-3,-5,-86,2,-10,-8,17,3
13:55:00:618169,-3,-5,-86,2,-10,-8,17,3
13:55:00:618788,-18,4,-26,-4,4,-1,8,-7
13:55:00:633032,9,6,40,-9,2,10,0,8
13:55:00:633833,9,6,40,-9,2,10,0,8
13:55:00:639852,-2,6,-6,-6,-4,-8,-9,-9
13:55:00:647269,-9,-26,-13,-18,-13,-6,-5,-29
13:55:00:654982,-9,-26,-13,-18,-13,-6,-5,-29
13:55:00:662325,6,-6,-39,-31,-19,-2,1,4
13:55:00:669864,9,25,64,26,5,3,15,17
13:55:00:677999,9,25,64,26,5,3,15,17
13:55:00:678773,-5,1,-29,5,-4,-16,-10,-10
13:55:00:692944,7,3,-43,6,3,3,14,6
13:55:00:693749,7,3,-43,6,3,3,14,6
13:55:00:699817,2,-5,-46,-7,9,4,-10,-6
13:55:00:707399,-1,-1,7,-17,-1,-6,-14,-3
13:55:00:714807,-1,-1,7,-17,-1,-6,-14,-3
13:55:00:722351,0,-2,32,4,8,6,-8,-5
13:55:00:729819,-7,5,-53,-32,-12,-3,-13,-11
13:55:00:738055,-7,5,-53,-32,-12,-3,-13,-11
13:55:00:738784,-6,6,-12,1,0,1,11,-5
13:55:00:752947,-18,-12,33,-8,0,-5,11,8
13:55:00:753757,-18,-12,33,-8,0,-5,11,8
13:55:00:759750,-11,24,23,4,2,0,2,-4
13:55:00:767331,7,-2,20,-3,1,-8,-11,7
13:55:00:774831,7,-2,20,-3,1,-8,-11,7
13:55:00:782262,6,3,6,-2,0,9,13,17
13:55:00:789835,12,2,9,28,13,2,-17,-1
13:55:00:797976,12,2,9,28,13,2,-17,-1
13:55:00:798762,12,-2,-30,-10,5,-6,45,6
13:55:00:813008,21,20,64,30,3,8,18,6
13:55:00:813764,21,20,64,30,3,8,18,6
13:55:00:819881,-7,-15,8,-5,-10,-2,-20,-5
13:55:00:827299,1,-13,-30,-14,-5,-10,-6,-8
13:55:00:835027,1,-13,-30,-14,-5,-10,-6,-8
13:55:00:842265,6,19,99,7,-8,0,-17,2
13:55:00:849759,2,9,-15,-2,-8,-16,15,1
13:55:00:858093,2,9,-15,-2,-8,-16,15,1
13:55:00:858808,3,-10,78,-12,1,7,-3,7
13:55:00:872779,-2,-2,-38,4,1,3,0,-2
13:55:00:880488,-2,-2,-38,4,1,3,0,-2
13:55:00:881252,2,-8,15,14,3,-6,2,-7
13:55:00:887298,-23,-20,-71,-21,-7,-4,-3,-4
13:55:00:894882,-23,-20,-71,-21,-7,-4,-3,-4
13:55:00:902400,-1,5,-5,2,0,6,-3,-4
13:55:00:909784,1,7,2,-7,2,18,9,3
13:55:00:918101,1,7,2,-7,2,18,9,3
13:55:00:918804,-13,-20,-50,-10,6,-3,-10,-9
13:55:00:933052,-2,6,44,29,-2,-5,-5,-1
13:55:00:933809,-2,6,44,29,-2,-5,-5,-1
13:55:00:939892,7,13,26,-10,-11,-2,5,10
13:55:00:947303,-2,4,22,14,6,1,-13,-7
13:55:00:954948,-2,4,22,14,6,1,-13,-7
13:55:00:962325,0,-5,44,24,4,-8,5,-5
13:55:00:969884,-8,11,-25,-11,-8,-3,-52,-40
13:55:00:978023,-8,11,-25,-11,-8,-3,-52,-40
13:55:00:978791,4,13,22,1,4,4,-4,0
13:55:00:992993,1,-17,-21,-17,-9,-6,9,13
13:55:00:993813,1,-17,-21,-17,-9,-6,9,13
13:55:00:999817,-13,-21,-31,-14,0,-3,-13,-10
13:55:01:7423,-10,-13,-11,13,18,-4,8,-3
13:55:01:14822,-10,-13,-11,13,18,-4,8,-3
13:55:01:22412,8,6,20,25,8,8,3,5
13:55:01:29779,-2,-5,41,14,-6,-2,1,9
13:55:01:38088,-2,-5,41,14,-6,-2,1,9
13:55:01:38888,-6,4,-14,2,-3,-12,16,9
13:55:01:52978,13,1,1,3,12,14,8,3
13:55:01:53768,13,1,1,3,12,14,8,3
13:55:01:59787,-6,-9,-24,-17,-13,-4,1,-8
13:55:01:67295,8,30,-18,3,-2,-2,17,14
13:55:01:74822,8,30,-18,3,-2,-2,17,14
13:55:01:82267,-7,-6,12,-7,-8,-12,-16,-7
13:55:01:89860,5,7,-38,-31,-8,-6,-5,1
13:55:01:97995,5,7,-38,-31,-8,-6,-5,1
13:55:01:98773,-5,-19,-5,-22,-11,-9,4,-2
13:55:01:112998,6,-2,12,13,14,5,-10,4
13:55:01:113794,6,-2,12,13,14,5,-10,4
13:55:01:119849,4,-23,-7,-1,0,-1,2,-1
13:55:01:127299,-4,5,25,-3,-10,6,11,-5
13:55:01:135045,-4,5,25,-3,-10,6,11,-5
13:55:01:142314,-12,1,-40,4,5,1,-11,0
13:55:01:149804,15,0,-11,8,2,-6,12,5
13:55:01:158119,15,0,-11,8,2,-6,12,5
13:55:01:158813,4,9,11,13,6,-1,3,1
13:55:01:173121,-11,-8,-11,-31,-3,-12,-12,-7
13:55:01:173800,-11,-8,-11,-31,-3,-12,-12,-7
13:55:01:179754,-3,9,-52,-4,-6,6,-5,2
13:55:01:187299,-6,-29,-10,19,1,8,5,3
13:55:01:194888,-6,-29,-10,19,1,8,5,3
13:55:01:202354,1,1,-71,-17,-5,2,-2,2
13:55:01:209828,-12,5,18,-7,-4,-15,3,3
13:55:01:218071,-12,5,18,-7,-4,-15,3,3
13:55:01:218759,-1,3,6,-24,-12,-16,-2,0
13:55:01:233019,-4,2,1,1,-14,9,19,-1
13:55:01:233828,-4,2,1,1,-14,9,19,-1
13:55:01:239889,6,-5,8,6,-11,0,-7,-1
13:55:01:247271,-3,-4,-34,-8,-13,-18,-19,-13
13:55:01:254926,-3,-4,-34,-8,-13,-18,-19,-13
13:55:01:262310,5,6,38,7,2,3,2,-11
13:55:01:269812,-6,-8,2,0,7,2,-18,-3
13:55:01:278006,-6,-8,2,0,7,2,-18,-3
13:55:01:278779,7,15,48,-16,7,7,-1,3
13:55:01:292968,3,15,-18,10,6,-1,-1,2
13:55:01:293753,3,15,-18,10,6,-1,-1,2
13:55:01:299839,3,-2,8,12,3,6,7,9
13:55:01:307454,-4,-12,19,-17,-2,-2,0,0
13:55:01:314906,-4,-12,19,-17,-2,-2,0,0
13:55:01:322309,-7,-13,-68,-6,5,-9,-7,-6
13:55:01:329717,3,-2,11,9,-8,-4,1,-6
13:55:01:337359,3,-2,11,9,-8,-4,1,-6
13:55:01:344805,3,-7,-11,24,4,-3,-8,3
13:55:01:352958,-5,-16,14,2,-1,6,-6,7
13:55:01:353754,-5,-16,14,2,-1,6,-6,7
13:55:01:359801,3,24,-54,-13,3,1,-6,4
13:55:01:375514,9,12,7,10,11,4,7,6
13:55:01:376314,9,12,7,10,11,4,7,6
13:55:01:382274,-5,-5,57,4,9,7,0,-16
13:55:01:389807,-4,2,32,-17,2,-4,-1,-5
13:55:01:397447,-4,2,32,-17,2,-4,-1,-5
13:55:01:404831,8,7,7,30,3,0,1,6
13:55:01:413018,1,-12,8,8,-4,-9,-20,-3
13:55:01:413825,1,-12,8,8,-4,-9,-20,-3
13:55:01:419798,-2,-8,-15,-5,-4,-3,-3,-11
13:55:01:435556,-3,2,50,16,3,4,-3,-9
13:55:01:436334,-3,2,50,16,3,4,-3,-9
13:55:01:442278,-5,3,-6,-2,-8,-4,3,3
13:55:01:449758,2,5,-40,-13,-5,2,4,2
13:55:01:457477,2,5,-40,-13,-5,2,4,2
13:55:01:464763,0,0,24,6,3,15,6,1
13:55:01:473035,-1,1,-9,-9,8,10,10,-3
13:55:01:473758,-1,1,-9,-9,8,10,10,-3
13:55:01:479839,-3,-1,48,-4,-8,-3,-10,-1
13:55:01:495509,-10,0,-22,-14,-3,-10,-20,-32
13:55:01:496352,-10,0,-22,-14,-3,-10,-20,-32
13:55:01:502406,-6,4,3,13,0,3,9,9
13:55:01:509820,-11,-10,-22,-15,-13,4,7,8
13:55:01:517359,-11,-10,-22,-15,-13,4,7,8
13:55:01:524895,-2,3,-1,-10,-13,-10,1,-6
13:55:01:532958,4,3,-28,5,-9,-3,0,9
13:55:01:533767,4,3,-28,5,-9,-3,0,9
13:55:01:539827,4,-14,1,-16,-3,1,8,10
13:55:01:555584,8,17,72,0,-5,-4,18,5
13:55:01:556298,8,17,72,0,-5,-4,18,5
13:55:01:562333,2,4,3,-1,3,-8,-3,-20
13:55:01:569839,5,4,69,-8,1,-8,6,3
13:55:01:577350,5,4,69,-8,1,-8,6,3
13:55:01:584873,7,-7,20,7,24,11,-2,5
13:55:01:593005,1,-1,-55,-33,-7,4,-12,-7
13:55:01:593784,1,-1,-55,-33,-7,4,-12,-7
13:55:01:599786,-10,-17,-76,-24,-19,-14,-17,-13
13:55:01:615438,1,1,-5,8,-8,-3,0,5
13:55:01:616266,1,1,-5,8,-8,-3,0,5
13:55:01:622369,0,8,57,15,6,8,8,-2
13:55:01:629749,-2,3,-16,18,3,9,4,16
13:55:01:637378,-2,3,-16,18,3,9,4,16
13:55:01:644812,-4,-14,-2,2,4,-4,-8,-13
13:55:01:653073,-5,7,91,18,23,11,-20,-9
13:55:01:653833,-5,7,91,18,23,11,-20,-9
13:55:01:659825,-4,-5,-7,8,6,0,-4,1
13:55:01:675502,10,6,0,19,-2,-3,4,4
13:55:01:676336,10,6,0,19,-2,-3,4,4
13:55:01:682278,5,9,14,-4,-10,-4,2,12
13:55:01:689939,-5,-19,-26,-4,-9,-16,2,4
13:55:01:697344,-5,-19,-26,-4,-9,-16,2,4
13:55:01:704901,-1,-3,-2,9,-12,3,-3,-1
13:55:01:713056,-10,0,-2,8,-5,7,-3,-14
13:55:01:713835,-10,0,-2,8,-5,7,-3,-14
13:55:01:719850,3,7,6,2,26,0,2,9
13:55:01:735593,-11,-8,-46,-39,1,-4,-13,-27
13:55:01:736284,-11,-8,-46,-39,1,-4,-13,-27
13:55:01:742274,-10,3,28,-22,-12,-7,12,3
13:55:01:749771,-4,-21,-58,3,4,-3,-8,7
13:55:01:757443,-4,-21,-58,3,4,-3,-8,7
13:55:01:764750,-9,-3,-16,-4,2,0,24,-4
13:55:01:773010,14,9,42,-5,-6,-2,15,16
13:55:01:773751,14,9,42,-5,-6,-2,15,16
13:55:01:779792,-7,-4,28,19,-3,-1,-4,-1
13:55:01:795568,2,11,-26,4,-4,-4,3,6
13:55:01:796324,2,11,-26,4,-4,-4,3,6
13:55:01:802381,7,-1,-35,-10,-18,-2,-8,-3
13:55:01:809796,5,2,1,3,1,1,4,5
13:55:01:817350,5,2,1,3,1,1,4,5
13:55:01:824923,-5,0,-83,-4,4,-3,-23,-5
13:55:01:832942,-1,-6,20,-20,-17,-7,-5,-5
13:55:01:833735,-1,-6,20,-20,-17,-7,-5,-5
13:55:01:839873,1,6,8,-6,2,-1,4,6
13:55:01:855516,-12,-18,-41,17,5,-3,-14,-18
13:55:01:856238,-12,-18,-41,17,5,-3,-14,-18
13:55:01:862306,5,-4,57,11,-6,4,-9,1
13:55:01:869899,-1,-8,-11,7,-3,-1,10,4
13:55:01:877358,-1,-8,-11,7,-3,-1,10,4
13:55:01:884838,11,-4,-57,-19,4,-4,-21,4
13:55:01:892973,-6,-1,25,-1,14,5,4,-4
13:55:01:893811,-6,-1,25,-1,14,5,4,-4
13:55:01:899771,-8,-22,-56,-18,0,-2,-4,0
13:55:01:915446,-3,6,17,-24,-14,-10,-8,0
13:55:01:916274,-3,6,17,-24,-14,-10,-8,0
13:55:01:922344,-2,2,50,-1,5,-1,6,-1
13:55:01:929770,0,-3,-15,-38,-6,1,6,1
13:55:01:937377,0,-3,-15,-38,-6,1,6,1
13:55:01:944822,7,2,3,-2,-9,-7,5,-4
13:55:01:953046,-3,6,-13,1,-2,-2,2,-5
13:55:01:953825,-3,6,-13,1,-2,-2,2,-5
13:55:01:959813,-1,0,15,6,2,1,1,-4
13:55:01:975486,4,-8,-25,-5,8,0,-5,4
13:55:01:976308,4,-8,-25,-5,8,0,-5,4
13:55:01:982287,-1,1,22,13,-5,-1,16,11
13:55:01:989860,-8,-4,37,24,10,8,4,-22
13:55:01:997325,-8,-4,37,24,10,8,4,-22
13:55:02:4899,-13,-24,-89,-10,-4,-5,-2,-11
13:55:02:13029,-12,-1,17,20,-5,-9,-13,-4
13:55:02:13809,-12,-1,17,20,-5,-9,-13,-4
13:55:02:19855,10,6,30,-2,-4,-1,-3,9
13:55:02:35562,10,11,-82,3,-16,-5,-5,0
13:55:02:36284,10,11,-82,3,-16,-5,-5,0
13:55:02:42343,-14,-16,25,9,6,-3,7,-7
13:55:02:49808,3,10,44,5,-5,0,18,-3
13:55:02:57457,3,10,44,5,-5,0,18,-3
13:55:02:64786,5,4,-16,-29,-10,1,10,7
13:55:02:73042,5,4,-16,-29,-10,1,10,7
13:55:02:73771,1,0,-21,9,3,-3,-4,3
13:55:02:79782,1,-4,14,11,10,9,27,4
13:55:02:95553,1,-4,14,11,10,9,27,4
13:55:02:96351,9,17,32,1,-6,-5,-14,1
13:55:02:102388,-8,2,45,21,14,4,-21,-3
13:55:02:118096,-8,2,45,21,14,4,-21,-3
13:55:02:118825,-5,4,0,12,7,1,8,2
13:55:02:124874,8,9,-11,-2,-12,-5,-6,4
13:55:02:132960,8,9,-11,-2,-12,-5,-6,4
13:55:02:133760,-3,-10,21,-6,-3,10,0,10
13:55:02:139844,-2,-15,17,0,-2,-8,4,-5
13:55:02:155601,-2,-15,17,0,-2,-8,4,-5
13:55:02:156338,4,-3,41,-20,-11,-10,32,2
13:55:02:162304,3,12,29,24,16,3,6,1
13:55:02:178002,3,12,29,24,16,3,6,1
13:55:02:178814,-14,-22,-40,16,3,-4,-18,-3
13:55:02:184908,-1,-1,7,-31,-16,-14,-30,-13
13:55:02:193015,-1,-1,7,-31,-16,-14,-30,-13
13:55:02:193786,1,-1,5,4,16,21,-3,7
13:55:02:199792,3,2,-25,8,1,2,6,4
13:55:02:215533,3,2,-25,8,1,2,6,4
13:55:02:216307,2,-7,-49,-29,6,0,-4,4
13:55:02:222400,1,7,51,-5,8,1,3,-1
13:55:02:238071,1,7,51,-5,8,1,3,-1
13:55:02:238779,-1,6,30,-22,-3,-3,-3,-10
13:55:02:244798,-21,1,-24,-22,-3,-4,25,-8
13:55:02:253055,-21,1,-24,-22,-3,-4,25,-8
13:55:02:253806,7,23,14,16,-2,3,-2,5
13:55:02:259772,1,-13,-15,21,-8,-6,-21,-6
13:55:02:275539,1,-13,-15,21,-8,-6,-21,-6
13:55:02:276289,-7,-12,-27,6,4,-9,-2,-6
13:55:02:282267,3,5,-84,1,1,8,-12,-3
13:55:02:297996,3,5,-84,1,1,8,-12,-3
13:55:02:298781,6,-10,-17,9,-4,-8,-11,7
13:55:02:304848,4,9,55,3,0,2,8,3
13:55:02:313053,4,9,55,3,0,2,8,3
13:55:02:313779,-4,-8,-20,-21,2,-6,-2,-1
13:55:02:327308,-1,1,-16,-43,-15,-1,-14,4
13:55:02:335577,-1,1,-16,-43,-15,-1,-14,4
13:55:02:336281,5,1,33,16,-6,4,-5,14
13:55:02:342290,-6,-2,37,9,0,8,13,4
13:55:02:358066,-6,-2,37,9,0,8,13,4
13:55:02:358788,1,-17,-98,5,-1,-10,-5,3
13:55:02:364730,2,4,-4,4,-4,2,5,2
13:55:02:373103,2,4,-4,4,-4,2,5,2
13:55:02:373818,-2,-1,43,-2,-1,-9,6,-8
13:55:02:387375,0,5,13,-42,-1,-5,-23,-6
13:55:02:395523,0,5,13,-42,-1,-5,-23,-6
13:55:02:396283,0,5,20,-2,5,5,-7,-5
13:55:02:402365,-12,3,11,18,-1,-13,6,-8
13:55:02:418103,-12,3,11,18,-1,-13,6,-8
13:55:02:418775,-3,-15,5,-29,3,10,10,-4
13:55:02:424809,3,0,49,18,-4,2,12,1
13:55:02:432971,3,0,49,18,-4,2,12,1
13:55:02:433777,0,16,-4,-28,-7,-8,-16,-5
13:55:02:447311,4,-2,-12,-5,-7,7,-12,-2
13:55:02:455573,4,-2,-12,-5,-7,7,-12,-2
13:55:02:456289,-4,-7,7,-10,-2,2,-2,-4
13:55:02:462257,-2,-6,-3,4,-5,-10,-12,-12
13:55:02:478003,-2,-6,-3,4,-5,-10,-12,-12
13:55:02:478786,29,20,72,22,1,-1,18,14
13:55:02:484948,-5,4,27,13,3,-2,3,-4
13:55:02:493025,-5,4,27,13,3,-2,3,-4
13:55:02:493760,-10,-15,-16,-22,-11,-5,-6,-10
13:55:02:516159,8,1,-9,-10,-3,-3,-2,13
13:55:02:516944,8,1,-9,-10,-3,-3,-2,13
13:55:02:517750,-8,-8,-21,8,4,4,0,0
13:55:02:522351,-5,-10,-9,-6,9,2,-6,0
13:55:02:538013,-5,-10,-9,-6,9,2,-6,0
13:55:02:538763,-2,2,20,38,5,0,7,-1
13:55:02:544756,-2,2,4,15,16,8,11,-4
13:55:02:553076,-2,2,4,15,16,8,11,-4
13:55:02:553830,-5,20,-23,4,3,-2,-5,-9
13:55:02:567266,1,-3,-32,6,0,-4,-16,-2
13:55:02:575506,1,-3,-32,6,0,-4,-16,-2
13:55:02:576282,-21,-33,-69,10,9,-2,1,-8
13:55:02:582256,2,0,10,-10,-2,-1,-7,10
13:55:02:597982,2,0,10,-10,-2,-1,-7,10
13:55:02:598783,7,-2,13,-26,0,2,-1,6
13:55:02:604811,-4,-12,-4,7,-11,5,-8,-16
13:55:02:612965,-4,-12,-4,7,-11,5,-8,-16
13:55:02:613843,0,21,57,3,11,11,-12,5
13:55:02:627275,0,6,-18,5,-5,0,-11,5
13:55:02:635568,0,6,-18,5,-5,0,-11,5
13:55:02:636281,1,-5,-4,3,-2,5,7,-5
13:55:02:642271,-7,0,9,-3,0,-6,11,-10
13:55:02:658075,-7,0,9,-3,0,-6,11,-10
13:55:02:658800,-1,-1,-61,19,7,-15,7,8
13:55:02:664789,7,-5,2,-30,-10,-6,-12,5
13:55:02:673059,7,-5,2,-30,-10,-6,-12,5
13:55:02:673824,0,-5,18,17,8,5,5,-7
13:55:02:687303,-1,1,-12,-4,-2,7,7,2
13:55:02:695533,-1,1,-12,-4,-2,7,7,2
13:55:02:696302,-5,0,16,-6,-17,-9,0,-13
13:55:02:702331,-12,2,51,19,-1,-9,0,-7
13:55:02:718099,-12,2,51,19,-1,-9,0,-7
13:55:02:718771,0,-6,-24,-28,-10,9,4,5
13:55:02:724846,5,-7,-13,-11,2,3,-18,-1
13:55:02:732993,5,-7,-13,-11,2,3,-18,-1
13:55:02:733771,2,14,-1,-4,-3,2,-4,3
13:55:02:747332,1,-1,-19,-2,-7,-11,-6,-5
13:55:02:755563,1,-1,-19,-2,-7,-11,-6,-5
13:55:02:756276,6,2,5,-8,-13,-8,35,9
13:55:02:762263,4,-1,37,14,21,4,-4,-7
13:55:02:777996,4,-1,37,14,21,4,-4,-7
13:55:02:778778,-20,-12,59,-22,-8,-15,-18,-14
13:55:02:784879,-7,-4,-35,0,-4,-1,6,-2
13:55:02:793016,-7,-4,-35,0,-4,-1,6,-2
13:55:02:793790,5,9,31,16,14,12,8,6
13:55:02:807429,2,6,-24,-31,-3,0,10,8
13:55:02:815465,2,6,-24,-31,-3,0,10,8
13:55:02:816257,-5,-19,-13,1,-13,-16,-27,1
13:55:02:822431,11,7,8,10,-3,-3,-6,6
13:55:02:838074,11,7,8,10,-3,-3,-6,6
13:55:02:838757,-4,9,-19,-47,4,3,-3,-6
13:55:02:844835,-1,-19,-62,-5,7,2,29,0
13:55:02:853083,-1,-19,-62,-5,7,2,29,0
13:55:02:853792,3,4,-6,8,-8,-2,-9,1
13:55:02:867328,-2,10,17,-2,-7,-7,6,-3
13:55:02:875527,-2,10,17,-2,-7,-7,6,-3
13:55:02:876292,-11,-5,-3,23,-2,-1,-8,-12
13:55:02:882261,-1,-5,70,-17,-1,2,4,-8
13:55:02:898012,-1,-5,70,-17,-1,2,4,-8
13:55:02:898771,7,-10,-13,-26,1,1,-6,11
13:55:02:904848,-3,9,-5,21,1,-1,-8,1
13:55:02:912936,-3,9,-5,21,1,-1,-8,1
13:55:02:913741,2,0,17,15,-1,4,23,3
13:55:02:927358,-3,-12,-38,-5,5,2,25,4
13:55:02:935602,-3,-12,-38,-5,5,2,25,4
13:55:02:936322,-3,-5,22,32,-8,-2,-1,1
13:55:02:942331,1,-7,-42,-19,-7,0,-25,-4
13:55:02:958084,1,-7,-42,-19,-7,0,-25,-4
13:55:02:958835,6,5,4,-2,-6,-8,-11,-12
13:55:02:964779,-5,-7,-14,24,-4,-5,-4,-1
13:55:02:973133,-5,-7,-14,24,-4,-5,-4,-1
13:55:02:973874,3,-2,-23,2,-6,-4,-4,-2
13:55:02:987313,-3,21,6,-1,-18,-3,6,-11
13:55:02:995543,-3,21,6,-1,-18,-3,6,-11
13:55:02:996323,-2,-4,58,6,6,-3,1,-7
13:55:03:2368,-8,-5,68,6,-1,2,-3,8
13:55:03:18181,-8,-5,68,6,-1,2,-3,8
13:55:03:18823,-7,-11,10,-1,-8,-8,-12,2
13:55:03:24847,0,-1,5,-25,0,-5,-5,-5
13:55:03:33028,0,-1,5,-25,0,-5,-5,-5
13:55:03:33834,-2,-3,-10,5,8,3,-6,4
13:55:03:47293,2,-5,-29,7,-2,-11,-13,-3
13:55:03:55547,2,-5,-29,7,-2,-11,-13,-3
13:55:03:56329,-6,1,-43,-16,3,10,2,-5
13:55:03:62312,-1,-5,-3,-7,2,-1,1,9
13:55:03:78032,-1,-5,-3,-7,2,-1,1,9
13:55:03:78849,11,4,-5,-21,-4,-3,-16,-10
13:55:03:84974,-5,-15,-34,17,6,0,-6,-10
13:55:03:93042,-5,-15,-34,17,6,0,-6,-10
13:55:03:93843,-7,-1,7,-15,-3,0,6,-5
13:55:03:107358,4,-14,-11,8,-3,5,11,8
13:55:03:115481,4,-14,-11,8,-3,5,11,8
13:55:03:116278,-7,-2,24,24,11,3,-7,-10
13:55:03:122340,-9,1,63,0,-8,-3,1,-1
13:55:03:138098,-9,1,63,0,-8,-3,1,-1
13:55:03:138833,0,1,-1,22,2,-1,-3,-1
13:55:03:144802,1,-2,16,-1,-5,-1,-6,-11
13:55:03:153009,1,-2,16,-1,-5,-1,-6,-11
13:55:03:153789,-13,-2,-26,-29,-12,-9,24,-6
13:55:03:167392,-1,11,2,-7,5,-5,2,8
13:55:03:175576,-1,11,2,-7,5,-5,2,8
13:55:03:176303,0,9,32,0,6,0,-11,6
13:55:03:182236,3,7,-30,16,3,-2,5,6
13:55:03:197954,3,7,-30,16,3,-2,5,6
13:55:03:198752,3,0,-6,0,2,2,9,4
13:55:03:204808,1,-6,-18,-21,6,-2,-33,-3
13:55:03:213020,1,-6,-18,-21,6,-2,-33,-3
13:55:03:213836,9,7,-5,9,-5,2,6,7
13:55:03:227347,6,-11,-17,-18,-12,-3,0,0
13:55:03:235537,6,-11,-17,-18,-12,-3,0,0
13:55:03:236248,5,-6,-29,21,0,3,-10,-8
13:55:03:249778,0,4,24,5,0,0,-1,-1
13:55:03:258112,0,4,24,5,0,0,-1,-1
13:55:03:258837,-1,-15,-17,5,-1,-4,-1,-5
13:55:03:264771,5,12,30,-5,-5,0,5,0
13:55:03:272424,5,12,30,-5,-5,0,5,0
13:55:03:279764,-2,13,-2,-28,-8,-4,-2,10
13:55:03:287335,-7,-4,29,10,6,-4,10,0
13:55:03:295501,-7,-4,29,10,6,-4,10,0
13:55:03:296338,3,-22,-90,4,-10,-6,8,15
13:55:03:309875,-6,10,2,12,8,4,6,-8
13:55:03:318188,-6,10,2,12,8,4,6,-8
13:55:03:318781,-1,9,-18,-11,5,6,-18,3
13:55:03:324841,-10,-12,-30,0,10,3,7,-1
13:55:03:332325,-10,-12,-30,0,10,3,7,-1
13:55:03:339839,-3,2,46,-6,12,10,-1,-6
13:55:03:347250,4,3,-33,6,-8,-7,-7,1
13:55:03:355585,4,3,-33,6,-8,-7,-7,1
13:55:03:356295,2,9,42,-2,-18,-7,-3,1
13:55:03:369800,1,0,-9,-8,-1,2,2,-1
13:55:03:378016,1,0,-9,-8,-1,2,2,-1
13:55:03:378771,-1,-11,19,12,-3,-1,-17,-7
13:55:03:384843,3,3,9,5,0,-3,-3,-9
13:55:03:392371,3,3,9,5,0,-3,-3,-9
13:55:03:399786,-9,-33,-80,-10,-5,-6,-3,-6
13:55:03:407324,-1,-16,5,-5,-6,1,4,0
13:55:03:415526,-1,-16,5,-5,-6,1,4,0
13:55:03:416278,5,17,48,-19,15,7,9,2
13:55:03:429766,3,-1,-22,2,3,-1,4,3
13:55:03:438042,3,-1,-22,2,3,-1,4,3
13:55:03:438783,-10,4,22,11,-9,-14,-20,-19
13:55:03:444761,-5,-4,19,-10,-2,-9,-12,-8
13:55:03:452398,-5,-4,19,-10,-2,-9,-12,-8
13:55:03:459816,8,11,-2,4,-2,1,1,11
13:55:03:467319,-4,-2,64,8,4,8,12,5
13:55:03:475507,-4,-2,64,8,4,8,12,5
13:55:03:476257,1,6,74,15,-2,-1,8,-8
13:55:03:489835,7,4,-19,3,4,1,-1,-2
13:55:03:497987,7,4,-19,3,4,1,-1,-2
13:55:03:498801,-1,-3,0,-6,6,-4,0,5
13:55:03:504861,-6,-2,3,-1,17,2,-5,-1
13:55:03:512351,-6,-2,3,-1,17,2,-5,-1
13:55:03:519855,-11,-10,-45,-2,-4,-9,9,0
13:55:03:527326,2,8,-19,-4,-8,2,-4,-1
13:55:03:535567,2,8,-19,-4,-8,2,-4,-1
13:55:03:536322,-1,-8,-57,-20,3,-5,4,-3
13:55:03:550465,-5,-1,-39,-2,-3,-8,-11,-4
13:55:03:551295,-5,-1,-39,-2,-3,-8,-11,-4
13:55:03:557282,0,0,16,11,8,7,5,0
13:55:03:564730,-1,-5,-16,-10,-2,1,-35,-10
13:55:03:572398,-1,-5,-16,-10,-2,1,-35,-10
13:55:03:579751,8,1,-16,-9,-10,-6,-5,2
13:55:03:587269,5,-8,31,0,-5,1,5,5
13:55:03:595521,5,-8,31,0,-5,1,5,5
13:55:03:596283,11,25,50,5,4,7,5,8
13:55:03:610506,-4,-7,-77,-14,0,0,12,1
13:55:03:611295,-4,-7,-77,-14,0,0,12,1
13:55:03:625524,-1,-4,-5,31,6,6,12,1
13:55:03:626278,0,11,29,-2,-2,5,7,-4
13:55:03:632312,0,11,29,-2,-2,5,7,-4
13:55:03:639855,-5,-11,-2,-22,8,-5,-4,-7
13:55:03:647266,4,-1,65,6,-3,5,-7,0
13:55:03:655625,4,-1,65,6,-3,5,-7,0
13:55:03:656323,-7,-14,25,-5,-7,1,-5,-2
13:55:03:670515,-4,0,-8,-5,-3,-6,19,12
13:55:03:671313,-4,0,-8,-5,-3,-6,19,12
13:55:03:677279,-11,-12,-54,-12,-11,-6,17,-2
13:55:03:684919,-7,-13,-18,-11,1,1,-9,-5
13:55:03:692370,-7,-13,-18,-11,1,1,-9,-5
13:55:03:699773,3,0,-7,5,4,6,13,-2
13:55:03:707366,-3,-11,-13,2,-2,-1,-4,-3
13:55:03:723023,-3,-11,-13,2,-2,-1,-4,-3
13:55:03:723763,-1,10,36,24,-10,-2,-17,-7
13:55:03:730477,11,4,30,-10,-5,2,-1,7
13:55:03:731286,11,4,30,-10,-5,2,-1,7
13:55:03:737288,2,-13,-11,-20,-9,-1,-11,-2
13:55:03:744810,3,5,-1,4,-14,-12,2,-4
13:55:03:752450,3,5,-1,4,-14,-12,2,-4
13:55:03:759793,5,16,-6,-17,-17,0,0,9
13:55:03:767275,-3,5,-24,1,-3,6,6,3
13:55:03:775535,-3,5,-24,1,-3,6,6,3
13:55:03:776316,2,12,48,12,2,-6,-13,-12
13:55:03:789878,-3,9,24,13,6,2,-4,-4
13:55:03:798000,-3,9,24,13,6,2,-4,-4
13:55:03:798760,0,-11,35,-4,13,-5,-16,1
13:55:03:804803,-4,-1,36,-5,-1,-3,3,-10
13:55:03:812360,-4,-1,36,-5,-1,-3,3,-10
13:55:03:819892,-1,-7,5,-42,-12,-3,-21,-1
13:55:03:827340,-20,-7,-45,-7,7,-5,-18,-18
13:55:03:835540,-20,-7,-45,-7,7,-5,-18,-18
13:55:03:836220,-12,-7,-30,9,-6,4,21,-3
13:55:03:850571,11,-3,-1,-11,-14,-2,0,9
13:55:03:851353,11,-3,-1,-11,-14,-2,0,9
13:55:03:857400,-8,3,3,14,18,-4,-2,-15
13:55:03:864779,2,6,-20,-2,-3,-6,6,3
13:55:03:872391,2,6,-20,-2,-3,-6,6,3
13:55:03:879793,4,-11,-93,0,-2,2,1,10
13:55:03:887305,0,0,-8,11,3,-3,-7,-9
13:55:03:895487,0,0,-8,11,3,-3,-7,-9
13:55:03:896237,2,5,42,9,4,0,7,7
13:55:03:910461,17,6,-16,7,13,2,1,6
13:55:03:911286,17,6,-16,7,13,2,1,6
13:55:03:917291,-1,-24,-12,8,-1,2,2,8
13:55:03:924857,-1,-13,-57,-1,-3,-6,9,1
13:55:03:932329,-1,-13,-57,-1,-3,-6,9,1
13:55:03:939853,6,6,27,-10,5,-7,-21,-6
13:55:03:947317,-8,5,43,-9,-2,0,-3,0
13:55:03:955552,-8,5,43,-9,-2,0,-3,0
13:55:03:956300,-5,-1,19,3,-12,-2,8,1
13:55:03:970435,-3,2,17,-9,-1,3,3,-4
13:55:03:971312,-3,2,17,-9,-1,3,3,-4
13:55:03:977240,-9,-1,-1,3,0,7,-10,-4
13:55:03:984866,-14,-21,1,-12,-6,-2,-27,-1
13:55:03:992342,-14,-21,1,-12,-6,-2,-27,-1
13:55:03:999782,-2,-22,-50,-12,-4,-2,9,-7
13:55:04:7328,4,4,-55,13,-2,-4,12,7
13:55:04:15511,4,4,-55,13,-2,-4,12,7
13:55:04:16287,5,2,-97,6,16,10,4,10
13:55:04:30462,-4,-12,36,2,7,-4,-5,-5
13:55:04:31309,-4,-12,36,2,7,-4,-5,-5
13:55:04:37290,-1,9,37,2,0,0,-1,-7
13:55:04:44796,0,5,18,-32,-8,1,-3,2
13:55:04:52466,0,5,18,-32,-8,1,-3,2
13:55:04:59809,2,4,79,21,2,6,7,7
13:55:04:67260,2,7,24,14,-7,-6,-4,-9
13:55:04:75566,2,7,24,14,-7,-6,-4,-9
13:55:04:76347,7,20,22,3,-3,-6,-3,-2
13:55:04:90639,-1,-17,21,21,7,4,15,-6
13:55:04:91381,-1,-17,21,21,7,4,15,-6
13:55:04:97273,1,-11,-104,-14,-11,2,-4,-4
13:55:04:104813,-4,-2,2,-15,4,-1,-3,-1
13:55:04:112375,-4,-2,2,-15,4,-1,-3,-1
13:55:04:119823,10,23,17,-21,2,-4,3,0
13:55:04:127331,-3,10,7,6,6,8,14,2
13:55:04:135577,-3,10,7,6,6,8,14,2
13:55:04:136239,2,9,25,-3,-12,-7,11,8
13:55:04:150492,-4,11,30,3,-7,-2,-12,5
13:55:04:151296,-4,11,30,3,-7,-2,-12,5
13:55:04:157396,6,6,16,36,-2,4,1,-4
13:55:04:172782,-5,-29,-24,10,6,-2,6,3
13:55:04:180503,-5,-29,-24,10,6,-2,6,3
13:55:04:181307,-6,-18,36,7,13,7,-3,-5
13:55:04:187283,7,-1,45,8,-2,-4,-7,-5
13:55:04:194892,7,-1,45,8,-2,-4,-7,-5
13:55:04:202410,-12,-16,79,-21,4,-6,-8,-5
13:55:04:210458,3,23,17,-1,7,7,0,-2
13:55:04:211286,3,23,17,-1,7,7,0,-2
13:55:04:217316,-1,-8,0,-2,-1,-1,6,6
13:55:04:232942,-3,3,-66,20,-14,-7,-4,6
13:55:04:233758,-3,3,-66,20,-14,-7,-4,6
13:55:04:239912,3,-22,-6,-4,-4,1,2,14
13:55:04:247283,6,-2,-24,13,6,4,-3,-3
13:55:04:254928,6,-2,-24,13,6,4,-3,-3
13:55:04:262303,1,10,-11,0,-4,-8,1,5
13:55:04:270534,1,9,8,-10,-5,-4,-12,-6
13:55:04:271281,1,9,8,-10,-5,-4,-12,-6
13:55:04:277276,-6,3,-6,5,-10,-6,-8,-13
13:55:04:293015,-1,2,-5,-5,-5,-1,-21,-6
13:55:04:293792,-1,2,-5,-5,-5,-1,-21,-6
13:55:04:299799,-11,-21,39,19,6,-4,1,0
13:55:04:307362,-12,0,1,-4,-2,2,-5,11
13:55:04:314834,-12,0,1,-4,-2,2,-5,11
13:55:04:322362,-12,-5,-37,-8,21,3,-4,-5
13:55:04:330479,-4,-8,24,8,-2,-6,5,0
13:55:04:331296,-4,-8,24,8,-2,-6,5,0
13:55:04:337342,4,10,-2,-5,-16,1,12,3
13:55:04:353012,2,-21,27,-33,-5,-7,6,-2
13:55:04:353806,2,-21,27,-33,-5,-7,6,-2
13:55:04:359778,6,-10,-84,-14,-8,-9,-5,2
13:55:04:367282,1,0,-53,1,-13,-1,4,-5
13:55:04:374853,1,0,-53,1,-13,-1,4,-5
13:55:04:382265,8,-6,11,-7,0,6,10,1
13:55:04:390570,2,14,12,-10,4,7,7,7
13:55:04:391328,2,14,12,-10,4,7,7,7
13:55:04:397235,8,10,-14,30,9,9,-10,-2
13:55:04:412997,-4,-5,-90,-18,-15,-16,18,-1
13:55:04:413778,-4,-5,-90,-18,-15,-16,18,-1
13:55:04:419862,-8,16,10,-8,0,7,11,8
13:55:04:427340,-9,-8,33,17,-3,-5,-5,-13
13:55:04:434981,-9,-8,33,17,-3,-5,-5,-13
13:55:04:442336,-3,-6,-50,-5,-15,-5,-4,-1
13:55:04:450469,2,-3,19,-3,-7,-4,-14,-3
13:55:04:451337,2,-3,19,-3,-7,-4,-14,-3
13:55:04:457383,-1,-7,-44,-17,-14,-7,-7,-6
13:55:04:473024,2,-4,13,0,4,8,1,3
13:55:04:473822,2,-4,13,0,4,8,1,3
13:55:04:479765,-3,8,50,15,-4,-3,7,-2
13:55:04:487274,5,-7,-48,12,2,-4,6,2
13:55:04:494888,5,-7,-48,12,2,-4,6,2
13:55:04:502430,-7,-27,-26,-14,0,-8,-21,-16
13:55:04:510471,5,15,18,2,2,12,-16,13
13:55:04:511279,5,15,18,2,2,12,-16,13
13:55:04:517330,0,7,41,7,9,-5,-7,-12
13:55:04:532916,-1,-13,0,-19,3,4,-15,-6
13:55:04:533801,-1,-13,0,-19,3,4,-15,-6
13:55:04:539826,-1,3,43,10,5,-1,7,9
13:55:04:547291,-13,3,-57,-8,13,-6,8,-11
13:55:04:554943,-13,3,-57,-8,13,-6,8,-11
13:55:04:562318,-1,-1,12,-4,14,3,19,6
13:55:04:570470,2,12,53,26,23,3,6,5
13:55:04:571283,2,12,53,26,23,3,6,5
13:55:04:577281,1,12,-17,-25,1,-3,-8,-2
13:55:04:593017,-5,-14,10,10,-5,-3,3,-14
13:55:04:593747,-5,-14,10,10,-5,-3,3,-14
13:55:04:599794,10,4,-37,3,-13,-1,-16,-5
13:55:04:607443,0,10,42,10,-7,-8,22,6
13:55:04:614887,0,10,42,10,-7,-8,22,6
13:55:04:622330,4,9,-10,-7,-6,1,-8,1
13:55:04:630458,3,-8,4,8,-2,0,-3,4
13:55:04:631311,3,-8,4,8,-2,0,-3,4
13:55:04:637274,-15,-4,46,18,-4,2,-8,-17
13:55:04:653048,8,-24,-53,-14,-17,-7,-12,-17
13:55:04:653768,8,-24,-53,-14,-17,-7,-12,-17
13:55:04:659789,-9,-22,3,2,-1,-2,-5,2
13:55:04:667259,-6,18,11,-29,-8,2,10,0
13:55:04:674953,-6,18,11,-29,-8,2,10,0
13:55:04:682266,8,-26,-72,-32,1,4,0,3
13:55:04:690559,-1,1,-28,17,3,-3,12,5
13:55:04:691311,-1,1,-28,17,3,-3,12,5
13:55:04:697264,-10,-10,-31,-33,-9,-16,-17,-6
13:55:04:713018,-2,3,0,-6,4,-5,-5,-13
13:55:04:713779,-2,3,0,-6,4,-5,-5,-13
13:55:04:719838,11,26,22,-21,1,2,11,-2
13:55:04:727303,1,1,22,2,-1,1,-3,7
13:55:04:735014,1,1,22,2,-1,1,-3,7
13:55:04:742292,10,20,11,3,12,7,34,11
13:55:04:750511,5,3,106,-5,-6,-2,-1,16
13:55:04:751282,5,3,106,-5,-6,-2,-1,16
13:55:04:764777,1,2,23,-40,-14,-2,12,3
13:55:04:773050,-3,23,18,-6,-4,1,-7,-7
13:55:04:773839,-3,23,18,-6,-4,1,-7,-7
13:55:04:779747,-5,7,13,26,-2,1,-5,-6
13:55:04:787295,-6,-1,1,-25,-8,1,-7,2
13:55:04:794877,-6,-1,1,-25,-8,1,-7,2
13:55:04:802364,-10,-31,18,1,1,-13,0,-24
13:55:04:810505,4,20,-18,8,11,-2,-1,0
13:55:04:811285,4,20,-18,8,11,-2,-1,0
13:55:04:817317,-3,-19,-18,-26,-13,-10,-1,-2
13:55:04:832933,1,3,-78,4,-1,-2,-7,-1
13:55:04:833757,1,3,-78,4,-1,-2,-7,-1
13:55:04:839824,-4,20,42,10,-3,3,-22,10
13:55:04:847264,3,-13,-24,-18,8,5,11,-5
13:55:04:854934,3,-13,-24,-18,8,5,11,-5
13:55:04:862359,-2,-20,-4,7,8,-1,-7,-4
13:55:04:870449,9,-7,28,39,2,-8,7,1
13:55:04:871295,9,-7,28,39,2,-8,7,1
13:55:04:877264,-5,4,-31,23,19,5,-7,1
13:55:04:892970,9,-7,-5,-6,-2,3,8,1
13:55:04:893796,9,-7,-5,-6,-2,3,8,1
13:55:04:899745,-15,-14,24,-6,-3,-5,5,8
13:55:04:907430,-5,-6,10,-25,-6,-4,-20,1
13:55:04:914866,-5,-6,10,-25,-6,-4,-20,1
13:55:04:922347,-9,9,-18,3,-2,1,0,-9
13:55:04:930506,1,4,4,-3,-6,-2,-3,2
13:55:04:931308,1,4,4,-3,-6,-2,-3,2
13:55:04:937346,10,5,-5,15,5,2,-24,1
13:55:04:953048,-6,14,8,47,-7,-5,10,0
13:55:04:953818,-6,14,8,47,-7,-5,10,0
13:55:04:959786,10,17,91,-5,1,-1,7,-4
13:55:04:967309,-5,-3,33,4,-5,-6,-14,-9
13:55:04:983019,-5,-3,33,4,-5,-6,-14,-9
13:55:04:983805,-1,-6,-19,-25,-10,-10,10,-9
13:55:04:990550,-6,-16,-6,-30,3,-5,3,5
13:55:04:991339,-6,-16,-6,-30,3,-5,3,5
13:55:04:997245,0,1,-8,4,-6,-4,-20,6
13:55:05:13040,-2,-3,-90,-41,5,-4,-18,-7
13:55:05:13728,-2,-3,-90,-41,5,-4,-18,-7
13:55:05:19814,-19,2,22,-6,-15,-4,-9,-10
13:55:05:27277,1,-14,26,0,-7,-6,2,7
13:55:05:35024,1,-14,26,0,-7,-6,2,7
13:55:05:42293,6,8,-42,1,0,4,5,7
13:55:05:50505,-4,1,-5,3,3,4,-2,0
13:55:05:51324,-4,1,-5,3,3,4,-2,0
13:55:05:57371,1,-2,-48,18,5,2,-1,-13
13:55:05:72984,-9,-27,7,-4,4,-1,-2,-2
13:55:05:73794,-9,-27,7,-4,4,-1,-2,-2
13:55:05:79729,9,-6,55,1,-3,-2,0,17
13:55:05:87283,-2,2,-2,10,-5,4,7,-10
13:55:05:95030,-2,2,-2,10,-5,4,7,-10
13:55:05:102387,1,20,-17,-3,2,-2,5,4
13:55:05:110515,6,4,-7,13,-5,-2,-9,2
13:55:05:111301,6,4,-7,13,-5,-2,-9,2
13:55:05:124813,4,4,7,20,7,-6,-11,2
13:55:05:132998,-6,-18,-34,3,20,20,7,-3
13:55:05:133789,-6,-18,-34,3,20,20,7,-3
13:55:05:139882,-5,-11,9,22,14,5,8,-8
13:55:05:155563,0,4,26,-14,-12,-5,-6,3
13:55:05:156326,0,4,26,-14,-12,-5,-6,3
13:55:05:162261,-17,-19,34,-19,-3,-1,6,2
13:55:05:177992,-2,4,-75,-10,-4,-3,-1,-3
13:55:05:178801,-2,4,-75,-10,-4,-3,-1,-3
13:55:05:184897,7,-2,9,2,-3,-4,6,7
13:55:05:193014,5,7,32,11,-2,3,-2,3
13:55:05:193827,5,7,32,11,-2,3,-2,3
13:55:05:199747,-4,4,-4,5,1,-10,-9,-19
13:55:05:215451,-4,18,15,-8,11,1,10,16
13:55:05:216284,-4,18,15,-8,11,1,10,16
13:55:05:222351,8,2,6,7,1,0,-2,9
13:55:05:230483,-7,-15,-27,-12,-5,-7,-4,0
13:55:05:231312,-7,-15,-27,-12,-5,-7,-4,0
13:55:05:244781,3,4,-2,29,4,1,0,-9
13:55:05:252987,2,-5,37,-18,-4,3,-4,-5
13:55:05:253769,2,-5,37,-18,-4,3,-4,-5
13:55:05:259810,-3,-3,-4,0,-4,1,-7,-6
13:55:05:275498,-6,-26,51,30,5,-13,-17,-26
13:55:05:276278,-6,-26,51,30,5,-13,-17,-26
13:55:05:282229,-4,3,12,-39,-16,2,6,8
13:55:05:290525,-2,20,-2,11,-2,-1,8,7
13:55:05:291308,-2,20,-2,11,-2,-1,8,7
13:55:05:304881,-2,-3,-5,4,-6,-1,3,8
13:55:05:312988,8,0,23,10,-7,-4,3,5
13:55:05:313790,8,0,23,10,-7,-4,3,5
13:55:05:319817,-15,-1,-43,-8,2,3,-9,-6
13:55:05:335496,-6,-15,-28,-23,-1,3,10,-2
13:55:05:336266,-6,-15,-28,-23,-1,3,10,-2
13:55:05:342341,-3,-2,34,-6,2,3,0,-10
13:55:05:350491,7,44,80,18,1,3,-1,-6
13:55:05:351240,7,44,80,18,1,3,-1,-6
13:55:05:364791,6,3,-8,10,-14,-3,6,7
13:55:05:373040,5,6,13,23,-6,5,-1,4
13:55:05:373763,5,6,13,23,-6,5,-1,4
13:55:05:379788,7,3,-16,20,-2,1,2,0
13:55:05:395499,7,3,-16,20,-2,1,2,0
13:55:05:396300,-16,4,-34,-11,-6,-2,-17,-11
13:55:05:402364,-27,-52,14,-37,2,-18,-11,-24
13:55:05:410474,-27,-52,14,-37,2,-18,-11,-24
13:55:05:411300,-1,-9,23,-30,-2,-1,3,-1
13:55:05:424846,2,12,3,-10,-8,-5,46,5
13:55:05:432954,2,12,3,-10,-8,-5,46,5
13:55:05:433778,-8,-41,-1,-2,-2,-8,-1,-16
13:55:05:439866,1,6,-11,-11,4,6,8,-4
13:55:05:455610,1,6,-11,-11,4,6,8,-4
13:55:05:456332,12,9,47,20,-6,5,12,13
13:55:05:462282,15,2,-17,15,-1,3,-6,14
13:55:05:470491,15,2,-17,15,-1,3,-6,14
13:55:05:471272,-11,5,71,32,20,9,-13,-2
13:55:05:484883,-3,-3,-57,-8,-4,-3,12,-1
13:55:05:493017,-3,-3,-57,-8,-4,-3,12,-1
13:55:05:493770,3,-6,-24,-2,-6,-7,12,11
13:55:05:507392,5,-7,-70,-2,7,6,-3,8
13:55:05:515500,5,-7,-70,-2,7,6,-3,8
13:55:05:516293,0,-4,-57,-30,0,4,4,-6
13:55:05:522387,0,-3,14,6,-6,-1,-20,-1
13:55:05:531141,0,-3,14,6,-6,-1,-20,-1
13:55:05:531950,16,13,-35,-2,1,-2,-9,8
13:55:05:544828,-5,-5,-50,-1,2,-5,-9,-8
13:55:05:553026,-5,-5,-50,-1,2,-5,-9,-8
13:55:05:553757,-5,10,10,-15,-11,-8,9,8
13:55:05:559768,-1,14,55,31,13,1,-44,-8
13:55:05:575558,-1,14,55,31,13,1,-44,-8
13:55:05:576308,0,0,0,-11,-4,-4,6,5
13:55:05:582260,-5,1,27,-6,-7,-4,2,2
13:55:05:590571,-5,1,27,-6,-7,-4,2,2
13:55:05:591284,-3,-19,-39,-15,-4,-7,-21,-3
13:55:05:604779,8,4,-8,-5,3,5,5,10
13:55:05:613041,8,4,-8,-5,3,5,5,10
13:55:05:613829,-7,-11,-23,4,-3,7,2,-7
13:55:05:619843,6,0,-43,-23,-6,-8,1,7
13:55:05:635547,6,0,-43,-23,-6,-8,1,7
13:55:05:636288,-2,7,-27,-8,8,6,2,-2
13:55:05:642269,1,9,13,2,-1,6,8,-8
13:55:05:650530,1,9,13,2,-1,6,8,-8
13:55:05:651374,5,-12,-9,9,3,-2,-21,5
13:55:05:664749,-6,-19,-9,11,1,5,-24,-22
13:55:05:673132,-6,-19,-9,11,1,5,-24,-22
13:55:05:673865,3,1,-9,8,-4,-4,9,0
13:55:05:679737,4,13,-29,-12,6,0,-5,9
13:55:05:695539,4,13,-29,-12,6,0,-5,9
13:55:05:696306,-4,-4,11,6,-1,-6,-8,-4
13:55:05:702396,2,0,79,-14,2,-3,10,-5
13:55:05:710509,2,0,79,-14,2,-3,10,-5
13:55:05:711298,-8,-4,44,-3,-5,-10,-3,-14
13:55:05:724835,-1,-8,2,-31,-24,-6,4,2
13:55:05:732972,-1,-8,2,-31,-24,-6,4,2
13:55:05:733749,2,5,-7,4,-4,0,13,-3
13:55:05:739861,-2,-3,5,20,1,-5,-10,3
13:55:05:755521,-2,-3,5,20,1,-5,-10,3
13:55:05:756322,3,-3,-19,1,3,1,7,6
13:55:05:762271,5,-2,27,14,-2,-1,-4,0
13:55:05:770469,5,-2,27,14,-2,-1,-4,0
13:55:05:771295,-10,-6,-20,-26,-7,-9,-8,-20
13:55:05:784933,-6,-4,40,13,5,1,-1,-7
13:55:05:793024,-6,-4,40,13,5,1,-1,-7
13:55:05:793769,4,13,1,-11,12,10,-15,8
13:55:05:799787,-11,-2,-24,-8,-4,-9,8,4
13:55:05:815922,-11,-2,-24,-8,-4,-9,8,4
13:55:05:816750,0,17,61,47,6,5,11,9
13:55:05:822294,20,5,35,15,11,9,-2,8
13:55:05:830522,20,5,35,15,11,9,-2,8
13:55:05:831280,-8,-3,-63,-2,2,-11,-27,-5
13:55:05:845245,-5,3,28,-7,-4,-4,-16,5
13:55:05:853024,-5,3,28,-7,-4,-4,-16,5
13:55:05:853773,-6,-14,8,9,-5,1,35,6
13:55:05:859828,1,5,34,-9,-1,5,34,6
13:55:05:875497,1,5,34,-9,-1,5,34,6
13:55:05:876318,7,11,38,-17,0,-7,-2,8
13:55:05:882259,-5,5,-12,-3,7,2,-2,-3
13:55:05:890583,-5,5,-12,-3,7,2,-2,-3
13:55:05:891341,-7,-17,-7,-30,-3,2,9,-3
13:55:05:904852,-1,-3,-44,5,-9,-9,-10,-17
13:55:05:912986,-1,-3,-44,5,-9,-9,-10,-17
13:55:05:913789,-8,-21,52,-43,2,0,2,-2
13:55:05:919841,-5,-13,-24,0,-5,-8,-1,-1
13:55:05:935535,-5,-13,-24,0,-5,-8,-1,-1
13:55:05:936228,-7,10,12,27,-6,1,5,-10
13:55:05:942304,-11,-16,-56,-19,-1,-15,-10,-6
13:55:05:950476,-11,-16,-56,-19,-1,-15,-10,-6
13:55:05:951293,1,11,8,29,-4,1,-7,3
13:55:05:964794,8,17,47,15,-7,0,6,6
13:55:05:973108,8,17,47,15,-7,0,6,6
13:55:05:973746,2,-3,-31,-4,1,-6,-25,1
13:55:05:979762,-1,7,11,-8,4,9,23,2
13:55:05:995549,-1,7,11,-8,4,9,23,2
13:55:05:996329,18,20,9,29,9,11,12,14
13:55:06:2410,-7,-17,-94,-46,0,2,-6,-1
13:55:06:10510,-7,-17,-94,-46,0,2,-6,-1
13:55:06:11268,3,-11,-42,-14,2,-1,-12,7
13:55:06:24849,1,13,21,2,-6,2,-1,-8
13:55:06:33036,1,13,21,2,-6,2,-1,-8
13:55:06:33785,-8,4,15,17,4,-4,-11,-3
13:55:06:39874,2,12,63,-3,4,7,11,-9
13:55:06:55607,2,12,63,-3,4,7,11,-9
13:55:06:56314,-1,-8,-43,-54,-1,-5,13,-9
13:55:06:62342,-3,-19,-44,-10,1,1,7,5
13:55:06:69928,-3,-19,-44,-10,1,1,7,5
13:55:06:77343,-2,-16,4,5,-12,-7,0,-7
13:55:06:93670,-3,-6,-1,-4,-1,-2,-8,-1
13:55:06:94452,-3,-6,-1,-4,-1,-2,-8,-1
13:55:06:95258,-7,-6,-42,6,-5,-3,-8,-13
13:55:06:107343,13,-2,20,15,-1,2,-7,11
13:55:06:115963,13,-2,20,15,-1,2,-7,11
13:55:06:123021,-9,18,38,11,7,5,-23,-13
13:55:06:123738,-3,2,-12,11,2,4,-18,-14
13:55:06:129818,-3,2,-12,11,2,4,-18,-14
13:55:06:137317,7,3,12,14,-5,0,9,1
13:55:06:144829,-2,-3,-11,0,-2,-10,-3,8
13:55:06:153028,-2,-3,-11,0,-2,-10,-3,8
13:55:06:153772,5,1,8,6,-3,1,1,-1
13:55:06:167330,0,2,52,18,15,3,-32,-6
13:55:06:175582,0,2,52,18,15,3,-32,-6
13:55:06:176333,-2,-3,-2,-4,-8,-22,-10,-17
13:55:06:182309,-5,-8,-96,2,1,-8,-14,7
13:55:06:189879,-5,-8,-96,2,1,-8,-14,7
13:55:06:197300,6,-8,-27,-13,0,4,1,7
13:55:06:204912,0,-3,25,-1,-11,-4,7,-7
13:55:06:213011,0,-3,25,-1,-11,-4,7,-7
13:55:06:213728,-5,3,28,11,3,3,12,3
13:55:06:227346,-17,-3,49,4,-4,-3,13,-6
13:55:06:235585,-17,-3,49,4,-4,-3,13,-6
13:55:06:236237,0,-1,-24,-3,-1,2,-3,2
13:55:06:242330,9,7,26,7,-1,1,-8,0
13:55:06:249827,9,7,26,7,-1,1,-8,0
13:55:06:257375,-9,-44,-38,-23,-9,-3,0,4
13:55:06:264769,-5,-3,-11,-29,-4,0,11,10
13:55:06:273084,-5,-3,-11,-29,-4,0,11,10
13:55:06:273754,9,2,5,2,0,-4,-6,1
13:55:06:287363,-3,-11,-15,-5,-8,2,14,-1
13:55:06:295508,-3,-11,-15,-5,-8,2,14,-1
13:55:06:296320,12,-8,39,-4,-2,1,24,13
13:55:06:302321,-8,10,26,-15,2,5,-3,-7
13:55:06:309862,-8,10,26,-15,2,5,-3,-7
13:55:06:317272,3,24,20,12,-1,6,3,11
13:55:06:324826,-3,11,-25,3,0,-2,-4,-7
13:55:06:332985,-3,11,-25,3,0,-2,-4,-7
13:55:06:333825,-6,-21,-48,-9,-2,3,-17,-2
13:55:06:347260,8,6,73,-6,-7,-4,2,2
13:55:06:355615,8,6,73,-6,-7,-4,2,2
13:55:06:356324,1,15,14,40,9,1,7,2
13:55:06:370490,5,-9,-30,18,23,7,2,1
13:55:06:371319,5,-9,-30,18,23,7,2,1
13:55:06:377317,-17,0,-10,-8,-5,-10,-20,-11
13:55:06:384898,-8,-20,-30,-7,-10,-12,16,-12
13:55:06:400516,-8,-20,-30,-7,-10,-12,16,-12
13:55:06:401333,-6,-22,-75,-25,4,-2,-2,1
13:55:06:407347,0,9,-5,3,2,-6,-6,5
13:55:06:415484,0,9,-5,3,2,-6,-6,5
13:55:06:416261,-3,6,27,-5,-14,0,6,-4
13:55:06:422361,-2,-16,-1,10,-4,-5,1,11
13:55:06:429817,-2,-16,-1,10,-4,-5,1,11
13:55:06:437279,6,10,3,-2,-2,8,-2,-2
13:55:06:444780,-3,2,-13,-16,-8,-1,-17,-7
13:55:06:453051,-3,2,-13,-16,-8,-1,-17,-7
13:55:06:453804,2,-5,55,11,-1,-10,14,-5
13:55:06:467324,5,-12,-2,15,0,11,-9,6
13:55:06:475538,5,-12,-2,15,0,11,-9,6
13:55:06:476310,3,17,19,-53,7,0,0,-3
13:55:06:482255,10,14,5,6,-8,-2,1,2
13:55:06:489958,10,14,5,6,-8,-2,1,2
13:55:06:497279,3,1,50,23,-9,2,-4,3
13:55:06:504815,-10,4,4,7,-1,0,-14,-10
13:55:06:512979,-10,4,4,7,-1,0,-14,-10
13:55:06:513740,-8,-1,66,-5,-2,4,1,0
13:55:06:527293,3,-12,7,-12,0,-3,7,-2
13:55:06:535555,3,-12,7,-12,0,-3,7,-2
13:55:06:536315,3,4,-32,3,-6,-5,1,1
13:55:06:542318,1,14,42,19,3,1,2,-7
13:55:06:549791,1,14,42,19,3,1,2,-7
13:55:06:557385,-7,-25,-12,8,1,1,-1,-8
13:55:06:564819,-1,0,-16,8,-1,2,24,7
13:55:06:573085,-1,0,-16,8,-1,2,24,7
13:55:06:573738,-1,7,-36,2,-5,-8,4,-5
13:55:06:587311,0,14,47,-8,-2,9,-1,-4
13:55:06:595486,0,14,47,-8,-2,9,-1,-4
13:55:06:596252,3,14,18,-2,5,4,-2,3
13:55:06:602375,-10,-24,-37,-27,1,-6,-5,19
13:55:06:609832,-10,-24,-37,-27,1,-6,-5,19
13:55:06:617273,6,5,34,29,-2,-5,-15,0
13:55:06:624809,7,-6,-26,9,1,1,-4,-8
13:55:06:632987,7,-6,-26,9,1,1,-4,-8
13:55:06:633804,6,1,12,1,-4,-3,-2,15
13:55:06:647300,-9,-31,-52,-48,-5,-8,1,-4
13:55:06:655545,-9,-31,-52,-48,-5,-8,1,-4
13:55:06:656285,-6,1,30,-21,1,1,0,-12
13:55:06:662220,6,17,2,11,0,-2,0,-1
13:55:06:677996,6,17,2,11,0,-2,0,-1
13:55:06:678768,1,-3,-102,0,10,5,-9,-4
13:55:06:684831,11,-6,-54,-3,-7,-1,-1,8
13:55:06:692985,11,-6,-54,-3,-7,-1,-1,8
13:55:06:693805,-5,-1,28,12,-3,4,-13,1
13:55:06:707388,5,-5,25,14,2,-3,-5,4
13:55:06:715472,5,-5,25,14,2,-3,-5,4
13:55:06:716240,-2,-5,-40,-13,4,-6,-1,-9
13:55:06:722323,1,-1,58,4,9,6,2,-5
13:55:06:729820,1,-1,58,4,9,6,2,-5
13:55:06:737274,-9,-27,-29,-11,-9,0,8,-6
13:55:06:744753,-5,8,1,25,2,-6,-1,0
13:55:06:753062,-5,8,1,25,2,-6,-1,0
13:55:06:753782,1,7,14,2,0,3,3,-9
13:55:06:767268,-8,17,1,10,0,2,-3,2
13:55:06:775510,-8,17,1,10,0,2,-3,2
13:55:06:776278,-20,-20,27,20,-5,-9,-4,-8
13:55:06:782212,2,17,40,2,-2,4,4,2
13:55:06:789865,2,17,40,2,-2,4,4,2
13:55:06:797254,7,0,21,9,-2,1,58,19
13:55:06:804876,1,1,31,15,-5,-1,-2,2
13:55:06:813012,1,1,31,15,-5,-1,-2,2
13:55:06:813810,3,14,26,-5,4,2,-14,1
13:55:06:827337,-5,-6,-19,-11,-1,-1,28,-1
13:55:06:835761,-5,-6,-19,-11,-1,-1,28,-1
13:55:06:836276,-6,30,52,8,7,-4,-8,-2
13:55:06:842295,-11,-9,-114,-28,-3,-6,-15,-10
13:55:06:849851,-11,-9,-114,-28,-3,-6,-15,-10
13:55:06:857356,-4,1,-18,6,8,5,-11,13
13:55:06:864759,-4,6,33,-13,-5,-4,-13,-16
13:55:06:873003,-4,6,33,-13,-5,-4,-13,-16
13:55:06:873729,4,1,-121,-20,4,-6,-6,-2
13:55:06:887265,3,-9,23,-4,-9,-2,16,-2
13:55:06:895499,3,-9,23,-4,-9,-2,16,-2
13:55:06:896331,4,4,0,-13,-11,1,-11,-5
13:55:06:902368,-10,2,-11,5,4,-2,-2,2
13:55:06:909841,-10,2,-11,5,4,-2,-2,2
13:55:06:925495,-4,-23,-19,1,12,4,-14,-12
13:55:06:926235,2,-5,39,14,1,-1,-5,-1
13:55:06:932971,2,-5,39,14,1,-1,-5,-1
13:55:06:933781,5,6,8,8,-7,-4,10,8
13:55:06:947275,-2,-5,44,17,-1,-4,-5,-5
13:55:06:955613,-2,-5,44,17,-1,-4,-5,-5
13:55:06:956249,1,-2,4,-6,-7,-6,-1,-1
13:55:06:962266,-4,-6,5,7,-3,4,-6,0
13:55:06:969956,-4,-6,5,7,-3,4,-6,0
13:55:06:977344,-3,-1,0,-2,-4,-1,22,14
13:55:06:984883,-7,-50,-111,-10,17,9,-12,-2
13:55:06:993001,-7,-50,-111,-10,17,9,-12,-2
13:55:06:993786,-3,6,62,24,-5,5,-8,-8
13:55:07:7448,11,15,33,-26,-10,-6,13,8
13:55:07:15503,11,15,33,-26,-10,-6,13,8
13:55:07:16301,7,-7,-52,-8,-5,1,-3,-2
13:55:07:30470,1,6,12,-13,-8,0,-13,0
13:55:07:31311,1,6,12,-13,-8,0,-13,0
13:55:07:37281,-6,9,4,-4,0,-2,-16,-7
13:55:07:44785,-4,-10,13,11,1,-1,3,-10
13:55:07:52431,-4,-10,13,11,1,-1,3,-10
13:55:07:59851,0,6,5,-30,0,-7,8,2
13:55:07:67303,-3,6,22,18,4,-11,0,-3
13:55:07:75514,-3,6,22,18,4,-11,0,-3
13:55:07:76257,-5,-1,-9,-1,2,-6,-3,-15
13:55:07:90580,-3,21,-12,2,15,1,-2,-2
13:55:07:91301,-3,21,-12,2,15,1,-2,-2
13:55:07:97331,6,-3,74,3,6,4,0,3
13:55:07:104839,-1,4,-6,-9,-11,-8,-21,-5
13:55:07:112346,-1,4,-6,-9,-11,-8,-21,-5
13:55:07:119822,-2,-16,-8,8,-3,-4,-8,1
13:55:07:127329,-3,-1,17,20,3,2,4,4
13:55:07:135599,-3,-1,17,20,3,2,4,4
13:55:07:136261,0,-9,-1,-55,-18,-2,4,-2
13:55:07:150496,6,0,-2,-10,-6,-2,21,7
13:55:07:151275,6,0,-2,-10,-6,-2,21,7
13:55:07:157362,-11,2,-52,-43,2,1,11,5
13:55:07:164815,-1,5,20,-2,-6,1,-9,2
13:55:07:172466,-1,5,20,-2,-6,1,-9,2
13:55:07:179773,8,-19,-33,8,-5,-14,-23,3
13:55:07:187315,-4,-1,19,14,9,6,11,-7
13:55:07:195268,-4,-1,19,14,9,6,11,-7
13:55:07:202386,5,9,16,27,16,10,7,-1
13:55:07:210504,-2,-12,-5,-5,-7,-8,-9,-5
13:55:07:211320,-2,-12,-5,-5,-7,-8,-9,-5
13:55:07:217313,-14,13,-20,-5,-25,2,10,-6
13:55:07:224842,-9,3,-11,-21,-5,2,6,-5
13:55:07:232346,-9,3,-11,-21,-5,2,6,-5
13:55:07:239933,-9,5,36,5,-8,-1,-1,10
13:55:07:247242,4,-11,-13,-6,-7,-3,-11,1
13:55:07:255505,4,-11,-13,-6,-7,-3,-11,1
13:55:07:256248,10,1,24,14,17,1,-1,-10
13:55:07:270503,0,1,4,-21,10,6,-12,-2
13:55:07:271294,0,1,4,-21,10,6,-12,-2
13:55:07:277332,6,13,-12,-22,-7,-4,-7,5
13:55:07:284913,0,3,-25,-7,-9,-6,22,12
13:55:07:292315,0,3,-25,-7,-9,-6,22,12
13:55:07:299787,-7,-2,-7,12,5,-4,-8,-25
13:55:07:307376,4,2,12,-1,-10,-2,-5,-3
13:55:07:315455,4,2,12,-1,-10,-2,-5,-3
13:55:07:316234,2,-7,-1,1,5,1,6,9
13:55:07:330463,1,-5,-4,3,-8,-2,9,2
13:55:07:331227,1,-5,-4,3,-8,-2,9,2
13:55:07:337329,3,-1,-63,-12,5,-1,-7,4
13:55:07:344818,-9,-7,14,-9,7,-6,-16,-6
13:55:07:352406,-9,-7,14,-9,7,-6,-16,-6
13:55:07:359753,-7,-11,38,-3,-3,8,6,-1
13:55:07:367271,2,3,4,13,-2,-1,12,-12
13:55:07:375517,2,3,4,13,-2,-1,12,-12
13:55:07:376324,1,5,13,14,-1,-2,13,-2
13:55:07:398595,6,0,-29,-8,-4,5,-3,5
13:55:07:399388,6,0,-29,-8,-4,5,-3,5
13:55:07:400188,-1,2,-42,-4,5,-2,-5,-5
13:55:07:404873,3,5,39,19,10,3,-7,-2
13:55:07:412305,3,5,39,19,10,3,-7,-2
13:55:07:419855,-2,-19,1,-8,-4,-9,-7,-1
13:55:07:427324,1,-2,16,-2,0,-3,-16,-5
13:55:07:435566,1,-2,16,-2,0,-3,-16,-5
13:55:07:436275,-2,0,-58,-3,-4,4,-10,-2
13:55:07:450446,-4,-7,-22,-18,-10,-11,0,-3
13:55:07:451304,-4,-7,-22,-18,-10,-11,0,-3
13:55:07:457320,3,5,19,3,1,-2,5,-4
13:55:07:464801,3,-1,-16,-3,-7,0,-19,1
13:55:07:472468,3,-1,-16,-3,-7,0,-19,1
13:55:07:479765,-7,-11,24,8,1,1,7,-2
13:55:07:487262,-7,-12,-34,-19,-3,-5,-12,4
13:55:07:495544,-7,-12,-34,-19,-3,-5,-12,4
13:55:07:496299,3,-18,49,5,-4,4,-8,1
13:55:07:510983,5,-3,-74,-4,-8,1,5,3
13:55:07:511732,5,-3,-74,-4,-8,1,5,3
13:55:07:517265,3,-1,8,1,-4,-2,-21,3
13:55:07:524821,-2,16,30,13,6,-1,11,5
13:55:07:532320,-2,16,30,13,6,-1,11,5
13:55:07:539834,-2,-16,-55,-46,-12,3,2,3
13:55:07:547229,-3,-2,11,-8,1,1,5,0
13:55:07:555607,-3,-2,11,-8,1,1,5,0
13:55:07:556330,4,10,28,7,2,-4,-1,-4
13:55:07:570486,-3,-3,11,-2,-6,-1,1,3
13:55:07:571276,-3,-3,11,-2,-6,-1,1,3
13:55:07:577267,-3,-6,-1,12,-5,-8,0,-9
13:55:07:584865,-13,-14,38,0,-2,1,-8,-15
13:55:07:592354,-13,-14,38,0,-2,1,-8,-15
13:55:07:599772,-1,11,-14,35,12,3,4,9
13:55:07:607367,1,3,36,-20,12,-5,6,7
13:55:07:615484,1,3,36,-20,12,-5,6,7
13:55:07:616300,0,-7,-30,-2,-6,1,-2,-3
13:55:07:630471,8,6,5,21,2,-4,6,1
13:55:07:631291,8,6,5,21,2,-4,6,1
13:55:07:637293,-6,4,11,-17,3,-7,-9,-4
13:55:07:644809,-23,0,-11,7,3,-2,-15,-18
13:55:07:652485,-23,0,-11,7,3,-2,-15,-18
13:55:07:659771,7,16,-33,-14,-4,-2,-9,0
13:55:07:667332,2,2,9,18,9,-1,-1,2
13:55:07:675472,2,2,9,18,9,-1,-1,2
13:55:07:676235,4,1,39,6,-2,1,0,0
13:55:07:690510,3,1,-11,16,-2,-2,13,7
13:55:07:691257,3,1,-11,16,-2,-2,13,7
13:55:07:697262,8,24,10,-9,7,7,-1,-1
13:55:07:704861,6,0,11,-16,3,-7,-2,1
13:55:07:712376,6,0,11,-16,3,-7,-2,1
13:55:07:719871,-13,13,76,9,-8,-11,-2,-6
13:55:07:727345,0,-16,-15,7,-1,6,-3,-6
13:55:07:735552,0,-16,-15,7,-1,6,-3,-6
13:55:07:736299,-2,-13,-11,13,1,1,1,1
13:55:07:750488,-9,1,3,13,-10,-1,1,1
13:55:07:751275,-9,1,3,13,-10,-1,1,1
13:55:07:757334,-3,-14,-28,-6,10,5,14,1
13:55:07:764841,3,2,-4,-4,3,7,1,7
13:55:07:772393,3,2,-4,-4,3,7,1,7
13:55:07:788006,-6,-5,-28,-22,-6,-4,-2,-2
13:55:07:788707,-17,-41,-87,-11,-6,-4,-3,-9
13:55:07:795495,-17,-41,-87,-11,-6,-4,-3,-9
13:55:07:796270,3,0,46,13,-10,-4,-8,-3
13:55:07:810460,8,12,7,5,0,2,-1,7
13:55:07:811286,8,12,7,5,0,2,-1,7
13:55:07:817296,-1,7,-44,37,-1,3,6,12
13:55:07:824893,5,-2,83,0,-7,-3,2,-3
13:55:07:832329,5,-2,83,0,-7,-3,2,-3
13:55:07:839801,-2,15,16,-13,-9,-4,0,-7
13:55:07:847283,1,0,20,1,-7,-1,1,-2
13:55:07:855526,1,0,20,1,-7,-1,1,-2
13:55:07:856239,1,-8,7,9,-3,-5,3,1
13:55:07:870465,3,19,25,-1,-3,-1,-4,0
13:55:07:871282,3,19,25,-1,-3,-1,-4,0
13:55:07:877290,-6,-23,8,-21,0,1,19,2
13:55:07:884965,12,10,-6,18,14,-2,-6,4
13:55:07:892342,12,10,-6,18,14,-2,-6,4
13:55:07:899765,-23,7,22,-4,10,-8,-28,-30
13:55:07:907349,-5,-13,2,-9,-1,-2,-3,-3
13:55:07:914831,-5,-13,2,-9,-1,-2,-3,-3
13:55:07:922344,3,-1,-95,-1,-2,0,3,10
13:55:07:930508,3,4,-23,-10,-3,-2,0,-2
13:55:07:931292,3,4,-23,-10,-3,-2,0,-2
13:55:07:937296,8,1,44,17,-6,-1,5,2
13:55:07:944823,-7,4,-20,9,-7,2,14,-8
13:55:07:952544,-7,4,-20,9,-7,2,14,-8
13:55:07:959922,5,-7,-20,1,-8,-4,-3,8
13:55:07:967330,-14,-5,-3,7,2,10,-10,-6
13:55:07:974945,-14,-5,-3,7,2,10,-10,-6
13:55:07:982302,3,7,-24,-30,6,3,1,1
13:55:07:990565,-4,-8,1,18,3,-5,-6,-2
13:55:07:991306,-4,-8,1,18,3,-5,-6,-2
13:55:07:997210,2,-8,-5,-27,3,4,3,1
13:55:08:12983,-1,-10,-36,-26,0,-6,-5,-5
13:55:08:13757,-1,-10,-36,-26,0,-6,-5,-5
13:55:08:19836,3,-11,23,18,-11,-10,-3,-2
13:55:08:27306,7,14,57,-5,8,4,3,3
13:55:08:34991,7,14,57,-5,8,4,3,3
13:55:08:42292,0,7,26,-20,0,-1,-4,-4
13:55:08:50512,6,18,29,41,2,-6,-6,0
13:55:08:51323,6,18,29,41,2,-6,-6,0
13:55:08:57347,-10,-5,15,33,14,4,3,-3
13:55:08:73036,0,-5,8,-3,2,-4,15,9
13:55:08:73788,0,-5,8,-3,2,-4,15,9
13:55:08:79745,-7,6,9,27,-1,0,0,-8
13:55:08:87257,-4,-18,-10,-10,-26,-8,1,3
13:55:08:94857,-4,-18,-10,-10,-26,-8,1,3
13:55:08:102339,7,-23,21,-11,5,3,-7,-1
13:55:08:110455,1,2,-4,-42,-8,2,-1,-1
13:55:08:111303,1,2,-4,-42,-8,2,-1,-1
13:55:08:117320,1,6,-41,-5,-5,-3,3,0
13:55:08:133006,3,-2,-57,-18,12,-1,-10,-4
13:55:08:133822,3,-2,-57,-18,12,-1,-10,-4
13:55:08:139854,8,-9,13,-4,0,-1,-2,1
13:55:08:147254,11,6,59,-22,-7,5,-5,1
13:55:08:155021,11,6,59,-22,-7,5,-5,1
13:55:08:162326,-5,-15,-21,-17,-1,-10,-11,-1
13:55:08:170530,-10,-15,-46,16,12,5,-9,-8
13:55:08:171325,-10,-15,-46,16,12,5,-9,-8
13:55:08:177296,3,5,6,-26,-8,-6,-2,1
13:55:08:193042,1,1,4,14,-3,1,1,3
13:55:08:193801,1,1,4,14,-3,1,1,3
13:55:08:199788,-1,7,26,22,17,10,-1,1
13:55:08:207387,-6,-10,-5,-1,1,-4,5,-2
13:55:08:214836,-6,-10,-5,-1,1,-4,5,-2
13:55:08:222376,-19,0,28,-10,-8,-8,-24,-17
13:55:08:230423,-9,-32,32,5,-4,6,-8,2
13:55:08:231288,-9,-32,32,5,-4,6,-8,2
13:55:08:237304,-4,-5,-39,-19,-3,-1,14,2
13:55:08:253002,3,12,-13,10,7,3,6,-2
13:55:08:253724,3,12,-13,10,7,3,6,-2
13:55:08:259817,9,-2,26,36,-6,0,7,1
13:55:08:267312,-5,7,14,4,-3,-8,1,-5
13:55:08:274876,-5,7,14,4,-3,-8,1,-5
13:55:08:282214,-2,-7,-57,1,3,5,3,1
13:55:08:290536,2,-16,-37,-45,-6,-3,-2,6
13:55:08:291274,2,-16,-37,-45,-6,-3,-2,6
13:55:08:297247,-3,3,57,-21,12,10,18,7
13:55:08:313024,-5,9,25,17,-10,-9,2,-6
13:55:08:313779,-5,9,25,17,-10,-9,2,-6
13:55:08:319821,6,3,-29,-6,-20,-8,-1,1
13:55:08:327251,-9,9,-34,6,1,0,-8,-10
13:55:08:334957,-9,9,-34,6,1,0,-8,-10
13:55:08:342286,-4,4,-5,0,-8,-12,-16,-1
13:55:08:350545,-2,25,-10,-11,-4,-4,-9,0
13:55:08:351365,-2,25,-10,-11,-4,-4,-9,0
13:55:08:357357,8,-5,8,20,14,11,2,8
13:55:08:373067,1,-1,-33,-19,-5,-5,-3,4
13:55:08:373761,1,-1,-33,-19,-5,-5,-3,4
13:55:08:379762,-1,-10,20,-14,-7,3,-13,1
13:55:08:387269,-5,-24,-31,-2,2,5,8,1
13:55:08:394867,-5,-24,-31,-2,2,5,8,1
13:55:08:402349,-4,-13,-12,-1,-9,-7,-2,-6
13:55:08:410527,-10,-19,38,22,0,3,4,-16
13:55:08:411333,-10,-19,38,22,0,3,4,-16
13:55:08:417262,5,1,-11,-1,-4,-2,0,-6
13:55:08:433001,-5,2,-33,-12,-1,-12,-4,-3
13:55:08:433798,-5,2,-33,-12,-1,-12,-4,-3
13:55:08:439890,-12,1,-7,-4,1,-3,3,-2
13:55:08:447251,10,14,21,-17,-4,2,5,1
13:55:08:454937,10,14,21,-17,-4,2,5,1
13:55:08:462309,-2,-1,7,-20,7,7,7,5
13:55:08:470446,7,1,-15,-5,-1,-3,15,5
13:55:08:471241,7,1,-15,-5,-1,-3,15,5
13:55:08:477307,4,32,26,30,0,2,1,-13
13:55:08:493047,7,-3,-12,7,6,4,-23,-10
13:55:08:493802,7,-3,-12,7,6,4,-23,-10
13:55:08:499811,-8,-16,-72,-14,-6,-13,17,-3
13:55:08:507328,6,28,-6,10,-2,-1,4,0
13:55:08:514870,6,28,-6,10,-2,-1,4,0
13:55:08:522377,-13,-9,-28,-1,2,-2,-1,2
13:55:08:530455,-1,-19,-11,-29,0,1,-3,2
13:55:08:531258,-1,-19,-11,-29,0,1,-3,2
13:55:08:537237,11,0,-41,20,1,-3,0,11
13:55:08:552978,-2,-2,0,15,8,8,-4,8
13:55:08:553723,-2,-2,0,15,8,8,-4,8
13:55:08:559805,-9,12,36,3,10,1,-24,-16
13:55:08:567334,-17,6,8,-17,-10,-11,-6,-20
13:55:08:574908,-17,6,8,-17,-10,-11,-6,-20
13:55:08:582223,-13,-47,51,9,-3,-4,-6,-6
13:55:08:590551,-2,-18,28,28,1,-7,-5,2
13:55:08:591294,-2,-18,28,28,1,-7,-5,2
13:55:08:597251,6,17,-23,-15,0,3,11,2
13:55:08:612985,8,11,29,-7,-3,1,3,5
13:55:08:613750,8,11,29,-7,-3,1,3,5
13:55:08:619838,3,0,33,0,4,6,12,15
13:55:08:627221,18,8,-40,10,8,0,-9,10
13:55:08:634995,18,8,-40,10,8,0,-9,10
13:55:08:642300,-2,-5,-8,-9,-9,-10,-2,8
13:55:08:650486,0,24,49,-23,-5,5,0,0
13:55:08:651279,0,24,49,-23,-5,5,0,0
13:55:08:657339,5,22,3,6,-9,-12,8,-2
13:55:08:673040,-5,-46,-3,2,-6,-3,7,5
13:55:08:673771,-5,-46,-3,2,-6,-3,7,5
13:55:08:679749,6,7,14,-42,-8,3,-6,-3
13:55:08:687292,9,6,-11,10,-8,3,5,7
13:55:08:694900,9,6,-11,10,-8,3,5,7
13:55:08:702360,-2,-6,16,16,-1,4,-14,-9
13:55:08:710526,-2,-6,16,16,-1,4,-14,-9
13:55:08:711329,-8,-2,13,9,1,-6,-7,-15
13:55:08:717278,-6,10,-54,-11,3,-1,-6,-5
13:55:08:732963,-6,10,-54,-11,3,-1,-6,-5
13:55:08:733773,-1,6,47,13,-3,0,14,14
13:55:08:739869,-3,-2,-22,10,-4,-8,1,-8
13:55:08:755537,-3,-2,-22,10,-4,-8,1,-8
13:55:08:756247,1,26,-25,-3,10,1,10,11
13:55:08:762243,3,-8,114,-13,-4,3,-2,11
13:55:08:770500,3,-8,114,-13,-4,3,-2,11
13:55:08:771314,9,-1,-6,-23,5,10,1,2
13:55:08:777291,-1,6,6,12,8,-1,10,0
13:55:08:793054,-1,6,6,12,8,-1,10,0
13:55:08:793811,-3,-8,-3,-10,-14,-7,-20,4
13:55:08:799743,5,-1,-38,1,0,-3,-11,0
13:55:08:815471,5,-1,-38,1,0,-3,-11,0
13:55:08:816268,2,-14,4,9,3,1,9,-9
13:55:08:822333,-9,-15,13,15,0,1,-7,-13
13:55:08:830470,-9,-15,13,15,0,1,-7,-13
13:55:08:831275,2,5,14,25,-1,-2,-3,2
13:55:08:837247,7,6,12,7,1,3,1,2
13:55:08:853025,7,6,12,7,1,3,1,2
13:55:08:853745,-10,2,28,5,-6,-3,-11,-3
13:55:08:859763,8,-4,-16,17,6,1,-9,9
13:55:08:875439,8,-4,-16,17,6,1,-9,9
13:55:08:876252,-7,18,29,-10,0,-11,-7,-6
13:55:08:882193,0,0,-63,-14,-10,3,8,9
13:55:08:890615,0,0,-63,-14,-10,3,8,9
13:55:08:891332,-12,5,30,4,2,4,-1,-8
13:55:08:904827,2,-5,-18,-14,-1,-7,8,-8
13:55:08:913006,2,-5,-18,-14,-1,-7,8,-8
13:55:08:913747,-17,-30,-7,-25,-13,-7,-20,-10
13:55:08:919747,1,-17,2,11,8,3,-4,-2
13:55:08:935489,1,-17,2,11,8,3,-4,-2
13:55:08:936224,8,-14,9,-7,8,-2,4,2
13:55:08:942291,-2,-2,74,-20,-5,-3,-15,-3
13:55:08:950499,-2,-2,74,-20,-5,-3,-15,-3
13:55:08:951324,8,1,-30,-8,-4,5,13,-3
13:55:08:964793,-1,-5,-74,-6,-1,0,2,6
13:55:08:973017,-1,-5,-74,-6,-1,0,2,6
13:55:08:973726,-3,-16,8,-15,-6,-4,-1,-17
13:55:08:979759,-2,-2,7,13,-6,3,6,1
13:55:08:995498,-2,-2,7,13,-6,3,6,1
13:55:08:996267,0,-6,-34,0,1,-4,3,4
13:55:09:2354,-3,-5,27,32,0,-1,7,-6
13:55:09:10502,-3,-5,27,32,0,-1,7,-6
13:55:09:11302,0,19,68,10,-2,0,6,3
13:55:09:24886,5,16,-50,-38,-8,-2,-8,-7
13:55:09:32968,5,16,-50,-38,-8,-2,-8,-7
13:55:09:33727,8,2,24,9,8,2,-12,0
13:55:09:39879,0,8,26,23,-4,2,-17,-6
13:55:09:55676,0,8,26,23,-4,2,-17,-6
13:55:09:56341,5,-17,-44,14,-3,-8,-17,-3
13:55:09:62273,-5,6,-3,5,1,1,25,9
13:55:09:70484,-5,6,-3,5,1,1,25,9
13:55:09:71295,-9,7,0,0,-1,-3,-2,-14
13:55:09:84883,1,1,32,25,6,1,9,-4
13:55:09:93037,1,1,32,25,6,1,9,-4
13:55:09:93747,-13,-4,-23,18,-3,-5,8,-1
13:55:09:99770,-5,12,68,5,0,-2,-14,-12
13:55:09:115540,-5,12,68,5,0,-2,-14,-12
13:55:09:116303,-8,15,-34,-3,-4,-2,-6,-9
13:55:09:122402,4,-2,-10,-55,1,7,3,5
13:55:09:130433,4,-2,-10,-55,1,7,3,5
13:55:09:131237,-3,-21,-12,-11,-1,4,-17,4
13:55:09:144757,-5,6,21,7,-5,-3,23,-8
13:55:09:153056,-5,6,21,7,-5,-3,23,-8
13:55:09:153756,0,5,-10,-13,2,-2,16,5
13:55:09:159803,2,-4,-1,22,-4,-8,-13,-3
13:55:09:175486,2,-4,-1,22,-4,-8,-13,-3
13:55:09:176273,-8,-6,-42,19,-4,4,7,-10
13:55:09:182235,-6,-11,-39,6,2,-6,-9,-3
13:55:09:190561,-6,-11,-39,6,2,-6,-9,-3
13:55:09:191273,8,4,4,-8,-4,-4,7,15
13:55:09:204770,-4,2,-28,-21,8,3,9,4
13:55:09:212949,-4,2,-28,-21,8,3,9,4
13:55:09:213771,2,-4,44,-6,2,0,3,1
13:55:09:219795,2,-12,39,-5,-2,-3,0,1
13:55:09:235593,2,-12,39,-5,-2,-3,0,1
13:55:09:236284,1,8,20,19,9,1,-3,1
13:55:09:242300,4,5,0,8,-3,-3,-3,5
13:55:09:250585,4,5,0,8,-3,-3,-3,5
13:55:09:251360,1,12,5,6,-5,-5,8,7
13:55:09:264765,-30,-52,-54,-3,13,7,-17,-26
13:55:09:273105,-30,-52,-54,-3,13,7,-17,-26
13:55:09:273829,-3,-6,-28,-18,-4,1,-9,-4
13:55:09:279776,14,18,4,-33,-13,-4,-3,5
13:55:09:295513,14,18,4,-33,-13,-4,-3,5
13:55:09:296285,-4,-8,-8,10,0,1,22,-3
13:55:09:302324,-2,9,63,-3,-3,3,0,9
13:55:09:310506,-2,9,63,-3,-3,3,0,9
13:55:09:311309,0,-14,6,-59,6,7,-6,1
13:55:09:324844,-2,13,-37,-6,4,-10,-22,-2
13:55:09:332989,-2,13,-37,-6,4,-10,-22,-2
13:55:09:333785,12,13,-41,21,-4,2,-2,-5
13:55:09:339878,4,-3,39,16,7,-2,-1,6
13:55:09:355599,4,-3,39,16,7,-2,-1,6
13:55:09:356312,4,13,0,6,-3,-5,-26,-6
13:55:09:362253,7,15,-12,-8,1,3,3,3
13:55:09:370512,7,15,-12,-8,1,3,3,3
13:55:09:371296,-4,-8,-5,1,-1,0,2,0
13:55:09:384942,1,-1,4,14,-13,-1,7,7
13:55:09:392976,1,-1,4,14,-13,-1,7,7
13:55:09:393782,-14,-7,-17,-7,1,-3,11,-19
13:55:09:399729,5,-10,-19,-8,-8,-6,-10,-4
13:55:09:415481,5,-10,-19,-8,-8,-6,-10,-4
13:55:09:416230,8,4,3,2,3,-3,-6,6
13:55:09:422348,-9,-16,-15,-8,2,2,-7,-9
13:55:09:430438,-9,-16,-15,-8,2,2,-7,-9
13:55:09:431275,-14,-12,23,1,0,0,-4,-7
13:55:09:453692,2,11,-2,-36,-5,5,0,13
13:55:09:454455,2,11,-2,-36,-5,5,0,13
13:55:09:455273,5,-8,14,2,4,4,4,11
13:55:09:459778,1,-4,-19,16,5,2,-4,-3
13:55:09:475300,1,-4,-19,16,5,2,-4,-3
13:55:09:482963,9,11,4,22,8,1,7,2
13:55:09:483727,-2,-20,29,5,-9,-3,-4,-4
13:55:09:490627,-2,-20,29,5,-9,-3,-4,-4
13:55:09:491334,-1,-16,12,8,-9,-2,-4,-3
13:55:09:504792,-6,11,-28,-27,-11,-2,21,-2
13:55:09:513017,-6,11,-28,-27,-11,-2,21,-2
13:55:09:513793,11,8,23,-16,1,-4,-2,9
13:55:09:519820,0,-25,-45,11,5,2,12,3
13:55:09:535598,0,-25,-45,11,5,2,12,3
13:55:09:536288,-4,10,-15,-9,-5,-3,3,6
13:55:09:542296,-12,17,39,15,-1,1,-9,3
13:55:09:550520,-12,17,39,15,-1,1,-9,3
13:55:09:551334,13,8,-12,4,4,5,7,8
13:55:09:564712,-2,9,72,23,13,1,-11,-6
13:55:09:573051,-2,9,72,23,13,1,-11,-6
13:55:09:573750,-15,-21,-44,-11,-13,-8,0,-4
13:55:09:579745,9,14,-17,2,-5,-3,10,2
13:55:09:595501,9,14,-17,2,-5,-3,10,2
13:55:09:596292,-3,3,21,13,4,3,-4,2
13:55:09:602317,-2,-7,-4,-6,2,-4,0,0
13:55:09:610282,-2,-7,-4,-6,2,-4,0,0
13:55:09:617285,-2,9,-7,-14,6,5,1,4
13:55:09:624802,-6,-9,67,-7,-13,-6,-5,-18
13:55:09:632985,-6,-9,67,-7,-13,-6,-5,-18
13:55:09:633788,8,18,7,1,0,3,-21,2
13:55:09:639842,-3,4,-18,9,13,7,10,5
13:55:09:655574,-3,4,-18,9,13,7,10,5
13:55:09:656298,-1,2,8,-13,-4,-1,-5,-9
13:55:09:662239,-6,-4,-32,-29,-10,-5,-1,-2
13:55:09:670482,-6,-4,-32,-29,-10,-5,-1,-2
13:55:09:671318,-8,1,-15,3,-6,-8,5,2
13:55:09:684913,12,4,-23,-3,-7,-10,5,4
13:55:09:693013,12,4,-23,-3,-7,-10,5,4
13:55:09:693806,-13,-26,106,30,13,-2,-22,-30
13:55:09:699811,10,-4,-13,1,4,5,-6,1
13:55:09:715507,10,-4,-13,1,4,5,-6,1
13:55:09:716249,11,9,-11,11,-13,-13,2,1
13:55:09:731163,-3,7,-20,-13,-8,1,6,6
13:55:09:731927,-3,7,-20,-13,-8,1,6,6
13:55:09:732735,-4,-1,-24,-34,-13,-2,9,-1
13:55:09:744817,2,5,12,-42,-7,-5,2,-3
13:55:09:752985,2,5,12,-42,-7,-5,2,-3
13:55:09:753725,-14,-11,-9,0,-6,1,21,1
13:55:09:759808,-8,-19,-45,14,-11,-1,-34,-4
13:55:09:775526,-8,-19,-45,14,-11,-1,-34,-4
13:55:09:776262,6,-1,-21,2,-5,-1,-14,4
13:55:09:782264,3,-3,15,-17,-1,-3,8,-14
13:55:09:790589,3,-3,15,-17,-1,-3,8,-14
13:55:09:791227,-6,7,-25,-2,-5,-5,-2,-9
13:55:09:804844,-5,-1,-65,19,-1,-7,-10,-5
13:55:09:812986,-5,-1,-65,19,-1,-7,-10,-5
13:55:09:813749,-24,6,9,9,8,-2,11,3
13:55:09:819797,-82,5,43,-10,8,-5,11,3
13:55:09:835558,-82,5,43,-10,8,-5,11,3
13:55:09:836255,58,-17,-15,9,-1,-1,-4,-3
13:55:09:842324,77,19,14,29,0,0,-5,12
13:55:09:849780,77,19,14,29,0,0,-5,12
13:55:09:857384,56,15,26,-17,5,0,-17,-1
13:55:09:864788,42,-16,-43,-7,-8,7,1,-1
13:55:09:873018,42,-16,-43,-7,-8,7,1,-1
13:55:09:873755,16,8,-3,5,-3,1,2,6
13:55:09:887291,25,4,53,10,-4,-2,12,0
13:55:09:895499,25,4,53,10,-4,-2,12,0
13:55:09:896263,-3,-12,-32,-5,6,2,-5,-4
13:55:09:902405,11,-1,31,19,-4,1,23,7
13:55:09:909852,11,-1,31,19,-4,1,23,7
13:55:09:917255,-5,-33,11,-73,-3,0,19,12
13:55:09:924770,3,2,13,5,5,-5,-5,-5
13:55:09:933007,3,2,13,5,5,-5,-5,-5
13:55:09:933760,0,16,-26,13,0,4,8,0
13:55:09:947258,0,-3,-18,13,7,0,-10,-5
13:55:09:955566,0,-3,-18,13,7,0,-10,-5
13:55:09:956284,-1,10,18,13,5,-2,-22,-4
13:55:09:962251,0,0,-4,20,0,-2,-5,-11
13:55:09:969848,0,0,-4,20,0,-2,-5,-11
13:55:09:977298,-2,-24,-57,-30,6,1,-51,1
13:55:09:984941,2,7,24,23,-1,6,-1,-1
13:55:09:993054,2,7,24,23,-1,6,-1,-1
13:55:09:993832,25,10,31,20,1,1,38,17
13:55:10:7333,25,-2,3,-13,12,6,-24,-4
13:55:10:15490,25,-2,3,-13,12,6,-24,-4
13:55:10:16260,9,-11,-64,-5,-6,-4,4,-11
13:55:10:22356,14,-11,-65,-54,-6,-5,-5,3
13:55:10:38063,14,-11,-65,-54,-6,-5,-5,3
13:55:10:38787,-1,-6,63,15,4,8,19,-2
13:55:10:44728,2,2,12,-20,-11,-3,-16,-12
13:55:10:53050,2,2,12,-20,-11,-3,-16,-12
13:55:10:53767,1,1,7,-1,-6,-15,-10,-8
13:55:10:67257,3,2,-23,-7,2,15,14,9
13:55:10:75493,3,2,-23,-7,2,15,14,9
13:55:10:76295,-8,6,20,-20,-16,-6,6,-13
13:55:10:82228,0,-12,-54,-45,-11,-9,-14,0
13:55:10:89918,0,-12,-54,-45,-11,-9,-14,0
13:55:10:97272,1,11,4,-15,7,3,3,8
13:55:10:104879,-4,5,34,23,5,-5,27,2
13:55:10:113016,-4,5,34,23,5,-5,27,2
13:55:10:113794,-2,15,52,25,-2,-7,-5,0
13:55:10:127280,-10,2,73,7,3,-3,12,-1
13:55:10:135588,-10,2,73,7,3,-3,12,-1
13:55:10:136285,-9,6,-38,-12,-14,-2,-6,-5
13:55:10:142302,-2,6,12,35,1,-7,-1,2
13:55:10:149852,-2,6,12,35,1,-7,-1,2
13:55:10:157333,-3,-3,10,15,-4,-1,-3,3
13:55:10:164733,-2,-2,-3,-13,4,2,-2,0
13:55:10:173013,-2,-2,-3,-13,4,2,-2,0
13:55:10:173807,0,6,8,5,8,7,0,3
13:55:10:187299,-2,-30,-89,-7,-7,-12,3,-14
13:55:10:195523,-2,-30,-89,-7,-7,-12,3,-14
13:55:10:196302,0,-28,-52,-58,1,7,4,1
13:55:10:202345,-2,7,22,22,14,4,-7,0
13:55:10:209825,-2,7,22,22,14,4,-7,0
13:55:10:217329,0,7,-5,19,1,-7,-3,-7
13:55:10:224877,-4,-10,64,-1,-3,-2,-19,-4
13:55:10:232956,-4,-10,64,-1,-3,-2,-19,-4
13:55:10:233763,-13,-2,-38,12,2,0,9,-1
13:55:10:247300,4,25,25,25,0,3,0,14
13:55:10:255596,4,25,25,25,0,3,0,14
13:55:10:256308,7,23,38,-43,-3,5,-4,-3
13:55:10:262333,2,7,-30,-12,-2,-3,-4,-5
13:55:10:269886,2,7,-30,-12,-2,-3,-4,-5
13:55:10:277318,-3,-26,-17,13,-17,-2,2,-4
13:55:10:284851,-12,-7,7,-12,-10,-5,-19,7
13:55:10:292985,-12,-7,7,-12,-10,-5,-19,7
13:55:10:293784,-3,7,32,24,7,0,-7,-1
13:55:10:307975,-1,-16,-57,-26,-10,0,9,3
13:55:10:308760,-1,-16,-57,-26,-10,0,9,3
13:55:10:314740,-7,-1,-4,-8,-2,-1,-5,4
13:55:10:322321,-5,-1,-23,6,-6,-3,8,-12
13:55:10:329821,-5,-1,-23,6,-6,-3,8,-12
13:55:10:337274,2,-13,-39,13,7,-4,6,2
13:55:10:344809,-12,-14,7,-22,1,-4,-8,-12
13:55:10:353063,-12,-14,7,-22,1,-4,-8,-12
13:55:10:353771,2,10,60,26,0,-5,-14,-5
13:55:10:368109,0,-2,50,23,-7,8,-8,-5
13:55:10:368796,0,-2,50,23,-7,8,-8,-5
13:55:10:374797,-18,-12,-9,-13,2,0,0,-4
13:55:10:382248,-4,-16,13,-11,-2,-11,-14,-13
13:55:10:389919,-4,-16,13,-11,-2,-11,-14,-13
13:55:10:397235,-17,-1,55,11,-1,-1,6,-3
13:55:10:404837,8,-2,-22,13,4,9,23,12
13:55:10:413019,8,-2,-22,13,4,9,23,12
13:55:10:413805,7,-5,2,-5,0,-4,4,7
13:55:10:428013,-10,9,2,14,-9,-3,-9,-3
13:55:10:428773,-10,9,2,14,-9,-3,-9,-3
13:55:10:434890,2,-9,45,18,-2,-3,8,0
13:55:10:442280,-3,3,-3,-14,5,-1,-7,-1
13:55:10:449850,-3,3,-3,-14,5,-1,-7,-1
13:55:10:457424,0,1,-37,12,-7,-1,-4,-7
13:55:10:464736,4,16,6,2,13,-1,-1,-3
13:55:10:473032,4,16,6,2,13,-1,-1,-3
13:55:10:473788,10,-4,-54,-14,3,6,-19,-4
13:55:10:487974,1,6,27,-2,13,3,-4,-2
13:55:10:488766,1,6,27,-2,13,3,-4,-2
13:55:10:494783,7,12,-12,18,-8,0,1,-2
13:55:10:502398,1,7,86,16,-3,-1,-13,-16
13:55:10:509884,1,7,86,16,-3,-1,-13,-16
13:55:10:517334,-1,14,10,-28,1,1,13,6
13:55:10:524866,3,-7,-52,11,12,-3,5,10
13:55:10:532974,3,-7,-52,11,12,-3,5,10
13:55:10:533768,-1,-31,-55,-15,-2,-1,2,7
13:55:10:547943,-3,3,3,-10,-8,-5,22,-1
13:55:10:548738,-3,3,3,-10,-8,-5,22,-1
13:55:10:554795,5,4,12,-5,5,0,-3,-3
13:55:10:562308,-6,-5,50,-17,-1,-3,-11,1
13:55:10:569880,-6,-5,50,-17,-1,-3,-11,1
13:55:10:577289,-3,4,29,-2,-7,-4,-10,0
13:55:10:584863,-5,-21,-22,7,2,-5,-2,-7
13:55:10:593005,-5,-21,-22,7,2,-5,-2,-7
13:55:10:593792,-13,7,23,4,-7,-7,4,-7
13:55:10:608023,-6,-27,-54,9,-6,0,9,8
13:55:10:608781,-6,-27,-54,9,-6,0,9,8
13:55:10:614721,6,16,31,25,3,2,1,-1
13:55:10:622373,3,19,54,-13,-9,3,8,-4
13:55:10:629841,3,19,54,-13,-9,3,8,-4
13:55:10:637263,4,-9,-26,-19,2,-3,-9,0
13:55:10:644921,0,-7,-55,-50,-3,-7,-9,-12
13:55:10:653070,0,-7,-55,-50,-3,-7,-9,-12
13:55:10:653787,1,-8,-11,4,3,5,13,20
13:55:10:668137,-10,-14,-84,4,2,0,-20,6
13:55:10:668874,-10,-14,-84,4,2,0,-20,6
13:55:10:674740,0,12,-26,3,2,0,-5,-4
13:55:10:682235,-2,4,2,10,-5,0,-4,4
13:55:10:689897,-2,4,2,10,-5,0,-4,4
13:55:10:697258,3,-11,9,-16,-2,-9,-18,-6
13:55:10:704821,1,9,-13,8,0,0,21,0
13:55:10:713023,1,9,-13,8,0,0,21,0
13:55:10:713783,-2,5,3,-1,3,3,8,-1
13:55:10:727994,14,1,27,9,5,0,-8,3
13:55:10:728786,14,1,27,9,5,0,-8,3
13:55:10:734888,-21,-40,-76,-29,-10,-5,-7,-17
13:55:10:742305,0,2,-4,5,-6,3,3,12
13:55:10:749838,0,2,-4,5,-6,3,3,12
13:55:10:757322,-3,23,64,-6,-7,-6,-13,-11
13:55:10:764749,8,-7,4,-26,-10,-1,-1,4
13:55:10:773007,8,-7,4,-26,-10,-1,-1,4
13:55:10:773783,2,6,48,0,-6,-1,10,5
13:55:10:788005,-3,0,54,2,-2,-3,-26,-10
13:55:10:788732,-3,0,54,2,-2,-3,-26,-10
13:55:10:794809,-7,-6,12,7,-6,-5,-1,-4
13:55:10:810916,4,14,-4,17,7,-6,6,2
13:55:10:811753,4,14,-4,17,7,-6,6,2
13:55:10:817293,-10,-18,64,29,3,4,-9,-11
13:55:10:824858,-7,2,-52,-8,-3,0,8,-1
13:55:10:840580,-7,2,-52,-8,-3,0,8,-1
13:55:10:841339,9,11,-25,-8,5,-2,6,1
13:55:10:847903,8,19,-16,-11,3,4,19,8
13:55:10:848748,8,19,-16,-11,3,4,19,8
13:55:10:854809,1,-22,-44,-5,-1,1,4,-4
13:55:10:870505,-11,7,30,23,-5,-4,6,-11
13:55:10:871288,-11,7,30,23,-5,-4,6,-11
13:55:10:877297,-5,18,-7,6,4,3,-4,0
13:55:10:884840,3,-1,-41,21,5,1,38,-3
13:55:10:892372,3,-1,-41,21,5,1,38,-3
13:55:10:899778,-4,-4,45,-21,-5,-9,-1,-1
13:55:10:907957,-15,-26,-27,8,-11,0,-17,-5
13:55:10:908774,-15,-26,-27,8,-11,0,-17,-5
13:55:10:914779,16,10,-32,7,-9,-1,21,15
13:55:10:930415,3,-2,127,-26,-1,4,4,2
13:55:10:931246,3,-2,127,-26,-1,4,4,2
13:55:10:937278,-5,-1,-6,24,0,0,-14,0
13:55:10:944798,-8,-11,-1,13,0,-10,-23,-20
13:55:10:952404,-8,-11,-1,13,0,-10,-23,-20
13:55:10:959826,0,-2,-43,-15,-4,-8,-8,-4
13:55:10:968049,7,22,2,5,11,6,8,8
13:55:10:968743,7,22,2,5,11,6,8,8
13:55:10:974790,6,-3,-7,22,10,3,18,3
13:55:10:990538,-7,-18,11,-18,3,0,-12,-2
13:55:10:991252,-7,-18,11,-18,3,0,-12,-2
13:55:10:997265,-4,-11,39,19,-6,2,-9,0
13:55:11:4882,-16,-27,2,-13,-10,-18,-23,-27
13:55:11:12334,-16,-27,2,-13,-10,-18,-23,-27
13:55:11:19808,-7,-32,-38,-4,1,5,-9,5
13:55:11:27976,0,-5,0,-66,-13,-5,4,14
13:55:11:28826,0,-5,0,-66,-13,-5,4,14
13:55:11:34973,-3,4,-8,-40,-12,-11,-4,-5
13:55:11:50503,2,8,8,23,7,9,10,13
13:55:11:51327,2,8,8,23,7,9,10,13
13:55:11:57374,1,15,11,-19,13,8,5,-7
13:55:11:64733,4,29,94,43,-3,6,7,4
13:55:11:72456,4,29,94,43,-3,6,7,4
13:55:11:79772,4,-17,-28,16,3,3,6,13
13:55:11:88079,12,12,22,22,10,4,-10,-3
13:55:11:88788,12,12,22,22,10,4,-10,-3
13:55:11:94804,-2,6,-3,-3,1,5,-19,2
13:55:11:110271,2,-2,-40,-8,1,-2,-15,8
13:55:11:118145,2,-2,-40,-8,1,-2,-15,8
13:55:11:118811,3,-3,11,2,4,-12,-19,2
13:55:11:124806,-1,8,28,-2,-5,1,9,5
13:55:11:132352,-1,8,28,-2,-5,1,9,5
13:55:11:139905,7,10,-25,-3,5,-2,6,12
13:55:11:147926,-3,-23,-45,-4,-9,-6,-4,-14
13:55:11:148719,-3,-23,-45,-4,-9,-6,-4,-14
13:55:11:154871,0,3,-35,-22,-10,-6,13,-13
13:55:11:170503,-3,4,-20,-7,-2,12,7,0
13:55:11:171284,-3,4,-20,-7,-2,12,7,0
13:55:11:177304,-9,2,11,-23,-10,-2,-2,-18
13:55:11:184974,-24,-26,5,-19,-4,-11,-15,-7
13:55:11:192364,-24,-26,5,-19,-4,-11,-15,-7
13:55:11:199784,-7,6,30,13,0,5,0,2
13:55:11:208011,0,3,-42,-39,-7,-6,10,-2
13:55:11:208765,0,3,-42,-39,-7,-6,10,-2
13:55:11:214766,-10,-14,-42,4,-1,-5,5,-2
13:55:11:230451,7,-11,-8,5,-4,0,-5,1
13:55:11:231207,7,-11,-8,5,-4,0,-5,1
13:55:11:237261,-6,-7,13,-21,-9,0,13,-4
13:55:11:244792,5,8,8,-5,-2,1,2,-2
13:55:11:252357,5,8,8,-5,-2,1,2,-2
13:55:11:259826,7,2,30,46,6,9,3,5
13:55:11:268075,2,-3,-40,19,4,-8,-11,0
13:55:11:268780,2,-3,-40,19,4,-8,-11,0
13:55:11:274753,1,0,8,9,-3,5,16,-4
13:55:11:290550,9,-5,1,7,0,-4,6,11
13:55:11:291253,9,-5,1,7,0,-4,6,11
13:55:11:297244,-3,-11,-56,-26,1,-7,-11,-6
13:55:11:304907,-4,-7,8,3,15,1,0,0
13:55:11:312344,-4,-7,8,3,15,1,0,0
13:55:11:319840,10,31,16,24,5,5,1,4
13:55:11:328026,-4,-11,-28,20,-3,-2,1,-7
13:55:11:328837,-4,-11,-28,20,-3,-2,1,-7
13:55:11:334909,8,1,13,-51,-12,-6,-8,-1
13:55:11:350461,6,10,5,-6,-3,3,2,-7
13:55:11:351262,6,10,5,-6,-3,3,2,-7
13:55:11:357336,-2,-1,57,-31,6,3,-15,-1
13:55:11:364767,6,16,17,-41,-1,1,0,12
13:55:11:372428,6,16,17,-41,-1,1,0,12
13:55:11:379758,-3,8,9,25,10,-2,3,3
13:55:11:388039,-1,23,16,12,-2,-2,-8,-11
13:55:11:388823,-1,23,16,12,-2,-2,-8,-11
13:55:11:394814,4,-10,-9,9,-4,-3,2,-1
13:55:11:410529,-6,-3,-20,8,-9,-5,7,7
13:55:11:411310,-6,-3,-20,8,-9,-5,7,7
13:55:11:417289,-2,-2,-47,-19,8,2,5,1
13:55:11:424805,3,-19,-68,-23,1,5,-4,-3
13:55:11:432307,3,-19,-68,-23,1,5,-4,-3
13:55:11:439876,9,7,-7,17,-1,-3,-20,-2
13:55:11:447917,1,5,25,32,10,2,-4,5
13:55:11:448722,1,5,25,32,10,2,-4,5
13:55:11:454894,-37,-18,3,29,12,-1,0,-11
13:55:11:470507,-115,-13,8,-27,2,-10,10,4
13:55:11:471315,-115,-13,8,-27,2,-10,10,4
13:55:11:477298,51,12,67,15,-3,-6,5,4
13:55:11:484903,101,-5,-67,26,2,1,1,-6
13:55:11:492399,101,-5,-67,26,2,1,1,-6
13:55:11:499790,62,5,-21,-31,-5,-5,-8,-14
13:55:11:508003,53,2,9,9,4,4,4,7
13:55:11:508767,53,2,9,9,4,4,4,7
13:55:11:514700,24,9,-13,15,-4,5,0,1
13:55:11:530451,25,-6,4,-3,-7,5,-4,0
13:55:11:531231,25,-6,4,-3,-7,5,-4,0
13:55:11:537311,-1,-11,41,-9,-7,-6,-2,-4
13:55:11:544808,10,11,60,-7,0,-3,-15,-15
13:55:11:552427,10,11,60,-7,0,-3,-15,-15
13:55:11:559753,-7,19,-7,-1,-10,-1,12,5
13:55:11:568014,7,1,29,-12,2,-8,-2,-4
13:55:11:568770,7,1,29,-12,2,-8,-2,-4
13:55:11:574898,-3,-3,-11,-30,-2,-4,11,-3
13:55:11:590530,2,9,-33,-18,-8,1,3,7
13:55:11:591264,2,9,-33,-18,-8,1,3,7
13:55:11:597230,-3,-9,-9,-30,-7,-3,-5,-1
13:55:11:604775,0,-1,2,18,2,1,-4,-6
13:55:11:612320,0,-1,2,18,2,1,-4,-6
13:55:11:619764,25,-9,-52,22,2,1,-2,3
13:55:11:628002,38,14,47,7,-5,-7,-6,-11
13:55:11:628803,38,14,47,7,-5,-7,-6,-11
13:55:11:635024,23,2,34,-48,-5,-4,6,-1
13:55:11:650474,25,-4,3,-1,-7,-7,3,4
13:55:11:651304,25,-4,3,-1,-7,-7,3,4
13:55:11:657370,6,-3,-1,31,2,0,-6,7
13:55:11:664755,2,11,14,18,-2,4,4,3
13:55:11:672442,2,11,14,18,-2,4,4,3
13:55:11:679759,-9,-5,-12,1,11,-4,2,-15
13:55:11:688049,-13,-17,-82,2,2,4,5,0
13:55:11:688786,-13,-17,-82,2,2,4,5,0
13:55:11:694813,-7,12,-5,-10,-7,-5,2,1
13:55:11:710505,4,0,36,-1,9,1,-5,5
13:55:11:711372,4,0,36,-1,9,1,-5,5
13:55:11:717265,-6,2,20,22,13,8,0,14
13:55:11:724884,0,4,25,-2,-7,3,3,0
13:55:11:732327,0,4,25,-2,-7,3,3,0
13:55:11:739825,-8,-6,8,-14,-6,-6,-7,-9
13:55:11:747940,-10,3,59,4,2,-6,-13,-6
13:55:11:748713,-10,3,59,4,2,-6,-13,-6
13:55:11:762263,-1,-29,7,21,-5,2,2,8
13:55:11:770502,-16,-36,-1,-7,-6,-7,-3,-13
13:55:11:771273,-16,-36,-1,-7,-6,-7,-3,-13
13:55:11:777282,-4,-13,-62,-13,-6,-3,8,-3
13:55:11:792979,-3,15,9,-7,0,2,5,3
13:55:11:793775,-3,15,9,-7,0,2,5,3
13:55:11:799807,-1,-6,18,16,-3,3,-4,5
13:55:11:808054,-1,-11,-18,-1,2,-1,-3,0
13:55:11:808775,-1,-11,-18,-1,2,-1,-3,0
13:55:11:822346,7,-2,6,-20,5,13,2,10
13:55:11:830455,-12,1,-35,-2,2,6,23,0
13:55:11:831295,-12,1,-35,-2,2,6,23,0
13:55:11:837267,-4,5,9,20,-6,-7,-17,-14
13:55:11:853004,-6,-7,-81,-35,-10,-7,4,1
13:55:11:853786,-6,-7,-81,-35,-10,-7,4,1
13:55:11:859769,-1,-22,25,17,-1,-4,5,-2
13:55:11:868084,0,2,22,-4,3,2,-9,-5
13:55:11:868778,0,2,22,-4,3,2,-9,-5
13:55:11:882253,-12,2,-32,-2,4,-2,-7,-8
13:55:11:890569,14,1,23,18,16,5,-4,1
13:55:11:891312,14,1,23,18,16,5,-4,1
13:55:11:897228,-14,-22,7,-18,-6,-8,-5,-19
13:55:11:912995,-8,-1,-7,-3,-7,-3,0,0
13:55:11:913766,-8,-1,-7,-3,-7,-3,0,0
13:55:11:919812,4,21,51,24,9,-1,-7,2
13:55:11:928009,-8,-6,-10,-13,-3,-1,-9,-3
13:55:11:928810,-8,-6,-10,-13,-3,-1,-9,-3
13:55:11:942299,-10,7,62,-12,-5,-2,-6,-6
13:55:11:950461,-1,5,68,3,2,3,19,0
13:55:11:951293,-1,5,68,3,2,3,19,0
13:55:11:957364,0,2,-70,2,1,-5,-5,11
13:55:11:973028,-1,-1,8,6,-13,-1,-13,1
13:55:11:973772,-1,-1,8,6,-13,-1,-13,1
13:55:11:979761,4,-18,11,19,-8,1,9,8
13:55:11:988005,-4,4,-24,2,6,-4,-6,1
13:55:11:988768,-4,4,-24,2,6,-4,-6,1
13:55:12:2343,-3,12,3,-12,-1,2,8,-4
13:55:12:10484,-3,-29,-41,-28,-6,-4,1,-6
13:55:12:11317,-3,-29,-41,-28,-6,-4,1,-6
13:55:12:17328,-9,15,46,8,1,0,-6,0
13:55:12:32969,-9,15,46,8,1,0,-6,0
13:55:12:33773,4,8,22,12,3,-5,2,10
13:55:12:39856,-10,-2,-36,-25,5,-1,-4,-6
13:55:12:47288,-10,-2,-36,-25,5,-1,-4,-6
13:55:12:54893,1,13,-7,15,-6,-4,-6,10
13:55:12:62284,-10,6,-13,15,-2,-3,-23,-9
13:55:12:70521,-10,6,-13,15,-2,-3,-23,-9
13:55:12:71273,1,-16,-36,3,7,1,0,1
13:55:12:77288,1,3,-21,7,0,-1,-15,1
13:55:12:93028,1,3,-21,7,0,-1,-15,1
13:55:12:93811,7,21,46,30,-8,1,-3,-7
13:55:12:99785,6,2,-20,-12,5,-1,50,3
13:55:12:108082,6,2,-20,-12,5,-1,50,3
13:55:12:108792,-7,0,-6,0,4,-1,-5,-14
13:55:12:122287,0,10,-45,15,-2,-3,-5,-13
13:55:12:130480,0,10,-45,15,-2,-3,-5,-13
13:55:12:131291,-3,-11,24,-12,-9,-4,8,-1
13:55:12:137288,4,-11,19,-4,-3,5,-3,8
13:55:12:153022,4,-11,19,-4,-3,5,-3,8
13:55:12:153791,6,9,-16,5,1,-1,-5,2
13:55:12:159769,-4,-20,27,-2,-3,-6,-6,-1
13:55:12:168092,-4,-20,27,-2,-3,-6,-6,-1
13:55:12:168783,-7,-10,-23,5,1,-3,-3,8
13:55:12:182244,2,4,9,-2,-6,3,5,6
13:55:12:190543,2,4,9,-2,-6,3,5,6
13:55:12:191273,-4,3,82,17,-9,-3,-3,3
13:55:12:197254,-3,1,-5,9,7,1,-5,4
13:55:12:212977,-3,1,-5,9,7,1,-5,4
13:55:12:213779,-7,4,24,-22,9,1,-2,-7
13:55:12:219782,7,4,21,4,-4,6,12,15
13:55:12:228024,7,4,21,4,-4,6,12,15
13:55:12:228778,0,-12,-23,0,-6,-4,2,7
13:55:12:242308,-4,2,-19,-16,16,5,-3,3
13:55:12:250485,-4,2,-19,-16,16,5,-3,3
13:55:12:251295,-3,-1,82,-19,-11,-3,-8,-4
13:55:12:257404,-6,1,25,-28,-18,-4,1,-7
13:55:12:273061,-6,1,25,-28,-18,-4,1,-7
13:55:12:273735,-21,-35,-36,-11,-4,-5,34,1
13:55:12:279794,-2,-10,-13,-6,0,-8,-9,-14
13:55:12:288087,-2,-10,-13,-6,0,-8,-9,-14
13:55:12:288790,4,-3,-33,-18,-7,8,-12,-1
13:55:12:302389,-3,0,-39,2,0,0,-4,-11
13:55:12:310501,-3,0,-39,2,0,0,-4,-11
13:55:12:311270,4,5,-23,-12,-4,-2,-2,0
13:55:12:317303,4,1,16,9,1,1,10,11
13:55:12:333031,4,1,16,9,1,1,10,11
13:55:12:333770,1,11,-86,3,31,6,4,1
13:55:12:339903,-3,-6,-1,20,-6,-11,-23,-12
13:55:12:347983,-3,-6,-1,20,-6,-11,-23,-12
13:55:12:348720,7,26,33,14,4,3,-13,6
13:55:12:362271,-6,-38,-93,-25,-5,-12,5,-6
13:55:12:370427,-6,-38,-93,-25,-5,-12,5,-6
13:55:12:371285,-6,-2,54,36,-1,-4,0,-3
13:55:12:377314,3,8,6,-12,0,5,6,8
13:55:12:393012,3,8,6,-12,0,5,6,8
13:55:12:393823,3,1,-20,-6,-11,-4,-2,-6
13:55:12:399763,1,4,4,12,-13,1,-2,-5
13:55:12:408029,1,4,4,12,-13,1,-2,-5
13:55:12:408754,1,-15,2,9,-7,-10,-25,-3
13:55:12:422302,-3,-8,106,4,-5,-1,-9,-3
13:55:12:430494,-3,-8,106,4,-5,-1,-9,-3
13:55:12:431285,10,7,-18,11,1,1,0,7
13:55:12:437317,-4,-10,21,13,3,-9,7,3
13:55:12:453065,-4,-10,21,13,3,-9,7,3
13:55:12:453784,-1,1,-58,20,6,2,-5,-11
13:55:12:459804,10,18,3,-18,-1,-4,-13,0
13:55:12:467982,10,18,3,-18,-1,-4,-13,0
13:55:12:468758,2,0,-1,-19,-13,-1,13,1
13:55:12:482335,-16,-31,-61,-26,-2,-2,-26,-15
13:55:12:490581,-16,-31,-61,-26,-2,-2,-26,-15
13:55:12:491307,-12,-27,-12,-27,-5,-2,-3,-4
13:55:12:504821,12,18,10,13,1,5,12,7
13:55:12:513004,12,18,10,13,1,5,12,7
13:55:12:513761,2,-2,-5,-2,-4,-8,-5,-8
13:55:12:519813,-1,7,-1,-14,-8,2,32,9
13:55:12:527742,-1,7,-1,-14,-8,2,32,9
13:55:12:534896,2,3,61,16,5,-1,-1,-8
13:55:12:542267,4,-15,-12,-19,5,-3,22,13
13:55:12:550456,4,-15,-12,-19,5,-3,22,13
13:55:12:551244,-4,7,-28,-17,10,3,1,11
13:55:12:557394,11,35,61,30,-1,9,-1,3
13:55:12:573082,11,35,61,30,-1,9,-1,3
13:55:12:573822,-3,1,4,-3,-4,-3,-6,0
13:55:12:579782,-11,6,2,-1,-1,-9,-6,-9
13:55:12:588032,-11,6,2,-1,-1,-9,-6,-9
13:55:12:588781,-6,-8,-2,-2,-3,-7,-5,-5
13:55:12:602326,-13,-72,-31,6,-3,-4,-5,-6
13:55:12:610523,-13,-72,-31,6,-3,-4,-5,-6
13:55:12:611309,-4,-9,-83,-14,-6,-3,-12,-2
13:55:12:617267,10,30,-1,-19,-3,-1,1,-3
13:55:12:633023,10,30,-1,-19,-3,-1,1,-3
13:55:12:633756,4,1,28,6,8,1,4,9
13:55:12:639852,-1,25,-44,4,0,4,8,2
13:55:12:647970,-1,25,-44,4,0,4,8,2
13:55:12:648787,4,20,63,14,-1,1,5,-3
13:55:12:662317,-3,6,4,9,2,4,-1,-2
13:55:12:670523,-3,6,4,9,2,4,-1,-2
13:55:12:671240,-6,-7,-9,-7,-3,5,7,-4
13:55:12:684902,-2,-7,18,-27,2,-9,28,8
13:55:12:693062,-2,-7,18,-27,2,-9,28,8
13:55:12:693813,-13,13,-22,-52,1,-4,3,-5
13:55:12:699736,0,17,-2,13,-8,1,0,3
13:55:12:707497,0,17,-2,13,-8,1,0,3
13:55:12:714740,-5,-26,-14,-5,-6,-1,4,-5
13:55:12:722326,8,28,6,15,-5,-6,-19,-10
13:55:12:730433,8,28,6,15,-5,-6,-19,-10
13:55:12:731227,1,-9,-4,-40,-7,-1,-10,-1
13:55:12:744793,-1,17,11,8,10,0,-18,-3
13:55:12:753025,-1,17,11,8,10,0,-18,-3
13:55:12:753763,12,0,-20,-5,-1,9,16,16
13:55:12:759771,-2,4,-23,-10,-3,-5,-28,-11
13:55:12:767314,-2,4,-23,-10,-3,-5,-28,-11
13:55:12:774951,-6,-30,32,17,2,-7,-4,-10
13:55:12:782270,-6,1,6,18,2,4,-5,-12
13:55:12:790578,-6,1,6,18,2,4,-5,-12
13:55:12:791320,5,17,62,-15,-3,-3,-2,-12
13:55:12:804834,3,-10,78,67,3,3,1,-1
13:55:12:813000,3,-10,78,67,3,3,1,-1
13:55:12:813784,-6,10,-1,20,1,-2,-2,-2
13:55:12:819816,9,-2,-35,-13,9,2,-2,26
13:55:12:827321,9,-2,-35,-13,9,2,-2,26
13:55:12:835019,-13,-29,-60,34,8,-4,-34,-12
13:55:12:842325,-6,-8,-33,-16,-8,-3,19,4
13:55:12:850486,-6,-8,-33,-16,-8,-3,19,4
13:55:12:851302,-3,23,5,-52,-5,0,-5,-2
13:55:12:864788,10,8,-39,-10,2,7,6,-14
13:55:12:873066,10,8,-39,-10,2,7,6,-14
13:55:12:873762,-11,-2,49,29,-9,-8,-14,1
13:55:12:879783,4,20,22,-10,2,7,-2,8
13:55:12:887345,4,20,22,-10,2,7,-2,8
13:55:12:894777,-2,-18,70,21,2,5,-43,5
13:55:12:902332,-4,-5,-33,-15,-17,-5,-16,-6
13:55:12:910507,-4,-5,-33,-15,-17,-5,-16,-6
13:55:12:911289,13,11,-11,-14,5,6,3,7
13:55:12:924815,-15,-57,103,-13,-3,-13,5,-3
13:55:12:932949,-15,-57,103,-13,-3,-13,5,-3
13:55:12:933730,1,-2,-24,7,-5,1,33,3
13:55:12:939830,4,-2,-7,-13,-2,-1,-1,2
13:55:12:947300,4,-2,-7,-13,-2,-1,-1,2
13:55:12:954880,-2,24,-17,-7,2,-4,4,1
13:55:12:962309,-5,-19,6,0,-1,0,-45,-4
13:55:12:970484,-5,-19,6,0,-1,0,-45,-4
13:55:12:971294,10,12,-33,-3,-13,-4,18,7
13:55:12:984886,-12,-15,-107,-23,1,-2,-21,-17
13:55:12:993049,-12,-15,-107,-23,1,-2,-21,-17
13:55:12:993813,-4,-4,11,5,1,-3,9,0
13:55:12:999805,-3,2,29,23,1,-1,14,3
13:55:13:7444,-3,2,29,23,1,-1,14,3
13:55:13:14754,6,14,9,25,2,-1,-2,-2
13:55:13:22370,5,24,15,-16,7,0,20,13
13:55:13:30446,5,24,15,-16,7,0,20,13
13:55:13:31267,0,-26,-22,-50,-3,-2,1,-11
13:55:13:44815,5,7,-11,-15,-12,-5,17,7
13:55:13:53022,5,7,-11,-15,-12,-5,17,7
13:55:13:53765,8,5,33,19,1,0,15,0
13:55:13:59806,-7,-2,16,-12,4,8,-5,-4
13:55:13:67323,-7,-2,16,-12,4,8,-5,-4
13:55:13:74854,0,-10,-22,-20,-3,-1,21,1
13:55:13:91309,-1,3,51,17,0,-4,1,1
13:55:13:91983,-1,3,51,17,0,-4,1,1
13:55:13:92782,-5,-7,-88,19,0,-1,-33,-16
13:55:13:104850,3,-6,28,-1,5,-3,-5,-7
13:55:13:113037,3,-6,28,-1,5,-3,-5,-7
13:55:13:113752,0,-15,33,25,4,1,4,13
13:55:13:119789,-10,-39,-118,-20,-12,-8,2,-14
13:55:13:127375,-10,-39,-118,-20,-12,-8,2,-14
13:55:13:134887,5,14,19,13,-4,1,-2,2
13:55:13:142291,-4,7,93,24,-3,-5,-2,7
13:55:13:150485,-4,7,93,24,-3,-5,-2,7
13:55:13:151193,-10,-4,10,-21,0,-1,-6,-5
13:55:13:164790,-8,10,23,7,2,3,27,-8
13:55:13:173080,-8,10,23,7,2,3,27,-8
13:55:13:173835,-6,12,11,21,7,-8,-17,-7
13:55:13:179782,12,12,13,-2,-1,1,-11,3
13:55:13:187336,12,12,13,-2,-1,1,-11,3
13:55:13:194821,5,25,38,-6,-10,1,14,0
13:55:13:202361,-5,-2,-26,12,10,-1,-3,-2
13:55:13:211581,-5,-2,-26,12,10,-1,-3,-2
13:55:13:217318,-6,-34,-17,6,-9,-5,-1,1
13:55:13:224873,6,5,10,-23,-3,10,10,4
13:55:13:232994,6,5,10,-23,-3,10,10,4
13:55:13:233753,5,6,0,7,0,1,3,-3
13:55:13:239869,-7,-16,-41,5,-2,-9,-8,9
13:55:13:247294,-7,-16,-41,5,-2,-9,-8,9
13:55:13:254833,-14,-31,-29,-13,-4,-8,-9,-7
13:55:13:262259,-2,11,40,-24,-2,-1,7,4
13:55:13:270499,-2,11,40,-24,-2,-1,7,4
13:55:13:271283,3,20,-55,-2,2,4,3,1
13:55:13:284867,5,-38,7,14,3,-4,21,5
13:55:13:293013,5,-38,7,14,3,-4,21,5
13:55:13:293802,12,-5,26,-29,-3,9,9,1
13:55:13:299767,17,15,19,10,12,5,-5,5
13:55:13:307380,17,15,19,10,12,5,-5,5
13:55:13:314760,0,-1,51,11,4,-6,-10,-5
13:55:13:322359,-12,3,12,-36,-12,-3,-8,-12
13:55:13:330449,-12,3,12,-36,-12,-3,-8,-12
13:55:13:331224,-4,14,17,-5,1,4,-2,0
13:55:13:344834,2,12,38,-13,-1,1,-10,-4
13:55:13:353070,2,12,38,-13,-1,1,-10,-4
13:55:13:353768,0,-1,-53,-9,-4,-3,22,3
13:55:13:359813,3,17,-19,40,-7,-2,-34,-14
13:55:13:367287,3,17,-19,40,-7,-2,-34,-14
13:55:13:374917,-21,-23,2,-18,6,-1,-7,-10
13:55:13:382247,1,-5,27,-7,1,0,7,13
13:55:13:390544,1,-5,27,-7,1,0,7,13
13:55:13:391269,2,5,-34,-5,6,0,-11,-4
13:55:13:404790,1,3,-27,19,-14,0,-4,-1
13:55:13:412967,1,3,-27,19,-14,0,-4,-1
13:55:13:413746,-1,2,11,-5,-7,-6,2,4
13:55:13:419822,-2,-15,-4,5,4,-2,2,2
13:55:13:427347,-2,-15,-4,5,4,-2,2,2
13:55:13:434986,2,1,9,-5,2,-4,2,-2
13:55:13:442353,-9,-8,-7,0,-4,-3,1,-3
13:55:13:450530,-9,-8,-7,0,-4,-3,1,-3
13:55:13:451307,1,-6,9,33,7,0,-1,-2
13:55:13:464828,-4,-14,-75,-13,1,-9,-16,-5
13:55:13:473049,-4,-14,-75,-13,1,-9,-16,-5
13:55:13:473814,0,-12,-24,0,-7,0,-7,4
13:55:13:479789,2,-13,-6,30,7,0,8,-5
13:55:13:495467,2,-13,-6,30,7,0,8,-5
13:55:13:496270,4,-2,1,5,-5,-8,-7,3
13:55:13:502397,-2,0,19,9,0,-2,2,-2
13:55:13:510509,-2,0,19,9,0,-2,2,-2
13:55:13:511285,-14,-25,6,4,1,0,6,-8
13:55:13:524855,2,0,-59,8,-6,3,8,-8
13:55:13:532937,2,0,-59,8,-6,3,8,-8
13:55:13:533776,2,7,24,-8,-4,8,7,2
13:55:13:539893,-2,3,16,-32,-3,-2,0,1
13:55:13:547281,-2,3,16,-32,-3,-2,0,1
13:55:13:554821,7,16,-7,16,3,2,-20,0
13:55:13:562247,1,6,14,-10,-4,-4,-5,-3
13:55:13:570525,1,6,14,-10,-4,-4,-5,-3
13:55:13:571272,-1,-9,-35,4,4,-2,-4,0
13:55:13:584958,-4,-11,-22,5,7,0,1,-1
13:55:13:592979,-4,-11,-22,5,7,0,1,-1
13:55:13:593759,3,3,24,34,-7,-1,4,5
13:55:13:599732,-5,-19,-18,-2,-6,-1,-1,-1
13:55:13:607396,-5,-19,-18,-2,-6,-1,-1,-1
13:55:13:614722,-21,-1,-55,-26,5,0,2,4
13:55:13:622441,2,14,49,-3,-1,-3,-10,2
13:55:13:629807,2,14,49,-3,-1,-3,-10,2
13:55:13:637332,0,-26,-2,-14,1,0,0,-13
13:55:13:644813,-1,8,22,-19,3,3,-2,1
13:55:13:653063,-1,8,22,-19,3,3,-2,1
13:55:13:653772,-3,15,30,8,5,-4,8,-15
13:55:13:667978,13,-26,-19,21,2,6,-17,-4
13:55:13:668754,13,-26,-19,21,2,6,-17,-4
13:55:13:674806,1,31,58,1,-9,-2,-5,-2
13:55:13:682298,0,15,3,-11,-5,-3,-1,4
13:55:13:689909,0,15,3,-11,-5,-3,-1,4
13:55:13:697297,12,6,50,-7,-3,2,-7,-10
13:55:13:704805,-19,8,28,-32,-7,-3,2,-25
13:55:13:712995,-19,8,28,-32,-7,-3,2,-25
13:55:13:713731,-3,-3,-54,-11,2,-8,-3,2
13:55:13:727947,-9,4,-4,24,-1,0,16,5
13:55:13:728733,-9,4,-4,24,-1,0,16,5
13:55:13:734938,-5,2,8,-25,-10,-3,-2,-2
13:55:13:742319,2,-4,-40,7,-8,-2,9,5
13:55:13:749779,2,-4,-40,7,-8,-2,9,5
13:55:13:757443,2,-15,30,5,-5,-4,0,9
13:55:13:764779,3,-12,24,11,6,5,2,-3
13:55:13:773097,3,-12,24,11,6,5,2,-3
13:55:13:773762,-9,-10,56,15,-2,-3,3,9
13:55:13:788017,1,18,-3,2,1,2,-11,1
13:55:13:788779,1,18,-3,2,1,2,-11,1
13:55:13:794791,1,3,-20,-10,-2,1,-1,10
13:55:13:802355,5,14,-21,-21,2,4,-3,5
13:55:13:809874,5,14,-21,-21,2,4,-3,5
13:55:13:817282,-8,2,-24,-39,1,0,12,-13
13:55:13:824837,-2,-19,-17,-24,0,6,-4,-1
13:55:13:832984,-2,-19,-17,-24,0,6,-4,-1
13:55:13:833786,3,-4,-44,15,-3,3,-30,-2
13:55:13:847953,-4,-5,29,-11,1,-9,-1,3
13:55:13:848723,-4,-5,29,-11,1,-9,-1,3
13:55:13:854877,-5,4,-35,6,1,4,-3,4
13:55:13:862308,6,18,1,28,-3,-9,-3,2
13:55:13:869906,6,18,1,28,-3,-9,-3,2
13:55:13:877287,-7,-6,-14,8,-11,-4,-1,-6
13:55:13:884871,2,-2,-70,-16,-4,3,-1,-6
13:55:13:893053,2,-2,-70,-16,-4,3,-1,-6
13:55:13:893783,4,-4,-8,10,-8,1,3,3
13:55:13:908048,-4,5,48,20,6,0,3,5
13:55:13:908815,-4,5,48,20,6,0,3,5
13:55:13:914713,0,1,-15,-12,0,-5,-5,-9
13:55:13:922332,-4,1,36,-31,-8,-8,35,-5
13:55:13:929800,-4,1,36,-31,-8,-8,35,-5
13:55:13:937345,-1,-1,33,1,14,1,5,10
13:55:13:944811,-8,-10,-3,-7,13,4,-17,-10
13:55:13:952960,-8,-10,-3,-7,13,4,-17,-10
13:55:13:953689,7,-4,43,10,-3,0,0,-1
13:55:13:968008,-5,-13,-39,2,-14,-10,-8,-2
13:55:13:968802,-5,-13,-39,2,-14,-10,-8,-2
13:55:13:974891,11,6,31,-30,5,11,7,9
13:55:13:982261,-3,-12,-27,5,-2,-1,-2,-4
13:55:13:989904,-3,-12,-27,5,-2,-1,-2,-4
13:55:13:997252,6,18,-2,18,-3,0,7,2
13:55:14:4882,0,2,-23,3,7,2,-3,0
13:55:14:12992,0,2,-23,3,7,2,-3,0
13:55:14:13777,1,-2,-30,-4,-12,-3,-5,-13
13:55:14:27979,-7,3,20,5,0,-3,5,-10
13:55:14:28788,-7,3,20,5,0,-3,5,-10
13:55:14:35029,-1,-9,14,22,5,-11,-3,-12
13:55:14:50525,-7,-12,29,19,3,1,-3,-3
13:55:14:51264,-7,-12,29,19,3,1,-3,-3
13:55:14:57359,-3,-2,12,-20,-8,-2,-3,-5
13:55:14:64766,6,-1,-7,2,-7,-1,0,11
13:55:14:73003,6,-1,-7,2,-7,-1,0,11
13:55:14:73731,-4,7,39,11,2,-1,5,1
13:55:14:87959,-1,1,1,-3,-4,-5,-8,0
13:55:14:88749,-1,1,1,-3,-4,-5,-8,0
13:55:14:94774,-1,-7,3,12,4,-2,-4,-2
13:55:14:102369,-7,-14,-27,2,-2,4,0,3
13:55:14:109852,-7,-14,-27,2,-2,4,0,3
13:55:14:117326,-4,-9,-20,11,10,-5,-8,-1
13:55:14:124885,13,14,15,5,8,3,-3,0
13:55:14:140543,13,14,15,5,8,3,-3,0
13:55:14:141261,5,-2,-28,-10,0,4,-7,9
13:55:14:147899,-7,-24,12,-13,-16,-5,4,-15
13:55:14:148754,-7,-24,12,-13,-16,-5,4,-15
13:55:14:154784,0,-13,-32,-13,1,2,-3,1
13:55:14:170411,7,5,-3,-4,0,-4,-7,16
13:55:14:171278,7,5,-3,-4,0,-4,-7,16
13:55:14:177306,-6,-6,-11,-26,-6,-4,6,-7
13:55:14:184924,3,-11,32,3,1,3,0,3
13:55:14:192953,3,-11,32,3,1,3,0,3
13:55:14:193748,-6,5,-13,-7,-18,-3,-8,-5
13:55:14:207968,-24,-29,-58,15,-9,-12,-16,-12
13:55:14:208849,-24,-29,-58,15,-9,-12,-16,-12
13:55:14:214758,-2,-7,-25,35,5,3,-11,1
13:55:14:222319,-1,7,10,1,-3,-6,-5,-16
13:55:14:229820,-1,7,10,1,-3,-6,-5,-16
13:55:14:237281,8,24,93,25,10,14,15,7
13:55:14:244810,-3,28,21,-3,6,5,6,3
13:55:14:253090,-3,28,21,-3,6,5,6,3
13:55:14:253837,6,9,6,-18,-4,-11,6,1
13:55:14:267947,10,3,5,-14,-9,-7,10,3
13:55:14:268737,10,3,5,-14,-9,-7,10,3
13:55:14:274755,11,6,-20,-16,-5,-4,69,-3
13:55:14:282292,1,10,5,35,15,7,-3,-7
13:55:14:289885,1,10,5,35,15,7,-3,-7
13:55:14:297249,-5,-7,11,10,5,1,-18,-1
13:55:14:304774,5,19,38,13,1,0,15,9
13:55:14:313022,5,19,38,13,1,0,15,9
13:55:14:313784,-7,-15,-63,-13,-7,-4,-15,0
13:55:14:327964,5,-12,-27,-12,-8,-6,-18,-1
13:55:14:328785,5,-12,-27,-12,-8,-6,-18,-1
13:55:14:334931,-8,-14,-78,-24,2,-3,-3,4
13:55:14:342299,5,6,-5,7,6,0,-6,1
13:55:14:349813,5,6,-5,7,6,0,-6,1
13:55:14:357358,-7,0,60,-41,-7,-2,-19,-13
13:55:14:364732,-9,-18,6,-11,-6,-7,-24,-10
13:55:14:373092,-9,-18,6,-11,-6,-7,-24,-10
13:55:14:373772,1,3,22,-5,-2,-2,0,1
13:55:14:388044,11,5,-48,-12,6,8,5,11
13:55:14:388779,11,5,-48,-12,6,8,5,11
13:55:14:394778,4,-14,-61,-1,-2,-5,14,4
13:55:14:402355,-5,-17,7,-3,3,2,3,-5
13:55:14:409893,-5,-17,7,-3,3,2,3,-5
13:55:14:417320,0,1,-11,-20,-2,2,-4,-6
13:55:14:424843,3,14,17,-3,-8,1,-6,6
13:55:14:432973,3,14,17,-3,-8,1,-6,6
13:55:14:433756,-2,7,44,33,6,2,-21,-2
13:55:14:447938,2,15,84,2,-3,-2,10,2
13:55:14:448729,2,15,84,2,-3,-2,10,2
13:55:14:454935,-2,8,-16,9,-1,2,7,8
13:55:14:462272,13,10,-11,-13,-5,0,-17,-6
13:55:14:469827,13,10,-11,-13,-5,0,-17,-6
13:55:14:477309,2,-16,21,8,-10,-3,13,3
13:55:14:484914,-27,-35,4,10,-2,-10,-28,-23
13:55:14:492986,-27,-35,4,10,-2,-10,-28,-23
13:55:14:493755,-1,-15,-15,-23,-7,1,3,-5
13:55:14:507991,2,18,-43,-19,10,7,22,12
13:55:14:508741,2,18,-43,-19,10,7,22,12
13:55:14:514780,-8,1,-46,9,16,1,-9,-8
13:55:14:522404,-4,1,42,12,-11,0,0,-2
13:55:14:529811,-4,1,42,12,-11,0,0,-2
13:55:14:537216,7,2,14,1,1,-8,-16,2
13:55:14:544754,-3,2,-31,-6,8,-3,-3,1
13:55:14:553091,-3,2,-31,-6,8,-3,-3,1
13:55:14:553738,-7,8,29,-21,6,-2,-3,-12
13:55:14:568032,-5,-9,-18,-10,-2,0,6,-6
13:55:14:568747,-5,-9,-18,-10,-2,0,6,-6
13:55:14:574759,9,13,68,-17,-9,-4,1,3
13:55:14:590619,3,10,15,-4,-1,0,-5,3
13:55:14:591236,3,10,15,-4,-1,0,-5,3
13:55:14:597264,-7,-1,10,19,1,0,4,-1
13:55:14:604856,-3,-1,-28,8,-4,0,10,5
13:55:14:612341,-3,-1,-28,8,-4,0,10,5
13:55:14:619791,4,-5,6,-4,-4,2,-13,0
13:55:14:627985,17,4,34,7,-3,-6,0,1
13:55:14:628763,17,4,34,7,-3,-6,0,1
13:55:14:634837,3,3,-36,-7,-12,0,-5,0
13:55:14:650481,6,5,16,-8,-4,4,-3,-1
13:55:14:651360,6,5,16,-8,-4,4,-3,-1
13:55:14:657331,-1,3,1,6,-1,12,-31,3
13:55:14:664739,-7,-18,-39,-13,-1,-7,1,-6
13:55:14:672447,-7,-18,-39,-13,-1,-7,1,-6
13:55:14:679775,-30,-27,-27,7,-2,-10,-8,-10
13:55:14:688077,1,7,23,-6,5,4,7,-6
13:55:14:688862,1,7,23,-6,5,4,7,-6
13:55:14:694792,18,-1,9,11,0,-3,1,2
13:55:14:710507,-6,-13,-5,18,4,1,-5,2
13:55:14:711308,-6,-13,-5,18,4,1,-5,2
13:55:14:717282,0,16,-24,-12,1,1,10,6
13:55:14:724834,-5,-6,-28,-6,-7,-8,-8,3
13:55:14:732354,-5,-6,-28,-6,-7,-8,-8,3
13:55:14:739795,4,-11,-14,-4,6,0,33,4
13:55:14:747917,-4,9,59,-10,-7,1,4,2
13:55:14:748728,-4,9,59,-10,-7,1,4,2
13:55:14:754829,2,2,8,24,-7,-7,15,6
13:55:14:770563,-1,-1,6,28,18,3,16,10
13:55:14:771293,-1,-1,6,28,18,3,16,10
13:55:14:777285,-3,-11,38,15,5,-1,-2,9
13:55:14:784881,-8,-4,-58,-10,-3,-1,-7,-6
13:55:14:792373,-8,-4,-58,-10,-3,-1,-7,-6
13:55:14:799779,2,15,11,3,1,-6,-5,-1
13:55:14:807988,-2,-2,-9,-15,1,4,10,-9
13:55:14:808771,-2,-2,-9,-15,1,4,10,-9
13:55:14:814764,-4,-14,-8,-5,-8,-8,-17,-4
13:55:14:830450,2,8,-12,1,0,-3,2,-1
13:55:14:831220,2,8,-12,1,0,-3,2,-1
13:55:14:837288,-6,19,-5,-9,-5,1,-4,-9
13:55:14:844802,-8,-15,-42,42,8,5,2,0
13:55:14:852351,-8,-15,-42,42,8,5,2,0
13:55:14:859809,1,2,29,-25,-4,-2,3,1
13:55:14:868047,3,0,4,-4,-4,-2,-4,3
13:55:14:868755,3,0,4,-4,-4,-2,-4,3
13:55:14:882275,-6,-13,-8,0,-4,-3,1,-1
13:55:14:890551,-7,-22,1,-25,-2,-3,2,-11
13:55:14:891274,-7,-22,1,-25,-2,-3,2,-11
13:55:14:897210,-9,-1,-2,-9,-5,0,-4,-11
13:55:14:912950,-1,10,-32,-13,-11,-2,-4,1
13:55:14:913733,-1,10,-32,-13,-11,-2,-4,1
13:55:14:919805,5,13,0,29,-2,0,10,8
13:55:14:927992,-8,-33,11,-7,1,-7,-24,-14
13:55:14:928784,-8,-33,11,-7,1,-7,-24,-14
13:55:14:934884,-2,1,4,-21,-1,-2,-14,-7
13:55:14:950502,12,26,26,11,-2,-2,10,7
13:55:14:951290,12,26,26,11,-2,-2,10,7
13:55:14:957323,2,-18,-9,5,9,9,8,4
13:55:14:964725,-14,3,15,9,-4,-8,-1,1
13:55:14:972363,-14,3,15,9,-4,-8,-1,1
13:55:14:979749,-6,-4,-12,-30,0,6,-4,-9
13:55:14:988027,2,6,28,10,-11,-10,2,-1
13:55:14:988809,2,6,28,10,-11,-10,2,-1
13:55:15:2290,0,0,-12,5,1,-3,-2,4
13:55:15:10508,-5,6,-1,-22,-5,-1,15,-1
13:55:15:11299,-5,6,-1,-22,-5,-1,15,-1
13:55:15:17210,10,6,-23,20,9,2,-6,-3
13:55:15:24837,-18,-15,25,-79,-13,-8,-14,-9
13:55:15:32339,-18,-15,25,-79,-13,-8,-14,-9
13:55:15:39843,3,2,9,14,-10,-3,-8,-2
13:55:15:47940,15,4,8,13,-14,-2,4,7
13:55:15:48778,15,4,8,13,-14,-2,4,7
13:55:15:54821,-7,-11,-9,6,5,5,3,-6
13:55:15:70481,2,-1,30,0,4,0,-2,-3
13:55:15:71262,2,-1,30,0,4,0,-2,-3
13:55:15:77295,-9,4,44,38,1,-2,1,1
13:55:15:84884,4,-9,17,45,10,1,-12,-8
