Time,EMG1,EMG2,EMG3,EMG4,EMG5,EMG6,EMG7,EMG8
13:54:17:575617,1,0,1,0,-3,-1,-4,-6
13:54:17:576382,-3,-1,2,-3,0,-2,0,-4
13:54:17:582369,-1,-1,-3,1,1,0,-1,-6
13:54:17:590775,-1,-1,-3,1,1,0,-1,-6
13:54:17:591411,-5,-1,-1,0,-4,-3,0,5
13:54:17:597422,-1,2,-2,0,-3,-1,-1,-3
13:54:17:613083,-1,2,-2,0,-3,-1,-1,-3
13:54:17:613890,3,1,-4,-4,-2,1,0,-4
13:54:17:619937,3,-3,3,-1,-2,-2,0,-1
13:54:17:635660,3,-3,3,-1,-2,-2,0,-1
13:54:17:636384,-1,0,-1,0,0,-2,1,-1
13:54:17:642363,-1,0,-1,-2,-6,-3,0,2
13:54:17:650648,-1,0,-1,-2,-6,-3,0,2
13:54:17:651393,1,-2,0,1,-1,0,-1,-4
13:54:17:657460,-9,-2,-1,0,0,2,0,-4
13:54:17:673228,-9,-2,-1,0,0,2,0,-4
13:54:17:674136,2,-1,0,-1,-3,-2,-3,1
13:54:17:679846,4,-2,-3,-2,2,-3,0,4
13:54:17:695583,4,-2,-3,-2,2,-3,0,4
13:54:17:696347,-1,-3,-2,0,2,0,0,-2
13:54:17:702410,-4,-1,-2,-3,-1,0,0,-7
13:54:17:710661,-4,-1,-2,-3,-1,0,0,-7
13:54:17:711407,-2,-2,1,-2,-2,-1,0,-1
13:54:17:717398,-2,0,0,0,0,-2,-4,3
13:54:17:733096,-2,0,0,0,0,-2,-4,3
13:54:17:733845,-1,1,-2,-1,1,0,-2,-3
13:54:17:739969,3,0,2,-1,-2,-4,-3,-3
13:54:17:747399,3,0,2,-1,-2,-4,-3,-3
13:54:17:754969,-2,-3,2,0,-2,-4,-2,6
13:54:17:762349,-1,-2,1,-1,0,-2,-1,2
13:54:17:770606,-1,-2,1,-1,0,-2,-1,2
13:54:17:771405,-1,0,-3,0,0,-1,0,-7
13:54:17:777417,-1,-2,-2,-2,-2,0,1,4
13:54:17:793099,-1,-2,-2,-2,-2,0,1,4
13:54:17:793896,-3,0,0,-4,1,1,0,2
13:54:17:799862,0,0,0,-2,0,-1,4,-1
13:54:17:807492,0,0,0,-2,0,-1,4,-1
13:54:17:814874,-3,0,-1,0,0,-2,-6,-4
13:54:17:822482,-2,-3,-3,0,0,-2,-1,4
13:54:17:830635,-2,-3,-3,0,0,-2,-1,4
13:54:17:831414,5,0,-3,-1,-3,-3,-1,-5
13:54:17:837464,2,0,2,-1,-2,-1,-6,-7
13:54:17:853127,2,0,2,-1,-2,-1,-6,-7
13:54:17:853869,-4,0,-1,1,-1,-1,0,-2
13:54:17:859935,-1,-2,-4,1,1,2,3,1
13:54:17:867581,-1,-2,-4,1,1,2,3,1
13:54:17:874933,-2,-2,-3,-2,-3,-3,-2,6
13:54:17:882406,-3,-2,0,-1,0,0,-4,-4
13:54:17:890703,-3,-2,0,-1,0,0,-4,-4
13:54:17:891414,1,-1,0,0,-1,-1,-1,-4
13:54:17:897373,2,-2,-2,-2,-1,0,-1,-3
13:54:17:913596,2,-2,-2,-2,-1,0,-1,-3
13:54:17:914353,-1,-3,1,-2,-1,1,2,1
13:54:17:919915,2,0,-3,-2,1,-2,1,1
13:54:17:927487,2,0,-3,-2,1,-2,1,1
13:54:17:934974,-4,-2,-3,-1,-4,2,-2,0
13:54:17:942444,-6,2,0,1,-2,-2,-3,-4
13:54:17:950628,-6,2,0,1,-2,-2,-3,-4
13:54:17:951402,0,1,0,-2,-1,-3,-3,-2
13:54:17:957470,0,-3,-1,0,-3,0,-2,-1
13:54:17:973163,0,-3,-1,0,-3,0,-2,-1
13:54:17:973868,-2,1,-3,-1,0,-1,1,2
13:54:17:979870,-1,-2,0,-1,-1,-3,-1,-2
13:54:18:3849,-1,-2,0,-1,-1,-3,-1,-2
13:54:18:4540,2,-3,2,-2,-1,-1,-2,6
13:54:18:5390,-1,1,1,0,-2,-3,-4,-5
13:54:18:10620,-1,1,1,0,-2,-3,-4,-5
13:54:18:11414,-1,0,-1,-2,0,3,-2,-9
13:54:18:17548,-2,-2,0,-2,-1,-1,1,2
13:54:18:33118,-2,-2,0,-2,-1,-1,1,2
13:54:18:33897,0,-1,-3,2,0,-4,-1,0
13:54:18:39981,-2,-3,-2,-2,-2,-1,-2,-5
13:54:18:55681,-2,-3,-2,-2,-2,-1,-2,-5
13:54:18:56409,-1,-2,2,-1,0,1,-1,1
13:54:18:62363,-4,-1,-2,-1,-2,-1,1,0
13:54:18:70695,-4,-1,-2,-1,-2,-1,1,0
13:54:18:71394,0,-2,2,0,-1,-2,-2,-3
13:54:18:77400,1,-1,-1,-2,-1,1,0,0
13:54:18:93135,1,-1,-1,-2,-1,1,0,0
13:54:18:93920,1,-1,-4,-1,-1,-3,-5,-1
13:54:18:99863,-2,-1,0,0,0,-2,1,0
13:54:18:115568,-2,-1,0,0,0,-2,1,0
13:54:18:116335,-2,-3,1,0,-5,-1,2,-4
13:54:18:122509,-3,1,-2,0,3,-1,1,-5
13:54:18:130314,-3,1,-2,0,3,-1,1,-5
13:54:18:137448,1,0,-2,-1,0,-2,-3,2
13:54:18:144896,2,-1,-1,0,-1,0,-4,1
13:54:18:161248,2,-1,-1,0,-1,0,-4,1
13:54:18:162059,-1,0,0,-1,2,-4,2,3
13:54:18:162867,-2,-4,1,0,-2,1,2,-2
13:54:18:167543,-2,-4,1,0,-2,1,2,-2
13:54:18:174899,1,-1,-3,-3,0,1,-1,0
13:54:18:182344,-1,-2,1,0,0,-3,0,3
13:54:18:190691,-1,-2,1,0,0,-3,0,3
13:54:18:191422,-1,-4,1,-1,-4,-1,2,-2
13:54:18:205022,2,0,-2,-4,1,-1,0,5
13:54:18:213078,2,0,-2,-4,1,-1,0,5
13:54:18:213923,1,0,0,-3,0,-3,1,-7
13:54:18:219892,-1,-1,-4,0,-2,-2,-5,-2
13:54:18:227476,-1,-1,-4,0,-2,-2,-5,-2
13:54:18:234962,-1,4,-1,0,-1,-3,-1,-5
13:54:18:242420,-3,1,-1,-1,-3,0,-1,-5
13:54:18:250642,-3,1,-1,-1,-3,0,-1,-5
13:54:18:251387,-3,-1,0,-1,-1,1,0,0
13:54:18:265322,-2,-4,0,-1,-2,1,0,-1
13:54:18:273270,-2,-4,0,-1,-2,1,0,-1
13:54:18:273929,-3,0,-3,1,-1,-2,-3,-4
13:54:18:279865,-1,0,0,0,-2,-1,1,1
13:54:18:287526,-1,0,0,0,-2,-1,1,1
13:54:18:294883,1,0,0,1,-1,0,-1,3
13:54:18:302428,-3,-2,0,-2,-2,-2,-2,-3
13:54:18:318159,-3,-2,0,-2,-2,-2,-2,-3
13:54:18:318940,-4,-1,-4,0,-2,0,-1,1
13:54:18:324860,5,-3,-1,1,0,0,1,1
13:54:18:333104,5,-3,-1,1,0,0,1,1
13:54:18:333943,-5,-3,-2,0,-1,-2,-2,-1
13:54:18:339993,-4,-1,0,-3,-1,-2,-2,-1
13:54:18:347424,-4,-1,0,-3,-1,-2,-2,-1
13:54:18:355052,4,-2,1,-4,0,-1,2,1
13:54:18:362472,-1,-2,-3,0,1,-1,-2,0
13:54:18:370702,-1,-2,-3,0,1,-1,-2,0
13:54:18:371361,-5,-1,-2,0,1,0,-2,-3
13:54:18:384930,-1,2,-2,-1,-1,0,-4,-5
13:54:18:393095,-1,2,-2,-1,-1,0,-4,-5
13:54:18:393849,0,-3,-1,-1,-1,-4,0,2
13:54:18:399899,3,0,0,2,-2,-1,0,6
13:54:18:407489,3,0,0,2,-2,-1,0,6
13:54:18:414883,-1,0,-1,-1,-1,3,-1,3
13:54:18:422461,-3,-2,3,-2,0,-1,2,-3
13:54:18:430607,-3,-2,3,-2,0,-1,2,-3
13:54:18:431341,-4,-3,-1,-1,1,-3,-2,-2
13:54:18:444926,0,1,-1,1,-2,0,-1,-1
13:54:18:453148,0,1,-1,1,-2,0,-1,-1
13:54:18:453892,1,-3,0,0,-1,1,0,0
13:54:18:459925,-1,-3,-1,-2,0,-3,3,1
13:54:18:467551,-1,-3,-1,-2,0,-3,3,1
13:54:18:474899,2,-2,1,-2,0,-2,-4,-1
13:54:18:482345,1,-2,-4,-1,0,-3,-2,0
13:54:18:490675,1,-2,-4,-1,0,-3,-2,0
13:54:18:491433,-1,-2,-2,-2,0,-1,0,4
13:54:18:504958,1,-1,-3,-3,-1,0,-1,-4
13:54:18:513084,1,-1,-3,-3,-1,0,-1,-4
13:54:18:513878,0,-1,0,-1,-3,-3,-3,-1
13:54:18:519861,-2,0,-1,0,-4,-2,-2,-3
13:54:18:527445,-2,0,-1,0,-4,-2,-2,-3
13:54:18:534969,-2,0,-1,-2,-2,-3,1,-3
13:54:18:542372,-2,-1,-1,-2,1,-2,1,2
13:54:18:550716,-2,-1,-1,-2,1,-2,1,2
13:54:18:551390,-3,-1,0,-3,-4,-1,2,1
13:54:18:564872,-2,-1,-1,0,1,-2,1,-3
13:54:18:573168,-2,-1,-1,0,1,-2,1,-3
13:54:18:573925,4,1,-2,0,0,-1,1,-5
13:54:18:579846,-4,-3,-1,-2,-1,2,-5,4
13:54:18:587534,-4,-3,-1,-2,-1,2,-5,4
13:54:18:594911,1,-4,0,-1,-5,-1,-5,-4
13:54:18:602412,1,1,-2,1,-2,0,-2,-1
13:54:18:610630,1,1,-2,1,-2,0,-2,-1
13:54:18:611405,-4,-3,-1,1,-1,-2,2,2
13:54:18:624913,1,-2,2,-2,-2,-1,-1,2
13:54:18:633120,1,-2,2,-2,-2,-1,-1,2
13:54:18:633923,-1,0,-1,-2,3,2,-1,-2
13:54:18:639966,3,-1,0,-3,-3,-3,-4,-2
13:54:18:647448,3,-1,0,-3,-3,-3,-4,-2
13:54:18:655019,-2,1,0,0,0,-1,-1,-5
13:54:18:662408,-1,-2,-3,1,0,-2,-1,-1
13:54:18:670662,-1,-2,-3,1,0,-2,-1,-1
13:54:18:671366,-1,0,-3,-4,-2,0,-1,0
13:54:18:684981,-1,-1,-1,-3,-4,-1,-2,-3
13:54:18:693154,-1,-1,-1,-3,-4,-1,-2,-3
13:54:18:693933,0,0,0,2,5,5,4,2
13:54:18:699906,-2,-1,-3,2,6,5,6,3
13:54:18:707526,-2,-1,-3,2,6,5,6,3
13:54:18:714893,-4,-1,-5,-3,-5,-2,-7,2
13:54:18:722470,1,-3,2,-2,-4,-6,-7,-7
13:54:18:730614,1,-3,2,-2,-4,-6,-7,-7
13:54:18:731373,4,-2,2,-1,-3,-5,-3,-4
13:54:18:744959,-4,2,-3,-2,-4,-5,18,-2
13:54:18:753098,-4,2,-3,-2,-4,-5,18,-2
13:54:18:753839,-3,-1,0,-1,1,9,0,-7
13:54:18:759942,3,1,0,0,2,4,-1,5
13:54:18:767589,3,1,0,0,2,4,-1,5
13:54:18:774908,-3,0,-1,-1,-3,-5,32,2
13:54:18:782358,-3,0,-1,-7,-4,-10,-17,-8
13:54:18:790677,-3,0,-1,-7,-4,-10,-17,-8
13:54:18:791397,2,0,-3,4,7,6,24,-1
13:54:18:805011,-3,-3,1,-1,-4,-11,10,8
13:54:18:813093,-3,-3,1,-1,-4,-11,10,8
13:54:18:813836,2,-3,-3,-4,-4,4,6,6
13:54:18:819907,6,0,6,3,-2,4,15,6
13:54:18:827476,6,0,6,3,-2,4,15,6
13:54:18:835024,-4,-4,-3,-2,-5,-9,-7,-6
13:54:18:842415,-7,2,-6,-2,2,6,-7,-3
13:54:18:850648,-7,2,-6,-2,2,6,-7,-3
13:54:18:851478,4,-5,3,0,2,-5,-53,1
13:54:18:864916,-1,1,-4,1,5,1,-26,-6
13:54:18:873237,-1,1,-4,1,5,1,-26,-6
13:54:18:873891,1,-1,4,-1,-5,-9,-32,-8
13:54:18:879862,1,-4,4,-3,0,-4,18,-1
13:54:18:887515,1,-4,4,-3,0,-4,18,-1
13:54:18:894927,-28,-2,-4,-2,-2,-5,30,-3
13:54:18:902419,4,-2,0,2,3,5,8,4
13:54:18:910612,4,-2,0,2,3,5,8,4
13:54:18:911364,4,-1,1,-2,-5,-4,22,-3
13:54:18:924940,-5,-2,-3,-1,-3,-5,-11,0
13:54:18:933143,-5,-2,-3,-1,-3,-5,-11,0
13:54:18:933869,7,1,-2,-2,3,2,-16,2
13:54:18:939964,4,1,0,0,-3,3,-10,-7
13:54:18:947393,4,1,0,0,-3,3,-10,-7
13:54:18:955054,3,0,-3,2,-2,2,1,-4
13:54:18:962390,-6,4,-5,-4,-3,3,-5,-4
13:54:18:970654,-6,4,-5,-4,-3,3,-5,-4
13:54:18:971428,-2,6,3,2,5,-6,-12,-4
13:54:18:984954,-1,4,7,8,2,3,-6,1
13:54:18:993106,-1,4,7,8,2,3,-6,1
13:54:18:993857,4,-2,5,2,3,3,20,2
13:54:18:999921,5,3,1,-2,-4,-3,-9,14
13:54:19:7505,5,3,1,-2,-4,-3,-9,14
13:54:19:14941,28,23,10,-1,-1,9,-16,6
13:54:19:22555,-20,-4,4,-1,-2,-7,11,-3
13:54:19:30618,-20,-4,4,-1,-2,-7,11,-3
13:54:19:31348,-4,-13,-4,-3,7,5,-21,-32
13:54:19:44926,2,-33,-5,-1,-2,-3,-17,-17
13:54:19:53091,2,-33,-5,-1,-2,-3,-17,-17
13:54:19:53833,12,-10,-5,-3,-9,-13,-18,-8
13:54:19:67427,6,25,-3,0,2,-3,6,0
13:54:19:75605,6,25,-3,0,2,-3,6,0
13:54:19:76368,-4,12,-2,-6,-2,-2,18,6
13:54:19:82439,10,-7,-1,-1,0,0,3,5
13:54:19:89997,10,-7,-1,-1,0,0,3,5
13:54:19:97371,9,-12,-1,-12,-4,0,-18,7
13:54:19:104966,-7,-4,-2,-1,2,2,12,1
13:54:19:113069,-7,-4,-2,-1,2,2,12,1
13:54:19:113907,-14,-7,-10,-5,3,16,6,0
13:54:19:128067,3,-5,-3,10,-2,3,-1,-3
13:54:19:128880,3,-5,-3,10,-2,3,-1,-3
13:54:19:135001,-5,-4,9,21,-8,-11,-16,5
13:54:19:142377,-2,12,-14,9,1,-1,-8,-11
13:54:19:149970,-2,12,-14,9,1,-1,-8,-11
13:54:19:157450,-8,-3,1,18,-2,2,4,10
13:54:19:164851,-2,-7,2,-6,-7,-6,13,1
13:54:19:173181,-2,-7,2,-6,-7,-6,13,1
13:54:19:173932,-28,-10,0,-26,0,-4,1,2
13:54:19:188195,-1,-12,-3,-24,-5,-12,-23,4
13:54:19:188876,-1,-12,-3,-24,-5,-12,-23,4
13:54:19:194872,-2,-5,-8,2,4,5,10,4
13:54:19:202376,-3,-1,5,2,0,10,-3,-3
13:54:19:209992,-3,-1,5,2,0,10,-3,-3
13:54:19:217491,-2,7,0,-2,-26,-22,1,1
13:54:19:224939,3,40,2,-1,9,0,-48,-13
13:54:19:233151,3,40,2,-1,9,0,-48,-13
13:54:19:233894,7,78,1,6,22,-2,10,5
13:54:19:248116,-2,35,-1,-9,2,-9,-2,-4
13:54:19:248884,-2,35,-1,-9,2,-9,-2,-4
13:54:19:255036,0,-103,4,-3,-7,-8,-6,-3
13:54:19:262357,-5,-126,-4,7,-10,3,1,-3
13:54:19:269934,-5,-126,-4,7,-10,3,1,-3
13:54:19:277427,5,18,-4,-13,2,4,3,22
13:54:19:284938,-3,33,0,3,-13,-11,10,-10
13:54:19:293081,-3,33,0,3,-13,-11,10,-10
13:54:19:293860,3,29,3,32,-7,3,-14,-2
13:54:19:308156,-1,30,-10,5,-17,-19,-96,-14
13:54:19:308969,-1,30,-10,5,-17,-19,-96,-14
13:54:19:314909,-1,12,-10,-10,23,26,101,4
13:54:19:322477,0,0,2,-18,-10,-7,58,0
13:54:19:329961,0,0,2,-18,-10,-7,58,0
13:54:19:337494,-4,-14,-20,-26,-13,-36,-24,-16
13:54:19:344953,7,-73,2,-15,58,16,47,11
13:54:19:353177,7,-73,2,-15,58,16,47,11
13:54:19:353876,-4,-58,8,-25,27,13,-6,-11
13:54:19:368156,-8,125,6,-4,0,-7,-16,-1
13:54:19:368902,-8,125,6,-4,0,-7,-16,-1
13:54:19:374940,-3,-37,-8,17,23,13,-56,-7
13:54:19:382409,3,-52,-13,-3,-11,0,12,-2
13:54:19:390001,3,-52,-13,-3,-11,0,12,-2
13:54:19:397330,12,0,16,14,-2,4,-45,11
13:54:19:404960,-1,-13,0,17,6,13,12,18
13:54:19:413085,-1,-13,0,17,6,13,12,18
13:54:19:413895,6,3,8,6,-10,11,9,1
13:54:19:428102,1,-11,-9,-4,-20,-16,-25,1
13:54:19:428901,1,-11,-9,-4,-20,-16,-25,1
13:54:19:434931,2,15,10,6,-10,-7,-1,-24
13:54:19:442423,3,-28,13,0,0,8,23,14
13:54:19:449960,3,-28,13,0,0,8,23,14
13:54:19:457537,-8,116,-8,-7,-13,-10,-1,-6
13:54:19:464829,-3,27,-7,-6,-9,-3,39,4
13:54:19:473212,-3,27,-7,-6,-9,-3,39,4
13:54:19:473930,-3,-77,-13,-1,-9,-9,-25,2
13:54:19:488158,-1,-34,-6,6,16,14,-7,-4
13:54:19:488889,-1,-34,-6,6,16,14,-7,-4
13:54:19:494835,-2,-30,-8,-15,-27,-5,20,5
13:54:19:502478,1,-8,2,-9,-17,-2,-16,-11
13:54:19:509935,1,-8,2,-9,-17,-2,-16,-11
13:54:19:517487,-3,-3,5,-1,-2,-4,-84,0
13:54:19:524859,-4,13,-8,6,3,5,73,17
13:54:19:533143,-4,13,-8,6,3,5,73,17
13:54:19:533906,10,2,12,-3,7,9,-37,39
13:54:19:548152,16,3,7,2,2,11,-50,-7
13:54:19:548881,16,3,7,2,2,11,-50,-7
13:54:19:555010,-7,3,-4,-1,-1,-11,-1,-2
13:54:19:562346,2,2,0,3,15,5,-3,-17
13:54:19:569950,2,2,0,3,15,5,-3,-17
13:54:19:577401,2,8,-6,-6,-10,-9,29,-15
13:54:19:584971,-5,9,0,5,7,0,1,-2
13:54:19:593069,-5,9,0,5,7,0,1,-2
13:54:19:593847,-10,0,-5,1,-12,-13,16,-16
13:54:19:608154,-4,-6,7,-2,-10,-5,-17,2
13:54:19:608820,-4,-6,7,-2,-10,-5,-17,2
13:54:19:614883,-13,-3,-9,-9,-16,-27,-22,-20
13:54:19:622487,6,-9,6,-1,-14,4,1,-1
13:54:19:629881,6,-9,6,-1,-14,4,1,-1
13:54:19:637446,28,-9,21,9,11,11,5,11
13:54:19:644960,7,7,-2,-7,-15,-24,-11,-12
13:54:19:653143,7,7,-2,-7,-15,-24,-11,-12
13:54:19:653858,2,4,-11,0,-1,19,-5,1
13:54:19:668182,-4,-2,-1,2,0,12,-9,0
13:54:19:668851,-4,-2,-1,2,0,12,-9,0
13:54:19:674908,-11,-9,-10,-2,4,-15,23,-7
13:54:19:682378,-12,1,-3,-2,2,-11,-4,6
13:54:19:690013,-12,1,-3,-2,2,-11,-4,6
13:54:19:697336,-4,2,0,-1,-2,-4,25,-2
13:54:19:704918,-2,-2,-3,0,8,2,-8,2
13:54:19:713081,-2,-2,-3,0,8,2,-8,2
13:54:19:713891,-3,1,3,-2,1,-1,-1,0
13:54:19:736293,-10,-3,1,-1,-1,-2,-1,-4
13:54:19:737003,-10,-3,1,-1,-1,-2,-1,-4
13:54:19:737812,-7,-5,-1,0,10,12,21,4
13:54:19:742427,-2,-1,-1,2,-1,0,4,-7
13:54:19:749944,-2,-1,-1,2,-1,0,4,-7
13:54:19:757518,2,0,3,-2,1,-4,-2,0
13:54:19:764922,-2,-3,-4,-4,-13,-32,-13,1
13:54:19:773201,-2,-3,-4,-4,-13,-32,-13,1
13:54:19:773920,5,4,-1,6,15,26,32,6
13:54:19:788147,-1,5,3,4,-3,9,-3,1
13:54:19:788886,-1,5,3,4,-3,9,-3,1
13:54:19:794869,-6,1,-3,-3,-13,-12,-17,-6
13:54:19:802484,1,13,-2,-2,-13,-11,-17,-3
13:54:19:809954,1,13,-2,-2,-13,-11,-17,-3
13:54:19:817392,-1,-18,0,-2,3,-8,2,-11
13:54:19:824820,1,5,-1,-2,11,1,-4,9
13:54:19:833102,1,5,-1,-2,11,1,-4,9
13:54:19:833891,-6,1,-2,-17,-7,-11,-11,-4
13:54:19:848050,0,-12,2,11,8,8,4,-5
13:54:19:848859,0,-12,2,11,8,8,4,-5
13:54:19:854938,-5,2,-9,18,15,-1,-4,-1
13:54:19:862413,7,-1,3,-6,4,18,9,9
13:54:19:870008,7,-1,3,-6,4,18,9,9
13:54:19:877433,4,6,2,-7,-24,-7,20,1
13:54:19:884943,-2,1,-9,-9,-5,-14,13,6
13:54:19:893183,-2,1,-9,-9,-5,-14,13,6
13:54:19:893959,0,-6,5,-4,-3,2,-42,-8
13:54:19:908145,-5,-4,3,1,4,-5,37,-1
13:54:19:908902,-5,-4,3,1,4,-5,37,-1
13:54:19:914864,-8,2,-2,13,4,10,-3,0
13:54:19:922473,4,1,1,9,0,5,-12,10
13:54:19:929947,4,1,1,9,0,5,-12,10
13:54:19:937450,4,6,5,7,6,1,20,3
13:54:19:944905,-8,-2,-5,2,18,0,-5,-12
13:54:19:953100,-8,-2,-5,2,18,0,-5,-12
13:54:19:953880,2,-3,-1,-5,4,10,-2,3
13:54:19:968121,1,-3,-22,-16,-8,-4,-22,-5
13:54:19:968892,1,-3,-22,-16,-8,-4,-22,-5
13:54:19:983006,2,4,-7,-4,-7,-10,-8,5
13:54:19:983824,-4,3,4,8,0,0,-34,-14
13:54:19:990065,-4,3,4,8,0,0,-34,-14
13:54:19:997350,-4,-5,4,-5,11,3,-7,-6
13:54:20:4950,0,-1,5,2,4,11,-6,0
13:54:20:12469,0,-1,5,2,4,11,-6,0
13:54:20:19896,-3,1,-1,0,-11,1,-5,-4
13:54:20:28076,-2,-8,0,11,-3,-4,8,-4
13:54:20:28844,-2,-8,0,11,-3,-4,8,-4
13:54:20:34968,-4,-15,-4,-1,-5,4,15,12
13:54:20:50690,-3,-2,-4,-2,2,22,8,1
13:54:20:51396,-3,-2,-4,-2,2,22,8,1
13:54:20:65502,-6,-12,3,8,0,-4,-13,-8
13:54:20:66315,-1,0,19,7,-5,-5,9,-3
13:54:20:72562,-1,0,19,7,-5,-5,9,-3
13:54:20:79853,2,11,-5,-6,-4,-12,-7,-9
13:54:20:88159,-1,-3,-1,-1,-4,-2,7,8
13:54:20:88954,-1,-3,-1,-1,-4,-2,7,8
13:54:20:111254,4,0,1,-3,2,3,5,3
13:54:20:112053,-1,-1,-3,-10,-15,-16,-21,-12
13:54:20:112833,-1,-1,-3,-10,-15,-16,-21,-12
13:54:20:117435,-1,3,-10,-3,-2,-3,11,10
13:54:20:124902,1,5,-2,-10,-2,3,9,0
13:54:20:132442,1,5,-2,-10,-2,3,9,0
13:54:20:140013,1,10,4,-15,-8,-7,-2,-6
13:54:20:148130,4,0,6,-8,-4,1,10,-3
13:54:20:148900,4,0,6,-8,-4,1,10,-3
13:54:20:154972,0,5,3,4,-2,-3,-21,3
13:54:20:170616,-5,-3,-9,-9,-9,-9,-5,2
13:54:20:171421,-5,-3,-9,-9,-9,-9,-5,2
13:54:20:177360,0,-3,1,-6,-5,-6,-4,0
13:54:20:184904,-2,-1,-3,3,6,5,-9,-9
13:54:20:192503,-2,-1,-3,3,6,5,-9,-9
13:54:20:199923,-2,-1,16,10,4,6,2,-10
13:54:20:208076,-6,-11,8,7,-9,-14,4,1
13:54:20:208846,-6,-11,8,7,-9,-14,4,1
13:54:20:214880,2,-6,2,1,17,8,7,1
13:54:20:230607,1,-5,-1,-6,-4,-18,-7,-1
13:54:20:231402,1,-5,-1,-6,-4,-18,-7,-1
13:54:20:237450,5,4,3,9,4,14,18,7
13:54:20:244882,-3,6,-9,-2,1,2,1,-9
13:54:20:252482,-3,6,-9,-2,1,2,1,-9
13:54:20:259898,-5,-8,-12,-3,-5,-6,3,9
13:54:20:268110,2,0,-1,-5,-6,-11,-3,7
13:54:20:268873,2,0,-1,-5,-6,-11,-3,7
13:54:20:274932,0,1,5,19,12,-2,-1,-9
13:54:20:290653,0,-6,6,-4,5,8,5,7
13:54:20:291377,0,-6,6,-4,5,8,5,7
13:54:20:297368,-6,-2,-10,-3,-10,-5,-3,-14
13:54:20:304962,2,1,1,2,-8,7,4,0
13:54:20:312443,2,1,1,2,-8,7,4,0
13:54:20:319861,-2,12,-46,-17,-12,-5,4,9
13:54:20:328122,-6,0,-3,-10,-3,-8,-30,-14
13:54:20:328922,-6,0,-3,-10,-3,-8,-30,-14
13:54:20:334972,7,2,16,0,0,1,25,-5
13:54:20:350578,-5,-4,-17,-4,-3,-9,3,6
13:54:20:351399,-5,-4,-17,-4,-3,-9,3,6
13:54:20:357405,-2,4,26,-18,-9,-3,-15,-2
13:54:20:364901,0,-2,-12,9,5,-1,7,0
13:54:20:372542,0,-2,-12,9,5,-1,7,0
13:54:20:379840,-1,-3,4,3,1,8,4,-2
13:54:20:388172,-2,-5,13,-10,2,8,-4,8
13:54:20:388935,-2,-5,13,-10,2,8,-4,8
13:54:20:394883,-2,-8,3,0,-3,4,-3,2
13:54:20:410618,3,-3,7,4,5,6,-6,1
13:54:20:411414,3,-3,7,4,5,6,-6,1
13:54:20:417400,1,1,17,-1,-4,-10,-6,7
13:54:20:424934,0,0,-21,3,13,11,-1,-15
13:54:20:432441,0,0,-21,3,13,11,-1,-15
13:54:20:439964,-3,1,-6,1,-11,-4,-9,-5
13:54:20:448081,-3,-3,9,-3,2,-8,4,2
13:54:20:448888,-3,-3,9,-3,2,-8,4,2
13:54:20:454971,0,-6,-1,3,3,2,1,-7
13:54:20:470669,-4,0,-8,-5,-2,-18,21,-14
13:54:20:471424,-4,0,-8,-5,-2,-18,21,-14
13:54:20:477399,-5,-8,-25,3,3,-6,-4,7
13:54:20:484916,1,2,-4,-1,-3,-1,-8,-3
13:54:20:492489,1,2,-4,-1,-3,-1,-8,-3
13:54:20:499955,0,1,2,-3,-3,-5,2,-4
13:54:20:508069,0,-11,3,13,-1,4,6,9
13:54:20:508889,0,-11,3,13,-1,4,6,9
13:54:20:514901,-1,-2,-4,10,11,7,-4,2
13:54:20:530292,-1,0,43,0,-5,2,0,5
13:54:20:538132,-1,0,43,0,-5,2,0,5
13:54:20:538913,-5,-11,3,-2,2,0,1,-5
13:54:20:544881,-2,1,-3,-4,-5,0,2,4
13:54:20:552426,-2,1,-3,-4,-5,0,2,4
13:54:20:559958,3,-5,-5,-4,-3,-18,-10,-5
13:54:20:568162,-2,-6,2,-6,-2,4,-1,-28
13:54:20:568915,-2,-6,2,-6,-2,4,-1,-28
13:54:20:574887,-5,-5,-7,-3,-2,-7,5,-2
13:54:20:590648,3,5,-7,6,2,2,2,20
13:54:20:591363,3,5,-7,6,2,2,2,20
13:54:20:597368,0,5,2,0,15,12,3,-8
13:54:20:604944,-3,-4,43,-4,-5,-2,-2,-2
13:54:20:612442,-3,-4,43,-4,-5,-2,-2,-2
13:54:20:619827,1,3,-17,-10,-4,-1,-6,0
13:54:20:628105,1,1,-11,-1,1,1,-9,-8
13:54:20:628915,1,1,-11,-1,1,1,-9,-8
13:54:20:634964,-1,6,13,5,3,5,1,9
13:54:20:650358,-5,9,-20,-3,-2,0,-14,-18
13:54:20:658118,-5,9,-20,-3,-2,0,-14,-18
13:54:20:658861,-1,-6,-47,-1,-9,-3,-3,-4
13:54:20:664884,3,0,-5,0,4,-7,-12,5
13:54:20:672520,3,0,-5,0,4,-7,-12,5
13:54:20:679848,4,7,24,5,8,17,53,5
13:54:20:688192,-2,-2,-20,-8,-8,-2,-3,6
13:54:20:688900,-2,-2,-20,-8,-8,-2,-3,6
13:54:20:694919,-7,-3,-5,-8,-6,-12,-25,-23
13:54:20:710615,3,-4,-46,-8,1,8,9,0
13:54:20:711397,3,-4,-46,-8,1,8,9,0
13:54:20:717395,4,1,-1,-2,-6,-8,-9,1
13:54:20:724905,2,-3,13,7,12,7,3,1
13:54:20:732447,2,-3,13,7,12,7,3,1
13:54:20:739942,-1,-7,5,-4,-2,0,-8,-10
13:54:20:748096,-3,1,-7,-1,-4,-1,4,4
13:54:20:748889,-3,1,-7,-1,-4,-1,4,4
13:54:20:754993,1,2,22,-1,2,-1,-7,-1
13:54:20:770626,-2,0,1,0,-3,-5,-2,-3
13:54:20:771371,-2,0,1,0,-3,-5,-2,-3
13:54:20:777358,2,-3,-16,-7,-6,-6,-4,9
13:54:20:784947,4,5,6,0,0,-7,-6,-9
13:54:20:792485,4,5,6,0,0,-7,-6,-9
13:54:20:799916,-2,0,0,2,-5,-7,-3,3
13:54:20:808092,-2,0,9,1,-6,1,3,7
13:54:20:808855,-2,0,9,1,-6,1,3,7
13:54:20:814939,-3,-3,12,-2,-4,3,-2,0
13:54:20:830574,0,-6,6,0,7,-1,-2,-5
13:54:20:831410,0,-6,6,0,7,-1,-2,-5
13:54:20:837432,-1,-2,1,-1,0,-8,-4,1
13:54:20:844889,-1,7,-10,-4,-4,-5,4,4
13:54:20:852427,-1,7,-10,-4,-4,-5,4,4
13:54:20:859912,-3,3,-6,-1,-2,2,-8,-20
13:54:20:868154,-3,3,-6,-1,-2,2,-8,-20
13:54:20:868870,8,6,6,2,0,-3,3,-5
13:54:20:874875,2,-2,-4,0,-1,-2,-6,8
13:54:20:890653,2,-2,-4,0,-1,-2,-6,8
13:54:20:891379,5,-1,-2,-3,2,-10,-2,0
13:54:20:897381,-8,-6,5,0,2,5,0,-6
13:54:20:913125,-8,-6,5,0,2,5,0,-6
13:54:20:913923,-5,-3,0,-1,-11,5,-3,0
13:54:20:919921,-9,-1,-2,-4,-2,-4,4,0
13:54:20:928113,-9,-1,-2,-4,-2,-4,4,0
13:54:20:928887,-10,-7,-5,-2,-3,-5,-3,0
13:54:20:934976,20,-1,1,-1,-2,0,-2,7
13:54:20:950575,20,-1,1,-1,-2,0,-2,7
13:54:20:951413,-2,-8,-2,-3,-3,1,-3,3
13:54:20:957493,3,-7,5,-1,-2,-1,1,2
13:54:20:973205,3,-7,5,-1,-2,-1,1,2
13:54:20:973903,-2,0,-2,0,-3,-6,1,1
13:54:20:979870,-3,0,-3,3,9,10,-1,-4
13:54:20:988131,-3,0,-3,3,9,10,-1,-4
13:54:20:988885,-2,-2,-2,2,6,4,2,-4
13:54:21:2467,7,3,0,0,-2,-1,-1,-2
13:54:21:10655,7,3,0,0,-2,-1,-1,-2
13:54:21:11438,-2,13,5,-3,0,-4,4,1
13:54:21:17497,17,-4,-19,0,-5,-5,3,3
13:54:21:33121,17,-4,-19,0,-5,-5,3,3
13:54:21:33899,4,-3,-12,3,1,-2,-3,4
13:54:21:39992,3,1,27,0,0,-1,1,1
13:54:21:48137,3,1,27,0,0,-1,1,1
13:54:21:48939,-6,-1,-2,-1,1,3,-1,3
13:54:21:62411,-15,-5,-11,-3,1,-2,3,-1
13:54:21:70659,-15,-5,-11,-3,1,-2,3,-1
13:54:21:71399,-31,-5,10,4,2,1,2,-4
13:54:21:77374,-5,3,4,0,-1,1,0,-4
13:54:21:93155,-5,3,4,0,-1,1,0,-4
13:54:21:93887,9,-3,-21,-1,-2,-3,-5,-10
13:54:21:99865,2,-2,-1,-2,-2,-3,-3,-8
13:54:21:108133,2,-2,-1,-2,-2,-3,-3,-8
13:54:21:108951,2,0,2,-1,-2,1,0,3
13:54:21:122507,-8,2,-16,-2,-3,-1,-2,6
13:54:21:130601,-8,2,-16,-2,-3,-1,-2,6
13:54:21:131373,12,-3,-10,-3,-1,-2,-1,-5
13:54:21:137458,2,1,-2,-3,-3,-1,-2,3
13:54:21:153067,2,1,-2,-3,-3,-1,-2,3
13:54:21:153858,2,-2,6,-1,-2,-3,-6,4
13:54:21:159896,-38,-4,-5,-7,-1,-12,0,-4
13:54:21:168173,-38,-4,-5,-7,-1,-12,0,-4
13:54:21:168857,0,-1,-6,-5,-3,3,1,3
13:54:21:182377,1,-2,-13,-2,5,7,-2,-3
13:54:21:190656,1,-2,-13,-2,5,7,-2,-3
13:54:21:191365,-4,0,31,-1,-1,-2,3,-4
13:54:21:197320,5,-3,-2,1,-6,0,1,5
13:54:21:213141,5,-3,-2,1,-6,0,1,5
13:54:21:213879,5,2,19,3,-3,1,-3,-2
13:54:21:219849,2,-1,25,9,-3,-3,-5,-3
13:54:21:228112,2,-1,25,9,-3,-3,-5,-3
13:54:21:228895,-16,-3,-18,-5,-2,-8,-4,1
13:54:21:242398,0,2,-5,5,-1,3,-4,2
13:54:21:250651,0,2,-5,5,-1,3,-4,2
13:54:21:251399,4,-6,-6,7,-1,3,-14,-5
13:54:21:257458,0,5,19,13,2,1,-3,-5
13:54:21:273151,0,5,19,13,2,1,-3,-5
13:54:21:273861,2,-1,-16,-1,8,8,8,-1
13:54:21:279852,3,-1,-8,-16,8,3,2,4
13:54:21:288134,3,-1,-8,-16,8,3,2,4
13:54:21:288882,0,-1,0,-14,-1,8,5,4
13:54:21:302457,-3,0,-6,-9,-4,-2,7,5
13:54:21:310592,-3,0,-6,-9,-4,-2,7,5
13:54:21:311381,0,1,-15,-21,0,-5,-11,5
13:54:21:317354,9,-3,1,-27,-12,-4,7,7
13:54:21:333054,9,-3,1,-27,-12,-4,7,7
13:54:21:333862,-2,-2,-1,-12,-8,-9,27,-19
13:54:21:339974,-29,-5,15,23,7,-1,-8,5
13:54:21:348084,-29,-5,15,23,7,-1,-8,5
13:54:21:348859,-3,1,12,42,5,-9,38,-1
13:54:21:362373,5,0,-4,-20,-1,7,-39,-7
13:54:21:370637,5,0,-4,-20,-1,7,-39,-7
13:54:21:371392,-1,-2,-2,-14,-4,4,51,17
13:54:21:377426,-1,1,-6,24,-1,1,-6,-5
13:54:21:393135,-1,1,-6,24,-1,1,-6,-5
13:54:21:393957,19,-2,-2,25,-9,-7,-31,-14
13:54:21:399934,0,0,-3,-37,-5,-8,-18,-6
13:54:21:408107,0,0,-3,-37,-5,-8,-18,-6
13:54:21:408868,4,-3,-11,11,16,10,-13,-2
13:54:21:422435,1,-7,-31,3,0,-9,-34,-7
13:54:21:430586,1,-7,-31,3,0,-9,-34,-7
13:54:21:431346,-5,-3,-24,-25,-16,-8,-39,1
13:54:21:437482,-5,1,0,10,2,-9,3,-13
13:54:21:453132,-5,1,0,10,2,-9,3,-13
13:54:21:453979,-4,0,8,-6,-2,-1,5,16
13:54:21:459905,-21,-2,28,-1,0,6,58,-2
13:54:21:468176,-21,-2,28,-1,0,6,58,-2
13:54:21:468892,-8,1,-1,-2,-1,2,9,-1
13:54:21:482385,7,-2,2,9,4,7,-6,4
13:54:21:490698,7,-2,2,9,4,7,-6,4
13:54:21:491468,1,2,17,2,-3,-7,-21,-5
13:54:21:497345,6,-3,-34,-3,-2,2,-8,-1
13:54:21:513139,6,-3,-34,-3,-2,2,-8,-1
13:54:21:513895,-1,1,9,12,-5,-1,-2,1
13:54:21:519892,3,2,-1,-17,-2,-9,17,-1
13:54:21:528145,3,2,-1,-17,-2,-9,17,-1
13:54:21:528911,-5,-3,5,-1,6,4,-8,-7
13:54:21:542424,4,-1,4,3,-5,-2,0,-1
13:54:21:550662,4,-1,4,3,-5,-2,0,-1
13:54:21:551400,2,-2,7,-13,1,-2,-12,0
13:54:21:557469,1,-5,-7,8,-3,-4,2,2
13:54:21:573281,1,-5,-7,8,-3,-4,2,2
13:54:21:573916,-2,-6,20,1,-7,-3,4,2
13:54:21:579851,1,-4,-5,-14,7,6,5,-1
13:54:21:588161,1,-4,-5,-14,7,6,5,-1
13:54:21:588859,-5,-7,-8,1,-2,-5,-8,0
13:54:21:602416,3,2,8,22,11,14,-4,2
13:54:21:610619,3,2,8,22,11,14,-4,2
13:54:21:611401,2,-2,9,-5,2,-4,2,-6
13:54:21:617435,0,-1,2,-10,-8,-4,2,-4
13:54:21:633088,0,-1,2,-10,-8,-4,2,-4
13:54:21:633864,2,5,5,0,-2,1,-4,6
13:54:21:639897,0,2,5,-9,-7,-6,-2,-3
13:54:21:648094,0,2,5,-9,-7,-6,-2,-3
13:54:21:648870,3,2,-1,-3,3,-1,0,-6
13:54:21:662833,-2,-3,-8,7,-2,-7,0,3
13:54:21:670623,-2,-3,-8,7,-2,-7,0,3
13:54:21:671373,-10,2,12,9,-2,3,-1,-6
13:54:21:677367,-3,-3,15,0,4,-1,5,4
13:54:21:693108,-3,-3,15,0,4,-1,5,4
13:54:21:693864,3,-1,-15,-4,7,11,5,3
13:54:21:699869,2,-3,-52,-16,-7,-9,-4,3
13:54:21:708120,2,-3,-52,-16,-7,-9,-4,3
13:54:21:708894,-1,1,11,0,1,-3,1,-4
13:54:21:722381,0,-4,0,0,-5,2,0,-5
13:54:21:730636,0,-4,0,0,-5,2,0,-5
13:54:21:731371,0,-4,15,-4,-6,-7,-7,-8
13:54:21:737411,-7,4,4,0,-5,-2,1,0
13:54:21:753112,-7,4,4,0,-5,-2,1,0
13:54:21:753849,-2,-7,-10,-1,3,-2,-5,3
13:54:21:759889,2,-3,15,10,9,-3,-8,-3
13:54:21:768150,2,-3,15,10,9,-3,-8,-3
13:54:21:768861,-2,0,-19,-4,2,8,3,-3
13:54:21:782392,5,5,-7,4,-7,-3,-1,-1
13:54:21:790667,5,5,-7,4,-7,-3,-1,-1
13:54:21:791411,4,2,-9,1,9,6,3,5
13:54:21:797335,-3,-2,32,9,4,2,0,-1
13:54:21:813068,-3,-2,32,9,4,2,0,-1
13:54:21:813841,-3,1,-6,4,-2,-7,-4,-5
13:54:21:819915,0,-4,2,10,2,-1,-1,-1
13:54:21:828102,0,-4,2,10,2,-1,-1,-1
13:54:21:828875,8,-2,-18,10,-2,2,3,7
13:54:21:842414,-6,-5,2,-2,-7,-4,2,3
13:54:21:850626,-6,-5,2,-2,-7,-4,2,3
13:54:21:851398,-7,0,2,18,2,-6,-7,-4
13:54:21:857506,0,-3,-3,2,16,5,0,-1
13:54:21:873166,0,-3,-3,2,16,5,0,-1
13:54:21:873869,5,-1,30,-3,-4,3,1,-6
13:54:21:879859,-4,0,-24,-6,-2,-5,-3,-5
13:54:21:888111,-4,0,-24,-6,-2,-5,-3,-5
13:54:21:888844,-1,-6,-5,-15,-12,-7,-7,-7
13:54:21:902469,-2,-3,0,-11,2,-1,0,1
13:54:21:910580,-2,-3,0,-11,2,-1,0,1
13:54:21:911395,5,3,-11,-8,-5,-5,7,13
13:54:21:924930,2,4,12,30,-10,-4,-9,-3
13:54:21:933115,2,4,12,30,-10,-4,-9,-3
13:54:21:933910,-4,-9,-67,-4,-2,1,3,-3
13:54:21:939975,7,2,7,2,-11,-9,-3,-4
13:54:21:947375,7,2,7,2,-11,-9,-3,-4
13:54:21:955068,-6,6,13,8,-4,-6,-1,-9
13:54:21:962361,2,-5,-22,-1,23,24,16,9
13:54:21:970621,2,-5,-22,-1,23,24,16,9
13:54:21:971347,-14,0,16,-9,-6,-10,-6,5
13:54:21:984948,-7,3,22,-8,-4,-7,-12,-7
13:54:21:993093,-7,3,22,-8,-4,-7,-12,-7
13:54:21:993868,9,-2,-5,-13,4,-4,-9,0
13:54:21:999934,-1,0,16,-4,-5,0,2,-11
13:54:22:7479,-1,0,16,-4,-5,0,2,-11
13:54:22:14829,-3,-1,3,-10,-10,0,-6,-7
13:54:22:22435,-2,-2,-2,-6,-2,-1,9,3
13:54:22:30608,-2,-2,-2,-6,-2,-1,9,3
13:54:22:31346,-4,-6,4,3,9,6,5,3
13:54:22:44934,1,0,-5,12,-9,-9,-19,2
13:54:22:53138,1,0,-5,12,-9,-9,-19,2
13:54:22:53856,1,-2,-10,-3,10,7,10,4
13:54:22:59887,-1,-4,3,-2,-8,-3,18,-1
13:54:22:67489,-1,-4,3,-2,-8,-3,18,-1
13:54:22:74897,0,1,16,0,-5,0,-1,-1
13:54:22:82378,-6,-3,13,0,-2,6,-8,-6
13:54:22:90669,-6,-3,13,0,-2,6,-8,-6
13:54:22:91393,-1,-1,-1,-5,4,-3,-2,-3
13:54:22:104931,7,0,-7,20,4,-7,-1,4
13:54:22:113091,7,0,-7,20,4,-7,-1,4
13:54:22:113924,0,3,27,-15,-3,1,-10,-12
13:54:22:119883,-2,-1,-34,-33,-2,-3,8,4
13:54:22:127437,-2,-1,-34,-33,-2,-3,8,4
13:54:22:134945,-5,-13,-27,-21,-11,-10,-2,1
13:54:22:142366,1,8,12,8,4,1,-4,2
13:54:22:150612,1,8,12,8,4,1,-4,2
13:54:22:151371,0,-4,-5,18,1,1,-5,-2
13:54:22:164858,-1,-3,-23,-53,1,2,-3,3
13:54:22:173206,-1,-3,-23,-53,1,2,-3,3
13:54:22:173926,6,-5,-2,-2,1,3,10,-1
13:54:22:179881,-2,-16,8,11,-17,-5,-5,-15
13:54:22:187534,-2,-16,8,11,-17,-5,-5,-15
13:54:22:203020,-2,8,16,-7,-1,-1,0,8
13:54:22:203823,-2,4,-7,-2,-4,-6,-4,-3
13:54:22:210640,-2,4,-7,-2,-4,-6,-4,-3
13:54:22:211424,-2,10,4,16,-4,-5,-4,0
13:54:22:224909,2,2,8,15,11,4,-2,5
13:54:22:233134,2,2,8,15,11,4,-2,5
13:54:22:233921,-4,3,-7,19,10,1,1,-8
13:54:22:239912,1,-3,-6,-6,-2,2,-2,2
13:54:22:247415,1,-3,-6,-6,-2,2,-2,2
13:54:22:254940,1,-10,4,-9,-1,-3,0,-4
13:54:22:262407,-2,1,12,28,2,1,-3,0
13:54:22:270601,-2,1,12,28,2,1,-3,0
13:54:22:271443,-5,3,28,14,-1,1,2,-2
13:54:22:284890,-2,-5,-34,-10,-1,-2,0,3
13:54:22:293152,-2,-5,-34,-10,-1,-2,0,3
13:54:22:293907,-3,-6,-75,-15,-3,11,2,16
13:54:22:299889,2,-2,-15,-12,-6,-4,4,-7
13:54:22:307527,2,-2,-15,-12,-6,-4,4,-7
13:54:22:314867,-4,-5,4,-6,-9,-6,-4,2
13:54:22:322544,-3,7,11,-4,-3,-3,3,-13
13:54:22:330602,-3,7,11,-4,-3,-3,3,-13
13:54:22:331354,-6,-3,10,-1,6,1,2,-1
13:54:22:344927,1,10,0,-4,2,8,-5,-4
13:54:22:353151,1,10,0,-4,2,8,-5,-4
13:54:22:353825,-2,-7,20,-5,-2,-1,-2,-1
13:54:22:359901,-1,0,-4,-9,6,0,-4,-2
13:54:22:367500,-1,0,-4,-9,6,0,-4,-2
13:54:22:374977,0,6,-5,9,-1,-5,-4,-2
13:54:22:382400,3,0,-13,-1,-4,-6,1,-1
13:54:22:390682,3,0,-13,-1,-4,-6,1,-1
13:54:22:391410,2,1,8,42,4,0,7,-9
13:54:22:404988,3,-5,61,12,-13,5,10,0
13:54:22:413046,3,-5,61,12,-13,5,10,0
13:54:22:413908,-1,0,-34,-13,-5,-6,-5,-6
13:54:22:419929,3,-10,9,-11,-9,-5,-3,8
13:54:22:427442,3,-10,9,-11,-9,-5,-3,8
13:54:22:434960,3,-1,12,-17,-3,-4,-3,0
13:54:22:442371,-2,3,-24,-6,6,0,-1,1
13:54:22:450604,-2,3,-24,-6,6,0,-1,1
13:54:22:451393,-1,-4,-10,-12,2,0,-9,-3
13:54:22:464906,13,-1,2,0,4,-8,3,-2
13:54:22:473192,13,-1,2,0,4,-8,3,-2
13:54:22:473869,0,4,16,3,-9,-8,-5,4
13:54:22:479839,-10,-4,3,5,1,7,1,-3
13:54:22:487541,-10,-4,3,5,1,7,1,-3
13:54:22:494915,-2,8,13,2,1,-2,-4,-2
13:54:22:502451,4,-3,-1,-1,-2,-3,-5,5
13:54:22:510681,4,-3,-1,-1,-2,-3,-5,5
13:54:22:511404,4,6,-6,-2,-5,0,3,9
13:54:22:524879,-5,-6,-11,-7,-5,-3,6,-11
13:54:22:533112,-5,-6,-11,-7,-5,-3,6,-11
13:54:22:533886,-6,-12,0,-2,3,7,-14,-25
13:54:22:539952,0,-1,-9,-6,1,-2,-3,4
13:54:22:547422,0,-1,-9,-6,1,-2,-3,4
13:54:22:554999,6,12,-1,-3,2,-6,5,10
13:54:22:562368,-2,-12,5,4,-3,0,2,2
13:54:22:570643,-2,-12,5,4,-3,0,2,2
13:54:22:571349,2,-25,0,-2,6,-7,4,0
13:54:22:584908,-18,40,-21,7,9,-8,-5,-1
13:54:22:593142,-18,40,-21,7,9,-8,-5,-1
13:54:22:593897,-9,-34,-9,-15,3,-5,-3,-7
13:54:22:599913,6,23,-5,-28,-5,5,8,-4
13:54:22:607523,6,23,-5,-28,-5,5,8,-4
13:54:22:614905,-5,10,1,1,-25,-5,2,1
13:54:22:622473,-13,-17,25,-45,0,2,-6,13
13:54:22:630549,-13,-17,25,-45,0,2,-6,13
13:54:22:631355,-6,45,9,-6,12,4,3,-8
13:54:22:644938,-16,-4,29,36,-7,-8,-9,-22
13:54:22:653162,-16,-4,29,36,-7,-8,-9,-22
13:54:22:653850,5,-4,13,-29,-1,16,6,4
13:54:22:668205,7,3,19,27,-4,4,6,1
13:54:22:668907,7,3,19,27,-4,4,6,1
13:54:22:674924,16,28,17,27,-3,-8,-6,6
13:54:22:682376,13,-6,9,-4,13,9,-1,-5
13:54:22:690675,13,-6,9,-4,13,9,-1,-5
13:54:22:691385,-6,-21,-20,-4,6,-3,-4,0
13:54:22:704951,-16,-14,-41,10,-5,-20,-13,-13
13:54:22:713101,-16,-14,-41,10,-5,-20,-13,-13
13:54:22:713883,-7,-73,5,5,-5,-8,21,-17
13:54:22:719933,9,4,2,-11,-4,-4,-1,10
13:54:22:727416,9,4,2,-11,-4,-4,-1,10
13:54:22:734972,7,4,-21,-11,-15,-5,-8,8
13:54:22:742416,9,-24,9,-12,4,22,11,6
13:54:22:750604,9,-24,9,-12,4,22,11,6
13:54:22:751375,-3,1,-83,12,33,4,14,-1
13:54:22:764926,-27,-4,-18,-3,-12,-14,4,-3
13:54:22:773144,-27,-4,-18,-3,-12,-14,4,-3
13:54:22:773846,-7,23,-5,-26,-15,-1,3,18
13:54:22:779858,-10,-69,6,-9,0,-3,2,-1
13:54:22:787473,-10,-69,6,-9,0,-3,2,-1
13:54:22:794912,8,24,99,35,-1,15,4,0
13:54:22:802368,3,5,29,2,-28,-3,-4,9
13:54:22:810688,3,5,29,2,-28,-3,-4,9
13:54:22:811429,-16,13,46,6,29,6,-19,-6
13:54:22:824951,-1,6,55,27,16,2,-14,-7
13:54:22:833054,-1,6,55,27,16,2,-14,-7
13:54:22:833865,-14,-15,-13,-25,-21,-21,-17,-6
13:54:22:848062,6,29,-42,-4,35,-3,2,18
13:54:22:848912,6,29,-42,-4,35,-3,2,18
13:54:22:855037,6,2,-51,-29,-13,3,4,6
13:54:22:862428,6,30,-4,-15,-14,-5,0,8
13:54:22:869931,6,30,-4,-15,-14,-5,0,8
13:54:22:877383,-3,-11,-31,35,45,2,0,-6
13:54:22:884907,7,-7,-35,-8,-9,-7,-10,-2
13:54:22:893147,7,-7,-35,-8,-9,-7,-10,-2
13:54:22:893868,-16,-6,1,1,-11,-1,-6,-9
13:54:22:908114,-1,11,3,7,17,0,0,-12
13:54:22:908930,-1,11,3,7,17,0,0,-12
13:54:22:914863,12,-1,-8,12,-12,-2,-4,0
13:54:22:922488,-5,-10,11,-43,-35,-3,-1,5
13:54:22:929961,-5,-10,11,-43,-35,-3,-1,5
13:54:22:937484,1,-6,0,-2,2,12,8,-12
13:54:22:944897,-2,6,-3,6,-4,-4,-7,5
13:54:22:953123,-2,6,-3,6,-4,-4,-7,5
13:54:22:953937,13,-10,-5,-43,-26,-9,-1,10
13:54:22:968158,5,0,11,36,0,9,3,-13
13:54:22:968939,5,0,11,36,0,9,3,-13
13:54:22:974890,5,-12,-3,-5,7,-9,-9,-18
13:54:22:982376,2,-12,-49,-23,-9,-10,-15,0
13:54:22:990049,2,-12,-49,-23,-9,-10,-15,0
13:54:22:997367,8,11,-10,0,-3,7,18,14
13:54:23:4969,6,17,15,21,6,13,14,6
13:54:23:13144,6,17,15,21,6,13,14,6
13:54:23:13949,-3,1,19,-13,-4,-10,-11,4
13:54:23:28135,-4,7,8,3,4,-4,-12,-10
13:54:23:28909,-4,7,8,3,4,-4,-12,-10
13:54:23:35008,-12,-23,-6,-2,-3,3,-4,-7
13:54:23:42435,-1,-11,-60,-11,-11,-5,7,10
13:54:23:49988,-1,-11,-60,-11,-11,-5,7,10
13:54:23:57515,5,13,25,3,6,2,-3,-5
13:54:23:64893,-2,-8,19,-8,-8,-3,-6,-13
13:54:23:73192,-2,-8,19,-8,-8,-3,-6,-13
13:54:23:73901,3,14,0,28,3,-23,-16,16
13:54:23:88117,-20,-10,1,29,3,5,9,-11
13:54:23:88843,-20,-10,1,29,3,5,9,-11
13:54:23:94922,-2,-7,26,-15,-18,-7,-6,1
13:54:23:102483,1,6,-10,6,20,6,0,0
13:54:23:109961,1,6,-10,6,20,6,0,0
13:54:23:117380,-4,8,6,31,17,15,15,8
13:54:23:124924,-5,-1,54,7,6,-2,-4,-3
13:54:23:133076,-5,-1,54,7,6,-2,-4,-3
13:54:23:133864,0,-5,-39,1,4,-3,6,-2
13:54:23:148054,12,2,6,-2,2,18,1,4
13:54:23:148852,12,2,6,-2,2,18,1,4
13:54:23:155007,3,9,72,6,2,1,-23,-12
13:54:23:162429,-1,-6,-13,-49,-13,-19,4,5
13:54:23:178097,-1,-6,-13,-49,-13,-19,4,5
13:54:23:178863,11,5,-39,23,9,22,30,2
13:54:23:184949,7,-15,-57,7,0,-10,-6,-5
13:54:23:193086,7,-15,-57,7,0,-10,-6,-5
13:54:23:193877,-6,0,-8,-23,-16,-11,26,3
13:54:23:207855,3,-5,4,11,-5,10,91,18
13:54:23:215568,3,-5,4,11,-5,10,91,18
13:54:23:216329,-14,-19,-19,-16,-21,-13,-15,-7
13:54:23:222454,-15,13,28,-23,8,-15,-39,-12
13:54:23:229943,-15,13,28,-23,8,-15,-39,-12
13:54:23:237463,5,4,-17,1,-1,-8,-10,-7
13:54:23:245596,-7,7,84,39,25,16,-9,-7
13:54:23:246385,-7,7,84,39,25,16,-9,-7
13:54:23:252431,-8,-8,30,-11,-7,0,-7,0
13:54:23:268171,3,-1,2,-10,-11,0,-10,-3
13:54:23:268872,3,-1,2,-10,-11,0,-10,-3
13:54:23:274896,2,-9,-18,0,-8,-2,-12,-8
13:54:23:282383,2,-7,-19,-5,-8,-7,-5,0
13:54:23:289987,2,-7,-19,-5,-8,-7,-5,0
13:54:23:297355,11,6,-21,-8,-1,3,-2,0
13:54:23:305657,-3,6,-3,0,7,-6,-30,-15
13:54:23:306417,-3,6,-3,0,7,-6,-30,-15
13:54:23:312367,-7,-5,-9,15,39,17,6,5
13:54:23:336358,1,4,74,3,-12,-3,1,-8
13:54:23:337063,1,4,74,3,-12,-3,1,-8
13:54:23:337813,5,2,8,-31,-21,-10,15,5
13:54:23:342416,1,-7,-26,10,0,-8,-31,0
13:54:23:349934,1,-7,-26,10,0,-8,-31,0
13:54:23:357453,0,0,33,9,-6,-5,-24,-1
13:54:23:365558,17,14,-2,12,5,9,-16,-11
13:54:23:366417,17,14,-2,12,5,9,-16,-11
13:54:23:372455,-6,7,-7,-5,7,2,-10,-11
13:54:23:388101,0,-15,-59,-30,-18,7,25,15
13:54:23:388869,0,-15,-59,-30,-18,7,25,15
13:54:23:394870,5,3,35,3,0,11,-1,2
13:54:23:402414,-8,-20,-13,-33,-10,-9,28,-6
13:54:23:409926,-8,-20,-13,-33,-10,-9,28,-6
13:54:23:417397,1,14,-25,3,-3,-13,18,5
13:54:23:425603,-11,4,2,8,6,0,-10,-17
13:54:23:426413,-11,4,2,8,6,0,-10,-17
13:54:23:432362,1,-1,-2,-4,-3,-3,-8,-5
13:54:23:448090,1,6,-37,-16,-5,-12,1,14
13:54:23:448862,1,6,-37,-16,-5,-12,1,14
13:54:23:455020,10,-2,105,16,14,7,4,1
13:54:23:462401,-3,2,25,6,2,6,8,-1
13:54:23:469963,-3,2,25,6,2,6,8,-1
13:54:23:477416,-6,-1,-18,15,-6,-14,50,-7
13:54:23:485369,0,3,-2,-11,2,1,-19,-3
13:54:23:493082,0,3,-2,-11,2,1,-19,-3
13:54:23:493871,-23,3,-34,-6,-6,-1,-8,-12
13:54:23:508115,-1,7,-19,13,-6,-2,-5,-5
13:54:23:508946,-1,7,-19,13,-6,-2,-5,-5
13:54:23:514887,0,-2,-21,3,2,2,-15,7
13:54:23:522447,-1,6,36,19,15,0,-9,6
13:54:23:529952,-1,6,36,19,15,0,-9,6
13:54:23:537459,2,-3,13,2,-14,1,-2,-1
13:54:23:545555,-2,-4,-38,-6,-5,-4,-3,-1
13:54:23:546364,-2,-4,-38,-6,-5,-4,-3,-1
13:54:23:552444,-2,-6,-6,5,-1,3,38,4
13:54:23:568163,-35,-20,16,8,-2,-12,-14,-49
13:54:23:568877,-35,-20,16,8,-2,-12,-14,-49
13:54:23:574916,-7,1,-27,-35,-5,-6,-19,7
13:54:23:582384,27,9,4,7,11,6,13,15
13:54:23:590016,27,9,4,7,11,6,13,15
13:54:23:597373,5,-9,-84,-5,5,6,-9,6
13:54:23:605604,-3,3,-52,1,7,9,1,3
13:54:23:606419,-3,3,-52,1,7,9,1,3
13:54:23:612348,3,-44,27,-2,-3,2,-4,-3
13:54:23:628069,14,23,-31,5,-8,-14,24,13
13:54:23:628858,14,23,-31,5,-8,-14,24,13
13:54:23:634948,-23,-9,-5,12,7,-5,-10,-12
13:54:23:650569,-6,-10,-5,-24,16,7,-10,-2
13:54:23:651339,-6,-10,-5,-24,16,7,-10,-2
13:54:23:657533,3,27,-2,-3,-6,-8,3,13
13:54:23:665579,2,-11,-57,-3,-4,6,-10,-4
13:54:23:666385,2,-11,-57,-3,-4,6,-10,-4
13:54:23:672380,7,25,2,-29,9,2,-19,8
13:54:23:688109,-32,-12,-40,-2,-7,-17,-37,-23
13:54:23:688914,-32,-12,-40,-2,-7,-17,-37,-23
13:54:23:694934,-10,-33,21,12,-3,0,-12,-17
13:54:23:702492,22,2,22,13,11,28,-15,22
13:54:23:709950,22,2,22,13,11,28,-15,22
13:54:23:717396,0,5,3,7,-21,-10,-30,-4
13:54:23:725597,2,-1,31,2,-4,10,-6,-1
13:54:23:726376,2,-1,31,2,-4,10,-6,-1
13:54:23:732343,19,7,23,-14,0,5,14,22
13:54:23:748064,-5,-14,0,-2,-5,-14,2,0
13:54:23:748835,-5,-14,0,-2,-5,-14,2,0
13:54:23:754966,7,7,-36,4,13,0,13,-1
13:54:23:762378,4,2,27,-2,-10,4,6,7
13:54:23:769950,4,2,27,-2,-10,4,6,7
13:54:23:777367,-6,-11,-6,10,-5,-6,-8,0
13:54:23:793081,-12,-3,30,5,12,-5,31,16
13:54:23:793875,-12,-3,30,5,12,-5,31,16
13:54:23:799834,-8,-56,-8,-23,-5,-2,-24,-23
13:54:23:808116,-3,4,-60,-20,-22,-21,-13,9
13:54:23:808912,-3,4,-60,-20,-22,-21,-13,9
13:54:23:814850,5,24,-40,6,-4,-1,7,7
13:54:23:830576,2,1,34,8,23,29,10,4
13:54:23:831341,2,1,34,8,23,29,10,4
13:54:23:837421,1,12,27,17,6,0,-3,-6
13:54:23:845584,11,5,54,-1,-19,-17,27,9
13:54:23:846381,11,5,54,-1,-19,-17,27,9
13:54:23:859930,-13,-3,30,-19,-4,15,-29,-4
13:54:23:868101,8,-4,-18,-6,-6,-1,-3,3
13:54:23:868824,8,-4,-18,-6,-6,-1,-3,3
13:54:23:874876,9,-9,-4,2,-2,10,-13,-8
13:54:23:890645,0,-2,4,-9,-13,-3,-24,-11
13:54:23:891379,0,-2,4,-9,-13,-3,-24,-11
13:54:23:897375,-4,17,-22,4,-8,-9,16,-5
13:54:23:905597,2,-13,37,-18,-3,1,9,-26
13:54:23:906382,2,-13,37,-18,-3,1,9,-26
13:54:23:928763,-7,7,25,7,1,-12,18,-3
13:54:23:929464,-11,21,-1,24,6,2,12,8
13:54:23:930292,-11,21,-1,24,6,2,12,8
13:54:23:934991,9,14,57,-1,0,-1,20,7
13:54:23:950561,-5,3,-32,-19,-7,-4,-19,3
13:54:23:951388,-5,3,-32,-19,-7,-4,-19,3
13:54:23:957468,-1,-1,4,5,-8,-2,17,7
13:54:23:965552,4,1,-15,-15,13,4,-2,-6
13:54:23:966366,4,1,-15,-15,13,4,-2,-6
13:54:23:979885,-2,-21,-34,-16,0,-9,4,0
13:54:23:988118,-9,-32,-30,-12,-6,-7,-25,-4
13:54:23:988901,-9,-32,-30,-12,-6,-7,-25,-4
13:54:23:994872,-6,13,-49,21,-5,2,-14,-2
13:54:24:10588,2,2,36,-16,-20,-1,21,4
13:54:24:11378,2,2,36,-16,-20,-1,21,4
13:54:24:26212,-3,0,22,12,3,0,5,-1
13:54:24:27004,-3,5,25,-16,7,11,21,20
13:54:24:27858,-3,5,25,-16,7,11,21,20
13:54:24:40001,4,-2,15,-9,-4,3,-10,-2
13:54:24:48074,2,-10,-2,25,2,-11,-24,2
13:54:24:48852,2,-10,-2,25,2,-11,-24,2
13:54:24:54990,1,-23,-41,-15,-1,-8,6,-4
13:54:24:70625,11,14,11,12,-5,-1,9,6
13:54:24:71391,11,14,11,12,-5,-1,9,6
13:54:24:77430,1,-14,16,7,-4,0,-24,-7
13:54:24:85594,-6,7,-13,12,-3,12,17,-9
13:54:24:86364,-6,7,-13,12,-3,12,17,-9
13:54:24:99938,1,4,10,24,10,1,-1,0
13:54:24:108082,2,-11,19,6,5,0,-15,7
13:54:24:108860,2,-11,19,6,5,0,-15,7
13:54:24:114898,1,7,19,-13,-12,-3,25,5
13:54:24:130595,0,-6,11,8,-5,-11,8,-2
13:54:24:131364,0,-6,11,8,-5,-11,8,-2
13:54:24:146274,-9,4,-27,0,2,-7,-7,-5
13:54:24:147034,8,-4,12,1,2,2,0,0
13:54:24:147864,8,-4,12,1,2,2,0,0
13:54:24:159896,-7,4,-37,-11,0,-5,0,2
13:54:24:168153,-14,-22,-115,-41,-7,-23,-18,-11
13:54:24:168884,-14,-22,-115,-41,-7,-23,-18,-11
13:54:24:174867,-1,17,33,7,9,10,2,0
13:54:24:190694,-1,17,33,7,9,10,2,0
13:54:24:191403,0,7,14,15,19,17,17,0
13:54:24:197349,3,-7,-16,-28,-10,-6,15,-1
13:54:24:213097,3,-7,-16,-28,-10,-6,15,-1
13:54:24:213920,0,2,8,27,3,-8,6,-1
13:54:24:219876,-7,-27,-2,-4,0,1,-10,-22
13:54:24:228154,-7,-27,-2,-4,0,1,-10,-22
13:54:24:228895,6,12,51,-26,19,11,-13,-6
13:54:24:234992,2,10,55,9,-8,0,-2,8
13:54:24:250635,2,10,55,9,-8,0,-2,8
13:54:24:251386,-22,-14,-70,20,-24,-15,-12,-22
13:54:24:257469,1,1,9,-8,8,5,-3,2
13:54:24:273240,1,1,9,-8,8,5,-3,2
13:54:24:273911,3,4,14,1,-10,1,16,-1
13:54:24:279874,5,16,35,18,0,-10,7,-4
13:54:24:288165,5,16,35,18,0,-10,7,-4
13:54:24:288887,-3,3,-27,19,10,-5,-2,3
13:54:24:294830,1,5,34,2,9,5,-13,2
13:54:24:310604,1,5,34,2,9,5,-13,2
13:54:24:311383,6,17,37,22,7,5,-9,0
13:54:24:324937,-2,5,-23,-7,2,-5,-19,-17
13:54:24:333071,-2,5,-23,-7,2,-5,-19,-17
13:54:24:333837,6,9,38,-5,-11,-4,-49,1
13:54:24:339956,2,-24,8,25,-2,9,-2,13
13:54:24:348113,2,-24,8,25,-2,9,-2,13
13:54:24:348869,0,-8,9,-4,1,-2,-44,-6
13:54:24:354964,14,6,-103,-6,-7,-4,-1,-18
13:54:24:370578,14,6,-103,-6,-7,-4,-1,-18
13:54:24:371379,-4,-1,29,-3,-7,4,17,3
13:54:24:377445,-15,-26,-29,-9,9,-3,-6,-5
13:54:24:393047,-15,-26,-29,-9,9,-3,-6,-5
13:54:24:393860,5,10,14,19,-2,0,43,-1
13:54:24:399889,2,7,15,10,6,11,-1,13
13:54:24:408056,2,7,15,10,6,11,-1,13
13:54:24:408888,4,-14,12,8,-3,-4,-19,10
13:54:24:414883,-8,-6,-17,-23,-8,-16,3,1
13:54:24:438838,-8,-6,-17,-23,-8,-16,3,1
13:54:24:439535,12,16,-29,-4,0,3,33,8
13:54:24:440350,-6,5,62,-28,-6,0,4,4
13:54:24:453054,-6,5,62,-28,-6,0,4,4
13:54:24:453876,-6,-3,-27,-8,11,5,7,-6
13:54:24:459882,4,-10,20,-17,-4,1,-5,-2
13:54:24:468132,4,-10,20,-17,-4,1,-5,-2
13:54:24:468904,-21,-7,12,-19,13,-13,-2,-21
13:54:24:474894,0,3,-6,-25,-6,8,-3,4
13:54:24:490686,0,3,-6,-25,-6,8,-3,4
13:54:24:491405,1,-5,-44,-25,-17,-12,15,2
13:54:24:497345,19,-12,37,6,0,-1,15,-2
13:54:24:513088,19,-12,37,6,0,-1,15,-2
13:54:24:513863,-6,-13,3,-5,0,2,0,-8
13:54:24:519843,-2,6,-95,-3,-13,4,17,15
13:54:24:528080,-2,6,-95,-3,-13,4,17,15
13:54:24:528901,-15,7,-23,6,-7,-13,-3,-14
13:54:24:534981,-6,23,7,25,5,10,-14,2
13:54:24:550615,-6,23,7,25,5,10,-14,2
13:54:24:551349,-1,-11,-51,-25,-10,4,1,3
13:54:24:557458,2,8,-60,1,1,-2,32,-9
13:54:24:573162,2,8,-60,1,1,-2,32,-9
13:54:24:573850,4,7,64,-15,-6,7,-14,-3
13:54:24:579826,-16,-14,71,22,-4,-5,-16,-7
13:54:24:588151,-16,-14,71,22,-4,-5,-16,-7
13:54:24:588868,-3,2,-34,-13,1,-3,20,14
13:54:24:594877,-14,-16,-14,2,-6,-16,-34,-6
13:54:24:610617,-14,-16,-14,2,-6,-16,-34,-6
13:54:24:611377,15,15,15,12,0,-5,-3,15
13:54:24:617383,21,0,77,0,11,7,8,-9
13:54:24:624962,21,0,77,0,11,7,8,-9
13:54:24:632345,-11,-36,-32,19,9,-4,15,-4
13:54:24:639933,-13,-50,-34,-15,-9,-6,-5,-6
13:54:24:648084,-13,-50,-34,-15,-9,-6,-5,-6
13:54:24:648871,5,-7,56,2,-9,0,3,-2
13:54:24:654999,-2,17,44,11,1,-15,-18,-6
13:54:24:670617,-2,17,44,11,1,-15,-18,-6
13:54:24:671342,-5,4,0,8,-9,-4,-7,-10
13:54:24:677341,2,7,39,7,-1,2,-8,1
13:54:24:685008,2,7,39,7,-1,2,-8,1
13:54:24:692411,-10,-20,13,9,12,2,10,-12
13:54:24:699854,4,4,-7,5,4,1,28,4
13:54:24:708106,4,4,-7,5,4,1,28,4
13:54:24:708895,-16,-18,-61,-5,-6,-9,-9,-19
13:54:24:714864,-3,7,-8,-4,-16,0,-4,-5
13:54:24:730605,-3,7,-8,-4,-16,0,-4,-5
13:54:24:731369,12,20,68,4,1,8,-17,-6
13:54:24:745635,-1,14,-2,21,1,6,-6,6
13:54:24:746361,-1,14,-2,21,1,6,-6,6
13:54:24:752462,2,-4,-6,-9,-1,-1,-13,6
13:54:24:759905,-2,0,-10,-14,9,-2,2,5
13:54:24:768226,-2,0,-10,-14,9,-2,2,5
13:54:24:768924,0,2,2,-5,5,1,11,3
13:54:24:782382,-1,9,48,12,-10,1,28,10
13:54:24:790666,-1,9,48,12,-10,1,28,10
13:54:24:791372,7,18,-59,-12,-8,-2,6,-12
13:54:24:797726,-21,-75,-9,-21,-4,-16,-40,-36
13:54:24:805029,-21,-75,-9,-21,-4,-16,-40,-36
13:54:24:812410,-5,8,35,-13,-4,11,45,10
13:54:24:819887,-2,18,-88,-7,14,9,7,5
13:54:24:828122,-2,18,-88,-7,14,9,7,5
13:54:24:828911,-8,-14,-40,-15,4,-6,-28,-4
13:54:24:842377,7,29,25,1,-8,-3,-6,7
13:54:24:850661,7,29,25,1,-8,-3,-6,7
13:54:24:851389,13,10,0,13,2,2,-16,33
13:54:24:857418,0,21,-74,-5,-2,6,5,-10
13:54:24:864892,0,21,-74,-5,-2,6,5,-10
13:54:24:872487,-13,-20,0,-42,-4,-7,-21,-18
13:54:24:879853,3,-8,13,-4,-1,-13,-8,3
13:54:24:888138,3,-8,13,-4,-1,-13,-8,3
13:54:24:888875,-3,1,18,18,10,5,9,2
13:54:24:902448,6,0,64,6,1,1,-20,-9
13:54:24:910578,6,0,64,6,1,1,-20,-9
13:54:24:911336,13,-23,84,26,-8,-5,-3,6
13:54:24:917478,-4,-4,27,0,0,-1,-38,-1
13:54:24:924897,-4,-4,27,0,0,-1,-38,-1
13:54:24:932352,18,17,-6,9,13,0,-22,8
13:54:24:939968,-3,-20,-10,-27,4,6,22,2
13:54:24:948069,-3,-20,-10,-27,4,6,22,2
13:54:24:948853,-8,4,-38,-13,-11,3,17,6
13:54:24:962413,1,26,-12,10,8,4,-2,-8
13:54:24:970576,1,26,-12,10,8,4,-2,-8
13:54:24:971360,-10,-31,-40,-5,-8,-13,-4,-3
13:54:24:977338,0,-6,30,-3,-9,-2,13,0
13:54:24:984993,0,-6,30,-3,-9,-2,13,0
13:54:24:992389,10,10,-25,17,5,1,33,-3
13:54:24:999890,6,-6,-26,18,16,5,4,7
13:54:25:8098,6,-6,-26,18,16,5,4,7
13:54:25:8897,-1,16,67,10,0,-1,-7,-7
13:54:25:22454,2,12,94,1,13,11,40,28
13:54:25:30990,2,12,94,1,13,11,40,28
13:54:25:38120,-3,1,11,-4,-12,-3,-4,5
13:54:25:38808,-1,1,-22,-8,-6,-6,-29,0
13:54:25:44943,-1,1,-22,-8,-6,-6,-29,0
13:54:25:52467,-2,-8,9,-5,6,8,14,-19
13:54:25:59884,-5,1,-61,6,-2,-8,-3,-2
13:54:25:68243,-5,1,-61,6,-2,-8,-3,-2
13:54:25:68915,2,1,13,15,2,0,-17,-8
13:54:25:82358,-5,-3,-13,-17,-12,-7,-1,-6
13:54:25:90665,-5,-3,-13,-17,-12,-7,-1,-6
13:54:25:91404,-4,10,3,7,-3,-12,-33,-4
13:54:25:97345,-10,-10,-1,1,-4,2,11,-1
13:54:25:105030,-10,-10,-1,1,-4,2,11,-1
13:54:25:112353,0,-5,-53,-4,-7,-7,24,-5
13:54:25:119905,6,15,-36,29,5,2,1,-7
13:54:25:128088,6,15,-36,29,5,2,1,-7
13:54:25:128865,3,9,-2,6,15,11,8,-4
13:54:25:142374,9,9,-11,-10,-12,-5,14,13
13:54:25:150628,9,9,-11,-10,-12,-5,14,13
13:54:25:151399,-6,7,69,-4,3,1,-12,5
13:54:25:157452,-11,1,29,-22,1,-3,-16,-5
13:54:25:164920,-11,1,29,-22,1,-3,-16,-5
13:54:25:172510,-13,-11,-4,-28,-17,-8,-2,-2
13:54:25:179895,7,0,-35,-8,-12,4,-2,27
13:54:25:188153,7,0,-35,-8,-12,4,-2,27
13:54:25:188921,16,17,-47,6,1,8,54,12
13:54:25:202452,-4,-7,-52,-7,-6,-13,-18,-14
13:54:25:210580,-4,-7,-52,-7,-6,-13,-18,-14
13:54:25:211360,1,-2,18,0,-14,-15,-20,5
13:54:25:217434,-1,-19,3,-2,12,1,8,-18
13:54:25:224976,-1,-19,3,-2,12,1,8,-18
13:54:25:232353,0,-12,19,-18,23,9,-21,-1
13:54:25:239918,-5,-7,20,-12,-4,-6,4,2
13:54:25:255736,-5,-7,20,-12,-4,-6,4,2
13:54:25:256390,3,-2,3,6,-5,0,-4,-5
13:54:25:262392,1,9,66,16,3,-2,1,1
13:54:25:270646,1,9,66,16,3,-2,1,1
13:54:25:271401,-14,-32,-61,4,7,-8,-6,-7
13:54:25:277380,3,1,6,10,-1,8,-3,1
13:54:25:284943,3,1,6,10,-1,8,-3,1
13:54:25:292380,-24,-9,-53,-11,-6,3,-7,1
13:54:25:299860,12,-24,-95,10,-2,8,23,-1
13:54:25:308101,12,-24,-95,10,-2,8,23,-1
13:54:25:308905,-2,-17,-38,-9,2,5,0,1
13:54:25:322433,-8,-19,2,8,-4,-5,3,0
13:54:25:330631,-8,-19,2,8,-4,-5,3,0
13:54:25:331335,-2,6,28,-2,3,3,-10,-5
13:54:25:337419,-7,4,9,17,-10,3,23,-3
13:54:25:344960,-7,4,9,17,-10,3,23,-3
13:54:25:352424,6,7,20,1,0,-2,-8,14
13:54:25:359924,-2,3,-53,-15,-3,-6,-33,-9
13:54:25:368175,-2,3,-53,-15,-3,-6,-33,-9
13:54:25:368918,11,9,19,-15,-10,-6,12,14
13:54:25:382368,-14,-11,-11,-10,-4,-17,-16,-39
13:54:25:390665,-14,-11,-11,-10,-4,-17,-16,-39
13:54:25:391390,6,-15,5,3,0,-3,-4,-2
13:54:25:397369,-7,-35,1,-7,-4,-4,-8,7
13:54:25:405038,-7,-35,1,-7,-4,-4,-8,7
13:54:25:412397,3,11,9,23,8,-7,-38,-7
13:54:25:419928,1,11,19,-17,-3,-1,9,0
13:54:25:435647,1,11,19,-17,-3,-1,9,0
13:54:25:436447,-11,2,5,-2,2,1,-5,-4
13:54:25:442451,-3,10,35,2,1,-1,3,5
13:54:25:450610,-3,10,35,2,1,-1,3,5
13:54:25:451358,13,4,30,-19,-8,-3,-20,-7
13:54:25:457517,-11,9,87,14,0,-1,-17,-18
13:54:25:464906,-11,9,87,14,0,-1,-17,-18
13:54:25:472492,-3,-1,-29,-3,-9,-9,25,-7
13:54:25:479865,9,-1,-20,-9,-2,2,10,10
13:54:25:488114,9,-1,-20,-9,-2,2,10,10
13:54:25:488897,0,2,-13,0,-8,-1,-8,10
13:54:25:502420,-15,0,-3,-4,3,-4,22,11
13:54:25:510600,-15,0,-3,-4,3,-4,22,11
13:54:25:511343,2,-34,-70,-43,10,-7,-1,-13
13:54:25:517491,1,8,57,21,11,-1,1,1
13:54:25:524940,1,8,57,21,11,-1,1,1
13:54:25:532364,5,27,39,29,-5,6,9,-6
13:54:25:539906,6,-7,-16,-7,-3,0,-18,2
13:54:25:548092,6,-7,-16,-7,-3,0,-18,2
13:54:25:548830,2,5,31,1,4,-2,51,3
13:54:25:562390,-16,4,3,2,-1,-3,-3,-13
13:54:25:570565,-16,4,3,2,-1,-3,-3,-13
13:54:25:571416,-10,4,-5,-15,-6,-13,-48,-27
13:54:25:577414,7,-1,-21,23,3,14,-12,12
13:54:25:585008,7,-1,-21,23,3,14,-12,12
13:54:25:592401,-9,-32,-44,-30,-6,-1,19,8
13:54:25:599867,10,12,16,2,4,-2,6,0
13:54:25:608117,10,12,16,2,4,-2,6,0
13:54:25:608908,5,14,35,24,-2,4,-22,-6
13:54:25:622403,-8,3,2,-4,2,1,-19,-10
13:54:25:630617,-8,3,2,-4,2,1,-19,-10
13:54:25:631370,-6,10,-23,7,5,7,6,19
13:54:25:637410,10,15,8,15,-4,-5,-11,3
13:54:25:644952,10,15,8,15,-4,-5,-11,3
13:54:25:652413,-15,-8,3,9,-11,-8,-1,2
13:54:25:659896,-16,-6,41,-4,14,8,22,4
13:54:25:668174,-16,-6,41,-4,14,8,22,4
13:54:25:668911,1,-4,52,-8,10,-5,-12,22
13:54:25:682374,0,-5,-65,-14,1,-1,-35,-1
13:54:25:690663,0,-5,-65,-14,1,-1,-35,-1
13:54:25:691428,-3,4,21,13,-5,2,9,-17
13:54:25:713719,8,13,-9,-12,-3,0,-18,0
13:54:25:714520,8,13,-9,-12,-3,0,-18,0
13:54:25:715304,4,3,39,25,0,1,-4,9
13:54:25:719877,-3,-13,1,-2,-9,-6,6,1
13:54:25:727399,-3,-13,1,-2,-9,-6,6,1
13:54:25:734931,-5,-3,7,21,12,0,8,-15
13:54:25:742384,-5,18,-6,-37,-19,3,-9,6
13:54:25:750615,-5,18,-6,-37,-19,3,-9,6
13:54:25:751367,11,0,-48,-2,5,17,-43,4
13:54:25:765571,18,-3,-2,-7,-4,-5,25,7
13:54:25:766356,18,-3,-2,-7,-4,-5,25,7
13:54:25:772426,-2,1,34,9,1,3,-19,-5
13:54:25:779821,6,3,58,3,-12,-9,-18,-7
13:54:25:787473,6,3,58,3,-12,-9,-18,-7
13:54:25:794861,9,6,2,-12,1,-3,27,2
13:54:25:802413,-16,-13,-49,2,6,-9,13,-5
13:54:25:810628,-16,-13,-49,2,6,-9,13,-5
13:54:25:811384,-4,12,-21,-8,-12,-1,31,22
13:54:25:825592,3,-8,-69,-19,4,-7,-102,-31
13:54:25:826387,3,-8,-69,-19,4,-7,-102,-31
13:54:25:832388,1,-22,19,7,2,-4,-59,-17
13:54:25:839964,4,-7,21,-15,-4,19,46,5
13:54:25:847440,4,-7,21,-15,-4,19,46,5
13:54:25:854979,-3,5,-34,-35,1,-8,13,3
13:54:25:862402,-3,-2,26,21,9,-5,6,-3
13:54:25:870628,-3,-2,26,21,9,-5,6,-3
13:54:25:871359,2,10,4,3,-5,-7,-11,-3
13:54:25:885646,11,-1,60,13,8,-6,22,2
13:54:25:886402,11,-1,60,13,8,-6,22,2
13:54:25:892387,-11,3,47,0,-14,-3,-12,-12
13:54:25:899926,3,7,84,10,0,2,17,-12
13:54:25:907512,3,7,84,10,0,2,17,-12
13:54:25:914867,9,14,-30,-10,-13,-3,-6,4
13:54:25:922439,-6,-18,-27,-15,-4,-8,21,1
13:54:25:930557,-6,-18,-27,-15,-4,-8,21,1
13:54:25:931331,3,2,-14,-1,-5,0,4,-7
13:54:25:945578,-8,-7,-32,15,-1,6,-1,-1
13:54:25:946345,-8,-7,-32,15,-1,6,-1,-1
13:54:25:952429,9,-9,3,3,2,-4,-59,5
13:54:25:959929,4,-10,-3,-6,4,1,-5,10
13:54:25:967449,4,-10,-3,-6,4,1,-5,10
13:54:25:974866,-1,1,5,-31,-7,-4,7,2
13:54:25:991200,-11,1,-56,22,-16,-5,-19,-10
13:54:25:992075,-11,1,-56,22,-16,-5,-19,-10
13:54:25:992872,-10,-2,27,13,14,9,27,1
13:54:26:5682,-1,3,-3,6,-2,-13,5,4
13:54:26:6383,-1,3,-3,6,-2,-13,5,4
13:54:26:12442,-35,-11,24,-2,-10,-7,21,-15
13:54:26:19923,-1,14,24,5,4,-1,11,12
13:54:26:27408,-1,14,24,5,4,-1,11,12
13:54:26:34948,-7,-15,-72,-2,0,4,104,-3
13:54:26:42432,-6,-16,-80,-29,-6,-3,-13,-3
13:54:26:50614,-6,-16,-80,-29,-6,-3,-13,-3
13:54:26:51396,9,-4,-12,4,5,-3,10,-10
13:54:26:65556,5,-3,29,-1,19,3,-3,1
13:54:26:66380,5,-3,29,-1,19,3,-3,1
13:54:26:72455,-4,-32,-60,9,5,-3,-10,-5
13:54:26:79864,4,-5,40,1,-11,-4,10,11
13:54:26:87507,4,-5,40,1,-11,-4,10,11
13:54:26:94866,-5,0,44,9,-6,2,-12,2
13:54:26:102406,13,24,1,-15,-12,-2,-11,1
13:54:26:110639,13,24,1,-15,-12,-2,-11,1
13:54:26:111409,7,24,-18,14,1,-6,84,16
13:54:26:125590,2,7,-19,23,3,5,-11,-11
13:54:26:126370,2,7,-19,23,3,5,-11,-11
13:54:26:132343,7,4,-22,-22,-1,1,-39,-5
13:54:26:139910,-1,3,-13,12,2,9,33,11
13:54:26:147397,-1,3,-13,12,2,9,33,11
13:54:26:154963,-12,-12,41,17,2,0,-27,-3
13:54:26:162358,-34,-11,72,-13,10,0,-15,-18
13:54:26:170586,-34,-11,72,-13,10,0,-15,-18
13:54:26:171379,9,-5,-19,-11,-5,-1,-17,-1
13:54:26:185597,11,-17,13,-1,-5,-5,-8,-9
13:54:26:186374,11,-17,13,-1,-5,-5,-8,-9
13:54:26:192383,2,3,5,-21,-4,-6,-26,-12
13:54:26:199860,-3,-6,-58,-7,-2,-3,14,-3
13:54:26:207507,-3,-6,-58,-7,-2,-3,14,-3
13:54:26:214853,10,8,-5,10,-1,1,5,3
13:54:26:222446,7,6,23,-20,-1,2,24,21
13:54:26:230595,7,6,23,-20,-1,2,24,21
13:54:26:231377,-2,6,-33,14,8,9,-9,3
13:54:26:245600,-20,-10,-51,-1,-10,-7,-5,1
13:54:26:246365,-20,-10,-51,-1,-10,-7,-5,1
13:54:26:252393,-6,-15,16,15,5,-4,-12,-5
13:54:26:259919,7,9,54,17,9,-1,-2,-5
13:54:26:267468,7,9,54,17,9,-1,-2,-5
13:54:26:274931,1,11,4,-14,-8,-12,-25,-5
13:54:26:282419,12,-3,37,-8,2,0,8,7
13:54:26:290603,12,-3,37,-8,2,0,8,7
13:54:26:291334,-20,-17,31,16,5,0,19,-11
13:54:26:305696,-6,-10,-68,-1,0,2,-13,2
13:54:26:306344,-6,-10,-68,-1,0,2,-13,2
13:54:26:312373,5,-16,52,-20,-12,-2,-18,5
13:54:26:319932,-7,8,-35,2,4,-4,-7,-20
13:54:26:327429,-7,8,-35,2,4,-4,-7,-20
13:54:26:334979,1,0,30,-19,-11,-8,3,1
13:54:26:342443,-2,-5,5,-6,-11,-3,-18,-8
13:54:26:350545,-2,-5,5,-6,-11,-3,-18,-8
13:54:26:351356,9,6,3,-9,7,7,-2,-7
13:54:26:365533,10,-1,-114,-7,1,-6,-15,-1
13:54:26:366334,10,-1,-114,-7,1,-6,-15,-1
13:54:26:372444,0,3,4,10,4,8,16,11
13:54:26:379873,-3,-2,32,3,3,-3,-7,3
13:54:26:387471,-3,-2,32,3,3,-3,-7,3
13:54:26:394870,-10,-18,-16,-17,-17,-4,13,-11
13:54:26:402420,5,5,90,15,-2,4,-2,5
13:54:26:410650,5,5,90,15,-2,4,-2,5
13:54:26:411408,0,3,11,22,2,13,-60,-10
13:54:26:425614,2,5,56,6,2,1,-11,-2
13:54:26:426388,2,5,56,6,2,1,-11,-2
13:54:26:432340,5,10,-29,15,-6,-6,-41,-3
13:54:26:439943,-6,-11,-43,-4,-6,-3,4,5
13:54:26:447438,-6,-11,-43,-4,-6,-3,4,5
13:54:26:454973,0,9,-15,-11,-6,-5,52,14
13:54:26:462375,4,15,13,-6,2,1,15,13
13:54:26:470642,4,15,13,-6,2,1,15,13
13:54:26:471423,-9,-4,15,6,4,-3,13,2
13:54:26:485644,6,10,3,-27,14,8,-3,-1
13:54:26:486409,6,10,3,-27,14,8,-3,-1
13:54:26:492417,5,-19,-53,-4,-3,-4,4,12
13:54:26:499866,-11,-27,46,-16,-12,-8,14,-8
13:54:26:507568,-11,-27,46,-16,-12,-8,14,-8
13:54:26:514863,3,4,-7,-7,14,12,-7,-1
13:54:26:522416,-1,2,-14,7,-1,-7,-28,-4
13:54:26:530604,-1,2,-14,7,-1,-7,-28,-4
13:54:26:531387,1,19,41,1,2,2,-16,-20
13:54:26:545571,-11,15,27,7,-2,9,8,8
13:54:26:546366,-11,15,27,7,-2,9,8,8
13:54:26:552453,0,15,-1,7,15,7,-16,-2
13:54:26:559891,12,4,33,9,-2,-2,13,-4
13:54:26:567483,12,4,33,9,-2,-2,13,-4
13:54:26:583012,-8,-12,3,-19,-6,-7,6,-1
13:54:26:583832,-3,-21,-47,4,-1,-4,-3,-5
13:54:26:590707,-3,-21,-47,4,-1,-4,-3,-5
13:54:26:591400,2,-4,-16,-7,2,2,-34,-2
13:54:26:605638,4,-1,-84,2,-12,2,21,13
13:54:26:606392,4,-1,-84,2,-12,2,21,13
13:54:26:612369,-12,-11,-46,-23,-5,-7,23,-13
13:54:26:619896,-10,-17,22,1,-3,-13,-13,-26
13:54:26:627465,-10,-17,22,1,-3,-13,-13,-26
13:54:26:634936,-8,-26,90,8,-5,-4,6,8
13:54:26:642444,2,10,3,12,-7,-1,13,0
13:54:26:649978,2,10,3,12,-7,-1,13,0
13:54:26:666210,11,21,28,9,12,-3,-4,6
13:54:26:666985,4,16,-15,0,-2,1,-14,4
13:54:26:667851,4,16,-15,0,-2,1,-14,4
13:54:26:672483,18,10,-43,-10,-9,0,70,9
13:54:26:688129,7,4,-49,-26,1,-1,4,6
13:54:26:688910,7,4,-49,-26,1,-1,4,6
13:54:26:694853,-6,-27,-15,23,-1,-7,11,2
13:54:26:702412,-6,-18,-7,-31,-23,-6,12,0
13:54:26:709988,-6,-18,-7,-31,-23,-6,12,0
13:54:26:717401,-1,10,18,18,15,13,-14,5
13:54:26:725573,-8,3,81,-16,-10,-5,-14,-4
13:54:26:726365,-8,3,81,-16,-10,-5,-14,-4
13:54:26:732391,-1,-20,17,1,-5,-12,-7,-4
13:54:26:748157,-8,14,33,17,-1,-9,10,-10
13:54:26:748922,-8,14,33,17,-1,-9,10,-10
13:54:26:754937,7,1,-29,-13,-6,-6,1,-6
13:54:26:762426,1,-15,-9,-6,-2,-2,-6,-5
13:54:26:769961,1,-15,-9,-6,-2,-2,-6,-5
13:54:26:777455,-5,12,2,0,3,6,13,-5
13:54:26:785611,7,-5,-52,5,10,2,-5,0
13:54:26:786339,7,-5,-52,5,10,2,-5,0
13:54:26:792383,0,-14,16,-4,1,-2,-11,-19
13:54:26:808099,-4,-8,-49,-12,0,-1,-10,2
13:54:26:808855,-4,-8,-49,-12,0,-1,-10,2
13:54:26:814898,-9,13,21,-26,-12,-7,-20,-22
13:54:26:822472,-13,-9,31,30,13,1,-6,-9
13:54:26:829913,-13,-9,31,30,13,1,-6,-9
13:54:26:837365,-9,-16,-36,3,-10,-2,4,11
13:54:26:845566,10,-2,35,-27,5,3,66,4
13:54:26:846362,10,-2,35,-27,5,3,66,4
13:54:26:852386,-2,5,7,-8,2,0,0,12
13:54:26:868114,11,24,59,32,-2,0,-19,8
13:54:26:868858,11,24,59,32,-2,0,-19,8
13:54:26:874868,7,3,-9,-25,-16,-2,19,12
13:54:26:882342,10,9,32,-5,-2,11,-9,-4
13:54:26:890032,10,9,32,-5,-2,11,-9,-4
13:54:26:897344,-4,14,-11,-21,-8,-1,-28,-3
13:54:26:905678,0,4,41,11,-5,-10,-24,5
13:54:26:906373,0,4,41,11,-5,-10,-24,5
13:54:26:912410,-5,3,28,29,5,0,16,-1
13:54:26:928093,-4,-4,0,1,7,-1,-8,-12
13:54:26:928883,-4,-4,0,1,7,-1,-8,-12
13:54:26:934960,2,1,3,-20,-6,-8,-9,11
13:54:26:942342,-2,-11,-23,7,-4,5,7,3
13:54:26:949970,-2,-11,-23,7,-4,5,7,3
13:54:26:957460,-2,-14,23,9,3,-1,7,3
13:54:26:965533,-3,7,-33,-4,2,-3,-10,-26
13:54:26:966328,-3,7,-33,-4,2,-3,-10,-26
13:54:26:972433,1,-16,9,-30,0,3,-12,-1
13:54:26:988161,-14,-6,-4,8,-3,-7,59,6
13:54:26:988895,-14,-6,-4,8,-3,-7,59,6
13:54:26:994870,7,-3,-69,3,1,3,20,-3
13:54:27:2399,3,0,-120,2,4,10,-29,7
13:54:27:9977,3,0,-120,2,4,10,-29,7
13:54:27:17386,10,10,-33,10,2,3,-3,-3
13:54:27:25575,4,1,12,-2,-7,-3,-5,6
13:54:27:26384,4,1,12,-2,-7,-3,-5,6
13:54:27:32392,3,17,5,22,0,0,-12,0
13:54:27:48043,6,-7,-31,-6,0,-6,-6,16
13:54:27:48812,6,-7,-31,-6,0,-6,-6,16
13:54:27:54946,-11,8,87,14,3,-2,-24,-22
13:54:27:62379,-10,-6,31,-10,0,3,47,4
13:54:27:69903,-10,-6,31,-10,0,3,47,4
13:54:27:77407,1,5,6,23,7,5,7,5
13:54:27:85613,-7,13,67,-5,-8,3,-31,-4
13:54:27:86379,-7,13,67,-5,-8,3,-31,-4
13:54:27:92384,-14,-39,-26,-4,3,-4,-4,-11
13:54:27:108557,4,-1,32,-10,4,1,-11,-8
13:54:27:109303,4,-1,32,-10,4,1,-11,-8
13:54:27:114889,2,14,51,26,6,11,-6,17
13:54:27:122453,-6,-4,4,-4,4,1,24,4
13:54:27:129855,-6,-4,4,-4,4,1,24,4
13:54:27:137405,7,13,-33,-2,1,4,-26,-1
13:54:27:145573,-2,0,-9,-6,-5,-5,0,-6
13:54:27:146415,-2,0,-9,-6,-5,-5,0,-6
13:54:27:152397,-4,-15,-25,-7,-9,-15,5,-27
13:54:27:168160,-4,3,28,3,2,4,-21,-3
13:54:27:168860,-4,3,28,3,2,4,-21,-3
13:54:27:174879,5,26,51,-8,12,5,1,13
13:54:27:182328,4,0,-1,-5,-6,0,-22,-7
13:54:27:189993,4,0,-1,-5,-6,0,-22,-7
13:54:27:197333,-6,6,-26,1,-11,-5,18,3
13:54:27:205628,11,-4,-27,-3,9,3,0,5
13:54:27:206392,11,-4,-27,-3,9,3,0,5
13:54:27:212380,-13,-16,-31,-7,3,-5,-8,1
13:54:27:228101,17,13,-27,-15,-10,-6,11,-4
13:54:27:228919,17,13,-27,-15,-10,-6,11,-4
13:54:27:234939,-5,-10,-12,-13,-6,-4,-11,10
13:54:27:242360,-12,-12,-17,11,-1,-3,-40,-8
13:54:27:249921,-12,-12,-17,11,-1,-3,-40,-8
13:54:27:257468,9,14,-115,-2,-4,-10,3,-5
13:54:27:265590,2,-4,4,-23,-15,-9,-9,3
13:54:27:266397,2,-4,4,-23,-15,-9,-9,3
13:54:27:272476,-3,-2,7,-30,16,11,14,4
13:54:27:288165,-9,-29,-30,-4,-2,-4,18,-7
13:54:27:288936,-9,-29,-30,-4,-2,-4,18,-7
13:54:27:294917,11,12,63,-19,-13,-6,56,2
13:54:27:302451,-8,4,84,-2,2,-8,-9,-10
13:54:27:310001,-8,4,84,-2,2,-8,-9,-10
13:54:27:317408,-28,-38,0,4,-2,-8,-17,-25
13:54:27:325625,-5,-4,-79,-26,1,5,-1,4
13:54:27:326356,-5,-4,-79,-26,1,5,-1,4
13:54:27:332393,-2,6,10,14,0,1,-9,7
13:54:27:348078,-10,-21,-19,39,6,3,24,-5
13:54:27:348880,-10,-21,-19,39,6,3,24,-5
13:54:27:354960,10,-10,-15,-1,3,-6,32,-7
13:54:27:362386,2,8,12,-2,5,-2,-15,2
13:54:27:369920,2,8,12,-2,5,-2,-15,2
13:54:27:377435,2,29,71,9,-12,4,-22,4
13:54:27:385600,-12,20,8,16,4,7,-3,-2
13:54:27:386387,-12,20,8,16,4,7,-3,-2
13:54:27:392393,-6,-5,8,12,0,-8,-38,-2
13:54:27:408128,-1,-9,-44,6,3,-3,37,-3
13:54:27:408915,-1,-9,-44,6,3,-3,37,-3
13:54:27:414880,7,3,-24,4,-4,5,-16,22
13:54:27:422478,9,24,14,-17,-6,-3,-15,-9
13:54:27:429899,9,24,14,-17,-6,-3,-15,-9
13:54:27:437429,15,2,15,-14,3,8,4,7
13:54:27:445575,-10,-33,1,-26,-4,-6,-46,2
13:54:27:446371,-10,-33,1,-26,-4,-6,-46,2
13:54:27:452425,-9,12,-26,1,-4,-4,6,-1
13:54:27:467969,8,-6,7,21,2,4,6,7
13:54:27:475623,8,-6,7,21,2,4,6,7
13:54:27:476415,-4,-7,-25,4,-1,-6,-14,-6
13:54:27:482346,7,-5,15,-19,-4,-9,4,9
13:54:27:489992,7,-5,15,-19,-4,-9,4,9
13:54:27:497337,2,26,91,19,6,2,31,-2
13:54:27:505700,2,26,91,19,6,2,31,-2
13:54:27:506445,16,16,-8,8,-3,2,-19,0
13:54:27:512348,0,15,-38,-52,-6,1,-3,9
13:54:27:528076,0,15,-38,-52,-6,1,-3,9
13:54:27:528892,0,10,-48,13,-3,-3,13,-12
13:54:27:534948,-15,-24,-31,-7,-10,-5,-11,-12
13:54:27:550612,-15,-24,-31,-7,-10,-5,-11,-12
13:54:27:551361,10,13,19,-16,-2,-1,-58,0
13:54:27:557394,16,-13,21,15,-2,1,0,0
13:54:27:565567,16,-13,21,15,-2,1,0,0
13:54:27:566350,-19,-38,-5,8,0,-3,0,-16
13:54:27:579844,5,-2,17,3,0,-3,11,-1
13:54:27:588143,5,-2,17,3,0,-3,11,-1
13:54:27:588896,9,-2,5,28,12,7,12,16
13:54:27:594863,3,-19,34,-7,3,5,21,-1
13:54:27:610566,3,-19,34,-7,3,5,21,-1
13:54:27:611400,-7,-10,-32,-21,1,-6,26,2
13:54:27:617383,-3,1,40,2,3,-2,-29,-2
13:54:27:625595,-3,1,40,2,3,-2,-29,-2
13:54:27:626382,20,-4,23,-12,-3,-9,8,3
13:54:27:640004,-2,-6,-61,12,2,10,11,8
13:54:27:648076,-2,-6,-61,12,2,10,11,8
13:54:27:648838,-14,4,-18,-19,-7,-4,3,0
13:54:27:654975,-4,-9,14,-26,-6,-3,-14,-2
13:54:27:670653,-4,-9,14,-26,-6,-3,-14,-2
13:54:27:671447,-1,17,25,6,-1,9,9,-4
13:54:27:677450,3,-29,-91,12,6,-10,-32,-15
13:54:27:685642,3,-29,-91,12,6,-10,-32,-15
13:54:27:686405,2,-12,-56,-29,-3,-12,-17,8
13:54:27:699910,8,12,-1,-3,10,2,21,8
13:54:27:708052,8,12,-1,-3,10,2,21,8
13:54:27:708922,-12,-15,60,13,-7,-2,-17,-4
13:54:27:714823,-19,17,10,8,-17,-10,-4,-13
13:54:27:730549,-19,17,10,8,-17,-10,-4,-13
13:54:27:731325,-2,13,46,5,-7,6,4,-3
13:54:27:737477,4,2,8,22,-5,-12,-16,5
13:54:27:745613,4,2,8,22,-5,-12,-16,5
13:54:27:746343,9,34,13,24,3,2,11,7
13:54:27:759929,-3,-9,16,14,-1,1,-12,0
13:54:27:768155,-3,-9,16,14,-1,1,-12,0
13:54:27:768891,6,-4,57,12,7,0,-1,2
13:54:27:774912,-16,10,-46,-27,-2,7,-3,-1
13:54:27:790674,-16,10,-46,-27,-2,7,-3,-1
13:54:27:791358,-14,7,9,23,-2,3,36,-5
13:54:27:797405,5,-11,49,-16,2,8,15,19
13:54:27:805624,5,-11,49,-16,2,8,15,19
13:54:27:806352,0,6,-90,20,5,1,6,1
13:54:27:819891,13,8,53,-1,4,3,47,-8
13:54:27:828091,13,8,53,-1,4,3,47,-8
13:54:27:828869,-15,-31,-4,-60,-4,-6,38,2
13:54:27:834955,2,8,-25,-9,11,7,-9,0
13:54:27:850644,2,8,-25,-9,11,7,-9,0
13:54:27:851362,-10,-25,71,-24,-11,-6,-14,-9
13:54:27:857481,-8,-19,-26,-9,-14,-16,-14,-12
13:54:27:865572,-8,-19,-26,-9,-14,-16,-14,-12
13:54:27:866322,14,-18,44,15,11,7,-28,-8
13:54:27:879869,2,3,-46,3,1,-3,-15,4
13:54:27:888180,2,3,-46,3,1,-3,-15,4
13:54:27:888914,-4,-1,9,10,-9,-9,0,-3
13:54:27:894940,-8,-15,6,-6,-6,-4,-44,-13
13:54:27:910648,-8,-15,6,-6,-6,-4,-44,-13
13:54:27:911426,10,15,-72,2,1,7,20,-6
13:54:27:917413,0,-1,-41,-6,9,3,-6,-20
13:54:27:925657,0,-1,-41,-6,9,3,-6,-20
13:54:27:926448,-9,-1,-18,1,10,-1,-23,-12
13:54:27:940017,-1,3,32,4,-8,6,15,22
13:54:27:948161,-1,3,32,4,-8,6,15,22
13:54:27:948884,-6,11,-5,-10,-3,2,12,13
13:54:27:954990,7,17,69,-19,1,2,-13,9
13:54:27:970698,7,17,69,-19,1,2,-13,9
13:54:27:971479,9,6,15,8,3,2,-17,5
13:54:27:977432,1,-8,85,14,-5,4,28,3
13:54:27:985673,1,-8,85,14,-5,4,28,3
13:54:27:986387,2,-18,-7,-2,-14,-1,-16,4
13:54:27:999883,0,-5,-22,12,3,-3,6,-1
13:54:28:8162,0,-5,-22,12,3,-3,6,-1
13:54:28:8933,-5,0,6,16,-7,-8,15,8
13:54:28:14883,4,-6,49,-19,-9,-9,-9,-8
13:54:28:31100,4,-6,49,-19,-9,-9,-9,-8
13:54:28:31830,-3,14,6,4,-1,-6,-1,0
13:54:28:37387,-6,-1,-54,-7,1,-1,9,1
13:54:28:45612,-6,-1,-54,-7,1,-1,9,1
13:54:28:46407,7,0,15,-5,-5,-5,12,4
13:54:28:59905,0,10,1,26,17,4,-15,0
13:54:28:68162,0,10,1,26,17,4,-15,0
13:54:28:68904,-1,4,-1,-7,12,9,-20,-15
13:54:28:74903,-12,19,-9,11,-4,-11,20,-5
13:54:28:90661,-12,19,-9,11,-4,-11,20,-5
13:54:28:91358,7,23,4,-5,6,5,24,-1
13:54:28:97336,-2,-11,-46,-44,-2,-3,6,7
13:54:28:105695,-2,-11,-46,-44,-2,-3,6,7
13:54:28:106422,-10,-14,-13,-19,6,-1,-18,4
13:54:28:119922,5,-5,2,31,-4,0,-7,6
13:54:28:128075,5,-5,2,31,-4,0,-7,6
13:54:28:128870,5,-7,-21,-25,-6,9,60,5
13:54:28:134957,1,-10,-66,11,-9,0,16,-4
13:54:28:150605,1,-10,-66,11,-9,0,16,-4
13:54:28:151339,-23,-3,-43,18,0,-11,-33,-5
13:54:28:157468,9,-8,74,3,-6,-5,-5,7
13:54:28:165564,9,-8,74,3,-6,-5,-5,7
13:54:28:166360,1,-8,14,5,-1,-3,-6,-14
13:54:28:179877,-5,5,7,6,7,0,-45,-6
13:54:28:188142,-5,5,7,6,7,0,-45,-6
13:54:28:188846,1,0,21,-22,-3,-10,-6,-2
13:54:28:194898,-5,0,0,3,0,6,20,-3
13:54:28:210558,-5,0,0,3,0,6,20,-3
13:54:28:211340,-3,8,65,-16,-1,-7,-4,-7
13:54:28:217389,-11,6,-22,-19,-5,-1,12,-5
13:54:28:225555,-11,6,-22,-19,-5,-1,12,-5
13:54:28:226372,0,1,-7,9,-4,5,-1,0
13:54:28:239981,9,20,55,34,4,0,-21,-2
13:54:28:248032,9,20,55,34,4,0,-21,-2
13:54:28:248822,-2,-10,-64,19,-7,-12,-66,3
13:54:28:254969,-1,-2,-15,-3,-3,0,-45,-8
13:54:28:270659,-1,-2,-15,-3,-3,0,-45,-8
13:54:28:271391,-3,-5,0,8,-1,-5,-9,9
13:54:28:277401,-16,-30,-69,-2,3,-4,-10,0
13:54:28:285671,-16,-30,-69,-2,3,-4,-10,0
13:54:28:286334,-2,-5,-23,-11,-11,-9,10,-3
13:54:28:299881,2,5,37,6,1,5,32,-3
13:54:28:308138,2,5,37,6,1,5,32,-3
13:54:28:308879,2,-5,-2,5,6,6,-18,3
13:54:28:314869,5,4,-28,-35,-8,-5,37,2
13:54:28:330602,5,4,-28,-35,-8,-5,37,2
13:54:28:331358,-3,-3,22,8,-3,7,21,-7
13:54:28:337456,-5,-6,-31,-15,-8,-9,-15,-16
13:54:28:345573,-5,-6,-31,-15,-8,-9,-15,-16
13:54:28:346346,-4,16,21,15,6,8,25,2
13:54:28:359894,3,-26,46,28,17,3,14,6
13:54:28:368199,3,-26,46,28,17,3,14,6
13:54:28:368938,-5,-20,-44,7,8,-2,50,3
13:54:28:374920,1,14,23,-12,7,6,5,-3
13:54:28:390687,1,14,23,-12,7,6,5,-3
13:54:28:391391,0,3,1,15,2,-5,-50,-1
13:54:28:397352,-2,12,-35,-7,3,-2,-6,2
13:54:28:405679,-2,12,-35,-7,3,-2,-6,2
13:54:28:406461,0,-9,-3,-10,-4,0,-11,-10
13:54:28:419879,9,-3,-4,7,-2,6,3,17
13:54:28:428131,9,-3,-4,7,-2,6,3,17
13:54:28:428934,8,27,6,12,-7,-6,-23,-32
13:54:28:434971,-2,-1,-47,-14,-17,-3,-9,5
13:54:28:450603,-2,-1,-47,-14,-17,-3,-9,5
13:54:28:451383,7,5,48,-5,-3,-4,18,13
13:54:28:457457,-4,9,-7,-5,-3,5,31,-6
13:54:28:465592,-4,9,-7,-5,-3,5,31,-6
13:54:28:466392,0,20,40,-2,5,10,-27,-4
13:54:28:479854,-15,-15,62,9,-1,-2,-39,-7
13:54:28:488138,-15,-15,62,9,-1,-2,-39,-7
13:54:28:488875,-16,-38,31,-16,2,-3,22,-3
13:54:28:494853,5,-5,22,-5,7,-7,-5,-11
13:54:28:510588,5,-5,22,-5,7,-7,-5,-11
13:54:28:511376,6,3,-39,5,-11,3,5,11
13:54:28:517375,4,4,22,-5,-3,-6,-7,-14
13:54:28:524966,4,4,22,-5,-3,-6,-7,-14
13:54:28:532352,-13,-18,-60,-1,-5,-4,2,3
13:54:28:539920,-4,-10,-125,10,-5,-4,-24,2
13:54:28:548097,-4,-10,-125,10,-5,-4,-24,2
13:54:28:548866,3,3,1,3,-5,-8,16,-3
13:54:28:562394,7,2,13,12,-2,-8,33,8
13:54:28:570641,7,2,13,12,-2,-8,33,8
13:54:28:571402,-3,5,16,-13,10,-7,-14,3
13:54:28:577380,0,5,12,-1,-4,-4,14,7
13:54:28:585010,0,5,12,-1,-4,-4,14,7
13:54:28:592404,9,21,16,-15,0,7,9,7
13:54:28:599850,-6,6,0,-6,-1,5,-21,-8
13:54:28:608059,-6,6,0,-6,-1,5,-21,-8
13:54:28:608853,-2,6,-46,-13,-1,2,-11,-5
13:54:28:622396,4,-34,5,-6,-4,-7,25,-10
13:54:28:630648,4,-34,5,-6,-4,-7,25,-10
13:54:28:631382,-4,-8,-52,10,-2,-7,-3,-3
13:54:28:637453,-3,3,-30,1,5,0,13,7
13:54:28:644920,-3,3,-30,1,5,0,13,7
13:54:28:652412,-10,-10,14,23,-8,-2,4,6
13:54:28:659913,-12,-8,-3,4,7,-5,-22,-13
13:54:28:668137,-12,-8,-3,4,7,-5,-22,-13
13:54:28:668857,-3,-21,-3,-20,-5,3,7,-2
13:54:28:682365,-6,21,-24,-4,12,7,-3,9
13:54:28:690692,-6,21,-24,-4,12,7,-3,9
13:54:28:691370,4,26,95,-4,-8,-2,-18,-7
13:54:28:697391,0,2,10,-7,-11,-2,-4,-4
13:54:28:705017,0,2,10,-7,-11,-2,-4,-4
13:54:28:712365,-4,-12,18,-33,1,-1,-22,-11
13:54:28:719917,-8,-19,41,-10,-9,-1,-20,5
13:54:28:728087,-8,-19,41,-10,-9,-1,-20,5
13:54:28:728852,6,-1,-2,1,-1,-1,-4,-3
13:54:28:742418,2,-28,-36,-35,-7,-5,-14,-3
13:54:28:750605,2,-28,-36,-35,-7,-5,-14,-3
13:54:28:751401,4,-7,7,29,5,5,15,10
13:54:28:757451,1,-8,17,4,-5,3,3,-11
13:54:28:764890,1,-8,17,4,-5,3,3,-11
13:54:28:772420,-1,17,-47,6,8,9,2,8
13:54:28:779833,-10,11,25,16,3,-5,-34,7
13:54:28:788182,-10,11,25,16,3,-5,-34,7
13:54:28:788896,-1,-4,48,8,4,1,-13,14
13:54:28:802366,11,25,96,-3,-9,2,-6,-1
13:54:28:810582,11,25,96,-3,-9,2,-6,-1
13:54:28:811392,14,3,22,36,-2,0,-7,-5
13:54:28:817405,4,-8,30,24,12,3,34,-9
13:54:28:824931,4,-8,30,24,12,3,34,-9
13:54:28:832353,-1,-3,-31,-4,-1,-5,11,-13
13:54:28:839925,-4,24,-55,17,7,-4,5,-1
13:54:28:848117,-4,24,-55,17,7,-4,5,-1
13:54:28:848897,-8,-14,-45,-17,3,4,-15,-1
13:54:28:862386,14,8,-15,-16,-10,2,43,9
13:54:28:870667,14,8,-15,-16,-10,2,43,9
13:54:28:871400,-8,-5,31,-21,3,2,-29,-14
13:54:28:877387,-2,8,64,-2,-14,1,9,12
13:54:28:884997,-2,8,64,-2,-14,1,9,12
13:54:28:892394,1,-5,-5,-2,5,-11,15,-4
13:54:28:899925,-3,-11,-18,4,9,-2,10,0
13:54:28:908079,-3,-11,-18,4,9,-2,10,0
13:54:28:908849,-12,2,-11,-12,0,-5,22,8
13:54:28:922411,9,-1,41,-10,-1,-3,39,1
13:54:28:930613,9,-1,41,-10,-1,-3,39,1
13:54:28:931390,0,-23,-98,-22,1,3,55,-4
13:54:28:937457,2,-8,-83,15,7,-3,-17,0
13:54:28:944900,2,-8,-83,15,7,-3,-17,0
13:54:28:952437,0,7,78,17,-2,-4,-4,7
13:54:28:959901,-7,-6,-11,0,11,0,-14,-7
13:54:28:968149,-7,-6,-11,0,11,0,-14,-7
13:54:28:968850,0,-22,-65,-12,-10,-8,-11,-3
13:54:28:982371,6,-2,7,-18,-8,0,6,0
13:54:28:990721,6,-2,7,-18,-8,0,6,0
13:54:28:991331,10,8,18,6,4,3,-32,15
13:54:29:5670,-4,-1,2,-20,-5,-4,-6,-4
13:54:29:6442,-4,-1,2,-20,-5,-4,-6,-4
13:54:29:12418,1,-6,28,-2,-17,-7,6,0
13:54:29:19894,10,13,21,19,-2,-2,-28,3
13:54:29:28065,10,13,21,19,-2,-2,-28,3
13:54:29:28857,-18,30,39,-9,5,8,6,-22
13:54:29:42384,-13,-9,18,26,6,1,16,2
13:54:29:50642,-13,-9,18,26,6,1,16,2
13:54:29:51402,7,-1,-53,-1,1,-1,-2,-6
13:54:29:57448,5,8,-4,-4,3,-4,-41,-6
13:54:29:64885,5,8,-4,-4,3,-4,-41,-6
13:54:29:72440,-12,8,-4,13,3,-1,3,-5
13:54:29:79916,-11,-16,-25,-23,-14,-8,-9,-10
13:54:29:88183,-11,-16,-25,-23,-14,-8,-9,-10
13:54:29:88877,1,-6,45,-4,9,6,-6,-1
13:54:29:102487,-13,-12,-25,-14,2,1,6,-13
13:54:29:110605,-13,-12,-25,-14,2,1,6,-13
13:54:29:111370,8,-8,-50,-27,-1,-4,6,1
13:54:29:117433,-1,7,41,27,-4,-3,-9,10
13:54:29:124951,-1,7,41,27,-4,-3,-9,10
13:54:29:132316,9,10,3,12,-1,-2,9,7
13:54:29:139945,-1,2,33,4,14,17,4,3
13:54:29:148071,-1,2,33,4,14,17,4,3
13:54:29:148847,1,9,-6,-10,-12,-11,36,0
13:54:29:162450,7,11,5,-7,-10,-2,-16,-2
13:54:29:170632,7,11,5,-7,-10,-2,-16,-2
13:54:29:171388,14,1,11,2,4,2,-20,4
13:54:29:177335,-1,-18,-19,-34,-12,-7,31,6
13:54:29:185041,-1,-18,-19,-34,-12,-7,31,6
13:54:29:192401,-7,-6,-48,-6,-6,-8,-5,-2
13:54:29:199935,3,10,21,3,-4,-2,-17,3
13:54:29:208126,3,10,21,3,-4,-2,-17,3
13:54:29:208908,-1,-22,-14,4,-9,-6,-6,-1
13:54:29:222407,-9,-12,-42,4,0,-3,-8,-4
13:54:29:230643,-9,-12,-42,4,0,-3,-8,-4
13:54:29:231366,15,22,20,34,5,8,-2,1
13:54:29:237490,2,7,-15,-6,-10,0,-1,-8
13:54:29:244951,2,7,-15,-6,-10,0,-1,-8
13:54:29:252420,-14,-35,-6,-29,-12,-9,-5,-16
13:54:29:259895,-9,-4,26,-5,-3,-2,-2,-13
13:54:29:268126,-9,-4,26,-5,-3,-2,-2,-13
13:54:29:268880,5,-12,-8,14,10,-3,-19,0
13:54:29:282358,6,-9,-37,20,3,-2,32,-2
13:54:29:290684,6,-9,-37,20,3,-2,32,-2
13:54:29:291372,0,26,39,-23,-1,4,-1,5
13:54:29:297352,-1,7,-26,16,-2,3,-7,0
13:54:29:304961,-1,7,-26,16,-2,3,-7,0
13:54:29:312396,-9,3,26,14,-6,4,11,-11
13:54:29:319969,8,-10,11,-6,0,-1,-17,0
13:54:29:328084,8,-10,11,-6,0,-1,-17,0
13:54:29:328848,1,-10,25,4,0,4,-25,4
13:54:29:342392,3,7,-4,10,4,3,-4,11
13:54:29:350576,3,7,-4,10,4,3,-4,11
13:54:29:351373,-2,2,-35,-9,13,1,-29,-13
13:54:29:357486,-3,-16,-17,-46,-6,-7,-6,0
13:54:29:364863,-3,-16,-17,-46,-6,-7,-6,0
13:54:29:372459,1,-16,-11,-7,0,2,5,2
13:54:29:379868,-3,-1,24,-9,1,-5,7,-2
13:54:29:388142,-3,-1,24,-9,1,-5,7,-2
13:54:29:388830,-13,3,24,6,-16,-18,22,-6
13:54:29:402445,9,9,53,10,4,3,51,11
13:54:29:410584,9,9,53,10,4,3,51,11
13:54:29:411332,10,9,61,4,1,0,-26,4
13:54:29:417478,-2,0,-5,11,-3,-4,-22,-5
13:54:29:424962,-2,0,-5,11,-3,-4,-22,-5
13:54:29:432345,9,6,-5,-8,1,3,14,9
13:54:29:440032,9,-8,77,-6,7,1,-6,-3
13:54:29:448057,9,-8,77,-6,7,1,-6,-3
13:54:29:448855,-4,-3,18,17,0,2,-9,-6
13:54:29:462418,-6,-2,-2,7,0,-5,3,3
13:54:29:470610,-6,-2,-2,7,0,-5,3,3
13:54:29:471399,-7,-2,-72,-7,1,5,1,-2
13:54:29:485596,-6,0,-13,29,1,2,-31,-4
13:54:29:486393,-6,0,-13,29,1,2,-31,-4
13:54:29:492326,20,18,26,1,-5,0,-8,12
13:54:29:499860,-3,-11,-2,-43,13,10,3,4
13:54:29:507522,-3,-11,-2,-43,13,10,3,4
13:54:29:514823,-2,-3,55,18,-4,-2,-11,-7
13:54:29:522429,-4,1,-16,7,-10,-8,-12,-12
13:54:29:530575,-4,1,-16,7,-10,-8,-12,-12
13:54:29:531362,-5,-8,-11,-1,15,9,20,8
13:54:29:545572,-4,-6,-23,-7,-7,-1,8,6
13:54:29:546391,-4,-6,-23,-7,-7,-1,8,6
13:54:29:552366,28,-12,-32,-40,-10,-13,16,-9
13:54:29:559875,-7,-33,7,-11,2,-1,-48,-16
13:54:29:567516,-7,-33,7,-11,2,-1,-48,-16
13:54:29:574878,-9,2,1,-5,4,1,-29,8
13:54:29:582377,4,11,-26,-11,1,0,14,-4
13:54:29:590648,4,11,-26,-11,1,0,14,-4
13:54:29:591424,-8,-7,-30,-8,6,4,15,2
13:54:29:605684,-11,4,-19,-4,-5,-3,-5,1
13:54:29:606407,-11,4,-19,-4,-5,-3,-5,1
13:54:29:612371,-2,11,-3,26,5,5,14,5
13:54:29:619908,5,9,20,6,-8,-2,11,17
13:54:29:627473,5,9,20,6,-8,-2,11,17
13:54:29:634963,-14,5,-57,1,-1,-10,-5,-7
13:54:29:642354,5,11,-20,9,1,8,48,-2
13:54:29:650565,5,11,-20,9,1,8,48,-2
13:54:29:651348,-4,10,36,14,-16,-4,42,7
13:54:29:665555,-17,6,44,1,4,-2,-2,1
13:54:29:666425,-17,6,44,1,4,-2,-2,1
13:54:29:672453,-1,-12,12,5,-10,4,11,1
13:54:29:679876,0,0,0,-8,1,-4,-13,4
13:54:29:687510,0,0,0,-8,1,-4,-13,4
13:54:29:694930,-3,-5,-52,21,-6,-3,-7,2
13:54:29:702443,-2,-3,-36,-23,-13,-4,7,-5
13:54:29:710612,-2,-3,-36,-23,-13,-4,7,-5
13:54:29:711331,1,-8,8,-17,-10,-6,0,-9
13:54:29:725559,0,-13,-43,27,8,-2,-8,-1
13:54:29:726363,0,-13,-43,27,8,-2,-8,-1
13:54:29:732372,3,6,57,-13,-3,-6,-29,-7
13:54:29:739975,-4,1,18,5,-2,-5,-27,-7
13:54:29:747380,-4,1,18,5,-2,-5,-27,-7
13:54:29:754929,-19,-36,-25,-20,0,-9,-37,-38
13:54:29:762404,6,8,9,-1,-6,-6,4,-6
13:54:29:770628,6,8,9,-1,-6,-6,4,-6
13:54:29:771389,-3,5,-9,-9,-5,9,6,13
13:54:29:785620,-2,-8,-6,-12,-13,-9,8,-4
13:54:29:786353,-2,-8,-6,-12,-13,-9,8,-4
13:54:29:792328,-8,-2,46,-8,3,-6,-7,-9
13:54:29:799927,7,35,73,20,12,0,-1,2
13:54:29:807533,7,35,73,20,12,0,-1,2
13:54:29:814872,0,14,56,2,1,-4,-4,1
13:54:29:822441,-7,-6,-27,-20,-7,-1,-5,-1
13:54:29:830598,-7,-6,-27,-20,-7,-1,-5,-1
13:54:29:831408,1,9,-17,-5,1,1,16,8
13:54:29:845576,-17,-17,4,-5,4,2,-15,0
13:54:29:846384,-17,-17,4,-5,4,2,-15,0
13:54:29:852410,4,4,36,-3,2,-1,12,6
13:54:29:859894,-9,-2,-11,-13,6,-6,-1,-4
13:54:29:867449,-9,-2,-11,-13,6,-6,-1,-4
13:54:29:874906,-12,-22,-62,-20,1,3,-13,-2
13:54:29:883065,2,-19,-17,14,15,3,0,-6
13:54:29:883904,2,-19,-17,14,15,3,0,-6
13:54:29:889952,21,20,32,16,7,4,11,5
13:54:29:905669,6,-13,-61,-12,-6,1,0,-6
13:54:29:906405,6,-13,-61,-12,-6,1,0,-6
13:54:29:912347,-5,4,1,6,-1,1,-17,6
13:54:29:919935,9,15,30,8,2,-3,-22,-28
13:54:29:927504,9,15,30,8,2,-3,-22,-28
13:54:29:934964,-1,-11,-2,4,9,0,17,1
13:54:29:943062,11,-4,-68,-4,-6,-3,1,5
13:54:29:943894,11,-4,-68,-4,-6,-3,1,5
13:54:29:949917,-7,-6,-14,4,-7,-2,1,-7
13:54:29:965583,-5,10,2,-8,-14,-2,12,15
13:54:29:966399,-5,10,2,-8,-14,-2,12,15
13:54:29:972502,-7,13,-9,0,7,-1,-10,-9
13:54:29:979850,3,4,-7,3,-11,-7,-5,0
13:54:29:987426,3,4,-7,3,-11,-7,-5,0
13:54:29:994918,-1,-1,-11,-15,-5,4,5,-13
13:54:30:3153,-4,-5,-20,17,-4,-2,0,6
13:54:30:3863,-4,-5,-20,17,-4,-2,0,6
13:54:30:9896,4,-11,-46,20,1,-4,1,6
13:54:30:25619,2,8,46,7,14,7,19,0
13:54:30:26385,2,8,46,7,14,7,19,0
13:54:30:32415,8,3,-9,13,-5,2,-2,19
13:54:30:39995,5,1,-12,-12,-7,0,4,-3
13:54:30:47373,5,1,-12,-12,-7,0,4,-3
13:54:30:54968,2,-3,25,15,2,5,-5,0
13:54:30:63038,-15,-28,69,4,-6,-7,-12,-2
13:54:30:63905,-15,-28,69,4,-6,-7,-12,-2
13:54:30:69927,6,8,-16,-16,-9,-4,2,8
13:54:30:85678,4,2,33,0,11,2,9,-10
13:54:30:86353,4,2,33,0,11,2,9,-10
13:54:30:92369,9,3,51,8,-1,-2,9,8
13:54:30:99904,3,17,-3,15,-2,1,-8,4
13:54:30:107545,3,17,-3,15,-2,1,-8,4
13:54:30:114898,0,-1,63,-31,-8,-3,-16,-3
13:54:30:123164,22,13,-27,-8,-1,4,4,9
13:54:30:123889,22,13,-27,-8,-1,4,4,9
13:54:30:129845,-8,5,-5,2,-3,-3,-1,2
13:54:30:145584,-6,-4,30,-35,-15,-5,6,1
13:54:30:146361,-6,-4,30,-35,-15,-5,6,1
13:54:30:152463,-7,-9,-13,-9,-3,-2,-29,-11
13:54:30:159925,7,-14,-15,-9,-4,-4,-3,8
13:54:30:167474,7,-14,-15,-9,-4,-4,-3,8
13:54:30:174953,-11,5,-6,1,-1,-10,-17,-12
13:54:30:183106,3,16,57,13,4,4,4,-1
13:54:30:183911,3,16,57,13,4,4,4,-1
13:54:30:189968,-10,-21,-30,12,5,-2,5,-7
13:54:30:205706,-7,-9,-5,4,13,4,-4,2
13:54:30:206427,-7,-9,-5,4,13,4,-4,2
13:54:30:212370,6,8,66,32,-6,-1,17,-3
13:54:30:219861,-10,-30,-44,19,-4,-2,4,1
13:54:30:227469,-10,-30,-44,19,-4,-2,4,1
13:54:30:234936,0,-19,-37,-17,-3,-4,21,-3
13:54:30:243064,-15,4,20,-4,1,-8,36,-17
13:54:30:243865,-15,4,20,-4,1,-8,36,-17
13:54:30:249899,0,10,-4,-16,-1,-1,-17,0
13:54:30:265534,4,-12,-95,-36,-5,-7,-17,6
13:54:30:266333,4,-12,-95,-36,-5,-7,-17,6
13:54:30:272521,1,25,47,-7,6,4,2,-4
13:54:30:279857,-9,5,-24,23,1,12,-15,-1
13:54:30:287495,-9,5,-24,23,1,12,-15,-1
13:54:30:294891,-3,-23,-121,-2,7,-2,-11,0
13:54:30:303037,-14,5,29,-17,-13,-8,-26,0
13:54:30:303843,-14,5,29,-17,-13,-8,-26,0
13:54:30:309878,-4,6,8,7,-1,1,99,-16
13:54:30:325545,-5,-16,15,-22,-7,-4,-18,-19
13:54:30:326354,-5,-16,15,-22,-7,-4,-18,-19
13:54:30:332388,1,-24,-12,-2,-3,-9,-13,-1
13:54:30:340000,16,13,-3,8,0,6,22,0
13:54:30:347390,16,13,-3,8,0,6,22,0
13:54:30:354971,3,5,29,15,11,-4,-22,-2
13:54:30:363029,-8,-14,-10,-8,-5,-4,-13,10
13:54:30:363846,-8,-14,-10,-8,-5,-4,-13,10
13:54:30:369870,2,-2,11,4,-5,17,-25,5
13:54:30:385620,0,0,64,-23,-4,5,21,2
13:54:30:386343,0,0,64,-23,-4,5,21,2
13:54:30:392359,4,22,48,9,-1,2,-16,5
13:54:30:399899,6,10,56,17,5,4,0,1
13:54:30:407504,6,10,56,17,5,4,0,1
13:54:30:414866,1,-1,3,-12,-4,-6,-13,-4
13:54:30:423134,-8,-11,-11,22,22,4,30,-6
13:54:30:423866,-8,-11,-11,22,22,4,30,-6
13:54:30:437451,-19,-9,-17,14,-4,-15,2,-24
13:54:30:445559,6,21,5,-28,-9,-2,-2,6
13:54:30:446387,6,21,5,-28,-9,-2,-2,6
13:54:30:452359,-16,-21,-47,-27,-9,-8,-2,-7
13:54:30:468092,1,-15,14,10,-2,-2,-19,-3
13:54:30:468844,1,-15,14,10,-2,-2,-19,-3
13:54:30:474866,1,6,-6,18,0,2,-12,0
13:54:30:483068,1,5,-27,16,7,1,-19,0
13:54:30:483869,1,5,-27,16,7,1,-19,0
13:54:30:497305,-11,-3,4,-22,2,4,19,-2
13:54:30:505633,0,-1,-69,-12,0,-1,-7,-1
13:54:30:506447,0,-1,-69,-12,0,-1,-7,-1
13:54:30:512423,9,1,-3,-25,-2,5,-6,7
13:54:30:528109,4,2,8,-7,-3,-8,-16,-1
13:54:30:528926,4,2,8,-7,-3,-8,-16,-1
13:54:30:534998,4,8,-7,0,-3,-5,12,9
13:54:30:543102,-5,0,3,12,-7,-5,-1,-10
13:54:30:543895,-5,0,3,12,-7,-5,-1,-10
13:54:30:557462,-7,-21,22,-15,-1,5,7,19
13:54:30:573721,-2,4,11,52,8,4,12,-8
13:54:30:574514,-2,4,11,52,8,4,12,-8
13:54:30:575338,10,12,2,-9,-2,-1,-19,1
13:54:30:588150,15,39,-21,8,1,5,-14,10
13:54:30:588955,15,39,-21,8,1,5,-14,10
13:54:30:594888,10,-15,52,3,2,1,-22,3
13:54:30:603066,-22,2,-42,-16,-3,-13,-3,-17
13:54:30:603880,-22,2,-42,-16,-3,-13,-3,-17
13:54:30:617412,-2,23,10,25,1,-2,9,-7
13:54:30:625576,0,-33,-55,-20,-4,-4,11,0
13:54:30:626368,0,-33,-55,-20,-4,-4,11,0
13:54:30:632369,9,2,-12,-8,8,10,16,10
13:54:30:648058,3,4,-11,4,-5,6,44,3
13:54:30:648852,3,4,-11,4,-5,6,44,3
13:54:30:654930,-1,18,1,2,-11,2,-16,6
13:54:30:663055,-20,-35,30,0,8,-9,-29,-15
13:54:30:663879,-20,-35,30,0,8,-9,-29,-15
13:54:30:677378,-5,11,50,21,4,-2,-7,4
13:54:30:685611,4,11,23,4,2,0,5,15
13:54:30:686377,4,11,23,4,2,0,5,15
13:54:30:692373,4,-5,-57,4,-6,-8,12,-6
13:54:30:708134,10,45,-29,10,0,-6,-33,-19
13:54:30:708891,10,45,-29,10,0,-6,-33,-19
13:54:30:714856,-7,-12,-84,-31,-1,-8,-20,-16
13:54:30:723212,13,15,40,-11,-2,3,-26,3
13:54:30:723868,13,15,40,-11,-2,3,-26,3
13:54:30:737426,-23,-38,-37,0,-8,1,-6,-1
13:54:30:745590,-5,-30,19,-12,-7,0,11,-1
13:54:30:746393,-5,-30,19,-12,-7,0,11,-1
13:54:30:752445,-4,-22,-9,4,-4,-10,20,5
13:54:30:768121,3,20,55,-5,-5,2,10,0
13:54:30:768840,3,20,55,-5,-5,2,10,0
13:54:30:774888,-2,2,22,1,-1,-12,-22,-5
13:54:30:783023,-2,-3,-23,-14,-8,-7,-4,5
13:54:30:783882,-2,-3,-23,-14,-8,-7,-4,5
13:54:30:797353,9,10,39,-10,8,3,16,1
13:54:30:805651,10,-7,-24,-6,-4,-3,-50,0
13:54:30:806389,10,-7,-24,-6,-4,-3,-50,0
13:54:30:812324,14,-15,-72,3,1,-1,14,-2
13:54:30:828101,14,-15,-72,3,1,-1,14,-2
13:54:30:828915,-10,-45,8,15,4,8,6,10
13:54:30:834967,4,12,14,-21,-11,-1,0,-11
13:54:30:850607,4,12,14,-21,-11,-1,0,-11
13:54:30:851444,-7,17,23,2,0,0,24,-6
13:54:30:857469,4,4,118,13,-1,1,-9,11
13:54:30:865584,4,4,118,13,-1,1,-9,11
13:54:30:866360,-6,-28,40,8,8,-3,16,-4
13:54:30:872444,-8,17,3,-11,-3,0,5,-8
13:54:30:888159,-8,17,3,-11,-3,0,5,-8
13:54:30:888853,0,7,-3,-21,-16,-7,-11,1
13:54:30:894878,-2,12,-9,14,10,4,-14,-4
13:54:30:910563,-2,12,-9,14,10,4,-14,-4
13:54:30:911358,-7,11,-14,-1,-6,-8,97,6
13:54:30:917410,0,8,-17,-5,6,7,7,11
13:54:30:925584,0,8,-17,-5,6,7,7,11
13:54:30:926374,-7,27,-10,3,2,0,-21,-8
13:54:30:932373,14,34,52,13,3,6,14,1
13:54:30:948089,14,34,52,13,3,6,14,1
13:54:30:948877,5,0,85,16,2,2,-25,-2
13:54:30:955005,16,-12,-20,8,2,4,-12,21
13:54:30:970613,16,-12,-20,8,2,4,-12,21
13:54:30:971432,-7,-20,-39,-15,-8,-8,-10,-1
13:54:30:977384,-8,-18,36,8,-5,-5,-2,-3
13:54:30:985666,-8,-18,36,8,-5,-5,-2,-3
13:54:30:986388,-9,-27,-19,2,-11,2,-2,-2
13:54:30:992395,-6,-2,-83,-30,-6,-8,-39,0
13:54:31:8071,-6,-2,-83,-30,-6,-8,-39,0
13:54:31:8871,7,2,-6,-4,2,6,-27,-10
13:54:31:14854,-11,-33,-3,-1,-1,-2,-11,-12
13:54:31:30590,-11,-33,-3,-1,-1,-2,-11,-12
13:54:31:31366,11,8,-1,15,4,2,-5,-6
13:54:31:37433,-51,-17,-84,-50,-1,-3,27,-4
13:54:31:45599,-51,-17,-84,-50,-1,-3,27,-4
13:54:31:46337,-10,11,-71,-18,6,-6,3,-9
13:54:31:52415,6,7,49,26,4,4,8,2
13:54:31:68157,6,7,49,26,4,4,8,2
13:54:31:68908,4,-1,-4,-5,-4,5,-84,8
13:54:31:74909,20,22,-85,-5,-5,-8,11,-7
13:54:31:90657,20,22,-85,-5,-5,-8,11,-7
13:54:31:91410,-16,-31,-69,3,-9,-8,41,16
13:54:31:97372,14,5,68,10,0,9,28,8
13:54:31:105659,14,5,68,10,0,9,28,8
13:54:31:106382,-4,3,-1,-7,0,-2,21,6
13:54:31:112408,-2,-42,22,-54,-6,-6,-3,-11
13:54:31:128124,-2,-42,22,-54,-6,-6,-3,-11
13:54:31:128936,-26,-9,72,11,-5,2,53,0
13:54:31:134951,22,9,41,14,6,0,-39,-5
13:54:31:150600,22,9,41,14,6,0,-39,-5
13:54:31:151356,19,17,8,1,1,4,-7,-15
13:54:31:157442,-1,-1,13,-1,-3,1,0,-1
13:54:31:165571,-1,-1,13,-1,-3,1,0,-1
13:54:31:166382,-1,12,-16,11,5,-5,-13,-1
13:54:31:172442,18,10,-8,32,2,3,-5,7
13:54:31:188181,18,10,-8,32,2,3,-5,7
13:54:31:188837,12,-13,50,-14,-5,-3,-21,3
13:54:31:194883,-6,-7,7,24,-16,-4,14,-2
13:54:31:210594,-6,-7,7,24,-16,-4,14,-2
13:54:31:211368,1,0,-16,-8,17,6,36,0
13:54:31:217361,-12,-5,22,5,-1,-4,-1,3
13:54:31:225607,-12,-5,22,5,-1,-4,-1,3
13:54:31:226376,7,1,38,-23,1,2,21,11
13:54:31:232338,-39,-2,-76,3,4,-15,-7,-13
13:54:31:248080,-39,-2,-76,3,4,-15,-7,-13
13:54:31:248851,-2,-38,10,14,-4,-3,-22,-2
13:54:31:254997,7,7,-21,-28,1,0,3,-1
13:54:31:262421,7,7,-21,-28,1,0,3,-1
13:54:31:269890,-5,23,-12,-9,-10,6,4,-9
13:54:31:277382,30,16,14,18,4,1,-3,4
13:54:31:285652,30,16,14,18,4,1,-3,4
13:54:31:286398,1,3,-8,6,4,6,-18,2
13:54:31:292425,7,0,43,-10,-3,0,-24,7
13:54:31:308113,7,0,43,-10,-3,0,-24,7
13:54:31:308862,-15,3,7,-1,-2,-5,-33,-4
13:54:31:314835,-12,5,19,-8,3,5,17,-6
13:54:31:322457,-12,5,19,-8,3,5,17,-6
13:54:31:329826,-7,-6,45,-6,-3,-5,13,-7
13:54:31:337449,-16,-3,2,8,-1,-6,-1,-12
13:54:31:345548,-16,-3,2,8,-1,-6,-1,-12
13:54:31:346322,11,-2,-5,-10,-1,-5,12,4
13:54:31:352406,-18,-35,-63,-20,0,-10,-8,4
13:54:31:368179,-18,-35,-63,-20,0,-10,-8,4
13:54:31:368871,9,-10,16,-13,3,0,7,11
13:54:31:374919,-2,2,44,18,7,1,-10,-10
13:54:31:382413,-2,2,44,18,7,1,-10,-10
13:54:31:389962,7,-2,-15,5,-6,-7,-12,5
13:54:31:397383,0,-6,16,2,1,6,33,-1
13:54:31:405627,0,-6,16,2,1,6,33,-1
13:54:31:406330,19,-25,27,1,-6,-10,25,-2
13:54:31:419925,2,9,-66,2,-6,-3,-9,-29
13:54:31:428068,2,9,-66,2,-6,-3,-9,-29
13:54:31:428858,-24,-13,-51,19,5,0,-20,-13
13:54:31:434938,-2,-6,1,-14,-1,0,-5,2
13:54:31:442461,-2,-6,1,-14,-1,0,-5,2
13:54:31:449869,8,6,-32,17,7,12,-5,4
13:54:31:457472,3,13,27,10,-3,6,45,20
13:54:31:465564,3,13,27,10,-3,6,45,20
13:54:31:466372,-6,-1,5,6,2,-7,-22,-4
13:54:31:479856,-7,-5,80,-3,-2,-10,-9,10
13:54:31:488148,-7,-5,80,-3,-2,-10,-9,10
13:54:31:488877,1,-14,-48,-51,-6,-5,14,1
13:54:31:494931,6,-2,-12,17,5,3,-14,1
13:54:31:502460,6,-2,-12,17,5,3,-14,1
13:54:31:509916,10,4,25,26,-8,-7,-13,0
13:54:31:517370,-12,-12,-81,-17,-2,0,23,-16
13:54:31:525626,-12,-12,-81,-17,-2,0,23,-16
13:54:31:526338,-16,9,-37,4,4,6,-5,2
13:54:31:539901,6,5,-3,1,-6,0,-15,0
13:54:31:548084,6,5,-3,1,-6,0,-15,0
13:54:31:548850,-16,-10,-65,-12,4,-3,-1,-25
13:54:31:554953,5,7,-18,17,4,-1,-12,-1
13:54:31:562426,5,7,-18,17,4,-1,-12,-1
13:54:31:569889,5,27,127,24,-4,1,0,13
13:54:31:577384,1,8,91,30,8,8,-5,-6
13:54:31:585648,1,8,91,30,8,8,-5,-6
13:54:31:586411,-4,8,43,-9,10,1,48,-1
13:54:31:599913,-4,-14,23,10,-5,-6,-4,5
13:54:31:608127,-4,-14,23,10,-5,-6,-4,5
13:54:31:608875,15,6,51,5,4,1,-33,-11
13:54:31:614860,0,0,-14,-19,-5,-5,-19,-3
13:54:31:622506,0,0,-14,-19,-5,-5,-19,-3
13:54:31:629863,10,-5,3,-21,-13,-8,8,10
13:54:31:637402,4,-8,-81,-8,-8,-5,-1,-2
13:54:31:645529,4,-8,-81,-8,-8,-5,-1,-2
13:54:31:646334,1,6,-6,-21,-5,1,-1,-1
13:54:31:659976,1,-4,4,-16,2,4,20,-1
13:54:31:668221,1,-4,4,-16,2,4,20,-1
13:54:31:668884,-6,0,-27,15,3,-8,6,-10
13:54:31:674912,-7,1,8,-46,-9,4,71,-8
13:54:31:682422,-7,1,8,-46,-9,4,71,-8
13:54:31:689965,-8,-7,6,11,-7,-4,-14,2
13:54:31:697371,-2,-8,-26,3,-4,-8,-29,-8
13:54:31:705675,-2,-8,-26,3,-4,-8,-29,-8
13:54:31:706347,-4,-6,9,-15,-6,2,0,-1
13:54:31:719940,-4,-17,14,1,4,-1,-28,1
13:54:31:728098,-4,-17,14,1,4,-1,-28,1
13:54:31:728872,4,-10,-23,17,7,0,-8,-12
13:54:31:734995,6,20,16,-18,0,-1,-16,8
13:54:31:742424,6,20,16,-18,0,-1,-16,8
13:54:31:749900,-1,-2,-55,4,2,5,6,6
13:54:31:757416,14,9,26,-12,1,-7,0,-6
13:54:31:765563,14,9,26,-12,1,-7,0,-6
13:54:31:766351,6,3,15,-1,-3,-1,24,18
13:54:31:779859,-6,-1,-22,15,-5,2,-4,4
13:54:31:788121,-6,-1,-22,15,-5,2,-4,4
13:54:31:788860,-5,-1,31,-23,-6,-4,5,4
13:54:31:794909,-7,-8,109,16,4,4,-4,-4
13:54:31:802488,-7,-8,109,16,4,4,-4,-4
13:54:31:809886,-1,-10,-22,2,4,3,9,8
13:54:31:817389,6,18,-1,9,-4,0,-1,12
13:54:31:825652,6,18,-1,9,-4,0,-1,12
13:54:31:826372,2,16,-1,17,8,0,-24,-2
13:54:31:839949,17,-12,7,-26,0,13,43,7
13:54:31:848070,17,-12,7,-26,0,13,43,7
13:54:31:848850,-6,-9,-14,5,-5,-1,-26,-10
13:54:31:854988,-35,8,2,34,12,-1,-7,-9
13:54:31:862403,-35,8,2,34,12,-1,-7,-9
13:54:31:869888,-8,2,2,-18,-4,-5,20,-4
13:54:31:877371,10,-13,-22,5,4,3,9,4
13:54:31:885667,10,-13,-22,5,4,3,9,4
13:54:31:886369,3,8,-5,-5,-5,-3,-16,7
13:54:31:899894,-9,1,29,35,8,-2,-21,-11
13:54:31:908145,-9,1,29,35,8,-2,-21,-11
13:54:31:908864,11,-2,34,-17,-4,-1,10,-4
13:54:31:914872,12,2,23,-2,-9,-3,-8,0
13:54:31:922535,12,2,23,-2,-9,-3,-8,0
13:54:31:929852,6,-19,-13,-12,-11,-6,3,-2
13:54:31:937430,-13,-22,-83,3,-8,-10,-12,-4
13:54:31:945546,-13,-22,-83,3,-8,-10,-12,-4
13:54:31:946292,-5,7,-30,-7,-2,-4,-19,-5
13:54:31:959891,7,6,40,7,3,-4,8,-3
13:54:31:968144,7,6,40,7,3,-4,8,-3
13:54:31:968897,2,-1,-20,2,5,9,23,11
13:54:31:974914,2,-9,-13,-14,-9,-2,0,11
13:54:31:982363,2,-9,-13,-14,-9,-2,0,11
13:54:31:989955,-17,-18,-14,13,8,-3,4,-4
13:54:31:997388,-6,-11,-59,7,-4,-4,14,-4
13:54:32:5715,-6,-11,-59,7,-4,-4,14,-4
13:54:32:6377,2,31,-7,23,-1,-1,-9,2
13:54:32:19915,-2,-42,-30,-38,-7,-4,-26,-2
13:54:32:28049,-2,-42,-30,-38,-7,-4,-26,-2
13:54:32:28870,-15,-13,-9,-2,2,7,5,-28
13:54:32:34956,-5,9,11,-7,-3,-4,-92,-15
13:54:32:42400,-5,9,11,-7,-3,-4,-92,-15
13:54:32:49890,9,12,78,-2,2,-2,18,28
13:54:32:57383,-12,-23,-10,-11,-6,-12,13,-1
13:54:32:65546,-12,-23,-10,-11,-6,-12,13,-1
13:54:32:66342,4,15,-49,15,5,0,-11,9
13:54:32:79860,7,21,41,-8,4,3,0,2
13:54:32:88132,7,21,41,-8,4,3,0,2
13:54:32:88906,-6,-5,12,23,2,-2,-13,-7
13:54:32:94897,-5,-13,9,12,1,5,-5,-2
13:54:32:102499,-5,-13,9,12,1,5,-5,-2
13:54:32:109911,-33,11,66,-4,-3,-2,17,0
13:54:32:117372,-24,-13,22,-17,-12,-12,17,-5
13:54:32:125603,-24,-13,22,-17,-12,-12,17,-5
13:54:32:126366,2,-24,-15,8,16,6,-1,11
13:54:32:139974,7,18,29,8,1,1,-3,-1
13:54:32:148045,7,18,29,8,1,1,-3,-1
13:54:32:148846,4,1,8,-24,-18,-4,-10,-10
13:54:32:154962,-3,6,16,6,-5,-2,6,-9
13:54:32:162411,-3,6,16,6,-5,-2,6,-9
13:54:32:169875,0,3,-26,11,-5,-7,-1,-13
13:54:32:177351,7,17,-4,0,4,7,20,13
13:54:32:185603,7,17,-4,0,4,7,20,13
13:54:32:186371,1,-20,-1,-24,-3,-6,-27,-16
13:54:32:199895,-10,0,-59,0,2,4,1,12
13:54:32:208137,-10,0,-59,0,2,4,1,12
13:54:32:208857,-1,16,13,3,4,5,-26,-7
13:54:32:223158,-4,18,-1,13,-1,-5,-19,-4
13:54:32:223878,-4,18,-1,13,-1,-5,-19,-4
13:54:32:229862,-2,-22,-12,-21,-8,-6,5,-1
13:54:32:237360,7,-3,23,2,0,4,17,2
13:54:32:245602,7,-3,23,2,0,4,17,2
13:54:32:246345,-6,0,-27,0,-13,-4,-5,7
13:54:32:259906,-8,5,5,-3,-9,-13,-19,-10
13:54:32:268129,-8,5,5,-3,-9,-13,-19,-10
13:54:32:268882,0,10,15,-13,-3,-1,3,-3
13:54:32:274933,8,-12,-25,-5,3,5,-10,-4
13:54:32:282471,8,-12,-25,-5,3,5,-10,-4
13:54:32:289978,3,0,24,4,5,-1,3,8
13:54:32:297358,13,-2,-5,-3,5,2,34,-2
13:54:32:305064,13,-2,-5,-3,5,2,34,-2
13:54:32:312387,-2,-15,-67,8,10,-6,28,3
13:54:32:319891,17,13,31,-3,5,2,10,21
13:54:32:328087,17,13,31,-3,5,2,10,21
13:54:32:328887,9,15,41,-15,-15,2,1,1
13:54:32:343068,2,6,17,-14,-4,4,7,6
13:54:32:343920,2,6,17,-14,-4,4,7,6
13:54:32:349891,9,4,23,-4,-5,-6,-18,0
13:54:32:357425,10,-13,-24,-14,-6,-3,-13,-9
13:54:32:364859,10,-13,-24,-14,-6,-3,-13,-9
13:54:32:372388,4,16,-5,2,-2,-1,-6,-7
13:54:32:379854,-9,-9,-10,18,-4,-4,4,2
13:54:32:388155,-9,-9,-10,18,-4,-4,4,2
13:54:32:388919,7,-11,-11,17,6,2,-4,-8
13:54:32:403059,-1,-15,7,3,-1,0,-14,-9
13:54:32:403897,-1,-15,7,3,-1,0,-14,-9
13:54:32:409897,4,6,-18,6,0,1,11,2
13:54:32:417487,-7,11,-3,-27,-6,-8,14,-6
13:54:32:424953,-7,11,-3,-27,-6,-8,14,-6
13:54:32:432343,-7,-25,-19,-7,2,-1,25,7
13:54:32:440040,-7,6,-56,14,8,9,90,8
13:54:32:448055,-7,6,-56,14,8,9,90,8
13:54:32:448849,11,9,-17,-22,4,-5,-17,-4
13:54:32:463007,-6,19,46,25,2,-7,-22,-8
13:54:32:463865,-6,19,46,25,2,-7,-22,-8
13:54:32:469899,-6,13,-2,-2,5,1,18,-16
13:54:32:477390,-2,-3,24,-7,1,-2,-19,3
13:54:32:484992,-2,-3,24,-7,1,-2,-19,3
13:54:32:492407,5,6,-11,8,-4,-6,-25,6
13:54:32:499923,-11,-20,41,-11,-3,2,-18,-9
13:54:32:508147,-11,-20,41,-11,-3,2,-18,-9
13:54:32:508928,-1,-2,10,-33,-14,-1,0,0
13:54:32:523133,1,0,-19,28,9,-1,-14,-4
13:54:32:523876,1,0,-19,28,9,-1,-14,-4
13:54:32:529895,-13,6,1,-4,1,-2,-2,-1
13:54:32:537429,3,7,18,2,5,3,-9,-3
13:54:32:544945,3,7,18,2,5,3,-9,-3
13:54:32:552518,-14,0,-52,8,6,-1,-10,-6
13:54:32:559905,-24,-66,-26,-17,-3,-11,-73,-30
13:54:32:568118,-24,-66,-26,-17,-3,-11,-73,-30
13:54:32:568843,0,-28,21,-15,-9,-4,-30,2
13:54:32:583035,7,15,16,-6,11,3,2,19
13:54:32:583903,7,15,16,-6,11,3,2,19
13:54:32:589978,-6,-3,44,-3,4,9,12,-1
13:54:32:597379,-3,17,9,8,-3,-3,16,-4
13:54:32:605001,-3,17,9,8,-3,-3,16,-4
13:54:32:612364,-1,1,28,3,-9,0,-9,-4
13:54:32:619874,12,3,-2,20,-5,-3,-31,-18
13:54:32:628061,12,3,-2,20,-5,-3,-31,-18
13:54:32:628827,-3,-22,-38,8,4,-3,16,-11
13:54:32:643031,7,15,-70,-3,-3,0,25,17
13:54:32:643864,7,15,-70,-3,-3,0,25,17
13:54:32:649913,-3,6,66,9,0,-3,-14,-1
13:54:32:657460,-7,-7,9,-12,-2,-1,24,4
13:54:32:664895,-7,-7,9,-12,-2,-1,24,4
13:54:32:672412,9,22,-9,10,1,4,25,11
13:54:32:679868,4,0,12,1,-8,10,-6,4
13:54:32:688108,4,0,12,1,-8,10,-6,4
13:54:32:688962,4,-29,7,-3,-6,-8,-1,-12
13:54:32:703132,-9,7,12,-6,-3,-12,11,1
13:54:32:703893,-9,7,12,-6,-3,-12,11,1
13:54:32:709983,10,1,-50,-55,-10,-4,-20,5
13:54:32:717331,-2,-12,18,6,4,0,16,-2
13:54:32:724945,-2,-12,18,6,4,0,16,-2
13:54:32:732386,3,4,18,7,0,2,-18,-5
13:54:32:739946,-2,-10,-40,-4,-1,4,36,7
13:54:32:748102,-2,-10,-40,-4,-1,4,36,7
13:54:32:748860,-8,-14,44,17,3,5,10,2
13:54:32:763026,4,9,76,14,5,-1,-3,2
13:54:32:763915,4,9,76,14,5,-1,-3,2
13:54:32:769954,-9,7,8,27,-1,-1,18,1
13:54:32:777395,0,1,7,-7,-3,-8,40,-18
13:54:32:785013,0,1,7,-7,-3,-8,40,-18
13:54:32:792404,0,0,-71,-4,-6,-2,-32,-3
13:54:32:799910,-16,-4,-22,17,3,-5,-37,-16
13:54:32:808150,-16,-4,-22,17,3,-5,-37,-16
13:54:32:808887,-7,-13,-20,2,7,3,6,7
13:54:32:823185,7,7,15,-12,-7,3,7,7
13:54:32:823878,7,7,15,-12,-7,3,7,7
13:54:32:829889,12,23,64,39,11,1,2,13
13:54:32:837416,0,6,-20,-5,1,3,-18,-3
13:54:32:844955,0,6,-20,-5,1,3,-18,-3
13:54:32:852447,6,-9,-8,-5,-2,-5,17,-3
13:54:32:859938,8,0,46,-3,-1,3,0,16
13:54:32:868118,8,0,46,-3,-1,3,0,16
13:54:32:868918,8,3,-69,-27,0,2,-43,-6
13:54:32:883061,2,0,12,-9,-4,-4,-22,-4
13:54:32:883892,2,0,12,-9,-4,-4,-22,-4
13:54:32:889946,9,5,-1,1,-3,-3,-13,5
13:54:32:905639,6,-11,-39,-14,-4,0,1,7
13:54:32:906370,6,-11,-39,-14,-4,0,1,7
13:54:32:912353,-1,14,42,15,-6,-5,12,-6
13:54:32:919909,-2,-15,11,18,1,-7,2,-9
13:54:32:928077,-2,-15,11,18,1,-7,2,-9
13:54:32:928910,-12,-9,18,-5,6,5,36,2
13:54:32:943077,11,23,53,-22,-5,9,4,15
13:54:32:943861,11,23,53,-22,-5,9,4,15
13:54:32:949999,-15,-16,-25,4,2,-4,-14,-10
13:54:32:957455,4,16,7,3,0,-1,-7,-7
13:54:32:964934,4,16,7,3,0,-1,-7,-7
13:54:32:972520,-13,-19,-11,-30,2,-2,-4,-8
13:54:32:979930,-5,-6,-24,1,-5,-1,6,3
13:54:32:988137,-5,-6,-24,1,-5,-1,6,3
13:54:32:988867,-5,2,43,13,-13,-10,-3,-7
13:54:33:3090,9,13,-70,-2,3,-2,5,-4
13:54:33:3861,9,13,-70,-2,3,-2,5,-4
13:54:33:9922,19,25,51,3,2,11,33,16
13:54:33:17413,-3,22,3,20,-2,-11,-41,-2
13:54:33:24894,-3,22,3,20,-2,-11,-41,-2
13:54:33:32385,5,0,8,-22,0,-3,31,10
13:54:33:40026,-4,-24,-106,3,-2,7,1,6
13:54:33:48066,-4,-24,-106,3,-2,7,1,6
13:54:33:48856,9,9,-6,18,-4,-5,-8,2
13:54:33:63064,-18,-13,12,-12,-1,1,7,-12
13:54:33:63887,-18,-13,12,-12,-1,1,7,-12
13:54:33:69968,-3,-14,-13,-16,-7,-1,0,-9
13:54:33:77345,1,-6,-45,-34,4,-4,-7,3
13:54:33:84946,1,-6,-45,-34,4,-4,-7,3
13:54:33:92378,-28,3,0,11,8,-3,-19,-14
13:54:33:99894,-16,-35,22,-6,-2,-9,-3,-8
13:54:33:108103,-16,-35,22,-6,-2,-9,-3,-8
13:54:33:108890,-6,-38,-18,-7,2,2,-21,-13
13:54:33:123108,-2,0,5,-15,-6,-2,7,-2
13:54:33:123872,-2,0,5,-15,-6,-2,7,-2
13:54:33:129853,7,7,-25,-35,-10,-4,7,4
13:54:33:137395,5,4,11,-15,-1,-4,-9,3
13:54:33:144925,5,4,11,-15,-1,-4,-9,3
13:54:33:152391,11,-6,-15,14,1,2,4,8
13:54:33:159917,-5,-2,-51,14,21,1,-26,-28
13:54:33:168166,-5,-2,-51,14,21,1,-26,-28
13:54:33:168861,3,16,46,34,-2,3,2,2
13:54:33:183067,5,17,80,12,-15,-2,18,13
13:54:33:183879,5,17,80,12,-15,-2,18,13
13:54:33:190009,-12,-6,-29,-17,2,-2,-9,-10
13:54:33:197357,-1,-14,9,19,7,7,3,1
13:54:33:205020,-1,-14,9,19,7,7,3,1
13:54:33:212381,0,20,-43,-1,-6,-9,-5,-7
13:54:33:219904,5,-2,-16,-7,-7,-7,31,-6
13:54:33:228058,5,-2,-16,-7,-7,-7,31,-6
13:54:33:228890,6,-54,-28,-19,1,-12,17,-15
13:54:33:243087,7,3,55,49,3,1,15,11
13:54:33:243899,7,3,55,49,3,1,15,11
13:54:33:249909,1,9,16,28,-2,9,5,14
13:54:33:265563,-2,5,-30,13,6,2,-2,-5
13:54:33:266348,-2,5,-30,13,6,2,-2,-5
13:54:33:272504,-14,6,12,-12,-1,0,-10,-10
13:54:33:279918,-11,1,64,-16,-8,-1,-10,10
13:54:33:287498,-11,1,64,-16,-8,-1,-10,10
13:54:33:294938,-3,13,-15,-1,-2,-2,-25,-10
13:54:33:303104,-5,10,22,-45,-6,-2,1,-11
13:54:33:303863,-5,10,22,-45,-6,-2,1,-11
13:54:33:309921,-5,16,-22,-9,4,-8,-1,-20
13:54:33:325605,8,0,-40,15,2,5,2,12
13:54:33:326421,8,0,-40,15,2,5,2,12
13:54:33:332343,3,-3,11,0,0,2,16,10
13:54:33:339927,19,28,22,17,3,5,18,6
13:54:33:347398,19,28,22,17,3,5,18,6
13:54:33:354987,0,-4,91,6,8,3,-23,-2
13:54:33:363008,-16,-7,56,8,-4,-5,-17,-2
13:54:33:363883,-16,-7,56,8,-4,-5,-17,-2
13:54:33:369897,3,26,-26,2,-8,-4,-17,17
13:54:33:385650,-4,11,-32,-23,-8,-2,-10,-5
13:54:33:386337,-4,11,-32,-23,-8,-2,-10,-5
13:54:33:392413,-19,5,7,10,3,3,5,-7
13:54:33:399944,-8,-29,-105,-12,-1,-8,-12,-7
13:54:33:407471,-8,-29,-105,-12,-1,-8,-12,-7
13:54:33:414788,11,1,-62,-13,0,0,11,12
13:54:33:423134,8,-11,34,-12,-4,-6,-8,-6
13:54:33:423904,8,-11,34,-12,-4,-6,-8,-6
13:54:33:429878,5,-9,-4,-1,-9,-1,9,4
13:54:33:445571,-1,-18,-70,-34,-11,-2,-9,0
13:54:33:446352,-1,-18,-70,-34,-11,-2,-9,0
13:54:33:452433,-4,-23,37,9,-3,-8,111,1
13:54:33:459842,2,0,4,-6,2,-7,-3,-1
13:54:33:467406,2,0,4,-6,2,-7,-3,-1
13:54:33:474924,-14,-34,-12,3,5,1,-25,-5
13:54:33:483088,4,9,10,-3,-2,1,15,0
13:54:33:483904,4,9,10,-3,-2,1,15,0
13:54:33:489973,0,4,3,-10,5,-3,-36,-3
13:54:33:505653,3,2,51,14,-3,3,-19,4
13:54:33:506379,3,2,51,14,-3,3,-19,4
13:54:33:512371,9,-17,53,3,4,13,7,9
13:54:33:519998,-9,-2,32,29,-1,-3,21,8
13:54:33:527457,-9,-2,32,29,-1,-3,21,8
13:54:33:534989,0,8,-28,0,7,3,-12,1
13:54:33:543093,-1,12,-11,3,-1,1,3,3
13:54:33:543846,-1,12,-11,3,-1,1,3,3
13:54:33:549918,-25,-25,17,4,-8,-8,-58,-22
13:54:33:565575,-11,4,-25,3,6,-8,19,-7
13:54:33:566358,-11,4,-25,3,6,-8,19,-7
13:54:33:580490,19,18,-62,-26,-1,-1,2,5
13:54:33:581279,-2,-4,50,-8,0,3,-14,3
13:54:33:587443,-2,-4,50,-8,0,3,-14,3
13:54:33:594900,-6,18,-7,6,3,-4,-26,0
13:54:33:603163,20,1,-18,-23,1,5,-3,6
13:54:33:603865,20,1,-18,-23,1,5,-3,6
13:54:33:609900,8,3,91,16,-5,4,-18,-2
13:54:33:625606,-14,-3,28,6,-8,-8,-19,-18
13:54:33:626406,-14,-3,28,6,-8,-8,-19,-18
13:54:33:632341,3,-12,15,-2,7,-1,7,0
13:54:33:639976,-17,-2,20,5,2,1,1,-6
13:54:33:647417,-17,-2,20,5,2,1,1,-6
13:54:33:654959,-9,-13,5,1,8,0,66,6
13:54:33:663010,5,-9,-60,28,-5,2,-6,4
13:54:33:663899,5,-9,-60,28,-5,2,-6,4
13:54:33:669950,13,5,-49,-12,-10,-5,0,-1
13:54:33:685626,-4,-11,-57,-11,1,-3,-9,-9
13:54:33:686385,-4,-11,-57,-11,1,-3,-9,-9
13:54:33:692398,13,12,66,13,-7,5,28,3
13:54:33:699909,5,28,96,18,0,3,-13,4
13:54:33:707533,5,28,96,18,0,3,-13,4
13:54:33:714874,-10,1,-16,20,6,4,-21,-5
13:54:33:723087,-7,-11,22,3,3,-3,10,-5
13:54:33:723905,-7,-11,22,3,3,-3,10,-5
13:54:33:729812,12,4,8,12,-4,-3,5,3
13:54:33:745557,-22,-9,-4,-6,7,5,3,-3
13:54:33:746338,-22,-9,-4,-6,7,5,3,-3
13:54:33:752421,-22,-29,-74,-19,-3,-7,-24,0
13:54:33:759906,12,12,49,-2,2,-4,19,7
13:54:33:767441,12,12,49,-2,2,-4,19,7
13:54:33:774870,-10,3,-13,-24,-6,-5,-2,1
13:54:33:783038,4,-20,-32,-33,1,-8,-7,-4
13:54:33:783884,4,-20,-32,-33,1,-8,-7,-4
13:54:33:789981,4,8,13,7,-5,4,-18,3
13:54:33:805606,2,10,2,-12,-4,1,7,-2
13:54:33:806384,2,10,2,-12,-4,1,7,-2
13:54:33:812330,-6,-1,-14,-11,-14,-9,-6,-2
13:54:33:819836,16,22,24,0,-3,4,-23,-11
13:54:33:827409,16,22,24,0,-3,4,-23,-11
13:54:33:835035,-4,1,-42,-21,-6,-3,11,5
13:54:33:843108,6,-8,-34,-5,-1,2,-23,-3
13:54:33:843926,6,-8,-34,-5,-1,2,-23,-3
13:54:33:857373,4,11,50,8,-3,-3,-22,-14
13:54:33:865548,-30,-26,9,-8,-7,-12,-4,-8
13:54:33:866358,-30,-26,9,-8,-7,-12,-4,-8
13:54:33:872448,6,2,-9,4,6,-2,20,14
13:54:33:879925,-1,-23,-23,20,5,4,13,-4
13:54:33:887506,-1,-23,-23,20,5,4,13,-4
13:54:33:894932,-1,4,33,9,4,2,-5,-15
13:54:33:903184,-6,6,-66,1,-8,-7,6,-3
13:54:33:903876,-6,6,-66,1,-8,-7,6,-3
13:54:33:909902,5,6,13,-14,-9,1,-21,-5
13:54:33:925578,-1,-52,8,17,4,-4,-8,4
13:54:33:926375,-1,-52,8,17,4,-4,-8,4
13:54:33:932337,0,0,-59,3,-1,-5,-8,13
13:54:33:939999,14,9,4,9,-3,-5,-39,4
13:54:33:947428,14,9,4,9,-3,-5,-39,4
13:54:33:954990,-15,-21,56,-4,1,-5,-5,0
13:54:33:963042,-7,15,-7,-13,3,-1,7,-4
13:54:33:963877,-7,15,-7,-13,3,-1,7,-4
13:54:33:969895,-2,15,23,3,-1,-11,11,-14
13:54:33:985692,0,16,-51,-5,-11,1,18,-1
13:54:33:986377,0,16,-51,-5,-11,1,18,-1
13:54:33:992397,1,35,-3,-7,0,3,1,5
13:54:33:999894,14,14,-22,12,0,3,-2,12
13:54:34:7473,14,14,-22,12,0,3,-2,12
13:54:34:14879,-1,9,33,10,9,11,3,5
13:54:34:23106,-10,-20,3,-21,-5,2,31,3
13:54:34:23889,-10,-20,3,-21,-5,2,31,3
13:54:34:29808,-4,4,-21,1,-5,-7,5,-3
13:54:34:45548,11,18,91,-14,4,3,8,9
13:54:34:46314,11,18,91,-14,4,3,8,9
13:54:34:52429,-3,-10,-13,-23,-6,-4,7,4
13:54:34:59937,-4,13,-1,-12,-3,-3,-4,-2
13:54:34:67468,-4,13,-1,-12,-3,-3,-4,-2
13:54:34:74904,2,-2,41,25,5,8,-11,7
13:54:34:83034,7,-18,32,5,12,1,-10,0
13:54:34:83891,7,-18,32,5,12,1,-10,0
13:54:34:97416,-4,-22,31,-9,-10,-3,3,-13
13:54:34:105639,3,4,-17,-13,-3,1,5,0
13:54:34:106370,3,4,-17,-13,-3,1,5,0
13:54:34:112345,-4,-3,-28,-8,-3,3,0,2
13:54:34:120034,-3,-8,-18,20,5,1,-2,-6
13:54:34:127424,-3,-8,-18,20,5,1,-2,-6
13:54:34:134832,9,-1,1,9,4,2,-3,-1
13:54:34:143089,9,-1,1,9,4,2,-3,-1
13:54:34:143881,-15,3,5,-9,-6,0,-5,1
13:54:34:149907,4,-1,-13,25,-1,8,-30,-10
13:54:34:165569,4,-1,-13,25,-1,8,-30,-10
13:54:34:166387,-8,-38,-66,3,-7,-13,15,-1
13:54:34:172449,-11,-28,21,-20,-5,-11,-6,-1
13:54:34:188109,-11,-28,21,-20,-5,-11,-6,-1
13:54:34:188915,0,-4,-72,7,-5,-1,-8,-3
13:54:34:194785,-4,1,-63,2,14,-3,15,-12
13:54:34:203109,-4,1,-63,2,14,-3,15,-12
13:54:34:203939,1,1,64,24,7,7,14,4
13:54:34:217418,-7,-8,-36,0,-4,-1,-8,-5
13:54:34:225596,-7,-8,-36,0,-4,-1,-8,-5
13:54:34:226395,2,16,38,-3,-2,5,30,1
13:54:34:232348,6,-6,61,-15,-7,-15,25,-7
13:54:34:248069,6,-6,61,-15,-7,-15,25,-7
13:54:34:248881,6,15,-6,-6,1,-2,-9,-12
13:54:34:255038,15,-22,5,4,7,1,4,11
13:54:34:263024,15,-22,5,4,7,1,4,11
13:54:34:263856,-4,12,29,20,8,9,3,2
13:54:34:277409,1,4,-15,6,-8,3,2,6
13:54:34:285605,1,4,-15,6,-8,3,2,6
13:54:34:286342,7,5,33,8,-9,-10,-7,9
13:54:34:292355,9,25,21,-7,-3,-3,-8,-13
13:54:34:308117,9,25,21,-7,-3,-3,-8,-13
13:54:34:308895,-11,-5,-10,-5,-11,-11,-3,-6
13:54:34:314899,-14,17,22,17,-16,3,-6,-1
13:54:34:323122,-14,17,22,17,-16,3,-6,-1
13:54:34:323888,-6,-4,-2,-21,8,6,-56,1
13:54:34:337485,3,2,13,17,-1,-1,13,5
13:54:34:345549,3,2,13,17,-1,-1,13,5
13:54:34:346316,-1,-8,-16,-32,-6,-3,-15,-21
13:54:34:352428,-8,-6,-15,-3,4,10,-8,-4
13:54:34:368171,-8,-6,-15,-3,4,10,-8,-4
13:54:34:368865,6,-6,52,3,9,-1,13,9
13:54:34:374955,-5,-24,-52,-30,2,-9,-7,-7
13:54:34:383045,-5,-24,-52,-30,2,-9,-7,-7
13:54:34:383867,-4,1,-90,-36,3,-2,2,6
13:54:34:397349,6,1,-12,-20,1,1,-1,6
13:54:34:405708,6,1,-12,-20,1,1,-1,6
13:54:34:406438,-1,11,-8,21,1,1,-8,-7
13:54:34:412368,-6,1,7,-10,-2,-1,9,-2
13:54:34:428111,-6,1,7,-10,-2,-1,9,-2
13:54:34:428899,0,2,-18,-10,-8,-3,20,0
13:54:34:435007,-1,14,-59,-10,-4,-4,-6,-6
13:54:34:443042,-1,14,-59,-10,-4,-4,-6,-6
13:54:34:443873,0,-6,53,-28,-12,-5,0,-4
13:54:34:457403,-10,-4,10,-9,0,2,-6,-23
13:54:34:465576,-10,-4,10,-9,0,2,-6,-23
13:54:34:466368,7,6,-21,7,4,0,-5,2
13:54:34:472417,2,-1,19,12,-3,1,1,14
13:54:34:488139,2,-1,19,12,-3,1,1,14
13:54:34:488878,-2,-1,24,18,1,1,22,0
13:54:34:494890,-6,-7,-4,2,1,-2,-5,6
13:54:34:503111,-6,-7,-4,2,1,-2,-5,6
13:54:34:503873,-4,-5,42,22,-2,-6,-15,3
13:54:34:517422,4,8,-46,-12,1,-3,41,3
13:54:34:525592,4,8,-46,-12,1,-3,41,3
13:54:34:526374,-6,-14,-8,-4,-12,-1,-3,11
13:54:34:532338,-28,-30,-19,-13,1,-9,-13,-21
13:54:34:548056,-28,-30,-19,-13,1,-9,-13,-21
13:54:34:548853,-6,-6,13,14,-2,-3,7,-8
13:54:34:554966,14,3,48,26,3,7,14,15
13:54:34:563093,14,3,48,26,3,7,14,15
13:54:34:563923,4,9,12,16,2,2,-2,-2
13:54:34:577366,1,-1,-26,-7,1,-2,-1,6
13:54:34:585646,1,-1,-26,-7,1,-2,-1,6
13:54:34:586331,6,-7,9,-29,-4,3,17,12
13:54:34:592382,22,-5,27,-2,7,3,-10,11
13:54:34:608086,22,-5,27,-2,7,3,-10,11
13:54:34:608884,-5,-6,-81,-9,8,1,-16,-22
13:54:34:614800,-25,-7,25,-17,0,-1,11,-17
13:54:34:623165,-25,-7,25,-17,0,-1,11,-17
13:54:34:623902,7,-3,-33,15,8,1,-1,-4
13:54:34:637317,15,1,9,31,3,5,-12,19
13:54:34:645583,15,1,9,31,3,5,-12,19
13:54:34:646354,-14,4,35,15,-7,-7,-14,-2
13:54:34:652410,-1,-22,-11,10,-5,-1,-6,-1
13:54:34:668126,-1,-22,-11,10,-5,-1,-6,-1
13:54:34:668858,0,-11,-5,-24,-9,-6,-10,2
13:54:34:674876,1,13,26,14,4,1,0,-2
13:54:34:683048,1,13,26,14,4,1,0,-2
13:54:34:683892,-1,22,22,18,3,0,11,15
13:54:34:697409,-42,-28,-72,-41,-15,-16,-19,-18
13:54:34:705640,-42,-28,-72,-41,-15,-16,-19,-18
13:54:34:706395,-10,-44,0,-26,-1,-3,-19,-13
13:54:34:712334,12,21,38,13,9,1,-14,3
13:54:34:728079,12,21,38,13,9,1,-14,3
13:54:34:728875,8,7,46,12,0,3,12,0
13:54:34:734964,2,10,-8,-25,7,7,5,-2
13:54:34:743087,2,10,-8,-25,7,7,5,-2
13:54:34:743896,0,12,-17,7,9,3,-25,-5
13:54:34:757454,5,15,36,5,-10,-9,-12,4
13:54:34:765539,5,15,36,5,-10,-9,-12,4
13:54:34:766322,0,-22,-16,-6,-3,-2,-45,-3
13:54:34:772411,7,-27,50,13,-2,-7,23,-10
13:54:34:788061,7,-27,50,13,-2,-7,23,-10
13:54:34:788897,8,18,28,-13,-3,-5,13,2
13:54:34:794900,4,11,-9,-2,-15,4,6,-3
13:54:34:803109,4,11,-9,-2,-15,4,6,-3
13:54:34:803870,-1,4,-6,12,4,5,13,-3
13:54:34:817368,3,19,29,-15,-3,1,19,6
13:54:34:825535,3,19,29,-15,-3,1,19,6
13:54:34:826320,-6,16,-53,12,-4,3,2,7
13:54:34:832400,1,0,-84,8,6,0,-1,-1
13:54:34:848021,1,0,-84,8,6,0,-1,-1
13:54:34:848857,3,10,17,-23,-2,1,28,0
13:54:34:855011,-3,-16,0,17,-3,-7,8,3
13:54:34:863066,-3,-16,0,17,-3,-7,8,3
13:54:34:863896,-4,8,25,14,-2,1,-17,-4
13:54:34:877387,6,1,1,7,13,5,-16,10
13:54:34:885427,6,1,1,7,13,5,-16,10
13:54:34:893066,-4,-8,17,-21,-3,-3,14,-1
13:54:34:893903,-1,-8,26,-3,-6,-4,-16,6
13:54:34:908123,-1,-8,26,-3,-6,-4,-16,6
13:54:34:908883,0,-9,-7,-2,-4,-1,-1,-5
13:54:34:914907,1,1,-36,-8,-3,1,-5,-1
13:54:34:923140,1,1,-36,-8,-3,1,-5,-1
13:54:34:923934,4,5,-4,8,-2,-7,2,11
13:54:34:937425,-10,-15,30,-2,-3,-7,40,-9
13:54:34:945616,-10,-15,30,-2,-3,-7,40,-9
13:54:34:946386,-30,-18,-69,9,-3,-7,15,-3
13:54:34:952399,-7,-38,54,8,3,-2,5,0
13:54:34:968180,-7,-38,54,8,3,-2,5,0
13:54:34:968878,2,-11,20,-9,3,-4,-5,-1
13:54:34:974937,7,24,4,-5,-9,3,-4,2
13:54:34:983092,7,24,4,-5,-9,3,-4,2
13:54:34:983885,3,-9,-41,7,-7,-3,-13,-4
13:54:34:997361,3,26,-15,1,3,3,-15,-5
13:54:35:5676,3,26,-15,1,3,3,-15,-5
13:54:35:6409,10,2,-5,-12,-1,1,-5,-3
13:54:35:12343,5,21,-32,-4,3,-2,-21,-11
13:54:35:28122,5,21,-32,-4,3,-2,-21,-11
13:54:35:28918,0,11,18,-51,-9,-3,4,9
13:54:35:34933,1,-18,-1,5,-4,-4,-19,-3
13:54:35:43144,1,-18,-1,5,-4,-4,-19,-3
13:54:35:43899,2,-2,27,12,13,12,37,-16
13:54:35:57435,1,10,-20,3,-8,2,-3,10
13:54:35:65575,1,10,-20,3,-8,2,-3,10
13:54:35:66414,-26,-34,2,-18,-7,-5,19,-13
13:54:35:72523,-7,-9,-10,-20,-1,-1,15,-7
13:54:35:88131,-7,-9,-10,-20,-1,-1,15,-7
13:54:35:88954,0,-18,1,11,5,-1,-16,-5
13:54:35:94859,6,1,-17,3,-1,-4,-15,0
13:54:35:103127,6,1,-17,3,-1,-4,-15,0
13:54:35:103916,7,21,30,24,-4,-12,-52,16
13:54:35:117404,8,5,18,2,4,3,-3,3
13:54:35:125645,8,5,18,2,4,3,-3,3
13:54:35:126427,-11,-33,-74,-10,-7,-17,-36,-19
13:54:35:132353,4,-1,51,2,-5,-2,2,-2
13:54:35:148064,4,-1,51,2,-5,-2,2,-2
13:54:35:148875,-8,-6,-36,-10,-4,2,-1,-7
13:54:35:154947,-4,11,-7,-11,8,0,9,-3
13:54:35:162422,-4,11,-7,-11,8,0,9,-3
13:54:35:169915,7,11,7,-39,24,10,11,7
13:54:35:177374,-4,27,61,2,-1,0,-8,-1
13:54:35:185699,-4,27,61,2,-1,0,-8,-1
13:54:35:186338,-1,14,85,10,-11,-1,7,-2
13:54:35:199823,-3,-15,8,-20,-8,-7,-13,-6
13:54:35:208123,-3,-15,8,-20,-8,-7,-13,-6
13:54:35:208938,-1,10,21,19,0,7,22,-1
13:54:35:214802,6,21,-5,20,-4,5,26,-4
13:54:35:222502,6,21,-5,20,-4,5,26,-4
13:54:35:229899,1,4,-67,4,0,3,19,0
13:54:35:237428,-1,-3,-27,19,6,4,-1,14
13:54:35:245629,-1,-3,-27,19,6,4,-1,14
13:54:35:246371,11,-18,20,2,-2,-7,-27,-20
13:54:35:259863,-25,-6,-5,9,-6,-7,14,6
13:54:35:268167,-25,-6,-5,9,-6,-7,14,6
13:54:35:268947,15,19,-32,6,-2,2,24,10
13:54:35:274932,-16,-44,6,0,-2,-14,-46,-21
13:54:35:282479,-16,-44,6,0,-2,-14,-46,-21
13:54:35:289944,2,-13,7,-22,-1,10,26,4
13:54:35:306310,17,13,-21,-22,-1,8,7,12
13:54:35:307041,17,13,-21,-22,-1,8,7,12
13:54:35:307896,-25,12,64,18,0,-10,-23,-16
13:54:35:319855,-15,-43,-81,-16,-3,3,28,12
13:54:35:328079,-15,-43,-81,-16,-3,3,28,12
13:54:35:328919,6,-11,-7,-3,4,2,-12,16
13:54:35:334872,-8,-2,-39,-14,-6,-2,6,-6
13:54:35:342452,-8,-2,-39,-14,-6,-2,6,-6
13:54:35:349919,5,7,4,8,1,-3,-70,-14
13:54:35:357408,14,-21,43,6,0,-8,-15,-5
13:54:35:365594,14,-21,43,6,0,-8,-15,-5
13:54:35:366381,15,27,-15,-13,-1,0,-16,-2
13:54:35:379834,4,-1,-32,-7,1,3,2,-3
13:54:35:388114,4,-1,-32,-7,1,3,2,-3
13:54:35:388880,4,5,48,-4,3,3,10,14
13:54:35:394908,-1,-60,-8,7,-9,-7,3,-11
13:54:35:402472,-1,-60,-8,7,-9,-7,3,-11
13:54:35:409930,0,-8,-32,3,0,11,27,15
13:54:35:417381,-3,36,22,18,-1,-3,-17,-3
13:54:35:425575,-3,36,22,18,-1,-3,-17,-3
13:54:35:426363,13,10,83,17,-1,-3,6,17
13:54:35:440062,7,20,66,3,-1,-5,-29,-10
13:54:35:448038,7,20,66,3,-1,-5,-29,-10
13:54:35:448894,-25,-26,-2,-1,-1,-10,-9,-10
13:54:35:454980,-2,31,8,-10,3,-4,15,-11
13:54:35:462393,-2,31,8,-10,3,-4,15,-11
13:54:35:469870,0,-18,25,-4,-9,-2,11,1
13:54:35:477389,0,14,-32,-3,0,4,-1,7
13:54:35:485606,0,14,-32,-3,0,4,-1,7
13:54:35:486380,24,19,-17,-59,-13,-5,-11,5
13:54:35:499951,-3,3,-52,-23,-1,-3,33,2
13:54:35:508060,-3,3,-52,-23,-1,-3,33,2
13:54:35:508892,-7,8,-21,-4,1,5,11,0
13:54:35:514904,-44,13,-49,-3,1,-2,7,-5
13:54:35:522465,-44,13,-49,-3,1,-2,7,-5
13:54:35:529806,2,-8,-24,2,-1,1,3,2
13:54:35:537396,-1,-8,35,16,7,4,-1,1
13:54:35:545587,-1,-8,35,16,7,4,-1,1
13:54:35:546353,-12,-10,26,19,3,2,10,1
13:54:35:559873,3,-34,50,-20,-10,-8,-23,-15
13:54:35:568157,3,-34,50,-20,-10,-8,-23,-15
13:54:35:568879,-5,-15,-41,0,-4,-7,-2,-19
13:54:35:574886,-3,5,85,16,8,5,-4,9
13:54:35:582432,-3,5,85,16,8,5,-4,9
13:54:35:590062,5,9,-11,-15,-1,-2,56,-4
13:54:35:597331,10,-47,-59,1,0,-7,-31,5
13:54:35:605673,10,-47,-59,1,0,-7,-31,5
13:54:35:606353,-3,1,-22,35,13,7,-28,-8
13:54:35:619895,5,19,1,-3,-2,9,7,-32
13:54:35:628103,5,19,1,-3,-2,9,7,-32
13:54:35:628907,-53,9,-24,-36,-8,-11,-18,-1
13:54:35:634940,-1,6,-41,21,2,-1,-5,2
13:54:35:642433,-1,6,-41,21,2,-1,-5,2
13:54:35:649921,18,13,82,30,9,10,15,2
13:54:35:657448,-11,-7,-40,-1,-3,-6,13,19
13:54:35:665532,-11,-7,-40,-1,-3,-6,13,19
13:54:35:666312,12,-56,-72,-5,-2,-10,-17,7
13:54:35:679830,24,20,-20,-29,-2,3,5,6
13:54:35:688152,24,20,-20,-29,-2,3,5,6
13:54:35:688915,5,17,-44,15,-15,0,44,13
13:54:35:694902,9,-3,43,1,-7,5,-12,-19
13:54:35:702426,9,-3,43,1,-7,5,-12,-19
13:54:35:709948,0,-13,53,5,1,-2,11,-11
13:54:35:717427,0,-1,37,-19,-2,0,8,5
13:54:35:725597,0,-1,37,-19,-2,0,8,5
13:54:35:726360,8,2,-6,16,2,-3,13,3
13:54:35:740007,16,3,7,6,-1,0,2,11
13:54:35:748015,16,3,7,6,-1,0,2,11
13:54:35:748880,-4,-7,-4,7,0,-2,-54,-17
13:54:35:754977,3,35,-27,7,-6,-6,-15,-8
13:54:35:762411,3,35,-27,7,-6,-6,-15,-8
13:54:35:769804,-2,8,15,1,-8,-6,0,1
13:54:35:777421,-8,0,11,38,12,2,-17,1
13:54:35:785589,-8,0,11,38,12,2,-17,1
13:54:35:786330,6,13,29,1,-3,-3,-39,22
13:54:35:799924,-3,-3,91,8,2,-1,48,0
13:54:35:808091,-3,-3,91,8,2,-1,48,0
13:54:35:808907,14,-26,2,-19,4,-3,-18,3
13:54:35:814794,-15,-29,20,8,1,1,-7,-4
13:54:35:822534,-15,-29,20,8,1,1,-7,-4
13:54:35:829837,10,31,3,18,8,3,15,-1
13:54:35:837500,-4,-4,-27,-13,10,-4,15,-4
13:54:35:845638,-4,-4,-27,-13,10,-4,15,-4
13:54:35:846407,-18,-3,-1,-7,-7,1,2,-8
13:54:35:859888,7,12,5,0,-7,-10,-25,4
13:54:35:868210,7,12,5,0,-7,-10,-25,4
13:54:35:868944,22,-7,-36,-38,-7,-4,29,17
13:54:35:874955,2,20,-50,23,0,0,-4,12
13:54:35:882469,2,20,-50,23,0,0,-4,12
13:54:35:889960,-4,-8,20,29,1,-2,-9,2
13:54:35:897339,-4,-4,6,-5,2,4,-5,11
13:54:35:905717,-4,-4,6,-5,2,4,-5,11
13:54:35:906364,1,15,26,-29,-8,8,-3,-7
13:54:35:919944,2,6,20,17,-3,4,3,-1
13:54:35:928111,2,6,20,17,-3,4,3,-1
13:54:35:928936,-10,11,52,-6,-10,-11,-10,-16
13:54:35:934968,7,-12,-40,-71,1,4,-12,-11
13:54:35:942431,7,-12,-40,-71,1,4,-12,-11
13:54:35:949918,-7,-16,-30,22,10,2,-5,14
13:54:35:957439,-34,-12,-78,-33,-2,4,2,3
13:54:35:965524,-34,-12,-78,-33,-2,4,2,3
13:54:35:966305,1,-1,49,3,-2,3,10,2
13:54:35:979820,3,-15,41,-9,5,3,-1,5
13:54:35:988168,3,-15,41,-9,5,3,-1,5
13:54:35:988902,-32,-3,31,0,3,-13,35,-29
13:54:35:994911,17,-9,8,15,-2,-7,-27,-10
13:54:36:2457,17,-9,8,15,-2,-7,-27,-10
13:54:36:9947,10,11,-9,4,4,3,12,13
13:54:36:17375,0,4,42,12,0,-2,1,-17
13:54:36:25576,0,4,42,12,0,-2,1,-17
13:54:36:26368,-10,-8,-36,-14,-6,-4,15,3
13:54:36:39993,12,8,-1,6,-1,-3,-34,6
13:54:36:48046,12,8,-1,6,-1,-3,-34,6
13:54:36:48898,6,13,-37,-10,4,2,-8,-11
13:54:36:55018,2,-18,28,-1,-10,-15,17,6
13:54:36:62371,2,-18,28,-1,-10,-15,17,6
13:54:36:69823,-10,-39,15,-2,-4,-10,-32,-28
13:54:36:77384,-6,12,9,-3,-5,0,26,-6
13:54:36:84969,-6,12,9,-3,-5,0,26,-6
13:54:36:92324,-25,12,26,3,0,4,3,9
13:54:36:99844,-2,1,-9,2,-8,4,6,6
13:54:36:108106,-2,1,-9,2,-8,4,6,6
13:54:36:108900,10,14,58,3,9,10,-11,-2
13:54:36:123076,-15,-4,-13,-3,2,2,20,9
13:54:36:123887,-15,-4,-13,-3,2,2,20,9
13:54:36:129803,0,-31,-78,-36,-11,-12,-2,-18
13:54:36:137380,7,-2,-1,-6,4,4,-13,-3
13:54:36:144919,7,-2,-1,-6,4,4,-13,-3
13:54:36:152407,4,7,-26,18,8,5,-4,3
13:54:36:159876,4,0,-16,-17,-8,-5,-10,-3
13:54:36:168172,4,0,-16,-17,-8,-5,-10,-3
13:54:36:168898,-2,5,-16,-13,-13,-1,-28,-5
13:54:36:183083,-5,-7,100,17,5,4,2,6
13:54:36:183912,-5,-7,100,17,5,4,2,6
13:54:36:189927,-13,-25,-2,8,-9,-5,-23,-18
13:54:36:197309,7,15,2,-1,-3,-3,9,6
13:54:36:205007,7,15,2,-1,-3,-3,9,6
13:54:36:212371,3,9,-1,27,2,-1,-2,10
13:54:36:219938,-3,10,-14,-1,4,0,11,-4
13:54:36:228093,-3,10,-14,-1,4,0,11,-4
13:54:36:228922,-1,1,3,-13,-1,-1,16,-1
13:54:36:243104,-48,-31,-104,-12,-1,-13,-15,-13
13:54:36:243924,-48,-31,-104,-12,-1,-13,-15,-13
13:54:36:249901,7,8,-81,-43,-7,-3,13,1
13:54:36:257420,12,3,-5,7,0,-1,-2,18
13:54:36:264876,12,3,-5,7,0,-1,-2,18
13:54:36:272439,6,26,24,13,-6,0,-5,3
13:54:36:279881,10,2,18,1,1,5,7,1
13:54:36:288085,10,2,18,1,1,5,7,1
13:54:36:288931,5,-1,5,-2,0,-3,-7,7
13:54:36:303021,-9,-8,-10,-21,-10,-6,5,-6
13:54:36:303896,-9,-8,-10,-21,-10,-6,5,-6
13:54:36:309928,-2,4,36,-8,-1,2,18,-4
13:54:36:317403,14,3,-1,20,5,5,-2,0
13:54:36:324969,14,3,-1,20,5,5,-2,0
13:54:36:332315,0,12,3,13,3,-1,-6,-2
13:54:36:339934,11,-4,33,18,4,-1,-20,-6
13:54:36:348060,11,-4,33,18,4,-1,-20,-6
13:54:36:348884,-14,-7,12,-7,3,1,3,-2
13:54:36:363056,5,14,-10,-25,1,0,3,-21
13:54:36:363930,5,14,-10,-25,1,0,3,-21
13:54:36:369834,2,-11,101,19,0,-5,-15,-2
13:54:36:377392,-2,0,-6,-1,8,2,5,6
13:54:36:385007,-2,0,-6,-1,8,2,5,6
13:54:36:392391,11,0,-28,22,2,-2,53,11
13:54:36:399841,-10,-16,-53,8,0,-7,-3,1
13:54:36:408099,-10,-16,-53,8,0,-7,-3,1
13:54:36:408927,-9,-6,-23,1,2,3,31,8
13:54:36:423156,6,5,0,-32,-10,-2,1,-3
13:54:36:423928,6,5,0,-32,-10,-2,1,-3
13:54:36:429825,8,-10,-45,-27,0,3,-15,5
13:54:36:437414,-3,8,-5,-9,-10,-1,-24,-14
13:54:36:444931,-3,8,-5,-9,-10,-1,-24,-14
13:54:36:452368,12,5,19,31,3,2,4,5
13:54:36:459890,1,1,71,48,5,-1,-8,-6
13:54:36:468137,1,1,71,48,5,-1,-8,-6
13:54:36:468894,8,7,-13,-38,-6,2,-19,-1
13:54:36:483117,3,-11,30,27,8,7,15,15
13:54:36:483883,3,-11,30,27,8,7,15,15
13:54:36:489920,-8,-2,29,3,0,-9,-34,-15
13:54:36:497358,4,0,-2,-22,-9,1,13,14
13:54:36:505005,4,0,-2,-22,-9,1,13,14
13:54:36:512363,-7,-13,-86,-12,-7,-17,-30,-26
13:54:36:519962,-12,6,-28,-32,-2,5,25,4
13:54:36:528025,-12,6,-28,-32,-2,5,25,4
13:54:36:528918,-1,0,16,21,-6,8,-7,6
13:54:36:542992,1,8,-20,15,0,-6,-5,-8
13:54:36:543901,1,8,-20,15,0,-6,-5,-8
13:54:36:549982,-4,13,58,22,10,6,-33,-26
13:54:36:557442,8,-13,-74,-41,-8,1,33,7
13:54:36:564935,8,-13,-74,-41,-8,1,33,7
13:54:36:572488,6,-12,32,9,-2,-8,33,10
13:54:36:579928,4,20,16,8,5,2,4,3
13:54:36:588095,4,20,16,8,5,2,4,3
13:54:36:588910,10,18,-78,-12,0,4,-7,3
13:54:36:603088,-13,-9,-26,7,3,-8,-19,-7
13:54:36:603876,-13,-9,-26,7,3,-8,-19,-7
13:54:36:609941,-3,-11,21,-3,3,0,-6,15
13:54:36:617374,-1,18,24,8,-4,-8,-35,-12
13:54:36:624944,-1,18,24,8,-4,-8,-35,-12
13:54:36:632297,1,-7,-58,-37,-2,3,18,2
13:54:36:640666,-5,-10,21,17,4,1,8,8
13:54:36:641360,-5,-10,21,17,4,1,8,8
13:54:36:647321,-32,-8,24,-15,-3,-5,-18,-40
13:54:36:663061,-6,-7,9,12,-1,-4,-6,-10
13:54:36:663937,-6,-7,9,12,-1,-4,-6,-10
13:54:36:669926,16,-5,6,13,-4,8,26,27
13:54:36:677378,-4,10,14,13,-11,-6,-37,-9
13:54:36:685065,-4,10,14,13,-11,-6,-37,-9
13:54:36:692419,0,2,10,3,2,3,34,6
13:54:36:700645,10,5,27,3,-2,1,34,19
13:54:36:701441,10,5,27,3,-2,1,34,19
13:54:36:707470,-8,-17,37,-10,1,-4,-12,-10
13:54:36:723178,-14,-19,15,-23,-1,-7,-9,-19
13:54:36:723927,-14,-19,15,-23,-1,-7,-9,-19
13:54:36:729824,0,17,5,32,2,-7,-15,8
13:54:36:737388,0,-6,-9,-25,-5,2,-48,-3
13:54:36:744969,0,-6,-9,-25,-5,2,-48,-3
13:54:36:752423,13,16,4,12,2,12,-34,13
13:54:36:760611,-10,-5,4,-10,-4,-3,-6,-2
13:54:36:761405,-10,-5,4,-10,-4,-3,-6,-2
13:54:36:767410,-2,-7,-15,-15,0,-3,-1,8
13:54:36:783104,1,-15,-28,-28,-7,-4,20,-2
13:54:36:783901,1,-15,-28,-28,-7,-4,20,-2
13:54:36:789922,-4,-5,2,3,-4,-8,20,-6
13:54:36:797362,8,2,56,17,13,7,2,11
13:54:36:805007,8,2,56,17,13,7,2,11
13:54:36:812378,-21,-44,19,-33,1,-11,-13,-27
13:54:36:820619,11,5,72,30,-3,8,7,11
13:54:36:821361,11,5,72,30,-3,8,7,11
13:54:36:827379,10,21,25,4,-5,-5,4,14
13:54:36:843043,4,5,7,-11,-8,-7,-5,-7
13:54:36:843916,4,5,7,-11,-8,-7,-5,-7
13:54:36:849944,2,17,-5,19,-4,-3,31,1
13:54:36:857456,-5,-6,-14,27,11,2,-19,-8
13:54:36:864926,-5,-6,-14,27,11,2,-19,-8
13:54:36:872467,-8,-6,49,28,6,1,-21,-11
13:54:36:880517,10,-3,-51,27,-6,-5,0,4
13:54:36:881383,10,-3,-51,27,-6,-5,0,4
13:54:36:887396,7,7,22,2,3,5,-16,7
13:54:36:903079,-9,12,10,14,2,-3,15,-4
13:54:36:903911,-9,12,10,14,2,-3,15,-4
13:54:36:909926,3,-15,-53,-4,0,-2,7,2
13:54:36:917395,-6,3,-8,-7,-2,2,6,-8
13:54:36:924917,-6,3,-8,-7,-2,2,6,-8
13:54:36:932318,4,26,-15,-25,-5,-4,3,-16
13:54:36:940688,-3,-10,-8,-43,-1,-7,6,1
13:54:36:941350,-3,-10,-8,-43,-1,-7,6,1
13:54:36:947325,6,13,65,11,-2,4,14,13
13:54:36:963043,-5,5,-14,-2,-4,-2,39,-2
13:54:36:963928,-5,5,-14,-2,-4,-2,39,-2
13:54:36:969881,-13,-3,54,20,10,1,-13,-6
13:54:36:977350,-14,-38,-86,-55,-6,-5,-30,-1
13:54:36:985034,-14,-38,-86,-55,-6,-5,-30,-1
13:54:36:992384,0,-2,4,11,-9,-2,-2,-1
13:54:37:602,12,4,16,5,1,1,-17,-2
13:54:37:1410,12,4,16,5,1,1,-17,-2
13:54:37:7481,-9,-30,-98,-27,-4,0,-9,-2
13:54:37:23141,5,9,62,7,-2,-2,4,-1
13:54:37:23956,5,9,62,7,-2,-2,4,-1
13:54:37:29850,7,2,-39,-11,-13,-12,2,5
13:54:37:45587,12,12,26,7,7,3,9,10
13:54:37:46360,12,12,26,7,7,3,9,10
13:54:37:52399,-6,5,5,-17,-10,-4,-5,-2
13:54:37:60586,0,-7,-33,-3,-4,-4,-17,-5
13:54:37:61388,0,-7,-33,-3,-4,-4,-17,-5
13:54:37:74951,0,-6,-27,-31,3,0,4,-10
13:54:37:83053,-20,-4,11,13,-9,-13,-21,-8
13:54:37:83901,-20,-4,11,13,-9,-13,-21,-8
13:54:37:89977,-9,-24,-16,2,-3,-1,-9,-1
13:54:37:105599,-5,16,-39,4,1,2,28,13
13:54:37:106352,-5,16,-39,4,1,2,28,13
13:54:37:112310,-7,-34,-10,-12,1,4,2,2
13:54:37:120637,2,-12,9,13,-3,1,17,-4
13:54:37:121357,2,-12,9,13,-3,1,17,-4
13:54:37:134969,-2,-2,-38,-29,0,-6,-14,3
13:54:37:143046,17,1,3,3,-3,5,-1,2
13:54:37:143899,17,1,3,3,-3,5,-1,2
13:54:37:149811,-8,-2,36,25,7,-4,-3,-11
13:54:37:165502,1,8,-33,-11,-6,0,-7,-6
13:54:37:166330,1,8,-33,-11,-6,0,-7,-6
13:54:37:172425,5,-12,-17,2,-11,-2,0,-13
13:54:37:180557,-2,-11,20,7,0,3,-1,-8
13:54:37:181325,-2,-11,20,7,0,3,-1,-8
13:54:37:194940,4,26,7,-22,-3,-1,22,3
13:54:37:203018,-8,-9,4,-11,-4,-5,-23,-11
13:54:37:203890,-8,-9,4,-11,-4,-5,-23,-11
13:54:37:209860,8,-5,-35,-4,-3,-7,-33,-18
13:54:37:225572,-11,3,13,-16,6,7,4,-2
13:54:37:226358,-11,3,13,-16,6,7,4,-2
13:54:37:232350,2,11,6,28,2,5,3,9
13:54:37:240606,-15,-5,-9,15,6,-5,-17,-15
13:54:37:241334,-15,-5,-9,15,6,-5,-17,-15
13:54:37:255059,-2,-7,4,-15,-10,-2,-7,0
13:54:37:263027,10,4,-71,-13,-7,-4,21,-4
13:54:37:263901,10,4,-71,-13,-7,-4,21,-4
13:54:37:269960,-11,-11,-28,13,0,-4,-4,8
13:54:37:285619,-3,18,-78,7,-1,2,4,12
13:54:37:286360,-3,18,-78,7,-1,2,4,12
13:54:37:292408,14,0,70,-32,1,0,12,6
13:54:37:301018,-4,-16,57,-7,-6,-2,14,-3
13:54:37:307489,-4,-16,57,-7,-6,-2,14,-3
13:54:37:314916,0,17,-2,9,6,6,7,5
13:54:37:323109,7,-4,11,-33,-3,1,-22,16
13:54:37:323911,7,-4,11,-33,-3,1,-22,16
13:54:37:329796,12,4,111,14,4,5,9,13
13:54:37:345582,0,-1,50,25,0,-2,15,2
13:54:37:346343,0,-1,50,25,0,-2,15,2
13:54:37:352414,-14,11,48,22,-4,-3,-16,-4
13:54:37:360576,-1,8,36,27,0,-4,-7,-13
13:54:37:361384,-1,8,36,27,0,-4,-7,-13
13:54:37:374962,1,0,-38,16,1,2,6,1
13:54:37:383002,0,-4,-9,-9,-1,-1,-10,2
13:54:37:383914,0,-4,-9,-9,-1,-1,-10,2
13:54:37:389883,-1,6,-42,-15,-5,-7,2,1
13:54:37:405559,5,2,19,-5,0,0,10,-7
13:54:37:406345,5,2,19,-5,0,0,10,-7
13:54:37:412353,-11,-27,-71,-12,5,6,-16,-3
13:54:37:420552,-6,-15,3,-40,1,2,11,-5
13:54:37:421376,-6,-15,3,-40,1,2,11,-5
13:54:37:434910,10,11,18,19,4,-4,5,1
13:54:37:443067,10,11,18,19,4,-4,5,1
13:54:37:443936,7,4,-23,6,2,-1,-25,9
13:54:37:449929,1,4,-44,-20,-10,-1,3,4
13:54:37:466006,1,4,-44,-20,-10,-1,3,4
13:54:37:466780,-2,11,67,13,17,9,25,6
13:54:37:472412,5,-5,5,-19,-3,-2,-4,3
13:54:37:488186,5,-5,5,-19,-3,-2,-4,3
13:54:37:488924,-4,15,25,28,-2,-10,-17,11
13:54:37:494878,-17,-38,-18,15,13,-1,-25,-12
13:54:37:503146,-17,-38,-18,15,13,-1,-25,-12
13:54:37:503892,-8,-8,-28,-7,-6,-3,-2,-9
13:54:37:509876,8,6,16,-4,3,0,-21,15
13:54:37:525586,8,6,16,-4,3,0,-21,15
13:54:37:526372,0,-9,-53,-24,-4,5,-7,0
13:54:37:532332,-5,12,-15,-17,-3,-7,3,-1
13:54:37:548069,-5,12,-15,-17,-3,-7,3,-1
13:54:37:548899,-12,-12,-15,0,0,-2,0,-20
13:54:37:554920,-3,22,63,9,-3,6,26,12
13:54:37:563051,-3,22,63,9,-3,6,26,12
13:54:37:563955,-5,-6,-105,-18,-4,-13,-14,-11
13:54:37:569877,-1,-4,-38,27,-3,-2,6,-8
13:54:37:585698,-1,-4,-38,27,-3,-2,6,-8
13:54:37:586404,3,1,2,-26,-5,3,-4,6
13:54:37:592352,3,5,-8,11,-1,0,11,-6
13:54:37:608077,3,5,-8,11,-1,0,11,-6
13:54:37:608892,18,-4,35,18,-4,-2,-3,-5
13:54:37:614854,7,18,-16,0,-7,-2,17,16
13:54:37:623173,7,18,-16,0,-7,-2,17,16
13:54:37:623952,-6,28,68,20,2,-3,-21,-22
13:54:37:629825,3,-2,-64,-43,1,-2,-10,-22
13:54:37:645597,3,-2,-64,-43,1,-2,-10,-22
13:54:37:646353,1,-3,-23,7,7,-3,11,9
13:54:37:652477,-3,-1,28,0,5,1,29,-4
13:54:37:668183,-3,-1,28,0,5,1,29,-4
13:54:37:668900,6,-14,25,12,0,3,10,2
13:54:37:674860,-5,-6,22,21,-1,0,23,15
13:54:37:683062,-5,-6,22,21,-1,0,23,15
13:54:37:683916,6,17,59,5,-8,3,16,8
13:54:37:689978,-15,-31,15,13,-4,-7,-5,-12
13:54:37:705649,-15,-31,15,13,-4,-7,-5,-12
13:54:37:706382,-1,10,3,25,-4,-8,-14,8
13:54:37:712335,13,1,13,-17,-12,-6,-8,6
13:54:37:728091,13,1,13,-17,-12,-6,-8,6
13:54:37:728922,1,-10,29,2,2,8,7,16
13:54:37:734994,-19,-27,14,10,1,0,-29,-17
13:54:37:743072,-19,-27,14,10,1,0,-29,-17
13:54:37:743890,2,-21,-96,13,1,-1,-10,4
13:54:37:749817,-13,0,-3,-3,-3,-6,16,4
13:54:37:765547,-13,0,-3,-3,-3,-6,16,4
13:54:37:766316,-11,-10,8,2,-1,-1,-8,-2
13:54:37:772393,4,-4,27,-6,6,-2,-19,6
13:54:37:788145,4,-4,27,-6,6,-2,-19,6
13:54:37:788960,-8,1,-13,19,8,-1,-4,-9
13:54:37:794921,-3,-18,0,7,1,5,0,-15
13:54:37:803057,-3,-18,0,7,1,5,0,-15
13:54:37:803927,4,-4,0,-25,-5,4,-52,-2
13:54:37:809859,4,15,-10,-43,1,0,-16,-2
13:54:37:825533,4,15,-10,-43,1,0,-16,-2
13:54:37:826350,4,10,-7,-19,-3,6,28,11
13:54:37:832378,-12,-35,21,18,-5,-4,-9,-1
13:54:37:848017,-12,-35,21,18,-5,-4,-9,-1
13:54:37:848788,-1,0,-1,-9,0,-8,22,9
13:54:37:863770,5,17,18,19,-9,1,4,-11
13:54:37:864503,5,17,18,19,-9,1,4,-11
13:54:37:865316,-3,-14,16,21,1,0,-3,-7
13:54:37:869883,10,3,5,-2,-11,4,-10,2
13:54:37:885642,10,3,5,-2,-11,4,-10,2
13:54:37:886394,0,22,43,-6,1,-3,-15,-4
13:54:37:892410,-3,0,-29,-6,6,-3,1,-9
13:54:37:907922,-3,0,-29,-6,6,-3,1,-9
13:54:37:915525,12,15,48,-16,2,2,52,5
13:54:37:916294,-1,-16,-35,-9,4,-10,0,7
13:54:37:923197,-1,-16,-35,-9,4,-10,0,7
13:54:37:923942,-10,-22,-99,5,5,2,26,0
13:54:37:929816,6,12,-5,-3,5,4,-16,2
13:54:37:945616,6,12,-5,-3,5,4,-16,2
13:54:37:946395,3,0,0,11,-4,-1,-16,-6
13:54:37:952454,-12,5,-35,-4,-1,-4,-55,-11
13:54:37:959995,-12,5,-35,-4,-1,-4,-55,-11
13:54:37:967402,5,12,40,-11,-6,-6,-23,-5
13:54:37:983771,1,18,92,17,5,1,-15,-8
13:54:37:984577,1,18,92,17,5,1,-15,-8
13:54:37:985328,-7,19,-16,11,9,-3,5,-6
13:54:37:997385,-1,10,-14,-18,-8,-2,16,6
13:54:38:5658,-1,10,-14,-18,-8,-2,16,6
13:54:38:6383,-4,-9,8,-1,-6,1,12,2
13:54:38:20584,-6,-10,-41,23,3,3,-2,-2
13:54:38:21401,-6,-10,-41,23,3,3,-2,-2
13:54:38:27334,5,-6,43,-2,1,0,-8,10
13:54:38:34887,40,19,30,4,5,10,39,35
13:54:38:43074,40,19,30,4,5,10,39,35
13:54:38:43942,-17,-9,7,7,-3,-5,-30,-23
13:54:38:57484,-10,-2,1,-10,-10,-4,24,-3
13:54:38:65544,-10,-2,1,-10,-10,-4,24,-3
13:54:38:66311,6,-8,-7,-41,-7,-8,-4,5
13:54:38:72373,8,8,4,-17,-6,0,8,9
13:54:38:79897,8,8,4,-17,-6,0,8,9
13:54:38:87474,-14,-14,-64,-8,-11,-7,8,-10
13:54:38:94864,-11,2,-8,0,-2,-8,-14,-11
13:54:38:103165,-11,2,-8,0,-2,-8,-14,-11
13:54:38:103928,-17,-46,0,-22,-6,-7,-15,-14
13:54:38:117364,6,16,18,-3,-5,-9,69,5
13:54:38:125623,6,16,18,-3,-5,-9,69,5
13:54:38:126396,-14,-17,87,5,6,0,-2,-8
13:54:38:132338,-5,-10,-6,-2,6,-1,-14,-15
13:54:38:139999,-5,-10,-6,-2,6,-1,-14,-15
13:54:38:147421,13,26,14,7,-1,-2,-2,2
13:54:38:155059,-21,-11,-33,-14,-11,-7,-16,-20
13:54:38:163069,-21,-11,-33,-14,-11,-7,-16,-20
13:54:38:163918,-2,-10,-25,-2,-3,-5,-17,-14
13:54:38:177385,6,17,-15,-2,-1,-1,-27,4
13:54:38:185651,6,17,-15,-2,-1,-1,-27,4
13:54:38:186415,19,28,9,-22,2,7,9,2
13:54:38:192363,-15,-14,28,2,1,3,-1,0
13:54:38:199942,-15,-14,28,2,1,3,-1,0
13:54:38:207426,-2,-7,-17,12,2,8,3,12
13:54:38:214868,0,-5,34,-8,3,4,-10,0
13:54:38:223118,0,-5,34,-8,3,4,-10,0
13:54:38:223820,7,-4,-47,3,2,4,15,10
13:54:38:237408,7,7,-18,2,-3,-3,-17,7
13:54:38:245540,7,7,-18,2,-3,-3,-17,7
13:54:38:246300,-13,-13,-12,-6,-5,-7,13,3
13:54:38:260609,2,-21,-5,-15,5,1,-2,13
13:54:38:261409,2,-21,-5,-15,5,1,-2,13
13:54:38:267376,-5,-5,-20,5,0,-1,-7,-4
