Time,EMG1,EMG2,EMG3,EMG4,EMG5,EMG6,EMG7,EMG8
21:06:56:808970,-3,-2,-1,0,-1,-1,-1,-2
21:06:56:809741,-6,0,-1,0,0,0,-1,-3
21:06:56:810652,5,0,-1,-2,-1,-1,-2,-4
21:06:56:811370,5,0,-1,-2,-1,-1,-2,-4
21:06:56:814338,2,-2,-1,-2,-2,-2,-1,1
21:06:56:829970,6,0,1,-1,-1,-2,0,-2
21:06:56:830853,6,0,1,-1,-1,-2,0,-2
21:06:56:836861,1,-1,-2,-2,-3,-1,-1,-2
21:06:56:844332,-4,-1,0,-2,0,-1,0,-1
21:06:56:852597,-4,-1,0,-2,0,-1,0,-1
21:06:56:853323,4,-1,-1,-1,2,0,1,-2
21:06:56:867496,-3,-1,-1,0,-1,-3,-2,0
21:06:56:868353,-3,-1,-1,0,-1,-3,-2,0
21:06:56:882490,-3,1,0,-1,-1,-1,-1,-2
21:06:56:883363,-3,-1,-3,0,-1,-1,-1,-1
21:06:56:889363,-3,-1,-3,0,-1,-1,-1,-1
21:06:56:904968,-1,-3,-1,-3,-1,-1,-2,1
21:06:56:905827,-4,-2,-1,1,-3,0,-1,2
21:06:56:912456,-4,-2,-1,1,-3,0,-1,2
21:06:56:913389,-2,-2,-2,0,-2,0,0,-1
21:06:56:928245,-3,0,-1,-2,1,-1,-1,-2
21:06:56:928971,-3,0,-1,-2,1,-1,-1,-2
21:06:56:934338,3,-1,0,-2,-1,-2,-1,1
21:06:56:941831,1,-1,-1,0,-1,-1,-1,0
21:06:56:957600,1,-1,-1,0,-1,-1,-1,0
21:06:56:958337,-3,-2,-2,-1,-1,-1,-2,-2
21:06:56:964364,-3,-1,0,-1,-2,0,0,0
21:06:56:980093,-3,-1,0,-1,-2,0,0,0
21:06:56:980853,-1,-1,-1,0,-1,-3,-1,-2
21:06:56:987587,-1,-3,-1,-1,-2,-3,-1,3
21:06:56:988335,-1,-3,-1,-1,-2,-3,-1,3
21:06:57:10734,-5,-1,-2,-1,-2,1,-1,-1
21:06:57:11470,-1,-1,-2,-2,0,0,-1,-2
21:06:57:12338,-1,-1,-2,-2,0,0,-1,-2
21:06:57:16866,-2,-2,-1,-1,0,1,-1,0
21:06:57:33203,-2,-2,0,-3,1,1,-1,0
21:06:57:33964,-2,-2,0,-3,1,1,-1,0
21:06:57:34852,6,-1,-1,-1,-2,-2,0,0
21:06:57:48029,-5,0,-1,-1,-2,-1,-2,0
21:06:57:55089,-5,0,-1,-1,-2,-1,-2,0
21:06:57:55835,0,0,-1,-1,-1,-2,-1,-2
21:06:57:61854,-1,0,-1,-1,-2,-1,1,-2
21:06:57:85715,-1,0,-1,-1,-2,-1,1,-2
21:06:57:86444,-3,-1,0,-2,0,-2,0,-4
21:06:57:87320,-2,0,-1,0,-1,-2,-1,-4
21:06:57:92584,-2,0,-1,0,-1,-2,-1,-4
21:06:57:93346,4,-1,-2,0,0,-1,0,2
21:06:57:107477,0,0,0,-1,0,0,-2,0
21:06:57:108334,0,0,0,-1,0,0,-2,0
21:06:57:114377,-8,-1,-2,-3,0,-1,-2,-2
21:06:57:130019,5,-1,0,-1,-1,-2,-2,0
21:06:57:130827,5,-1,0,-1,-1,-2,-2,0
21:06:57:136832,-1,-1,-2,-3,-2,-1,-1,0
21:06:57:144334,-1,0,-1,1,0,-1,-2,-4
21:06:57:159978,-1,0,-1,1,0,-1,-2,-4
21:06:57:160837,-1,0,0,0,0,-1,-2,0
21:06:57:167454,-3,-1,-2,-1,-1,0,1,0
21:06:57:168317,-3,-1,-2,-1,-1,0,1,0
21:06:57:182525,1,-1,-2,-1,0,0,0,0
21:06:57:183362,4,0,-1,-1,-1,-1,-1,1
21:06:57:189337,4,0,-1,-1,-1,-1,-1,1
21:06:57:204981,0,-1,-1,-1,-2,-1,-1,-2
21:06:57:205835,-4,-2,-2,-1,-2,-2,-1,-7
21:06:57:212965,-4,-2,-2,-1,-2,-2,-1,-7
21:06:57:219364,-3,-2,1,1,0,0,0,-2
21:06:57:235742,-4,-1,-3,0,-1,-1,0,0
21:06:57:236602,-4,-1,-3,0,-1,-1,0,0
21:06:57:237334,-3,-1,-1,-1,0,0,-1,-1
21:06:57:241865,-2,0,-1,-2,-1,-1,1,1
21:06:57:257595,-2,0,-1,-2,-1,-1,1,1
21:06:57:258341,-1,-2,-2,-1,-2,0,-1,-1
21:06:57:264347,2,0,-2,-1,-1,0,-1,1
21:06:57:288836,2,0,-2,-1,-1,0,-1,1
21:06:57:289697,6,-3,-3,0,0,-1,-2,5
21:06:57:290456,3,-1,0,-1,-1,0,0,-2
21:06:57:291341,3,-1,0,-1,-1,0,0,-2
21:06:57:294331,-2,0,1,-1,-1,-2,-2,-3
21:06:57:309965,-3,-2,-1,0,-1,-1,0,0
21:06:57:310845,-3,-2,-1,0,-1,-1,0,0
21:06:57:316905,-2,1,-1,-1,-1,1,-1,-2
21:06:57:333107,-3,-1,-1,-1,-1,0,-1,-3
21:06:57:333962,-3,-1,-1,-1,-1,0,-1,-3
21:06:57:334875,-4,-1,-1,-2,-1,-3,1,-1
21:06:57:363893,0,-1,-1,-1,0,-1,-2,1
21:06:57:364729,0,-1,-1,-1,0,-1,-2,1
21:06:57:365462,-2,0,-1,0,-1,1,0,1
21:06:57:366206,0,0,1,-2,-1,-1,-1,-9
21:06:57:369345,0,0,1,-2,-1,-1,-1,-9
21:06:57:384996,1,-3,-2,1,-2,-2,-2,-2
21:06:57:385859,2,-1,-1,-2,-1,-3,-2,6
21:06:57:400120,2,-1,-1,-2,-1,-3,-2,6
21:06:57:400868,-1,0,-2,-1,-1,-1,0,-3
21:06:57:407487,-3,-1,-1,0,0,-2,0,-1
21:06:57:408344,-3,-1,-1,0,0,-2,0,-1
21:06:57:414364,3,0,-2,-1,0,-2,-2,-1
21:06:57:437231,2,-2,0,-2,-1,-1,0,-1
21:06:57:445749,2,-2,0,-2,-1,-1,0,-1
21:06:57:446460,-3,-1,-1,-1,-1,-1,-1,-1
21:06:57:447336,-5,-2,-3,-1,-3,0,0,0
21:06:57:460118,-5,-2,-3,-1,-3,0,0,0
21:06:57:460838,2,-2,-2,0,0,-1,-1,-1
21:06:57:467481,-3,0,-2,1,0,-1,-1,0
21:06:57:468340,-3,0,-2,1,0,-1,-1,0
21:06:57:474348,0,1,0,-2,-2,-1,-2,0
21:06:57:489959,0,-2,-1,0,-3,0,-1,-1
21:06:57:490854,0,-2,-1,0,-3,0,-1,-1
21:06:57:513859,-4,-2,0,0,1,-2,0,-2
21:06:57:514729,-1,-1,-2,-1,0,-1,0,-2
21:06:57:515498,-1,-1,-2,-1,0,-1,0,-2
21:06:57:516386,2,2,-1,-3,0,-1,0,0
21:06:57:528219,0,-1,-1,-1,-1,0,-2,-2
21:06:57:528955,0,-1,-1,-1,-1,0,-2,-2
21:06:57:534355,-1,-2,-2,-1,-3,-1,-2,1
21:06:57:541838,-9,-2,0,-2,-2,-1,-2,-3
21:06:57:557357,-9,-2,0,-2,-2,-1,-2,-3
21:06:57:564985,0,-2,0,-3,-1,-1,-1,1
21:06:57:565843,0,-2,-3,-1,0,0,0,-2
21:06:57:572598,0,-2,-3,-1,0,0,0,-2
21:06:57:573321,-1,-1,-1,-1,-1,0,-1,-2
21:06:57:587460,1,-1,-1,0,-1,-2,-2,-1
21:06:57:588325,1,-1,-1,0,-1,-2,-2,-1
21:06:57:594375,2,-1,-2,1,-1,-1,-1,0
21:06:57:609990,3,0,0,0,0,-1,-2,0
21:06:57:610861,3,0,0,0,0,-1,-2,0
21:06:57:616854,-4,-1,0,0,-1,-1,1,-4
21:06:57:634233,-2,0,0,-2,-1,0,0,0
21:06:57:635096,-2,0,0,-2,-1,0,0,0
21:06:57:639347,-2,1,-1,-1,-2,1,-1,-1
21:06:57:647477,-5,-2,-2,-1,0,0,-1,-1
21:06:57:648400,-5,-2,-2,-1,0,0,-1,-1
21:06:57:661874,-1,-2,-3,-3,-2,1,-2,-2
21:06:57:669981,15,-2,0,-3,-2,0,-1,-2
21:06:57:670844,15,-2,0,-3,-2,0,-1,-2
21:06:57:676846,2,0,-1,0,-2,-2,-3,-1
21:06:57:692497,-4,0,-1,-1,-1,0,-1,0
21:06:57:693366,-4,0,-1,-1,-1,0,-1,0
21:06:57:716786,-3,-1,-2,-1,0,-2,-3,-1
21:06:57:717600,5,-1,-1,-1,-2,-1,0,5
21:06:57:718362,5,-1,-1,-1,-2,-1,0,5
21:06:57:721862,-2,0,-1,-1,1,-2,-1,0
21:06:57:731087,-5,-1,-1,-1,-3,0,0,-2
21:06:57:737599,-5,-1,-1,-1,-3,0,0,-2
21:06:57:738338,-4,1,1,-1,0,-1,0,-4
21:06:57:744382,-1,0,0,-1,0,-1,-3,-1
21:06:57:752002,-1,0,0,-1,0,-1,-3,-1
21:06:57:759368,0,-1,-1,-2,0,-2,1,-4
21:06:57:767466,-3,-1,-1,0,-1,-2,-1,-2
21:06:57:768340,-3,-1,-1,0,-1,-2,-1,-2
21:06:57:790731,0,-1,-1,-1,0,0,-1,0
21:06:57:791484,-3,1,-1,-2,-1,-1,-1,0
21:06:57:792360,-3,1,-1,-2,-1,-1,-1,0
21:06:57:796868,1,-2,-2,-1,-3,-2,-1,-1
21:06:57:804357,-9,-1,-1,-1,1,-2,-1,-3
21:06:57:811864,-9,-1,-1,-1,1,-2,-1,-3
21:06:57:819351,-2,-1,0,-1,0,0,-1,0
21:06:57:827474,-6,-1,-1,0,-1,-1,0,0
21:06:57:828361,-6,-1,-1,0,-1,-1,0,0
21:06:57:834349,-1,-1,-3,0,-2,-2,-1,-1
21:06:57:850138,2,-2,1,-1,-3,0,-1,-2
21:06:57:850841,2,-2,1,-1,-3,0,-1,-2
21:06:57:856853,2,-4,-1,-3,-1,-1,-3,6
21:06:57:864377,-1,-3,-3,0,0,-1,-1,-1
21:06:57:871855,-1,-3,-3,0,0,-1,-1,-1
21:06:57:888127,-3,1,-1,-2,0,-2,-1,-3
21:06:57:888967,3,-1,-1,-4,-2,0,-2,0
21:06:57:889839,3,-1,-1,-4,-2,0,-2,0
21:06:57:894360,-7,-1,0,-2,-1,-1,0,0
21:06:57:911114,-1,0,0,1,-2,-1,-1,-2
21:06:57:912024,-1,0,0,1,-2,-1,-1,-2
21:06:57:916884,-1,0,0,0,0,0,-1,-2
21:06:57:924355,3,-1,-1,-2,-1,-2,1,-1
21:06:57:940093,3,-1,-1,-2,-1,-2,1,-1
21:06:57:940875,1,-1,0,-1,-1,-1,-1,-2
21:06:57:947645,1,-1,-2,0,0,0,-2,1
21:06:57:948402,1,-1,-2,0,0,0,-2,1
21:06:57:954346,-2,0,-1,-1,-1,-2,-2,-3
21:06:57:970484,-5,-2,-1,-2,-1,-2,-1,-2
21:06:57:971354,-5,-2,-1,-2,-1,-2,-1,-2
21:06:57:992236,1,-1,-1,-1,-2,-1,0,-1
21:06:58:736,-3,-1,0,-1,0,-2,-1,-1
21:06:58:1486,-3,-1,0,-1,0,-2,-1,-1
21:06:58:2354,-7,-2,-1,-1,0,-1,0,-5
21:06:58:8213,5,0,-2,-1,-1,0,0,2
21:06:58:8976,5,0,-2,-1,-1,0,0,2
21:06:58:14343,-3,-1,-1,-1,-3,-1,-2,1
21:06:58:30015,1,-1,-2,-2,-2,-2,-1,-2
21:06:58:30880,1,-1,-2,-2,-2,-2,-1,-2
21:06:58:44989,1,0,-1,-2,-2,0,0,-1
21:06:58:45873,-1,0,-3,-1,-1,0,-1,-2
21:06:58:68846,-1,0,-3,-1,-1,0,-1,-2
21:06:58:69738,3,0,-1,-1,0,-1,-1,-2
21:06:58:70485,-1,-1,-1,0,-1,-1,0,-2
21:06:58:71357,-1,-1,-1,0,-1,-1,0,-2
21:06:58:74364,2,-3,-3,-1,0,-1,-1,-1
21:06:58:89981,-7,-1,0,-1,-1,0,0,3
21:06:58:90872,-7,-1,0,-1,-1,0,0,3
21:06:58:96856,-4,-1,-1,0,-2,-2,-2,7
21:06:58:104348,-7,-1,-1,-1,1,0,-1,-2
21:06:58:111859,-7,-1,-1,-1,1,0,-1,-2
21:06:58:128235,-4,-1,0,-3,-1,0,1,-3
21:06:58:128972,2,-1,0,-2,-1,-2,-3,-1
21:06:58:129908,2,-1,0,-2,-1,-2,-3,-1
21:06:58:141875,3,-2,-2,-1,0,1,-1,-1
21:06:58:150007,2,-2,-2,-3,0,1,-1,-3
21:06:58:150844,2,-2,-2,-3,0,1,-1,-3
21:06:58:164983,-3,0,-2,-2,-1,-1,-1,-1
21:06:58:165879,0,-1,-2,0,-2,-1,-1,-2
21:06:58:171857,0,-1,-2,0,-2,-1,-1,-2
21:06:58:196394,0,-3,-1,0,0,0,1,0
21:06:58:197093,-3,-1,0,-1,-1,-2,-1,-1
21:06:58:197972,-3,-1,0,-1,-1,-2,-1,-1
21:06:58:198877,-3,-1,-1,0,-1,0,-2,-5
21:06:58:218249,-2,-3,0,-1,-1,0,-1,-2
21:06:58:218963,-2,-3,0,-1,-1,0,-1,-2
21:06:58:219879,-6,0,-1,-2,-1,-1,-2,-3
21:06:58:224340,-6,0,-1,0,-1,0,-1,-2
21:06:58:231866,-6,0,-1,0,-1,0,-1,-2
21:06:58:239358,2,-2,-2,0,-2,-1,-1,-1
21:06:58:247501,2,-2,0,-2,1,-1,1,-4
21:06:58:248345,2,-2,0,-2,1,-1,1,-4
21:06:58:261863,1,-1,-1,-1,-3,-2,-1,-1
21:06:58:270001,-2,0,-1,-2,-2,0,-2,1
21:06:58:270874,-2,0,-1,-2,-2,0,-2,1
21:06:58:276848,4,1,-1,-2,0,-1,-3,0
21:06:58:284359,0,-1,0,0,-2,-2,-2,-2
21:06:58:291857,0,-1,0,0,-2,-2,-2,-2
21:06:58:299363,8,-2,-1,-2,-3,-2,-1,1
21:06:58:307983,-1,0,-2,-1,-1,-2,-2,-1
21:06:58:315131,-1,0,-2,-1,-1,-2,-2,-1
21:06:58:315849,-8,-1,-2,-1,1,0,-1,-5
21:06:58:330045,5,1,-3,-2,1,-1,-2,-1
21:06:58:330855,5,1,-3,-2,1,-1,-2,-1
21:06:58:344981,-1,-1,0,-1,-2,-1,-2,0
21:06:58:345765,-2,-1,1,-1,-3,-2,-1,-2
21:06:58:351854,-2,-1,1,-1,-3,-2,-1,-2
21:06:58:368238,-1,0,-1,-1,-2,1,-1,-1
21:06:58:368961,-2,-1,-1,0,-1,-2,1,1
21:06:58:369847,-2,-1,-1,0,-1,-2,1,1
21:06:58:374371,4,0,0,-1,-1,-1,-3,-6
21:06:58:390514,-1,0,-1,-1,-1,0,-1,-2
21:06:58:391353,-1,0,-1,-1,-1,0,-1,-2
21:06:58:396872,-4,-1,-1,-1,0,-1,-1,1
21:06:58:404370,2,-1,0,-2,-1,0,-2,4
21:06:58:419996,2,-1,0,-2,-1,0,-2,4
21:06:58:420861,-1,0,0,-2,0,-1,0,0
21:06:58:427468,12,-1,-2,0,-1,-1,0,-2
21:06:58:428370,12,-1,-2,0,-1,-1,0,-2
21:06:58:441871,-1,-2,-2,-2,-1,-1,-1,0
21:06:58:449994,0,0,-1,0,0,1,-1,1
21:06:58:450859,0,0,-1,0,0,1,-1,1
21:06:58:473231,7,0,-1,0,-1,-2,-2,-2
21:06:58:473974,-4,-2,-2,-1,-1,-2,0,-1
21:06:58:474871,-4,-2,-2,-1,-1,-2,0,-1
21:06:58:479418,-3,0,-2,-3,-1,-1,-1,0
21:06:58:495740,-4,-1,0,-1,-2,-1,0,-1
21:06:58:496508,-4,-1,0,-1,-2,-1,0,-1
21:06:58:497352,-6,-2,0,0,-1,-1,0,-2
21:06:58:518246,-11,-1,0,-1,0,-2,-1,-3
21:06:58:518996,-11,-1,0,-1,0,-2,-1,-3
21:06:58:519847,-8,-3,-2,1,0,-1,-3,-1
21:06:58:524342,-6,-1,-1,-2,0,-2,-1,-3
21:06:58:548930,-6,-1,-1,-2,0,-2,-1,-3
21:06:58:549725,0,-2,-2,-1,-1,-2,0,-2
21:06:58:550470,-6,-1,-2,0,0,-1,-2,-1
21:06:58:551343,-6,-1,-2,0,0,-1,-2,-1
21:06:58:554344,2,0,0,-1,-1,0,-1,0
21:06:58:570507,-12,1,-1,-1,-2,-1,0,-4
21:06:58:571372,-12,1,-1,-1,-2,-1,0,-4
21:06:58:576844,-7,-1,-2,1,0,-1,0,-1
21:06:58:600737,5,-2,0,-1,0,-1,0,1
21:06:58:601467,5,-2,0,-1,0,-1,0,1
21:06:58:602215,0,-1,-2,-1,-2,-1,-2,10
21:06:58:607482,4,0,0,0,0,0,-2,1
21:06:58:608368,4,0,0,0,0,0,-2,1
21:06:58:622381,8,1,0,0,0,-1,5,17
21:06:58:630119,-10,-5,-2,-1,-3,-2,-6,-6
21:06:58:630867,-10,-5,-2,-1,-3,-2,-6,-6
21:06:58:636862,-2,-2,0,-3,-3,-3,-3,1
21:06:58:652640,10,1,0,-1,0,2,4,16
21:06:58:653345,10,1,0,-1,0,2,4,16
21:06:58:659352,-11,1,1,1,-1,-1,0,-9
21:06:58:675503,-3,-5,1,0,-2,-3,-9,-26
21:06:58:682648,-3,-5,1,0,-2,-3,-9,-26
21:06:58:683361,3,-1,-1,1,-1,-2,-3,2
21:06:58:690132,1,-2,3,-3,-3,-2,3,9
21:06:58:690878,1,-2,3,-3,-3,-2,3,9
21:06:58:696934,4,2,-2,-1,2,3,7,0
21:06:58:712534,-9,-4,-5,-1,-5,-2,-7,-55
21:06:58:713356,-9,-4,-5,-1,-5,-2,-7,-55
21:06:58:728251,-10,-6,-4,-2,0,-2,-9,-50
21:06:58:728990,7,0,-4,-1,0,0,9,61
21:06:58:729852,7,0,-4,-1,0,0,9,61
21:06:58:750743,2,0,1,0,-2,-4,-5,-24
21:06:58:751474,2,0,1,0,-2,-4,-5,-24
21:06:58:752361,-13,-1,-2,0,1,-5,-12,-24
21:06:58:756857,31,5,1,0,2,5,29,120
21:06:58:772986,31,5,1,0,2,5,29,120
21:06:58:773728,-25,-7,-5,-3,-13,-17,-32,-68
21:06:58:779380,4,-2,-2,-3,0,6,1,-3
21:06:58:803758,4,-2,-2,-3,0,6,1,-3
21:06:58:804494,4,0,0,1,5,6,11,42
21:06:58:805360,-10,-3,-4,-5,-6,-7,-8,-27
21:06:58:810129,-10,-3,-4,-5,-6,-7,-8,-27
21:06:58:810857,14,2,-1,-1,0,3,12,30
21:06:58:816932,-10,-3,0,-2,0,-1,-8,-12
21:06:58:832619,-10,-3,0,-2,0,-1,-8,-12
21:06:58:833368,1,2,-1,-1,-7,11,-1,7
21:06:58:846880,7,1,1,1,-9,4,5,-1
21:06:58:854990,7,1,1,1,-9,4,5,-1
21:06:58:855852,-3,-1,1,-6,-3,-6,-1,20
21:06:58:861894,-5,1,0,0,-2,-2,-3,-11
21:06:58:878863,-5,1,0,0,-2,-2,-3,-11
21:06:58:879727,9,2,-1,-3,-4,-2,6,10
21:06:58:880483,-2,-3,-2,1,-1,-6,-5,1
21:06:58:900753,-2,-3,-2,1,-1,-6,-5,1
21:06:58:901494,2,-1,-2,-2,3,-1,2,-8
21:06:58:902361,-6,1,0,-4,-9,-6,-8,-15
21:06:58:923247,-6,1,0,-4,-9,-6,-8,-15
21:06:58:923968,4,4,5,9,-12,0,5,4
21:06:58:924841,-2,0,-3,15,5,11,-5,3
21:06:58:931147,-2,0,-3,15,5,11,-5,3
21:06:58:937489,-2,-9,1,0,8,-1,-3,-12
21:06:58:938239,-2,3,-4,-5,3,-5,0,4
21:06:58:952504,-2,3,-4,-5,3,-5,0,4
21:06:58:953368,2,1,6,14,7,2,1,0
21:06:58:959383,-2,-5,-18,-13,2,5,-2,0
21:06:58:975010,-2,-5,-18,-13,2,5,-2,0
21:06:58:975860,-9,-2,-6,-9,-5,-5,0,-11
21:06:58:981898,-4,-4,1,3,0,-4,-2,-4
21:06:58:998274,-4,-4,1,3,0,-4,-2,-4
21:06:58:999028,8,9,-1,-3,4,2,3,-2
21:06:58:999848,-5,-8,-10,-7,-7,-7,-2,-2
21:06:59:12624,-5,-8,-10,-7,-7,-7,-2,-2
21:06:59:13377,-2,-1,-4,-1,1,-1,0,-3
21:06:59:19352,0,1,6,-1,1,7,-1,-11
21:06:59:35108,0,1,6,-1,1,7,-1,-11
21:06:59:35870,2,3,-5,0,-6,-3,-1,0
21:06:59:41883,0,-6,2,-2,1,-7,-2,-1
21:06:59:50138,0,-6,2,-2,1,-7,-2,-1
21:06:59:50849,1,1,4,0,8,4,1,1
21:06:59:56865,-2,-1,1,-2,-3,-5,-3,-3
21:06:59:72642,-2,-1,1,-2,-3,-5,-3,-3
21:06:59:73377,0,-4,-13,-3,-2,-2,-2,1
21:06:59:86881,8,1,-18,-5,0,-1,2,5
21:06:59:94996,8,1,-18,-5,0,-1,2,5
21:06:59:95851,-1,3,0,-2,0,0,-2,-1
21:06:59:101859,-4,-1,9,5,-1,-4,-3,0
21:06:59:110145,-4,-1,9,5,-1,-4,-3,0
21:06:59:110887,8,-2,-3,-3,-10,0,-1,-4
21:06:59:116904,-2,-3,-2,-1,1,-1,-1,-2
21:06:59:132630,-2,-3,-2,-1,1,-1,-1,-2
21:06:59:133394,-5,-7,-17,20,9,-1,-1,-2
21:06:59:139370,-2,-2,6,10,-2,-4,-1,-2
21:06:59:155021,-2,-2,6,10,-2,-4,-1,-2
21:06:59:155851,2,2,-9,-4,-2,0,-1,-3
21:06:59:161872,-3,-2,15,8,4,-2,2,-2
21:06:59:170132,-3,-2,15,8,4,-2,2,-2
21:06:59:170844,-6,-7,-1,-8,-1,-2,-2,0
21:06:59:176880,0,0,1,-2,-3,0,-3,5
21:06:59:192514,0,0,1,-2,-3,0,-3,5
21:06:59:193375,1,1,8,-3,-1,-1,0,0
21:06:59:199357,-5,2,8,2,2,3,2,-2
21:06:59:215011,-5,2,8,2,2,3,2,-2
21:06:59:215877,-5,-7,-1,0,1,-3,-2,-1
21:06:59:221866,-3,-2,8,13,-1,-2,0,-3
21:06:59:230028,-3,-2,8,13,-1,-2,0,-3
21:06:59:230892,0,4,28,-4,1,-1,-1,2
21:06:59:236871,24,11,5,0,-1,-1,-1,3
21:06:59:252486,24,11,5,0,-1,-1,-1,3
21:06:59:253355,5,5,12,4,1,1,0,9
21:06:59:259360,-16,-17,-68,-42,-11,-6,-4,-4
21:06:59:274984,-16,-17,-68,-42,-11,-6,-4,-4
21:06:59:275861,7,-2,-6,-3,-4,-4,-3,-9
21:06:59:281859,4,12,56,3,5,2,1,-1
21:06:59:289975,4,12,56,3,5,2,1,-1
21:06:59:290861,1,-6,-37,-17,-4,-3,-2,-9
21:06:59:296943,-6,9,19,39,-3,-3,-4,-4
21:06:59:312546,-6,9,19,39,-3,-3,-4,-4
21:06:59:313391,-7,2,30,18,0,0,0,4
21:06:59:319385,7,-10,-46,-22,-3,-2,2,7
21:06:59:335005,7,-10,-46,-22,-3,-2,2,7
21:06:59:335865,-15,-5,-9,-3,0,-1,0,-8
21:06:59:341879,-9,9,10,9,0,0,-2,-2
21:06:59:350044,-9,9,10,9,0,0,-2,-2
21:06:59:350845,4,9,21,17,5,4,3,2
21:06:59:356857,-3,22,72,12,2,1,0,-2
21:06:59:372521,-3,22,72,12,2,1,0,-2
21:06:59:373382,-6,-2,7,-6,-2,1,2,0
21:06:59:379398,-2,-7,-18,-8,0,0,1,0
21:06:59:395135,-2,-7,-18,-8,0,0,1,0
21:06:59:395875,-14,-11,0,-10,-7,-5,-4,-8
21:06:59:401855,-3,-9,-21,-8,5,2,1,-3
21:06:59:409989,-3,-9,-21,-8,5,2,1,-3
21:06:59:410859,-2,0,-7,-1,-8,-5,-4,-4
21:06:59:416856,-3,-4,-15,-8,-2,1,-5,-1
21:06:59:432615,-3,-4,-15,-8,-2,1,-5,-1
21:06:59:433429,3,-4,-18,-7,-7,-13,-3,1
21:06:59:439349,-4,-4,0,-7,1,2,2,-2
21:06:59:455129,-4,-4,0,-7,1,2,2,-2
21:06:59:455867,3,-2,-9,-3,4,5,-4,2
21:06:59:461917,-2,-6,-5,-14,2,0,0,-4
21:06:59:470017,-2,-6,-5,-14,2,0,0,-4
21:06:59:470872,2,0,-3,1,5,1,1,0
21:06:59:476872,0,-4,-8,-8,-13,-5,-1,0
21:06:59:492997,0,-4,-8,-8,-13,-5,-1,0
21:06:59:493726,1,1,2,0,1,1,2,0
21:06:59:506917,-1,-4,-6,-1,0,-1,-2,-3
21:06:59:515150,-1,-4,-6,-1,0,-1,-2,-3
21:06:59:515876,0,-1,-3,-3,3,-2,-1,0
21:06:59:521854,-2,-2,-1,1,1,2,2,0
21:06:59:530193,-2,-2,-1,1,1,2,2,0
21:06:59:530917,3,1,-1,-1,-2,1,0,2
21:06:59:544380,0,-3,-4,3,16,4,1,2
21:06:59:552625,0,-3,-4,3,16,4,1,2
21:06:59:553349,-1,-1,-2,-8,-1,2,-3,-1
21:06:59:559366,4,-1,0,-3,-7,2,9,45
21:06:59:575498,4,-1,0,-3,-7,2,9,45
21:06:59:582514,-10,-2,-3,-17,-8,-8,-21,-52
21:06:59:583249,-4,-5,-5,-1,-2,-3,-3,-5
21:06:59:590121,-4,-5,-5,-1,-2,-3,-3,-5
21:06:59:590862,-2,1,-1,5,-3,-1,3,-8
21:06:59:604753,3,-4,-1,-1,-1,-3,1,-12
21:06:59:612532,3,-4,-1,-1,-1,-3,1,-12
21:06:59:613384,1,-1,-1,3,2,2,0,10
21:06:59:619376,-6,4,-1,2,-4,-5,-5,-7
21:06:59:634998,-6,4,-1,2,-4,-5,-5,-7
21:06:59:635848,3,-2,-2,-9,0,-1,3,8
21:06:59:641881,0,4,-2,2,-7,-4,-9,-7
21:06:59:650167,0,4,-2,2,-7,-4,-9,-7
21:06:59:650926,-5,-7,-2,-2,1,2,6,9
21:06:59:664272,28,7,2,1,0,1,2,-4
21:06:59:672494,28,7,2,1,0,1,2,-4
21:06:59:673367,8,-10,-3,-1,-6,-5,-13,-11
21:06:59:679368,-7,-3,-3,-2,-3,-4,-8,-6
21:06:59:686875,-7,-3,-3,-2,-3,-4,-8,-6
21:06:59:694369,-9,8,1,4,-12,-5,-8,9
21:06:59:701887,0,-1,1,5,8,4,-1,-5
21:06:59:710134,0,-1,1,5,8,4,-1,-5
21:06:59:710863,1,0,-1,1,2,-1,6,5
21:06:59:724387,-10,-6,-4,-6,-7,-2,2,-1
21:06:59:732637,-10,-6,-4,-6,-7,-2,2,-1
21:06:59:733362,1,-4,-2,2,-1,2,4,5
21:06:59:739418,-5,1,6,3,3,-1,2,-6
21:06:59:746915,-5,1,6,3,3,-1,2,-6
21:06:59:754383,3,2,-7,-5,-2,-1,3,4
21:06:59:761912,-12,2,-4,-4,-2,-2,-3,-2
21:06:59:770008,-12,2,-4,-4,-2,-2,-3,-2
21:06:59:770892,3,5,3,3,4,4,3,4
21:06:59:784381,-6,-5,0,1,-2,-2,-3,-6
21:06:59:792631,-6,-5,0,1,-2,-2,-3,-6
21:06:59:793375,10,11,3,4,4,4,8,13
21:06:59:799379,-8,-12,-3,0,-2,-3,-8,-9
21:06:59:806869,-8,-12,-3,0,-2,-3,-8,-9
21:06:59:822513,-19,-3,0,1,-1,-2,-1,-3
21:06:59:823365,-10,5,-1,-2,-1,-1,-3,-40
21:06:59:830034,-10,5,-1,-2,-1,-1,-3,-40
21:06:59:830863,-6,-2,-1,0,-3,-4,-6,-15
21:06:59:844404,6,-4,-3,-3,-2,-1,2,13
21:06:59:852652,6,-4,-3,-3,-2,-1,2,13
21:06:59:853374,2,0,3,1,0,2,4,10
21:06:59:859367,13,10,4,0,1,0,8,17
21:06:59:866936,13,10,4,0,1,0,8,17
21:06:59:874374,15,-2,-3,-6,-3,-2,-9,-11
21:06:59:881921,-21,5,1,-1,7,4,7,5
21:06:59:890011,-21,5,1,-1,7,4,7,5
21:06:59:890866,-16,-36,10,-5,-12,-11,-8,-3
21:06:59:904395,-27,-3,-6,-12,-7,-7,-29,-38
21:06:59:912524,-27,-3,-6,-12,-7,-7,-29,-38
21:06:59:913417,-35,5,3,6,-3,0,-7,-58
21:06:59:919391,54,-40,-28,-53,3,2,10,50
21:06:59:926905,54,-40,-28,-53,3,2,10,50
21:06:59:934379,7,-20,32,-3,10,6,12,31
21:06:59:941881,0,-12,-4,24,-7,-2,0,2
21:06:59:950068,0,-12,-4,24,-7,-2,0,2
21:06:59:950885,13,-7,2,30,7,2,3,2
21:06:59:964433,36,4,5,-8,1,-2,-3,-4
21:06:59:972518,36,4,5,-8,1,-2,-3,-4
21:06:59:973373,-6,-28,-35,-1,-2,-1,1,11
21:06:59:979278,-21,8,13,2,-5,-3,-3,-9
21:06:59:986877,-21,8,13,2,-5,-3,-3,-9
21:06:59:994405,20,38,-26,9,3,-1,1,-2
21:07:00:1895,0,-13,-10,-5,1,0,5,8
21:07:00:10022,0,-13,-10,-5,1,0,5,8
21:07:00:10879,-2,7,34,14,-6,-4,1,19
21:07:00:24775,-7,32,12,10,-7,-7,-6,-18
21:07:00:32512,-7,32,12,10,-7,-7,-6,-18
21:07:00:33390,13,7,-18,-10,1,0,-1,-3
21:07:00:39368,19,22,-4,18,-2,-3,2,7
21:07:00:46889,19,22,-4,18,-2,-3,2,7
21:07:00:54382,21,12,-26,-17,-7,-2,1,14
21:07:00:61894,-22,-13,-3,-21,1,1,-2,-3
21:07:00:70130,-22,-13,-3,-21,1,1,-2,-3
21:07:00:70864,-15,-2,14,-10,0,-2,-1,-13
21:07:00:84383,-33,-24,-15,-2,-5,-4,-7,4
21:07:00:100769,-33,-24,-15,-2,-5,-4,-7,4
21:07:00:101496,-1,11,-1,2,5,4,0,-12
21:07:00:102374,1,1,9,11,-2,0,1,3
21:07:00:106867,1,1,9,11,-2,0,1,3
21:07:00:114417,10,-28,-17,-5,4,2,-2,0
21:07:00:121867,3,-1,-3,-5,-2,1,-1,-7
21:07:00:130167,3,-1,-3,-5,-2,1,-1,-7
21:07:00:130881,-12,7,20,-8,-1,-3,0,-1
21:07:00:144398,-18,16,2,3,-1,-1,5,2
21:07:00:152492,-18,16,2,3,-1,-1,5,2
21:07:00:153355,-1,2,8,-2,2,3,0,5
21:07:00:159379,-9,2,6,7,-2,-1,0,2
21:07:00:166915,-9,2,6,7,-2,-1,0,2
21:07:00:174374,-14,3,-4,-4,-1,0,0,-9
21:07:00:181901,13,7,6,6,0,1,7,27
21:07:00:190138,13,7,6,6,0,1,7,27
21:07:00:190894,-3,-2,-4,-6,-4,-5,-9,12
21:07:00:204408,-4,-11,-5,2,5,2,0,-7
21:07:00:212388,-4,-11,-5,2,5,2,0,-7
21:07:00:220005,-3,1,-3,-7,-2,-2,-2,-6
21:07:00:220861,8,-1,-1,-4,-7,-3,1,5
21:07:00:226903,8,-1,-1,-4,-7,-3,1,5
21:07:00:234390,-8,-3,-14,-18,-2,-13,-5,-1
21:07:00:241895,15,-1,1,7,13,-6,-3,-7
21:07:00:250039,15,-1,1,7,13,-6,-3,-7
21:07:00:250877,-16,-6,0,2,-6,8,-4,-5
21:07:00:264385,-2,1,0,-2,-11,-4,-5,2
21:07:00:272506,-2,1,0,-2,-11,-4,-5,2
21:07:00:273360,0,5,1,2,5,6,6,-8
21:07:00:279423,-7,-2,-6,-2,-4,0,-2,-14
21:07:00:286871,-7,-2,-6,-2,-4,0,-2,-14
21:07:00:302507,7,-1,3,10,-2,-5,-2,-3
21:07:00:303377,-14,-12,-7,-3,2,1,-4,-2
21:07:00:310018,-14,-12,-7,-3,2,1,-4,-2
21:07:00:310887,-2,0,-1,-3,-8,-5,0,19
21:07:00:324383,-6,5,1,0,-14,-12,-5,9
21:07:00:332652,-6,5,1,0,-14,-12,-5,9
21:07:00:333408,35,-15,-17,2,11,12,1,1
21:07:00:339363,0,-3,-13,2,0,-2,-1,-9
21:07:00:346936,0,-3,-13,2,0,-2,-1,-9
21:07:00:354378,1,6,-1,2,-9,-7,0,1
21:07:00:361884,1,12,15,-10,8,12,1,-7
21:07:00:370046,1,12,15,-10,8,12,1,-7
21:07:00:370904,9,2,15,4,11,1,3,1
21:07:00:384432,-8,-12,20,5,-1,-4,-17,-6
21:07:00:392523,-8,-12,20,5,-1,-4,-17,-6
21:07:00:393389,-43,48,38,-19,24,13,14,-6
21:07:00:399417,-22,-30,-43,-8,-8,-5,8,-10
21:07:00:406882,-22,-30,-43,-8,-8,-5,8,-10
21:07:00:431406,-37,2,5,38,6,-2,-2,2
21:07:00:432130,-16,9,-20,-43,-7,3,6,2
21:07:00:433019,-16,9,-20,-43,-7,3,6,2
21:07:00:433915,15,-1,18,-2,-14,-9,-6,-4
21:07:00:444369,19,17,4,21,-7,-3,-9,3
21:07:00:452497,19,17,4,21,-7,-3,-9,3
21:07:00:453373,11,5,32,-41,-11,-3,-3,5
21:07:00:459399,-29,-6,27,36,1,-2,-25,-42
21:07:00:466902,-29,-6,27,36,1,-2,-25,-42
21:07:00:474367,0,9,3,15,-15,-5,0,6
21:07:00:481919,-8,-44,12,-24,13,4,6,-2
21:07:00:489385,-8,-44,12,-24,13,4,6,-2
21:07:00:496915,-12,-47,-48,4,-4,-5,-1,-15
21:07:00:504367,30,36,-32,10,17,8,6,0
21:07:00:512539,30,36,-32,10,17,8,6,0
21:07:00:513368,-5,0,-31,-4,-3,-4,-8,-33
21:07:00:527538,40,-9,3,2,-2,-1,-7,5
21:07:00:528411,40,-9,3,2,-2,-1,-7,5
21:07:00:534382,7,27,-5,-7,-1,-4,0,30
21:07:00:541918,-4,23,-8,-16,8,10,8,12
21:07:00:549397,-4,23,-8,-16,8,10,8,12
21:07:00:556884,25,-8,-28,-20,-11,-3,-4,-2
21:07:00:564436,13,11,20,5,-4,-2,6,25
21:07:00:572524,13,11,20,5,-4,-2,6,25
21:07:00:573372,8,-2,37,12,-3,4,2,-6
21:07:00:587501,-3,9,12,-8,-1,-2,3,-1
21:07:00:588388,-3,9,12,-8,-1,-2,3,-1
21:07:00:602509,3,-15,3,-10,2,-4,-1,7
21:07:00:603364,25,-28,-32,30,0,-2,6,6
21:07:00:609395,25,-28,-32,30,0,-2,6,6
21:07:00:616897,5,-31,-58,2,0,0,-3,9
21:07:00:624383,-18,4,6,9,-5,-6,-3,6
21:07:00:632513,-18,4,6,9,-5,-6,-3,6
21:07:00:633427,-3,18,10,-11,6,1,-4,-10
21:07:00:647520,33,-4,-5,7,6,2,2,27
21:07:00:648417,33,-4,-5,7,6,2,2,27
21:07:00:654377,-19,-11,1,4,-3,-5,-7,12
21:07:00:661881,-13,-6,-19,-5,-14,-4,6,4
21:07:00:669422,-13,-6,-19,-5,-14,-4,6,4
21:07:00:676890,-3,5,14,-11,2,5,4,4
21:07:00:684273,-5,4,9,-3,-1,-2,-9,-23
21:07:00:692517,-5,4,9,-3,-1,-2,-9,-23
21:07:00:693403,-13,12,-10,17,-2,-4,-1,-18
21:07:00:707995,-6,0,17,-7,-1,-4,2,4
21:07:00:708880,-6,0,17,-7,-1,-4,2,4
21:07:00:714409,13,-23,12,-7,3,6,1,19
21:07:00:721890,-7,0,-3,3,5,4,-5,-15
21:07:00:729406,-7,0,-3,3,5,4,-5,-15
21:07:00:736891,9,6,-10,11,-10,-4,8,-1
21:07:00:744382,-7,-13,-6,-12,0,3,2,-5
21:07:00:752649,-7,-13,-6,-12,0,3,2,-5
21:07:00:753375,-12,-9,-4,1,4,-10,-10,-17
21:07:00:776160,-14,13,17,13,2,-3,4,-8
21:07:00:776886,-14,13,17,13,2,-3,4,-8
21:07:00:782524,-28,-6,-2,-5,-16,-10,-2,-5
21:07:00:783247,-6,-11,4,7,4,4,-16,-23
21:07:00:789408,-6,-11,4,7,4,4,-16,-23
21:07:00:796886,0,6,6,2,12,7,16,5
21:07:00:804401,-9,5,-4,-15,-9,2,13,32
21:07:00:812527,-9,5,-4,-15,-9,2,13,32
21:07:00:813394,-2,-1,13,-6,14,11,-5,-8
21:07:00:827516,15,-7,-4,-3,-2,-1,2,4
21:07:00:828390,15,-7,-4,-3,-2,-1,2,4
21:07:00:834378,-13,-3,-15,-8,-11,-5,-27,-16
21:07:00:841884,13,0,-4,-5,-22,-22,-12,-4
21:07:00:857503,13,0,-4,-5,-22,-22,-12,-4
21:07:00:858384,-5,1,7,13,12,18,2,0
21:07:00:864285,-42,-18,-9,-16,-5,5,25,-47
21:07:00:872512,-42,-18,-9,-16,-5,5,25,-47
21:07:00:873383,4,0,-7,-18,-14,-12,13,6
21:07:00:887550,-2,1,-3,6,-3,-1,-1,16
21:07:00:888405,-2,1,-3,6,-3,-1,-1,16
21:07:00:894278,49,1,-1,3,-2,-2,-5,7
21:07:00:901762,-10,-1,2,-6,0,-5,-14,-12
21:07:00:909394,-10,-1,2,-6,0,-5,-14,-12
21:07:00:916908,28,11,-15,2,6,-3,23,9
21:07:00:933133,10,-7,-28,-6,10,7,9,1
21:07:00:934011,10,-7,-28,-6,10,7,9,1
21:07:00:934882,-6,8,-17,-18,-3,-6,-12,-4
21:07:00:947503,-3,-12,11,17,8,9,-29,14
21:07:00:948398,-3,-12,11,17,8,9,-29,14
21:07:00:954409,-19,-7,29,11,-9,-8,-37,-32
21:07:00:961915,-1,8,68,43,2,1,-36,-23
21:07:00:969377,-1,8,68,43,2,1,-36,-23
21:07:00:976774,-24,6,51,16,38,14,21,23
21:07:00:984279,-9,-16,-43,-73,-24,-10,36,12
21:07:00:992525,-9,-16,-43,-73,-24,-10,36,12
21:07:00:993398,-10,-21,-52,-23,-24,-11,-28,-12
21:07:01:7538,13,6,50,19,2,0,-11,5
21:07:01:8399,13,6,50,19,2,0,-11,5
21:07:01:22524,-1,-11,-67,-4,-10,9,38,6
21:07:01:23398,-2,8,-27,-14,-10,-12,-52,-15
21:07:01:29421,-2,8,-27,-14,-10,-12,-52,-15
21:07:01:36887,-8,-11,27,19,9,4,5,6
21:07:01:44377,6,8,-4,17,-5,0,9,7
21:07:01:52516,6,8,-4,17,-5,0,9,7
21:07:01:53378,-11,27,17,5,-11,0,0,-5
21:07:01:67005,43,34,-18,-16,-1,-6,6,-16
21:07:01:75043,43,34,-18,-16,-1,-6,6,-16
21:07:01:75890,-55,-26,0,-2,-5,-3,6,0
21:07:01:81953,57,56,16,10,7,16,60,83
21:07:01:89418,57,56,16,10,7,16,60,83
21:07:01:96808,39,24,-18,20,-13,-18,-43,-83
21:07:01:104264,-45,-39,5,17,7,-2,24,14
21:07:01:112611,-45,-39,5,17,7,-2,24,14
21:07:01:113447,-41,-5,10,-1,-4,6,8,29
21:07:01:127545,-31,58,15,2,7,11,13,22
21:07:01:128392,-31,58,15,2,7,11,13,22
21:07:01:134253,11,2,44,-9,-28,-24,-17,-23
21:07:01:141761,5,12,28,-11,-2,-24,-38,14
21:07:01:149405,5,12,28,-11,-2,-24,-38,14
21:07:01:156880,2,29,78,19,22,25,32,28
21:07:01:164410,-64,-37,-30,11,-19,5,-8,-5
21:07:01:172512,-64,-37,-30,11,-19,5,-8,-5
21:07:01:173416,70,-33,-28,20,19,7,-11,36
21:07:01:187525,-16,-34,0,21,10,-4,-12,-36
21:07:01:188381,-16,-34,0,21,10,-4,-12,-36
21:07:01:194389,-13,5,0,-33,-1,3,13,14
21:07:01:210061,-1,9,-24,24,7,6,1,-51
21:07:01:210904,-1,9,-24,24,7,6,1,-51
21:07:01:225009,13,-4,-28,-3,-4,-8,-17,20
21:07:01:225870,-10,-60,-7,-14,4,-6,-2,-29
21:07:01:232514,-10,-60,-7,-14,4,-6,-2,-29
21:07:01:233418,-5,35,-3,-15,5,-5,-4,-5
21:07:01:247566,34,48,12,-13,-4,4,11,7
21:07:01:248404,34,48,12,-13,-4,4,11,7
21:07:01:254256,5,-22,-63,-34,1,-4,-7,-11
21:07:01:261930,-7,-31,-21,-2,26,2,-3,-3
21:07:01:269382,-7,-31,-21,-2,26,2,-3,-3
21:07:01:285021,-17,-14,10,10,-6,-8,-14,-44
21:07:01:285896,-5,14,4,-13,-7,0,2,50
21:07:01:292554,-5,14,4,-13,-7,0,2,50
21:07:01:293390,-18,6,11,17,-4,2,7,-10
21:07:01:307535,-3,10,-5,24,-6,-2,-8,-22
21:07:01:308390,-3,10,-5,24,-6,-2,-8,-22
21:07:01:314432,-9,5,24,-22,6,3,10,-4
21:07:01:321905,-4,-25,-4,-3,-6,-6,2,13
21:07:01:329439,-4,-25,-4,-3,-6,-6,2,13
21:07:01:336777,-16,12,3,41,-6,-6,-14,19
21:07:01:344288,8,-11,0,-23,16,0,0,-33
21:07:01:353020,8,-11,0,-23,16,0,0,-33
21:07:01:359274,-2,-45,5,-1,-9,7,-1,-18
21:07:01:367527,-3,18,21,-12,-19,-5,-4,-13
21:07:01:368391,-3,18,21,-12,-19,-5,-4,-13
21:07:01:374389,43,2,-7,27,12,7,16,36
21:07:01:381905,-23,-49,-35,-74,-4,-6,-33,-24
21:07:01:389411,-23,-49,-35,-74,-4,-6,-33,-24
21:07:01:396891,49,10,14,-27,-15,-5,1,46
21:07:01:413287,48,-24,4,17,-11,-3,13,8
21:07:01:414039,48,-24,4,17,-11,-3,13,8
21:07:01:414889,8,-21,-18,55,-20,-5,4,9
21:07:01:427528,17,25,11,25,2,9,17,13
21:07:01:428378,17,25,11,25,2,9,17,13
21:07:01:434395,-30,-2,-7,-15,-6,-10,-5,-51
21:07:01:450059,13,30,-16,14,5,1,12,26
21:07:01:450886,13,30,-16,14,5,1,12,26
21:07:01:456779,27,-22,-11,-5,-5,-2,-6,-33
21:07:01:464281,29,-21,-8,6,-5,-7,-12,5
21:07:01:471907,29,-21,-8,6,-5,-7,-12,5
21:07:01:488154,-2,9,-19,-37,13,4,7,10
21:07:01:489017,-5,-24,-16,17,3,11,-6,-34
21:07:01:489895,-5,-24,-16,17,3,11,-6,-34
21:07:01:494289,-19,17,7,-13,-6,-5,-7,5
21:07:01:510019,-19,34,14,-15,-7,3,-2,-18
21:07:01:510894,-19,34,14,-15,-7,3,-2,-18
21:07:01:516777,59,13,-20,-21,18,3,9,28
21:07:01:532543,-2,1,-8,27,8,1,5,1
21:07:01:533396,-2,1,-8,27,8,1,5,1
21:07:01:539375,-92,-13,-14,3,-8,-12,-39,-55
21:07:01:547556,47,39,7,-6,-6,-15,-9,12
21:07:01:548446,47,39,7,-6,-6,-15,-9,12
21:07:01:561946,-23,-9,-6,-40,23,8,7,2
21:07:01:578270,-17,27,10,-16,7,4,3,-27
21:07:01:579042,-17,27,10,-16,7,4,3,-27
21:07:01:579912,5,-25,2,26,4,-2,-7,3
21:07:01:584406,-62,-19,0,-18,-18,-14,-12,21
21:07:01:591894,-62,-19,0,-18,-18,-14,-12,21
21:07:01:599393,-15,-16,-3,-10,-22,-6,-1,-11
21:07:01:607533,-14,36,43,-3,-4,4,6,-8
21:07:01:608417,-14,36,43,-3,-4,4,6,-8
21:07:01:614292,20,16,31,29,25,7,4,4
21:07:01:630071,25,-24,-14,-3,0,-1,3,-9
21:07:01:630895,25,-24,-14,-3,0,-1,3,-9
21:07:01:636889,1,-16,-3,-4,-6,-1,-3,-14
21:07:01:644406,-28,-37,12,5,17,8,-4,-13
21:07:01:651891,-28,-37,12,5,17,8,-4,-13
21:07:01:659275,16,5,-26,-25,10,7,10,11
21:07:01:667513,-3,39,-7,-2,-4,1,-13,-49
21:07:01:668380,-3,39,-7,-2,-4,1,-13,-49
21:07:01:674273,10,4,14,8,-27,-7,10,13
21:07:01:690541,19,-21,-14,12,24,-3,15,34
21:07:01:691274,19,-21,-14,12,24,-3,15,34
21:07:01:696790,12,-7,-1,-16,-12,-6,-6,-17
21:07:01:704393,-4,11,19,19,0,1,-1,16
21:07:01:711884,-4,11,19,19,0,1,-1,16
21:07:01:719280,6,8,6,44,13,-4,4,-20
21:07:01:727552,52,15,3,-6,-3,-10,0,40
21:07:01:728414,52,15,3,-6,-3,-10,0,40
21:07:01:734419,-11,31,25,11,-10,3,-1,-8
21:07:01:750060,-7,-16,6,-17,-14,2,1,7
21:07:01:750906,-7,-16,6,-17,-14,2,1,7
21:07:01:756780,8,9,-13,-16,-6,-14,-18,-14
21:07:01:764326,-20,12,-10,-10,15,5,-4,-39
21:07:01:771890,-20,12,-10,-10,15,5,-4,-39
21:07:01:779410,-39,-19,5,-7,8,15,0,20
21:07:01:787556,12,11,26,26,-10,4,12,16
21:07:01:788411,12,11,26,26,-10,4,12,16
21:07:01:794400,29,-1,10,14,-14,-4,2,26
21:07:01:810037,5,-64,-12,-32,1,-6,1,7
21:07:01:810901,5,-64,-12,-32,1,-6,1,7
21:07:01:816972,-2,-9,-16,-6,-2,6,4,-5
21:07:01:824391,-30,-2,-17,-6,-31,-11,-4,-2
21:07:01:831924,-30,-2,-17,-6,-31,-11,-4,-2
21:07:01:839405,15,-9,-25,-30,6,2,-1,13
21:07:01:847570,8,26,-7,-26,0,5,5,4
21:07:01:848404,8,26,-7,-26,0,5,5,4
21:07:01:854390,-47,-29,-14,-25,-5,-12,-26,-49
21:07:01:870039,-6,-37,-20,-23,-10,-1,0,14
21:07:01:870915,-6,-37,-20,-23,-10,-1,0,14
21:07:01:876917,-9,-35,-27,-20,3,-1,-1,-17
21:07:01:884392,-74,0,9,-1,3,-9,-9,-18
21:07:01:891902,-74,0,9,-1,3,-9,-9,-18
21:07:01:899430,-19,-20,6,7,-8,4,11,9
21:07:01:908151,-49,-16,-17,25,9,-7,-1,23
21:07:01:909006,-49,-16,-17,25,9,-7,-1,23
21:07:01:914324,2,31,32,0,2,3,19,29
21:07:01:930021,-28,-7,7,-26,-13,5,-5,-23
21:07:01:930902,-28,-7,7,-26,-13,5,-5,-23
21:07:01:936949,-10,18,-24,25,20,8,7,-1
21:07:01:944429,14,18,24,26,8,7,-3,-16
21:07:01:951923,14,18,24,26,8,7,-3,-16
21:07:01:968179,13,30,22,40,-9,-5,12,-13
21:07:01:969036,34,-25,-38,5,16,7,0,3
21:07:01:969773,34,-25,-38,5,16,7,0,3
21:07:01:974411,32,59,31,-6,-4,0,5,35
21:07:01:990037,15,0,4,-19,-18,-12,-4,18
21:07:01:990892,15,0,4,-19,-18,-12,-4,18
21:07:01:996968,-23,-36,12,21,17,2,0,0
21:07:02:4404,30,4,1,58,23,6,11,23
21:07:02:11919,30,4,1,58,23,6,11,23
21:07:02:19413,32,27,-9,8,-6,1,5,10
21:07:02:27527,15,17,19,11,-19,-7,3,-8
21:07:02:28411,15,17,19,11,-19,-7,3,-8
21:07:02:41914,-34,-70,-10,7,-2,-8,-13,-21
21:07:02:50040,43,31,5,6,-3,-3,-7,-17
21:07:02:50902,43,31,5,6,-3,-3,-7,-17
21:07:02:56914,-9,15,16,22,-29,-11,-9,-11
21:07:02:64410,-19,-63,-15,5,12,1,2,-17
21:07:02:71895,-19,-63,-15,5,12,1,2,-17
21:07:02:79295,-7,8,0,11,-10,-13,-10,23
21:07:02:87537,11,-3,-4,-52,0,-9,-12,-59
21:07:02:88421,11,-3,-4,-52,0,-9,-12,-59
21:07:02:94260,35,37,-10,-41,-15,2,-2,-11
21:07:02:110033,-7,7,-36,-10,-3,7,11,28
21:07:02:110889,-7,7,-36,-10,-3,7,11,28
21:07:02:116818,40,49,-14,-28,8,11,14,21
21:07:02:132539,-42,-49,19,10,2,8,3,12
21:07:02:133412,-42,-49,19,10,2,8,3,12
21:07:02:139274,-1,0,0,2,8,-3,-20,-11
21:07:02:147592,9,33,-7,-21,-5,-5,-8,-22
21:07:02:148397,9,33,-7,-21,-5,-5,-8,-22
21:07:02:154266,8,4,2,-26,2,9,8,-1
21:07:02:170075,-32,-32,-20,17,-21,-6,2,11
21:07:02:170931,-32,-32,-20,17,-21,-6,2,11
21:07:02:176797,-14,-23,-15,20,0,-2,6,11
21:07:02:184288,3,37,15,46,2,-5,-9,-64
21:07:02:191917,3,37,15,46,2,-5,-9,-64
21:07:02:199279,-41,2,14,-15,-6,3,-9,-20
21:07:02:207541,-33,5,-24,3,-8,-13,-11,16
21:07:02:208407,-33,5,-24,3,-8,-13,-11,16
21:07:02:214423,-12,-6,21,-1,22,5,-8,15
21:07:02:230044,-8,12,-34,-30,-12,-7,-6,-17
21:07:02:230898,-8,12,-34,-30,-12,-7,-6,-17
21:07:02:245047,-70,-25,2,-1,8,2,9,-23
21:07:02:245902,24,17,-6,-4,9,15,-18,-71
21:07:02:251896,24,17,-6,-4,9,15,-18,-71
21:07:02:259283,-32,-47,-45,-25,-14,-17,-7,31
21:07:02:267511,8,13,8,-32,0,1,7,26
21:07:02:268400,8,13,8,-32,0,1,7,26
21:07:02:274397,41,17,1,2,-1,0,7,63
21:07:02:290034,57,57,13,-1,13,6,8,51
21:07:02:290910,57,57,13,-1,13,6,8,51
21:07:02:296774,9,26,2,10,-15,-7,13,36
21:07:02:304277,-14,-21,22,24,-25,-13,-20,20
21:07:02:320030,-14,-21,22,24,-25,-13,-20,20
21:07:02:320903,44,-17,17,19,41,-11,15,-49
21:07:02:327537,4,16,2,0,6,3,15,81
21:07:02:328426,4,16,2,0,6,3,15,81
21:07:02:334291,44,-4,-13,-10,-22,-7,-12,37
21:07:02:350082,35,-19,-1,0,13,9,20,-1
21:07:02:350893,35,-19,-1,0,13,9,20,-1
21:07:02:356797,33,-35,-43,0,-7,-6,-9,-46
21:07:02:364284,1,43,-2,1,1,0,3,41
21:07:02:371899,1,43,-2,1,1,0,3,41
21:07:02:379348,-25,11,2,-22,-7,0,-1,1
21:07:02:387559,-66,-40,1,8,-16,2,1,-37
21:07:02:388394,-66,-40,1,8,-16,2,1,-37
21:07:02:410812,-47,-45,7,7,-17,7,6,-18
21:07:02:411546,20,-15,-1,-10,-8,-8,-3,19
21:07:02:412289,20,-15,-1,-10,-8,-8,-3,19
21:07:02:416942,-7,-31,-27,-17,-17,-8,-14,-4
21:07:02:432523,-26,11,0,5,6,-19,-5,-9
21:07:02:433420,-26,11,0,5,6,-19,-5,-9
21:07:02:439412,1,20,-2,-8,0,14,8,15
21:07:02:447549,25,-31,-29,-7,17,8,-14,-1
21:07:02:448398,25,-31,-29,-7,17,8,-14,-1
21:07:02:461954,10,52,12,-25,0,-15,-17,4
21:07:02:470078,2,10,-7,-35,-10,-1,-2,-28
21:07:02:470931,2,10,-7,-35,-10,-1,-2,-28
21:07:02:476927,8,14,19,-20,6,2,-18,-20
21:07:02:492529,-36,-56,-17,-12,-10,-6,2,-48
21:07:02:493422,-36,-56,-17,-12,-10,-6,2,-48
21:07:02:499416,16,68,12,-1,6,14,10,-12
21:07:02:507556,23,-5,18,20,18,4,-5,21
21:07:02:508414,23,-5,18,20,18,4,-5,21
21:07:02:522295,-26,2,10,28,19,3,0,-12
21:07:02:530063,5,28,-9,-9,-9,-2,-3,36
21:07:02:530899,5,28,-9,-9,-9,-2,-3,36
21:07:02:536921,17,-12,-27,-17,24,4,6,46
21:07:02:552548,0,-6,-1,17,9,0,-5,21
21:07:02:553407,0,-6,-1,17,9,0,-5,21
21:07:02:559397,-18,-27,-12,3,-3,3,11,-26
21:07:02:567570,8,-51,4,-13,-29,-1,0,-27
21:07:02:568420,8,-51,4,-13,-29,-1,0,-27
21:07:02:581903,-6,25,9,12,-1,9,10,4
21:07:02:598251,-16,-3,24,-22,-4,1,-1,-13
21:07:02:599058,-16,-3,24,-22,-4,1,-1,-13
21:07:02:599792,-23,-6,-13,-27,9,-4,-8,-61
21:07:02:612567,21,19,14,24,15,11,9,-13
21:07:02:613453,21,19,14,24,15,11,9,-13
21:07:02:619290,74,-44,17,17,-13,-6,-2,18
21:07:02:627543,-30,42,14,3,-8,-3,3,26
21:07:02:628444,-30,42,14,3,-8,-3,3,26
21:07:02:641976,2,4,10,22,-1,1,7,31
21:07:02:650054,-9,13,22,7,-1,-2,-3,-18
21:07:02:650900,-9,13,22,7,-1,-2,-3,-18
21:07:02:656766,-38,-22,-23,-17,-7,-10,-3,-15
21:07:02:672563,-33,-83,-27,19,3,2,1,-30
21:07:02:673531,-33,-83,-27,19,3,2,1,-30
21:07:02:679339,-16,-29,0,5,-12,-4,-8,2
21:07:02:687554,40,65,26,15,-6,1,5,14
21:07:02:688406,40,65,26,15,-6,1,5,14
21:07:02:701931,21,28,4,-16,22,11,12,10
21:07:02:710058,15,-88,-37,-24,6,-10,-25,-40
21:07:02:710907,15,-88,-37,-24,6,-10,-25,-40
21:07:02:716813,-4,6,-10,-1,-18,-12,-12,-7
21:07:02:732554,39,21,-26,-30,-5,-1,-1,13
21:07:02:733439,39,21,-26,-30,-5,-1,-1,13
21:07:02:739418,-46,5,25,16,-12,-8,-13,-19
21:07:02:747566,-15,24,3,-13,17,8,3,4
21:07:02:748417,-15,24,3,-13,17,8,3,4
21:07:02:761973,-3,3,15,56,2,1,-5,-19
21:07:02:770078,-3,3,15,56,2,1,-5,-19
21:07:02:770922,36,32,29,1,-5,-1,7,33
21:07:02:776919,21,6,1,20,0,-1,7,13
21:07:02:800792,21,6,1,20,0,-1,7,13
21:07:02:801551,-9,-21,12,24,-7,-1,-12,4
21:07:02:802402,3,-92,-24,-12,5,3,-6,-9
21:07:02:815135,3,-92,-24,-12,5,3,-6,-9
21:07:02:815906,-30,9,-1,-11,-10,-3,9,16
21:07:02:821815,-2,4,0,30,-8,-1,-12,-19
21:07:02:830058,-2,4,0,30,-8,-1,-12,-19
21:07:02:830920,19,16,-25,-41,29,14,7,-36
21:07:02:836912,-5,31,-25,-16,-3,-5,5,14
21:07:02:852553,-5,31,-25,-16,-3,-5,5,14
21:07:02:853410,-31,-29,-18,13,-8,-9,-9,-29
21:07:02:859280,4,18,9,-18,4,5,5,25
21:07:02:875568,4,18,9,-18,4,5,5,25
21:07:02:876293,-11,-4,3,7,-13,-10,-12,0
21:07:02:881790,75,30,-5,-9,1,3,-1,38
21:07:02:890073,75,30,-5,-9,1,3,-1,38
21:07:02:890907,-44,0,12,-23,-8,-11,-5,46
21:07:02:896785,-38,4,-13,0,-11,-8,0,14
21:07:02:913297,-38,4,-13,0,-11,-8,0,14
21:07:02:914027,23,14,10,23,-12,-1,-2,-14
21:07:02:919279,13,19,-10,-5,4,5,12,24
21:07:02:935034,13,19,-10,-5,4,5,12,24
21:07:02:935930,0,11,-29,14,0,-10,-1,-8
21:07:02:941786,14,57,-8,-86,31,10,2,-21
21:07:02:950048,14,57,-8,-86,31,10,2,-21
21:07:02:950912,-3,30,28,2,-5,3,-6,-27
21:07:02:956791,-14,-29,-1,16,1,-28,-27,57
21:07:02:972575,-14,-29,-1,16,1,-28,-27,57
21:07:02:973411,-8,-2,1,11,-3,0,7,12
21:07:02:979321,-60,-31,-11,14,-10,7,-13,-26
21:07:02:995048,-60,-31,-11,14,-10,7,-13,-26
21:07:02:995785,44,0,25,-1,4,3,2,5
21:07:03:1915,7,-2,11,7,0,3,11,-17
21:07:03:10039,7,-2,11,7,0,3,11,-17
21:07:03:10927,-43,-61,-33,21,3,1,-5,-13
21:07:03:16832,-13,-20,-28,1,-7,-3,1,-47
21:07:03:32558,-13,-20,-28,1,-7,-3,1,-47
21:07:03:33345,45,16,-4,3,1,8,23,33
21:07:03:39425,5,-51,-2,-13,-14,6,17,2
21:07:03:55063,5,-51,-2,-13,-14,6,17,2
21:07:03:55905,-1,-14,-1,-29,6,0,-3,-3
21:07:03:61908,22,52,33,20,2,4,18,8
21:07:03:78299,22,52,33,20,2,4,18,8
21:07:03:79079,56,9,24,4,3,-3,-5,17
21:07:03:79924,18,-10,1,19,-29,-17,-6,23
21:07:03:92541,18,-10,1,19,-29,-17,-6,23
21:07:03:93425,-16,19,-45,-8,17,0,-4,-47
21:07:03:99286,16,-12,20,33,5,1,7,10
21:07:03:115098,16,-12,20,33,5,1,7,10
21:07:03:115936,-27,26,75,-11,-17,3,-1,-5
21:07:03:121785,-35,34,30,8,-9,3,-16,-16
21:07:03:130084,-35,34,30,8,-9,3,-16,-16
21:07:03:130932,-40,-38,-49,32,9,-4,0,19
21:07:03:144314,22,29,25,-13,-9,-5,-9,-18
21:07:03:152530,22,29,25,-13,-9,-5,-9,-18
21:07:03:153413,-2,-9,-6,-13,-7,-9,-11,-37
21:07:03:159285,-23,18,0,17,1,-7,-11,-14
21:07:03:175033,-23,18,0,17,1,-7,-11,-14
21:07:03:175917,-8,48,5,-54,3,6,7,2
21:07:03:181810,12,7,-4,-45,-1,-3,-1,17
21:07:03:190049,12,7,-4,-45,-1,-3,-1,17
21:07:03:190941,-21,19,-9,-1,-1,-10,-13,34
21:07:03:196793,-41,-89,-51,15,0,-8,-19,-39
21:07:03:212554,-41,-89,-51,15,0,-8,-19,-39
21:07:03:213411,-6,-36,-11,7,2,5,-3,-3
21:07:03:219275,49,55,-1,-23,-13,-3,4,21
21:07:03:235088,49,55,-1,-23,-13,-3,4,21
21:07:03:235912,29,-51,-8,22,-5,-3,3,2
21:07:03:241799,17,3,1,-19,14,5,1,-4
21:07:03:250072,17,3,1,-19,14,5,1,-4
21:07:03:250902,-55,-73,-18,-4,-12,-11,1,-20
21:07:03:256841,-12,1,-8,-14,3,4,-6,-32
21:07:03:280807,-12,1,-8,-14,3,4,-6,-32
21:07:03:281579,-29,9,19,23,-6,6,17,21
21:07:03:282438,3,-9,2,-6,1,6,-1,-11
21:07:03:295089,3,-9,2,-6,1,6,-1,-11
21:07:03:295918,23,37,-3,33,-7,3,-6,5
21:07:03:301907,-6,-56,1,14,11,2,9,14
21:07:03:310046,-6,-56,1,14,11,2,9,14
21:07:03:310912,11,22,-2,-27,-3,-3,-4,-22
21:07:03:316945,-13,-17,16,27,-7,-5,11,20
21:07:03:332564,-13,-17,16,27,-7,-5,11,20
21:07:03:333414,12,-21,9,12,-12,-10,-12,-37
21:07:03:339422,3,-25,19,12,-6,-2,-5,-44
21:07:03:355056,3,-25,19,12,-6,-2,-5,-44
21:07:03:355903,35,58,6,-15,7,4,7,21
21:07:03:361816,6,7,-28,-30,8,10,13,22
21:07:03:370548,6,7,-28,-30,8,10,13,22
21:07:03:376946,2,-24,-3,-21,-6,-2,2,46
21:07:03:384307,8,17,0,-7,11,-1,0,8
21:07:03:392558,8,17,0,-7,11,-1,0,8
21:07:03:393330,-36,-41,8,28,20,4,-1,1
21:07:03:399441,8,14,9,6,6,8,18,70
21:07:03:415069,8,14,9,6,6,8,18,70
21:07:03:415915,-20,-33,24,-2,-6,-4,2,10
21:07:03:421959,-24,21,-13,5,-7,-13,-28,-27
21:07:03:430060,-24,21,-13,5,-7,-13,-28,-27
21:07:03:430808,25,21,8,13,22,5,-8,-26
21:07:03:444441,-10,21,11,-22,-10,-5,-7,24
21:07:03:452548,-10,21,11,-22,-10,-5,-7,24
21:07:03:453440,-35,-29,4,-15,-15,0,0,-14
21:07:03:459428,3,3,-4,19,-14,-6,7,-30
21:07:03:466954,3,3,-4,19,-14,-6,7,-30
21:07:03:474422,40,35,-18,30,24,4,-17,-45
21:07:03:481958,-6,-30,-19,-14,-6,9,12,-31
21:07:03:490037,-6,-30,-19,-14,-6,9,12,-31
21:07:03:490899,-6,4,-16,-14,-19,-9,9,25
21:07:03:504429,-3,-40,-17,5,2,-1,-13,-60
21:07:03:513106,-3,-40,-17,5,2,-1,-13,-60
21:07:03:520069,41,5,-2,-9,-9,-4,-11,-39
21:07:03:520782,-26,-2,9,-26,-15,-8,2,-10
21:07:03:526932,-26,-2,9,-26,-15,-8,2,-10
21:07:03:534309,-18,7,4,-15,-10,9,-4,17
21:07:03:541820,-26,-25,-49,-8,6,1,-16,-11
21:07:03:557549,-26,-25,-49,-8,6,1,-16,-11
21:07:03:558425,3,28,12,-8,9,-1,5,20
21:07:03:564425,-13,-6,-18,30,0,4,7,44
21:07:03:572532,-13,-6,-18,30,0,4,7,44
21:07:03:573417,6,-9,-12,-2,-7,-1,2,25
21:07:03:579303,-37,-12,17,-33,-3,-13,-5,-19
21:07:03:586954,-37,-12,17,-33,-3,-13,-5,-19
21:07:03:594306,17,10,0,-4,0,4,-4,-47
21:07:03:601798,8,24,17,8,6,-2,-12,-11
21:07:03:610050,8,24,17,8,6,-2,-12,-11
21:07:03:610918,-7,-58,-5,-22,19,8,15,56
21:07:03:624310,39,-2,10,-3,-4,-7,-7,10
21:07:03:632580,39,-2,10,-3,-4,-7,-7,10
21:07:03:633422,-19,31,-7,25,-4,-4,7,-5
21:07:03:639299,24,50,9,-30,-3,-2,1,6
21:07:03:646988,24,50,9,-30,-3,-2,1,6
21:07:03:654428,66,-10,-18,35,-8,-10,3,-12
21:07:03:661856,-19,8,11,21,5,-6,-11,-2
21:07:03:670046,-19,8,11,21,5,-6,-11,-2
21:07:03:670931,-43,33,-9,-7,-26,-13,-8,4
21:07:03:684321,-9,-4,-31,-6,11,19,-18,-47
21:07:03:692547,-9,-4,-31,-6,11,19,-18,-47
21:07:03:693470,-20,1,-9,-15,-7,6,5,-3
21:07:03:699423,24,19,19,11,-4,-4,11,23
21:07:03:706923,24,19,19,11,-4,-4,11,23
21:07:03:722555,-21,9,-17,0,4,-10,-20,-18
21:07:03:723292,9,4,9,-10,-5,-1,-10,12
21:07:03:730095,9,4,9,-10,-5,-1,-10,12
21:07:03:730991,2,-18,-14,-41,5,5,-1,4
21:07:03:744304,-6,-32,11,27,-2,8,-10,-23
21:07:03:752558,-6,-32,11,27,-2,8,-10,-23
21:07:03:753411,9,-5,-11,13,7,-1,-12,-11
21:07:03:759300,-37,2,-8,-28,-16,-21,26,7
21:07:03:766952,-37,2,-8,-28,-16,-21,26,7
21:07:03:774431,0,-19,-1,2,-4,-3,2,6
21:07:03:781953,-18,-71,-18,2,8,3,7,25
21:07:03:790043,-18,-71,-18,2,8,3,7,25
21:07:03:790805,-20,-8,-13,-7,2,3,-1,14
21:07:03:804302,-1,35,19,27,-4,-3,-5,-26
21:07:03:812571,-1,35,19,27,-4,-3,-5,-26
21:07:03:813440,20,-29,17,-19,2,-1,5,23
21:07:03:819421,6,10,3,8,8,0,-1,31
21:07:03:835053,6,10,3,8,8,0,-1,31
21:07:03:835935,-15,20,-6,20,8,1,1,-7
21:07:03:841931,13,-8,17,-16,16,15,11,28
21:07:03:850082,13,-8,17,-16,16,15,11,28
21:07:03:850778,27,-16,13,-1,1,-5,-9,-20
21:07:03:864343,23,-16,17,28,-14,-6,-9,-39
21:07:03:880834,23,-16,17,28,-14,-6,-9,-39
21:07:03:881556,-3,-15,22,14,-11,-5,2,3
21:07:03:882296,-44,20,-9,-10,-17,-10,-12,-74
21:07:03:886908,-44,20,-9,-10,-17,-10,-12,-74
21:07:03:894433,-20,11,6,3,-2,-3,-6,-32
21:07:03:901810,-13,-37,-12,12,9,0,-2,19
21:07:03:910043,-13,-37,-12,12,9,0,-2,19
21:07:03:910930,-18,43,7,-8,-8,-5,0,6
21:07:03:924301,-14,-19,-9,19,-3,-11,0,-8
21:07:03:932577,-14,-19,-9,19,-3,-11,0,-8
21:07:03:933456,10,3,-8,-30,8,11,9,20
21:07:03:939456,50,65,-25,21,7,4,10,26
21:07:03:946956,50,65,-25,21,7,4,10,26
21:07:03:962577,-17,17,-22,19,-14,-12,-15,-21
21:07:03:963319,6,-39,-3,-36,-5,-1,-1,-18
21:07:03:970059,6,-39,-3,-36,-5,-1,-1,-18
21:07:03:970919,9,-31,-24,-62,-1,0,-1,53
21:07:03:984326,0,-11,5,-28,-1,7,11,27
21:07:03:992942,0,-11,5,-28,-1,7,11,27
21:07:04:78,19,41,10,10,4,5,11,23
21:07:04:792,32,42,30,-7,-7,6,13,33
21:07:04:6918,32,42,30,-7,-7,6,13,33
21:07:04:14463,-19,-44,-2,43,1,-4,-1,6
21:07:04:21953,3,28,-4,-12,-12,-1,-8,4
21:07:04:30057,3,28,-4,-12,-12,-1,-8,4
21:07:04:30791,13,-24,27,-11,12,0,-14,-69
21:07:04:44348,-49,2,-16,-1,-3,2,4,4
21:07:04:52548,-49,2,-16,-1,-3,2,4,4
21:07:04:53420,-17,-25,15,7,-10,4,11,24
21:07:04:59449,11,-71,-34,30,8,-2,4,4
21:07:04:66977,11,-71,-34,30,8,-2,4,4
21:07:04:74438,-12,-15,-27,-8,-10,-5,5,-9
21:07:04:81957,-24,29,-3,42,-28,-13,-16,-60
21:07:04:90054,-24,29,-3,42,-28,-13,-16,-60
21:07:04:90918,16,-8,-11,31,15,4,-6,-14
21:07:04:104427,-1,25,7,-2,-3,-4,-3,71
21:07:04:112566,-1,25,7,-2,-3,-4,-3,71
21:07:04:113310,13,70,8,-4,4,12,15,-12
21:07:04:119416,-33,-98,-11,-14,12,-2,13,36
21:07:04:126926,-33,-98,-11,-14,12,-2,13,36
21:07:04:134304,-31,13,-15,-2,-5,-4,6,28
21:07:04:141802,29,33,14,-46,14,2,-7,2
21:07:04:150105,29,33,14,-46,14,2,-7,2
21:07:04:150914,-4,7,12,12,14,6,1,2
21:07:04:164431,31,40,2,-5,-2,-6,1,-6
21:07:04:172550,31,40,2,-5,-2,-6,1,-6
21:07:04:173424,0,-7,26,14,-9,-7,4,-11
21:07:04:179329,14,27,6,6,14,5,-2,-7
21:07:04:186923,14,27,6,6,14,5,-2,-7
21:07:04:194332,13,20,19,-1,-13,-3,-4,-4
21:07:04:201807,-27,14,29,-11,14,0,-15,-30
21:07:04:210059,-27,14,29,-11,14,0,-15,-30
21:07:04:210939,14,14,30,-32,-7,-5,-6,-4
21:07:04:224305,7,5,-14,-20,-16,-6,-2,11
21:07:04:232551,7,5,-14,-20,-16,-6,-2,11
21:07:04:233455,0,1,-20,-1,0,-9,-11,10
21:07:04:239300,15,12,-3,27,11,1,-4,-4
21:07:04:246948,15,12,-3,27,11,1,-4,-4
21:07:04:254312,3,-5,-13,-50,-11,-7,7,28
21:07:04:261853,-9,-29,-4,-6,-2,-1,-8,5
21:07:04:277627,-9,-29,-4,-6,-2,-1,-8,5
21:07:04:278439,-4,-34,-25,-2,12,1,7,-5
21:07:04:284316,1,-2,-16,-7,19,7,-8,-40
21:07:04:292594,1,-2,-16,-7,19,7,-8,-40
21:07:04:293465,20,-42,-11,-21,-8,-8,-14,-37
21:07:04:307566,-9,-21,-8,-6,5,1,8,3
21:07:04:308427,-9,-21,-8,-6,5,1,8,3
21:07:04:314336,-33,14,-24,10,-11,-6,-9,-20
21:07:04:321832,9,25,-7,-3,-5,6,0,8
21:07:04:329465,9,25,-7,-3,-5,6,0,8
21:07:04:336945,-17,-13,17,-5,0,9,8,2
21:07:04:344352,-71,-31,10,5,-6,2,7,22
21:07:04:352642,-71,-31,10,5,-6,2,7,22
21:07:04:353360,-3,-3,16,12,20,8,-8,-35
21:07:04:367603,60,16,6,-37,-23,-15,-5,-50
21:07:04:368430,60,16,6,-37,-23,-15,-5,-50
21:07:04:374451,-41,-85,-42,-9,-6,-1,-2,27
21:07:04:381824,22,-18,-2,-6,-8,-4,2,-26
21:07:04:389446,22,-18,-2,-6,-8,-4,2,-26
21:07:04:396972,33,33,12,-2,1,7,-3,19
21:07:04:404429,-11,10,-10,-3,-7,0,-2,15
21:07:04:412579,-11,10,-10,-3,-7,0,-2,15
21:07:04:413320,9,8,11,9,-10,-9,-3,12
21:07:04:427564,12,10,9,62,23,0,11,-24
21:07:04:428304,12,10,9,62,23,0,11,-24
21:07:04:434443,10,5,15,6,-5,2,17,12
21:07:04:441925,-23,-2,5,-4,-7,0,3,66
21:07:04:449433,-23,-2,5,-4,-7,0,3,66
21:07:04:456816,8,42,-31,23,16,7,-5,-3
21:07:04:464480,-40,-35,-7,-29,-16,-22,-27,-100
21:07:04:472553,-40,-35,-7,-29,-16,-22,-27,-100
21:07:04:473417,-37,11,30,22,-1,-7,4,-6
21:07:04:487578,9,0,-3,54,17,8,2,53
21:07:04:488436,9,0,-3,54,17,8,2,53
21:07:04:494347,12,25,-4,-23,-2,-6,-21,2
21:07:04:501848,7,0,37,-12,-5,6,1,30
21:07:04:509431,7,0,37,-12,-5,6,1,30
21:07:04:516824,26,30,-5,-27,6,7,7,2
21:07:04:524314,3,16,-4,-18,-3,8,-11,-19
21:07:04:532583,3,16,-4,-18,-3,8,-11,-19
21:07:04:533432,1,-6,-7,16,-8,-2,2,6
21:07:04:555732,-16,4,2,-19,-4,-1,3,-24
21:07:04:556564,-16,4,2,-19,-4,-1,3,-24
21:07:04:557300,-5,-23,15,8,-11,-2,-6,-49
21:07:04:561966,-1,-84,-41,14,5,5,19,62
21:07:04:569447,-1,-84,-41,14,5,5,19,62
21:07:04:576806,-16,7,-2,56,12,-2,0,-3
21:07:04:584323,65,43,-5,38,7,-6,7,-42
21:07:04:592583,65,43,-5,38,7,-6,7,-42
21:07:04:593451,1,29,17,-5,-11,-8,-8,15
21:07:04:607551,20,-9,2,-50,-4,4,7,43
21:07:04:608419,20,-9,2,-50,-4,4,7,43
21:07:04:614315,-2,-8,-18,-23,-4,-4,2,8
21:07:04:621821,-7,-10,-8,4,-2,2,-10,-7
21:07:04:629437,-7,-10,-8,4,-2,2,-10,-7
21:07:04:636815,17,-3,-3,8,-3,4,1,27
21:07:04:644317,-12,-3,13,-1,0,0,-17,-79
21:07:04:652541,-12,-3,13,-1,0,0,-17,-79
21:07:04:653441,5,-32,-17,13,-7,-5,-4,-13
21:07:04:667560,9,-5,-25,14,-2,1,-7,-36
21:07:04:668418,9,-5,-25,14,-2,1,-7,-36
21:07:04:674321,49,61,36,-2,-3,-5,-5,-63
21:07:04:681825,-43,-42,-26,-28,0,5,5,17
21:07:04:689460,-43,-42,-26,-28,0,5,5,17
21:07:04:696847,-35,-67,9,-14,-24,1,-6,12
21:07:04:704329,7,35,8,12,-7,-8,-7,7
21:07:04:712593,7,35,8,12,-7,-8,-7,7
21:07:04:713455,4,18,14,-4,4,4,-2,-1
21:07:04:727603,-16,17,16,-6,-2,-5,-2,17
21:07:04:728460,-16,17,16,-6,-2,-5,-2,17
21:07:04:734320,-32,-31,-23,-4,3,-2,3,38
21:07:04:741823,2,16,38,-3,-11,-9,-7,-5
21:07:04:749455,2,16,38,-3,-11,-9,-7,-5
21:07:04:756941,0,36,16,3,8,5,7,5
21:07:04:764328,-15,-38,6,18,-7,-5,-2,-1
21:07:04:772563,-15,-38,6,18,-7,-5,-2,-1
21:07:04:773316,-44,-15,2,-33,-4,-5,-8,-17
21:07:04:787559,-10,48,14,-7,-2,-6,8,4
21:07:04:788428,-10,48,14,-7,-2,-6,8,4
21:07:04:794449,14,-7,-19,-16,5,1,-8,-36
21:07:04:801947,34,29,-11,-2,3,9,15,15
21:07:04:809444,34,29,-11,-2,3,9,15,15
21:07:04:816943,44,33,5,35,-4,-9,4,13
21:07:04:833216,-18,-12,-5,10,8,2,-16,-3
21:07:04:834057,-18,-12,-5,10,8,2,-16,-3
21:07:04:834820,-2,-1,-6,19,-12,-9,0,-20
21:07:04:847621,8,33,-1,-13,-7,2,14,48
21:07:04:848483,8,33,-1,-13,-7,2,14,48
21:07:04:854442,24,-24,-13,-3,-3,-2,8,1
21:07:04:861820,-12,3,0,2,-11,-14,1,24
21:07:04:869427,-12,3,0,2,-11,-14,1,24
21:07:04:876933,15,-50,-3,-5,8,11,-14,-1
21:07:04:884435,17,14,-10,7,22,15,5,1
21:07:04:892575,17,14,-10,7,22,15,5,1
21:07:04:893320,-10,25,-1,-5,-1,-7,7,8
21:07:04:907944,-7,-12,2,-2,7,-2,-12,-49
21:07:04:908815,-7,-12,2,-2,7,-2,-12,-49
21:07:04:914471,14,7,10,-10,-14,1,-3,-21
21:07:04:921961,-10,4,-6,-5,8,-3,-1,52
21:07:04:929484,-10,4,-6,-5,8,-3,-1,52
21:07:04:936824,-24,-43,-45,-61,1,-14,-8,13
21:07:04:944312,0,-11,12,13,1,-3,-19,-76
21:07:04:952576,0,-11,12,13,1,-3,-19,-76
21:07:04:953427,-32,6,2,2,10,5,4,31
21:07:04:967579,10,9,5,-1,11,10,11,-51
21:07:04:968313,10,9,5,-1,11,10,11,-51
21:07:04:974309,-9,32,24,11,-1,1,14,48
21:07:04:981884,-13,-24,11,12,-23,-8,-7,-9
21:07:04:989465,-13,-24,11,12,-23,-8,-7,-9
21:07:04:996809,-19,-5,9,7,12,4,-2,-29
21:07:05:4307,-10,28,11,14,4,5,21,25
21:07:05:12583,-10,28,11,14,4,5,21,25
21:07:05:13457,12,5,16,-1,5,12,8,37
21:07:05:28091,52,10,-22,-15,-14,-8,-20,-8
21:07:05:28834,52,10,-22,-15,-14,-8,-20,-8
21:07:05:34326,2,-20,-41,5,-6,2,0,-38
21:07:05:41829,-26,-70,-27,-4,-12,-6,1,17
21:07:05:49459,-26,-70,-27,-4,-12,-6,1,17
21:07:05:56803,5,4,-46,33,36,17,17,40
21:07:05:64330,20,0,-13,-8,-8,-10,-26,15
21:07:05:72574,20,0,-13,-8,-8,-10,-26,15
21:07:05:73439,43,39,27,-21,-7,-1,20,-16
21:07:05:87576,-17,3,29,1,9,3,-5,23
21:07:05:88446,-17,3,29,1,9,3,-5,23
21:07:05:94349,-13,14,13,17,-1,-7,-2,-19
21:07:05:101819,3,-26,-26,-6,-13,-5,0,-16
21:07:05:109449,3,-26,-26,-6,-13,-5,0,-16
21:07:05:116891,0,-6,-6,-16,-16,-14,-32,-48
21:07:05:124328,7,6,23,-11,-30,-21,-12,19
21:07:05:132622,7,6,23,-11,-30,-21,-12,19
21:07:05:133341,1,-17,-15,-6,3,2,-3,29
21:07:05:147611,10,-16,-34,-2,19,10,24,26
21:07:05:148457,10,-16,-34,-2,19,10,24,26
21:07:05:154313,-19,-29,7,-60,-15,-4,-8,-7
21:07:05:161979,11,-58,8,13,13,11,19,11
21:07:05:169436,11,-58,8,13,13,11,19,11
21:07:05:185097,19,20,-21,1,8,11,3,-17
21:07:05:185851,-39,-6,14,-58,1,2,6,9
21:07:05:192573,-39,-6,14,-58,1,2,6,9
21:07:05:193349,-18,-1,17,-39,5,-6,-6,19
21:07:05:207620,-13,16,4,26,8,8,-8,3
21:07:05:208462,-13,16,4,26,8,8,-8,3
21:07:05:214317,-7,-15,-21,8,7,5,-2,1
21:07:05:230068,-15,-1,-19,10,4,-2,-11,3
21:07:05:230935,-15,-1,-19,10,4,-2,-11,3
21:07:05:236824,-23,-35,-13,18,-12,-7,6,-2
21:07:05:244326,-24,5,18,-34,-5,-1,6,-7
21:07:05:260077,-24,5,18,-34,-5,-1,6,-7
21:07:05:260941,50,56,38,23,-7,-3,1,21
21:07:05:267557,6,26,30,36,-6,-2,5,50
21:07:05:268447,6,26,30,36,-6,-2,5,50
21:07:05:274337,0,-6,-5,2,-7,-5,-11,-15
21:07:05:290074,0,14,-45,21,18,4,-6,-34
21:07:05:290924,0,14,-45,21,18,4,-6,-34
21:07:05:296822,-31,-38,6,31,5,5,8,-31
21:07:05:304318,-4,9,-25,-25,-11,-6,-9,-109
21:07:05:311953,-4,9,-25,-25,-11,-6,-9,-109
21:07:05:319339,-10,3,24,19,6,-4,3,45
21:07:05:327594,16,-35,-18,7,2,11,13,-4
21:07:05:328314,16,-35,-18,7,2,11,13,-4
21:07:05:334454,-71,17,7,-6,-20,-8,-11,-15
21:07:05:350084,-4,1,-7,-24,9,-11,-2,16
21:07:05:350929,-4,1,-7,-24,9,-11,-2,16
21:07:05:356822,6,-8,20,15,-10,-8,-10,-13
21:07:05:364363,0,23,9,10,-14,1,6,60
21:07:05:371956,0,23,9,10,-14,1,6,60
21:07:05:379447,42,26,-4,-10,-5,-5,-2,44
21:07:05:387576,48,37,30,25,-5,-1,-20,-46
21:07:05:388308,48,37,30,25,-5,-1,-20,-46
21:07:05:394330,-2,-40,-16,-9,-5,-3,-2,-18
21:07:05:410116,-11,-10,16,4,9,1,2,-19
21:07:05:410818,-11,-10,16,4,9,1,2,-19
21:07:05:416969,25,27,5,7,-5,-7,-3,13
21:07:05:424456,-36,-5,-8,-37,-13,-7,-1,-34
21:07:05:431978,-36,-5,-8,-37,-13,-7,-1,-34
21:07:05:439345,-34,-17,-49,-26,-7,2,6,-20
21:07:05:446852,-20,5,14,-10,-10,2,-15,-23
21:07:05:455078,-20,5,14,-10,-10,2,-15,-23
21:07:05:455813,0,23,13,25,-4,-7,-7,30
21:07:05:470087,35,-6,-15,21,0,4,14,0
21:07:05:470819,35,-6,-15,21,0,4,14,0
21:07:05:476815,22,-29,-33,-17,20,13,13,29
21:07:05:484335,6,-29,3,10,-1,4,-2,30
21:07:05:491936,6,-29,3,10,-1,4,-2,30
21:07:05:499328,26,19,11,-10,6,7,6,-48
21:07:05:507561,-5,-35,18,-34,-23,-14,-5,20
21:07:05:508432,-5,-35,18,-34,-23,-14,-5,20
21:07:05:521834,-27,-5,-4,-22,-1,4,5,0
21:07:05:530102,19,44,-20,-31,-2,-1,11,8
21:07:05:530961,19,44,-20,-31,-2,-1,11,8
21:07:05:544977,1,-18,-2,-2,1,-6,-9,-11
21:07:05:545840,-3,6,0,-21,3,3,11,48
21:07:05:551926,-3,6,0,-21,3,3,11,48
21:07:05:559323,-42,-37,14,20,-5,5,-5,0
21:07:05:566860,-58,-56,-32,0,-20,-14,-14,-25
21:07:05:575087,-58,-56,-32,0,-20,-14,-14,-25
21:07:05:575931,5,30,14,-18,14,6,-4,14
21:07:05:590075,-5,5,2,14,6,-3,2,12
21:07:05:590945,-5,5,2,14,6,-3,2,12
21:07:05:596851,-31,-3,5,10,-1,-2,-3,-1
21:07:05:604312,10,35,7,4,14,15,5,-23
21:07:05:612011,10,35,7,4,14,15,5,-23
21:07:05:619337,-6,-22,14,-8,-6,-8,-13,2
21:07:05:627572,-35,-15,14,-57,-2,4,3,-4
21:07:05:628445,-35,-15,14,-57,-2,4,3,-4
21:07:05:634316,25,-5,-16,0,2,1,34,83
21:07:05:650113,-13,-38,-16,18,-10,-5,-10,-6
21:07:05:650938,-13,-38,-16,18,-10,-5,-10,-6
21:07:05:656806,18,23,10,25,-12,-2,-13,-58
21:07:05:664334,18,17,7,14,-5,-3,8,17
21:07:05:671970,18,17,7,14,-5,-3,8,17
21:07:05:679326,44,61,-17,10,13,-1,-10,-48
21:07:05:687583,-21,-10,15,2,0,-10,-20,-35
21:07:05:688319,-21,-10,15,2,0,-10,-20,-35
21:07:05:694464,-1,15,16,8,-8,4,12,16
21:07:05:710075,-1,-85,-16,37,6,-2,-16,-9
21:07:05:710982,-1,-85,-16,37,6,-2,-16,-9
21:07:05:716852,-28,-28,-4,0,-2,-6,-11,-45
21:07:05:724334,-4,10,34,12,-7,4,2,16
21:07:05:731987,-4,10,34,12,-7,4,2,16
21:07:05:739325,6,-77,-22,-21,-6,-7,18,33
21:07:05:746844,-11,52,-19,8,5,5,4,38
21:07:05:755090,-11,52,-19,8,5,5,4,38
21:07:05:755810,27,-40,-29,-8,-5,-5,-22,19
21:07:05:770074,5,-5,8,-9,8,2,2,-22
21:07:05:770808,5,-5,8,-9,8,2,2,-22
21:07:05:776937,4,-16,-26,21,5,3,7,-8
21:07:05:784452,25,40,-4,21,-6,-11,2,8
21:07:05:791954,25,40,-4,21,-6,-11,2,8
21:07:05:799334,-21,-8,-37,-19,-10,-14,-26,-11
21:07:05:815737,29,43,12,1,-8,-8,-4,-12
21:07:05:816620,29,43,12,1,-8,-8,-4,-12
21:07:05:817326,-15,-37,57,16,14,8,2,-10
21:07:05:830139,34,-16,-20,-16,1,10,-4,1
21:07:05:830965,34,-16,-20,-16,1,10,-4,1
21:07:05:836822,2,58,52,-23,-6,-1,-7,-23
21:07:05:844352,8,62,52,-8,8,-2,4,-4
21:07:05:851950,8,62,52,-8,8,-2,4,-4
21:07:05:859344,-6,-17,27,9,12,3,16,19
21:07:05:866873,-9,1,-17,-5,7,9,-13,-33
21:07:05:875087,-9,1,-17,-5,7,9,-13,-33
21:07:05:875838,15,116,24,10,-13,-8,3,-2
21:07:05:890145,-12,-49,-17,-14,-4,-8,5,23
21:07:05:890820,-12,-49,-17,-14,-4,-8,5,23
21:07:05:897002,15,9,-38,-24,-4,5,15,-11
21:07:05:904463,-14,-25,-19,16,-10,-6,-4,50
21:07:05:911955,-14,-25,-19,16,-10,-6,-4,50
21:07:05:919351,-21,-18,-48,-18,-5,7,-15,-64
21:07:05:926833,-45,-20,-6,30,-2,-9,-9,-6
21:07:05:935079,-45,-20,-6,30,-2,-9,-9,-6
21:07:05:935824,8,0,15,15,6,0,-1,3
21:07:05:950162,-16,8,-43,9,8,-4,-13,-73
21:07:05:950857,-16,8,-43,9,8,-4,-13,-73
21:07:05:956820,22,-12,1,2,-16,-5,-3,-26
21:07:05:964326,-9,31,8,-9,2,2,-1,5
21:07:05:971959,-9,31,8,-9,2,2,-1,5
21:07:05:979358,-38,23,-17,46,-8,-9,-18,20
21:07:05:986832,20,-28,-34,-30,-4,-1,4,51
21:07:05:995100,20,-28,-34,-30,-4,-1,4,51
21:07:05:995977,-9,27,3,5,3,0,10,18
21:07:06:10102,3,-37,-36,10,2,3,10,4
21:07:06:10953,3,-37,-36,10,2,3,10,4
21:07:06:16867,-20,12,-1,3,-10,-9,-15,-4
21:07:06:24331,-6,-55,-4,-69,-13,-12,0,0
21:07:06:32012,-6,-55,-4,-69,-13,-12,0,0
21:07:06:39330,-1,7,-3,34,4,3,4,-3
21:07:06:46900,-14,-3,13,19,23,3,9,19
21:07:06:55105,-14,-3,13,19,23,3,9,19
21:07:06:55940,-10,-2,59,-2,6,4,-7,5
21:07:06:70083,-26,23,-5,43,6,2,19,-3
21:07:06:70955,-26,23,-5,43,6,2,19,-3
21:07:06:76856,1,-31,-20,-44,-10,-4,3,6
21:07:06:92600,43,29,36,-21,-4,7,8,-15
21:07:06:93461,43,29,36,-21,-4,7,8,-15
21:07:06:99341,54,-32,-19,9,-1,4,7,34
21:07:06:106827,3,-14,-6,3,13,0,-11,-50
21:07:06:115136,3,-14,-6,3,13,0,-11,-50
21:07:06:115942,-10,20,-10,4,10,-3,-6,-11
21:07:06:130145,-12,23,12,11,-5,-6,-11,17
21:07:06:130969,-12,23,12,11,-5,-6,-11,17
21:07:06:136816,2,-20,23,-1,15,4,14,8
21:07:06:144388,29,23,-22,25,-3,1,-5,11
21:07:06:151969,29,23,-22,25,-3,1,-5,11
21:07:06:159339,20,64,26,-26,0,11,7,-18
21:07:06:166852,25,-8,-1,-30,5,0,4,34
21:07:06:174473,25,-8,-1,-30,5,0,4,34
21:07:06:181861,-16,17,5,-29,0,-7,-6,1
21:07:06:190115,10,-40,-21,0,-6,-12,-20,24
21:07:06:190860,10,-40,-21,0,-6,-12,-20,24
21:07:06:196946,19,-97,-32,-34,7,5,11,43
21:07:06:212589,-10,31,28,-17,-16,-9,4,-18
21:07:06:213453,-10,31,28,-17,-16,-9,4,-18
21:07:06:219323,-32,-13,-19,1,-1,4,-25,-31
21:07:06:226832,-30,-85,-12,-8,-9,-7,-13,-77
21:07:06:234489,-30,-85,-12,-8,-9,-7,-13,-77
21:07:06:241942,-29,24,-16,3,1,-4,-18,-61
21:07:06:250118,-41,1,3,14,9,16,8,-47
21:07:06:250821,-41,1,3,14,9,16,8,-47
21:07:06:264357,-39,-6,-9,26,-11,-12,5,25
21:07:06:272576,28,-3,-8,-22,-6,-5,2,11
21:07:06:273306,28,-3,-8,-22,-6,-5,2,11
21:07:06:279348,-6,-22,-9,-25,-15,-7,3,19
21:07:06:286836,40,15,-4,-31,5,2,-4,37
21:07:06:294471,40,15,-4,-31,5,2,-4,37
21:07:06:301846,19,40,0,4,-6,-7,-2,-8
21:07:06:310100,-30,-21,-27,24,-11,-8,-2,19
21:07:06:310968,-30,-21,-27,24,-11,-8,-2,19
21:07:06:316882,-5,-23,19,22,4,3,3,26
21:07:06:340733,-10,22,5,10,10,7,0,9
21:07:06:341582,-10,22,5,10,10,7,0,9
21:07:06:342337,32,12,-5,-30,-9,1,10,-17
21:07:06:346858,12,60,49,17,-11,-13,-25,-61
21:07:06:354459,12,60,49,17,-11,-13,-25,-61
21:07:06:361867,-58,-91,-29,-7,3,12,13,53
21:07:06:370091,-15,13,-4,17,0,5,21,13
21:07:06:370941,-15,13,-4,17,0,5,21,13
21:07:06:376845,47,23,2,26,-2,-8,-4,-4
21:07:06:392595,-14,-5,-3,22,9,6,7,-4
21:07:06:393320,-14,-5,-3,22,9,6,7,-4
21:07:06:399323,13,-26,26,-18,-10,-7,-10,-15
21:07:06:406840,-33,-14,-12,-7,15,3,4,52
21:07:06:414466,-33,-14,-12,-7,15,3,4,52
21:07:06:421838,-3,1,26,26,3,15,20,-25
21:07:06:430101,22,28,9,-57,-20,-5,-9,-30
21:07:06:430999,22,28,9,-57,-20,-5,-9,-30
21:07:06:436836,-20,-2,8,-26,-9,-6,14,38
21:07:06:452609,15,10,-12,20,-3,-1,-2,-6
21:07:06:453489,15,10,-12,20,-3,-1,-2,-6
21:07:06:459335,-52,-7,-20,3,11,-8,-13,-39
21:07:06:466855,-24,-6,-13,9,-3,2,0,9
21:07:06:474458,-24,-6,-13,9,-3,2,0,9
21:07:06:481853,52,48,-5,-13,33,18,5,-6
21:07:06:490084,-8,-12,16,-6,-6,5,8,-11
21:07:06:490843,-8,-12,16,-6,-6,5,8,-11
21:07:06:496890,6,11,1,-11,-7,-14,-12,47
21:07:06:512599,28,45,23,-1,0,5,5,6
21:07:06:513506,28,45,23,-1,0,5,5,6
21:07:06:519324,-3,0,-9,-7,11,-3,-26,-24
21:07:06:526883,32,-7,-14,-13,3,-3,-2,-6
21:07:06:542603,32,-7,-14,-13,3,-3,-2,-6
21:07:06:543471,-10,-19,-18,19,-6,-10,-19,-71
21:07:06:550129,30,24,-17,6,-4,0,-10,2
21:07:06:550951,30,24,-17,6,-4,0,-10,2
21:07:06:556836,25,20,-22,8,-11,-7,8,13
21:07:06:572585,-5,13,-6,-8,-4,-5,-6,11
21:07:06:573511,-5,13,-6,-8,-4,-5,-6,11
21:07:06:579357,-14,26,4,17,3,-2,17,54
21:07:06:586819,-14,-25,12,-3,-11,-6,4,3
21:07:06:594477,-14,-25,12,-3,-11,-6,4,3
21:07:06:601843,19,17,-42,-30,33,13,7,9
21:07:06:618214,9,-11,30,-32,-9,0,-1,-23
21:07:06:619076,9,-11,30,-32,-9,0,-1,-23
21:07:06:619841,16,8,-31,17,-15,-7,7,15
21:07:06:632595,60,-72,-40,14,9,-4,-25,3
21:07:06:633489,60,-72,-40,14,9,-4,-25,3
21:07:06:639328,-28,-37,22,-23,-27,-14,-25,-45
21:07:06:646850,26,-12,-39,52,25,16,17,19
21:07:06:654457,26,-12,-39,52,25,16,17,19
21:07:06:661853,-52,-20,0,15,-12,-6,-8,2
21:07:06:670099,-36,-3,46,9,2,3,15,24
21:07:06:670964,-36,-3,46,9,2,3,15,24
21:07:06:676839,-13,-32,10,22,-15,-11,-24,22
21:07:06:692604,-11,42,16,-19,-4,-9,4,3
21:07:06:693491,-11,42,16,-19,-4,-9,4,3
21:07:06:699340,2,-5,23,-20,-15,-16,4,45
21:07:06:706830,-16,6,21,6,4,7,4,0
21:07:06:714488,-16,6,21,6,4,7,4,0
21:07:06:721850,-20,-35,2,2,8,12,-10,-7
21:07:06:730134,-16,31,22,-52,-8,-7,-9,13
21:07:06:730822,-16,31,22,-52,-8,-7,-9,13
21:07:06:736956,75,11,-7,4,10,4,4,-12
21:07:06:752620,-10,-25,28,16,8,15,13,-47
21:07:06:753349,-10,-25,28,16,8,15,13,-47
21:07:06:759338,-15,-34,-17,-8,-5,1,-6,-82
21:07:06:775099,-15,-34,-17,-8,-5,1,-6,-82
21:07:06:775963,-2,11,-16,-1,-9,-6,11,8
21:07:06:781848,5,-33,15,4,-4,4,2,24
21:07:06:790081,5,-33,15,4,-4,4,2,24
21:07:06:790840,-41,-27,5,-4,-7,2,1,-40
21:07:06:796894,-13,72,6,19,5,-1,-7,21
21:07:06:820874,-13,72,6,19,5,-1,-7,21
21:07:06:821588,11,-2,-20,5,-1,-5,-11,9
21:07:06:822339,49,49,2,-6,2,0,-3,-37
21:07:06:835087,49,49,2,-6,2,0,-3,-37
21:07:06:835837,27,3,18,35,-5,1,-5,64
21:07:06:841834,-28,-75,-51,-10,9,10,22,33
21:07:06:850110,-28,-75,-51,-10,9,10,22,33
21:07:06:850852,24,23,8,-12,-9,-8,-3,36
21:07:06:856834,-11,-1,4,-18,-6,-2,1,-5
21:07:06:872600,-11,-1,4,-18,-6,-2,1,-5
21:07:06:873340,-2,1,-29,-10,-4,-14,-7,23
21:07:06:879371,-4,34,2,-25,-1,2,7,-88
21:07:06:895097,-4,34,2,-25,-1,2,7,-88
21:07:06:895853,-22,42,-15,3,9,1,-9,-85
21:07:06:901893,-24,-54,-27,24,9,3,7,8
21:07:06:910106,-24,-54,-27,24,9,3,7,8
21:07:06:910837,-31,-28,-37,2,7,2,-5,-8
21:07:06:916872,35,44,21,-29,-1,12,3,-32
21:07:06:932593,35,44,21,-29,-1,12,3,-32
21:07:06:933326,5,-28,6,11,1,-6,-8,51
21:07:06:939348,5,43,17,15,8,2,8,36
21:07:06:955110,5,43,17,15,8,2,8,36
21:07:06:955852,9,38,5,-23,-6,1,-3,-60
21:07:06:961869,-9,-10,18,24,-2,-10,-22,-20
21:07:06:970100,-9,-10,18,24,-2,-10,-22,-20
21:07:06:970853,6,-38,-19,-26,1,3,8,0
21:07:06:976840,4,60,79,-10,-2,2,17,34
21:07:06:992637,4,60,79,-10,-2,2,17,34
21:07:06:993348,-6,-34,-4,1,-17,-8,3,15
21:07:06:999371,13,-4,-9,16,9,-2,-6,-20
21:07:07:15114,13,-4,-9,16,9,-2,-6,-20
21:07:07:15840,-32,6,25,-4,-12,4,6,-20
21:07:07:21854,7,-17,-15,15,-3,-13,-10,52
21:07:07:30097,7,-17,-15,15,-3,-13,-10,52
21:07:07:30826,-22,-20,3,12,-1,-7,-10,-7
21:07:07:36843,-44,23,-10,5,-1,-7,29,-4
21:07:07:52608,-44,23,-10,5,-1,-7,29,-4
21:07:07:53341,-4,-10,7,28,20,6,3,0
21:07:07:59350,-6,14,-9,-29,-21,1,7,-1
21:07:07:75111,-6,14,-9,-29,-21,1,7,-1
21:07:07:75974,-10,-14,5,11,1,-7,-30,-56
21:07:07:81849,32,-21,-15,4,11,11,1,-20
21:07:07:90459,32,-21,-15,4,11,11,1,-20
21:07:07:97608,28,28,-10,11,-1,-6,-1,12
21:07:07:98337,4,6,7,-16,-15,1,4,20
21:07:07:112582,4,6,7,-16,-15,1,4,20
21:07:07:113473,57,12,-53,-22,12,7,11,58
21:07:07:119346,2,-3,0,0,-6,-5,-6,29
21:07:07:135104,2,-3,0,0,-6,-5,-6,29
21:07:07:135974,3,5,46,41,1,4,10,-6
21:07:07:141853,9,-5,23,17,-1,-11,-21,-16
21:07:07:150143,9,-5,23,17,-1,-11,-21,-16
21:07:07:150830,-5,29,5,-15,-14,-3,8,34
21:07:07:164378,38,-2,8,14,13,12,-4,18
21:07:07:172608,38,-2,8,14,13,12,-4,18
21:07:07:173479,-17,-67,-13,-21,-5,-2,-5,-44
21:07:07:179342,8,21,-9,-4,5,6,4,0
21:07:07:195146,8,21,-9,-4,5,6,4,0
21:07:07:195958,-10,11,14,-3,13,5,-4,26
21:07:07:201851,-34,-16,-19,-7,12,-3,-5,-50
21:07:07:210087,-34,-16,-19,-7,12,-3,-5,-50
21:07:07:210959,4,9,12,-1,-2,-3,-2,-3
21:07:07:224336,5,-2,-16,-30,-2,-3,7,49
21:07:07:232597,5,-2,-16,-30,-2,-3,7,49
21:07:07:233489,4,21,-3,-33,-12,0,5,17
21:07:07:239353,-18,-32,-2,-2,-13,-5,-13,-48
21:07:07:255098,-18,-32,-2,-2,-13,-5,-13,-48
21:07:07:255846,2,21,18,-2,19,6,0,-56
21:07:07:261875,16,-7,-9,19,-4,-3,-2,2
21:07:07:270113,16,-7,-9,19,-4,-3,-2,2
21:07:07:270963,-3,19,-33,-20,10,-8,-13,22
21:07:07:284404,-39,-2,-17,-7,-1,3,2,10
21:07:07:292625,-39,-2,-17,-7,-1,3,2,10
21:07:07:293381,-10,-5,-21,7,-9,-1,7,-14
21:07:07:299356,26,-21,3,-12,-5,0,-2,43
21:07:07:315114,26,-21,3,-12,-5,0,-2,43
21:07:07:315836,-16,-3,-10,-4,-17,-9,-4,0
21:07:07:321854,-15,-30,6,-16,9,8,15,-20
21:07:07:330120,-15,-30,6,-16,9,8,15,-20
21:07:07:330973,2,-10,-7,6,7,0,-7,-6
21:07:07:344372,-49,-19,-32,-38,-6,-1,9,-9
21:07:07:352585,-49,-19,-32,-38,-6,-1,9,-9
21:07:07:353329,-5,61,1,13,-8,-3,-1,-17
21:07:07:359350,23,61,33,26,11,5,6,22
21:07:07:375120,23,61,33,26,11,5,6,22
21:07:07:375864,-30,-23,27,-37,13,8,3,4
21:07:07:381854,-17,16,-5,-5,-7,3,-17,33
21:07:07:390126,-17,16,-5,-5,-7,3,-17,33
21:07:07:390849,27,0,-8,24,2,-4,3,22
21:07:07:404352,-76,-60,9,0,2,-1,-14,-18
21:07:07:412620,-76,-60,9,0,2,-1,-14,-18
21:07:07:413375,-3,-23,-13,8,-11,-1,11,20
21:07:07:419339,-19,-23,-23,9,1,-3,1,5
21:07:07:435123,-19,-23,-23,9,1,-3,1,5
21:07:07:435842,-16,-63,-14,-9,-8,-10,-20,35
21:07:07:441861,48,61,0,-6,-27,-7,-5,9
21:07:07:450160,48,61,0,-6,-27,-7,-5,9
21:07:07:450849,-18,-48,-11,2,15,15,-4,6
21:07:07:464400,18,33,-5,-7,-5,-4,7,-4
21:07:07:472579,18,33,-5,-7,-5,-4,7,-4
21:07:07:473331,-5,-34,19,18,3,-4,-13,-56
21:07:07:479400,-17,6,-8,-1,5,-1,4,-30
21:07:07:495141,-17,6,-8,-1,5,-1,4,-30
21:07:07:495857,-24,10,1,17,-8,-8,-8,52
21:07:07:501836,28,25,1,-1,-11,-6,-5,-17
21:07:07:517628,28,25,1,-1,-11,-6,-5,-17
21:07:07:518493,46,52,1,9,-1,4,9,5
21:07:07:524335,-10,-15,1,17,-9,-2,-11,9
21:07:07:532977,-10,-15,1,17,-9,-2,-11,9
21:07:07:540123,10,26,42,-15,-8,-1,11,36
21:07:07:540834,25,22,-5,-9,11,1,-1,3
21:07:07:555122,25,22,-5,-9,11,1,-1,3
21:07:07:555963,-7,16,3,4,-14,-5,3,-29
21:07:07:561857,-11,-54,-14,24,-5,-11,-19,-33
21:07:07:570109,-11,-54,-14,24,-5,-11,-19,-33
21:07:07:570851,-39,-24,-12,-23,3,3,-4,-15
21:07:07:584385,21,18,6,10,0,0,8,-3
21:07:07:592613,21,18,6,10,0,0,8,-3
21:07:07:593481,45,51,-9,-9,-3,-3,-9,-46
21:07:07:599361,-1,-42,33,-18,-11,-15,-5,53
21:07:07:615116,-1,-42,33,-18,-11,-15,-5,53
21:07:07:615847,6,18,-11,-31,-4,-1,5,44
21:07:07:621862,-40,-81,-34,15,12,5,2,3
21:07:07:630111,-40,-81,-34,15,12,5,2,3
21:07:07:630894,5,-14,-19,6,-4,1,11,-5
21:07:07:644366,29,43,19,-29,-2,4,-4,-33
21:07:07:652607,29,43,19,-29,-2,4,-4,-33
21:07:07:653529,-26,-57,-40,-25,0,7,23,-65
21:07:07:659379,13,68,46,23,-14,-14,-11,-1
21:07:07:675104,13,68,46,23,-14,-14,-11,-1
21:07:07:675868,24,-18,-20,7,-1,-5,5,12
21:07:07:681906,21,3,10,19,-6,-4,2,17
21:07:07:690101,21,3,10,19,-6,-4,2,17
21:07:07:691029,-16,-29,0,2,-1,-15,-5,3
21:07:07:713227,-19,-19,-20,-1,5,8,-5,6
21:07:07:714100,-19,-19,-20,-1,5,8,-5,6
21:07:07:714845,-13,2,6,7,1,4,-15,-67
21:07:07:719335,8,12,39,-1,2,4,3,-25
21:07:07:735108,8,12,39,-1,2,4,3,-25
21:07:07:735856,-35,-49,-16,-13,-13,2,9,41
21:07:07:741869,-46,-32,-15,18,11,-2,-6,57
21:07:07:750121,-46,-32,-15,18,11,-2,-6,57
21:07:07:750857,1,22,19,24,-11,-6,-14,-14
21:07:07:764382,16,-12,-12,-29,14,7,13,-14
21:07:07:772592,16,-12,-12,-29,14,7,13,-14
21:07:07:773347,13,14,19,-3,-18,-10,-19,-24
21:07:07:779394,14,-19,-14,-4,10,14,1,-7
21:07:07:795133,14,-19,-14,-4,10,14,1,-7
21:07:07:795865,46,29,-12,-37,0,-6,-6,0
21:07:07:801849,-9,40,-22,-32,-3,-4,1,46
21:07:07:810098,-9,40,-22,-32,-3,-4,1,46
21:07:07:810862,29,-32,-6,-16,0,2,10,20
21:07:07:824349,-3,31,-1,8,-7,-3,-8,27
21:07:07:832615,-3,31,-1,8,-7,-3,-8,27
21:07:07:833368,-7,3,8,-14,7,4,-2,23
21:07:07:839347,48,-25,-10,14,-4,-4,0,-14
21:07:07:855113,48,-25,-10,14,-4,-4,0,-14
21:07:07:855972,7,2,0,5,-4,-4,0,20
21:07:07:870740,-8,-2,15,6,-20,-7,1,-38
21:07:07:871599,-8,-2,15,6,-20,-7,1,-38
21:07:07:872344,20,5,3,24,32,12,5,-2
21:07:07:884379,-32,-24,-9,-3,-6,0,-5,-91
21:07:07:892613,-32,-24,-9,-3,-6,0,-5,-91
21:07:07:893408,-50,-56,15,27,-7,-10,-22,-21
21:07:07:899360,1,-42,-16,-18,-2,2,14,9
21:07:07:915146,1,-42,-16,-18,-2,2,14,9
21:07:07:915840,-5,39,16,-25,-4,-4,-7,17
21:07:07:921842,-47,-22,-13,28,27,6,3,-32
21:07:07:930123,-47,-22,-13,28,27,6,3,-32
21:07:07:930863,-71,-17,9,-4,-14,-3,6,-16
21:07:07:944365,-12,29,24,32,2,1,-6,-22
21:07:07:952595,-12,29,24,32,2,1,-6,-22
21:07:07:953344,9,11,-43,8,-2,0,-3,29
21:07:07:959360,19,-5,-19,-10,11,3,-6,-18
21:07:07:975112,19,-5,-19,-10,11,3,-6,-18
21:07:07:975850,11,-17,5,11,33,18,27,19
21:07:07:981871,14,31,-8,-6,-15,-20,-10,11
21:07:07:990112,14,31,-8,-6,-15,-20,-10,11
21:07:07:990845,-20,24,-6,4,-10,1,0,-26
21:07:08:4342,-8,-12,-22,-32,-2,1,15,48
21:07:08:12651,-8,-12,-22,-32,-2,1,15,48
21:07:08:13333,20,40,-34,31,5,-5,-6,-5
21:07:08:19339,11,21,-3,-7,-4,-7,-17,36
21:07:08:35113,11,21,-3,-7,-4,-7,-17,36
21:07:08:35846,25,-47,-17,5,10,-13,-10,-6
21:07:08:41833,10,35,11,-11,4,10,17,25
21:07:08:50151,10,35,11,-11,4,10,17,25
21:07:08:50866,-58,16,-7,-44,-12,-11,-37,-11
21:07:08:73266,-4,-15,14,5,1,-7,-10,-40
21:07:08:74109,-4,-15,14,5,1,-7,-10,-40
21:07:08:74873,29,8,25,-23,-18,0,7,-33
21:07:08:86866,17,1,17,-3,-17,-9,-10,-21
21:07:08:95132,17,1,17,-3,-17,-9,-10,-21
21:07:08:95866,49,68,46,8,5,10,23,3
21:07:08:101847,-4,-39,-7,57,3,1,-1,-4
21:07:08:109462,-4,-39,-7,57,3,1,-1,-4
21:07:08:116887,4,36,7,-18,-7,-10,5,31
21:07:08:124372,-71,-37,10,-3,6,-3,-27,-70
21:07:08:132616,-71,-37,10,-3,6,-3,-27,-70
21:07:08:133368,-14,1,-3,8,-21,-1,-7,-19
21:07:08:146922,4,-14,18,43,-4,-4,3,29
21:07:08:155120,4,-14,18,43,-4,-4,3,29
21:07:08:155977,3,27,45,12,1,6,16,-35
21:07:08:161873,-3,-37,-2,16,1,2,4,-4
21:07:08:169382,-3,-37,-2,16,1,2,4,-4
21:07:08:176872,-27,-3,14,21,-6,-1,0,1
21:07:08:184355,4,-5,-23,-13,-4,-12,3,-39
21:07:08:192625,4,-5,-23,-13,-4,-12,3,-39
21:07:08:193362,-25,-117,-4,-9,10,5,6,34
21:07:08:206844,-2,29,-10,-45,28,19,-4,-10
21:07:08:215149,-2,29,-10,-45,28,19,-4,-10
21:07:08:215862,31,23,-5,-25,-3,-14,-28,11
21:07:08:221899,39,-14,-22,-23,-15,1,5,7
21:07:08:229474,39,-14,-22,-23,-15,1,5,7
21:07:08:236870,30,-6,-34,-4,12,-1,2,-8
21:07:08:244379,12,27,3,5,-13,-6,0,26
21:07:08:252982,12,27,3,5,-13,-6,0,26
21:07:08:259372,52,-6,-9,19,3,9,10,15
21:07:08:275749,3,23,19,-8,27,11,-3,9
21:07:08:276605,3,23,19,-8,27,11,-3,9
21:07:08:277358,20,-17,-3,7,-4,0,-3,14
21:07:08:281868,8,32,9,-1,-15,-10,-3,7
21:07:08:289482,8,32,9,-1,-15,-10,-3,7
21:07:08:296946,-29,-12,0,-12,25,17,-1,-2
21:07:08:304369,-14,19,4,17,-9,3,20,45
21:07:08:312984,-14,19,4,17,-9,3,20,45
21:07:08:319334,-35,6,18,6,-17,-9,-17,-71
21:07:08:335728,35,-56,4,-4,8,-1,19,-5
21:07:08:336606,35,-56,4,-4,8,-1,19,-5
21:07:08:337341,-28,27,-15,4,25,2,-7,-19
21:07:08:350167,-14,15,16,11,-3,0,7,2
21:07:08:350856,-14,15,16,11,-3,0,7,2
21:07:08:356860,-9,8,18,5,-6,-3,6,13
21:07:08:364368,-60,-35,-27,-23,-13,-3,-17,-78
21:07:08:372616,-60,-35,-27,-23,-13,-3,-17,-78
21:07:08:373361,2,44,6,37,-13,4,15,44
21:07:08:386899,-8,-67,3,-6,4,-7,1,52
21:07:08:395096,-8,-67,3,-6,4,-7,1,52
21:07:08:395839,-54,-21,13,6,3,-5,-20,-44
21:07:08:401861,10,25,-11,-1,-9,-5,-5,-14
21:07:08:409475,10,25,-11,-1,-9,-5,-5,-14
21:07:08:416891,-11,-23,-15,-7,-11,-2,-26,-42
21:07:08:424361,34,60,-18,-28,-2,-2,-3,-9
21:07:08:432618,34,60,-18,-28,-2,-2,-3,-9
21:07:08:433404,5,-75,-17,-23,-8,-6,6,-26
21:07:08:446889,-28,19,12,5,-13,-3,9,29
21:07:08:455114,-28,19,12,5,-13,-3,9,29
21:07:08:455840,50,33,-41,-18,3,-6,15,67
21:07:08:461898,18,-14,-1,-6,3,5,-1,26
21:07:08:469493,18,-14,-1,-6,3,5,-1,26
21:07:08:476875,7,43,17,4,-7,-6,10,-9
21:07:08:484360,-22,48,-14,5,11,7,-19,-28
21:07:08:492624,-22,48,-14,5,11,7,-19,-28
21:07:08:493338,6,14,43,-36,8,2,9,-16
21:07:08:506883,-4,-32,9,-1,-5,-5,-8,-29
21:07:08:515181,-4,-32,9,-1,-5,-5,-8,-29
21:07:08:515975,16,2,-5,-8,-1,5,-4,-5
21:07:08:521880,55,26,33,19,0,-5,-19,-8
21:07:08:529445,55,26,33,19,0,-5,-19,-8
21:07:08:536850,-18,7,-15,10,-10,-7,-9,30
21:07:08:553230,-19,-22,-23,6,-4,-3,-7,-38
21:07:08:553974,-19,-22,-23,6,-4,-3,-7,-38
21:07:08:554847,27,49,10,13,4,5,8,30
21:07:08:566914,46,78,2,-9,-9,-3,16,42
21:07:08:575121,46,78,2,-9,-9,-3,16,42
21:07:08:575882,-34,7,3,6,-12,-12,-41,-38
21:07:08:581875,-22,-18,10,-43,-9,3,16,13
21:07:08:589475,-22,-18,10,-43,-9,3,16,13
21:07:08:596920,27,15,-11,-14,24,12,8,20
21:07:08:604359,7,16,-4,-15,-4,-3,-19,-27
21:07:08:612620,7,16,-4,-15,-4,-3,-19,-27
21:07:08:613420,-20,10,-29,44,7,-3,2,43
21:07:08:626874,-40,-77,-33,46,-1,0,8,-37
21:07:08:635128,-40,-77,-33,46,-1,0,8,-37
21:07:08:635857,-27,-28,25,9,-16,10,13,-49
21:07:08:641863,41,-7,-14,8,8,2,-4,60
21:07:08:649400,41,-7,-14,8,8,2,-4,60
21:07:08:656865,-28,-60,-20,-16,-7,1,-8,-112
21:07:08:664424,-18,-9,-22,-16,-11,-13,-16,-33
21:07:08:672621,-18,-9,-22,-16,-11,-13,-16,-33
21:07:08:673363,-12,-19,-11,2,8,-3,5,23
21:07:08:686869,40,11,21,25,-2,-1,4,27
21:07:08:695139,40,11,21,25,-2,-1,4,27
21:07:08:695883,28,-30,-3,-14,-8,-11,-14,4
21:07:08:701865,-15,65,46,15,2,7,6,63
21:07:08:709481,-15,65,46,15,2,7,6,63
21:07:08:716896,48,-20,-7,3,-21,-8,18,82
21:07:08:724366,7,2,-1,-40,11,17,-6,-20
21:07:08:732628,7,2,-1,-40,11,17,-6,-20
21:07:08:733367,-18,-6,20,-1,10,5,-3,-2
21:07:08:746867,-21,8,17,4,27,7,10,1
21:07:08:755146,-21,8,17,4,27,7,10,1
21:07:08:755869,-44,-15,6,30,7,2,27,-20
21:07:08:761880,-36,-28,19,-14,-20,-10,-26,-42
21:07:08:769493,-36,-28,19,-14,-20,-10,-26,-42
21:07:08:776855,-56,1,-24,-27,-15,-2,6,16
21:07:08:784381,20,-6,-12,3,-9,-1,-3,0
21:07:08:792651,20,-6,-12,3,-9,-1,-3,0
21:07:08:793384,31,26,16,-38,1,4,-7,-28
21:07:08:806859,-43,-8,-22,-22,-21,-10,-9,-50
21:07:08:815138,-43,-8,-22,-22,-21,-10,-9,-50
21:07:08:815864,23,-46,-30,18,3,-12,-26,-12
21:07:08:821868,-50,27,11,2,9,4,12,-20
21:07:08:829512,-50,27,11,2,9,4,12,-20
21:07:08:836886,3,53,24,30,3,-3,-9,-24
21:07:08:844417,45,31,6,8,-3,9,38,101
21:07:08:852656,45,31,6,8,-3,9,38,101
21:07:08:853389,28,43,11,4,-2,5,-10,15
21:07:08:866924,-22,-15,-4,-41,-7,-2,-10,-38
21:07:08:875123,-22,-15,-4,-41,-7,-2,-10,-38
21:07:08:875869,50,26,-21,-20,-11,-7,11,42
21:07:08:881912,12,20,-6,-35,-10,-10,-2,78
21:07:08:889358,12,20,-6,-35,-10,-10,-2,78
21:07:08:896877,11,-18,-40,-18,2,-2,-16,-48
21:07:08:904351,20,19,-7,7,3,-6,-3,-51
21:07:08:912622,20,19,-7,7,3,-6,-3,-51
21:07:08:913360,32,17,21,26,-10,-4,0,-13
21:07:08:926858,6,-19,-8,32,11,-14,-46,-46
21:07:08:935133,6,-19,-8,32,11,-14,-46,-46
21:07:08:935860,-34,-70,-14,-2,10,5,9,31
21:07:08:941851,29,-25,-6,-5,-7,0,5,38
21:07:08:949393,29,-25,-6,-5,-7,0,5,38
21:07:08:956858,-6,14,43,3,-6,9,30,-6
21:07:08:964366,87,9,-10,-17,11,7,13,41
21:07:08:972626,87,9,-10,-17,11,7,13,41
21:07:08:973362,-30,-11,-2,11,0,-4,-6,51
21:07:08:986896,-9,5,17,-1,11,2,7,-14
21:07:08:995176,-9,5,17,-1,11,2,7,-14
21:07:08:995876,-14,36,19,-34,3,8,13,-10
21:07:09:1856,-36,-39,0,12,-20,-7,-12,27
21:07:09:9491,-36,-39,0,12,-20,-7,-12,27
21:07:09:16893,-29,30,-7,-14,4,3,-11,7
21:07:09:24384,-6,-11,-11,-18,-23,-2,17,-40
21:07:09:32016,-6,-11,-11,-18,-23,-2,17,-40
21:07:09:39368,19,63,39,10,1,-2,-4,32
21:07:09:46908,-42,-22,-11,52,26,3,4,-31
21:07:09:55129,-42,-22,-11,52,26,3,4,-31
21:07:09:55846,46,11,-3,-2,-6,-8,-14,-36
21:07:09:70625,-43,-13,-19,-15,21,2,15,23
21:07:09:71364,-43,-13,-19,-15,21,2,15,23
21:07:09:76908,-25,-33,-19,-23,-9,7,5,35
21:07:09:92647,15,23,29,26,-7,5,19,-20
21:07:09:93380,15,23,29,26,-7,5,19,-20
21:07:09:99393,-18,-26,-22,11,-15,-20,-25,-28
21:07:09:106874,4,23,8,50,5,5,14,43
21:07:09:115134,4,23,8,50,5,5,14,43
21:07:09:115881,-32,-29,-10,-44,-1,7,29,64
21:07:09:130122,7,16,0,-21,-21,-14,-12,-1
21:07:09:130874,7,16,0,-21,-21,-14,-12,-1
21:07:09:136870,3,-14,10,-16,30,12,-4,-6
21:07:09:144351,11,-6,-6,-11,4,-8,10,38
21:07:09:151990,11,-6,-6,-11,4,-8,10,38
21:07:09:159384,-4,-8,-15,5,8,-2,2,2
21:07:09:166903,10,-28,-29,-10,-12,-7,-23,3
21:07:09:175128,10,-28,-29,-10,-12,-7,-23,3
21:07:09:175871,9,3,3,48,-5,-10,-13,-2
21:07:09:190156,12,19,-46,-29,-10,3,8,37
21:07:09:190986,12,19,-46,-29,-10,3,8,37
21:07:09:196870,-27,2,-7,27,4,2,-7,-55
21:07:09:204368,-9,-5,26,3,-2,-8,-32,-114
21:07:09:211849,-9,-5,26,3,-2,-8,-32,-114
21:07:09:219366,6,-4,-6,-35,-21,-14,-19,-40
21:07:09:226879,14,-6,-8,5,13,8,9,8
21:07:09:234883,14,-6,-8,5,13,8,9,8
21:07:09:241856,20,-20,-36,-11,-2,4,25,58
21:07:09:250147,-19,-38,10,-1,5,-1,-27,-68
21:07:09:250853,-19,-38,10,-1,5,-1,-27,-68
21:07:09:256867,42,3,-40,-4,-4,4,17,74
21:07:09:264429,0,29,27,2,-6,-5,-31,-6
21:07:09:271972,0,29,27,2,-6,-5,-31,-6
21:07:09:279430,2,50,47,19,-3,-2,6,19
21:07:09:286871,-81,-12,16,10,-11,-2,8,-46
21:07:09:295136,-81,-12,16,10,-11,-2,8,-46
21:07:09:295886,15,-2,15,13,-2,-5,-2,9
21:07:09:310124,5,-28,-11,22,21,7,9,49
21:07:09:310862,5,-28,-11,22,21,7,9,49
21:07:09:316872,-14,-20,34,-10,-6,-4,-3,-59
21:07:09:324365,32,-10,-23,52,8,3,12,23
21:07:09:332065,32,-10,-23,52,8,3,12,23
21:07:09:339379,-1,-12,-6,-5,-9,2,-5,20
21:07:09:346886,-6,32,13,3,-4,5,27,41
21:07:09:355111,-6,32,13,3,-4,5,27,41
21:07:09:355849,-11,2,-24,10,17,9,-15,-51
21:07:09:370142,-6,11,-17,-21,-7,2,2,-16
21:07:09:370862,-6,11,-17,-21,-7,2,2,-16
21:07:09:376870,-36,-49,-16,-29,12,2,1,-52
21:07:09:384374,25,-65,-12,-38,-12,-10,-20,6
21:07:09:392035,25,-65,-12,-38,-12,-10,-20,6
21:07:09:399393,35,48,3,18,-9,-3,-2,32
21:07:09:406860,-15,-34,-26,-55,-17,-3,-25,-107
21:07:09:415135,-15,-34,-26,-55,-17,-3,-25,-107
21:07:09:415856,-7,34,19,-66,-17,-4,9,-10
21:07:09:430016,-7,-35,14,-16,7,21,39,79
21:07:09:430867,-7,-35,14,-16,7,21,39,79
21:07:09:445012,16,-9,3,23,0,0,6,4
21:07:09:445886,-31,-42,-60,-17,-4,-1,8,15
21:07:09:452022,-31,-42,-60,-17,-4,-1,8,15
21:07:09:459400,-47,27,9,-39,17,5,14,45
21:07:09:466915,1,41,1,-28,12,5,-4,-17
21:07:09:475124,1,41,1,-28,12,5,-4,-17
21:07:09:475882,1,-74,-24,28,-6,-2,-3,-19
21:07:09:498015,57,30,11,12,5,-13,-20,-48
21:07:09:498887,57,30,11,12,5,-13,-20,-48
21:07:09:504989,18,-64,-69,-66,11,10,-9,-17
21:07:09:505860,2,-16,8,-28,25,15,13,53
21:07:09:512020,2,-16,8,-28,25,15,13,53
21:07:09:519365,2,30,19,21,-15,-11,-16,-53
21:07:09:526866,-8,-11,-18,4,-16,-15,-30,-14
21:07:09:535112,-8,-11,-18,4,-16,-15,-30,-14
21:07:09:535854,-40,13,39,6,-22,-11,3,26
21:07:09:550149,-55,19,-4,32,13,17,8,-72
21:07:09:550855,-55,19,-4,32,13,17,8,-72
21:07:09:556854,-1,-27,-17,30,-4,-16,-37,-16
21:07:09:572621,8,-10,7,28,0,-6,2,6
21:07:09:573350,8,-10,7,28,0,-6,2,6
21:07:09:579423,-39,42,21,14,18,11,14,31
21:07:09:586896,-9,-19,17,-15,-18,-4,-17,-14
21:07:09:595128,-9,-19,17,-15,-18,-4,-17,-14
21:07:09:595877,63,-13,43,51,-1,-4,-3,94
21:07:09:610123,-20,39,31,-17,-13,-12,2,18
21:07:09:610910,-20,39,31,-17,-13,-12,2,18
21:07:09:616879,-14,-13,-32,27,0,-5,-13,14
21:07:09:624386,-36,-10,-6,-21,-6,-4,-23,-28
21:07:09:632027,-36,-10,-6,-21,-6,-4,-23,-28
21:07:09:639366,-38,-6,9,-30,-16,7,28,-41
21:07:09:646909,40,41,4,29,-6,6,3,41
21:07:09:655123,40,41,4,29,-6,6,3,41
21:07:09:655862,5,48,-4,-23,3,-2,10,17
21:07:09:669996,3,88,57,29,4,-11,19,120
21:07:09:670861,3,88,57,29,4,-11,19,120
21:07:09:684998,0,19,22,13,11,6,2,-40
21:07:09:685872,-6,-32,3,-8,7,0,19,33
21:07:09:691998,-6,-32,3,-8,7,0,19,33
21:07:09:699361,-24,-11,15,9,14,-14,-39,-71
21:07:09:706868,24,10,-15,-59,-7,5,4,-51
21:07:09:715146,24,10,-15,-59,-7,5,4,-51
21:07:09:715869,-47,-96,-30,51,18,-3,6,15
21:07:09:730169,11,-51,-2,9,-16,-18,-12,-24
21:07:09:730872,11,-51,-2,9,-16,-18,-12,-24
21:07:09:736861,-14,5,-29,-46,-42,-3,7,9
21:07:09:744426,-11,-33,-9,-27,-16,-9,-39,-51
21:07:09:751881,-11,-33,-9,-27,-16,-9,-39,-51
21:07:09:759392,32,44,-1,-28,-18,-22,-15,10
21:07:09:775757,-39,-72,-23,14,27,19,9,15
21:07:09:776614,-39,-72,-23,14,27,19,9,15
21:07:09:777379,0,-52,-6,-33,-6,13,12,-43
21:07:09:790505,47,15,-18,-18,-2,-4,-17,0
21:07:09:797631,47,15,-18,-18,-2,-4,-17,0
21:07:09:798372,15,5,-12,-11,60,20,-16,8
21:07:09:804366,-7,14,46,17,-15,4,32,22
21:07:09:812003,-7,14,46,17,-15,4,32,22
21:07:09:819369,-7,-6,4,19,-30,-13,-1,25
21:07:09:826909,-19,-40,-12,-19,-1,9,24,42
21:07:09:835118,-19,-40,-12,-19,-1,9,24,42
21:07:09:835883,0,50,34,10,-5,-6,-14,6
21:07:09:850166,18,20,26,3,-27,-19,-3,39
21:07:09:850866,18,20,26,3,-27,-19,-3,39
21:07:09:856861,-10,45,-5,7,-3,1,-4,-31
21:07:09:864378,-12,15,-10,29,18,3,-6,-20
21:07:09:871893,-12,15,-10,29,18,3,-6,-20
21:07:09:879390,22,-3,51,-5,-9,-4,-6,40
21:07:09:886916,-3,44,-15,-10,32,2,1,55
21:07:09:895898,-3,44,-15,-10,32,2,1,55
21:07:09:896639,-41,-69,-33,17,-13,-7,-7,-96
21:07:09:910020,-4,10,15,47,12,6,7,7
21:07:09:910887,-4,10,15,47,12,6,7,7
21:07:09:916909,50,-29,-17,-4,3,-4,-4,15
21:07:09:924383,1,37,-5,29,-32,-9,4,-18
21:07:09:931918,1,37,-5,29,-32,-9,4,-18
21:07:09:939394,104,47,32,44,32,19,6,1
21:07:09:946894,6,-19,8,-10,4,3,6,-69
21:07:09:955149,6,-19,8,-10,4,3,6,-69
21:07:09:955872,18,42,-10,11,-2,7,30,41
21:07:09:970139,11,-52,63,2,-2,-8,-1,20
21:07:09:970868,11,-52,63,2,-2,-8,-1,20
21:07:09:976878,15,28,-7,-27,0,9,-8,-50
21:07:09:992655,15,6,-67,-27,24,8,-2,28
21:07:09:993377,15,6,-67,-27,24,8,-2,28
21:07:09:999385,5,24,1,8,-9,-4,16,22
21:07:10:6879,-34,-25,-32,-46,-17,-22,-53,-69
21:07:10:14407,-34,-25,-32,-46,-17,-22,-53,-69
21:07:10:21871,-91,-63,-66,26,29,4,6,55
21:07:10:30153,-3,-44,-30,11,-7,-2,3,-13
21:07:10:30860,-3,-44,-30,11,-7,-2,3,-13
21:07:10:36861,2,21,7,6,-16,-14,-18,-78
21:07:10:53005,-26,29,25,13,8,6,-5,22
21:07:10:53873,-26,29,25,13,8,6,-5,22
21:07:10:59370,-7,5,0,-5,-3,5,7,9
21:07:10:66906,57,-37,36,-7,8,-4,-15,0
21:07:10:74504,57,-37,36,-7,8,-4,-15,0
21:07:10:81924,-14,-50,-20,-14,34,-2,2,28
21:07:10:90118,-2,47,2,-1,-10,-8,2,-11
21:07:10:90891,-2,47,2,-1,-10,-8,2,-11
21:07:10:96884,30,-35,17,-1,-21,-4,8,32
21:07:10:112653,58,92,1,10,4,1,-9,-40
21:07:10:113367,58,92,1,10,4,1,-9,-40
21:07:10:119379,-14,14,18,-14,-11,-8,-35,-92
21:07:10:126892,37,20,-15,-19,2,0,33,40
21:07:10:134504,37,20,-15,-19,2,0,33,40
21:07:10:141882,-29,-38,8,-15,-1,-1,-12,-5
21:07:10:150015,-12,-16,7,49,1,3,8,40
21:07:10:150887,-12,-16,7,49,1,3,8,40
21:07:10:156865,47,2,7,19,25,15,38,98
21:07:10:172640,-86,-64,-16,-11,-24,-9,-14,-71
21:07:10:173375,-86,-64,-16,-11,-24,-9,-14,-71
21:07:10:179427,-29,-27,-11,18,-13,-4,-28,-75
21:07:10:186914,-26,-19,-12,-3,-2,-8,-29,-4
21:07:10:194557,-26,-19,-12,-3,-2,-8,-29,-4
21:07:10:201885,-11,25,-24,20,14,6,3,11
21:07:10:210005,40,-52,-26,-29,2,4,5,-3
21:07:10:210873,40,-52,-26,-29,2,4,5,-3
21:07:10:216909,17,-22,-9,15,6,-3,16,75
21:07:10:232513,-51,16,12,2,10,6,-13,-72
21:07:10:233407,-51,16,12,2,10,6,-13,-72
21:07:10:239377,-7,20,1,-32,-41,-14,5,-14
21:07:10:246907,37,42,-26,2,-5,6,19,39
21:07:10:254381,37,42,-26,2,-5,6,19,39
21:07:10:261909,-10,0,3,-29,-28,-7,-6,-43
21:07:10:270128,3,49,14,12,-10,-4,2,-52
21:07:10:270891,3,49,14,12,-10,-4,2,-52
21:07:10:276889,-20,-47,-21,-17,19,14,22,94
21:07:10:292512,-1,1,5,7,-1,3,3,26
21:07:10:293392,-1,1,5,7,-1,3,3,26
21:07:10:299402,-10,-17,-2,-31,28,13,0,-40
21:07:10:306871,-19,38,4,-20,-33,-15,3,-27
21:07:10:314404,-19,38,4,-20,-33,-15,3,-27
21:07:10:330769,-14,13,-24,-16,-34,-19,-45,-110
21:07:10:331526,24,-38,11,-4,-10,7,19,62
21:07:10:332388,24,-38,11,-4,-10,7,19,62
21:07:10:336881,-49,-52,-5,-35,-36,-18,-6,-23
21:07:10:352506,39,45,0,57,44,15,15,103
21:07:10:353374,39,45,0,57,44,15,15,103
21:07:10:359404,8,59,20,8,-2,-2,-5,16
21:07:10:366899,-9,-13,-12,-12,7,-2,13,26
21:07:10:374398,-9,-13,-12,-12,7,-2,13,26
21:07:10:381908,10,15,18,10,2,0,7,7
21:07:10:390137,-59,-87,-55,-5,-2,-1,16,29
21:07:10:390862,-59,-87,-55,-5,-2,-1,16,29
21:07:10:396902,30,40,31,-4,12,2,6,14
21:07:10:412667,-5,26,38,-22,-3,6,-6,-25
21:07:10:413376,-5,26,38,-22,-3,6,-6,-25
21:07:10:419386,27,-18,-9,28,-7,0,9,8
21:07:10:426918,-16,15,-23,-14,-14,-13,-32,-34
21:07:10:434449,-16,15,-23,-14,-14,-13,-32,-34
21:07:10:441890,36,-20,-21,-31,-5,-28,4,33
21:07:10:450177,-3,-1,12,9,3,9,-19,-37
21:07:10:450866,-3,-1,12,9,3,9,-19,-37
21:07:10:456884,12,-18,-7,-17,19,10,-12,-13
21:07:10:472646,2,-3,18,-11,-3,-11,10,47
21:07:10:473401,2,-3,18,-11,-3,-11,10,47
21:07:10:479435,-63,-4,4,7,-15,-6,-8,-19
21:07:10:486866,20,22,13,21,-4,-9,-25,22
21:07:10:494527,20,22,13,21,-4,-9,-25,22
21:07:10:501909,-33,38,18,-22,5,10,0,29
21:07:10:510023,-86,-70,-62,36,-12,-3,5,-11
21:07:10:510897,-86,-70,-62,36,-12,-3,5,-11
21:07:10:516919,-13,-8,-2,-10,-19,-10,10,55
21:07:10:533316,1,40,35,-10,-16,-6,-21,-30
21:07:10:534125,1,40,35,-10,-16,-6,-21,-30
21:07:10:539411,-22,35,-13,-2,20,9,-2,33
21:07:10:546915,19,61,10,-1,8,3,5,-41
21:07:10:554540,19,61,10,-1,8,3,5,-41
21:07:10:561884,35,22,4,35,-11,-1,7,29
21:07:10:570009,40,0,32,-40,15,1,9,-35
21:07:10:570901,40,0,32,-40,15,1,9,-35
21:07:10:576894,35,39,-8,-2,18,11,1,-10
21:07:10:592504,-3,-46,-1,-34,-10,0,0,-30
21:07:10:593369,-3,-46,-1,-34,-10,0,0,-30
21:07:10:599397,42,25,2,-5,17,3,-8,-53
21:07:10:606890,23,27,6,7,8,-16,-23,17
21:07:10:614397,23,27,6,7,8,-16,-23,17
21:07:10:621898,38,-41,17,80,19,5,-15,-9
21:07:10:630178,29,-6,-11,10,-20,-7,-5,5
21:07:10:630904,29,-6,-11,10,-20,-7,-5,5
21:07:10:636871,-16,-12,41,7,-28,-2,5,-46
21:07:10:652539,7,-23,-12,17,1,2,19,36
21:07:10:653384,7,-23,-12,17,1,2,19,36
21:07:10:659392,20,31,-34,15,-7,-3,-12,-67
21:07:10:666932,-19,-18,-9,-4,2,6,30,63
21:07:10:674400,-19,-18,-9,-4,2,6,30,63
21:07:10:681928,-22,6,1,-19,-10,-16,5,26
21:07:10:690127,-31,2,-7,-34,18,12,3,0
21:07:10:690871,-31,2,-7,-34,18,12,3,0
21:07:10:696900,-27,-37,-66,-28,-24,-14,-29,-25
21:07:10:712716,24,36,20,9,10,13,11,-8
21:07:10:713440,24,36,20,9,10,13,11,-8
21:07:10:719388,99,3,-18,-71,10,0,38,125
21:07:10:726897,-63,-6,7,22,-2,11,-15,-38
21:07:10:734522,-63,-6,7,22,-2,11,-15,-38
21:07:10:741911,-39,46,21,26,22,19,29,1
21:07:10:750163,-24,-12,-12,-57,-35,-14,-24,-35
21:07:10:750881,-24,-12,-12,-57,-35,-14,-24,-35
21:07:10:756886,20,3,22,9,9,-12,-17,-22
21:07:10:772651,20,3,22,9,9,-12,-17,-22
21:07:10:773453,34,-25,-3,-3,4,3,15,37
21:07:10:779444,-62,-42,16,-25,-10,2,-21,-70
21:07:10:795170,-62,-42,16,-25,-10,2,-21,-70
21:07:10:795907,24,-19,-10,-5,7,-4,-6,15
21:07:10:801895,-14,21,-3,19,-6,9,2,-24
21:07:10:809888,-14,21,-3,19,-6,9,2,-24
21:07:10:817496,-28,-60,-55,42,6,-7,-20,-65
21:07:10:818367,-4,-6,-44,-9,-2,-1,-6,-34
21:07:10:832665,-4,-6,-44,-9,-2,-1,-6,-34
21:07:10:833396,1,-74,-55,-23,28,8,11,30
21:07:10:839391,-23,3,6,14,-12,-6,7,-4
21:07:10:855162,-23,3,6,14,-12,-6,7,-4
21:07:10:855880,23,20,59,9,-4,-7,-18,35
21:07:10:861929,-6,44,26,-11,25,18,5,-6
21:07:10:870136,-6,44,26,-11,25,18,5,-6
21:07:10:870874,-10,12,13,-17,-18,-6,-2,-30
21:07:10:876888,8,-2,17,55,-26,-20,-24,10
21:07:10:892653,8,-2,17,55,-26,-20,-24,10
21:07:10:893420,5,30,8,33,-3,14,9,-29
21:07:10:899419,11,13,-13,5,1,14,26,44
21:07:10:915193,11,13,-13,5,1,14,26,44
21:07:10:915875,-5,15,-7,-40,-16,-1,4,13
21:07:10:921898,18,-21,0,-24,14,4,16,81
21:07:10:930200,18,-21,0,-24,14,4,16,81
21:07:10:930894,52,53,-3,9,6,-5,-39,-63
21:07:10:944400,-17,-25,-3,-13,5,-4,1,8
21:07:10:952647,-17,-25,-3,-13,5,-4,1,8
21:07:10:953374,10,12,30,7,-6,-12,0,-13
21:07:10:959386,-2,-30,-11,24,-5,-15,-12,1
21:07:10:975141,-2,-30,-11,24,-5,-15,-12,1
21:07:10:975864,-40,33,6,-8,17,4,43,114
21:07:10:981950,-44,10,11,53,-14,-8,-25,-79
21:07:10:990130,-44,10,11,53,-14,-8,-25,-79
21:07:10:990902,-23,-24,2,18,-3,2,11,9
21:07:11:4389,-2,18,27,-10,4,7,13,44
21:07:11:12644,-2,18,27,-10,4,7,13,44
21:07:11:13388,-29,-18,0,-4,-3,-11,-17,-21
21:07:11:19387,25,-16,-4,0,-1,4,9,-8
21:07:11:35052,25,-16,-4,0,-1,4,9,-8
21:07:11:35891,77,7,-11,13,-2,10,2,-55
21:07:11:41892,-40,-48,-37,-9,14,12,-2,-10
21:07:11:50179,-40,-48,-37,-9,14,12,-2,-10
21:07:11:50892,-18,18,-19,35,-5,-7,8,45
21:07:11:64439,53,75,23,26,-8,2,11,58
21:07:11:72661,53,75,23,26,-8,2,11,58
21:07:11:73402,7,15,-13,10,2,-1,-25,-45
21:07:11:79411,-54,-35,-16,-43,-10,-10,-9,-35
21:07:11:95161,-54,-35,-16,-43,-10,-10,-9,-35
21:07:11:95902,20,4,-11,38,8,6,3,68
21:07:11:101895,-1,0,-16,-39,-17,-15,-20,-11
21:07:11:110133,-1,0,-16,-39,-17,-15,-20,-11
21:07:11:110886,-14,-47,20,39,14,6,6,15
21:07:11:124395,-3,0,15,70,20,2,3,1
21:07:11:132655,-3,0,15,70,20,2,3,1
21:07:11:133395,15,17,-32,-6,-13,-7,17,24
21:07:11:139390,6,-23,-6,4,-5,-2,4,5
21:07:11:155791,6,-23,-6,4,-5,-2,4,5
21:07:11:156503,-46,-63,1,-30,0,-1,4,67
21:07:11:161902,25,5,45,15,3,3,-10,-63
21:07:11:170024,25,5,45,15,3,3,-10,-63
21:07:11:170887,-22,14,33,-8,4,-19,-9,-15
21:07:11:184401,-37,-36,53,-42,-12,1,-9,-19
21:07:11:193012,-37,-36,53,-42,-12,1,-9,-19
21:07:11:200064,-27,-3,8,-18,-5,-4,-4,-61
21:07:11:200879,53,64,0,-45,-19,-10,-7,28
21:07:11:215173,53,64,0,-45,-19,-10,-7,28
21:07:11:215896,8,8,23,-28,6,9,10,3
21:07:11:221907,-2,-20,-9,-7,-8,2,6,-41
21:07:11:230176,-2,-20,-9,-7,-8,2,6,-41
21:07:11:230912,-26,-32,-19,2,-5,-7,-17,-11
21:07:11:244381,39,49,13,-15,12,5,7,14
21:07:11:252674,39,49,13,-15,12,5,7,14
21:07:11:253389,-14,-32,12,-17,6,-2,-10,-70
21:07:11:259396,-42,-70,-45,45,35,7,-9,42
21:07:11:275158,-42,-70,-45,45,35,7,-9,42
21:07:11:275917,100,14,-4,-32,-10,-3,8,18
21:07:11:281914,-27,-9,-5,-4,-1,4,26,15
21:07:11:290129,-27,-9,-5,-4,-1,4,26,15
21:07:11:290881,-23,-11,-14,33,14,11,-3,-81
21:07:11:304420,-29,-9,-12,25,10,10,15,14
21:07:11:312705,-29,-9,-12,25,10,10,15,14
21:07:11:313408,-52,-28,12,9,-8,8,-5,12
21:07:11:319393,3,43,-25,-36,-12,-3,-2,16
21:07:11:335161,3,43,-25,-36,-12,-3,-2,16
21:07:11:335913,16,22,35,-58,8,9,14,15
21:07:11:341886,15,14,31,8,-27,-15,-18,-55
21:07:11:350342,15,14,31,8,-27,-15,-18,-55
21:07:11:350903,41,4,-11,-19,-20,1,5,-27
21:07:11:364429,8,-20,-22,-10,2,-11,-5,-17
21:07:11:372653,8,-20,-22,-10,2,-11,-5,-17
21:07:11:373398,3,41,-3,19,3,-9,-31,-98
21:07:11:379431,8,-10,-13,17,-23,-5,-2,44
21:07:11:395161,8,-10,-13,17,-23,-5,-2,44
21:07:11:395928,10,45,-17,80,-2,-16,2,70
21:07:11:401882,-8,4,6,-17,12,13,4,24
21:07:11:410159,-8,4,6,-17,12,13,4,24
21:07:11:410879,24,23,4,9,-17,-10,-4,-25
21:07:11:424395,71,-1,12,-2,9,5,12,13
21:07:11:440798,71,-1,12,-2,9,5,12,13
21:07:11:441519,-13,-13,-18,-11,-4,-18,-20,41
21:07:11:442387,-73,-88,-3,-23,-17,-12,-18,-34
21:07:11:455146,-73,-88,-3,-23,-17,-12,-18,-34
21:07:11:455895,-16,-20,-10,28,42,14,1,30
21:07:11:461905,31,41,19,32,0,0,-4,5
21:07:11:470024,31,41,19,32,0,0,-4,5
21:07:11:470877,11,21,-17,-55,-6,-2,10,12
21:07:11:484423,-35,-8,-18,0,-11,-2,-1,-14
21:07:11:492635,-35,-8,-18,0,-11,-2,-1,-14
21:07:11:493387,13,14,-9,-9,-8,-1,-3,-43
21:07:11:499404,-31,-55,-10,3,22,-1,-41,-118
21:07:11:515196,-31,-55,-10,3,22,-1,-41,-118
21:07:11:515902,-37,-43,-8,12,-4,3,8,32
21:07:11:521907,68,28,-11,-29,2,-15,1,50
21:07:11:530165,68,28,-11,-29,2,-15,1,50
21:07:11:530900,21,-73,-4,-9,-18,-9,-2,-35
21:07:11:544415,1,10,-3,-7,-3,14,2,-42
21:07:11:552646,1,10,-3,-7,-3,14,2,-42
21:07:11:553405,8,96,12,56,11,5,14,-16
21:07:11:559409,-23,-37,-33,44,7,-1,-5,11
21:07:11:575169,-23,-37,-33,44,7,-1,-5,11
21:07:11:575901,-25,9,0,-5,-7,-6,-13,-9
21:07:11:581930,31,103,29,-2,-3,-9,-7,82
21:07:11:590133,31,103,29,-2,-3,-9,-7,82
21:07:11:590898,-2,-21,7,-14,14,5,3,22
21:07:11:604424,-12,-13,9,-59,-16,-7,13,28
21:07:11:612684,-12,-13,9,-59,-16,-7,13,28
21:07:11:613382,18,4,10,-76,20,-8,-14,-54
21:07:11:619387,14,-5,-6,8,19,8,1,-60
21:07:11:635537,14,-5,-6,8,19,8,1,-60
21:07:11:642541,-1,19,-26,13,-16,-4,-2,7
21:07:11:643422,-33,-55,-35,1,-19,-9,9,15
21:07:11:650203,-33,-55,-35,1,-19,-9,9,15
21:07:11:650888,-14,-35,-22,-32,9,9,0,0
21:07:11:664416,1,56,25,90,34,7,0,1
21:07:11:672652,1,56,25,90,34,7,0,1
21:07:11:673398,-20,-23,11,-19,-17,15,10,36
21:07:11:679404,-5,-20,6,-17,-5,-5,-3,-87
21:07:11:695177,-5,-20,6,-17,-5,-5,-3,-87
21:07:11:695909,-10,-67,-36,1,20,7,14,39
21:07:11:701913,1,44,-4,-35,-30,-2,6,45
21:07:11:717673,1,44,-4,-35,-30,-2,6,45
21:07:11:718403,-1,28,7,13,-19,-13,-24,15
21:07:11:724403,-35,-40,2,-20,-17,-21,-28,-32
21:07:11:732652,-35,-40,2,-20,-17,-21,-28,-32
21:07:11:733419,-1,-10,30,4,-6,-11,-22,-76
21:07:11:739400,52,0,-11,-8,-2,5,14,24
21:07:11:755183,52,0,-11,-8,-2,5,14,24
21:07:11:755882,-51,13,35,21,-14,-8,5,35
21:07:11:761917,-7,-3,-10,8,14,12,3,34
21:07:11:770145,-7,-3,-10,8,14,12,3,34
21:07:11:770888,40,13,-4,33,-8,-1,6,8
21:07:11:784406,-31,16,-3,-48,8,13,22,19
21:07:11:792675,-31,16,-3,-48,8,13,22,19
21:07:11:793421,9,59,-7,-9,-10,4,-2,34
21:07:11:799387,-17,-31,-2,4,-9,-5,-7,-25
21:07:11:815065,-17,-31,-2,4,-9,-5,-7,-25
21:07:11:815902,-53,-25,12,-29,7,13,-5,32
21:07:11:821924,2,1,1,-8,-5,6,3,7
21:07:11:829436,2,1,1,-8,-5,6,3,7
21:07:11:836905,29,51,3,17,-4,1,20,-14
21:07:11:844413,-16,-63,-20,-43,14,5,-13,-24
21:07:11:852650,-16,-63,-20,-43,14,5,-13,-24
21:07:11:853400,58,25,26,-17,-8,-5,5,-13
21:07:11:866910,17,15,14,1,7,6,9,31
21:07:11:875176,17,15,14,1,7,6,9,31
21:07:11:875937,-62,-36,-1,29,4,-10,-16,-29
21:07:11:881912,-21,4,20,33,-13,-7,3,4
21:07:11:889395,-21,4,20,33,-13,-7,3,4
21:07:11:896974,-10,40,15,-30,-4,0,4,5
21:07:11:904402,0,-10,-12,4,5,-3,-8,13
21:07:11:912672,0,-10,-12,4,5,-3,-8,13
21:07:11:913399,24,-23,-30,-37,-22,-11,-1,21
21:07:11:926959,48,17,18,29,1,-2,1,-15
21:07:11:935143,48,17,18,29,1,-2,1,-15
21:07:11:935889,-36,-60,-25,0,-28,-11,-11,-24
21:07:11:941927,34,77,31,5,15,-3,0,-27
21:07:11:949417,34,77,31,5,15,-3,0,-27
21:07:11:956882,20,21,7,1,-6,1,12,22
21:07:11:964417,-22,17,-7,-37,-4,-2,-4,87
21:07:11:972642,-22,17,-7,-37,-4,-2,-4,87
21:07:11:973396,-8,-37,-19,67,17,4,-5,23
21:07:11:995822,-15,-29,-17,-9,-2,1,3,-8
21:07:11:996541,-15,-29,-17,-9,-2,1,3,-8
21:07:11:997410,29,5,7,8,4,3,3,-15
21:07:12:1902,-8,-32,-27,5,-11,-1,-5,38
21:07:12:9403,-8,-32,-27,5,-11,-1,-5,38
21:07:12:16932,0,41,13,10,25,-1,0,-28
21:07:12:24403,20,8,8,53,2,-1,7,31
21:07:12:32686,20,8,8,53,2,-1,7,31
21:07:12:33430,33,45,-24,-43,-10,-1,13,17
21:07:12:46987,3,-11,0,-3,9,-2,-25,-14
21:07:12:55201,3,-11,0,-3,9,-2,-25,-14
21:07:12:55893,-5,-9,0,-21,23,14,5,-41
21:07:12:61932,6,-5,4,14,1,8,-6,-67
21:07:12:69406,6,-5,4,14,1,8,-6,-67
21:07:12:76890,-20,-17,-7,27,8,-6,-18,13
21:07:12:84430,0,7,-7,-6,-13,-3,1,-29
21:07:12:92650,0,7,-7,-6,-13,-3,1,-29
21:07:12:93451,-15,-7,-15,-10,4,1,1,32
21:07:12:106928,-30,-25,1,-14,-8,-7,6,-3
21:07:12:115208,-30,-25,1,-14,-8,-7,6,-3
21:07:12:115887,-39,-9,6,-17,-4,-13,-2,23
21:07:12:121917,20,-1,-7,-26,20,9,-1,-16
21:07:12:129530,20,-1,-7,-26,20,9,-1,-16
21:07:12:136907,-12,-4,11,21,-7,2,-2,-53
21:07:12:144421,22,34,15,51,12,3,-7,-44
21:07:12:152542,22,34,15,51,12,3,-7,-44
21:07:12:153405,6,-13,-23,8,10,-3,3,18
21:07:12:166938,-10,18,-1,-26,-8,-6,-17,-4
21:07:12:175044,-10,18,-1,-26,-8,-6,-17,-4
21:07:12:175912,37,-58,-68,22,12,1,-9,-23
21:07:12:181944,16,22,-27,-16,-15,0,5,-49
21:07:12:189413,16,22,-27,-16,-15,0,5,-49
21:07:12:196916,-50,-8,-10,-12,12,7,-4,-24
21:07:12:204407,-10,-47,8,23,2,-16,-6,11
21:07:12:212644,-10,-47,8,23,2,-16,-6,11
21:07:12:213397,-13,-14,10,28,17,22,14,10
21:07:12:226899,12,5,18,23,-18,-9,2,29
21:07:12:235032,12,5,18,23,-18,-9,2,29
21:07:12:235898,3,3,0,-42,-21,3,14,7
21:07:12:241902,-2,50,5,2,3,-1,6,-17
21:07:12:249414,-2,50,5,2,3,-1,6,-17
21:07:12:256902,46,4,34,-15,-17,-14,-34,-34
21:07:12:273293,-8,17,-11,-8,2,0,10,-6
21:07:12:274035,-8,17,-11,-8,2,0,10,-6
21:07:12:274915,16,-5,6,-7,25,1,-10,-13
21:07:12:286942,26,-3,18,4,-4,-1,0,60
21:07:12:295035,26,-3,18,4,-4,-1,0,60
21:07:12:295920,-61,-18,4,-7,-17,-8,-5,1
21:07:12:301920,4,-24,-18,16,-9,-6,-4,-21
21:07:12:309409,4,-24,-18,16,-9,-6,-4,-21
21:07:12:316904,-48,-14,7,23,-1,-1,-1,-21
21:07:12:324405,-40,15,-1,-35,-14,2,0,-4
21:07:12:332653,-40,15,-1,-35,-14,2,0,-4
21:07:12:333437,21,20,-4,1,-5,-4,2,29
21:07:12:347002,-6,-78,-6,-51,-31,-5,-5,-47
21:07:12:355162,-6,-78,-6,-51,-31,-5,-5,-47
21:07:12:355917,8,-11,2,15,-2,8,-5,-33
21:07:12:361931,4,-19,21,-4,-4,3,-11,-38
21:07:12:369408,4,-19,21,-4,-4,3,-11,-38
21:07:12:376911,-5,-9,2,-14,2,-13,2,11
21:07:12:384391,-23,-11,-28,5,15,5,-10,-22
21:07:12:392666,-23,-11,-28,5,15,5,-10,-22
21:07:12:393396,-1,-12,5,8,-5,3,6,9
21:07:12:406923,0,41,9,-1,-2,-8,10,54
21:07:12:415201,0,41,9,-1,-2,-8,10,54
21:07:12:415928,14,-38,-20,-27,-12,-11,-1,-16
21:07:12:421917,2,-23,-18,-9,2,10,11,12
21:07:12:429428,2,-23,-18,-9,2,10,11,12
21:07:12:436923,15,21,5,36,5,-9,11,55
21:07:12:444421,45,34,33,11,18,0,7,28
21:07:12:452646,45,34,33,11,18,0,7,28
21:07:12:453409,9,45,18,-9,6,9,1,-38
21:07:12:475780,10,24,5,45,5,-12,-2,50
21:07:12:476515,10,24,5,45,5,-12,-2,50
21:07:12:477391,39,42,-47,-3,3,12,2,-21
21:07:12:481974,-22,-32,-22,-13,-3,1,6,-21
21:07:12:489442,-22,-32,-22,-13,-3,1,6,-21
21:07:12:496904,10,37,40,31,-27,-11,-6,17
21:07:12:504396,-40,-40,-26,-60,20,5,-6,-10
21:07:12:512684,-40,-40,-26,-60,20,5,-6,-10
21:07:12:513398,-35,2,5,-19,-14,-16,-25,-14
21:07:12:526911,-34,21,7,5,-7,0,-3,-44
21:07:12:535146,-34,21,7,5,-7,0,-3,-44
21:07:12:535895,23,-27,38,14,14,9,17,10
21:07:12:550061,30,1,-25,5,-8,6,4,-5
21:07:12:550908,30,1,-25,5,-8,6,4,-5
21:07:12:556900,12,-35,0,2,-5,8,20,58
21:07:12:564452,29,8,18,-29,-5,-5,-15,41
21:07:12:572652,29,8,18,-29,-5,-5,-15,41
21:07:12:573400,4,-4,-43,7,3,-2,-6,-30
21:07:12:586918,-14,5,7,33,8,6,14,8
21:07:12:595191,-14,5,7,33,8,6,14,8
21:07:12:595913,23,12,2,-47,-4,1,-3,2
21:07:12:601906,0,12,-3,19,-13,-13,-17,-35
21:07:12:609413,0,12,-3,19,-13,-13,-17,-35
21:07:12:616913,-35,8,4,20,8,11,8,15
21:07:12:624390,-17,-40,-20,-52,-3,0,1,0
21:07:12:632656,-17,-40,-20,-52,-3,0,1,0
21:07:12:633421,-17,-2,5,13,-6,-5,-11,-5
21:07:12:646938,-14,-2,-1,12,-7,-20,-2,30
21:07:12:655238,-14,-2,-1,12,-7,-20,-2,30
21:07:12:655893,-76,-41,-28,42,6,-10,-21,1
21:07:12:661934,7,9,23,17,11,12,8,-9
21:07:12:669408,7,9,23,17,11,12,8,-9
21:07:12:676925,-1,7,-24,-32,-17,-6,3,22
21:07:12:684404,-4,-11,-9,-7,-7,-5,-8,1
21:07:12:692542,-4,-11,-9,-7,-7,-5,-8,1
21:07:12:693396,-4,7,6,-39,-1,6,3,0
21:07:12:706925,-15,9,-24,-7,12,10,1,-49
21:07:12:715198,-15,9,-24,-7,12,10,1,-49
21:07:12:715929,8,-6,-17,-2,1,0,-3,-15
21:07:12:721903,3,18,17,7,-6,-8,-1,26
21:07:12:729449,3,18,17,7,-6,-8,-1,26
21:07:12:736923,0,-7,24,-3,3,1,3,25
21:07:12:753315,-10,-4,-5,-18,-5,-13,6,27
21:07:12:754170,-10,-4,-5,-18,-5,-13,6,27
21:07:12:754907,53,22,7,3,-26,3,3,-7
21:07:12:766927,-6,-15,-18,14,4,11,-9,0
21:07:12:775176,-6,-15,-18,14,4,11,-9,0
21:07:12:775910,9,8,-25,-20,-6,-6,2,6
21:07:12:781999,-3,-18,2,9,1,0,2,9
21:07:12:789417,-3,-18,2,9,1,0,2,9
21:07:12:796927,3,6,14,5,-9,-4,6,-12
21:07:12:804412,-13,12,-3,-33,-7,-4,-8,-2
21:07:12:811963,-13,12,-3,-33,-7,-4,-8,-2
21:07:12:819446,-15,-43,-21,-33,-11,2,-5,-17
21:07:12:826910,-28,-20,22,-17,-29,-9,-17,-57
21:07:12:835044,-28,-20,22,-17,-29,-9,-17,-57
21:07:12:835913,3,25,15,28,34,-6,-2,-31
21:07:12:850079,-3,22,7,12,1,-10,5,9
21:07:12:850923,-3,22,7,12,1,-10,5,9
21:07:12:856906,37,40,-16,-9,6,-5,-13,5
21:07:12:864442,45,-38,-26,7,32,23,-1,13
21:07:12:871918,45,-38,-26,7,32,23,-1,13
21:07:12:879418,7,9,-2,-16,-17,1,12,30
21:07:12:886909,-37,-20,-11,20,-15,-18,-27,-60
21:07:12:895233,-37,-20,-11,20,-15,-18,-27,-60
21:07:12:895901,-20,5,11,-11,-17,3,10,5
21:07:12:910024,38,-25,-11,19,3,3,2,19
21:07:12:910910,38,-25,-11,19,3,3,2,19
21:07:12:916935,40,-29,13,-35,-31,-17,-17,-40
21:07:12:924410,4,16,14,-5,15,16,15,30
21:07:12:931941,4,16,14,-5,15,16,15,30
21:07:12:939415,-36,-3,26,20,4,-3,-25,-5
21:07:12:946940,8,-37,-34,46,15,-5,-8,-20
21:07:12:955186,8,-37,-34,46,15,-5,-8,-20
21:07:12:955937,35,26,38,33,22,9,15,-11
21:07:12:970055,-52,37,18,-6,3,6,6,-6
21:07:12:970918,-52,37,18,-6,3,6,6,-6
21:07:12:976920,-8,6,0,13,11,1,3,7
21:07:12:984442,3,22,23,-12,-5,-5,3,27
21:07:12:991927,3,22,23,-12,-5,-5,3,27
21:07:12:999411,-8,-51,-27,7,1,-1,-5,1
21:07:13:6917,31,18,17,-10,-14,1,16,1
21:07:13:15200,31,18,17,-10,-14,1,16,1
21:07:13:15919,-27,-15,-16,-11,-8,-9,4,7
21:07:13:30599,21,-20,4,16,1,4,2,42
21:07:13:31416,21,-20,4,16,1,4,2,42
21:07:13:36919,10,42,-29,-31,6,6,4,-28
21:07:13:44442,39,42,-5,-44,-15,-3,-6,-46
21:07:13:51910,39,42,-5,-44,-15,-3,-6,-46
21:07:13:59422,-10,0,-8,-6,-9,-11,-3,46
21:07:13:66945,-14,17,6,-66,-17,0,1,18
21:07:13:75046,-14,17,6,-66,-17,0,1,18
21:07:13:75919,-4,-44,-26,-17,-4,-3,0,-10
21:07:13:90163,-20,-39,4,12,2,0,5,-15
21:07:13:90910,-20,-39,4,12,2,0,5,-15
21:07:13:96914,-75,-11,10,24,12,12,15,-39
21:07:13:104454,23,33,-27,3,-6,-21,3,-3
21:07:13:111982,23,33,-27,3,-6,-21,3,-3
21:07:13:119420,-5,34,-3,13,-4,-5,-22,-9
21:07:13:126933,21,21,39,16,-13,-5,-3,22
21:07:13:135040,21,21,39,16,-13,-5,-3,22
21:07:13:135902,-14,-29,-25,-13,-3,4,-23,-29
21:07:13:150054,0,10,3,-19,24,15,0,30
21:07:13:150920,0,10,3,-19,24,15,0,30
21:07:13:156905,14,0,0,-13,-6,0,15,27
21:07:13:164467,-11,0,22,-33,6,1,-15,-24
21:07:13:171924,-11,0,22,-33,6,1,-15,-24
21:07:13:179421,-17,33,19,23,13,-5,-7,-9
21:07:13:186912,-5,-25,-3,15,17,10,0,-13
21:07:13:195179,-5,-25,-3,15,17,10,0,-13
21:07:13:195972,15,-8,27,-8,2,0,-4,11
21:07:13:210067,-30,-22,-45,52,4,-2,-27,-88
21:07:13:210926,-30,-22,-45,52,4,-2,-27,-88
21:07:13:216961,4,-60,-51,-21,-6,-12,-10,26
21:07:13:224424,-32,11,-5,19,-8,-4,12,-51
21:07:13:231968,-32,11,-5,19,-8,-4,12,-51
21:07:13:239402,-3,21,-9,2,11,6,5,5
21:07:13:246912,13,-7,-3,25,10,3,7,-2
21:07:13:262603,13,-7,-3,25,10,3,7,-2
21:07:13:263412,34,-20,7,25,15,7,3,-2
21:07:13:270052,-3,25,7,-1,-7,-34,6,8
21:07:13:270900,-3,25,7,-1,-7,-34,6,8
21:07:13:276936,-8,-22,-26,-18,-13,0,7,13
21:07:13:284418,18,26,10,11,-5,17,21,59
21:07:13:291927,18,26,10,11,-5,17,21,59
21:07:13:307566,-4,35,11,-32,-12,1,12,8
21:07:13:308285,-1,10,21,6,-14,-7,-10,38
21:07:13:315195,-1,10,21,6,-14,-7,-10,38
21:07:13:315918,-19,19,39,-42,3,10,7,30
21:07:13:330054,15,-34,30,27,9,8,-9,14
21:07:13:330925,15,-34,30,27,9,8,-9,14
21:07:13:336918,-6,21,17,7,-15,4,-1,-43
21:07:13:344476,-26,1,-13,-47,-10,0,-20,-20
21:07:13:351915,-26,1,-13,-47,-10,0,-20,-20
21:07:13:359426,-11,25,35,16,-6,1,2,13
21:07:13:366920,-65,-1,-20,11,14,6,18,29
21:07:13:375155,-65,-1,-20,11,14,6,18,29
21:07:13:375926,40,-18,-31,1,8,-14,-15,6
21:07:13:390057,-2,14,6,-11,-10,4,4,40
21:07:13:390907,-2,14,6,-11,-10,4,4,40
21:07:13:396968,20,-13,6,2,-11,-3,-2,-1
21:07:13:404443,39,22,-23,-8,0,0,18,-2
21:07:13:411942,39,22,-23,-8,0,0,18,-2
21:07:13:419435,4,18,1,24,11,-5,2,32
21:07:13:426917,-20,-53,4,40,-13,-4,-9,-13
21:07:13:435161,-20,-53,4,40,-13,-4,-9,-13
21:07:13:435909,-40,-38,6,20,-7,-11,-19,-10
21:07:13:450203,31,-8,0,24,-7,-7,-9,-31
21:07:13:450911,31,-8,0,24,-7,-7,-9,-31
21:07:13:456917,95,34,17,-26,-2,16,0,-3
21:07:13:464472,3,37,26,14,27,0,6,18
21:07:13:471948,3,37,26,14,27,0,6,18
21:07:13:479502,20,45,-16,15,6,4,16,-64
21:07:13:486928,9,-38,-21,-26,-7,4,0,-7
21:07:13:495066,9,-38,-21,-26,-7,4,0,-7
21:07:13:495922,-16,-28,2,-3,17,13,23,15
21:07:13:510066,-11,-27,-21,1,4,3,-8,-51
21:07:13:510956,-11,-27,-21,1,4,3,-8,-51
21:07:13:516962,37,-45,-30,-6,6,-4,-13,-31
21:07:13:524442,-21,36,34,-22,8,9,-5,-3
21:07:13:531959,-21,36,34,-22,8,9,-5,-3
21:07:13:539441,-57,-35,-10,-8,-5,-35,-24,-26
21:07:13:546943,-11,-18,-12,-19,-5,-2,5,26
21:07:13:555053,-11,-18,-12,-19,-5,-2,5,26
21:07:13:555920,-32,-25,-24,-56,-18,-3,-4,3
21:07:13:570054,10,8,10,-4,-23,-7,6,-11
21:07:13:570917,10,8,10,-4,-23,-7,6,-11
21:07:13:585054,55,30,-1,34,-15,-11,-10,28
21:07:13:585928,21,7,-45,-9,-3,2,10,55
21:07:13:591934,21,7,-45,-9,-3,2,10,55
21:07:13:599437,-25,15,5,3,-12,-7,-5,66
21:07:13:606924,-13,-31,-42,12,24,-4,-19,-35
21:07:13:615121,-13,-31,-42,12,24,-4,-19,-35
21:07:13:615932,10,-38,-20,-39,-13,-3,13,63
21:07:13:630090,-6,16,14,19,-3,2,2,-28
21:07:13:630959,-6,16,14,19,-3,2,2,-28
21:07:13:636943,-7,-32,3,52,6,17,12,-20
21:07:13:644420,14,-6,-14,43,-3,-25,-12,5
21:07:13:651935,14,-6,-14,43,-3,-25,-12,5
21:07:13:659469,-51,45,33,25,15,8,-23,-122
21:07:13:666934,-2,17,-14,13,37,19,3,31
21:07:13:675182,-2,17,-14,13,37,19,3,31
21:07:13:675923,-18,42,-4,13,2,-5,21,40
21:07:13:690093,-20,-30,15,-21,-16,-2,3,18
21:07:13:690916,-20,-30,15,-21,-16,-2,3,18
21:07:13:696949,-36,-9,-2,34,7,-1,-9,0
21:07:13:704444,6,3,52,-1,-20,-9,-1,47
21:07:13:711958,6,3,52,-1,-20,-9,-1,47
21:07:13:719458,10,34,24,0,4,9,4,16
21:07:13:726949,-14,-37,-31,-11,-18,-8,-8,-24
21:07:13:735214,-14,-37,-31,-11,-18,-8,-8,-24
21:07:13:735909,35,39,-7,-12,-2,-10,-20,-59
21:07:13:750104,72,1,13,-86,33,21,11,-1
21:07:13:750939,72,1,13,-86,33,21,11,-1
21:07:13:756907,10,-17,-9,-8,-8,-5,6,8
21:07:13:772583,-1,14,-9,28,-12,-7,-7,7
21:07:13:773415,-1,14,-9,28,-12,-7,-7,7
21:07:13:779447,6,-11,43,-4,1,4,1,16
21:07:13:786929,-37,-2,-11,15,16,-13,-15,-18
21:07:13:794445,-37,-2,-11,15,16,-13,-15,-18
21:07:13:801953,-25,-45,-48,-6,-18,-6,-19,-33
21:07:13:810181,19,-10,-18,-46,-1,0,-21,56
21:07:13:810927,19,-10,-18,-46,-1,0,-21,56
21:07:13:816920,-20,-4,-4,6,10,5,6,49
21:07:13:832571,-5,-3,-7,-24,-20,-7,10,-30
21:07:13:833446,-5,-3,-7,-24,-20,-7,10,-30
21:07:13:839436,8,2,42,-34,-20,-7,-3,-9
21:07:13:846947,-41,3,16,2,-8,6,1,-35
21:07:13:854469,-41,3,16,2,-8,6,1,-35
21:07:13:861957,31,-21,21,61,-5,1,19,14
21:07:13:870063,17,21,20,29,-3,4,6,45
21:07:13:870930,17,21,20,29,-3,4,6,45
21:07:13:876938,-12,10,3,15,15,13,34,33
21:07:13:892557,35,1,33,-26,-11,-1,-2,-29
21:07:13:893429,35,1,33,-26,-11,-1,-2,-29
21:07:13:899429,-17,-31,12,-4,8,2,-8,-4
21:07:13:906911,-36,-66,-39,-4,8,4,14,-11
21:07:13:914460,-36,-66,-39,-4,8,4,14,-11
21:07:13:921939,32,10,-29,-31,11,-7,-18,-20
21:07:13:930569,-20,-10,-22,-19,-4,0,0,-12
21:07:13:937555,-20,-10,-22,-19,-4,0,0,-12
21:07:13:938433,-59,0,-13,16,-21,-12,-2,-24
21:07:13:952579,17,20,31,26,3,7,8,-18
21:07:13:953436,17,20,31,26,3,7,8,-18
21:07:13:959424,66,2,17,-45,-10,-2,1,-4
21:07:13:966931,-54,-24,-26,-11,0,-8,-3,-1
21:07:13:974424,-54,-24,-26,-11,0,-8,-3,-1
21:07:13:981957,-33,29,-3,39,12,10,14,0
21:07:13:990119,6,2,8,16,0,-12,-8,-1
21:07:13:990925,6,2,8,16,0,-12,-8,-1
21:07:13:996948,10,6,-13,14,-5,-8,-8,-45
21:07:14:12556,43,-20,16,9,-11,3,-5,-10
21:07:14:13418,43,-20,16,9,-11,3,-5,-10
21:07:14:19445,-3,-42,-4,12,0,-8,-12,-75
21:07:14:26936,-9,8,-6,-5,-3,-3,-5,-5
21:07:14:34428,-9,8,-6,-5,-3,-3,-5,-5
21:07:14:41951,-17,-2,-6,-13,10,4,-8,12
21:07:14:50116,-7,3,-2,-3,-2,-34,-9,-3
21:07:14:50925,-7,3,-2,-3,-2,-34,-9,-3
21:07:14:56924,-12,-12,-1,-22,5,3,-7,16
21:07:14:72558,-8,42,9,-7,-12,10,8,26
21:07:14:73415,-8,42,9,-7,-12,10,8,26
21:07:14:79429,23,57,21,-25,7,-2,10,-17
21:07:14:86931,47,-13,-42,-42,14,13,10,4
21:07:14:94481,47,-13,-42,-42,14,13,10,4
21:07:14:101944,-17,6,-1,-9,-15,-1,0,49
21:07:14:110190,-8,40,13,3,-15,-7,-15,-6
21:07:14:110916,-8,40,13,3,-15,-7,-15,-6
21:07:14:116937,3,-24,4,33,25,13,19,41
21:07:14:132602,0,13,24,-6,9,9,-24,-20
21:07:14:133426,0,13,24,-6,9,9,-24,-20
21:07:14:139441,0,13,17,14,7,9,27,49
21:07:14:146972,13,-20,-51,-4,-7,7,18,35
21:07:14:154451,13,-20,-51,-4,-7,7,18,35
21:07:14:161997,16,26,-10,-30,4,2,-9,4
21:07:14:170336,-2,-23,-9,6,-2,0,7,-42
21:07:14:170917,-2,-23,-9,6,-2,0,7,-42
21:07:14:176926,-16,-32,2,-26,-19,-9,-11,1
21:07:14:192696,24,9,-19,54,5,-16,-21,-30
21:07:14:193419,24,9,-19,54,5,-16,-21,-30
21:07:14:199464,-36,-9,-3,15,-3,-1,-7,-61
21:07:14:206925,3,12,-12,17,-5,-10,29,97
21:07:14:222689,3,12,-12,17,-5,-10,29,97
21:07:14:223417,22,-16,-37,-39,-13,-6,-10,2
21:07:14:230200,-14,9,13,-21,-3,4,-9,-31
21:07:14:230937,-14,9,13,-21,-3,4,-9,-31
21:07:14:236947,-21,-10,-17,-14,-5,-7,-14,-15
21:07:14:252601,-43,6,10,-20,6,9,-5,0
21:07:14:253444,-43,6,10,-20,6,9,-5,0
21:07:14:259425,-16,-8,-12,8,17,4,12,-4
21:07:14:266992,16,-33,6,-30,1,0,-8,-3
21:07:14:274444,16,-33,6,-30,1,0,-8,-3
21:07:14:281960,31,0,6,2,-4,3,-1,-17
21:07:14:290041,10,-6,-22,-16,-1,-3,2,17
21:07:14:290910,10,-6,-22,-16,-1,-3,2,17
21:07:14:296925,-57,5,-7,65,41,6,7,0
21:07:14:312753,-26,-25,13,-8,-14,-5,-12,-33
21:07:14:313451,-26,-25,13,-8,-14,-5,-12,-33
21:07:14:319431,22,-4,-6,7,-18,-8,-5,79
21:07:14:326948,-3,16,0,-3,3,4,-1,-7
21:07:14:334461,-3,16,0,-3,3,4,-1,-7
21:07:14:341936,-2,-37,10,-38,-33,-37,-21,-49
21:07:14:350089,0,-9,9,16,-8,5,4,17
21:07:14:350926,0,-9,9,16,-8,5,4,17
21:07:14:356922,18,29,-31,-4,-7,11,5,2
21:07:14:372557,-15,2,-1,56,44,4,13,7
21:07:14:373476,-15,2,-1,56,44,4,13,7
21:07:14:379495,5,-5,1,5,4,-10,-16,-6
21:07:14:386943,5,8,-12,-8,4,10,15,28
21:07:14:394467,5,8,-12,-8,4,10,15,28
21:07:14:401941,12,21,42,-17,13,5,-11,-36
21:07:14:410069,15,-27,-13,-46,-7,-2,4,4
21:07:14:410939,15,-27,-13,-46,-7,-2,4,4
21:07:14:416949,-3,-1,1,-8,-17,11,9,-9
21:07:14:432584,-3,6,36,-10,-25,-6,-6,-25
21:07:14:433440,-3,6,36,-10,-25,-6,-6,-25
21:07:14:439430,27,9,-9,29,6,-1,5,36
21:07:14:446960,-15,6,29,14,9,5,15,10
21:07:14:454444,-15,6,29,14,9,5,15,10
21:07:14:461971,3,-45,-30,45,3,5,7,-12
21:07:14:470060,-23,-20,-22,7,-24,-6,15,18
21:07:14:470926,-23,-20,-22,7,-24,-6,15,18
21:07:14:476942,0,20,-15,-28,-9,-2,-16,17
21:07:14:492602,-3,-3,-11,17,-15,-11,-9,-7
21:07:14:493508,-3,-3,-11,17,-15,-11,-9,-7
21:07:14:499451,21,-6,-9,-52,5,-2,-2,-7
21:07:14:506941,6,9,5,23,19,26,11,17
21:07:14:514464,6,9,5,23,19,26,11,17
21:07:14:521960,-23,-12,-2,-10,-7,-4,1,21
21:07:14:530231,-14,19,9,35,2,6,-22,-33
21:07:14:530947,-14,19,9,35,2,6,-22,-33
21:07:14:536940,-1,-1,25,-27,-5,7,1,-24
21:07:14:552572,25,-3,16,16,-15,-14,-6,10
21:07:14:553451,25,-3,16,16,-15,-14,-6,10
21:07:14:559460,-12,13,-18,-15,-11,-10,-2,-13
21:07:14:566962,-11,29,-17,-29,-1,-7,-14,-44
21:07:14:574443,-11,29,-17,-29,-1,-7,-14,-44
21:07:14:581989,11,42,24,-2,-6,-2,12,-7
21:07:14:590073,-46,23,-1,-39,-10,-13,-15,-23
21:07:14:590949,-46,23,-1,-39,-10,-13,-15,-23
21:07:14:596992,-4,-26,-45,-9,21,-4,-9,-19
21:07:14:612584,-61,-99,5,15,0,-1,-8,-41
21:07:14:613465,-61,-99,5,15,0,-1,-8,-41
21:07:14:619436,24,21,37,-6,-16,1,-14,-6
21:07:14:626951,16,21,-11,6,7,0,13,26
21:07:14:634421,16,21,-11,6,7,0,13,26
21:07:14:641939,26,-2,-4,23,18,3,-14,-21
21:07:14:650101,33,-24,-5,-14,-1,-8,-3,0
21:07:14:650933,33,-24,-5,-14,-1,-8,-3,0
21:07:14:656940,-7,7,8,2,-4,2,11,24
21:07:14:672571,19,54,4,38,-16,-29,-11,-36
21:07:14:673437,19,54,4,38,-16,-29,-11,-36
21:07:14:679500,21,16,4,27,-9,4,-5,-5
21:07:14:695641,-10,-20,13,21,26,17,15,14
21:07:14:696446,-10,-20,13,21,26,17,15,14
21:07:14:701949,-6,-28,-27,-2,3,-9,-7,17
21:07:14:710102,12,23,-11,-15,-27,-8,-8,30
21:07:14:710970,12,23,-11,-15,-27,-8,-8,30
21:07:14:724446,12,14,32,35,32,3,-11,25
21:07:14:732565,11,25,23,-16,-1,-8,3,56
21:07:14:733457,11,25,23,-16,-1,-8,3,56
21:07:14:739441,-34,-4,3,-22,-15,4,7,6
21:07:14:755081,2,-45,-8,-4,0,6,-7,-2
21:07:14:755940,2,-45,-8,-4,0,6,-7,-2
21:07:14:761959,-5,-13,4,-12,-13,-13,-2,-18
21:07:14:770061,-5,-13,4,-12,-13,-13,-2,-18
21:07:14:770938,-29,-27,-27,-12,-11,-2,-3,-34
21:07:14:784934,-18,-21,-16,-29,14,2,4,-3
21:07:14:792568,-18,-21,-16,-29,14,2,4,-3
21:07:14:793435,-29,-37,-44,-23,-4,9,7,34
21:07:14:799450,6,-9,-2,-8,-7,0,12,1
21:07:14:815842,6,-9,-2,-8,-7,0,12,1
21:07:14:816592,29,1,17,20,3,1,9,26
21:07:14:821929,-25,72,-10,8,-14,-3,6,27
21:07:14:830096,-25,72,-10,8,-14,-3,6,27
21:07:14:830964,5,6,11,0,1,8,-1,-39
21:07:14:844451,34,39,16,4,7,17,16,35
21:07:14:852568,34,39,16,4,7,17,16,35
21:07:14:853445,-7,25,-4,-39,-11,-12,-6,-50
21:07:14:859480,-21,-20,12,42,-2,-7,-12,7
21:07:14:875218,-21,-20,12,42,-2,-7,-12,7
21:07:14:875946,-3,28,3,-43,13,6,-1,-45
21:07:14:882016,19,-37,24,10,-5,-16,-10,21
21:07:14:890064,19,-37,24,10,-5,-16,-10,21
21:07:14:890944,32,42,7,10,5,-7,2,33
21:07:14:904475,-55,-63,-11,24,10,3,-5,-17
21:07:14:912706,-55,-63,-11,24,10,3,-5,-17
21:07:14:913465,-32,-24,-12,36,-4,0,-8,-29
21:07:14:919461,-12,-27,5,-15,18,9,-12,-58
21:07:14:935235,-12,-27,5,-15,18,9,-12,-58
21:07:14:935960,30,5,32,8,-6,-2,2,26
21:07:14:941947,-22,-30,-18,-45,-11,-3,-2,-4
21:07:14:950582,-22,-30,-18,-45,-11,-3,-2,-4
21:07:14:956932,29,34,44,-15,-8,1,10,21
21:07:14:964479,-9,39,14,-5,-23,-14,-3,-7
21:07:14:972560,-9,39,14,-5,-23,-14,-3,-7
21:07:14:973443,14,23,1,-9,8,8,-2,-26
21:07:14:979435,-7,-35,-31,48,43,9,-14,48
21:07:14:995222,-7,-35,-31,48,43,9,-14,48
21:07:14:995937,0,8,2,20,0,-4,0,-1
21:07:15:1947,33,64,12,30,-19,-3,-7,-38
21:07:15:10072,33,64,12,30,-19,-3,-7,-38
21:07:15:10941,-41,-20,-3,22,20,8,-2,14
21:07:15:24430,7,10,51,5,-12,-4,6,17
21:07:15:32583,7,10,51,5,-12,-4,6,17
21:07:15:33455,10,25,-6,-18,-10,-10,-22,-48
21:07:15:39462,6,-21,-22,-66,-14,-6,-5,-40
21:07:15:55202,6,-21,-22,-66,-14,-6,-5,-40
21:07:15:55924,-38,-77,-47,-8,-12,-5,-5,38
21:07:15:61955,-5,-1,-1,17,4,12,11,-6
21:07:15:70082,-5,-1,-1,17,4,12,11,-6
21:07:15:70940,-26,-41,-32,-41,-13,-2,5,20
21:07:15:84456,-18,-20,-6,-19,5,-7,18,36
21:07:15:92718,-18,-20,-6,-19,5,-7,18,36
21:07:15:93479,0,89,17,63,4,-5,-15,-11
21:07:15:99476,30,-3,-27,2,14,5,7,7
21:07:15:115259,30,-3,-27,2,14,5,7,7
21:07:15:115925,-20,-52,-4,-1,-9,-14,-9,-27
21:07:15:121952,-17,10,1,-10,-14,0,-2,-26
21:07:15:130221,-17,10,1,-10,-14,0,-2,-26
21:07:15:130956,-35,-47,26,-1,23,21,2,-23
21:07:15:144482,-33,-3,-9,-2,-16,-4,2,15
21:07:15:153091,-33,-3,-9,-2,-16,-4,2,15
21:07:15:160076,45,-58,-24,-10,2,-7,-9,6
21:07:15:160976,-3,37,6,-2,1,-4,1,-3
21:07:15:175204,-3,37,6,-2,1,-4,1,-3
21:07:15:175957,-20,82,-10,-27,-2,-4,10,-3
21:07:15:181978,24,80,7,-13,-19,0,-1,5
21:07:15:190181,24,80,7,-13,-19,0,-1,5
21:07:15:190960,14,-17,-18,24,2,12,-12,23
21:07:15:204493,44,2,-10,-4,-5,20,10,-9
21:07:15:212701,44,2,-10,-4,-5,20,10,-9
21:07:15:213441,15,14,43,-4,-13,-6,1,8
21:07:15:219436,1,-2,39,-7,-4,-9,-8,27
21:07:15:235070,1,-2,39,-7,-4,-9,-8,27
21:07:15:235962,16,32,24,1,7,0,-4,-61
21:07:15:250692,42,-4,-25,11,-4,-7,-19,40
21:07:15:251567,42,-4,-25,11,-4,-7,-19,40
21:07:15:252431,0,52,-19,-2,4,-2,13,21
21:07:15:264462,-25,-48,-2,5,25,7,10,-34
21:07:15:272567,-25,-48,-2,5,25,7,10,-34
21:07:15:273437,13,23,0,2,-5,8,25,48
21:07:15:279520,-12,52,2,-2,-2,-11,-34,-22
21:07:15:295241,-12,52,2,-2,-2,-11,-34,-22
21:07:15:295976,-44,-18,20,-15,13,7,13,60
21:07:15:301948,34,0,-9,-1,-4,-2,6,3
21:07:15:310090,34,0,-9,-1,-4,-2,6,3
21:07:15:310961,18,-54,-27,19,2,6,-4,-14
21:07:15:324445,-30,-39,-71,9,-9,-9,6,6
21:07:15:332596,-30,-39,-71,9,-9,-9,6,6
21:07:15:333467,1,11,8,40,1,-5,-10,5
21:07:15:339465,17,-20,21,-22,-10,-5,-6,-41
21:07:15:355236,17,-20,21,-22,-10,-5,-6,-41
21:07:15:355944,46,21,23,-28,-10,-6,7,14
21:07:15:361972,-13,-11,22,29,-10,15,17,4
21:07:15:370097,-13,-11,22,29,-10,15,17,4
21:07:15:370937,9,-32,41,-47,-4,-8,-10,-8
21:07:15:384444,-45,-35,-5,5,-2,-9,19,26
21:07:15:392713,-45,-35,-5,5,-2,-9,19,26
21:07:15:393436,-24,10,-29,-34,-19,-10,-2,28
21:07:15:399449,-18,-22,-1,2,19,8,-13,-22
21:07:15:415252,-18,-22,-1,2,19,8,-13,-22
21:07:15:415943,5,23,-17,-4,-14,-5,6,-2
21:07:15:421950,-45,-30,-50,-27,7,-4,-10,44
21:07:15:430877,-45,-30,-50,-27,7,-4,-10,44
21:07:15:431584,-9,5,-8,-7,5,1,6,10
21:07:15:444458,-18,6,39,-22,-4,-5,-6,-2
21:07:15:452709,-18,6,39,-22,-4,-5,-6,-2
21:07:15:453446,4,-66,-28,36,-3,-15,-29,-78
21:07:15:459458,-36,-36,5,4,-8,-23,4,-22
21:07:15:475218,-36,-36,5,4,-8,-23,4,-22
21:07:15:475936,-20,27,10,20,-7,16,13,10
21:07:15:481971,5,-48,-39,-25,-2,8,13,-22
21:07:15:490191,5,-48,-39,-25,-2,8,13,-22
21:07:15:490963,-16,-32,-53,15,20,1,-30,-42
21:07:15:504481,33,74,32,32,-2,-1,-4,21
21:07:15:512703,33,74,32,32,-2,-1,-4,21
21:07:15:513451,38,11,11,-4,0,6,-5,-30
21:07:15:519449,-4,-8,-4,14,-4,-2,3,19
21:07:15:535083,-4,-8,-4,14,-4,-2,3,19
21:07:15:535940,-10,-43,40,4,5,-4,-1,-46
21:07:15:541969,-37,14,8,-29,-23,-4,15,15
21:07:15:550237,-37,14,8,-29,-23,-4,15,15
21:07:15:550939,-20,64,15,0,11,5,6,35
21:07:15:564503,48,44,-15,30,8,10,10,34
21:07:15:572565,48,44,-15,30,8,10,10,34
21:07:15:573454,10,29,30,0,-14,0,21,-16
21:07:15:579492,40,9,-6,13,5,-5,-12,-87
21:07:15:595108,40,9,-6,13,5,-5,-12,-87
21:07:15:595962,-16,-53,-43,-28,-15,-9,4,22
21:07:15:601966,32,-4,-9,-69,23,15,-8,4
21:07:15:610072,32,-4,-9,-69,23,15,-8,4
21:07:15:610942,0,36,7,-14,10,1,-4,16
21:07:15:624347,7,39,19,5,-17,-17,9,43
21:07:15:632587,7,39,19,5,-17,-17,9,43
21:07:15:633465,-31,-35,-14,-13,11,8,-3,-3
21:07:15:646952,-56,-59,-48,-37,3,2,1,54
21:07:15:655072,-56,-59,-48,-37,3,2,1,54
21:07:15:655959,6,14,-2,6,-13,-7,-2,0
21:07:15:661991,3,-16,12,-5,-11,-14,0,32
21:07:15:669469,3,-16,12,-5,-11,-14,0,32
21:07:15:676956,-37,9,2,-1,1,1,2,-23
21:07:15:684445,45,-5,-6,24,-5,12,3,6
21:07:15:692575,45,-5,-6,24,-5,12,3,6
21:07:15:693504,36,23,1,5,-3,-2,-10,-28
21:07:15:706958,-44,-4,29,17,-7,-13,-6,-6
21:07:15:715087,-44,-4,29,17,-7,-13,-6,-6
21:07:15:715934,-11,-32,-39,13,1,-2,-7,-5
21:07:15:730140,-8,1,-4,-4,9,4,-2,-8
21:07:15:730966,-8,1,-4,-4,9,4,-2,-8
21:07:15:736932,6,26,-22,-20,-8,1,3,12
21:07:15:744361,32,29,19,-17,-13,-4,2,-7
21:07:15:752638,32,29,19,-17,-13,-4,2,-7
21:07:15:753447,16,-74,-45,-11,-8,-9,-13,-48
21:07:15:766959,-20,-7,31,-24,-6,-5,-22,-47
21:07:15:775092,-20,-7,31,-24,-6,-5,-22,-47
21:07:15:775966,-12,-10,23,6,-3,-5,-9,32
21:07:15:781963,8,29,-5,0,14,7,-7,-59
21:07:15:789439,8,29,-5,0,14,7,-7,-59
21:07:15:805079,14,-16,-24,78,7,-4,15,42
21:07:15:805938,8,22,-4,21,20,15,6,46
21:07:15:812594,8,22,-4,21,20,15,6,46
21:07:15:813445,14,1,-9,2,-5,-10,-4,-2
21:07:15:826983,18,-18,-13,25,-4,-5,-12,7
21:07:15:835100,18,-18,-13,25,-4,-5,-12,7
21:07:15:835947,-11,53,85,0,-1,2,10,-5
21:07:15:841983,-14,-16,-40,19,-2,-4,-5,21
21:07:15:849453,-14,-16,-40,19,-2,-4,-5,21
21:07:15:856947,54,-1,-14,-38,0,-2,-7,-22
21:07:15:864473,20,0,29,-10,3,-2,-9,-17
21:07:15:872573,20,0,29,-10,3,-2,-9,-17
21:07:15:873459,-24,-28,-3,2,-2,-4,2,24
21:07:15:886962,4,-8,-14,-7,26,14,27,8
21:07:15:895083,4,-8,-14,-7,26,14,27,8
21:07:15:895968,-49,38,28,-6,4,0,-13,-3
21:07:15:901988,-22,-18,-2,-11,-21,-5,11,-25
21:07:15:909457,-22,-18,-2,-11,-21,-5,11,-25
21:07:15:916960,-18,11,-12,3,2,9,-5,-48
21:07:15:924468,37,23,8,-41,-6,-5,-5,-35
21:07:15:932716,37,23,8,-41,-6,-5,-5,-35
21:07:15:933465,8,-7,52,-6,-10,-15,-15,10
21:07:15:946979,-11,2,7,44,-20,-22,-24,-60
21:07:15:955079,-11,2,7,44,-20,-22,-24,-60
21:07:15:955949,32,-20,21,1,15,10,17,46
21:07:15:961972,-27,-18,-7,-4,-10,9,1,18
21:07:15:969466,-27,-18,-7,-4,-10,9,1,18
21:07:15:976960,-38,-25,-26,-33,3,-1,-32,-7
21:07:15:984466,22,43,26,27,6,5,11,41
21:07:15:992593,22,43,26,27,6,5,11,41
21:07:15:993481,-1,15,-11,-21,-9,-7,2,24
21:07:16:6951,8,-22,-8,30,5,21,-4,44
21:07:16:15267,8,-22,-8,30,5,21,-4,44
21:07:16:15952,34,19,-5,2,13,-1,-1,-16
21:07:16:21982,-5,3,-11,-3,-2,-1,-11,-61
21:07:16:29509,-5,3,-11,-3,-2,-1,-11,-61
21:07:16:36963,13,21,-10,13,-23,-1,10,11
21:07:16:44466,-27,-24,1,-23,-6,-1,1,14
21:07:16:52613,-27,-24,1,-23,-6,-1,1,14
21:07:16:53480,38,2,-10,-4,18,4,4,9
21:07:16:66965,-36,-17,-23,0,6,4,6,16
21:07:16:76198,-36,-17,-23,0,6,4,6,16
21:07:16:82578,28,-42,-5,3,-6,-13,-11,-16
21:07:16:83473,25,-39,-28,-14,9,-13,14,-5
21:07:16:89454,25,-39,-28,-14,9,-13,14,-5
21:07:16:97028,-25,-7,-2,-15,4,7,14,-40
21:07:16:104327,6,12,21,10,6,3,-8,-54
21:07:16:112608,6,12,21,10,6,3,-8,-54
21:07:16:113474,-49,-31,-2,8,-22,-5,-1,0
21:07:16:126974,19,24,-1,37,8,-16,-20,33
21:07:16:135083,19,24,-1,37,8,-16,-20,33
21:07:16:135945,-16,28,17,30,5,4,20,35
21:07:16:141946,-22,-20,-8,-27,2,8,11,17
21:07:16:149461,-22,-20,-8,-27,2,8,11,17
21:07:16:156955,-8,-6,-37,17,3,11,13,-10
21:07:16:164508,15,-25,-23,-10,-18,-1,6,11
21:07:16:172615,15,-25,-23,-10,-18,-1,6,11
21:07:16:173459,47,-16,-43,-1,7,11,0,21
21:07:16:187002,3,4,46,1,-6,7,-9,-62
21:07:16:195133,3,4,46,1,-6,7,-9,-62
21:07:16:195962,-1,20,25,4,-7,-1,0,39
21:07:16:201955,-48,-26,-24,-12,-16,-6,-18,31
21:07:16:209469,-48,-26,-24,-12,-16,-6,-18,31
21:07:16:216986,43,23,3,-50,-7,-11,2,-14
21:07:16:224440,-8,2,4,8,3,3,15,-6
21:07:16:232719,-8,2,4,8,3,3,15,-6
21:07:16:233486,-30,-14,16,-11,-4,-2,-7,12
21:07:16:246967,-28,27,-36,-23,3,-9,-13,-35
21:07:16:255099,-28,27,-36,-23,3,-9,-13,-35
21:07:16:255952,-4,-9,-2,17,4,-10,-20,-38
21:07:16:270082,25,18,40,40,11,6,7,-47
21:07:16:270953,25,18,40,40,11,6,7,-47
21:07:16:285077,24,-12,-1,-4,-4,-16,-13,42
21:07:16:285943,-2,31,1,-15,-12,-7,-13,-14
21:07:16:292600,-2,31,1,-15,-12,-7,-13,-14
21:07:16:293438,1,45,-15,-14,-2,2,10,-17
21:07:16:306973,33,-20,17,-32,-2,-8,7,51
21:07:16:315102,33,-20,17,-32,-2,-8,7,51
21:07:16:315964,8,18,19,-6,14,28,20,35
21:07:16:321964,-47,-30,-21,-15,-15,-4,-17,14
21:07:16:329462,-47,-30,-21,-15,-15,-4,-17,14
21:07:16:336966,-28,-55,-32,3,8,1,-23,-107
21:07:16:344479,14,23,19,26,16,9,-3,-14
21:07:16:352583,14,23,19,26,16,9,-3,-14
21:07:16:353452,-51,-41,4,-23,-8,-3,4,39
21:07:16:366954,-10,-37,-52,-14,-3,-7,-6,-17
21:07:16:375082,-10,-37,-52,-14,-3,-7,-6,-17
21:07:16:375951,-20,33,-4,-28,22,1,-7,-3
21:07:16:381971,-33,-53,-23,15,23,5,5,14
21:07:16:389467,-33,-53,-23,15,23,5,5,14
21:07:16:397036,12,-4,-3,55,-21,-11,-1,17
21:07:16:404461,14,3,18,35,-2,4,-2,13
21:07:16:412748,14,3,18,35,-2,4,-2,13
21:07:16:413461,-11,-12,42,12,-7,5,16,-48
21:07:16:426964,26,78,43,19,-2,4,20,4
21:07:16:435107,26,78,43,19,-2,4,20,4
21:07:16:435951,14,23,-23,-4,-15,-6,-2,-19
21:07:16:441959,0,-56,-19,53,4,-5,-8,-4
21:07:16:449453,0,-56,-19,53,4,-5,-8,-4
21:07:16:456958,-40,44,23,0,-1,-5,-18,-74
21:07:16:473395,-34,32,-31,-28,-7,-9,-6,-15
21:07:16:474074,-34,32,-31,-28,-7,-9,-6,-15
21:07:16:474982,57,47,37,11,-8,-5,2,10
21:07:16:486971,16,-23,23,11,0,-3,-10,-5
21:07:16:495102,16,-23,23,11,0,-3,-10,-5
21:07:16:495951,-2,-13,-43,-16,24,13,29,5
21:07:16:501964,40,15,-20,-22,-3,0,13,39
21:07:16:509474,40,15,-20,-22,-3,0,13,39
21:07:16:516967,27,-24,-3,27,-4,-16,-38,-8
21:07:16:524454,-3,-22,-14,-15,-2,-4,-1,13
21:07:16:532589,-3,-22,-14,-15,-2,-4,-1,13
21:07:16:533478,-28,-16,47,-41,-7,2,16,69
21:07:16:546969,8,45,4,-31,-9,-9,-15,8
21:07:16:562606,8,45,4,-31,-9,-9,-15,8
21:07:16:563458,-11,-62,-43,-14,10,-10,-22,10
21:07:16:570088,0,-11,29,-6,17,3,15,41
21:07:16:570962,0,-11,29,-6,17,3,15,41
21:07:16:576974,17,17,-37,8,3,5,19,27
21:07:16:592606,1,37,-24,-6,-22,2,-2,-62
21:07:16:593476,1,37,-24,-6,-22,2,-2,-62
21:07:16:599475,16,10,-31,-38,22,-4,-1,-6
21:07:16:606952,11,-16,24,-8,-5,-3,-5,81
21:07:16:615125,11,-16,24,-8,-5,-3,-5,81
21:07:16:615957,5,-54,-23,-20,-12,-9,19,-1
21:07:16:630122,30,26,-2,5,7,4,3,-6
21:07:16:631029,30,26,-2,5,7,4,3,-6
21:07:16:636965,-38,-16,24,-3,-1,18,2,-15
21:07:16:644499,-4,-6,-12,-8,-17,2,10,-17
21:07:16:651974,-4,-6,-12,-8,-17,2,10,-17
21:07:16:659475,-14,8,27,38,-10,-9,-10,-41
21:07:16:666980,-1,-11,30,4,6,-4,-7,17
21:07:16:675220,-1,-11,30,4,6,-4,-7,17
21:07:16:675974,14,20,-20,19,-19,-14,-27,18
21:07:16:690098,1,36,-9,8,-2,2,-8,-33
21:07:16:690954,1,36,-9,8,-2,2,-8,-33
21:07:16:696995,25,2,14,24,5,18,-12,-1
21:07:16:704470,-10,-24,-5,-14,-3,-24,-40,-105
21:07:16:712010,-10,-24,-5,-14,-3,-24,-40,-105
21:07:16:719452,1,4,-15,3,9,15,8,-42
21:07:16:726988,-12,-20,15,-27,7,9,35,50
21:07:16:735087,-12,-20,15,-27,7,9,35,50
21:07:16:735968,-14,-5,-9,13,-1,10,13,71
21:07:16:750618,-66,-5,8,34,19,7,16,2
21:07:16:751344,-66,-5,8,34,19,7,16,2
21:07:16:756953,17,-19,-12,-57,18,4,-3,35
21:07:16:764475,4,19,8,1,-19,-12,-23,-40
21:07:16:771948,4,19,8,1,-19,-12,-23,-40
21:07:16:779394,-22,48,53,45,4,19,0,-1
21:07:16:786973,27,-55,-46,-66,-11,0,-6,86
21:07:16:795156,27,-55,-46,-66,-11,0,-6,86
21:07:16:795974,9,7,11,-37,-15,-15,-27,-63
21:07:16:810088,-18,14,18,-4,-5,3,-1,-19
21:07:16:810948,-18,14,18,-4,-5,3,-1,-19
21:07:16:825088,8,78,3,9,-9,-7,-13,-52
21:07:16:826002,-24,11,10,-18,2,1,4,19
21:07:16:840090,-24,11,10,-18,2,1,4,19
21:07:16:840961,-5,-22,-13,26,-3,-17,-2,-61
21:07:16:847018,8,-17,-16,24,14,15,-4,-44
21:07:16:855207,8,-17,-16,24,14,15,-4,-44
21:07:16:855953,-24,11,-37,-16,-11,-16,2,26
21:07:16:870083,-6,-8,-8,-6,20,6,11,40
