Time,EMG1,EMG2,EMG3,EMG4,EMG5,EMG6,EMG7,EMG8
14:56:56:103627,-8,4,7,-5,-8,0,-32,4
14:56:56:104411,3,6,-2,4,2,-2,7,-2
14:56:56:118641,-29,-9,1,-1,-1,3,6,3
14:56:56:119439,-29,-9,1,-1,-1,3,6,3
14:56:56:125413,-22,-6,-12,-2,2,0,-11,-4
14:56:56:132986,14,12,9,5,-14,-1,7,-1
14:56:56:140498,14,12,9,5,-14,-1,7,-1
14:56:56:147951,7,-4,-11,-3,5,9,4,2
14:56:56:155405,4,4,14,11,0,-4,2,2
14:56:56:163662,4,4,14,11,0,-4,2,2
14:56:56:164452,-10,-6,-6,2,-5,-10,-2,-1
14:56:56:178639,6,-4,-5,-4,-5,-4,-4,1
14:56:56:179442,6,-4,-5,-4,-5,-4,-4,1
14:56:56:185398,-7,-1,-2,0,-5,-1,-5,-4
14:56:56:192930,-9,2,0,-4,2,0,8,-5
14:56:56:208608,-9,2,0,-4,2,0,8,-5
14:56:56:209430,-1,0,3,1,1,0,4,-7
14:56:56:215363,-8,-6,-6,-6,12,-7,-16,-27
14:56:56:223650,-8,-6,-6,-6,12,-7,-16,-27
14:56:56:224411,3,-1,-4,-6,-9,3,1,3
14:56:56:238647,-2,4,-1,-6,-15,7,5,6
14:56:56:239436,-2,4,-1,-6,-15,7,5,6
14:56:56:245408,-14,-4,0,-1,0,-2,-3,-4
14:56:56:252885,3,-2,2,5,4,6,9,8
14:56:56:260534,3,-2,2,5,4,6,9,8
14:56:56:267918,4,6,10,-5,1,3,29,14
14:56:56:275420,5,-7,-4,-17,-36,-3,-4,-6
14:56:56:283687,5,-7,-4,-17,-36,-3,-4,-6
14:56:56:284460,-3,-1,-2,1,-6,-1,-3,-2
14:56:56:298638,-15,-3,-5,1,-5,1,-2,3
14:56:56:299450,-15,-3,-5,1,-5,1,-2,3
14:56:56:305425,-1,-2,-3,-3,-1,-7,5,-8
14:56:56:312889,19,-2,-1,8,1,-6,-15,14
14:56:56:320504,19,-2,-1,8,1,-6,-15,14
14:56:56:327900,9,-3,-1,0,15,-2,-27,5
14:56:56:335422,-13,3,-1,3,7,6,11,0
14:56:56:343602,-13,3,-1,3,7,6,11,0
14:56:56:344389,1,2,-3,0,1,6,0,-5
14:56:56:358621,2,3,-2,-8,-7,1,-6,-4
14:56:56:359442,2,3,-2,-8,-7,1,-6,-4
14:56:56:365432,-17,-6,-10,-9,-17,-6,9,12
14:56:56:381175,-19,-5,0,9,11,0,10,-1
14:56:56:381956,-19,-5,0,9,11,0,10,-1
14:56:56:387936,10,0,0,3,-2,4,-4,1
14:56:56:395469,3,4,3,-2,5,5,2,-4
14:56:56:403635,3,4,3,-2,5,5,2,-4
14:56:56:404454,-10,0,-5,-2,-2,7,-5,-10
14:56:56:418608,0,2,17,16,10,-5,-6,1
14:56:56:419517,0,2,17,16,10,-5,-6,1
14:56:56:425468,2,4,6,5,-3,-18,0,-2
14:56:56:433011,1,-6,-10,-2,-2,-14,-3,-22
14:56:56:440548,1,-6,-10,-2,-2,-14,-3,-22
14:56:56:456051,-8,-7,-9,-6,1,-4,-5,-11
14:56:56:456871,18,1,1,3,3,6,4,21
14:56:56:463613,18,1,1,3,3,6,4,21
14:56:56:464456,16,2,1,8,9,10,1,4
14:56:56:486778,-12,-16,-14,-6,6,2,0,-1
14:56:56:487622,-12,-16,-14,-6,6,2,0,-1
14:56:56:488366,-8,4,20,3,-1,-12,-5,4
14:56:56:492942,2,-1,-7,-12,-4,-10,4,1
14:56:56:500509,2,-1,-7,-12,-4,-10,4,1
14:56:56:507930,12,-7,-10,-2,-6,-10,31,17
14:56:56:515405,7,8,4,15,12,5,-9,12
14:56:56:523700,7,8,4,15,12,5,-9,12
14:56:56:524460,-15,-5,-15,0,-1,6,2,-3
14:56:56:538666,-7,-4,-22,-1,1,20,-8,-39
14:56:56:539444,-7,-4,-22,-1,1,20,-8,-39
14:56:56:545390,16,22,29,18,18,32,-5,10
14:56:56:561164,-16,-10,-1,-1,14,8,-2,-11
14:56:56:561932,-16,-10,-1,-1,14,8,-2,-11
14:56:56:567901,3,-5,-5,-12,-16,-20,-14,5
14:56:56:575367,7,10,9,-17,4,-24,6,8
14:56:56:583023,7,10,9,-17,4,-24,6,8
14:56:56:590371,-15,-9,-7,-2,11,-1,-2,-9
14:56:56:598643,-2,-23,-9,-10,-16,2,-1,13
14:56:56:599452,-2,-23,-9,-10,-16,2,-1,13
14:56:56:612928,81,16,12,-12,5,-1,-11,6
14:56:56:621113,54,21,19,5,-4,-4,2,9
14:56:56:621957,54,21,19,5,-4,-4,2,9
14:56:56:627894,-31,-22,-16,-15,-11,-13,-1,-6
14:56:56:635453,26,5,-3,6,-19,-27,2,-13
14:56:56:643059,26,5,-3,6,-19,-27,2,-13
14:56:56:650413,22,8,-1,2,1,-2,-1,-20
14:56:56:658625,-24,0,-3,-2,-1,11,-6,-11
14:56:56:659437,-24,0,-3,-2,-1,11,-6,-11
14:56:56:665500,-31,-8,-34,-53,-16,15,-3,-2
14:56:56:681210,3,-4,0,-4,-15,7,4,26
14:56:56:682027,3,-4,0,-4,-15,7,4,26
14:56:56:687949,-11,0,0,-3,-4,-3,-5,-4
14:56:56:695415,-44,-11,-2,0,3,-3,4,-1
14:56:56:703052,-44,-11,-2,0,3,-3,4,-1
14:56:56:710489,-6,-1,-1,1,-7,-1,0,38
14:56:56:718600,-26,-13,-7,0,1,-3,-2,-30
14:56:56:719398,-26,-13,-7,0,1,-3,-2,-30
14:56:56:725443,-19,-1,31,26,6,-1,0,-13
14:56:56:741121,5,11,9,-1,0,2,1,8
14:56:56:741925,5,11,9,-1,0,2,1,8
14:56:56:747945,21,0,11,12,-3,-2,-4,-2
14:56:56:755451,-13,-4,-5,-9,8,-1,2,-7
14:56:56:762963,-13,-4,-5,-9,8,-1,2,-7
14:56:56:770441,-11,8,-13,16,4,-5,2,-15
14:56:56:778614,-23,9,-3,-15,-9,-1,-2,-14
14:56:56:779477,-23,9,-3,-15,-9,-1,-2,-14
14:56:56:785444,0,-22,0,6,-5,-2,-9,-41
14:56:56:801119,11,13,27,29,10,-4,0,25
14:56:56:801915,11,13,27,29,10,-4,0,25
14:56:56:807955,-49,-20,-2,-13,2,-1,-1,-15
14:56:56:815480,12,2,5,-4,-4,4,-3,13
14:56:56:823009,12,2,5,-4,-4,4,-3,13
14:56:56:830392,-32,2,-2,5,-4,-7,3,19
14:56:56:838600,-10,8,-2,14,5,0,-1,2
14:56:56:839462,-10,8,-2,14,5,0,-1,2
14:56:56:845459,1,0,1,10,16,-2,5,7
14:56:56:861178,2,-20,-37,-6,-1,-5,-1,-16
14:56:56:861991,2,-20,-37,-6,-1,-5,-1,-16
14:56:56:867909,50,13,18,5,-4,9,1,14
14:56:56:883639,44,3,11,5,20,-10,16,4
14:56:56:884461,44,3,11,5,20,-10,16,4
14:56:56:890447,-24,-21,-33,2,-10,-11,-8,1
14:56:56:898648,4,9,8,5,-3,10,-4,7
14:56:56:899455,4,9,8,5,-3,10,-4,7
14:56:56:905395,-12,0,9,-4,10,5,-5,-5
14:56:56:921115,-3,6,-16,-15,2,1,-1,-8
14:56:56:921941,-3,6,-16,-15,2,1,-1,-8
14:56:56:927937,0,-8,-8,32,50,2,-2,7
14:56:56:935389,-17,-15,0,3,-9,1,-5,-10
14:56:56:942985,-17,-15,0,3,-9,1,-5,-10
14:56:56:950451,-3,7,9,-4,-13,-7,-9,-10
14:56:56:958612,14,2,-6,-17,-18,-13,-2,-4
14:56:56:959463,14,2,-6,-17,-18,-13,-2,-4
14:56:56:965421,53,11,18,-5,-12,7,9,17
14:56:56:981157,-25,-15,-18,0,-10,8,0,1
14:56:56:981964,-25,-15,-18,0,-10,8,0,1
14:56:56:987903,37,-15,-24,-9,-14,-2,11,1
14:56:56:995408,-8,-2,18,-7,0,-1,2,1
14:56:57:2961,-8,-2,18,-7,0,-1,2,1
14:56:57:10434,4,8,-6,-32,-19,-10,4,-16
14:56:57:18584,-12,-7,-6,6,0,1,1,8
14:56:57:19377,-12,-7,-6,6,0,1,1,8
14:56:57:25434,-15,12,19,8,-4,0,0,1
14:56:57:41623,25,5,0,-1,-4,-2,-1,6
14:56:57:42424,25,5,0,-1,-4,-2,-1,6
14:56:57:47923,-16,3,-4,-16,-11,-1,-9,-13
14:56:57:55424,2,-34,0,7,9,-4,-9,-5
14:56:57:63065,2,-34,0,7,9,-4,-9,-5
14:56:57:70448,-31,17,19,13,15,4,-8,3
14:56:57:78610,11,5,-7,-13,13,0,1,31
14:56:57:79471,11,5,-7,-13,13,0,1,31
14:56:57:85441,7,-1,-19,-29,-24,-5,4,23
14:56:57:101129,-15,2,-15,-4,-9,-3,-5,-28
14:56:57:102028,-15,2,-15,-4,-9,-3,-5,-28
14:56:57:107970,7,11,17,0,-15,1,-2,-6
14:56:57:115460,2,2,7,3,9,0,-5,-3
14:56:57:122983,2,2,7,3,9,0,-5,-3
14:56:57:139285,30,-5,-17,12,9,35,2,-17
14:56:57:140034,-6,-6,-13,5,15,-5,-2,5
14:56:57:140858,-6,-6,-13,5,15,-5,-2,5
14:56:57:145409,6,18,32,14,15,-19,-4,1
14:56:57:161221,11,2,2,3,9,-1,3,-1
14:56:57:162008,11,2,2,3,9,-1,3,-1
14:56:57:167943,-15,-12,-13,-5,3,-4,-4,6
14:56:57:175483,-17,1,5,-4,-21,-4,-15,-14
14:56:57:183099,-17,1,5,-4,-21,-4,-15,-14
14:56:57:190484,-22,-12,-18,-7,13,-6,-5,-35
14:56:57:198641,-8,8,3,8,10,-1,2,14
14:56:57:199468,-8,8,3,8,10,-1,2,14
14:56:57:205484,4,5,-6,-4,4,-6,-4,4
14:56:57:221119,29,5,15,-17,-26,2,7,25
14:56:57:221940,29,5,15,-17,-26,2,7,25
14:56:57:227978,-12,-9,9,-10,-23,-9,-18,-36
14:56:57:235427,-1,2,11,-6,-22,0,-7,-27
14:56:57:242976,-1,2,11,-6,-22,0,-7,-27
14:56:57:250442,-7,-12,-32,5,-1,-5,3,12
14:56:57:258617,-8,11,13,17,10,-1,-3,-23
14:56:57:259431,-8,11,13,17,10,-1,-3,-23
14:56:57:265403,-60,-15,-19,3,4,6,5,27
14:56:57:281144,-40,-1,15,-1,2,4,6,-8
14:56:57:281958,-40,-1,15,-1,2,4,6,-8
14:56:57:287919,33,14,20,-7,-1,-4,5,-10
14:56:57:295459,-17,-6,-8,12,38,-6,-8,-21
14:56:57:302963,-17,-6,-8,12,38,-6,-8,-21
14:56:57:310456,33,-5,-18,1,-3,3,-2,-9
14:56:57:318639,32,3,3,-7,-10,10,-8,4
14:56:57:319450,32,3,3,-7,-10,10,-8,4
14:56:57:325439,-54,-6,1,-1,6,-3,-16,-6
14:56:57:341139,20,-3,-13,-5,-12,-2,3,38
14:56:57:341940,20,-3,-13,-5,-12,-2,3,38
14:56:57:347910,5,3,10,8,-13,-7,13,7
14:56:57:355417,-17,-7,-7,-19,-10,-1,4,-5
14:56:57:363014,-17,-7,-7,-19,-10,-1,4,-5
14:56:57:370426,-2,-11,-18,8,13,3,1,5
14:56:57:378698,16,19,7,13,7,-2,-1,34
14:56:57:379504,16,19,7,13,7,-2,-1,34
14:56:57:392940,-3,2,11,0,4,0,0,-16
14:56:57:401169,-12,-25,-37,-4,-8,0,-2,-34
14:56:57:401926,-12,-25,-37,-4,-8,0,-2,-34
14:56:57:407935,55,12,13,2,-7,-7,-2,-20
14:56:57:415412,-23,-3,4,-21,-8,-2,1,3
14:56:57:423050,-23,-3,4,-21,-8,-2,1,3
14:56:57:430418,2,-9,-9,5,0,-1,-10,17
14:56:57:437951,2,-9,-9,5,0,-1,-10,17
14:56:57:446127,21,1,-4,6,6,0,5,23
14:56:57:446919,-3,3,7,-10,-13,3,8,24
14:56:57:461270,-3,3,7,-10,-13,3,8,24
14:56:57:462020,-21,-1,1,-4,4,2,2,6
14:56:57:467952,34,14,6,6,4,3,-1,9
14:56:57:483708,34,14,6,6,4,3,-1,9
14:56:57:484447,32,-7,-10,5,21,-4,-3,-15
14:56:57:490438,-37,6,1,-11,-14,1,1,10
14:56:57:498052,-37,6,1,-11,-14,1,1,10
14:56:57:505448,12,2,-2,-2,-22,-5,-2,-19
14:56:57:512928,8,-14,-11,1,11,-3,-2,8
14:56:57:521136,8,-14,-11,1,11,-3,-2,8
14:56:57:521938,-20,2,17,-11,-10,-7,-4,8
14:56:57:527961,-20,5,0,-3,-11,-4,-10,-39
14:56:57:543676,-20,5,0,-3,-11,-4,-10,-39
14:56:57:544489,16,-2,-5,-2,-12,-4,0,17
14:56:57:550454,14,-7,-19,-6,2,-1,4,-26
14:56:57:558588,14,-7,-19,-6,2,-1,4,-26
14:56:57:559435,-18,-1,-5,0,-1,6,10,-19
14:56:57:572930,-46,-6,14,7,10,-2,-7,-13
14:56:57:581101,-46,-6,14,7,10,-2,-7,-13
14:56:57:581903,10,0,-6,0,-1,3,8,6
14:56:57:587943,3,-6,-10,-19,-5,-1,6,17
14:56:57:603641,3,-6,-10,-19,-5,-1,6,17
14:56:57:604450,6,0,9,16,10,-1,-6,-1
14:56:57:610531,-32,2,-1,-6,-11,2,-1,9
14:56:57:618588,-32,2,-1,-6,-11,2,-1,9
14:56:57:619397,-30,-3,-19,-4,-2,-1,-8,-16
14:56:57:632928,67,23,38,7,-4,2,17,-6
14:56:57:641142,67,23,38,7,-4,2,17,-6
14:56:57:641950,5,7,4,-9,-13,-5,0,-5
14:56:57:647921,-19,-13,-11,4,5,-2,-5,-11
14:56:57:663684,-19,-13,-11,4,5,-2,-5,-11
14:56:57:664477,14,-6,-2,13,-11,-4,-7,3
14:56:57:670456,-36,-5,-11,-18,1,2,-2,4
14:56:57:678658,-36,-5,-11,-18,1,2,-2,4
14:56:57:679465,-5,-5,-11,-15,4,2,-3,5
14:56:57:692949,32,13,-1,-6,12,-4,-11,-2
14:56:57:701179,32,13,-1,-6,12,-4,-11,-2
14:56:57:701929,-22,3,-1,-7,5,3,1,-3
14:56:57:707935,-5,-6,-13,9,7,-6,-7,-8
14:56:57:723646,-5,-6,-13,9,7,-6,-7,-8
14:56:57:724449,-8,-6,-15,1,2,2,3,1
14:56:57:730375,21,0,18,-2,-4,1,2,6
14:56:57:738640,21,0,18,-2,-4,1,2,6
14:56:57:739432,-25,-9,1,10,-6,-3,-1,6
14:56:57:752898,-8,-3,11,-5,-17,-4,-2,3
14:56:57:761151,-8,-3,11,-5,-17,-4,-2,3
14:56:57:761953,-26,12,8,-14,16,1,1,-13
14:56:57:767940,61,-15,-32,-11,-11,1,-2,14
14:56:57:783651,61,-15,-32,-11,-11,1,-2,14
14:56:57:784410,11,13,38,6,-7,1,4,-3
14:56:57:790427,-36,-22,-29,3,3,4,2,5
14:56:57:798629,-36,-22,-29,3,3,4,2,5
14:56:57:799465,16,2,22,10,0,-3,3,9
14:56:57:812914,-19,-11,-9,7,14,-4,-6,0
14:56:57:821122,-19,-11,-9,7,14,-4,-6,0
14:56:57:821906,5,2,-9,-2,3,3,-4,-5
14:56:57:827889,-16,-5,3,-6,-17,-1,-1,-1
14:56:57:843674,-16,-5,3,-6,-17,-1,-1,-1
14:56:57:844456,-68,-4,5,8,-16,-8,-6,-3
14:56:57:850397,-50,-7,-10,-4,3,0,-3,-10
14:56:57:858649,-50,-7,-10,-4,3,0,-3,-10
14:56:57:859458,16,3,-16,8,-3,2,-5,-30
14:56:57:873002,27,28,22,14,12,2,3,14
14:56:57:881168,27,28,22,14,12,2,3,14
14:56:57:881964,1,-22,-43,-23,6,-5,-9,-10
14:56:57:887924,-28,12,27,17,7,5,2,-21
14:56:57:903594,-28,12,27,17,7,5,2,-21
14:56:57:904415,-13,-5,-6,-11,-6,-4,1,-1
14:56:57:910453,-4,-7,-3,-2,-11,-2,2,2
14:56:57:918656,-4,-7,-3,-2,-11,-2,2,2
14:56:57:919427,43,-10,1,10,5,-7,-2,11
14:56:57:933009,35,14,-23,-24,-13,-8,1,-13
14:56:57:941160,35,14,-23,-24,-13,-8,1,-13
14:56:57:941967,56,9,8,5,7,4,8,0
14:56:57:955449,-1,-21,-25,-14,-19,-6,-4,15
14:56:57:964350,-1,-21,-25,-14,-19,-6,-4,15
14:56:57:965186,38,4,10,-9,4,2,-3,30
14:56:57:970450,3,-11,-12,-34,-27,5,-7,-10
14:56:57:978621,3,-11,-12,-34,-27,5,-7,-10
14:56:57:979463,-54,-4,-6,0,-12,-3,-4,-29
14:56:57:992963,6,-14,16,16,18,-8,4,16
14:56:58:1131,6,-14,16,16,18,-8,4,16
14:56:58:1894,-16,0,14,12,-2,-5,-1,-10
14:56:58:7911,-20,-3,-11,0,-5,3,5,11
14:56:58:23699,-20,-3,-11,0,-5,3,5,11
14:56:58:24453,8,4,4,-1,14,9,-1,24
14:56:58:30498,-8,-4,-5,-13,8,0,-2,-12
14:56:58:38632,-8,-4,-5,-13,8,0,-2,-12
14:56:58:39441,9,0,1,-9,-8,-7,-6,-7
14:56:58:52904,5,-2,-11,2,8,-6,-6,-1
14:56:58:61186,5,-2,-11,2,8,-6,-6,-1
14:56:58:61891,12,3,16,13,9,5,8,31
14:56:58:67937,14,-21,-17,-18,-19,-6,-4,-44
14:56:58:84183,14,-21,-17,-18,-19,-6,-4,-44
14:56:58:84951,11,12,21,9,-3,0,-2,-15
14:56:58:90444,21,15,24,19,13,1,4,23
14:56:58:98638,21,15,24,19,13,1,4,23
14:56:58:99393,-36,-24,-34,-31,-11,-3,-2,8
14:56:58:112925,-14,10,17,10,-8,8,1,1
14:56:58:121156,-14,10,17,10,-8,8,1,1
14:56:58:121971,-16,-7,-17,-11,-10,0,1,8
14:56:58:127953,12,3,9,22,11,1,-2,9
14:56:58:143436,12,3,9,22,11,1,-2,9
14:56:58:151133,30,-1,-4,-3,4,-3,1,24
14:56:58:151886,3,1,-3,8,0,-6,-3,-25
14:56:58:158670,3,1,-3,8,0,-6,-3,-25
14:56:58:159448,-21,-9,9,11,0,-3,-3,-13
14:56:58:172955,-23,-3,-4,-15,-11,-2,-1,17
14:56:58:181193,-23,-3,-4,-15,-11,-2,-1,17
14:56:58:181991,0,8,3,0,-3,-1,-4,-9
14:56:58:187964,-1,-4,-1,-8,3,-7,-4,1
14:56:58:203623,-1,-4,-1,-8,3,-7,-4,1
14:56:58:204398,-23,-9,-24,-7,5,-4,-1,-18
14:56:58:210489,32,9,13,-5,4,3,6,9
14:56:58:218673,32,9,13,-5,4,3,6,9
14:56:58:219456,-7,-3,-2,-19,-24,1,-4,-11
14:56:58:232979,-36,-19,-15,3,-5,-1,-4,-23
14:56:58:241155,-36,-19,-15,3,-5,-1,-4,-23
14:56:58:241969,-7,-8,-12,5,3,-7,-6,-5
14:56:58:247974,37,18,3,13,7,-1,1,-2
14:56:58:263697,37,18,3,13,7,-1,1,-2
14:56:58:264483,25,-18,-13,2,-4,-1,0,-14
14:56:58:270416,-27,0,-5,0,-2,5,2,10
14:56:58:278658,-27,0,-5,0,-2,5,2,10
14:56:58:279436,29,11,18,-7,3,5,3,21
14:56:58:292925,55,3,-18,-1,3,-7,-9,20
14:56:58:301209,55,3,-18,-1,3,-7,-9,20
14:56:58:301927,-35,-5,-4,5,8,0,3,1
14:56:58:307998,-20,-2,16,-4,7,5,-1,0
14:56:58:323661,-20,-2,16,-4,7,5,-1,0
14:56:58:324441,29,11,16,4,-2,0,-6,-3
14:56:58:330453,-47,-9,-11,15,5,-6,0,7
14:56:58:338642,-47,-9,-11,15,5,-6,0,7
14:56:58:339414,40,12,7,11,-5,-12,0,12
14:56:58:352921,-6,-11,-7,-10,-3,2,3,-4
14:56:58:361162,-6,-11,-7,-10,-3,2,3,-4
14:56:58:361997,-27,8,1,7,2,10,-1,-22
14:56:58:367941,16,22,22,4,-6,-6,-2,-2
14:56:58:383718,16,22,22,4,-6,-6,-2,-2
14:56:58:384461,-26,0,-5,3,15,-7,-1,11
14:56:58:390416,-11,-16,-14,-26,-2,-1,-6,-3
14:56:58:398643,-11,-16,-14,-26,-2,-1,-6,-3
14:56:58:399428,-9,4,-4,15,0,2,-5,-8
14:56:58:412958,-37,1,-5,4,0,1,4,-8
14:56:58:421085,-37,1,-5,4,0,1,4,-8
14:56:58:421925,19,-10,0,-5,6,6,2,-2
14:56:58:427860,15,3,7,4,-1,-2,2,33
14:56:58:443632,15,3,7,4,-1,-2,2,33
14:56:58:444399,-13,8,6,-4,2,3,1,-20
14:56:58:450424,-15,6,6,10,18,-3,-2,-6
14:56:58:457967,-15,6,6,10,18,-3,-2,-6
14:56:58:465407,-22,-18,-15,-8,-8,-3,2,0
14:56:58:472905,7,-1,15,3,-11,2,0,11
14:56:58:481182,7,-1,15,3,-11,2,0,11
14:56:58:481927,38,0,3,-9,-14,-2,3,-3
14:56:58:495442,12,11,-1,4,-3,2,-1,-3
14:56:58:503594,12,11,-1,4,-3,2,-1,-3
14:56:58:504428,-49,-5,-4,2,4,4,-1,-6
14:56:58:510384,-36,-26,-24,-23,-6,-8,-10,-18
14:56:58:517941,-36,-26,-24,-23,-6,-8,-10,-18
14:56:58:525423,-21,11,4,-2,7,-6,-3,-13
14:56:58:532894,35,2,3,12,3,-11,-7,-16
14:56:58:541164,35,2,3,12,3,-11,-7,-16
14:56:58:541961,18,-6,-2,4,5,4,0,19
14:56:58:555415,-9,-12,5,-2,-6,2,3,5
14:56:58:563666,-9,-12,5,-2,-6,2,3,5
14:56:58:564422,12,10,17,1,-5,-2,0,0
14:56:58:570391,-11,14,20,6,-1,4,1,-32
14:56:58:577993,-11,14,20,6,-1,4,1,-32
14:56:58:585433,-16,-21,-22,-14,-12,4,2,1
14:56:58:592915,0,-10,-30,-6,-21,1,-2,-20
14:56:58:601195,0,-10,-30,-6,-21,1,-2,-20
14:56:58:601959,-26,11,19,11,13,-2,-3,-6
14:56:58:615436,34,-2,-2,-5,19,-3,5,17
14:56:58:623645,34,-2,-2,-5,19,-3,5,17
14:56:58:624447,56,-8,-5,-2,-2,1,1,21
14:56:58:630414,-26,-7,-12,-10,-8,2,-4,-14
14:56:58:637983,-26,-7,-12,-10,-8,2,-4,-14
14:56:58:645431,-20,1,4,-14,-13,43,-5,-3
14:56:58:652901,10,-10,-4,0,-12,-8,-5,1
14:56:58:661160,10,-10,-4,0,-12,-8,-5,1
14:56:58:661935,11,2,7,12,7,-28,13,2
14:56:58:675428,74,21,29,3,11,-16,-5,10
14:56:58:683623,74,21,29,3,11,-16,-5,10
14:56:58:684403,-48,-2,-6,2,-4,-8,-8,-23
14:56:58:690435,-15,1,0,9,9,2,3,8
14:56:58:697947,-15,1,0,9,9,2,3,8
14:56:58:705415,30,6,2,-4,-6,2,-11,24
14:56:58:712927,-29,2,-1,1,12,10,0,-21
14:56:58:720962,-29,2,-1,1,12,10,0,-21
14:56:58:727861,-6,-8,-12,-8,-4,-19,-4,4
14:56:58:735425,8,4,4,-7,-20,-6,-21,19
14:56:58:743649,8,4,4,-7,-20,-6,-21,19
14:56:58:744436,14,-5,-10,-6,-16,-5,-5,-5
14:56:58:750415,-19,-3,5,-2,6,5,13,4
14:56:58:758009,-19,-3,5,-2,6,5,13,4
14:56:58:765406,6,-7,-14,5,-2,-6,-3,-7
14:56:58:772903,5,16,8,18,19,9,3,-19
14:56:58:781149,5,16,8,18,19,9,3,-19
14:56:58:781951,-57,-8,-16,3,10,6,8,-14
14:56:58:795419,0,-7,7,0,-11,5,16,10
14:56:58:803635,0,-7,7,0,-11,5,16,10
14:56:58:804465,11,4,10,3,19,23,1,-21
14:56:58:810486,-4,12,-3,9,6,-6,1,-3
14:56:58:817994,-4,12,-3,9,6,-6,1,-3
14:56:58:825428,23,-1,-5,-11,-12,-19,-6,16
14:56:58:832935,-14,-8,-18,-22,-17,-3,-9,-9
14:56:58:841133,-14,-8,-18,-22,-17,-3,-9,-9
14:56:58:841892,82,8,17,2,8,-5,8,11
14:56:58:855443,-12,-6,-5,-8,-21,-2,9,-19
14:56:58:863689,-12,-6,-5,-8,-21,-2,9,-19
14:56:58:864498,-31,-13,-28,-16,-4,-6,2,7
14:56:58:870435,5,13,36,8,1,3,5,17
14:56:58:877931,5,13,36,8,1,3,5,17
14:56:58:885429,3,0,-2,2,-13,-5,-5,-11
14:56:58:892952,-32,-2,-16,-13,2,2,0,12
14:56:58:901115,-32,-2,-16,-13,2,2,0,12
14:56:58:901908,2,5,2,-8,-23,-4,-7,5
14:56:58:915458,-5,-14,-24,-22,-16,-1,-10,0
14:56:58:923654,-5,-14,-24,-22,-16,-1,-10,0
14:56:58:924409,-43,6,17,5,-11,-1,-5,-5
14:56:58:930432,-7,-15,-1,5,15,2,0,7
14:56:58:937995,-7,-15,-1,5,15,2,0,7
14:56:58:945387,-13,-5,2,1,28,2,10,-9
14:56:58:952882,-10,-3,-13,12,19,5,1,-7
14:56:58:961181,-10,-3,-13,12,19,5,1,-7
14:56:58:961953,-9,-8,-16,6,2,-2,-6,-26
14:56:58:984283,18,5,3,13,8,4,-9,-5
14:56:58:985070,18,5,3,13,8,4,-9,-5
14:56:58:985863,2,1,4,-3,11,1,4,2
14:56:58:990445,15,-1,9,14,9,-2,-4,18
14:56:58:997974,15,-1,9,14,9,-2,-4,18
14:56:59:5461,-3,-3,-5,-4,-1,-3,-4,13
14:56:59:12995,-3,1,0,-5,3,2,2,-13
14:56:59:21112,-3,1,0,-5,3,2,2,-13
14:56:59:21938,-25,2,-3,-1,24,-5,-2,-11
14:56:59:35517,72,-13,-16,-11,-17,-6,7,10
14:56:59:43650,72,-13,-16,-11,-17,-6,7,10
14:56:59:44419,61,17,30,10,-25,0,-4,15
14:56:59:50456,-63,8,3,10,16,1,-6,-21
14:56:59:57976,-63,8,3,10,16,1,-6,-21
14:56:59:65414,-37,98,-24,-20,-39,-22,-3,-21
14:56:59:72899,-9,-13,6,-19,-38,-8,3,9
14:56:59:81149,-9,-13,6,-19,-38,-8,3,9
14:56:59:81941,-57,-91,-4,-2,-2,6,-4,-33
14:56:59:95430,-13,-43,-13,-12,-22,-5,1,20
14:56:59:103596,-13,-43,-13,-12,-22,-5,1,20
14:56:59:104452,44,-15,5,-2,19,4,-8,9
14:56:59:110403,-4,0,7,10,52,4,-6,-13
14:56:59:117955,-4,0,7,10,52,4,-6,-13
14:56:59:125438,14,-5,3,-6,9,2,3,14
14:56:59:132977,-2,17,0,-1,-27,5,28,14
14:56:59:141174,-2,17,0,-1,-27,5,28,14
14:56:59:141965,105,7,2,14,-8,6,4,18
14:56:59:155382,6,12,-6,-7,-8,-3,-17,0
14:56:59:163662,6,12,-6,-7,-8,-3,-17,0
14:56:59:164459,-62,-6,-1,-16,-10,6,9,-42
14:56:59:170432,38,0,0,0,15,7,5,8
14:56:59:177964,38,0,0,0,15,7,5,8
14:56:59:185400,122,-2,-4,-3,6,-7,-8,69
14:56:59:192924,-90,-5,-3,-4,-20,-14,-13,-6
14:56:59:201103,-90,-5,-3,-4,-20,-14,-13,-6
14:56:59:201873,-105,-1,3,5,2,8,16,-19
14:56:59:215470,9,8,1,5,4,-7,-4,9
14:56:59:223663,9,8,1,5,4,-7,-4,9
14:56:59:224452,-28,-4,-7,-3,-2,2,12,11
14:56:59:230395,-38,1,-2,3,-19,11,1,-38
14:56:59:237978,-38,1,-2,3,-19,11,1,-38
14:56:59:245491,53,-2,5,-2,19,14,-9,2
14:56:59:252935,127,2,8,14,34,-7,-22,-8
14:56:59:261168,127,2,8,14,34,-7,-22,-8
14:56:59:261917,89,-2,-13,-10,-4,-11,-7,60
14:56:59:275479,-66,-18,-11,-2,-7,-32,-15,-9
14:56:59:283643,-66,-18,-11,-2,-7,-32,-15,-9
14:56:59:284427,-128,-11,-7,-1,5,3,-9,-92
14:56:59:290468,-110,14,3,7,-17,9,4,-12
14:56:59:297939,-110,14,3,7,-17,9,4,-12
14:56:59:305427,-24,3,-1,-2,-28,-10,-4,14
14:56:59:312944,-29,5,19,10,24,9,46,-11
14:56:59:321123,-29,5,19,10,24,9,46,-11
14:56:59:321901,-53,-13,-6,5,39,2,24,-1
14:56:59:335472,21,-4,-20,-23,-27,-26,4,-19
14:56:59:343632,21,-4,-20,-23,-27,-26,4,-19
14:56:59:344452,56,12,9,-2,-70,-3,-9,72
14:56:59:350429,25,4,-1,-11,2,5,4,21
14:56:59:357953,25,4,-1,-11,2,5,4,21
14:56:59:365415,4,1,6,3,15,-6,-10,-6
14:56:59:372947,12,2,-3,11,-3,6,-8,0
14:56:59:381166,12,2,-3,11,-3,6,-8,0
14:56:59:381936,-10,4,-9,6,20,0,-1,-14
14:56:59:395485,10,-2,5,0,2,8,-2,-7
14:56:59:403617,10,-2,5,0,2,8,-2,-7
14:56:59:404416,13,-2,-2,-1,0,7,-10,-2
14:56:59:418596,-1,-11,-19,-3,-10,-16,-33,9
14:56:59:419401,-1,-11,-19,-3,-10,-16,-33,9
14:56:59:425392,-40,-14,-20,-22,-62,-32,-22,-41
14:56:59:432922,19,8,2,-2,16,1,-7,8
14:56:59:440480,19,8,2,-2,16,1,-7,8
14:56:59:447932,-4,7,12,5,31,11,7,-2
14:56:59:455421,77,2,2,0,2,-25,7,24
14:56:59:463669,77,2,2,0,2,-25,7,24
14:56:59:464449,-7,4,0,9,5,0,11,5
14:56:59:478645,-58,-2,11,-1,18,48,14,-15
14:56:59:479463,-58,-2,11,-1,18,48,14,-15
14:56:59:485435,1,-12,-9,-7,-26,-25,-34,-32
14:56:59:492913,-5,-1,-2,-4,-12,-14,-6,-12
14:56:59:500484,-5,-1,-2,-4,-12,-14,-6,-12
14:56:59:507970,-7,6,2,5,22,5,15,8
14:56:59:515445,-8,-8,-9,7,2,-5,-13,-1
14:56:59:523663,-8,-8,-9,7,2,-5,-13,-1
14:56:59:524481,-3,-1,-12,0,-20,0,4,-7
14:56:59:538670,2,-7,-17,-33,-5,-5,-7,6
14:56:59:539451,2,-7,-17,-33,-5,-5,-7,6
14:56:59:545430,1,-4,3,9,22,20,7,-3
14:56:59:552901,1,-4,4,-3,-16,-19,-3,-2
14:56:59:560541,1,-4,4,-3,-16,-19,-3,-2
14:56:59:567938,3,5,7,-7,2,-9,-9,-3
14:56:59:575450,-11,-5,1,5,-4,1,-5,-20
14:56:59:583651,-11,-5,1,5,-4,1,-5,-20
14:56:59:584479,-9,4,5,5,7,7,5,-17
14:56:59:598702,5,4,0,0,-5,18,2,6
14:56:59:599502,5,4,0,0,-5,18,2,6
14:56:59:605479,4,0,5,5,8,4,4,9
14:56:59:612951,-58,2,0,-3,19,-13,-4,-50
14:56:59:620436,-58,2,0,-3,19,-13,-4,-50
14:56:59:627921,1,-8,-5,-11,23,2,-25,8
14:56:59:635468,13,5,1,-1,-12,4,-26,20
14:56:59:643630,13,5,1,-1,-12,4,-26,20
14:56:59:644428,-6,-1,7,5,-9,2,3,-11
14:56:59:658631,11,-4,-2,5,19,34,5,19
14:56:59:659447,11,-4,-2,5,19,34,5,19
14:56:59:665448,12,8,18,7,34,15,15,7
14:56:59:672986,11,0,0,15,-18,-10,7,-3
14:56:59:680458,11,0,0,15,-18,-10,7,-3
14:56:59:687940,0,-3,-2,-10,-19,-7,12,1
14:56:59:695415,2,12,24,-1,25,-7,4,-2
14:56:59:703602,2,12,24,-1,25,-7,4,-2
14:56:59:704422,-11,5,-4,-6,9,-15,-4,-7
14:56:59:718609,16,-4,-12,-1,-19,6,19,17
14:56:59:719474,16,-4,-12,-1,-19,6,19,17
14:56:59:725413,4,1,-1,5,-39,-2,-5,15
14:56:59:732942,-18,-23,-19,-6,-12,-3,11,7
14:56:59:740509,-18,-23,-19,-6,-12,-3,11,7
14:56:59:747919,-15,0,32,7,-19,-14,-19,-60
14:56:59:755417,-4,5,0,-13,4,8,1,-67
14:56:59:763673,-4,5,0,-13,4,8,1,-67
14:56:59:764446,7,19,5,-1,-10,3,-9,24
14:56:59:778620,5,-10,-26,25,7,5,-9,20
14:56:59:779468,5,-10,-26,25,7,5,-9,20
14:56:59:785415,6,-3,2,-15,3,9,-8,5
14:56:59:792935,-16,-5,-6,2,12,-1,-12,3
14:56:59:800487,-16,-5,-6,2,12,-1,-12,3
14:56:59:807916,10,-10,-16,6,-8,-38,-22,6
14:56:59:815439,16,16,15,14,-2,-13,4,20
14:56:59:823667,16,16,15,14,-2,-13,4,20
14:56:59:824492,-17,-1,3,-25,1,-6,9,-10
14:56:59:838670,2,-5,8,28,22,1,-11,50
14:56:59:839459,2,-5,8,28,22,1,-11,50
14:56:59:845421,-6,-19,-48,8,-23,-1,-13,0
14:56:59:852885,2,8,22,-10,-7,6,-2,1
14:56:59:860545,2,8,22,-10,-7,6,-2,1
14:56:59:867949,0,-9,-19,-18,5,2,19,-2
14:56:59:875441,13,-1,27,3,-22,-7,1,11
14:56:59:883603,13,-1,27,3,-22,-7,1,11
14:56:59:884456,-59,14,2,-23,1,10,18,-8
14:56:59:898564,-20,-18,-34,-45,1,-4,9,-6
14:56:59:899423,-20,-18,-34,-45,1,-4,9,-6
14:56:59:905425,15,1,17,14,9,-1,-5,2
14:56:59:912919,0,5,10,-5,-1,7,10,-30
14:56:59:920455,0,5,10,-5,-1,7,10,-30
14:56:59:927922,5,-5,6,27,0,-4,2,-21
14:56:59:936135,-2,17,7,-11,-20,-9,-4,-52
14:56:59:936949,-2,17,7,-11,-20,-9,-4,-52
14:56:59:942916,10,-7,14,16,7,10,3,7
14:56:59:958584,10,-1,-28,-15,-7,2,4,21
14:56:59:959439,10,-1,-28,-15,-7,2,4,21
14:56:59:965405,15,13,25,28,16,12,24,10
14:56:59:972985,-7,-16,-34,-26,4,-16,-14,2
14:56:59:980458,-7,-16,-34,-26,4,-16,-14,2
14:56:59:987911,15,-3,-22,0,-2,-13,-17,-6
14:56:59:996138,-34,-19,4,-8,7,1,4,2
14:56:59:996979,-34,-19,4,-8,7,1,4,2
14:57:00:2934,14,-4,15,-4,14,23,6,10
14:57:00:18622,-5,-11,-32,-13,3,-2,-12,-14
14:57:00:19443,-5,-11,-32,-13,3,-2,-12,-14
14:57:00:25448,-16,6,7,-5,9,11,-2,4
14:57:00:32901,35,6,10,1,0,9,-1,23
14:57:00:40462,35,6,10,1,0,9,-1,23
14:57:00:47961,-8,-20,-21,-5,-6,-14,-11,-15
14:57:00:56161,2,-3,-3,-8,-10,1,5,6
14:57:00:56919,2,-3,-3,-8,-10,1,5,6
14:57:00:62932,4,0,-1,-6,-5,-5,11,10
14:57:00:78663,23,18,31,-3,-9,13,-8,1
14:57:00:79478,23,18,31,-3,-9,13,-8,1
14:57:00:85475,-51,-15,-32,-32,4,3,17,5
14:57:00:92932,-9,-4,-20,5,5,-13,13,8
14:57:00:100503,-9,-4,-20,5,5,-13,13,8
14:57:00:107934,19,22,45,12,-31,-35,-10,13
14:57:00:116104,-9,-13,-17,-17,14,-7,-10,10
14:57:00:116945,-9,-13,-17,-17,14,-7,-10,10
14:57:00:123038,10,4,17,-5,13,14,1,5
14:57:00:138681,25,16,30,2,-10,4,10,20
14:57:00:139451,25,16,30,2,-10,4,10,20
14:57:00:145463,0,-7,-41,-20,-7,-7,-16,-31
14:57:00:152889,-5,11,8,7,5,-6,8,-1
14:57:00:160470,-5,11,8,7,5,-6,8,-1
14:57:00:167937,-18,-16,5,3,-33,-11,0,13
14:57:00:176113,-13,-17,-30,55,-16,2,-5,-10
14:57:00:176937,-13,-17,-30,55,-16,2,-5,-10
14:57:00:182943,-20,-2,-21,-5,11,14,9,1
14:57:00:198615,0,-12,-19,6,3,-5,-10,-11
14:57:00:199490,0,-12,-19,6,3,-5,-10,-11
14:57:00:205504,23,7,0,22,-7,17,9,-3
14:57:00:212986,0,17,18,-8,11,3,6,-17
14:57:00:220483,0,17,18,-8,11,3,6,-17
14:57:00:227925,-1,-17,-28,12,8,-9,-10,-2
14:57:00:236133,-10,-4,14,22,-4,-1,-15,-5
14:57:00:236917,-10,-4,14,22,-4,-1,-15,-5
14:57:00:242916,28,9,17,-6,11,3,11,10
14:57:00:258645,-6,10,25,-10,-4,14,8,-13
14:57:00:259448,-6,10,25,-10,-4,14,8,-13
14:57:00:265432,15,-1,-27,-18,-26,-7,-14,-56
14:57:00:272951,3,12,31,8,-3,-18,-6,-13
14:57:00:280476,3,12,31,8,-3,-18,-6,-13
14:57:00:287873,4,-14,-29,-10,10,-8,-1,21
14:57:00:296124,-2,-4,-6,-3,-6,1,-8,-8
14:57:00:296924,-2,-4,-6,-3,-6,1,-8,-8
14:57:00:302968,4,5,31,32,1,-15,-8,8
14:57:00:318660,-9,-1,-26,1,7,3,0,-3
14:57:00:319428,-9,-1,-26,1,7,3,0,-3
14:57:00:325386,-12,-8,-14,8,10,4,7,-27
14:57:00:332910,8,-3,11,-26,-7,-8,-4,6
14:57:00:340498,8,-3,11,-26,-7,-8,-4,6
14:57:00:347937,-1,12,10,4,14,41,4,11
14:57:00:356123,-2,-11,-7,1,13,-23,-26,2
14:57:00:356964,-2,-11,-7,1,13,-23,-26,2
14:57:00:370430,2,-9,4,-10,-23,-7,6,9
14:57:00:378656,14,7,-14,-20,2,1,5,45
14:57:00:379468,14,7,-14,-20,2,1,5,45
14:57:00:385431,-10,-3,-4,-12,-3,-1,-2,27
14:57:00:401147,2,-6,-13,49,-15,-5,-35,-8
14:57:00:401952,2,-6,-13,49,-15,-5,-35,-8
14:57:00:407882,7,19,31,24,20,-8,-6,18
14:57:00:416131,36,2,-3,-9,-4,-2,11,12
14:57:00:416945,36,2,-3,-9,-4,-2,11,12
14:57:00:430418,35,13,14,-1,2,-2,-15,-6
14:57:00:438638,-13,-36,-38,-38,-9,3,-3,4
14:57:00:439428,-13,-36,-38,-38,-9,3,-3,4
14:57:00:445397,14,17,30,-28,-8,-4,18,22
14:57:00:461138,-7,0,14,7,-17,25,11,-5
14:57:00:461950,-7,0,14,7,-17,25,11,-5
14:57:00:467902,-24,-11,-11,83,1,26,-5,-23
14:57:00:476098,-17,20,66,31,19,11,23,-5
14:57:00:476930,-17,20,66,31,19,11,23,-5
14:57:00:490404,-8,-18,-38,-49,-20,-48,-16,-10
14:57:00:498587,-11,4,-24,-15,-9,-28,11,-22
14:57:00:499415,-11,4,-24,-15,-9,-28,11,-22
14:57:00:505371,8,-5,-32,5,31,-8,18,-7
14:57:00:521091,-67,12,16,-6,6,-15,-1,-1
14:57:00:521957,-67,12,16,-6,6,-15,-1,-1
14:57:00:527900,-11,-21,-26,-38,-12,-4,-21,-12
14:57:00:536111,15,2,19,19,1,9,12,-12
14:57:00:536945,15,2,19,19,1,9,12,-12
14:57:00:550472,-16,-1,9,6,-6,-8,-8,-1
14:57:00:558593,21,12,-1,19,-12,0,7,10
14:57:00:559421,21,12,-1,19,-12,0,7,10
14:57:00:565412,5,0,-18,-13,0,15,8,24
14:57:00:581165,-4,8,-5,34,23,21,4,-12
14:57:00:581947,-4,8,-5,34,23,21,4,-12
14:57:00:587945,7,8,14,10,11,7,8,21
14:57:00:596097,-4,-35,-54,-11,-12,5,-4,-5
14:57:00:596957,-4,-35,-54,-11,-12,5,-4,-5
14:57:00:610508,-12,1,19,16,22,6,-5,-10
14:57:00:618602,-68,-30,-24,-32,-3,-17,-28,-36
14:57:00:619451,-68,-30,-24,-32,-3,-17,-28,-36
14:57:00:625446,50,4,2,-1,-2,-12,-17,23
14:57:00:641158,20,5,23,1,13,12,2,33
14:57:00:641971,20,5,23,1,13,12,2,33
14:57:00:647974,-13,8,10,-7,-11,-3,5,2
14:57:00:656150,14,13,15,-24,1,-21,-9,-22
14:57:00:656926,14,13,15,-24,1,-21,-9,-22
14:57:00:670425,3,7,19,-24,-9,17,17,-4
14:57:00:678606,9,-6,1,13,-11,14,9,-6
14:57:00:679448,9,-6,1,13,-11,14,9,-6
14:57:00:685447,-31,-10,0,-7,12,-1,-12,-41
14:57:00:701084,11,-16,-22,-16,4,-6,-9,13
14:57:00:701914,11,-16,-22,-16,4,-6,-9,13
14:57:00:707949,-40,-11,-24,-20,-38,-6,8,-7
14:57:00:716126,12,12,14,3,3,-20,-15,-22
14:57:00:716951,12,12,14,3,3,-20,-15,-22
14:57:00:730430,-3,7,6,-4,8,7,1,-7
14:57:00:738600,66,-14,-37,-28,-11,5,11,46
14:57:00:739410,66,-14,-37,-28,-11,5,11,46
14:57:00:745453,-7,-2,12,0,13,-5,-8,-14
14:57:00:761168,4,4,2,-3,24,13,7,22
14:57:00:762015,4,4,2,-3,24,13,7,22
14:57:00:767951,-1,0,0,37,9,1,0,2
14:57:00:783699,-1,0,0,37,9,1,0,2
14:57:00:784497,-12,-4,-26,18,-5,-7,3,1
14:57:00:790421,0,23,38,-9,5,-2,9,7
14:57:00:798681,0,23,38,-9,5,-2,9,7
14:57:00:799464,-10,-2,17,0,-26,4,-2,-16
14:57:00:805443,25,-13,-8,-3,-13,8,8,-12
14:57:00:821203,25,-13,-8,-3,-13,8,8,-12
14:57:00:821990,7,4,18,-23,-1,-6,-21,-2
14:57:00:827937,-5,-15,-28,-29,-4,-3,-21,18
14:57:00:843686,-5,-15,-28,-29,-4,-3,-21,18
14:57:00:844517,-1,-12,-9,5,0,-17,1,-14
14:57:00:850456,-3,16,15,15,19,-6,-18,-23
14:57:00:858692,-3,16,15,15,19,-6,-18,-23
14:57:00:859465,-38,-9,6,19,17,18,1,-10
14:57:00:865422,14,9,-28,-6,-17,5,1,20
14:57:00:881188,14,9,-28,-6,-17,5,1,20
14:57:00:881985,-21,-6,-2,3,4,-4,-3,-1
14:57:00:887912,29,-10,-8,0,-6,2,9,16
14:57:00:911856,29,-10,-8,0,-6,2,9,16
14:57:00:912626,15,16,15,12,3,-17,3,10
14:57:00:913386,-19,-23,-23,21,-24,-11,0,-11
14:57:00:918609,-19,-23,-23,21,-24,-11,0,-11
14:57:00:919460,-9,23,24,-21,-22,4,-7,-4
14:57:00:925416,-12,3,-3,2,27,4,-6,-8
14:57:00:941122,-12,3,-3,2,27,4,-6,-8
14:57:00:941904,19,-13,-24,-21,2,3,11,13
14:57:00:947930,-7,8,6,3,1,-2,-3,10
14:57:00:963690,-7,8,6,3,1,-2,-3,10
14:57:00:964496,8,10,21,-7,14,13,-1,-6
14:57:00:970452,-18,-20,-30,-18,-33,-8,2,-3
14:57:00:978600,-18,-20,-30,-18,-33,-8,2,-3
14:57:00:979463,-31,-8,-14,23,-32,-12,-2,-7
14:57:00:985455,2,17,34,-7,24,5,-10,4
14:57:01:1101,2,17,34,-7,24,5,-10,4
14:57:01:1889,6,-8,-15,5,1,-9,4,6
14:57:01:7935,-42,-1,6,-5,-20,-5,-3,-19
14:57:01:23700,-42,-1,6,-5,-20,-5,-3,-19
14:57:01:24489,22,-15,-6,1,6,6,2,-9
14:57:01:30396,10,26,34,9,-8,7,19,6
14:57:01:38661,10,26,34,9,-8,7,19,6
14:57:01:39409,-7,-4,-34,7,-3,-2,-3,3
14:57:01:45418,-4,-15,-30,2,14,-9,-4,-16
14:57:01:61180,-4,-15,-30,2,14,-9,-4,-16
14:57:01:61955,1,6,18,5,7,0,0,-1
14:57:01:67939,-8,-6,-28,-36,-36,-6,-9,3
14:57:01:83745,-8,-6,-28,-36,-36,-6,-9,3
14:57:01:84758,16,26,18,-15,9,6,15,14
14:57:01:90468,-25,0,30,37,13,2,-6,-13
14:57:01:98664,-25,0,30,37,13,2,-6,-13
14:57:01:99453,8,11,14,11,-5,10,-3,-13
14:57:01:105455,11,-5,-19,-5,13,-6,-8,-13
14:57:01:121161,11,-5,-19,-5,13,-6,-8,-13
14:57:01:122023,-34,-18,-28,-10,13,-1,-27,-14
14:57:01:127950,4,1,16,4,0,0,12,-6
14:57:01:143653,4,1,16,4,0,0,12,-6
14:57:01:144493,14,11,20,2,-1,-1,27,2
14:57:01:159320,-20,-16,-14,35,-32,-9,8,-4
14:57:01:160120,-20,-16,-14,35,-32,-9,8,-4
14:57:01:160991,0,13,42,2,-22,12,6,13
14:57:01:165438,12,-7,13,-3,0,2,-1,-5
14:57:01:181193,12,-7,13,-3,0,2,-1,-5
14:57:01:182024,6,-3,-30,-49,5,2,-6,-1
14:57:01:187918,17,-2,4,-12,4,0,-6,1
14:57:01:203605,17,-2,4,-12,4,0,-6,1
14:57:01:204458,-57,-20,7,8,19,-26,-29,-3
14:57:01:210440,-5,11,11,-15,13,-6,-33,3
14:57:01:218611,-5,11,11,-15,13,-6,-33,3
14:57:01:219453,8,-5,7,36,3,2,5,0
14:57:01:225487,11,7,4,0,-1,-17,-10,-2
14:57:01:241163,11,7,4,0,-1,-17,-10,-2
14:57:01:241956,6,-5,2,5,-41,-8,33,1
14:57:01:247885,5,-11,-19,-6,24,-4,12,-9
14:57:01:263611,5,-11,-19,-6,24,-4,12,-9
14:57:01:264444,14,19,30,16,0,12,4,5
14:57:01:270455,7,13,2,-5,9,2,12,-1
14:57:01:278638,7,13,2,-5,9,2,12,-1
14:57:01:279460,-1,-28,-39,-16,-4,7,-5,-28
14:57:01:301791,55,-5,-5,-4,3,-6,-19,37
14:57:01:302603,55,-5,-5,-4,3,-6,-19,37
14:57:01:303402,19,12,-12,-8,-5,-5,-3,-11
14:57:01:307926,-6,-6,38,0,13,0,7,-10
14:57:01:315456,-6,-6,38,0,13,0,7,-10
14:57:01:322964,-23,-14,-21,-23,2,-16,-16,5
14:57:01:330457,-11,14,-9,1,8,5,-9,4
14:57:01:338694,-11,14,-9,1,8,5,-9,4
14:57:01:339462,-15,1,5,6,6,-15,-1,-15
14:57:01:352912,3,-13,-12,-7,-4,8,20,20
14:57:01:361179,3,-13,-12,-7,-4,8,20,20
14:57:01:361900,-20,1,3,1,-13,-23,-35,-2
14:57:01:367982,14,2,5,-4,-41,-8,-8,4
14:57:01:375485,14,2,5,-4,-41,-8,-8,4
14:57:01:382912,38,-15,-32,-14,-22,-1,3,2
14:57:01:390410,-31,4,-6,-16,6,-3,-7,-11
14:57:01:398640,-31,4,-6,-16,6,-3,-7,-11
14:57:01:399451,20,19,22,21,10,14,9,17
14:57:01:412985,-22,-19,-36,11,-30,-9,-3,-4
14:57:01:421128,-22,-19,-36,11,-30,-9,-3,-4
14:57:01:421959,-10,-5,-21,-6,26,1,2,-5
14:57:01:436108,0,5,6,-3,-16,11,11,8
14:57:01:436949,0,5,6,-3,-16,11,11,8
14:57:01:442920,-6,3,-11,-25,-7,2,11,12
14:57:01:459248,10,-2,-1,-1,7,2,-8,1
14:57:01:460065,10,-2,-1,-1,7,2,-8,1
14:57:01:460854,3,-7,40,6,12,13,2,-10
14:57:01:481790,-4,-1,-3,3,3,5,9,23
14:57:01:482626,-4,-1,-3,3,3,5,9,23
14:57:01:483400,12,2,0,9,0,5,7,-6
14:57:01:487898,-2,-16,-19,2,-8,-3,18,-8
14:57:01:495536,-2,-16,-19,2,-8,-3,18,-8
14:57:01:502933,-9,2,3,-5,-2,-11,-10,-10
14:57:01:510395,17,-4,-3,14,-1,8,1,16
14:57:01:518637,17,-4,-3,14,-1,8,1,16
14:57:01:519475,-2,0,7,-9,-2,2,-17,-3
14:57:01:532893,-12,4,3,13,6,-1,-2,-11
14:57:01:541155,-12,4,3,13,6,-1,-2,-11
14:57:01:541922,-1,-1,8,-5,-6,-10,-6,9
14:57:01:547908,1,7,-15,-22,3,-1,-1,-4
14:57:01:555498,1,7,-15,-22,3,-1,-1,-4
14:57:01:562934,6,12,-18,-5,-9,-15,6,1
14:57:01:570391,16,5,20,20,21,15,19,8
14:57:01:578587,16,5,20,20,21,15,19,8
14:57:01:579455,-25,-20,-31,-31,7,-3,-3,-6
14:57:01:592937,-6,-9,-17,-40,-1,5,-1,-20
14:57:01:601139,-6,-9,-17,-40,-1,5,-1,-20
14:57:01:601948,-10,-2,0,6,4,5,3,3
14:57:01:607924,-15,-1,41,27,1,-13,-11,3
14:57:01:615502,-15,-1,41,27,1,-13,-11,3
14:57:01:622964,-2,6,6,18,4,-4,-8,-6
14:57:01:630447,-3,-9,-25,3,-4,1,-11,11
14:57:01:638614,-3,-9,-25,3,-4,1,-11,11
14:57:01:639434,5,20,41,25,16,-9,-25,1
14:57:01:652929,-2,11,-12,-7,-10,-8,-3,-6
14:57:01:661115,-2,11,-12,-7,-10,-8,-3,-6
14:57:01:661923,3,-15,-7,-11,4,15,11,14
14:57:01:667930,41,12,11,-6,-2,-9,-7,3
14:57:01:675485,41,12,11,-6,-2,-9,-7,3
14:57:01:682882,-27,-1,-12,9,-16,2,-9,-25
14:57:01:690439,-24,-7,-11,-1,2,0,-8,-12
14:57:01:698620,-24,-7,-11,-1,2,0,-8,-12
14:57:01:699443,1,-9,-3,16,6,9,8,21
14:57:01:713452,-17,0,24,18,2,-4,-13,-13
14:57:01:721132,-17,0,24,18,2,-4,-13,-13
14:57:01:721922,-8,6,-4,-20,-46,-5,0,-21
14:57:01:727899,15,21,38,14,7,13,10,9
14:57:01:735430,15,21,38,14,7,13,10,9
14:57:01:742923,11,-6,-18,-3,23,-3,8,6
14:57:01:750350,-22,-6,-34,-16,-4,-9,-14,-12
14:57:01:758694,-22,-6,-34,-16,-4,-9,-14,-12
14:57:01:759476,17,14,-3,-5,6,6,7,21
14:57:01:773026,-16,-10,-21,-8,-6,-4,7,-1
14:57:01:781137,-16,-10,-21,-8,-6,-4,7,-1
14:57:01:781964,-10,-13,-15,17,12,-16,-16,-27
14:57:01:787925,-4,4,12,-20,-3,12,6,-4
14:57:01:795547,-4,4,12,-20,-3,12,6,-4
14:57:01:802934,14,-8,-11,-16,-26,2,0,-6
14:57:01:810414,-11,-12,-9,-28,-10,6,7,-8
14:57:01:818666,-11,-12,-9,-28,-10,6,7,-8
14:57:01:819492,2,11,27,-7,-19,-7,-4,2
14:57:01:832933,2,-13,-22,-38,-44,-15,6,5
14:57:01:841191,2,-13,-22,-38,-44,-15,6,5
14:57:01:841935,1,6,10,6,21,9,-2,-3
14:57:01:847933,-6,2,17,19,11,-9,-11,-8
14:57:01:855504,-6,2,17,19,11,-9,-11,-8
14:57:01:862940,4,7,13,-4,-2,7,5,0
14:57:01:870414,-29,-10,-13,13,10,-1,-2,5
14:57:01:878569,-29,-10,-13,13,10,-1,-2,5
14:57:01:879409,-5,11,17,15,15,9,11,6
14:57:01:892910,15,-6,-10,14,12,-9,-6,1
14:57:01:901157,15,-6,-10,14,12,-9,-6,1
14:57:01:901980,-14,-8,-11,-34,-10,-15,17,-2
14:57:01:907905,8,21,45,9,32,-11,-6,-3
14:57:01:923663,8,21,45,9,32,-11,-6,-3
14:57:01:924439,3,-16,-23,-7,17,-4,1,5
14:57:01:930413,-17,-18,-18,-15,2,-2,-6,-13
14:57:01:938627,-17,-18,-18,-15,2,-2,-6,-13
14:57:01:939458,-3,15,20,-5,-3,3,1,0
14:57:01:952896,28,1,-11,4,-12,7,2,11
14:57:01:961189,28,1,-11,4,-12,7,2,11
14:57:01:961961,-25,-6,-2,17,5,5,-3,4
14:57:01:967918,29,-1,-21,-6,-13,4,10,8
14:57:01:975529,29,-1,-21,-6,-13,4,10,8
14:57:01:982965,1,-20,-24,1,5,5,-5,-1
14:57:01:990479,1,19,17,18,6,-12,-12,9
14:57:01:998617,1,19,17,18,6,-12,-12,9
14:57:01:999434,13,-2,-14,3,6,-11,-7,-16
14:57:02:12922,-5,0,8,25,19,15,9,-6
14:57:02:21202,-5,0,8,25,19,15,9,-6
14:57:02:21959,-12,-13,-20,-6,-7,-3,-14,-1
14:57:02:27939,5,-7,28,1,-17,0,2,-3
14:57:02:35409,5,-7,28,1,-17,0,2,-3
14:57:02:42988,20,2,17,18,-9,6,10,-19
14:57:02:50433,-13,-10,-33,-36,19,-4,3,2
14:57:02:58638,-13,-10,-33,-36,19,-4,3,2
14:57:02:59391,37,-7,-2,0,5,17,10,5
14:57:02:72956,15,-10,6,-6,-7,11,-6,6
14:57:02:81131,15,-10,6,-6,-7,11,-6,6
14:57:02:81911,-11,6,-13,-20,15,-3,-2,10
14:57:02:87941,-8,-2,-8,-16,-14,1,-2,0
14:57:02:95464,-8,-2,-8,-16,-14,1,-2,0
14:57:02:102926,-21,-17,-6,-6,-9,-6,-14,5
14:57:02:110384,-18,4,21,74,34,2,2,-22
14:57:02:118627,-18,4,21,74,34,2,2,-22
14:57:02:119441,7,15,28,18,-7,9,11,13
14:57:02:132984,-9,-7,2,-19,-6,-11,-7,-2
14:57:02:141108,-9,-7,2,-19,-6,-11,-7,-2
14:57:02:141919,-1,0,-28,7,-24,-17,-12,2
14:57:02:147955,-21,-9,-5,-21,-2,-8,-5,-5
14:57:02:155496,-21,-9,-5,-21,-2,-8,-5,-5
14:57:02:162914,-21,5,12,-14,3,-10,-2,-7
14:57:02:170366,-9,-6,-42,-33,-9,8,4,-12
14:57:02:178674,-9,-6,-42,-33,-9,8,4,-12
14:57:02:179475,20,-4,-14,-6,-18,7,8,2
14:57:02:192952,13,3,4,-13,-1,-1,-3,5
14:57:02:201140,13,3,4,-13,-1,-1,-3,5
14:57:02:201936,-10,-2,0,-6,-26,-11,2,-7
14:57:02:207942,-1,-7,30,26,6,-11,-10,-6
14:57:02:223672,-1,-7,30,26,6,-11,-10,-6
14:57:02:224472,-2,-7,-12,-6,3,-2,8,14
14:57:02:230404,-1,7,0,-13,-7,-6,2,-2
14:57:02:237958,-1,7,0,-13,-7,-6,2,-2
14:57:02:245457,-7,2,24,17,-2,1,-1,-2
14:57:02:252923,5,-12,-29,-3,-2,7,4,10
14:57:02:261562,5,-12,-29,-3,-2,7,4,10
14:57:02:267988,-21,3,-3,0,-5,3,-23,-5
14:57:02:276167,-5,8,14,9,-6,-6,2,-10
14:57:02:276982,-5,8,14,9,-6,-6,2,-10
14:57:02:291163,8,-1,9,39,9,-13,-14,-8
14:57:02:291896,-10,-11,-7,18,1,8,1,-7
14:57:02:297974,-10,-11,-7,18,1,8,1,-7
14:57:02:313561,5,-3,3,-4,16,10,3,14
14:57:02:314319,2,3,-12,-13,-10,-1,16,-6
14:57:02:321160,2,3,-12,-13,-10,-1,16,-6
14:57:02:321939,-1,-2,-2,-29,-6,-4,3,-9
14:57:02:336538,3,4,8,4,5,-7,5,-1
14:57:02:337434,3,4,8,4,5,-7,5,-1
14:57:02:342889,7,6,19,2,8,4,7,7
14:57:02:350418,2,-3,-14,-9,-2,3,-4,4
14:57:02:357975,2,-3,-14,-9,-2,3,-4,4
14:57:02:365416,-15,-17,-13,-1,-3,14,9,-12
14:57:02:372935,-7,12,21,8,20,-3,-25,-6
14:57:02:381168,-7,12,21,8,20,-3,-25,-6
14:57:02:381992,4,-7,-30,-22,-27,3,-2,8
14:57:02:396192,13,-16,-16,3,-8,2,6,6
14:57:02:396996,13,-16,-16,3,-8,2,6,6
14:57:02:411077,-4,-2,6,13,2,-15,-7,-2
14:57:02:411883,-9,8,11,5,-2,-5,6,-2
14:57:02:417979,-9,8,11,5,-2,-5,6,-2
14:57:02:433656,-10,12,7,-1,9,5,1,-9
14:57:02:434479,7,-10,-39,-33,-11,18,1,17
14:57:02:441175,7,-10,-39,-33,-11,18,1,17
14:57:02:441919,5,3,1,-11,-1,-9,-11,1
14:57:02:456110,-5,-4,7,-16,2,2,12,-8
14:57:02:456925,-5,-4,7,-16,2,2,12,-8
14:57:02:462958,-3,-1,1,19,-15,-3,6,-3
14:57:02:470458,-6,-4,-3,-15,-21,-1,-3,-7
14:57:02:477978,-6,-4,-3,-15,-21,-1,-3,-7
14:57:02:485379,15,12,18,-15,-18,-17,1,-2
14:57:02:492918,-2,-4,21,31,26,-10,-20,0
14:57:02:501142,-2,-4,21,31,26,-10,-20,0
14:57:02:501935,8,-8,-5,26,25,4,-8,4
14:57:02:516598,-7,6,-8,-3,-10,8,-7,-11
14:57:02:517375,-7,6,-8,-3,-10,8,-7,-11
14:57:02:522892,-9,-8,-7,7,25,-8,-2,1
14:57:02:530371,25,2,-1,-13,-6,-8,-2,10
14:57:02:537949,25,2,-1,-13,-6,-8,-2,10
14:57:02:545440,4,2,-9,-15,-40,-10,-8,-15
14:57:02:552890,1,5,-6,-9,-28,-4,13,-2
14:57:02:561148,1,5,-6,-9,-28,-4,13,-2
14:57:02:561928,-15,-9,5,3,47,4,3,-1
14:57:02:576139,3,7,6,2,4,-18,-4,5
14:57:02:576955,3,7,6,2,4,-18,-4,5
14:57:02:582905,-3,2,-24,-18,-3,4,-1,-1
14:57:02:590418,-2,-4,-2,26,1,4,-6,-9
14:57:02:597989,-2,-4,-2,26,1,4,-6,-9
14:57:02:605429,-4,-10,-11,1,0,7,-5,-6
14:57:02:612950,-18,2,-9,-26,-4,1,-5,1
14:57:02:621158,-18,2,-9,-26,-4,1,-5,1
14:57:02:621950,10,-20,-8,-37,-37,0,-7,-5
14:57:02:636111,3,2,13,16,-2,0,-2,1
14:57:02:636932,3,2,13,16,-2,0,-2,1
14:57:02:642941,-59,3,12,-8,21,9,6,0
14:57:02:650443,4,-11,-7,-6,5,1,-11,5
14:57:02:657994,4,-11,-7,-6,5,1,-11,5
14:57:02:665440,19,15,21,16,6,-5,9,2
14:57:02:672910,2,9,10,14,-11,-9,3,-8
14:57:02:681081,2,9,10,14,-11,-9,3,-8
14:57:02:681880,-2,1,-7,-2,18,13,9,-5
14:57:02:696182,-2,-22,-20,-11,-4,-13,2,-3
14:57:02:696962,-2,-22,-20,-11,-4,-13,2,-3
14:57:02:702918,9,-5,28,15,-2,0,10,4
14:57:02:710423,-11,-7,1,25,22,6,-19,-3
14:57:02:718002,-11,-7,1,25,22,6,-19,-3
14:57:02:725479,0,0,-10,-1,-9,-5,-8,-8
14:57:02:732970,-7,12,32,-4,0,-4,0,-4
14:57:02:741176,-7,12,32,-4,0,-4,0,-4
14:57:02:741942,7,-4,-4,1,4,-9,-23,5
14:57:02:756149,-3,7,3,7,15,6,4,-1
14:57:02:756944,-3,7,3,7,15,6,4,-1
14:57:02:762957,10,-7,-11,-24,-33,-7,5,-3
14:57:02:770446,-9,7,0,-9,14,-3,0,-5
14:57:02:777972,-9,7,0,-9,14,-3,0,-5
14:57:02:785378,-2,2,-1,-1,6,10,1,5
14:57:02:792965,-9,-15,-25,-28,-19,16,12,-5
14:57:02:801164,-9,-15,-25,-28,-19,16,12,-5
14:57:02:801941,35,14,27,33,13,-3,1,10
14:57:02:824291,2,2,-7,-9,5,-15,-6,-2
14:57:02:825146,2,2,-7,-9,5,-15,-6,-2
14:57:02:825903,1,-3,-9,11,15,-9,-10,-9
14:57:02:830447,8,9,19,22,19,7,8,12
14:57:02:846213,8,9,19,22,19,7,8,12
14:57:02:846966,-11,1,-9,-8,-7,8,8,3
14:57:02:852958,-3,-2,-13,-20,-17,4,3,-3
14:57:02:868663,-3,-2,-13,-20,-17,4,3,-3
14:57:02:869426,0,-1,-19,-18,-21,-15,-18,-1
14:57:02:876184,17,13,19,-42,-17,-3,3,10
14:57:02:876999,17,13,19,-42,-17,-3,3,10
14:57:02:882943,-2,4,8,-26,5,-1,1,-4
14:57:02:890434,-35,-10,-16,16,3,0,8,-6
14:57:02:898059,-35,-10,-16,16,3,0,8,-6
14:57:02:905485,9,3,-16,-10,-4,3,-1,-10
14:57:02:912963,11,-9,-21,-6,12,13,2,0
14:57:02:921142,11,-9,-21,-6,12,13,2,0
14:57:02:921944,19,5,-11,9,-12,-4,-7,2
14:57:02:936082,11,22,39,27,-9,-9,0,8
14:57:02:936932,11,22,39,27,-9,-9,0,8
14:57:02:942980,-15,-10,-2,-6,6,-5,0,-4
14:57:02:950466,-4,-8,-4,-2,-20,-9,-7,-9
14:57:02:957991,-4,-8,-4,-2,-20,-9,-7,-9
14:57:02:965435,4,-3,3,20,-14,8,0,11
14:57:02:972994,-3,3,-1,-13,-7,-2,1,7
14:57:02:981117,-3,3,-1,-13,-7,-2,1,7
14:57:02:981934,-28,-3,19,37,7,1,3,-5
14:57:02:996176,-14,-17,-11,-8,16,-8,-7,-25
14:57:02:996932,-14,-17,-11,-8,16,-8,-7,-25
14:57:03:2915,25,3,-12,-5,33,-21,2,14
14:57:03:10462,18,-8,-15,2,-1,-18,-11,8
14:57:03:18053,18,-8,-15,2,-1,-18,-11,8
14:57:03:25413,-23,4,-1,0,-8,6,-14,-18
14:57:03:32935,8,-4,11,8,4,9,0,2
14:57:03:41150,8,-4,11,8,4,9,0,2
14:57:03:41976,-3,2,20,29,13,6,4,7
14:57:03:56110,0,-3,9,25,20,-4,0,-8
14:57:03:56936,0,-3,9,25,20,-4,0,-8
14:57:03:62894,1,2,7,1,11,-4,-2,-2
14:57:03:70390,6,4,6,-8,-5,-5,-3,11
14:57:03:77983,6,4,6,-8,-5,-5,-3,11
14:57:03:85390,0,-1,-4,-43,-36,-9,-2,-5
14:57:03:92954,-1,2,-15,21,13,11,-2,5
14:57:03:101182,-1,2,-15,21,13,11,-2,5
14:57:03:101969,-22,8,5,8,-4,11,2,-4
14:57:03:116167,-6,-14,-7,-9,12,6,-5,-2
14:57:03:116967,-6,-14,-7,-9,12,6,-5,-2
14:57:03:122905,13,-8,-9,13,-12,-10,-4,-1
14:57:03:130382,-4,4,-9,-13,13,5,8,-7
14:57:03:137992,-4,4,-9,-13,13,5,8,-7
14:57:03:145490,-5,-3,-3,-7,29,-11,-9,3
14:57:03:152954,0,0,20,35,9,-9,-21,-7
14:57:03:161097,0,0,20,35,9,-9,-21,-7
14:57:03:161916,-19,-8,-13,-18,-3,16,14,-9
14:57:03:176163,-11,-6,-15,-13,-16,20,-3,-10
14:57:03:176953,-11,-6,-15,-13,-16,20,-3,-10
14:57:03:182929,11,2,13,6,8,7,10,5
14:57:03:198661,3,19,13,-14,-39,-28,0,-4
14:57:03:199489,3,19,13,-14,-39,-28,0,-4
14:57:03:205453,4,2,8,-1,13,4,9,5
14:57:03:212944,-5,-2,-11,2,-25,-11,5,0
14:57:03:220551,-5,-2,-11,2,-25,-11,5,0
14:57:03:227968,-5,-8,-19,-10,-9,-13,-13,-6
14:57:03:236109,20,-6,-16,-5,3,10,-3,7
14:57:03:236907,20,-6,-16,-5,3,10,-3,7
14:57:03:242992,-2,-9,-17,-14,5,35,-13,-3
14:57:03:258628,-2,3,39,17,-3,10,15,13
14:57:03:259453,-2,3,39,17,-3,10,15,13
14:57:03:265415,-14,-6,-19,-1,-43,-41,-14,-13
14:57:03:272927,-6,-1,-10,11,-15,-24,-3,-6
14:57:03:280451,-6,-1,-10,11,-15,-24,-3,-6
14:57:03:287906,-14,-13,-15,-13,-9,2,10,-16
14:57:03:296141,0,-11,-11,0,13,5,-9,-1
14:57:03:296910,0,-11,-11,0,13,5,-9,-1
14:57:03:302871,0,1,9,14,-2,26,-1,2
14:57:03:318644,-10,7,3,1,17,29,9,-1
14:57:03:319418,-10,7,3,1,17,29,9,-1
14:57:03:325475,6,6,-1,-14,4,-11,12,10
14:57:03:332969,-34,5,4,-15,-10,-37,-18,0
14:57:03:340478,-34,5,4,-15,-10,-37,-18,0
14:57:03:347908,-7,1,13,-13,10,-7,-2,0
14:57:03:356119,16,-12,-27,-7,-6,11,-10,-11
14:57:03:356937,16,-12,-27,-7,-6,11,-10,-11
14:57:03:362873,3,-3,8,4,21,10,6,0
14:57:03:378624,-8,-14,-8,-16,10,23,9,-17
14:57:03:379438,-8,-14,-8,-16,10,23,9,-17
14:57:03:385371,17,9,-5,-4,-20,-10,7,7
14:57:03:392927,14,3,-3,-41,-12,-22,17,8
14:57:03:400511,14,3,-3,-41,-12,-22,17,8
14:57:03:407917,-4,1,7,20,1,-1,5,1
14:57:03:424288,-6,-2,-9,-12,-1,-12,-13,-4
14:57:03:425117,-6,-2,-9,-12,-1,-12,-13,-4
14:57:03:425930,-5,-8,-18,0,-9,-1,-1,-4
14:57:03:446767,8,17,29,32,-2,12,-6,10
14:57:03:447634,8,17,29,32,-2,12,-6,10
14:57:03:448432,12,-10,-5,-8,-2,10,-9,4
14:57:03:452911,-39,1,-16,-6,5,-18,3,-9
14:57:03:460485,-39,1,-16,-6,5,-18,3,-9
14:57:03:467964,5,12,25,3,20,4,1,9
14:57:03:476125,24,-5,-9,5,-1,6,1,-2
14:57:03:476926,24,-5,-9,5,-1,6,1,-2
14:57:03:482955,-24,-9,-1,5,11,3,-8,2
14:57:03:498636,12,4,1,-5,-10,0,6,7
14:57:03:499411,12,4,1,-5,-10,0,6,7
14:57:03:505442,8,-7,-14,-5,-1,-15,-2,1
14:57:03:512960,-27,-7,-5,-6,-3,-9,-5,-15
14:57:03:520462,-27,-7,-5,-6,-3,-9,-5,-15
14:57:03:527859,30,-1,8,-3,-30,8,3,-5
14:57:03:536085,12,-1,-3,9,4,-2,2,5
14:57:03:536921,12,-1,-3,9,4,-2,2,5
14:57:03:542913,14,-1,-9,1,18,-9,-2,-1
14:57:03:566881,31,4,27,21,-1,15,12,7
14:57:03:567672,31,4,27,21,-1,15,12,7
14:57:03:568414,21,-5,-15,-19,2,20,17,-4
14:57:03:572971,-7,5,7,12,0,1,-8,-3
14:57:03:580460,-7,5,7,12,0,1,-8,-3
14:57:03:587945,5,11,22,32,7,-7,-4,-24
14:57:03:596158,21,7,22,19,7,3,11,15
14:57:03:596971,21,7,22,19,7,3,11,15
14:57:03:602926,-29,-9,0,-12,1,-19,-4,5
14:57:03:618610,-44,-13,-14,-4,-9,-13,-19,-14
14:57:03:619419,-44,-13,-14,-4,-9,-13,-19,-14
14:57:03:625431,-14,-8,12,1,-3,11,-1,16
14:57:03:632927,14,-6,-11,-25,14,5,8,10
14:57:03:640449,14,-6,-11,-25,14,5,8,10
14:57:03:647916,-19,2,-5,29,-1,-15,-11,-10
14:57:03:656119,12,-3,-15,-26,-22,-8,-8,4
14:57:03:656941,12,-3,-15,-26,-22,-8,-8,4
14:57:03:662910,-6,3,11,1,-8,8,-5,-15
14:57:03:679109,-13,-5,5,5,8,4,-3,-15
14:57:03:679901,-13,-5,5,5,8,4,-3,-15
14:57:03:685374,-12,-3,-25,-13,-11,-9,9,-8
14:57:03:701169,4,-15,-21,-8,-4,2,4,1
14:57:03:701925,4,-15,-21,-8,-4,2,4,1
14:57:03:707997,8,28,39,-24,-1,1,3,17
14:57:03:724294,-14,-13,-13,7,-11,-15,-12,6
14:57:03:725135,-14,-13,-13,7,-11,-15,-12,6
14:57:03:725930,9,11,-11,7,5,3,14,16
14:57:03:738640,-3,6,16,5,9,13,4,-1
14:57:03:739452,-3,6,16,5,9,13,4,-1
14:57:03:745452,-4,-10,-6,0,-3,-9,-11,-8
14:57:03:752940,12,6,-11,1,-2,7,13,10
14:57:03:760493,12,6,-11,1,-2,7,13,10
14:57:03:767939,12,13,23,-9,-8,-16,-4,7
14:57:03:776132,-42,-3,-7,13,10,0,-1,-1
14:57:03:776918,-42,-3,-7,13,10,0,-1,-1
14:57:03:782881,-43,-14,-18,-2,-15,11,-5,1
14:57:03:799140,7,-9,-3,3,3,16,-7,-4
14:57:03:799904,7,-9,-3,3,3,16,-7,-4
14:57:03:805454,-8,-12,-36,8,32,6,-9,-10
14:57:03:821129,12,21,24,24,6,-16,-22,-10
14:57:03:821982,12,21,24,24,6,-16,-22,-10
14:57:03:827955,-2,-18,-32,-59,-5,-2,1,-5
14:57:03:836092,2,-8,-10,-4,-13,-21,-3,-13
14:57:03:836930,2,-8,-10,-4,-13,-21,-3,-13
14:57:03:842925,23,0,4,11,-14,-11,-10,9
14:57:03:858615,8,7,6,-16,-12,11,-1,-2
14:57:03:859390,8,7,6,-16,-12,11,-1,-2
14:57:03:865463,11,-3,-10,0,-18,-3,5,8
14:57:03:872935,5,10,9,17,0,-3,-10,3
14:57:03:880477,5,10,9,17,0,-3,-10,3
14:57:03:887936,20,20,13,16,17,-5,-4,-5
14:57:03:896148,-16,-12,-3,4,4,4,9,-10
14:57:03:896931,-16,-12,-3,4,4,4,9,-10
14:57:03:902937,-42,-10,2,0,-15,-1,5,-8
14:57:03:918598,5,8,22,3,-7,-6,-15,-7
14:57:03:919465,5,8,22,3,-7,-6,-15,-7
14:57:03:925458,-3,7,20,-4,5,4,-1,-7
14:57:03:932949,12,-15,-27,-9,18,-2,0,0
14:57:03:940476,12,-15,-27,-9,18,-2,0,0
14:57:03:956768,11,6,1,-13,-10,8,3,4
14:57:03:957560,3,0,0,-25,-9,-4,2,2
14:57:03:958360,3,0,0,-25,-9,-4,2,2
14:57:03:962894,-10,-10,-11,0,-14,-8,-13,-25
14:57:03:979093,-10,-8,-15,-27,-12,-21,-9,2
14:57:03:979876,-10,-8,-15,-27,-12,-21,-9,2
14:57:03:985396,3,-8,3,-5,3,-4,-14,1
14:57:04:1176,6,10,16,-10,-16,11,28,1
14:57:04:1944,6,10,16,-10,-16,11,28,1
14:57:04:7952,-2,-4,2,7,17,8,-1,-2
14:57:04:16179,-12,-12,-17,-32,-16,4,1,-10
14:57:04:16940,-12,-12,-17,-32,-16,4,1,-10
14:57:04:22982,23,10,20,4,10,1,8,-2
14:57:04:38644,-6,8,3,13,14,-6,-3,15
14:57:04:39447,-6,8,3,13,14,-6,-3,15
14:57:04:45471,-26,-10,-15,9,11,-18,-14,-1
14:57:04:52964,-7,-9,-13,-3,-16,8,7,-6
14:57:04:60416,-7,-9,-13,-3,-16,8,7,-6
14:57:04:76772,-5,3,16,20,12,19,7,-19
14:57:04:77574,-4,-5,-12,8,0,-10,0,-12
14:57:04:78403,-4,-5,-12,8,0,-10,0,-12
14:57:04:82939,-3,-3,-14,16,-7,2,-10,4
14:57:04:99131,-3,-3,-14,16,-7,2,-10,4
14:57:04:99928,18,10,9,11,9,1,2,18
14:57:04:105427,-1,-4,-8,-28,-30,-16,7,4
14:57:04:121625,-1,-4,-8,-28,-30,-16,7,4
14:57:04:122438,2,-2,-11,-17,-11,-13,-13,-1
14:57:04:127942,-3,5,2,1,-20,-7,-12,-8
14:57:04:136145,-3,5,2,1,-20,-7,-12,-8
14:57:04:136936,-3,-12,-11,-30,0,7,0,-1
14:57:04:150443,2,-5,-17,-22,-5,0,-3,9
14:57:04:158655,2,-5,-17,-22,-5,0,-3,9
14:57:04:159430,-9,-4,7,29,15,-1,4,6
14:57:04:165408,2,0,10,-5,-2,3,18,-11
14:57:04:181115,2,0,10,-5,-2,3,18,-11
14:57:04:181951,-3,5,2,34,10,5,-1,0
14:57:04:187886,8,5,15,20,-6,0,1,7
14:57:04:196202,8,5,15,20,-6,0,1,7
14:57:04:196975,3,10,-3,12,25,-1,5,12
14:57:04:210403,-21,-5,-13,-12,24,8,-10,-3
14:57:04:218687,-21,-5,-13,-12,24,8,-10,-3
14:57:04:219407,4,2,-5,-68,-13,-2,-4,-7
14:57:04:225432,0,-7,-9,-1,12,-6,2,5
14:57:04:241181,0,-7,-9,-1,12,-6,2,5
14:57:04:241933,9,-1,0,-6,7,19,4,0
14:57:04:247920,8,-2,-11,-5,10,1,11,17
14:57:04:256163,8,-2,-11,-5,10,1,11,17
14:57:04:256924,-28,-4,4,29,2,-18,-10,-14
14:57:04:270431,-10,-9,8,13,1,-4,4,-3
14:57:04:278650,-10,-9,8,13,1,-4,4,-3
14:57:04:279459,-7,-6,6,-4,-12,-11,-12,-8
14:57:04:285389,7,9,12,-1,-6,-6,4,13
14:57:04:301165,7,9,12,-1,-6,-6,4,13
14:57:04:301927,4,20,14,22,13,8,14,4
14:57:04:307888,1,-11,-10,1,-24,-4,0,-9
14:57:04:316169,1,-11,-10,1,-24,-4,0,-9
14:57:04:316988,-2,-10,-16,-7,-2,4,-7,-24
14:57:04:330513,0,-1,3,-15,30,3,-6,8
14:57:04:338651,0,-1,3,-15,30,3,-6,8
14:57:04:339442,-1,3,-2,-7,-1,5,-3,4
14:57:04:352986,9,14,7,4,4,14,5,0
14:57:04:361110,9,14,7,4,4,14,5,0
14:57:04:361975,-4,-6,-9,-9,-23,-8,4,1
14:57:04:376819,-9,-17,-25,-10,-4,2,-2,-9
14:57:04:377598,-9,-17,-25,-10,-4,2,-2,-9
14:57:04:378411,15,-1,7,18,-9,-16,-14,1
14:57:04:390444,5,-3,-12,6,9,-12,-14,5
14:57:04:398673,5,-3,-12,6,9,-12,-14,5
14:57:04:399477,6,1,15,-3,8,9,1,6
14:57:04:405497,2,13,17,-13,-2,-2,-1,4
14:57:04:421168,2,13,17,-13,-2,-2,-1,4
14:57:04:422027,-8,-2,-9,3,-4,16,11,-2
14:57:04:427937,-56,-3,7,9,-9,4,5,-27
14:57:04:436165,-56,-3,7,9,-9,4,5,-27
14:57:04:436955,26,-2,1,-15,-10,-5,-1,4
14:57:04:450412,17,-10,-22,11,-30,-10,4,-1
14:57:04:458641,17,-10,-22,11,-30,-10,4,-1
14:57:04:459439,7,-6,-2,5,24,-2,-13,15
14:57:04:465432,7,8,24,24,5,7,1,4
14:57:04:481184,7,8,24,24,5,7,1,4
14:57:04:481962,9,-6,-4,25,13,-1,6,-5
14:57:04:487890,-1,-8,-21,33,31,10,-5,7
14:57:04:496202,-1,-8,-21,33,31,10,-5,7
14:57:04:496960,-14,-8,-1,4,-13,-16,-2,-34
14:57:04:510401,4,2,5,-21,-25,-12,-9,13
14:57:04:518649,4,2,5,-21,-25,-12,-9,13
14:57:04:519475,-9,1,-7,-4,11,17,16,13
14:57:04:525433,8,-5,10,-19,9,-3,4,-7
14:57:04:541219,8,-5,10,-19,9,-3,4,-7
14:57:04:541988,-14,9,16,-21,-5,-19,-11,-17
14:57:04:547955,-43,1,-24,-11,-13,-4,-11,-12
14:57:04:556198,-43,1,-24,-11,-13,-4,-11,-12
14:57:04:556986,2,11,11,4,12,7,-1,14
14:57:04:570390,24,-6,-1,0,11,1,3,12
14:57:04:578692,24,-6,-1,0,11,1,3,12
14:57:04:579483,-25,-9,-37,-39,-60,-8,0,-17
14:57:04:585409,11,0,14,2,-8,-3,3,-1
14:57:04:601176,11,0,14,2,-8,-3,3,-1
14:57:04:601992,21,9,15,11,7,2,-2,-1
14:57:04:607936,22,7,13,-14,-10,6,4,3
14:57:04:616196,22,7,13,-14,-10,6,4,3
14:57:04:617009,2,-11,-13,-41,-38,-6,8,4
14:57:04:630439,-2,11,-14,29,7,-8,-16,-12
14:57:04:654327,-2,11,-14,29,7,-8,-16,-12
14:57:04:655169,8,2,8,16,3,9,10,9
14:57:04:655965,-22,-2,-18,-11,-8,1,-1,-4
14:57:04:661207,-22,-2,-18,-11,-8,1,-1,-4
14:57:04:661970,-14,-1,-11,22,4,5,-3,-5
14:57:04:667976,4,-10,0,8,8,2,-8,5
14:57:04:676145,4,-10,0,8,8,2,-8,5
14:57:04:676949,-3,-6,9,-1,8,8,-6,9
14:57:04:690452,30,-2,15,5,-7,0,14,-15
14:57:04:698615,30,-2,15,5,-7,0,14,-15
14:57:04:699421,11,-8,-10,-34,3,-3,-17,-2
14:57:04:705459,-5,3,-3,11,26,-3,-23,-6
14:57:04:721162,-5,3,-3,11,26,-3,-23,-6
14:57:04:721950,-8,7,12,31,-3,-4,-11,3
14:57:04:727891,-10,0,0,-32,-19,1,3,-5
14:57:04:736101,-10,0,0,-32,-19,1,3,-5
14:57:04:736903,1,-4,-13,3,14,2,2,-1
14:57:04:750458,-5,-5,-5,-2,4,6,8,1
14:57:04:758623,-5,-5,-5,-2,4,6,8,1
14:57:04:759456,6,5,-1,-28,-14,-6,8,12
14:57:04:765446,-4,0,6,16,-10,-8,-8,-4
14:57:04:781137,-4,0,6,16,-10,-8,-8,-4
14:57:04:781950,-8,-13,-9,7,4,-3,3,-7
14:57:04:787886,-5,0,5,-4,-16,-6,2,7
14:57:04:796192,-5,0,5,-4,-16,-6,2,7
14:57:04:796984,-2,-7,-15,-1,-7,-10,-8,-5
14:57:04:810392,-17,8,11,2,-13,-21,1,4
14:57:04:818654,-17,8,11,2,-13,-21,1,4
14:57:04:819475,-3,-1,-11,9,12,1,3,-1
14:57:04:825408,-1,1,-10,-1,-1,0,-3,-8
14:57:04:841177,-1,1,-10,-1,-1,0,-3,-8
14:57:04:841930,-24,-9,3,-9,8,-1,-4,-1
14:57:04:847908,-25,-17,-2,-20,-5,7,0,-9
14:57:04:856145,-25,-17,-2,-20,-5,7,0,-9
14:57:04:856927,3,32,22,1,-2,-5,-7,1
14:57:04:870422,-3,15,23,-15,3,7,11,6
14:57:04:878631,-3,15,23,-15,3,7,11,6
14:57:04:879450,0,-13,-18,-7,-18,-2,7,0
14:57:04:885416,5,-2,-14,-2,1,-8,-3,1
14:57:04:909324,5,-2,-14,-2,1,-8,-3,1
14:57:04:910093,1,6,-2,11,2,3,-6,-4
14:57:04:910878,10,-13,-12,-30,-79,-1,-3,3
14:57:04:916137,10,-13,-12,-30,-79,-1,-3,3
14:57:04:916913,-1,-10,-6,33,23,2,3,-1
14:57:04:930891,14,5,3,22,7,-3,-7,4
14:57:04:938586,14,5,3,22,7,-3,-7,4
14:57:04:939439,-1,-3,-1,-23,-12,8,4,-4
14:57:04:945436,-4,0,-5,-8,23,3,0,-7
14:57:04:961105,-4,0,-5,-8,23,3,0,-7
14:57:04:961888,-15,-22,-14,4,6,-1,-7,6
14:57:04:967917,-6,-9,-11,0,6,-7,-5,-5
14:57:04:976116,-6,-9,-11,0,6,-7,-5,-5
14:57:04:976915,29,10,21,6,-15,-2,7,3
14:57:04:990417,-12,-33,-29,6,-7,-8,-2,-10
14:57:04:998623,-12,-33,-29,6,-7,-8,-2,-10
14:57:04:999413,4,10,21,-7,7,-1,-3,-6
14:57:05:5460,18,11,1,-1,24,12,9,-11
14:57:05:21208,18,11,1,-1,24,12,9,-11
14:57:05:21970,11,-8,-10,0,-12,4,4,9
14:57:05:27962,1,6,14,12,21,7,10,16
14:57:05:36106,1,6,14,12,21,7,10,16
14:57:05:36908,-27,2,-1,0,-13,-3,-11,-12
14:57:05:50485,12,2,-6,-25,-6,-7,-6,-1
14:57:05:58641,12,2,-6,-25,-6,-7,-6,-1
14:57:05:59441,-9,2,17,-5,-13,-6,5,-8
14:57:05:65536,-2,4,14,-2,-14,-11,-14,-9
14:57:05:80929,-2,4,14,-2,-14,-11,-14,-9
14:57:05:88582,2,-12,-12,-2,-4,-9,-9,-2
14:57:05:89366,-6,0,8,36,-4,2,4,5
14:57:05:95555,-6,0,8,36,-4,2,4,5
14:57:05:102998,8,8,18,16,-3,7,-10,5
14:57:05:110456,6,15,-3,-17,-34,2,2,4
14:57:05:118647,6,15,-3,-17,-34,2,2,4
14:57:05:119432,1,-6,-28,-10,0,-9,0,6
14:57:05:132923,-28,-12,-16,-10,15,4,6,-7
14:57:05:141147,-28,-12,-16,-10,15,4,6,-7
14:57:05:141908,-1,9,15,-53,-26,-6,-9,-1
14:57:05:147938,-19,15,15,4,12,7,5,7
14:57:05:155411,-19,15,15,4,12,7,5,7
14:57:05:162920,-10,-13,-20,7,17,3,7,-3
14:57:05:170467,31,3,-1,-4,8,6,-7,24
14:57:05:186122,31,3,-1,-4,8,6,-7,24
14:57:05:186906,-12,1,6,13,4,-4,-4,-12
14:57:05:192930,-4,-6,6,0,5,-9,0,-3
14:57:05:209288,-4,-6,6,0,5,-9,0,-3
14:57:05:210114,-2,10,7,11,13,4,1,1
14:57:05:210923,6,-3,-6,2,7,1,-2,-8
14:57:05:215468,6,-3,-6,2,7,1,-2,-8
14:57:05:222949,-3,-6,-13,11,-1,-2,9,1
14:57:05:230420,-7,3,-6,-15,-10,-2,12,-19
14:57:05:238593,-7,3,-6,-15,-10,-2,12,-19
14:57:05:239435,6,-4,-13,11,17,-5,-3,1
14:57:05:252908,-1,-4,3,20,0,-7,-11,-5
14:57:05:261111,-1,-4,3,20,0,-7,-11,-5
14:57:05:261936,-1,10,2,9,3,1,-1,0
14:57:05:267961,0,-8,-17,-18,5,6,0,-5
14:57:05:275467,0,-8,-17,-18,5,6,0,-5
14:57:05:282903,4,-6,4,-8,-2,1,3,-3
14:57:05:290429,-1,5,14,4,12,0,-4,1
14:57:05:298646,-1,5,14,4,12,0,-4,1
14:57:05:299462,9,-1,4,-16,10,-2,4,6
14:57:05:313000,3,-10,-9,24,33,-6,-4,8
14:57:05:321155,3,-10,-9,24,33,-6,-4,8
14:57:05:321904,8,16,12,30,3,11,8,-4
14:57:05:327932,-5,3,14,9,-3,3,0,-8
14:57:05:335441,-5,3,14,9,-3,3,0,-8
14:57:05:342928,-33,-19,-20,-12,9,-6,-12,-7
14:57:05:350431,3,0,-9,-10,-28,-6,2,13
14:57:05:358680,3,0,-9,-10,-28,-6,2,13
14:57:05:359415,-2,2,-3,-4,-8,8,3,9
14:57:05:372911,0,1,14,12,15,6,11,5
14:57:05:381110,0,1,14,12,15,6,11,5
14:57:05:381925,10,-3,2,-1,9,-3,-4,-7
14:57:05:387861,1,-5,-16,-29,-18,0,-6,-9
14:57:05:395477,1,-5,-16,-29,-18,0,-6,-9
14:57:05:402920,-1,-10,-2,16,-3,-1,4,-5
14:57:05:410394,-14,-7,2,-1,-2,-7,-4,-9
14:57:05:418634,-14,-7,2,-1,-2,-7,-4,-9
14:57:05:419510,0,-13,-7,-13,-21,-13,-3,-1
14:57:05:432885,19,11,16,19,9,11,16,19
14:57:05:441173,19,11,16,19,9,11,16,19
14:57:05:441923,3,-4,-1,-15,3,-18,-17,-6
14:57:05:447910,10,12,4,-17,-21,2,-1,-8
14:57:05:463635,10,12,4,-17,-21,2,-1,-8
14:57:05:464429,-6,-2,-2,-11,-8,18,2,-9
14:57:05:470425,-4,-12,-26,12,-23,-6,-5,7
14:57:05:486117,-4,-12,-26,12,-23,-6,-5,7
14:57:05:486918,-7,0,40,2,-9,-9,1,2
14:57:05:492920,-12,-9,-20,-17,-8,7,-9,-7
14:57:05:501112,-12,-9,-20,-17,-8,7,-9,-7
14:57:05:501912,-1,-4,-20,-48,-14,-14,-9,-11
14:57:05:507916,-29,-1,-8,-9,8,0,-6,-10
14:57:05:515518,-29,-1,-8,-9,8,0,-6,-10
14:57:05:522902,-2,-3,-1,22,0,1,-14,-9
14:57:05:530416,19,-4,-4,-10,-8,-16,-16,-8
14:57:05:538672,19,-4,-4,-10,-8,-16,-16,-8
14:57:05:539457,12,6,8,27,27,4,18,29
14:57:05:552919,-6,-7,-13,5,6,1,4,-3
14:57:05:561121,-6,-7,-13,5,6,1,4,-3
14:57:05:561905,1,4,-1,11,-3,5,-1,5
14:57:05:567938,8,3,22,4,23,0,4,-2
14:57:05:575516,8,3,22,4,23,0,4,-2
14:57:05:582964,0,6,5,11,-10,10,8,4
14:57:05:590440,-2,-2,-12,-3,-8,-14,-1,7
14:57:05:598638,-2,-2,-12,-3,-8,-14,-1,7
14:57:05:599428,-6,-17,-38,-18,-21,-7,-5,-7
14:57:05:612958,-3,4,2,21,25,6,0,-3
14:57:05:621132,-3,4,2,21,25,6,0,-3
14:57:05:621901,4,-1,-6,-20,-2,-4,-6,-9
14:57:05:627954,-12,-11,1,-4,7,-3,-12,5
14:57:05:635417,-12,-11,1,-4,7,-3,-12,5
14:57:05:642931,-3,6,24,-25,4,2,7,4
14:57:05:650432,-3,-10,-10,-7,7,-8,-5,1
14:57:05:658619,-3,-10,-10,-7,7,-8,-5,1
14:57:05:659389,17,9,0,-21,19,8,6,8
14:57:05:672939,10,16,19,1,-14,-8,-9,6
14:57:05:681109,10,16,19,1,-14,-8,-9,6
14:57:05:681916,6,9,-11,21,7,6,3,-6
14:57:05:687943,-2,-8,-10,-17,3,11,1,1
14:57:05:695479,-2,-8,-10,-17,3,11,1,1
14:57:05:702874,4,-4,0,3,9,13,2,-1
14:57:05:710413,-8,-2,5,4,2,3,-8,-4
14:57:05:718658,-8,-2,5,4,2,3,-8,-4
14:57:05:719416,-4,-2,7,13,-12,6,7,3
14:57:05:741761,8,-1,0,-15,-14,3,2,6
14:57:05:742570,8,-1,0,-15,-14,3,2,6
14:57:05:743383,-14,-7,-27,2,-15,-13,-7,-9
14:57:05:747998,-6,14,22,-2,1,0,5,-16
14:57:05:755460,-6,14,22,-2,1,0,5,-16
14:57:05:762870,-3,-12,-13,-21,-14,-10,-16,-1
14:57:05:770438,-2,2,-1,16,8,0,2,1
14:57:05:786121,-2,2,-1,16,8,0,2,1
14:57:05:786876,-11,4,9,12,-1,-8,-3,-2
14:57:05:792976,3,-7,-1,-15,3,7,6,-7
14:57:05:801126,3,-7,-1,-15,3,7,6,-7
14:57:05:801918,-6,-10,-8,26,-20,-5,-3,-5
14:57:05:807945,6,9,11,17,22,3,1,3
14:57:05:815487,6,9,11,17,22,3,1,3
14:57:05:822913,0,0,8,8,3,-8,4,10
14:57:05:830400,-4,0,7,14,-21,-27,-8,-7
14:57:05:838591,-4,0,7,14,-21,-27,-8,-7
14:57:05:839441,2,3,10,-7,-5,5,8,-2
14:57:05:852924,-7,-10,-15,-17,-5,-1,1,-8
14:57:05:861129,-7,-10,-15,-17,-5,-1,1,-8
14:57:05:861947,2,3,4,13,33,-1,-2,0
14:57:05:867940,4,-12,-32,0,5,-1,-1,3
14:57:05:875492,4,-12,-32,0,5,-1,-1,3
14:57:05:882885,8,12,21,-20,6,4,-3,-1
14:57:05:890456,10,2,-3,-10,-6,16,0,7
14:57:05:898673,10,2,-3,-10,-6,16,0,7
14:57:05:899447,-2,1,-12,0,42,2,2,0
14:57:05:912897,-13,-13,-9,-7,-14,-14,-5,4
14:57:05:921209,-13,-13,-9,-7,-14,-14,-5,4
14:57:05:921974,9,21,26,-26,-11,3,-12,3
14:57:05:927900,1,-2,-1,-4,15,9,4,4
14:57:05:935472,1,-2,-1,-4,15,9,4,4
14:57:05:942984,-9,-11,-10,-12,2,-2,-2,-4
14:57:05:950431,-12,1,0,31,4,-2,-11,-9
14:57:05:958620,-12,1,0,31,4,-2,-11,-9
14:57:05:959364,-8,-11,-11,-1,-5,-8,9,-9
14:57:05:972945,6,3,2,22,7,0,11,11
14:57:05:981173,6,3,2,22,7,0,11,11
14:57:05:981961,-4,-9,-9,12,-20,2,-4,4
14:57:05:987932,2,-2,3,-15,-27,-4,11,-3
14:57:05:995512,2,-2,3,-15,-27,-4,11,-3
14:57:06:3003,7,9,8,-45,-3,-6,10,8
14:57:06:18613,2,0,5,-20,-8,-16,-14,-2
14:57:06:19418,2,0,5,-20,-8,-16,-14,-2
14:57:06:25442,-7,-7,-18,25,16,7,-4,-17
14:57:06:32936,-2,-5,11,-8,-4,3,-2,-3
14:57:06:41125,-2,-5,11,-8,-4,3,-2,-3
14:57:06:41937,-9,4,10,-5,-3,3,-11,-14
14:57:06:56162,-5,-1,2,-4,1,-1,-2,-10
14:57:06:56941,-5,-1,2,-4,1,-1,-2,-10
14:57:06:62921,-13,-13,-23,4,-6,-1,-1,-5
14:57:06:70471,0,-3,-8,-1,-7,0,-7,-1
14:57:06:77962,0,-3,-8,-1,-7,0,-7,-1
14:57:06:85431,6,-4,-6,9,-14,-14,-9,4
14:57:06:92943,17,1,13,17,20,14,21,18
14:57:06:101125,17,1,13,17,20,14,21,18
14:57:06:101929,-2,1,10,5,8,-1,0,2
14:57:06:116197,3,5,-23,-17,-5,5,1,-11
14:57:06:116950,3,5,-23,-17,-5,5,1,-11
14:57:06:122886,-1,2,-2,4,12,2,10,-1
14:57:06:130483,-1,1,-2,5,0,4,-8,-1
14:57:06:137939,-1,1,-2,5,0,4,-8,-1
14:57:06:145405,-7,-5,-15,-14,-8,8,3,-2
14:57:06:152895,7,5,-6,-21,-31,-2,1,3
14:57:06:161109,7,5,-6,-21,-31,-2,1,3
14:57:06:161933,12,-4,6,7,-8,-11,0,5
14:57:06:184271,-17,-4,-1,10,5,-6,7,8
14:57:06:185116,-17,-4,-1,10,5,-6,7,8
14:57:06:185856,1,-5,-13,-9,2,9,3,-3
14:57:06:190443,-6,4,18,4,-9,-9,-12,-6
14:57:06:197959,-6,4,18,4,-9,-9,-12,-6
14:57:06:205412,9,0,0,1,-12,-12,0,7
14:57:06:221787,-16,7,-6,-6,17,4,-12,-16
14:57:06:222577,-16,7,-6,-6,17,4,-12,-16
14:57:06:223374,-11,-4,23,17,-2,1,7,-32
14:57:06:236139,54,-3,-4,-4,7,9,9,8
14:57:06:236887,54,-3,-4,-4,7,9,9,8
14:57:06:242920,-28,-4,-23,-6,13,6,2,15
14:57:06:250426,-51,9,33,-1,-15,5,-7,-21
14:57:06:257957,-51,9,33,-1,-15,5,-7,-21
14:57:06:265478,-8,1,2,-10,-9,6,0,16
14:57:06:272967,8,6,-19,-6,1,-1,9,5
14:57:06:281118,8,6,-19,-6,1,-1,9,5
14:57:06:281917,10,-4,4,-3,-27,-6,-7,-7
14:57:06:296134,-12,-15,-28,-9,-6,-6,-12,-19
14:57:06:296923,-12,-15,-28,-9,-6,-6,-12,-19
14:57:06:302970,17,12,3,22,9,-4,13,26
14:57:06:310432,2,-8,-15,6,15,-9,9,21
14:57:06:318005,2,-8,-15,6,15,-9,9,21
14:57:06:325411,3,-5,5,-7,-14,-5,-6,14
14:57:06:332910,-7,-6,4,-5,-4,2,0,-8
14:57:06:341191,-7,-6,4,-5,-4,2,0,-8
14:57:06:341935,30,0,-17,-13,5,0,-8,2
14:57:06:356136,5,6,30,14,-11,-11,-24,-8
14:57:06:356945,5,6,30,14,-11,-11,-24,-8
14:57:06:362888,5,6,1,-3,1,-6,0,-12
14:57:06:370434,-10,-11,-6,-45,-25,-2,8,0
14:57:06:377984,-10,-11,-6,-45,-25,-2,8,0
14:57:06:385420,-10,6,12,6,-14,-4,-6,-11
14:57:06:392924,18,-1,-5,20,14,12,1,-1
14:57:06:401168,18,-1,-5,20,14,12,1,-1
14:57:06:401976,-1,1,-4,-6,10,7,0,-15
14:57:06:416210,10,-3,-2,-12,6,-14,-1,6
14:57:06:417011,10,-3,-2,-12,6,-14,-1,6
14:57:06:422955,-22,1,8,8,15,-12,-12,0
14:57:06:430431,-8,-1,-25,-16,2,10,4,-4
14:57:06:437955,-8,-1,-25,-16,2,10,4,-4
14:57:06:445503,-5,-8,-4,-14,-1,-8,-7,-11
14:57:06:452928,6,0,11,-4,-3,-7,0,12
14:57:06:461125,6,0,11,-4,-3,-7,0,12
14:57:06:461910,10,-11,-9,30,2,5,-13,-7
14:57:06:476137,-15,-11,-16,27,-13,-10,-5,-17
14:57:06:476966,-15,-11,-16,27,-13,-10,-5,-17
14:57:06:482922,15,-7,1,-4,0,3,5,9
14:57:06:490441,-6,11,13,5,1,-16,-15,-1
14:57:06:498047,-6,11,13,5,1,-16,-15,-1
14:57:06:505406,-14,-1,5,4,10,11,7,-23
14:57:06:512933,10,-11,-20,-18,-7,1,12,8
14:57:06:521129,10,-11,-20,-18,-7,1,12,8
14:57:06:521890,-19,2,6,10,-2,0,-3,-3
14:57:06:536142,-20,11,13,18,-2,18,15,1
14:57:06:536918,-20,11,13,18,-2,18,15,1
14:57:06:542943,7,7,6,-29,0,-7,-8,11
14:57:06:550458,2,-19,-41,-19,-1,-14,-14,-5
14:57:06:557977,2,-19,-41,-19,-1,-14,-14,-5
14:57:06:565368,7,4,23,3,10,-2,-3,22
14:57:06:572974,2,3,20,-7,7,11,9,-8
14:57:06:581161,2,3,20,-7,7,11,9,-8
14:57:06:581936,-7,-1,0,29,5,1,3,-12
14:57:06:596178,0,-11,-14,-25,-18,-3,-2,-6
14:57:06:596922,0,-11,-14,-25,-18,-3,-2,-6
14:57:06:602871,-18,1,-14,-8,1,-2,0,-12
14:57:06:610472,0,3,12,3,2,-8,-2,7
14:57:06:618001,0,3,12,3,2,-8,-2,7
14:57:06:625421,5,-2,-16,-18,-12,-6,-1,0
14:57:06:632916,0,13,-2,10,-1,-6,11,5
14:57:06:641199,0,13,-2,10,-1,-6,11,5
14:57:06:641971,1,4,-5,-2,-2,-2,-13,-7
14:57:06:656144,2,14,29,33,28,5,-1,7
14:57:06:656932,2,14,29,33,28,5,-1,7
14:57:06:662936,6,-8,-3,-18,-15,8,15,-18
14:57:06:670414,-5,-5,-12,-12,-1,-12,-15,-6
14:57:06:678014,-5,-5,-12,-12,-1,-12,-15,-6
14:57:06:685391,14,-9,-23,-12,13,0,1,13
14:57:06:692916,36,-5,-5,-4,21,13,-6,2
14:57:06:701144,36,-5,-5,-4,21,13,-6,2
14:57:06:701945,3,0,2,11,2,-7,-3,11
14:57:06:716115,-32,-2,15,26,3,-4,-10,-9
14:57:06:716956,-32,-2,15,26,3,-4,-10,-9
14:57:06:722949,-21,3,2,14,15,9,11,-5
14:57:06:730421,-15,-10,-15,-18,-7,3,-1,6
14:57:06:737977,-15,-10,-15,-18,-7,3,-1,6
14:57:06:745497,-17,-2,2,-14,-19,-2,-3,-6
14:57:06:752957,-7,-13,-9,4,5,7,1,-5
14:57:06:761104,-7,-13,-9,4,5,7,1,-5
14:57:06:761948,-4,-3,-4,18,-7,8,5,9
14:57:06:776149,5,21,12,-2,-10,-6,4,-7
14:57:06:776958,5,21,12,-2,-10,-6,4,-7
14:57:06:782930,0,-13,-9,-12,4,13,-1,-3
14:57:06:790418,-1,-8,-14,2,5,-1,14,0
14:57:06:797980,-1,-8,-14,2,5,-1,14,0
14:57:06:805451,0,-3,-23,5,4,-10,5,0
14:57:06:812930,9,6,9,16,0,1,-1,11
14:57:06:821172,9,6,9,16,0,1,-1,11
14:57:06:821912,6,1,12,19,17,2,2,6
14:57:06:836126,-19,-4,1,-4,-33,0,-3,-14
14:57:06:836913,-19,-4,1,-4,-33,0,-3,-14
14:57:06:842936,-19,2,6,1,-12,-15,-12,12
14:57:06:850438,12,-12,-16,-7,-6,8,-5,1
14:57:06:857955,12,-12,-16,-7,-6,8,-5,1
14:57:06:865367,-1,12,21,-6,-18,-11,-2,-16
14:57:06:872890,0,-2,13,-7,7,-7,-9,-3
14:57:06:881118,0,-2,13,-7,7,-7,-9,-3
14:57:06:881929,4,-4,4,1,3,12,11,5
14:57:06:896118,1,0,2,-10,-1,-10,-19,-4
14:57:06:896932,1,0,2,-10,-1,-10,-19,-4
14:57:06:902917,2,-7,3,14,26,3,0,-3
14:57:06:910388,-4,10,18,8,10,10,0,-4
14:57:06:918031,-4,10,18,8,10,10,0,-4
14:57:06:925444,6,-12,-17,-18,-59,-3,-6,2
14:57:06:932973,6,12,25,15,3,-7,-4,20
14:57:06:941156,6,12,25,15,3,-7,-4,20
14:57:06:941931,1,4,-6,8,-6,-1,2,-5
14:57:06:956182,15,-10,-5,-18,-11,-7,-2,-6
14:57:06:956990,15,-10,-5,-18,-11,-7,-2,-6
14:57:06:962942,8,4,-3,2,10,7,13,4
14:57:06:978600,8,7,17,24,-3,3,-2,6
14:57:06:979445,8,7,17,24,-3,3,-2,6
14:57:06:994318,-3,-13,-18,1,-2,4,-1,-9
14:57:06:995115,-7,-7,-17,3,-3,-9,3,-2
14:57:06:995824,-7,-7,-17,3,-3,-9,3,-2
14:57:07:16829,-11,-2,-9,-9,-29,-8,3,-7
14:57:07:17629,-3,10,7,5,5,9,1,-6
14:57:07:18429,-3,10,7,5,5,9,1,-6
14:57:07:30452,3,-1,1,-22,40,-8,-17,-12
14:57:07:38599,-13,-8,-14,-2,-2,-7,2,-4
14:57:07:39456,-13,-8,-14,-2,-2,-7,2,-4
14:57:07:45428,-23,-8,1,0,-1,-9,-11,-5
14:57:07:53622,-17,-3,-4,-4,-1,2,5,-5
14:57:07:54435,-17,-3,-4,-4,-1,2,5,-5
14:57:07:67953,-2,1,17,-2,6,-2,-5,11
14:57:07:76179,4,4,2,3,13,5,16,-1
14:57:07:76988,4,4,2,3,13,5,16,-1
14:57:07:82964,-6,-5,-14,-10,-10,-6,-3,-16
14:57:07:98705,26,-16,-32,-30,-18,-19,-3,1
14:57:07:99491,26,-16,-32,-30,-18,-19,-3,1
14:57:07:105458,16,20,36,5,4,7,-3,5
14:57:07:113642,-6,-11,-17,15,7,-9,-13,-5
14:57:07:114537,-6,-11,-17,15,7,-9,-13,-5
14:57:07:127941,-1,1,-6,11,-30,-4,-4,0
14:57:07:136123,-4,-7,-3,-20,14,10,3,-5
14:57:07:136933,-4,-7,-3,-20,14,10,3,-5
14:57:07:142953,3,3,-3,-1,14,1,-3,5
14:57:07:158625,1,-3,-4,5,-15,8,1,-11
14:57:07:159443,1,-3,-4,5,-15,8,1,-11
14:57:07:165452,7,0,-2,-19,3,-13,-11,-6
14:57:07:173640,1,-6,5,0,-1,3,7,11
14:57:07:174462,1,-6,5,0,-1,3,7,11
14:57:07:187875,34,4,-7,9,-9,7,0,16
14:57:07:196201,-8,17,9,-10,0,-8,-2,10
14:57:07:196980,-8,17,9,-10,0,-8,-2,10
14:57:07:202923,-3,-12,-15,-13,-13,0,5,6
14:57:07:218663,9,-2,-4,-15,7,7,7,-3
14:57:07:219433,9,-2,-4,-15,7,7,7,-3
14:57:07:225425,-15,-5,-17,-43,-9,-4,2,0
14:57:07:233640,-15,-3,7,14,1,5,6,-12
14:57:07:234451,-15,-3,7,14,1,5,6,-12
14:57:07:247975,-5,-2,-4,-2,-20,-4,-17,-1
14:57:07:256167,1,-4,-13,8,2,-6,-10,2
14:57:07:256938,1,-4,-13,8,2,-6,-10,2
14:57:07:270439,0,8,5,4,10,2,20,6
14:57:07:278594,-7,2,2,13,1,-1,-6,2
14:57:07:279435,-7,2,2,13,1,-1,-6,2
14:57:07:285354,-1,-5,2,5,-3,-1,10,-5
14:57:07:293680,-2,-6,-6,10,5,9,-1,-11
14:57:07:294471,-2,-6,-6,10,5,9,-1,-11
14:57:07:308390,-6,-2,15,12,-22,-7,3,-6
14:57:07:316261,5,-3,-6,-34,5,-18,-1,13
14:57:07:317013,5,-3,-6,-34,5,-18,-1,13
14:57:07:322916,0,6,10,19,-2,8,2,-5
14:57:07:338611,-4,-3,1,22,-1,8,-7,-4
14:57:07:339402,-4,-3,1,22,-1,8,-7,-4
14:57:07:345455,-7,-2,1,4,23,-8,-4,-1
14:57:07:361145,11,-3,-5,2,3,-10,-5,0
14:57:07:361941,11,-3,-5,2,3,-10,-5,0
14:57:07:367962,-2,1,7,8,23,21,14,6
14:57:07:376150,-3,1,10,19,-6,-15,-11,-10
14:57:07:376935,-3,1,10,19,-6,-15,-11,-10
14:57:07:382940,-17,-5,-31,-20,3,-1,-11,-3
14:57:07:398593,0,14,31,-7,-3,-4,4,9
14:57:07:399379,0,14,31,-7,-3,-4,4,9
14:57:07:405475,3,-4,-5,2,1,-4,-6,-6
14:57:07:413567,-4,1,-10,-13,14,4,-2,-5
14:57:07:414399,-4,1,-10,-13,14,4,-2,-5
14:57:07:427930,2,2,-3,-1,15,-6,-10,21
14:57:07:436114,2,2,-3,-1,15,-6,-10,21
14:57:07:436864,-5,-9,4,-10,-10,-22,-3,-8
14:57:07:442959,1,0,16,-5,-2,-6,-14,-1
14:57:07:458654,1,0,16,-5,-2,-6,-14,-1
14:57:07:459425,-5,-6,-15,-29,-43,10,-5,-2
14:57:07:465421,4,-7,-5,4,-2,-19,-6,-6
14:57:07:481128,4,-7,-5,4,-2,-19,-6,-6
14:57:07:481939,-10,3,1,0,-14,10,5,-7
14:57:07:487890,6,-1,-1,25,5,-3,3,-6
14:57:07:496171,6,-1,-1,25,5,-3,3,-6
14:57:07:496962,8,-5,-14,6,7,9,-4,8
14:57:07:502930,-5,2,-10,22,12,-5,-4,-6
14:57:07:518706,-5,2,-10,22,12,-5,-4,-6
14:57:07:519442,-2,3,-1,-6,2,-3,11,3
14:57:07:525398,1,4,7,-22,-10,16,11,3
14:57:07:549273,1,4,7,-22,-10,16,11,3
14:57:07:550116,2,6,3,3,11,-2,-1,8
14:57:07:550881,-5,-2,17,0,-16,-12,-7,-20
14:57:07:556148,-5,-2,17,0,-16,-12,-7,-20
14:57:07:556923,-6,-8,-3,2,8,-5,-4,-18
14:57:07:570460,-2,1,-2,-6,-11,12,6,2
14:57:07:578625,-2,1,-2,-6,-11,12,6,2
14:57:07:579410,4,-1,4,1,-5,-4,-1,-7
14:57:07:585343,3,-6,-17,-1,6,6,1,1
14:57:07:601145,3,-6,-17,-1,6,6,1,1
14:57:07:601895,-3,3,-6,-3,-10,-4,-11,19
14:57:07:607965,-4,7,25,18,-2,-5,-10,6
14:57:07:616194,-4,7,25,18,-2,-5,-10,6
14:57:07:616902,8,9,30,0,35,11,8,5
14:57:07:622887,2,-14,-42,-11,-34,-12,1,-10
14:57:07:638643,2,-14,-42,-11,-34,-12,1,-10
14:57:07:639436,0,-4,-7,-24,-23,1,5,2
14:57:07:645478,-3,5,14,-7,28,-1,-7,-1
14:57:07:661175,-3,5,14,-7,28,-1,-7,-1
14:57:07:661968,-7,-6,-14,9,3,9,0,-8
14:57:07:667932,1,-3,9,-26,5,2,8,-3
14:57:07:676135,1,-3,9,-26,5,2,8,-3
14:57:07:676907,3,4,8,6,-2,11,8,-21
14:57:07:682911,-11,-5,3,-2,16,-12,-28,-17
14:57:07:698688,-11,-5,3,-2,16,-12,-28,-17
14:57:07:699467,28,6,-3,-1,-24,-3,0,3
14:57:07:705389,-1,7,9,8,-14,0,9,15
14:57:07:721126,-1,7,9,8,-14,0,9,15
14:57:07:721936,-19,3,6,30,-5,10,-1,0
14:57:07:727916,2,-12,-9,-2,8,14,0,7
14:57:07:736114,2,-12,-9,-2,8,14,0,7
14:57:07:736861,-5,-4,-2,-5,-19,-11,-5,-4
14:57:07:742917,-3,-3,-18,-18,-9,2,3,-7
14:57:07:758658,-3,-3,-18,-18,-9,2,3,-7
14:57:07:759434,-14,-11,-10,-14,3,-31,-6,-14
14:57:07:765405,-7,-6,-6,-8,3,-1,-2,-8
14:57:07:781155,-7,-6,-6,-8,3,-1,-2,-8
14:57:07:781955,35,2,0,3,12,11,9,14
14:57:07:787889,11,5,4,9,-4,-13,-10,6
14:57:07:804319,11,5,4,9,-4,-13,-10,6
14:57:07:805147,-5,-2,-18,-2,7,3,-11,5
14:57:07:805924,-2,4,27,5,-19,-12,4,-1
14:57:07:826784,-2,4,27,5,-19,-12,4,-1
14:57:07:827572,-2,-3,-11,-11,13,16,4,11
14:57:07:828381,-6,-3,-11,25,15,0,8,3
14:57:07:849302,-6,-3,-11,25,15,0,8,3
14:57:07:850136,-4,6,5,-22,-15,-6,-1,1
14:57:07:850928,1,-6,-12,4,-7,-8,-2,6
14:57:07:856170,1,-6,-12,4,-7,-8,-2,6
14:57:07:856964,-15,-8,-7,8,-3,-9,-5,-4
14:57:07:862886,0,4,0,2,-13,-9,-15,-14
14:57:07:878650,0,4,0,2,-13,-9,-15,-14
14:57:07:879427,-8,-6,3,3,-5,5,3,-12
14:57:07:885379,6,-2,1,-1,-2,11,5,5
14:57:07:901162,6,-2,1,-1,-2,11,5,5
14:57:07:901923,4,1,4,3,0,-4,-8,1
14:57:07:916822,-7,1,-9,-9,20,2,8,-13
14:57:07:917576,-7,1,-9,-9,20,2,8,-13
14:57:07:918362,3,12,20,30,29,-2,12,-3
14:57:07:939273,-6,-6,-21,-14,18,10,1,-2
14:57:07:940149,-6,-6,-21,-14,18,10,1,-2
14:57:07:940901,-8,-11,-22,-8,-13,-3,-10,-38
14:57:07:945417,5,5,7,-22,-11,-9,-9,-7
14:57:07:961119,5,5,7,-22,-11,-9,-9,-7
14:57:07:961929,1,-2,-8,-3,11,11,6,4
14:57:07:967927,-8,-8,-2,2,-29,-3,-5,-12
14:57:07:976119,-8,-8,-2,2,-29,-3,-5,-12
14:57:07:976951,-9,4,10,-6,-30,-31,-8,4
14:57:07:990386,7,6,19,24,18,10,9,17
14:57:07:998655,7,6,19,24,18,10,9,17
14:57:07:999437,0,-3,-5,-61,-7,-5,-10,5
14:57:08:5381,4,9,14,36,0,-13,0,4
14:57:08:12978,4,9,14,36,0,-13,0,4
14:57:08:20382,2,-3,7,1,-13,1,-1,3
14:57:08:27875,6,7,9,-9,-3,11,0,-5
14:57:08:36168,6,7,9,-9,-3,11,0,-5
14:57:08:36881,-3,-2,-2,3,20,1,13,1
14:57:08:50436,-6,-5,-2,1,8,1,-3,-1
14:57:08:58606,-6,-5,-2,1,8,1,-3,-1
14:57:08:59468,-3,-5,6,-13,-4,11,3,10
14:57:08:65406,-2,2,7,-11,16,-5,-9,-8
14:57:08:81151,-2,2,7,-11,16,-5,-9,-8
14:57:08:81954,-7,-7,0,26,-4,-10,-13,-5
14:57:08:87919,-13,-19,-43,-12,-1,6,8,0
14:57:08:103652,-13,-19,-43,-12,-1,6,8,0
14:57:08:104431,-10,6,1,-4,4,13,10,6
14:57:08:110422,-3,-15,-10,4,0,-18,-5,-8
14:57:08:126794,-3,-15,-10,4,0,-18,-5,-8
14:57:08:127591,3,1,1,30,1,7,5,-1
14:57:08:128416,4,10,11,-1,1,9,19,10
14:57:08:133002,4,10,11,-1,1,9,19,10
14:57:08:140450,-4,-6,-1,-1,1,-20,-15,2
14:57:08:147936,0,1,7,-5,-4,4,-10,-5
14:57:08:156142,0,1,7,-5,-4,4,-10,-5
14:57:08:156943,-7,2,-7,-26,-2,5,-7,-10
14:57:08:170899,-4,-3,3,-7,-6,1,10,4
14:57:08:178663,-4,-3,3,-7,-6,1,10,4
14:57:08:179430,3,-7,-13,36,14,3,-6,3
14:57:08:193634,-4,2,1,-11,-3,0,-12,-7
14:57:08:194451,-4,2,1,-11,-3,0,-12,-7
14:57:08:200403,2,-9,-1,-9,7,0,6,-3
14:57:08:216767,0,-13,-34,-50,-46,-10,-4,1
14:57:08:217584,0,-13,-34,-50,-46,-10,-4,1
14:57:08:218362,3,3,5,-25,-18,-2,-1,2
14:57:08:230404,0,3,9,12,29,11,9,1
14:57:08:238619,0,3,9,12,29,11,9,1
14:57:08:239455,0,3,10,7,-21,2,-7,-16
14:57:08:245452,1,-4,-14,-3,3,-15,-8,-1
14:57:08:252950,1,-4,-14,-3,3,-15,-8,-1
14:57:08:260427,5,5,1,14,5,11,17,10
14:57:08:267906,-4,-1,13,17,-4,8,5,3
14:57:08:276146,-4,-1,13,17,-4,8,5,3
14:57:08:276905,-13,-6,15,11,1,-5,5,-10
14:57:08:290432,0,-2,-14,17,-7,7,5,-16
14:57:08:298617,0,-2,-14,17,-7,7,5,-16
14:57:08:299397,-2,7,-3,-2,18,-5,-4,-6
14:57:08:305378,2,12,29,3,17,11,0,3
14:57:08:312951,2,12,29,3,17,11,0,3
14:57:08:320401,4,-8,-19,-3,-9,6,-2,7
14:57:08:327869,6,-9,-12,-1,32,-2,-7,-2
14:57:08:336211,6,-9,-12,-1,32,-2,-7,-2
14:57:08:336958,-1,6,11,-2,17,-5,-16,4
14:57:08:359252,-15,-8,-18,5,-2,-12,0,-10
14:57:08:360145,-15,-8,-18,5,-2,-12,0,-10
14:57:08:360844,7,2,-3,-2,8,-8,-14,1
14:57:08:365448,2,5,11,-2,0,-8,-6,5
14:57:08:381147,2,5,11,-2,0,-8,-6,5
14:57:08:381894,-12,-13,-10,-26,3,-6,-3,-14
14:57:08:387896,-4,-8,-18,-11,7,-1,-3,2
14:57:08:403657,-4,-8,-18,-11,7,-1,-3,2
14:57:08:404468,12,-1,-9,4,2,7,7,11
14:57:08:410427,1,2,13,-8,0,3,0,-4
14:57:08:418563,1,2,13,-8,0,3,0,-4
14:57:08:419413,4,3,6,11,-23,-6,-8,1
14:57:08:425411,-2,3,8,-18,-2,19,-10,-2
14:57:08:432933,-2,3,8,-18,-2,19,-10,-2
14:57:08:448635,-7,-3,-3,-6,-10,-1,-3,-1
14:57:08:449421,13,1,-2,0,0,-13,-8,9
14:57:08:456147,13,1,-2,0,0,-13,-8,9
14:57:08:456888,-2,-3,-12,-5,-8,-2,-4,-7
14:57:08:470876,4,11,25,23,-13,0,6,2
14:57:08:478686,4,11,25,23,-13,0,6,2
14:57:08:479483,-5,-4,-1,3,-8,7,1,-26
14:57:08:493637,-6,-14,-27,-25,-12,11,12,-7
14:57:08:494461,-6,-14,-27,-25,-12,11,12,-7
14:57:08:500434,10,10,1,2,-6,-7,16,8
14:57:08:507953,5,-1,0,0,-17,-14,-5,11
14:57:08:516147,5,-1,0,0,-17,-14,-5,11
14:57:08:516907,2,2,3,-12,4,-2,-1,6
14:57:08:530464,0,1,-16,1,-11,16,1,4
14:57:08:538681,0,1,-16,1,-11,16,1,4
14:57:08:539489,-1,1,4,20,3,-3,1,2
14:57:08:545477,-2,-10,-4,9,12,-4,-7,-13
14:57:08:552952,-2,-10,-4,9,12,-4,-7,-13
14:57:08:560475,-4,-3,-5,-15,4,6,4,7
14:57:08:567956,-4,5,4,-20,-13,-15,8,-17
14:57:08:576163,-4,5,4,-20,-13,-15,8,-17
14:57:08:576905,-3,0,1,-3,-11,-6,-6,-5
14:57:08:590435,-3,-3,1,-13,-7,-5,1,-1
14:57:08:598577,-3,-3,1,-13,-7,-5,1,-1
14:57:08:599390,-1,6,0,4,-2,-4,-13,0
14:57:08:605469,5,8,14,20,10,-2,0,9
14:57:08:612946,5,8,14,20,10,-2,0,9
14:57:08:620391,-7,-17,-20,-2,-13,-12,-5,-8
14:57:08:636730,-7,-2,8,5,3,-4,-13,-3
14:57:08:637551,-7,-2,8,5,3,-4,-13,-3
14:57:08:638404,0,-6,-7,-4,-5,12,7,1
14:57:08:659270,-7,-6,5,22,-1,-21,-12,0
14:57:08:660154,-7,-6,5,22,-1,-21,-12,0
14:57:08:660920,4,5,11,15,-23,5,7,-5
14:57:08:665427,0,4,-9,-24,-13,-12,2,2
14:57:08:673012,0,4,-9,-24,-13,-12,2,2
14:57:08:680430,1,8,1,-1,13,-6,1,7
14:57:08:687882,-6,-3,-7,0,-42,2,3,3
14:57:08:696165,-6,-3,-7,0,-42,2,3,3
14:57:08:696913,-3,-11,-13,4,13,6,2,-6
14:57:08:710354,-2,-9,-12,-13,4,12,7,-2
14:57:08:718623,-2,-9,-12,-13,4,12,7,-2
14:57:08:719423,5,4,1,7,20,0,-4,6
14:57:08:725414,2,-2,2,2,7,-4,-2,-9
14:57:08:732988,2,-2,2,2,7,-4,-2,-9
14:57:08:740415,5,0,8,-17,-5,-1,0,13
14:57:08:747903,18,3,4,38,1,7,0,9
14:57:08:756142,18,3,4,38,1,7,0,9
14:57:08:756894,0,4,5,-6,1,-2,9,-5
14:57:08:771399,-21,-2,-1,3,1,-15,-10,-11
14:57:08:778619,-21,-2,-1,3,1,-15,-10,-11
14:57:08:779391,-9,-9,-2,-7,15,-5,-5,-4
14:57:08:785386,-3,-1,0,7,28,21,29,12
14:57:08:792938,-3,-1,0,7,28,21,29,12
14:57:08:800455,-3,2,10,-11,-3,-2,-9,-4
14:57:08:807944,-3,2,-2,0,-12,-11,5,3
14:57:08:816163,-3,2,-2,0,-12,-11,5,3
14:57:08:816924,3,-10,-8,19,-4,2,-7,11
14:57:08:830422,5,-2,-4,-12,-9,11,-8,0
14:57:08:838569,5,-2,-4,-12,-9,11,-8,0
14:57:08:839420,-18,-12,0,-4,-7,-19,5,-31
14:57:08:845431,-9,-5,-3,6,20,2,-5,-3
14:57:08:852944,-9,-5,-3,6,20,2,-5,-3
14:57:08:860377,6,2,-3,10,8,2,-13,5
14:57:08:867946,2,3,1,-30,-6,18,-1,-2
14:57:08:875489,2,3,1,-30,-6,18,-1,-2
14:57:08:882885,2,-3,-6,-6,9,-1,0,1
14:57:08:890415,20,0,3,-2,-27,-4,17,4
14:57:08:898644,20,0,3,-2,-27,-4,17,4
14:57:08:899430,28,2,-1,2,-1,9,17,0
14:57:08:914060,6,2,12,-1,4,-16,-16,-4
14:57:08:914897,6,2,12,-1,4,-16,-16,-4
14:57:08:920393,5,13,17,-2,-27,4,-4,11
14:57:08:927907,-3,-6,-16,-22,0,0,6,0
14:57:08:935428,-3,-6,-16,-22,0,0,6,0
14:57:08:942965,-14,1,8,3,-9,-18,-6,-9
14:57:08:950420,-15,-5,-4,9,7,-9,-7,1
14:57:08:958654,-15,-5,-4,9,7,-9,-7,1
14:57:08:959431,-6,-4,-10,8,11,1,-7,-4
14:57:08:973655,3,-7,-9,-6,-18,5,-11,-3
14:57:08:974460,3,-7,-9,-6,-18,5,-11,-3
14:57:08:980447,-16,-7,-11,-47,-7,-18,-7,-12
14:57:08:987901,-1,5,3,-17,-9,-7,-9,13
14:57:08:995549,-1,5,3,-17,-9,-7,-9,13
14:57:09:2889,-9,-6,-8,-2,-29,3,-6,-14
14:57:09:10396,-3,-3,-10,2,22,2,2,-7
14:57:09:18599,-3,-3,-10,2,22,2,2,-7
14:57:09:19398,6,5,4,-1,4,3,7,14
14:57:09:33569,-5,-5,-12,-13,28,6,-1,-1
14:57:09:34439,-5,-5,-12,-13,28,6,-1,-1
14:57:09:40425,-2,4,-2,-13,19,8,-2,0
14:57:09:47932,-1,5,16,9,-4,-8,-7,-11
14:57:09:55430,-1,5,16,9,-4,-8,-7,-11
14:57:09:71073,-11,-6,-5,12,5,2,-2,-7
14:57:09:71916,13,0,-8,4,-1,-2,-5,-13
14:57:09:78593,13,0,-8,4,-1,-2,-5,-13
14:57:09:79371,3,2,1,12,3,8,6,-2
14:57:09:93692,-32,-2,5,1,8,6,11,-11
14:57:09:94529,-32,-2,5,1,8,6,11,-11
14:57:09:100448,-5,-1,-5,-2,-1,-10,-11,-14
14:57:09:107918,3,-2,-6,1,-2,14,6,5
14:57:09:115456,3,-2,-6,1,-2,14,6,5
14:57:09:123007,-21,8,9,14,12,2,2,-11
14:57:09:130460,2,13,6,5,-1,-2,4,9
14:57:09:138587,2,13,6,5,-1,-2,4,9
14:57:09:139383,17,-9,-3,-12,-32,-6,1,19
14:57:09:153572,-2,10,36,33,12,7,4,4
14:57:09:154416,-2,10,36,33,12,7,4,4
14:57:09:160432,6,1,-14,-17,5,9,3,1
14:57:09:167957,-11,-12,-19,-9,2,-5,2,-1
14:57:09:175460,-11,-12,-19,-9,2,-5,2,-1
14:57:09:191142,-2,-3,2,9,15,3,-3,2
14:57:09:191872,6,-3,-3,6,23,13,-1,3
14:57:09:198606,6,-3,-3,6,23,13,-1,3
14:57:09:199447,-6,-6,-4,-15,2,4,6,-1
14:57:09:213604,11,-2,2,5,-8,-9,-1,-4
14:57:09:214397,11,-2,2,5,-8,-9,-1,-4
14:57:09:220458,15,4,4,3,4,0,-9,-5
14:57:09:227934,-1,-5,-4,-13,-26,-11,-20,-1
14:57:09:235417,-1,-5,-4,-13,-26,-11,-20,-1
14:57:09:242944,-2,0,-2,14,-1,4,10,15
14:57:09:250467,2,-1,-7,-6,-14,1,-6,-13
14:57:09:258642,2,-1,-7,-6,-14,1,-6,-13
14:57:09:259395,2,-3,5,-3,12,0,-5,5
14:57:09:273615,8,3,4,36,19,6,14,10
14:57:09:274409,8,3,4,36,19,6,14,10
14:57:09:280439,-9,1,13,19,8,4,-4,-8
14:57:09:287911,-3,-8,-10,5,-11,-13,-8,-7
14:57:09:295521,-3,-8,-10,5,-11,-13,-8,-7
14:57:09:302897,3,-1,-12,-3,5,-1,11,7
14:57:09:310400,1,3,2,-9,-5,-15,-23,-5
14:57:09:319286,1,3,2,-9,-5,-15,-23,-5
14:57:09:320172,-4,-2,-7,-9,-13,0,5,-5
14:57:09:333615,-16,-2,-7,-16,-16,-6,2,2
14:57:09:334446,-16,-2,-7,-16,-16,-6,2,2
14:57:09:340398,-6,-7,0,3,-9,-9,0,-24
14:57:09:347909,-4,-15,-24,-19,18,7,10,7
14:57:09:355498,-4,-15,-24,-19,18,7,10,7
14:57:09:362899,3,6,15,2,-3,-7,0,5
14:57:09:370396,-1,-1,-8,-1,1,-7,-2,-13
14:57:09:378663,-1,-1,-8,-1,1,-7,-2,-13
14:57:09:379427,13,-11,-18,-6,-7,-32,-12,2
14:57:09:393679,1,3,13,15,-6,-1,-2,5
14:57:09:394460,1,3,13,15,-6,-1,-2,5
14:57:09:400398,-9,-1,-3,-27,-7,7,0,-1
14:57:09:407894,1,1,3,1,18,2,5,-10
14:57:09:415465,1,1,3,1,18,2,5,-10
14:57:09:422915,-6,1,-12,-28,-17,-3,-8,0
14:57:09:430406,1,2,-9,-12,-15,-2,4,3
14:57:09:446183,1,2,-9,-12,-15,-2,4,3
14:57:09:446887,-12,-12,-14,-2,-11,-2,0,0
14:57:09:453636,1,3,12,0,-18,-3,-5,7
14:57:09:454457,1,3,12,0,-18,-3,-5,7
14:57:09:468517,-11,-9,0,1,-4,4,-5,-29
14:57:09:469370,0,3,2,-16,0,-9,-1,-3
14:57:09:475474,0,3,2,-16,0,-9,-1,-3
14:57:09:491105,-1,0,2,16,7,11,4,13
14:57:09:491846,4,5,-5,-12,-29,-4,-1,5
14:57:09:498648,4,5,-5,-12,-29,-4,-1,5
14:57:09:499415,-7,2,0,7,-21,3,3,12
14:57:09:513672,-3,10,29,34,22,25,10,-5
14:57:09:514409,-3,10,29,34,22,25,10,-5
14:57:09:520397,5,4,10,-17,6,-7,-5,-2
14:57:09:527908,1,-7,-12,-27,-12,2,-5,-1
14:57:09:535448,1,-7,-12,-27,-12,2,-5,-1
14:57:09:542923,-7,-8,-7,2,16,-2,1,-3
14:57:09:550412,2,-2,-3,4,-4,-12,-3,-5
14:57:09:558622,2,-2,-3,4,-4,-12,-3,-5
14:57:09:559444,-41,3,4,22,12,-7,-2,-8
14:57:09:573615,-5,-12,-16,4,20,-18,-7,9
14:57:09:574435,-5,-12,-16,4,20,-18,-7,9
14:57:09:580412,21,5,-17,-37,-38,-2,2,21
14:57:09:587925,-10,-9,-8,24,-17,9,-4,-12
14:57:09:595532,-10,-9,-8,24,-17,9,-4,-12
14:57:09:602930,5,1,-3,9,5,2,-14,-2
14:57:09:610391,-1,-2,5,1,-21,6,12,-5
14:57:09:618674,-1,-2,5,1,-21,6,12,-5
14:57:09:619439,-3,-2,-4,-7,21,0,1,-11
14:57:09:633597,0,7,-2,-15,18,4,-2,-3
14:57:09:634477,0,7,-2,-15,18,4,-2,-3
14:57:09:640465,4,-7,-3,2,-3,-9,-26,-4
14:57:09:647918,1,1,10,-4,5,-3,2,-4
14:57:09:655491,1,1,10,-4,5,-3,2,-4
14:57:09:662938,12,3,13,23,1,3,12,1
14:57:09:670431,-6,-10,-21,6,45,8,-13,8
14:57:09:678605,-6,-10,-21,6,45,8,-13,8
14:57:09:679393,1,-3,9,25,18,2,-1,0
14:57:09:701780,-4,4,6,-14,-14,2,9,1
14:57:09:702595,-4,4,6,-14,-14,2,9,1
14:57:09:703443,10,1,-5,2,-27,-8,3,7
14:57:09:707939,8,-1,-15,-11,-5,16,3,17
14:57:09:723655,8,-1,-15,-11,-5,16,3,17
14:57:09:724432,0,2,1,12,0,1,-7,5
14:57:09:730392,-4,8,9,17,-9,-9,0,2
14:57:09:746184,-4,8,9,17,-9,-9,0,2
14:57:09:746919,3,5,8,-13,-10,-10,1,-4
14:57:09:753581,1,-1,-6,-16,-16,-13,-14,1
14:57:09:754405,1,-1,-6,-16,-16,-13,-14,1
14:57:09:768538,3,-5,-1,-6,10,14,15,6
14:57:09:769328,1,1,9,-5,9,-10,-1,1
14:57:09:775481,1,1,9,-5,9,-10,-1,1
14:57:09:791167,-2,-4,-5,4,-11,-3,-2,2
14:57:09:791880,1,3,4,-7,5,-11,2,-1
14:57:09:798621,1,3,4,-7,5,-11,2,-1
14:57:09:799423,-21,-6,2,-11,13,22,-17,-18
14:57:09:813573,0,3,4,7,9,22,-2,-3
14:57:09:814374,0,3,4,7,9,22,-2,-3
14:57:09:820415,0,-1,-8,11,-15,14,5,9
14:57:09:836526,-5,-5,-6,-7,0,-6,-12,-11
14:57:09:837388,-5,-5,-6,-7,0,-6,-12,-11
14:57:09:842941,7,6,12,15,27,-25,10,-1
14:57:09:850411,1,-4,9,11,-7,-41,4,1
14:57:09:857968,1,-4,9,11,-7,-41,4,1
14:57:09:865412,0,-2,0,-21,-9,-21,-20,-4
14:57:09:873609,3,11,21,10,-10,-9,-16,0
14:57:09:874433,3,11,21,10,-10,-9,-16,0
14:57:09:880384,-1,-2,5,29,-3,1,12,-9
14:57:09:896086,2,-8,-8,9,-31,-9,-3,7
14:57:09:896915,2,-8,-8,9,-31,-9,-3,7
14:57:09:902943,3,1,-17,1,7,-1,3,14
14:57:09:910438,-7,-1,-2,6,3,16,7,-8
14:57:09:917968,-7,-1,-2,6,3,16,7,-8
14:57:09:925357,-9,-3,-2,-11,-2,-2,-7,-13
14:57:09:933606,-6,0,-4,-14,26,18,3,-4
14:57:09:934388,-6,0,-4,-14,26,18,3,-4
14:57:09:940411,-4,-7,-18,-16,6,-11,-2,2
14:57:09:956195,3,-6,-8,-20,-25,-9,-12,-8
14:57:09:956964,3,-6,-8,-20,-25,-9,-12,-8
14:57:09:962900,0,0,-1,-8,1,14,13,-2
14:57:09:970360,-3,-1,5,-9,-6,-6,1,-2
14:57:09:977950,-3,-1,5,-9,-6,-6,1,-2
14:57:09:985363,11,2,-2,-24,-7,18,11,11
14:57:09:993671,-6,8,19,42,20,11,6,-2
14:57:09:994442,-6,8,19,42,20,11,6,-2
14:57:10:392,8,2,-1,2,5,-16,-10,9
14:57:10:24295,-2,-7,-13,-18,11,17,19,0
14:57:10:25186,-2,-7,-13,-18,11,17,19,0
14:57:10:25885,8,0,5,36,15,-5,1,0
14:57:10:30438,-12,-12,-23,-2,-4,-5,6,-5
14:57:10:46241,-12,-12,-23,-2,-4,-5,6,-5
14:57:10:46947,-7,-8,3,-5,1,5,2,-2
14:57:10:53631,-10,-1,5,-3,-5,3,-5,9
14:57:10:54462,-10,-1,5,-3,-5,3,-5,9
14:57:10:67997,-7,-3,-12,-15,-8,-11,-10,-12
14:57:10:76087,6,14,14,5,3,0,-17,2
14:57:10:76894,6,14,14,5,3,0,-17,2
14:57:10:91143,-8,1,9,-24,-37,-28,-24,-4
14:57:10:91851,1,-2,-13,-10,-20,-6,-3,-11
14:57:10:98007,1,-2,-13,-10,-20,-6,-3,-11
14:57:10:114292,2,-1,6,28,40,26,7,-2
14:57:10:115146,5,-3,1,-4,-4,-8,-7,4
14:57:10:115907,5,-3,1,-4,-4,-8,-7,4
14:57:10:120379,-12,-4,1,-2,-1,-1,1,-21
14:57:10:136543,10,0,-5,1,16,5,0,-1
14:57:10:137361,10,0,-5,1,16,5,0,-1
14:57:10:142977,5,9,1,-5,1,-5,4,16
14:57:10:150434,-6,-12,-2,-14,-3,-2,4,-1
14:57:10:157969,-6,-12,-2,-14,-3,-2,4,-1
14:57:10:165405,-30,0,0,5,-15,-3,3,-3
14:57:10:173627,4,12,5,5,-2,-1,6,-7
14:57:10:174445,4,12,5,5,-2,-1,6,-7
14:57:10:180420,7,-2,-3,13,36,14,-4,4
14:57:10:196153,-3,-6,-3,18,28,1,14,0
14:57:10:196928,-3,-6,-3,18,28,1,14,0
14:57:10:202880,-8,-10,-26,3,-12,7,2,-9
14:57:10:210383,31,10,12,-14,-8,1,5,18
14:57:10:218017,31,10,12,-14,-8,1,5,18
14:57:10:225441,10,4,-5,-16,-17,5,1,14
14:57:10:233596,-27,-6,-4,-4,-5,9,8,-9
14:57:10:234415,-27,-6,-4,-4,-5,9,8,-9
14:57:10:240433,5,-1,4,-19,-8,1,0,-3
14:57:10:256126,1,-7,-3,7,-4,-2,-6,5
14:57:10:256930,1,-7,-3,7,-4,-2,-6,5
14:57:10:262959,2,3,13,19,-2,-3,4,-9
14:57:10:270419,-8,-5,-7,8,3,-9,-14,-8
14:57:10:277957,-8,-5,-7,8,3,-9,-14,-8
14:57:10:285398,1,0,2,12,-36,-5,1,-2
14:57:10:294075,8,12,37,18,-49,-10,-1,7
14:57:10:301179,8,12,37,18,-49,-10,-1,7
14:57:10:301954,0,10,12,-15,22,16,9,-4
14:57:10:324244,-13,-4,-23,-61,-7,-18,-10,-17
14:57:10:325090,-13,-4,-23,-61,-7,-18,-10,-17
14:57:10:325829,5,1,-3,14,6,-3,0,12
14:57:10:330447,8,-9,-6,5,-7,6,4,9
14:57:10:346191,8,-9,-6,5,-7,6,4,9
14:57:10:346919,-7,-5,2,-34,22,-16,-13,3
14:57:10:353605,-14,-8,-3,15,26,5,9,5
14:57:10:354424,-14,-8,-3,15,26,5,9,5
14:57:10:367903,0,-2,10,38,-31,-3,2,-5
14:57:10:376202,-1,1,-14,-20,-5,-10,-32,-7
14:57:10:376958,-1,1,-14,-20,-5,-10,-32,-7
14:57:10:391065,4,-4,-12,-56,10,10,9,-1
14:57:10:391847,1,-3,-12,13,3,22,-1,-9
14:57:10:397977,1,-3,-12,13,3,22,-1,-9
14:57:10:414318,-7,-16,-1,38,4,5,-8,-4
14:57:10:415194,-3,-1,3,-10,-17,1,0,-2
14:57:10:415857,-3,-1,3,-10,-17,1,0,-2
14:57:10:420426,9,4,-5,8,-2,-3,-2,-3
14:57:10:436082,2,-15,-29,-37,28,2,-2,-4
14:57:10:436897,2,-15,-29,-37,28,2,-2,-4
14:57:10:442906,1,-2,-10,-41,-20,-23,-6,4
14:57:10:450391,3,1,-11,-15,-10,-6,-7,4
14:57:10:457980,3,1,-11,-15,-10,-6,-7,4
14:57:10:465401,-11,-4,-4,4,3,-8,-1,-8
14:57:10:473629,-2,-5,-9,40,9,-3,24,2
14:57:10:474443,-2,-5,-9,40,9,-3,24,2
14:57:10:480416,12,8,14,15,-9,-3,4,16
14:57:10:496243,2,5,24,20,0,10,-8,3
14:57:10:496981,2,5,24,20,0,10,-8,3
14:57:10:502939,-9,-10,-11,-6,9,-1,-18,-1
14:57:10:510378,-3,9,7,31,37,17,13,-9
14:57:10:518032,-3,9,7,31,37,17,13,-9
14:57:10:525418,-1,-3,-14,-16,-1,-10,-1,-8
14:57:10:533636,6,3,22,0,-3,-11,-1,14
14:57:10:534462,6,3,22,0,-3,-11,-1,14
14:57:10:540479,-2,2,14,26,9,4,-6,0
14:57:10:556184,-9,-1,-6,-17,-10,-7,-1,-4
14:57:10:556958,-9,-1,-6,-17,-10,-7,-1,-4
14:57:10:562942,-5,-3,-11,8,-11,4,7,-4
14:57:10:578646,-2,4,-2,11,-18,4,4,8
14:57:10:579450,-2,4,-2,11,-18,4,4,8
14:57:10:585393,2,6,1,16,3,-2,5,-12
14:57:10:601786,5,-10,-8,-7,-5,-18,-5,-3
14:57:10:602553,5,-10,-8,-7,-5,-18,-5,-3
14:57:10:603366,4,0,13,-1,0,-8,-10,2
14:57:10:616082,2,-6,-14,-37,-30,-4,0,-5
14:57:10:616919,2,-6,-14,-37,-30,-4,0,-5
14:57:10:622890,2,-2,-3,-12,-7,13,2,-3
14:57:10:630420,-10,-7,-5,-3,-5,-9,-5,-12
14:57:10:646193,-10,-7,-5,-3,-5,-9,-5,-12
14:57:10:646953,-8,-8,-4,-8,-9,-13,-12,-11
14:57:10:653635,-22,2,7,-5,-4,-8,-15,-9
14:57:10:654435,-22,2,7,-5,-4,-8,-15,-9
14:57:10:660386,-13,1,-6,-3,-2,4,-5,7
14:57:10:676120,10,4,18,35,22,-2,-1,-1
14:57:10:676940,10,4,18,35,22,-2,-1,-1
14:57:10:691105,3,-1,-3,7,21,8,10,-6
14:57:10:691851,4,0,10,32,41,8,9,0
14:57:10:697957,4,0,10,32,41,8,9,0
14:57:10:705420,3,6,16,9,-13,3,1,10
14:57:10:713574,1,0,-2,-12,-23,-8,14,9
14:57:10:714391,1,0,-2,-12,-23,-8,14,9
14:57:10:727928,-1,2,0,-24,-16,-15,-9,0
14:57:10:736055,4,-3,-14,-5,-10,-1,-4,6
14:57:10:736863,4,-3,-14,-5,-10,-1,-4,6
14:57:10:742930,3,0,2,16,19,5,2,-8
14:57:10:758662,11,4,-3,-23,-2,14,0,9
14:57:10:759435,11,4,-3,-23,-2,14,0,9
14:57:10:765426,-9,-3,6,4,8,7,-1,-32
14:57:10:773631,-9,-3,6,4,8,7,-1,-32
14:57:10:774408,-7,-1,9,44,8,4,-13,-7
14:57:10:787935,4,-5,-15,-12,-13,9,8,15
14:57:10:796123,4,-5,-15,-12,-13,9,8,15
14:57:10:796930,-2,-1,-13,-30,-29,-20,-10,-3
14:57:10:802957,-11,-8,-9,-19,-13,-14,-6,-11
14:57:10:818679,-11,-8,-9,-19,-13,-14,-6,-11
14:57:10:819477,-16,-2,-1,-7,-27,-7,-9,-17
14:57:10:825423,5,0,0,8,1,-5,-12,1
14:57:10:833597,5,0,0,8,1,-5,-12,1
14:57:10:834426,5,5,6,-16,10,5,9,1
14:57:10:847980,-13,1,-10,-11,-6,-6,8,1
14:57:10:856208,-13,1,-10,-11,-6,-6,8,1
14:57:10:856977,16,-3,5,-11,-21,-6,-10,3
14:57:10:862894,3,-5,-7,16,-12,-5,-12,7
14:57:10:878679,3,-5,-7,16,-12,-5,-12,7
14:57:10:879465,1,3,3,-4,8,11,2,0
14:57:10:885405,6,-5,-22,-17,21,1,17,7
14:57:10:893711,6,-5,-22,-17,21,1,17,7
14:57:10:894482,-8,2,-7,-14,42,4,2,-5
14:57:10:907900,3,6,12,-3,29,-2,8,2
14:57:10:916208,3,6,12,-3,29,-2,8,2
14:57:10:916977,0,-7,-17,-20,-10,-4,5,1
14:57:10:922915,-9,1,-4,-9,-13,6,-3,-12
14:57:10:938654,-9,1,-4,-9,-13,6,-3,-12
14:57:10:939435,-2,4,8,9,21,3,0,-3
14:57:10:945450,-3,-8,6,20,2,8,6,4
14:57:10:953634,-3,-8,6,20,2,8,6,4
14:57:10:954446,4,-6,-4,4,-8,-13,-21,-6
14:57:10:967928,0,5,-1,17,21,-13,-12,1
14:57:10:976201,0,5,-1,17,21,-13,-12,1
14:57:10:976951,-8,-4,4,15,-11,-5,9,-23
14:57:10:982907,1,-8,-8,1,7,3,-8,-8
14:57:10:998648,1,-8,-8,1,7,3,-8,-8
14:57:10:999449,-3,-1,-10,-35,-7,0,2,-4
14:57:11:5403,-1,3,9,36,-16,-4,2,3
14:57:11:13624,-1,3,9,36,-16,-4,2,3
14:57:11:14443,4,-7,0,1,-11,-6,-9,9
14:57:11:27946,-2,-2,-5,-34,-37,1,4,-6
14:57:11:36149,-2,-2,-5,-34,-37,1,4,-6
14:57:11:36896,-4,0,-1,12,16,3,7,-2
14:57:11:42886,4,-7,-3,-14,7,14,-5,1
14:57:11:59019,4,-7,-3,-14,7,14,-5,1
14:57:11:66076,-3,-5,-8,-5,-10,8,-9,1
14:57:11:66913,8,3,4,12,24,7,11,9
14:57:11:73576,8,3,4,12,24,7,11,9
14:57:11:74458,-1,-1,-3,1,11,6,5,-4
14:57:11:87924,-19,-8,5,-35,-40,-20,-10,-13
14:57:11:96151,-19,-8,5,-35,-40,-20,-10,-13
14:57:11:96923,6,9,11,16,6,-13,6,6
14:57:11:102869,-11,-9,-6,-9,5,8,-2,-36
14:57:11:118643,-11,-9,-6,-9,5,8,-2,-36
14:57:11:119397,4,-3,-5,-6,1,-5,-3,-5
14:57:11:125514,-4,4,2,10,6,0,7,11
14:57:11:133355,-4,4,2,10,6,0,7,11
14:57:11:140363,5,-3,-4,10,-15,13,10,9
14:57:11:147909,13,6,15,4,1,-9,0,18
14:57:11:156202,13,6,15,4,1,-9,0,18
14:57:11:156943,-8,-2,6,-16,1,1,5,9
14:57:11:162923,-2,6,5,22,4,-6,-20,6
14:57:11:178638,-2,6,5,22,4,-6,-20,6
14:57:11:179443,-16,-1,0,19,25,14,3,-7
14:57:11:185375,8,-1,-9,-21,-2,-1,-2,5
14:57:11:201204,8,-1,-9,-21,-2,-1,-2,5
14:57:11:201874,-3,-2,-4,-8,3,-5,-5,-15
14:57:11:207964,-6,-5,-6,-15,-37,-7,11,-6
14:57:11:216222,-6,-5,-6,-15,-37,-7,11,-6
14:57:11:216982,2,3,3,-5,-24,-30,-11,3
14:57:11:222911,-1,-3,-6,-30,-24,2,-1,5
14:57:11:238917,-1,-3,-6,-30,-24,2,-1,5
14:57:11:239434,2,1,14,27,-57,-8,-8,2
14:57:11:245498,8,-4,-1,-11,18,17,-2,7
14:57:11:253622,8,-4,-1,-11,18,17,-2,7
14:57:11:254448,-6,2,10,2,54,-9,-4,-7
14:57:11:267996,-4,0,2,12,38,-12,5,0
14:57:11:276189,-4,0,2,12,38,-12,5,0
14:57:11:276948,-9,-2,-5,-5,-12,-1,-19,-2
14:57:11:282902,9,-1,-4,-4,12,-1,-2,9
14:57:11:298601,9,-1,-4,-4,12,-1,-2,9
14:57:11:299430,5,-6,-22,-8,27,17,9,-19
14:57:11:305453,-2,-3,-4,-41,-19,31,6,3
14:57:11:313653,-2,-3,-4,-41,-19,31,6,3
14:57:11:314418,2,-8,-7,-6,3,-1,-8,5
14:57:11:327906,2,0,-13,-7,1,-9,11,-14
14:57:11:336073,2,0,-13,-7,1,-9,11,-14
14:57:11:336905,4,2,-9,1,11,-7,20,7
14:57:11:342990,-15,-2,-3,11,0,-12,-6,-11
14:57:11:358589,-15,-2,-3,11,0,-12,-6,-11
14:57:11:359376,-5,-9,-8,-5,-5,5,13,-6
14:57:11:365502,14,7,11,19,5,0,-7,4
14:57:11:373620,14,7,11,19,5,0,-7,4
14:57:11:374423,-19,1,-5,-3,-11,1,-10,-11
14:57:11:387890,-1,-2,-2,5,-15,-16,-10,-8
14:57:11:396130,-1,-2,-2,5,-15,-16,-10,-8
14:57:11:396920,7,9,8,-17,-27,3,11,16
14:57:11:410386,-9,-5,-8,-26,-11,10,5,0
14:57:11:418704,-9,-5,-8,-26,-11,10,5,0
14:57:11:419465,3,-5,-15,-2,13,5,-1,6
14:57:11:425428,-3,4,-7,28,2,-12,-10,-15
14:57:11:433586,-3,4,-7,28,2,-12,-10,-15
14:57:11:434395,-5,4,0,-4,10,4,-17,-3
14:57:11:447918,-7,-7,-12,17,1,-104,5,5
14:57:11:456217,-7,-7,-12,17,1,-104,5,5
14:57:11:456955,1,-6,1,20,-1,-2,-15,0
14:57:11:462954,9,1,8,-4,7,88,-6,11
14:57:11:478661,9,1,8,-4,7,88,-6,11
14:57:11:479453,-2,-2,4,-20,1,52,17,14
14:57:11:485396,-20,3,-3,-7,-9,19,3,-4
14:57:11:501192,-20,3,-3,-7,-9,19,3,-4
14:57:11:501921,-6,4,-3,10,9,2,8,8
14:57:11:507859,7,0,26,-21,-22,0,5,-2
14:57:11:516221,7,0,26,-21,-22,0,5,-2
14:57:11:516981,-2,-6,-7,1,-28,-9,-2,-2
14:57:11:522921,6,-3,1,-1,7,3,-9,1
14:57:11:538632,6,-3,1,-1,7,3,-9,1
14:57:11:539419,8,6,1,0,9,-17,-4,-2
14:57:11:545432,4,20,0,-7,-8,2,-7,1
14:57:11:553659,4,20,0,-7,-8,2,-7,1
14:57:11:554455,-4,-9,10,1,-24,-27,-12,-8
14:57:11:567920,-4,-9,-4,2,13,-10,-4,-10
14:57:11:576187,-4,-9,-4,2,13,-10,-4,-10
14:57:11:576974,0,1,5,20,4,4,-1,1
14:57:11:582913,-2,18,2,-3,20,-31,-23,-7
14:57:11:606794,-2,18,2,-3,20,-31,-23,-7
14:57:11:607586,-1,-13,10,6,-18,4,6,1
14:57:11:608381,1,-21,-7,0,0,26,14,14
14:57:11:613641,1,-21,-7,0,0,26,14,14
14:57:11:614408,0,-11,-3,-11,-3,-4,-1,-8
14:57:11:627975,-13,-1,4,-4,-1,-5,2,-15
14:57:11:636177,-13,-1,4,-4,-1,-5,2,-15
14:57:11:636899,21,17,-8,-6,16,2,0,-3
14:57:11:642916,-3,-10,-5,22,-2,12,2,-6
14:57:11:658647,-3,-10,-5,22,-2,12,2,-6
14:57:11:659411,-9,-1,23,46,16,4,9,-7
14:57:11:665467,21,1,4,22,-9,20,-2,22
14:57:11:673663,21,1,4,22,-9,20,-2,22
14:57:11:674432,-13,-12,41,-7,7,-7,-35,-4
14:57:11:687917,-4,0,7,2,-3,0,9,-2
14:57:11:696173,-4,0,7,2,-3,0,9,-2
14:57:11:696906,12,8,-41,-36,-31,5,2,7
14:57:11:710539,-8,-7,-34,-35,8,11,7,-8
14:57:11:718418,-8,-7,-34,-35,8,11,7,-8
14:57:11:726085,3,-1,-17,-5,2,-5,12,1
14:57:11:726883,-11,-12,-20,10,4,-15,5,-10
14:57:11:732948,-11,-12,-20,10,4,-15,5,-10
14:57:11:740367,-13,4,-2,2,-40,-6,5,12
14:57:11:747948,-1,-9,-7,-9,-14,-8,-16,-2
14:57:11:756154,-1,-9,-7,-9,-14,-8,-16,-2
14:57:11:756893,-5,-5,5,-8,19,5,-5,-14
14:57:11:770433,10,4,13,-2,-28,-2,-10,3
14:57:11:778584,10,4,13,-2,-28,-2,-10,3
14:57:11:779393,4,9,-2,9,17,-3,-9,9
14:57:11:785405,8,1,6,16,18,7,3,8
14:57:11:792984,8,1,6,16,18,7,3,8
14:57:11:800408,7,-6,-11,-5,19,-3,4,24
14:57:11:807910,3,17,3,2,-6,-6,-13,-2
14:57:11:816181,3,17,3,2,-6,-6,-13,-2
14:57:11:816959,-10,2,8,-10,-5,3,-3,-16
14:57:11:830475,4,5,-23,6,-2,-9,22,11
14:57:11:838632,4,5,-23,6,-2,-9,22,11
14:57:11:839431,9,-7,-82,7,5,-5,5,7
14:57:11:845432,-20,-15,36,4,13,-9,5,-11
14:57:11:852963,-20,-15,36,4,13,-9,5,-11
14:57:11:860362,26,2,30,-5,3,3,12,-10
14:57:11:867877,-5,-15,13,-12,-2,3,0,-16
14:57:11:876181,-5,-15,13,-12,-2,3,0,-16
14:57:11:876923,-11,6,30,-5,19,4,0,4
14:57:11:890414,5,-5,-10,-22,-16,-20,-10,-10
14:57:11:898631,5,-5,-10,-22,-16,-20,-10,-10
14:57:11:899434,-20,0,30,-6,-45,-13,0,-4
14:57:11:905362,3,4,10,5,6,13,1,18
14:57:11:912977,3,4,10,5,6,13,1,18
14:57:11:920434,20,-13,0,-4,10,-11,-8,-8
14:57:11:927911,21,-2,-1,4,8,-6,7,7
14:57:11:936044,21,-2,-1,4,8,-6,7,7
14:57:11:936872,-20,-2,-3,-5,-2,18,8,-2
14:57:11:950399,-12,-1,-7,9,-7,4,-1,1
14:57:11:966830,-12,-1,-7,9,-7,4,-1,1
14:57:11:967586,11,8,28,5,-45,-4,-14,7
14:57:11:968360,-7,9,11,5,45,15,1,-1
14:57:11:972991,-7,9,11,5,45,15,1,-1
14:57:11:988525,-7,1,-12,17,35,8,-2,4
14:57:11:989337,-16,-7,-10,-11,-5,5,-9,-7
14:57:11:996194,-16,-7,-10,-11,-5,5,-9,-7
14:57:11:996906,-10,-3,-6,1,8,-2,3,-14
14:57:12:10343,-10,1,-12,23,-1,-6,-11,-12
14:57:12:18621,-10,1,-12,23,-1,-6,-11,-12
14:57:12:19392,-1,-1,-1,3,22,41,-5,-15
14:57:12:25402,5,9,29,-17,-21,-3,-10,-1
14:57:12:32986,5,9,29,-17,-21,-3,-10,-1
14:57:12:40385,1,10,11,4,12,-33,-3,4
14:57:12:56816,1,-5,-19,2,25,-22,-9,4
14:57:12:57617,1,-5,-19,2,25,-22,-9,4
14:57:12:58421,0,-49,-10,3,25,-14,11,0
14:57:12:79340,3,9,2,-1,-48,-3,9,8
14:57:12:80203,3,9,2,-1,-48,-3,9,8
14:57:12:80923,0,10,-16,-30,-34,-13,0,-15
14:57:12:85418,4,16,-8,-8,-15,2,-7,4
14:57:12:93000,4,16,-8,-8,-15,2,-7,4
14:57:12:100446,-6,19,-3,-3,-15,-8,16,-3
14:57:12:107921,21,7,13,11,18,2,23,8
14:57:12:116141,21,7,13,11,18,2,23,8
14:57:12:116982,-19,16,-14,-5,0,0,-23,5
14:57:12:130467,-7,-6,67,-21,5,0,-6,4
14:57:12:138654,-7,-6,67,-21,5,0,-6,4
14:57:12:139419,6,-9,52,-8,-3,1,1,-5
14:57:12:145452,0,-9,-52,2,-8,13,-5,-6
14:57:12:152961,0,-9,-52,2,-8,13,-5,-6
14:57:12:160419,-8,0,-40,-20,-5,-9,-9,8
14:57:12:167905,-6,3,-37,106,-12,-2,-23,1
14:57:12:176192,-6,3,-37,106,-12,-2,-23,1
14:57:12:176902,4,-4,-38,-17,15,22,-13,-14
14:57:12:190469,-6,-4,-9,-69,-19,-6,0,-19
14:57:12:198664,-6,-4,-9,-69,-19,-6,0,-19
14:57:12:199431,4,-4,-25,-90,-26,-7,10,11
14:57:12:205428,-24,8,15,-56,67,-5,0,-10
14:57:12:221124,-24,8,15,-56,67,-5,0,-10
14:57:12:221861,9,2,-11,16,34,6,-3,-1
14:57:12:227945,12,-5,1,24,2,6,-45,0
14:57:12:243666,12,-5,1,24,2,6,-45,0
14:57:12:244426,-3,-8,18,22,-28,2,-22,-2
14:57:12:250429,-3,-5,22,-14,-6,-13,25,0
14:57:12:258615,-3,-5,22,-14,-6,-13,25,0
14:57:12:259455,-1,-7,7,24,7,-13,17,14
14:57:12:265413,-4,-2,-16,-11,1,20,36,-18
14:57:12:272954,-4,-2,-16,-11,1,20,36,-18
14:57:12:280429,0,14,-4,10,24,8,-4,-11
14:57:12:287894,2,-7,-12,9,-6,1,18,13
14:57:12:295920,2,-7,-12,9,-6,1,18,13
14:57:12:311032,-4,-5,-7,-3,-17,-14,10,3
14:57:12:311895,5,-4,20,36,36,14,2,4
14:57:12:318642,5,-4,20,36,36,14,2,4
14:57:12:319434,6,-5,0,-3,-22,7,-2,0
14:57:12:325390,6,5,-12,2,-14,-13,-2,13
14:57:12:333010,6,5,-12,2,-14,-13,-2,13
14:57:12:340443,-6,8,17,-5,-16,0,-16,-9
14:57:12:347912,-7,-10,13,13,-21,-10,-2,-21
14:57:12:356200,-7,-10,13,13,-21,-10,-2,-21
14:57:12:356919,-5,1,-4,-12,-4,-10,-9,-7
14:57:12:370450,1,1,-10,-24,12,-1,-1,6
14:57:12:378595,1,1,-10,-24,12,-1,-1,6
14:57:12:379430,0,-12,-31,19,17,-2,4,6
14:57:12:385367,4,7,-1,1,6,9,3,12
14:57:12:392999,4,7,-1,1,6,9,3,12
14:57:12:400410,-5,21,14,65,14,-8,2,12
14:57:12:407887,-10,-17,-8,11,-19,-22,-12,-23
14:57:12:416108,-10,-17,-8,11,-19,-22,-12,-23
14:57:12:416920,-7,-15,0,-6,-9,-13,-4,-5
14:57:12:430409,2,-3,-10,-20,1,18,-11,4
14:57:12:438665,2,-3,-10,-20,1,18,-11,4
14:57:12:439413,6,-1,5,-7,-60,8,1,-5
14:57:12:453651,1,-6,-7,-16,-38,-11,9,-3
14:57:12:454433,1,-6,-7,-16,-38,-11,9,-3
14:57:12:460396,-15,-16,1,-2,31,-4,-2,-2
14:57:12:467919,-26,6,2,9,19,-1,-1,5
14:57:12:476098,-26,6,2,9,19,-1,-1,5
14:57:12:476869,0,-1,3,-15,11,-1,5,-3
14:57:12:490408,12,-7,-12,-15,11,-13,0,6
14:57:12:498649,12,-7,-12,-15,11,-13,0,6
14:57:12:499444,5,-4,7,19,-2,9,-6,1
14:57:12:505418,8,12,9,-3,-22,7,-3,2
14:57:12:512947,8,12,9,-3,-22,7,-3,2
14:57:12:520443,1,-1,-2,0,-5,-9,-5,-67
14:57:12:527926,-8,-4,-10,-12,22,8,13,2
14:57:12:536092,-8,-4,-10,-12,22,8,13,2
14:57:12:536870,-3,0,5,4,-18,-32,-30,35
14:57:12:550454,-10,-1,12,-3,-7,-8,-10,-1
14:57:12:558432,-10,-1,12,-3,-7,-8,-10,-1
14:57:12:566094,11,3,-5,-15,1,13,5,23
14:57:12:566872,-17,-4,-1,24,-19,-2,-10,9
14:57:12:572961,-17,-4,-1,24,-19,-2,-10,9
14:57:12:580395,28,1,-1,8,8,8,9,1
14:57:12:587955,22,1,-15,-11,-7,3,-2,-1
14:57:12:596222,22,1,-15,-11,-7,3,-2,-1
14:57:12:596900,18,3,-11,-53,-4,0,12,16
14:57:12:610415,-4,-8,-8,3,0,6,11,-3
14:57:12:618600,-4,-8,-8,3,0,6,11,-3
14:57:12:619417,-7,8,25,30,21,2,9,9
14:57:12:625420,-12,6,-3,-29,-7,5,21,-25
14:57:12:632962,-12,6,-3,-29,-7,5,21,-25
14:57:12:640368,-13,-6,-34,-17,1,0,18,-4
14:57:12:647960,0,-8,10,2,1,-10,-15,2
14:57:12:655544,0,-8,10,2,1,-10,-15,2
14:57:12:662961,-4,2,6,15,2,-8,-39,-17
14:57:12:679276,-3,2,-7,15,20,-11,-14,-32
14:57:12:680074,-3,2,-7,15,20,-11,-14,-32
14:57:12:680889,-18,-8,-6,-1,4,15,10,-72
14:57:12:701736,6,3,0,2,16,8,-18,15
14:57:12:702546,6,3,0,2,16,8,-18,15
14:57:12:703399,-9,-5,0,6,-11,8,7,47
14:57:12:707902,10,-1,-7,-33,0,-2,11,24
14:57:12:715445,10,-1,-7,-33,0,-2,11,24
14:57:12:722957,2,-1,-4,6,23,-10,-6,12
14:57:12:730400,-13,11,36,54,-8,-16,-13,11
14:57:12:739388,-13,11,36,54,-8,-16,-13,11
14:57:12:740169,-6,0,7,6,15,10,3,10
14:57:12:753567,2,-9,-8,7,-15,12,-6,2
14:57:12:754389,2,-9,-8,7,-15,12,-6,2
14:57:12:760353,6,1,19,21,-36,-18,-12,-8
14:57:12:767924,-18,-14,-20,-18,18,16,7,-39
14:57:12:775478,-18,-14,-20,-18,18,16,7,-39
14:57:12:782875,0,4,58,-27,6,-8,3,2
14:57:12:790417,12,-3,0,-1,24,9,14,24
14:57:12:798633,12,-3,0,-1,24,9,14,24
14:57:12:799456,-15,1,-43,-10,0,5,-15,-13
14:57:12:813576,9,-2,-9,-6,-6,-7,-11,-13
14:57:12:814397,9,-2,-9,-6,-6,-7,-11,-13
14:57:12:820380,10,8,-3,23,14,-9,-4,4
14:57:12:827906,2,4,0,-5,12,1,-3,-5
14:57:12:835433,2,4,0,-5,12,1,-3,-5
14:57:12:842904,-3,-15,-27,-22,-12,-7,5,5
14:57:12:850408,0,1,-18,-6,-19,-9,10,10
14:57:12:858612,0,1,-18,-6,-19,-9,10,10
14:57:12:859402,0,0,-26,3,-30,-64,17,-6
14:57:12:873621,2,6,11,9,-3,2,2,3
14:57:12:874455,2,6,11,9,-3,2,2,3
14:57:12:880405,-1,-2,12,-10,-1,16,-1,7
14:57:12:887867,-7,-7,-5,11,-21,-7,-16,-4
14:57:12:895505,-7,-7,-5,11,-21,-7,-16,-4
14:57:12:902914,0,-7,-7,2,22,40,15,-8
14:57:12:910385,4,1,-8,-6,-2,-17,-9,2
14:57:12:918627,4,1,-8,-6,-2,-17,-9,2
14:57:12:919398,2,0,3,-20,-9,11,0,1
14:57:12:933615,-10,0,1,-3,6,12,25,8
14:57:12:934451,-10,0,1,-3,6,12,25,8
14:57:12:940436,-3,6,1,0,0,12,-10,-14
14:57:12:947955,1,3,-3,-4,-11,0,-5,4
14:57:12:955433,1,3,-3,-4,-11,0,-5,4
14:57:12:962921,5,-2,9,1,-17,1,-13,8
14:57:12:970437,-6,4,20,-20,-6,-7,-4,-10
14:57:12:978601,-6,4,20,-20,-6,-7,-4,-10
14:57:12:979399,-6,0,-13,-29,-20,17,10,3
14:57:12:993593,4,-7,-1,1,-8,-2,-5,-2
14:57:12:994408,4,-7,-1,1,-8,-2,-5,-2
14:57:13:434,-13,-11,-14,-4,21,-17,4,2
14:57:13:7919,-2,-5,-1,2,7,3,4,-1
14:57:13:15464,-2,-5,-1,2,7,3,4,-1
14:57:13:22866,-4,1,-10,10,-8,-11,-4,-6
14:57:13:30377,-3,-5,-53,-6,-2,-1,-6,-6
14:57:13:38618,-3,-5,-53,-6,-2,-1,-6,-6
14:57:13:39428,2,6,-12,25,24,-1,-14,7
14:57:13:61721,6,-5,32,15,10,-12,-7,-1
14:57:13:62537,6,-5,32,15,10,-12,-7,-1
14:57:13:63375,3,-12,0,5,12,1,6,-2
14:57:13:67961,-3,4,22,-12,-8,0,3,-2
14:57:13:75419,-3,4,22,-12,-8,0,3,-2
14:57:13:82948,22,0,11,-20,-3,1,9,28
14:57:13:99285,-2,-4,7,-12,-28,0,-9,-14
14:57:13:100032,-2,-4,7,-12,-28,0,-9,-14
14:57:13:100897,-8,5,17,-4,-20,9,2,-9
14:57:13:114326,6,6,-4,26,7,16,2,5
14:57:13:115174,6,6,-4,26,7,16,2,5
14:57:13:120472,-5,4,-3,-33,-27,-3,-6,-6
14:57:13:127920,-3,-7,3,6,26,9,-2,0
14:57:13:135448,-3,-7,3,6,26,9,-2,0
14:57:13:142995,-13,-21,-9,33,38,6,-7,-16
14:57:13:150482,-1,-4,-7,4,-5,-10,1,0
14:57:13:158590,-1,-4,-7,4,-5,-10,1,0
14:57:13:159400,-5,6,-6,16,-18,-17,-1,-8
14:57:13:173626,-9,1,-14,11,6,-7,-27,1
14:57:13:174423,-9,1,-14,11,6,-7,-27,1
14:57:13:180445,-3,7,16,-8,21,-48,3,3
14:57:13:187901,11,2,5,-7,-19,13,33,15
14:57:13:195438,11,2,5,-7,-19,13,33,15
14:57:13:202895,4,2,12,-5,3,46,1,19
14:57:13:210404,-14,-2,10,-22,0,16,-16,-27
14:57:13:218593,-14,-2,10,-22,0,16,-16,-27
14:57:13:219401,6,6,7,-7,-19,9,-9,-9
14:57:13:233590,-5,-4,-6,-15,2,0,3,-9
14:57:13:234406,-5,-4,-6,-15,2,0,3,-9
14:57:13:240431,7,3,-7,9,3,-15,-12,-4
14:57:13:248006,8,-2,3,-22,-34,-19,10,5
14:57:13:255519,8,-2,3,-22,-34,-19,10,5
14:57:13:262972,-9,0,-9,-26,8,5,4,-5
14:57:13:270400,1,1,-18,-2,-4,-8,-6,-5
14:57:13:278660,1,1,-18,-2,-4,-8,-6,-5
14:57:13:279469,-15,-6,-19,0,8,21,10,7
14:57:13:293682,3,6,2,-13,7,-6,6,5
14:57:13:294445,3,6,2,-13,7,-6,6,5
14:57:13:300433,2,-6,6,-4,6,0,13,2
14:57:13:307926,3,-3,3,3,6,-3,0,5
14:57:13:315459,3,-3,3,3,6,-3,0,5
14:57:13:322914,-8,-7,-8,0,-11,-15,3,-11
14:57:13:330438,2,3,-3,-5,0,-6,3,6
14:57:13:338627,2,3,-3,-5,0,-6,3,6
14:57:13:339458,-2,10,29,8,9,8,-5,-3
14:57:13:353362,-6,-5,-12,-21,-25,-8,1,-8
14:57:13:361154,-6,-5,-12,-21,-25,-8,1,-8
14:57:13:361908,8,-8,-3,-6,-24,4,2,6
14:57:13:367905,-1,-10,-3,2,14,5,-6,10
14:57:13:375469,-1,-10,-3,2,14,5,-6,10
14:57:13:382889,9,6,-12,-7,-1,8,-4,-7
14:57:13:399304,0,-1,-8,4,10,-6,6,0
14:57:13:400058,0,-1,-8,4,10,-6,6,0
14:57:13:400888,-6,2,5,2,1,-7,-8,3
14:57:13:421750,7,9,1,8,-6,7,0,4
14:57:13:422548,7,9,1,8,-6,7,0,4
14:57:13:423345,5,-4,17,-9,-2,3,-3,5
14:57:13:427895,-2,-5,4,15,28,-13,2,-9
14:57:13:435438,-2,-5,4,15,28,-13,2,-9
14:57:13:442910,-6,-9,-4,15,35,4,-2,-7
14:57:13:450355,-6,-5,-12,-12,-34,-4,-9,-1
14:57:13:458625,-6,-5,-12,-12,-34,-4,-9,-1
14:57:13:459382,-5,-3,-11,-6,-5,-7,-21,-15
14:57:13:473583,-4,1,3,-4,9,0,-4,-6
14:57:13:474441,-4,1,3,-4,9,0,-4,-6
14:57:13:480391,2,-5,-13,-14,-25,-6,3,5
14:57:13:487884,7,4,17,6,20,9,9,7
14:57:13:495531,7,4,17,6,20,9,9,7
14:57:13:510994,-1,-5,-4,-4,-26,-31,-1,-2
14:57:13:511887,4,-2,2,-1,20,12,-7,14
14:57:13:518582,4,-2,2,-1,20,12,-7,14
14:57:13:519408,-7,4,-21,-24,-3,-2,-5,2
14:57:13:533576,5,4,8,20,-18,0,5,0
14:57:13:534377,5,4,8,20,-18,0,5,0
14:57:13:540417,-5,-8,-12,-23,-8,7,7,-19
14:57:13:547903,-12,-5,-3,14,0,3,1,-7
14:57:13:555436,-12,-5,-3,14,0,3,1,-7
14:57:13:562860,6,6,5,25,9,5,2,11
14:57:13:570357,-8,-4,8,-35,12,3,7,-12
14:57:13:578680,-8,-4,8,-35,12,3,7,-12
14:57:13:579395,-11,-6,-12,14,-1,-20,-5,-15
14:57:13:593646,2,-4,-6,-14,-15,-7,-6,-3
14:57:13:594457,2,-4,-6,-14,-15,-7,-6,-3
14:57:13:600386,3,4,17,-17,-14,8,1,1
14:57:13:616078,-7,2,3,-6,-42,-10,-4,4
14:57:13:616943,-7,2,3,-6,-42,-10,-4,4
14:57:13:622863,-4,6,-1,13,-9,-23,-14,-4
14:57:13:638622,-6,-8,-21,-6,28,-6,-2,-10
14:57:13:639460,-6,-8,-21,-6,28,-6,-2,-10
14:57:13:645419,14,-1,-3,-9,-9,-1,10,23
14:57:13:653992,1,5,-6,10,16,7,-2,-5
14:57:13:661118,1,5,-6,10,16,7,-2,-5
14:57:13:661909,-1,6,-8,-7,18,17,11,4
14:57:13:676063,-12,-3,-11,-22,-15,-26,-17,-17
14:57:13:676893,-12,-3,-11,-22,-15,-26,-17,-17
14:57:13:682953,-1,-4,3,-14,-3,-2,-8,-15
14:57:13:690408,8,-12,0,27,8,6,-10,1
14:57:13:697947,8,-12,0,27,8,6,-10,1
14:57:13:705377,-3,-4,-3,2,-53,-16,-41,-1
14:57:13:721768,1,8,14,26,-1,0,-10,-2
14:57:13:722582,1,8,14,26,-1,0,-10,-2
14:57:13:723382,-14,1,23,-5,39,7,-20,-5
14:57:13:736100,-1,0,6,4,5,-29,6,-5
14:57:13:736948,-1,0,6,4,5,-29,6,-5
14:57:13:742997,-1,-1,-4,11,6,10,27,5
14:57:13:750490,6,15,10,-7,7,7,3,10
14:57:13:757969,6,15,10,-7,7,7,3,10
14:57:13:765412,-5,-12,-7,-4,15,3,6,-10
14:57:13:773645,0,-1,-3,-6,-27,6,15,-1
14:57:13:774432,0,-1,-3,-6,-27,6,15,-1
14:57:13:780371,-1,-1,0,16,9,-4,5,-2
14:57:13:796096,-3,-8,-13,-3,6,7,1,-3
14:57:13:796916,-3,-8,-13,-3,6,7,1,-3
14:57:13:802862,0,0,-9,10,-6,-1,12,0
14:57:13:811133,5,2,7,23,-17,23,0,3
14:57:13:811950,5,2,7,23,-17,23,0,3
14:57:13:825437,6,-4,11,23,14,-12,8,-1
14:57:13:833565,-7,-8,-2,-18,-5,-7,-2,-1
14:57:13:834417,-7,-8,-2,-18,-5,-7,-2,-1
14:57:13:840378,-2,4,-1,14,-4,15,-1,-2
14:57:13:856091,-1,0,-1,28,26,-7,-5,6
14:57:13:856893,-1,0,-1,28,26,-7,-5,6
14:57:13:862885,0,0,6,-18,-15,3,-4,-3
14:57:13:871484,8,6,-6,12,-17,12,8,16
14:57:13:877985,8,6,-6,12,-17,12,8,16
14:57:13:885387,-2,-1,4,18,-17,-19,1,-11
14:57:13:893589,-12,-18,-13,-9,6,6,4,2
14:57:13:894438,-12,-18,-13,-9,6,6,4,2
14:57:13:900413,-1,2,9,20,19,0,-19,-12
14:57:13:916093,2,11,-10,-7,0,-8,-6,-6
14:57:13:916908,2,11,-10,-7,0,-8,-6,-6
14:57:13:922861,-2,-3,2,-4,13,22,23,-6
14:57:13:931121,-4,-4,-16,-45,4,2,-13,-4
14:57:13:931942,-4,-4,-16,-45,4,2,-13,-4
14:57:13:945412,-2,-1,-5,1,-8,4,7,5
14:57:13:953589,-3,-9,-4,-46,-21,-13,-5,-6
14:57:13:954456,-3,-9,-4,-46,-21,-13,-5,-6
14:57:13:960371,2,2,18,-2,-14,-8,-5,-2
14:57:13:976096,-3,-2,2,10,0,-7,-3,-14
14:57:13:976887,-3,-2,2,10,0,-7,-3,-14
14:57:13:991742,9,-4,-18,-25,6,3,1,14
14:57:13:992534,-1,3,12,23,6,2,-2,4
14:57:13:993369,-1,3,12,23,6,2,-2,4
14:57:14:5438,3,4,-8,9,1,-5,-8,-1
14:57:14:13568,-2,-3,-5,-16,3,4,6,-6
14:57:14:14418,-2,-3,-5,-16,3,4,6,-6
14:57:14:20453,-7,-11,0,22,4,-4,-17,7
14:57:14:36083,-2,4,0,1,1,-10,1,-11
14:57:14:36980,-2,4,0,1,1,-10,1,-11
14:57:14:42931,-6,1,-2,-28,-6,-6,-7,-5
14:57:14:51088,1,6,9,22,6,12,11,6
14:57:14:51883,1,6,9,22,6,12,11,6
14:57:14:65458,2,2,-3,-3,-5,-13,1,6
14:57:14:73632,4,-13,-10,-25,3,-4,-9,1
14:57:14:74443,4,-13,-10,-25,3,-4,-9,1
14:57:14:80403,-4,-11,-17,-4,-6,5,-5,-4
14:57:14:96261,-4,-11,-17,-4,-6,5,-5,-4
14:57:14:96906,-5,2,12,23,3,-2,-5,1
14:57:14:102899,-4,4,-13,-11,-2,-30,-1,-2
14:57:14:118649,-4,4,-13,-11,-2,-30,-1,-2
14:57:14:119416,5,8,-1,-11,-15,3,15,6
14:57:14:135360,-13,-7,4,1,11,13,19,1
14:57:14:136155,-13,-7,4,1,11,13,19,1
14:57:14:141101,-4,2,6,15,18,6,-13,-4
14:57:14:141875,17,7,3,9,2,12,6,2
14:57:14:156151,17,7,3,9,2,12,6,2
14:57:14:156926,11,-1,-8,-35,-20,3,-1,-6
14:57:14:162896,-4,-1,2,-29,-26,0,-2,1
14:57:14:178631,-4,-1,2,-29,-26,0,-2,1
14:57:14:179395,4,-3,-7,-1,5,-10,-5,7
14:57:14:185400,-3,-4,6,20,3,-4,-2,-5
14:57:14:193672,-3,-4,6,20,3,-4,-2,-5
14:57:14:194400,-16,-13,-19,-19,8,0,-3,-4
14:57:14:200412,8,-1,1,13,27,17,2,8
14:57:14:216187,8,-1,1,13,27,17,2,8
14:57:14:216897,0,0,6,35,12,4,2,-3
14:57:14:222899,-2,6,4,-1,4,6,-3,-7
14:57:14:238595,-2,6,4,-1,4,6,-3,-7
14:57:14:239424,-5,-6,0,34,4,-3,5,2
14:57:14:245469,-5,-3,7,-11,-2,7,-5,-4
14:57:14:253609,-5,-3,7,-11,-2,7,-5,-4
14:57:14:254387,-13,-8,-14,-4,1,-7,-10,-19
14:57:14:260368,5,3,-2,-12,4,8,12,2
14:57:14:276072,5,3,-2,-12,4,8,12,2
14:57:14:276861,5,-1,13,25,12,1,-2,0
14:57:14:282940,2,5,5,-8,5,-4,1,7
14:57:14:298626,2,5,5,-8,5,-4,1,7
14:57:14:299437,6,3,7,-14,-14,-4,4,10
14:57:14:305385,5,-3,-6,0,-4,-5,4,5
14:57:14:313602,5,-3,-6,0,-4,-5,4,5
14:57:14:314411,-7,-9,-3,-9,-9,-10,-16,-6
14:57:14:320390,-3,-4,-2,12,4,-28,-6,-7
14:57:14:336209,-3,-4,-2,12,4,-28,-6,-7
14:57:14:336929,24,17,16,-14,-3,2,12,20
14:57:14:342889,-11,6,2,-12,-23,-14,-17,-12
14:57:14:358662,-11,6,2,-12,-23,-14,-17,-12
14:57:14:359464,-6,-1,0,3,9,-9,-5,-2
14:57:14:365419,-2,-18,-20,-34,-10,-9,-12,3
14:57:14:373588,-2,-18,-20,-34,-10,-9,-12,3
14:57:14:374394,-4,-4,-2,30,-4,-2,-2,-4
14:57:14:380399,-2,11,3,-7,6,7,0,1
14:57:14:396224,-2,11,3,-7,6,7,0,1
14:57:14:396969,1,7,-5,1,14,6,-2,-4
14:57:14:402917,2,-6,-9,0,-16,1,1,9
14:57:14:426747,2,-6,-9,0,-16,1,1,9
14:57:14:427565,1,2,9,-5,-14,2,21,8
14:57:14:428385,3,-3,3,2,-3,-3,-25,-18
14:57:14:433646,3,-3,3,2,-3,-3,-25,-18
14:57:14:434444,3,3,-4,-5,-6,-8,-12,14
14:57:14:440407,-12,1,-2,7,13,27,13,-12
14:57:14:456143,-12,1,-2,7,13,27,13,-12
14:57:14:456881,-9,-6,-4,8,-29,2,-9,-14
14:57:14:462880,4,-6,0,24,-9,5,8,12
14:57:14:478650,4,-6,0,24,-9,5,8,12
14:57:14:479450,7,17,29,4,4,7,3,3
14:57:14:485366,-3,2,2,67,4,-16,6,-1
14:57:14:493589,-3,2,2,67,4,-16,6,-1
14:57:14:494375,-8,-12,-19,-28,-3,-20,-3,2
14:57:14:500387,-6,-6,-4,-10,12,-16,-3,-8
14:57:14:516183,-6,-6,-4,-10,12,-16,-3,-8
14:57:14:516940,0,2,0,6,-1,6,-2,-5
14:57:14:522910,25,3,-1,-17,11,22,2,11
14:57:14:538608,25,3,-1,-17,11,22,2,11
14:57:14:539413,-3,-10,-9,-18,-15,-3,4,-6
14:57:14:545417,-19,-6,6,-2,-22,-3,-6,-10
14:57:14:553634,-19,-6,6,-2,-22,-3,-6,-10
14:57:14:554403,-10,-7,-13,-3,7,-3,-2,-9
14:57:14:567918,7,1,2,-9,-20,-9,-1,-9
14:57:14:576071,7,1,2,-9,-20,-9,-1,-9
14:57:14:576854,-1,3,-2,22,16,2,-1,2
14:57:14:582911,3,4,7,13,13,-1,0,6
14:57:14:598597,3,4,7,13,13,-1,0,6
14:57:14:599384,4,-7,-23,-49,-31,-11,-9,-4
14:57:14:605406,-6,-5,-11,-19,-12,16,5,1
14:57:14:613605,-6,-5,-11,-19,-12,16,5,1
14:57:14:614437,-6,-11,-6,-7,8,5,0,0
14:57:14:627942,-5,-4,-3,-1,-5,-9,-11,-1
14:57:14:636114,-5,-4,-3,-1,-5,-9,-11,-1
14:57:14:636871,6,1,8,-21,4,15,-6,-4
14:57:14:642942,-5,5,-8,-6,19,3,6,-3
14:57:14:658644,-5,5,-8,-6,19,3,6,-3
14:57:14:659458,-1,1,2,21,-3,-3,10,8
14:57:14:674344,-9,-4,-1,-7,-4,-5,0,-12
14:57:14:675225,-9,-4,-1,-7,-4,-5,0,-12
14:57:14:675905,10,2,14,11,13,-3,-8,10
14:57:14:696771,-4,9,2,15,-14,-6,11,2
14:57:14:697620,-4,9,2,15,-14,-6,11,2
14:57:14:698425,-1,2,-7,13,-4,11,-1,0
14:57:14:702933,4,-6,3,-6,-6,8,9,9
14:57:14:718620,4,-6,3,-6,-6,8,9,9
14:57:14:719380,-12,-4,17,15,1,-2,2,-1
14:57:14:725437,12,5,-4,-18,-53,-8,3,6
14:57:14:733615,12,5,-4,-18,-53,-8,3,6
14:57:14:734417,3,6,6,12,-12,1,0,-7
14:57:14:747937,-1,-3,2,2,14,-8,-2,-12
14:57:14:756126,-1,-3,2,2,14,-8,-2,-12
14:57:14:756920,3,3,14,14,12,-12,2,-17
14:57:14:762922,7,-5,2,7,-1,-7,-8,6
14:57:14:770440,7,-5,2,7,-1,-7,-8,6
14:57:14:777871,-4,2,-14,-7,15,6,9,1
14:57:14:785389,-11,-8,-9,-1,-7,-7,-13,-9
14:57:14:793595,-11,-8,-9,-1,-7,-7,-13,-9
14:57:14:794411,-1,1,-3,-21,-12,5,9,7
14:57:14:807948,-5,1,-8,-9,0,-13,-13,3
14:57:14:816120,-5,1,-8,-9,0,-13,-13,3
14:57:14:816889,-8,-1,-38,-13,-12,-10,-6,-15
14:57:14:822871,-1,10,-4,-3,24,8,6,2
14:57:14:830481,-1,10,-4,-3,24,8,6,2
14:57:14:837873,-7,-2,19,4,7,0,-1,-3
14:57:14:845403,-4,-1,11,0,28,-3,-17,0
14:57:14:853631,-4,-1,11,0,28,-3,-17,0
14:57:14:854416,-2,-6,2,3,-12,3,-9,-8
14:57:14:867922,-3,-1,2,-30,-2,15,4,-4
14:57:14:876151,-3,-1,2,-30,-2,15,4,-4
14:57:14:876948,-4,-5,-2,3,9,0,-5,-1
14:57:14:882891,2,-1,13,3,-11,-1,6,2
14:57:14:890468,2,-1,13,3,-11,-1,6,2
14:57:14:897927,3,1,-4,-14,-17,-27,-1,2
14:57:14:905437,3,0,-2,2,-29,-5,11,10
14:57:14:913646,3,0,-2,2,-29,-5,11,10
14:57:14:914459,2,-10,-8,15,2,3,0,-2
14:57:14:927957,4,-1,2,21,10,8,-4,6
14:57:14:936199,4,-1,2,21,10,8,-4,6
14:57:14:936939,3,3,-4,-2,-4,5,13,9
14:57:14:951109,-3,5,13,-17,-8,-24,-15,-6
14:57:14:951923,-3,5,13,-17,-8,-24,-15,-6
14:57:14:957900,-3,2,5,-12,14,1,-3,-2
14:57:14:965454,8,-3,-4,32,5,2,6,3
14:57:14:973645,8,-3,-4,32,5,2,6,3
14:57:14:974445,0,6,2,-13,-5,-15,-23,-7
14:57:14:987910,-4,-2,-17,-21,-1,15,3,-6
14:57:14:996198,-4,-2,-17,-21,-1,15,3,-6
14:57:14:996891,0,-7,-10,-8,-12,9,-8,6
14:57:15:2924,5,1,-1,12,5,-8,-3,-4
14:57:15:10533,5,1,-1,12,5,-8,-3,-4
14:57:15:17933,2,-4,2,-10,-7,-9,-5,0
14:57:15:25428,25,-5,-4,-1,6,-9,-9,1
14:57:15:33637,25,-5,-4,-1,6,-9,-9,1
14:57:15:34419,-13,-6,-3,0,17,8,0,-9
14:57:15:47934,-12,2,6,24,-2,-1,-19,-1
14:57:15:56184,-12,2,6,24,-2,-1,-19,-1
14:57:15:56971,7,-1,-10,-3,-17,0,-8,6
14:57:15:62912,-7,-2,-2,24,19,-2,4,-14
14:57:15:70459,-7,-2,-2,24,19,-2,4,-14
14:57:15:77909,-2,0,-4,12,9,1,5,-3
14:57:15:85425,-7,-6,3,5,9,-5,1,-10
14:57:15:93596,-7,-6,3,5,9,-5,1,-10
14:57:15:94431,-4,-4,-10,-15,26,7,5,-6
14:57:15:107923,-1,4,-1,-1,-3,11,3,7
14:57:15:116097,-1,4,-1,-1,-3,11,3,7
14:57:15:116887,0,-3,4,-5,-2,-5,-3,4
14:57:15:122925,12,-1,-11,-31,-17,7,6,12
14:57:15:130413,12,-1,-11,-31,-17,7,6,12
14:57:15:137900,3,7,11,45,5,-1,5,1
14:57:15:145371,-5,-5,-2,-9,-3,1,3,2
14:57:15:153643,-5,-5,-2,-9,-3,1,3,2
14:57:15:154392,-5,2,7,-6,10,-5,5,0
14:57:15:167941,-17,-4,-15,8,4,-5,3,-7
14:57:15:176154,-17,-4,-15,8,4,-5,3,-7
14:57:15:176888,-4,-7,0,13,12,-1,1,0
14:57:15:182894,-6,6,11,2,9,-14,-12,-11
14:57:15:190478,-6,6,11,2,9,-14,-12,-11
14:57:15:197893,-4,-6,5,-10,-12,-9,-8,-8
14:57:15:205397,-4,-8,4,5,-2,-3,-9,4
14:57:15:213596,-4,-8,4,5,-2,-3,-9,4
14:57:15:214432,1,-6,-10,-11,-18,12,2,10
14:57:15:227897,-15,2,0,-17,10,5,4,5
14:57:15:236099,-15,2,0,-17,10,5,4,5
14:57:15:236884,-30,1,2,3,17,2,8,-23
14:57:15:242862,19,-13,-19,-5,8,2,-3,12
14:57:15:250474,19,-13,-19,-5,8,2,-3,12
14:57:15:257917,12,5,8,8,-14,-7,11,9
14:57:15:265411,-3,-3,-3,-2,1,-7,5,-5
14:57:15:273622,-3,-3,-3,-2,1,-7,5,-5
14:57:15:274422,1,2,-6,-38,2,-3,-9,-8
14:57:15:287882,7,13,23,30,2,7,1,1
14:57:15:296230,7,13,23,30,2,7,1,1
14:57:15:296871,-1,-6,-10,25,3,6,3,-3
14:57:15:302897,-4,4,-5,-18,9,4,-3,-6
14:57:15:310516,-4,4,-5,-18,9,4,-3,-6
14:57:15:317932,7,1,6,-8,-14,-7,-6,8
14:57:15:334318,1,-11,-1,8,14,9,8,7
14:57:15:335075,1,-11,-1,8,14,9,8,7
14:57:15:335884,-5,-5,-5,-8,2,-2,-3,-17
14:57:15:347893,-1,-5,-13,-22,-5,1,6,-6
14:57:15:356140,-1,-5,-13,-22,-5,1,6,-6
14:57:15:356929,3,-4,-28,-69,-50,-5,-6,7
14:57:15:362869,0,-2,-18,-23,-32,-4,-10,-1
14:57:15:370460,0,-2,-18,-23,-32,-4,-10,-1
14:57:15:377955,7,4,2,15,5,7,10,10
14:57:15:385394,-6,-2,-3,-9,5,-4,-6,-6
14:57:15:393642,-6,-2,-3,-9,5,-4,-6,-6
14:57:15:394433,3,7,18,39,3,-2,-4,1
14:57:15:407932,-10,2,2,17,9,8,10,-12
14:57:15:416198,-10,2,2,17,9,8,10,-12
14:57:15:416910,-3,-2,0,21,10,4,-1,-2
14:57:15:422930,-1,-2,3,7,-16,-15,-1,4
14:57:15:430408,-1,-2,3,7,-16,-15,-1,4
14:57:15:437914,0,0,-6,-10,-12,10,0,11
14:57:15:445409,-10,-2,-6,-9,-15,-6,-6,-8
14:57:15:454033,-10,-2,-6,-9,-15,-6,-6,-8
14:57:15:460417,-17,-3,12,14,9,5,-3,3
14:57:15:467902,8,8,15,-13,-16,3,4,6
14:57:15:476095,8,8,15,-13,-16,3,4,6
14:57:15:476877,12,11,8,-6,5,-8,1,-4
14:57:15:491108,2,-2,-6,3,-10,-4,-8,-3
14:57:15:491862,2,-2,-6,3,-10,-4,-8,-3
14:57:15:497855,-2,-4,-11,5,8,-2,5,-2
14:57:15:505458,1,-6,-6,-35,-25,3,-10,-9
14:57:15:512935,1,-6,-6,-35,-25,3,-10,-9
14:57:15:520354,6,-4,-5,-7,7,6,-7,3
14:57:15:527850,5,-1,3,16,12,10,6,16
14:57:15:536145,5,-1,3,16,12,10,6,16
14:57:15:536934,-13,-1,-3,-11,-7,-9,1,-17
14:57:15:551115,-6,-12,-15,-3,-4,-4,-2,0
14:57:15:551938,-6,-12,-15,-3,-4,-4,-2,0
14:57:15:557910,0,5,10,17,3,-8,-1,-7
14:57:15:565418,-5,-1,10,1,2,-2,5,-5
14:57:15:572956,-5,-1,10,1,2,-2,5,-5
14:57:15:580427,-7,-1,7,30,3,-2,-5,-8
14:57:15:587866,8,4,-1,3,-11,-5,-7,-5
14:57:15:596204,8,4,-1,3,-11,-5,-7,-5
14:57:15:596873,-2,-5,-8,-24,-11,-1,3,8
14:57:15:611129,5,-1,-5,-11,12,-6,1,4
14:57:15:611911,5,-1,-5,-11,12,-6,1,4
14:57:15:617893,3,-1,-2,-18,3,-2,1,1
14:57:15:625400,-18,3,20,-8,-1,-2,13,-9
14:57:15:632971,-18,3,20,-8,-1,-2,13,-9
14:57:15:640425,0,-2,15,16,3,-1,10,-2
14:57:15:647911,1,6,10,10,-3,0,5,8
14:57:15:656129,1,6,10,10,-3,0,5,8
14:57:15:656903,4,1,-1,-3,5,5,-5,-19
14:57:15:671144,-13,-10,-27,-9,-15,-6,-7,1
14:57:15:671955,-13,-10,-27,-9,-15,-6,-7,1
14:57:15:677918,7,-1,2,10,10,-8,-16,2
14:57:15:685426,-1,-3,-7,27,21,12,5,-6
14:57:15:692898,-1,-3,-7,27,21,12,5,-6
14:57:15:700394,1,1,3,-7,-11,6,-2,4
14:57:15:707973,0,-5,-6,0,6,10,0,5
14:57:15:716099,0,-5,-6,0,6,10,0,5
14:57:15:716901,0,1,10,6,0,-14,-22,0
14:57:15:739336,8,7,28,33,28,4,-9,-12
14:57:15:740081,8,7,28,33,28,4,-9,-12
14:57:15:740908,-4,-4,-34,-32,-16,-26,-17,9
14:57:15:745381,-8,-11,-9,-9,5,2,-4,-11
14:57:15:752962,-8,-11,-9,-9,5,2,-4,-11
14:57:15:760400,3,-3,-5,10,1,10,10,6
14:57:15:767965,7,0,0,-12,-17,-3,4,1
14:57:15:783711,7,0,0,-12,-17,-3,4,1
14:57:15:784475,-2,-3,-15,-24,-3,-4,-1,-3
14:57:15:791078,-4,3,7,1,8,-3,1,19
14:57:15:791904,-4,3,7,1,8,-3,1,19
14:57:15:797917,-5,-2,3,5,-5,-2,-1,2
14:57:15:805454,3,-1,-2,-19,4,1,1,-4
14:57:15:812947,3,-1,-2,-19,4,1,1,-4
14:57:15:820434,-2,-8,-13,-25,-11,7,1,-11
14:57:15:827899,9,7,-2,-22,-37,-9,-8,9
14:57:15:836116,9,7,-2,-22,-37,-9,-8,9
14:57:15:836936,-4,0,6,-2,-7,22,-2,-1
14:57:15:851033,1,3,-8,10,8,0,1,0
14:57:15:851898,1,3,-8,10,8,0,1,0
14:57:15:857873,-3,0,9,6,14,-8,7,1
14:57:15:865441,12,0,9,7,18,5,7,4
14:57:15:872975,12,0,9,7,18,5,7,4
14:57:15:880420,3,4,2,6,0,-4,-1,-3
14:57:15:887883,-4,-1,-3,12,-8,0,2,-1
14:57:15:896111,-4,-1,-3,12,-8,0,2,-1
14:57:15:896898,1,-1,6,14,13,2,2,-7
14:57:15:911513,-4,-6,-8,-20,3,-3,-6,-9
14:57:15:918597,-4,-6,-8,-20,3,-3,-6,-9
14:57:15:919434,-7,1,1,20,5,-2,-3,4
14:57:15:925429,-2,3,3,3,-2,-8,-3,-8
14:57:15:932927,-2,3,3,3,-2,-8,-3,-8
14:57:15:940392,1,0,8,8,13,-6,-8,-2
14:57:15:947910,-3,-1,1,-19,1,4,-6,-5
14:57:15:956128,-3,-1,1,-19,1,4,-6,-5
14:57:15:956926,1,2,-3,-32,0,13,4,10
14:57:15:971088,-22,-8,-2,-11,-1,-11,1,3
14:57:15:971901,-22,-8,-2,-11,-1,-11,1,3
14:57:15:977965,3,-2,-8,0,-24,2,4,-8
14:57:15:985371,12,5,1,13,-5,-7,3,-1
14:57:15:992969,12,5,1,13,-5,-7,3,-1
14:57:16:479,-6,-13,-9,-4,4,-9,-1,4
14:57:16:7941,-10,-8,-6,17,24,7,-7,-6
14:57:16:16218,-10,-8,-6,17,24,7,-7,-6
14:57:16:16993,4,4,-6,-27,-21,3,-3,-7
14:57:16:39300,3,2,-7,-12,-22,-1,-2,-3
14:57:16:40088,3,2,-7,-12,-22,-1,-2,-3
14:57:16:40899,-9,-5,-14,-3,-6,-6,-2,-5
14:57:16:45436,-3,0,-2,18,12,-1,-10,-5
14:57:16:61088,-3,0,-2,18,12,-1,-10,-5
14:57:16:61900,6,-3,-2,25,5,-8,0,0
14:57:16:67886,8,-2,-3,-15,-3,0,6,7
14:57:16:76160,8,-2,-3,-15,-3,0,6,7
14:57:16:77012,-5,0,-3,-34,-13,-6,-6,-7
14:57:16:99290,4,7,3,-7,-6,2,16,-8
14:57:16:100075,4,7,3,-7,-6,2,16,-8
14:57:16:100882,2,0,-4,20,6,3,1,3
14:57:16:105408,-5,-6,0,-7,-16,10,-5,-7
14:57:16:112929,-5,-6,0,-7,-16,10,-5,-7
14:57:16:120429,-7,-6,6,-3,1,-6,0,-14
14:57:16:127957,-6,-7,-12,15,7,1,-10,-3
14:57:16:136110,-6,-7,-12,15,7,1,-10,-3
14:57:16:136905,5,12,22,27,-2,5,3,8
14:57:16:151101,-2,-1,-7,-7,-13,-23,-19,-4
14:57:16:151908,-2,-1,-7,-7,-13,-23,-19,-4
14:57:16:157948,1,-7,-17,-7,-10,-7,-5,7
14:57:16:165437,-9,-5,8,-10,-5,15,15,2
14:57:16:172935,-9,-5,8,-10,-5,15,15,2
14:57:16:180399,-1,9,26,46,20,8,4,-3
14:57:16:187885,3,8,14,-20,-8,-4,-1,2
14:57:16:196121,3,8,14,-20,-8,-4,-1,2
14:57:16:196956,-1,-1,-13,-29,22,7,0,-3
14:57:16:211100,-1,-1,-5,21,-20,-3,0,4
14:57:16:211933,-1,-1,-5,21,-20,-3,0,4
14:57:16:217881,-7,0,13,5,-11,0,4,0
14:57:16:225366,4,-5,1,-14,7,-3,-1,-3
14:57:16:232935,4,-5,1,-14,7,-3,-1,-3
14:57:16:240413,3,-1,-8,6,-24,-7,-7,3
14:57:16:247888,0,-3,-7,6,-7,-5,7,-5
14:57:16:256138,0,-3,-7,6,-7,-5,7,-5
14:57:16:256896,-6,2,10,-11,1,3,4,-4
14:57:16:271079,1,-2,-16,-39,12,21,6,2
14:57:16:271899,1,-2,-16,-39,12,21,6,2
14:57:16:277922,0,0,-2,-9,-5,6,5,-8
14:57:16:285416,-8,4,1,-6,12,-3,-6,-24
14:57:16:292975,-8,4,1,-6,12,-3,-6,-24
14:57:16:300454,3,-9,-13,-1,8,7,4,3
14:57:16:307920,2,3,4,27,-8,-13,-15,2
14:57:16:316214,2,3,4,27,-8,-13,-15,2
14:57:16:316893,0,-5,1,-22,-17,-14,-15,1
14:57:16:339276,0,3,2,1,22,-1,6,8
14:57:16:340119,0,3,2,1,22,-1,6,8
14:57:16:340918,1,-6,-14,12,17,8,4,6
14:57:16:345362,0,-5,10,30,0,-5,6,1
14:57:16:361148,0,-5,10,30,0,-5,6,1
14:57:16:361914,-8,2,4,-20,-7,-3,-2,-5
14:57:16:376767,-3,1,1,4,-3,-13,-6,-5
14:57:16:377553,-3,1,1,4,-3,-13,-6,-5
14:57:16:378397,-32,0,-13,-27,-14,-9,-7,2
14:57:16:392221,6,5,1,-13,5,9,-6,7
14:57:16:398604,6,5,1,-13,5,9,-6,7
14:57:16:399508,9,-10,-3,-2,7,-10,-6,-14
14:57:16:405416,10,-12,-27,-11,-5,6,1,-4
14:57:16:412973,10,-12,-27,-11,-5,6,1,-4
14:57:16:420423,14,1,10,17,-5,9,8,3
14:57:16:427928,-3,-2,8,24,1,-3,0,2
14:57:16:435428,-3,-2,8,24,1,-3,0,2
14:57:16:442838,-4,-5,-17,15,-7,-11,-2,-3
14:57:16:451134,-6,-4,-8,-5,-8,-4,6,-6
14:57:16:451903,-6,-4,-8,-5,-8,-4,6,-6
14:57:16:457921,2,-1,-7,-7,2,3,-16,-12
14:57:16:473594,0,10,11,19,26,7,1,8
14:57:16:474419,0,10,11,19,26,7,1,8
14:57:16:480373,5,-11,-4,3,14,0,13,14
14:57:16:487863,-2,-2,7,-43,-23,-8,-3,5
14:57:16:495440,-2,-2,7,-43,-23,-8,-3,5
14:57:16:502903,-11,-6,-5,-5,-6,-14,-7,-3
14:57:16:511101,-3,4,8,-4,-5,-1,-6,-5
14:57:16:511930,-3,4,8,-4,-5,-1,-6,-5
14:57:16:517907,2,0,10,-6,-3,-5,-11,-1
14:57:16:533654,-5,0,0,-27,-6,-13,0,2
14:57:16:534487,-5,0,0,-27,-6,-13,0,2
14:57:16:540400,9,8,-13,-61,10,1,5,13
14:57:16:547904,4,-4,0,-13,-7,2,1,-1
14:57:16:555477,4,-4,0,-13,-7,2,1,-1
14:57:16:562906,8,8,4,7,-34,-15,-1,1
14:57:16:571126,-8,-2,4,49,15,9,3,1
14:57:16:571967,-8,-2,4,49,15,9,3,1
14:57:16:577948,-2,-4,16,58,-5,-16,-11,-1
14:57:16:593574,-9,-7,-15,22,12,-3,-8,-15
14:57:16:594387,-9,-7,-15,22,12,-3,-8,-15
14:57:16:600430,-6,3,11,16,4,16,8,-3
14:57:16:616072,-9,-11,-12,-10,-40,-11,-21,-9
14:57:16:616971,-9,-11,-12,-10,-40,-11,-21,-9
14:57:16:639940,-5,1,-13,-5,4,2,-1,-1
14:57:16:640700,6,-7,-17,-11,0,-2,3,7
14:57:16:641554,6,-7,-17,-11,0,-2,3,7
14:57:16:642378,7,10,-14,-6,14,-2,8,1
14:57:16:654038,1,26,-10,5,0,-6,-3,2
14:57:16:654867,1,26,-10,5,0,-6,-3,2
14:57:16:660432,-10,-3,12,8,2,3,-8,-6
14:57:16:667929,-9,-6,14,-12,-7,-1,0,-13
14:57:16:675426,-9,-6,14,-12,-7,-1,0,-13
14:57:16:682943,-3,-2,10,22,20,8,2,0
14:57:16:691083,4,-3,9,14,7,0,8,6
14:57:16:691893,4,-3,9,14,7,0,8,6
14:57:16:697877,6,-3,0,-20,-23,-14,-4,-2
14:57:16:713623,1,-4,1,15,1,-1,9,5
14:57:16:714438,1,-4,1,15,1,-1,9,5
14:57:16:720425,-1,-6,-12,-2,9,7,4,4
