Time,EMG1,EMG2,EMG3,EMG4,EMG5,EMG6,EMG7,EMG8
14:57:26:792800,7,8,18,15,25,5,6,-13
14:57:26:793605,7,8,18,15,25,5,6,-13
14:57:26:794426,-10,-13,-17,-22,-34,-10,-6,-10
14:57:26:806333,-1,-9,-2,-3,-15,6,17,29
14:57:26:822765,-1,-9,-2,-3,-15,6,17,29
14:57:26:823591,-71,-7,11,7,8,3,0,-24
14:57:26:824377,65,-5,-23,14,-7,-16,-34,2
14:57:26:828955,65,-5,-23,14,-7,-16,-34,2
14:57:26:836425,-4,3,-2,5,-4,10,-3,1
14:57:26:843861,-19,11,1,-7,-2,-5,6,-2
14:57:26:852087,-19,11,1,-7,-2,-5,6,-2
14:57:26:852860,47,-14,-16,-6,-4,-14,-14,16
14:57:26:875257,47,29,28,-1,-7,-9,-1,16
14:57:26:876004,47,29,28,-1,-7,-9,-1,16
14:57:26:876815,-14,-12,-4,7,27,7,-4,-8
14:57:26:881388,-33,-14,-7,-4,-7,4,-13,-34
14:57:26:888953,-33,-14,-7,-4,-7,4,-13,-34
14:57:26:896340,-8,-2,-2,1,-27,-10,14,3
14:57:26:912760,4,-3,2,-7,-8,2,-3,-13
14:57:26:913542,4,-3,2,-7,-8,2,-3,-13
14:57:26:914346,65,0,1,20,12,-13,-6,1
14:57:26:926405,-41,-11,4,-12,20,10,-4,-5
14:57:26:942767,-41,-11,4,-12,20,10,-4,-5
14:57:26:943584,2,13,1,0,0,13,5,14
14:57:26:944368,107,8,-10,4,4,7,-9,-14
14:57:26:948961,107,8,-10,4,4,7,-9,-14
14:57:26:956379,-102,-4,27,7,-5,7,-4,-57
14:57:26:963845,46,10,1,4,7,-10,0,73
14:57:26:972163,46,10,1,4,7,-10,0,73
14:57:26:972952,-23,3,-9,-24,-2,-3,0,3
14:57:26:986334,-77,-7,8,2,-13,4,2,-44
14:57:26:994695,-77,-7,8,2,-13,4,2,-44
14:57:26:995465,38,9,4,7,2,-3,2,3
14:57:27:1374,-5,-5,-2,6,11,-4,-2,-7
14:57:27:9003,-5,-5,-2,6,11,-4,-2,-7
14:57:27:16432,82,-10,-6,1,3,-1,-9,34
14:57:27:23953,-60,-9,0,3,-4,-4,-1,-78
14:57:27:39674,-60,-9,0,3,-4,-4,-1,-78
14:57:27:40449,-87,-6,-14,-27,4,-3,1,-32
14:57:27:46412,-11,-7,-9,-9,-4,0,1,50
14:57:27:54616,-11,-7,-9,-9,-4,0,1,50
14:57:27:55411,40,8,18,-34,-38,-8,-5,-3
14:57:27:61418,-18,0,2,-14,-39,0,0,-17
14:57:27:68954,-18,0,2,-14,-39,0,0,-17
14:57:27:84613,29,-12,-30,-22,3,-3,2,11
14:57:27:85328,81,13,2,-19,-3,5,6,79
14:57:27:92026,81,13,2,-19,-3,5,6,79
14:57:27:92889,-11,0,-5,-1,-1,-4,-4,2
14:57:27:106414,34,2,-8,0,-2,-18,-3,-10
14:57:27:114662,34,2,-8,0,-2,-18,-3,-10
14:57:27:115488,-30,4,26,50,3,-15,-9,-14
14:57:27:121364,-16,-6,-8,-17,6,16,-6,10
14:57:27:128899,-16,-6,-8,-17,6,16,-6,10
14:57:27:136380,-21,4,-1,-5,-17,5,-1,-13
14:57:27:143983,-66,-5,6,12,12,9,3,-16
14:57:27:152088,-66,-5,6,12,12,9,3,-16
14:57:27:152893,-62,-7,-8,-12,-5,8,1,-14
14:57:27:166441,-119,-18,-1,-25,-7,-6,2,-51
14:57:27:174553,-119,-18,-1,-25,-7,-6,2,-51
14:57:27:175379,95,-5,-18,-26,-13,8,-11,-7
14:57:27:181414,-53,-5,-7,11,8,-40,-1,-28
14:57:27:188948,-53,-5,-7,11,8,-40,-1,-28
14:57:27:204578,-71,3,4,-3,-1,7,30,26
14:57:27:205362,50,5,-8,1,1,11,-4,20
14:57:27:211428,50,5,-8,1,1,11,-4,20
14:57:27:218892,-29,3,6,28,16,4,-5,-33
14:57:27:226373,-1,13,14,-17,5,0,7,13
14:57:27:234584,-1,13,14,-17,5,0,7,13
14:57:27:235349,25,-8,-3,13,-2,7,-4,9
14:57:27:249579,30,-11,-12,-9,-5,-3,-5,-3
14:57:27:250362,30,-11,-12,-9,-5,-3,-5,-3
14:57:27:256447,25,0,-14,-10,-4,0,-8,23
14:57:27:263893,6,8,6,19,-1,0,0,-8
14:57:27:271412,6,8,6,19,-1,0,0,-8
14:57:27:278885,-27,-3,1,7,7,-19,1,-7
14:57:27:286368,18,1,5,10,4,4,1,1
14:57:27:294627,18,1,5,10,4,4,1,1
14:57:27:295429,3,-2,-3,-5,27,14,6,-2
14:57:27:309578,21,-3,3,-10,-12,11,-3,18
14:57:27:310371,21,-3,3,-10,-12,11,-3,18
14:57:27:316345,-81,-6,-2,4,6,29,-20,-26
14:57:27:323900,0,-2,0,12,1,-12,-1,9
14:57:27:339566,0,-2,0,12,1,-12,-1,9
14:57:27:340360,31,7,-1,-19,-3,-28,11,26
14:57:27:346430,24,5,7,18,11,4,-7,-11
14:57:27:354587,24,5,7,18,11,4,-7,-11
14:57:27:355349,2,-5,-7,14,2,6,1,-3
14:57:27:369566,5,3,6,0,7,6,1,3
14:57:27:370397,5,3,6,0,7,6,1,3
14:57:27:376456,3,-2,-3,-5,-4,-12,-4,4
14:57:27:383903,-17,-6,-11,-16,0,-24,1,-5
14:57:27:391424,-17,-6,-11,-16,0,-24,1,-5
14:57:27:398892,20,1,-9,-21,-21,-21,-7,6
14:57:27:406378,-6,-2,-10,-8,1,7,-3,-2
14:57:27:414580,-6,-2,-10,-8,1,7,-3,-2
14:57:27:415382,27,-3,-3,1,-1,8,0,6
14:57:27:429581,25,4,5,5,-4,7,-2,10
14:57:27:430387,25,4,5,5,-4,7,-2,10
14:57:27:436316,-58,2,16,18,15,5,9,-17
14:57:27:443907,4,-3,2,1,-11,-2,11,-1
14:57:27:451450,4,-3,2,1,-11,-2,11,-1
14:57:27:458874,-7,-21,2,12,-1,-5,-4,-5
14:57:27:466429,-11,11,14,12,11,8,-4,-9
14:57:27:474634,-11,11,14,12,11,8,-4,-9
14:57:27:475436,-1,1,-3,5,1,-1,-3,-5
14:57:27:489611,-1,-11,-26,-6,0,-5,-4,2
14:57:27:490414,-1,-11,-26,-6,0,-5,-4,2
14:57:27:496373,7,0,-5,5,6,-4,-5,2
14:57:27:503851,-11,1,4,0,-9,-3,1,-12
14:57:27:511416,-11,1,4,0,-9,-3,1,-12
14:57:27:518857,44,5,-5,-8,-20,-2,9,6
14:57:27:526383,29,-7,-3,-4,5,3,4,-15
14:57:27:534639,29,-7,-3,-4,5,3,4,-15
14:57:27:535399,7,5,16,8,6,2,-5,3
14:57:27:549637,-34,-1,3,-19,-11,-6,-22,-7
14:57:27:550416,-34,-1,3,-19,-11,-6,-22,-7
14:57:27:556359,-11,-9,-8,-1,-7,-4,-1,-1
14:57:27:563887,5,16,4,-7,-6,2,3,19
14:57:27:579677,5,16,4,-7,-6,2,3,19
14:57:27:580435,-11,3,1,-11,8,-5,0,2
14:57:27:586383,-8,-13,-15,10,5,-6,-1,1
14:57:27:594666,-8,-13,-15,10,5,-6,-1,1
14:57:27:595419,9,-3,2,2,4,0,-1,9
14:57:27:609593,-2,5,5,6,-2,5,0,6
14:57:27:610395,-2,5,5,6,-2,5,0,6
14:57:27:624576,24,-9,-5,-2,6,1,-1,-10
14:57:27:625355,-18,-3,6,-17,-7,-1,-1,-17
14:57:27:631411,-18,-3,6,-17,-7,-1,-1,-17
14:57:27:638860,-10,5,-12,-19,-13,-4,-8,-19
14:57:27:646373,-3,0,4,24,6,-1,2,-7
14:57:27:654588,-3,0,4,24,6,-1,2,-7
14:57:27:655416,11,5,4,6,1,3,2,14
14:57:27:670085,-5,-7,-7,0,-10,-4,4,-5
14:57:27:670899,-5,-7,-7,0,-10,-4,4,-5
14:57:27:676363,-36,0,-17,-20,-5,-2,-7,-11
14:57:27:683862,-39,3,19,-9,-14,-2,-2,-12
14:57:27:691452,-39,3,19,-9,-14,-2,-2,-12
14:57:27:698938,-8,5,12,15,9,-2,3,-5
14:57:27:722787,62,-14,-26,2,14,-1,-2,36
14:57:27:723607,62,-14,-26,2,14,-1,-2,36
14:57:27:724401,14,3,7,16,5,0,-4,12
14:57:27:729597,-3,3,2,8,-3,2,2,-9
14:57:27:730450,-3,3,2,8,-3,2,2,-9
14:57:27:736352,7,-4,-12,-17,-11,-2,0,-1
14:57:27:744034,-13,-9,-5,-3,6,-1,-2,-6
14:57:27:768549,-13,-9,-5,-3,6,-1,-2,-6
14:57:27:769291,24,-2,-6,3,3,-1,-1,12
14:57:27:770032,-16,0,6,9,8,-1,-2,-1
14:57:27:770932,-16,0,6,9,8,-1,-2,-1
14:57:27:773881,-8,-2,6,1,1,1,-2,4
14:57:27:789579,53,-7,-10,8,4,-2,-4,38
14:57:27:790418,53,-7,-10,8,4,-2,-4,38
14:57:27:812778,-60,7,13,-11,3,2,5,-17
14:57:27:813548,-26,-2,-6,-13,-12,3,2,-27
14:57:27:814359,-26,-2,-6,-13,-12,3,2,-27
14:57:27:818811,45,-5,-8,-20,-7,-5,-6,12
14:57:27:827074,14,0,15,-10,1,-1,0,11
14:57:27:827921,14,0,15,-10,1,-1,0,11
14:57:27:833873,15,2,-4,10,6,-2,-4,-13
14:57:27:858198,-1,-15,-15,-6,-7,-3,-2,-12
14:57:27:858998,-1,-15,-15,-6,-7,-3,-2,-12
14:57:27:859777,-9,-5,-7,22,0,-3,-4,14
14:57:27:863891,-25,-4,5,8,9,-4,0,-7
14:57:27:871423,-25,-4,5,8,9,-4,0,-7
14:57:27:878942,-37,5,18,7,14,6,-3,-14
14:57:27:887049,-2,9,-8,-4,0,-4,-3,15
14:57:27:887855,-2,9,-8,-4,0,-4,-3,15
14:57:27:910319,-4,-9,-4,-9,-10,-3,4,-1
14:57:27:911049,7,13,23,11,5,-2,1,-8
14:57:27:911887,7,13,23,11,5,-2,1,-8
14:57:27:916506,-14,-9,-7,8,-3,0,2,-15
14:57:27:923894,18,-18,-21,13,13,2,3,5
14:57:27:931476,18,-18,-21,13,13,2,3,5
14:57:27:947810,8,-2,9,-4,-9,1,3,5
14:57:27:948578,7,9,7,-4,-2,2,-6,1
14:57:27:949374,7,9,7,-4,-2,2,-6,1
14:57:27:953870,7,-9,-9,-9,-13,-1,-2,8
14:57:27:969622,12,3,-11,-1,-8,-2,-3,3
14:57:27:970431,12,3,-11,-1,-8,-2,-3,3
14:57:27:976428,-7,6,-7,6,23,0,2,-14
14:57:27:992100,-46,10,-1,-12,-9,-3,1,-11
14:57:27:992882,-46,10,-1,-12,-9,-3,1,-11
14:57:27:998898,24,0,2,7,-13,-5,1,11
14:57:28:7082,0,-8,-9,-6,-5,1,-3,-5
14:57:28:7920,0,-8,-9,-6,-5,1,-3,-5
14:57:28:13845,-3,10,-9,-27,-5,2,-3,-6
14:57:28:37711,17,8,9,15,2,1,4,13
14:57:28:38548,17,8,9,15,2,1,4,13
14:57:28:39297,22,-6,0,7,-3,0,0,2
14:57:28:43892,17,-9,-5,10,8,0,1,10
14:57:28:51433,17,-9,-5,10,8,0,1,10
14:57:28:58892,3,1,14,17,4,-6,-3,-4
14:57:28:67107,-55,-15,-17,-2,17,-4,-9,-42
14:57:28:67951,-55,-15,-17,-2,17,-4,-9,-42
14:57:28:81412,15,17,9,1,-4,0,5,17
14:57:28:90681,13,7,0,-14,-7,0,1,15
14:57:28:97121,13,7,0,-14,-7,0,1,15
14:57:28:97934,-16,-17,-13,-15,-8,4,-2,-10
14:57:28:103896,-3,-2,6,-9,-17,-2,-1,-6
14:57:28:111404,-3,-2,6,-9,-17,-2,-1,-6
14:57:28:127782,-11,-8,-13,-15,-6,-3,-2,5
14:57:28:128590,6,1,-3,-1,3,-1,1,7
14:57:28:129358,6,1,-3,-1,3,-1,1,7
14:57:28:133862,2,6,0,-11,2,-3,-3,2
14:57:28:149615,3,0,-3,-6,0,2,0,4
14:57:28:150384,3,0,-3,-6,0,2,0,4
14:57:28:156444,-22,-7,-9,0,7,1,-3,-28
14:57:28:180316,33,-5,6,3,2,-3,-5,-10
14:57:28:181070,33,-5,6,3,2,-3,-5,-10
14:57:28:181913,4,-4,-2,-2,-3,-6,-3,-1
14:57:28:194717,-33,2,0,-1,8,1,-1,-10
14:57:28:195453,-33,2,0,-1,8,1,-1,-10
14:57:28:201392,-11,-6,-5,23,12,1,-4,-2
14:57:28:209581,-25,-3,-1,-12,1,-5,-1,-17
14:57:28:210448,-25,-3,-1,-12,1,-5,-1,-17
14:57:28:223878,31,0,1,-3,1,-1,1,21
14:57:28:232501,-16,4,1,12,2,-4,1,2
14:57:28:239598,-16,4,1,12,2,-4,1,2
14:57:28:240403,-9,2,6,-18,-9,-2,-5,1
14:57:28:247134,-28,-12,-13,-3,-9,1,-3,-6
14:57:28:247938,-28,-12,-13,-3,-9,1,-3,-6
14:57:28:261369,13,8,5,-3,-10,3,0,-5
14:57:28:269632,13,8,5,-3,-10,3,0,-5
14:57:28:270393,-2,-11,-19,-14,-9,-4,-3,-4
14:57:28:276414,14,8,13,8,0,2,4,22
14:57:28:292096,14,8,13,8,0,2,4,22
14:57:28:292948,21,5,-5,0,-13,-2,1,2
14:57:28:298910,5,-5,0,-4,5,-3,1,-15
14:57:28:307773,5,-5,0,-4,5,-3,1,-15
14:57:28:308576,30,-7,4,-2,-10,1,0,15
14:57:28:321365,-4,-3,-7,-10,2,-11,-3,-4
14:57:28:329621,-4,-3,-7,-10,2,-11,-3,-4
14:57:28:330448,4,4,5,-4,-2,0,-1,0
14:57:28:336370,-13,-5,-24,-11,-7,-3,1,-9
14:57:28:352081,-13,-5,-24,-11,-7,-3,1,-9
14:57:28:352879,3,4,-12,1,-4,-3,3,6
14:57:28:358926,-23,0,-9,5,18,0,-3,-5
14:57:28:367137,-23,0,-9,5,18,0,-3,-5
14:57:28:367916,-29,6,2,4,-3,6,-3,-20
14:57:28:381434,17,8,11,0,-6,3,0,-23
14:57:28:389575,17,8,11,0,-6,3,0,-23
14:57:28:390382,19,3,12,0,11,2,-1,-1
14:57:28:412863,15,-1,1,-16,-21,-8,0,16
14:57:28:413600,15,-1,1,-16,-21,-8,0,16
14:57:28:414434,-25,-10,0,-8,-24,-10,0,-14
14:57:28:418905,-5,-3,7,10,5,-2,3,7
14:57:28:427100,-5,-3,7,10,5,-2,3,7
14:57:28:427879,11,-3,6,9,10,-2,-4,20
14:57:28:441453,-32,-7,-10,10,-2,5,-2,-4
14:57:28:457771,-32,-7,-10,10,-2,5,-2,-4
14:57:28:458561,-28,9,29,7,4,-1,-1,-6
14:57:28:459368,-8,4,21,12,3,-2,2,-7
14:57:28:472104,-8,4,21,12,3,-2,2,-7
14:57:28:472893,-4,-12,-29,-15,-9,0,0,0
14:57:28:478879,1,3,-3,-3,-6,-8,-1,-1
14:57:28:487093,1,3,-3,-3,-6,-8,-1,-1
14:57:28:487885,-24,2,-3,1,12,-1,-5,-13
14:57:28:501824,10,-5,-9,-2,-3,7,-1,8
14:57:28:509579,10,-5,-9,-2,-3,7,-1,8
14:57:28:510368,35,12,8,3,-9,3,2,20
14:57:28:516388,4,-2,0,1,-11,-4,-5,-15
14:57:28:532073,4,-2,0,1,-11,-4,-5,-15
14:57:28:532881,18,-1,-2,9,14,0,-4,4
14:57:28:547767,-9,6,0,-2,0,6,-1,9
14:57:28:548562,-9,6,0,-2,0,6,-1,9
14:57:28:549381,-4,-7,-15,4,5,-2,2,-5
14:57:28:561381,21,-5,-6,-8,2,0,0,18
14:57:28:569620,21,-5,-6,-8,2,0,0,18
14:57:28:570410,-3,-6,3,6,1,2,-17,-8
14:57:28:576391,-8,-3,1,7,1,-3,-3,-3
14:57:28:592150,-8,-3,1,7,1,-3,-3,-3
14:57:28:592902,0,-3,-15,-8,2,-7,3,-9
14:57:28:598905,-20,9,11,1,6,3,2,-13
14:57:28:607139,-20,9,11,1,6,3,2,-13
14:57:28:607936,-9,-3,4,-6,-13,3,3,-1
14:57:28:621379,-6,-3,-6,-19,-12,-5,-1,5
14:57:28:629639,-6,-3,-6,-19,-12,-5,-1,5
14:57:28:630424,2,-4,-6,-15,-12,1,-6,2
14:57:28:643900,20,-16,2,-2,7,5,0,-12
14:57:28:652082,20,-16,2,-2,7,5,0,-12
14:57:28:652917,95,-4,-7,7,-1,-6,1,41
14:57:28:658936,-41,9,37,-7,-3,-6,1,3
14:57:28:667175,-41,9,37,-7,-3,-6,1,3
14:57:28:667944,-3,-6,-5,-15,-13,0,4,-5
14:57:28:690318,-4,-3,-25,-7,-2,-7,-7,-10
14:57:28:691148,-4,-3,-25,-7,-2,-7,-7,-10
14:57:28:691909,-24,3,-7,0,5,3,0,-8
14:57:28:696410,-9,1,-1,10,8,3,1,-11
14:57:28:712100,-9,1,-1,10,8,3,1,-11
14:57:28:712959,-32,-2,-3,-11,6,-6,-4,-15
14:57:28:718927,8,7,-2,10,-2,0,-1,8
14:57:28:734644,8,7,-2,10,-2,0,-1,8
14:57:28:735399,-14,4,15,10,1,2,6,3
14:57:28:750334,-27,-23,-22,-14,-10,-4,-2,-12
14:57:28:751109,-27,-23,-22,-14,-10,-4,-2,-12
14:57:28:751914,4,5,16,-4,-4,3,1,0
14:57:28:756435,24,4,-2,21,12,-1,-2,7
14:57:28:780357,24,4,-2,21,12,-1,-2,7
14:57:28:781093,15,-13,-3,-1,-11,-2,-2,-4
14:57:28:781902,2,-15,1,-3,-12,-4,4,5
14:57:28:787058,2,-15,1,-3,-12,-4,4,5
14:57:28:787847,1,5,7,-8,1,0,-3,2
14:57:28:801447,-19,-7,-9,-8,3,1,1,-13
14:57:28:809581,-19,-7,-9,-8,3,1,1,-13
14:57:28:810366,-22,4,8,5,2,-4,0,-2
14:57:28:816387,-10,-1,-6,1,11,0,-5,-6
14:57:28:832067,-10,-1,-6,1,11,0,-5,-6
14:57:28:832904,-8,-4,-25,-2,12,-4,2,-9
14:57:28:838819,24,15,43,7,5,4,0,18
14:57:28:847100,24,15,43,7,5,4,0,18
14:57:28:847906,-8,-4,-12,5,-9,-4,-5,-3
14:57:28:861371,3,12,-10,4,12,-3,-2,-2
14:57:28:869574,3,12,-10,4,12,-3,-2,-2
14:57:28:870377,-7,2,2,1,-11,-2,8,-12
14:57:28:876334,34,-10,-17,5,-5,-2,-2,8
14:57:28:892049,34,-10,-17,5,-5,-2,-2,8
14:57:28:892844,15,-1,1,-5,8,0,-5,-1
14:57:28:898888,-4,-5,-1,-5,-4,3,-2,-8
14:57:28:922808,-4,-5,-1,-5,-4,3,-2,-8
14:57:28:923579,1,2,4,2,-6,-2,-16,6
14:57:28:924359,4,2,8,-1,-6,-3,-7,7
14:57:28:929628,4,2,8,-1,-6,-3,-7,7
14:57:28:930422,-18,2,15,10,11,-2,5,-15
14:57:28:936372,-14,-20,-45,0,-7,-3,-1,-9
14:57:28:969132,-14,-20,-45,0,-7,-3,-1,-9
14:57:28:969907,14,22,41,23,17,0,2,9
14:57:28:970703,-3,-11,1,-13,-12,-2,1,-3
14:57:28:971550,-3,-11,1,-13,-12,-2,1,-3
14:57:28:982058,19,-11,-22,-9,-22,-6,1,27
14:57:28:982873,-7,8,6,-4,5,4,-1,0
14:57:28:989577,-7,8,6,-4,5,4,-1,0
14:57:28:990366,30,-1,2,-4,-3,-5,-1,4
14:57:28:996435,9,3,-3,3,7,3,4,1
14:57:29:12149,9,3,-3,3,7,3,4,1
14:57:29:12922,-13,-4,-10,-4,5,6,-3,0
14:57:29:18874,-5,-4,0,-3,-3,-7,5,2
14:57:29:34601,-5,-4,0,-3,-3,-7,5,2
14:57:29:35396,-6,-1,10,-3,17,22,5,1
14:57:29:41447,-6,9,7,10,14,10,2,7
14:57:29:49649,-6,9,7,10,14,10,2,7
14:57:29:50437,-2,-4,-15,-13,-34,0,1,-2
14:57:29:56422,2,2,4,-5,-11,-4,-5,1
14:57:29:72125,2,2,4,-5,-11,-4,-5,1
14:57:29:72941,-10,-1,-2,1,8,5,4,-9
14:57:29:78893,1,-7,-6,-10,-12,-8,-1,1
14:57:29:86452,1,-7,-6,-10,-12,-8,-1,1
14:57:29:93959,-10,-1,0,4,5,-3,-3,-6
14:57:29:101400,3,0,2,3,7,-2,-5,-1
14:57:29:109550,3,0,2,3,7,-2,-5,-1
14:57:29:110321,-10,-4,-4,1,-1,-12,-9,-8
14:57:29:123898,65,0,-4,-3,-3,5,-2,7
14:57:29:132139,65,0,-4,-3,-3,5,-2,7
14:57:29:132935,-24,-6,-3,0,-4,-7,-4,-18
14:57:29:138922,70,-1,3,-2,-2,-8,3,46
14:57:29:154589,70,-1,3,-2,-2,-8,3,46
14:57:29:155435,2,-2,-1,1,9,1,-3,3
14:57:29:161341,-44,2,-4,-9,-16,-2,-4,-27
14:57:29:169629,-44,2,-4,-9,-16,-2,-4,-27
14:57:29:170422,0,-1,-2,-7,-1,0,6,-2
14:57:29:183890,-23,-5,1,-7,4,-3,-1,-5
14:57:29:200362,-23,-5,1,-7,4,-3,-1,-5
14:57:29:201084,-7,3,0,-5,-3,-3,0,-3
14:57:29:201861,-16,0,1,7,-1,-2,-4,-10
14:57:29:206450,-16,0,1,7,-1,-2,-4,-10
14:57:29:213864,2,0,-6,-3,-4,0,-3,3
14:57:29:221402,-20,4,1,6,-3,-1,-2,-6
14:57:29:229633,-20,4,1,6,-3,-1,-2,-6
14:57:29:230405,13,-4,-2,-9,-12,-7,3,5
14:57:29:244369,-18,-7,-1,-6,-5,-7,-1,-12
14:57:29:252078,-18,-7,-1,-6,-5,-7,-1,-12
14:57:29:252911,3,0,-2,3,6,-4,-5,1
14:57:29:258896,-12,2,-1,6,13,13,8,-4
14:57:29:266535,-12,2,-1,6,13,13,8,-4
14:57:29:273899,-1,-1,-6,-1,11,3,5,4
14:57:29:281398,-1,8,8,4,4,-1,3,0
14:57:29:289569,-1,8,8,4,4,-1,3,0
14:57:29:290375,-33,-5,0,-4,-6,-1,-6,-20
14:57:29:303878,17,-1,-1,0,6,1,-3,5
14:57:29:312150,17,-1,-1,0,6,1,-3,5
14:57:29:312925,-5,1,-1,-3,-8,-9,-1,-11
14:57:29:318884,-7,-1,-3,1,6,-2,-5,-1
14:57:29:326385,-7,-1,-3,1,6,-2,-5,-1
14:57:29:333905,7,0,-3,-1,-15,-2,3,0
14:57:29:350330,-4,0,-1,-6,0,4,-7,0
14:57:29:351096,-4,0,-1,-6,0,4,-7,0
14:57:29:351845,9,0,2,8,14,6,7,6
14:57:29:363857,-14,-5,-8,-1,-4,2,5,-20
14:57:29:372086,-14,-5,-8,-1,-4,2,5,-20
14:57:29:372920,6,2,1,7,21,5,23,5
14:57:29:387037,-1,-1,2,-6,-9,0,-1,6
14:57:29:387877,-1,-1,2,-6,-9,0,-1,6
14:57:29:393875,2,-3,0,-9,-18,-5,-10,4
14:57:29:401379,-11,-5,-3,1,-4,-8,0,-6
14:57:29:409593,-11,-5,-3,1,-4,-8,0,-6
14:57:29:410389,-1,-11,-10,2,9,-3,-9,1
14:57:29:432713,4,5,23,7,-3,1,-3,1
14:57:29:433518,4,5,23,7,-3,1,-3,1
14:57:29:434330,-2,-9,-7,3,10,2,-5,-3
14:57:29:438821,1,-3,-7,-14,9,4,-1,6
14:57:29:446429,1,-3,-7,-14,9,4,-1,6
14:57:29:453851,-7,-5,-5,3,3,-1,-3,-1
14:57:29:461358,-1,1,-1,8,11,2,0,0
14:57:29:477049,-1,1,-1,8,11,2,0,0
14:57:29:477844,-2,3,-5,-12,2,11,-5,-1
14:57:29:483882,27,-4,-1,-3,-14,2,-2,14
14:57:29:492091,27,-4,-1,-3,-14,2,-2,14
14:57:29:492844,41,3,7,-1,5,-3,-1,16
14:57:29:498941,-8,-1,-9,-10,3,-3,-1,-3
14:57:29:506435,-8,-1,-9,-10,3,-3,-1,-3
14:57:29:513928,-14,8,13,-3,-19,3,-18,-19
14:57:29:521366,-12,-9,-15,-14,-41,-29,-7,-5
14:57:29:529562,-12,-9,-15,-14,-41,-29,-7,-5
14:57:29:530341,-1,11,-2,9,2,-1,1,2
14:57:29:543882,-7,-11,-13,0,9,10,14,1
14:57:29:552056,-7,-11,-13,0,9,10,14,1
14:57:29:552900,-10,-15,-15,-27,-25,-19,-13,-21
14:57:29:558908,1,9,11,-1,-22,-2,2,2
14:57:29:566391,1,9,11,-1,-22,-2,2,2
14:57:29:573914,2,1,5,1,24,14,7,7
14:57:29:581420,-13,-4,-9,-4,-4,6,-4,-7
14:57:29:589585,-13,-4,-9,-4,-4,6,-4,-7
14:57:29:590332,1,4,10,4,-29,-9,1,3
14:57:29:603914,7,5,5,5,7,11,0,-3
14:57:29:612049,7,5,5,5,7,11,0,-3
14:57:29:612829,-10,1,-6,5,6,-1,2,-2
14:57:29:618897,2,10,13,13,28,2,-4,-1
14:57:29:626384,2,10,13,13,28,2,-4,-1
14:57:29:633888,6,4,2,-14,-37,-22,-5,-3
14:57:29:641406,-6,-9,-7,-12,-34,-22,1,1
14:57:29:657809,-6,-9,-7,-12,-34,-22,1,1
14:57:29:658552,-5,1,6,10,-16,-15,8,-2
14:57:29:663891,9,-3,-5,1,7,-4,-4,5
14:57:29:672124,9,-3,-5,1,7,-4,-4,5
14:57:29:672846,-1,-5,-1,-4,6,7,2,6
14:57:29:678837,-25,0,-7,-5,-6,-8,-5,-9
14:57:29:686414,-25,0,-7,-5,-6,-8,-5,-9
14:57:29:702028,-4,-9,-13,-4,8,6,-3,14
14:57:29:702849,7,6,-4,-9,2,3,-3,-11
14:57:29:717156,7,6,-4,-9,2,3,-3,-11
14:57:29:717914,1,-9,14,15,18,10,-2,-1
14:57:29:723887,-2,-7,-1,11,10,12,-6,-5
14:57:29:732070,-2,-7,-1,11,10,12,-6,-5
14:57:29:732887,11,19,28,13,-8,-13,2,-1
14:57:29:738875,-11,-11,-22,5,21,8,7,0
14:57:29:746414,-11,-11,-22,5,21,8,7,0
14:57:29:753831,-4,-1,-2,4,26,15,-1,4
14:57:29:761357,-3,-3,1,-5,6,6,11,0
14:57:29:769596,-3,-3,1,-5,6,6,11,0
14:57:29:770384,-4,-6,-13,-23,-39,-12,-10,-7
14:57:29:783952,18,9,12,13,34,12,-12,-2
14:57:29:792094,18,9,12,13,34,12,-12,-2
14:57:29:792888,-17,-8,-11,-9,-4,2,-1,-7
14:57:29:798837,-5,-2,9,-4,-28,-15,0,12
14:57:29:806456,-5,-2,9,-4,-28,-15,0,12
14:57:29:813868,9,1,-3,8,24,1,1,-5
14:57:29:821364,-6,2,2,-8,-16,0,-3,-9
14:57:29:829599,-6,2,2,-8,-16,0,-3,-9
14:57:29:830367,-24,-11,-25,3,6,11,2,-6
14:57:29:844304,-2,14,22,-8,-74,-15,-8,-5
14:57:29:852085,-2,14,22,-8,-74,-15,-8,-5
14:57:29:852846,10,-8,-6,-6,-4,-12,-3,16
14:57:29:858877,-1,-7,-4,-5,21,9,9,-6
14:57:29:866496,-1,-7,-4,-5,21,9,9,-6
14:57:29:873896,-6,-8,-3,-12,-19,-10,-18,-24
14:57:29:881381,25,-11,-15,-10,12,0,-7,9
14:57:29:889641,25,-11,-15,-10,12,0,-7,9
14:57:29:890421,11,19,21,15,15,2,-3,6
14:57:29:903857,-16,-7,-6,-7,-36,-20,-15,-14
14:57:29:912130,-16,-7,-6,-7,-36,-20,-15,-14
14:57:29:912902,6,-3,1,14,25,23,10,5
14:57:29:918834,-7,3,-2,13,16,4,0,-1
14:57:29:926432,-7,3,-2,13,16,4,0,-1
14:57:29:933905,-2,-1,-10,-18,-15,-14,4,-1
14:57:29:941393,6,2,2,23,42,9,9,11
14:57:29:949610,6,2,2,23,42,9,9,11
14:57:29:950376,-9,1,2,18,72,-11,-7,-19
14:57:29:963872,24,-25,-31,-25,12,-17,-11,18
14:57:29:972056,24,-25,-31,-25,12,-17,-11,18
14:57:29:972856,20,13,30,-1,-35,8,0,19
14:57:29:978918,-27,-1,3,17,20,-1,-9,-27
14:57:29:994580,-27,-1,3,17,20,-1,-9,-27
14:57:29:995417,-19,-2,-5,-17,-11,1,9,4
14:57:30:1401,-4,1,5,0,7,21,9,35
14:57:30:9543,-4,1,5,0,7,21,9,35
14:57:30:10352,-2,2,-4,0,-25,5,-3,8
14:57:30:23883,-12,-2,-7,1,2,-3,-15,-11
14:57:30:32475,-12,-2,-7,1,2,-3,-15,-11
14:57:30:39577,1,2,12,-7,5,2,6,0
14:57:30:40369,6,0,7,-17,-16,11,4,-3
14:57:30:46424,6,0,7,-17,-16,11,4,-3
14:57:30:53899,-4,-11,-17,-3,45,4,9,-4
14:57:30:61413,5,19,25,27,-32,-16,-5,-4
14:57:30:68977,5,19,25,27,-32,-16,-5,-4
14:57:30:76393,-3,6,5,-5,-1,-1,-3,0
14:57:30:83852,-2,1,-1,6,12,0,12,-4
14:57:30:92067,-2,1,-1,6,12,0,12,-4
14:57:30:92908,1,-3,-3,2,-11,5,-3,-6
14:57:30:107099,-15,-1,-10,-31,-57,-14,-7,-30
14:57:30:107884,-15,-1,-10,-31,-57,-14,-7,-30
14:57:30:113858,3,2,6,3,6,12,8,-20
14:57:30:121353,10,-4,-3,-6,8,1,14,-4
14:57:30:128938,10,-4,-3,-6,8,1,14,-4
14:57:30:136397,44,-4,-5,2,-23,0,-4,12
14:57:30:143832,-11,2,-8,-4,16,14,17,3
14:57:30:152125,-11,2,-8,-4,16,14,17,3
14:57:30:152942,56,-21,-2,0,-1,-23,-7,33
14:57:30:167113,4,0,-6,-1,23,4,0,16
14:57:30:167910,4,0,-6,-1,23,4,0,16
14:57:30:173905,-25,11,10,23,-8,9,6,-7
14:57:30:181384,-13,-15,-17,-9,-3,2,-7,-8
14:57:30:188947,-13,-15,-17,-9,-3,2,-7,-8
14:57:30:196347,-13,-9,-29,-27,-17,-7,-4,-8
14:57:30:203879,-6,8,15,34,5,-13,11,0
14:57:30:212131,-6,8,15,34,5,-13,11,0
14:57:30:212910,-2,5,3,10,-2,13,10,20
14:57:30:227062,-4,-4,3,-2,23,-4,-7,-12
14:57:30:227870,-4,-4,3,-2,23,-4,-7,-12
14:57:30:233860,-20,-5,-9,0,14,-5,-4,-14
14:57:30:241393,2,3,6,-14,-48,-12,-19,13
14:57:30:248977,2,3,6,-14,-48,-12,-19,13
14:57:30:256382,-19,5,-5,-2,-13,-27,7,-10
14:57:30:263876,3,-4,-5,-8,28,-3,0,-1
14:57:30:272071,3,-4,-5,-8,28,-3,0,-1
14:57:30:272846,-5,-5,-8,-1,-9,5,-2,5
14:57:30:287090,-9,-21,-9,-2,6,-10,7,17
14:57:30:287892,-9,-21,-9,-2,6,-10,7,17
14:57:30:293882,-3,1,9,4,13,9,-22,-23
14:57:30:301379,15,13,-2,-4,-3,4,0,13
14:57:30:308951,15,13,-2,-4,-3,4,0,13
14:57:30:316460,-40,-18,-32,15,14,-3,-2,-62
14:57:30:323891,-8,9,18,-3,-1,5,-8,-3
14:57:30:332151,-8,9,18,-3,-1,5,-8,-3
14:57:30:332915,47,0,6,-12,-2,4,4,40
14:57:30:347150,-15,-8,-14,11,-4,-40,-46,-80
14:57:30:347866,-15,-8,-14,11,-4,-40,-46,-80
14:57:30:353900,-15,5,22,-6,-9,-18,-5,-21
14:57:30:361405,1,-8,11,6,-3,7,9,6
14:57:30:368932,1,-8,11,6,-3,7,9,6
14:57:30:376360,-9,9,-9,1,-25,9,-2,3
14:57:30:383854,1,0,-28,-19,-6,-6,-3,10
14:57:30:392093,1,0,-28,-19,-6,-6,-3,10
14:57:30:392919,-7,0,-8,-16,-12,4,9,0
14:57:30:407072,7,6,21,5,-19,11,6,-9
14:57:30:407903,7,6,21,5,-19,11,6,-9
14:57:30:413852,-4,-14,-24,0,6,-9,1,36
14:57:30:421394,-11,-11,-15,-6,-9,-2,3,2
14:57:30:428996,-11,-11,-15,-6,-9,-2,3,2
14:57:30:436396,-10,-1,24,-4,2,16,10,27
14:57:30:443843,-23,-24,21,12,14,-9,-16,-82
14:57:30:452123,-23,-24,21,12,14,-9,-16,-82
14:57:30:452891,25,11,-1,-25,9,-4,-2,2
14:57:30:467035,18,12,-5,13,-12,11,12,52
14:57:30:467885,18,12,-5,13,-12,11,12,52
14:57:30:473884,11,3,6,-1,-4,12,24,72
14:57:30:481359,-3,-2,-14,-23,0,-11,-7,-8
14:57:30:497085,-3,-2,-14,-23,0,-11,-7,-8
14:57:30:497903,-2,9,17,21,-6,8,1,-13
14:57:30:503828,-3,5,0,-27,-10,-2,0,-22
14:57:30:512121,-3,5,0,-27,-10,-2,0,-22
14:57:30:512913,-8,-11,-13,-8,10,-2,-10,-4
14:57:30:527148,10,17,11,27,12,-7,13,28
14:57:30:527936,10,17,11,27,12,-7,13,28
14:57:30:533888,-6,-18,-12,-19,-19,-19,-19,-18
14:57:30:541356,18,4,4,8,2,12,20,34
14:57:30:548934,18,4,4,8,2,12,20,34
14:57:30:556391,-9,7,3,13,-3,-9,-10,-25
14:57:30:563889,9,-2,-3,-31,-19,12,0,23
14:57:30:572192,9,-2,-3,-31,-19,12,0,23
14:57:30:572945,-5,-5,-13,14,3,-3,-8,-63
14:57:30:587076,-1,-2,-13,-1,16,5,2,13
14:57:30:587916,-1,-2,-13,-1,16,5,2,13
14:57:30:593883,27,11,12,-18,3,-5,9,77
14:57:30:601403,-21,-10,1,13,6,-10,-23,-31
14:57:30:608944,-21,-10,1,13,6,-10,-23,-31
14:57:30:616398,-5,9,14,2,6,4,-3,8
14:57:30:623907,-27,2,-3,-11,-5,9,25,28
14:57:30:632125,-27,2,-3,-11,-5,9,25,28
14:57:30:632950,2,4,-1,21,9,-4,-17,-25
14:57:30:647069,-15,-13,-6,18,18,-1,-9,-22
14:57:30:647892,-15,-13,-6,18,18,-1,-9,-22
14:57:30:653886,-5,-15,-24,-3,15,-2,4,4
14:57:30:661350,-3,10,-5,-10,-3,10,1,1
14:57:30:668971,-3,10,-5,-10,-3,10,1,1
14:57:30:676353,-7,-7,-16,-24,-33,20,-15,-15
14:57:30:683898,25,-2,8,-29,-28,-4,4,27
14:57:30:692519,25,-2,8,-29,-28,-4,4,27
14:57:30:698943,-5,1,16,25,20,-8,5,-12
14:57:30:707045,11,-7,-24,4,13,2,-7,2
14:57:30:707893,11,-7,-24,4,13,2,-7,2
14:57:30:713868,5,28,47,0,6,2,-2,-11
14:57:30:729568,67,3,6,37,23,-7,-51,-35
14:57:30:730374,67,3,6,37,23,-7,-51,-35
14:57:30:736416,21,-11,-24,-12,-3,-10,1,-4
14:57:30:743881,-42,-3,20,51,65,2,10,-15
14:57:30:752087,-42,-3,20,51,65,2,10,-15
14:57:30:752882,-5,-9,-12,-38,-23,-17,-7,-2
14:57:30:775256,-18,4,-11,-20,-52,-19,-8,-81
14:57:30:776033,-18,4,-11,-20,-52,-19,-8,-81
14:57:30:776845,-4,-10,-2,12,20,8,13,11
14:57:30:781402,8,9,8,-9,13,14,4,18
14:57:30:788916,8,9,8,-9,13,14,4,18
14:57:30:796391,-12,2,-4,0,-11,5,9,22
14:57:30:803916,8,-19,-5,-13,-19,-15,-1,41
14:57:30:812577,8,-19,-5,-13,-19,-15,-1,41
14:57:30:827797,5,-2,-7,-2,-27,-2,3,21
14:57:30:828517,4,6,-1,-23,-17,-2,10,25
14:57:30:829354,4,6,-1,-23,-17,-2,10,25
14:57:30:833916,-47,-19,2,-25,-36,-21,-10,-13
14:57:30:841434,-1,4,-6,-1,-10,6,7,8
14:57:30:849014,-1,4,-6,-1,-10,6,7,8
14:57:30:856392,-3,6,19,-3,-7,1,0,-6
14:57:30:863861,-7,4,11,-23,-15,-6,4,21
14:57:30:872135,-7,4,11,-23,-15,-6,4,21
14:57:30:872900,14,-9,-22,24,31,7,0,-30
14:57:30:887114,18,-4,-5,6,10,7,11,0
14:57:30:887907,18,-4,-5,6,10,7,11,0
14:57:30:893838,-26,-10,-10,6,-24,-46,-30,-48
14:57:30:901366,21,-2,-25,-38,3,12,2,-6
14:57:30:908968,21,-2,-25,-38,3,12,2,-6
14:57:30:916347,-12,16,44,-11,4,14,6,-29
14:57:30:923839,12,-18,-9,-12,-12,-1,-2,43
14:57:30:932099,12,-18,-9,-12,-12,-1,-2,43
14:57:30:932918,19,3,-18,12,9,3,-2,-6
14:57:30:947096,-21,6,23,31,-1,7,-3,-3
14:57:30:947920,-21,6,23,31,-1,7,-3,-3
14:57:30:953822,0,8,9,53,2,15,5,15
14:57:30:961364,-29,-19,-12,14,-9,-13,-7,-26
14:57:30:968932,-29,-19,-12,14,-9,-13,-7,-26
14:57:30:976360,-7,12,6,16,13,25,21,39
14:57:30:983906,-6,2,2,-16,-5,16,0,13
14:57:30:992118,-6,2,2,-16,-5,16,0,13
14:57:30:992920,-22,-14,-42,-22,1,-21,-15,12
14:57:31:7599,-16,-4,-26,-8,7,-8,0,3
14:57:31:8354,-16,-4,-26,-8,7,-8,0,3
14:57:31:13907,3,22,13,2,4,10,11,22
14:57:31:29614,29,4,-10,0,-12,-18,6,5
14:57:31:30381,29,4,-10,0,-12,-18,6,5
14:57:31:36382,16,-26,-43,-10,-6,-2,-13,-15
14:57:31:43842,-9,22,41,46,22,-5,2,-60
14:57:31:59573,-9,22,41,46,22,-5,2,-60
14:57:31:60356,2,-2,12,-7,31,1,-4,-23
14:57:31:67090,62,7,14,26,-2,5,5,22
14:57:31:67944,62,7,14,26,-2,5,5,22
14:57:31:73878,20,-10,-5,-3,30,12,-1,0
14:57:31:89608,-32,3,7,9,-1,-11,-2,0
14:57:31:90378,-32,3,7,9,-1,-11,-2,0
14:57:31:104583,-1,-13,-5,-18,-47,-12,-7,-18
14:57:31:105334,-42,-12,-20,-45,-11,-3,-4,-26
14:57:31:111412,-42,-12,-20,-45,-11,-3,-4,-26
14:57:31:118914,69,29,39,20,5,1,7,50
14:57:31:127079,-7,15,4,-6,6,8,-4,-10
14:57:31:127863,-7,15,4,-6,6,8,-4,-10
14:57:31:133878,-32,-20,-22,-18,-21,-7,-15,-22
14:57:31:150087,-4,-1,9,29,17,13,6,20
14:57:31:150872,-4,-1,9,29,17,13,6,20
14:57:31:156400,-16,7,-8,-21,16,6,3,-43
14:57:31:163844,-14,-19,-35,-22,-37,-18,-15,-7
14:57:31:171431,-14,-19,-35,-22,-37,-18,-15,-7
14:57:31:178961,0,-7,-8,1,-8,-7,0,4
14:57:31:195225,1,-12,7,-23,0,-2,-4,-7
14:57:31:196072,1,-12,7,-23,0,-2,-4,-7
14:57:31:196873,-36,17,35,-10,-8,-4,8,-58
14:57:31:209576,94,-5,2,14,-1,-9,-21,-3
14:57:31:210399,94,-5,2,14,-1,-9,-21,-3
14:57:31:216404,-35,-44,-51,-14,7,-11,-12,4
14:57:31:223921,-32,11,28,3,13,25,12,16
14:57:31:239583,-32,11,28,3,13,25,12,16
14:57:31:240359,31,22,14,-21,4,12,9,27
14:57:31:247117,-10,-5,-1,-18,11,-14,1,11
14:57:31:247897,-10,-5,-1,-18,11,-14,1,11
14:57:31:253885,-10,-18,-8,20,-13,-7,0,16
14:57:31:269557,-14,11,40,20,7,5,-10,-16
14:57:31:270401,-14,11,40,20,7,5,-10,-16
14:57:31:284588,13,-3,7,-8,7,-12,3,0
14:57:31:285350,-22,-6,-21,2,-8,-5,2,-1
14:57:31:291473,-22,-6,-21,2,-8,-5,2,-1
14:57:31:298916,16,7,12,7,-16,-7,-4,-12
14:57:31:307062,-25,4,9,5,-15,6,-10,-58
14:57:31:307876,-25,4,9,5,-15,6,-10,-58
14:57:31:313888,-27,-6,-34,-39,-8,-2,-4,6
14:57:31:330081,14,2,-3,-15,-7,-11,14,34
14:57:31:330888,14,2,-3,-15,-7,-11,14,34
14:57:31:336364,-5,-10,2,9,-29,3,-24,12
14:57:31:343878,15,20,32,35,17,11,5,18
14:57:31:351458,15,20,32,35,17,11,5,18
14:57:31:358901,49,14,-8,-15,3,7,10,47
14:57:31:375282,-19,-25,-66,-22,7,3,-3,-17
14:57:31:376030,-19,-25,-66,-22,7,3,-3,-17
14:57:31:376823,-2,9,9,-4,8,-1,-5,-31
14:57:31:389582,-17,-34,-48,-22,2,-17,-4,-15
14:57:31:390411,-17,-34,-48,-22,2,-17,-4,-15
14:57:31:396411,0,16,44,44,41,5,3,10
14:57:31:412109,10,16,21,16,3,7,10,-3
14:57:31:412911,10,16,21,16,3,7,10,-3
14:57:31:427846,-26,-21,-37,6,33,4,-4,-13
14:57:31:428563,-7,3,14,8,10,14,27,15
14:57:31:429403,-7,3,14,8,10,14,27,15
14:57:31:433860,-3,4,11,13,-13,-17,-27,-30
14:57:31:449619,-10,-12,-33,-16,-21,-25,-21,7
14:57:31:450388,-10,-12,-33,-16,-21,-25,-21,7
14:57:31:456370,-11,25,43,15,14,-14,7,-4
14:57:31:463860,21,0,-34,-12,0,7,0,42
14:57:31:471424,21,0,-34,-12,0,7,0,42
14:57:31:478930,-59,-2,29,-4,-8,-4,3,6
14:57:31:487061,-39,-11,-24,-16,-14,1,-13,-26
14:57:31:487880,-39,-11,-24,-16,-14,1,-13,-26
14:57:31:493860,0,-3,7,-23,-12,2,12,15
14:57:31:509590,-9,-12,12,1,2,19,-4,-39
14:57:31:510417,-9,-12,12,1,2,19,-4,-39
14:57:31:516338,17,8,-9,28,13,14,13,-12
14:57:31:532073,30,22,12,-7,-13,12,17,-8
14:57:31:532882,30,22,12,-7,-13,12,17,-8
14:57:31:538878,-62,0,0,28,19,5,-1,-7
14:57:31:547087,-4,12,11,20,1,-1,9,-4
14:57:31:547905,-4,12,11,20,1,-1,9,-4
14:57:31:561377,12,-20,-25,-9,-25,-4,5,13
14:57:31:569580,-14,15,20,-7,-9,3,11,38
14:57:31:570389,-14,15,20,-7,-9,3,11,38
14:57:31:576399,13,-17,-17,-25,-52,4,-4,-9
14:57:31:592102,13,-17,-17,-25,-52,4,-4,-9
14:57:31:592924,20,-1,8,4,0,-8,-2,5
14:57:31:607753,6,7,11,-1,-5,15,21,30
14:57:31:608560,6,7,11,-1,-5,15,21,30
14:57:31:609383,-1,-8,-10,-8,36,9,-7,7
14:57:31:613868,19,0,-28,-13,-15,-6,-2,41
14:57:31:629598,19,0,-28,-13,-15,-6,-2,41
14:57:31:630392,-33,14,34,22,14,-37,-27,-29
14:57:31:636384,0,-11,-2,0,5,-27,-31,-33
14:57:31:660741,0,-11,-2,0,5,-27,-31,-33
14:57:31:661544,20,-2,2,-19,5,1,7,-2
14:57:31:662353,6,5,-11,6,40,7,-8,-2
14:57:31:667059,6,5,-11,6,40,7,-8,-2
14:57:31:667929,-13,-8,-23,7,3,0,-4,1
14:57:31:673887,25,14,17,3,22,5,13,19
14:57:31:689650,25,14,17,3,22,5,13,19
14:57:31:690465,-4,3,7,-5,-14,5,-1,27
14:57:31:696436,-18,-3,-5,-1,11,6,10,-37
14:57:31:712138,-18,-3,-5,-1,11,6,10,-37
14:57:31:712931,-43,-4,6,6,-3,-8,-21,20
14:57:31:718849,8,-5,7,3,3,15,13,-4
14:57:31:727174,8,-5,7,3,3,15,13,-4
14:57:31:727931,35,-11,-5,7,-1,-7,-29,-18
14:57:31:733873,2,-15,-25,-9,-50,-6,1,16
14:57:31:749623,2,-15,-25,-9,-50,-6,1,16
14:57:31:750437,16,6,20,13,19,12,17,4
14:57:31:756357,-22,3,-8,-10,16,1,-2,-17
14:57:31:772039,-22,3,-8,-10,16,1,-2,-17
14:57:31:772846,3,5,-27,-11,2,8,11,7
14:57:31:778863,17,16,7,17,10,-7,-10,19
14:57:31:787107,17,16,7,17,10,-7,-10,19
14:57:31:787912,31,-11,8,-19,-14,-2,14,18
14:57:31:793852,-21,-2,10,28,-5,-14,2,8
14:57:31:809618,-21,-2,10,28,-5,-14,2,8
14:57:31:810379,14,-2,-18,-15,-41,-25,-39,3
14:57:31:816371,14,5,-2,-2,-17,-9,-17,-1
14:57:31:832547,14,5,-2,-2,-17,-9,-17,-1
14:57:31:839533,-1,-18,-22,-8,-6,-2,20,0
14:57:31:840277,-45,15,30,4,27,7,-5,-77
14:57:31:847080,-45,15,30,4,27,7,-5,-77
14:57:31:847904,-6,-3,9,1,24,-7,-5,-18
14:57:31:853841,30,-12,6,18,-1,-15,4,21
14:57:31:869370,30,-12,6,18,-1,-15,4,21
14:57:31:877532,-7,2,9,0,-31,8,11,-8
14:57:31:883904,8,-13,-37,-32,-23,16,-1,-15
14:57:31:892067,8,-13,-37,-32,-23,16,-1,-15
14:57:31:892917,-32,0,13,3,-1,-23,-20,-14
14:57:31:898870,24,-5,-2,5,8,-9,12,27
14:57:31:907126,24,-5,-2,5,8,-9,12,27
14:57:31:907924,5,-13,-15,-1,9,12,26,-6
14:57:31:913874,-15,-16,-12,-2,18,2,-16,-27
14:57:31:930114,-15,-16,-12,-2,18,2,-16,-27
14:57:31:930893,-5,5,-7,5,28,17,2,7
14:57:31:936322,-8,-5,-8,-33,-7,6,9,6
14:57:31:952062,-8,-5,-8,-33,-7,6,9,6
14:57:31:952860,-8,-22,-22,-3,-4,-1,-10,-46
14:57:31:958823,45,18,11,13,2,15,-3,13
14:57:31:967071,45,18,11,13,2,15,-3,13
14:57:31:967862,42,3,-10,-3,-6,-3,-5,51
14:57:31:981414,4,-11,16,0,-8,-23,-11,-6
14:57:31:989605,4,-11,16,0,-8,-23,-11,-6
14:57:31:990385,18,15,7,-2,-31,-14,-10,-27
14:57:31:996366,-11,10,-7,3,-1,-1,-9,-1
14:57:32:12081,-11,10,-7,3,-1,-1,-9,-1
14:57:32:12880,-20,-1,5,8,-7,-1,-1,-4
14:57:32:18799,-8,-14,-1,11,-16,10,4,-23
14:57:32:27181,-8,-14,-1,11,-16,10,4,-23
14:57:32:27906,4,7,31,15,16,1,4,-2
14:57:32:41410,7,1,-12,-19,-15,-12,-10,25
14:57:32:49600,7,1,-12,-19,-15,-12,-10,25
14:57:32:50398,3,8,4,-7,-10,-9,5,30
14:57:32:56371,4,-12,-5,-11,-17,1,-3,39
14:57:32:72113,4,-12,-5,-11,-17,1,-3,39
14:57:32:72901,-7,7,21,21,17,13,3,24
14:57:32:78936,-1,0,25,4,15,2,21,14
14:57:32:87048,-1,0,25,4,15,2,21,14
14:57:32:87899,12,-29,-24,-21,-11,-8,4,13
14:57:32:101433,12,18,37,13,-20,-4,-5,-5
14:57:32:109577,12,18,37,13,-20,-4,-5,-5
14:57:32:110350,-6,6,-7,-4,-6,13,-3,8
14:57:32:116400,-10,-8,-29,-30,24,-6,-2,-11
14:57:32:123918,-10,-8,-29,-30,24,-6,-2,-11
14:57:32:131333,-2,-5,-26,-11,14,-8,-16,-18
14:57:32:138850,-8,-6,-2,6,30,6,-8,-16
14:57:32:147492,-8,-6,-2,6,30,6,-8,-16
14:57:32:153894,11,-14,-27,-6,15,6,7,-34
14:57:32:161383,0,32,45,13,11,-10,-5,7
14:57:32:169360,0,32,45,13,11,-10,-5,7
14:57:32:177133,-7,-3,-9,-18,-49,-39,-13,-17
14:57:32:177859,-24,-39,-25,21,6,-3,-8,11
14:57:32:183929,-24,-39,-25,21,6,-3,-8,11
14:57:32:191399,-3,0,13,2,7,15,4,-23
14:57:32:198892,-3,-5,-11,-13,-20,0,-1,-68
14:57:32:207081,-3,-5,-11,-13,-20,0,-1,-68
14:57:32:207856,-21,-5,11,5,16,-16,9,5
14:57:32:221376,-11,-16,-41,-29,-22,-3,-24,1
14:57:32:229652,-11,-16,-41,-29,-22,-3,-24,1
14:57:32:230411,19,18,28,27,11,10,7,4
14:57:32:236397,17,17,-9,-5,13,-13,5,17
14:57:32:252120,17,17,-9,-5,13,-13,5,17
14:57:32:252925,-17,-7,1,-5,6,13,-6,-21
14:57:32:258909,-2,-3,-8,-4,-7,-20,8,6
14:57:32:267099,-2,-3,-8,-4,-7,-20,8,6
14:57:32:267919,0,1,7,-6,-9,1,2,10
14:57:32:281408,-12,3,5,-17,4,10,-9,-28
14:57:32:289617,-12,3,5,-17,4,10,-9,-28
14:57:32:290432,-5,20,-3,14,10,11,0,-1
14:57:32:296337,2,1,-12,-10,10,3,10,9
14:57:32:303955,2,1,-12,-10,10,3,10,9
14:57:32:311363,1,-8,-28,-18,-20,-13,-3,-13
14:57:32:318889,18,-7,-4,9,12,1,0,-21
14:57:32:327069,18,-7,-4,9,12,1,0,-21
14:57:32:327861,6,11,9,7,0,-13,15,-8
14:57:32:350260,12,-4,2,-1,-15,11,6,12
14:57:32:351052,12,-4,2,-1,-15,11,6,12
14:57:32:351841,-1,-4,17,22,11,9,6,28
14:57:32:356369,-14,2,-11,1,4,9,7,11
14:57:32:363941,-14,2,-11,1,4,9,7,11
14:57:32:371411,-32,2,17,1,-28,-9,-12,-3
14:57:32:378908,6,-3,5,14,-13,-10,1,3
14:57:32:394659,6,-3,5,14,-13,-10,1,3
14:57:32:395398,19,-7,-17,-30,-18,-14,0,7
14:57:32:401386,-60,-18,2,-13,-27,9,11,-5
14:57:32:409589,-60,-18,2,-13,-27,9,11,-5
14:57:32:410385,-26,-1,23,11,6,18,0,-6
14:57:32:416404,4,10,9,10,-15,-4,-17,3
14:57:32:423901,4,10,9,10,-15,-4,-17,3
14:57:32:439554,9,-1,-1,-13,9,-3,-6,4
14:57:32:440307,7,-2,9,4,11,24,26,-18
14:57:32:447052,7,-2,9,4,11,24,26,-18
14:57:32:447859,-8,-14,-28,-15,-4,6,-15,-10
14:57:32:461363,14,-11,-16,8,23,-14,-19,17
14:57:32:469598,14,-11,-16,8,23,-14,-19,17
14:57:32:470431,13,11,10,1,17,18,20,-7
14:57:32:484607,-12,1,9,4,10,13,4,3
14:57:32:485410,-12,1,9,4,10,13,4,3
14:57:32:491394,-20,-5,13,13,2,-7,-2,3
14:57:32:498894,2,0,-21,-25,-4,-4,0,-6
14:57:32:507137,2,0,-21,-25,-4,-4,0,-6
14:57:32:507933,10,4,-11,-28,-1,10,21,-10
14:57:32:521372,-29,-2,15,4,-4,-38,-22,8
14:57:32:529644,-29,-2,15,4,-4,-38,-22,8
14:57:32:530441,5,5,-8,-11,16,-4,-6,27
14:57:32:536433,-3,-8,-5,-6,-18,-6,-9,-2
14:57:32:552127,-3,-8,-5,-6,-18,-6,-9,-2
14:57:32:552904,-17,4,-1,5,-9,-1,-2,6
14:57:32:558903,6,-9,-12,-4,-14,10,26,-15
14:57:32:567166,6,-9,-12,-4,-14,10,26,-15
14:57:32:567948,7,-12,-10,-1,4,5,3,8
14:57:32:581398,-5,-2,-1,-14,-10,-19,-16,3
14:57:32:589598,-5,-2,-1,-14,-10,-19,-16,3
14:57:32:590360,8,-2,-15,11,-5,-28,-20,-2
14:57:32:596378,4,11,-8,7,-8,15,9,12
14:57:32:603932,4,11,-8,7,-8,15,9,12
14:57:32:611424,-21,-8,-4,-4,19,1,-9,-55
14:57:32:618854,17,14,-7,-17,7,10,8,2
14:57:32:627137,17,14,-7,-17,7,10,8,2
14:57:32:627913,40,-6,-6,-4,-22,8,-4,1
14:57:32:641360,24,2,12,1,17,10,2,7
14:57:32:649585,24,2,12,1,17,10,2,7
14:57:32:650403,2,10,12,12,-2,11,13,34
14:57:32:656397,12,-14,-5,8,-8,-4,-32,-25
14:57:32:663938,12,-14,-5,8,-8,-4,-32,-25
14:57:32:671397,-13,0,-4,7,-21,-14,-13,6
14:57:32:678925,-7,7,12,10,-29,-10,11,8
14:57:32:687117,-7,7,12,10,-29,-10,11,8
14:57:32:687850,15,3,13,14,-6,15,2,23
14:57:32:701353,48,19,17,34,18,-21,3,19
14:57:32:717754,48,19,17,34,18,-21,3,19
14:57:32:718526,-21,-13,-4,-2,23,-4,-11,-22
14:57:32:719355,10,-5,9,11,-3,8,-2,-9
14:57:32:723918,10,-5,9,11,-3,8,-2,-9
14:57:32:731415,-11,-17,1,-8,1,-26,-28,-49
14:57:32:738910,-12,5,-3,-17,-25,-4,-10,-5
14:57:32:747071,-12,5,-3,-17,-25,-4,-10,-5
14:57:32:747894,-15,-6,-19,4,-4,7,10,0
14:57:32:761916,-17,-2,-16,-2,5,12,13,16
14:57:32:769602,-17,-2,-16,-2,5,12,13,16
14:57:32:770383,-35,6,7,-6,-13,-4,1,-2
14:57:32:776346,-3,0,2,-3,20,18,1,-7
14:57:32:783927,-3,0,2,-3,20,18,1,-7
14:57:32:791423,18,-4,-6,-10,24,2,9,2
14:57:32:799008,0,7,15,-14,-9,-6,9,-4
14:57:32:807105,0,7,15,-14,-9,-6,9,-4
14:57:32:807881,-7,0,4,-5,-27,-12,-11,-6
14:57:32:821439,7,5,20,39,21,0,4,15
14:57:32:829576,7,5,20,39,21,0,4,15
14:57:32:830408,-9,-3,-4,30,26,0,10,-45
14:57:32:836396,-15,-1,-32,-3,-7,-14,0,10
14:57:32:852093,-15,-1,-32,-3,-7,-14,0,10
14:57:32:852926,8,13,-9,-25,8,0,10,32
14:57:32:858885,-31,-4,-2,-6,14,0,-34,-10
14:57:32:867097,-31,-4,-2,-6,14,0,-34,-10
14:57:32:867911,-79,-6,-13,-27,-32,7,-8,-26
14:57:32:881403,3,5,13,5,4,5,3,16
14:57:32:889637,3,5,13,5,4,5,3,16
14:57:32:890410,42,4,-3,1,-18,-5,-4,16
14:57:32:905048,20,7,18,23,9,-1,0,-12
14:57:32:905844,20,7,18,23,9,-1,0,-12
14:57:32:911382,16,-1,1,-9,-4,-5,-6,22
14:57:32:918832,-11,-15,-6,-36,-18,-7,6,-21
14:57:32:926456,-11,-15,-6,-36,-18,-7,6,-21
14:57:32:933891,11,-2,-1,-2,9,-1,8,-1
14:57:32:950284,-5,5,14,-14,-11,5,-7,-10
14:57:32:951078,-5,5,14,-14,-11,5,-7,-10
14:57:32:951870,6,-3,-9,-7,-15,12,11,21
14:57:32:965068,-38,-23,-21,1,7,6,8,-25
14:57:32:965867,-38,-23,-21,1,7,6,8,-25
14:57:32:971386,36,-3,1,7,17,-3,0,17
14:57:32:978877,15,8,-10,-22,-17,-21,-12,-2
14:57:32:994644,15,8,-10,-22,-17,-21,-12,-2
14:57:32:995423,-6,24,24,16,-13,7,10,15
14:57:33:1361,10,-20,-17,-19,-12,17,-2,15
14:57:33:9603,10,-20,-17,-19,-12,17,-2,15
14:57:33:10407,-1,-10,-16,-11,-1,3,-6,-6
14:57:33:24601,8,1,1,5,-1,-16,3,-33
14:57:33:25395,8,1,1,5,-1,-16,3,-33
14:57:33:31348,8,1,5,7,-5,2,1,19
14:57:33:38822,4,5,-9,7,12,19,8,18
14:57:33:46449,4,5,-9,7,12,19,8,18
14:57:33:53855,-13,1,13,22,9,-24,-8,-24
14:57:33:61372,-18,-8,-1,-8,2,-15,-14,-2
14:57:33:77099,-18,-8,-1,-8,2,-15,-14,-2
14:57:33:77893,14,7,5,-13,7,14,20,21
14:57:33:84587,-14,0,-19,-24,-33,-32,-20,-5
14:57:33:85394,-14,0,-19,-24,-33,-32,-20,-5
14:57:33:91390,-8,-1,6,-3,1,-4,-10,-7
14:57:33:98904,0,-4,8,-1,16,22,9,2
14:57:33:106449,0,-4,8,-1,16,22,9,2
14:57:33:113883,6,-6,11,-2,0,-1,-14,-26
14:57:33:121362,6,-14,-14,31,21,4,-2,-22
14:57:33:129613,6,-14,-14,31,21,4,-2,-22
14:57:33:130431,-8,7,0,-10,9,8,3,-9
14:57:33:144658,-7,2,5,-15,-15,-10,1,12
14:57:33:145439,-7,2,5,-15,-15,-10,1,12
14:57:33:151374,-6,-12,-15,2,-22,-12,-12,-6
14:57:33:158879,17,24,28,5,8,17,17,23
14:57:33:166470,17,24,28,5,8,17,17,23
14:57:33:173937,25,-5,-3,-11,-19,-13,-9,1
14:57:33:181449,-13,-18,-37,-2,-20,-2,5,-18
14:57:33:189596,-13,-18,-37,-2,-20,-2,5,-18
14:57:33:190368,1,9,14,19,1,-25,-18,-15
14:57:33:204570,-3,1,8,-21,-10,-17,-5,0
14:57:33:205348,-3,1,8,-21,-10,-17,-5,0
14:57:33:211436,-11,-14,-42,-28,3,7,-1,25
14:57:33:227086,-13,4,7,-22,-7,-12,-15,-6
14:57:33:227904,-13,4,7,-22,-7,-12,-15,-6
14:57:33:242052,-12,-9,-8,7,-6,2,-2,2
14:57:33:242822,-19,-9,9,24,13,-6,3,-45
14:57:33:249593,-19,-9,9,24,13,-6,3,-45
14:57:33:250381,5,4,11,2,7,-6,1,-11
14:57:33:272684,23,11,0,-3,-13,5,3,7
14:57:33:273557,23,11,0,-3,-13,5,3,7
14:57:33:274344,-10,-5,22,1,-27,-23,-14,-20
14:57:33:278920,12,-1,-5,-1,35,1,-3,43
14:57:33:286377,12,-1,-5,-1,35,1,-3,43
14:57:33:293847,-23,-16,-28,-17,17,19,2,2
14:57:33:301349,9,5,-3,18,0,10,8,14
14:57:33:317124,9,5,-3,18,0,10,8,14
14:57:33:317889,12,-1,-2,-12,8,11,4,16
14:57:33:324601,-9,5,6,13,-3,2,-4,-15
14:57:33:325371,-9,5,6,13,-3,2,-4,-15
14:57:33:331386,15,7,22,33,22,9,1,1
14:57:33:338819,-78,-7,-1,-14,-13,5,-1,-13
14:57:33:346494,-78,-7,-1,-14,-13,5,-1,-13
14:57:33:353908,29,-2,-26,-13,1,5,12,3
14:57:33:361395,20,11,23,11,21,-5,1,3
14:57:33:369602,20,11,23,11,21,-5,1,3
14:57:33:370371,-16,-2,4,14,21,6,8,-7
14:57:33:384601,16,-5,-20,-9,0,-4,-12,12
14:57:33:385369,16,-5,-20,-9,0,-4,-12,12
14:57:33:399546,14,1,-3,16,2,-3,2,4
14:57:33:400384,-5,10,17,8,-14,1,7,-43
14:57:33:406474,-5,10,17,8,-14,1,7,-43
14:57:33:413899,-38,-1,-6,-28,-35,-39,-15,-25
14:57:33:421339,11,-24,-27,-29,1,-7,1,91
14:57:33:429676,11,-24,-27,-29,1,-7,1,91
14:57:33:430424,-16,9,16,6,-3,24,9,-4
14:57:33:444563,-5,1,-2,10,15,1,-14,-36
14:57:33:445454,-5,1,-2,10,15,1,-14,-36
14:57:33:451386,-5,-23,-8,-26,6,-14,-18,-25
14:57:33:458834,-4,-1,0,30,21,5,4,-31
14:57:33:466438,-4,-1,0,30,21,5,4,-31
14:57:33:473896,-14,3,7,19,18,5,-7,-4
14:57:33:481380,22,-5,-11,-10,10,-4,-2,0
14:57:33:489610,22,-5,-11,-10,10,-4,-2,0
14:57:33:490406,8,1,2,-6,-1,19,4,9
14:57:33:505045,-4,-6,-5,9,-5,-11,-2,29
14:57:33:505879,-4,-6,-5,9,-5,-11,-2,29
14:57:33:519496,-17,-10,-10,3,-2,-5,7,19
14:57:33:520315,2,8,31,7,-2,11,8,3
14:57:33:526408,2,8,31,7,-2,11,8,3
14:57:33:533858,-5,4,-1,0,-5,1,-9,-3
14:57:33:550261,-21,-11,-21,2,-2,-4,-7,-8
14:57:33:551065,-21,-11,-21,2,-2,-4,-7,-8
14:57:33:551874,24,1,-2,-11,-17,3,2,-4
14:57:33:565061,-27,9,3,-10,-18,8,2,-4
14:57:33:565883,-27,9,3,-10,-18,8,2,-4
14:57:33:571338,0,-2,-5,11,10,-6,-4,2
14:57:33:587039,15,-3,4,9,7,-5,3,22
14:57:33:587846,15,-3,4,9,7,-5,3,22
14:57:33:593879,8,1,1,13,20,3,9,21
14:57:33:601412,24,7,6,-20,-5,-2,-6,24
14:57:33:609539,24,7,6,-20,-5,-2,-6,24
14:57:33:610331,12,4,-1,7,6,-1,-7,-5
14:57:33:632778,-17,-8,-13,-25,-16,1,2,-7
14:57:33:633576,-17,-8,-13,-25,-16,1,2,-7
14:57:33:634387,28,-2,-1,-7,-21,-8,-8,-7
14:57:33:638900,17,-11,-18,-8,-2,-10,-3,0
14:57:33:646447,17,-11,-18,-8,-2,-10,-3,0
14:57:33:653868,-35,20,27,7,-6,-2,12,-37
14:57:33:661391,12,-3,-3,7,-8,-2,-4,-9
14:57:33:677211,12,-3,-3,7,-8,-2,-4,-9
14:57:33:677881,-10,-17,-6,-1,5,0,5,-10
14:57:33:684607,-13,14,16,9,15,16,20,-6
14:57:33:685410,-13,14,16,9,15,16,20,-6
14:57:33:691374,14,8,12,-3,8,13,1,23
14:57:33:698873,22,-5,-8,6,1,1,-5,9
14:57:33:706415,22,-5,-8,6,1,1,-5,9
14:57:33:713913,8,-8,-20,-8,-54,-5,-7,11
14:57:33:721410,17,11,22,0,-16,-15,-20,-11
14:57:33:729600,17,11,22,0,-16,-15,-20,-11
14:57:33:730415,-19,9,0,5,14,8,6,19
14:57:33:744535,38,0,-10,-1,-18,6,12,7
14:57:33:745358,38,0,-10,-1,-18,6,12,7
14:57:33:751441,-8,-7,-4,2,2,-15,-5,-11
14:57:33:758905,-21,-5,9,-1,-22,4,1,-22
14:57:33:766509,-21,-5,9,-1,-22,4,1,-22
14:57:33:782097,10,-12,-27,-22,-12,-3,1,20
14:57:33:782863,-20,-7,-22,-27,-2,-10,2,-17
14:57:33:797125,-20,-7,-22,-27,-2,-10,2,-17
14:57:33:797949,-8,-2,5,-4,-21,-6,-6,-1
14:57:33:804517,-11,-5,10,23,-1,2,-8,-15
14:57:33:805417,-11,-5,10,23,-1,2,-8,-15
14:57:33:811427,4,-2,-1,-9,5,-2,6,-5
14:57:33:818890,-40,-3,-22,-13,6,-2,-2,-13
14:57:33:826456,-40,-3,-22,-13,6,-2,-2,-13
14:57:33:842075,-2,5,14,1,7,-14,-19,-15
14:57:33:842869,-7,4,19,16,6,-2,1,-27
14:57:33:848930,-7,4,19,16,6,-2,1,-27
14:57:33:865247,-54,-3,-7,-34,-10,6,8,6
14:57:33:866033,12,-18,-10,2,18,9,5,22
14:57:33:866914,12,-18,-10,2,18,9,5,22
14:57:33:878856,11,4,3,21,-8,-3,1,-11
14:57:33:887082,0,0,-6,-23,-1,-12,-6,2
14:57:33:887884,0,0,-6,-23,-1,-12,-6,2
14:57:33:893870,-3,6,23,3,46,9,-6,-4
14:57:33:909588,8,4,2,7,17,-9,3,9
14:57:33:910424,8,4,2,7,17,-9,3,9
14:57:33:916369,6,3,-4,10,8,-4,7,4
14:57:33:924576,3,-3,10,-16,14,-3,-1,-2
14:57:33:925405,3,-3,10,-16,14,-3,-1,-2
14:57:33:931420,2,-11,10,15,2,22,7,13
14:57:33:955223,-43,-7,-17,1,-32,-9,-8,-38
14:57:33:956018,-43,-7,-17,1,-32,-9,-8,-38
14:57:33:956846,22,1,-13,-6,-5,0,-7,-14
14:57:33:961425,20,10,42,21,10,13,6,21
14:57:33:968887,20,10,42,21,10,13,6,21
14:57:33:976349,-2,1,-8,-1,-10,-10,-7,-11
14:57:33:984587,11,-5,-27,12,5,-1,3,19
14:57:33:985391,11,-5,-27,12,5,-1,3,19
14:57:33:991353,4,17,2,5,3,-33,-21,-6
14:57:34:7730,14,-4,-7,-17,-2,17,9,6
14:57:34:8534,14,-4,-7,-17,-2,17,9,6
14:57:34:22071,-1,-12,-11,-7,18,4,4,0
14:57:34:22894,-1,-1,12,12,-3,-17,-5,4
14:57:34:28922,-1,-1,12,12,-3,-17,-5,4
14:57:34:36342,8,-10,-2,-10,-4,-7,1,6
14:57:34:44566,-1,10,-4,-9,-24,-11,-9,-2
14:57:34:45412,-1,10,-4,-9,-24,-11,-9,-2
14:57:34:58908,-11,-1,2,-12,-5,18,6,-14
14:57:34:75192,32,2,-8,9,38,12,0,5
14:57:34:76002,32,2,-8,9,38,12,0,5
14:57:34:76798,-21,-12,-11,-6,-14,-9,3,11
14:57:34:81384,-23,13,31,14,6,17,2,-4
14:57:34:88941,-23,13,31,14,6,17,2,-4
14:57:34:96423,16,2,0,10,3,-3,-8,-3
14:57:34:120258,5,1,-6,-6,8,3,7,-2
14:57:34:121061,5,1,-6,-6,8,3,7,-2
14:57:34:121885,-16,1,2,-9,-7,2,7,0
14:57:34:127000,11,-4,-9,5,-8,-3,-5,8
14:57:34:127831,11,-4,-9,5,-8,-3,-5,8
14:57:34:133876,0,11,-13,26,7,5,1,-2
14:57:34:141386,-3,0,5,-2,-2,6,1,-4
14:57:34:157135,-3,0,5,-2,-2,6,1,-4
14:57:34:157894,7,-5,-3,-12,-6,-6,1,-3
14:57:34:164599,-12,3,-5,-4,-27,-11,-15,-15
14:57:34:165380,-12,3,-5,-4,-27,-11,-15,-15
14:57:34:171361,-15,-3,-3,4,-7,12,2,-4
14:57:34:187060,-14,-2,16,2,19,12,5,-15
14:57:34:187872,-14,-2,16,2,19,12,5,-15
14:57:34:202045,18,-14,-6,13,-8,0,4,-10
14:57:34:202837,7,-15,-16,-15,-8,-19,-7,19
14:57:34:208965,7,-15,-16,-15,-8,-19,-7,19
14:57:34:216337,-1,14,27,12,6,12,5,8
14:57:34:225262,-3,3,9,-9,3,8,3,-7
14:57:34:226081,-3,3,9,-9,3,8,3,-7
14:57:34:231377,-8,-7,-9,-4,-7,-20,-4,-5
14:57:34:247572,-10,-21,-28,0,9,-7,-2,1
14:57:34:248373,-10,-21,-28,0,9,-7,-2,1
14:57:34:253901,5,10,-2,3,8,1,-8,8
14:57:34:261387,2,1,27,-7,-16,-7,4,-6
14:57:34:268921,2,1,27,-7,-16,-7,4,-6
14:57:34:276407,-19,-50,-40,-19,-12,-13,1,-9
14:57:34:292767,7,25,47,24,26,-8,4,-17
14:57:34:293542,7,25,47,24,26,-8,4,-17
14:57:34:294360,3,4,-8,-22,7,-6,-4,-6
14:57:34:307127,-1,-16,-41,-16,-30,4,-4,-12
14:57:34:307879,-1,-16,-41,-16,-30,4,-4,-12
14:57:34:313863,-10,8,18,5,9,6,3,-10
14:57:34:321341,1,1,-7,23,-3,7,-6,14
14:57:34:328970,1,1,-7,23,-3,7,-6,14
14:57:34:336381,9,-7,-12,7,-7,-10,-18,1
14:57:34:352805,-5,-14,-21,-40,7,4,8,2
14:57:34:353562,-5,-14,-21,-40,7,4,8,2
14:57:34:354348,28,19,53,13,-15,4,5,12
14:57:34:367063,-11,-2,-17,-18,0,-10,-5,-9
14:57:34:367864,-11,-2,-17,-18,0,-10,-5,-9
14:57:34:373864,12,12,-8,-1,12,-3,2,18
14:57:34:397783,-8,-1,-6,-3,-22,-9,2,-2
14:57:34:398557,-8,-1,-6,-3,-22,-9,2,-2
14:57:34:399372,-13,0,21,-5,9,13,7,-1
14:57:34:404529,-6,-5,0,39,18,8,-4,5
14:57:34:405767,-6,-5,0,39,18,8,-4,5
14:57:34:411367,-8,-8,-6,-7,11,-9,-12,-6
14:57:34:435249,18,9,10,3,-9,-2,4,4
14:57:34:436027,18,9,10,3,-9,-2,4,4
14:57:34:436820,-23,-1,-2,-16,-24,7,8,-13
14:57:34:441338,7,-15,-16,0,-8,7,6,5
14:57:34:448968,7,-15,-16,0,-8,7,6,5
14:57:34:456404,-45,7,33,23,-1,-16,-35,-33
14:57:34:464567,16,-7,-21,-21,12,6,-4,5
14:57:34:465362,16,-7,-21,-21,12,6,-4,5
14:57:34:478894,5,-12,-21,1,-7,2,9,2
14:57:34:487053,-17,8,21,5,-13,-14,-7,0
14:57:34:487866,-17,8,21,5,-13,-14,-7,0
14:57:34:493817,12,-2,-6,17,13,-27,-8,10
14:57:34:501393,-1,30,6,-9,7,-23,-20,-7
14:57:34:508902,-1,30,6,-9,7,-23,-20,-7
14:57:34:525226,4,2,-14,-8,-2,18,10,-2
14:57:34:526033,-5,-22,-1,-5,5,3,8,6
14:57:34:526919,-5,-22,-1,-5,5,3,8,6
14:57:34:531315,-3,7,1,-5,6,4,5,5
14:57:34:547088,10,-10,1,-12,-9,4,-5,-10
14:57:34:547924,10,-10,1,-12,-9,4,-5,-10
14:57:34:553810,-53,-16,-34,-25,13,11,12,8
14:57:34:569549,-13,-1,-3,26,21,12,-2,-3
14:57:34:570342,-13,-1,-3,26,21,12,-2,-3
14:57:34:576316,16,-8,-36,12,9,8,2,5
14:57:34:584588,3,3,-2,12,-13,1,-3,-13
14:57:34:585355,3,3,-2,12,-13,1,-3,-13
14:57:34:591365,10,-7,7,6,4,12,7,-3
14:57:34:607083,-1,0,-7,-23,-26,-20,-3,-1
14:57:34:607888,-1,0,-7,-23,-26,-20,-3,-1
14:57:34:613861,4,-1,-9,-4,-11,-10,-9,-3
14:57:34:629596,0,-1,-6,3,24,-3,2,8
14:57:34:630353,0,-1,-6,3,24,-3,2,8
14:57:34:636318,19,2,14,6,14,5,-4,-1
14:57:34:644613,1,-4,-4,-7,3,-10,-5,3
14:57:34:645353,1,-4,-4,-7,3,-10,-5,3
14:57:34:651338,21,17,12,-8,-6,-5,-1,9
14:57:34:675751,-14,-4,-10,-8,-32,-2,5,-13
14:57:34:676462,-14,-4,-10,-8,-32,-2,5,-13
14:57:34:677305,18,-2,-10,-14,-11,-11,-7,0
14:57:34:681385,3,9,32,11,12,3,-1,30
14:57:34:697128,3,9,32,11,12,3,-1,30
14:57:34:697912,-14,-11,-12,10,-13,-15,-16,-19
14:57:34:720245,23,-15,-5,-6,10,1,0,-11
14:57:34:721003,23,-15,-5,-6,10,1,0,-11
14:57:34:721789,-22,-1,0,-18,-14,-7,-2,-15
14:57:34:727076,-6,-1,-18,7,7,2,-3,1
14:57:34:727902,-6,-1,-18,7,7,2,-3,1
14:57:34:733885,-14,-2,-4,-13,-13,-3,5,2
14:57:34:741344,-6,-9,-3,8,-21,-7,-8,-2
14:57:34:765980,-6,-9,-3,8,-21,-7,-8,-2
14:57:34:766741,22,20,45,28,2,5,10,8
14:57:34:767522,-12,8,-11,-3,1,18,1,-7
14:57:34:768416,-12,8,-11,-3,1,18,1,-7
14:57:34:778913,-1,1,-11,-24,-7,5,3,1
14:57:34:787018,25,4,11,-9,9,-5,0,17
14:57:34:787851,25,4,11,-9,9,-5,0,17
14:57:34:801358,-4,1,12,0,10,-6,-24,13
14:57:34:809624,14,-3,-7,-3,-5,3,-4,2
14:57:34:810438,14,-3,-7,-3,-5,3,-4,2
14:57:34:816427,-4,-6,15,-3,13,-2,-14,-41
14:57:34:824558,-30,-4,-15,-4,-4,6,1,-16
14:57:34:825390,-30,-4,-15,-4,-4,6,1,-16
14:57:34:847779,7,7,-6,7,-38,5,14,15
14:57:34:848554,7,1,3,-2,-14,-15,2,-18
14:57:34:849367,7,1,3,-2,-14,-15,2,-18
14:57:34:853871,5,-5,3,0,-2,3,5,19
14:57:34:869565,31,-23,-12,10,11,-1,-1,7
14:57:34:870381,31,-23,-12,10,11,-1,-1,7
14:57:34:876335,-11,3,-4,2,15,1,5,-8
14:57:34:884570,-13,9,21,7,6,-13,-16,-17
14:57:34:885381,-13,9,21,7,6,-13,-16,-17
14:57:34:907768,4,-11,-26,-13,6,-6,-13,-7
14:57:34:908502,-17,-5,-11,-20,-30,-2,1,3
14:57:34:909321,-17,-5,-11,-20,-30,-2,1,3
14:57:34:913900,-5,0,19,14,15,9,15,7
14:57:34:929653,-5,0,19,14,15,9,15,7
14:57:34:930400,14,4,14,19,22,-4,-2,-7
14:57:34:952706,-28,-20,-20,-1,4,5,6,-2
14:57:34:953505,-28,-20,-20,-1,4,5,6,-2
14:57:34:954326,-33,11,28,18,-9,-7,7,-11
14:57:34:958864,13,16,15,17,15,9,-15,12
14:57:34:967720,13,16,15,17,15,9,-15,12
14:57:34:968563,0,12,2,-34,-50,-12,-11,14
14:57:34:973881,-27,-9,-22,-20,-9,-1,0,-8
14:57:34:990102,-27,-9,-22,-20,-9,-1,0,-8
14:57:34:990897,-5,1,-2,-2,15,2,1,4
14:57:34:996378,24,2,-8,-2,-3,3,8,5
14:57:35:4604,24,2,-8,-2,-3,3,8,5
14:57:35:5368,5,3,-8,-14,8,13,4,10
14:57:35:18902,12,2,0,-6,0,-4,6,5
14:57:35:35254,12,2,0,-6,0,-4,6,5
14:57:35:36030,-13,-5,7,15,-2,20,20,17
14:57:35:36848,2,-4,-12,-17,-21,3,16,-1
14:57:35:49625,2,-4,-12,-17,-21,3,16,-1
14:57:35:50409,-10,-9,-34,-48,-2,-15,-16,-10
14:57:35:65256,28,29,53,12,-3,-7,-10,2
14:57:35:66058,28,29,53,12,-3,-7,-10,2
14:57:35:66880,-3,0,-4,-11,10,3,-3,-1
14:57:35:79336,5,-19,-9,-5,10,-3,-3,-2
14:57:35:87138,5,-19,-9,-5,10,-3,-3,-2
14:57:35:87893,-51,-6,-6,11,-5,-5,3,-2
14:57:35:93888,1,-9,-6,-3,2,-2,-3,16
14:57:35:109627,1,-9,-6,-3,2,-2,-3,16
14:57:35:110381,-20,-2,0,10,14,-6,8,-54
14:57:35:125241,-10,1,-4,-4,2,0,-9,-40
14:57:35:126021,-10,1,-4,-4,2,0,-9,-40
14:57:35:126800,24,6,25,21,10,-10,-7,10
14:57:35:138909,8,-5,-5,-13,-10,-2,0,6
14:57:35:147064,8,-5,-5,-13,-10,-2,0,6
14:57:35:147864,18,7,-2,5,4,4,4,17
14:57:35:153881,-10,-11,-18,-1,-1,4,5,4
14:57:35:169588,-10,-11,-18,-1,-1,4,5,4
14:57:35:170439,2,16,-18,-6,-5,-4,-14,5
14:57:35:185274,-6,5,5,14,27,12,8,-18
14:57:35:186065,-6,5,5,14,27,12,8,-18
14:57:35:186836,12,-18,-16,9,13,-1,-5,12
14:57:35:198883,8,6,15,21,15,-17,-12,-20
14:57:35:207085,8,6,15,21,15,-17,-12,-20
14:57:35:207884,64,7,4,8,8,12,-4,10
14:57:35:230837,5,-9,0,0,-23,-5,-1,13
14:57:35:231669,5,-9,0,0,-23,-5,-1,13
14:57:35:232509,1,-4,30,24,11,7,10,-3
14:57:35:236352,-38,-7,-21,-24,-25,-10,-9,-4
14:57:35:245258,-38,-7,-21,-24,-25,-10,-9,-4
14:57:35:246052,8,2,0,-2,14,16,7,24
14:57:35:269032,1,4,10,29,27,-24,-17,22
14:57:35:269852,1,4,10,29,27,-24,-17,22
14:57:35:270664,-31,10,16,2,-5,10,9,-18
14:57:35:273853,27,-5,-5,-10,-16,0,-1,6
14:57:35:297736,27,-5,-5,-10,-16,0,-1,6
14:57:35:298545,24,-13,10,-8,-19,-8,-4,-6
14:57:35:299356,-21,10,-19,-32,-33,-5,-2,-23
14:57:35:312059,-21,10,-19,-32,-33,-5,-2,-23
14:57:35:312862,-17,-16,-18,-14,8,-4,-3,8
14:57:35:318874,-4,-7,-8,8,5,18,14,1
14:57:35:327171,-4,-7,-8,8,5,18,14,1
14:57:35:327878,-13,-1,16,-24,-19,7,-7,-9
14:57:35:341399,9,9,14,-1,3,13,17,31
14:57:35:357746,9,9,14,-1,3,13,17,31
14:57:35:358541,8,-20,-18,-6,14,3,3,2
14:57:35:359340,9,0,9,12,37,11,3,9
14:57:35:364578,9,0,9,12,37,11,3,9
14:57:35:365400,-35,12,-6,-9,-34,-15,0,0
14:57:35:378954,-9,-1,-6,17,-16,0,-2,-26
14:57:35:387089,-9,-1,-6,17,-16,0,-2,-26
14:57:35:387899,8,-10,-18,4,-4,-12,-12,-12
14:57:35:401433,-10,3,-3,-28,-14,10,11,-4
14:57:35:409567,-10,3,-3,-28,-14,10,11,-4
14:57:35:410389,-6,3,-19,-5,0,-35,-14,-18
14:57:35:416355,10,-9,-16,-7,13,-3,3,6
14:57:35:424630,10,-9,-16,-7,13,-3,3,6
14:57:35:425387,10,-1,12,2,8,11,7,14
14:57:35:438852,12,-6,-5,4,-29,-15,-16,2
14:57:35:447721,12,-6,-5,4,-29,-15,-16,2
14:57:35:448514,-30,0,6,-5,3,11,10,-5
14:57:35:453854,-5,3,25,3,-15,0,4,7
14:57:35:469545,-5,3,25,3,-15,0,4,7
14:57:35:470367,12,-2,9,-17,5,3,0,-4
14:57:35:476375,-2,-9,3,1,9,-2,-9,-5
14:57:35:484632,-2,-9,3,1,9,-2,-9,-5
14:57:35:485362,-15,1,-11,7,-6,-12,1,6
14:57:35:507704,-5,-9,-10,2,-17,-15,7,0
14:57:35:508524,-5,-9,-10,2,-17,-15,7,0
14:57:35:509308,12,3,-2,0,-10,10,5,5
14:57:35:513865,-14,-9,5,-12,3,4,-19,-26
14:57:35:529677,-14,-9,5,-12,3,4,-19,-26
14:57:35:530434,8,21,38,18,39,1,-3,10
14:57:35:552739,4,-3,-20,5,33,-8,-17,-14
14:57:35:553566,4,-3,-20,5,33,-8,-17,-14
14:57:35:554396,-3,-6,-5,-15,-24,1,-3,-9
14:57:35:558861,0,-7,-8,-17,2,7,8,3
14:57:35:567147,0,-7,-8,-17,2,7,8,3
14:57:35:567929,7,-8,-8,14,-3,3,7,9
14:57:35:573896,-2,13,8,-5,15,-18,-14,2
14:57:35:590069,-2,13,8,-5,15,-18,-14,2
14:57:35:590829,7,-2,1,-4,-10,-10,-14,3
14:57:35:596377,-2,4,1,3,1,-9,-24,-13
14:57:35:604597,-2,4,1,3,1,-9,-24,-13
14:57:35:605411,-22,-9,-16,-8,-3,5,7,-26
14:57:35:618826,11,-4,9,5,-14,14,14,20
14:57:35:635223,11,-4,9,5,-14,14,14,20
14:57:35:636005,2,-1,-9,-1,0,2,-7,16
14:57:35:636802,-4,0,4,-25,3,22,12,-17
14:57:35:649676,-4,0,4,-25,3,22,12,-17
14:57:35:650415,-2,-11,-14,-21,-19,7,2,-4
14:57:35:656386,-6,-5,-23,13,3,-18,4,8
14:57:35:664571,-6,-5,-23,13,3,-18,4,8
14:57:35:665340,5,3,20,18,-9,-12,-3,0
14:57:35:678938,-46,-18,-17,4,-7,3,7,4
14:57:35:687131,-46,-18,-17,4,-7,3,7,4
14:57:35:687897,10,14,8,7,10,-21,-21,-4
14:57:35:693869,21,4,3,9,-22,0,3,4
14:57:35:709603,21,4,3,9,-22,0,3,4
14:57:35:710449,-3,-12,-20,-11,25,13,-6,-9
14:57:35:716402,-5,4,-3,-20,29,12,1,-13
14:57:35:724684,-5,4,-3,-20,29,12,1,-13
14:57:35:725463,5,11,11,-4,-14,-4,4,3
14:57:35:738901,4,-2,-10,5,-1,-1,3,19
14:57:35:747111,4,-2,-10,5,-1,-1,3,19
14:57:35:747956,1,-5,-9,4,11,-4,-1,4
14:57:35:761392,-1,-1,6,-17,-12,-8,-9,8
14:57:35:785913,-1,-1,6,-17,-12,-8,-9,8
14:57:35:786765,-9,-8,-12,-2,-12,5,13,-6
14:57:35:787542,30,7,16,17,-10,-4,2,10
14:57:35:788349,30,7,16,17,-10,-4,2,10
14:57:35:791416,-7,4,9,21,23,9,-1,-5
14:57:35:798930,4,-3,-2,9,7,6,0,-6
14:57:35:807110,4,-3,-2,9,7,6,0,-6
14:57:35:807900,-2,1,3,9,42,8,-1,10
14:57:35:830278,-7,2,-3,-2,-1,6,7,-4
14:57:35:831062,-7,2,-3,-2,-1,6,7,-4
14:57:35:831897,-4,-7,-9,-15,-21,-3,5,-11
14:57:35:844551,2,19,9,7,-11,-7,-4,-11
14:57:35:845412,2,19,9,7,-11,-7,-4,-11
14:57:35:851379,5,9,25,6,9,16,16,0
14:57:35:867748,-6,-9,-8,4,-4,2,3,3
14:57:35:868535,-6,-9,-8,4,-4,2,3,3
14:57:35:869374,-25,-12,-16,4,-4,-3,-1,-7
14:57:35:881396,-7,-5,-1,-16,-13,-10,-17,-30
14:57:35:889556,-7,-5,-1,-16,-13,-10,-17,-30
14:57:35:890400,12,-6,-11,-12,-14,-4,-3,-11
14:57:35:896367,16,7,8,-21,-14,5,7,14
14:57:35:912074,16,7,8,-21,-14,5,7,14
14:57:35:912863,12,-2,8,-10,-10,-12,-23,-3
14:57:35:918924,-33,-10,-14,-24,16,-29,-19,-12
14:57:35:927098,-33,-10,-14,-24,16,-29,-19,-12
14:57:35:927837,-41,-8,-28,-2,5,-14,-14,1
14:57:35:941431,-42,-4,6,21,6,3,11,-24
14:57:35:950007,-42,-4,6,21,6,3,11,-24
14:57:35:956984,1,5,8,7,-9,4,6,8
14:57:35:957809,4,6,13,-12,-5,12,-5,11
14:57:35:963967,4,6,13,-12,-5,12,-5,11
14:57:35:971368,21,1,-15,-22,-14,-5,2,-12
14:57:35:978899,13,1,2,18,-12,12,16,-2
14:57:35:987115,13,1,2,18,-12,12,16,-2
14:57:35:987875,5,-3,-5,-10,-25,0,0,-6
14:57:36:10226,-5,-10,-12,5,12,7,0,-3
14:57:36:11002,-5,-10,-12,5,12,7,0,-3
14:57:36:11814,-14,5,4,6,6,-2,-5,7
14:57:36:16387,53,9,2,6,-10,-4,2,64
14:57:36:23925,53,9,2,6,-10,-4,2,64
14:57:36:31345,7,-7,0,30,13,2,4,-13
14:57:36:38836,-6,1,-12,-3,-5,-12,-11,5
14:57:36:71590,-6,1,-12,-3,-5,-12,-11,5
14:57:36:72359,6,-1,0,-13,19,9,4,11
14:57:36:73179,-9,-3,0,0,-18,6,11,-12
14:57:36:74014,-9,-3,0,0,-18,6,11,-12
14:57:36:77034,-8,-3,6,9,4,-6,-13,-8
14:57:36:77828,-3,0,12,7,14,5,7,-8
14:57:36:83931,-3,0,12,7,14,5,7,-8
14:57:36:109061,12,4,-8,2,1,-4,3,11
14:57:36:109798,6,0,0,3,18,10,-11,-10
14:57:36:110656,6,0,0,3,18,10,-11,-10
14:57:36:111437,-9,1,10,-8,-21,6,10,-1
14:57:36:121528,-89,-13,-18,-16,-27,-32,-16,-28
14:57:36:154106,-89,-13,-18,-16,-27,-32,-16,-28
14:57:36:154898,-25,-1,-2,-16,-18,-11,-1,-8
14:57:36:155743,57,0,3,-1,-14,-7,-9,-13
14:57:36:156518,57,0,3,-1,-14,-7,-9,-13
14:57:36:159464,-5,9,5,11,18,5,-6,9
14:57:36:160307,-4,12,4,-6,-11,-3,-2,-11
14:57:36:167161,-4,12,4,-6,-11,-3,-2,-11
14:57:36:167842,15,-13,-10,-19,-5,19,4,1
14:57:36:198433,8,-7,14,13,7,-5,-13,7
14:57:36:199223,8,-7,14,13,7,-5,-13,7
14:57:36:199995,-26,6,11,-12,-6,2,19,7
14:57:36:200813,0,-3,2,7,10,-7,-12,9
14:57:36:203959,0,-3,2,7,10,-7,-12,9
14:57:36:211362,12,-6,-5,13,6,-13,-12,-2
14:57:36:218856,3,9,7,-12,4,8,24,4
14:57:36:234626,3,9,7,-12,4,8,24,4
14:57:36:235393,-4,1,3,4,13,0,-3,-5
14:57:36:241380,-15,-9,-28,4,13,3,-6,5
14:57:36:257764,-15,-9,-28,4,13,3,-6,5
14:57:36:258543,-28,1,7,4,-18,-6,-6,7
14:57:36:259342,23,-1,-6,1,-2,-2,7,17
14:57:36:263958,23,-1,-6,1,-2,-2,7,17
14:57:36:271385,19,-10,-26,-8,-10,-10,-12,-8
14:57:36:278893,6,22,45,32,4,5,5,-4
14:57:36:287091,6,22,45,32,4,5,5,-4
14:57:36:287907,22,2,3,21,26,-9,-8,-2
14:57:36:301356,-15,-4,-20,-12,-1,4,6,-40
14:57:36:309593,-15,-4,-20,-12,-1,4,6,-40
14:57:36:310371,-7,11,23,27,-14,7,-3,-14
14:57:36:316411,7,-11,-10,-1,11,0,0,2
14:57:36:323974,7,-11,-10,-1,11,0,0,2
14:57:36:348416,-2,-2,-7,-8,6,5,-1,2
14:57:36:349242,-9,-11,-11,-18,-4,-5,-7,13
14:57:36:350043,-9,-11,-11,-18,-4,-5,-7,13
14:57:36:350908,3,-1,12,10,10,6,15,-2
14:57:36:361389,2,9,14,-5,-5,-4,1,7
14:57:36:385921,2,9,14,-5,-5,-4,1,7
14:57:36:386721,-6,-5,-38,-38,-41,-17,-21,-3
14:57:36:387497,14,-6,-12,-8,7,4,-7,-1
14:57:36:388377,14,-6,-12,-8,7,4,-7,-1
14:57:36:391379,5,-2,1,-5,-5,-13,1,-6
14:57:36:398903,-7,-8,-5,-9,-1,-6,-1,0
14:57:36:407070,-7,-8,-5,-9,-1,-6,-1,0
14:57:36:407898,-28,-3,4,4,-6,-26,-6,2
14:57:36:430716,-13,-3,-7,15,8,-3,0,-21
14:57:36:431516,-13,-3,-7,15,8,-3,0,-21
14:57:36:432345,-6,-13,-29,-17,4,21,10,14
14:57:36:436296,-12,11,34,19,2,2,-9,-7
14:57:36:443972,-12,11,34,19,2,2,-9,-7
14:57:36:451387,10,10,13,21,8,-7,0,-16
14:57:36:467789,1,-7,-30,-5,3,5,-1,-19
14:57:36:468516,1,-7,-30,-5,3,5,-1,-19
14:57:36:469360,16,-8,-1,18,27,9,-3,1
14:57:36:481407,8,2,2,-5,-16,1,9,7
14:57:36:489596,8,2,2,-5,-16,1,9,7
14:57:36:490394,1,1,-7,-11,-11,-5,-4,9
14:57:36:496361,-8,3,8,-11,-3,-7,-6,0
14:57:36:503942,-8,3,8,-11,-3,-7,-6,0
14:57:36:511363,-18,-3,-7,-35,-29,-9,-9,5
14:57:36:518832,19,4,9,-1,-29,-1,1,10
14:57:36:527490,19,4,9,-1,-29,-1,1,10
14:57:36:533872,4,-1,0,2,5,9,1,-17
14:57:36:541391,-14,-10,-13,-6,-1,-4,10,11
14:57:36:549570,-14,-10,-13,-6,-1,-4,10,11
14:57:36:550394,4,-7,-10,-2,11,4,13,5
14:57:36:556351,13,3,13,6,27,5,8,18
14:57:36:563885,13,3,13,6,27,5,8,18
14:57:36:579529,-1,6,4,-4,0,3,-15,0
14:57:36:580318,-5,-2,0,11,40,-4,-1,-8
14:57:36:587090,-5,-2,0,11,40,-4,-1,-8
14:57:36:587896,-10,-3,-2,6,-23,6,6,-8
14:57:36:610227,-4,-6,-8,3,-21,-9,-19,1
14:57:36:611019,-4,-6,-8,3,-21,-9,-19,1
14:57:36:611850,8,18,43,52,25,6,1,-2
14:57:36:624590,-4,-4,-14,-1,-2,-7,-1,0
14:57:36:625374,-4,-4,-14,-1,-2,-7,-1,0
14:57:36:631345,-4,-9,-22,-10,9,14,4,7
14:57:36:638878,-8,-1,5,11,20,12,0,0
14:57:36:647520,-8,-1,5,11,20,12,0,0
14:57:36:670895,40,2,-1,-17,-29,-12,-2,9
14:57:36:671718,17,-8,-28,-12,-19,-14,7,2
14:57:36:672499,17,-8,-28,-12,-19,-14,7,2
14:57:36:673329,-1,11,23,-21,3,0,-3,-9
14:57:36:684586,-2,4,-14,-20,-12,-5,-13,-13
14:57:36:685401,-2,4,-14,-20,-12,-5,-13,-13
14:57:36:707727,-10,-15,-16,3,11,-1,0,-8
14:57:36:708542,-10,-1,2,-2,-25,-3,-9,3
14:57:36:709346,-10,-1,2,-2,-25,-3,-9,3
14:57:36:713920,-7,-10,-12,-7,-7,-6,1,-1
14:57:36:721391,0,3,30,4,10,9,11,7
14:57:36:729615,0,3,30,4,10,9,11,7
14:57:36:730422,-5,0,7,4,2,2,1,0
14:57:36:753199,2,-10,-23,-26,-47,-9,-1,-3
14:57:36:754027,2,-10,-23,-26,-47,-9,-1,-3
14:57:36:754825,-4,-2,2,5,2,-1,-4,-4
14:57:36:758870,-3,1,-8,7,8,-5,-7,-7
14:57:36:766471,-3,1,-8,7,8,-5,-7,-7
14:57:36:773923,-3,0,7,12,-18,-23,-4,-8
14:57:36:781424,16,0,1,-18,-13,7,11,15
14:57:36:789610,16,0,1,-18,-13,7,11,15
14:57:36:790374,-4,12,20,12,13,-11,-2,-1
14:57:36:804588,6,3,10,20,-21,13,8,17
14:57:36:805419,6,3,10,20,-21,13,8,17
14:57:36:811381,-11,-3,2,0,-1,8,11,-7
14:57:36:818954,-13,-15,-11,2,11,5,-10,-14
14:57:36:826434,-13,-15,-11,2,11,5,-10,-14
14:57:36:833884,7,-4,-15,-25,0,-8,-21,14
14:57:36:841419,10,-12,-10,7,7,-5,-9,-7
14:57:36:857096,10,-12,-10,7,7,-5,-9,-7
14:57:36:857905,6,18,22,11,2,7,-2,-7
14:57:36:864562,-41,2,13,9,-12,-13,-2,-20
14:57:36:865378,-41,2,13,9,-12,-13,-2,-20
14:57:36:871362,-28,-11,-17,7,11,7,-3,-26
14:57:36:887073,6,-3,-6,-10,-16,-21,-19,-3
14:57:36:887850,6,-3,-6,-10,-16,-21,-19,-3
14:57:36:902088,23,6,10,-5,13,11,11,11
14:57:36:902857,7,9,19,18,16,4,8,5
14:57:36:909569,7,9,19,18,16,4,8,5
14:57:36:910389,-4,-13,-23,8,-23,0,7,8
14:57:36:932784,-1,16,12,-4,0,13,7,-8
14:57:36:933610,-1,16,12,-4,0,13,7,-8
14:57:36:934430,-1,-7,-8,-19,-25,-19,4,6
14:57:36:947112,0,-2,-3,2,-4,5,2,2
14:57:36:947903,0,-2,-3,2,-4,5,2,2
14:57:36:953868,13,-1,6,0,1,3,-4,6
14:57:36:961349,-12,-12,-34,-37,-7,2,11,14
14:57:36:977090,-12,-12,-34,-37,-7,2,11,14
14:57:36:977899,-12,20,50,0,14,9,13,-5
14:57:36:984971,-26,-11,-11,15,13,9,7,-9
14:57:36:992067,-26,-11,-11,15,13,9,7,-9
14:57:36:992876,7,-18,-35,-26,22,-13,-5,1
14:57:36:998814,9,-1,1,10,4,-2,-10,0
14:57:37:6446,9,-1,1,10,4,-2,-10,0
14:57:37:13866,-11,-8,-5,-4,-14,2,3,-13
14:57:37:21366,1,12,2,-7,-16,-12,-9,0
14:57:37:29622,1,12,2,-7,-16,-12,-9,0
14:57:37:30392,4,1,-7,-24,-17,-10,-1,2
14:57:37:44607,11,-1,0,1,16,1,-5,-9
14:57:37:45432,11,-1,0,1,16,1,-5,-9
14:57:37:51351,3,-13,-18,4,-8,-4,-6,1
14:57:37:58855,-10,11,16,-3,25,11,-2,6
14:57:37:66446,-10,11,16,-3,25,11,-2,6
14:57:37:73867,-11,-1,-12,-3,3,14,4,15
14:57:37:81378,-9,-10,-2,-24,-4,-7,3,-5
14:57:37:89552,-9,-10,-2,-24,-4,-7,3,-5
14:57:37:90342,-7,16,30,18,-12,4,0,-7
14:57:37:104600,-16,-10,-5,-7,0,-5,-8,-7
14:57:37:105426,-16,-10,-5,-7,0,-5,-8,-7
14:57:37:111364,0,-7,-12,-20,0,-10,-7,2
14:57:37:118894,10,-3,-4,-3,-26,-14,-7,-1
14:57:37:134593,10,-3,-4,-3,-26,-14,-7,-1
14:57:37:135390,-1,-4,-3,17,-10,-18,-5,-3
14:57:37:141352,9,10,14,11,34,10,10,0
14:57:37:149622,9,10,14,11,34,10,10,0
14:57:37:150409,6,-8,-7,-14,-22,-18,-18,-5
14:57:37:164647,5,3,2,10,-7,-10,-14,3
14:57:37:165475,5,3,2,10,-7,-10,-14,3
14:57:37:179519,-7,-11,-5,2,10,0,6,-12
14:57:37:180377,3,9,-7,-14,-21,52,10,11
14:57:37:186414,3,9,-7,-14,-21,52,10,11
14:57:37:193927,5,-3,3,4,-12,-18,-1,-14
14:57:37:210213,3,-7,-10,-7,-2,-41,16,-4
14:57:37:211036,3,-7,-10,-7,-2,-41,16,-4
14:57:37:211828,-4,5,15,9,23,-10,4,3
14:57:37:224577,7,-5,-10,7,1,-10,-2,-9
14:57:37:225402,7,-5,-10,7,1,-10,-2,-9
14:57:37:231431,-7,2,-6,-20,-1,-8,8,1
14:57:37:238922,6,0,14,12,10,-6,9,-26
14:57:37:254578,6,0,14,12,10,-6,9,-26
14:57:37:255418,-2,5,7,3,2,17,-4,1
14:57:37:261369,-4,-8,-7,-15,-21,0,3,11
14:57:37:269592,-4,-8,-7,-15,-21,0,3,11
14:57:37:270414,16,9,2,8,-10,15,2,4
14:57:37:284585,-8,-6,-4,-7,17,-2,-1,17
14:57:37:285346,-8,-6,-4,-7,17,-2,-1,17
14:57:37:299602,-3,3,-3,-1,32,-3,-7,-1
14:57:37:300392,-5,7,7,-3,9,0,-14,-29
14:57:37:306402,-5,7,7,-3,9,0,-14,-29
14:57:37:313971,-31,-1,-3,10,7,7,18,2
14:57:37:321416,-8,-12,-16,-14,-2,-3,-9,0
14:57:37:329576,-8,-12,-16,-14,-2,-3,-9,0
14:57:37:330360,21,4,-3,0,2,25,8,13
14:57:37:345080,-8,-6,-19,-9,-6,-10,-2,13
14:57:37:345879,-8,-6,-19,-9,-6,-10,-2,13
14:57:37:351388,6,-4,4,7,-11,-7,-15,-7
14:57:37:367168,-9,-1,16,16,-16,9,-2,-1
14:57:37:367921,-9,-1,16,16,-16,9,-2,-1
14:57:37:373888,6,3,-10,-33,-15,0,-4,-1
14:57:37:381381,3,8,10,16,1,-3,-3,5
14:57:37:389534,3,8,10,16,1,-3,-3,5
14:57:37:390389,-5,-10,-25,-23,-32,3,-3,-1
14:57:37:412755,0,2,6,-8,3,-2,13,-17
14:57:37:413540,0,2,6,-8,3,-2,13,-17
14:57:37:414322,2,-8,-10,-2,0,-13,-9,9
14:57:37:418874,-13,-6,-11,7,9,-4,-9,13
14:57:37:426460,-13,-6,-11,7,9,-4,-9,13
14:57:37:433875,-12,-2,-2,-1,2,17,7,-29
14:57:37:441412,3,-3,-4,-32,-7,-1,6,-5
14:57:37:450241,3,-3,-4,-32,-7,-1,6,-5
14:57:37:451052,4,5,11,12,7,1,0,6
14:57:37:464583,22,-7,-26,-3,10,-2,-2,-1
14:57:37:465415,22,-7,-26,-3,10,-2,-2,-1
14:57:37:471390,17,0,11,20,14,1,-13,0
14:57:37:478826,-12,-1,11,-7,4,-26,0,-15
14:57:37:486421,-12,-1,11,-7,4,-26,0,-15
14:57:37:493962,-16,-17,-28,-20,-28,-9,-6,1
14:57:37:501386,10,11,21,6,-12,0,-12,17
14:57:37:509560,10,11,21,6,-12,0,-12,17
14:57:37:510382,6,3,5,6,-17,-9,-7,9
14:57:37:524309,6,6,7,6,14,15,1,0
14:57:37:532138,6,6,7,6,14,15,1,0
14:57:37:532918,-5,1,19,-7,-42,-9,1,10
14:57:37:538870,-4,10,33,29,10,-4,1,-8
14:57:37:546399,-4,10,33,29,10,-4,1,-8
14:57:37:553896,-17,1,-11,-6,16,-2,-2,-17
14:57:37:561382,-8,-9,-21,4,10,2,4,6
14:57:37:577071,-8,-9,-21,4,10,2,4,6
14:57:37:577843,-4,1,-1,2,7,7,2,0
14:57:37:584532,3,2,-11,6,1,15,4,-4
14:57:37:585392,3,2,-11,6,1,15,4,-4
14:57:37:599588,-1,-7,-1,-9,1,4,-1,-7
14:57:37:600384,-7,5,9,-8,-28,-8,-2,-2
14:57:37:606414,-7,5,9,-8,-28,-8,-2,-2
14:57:37:622060,7,-4,-10,1,11,8,4,-1
14:57:37:622833,-3,-15,-2,-6,5,-10,-7,-3
14:57:37:628958,-3,-15,-2,-6,5,-10,-7,-3
14:57:37:645342,-6,11,24,31,19,7,17,-21
14:57:37:646093,10,3,-2,-5,-4,1,-7,8
14:57:37:646911,10,3,-2,-5,-4,1,-7,8
14:57:37:651410,-3,-6,-11,-10,20,1,0,8
14:57:37:667138,14,-3,-13,1,-7,7,3,-8
14:57:37:667979,14,-3,-13,1,-7,7,3,-8
14:57:37:673896,-1,-8,-10,-8,-7,-2,-13,-14
14:57:37:689600,-3,1,1,-9,21,12,3,11
14:57:37:690400,-3,1,1,-9,21,12,3,11
14:57:37:696358,11,0,-9,0,1,-5,-2,1
14:57:37:704591,6,0,-2,26,8,-5,6,6
14:57:37:705416,6,0,-2,26,8,-5,6,6
14:57:37:711375,-8,8,15,1,5,-5,-1,5
14:57:37:726857,21,-5,-4,-11,-7,2,3,4
14:57:37:734592,21,-5,-4,-11,-7,2,3,4
14:57:37:735342,-8,-4,-12,10,8,-8,0,22
14:57:37:741396,-16,-1,13,8,3,3,-2,-26
14:57:37:748975,-16,-1,13,8,3,3,-2,-26
14:57:37:765286,13,19,52,7,1,6,6,24
14:57:37:766121,-12,-11,-30,-18,-50,0,-9,-33
14:57:37:766905,-12,-11,-30,-18,-50,0,-9,-33
14:57:37:771408,-2,-8,-16,-10,-30,4,-6,-4
14:57:37:787059,0,-12,-7,-6,5,14,8,9
14:57:37:787876,0,-12,-7,-6,5,14,8,9
14:57:37:793905,3,7,6,4,18,-2,10,-8
14:57:37:809578,-3,7,3,8,-4,-4,-11,3
14:57:37:810408,-3,7,3,8,-4,-4,-11,3
14:57:37:816427,6,-13,-11,-13,-6,3,-10,2
14:57:37:824596,-1,-6,4,-6,8,-5,10,12
14:57:37:825394,-1,-6,4,-6,8,-5,10,12
14:57:37:831397,-12,-6,-6,-2,18,-1,-4,-20
14:57:37:847071,-8,-4,14,16,4,-19,-16,16
14:57:37:847898,-8,-4,14,16,4,-19,-16,16
14:57:37:853804,-11,-3,-13,2,-7,12,13,-30
14:57:37:861376,-8,17,18,-5,3,-13,11,8
14:57:37:868902,-8,17,18,-5,3,-13,11,8
14:57:37:876360,2,-9,-14,0,-27,0,-5,21
14:57:37:884559,0,-8,-18,-5,-1,-14,-25,-3
14:57:37:885396,0,-8,-18,-5,-1,-14,-25,-3
14:57:37:891412,-2,1,-6,0,15,-8,2,-19
14:57:37:915251,2,5,8,0,4,-3,0,-6
14:57:37:916095,2,5,8,0,4,-3,0,-6
14:57:37:916886,-22,-11,-12,0,6,9,3,26
14:57:37:921375,2,12,12,4,-3,13,10,-45
14:57:37:928935,2,12,12,4,-3,13,10,-45
14:57:37:945258,44,-15,-10,-12,-25,-20,4,-15
14:57:37:946008,5,2,0,4,-11,-3,0,31
14:57:37:946883,5,2,0,4,-11,-3,0,31
14:57:37:958929,-8,7,1,-2,14,-6,-4,13
14:57:37:967118,11,0,-1,-7,2,10,-1,1
14:57:37:967837,11,0,-1,-7,2,10,-1,1
14:57:37:973906,-4,0,-9,-20,-5,-9,-30,-6
14:57:37:981399,-8,-10,-16,-12,1,-3,-10,-12
14:57:37:988909,-8,-10,-16,-12,1,-3,-10,-12
14:57:38:5221,-12,12,29,-30,-19,3,-8,-17
14:57:38:6006,4,7,7,8,22,-7,-4,14
14:57:38:6830,4,7,7,8,22,-7,-4,14
14:57:38:11376,15,3,-5,12,3,-6,4,6
14:57:38:27068,-3,-9,-17,-16,-7,14,-3,23
14:57:38:27871,-3,-9,-17,-16,-7,14,-3,23
14:57:38:33888,-10,-1,-6,13,4,-6,-17,1
14:57:38:41384,19,0,-7,5,-9,5,12,-16
14:57:38:48920,19,0,-7,5,-9,5,12,-16
14:57:38:56394,19,1,10,24,7,-6,-18,-8
14:57:38:64552,-3,9,4,9,5,1,1,-10
14:57:38:65360,-3,9,4,9,5,1,1,-10
14:57:38:71362,-25,-2,-4,-4,15,-15,4,-46
14:57:38:87005,-15,-14,-14,-10,-11,-8,-4,0
14:57:38:87856,-15,-14,-14,-10,-11,-8,-4,0
14:57:38:93936,-13,7,-20,7,24,5,8,1
14:57:38:101396,15,14,26,17,9,-7,8,10
14:57:38:108921,15,14,26,17,9,-7,8,10
14:57:38:116419,12,1,12,4,18,6,6,4
14:57:38:124565,-8,-2,-3,-20,5,-1,0,-12
14:57:38:125389,-8,-2,-3,-20,5,-1,0,-12
14:57:38:131348,-7,-15,-8,-18,-30,7,15,3
14:57:38:147571,0,1,2,4,4,17,6,23
14:57:38:148383,0,1,2,4,4,17,6,23
14:57:38:153875,10,0,-2,0,2,13,5,6
14:57:38:161378,12,-16,-8,3,-1,-5,-18,-7
14:57:38:168944,12,-16,-8,3,-1,-5,-18,-7
14:57:38:176359,2,1,10,2,-15,-5,2,4
14:57:38:192728,-28,10,10,2,-8,-3,3,-23
14:57:38:193569,-28,10,10,2,-8,-3,3,-23
14:57:38:194355,11,-4,-7,-3,-30,2,1,32
14:57:38:207100,-14,-14,-18,1,0,-6,-7,-4
14:57:38:207916,-14,-14,-18,1,0,-6,-7,-4
14:57:38:213830,-16,0,5,5,-5,5,-7,12
14:57:38:221362,5,-8,-21,-10,5,2,-1,-5
14:57:38:237086,5,-8,-21,-10,5,2,-1,-5
14:57:38:237864,9,-2,8,-10,-18,-9,4,5
14:57:38:244613,-2,0,-11,2,22,1,-6,-5
14:57:38:245419,-2,0,-11,2,22,1,-6,-5
14:57:38:251382,-8,0,-5,8,7,-3,-2,-9
14:57:38:267566,-8,0,-5,8,7,-3,-2,-9
14:57:38:274484,-8,-3,-10,-6,-16,0,9,-14
14:57:38:275386,4,-2,4,14,19,6,6,11
14:57:38:289568,4,-2,4,14,19,6,6,11
14:57:38:290341,-6,-7,-5,-11,-25,-8,-14,6
14:57:38:296413,2,-1,6,-15,14,6,3,13
14:57:38:304583,2,-1,6,-15,14,6,3,13
14:57:38:305330,-6,0,2,-1,11,-6,-6,-11
14:57:38:318916,-7,14,25,13,15,0,-11,-29
14:57:38:327516,-7,14,25,13,15,0,-11,-29
14:57:38:334569,6,4,9,-7,-18,3,0,7
14:57:38:335337,-18,-9,-11,18,8,-4,-2,-4
14:57:38:349632,-18,-9,-11,18,8,-4,-2,-4
14:57:38:350398,-1,1,4,10,8,14,16,15
14:57:38:356420,7,-2,-4,1,-5,-23,-10,10
14:57:38:364558,7,-2,-4,1,-5,-23,-10,10
14:57:38:365352,-2,-1,18,15,1,6,5,-9
14:57:38:371382,-13,14,7,6,11,0,0,-3
14:57:38:387006,-13,14,7,6,11,0,0,-3
14:57:38:387831,48,-2,-15,-21,-33,-14,-7,9
14:57:38:393965,9,21,29,-1,-24,0,17,-1
14:57:38:410056,9,21,29,-1,-24,0,17,-1
14:57:38:410819,-12,-4,2,0,15,-4,-14,-11
14:57:38:416402,1,-10,-15,-4,-25,-24,-2,-2
14:57:38:424634,1,-10,-15,-4,-25,-24,-2,-2
14:57:38:425420,3,3,7,-11,11,-13,2,3
14:57:38:431417,-6,-11,-18,-5,4,-5,-13,-8
14:57:38:447156,-6,-11,-18,-5,4,-5,-13,-8
14:57:38:447919,4,-3,2,0,-1,-4,-8,-10
14:57:38:453915,5,-4,-8,-12,12,26,9,-16
14:57:38:469641,5,-4,-8,-12,12,26,9,-16
14:57:38:470421,18,-11,-4,6,-1,-1,7,20
14:57:38:476385,8,-1,-7,-5,2,11,6,1
14:57:38:484573,8,-1,-7,-5,2,11,6,1
14:57:38:485329,-10,3,-2,11,7,8,10,-1
14:57:38:491437,-1,-4,8,4,23,7,-6,-14
14:57:38:522753,-1,-4,8,4,23,7,-6,-14
14:57:38:523547,-17,-8,-9,-22,2,-4,4,0
14:57:38:524374,11,-2,4,2,-3,-3,-4,-7
14:57:38:529575,11,-2,4,2,-3,-3,-4,-7
14:57:38:530426,-5,2,20,-3,-18,-10,6,3
14:57:38:536375,3,-5,-13,1,6,-3,2,5
14:57:38:544647,3,-5,-13,1,6,-3,2,5
14:57:38:545419,-13,3,0,-4,-13,-7,-5,15
14:57:38:551363,-9,4,11,-18,-35,-14,-10,-18
14:57:38:567184,-9,4,11,-18,-35,-14,-10,-18
14:57:38:567899,10,1,-22,-20,25,9,-1,17
14:57:38:573882,-11,0,-19,-7,-31,-2,-7,-18
14:57:38:597789,-11,0,-19,-7,-31,-2,-7,-18
14:57:38:598563,9,-1,4,13,-9,-4,-5,-10
14:57:38:599423,-16,-9,2,-8,3,-7,1,-4
14:57:38:604626,-16,-9,2,-8,3,-7,1,-4
14:57:38:605405,-14,-7,-4,11,1,2,0,-14
14:57:38:618899,9,8,5,22,-19,-15,-7,29
14:57:38:627088,9,8,5,22,-19,-15,-7,29
14:57:38:627918,-4,3,4,31,39,-11,-12,-6
14:57:38:641416,-2,-8,0,18,-7,0,-4,4
14:57:38:649616,-2,-8,0,18,-7,0,-4,4
14:57:38:650429,-9,0,-7,0,-1,4,-13,-1
14:57:38:656412,-5,-4,-12,-5,1,2,-3,2
14:57:38:664612,-5,-4,-12,-5,1,2,-3,2
14:57:38:665393,-12,-8,-11,10,1,4,8,-26
14:57:38:678914,7,10,6,-11,11,11,3,19
14:57:38:687092,7,10,6,-11,11,11,3,19
14:57:38:687910,5,7,3,-6,-42,3,5,10
14:57:38:693906,3,-2,-9,-20,2,6,8,5
14:57:38:709624,3,-2,-9,-20,2,6,8,5
14:57:38:710412,31,-2,-6,-10,-1,-2,0,0
14:57:38:716386,-7,-6,-4,-11,-10,-4,-1,1
14:57:38:724601,-7,-6,-4,-11,-10,-4,-1,1
14:57:38:725418,-9,-2,13,15,-35,-16,-6,-11
14:57:38:738882,13,-10,-8,1,-7,-6,0,-7
14:57:38:747137,13,-10,-8,1,-7,-6,0,-7
14:57:38:747942,-1,3,-13,2,8,18,22,5
14:57:38:753900,-2,-2,1,2,7,6,6,-1
14:57:38:769643,-2,-2,1,2,7,6,6,-1
14:57:38:770369,-6,-1,11,1,1,-13,-2,-5
14:57:38:776402,-20,-2,-5,-6,0,-1,-2,-10
14:57:38:784615,-20,-2,-5,-6,0,-1,-2,-10
14:57:38:785401,-14,-4,-7,-22,-5,4,-3,-8
14:57:38:799465,-5,-6,-6,-4,5,-4,-4,1
14:57:38:807123,-5,-6,-6,-4,5,-4,-4,1
14:57:38:807909,-4,-5,-12,-12,-6,12,-5,5
14:57:38:813868,-3,3,9,12,-9,8,7,6
14:57:38:829584,-3,3,9,12,-9,8,7,6
14:57:38:830384,-3,3,5,5,5,3,2,-6
14:57:38:845301,3,-5,-7,12,34,6,-3,0
14:57:38:846070,3,-5,-7,12,34,6,-3,0
14:57:38:846832,-72,0,-7,-8,3,-9,-2,0
14:57:38:858907,-7,1,6,-9,-6,-14,-12,-26
14:57:38:867529,-7,1,6,-9,-6,-14,-12,-26
14:57:38:874536,3,-3,-3,3,6,-9,0,-41
14:57:38:875336,-9,-9,-4,-1,2,-4,-14,1
14:57:38:890043,-9,-9,-4,-1,2,-4,-14,1
14:57:38:890803,11,10,15,-6,1,4,-3,19
14:57:38:896396,13,6,14,12,-18,2,6,6
14:57:38:904586,13,6,14,12,-18,2,6,6
14:57:38:905388,4,-7,-6,-10,-7,-18,-11,-1
14:57:38:918898,-9,-2,-5,6,-35,-10,-3,-26
14:57:38:935223,-9,-2,-5,6,-35,-10,-3,-26
14:57:38:936044,6,-6,-12,-5,9,15,4,8
14:57:38:936870,5,2,-2,8,20,1,-12,9
14:57:38:941520,5,2,-2,8,20,1,-12,9
14:57:38:948911,16,-1,-9,-2,5,2,-2,2
14:57:38:956381,-34,9,17,16,17,7,7,-15
14:57:38:964589,-34,9,17,16,17,7,7,-15
14:57:38:965411,1,-3,10,-20,-20,-2,-3,-10
14:57:38:978878,15,-2,-10,-18,6,-5,-10,-14
14:57:38:987076,15,-2,-10,-18,6,-5,-10,-14
14:57:38:987899,11,-4,4,10,-1,15,19,8
14:57:38:993886,41,4,9,-6,12,-9,-4,15
14:57:39:1418,41,4,9,-6,12,-9,-4,15
14:57:39:8925,1,2,-2,-1,-3,-16,-21,-8
14:57:39:16404,1,-12,-4,-19,10,-1,-1,-9
14:57:39:24600,1,-12,-4,-19,10,-1,-1,-9
14:57:39:25390,-3,-1,-5,4,14,9,7,25
14:57:39:38851,-19,-11,-22,2,5,11,-5,1
14:57:39:47094,-19,-11,-22,2,5,11,-5,1
14:57:39:47908,-5,6,23,14,28,-6,0,-7
14:57:39:53892,0,-6,-1,3,-10,-15,-3,19
14:57:39:61391,0,-6,-1,3,-10,-15,-3,19
14:57:39:68805,-4,-1,4,27,24,3,-11,-6
14:57:39:76392,-1,-4,-14,-14,-17,4,10,4
14:57:39:84589,-1,-4,-14,-14,-17,4,10,4
14:57:39:85378,2,8,17,1,-16,-1,1,1
14:57:39:98938,-3,1,1,-19,-1,6,7,12
14:57:39:107051,-3,1,1,-19,-1,6,7,12
14:57:39:107910,20,3,-4,-10,-12,-14,-15,12
14:57:39:113811,4,5,4,10,24,3,7,-11
14:57:39:121401,4,5,4,10,24,3,7,-11
14:57:39:128894,-3,-6,-6,-1,-9,0,-3,3
14:57:39:136363,-6,-8,-7,-3,0,-6,-5,-4
14:57:39:145020,-6,-8,-7,-3,0,-6,-5,-4
14:57:39:151383,-37,-6,-19,-14,-7,-8,-9,-33
14:57:39:158907,-17,-10,-9,0,-9,3,1,-51
14:57:39:167153,-17,-10,-9,0,-9,3,1,-51
14:57:39:167916,13,13,30,37,1,-2,10,14
14:57:39:182159,5,5,5,19,-19,0,6,21
14:57:39:182940,5,5,5,19,-19,0,6,21
14:57:39:188866,-5,-13,-22,-8,7,-1,2,-16
14:57:39:196377,2,-1,-2,-9,-6,-6,-2,14
14:57:39:204604,2,-1,-2,-9,-6,-6,-2,14
14:57:39:205367,-1,5,6,0,3,21,27,17
14:57:39:218856,-26,-6,-12,-6,6,-3,-9,3
14:57:39:227086,-26,-6,-12,-6,6,-3,-9,3
14:57:39:227880,-18,-11,-10,-4,-22,8,-10,-2
14:57:39:233901,5,8,-1,-10,-8,5,-10,-4
14:57:39:241457,5,8,-1,-10,-8,5,-10,-4
14:57:39:248881,-3,2,-15,-8,4,-9,-10,-3
14:57:39:256356,8,-1,-4,-3,6,3,3,9
14:57:39:264557,8,-1,-4,-3,6,3,3,9
14:57:39:265389,-2,1,-1,-2,-2,-2,6,-1
14:57:39:278879,-4,6,1,19,16,-7,-7,-6
14:57:39:287112,-4,6,1,19,16,-7,-7,-6
14:57:39:287891,8,2,-8,-13,-8,-1,3,-9
14:57:39:293843,6,0,-6,-3,-28,4,-11,11
14:57:39:301419,6,0,-6,-3,-28,4,-11,11
14:57:39:308919,8,-3,9,10,21,2,-5,8
14:57:39:316429,1,-7,-14,-15,-3,-7,4,14
14:57:39:324618,1,-7,-14,-15,-3,-7,4,14
14:57:39:325399,5,3,3,3,3,-4,8,16
14:57:39:338900,2,14,17,2,7,0,13,0
14:57:39:355279,2,14,17,2,7,0,13,0
14:57:39:356070,-14,-9,-14,2,3,-14,-6,-17
14:57:39:356821,-7,-9,-8,3,-9,3,3,6
14:57:39:361410,-7,-9,-8,3,-9,3,3,6
14:57:39:368867,17,-3,16,-14,-6,-2,-11,11
14:57:39:376373,2,6,5,-5,24,4,2,-6
14:57:39:384574,2,6,5,-5,24,4,2,-6
14:57:39:385346,6,-6,-11,6,-17,-5,-7,1
14:57:39:398912,0,-5,-10,-13,5,-2,-1,-8
14:57:39:407069,0,-5,-10,-13,5,-2,-1,-8
14:57:39:407840,7,19,26,7,-3,17,21,-2
14:57:39:413868,-4,-5,1,-2,-15,-14,-7,-10
14:57:39:421682,-4,-5,1,-2,-15,-14,-7,-10
14:57:39:428875,-3,-4,-16,-4,-15,-7,-5,0
14:57:39:436356,10,7,0,-8,-6,-1,3,6
14:57:39:444563,10,7,0,-8,-6,-1,3,6
14:57:39:445336,6,6,2,-8,-12,-9,1,-3
14:57:39:458891,4,-10,3,4,-7,-5,-1,3
14:57:39:467094,4,-10,3,4,-7,-5,-1,3
14:57:39:467873,-5,-10,-13,-15,1,5,1,0
14:57:39:473880,4,4,-12,-12,8,4,-4,-7
14:57:39:481447,4,4,-12,-12,8,4,-4,-7
14:57:39:488858,10,12,13,23,23,16,7,-9
14:57:39:496406,0,3,-5,6,0,-5,-4,-9
14:57:39:504563,0,3,-5,6,0,-5,-4,-9
14:57:39:505362,4,6,9,-9,2,0,-1,6
14:57:39:519349,-6,-9,-13,2,-1,10,11,-5
14:57:39:527120,-6,-9,-13,2,-1,10,11,-5
14:57:39:527904,-1,-3,-8,-20,-9,-9,-12,30
14:57:39:542037,-46,3,5,-19,-13,5,-11,-18
14:57:39:542867,-46,3,5,-19,-13,5,-11,-18
14:57:39:548892,-3,3,-1,6,11,-5,-1,-8
14:57:39:556346,19,-1,4,32,14,0,-3,11
14:57:39:563902,19,-1,4,32,14,0,-3,11
14:57:39:571370,-13,-1,6,-1,3,5,10,-2
14:57:39:578910,-3,-7,-8,-14,-41,-22,-22,-6
14:57:39:587094,-3,-7,-8,-14,-41,-22,-22,-6
14:57:39:587878,5,-9,-1,13,29,-13,-12,1
14:57:39:602059,4,2,6,10,1,-2,7,2
14:57:39:602884,4,2,6,10,1,-2,7,2
14:57:39:608874,-5,0,9,-3,-26,-12,-19,-15
14:57:39:616388,0,-3,0,-10,-8,-3,7,6
14:57:39:632157,0,-3,0,-10,-8,-3,7,6
14:57:39:632942,-10,-7,-12,2,-1,-3,1,-17
14:57:39:638916,9,2,4,-20,20,2,1,5
14:57:39:647040,9,2,4,-20,20,2,1,5
14:57:39:647885,-7,-8,-10,-16,-4,-4,-15,-7
14:57:39:662064,12,12,32,43,-19,-1,-3,11
14:57:39:662917,12,12,32,43,-19,-1,-3,11
14:57:39:668801,0,-7,4,-4,-9,-17,0,3
14:57:39:676344,3,-4,10,7,32,13,19,9
14:57:39:683966,3,-4,10,7,32,13,19,9
14:57:39:691391,-5,-8,-3,-3,12,1,-2,-12
14:57:39:707719,-9,-8,-14,-16,-4,8,-2,-16
14:57:39:708525,-9,-8,-14,-16,-4,8,-2,-16
14:57:39:709373,-2,-1,-4,-7,9,1,4,0
14:57:39:722073,24,-3,-2,8,0,-2,17,0
14:57:39:722900,24,-3,-2,8,0,-2,17,0
14:57:39:728846,17,17,4,-16,-19,-17,-4,10
14:57:39:736368,-7,2,-11,3,14,-2,2,-7
14:57:39:743940,-7,2,-11,3,14,-2,2,-7
14:57:39:751378,-9,2,-1,14,-12,17,10,2
14:57:39:758828,3,-4,-11,-22,14,-31,-14,-4
14:57:39:767083,3,-4,-11,-22,14,-31,-14,-4
14:57:39:767878,-1,-16,-17,-2,2,-8,-8,-13
14:57:39:782069,-8,-3,7,13,14,19,4,-16
14:57:39:782890,-8,-3,7,13,14,19,4,-16
14:57:39:788886,-4,-6,-12,0,-5,-1,4,8
14:57:39:796365,0,13,11,-9,-11,-11,-7,23
14:57:39:803899,0,13,11,-9,-11,-11,-7,23
14:57:39:811346,6,1,-3,16,31,16,8,-7
14:57:39:818838,8,0,0,-13,-20,-6,-6,4
14:57:39:827081,8,0,0,-13,-20,-6,-6,4
14:57:39:827877,32,0,1,-7,-13,15,1,2
14:57:39:842107,-13,-8,-6,-14,9,11,2,-5
14:57:39:842893,-13,-8,-6,-14,9,11,2,-5
14:57:39:848893,-4,7,22,-68,-3,-8,5,-4
14:57:39:864554,-16,0,-1,-10,-12,-8,-8,-13
14:57:39:865396,-16,0,-1,-10,-12,-8,-8,-13
14:57:39:871376,-1,-18,-10,35,3,2,2,12
14:57:39:878874,-10,10,20,51,14,-13,-19,-23
14:57:39:887097,-10,10,20,51,14,-13,-19,-23
14:57:39:887890,-7,0,-7,17,-22,-13,3,0
14:57:39:902112,16,-3,-6,16,9,16,8,28
14:57:39:902954,16,-3,-6,16,9,16,8,28
14:57:39:908861,-15,-7,-21,-23,-43,-1,-6,-5
14:57:39:916371,-1,2,2,3,9,8,7,-4
14:57:39:923937,-1,2,2,3,9,8,7,-4
14:57:39:931395,-9,5,-6,5,17,0,-2,1
14:57:39:938862,-9,-1,11,0,5,-9,-5,2
14:57:39:947152,-9,-1,11,0,5,-9,-5,2
14:57:39:947922,-2,-5,-2,6,7,-3,-4,8
14:57:39:962064,13,-9,-15,0,-16,-12,-5,-3
14:57:39:962926,13,-9,-15,0,-16,-12,-5,-3
14:57:39:968842,-8,14,20,42,6,10,5,-15
14:57:39:976380,19,6,23,-24,-16,2,-12,-16
14:57:39:983963,19,6,23,-24,-16,2,-12,-16
14:57:39:991391,15,-5,-1,-20,-22,17,3,13
14:57:39:998902,-1,-8,-10,3,10,4,10,8
14:57:40:7076,-1,-8,-10,3,10,4,10,8
14:57:40:7851,-4,13,-2,-8,11,5,-6,1
14:57:40:30268,-14,-3,-16,-7,-8,4,1,-3
14:57:40:31063,-14,-3,-16,-7,-8,4,1,-3
14:57:40:31853,-1,0,-4,-1,15,-10,-3,-8
14:57:40:36371,16,4,1,-5,2,-3,8,6
14:57:40:52124,16,4,1,-5,2,-3,8,6
14:57:40:52862,-1,-14,-20,-4,1,-6,10,-6
14:57:40:58894,-8,7,6,-3,-5,-7,-29,-11
14:57:40:67083,-8,7,6,-3,-5,-7,-29,-11
14:57:40:67893,-9,7,18,7,-33,-15,-6,-12
14:57:40:82066,-13,-15,-22,-26,-26,-17,-8,9
14:57:40:82871,-13,-15,-22,-26,-26,-17,-8,9
14:57:40:88858,-17,-4,4,-3,8,-6,-15,3
14:57:40:96374,-2,-2,-7,11,21,-9,8,-7
14:57:40:103954,-2,-2,-7,11,21,-9,8,-7
14:57:40:111362,5,-11,5,-3,16,-3,-5,5
14:57:40:118818,-7,0,-3,-8,-4,9,4,13
14:57:40:127175,-7,0,-3,-8,-4,9,4,13
14:57:40:127902,19,0,8,-6,-10,3,-4,-7
14:57:40:142084,-11,2,3,-2,-11,10,7,-10
14:57:40:142872,-11,2,3,-2,-11,10,7,-10
14:57:40:148847,-14,1,-2,4,9,-9,-12,8
14:57:40:156420,10,-3,1,15,9,4,10,-3
14:57:40:172100,10,-3,1,15,9,4,10,-3
14:57:40:172862,13,3,-3,-6,2,4,-5,-1
14:57:40:178896,-6,-2,-2,0,-10,-11,11,6
14:57:40:187071,-6,-2,-2,0,-10,-11,11,6
14:57:40:187902,-1,4,37,22,18,19,4,11
14:57:40:202060,-16,-7,-3,-20,2,-15,-11,11
14:57:40:202877,-16,-7,-3,-20,2,-15,-11,11
14:57:40:208821,-14,-6,-10,-13,-11,-5,-4,-17
14:57:40:216343,-2,-4,-2,11,13,12,13,-2
14:57:40:223974,-2,-4,-2,11,13,12,13,-2
14:57:40:231391,8,5,18,-9,2,-19,-8,27
14:57:40:238880,10,-8,29,-6,8,11,-9,5
14:57:40:247094,10,-8,29,-6,8,11,-9,5
14:57:40:247885,-19,-8,-22,-2,4,-6,4,3
14:57:40:262095,-31,9,-6,4,6,2,-21,5
14:57:40:262886,-31,9,-6,4,6,2,-21,5
14:57:40:268832,-2,5,-25,4,1,9,-1,-10
14:57:40:276414,25,-11,-25,-7,-36,-7,5,4
14:57:40:283945,25,-11,-25,-7,-36,-7,5,4
14:57:40:291400,-14,-5,-5,4,4,6,15,4
14:57:40:307778,3,-3,-10,-6,16,-9,-16,-20
14:57:40:308557,3,-3,-10,-6,16,-9,-16,-20
14:57:40:309411,18,10,24,26,9,9,4,-5
14:57:40:330238,-4,2,-2,6,0,-2,-4,15
14:57:40:331061,-4,2,-2,6,0,-2,-4,15
14:57:40:331855,-11,-2,-11,-11,-11,3,5,-33
14:57:40:352835,-5,0,-1,1,-9,-12,-7,-19
14:57:40:353561,-5,0,-1,1,-9,-12,-7,-19
14:57:40:354400,-1,1,9,7,10,13,5,6
14:57:40:358875,14,-3,-9,13,6,0,13,7
14:57:40:367137,14,-3,-9,13,6,0,13,7
14:57:40:367932,-17,1,2,-4,-18,-19,-10,-9
14:57:40:382107,-1,-3,13,-3,-44,-1,2,-7
14:57:40:382921,-1,-3,13,-3,-44,-1,2,-7
14:57:40:388851,11,-4,-7,-13,-15,-4,-11,-3
14:57:40:404609,-8,1,5,-7,0,15,2,0
14:57:40:405401,-8,1,5,-7,0,15,2,0
14:57:40:411348,4,-15,-20,11,-11,-15,-3,14
14:57:40:418860,-3,-5,-2,3,15,9,1,-8
14:57:40:427170,-3,-5,-2,3,15,9,1,-8
14:57:40:427932,8,4,6,-5,3,10,9,-1
14:57:40:442741,8,7,4,-4,0,-4,9,26
14:57:40:443564,8,7,4,-4,0,-4,9,26
14:57:40:448842,2,2,-13,-3,-6,-6,12,-6
14:57:40:456361,-4,-5,2,-5,0,5,-8,-7
14:57:40:463933,-4,-5,2,-5,0,5,-8,-7
14:57:40:471371,10,-3,5,-6,-14,-24,-18,-7
14:57:40:478922,8,8,1,-5,-23,-5,10,4
14:57:40:486347,8,8,1,-5,-23,-5,10,4
14:57:40:493857,9,-15,-19,-9,20,12,14,-2
14:57:40:502039,-17,-6,0,-3,2,-20,-21,-10
14:57:40:502866,-17,-6,0,-3,2,-20,-21,-10
14:57:40:508830,-6,-2,4,6,-1,0,11,16
14:57:40:524619,-5,2,11,22,-9,17,12,-10
14:57:40:525384,-5,2,11,22,-9,17,12,-10
14:57:40:531398,-2,8,7,3,15,5,-12,-1
14:57:40:538924,9,-3,-18,2,27,-3,-10,5
14:57:40:546439,9,-3,-18,2,27,-3,-10,5
14:57:40:553867,-4,14,13,-4,4,-4,-10,11
14:57:40:562071,8,-6,-5,4,35,9,15,-7
14:57:40:562890,8,-6,-5,4,35,9,15,-7
14:57:40:568844,8,-11,-13,-8,-13,-4,11,-3
14:57:40:584561,3,-9,-4,-10,-13,5,8,-20
14:57:40:585369,3,-9,-4,-10,-13,5,8,-20
14:57:40:591427,13,9,6,3,2,-43,-5,-2
14:57:40:607062,1,15,8,5,-3,-18,5,-4
14:57:40:607861,1,15,8,5,-3,-18,5,-4
14:57:40:613881,-17,-1,17,-12,-15,14,-15,-19
14:57:40:622060,-11,-1,-1,-16,7,15,-14,-1
14:57:40:622890,-11,-1,-1,-16,7,15,-14,-1
14:57:40:628875,-3,-12,-21,-11,-38,20,-18,15
14:57:40:644548,-2,-3,-6,2,0,28,9,14
14:57:40:645376,-2,-3,-6,2,0,28,9,14
14:57:40:659576,-10,-9,-10,-3,18,6,-9,-4
14:57:40:660399,2,-9,-7,1,-6,-4,-13,15
14:57:40:666464,2,-9,-7,1,-6,-4,-13,15
14:57:40:673882,-4,-6,-3,-5,24,22,25,18
14:57:40:682066,-11,1,19,11,28,-9,-8,-36
14:57:40:682894,-11,1,19,11,28,-9,-8,-36
14:57:40:688825,0,7,9,-2,-3,-22,-20,-10
14:57:40:704585,-55,-8,-21,-7,-1,-1,-9,-11
14:57:40:705403,-55,-8,-21,-7,-1,-1,-9,-11
14:57:40:711398,3,-3,-6,6,-1,-1,1,-3
14:57:40:718863,52,1,-8,-14,-19,-21,-22,28
14:57:40:734619,52,1,-8,-14,-19,-21,-22,28
14:57:40:735396,-21,7,-9,13,15,-3,-19,-41
14:57:40:742049,-4,6,10,-9,-14,-20,-7,-21
14:57:40:742871,-4,6,10,-9,-14,-20,-7,-21
14:57:40:748865,9,-5,13,11,3,-3,-6,1
14:57:40:764983,7,-4,17,14,-11,9,1,16
14:57:40:772019,7,-4,17,14,-11,9,1,16
14:57:40:772804,-3,7,1,-7,3,12,13,2
14:57:40:778880,-2,-4,2,5,-5,-10,2,4
14:57:40:786361,-2,-4,2,5,-5,-10,2,4
14:57:40:793860,-10,-4,-4,0,-3,2,-10,0
14:57:40:802035,0,-9,-18,1,1,16,20,6
14:57:40:802869,0,-9,-18,1,1,16,20,6
14:57:40:808832,-14,-7,-6,-16,-15,-2,6,-18
14:57:40:824569,-1,-1,-11,-11,-11,-17,8,-23
14:57:40:825383,-1,-1,-11,-11,-11,-17,8,-23
14:57:40:831388,6,-2,3,-8,-7,1,1,7
14:57:40:847072,-10,-7,-21,-9,9,5,1,-10
14:57:40:847867,-10,-7,-21,-9,9,5,1,-10
14:57:40:853877,3,7,-8,-29,11,14,-5,2
14:57:40:862046,-10,-7,-12,1,-2,-23,-18,-2
14:57:40:862858,-10,-7,-12,1,-2,-23,-18,-2
14:57:40:868878,7,-18,-20,0,3,1,12,-8
14:57:40:885031,5,20,19,-14,-21,10,-4,11
14:57:40:885823,5,20,19,-14,-21,10,-4,11
14:57:40:891388,0,1,3,2,7,-6,4,-3
14:57:40:898904,-1,-7,-9,-2,-22,-12,-4,-3
14:57:40:906441,-1,-7,-9,-2,-22,-12,-4,-3
14:57:40:913854,5,1,6,-5,9,-3,2,13
14:57:40:922437,-2,6,22,4,6,3,6,14
14:57:40:929581,-2,6,22,4,6,3,6,14
14:57:40:930381,-11,1,-4,21,-1,7,6,-1
14:57:40:944574,15,3,11,-20,2,-6,-4,-6
14:57:40:945427,15,3,11,-20,2,-6,-4,-6
14:57:40:951381,15,1,4,-2,-18,1,-7,5
14:57:40:958871,1,-1,-11,4,-18,-8,11,-16
14:57:40:966438,1,-1,-11,4,-18,-8,11,-16
14:57:40:973838,8,-7,2,5,-2,-2,19,29
14:57:40:982069,-2,-8,1,28,19,-1,-3,-3
14:57:40:982894,-2,-8,1,28,19,-1,-3,-3
14:57:40:988834,10,1,2,19,-10,-10,-1,14
14:57:41:4559,2,7,10,-13,-30,7,-1,8
14:57:41:5349,2,7,10,-13,-30,7,-1,8
14:57:41:11409,-36,-2,0,-2,10,8,6,-2
14:57:41:18828,0,-11,-15,-1,36,5,-7,6
14:57:41:26455,0,-11,-15,-1,36,5,-7,6
14:57:41:33894,-3,-1,-7,-35,0,4,-13,-20
14:57:41:42124,2,4,11,4,15,-32,-16,2
14:57:41:42908,2,4,11,4,15,-32,-16,2
14:57:41:48870,-2,-6,-22,-9,-24,-20,2,10
14:57:41:64608,-5,5,5,11,-3,18,8,-1
14:57:41:65388,-5,5,5,11,-3,18,8,-1
14:57:41:71415,8,-6,-8,5,-26,-15,-21,3
14:57:41:78874,1,-2,-17,-13,-30,-19,-4,9
14:57:41:86432,1,-2,-17,-13,-30,-19,-4,9
14:57:41:93903,-5,7,9,1,-9,11,-3,-9
14:57:41:102012,-4,-2,11,10,-4,19,9,0
14:57:41:102864,-4,-2,11,10,-4,19,9,0
14:57:41:108874,15,7,2,15,1,-18,-8,-2
14:57:41:124609,0,7,10,-1,21,4,3,-15
14:57:41:125412,0,7,10,-1,21,4,3,-15
14:57:41:131398,-25,-9,-5,11,2,-6,-3,-23
14:57:41:138863,-10,-14,-20,-10,21,-3,-6,2
14:57:41:146434,-10,-14,-20,-10,21,-3,-6,2
14:57:41:153885,4,0,-6,6,-19,13,-5,-9
14:57:41:162042,4,2,-19,-39,5,2,5,6
14:57:41:162835,4,2,-19,-39,5,2,5,6
14:57:41:168884,-8,-4,4,-20,-17,1,7,-2
14:57:41:184558,6,-4,2,13,-6,-1,-1,-11
14:57:41:185383,6,-4,2,13,-6,-1,-1,-11
14:57:41:191460,0,13,13,-17,-17,-10,-11,-25
14:57:41:207104,-6,-11,-19,-18,-7,6,-1,-4
14:57:41:207919,-6,-11,-19,-18,-7,6,-1,-4
14:57:41:213832,9,0,21,12,9,8,14,23
14:57:41:222049,-8,-2,-13,1,-22,7,-3,4
14:57:41:222830,-8,-2,-13,1,-22,7,-3,4
14:57:41:228892,-6,-5,-2,-19,2,-11,-1,-4
14:57:41:244615,-10,2,-2,8,15,-6,-2,-10
14:57:41:245398,-10,2,-2,8,15,-6,-2,-10
14:57:41:251386,19,4,-9,16,20,3,-5,1
14:57:41:258903,-4,-3,15,17,-1,1,4,14
14:57:41:266413,-4,-3,15,17,-1,1,4,14
14:57:41:273905,-2,7,6,-10,23,9,0,2
14:57:41:282049,11,3,3,-7,-20,1,2,3
14:57:41:282897,11,3,3,-7,-20,1,2,3
14:57:41:288830,-3,-9,-21,-9,11,-7,6,10
14:57:41:304548,2,3,1,-13,-22,7,0,7
14:57:41:305395,2,3,1,-13,-22,7,0,7
14:57:41:311391,3,1,2,25,23,-3,-8,-1
14:57:41:327122,-7,-12,7,7,20,4,-1,3
14:57:41:327910,-7,-12,7,7,20,4,-1,3
14:57:41:333868,1,-1,-2,-2,-4,2,2,6
14:57:41:342072,-2,15,35,13,-7,4,1,0
14:57:41:342871,-2,15,35,13,-7,4,1,0
14:57:41:348853,-15,-8,-3,-4,-5,4,0,-4
14:57:41:364646,-7,0,1,-1,-8,0,-1,-6
14:57:41:365387,-7,0,1,-1,-8,0,-1,-6
14:57:41:371404,34,7,12,19,1,-3,18,10
14:57:41:378860,-25,-5,-14,1,13,-6,-7,-3
14:57:41:386379,-25,-5,-14,1,13,-6,-7,-3
14:57:41:402711,-11,-8,-6,-3,-8,3,-7,3
14:57:41:403580,-8,2,2,-34,-2,1,4,-7
14:57:41:404398,-8,2,2,-34,-2,1,4,-7
14:57:41:416426,-2,-9,-4,4,0,1,5,9
14:57:41:424580,-7,8,11,32,9,17,-8,4
14:57:41:425403,-7,8,11,32,9,17,-8,4
14:57:41:431388,0,10,4,-3,10,-2,-6,-18
14:57:41:447110,6,-6,-14,-12,11,-9,-12,-2
14:57:41:447904,6,-6,-14,-12,11,-9,-12,-2
14:57:41:453860,0,1,1,4,8,1,1,6
14:57:41:462689,8,-3,-7,7,5,-3,4,1
14:57:41:463524,8,-3,-7,7,5,-3,4,1
14:57:41:485195,-9,-2,6,2,-6,-5,9,-2
14:57:41:486012,27,-3,2,-5,1,-7,-4,-2
14:57:41:486798,27,-3,2,-5,1,-7,-4,-2
14:57:41:491408,-13,-3,-19,-18,-11,6,-7,2
14:57:41:507503,10,7,-5,0,19,9,5,14
14:57:41:514531,10,7,-5,0,19,9,5,14
14:57:41:515432,-6,-10,-6,13,-7,0,5,-19
14:57:41:522035,4,2,-5,-5,-30,-9,-4,-9
14:57:41:522855,4,2,-5,-5,-30,-9,-4,-9
14:57:41:536392,-33,-1,1,-12,5,-3,-2,5
14:57:41:544574,-11,-7,-10,-5,-6,-16,-15,-15
14:57:41:545371,-11,-7,-10,-5,-6,-16,-15,-15
14:57:41:551400,-1,-5,-5,-12,-17,-25,-27,-15
14:57:41:567046,4,4,13,5,-22,7,21,14
14:57:41:567867,4,4,13,5,-22,7,21,14
14:57:41:573927,22,1,3,5,13,6,9,3
14:57:41:582075,22,1,3,5,13,6,9,3
14:57:41:582893,15,4,-3,1,-1,-4,4,2
14:57:41:596429,2,-3,-11,-20,-11,4,-3,-12
14:57:41:604555,2,-3,-11,-20,-11,4,-3,-12
14:57:41:605438,0,-5,3,4,8,0,-4,-7
14:57:41:611376,-5,0,2,11,18,0,-4,7
14:57:41:627167,-5,0,2,11,18,0,-4,7
14:57:41:627898,-7,2,14,14,-2,3,-1,-14
14:57:41:633928,11,7,7,-14,-13,-7,-11,-2
14:57:41:642040,11,7,7,-14,-13,-7,-11,-2
14:57:41:642875,-7,-8,-10,-3,19,-3,-2,3
14:57:41:656434,1,-2,-5,3,10,2,-1,-40
14:57:41:664608,1,-2,-5,3,10,2,-1,-40
14:57:41:665381,-13,-6,-4,-8,-80,-21,-11,-28
14:57:41:671377,-12,-1,18,14,20,8,17,9
14:57:41:687066,-12,-1,18,14,20,8,17,9
14:57:41:687890,-4,-7,-21,-10,48,4,-7,6
14:57:41:693911,-1,-2,-23,-16,22,-3,1,4
14:57:41:702080,-1,-2,-23,-16,22,-3,1,4
14:57:41:702901,1,10,16,23,38,9,11,2
14:57:41:716481,1,-3,0,25,-10,2,2,8
14:57:41:732772,1,-3,0,25,-10,2,2,8
14:57:41:733576,1,-10,-29,-32,-10,-15,5,5
14:57:41:734399,15,12,28,3,-9,-7,-4,17
14:57:41:747097,15,12,28,3,-9,-7,-4,17
14:57:41:747860,4,-4,-11,-12,-10,11,7,2
14:57:41:762712,6,-6,-11,-6,0,-5,-12,21
14:57:41:763494,6,-6,-11,-6,0,-5,-12,21
14:57:41:764367,-4,-1,6,3,15,0,4,1
14:57:41:776403,3,4,7,6,13,18,-1,-3
14:57:41:784627,3,4,7,6,13,18,-1,-3
14:57:41:785382,2,11,0,-2,-21,-9,-4,9
14:57:41:791391,-16,0,1,2,22,12,-3,-14
14:57:41:807119,-16,0,1,2,22,12,-3,-14
14:57:41:807915,-4,-2,2,-18,16,12,-5,-4
14:57:41:813853,1,-14,-13,-6,-12,-15,1,-4
14:57:41:822045,1,-14,-13,-6,-12,-15,1,-4
14:57:41:822870,-5,-4,-7,-10,-15,-16,-15,-11
14:57:41:836416,-1,-3,-12,-12,-5,-4,6,-16
14:57:41:844664,-1,-3,-12,-12,-5,-4,6,-16
14:57:41:845430,5,2,10,5,3,-4,-11,9
14:57:41:851404,1,1,-3,-7,-44,-19,-7,8
14:57:41:867179,1,1,-3,-7,-44,-19,-7,8
14:57:41:867958,-6,-4,2,15,22,6,5,3
14:57:41:873895,3,-2,6,9,-4,-10,-2,24
14:57:41:882133,3,-2,6,9,-4,-10,-2,24
14:57:41:882955,-1,-7,-6,-3,-18,-9,3,-12
14:57:41:896429,-7,1,-2,4,-8,9,-1,-36
14:57:41:904624,-7,1,-2,4,-8,9,-1,-36
14:57:41:905407,-3,-1,2,-10,-47,0,1,3
14:57:41:911372,-1,3,18,38,11,-2,11,10
14:57:41:927092,-1,3,18,38,11,-2,11,10
14:57:41:927927,2,9,15,27,3,3,-5,-6
14:57:41:933883,-8,-4,-7,-37,-14,8,2,-10
14:57:41:942124,-8,-4,-7,-37,-14,8,2,-10
14:57:41:942897,-4,-4,-9,-3,6,4,-6,-3
14:57:41:956412,8,1,8,10,20,1,3,-4
14:57:41:964609,8,1,8,10,20,1,3,-4
14:57:41:965410,-10,2,5,5,16,-11,2,-5
14:57:41:971444,-6,-12,-14,-22,-35,-9,-7,-4
14:57:41:987050,-6,-12,-14,-22,-35,-9,-7,-4
14:57:41:987870,22,15,32,54,8,-3,4,3
14:57:41:993890,11,0,-12,-20,28,6,0,20
14:57:42:2094,11,0,-12,-20,28,6,0,20
14:57:42:2881,-14,-14,-12,-27,-10,1,-5,-11
14:57:42:16426,-2,3,7,9,22,-4,1,-33
14:57:42:24597,-2,3,7,9,22,-4,1,-33
14:57:42:25386,-6,-2,-5,7,-5,12,12,-3
14:57:42:38912,4,5,-13,0,-15,5,-6,14
14:57:42:47064,4,5,-13,0,-15,5,-6,14
14:57:42:47848,-14,-5,-9,-5,-2,0,-8,-8
14:57:42:53831,3,-3,-5,-10,9,-4,-13,-45
14:57:42:62061,3,-3,-5,-10,9,-4,-13,-45
14:57:42:62892,-5,-12,-12,-11,-10,-19,9,4
14:57:42:76430,-4,4,6,-7,-15,-17,-6,14
14:57:42:84575,-4,4,6,-7,-15,-17,-6,14
14:57:42:85354,4,-2,5,-11,0,6,-12,-6
14:57:42:91415,-1,-1,-10,-17,-33,2,4,2
14:57:42:107039,-1,-1,-10,-17,-33,2,4,2
14:57:42:107869,7,3,-17,-11,-12,4,-8,2
14:57:42:113882,-8,-5,-4,6,-2,13,7,10
14:57:42:122048,-8,-5,-4,6,-2,13,7,10
14:57:42:122838,7,0,10,-6,17,15,18,11
14:57:42:136404,-10,-3,6,-10,4,-4,-12,1
14:57:42:144643,-10,-3,6,-10,4,-4,-12,1
14:57:42:145404,4,4,9,13,17,6,5,10
14:57:42:151382,9,3,-11,6,10,10,5,6
14:57:42:167116,9,3,-11,6,10,10,5,6
14:57:42:167869,-5,2,21,16,11,-4,1,4
14:57:42:173889,-3,-1,5,35,18,15,17,-7
14:57:42:182056,-3,-1,5,35,18,15,17,-7
14:57:42:182864,3,-10,-18,-10,-21,-6,1,-6
14:57:42:196423,-41,-4,8,-5,14,2,11,-4
14:57:42:204541,-41,-4,8,-5,14,2,11,-4
14:57:42:205428,3,-1,5,19,-8,-5,3,-7
14:57:42:211368,12,-3,-11,-14,-8,-5,-18,-4
14:57:42:227086,12,-3,-11,-14,-8,-5,-18,-4
14:57:42:227861,15,-1,-5,1,10,-3,2,16
14:57:42:233869,0,0,9,8,-10,-6,-12,-25
14:57:42:241392,0,0,9,8,-10,-6,-12,-25
14:57:42:248915,-2,5,-1,2,-18,-22,-17,6
14:57:42:256393,9,-4,-19,-14,6,-4,2,10
14:57:42:264541,9,-4,-19,-14,6,-4,2,10
14:57:42:265376,-6,-6,-27,-8,47,9,5,-6
14:57:42:271397,-4,0,4,5,-17,-6,-9,18
14:57:42:287051,-4,0,4,5,-17,-6,-9,18
14:57:42:287851,-1,0,-2,-4,-8,2,5,-1
14:57:42:293857,1,-1,5,-5,2,15,24,1
14:57:42:302060,1,-1,5,-5,2,15,24,1
14:57:42:302829,-8,2,-9,-11,7,-20,-22,-9
14:57:42:316856,24,3,2,0,-5,4,0,16
14:57:42:324549,24,3,2,0,-5,4,0,16
14:57:42:325408,-25,-11,-7,-21,-7,-17,-19,-19
14:57:42:331409,-29,0,-1,-7,-11,-8,6,6
14:57:42:347073,-29,0,-1,-7,-11,-8,6,6
14:57:42:347845,-7,-1,4,-18,-5,25,32,-13
14:57:42:362075,2,-3,0,21,12,8,-13,-3
14:57:42:362917,2,-3,0,21,12,8,-13,-3
14:57:42:368847,4,3,2,15,-7,2,2,3
14:57:42:376395,6,6,7,6,12,-12,-5,1
14:57:42:384543,6,6,7,6,12,-12,-5,1
14:57:42:385349,5,3,-1,3,26,4,3,8
14:57:42:398868,-5,-9,-14,14,-6,-8,-22,-7
14:57:42:407123,-5,-9,-14,14,-6,-8,-22,-7
14:57:42:407933,-15,-2,4,-11,-26,-3,-7,3
14:57:42:413864,5,-9,-13,-21,-4,-1,1,-6
14:57:42:421411,5,-9,-13,-21,-4,-1,1,-6
14:57:42:428884,0,-1,11,5,-24,-1,8,-7
14:57:42:436369,-4,-3,-3,-15,-12,-4,17,10
14:57:42:444542,-4,-3,-3,-15,-12,-4,17,10
14:57:42:445370,-6,5,-10,1,11,1,-9,-3
14:57:42:458870,4,-3,5,-4,1,-10,-13,-9
14:57:42:467071,4,-3,5,-4,1,-10,-13,-9
14:57:42:467822,27,0,-1,4,18,3,-1,21
14:57:42:482028,-6,-2,-9,-7,-20,-2,-6,-19
14:57:42:482827,-6,-2,-9,-7,-20,-2,-6,-19
14:57:42:488912,4,-12,-4,-18,9,15,16,-15
14:57:42:496436,7,8,-1,-22,-5,7,3,-3
14:57:42:504559,7,8,-1,-22,-5,7,3,-3
14:57:42:505406,-29,4,3,9,18,-10,-3,-10
14:57:42:518920,-2,-2,-6,2,0,4,3,1
14:57:42:527069,-2,-2,-6,2,0,4,3,1
14:57:42:527879,6,-3,3,2,-12,0,-10,-2
14:57:42:533877,-3,-6,1,4,8,-6,-21,-1
14:57:42:541468,-3,-6,1,4,8,-6,-21,-1
14:57:42:548930,-19,-3,2,-4,-14,-6,-6,-3
14:57:42:556404,2,0,3,10,20,-6,17,-14
14:57:42:564608,2,0,3,10,20,-6,17,-14
14:57:42:565396,10,2,7,17,29,25,-6,1
14:57:42:578890,9,9,14,4,4,2,4,15
14:57:42:595274,9,9,14,4,4,2,4,15
14:57:42:596059,2,-3,-11,15,-33,-14,-15,1
14:57:42:596848,2,4,3,26,-12,-12,-13,15
14:57:42:601372,2,4,3,26,-12,-12,-13,15
14:57:42:608910,6,6,1,8,-12,1,3,14
14:57:42:616427,-5,-3,-3,2,-4,-5,-1,2
14:57:42:624593,-5,-3,-3,2,-4,-5,-1,2
14:57:42:625384,38,-2,1,-4,1,-11,-2,10
14:57:42:639377,-5,-3,8,-1,1,12,13,-6
14:57:42:647083,-5,-3,8,-1,1,12,13,-6
14:57:42:647884,5,4,3,-3,8,-2,0,-11
14:57:42:653891,2,-5,2,-1,10,4,4,12
14:57:42:661375,2,-5,2,-1,10,4,4,12
14:57:42:668893,-10,5,-14,-9,-13,1,-10,4
14:57:42:676417,-18,0,0,-27,-89,-29,-18,-34
14:57:42:684575,-18,0,0,-27,-89,-29,-18,-34
14:57:42:685377,-6,3,-8,-17,-8,5,3,-3
14:57:42:698938,1,-4,-13,-12,28,4,-13,3
14:57:42:707118,1,-4,-13,-12,28,4,-13,3
14:57:42:707874,-8,-5,-2,-15,-3,-8,5,-6
14:57:42:713893,3,-7,4,12,-10,-5,11,18
14:57:42:721421,3,-7,4,12,-10,-5,11,18
14:57:42:728871,-8,-2,10,14,15,13,4,1
14:57:42:736394,-47,-2,-2,-1,2,6,8,11
14:57:42:744631,-47,-2,-2,-1,2,6,8,11
14:57:42:745414,-18,-11,-3,3,-11,2,1,-11
14:57:42:758882,17,12,33,32,35,4,9,3
14:57:42:767138,17,12,33,32,35,4,9,3
14:57:42:767887,-8,5,7,-10,-19,-7,-6,-19
14:57:42:773877,9,0,1,16,42,13,13,4
14:57:42:781458,9,0,1,16,42,13,13,4
14:57:42:788910,14,-5,-7,0,-6,-12,3,13
14:57:42:796459,3,-7,-10,-7,2,2,-9,-21
14:57:42:804601,3,-7,-10,-7,2,2,-9,-21
14:57:42:805394,-5,-5,-2,6,19,-3,-4,1
14:57:42:818934,-31,-12,-13,-4,-10,0,-3,1
14:57:42:827128,-31,-12,-13,-4,-10,0,-3,1
14:57:42:827902,3,5,0,-9,-4,-3,2,2
14:57:42:833869,8,-1,-6,3,-13,-10,-11,-15
14:57:42:841465,8,-1,-6,3,-13,-10,-11,-15
14:57:42:848896,34,1,3,-4,0,-3,-13,15
14:57:42:856429,5,2,4,-11,-1,-4,12,15
14:57:42:872115,5,2,4,-11,-1,-4,12,15
14:57:42:872889,-28,4,1,-12,7,2,0,-4
14:57:42:878891,0,-1,-1,-11,4,-9,-4,-3
14:57:42:887014,0,-1,-1,-11,4,-9,-4,-3
14:57:42:887832,4,-10,1,-6,-14,-5,3,4
14:57:42:893881,26,6,4,-2,-11,2,-2,19
14:57:42:901383,26,6,4,-2,-11,2,-2,19
14:57:42:908804,-7,-2,-8,-5,-10,-6,1,-14
14:57:42:916409,17,-13,-12,19,29,1,-6,-8
14:57:42:924571,17,-13,-12,19,29,1,-6,-8
14:57:42:925377,-39,-5,-3,1,12,-16,-17,-27
14:57:42:938865,8,-4,-9,-13,-22,1,7,0
14:57:42:947079,8,-4,-9,-13,-22,1,7,0
14:57:42:947868,-16,4,15,2,23,-6,-13,11
14:57:42:953844,-27,-2,-4,-12,-7,-5,-13,-7
14:57:42:961357,-27,-2,-4,-12,-7,-5,-13,-7
14:57:42:968853,20,11,22,26,0,14,18,-14
14:57:42:976419,0,2,5,1,-3,16,2,15
14:57:42:984590,0,2,5,1,-3,16,2,15
14:57:42:985358,20,-9,-18,8,1,5,18,0
14:57:42:998849,-4,1,-2,3,-6,-17,-14,-10
14:57:43:7099,-4,1,-2,3,-6,-17,-14,-10
14:57:43:7861,-7,2,-3,-4,13,24,5,-25
14:57:43:13820,-14,-3,-8,-10,-6,-16,1,-10
14:57:43:21417,-14,-3,-8,-10,-6,-16,1,-10
14:57:43:28841,-4,-5,-9,-9,-13,1,1,-3
14:57:43:36366,41,5,-14,-3,8,10,-1,3
14:57:43:44618,41,5,-14,-3,8,10,-1,3
14:57:43:45420,0,3,-2,10,29,19,10,0
14:57:43:68463,-2,0,12,27,-25,-5,1,-17
14:57:43:69253,-2,0,12,27,-25,-5,1,-17
14:57:43:70034,1,-3,-6,-44,-25,-18,-21,5
14:57:43:73845,-9,-4,-8,-9,15,8,1,8
14:57:43:81420,-9,-4,-8,-9,15,8,1,8
14:57:43:88838,0,-4,4,14,-2,-8,2,4
14:57:43:96371,-8,-2,-3,-10,-3,1,-4,-21
14:57:43:104589,-8,-2,-3,-10,-3,1,-4,-21
14:57:43:105418,12,3,2,-2,-17,4,2,1
14:57:43:118833,-31,-3,-2,9,-8,4,-4,-20
14:57:43:127075,-31,-3,-2,9,-8,4,-4,-20
14:57:43:127885,-10,1,15,1,5,-5,-3,15
14:57:43:133846,7,5,12,-2,17,7,4,1
14:57:43:141435,7,5,12,-2,17,7,4,1
14:57:43:148861,-1,-17,-39,-6,-3,-7,-11,14
14:57:43:156433,-1,-4,-7,-13,2,-6,-5,-5
14:57:43:164596,-1,-4,-7,-13,2,-6,-5,-5
14:57:43:165376,1,-5,7,5,3,-17,-3,1
14:57:43:178876,-1,-15,-26,-3,-46,-4,5,14
14:57:43:195300,-1,-15,-26,-3,-46,-4,5,14
14:57:43:196061,-1,4,4,8,3,-1,2,-19
14:57:43:196827,2,-4,-1,-1,11,-6,-13,3
14:57:43:201444,2,-4,-1,-1,11,-6,-13,3
14:57:43:208862,5,5,4,7,8,15,4,12
14:57:43:216398,3,3,3,-6,7,-23,-10,21
14:57:43:224671,3,3,3,-6,7,-23,-10,21
14:57:43:225445,-42,1,-1,5,2,-5,5,-16
14:57:43:238911,7,6,5,3,26,16,8,8
14:57:43:247110,7,6,5,3,26,16,8,8
14:57:43:247909,8,3,-6,-4,0,6,-7,11
14:57:43:253873,-14,7,5,-9,-29,-7,-1,3
14:57:43:261411,-14,7,5,-9,-29,-7,-1,3
14:57:43:268847,-4,-11,-4,7,19,23,6,-15
14:57:43:276432,2,-5,-4,27,39,9,-2,3
14:57:43:284569,2,-5,-4,27,39,9,-2,3
14:57:43:285387,13,10,3,34,-8,-3,1,6
14:57:43:298872,-1,0,14,14,-11,-12,-6,-10
14:57:43:307112,-1,0,14,14,-11,-12,-6,-10
14:57:43:307898,-23,-1,-7,-8,8,0,-11,14
14:57:43:322061,-10,-2,-8,-12,-27,-15,18,-20
14:57:43:322891,-10,-2,-8,-12,-27,-15,18,-20
14:57:43:328903,20,-4,2,-23,-11,-2,6,4
14:57:43:336445,-7,-5,-4,-19,-24,0,-10,-23
14:57:43:343901,-7,-5,-4,-19,-24,0,-10,-23
14:57:43:351408,7,0,-3,-1,-9,-31,-8,0
14:57:43:358897,10,-3,-6,-22,1,13,8,6
14:57:43:367063,10,-3,-6,-22,1,13,8,6
14:57:43:367875,15,-3,6,-9,-23,-12,-3,-8
14:57:43:382114,8,-2,0,19,14,4,-9,-6
14:57:43:382912,8,-2,0,19,14,4,-9,-6
14:57:43:388898,2,-2,3,0,7,34,17,11
14:57:43:396430,4,4,-1,-2,2,2,9,9
14:57:43:403862,4,4,-1,-2,2,2,9,9
14:57:43:411381,8,-6,-4,10,-7,18,-5,9
14:57:43:418835,-3,3,3,3,-1,-18,-31,-15
14:57:43:427122,-3,3,3,3,-1,-18,-31,-15
14:57:43:427901,-5,3,-4,-3,11,3,-1,0
14:57:43:442065,-2,4,18,10,20,7,26,19
14:57:43:442815,-2,4,18,10,20,7,26,19
14:57:43:448946,-14,1,-4,-8,-36,-25,-19,-50
14:57:43:456415,0,-2,-5,16,11,12,7,-7
14:57:43:463916,0,-2,-5,16,11,12,7,-7
14:57:43:471340,4,-6,-8,-13,17,8,0,13
14:57:43:478936,-3,-1,14,12,-1,-3,2,3
14:57:43:487099,-3,-1,14,12,-1,-3,2,3
14:57:43:487888,4,0,-9,6,-9,-22,-4,11
14:57:43:502045,-2,-3,-6,-15,5,1,6,-14
14:57:43:502863,-2,-3,-6,-15,5,1,6,-14
14:57:43:508834,0,-1,8,-5,0,-9,-8,-7
14:57:43:516340,-3,-3,-1,4,-4,14,-9,-3
14:57:43:523904,-3,-3,-1,4,-4,14,-9,-3
14:57:43:531423,-6,-5,1,-20,9,-12,-5,-18
14:57:43:538855,3,5,-8,-25,-2,-17,-10,3
14:57:43:547119,3,5,-8,-25,-2,-17,-10,3
14:57:43:547911,-4,2,2,3,20,8,-5,-6
14:57:43:562093,0,0,1,-4,1,-10,-3,-21
14:57:43:562913,0,0,1,-4,1,-10,-3,-21
14:57:43:568838,-8,-6,-7,-9,-42,-12,-2,-7
14:57:43:576483,12,0,-6,-8,7,1,-8,24
14:57:43:583989,12,0,-6,-8,7,1,-8,24
14:57:43:591469,15,9,14,-12,3,20,17,10
14:57:43:598953,0,-11,-13,-24,-20,-24,-35,6
14:57:43:607102,0,-11,-13,-24,-20,-24,-35,6
14:57:43:607917,12,3,-8,8,7,-5,-18,9
14:57:43:622136,-8,-5,-8,3,-1,19,13,-10
14:57:43:622914,-8,-5,-8,3,-1,19,13,-10
14:57:43:628927,-14,-3,7,14,13,7,-7,0
14:57:43:636405,-5,0,-4,-2,-9,-17,-6,5
14:57:43:643919,-5,0,-4,-2,-9,-17,-6,5
14:57:43:651396,-16,-1,8,5,-14,-6,10,10
14:57:43:658866,-28,-3,3,-3,7,7,9,-19
14:57:43:667047,-28,-3,3,-3,7,7,9,-19
14:57:43:667840,1,-2,0,-3,9,-8,-8,-2
14:57:43:682116,-9,0,0,4,7,7,-1,18
14:57:43:682927,-9,0,0,4,7,7,-1,18
14:57:43:688892,-2,-8,-18,3,-21,6,14,9
14:57:43:696395,8,4,3,10,4,-7,-1,2
14:57:43:703859,8,4,3,10,4,-7,-1,2
14:57:43:711420,6,-3,8,-20,-13,-10,-9,-7
14:57:43:718864,0,-8,-9,22,17,-4,-9,-5
14:57:43:727090,0,-8,-9,22,17,-4,-9,-5
14:57:43:727883,-7,-4,-13,3,0,5,12,-22
14:57:43:742038,5,7,9,-4,-23,15,20,-6
14:57:43:742878,5,7,9,-4,-23,15,20,-6
14:57:43:748898,-4,-5,-5,5,4,4,-7,13
14:57:43:756411,6,-1,-4,-11,-1,-11,-4,5
14:57:43:763917,6,-1,-4,-11,-1,-11,-4,5
14:57:43:771323,-6,11,-1,-9,-7,-1,7,15
14:57:43:778834,4,2,6,2,2,10,4,12
14:57:43:787063,4,2,6,2,2,10,4,12
14:57:43:787856,-5,-8,-9,-3,3,-14,-5,-20
14:57:43:802039,9,7,-1,-15,13,8,2,-14
14:57:43:802862,9,7,-1,-15,13,8,2,-14
14:57:43:808821,-2,2,13,-8,-22,-2,-1,1
14:57:43:816325,-3,-4,-2,16,0,-14,-1,11
14:57:43:823907,-3,-4,-2,16,0,-14,-1,11
14:57:43:831426,9,-1,-9,-20,-2,-4,3,-4
14:57:43:838908,0,-5,-11,-5,-10,-2,-5,10
14:57:43:847115,0,-5,-11,-5,-10,-2,-5,10
14:57:43:847929,1,-4,2,13,-4,-1,-1,-1
14:57:43:862096,-1,1,-1,-15,-14,3,-3,5
14:57:43:862891,-1,1,-1,-15,-14,3,-3,5
14:57:43:868844,-5,-5,0,2,16,-4,-16,4
14:57:43:884582,-21,5,14,6,11,-2,0,-27
14:57:43:885443,-21,5,14,6,11,-2,0,-27
14:57:43:891310,-1,-5,-10,-17,-18,-8,6,2
14:57:43:898816,11,-4,-3,1,2,1,3,20
14:57:43:907109,11,-4,-3,1,2,1,3,20
14:57:43:907896,1,8,4,14,29,7,4,7
14:57:43:930202,2,-4,2,0,-9,-5,9,-5
14:57:43:931002,2,-4,2,0,-9,-5,9,-5
14:57:43:931808,12,3,6,34,2,-6,-6,18
14:57:43:936404,2,9,9,1,-10,-14,-6,-1
14:57:43:943857,2,9,9,1,-10,-14,-6,-1
14:57:43:951399,-1,3,7,24,15,12,5,8
14:57:43:958870,-2,-8,-1,6,-2,18,19,-12
14:57:43:967060,-2,-8,-1,6,-2,18,19,-12
14:57:43:967855,-10,-7,-1,-2,4,-9,1,-25
14:57:43:982066,9,-2,0,-9,-4,6,3,2
14:57:43:982864,9,-2,0,-9,-4,6,3,2
14:57:43:988826,-2,-7,-6,-13,3,9,2,-11
14:57:43:996376,-2,6,-3,-12,3,-1,-13,7
14:57:44:3936,-2,6,-3,-12,3,-1,-13,7
14:57:44:11303,0,5,2,0,-28,-3,6,-6
14:57:44:18799,1,-3,-5,-8,0,-14,-5,0
14:57:44:27127,1,-3,-5,-8,0,-14,-5,0
14:57:44:27898,4,5,9,-7,10,5,-3,-5
14:57:44:42100,-27,-3,-7,0,-30,-1,-3,-27
14:57:44:42905,-27,-3,-7,0,-30,-1,-3,-27
14:57:44:48865,9,1,-6,16,17,-5,-4,11
14:57:44:56326,5,1,7,12,0,-8,-14,21
14:57:44:63909,5,1,7,12,0,-8,-14,21
14:57:44:71401,-11,-11,-12,-30,-31,-1,-8,-24
14:57:44:78948,-16,-6,-7,2,-3,2,6,-7
14:57:44:87119,-16,-6,-7,2,-3,2,6,-7
14:57:44:87891,0,2,8,5,-4,16,7,9
14:57:44:102084,43,-1,-3,-10,-27,0,11,0
14:57:44:102869,43,-1,-3,-10,-27,0,11,0
14:57:44:108877,14,2,-4,-2,-3,-4,1,7
14:57:44:116418,1,1,-2,-3,1,9,6,22
14:57:44:123969,1,1,-2,-3,1,9,6,22
14:57:44:131410,-12,-4,-1,-2,11,7,-13,-1
14:57:44:138881,12,5,6,-11,16,6,-3,0
14:57:44:147075,12,5,6,-11,16,6,-3,0
14:57:44:147840,-9,-11,-19,-15,2,-1,13,-2
14:57:44:162100,-11,-9,-6,11,24,-6,4,14
14:57:44:162933,-11,-9,-6,11,24,-6,4,14
14:57:44:168842,-2,1,-5,-15,25,9,2,2
14:57:44:176416,-3,-1,-1,-34,-1,2,14,0
14:57:44:183873,-3,-1,-1,-34,-1,2,14,0
14:57:44:191380,-1,-2,-6,1,-24,-23,-19,-27
14:57:44:198893,-6,0,15,17,13,-5,-4,-18
14:57:44:207082,-6,0,15,17,13,-5,-4,-18
14:57:44:207848,6,4,3,4,5,3,-4,11
14:57:44:222014,-6,-9,-24,9,16,10,4,-12
14:57:44:222863,-6,-9,-24,9,16,10,4,-12
14:57:44:228890,0,0,-2,-7,-36,-14,8,-1
14:57:44:236372,1,2,1,1,-2,-2,-9,-1
14:57:44:243901,1,2,1,1,-2,-2,-9,-1
14:57:44:251366,-5,-5,-4,14,26,6,-10,-4
14:57:44:258921,-6,0,2,-18,-10,-13,-16,-8
14:57:44:266429,-6,0,2,-18,-10,-13,-16,-8
14:57:44:273863,5,8,3,-29,-34,-21,-9,6
14:57:44:282039,1,5,11,15,-13,2,0,6
14:57:44:282890,1,5,11,15,-13,2,0,6
14:57:44:288859,4,-4,1,10,13,-7,2,43
14:57:44:304601,-11,-8,-8,18,19,9,8,0
14:57:44:305439,-11,-8,-8,18,19,9,8,0
14:57:44:311336,-1,4,22,18,-5,-5,1,-11
14:57:44:318817,0,5,-3,12,-9,0,-1,-2
14:57:44:326373,0,5,-3,12,-9,0,-1,-2
14:57:44:333966,12,1,-8,4,2,4,12,15
14:57:44:342091,-2,-8,-4,-2,-1,-1,-33,-30
14:57:44:342907,-2,-8,-4,-2,-1,-1,-33,-30
14:57:44:348856,-11,-6,-1,-21,0,-2,19,-18
14:57:44:364594,-3,-5,-11,-4,-5,-16,-21,2
14:57:44:365394,-3,-5,-11,-4,-5,-16,-21,2
14:57:44:371393,12,7,7,11,-13,6,-1,3
14:57:44:378868,3,-2,-5,-22,14,-4,-9,13
14:57:44:386464,3,-2,-5,-22,14,-4,-9,13
14:57:44:393874,-6,-7,-11,2,-1,-6,-4,-16
14:57:44:402008,-3,-1,-7,5,-4,4,8,-4
14:57:44:402853,-3,-1,-7,5,-4,4,8,-4
14:57:44:408877,-7,-6,-9,0,27,17,-11,-4
14:57:44:424611,6,-4,1,-11,-16,1,4,6
14:57:44:425406,6,-4,1,-11,-16,1,4,6
14:57:44:431438,-5,4,12,-2,17,-7,-14,1
14:57:44:438876,-4,4,1,-12,-18,-5,3,-10
14:57:44:446452,-4,4,1,-12,-18,-5,3,-10
14:57:44:453868,-4,-3,-1,1,-7,-7,-21,-16
14:57:44:462023,1,1,6,3,-9,-2,13,5
14:57:44:462827,1,1,6,3,-9,-2,13,5
14:57:44:468814,6,10,21,18,-2,5,6,15
14:57:44:484575,3,2,-14,-4,-2,5,5,5
14:57:44:485383,3,2,-14,-4,-2,5,5,5
14:57:44:491412,-2,-3,-10,9,4,2,-5,0
14:57:44:498929,2,-2,-5,-2,2,12,5,5
14:57:44:506411,2,-2,-5,-2,2,12,5,5
14:57:44:513827,-2,-1,14,8,-11,-4,3,-26
14:57:44:522051,-8,-5,3,27,19,-7,-10,0
14:57:44:522904,-8,-5,3,27,19,-7,-10,0
14:57:44:528817,-9,-7,-18,-19,-5,2,0,-18
14:57:44:544543,-12,-1,15,-8,-7,-4,2,-11
14:57:44:545417,-12,-1,15,-8,-7,-4,2,-11
14:57:44:551482,25,7,1,-2,8,7,11,28
14:57:44:558869,-11,-9,-7,-7,6,2,2,-4
14:57:44:566415,-11,-9,-7,-7,6,2,2,-4
14:57:44:573863,-8,-6,-14,-18,-15,-7,-6,2
14:57:44:582087,-17,-14,-25,-6,6,8,-7,-20
14:57:44:582906,-17,-14,-25,-6,6,8,-7,-20
14:57:44:588897,-4,-10,-21,-7,-24,-1,-1,-4
14:57:44:604561,1,7,3,5,-8,10,4,-31
14:57:44:605398,1,7,3,5,-8,10,4,-31
14:57:44:611351,-3,-2,-5,10,19,-4,-3,-6
14:57:44:618819,7,1,5,-14,-8,-9,-6,19
14:57:44:626449,7,1,5,-14,-8,-9,-6,19
14:57:44:633865,11,4,6,-14,-16,-7,-5,-7
14:57:44:642066,25,0,8,11,-7,-4,9,21
14:57:44:642907,25,0,8,11,-7,-4,9,21
14:57:44:648889,-24,-4,-5,3,-2,9,2,-26
14:57:44:664310,1,5,10,-1,35,7,1,2
14:57:44:672104,1,5,10,-1,35,7,1,2
14:57:44:672882,6,0,-1,1,5,14,14,1
14:57:44:678886,3,8,31,-9,-27,-6,3,4
14:57:44:686416,3,8,31,-9,-27,-6,3,4
14:57:44:693883,-4,6,7,-20,-7,-15,-9,10
14:57:44:702012,-9,-5,-22,-10,-6,-15,-2,-9
14:57:44:702866,-9,-5,-22,-10,-6,-15,-2,-9
14:57:44:708906,-3,-4,-3,4,-7,-15,-9,5
14:57:44:724613,-5,-7,-2,0,0,1,3,-13
14:57:44:725410,-5,-7,-2,0,0,1,3,-13
14:57:44:731438,-6,-3,3,-8,20,1,4,6
14:57:44:747173,6,4,-6,1,-12,-11,-5,22
14:57:44:747882,6,4,-6,1,-12,-11,-5,22
14:57:44:753900,-1,3,3,10,9,7,2,10
14:57:44:762076,-5,7,11,13,10,1,-5,-2
14:57:44:762949,-5,7,11,13,10,1,-5,-2
14:57:44:768870,-7,-4,4,-11,-10,-2,5,4
14:57:44:784580,1,-2,-6,-17,-16,5,-2,-14
14:57:44:785393,1,-2,-6,-17,-16,5,-2,-14
14:57:44:791396,3,-6,-8,31,22,12,-3,-1
14:57:44:798894,-4,1,-2,-18,-3,12,14,2
14:57:44:806422,-4,1,-2,-18,-3,12,14,2
14:57:44:813849,-4,-1,6,1,-6,-14,9,-3
14:57:44:822464,7,-2,-4,3,6,-12,-17,9
14:57:44:829580,7,-2,-4,3,6,-12,-17,9
14:57:44:830411,-1,3,-2,1,6,4,3,-4
14:57:44:844549,0,2,-2,4,-8,3,20,-3
14:57:44:845402,0,2,-2,4,-8,3,20,-3
14:57:44:851409,-3,-4,-3,-24,-16,-7,-17,1
14:57:44:858874,6,4,-5,8,16,-13,-15,5
14:57:44:866419,6,4,-5,8,16,-13,-15,5
14:57:44:873887,-2,-4,4,20,27,-2,-6,-4
14:57:44:882051,-6,-6,0,6,-4,-5,-5,1
14:57:44:882919,-6,-6,0,6,-4,-5,-5,1
14:57:44:888851,5,6,-3,14,5,-4,-7,5
14:57:44:904570,-3,-2,-17,-18,-36,2,1,-3
14:57:44:905415,-3,-2,-17,-18,-36,2,1,-3
14:57:44:911448,5,-3,-47,-12,-10,1,2,6
14:57:44:927114,5,-3,-47,-12,-10,1,2,6
14:57:44:927934,-1,4,23,-17,29,-6,-4,-11
14:57:44:933896,-3,6,37,9,-10,4,1,-12
14:57:44:942051,-3,6,37,9,-10,4,1,-12
14:57:44:942833,-12,-5,17,0,-14,2,-10,-33
14:57:44:948864,-14,-10,14,-1,-5,-31,-36,-33
14:57:44:972747,-14,-10,14,-1,-5,-31,-36,-33
14:57:44:973505,0,-4,0,1,-8,0,5,3
14:57:44:974455,7,0,13,-8,-6,5,1,13
14:57:44:987061,7,0,13,-8,-6,5,1,13
14:57:44:987877,2,8,6,10,9,2,10,10
14:57:44:993857,1,-4,-7,-9,18,10,10,8
14:57:45:2274,1,-4,-7,-9,18,10,10,8
14:57:45:2900,3,-1,-11,3,25,5,-1,5
14:57:45:8868,4,2,-9,-38,11,1,5,1
14:57:45:24608,4,2,-9,-38,11,1,5,1
14:57:45:25423,3,-8,-17,-27,-11,-3,6,-1
14:57:45:31328,-5,8,7,3,31,24,10,-19
14:57:45:47061,-5,8,7,3,31,24,10,-19
14:57:45:47848,-7,1,9,38,30,2,-12,-11
14:57:45:53826,-7,-5,-3,4,5,-5,6,3
14:57:45:62066,-7,-5,-3,4,5,-5,6,3
14:57:45:62876,5,3,-1,-21,-20,-3,-5,6
14:57:45:68856,5,0,-7,-34,9,3,0,6
14:57:45:84601,5,0,-7,-34,9,3,0,6
14:57:45:85406,-4,-9,0,2,6,-21,-24,-5
14:57:45:91349,-4,-10,-1,10,-34,-12,-15,-3
14:57:45:107086,-4,-10,-1,10,-34,-12,-15,-3
14:57:45:107867,23,0,-11,13,4,7,-5,43
14:57:45:113817,6,-3,-5,6,0,0,6,6
14:57:45:122042,6,-3,-5,6,0,0,6,6
14:57:45:122869,-6,4,1,12,-6,-9,-3,-12
14:57:45:128826,4,2,-2,11,7,11,16,14
14:57:45:144554,4,2,-2,11,7,11,16,14
14:57:45:145400,-12,-10,-26,-72,-37,-7,3,-8
14:57:45:151345,3,-3,23,7,-4,7,-9,6
14:57:45:167108,3,-3,23,7,-4,7,-9,6
14:57:45:167911,-7,-6,0,9,-10,-6,-12,-5
14:57:45:173931,-6,11,-7,6,0,-2,-14,-10
14:57:45:182083,-6,11,-7,6,0,-2,-14,-10
14:57:45:182871,1,10,14,12,17,9,10,-1
14:57:45:188828,9,-2,-10,-6,-13,-16,4,-5
14:57:45:204552,9,-2,-10,-6,-13,-16,4,-5
14:57:45:205385,-5,-2,-1,14,1,3,0,4
14:57:45:211425,-5,-2,-5,-4,-10,1,-3,1
14:57:45:227138,-5,-2,-5,-4,-10,1,-3,1
14:57:45:227883,7,-2,0,8,-3,5,22,-4
14:57:45:233895,-11,-3,-1,-2,-12,6,4,3
14:57:45:242083,-11,-3,-1,-2,-12,6,4,3
14:57:45:242869,-7,0,-16,-2,-16,1,10,-19
14:57:45:256496,17,8,5,-12,-1,-5,-1,10
14:57:45:264591,17,8,5,-12,-1,-5,-1,10
14:57:45:265443,20,4,9,-18,9,-2,-5,5
14:57:45:271382,4,-12,-24,-15,-25,-15,6,12
14:57:45:287110,4,-12,-24,-15,-25,-15,6,12
14:57:45:287906,-3,2,4,16,13,-3,-6,-8
14:57:45:293865,-10,-7,78,0,1,-3,-5,-16
14:57:45:302021,-10,-7,78,0,1,-3,-5,-16
14:57:45:302834,-8,-1,18,-14,-19,-5,1,7
14:57:45:316447,-4,-3,-21,11,18,15,6,10
14:57:45:324658,-4,-3,-21,11,18,15,6,10
14:57:45:325466,-4,2,5,12,-6,-14,-8,-1
14:57:45:331452,3,6,-10,11,10,-14,-12,-23
14:57:45:347132,3,6,-10,11,10,-14,-12,-23
14:57:45:347873,-6,-2,-12,11,6,5,8,6
14:57:45:353843,1,2,-8,15,3,-2,1,3
14:57:45:362088,1,2,-8,15,3,-2,1,3
14:57:45:362929,-5,0,-12,-14,-12,4,-8,-1
14:57:45:376363,-3,-1,-7,-13,-22,5,3,-6
14:57:45:384623,-3,-1,-7,-13,-22,5,3,-6
14:57:45:385381,-6,-6,-9,15,8,14,14,-6
14:57:45:391418,-10,0,-19,-18,-1,-14,-18,-44
14:57:45:407126,-10,0,-19,-18,-1,-14,-18,-44
14:57:45:407911,3,-14,-5,2,15,1,-9,-18
14:57:45:413856,6,0,-10,-3,7,10,20,19
14:57:45:422125,6,0,-10,-3,7,10,20,19
14:57:45:422912,0,3,2,4,-2,-9,-13,-5
14:57:45:436335,0,0,12,1,9,-21,-20,-11
14:57:45:444544,0,0,12,1,9,-21,-20,-11
14:57:45:445440,16,4,-2,-33,-11,-3,1,13
14:57:45:451397,-6,3,10,12,7,-1,-19,3
14:57:45:467103,-6,3,10,12,7,-1,-19,3
14:57:45:467852,0,2,-7,33,4,-2,5,-3
14:57:45:473906,6,12,26,-8,-6,-3,-3,-2
14:57:45:482100,6,12,26,-8,-6,-3,-3,-2
14:57:45:482927,-7,-8,2,-12,-4,-15,-8,3
14:57:45:496408,13,-9,-12,10,-9,8,15,20
14:57:45:504632,13,-9,-12,10,-9,8,15,20
14:57:45:505446,-5,9,16,12,25,16,13,12
14:57:45:511392,-2,-8,-13,4,-8,8,-2,5
14:57:45:527141,-2,-8,-13,4,-8,8,-2,5
14:57:45:527907,0,1,-4,-8,-11,24,12,5
14:57:45:533873,-14,0,-9,6,-28,-15,-23,1
14:57:45:542092,-14,0,-9,6,-28,-15,-23,1
14:57:45:542897,-7,-5,0,3,-5,-3,-3,-54
14:57:45:556414,2,-6,-4,11,29,5,9,-2
14:57:45:564579,2,-6,-4,11,29,5,9,-2
14:57:45:565447,12,1,-7,9,-1,-9,-9,30
14:57:45:571311,-41,-9,-14,0,-5,5,18,-2
14:57:45:587043,-41,-9,-14,0,-5,5,18,-2
14:57:45:587890,1,1,13,19,9,-9,-3,-20
14:57:45:593829,4,12,4,-54,-9,5,10,-3
14:57:45:602133,4,12,4,-54,-9,5,10,-3
14:57:45:602908,-23,-7,-39,-67,-43,-11,-13,-13
14:57:45:616438,-4,-7,-1,-3,9,1,-7,-4
14:57:45:624599,-4,-7,-1,-3,9,1,-7,-4
14:57:45:625438,1,2,18,-75,-3,-14,-15,-6
14:57:45:631365,2,-8,-5,22,-28,-14,-3,2
14:57:45:647090,2,-8,-5,22,-28,-14,-3,2
14:57:45:647843,-13,-9,-1,52,28,3,6,-20
14:57:45:653906,1,-3,-2,29,-10,-6,-16,17
14:57:45:662108,1,-3,-2,29,-10,-6,-16,17
14:57:45:662880,-23,4,-8,-11,-20,-11,-9,12
14:57:45:676488,6,3,2,-14,8,2,12,2
14:57:45:684601,6,3,2,-14,8,2,12,2
14:57:45:685428,0,-1,6,14,11,10,2,14
14:57:45:691425,10,11,17,-1,7,-8,0,-23
14:57:45:707106,10,11,17,-1,7,-8,0,-23
14:57:45:707845,-23,-2,5,25,-19,4,17,-16
14:57:45:713891,-30,-6,-20,2,1,-2,1,10
14:57:45:722016,-30,-6,-20,2,1,-2,1,10
14:57:45:722868,16,7,14,44,6,-4,-10,23
14:57:45:736415,4,-6,5,0,11,-7,-11,0
14:57:45:744545,4,-6,5,0,11,-7,-11,0
14:57:45:745459,12,-1,7,-3,-17,-1,-6,33
14:57:45:751455,5,-10,-5,-7,11,-3,-5,-24
14:57:45:767158,5,-10,-5,-7,11,-3,-5,-24
14:57:45:767918,8,-3,7,9,26,-1,7,-14
14:57:45:773917,0,1,-5,-5,-17,10,1,10
14:57:45:782076,0,1,-5,-5,-17,10,1,10
14:57:45:782835,-2,1,1,-3,1,1,-11,-12
14:57:45:796458,-3,-4,-9,-7,1,1,9,2
14:57:45:804598,-3,-4,-9,-7,1,1,9,2
14:57:45:805418,5,-2,-9,7,21,-7,4,-7
14:57:45:811414,5,2,-3,3,7,21,21,-5
14:57:45:827164,5,2,-3,3,7,21,21,-5
14:57:45:827916,8,-4,-10,-27,-20,10,4,17
14:57:45:833866,-8,-1,9,11,-5,9,-2,-6
14:57:45:849618,-8,-1,9,11,-5,9,-2,-6
14:57:45:850424,-4,9,19,16,4,3,4,-3
14:57:45:856352,5,-5,0,-16,-9,-19,-20,-35
14:57:45:864607,5,-5,0,-16,-9,-19,-20,-35
14:57:45:865408,15,1,-8,8,4,2,3,5
14:57:45:871381,-13,3,-4,-3,7,10,15,9
14:57:45:878943,-13,3,-4,-3,7,10,15,9
14:57:45:886400,0,-3,6,-9,-15,-5,0,7
14:57:45:893864,-24,-7,-6,22,30,-1,-14,2
14:57:45:902041,-24,-7,-6,22,30,-1,-14,2
14:57:45:902824,4,-6,-7,-16,-31,-6,-10,4
14:57:45:916418,11,-3,-5,6,-7,-13,0,3
14:57:45:924667,11,-3,-5,6,-7,-13,0,3
14:57:45:925470,2,10,-2,-4,12,3,0,-56
14:57:45:931433,15,6,3,-3,-6,6,3,-9
14:57:45:938906,15,6,3,-3,-6,6,3,-9
14:57:45:946452,-7,-4,-3,-14,-2,-13,-20,23
14:57:45:953875,-43,-6,-6,-22,-10,-6,9,23
14:57:45:962109,-43,-6,-6,-22,-10,-6,9,23
14:57:45:962896,2,-1,-11,6,20,-2,7,15
14:57:45:976429,18,-2,17,-1,-14,-4,-8,15
14:57:45:985029,18,-2,17,-1,-14,-4,-8,15
14:57:45:992009,11,-11,-15,-11,3,-4,-6,20
14:57:45:992755,-12,-8,-15,-4,-37,-34,5,-39
14:57:45:999021,-12,-8,-15,-4,-37,-34,5,-39
14:57:46:6375,-3,4,-1,4,37,5,6,0
14:57:46:13878,9,0,-4,-3,14,13,3,4
14:57:46:22105,9,0,-4,-3,14,13,3,4
14:57:46:22881,-5,2,13,18,-6,-1,8,10
14:57:46:36425,-3,1,0,19,3,15,15,6
14:57:46:44574,-3,1,0,19,3,15,15,6
14:57:46:45428,-15,-15,-13,-28,-13,-3,-8,-31
14:57:46:51439,17,10,5,-25,5,7,-2,4
14:57:46:58920,17,10,5,-25,5,7,-2,4
14:57:46:66372,-6,-4,-5,10,18,8,4,1
14:57:46:82735,-2,-7,-4,-9,22,-10,-5,0
14:57:46:83543,-2,-7,-4,-9,22,-10,-5,0
14:57:46:84422,0,-9,7,15,1,4,-10,-14
14:57:46:96424,7,3,5,13,6,7,2,11
14:57:46:104529,7,3,5,13,6,7,2,11
14:57:46:105397,-42,-9,-15,-12,-27,-11,-3,-20
14:57:46:111305,0,-1,-19,-9,-30,-20,-18,-18
14:57:46:118867,0,-1,-19,-9,-30,-20,-18,-18
14:57:46:134539,10,16,17,0,21,6,30,6
14:57:46:135278,1,-9,2,-7,-23,-12,-5,9
14:57:46:141448,1,-9,2,-7,-23,-12,-5,9
14:57:46:148838,9,-7,4,11,-9,-9,-10,25
14:57:46:156375,18,2,8,6,6,12,-5,20
14:57:46:164587,18,2,8,6,6,12,-5,20
14:57:46:165408,5,1,23,1,1,6,-4,0
14:57:46:179618,-5,2,-2,-1,10,8,4,-10
14:57:46:180413,-5,2,-2,-1,10,8,4,-10
14:57:46:186319,-9,-4,-15,-7,-25,-8,-16,-6
14:57:46:193841,4,-3,-7,2,9,5,1,-1
14:57:46:201466,4,-3,-7,2,9,5,1,-1
14:57:46:208855,1,6,-18,-8,-2,-15,-15,1
14:57:46:216340,-7,7,0,5,-3,6,4,-14
14:57:46:224615,-7,7,0,5,-3,6,4,-14
14:57:46:225421,15,-6,-15,-25,-3,5,12,1
14:57:46:239610,5,7,9,10,32,-3,-15,8
14:57:46:240467,5,7,9,10,32,-3,-15,8
14:57:46:246363,-2,-4,1,4,24,13,-1,5
14:57:46:253911,-8,-9,-5,-10,-16,-9,-2,-7
14:57:46:261434,-8,-9,-5,-10,-16,-9,-2,-7
14:57:46:268872,3,6,8,0,0,-1,0,-2
14:57:46:276437,-1,-2,-7,15,3,4,-5,15
14:57:46:284524,-1,-2,-7,15,3,4,-5,15
14:57:46:285437,-4,-5,2,6,-6,-2,-6,8
14:57:46:299592,-17,-5,1,-2,-11,-10,3,-4
14:57:46:300436,-17,-5,1,-2,-11,-10,3,-4
14:57:46:306440,4,3,-4,-4,-7,7,-2,3
14:57:46:313872,17,0,-2,-10,-27,-1,-1,3
14:57:46:321432,17,0,-2,-10,-27,-1,-1,3
14:57:46:328918,0,1,18,-4,20,4,10,0
14:57:46:336412,0,9,2,-6,25,-4,0,-8
14:57:46:344541,0,9,2,-6,25,-4,0,-8
14:57:46:345405,-6,-11,-15,21,4,7,3,-4
14:57:46:360435,-6,0,8,-26,11,12,-4,-14
14:57:46:367015,-6,0,8,-26,11,12,-4,-14
14:57:46:367834,-1,1,1,2,-13,-30,0,-5
14:57:46:373872,-3,5,12,27,-3,-1,4,4
14:57:46:381395,-3,5,12,27,-3,-1,4,4
14:57:46:388795,8,5,7,-10,-17,-3,-8,7
14:57:46:412767,-2,-5,-5,4,-4,1,-4,-7
14:57:46:413561,-2,-5,-5,4,-4,1,-4,-7
14:57:46:414421,-2,-6,-6,-4,-25,-3,16,2
14:57:46:419494,2,-6,2,-9,-6,0,-8,-8
14:57:46:420396,2,-6,2,-9,-6,0,-8,-8
14:57:46:426447,-1,-2,2,-8,-6,3,-6,-17
14:57:46:433871,-8,-5,-3,-2,11,-19,-11,-17
14:57:46:441382,-8,-5,-3,-2,11,-19,-11,-17
14:57:46:448826,-17,0,-10,8,-16,-6,-9,-22
14:57:46:456432,1,0,-21,-33,-14,7,7,10
14:57:46:464552,1,0,-21,-33,-14,7,7,10
14:57:46:465396,10,8,2,2,2,7,5,14
14:57:46:479564,36,-5,-3,18,-3,1,-3,16
14:57:46:480432,36,-5,-3,18,-3,1,-3,16
14:57:46:486296,28,-4,-7,-1,0,3,-3,2
14:57:46:493852,-10,-2,-1,1,-10,-15,-6,1
14:57:46:501459,-10,-2,-1,1,-10,-15,-6,1
14:57:46:508845,-7,2,0,-3,3,10,4,-2
14:57:46:516318,-37,-3,0,-2,7,7,13,7
14:57:46:524601,-37,-3,0,-2,7,7,13,7
14:57:46:525429,16,7,-5,-6,4,-2,6,31
14:57:46:539543,-4,-3,-11,12,-1,0,-7,-21
14:57:46:540414,-4,-3,-11,12,-1,0,-7,-21
14:57:46:546353,-11,-1,8,-2,-71,-1,-7,-8
14:57:46:553876,-16,3,-3,5,4,4,1,0
14:57:46:561400,-16,3,-3,5,4,4,1,0
14:57:46:568810,-6,0,8,5,50,1,-1,-4
14:57:46:576379,-7,-13,-29,-14,28,2,-8,-5
14:57:46:584580,-7,-13,-29,-14,28,2,-8,-5
14:57:46:585391,-7,5,9,-5,5,-4,-2,-13
14:57:46:599650,-11,4,4,4,-8,-6,-2,-4
14:57:46:600427,-11,4,4,4,-8,-6,-2,-4
14:57:46:606347,0,-11,-5,5,21,-1,3,-8
14:57:46:613840,-5,2,2,-6,-27,0,-5,4
14:57:46:621422,-5,2,2,-6,-27,0,-5,4
14:57:46:636998,-13,-6,-4,-9,-18,-7,15,-2
14:57:46:637790,6,10,19,8,5,-3,14,8
14:57:46:644610,6,10,19,8,5,-3,14,8
14:57:46:645417,-2,-8,-15,4,26,6,-11,-4
14:57:46:659580,15,-7,1,7,8,3,-3,0
14:57:46:660438,15,-7,1,7,8,3,-3,0
14:57:46:690924,3,9,5,1,5,2,-8,3
14:57:46:691720,7,-2,5,-6,0,0,10,14
14:57:46:692566,7,-2,5,-6,0,0,10,14
14:57:46:693338,-6,-2,-7,-5,8,1,10,-8
14:57:46:696407,-1,0,-5,7,8,26,2,-18
14:57:46:704594,-1,0,-5,7,8,26,2,-18
14:57:46:705427,-8,-3,-12,-16,-28,-5,-4,1
14:57:46:718904,9,-1,-3,-28,-51,-23,-3,-19
14:57:46:727150,9,-1,-3,-28,-51,-23,-3,-19
14:57:46:727943,-9,-4,-6,26,2,6,-5,-8
14:57:46:733902,-19,3,15,-5,2,-8,-1,1
14:57:46:741440,-19,3,15,-5,2,-8,-1,1
14:57:46:748874,16,15,16,-2,31,11,-2,1
14:57:46:756387,8,-9,16,25,4,0,1,2
14:57:46:764545,8,-9,16,25,4,0,1,2
14:57:46:765435,20,-37,-1,-7,-5,2,-5,-7
