Time,EMG1,EMG2,EMG3,EMG4,EMG5,EMG6,EMG7,EMG8
14:57:55:773906,-3,-3,-1,2,-7,0,-2,-1
14:57:55:782106,-3,-3,-1,2,-7,0,-2,-1
14:57:55:782864,-1,-1,-2,1,-3,0,4,-1
14:57:55:797135,2,0,0,0,0,1,3,-4
14:57:55:797927,2,0,0,0,0,1,3,-4
14:57:55:803934,-3,-4,-2,0,-1,-2,-4,-6
14:57:55:811390,-1,-3,0,1,-3,-3,-4,0
14:57:55:818994,-1,-3,0,1,-3,-3,-4,0
14:57:55:826437,2,0,-1,-5,-4,3,0,0
14:57:55:833945,0,0,-2,-8,2,-3,-9,-1
14:57:55:842130,0,0,-2,-8,2,-3,-9,-1
14:57:55:842954,-1,-1,-3,0,8,-2,-3,-1
14:57:55:857132,-4,2,0,-1,-3,-1,4,-1
14:57:55:857940,-4,2,0,-1,-3,-1,4,-1
14:57:55:863938,-2,1,-1,0,-5,2,1,-1
14:57:55:871416,-1,0,-1,-1,3,1,-3,-1
14:57:55:878949,-1,0,-1,-1,3,1,-3,-1
14:57:55:886376,-1,-2,0,0,-2,-5,-1,1
14:57:55:902824,1,0,-1,3,-2,0,-1,0
14:57:55:903577,1,0,-1,3,-2,0,-1,0
14:57:55:904358,0,-2,1,-6,1,-1,-1,-1
14:57:55:917175,0,-1,-2,3,-2,-3,4,1
14:57:55:917954,0,-1,-2,3,-2,-3,4,1
14:57:55:923921,-3,-4,-7,-4,1,-2,-2,-3
14:57:55:931404,0,0,-3,-4,-3,0,1,1
14:57:55:938958,0,0,-3,-4,-3,0,1,1
14:57:55:946522,-4,0,-3,5,-3,-1,-2,2
14:57:55:953912,-1,-4,-1,-1,0,2,2,-2
14:57:55:962122,-1,-4,-1,-1,0,2,2,-2
14:57:55:962882,-2,0,2,-2,-2,1,0,-2
14:57:55:977113,-6,0,4,3,-2,-3,-1,-2
14:57:55:977959,-6,0,4,3,-2,-3,-1,-2
14:57:55:983968,4,-1,-3,6,0,-2,0,-2
14:57:55:991514,1,-2,-5,-4,3,0,-4,0
14:57:55:998953,1,-2,-5,-4,3,0,-4,0
14:57:56:6420,-2,1,0,-4,-2,-2,-23,-6
14:57:56:13903,1,1,-5,-2,-1,-2,-1,-6
14:57:56:22122,1,1,-5,-2,-1,-2,-1,-6
14:57:56:22922,5,1,2,-4,-2,0,4,-2
14:57:56:37107,-5,-3,-3,-4,-3,1,0,-2
14:57:56:37901,-5,-3,-3,-4,-3,1,0,-2
14:57:56:43928,-1,-3,1,3,0,2,0,1
14:57:56:51405,0,-5,2,1,-2,-1,3,4
14:57:56:59003,0,-5,2,1,-2,-1,3,4
14:57:56:66386,-3,1,1,2,1,1,-2,-2
14:57:56:73921,-4,-2,-3,-6,7,1,-4,-2
14:57:56:82147,-4,-2,-3,-6,7,1,-4,-2
14:57:56:82944,-3,0,-1,-1,-5,-3,4,3
14:57:56:97126,1,-2,-4,4,-1,-3,-3,0
14:57:56:97954,1,-2,-4,4,-1,-3,-3,0
14:57:56:103884,5,2,-1,0,3,-3,3,0
14:57:56:111431,-2,-1,-1,-6,-3,0,1,0
14:57:56:118992,-2,-1,-1,-6,-3,0,1,0
14:57:56:126434,-1,-3,-2,-4,-2,-1,3,3
14:57:56:133945,0,-1,0,6,1,-1,0,-2
14:57:56:142176,0,-1,0,6,1,-1,0,-2
14:57:56:142934,-3,0,0,1,0,-1,-1,-2
14:57:56:157142,-2,-1,1,-4,-2,0,-4,-3
14:57:56:157963,-2,-1,1,-4,-2,0,-4,-3
14:57:56:163921,-5,-4,1,5,-11,1,-1,-9
14:57:56:171401,6,2,1,7,0,-6,-1,6
14:57:56:179004,6,2,1,7,0,-6,-1,6
14:57:56:186439,-4,3,-4,8,2,-1,-6,-2
14:57:56:193921,1,0,4,6,2,-1,0,-1
14:57:56:202085,1,0,4,6,2,-1,0,-1
14:57:56:202864,-3,-3,-3,-7,-4,-1,5,3
14:57:56:217553,-4,-1,-5,0,-5,1,-1,-3
14:57:56:218364,-4,-1,-5,0,-5,1,-1,-3
14:57:56:223909,1,-1,1,-17,-9,-2,-2,3
14:57:56:231425,1,-4,-1,17,13,-5,2,-1
14:57:56:238962,1,-4,-1,17,13,-5,2,-1
14:57:56:246508,-2,-3,-1,-1,13,-1,-4,-3
14:57:56:253948,-4,-4,-8,-4,13,-4,-3,-9
14:57:56:262181,-4,-4,-8,-4,13,-4,-3,-9
14:57:56:262980,-1,-5,-20,-7,-7,0,-1,-1
14:57:56:277098,-3,5,4,-16,-21,4,-2,-1
14:57:56:277933,-3,5,4,-16,-21,4,-2,-1
14:57:56:283937,5,7,12,-5,-5,2,3,7
14:57:56:291435,-3,-3,-3,-10,-9,-2,1,-1
14:57:56:298939,-3,-3,-3,-10,-9,-2,1,-1
14:57:56:306412,-2,-3,-3,-5,-7,-1,2,-2
14:57:56:313916,1,-6,1,-26,-7,-1,-3,0
14:57:56:322109,1,-6,1,-26,-7,-1,-3,0
14:57:56:322918,1,-3,-2,-3,-6,2,-1,-3
14:57:56:337124,0,16,13,-28,18,0,1,0
14:57:56:337912,0,16,13,-28,18,0,1,0
14:57:56:343896,-2,3,1,32,52,-4,-4,1
14:57:56:351388,2,-4,6,50,-15,-4,-2,-2
14:57:56:359026,2,-4,6,50,-15,-4,-2,-2
14:57:56:366427,-2,-7,-5,-5,-46,-19,-7,-5
14:57:56:390254,-4,6,-15,-10,-7,3,0,0
14:57:56:391061,-4,6,-15,-10,-7,3,0,0
14:57:56:391891,-1,-5,-3,3,-4,3,4,-2
14:57:56:397092,-4,-8,-7,21,3,1,-1,-3
14:57:56:397938,-4,-8,-7,21,3,1,-1,-3
14:57:56:403923,4,7,9,-5,6,4,5,2
14:57:56:419581,-4,-14,-13,-14,8,2,-3,-1
14:57:56:420402,-4,-14,-13,-14,8,2,-3,-1
14:57:56:426424,-2,2,4,-8,6,-3,-6,-7
14:57:56:433971,-2,-6,-1,12,4,-4,-4,-1
14:57:56:441521,-2,-6,-1,12,4,-4,-4,-1
14:57:56:448966,0,-5,-4,-4,-14,3,-3,4
14:57:56:465273,1,10,-3,-2,-8,1,0,-3
14:57:56:466093,1,10,-3,-2,-8,1,0,-3
14:57:56:466894,-2,-1,1,2,1,-1,-2,0
14:57:56:479636,-1,0,0,-1,-12,0,5,-2
14:57:56:480549,-1,0,0,-1,-12,0,5,-2
14:57:56:486446,-2,1,-2,0,5,3,4,0
14:57:56:493961,-1,2,-2,-5,-3,-3,3,8
14:57:56:501553,-1,2,-2,-5,-3,-3,3,8
14:57:56:508951,-4,-5,-5,-1,10,-8,-5,-8
14:57:56:517133,1,1,-1,-4,12,-3,3,4
14:57:56:517939,1,1,-1,-4,12,-3,3,4
14:57:56:523895,1,5,11,-4,-8,6,2,2
14:57:56:540098,-5,-10,1,4,-1,0,-1,-3
14:57:56:540893,-5,-10,1,4,-1,0,-1,-3
14:57:56:546420,-3,1,-14,-7,-8,2,-2,-2
14:57:56:553926,3,10,11,-16,-9,-5,-3,-2
14:57:56:561570,3,10,11,-16,-9,-5,-3,-2
14:57:56:568891,-1,-4,-8,0,7,-1,2,3
14:57:56:577089,-2,-5,-9,-8,-3,-4,-12,-6
14:57:56:577905,-2,-5,-9,-8,-3,-4,-12,-6
14:57:56:583902,2,-3,2,-4,0,-6,3,-2
14:57:56:607780,3,-3,10,-4,3,-5,-4,1
14:57:56:608541,3,-3,10,-4,3,-5,-4,1
14:57:56:609335,-2,-7,-7,-6,-1,4,1,0
14:57:56:613944,-1,1,3,-3,0,1,1,-6
14:57:56:621515,-1,1,3,-3,0,1,1,-6
14:57:56:628961,1,-6,-3,-2,3,-4,-6,-2
14:57:56:637108,1,1,2,2,-1,7,0,6
14:57:56:637911,1,1,2,2,-1,7,0,6
14:57:56:643886,2,-1,2,4,13,-1,-5,-2
14:57:56:667805,-9,1,3,13,3,1,-1,-11
14:57:56:668579,-9,1,3,13,3,1,-1,-11
14:57:56:669398,-4,-3,-2,6,-3,-4,-1,-2
14:57:56:673903,0,0,0,-14,-6,-2,0,-1
14:57:56:681517,0,0,0,-14,-6,-2,0,-1
14:57:56:688904,-7,-1,-4,2,3,-1,-2,0
14:57:56:697106,-3,-7,-16,2,-7,-1,-1,-3
14:57:56:697925,-3,-7,-16,2,-7,-1,-1,-3
14:57:56:703900,3,-2,10,0,-7,2,6,1
14:57:56:719578,-2,-9,-4,-4,-13,-4,-6,1
14:57:56:720463,-2,-9,-4,-4,-13,-4,-6,1
14:57:56:726410,1,4,-5,-4,6,-7,-6,-1
14:57:56:741862,-1,-10,-6,2,-9,3,6,-2
14:57:56:749696,-1,-10,-6,2,-9,3,6,-2
14:57:56:750525,1,9,9,-6,-3,9,4,-3
14:57:56:757141,-4,-5,-9,-5,5,-19,-20,-4
14:57:56:757922,-4,-5,-9,-5,5,-19,-20,-4
14:57:56:763957,-3,1,-3,1,-8,-4,-4,1
14:57:56:779642,2,-5,-3,-7,11,5,8,-1
14:57:56:780523,2,-5,-3,-7,11,5,8,-1
14:57:56:786418,0,-1,6,4,-15,-4,-1,-4
14:57:56:793946,5,2,3,1,-2,4,-1,-1
14:57:56:801447,5,2,3,1,-2,4,-1,-1
14:57:56:808942,-1,-5,-9,-7,6,0,1,1
14:57:56:817127,-1,3,2,-1,2,-4,2,-4
14:57:56:817935,-1,3,2,-1,2,-4,2,-4
14:57:56:823883,-5,-4,1,-1,-4,-2,-5,-2
14:57:56:839628,-2,7,-4,2,1,1,0,2
14:57:56:840420,-2,7,-4,2,1,1,0,2
14:57:56:846453,-7,3,11,-3,-5,2,1,6
14:57:56:853971,-3,2,-14,1,3,1,-2,-3
14:57:56:861520,-3,2,-14,1,3,1,-2,-3
14:57:56:868866,44,9,6,9,8,-4,0,25
14:57:56:877204,2,-8,-11,6,-5,5,3,4
14:57:56:877996,2,-8,-11,6,-5,5,3,4
14:57:56:883933,-10,-2,-4,-11,-5,-1,1,-14
14:57:56:899655,-3,-4,1,-27,-6,-11,-3,-3
14:57:56:900534,-3,-4,1,-27,-6,-11,-3,-3
14:57:56:906417,-6,10,21,2,-11,-7,-6,-3
14:57:56:913871,-7,-2,7,26,14,0,-4,-6
14:57:56:921511,-7,-2,7,26,14,0,-4,-6
14:57:56:928901,-4,-10,-22,-25,-5,-10,3,0
14:57:56:937097,10,4,7,-10,-19,6,2,7
14:57:56:937934,10,4,7,-10,-19,6,2,7
14:57:56:943900,-3,-21,-13,1,-16,3,-17,-21
14:57:56:959633,72,10,7,-31,-9,6,7,25
14:57:56:960524,72,10,7,-31,-9,6,7,25
14:57:56:966425,-20,-2,-7,1,2,12,7,16
14:57:56:973922,-21,3,1,5,7,5,4,-11
14:57:56:981558,-21,3,1,5,7,5,4,-11
14:57:56:988934,-17,-7,-1,-2,17,2,1,-21
14:57:56:997117,-22,-12,-14,10,3,-11,-2,1
14:57:56:997947,-22,-12,-14,10,3,-11,-2,1
14:57:57:3915,4,5,2,17,3,-38,-6,0
14:57:57:19632,-4,2,2,8,-1,-12,-3,-6
14:57:57:20507,-4,2,2,8,-1,-12,-3,-6
14:57:57:26383,-23,6,4,4,4,11,3,-4
14:57:57:33941,13,-2,5,5,1,8,-1,9
14:57:57:41500,13,-2,5,5,1,8,-1,9
14:57:57:48959,0,-1,-11,2,5,10,-6,-28
14:57:57:57108,-19,-9,-14,3,3,11,10,-3
14:57:57:57885,-19,-9,-14,3,3,11,10,-3
14:57:57:63943,-22,15,21,12,2,-4,-9,-7
14:57:57:79623,8,7,5,-4,-1,-13,-9,2
14:57:57:80415,8,7,5,-4,-1,-13,-9,2
14:57:57:94524,16,-10,-13,-15,-2,4,6,17
14:57:57:95371,-4,-4,-9,-14,-3,-1,-3,2
14:57:57:101512,-4,-4,-9,-14,-3,-1,-3,2
14:57:57:108952,5,-4,-2,-6,-12,4,0,1
14:57:57:117114,-9,7,0,3,-9,2,0,-8
14:57:57:117915,-9,7,0,3,-9,2,0,-8
14:57:57:123955,25,7,0,7,8,6,4,7
14:57:57:139674,-49,-19,2,1,3,0,1,-35
14:57:57:140520,-49,-19,2,1,3,0,1,-35
14:57:57:146477,55,7,12,3,17,-5,4,40
14:57:57:153930,6,9,11,1,4,-3,0,6
14:57:57:161475,6,9,11,1,4,-3,0,6
14:57:57:168903,-6,-8,-15,-4,-3,-4,-7,-12
14:57:57:177115,9,2,13,13,2,2,4,-1
14:57:57:177892,9,2,13,13,2,2,4,-1
14:57:57:183943,9,-10,-5,-3,-12,4,-7,-8
14:57:57:199669,66,-3,-17,-10,-9,1,-9,24
14:57:57:200475,66,-3,-17,-10,-9,1,-9,24
14:57:57:206464,13,15,1,-1,5,8,5,-9
14:57:57:222131,-14,-8,6,3,5,-6,1,-9
14:57:57:222895,-14,-8,6,3,5,-6,1,-9
14:57:57:228983,-8,-15,-16,-20,-11,-4,1,1
14:57:57:237102,-13,5,6,0,1,-1,2,-3
14:57:57:237882,-13,5,6,0,1,-1,2,-3
14:57:57:243912,-31,-13,-6,11,1,-4,-3,-11
14:57:57:259581,-31,-13,-6,11,1,-4,-3,-11
14:57:57:260393,-10,-18,-8,-2,0,-4,-3,3
14:57:57:266442,-14,3,7,2,3,2,3,0
14:57:57:282181,-14,3,7,2,3,2,3,0
14:57:57:282984,-31,3,2,10,10,2,-4,-8
14:57:57:288958,8,-13,-15,-13,-3,0,3,24
14:57:57:297124,8,-13,-15,-13,-3,0,3,24
14:57:57:297910,-31,14,5,2,5,-1,-4,8
14:57:57:303949,7,4,1,-1,-6,-2,2,9
14:57:57:319642,7,4,1,-1,-6,-2,2,9
14:57:57:320508,-1,-7,-17,-22,-10,2,-3,8
14:57:57:326427,4,-6,2,1,-1,-3,-4,-2
14:57:57:350373,4,-6,2,1,-1,-3,-4,-2
14:57:57:351132,15,17,15,8,4,0,-2,-5
14:57:57:351939,3,6,-5,12,6,-1,-8,-46
14:57:57:357165,3,6,-5,12,6,-1,-8,-46
14:57:57:357945,22,-9,-1,10,0,-5,7,-4
14:57:57:371434,-11,-3,-8,6,-2,-3,-18,-9
14:57:57:379600,-11,-3,-8,6,-2,-3,-18,-9
14:57:57:380506,-3,7,-6,-1,-8,-12,-9,-26
14:57:57:386396,33,1,11,-2,-1,1,-1,28
14:57:57:402115,33,1,11,-2,-1,1,-1,28
14:57:57:402902,10,-5,-1,-6,-13,-1,0,12
14:57:57:408894,-15,-2,5,-6,-1,-2,4,-4
14:57:57:417121,-15,-2,5,-6,-1,-2,4,-4
14:57:57:417915,-3,1,7,-1,1,-2,3,2
14:57:57:431499,-4,2,-5,-1,-4,-3,-2,-2
14:57:57:439657,-4,2,-5,-1,-4,-3,-2,-2
14:57:57:440411,-11,0,-3,-6,-5,3,-3,-9
14:57:57:446388,-55,6,22,2,-11,-5,2,-32
14:57:57:462192,-55,6,22,2,-11,-5,2,-32
14:57:57:462932,12,-1,-8,2,9,4,7,5
14:57:57:477729,-22,-5,-4,1,2,-2,4,-8
14:57:57:478570,-22,-5,-4,1,2,-2,4,-8
14:57:57:479425,-4,-16,-15,-26,-15,-4,-6,-10
14:57:57:491414,7,18,3,13,6,-3,-6,-10
14:57:57:499618,7,18,3,13,6,-3,-6,-10
14:57:57:500543,38,0,-5,-3,3,5,0,8
14:57:57:506398,-20,-6,4,-10,-6,-3,-1,-1
14:57:57:522198,-20,-6,4,-10,-6,-3,-1,-1
14:57:57:522981,16,6,19,8,-3,-4,-5,38
14:57:57:528951,-4,-8,-9,21,28,5,10,14
14:57:57:537194,-4,-8,-9,21,28,5,10,14
14:57:57:537967,-58,-8,-4,-2,5,1,5,-22
14:57:57:551445,51,12,-3,-1,-17,-1,-4,13
14:57:57:559687,51,12,-3,-1,-17,-1,-4,13
14:57:57:560553,12,7,3,16,6,-1,-3,-1
14:57:57:566444,-38,-12,-7,-9,-9,-4,2,-9
14:57:57:582218,-38,-12,-7,-9,-9,-4,2,-9
14:57:57:583002,-10,3,14,-2,2,-2,-4,-16
14:57:57:588922,9,-4,2,3,6,-4,4,12
14:57:57:597155,9,-4,2,3,6,-4,4,12
14:57:57:597970,5,-1,0,16,1,1,4,3
14:57:57:611453,-7,-15,-18,4,6,3,-1,2
14:57:57:627771,-7,-15,-18,4,6,3,-1,2
14:57:57:628585,-5,-6,22,17,-4,1,-3,-17
14:57:57:629378,13,9,17,1,-11,5,1,8
14:57:57:642590,13,9,17,1,-11,5,1,8
14:57:57:649598,-3,2,0,-9,-6,0,2,0
14:57:57:650411,1,-9,-3,-9,-16,-8,-2,0
14:57:57:657127,1,-9,-3,-9,-16,-8,-2,0
14:57:57:657927,2,-4,-16,-9,-2,-4,-9,4
14:57:57:671435,6,-3,-4,-1,-2,0,-1,-10
14:57:57:679596,6,-3,-4,-1,-2,0,-1,-10
14:57:57:680386,74,20,-8,-6,5,-6,2,2
14:57:57:686466,74,1,-9,-4,-2,0,-7,40
14:57:57:702072,74,1,-9,-4,-2,0,-7,40
14:57:57:702888,-50,-8,-12,15,16,7,-10,-17
14:57:57:708975,-4,-4,-5,6,12,-1,-2,-7
14:57:57:717112,-4,-4,-5,6,12,-1,-2,-7
14:57:57:717919,10,-3,-20,-20,-22,-4,1,11
14:57:57:731418,-28,-4,-13,-22,-8,-3,-2,-10
14:57:57:739613,-28,-4,-13,-22,-8,-3,-2,-10
14:57:57:740389,-28,18,35,15,8,-3,1,-8
14:57:57:753963,-8,-1,0,-5,-1,-1,3,-2
14:57:57:762154,-8,-1,0,-5,-1,-1,3,-2
14:57:57:762941,-13,-18,-28,-20,-13,-4,1,3
14:57:57:777879,21,0,10,10,18,3,2,-6
14:57:57:778669,21,0,10,10,18,3,2,-6
14:57:57:779471,67,-12,-1,-17,3,1,-5,21
14:57:57:791409,-29,-5,11,-17,-14,-5,-9,-33
14:57:57:799708,-29,-5,11,-17,-14,-5,-9,-33
14:57:57:800561,-55,-13,-15,-15,-5,-1,2,-25
14:57:57:806469,11,10,29,3,-2,2,-2,18
14:57:57:830316,11,10,29,3,-2,2,-2,18
14:57:57:831081,-21,-8,-10,0,1,-2,-2,-5
14:57:57:831889,-6,4,-6,-30,-18,-5,-3,-6
14:57:57:837127,-6,4,-6,-30,-18,-5,-3,-6
14:57:57:837930,-6,-10,-11,-9,0,3,2,2
14:57:57:851516,11,-27,-30,-21,-6,2,5,5
14:57:57:859643,11,-27,-30,-21,-6,2,5,5
14:57:57:860410,-11,25,11,5,0,6,-2,-13
14:57:57:866415,-20,14,15,16,19,0,3,-15
14:57:57:882118,-20,14,15,16,19,0,3,-15
14:57:57:882903,48,-3,14,4,5,-10,2,3
14:57:57:888918,-3,-8,-18,-27,-23,-8,-4,1
14:57:57:897557,-3,-8,-18,-27,-23,-8,-4,1
14:57:57:903873,-34,-3,-2,7,-3,2,-3,-9
14:57:57:911422,-25,12,8,11,5,4,0,-22
14:57:57:919589,-25,12,8,11,5,4,0,-22
14:57:57:920400,10,12,12,21,11,3,3,13
14:57:57:926368,4,11,-6,6,-2,-3,-2,7
14:57:57:942124,4,11,-6,6,-2,-3,-2,7
14:57:57:942915,35,-3,0,12,-5,3,-1,12
14:57:57:957759,-19,0,0,31,10,-1,-2,-7
14:57:57:958559,-19,0,0,31,10,-1,-2,-7
14:57:57:959351,46,-10,-14,-3,9,3,-3,21
14:57:57:971378,-67,-11,-8,7,3,1,8,-17
14:57:57:979660,-67,-11,-8,7,3,1,8,-17
14:57:57:980520,-30,7,29,2,5,-4,2,8
14:57:57:986392,7,-14,-12,-10,-10,-7,-10,0
14:57:58:2170,7,-14,-12,-10,-10,-7,-10,0
14:57:58:2973,-27,8,-11,-2,0,-2,1,-10
14:57:58:8941,5,3,5,32,13,7,5,-4
14:57:58:17164,5,3,5,32,13,7,5,-4
14:57:58:17990,21,-12,-11,-7,-1,-4,-3,-3
14:57:58:31903,13,8,-3,-10,-6,-2,-5,9
14:57:58:39655,13,8,-3,-10,-6,-2,-5,9
14:57:58:40518,-15,5,2,11,9,-3,-2,10
14:57:58:46448,30,6,-4,2,-4,-5,-2,4
14:57:58:62192,30,6,-4,2,-4,-5,-2,4
14:57:58:62984,-30,-13,-1,-19,-11,-5,-1,0
14:57:58:68905,67,-1,11,1,2,2,2,22
14:57:58:77233,67,-1,11,1,2,2,2,22
14:57:58:77927,-30,10,1,-21,-12,2,1,-20
14:57:58:91411,-28,-7,-11,-4,7,0,-2,3
14:57:58:99662,-28,-7,-11,-4,7,0,-2,3
14:57:58:100589,3,-11,-7,12,-6,1,0,-4
14:57:58:106400,-15,-15,-21,-73,-27,-5,-4,0
14:57:58:122138,-15,-15,-21,-73,-27,-5,-4,0
14:57:58:122906,-7,-1,-8,-14,-8,-11,-4,-1
14:57:58:128889,-3,-4,-7,-10,12,3,-1,-5
14:57:58:137155,-3,-4,-7,-10,12,3,-1,-5
14:57:58:137909,-9,-7,-6,-5,8,-2,-1,-14
14:57:58:151414,-36,8,29,15,3,-2,1,-16
14:57:58:159616,-36,8,29,15,3,-2,1,-16
14:57:58:160421,2,1,-12,3,-7,4,2,-1
14:57:58:166386,-20,-9,-10,3,-4,2,0,8
14:57:58:182148,-20,-9,-10,3,-4,2,0,8
14:57:58:182919,34,8,12,15,5,4,5,11
14:57:58:188898,-5,-5,6,-5,-9,-8,-3,-1
14:57:58:197106,-5,-5,6,-5,-9,-8,-3,-1
14:57:58:197908,1,3,-31,-9,-14,-5,-4,0
14:57:58:211478,20,6,0,-11,10,2,0,6
14:57:58:219614,20,6,0,-11,10,2,0,6
14:57:58:220408,-4,-4,-2,7,1,-1,-1,1
14:57:58:226395,-11,-8,-5,10,-12,-7,-6,-15
14:57:58:242161,-11,-8,-5,10,-12,-7,-6,-15
14:57:58:242896,-15,-1,0,-18,-3,0,-3,-15
14:57:58:248918,-42,-2,-3,-1,3,0,-2,-27
14:57:58:257141,-42,-2,-3,-1,3,0,-2,-27
14:57:58:257973,4,1,-15,3,3,2,-1,17
14:57:58:271416,1,5,5,13,-2,-1,2,-8
14:57:58:279624,1,5,5,13,-2,-1,2,-8
14:57:58:280440,-19,-3,10,-5,-11,-2,-4,-23
14:57:58:286356,-12,-6,-9,6,-3,3,5,-1
14:57:58:302138,-12,-6,-9,6,-3,3,5,-1
14:57:58:302953,11,-4,1,-32,-1,-1,3,10
14:57:58:308972,4,5,-3,-20,-23,-4,-4,12
14:57:58:316455,4,5,-3,-20,-23,-4,-4,12
14:57:58:323917,9,2,20,19,6,-1,-2,0
14:57:58:331401,10,-3,0,1,8,-3,-2,-8
14:57:58:339643,10,-3,0,1,8,-3,-2,-8
14:57:58:340441,-37,3,11,-8,1,-2,-2,-40
14:57:58:353969,31,14,5,5,1,0,-3,4
14:57:58:362117,31,14,5,5,1,0,-3,4
14:57:58:362886,-17,-6,-6,16,14,1,1,-12
14:57:58:369055,11,-8,-4,2,6,-1,1,4
14:57:58:376512,11,-8,-4,2,6,-1,1,4
14:57:58:383879,12,-3,5,-4,-15,-6,-3,15
14:57:58:391375,49,9,-7,-11,1,-1,-4,27
14:57:58:399671,49,9,-7,-11,1,-1,-4,27
14:57:58:400545,16,-8,10,7,2,3,-4,14
14:57:58:413919,-13,0,13,9,5,2,4,-1
14:57:58:421925,-13,0,13,9,5,2,4,-1
14:57:58:430283,16,-2,-3,5,4,1,2,13
14:57:58:431013,5,-2,1,8,-13,-7,-3,17
14:57:58:436497,5,-2,1,8,-13,-7,-3,17
14:57:58:443920,6,1,3,-6,-11,1,0,8
14:57:58:451451,-9,-10,-26,-34,6,2,-7,-5
14:57:58:459693,-9,-10,-26,-34,6,2,-7,-5
14:57:58:460534,-6,9,-1,0,-8,1,-1,-1
14:57:58:473926,-20,-6,8,-4,5,1,3,-20
14:57:58:482183,-20,-6,8,-4,5,1,3,-20
14:57:58:482953,5,-5,-5,-23,-6,-1,2,-5
14:57:58:488943,-6,6,5,23,9,1,-1,-1
14:57:58:496529,-6,6,5,23,9,1,-1,-1
14:57:58:503943,-27,-15,-32,3,-4,-7,-8,-20
14:57:58:511434,-3,7,30,4,-10,-1,0,-3
14:57:58:519591,-3,7,30,4,-10,-1,0,-3
14:57:58:520397,27,-2,-10,-15,-6,0,-1,-9
14:57:58:533938,6,-14,-18,-5,-5,-1,-1,16
14:57:58:542145,6,-14,-18,-5,-5,-1,-1,16
14:57:58:542947,-22,-1,1,5,-3,0,-1,-4
14:57:58:548906,0,4,23,10,6,4,1,4
14:57:58:556435,0,4,23,10,6,4,1,4
14:57:58:563930,-1,-1,-2,15,19,-1,-1,-12
14:57:58:571457,31,11,-16,17,-4,-2,-3,-5
14:57:58:579660,31,11,-16,17,-4,-2,-3,-5
14:57:58:580435,4,6,18,-4,7,0,2,3
14:57:58:594371,-13,-5,-6,-4,-15,-2,-1,-15
14:57:58:602102,-13,-5,-6,-4,-15,-2,-1,-15
14:57:58:602915,-12,3,30,15,-9,2,5,7
14:57:58:608958,-8,-9,-23,2,1,-2,1,1
14:57:58:616435,-8,-9,-23,2,1,-2,1,1
14:57:58:623955,5,9,8,11,4,-4,-3,30
14:57:58:631435,7,2,1,-36,-1,-4,-2,1
14:57:58:639666,7,2,1,-36,-1,-4,-2,1
14:57:58:640458,-5,-13,-10,-3,-9,-4,-3,5
14:57:58:653978,9,5,-5,0,7,-1,0,1
14:57:58:662136,9,5,-5,0,7,-1,0,1
14:57:58:662942,9,12,-6,-18,-2,3,0,0
14:57:58:668884,-3,1,7,5,12,3,1,2
14:57:58:676513,-3,1,7,5,12,3,1,2
14:57:58:683924,-12,2,-5,12,12,2,1,0
14:57:58:691424,-16,8,-9,21,10,0,3,2
14:57:58:699702,-16,8,-9,21,10,0,3,2
14:57:58:700581,0,-7,-11,15,6,1,2,-3
14:57:58:713905,-5,-6,3,-14,-17,0,1,-1
14:57:58:722108,-5,-6,3,-14,-17,0,1,-1
14:57:58:722968,59,-14,0,-22,-3,-1,-1,33
14:57:58:728901,5,4,1,-2,-5,-4,-6,-5
14:57:58:736484,5,4,1,-2,-5,-4,-6,-5
14:57:58:743911,18,-7,2,-16,-8,-11,-2,2
14:57:58:751431,-18,0,2,-15,-7,-1,-1,3
14:57:58:759635,-18,0,2,-15,-7,-1,-1,3
14:57:58:760527,3,15,10,38,19,1,-4,4
14:57:58:773945,-5,-6,-11,10,10,-4,-4,-6
14:57:58:782146,-5,-6,-11,10,10,-4,-4,-6
14:57:58:782959,-28,-1,-2,-11,-2,-1,4,-12
14:57:58:788920,-2,-16,-1,-15,-9,-4,-3,-2
14:57:58:796512,-2,-16,-1,-15,-9,-4,-3,-2
14:57:58:803938,-13,1,-17,-20,-14,2,-6,-18
14:57:58:811433,11,9,4,4,-8,-2,0,7
14:57:58:819583,11,9,4,4,-8,-2,0,7
14:57:58:820381,-13,-14,-31,-16,1,-11,-11,-6
14:57:58:833965,-21,-7,-3,-23,-4,1,2,-7
14:57:58:842113,-21,-7,-3,-23,-4,1,2,-7
14:57:58:842883,-5,-4,10,1,-7,3,-2,2
14:57:58:848943,-12,18,9,24,3,-4,-2,-12
14:57:58:856486,-12,18,9,24,3,-4,-2,-12
14:57:58:872163,0,-7,-11,7,-4,-1,-1,-18
14:57:58:872964,30,-5,-2,-8,-3,1,1,7
14:57:58:879656,30,-5,-2,-8,-3,1,1,7
14:57:58:880402,2,19,10,0,0,-1,2,1
14:57:58:893928,2,-5,-19,-2,11,1,-2,0
14:57:58:902188,2,-5,-19,-2,11,1,-2,0
14:57:58:902952,-2,-4,-6,-14,10,-4,-1,-1
14:57:58:908951,11,-3,-8,14,1,3,0,19
14:57:58:916479,11,-3,-8,14,1,3,0,19
14:57:58:923967,-15,5,13,-14,-19,-1,-2,-3
14:57:58:931453,-36,-17,-8,-5,-4,-1,-2,-5
14:57:58:939652,-36,-17,-8,-5,-4,-1,-2,-5
14:57:58:940458,-18,-14,-10,6,11,-3,-2,-12
14:57:58:953981,-8,2,15,-6,3,4,4,-4
14:57:58:962133,-8,2,15,-6,3,4,4,-4
14:57:58:962951,2,3,4,4,-1,2,0,-6
14:57:58:968917,2,-5,-30,-14,-8,-10,-8,-15
14:57:58:976483,2,-5,-30,-14,-8,-10,-8,-15
14:57:58:983934,53,15,24,13,7,1,1,12
14:57:58:991408,2,-4,15,-8,-4,2,-2,-9
14:57:58:999664,2,-4,15,-8,-4,2,-2,-9
14:57:59:457,19,-12,-10,-20,-14,-4,2,7
14:57:59:13968,2,8,13,15,4,-3,1,13
14:57:59:22120,2,8,13,15,4,-3,1,13
14:57:59:22913,-46,-4,-3,12,-8,-1,-2,-6
14:57:59:28949,-7,-7,-2,-11,-1,1,2,-7
14:57:59:36515,-7,-7,-2,-11,-1,1,2,-7
14:57:59:43884,-53,0,7,18,1,1,3,-6
14:57:59:51410,-7,0,1,7,-6,-6,0,-3
14:57:59:59662,-7,0,1,7,-6,-6,0,-3
14:57:59:60507,0,-6,3,-6,-1,2,-5,-8
14:57:59:73912,0,-8,10,3,11,7,0,-6
14:57:59:82136,0,-8,10,3,11,7,0,-6
14:57:59:82941,-5,10,-33,-17,11,-1,-1,-9
14:57:59:88888,4,-1,-2,-4,-7,4,1,-7
14:57:59:96552,4,-1,-2,-4,-7,4,1,-7
14:57:59:103941,28,8,18,27,19,4,0,22
14:57:59:111395,-6,-6,-17,-6,-3,1,-3,-6
14:57:59:119659,-6,-6,-17,-6,-3,1,-3,-6
14:57:59:120490,-15,-11,-5,-10,-9,-1,-1,-18
14:57:59:133924,-7,-16,15,21,10,-1,0,6
14:57:59:142164,-7,-16,15,21,10,-1,0,6
14:57:59:142958,33,5,2,-33,3,-4,0,17
14:57:59:148939,12,3,0,7,-1,-4,-8,1
14:57:59:156548,12,3,0,7,-1,-4,-8,1
14:57:59:163899,-19,10,11,33,-4,-7,-2,-5
14:57:59:171436,7,1,15,-2,7,2,1,9
14:57:59:179646,7,1,15,-2,7,2,1,9
14:57:59:180369,12,-5,-14,-14,-9,-1,-4,-10
14:57:59:193899,19,17,0,9,5,-4,-2,3
14:57:59:202101,19,17,0,9,5,-4,-2,3
14:57:59:202894,20,-9,-2,2,-12,-2,-1,4
14:57:59:208953,-29,-3,-6,11,13,0,0,-25
14:57:59:224651,-29,-3,-6,11,13,0,0,-25
14:57:59:225524,31,0,-2,4,-3,3,-2,-12
14:57:59:231438,-37,-26,-16,-12,-5,-3,2,-7
14:57:59:238939,-37,-26,-16,-12,-5,-3,2,-7
14:57:59:246434,-8,6,40,21,0,-3,2,-1
14:57:59:253915,-1,-29,-31,-3,4,-1,-5,7
14:57:59:269639,-1,-29,-31,-3,4,-1,-5,7
14:57:59:270495,-17,-1,13,3,-4,-3,1,-2
14:57:59:277067,67,7,3,-2,-13,-5,-1,58
14:57:59:277917,67,7,3,-2,-13,-5,-1,58
14:57:59:283936,8,-5,-18,0,-9,-4,-4,-22
14:57:59:299605,-32,11,4,-11,-8,-3,0,-22
14:57:59:300412,-32,11,4,-11,-8,-3,0,-22
14:57:59:306437,-25,-6,-5,-9,6,2,2,8
14:57:59:313883,13,4,-7,24,7,1,-6,-2
14:57:59:322116,13,4,-7,24,7,1,-6,-2
14:57:59:322939,-10,-1,-7,-10,2,1,-3,-3
14:57:59:345311,26,5,12,-2,10,-3,-1,24
14:57:59:346126,26,5,12,-2,10,-3,-1,24
14:57:59:346879,-27,-17,-34,-21,-5,-4,-2,-3
14:57:59:351406,2,16,20,-14,-13,-2,1,-10
14:57:59:375268,2,16,20,-14,-13,-2,1,-10
14:57:59:376050,34,-11,-6,-49,-15,2,-1,30
14:57:59:376851,-36,-6,4,12,-10,-2,-1,-20
14:57:59:382115,-36,-6,4,12,-10,-2,-1,-20
14:57:59:382915,-21,1,-4,19,1,0,1,-23
14:57:59:397098,9,24,18,9,10,5,5,-1
14:57:59:397915,9,24,18,9,10,5,5,-1
14:57:59:403846,-26,-7,-15,5,7,2,-2,-4
14:57:59:411514,-23,-4,8,10,-13,-1,-1,-19
14:57:59:418935,-23,-4,8,10,-13,-1,-1,-19
14:57:59:426391,-2,4,4,-22,-8,-1,0,4
14:57:59:433926,5,7,-10,7,1,1,1,12
14:57:59:442140,5,7,-10,7,1,1,1,12
14:57:59:442922,30,-6,14,-5,-11,-4,2,18
14:57:59:457126,-1,-7,-15,-12,-2,-3,-5,-13
14:57:59:457925,-1,-7,-15,-12,-2,-3,-5,-13
14:57:59:472106,-8,-12,1,8,5,-3,3,-11
14:57:59:472912,0,-5,-2,3,4,-1,0,-14
14:57:59:478938,0,-5,-2,3,4,-1,0,-14
14:57:59:486415,-22,12,2,28,3,3,1,-1
14:57:59:494626,11,-2,-10,-8,2,0,-3,36
14:57:59:495407,11,-2,-10,-8,2,0,-3,36
14:57:59:501411,10,14,-2,-17,-9,-9,-8,-2
14:57:59:517155,-19,1,-1,-8,1,0,-2,-11
14:57:59:517961,-19,1,-1,-8,1,0,-2,-11
14:57:59:523943,-23,1,3,-6,8,-1,-4,-9
14:57:59:531378,10,-5,-11,-7,-7,-4,0,-3
14:57:59:547105,10,-5,-11,-7,-7,-4,0,-3
14:57:59:547921,-6,-5,4,12,12,4,1,-12
14:57:59:553845,16,-6,19,22,12,7,2,-2
14:57:59:569593,16,-6,19,22,12,7,2,-2
14:57:59:570405,10,7,13,20,1,-2,2,-2
14:57:59:577111,-26,-4,-13,15,-1,-7,-5,-19
14:57:59:577916,-26,-4,-13,15,-1,-7,-5,-19
14:57:59:583878,6,6,-6,-3,9,-2,0,6
14:57:59:591372,8,-4,-8,-12,-3,4,-3,6
14:57:59:598942,8,-4,-8,-12,-3,4,-3,6
14:57:59:606385,4,-5,-16,4,-2,3,-6,12
14:57:59:614575,6,10,-5,-19,-12,-3,3,2
14:57:59:615514,6,10,-5,-19,-12,-3,3,2
14:57:59:621384,-4,-3,-17,2,-6,-8,-1,5
14:57:59:653426,-43,-8,-11,-2,-1,0,-3,-19
14:57:59:654235,-43,-8,-11,-2,-1,0,-3,-19
14:57:59:655102,-6,-2,6,7,-4,0,-2,-1
14:57:59:655876,-26,1,15,18,4,-2,-4,-20
14:57:59:658942,-26,1,15,18,4,-2,-4,-20
14:57:59:666431,-1,-10,-14,-3,-1,3,-1,-13
14:57:59:674590,-35,3,6,-18,3,-3,3,-15
14:57:59:675401,-35,3,6,-18,3,-3,3,-15
14:57:59:681449,20,-8,9,3,2,-2,0,-1
14:57:59:697168,96,9,14,4,-5,-2,-5,26
14:57:59:697965,96,9,14,4,-5,-2,-5,26
14:57:59:703891,-12,-7,3,-16,3,0,0,-1
14:57:59:719615,-12,-17,-3,-6,0,0,-1,-5
14:57:59:720568,-12,-17,-3,-6,0,0,-1,-5
14:57:59:726406,4,6,16,10,-12,-5,-4,6
14:57:59:734686,7,12,-1,8,2,-1,1,10
14:57:59:735527,7,12,-1,8,2,-1,1,10
14:57:59:741434,4,-17,-19,-2,0,1,1,23
14:57:59:757168,23,5,26,0,-9,-3,-2,25
14:57:59:757975,23,5,26,0,-9,-3,-2,25
14:57:59:763943,-32,5,1,12,9,3,-2,-20
14:57:59:771460,22,-6,-19,-23,-1,1,0,4
14:57:59:778992,22,-6,-19,-23,-1,1,0,4
14:57:59:795238,3,6,1,12,10,-6,-2,-5
14:57:59:796069,8,2,7,4,2,-4,-7,2
14:57:59:796887,8,2,7,4,2,-4,-7,2
14:57:59:801448,9,6,-15,-11,-1,3,3,-1
14:57:59:818041,2,-6,-19,-19,-14,-2,1,7
14:57:59:824665,2,-6,-19,-19,-14,-2,1,7
14:57:59:825479,23,4,8,-8,-6,-1,-1,1
14:57:59:831393,-4,-1,10,-13,-10,-3,1,-10
14:57:59:847128,-4,-1,10,-13,-10,-3,1,-10
14:57:59:847954,-11,7,-1,2,-1,0,2,-14
14:57:59:854644,-14,-2,-6,6,-3,1,1,1
14:57:59:855490,-14,-2,-6,6,-3,1,1,1
14:57:59:861450,-8,-22,-12,-13,0,-1,-4,-14
14:57:59:877107,31,11,15,-22,-5,0,-2,6
14:57:59:877933,31,11,15,-22,-5,0,-2,6
14:57:59:883959,3,-6,-11,0,-2,1,1,7
14:57:59:891421,-13,-9,-7,10,-2,-3,-2,-13
14:57:59:898994,-13,-9,-7,10,-2,-3,-2,-13
14:57:59:906443,4,18,16,-6,-2,2,-1,8
14:57:59:922812,-31,-15,-25,-20,-5,-2,0,-5
14:57:59:923571,-31,-15,-25,-20,-5,-2,0,-5
14:57:59:924417,-25,10,13,8,2,0,-3,4
14:57:59:937091,13,6,22,10,0,-5,3,25
14:57:59:937949,13,6,22,10,0,-5,3,25
14:57:59:943886,9,-15,-10,-17,-7,0,3,8
14:57:59:951389,-7,-6,-19,-5,-4,-1,-4,-19
14:57:59:958956,-7,-6,-19,-5,-4,-1,-4,-19
14:57:59:975300,6,-17,4,-5,-8,-7,-6,12
14:57:59:976033,-9,10,18,14,16,4,6,-2
14:57:59:976887,-9,10,18,14,16,4,6,-2
14:57:59:981393,18,-1,1,4,-4,0,-1,-5
14:57:59:997142,5,-7,-19,3,-1,-2,-3,-3
14:57:59:997927,5,-7,-19,3,-1,-2,-3,-3
14:58:00:3897,10,7,25,20,1,-1,2,-18
14:58:00:11409,-7,-2,-4,-14,-4,4,5,0
14:58:00:18962,-7,-2,-4,-14,-4,4,5,0
14:58:00:26442,-34,-4,-24,-25,8,2,-6,-18
14:58:00:34647,-23,-5,-1,-17,-1,-1,-1,-7
14:58:00:35537,-23,-5,-1,-17,-1,-1,-1,-7
14:58:00:48904,10,5,-7,3,-1,-4,-3,0
14:58:00:57093,-14,5,-4,-2,3,-3,-3,-10
14:58:00:57896,-14,5,-4,-2,3,-3,-3,-10
14:58:00:63930,-1,-2,-16,-7,-5,-4,-2,-9
14:58:00:71440,14,0,13,-4,-3,1,0,8
14:58:00:78977,14,0,13,-4,-3,1,0,8
14:58:00:86452,2,-12,-7,9,-3,-1,0,5
14:58:00:94599,13,1,2,15,16,-1,-1,11
14:58:00:95509,13,1,2,15,16,-1,-1,11
14:58:00:101410,0,-9,-17,-13,-10,-3,4,16
14:58:00:125274,32,14,12,-4,-11,0,-1,7
14:58:00:126078,32,14,12,-4,-11,0,-1,7
14:58:00:126884,-26,5,15,-3,6,0,-2,-4
14:58:00:131425,-16,-12,-34,0,-9,-6,-1,-9
14:58:00:139045,-16,-12,-34,0,-9,-6,-1,-9
14:58:00:146387,-9,6,7,17,9,0,-1,-6
14:58:00:154609,16,-11,-6,2,-9,-4,-6,4
14:58:00:155563,16,-11,-6,2,-9,-4,-6,4
14:58:00:161435,-17,3,19,0,9,1,-1,7
14:58:00:177157,-14,4,-1,15,2,-5,-9,-19
14:58:00:177930,-14,4,-1,15,2,-5,-9,-19
14:58:00:183893,28,5,-7,1,7,-3,1,13
14:58:00:199661,-13,4,15,4,4,1,2,-1
14:58:00:200444,-13,4,15,4,4,1,2,-1
14:58:00:206402,-6,-6,-15,-20,-10,0,0,-4
14:58:00:214630,-12,8,10,13,1,-1,2,-5
14:58:00:215517,-12,8,10,13,1,-1,2,-5
14:58:00:228894,52,-20,7,-7,16,4,0,19
14:58:00:237123,6,21,23,10,14,9,4,7
14:58:00:237892,6,21,23,10,14,9,4,7
14:58:00:243865,-17,5,0,2,-5,-1,2,-12
14:58:00:259592,-5,-17,-20,-15,-9,-1,0,-3
14:58:00:260407,-5,-17,-20,-15,-9,-1,0,-3
14:58:00:266454,31,-3,-4,-5,-14,-5,-4,11
14:58:00:273914,-3,-5,-26,1,-8,-3,-5,-9
14:58:00:281501,-3,-5,-26,1,-8,-3,-5,-9
14:58:00:288928,-14,14,20,0,-4,-3,1,-7
14:58:00:297176,16,-8,8,-11,-4,3,3,12
14:58:00:297964,16,-8,8,-11,-4,3,3,12
14:58:00:303955,-15,-2,29,12,-3,5,1,-2
14:58:00:319600,-21,-27,-24,1,20,-1,-1,-16
14:58:00:320427,-21,-27,-24,1,20,-1,-1,-16
14:58:00:326403,-1,13,6,10,0,-2,-4,-9
14:58:00:334659,6,0,-7,11,1,-1,-2,3
14:58:00:335503,6,0,-7,11,1,-1,-2,3
14:58:00:348907,-16,9,-24,-6,1,-7,-3,-30
14:58:00:357130,-1,1,12,19,6,-3,2,-3
14:58:00:357925,-1,1,12,19,6,-3,2,-3
14:58:00:363885,-23,-9,-11,-8,-3,0,-8,-8
14:58:00:379679,-10,11,27,-4,-10,1,0,5
14:58:00:380449,-10,11,27,-4,-10,1,0,5
14:58:00:386387,-2,-5,-22,-10,-9,-2,-2,-13
14:58:00:394986,-14,-6,-16,1,3,-6,-4,-24
14:58:00:401554,-14,-6,-16,1,3,-6,-4,-24
14:58:00:408919,42,4,13,2,-1,-2,3,13
14:58:00:417128,-11,-5,-6,-4,-13,0,-4,-11
14:58:00:417955,-11,-5,-6,-4,-13,0,-4,-11
14:58:00:423998,-7,-7,-3,18,3,1,0,7
14:58:00:439644,7,0,-3,-8,2,-1,3,11
14:58:00:440451,7,0,-3,-8,2,-1,3,11
14:58:00:446434,5,9,16,0,-3,4,2,9
14:58:00:454603,15,-15,-25,-8,-10,-2,-2,12
14:58:00:455408,15,-15,-25,-8,-10,-2,-2,12
14:58:00:477730,10,11,-2,1,-12,-4,-3,-5
14:58:00:478608,9,16,15,14,4,3,2,2
14:58:00:479436,9,16,15,14,4,3,2,2
14:58:00:483927,-23,-9,-9,-25,-13,-5,0,-1
14:58:00:499593,11,-6,5,-4,-10,-4,-4,-2
14:58:00:500383,11,-6,5,-4,-10,-4,-4,-2
14:58:00:506395,-15,0,-6,13,3,-1,-3,13
14:58:00:514582,-16,-15,-6,-11,10,0,-3,-1
14:58:00:515442,-16,-15,-6,-11,10,0,-3,-1
14:58:00:528933,-23,-3,5,-7,-5,-2,-1,-7
14:58:00:537121,31,6,-13,-6,-4,-5,0,28
14:58:00:537897,31,6,-13,-6,-4,-5,0,28
14:58:00:543902,22,15,25,13,-3,2,3,7
14:58:00:559565,-14,-12,-12,-2,-2,-7,-3,-13
14:58:00:560395,-14,-12,-12,-2,-2,-7,-3,-13
14:58:00:566397,3,-1,-6,-7,-7,-3,-4,-4
14:58:00:574636,-25,12,4,-2,-1,5,1,-6
14:58:00:575455,-25,12,4,-2,-1,5,1,-6
14:58:00:588998,-7,-13,0,-11,-2,4,1,-2
14:58:00:597594,-7,-13,0,-11,-2,4,1,-2
14:58:00:604574,21,-6,-12,9,-1,-3,-8,15
14:58:00:605415,48,3,6,-2,-10,0,1,14
14:58:00:619616,48,3,6,-2,-10,0,1,14
14:58:00:620416,-10,4,10,-10,-3,2,4,-7
14:58:00:626431,-33,-17,-11,3,10,0,-2,-9
14:58:00:642524,-33,-17,-11,3,10,0,-2,-9
14:58:00:649583,-12,2,0,2,0,-2,-1,-12
14:58:00:650419,19,14,-5,2,8,1,2,5
14:58:00:657144,19,14,-5,2,8,1,2,5
14:58:00:657938,-1,-10,-3,-5,1,1,-1,0
14:58:00:663932,6,-2,-1,7,-4,-3,-7,1
14:58:00:679593,6,-2,-1,7,-4,-3,-7,1
14:58:00:680360,-2,-1,4,-4,14,1,0,-1
14:58:00:686414,-10,6,-7,0,1,-6,0,-13
14:58:00:702138,-10,6,-7,0,1,-6,0,-13
14:58:00:702985,0,3,9,-7,-16,1,4,-4
14:58:00:708925,7,-16,-11,-3,5,-2,-5,3
14:58:00:717128,7,-16,-11,-3,5,-2,-5,3
14:58:00:717927,-10,10,3,3,3,1,-1,-10
14:58:00:723937,-9,-1,-14,12,2,4,1,-8
14:58:00:739652,-9,-1,-14,12,2,4,1,-8
14:58:00:740615,1,3,5,-1,4,-2,-1,-4
14:58:00:746471,-16,-15,-17,-27,8,-3,-1,-3
14:58:00:762153,-16,-15,-17,-27,8,-3,-1,-3
14:58:00:762936,-9,10,10,5,-12,0,1,1
14:58:00:768885,-10,-1,0,-2,20,0,5,-13
14:58:00:777093,-10,-1,0,-2,20,0,5,-13
14:58:00:777907,1,-23,0,-10,-1,-5,-4,-1
14:58:00:783934,9,3,24,19,11,-4,-4,-6
14:58:00:799651,9,3,24,19,11,-4,-4,-6
14:58:00:800445,-15,-1,-4,2,-9,-9,-3,-7
14:58:00:806367,-12,-5,-27,-8,-9,1,-1,-6
14:58:00:822201,-12,-5,-27,-8,-9,1,-1,-6
14:58:00:822970,7,-5,-8,-3,-4,5,2,7
14:58:00:828965,-24,1,0,-12,0,3,-1,-7
14:58:00:837203,-24,1,0,-12,0,3,-1,-7
14:58:00:837962,-57,6,14,4,-4,0,-1,-10
14:58:00:851426,0,-12,-15,-3,-2,-4,-6,6
14:58:00:859615,0,-12,-15,-3,-2,-4,-6,6
14:58:00:860421,39,2,-5,3,3,-3,-2,2
14:58:00:866407,12,-2,23,15,0,0,3,16
14:58:00:882097,12,-2,23,15,0,0,3,16
14:58:00:882896,-4,4,-5,2,-4,-12,-2,-1
14:58:00:888897,11,15,-1,-5,-25,-1,-1,-1
14:58:00:897124,11,15,-1,-5,-25,-1,-1,-1
14:58:00:897904,-2,-11,-19,-1,13,16,-4,-6
14:58:00:903899,1,-3,16,5,-1,-15,-5,-1
14:58:00:919597,1,-3,16,5,-1,-15,-5,-1
14:58:00:920449,25,5,7,-1,3,-10,4,13
14:58:00:926376,-7,-19,-19,-2,0,6,0,-3
14:58:00:942130,-7,-19,-19,-2,0,6,0,-3
14:58:00:942893,4,6,12,-7,-3,7,-2,-1
14:58:00:948934,-7,-15,-28,-8,-3,2,-1,-3
14:58:00:957184,-7,-15,-28,-8,-3,2,-1,-3
14:58:00:957991,8,13,10,3,5,1,3,2
14:58:00:963954,-5,8,3,-15,6,6,-2,-1
14:58:00:979654,-5,8,3,-15,6,6,-2,-1
14:58:00:980448,-4,-5,32,-10,-8,-13,-5,-5
14:58:00:986357,50,-1,-10,5,14,9,6,12
14:58:00:994001,50,-1,-10,5,14,9,6,12
14:58:01:1415,-23,-8,-8,-8,1,4,0,-1
14:58:01:8903,6,8,15,-2,-5,0,3,-5
14:58:01:17159,6,8,15,-2,-5,0,3,-5
14:58:01:17938,-2,-18,-27,3,2,-13,-8,-3
14:58:01:23951,2,0,0,-6,-13,-10,-6,-16
14:58:01:39650,2,0,0,-6,-13,-10,-6,-16
14:58:01:40450,21,25,14,-1,0,6,3,14
14:58:01:46430,-4,-2,-17,-4,-3,-8,-2,6
14:58:01:54001,-4,-2,-17,-4,-3,-8,-2,6
14:58:01:61392,-17,-10,-24,7,2,5,0,-9
14:58:01:68898,-20,7,25,6,0,-5,-3,-2
14:58:01:77128,-20,7,25,6,0,-5,-3,-2
14:58:01:77901,-2,-7,-7,-2,0,2,1,-9
14:58:01:91491,1,2,-3,5,-7,4,0,9
14:58:01:99665,1,2,-3,5,-7,4,0,9
14:58:01:100465,7,-8,-8,8,-1,6,0,4
14:58:01:106463,-3,15,37,4,6,1,3,6
14:58:01:113919,-3,15,37,4,6,1,3,6
14:58:01:121472,-6,-15,-9,-8,8,-4,-2,-2
14:58:01:128961,2,-7,-3,2,16,5,-3,-1
14:58:01:137092,2,-7,-3,2,16,5,-3,-1
14:58:01:137865,4,8,17,5,-3,-3,1,9
14:58:01:151459,-12,-16,-26,-19,-15,-6,-5,4
14:58:01:159592,-12,-16,-26,-19,-15,-6,-5,4
14:58:01:160399,-3,3,11,-3,-1,1,1,-6
14:58:01:166457,-15,-12,17,3,-1,-3,0,-9
14:58:01:173962,-15,-12,17,3,-1,-3,0,-9
14:58:01:181410,1,-8,-17,-3,-13,-10,-3,-1
14:58:01:188901,-13,-10,-14,3,-13,-4,-9,-7
14:58:01:197125,-13,-10,-14,3,-13,-4,-9,-7
14:58:01:197930,-42,15,22,7,5,3,-1,-10
14:58:01:211421,-15,1,-5,-10,7,2,4,-10
14:58:01:219628,-15,1,-5,-10,7,2,4,-10
14:58:01:220385,11,-3,-12,-15,-2,5,0,-2
14:58:01:226384,-7,12,4,6,11,-1,0,0
14:58:01:233960,-7,12,4,6,11,-1,0,0
14:58:01:241467,16,-3,1,0,7,5,-2,5
14:58:01:248868,-6,-9,-9,-6,-5,-17,-7,-8
14:58:01:257214,-6,-9,-9,-6,-5,-17,-7,-8
14:58:01:257986,14,8,9,9,1,0,1,3
14:58:01:271457,22,0,-23,-7,-3,-3,2,4
14:58:01:279651,22,0,-23,-7,-3,-3,2,4
14:58:01:280438,6,-6,2,-5,-5,-4,-7,5
14:58:01:286361,-4,-2,4,0,-5,1,2,0
14:58:01:293990,-4,-2,4,0,-5,1,2,0
14:58:01:301402,-2,-8,-14,-14,-11,-3,-4,-5
14:58:01:308927,4,8,16,26,-14,1,-1,0
14:58:01:317144,4,8,16,26,-14,1,-1,0
14:58:01:317917,5,-3,-6,-29,-18,-8,-3,-3
14:58:01:340255,-5,-7,-10,-22,-6,5,-1,2
14:58:01:341100,-5,-7,-10,-22,-6,5,-1,2
14:58:01:341874,-2,1,2,5,-24,-4,-2,-1
14:58:01:346376,0,0,12,2,8,-3,-7,-10
14:58:01:362096,0,0,12,2,8,-3,-7,-10
14:58:01:362899,2,-2,-5,-3,10,5,1,2
14:58:01:368983,1,0,4,3,3,2,3,4
14:58:01:377137,1,0,4,3,3,2,3,4
14:58:01:377949,-3,-1,-20,11,10,1,1,-8
14:58:01:391465,5,10,-1,-7,3,2,1,0
14:58:01:399427,5,10,-1,-7,3,2,1,0
14:58:01:407041,2,9,11,5,17,8,2,0
14:58:01:407832,1,-7,-12,3,-5,-9,2,0
14:58:01:422105,1,-7,-12,3,-5,-9,2,0
14:58:01:422866,-5,-8,-6,-10,-60,-22,-6,-8
14:58:01:428906,-16,-1,2,-4,1,0,0,-10
14:58:01:437092,-16,-1,2,-4,1,0,0,-10
14:58:01:437909,59,6,-3,2,8,1,-2,39
14:58:01:451461,14,8,14,6,5,5,0,9
14:58:01:459609,14,8,14,6,5,5,0,9
14:58:01:460387,-21,-5,3,6,11,2,-1,-19
14:58:01:466433,-7,1,23,21,23,4,3,1
14:58:01:482142,-7,1,23,21,23,4,3,1
14:58:01:482976,17,-12,-12,-7,-10,-6,2,35
14:58:01:488903,-24,-5,-2,-3,-5,-2,-11,-21
14:58:01:497127,-24,-5,-2,-3,-5,-2,-11,-21
14:58:01:497887,-19,-4,1,-20,3,1,-5,-19
14:58:01:511471,25,-5,-9,-7,-5,-6,-9,4
14:58:01:519644,25,-5,-9,-7,-5,-6,-9,4
14:58:01:520550,-16,0,-2,4,7,0,4,-11
14:58:01:526437,8,-2,-6,-14,-17,-21,5,-1
14:58:01:542202,8,-2,-6,-14,-17,-21,5,-1
14:58:01:542962,7,-2,0,12,10,2,3,0
14:58:01:548932,14,2,3,3,-23,10,2,11
14:58:01:557117,14,2,3,3,-23,10,2,11
14:58:01:557904,-22,-9,-35,-11,4,-3,-9,-18
14:58:01:571483,32,16,49,8,7,5,-8,2
14:58:01:579679,32,16,49,8,7,5,-8,2
14:58:01:580495,-18,-7,6,-5,-1,-1,3,-20
14:58:01:586422,-24,-12,-28,-4,7,-6,4,-17
14:58:01:602133,-24,-12,-28,-4,7,-6,4,-17
14:58:01:602925,17,4,-1,5,0,-1,5,14
14:58:01:608931,-11,-1,-6,-2,2,-1,1,-5
14:58:01:617196,-11,-1,-6,-2,2,-1,1,-5
14:58:01:617971,-14,4,-1,4,-4,-3,0,3
14:58:01:631382,13,-1,-8,-6,4,2,-2,28
14:58:01:639628,13,-1,-8,-6,4,2,-2,28
14:58:01:640454,13,-1,7,0,-5,-1,-4,-12
14:58:01:646458,4,-1,-13,1,-2,-17,-2,6
14:58:01:662135,4,-1,-13,1,-2,-17,-2,6
14:58:01:662917,19,6,10,5,0,2,2,20
14:58:01:668903,3,-1,-15,-5,12,10,-1,-6
14:58:01:677138,3,-1,-15,-5,12,10,-1,-6
14:58:01:677929,-5,3,8,13,21,7,-3,-1
14:58:01:691425,-9,-1,-2,-10,-4,9,6,3
14:58:01:699626,-9,-1,-2,-10,-4,9,6,3
14:58:01:700426,-4,-2,-3,-3,-4,-6,-6,-2
14:58:01:706382,-22,-4,-5,1,6,8,3,-3
14:58:01:722622,-22,-4,-5,1,6,8,3,-3
14:58:01:723415,35,3,-1,1,1,7,7,12
14:58:01:728916,0,0,-4,-4,-8,0,-5,-11
14:58:01:737163,0,0,-4,-4,-8,0,-5,-11
14:58:01:737938,-22,-3,-5,-11,-7,-7,2,-8
14:58:01:751467,23,1,-1,-1,-3,0,2,17
14:58:01:759637,23,1,-1,-1,-3,0,2,17
14:58:01:760437,-2,1,4,2,3,-6,-4,-2
14:58:01:766399,-11,-4,-7,-4,-4,-13,-5,-3
14:58:01:782166,-11,-4,-7,-4,-4,-13,-5,-3
14:58:01:782949,-6,-3,-10,2,16,5,-4,-4
14:58:01:788910,-10,2,2,13,3,2,0,-10
14:58:01:797155,-10,2,2,13,3,2,0,-10
14:58:01:797945,-26,1,8,-2,-1,-1,1,-6
14:58:01:811421,-1,1,-3,-6,1,10,2,4
14:58:01:819649,-1,1,-3,-6,1,10,2,4
14:58:01:820391,-6,-6,-10,-16,-13,-11,-14,-10
14:58:01:826428,-7,2,-4,5,-13,-8,-5,-2
14:58:01:842156,-7,2,-4,5,-13,-8,-5,-2
14:58:01:842892,-2,2,6,2,0,1,3,0
14:58:01:848970,-6,-7,-6,2,16,3,1,-5
14:58:01:857146,-6,-7,-6,2,16,3,1,-5
14:58:01:857882,0,-3,-8,-39,-28,-18,-5,-3
14:58:01:871424,-2,-1,5,-8,-7,-11,-5,-5
14:58:01:879620,-2,-1,5,-8,-7,-11,-5,-5
14:58:01:880411,1,3,6,15,21,-2,0,4
14:58:01:886380,-12,-15,-19,-7,-7,-10,-10,-20
14:58:01:902105,-12,-15,-19,-7,-7,-10,-10,-20
14:58:01:902894,0,2,11,9,6,9,-2,-1
14:58:01:908950,2,-10,-9,8,11,10,15,16
14:58:01:917109,2,-10,-9,8,11,10,15,16
14:58:01:917896,-5,2,3,-3,13,12,11,-4
14:58:01:931439,-5,20,38,26,15,1,-3,-7
14:58:01:939603,-5,20,38,26,15,1,-3,-7
14:58:01:940387,-9,-11,-19,6,-2,9,-5,-3
14:58:01:946426,4,-6,-5,-19,-13,6,-1,6
14:58:01:962106,4,-6,-5,-19,-13,6,-1,6
14:58:01:962907,-1,5,1,5,-5,7,0,-5
14:58:01:968893,-6,2,-3,-4,-17,-3,4,-7
14:58:01:977157,-6,2,-3,-4,-17,-3,4,-7
14:58:01:977962,2,-3,2,-1,-12,-35,-9,-3
14:58:01:991431,-1,-5,-14,12,8,-6,-3,-1
14:58:01:999590,-1,-5,-14,12,8,-6,-3,-1
14:58:02:404,3,-6,-9,-19,-8,9,4,3
14:58:02:6419,-9,-3,-5,-20,-11,-10,-16,-13
14:58:02:22155,-9,-3,-5,-20,-11,-10,-16,-13
14:58:02:22940,10,1,5,7,0,-11,-15,4
14:58:02:28957,3,-1,-9,0,14,13,4,5
14:58:02:37125,3,-1,-9,0,14,13,4,5
14:58:02:37903,9,16,34,15,-9,13,14,9
14:58:02:51493,5,1,0,-7,-43,-40,-31,9
14:58:02:59642,5,1,0,-7,-43,-40,-31,9
14:58:02:60419,-20,-4,-20,0,0,-7,5,-8
14:58:02:66417,4,-2,6,-2,14,-1,-4,3
14:58:02:82168,4,-2,6,-2,14,-1,-4,3
14:58:02:82962,13,-4,-5,2,8,0,-5,16
14:58:02:88899,8,-6,-13,-12,-5,9,9,6
14:58:02:96524,8,-6,-13,-12,-5,9,9,6
14:58:02:103913,-1,10,0,15,23,-17,-12,-10
14:58:02:111447,-9,-2,17,12,20,-15,0,-4
14:58:02:119590,-9,-2,17,12,20,-15,0,-4
14:58:02:120368,-7,-6,8,21,24,14,7,-7
14:58:02:134557,6,-7,-27,-19,0,22,15,-22
14:58:02:135388,6,-7,-27,-19,0,22,15,-22
14:58:02:141409,1,11,10,-2,-18,-5,-10,-12
14:58:02:148919,-2,7,0,27,35,7,7,-2
14:58:02:156492,-2,7,0,27,35,7,7,-2
14:58:02:163882,-6,-18,-26,0,-7,12,13,7
14:58:02:171449,-17,-8,-7,1,0,-19,-16,-28
14:58:02:179643,-17,-8,-7,1,0,-19,-16,-28
14:58:02:180420,2,-9,3,-2,17,1,16,14
14:58:02:194573,-2,4,9,-9,43,0,3,4
14:58:02:195422,-2,4,9,-9,43,0,3,4
14:58:02:201378,8,0,-2,1,-27,-26,-15,-38
14:58:02:208878,7,15,25,12,-20,16,14,17
14:58:02:216493,7,15,25,12,-20,16,14,17
14:58:02:223931,-3,-9,-13,-11,4,10,5,5
14:58:02:231426,5,8,3,-1,-3,-15,-8,-7
14:58:02:239589,5,8,3,-1,-3,-15,-8,-7
14:58:02:240425,-6,-3,-11,-7,-7,-15,-10,1
14:58:02:254599,-3,-7,-8,-25,-19,12,1,8
14:58:02:255407,-3,-7,-8,-25,-19,12,1,8
14:58:02:261422,-10,-19,-25,-44,1,-4,-7,-5
14:58:02:268888,31,10,27,-22,-27,-5,0,15
14:58:02:276461,31,10,27,-22,-27,-5,0,15
14:58:02:283893,-11,2,7,8,-9,-3,-5,-2
14:58:02:291474,-4,-9,-11,9,-28,10,1,6
14:58:02:299690,-4,-9,-11,9,-28,10,1,6
14:58:02:300483,1,13,17,20,17,7,5,1
14:58:02:314651,-20,-16,-22,2,16,-6,-4,-13
14:58:02:315449,-20,-16,-22,2,16,-6,-4,-13
14:58:02:321414,13,16,1,0,1,6,0,16
14:58:02:328913,-9,-5,-8,-16,-50,-16,1,-10
14:58:02:336455,-9,-5,-8,-16,-50,-16,1,-10
14:58:02:343962,-53,-12,-11,-21,-34,4,-3,-10
14:58:02:351394,0,3,0,6,1,0,1,11
14:58:02:359568,0,3,0,6,1,0,1,11
14:58:02:360368,8,0,4,-1,2,0,-2,2
14:58:02:374661,-8,-10,-9,10,12,-5,3,-3
14:58:02:375446,-8,-10,-9,10,12,-5,3,-3
14:58:02:381418,9,2,28,13,-11,-8,-2,1
14:58:02:388898,18,35,49,18,6,3,1,5
14:58:02:396423,18,35,49,18,6,3,1,5
14:58:02:403912,1,-16,3,30,-6,-1,2,1
14:58:02:411400,0,-12,-31,-12,21,4,-4,-8
14:58:02:419613,0,-12,-31,-12,21,4,-4,-8
14:58:02:420433,-68,1,-1,-9,6,1,-3,-38
14:58:02:434650,3,7,19,13,29,8,11,-1
14:58:02:435391,3,7,19,13,29,8,11,-1
14:58:02:441415,4,-12,-18,-7,25,-1,5,5
14:58:02:448996,22,17,8,18,-10,2,-4,-12
14:58:02:456455,22,17,8,18,-10,2,-4,-12
14:58:02:463931,17,-1,-22,18,19,8,-2,2
14:58:02:471436,4,-1,-1,-18,-22,18,7,17
14:58:02:479619,4,-1,-1,-18,-22,18,7,17
14:58:02:480424,20,3,-3,-5,0,-5,-10,4
14:58:02:494644,-22,-16,-14,-6,7,-24,-8,-11
14:58:02:495443,-22,-16,-14,-6,7,-24,-8,-11
14:58:02:501367,10,-6,30,-16,-8,0,1,12
14:58:02:508880,-15,-5,-7,18,0,-8,-19,-30
14:58:02:516474,-15,-5,-7,18,0,-8,-19,-30
14:58:02:523911,4,-14,-24,-7,17,-7,-6,-5
14:58:02:531423,7,11,20,-20,-4,19,5,23
14:58:02:547136,7,11,20,-20,-4,19,5,23
14:58:02:547922,5,3,-5,-2,-27,2,1,-6
14:58:02:554581,0,-16,-14,0,4,-6,-6,9
14:58:02:555392,0,-16,-14,0,4,-6,-6,9
14:58:02:561397,-26,12,21,7,-2,8,4,7
14:58:02:568872,-16,-12,-17,-8,-5,-7,-3,-8
14:58:02:576504,-16,-12,-17,-8,-5,-7,-3,-8
14:58:02:583928,19,5,-7,-9,-2,-3,0,16
14:58:02:591467,-18,-13,-7,-17,23,-4,-2,4
14:58:02:599627,-18,-13,-7,-17,23,-4,-2,4
14:58:02:600450,18,14,5,8,11,13,7,3
14:58:02:614649,5,-14,-16,2,9,22,-4,-1
14:58:02:615457,5,-14,-16,2,9,22,-4,-1
14:58:02:621391,-1,-5,-6,-13,-3,3,-4,-5
14:58:02:628909,-1,16,22,-26,-38,-21,1,-4
14:58:02:636444,-1,16,22,-26,-38,-21,1,-4
14:58:02:644019,1,-2,-7,-12,4,3,3,-5
14:58:02:651464,-10,-18,-38,-34,-32,-8,-1,9
14:58:02:659585,-10,-18,-38,-34,-32,-8,-1,9
14:58:02:660404,20,26,31,15,-23,-10,-2,10
14:58:02:674619,1,-9,-2,2,-12,-16,-7,-4
14:58:02:675421,1,-9,-2,2,-12,-16,-7,-4
14:58:02:681399,-3,-27,-25,-35,-40,-9,-6,15
14:58:02:688961,3,17,40,36,6,18,8,-2
14:58:02:696481,3,17,40,36,6,18,8,-2
14:58:02:703953,-4,-9,-13,29,33,-2,3,-1
14:58:02:711402,-17,5,11,16,10,14,5,-7
14:58:02:719638,-17,5,11,16,10,14,5,-7
14:58:02:720438,2,10,44,4,-31,-12,2,-20
14:58:02:734602,8,5,2,51,22,4,6,-1
14:58:02:735436,8,5,2,51,22,4,6,-1
14:58:02:741486,-10,-14,-29,-19,3,-1,-2,-16
14:58:02:748949,-3,0,8,-23,-7,-2,-8,-10
14:58:02:756496,-3,0,8,-23,-7,-2,-8,-10
14:58:02:763914,-25,-4,3,-15,2,8,-1,-6
14:58:02:771385,2,-10,-28,-26,-16,-8,-3,7
14:58:02:779644,2,-10,-28,-26,-16,-8,-3,7
14:58:02:780410,-1,7,19,14,20,-7,-16,-7
14:58:02:794696,-8,0,-20,-8,14,-2,2,3
14:58:02:795489,-8,0,-20,-8,14,-2,2,3
14:58:02:801395,4,3,3,35,17,-2,6,-2
14:58:02:808888,5,-5,-13,-2,-16,-12,-2,-6
14:58:02:816476,5,-5,-13,-2,-16,-12,-2,-6
14:58:02:823886,-4,-5,-16,-38,-33,-5,-9,1
14:58:02:831402,-18,1,15,13,15,-2,-1,0
14:58:02:839636,-18,1,15,13,15,-2,-1,0
14:58:02:840422,6,1,-6,11,14,4,4,11
14:58:02:854620,-19,-7,13,-10,-3,6,-1,-12
14:58:02:855446,-19,-7,13,-10,-3,6,-1,-12
14:58:02:861399,13,8,2,12,16,1,-1,4
14:58:02:868902,7,-11,-24,-1,3,3,-1,-27
14:58:02:876489,7,-11,-24,-1,3,3,-1,-27
14:58:02:883885,10,-1,6,15,-5,0,-7,-5
14:58:02:891426,1,7,31,19,7,-1,6,5
14:58:02:899673,1,7,31,19,7,-1,6,5
14:58:02:900441,6,-5,-13,-9,-19,-2,-5,-5
14:58:02:914624,2,-9,-23,-5,-11,-10,-7,2
14:58:02:915444,2,-9,-23,-5,-11,-10,-7,2
14:58:02:921394,-9,-5,-8,8,-12,-34,-12,-3
14:58:02:928915,24,7,14,-10,-7,-2,0,-8
14:58:02:936467,24,7,14,-10,-7,-2,0,-8
14:58:02:943924,-1,3,1,21,19,17,7,13
14:58:02:951428,15,12,-1,12,-12,-7,1,20
14:58:02:959589,15,12,-1,12,-12,-7,1,20
14:58:02:960384,12,-16,-25,-30,-22,3,1,-12
14:58:02:974671,3,11,24,-22,-13,6,-2,3
14:58:02:975496,3,11,24,-22,-13,6,-2,3
14:58:02:981429,-18,0,7,-9,9,10,3,-15
14:58:02:988925,-33,-4,-1,-11,3,1,2,9
14:58:02:996423,-33,-4,-1,-11,3,1,2,9
14:58:03:3911,-5,9,2,-13,-4,8,4,-13
14:58:03:11393,16,-13,-18,30,-5,-12,-20,-2
14:58:03:19648,16,-13,-18,30,-5,-12,-20,-2
14:58:03:20419,-24,-7,-16,1,15,15,9,-10
14:58:03:34621,8,-16,-9,-20,-12,-4,-6,9
14:58:03:35421,8,-16,-9,-20,-12,-4,-6,9
14:58:03:41440,26,8,-1,-10,-8,-10,-4,-2
14:58:03:57120,10,-2,-8,19,20,6,10,25
14:58:03:57949,10,-2,-8,19,20,6,10,25
14:58:03:63926,-22,1,11,-6,6,-6,1,-40
14:58:03:71417,0,-5,-26,-15,-15,-4,-2,-11
14:58:03:78980,0,-5,-26,-15,-15,-4,-2,-11
14:58:03:86426,7,6,12,-16,-34,-1,5,17
14:58:03:94597,6,6,-1,-7,13,6,1,5
14:58:03:95448,6,6,-1,-7,13,6,1,5
14:58:03:101384,-1,-6,-13,7,0,5,6,9
14:58:03:117155,-18,4,18,-13,-4,0,0,-8
14:58:03:117933,-18,4,18,-13,-4,0,0,-8
14:58:03:123898,4,-4,-4,5,15,6,4,16
14:58:03:131440,10,-4,-1,-5,-6,-1,11,0
14:58:03:138991,10,-4,-1,-5,-6,-1,11,0
14:58:03:146391,-3,-1,14,2,5,-7,-15,7
14:58:03:154589,-10,-1,-6,-18,-1,-5,-2,-10
14:58:03:155411,-10,-1,-6,-18,-1,-5,-2,-10
14:58:03:161387,-4,-12,-9,-20,-17,-9,-6,9
14:58:03:177206,-4,5,20,12,0,1,-2,-1
14:58:03:177937,-4,5,20,12,0,1,-2,-1
14:58:03:183921,20,20,13,19,29,6,11,21
14:58:03:191398,-16,13,16,20,-3,-13,-12,-17
14:58:03:198947,-16,13,16,20,-3,-13,-12,-17
14:58:03:206435,-3,-9,-19,18,-4,9,5,-7
14:58:03:214651,-89,-4,-32,-24,-28,-25,-55,-56
14:58:03:215484,-89,-4,-32,-24,-28,-25,-55,-56
14:58:03:221368,-45,9,21,8,25,-5,-6,-14
14:58:03:237117,0,-14,-15,1,11,13,18,-7
14:58:03:237914,0,-14,-15,1,11,13,18,-7
14:58:03:243870,-7,-3,8,-26,-5,-17,-16,3
14:58:03:251448,5,-10,-5,-38,-36,0,8,-3
14:58:03:259029,5,-10,-5,-38,-36,0,8,-3
14:58:03:266437,18,-1,-22,-2,11,1,-2,5
14:58:03:274643,16,3,16,24,3,11,36,33
14:58:03:275400,16,3,16,24,3,11,36,33
14:58:03:281468,1,25,19,-20,-18,-2,-2,-8
14:58:03:297233,23,10,16,13,28,6,3,22
14:58:03:297970,23,10,16,13,28,6,3,22
14:58:03:303912,-12,-10,8,26,-4,-11,-17,-41
14:58:03:311438,-7,-7,-7,4,5,9,4,4
14:58:03:318911,-7,-7,-7,4,5,9,4,4
14:58:03:326444,11,-15,-10,-4,8,-8,-1,18
14:58:03:334635,50,5,5,0,-15,-1,2,3
14:58:03:335407,50,5,5,0,-15,-1,2,3
14:58:03:341438,18,20,28,0,-15,8,16,-1
14:58:03:357083,-35,-4,-38,-20,-17,-1,-12,-15
14:58:03:357927,-35,-4,-38,-20,-17,-1,-12,-15
14:58:03:363958,-22,-15,-19,14,-1,8,11,7
14:58:03:371419,-7,5,6,-18,9,-1,-6,-4
14:58:03:378992,-7,5,6,-18,9,-1,-6,-4
14:58:03:386361,-14,-10,-17,-13,-16,-6,-3,-13
14:58:03:394590,18,3,5,10,18,-3,-9,11
14:58:03:395480,18,3,5,10,18,-3,-9,11
14:58:03:401478,-3,4,31,12,4,6,-5,2
14:58:03:417107,20,-9,-14,-7,15,-7,3,-3
14:58:03:417915,20,-9,-14,-7,15,-7,3,-3
14:58:03:423943,19,0,-6,2,-6,-8,-5,7
14:58:03:431424,-20,-28,-31,-10,-8,-3,8,-1
14:58:03:439010,-20,-28,-31,-10,-8,-3,8,-1
14:58:03:455274,1,3,1,13,26,8,0,-6
14:58:03:456081,26,-8,-15,-3,4,-11,-9,4
14:58:03:456845,26,-8,-15,-3,4,-11,-9,4
14:58:03:461416,14,-10,-8,-11,-16,3,5,15
14:58:03:477174,-15,-11,4,15,-31,-4,-6,4
14:58:03:477968,-15,-11,4,15,-31,-4,-6,4
14:58:03:483979,15,9,23,-2,-2,10,2,17
14:58:03:491460,12,7,33,32,13,-8,2,11
14:58:03:507154,12,7,33,32,13,-8,2,11
14:58:03:507924,-17,-22,-40,-8,-8,-8,-5,-11
14:58:03:514582,-5,26,28,7,-9,1,0,-5
14:58:03:515394,-5,26,28,7,-9,1,0,-5
14:58:03:521375,-8,-8,-13,-10,14,-14,-19,-40
14:58:03:537102,10,9,-4,-10,18,1,-5,-1
14:58:03:537905,10,9,-4,-10,18,1,-5,-1
14:58:03:543928,-8,-7,-30,-21,-54,5,9,2
14:58:03:551433,31,1,1,11,17,7,-2,-16
14:58:03:558939,31,1,1,11,17,7,-2,-16
14:58:03:566422,-11,-1,-13,-27,-1,0,4,3
14:58:03:574555,-20,18,-1,-1,6,12,7,-5
14:58:03:575427,-20,18,-1,-1,6,12,7,-5
14:58:03:581396,16,2,9,18,2,-5,-4,7
14:58:03:605304,4,-9,-13,-19,-4,-5,-5,7
14:58:03:606127,4,-9,-13,-19,-4,-5,-5,7
14:58:03:606936,-8,5,7,-3,10,6,9,2
14:58:03:611399,-9,-1,20,14,2,7,-1,-5
14:58:03:618898,-9,-1,20,14,2,7,-1,-5
14:58:03:626424,2,-1,-9,-3,-8,-10,-14,12
14:58:03:634587,7,10,-2,12,7,-5,-7,13
14:58:03:635386,7,10,-2,12,7,-5,-7,13
14:58:03:641416,38,3,-15,-16,4,8,-7,6
14:58:03:657070,-17,-13,30,2,1,-8,-4,-44
14:58:03:657876,-17,-13,30,2,1,-8,-4,-44
14:58:03:663881,-5,14,18,14,22,4,23,12
14:58:03:671387,-25,-18,-32,3,6,3,-1,4
14:58:03:678962,-25,-18,-32,3,6,3,-1,4
14:58:03:686369,-7,-5,7,-37,-4,-12,-4,-9
14:58:03:694583,-3,-1,8,-23,-28,-4,4,-5
14:58:03:695383,-3,-1,8,-23,-28,-4,4,-5
14:58:03:701433,1,-10,-15,0,-8,-4,-15,-2
14:58:03:717089,16,8,7,1,6,-2,5,10
14:58:03:717915,16,8,7,1,6,-2,5,10
14:58:03:732082,-33,-7,-8,7,12,-3,-20,-16
14:58:03:732942,-7,-2,-9,16,14,8,4,-1
14:58:03:738971,-7,-2,-9,16,14,8,4,-1
14:58:03:746396,-6,3,20,14,4,-6,-7,2
14:58:03:762764,-7,-8,-12,-10,0,-9,-11,8
14:58:03:763566,-7,-8,-12,-10,0,-9,-11,8
14:58:03:764343,6,13,46,63,4,5,7,-7
14:58:03:777193,11,15,20,-3,2,-3,-2,3
14:58:03:777925,11,15,20,-3,2,-3,-2,3
14:58:03:783903,11,-10,-26,-44,-10,1,1,3
14:58:03:791384,-6,14,20,-4,-15,1,4,3
14:58:03:807172,-6,14,20,-4,-15,1,4,3
14:58:03:807916,-13,-7,-9,-16,-5,2,8,3
14:58:03:814592,-8,1,-8,4,2,-10,-11,24
14:58:03:815411,-8,1,-8,4,2,-10,-11,24
14:58:03:821433,5,-1,4,4,-11,-4,-7,-16
14:58:03:837615,-11,-10,-11,1,-10,9,-2,-15
14:58:03:838412,-11,-10,-11,1,-10,9,-2,-15
14:58:03:843879,0,-6,-10,7,5,3,11,5
14:58:03:851439,-15,-16,-26,-14,-7,-3,0,-11
14:58:03:858977,-15,-16,-26,-14,-7,-3,0,-11
14:58:03:866472,2,5,1,-27,0,2,-11,-19
14:58:03:874574,21,22,10,-1,7,1,4,5
14:58:03:875428,21,22,10,-1,7,1,4,5
14:58:03:881470,-1,-17,-23,6,5,-4,11,10
14:58:03:897119,-2,-11,-24,-27,0,-1,-1,1
14:58:03:897929,-2,-11,-24,-27,0,-1,-1,1
14:58:03:903988,7,4,25,7,17,-8,-4,3
14:58:03:919654,7,4,25,7,17,-8,-4,3
14:58:03:920426,-5,-10,-8,4,-1,-1,-1,0
14:58:03:935246,-2,-7,-10,-10,-12,4,-3,5
14:58:03:936105,-2,-7,-10,-10,-12,4,-3,5
14:58:03:936928,-21,1,14,11,0,-3,-2,-9
14:58:03:941474,12,6,1,5,-34,1,11,8
14:58:03:957146,12,6,1,5,-34,1,11,8
14:58:03:957937,11,-7,3,17,8,-2,-1,1
14:58:03:963926,-8,-6,-43,-4,2,-2,-4,-3
14:58:03:979690,-8,-6,-43,-4,2,-2,-4,-3
14:58:03:980460,5,-1,11,7,-26,1,-8,4
14:58:03:986393,-14,4,9,26,-17,2,4,2
14:58:03:994574,-14,4,9,26,-17,2,4,2
14:58:03:995416,-19,-1,17,19,14,-5,2,-15
14:58:04:9372,10,-1,11,-10,-1,1,1,23
14:58:04:17142,10,-1,11,-10,-1,1,1,23
14:58:04:17938,42,1,-12,-13,11,2,13,12
14:58:04:23954,-9,3,0,-23,-4,-8,1,-2
14:58:04:40081,-9,3,0,-23,-4,-8,1,-2
14:58:04:40885,-29,3,7,-19,-1,0,-2,-19
14:58:04:46461,11,-1,13,16,14,2,-12,-2
14:58:04:55073,11,-1,13,16,14,2,-12,-2
14:58:04:61390,5,5,-11,1,-10,-14,-12,-5
14:58:04:68841,1,-7,-13,-13,-3,-1,-5,-6
14:58:04:85298,1,-7,-13,-13,-3,-1,-5,-6
14:58:04:86072,-7,-11,-48,-21,2,7,-8,-3
14:58:04:86886,-7,17,8,21,37,-7,-3,-9
14:58:04:99654,-7,17,8,21,37,-7,-3,-9
14:58:04:100433,23,-16,-22,-6,11,5,2,3
14:58:04:106411,16,7,17,11,4,6,2,-7
14:58:04:114616,16,7,17,11,4,6,2,-7
14:58:04:115461,-9,-1,-1,-2,-2,5,7,-3
14:58:04:128959,-4,-16,-25,-8,-11,-9,-10,-6
14:58:04:137091,-4,-16,-25,-8,-11,-9,-10,-6
14:58:04:137913,0,1,22,4,-21,5,7,15
14:58:04:143890,-2,-4,-13,-19,-15,-1,5,13
14:58:04:160047,-2,-4,-13,-19,-15,-1,5,13
14:58:04:160830,-19,-2,37,19,2,-16,-31,-15
14:58:04:166440,22,11,15,1,15,0,15,3
14:58:04:174617,22,11,15,1,15,0,15,3
14:58:04:175390,5,4,-13,-24,0,10,21,11
14:58:04:188933,-44,-23,-16,-4,-24,-8,-12,-18
14:58:04:197147,-44,-23,-16,-4,-24,-8,-12,-18
14:58:04:197915,-3,10,10,5,-8,8,6,-4
14:58:04:211375,-9,-11,-12,9,16,5,0,3
14:58:04:219634,-9,-11,-12,9,16,5,0,3
14:58:04:220437,-1,2,18,7,2,-7,-9,-6
14:58:04:226420,4,-1,1,-23,-9,-5,-1,14
14:58:04:234677,4,-1,1,-23,-9,-5,-1,14
14:58:04:235472,4,-13,-24,-36,-1,-10,-13,-5
14:58:04:248925,2,8,14,21,17,-2,-8,4
14:58:04:257178,2,8,14,21,17,-2,-8,4
14:58:04:257951,-11,-8,3,1,-5,14,17,7
14:58:04:263916,-41,3,-5,-4,3,7,4,-6
14:58:04:279669,-41,3,-5,-4,3,7,4,-6
14:58:04:280427,-34,7,20,17,-2,-2,-4,-20
14:58:04:286389,26,-4,-5,4,4,6,-2,7
14:58:04:294640,26,-4,-5,4,4,6,-2,7
14:58:04:295434,-23,4,4,17,16,-4,3,-17
14:58:04:308910,-4,-3,-16,0,18,-18,-6,-12
14:58:04:317160,-4,-3,-16,0,18,-18,-6,-12
14:58:04:317948,20,15,10,-12,-7,3,-1,2
14:58:04:323919,7,-6,-11,8,-23,-23,-15,-5
14:58:04:339645,7,-6,-11,8,-23,-23,-15,-5
14:58:04:340399,11,-4,0,9,-6,-4,2,5
14:58:04:346401,-28,-3,2,-26,-24,2,4,-18
14:58:04:362118,-28,-3,2,-26,-24,2,4,-18
14:58:04:362898,-8,3,3,0,-6,-3,-9,-6
14:58:04:368959,11,-7,-1,5,0,5,8,-2
14:58:04:377135,11,-7,-1,5,0,5,8,-2
14:58:04:377929,0,6,19,4,-8,-6,8,-9
14:58:04:383901,16,0,7,0,9,6,0,7
14:58:04:399619,16,0,7,0,9,6,0,7
14:58:04:400400,0,-25,-45,-5,1,-8,-3,3
14:58:04:406418,-1,4,17,-6,-1,7,1,-1
14:58:04:414618,-1,4,17,-6,-1,7,1,-1
14:58:04:415465,35,7,4,-8,26,8,4,12
14:58:04:437773,9,-5,-10,-41,-21,-4,-5,10
14:58:04:438593,9,-5,-10,-41,-21,-4,-5,10
14:58:04:439395,-4,-7,7,26,18,-14,0,-1
14:58:04:443974,-19,1,19,2,-2,6,-1,-9
14:58:04:459646,-19,1,19,2,-2,6,-1,-9
14:58:04:460457,-22,0,-21,-8,-14,-2,4,1
14:58:04:466429,9,11,25,8,-6,-5,-1,3
14:58:04:474653,9,11,25,8,-6,-5,-1,3
14:58:04:475392,5,-14,-23,-5,6,-4,-6,8
14:58:04:488938,-10,6,50,39,-8,10,16,-4
14:58:04:497182,-10,6,50,39,-8,10,16,-4
14:58:04:497977,-4,-4,-14,-16,-5,4,-6,-4
14:58:04:511373,58,-4,-19,-3,-19,-9,-12,27
14:58:04:519606,58,-4,-19,-3,-19,-9,-12,27
14:58:04:520447,7,-11,-16,-23,-31,0,-4,5
14:58:04:526417,-53,-4,-28,-11,11,4,-7,-28
14:58:04:534654,-53,-4,-28,-11,11,4,-7,-28
14:58:04:535434,14,21,15,-28,7,8,8,7
14:58:04:548906,-2,-2,-11,-45,-3,-6,-11,-2
14:58:04:557146,-2,-2,-11,-45,-3,-6,-11,-2
14:58:04:557939,-12,-4,-7,-7,-7,-12,-3,-1
14:58:04:563906,45,1,-8,14,8,-2,-12,-10
14:58:04:579634,45,1,-8,14,8,-2,-12,-10
14:58:04:580438,-12,-16,-2,21,3,12,6,-8
14:58:04:586365,6,14,2,10,-1,-14,-2,18
14:58:04:594720,6,14,2,10,-1,-14,-2,18
14:58:04:595485,-11,17,10,22,15,2,-2,-4
14:58:04:608891,-13,-34,-45,-9,-3,4,6,-10
14:58:04:617130,-13,-34,-45,-9,-3,4,6,-10
14:58:04:617948,17,12,53,46,9,2,18,15
14:58:04:623899,1,20,28,13,9,10,4,-2
14:58:04:639656,1,20,28,13,9,10,4,-2
14:58:04:640427,2,-12,-21,-5,4,8,-5,-5
14:58:04:646391,-4,2,4,24,-7,-12,3,3
14:58:04:654631,-4,2,4,24,-7,-12,3,3
14:58:04:655431,-1,7,5,16,11,-2,-19,4
14:58:04:668940,-33,-19,-19,-2,16,-6,6,-6
14:58:04:677145,-33,-19,-19,-2,16,-6,6,-6
14:58:04:677940,26,6,24,-2,-11,-10,-4,0
14:58:04:683884,63,16,4,-3,1,8,-1,-8
14:58:04:699638,63,16,4,-3,1,8,-1,-8
14:58:04:700396,29,7,-2,-9,-15,3,7,5
14:58:04:715289,-7,-1,-7,-2,-8,-7,-19,-1
14:58:04:716068,-7,-1,-7,-2,-8,-7,-19,-1
14:58:04:716863,-4,-9,-6,-26,-10,-1,-8,1
14:58:04:728907,-30,2,-9,-9,16,7,7,0
14:58:04:737070,-30,2,-9,-9,16,7,7,0
14:58:04:737859,-17,-9,-10,-12,-20,-11,1,-1
14:58:04:743927,-13,5,11,-12,-15,-1,2,7
14:58:04:759618,-13,5,11,-12,-15,-1,2,7
14:58:04:760415,-8,-9,-23,14,-15,-2,-2,-13
14:58:04:766400,1,-2,23,17,14,12,8,-14
14:58:04:774590,1,-2,23,17,14,12,8,-14
14:58:04:775379,-5,-11,-20,-26,1,-2,5,-13
14:58:04:788945,-8,-2,-4,6,3,2,4,14
14:58:04:797180,-8,-2,-4,6,3,2,4,14
14:58:04:797949,-1,-3,-7,15,22,-3,-10,1
14:58:04:803946,8,-2,-7,-7,-3,-6,-1,0
14:58:04:819677,8,-2,-7,-7,-3,-6,-1,0
14:58:04:820472,-8,-7,-33,-27,13,-12,-8,-2
14:58:04:826431,0,18,52,5,-3,5,-4,5
14:58:04:834675,0,18,52,5,-3,5,-4,5
14:58:04:835468,-9,-9,1,18,-2,-1,-3,-2
14:58:04:848931,-20,-10,-24,-15,-5,0,3,-8
14:58:04:857193,-20,-10,-24,-15,-5,0,3,-8
14:58:04:857950,-7,20,40,-4,3,-8,-8,-13
14:58:04:871412,-1,-3,-17,9,4,-7,-18,1
14:58:04:879646,-1,-3,-17,9,4,-7,-18,1
14:58:04:880428,-9,4,-14,0,-14,-11,-9,4
14:58:04:886379,-14,-15,11,18,1,2,2,-5
14:58:04:894706,-14,-15,11,18,1,2,2,-5
14:58:04:895469,7,15,33,25,2,13,6,6
14:58:04:908882,0,-7,-26,-43,6,-5,-2,7
14:58:04:917168,0,-7,-26,-43,6,-5,-2,7
14:58:04:917945,5,8,13,22,20,2,0,2
14:58:04:931395,4,-8,-30,-9,-5,-10,-13,-33
14:58:04:940010,4,-8,-30,-9,-5,-10,-13,-33
14:58:04:947101,-16,-4,-6,-8,-5,-2,-9,-4
14:58:04:947867,-1,1,-9,-7,0,-9,-1,0
14:58:04:953958,-1,1,-9,-7,0,-9,-1,0
14:58:04:961389,1,-3,1,-2,0,3,5,6
14:58:04:968878,0,21,15,23,-18,-2,-2,1
14:58:04:977145,0,21,15,23,-18,-2,-2,1
14:58:04:977918,12,1,-24,-29,-3,2,9,15
14:58:05:314,-8,-1,22,-1,4,8,5,3
14:58:05:1146,-8,-1,22,-1,4,8,5,3
14:58:05:1932,7,0,-7,13,-12,-8,-4,6
14:58:05:6372,-19,-3,-22,-5,4,4,-2,1
14:58:05:13991,-19,-3,-22,-5,4,4,-2,1
14:58:05:21452,14,-4,6,-23,-10,5,16,5
14:58:05:28917,-12,-8,-7,4,-9,5,3,-3
14:58:05:37139,-12,-8,-7,4,-9,5,3,-3
14:58:05:37920,4,-5,-1,-3,-6,-12,-18,-11
14:58:05:51424,15,-6,16,11,6,-1,-5,-21
14:58:05:67862,15,-6,16,11,6,-1,-5,-21
14:58:05:68673,6,-1,4,-1,-16,-10,0,-3
14:58:05:69430,0,-10,-18,-7,2,4,9,12
14:58:05:74008,0,-10,-18,-7,2,4,9,12
14:58:05:81440,-8,-1,3,15,45,14,2,3
14:58:05:88901,-5,11,11,4,-7,2,2,3
14:58:05:97119,-5,11,11,4,-7,2,2,3
14:58:05:97942,-1,7,-3,-16,-24,4,14,-1
14:58:05:111377,15,7,-1,14,-4,-7,-1,-2
14:58:05:119598,15,7,-1,14,-4,-7,-1,-2
14:58:05:120376,31,-22,-3,-5,-8,7,-3,0
14:58:05:126378,-9,-11,-1,17,29,-6,-13,-1
14:58:05:133951,-9,-11,-1,17,29,-6,-13,-1
14:58:05:141434,-5,-14,-18,3,18,10,-2,0
14:58:05:148959,10,11,-11,5,-3,-1,8,11
14:58:05:157120,10,11,-11,5,-3,-1,8,11
14:58:05:157932,2,1,2,-7,-2,-5,-3,2
14:58:05:171412,-10,-13,-7,-5,-17,2,-3,3
14:58:05:179642,-10,-13,-7,-5,-17,2,-3,3
14:58:05:180494,-12,-11,-9,5,-11,2,-9,-7
14:58:05:194668,-1,8,19,1,-9,5,9,-1
14:58:05:195461,-1,8,19,1,-9,5,9,-1
14:58:05:201406,-10,4,-31,2,16,-9,4,-1
14:58:05:208907,9,-7,-18,-6,7,-5,-22,7
14:58:05:217215,9,-7,-18,-6,7,-5,-22,7
14:58:05:217935,-16,-2,3,-13,17,-1,2,-4
14:58:05:231417,-5,0,5,-19,-18,-2,5,0
14:58:05:239652,-5,0,5,-19,-18,-2,5,0
14:58:05:240454,25,-3,10,18,8,1,-2,-1
14:58:05:246386,-4,-21,-18,-27,-14,-6,4,0
14:58:05:253956,-4,-21,-18,-27,-14,-6,4,0
14:58:05:261441,-5,1,3,-12,-5,-3,10,-10
14:58:05:268917,-4,18,15,11,22,10,-1,-6
14:58:05:277129,-4,18,15,11,22,10,-1,-6
14:58:05:277907,-7,8,24,41,13,-4,-15,4
14:58:05:291437,-7,9,6,12,-7,-7,-7,-5
14:58:05:299674,-7,9,6,12,-7,-7,-7,-5
14:58:05:300479,-15,-4,-25,-22,-23,-4,-17,-5
14:58:05:306426,14,4,4,4,18,0,9,5
14:58:05:313940,14,4,4,4,18,0,9,5
14:58:05:321403,-8,-3,3,-5,-19,4,6,6
14:58:05:328900,9,-6,-4,-35,-10,-4,-5,-7
14:58:05:344663,9,-6,-4,-35,-10,-4,-5,-7
14:58:05:345415,-17,-10,-10,-5,-24,2,25,2
14:58:05:351415,23,9,29,16,7,0,16,-8
14:58:05:359585,23,9,29,16,7,0,16,-8
14:58:05:360368,-2,-4,-20,-23,-21,-8,-9,-20
14:58:05:366524,2,10,10,32,-1,2,-5,3
14:58:05:373976,2,10,10,32,-1,2,-5,3
14:58:05:381381,-9,-1,4,13,15,-12,-11,-2
14:58:05:388875,12,-13,-27,-22,3,-2,-4,25
14:58:05:397140,12,-13,-27,-22,3,-2,-4,25
14:58:05:397904,-29,6,16,1,-14,8,11,-11
14:58:05:420288,-6,10,15,15,11,-1,-3,-6
14:58:05:421054,-6,10,15,15,11,-1,-3,-6
14:58:05:421870,17,-1,-24,9,11,-8,-18,-2
14:58:05:426432,-22,-15,-10,-22,-11,-14,-12,-10
14:58:05:433976,-22,-15,-10,-22,-11,-14,-12,-10
14:58:05:449626,11,-12,-9,-10,2,2,4,-1
14:58:05:450447,3,5,-11,-42,-15,-2,15,2
14:58:05:457150,3,5,-11,-42,-15,-2,15,2
14:58:05:457958,9,7,4,-9,-12,0,-2,6
14:58:05:471423,6,-18,-24,-21,-3,8,1,-3
14:58:05:479658,6,-18,-24,-21,-3,8,1,-3
14:58:05:480408,-4,13,10,-8,31,1,-3,4
14:58:05:494636,-11,-5,10,39,9,-4,6,-5
14:58:05:495462,-11,-5,10,39,9,-4,6,-5
14:58:05:501456,9,7,-5,7,11,4,3,-7
14:58:05:508933,-7,-9,-28,-21,-19,-5,-9,-2
14:58:05:517144,-7,-9,-28,-21,-19,-5,-9,-2
14:58:05:517900,-9,10,23,11,9,-12,-22,6
14:58:05:531445,1,1,-29,22,16,5,-14,0
14:58:05:539705,1,1,-29,22,16,5,-14,0
14:58:05:540465,1,-10,-9,-23,-11,-1,8,3
14:58:05:546421,-21,-11,-10,-1,6,-20,-10,-4
14:58:05:553958,-21,-11,-10,-1,6,-20,-10,-4
14:58:05:561403,-10,1,2,4,7,4,2,-10
14:58:05:568896,-24,1,12,-16,-26,-2,8,1
14:58:05:577082,-24,1,12,-16,-26,-2,8,1
14:58:05:577895,-4,-3,0,1,-15,-2,1,-4
14:58:05:591434,-11,-8,12,9,7,-1,4,-1
14:58:05:599618,-11,-8,12,9,7,-1,4,-1
14:58:05:600434,-6,-5,-4,-12,0,4,-4,2
14:58:05:606424,-1,14,48,31,-5,7,9,2
14:58:05:622089,-1,14,48,31,-5,7,9,2
14:58:05:622908,10,-2,6,10,-10,-10,-1,4
14:58:05:628917,4,10,21,15,14,9,14,-4
14:58:05:637058,4,10,21,15,14,9,14,-4
14:58:05:637849,-2,5,-10,-21,-40,8,17,7
14:58:05:651903,9,0,-2,25,20,11,3,0
14:58:05:659625,9,0,-2,25,20,11,3,0
14:58:05:660456,-2,-11,0,16,22,1,6,2
14:58:05:666428,9,6,13,-6,-13,4,-1,-1
14:58:05:673962,9,6,13,-6,-13,4,-1,-1
14:58:05:681389,-3,-3,8,22,13,-7,-16,-22
14:58:05:705296,-4,-21,-36,-42,-21,-15,-15,-11
14:58:05:706091,-4,-21,-36,-42,-21,-15,-15,-11
14:58:05:706899,4,7,10,-14,2,-3,-3,11
14:58:05:711376,0,-1,-8,-19,9,5,-1,7
14:58:05:727814,0,-1,-8,-19,9,5,-1,7
14:58:05:728579,-42,-9,-17,-9,-19,-4,4,1
14:58:05:729413,2,10,12,3,-6,-3,-1,1
14:58:05:733936,2,10,12,3,-6,-3,-1,1
14:58:05:741471,4,-14,-10,6,10,-4,-8,9
14:58:05:748932,-4,-4,-13,-10,-6,-13,-9,0
14:58:05:757143,-4,-4,-13,-10,-6,-13,-9,0
14:58:05:757941,1,8,12,39,8,8,27,0
14:58:05:780264,13,-6,-12,-12,-13,2,6,-5
14:58:05:781058,13,-6,-12,-12,-13,2,6,-5
14:58:05:781881,10,-1,0,-23,13,4,1,1
14:58:05:786345,-6,3,-4,14,-12,15,14,-1
14:58:05:793977,-6,3,-4,14,-12,15,14,-1
14:58:05:801382,6,4,8,-10,-27,-7,-9,-2
14:58:05:808890,-6,-7,-14,-8,-7,-4,-1,-3
14:58:05:817145,-6,-7,-14,-8,-7,-4,-1,-3
14:58:05:817951,15,11,4,3,-12,-4,2,1
14:58:05:831401,10,1,0,11,-3,-4,-2,-2
14:58:05:839638,10,1,0,11,-3,-4,-2,-2
14:58:05:840449,16,0,2,-8,-12,3,-6,3
14:58:05:846424,-39,-3,-4,-8,2,8,-2,-2
14:58:05:853991,-39,-3,-4,-8,2,8,-2,-2
14:58:05:861385,10,-10,-3,3,6,-5,-37,-1
14:58:05:868894,14,10,25,22,14,-3,-1,2
14:58:05:876466,14,10,25,22,14,-3,-1,2
14:58:05:883933,-19,-5,-5,-14,3,5,3,-3
14:58:05:891445,20,0,11,2,10,-22,-19,17
14:58:05:899592,20,0,11,2,10,-22,-19,17
14:58:05:900396,-6,-15,-34,-6,-14,-7,1,0
14:58:05:914611,-11,6,12,-9,-14,-9,-19,-13
14:58:05:915387,-11,6,12,-9,-14,-9,-19,-13
14:58:05:921452,3,1,-4,-25,0,-2,-2,-8
14:58:05:928932,2,-8,-6,5,14,8,14,2
14:58:05:936458,2,-8,-6,5,14,8,14,2
14:58:05:943891,12,-3,-10,-17,-5,0,-15,-2
14:58:05:951434,1,-6,-17,-28,-14,1,-5,-3
14:58:05:959625,1,-6,-17,-28,-14,1,-5,-3
14:58:05:960401,6,9,16,23,0,-8,3,0
14:58:05:974553,40,5,0,0,-6,2,5,0
14:58:05:975396,40,5,0,0,-6,2,5,0
14:58:05:981394,22,-3,-10,-20,-5,-3,-13,-4
14:58:05:988851,17,22,34,22,22,-5,7,-7
14:58:06:12897,17,22,34,22,22,-5,7,-7
14:58:06:13602,-6,9,3,14,-6,6,3,-2
14:58:06:14384,-14,-18,-8,3,12,-15,-8,-6
14:58:06:19622,-14,-18,-8,3,12,-15,-8,-6
14:58:06:20423,-12,-4,12,17,23,-2,10,15
14:58:06:34704,-16,-3,-6,-6,4,-2,3,0
14:58:06:35473,-16,-3,-6,-6,4,-2,3,0
14:58:06:41448,16,6,16,-13,1,-1,-2,-3
14:58:06:48927,-5,-1,35,44,-1,3,0,-2
14:58:06:56525,-5,-1,35,44,-1,3,0,-2
14:58:06:63989,-8,-9,-16,-4,7,4,9,8
14:58:06:71474,-11,-13,-12,16,25,3,0,-1
14:58:06:79661,-11,-13,-12,16,25,3,0,-1
14:58:06:80441,-12,0,-3,-9,-25,4,5,-9
14:58:06:94615,-15,-10,3,-1,-12,-7,-11,-7
14:58:06:95432,-15,-10,3,-1,-12,-7,-11,-7
14:58:06:109585,-11,-21,-20,-8,-7,-6,-1,-9
14:58:06:110351,6,14,-5,-35,-10,8,3,8
14:58:06:124637,6,14,-5,-35,-10,8,3,8
14:58:06:125425,-11,2,3,15,11,-6,-13,-9
14:58:06:131397,4,-1,-7,5,9,7,10,-2
14:58:06:139632,4,-1,-7,5,9,7,10,-2
14:58:06:140433,19,9,4,9,18,5,6,5
14:58:06:155066,-26,0,-21,-8,13,9,1,-12
14:58:06:155896,-26,0,-21,-8,13,9,1,-12
14:58:06:161377,3,7,23,2,7,10,11,-4
14:58:06:168922,53,6,6,-6,0,1,1,31
14:58:06:176467,53,6,6,-6,0,1,1,31
14:58:06:183934,-4,-3,0,29,9,-3,-6,5
14:58:06:200697,-13,-20,-26,3,-3,-1,-7,-17
14:58:06:201595,-13,-20,-26,3,-3,-1,-7,-17
14:58:06:215291,-4,11,12,-21,-2,-4,1,-3
14:58:06:216095,-2,-4,0,-9,-3,-1,-6,-4
14:58:06:216894,-2,-4,0,-9,-3,-1,-6,-4
14:58:06:221400,-12,-7,-12,0,0,-2,5,-3
14:58:06:228923,-4,14,7,-13,0,-10,-7,-11
14:58:06:236491,-4,14,7,-13,0,-10,-7,-11
14:58:06:243927,-15,-17,-23,-11,-14,-1,-1,-6
14:58:06:251422,-8,4,11,-15,-10,-5,8,2
14:58:06:259599,-8,4,11,-15,-10,-5,8,2
14:58:06:260440,-6,-8,3,0,2,-1,8,1
14:58:06:290907,-16,-11,-23,-9,-1,7,-7,-1
14:58:06:291735,-16,-11,-23,-9,-1,7,-7,-1
14:58:06:292564,-59,-9,-18,19,-4,4,-11,-1
14:58:06:293322,-5,7,11,-2,-20,-8,-17,-7
14:58:06:296417,-5,7,11,-2,-20,-8,-17,-7
14:58:06:312134,13,-1,12,11,18,5,5,-2
14:58:06:312890,-8,-22,-45,-16,-7,-1,3,-1
14:58:06:319551,-8,-22,-45,-16,-7,-1,3,-1
14:58:06:320401,12,20,29,14,13,-7,-4,2
14:58:06:334676,9,-4,3,0,-16,-4,-6,8
14:58:06:335414,9,-4,3,0,-16,-4,-6,8
14:58:06:341419,2,-4,-2,-6,3,-8,-12,-3
14:58:06:348926,-5,1,11,6,11,-1,-6,-4
14:58:06:364708,-5,1,11,6,11,-1,-6,-4
14:58:06:365493,10,-8,8,12,-4,0,15,-11
14:58:06:371407,-12,-9,-14,-15,0,13,13,3
14:58:06:387142,-12,-9,-14,-15,0,13,13,3
14:58:06:387926,13,3,-5,-43,-6,-1,-3,5
14:58:06:394626,7,9,26,20,11,-4,4,-5
14:58:06:395449,7,9,26,20,11,-4,4,-5
14:58:06:401418,-3,-16,-32,-19,-16,-5,-5,-7
14:58:06:408911,5,16,26,27,-2,-2,10,2
14:58:06:416478,5,16,26,27,-2,-2,10,2
14:58:06:423935,4,12,15,28,26,7,-2,6
14:58:06:440301,10,-8,-19,-25,2,2,-7,1
14:58:06:441096,10,-8,-19,-25,2,2,-7,1
14:58:06:441879,-6,10,1,-13,-4,-6,-10,-18
14:58:06:462784,-4,-25,-21,-38,-17,-2,3,-7
14:58:06:463596,-4,-25,-21,-38,-17,-2,3,-7
14:58:06:464368,12,9,-11,-22,8,-7,-9,13
14:58:06:468928,-5,2,-3,12,-11,-4,-3,-4
14:58:06:484642,-5,2,-3,12,-11,-4,-3,-4
14:58:06:485354,1,7,16,-11,-44,7,6,7
14:58:06:492087,13,7,-3,8,20,-1,8,7
14:58:06:492914,13,7,-3,8,20,-1,8,7
14:58:06:498863,-10,-8,-5,-5,7,-3,3,0
14:58:06:514619,2,1,-3,3,-7,3,-3,1
14:58:06:515419,2,1,-3,3,-7,3,-3,1
14:58:06:521408,2,-12,-13,-10,-16,1,-1,-2
14:58:06:537159,14,-2,-8,4,1,5,8,-2
14:58:06:537920,14,-2,-8,4,1,5,8,-2
14:58:06:543912,-3,7,3,24,14,8,6,-2
14:58:06:560322,-8,16,35,28,-11,-18,-17,2
14:58:06:561122,-8,16,35,28,-11,-18,-17,2
14:58:06:561898,11,15,10,22,-4,-2,1,1
14:58:06:574617,-17,-11,1,-2,-4,-6,-18,-4
14:58:06:575430,-17,-11,1,-2,-4,-6,-18,-4
14:58:06:581373,-11,-12,-5,-1,-1,-16,-13,-9
14:58:06:588881,-7,-7,-21,-12,-3,0,-1,-4
14:58:06:596480,-7,-7,-21,-12,-3,0,-1,-4
14:58:06:612833,-1,-5,-12,-5,17,1,-7,-1
14:58:06:613570,2,3,2,-2,15,-6,-3,-3
14:58:06:614405,2,3,2,-2,15,-6,-3,-3
14:58:06:618860,-1,-5,-12,-32,-3,2,4,0
14:58:06:642787,37,4,7,-7,-20,8,6,7
14:58:06:643577,37,4,7,-7,-20,8,6,7
14:58:06:644408,15,-11,-10,-14,-14,-3,3,2
14:58:06:648873,5,-17,-10,-12,9,4,1,0
14:58:06:656454,5,-17,-10,-12,9,4,1,0
14:58:06:663877,3,20,56,18,-1,-5,2,9
14:58:06:672104,-13,-8,1,6,9,0,13,-5
14:58:06:672951,-13,-8,1,6,9,0,13,-5
14:58:06:678948,-7,4,-7,-3,15,6,4,-1
14:58:06:694615,-22,-11,-26,-16,-21,-3,-9,-13
14:58:06:695426,-22,-11,-26,-16,-21,-3,-9,-13
14:58:06:701360,5,9,-5,-12,-38,-4,-4,0
14:58:06:717110,1,4,5,-10,2,6,8,6
14:58:06:717937,1,4,5,-10,2,6,8,6
14:58:06:723898,-6,-14,-2,25,5,3,12,0
14:58:06:740267,-5,10,22,6,6,-3,-6,3
14:58:06:741109,-5,10,22,6,6,-3,-6,3
14:58:06:741894,5,-14,-24,-7,-5,-5,-4,-5
14:58:06:762866,-16,12,20,23,6,-8,18,-15
14:58:06:763626,-16,12,20,23,6,-8,18,-15
14:58:06:764408,-3,-4,-11,2,0,-15,-9,-13
14:58:06:768900,-4,18,-18,-12,-23,-3,-12,1
14:58:06:776488,-4,18,-18,-12,-23,-3,-12,1
14:58:06:792769,18,2,8,-8,17,13,16,9
14:58:06:793545,-43,-34,-27,0,13,-8,-5,-7
14:58:06:794379,-43,-34,-27,0,13,-8,-5,-7
14:58:06:798904,3,0,2,-19,-27,8,-3,7
14:58:06:814615,11,-1,9,-1,-3,6,6,0
14:58:06:815413,11,-1,9,-1,-3,6,6,0
14:58:06:821383,-12,4,14,12,13,4,-2,-4
14:58:06:845259,0,-12,-16,-7,-1,2,7,2
14:58:06:846056,0,-12,-16,-7,-1,2,7,2
14:58:06:846918,-10,-3,-28,-14,1,-19,-15,-10
14:58:06:852088,6,16,21,8,28,13,8,6
14:58:06:852905,6,16,21,8,28,13,8,6
14:58:06:866477,-16,-12,-9,3,-2,0,-8,1
14:58:06:874622,7,-2,1,2,-4,-11,-10,-3
14:58:06:875438,7,-2,1,2,-4,-11,-10,-3
14:58:06:881436,-9,-13,-13,7,4,3,-1,-3
14:58:06:897130,9,15,-5,-15,-11,4,-4,3
14:58:06:897932,9,15,-5,-15,-11,4,-4,3
14:58:06:903918,-10,3,22,13,-4,-11,-14,-2
14:58:06:912155,2,-3,15,43,-19,-3,2,-3
14:58:06:912886,2,-3,15,43,-19,-3,2,-3
14:58:06:926394,-1,13,9,3,-8,5,11,4
14:58:06:942811,-15,-12,-35,-25,-12,-5,-11,-6
14:58:06:943666,-15,-12,-35,-25,-12,-5,-11,-6
14:58:06:944448,-8,-6,9,5,16,7,2,2
14:58:06:957499,-51,-13,-6,-11,3,4,7,-14
14:58:06:964613,-51,-13,-6,-11,3,4,7,-14
14:58:06:965420,7,9,-1,-16,10,-3,-2,-1
14:58:06:972078,19,4,11,38,7,-1,4,1
14:58:06:972927,19,4,11,38,7,-1,4,1
14:58:06:995287,-8,0,9,14,-7,-3,-1,-6
14:58:06:996058,13,5,15,-4,-4,5,4,3
14:58:06:996897,13,5,15,-4,-4,5,4,3
14:58:07:1394,23,-2,-9,-10,-4,-4,-19,2
14:58:07:17598,-3,2,10,-9,9,8,8,5
14:58:07:18366,-3,2,10,-9,9,8,8,5
14:58:07:23939,-4,-13,-27,-34,-7,3,4,-4
14:58:07:39655,-24,0,-9,23,8,-11,-9,-4
14:58:07:40467,-24,0,-9,23,8,-11,-9,-4
14:58:07:46401,0,0,0,9,-10,-3,-13,-4
14:58:07:54591,13,-7,-14,-13,-5,-5,-4,7
14:58:07:55403,13,-7,-14,-13,-5,-5,-4,7
14:58:07:68920,-6,-2,8,0,-12,-9,2,2
14:58:07:77112,20,3,-3,-24,-12,-7,-10,1
14:58:07:77947,20,3,-3,-24,-12,-7,-10,1
14:58:07:92764,26,-8,-3,7,4,9,6,4
14:58:07:93541,13,13,12,2,9,4,8,-1
14:58:07:94409,13,13,12,2,9,4,8,-1
14:58:07:106356,-8,2,0,-9,11,-10,-4,-3
14:58:07:114618,16,1,30,13,0,3,1,5
14:58:07:115433,16,1,30,13,0,3,1,5
14:58:07:121370,8,-12,-13,-13,-37,3,8,10
14:58:07:145255,-6,-11,14,1,2,-5,-7,-4
14:58:07:146069,-6,-11,14,1,2,-5,-7,-4
14:58:07:146872,-52,9,5,21,22,7,6,-15
14:58:07:152063,-10,-7,-22,-23,-20,1,3,-7
14:58:07:152885,-10,-7,-22,-23,-20,1,3,-7
14:58:07:166413,-19,-12,-10,-4,-1,-2,1,2
14:58:07:174566,12,4,-9,-11,-10,4,4,-16
14:58:07:175407,12,4,-9,-11,-10,4,4,-16
14:58:07:181419,7,-4,-10,-16,-15,-16,-16,-9
14:58:07:197081,9,3,8,8,20,-3,-1,5
14:58:07:197882,9,3,8,8,20,-3,-1,5
14:58:07:203888,5,-14,-17,-8,1,8,9,0
14:58:07:219609,1,9,6,-2,15,-17,-19,2
14:58:07:220476,1,9,6,-2,15,-17,-19,2
14:58:07:226435,-9,-1,-12,1,13,6,11,-1
14:58:07:234628,3,-9,-3,-7,5,10,14,3
14:58:07:235405,3,-9,-3,-7,5,10,14,3
14:58:07:241431,46,8,24,20,1,-8,-3,6
14:58:07:257126,46,8,24,20,1,-8,-3,6
14:58:07:257907,-37,-5,-15,6,-5,-2,-19,-21
14:58:07:263901,29,-1,-2,-10,-19,-7,5,19
14:58:07:279662,29,-1,-2,-10,-19,-7,5,19
14:58:07:280428,-10,0,5,3,3,-9,-4,-1
14:58:07:295270,6,2,-2,-2,-12,4,0,-5
14:58:07:296071,6,2,-2,-2,-12,4,0,-5
14:58:07:296915,-17,-20,-29,-16,-10,0,-10,-7
14:58:07:301406,7,16,17,9,17,5,8,3
14:58:07:317136,7,16,17,9,17,5,8,3
14:58:07:317927,15,8,15,32,5,-16,-9,3
14:58:07:323909,-27,-3,-19,-5,10,2,8,-21
14:58:07:339600,-27,-3,-19,-5,10,2,8,-21
14:58:07:340414,31,-2,-6,-3,-9,14,8,10
14:58:07:346384,1,-7,-2,8,2,-6,-4,-6
14:58:07:354604,1,-7,-2,8,2,-6,-4,-6
14:58:07:355395,35,21,22,18,-5,-4,0,3
14:58:07:368892,-3,-1,-9,-1,-7,-11,-26,-3
14:58:07:377148,-3,-1,-9,-1,-7,-11,-26,-3
14:58:07:377961,31,7,-4,-4,12,11,9,16
14:58:07:383891,-53,-15,-7,-9,-5,-9,-17,-13
14:58:07:399629,-53,-15,-7,-9,-5,-9,-17,-13
14:58:07:400400,-25,-13,-11,-9,-13,-2,-1,-22
14:58:07:406431,14,-16,-22,-17,0,0,2,-8
14:58:07:414629,14,-16,-22,-17,0,0,2,-8
14:58:07:415404,-36,6,8,-17,-13,-1,3,4
14:58:07:421365,-24,-2,14,5,2,0,5,0
14:58:07:437103,-24,-2,14,5,2,0,5,0
14:58:07:437887,21,-14,-16,0,5,-9,-2,14
14:58:07:443899,2,11,14,-15,5,5,1,5
14:58:07:459587,2,11,14,-15,5,5,1,5
14:58:07:460384,-14,1,7,-24,-23,-12,-11,1
14:58:07:466405,-28,4,25,12,6,6,2,-9
14:58:07:474577,-28,4,25,12,6,6,2,-9
14:58:07:475381,-5,4,1,9,5,11,5,7
14:58:07:481337,-16,6,-4,19,21,1,4,9
14:58:07:505275,-16,6,-4,19,21,1,4,9
14:58:07:506080,-2,4,5,7,-11,4,11,-7
14:58:07:506896,34,1,4,9,-10,-10,-14,-3
14:58:07:520057,34,1,4,9,-10,-10,-14,-3
14:58:07:520876,-4,-21,-19,0,3,6,0,0
14:58:07:526398,-13,-6,-6,-5,-3,10,5,-4
14:58:07:534624,-13,-6,-6,-5,-3,10,5,-4
14:58:07:535462,-15,8,7,-6,3,-9,-8,-8
14:58:07:541445,-23,0,-6,-7,-38,-6,-3,13
14:58:07:557169,-23,0,-6,-7,-38,-6,-3,13
14:58:07:557932,-9,-12,-16,-9,23,0,-7,-4
14:58:07:571415,61,12,4,16,2,5,9,23
14:58:07:579646,61,12,4,16,2,5,9,23
14:58:07:580466,8,11,9,9,-5,-5,2,12
14:58:07:595200,10,-10,-2,-7,10,-3,-7,-7
14:58:07:596055,10,-10,-2,-7,10,-3,-7,-7
14:58:07:596933,-4,2,-3,-6,18,4,-8,-1
14:58:07:601387,3,15,20,1,6,-5,5,-2
14:58:07:617103,3,15,20,1,6,-5,5,-2
14:58:07:617911,-3,4,-8,-7,-10,-16,-8,-1
14:58:07:623922,-8,-7,-7,12,-3,3,0,3
14:58:07:639580,-8,-7,-7,12,-3,3,0,3
14:58:07:640367,14,-5,-3,-4,-33,-1,3,7
14:58:07:646463,21,-8,-16,-4,6,-2,3,-3
14:58:07:654587,21,-8,-16,-4,6,-2,3,-3
14:58:07:655396,26,0,0,7,7,10,5,5
14:58:07:661429,7,7,-2,-24,-14,5,-5,-8
14:58:07:677686,7,7,-2,-24,-14,5,-5,-8
14:58:07:678386,-18,-13,-3,12,15,-3,4,-11
14:58:07:683911,-25,-14,-20,3,3,4,7,-3
14:58:07:699714,-25,-14,-20,3,3,4,7,-3
14:58:07:700428,-36,20,56,-8,14,-9,-5,-13
14:58:07:706411,3,-19,-12,-5,-37,-4,-8,-5
14:58:07:714573,3,-19,-12,-5,-37,-4,-8,-5
14:58:07:715370,25,-8,-2,2,7,9,6,3
14:58:07:721391,16,-8,-6,-10,10,-7,-16,26
14:58:07:737144,16,-8,-6,-10,10,-7,-16,26
14:58:07:737923,24,1,-6,6,-7,2,1,12
14:58:07:743880,-2,1,-4,-15,4,-4,-1,-10
14:58:07:759648,-2,1,-4,-15,4,-4,-1,-10
14:58:07:760439,-19,-3,-9,18,26,-6,-6,-9
14:58:07:775280,-6,9,7,13,23,-10,-13,-7
14:58:07:776071,-6,9,7,13,23,-10,-13,-7
14:58:07:776868,-11,-8,-16,-5,-12,11,5,-2
14:58:07:797723,-7,11,17,-17,-11,3,0,-3
14:58:07:798592,-7,11,17,-17,-11,3,0,-3
14:58:07:799377,0,-16,-43,-14,-5,3,-2,-3
14:58:07:803908,1,21,21,23,23,6,-5,4
14:58:07:811438,1,21,21,23,23,6,-5,4
14:58:07:818832,-25,-3,-17,-19,-30,0,9,-2
14:58:07:826350,7,-2,4,8,0,2,11,-1
14:58:07:834660,7,-2,4,8,0,2,11,-1
14:58:07:835391,9,9,9,7,-11,-4,4,0
14:58:07:849328,1,3,9,-4,14,3,-11,-6
14:58:07:857129,1,3,9,-4,14,3,-11,-6
14:58:07:857948,-9,-5,-3,7,-9,-7,-1,-7
14:58:07:872061,-6,-3,-5,-7,8,-9,-3,-12
14:58:07:872880,-6,-3,-5,-7,8,-9,-3,-12
14:58:07:878951,-3,-5,3,3,9,-3,-13,-9
14:58:07:886395,-6,4,-1,0,2,-3,-3,-4
14:58:07:894584,-6,4,-1,0,2,-3,-3,-4
14:58:07:895397,14,3,17,3,-6,-2,1,4
14:58:07:908935,-1,0,-11,-20,-26,-3,-5,-1
14:58:07:925291,-1,0,-11,-20,-26,-3,-5,-1
14:58:07:926090,-2,-9,-7,14,0,-9,-19,-2
14:58:07:926942,-10,-4,-10,12,3,-10,-6,-6
14:58:07:931491,-10,-4,-10,12,3,-10,-6,-6
14:58:07:938925,-2,-1,10,4,-13,2,6,-2
14:58:07:946417,6,2,3,22,10,-3,2,10
14:58:07:954640,6,2,3,22,10,-3,2,10
14:58:07:955394,2,-2,9,-12,11,2,0,11
14:58:07:968913,0,-2,7,-12,-14,8,5,-7
14:58:07:977149,0,-2,7,-12,-14,8,5,-7
14:58:07:977940,18,3,10,-19,-1,0,15,11
14:58:07:983944,1,-10,-18,5,10,-1,6,-4
14:58:07:991474,1,-10,-18,5,10,-1,6,-4
14:58:07:998951,-12,10,-8,0,6,-8,-6,-8
14:58:08:6449,-27,5,6,-9,-10,1,6,-2
14:58:08:14616,-27,5,6,-9,-10,1,6,-2
14:58:08:15406,-4,-7,-11,-19,4,-3,-4,-11
14:58:08:28950,3,3,1,-39,-27,11,15,1
14:58:08:37107,3,3,1,-39,-27,11,15,1
14:58:08:37918,-8,6,-8,1,-14,1,-2,-2
14:58:08:52068,-2,3,18,5,5,2,-1,7
14:58:08:52874,-2,3,18,5,5,2,-1,7
14:58:08:58955,11,-7,-14,-21,-6,4,-2,5
14:58:08:75296,4,-6,-3,19,-8,4,4,-10
14:58:08:76102,4,-6,-3,19,-8,4,4,-10
14:58:08:76896,13,6,0,6,3,-1,-10,7
14:58:08:88853,-1,-5,5,19,12,-5,-3,0
14:58:08:97140,-1,-5,5,19,12,-5,-3,0
14:58:08:97911,-3,7,4,-4,6,-8,-5,-3
14:58:08:103910,-7,-16,-14,29,18,3,-12,-1
14:58:08:111437,-7,-16,-14,29,18,3,-12,-1
14:58:08:127055,-5,0,13,-14,-30,4,10,1
14:58:08:127830,0,2,0,-3,9,-5,11,3
14:58:08:134613,0,2,0,-3,9,-5,11,3
14:58:08:135410,-15,-23,-23,-10,-9,-12,-12,-3
14:58:08:149372,21,0,8,1,-11,7,7,-16
14:58:08:157128,21,0,8,1,-11,7,7,-16
14:58:08:157888,25,-7,0,9,14,8,9,-2
14:58:08:163899,-8,-6,-21,4,13,-13,-16,-2
14:58:08:171496,-8,-6,-21,4,13,-13,-16,-2
14:58:08:178891,-11,7,11,9,4,1,-3,-8
14:58:08:186364,5,8,2,-9,-17,5,5,5
14:58:08:202109,5,8,2,-9,-17,5,5,5
14:58:08:202929,-12,-5,-8,-14,-3,-2,-7,2
14:58:08:208894,-29,-17,-12,-14,-15,-2,0,-8
14:58:08:217131,-29,-17,-12,-14,-15,-2,0,-8
14:58:08:217914,45,9,16,14,11,4,1,7
14:58:08:223872,0,15,20,13,8,-4,11,4
14:58:08:231471,0,15,20,13,8,-4,11,4
14:58:08:238949,-56,-5,-5,-7,-1,2,-12,-13
14:58:08:255262,5,-1,-8,-2,-12,-14,-15,3
14:58:08:256091,5,-1,-8,-2,-12,-14,-15,3
14:58:08:256921,-1,8,11,14,4,13,13,-11
14:58:08:268888,-15,5,8,-2,7,-4,-4,2
14:58:08:277138,-15,5,8,-2,7,-4,-4,2
14:58:08:277931,8,-2,-1,2,10,-4,-7,-3
14:58:08:283908,30,-1,-5,-7,8,-2,-4,13
14:58:08:291464,30,-1,-5,-7,8,-2,-4,13
14:58:08:298916,-12,-11,-32,-24,-3,0,7,4
14:58:08:306442,5,8,11,-17,5,8,8,-2
14:58:08:314597,5,8,11,-17,5,8,8,-2
14:58:08:315376,3,27,43,26,-9,-6,-20,2
14:58:08:328883,-26,-15,-19,-7,-9,-11,-9,-10
14:58:08:337111,-26,-15,-19,-7,-9,-11,-9,-10
14:58:08:337923,-11,-4,-2,-4,2,-4,-5,-9
14:58:08:352101,-15,3,11,2,-12,9,11,2
14:58:08:352926,-15,3,11,2,-12,9,11,2
14:58:08:358910,11,-19,-37,-11,-5,-9,-6,0
14:58:08:366443,-10,-3,7,1,-15,0,-5,-14
14:58:08:374619,-10,-3,7,1,-15,0,-5,-14
14:58:08:375490,0,-5,-11,-19,-1,0,-3,9
14:58:08:388888,7,-5,-13,-11,12,-6,-21,-2
14:58:08:397517,7,-5,-13,-11,12,-6,-21,-2
14:58:08:404563,-4,18,41,28,13,8,9,-14
14:58:08:405368,6,-6,-7,-18,-4,-16,-12,0
14:58:08:411426,6,-6,-7,-18,-4,-16,-12,0
14:58:08:418935,-6,-29,-12,0,-4,5,7,7
14:58:08:426437,3,7,15,8,1,7,14,6
14:58:08:434602,3,7,15,8,1,7,14,6
14:58:08:435369,-8,-2,7,-4,-14,-7,-9,2
14:58:08:457787,52,-9,-17,-5,-8,-4,-4,29
14:58:08:458579,52,-9,-17,-5,-8,-4,-4,29
14:58:08:459383,-13,1,-10,-7,-12,-13,-1,6
14:58:08:463885,-24,-9,-9,-4,24,3,1,-13
14:58:08:471460,-24,-9,-9,-4,24,3,1,-13
14:58:08:478928,13,16,8,19,3,11,12,0
14:58:08:486388,-10,-5,-18,-10,3,0,1,-4
14:58:08:494654,-10,-5,-18,-10,3,0,1,-4
14:58:08:495401,-8,-6,-2,-25,-28,-5,-2,-4
14:58:08:508911,3,2,0,-27,-17,6,8,-2
14:58:08:517236,3,2,0,-27,-17,6,8,-2
14:58:08:517991,10,7,-14,-19,-4,-18,-6,4
14:58:08:523965,1,2,7,7,3,6,7,-2
14:58:08:531451,1,2,7,7,3,6,7,-2
14:58:08:538913,-4,-2,1,11,13,3,3,-8
14:58:08:546434,1,-13,-12,5,-17,-7,-16,0
14:58:08:554564,1,-13,-12,5,-17,-7,-16,0
14:58:08:555398,25,3,3,13,11,0,6,-2
14:58:08:568891,-40,-1,-8,15,1,-3,-6,-6
14:58:08:585291,-40,-1,-8,15,1,-3,-6,-6
14:58:08:586061,-18,-2,15,-3,-16,1,-8,-8
14:58:08:586900,3,17,19,17,-8,-1,-1,-5
14:58:08:591463,3,17,19,17,-8,-1,-1,-5
14:58:08:598926,-7,0,-20,-8,3,-6,-6,-7
14:58:08:606432,7,0,12,-4,4,0,1,3
14:58:08:614621,7,0,12,-4,4,0,1,3
14:58:08:615404,0,-14,-27,-17,-5,4,10,2
14:58:08:628922,5,3,15,8,-10,3,-16,-9
14:58:08:637081,5,3,15,8,-10,3,-16,-9
14:58:08:637881,7,-1,-4,19,3,8,7,-1
14:58:08:643934,-12,4,1,8,-4,2,13,-5
14:58:08:651449,-12,4,1,8,-4,2,13,-5
14:58:08:658860,-3,-2,5,13,5,-3,6,1
14:58:08:666404,2,1,-3,17,23,-2,3,1
14:58:08:674985,2,1,-3,17,23,-2,3,1
14:58:08:681381,2,2,-3,9,-6,-5,-9,-3
14:58:08:688829,-5,-10,-15,-22,-1,-4,9,-3
14:58:08:697147,-5,-10,-15,-22,-1,-4,9,-3
14:58:08:697915,32,4,7,-13,-9,5,0,0
14:58:08:712088,16,-4,-11,-13,-12,7,3,6
14:58:08:712947,16,-4,-11,-13,-12,7,3,6
14:58:08:718906,-4,-7,-13,0,15,2,-2,0
14:58:08:726411,16,16,22,-2,-10,-1,-2,3
14:58:08:733988,16,16,22,-2,-10,-1,-2,3
14:58:08:741441,-8,-17,-6,0,7,-6,-2,1
14:58:08:748920,-6,-1,5,-23,-5,6,15,3
14:58:08:757137,-6,-1,5,-23,-5,6,15,3
14:58:08:757950,0,9,7,13,-25,3,8,15
14:58:08:772100,19,-3,0,-22,-17,0,-4,2
14:58:08:772966,19,-3,0,-22,-17,0,-4,2
14:58:08:778917,-11,-4,-16,-4,24,2,0,-1
14:58:08:786403,26,13,-6,7,18,0,1,3
14:58:08:794050,26,13,-6,7,18,0,1,3
14:58:08:801400,12,6,17,4,-3,-4,-12,0
14:58:08:808921,-19,-9,-4,1,3,-6,-7,-4
14:58:08:817149,-19,-9,-4,1,3,-6,-7,-4
14:58:08:817888,-2,0,5,-8,-7,-1,-9,-10
14:58:08:832145,-3,2,7,15,20,-10,-21,-1
14:58:08:832965,-3,2,7,15,20,-10,-21,-1
14:58:08:838909,1,6,2,17,6,1,-1,-1
14:58:08:846419,-14,-10,-19,-17,-10,-2,9,-4
14:58:08:853910,-14,-10,-19,-17,-10,-2,9,-4
14:58:08:861411,-9,-1,10,2,-2,-2,-2,-6
14:58:08:868928,-9,-4,-4,0,-7,10,5,10
14:58:08:877137,-9,-4,-4,0,-7,10,5,10
14:58:08:877906,3,2,11,-9,15,0,-3,2
14:58:08:892069,5,-5,2,-4,-9,-2,-2,1
14:58:08:892897,5,-5,2,-4,-9,-2,-2,1
14:58:08:898936,-19,-2,-5,5,-5,-2,3,-4
14:58:08:906442,-6,5,2,17,14,-1,-3,-7
14:58:08:913945,-6,5,2,17,14,-1,-3,-7
14:58:08:921372,-3,-8,0,-12,2,-3,0,-2
14:58:08:928892,-1,11,-1,22,11,-10,-13,-2
14:58:08:937060,-1,11,-1,22,11,-10,-13,-2
14:58:08:937935,-10,-2,-13,10,11,-12,-25,-4
14:58:08:952053,18,9,6,12,-20,2,4,-2
14:58:08:952956,18,9,6,12,-20,2,4,-2
14:58:08:958922,19,-12,-12,-6,-2,3,10,0
14:58:08:966391,10,-4,4,-7,10,-6,2,2
14:58:08:973944,10,-4,4,-7,10,-6,2,2
14:58:08:981403,-18,-2,-2,-3,6,1,4,-7
14:58:08:988867,-11,-6,0,9,18,2,-3,-4
14:58:08:997141,-11,-6,0,9,18,2,-3,-4
14:58:08:997937,-2,-1,-10,-6,-17,-9,2,7
14:58:09:12075,-11,5,45,31,0,9,-2,2
14:58:09:12908,-11,5,45,31,0,9,-2,2
14:58:09:18878,3,7,-4,-13,9,4,-1,1
14:58:09:34601,-10,-19,-30,-53,-37,-8,-8,-5
14:58:09:35395,-10,-19,-30,-53,-37,-8,-8,-5
14:58:09:41412,-3,-1,2,-7,-2,19,10,3
14:58:09:48869,0,18,4,-6,-7,-19,-16,-4
14:58:09:57127,0,18,4,-6,-7,-19,-16,-4
14:58:09:57919,6,11,-13,-3,9,-4,12,0
14:58:09:72127,7,-11,-18,4,-9,4,11,1
14:58:09:72919,7,-11,-18,4,-9,4,11,1
14:58:09:78866,-17,-10,-5,3,23,5,7,8
14:58:09:86349,-16,-5,9,-2,3,-1,6,-4
14:58:09:93932,-16,-5,9,-2,3,-1,6,-4
14:58:09:101382,-5,-3,3,-5,-10,-14,-18,-11
14:58:09:108873,-30,-11,-12,-4,-9,1,4,-2
14:58:09:117174,-30,-11,-12,-4,-9,1,4,-2
14:58:09:117930,-1,0,16,7,-6,-8,-26,-6
14:58:09:132140,10,-6,-15,31,22,8,-1,1
14:58:09:132951,10,-6,-15,31,22,8,-1,1
14:58:09:138898,1,-2,-5,-19,-31,-1,10,1
14:58:09:146405,-4,2,-21,-33,-28,-15,-14,-11
14:58:09:153962,-4,2,-21,-33,-28,-15,-14,-11
14:58:09:161375,5,0,10,13,11,3,3,3
14:58:09:168896,-10,-10,-11,-16,12,4,2,-2
14:58:09:177124,-10,-10,-11,-16,12,4,2,-2
14:58:09:177930,3,6,4,-1,-17,-11,-4,-6
14:58:09:192095,6,7,17,21,20,2,-12,-7
14:58:09:192930,6,7,17,21,20,2,-12,-7
14:58:09:198895,13,-8,-3,-6,-4,3,7,-7
14:58:09:206412,5,-2,-2,4,7,-7,-1,5
14:58:09:213983,5,-2,-2,4,7,-7,-1,5
14:58:09:221437,-3,-13,-19,13,18,-2,-7,-1
14:58:09:228936,3,21,33,32,10,9,16,4
14:58:09:237078,3,21,33,32,10,9,16,4
14:58:09:237882,-14,5,13,19,-16,-8,-10,-16
14:58:09:252106,-10,-20,-24,-31,-13,5,-1,-6
14:58:09:252898,-10,-20,-24,-31,-13,5,-1,-6
14:58:09:258954,-9,1,-1,-14,-9,8,31,2
14:58:09:266447,6,8,22,-4,-9,8,14,-2
14:58:09:273933,6,8,22,-4,-9,8,14,-2
14:58:09:281447,-4,-7,-8,-34,0,-2,-13,-4
14:58:09:288910,-26,-11,-6,-5,-1,-4,-6,0
14:58:09:297098,-26,-11,-6,-5,-1,-4,-6,0
14:58:09:297896,21,-15,-8,7,0,1,-4,11
14:58:09:312072,30,5,-8,2,6,-6,-4,7
14:58:09:312890,30,5,-8,2,6,-6,-4,7
14:58:09:318854,-21,-1,-9,0,4,3,9,-8
14:58:09:326444,14,-4,-11,22,4,-4,-10,-1
14:58:09:333959,14,-4,-11,22,4,-4,-10,-1
14:58:09:341409,28,12,12,7,-12,2,5,12
14:58:09:348895,2,-5,-11,-15,10,5,5,0
14:58:09:357143,2,-5,-11,-15,10,5,5,0
14:58:09:357939,-14,-19,-22,4,-16,-7,-15,-8
14:58:09:372150,-7,13,53,9,-14,8,-6,-4
14:58:09:372897,-7,13,53,9,-14,8,-6,-4
14:58:09:378923,-4,16,19,26,8,5,5,3
14:58:09:386365,1,-3,-11,-5,10,-20,-2,1
14:58:09:393980,1,-3,-11,-5,10,-20,-2,1
14:58:09:401392,-2,-1,-8,-25,-25,-6,-4,1
14:58:09:408903,29,-4,-8,2,16,7,12,2
14:58:09:417160,29,-4,-8,2,16,7,12,2
14:58:09:417962,-1,-3,-1,-9,-3,-14,-23,-10
14:58:09:432121,-8,-4,-19,9,-15,-2,-15,-10
14:58:09:432939,-8,-4,-19,9,-15,-2,-15,-10
14:58:09:438905,4,10,16,-1,11,1,-7,20
14:58:09:446418,-24,-15,-26,-18,8,-2,0,-11
14:58:09:454004,-24,-15,-26,-18,8,-2,0,-11
14:58:09:461396,-7,2,12,12,21,10,10,1
14:58:09:468924,-30,-3,-9,-14,19,-4,-1,3
14:58:09:477114,-30,-3,-9,-14,19,-4,-1,3
14:58:09:477908,-4,0,3,13,3,-4,-4,-2
14:58:09:492136,10,3,0,-32,-25,0,-12,3
14:58:09:492942,10,3,0,-32,-25,0,-12,3
14:58:09:498915,-2,-6,-20,-16,10,2,12,-8
14:58:09:506383,-6,1,-15,6,-11,-6,-5,-3
14:58:09:513920,-6,1,-15,6,-11,-6,-5,-3
14:58:09:529626,5,7,17,-14,-21,-1,-4,-4
14:58:09:530347,-14,-8,-5,-10,2,0,4,2
14:58:09:537114,-14,-8,-5,-10,2,0,4,2
14:58:09:537913,-10,-10,-13,-25,-8,3,-1,0
14:58:09:552061,19,4,14,13,2,4,9,-4
14:58:09:552878,19,4,14,13,2,4,9,-4
14:58:09:558920,2,3,-8,13,16,0,7,2
14:58:09:566461,9,0,1,-42,-51,-6,-5,5
14:58:09:574009,9,0,1,-42,-51,-6,-5,5
14:58:09:581465,-9,-7,1,10,27,3,-2,-4
14:58:09:588902,-10,5,-2,13,12,7,2,-3
14:58:09:597135,-10,5,-2,13,12,7,2,-3
14:58:09:597934,7,5,12,5,-18,4,4,2
14:58:09:612143,-9,-4,10,36,10,-4,-2,-4
14:58:09:612984,-9,-4,10,36,10,-4,-2,-4
14:58:09:618895,0,2,-20,-6,10,1,-9,-1
14:58:09:626403,9,10,5,17,16,-10,-6,6
14:58:09:633958,9,10,5,17,16,-10,-6,6
14:58:09:641448,0,-2,5,5,19,-1,8,0
14:58:09:657111,-31,-12,-31,-69,5,-20,-22,-5
14:58:09:657959,-31,-12,-31,-69,5,-20,-22,-5
14:58:09:663907,5,0,0,-10,-15,4,6,4
14:58:09:672063,13,4,13,44,11,5,8,8
14:58:09:672920,13,4,13,44,11,5,8,8
14:58:09:678944,7,2,13,-11,-21,1,-6,-4
14:58:09:694637,16,-2,5,-1,0,2,8,-5
14:58:09:695421,16,-2,5,-1,0,2,8,-5
14:58:09:701404,-2,-2,-14,2,-5,-4,7,-9
14:58:09:708909,14,9,10,0,-14,3,3,2
14:58:09:716419,14,9,10,0,-14,3,3,2
14:58:09:723906,-16,-3,-17,1,-5,-2,-10,2
14:58:09:732082,-6,-16,-17,-21,-33,5,2,-1
14:58:09:732902,-6,-16,-17,-21,-33,5,2,-1
14:58:09:738898,-5,-5,0,-9,-15,-3,1,-3
14:58:09:754587,-9,-19,-17,8,-2,-3,-11,-7
14:58:09:755397,-9,-19,-17,8,-2,-3,-11,-7
14:58:09:761436,13,15,29,23,23,-14,-11,1
14:58:09:768935,-5,4,0,-7,0,-6,8,-22
14:58:09:784652,-5,4,0,-7,0,-6,8,-22
14:58:09:785399,26,-6,-11,-24,-20,0,1,-2
14:58:09:792111,-20,-8,-6,-18,1,-1,-10,2
14:58:09:792902,-20,-8,-6,-18,1,-1,-10,2
14:58:09:798935,18,-8,-5,5,0,-5,1,5
14:58:09:814584,40,23,38,3,-21,0,7,23
14:58:09:815364,40,23,38,3,-21,0,7,23
14:58:09:821371,-24,-5,-18,-6,4,-4,-13,-9
14:58:09:828951,-40,-3,18,21,21,2,-6,-11
14:58:09:836439,-40,-3,18,21,21,2,-6,-11
14:58:09:843908,-17,-16,-20,-7,-11,7,5,5
14:58:09:852109,10,21,7,1,4,-2,2,-3
14:58:09:852915,10,21,7,1,4,-2,2,-3
14:58:09:858878,-19,2,13,13,23,-11,-10,-12
14:58:09:874653,30,-13,-8,1,1,4,6,7
14:58:09:875435,30,-13,-8,1,1,4,6,7
14:58:09:881397,14,-1,2,6,13,11,18,13
14:58:09:888967,10,-8,-11,11,17,4,3,-6
14:58:09:896443,10,-8,-11,11,17,4,3,-6
14:58:09:903923,14,9,3,-7,-3,-5,-10,-2
14:58:09:912134,3,-4,-12,-14,-30,12,13,0
14:58:09:912937,3,-4,-12,-14,-30,12,13,0
14:58:09:918860,-7,-3,-8,-19,4,-5,-2,4
14:58:09:934645,-8,1,-4,21,25,-8,-10,1
14:58:09:935406,-8,1,-4,21,25,-8,-10,1
14:58:09:941400,2,3,16,3,-8,4,5,-1
14:58:09:948901,-5,4,-4,-13,0,-1,-10,6
14:58:09:956492,-5,4,-4,-13,0,-1,-10,6
14:58:09:963876,-13,-11,-26,0,-21,-11,-7,-9
14:58:09:972096,-12,5,9,-13,-10,-3,0,0
14:58:09:972926,-12,5,9,-13,-10,-3,0,0
14:58:09:978931,-19,4,17,2,-18,-7,-3,-5
14:58:09:994650,-14,2,3,14,19,4,8,-3
14:58:09:995442,-14,2,3,14,19,4,8,-3
14:58:10:1436,-10,-26,1,7,17,10,7,4
14:58:10:8846,14,4,1,9,6,-6,5,5
14:58:10:16452,14,4,1,9,6,-6,5,5
14:58:10:23935,0,7,-7,9,11,-14,-10,-2
14:58:10:32105,-12,-10,-8,-7,-12,-12,-8,-8
14:58:10:32892,-12,-10,-8,-7,-12,-12,-8,-8
14:58:10:38926,-3,0,-12,-40,-35,-6,-9,-1
14:58:10:54610,0,3,0,-1,-56,-5,-2,-2
14:58:10:55421,0,3,0,-1,-56,-5,-2,-2
14:58:10:61398,8,-1,11,37,27,1,3,-2
14:58:10:68860,-12,-10,-4,-18,9,11,10,-4
14:58:10:84638,-12,-10,-4,-18,9,11,10,-4
14:58:10:85425,16,9,26,1,-3,1,-3,10
14:58:10:92096,0,-1,-9,6,-4,-6,-2,-1
14:58:10:92894,0,-1,-9,6,-4,-6,-2,-1
14:58:10:106391,-8,-2,-23,13,34,2,7,-8
14:58:10:114597,5,-9,-8,-16,-14,6,12,7
14:58:10:115416,5,-9,-8,-16,-14,6,12,7
14:58:10:121397,-3,9,20,-7,-9,-1,-5,-11
14:58:10:128885,9,-3,-2,4,10,4,-10,-4
14:58:10:136468,9,-3,-2,4,10,4,-10,-4
14:58:10:143904,1,15,16,10,10,4,5,-1
14:58:10:152016,-11,-6,-3,-2,3,3,3,0
14:58:10:152889,-11,-6,-3,-2,3,3,3,0
14:58:10:158927,1,-5,-20,-7,4,13,10,2
14:58:10:175313,6,8,18,6,13,3,-5,-8
14:58:10:176085,6,8,18,6,13,3,-5,-8
14:58:10:181409,-2,-2,-10,6,1,-9,-20,-5
14:58:10:188889,-2,-9,-7,-8,-4,-4,-1,-8
14:58:10:196419,-2,-9,-7,-8,-4,-4,-1,-8
14:58:10:203891,-1,-5,10,-7,-21,4,13,-1
14:58:10:212097,3,2,-8,-7,-14,-12,-19,-2
14:58:10:212957,3,2,-8,-7,-14,-12,-19,-2
14:58:10:218813,-12,-19,-36,-2,3,-7,-3,-11
14:58:10:234662,-20,3,38,-4,15,9,18,-1
14:58:10:235376,-20,3,38,-4,15,9,18,-1
14:58:10:241449,-4,-11,-11,4,2,9,3,-1
14:58:10:248945,1,1,-1,7,-13,-13,-10,0
14:58:10:256430,1,1,-1,7,-13,-13,-10,0
14:58:10:263872,6,-3,-7,-8,-20,-3,-6,0
14:58:10:272095,0,-6,-13,-8,8,12,7,7
14:58:10:272905,0,-6,-13,-8,8,12,7,7
14:58:10:278911,0,0,6,-12,-5,-6,-2,-4
14:58:10:294648,-10,-9,-1,16,5,-11,-6,0
14:58:10:295386,-10,-9,-1,16,5,-11,-6,0
14:58:10:301431,17,13,19,12,-8,1,-7,1
14:58:10:308861,25,10,15,19,15,1,0,-10
14:58:10:316434,25,10,15,19,15,1,0,-10
14:58:10:323868,-12,-7,-12,-8,10,4,-3,-18
14:58:10:332095,2,-15,-24,-17,-3,-1,3,2
14:58:10:332925,2,-15,-24,-17,-3,-1,3,2
14:58:10:338871,5,18,11,-29,-24,-9,-10,14
14:58:10:354602,-8,5,0,12,4,-1,-13,1
14:58:10:355406,-8,5,0,12,4,-1,-13,1
14:58:10:369506,-8,5,6,9,41,-8,-6,3
14:58:10:370302,-4,-6,-16,-26,-15,-6,-11,-3
14:58:10:384641,-4,-6,-16,-26,-15,-6,-11,-3
14:58:10:385363,-9,-6,0,0,-8,-2,3,-6
14:58:10:392078,-59,1,12,-9,-5,-2,3,-3
14:58:10:392873,-59,1,12,-9,-5,-2,3,-3
14:58:10:398873,-7,6,-2,-9,-17,-2,0,6
14:58:10:415039,14,0,-11,-21,-13,-1,-1,-2
14:58:10:422055,14,0,-11,-21,-13,-1,-1,-2
14:58:10:422863,-13,0,3,-4,10,1,5,3
14:58:10:428942,3,-1,7,-7,6,1,-1,15
14:58:10:436430,3,-1,7,-7,6,1,-1,15
14:58:10:443859,-16,0,5,-1,3,0,-5,1
14:58:10:460262,5,2,-3,10,23,-2,-3,-7
14:58:10:461066,5,2,-3,10,23,-2,-3,-7
14:58:10:461882,22,-5,-7,9,-6,4,16,0
14:58:10:474625,2,-3,0,0,-15,11,0,4
14:58:10:475441,2,-3,0,0,-15,11,0,4
14:58:10:481405,-1,-5,-5,-6,-10,3,6,0
14:58:10:488899,58,-11,-4,7,-3,-15,-15,-1
14:58:10:496474,58,-11,-4,7,-3,-15,-15,-1
14:58:10:503930,-8,-6,2,-2,-5,2,-8,1
14:58:10:512092,-7,14,4,17,29,0,5,-1
14:58:10:512945,-7,14,4,17,29,0,5,-1
14:58:10:518862,9,7,1,0,3,6,5,0
14:58:10:534608,-19,-16,-21,-3,-7,-5,-9,-7
14:58:10:535410,-19,-16,-21,-3,-7,-5,-9,-7
14:58:10:541477,2,8,24,-11,-12,10,6,10
14:58:10:548919,24,13,-9,5,17,-1,-25,2
14:58:10:556421,24,13,-9,5,17,-1,-25,2
14:58:10:563877,-6,-13,-19,-4,-1,-2,-11,-19
14:58:10:572104,-3,-4,-7,-10,-7,12,12,-2
14:58:10:572922,-3,-4,-7,-10,-7,12,12,-2
14:58:10:578929,18,9,-3,-2,8,-14,-9,0
14:58:10:594615,18,9,-3,-2,8,-14,-9,0
14:58:10:595418,-7,-1,-11,4,-5,4,4,-2
14:58:10:601407,-25,7,11,16,-15,-6,-3,-6
14:58:10:617104,-25,7,11,16,-15,-6,-3,-6
14:58:10:617924,-6,-3,-2,-9,-25,-13,1,2
14:58:10:623927,39,21,30,33,1,-1,-6,9
14:58:10:632124,39,21,30,33,1,-1,-6,9
14:58:10:632897,-8,0,12,-5,-9,1,6,-1
14:58:10:646421,-2,-14,-2,6,-8,-18,-5,-3
14:58:10:662770,-2,-14,-2,6,-8,-18,-5,-3
14:58:10:663606,-4,2,7,5,5,2,13,6
14:58:10:664306,-5,-20,-21,-9,-8,-1,-3,-11
14:58:10:677183,-5,-20,-21,-9,-8,-1,-3,-11
14:58:10:677955,-9,7,38,16,-4,3,7,0
14:58:10:683941,-9,11,-1,13,26,1,-2,5
14:58:10:692131,-9,11,-1,13,26,1,-2,5
14:58:10:692857,2,-22,-40,-34,7,-6,3,17
14:58:10:706409,-5,-11,-5,-16,-8,1,3,-4
14:58:10:714616,-5,-11,-5,-16,-8,1,3,-4
14:58:10:715455,-5,1,-8,8,22,-12,-25,-12
14:58:10:721382,-3,-4,-16,-25,3,-4,-12,-1
14:58:10:737606,-3,-4,-16,-25,3,-4,-12,-1
14:58:10:738404,0,18,39,36,2,10,12,-1
14:58:10:743918,-4,2,-12,-2,13,15,2,1
14:58:10:752109,-4,2,-12,-2,13,15,2,1
14:58:10:752971,19,-6,5,-10,8,-5,-3,-4
14:58:10:766402,19,-10,6,2,-13,0,7,1
14:58:10:774671,19,-10,6,2,-13,0,7,1
14:58:10:775407,-11,-11,-16,-6,-12,-5,-8,-13
14:58:10:781363,31,-8,1,14,4,-3,-16,0
14:58:10:797143,31,-8,1,14,4,-3,-16,0
14:58:10:797862,18,8,-1,-4,2,-12,-13,6
14:58:10:803859,-20,-3,-12,-24,8,0,2,-5
14:58:10:812103,-20,-3,-12,-24,8,0,2,-5
14:58:10:812917,-13,1,-8,7,-17,-2,0,-6
14:58:10:826377,-1,1,-6,-28,-9,11,15,5
14:58:10:834659,-1,1,-6,-28,-9,11,15,5
14:58:10:835393,-20,-11,-11,-20,-16,-16,-21,-7
14:58:10:841401,-3,-1,2,6,4,0,9,-8
14:58:10:857554,-3,-1,2,6,4,0,9,-8
14:58:10:864561,8,3,-4,10,-2,5,10,-23
14:58:10:865355,-24,-4,-5,1,-21,-3,-12,42
14:58:10:872087,-24,-4,-5,1,-21,-3,-12,42
14:58:10:872910,7,-12,-2,-1,2,1,6,-4
14:58:10:886374,-10,-2,-6,-4,1,-7,-18,-1
14:58:10:894613,-10,-2,-6,-4,1,-7,-18,-1
14:58:10:895407,-13,8,1,-16,-8,4,-4,-2
14:58:10:901394,2,-4,-6,3,0,-8,0,-36
14:58:10:917054,2,-4,-6,3,0,-8,0,-36
14:58:10:917890,-3,4,7,6,-29,6,5,6
14:58:10:923904,-13,19,25,17,-16,5,21,-14
14:58:10:939646,-13,19,25,17,-16,5,21,-14
14:58:10:940394,16,-2,0,-6,-3,-4,-5,20
14:58:10:946403,-11,-15,-11,-3,8,3,-5,18
14:58:10:954625,-11,-15,-11,-3,8,3,-5,18
14:58:10:955422,-10,-8,1,15,23,13,10,-4
14:58:10:961358,4,7,8,-14,4,0,-3,3
14:58:10:977131,4,7,8,-14,4,0,-3,3
14:58:10:977920,-2,-1,3,25,7,1,2,-2
14:58:10:983904,8,-6,-4,14,-9,-7,4,-9
14:58:10:992086,8,-6,-4,14,-9,-7,4,-9
14:58:10:992877,3,-1,-9,-7,1,-4,-5,-1
14:58:11:15258,-3,-2,8,13,-8,-5,-6,1
14:58:11:22789,-3,-2,8,13,-8,-5,-6,1
14:58:11:23619,-4,-1,-16,-18,13,-3,1,9
14:58:11:24408,7,6,-2,1,8,-4,0,-5
14:58:11:37155,7,6,-2,1,8,-4,0,-5
14:58:11:37927,1,9,12,8,-6,-11,8,3
14:58:11:43872,-12,-8,-6,-5,4,3,4,-5
14:58:11:52247,-12,-8,-6,-5,4,3,4,-5
14:58:11:52982,-4,6,7,27,1,-12,-26,-4
14:58:11:66440,-11,2,13,28,13,-6,-5,-9
14:58:11:74635,-11,2,13,28,13,-6,-5,-9
14:58:11:75438,-10,-13,-15,-24,-25,2,0,1
14:58:11:88917,6,12,27,-1,-5,2,-2,6
14:58:11:97183,6,12,27,-1,-5,2,-2,6
14:58:11:97911,-8,-7,-14,-19,-14,10,13,-4
14:58:11:103872,3,-4,-27,-43,-1,-17,-9,-7
14:58:11:112146,3,-4,-27,-43,-1,-17,-9,-7
14:58:11:112959,6,5,-2,-3,11,-5,-3,-5
14:58:11:126428,4,-9,-13,14,-5,-4,-7,3
14:58:11:134634,4,-9,-13,14,-5,-4,-7,3
14:58:11:135419,-18,-3,-4,-11,-11,3,2,-11
14:58:11:141418,-4,-7,-34,-8,7,6,0,-4
14:58:11:157172,-4,-7,-34,-8,7,6,0,-4
14:58:11:157906,-9,7,59,14,11,-1,8,-5
14:58:11:163868,4,7,6,-41,-21,0,-9,5
14:58:11:172099,4,7,6,-41,-21,0,-9,5
14:58:11:172961,-3,-6,-27,-6,0,-7,-2,-4
14:58:11:186388,-5,-4,12,17,-6,0,-2,0
14:58:11:194629,-5,-4,12,17,-6,0,-2,0
14:58:11:195419,0,-5,5,7,4,11,9,6
14:58:11:201414,2,0,-13,4,25,9,11,2
14:58:11:217118,2,0,-13,4,25,9,11,2
14:58:11:217924,0,-4,-8,-1,8,-5,-6,-1
14:58:11:223878,0,-3,0,8,13,3,20,-2
14:58:11:232105,0,-3,0,8,13,3,20,-2
14:58:11:232903,1,-7,-16,-2,8,1,-6,-2
14:58:11:246463,-1,-5,5,12,19,-6,-7,-8
14:58:11:254624,-1,-5,5,12,19,-6,-7,-8
14:58:11:255420,7,-10,-10,-6,-2,1,14,6
14:58:11:261372,1,2,11,-24,-13,-11,6,3
14:58:11:277120,1,2,11,-24,-13,-11,6,3
14:58:11:277849,-16,10,-1,-3,-7,-2,-9,1
14:58:11:292718,-8,2,-8,20,0,3,-3,7
14:58:11:293619,-8,2,-8,20,0,3,-3,7
14:58:11:294284,-11,-8,-4,-3,-6,2,2,-10
14:58:11:306409,6,5,0,-8,-6,3,0,8
14:58:11:314613,6,5,0,-8,-6,3,0,8
14:58:11:315415,-16,5,6,15,-24,-8,-8,-5
14:58:11:321435,1,-2,-7,-23,-5,3,-6,-1
14:58:11:337128,1,-2,-7,-23,-5,3,-6,-1
14:58:11:337918,12,0,1,-9,18,0,4,-1
14:58:11:343918,-5,-6,1,40,-10,-14,-10,-6
14:58:11:352139,-5,-6,1,40,-10,-14,-10,-6
14:58:11:352911,6,6,11,6,2,5,-14,3
14:58:11:366443,6,-7,-2,-3,-14,11,16,-1
14:58:11:374625,6,-7,-2,-3,-14,11,16,-1
14:58:11:375394,2,-5,-5,13,12,0,2,0
14:58:11:381358,-8,-4,-6,5,0,-12,-2,-3
14:58:11:397783,-8,-4,-6,5,0,-12,-2,-3
14:58:11:398617,28,8,8,7,-1,2,-2,1
14:58:11:403868,0,-6,-13,-13,-32,0,0,-6
14:58:11:412203,0,-6,-13,-13,-32,0,0,-6
14:58:11:413006,7,8,-4,9,-1,2,10,-2
14:58:11:426372,-3,4,24,-2,-5,3,-2,-1
14:58:11:434646,-3,4,24,-2,-5,3,-2,-1
14:58:11:435455,3,-4,6,-29,-8,-8,-5,3
14:58:11:441408,-13,2,4,15,9,5,-10,-7
14:58:11:457130,-13,2,4,15,9,5,-10,-7
14:58:11:457913,-18,5,-1,0,-16,-1,-5,-5
14:58:11:463904,-1,-5,-20,5,-5,-2,-3,1
14:58:11:472156,-1,-5,-20,5,-5,-2,-3,1
14:58:11:472979,22,-2,-4,-17,-5,2,-3,13
14:58:11:486354,4,-2,-4,-2,8,10,9,-3
14:58:11:494625,4,-2,-4,-2,8,10,9,-3
14:58:11:495432,-21,0,2,12,-12,-10,-1,-12
14:58:11:501428,3,11,-3,-6,3,-5,-2,3
14:58:11:517146,3,11,-3,-6,3,-5,-2,3
14:58:11:517957,27,-10,-21,-29,-1,7,7,2
14:58:11:523884,-8,-1,16,8,9,-8,-10,0
14:58:11:532150,-8,-1,16,8,9,-8,-10,0
14:58:11:532967,15,17,13,6,9,3,-9,-1
14:58:11:546382,9,-7,-9,-10,1,10,8,-2
14:58:11:554605,9,-7,-9,-10,1,10,8,-2
14:58:11:555438,-8,-12,-6,-4,-22,-3,-2,5
14:58:11:569415,-6,-5,-8,2,24,3,2,-5
14:58:11:577083,-6,-5,-8,2,24,3,2,-5
14:58:11:577881,-7,-4,-2,-1,10,-8,-7,-4
14:58:11:583911,2,-1,-4,-9,-11,6,19,7
14:58:11:591434,2,-1,-4,-9,-11,6,19,7
14:58:11:598872,-9,-5,-10,-14,-4,2,-4,-6
14:58:11:606378,4,4,-1,-8,-1,2,2,4
14:58:11:614638,4,4,-1,-8,-1,2,2,4
14:58:11:615411,-4,1,7,4,27,1,4,-4
14:58:11:628904,-6,0,8,-18,-4,-14,-22,-12
14:58:11:637097,-6,0,8,-18,-4,-14,-22,-12
14:58:11:637900,-20,-5,-14,-16,-17,1,-1,-5
14:58:11:643864,49,7,12,4,1,-20,3,5
14:58:11:651448,49,7,12,4,1,-20,3,5
14:58:11:658929,2,-10,-14,8,10,9,-3,7
14:58:11:666389,-3,-4,-2,0,7,-12,-16,-8
14:58:11:674615,-3,-4,-2,0,7,-12,-16,-8
14:58:11:675412,-3,1,7,0,6,-16,-9,-3
14:58:11:688880,-5,-5,-3,-3,7,8,14,20
14:58:11:697126,-5,-5,-3,-3,7,8,14,20
14:58:11:697926,-5,10,10,4,7,7,7,4
14:58:11:703862,-21,-14,-19,-2,-19,-17,-14,-8
14:58:11:711448,-21,-14,-19,-2,-19,-17,-14,-8
14:58:11:718893,7,-6,-6,2,13,2,-2,7
14:58:11:726392,-14,-2,0,-15,10,3,4,1
14:58:11:734649,-14,-2,0,-15,10,3,4,1
14:58:11:735353,6,3,17,26,3,-2,1,0
14:58:11:748945,-17,1,-14,-13,-26,5,-10,-6
14:58:11:757141,-17,1,-14,-13,-26,5,-10,-6
14:58:11:757989,-13,-2,4,-5,2,4,3,10
14:58:11:763900,39,7,9,1,-6,10,3,4
14:58:11:771403,39,7,9,1,-6,10,3,4
14:58:11:778941,4,10,18,7,-8,-2,11,-24
14:58:11:786408,5,2,-8,34,37,7,-5,2
14:58:11:794605,5,2,-8,34,37,7,-5,2
14:58:11:795410,7,-8,-9,-11,10,-11,-7,-4
14:58:11:808874,-15,-9,-21,-17,-6,5,6,-1
14:58:11:817145,-15,-9,-21,-17,-6,5,6,-1
14:58:11:817924,-10,3,2,1,-15,-7,-7,-1
14:58:11:823932,-7,1,-6,-15,-9,-2,3,-4
14:58:11:831462,-7,1,-6,-15,-9,-2,3,-4
14:58:11:847098,6,3,9,-7,-11,-2,9,2
14:58:11:847854,-9,-4,6,-5,26,4,11,-3
14:58:11:854624,-9,-4,6,-5,26,4,11,-3
14:58:11:855383,-3,-2,-2,9,14,4,-5,-3
14:58:11:868877,-9,2,0,-3,8,0,7,2
14:58:11:877075,-9,2,0,-3,8,0,7,2
14:58:11:877861,1,4,-17,-18,-6,-4,-10,0
14:58:11:883947,9,12,38,8,-23,4,-7,-8
14:58:11:891460,9,12,38,8,-23,4,-7,-8
14:58:11:898938,-4,-3,10,-20,-28,-19,-6,-1
14:58:11:906447,-13,-3,1,9,-3,-8,3,-5
14:58:11:922094,-13,-3,1,9,-3,-8,3,-5
14:58:11:922876,-9,-3,-17,20,-13,-3,-16,1
14:58:11:928953,5,5,19,-8,-20,0,0,2
14:58:11:937093,5,5,19,-8,-20,0,0,2
14:58:11:937855,-5,-15,-27,-11,21,3,7,0
14:58:11:943932,-1,-2,-8,0,-2,-69,-5,0
14:58:11:951485,-1,-2,-8,0,-2,-69,-5,0
14:58:11:958902,-30,7,11,12,-3,15,-5,-11
14:58:11:966448,-18,-10,-9,-15,3,25,-11,-12
14:58:11:974633,-18,-10,-9,-15,3,25,-11,-12
14:58:11:975418,-13,-5,-2,0,4,20,23,-4
14:58:11:988889,-5,-21,-24,-7,-17,18,2,6
14:58:11:997117,-5,-21,-24,-7,-17,18,2,6
14:58:11:997928,18,5,5,20,-19,-5,-11,4
14:58:12:3856,0,-1,-5,-17,-17,-7,-11,-4
14:58:12:11467,0,-1,-5,-17,-17,-7,-11,-4
14:58:12:18922,1,-2,12,19,0,-3,-8,-3
14:58:12:26414,5,4,3,14,4,-2,5,0
14:58:12:34622,5,4,3,14,4,-2,5,0
14:58:12:35431,6,-7,-15,-23,-11,-16,-2,-2
14:58:12:48878,-2,-1,-6,17,13,14,5,-1
14:58:12:57135,-2,-1,-6,17,13,14,5,-1
14:58:12:57932,5,5,20,2,-8,4,13,5
14:58:12:63908,-2,4,3,10,-5,0,-3,4
14:58:12:71493,-2,4,3,10,-5,0,-3,4
14:58:12:78909,-19,-15,-20,-12,18,-9,-7,-4
14:58:12:86391,-14,-2,-1,1,0,1,4,0
14:58:12:94716,-14,-2,-1,1,0,1,4,0
14:58:12:95392,31,13,5,-16,-13,3,3,3
14:58:12:108920,4,4,17,34,14,-11,-14,-9
14:58:12:125290,4,4,17,34,14,-11,-14,-9
14:58:12:126128,0,4,-5,-15,-11,8,16,2
14:58:12:126878,14,16,23,-18,-14,2,-1,4
14:58:12:131432,14,16,23,-18,-14,2,-1,4
14:58:12:138874,-1,-5,3,-8,6,-2,-10,-1
14:58:12:146417,-2,-6,-10,-11,2,5,-7,-3
14:58:12:162200,-2,-6,-10,-11,2,5,-7,-3
14:58:12:162979,-3,-6,-2,3,6,-10,-29,1
14:58:12:168928,-4,1,-11,5,-7,-2,4,-2
14:58:12:177109,-4,1,-11,5,-7,-2,4,-2
14:58:12:177909,-14,-9,-18,-5,-9,-8,6,-6
14:58:12:183911,-16,-3,6,3,6,-12,-6,-7
14:58:12:191406,-16,-3,6,3,6,-12,-6,-7
14:58:12:198924,-6,9,2,-22,-8,8,11,1
14:58:12:206389,-25,-13,-15,-3,6,12,7,4
14:58:12:214589,-25,-13,-15,-3,6,12,7,4
14:58:12:215385,-36,-4,1,14,0,-8,-3,-7
14:58:12:228877,22,6,22,-9,5,5,18,20
14:58:12:237082,22,6,22,-9,5,5,18,20
14:58:12:237875,14,-4,0,16,-6,9,-4,2
14:58:12:243928,0,-9,-15,22,16,-9,-14,-11
14:58:12:251405,0,-9,-15,22,16,-9,-14,-11
14:58:12:258856,6,-1,-12,-4,-2,0,10,6
14:58:12:266379,3,-1,1,-11,-30,10,-3,-4
14:58:12:274627,3,-1,1,-11,-30,10,-3,-4
14:58:12:275407,5,-10,0,-3,6,-1,3,-5
14:58:12:289349,6,4,-5,-7,0,2,-4,-5
14:58:12:297110,6,4,-5,-7,0,2,-4,-5
14:58:12:297885,4,4,6,-11,4,-5,4,3
14:58:12:303869,1,-10,-25,-28,-8,-2,2,-3
14:58:12:311474,1,-10,-25,-28,-8,-2,2,-3
14:58:12:318890,0,-1,2,-6,-31,-7,-2,0
14:58:12:326423,6,5,-6,-23,14,4,-15,-4
14:58:12:334680,6,5,-6,-23,14,4,-15,-4
14:58:12:335434,13,2,-10,-48,8,1,12,5
14:58:12:348869,-6,-1,-6,1,-21,-17,-19,2
14:58:12:365270,-6,-1,-6,1,-21,-17,-19,2
14:58:12:366068,-7,-13,2,21,-13,-6,-7,-5
14:58:12:366897,1,-11,28,-1,10,-3,7,0
14:58:12:371410,1,-11,28,-1,10,-3,7,0
14:58:12:378865,23,8,10,19,22,-11,-14,8
14:58:12:386366,-29,-12,-19,10,7,0,-2,-10
14:58:12:402091,-29,-12,-19,10,7,0,-2,-10
14:58:12:402866,21,1,-11,-7,-1,1,-4,6
14:58:12:408940,9,21,10,13,0,-5,-14,-3
14:58:12:417105,9,21,10,13,0,-5,-14,-3
14:58:12:417918,-19,-3,-8,-1,36,10,-5,-5
14:58:12:423895,11,2,22,-7,-8,0,8,1
14:58:12:439666,11,2,22,-7,-8,0,8,1
14:58:12:440413,-5,3,10,29,-16,-11,-5,-3
14:58:12:446357,3,4,-2,-22,4,5,9,3
14:58:12:454598,3,4,-2,-22,4,5,9,3
14:58:12:455414,-7,-4,2,3,21,12,16,-3
14:58:12:468910,16,8,6,21,-7,-3,11,2
14:58:12:477070,16,8,6,21,-7,-3,11,2
14:58:12:477861,-4,-4,-20,-21,-16,-17,-30,-11
14:58:12:492103,9,0,8,32,21,-3,6,-1
14:58:12:492878,9,0,8,32,21,-3,6,-1
14:58:12:498945,-13,-4,2,-4,-8,5,6,-15
14:58:12:514619,-6,-13,-25,-4,8,6,6,0
14:58:12:515371,-6,-13,-25,-4,8,6,6,0
14:58:12:521428,-4,2,2,-13,-4,-13,1,3
14:58:12:528902,-5,11,3,-1,1,2,9,-2
14:58:12:537101,-5,11,3,-1,1,2,9,-2
14:58:12:537878,8,-3,-15,-21,3,11,4,-9
14:58:12:560299,13,6,5,-11,-6,0,-5,9
14:58:12:561074,13,6,5,-11,-6,0,-5,9
14:58:12:561868,5,3,0,9,-16,0,14,3
14:58:12:566433,4,-17,-17,-3,-16,-5,-20,0
14:58:12:574015,4,-17,-17,-3,-16,-5,-20,0
14:58:12:581428,-4,12,22,22,4,3,10,2
14:58:12:588869,-4,-14,-22,-24,-15,1,9,-9
14:58:12:597094,-4,-14,-22,-24,-15,1,9,-9
14:58:12:597881,-38,-2,4,-1,9,7,5,-4
14:58:12:612081,-8,7,2,-19,-17,-7,-5,-2
14:58:12:612882,-8,7,2,-19,-17,-7,-5,-2
14:58:12:618891,5,-10,-31,13,18,4,-6,3
14:58:12:626443,-6,4,-1,-1,6,3,-2,1
14:58:12:633964,-6,4,-1,-1,6,3,-2,1
14:58:12:641494,7,5,23,2,-1,2,-2,4
14:58:12:648979,3,-9,-7,-9,-11,-1,-2,-20
14:58:12:657192,3,-9,-7,-9,-11,-1,-2,-20
14:58:12:657954,-2,-5,-7,6,-2,-11,0,-2
14:58:12:680320,-4,-2,6,18,5,2,-12,6
14:58:12:681077,-4,-2,6,18,5,2,-12,6
14:58:12:681878,3,-3,22,5,-9,6,6,-1
14:58:12:686411,-39,-3,-2,7,19,-4,3,1
14:58:12:694005,-39,-3,-2,7,19,-4,3,1
14:58:12:701426,2,-10,-7,14,33,-3,-6,-1
14:58:12:717800,-11,3,6,-20,-22,1,3,-4
14:58:12:718639,-11,3,6,-20,-22,1,3,-4
14:58:12:719401,-4,2,-10,9,3,-1,-16,9
14:58:12:732150,1,6,9,6,22,1,5,-11
14:58:12:732976,1,6,9,6,22,1,5,-11
14:58:12:738877,-16,-3,-3,3,-6,1,3,-5
14:58:12:746415,5,-2,-15,10,5,-5,-23,11
14:58:12:753953,5,-2,-15,10,5,-5,-23,11
14:58:12:761485,12,6,6,-9,-18,-22,-3,0
14:58:12:768878,25,-8,-3,0,-10,-15,-2,-5
14:58:12:776887,25,-8,-3,0,-10,-15,-2,-5
14:58:12:792826,3,-2,-3,14,21,6,1,6
14:58:12:793634,4,3,11,12,11,5,0,3
14:58:12:794419,4,3,11,12,11,5,0,3
14:58:12:798897,-3,-1,-3,-22,-20,4,7,-1
14:58:12:806386,-4,-11,-12,-12,-27,4,0,-2
14:58:12:813970,-4,-11,-12,-12,-27,4,0,-2
14:58:12:821415,0,19,21,8,2,2,-7,-2
14:58:12:828918,4,-8,0,8,-13,0,5,4
14:58:12:837590,4,-8,0,8,-13,0,5,4
14:58:12:843849,5,-5,-9,2,-13,5,-3,0
14:58:12:852087,-8,-6,-10,-3,17,2,-5,-1
14:58:12:852906,-8,-6,-10,-3,17,2,-5,-1
14:58:12:867073,0,8,11,4,10,3,2,0
14:58:12:867889,-10,-6,-2,-18,-3,9,19,-1
14:58:12:873975,-10,-6,-2,-18,-3,9,19,-1
14:58:12:881392,10,2,10,2,-4,-8,-36,-14
14:58:12:888884,24,-3,-25,-5,16,-13,-3,7
14:58:12:897088,24,-3,-25,-5,16,-13,-3,7
14:58:12:897912,3,-1,2,9,11,8,5,1
14:58:12:920252,-5,0,-15,-6,-3,5,-8,0
14:58:12:921076,-5,0,-15,-6,-3,5,-8,0
14:58:12:921843,-6,5,-8,-10,-5,3,5,-4
14:58:12:926382,7,-2,9,23,11,-4,-1,-3
14:58:12:933985,7,-2,9,23,11,-4,-1,-3
14:58:12:941437,3,0,1,-12,-14,-5,4,2
14:58:12:957736,-7,11,20,14,-21,-7,-10,-3
14:58:12:958541,-7,11,20,14,-21,-7,-10,-3
14:58:12:959362,17,-14,-7,-4,2,0,-1,4
14:58:12:972121,-12,8,5,1,3,-4,-10,-8
14:58:12:972939,-12,8,5,1,3,-4,-10,-8
14:58:12:978957,6,-12,-26,-25,-3,-26,-14,-2
14:58:12:994669,12,17,18,30,1,6,0,11
14:58:12:995447,12,17,18,30,1,6,0,11
14:58:13:1413,-4,-6,-7,14,3,2,3,-1
14:58:13:8903,-11,-12,-21,-7,6,4,-1,-6
14:58:13:17161,-11,-12,-21,-7,6,4,-1,-6
14:58:13:17940,-14,7,9,-7,-38,6,2,-4
14:58:13:32117,-6,-2,-5,-9,13,1,15,1
14:58:13:32920,-6,-2,-5,-9,13,1,15,1
14:58:13:38864,2,1,10,-9,-1,2,2,0
14:58:13:46397,-4,-6,-13,-6,-7,3,14,-8
14:58:13:53928,-4,-6,-13,-6,-7,3,14,-8
14:58:13:69525,-10,-10,-2,5,16,0,3,-3
14:58:13:70368,-3,-6,-5,15,13,0,-2,5
14:58:13:77080,-3,-6,-5,15,13,0,-2,5
14:58:13:77894,0,8,4,2,-22,-3,8,2
14:58:13:92113,0,1,5,-18,8,5,3,-3
14:58:13:92899,0,1,5,-18,8,5,3,-3
14:58:13:98915,-16,-20,-30,-20,15,4,13,-6
14:58:13:106416,-2,2,17,9,-4,-16,-7,7
14:58:13:113987,-2,2,17,9,-4,-16,-7,7
14:58:13:121400,18,1,0,-5,11,-9,-10,9
14:58:13:128919,35,2,2,-5,-12,7,-2,10
14:58:13:144605,35,2,2,-5,-12,7,-2,10
14:58:13:145380,-7,-3,-3,9,-18,-13,-14,-4
14:58:13:152091,-3,1,9,-3,-15,-20,5,-10
14:58:13:152914,-3,1,9,-3,-15,-20,5,-10
14:58:13:158919,1,-6,-7,-16,15,12,11,5
14:58:13:166398,-7,0,5,4,23,1,-1,3
14:58:13:174024,-7,0,5,4,23,1,-1,3
14:58:13:181415,-8,1,17,23,33,8,-4,-3
14:58:13:197776,-8,-3,1,7,-11,-5,1,-5
14:58:13:198656,-8,-3,1,7,-11,-5,1,-5
14:58:13:199390,20,-8,-18,-19,-34,-5,-16,-2
14:58:13:212099,-42,-5,4,-20,-18,4,-5,-2
14:58:13:212935,-42,-5,4,-20,-18,4,-5,-2
14:58:13:218870,7,8,16,-1,6,3,6,10
14:58:13:234639,8,-4,6,-17,-30,2,-5,-2
14:58:13:235394,8,-4,6,-17,-30,2,-5,-2
14:58:13:241372,-13,1,-7,-4,-3,-6,-12,-9
14:58:13:248875,7,-1,-4,10,16,7,9,-3
14:58:13:257104,7,-1,-4,10,16,7,9,-3
14:58:13:257894,-1,6,17,-6,1,3,10,-6
14:58:13:272529,-3,2,7,18,-12,-20,-11,-7
14:58:13:273362,-3,2,7,18,-12,-20,-11,-7
14:58:13:278893,-11,-2,-8,-16,-14,-23,-5,0
14:58:13:286351,0,11,2,7,16,-5,1,-1
14:58:13:293972,0,11,2,7,16,-5,1,-1
14:58:13:309496,-7,-7,-8,6,4,7,13,1
14:58:13:310305,-13,-8,-10,6,15,-4,-9,5
14:58:13:324663,-13,-8,-10,6,15,-4,-9,5
14:58:13:325352,-3,2,-9,-4,18,5,-6,-13
14:58:13:332080,20,9,20,4,4,-1,-7,4
14:58:13:332872,20,9,20,4,4,-1,-7,4
14:58:13:347043,-4,-2,1,-7,-58,-3,3,-3
14:58:13:347883,16,-5,-10,-15,2,-1,3,2
14:58:13:353923,16,-5,-10,-15,2,-1,3,2
14:58:13:361390,-1,-2,-8,2,-10,-4,-12,-6
14:58:13:368893,2,7,-1,1,3,9,-2,-2
14:58:13:377126,2,7,-1,1,3,9,-2,-2
14:58:13:377944,24,-3,-9,10,10,6,2,1
14:58:13:400338,-17,1,3,-14,-2,3,-6,-9
14:58:13:401127,-17,1,3,-14,-2,3,-6,-9
14:58:13:401923,-1,7,-14,20,23,-3,2,11
14:58:13:406378,7,-3,-1,-29,-28,-10,-5,0
14:58:13:422145,7,-3,-1,-29,-28,-10,-5,0
14:58:13:422913,-2,-6,25,21,13,4,-5,-5
14:58:13:428926,1,-1,4,34,18,2,6,-2
14:58:13:436453,1,-1,4,34,18,2,6,-2
14:58:13:443915,0,1,-2,-16,-1,-1,10,-1
14:58:13:452068,-7,-6,-8,-10,-43,2,4,-5
14:58:13:452908,-7,-6,-8,-10,-43,2,4,-5
14:58:13:458911,12,6,9,-1,7,0,-7,3
14:58:13:475081,0,3,12,17,35,-6,0,4
14:58:13:475871,0,3,12,17,35,-6,0,4
14:58:13:481440,-1,8,10,-11,-1,-19,-43,-4
14:58:13:489599,-10,-3,-3,-15,-4,3,-4,-4
14:58:13:490444,-10,-3,-3,-15,-4,3,-4,-4
14:58:13:512806,-13,-4,-8,1,8,7,22,1
14:58:13:513635,-3,-14,-16,-19,-18,-11,-2,-6
14:58:13:514423,-3,-14,-16,-19,-18,-11,-2,-6
14:58:13:518872,-11,-16,-12,-7,2,5,2,-1
14:58:13:534660,22,8,20,5,-24,11,8,21
14:58:13:535386,22,8,20,5,-24,11,8,21
14:58:13:550301,-14,-5,-5,-16,-27,2,0,-17
14:58:13:551080,-8,-4,-21,-19,17,-3,-18,-6
14:58:13:551889,-8,-4,-21,-19,17,-3,-18,-6
14:58:13:563921,9,2,5,13,1,3,12,6
14:58:13:572079,4,7,5,0,8,2,9,8
14:58:13:572892,4,7,5,0,8,2,9,8
14:58:13:578945,-5,-2,-8,-6,-4,3,1,-5
14:58:13:594546,-3,0,-5,1,17,4,6,-5
14:58:13:595375,-3,0,-5,1,17,4,6,-5
14:58:13:601423,38,2,1,-3,7,-5,0,-1
14:58:13:609634,-11,0,-4,-12,-4,2,-4,-7
14:58:13:610384,-11,0,-4,-12,-4,2,-4,-7
14:58:13:623923,1,2,0,0,-16,-1,-8,4
14:58:13:632078,-3,-14,-14,2,18,-11,-20,-9
14:58:13:632867,-3,-14,-14,2,18,-11,-20,-9
14:58:13:638879,3,7,9,-10,20,8,-1,5
14:58:13:654648,-9,5,6,11,-6,2,3,-3
14:58:13:655428,-9,5,6,11,-6,2,3,-3
14:58:13:661406,-8,-6,13,13,7,7,6,-2
14:58:13:677159,2,-4,-21,-21,-6,4,10,-1
14:58:13:677943,2,-4,-21,-21,-6,4,10,-1
14:58:13:683879,-23,-17,-16,-13,-10,0,0,-12
14:58:13:692048,-13,0,12,10,1,2,0,-4
14:58:13:692872,-13,0,12,10,1,2,0,-4
14:58:13:698941,-2,-1,3,12,3,-6,5,12
14:58:13:714633,8,-7,-18,-4,6,-3,-4,4
14:58:13:715435,8,-7,-18,-4,6,-3,-4,4
14:58:13:721391,-16,1,-2,-9,4,-6,-26,-12
14:58:13:729600,8,5,7,11,-9,5,10,10
14:58:13:730386,8,5,7,11,-9,5,10,10
14:58:13:752766,-8,-4,-3,9,21,-11,-3,-4
14:58:13:753647,-2,-9,-4,10,23,1,1,-1
14:58:13:754306,-2,-9,-4,10,23,1,1,-1
14:58:13:758873,-1,-9,-15,-24,-1,-2,9,-1
14:58:13:774660,22,-2,3,-17,-17,-9,1,-6
14:58:13:775414,22,-2,3,-17,-17,-9,1,-6
14:58:13:790241,2,8,6,18,-16,11,23,9
14:58:13:791041,2,8,2,2,-12,-23,-14,1
14:58:13:791874,2,8,2,2,-12,-23,-14,1
14:58:13:803961,29,1,-7,-5,-12,-10,-18,5
14:58:13:812059,-25,1,4,-2,2,4,-13,-5
14:58:13:812894,-25,1,4,-2,2,4,-13,-5
14:58:13:826401,-15,-8,3,-8,4,6,7,6
14:58:13:834556,1,2,-2,-7,-14,-6,-4,-11
14:58:13:835382,1,2,-2,-7,-14,-6,-4,-11
14:58:13:841466,21,9,3,6,5,2,-17,14
14:58:13:849558,-25,-11,-19,2,3,6,2,-3
14:58:13:850379,-25,-11,-19,2,3,6,2,-3
14:58:13:863966,-7,-13,-20,-18,-53,-11,-14,-8
14:58:13:872075,1,5,12,-11,-11,-2,-4,1
14:58:13:872848,1,5,12,-11,-11,-2,-4,1
14:58:13:878920,-6,0,8,27,-6,-3,7,3
14:58:13:902776,1,-12,-9,1,-3,12,3,-1
14:58:13:903639,1,-12,-9,1,-3,12,3,-1
14:58:13:904321,-13,6,14,10,-1,-20,-6,-5
14:58:13:917085,-13,6,14,10,-1,-20,-6,-5
14:58:13:917908,7,3,-1,6,-14,6,30,5
14:58:13:923870,-1,13,-5,-5,2,19,23,-1
14:58:13:932126,-1,13,-5,-5,2,19,23,-1
14:58:13:932920,2,-7,-7,-18,3,-7,-28,-7
14:58:13:938899,-1,6,4,11,-9,7,4,-5
14:58:13:954638,-1,6,4,11,-9,7,4,-5
14:58:13:955410,2,4,-4,23,-11,-1,-9,-2
14:58:13:961327,-1,-7,-1,11,-3,-3,-6,-2
14:58:13:977095,-1,-7,-1,11,-3,-3,-6,-2
14:58:13:977880,1,-2,-3,17,18,5,8,-4
14:58:13:983889,-16,-5,-14,-10,11,-14,-17,-8
14:58:13:992149,-16,-5,-14,-10,11,-14,-17,-8
14:58:13:992900,8,3,5,-6,-1,14,1,8
14:58:13:998888,28,-2,-3,-18,16,7,-6,1
14:58:14:14639,28,-2,-3,-18,16,7,-6,1
14:58:14:15387,-3,-4,4,1,5,-9,0,-5
14:58:14:28909,6,-2,-1,3,-2,-14,-21,-2
14:58:14:37059,6,-2,-1,3,-2,-14,-21,-2
14:58:14:37902,6,-1,1,-19,-45,-12,-1,3
14:58:14:43937,-12,4,4,19,14,3,20,-6
14:58:14:52100,-12,4,4,19,14,3,20,-6
14:58:14:52894,-8,7,-2,-25,-9,-9,-4,6
14:58:14:58856,-22,-5,15,-8,-1,-7,1,-4
14:58:14:74674,-22,-5,15,-8,-1,-7,1,-4
14:58:14:75387,-3,-16,-14,-18,13,-4,-3,-1
14:58:14:81404,8,-1,16,-4,13,13,5,11
14:58:14:97103,8,-1,16,-4,13,13,5,11
14:58:14:97903,17,7,0,-1,-13,-18,-9,1
14:58:14:103926,-12,-5,-6,3,2,3,2,-4
14:58:14:112086,-12,-5,-6,3,2,3,2,-4
14:58:14:112893,-4,7,18,45,-12,-1,-8,-11
14:58:14:118901,-1,-5,-3,-4,-14,-3,-9,-3
14:58:14:134638,-1,-5,-3,-4,-14,-3,-9,-3
14:58:14:135399,-4,-3,-7,1,14,1,6,-1
14:58:14:141442,-1,-1,-12,-10,6,-6,-1,0
14:58:14:157192,-1,-1,-12,-10,6,-6,-1,0
14:58:14:157905,-10,-5,-3,-2,21,13,22,4
14:58:14:163900,26,2,-8,-7,-5,-2,2,-1
14:58:14:172080,26,2,-8,-7,-5,-2,2,-1
14:58:14:172921,2,1,1,1,16,6,0,-1
14:58:14:178899,2,-8,-10,-4,3,4,5,2
14:58:14:194666,2,-8,-10,-4,3,4,5,2
14:58:14:195443,-9,1,-3,-6,-20,-3,7,-2
14:58:14:201387,13,14,13,-12,5,-4,1,-3
14:58:14:217136,13,14,13,-12,5,-4,1,-3
14:58:14:217907,-13,-7,-2,-28,0,-9,-6,-4
14:58:14:223900,-13,5,27,30,-7,2,9,-8
14:58:14:232064,-13,5,27,30,-7,2,9,-8
14:58:14:232880,12,1,3,14,10,-16,-13,-4
14:58:14:238898,-11,-7,-11,-12,6,-4,5,-1
14:58:14:254611,-11,-7,-11,-12,6,-4,5,-1
14:58:14:255418,0,3,7,0,10,8,0,-13
14:58:14:261366,-16,-4,-14,3,-11,9,4,-5
14:58:14:277128,-16,-4,-14,3,-11,9,4,-5
14:58:14:277919,-5,6,-1,-1,-2,4,-5,2
14:58:14:283888,-6,-5,-19,-18,-6,-2,-9,-7
14:58:14:292147,-6,-5,-19,-18,-6,-2,-9,-7
14:58:14:292934,-5,-5,2,1,-10,0,9,2
14:58:14:298900,-7,-3,-6,27,20,-12,-23,-2
14:58:14:322812,-7,-3,-6,27,20,-12,-23,-2
14:58:14:323677,1,1,25,36,15,-1,-10,6
14:58:14:324320,-3,-5,-5,16,-2,-3,0,-5
14:58:14:337107,-3,-5,-5,16,-2,-3,0,-5
14:58:14:337908,0,-4,-24,-3,7,-6,-8,2
14:58:14:343903,0,2,21,5,15,-11,-1,-1
14:58:14:352079,0,2,21,5,15,-11,-1,-1
14:58:14:352954,-11,-8,-12,-25,-14,15,1,-8
14:58:14:358889,-10,8,1,0,-4,0,-16,-1
14:58:14:375070,-10,8,1,0,-4,0,-16,-1
14:58:14:382048,-26,11,21,-1,-10,12,6,0
14:58:14:382868,2,-10,-15,-20,-24,-1,-10,1
14:58:14:397106,2,-10,-15,-20,-24,-1,-10,1
14:58:14:397876,17,3,-4,-11,-8,3,10,5
14:58:14:403879,3,7,9,9,-14,-1,11,12
14:58:14:412130,3,7,9,9,-14,-1,11,12
14:58:14:412868,3,-3,-1,14,23,4,1,4
14:58:14:426397,7,4,-8,-3,5,1,10,10
14:58:14:434616,7,4,-8,-3,5,1,10,10
14:58:14:435320,-2,-11,-10,17,-5,-16,-14,-19
14:58:14:441390,5,1,9,1,-25,2,-6,3
14:58:14:448947,5,1,9,1,-25,2,-6,3
14:58:14:456358,1,-6,-5,3,17,-10,-5,-1
14:58:14:463850,-2,0,-4,-1,19,10,2,-5
14:58:14:472067,-2,0,-4,-1,19,10,2,-5
14:58:14:472911,1,2,-1,-19,-10,0,1,3
14:58:14:486412,-3,-12,-22,-9,14,-3,1,-7
14:58:14:494643,-3,-12,-22,-9,14,-3,1,-7
14:58:14:495373,24,3,16,8,-1,0,-6,8
14:58:14:501399,-13,3,10,6,13,-2,-5,-8
14:58:14:508965,-13,3,10,6,13,-2,-5,-8
14:58:14:516388,-9,-1,-4,-19,-12,-6,-5,-12
14:58:14:523909,21,-9,5,-14,-17,-6,2,4
14:58:14:532151,21,-9,5,-14,-17,-6,2,4
14:58:14:532923,-4,11,0,0,6,5,4,-1
14:58:14:546372,0,9,9,5,9,13,6,3
14:58:14:554707,0,9,9,5,9,13,6,3
14:58:14:555437,-6,-12,-14,-33,-19,-16,6,-27
14:58:14:561408,-11,-9,-14,-6,-14,-4,5,-7
14:58:14:568940,-11,-9,-14,-6,-14,-4,5,-7
14:58:14:584594,-5,-13,-19,23,7,9,-3,7
14:58:14:585352,-2,7,-11,-15,-1,-3,-2,1
14:58:14:592151,-2,7,-11,-15,-1,-3,-2,1
14:58:14:592881,2,3,3,14,16,-3,-6,8
14:58:14:606434,4,3,3,2,-34,-11,-11,3
14:58:14:614680,4,3,3,2,-34,-11,-11,3
14:58:14:615402,-4,-6,-8,-26,-13,-1,-2,-1
14:58:14:621353,0,-11,-4,-11,1,-6,-9,0
14:58:14:629011,0,-11,-4,-11,1,-6,-9,0
14:58:14:636367,-5,12,0,36,7,-2,1,-4
14:58:14:643869,-1,0,-1,-16,15,0,5,0
14:58:14:659663,-1,0,-1,-16,15,0,5,0
14:58:14:660411,-4,-12,-9,-19,-21,-3,-5,-1
14:58:14:666361,-4,-6,-1,7,8,7,1,1
14:58:14:674686,-4,-6,-1,7,8,7,1,1
14:58:14:675392,4,7,7,10,27,21,18,2
14:58:14:681399,-4,-3,6,11,11,15,6,-4
14:58:14:688987,-4,-3,6,11,11,15,6,-4
14:58:14:696369,-1,-6,-2,-7,-13,-14,-11,2
14:58:14:703933,-1,-1,-3,32,12,-1,-10,-10
14:58:14:712101,-1,-1,-3,32,12,-1,-10,-10
14:58:14:712896,5,3,4,6,-15,-1,2,6
14:58:14:726419,5,6,2,-40,-30,-14,-7,3
14:58:14:734702,5,6,2,-40,-30,-14,-7,3
14:58:14:735435,2,1,6,1,1,-7,-3,9
14:58:14:741435,24,-8,-3,3,4,6,5,-11
14:58:14:748931,24,-8,-3,3,4,6,5,-11
14:58:14:756468,2,0,4,1,4,1,3,1
14:58:14:763952,-18,8,19,19,-28,-20,9,1
14:58:14:772082,-18,8,19,19,-28,-20,9,1
14:58:14:772867,9,5,2,-9,-1,-1,2,2
14:58:14:786369,-6,-3,-4,-5,-17,-1,-5,-3
14:58:14:794563,-6,-3,-4,-5,-17,-1,-5,-3
14:58:14:795374,-11,-11,-16,0,4,-3,-3,-3
14:58:14:801427,-4,5,8,-7,-8,2,0,2
14:58:14:808908,-4,5,8,-7,-8,2,0,2
14:58:14:816374,-7,-3,0,-9,11,4,4,-12
14:58:14:823855,-1,-5,-19,-11,26,11,12,2
14:58:14:832085,-1,-5,-19,-11,26,11,12,2
14:58:14:832912,0,-2,0,-8,-11,1,-2,1
14:58:14:846436,-4,0,4,-17,11,1,4,-3
14:58:14:854643,-4,0,4,-17,11,1,4,-3
14:58:14:855407,-1,2,-3,12,15,6,3,0
14:58:14:861353,-1,-1,-2,2,3,-1,-6,1
14:58:14:868921,-1,-1,-2,2,3,-1,-6,1
14:58:14:876365,-2,0,-6,7,8,-4,-4,2
14:58:14:883870,-14,-2,-16,-8,-17,-16,-13,-8
14:58:14:892108,-14,-2,-16,-8,-17,-16,-13,-8
14:58:14:892881,2,5,17,17,-14,-8,0,-2
14:58:14:906405,2,-2,-6,11,1,0,-3,1
14:58:14:914652,2,-2,-6,11,1,0,-3,1
14:58:14:915410,-3,-6,-2,15,-22,8,0,5
14:58:14:921361,0,-3,11,23,-4,-13,-3,2
14:58:14:937104,0,-3,11,23,-4,-13,-3,2
14:58:14:937869,2,2,-2,-10,10,4,-6,3
14:58:14:943843,2,0,9,-28,-14,-13,-12,-6
14:58:14:952102,2,0,9,-28,-14,-13,-12,-6
14:58:14:952945,-3,-2,10,5,3,-1,-3,-7
14:58:14:966477,-5,-14,-18,-11,20,11,8,-3
14:58:14:974706,-5,-14,-18,-11,20,11,8,-3
14:58:14:975387,2,11,15,-5,-2,-9,-14,-3
14:58:14:981367,1,5,10,29,14,7,6,1
14:58:14:988951,1,5,10,29,14,7,6,1
14:58:14:996368,2,-6,-34,0,11,4,-3,-6
14:58:15:3832,1,2,-14,-28,16,-6,-5,-1
14:58:15:12124,1,2,-14,-28,16,-6,-5,-1
14:58:15:12906,5,15,22,-20,-4,-10,-10,-1
14:58:15:26367,-1,-8,-9,9,-3,7,2,3
14:58:15:34640,-1,-8,-9,9,-3,7,2,3
14:58:15:35402,-4,-13,-10,6,10,5,14,-2
14:58:15:41382,-2,-4,-4,-13,3,5,7,4
14:58:15:48965,-2,-4,-4,-13,3,5,7,4
14:58:15:56395,-2,-7,-1,-10,-6,9,17,2
14:58:15:63973,-2,9,8,23,21,-3,-2,-1
14:58:15:72105,-2,9,8,23,21,-3,-2,-1
14:58:15:72927,3,-2,-9,-9,-1,-1,-3,-7
14:58:15:86364,-2,-5,-4,1,3,3,-8,0
14:58:15:94642,-2,-5,-4,1,3,3,-8,0
14:58:15:95414,20,-1,-10,-17,-4,0,-8,8
14:58:15:101424,-1,-4,2,6,-12,-3,-16,-3
14:58:15:109016,-1,-4,2,6,-12,-3,-16,-3
14:58:15:116429,-12,-9,-8,-32,-14,-1,3,1
14:58:15:123896,-1,-6,3,17,-23,-5,8,-5
14:58:15:132081,-1,-6,3,17,-23,-5,8,-5
14:58:15:132872,-2,-6,2,-11,-12,-11,-16,-1
14:58:15:146390,0,3,-8,-31,-10,-17,-6,-1
14:58:15:154568,0,3,-8,-31,-10,-17,-6,-1
14:58:15:155357,-7,1,3,9,0,10,16,-2
14:58:15:161376,-5,3,2,-17,-34,-5,-5,-3
14:58:15:168879,-5,3,2,-17,-34,-5,-5,-3
14:58:15:176404,5,3,-6,-3,7,-2,9,-5
14:58:15:183931,9,2,5,7,-3,0,0,-11
14:58:15:192083,9,2,5,7,-3,0,0,-11
14:58:15:192849,-2,-1,-5,-1,-13,-13,-14,1
14:58:15:206440,-3,-6,3,20,14,-4,-1,1
14:58:15:214574,-3,-6,3,20,14,-4,-1,1
14:58:15:215398,-2,-9,-7,15,14,-8,-8,-7
14:58:15:221401,-1,9,4,9,2,4,0,3
14:58:15:228967,-1,9,4,9,2,4,0,3
14:58:15:236351,-4,9,16,-9,-22,0,6,0
14:58:15:243842,-4,-6,-2,10,-4,8,5,0
14:58:15:252077,-4,-6,-2,10,-4,8,5,0
14:58:15:252900,-6,-13,-12,-4,17,-4,-11,-5
14:58:15:266432,13,9,-4,-17,-19,-2,8,10
14:58:15:274381,13,9,-4,-17,-19,-2,8,10
14:58:15:282009,-28,-4,4,-7,-17,5,7,1
14:58:15:282902,-25,-6,-8,-25,4,12,10,0
14:58:15:288948,-25,-6,-8,-25,4,12,10,0
14:58:15:296370,7,-4,-13,6,14,6,7,4
14:58:15:303865,11,8,20,19,19,-3,-10,2
14:58:15:312130,11,8,20,19,19,-3,-10,2
14:58:15:312895,0,3,1,-2,17,0,12,1
14:58:15:326367,0,-1,16,21,-7,-9,-1,-8
14:58:15:334632,0,-1,16,21,-7,-9,-1,-8
14:58:15:335404,-2,-2,-7,-18,-6,0,-3,4
14:58:15:349609,-2,-5,-11,-16,-3,-9,-12,-3
14:58:15:350460,-2,-5,-11,-16,-3,-9,-12,-3
14:58:15:356403,8,1,5,5,-22,3,11,6
14:58:15:363888,-8,1,0,0,18,6,6,-22
14:58:15:371438,-8,1,0,0,18,6,6,-22
14:58:15:378957,1,4,7,3,14,-6,-5,-5
14:58:15:386354,6,-11,-20,10,15,8,12,16
14:58:15:394652,6,-11,-20,10,15,8,12,16
14:58:15:395422,-8,-2,-5,-1,-14,-5,-18,-9
14:58:15:410274,-9,-5,-10,-17,-5,-8,-23,-8
14:58:15:411067,-9,-5,-10,-17,-5,-8,-23,-8
14:58:15:416394,7,4,18,7,-28,-1,-2,13
14:58:15:423926,6,3,-3,-38,5,16,27,4
14:58:15:431474,6,3,-3,-38,5,16,27,4
14:58:15:438874,-68,-10,-14,-10,-8,0,-7,-18
14:58:15:446400,-6,0,-5,-9,-8,4,-1,-1
14:58:15:454561,-6,0,-5,-9,-8,4,-1,-1
14:58:15:455402,21,3,-2,14,3,-13,-8,3
14:58:15:469653,-7,0,16,3,-6,5,21,1
14:58:15:470397,-7,0,16,3,-6,5,21,1
14:58:15:476402,9,2,-12,11,5,0,2,-3
14:58:15:483892,11,3,-6,-21,-11,-1,-7,5
14:58:15:491432,11,3,-6,-21,-11,-1,-7,5
14:58:15:498910,1,1,9,5,-8,-5,-3,-4
14:58:15:506413,-1,-3,6,-2,-13,-17,-18,-2
14:58:15:514659,-1,-3,6,-2,-13,-17,-18,-2
14:58:15:515315,6,-2,-11,-9,4,9,3,-2
14:58:15:529606,-4,-11,1,17,-2,0,0,-2
14:58:15:530387,-4,-11,1,17,-2,0,0,-2
14:58:15:536429,13,9,17,12,9,2,9,1
14:58:15:543938,-3,0,-6,15,6,-7,-3,0
14:58:15:551600,-3,0,-6,15,6,-7,-3,0
14:58:15:558867,4,-9,-15,-1,3,14,7,6
14:58:15:566363,1,15,17,-12,-17,2,1,-2
14:58:15:574687,1,15,17,-12,-17,2,1,-2
14:58:15:575424,-2,-8,-5,-25,-17,-10,-6,-4
14:58:15:589567,5,-4,-11,-18,-2,5,-3,6
14:58:15:590388,5,-4,-11,-18,-2,5,-3,6
14:58:15:596349,6,-1,0,6,-4,11,-8,-2
14:58:15:603856,0,3,2,4,23,2,4,-3
14:58:15:611454,0,3,2,4,23,2,4,-3
14:58:15:618874,0,-5,-9,-10,-8,-1,-4,-3
14:58:15:626375,-8,-4,-4,-7,-12,2,-6,-6
14:58:15:634666,-8,-4,-4,-7,-12,2,-6,-6
14:58:15:635391,1,10,0,-9,-15,-4,-1,1
14:58:15:649656,-2,-13,-13,1,-8,-9,-5,9
14:58:15:650362,-2,-13,-13,1,-8,-9,-5,9
14:58:15:656362,5,-3,-7,0,1,-2,-5,1
14:58:15:663888,-5,0,6,3,11,2,-5,-4
14:58:15:671459,-5,0,6,3,11,2,-5,-4
14:58:15:678922,2,12,25,0,-3,-20,-7,-1
14:58:15:686466,1,-9,-8,28,4,-1,-7,-3
14:58:15:694687,1,-9,-8,28,4,-1,-7,-3
14:58:15:695439,-7,-10,-1,11,-7,-4,2,-1
14:58:15:709647,1,-5,-18,-7,8,-13,-1,-1
14:58:15:710465,1,-5,-18,-7,8,-13,-1,-1
14:58:15:716394,-4,-2,2,6,22,6,0,-2
14:58:15:723883,3,1,-14,-12,2,5,2,-2
14:58:15:731490,3,1,-14,-12,2,5,2,-2
14:58:15:738922,1,-5,-5,7,-4,-1,-8,2
14:58:15:746396,-2,1,11,8,-10,-1,-26,-7
14:58:15:754569,-2,1,11,8,-10,-1,-26,-7
14:58:15:755401,-18,6,21,1,13,7,5,4
14:58:15:770009,0,-4,6,-6,1,-2,-9,0
14:58:15:770818,0,-4,6,-6,1,-2,-9,0
14:58:15:776377,-10,-4,-13,1,14,-13,-23,2
14:58:15:783927,7,1,-2,-10,-5,-7,13,-2
14:58:15:791417,7,1,-2,-10,-5,-7,13,-2
14:58:15:798922,-2,7,-8,-3,-14,-2,3,4
14:58:15:806351,2,3,-16,-11,-14,0,-3,2
14:58:15:814580,2,3,-16,-11,-14,0,-3,2
14:58:15:815388,1,-5,8,7,-21,0,3,0
14:58:15:829558,-9,-3,0,8,8,-1,13,-7
14:58:15:830425,-9,-3,0,8,8,-1,13,-7
14:58:15:836416,11,0,-4,-6,1,0,-12,2
14:58:15:843873,0,8,11,3,4,-7,-3,5
14:58:15:851421,0,8,11,3,4,-7,-3,5
14:58:15:858887,5,-2,4,4,16,-3,4,-9
14:58:15:866390,2,9,19,0,0,12,4,2
14:58:15:874658,2,9,19,0,0,12,4,2
14:58:15:875373,-8,-5,-7,-5,9,1,14,-12
14:58:15:889580,5,-1,0,16,0,2,2,5
14:58:15:890391,5,-1,0,16,0,2,2,5
14:58:15:896361,13,-7,-9,-5,24,10,10,-4
14:58:15:903846,3,-8,-7,-23,-10,-9,-7,1
14:58:15:911445,3,-8,-7,-23,-10,-9,-7,1
14:58:15:918855,-6,-1,1,4,-22,-14,-4,-1
14:58:15:926375,-7,-8,-13,24,-8,0,5,-4
14:58:15:934693,-7,-8,-13,24,-8,0,5,-4
14:58:15:935407,3,0,3,-25,0,2,21,5
14:58:15:949589,-4,3,10,3,14,-3,0,-2
14:58:15:950398,-4,3,10,3,14,-3,0,-2
14:58:15:956366,3,-5,-22,3,-8,-16,-20,-6
14:58:15:963896,0,10,14,18,7,8,8,-2
14:58:15:971476,0,10,14,18,7,8,8,-2
14:58:15:978913,-4,-4,7,26,49,16,-5,1
14:58:15:986434,0,-7,-15,-8,1,-13,-2,-6
14:58:15:994662,0,-7,-15,-8,1,-13,-2,-6
14:58:15:995433,1,9,8,8,-2,3,12,3
14:58:16:9666,-13,-9,-14,-5,16,3,-8,-5
14:58:16:10445,-13,-9,-14,-5,16,3,-8,-5
14:58:16:16414,-5,5,14,8,-23,9,4,21
14:58:16:23911,2,1,0,-9,13,-13,-6,-6
14:58:16:31445,2,1,0,-9,13,-13,-6,-6
14:58:16:47070,4,-12,-21,-17,-13,1,2,-2
14:58:16:47832,2,-5,-3,-15,-9,-11,-1,9
14:58:16:54632,2,-5,-3,-15,-9,-11,-1,9
14:58:16:55461,-6,-6,5,-4,1,-8,3,-11
14:58:16:69672,6,-2,-4,4,-8,14,-4,-6
14:58:16:70381,6,-2,-4,4,-8,14,-4,-6
14:58:16:76388,-19,10,3,-13,-13,1,-11,-6
14:58:16:83912,-3,-3,-1,0,-11,0,0,0
14:58:16:91471,-3,-3,-1,0,-11,0,0,0
14:58:16:98915,12,-6,-9,1,-11,-14,-8,-3
14:58:16:106379,0,2,5,24,27,9,13,2
14:58:16:114706,0,2,5,24,27,9,13,2
14:58:16:115464,4,23,34,19,-33,-2,6,3
14:58:16:129652,5,5,10,-8,3,24,6,6
14:58:16:130426,5,5,10,-8,3,24,6,6
14:58:16:136386,-7,-8,-15,-7,18,-2,-14,-5
14:58:16:143927,-1,0,-1,11,3,8,0,0
14:58:16:151482,-1,0,-1,11,3,8,0,0
14:58:16:158925,1,-8,-5,-27,0,6,-5,-6
14:58:16:175344,0,-4,2,-18,-18,-17,-10,-2
14:58:16:176138,0,-4,2,-18,-18,-17,-10,-2
14:58:16:176912,-3,-5,-7,-3,-5,-11,-25,-3
14:58:16:189705,-5,-1,3,5,-37,-7,-5,-5
14:58:16:190431,-5,-1,3,5,-37,-7,-5,-5
14:58:16:196394,5,2,10,28,10,7,12,-1
14:58:16:203914,-4,1,-9,-22,-4,-6,-11,-5
14:58:16:211466,-4,1,-9,-22,-4,-6,-11,-5
14:58:16:218871,-12,-12,-8,-3,21,1,7,0
14:58:16:226409,-21,-3,-3,-4,9,0,9,0
14:58:16:234592,-21,-3,-3,-4,9,0,9,0
14:58:16:235358,-9,2,0,-7,22,-2,-8,-6
14:58:16:250037,-1,-15,-26,13,3,1,-6,8
14:58:16:250855,-1,-15,-26,13,3,1,-6,8
14:58:16:256402,16,11,27,6,8,-7,-10,4
14:58:16:263898,9,8,20,1,3,4,4,-7
14:58:16:271439,9,8,20,1,3,4,4,-7
14:58:16:278979,6,-4,-20,-21,-5,1,23,7
14:58:16:286438,-4,2,3,10,-18,-2,2,-4
14:58:16:293885,-4,2,3,10,-18,-2,2,-4
14:58:16:301415,-2,0,-3,-1,-12,-8,-13,-8
14:58:16:309563,-4,8,-1,27,0,4,-1,-1
14:58:16:310402,-4,8,-1,27,0,4,-1,-1
14:58:16:323960,4,-3,-10,-5,4,3,-11,3
14:58:16:332063,-5,-4,8,-4,6,-9,-3,-2
14:58:16:332907,-5,-4,8,-4,6,-9,-3,-2
14:58:16:338858,-2,-6,-9,2,-8,-5,0,-6
14:58:16:346363,-10,-10,-16,-31,-13,-6,-1,-5
14:58:16:353954,-10,-10,-16,-31,-13,-6,-1,-5
14:58:16:361346,-5,2,-4,-18,-41,7,24,-4
14:58:16:369664,-4,3,2,-3,-11,-8,-9,-9
14:58:16:370430,-4,3,2,-3,-11,-8,-9,-9
14:58:16:376380,-76,-16,-5,7,10,-5,-4,-4
14:58:16:392118,2,3,5,-14,-6,3,8,11
14:58:16:392896,2,3,5,-14,-6,3,8,11
14:58:16:398889,36,2,10,7,7,-11,-37,4
14:58:16:406404,-1,1,-8,-10,8,-19,-15,-15
14:58:16:413959,-1,1,-8,-10,8,-19,-15,-15
14:58:16:430318,7,-3,-5,5,2,-16,-14,3
14:58:16:431016,11,1,20,40,-9,7,-2,0
14:58:16:431875,11,1,20,40,-9,7,-2,0
14:58:16:436361,7,0,-4,3,2,3,5,5
14:58:16:452098,-5,2,10,1,11,3,7,0
14:58:16:452868,-5,2,10,1,11,3,7,0
14:58:16:458896,-2,-3,-16,-4,-4,5,3,0
14:58:16:466389,7,7,0,1,13,-8,-2,-5
14:58:16:473948,7,7,0,1,13,-8,-2,-5
14:58:16:481371,5,-6,-8,-19,-2,-1,11,-6
14:58:16:489654,-48,-7,-11,-9,-1,17,8,-21
14:58:16:490437,-48,-7,-11,-9,-1,17,8,-21
14:58:16:496395,47,8,5,-1,1,5,4,19
