Time,EMG1,EMG2,EMG3,EMG4,EMG5,EMG6,EMG7,EMG8
14:59:11:11967,-6,0,2,-1,-17,1,-3,-5
14:59:11:12736,-6,0,2,-1,-17,1,-3,-5
14:59:11:18709,-4,4,4,5,-3,2,3,5
14:59:11:26291,-22,1,1,7,17,1,-5,-9
14:59:11:33770,-22,1,1,7,17,1,-5,-9
14:59:11:41261,-12,0,-5,-3,-9,3,2,8
14:59:11:48747,12,1,12,15,-1,-13,-6,4
14:59:11:56955,12,1,12,15,-1,-13,-6,4
14:59:11:57742,5,-1,-7,-5,-7,-2,7,4
14:59:11:71885,3,-4,2,8,5,-5,-6,-6
14:59:11:72710,3,-4,2,8,5,-5,-6,-6
14:59:11:78770,25,3,11,23,32,11,3,6
14:59:11:86303,6,-1,-7,-7,-19,-1,-2,-2
14:59:11:93753,6,-1,-7,-7,-19,-1,-2,-2
14:59:11:101250,-101,-7,-6,-8,-5,8,4,-8
14:59:11:108690,27,-11,-6,-8,-5,-5,-2,-2
14:59:11:116952,27,-11,-6,-8,-5,-5,-2,-2
14:59:11:117716,62,-2,-8,-2,-13,1,-5,-1
14:59:11:131881,1,3,0,-5,-3,1,-3,-3
14:59:11:132729,1,3,0,-5,-3,1,-3,-3
14:59:11:138690,4,-9,-2,0,-2,-9,-5,-4
14:59:11:146169,2,5,1,4,6,-6,-1,-13
14:59:11:161921,2,5,1,4,6,-6,-1,-13
14:59:11:162699,-25,-5,-6,0,-4,-5,-1,5
14:59:11:168751,-20,2,5,-1,3,-12,0,-12
14:59:11:177013,-20,2,5,-1,3,-12,0,-12
14:59:11:177708,5,5,-9,-6,-10,33,-1,5
14:59:11:191923,-28,2,2,7,8,15,11,13
14:59:11:192740,-28,2,2,7,8,15,11,13
14:59:11:198707,-50,-6,1,-4,-6,-22,-2,-28
14:59:11:206253,67,1,-1,-7,1,12,-6,38
14:59:11:213771,67,1,-1,-7,1,12,-6,38
14:59:11:221173,11,3,-4,3,14,-8,-2,0
14:59:11:228690,-29,-3,-2,-9,-2,-11,0,-25
14:59:11:236918,-29,-3,-2,-9,-2,-11,0,-25
14:59:11:237773,9,-1,2,17,12,-9,-1,6
14:59:11:251938,-2,-5,-9,-5,4,14,-2,2
14:59:11:252759,-2,-5,-9,-5,4,14,-2,2
14:59:11:258681,43,3,5,-6,-7,12,-3,6
14:59:11:266207,-54,-6,6,22,-3,-2,-2,-26
14:59:11:273785,-54,-6,6,22,-3,-2,-2,-26
14:59:11:281208,8,3,5,2,5,-27,6,8
14:59:11:288729,69,-2,-15,11,7,-7,-6,26
14:59:11:296952,69,-2,-15,11,7,-7,-6,26
14:59:11:297700,23,4,13,1,5,9,-1,12
14:59:11:311933,-44,-10,-5,-5,-1,8,-4,-11
14:59:11:312748,-44,-10,-5,-5,-1,8,-4,-11
14:59:11:326219,10,-1,-8,-9,-15,-9,3,7
14:59:11:334429,-1,5,2,-2,3,3,-1,-6
14:59:11:335241,-1,5,2,-2,3,3,-1,-6
14:59:11:349416,-36,-6,-3,-8,-2,8,-3,-13
14:59:11:350219,13,-2,-2,-5,-6,-3,2,2
14:59:11:356256,13,-2,-2,-5,-6,-3,2,2
14:59:11:363780,-1,-4,-6,5,2,-6,0,0
14:59:11:371894,3,0,-1,-7,-8,-1,0,1
14:59:11:372741,3,0,-1,-7,-8,-1,0,1
14:59:11:378661,5,5,3,-6,-6,9,-2,3
14:59:11:394871,-17,1,5,2,-10,-4,2,-5
14:59:11:395666,-17,1,5,2,-10,-4,2,-5
14:59:11:401211,6,-3,-6,8,2,1,0,0
14:59:11:408710,-5,0,0,-7,1,-1,-1,-5
14:59:11:416303,-5,0,0,-7,1,-1,-1,-5
14:59:11:423665,3,1,3,-5,-5,4,-1,1
14:59:11:440103,-5,-2,-3,0,-1,-13,-7,-4
14:59:11:440917,-5,-2,-3,0,-1,-13,-7,-4
14:59:11:441703,-7,-4,-3,-4,-10,2,8,-2
14:59:11:454411,11,1,-1,1,1,-7,-4,-11
14:59:11:455204,11,1,-1,1,1,-7,-4,-11
14:59:11:461214,0,-11,-6,-8,-3,-6,-3,-4
14:59:11:468763,7,14,14,7,4,2,3,5
14:59:11:476270,7,14,14,7,4,2,3,5
14:59:11:483683,79,-1,-8,8,3,2,2,18
14:59:11:491920,-12,-8,-4,6,1,-1,-2,-6
14:59:11:492750,-12,-8,-4,6,1,-1,-2,-6
14:59:11:498707,-22,-3,-2,-6,-10,-2,-1,-8
14:59:11:514368,-9,-1,-2,-7,0,3,-1,-3
14:59:11:515246,-9,-1,-2,-7,0,3,-1,-3
14:59:11:521170,-2,0,0,4,0,-3,-4,12
14:59:11:528672,-15,-23,-19,-8,4,-2,1,-1
14:59:11:536275,-15,-23,-19,-8,4,-2,1,-1
14:59:11:543699,10,35,36,14,12,2,-8,-9
14:59:11:551976,-7,6,3,4,-2,-1,1,-3
14:59:11:552714,-7,6,3,4,-2,-1,1,-3
14:59:11:558717,-4,-8,-25,-13,-6,-5,-3,7
14:59:11:574419,0,-6,1,0,0,-2,-3,-9
14:59:11:575216,0,-6,1,0,0,-2,-3,-9
14:59:11:589353,59,-1,-2,-9,-12,2,2,27
14:59:11:590163,5,5,-5,-6,-4,0,-1,4
14:59:11:613338,5,5,-5,-6,-4,0,-1,4
14:59:11:614081,-29,-12,-7,-9,-9,2,2,-13
14:59:11:614892,-9,0,-2,-4,-3,-12,-5,0
14:59:11:615684,-9,0,-2,-4,-3,-12,-5,0
14:59:11:626230,-17,-3,-10,0,2,-10,-1,-7
14:59:11:634462,-9,2,9,-2,5,0,0,-3
14:59:11:635254,-9,2,9,-2,5,0,0,-3
14:59:11:649367,-18,-6,-2,-8,-10,2,-2,-9
14:59:11:650137,5,1,3,-5,9,4,0,5
14:59:11:656282,5,1,3,-5,9,4,0,5
14:59:11:663736,-16,0,0,-10,-3,0,0,-7
14:59:11:671892,22,-10,-8,-3,-3,-2,-2,13
14:59:11:672738,22,-10,-8,-3,-3,-2,-2,13
14:59:11:678713,-22,8,11,-4,7,-1,-1,-7
14:59:11:694404,-2,1,-11,-18,-8,2,-1,0
14:59:11:695218,-2,1,-11,-18,-8,2,-1,0
14:59:11:701214,5,-6,-4,11,-19,-2,-2,-4
14:59:11:717531,6,-3,-5,5,-16,-1,-1,5
14:59:11:718371,6,-3,-5,5,-16,-1,-1,5
14:59:11:723710,-50,-6,-6,-2,-2,-1,0,-24
14:59:11:731973,-50,-6,-6,-2,-2,-1,0,-24
14:59:11:732732,-11,5,12,12,-3,-2,0,-1
14:59:11:738680,-30,-7,1,-4,3,-3,-2,4
14:59:11:754466,-30,-7,1,-4,3,-3,-2,4
14:59:11:755256,1,-12,8,2,4,-2,2,0
14:59:11:768714,1,2,2,2,9,2,0,9
14:59:11:776950,1,2,2,2,9,2,0,9
14:59:11:777680,4,0,-8,0,2,1,-2,-2
14:59:11:792561,13,0,-14,16,3,-5,-2,0
14:59:11:793349,13,0,-14,16,3,-5,-2,0
14:59:11:794163,-5,4,15,10,4,1,-1,-4
14:59:11:798740,14,1,-6,-15,1,1,1,1
14:59:11:814879,14,1,-6,-15,1,1,1,1
14:59:11:815678,-2,-3,-7,-8,-7,-3,-4,-7
14:59:11:821242,10,-10,-9,-5,7,0,2,13
14:59:11:837480,10,-10,-9,-5,7,0,2,13
14:59:11:838267,-12,-1,-4,6,0,0,-3,1
14:59:11:843763,-7,4,7,5,-8,-1,0,-5
14:59:11:860152,-7,4,7,5,-8,-1,0,-5
14:59:11:860937,-21,-4,-9,-3,0,-5,-2,-13
14:59:11:861744,1,-11,-2,5,0,0,-5,1
14:59:11:890144,1,-11,-2,5,0,0,-5,1
14:59:11:890921,13,7,17,-13,-13,-9,-1,3
14:59:11:891700,10,4,12,-7,-1,0,-3,0
14:59:11:905108,10,4,12,-7,-1,0,-3,0
14:59:11:905933,6,-6,-9,18,3,3,0,-2
14:59:11:906665,0,4,3,23,18,-4,-2,-9
14:59:11:911962,0,4,3,23,18,-4,-2,-9
14:59:11:912769,-2,3,-6,-15,-9,-3,3,0
14:59:11:926220,-4,-1,-6,-27,-1,-3,-2,-4
14:59:11:934431,-4,-1,-6,-27,-1,-3,-2,-4
14:59:11:935246,4,0,-6,-9,6,3,-5,-2
14:59:11:957572,-3,1,0,-8,-9,0,3,1
14:59:11:958382,-3,1,0,-8,-9,0,3,1
14:59:11:959177,3,-1,0,6,0,1,3,-5
14:59:11:972624,16,-7,-11,-6,0,-1,-2,5
14:59:11:973413,16,-7,-11,-6,0,-1,-2,5
14:59:11:974255,-2,0,-13,-3,-6,-3,-7,0
14:59:11:978735,-17,3,16,5,2,3,2,-9
14:59:11:994467,-17,3,16,5,2,3,2,-9
14:59:11:995246,14,-3,-14,-6,-3,-1,-1,10
14:59:12:1199,-13,-13,-14,-4,-1,-1,-5,-3
14:59:12:16976,-13,-13,-14,-4,-1,-1,-5,-3
14:59:12:17772,-8,10,15,1,4,1,-5,-9
14:59:12:23689,-29,-8,-17,-10,-10,-5,2,-3
14:59:12:31948,-29,-8,-17,-10,-10,-5,2,-3
14:59:12:32751,13,10,19,14,15,3,4,5
14:59:12:46254,5,8,14,2,-2,3,1,-3
14:59:12:54480,5,8,14,2,-2,3,1,-3
14:59:12:55244,10,-6,-13,-8,0,-1,1,17
14:59:12:68721,5,-2,2,6,-9,0,0,5
14:59:12:77321,5,-2,2,6,-9,0,0,5
14:59:12:93240,-7,-12,-16,-18,-6,-1,-5,-7
14:59:12:94038,0,11,18,-5,-1,-4,-5,-2
14:59:12:94810,0,11,18,-5,-1,-4,-5,-2
14:59:12:95641,1,0,18,-4,-5,-4,5,2
14:59:12:98677,5,1,5,15,7,1,1,-2
14:59:12:114875,5,1,5,15,7,1,1,-2
14:59:12:115659,-17,1,1,-1,-16,-2,0,-5
14:59:12:121225,-20,-2,-8,-2,0,1,0,-1
14:59:12:137362,-20,-2,-8,-2,0,1,0,-1
14:59:12:138186,7,-5,-14,-5,3,1,-4,-3
14:59:12:143690,4,-2,-4,2,-3,2,0,-1
14:59:12:160065,4,-2,-4,2,-3,2,0,-1
14:59:12:160885,-15,-2,1,-10,-10,-3,-1,-11
14:59:12:161700,-2,-6,-11,2,17,-1,-2,-11
14:59:12:182587,-2,-6,-11,2,17,-1,-2,-11
14:59:12:183381,31,-5,-6,4,5,0,-1,-1
14:59:12:184210,13,11,-6,-3,-7,-3,1,0
14:59:12:205084,13,11,-6,-3,-7,-3,1,0
14:59:12:205897,-27,-12,6,4,2,-1,-2,-10
14:59:12:206747,1,-1,9,5,1,3,-1,0
14:59:12:212032,1,-1,9,5,1,3,-1,0
14:59:12:212784,-23,-2,-13,-13,5,0,0,0
14:59:12:235131,9,-5,-14,-7,-10,-6,-4,-1
14:59:12:235908,9,-5,-14,-7,-10,-6,-4,-1
14:59:12:236671,3,-1,-5,-14,-5,-3,-3,2
14:59:12:241203,-10,-6,1,-8,0,0,0,2
14:59:12:256956,-10,-6,1,-8,0,0,0,2
14:59:12:257736,-5,-14,-17,6,4,4,0,-2
14:59:12:272604,13,12,24,8,-2,1,2,1
14:59:12:273352,13,12,24,8,-2,1,2,1
14:59:12:274182,18,2,-2,9,0,0,3,6
14:59:12:286158,-44,-22,-7,7,4,1,-1,6
14:59:12:294519,-44,-22,-7,7,4,1,-1,6
14:59:12:295322,-5,3,-4,-3,-2,-4,-1,-8
14:59:12:301210,17,14,13,8,-4,-4,-4,-1
14:59:12:308749,17,14,13,8,-4,-4,-4,-1
14:59:12:316279,-12,-1,-9,-1,1,2,-2,-5
14:59:12:323710,10,-1,0,1,2,0,-2,2
14:59:12:331901,10,-1,0,1,2,0,-2,2
14:59:12:332748,6,2,7,15,-2,0,-1,2
14:59:12:346785,3,5,-3,-17,-3,0,0,-5
14:59:12:354414,3,5,-3,-17,-3,0,0,-5
14:59:12:355187,-1,-1,-4,-20,0,1,2,-1
14:59:12:369425,-34,-21,-14,-2,1,-4,-3,-2
14:59:12:370265,-34,-21,-14,-2,1,-4,-3,-2
14:59:12:376207,5,17,29,20,-8,-6,-3,11
14:59:12:392573,15,-1,11,6,4,2,0,1
14:59:12:393393,15,-1,11,6,4,2,0,1
14:59:12:394227,-9,-9,-10,6,-2,-2,0,-5
14:59:12:415086,7,2,-7,-4,1,-1,3,1
14:59:12:415900,7,2,-7,-4,1,-1,3,1
14:59:12:416688,-33,4,8,15,6,-1,-1,-9
14:59:12:421244,-1,1,-3,-4,-11,-5,-3,-9
14:59:12:436985,-1,1,-3,-4,-11,-5,-3,-9
14:59:12:437802,6,2,-2,4,8,1,-2,0
14:59:12:443707,0,0,-4,1,-5,-4,-1,-1
14:59:12:459444,0,0,-4,1,-5,-4,-1,-1
14:59:12:460228,-7,-6,3,0,-8,-4,-4,-9
14:59:12:466212,26,5,7,9,2,0,-1,-2
14:59:12:482602,26,5,7,9,2,0,-1,-2
14:59:12:483396,-11,-3,-17,-11,7,1,0,-5
14:59:12:484230,-1,-15,-21,-10,2,6,-3,0
14:59:12:488781,-1,-15,-21,-10,2,6,-3,0
14:59:12:504347,10,11,13,-1,2,0,-1,6
14:59:12:505188,-1,-4,1,-4,3,-4,-1,-2
14:59:12:511939,-1,-4,1,-4,3,-4,-1,-2
14:59:12:512767,2,-7,-4,-13,-2,-2,1,5
14:59:12:526251,44,5,-1,-7,-5,-1,-5,11
14:59:12:534381,44,5,-1,-7,-5,-1,-5,11
14:59:12:535243,-7,0,-5,-11,-2,-1,-5,-7
14:59:12:541219,-11,-3,-9,-23,-15,-5,-3,-5
14:59:12:548781,-11,-3,-9,-23,-15,-5,-3,-5
14:59:12:556238,20,2,9,-5,-8,-1,0,10
14:59:12:563709,-15,-1,0,16,13,1,-1,-3
14:59:12:571958,-15,-1,0,16,13,1,-1,-3
14:59:12:572730,-13,-13,-17,-4,2,1,0,-5
14:59:12:586209,-12,-2,3,-5,1,4,3,-3
14:59:12:594401,-12,-2,3,-5,1,4,3,-3
14:59:12:595225,23,-3,10,5,-3,-1,0,3
14:59:12:601177,-11,-7,-21,-7,-3,-2,-2,3
14:59:12:608765,-11,-7,-21,-7,-3,-2,-2,3
14:59:12:624350,8,2,1,1,0,-3,-3,1
14:59:12:625159,-7,-3,1,6,-4,0,1,-8
14:59:12:631921,-7,-3,1,6,-4,0,1,-8
14:59:12:632721,4,6,8,-2,-1,2,1,3
14:59:12:646693,-4,3,-5,5,4,-1,-2,2
14:59:12:654423,-4,3,-5,5,4,-1,-2,2
14:59:12:655195,1,5,-4,8,4,3,-1,-7
14:59:12:669400,2,-2,-4,2,-4,-3,0,-4
14:59:12:670209,2,-2,-4,2,-4,-3,0,-4
14:59:12:676196,-34,-4,-6,1,-9,-1,-2,-20
14:59:12:691682,-19,18,27,5,-6,2,3,6
14:59:12:699442,-19,18,27,5,-6,2,3,6
14:59:12:700247,8,4,5,-6,4,-1,1,2
14:59:12:715091,3,-5,-9,-17,4,-1,-3,-4
14:59:12:715894,3,-5,-9,-17,4,-1,-3,-4
14:59:12:716691,-12,0,13,-2,-5,0,-1,1
14:59:12:721235,11,-6,-5,12,3,-2,-2,1
14:59:12:736980,11,-6,-5,12,3,-2,-2,1
14:59:12:737741,6,-5,-14,1,5,-4,-2,3
14:59:12:743694,-4,-3,2,2,0,2,1,-5
14:59:12:759441,-4,-3,2,2,0,2,1,-5
14:59:12:760229,6,-4,-9,8,1,3,0,5
14:59:12:766206,-8,5,2,-4,-5,-5,-1,-3
14:59:12:781684,-8,5,2,-4,-5,-5,-1,-3
14:59:12:790118,-13,-14,-10,-7,-10,-6,-3,-3
14:59:12:790880,21,10,32,18,8,5,1,11
14:59:12:791765,21,10,32,18,8,5,1,11
14:59:12:804355,-7,-5,-13,2,4,-4,-2,-2
14:59:12:805122,-6,-12,-12,-12,-3,-3,-4,-5
14:59:12:812036,-6,-12,-12,-12,-3,-3,-4,-5
14:59:12:812770,12,11,26,3,-1,1,2,0
14:59:12:826638,5,-12,-12,-9,4,-1,-1,-1
14:59:12:834446,5,-12,-12,-9,4,-1,-1,-1
14:59:12:835200,-1,2,-17,-23,-3,-2,-4,-4
14:59:12:841219,-1,6,15,5,2,-2,-1,-4
14:59:12:848789,-1,6,15,5,2,-2,-1,-4
14:59:12:856211,10,4,2,1,-3,-2,-2,5
14:59:12:863710,-12,2,-5,0,-2,0,-1,-11
14:59:12:871907,-12,2,-5,0,-2,0,-1,-11
14:59:12:872764,-6,-7,-12,1,2,-1,-3,4
14:59:12:886214,0,-4,-6,6,-10,-3,-2,2
14:59:12:902555,0,-4,-6,6,-10,-3,-2,2
14:59:12:903365,-5,9,5,1,-5,0,1,0
14:59:12:904177,-18,-2,-10,-9,2,0,-1,-9
14:59:12:908766,-18,-2,-10,-9,2,0,-1,-9
14:59:12:924355,-6,-16,-2,-8,5,3,-2,-3
14:59:12:925143,-2,8,1,-1,-4,1,-2,1
14:59:12:931920,-2,8,1,-1,-4,1,-2,1
14:59:12:932695,-3,-5,-7,4,-3,-1,1,2
14:59:12:946717,0,-4,-14,1,1,-5,2,1
14:59:12:954424,0,-4,-14,1,1,-5,2,1
14:59:12:955212,14,-3,-5,5,-5,0,2,-3
14:59:12:969357,7,2,18,11,4,3,3,-5
14:59:12:970168,7,2,18,11,4,3,3,-5
14:59:12:976233,0,-7,4,3,-4,-2,-1,-2
14:59:12:992615,28,3,-7,-3,-1,-3,-5,13
14:59:12:993434,28,3,-7,-3,-1,-3,-5,13
14:59:12:994248,-2,0,-4,-4,0,-5,-3,-5
14:59:13:15086,-8,-1,11,-16,-13,-2,-1,-7
14:59:13:15872,-8,-1,11,-16,-13,-2,-1,-7
14:59:13:16691,-14,10,0,-14,-6,-3,-3,3
14:59:13:21176,-2,-4,-4,5,3,1,0,-10
14:59:13:36891,-2,-4,-4,5,3,1,0,-10
14:59:13:37692,7,-4,8,13,9,1,-2,5
14:59:13:43715,-5,-1,5,-2,-7,-1,1,3
14:59:13:59486,-5,-1,5,-2,-7,-1,1,3
14:59:13:60251,41,10,-7,2,0,-1,-1,12
14:59:13:66242,-3,-4,-8,2,6,-2,-5,1
14:59:13:82634,-3,-4,-8,2,6,-2,-5,1
14:59:13:83466,-9,-7,-14,0,-3,0,-1,3
14:59:13:84260,-3,2,15,-9,-2,0,-1,-3
14:59:13:88734,-3,2,15,-9,-2,0,-1,-3
14:59:13:104353,-17,3,9,-12,-3,-2,-2,-14
14:59:13:105134,25,-21,-18,-5,-9,-5,-1,20
14:59:13:111977,25,-21,-18,-5,-9,-5,-1,20
14:59:13:112748,6,4,5,-4,3,0,-1,5
14:59:13:126168,-11,-6,-15,-4,-5,2,-1,-9
14:59:13:134576,-11,-6,-15,-4,-5,2,-1,-9
14:59:13:135353,6,4,19,2,4,0,1,-9
14:59:13:141214,2,1,2,-10,-8,-2,0,0
14:59:13:156974,2,1,2,-10,-8,-2,0,0
14:59:13:157743,-21,-6,-2,4,-5,-4,0,-6
14:59:13:163784,5,0,-7,-3,6,4,1,2
14:59:13:179447,5,0,-7,-3,6,4,1,2
14:59:13:180227,-3,3,15,3,-6,-1,-1,3
14:59:13:186174,-5,9,3,3,-5,-1,1,-1
14:59:13:201970,-5,9,3,3,-5,-1,1,-1
14:59:13:202679,-10,-9,-11,-1,-3,-2,-1,-11
14:59:13:209474,-7,14,9,3,0,-3,-2,-1
14:59:13:210248,-7,14,9,3,0,-3,-2,-1
14:59:13:224425,20,-9,-9,-3,5,0,1,4
14:59:13:225229,-23,-6,-3,-10,-6,-4,0,-15
14:59:13:231261,-23,-6,-3,-10,-6,-4,0,-15
14:59:13:247063,-31,-4,-4,0,2,-3,-5,-3
14:59:13:247773,12,0,4,12,6,-2,-4,-5
14:59:13:254430,12,0,4,12,6,-2,-4,-5
14:59:13:255225,-1,2,0,-1,-3,-2,-1,-3
14:59:13:269436,-8,-19,-28,-7,1,-4,-5,-5
14:59:13:270251,-8,-19,-28,-7,1,-4,-5,-5
14:59:13:276228,46,8,5,5,-4,1,1,12
14:59:13:300131,24,2,-10,-8,-4,1,-1,10
14:59:13:300900,24,2,-10,-8,-4,1,-1,10
14:59:13:301703,-1,-5,-7,-6,0,-2,-3,-7
14:59:13:315127,13,10,5,-4,3,-3,2,2
14:59:13:315900,13,10,5,-4,3,-3,2,2
14:59:13:316724,18,0,-2,2,7,1,0,2
14:59:13:329454,-10,-6,-21,2,4,-1,-3,-4
14:59:13:330280,-10,-6,-21,2,4,-1,-3,-4
14:59:13:336227,-7,4,14,7,-3,2,2,1
14:59:13:343703,-11,-5,-2,-15,-14,0,-1,-9
14:59:13:351237,-11,-5,-2,-15,-14,0,-1,-9
14:59:13:358739,-17,-4,-2,-8,-9,-6,1,-6
14:59:13:366226,-13,1,3,0,-4,-3,-2,-1
14:59:13:374390,-13,1,3,0,-4,-3,-2,-1
14:59:13:375200,-6,1,6,0,-17,0,-1,-3
14:59:13:389420,-12,-8,-2,6,10,-2,1,-1
14:59:13:390197,-12,-8,-2,6,10,-2,1,-1
14:59:13:396251,-57,-10,-8,-8,-2,-2,-4,-5
14:59:13:403712,7,16,14,-12,-3,0,0,-10
14:59:13:411249,7,16,14,-12,-3,0,0,-10
14:59:13:418685,14,2,-13,7,7,0,-6,5
14:59:13:426183,3,4,3,7,3,-2,0,3
14:59:13:434454,3,4,3,7,3,-2,0,3
14:59:13:435277,-7,8,2,-15,-1,-1,1,-7
14:59:13:449458,4,-1,2,20,6,3,0,0
14:59:13:450244,4,-1,2,20,6,3,0,0
14:59:13:456156,4,-5,-5,1,5,4,0,1
14:59:13:463662,8,4,13,8,3,-2,1,8
14:59:13:471318,8,4,13,8,3,-2,1,8
14:59:13:478692,8,4,-2,0,1,-2,3,0
14:59:13:486180,-42,-13,-12,-5,-13,1,-2,1
14:59:13:494500,-42,-13,-12,-5,-13,1,-2,1
14:59:13:495276,-18,-2,0,4,8,1,-4,-22
14:59:13:509427,11,0,6,3,3,0,-2,1
14:59:13:510233,11,0,6,3,3,0,-2,1
14:59:13:524380,-2,-11,-7,5,-9,-3,-3,1
14:59:13:525158,1,10,9,-1,1,0,-1,-3
14:59:13:531263,1,10,9,-1,1,0,-1,-3
14:59:13:546964,7,6,8,2,8,1,2,3
14:59:13:547689,6,10,-29,-9,3,-1,-1,2
14:59:13:554435,6,10,-29,-9,3,-1,-1,2
14:59:13:555277,4,3,8,7,2,-6,1,2
14:59:13:569933,-3,-13,-3,-10,9,5,-2,-1
14:59:13:570697,-3,-13,-3,-10,9,5,-2,-1
14:59:13:576307,3,-8,-24,11,2,0,-4,3
14:59:13:592031,-3,2,12,14,2,-3,-1,-2
14:59:13:592812,-3,2,12,14,2,-3,-1,-2
14:59:13:598794,0,-11,-16,-23,-4,-1,-2,2
14:59:13:615147,17,0,0,-4,3,3,-5,-2
14:59:13:615955,17,0,0,-4,3,3,-5,-2
14:59:13:616776,3,8,1,-1,5,7,0,1
14:59:13:629866,-3,-8,0,2,-2,1,0,0
14:59:13:636963,-3,-8,0,2,-2,1,0,0
14:59:13:637788,-12,2,-19,-7,-15,-3,-2,-7
14:59:13:643761,15,2,12,1,3,-11,-3,9
14:59:13:651353,15,2,12,1,3,-11,-3,9
14:59:13:658768,-8,-9,-13,-1,-4,-9,-2,-7
14:59:13:666246,-8,0,10,-8,-19,-13,-1,-1
14:59:13:674416,-8,0,10,-8,-19,-13,-1,-1
14:59:13:675233,9,-10,-3,-8,1,-3,-3,-1
14:59:13:689480,16,6,0,8,-1,4,4,-1
14:59:13:690280,16,6,0,8,-1,4,4,-1
14:59:13:696242,0,-11,10,-7,-11,5,1,4
14:59:13:703746,-14,-10,-2,0,5,3,3,-3
14:59:13:711219,-14,-10,-2,0,5,3,3,-3
14:59:13:718740,-8,-8,3,-1,0,0,-2,1
14:59:13:726223,4,0,-4,-1,-7,-4,-4,-3
14:59:13:734448,4,0,-4,-1,-7,-4,-4,-3
14:59:13:735204,9,16,2,-3,6,5,2,2
14:59:13:749399,-13,-6,-3,-1,-13,0,-4,-3
14:59:13:750211,-13,-6,-3,-1,-13,0,-4,-3
14:59:13:756223,-2,-2,3,3,0,-3,-1,0
14:59:13:763732,12,-3,8,3,-1,-2,1,3
14:59:13:771256,12,-3,8,3,-1,-2,1,3
14:59:13:778708,-4,0,9,4,-5,-6,-3,-2
14:59:13:786136,-4,-9,0,-1,12,4,0,-2
14:59:13:794393,-4,-9,0,-1,12,4,0,-2
14:59:13:795218,-5,-1,-1,-3,-2,3,3,-1
14:59:13:809411,-13,-10,-10,8,7,-3,-2,-4
14:59:13:810228,-13,-10,-10,8,7,-3,-2,-4
14:59:13:824392,1,6,1,0,6,-1,1,2
14:59:13:825205,4,6,-9,-6,0,1,1,-2
14:59:13:831234,4,6,-9,-6,0,1,1,-2
14:59:13:846910,-52,-4,-1,-1,-5,3,-1,-9
14:59:13:847714,7,1,3,-1,0,3,-2,3
14:59:13:854386,7,1,3,-1,0,3,-2,3
14:59:13:855187,6,5,-4,-10,0,-2,-2,-1
14:59:13:869845,14,0,1,-1,-2,5,3,16
14:59:13:870635,14,0,1,-1,-2,5,3,16
14:59:13:876196,6,-10,-1,-1,2,1,0,1
14:59:13:883779,-6,-7,-15,-27,-17,-1,-3,-8
14:59:13:891255,-6,-7,-15,-27,-17,-1,-3,-8
14:59:13:898747,16,6,8,1,5,-2,-3,1
14:59:13:906233,-11,-9,-17,-10,-36,-34,-12,-10
14:59:13:914428,-11,-9,-17,-10,-36,-34,-12,-10
14:59:13:915209,-2,1,3,4,-14,-12,-3,-3
14:59:13:928736,-7,-1,-1,15,13,10,-2,-1
14:59:13:936960,-7,-1,-1,15,13,10,-2,-1
14:59:13:937680,11,4,2,3,15,3,3,4
14:59:13:943734,-4,3,6,-2,14,4,4,-3
14:59:13:951274,-4,3,6,-2,14,4,4,-3
14:59:13:958766,6,0,2,-4,-9,3,1,4
14:59:13:966271,-9,3,1,-8,0,3,0,-5
14:59:13:974416,-9,3,1,-8,0,3,0,-5
14:59:13:975251,-2,-11,-10,0,-1,5,-1,-6
14:59:13:989386,-7,-5,3,-3,-3,2,2,0
14:59:13:990212,-7,-5,3,-3,-3,2,2,0
14:59:13:996185,10,4,-5,-1,8,-5,-4,0
14:59:14:11906,-22,-8,-9,0,5,3,1,-6
14:59:14:12723,-22,-8,-9,0,5,3,1,-6
14:59:14:18762,-4,0,3,-4,-10,0,-1,-3
14:59:14:26284,-3,6,12,3,-2,-6,-3,0
14:59:14:34509,-3,6,12,3,-2,-6,-3,0
14:59:14:35206,7,-1,-2,11,-4,-3,-3,1
14:59:14:57650,1,4,-4,-1,-3,-1,-1,-5
14:59:14:58413,1,4,-4,-1,-3,-1,-1,-5
14:59:14:59210,0,-8,-5,6,2,2,1,-2
14:59:14:63713,6,12,12,18,5,-1,-4,0
14:59:14:71288,6,12,12,18,5,-1,-4,0
14:59:14:78779,-5,-7,1,-9,-9,-7,-2,-2
14:59:14:86237,3,-3,-17,-8,-4,-1,-1,-2
14:59:14:94370,3,-3,-17,-8,-4,-1,-1,-2
14:59:14:95182,0,3,26,-3,-4,2,-4,3
14:59:14:109388,-3,-12,-20,-10,-8,-3,-2,-2
14:59:14:110219,-3,-12,-20,-10,-8,-3,-2,-2
14:59:14:116229,-4,4,-8,-4,-2,-2,0,-1
14:59:14:123716,3,-5,-5,-1,3,5,1,-2
14:59:14:131245,3,-5,-5,-1,3,5,1,-2
14:59:14:138751,-3,-2,0,0,-3,-15,1,-1
14:59:14:146257,3,0,3,3,6,1,2,3
14:59:14:153761,3,0,3,3,6,1,2,3
14:59:14:161171,4,4,0,2,8,3,2,-1
14:59:14:177565,-2,-6,-3,-10,-2,2,-1,-4
14:59:14:178363,-2,-6,-3,-10,-2,2,-1,-4
14:59:14:179161,5,3,-6,4,9,1,-3,6
14:59:14:192338,3,-3,9,5,8,5,-1,1
14:59:14:193135,3,-3,9,5,8,5,-1,1
14:59:14:198747,-2,-11,-19,7,-4,0,-3,-1
14:59:14:206206,3,9,26,3,1,-6,-1,2
14:59:14:213720,3,9,26,3,1,-6,-1,2
14:59:14:221216,-5,3,1,-10,-6,-4,-2,-4
14:59:14:229431,-5,-2,-10,5,10,6,-1,3
14:59:14:230203,-5,-2,-10,5,10,6,-1,3
14:59:14:236148,-5,-9,-14,-11,-46,-18,-7,-3
14:59:14:251928,0,-5,-5,-24,-83,-25,-7,-6
14:59:14:252706,0,-5,-5,-24,-83,-25,-7,-6
14:59:14:258729,5,3,7,2,21,10,3,1
14:59:14:266211,-2,3,6,16,30,12,6,3
14:59:14:273737,-2,3,6,16,30,12,6,3
14:59:14:290097,-4,-2,-4,-1,0,2,1,-4
14:59:14:290819,-3,-4,-8,-4,9,-18,0,-7
14:59:14:291659,-3,-4,-8,-4,9,-18,0,-7
14:59:14:296265,-2,-2,1,1,14,12,6,1
14:59:14:312360,1,1,6,2,-1,6,-3,0
14:59:14:313167,1,1,6,2,-1,6,-3,0
14:59:14:318708,3,2,0,-15,-4,1,-11,1
14:59:14:342573,-4,-1,-5,-6,-26,-10,4,-1
14:59:14:343345,-4,-1,-5,-6,-26,-10,4,-1
14:59:14:344179,0,2,7,8,8,5,3,-2
14:59:14:357517,-2,-5,-4,6,28,0,3,-1
14:59:14:358343,-2,-5,-4,6,28,0,3,-1
14:59:14:359159,2,0,-1,-7,-10,-5,-2,-4
14:59:14:380099,-1,2,4,5,19,9,2,-4
14:59:14:380887,-1,2,4,5,19,9,2,-4
14:59:14:381691,16,3,-1,-1,-5,4,1,7
14:59:14:386167,-8,-2,-5,-10,-18,-1,-9,-3
14:59:14:393751,-8,-2,-5,-10,-18,-1,-9,-3
14:59:14:401229,-19,3,7,0,3,-4,4,-11
14:59:14:409438,0,0,-3,-7,-12,-6,-3,-2
14:59:14:410172,0,0,-3,-7,-12,-6,-3,-2
14:59:14:416243,-3,-6,-5,-1,-1,-4,-2,-5
14:59:14:431906,2,1,-5,-4,8,6,-1,2
14:59:14:432755,2,1,-5,-4,8,6,-1,2
14:59:14:438775,7,-1,0,2,5,18,0,2
14:59:14:446300,0,-1,-1,0,4,3,-8,-1
14:59:14:453749,0,-1,-1,0,4,3,-8,-1
14:59:14:461228,2,4,6,0,7,-6,-2,3
14:59:14:469375,-2,-1,3,-3,-10,-16,7,2
14:59:14:470228,-2,-1,3,-3,-10,-16,7,2
14:59:14:476165,2,-2,-6,-1,-3,-10,-2,1
14:59:14:491953,1,-2,-3,-1,4,6,-3,5
14:59:14:492750,1,-2,-3,-1,4,6,-3,5
14:59:14:498820,-10,-3,-2,-8,-30,2,-1,0
14:59:14:506201,1,-1,-3,0,8,10,1,-5
14:59:14:513768,1,-1,-3,0,8,10,1,-5
14:59:14:521174,-3,-4,-7,-4,-7,0,-12,-5
14:59:14:529487,5,0,-2,-2,-1,-4,-2,3
14:59:14:530278,5,0,-2,-2,-1,-4,-2,3
14:59:14:536220,3,3,-3,1,7,-4,5,-1
14:59:14:551970,3,3,2,-6,-20,-10,-13,-13
14:59:14:552707,3,3,2,-6,-20,-10,-13,-13
14:59:14:558728,-4,-5,-5,-6,6,-4,4,6
14:59:14:566283,-4,-5,-3,13,3,5,2,3
14:59:14:573827,-4,-5,-3,13,3,5,2,3
14:59:14:581245,-22,2,9,5,-2,-2,-5,-8
14:59:14:589389,5,-8,-14,-3,0,-9,0,3
14:59:14:590240,5,-8,-14,-3,0,-9,0,3
14:59:14:596213,2,8,19,2,10,-1,-10,-3
14:59:14:611906,-14,-4,-7,-7,-6,0,1,-17
14:59:14:612736,-14,-4,-7,-7,-6,0,1,-17
14:59:14:618672,-12,-10,-10,-6,5,7,9,-19
14:59:14:626198,7,-1,4,3,23,9,2,5
14:59:14:633812,7,-1,4,3,23,9,2,5
14:59:14:641217,7,3,4,-2,-26,0,4,2
14:59:14:649360,-1,-4,-1,1,10,0,-1,3
14:59:14:650198,-1,-4,-1,1,10,0,-1,3
14:59:14:656246,18,2,1,6,21,6,2,10
14:59:14:671913,-5,4,9,2,-4,-4,-1,-3
14:59:14:672735,-5,4,9,2,-4,-4,-1,-3
14:59:14:678680,5,-4,-4,-1,0,-5,-2,3
14:59:14:686186,-2,-2,-8,-8,5,-9,-6,4
14:59:14:693691,-2,-2,-8,-8,5,-9,-6,4
14:59:14:701232,3,1,-4,3,3,-4,-4,1
14:59:14:709397,-1,2,0,2,7,8,1,-1
14:59:14:710198,-1,2,0,2,7,8,1,-1
14:59:14:716248,-10,-4,-4,-11,-6,-3,-8,-8
14:59:14:731899,2,2,-2,-9,-14,-13,-1,2
14:59:14:732746,2,2,-2,-9,-14,-13,-1,2
14:59:14:738715,3,-1,-3,4,-3,-8,5,13
14:59:14:746235,0,1,8,1,-2,8,5,-8
14:59:14:753741,0,1,8,1,-2,8,5,-8
14:59:14:770094,-4,0,0,1,14,16,0,-5
14:59:14:770863,-2,-3,-1,-1,-14,-3,-12,-3
14:59:14:771668,-2,-3,-1,-1,-14,-3,-12,-3
14:59:14:776248,-1,0,-1,2,-7,-4,-9,2
14:59:14:791943,-4,-1,7,9,24,4,2,-5
14:59:14:792761,-4,-1,7,9,24,4,2,-5
14:59:14:806873,-5,-3,-8,-8,1,-1,1,1
14:59:14:807635,-11,-3,-4,-10,13,3,4,-4
14:59:14:813758,-11,-3,-4,-10,13,3,4,-4
14:59:14:821207,-4,-9,-14,-3,17,-12,-8,-8
14:59:14:829375,9,16,18,32,-4,3,-1,5
14:59:14:830200,9,16,18,32,-4,3,-1,5
14:59:14:836185,7,2,-4,-18,4,2,5,-1
14:59:14:851909,2,-3,-2,4,-5,0,2,5
14:59:14:852713,2,-3,-2,4,-5,0,2,5
14:59:14:858726,-1,-1,0,7,-6,-4,-2,-3
14:59:14:866256,5,-2,-4,-11,-15,-6,2,7
14:59:14:873815,5,-2,-4,-11,-15,-6,2,7
14:59:14:881227,-10,-6,-3,-2,-21,-7,-11,-4
14:59:14:889374,0,-2,0,0,-7,4,1,-2
14:59:14:890232,0,-2,0,0,-7,4,1,-2
14:59:14:896176,3,-1,2,6,-1,-5,3,2
14:59:14:911591,2,-4,-4,-10,-14,-4,-1,-3
14:59:14:919352,2,-4,-4,-10,-14,-4,-1,-3
14:59:14:920153,13,-5,-3,-4,29,2,-3,18
14:59:14:926219,-6,-10,-15,-22,-34,-9,-5,-3
14:59:14:933749,-6,-10,-15,-22,-34,-9,-5,-3
14:59:14:941205,1,11,9,12,3,2,-2,-3
14:59:14:957561,-1,8,10,8,12,4,2,2
14:59:14:958366,-1,8,10,8,12,4,2,2
14:59:14:959160,-2,-6,-4,-2,-4,2,8,-3
14:59:14:980167,-1,-2,0,-4,-4,-2,5,-2
14:59:14:980914,-1,-2,0,-4,-4,-2,5,-2
14:59:14:981689,-4,2,6,5,-15,-4,-6,-2
14:59:14:986163,3,-6,-8,-1,2,6,-6,-3
14:59:15:1948,3,-6,-8,-1,2,6,-6,-3
14:59:15:2709,28,-1,4,2,-8,1,8,0
14:59:15:9395,-9,0,-1,4,17,-3,-1,-12
14:59:15:10246,-9,0,-1,4,17,-3,-1,-12
14:59:15:16237,-44,-1,3,8,48,-4,-9,-26
14:59:15:31956,16,-1,-1,-4,-9,-1,1,10
14:59:15:32714,16,-1,-1,-4,-9,-1,1,10
14:59:15:38658,-2,-8,-16,-14,-26,-5,-1,0
14:59:15:46184,-10,-1,6,21,20,6,8,1
14:59:15:53769,-10,-1,6,21,20,6,8,1
14:59:15:61170,5,3,-3,2,12,6,9,5
14:59:15:69380,-10,-5,-8,-13,-20,-2,-3,-2
14:59:15:70216,-10,-5,-8,-13,-20,-2,-3,-2
14:59:15:83734,10,3,7,-11,-15,17,6,9
14:59:15:91936,10,3,7,-11,-15,17,6,9
14:59:15:92725,-3,-5,-12,-5,9,-5,-6,-1
14:59:15:98680,-10,-2,-3,-8,-24,-2,-7,-6
14:59:15:114403,-10,-2,-3,-8,-24,-2,-7,-6
14:59:15:115209,2,-2,8,-7,-9,5,-1,6
14:59:15:121181,-31,-4,3,17,13,-8,-5,-16
14:59:15:136910,-31,-4,3,17,13,-8,-5,-16
14:59:15:137730,-1,7,10,1,3,-12,-2,-2
14:59:15:143638,-15,-4,-5,-3,-6,0,1,-5
14:59:15:151924,-15,-4,-5,-3,-6,0,1,-5
14:59:15:152695,5,0,-1,-3,14,-11,-3,-2
14:59:15:158686,9,4,-3,0,-11,-1,0,8
14:59:15:174466,9,4,-3,0,-11,-1,0,8
14:59:15:175205,-13,3,-2,17,17,-4,3,-17
14:59:15:181184,46,-2,0,4,14,-6,-3,12
14:59:15:189408,46,-2,0,4,14,-6,-3,12
14:59:15:190197,71,-4,-6,-4,-5,-2,-2,12
14:59:15:203741,13,1,1,-6,-9,6,-11,-11
14:59:15:211899,13,1,1,-6,-9,6,-11,-11
14:59:15:212685,-43,-6,-7,1,-1,0,-8,-17
14:59:15:218691,6,0,3,-12,-3,6,3,-2
14:59:15:234939,6,0,3,-12,-3,6,3,-2
14:59:15:235658,-27,-4,-1,-12,-10,-11,-9,-8
14:59:15:241212,-26,-3,-2,9,-39,-27,-1,-14
14:59:15:249845,-26,-3,-2,9,-39,-27,-1,-14
14:59:15:256188,25,-4,-1,-2,6,11,4,-50
14:59:15:263689,-39,-1,0,-4,-8,9,-1,-5
14:59:15:271915,-39,-1,0,-4,-8,9,-1,-5
14:59:15:272741,-23,-2,-2,16,9,-25,-13,9
14:59:15:278687,28,5,4,6,6,4,3,7
14:59:15:294461,28,5,4,6,6,4,3,7
14:59:15:295225,-6,7,-1,-2,2,5,2,18
14:59:15:301200,-5,-5,-7,-1,8,-6,1,6
14:59:15:309445,-5,-5,-7,-1,8,-6,1,6
14:59:15:310233,16,1,0,-3,7,7,-4,23
14:59:15:323786,-37,2,10,-6,-10,-2,4,-16
14:59:15:331936,-37,2,10,-6,-10,-2,4,-16
14:59:15:332725,-23,-2,-2,-7,-44,-3,2,-2
14:59:15:338694,17,2,-5,14,18,-6,-8,17
14:59:15:354453,17,2,-5,14,18,-6,-8,17
14:59:15:355215,1,1,0,-8,-1,6,3,12
14:59:15:361167,9,1,0,-7,4,1,14,7
14:59:15:369396,9,1,0,-7,4,1,14,7
14:59:15:370198,3,-4,-1,4,-2,9,9,6
14:59:15:384226,-1,-4,-7,-6,-5,4,-7,-7
14:59:15:391884,-1,-4,-7,-6,-5,4,-7,-7
14:59:15:392709,11,4,2,0,6,5,8,7
14:59:15:398652,11,1,2,3,5,-5,-2,4
14:59:15:414416,11,1,2,3,5,-5,-2,4
14:59:15:415172,-27,-3,-6,7,-1,-16,-17,-7
14:59:15:421216,5,-2,4,16,7,-10,-9,17
14:59:15:429393,5,-2,4,16,7,-10,-9,17
14:59:15:430200,-1,-6,-13,-26,-10,-13,-30,-23
14:59:15:443734,-9,-1,13,-1,2,1,-6,1
14:59:15:451886,-9,-1,13,-1,2,1,-6,1
14:59:15:452665,-4,9,19,28,11,6,-3,3
14:59:15:458735,3,-5,-8,-5,-4,-3,-7,-2
14:59:15:474421,3,-5,-8,-5,-4,-3,-7,-2
14:59:15:475202,-2,-3,-8,-14,10,19,18,-1
14:59:15:481216,8,7,0,-13,2,9,-3,-1
14:59:15:489377,8,7,0,-13,2,9,-3,-1
14:59:15:490205,-2,-4,-2,8,5,-24,-11,5
14:59:15:512624,0,-8,-14,9,-7,-9,0,-11
14:59:15:513410,0,-8,-14,9,-7,-9,0,-11
14:59:15:514290,2,-1,1,-1,8,20,7,1
14:59:15:518733,-1,-2,-1,-20,-12,-19,-22,-6
14:59:15:535432,-1,-2,-1,-20,-12,-19,-22,-6
14:59:15:536214,7,-3,-9,-10,-20,0,13,11
14:59:15:541230,-2,2,11,2,2,-2,-2,3
14:59:15:556925,-2,2,11,2,2,-2,-2,3
14:59:15:557744,15,4,17,8,7,4,4,7
14:59:15:563709,12,14,7,0,-15,5,17,9
14:59:15:572639,12,14,7,0,-15,5,17,9
14:59:15:573467,-8,-20,-29,-21,-6,0,5,-4
14:59:15:578676,-1,-13,-1,-40,-9,15,-2,8
14:59:15:594409,-1,-13,-1,-40,-9,15,-2,8
14:59:15:595204,-11,-2,-13,-24,-15,-7,-19,-12
14:59:15:601156,-12,-12,-25,-9,-8,0,6,-8
14:59:15:609410,-12,-12,-25,-9,-8,0,6,-8
14:59:15:610190,7,2,7,3,6,-2,-6,4
14:59:15:623745,-11,-18,-23,18,8,-1,-6,-9
14:59:15:631906,-11,-18,-23,18,8,-1,-6,-9
14:59:15:632721,-7,4,19,10,5,2,4,0
14:59:15:638698,-3,-6,1,18,37,2,0,-8
14:59:15:654416,-3,-6,1,18,37,2,0,-8
14:59:15:655197,10,11,-3,-13,-2,1,-12,13
14:59:15:661190,-34,0,2,8,-17,1,12,-18
14:59:15:676929,-34,0,2,8,-17,1,12,-18
14:59:15:677696,0,2,2,-5,-26,-3,14,-4
14:59:15:683744,8,6,-13,-7,1,-21,-12,7
14:59:15:691930,8,6,-13,-7,1,-21,-12,7
14:59:15:692723,-2,3,-1,19,10,-4,-23,6
14:59:15:698712,29,6,15,-4,-1,-8,3,12
14:59:15:714450,29,6,15,-4,-1,-8,3,12
14:59:15:715255,-5,-5,-11,11,12,0,15,-35
14:59:15:721207,-9,-6,-8,5,19,-1,-1,-2
14:59:15:729421,-9,-6,-8,5,19,-1,-1,-2
14:59:15:730205,-35,-1,7,-2,1,5,8,-12
14:59:15:743707,-6,4,1,-16,20,18,12,4
14:59:15:751916,-6,4,1,-16,20,18,12,4
14:59:15:752686,17,-3,-14,4,28,-3,10,-5
14:59:15:758727,-4,0,15,10,3,12,-1,-8
14:59:15:774454,-4,0,15,10,3,12,-1,-8
14:59:15:775230,-88,4,12,9,-15,-2,-2,-8
14:59:15:781211,12,-7,-16,-20,-5,4,0,18
14:59:15:789362,12,-7,-16,-20,-5,4,0,18
14:59:15:790174,56,10,27,-1,-32,-29,-33,47
14:59:15:803709,-8,-2,12,23,8,12,6,-45
14:59:15:811877,-8,-2,12,23,8,12,6,-45
14:59:15:812699,19,-7,-14,-14,6,9,-14,16
14:59:15:818724,-32,-6,-4,-30,-23,-70,-58,-58
14:59:15:834925,-32,-6,-4,-30,-23,-70,-58,-58
14:59:15:835690,58,-4,-7,-15,-17,-20,-8,20
14:59:15:841199,30,10,18,22,22,21,27,43
14:59:15:849444,30,10,18,22,22,21,27,43
14:59:15:850255,-66,-19,-4,-32,-78,2,-8,-32
14:59:15:863785,37,-3,-11,-5,0,-5,2,7
14:59:15:871936,37,-3,-11,-5,0,-5,2,7
14:59:15:872725,7,2,-13,18,26,33,51,33
14:59:15:878678,-48,-1,8,12,8,0,24,15
14:59:15:894445,-48,-1,8,12,8,0,24,15
14:59:15:895221,0,2,10,-26,-7,16,6,-18
14:59:15:901193,-17,-8,-17,-28,5,-7,-29,-8
14:59:15:909464,-17,-8,-17,-28,5,-7,-29,-8
14:59:15:910239,-7,-7,-11,12,14,3,1,-3
14:59:15:932589,-22,-12,-6,1,-9,19,17,-7
14:59:15:933379,-22,-12,-6,1,-9,19,17,-7
14:59:15:934209,7,17,8,18,21,-2,-11,-25
14:59:15:938687,27,4,-17,-24,-39,20,25,33
14:59:15:954425,27,4,-17,-24,-39,20,25,33
14:59:15:955212,-8,5,5,10,10,-13,-5,-13
14:59:15:961202,-34,13,11,42,13,7,-13,15
14:59:15:976963,-34,13,11,42,13,7,-13,15
14:59:15:977730,-12,4,16,18,27,1,-13,-3
14:59:15:983739,-9,-2,8,-10,-16,7,10,-30
14:59:15:991904,-9,-2,8,-10,-16,7,10,-30
14:59:15:992698,22,-14,-24,3,7,-11,-9,-10
14:59:15:998759,22,14,52,17,-12,-6,5,17
14:59:16:14415,22,14,52,17,-12,-6,5,17
14:59:16:15194,-2,-6,1,7,-8,-7,-9,0
14:59:16:21263,10,-3,-19,5,-6,-13,9,3
14:59:16:28750,10,-3,-19,5,-6,-13,9,3
14:59:16:44342,7,13,8,-35,-17,-20,-33,-15
14:59:16:45167,-4,-17,-15,-4,20,-8,-26,-57
14:59:16:51906,-4,-17,-15,-4,20,-8,-26,-57
14:59:16:52671,-22,10,18,10,-10,-2,2,-2
14:59:16:66223,15,-15,-21,-10,-14,-6,-12,12
14:59:16:74489,15,-15,-21,-10,-14,-6,-12,12
14:59:16:75263,2,-9,-20,-3,-9,3,12,2
14:59:16:81234,13,1,5,9,-8,-12,4,-2
14:59:16:88730,13,1,5,9,-8,-12,4,-2
14:59:16:96238,2,-12,1,23,18,-3,-4,-2
14:59:16:103732,-2,-4,-11,16,-13,3,0,-4
14:59:16:111930,-2,-4,-11,16,-13,3,0,-4
14:59:16:112708,6,-1,-9,-6,21,7,7,10
14:59:16:135156,-2,5,8,-34,5,14,15,10
14:59:16:135901,-2,5,8,-34,5,14,15,10
14:59:16:136707,-28,-13,-2,-14,3,7,29,-9
14:59:16:141211,54,0,-25,-20,0,4,13,18
14:59:16:148794,54,0,-25,-20,0,4,13,18
14:59:16:156224,57,-5,-11,-4,13,3,18,7
14:59:16:163749,-35,-11,-13,-8,-15,-13,-22,-11
14:59:16:171905,-35,-11,-13,-8,-15,-13,-22,-11
14:59:16:172719,-76,3,11,1,3,12,12,-5
14:59:16:186178,14,7,8,-13,-16,11,10,10
14:59:16:194390,14,7,8,-13,-16,11,10,10
14:59:16:195238,-2,-5,-1,27,6,-6,-11,-7
14:59:16:201239,-15,15,21,-3,12,-9,-4,0
14:59:16:208754,-15,15,21,-3,12,-9,-4,0
14:59:16:216231,18,4,1,-42,-12,2,3,8
14:59:16:232554,-45,-14,-7,12,-13,-16,-36,-16
14:59:16:233381,-45,-14,-7,12,-13,-16,-36,-16
14:59:16:234208,20,2,-3,5,2,1,-12,2
14:59:16:246234,-3,5,14,7,-2,-5,3,-8
14:59:16:254434,-3,5,14,7,-2,-5,3,-8
14:59:16:255222,-3,-18,-32,-21,1,9,16,11
14:59:16:261191,20,13,19,-6,14,-9,-10,0
14:59:16:268786,20,13,19,-6,14,-9,-10,0
14:59:16:276215,-4,-10,-10,-15,-17,-4,1,2
14:59:16:283718,18,13,28,32,1,-6,0,11
14:59:16:291938,18,13,28,32,1,-6,0,11
14:59:16:292681,-9,5,-1,10,-20,-4,-1,-13
14:59:16:306246,27,-14,-39,-10,-6,5,-2,22
14:59:16:314398,27,-14,-39,-10,-6,5,-2,22
14:59:16:315184,1,3,28,10,0,-6,-10,4
14:59:16:321228,-13,-6,0,8,5,5,6,-14
14:59:16:328719,-13,-6,0,8,5,5,6,-14
14:59:16:336205,3,-7,-22,1,2,-11,2,-10
14:59:16:343714,-22,-7,-22,-4,3,4,-7,3
14:59:16:351907,-22,-7,-22,-4,3,4,-7,3
14:59:16:352721,4,3,-12,-5,14,-9,-11,-14
14:59:16:366283,-21,-5,12,-14,-36,1,15,-4
14:59:16:374428,-21,-5,12,-14,-36,1,15,-4
14:59:16:375203,6,16,21,9,16,-3,-7,5
14:59:16:381192,-18,-9,-43,-11,23,-2,-9,-6
14:59:16:388750,-18,-9,-43,-11,23,-2,-9,-6
14:59:16:396214,18,-3,3,-26,-2,3,1,12
14:59:16:403685,7,3,6,-7,-10,0,6,11
14:59:16:411992,7,3,6,-7,-10,0,6,11
14:59:16:412803,-9,-30,-33,4,-8,-5,-6,2
14:59:16:426151,-1,9,16,-2,3,5,1,-7
14:59:16:434455,-1,9,16,-2,3,5,1,-7
14:59:16:435251,-4,-6,1,7,-11,0,7,5
14:59:16:441199,29,7,5,7,-3,-3,-2,10
14:59:16:448765,29,7,5,7,-3,-3,-2,10
14:59:16:456176,16,7,14,24,-7,3,4,-6
14:59:16:463726,-43,-20,0,-6,15,-1,-8,-55
14:59:16:471905,-43,-20,0,-6,15,-1,-8,-55
14:59:16:472787,3,18,56,42,9,4,12,13
14:59:16:486183,5,2,-17,7,-16,6,21,3
14:59:16:494406,5,2,-17,7,-16,6,21,3
14:59:16:495189,-16,-9,-31,0,22,-6,-16,-16
14:59:16:509432,-9,-10,-18,1,10,-3,3,-4
14:59:16:510224,-9,-10,-18,1,10,-3,3,-4
14:59:16:516247,1,-3,-3,1,-10,5,0,8
14:59:16:523689,-8,12,20,13,20,0,-14,-4
14:59:16:531921,-8,12,20,13,20,0,-14,-4
14:59:16:532758,54,-18,-20,-37,-27,-2,-2,10
14:59:16:546216,29,3,20,-2,-6,-9,1,17
14:59:16:562656,29,3,20,-2,-6,-9,1,17
14:59:16:563438,-22,3,-10,-14,-45,-12,-17,-19
14:59:16:564188,14,-3,-23,-35,-13,-2,2,11
14:59:16:568773,14,-3,-23,-35,-13,-2,2,11
14:59:16:576224,-15,-5,-6,4,-5,-2,3,17
14:59:16:583753,-15,9,7,3,0,-8,0,-9
14:59:16:591910,-15,9,7,3,0,-8,0,-9
14:59:16:592754,33,-1,-14,-31,-22,8,28,10
14:59:16:606236,13,10,33,21,-1,3,3,14
14:59:16:614447,13,10,33,21,-1,3,3,14
14:59:16:615290,49,23,15,16,15,-6,-11,19
14:59:16:621221,-18,-14,-24,-10,-3,10,8,0
14:59:16:628807,-18,-14,-24,-10,-3,10,8,0
14:59:16:644424,-16,8,-7,7,12,-3,1,-7
14:59:16:645168,-20,-5,-15,2,24,0,-6,-10
14:59:16:651931,-20,-5,-15,2,24,0,-6,-10
14:59:16:652723,-28,2,32,11,19,4,-6,-6
14:59:16:666289,13,-1,-11,-1,3,-6,-15,-3
14:59:16:674444,13,-1,-11,-1,3,-6,-15,-3
14:59:16:675221,-64,2,2,-8,-1,-12,-8,-37
14:59:16:681178,57,-4,13,0,-4,5,-10,-1
14:59:16:688730,57,-4,13,0,-4,5,-10,-1
14:59:16:696221,-28,0,-4,-13,-5,6,0,-16
14:59:16:703705,13,6,-2,17,-18,-8,3,25
14:59:16:712057,13,6,-2,17,-18,-8,3,25
14:59:16:712810,8,0,1,-1,24,-1,5,2
14:59:16:726222,-18,-28,-26,0,-3,3,-5,-9
14:59:16:734479,-18,-28,-26,0,-3,3,-5,-9
14:59:16:735215,2,-2,-4,13,-9,-1,4,6
14:59:16:741184,-33,4,25,-1,7,4,7,-11
14:59:16:748767,-33,4,25,-1,7,4,7,-11
14:59:16:756196,-3,-5,13,-15,0,-12,-2,-20
14:59:16:763733,13,-10,-8,-5,-12,-4,-4,1
14:59:16:771911,13,-10,-8,-5,-12,-4,-4,1
14:59:16:772750,14,-6,-13,4,5,5,-2,4
14:59:16:786213,-18,7,6,10,0,-5,-3,-9
14:59:16:794407,-18,7,6,10,0,-5,-3,-9
14:59:16:795190,-11,-8,-26,-18,-6,-3,-13,-1
14:59:16:801192,8,15,-1,-12,-7,1,12,9
14:59:16:808780,8,15,-1,-12,-7,1,12,9
14:59:16:816184,3,8,10,-24,-5,-3,-9,0
14:59:16:823721,-7,-1,-14,0,4,-2,-5,-6
14:59:16:831858,-7,-1,-14,0,4,-2,-5,-6
14:59:16:832682,-9,-26,-19,22,13,-2,-8,3
14:59:16:846197,19,11,25,-18,18,4,13,9
14:59:16:854408,19,11,25,-18,18,4,13,9
14:59:16:855223,1,7,10,18,12,11,13,1
14:59:16:869385,-12,-5,-15,-10,-20,-4,-11,13
14:59:16:870268,-12,-5,-15,-10,-20,-4,-11,13
14:59:16:876208,-6,-5,-5,-30,-11,-4,2,-22
14:59:16:883696,16,10,0,15,17,3,-3,-1
14:59:16:891939,16,10,0,15,17,3,-3,-1
14:59:16:892747,5,-11,-1,23,-5,-12,-4,29
14:59:16:906226,-38,-14,-13,1,13,-5,-6,-20
14:59:16:914217,-38,-14,-13,1,13,-5,-6,-20
14:59:16:921857,8,4,-2,22,-3,-8,2,5
14:59:16:922655,-21,-9,-17,2,-3,6,10,1
14:59:16:928762,-21,-9,-17,2,-3,6,10,1
14:59:16:944344,0,7,36,-2,-19,10,9,-6
14:59:16:945151,7,-11,-18,-9,6,-5,2,-10
14:59:16:951923,7,-11,-18,-9,6,-5,2,-10
14:59:16:952719,29,1,-27,-24,5,3,3,15
14:59:16:966198,20,11,30,1,-41,-12,-4,8
14:59:16:974458,20,11,30,1,-41,-12,-4,8
14:59:16:975266,-9,2,6,15,2,-7,-8,-1
14:59:16:989881,2,-2,-18,-4,11,0,0,1
14:59:16:990717,2,-2,-18,-4,11,0,0,1
14:59:16:996166,-8,6,19,37,19,8,6,-5
14:59:17:3714,22,10,-2,-4,-4,4,-1,-7
14:59:17:11253,22,10,-2,-4,-4,4,-1,-7
14:59:17:26883,6,-9,-15,-3,7,2,-4,-1
14:59:17:27693,-3,3,35,17,4,-3,-7,-6
14:59:17:34422,-3,3,35,17,4,-3,-7,-6
14:59:17:35236,17,-3,-20,-13,-34,-1,8,-4
14:59:17:49420,-14,-2,-15,0,23,4,7,-1
14:59:17:50198,-14,-2,-15,0,23,4,7,-1
14:59:17:64399,4,22,19,-5,-2,-6,-11,5
14:59:17:65169,3,9,-11,-14,0,-2,2,5
14:59:17:71207,3,9,-11,-14,0,-2,2,5
14:59:17:86902,-4,-6,-3,-14,-3,-22,-22,0
14:59:17:87656,-8,-8,5,30,22,-8,-12,-8
14:59:17:94407,-8,-8,5,30,22,-8,-12,-8
14:59:17:95219,-19,-15,-29,-49,-4,4,6,-15
14:59:17:109430,10,3,12,-9,-43,1,0,19
14:59:17:110256,10,3,12,-9,-43,1,0,19
14:59:17:116205,-33,-3,-13,15,4,2,15,3
14:59:17:123668,-2,0,8,-14,-3,-1,-1,2
14:59:17:131288,-2,0,8,-14,-3,-1,-1,2
14:59:17:138715,-1,-2,8,12,-5,-7,-11,-3
14:59:17:146189,-4,3,3,-7,0,-8,-14,-2
14:59:17:154435,-4,3,3,-7,0,-8,-14,-2
14:59:17:155194,-16,-3,-6,-6,-24,7,-3,-2
14:59:17:169342,15,-5,24,7,-5,-12,-1,0
14:59:17:170187,15,-5,24,7,-5,-12,-1,0
14:59:17:176231,0,17,11,14,10,-3,-12,-6
14:59:17:183736,-19,-8,-10,6,13,0,-9,-4
14:59:17:191257,-19,-8,-10,6,13,0,-9,-4
14:59:17:198700,2,1,4,14,-9,-8,-4,3
14:59:17:206273,-5,-2,-9,-4,15,3,-8,-13
14:59:17:214192,-5,-2,-9,-4,15,3,-8,-13
14:59:17:221186,7,-5,-5,-1,2,2,0,-1
14:59:17:229488,-15,5,16,-11,-7,2,1,-4
14:59:17:230308,-15,5,16,-11,-7,2,1,-4
14:59:17:236192,-7,-12,1,-7,12,10,-4,5
14:59:17:243701,61,10,23,3,-19,-2,-4,4
14:59:17:251292,61,10,23,3,-19,-2,-4,4
14:59:17:258731,36,2,21,-8,-16,12,9,8
14:59:17:266225,-6,-18,-34,4,-1,5,-11,-4
14:59:17:274466,-6,-18,-34,4,-1,5,-11,-4
14:59:17:275257,3,-15,-7,6,29,4,13,0
14:59:17:289435,-26,-6,-17,-32,-41,-18,-4,-7
14:59:17:290235,-26,-6,-17,-32,-41,-18,-4,-7
14:59:17:296254,-11,-3,5,32,-7,2,8,-14
14:59:17:311982,-4,2,2,17,12,7,7,-4
14:59:17:312783,-4,2,2,17,12,7,7,-4
14:59:17:318724,1,11,10,-2,-4,0,2,1
14:59:17:342562,6,2,-3,18,29,10,-1,-2
14:59:17:343381,6,2,-3,18,29,10,-1,-2
14:59:17:344172,-7,-19,-33,-37,-5,1,-12,-3
14:59:17:349377,-41,13,35,4,13,3,17,1
14:59:17:350220,-41,13,35,4,13,3,17,1
14:59:17:364394,-39,0,-16,-20,-4,-14,-11,-12
14:59:17:365188,-8,2,-6,4,-1,4,-6,30
14:59:17:371233,-8,2,-6,4,-1,4,-6,30
14:59:17:386935,-12,-4,-10,-10,-3,-5,-3,-4
14:59:17:387708,4,-8,-12,9,-19,2,14,-3
14:59:17:394401,4,-8,-12,9,-19,2,14,-3
14:59:17:395244,8,1,-3,4,16,4,-4,-12
14:59:17:409924,9,-8,-8,-13,-8,-4,1,-4
14:59:17:410710,9,-8,-8,-13,-8,-4,1,-4
14:59:17:416225,-17,14,21,9,8,-2,1,1
14:59:17:431907,4,-1,-11,-22,13,-5,-4,-8
14:59:17:432741,4,-1,-11,-22,13,-5,-4,-8
14:59:17:438678,18,-5,-9,-10,-6,-3,-8,1
14:59:17:446154,-6,-12,-3,-4,2,6,-3,-5
14:59:17:454481,-6,-12,-3,-4,2,6,-3,-5
14:59:17:455214,36,12,8,-8,4,5,1,1
14:59:17:469398,-8,5,-6,-4,-3,-2,2,-3
14:59:17:470215,-8,5,-6,-4,-3,-2,2,-3
14:59:17:476188,-1,-8,2,14,12,4,8,-5
14:59:17:483691,7,1,3,16,6,5,-5,-13
14:59:17:491252,7,1,3,16,6,5,-5,-13
14:59:17:498692,-45,15,21,12,-1,-2,15,6
14:59:17:506184,-2,-4,1,-20,-3,1,4,1
14:59:17:514449,-2,-4,1,-20,-3,1,4,1
14:59:17:515270,20,-1,10,29,0,5,2,3
14:59:17:529435,3,5,-2,31,19,-21,0,3
14:59:17:530230,3,5,-2,31,19,-21,0,3
14:59:17:544302,6,-8,-18,-32,-15,-3,-2,2
14:59:17:545112,-4,-3,-21,-24,0,16,15,1
14:59:17:551288,-4,-3,-21,-24,0,16,15,1
14:59:17:558678,-23,7,8,10,-12,-4,-21,-3
14:59:17:566178,-5,-5,5,-26,-21,3,-6,-6
14:59:17:582671,-5,-5,5,-26,-21,3,-6,-6
14:59:17:583470,26,-6,-7,-10,-7,-2,-12,12
14:59:17:589441,0,18,17,5,-6,-20,-13,-19
14:59:17:590241,0,18,17,5,-6,-20,-13,-19
14:59:17:596247,12,6,12,-14,-13,-11,-2,13
14:59:17:603701,-14,-12,0,17,17,5,5,1
14:59:17:611246,-14,-12,0,17,17,5,5,1
14:59:17:618759,22,6,0,-13,-32,-8,-8,-2
14:59:17:626224,12,-20,-16,-31,-23,-9,-8,4
14:59:17:634826,12,-20,-16,-31,-23,-9,-8,4
14:59:17:641197,-12,-8,-18,-5,14,9,14,-5
14:59:17:649406,0,12,-2,10,0,-10,-8,-8
14:59:17:650215,0,12,-2,10,0,-10,-8,-8
14:59:17:664413,-14,-14,-17,-19,-33,-1,-18,-8
14:59:17:665202,9,-12,-21,-13,-4,-7,-12,5
14:59:17:671246,9,-12,-21,-13,-4,-7,-12,5
14:59:17:678714,2,9,38,22,4,9,19,14
14:59:17:686187,1,1,13,7,-18,-7,-7,1
14:59:17:694454,1,1,13,7,-18,-7,-7,1
14:59:17:695234,-8,-14,-6,18,14,-4,7,-15
14:59:17:709864,-5,-4,-10,-3,18,7,18,4
14:59:17:710687,-5,-4,-10,-3,18,7,18,4
14:59:17:716232,3,7,-2,-20,-5,-4,-12,-7
14:59:17:731958,-5,11,7,2,2,7,0,-5
14:59:17:732775,-5,11,7,2,2,7,0,-5
14:59:17:738742,10,-11,-19,-10,-9,-12,-19,2
14:59:17:755133,-11,-10,-3,16,-3,1,4,0
14:59:17:755877,-11,-10,-3,16,-3,1,4,0
14:59:17:756728,20,12,23,16,24,4,1,10
14:59:17:777562,21,-6,13,20,3,2,14,6
14:59:17:778376,21,-6,13,20,3,2,14,6
14:59:17:779166,-10,-1,-18,-21,7,-11,-6,-6
14:59:17:783713,8,1,-2,23,-11,2,4,2
14:59:17:791279,8,1,-2,23,-11,2,4,2
14:59:17:798673,2,-16,-26,-13,-43,-8,-3,1
14:59:17:806151,18,-1,2,-8,8,8,-2,10
14:59:17:821909,18,-1,2,-8,8,8,-2,10
14:59:17:822712,-14,-6,-6,-9,12,-8,-11,-7
14:59:17:829397,-2,-4,2,-9,-6,3,8,5
14:59:17:830230,-2,-4,2,-9,-6,3,8,5
14:59:17:836156,-1,1,11,46,45,4,10,-6
14:59:17:843670,-9,6,8,4,31,-7,-13,1
14:59:17:851262,-9,6,8,4,31,-7,-13,1
14:59:17:858703,-8,-3,-11,-14,-12,12,20,-2
14:59:17:866182,-25,-11,-17,-16,-7,-11,-7,-11
14:59:17:874411,-25,-11,-17,-16,-7,-11,-7,-11
14:59:17:875256,1,14,16,12,2,3,-4,-7
14:59:17:890448,14,-10,-7,-6,3,4,0,-1
14:59:17:896905,14,-10,-7,-6,3,4,0,-1
14:59:17:897708,-25,5,-4,-15,4,-5,5,-3
14:59:17:903647,-44,6,14,-4,3,6,4,-6
14:59:17:919457,-44,6,14,-4,3,6,4,-6
14:59:17:920185,40,12,17,47,2,0,-6,-4
14:59:17:926203,7,6,-2,20,-1,6,2,-15
14:59:17:941913,7,6,-2,20,-1,6,2,-15
14:59:17:942699,-19,-21,-25,-24,5,-7,3,2
14:59:17:949398,8,14,27,10,1,6,2,8
14:59:17:950226,8,14,27,10,1,6,2,8
14:59:17:963716,4,-5,-6,-23,-4,3,-8,-1
14:59:17:971872,-11,-15,-20,-24,-44,-2,3,0
14:59:17:972689,-11,-15,-20,-24,-44,-2,3,0
14:59:17:986823,-22,-10,4,7,9,-2,-12,-3
14:59:17:987663,30,9,5,6,6,-5,-15,4
14:59:17:993828,30,9,5,6,6,-5,-15,4
14:59:18:10033,-8,-7,-13,-24,-3,5,4,-2
14:59:18:10838,-6,5,10,-3,3,-2,-3,2
14:59:18:11675,-6,5,10,-3,3,-2,-3,2
14:59:18:16233,10,3,1,-10,-17,-1,8,2
14:59:18:31900,4,-5,-3,-7,1,-5,-5,1
14:59:18:32734,4,-5,-3,-7,1,-5,-5,1
14:59:18:38687,-1,11,15,16,16,2,5,-8
14:59:18:46226,-7,-14,-27,-4,1,-4,-6,-9
14:59:18:53786,-7,-14,-27,-4,1,-4,-6,-9
14:59:18:61194,30,6,11,7,6,0,-9,0
14:59:18:69380,4,-4,-13,-6,12,5,7,4
14:59:18:70188,4,-4,-13,-6,12,5,7,4
14:59:18:76212,6,7,-5,-37,-19,-5,4,14
14:59:18:91940,5,17,9,-10,11,-1,8,1
14:59:18:92728,5,17,9,-10,11,-1,8,1
14:59:18:98729,-16,-16,-22,2,5,-9,-20,2
14:59:18:106208,-20,-8,-8,9,11,8,10,4
14:59:18:113756,-20,-8,-8,9,11,8,10,4
14:59:18:121214,5,7,6,7,8,3,0,-7
14:59:18:137523,0,11,12,3,9,-17,-29,-10
14:59:18:138309,0,11,12,3,9,-17,-29,-10
14:59:18:139167,12,-11,0,7,3,-1,-1,-2
14:59:18:151992,-43,-19,-29,-28,-20,-3,9,-6
14:59:18:152702,-43,-19,-29,-28,-20,-3,9,-6
14:59:18:158709,-37,7,-7,-12,-29,5,7,-2
14:59:18:167514,42,-3,-14,-13,-31,-3,-4,6
14:59:18:168334,42,-3,-14,-13,-31,-3,-4,6
14:59:18:181231,7,-4,17,10,8,0,6,11
14:59:18:197538,30,5,16,9,-26,-8,-12,-6
14:59:18:198372,30,5,16,9,-26,-8,-12,-6
14:59:18:199159,9,-1,-11,-28,-9,4,6,1
14:59:18:220117,-3,-1,-3,-4,4,0,-4,0
14:59:18:220927,-3,-1,-3,-4,4,0,-4,0
14:59:18:221681,3,18,37,8,8,5,20,9
14:59:18:226832,-7,-7,-3,1,7,-5,-11,-9
14:59:18:227687,-7,-7,-3,1,7,-5,-11,-9
14:59:18:250174,-8,-14,-21,-12,-24,-1,-6,-7
14:59:18:250873,18,13,36,-1,-9,-19,8,1
14:59:18:251749,18,13,36,-1,-9,-19,8,1
14:59:18:263699,11,-1,-1,-4,3,-9,-1,-1
14:59:18:271871,-18,-8,-9,5,10,16,24,6
14:59:18:272694,-18,-8,-9,5,10,16,24,6
14:59:18:287558,-2,-4,-3,12,17,-2,-20,-12
14:59:18:288351,-3,0,-13,-20,1,1,-3,-5
14:59:18:289191,-3,0,-13,-20,1,1,-3,-5
14:59:18:310119,-7,9,-6,1,-9,7,9,2
14:59:18:310872,-34,-7,-24,-2,-28,-3,-10,-3
14:59:18:311689,-34,-7,-24,-2,-28,-3,-10,-3
14:59:18:316218,16,-2,-1,5,-9,-6,-10,-7
14:59:18:331951,-8,-10,0,20,18,-2,-5,-8
14:59:18:332727,-8,-10,0,20,18,-2,-5,-8
14:59:18:338665,-18,-5,6,-11,1,-2,-3,0
14:59:18:346940,6,4,11,1,9,9,2,2
14:59:18:347719,6,4,11,1,9,9,2,2
14:59:18:361195,3,-5,-22,1,-19,-17,-12,-1
14:59:18:369171,16,7,8,4,8,-4,-19,11
14:59:18:376899,16,7,8,4,8,-4,-19,11
14:59:18:377706,38,-8,-13,20,23,12,10,-3
14:59:18:391923,-4,-7,2,4,14,8,5,0
14:59:18:392695,-4,-7,2,4,14,8,5,0
14:59:18:398716,3,6,15,-4,-18,-2,0,0
14:59:18:406898,10,4,2,1,-4,-7,-7,-6
14:59:18:407739,10,4,2,1,-4,-7,-7,-6
14:59:18:421642,-8,6,26,2,-4,0,0,-4
14:59:18:429460,-8,6,26,2,-4,0,0,-4
14:59:18:430225,-6,-8,0,-14,-12,-8,-8,-2
14:59:18:452548,-51,1,-17,9,1,-1,10,1
14:59:18:453345,-51,1,-17,9,1,-1,10,1
14:59:18:454138,-11,-3,-7,-7,6,0,0,-4
14:59:18:458752,-2,5,17,-8,-11,1,5,-1
14:59:18:474966,-2,5,17,-8,-11,1,5,-1
14:59:18:475771,-23,2,-10,-4,6,-1,-5,-5
14:59:18:481279,1,-7,-11,-7,-2,-5,-4,8
14:59:18:489898,1,-7,-11,-7,-2,-5,-4,8
14:59:18:496950,-1,-7,-5,-9,-9,-1,-1,-1
14:59:18:497665,4,23,45,-5,9,8,-2,3
14:59:18:511925,4,23,45,-5,9,8,-2,3
14:59:18:512771,2,4,-1,-33,-29,0,5,-8
14:59:18:518727,5,-9,-15,24,34,-9,18,1
14:59:18:534493,5,-9,-15,24,34,-9,18,1
14:59:18:535270,15,22,14,16,20,20,13,8
14:59:18:541204,-16,-5,-9,-10,-6,-3,-8,-19
14:59:18:549507,-16,-5,-9,-10,-6,-3,-8,-19
14:59:18:550249,4,-17,-12,13,-10,-15,-13,-1
14:59:18:556229,9,-6,-11,-7,9,1,-14,-1
14:59:18:571949,9,-6,-11,-7,9,1,-14,-1
14:59:18:572746,43,0,-15,-28,-10,-3,-11,-11
14:59:18:578677,-2,-9,-6,16,15,-6,-6,4
14:59:18:594449,-2,-9,-6,16,15,-6,-6,4
14:59:18:595230,-7,8,10,14,9,-2,-5,-2
14:59:18:610064,-2,-17,-18,21,4,-8,-22,-10
14:59:18:610888,-2,-17,-18,21,4,-8,-22,-10
14:59:18:611670,-9,18,39,21,7,-3,4,3
14:59:18:616181,-7,0,1,12,21,14,9,3
14:59:18:632380,-7,0,1,12,21,14,9,3
14:59:18:633216,-3,-14,-14,15,11,7,1,3
14:59:18:638671,3,5,0,-27,-30,-5,-5,2
14:59:18:654866,3,5,0,-27,-30,-5,-5,2
14:59:18:655681,-2,-1,-2,-12,-9,0,11,3
14:59:18:661240,-10,-9,9,-30,11,0,4,-7
14:59:18:669387,-10,-9,9,-30,11,0,4,-7
14:59:18:670252,-19,3,15,15,4,1,15,7
14:59:18:676226,-1,-6,-6,25,-2,-3,-5,-5
14:59:18:691929,-1,-6,-6,25,-2,-3,-5,-5
14:59:18:692732,-5,-11,-16,-48,-9,5,1,-6
14:59:18:698732,15,8,3,-16,-48,-1,3,-1
14:59:18:714442,15,8,3,-16,-48,-1,3,-1
14:59:18:715256,-5,-5,-21,-5,-24,-2,-8,-4
14:59:18:721186,-3,0,7,27,30,-1,-12,-6
14:59:18:729468,-3,0,7,27,30,-1,-12,-6
14:59:18:730230,7,-1,0,-19,-2,5,-5,-1
14:59:18:736152,-29,-4,-7,5,-23,-4,-9,2
14:59:18:751977,-29,-4,-7,5,-23,-4,-9,2
14:59:18:752700,5,0,-9,-33,5,0,6,2
14:59:18:758707,3,-13,-3,-6,-7,7,13,8
14:59:18:774540,3,-13,-3,-6,-7,7,13,8
14:59:18:775280,4,10,7,18,-16,-3,-2,-10
14:59:18:781223,9,5,-10,-9,4,1,4,0
14:59:18:789832,9,5,-10,-9,4,1,4,0
14:59:18:796894,-4,-3,0,16,17,-5,2,-2
14:59:18:797733,-4,3,19,8,5,-8,-6,-6
14:59:18:811880,-4,3,19,8,5,-8,-6,-6
14:59:18:812673,11,-8,-6,12,-3,3,2,6
14:59:18:818695,-12,0,-6,-9,9,-4,-11,-1
14:59:18:834518,-12,0,-6,-9,9,-4,-11,-1
14:59:18:835210,12,-6,4,8,4,-12,-4,-8
14:59:18:841209,6,21,20,-27,-17,-5,-6,3
14:59:18:849393,6,21,20,-27,-17,-5,-6,3
14:59:18:850223,-11,-2,-14,11,3,4,7,1
14:59:18:856203,0,-10,-3,6,-6,-2,16,1
14:59:18:871956,0,-10,-3,6,-6,-2,16,1
14:59:18:872752,-5,-12,4,-18,-21,-1,-16,1
14:59:18:878684,1,-9,-30,-21,-8,-4,2,0
14:59:18:894419,1,-9,-30,-21,-8,-4,2,0
14:59:18:895227,8,14,38,14,21,7,9,5
14:59:18:901178,-9,-5,-24,-15,-12,-8,-14,-5
14:59:18:909452,-9,-5,-24,-15,-12,-8,-14,-5
14:59:18:910214,-11,1,-1,-9,-7,1,-12,-7
14:59:18:923690,-6,12,23,-11,4,2,-1,1
14:59:18:931953,-6,12,23,-11,4,2,-1,1
14:59:18:932775,-2,-5,-14,-15,-11,-5,8,-1
14:59:18:938698,4,-5,-4,21,18,11,18,2
14:59:18:954913,4,-5,-4,21,18,11,18,2
14:59:18:955668,-17,-8,-23,3,7,0,-6,-4
14:59:18:961234,-4,-19,-9,5,-10,-6,1,1
14:59:18:985091,-4,-19,-9,5,-10,-6,1,1
14:59:18:985875,24,10,9,0,-12,-6,9,4
14:59:18:986642,11,10,8,8,0,-3,-3,-1
14:59:19:8287,11,10,8,8,0,-3,-3,-1
14:59:19:9147,-15,-14,-20,0,16,-7,-11,-1
14:59:19:9850,5,2,-7,-21,6,13,13,6
14:59:19:10656,5,2,-7,-21,6,13,13,6
14:59:19:21853,-30,2,-4,-36,-8,-1,-15,-8
14:59:19:22635,-2,5,8,15,-21,-2,1,-5
14:59:19:29464,-2,5,8,15,-21,-2,1,-5
14:59:19:30255,0,-16,-15,21,25,-7,-1,1
14:59:19:43771,-5,10,8,-2,24,4,-19,2
14:59:19:51917,-5,10,8,-2,24,4,-19,2
14:59:19:52749,-10,-15,-4,21,-19,-8,-6,3
14:59:19:58724,-12,6,20,11,21,-11,-2,-7
14:59:19:74444,-12,6,20,11,21,-11,-2,-7
14:59:19:75232,8,0,-5,-1,7,-4,-1,-2
14:59:19:81175,-9,-8,-5,-6,-21,-1,-22,-3
14:59:19:89416,-9,-8,-5,-6,-21,-1,-22,-3
14:59:19:90208,3,7,9,-5,-21,-4,6,-2
14:59:19:103771,5,11,7,31,18,8,-3,-3
14:59:19:111904,5,11,7,31,18,8,-3,-3
14:59:19:112758,2,-1,4,13,-19,-7,0,-2
14:59:19:118689,1,-17,-15,-22,-14,-1,-4,-1
14:59:19:126279,1,-17,-15,-22,-14,-1,-4,-1
14:59:19:133680,22,6,-6,-1,-1,5,3,-1
14:59:19:141253,25,-2,-7,5,9,6,6,2
14:59:19:149473,25,-2,-7,5,9,6,6,2
14:59:19:150227,-16,-4,22,19,-22,-8,-2,-1
14:59:19:172523,-3,-10,-2,3,7,-4,-14,-2
14:59:19:173356,-3,-10,-2,3,7,-4,-14,-2
14:59:19:174147,-9,3,16,8,20,4,5,-2
14:59:19:178725,-13,4,-5,3,8,-3,8,2
14:59:19:186261,-13,4,-5,3,8,-3,8,2
14:59:19:193714,-5,6,9,-2,1,5,-3,-2
14:59:19:201255,6,-5,-23,-19,-14,-6,-1,2
14:59:19:209457,6,-5,-23,-19,-14,-6,-1,2
14:59:19:210243,3,2,10,12,-10,-2,6,5
14:59:19:223727,5,-5,5,-8,-15,-4,0,-8
14:59:19:231947,5,-5,5,-8,-15,-4,0,-8
14:59:19:232755,3,-9,-12,-15,16,6,-9,-9
14:59:19:238683,-2,1,2,-5,17,7,10,1
14:59:19:254431,-2,1,2,-5,17,7,10,1
14:59:19:255172,20,0,-10,-4,12,10,7,8
14:59:19:261236,-6,1,-8,-42,-10,-9,-2,0
14:59:19:285131,-6,1,-8,-42,-10,-9,-2,0
14:59:19:285873,-9,0,5,13,17,-3,5,0
14:59:19:286654,22,4,14,13,16,2,0,3
14:59:19:300203,22,4,14,13,16,2,0,3
14:59:19:300873,-3,-5,-12,-2,8,-6,5,-1
14:59:19:301690,-9,-14,-8,28,6,7,1,-3
14:59:19:306271,-9,-14,-8,28,6,7,1,-3
14:59:19:313718,-6,12,19,19,-9,-1,-1,-8
14:59:19:321200,10,6,17,0,-27,1,3,0
14:59:19:329482,10,6,17,0,-27,1,3,0
14:59:19:330266,-5,-1,-4,9,-14,1,-4,-4
14:59:19:343692,-9,-20,-38,0,-7,-9,-4,-6
14:59:19:352304,-9,-20,-38,0,-7,-9,-4,-6
14:59:19:359379,4,15,34,23,16,8,2,3
14:59:19:360171,2,-9,-13,5,6,-7,-2,0
14:59:19:366268,2,-9,-13,5,6,-7,-2,0
14:59:19:373723,-7,8,-18,-25,-25,-7,2,1
14:59:19:381218,24,6,12,13,3,-3,5,-1
14:59:19:389413,24,6,12,13,3,-3,5,-1
14:59:19:390187,-3,-5,-8,-13,-14,1,-9,-2
14:59:19:403721,-16,8,5,-4,-16,4,-2,0
14:59:19:412022,-16,8,5,-4,-16,4,-2,0
14:59:19:412801,9,-5,2,8,0,-8,-2,-1
14:59:19:418703,-9,9,18,-62,-32,3,6,2
14:59:19:426257,-9,9,18,-62,-32,3,6,2
14:59:19:433787,-27,-13,-21,-34,-7,-4,2,-8
14:59:19:441222,-3,2,16,26,3,-3,5,-1
14:59:19:449414,-3,2,16,26,3,-3,5,-1
14:59:19:450205,-5,-7,-18,-14,4,5,-9,-2
14:59:19:463776,-22,-8,-12,-9,-17,-1,1,1
14:59:19:471897,-22,-8,-12,-9,-17,-1,1,1
14:59:19:472690,-21,12,8,27,12,-1,-4,-1
14:59:19:486886,-4,-8,0,26,18,3,-3,0
14:59:19:487718,-4,-8,0,26,18,3,-3,0
14:59:19:493721,9,-4,-8,-4,3,-4,-7,1
14:59:19:501237,-1,-2,-25,18,16,5,8,0
14:59:19:509431,-1,-2,-25,18,16,5,8,0
14:59:19:510196,11,-1,12,13,19,0,-4,-3
14:59:19:540775,-2,-9,-5,6,2,8,15,5
14:59:19:541524,-2,-9,-5,6,2,8,15,5
14:59:19:542336,2,-8,5,10,8,-5,-3,-1
14:59:19:543153,14,4,20,14,5,-3,-9,-4
14:59:19:546264,14,4,20,14,5,-3,-9,-4
14:59:19:561910,5,6,5,1,-2,8,0,5
14:59:19:562684,-32,-2,-19,-2,15,-7,-18,0
14:59:19:576875,-32,-2,-19,-2,15,-7,-18,0
14:59:19:577694,11,-4,1,3,-3,3,2,4
14:59:19:583723,1,13,5,-33,-2,-15,-6,0
14:59:19:592359,1,13,5,-33,-2,-15,-6,0
14:59:19:599333,1,-3,12,-3,-24,1,-12,-2
14:59:19:600153,-15,2,1,-6,-1,2,-4,-7
14:59:19:606230,-15,2,1,-6,-1,2,-4,-7
14:59:19:613674,-1,0,-5,11,5,-7,-8,-1
14:59:19:621164,3,-5,-6,-20,-16,0,4,-5
14:59:19:629517,3,-5,-6,-20,-16,0,4,-5
14:59:19:630252,23,8,8,-12,-19,-1,-10,1
14:59:19:643666,-11,-12,-12,-7,-14,-2,2,-5
14:59:19:651956,-11,-12,-12,-7,-14,-2,2,-5
14:59:19:652720,4,-4,-3,-18,1,-2,6,-4
14:59:19:658670,8,-17,-1,10,-9,1,0,-4
14:59:19:666272,8,-17,-1,10,-9,1,0,-4
14:59:19:673728,-13,7,-1,-11,-25,2,8,1
14:59:19:681180,0,-1,11,24,40,10,9,4
14:59:19:689422,0,-1,11,24,40,10,9,4
14:59:19:690252,11,2,-2,-5,26,-2,11,-3
14:59:19:703687,-15,-7,-9,3,1,5,-3,-6
14:59:19:720070,-15,-7,-9,3,1,5,-3,-6
14:59:19:720874,9,-7,-19,-8,11,0,7,7
14:59:19:721660,32,11,-9,-2,-5,-13,-30,-3
14:59:19:726257,32,11,-9,-2,-5,-13,-30,-3
14:59:19:733765,-16,1,11,7,21,5,1,0
14:59:19:741197,5,2,-8,-26,-3,-4,-5,2
14:59:19:749502,5,2,-8,-26,-3,-4,-5,2
14:59:19:750276,16,2,6,4,-5,0,5,2
14:59:19:763714,-2,0,0,-8,5,3,1,-1
14:59:19:780149,-2,0,0,-8,5,3,1,-1
14:59:19:780904,-20,-11,-21,20,-10,6,4,-1
14:59:19:781717,-6,6,19,12,-9,-2,9,1
14:59:19:786307,-6,6,19,12,-9,-2,9,1
14:59:19:818340,-6,-17,-25,-27,-8,-7,-9,-7
14:59:19:819040,42,1,7,3,-5,4,-7,6
14:59:19:819841,42,1,7,3,-5,4,-7,6
14:59:19:820668,17,5,-11,-1,7,-6,4,-4
14:59:19:832567,13,-9,-9,-16,-13,-9,7,0
14:59:19:833392,13,-9,-9,-16,-13,-9,7,0
14:59:19:834179,-11,8,2,-13,-8,3,-4,-1
14:59:19:855158,-19,-4,6,31,40,-5,11,-4
14:59:19:855896,-19,-4,6,31,40,-5,11,-4
14:59:19:856703,-4,-10,-7,-6,-4,-5,-4,-4
14:59:19:869791,-16,-3,-12,-32,-25,4,-5,-6
14:59:19:876977,-16,-3,-12,-32,-25,4,-5,-6
14:59:19:877764,-6,1,4,-10,3,-5,-5,-1
14:59:19:883754,-5,3,-1,-13,-13,8,14,3
14:59:19:891969,-5,3,-1,-13,-13,8,14,3
14:59:19:892749,-23,4,18,28,-2,-6,-6,-1
14:59:19:906959,-18,-5,-14,3,-7,-2,-13,0
14:59:19:907787,-18,-5,-14,3,-7,-2,-13,0
14:59:19:913744,-25,-5,4,-8,12,-3,-2,-2
14:59:19:921231,-8,-3,-9,-2,-18,-6,-10,-2
14:59:19:928763,-8,-3,-9,-2,-18,-6,-10,-2
14:59:19:936212,7,-3,11,16,-1,-11,-11,1
14:59:19:943741,6,14,15,5,2,5,1,-4
14:59:19:951902,6,14,15,5,2,5,1,-4
14:59:19:952681,5,-9,-22,-18,-11,-8,-6,-5
14:59:19:967361,-13,14,14,16,7,3,6,-2
14:59:19:968176,-13,14,14,16,7,3,6,-2
14:59:19:973725,-20,-18,-14,-10,-12,-5,-4,5
14:59:19:981220,-19,-14,1,-6,2,-10,-5,-2
14:59:19:988743,-19,-14,1,-6,2,-10,-5,-2
14:59:19:996278,-6,-2,3,4,5,3,6,-2
14:59:20:3714,17,-1,-3,-5,-17,-5,-4,3
14:59:20:19409,17,-1,-3,-5,-17,-5,-4,3
14:59:20:20213,5,3,-7,-3,-2,-3,-8,-7
14:59:20:26610,-3,-3,-1,2,-2,6,-2,-3
14:59:20:34192,-3,-3,-1,2,-2,6,-2,-3
14:59:20:41868,14,9,11,-23,-2,0,-3,2
14:59:20:42652,1,-1,23,-3,-12,-7,-3,0
14:59:20:48732,1,-1,23,-3,-12,-7,-3,0
14:59:20:64412,-10,0,-10,4,10,15,6,-4
14:59:20:65159,30,0,7,-1,1,7,13,9
14:59:20:71848,30,0,7,-1,1,7,13,9
14:59:20:72668,-21,-3,-18,1,-3,-6,-2,-7
14:59:20:95530,-14,5,4,-4,26,3,9,-3
14:59:20:96336,-14,5,4,-4,26,3,9,-3
14:59:20:97165,6,-2,-3,-12,6,-6,-4,-1
14:59:20:101232,-6,-6,-25,6,10,-5,2,-2
14:59:20:108786,-6,-6,-25,6,10,-5,2,-2
14:59:20:116203,11,14,14,-6,-9,-4,-4,1
14:59:20:132597,-6,-9,-4,20,-18,-7,-18,-12
14:59:20:133382,-6,-9,-4,20,-18,-7,-18,-12
14:59:20:134200,41,-3,6,7,-25,-7,3,-1
14:59:20:147332,7,-2,-11,1,10,-6,-19,-7
14:59:20:154417,7,-2,-11,1,10,-6,-19,-7
14:59:20:155235,22,0,-9,8,21,7,2,4
14:59:20:161183,17,-1,0,-13,-1,4,-1,2
14:59:20:176905,17,-1,0,-13,-1,4,-1,2
14:59:20:177731,-4,6,13,5,10,-1,-4,-5
14:59:20:183685,8,-5,-17,2,7,2,10,-4
14:59:20:191905,8,-5,-17,2,7,2,10,-4
14:59:20:192689,-11,-3,-18,-8,-12,2,0,-4
14:59:20:206936,-5,-2,5,4,7,0,-7,2
14:59:20:207715,-5,-2,5,4,7,0,-7,2
14:59:20:213667,16,3,18,-15,-16,8,24,9
14:59:20:221174,-10,12,27,42,14,-2,-2,4
14:59:20:228793,-10,12,27,42,14,-2,-2,4
14:59:20:236170,-32,-14,-11,-4,22,-2,7,-5
14:59:20:243692,-29,13,-5,-17,-5,-3,2,-1
14:59:20:251984,-29,13,-5,-17,-5,-3,2,-1
14:59:20:252713,-22,-2,13,9,11,8,-8,-6
14:59:20:275085,-5,-19,-22,-19,-18,-7,-2,-4
14:59:20:275911,-5,-19,-22,-19,-18,-7,-2,-4
14:59:20:276675,15,-5,28,4,-19,4,5,4
14:59:20:281192,12,8,15,26,20,0,0,12
14:59:20:305186,12,8,15,26,20,0,0,12
14:59:20:305904,-4,-8,-23,23,-1,-14,-23,-6
14:59:20:306722,-2,4,11,8,-11,1,4,6
14:59:20:311920,-2,4,11,8,-11,1,4,6
14:59:20:312686,-15,-9,-17,0,1,-8,-4,-11
14:59:20:326927,-30,-7,-15,-12,10,-5,-7,4
14:59:20:327761,-30,-7,-15,-12,10,-5,-7,4
14:59:20:333704,2,8,-4,-12,-4,14,4,6
14:59:20:341217,24,-20,-29,-21,3,-10,-14,-10
14:59:20:348814,24,-20,-29,-21,3,-10,-14,-10
14:59:20:356232,16,0,4,-8,-2,-7,-14,-1
14:59:20:372557,6,-6,-7,2,20,9,2,-3
14:59:20:373408,6,-6,-7,2,20,9,2,-3
14:59:20:374201,5,12,8,14,10,7,6,-4
14:59:20:386933,14,9,4,7,-8,12,-7,-14
14:59:20:387739,14,9,4,7,-8,12,-7,-14
14:59:20:393712,-12,-3,0,1,-1,10,9,-6
14:59:20:401263,-2,-1,-3,3,-14,2,7,-2
14:59:20:408774,-2,-1,-3,3,-14,2,7,-2
14:59:20:416227,-11,-6,17,15,-10,-12,-12,-2
14:59:20:423724,24,2,0,-17,-20,-10,-1,4
14:59:20:431877,24,2,0,-17,-20,-10,-1,4
14:59:20:432663,5,-2,-11,-13,-27,-6,-6,5
14:59:20:446908,18,4,17,7,-16,-4,12,-3
14:59:20:447713,18,4,17,7,-16,-4,12,-3
14:59:20:453699,2,-5,-3,-40,6,-3,12,3
14:59:20:461205,-30,-3,-11,-10,-14,0,9,-2
14:59:20:468708,-30,-3,-11,-10,-14,0,9,-2
14:59:20:476281,1,0,-14,3,15,2,1,0
14:59:20:483720,-3,0,0,-27,5,-4,0,1
14:59:20:491923,-3,0,0,-27,5,-4,0,1
14:59:20:492698,-7,-6,-8,5,-30,-11,-8,-2
14:59:20:506915,-2,2,22,20,6,0,-1,-2
14:59:20:507696,-2,2,22,20,6,0,-1,-2
14:59:20:513737,-44,-20,-7,4,4,2,11,-2
14:59:20:521241,-17,6,14,11,4,1,-1,-3
14:59:20:528780,-17,6,14,11,4,1,-1,-3
14:59:20:536172,7,-2,1,-2,-23,-5,-9,-9
14:59:20:543695,-12,-1,5,-3,4,-3,-10,-5
14:59:20:551942,-12,-1,5,-3,4,-3,-10,-5
14:59:20:552702,3,4,5,8,17,2,3,-4
14:59:20:566886,10,1,-13,-2,3,8,11,7
14:59:20:567726,10,1,-13,-2,3,8,11,7
14:59:20:573675,1,-13,-6,-8,5,6,14,1
14:59:20:581167,12,13,34,14,-11,-14,1,5
14:59:20:605148,12,13,34,14,-11,-14,1,5
14:59:20:605880,-9,11,10,-16,-8,-6,-25,4
14:59:20:606682,-12,-14,-20,-12,-17,-1,-10,-2
14:59:20:611913,-12,-14,-20,-12,-17,-1,-10,-2
14:59:20:612704,14,6,7,5,3,0,2,6
14:59:20:627441,21,-6,-15,-18,-20,-1,-4,-1
14:59:20:628217,21,-6,-15,-18,-20,-1,-4,-1
14:59:20:633687,9,2,-17,-14,10,5,-1,-4
14:59:20:641192,-16,-2,-8,-1,19,4,1,-3
14:59:20:648807,-16,-2,-8,-1,19,4,1,-3
14:59:20:656226,8,3,6,3,6,-1,0,2
14:59:20:663730,-1,2,-6,9,19,-5,5,-2
14:59:20:671876,-1,2,-6,9,19,-5,5,-2
14:59:20:672713,-8,-11,-24,-7,17,6,0,-1
14:59:20:686883,6,5,5,3,6,-1,-7,-4
14:59:20:687691,6,5,5,3,6,-1,-7,-4
14:59:20:693706,10,3,2,1,-14,-10,2,0
14:59:20:701267,-4,-6,-1,-3,1,0,-2,2
14:59:20:708773,-4,-6,-1,-3,1,0,-2,2
14:59:20:716249,3,0,0,4,3,-2,1,2
14:59:20:723744,-12,-10,-20,-17,4,2,-10,-5
14:59:20:731920,-12,-10,-20,-17,4,2,-10,-5
14:59:20:732711,5,8,27,16,0,3,1,7
14:59:20:746891,-6,9,17,18,-7,-3,5,-3
14:59:20:747713,-6,9,17,18,-7,-3,5,-3
14:59:20:753652,-8,-8,-17,3,-14,-6,2,-10
14:59:20:761221,5,6,16,24,-5,11,12,9
14:59:20:768708,5,6,16,24,-5,11,12,9
14:59:20:776205,-13,4,5,3,12,-4,-1,-7
14:59:20:783731,12,-9,-17,-13,2,1,7,0
14:59:20:791306,12,-9,-17,-13,2,1,7,0
14:59:20:798691,12,1,-6,-1,3,-9,2,0
14:59:20:815058,-31,-4,-13,-29,-22,-15,-35,0
14:59:20:815890,-31,-4,-13,-29,-22,-15,-35,0
14:59:20:816685,-13,-10,-17,-3,3,5,-5,-1
14:59:20:837966,1,-6,-6,6,5,-6,-3,-3
14:59:20:838780,1,-6,-6,6,5,-6,-3,-3
14:59:20:839631,16,-5,13,-9,-7,6,-3,0
14:59:20:843684,-1,8,15,2,-1,2,0,-5
14:59:20:851268,-1,8,15,2,-1,2,0,-5
14:59:20:858684,5,0,-4,7,4,0,-1,2
14:59:20:867333,0,-6,-8,-4,-9,-6,7,5
14:59:20:874425,0,-6,-8,-4,-9,-6,7,5
14:59:20:875214,-10,11,15,8,-21,6,14,-2
14:59:20:889358,-14,-1,8,-10,-17,0,-9,-1
14:59:20:890165,-14,-1,8,-10,-17,0,-9,-1
14:59:20:896227,-14,-9,-6,13,-1,-2,-7,-2
14:59:20:903700,6,4,0,-22,-8,-2,5,6
14:59:20:911225,6,4,0,-22,-8,-2,5,6
14:59:20:927554,10,6,4,-9,-23,-1,-9,-7
14:59:20:928322,12,-7,-9,12,-12,-5,-9,-3
14:59:20:929186,12,-7,-9,12,-12,-5,-9,-3
14:59:20:933722,-3,2,-13,-10,7,2,3,-1
14:59:20:949388,1,6,27,24,4,6,-2,3
14:59:20:950166,1,6,27,24,4,6,-2,3
14:59:20:956203,-2,-5,-13,4,-6,-4,-18,2
14:59:20:963767,-6,-2,-11,-1,27,17,3,-9
14:59:20:971263,-6,-2,-11,-1,27,17,3,-9
14:59:20:978713,46,0,-4,-2,5,-8,-8,-2
14:59:20:986858,8,-8,-10,10,-5,-10,-15,1
14:59:20:987673,8,-8,-10,10,-5,-10,-15,1
14:59:20:993657,-14,0,8,11,-1,-2,10,-1
14:59:21:9393,-12,-11,1,7,11,-2,15,-6
14:59:21:10184,-12,-11,1,7,11,-2,15,-6
14:59:21:16155,2,12,12,13,16,1,-8,1
14:59:21:23750,4,3,0,-1,7,6,0,5
14:59:21:31231,4,3,0,-1,7,6,0,5
14:59:21:38674,-15,-12,-15,4,18,9,6,-6
14:59:21:46906,10,0,-11,-8,0,-11,5,1
14:59:21:47696,10,0,-11,-8,0,-11,5,1
14:59:21:53671,-1,5,-1,-19,-8,7,-11,2
14:59:21:69399,-2,-7,-22,-26,-6,-1,1,-5
14:59:21:70185,-2,-7,-22,-26,-6,-1,1,-5
14:59:21:76169,-6,-2,13,6,11,-5,-13,-1
14:59:21:91897,2,1,-5,-28,-28,-2,1,2
14:59:21:92719,2,1,-5,-28,-28,-2,1,2
14:59:21:98673,-6,-9,-14,-7,0,4,11,-2
14:59:21:115055,-27,5,-1,-5,8,1,1,-7
14:59:21:115862,-27,5,-1,-5,8,1,1,-7
14:59:21:116672,1,-8,-22,-9,-1,-4,-6,2
14:59:21:137566,-14,5,20,-24,-1,8,15,-1
14:59:21:138374,-14,5,20,-24,-1,8,15,-1
14:59:21:139180,-8,24,24,-12,1,-5,7,7
14:59:21:143696,1,-9,-26,-18,-2,-6,-3,-7
14:59:21:159465,1,-9,-26,-18,-2,-6,-3,-7
14:59:21:160201,-6,-6,21,8,8,3,-8,-2
14:59:21:166913,-14,-6,-11,3,5,-8,-4,-3
14:59:21:167750,-14,-6,-11,3,5,-8,-4,-3
14:59:21:181192,4,5,-1,16,11,-14,-7,-2
14:59:21:189356,1,-7,6,44,17,-2,-9,-2
14:59:21:190245,1,-7,6,44,17,-2,-9,-2
14:59:21:196178,0,1,13,17,-4,-3,-4,-1
14:59:21:203649,18,10,-3,15,22,11,-2,3
14:59:21:211300,18,10,-3,15,22,11,-2,3
14:59:21:218722,5,-1,-10,-15,-13,12,10,1
14:59:21:226835,36,-1,-5,-13,-10,-13,-24,2
14:59:21:227688,36,-1,-5,-13,-10,-13,-24,2
14:59:21:233707,-10,-7,-8,-8,-1,2,12,0
14:59:21:249427,13,7,8,-7,-16,-17,-7,1
14:59:21:250220,13,7,8,-7,-16,-17,-7,1
14:59:21:256235,-5,-13,-19,-10,-18,-13,-14,-7
14:59:21:263770,-12,1,17,16,22,9,2,-5
14:59:21:271295,-12,1,17,16,22,9,2,-5
14:59:21:278720,-1,3,-2,8,-1,-3,2,-2
14:59:21:286922,-4,-5,4,6,-19,4,4,-3
14:59:21:287731,-4,-5,4,6,-19,4,4,-3
14:59:21:293699,7,3,5,-12,4,-3,3,5
14:59:21:309411,-5,-8,0,6,-8,-3,-1,-2
14:59:21:310213,-5,-8,0,6,-8,-3,-1,-2
14:59:21:316247,-7,3,-8,-9,-3,-5,-2,-2
14:59:21:323762,-10,-5,-5,17,7,-2,-4,0
14:59:21:331244,-10,-5,-5,17,7,-2,-4,0
14:59:21:347568,-3,-2,9,1,-43,-3,2,-4
14:59:21:348354,4,-8,-14,-6,1,7,10,0
14:59:21:349184,4,-8,-14,-6,1,7,10,0
14:59:21:353700,17,6,29,36,16,-1,14,-1
14:59:21:369811,11,11,4,27,12,-1,-5,1
14:59:21:370651,11,11,4,27,12,-1,-5,1
14:59:21:376241,1,-11,-14,-28,-2,-3,-9,-2
14:59:21:391929,18,10,28,-14,-24,-4,0,1
14:59:21:392761,18,10,28,-14,-24,-4,0,1
14:59:21:398697,-9,-8,-14,-1,21,7,9,-1
14:59:21:415069,-18,-6,-17,-4,13,-6,-7,-6
14:59:21:415872,-18,-6,-17,-4,13,-6,-7,-6
14:59:21:416710,-1,-10,-4,-9,-17,13,2,0
14:59:21:437515,0,3,-3,-15,-13,-3,-2,3
14:59:21:438352,0,3,-3,-15,-13,-3,-2,3
14:59:21:439170,-22,9,-13,-10,1,9,1,7
14:59:21:443708,-9,6,12,-4,11,-2,14,-3
14:59:21:459502,-9,6,12,-4,11,-2,14,-3
14:59:21:460253,-11,-12,-10,-6,-19,-7,-11,-5
14:59:21:466872,-1,-10,-9,11,16,-2,-5,0
14:59:21:467679,-1,-10,-9,11,16,-2,-5,0
14:59:21:473709,14,0,6,7,14,-1,4,1
14:59:21:489372,-4,1,-3,8,-24,-2,3,-6
14:59:21:490168,-4,1,-3,8,-24,-2,3,-6
14:59:21:496200,-19,-2,-3,10,-2,-4,-1,-3
14:59:21:503684,1,1,5,-11,4,6,3,2
14:59:21:511227,1,1,5,-11,4,6,3,2
14:59:21:518703,2,0,-6,7,-12,4,-3,1
14:59:21:526875,-5,-4,11,10,16,2,-10,-6
14:59:21:527703,-5,-4,11,10,16,2,-10,-6
14:59:21:533678,-7,-8,-15,-12,-6,-5,-6,-9
14:59:21:549366,-2,-1,9,30,7,-10,-35,-2
14:59:21:550197,-2,-1,9,30,7,-10,-35,-2
14:59:21:556150,-59,4,17,14,8,-6,0,-9
14:59:21:563742,12,-6,-18,-12,-8,10,13,1
14:59:21:571245,12,-6,-18,-12,-8,10,13,1
14:59:21:578693,21,-6,-9,-6,4,-12,-10,-2
14:59:21:586915,-18,-3,-5,-14,-6,-6,1,1
14:59:21:587712,-18,-3,-5,-14,-6,-6,1,1
14:59:21:593703,21,14,26,10,23,4,14,7
14:59:21:609437,6,5,10,6,3,-1,11,3
14:59:21:610271,6,5,10,6,3,-1,11,3
14:59:21:616244,7,-3,4,30,29,-7,-15,2
14:59:21:623734,0,-6,7,-12,2,2,-2,-7
14:59:21:631330,0,-6,7,-12,2,2,-2,-7
14:59:21:647568,3,0,6,10,2,10,7,-3
14:59:21:648363,-12,-13,-15,-16,-20,-3,7,-2
14:59:21:649179,-12,-13,-15,-16,-20,-3,7,-2
14:59:21:653671,13,0,-10,-7,21,2,-4,1
14:59:21:669812,-5,-19,-14,-19,-4,3,-4,8
14:59:21:670645,-5,-19,-14,-19,-4,3,-4,8
14:59:21:676203,-4,25,38,-8,-21,6,7,-6
14:59:21:716454,1,-10,-10,4,-17,-5,-16,-3
14:59:21:717240,1,-10,-10,4,-17,-5,-16,-3
14:59:21:718028,11,-17,-12,2,-9,-5,1,-3
14:59:21:718871,1,11,19,7,5,3,11,8
14:59:21:721863,1,11,19,7,5,3,11,8
14:59:21:722716,-3,-7,-24,-23,7,-4,1,-2
14:59:21:737560,2,6,-14,-24,-23,-9,-12,-4
14:59:21:738376,2,6,-14,-24,-23,-9,-12,-4
14:59:21:739147,1,-3,-12,-3,-16,6,13,4
14:59:21:751976,0,14,15,22,3,10,1,-5
14:59:21:752693,0,14,15,22,3,10,1,-5
14:59:21:758764,1,-2,-20,-18,-5,1,13,-4
14:59:21:766891,-5,-11,-2,-28,-41,-8,-4,-6
14:59:21:767779,-5,-11,-2,-28,-41,-8,-4,-6
14:59:21:781275,18,2,17,-8,-34,-21,-12,3
14:59:21:789421,18,2,17,-8,-34,-21,-12,3
14:59:21:790211,49,7,2,-6,17,-11,-9,-2
14:59:21:796222,11,-2,-2,-13,-8,9,-14,2
14:59:21:811990,11,-2,-2,-13,-8,9,-14,2
14:59:21:812735,-7,1,-4,16,17,-2,-14,-5
14:59:21:818737,-1,-5,-13,-2,1,1,-1,1
14:59:21:826875,-1,-5,-13,-2,1,1,-1,1
14:59:21:827708,-16,-19,-17,7,23,11,21,0
14:59:21:841188,-5,19,14,-41,-21,-11,5,0
14:59:21:849415,-5,19,14,-41,-21,-11,5,0
14:59:21:850237,-4,-9,-7,-1,12,2,1,-3
14:59:21:856243,-11,-5,-2,19,10,10,7,0
14:59:21:871736,-11,-5,-2,19,10,10,7,0
14:59:21:879400,-8,3,-27,0,-2,0,11,-2
14:59:21:880217,-65,0,6,7,14,-2,-12,-12
14:59:21:886902,-65,0,6,7,14,-2,-12,-12
14:59:21:887708,-11,-6,-2,-8,4,0,9,2
14:59:21:901674,14,-9,-14,-1,-14,-21,-2,-4
14:59:21:909447,14,-9,-14,-1,-14,-21,-2,-4
14:59:21:910240,-14,4,4,-18,-21,-5,-6,-5
14:59:21:923717,-15,-2,9,-15,-8,-2,-3,-3
14:59:21:932370,-15,-2,9,-15,-8,-2,-3,-3
14:59:21:948223,15,4,-6,3,5,-2,-2,5
14:59:21:949039,8,-9,-12,11,1,-1,-5,-3
14:59:21:949860,8,-9,-12,11,1,-1,-5,-3
14:59:21:950661,4,6,12,-23,-11,2,5,2
14:59:21:961217,7,-14,-18,1,4,0,0,-3
14:59:21:969422,7,-14,-18,1,4,0,0,-3
14:59:21:970207,6,5,13,17,29,-10,-3,5
14:59:21:976203,15,6,7,-2,16,5,8,7
14:59:21:992447,15,6,7,-2,16,5,8,7
14:59:21:993207,1,2,-8,-24,-4,-3,-13,-5
14:59:21:998729,30,-2,-1,4,-5,9,13,-1
14:59:22:14496,30,-2,-1,4,-5,9,13,-1
14:59:22:15277,-8,-12,-16,-21,-9,-1,-3,-8
14:59:22:21219,-2,8,17,-14,1,3,-9,4
14:59:22:29431,-2,8,17,-14,1,3,-9,4
14:59:22:30222,-1,8,2,21,-5,-4,0,1
14:59:22:36216,-1,-12,-1,7,1,-4,-10,-3
14:59:22:51976,-1,-12,-1,7,1,-4,-10,-3
14:59:22:52773,-10,-11,-4,2,3,11,1,-1
14:59:22:58729,7,-2,-3,9,-6,-9,-11,3
14:59:22:66991,7,-2,-3,9,-6,-9,-11,3
14:59:22:67702,-3,1,-1,-1,-48,5,6,-1
14:59:22:81200,-8,4,6,4,5,-5,-8,-4
14:59:22:89376,-8,4,6,4,5,-5,-8,-4
14:59:22:90192,4,6,11,-11,-5,7,13,-1
14:59:22:96227,3,-3,0,-14,2,-2,-10,-3
14:59:22:111938,3,-3,0,-14,2,-2,-10,-3
14:59:22:112756,-1,-2,3,1,5,-5,-7,0
14:59:22:118675,-12,-9,-23,0,16,9,11,-11
14:59:22:126885,-12,-9,-23,0,16,9,11,-11
14:59:22:127718,-31,-8,3,19,-16,-10,-9,-13
14:59:22:141217,-7,15,15,7,-27,-10,7,5
14:59:22:149453,-7,15,15,7,-27,-10,7,5
14:59:22:150256,14,11,16,-11,-10,-13,1,5
14:59:22:156249,-41,-6,-11,9,8,1,3,-3
14:59:22:171908,-41,-6,-11,9,8,1,3,-3
14:59:22:172702,-6,-1,-14,-8,5,4,-4,-1
14:59:22:178723,4,3,-1,-11,-16,-1,-2,5
14:59:22:186932,4,3,-1,-11,-16,-1,-2,5
14:59:22:187727,-5,-4,-8,6,18,0,3,0
14:59:22:201213,20,6,-5,12,-1,-8,-7,-5
14:59:22:209410,20,6,-5,12,-1,-8,-7,-5
14:59:22:210230,5,-6,-13,4,24,10,9,1
14:59:22:216186,6,4,14,9,12,7,5,3
14:59:22:231923,6,4,14,9,12,7,5,3
14:59:22:232711,18,-2,0,7,4,-6,-5,-2
14:59:22:238685,-9,-5,15,1,5,0,-15,6
14:59:22:246923,-9,-5,15,1,5,0,-15,6
14:59:22:247740,-2,5,-2,-20,-16,6,10,9
14:59:22:261708,2,4,-4,-17,-8,1,5,-2
14:59:22:269438,2,4,-4,-17,-8,1,5,-2
14:59:22:270230,19,-10,-9,-8,1,-3,-5,-1
14:59:22:276210,-38,-12,-19,-2,6,-9,-10,-9
14:59:22:291948,-38,-12,-19,-2,6,-9,-10,-9
14:59:22:292731,1,0,13,18,12,2,0,0
14:59:22:298696,-6,-1,12,-8,-17,-1,1,3
14:59:22:306954,-6,-1,12,-8,-17,-1,1,3
14:59:22:307738,-17,-8,-2,12,-25,-22,-27,-7
14:59:22:321160,6,-11,-25,6,8,-5,-15,-5
14:59:22:329436,6,-11,-25,6,8,-5,-15,-5
14:59:22:330259,-16,3,24,-11,-6,14,11,0
14:59:22:336159,8,-4,0,14,12,4,-1,-3
14:59:22:351897,8,-4,0,14,12,4,-1,-3
14:59:22:352725,17,3,-3,12,20,3,4,4
14:59:22:358699,-9,2,-7,-21,1,2,-3,-1
14:59:22:366928,-9,2,-7,-21,1,2,-3,-1
14:59:22:367742,-2,0,-6,-7,-7,2,3,-5
14:59:22:381256,25,-1,14,13,-10,-7,-9,-5
14:59:22:389409,25,-1,14,13,-10,-7,-9,-5
14:59:22:390253,-7,-4,-9,-5,-2,-9,-12,-5
14:59:22:396178,11,-3,-19,-16,3,-8,6,2
14:59:22:411901,11,-3,-19,-16,3,-8,6,2
14:59:22:412663,-3,1,9,-6,0,-2,1,0
14:59:22:418724,19,7,27,-49,-21,9,12,5
14:59:22:426935,19,7,27,-49,-21,9,12,5
14:59:22:427710,2,2,-4,11,10,-15,-8,0
14:59:22:441270,0,-8,-5,23,3,1,5,-1
14:59:22:449387,0,-8,-5,23,3,1,5,-1
14:59:22:450185,-4,2,20,9,25,16,6,-3
14:59:22:456184,-42,5,-5,3,15,-4,-12,-11
14:59:22:471901,-42,5,-5,3,15,-4,-12,-11
14:59:22:472689,-3,2,-5,18,4,-9,-6,-12
14:59:22:478685,10,9,14,8,-4,2,-1,3
14:59:22:494439,10,9,14,8,-4,2,-1,3
14:59:22:495238,-15,-8,-13,-18,-12,-3,-4,2
14:59:22:510077,7,4,0,1,-13,2,27,3
14:59:22:510925,7,4,0,1,-13,2,27,3
14:59:22:511697,8,1,3,-3,-7,10,4,-1
14:59:22:516205,22,-1,-17,31,5,-2,-11,0
14:59:22:531691,22,-1,-17,31,5,-2,-11,0
14:59:22:539350,-1,-6,0,-4,6,-14,-9,-6
14:59:22:540145,-8,13,18,-15,-5,5,0,3
14:59:22:546998,-8,13,18,-15,-5,5,0,3
14:59:22:547727,-20,2,-10,-2,-6,6,6,8
14:59:22:561175,-6,-17,1,4,11,-3,-5,-1
14:59:22:569420,-6,-17,1,4,11,-3,-5,-1
14:59:22:570222,-11,-11,-5,-1,5,0,-10,1
14:59:22:576211,28,3,-14,-2,-8,-6,-14,-4
14:59:22:591913,28,3,-14,-2,-8,-6,-14,-4
14:59:22:592723,27,-2,-9,0,4,10,14,4
14:59:22:598649,-1,-4,2,-7,8,-5,-12,-13
14:59:22:606918,-1,-4,2,-7,8,-5,-12,-13
14:59:22:607709,5,-10,-30,-18,4,-1,-15,-3
14:59:22:621195,-3,6,16,-2,-15,7,14,-14
14:59:22:629399,-3,6,16,-2,-15,7,14,-14
14:59:22:630195,-23,-18,-7,-7,-4,-8,-5,4
14:59:22:636164,-26,-3,0,-1,-7,-8,6,1
14:59:22:651914,-26,-3,0,-1,-7,-8,6,1
14:59:22:652709,8,3,-2,8,2,6,11,6
14:59:22:658667,11,-10,0,15,-5,-10,-16,3
14:59:22:666247,11,-10,0,15,-5,-10,-16,3
14:59:22:673710,-5,14,23,10,-10,-2,7,0
14:59:22:681147,-6,5,4,-1,-16,5,4,4
14:59:22:689415,-6,5,4,-1,-16,5,4,4
14:59:22:690195,-6,3,-4,-14,-2,-6,-19,-5
14:59:22:703649,6,-7,-11,-4,-1,7,-12,0
14:59:22:711908,6,-7,-11,-4,-1,7,-12,0
14:59:22:712727,0,3,1,2,2,6,7,-9
14:59:22:718720,16,9,-9,5,-7,2,0,3
14:59:22:726285,16,9,-9,5,-7,2,0,3
14:59:22:733745,-2,-6,-3,-11,-5,-4,-5,-3
14:59:22:741211,-16,-1,-7,0,14,-3,6,-3
14:59:22:749438,-16,-1,-7,0,14,-3,6,-3
14:59:22:750235,-44,0,3,-1,7,6,12,2
14:59:22:763724,-3,-15,-21,3,12,-9,-9,3
14:59:22:771919,-3,-15,-21,3,12,-9,-9,3
14:59:22:772699,-8,2,11,35,9,-9,1,-3
14:59:22:778688,-5,7,-1,-2,7,6,13,1
14:59:22:786267,-5,7,-1,-2,7,6,13,1
14:59:22:793710,15,0,8,3,-20,-5,7,-2
14:59:22:801256,-29,-5,8,-11,3,0,4,-1
14:59:22:809397,-29,-5,8,-11,3,0,4,-1
14:59:22:810185,-1,13,3,-2,6,6,-5,-4
14:59:22:824226,-10,-13,-27,-21,3,-9,-18,1
14:59:22:831892,-10,-13,-27,-21,3,-9,-18,1
14:59:22:832689,7,4,8,-7,0,7,5,1
14:59:22:838758,-1,1,13,-24,-26,-1,4,-4
14:59:22:846253,-1,1,13,-24,-26,-1,4,-4
14:59:22:853631,40,0,-9,-13,-21,-12,-12,4
14:59:22:870019,-10,-1,-1,1,19,3,0,-4
14:59:22:870828,-10,-1,-1,1,19,3,0,-4
14:59:22:871649,15,-11,-19,-14,-6,-7,-3,-5
14:59:22:883723,10,-9,2,18,0,-2,4,-7
14:59:22:891876,10,-9,2,18,0,-2,4,-7
14:59:22:892665,1,-1,5,2,-2,-5,-1,4
14:59:22:898687,0,-10,-5,4,-4,-4,-8,-8
14:59:22:906247,0,-10,-5,4,-4,-4,-8,-8
14:59:22:913721,3,7,-1,8,11,5,-3,-4
14:59:22:921200,-4,10,10,7,-16,-13,3,0
14:59:22:929411,-4,10,10,7,-16,-13,3,0
14:59:22:930180,-7,4,-9,-9,2,-5,-4,2
14:59:22:943707,0,-7,-11,-30,-3,14,10,2
14:59:22:951876,0,-7,-11,-30,-3,14,10,2
14:59:22:952694,0,-4,3,20,10,0,-7,0
14:59:22:958701,10,1,2,-2,-4,6,8,2
14:59:22:966245,10,1,2,-2,-4,6,8,2
14:59:22:973640,-6,-1,4,12,-3,-15,-21,-7
14:59:22:981162,-45,-3,-8,9,26,1,-6,-2
14:59:22:989387,-45,-3,-8,9,26,1,-6,-2
14:59:22:990239,3,0,3,1,-7,3,8,-4
14:59:23:3728,31,-6,-2,-1,4,-8,-2,3
14:59:23:11888,31,-6,-2,-1,4,-8,-2,3
14:59:23:12692,-12,5,18,5,-1,-7,-2,-4
14:59:23:18678,-13,-3,0,-12,-14,0,-8,-1
14:59:23:26292,-13,-3,0,-12,-14,0,-8,-1
14:59:23:33715,-17,-1,-11,-30,-11,-4,6,0
14:59:23:50144,6,6,1,-12,-12,-18,-2,-2
14:59:23:50888,6,6,1,-12,-12,-18,-2,-2
14:59:23:51714,-4,-7,-3,-8,-26,7,12,1
14:59:23:63731,16,5,1,-14,-22,3,2,2
14:59:23:71872,16,5,1,-14,-22,3,2,2
14:59:23:72671,0,-9,-1,5,22,-4,1,-6
14:59:23:78691,-23,2,-16,6,6,7,-7,-2
14:59:23:95062,-23,2,-16,6,6,7,-7,-2
14:59:23:95887,3,-4,1,7,14,10,-1,-2
14:59:23:101180,4,-5,-2,2,18,0,-11,2
14:59:23:109443,4,-5,-2,2,18,0,-11,2
14:59:23:110211,-4,-7,-17,-4,-17,-6,-3,-1
14:59:23:123708,18,4,-2,-7,-2,2,7,3
14:59:23:131897,18,4,-2,-7,-2,2,7,3
14:59:23:132703,-8,-5,-3,13,4,2,-4,-3
14:59:23:138713,-6,-3,8,9,3,-2,7,-5
14:59:23:146200,-6,-3,8,9,3,-2,7,-5
14:59:23:153664,-2,-3,-21,-19,-1,-6,-22,-3
14:59:23:161166,5,5,2,3,13,3,10,5
14:59:23:169376,5,5,2,3,13,3,10,5
14:59:23:170166,9,6,13,13,-8,3,8,1
14:59:23:183723,9,-3,-1,-14,-14,-1,8,4
14:59:23:191950,9,-3,-1,-14,-14,-1,8,4
14:59:23:192689,11,-5,-5,1,-20,2,7,5
14:59:23:198678,-12,-10,5,13,-2,-5,-8,-10
14:59:23:206314,-12,-10,5,13,-2,-5,-8,-10
14:59:23:213653,-2,7,11,-1,2,4,1,-4
14:59:23:221161,5,-6,-5,3,-6,-3,-1,2
14:59:23:229518,5,-6,-5,3,-6,-3,-1,2
14:59:23:230220,1,0,-7,-4,28,-2,-1,1
14:59:23:243724,25,10,22,10,10,11,5,-1
14:59:23:251976,25,10,22,10,10,11,5,-1
14:59:23:252715,-21,0,3,-7,-10,-4,6,6
14:59:23:258712,11,-7,-28,8,-12,3,5,-1
14:59:23:266282,11,-7,-28,8,-12,3,5,-1
14:59:23:273706,12,3,9,0,-10,3,1,2
14:59:23:281228,-14,-2,2,12,1,-5,-4,1
14:59:23:289439,-14,-2,2,12,1,-5,-4,1
14:59:23:290247,-3,-9,-11,-4,31,-1,-1,-4
14:59:23:303669,-1,-1,-4,-8,-4,4,-14,-5
14:59:23:311915,-1,-1,-4,-8,-4,4,-14,-5
14:59:23:312732,-5,3,2,-12,-17,-4,-8,0
14:59:23:318711,-27,-7,-11,11,-2,-15,-1,-9
14:59:23:334454,-27,-7,-11,11,-2,-15,-1,-9
14:59:23:335267,5,6,8,17,20,7,2,3
14:59:23:341216,1,-11,-7,3,-6,3,-1,7
14:59:23:349417,1,-11,-7,3,-6,3,-1,7
14:59:23:350253,-22,12,12,20,-1,6,-1,-7
14:59:23:372588,21,9,4,12,7,6,11,4
14:59:23:373345,21,9,4,12,7,6,11,4
14:59:23:374199,18,-5,-11,-9,-19,-16,-6,0
14:59:23:378736,-5,1,6,13,17,-2,-12,-2
14:59:23:386267,-5,1,6,13,17,-2,-12,-2
14:59:23:393696,-3,-1,2,-33,-25,-6,7,-3
14:59:23:401163,-5,6,5,-7,18,5,3,0
14:59:23:409485,-5,6,5,-7,18,5,3,0
14:59:23:410226,41,-14,-6,7,3,4,-5,-3
14:59:23:423672,3,1,3,-10,21,-1,-11,-2
14:59:23:431942,3,1,3,-10,21,-1,-11,-2
14:59:23:432732,-10,-6,-20,-17,-5,-7,-7,-1
14:59:23:438695,-30,12,18,4,-8,0,-3,-7
14:59:23:446314,-30,12,18,4,-8,0,-3,-7
14:59:23:453643,-32,-18,-22,-2,10,-3,0,-3
14:59:23:461210,-4,12,16,11,-8,1,5,-6
14:59:23:469401,-4,12,16,11,-8,1,5,-6
14:59:23:470233,2,3,-10,-29,-24,2,10,-4
14:59:23:483696,1,-10,1,-42,-5,-6,0,1
14:59:23:491898,1,-10,1,-42,-5,-6,0,1
14:59:23:492738,6,-1,0,2,-15,1,0,2
14:59:23:506881,12,13,19,-6,-18,-2,18,9
14:59:23:507770,12,13,19,-6,-18,-2,18,9
14:59:23:513712,-2,6,11,-14,-4,0,-2,2
14:59:23:521235,-17,-7,-17,0,12,-1,-12,-4
14:59:23:529476,-17,-7,-17,0,12,-1,-12,-4
14:59:23:530303,2,4,11,-2,-8,5,12,0
14:59:23:543731,13,-12,-19,-12,-9,-4,-16,-2
14:59:23:551903,13,-12,-19,-12,-9,-4,-16,-2
14:59:23:552693,-38,-1,-10,-7,25,6,-6,-9
14:59:23:558725,19,3,15,26,-8,5,17,10
14:59:23:566282,19,3,15,26,-8,5,17,10
14:59:23:573735,8,-11,-16,11,-5,-2,4,3
14:59:23:581245,-4,18,11,10,-10,-6,-9,1
14:59:23:589452,-4,18,11,10,-10,-6,-9,1
14:59:23:590288,3,-2,5,5,9,1,2,-11
14:59:23:604146,8,-11,-14,-12,-11,-9,-12,-5
14:59:23:611992,8,-11,-14,-12,-11,-9,-12,-5
14:59:23:612727,1,-1,-4,-9,-18,-16,-23,-3
14:59:23:626914,-10,-13,-17,-1,14,15,3,-11
14:59:23:627759,-10,-13,-17,-1,14,15,3,-11
14:59:23:633735,-24,6,22,16,-1,4,6,4
14:59:23:641215,-13,-20,-5,-6,-24,-17,-23,-5
14:59:23:648788,-13,-20,-5,-6,-24,-17,-23,-5
14:59:23:656211,26,5,10,9,10,6,7,4
14:59:23:663759,-4,3,-2,13,9,6,17,1
14:59:23:671967,-4,3,-2,13,9,6,17,1
14:59:23:672726,-2,-8,-14,1,-8,-7,-10,-3
14:59:23:686945,6,1,6,-5,-14,10,23,-2
14:59:23:687720,6,1,6,-5,-14,10,23,-2
14:59:23:693722,10,0,-2,-3,10,-3,3,2
14:59:23:701254,9,0,-5,-21,-14,-8,-1,2
14:59:23:708785,9,0,-5,-21,-14,-8,-1,2
14:59:23:716242,0,-2,-3,7,25,1,-4,1
14:59:23:723717,-11,-1,2,15,13,0,1,-2
14:59:23:731884,-11,-1,2,15,13,0,1,-2
14:59:23:732709,24,-5,-5,-9,11,-2,1,3
14:59:23:746900,2,0,-9,8,9,-11,-3,-3
14:59:23:747657,2,0,-9,8,9,-11,-3,-3
14:59:23:753685,1,5,8,25,8,0,12,-4
14:59:23:761189,1,-3,-30,-54,-40,0,6,-3
14:59:23:768729,1,-3,-30,-54,-40,0,6,-3
14:59:23:784427,-6,-1,5,-8,2,-5,-15,-3
14:59:23:785193,-8,-3,4,17,-1,-3,-9,-1
14:59:23:792308,-8,-3,4,17,-1,-3,-9,-1
14:59:23:798725,-2,2,2,-1,-17,-5,-6,-1
14:59:23:806902,-1,-9,-12,-8,8,-3,-18,0
14:59:23:807711,-1,-9,-12,-8,8,-3,-18,0
14:59:23:813703,7,15,16,1,7,8,-1,2
14:59:23:821196,-4,-7,-9,9,39,-5,6,-4
14:59:23:828692,-4,-7,-9,9,39,-5,6,-4
14:59:23:836176,-5,1,12,-17,-9,0,-11,2
14:59:23:843674,-2,8,11,6,-6,-1,6,11
14:59:23:851944,-2,8,11,6,-6,-1,6,11
14:59:23:852767,-11,-11,-5,-6,-20,-3,7,-4
14:59:23:866932,3,6,4,4,-6,-9,-9,-1
14:59:23:867715,3,6,4,4,-6,-9,-9,-1
14:59:23:873731,-6,-2,-4,-8,-5,2,8,1
14:59:23:881206,-62,-2,-5,-3,-6,7,-6,-8
14:59:23:888759,-62,-2,-5,-3,-6,7,-6,-8
14:59:23:896224,-2,-1,-10,-2,16,-3,-1,-8
14:59:23:903663,26,6,13,-11,10,0,6,2
14:59:23:911905,26,6,13,-11,10,0,6,2
14:59:23:912728,-3,-9,-5,31,13,4,14,-3
14:59:23:927345,9,3,3,1,3,4,1,0
14:59:23:928183,9,3,3,1,3,4,1,0
14:59:23:933663,2,-5,-16,-41,-12,-2,-3,2
14:59:23:941198,4,-4,-8,-7,-9,8,25,-1
14:59:23:948752,4,-4,-8,-7,-9,8,25,-1
14:59:23:956181,1,1,-1,11,2,-7,-10,0
14:59:23:963702,10,-2,-3,-3,9,-6,-8,-7
14:59:23:971855,10,-2,-3,-3,9,-6,-8,-7
14:59:23:972661,-8,7,-4,-11,-6,-2,-6,-4
14:59:23:986923,28,4,14,23,6,0,-13,2
14:59:23:987690,28,4,14,23,6,0,-13,2
14:59:23:993697,1,-10,-20,-7,-7,-2,-16,-3
14:59:24:1221,-24,-9,-8,5,1,-1,-6,-4
14:59:24:8740,-24,-9,-8,5,1,-1,-6,-4
14:59:24:16237,1,10,25,21,8,3,4,3
14:59:24:23672,-2,-11,-9,10,8,-2,-3,1
14:59:24:31852,-2,-11,-9,10,8,-2,-3,1
14:59:24:32717,-7,-13,-13,-21,-6,-8,17,-7
14:59:24:46907,4,14,25,11,11,3,-18,-4
14:59:24:47645,4,14,25,11,11,3,-18,-4
14:59:24:53723,7,5,11,8,-6,-1,-5,0
14:59:24:61180,3,-16,-20,-17,-26,3,9,5
14:59:24:68754,3,-16,-20,-17,-26,3,9,5
14:59:24:76221,0,1,10,-2,0,-11,-4,5
14:59:24:83649,-3,3,-3,-27,-5,-1,-6,-4
14:59:24:91912,-3,3,-3,-27,-5,-1,-6,-4
14:59:24:92722,-5,-6,-15,-6,-20,-17,-20,-6
14:59:24:106926,4,3,-10,-21,-20,-6,-6,-1
14:59:24:107701,4,3,-10,-21,-20,-6,-6,-1
14:59:24:113684,17,1,2,-6,2,4,1,5
14:59:24:121156,-59,-5,10,-5,3,1,8,-12
14:59:24:128779,-59,-5,10,-5,3,1,8,-12
14:59:24:136183,-6,5,26,13,15,8,1,3
14:59:24:143709,9,-9,-4,-8,-1,-8,-13,-2
14:59:24:151962,9,-9,-4,-8,-1,-8,-13,-2
14:59:24:152728,-9,-9,-8,-3,-11,2,-6,-3
14:59:24:175078,9,10,-8,3,8,11,15,4
14:59:24:175847,9,10,-8,3,8,11,15,4
14:59:24:176642,6,1,-5,4,18,-1,-6,1
14:59:24:181204,14,-5,10,12,5,0,8,6
14:59:24:188727,14,-5,10,12,5,0,8,6
14:59:24:196184,-13,2,-1,17,2,15,10,-6
14:59:24:203651,14,1,2,26,1,-4,1,1
14:59:24:211917,14,1,2,26,1,-4,1,1
14:59:24:212713,-17,-16,-16,-11,-22,-10,1,-7
14:59:24:227307,-32,-1,14,-10,-3,-12,-15,-3
14:59:24:234400,-32,-1,14,-10,-3,-12,-15,-3
14:59:24:235223,17,-1,-17,-12,-20,1,-6,0
14:59:24:241173,31,-3,-10,-15,-18,-18,-12,-3
14:59:24:256939,31,-3,-10,-15,-18,-18,-12,-3
14:59:24:257716,-10,7,-6,-13,-15,-2,-3,4
14:59:24:263708,15,-3,-7,-11,-11,3,-1,-3
14:59:24:271881,15,-3,-7,-11,-11,3,-1,-3
14:59:24:272735,18,3,-8,12,6,5,12,-1
14:59:24:286859,-2,5,10,1,-11,9,3,6
14:59:24:287710,-2,5,10,1,-11,9,3,6
14:59:24:293650,2,9,9,10,25,11,18,-4
14:59:24:301216,-7,-6,-12,-9,3,2,11,1
14:59:24:308720,-7,-6,-12,-9,3,2,11,1
14:59:24:316189,-22,-11,1,-8,-1,-4,-8,-3
14:59:24:323672,8,-1,-18,0,8,-2,0,0
14:59:24:331898,8,-1,-18,0,8,-2,0,0
14:59:24:332716,12,6,23,4,-1,-11,-8,-2
14:59:24:346871,-8,-8,-4,9,10,-6,-8,-2
14:59:24:347698,-8,-8,-4,9,10,-6,-8,-2
14:59:24:353674,1,0,7,-2,-11,-7,-11,-1
14:59:24:361180,-4,-5,-2,23,19,1,-3,1
14:59:24:368780,-4,-5,-2,23,19,1,-3,1
14:59:24:376214,-1,11,-22,0,-2,7,0,6
14:59:24:383704,-4,1,19,11,11,-1,-4,-2
14:59:24:391968,-4,1,19,11,11,-1,-4,-2
14:59:24:392728,-21,-9,-10,-10,-24,-9,3,1
14:59:24:406926,3,-4,-8,-6,3,2,-1,4
14:59:24:407737,3,-4,-8,-6,3,2,-1,4
14:59:24:413690,-5,-8,-15,-14,6,-3,-4,-5
14:59:24:421217,-12,3,6,5,-19,-4,-8,-3
14:59:24:428733,-12,3,6,5,-19,-4,-8,-3
14:59:24:436273,-36,4,5,3,-12,-4,-5,-6
14:59:24:443738,7,2,6,-18,-12,0,-1,1
14:59:24:451893,7,2,6,-18,-12,0,-1,1
14:59:24:452689,14,-10,-14,-4,19,1,1,-5
14:59:24:466945,-11,0,-5,-5,4,1,5,-4
14:59:24:467734,-11,0,-5,-5,4,1,5,-4
14:59:24:481833,11,16,24,24,33,-7,-12,-1
14:59:24:482665,8,-6,-6,-14,-37,0,-2,-3
14:59:24:488778,8,-6,-6,-14,-37,0,-2,-3
14:59:24:496162,0,-11,-3,17,9,3,7,5
14:59:24:503672,3,1,1,20,2,-18,-22,-5
14:59:24:511980,3,1,1,20,2,-18,-22,-5
14:59:24:512753,6,-2,6,4,7,-1,1,-2
14:59:24:526875,-26,-1,-7,-5,4,8,15,-3
14:59:24:527713,-26,-1,-7,-5,4,8,15,-3
14:59:24:533678,7,4,32,19,9,11,13,2
14:59:24:541210,-3,-1,2,7,12,-4,5,-3
14:59:24:548757,-3,-1,2,7,12,-4,5,-3
14:59:24:556234,20,-8,-20,-37,-10,-2,8,3
14:59:24:563749,7,-5,-5,-1,1,0,-4,7
14:59:24:571201,7,-5,-5,-1,1,0,-4,7
14:59:24:578697,3,-6,9,13,-6,3,-5,2
14:59:24:586851,4,5,1,-3,4,-5,-10,-6
14:59:24:587696,4,5,1,-3,4,-5,-10,-6
14:59:24:593648,5,4,9,2,-4,-6,-6,0
14:59:24:609386,3,7,6,-4,-4,-5,11,-1
14:59:24:610159,3,7,6,-4,-4,-5,11,-1
14:59:24:616280,-11,-7,-23,-22,-34,-5,6,-1
14:59:24:623728,26,-15,-18,-11,-1,-1,4,-1
14:59:24:631205,26,-15,-18,-11,-1,-1,4,-1
14:59:24:638650,-5,5,10,7,16,1,-6,1
14:59:24:646881,2,-5,-7,-13,-3,3,14,2
14:59:24:647675,2,-5,-7,-13,-3,3,14,2
14:59:24:653672,-1,-4,3,11,6,4,-4,-2
14:59:24:669398,0,-5,-13,-12,-11,3,-13,-2
14:59:24:670184,0,-5,-13,-12,-11,3,-13,-2
14:59:24:676166,-9,-3,-5,-18,7,0,0,-2
14:59:24:683644,-10,-6,-6,16,-14,-3,0,-3
14:59:24:691232,-10,-6,-6,16,-14,-3,0,-3
14:59:24:698689,6,5,5,-19,-3,5,7,3
14:59:24:706899,-25,-5,-7,-5,7,2,-1,4
14:59:24:707743,-25,-5,-7,-5,7,2,-1,4
14:59:24:713660,-3,-9,-23,-8,-7,1,5,2
14:59:24:729429,-8,26,68,-5,-2,4,1,4
14:59:24:730277,-8,26,68,-5,-2,4,1,4
14:59:24:744310,-8,-5,-10,4,0,-8,-3,-5
14:59:24:745120,-25,-13,-24,-6,1,1,-13,-10
14:59:24:751288,-25,-13,-24,-6,1,1,-13,-10
14:59:24:767576,7,1,10,-2,9,2,-8,1
14:59:24:768381,9,-1,-7,8,5,3,7,-1
14:59:24:769180,9,-1,-7,8,5,3,7,-1
14:59:24:773693,-10,-8,-19,0,-22,-7,-4,-4
14:59:24:789381,7,0,-8,-31,12,-19,-19,-5
14:59:24:790235,7,0,-8,-31,12,-19,-19,-5
14:59:24:796234,1,3,10,7,3,-10,-8,-2
14:59:24:803754,3,-7,-9,-3,0,5,6,2
14:59:24:811200,3,-7,-9,-3,0,5,6,2
14:59:24:818734,-3,6,0,20,2,8,-1,-4
14:59:24:826878,-27,12,6,10,4,-4,-13,-7
14:59:24:827706,-27,12,6,10,4,-4,-13,-7
14:59:24:833694,2,-1,0,-12,-5,-19,-13,-5
14:59:24:849401,18,-10,-13,3,-3,-7,-1,-2
14:59:24:850237,18,-10,-13,3,-3,-7,-1,-2
14:59:24:856163,23,-3,-13,-27,-7,8,9,4
14:59:24:863786,3,6,8,6,20,6,0,5
14:59:24:871258,3,6,8,6,20,6,0,5
14:59:24:878660,-1,3,6,9,-13,0,-12,-3
14:59:24:886922,-2,-2,-8,-5,-11,8,-2,-3
14:59:24:887693,-2,-2,-8,-5,-11,8,-2,-3
14:59:24:893687,-7,2,20,18,-15,2,7,-2
14:59:24:909424,0,-4,-9,21,-6,-7,6,0
14:59:24:910193,0,-4,-9,21,-6,-7,6,0
14:59:24:916217,-13,1,-4,5,11,1,-2,-3
14:59:24:923685,-17,-8,0,2,-26,5,12,0
14:59:24:931264,-17,-8,0,2,-26,5,12,0
14:59:24:938701,-8,3,7,-6,-12,-4,-1,1
14:59:24:946980,38,7,1,0,9,7,4,-2
14:59:24:947752,38,7,1,0,9,7,4,-2
14:59:24:953709,19,-11,0,-15,-13,-4,7,-3
14:59:24:969378,19,4,1,-7,11,4,-8,7
14:59:24:970208,19,4,1,-7,11,4,-8,7
14:59:24:976209,14,-3,-11,2,-16,-2,-3,1
14:59:24:983731,-12,-3,-1,-5,-14,0,-1,-4
14:59:24:991283,-12,-3,-1,-5,-14,0,-1,-4
14:59:24:998686,-13,-3,0,13,14,4,8,2
14:59:25:6856,-13,-4,-9,2,-5,1,-7,-6
14:59:25:7657,-13,-4,-9,2,-5,1,-7,-6
14:59:25:13713,14,3,22,15,-3,4,5,2
14:59:25:29453,0,0,3,2,10,1,3,1
14:59:25:30267,0,0,3,2,10,1,3,1
14:59:25:44387,-11,-1,-23,5,4,4,-5,-3
14:59:25:45200,11,7,5,5,-13,-5,2,2
14:59:25:51303,11,7,5,5,-13,-5,2,2
14:59:25:58713,-8,1,1,3,-18,-4,-14,-5
14:59:25:66921,-4,4,9,16,18,-3,6,-3
14:59:25:67755,-4,4,9,16,18,-3,6,-3
14:59:25:73718,-10,-9,-26,-31,11,-8,-13,-12
14:59:25:97600,-5,-3,0,-5,-15,-11,-8,2
14:59:25:98352,-5,-3,0,-5,-15,-11,-8,2
14:59:25:99181,-23,-8,-16,-29,5,-5,-1,-4
14:59:25:103676,2,-2,-6,-23,5,1,-2,1
14:59:25:111221,2,-2,-6,-23,5,1,-2,1
14:59:25:118710,10,4,10,26,14,5,11,1
14:59:25:126924,10,4,10,26,14,5,11,1
14:59:25:127721,1,-9,-2,6,12,2,1,-1
14:59:25:133702,6,4,12,5,-15,-1,3,1
14:59:25:149434,6,4,12,5,-15,-1,3,1
14:59:25:150218,-5,-6,1,-9,-15,-5,-7,-2
14:59:25:156201,1,-5,-3,7,35,13,-3,1
14:59:25:171881,1,-5,-3,7,35,13,-3,1
14:59:25:172693,28,6,-11,-20,-4,0,16,-1
14:59:25:178757,2,8,-5,3,-1,-7,5,1
14:59:25:186891,2,8,-5,3,-1,-7,5,1
14:59:25:187671,-29,1,10,5,4,-2,0,-5
14:59:25:193712,2,-3,-8,-20,-18,0,8,-5
14:59:25:209459,2,-3,-8,-20,-18,0,8,-5
14:59:25:210229,-7,-6,-6,2,-6,-1,-6,1
14:59:25:216227,21,1,5,-17,3,-2,-1,6
14:59:25:231942,21,1,5,-17,3,-2,-1,6
14:59:25:232740,12,2,6,17,1,1,-9,-7
14:59:25:238672,-4,-5,-12,3,-10,2,-16,-3
14:59:25:247565,-4,-5,-12,3,-10,2,-16,-3
14:59:25:248351,-11,-4,9,8,-3,-12,-6,0
14:59:25:253719,7,2,12,-13,-20,1,2,1
14:59:25:277619,7,2,12,-13,-20,1,2,1
14:59:25:278343,-7,-4,-20,-5,-13,2,-13,1
14:59:25:279162,9,2,11,7,7,6,4,1
14:59:25:300145,9,2,11,7,7,6,4,1
14:59:25:300906,9,1,9,-5,-2,-1,8,5
14:59:25:301656,-12,-7,-12,1,18,-14,-12,-1
14:59:25:306932,-12,-7,-12,1,18,-14,-12,-1
14:59:25:307743,-8,3,14,5,-7,-13,2,-4
14:59:25:313671,-11,-3,8,30,-3,2,-27,0
14:59:25:329467,-11,-3,8,30,-3,2,-27,0
14:59:25:330249,28,-1,-16,-11,-19,-3,-3,4
14:59:25:336185,-27,-2,1,-5,8,1,15,-3
14:59:25:351947,-27,-2,1,-5,8,1,15,-3
14:59:25:352739,25,-1,0,-1,9,8,0,1
14:59:25:358699,2,-4,-13,-11,17,4,8,3
14:59:25:366922,2,-4,-13,-11,17,4,8,3
14:59:25:367689,-6,7,13,2,-11,6,-6,-3
14:59:25:373705,-40,-7,-20,-50,-19,-21,-9,-9
14:59:25:389444,-40,-7,-20,-50,-19,-21,-9,-9
14:59:25:390238,-8,0,3,-2,-4,-3,5,8
14:59:25:396213,-2,-5,-4,24,28,0,-4,-6
14:59:25:411916,-2,-5,-4,24,28,0,-4,-6
14:59:25:412742,-15,-3,-4,-9,-10,-1,-8,-4
14:59:25:418655,6,-3,-1,14,-12,-6,13,-1
14:59:25:426922,6,-3,-1,14,-12,-6,13,-1
14:59:25:427675,-2,8,17,15,20,-3,6,2
14:59:25:433688,15,-5,-6,2,-4,-8,-12,-1
14:59:25:449424,15,-5,-6,2,-4,-8,-12,-1
14:59:25:450269,12,6,-4,-8,7,8,2,-2
14:59:25:456156,45,0,8,4,13,8,3,4
14:59:25:471915,45,0,8,4,13,8,3,4
14:59:25:472668,-11,-9,-11,0,20,-2,-5,-7
14:59:25:478657,-1,0,-3,-5,-21,-9,6,3
14:59:25:494412,-1,0,-3,-5,-21,-9,6,3
14:59:25:495176,-9,-3,-5,17,9,3,3,-3
14:59:25:501277,-16,4,18,9,5,1,9,-2
14:59:25:509411,-16,4,18,9,5,1,9,-2
14:59:25:510186,-39,-9,10,4,0,-18,-18,-4
14:59:25:516176,-26,1,5,-13,-2,4,-3,-5
14:59:25:531920,-26,1,5,-13,-2,4,-3,-5
14:59:25:532707,8,-5,-16,-19,24,6,7,1
14:59:25:538697,4,-2,-1,7,10,-4,1,2
14:59:25:546909,4,-2,-1,7,10,-4,1,2
14:59:25:547739,-20,-3,-9,-24,-15,0,3,1
14:59:25:561239,-9,-3,-15,-29,-9,9,6,-3
14:59:25:569410,-9,-3,-15,-29,-9,9,6,-3
14:59:25:570224,11,11,30,17,1,-1,3,1
14:59:25:576183,-16,3,-3,9,-7,2,-21,0
14:59:25:591893,-16,3,-3,9,-7,2,-21,0
14:59:25:592705,-24,-7,-12,-13,-4,6,5,-7
14:59:25:598687,32,18,9,6,2,-2,-9,8
14:59:25:606908,32,18,9,6,2,-2,-9,8
14:59:25:607738,4,-4,-10,11,8,-3,4,10
14:59:25:621240,-2,-3,-16,14,14,4,3,-2
14:59:25:629356,-2,-3,-16,14,14,4,3,-2
14:59:25:630167,15,-4,5,-17,-44,-9,-7,-10
14:59:25:636223,3,-2,5,-10,-7,-5,2,14
14:59:25:651892,3,-2,5,-10,-7,-5,2,14
14:59:25:652665,3,3,9,10,-6,0,2,-4
14:59:25:658695,-24,-14,-18,-1,0,7,7,-8
14:59:25:666891,-24,-14,-18,-1,0,7,7,-8
14:59:25:667707,4,-7,-8,2,13,-1,1,-2
14:59:25:681189,12,4,1,-7,-7,1,-18,-6
14:59:25:689350,12,4,1,-7,-7,1,-18,-6
14:59:25:690174,35,0,-16,-3,1,6,5,2
14:59:25:696199,3,-3,13,-5,24,8,6,4
14:59:25:703716,3,-3,13,-5,24,8,6,4
14:59:25:711187,8,-5,-19,-20,-10,-5,-10,2
14:59:25:718787,-2,4,11,8,-6,-22,-16,-7
14:59:25:726881,-2,4,11,8,-6,-22,-16,-7
14:59:25:727670,-17,-12,-16,-6,-5,2,4,-1
14:59:25:741264,-6,-2,2,26,5,-2,10,-7
14:59:25:749431,-6,-2,2,26,5,-2,10,-7
14:59:25:750210,-10,7,24,19,6,-14,-9,-5
14:59:25:756193,7,2,-4,-3,-9,6,10,1
14:59:25:771880,7,2,-4,-3,-9,6,10,1
14:59:25:772718,6,-5,-5,-10,1,6,11,0
14:59:25:778695,-6,6,0,5,3,4,10,-3
14:59:25:786874,-6,6,0,5,3,4,10,-3
14:59:25:787684,-7,6,-18,-11,7,-1,-10,-3
14:59:25:801228,-2,-2,-4,-3,-5,-4,7,1
14:59:25:809399,-2,-2,-4,-3,-5,-4,7,1
14:59:25:810211,-1,-1,4,7,1,13,6,5
14:59:25:823712,-10,-9,-10,-19,-13,4,-3,-8
14:59:25:831962,-10,-9,-10,-19,-13,4,-3,-8
14:59:25:832769,-2,5,12,2,-12,-3,-3,-1
14:59:25:838714,32,6,8,-6,-19,4,2,2
14:59:25:846697,32,6,8,-6,-19,4,2,2
14:59:25:853718,-5,-1,-1,8,14,-7,-2,-2
14:59:25:861245,-4,-11,-11,-23,-12,-7,-13,-6
14:59:25:877672,-4,-11,-11,-23,-12,-7,-13,-6
14:59:25:878433,-8,-7,-2,-14,-1,-12,-20,-7
14:59:25:879272,41,5,13,13,6,-12,-4,2
14:59:25:883751,41,5,13,13,6,-12,-4,2
14:59:25:891266,-7,-5,1,13,-23,-1,-17,-2
14:59:25:898707,-15,-4,-4,-5,-16,2,-2,-2
14:59:25:906947,-15,-4,-4,-5,-16,2,-2,-2
14:59:25:907722,7,10,0,0,11,2,13,4
14:59:25:921193,-13,0,-8,-6,-18,-7,-15,-5
14:59:25:929452,-13,0,-8,-6,-18,-7,-15,-5
14:59:25:930243,-11,-4,5,11,2,-3,0,-3
14:59:25:936202,-12,2,3,8,31,-1,-20,0
14:59:25:943761,-12,2,3,8,31,-1,-20,0
14:59:25:951227,2,-1,-4,1,10,8,13,-1
14:59:25:958692,-60,-8,3,1,7,0,6,-2
14:59:25:966927,-60,-8,3,1,7,0,6,-2
14:59:25:967704,2,4,7,-12,-9,-6,-16,-3
14:59:25:981312,1,-8,-8,3,10,1,15,-2
14:59:25:989411,1,-8,-8,3,10,1,15,-2
14:59:25:990225,-10,-12,-20,-9,11,13,10,-5
14:59:25:996149,8,-3,-11,-4,-21,-10,1,0
14:59:26:3750,8,-3,-11,-4,-21,-10,1,0
14:59:26:11196,12,-4,-11,10,5,0,4,1
14:59:26:18673,1,-7,-6,13,10,-4,8,0
14:59:26:26916,1,-7,-6,13,10,-4,8,0
14:59:26:27715,-3,5,16,12,-1,6,10,7
14:59:26:41182,-6,-2,-6,0,-9,4,-11,-6
14:59:26:49390,-6,-2,-6,0,-9,4,-11,-6
14:59:26:50225,11,-4,-2,-9,2,-13,-12,-7
14:59:26:56190,12,6,11,10,8,7,4,4
14:59:26:63795,12,6,11,10,8,7,4,4
14:59:26:71227,-9,6,3,-7,-14,-1,0,1
14:59:26:87609,9,-10,-25,-37,7,-1,-18,-3
14:59:26:88390,9,-10,-25,-37,7,-1,-18,-3
14:59:26:89173,-31,-8,-3,5,-6,-11,-18,-6
14:59:26:110026,-4,7,11,0,0,6,9,2
14:59:26:110869,-4,7,11,0,0,6,9,2
14:59:26:111711,1,-5,-4,-14,-25,-1,8,0
14:59:26:116164,6,11,16,-1,-10,-4,0,3
14:59:26:123720,6,11,16,-1,-10,-4,0,3
14:59:26:131151,-23,7,8,4,6,-1,1,-6
14:59:26:138649,5,-3,2,3,8,-5,0,3
14:59:26:154392,5,-3,2,3,8,-5,0,3
14:59:26:155199,13,13,-2,-5,1,-9,-2,5
14:59:26:161199,-4,3,6,29,20,12,12,1
14:59:26:177554,-4,3,6,29,20,12,12,1
14:59:26:178354,39,-6,-9,-19,-22,-3,-10,-3
14:59:26:179170,-21,-13,-14,-6,8,1,7,-3
14:59:26:183711,-21,-13,-14,-6,8,1,7,-3
14:59:26:191167,-4,0,11,35,24,6,18,8
14:59:26:198732,0,0,1,-6,-12,-2,-18,-5
14:59:26:206930,0,0,1,-6,-12,-2,-18,-5
14:59:26:207675,16,3,0,-14,-6,-7,0,-3
14:59:26:221234,-5,-1,-1,-3,-5,-2,-2,2
14:59:26:229368,-5,-1,-1,-3,-5,-2,-2,2
14:59:26:230206,11,0,-1,0,-8,5,-2,3
14:59:26:244385,-3,-4,-2,-17,25,-5,0,-9
14:59:26:245232,-3,-4,-2,-17,25,-5,0,-9
14:59:26:251258,-7,-1,-10,4,6,-1,5,0
14:59:26:267555,-11,-10,-12,-1,0,1,-13,-3
14:59:26:268328,-11,-10,-12,-1,0,1,-13,-3
14:59:26:269207,-2,-10,4,3,18,4,7,-1
14:59:26:281185,5,6,5,-1,-13,6,14,1
14:59:26:289426,5,6,5,-1,-13,6,14,1
14:59:26:290238,-10,-1,-5,4,8,3,-5,-5
14:59:26:296219,-12,-7,-3,-15,-15,-3,-4,0
14:59:26:303721,-12,-7,-3,-15,-15,-3,-4,0
14:59:26:311188,6,3,12,-14,-8,-8,-9,-6
14:59:26:318713,2,3,6,-2,-21,-3,0,-3
14:59:26:326878,2,3,6,-2,-21,-3,0,-3
14:59:26:327671,-11,-5,-5,-1,9,-3,-2,0
14:59:26:341223,17,-2,-9,-9,-10,-12,-7,3
14:59:26:349382,17,-2,-9,-9,-10,-12,-7,3
14:59:26:350167,-11,9,10,-1,-6,-2,-11,-8
14:59:26:356242,9,5,-3,-1,-12,-2,-2,2
14:59:26:371698,9,5,-3,-1,-12,-2,-2,2
14:59:26:379353,1,1,1,-6,3,-4,-2,5
14:59:26:380153,-14,2,-3,-5,-8,4,-5,-4
14:59:26:386832,-14,2,-3,-5,-8,4,-5,-4
14:59:26:387634,-4,-6,-24,-7,21,-2,-2,0
14:59:26:410514,-1,5,10,-14,-9,-2,7,0
14:59:26:411353,-1,5,10,-14,-9,-2,7,0
14:59:26:412150,1,-1,-7,4,1,0,-3,2
14:59:26:416161,7,-8,-8,-5,-37,-17,-12,0
14:59:26:431877,7,-8,-8,-5,-37,-17,-12,0
14:59:26:432699,-21,0,-8,-5,13,11,16,-2
14:59:26:438633,0,2,2,21,27,4,6,-4
14:59:26:454370,0,2,2,21,27,4,6,-4
14:59:26:455148,-14,-12,15,5,-11,-12,-15,-3
14:59:26:461177,16,1,-6,-9,-4,-4,1,-1
14:59:26:469354,16,1,-6,-9,-4,-4,1,-1
14:59:26:470148,16,-4,3,4,4,16,9,-1
14:59:26:484389,5,-1,3,8,5,4,-1,3
14:59:26:485160,5,-1,3,8,5,4,-1,3
14:59:26:491204,9,5,10,23,0,-10,-5,1
14:59:26:498767,-2,0,-2,7,16,3,4,4
14:59:26:506211,-2,0,-2,7,16,3,4,4
14:59:26:513707,-11,-5,-4,-5,-8,-5,-9,-15
14:59:26:521180,-8,6,24,25,-10,-5,-23,-4
14:59:26:529420,-8,6,24,25,-10,-5,-23,-4
14:59:26:530230,13,-1,1,-6,-7,0,9,12
14:59:26:544374,-7,-7,-22,-8,-3,3,12,-7
14:59:26:545176,-7,-7,-22,-8,-3,3,12,-7
14:59:26:551218,-2,2,-14,-3,-8,4,-4,-3
14:59:26:558663,1,4,12,13,9,0,8,0
14:59:26:566262,1,4,12,13,9,0,8,0
14:59:26:573703,2,-8,-4,-19,-8,5,16,4
14:59:26:581154,-20,-12,-6,-12,-5,2,-3,0
14:59:26:589409,-20,-12,-6,-12,-5,2,-3,0
14:59:26:590231,3,1,-5,-10,-9,-2,-5,5
14:59:26:604422,-7,-1,4,5,9,-15,-25,-2
14:59:26:605240,-7,-1,4,5,9,-15,-25,-2
14:59:26:611164,-15,-8,-3,-2,-5,-5,-9,-9
14:59:26:618715,9,9,5,-24,-25,-11,-2,7
14:59:26:626288,9,9,5,-24,-25,-11,-2,7
14:59:26:633723,-6,-3,-8,-4,-13,11,8,-5
14:59:26:641202,9,-1,11,12,-7,-3,-3,-1
14:59:26:649454,9,-1,11,12,-7,-3,-3,-1
14:59:26:650229,6,-5,-11,-57,-5,3,0,-7
14:59:26:664895,8,4,-5,2,40,8,16,3
14:59:26:665730,8,4,-5,2,40,8,16,3
14:59:26:671234,15,13,15,7,24,4,6,2
14:59:26:686888,-23,-14,-30,-16,-22,-9,-7,-10
14:59:26:687722,-23,-14,-30,-16,-22,-9,-7,-10
14:59:26:693664,4,-12,-21,14,11,-7,-18,5
14:59:26:701194,6,-2,4,17,2,-8,-21,-8
14:59:26:709402,6,-2,4,17,2,-8,-21,-8
14:59:26:710211,-9,2,4,-11,-24,-10,17,2
14:59:26:724398,-4,-8,-1,30,3,12,17,0
14:59:26:725229,-4,-8,-1,30,3,12,17,0
14:59:26:731180,-1,-3,5,55,-7,-10,-17,1
14:59:26:738650,8,16,34,30,22,5,5,2
14:59:26:746308,8,16,34,30,22,5,5,2
14:59:26:753717,1,-1,-5,8,-14,-8,-2,-3
14:59:26:761211,-3,-5,-3,-19,0,8,7,3
14:59:26:769400,-3,-5,-3,-19,0,8,7,3
14:59:26:770208,8,9,7,19,15,-3,-25,1
14:59:26:784423,-4,2,-25,-40,-18,-4,7,-3
14:59:26:785217,-4,2,-25,-40,-18,-4,7,-3
14:59:26:791236,21,-9,-3,-23,2,3,4,-2
14:59:26:798685,5,-9,-6,-19,-5,4,-4,7
14:59:26:806247,5,-9,-6,-19,-5,4,-4,7
14:59:26:813725,-11,15,31,16,9,9,2,-2
14:59:26:821216,4,-6,-6,1,-5,-3,12,-2
14:59:26:829438,4,-6,-6,1,-5,-3,12,-2
14:59:26:830178,-8,-7,-20,-50,-24,-2,-2,-2
14:59:26:844335,3,12,33,16,19,4,-7,-2
14:59:26:845145,3,12,33,16,19,4,-7,-2
14:59:26:851232,-12,-9,-11,8,19,0,0,-5
14:59:26:858734,-8,-13,-19,-3,10,2,1,-5
14:59:26:874463,-8,-13,-19,-3,10,2,1,-5
14:59:26:875248,-5,1,3,-29,-4,-18,-20,-1
14:59:26:881173,0,-2,2,0,20,0,3,0
14:59:26:889382,0,-2,2,0,20,0,3,0
14:59:26:890168,4,-8,-4,-10,5,5,15,3
14:59:26:904361,2,3,-2,-22,2,-2,-2,-3
14:59:26:905169,2,3,-2,-22,2,-2,-2,-3
14:59:26:911189,6,0,-2,30,0,-4,0,-6
14:59:26:918694,28,-6,-13,2,-35,1,14,-2
14:59:26:926246,28,-6,-13,2,-35,1,14,-2
14:59:26:933743,-16,0,2,8,-4,3,13,-4
14:59:26:941216,-1,3,10,8,10,-6,1,0
14:59:26:949385,-1,3,10,8,10,-6,1,0
14:59:26:950203,0,3,3,-2,-10,-5,-7,0
14:59:26:964402,-10,4,12,50,10,2,-6,-2
14:59:26:965205,-10,4,12,50,10,2,-6,-2
14:59:26:971194,-10,-2,-4,-8,-15,-7,-10,-1
14:59:26:978708,-5,-7,-15,1,-15,0,-8,1
14:59:26:986214,-5,-7,-15,1,-15,0,-8,1
14:59:26:993660,1,-1,4,14,-5,3,3,1
14:59:27:1160,18,0,6,4,11,-2,-1,2
14:59:27:9397,18,0,6,4,11,-2,-1,2
14:59:27:10221,-3,0,-23,-19,-5,4,8,-3
14:59:27:24359,-11,1,20,-14,-18,-7,9,-1
14:59:27:25214,-11,1,20,-14,-18,-7,9,-1
14:59:27:31211,3,0,24,11,-2,12,29,2
14:59:27:38656,5,2,-14,-39,5,3,-12,3
14:59:27:46211,5,2,-14,-39,5,3,-12,3
14:59:27:53726,-4,3,-12,10,12,3,6,4
14:59:27:61205,2,-4,-4,-12,2,-3,-1,2
14:59:27:69433,2,-4,-4,-12,2,-3,-1,2
14:59:27:70211,-14,-2,-12,-1,11,2,-12,-14
14:59:27:84431,-9,3,-8,-6,1,2,-2,1
14:59:27:85226,-9,3,-8,-6,1,2,-2,1
14:59:27:91141,7,-1,6,-3,-3,-15,-5,-2
14:59:27:98669,-12,-6,-3,2,-30,-6,-12,-6
14:59:27:106274,-12,-6,-3,2,-30,-6,-12,-6
14:59:27:113668,-2,5,16,14,4,6,0,6
14:59:27:130100,-6,-10,-9,0,-20,-1,10,-1
14:59:27:130873,-6,-10,-9,0,-20,-1,10,-1
14:59:27:131675,-1,-4,1,-4,5,0,6,2
14:59:27:144372,1,6,-7,6,3,-6,-7,1
14:59:27:145190,1,6,-7,6,3,-6,-7,1
14:59:27:151210,-1,-2,3,-10,-5,1,-20,0
14:59:27:158702,-7,1,2,-3,-5,-5,-19,-4
14:59:27:166262,-7,1,2,-3,-5,-5,-19,-4
14:59:27:173681,37,-1,-9,22,9,3,6,1
14:59:27:181166,-3,-5,-1,5,20,-10,-8,0
14:59:27:189413,-3,-5,-1,5,20,-10,-8,0
14:59:27:190229,2,-5,-3,-17,-25,14,-2,-6
14:59:27:204426,6,6,6,-14,2,8,8,-3
14:59:27:205220,6,6,6,-14,2,8,8,-3
14:59:27:211184,-6,8,39,11,16,-3,-5,2
14:59:27:218667,-2,-15,-20,-4,-9,1,17,1
14:59:27:226288,-2,-15,-20,-4,-9,1,17,1
14:59:27:233712,-13,-7,-17,-20,-10,-5,-26,-6
14:59:27:241183,1,4,10,-10,0,9,19,3
14:59:27:249435,1,4,10,-10,0,9,19,3
14:59:27:250270,-8,-5,-10,-7,-3,-13,-1,-2
14:59:27:264927,-8,-3,-13,9,-7,0,-6,-5
14:59:27:265681,-8,-3,-13,9,-7,0,-6,-5
14:59:27:271162,-3,3,4,-5,19,-5,-9,-1
14:59:27:278704,-4,-2,-3,-4,-1,1,-4,-1
14:59:27:286237,-4,-2,-3,-4,-1,1,-4,-1
14:59:27:293734,-7,-8,-10,13,-15,-5,6,-3
14:59:27:301200,-5,-3,-2,8,16,-6,-17,-2
14:59:27:309420,-5,-3,-2,8,16,-6,-17,-2
14:59:27:310153,28,1,-9,7,1,-3,1,4
14:59:27:324382,8,6,4,-12,-7,0,9,2
14:59:27:325199,8,6,4,-12,-7,0,9,2
14:59:27:331204,11,2,-6,-13,-17,1,8,3
14:59:27:338707,4,4,16,36,10,4,3,2
14:59:27:346306,4,4,16,36,10,4,3,2
14:59:27:353709,-11,-14,-23,-31,0,1,8,12
14:59:27:361203,-14,-4,0,-5,0,10,-4,-2
14:59:27:369421,-14,-4,0,-5,0,10,-4,-2
14:59:27:370216,-12,11,21,-19,-23,-18,-42,-9
14:59:27:384382,11,-2,-16,-17,-8,1,7,3
14:59:27:385198,11,-2,-16,-17,-8,1,7,3
14:59:27:391218,-14,-13,-6,-19,-1,-4,5,-9
14:59:27:406893,-6,0,0,8,4,-7,-6,1
14:59:27:407729,-6,0,0,8,4,-7,-6,1
14:59:27:413726,-9,4,6,30,4,7,4,0
14:59:27:421248,-4,-2,1,-7,-3,0,-10,-2
14:59:27:428764,-4,-2,1,-7,-3,0,-10,-2
14:59:27:436175,4,9,8,18,7,-4,9,1
14:59:27:444432,4,-2,-6,-10,-6,0,14,2
14:59:27:445264,4,-2,-6,-10,-6,0,14,2
14:59:27:451181,-5,-4,-10,-3,1,3,16,-6
14:59:27:466934,-7,2,-8,-10,9,-12,-15,-9
14:59:27:467726,-7,2,-8,-10,9,-12,-15,-9
14:59:27:473655,-6,-13,-19,6,24,4,-6,3
14:59:27:481212,3,-3,3,-1,22,3,1,1
14:59:27:488718,3,-3,3,-1,22,3,1,1
14:59:27:496209,-2,7,1,8,2,5,6,3
14:59:27:512572,-3,-7,4,8,-3,-3,-4,0
14:59:27:513367,-3,-7,4,8,-3,-3,-4,0
14:59:27:514175,-23,-3,3,-3,-12,-5,-2,-2
14:59:27:526825,3,5,6,7,-5,-3,-5,-4
14:59:27:527679,3,5,6,7,-5,-3,-5,-4
14:59:27:533730,-1,5,12,20,16,16,-5,-4
14:59:27:541235,-8,-9,-13,-19,-15,-2,-5,-7
14:59:27:548749,-8,-9,-13,-19,-15,-2,-5,-7
14:59:27:556160,10,1,-6,-13,-23,-7,-1,1
14:59:27:564413,-3,1,9,-8,-13,3,14,4
14:59:27:565202,-3,1,9,-8,-13,3,14,4
14:59:27:571166,4,-7,4,4,-7,-3,23,3
14:59:27:586879,6,5,4,2,-31,-13,-4,2
14:59:27:587686,6,5,4,2,-31,-13,-4,2
14:59:27:593628,-9,-7,-10,-2,7,-4,5,-8
14:59:27:601178,-7,-17,-38,-14,15,3,-6,-9
14:59:27:608721,-7,-17,-38,-14,15,3,-6,-9
14:59:27:616191,34,22,31,-45,-9,5,-9,6
14:59:27:624391,-1,-5,-11,-12,-22,-1,1,3
14:59:27:625190,-1,-5,-11,-12,-22,-1,1,3
14:59:27:631175,2,3,-9,18,18,-11,-9,-7
14:59:27:646900,-1,-1,4,6,17,0,12,-3
14:59:27:647726,-1,-1,4,6,17,0,12,-3
14:59:27:653679,-2,-4,1,-8,-13,-21,-16,-2
14:59:27:661203,2,5,1,14,10,-2,-6,0
14:59:27:668788,2,5,1,14,10,-2,-6,0
14:59:27:676180,5,-2,-5,6,-6,2,-10,-8
14:59:27:684418,5,3,13,6,17,14,-2,-1
14:59:27:685269,5,3,13,6,17,14,-2,-1
14:59:27:691244,-9,-1,-17,-20,-17,-5,1,-3
14:59:27:706953,-5,4,22,14,-23,-1,4,-2
14:59:27:707778,-5,4,22,14,-23,-1,4,-2
14:59:27:713724,-7,-11,-21,6,-4,-2,1,0
14:59:27:721187,-4,1,10,3,-3,-3,-5,-1
14:59:27:728787,-4,1,10,3,-3,-3,-5,-1
14:59:27:736189,-20,-4,3,3,7,4,-6,1
14:59:27:744366,0,-3,0,-2,5,-6,-7,-1
14:59:27:745149,0,-3,0,-2,5,-6,-7,-1
14:59:27:751214,0,-1,5,4,8,16,-1,-5
14:59:27:766911,0,4,-6,-12,-26,2,6,3
14:59:27:767669,0,4,-6,-12,-26,2,6,3
14:59:27:773711,2,4,21,3,6,-14,10,3
14:59:27:781203,0,-1,-8,0,4,2,9,1
14:59:27:788693,0,-1,-8,0,4,2,9,1
14:59:27:796272,39,-6,-13,12,16,2,4,5
14:59:27:804365,5,1,-2,-3,14,-1,-7,-2
14:59:27:805212,5,1,-2,-3,14,-1,-7,-2
14:59:27:811181,4,1,-1,-7,-1,-7,-6,3
14:59:27:826873,-3,13,26,2,3,-13,-12,-5
14:59:27:827682,-3,13,26,2,3,-13,-12,-5
14:59:27:833716,-8,-4,-9,-9,-33,7,11,3
14:59:27:841249,-8,-1,19,21,14,9,3,4
14:59:27:848787,-8,-1,19,21,14,9,3,4
14:59:27:865041,-12,4,10,24,17,-7,-13,-1
14:59:27:865855,-2,-13,-20,-2,-1,-6,-17,-8
14:59:27:866641,-2,-13,-20,-2,-1,-6,-17,-8
14:59:27:871222,-13,-6,-8,1,-9,18,2,-7
14:59:27:886901,2,11,21,33,44,-3,-1,-4
14:59:27:887667,2,11,21,33,44,-3,-1,-4
14:59:27:893679,0,-4,-15,-15,-8,1,2,-1
14:59:27:901259,-4,-11,-16,-26,-3,4,21,2
14:59:27:908693,-4,-11,-16,-26,-3,4,21,2
14:59:27:916181,1,-3,-2,3,12,0,4,-5
14:59:27:924384,22,2,2,-16,-18,5,-1,6
14:59:27:925214,22,2,2,-16,-18,5,-1,6
14:59:27:931154,-2,2,2,-38,-18,-1,4,-1
14:59:27:946904,-2,-9,-28,-11,-2,1,4,-5
14:59:27:947708,-2,-9,-28,-11,-2,1,4,-5
14:59:27:961866,-4,11,25,23,-14,-6,5,-1
14:59:27:962629,-9,-8,-14,-17,-35,-1,-4,-4
14:59:27:968709,-9,-8,-14,-17,-35,-1,-4,-4
14:59:27:985107,0,0,-14,-11,-3,-4,-11,-3
14:59:27:985834,-35,-6,-12,14,24,-16,-4,-3
14:59:27:986651,-35,-6,-12,14,24,-16,-4,-3
14:59:27:991196,-10,-7,-1,4,-23,-2,0,8
14:59:28:6896,3,8,19,-14,-2,4,4,-2
14:59:28:7771,3,8,19,-14,-2,4,4,-2
14:59:28:13710,0,7,4,9,9,-2,-2,-1
14:59:28:21218,6,-7,-7,-1,-22,5,5,3
14:59:28:28775,6,-7,-7,-1,-22,5,5,3
14:59:28:36227,-57,-24,-10,6,9,-2,-5,-11
14:59:28:44395,-9,-2,6,3,-20,7,-14,-8
14:59:28:45213,-9,-2,6,3,-20,7,-14,-8
14:59:28:51247,7,3,13,17,12,2,-9,1
14:59:28:66897,-2,1,-3,-5,-27,9,-3,3
14:59:28:67728,-2,1,-3,-5,-27,9,-3,3
14:59:28:73721,14,4,1,-9,3,4,11,1
14:59:28:81201,28,-3,-4,10,11,-17,-12,-2
14:59:28:88730,28,-3,-4,10,11,-17,-12,-2
14:59:28:96205,-21,-3,-10,-13,4,6,3,-11
14:59:28:104329,-4,2,1,10,0,-3,-2,1
14:59:28:105217,-4,2,1,10,0,-3,-2,1
14:59:28:111243,14,1,11,32,25,6,-1,9
14:59:28:126834,0,10,9,19,12,9,8,3
14:59:28:127675,0,10,9,19,12,9,8,3
14:59:28:133700,5,-3,-10,1,-14,-7,-8,0
14:59:28:141211,-27,-11,1,8,19,-9,-23,-7
14:59:28:148751,-27,-11,1,8,19,-9,-23,-7
14:59:28:156185,7,6,-3,2,2,-10,-2,0
14:59:28:164403,-1,3,-2,-10,-4,-2,4,-3
14:59:28:165189,-1,3,-2,-10,-4,-2,4,-3
14:59:28:171251,0,-8,-11,-15,-9,-8,-7,-3
14:59:28:186896,3,-3,-14,-17,19,0,-1,-1
14:59:28:187734,3,-3,-14,-17,19,0,-1,-1
14:59:28:193655,0,-1,20,54,25,-9,-7,-1
14:59:28:201187,-2,0,12,24,12,4,0,0
14:59:28:208761,-2,0,12,24,12,4,0,0
14:59:28:216198,8,-11,-27,-16,3,-11,-22,-10
14:59:28:232306,-9,3,4,2,12,-2,3,-3
14:59:28:233210,-9,3,4,2,12,-2,3,-3
14:59:28:238640,16,-4,0,-9,-3,10,12,5
14:59:28:255048,20,3,1,-12,-18,-1,6,4
14:59:28:255899,20,3,1,-12,-18,-1,6,4
14:59:28:256704,-18,-3,-9,-12,-7,-12,-1,-1
14:59:28:261170,11,6,-5,-18,-9,-3,4,2
14:59:28:285768,11,6,-5,-18,-9,-3,4,2
14:59:28:286517,20,8,9,-8,3,-6,3,2
14:59:28:287323,-7,-1,19,5,19,3,-2,-6
14:59:28:288199,-7,-1,19,5,19,3,-2,-6
14:59:28:291242,0,-3,-12,-26,-46,-2,-8,-1
14:59:28:306940,-8,-6,2,-4,-7,-3,-1,-2
14:59:28:307743,-8,-6,2,-4,-7,-3,-1,-2
14:59:28:313766,2,7,7,2,1,6,0,1
14:59:28:321189,-3,-5,-16,-13,-10,6,6,3
14:59:28:328715,-3,-5,-16,-13,-10,6,6,3
14:59:28:336202,16,-4,-23,-7,-13,6,8,-9
14:59:28:344353,-10,-4,2,-3,0,5,12,-6
14:59:28:345172,-10,-4,2,-3,0,5,12,-6
14:59:28:358729,8,2,-9,-4,15,6,10,-1
14:59:28:366892,-2,-7,-14,-2,-7,-9,-2,1
14:59:28:367745,-2,-7,-14,-2,-7,-9,-2,1
14:59:28:373752,9,5,10,8,9,9,6,6
14:59:28:389392,-2,-5,-23,-32,-36,-16,-16,-1
14:59:28:390233,-2,-5,-23,-32,-36,-16,-16,-1
14:59:28:396194,-11,-6,-1,-9,-19,-6,-4,-1
14:59:28:404399,1,1,1,-3,-8,-2,-7,1
14:59:28:405193,1,1,1,-3,-8,-2,-7,1
14:59:28:419195,-11,3,4,-20,-11,-6,-5,0
14:59:28:426823,10,0,-2,10,14,-6,-12,-1
14:59:28:427653,10,0,-2,10,14,-6,-12,-1
14:59:28:441173,-15,-8,-6,-12,2,-2,-8,-2
14:59:28:449400,11,8,19,3,0,18,13,2
14:59:28:450214,11,8,19,3,0,18,13,2
14:59:28:465044,-19,0,-10,22,19,5,10,-3
14:59:28:465849,-40,-2,7,12,8,5,7,-6
14:59:28:466702,-40,-2,7,12,8,5,7,-6
14:59:28:478754,22,-8,-7,-6,-6,-3,-1,14
14:59:28:486887,22,-8,-7,-6,-6,-3,-1,14
14:59:28:487720,9,-5,-13,-5,8,-9,-7,-2
14:59:28:493643,-24,8,16,7,2,0,4,-12
14:59:28:509415,-24,8,16,7,2,0,4,-12
14:59:28:510201,18,-2,-5,2,15,-4,-7,11
14:59:28:516184,11,8,25,33,-1,19,2,1
14:59:28:524424,11,8,25,33,-1,19,2,1
14:59:28:525209,21,-2,-11,-12,-8,-10,-8,-3
14:59:28:538669,2,-4,0,-7,6,-3,8,3
14:59:28:546895,2,-4,0,-7,6,-3,8,3
14:59:28:547714,2,10,8,-1,-2,3,5,2
14:59:28:553706,-27,1,-2,-6,24,15,-5,0
14:59:28:569398,-27,1,-2,-6,24,15,-5,0
14:59:28:570244,-16,-2,4,7,4,7,7,-2
14:59:28:576218,-3,-6,-10,-13,-5,-13,-5,0
14:59:28:584422,-3,-6,-10,-13,-5,-13,-5,0
14:59:28:585236,-36,-12,-7,-3,3,1,1,-10
14:59:28:598745,7,6,7,7,2,-1,-22,-3
14:59:28:606915,7,6,7,7,2,-1,-22,-3
14:59:28:607687,4,-2,-4,7,-15,-14,-11,-2
14:59:28:613666,0,-8,-1,-22,7,-16,-12,-2
14:59:28:629368,0,-8,-1,-22,7,-16,-12,-2
14:59:28:630240,30,7,3,23,39,13,6,5
14:59:28:644990,8,-13,-10,-19,-10,5,15,-5
14:59:28:645816,8,-13,-10,-19,-10,5,15,-5
14:59:28:646610,13,4,9,-20,-5,-5,-5,2
14:59:28:658693,4,-5,2,5,-12,-5,12,-1
14:59:28:666908,4,-5,2,5,-12,-5,12,-1
14:59:28:667693,-6,-6,-8,-14,-20,-10,-16,-5
14:59:28:673673,-7,1,-9,-1,-27,-6,-18,-2
14:59:28:689460,-7,1,-9,-1,-27,-6,-18,-2
14:59:28:690232,-13,-8,-7,-1,-7,-9,-6,-8
14:59:28:696196,4,4,-1,-8,-3,-6,3,-2
14:59:28:704431,4,4,-1,-8,-3,-6,3,-2
14:59:28:705218,-2,-4,6,2,14,-1,-3,-3
14:59:28:718713,-4,2,4,10,2,3,4,-1
14:59:28:726933,-4,2,4,10,2,3,4,-1
14:59:28:727699,0,8,26,51,-8,-9,-3,-3
14:59:28:741200,-5,-6,-19,-15,12,-3,0,-2
14:59:28:749382,-5,-6,-19,-15,12,-3,0,-2
14:59:28:750186,0,-9,-21,-8,7,5,7,3
14:59:28:765048,-3,2,1,24,12,2,3,-2
14:59:28:765865,-3,2,1,24,12,2,3,-2
14:59:28:766645,17,3,-7,-20,-3,7,-2,0
14:59:28:787568,-2,0,1,-17,-4,-9,7,-4
14:59:28:788349,-2,0,1,-17,-4,-9,7,-4
14:59:28:789166,-1,-3,-8,1,16,0,-1,1
14:59:28:793669,12,-1,-4,2,-20,-8,-8,4
14:59:28:809849,12,-1,-4,2,-20,-8,-8,4
14:59:28:810634,-13,5,13,18,3,3,1,-1
14:59:28:816184,-37,0,8,20,15,-13,-22,-5
14:59:28:824358,-37,0,8,20,15,-13,-22,-5
14:59:28:825173,13,-8,-9,-11,-17,-6,-5,-3
14:59:28:838681,16,2,-4,-19,-10,-3,9,5
14:59:28:846942,16,2,-4,-19,-10,-3,9,5
14:59:28:847747,-14,-3,1,-3,-1,3,4,0
14:59:28:853705,0,5,-5,-13,-24,6,-4,-3
14:59:28:877620,0,5,-5,-13,-24,6,-4,-3
14:59:28:878431,-2,-2,-5,-10,5,1,14,3
14:59:28:879242,-5,-6,1,14,10,-7,-2,-8
14:59:28:884441,-5,-6,1,14,10,-7,-2,-8
14:59:28:885215,-5,0,-1,8,-12,4,9,-5
14:59:28:898776,-1,0,0,1,13,1,-6,-1
14:59:28:906903,-1,0,0,1,13,1,-6,-1
14:59:28:907720,7,-2,-6,-7,16,-10,-8,-2
14:59:28:913691,0,-4,-4,-5,-16,-1,-7,2
14:59:28:929437,0,-4,-4,-5,-16,-1,-7,2
14:59:28:930227,-1,15,30,2,-1,-6,1,0
14:59:28:936213,5,-11,-20,-10,31,8,7,-1
14:59:28:944402,5,-11,-20,-10,31,8,7,-1
14:59:28:945177,4,0,4,-5,-6,1,1,6
14:59:28:958741,-21,-4,7,1,-6,2,12,-6
14:59:28:966906,-21,-4,7,1,-6,2,12,-6
14:59:28:967703,-10,-11,-18,6,14,4,0,-6
14:59:28:973634,9,5,2,-5,6,6,8,6
14:59:28:989395,9,5,2,-5,6,6,8,6
14:59:28:990209,-3,-4,1,0,-15,-7,-8,2
14:59:28:996188,-2,-2,0,1,-35,-30,-17,-5
14:59:29:4392,-2,-2,0,1,-35,-30,-17,-5
14:59:29:5166,2,7,-1,5,16,3,5,1
14:59:29:18732,36,5,7,-5,2,15,3,2
14:59:29:26829,36,5,7,-5,2,15,3,2
14:59:29:27660,-3,-4,-4,3,-9,0,3,-2
14:59:29:33726,-6,-3,-5,-3,-16,-7,-4,0
14:59:29:49406,-6,-3,-5,-3,-16,-7,-4,0
14:59:29:50230,19,1,-8,-14,-10,10,0,2
14:59:29:56192,2,0,5,-31,-1,12,-5,1
14:59:29:64397,2,0,5,-31,-1,12,-5,1
14:59:29:65179,3,3,18,4,0,4,-1,3
14:59:29:78697,-11,-7,-6,18,3,3,2,-8
14:59:29:86835,-11,-7,-6,18,3,3,2,-8
14:59:29:87636,-10,-10,-19,-12,-24,-11,-17,-4
14:59:29:93654,-44,-14,-16,3,4,5,3,-4
14:59:29:109432,-44,-14,-16,3,4,5,3,-4
14:59:29:110194,8,15,39,9,-5,2,6,0
14:59:29:116217,17,8,33,47,14,-6,7,8
14:59:29:124381,17,8,33,47,14,-6,7,8
14:59:29:125191,-15,-11,-25,-16,-16,-4,-8,-5
14:59:29:138724,-7,1,-11,-24,-1,9,9,-1
14:59:29:162588,-7,1,-11,-24,-1,9,9,-1
14:59:29:163354,24,4,6,18,-45,-16,-10,-2
14:59:29:164165,8,2,-1,13,-9,12,1,-1
14:59:29:169372,8,2,-1,13,-9,12,1,-1
14:59:29:170189,-30,-6,-20,-24,13,-2,3,-3
14:59:29:185022,-1,-6,1,6,1,-8,-4,-6
14:59:29:185826,-1,-6,1,6,1,-8,-4,-6
14:59:29:186642,-8,-5,-4,6,16,2,6,0
14:59:29:207606,-1,5,9,-7,6,6,3,-2
14:59:29:208408,-1,5,9,-7,6,6,3,-2
14:59:29:209229,7,-1,-12,3,17,-4,5,1
14:59:29:213674,3,-9,-15,-4,-3,1,2,0
14:59:29:229877,3,-9,-15,-4,-3,1,2,0
14:59:29:230686,-18,-2,3,2,4,1,-4,-2
14:59:29:236215,-6,-2,4,5,15,-5,-9,-3
14:59:29:244425,-6,-2,4,5,15,-5,-9,-3
14:59:29:245227,7,1,-2,0,-3,1,-14,7
14:59:29:258678,-6,1,17,1,-2,0,15,1
14:59:29:266943,-6,1,17,1,-2,0,15,1
14:59:29:267735,5,-4,-4,-9,-6,-9,-13,-3
14:59:29:273692,18,1,-8,9,7,-10,-33,-4
14:59:29:289383,18,1,-8,9,7,-10,-33,-4
14:59:29:290165,-5,-1,-8,-10,3,-1,-5,-5
14:59:29:296242,-9,-2,0,6,18,-1,0,-8
14:59:29:303719,-9,-2,0,6,18,-1,0,-8
14:59:29:311188,-2,-4,-15,7,-5,-8,7,-1
14:59:29:318718,10,3,-10,-39,-33,-17,-1,2
14:59:29:326864,10,3,-10,-39,-33,-17,-1,2
14:59:29:327725,-3,-2,8,8,-2,-8,-22,-4
14:59:29:341221,-15,-2,-5,2,-1,6,4,1
14:59:29:349435,-15,-2,-5,2,-1,6,4,1
14:59:29:350226,-6,-3,-3,3,5,-5,-15,-5
14:59:29:356199,4,1,4,1,-5,-1,-6,0
14:59:29:363781,4,1,4,1,-5,-1,-6,0
14:59:29:371220,-3,-1,5,0,14,16,18,4
14:59:29:378668,-13,1,-7,0,-4,2,9,6
14:59:29:386921,-13,1,-7,0,-4,2,9,6
14:59:29:387729,-8,6,-3,3,25,0,-5,-2
14:59:29:401211,-6,-6,-4,-6,0,-7,0,-2
14:59:29:409442,-6,-6,-4,-6,0,-7,0,-2
14:59:29:410215,7,-9,-9,-15,-27,-9,3,-6
14:59:29:416214,11,-2,-6,-3,-12,-16,-15,5
14:59:29:423846,11,-2,-6,-3,-12,-16,-15,5
14:59:29:431243,2,4,7,-1,10,5,8,1
14:59:29:438701,-9,1,15,38,0,-4,13,0
14:59:29:446887,-9,1,15,38,0,-4,13,0
14:59:29:447682,12,1,-3,-2,-8,10,4,0
14:59:29:461226,9,-5,-7,-8,4,0,0,0
14:59:29:477635,9,-5,-7,-8,4,0,0,0
14:59:29:478416,-4,3,10,-2,8,-2,6,-4
14:59:29:479243,-3,-3,0,-9,-13,-7,-2,-4
14:59:29:483776,-3,-3,0,-9,-13,-7,-2,-4
14:59:29:491241,8,-3,0,-16,-11,-1,-12,4
14:59:29:498684,1,2,-5,3,21,5,-18,-5
14:59:29:506968,1,2,-5,3,21,5,-18,-5
14:59:29:507729,1,9,-6,-3,-25,-16,-13,-5
14:59:29:521179,-5,-1,-4,-15,-21,4,-5,0
14:59:29:529468,-5,-1,-4,-15,-21,4,-5,0
14:59:29:530284,-4,5,15,32,11,5,19,5
14:59:29:536191,-46,-3,-6,6,17,7,8,-13
14:59:29:543768,-46,-3,-6,6,17,7,8,-13
14:59:29:551196,-10,-7,-7,-1,7,-4,-4,0
14:59:29:558733,30,1,-3,-5,6,10,2,1
14:59:29:566912,30,1,-3,-5,6,10,2,1
14:59:29:567681,-12,-1,-3,-9,-10,7,-8,-7
14:59:29:581190,8,-1,1,0,-7,-6,-16,9
14:59:29:589378,8,-1,1,0,-7,-6,-16,9
14:59:29:590202,6,1,-2,-7,-8,-1,-3,-4
14:59:29:596234,6,-8,-7,-26,-6,4,10,-4
14:59:29:603722,6,-8,-7,-26,-6,4,10,-4
14:59:29:611181,-6,-11,-18,-26,-6,12,15,2
14:59:29:618761,6,2,14,-11,-25,-12,-9,1
14:59:29:626875,6,2,14,-11,-25,-12,-9,1
14:59:29:627669,7,6,15,3,14,-1,6,-2
14:59:29:641220,24,9,0,11,-1,10,2,4
14:59:29:649375,24,9,0,11,-1,10,2,4
14:59:29:650226,-16,-4,-2,-3,-17,3,-3,-1
14:59:29:656205,-3,2,-5,3,7,-2,13,2
14:59:29:663738,-3,2,-5,3,7,-2,13,2
14:59:29:671209,1,-1,-5,-6,1,-13,-9,-4
14:59:29:678648,-7,-4,-4,-14,18,-4,-8,-7
14:59:29:686913,-7,-4,-4,-14,18,-4,-8,-7
14:59:29:687707,5,-2,6,4,-2,-1,6,7
14:59:29:701304,-10,-1,15,25,11,1,8,-6
14:59:29:709438,-10,-1,15,25,11,1,8,-6
14:59:29:710241,2,-5,-12,-17,6,20,-3,4
14:59:29:716209,0,-5,-14,5,13,-4,-2,-1
14:59:29:723771,0,-5,-14,5,13,-4,-2,-1
14:59:29:731238,2,2,13,14,-10,-3,10,1
14:59:29:738680,-4,3,4,-4,-5,3,-2,-1
14:59:29:746933,-4,3,4,-4,-5,3,-2,-1
14:59:29:747717,-4,-9,-9,-25,0,-2,2,-5
14:59:29:761221,3,11,8,0,-11,5,7,2
14:59:29:769420,3,11,8,0,-11,5,7,2
14:59:29:770178,-7,-4,5,14,7,-5,-9,-11
14:59:29:776214,-2,-9,-13,-16,-11,-10,-4,-1
14:59:29:783749,-2,-9,-13,-16,-11,-10,-4,-1
14:59:29:791211,2,-3,-11,19,32,2,-2,2
14:59:29:798677,-1,2,-11,-39,-9,0,-10,0
14:59:29:806894,-1,2,-11,-39,-9,0,-10,0
14:59:29:807686,-2,-5,-5,-6,-12,-12,2,-4
14:59:29:821212,4,8,1,11,12,0,-8,0
14:59:29:829486,4,8,1,11,12,0,-8,0
14:59:29:830263,14,-3,-6,-4,-4,-5,-3,2
14:59:29:836177,-4,-6,-4,27,17,2,2,-1
14:59:29:843714,-4,-6,-4,27,17,2,2,-1
14:59:29:851235,-5,0,0,-13,-27,-16,-20,-2
14:59:29:858749,7,-5,5,5,-6,-5,-3,-4
14:59:29:866903,7,-5,5,5,-6,-5,-3,-4
14:59:29:867680,-34,-4,-6,-8,-11,-6,5,3
14:59:29:881215,-5,8,20,39,-7,-1,5,-1
14:59:29:889384,-5,8,20,39,-7,-1,5,-1
14:59:29:890183,-5,-5,-16,-13,14,-10,7,-10
14:59:29:896233,-4,0,-9,5,13,8,0,-2
14:59:29:903722,-4,0,-9,5,13,8,0,-2
14:59:29:911208,10,-2,-6,5,1,7,2,3
14:59:29:918652,0,0,9,-5,-9,-4,-6,-1
14:59:29:926890,0,0,9,-5,-9,-4,-6,-1
14:59:29:927696,-13,-1,5,19,8,-4,-5,-4
14:59:29:941234,-4,-5,-6,-17,-31,2,2,3
14:59:29:950130,-4,-5,-6,-17,-31,2,2,3
14:59:29:950918,2,1,9,11,8,-20,6,-5
14:59:29:956221,8,4,11,25,10,-5,-2,2
14:59:29:963752,8,4,11,25,10,-5,-2,2
14:59:29:971228,-22,-5,0,5,8,4,-7,-3
14:59:29:978701,10,4,1,-5,-13,2,7,1
14:59:29:986874,10,4,1,-5,-13,2,7,1
14:59:29:987728,11,4,-1,-13,-14,2,19,2
14:59:30:1245,-12,-15,-22,-20,0,8,5,-5
14:59:30:9410,-12,-15,-22,-20,0,8,5,-5
14:59:30:10183,10,10,19,-4,11,6,0,2
14:59:30:16205,3,-4,-4,-11,-21,-3,2,2
14:59:30:23792,3,-4,-4,-11,-21,-3,2,2
14:59:30:31189,0,-9,-8,-7,-6,8,-14,-2
14:59:30:38675,-9,4,33,27,6,-1,-21,-4
14:59:30:46918,-9,4,33,27,6,-1,-21,-4
14:59:30:47724,13,2,-1,9,0,-2,-10,2
14:59:30:61196,13,-6,-12,-10,4,2,7,2
14:59:30:69402,13,-6,-12,-10,4,2,7,2
14:59:30:70231,19,13,8,5,-2,5,4,5
14:59:30:76221,15,1,-1,-5,6,4,9,3
14:59:30:83756,15,1,-1,-5,6,4,9,3
14:59:30:91216,1,-7,-13,-5,-1,-9,-1,1
14:59:30:98703,-12,-7,-10,-25,-37,-9,-6,-4
14:59:30:106857,-12,-7,-10,-25,-37,-9,-6,-4
14:59:30:107693,-8,1,2,9,9,9,8,0
14:59:30:121212,-7,1,0,-9,2,-1,-15,-1
14:59:30:129442,-7,1,0,-9,2,-1,-15,-1
14:59:30:130225,3,-3,6,3,-13,4,4,-2
14:59:30:136224,19,5,-4,4,-8,-10,-3,-1
14:59:30:143697,19,5,-4,4,-8,-10,-3,-1
14:59:30:151205,6,1,-4,-17,-14,-2,4,-1
14:59:30:158734,0,7,2,9,5,-9,-6,-4
14:59:30:166900,0,7,2,9,5,-9,-6,-4
14:59:30:167754,-11,-12,-9,-15,-4,-6,-15,-9
14:59:30:181236,-5,-4,-16,9,-15,-5,-10,-7
14:59:30:189355,-5,-4,-16,9,-15,-5,-10,-7
14:59:30:190164,2,9,16,19,11,7,2,3
14:59:30:196205,-30,-9,-10,-4,-21,0,3,-6
14:59:30:203710,-30,-9,-10,-4,-21,0,3,-6
14:59:30:211174,20,-4,-6,-2,-12,0,-9,1
14:59:30:218647,-1,1,0,-8,22,8,10,2
14:59:30:226231,-1,1,0,-8,22,8,10,2
14:59:30:233700,-10,-4,-4,-11,-10,-7,-5,-3
14:59:30:241211,0,1,16,13,8,-16,-24,0
14:59:30:249420,0,1,16,13,8,-16,-24,0
14:59:30:250213,-11,-6,-10,15,24,2,-2,-7
14:59:30:264900,3,-1,1,-6,17,17,16,2
14:59:30:265715,3,-1,1,-6,17,17,16,2
14:59:30:271209,-31,1,9,6,3,-7,1,3
14:59:30:278667,4,3,1,-22,6,3,1,2
14:59:30:286242,4,3,1,-22,6,3,1,2
14:59:30:293718,13,-7,-18,-2,1,-1,-17,-2
14:59:30:309810,-26,6,2,-47,-30,-8,-1,-3
14:59:30:310640,-26,6,2,-47,-30,-8,-1,-3
14:59:30:316204,11,-4,-2,-11,-15,3,14,4
14:59:30:324382,1,-7,-9,9,-19,-6,6,-9
14:59:30:325240,1,-7,-9,9,-19,-6,6,-9
14:59:30:331208,-2,2,9,-42,-1,34,13,5
14:59:30:338656,-4,-4,-5,24,10,-16,-13,-7
14:59:30:346283,-4,-4,-5,24,10,-16,-13,-7
14:59:30:353703,0,4,1,-10,-24,5,12,-1
14:59:30:361203,-20,-1,12,13,-11,1,9,5
14:59:30:369373,-20,-1,12,13,-11,1,9,5
14:59:30:370195,-3,0,9,9,-14,-6,-11,-7
14:59:30:384416,2,-8,-7,10,23,-6,-7,0
14:59:30:385235,2,-8,-7,10,23,-6,-7,0
14:59:30:391224,-7,-2,3,3,16,1,1,-2
14:59:30:398684,5,2,1,7,13,1,8,0
14:59:30:406216,5,2,1,7,13,1,8,0
14:59:30:413780,5,0,11,40,15,-5,-5,1
14:59:30:421192,4,-3,3,6,30,10,-6,0
14:59:30:429401,4,-3,3,6,30,10,-6,0
14:59:30:430160,-4,3,-4,10,-29,-9,2,-4
14:59:30:444324,7,-4,6,-9,-14,-6,-6,-1
14:59:30:445182,7,-4,6,-9,-14,-6,-6,-1
14:59:30:451202,1,8,3,1,14,-16,-14,3
14:59:30:458713,-31,-12,-23,-23,-22,5,6,-5
14:59:30:466199,-31,-12,-23,-23,-22,5,6,-5
14:59:30:473641,2,-1,2,-4,-4,7,8,2
14:59:30:481246,15,0,-5,4,27,2,-14,2
14:59:30:489362,15,0,-5,4,27,2,-14,2
14:59:30:490212,-10,-1,-5,-5,-8,-20,-10,-4
14:59:30:504387,3,-2,4,-1,1,4,-1,0
14:59:30:505256,3,-2,4,-1,1,4,-1,0
14:59:30:511175,4,-9,-17,0,5,7,9,0
14:59:30:518652,5,6,12,13,9,7,3,-1
14:59:30:526270,5,6,12,13,9,7,3,-1
14:59:30:533716,-3,-2,3,23,35,0,-20,-2
14:59:30:541221,-2,-2,-8,-8,-30,-12,-4,0
14:59:30:549428,-2,-2,-8,-8,-30,-12,-4,0
14:59:30:550211,-2,12,-1,-22,-17,-3,15,-7
14:59:30:564362,16,-1,-15,-35,-11,3,3,2
14:59:30:565217,16,-1,-15,-35,-11,3,3,2
14:59:30:571248,-2,1,8,-5,5,1,-1,1
14:59:30:578666,-10,-7,-7,-9,-7,-1,3,-5
14:59:30:586251,-10,-7,-7,-9,-7,-1,3,-5
14:59:30:593679,-13,-11,-14,-6,1,1,6,-2
14:59:30:601271,6,6,6,8,15,-3,-2,5
14:59:30:609425,6,6,6,8,15,-3,-2,5
14:59:30:610187,3,-4,-4,-5,-22,0,-4,-7
14:59:30:624402,-7,4,13,0,0,-3,1,-2
14:59:30:625246,-7,4,13,0,0,-3,1,-2
14:59:30:631174,3,0,1,1,3,15,1,6
14:59:30:638650,-5,-12,-27,-42,11,3,-19,-6
14:59:30:646236,-5,-12,-27,-42,11,3,-19,-6
14:59:30:653687,-1,2,16,26,10,-12,-2,1
14:59:30:661207,2,-5,-9,15,-15,-11,11,-1
14:59:30:669360,2,-5,-9,15,-15,-11,11,-1
14:59:30:670193,-1,-4,-20,-3,10,1,-1,-3
14:59:30:684435,6,7,20,24,16,16,21,8
14:59:30:685247,6,7,20,24,16,16,21,8
14:59:30:691219,-6,-5,1,3,-29,-6,1,-3
14:59:30:698656,16,4,-1,-15,-1,3,1,1
14:59:30:706215,16,4,-1,-15,-1,3,1,1
14:59:30:713712,22,-8,-17,-17,15,9,-8,-1
14:59:30:721180,-22,-10,-13,-4,-17,-3,-1,-4
14:59:30:729446,-22,-10,-13,-4,-17,-3,-1,-4
14:59:30:730225,-3,0,-3,-19,-16,-16,-5,0
14:59:30:744345,4,0,-4,1,7,0,3,-13
14:59:30:745213,4,0,-4,1,7,0,3,-13
14:59:30:751219,-13,0,-1,-12,-15,2,3,-3
14:59:30:758730,-3,-2,-2,9,27,-8,5,3
14:59:30:766248,-3,-2,-2,9,27,-8,5,3
14:59:30:773656,-3,-3,-8,-8,-21,0,-2,-2
14:59:30:781225,-1,9,8,-11,-13,7,-10,-1
14:59:30:789396,-1,9,8,-11,-13,7,-10,-1
14:59:30:790235,4,17,21,2,-9,-13,-1,1
14:59:30:804435,-3,-3,-9,6,7,0,-8,0
14:59:30:805236,-3,-3,-9,6,7,0,-8,0
14:59:30:811176,-1,-12,-31,-23,-22,0,-14,-1
14:59:30:818670,2,12,21,23,-12,-3,-7,-1
14:59:30:826250,2,12,21,23,-12,-3,-7,-1
14:59:30:833700,2,0,-3,-6,11,-2,0,-3
14:59:30:841223,30,-3,-10,-7,-46,-19,-8,4
14:59:30:849442,30,-3,-10,-7,-46,-19,-8,4
14:59:30:850234,-45,-13,-3,-9,4,6,8,-1
14:59:30:864416,-3,1,8,8,16,9,16,-2
14:59:30:865207,-3,1,8,8,16,9,16,-2
14:59:30:871206,-3,0,6,17,14,-4,-4,0
14:59:30:878658,-10,-4,2,-16,6,1,-3,2
14:59:30:886224,-10,-4,2,-16,6,1,-3,2
14:59:30:893689,5,8,8,-11,-1,-6,-1,-1
14:59:30:901190,1,-8,-15,5,18,-1,15,-2
14:59:30:909813,1,-8,-15,5,18,-1,15,-2
14:59:30:916204,2,-13,-6,14,8,-15,-18,-5
14:59:30:924334,-10,7,6,-11,-7,5,6,-1
14:59:30:925186,-10,7,6,-11,-7,5,6,-1
14:59:30:931220,5,2,4,10,15,9,-2,2
14:59:30:938678,-10,-4,-2,9,18,2,-2,2
14:59:30:946198,-10,-4,-2,9,18,2,-2,2
14:59:30:953672,7,-8,5,-18,-2,13,-2,-5
14:59:30:961205,-15,2,2,-3,-3,-13,-9,-2
14:59:30:969384,-15,2,2,-3,-3,-13,-9,-2
14:59:30:970177,0,5,8,7,6,0,9,-2
14:59:30:992538,13,-1,-9,-28,-1,3,14,5
14:59:30:993338,13,-1,-9,-28,-1,3,14,5
14:59:30:994194,3,0,-12,-4,10,0,5,0
14:59:30:998724,0,2,2,5,0,-1,2,0
14:59:31:6218,0,2,2,5,0,-1,2,0
14:59:31:13713,-7,-10,-3,15,13,2,-1,-1
14:59:31:21204,-2,-8,1,-5,-17,4,-11,-2
14:59:31:29402,-2,-8,1,-5,-17,4,-11,-2
14:59:31:30185,-8,3,-5,-6,-11,-5,5,-2
14:59:31:44346,1,5,12,7,-5,2,-12,-4
14:59:31:45177,1,5,12,7,-5,2,-12,-4
14:59:31:51203,-6,0,0,-10,-42,-9,-3,-4
14:59:31:58720,-2,-2,-10,0,14,-13,-10,-3
14:59:31:66258,-2,-2,-10,0,14,-13,-10,-3
14:59:31:73670,9,6,5,14,12,-4,0,4
14:59:31:81251,-5,-12,-9,27,5,4,0,-6
14:59:31:89206,-5,-12,-9,27,5,4,0,-6
14:59:31:96210,-5,3,17,-4,3,5,3,5
14:59:31:104417,-33,-4,2,12,-35,1,11,0
14:59:31:105238,-33,-4,2,12,-35,1,11,0
14:59:31:111226,0,-3,-10,9,15,-1,2,-1
14:59:31:118743,16,3,0,-3,6,-3,-13,-1
14:59:31:126285,16,3,0,-3,6,-3,-13,-1
14:59:31:133711,6,3,8,-3,6,10,3,3
14:59:31:141226,-1,-1,11,-4,0,-7,0,-2
14:59:31:149393,-1,-1,11,-4,0,-7,0,-2
14:59:31:150200,-10,-4,1,16,19,-7,-4,-12
14:59:31:165000,8,8,19,33,26,-3,-6,4
14:59:31:165785,8,8,19,33,26,-3,-6,4
14:59:31:171187,5,-3,-15,-25,-43,-5,5,-1
14:59:31:186584,-19,-5,-22,-9,-10,-11,-6,0
14:59:31:194420,-19,-5,-22,-9,-10,-11,-6,0
14:59:31:195190,2,10,6,15,20,-3,-2,3
14:59:31:201200,0,-3,2,-13,-12,1,-3,0
14:59:31:216901,0,-3,2,-13,-12,1,-3,0
14:59:31:217705,19,-3,7,1,-4,-1,-3,0
14:59:31:224407,13,5,5,-6,7,-1,-10,-4
14:59:31:225216,13,5,5,-6,7,-1,-10,-4
14:59:31:231223,3,-4,8,13,11,4,-16,2
14:59:31:247416,-31,-11,-11,-6,-2,7,17,-1
14:59:31:248182,-31,-11,-11,-6,-2,7,17,-1
14:59:31:253694,-15,-3,-14,-31,-37,-19,4,-1
14:59:31:261237,8,3,4,-4,14,-14,-1,2
14:59:31:268760,8,3,4,-4,14,-14,-1,2
14:59:31:276270,2,-2,-12,-7,-6,0,4,2
14:59:31:284381,9,0,5,16,20,13,2,-1
14:59:31:285222,9,0,5,16,20,13,2,-1
14:59:31:291231,-15,-10,-11,5,8,-3,-4,-6
14:59:31:306916,-1,2,-2,-2,-5,2,-4,0
14:59:31:307739,-1,2,-2,-2,-5,2,-4,0
14:59:31:313684,8,2,-9,-11,-15,9,10,0
14:59:31:321194,18,13,37,-7,-1,-8,-4,2
14:59:31:328779,18,13,37,-7,-1,-8,-4,2
14:59:31:336196,3,7,8,3,12,-16,-10,0
14:59:31:344384,-17,-10,-24,-10,8,6,-12,-4
14:59:31:345227,-17,-10,-24,-10,8,6,-12,-4
14:59:31:351225,-5,1,14,-14,0,0,0,-3
14:59:31:366930,5,1,-1,22,-16,2,0,-4
14:59:31:367726,5,1,-1,22,-16,2,0,-4
14:59:31:373699,-2,-4,-7,-1,-7,4,-1,-1
14:59:31:381232,14,2,-4,-5,-13,-2,1,-1
14:59:31:388715,14,2,-4,-5,-13,-2,1,-1
14:59:31:396194,14,1,-4,2,-20,-2,-1,2
14:59:31:404363,-15,-8,-12,-19,10,1,-3,-4
14:59:31:405223,-15,-8,-12,-19,10,1,-3,-4
14:59:31:411237,11,-4,2,2,8,-4,-13,-3
14:59:31:426830,-7,-2,-14,-3,17,4,17,3
14:59:31:427733,-7,-2,-14,-3,17,4,17,3
14:59:31:433664,4,-1,7,30,28,1,8,-5
14:59:31:441207,10,-3,-6,-1,-5,-1,-14,-6
14:59:31:448734,10,-3,-6,-1,-5,-1,-14,-6
14:59:31:456243,-38,-7,8,-1,9,9,-1,-11
14:59:31:464392,-3,-2,3,-8,-5,-6,1,-1
14:59:31:465241,-3,-2,3,-8,-5,-6,1,-1
14:59:31:471191,-6,2,-5,1,-11,-12,-3,3
14:59:31:486879,3,-5,1,0,-8,-3,7,3
14:59:31:487711,3,-5,1,0,-8,-3,7,3
14:59:31:501893,3,0,-11,-17,2,12,4,-1
14:59:31:502620,6,2,-6,17,11,5,-13,-1
14:59:31:508725,6,2,-6,17,11,5,-13,-1
14:59:31:516183,2,3,2,-4,21,-10,-14,7
14:59:31:524411,-8,-6,-2,-9,-25,-5,-13,-11
14:59:31:525239,-8,-6,-2,-9,-25,-5,-13,-11
14:59:31:531206,-4,1,-1,0,-13,4,5,-1
14:59:31:546867,-4,-1,0,-10,-5,5,9,0
14:59:31:547713,-4,-1,0,-10,-5,5,9,0
14:59:31:553659,7,3,15,24,-13,4,5,2
14:59:31:561189,3,5,-3,6,-7,-2,11,4
14:59:31:568794,3,5,-3,6,-7,-2,11,4
14:59:31:576189,1,-4,-9,2,5,2,-19,0
14:59:31:584393,-1,2,-2,-13,-17,11,0,1
14:59:31:585213,-1,2,-2,-13,-17,11,0,1
14:59:31:591210,15,-3,-7,-17,-8,-4,3,-3
14:59:31:606872,-19,-9,-8,-13,-2,-5,-1,1
14:59:31:607716,-19,-9,-8,-13,-2,-5,-1,1
14:59:31:613715,-1,3,16,39,-3,-4,-1,-4
14:59:31:621236,16,4,7,-1,7,-6,4,3
14:59:31:628743,16,4,7,-1,7,-6,4,3
14:59:31:636211,-11,-5,-18,-53,-20,15,3,2
14:59:31:644315,-1,-1,15,-7,-32,1,-3,-2
14:59:31:645178,-1,-1,15,-7,-32,1,-3,-2
14:59:31:651218,4,6,-6,-4,-4,11,12,6
14:59:31:666923,-6,-17,-7,-1,-9,-19,-13,-11
14:59:31:667713,-6,-17,-7,-1,-9,-19,-13,-11
14:59:31:673697,2,3,10,7,8,-13,-4,4
14:59:31:681196,4,-2,-8,-2,4,-14,-23,-8
14:59:31:688764,4,-2,-8,-2,4,-14,-23,-8
14:59:31:696199,-2,-1,-6,0,17,0,0,1
14:59:31:704376,4,11,-4,6,23,9,13,3
14:59:31:705190,4,11,-4,6,23,9,13,3
14:59:31:711214,-17,-5,-9,3,14,-6,4,-1
14:59:31:726808,3,-2,6,7,-13,5,9,-2
14:59:31:727658,3,-2,6,7,-13,5,9,-2
14:59:31:733707,-25,-8,-5,-4,-10,-4,0,-3
14:59:31:741229,4,-2,-8,15,27,8,13,5
14:59:31:748718,4,-2,-8,15,27,8,13,5
14:59:31:756131,-3,-5,-7,12,1,-7,-6,-15
14:59:31:772297,-11,3,-10,-14,2,0,10,-2
14:59:31:773218,-11,3,-10,-14,2,0,10,-2
14:59:31:778751,-2,-2,9,4,-23,12,10,0
14:59:31:795072,0,1,2,2,-16,3,-14,-5
14:59:31:795889,0,1,2,2,-16,3,-14,-5
14:59:31:796689,3,-1,-6,-14,8,0,2,-6
14:59:31:801205,7,0,10,25,6,-9,-12,0
14:59:31:808718,7,0,10,25,6,-9,-12,0
14:59:31:816227,9,6,2,-6,14,7,-5,6
14:59:31:824412,9,6,2,-6,14,7,-5,6
14:59:31:825199,-20,0,-4,-27,-8,-7,-4,2
14:59:31:831216,1,-11,-9,-3,19,1,-1,1
14:59:31:846876,1,-11,-9,-3,19,1,-1,1
14:59:31:847685,31,-5,-6,6,-2,3,0,0
14:59:31:853693,3,1,6,2,-15,-13,-15,2
14:59:31:869382,3,1,6,2,-15,-13,-15,2
14:59:31:870188,8,0,-5,1,26,-6,-8,-3
14:59:31:876207,17,0,1,-6,1,-2,2,0
