Time,EMG1,EMG2,EMG3,EMG4,EMG5,EMG6,EMG7,EMG8
13:30:04:744154,-2,-2,-1,0,-2,-2,0,-1
13:30:04:752393,-2,-2,-1,0,-2,-2,0,-1
13:30:04:753194,-2,-2,-3,-9,-7,-4,-2,-1
13:30:04:759172,1,0,0,1,-2,-2,0,-2
13:30:04:774837,1,0,0,1,-2,-2,0,-2
13:30:04:775635,-1,-1,0,2,1,1,0,-2
13:30:04:781624,0,-1,-1,4,-3,-2,-2,-1
13:30:04:797347,0,-1,-1,4,-3,-2,-2,-1
13:30:04:798192,0,-2,-2,1,-2,-1,-2,0
13:30:04:804084,-2,-1,1,1,1,-1,-1,-1
13:30:04:812356,-2,-1,1,1,1,-1,-1,-1
13:30:04:813197,-2,0,-1,-4,0,-2,0,-2
13:30:04:819111,0,0,-2,-1,4,0,0,-2
13:30:04:834829,0,0,-2,-1,4,0,0,-2
13:30:04:835642,-2,0,-2,1,-3,0,-2,-1
13:30:04:841601,-2,-1,2,4,1,1,0,1
13:30:04:857334,-2,-1,2,4,1,1,0,1
13:30:04:858197,-1,-3,-1,-1,2,0,-1,-1
13:30:04:864202,-2,-2,-1,-4,-1,0,-1,-1
13:30:04:872323,-2,-2,-1,-4,-1,0,-1,-1
13:30:04:873204,-1,0,0,3,0,-1,-2,-1
13:30:04:879091,-2,-1,-3,-6,-1,-1,-2,0
13:30:04:894837,-2,-1,-3,-6,-1,-1,-2,0
13:30:04:895609,-1,0,1,3,-6,-2,-2,-1
13:30:04:909193,-2,-4,-2,-7,1,-2,1,0
13:30:04:917324,-2,-4,-2,-7,1,-2,1,0
13:30:04:918187,-1,-1,-3,-12,-1,-1,-2,-2
13:30:04:924199,0,1,-2,0,-3,1,0,-1
13:30:04:932317,0,1,-2,0,-3,1,0,-1
13:30:04:933212,2,-1,1,3,-1,-1,-1,0
13:30:04:946657,-1,0,0,5,-2,-4,-2,-1
13:30:04:955276,-1,0,0,5,-2,-4,-2,-1
13:30:04:962273,-1,0,-4,0,2,0,-1,1
13:30:04:963066,1,2,1,3,-1,1,-3,2
13:30:04:977118,1,2,1,3,-1,1,-3,2
13:30:04:984819,-3,0,-1,7,0,-1,1,-1
13:30:04:985630,-2,-2,-4,6,1,0,-2,-2
13:30:04:992357,-2,-2,-4,6,1,0,-2,-2
13:30:04:993174,-1,-3,-1,-5,2,0,-1,-2
13:30:04:999108,-1,-3,2,10,-2,-2,-1,-3
13:30:05:14857,-1,-3,2,10,-2,-2,-1,-3
13:30:05:15615,0,0,-2,1,0,-1,0,-1
13:30:05:29115,0,-1,-1,-3,2,0,-2,-1
13:30:05:37362,0,-1,-1,-3,2,0,-2,-1
13:30:05:38205,0,-2,-1,0,-3,-2,-2,-1
13:30:05:44206,0,5,2,-4,-2,1,2,0
13:30:05:52378,0,5,2,-4,-2,1,2,0
13:30:05:53202,-1,-2,-3,-6,1,1,-1,-1
13:30:05:59205,-1,0,-2,-7,0,-1,-2,-3
13:30:05:74894,-1,0,-2,-7,0,-1,-2,-3
13:30:05:75680,-4,-6,-5,-6,-2,0,-1,-1
13:30:05:81666,0,-6,4,10,1,0,0,1
13:30:05:97366,0,-6,4,10,1,0,0,1
13:30:05:98193,0,-1,1,6,-2,-4,-2,1
13:30:05:104126,-1,-2,1,-1,-1,-3,-2,-3
13:30:05:112360,-1,-2,1,-1,-1,-3,-2,-3
13:30:05:113213,-1,-2,-6,-29,-6,-3,-1,-1
13:30:05:119215,-2,0,-4,-2,-3,0,-1,0
13:30:05:134896,-2,0,-4,-2,-3,0,-1,0
13:30:05:135680,0,1,2,2,0,-1,-1,-1
13:30:05:141632,-1,-6,-2,-26,-6,0,-1,0
13:30:05:165505,-1,-6,-2,-26,-6,0,-1,0
13:30:05:166302,1,3,-3,5,0,-3,-2,-2
13:30:05:167099,-3,-2,-4,0,-2,-3,-3,-2
13:30:05:172328,-3,-2,-4,0,-2,-3,-3,-2
13:30:05:173168,3,9,-1,1,-2,0,-1,1
13:30:05:179116,-2,-7,-4,-1,0,1,1,0
13:30:05:194827,-2,-7,-4,-1,0,1,1,0
13:30:05:195645,-1,0,1,5,4,0,-1,0
13:30:05:201597,-2,4,-2,-3,-2,-1,-1,-2
13:30:05:217344,-2,4,-2,-3,-2,-1,-1,-2
13:30:05:218213,-1,-3,1,-1,-1,-1,-1,-2
13:30:05:224194,1,-1,0,1,-1,-2,0,1
13:30:05:232352,1,-1,0,1,-1,-2,0,1
13:30:05:233219,-3,-6,-1,-2,3,-1,-1,-3
13:30:05:246646,-2,5,1,6,1,-1,-3,-1
13:30:05:254837,-2,5,1,6,1,-1,-3,-1
13:30:05:255626,-2,-7,2,5,0,0,-1,-3
13:30:05:261670,4,14,0,-8,0,-3,-3,0
13:30:05:278051,4,14,0,-8,0,-3,-3,0
13:30:05:278821,-3,6,-4,-2,-3,-3,-1,-1
13:30:05:284178,0,-6,-3,-4,-1,-1,-1,-2
13:30:05:292370,0,-6,-3,-4,-1,-1,-1,-2
13:30:05:293185,-1,-3,-1,0,0,-1,-2,0
13:30:05:306604,-2,-2,-2,2,1,0,-2,-2
13:30:05:314825,-2,-2,-2,2,1,0,-2,-2
13:30:05:315633,-1,-2,0,-2,-4,0,0,0
13:30:05:329130,-2,-4,0,3,0,1,2,0
13:30:05:346194,-2,-4,0,3,0,1,2,0
13:30:05:346990,0,2,-1,-2,0,-1,-1,0
13:30:05:347812,-2,-6,-1,-8,-2,-2,0,-1
13:30:05:352413,-2,-6,-1,-8,-2,-2,0,-1
13:30:05:353187,-2,1,-1,0,3,-1,0,0
13:30:05:359157,-1,1,0,0,-1,-2,-3,1
13:30:05:374569,-1,1,0,0,-1,-2,-3,1
13:30:05:382295,-2,-2,0,-2,-2,0,-1,-3
13:30:05:383061,0,2,-4,-4,-4,-4,-1,-1
13:30:05:397330,0,2,-4,-4,-4,-4,-1,-1
13:30:05:398198,0,1,3,0,0,2,-2,-2
13:30:05:404113,-4,-16,1,1,1,-1,0,2
13:30:05:412340,-4,-16,1,1,1,-1,0,2
13:30:05:413266,2,-1,5,5,3,1,1,1
13:30:05:419092,-2,1,-4,-8,1,0,-1,0
13:30:05:434837,-2,1,-4,-8,1,0,-1,0
13:30:05:435605,0,-10,-9,-15,-7,-6,-4,0
13:30:05:441614,1,-2,-5,0,0,-2,-1,-1
13:30:05:457358,1,-2,-5,0,0,-2,-1,-1
13:30:05:458191,-1,-10,7,4,2,-1,-1,1
13:30:05:464193,0,1,-3,4,-1,-1,-4,-2
13:30:05:472324,0,1,-3,4,-1,-1,-4,-2
13:30:05:473193,-2,10,-4,-1,-1,-2,0,-3
13:30:05:486696,0,-2,2,2,-1,1,0,-1
13:30:05:494828,0,-2,2,2,-1,1,0,-1
13:30:05:495621,-1,2,0,-1,-1,0,1,-3
13:30:05:501595,-1,3,-5,-3,-1,-2,-2,-2
13:30:05:509220,-1,3,-5,-3,-1,-2,-2,-2
13:30:05:516602,-2,2,0,2,-1,-1,-1,1
13:30:05:524106,-1,-2,1,0,-2,1,1,0
13:30:05:532352,-1,-2,1,0,-2,1,1,0
13:30:05:533202,-1,-7,-1,1,-2,0,-1,-1
13:30:05:546603,-2,2,-1,-3,-3,-2,-2,-2
13:30:05:554832,-2,2,-1,-3,-3,-2,-2,-2
13:30:05:555635,0,2,-3,-3,-1,0,-2,-3
13:30:05:561600,-2,0,-1,-1,1,-1,0,-1
13:30:05:569209,-2,0,-1,-1,1,-1,0,-1
13:30:05:576632,0,0,0,0,-1,-2,0,-1
13:30:05:584128,-1,4,2,6,0,-1,1,0
13:30:05:592359,-1,4,2,6,0,-1,1,0
13:30:05:593192,-2,-4,-2,10,0,0,-1,-2
13:30:05:606589,0,1,1,2,-1,0,-1,-1
13:30:05:614887,0,1,1,2,-1,0,-1,-1
13:30:05:615649,-2,-7,-2,-1,0,-2,-2,0
13:30:05:629883,-3,-4,0,-3,0,0,0,0
13:30:05:630643,-3,-4,0,-3,0,0,0,0
13:30:05:636643,-1,-1,0,-11,-2,-1,0,-1
13:30:05:644107,0,-2,-2,-2,1,-3,-1,1
13:30:05:652344,0,-2,-2,-2,1,-3,-1,1
13:30:05:653208,-1,2,-3,-1,-1,0,0,0
13:30:05:666598,-1,-1,4,0,0,1,0,-1
13:30:05:674831,-1,-1,4,0,0,1,0,-1
13:30:05:675643,-2,-5,1,-3,-1,-3,-2,-1
13:30:05:681619,1,2,-2,-3,-1,-2,0,-2
13:30:05:689206,1,2,-2,-3,-1,-2,0,-2
13:30:05:696630,-1,0,-2,0,2,1,-1,-2
13:30:05:704116,0,1,-2,-3,-3,-3,-3,-2
13:30:05:712390,0,1,-2,-3,-3,-3,-3,-2
13:30:05:713219,-2,-2,0,2,-2,1,2,1
13:30:05:735477,-2,-3,-1,1,-3,1,-2,0
13:30:05:736307,-2,-3,-1,1,-3,1,-2,0
13:30:05:737110,0,2,-4,-4,-3,-3,-4,-1
13:30:05:741606,-2,-3,-2,0,1,-2,0,-1
13:30:05:749216,-2,-3,-2,0,1,-2,0,-1
13:30:05:756647,-2,1,-3,0,-1,-2,-2,-1
13:30:05:764137,1,-2,-2,0,-2,-2,-2,-1
13:30:05:772367,1,-2,-2,0,-2,-2,-2,-1
13:30:05:773202,-1,0,-1,-1,0,0,1,0
13:30:05:786598,0,-2,0,0,1,-1,0,-1
13:30:05:794848,0,-2,0,0,1,-1,0,-1
13:30:05:795661,0,-1,0,1,1,-1,0,-1
13:30:05:801640,-2,-4,-7,-12,-5,-3,-1,-4
13:30:05:809226,-2,-4,-7,-12,-5,-3,-1,-4
13:30:05:816648,-2,-2,-3,-4,-2,0,0,-1
13:30:05:824148,-1,-1,1,-2,0,1,-1,1
13:30:05:832320,-1,-1,1,-2,0,1,-1,1
13:30:05:833113,1,-1,-3,1,1,0,-1,0
13:30:05:855246,-1,0,5,-1,-2,1,0,-1
13:30:05:856068,-1,0,5,-1,-2,1,0,-1
13:30:05:862283,0,0,2,0,-2,-3,-1,0
13:30:05:863082,0,-2,2,4,0,-3,-2,-1
13:30:05:869226,0,-2,2,4,0,-3,-2,-1
13:30:05:876670,0,0,0,-3,-2,-2,-2,-2
13:30:05:884149,-3,-1,1,6,-5,-4,-2,-2
13:30:05:892372,-3,-1,1,6,-5,-4,-2,-2
13:30:05:893204,0,0,-3,-1,0,0,-1,-1
13:30:05:906595,2,3,-4,-1,0,0,1,-2
13:30:05:914876,2,3,-4,-1,0,0,1,-2
13:30:05:915640,-1,-5,-1,0,-6,-5,-2,-1
13:30:05:929842,-1,-1,-7,3,13,7,1,0
13:30:05:930652,-1,-1,-7,3,13,7,1,0
13:30:05:936625,3,20,11,-10,2,3,2,1
13:30:05:944123,-4,-7,3,0,-5,-6,-1,2
13:30:05:952354,-4,-7,3,0,-5,-6,-1,2
13:30:05:953227,0,2,8,9,2,1,-1,0
13:30:05:966607,-1,-7,-17,-6,-10,-4,-3,-1
13:30:05:974841,-1,-7,-17,-6,-10,-4,-3,-1
13:30:05:975636,4,1,-4,8,2,8,2,0
13:30:05:981623,-2,-10,-2,-7,4,3,1,3
13:30:05:989220,-2,-10,-2,-7,4,3,1,3
13:30:05:996665,-2,5,14,3,5,3,2,-1
13:30:06:13008,-3,4,17,-5,8,-8,-6,-9
13:30:06:13865,-3,4,17,-5,8,-8,-6,-9
13:30:06:14625,-1,-1,5,16,7,-9,-3,-3
13:30:06:26611,-1,0,15,-1,18,2,-1,-4
13:30:06:34879,-1,0,15,-1,18,2,-1,-4
13:30:06:35653,-5,-15,-16,4,62,35,6,-3
13:30:06:41629,1,7,-5,-6,-15,-10,-3,-2
13:30:06:49236,1,7,-5,-6,-15,-10,-3,-2
13:30:06:56632,-1,3,-1,-6,-24,-18,-6,-1
13:30:06:64131,-1,3,-6,6,18,19,4,-3
13:30:06:72360,-1,3,-6,6,18,19,4,-3
13:30:06:73198,-1,-14,2,-4,-23,-8,-2,2
13:30:06:86617,2,5,-4,7,-3,8,-1,-3
13:30:06:111254,2,5,-4,7,-3,8,-1,-3
13:30:06:111961,-4,-2,-15,2,-1,-3,-2,-1
13:30:06:112788,-2,-6,-6,-6,3,-2,-2,1
13:30:06:113628,-2,-6,-6,-6,3,-2,-2,1
13:30:06:116614,2,3,-1,-20,-15,-6,-2,0
13:30:06:132958,0,5,5,-13,-17,-5,0,3
13:30:06:133749,0,5,5,-13,-17,-5,0,3
13:30:06:134570,-4,-6,-4,5,-13,-14,-4,1
13:30:06:154604,1,-4,-6,8,26,3,-1,1
13:30:06:163040,1,-4,-6,8,26,3,-1,1
13:30:06:163798,-1,2,1,-5,-10,-2,-1,1
13:30:06:164618,0,1,-12,-7,-9,-8,-1,5
13:30:06:177366,0,1,-12,-7,-9,-8,-1,5
13:30:06:178215,-2,-1,3,2,2,-6,-3,0
13:30:06:184116,1,-3,4,-11,-21,-6,1,1
13:30:06:192348,1,-3,4,-11,-21,-6,1,1
13:30:06:193213,-4,-5,-11,2,-5,-2,-3,-1
13:30:06:206611,-6,-16,-4,6,-11,-8,-7,0
13:30:06:214862,-6,-16,-4,6,-11,-8,-7,0
13:30:06:215637,0,-1,5,6,2,2,-2,-5
13:30:06:221640,1,-2,7,14,-5,-3,-1,-4
13:30:06:229221,1,-2,7,14,-5,-3,-1,-4
13:30:06:236670,5,-8,7,9,-1,-3,0,4
13:30:06:244111,-2,5,-10,2,1,5,1,-5
13:30:06:252370,-2,5,-10,2,1,5,1,-5
13:30:06:253199,-15,10,7,-23,1,3,2,12
13:30:06:266631,10,-9,-30,-34,-8,-4,15,20
13:30:06:274887,10,-9,-30,-34,-8,-4,15,20
13:30:06:275650,-3,-1,-34,-18,0,5,4,-7
13:30:06:281590,22,6,2,12,-6,-5,-14,2
13:30:06:289226,22,6,2,12,-6,-5,-14,2
13:30:06:296658,18,0,7,16,12,4,2,2
13:30:06:304143,9,0,-11,7,2,2,-1,6
13:30:06:312309,9,0,-11,7,2,2,-1,6
13:30:06:313110,-39,-4,-8,-16,-9,-4,-9,-6
13:30:06:326622,-22,0,15,6,4,0,1,-4
13:30:06:334859,-22,0,15,6,4,0,1,-4
13:30:06:335661,-11,-6,4,4,0,2,12,-7
13:30:06:341631,26,3,5,-9,-2,-2,0,6
13:30:06:349230,26,3,5,-9,-2,-2,0,6
13:30:06:356683,2,1,-10,-14,-6,-8,-11,-7
13:30:06:364132,-14,0,10,6,-5,-4,-10,-7
13:30:06:371654,-14,0,10,6,-5,-4,-10,-7
13:30:06:379121,21,4,2,4,1,0,1,3
13:30:06:386609,-15,-2,-1,-1,-1,-1,-6,-16
13:30:06:395525,-15,-2,-1,-1,-1,-1,-6,-16
13:30:06:396355,-6,-11,4,2,-2,-2,0,-2
13:30:06:410479,-6,-13,-9,-19,-6,-3,-2,-6
13:30:06:411265,-6,-13,-9,-19,-6,-3,-2,-6
13:30:06:416626,-1,1,13,1,-1,-5,-1,-3
13:30:06:424154,-6,9,8,6,4,0,3,-2
13:30:06:431695,-6,9,8,6,4,0,3,-2
13:30:06:439139,13,-4,-11,-2,-10,-7,-5,1
13:30:06:446599,-8,-1,-3,-1,-2,1,2,0
13:30:06:454602,-8,-1,-3,-1,-2,1,2,0
13:30:06:461614,0,-9,-22,-9,-7,-5,-6,-2
13:30:06:469831,-3,-1,2,-1,1,3,1,-2
13:30:06:470648,-3,-1,2,-1,1,3,1,-2
13:30:06:476614,-1,4,3,-1,16,9,0,-1
13:30:06:484146,3,-1,2,0,-5,-4,1,-1
13:30:06:491728,3,-1,2,0,-5,-4,1,-1
13:30:06:499145,-2,2,8,-7,9,2,1,-1
13:30:06:506673,-1,3,5,4,-9,-5,-2,-1
13:30:06:514824,-1,3,5,4,-9,-5,-2,-1
13:30:06:515617,0,2,4,7,3,2,-2,-3
13:30:06:529792,-2,2,-1,-2,-3,-5,-3,-2
13:30:06:530621,-2,2,-1,-2,-3,-5,-3,-2
13:30:06:536647,2,0,0,2,-5,1,0,-1
13:30:06:544149,-4,-3,1,3,4,3,-1,-5
13:30:06:551664,-4,-3,1,3,4,3,-1,-5
13:30:06:559232,0,-1,3,-2,-2,-3,-1,0
13:30:06:566687,-1,2,-2,2,2,2,0,0
13:30:06:574874,-1,2,-2,2,2,2,0,0
13:30:06:575633,0,0,0,0,-5,-1,1,-3
13:30:06:589807,-2,-3,-1,-1,1,0,-2,0
13:30:06:590660,-2,-3,-1,-1,1,0,-2,0
13:30:06:596608,-1,4,10,4,2,6,4,-8
13:30:06:604094,5,6,15,-32,19,-3,9,31
13:30:06:611692,5,6,15,-32,19,-3,9,31
13:30:06:619112,2,0,-6,-3,-4,-7,-3,6
13:30:06:635449,-7,-6,-9,2,-9,-5,-6,-7
13:30:06:636268,-7,-6,-9,2,-9,-5,-6,-7
13:30:06:637094,-4,12,-5,0,-12,-6,-5,-8
13:30:06:650269,-3,-18,-5,3,-14,-3,-4,-20
13:30:06:651101,-3,-18,-5,3,-14,-3,-4,-20
13:30:06:656632,-5,-14,11,0,7,0,-4,0
13:30:06:664166,-6,-18,-2,8,-2,0,0,-3
13:30:06:671663,-6,-18,-2,8,-2,0,0,-3
13:30:06:679139,0,3,1,-5,-2,-1,4,7
13:30:06:694592,4,-4,-5,3,3,2,2,-2
13:30:06:702315,4,-4,-5,3,3,2,2,-2
13:30:06:703111,2,-1,3,3,-1,-2,-2,-6
13:30:06:709820,3,17,0,-3,-2,-1,-6,-9
13:30:06:710648,3,17,0,-3,-2,-1,-6,-9
13:30:06:724803,-2,-12,-9,-1,-2,-1,0,3
13:30:06:725610,3,-3,-7,1,0,1,4,5
13:30:06:731671,3,-3,-7,1,0,1,4,5
13:30:06:739216,-9,1,-6,-7,-1,-5,-15,-36
13:30:06:746666,-4,10,4,0,-2,-1,-3,-4
13:30:06:754650,-4,10,4,0,-2,-1,-3,-4
13:30:06:761659,2,4,0,4,4,6,13,20
13:30:06:769806,-5,1,-6,-2,1,-4,-9,-26
13:30:06:770621,-5,1,-6,-2,1,-4,-9,-26
13:30:06:776611,7,0,-2,13,21,7,2,12
13:30:06:784119,-10,-20,6,-2,1,2,2,5
13:30:06:791682,-10,-20,6,-2,1,2,2,5
13:30:06:799152,-3,-39,-9,-7,-4,-4,-3,1
13:30:06:806625,2,3,0,5,2,5,4,9
13:30:06:814886,2,3,0,5,2,5,4,9
13:30:06:815668,6,9,0,-7,-13,-3,10,25
13:30:06:829866,13,17,17,-12,-4,-6,-12,-9
13:30:06:830670,13,17,17,-12,-4,-6,-12,-9
13:30:06:836638,15,26,-5,2,8,1,4,10
13:30:06:844141,-14,24,-8,-3,-8,-5,0,1
13:30:06:851694,-14,24,-8,-3,-8,-5,0,1
13:30:06:859128,-7,-3,5,3,-3,1,0,-8
13:30:06:866640,11,1,5,12,9,7,8,11
13:30:06:874819,11,1,5,12,9,7,8,11
13:30:06:875633,-5,-6,-7,16,18,5,-2,-11
13:30:06:889856,-3,-19,-6,-12,-15,-13,-15,-4
13:30:06:890652,-3,-19,-6,-12,-15,-13,-15,-4
13:30:06:896642,-9,29,0,-14,-14,-1,-8,-9
13:30:06:904153,-4,4,-22,5,2,3,5,-7
13:30:06:911697,-4,4,-22,5,2,3,5,-7
13:30:06:919151,2,10,-3,-10,-9,-6,0,-15
13:30:06:926668,4,6,-11,-7,-6,-1,5,6
13:30:06:934836,4,6,-11,-7,-6,-1,5,6
13:30:06:935643,4,-20,-18,3,-1,1,6,17
13:30:06:949799,19,15,3,17,6,-8,-3,2
13:30:06:950644,19,15,3,17,6,-8,-3,2
13:30:06:956668,22,-7,5,-9,-7,2,-8,-7
13:30:06:964144,6,-6,6,-18,-14,-5,5,3
13:30:06:971685,6,-6,6,-18,-14,-5,5,3
13:30:06:979119,-24,-101,19,-10,-11,-7,-22,-32
13:30:06:986624,6,14,25,6,2,2,1,3
13:30:06:994847,6,14,25,6,2,2,1,3
13:30:06:995643,2,56,-23,-18,0,-5,4,0
13:30:07:9854,-49,-114,-15,-16,-13,-2,-3,-10
13:30:07:10659,-49,-114,-15,-16,-13,-2,-3,-10
13:30:07:16636,11,55,6,7,-2,0,19,44
13:30:07:24115,5,65,3,5,5,-2,-10,-12
13:30:07:31691,5,65,3,5,5,-2,-10,-12
13:30:07:39137,-12,-18,-1,-1,-9,0,5,5
13:30:07:46610,12,0,5,-2,5,5,8,8
13:30:07:55241,12,0,5,-2,5,5,8,8
13:30:07:61605,16,44,9,11,-5,-1,6,7
13:30:07:69872,-12,4,18,9,6,1,-8,-9
13:30:07:70686,-12,4,18,9,6,1,-8,-9
13:30:07:92988,-11,-28,-15,-10,-5,-5,-11,-14
13:30:07:93775,12,20,-3,3,4,5,7,6
13:30:07:94595,12,20,-3,3,4,5,7,6
13:30:07:107331,3,-15,5,5,5,4,-3,2
13:30:07:108117,3,8,-13,7,5,0,7,25
13:30:07:114833,3,8,-13,7,5,0,7,25
13:30:07:115652,-20,-2,18,-5,-4,0,-11,-21
13:30:07:129801,1,21,-20,1,-13,-4,2,10
13:30:07:130631,1,21,-20,1,-13,-4,2,10
13:30:07:136672,8,-8,4,4,1,-2,1,-5
13:30:07:144156,-35,-46,0,-3,5,0,0,-7
13:30:07:168049,-35,-46,0,-3,5,0,0,-7
13:30:07:168839,-7,-3,-14,2,34,4,0,0
13:30:07:169662,9,-28,-19,-22,8,3,-1,2
13:30:07:175598,9,-28,-19,-22,8,3,-1,2
13:30:07:176328,-12,-55,3,1,-11,-11,-6,-8
13:30:07:189860,12,26,-22,6,7,-1,-3,-10
13:30:07:190668,12,26,-22,6,7,-1,-3,-10
13:30:07:196678,4,-10,-13,2,6,3,3,0
13:30:07:204123,-2,-29,-36,-5,-8,-2,-1,-3
13:30:07:211701,-2,-29,-36,-5,-8,-2,-1,-3
13:30:07:219137,0,17,17,1,-12,-11,-7,1
13:30:07:226657,-2,10,1,2,-2,-1,-4,-1
13:30:07:234847,-2,10,1,2,-2,-1,-4,-1
13:30:07:235608,-34,-15,-5,-14,37,13,8,9
13:30:07:249813,-8,-26,9,10,2,-1,-2,2
13:30:07:250613,-8,-26,9,10,2,-1,-2,2
13:30:07:256642,24,49,18,1,-19,-8,-1,6
13:30:07:264141,9,24,21,9,1,0,0,-4
13:30:07:271691,9,24,21,9,1,0,0,-4
13:30:07:279145,-12,-17,-13,-5,-5,-5,-10,-21
13:30:07:286614,0,37,13,-19,-9,-7,-5,-7
13:30:07:302381,0,37,13,-19,-9,-7,-5,-7
13:30:07:303211,-10,6,8,20,24,6,6,11
13:30:07:309783,-1,5,-5,12,9,1,-1,-6
13:30:07:310617,-1,5,-5,12,9,1,-1,-6
13:30:07:316630,20,5,4,8,-11,0,6,6
13:30:07:324161,6,5,10,-8,6,1,-2,0
13:30:07:331683,6,5,10,-8,6,1,-2,0
13:30:07:339116,-2,-47,-9,0,-15,-2,-2,-4
13:30:07:346619,-11,-20,16,-8,-14,-2,0,-3
13:30:07:362347,-11,-20,16,-8,-14,-2,0,-3
13:30:07:363143,13,42,-3,-10,-23,-4,-1,3
13:30:07:369818,-10,-33,24,3,-4,3,-4,-3
13:30:07:370672,-10,-33,24,3,-4,3,-4,-3
13:30:07:376632,-7,39,-14,4,-1,2,1,-3
13:30:07:392332,19,20,-17,4,1,-1,3,1
13:30:07:393161,19,20,-17,4,1,-1,3,1
13:30:07:399157,23,1,23,4,-5,-3,4,15
13:30:07:414845,8,10,18,0,-9,-3,0,6
13:30:07:415679,8,10,18,0,-9,-3,0,6
13:30:07:421669,13,12,-7,0,6,3,1,-1
13:30:07:429825,-8,25,-17,-6,1,-3,-8,-5
13:30:07:430643,-8,25,-17,-6,1,-3,-8,-5
13:30:07:436592,-28,-27,-13,-10,8,0,-3,-7
13:30:07:452312,-8,-2,9,-5,2,1,7,0
13:30:07:453123,-8,-2,9,-5,2,1,7,0
13:30:07:459158,6,-28,-2,-6,10,4,-2,-3
13:30:07:466641,-6,-38,10,-7,-2,-6,-9,-7
13:30:07:474215,-6,-38,10,-7,-2,-6,-9,-7
13:30:07:481597,0,16,-5,-11,-19,-9,-2,2
13:30:07:489851,-4,-23,-28,-3,-5,0,-2,7
13:30:07:490650,-4,-23,-28,-3,-5,0,-2,7
13:30:07:496628,-1,-13,-40,1,-9,-7,-12,-14
13:30:07:512324,9,33,-2,12,42,15,10,-3
13:30:07:513225,9,33,-2,12,42,15,10,-3
13:30:07:519086,11,2,30,23,4,-3,5,13
13:30:07:526586,-4,-19,0,1,1,1,-3,-5
13:30:07:542162,-4,-19,0,1,1,1,-3,-5
13:30:07:550461,-14,-46,18,2,-7,-1,0,0
13:30:07:551279,12,15,3,-1,-19,-5,-1,19
13:30:07:552105,12,15,3,-1,-19,-5,-1,19
13:30:07:556609,2,16,0,-7,-10,-5,-4,-7
13:30:07:572786,-8,-15,9,-4,-14,0,8,7
13:30:07:573594,-8,-15,9,-4,-14,0,8,7
13:30:07:579157,0,17,-19,-20,-1,-1,-6,-14
13:30:07:586646,-8,-8,2,2,7,-5,0,-4
13:30:07:594244,-8,-8,2,2,7,-5,0,-4
13:30:07:601624,-6,23,1,9,12,5,0,-8
13:30:07:609839,6,9,-5,11,22,11,1,-3
13:30:07:610635,6,9,-5,11,22,11,1,-3
13:30:07:616614,-2,17,-10,-7,-11,-8,-5,2
13:30:07:632361,4,39,9,-6,-9,-5,-6,0
13:30:07:633219,4,39,9,-6,-9,-5,-6,0
13:30:07:639080,9,-5,23,-2,6,8,7,5
13:30:07:646602,-12,-20,0,-1,-1,0,1,-6
13:30:07:654242,-12,-20,0,-1,-1,0,1,-6
13:30:07:661628,-5,-6,1,-13,-23,-10,-4,0
13:30:07:669818,-16,-49,0,7,-7,1,5,0
13:30:07:670680,-16,-49,0,7,-7,1,5,0
13:30:07:676624,-11,-28,-14,1,12,4,-2,1
13:30:07:692328,10,6,-7,-14,-12,-5,-8,-4
13:30:07:693239,10,6,-7,-14,-12,-5,-8,-4
13:30:07:699103,-2,-1,-36,1,14,1,0,2
13:30:07:706633,6,5,0,-13,-3,-6,-6,-2
13:30:07:714218,6,5,0,-13,-3,-6,-6,-2
13:30:07:721616,-10,38,0,-1,8,-5,-1,-3
13:30:07:729835,-6,-6,-12,0,-3,-5,1,8
13:30:07:730702,-6,-6,-12,0,-3,-5,1,8
13:30:07:736657,21,17,19,-2,-3,-1,-2,1
13:30:07:752399,-3,1,20,-4,3,2,-1,0
13:30:07:753224,-3,1,20,-4,3,2,-1,0
13:30:07:759159,-9,-46,5,-5,-8,-3,-5,-1
13:30:07:766616,-5,33,0,17,11,1,-3,-7
13:30:07:774235,-5,33,0,17,11,1,-3,-7
13:30:07:781656,0,20,-7,-1,-8,-1,3,0
13:30:07:789801,-19,-28,-16,-7,-7,-7,-2,-8
13:30:07:790606,-19,-28,-16,-7,-7,-7,-2,-8
13:30:07:796676,-2,0,-18,4,1,-2,-3,2
13:30:07:812319,8,-19,-8,-7,-7,-2,-2,-1
13:30:07:813127,8,-19,-8,-7,-7,-2,-2,-1
13:30:07:819177,3,12,10,20,14,5,-1,0
13:30:07:826669,3,-20,-27,3,-2,-3,2,-2
13:30:07:834137,3,-20,-27,3,-2,-3,2,-2
13:30:07:841650,-8,2,9,-4,6,-6,-9,-16
13:30:07:849834,8,21,18,5,0,-2,-3,3
13:30:07:850642,8,21,18,5,0,-2,-3,3
13:30:07:856580,-13,-24,-51,-8,-6,1,4,4
13:30:07:872326,-3,-15,13,4,5,9,12,15
13:30:07:873130,-3,-15,13,4,5,9,12,15
13:30:07:879141,-10,-16,27,-7,7,0,-7,-8
13:30:07:886651,2,28,-6,-14,-7,-3,-2,-5
13:30:07:894242,2,28,-6,-14,-7,-3,-2,-5
13:30:07:901634,8,5,21,9,-11,3,7,8
13:30:07:909814,-11,11,9,-8,-3,-3,-6,-9
13:30:07:910634,-11,11,9,-8,-3,-3,-6,-9
13:30:07:916624,-1,-21,-40,-4,-2,1,-2,2
13:30:07:932331,-4,-13,1,-2,0,-4,-5,-5
13:30:07:933228,-4,-13,1,-2,0,-4,-5,-5
13:30:07:939099,-5,-6,-10,11,-2,-1,-2,-6
13:30:07:946628,12,8,-16,1,-3,-2,-1,0
13:30:07:954237,12,8,-16,1,-3,-2,-1,0
13:30:07:961622,9,18,21,-6,9,2,-2,-1
13:30:07:969862,-12,-31,-22,-5,0,-3,-11,-16
13:30:07:970673,-12,-31,-22,-5,0,-3,-11,-16
13:30:07:976621,-24,-14,3,-4,-2,-3,1,-6
13:30:07:992345,7,9,0,0,13,2,1,1
13:30:07:993220,7,9,0,0,13,2,1,1
13:30:07:999119,6,19,17,2,-8,-2,-3,-4
13:30:08:6630,-5,21,-3,7,1,3,1,3
13:30:08:14228,-5,21,-3,7,1,3,1,3
13:30:08:21608,-3,-5,7,-2,1,-4,-3,-2
13:30:08:29795,10,-2,4,8,13,4,-1,-3
13:30:08:30601,10,-2,4,8,13,4,-1,-3
13:30:08:36639,-9,-9,6,3,2,-2,3,-7
13:30:08:52349,4,14,-15,-12,-14,-10,-8,-7
13:30:08:53220,4,14,-15,-12,-14,-10,-8,-7
13:30:08:59129,2,-25,-3,3,-4,2,1,7
13:30:08:66622,-4,-29,15,-3,-5,2,4,4
13:30:08:74150,-4,-29,15,-3,-5,2,4,4
13:30:08:81638,-1,5,-13,3,1,0,-2,1
13:30:08:89796,0,-4,0,-13,-14,-8,-4,3
13:30:08:90614,0,-4,0,-13,-14,-8,-4,3
13:30:08:96659,-3,15,4,10,11,11,3,-7
13:30:08:112313,-2,-18,3,-6,-7,-4,5,0
13:30:08:113147,-2,-18,3,-6,-7,-4,5,0
13:30:08:119167,3,19,-4,-14,-9,-7,-4,0
13:30:08:126676,-7,27,-18,-4,-4,-1,4,4
13:30:08:134151,-7,27,-18,-4,-4,-1,4,4
13:30:08:150457,3,-11,13,11,4,2,2,5
13:30:08:151281,5,12,9,12,3,3,4,4
13:30:08:152108,5,12,9,12,3,3,4,4
13:30:08:156655,5,0,11,-8,-7,-8,-1,0
13:30:08:172381,-4,17,18,3,-6,4,1,2
13:30:08:173240,-4,17,18,3,-6,4,1,2
13:30:08:179132,4,2,-26,-1,-1,-3,-4,0
13:30:08:186620,-4,-8,2,3,-4,-2,-7,-16
13:30:08:194155,-4,-8,2,3,-4,-2,-7,-16
13:30:08:201671,0,-2,-10,-9,1,-1,-3,-4
13:30:08:209834,-7,-24,-11,-15,-10,-4,-6,-2
13:30:08:210644,-7,-24,-11,-15,-10,-4,-6,-2
13:30:08:216628,4,-3,6,-1,-1,-1,1,5
13:30:08:232320,12,-1,-12,-9,-3,-5,-3,2
13:30:08:233123,12,-1,-12,-9,-3,-5,-3,2
13:30:08:239176,4,-16,-1,-4,-1,1,6,8
13:30:08:246649,-2,-4,12,6,0,0,0,9
13:30:08:254216,-2,-4,12,6,0,0,0,9
13:30:08:261615,-17,-22,-11,3,-6,-3,-1,-9
13:30:08:269826,0,-1,-10,2,3,0,-3,0
13:30:08:270644,0,-1,-10,2,3,0,-3,0
13:30:08:284183,14,10,3,-16,0,-2,-2,7
13:30:08:300463,-6,1,-18,-1,4,-2,-4,-6
13:30:08:301273,-6,1,-18,-1,4,-2,-4,-6
13:30:08:302066,4,8,19,0,-7,-3,-1,1
13:30:08:314861,-9,-30,16,17,8,8,7,-4
13:30:08:315663,-9,-30,16,17,8,8,7,-4
13:30:08:321609,-10,10,-25,-6,-6,-5,-8,-3
13:30:08:329817,7,8,9,13,8,4,0,3
13:30:08:330616,7,8,9,13,8,4,0,3
13:30:08:344138,-3,15,15,-10,-13,-6,-2,-7
13:30:08:352038,5,17,6,-7,9,2,-1,-7
13:30:08:359885,5,17,6,-7,9,2,-1,-7
13:30:08:360675,3,-10,0,2,-5,-2,-4,0
13:30:08:374837,1,-10,13,0,-7,-8,-2,6
13:30:08:375651,1,-10,13,0,-7,-8,-2,6
13:30:08:381602,4,12,17,11,7,1,1,2
13:30:08:389845,-15,0,7,-3,-3,-1,-2,-5
13:30:08:390719,-15,0,7,-3,-3,-1,-2,-5
13:30:08:404168,2,3,2,-8,-5,-1,-2,-6
13:30:08:412351,3,-2,-17,-7,0,-5,-1,0
13:30:08:413236,3,-2,-17,-7,0,-5,-1,0
13:30:08:419142,3,19,6,8,0,0,1,4
13:30:08:434849,11,3,-7,-4,-1,-1,2,3
13:30:08:435662,11,3,-7,-4,-1,-1,2,3
13:30:08:441632,-2,23,-1,-14,-5,-3,-4,-8
13:30:08:449830,10,32,-2,-6,-4,-5,-1,1
13:30:08:450646,10,32,-2,-6,-4,-5,-1,1
13:30:08:464109,-4,-28,-6,7,10,3,2,3
13:30:08:472364,5,-13,-4,5,2,4,4,3
13:30:08:473235,5,-13,-4,5,2,4,4,3
13:30:08:479140,-14,-32,-21,-16,3,-4,-4,-12
13:30:08:494810,-13,8,18,7,1,0,0,-3
13:30:08:495638,-13,8,18,7,1,0,0,-3
13:30:08:501601,4,15,2,-5,-12,0,3,0
13:30:08:509838,-4,-1,11,-6,-8,-4,-6,-4
13:30:08:510668,-4,-1,11,-6,-8,-4,-6,-4
13:30:08:524152,-2,0,-17,11,11,4,3,11
13:30:08:532343,-4,-3,0,6,-6,0,-3,-7
13:30:08:533239,-4,-3,0,6,-6,0,-3,-7
13:30:08:546667,-6,-31,-7,5,0,0,-4,-5
13:30:08:554819,2,9,2,-5,-4,-7,-6,-2
13:30:08:555618,2,9,2,-5,-4,-7,-6,-2
13:30:08:561609,2,10,3,-7,-4,-1,2,-3
13:30:08:569231,2,10,3,-7,-4,-1,2,-3
13:30:08:576603,-3,-22,-8,0,-3,-2,-5,-11
13:30:08:584111,2,-6,10,-6,-2,0,1,1
13:30:08:592395,2,-6,10,-6,-2,0,1,1
13:30:08:593235,-10,-10,-14,-11,3,3,2,0
13:30:08:599123,6,-5,3,6,-6,-3,2,4
13:30:08:614838,6,-5,3,6,-6,-3,2,4
13:30:08:615662,-2,-21,-33,-15,-10,-3,2,1
13:30:08:621629,-16,-53,20,3,-4,-4,-6,-5
13:30:08:637341,-16,-53,20,3,-4,-4,-6,-5
13:30:08:638129,-4,17,3,6,9,0,-3,-2
13:30:08:644105,19,23,-9,3,1,2,3,10
13:30:08:652311,19,23,-9,3,1,2,3,10
13:30:08:653209,14,23,13,-1,-5,-6,-4,4
13:30:08:659098,-9,16,-14,-5,9,2,-7,-11
13:30:08:683036,-9,16,-14,-5,9,2,-7,-11
13:30:08:683824,-1,9,-1,13,3,3,5,2
13:30:08:684648,11,20,29,3,-7,-3,2,7
13:30:08:689153,11,20,29,3,-7,-3,2,7
13:30:08:696647,-2,-9,-6,-3,3,3,3,-2
13:30:08:704174,-12,23,26,4,3,3,-3,-6
13:30:08:712362,-12,23,26,4,3,3,-3,-6
13:30:08:713124,-1,25,6,6,-1,0,2,5
13:30:08:719106,1,-6,-24,-10,-6,-6,1,0
13:30:08:735293,1,-6,-24,-10,-6,-6,1,0
13:30:08:736086,1,6,3,-19,1,-1,-5,-4
13:30:08:741660,5,36,-30,5,-1,3,1,-2
13:30:08:749174,5,36,-30,5,-1,3,1,-2
13:30:08:756656,-2,-10,-15,-5,-9,-4,-1,3
13:30:08:764100,-1,-49,13,-6,3,0,3,7
13:30:08:772348,-1,-49,13,-6,3,0,3,7
13:30:08:773239,-26,-65,-5,-7,-6,-6,-5,-10
13:30:08:779107,-13,5,-3,-2,3,1,-2,-5
13:30:08:794855,-13,5,-3,-2,3,1,-2,-5
13:30:08:795640,11,-5,-2,3,5,-1,-2,1
13:30:08:801604,-7,2,6,-9,-7,-8,-7,-5
13:30:08:809315,-7,2,6,-9,-7,-8,-7,-5
13:30:08:816647,3,20,17,11,11,5,1,-4
13:30:08:824124,-5,28,-11,-8,-6,-4,-2,-2
13:30:08:832364,-5,28,-11,-8,-6,-4,-2,-2
13:30:08:833235,10,-2,-13,-1,3,2,2,6
13:30:08:839136,5,-12,-19,10,10,5,4,1
13:30:08:854846,5,-12,-19,10,10,5,4,1
13:30:08:855628,1,-8,0,-11,-4,-1,-6,-8
13:30:08:861663,8,20,12,-9,-6,-6,-4,0
13:30:08:869246,8,20,12,-9,-6,-6,-4,0
13:30:08:876647,0,-4,29,-1,-6,-3,0,2
13:30:08:884140,-17,-17,7,-5,0,0,-1,-9
13:30:08:900541,-17,-17,7,-5,0,0,-1,-9
13:30:08:901314,-7,-2,16,8,1,-3,3,4
13:30:08:902099,0,-3,-7,9,11,9,1,1
13:30:08:914860,0,-3,-7,9,11,9,1,1
13:30:08:915661,-12,6,-5,3,7,2,-1,-6
13:30:08:921622,4,-14,-5,2,5,4,1,2
13:30:08:937354,4,-14,-5,2,5,4,1,2
13:30:08:938135,6,-5,-6,3,-7,0,1,8
13:30:08:944129,12,11,13,-1,-5,-5,-4,2
13:30:08:952333,12,11,13,-1,-5,-5,-4,2
13:30:08:953121,0,-1,-16,-1,2,-1,-1,0
13:30:08:959130,-3,-21,1,-2,-5,-1,2,-1
13:30:08:974871,-3,-21,1,-2,-5,-1,2,-1
13:30:08:975640,-7,-33,-44,-15,-4,-4,-4,-3
13:30:08:981635,-4,-44,-43,-9,-6,-6,-3,-3
13:30:08:989280,-4,-44,-43,-9,-6,-6,-3,-3
13:30:08:996630,-3,14,-25,-9,-3,1,3,6
13:30:09:13002,-2,-10,1,8,3,1,-4,-9
13:30:09:13820,-2,-10,1,8,3,1,-4,-9
13:30:09:14600,5,18,6,-3,-2,1,-2,1
13:30:09:19144,-4,13,-1,-3,-4,-3,-3,-6
13:30:09:34854,-4,13,-1,-3,-4,-3,-3,-6
13:30:09:35653,2,4,12,1,-5,-6,-2,-7
13:30:09:41658,9,51,7,-1,10,-2,-1,11
13:30:09:49195,9,51,7,-1,10,-2,-1,11
13:30:09:56615,3,11,2,5,6,4,3,1
13:30:09:64156,7,33,0,8,-1,0,-1,2
13:30:09:72330,7,33,0,8,-1,0,-1,2
13:30:09:73139,-4,-23,-14,-6,-3,-5,-1,-6
13:30:09:79095,5,17,4,4,3,3,1,3
13:30:09:94882,5,17,4,4,3,3,1,3
13:30:09:95644,10,2,2,-4,2,2,0,1
13:30:09:101611,-4,-1,-1,-8,-7,1,1,-5
13:30:09:109270,-4,-1,-1,-8,-7,1,1,-5
13:30:09:116613,3,-4,12,4,2,5,0,1
13:30:09:124131,-19,-50,5,-5,6,0,-3,-6
13:30:09:132397,-19,-50,5,-5,6,0,-3,-6
13:30:09:133243,-5,-21,3,2,-4,-2,-3,0
13:30:09:139161,2,-3,7,2,-12,-4,-1,1
13:30:09:154843,2,-3,7,2,-12,-4,-1,1
13:30:09:155657,-3,-29,-16,2,-2,-2,0,6
13:30:09:161622,-4,-13,6,-2,-4,0,5,-4
13:30:09:169246,-4,-13,6,-2,-4,0,5,-4
13:30:09:176665,-1,11,37,-2,-6,-7,-7,-4
13:30:09:184141,-10,-8,2,1,-2,0,0,2
13:30:09:192380,-10,-8,2,1,-2,0,0,2
13:30:09:193235,3,30,5,2,-1,-1,1,-1
13:30:09:199167,-14,-23,-9,-2,2,-1,-5,-7
13:30:09:214885,-14,-23,-9,-2,2,-1,-5,-7
13:30:09:215661,-2,0,-25,-2,-4,-5,-11,-6
13:30:09:221649,2,26,-13,2,0,-3,1,9
13:30:09:237356,2,26,-13,2,0,-3,1,9
13:30:09:238223,-1,12,8,3,12,-2,1,-3
13:30:09:244135,1,3,7,-10,-1,-4,-4,-8
13:30:09:252390,1,3,7,-10,-1,-4,-4,-8
13:30:09:253224,9,26,1,6,-3,-1,7,8
13:30:09:266629,-5,-29,-2,-10,-9,-4,-9,-7
13:30:09:274857,-5,-29,-2,-10,-9,-4,-9,-7
13:30:09:275668,2,2,-2,-4,0,-2,-6,-12
13:30:09:289861,1,-10,-5,-2,-1,-2,2,-1
13:30:09:290677,1,-10,-5,-2,-1,-2,2,-1
13:30:09:296646,-9,5,2,-5,-5,-4,-8,-7
13:30:09:304152,-6,-21,-4,-8,0,-1,-5,-7
13:30:09:312372,-6,-21,-4,-8,0,-1,-5,-7
13:30:09:313258,4,18,1,3,0,2,7,6
13:30:09:326643,11,18,-3,-1,-10,-3,-3,-7
13:30:09:334872,11,18,-3,-1,-10,-3,-3,-7
13:30:09:335656,-17,-51,-1,4,-2,2,-2,1
13:30:09:341617,4,11,3,11,-5,1,-1,4
13:30:09:349228,4,11,3,11,-5,1,-1,4
13:30:09:356642,-15,-43,-32,0,-4,-1,4,-2
13:30:09:373002,-1,-11,4,0,4,-3,0,5
13:30:09:373828,-1,-11,4,0,4,-3,0,5
13:30:09:374611,8,19,4,-4,1,1,-1,-2
13:30:09:386606,-4,-23,-11,1,0,1,3,3
13:30:09:394859,-4,-23,-11,1,0,1,3,3
13:30:09:395644,-2,7,15,9,3,5,1,2
13:30:09:401620,4,30,-9,1,1,-1,-2,-1
13:30:09:409283,4,30,-9,1,1,-1,-2,-1
13:30:09:416666,4,43,10,2,3,-1,-1,1
13:30:09:424150,-1,4,4,3,6,1,7,3
13:30:09:432401,-1,4,4,3,6,1,7,3
13:30:09:433240,3,10,-20,-8,-4,-1,3,2
13:30:09:446639,11,20,32,-3,-2,11,0,3
13:30:09:454641,11,20,32,-3,-2,11,0,3
13:30:09:462318,7,2,-30,-10,-5,-3,-2,0
13:30:09:463113,-10,-22,8,-3,-2,-5,-6,-7
13:30:09:469260,-10,-22,8,-3,-2,-5,-6,-7
13:30:09:476646,-9,-9,6,-2,-6,-3,-3,-4
13:30:09:484149,-8,-25,-10,-5,-1,-2,-3,2
13:30:09:492310,-8,-25,-10,-5,-1,-2,-3,2
13:30:09:493130,-7,-25,-19,-5,-3,-2,0,-1
13:30:09:506679,4,-33,-12,-4,4,0,3,6
13:30:09:514814,4,-33,-12,-4,4,0,3,6
13:30:09:515660,-27,-40,24,-3,-1,-3,-8,-13
13:30:09:521638,-9,25,0,-1,-4,-5,-1,-2
13:30:09:529178,-9,25,0,-1,-4,-5,-1,-2
13:30:09:536702,3,7,8,-1,-3,-2,1,-4
13:30:09:544190,-2,-4,1,-1,-6,-1,3,-3
13:30:09:552343,-2,-4,1,-1,-6,-1,3,-3
13:30:09:553152,3,-7,7,-8,12,1,0,6
13:30:09:567085,10,-10,3,9,8,3,2,3
13:30:09:574817,10,-10,3,9,8,3,2,3
13:30:09:575632,-3,4,-1,0,0,0,-2,-3
13:30:09:581599,7,8,2,4,4,0,5,6
13:30:09:589248,7,8,2,4,4,0,5,6
13:30:09:604824,3,-10,-6,-4,-1,-1,-1,-3
13:30:09:605601,6,33,3,-2,-6,-4,-1,9
13:30:09:612351,6,33,3,-2,-6,-4,-1,9
13:30:09:613157,14,12,-10,-5,-6,-3,-3,-5
13:30:09:627136,-7,8,-7,3,-3,-4,-4,-1
13:30:09:634827,-7,8,-7,3,-3,-4,-4,-1
13:30:09:635638,-11,-15,3,-1,-8,-3,-2,6
13:30:09:641675,-3,-15,-7,-3,-4,-1,-2,-4
13:30:09:649192,-3,-15,-7,-3,-4,-1,-2,-4
13:30:09:656654,1,6,1,4,2,-2,-5,-5
13:30:09:672982,-9,12,-11,-5,0,-2,-2,-6
13:30:09:673786,-9,12,-11,-5,0,-2,-2,-6
13:30:09:674620,7,18,2,-3,-5,-2,2,1
13:30:09:686666,10,5,4,-1,2,0,-1,1
13:30:09:694842,10,5,4,-1,2,0,-1,1
13:30:09:695602,-8,13,2,-7,-7,-3,-3,0
13:30:09:701652,-2,10,-9,1,-4,2,1,7
13:30:09:709206,-2,10,-9,1,-4,2,1,7
13:30:09:716592,0,2,5,2,4,0,-2,-3
13:30:09:732976,-6,-12,19,1,-2,-3,-3,-3
13:30:09:733780,-6,-12,19,1,-2,-3,-3,-3
13:30:09:734579,-13,-15,-7,1,6,1,-2,-4
13:30:09:746654,0,3,2,-1,1,-4,-10,-10
13:30:09:754875,0,3,2,-1,1,-4,-10,-10
13:30:09:755652,7,-1,11,9,1,3,0,-1
13:30:09:761659,-8,5,-5,-5,-4,-3,-10,-5
13:30:09:769171,-8,5,-5,-5,-4,-3,-10,-5
13:30:09:776675,1,11,-8,2,4,2,1,-1
13:30:09:784149,4,-19,-7,-3,2,-1,-3,-5
13:30:09:792332,4,-19,-7,-3,2,-1,-3,-5
13:30:09:793160,0,-4,3,3,0,6,17,10
13:30:09:806672,3,5,2,2,-2,-2,2,-14
13:30:09:814826,3,5,2,2,-2,-2,2,-14
13:30:09:815651,5,-4,3,-2,0,-4,-3,5
13:30:09:821670,0,-24,10,3,0,1,-6,3
13:30:09:829213,0,-24,10,3,0,1,-6,3
13:30:09:844812,-20,-34,1,-2,-1,-3,-9,-16
13:30:09:845597,-2,11,10,2,-4,1,2,-1
13:30:09:852303,-2,11,10,2,-4,1,2,-1
13:30:09:853119,3,3,3,-5,-5,-2,-1,-2
13:30:09:866661,2,36,-6,-2,-1,-2,-9,-13
13:30:09:874904,2,36,-6,-2,-1,-2,-9,-13
13:30:09:875673,13,36,-8,-6,-2,-1,-1,6
13:30:09:881649,-5,13,-3,-3,-2,1,13,14
13:30:09:889188,-5,13,-3,-3,-2,1,13,14
13:30:09:896684,-1,-2,15,1,1,-1,-9,-3
13:30:09:904175,-14,-69,-10,-5,-1,-1,-1,4
13:30:09:912363,-14,-69,-10,-5,-1,-1,-1,4
13:30:09:913142,-24,11,10,1,5,-4,-5,-16
13:30:09:926655,-4,11,-8,-2,1,-3,-1,-15
13:30:09:934836,-4,11,-8,-2,1,-3,-1,-15
13:30:09:935631,-15,-32,-4,-1,-6,-6,0,-9
13:30:09:941606,9,24,-5,4,7,8,2,3
13:30:09:949179,9,24,-5,4,7,8,2,3
13:30:09:956636,21,7,-2,2,0,3,3,6
13:30:09:964111,7,-11,-9,-1,-4,-2,1,6
13:30:09:972392,7,-11,-9,-1,-4,-2,1,6
13:30:09:973138,12,-15,-10,-2,-6,3,9,19
13:30:09:986575,0,10,16,-1,0,-3,-3,4
13:30:09:994885,0,10,16,-1,0,-3,-3,4
13:30:09:995634,1,-4,-5,7,2,3,-2,7
13:30:10:1628,-4,5,-2,-2,-3,-3,-11,-17
13:30:10:9250,-4,5,-2,-2,-3,-3,-11,-17
13:30:10:16636,-2,2,-4,-7,0,-3,-1,-3
13:30:10:33382,-4,-19,-11,-4,-5,-4,2,7
13:30:10:34289,-4,-19,-11,-4,-5,-4,2,7
13:30:10:39121,-14,-56,-11,-2,8,4,9,3
13:30:10:46647,-2,-11,-9,-4,-4,0,5,10
13:30:10:54862,-2,-11,-9,-4,-4,0,5,10
13:30:10:55667,-2,18,-4,-3,0,-5,-14,-14
13:30:10:61627,6,6,-5,-2,2,4,14,10
13:30:10:69258,6,6,-5,-2,2,4,14,10
13:30:10:76636,-1,13,-24,-7,-9,-4,-5,-6
13:30:10:84153,-7,-25,-10,0,0,0,-6,-1
13:30:10:92385,-7,-25,-10,0,0,0,-6,-1
13:30:10:93224,-3,18,-11,-2,1,-6,-2,1
13:30:10:106634,-1,-17,-4,-5,-6,-2,-5,10
13:30:10:123017,-1,-17,-4,-5,-6,-2,-5,10
13:30:10:123836,-1,-3,6,0,-1,-3,-9,5
13:30:10:124618,1,-4,-3,-2,1,-4,0,1
13:30:10:129245,1,-4,-3,-2,1,-4,0,1
13:30:10:136631,11,6,22,14,-1,3,2,10
13:30:10:144141,-1,20,-2,-3,3,3,1,-13
13:30:10:152372,-1,20,-2,-3,3,3,1,-13
13:30:10:153275,16,20,4,4,3,3,7,1
13:30:10:166626,-13,-1,3,3,-2,-3,-2,-2
13:30:10:174850,-13,-1,3,3,-2,-3,-2,-2
13:30:10:175658,-6,-25,5,-5,-3,-4,-5,-3
13:30:10:189832,8,53,30,-5,-3,-3,-1,-4
13:30:10:190648,8,53,30,-5,-3,-3,-1,-4
13:30:10:196611,3,0,-9,-1,-3,-4,-3,0
13:30:10:204121,4,1,-4,-4,-1,-2,-2,-2
13:30:10:211723,4,1,-4,-4,-1,-2,-2,-2
13:30:10:219154,-2,-1,15,-1,-2,-1,-2,-11
13:30:10:226659,4,-17,-9,-3,-3,-2,-4,0
13:30:10:234843,4,-17,-9,-3,-3,-2,-4,0
13:30:10:235612,-11,19,-11,-1,2,0,-5,-5
13:30:10:249865,0,-20,0,-1,-1,-4,-6,0
13:30:10:250673,0,-20,0,-1,-1,-4,-6,0
13:30:10:256685,0,9,-15,1,0,0,-2,2
13:30:10:264139,-15,-30,-9,5,6,4,7,-3
13:30:10:271642,-15,-30,-9,5,6,4,7,-3
13:30:10:287312,-16,-24,9,-8,-6,-4,-1,-8
13:30:10:288104,-7,-15,-6,-3,-1,-4,-5,-7
13:30:10:294874,-7,-15,-6,-3,-1,-4,-5,-7
13:30:10:295663,-4,-22,8,0,-1,-1,-2,-11
13:30:10:309876,-10,3,1,-1,2,0,-6,-5
13:30:10:310662,-10,3,1,-1,2,0,-6,-5
13:30:10:316635,10,8,10,-5,3,9,26,14
13:30:10:324159,-2,9,15,2,-1,-1,-1,-1
13:30:10:331718,-2,9,15,2,-1,-1,-1,-1
13:30:10:339173,6,-8,-13,1,3,-3,-8,10
13:30:10:346650,1,-15,-12,-4,-2,-2,3,5
13:30:10:354835,1,-15,-12,-4,-2,-2,3,5
13:30:10:355615,3,9,-9,-3,-2,-4,-6,-4
13:30:10:369865,6,11,14,0,-2,-1,-1,2
13:30:10:370659,6,11,14,0,-2,-1,-1,2
13:30:10:376641,-7,-27,-2,1,-1,-1,-7,1
13:30:10:384156,9,8,5,2,1,0,-8,4
13:30:10:391672,9,8,5,2,1,0,-8,4
13:30:10:399153,7,20,20,6,1,9,21,15
13:30:10:406656,2,12,-6,1,0,2,13,1
13:30:10:415526,2,12,-6,1,0,2,13,1
13:30:10:416341,7,29,11,-1,-5,-6,-13,-6
13:30:10:429833,4,7,-7,1,0,1,1,10
13:30:10:430618,4,7,-7,1,0,1,1,10
13:30:10:436686,6,-10,-5,0,1,-3,-9,2
13:30:10:444182,-8,-20,8,-2,1,-3,-2,-3
13:30:10:451692,-8,-20,8,-2,1,-3,-2,-3
13:30:10:459113,-14,-2,4,1,1,-1,2,-3
13:30:10:466597,-1,-15,-13,-4,-2,0,4,-4
13:30:10:474865,-1,-15,-13,-4,-2,0,4,-4
13:30:10:475647,-3,-8,-8,-5,0,-7,-8,-12
13:30:10:489820,4,17,-1,5,0,-1,-1,-12
13:30:10:490630,4,17,-1,5,0,-1,-1,-12
13:30:10:504802,0,23,-6,-1,-3,1,-4,4
13:30:10:505621,-3,-9,-2,-1,1,7,27,-1
13:30:10:519873,-3,-9,-2,-1,1,7,27,-1
13:30:10:520679,5,0,3,-1,1,0,2,-8
13:30:10:526644,-3,-7,-5,2,3,-3,-7,-7
13:30:10:534887,-3,-7,-5,2,3,-3,-7,-7
13:30:10:535653,-2,-15,-13,-3,0,0,3,-6
13:30:10:549857,-4,-2,-12,-3,-1,-5,-8,-5
13:30:10:550680,-4,-2,-12,-3,-1,-5,-8,-5
13:30:10:556677,-5,11,-3,-1,-1,-2,-4,-3
13:30:10:564136,-5,11,7,1,4,1,-4,2
13:30:10:571670,-5,11,7,1,4,1,-4,2
13:30:10:579154,0,7,11,-1,-3,1,4,0
13:30:10:586662,5,14,-12,-7,-4,-4,-4,12
13:30:10:594843,5,14,-12,-7,-4,-4,-4,12
13:30:10:595630,-2,-24,-8,6,3,-1,-3,-10
13:30:10:609802,8,0,7,3,0,-1,-8,-2
13:30:10:610640,8,0,7,3,0,-1,-8,-2
13:30:10:616679,3,-7,0,-5,-1,1,20,15
13:30:10:624173,-14,-17,-9,-10,-6,-4,-9,-10
13:30:10:631677,-14,-17,-9,-10,-6,-4,-9,-10
13:30:10:639169,8,6,-5,0,0,1,-1,12
13:30:10:646647,6,26,5,5,3,-1,2,3
13:30:10:654861,6,26,5,5,3,-1,2,3
13:30:10:655649,-7,2,-21,-6,-9,-5,-7,-1
13:30:10:669836,-4,-15,3,-3,-7,-4,-6,-4
13:30:10:670615,-4,-15,3,-3,-7,-4,-6,-4
13:30:10:676639,-8,17,3,-16,-14,-9,-7,-7
13:30:10:684143,-8,-22,1,13,-3,-2,-5,-2
13:30:10:699803,-8,-22,1,13,-3,-2,-5,-2
13:30:10:700646,-6,-38,-23,-14,1,-3,-10,-16
13:30:10:706658,-2,9,-1,-7,1,0,-2,-6
13:30:10:714859,-2,9,-1,-7,1,0,-2,-6
13:30:10:715618,-6,-6,28,7,-2,-4,-4,0
13:30:10:729830,-11,-15,22,0,-1,-3,-3,-8
13:30:10:730611,-11,-15,22,0,-1,-3,-3,-8
13:30:10:736688,-3,-27,8,7,9,6,5,3
13:30:10:744188,5,18,-10,-9,-12,-4,0,2
13:30:10:751694,5,18,-10,-9,-12,-4,0,2
13:30:10:759123,3,-13,12,18,16,5,-1,-1
13:30:10:766631,4,11,-2,0,-4,-4,1,3
13:30:10:774858,4,11,-2,0,-4,-4,1,3
13:30:10:775691,-2,26,22,-1,1,-5,-4,-5
13:30:10:789788,-7,-45,24,-3,-1,-2,1,-4
13:30:10:790641,-7,-45,24,-3,-1,-2,1,-4
13:30:10:796629,-11,-16,-14,-1,-2,-1,-3,-4
13:30:10:804135,7,8,-37,-8,3,0,-1,4
13:30:10:811681,7,8,-37,-8,3,0,-1,4
13:30:10:819154,4,40,-6,-3,-7,-1,-2,5
13:30:10:826654,-2,6,-20,-4,-1,1,2,5
13:30:10:834888,-2,6,-20,-4,-1,1,2,5
13:30:10:835651,13,38,-8,-4,-8,-1,-2,2
13:30:10:849844,8,20,6,7,17,7,-5,-1
13:30:10:850656,8,20,6,7,17,7,-5,-1
13:30:10:856632,-8,-18,23,8,1,-1,-4,-7
13:30:10:864123,-1,-7,28,2,-5,-3,0,5
13:30:10:871719,-1,-7,28,2,-5,-3,0,5
13:30:10:879146,1,-18,-10,-13,-7,0,1,1
13:30:10:886621,3,4,8,10,9,2,1,3
13:30:10:894863,3,4,8,10,9,2,1,3
13:30:10:895685,5,5,13,1,-6,-2,1,1
13:30:10:909838,-7,-16,-3,10,6,0,0,-4
13:30:10:910662,-7,-16,-3,10,6,0,0,-4
13:30:10:916668,-8,8,0,-4,2,1,-3,-6
13:30:10:924133,7,7,-22,-11,-7,-3,-1,15
13:30:10:931704,7,7,-22,-11,-7,-3,-1,15
13:30:10:939176,3,-5,11,6,-1,-2,-2,-8
13:30:10:946636,-23,11,0,-5,-5,-2,-1,-4
13:30:10:954820,-23,11,0,-5,-5,-2,-1,-4
13:30:10:955618,2,9,-2,-16,-9,-3,0,5
13:30:10:978046,8,-9,5,-3,-5,-1,2,1
13:30:10:978851,8,-9,5,-3,-5,-1,2,1
13:30:10:979621,5,-7,-1,-3,2,-1,-2,2
13:30:10:984137,8,-5,-10,-17,-5,-1,5,5
13:30:10:991728,8,-5,-10,-17,-5,-1,5,5
13:30:10:999138,-3,-16,-18,-9,5,1,-2,-1
13:30:11:6656,4,6,4,5,-3,0,1,-3
13:30:11:14836,4,6,4,5,-3,0,1,-3
13:30:11:15624,3,11,-15,-3,1,4,4,4
13:30:11:29857,-2,17,-9,-5,-10,-3,-6,-10
13:30:11:30691,-2,17,-9,-5,-10,-3,-6,-10
13:30:11:36653,1,5,-9,8,1,-2,0,3
13:30:11:52345,9,-1,2,-1,4,0,0,5
13:30:11:53189,9,-1,2,-1,4,0,0,5
13:30:11:59145,-16,-48,6,3,-4,-2,-3,-8
13:30:11:66635,-9,1,-5,-5,4,-1,-7,-1
13:30:11:74863,-9,1,-5,-5,4,-1,-7,-1
13:30:11:75699,-5,-8,-5,-9,-7,-3,-1,-8
13:30:11:89842,7,-3,13,16,4,6,2,8
13:30:11:90660,7,-3,13,16,4,6,2,8
13:30:11:96651,0,3,7,7,-1,-4,-12,-4
13:30:11:104140,-1,0,0,1,-1,-3,-3,-1
13:30:11:111736,-1,0,0,1,-1,-3,-3,-1
13:30:11:119162,5,19,5,2,0,4,3,5
13:30:11:126647,-6,-16,-5,-5,-2,-1,20,-11
13:30:11:134165,-6,-16,-5,-5,-2,-1,20,-11
13:30:11:141659,0,12,-8,-1,3,-2,-3,0
13:30:11:149835,-2,-2,-6,1,2,-1,-11,0
13:30:11:150638,-2,-2,-6,1,2,-1,-11,0
13:30:11:156633,2,-10,9,2,1,0,7,0
13:30:11:172314,-7,-6,10,-5,-2,-1,-8,-8
13:30:11:173131,-7,-6,10,-5,-2,-1,-8,-8
13:30:11:179166,-5,-18,-8,-2,-1,-1,9,4
13:30:11:186633,-15,-19,6,-9,-7,-8,-5,-11
13:30:11:194165,-15,-19,6,-9,-7,-8,-5,-11
13:30:11:201629,1,10,-1,7,3,1,-1,8
13:30:11:209836,0,8,-10,0,-7,-4,-1,4
13:30:11:210675,0,8,-10,0,-7,-4,-1,4
13:30:11:216624,-17,-25,-2,-4,2,-5,1,-8
13:30:11:232331,7,5,10,4,3,-1,-8,-9
13:30:11:233172,7,5,10,4,3,-1,-8,-9
13:30:11:239103,3,3,4,2,4,0,-3,-3
13:30:11:246626,-3,-15,7,-1,-2,-1,2,2
13:30:11:254189,-3,-15,7,-1,-2,-1,2,2
13:30:11:261638,2,-8,-7,-1,-1,-2,-5,-8
13:30:11:270511,2,2,-10,3,24,17,5,-3
13:30:11:271315,2,2,-10,3,24,17,5,-3
13:30:11:276680,5,0,-3,-5,-9,-3,-3,-1
13:30:11:300507,2,4,0,-2,-8,-5,-2,-10
13:30:11:301295,2,4,0,-2,-8,-5,-2,-10
13:30:11:302145,6,33,-6,0,-2,6,6,5
13:30:11:323006,-2,-20,-70,-12,-7,-5,-5,1
13:30:11:323852,-2,-20,-70,-12,-7,-5,-5,1
13:30:11:324626,0,11,10,0,-3,-6,-4,-4
13:30:11:329854,11,15,20,6,-3,-5,0,9
13:30:11:330687,11,15,20,6,-3,-5,0,9
13:30:11:336624,-5,14,-13,-3,-6,-5,-8,-11
13:30:11:352340,3,-4,-26,5,-6,-1,0,6
13:30:11:353169,3,-4,-26,5,-6,-1,0,6
13:30:11:359152,-4,-44,30,-1,7,2,3,-5
13:30:11:366661,3,-2,19,-2,-7,-3,2,4
13:30:11:374241,3,-2,19,-2,-7,-3,2,4
13:30:11:381657,5,-7,-16,-5,1,-1,-5,2
13:30:11:389821,-18,-12,-12,-4,2,1,-4,-14
13:30:11:390610,-18,-12,-12,-4,2,1,-4,-14
13:30:11:396670,-6,-3,4,5,4,4,0,0
13:30:11:412356,1,15,24,4,7,3,-4,-12
13:30:11:413255,1,15,24,4,7,3,-4,-12
13:30:11:419131,4,9,-4,-2,-5,-2,4,11
13:30:11:426630,-4,10,11,1,1,1,-7,-6
13:30:11:434158,-4,10,11,1,1,1,-7,-6
13:30:11:450512,8,-1,-7,-2,-2,-2,6,10
13:30:11:451314,-9,-8,1,-4,-2,-3,0,-9
13:30:11:452157,-9,-8,1,-4,-2,-3,0,-9
13:30:11:456633,-6,4,-9,-2,0,-1,-5,9
13:30:11:473007,4,19,-3,-1,-1,-5,-2,-1
13:30:11:473812,4,19,-3,-1,-1,-5,-2,-1
13:30:11:479136,-8,12,-8,1,0,-2,-12,-11
13:30:11:486629,1,19,7,-1,-4,0,-6,4
13:30:11:494290,1,19,7,-1,-4,0,-6,4
13:30:11:501646,5,26,9,-4,-1,-2,-9,-8
13:30:11:509799,5,-13,-12,0,-2,-2,9,9
13:30:11:510623,5,-13,-12,0,-2,-2,9,9
13:30:11:516662,1,-15,-1,4,-2,-3,2,-4
13:30:11:532403,3,14,1,-2,0,4,16,-10
13:30:11:533256,3,14,1,-2,0,4,16,-10
13:30:11:539172,-5,24,-8,-4,-3,-4,-3,-14
13:30:11:546656,0,4,-16,-7,-4,-5,-3,3
13:30:11:554186,0,4,-16,-7,-4,-5,-3,3
13:30:11:561654,6,5,0,-1,2,2,4,5
13:30:11:577987,-8,-17,-6,-4,-4,-5,-7,5
13:30:11:578797,-8,-17,-6,-4,-4,-5,-7,5
13:30:11:579612,-8,-39,-7,17,42,8,0,-1
13:30:11:592336,-11,-23,-5,-1,-1,2,6,16
13:30:11:593249,-11,-23,-5,-1,-1,2,6,16
13:30:11:599142,-4,-8,-1,-3,-6,2,8,-2
13:30:11:606635,-1,-11,9,4,2,-2,-5,-5
13:30:11:614265,-1,-11,9,4,2,-2,-5,-5
13:30:11:621668,11,16,7,-8,-12,-7,-15,-6
13:30:11:629832,-9,-8,3,-7,-7,-2,-1,-9
13:30:11:630653,-9,-8,3,-7,-7,-2,-1,-9
13:30:11:636688,-9,-21,-7,0,-8,0,7,4
13:30:11:652344,3,12,4,0,0,-3,-11,-11
13:30:11:653141,3,12,4,0,0,-3,-11,-11
13:30:11:659163,-1,-4,1,-1,-6,-1,3,6
13:30:11:666700,-7,15,-3,-1,6,3,-6,-1
13:30:11:674174,-7,15,-3,-1,6,3,-6,-1
13:30:11:681629,4,-10,-13,-4,-10,-3,-4,0
13:30:11:689824,21,25,14,3,-1,-2,-5,15
13:30:11:690682,21,25,14,3,-1,-2,-5,15
13:30:11:696595,5,7,7,-3,-2,-1,2,11
13:30:11:712323,-2,-15,-1,4,2,1,4,5
13:30:11:713153,-2,-15,-1,4,2,1,4,5
13:30:11:719112,-18,-26,-4,-6,-7,-4,-4,-4
13:30:11:726652,-8,-18,-5,-9,0,-1,-5,-7
13:30:11:734185,-8,-18,-5,-9,0,-1,-5,-7
13:30:11:741643,0,1,-16,0,-1,0,8,-3
13:30:11:749831,3,0,8,8,6,2,4,4
13:30:11:750641,3,0,8,8,6,2,4,4
13:30:11:756630,-17,-22,10,-4,1,1,7,-8
13:30:11:772313,3,4,-10,-6,-4,-6,-2,-7
13:30:11:773147,3,4,-10,-6,-4,-6,-2,-7
13:30:11:779144,10,13,5,2,0,0,5,3
13:30:11:786610,3,20,11,-1,-1,0,-1,-1
13:30:11:794182,3,20,11,-1,-1,0,-1,-1
13:30:11:801639,0,-4,-2,2,-2,-1,0,-7
13:30:11:809832,1,11,-5,0,-4,-3,-7,-6
13:30:11:810669,1,11,-5,0,-4,-3,-7,-6
13:30:11:816638,1,15,10,0,0,-3,-14,-8
13:30:11:832338,2,-18,-8,-1,0,3,3,5
13:30:11:833154,2,-18,-8,-1,0,3,3,5
13:30:11:839154,-4,14,8,1,0,-4,-4,-1
13:30:11:846638,-2,-17,-5,-5,-4,-2,15,2
13:30:11:854263,-2,-17,-5,-5,-4,-2,15,2
13:30:11:861645,-3,-5,0,-2,-2,-2,-8,-6
13:30:11:869814,-3,-7,-8,-1,-6,-5,-4,3
13:30:11:870627,-3,-7,-8,-1,-6,-5,-4,3
13:30:11:876741,0,-3,1,3,4,4,7,25
13:30:11:892369,-8,-8,-3,-12,-6,-3,-8,-8
13:30:11:893168,-8,-8,-3,-12,-6,-3,-8,-8
13:30:11:899170,0,14,-3,1,3,4,1,2
13:30:11:906629,-1,5,-6,4,2,2,9,17
13:30:11:914174,-1,5,-6,4,2,2,9,17
13:30:11:921680,-13,-32,-34,-4,0,-1,-6,-8
13:30:11:929819,1,-25,-2,1,3,-2,-5,-7
13:30:11:930646,1,-25,-2,1,3,-2,-5,-7
13:30:11:936608,17,13,4,3,-3,0,5,18
13:30:11:952329,-6,28,6,0,-3,0,-5,-16
13:30:11:953125,-6,28,6,0,-3,0,-5,-16
13:30:11:959191,0,-25,22,-3,-7,-4,-3,-1
13:30:11:966665,-3,15,-7,11,14,7,1,-1
13:30:11:982382,-3,15,-7,11,14,7,1,-1
13:30:11:983256,3,30,2,-3,-1,-1,-1,-4
13:30:11:989825,2,-8,12,-3,-4,-2,-1,5
13:30:11:990636,2,-8,12,-3,-4,-2,-1,5
13:30:11:996674,3,13,-6,0,-3,-2,8,9
13:30:12:12308,-8,1,-2,-1,4,-2,-7,-4
13:30:12:13107,-8,1,-2,-1,4,-2,-7,-4
13:30:12:19184,-1,-11,2,-6,-3,0,-4,-4
13:30:12:26696,8,-3,17,8,0,2,-1,6
13:30:12:34209,8,-3,17,8,0,2,-1,6
13:30:12:41622,1,-16,-4,3,2,-1,-4,-19
13:30:12:49809,-4,-11,-7,-2,-5,-7,-10,-1
13:30:12:50648,-4,-11,-7,-2,-5,-7,-10,-1
13:30:12:56638,-1,8,7,2,0,1,5,4
13:30:12:72319,-3,-7,-2,-5,0,-3,3,-4
13:30:12:73142,-3,-7,-2,-5,0,-3,3,-4
13:30:12:79104,-7,-35,-6,-10,-5,-4,-1,-4
13:30:12:94796,-1,-14,-30,-2,-3,-3,6,-7
13:30:12:95624,-1,-14,-30,-2,-3,-3,6,-7
13:30:12:101669,-3,1,7,-4,-1,-3,-8,0
13:30:12:109825,-12,-6,-10,-5,-6,-2,2,6
13:30:12:110630,-12,-6,-10,-5,-6,-2,2,6
13:30:12:133037,4,-11,2,4,4,3,5,1
13:30:12:133819,13,35,16,2,0,4,13,10
13:30:12:134638,13,35,16,2,0,4,13,10
13:30:12:139143,-15,-34,-14,-6,-3,-4,-15,-6
13:30:12:154857,-4,-22,4,-5,-4,1,-6,-6
13:30:12:155661,-4,-22,4,-5,-4,1,-6,-6
13:30:12:161653,2,-3,-13,-3,0,1,-1,-1
13:30:12:169844,-1,9,3,9,13,1,0,-2
13:30:12:170690,-1,9,3,9,13,1,0,-2
13:30:12:184151,14,21,3,3,-1,-3,-1,4
13:30:12:192358,3,4,0,-6,-4,-1,-7,-6
13:30:12:193202,3,4,0,-6,-4,-1,-7,-6
13:30:12:199160,-6,-6,6,0,2,0,-3,-2
13:30:12:214854,0,3,2,-2,-1,-4,-10,-5
13:30:12:215657,0,3,2,-2,-1,-4,-10,-5
13:30:12:221616,1,5,-9,-6,0,2,7,-9
13:30:12:229834,0,11,1,-1,-2,-3,-9,-6
13:30:12:230668,0,11,1,-1,-2,-3,-9,-6
13:30:12:244123,-4,23,-11,-1,0,-1,1,-12
13:30:12:252367,-3,-47,3,-4,-4,0,6,-2
13:30:12:253157,-3,-47,3,-4,-4,0,6,-2
13:30:12:259153,6,25,25,5,-2,1,10,5
13:30:12:274850,4,27,3,-4,-4,-4,-2,3
13:30:12:275635,4,27,3,-4,-4,-4,-2,3
13:30:12:281604,-3,11,-9,0,1,-5,-3,0
13:30:12:289834,1,-3,1,1,0,-1,-6,9
13:30:12:290634,1,-3,1,1,0,-1,-6,9
13:30:12:304134,0,21,10,0,1,-2,-6,0
13:30:12:312317,-1,6,-1,1,0,1,5,2
13:30:12:313152,-1,6,-1,1,0,1,5,2
13:30:12:319151,-6,16,-2,3,-3,3,7,11
13:30:12:334842,-11,5,0,3,-4,-2,-11,-9
13:30:12:335664,-11,5,0,3,-4,-2,-11,-9
13:30:12:341632,-8,-17,-2,-3,1,-3,-3,1
13:30:12:349822,-20,-51,-5,-3,3,-2,2,-11
13:30:12:350656,-20,-51,-5,-3,3,-2,2,-11
13:30:12:364185,-1,-22,-5,-7,-1,-3,-8,-6
13:30:12:372321,5,4,15,4,-2,3,-2,6
13:30:12:373174,5,4,15,4,-2,3,-2,6
13:30:12:379151,3,-8,11,3,1,0,-3,-3
13:30:12:394820,11,8,-5,1,0,1,14,15
13:30:12:395655,11,8,-5,1,0,1,14,15
13:30:12:401690,4,1,5,-3,-10,1,4,10
13:30:12:417294,-2,-3,-9,-3,-6,-1,0,2
13:30:12:418109,-2,-3,-9,-3,-6,-1,0,2
13:30:12:433052,-1,-2,18,-2,-1,-6,-20,-17
13:30:12:433813,-4,1,-7,-4,-3,-2,3,2
13:30:12:434631,-4,1,-7,-4,-3,-2,3,2
13:30:12:439145,14,18,-6,1,0,-1,3,6
13:30:12:454850,-10,-27,1,-3,-5,-5,-4,-2
13:30:12:455674,-10,-27,1,-3,-5,-5,-4,-2
13:30:12:461647,-6,-44,-39,-11,5,5,5,0
13:30:12:469853,-6,-1,-1,5,5,2,2,-4
13:30:12:470741,-6,-1,-1,5,5,2,2,-4
13:30:12:484128,-1,19,14,-1,-4,-6,1,1
13:30:12:492357,0,7,14,-3,-3,-2,0,-4
13:30:12:493171,0,7,14,-3,-3,-2,0,-4
13:30:12:499145,5,-37,-20,-2,8,2,-1,2
13:30:12:522968,0,-19,-26,10,8,1,-1,-1
13:30:12:523783,0,-19,-26,10,8,1,-1,-1
13:30:12:524622,-4,37,-9,-1,-3,-2,4,2
13:30:12:529816,3,9,-3,-10,0,0,-1,-3
13:30:12:530646,3,9,-3,-10,0,0,-1,-3
13:30:12:553033,-2,16,-23,-1,-4,-3,-6,-1
13:30:12:553835,-2,16,-23,-1,-4,-3,-6,-1
13:30:12:554665,-10,14,-2,-14,-3,-8,-5,-3
13:30:12:559163,-7,-7,5,0,4,0,-1,-6
13:30:12:574881,-7,-7,5,0,4,0,-1,-6
13:30:12:575703,4,51,-8,-7,-4,-2,1,8
13:30:12:581627,1,0,4,-2,-2,-2,-4,-8
13:30:12:597352,1,0,4,-2,-2,-2,-4,-8
13:30:12:598126,3,3,11,-3,1,-2,0,3
13:30:12:604112,7,12,-7,0,-11,-2,-3,-5
13:30:12:612382,7,12,-7,0,-11,-2,-3,-5
13:30:12:613186,1,-18,14,1,0,-1,2,-3
13:30:12:619142,-10,0,3,2,1,-2,-1,-9
13:30:12:634858,-10,0,3,2,1,-2,-1,-9
13:30:12:635678,2,-18,-22,-3,-4,2,-7,-11
13:30:12:641693,1,-28,7,2,3,5,-1,-1
13:30:12:657358,1,-28,7,2,3,5,-1,-1
13:30:12:658130,-2,-12,24,0,-1,0,-2,-3
13:30:12:664116,5,41,12,-4,-5,-7,-3,-3
13:30:12:672366,5,41,12,-4,-5,-7,-3,-3
13:30:12:673137,8,13,11,-1,-8,-3,-2,1
13:30:12:679129,-16,-38,16,0,2,-2,0,2
13:30:12:694865,-16,-38,16,0,2,-2,0,2
13:30:12:695637,-5,-11,-8,-5,-3,-1,0,-4
13:30:12:701620,-9,-2,-16,-3,-3,-3,5,5
13:30:12:717358,-9,-2,-16,-3,-3,-3,5,5
13:30:12:718153,5,-17,-29,-6,0,1,2,-1
13:30:12:724124,-6,-36,-19,-10,-2,-3,0,-9
13:30:12:732350,-6,-36,-19,-10,-2,-3,0,-9
13:30:12:733149,-1,-9,5,6,-1,-1,-1,3
13:30:12:739131,6,19,-11,-13,-13,-4,-3,3
13:30:12:754877,6,19,-11,-13,-13,-4,-3,3
13:30:12:755632,4,8,6,4,-3,-1,-3,2
13:30:12:761686,-5,-14,5,2,-4,-4,-3,-6
13:30:12:777346,-5,-14,5,2,-4,-4,-3,-6
13:30:12:778136,10,17,4,3,-1,1,0,7
13:30:12:784091,-4,22,18,6,1,2,-5,2
13:30:12:792374,-4,22,18,6,1,2,-5,2
13:30:12:793143,-17,25,-4,0,2,-2,-5,-3
13:30:12:799132,13,21,23,1,3,2,-2,2
13:30:12:814831,13,21,23,1,3,2,-2,2
13:30:12:815653,-5,11,2,-1,-3,0,-3,-4
13:30:12:829150,-4,-37,-10,0,-5,-3,2,0
13:30:12:837313,-4,-37,-10,0,-5,-3,2,0
13:30:12:838108,2,-3,-1,3,-4,1,15,4
13:30:12:844142,-11,-46,-41,3,1,0,-2,-7
13:30:12:852352,-11,-46,-41,3,1,0,-2,-7
13:30:12:853117,0,-22,16,7,7,3,-4,-5
13:30:12:866650,12,50,7,4,8,6,1,8
13:30:12:874857,12,50,7,4,8,6,1,8
13:30:12:875618,4,11,-6,-1,-1,-3,1,-3
13:30:12:889164,8,28,11,2,-3,1,11,-2
13:30:12:897389,8,28,11,2,-3,1,11,-2
13:30:12:898169,-3,-24,5,-1,2,-4,-4,-3
13:30:12:913018,-13,32,26,5,8,-1,-6,-4
13:30:12:913839,-13,32,26,5,8,-1,-6,-4
13:30:12:914639,-5,27,4,4,6,2,-3,-2
13:30:12:919180,14,19,10,-1,-3,2,7,8
13:30:12:935351,14,19,10,-1,-3,2,7,8
13:30:12:936110,0,-17,3,-7,-1,-1,-6,-1
13:30:12:949194,-3,-19,-2,-6,-1,-1,-1,6
13:30:12:957367,-3,-19,-2,-6,-1,-1,-1,6
13:30:12:958167,-9,-16,-9,0,-4,-2,-6,-7
13:30:12:964125,-4,-32,-1,5,-3,-2,-1,-15
13:30:12:972379,-4,-32,-1,5,-3,-2,-1,-15
13:30:12:973168,-2,26,-2,-3,-6,1,11,1
13:30:12:979140,-17,-37,-10,-2,0,-3,0,-1
13:30:12:994863,-17,-37,-10,-2,0,-3,0,-1
13:30:12:995629,-7,-32,-20,-3,1,-2,-5,-9
13:30:13:1634,1,-2,-15,-6,-2,-2,-4,2
13:30:13:17345,1,-2,-15,-6,-2,-2,-4,2
13:30:13:18166,2,-2,-1,-1,-3,-2,0,7
13:30:13:24141,-3,-29,-49,-5,-5,-4,-5,-4
13:30:13:32365,-3,-29,-49,-5,-5,-4,-5,-4
13:30:13:33136,2,25,-2,9,3,0,-10,-8
13:30:13:46649,2,6,12,0,-3,-4,-3,-1
13:30:13:54834,2,6,12,0,-3,-4,-3,-1
13:30:13:55645,10,4,-18,-4,2,-1,1,11
13:30:13:61633,-4,1,10,0,1,-1,-5,8
13:30:13:77332,-4,1,10,0,1,-1,-5,8
13:30:13:78143,1,-15,0,-2,-4,-2,0,5
13:30:13:84147,2,1,5,-3,-14,-9,-4,-6
13:30:13:92331,2,1,5,-3,-14,-9,-4,-6
13:30:13:93139,6,-18,5,1,-9,-4,-1,4
13:30:13:106677,3,4,7,-2,-3,-3,-2,-6
13:30:13:114855,3,4,7,-2,-3,-3,-2,-6
13:30:13:115642,-3,-15,-5,-3,2,-2,1,3
13:30:13:121633,2,30,27,4,2,4,5,1
13:30:13:145574,2,30,27,4,2,4,5,1
13:30:13:146351,-3,-6,-15,-7,4,3,-1,10
13:30:13:147147,-2,-31,-22,1,5,5,1,-2
13:30:13:152392,-2,-31,-22,1,5,5,1,-2
13:30:13:153180,-13,4,7,-4,0,-3,-8,-14
13:30:13:167111,-4,10,18,0,14,5,-1,3
13:30:13:174865,-4,10,18,0,14,5,-1,3
13:30:13:175681,-3,-10,10,2,-1,-3,2,-3
13:30:13:189859,5,22,-23,-5,3,2,0,3
13:30:13:190626,5,22,-23,-5,3,2,0,3
13:30:13:196633,-2,9,18,2,-7,-2,-1,-4
13:30:13:212976,8,-4,-11,17,22,5,3,6
13:30:13:213826,8,-4,-11,17,22,5,3,6
13:30:13:214640,-6,-10,3,-2,-4,-3,-4,-9
13:30:13:226674,4,14,7,-8,-10,-3,-7,-8
13:30:13:234830,4,14,7,-8,-10,-3,-7,-8
13:30:13:235641,-6,6,-2,-2,2,-1,-1,1
13:30:13:241630,-3,5,7,-3,-6,-4,-14,-7
13:30:13:249181,-3,5,7,-3,-6,-4,-14,-7
13:30:13:256636,1,-15,-8,-4,0,3,-5,-17
13:30:13:264136,-4,9,-1,0,-3,-3,-3,11
13:30:13:272358,-4,9,-1,0,-3,-3,-3,11
13:30:13:273140,10,3,7,-1,-1,-3,-1,10
13:30:13:286657,1,-11,-14,-6,-3,-1,5,-6
13:30:13:294886,1,-11,-14,-6,-3,-1,5,-6
13:30:13:295682,1,-2,7,2,3,2,8,0
13:30:13:301615,-3,2,3,-7,-6,-1,12,12
13:30:13:317314,-3,2,3,-7,-6,-1,12,12
13:30:13:318137,4,-14,-9,0,1,2,15,29
13:30:13:324162,3,5,-3,-1,1,0,12,-3
13:30:13:332331,3,5,-3,-1,1,0,12,-3
13:30:13:333140,-8,-3,-3,-5,-2,2,-4,-7
13:30:13:346671,-8,-6,1,0,-4,-3,-14,-19
13:30:13:354858,-8,-6,1,0,-4,-3,-14,-19
13:30:13:355640,7,39,-3,1,-2,-1,10,-4
13:30:13:361669,-7,-17,0,3,6,-1,-13,-12
13:30:13:369214,-7,-17,0,3,6,-1,-13,-12
13:30:13:384832,-7,-19,-25,-1,-1,-2,4,2
13:30:13:385636,-13,-30,-14,-5,-8,-6,2,5
13:30:13:392344,-13,-30,-14,-5,-8,-6,2,5
13:30:13:393156,-4,-15,2,2,-1,-3,-12,-5
13:30:13:406648,1,6,8,0,-4,-4,-12,-5
13:30:13:414812,1,6,8,0,-4,-4,-12,-5
13:30:13:415607,0,6,-3,-3,-7,-3,-12,-12
13:30:13:421644,14,28,-9,-1,-4,-2,-2,14
13:30:13:429153,14,28,-9,-1,-4,-2,-2,14
13:30:13:444805,-9,14,-3,0,1,0,-1,-3
13:30:13:445608,-6,-13,15,7,7,3,4,0
13:30:13:452339,-6,-13,15,7,7,3,4,0
13:30:13:453122,4,-1,-6,-2,-1,-1,-6,-2
13:30:13:467148,-9,-5,-7,-8,-3,-2,4,6
13:30:13:474881,-9,-5,-7,-8,-3,-2,4,6
13:30:13:475675,4,-13,-4,-11,-7,0,-10,-11
13:30:13:489826,-6,-11,2,-2,-5,-1,4,-2
13:30:13:490638,-6,-11,2,-2,-5,-1,4,-2
13:30:13:496622,4,7,7,1,-2,-3,-7,-8
13:30:13:512984,5,11,-17,-3,0,1,0,-3
13:30:13:513827,5,11,-17,-3,0,1,0,-3
13:30:13:514601,0,-11,19,4,1,0,2,12
13:30:13:526646,9,3,9,-1,0,-1,-1,3
13:30:13:534872,9,3,9,-1,0,-1,-1,3
13:30:13:535647,7,7,-2,1,6,-1,-2,-8
13:30:13:541635,0,-6,-16,-2,-6,-8,-6,6
13:30:13:549194,0,-6,-16,-2,-6,-8,-6,6
13:30:13:556659,-1,6,21,4,-2,-1,4,6
13:30:13:564147,-5,-20,13,2,-1,3,4,-13
13:30:13:572363,-5,-20,13,2,-1,3,4,-13
13:30:13:573181,-4,3,-6,-3,-1,-3,2,8
13:30:13:586645,7,37,3,2,9,0,3,0
13:30:13:594896,7,37,3,2,9,0,3,0
13:30:13:595675,-4,9,-5,-2,2,3,-1,-6
13:30:13:601663,5,-13,-3,-7,-6,-3,-10,-9
13:30:13:609221,5,-13,-3,-7,-6,-3,-10,-9
13:30:13:616648,-7,-3,-13,-2,0,-1,1,8
13:30:13:624151,-1,9,9,0,3,2,10,2
13:30:13:632385,-1,9,9,0,3,2,10,2
13:30:13:633186,-1,-19,-10,-9,-6,-2,-6,-6
13:30:13:646654,3,-1,0,-1,-3,-1,-6,0
13:30:13:654866,3,-1,0,-1,-3,-1,-6,0
13:30:13:655691,-3,-1,12,1,-1,1,13,-3
13:30:13:661656,-10,-23,-3,2,-2,-3,5,8
13:30:13:669230,-10,-23,-3,2,-2,-3,5,8
13:30:13:676692,1,13,-11,0,0,-2,-5,-1
13:30:13:684177,3,26,12,-4,-8,-5,-8,-6
13:30:13:699857,3,26,12,-4,-8,-5,-8,-6
13:30:13:700684,7,6,-7,1,1,2,1,-1
13:30:13:706653,-2,-2,-2,0,-1,2,10,6
13:30:13:714913,-2,-2,-2,0,-1,2,10,6
13:30:13:715673,-2,3,15,7,3,0,-6,-5
13:30:13:721655,-9,-14,-25,-7,-4,0,-3,0
13:30:13:737374,-9,-14,-25,-7,-4,0,-3,0
13:30:13:738173,4,17,2,-9,-4,-5,-2,8
13:30:13:744123,-3,18,4,8,2,-2,-4,3
13:30:13:760310,-3,18,4,8,2,-2,-4,3
13:30:13:767288,-7,-10,0,-1,0,1,5,-10
13:30:13:768099,3,-6,-5,0,0,1,16,3
13:30:13:774867,3,-6,-5,0,0,1,16,3
13:30:13:775672,2,-3,-9,-1,1,-2,0,-14
13:30:13:781660,1,7,-25,-9,-1,1,-1,4
13:30:13:789238,1,7,-25,-9,-1,1,-1,4
13:30:13:796651,2,-6,-6,7,10,5,-5,9
13:30:13:804186,3,-9,13,1,2,1,-8,-7
13:30:13:812348,3,-9,13,1,2,1,-8,-7
13:30:13:813159,1,-14,-5,-1,-3,-4,4,-4
13:30:13:826646,-10,-4,24,2,-2,-2,-10,-3
13:30:13:834798,-10,-4,24,2,-2,-2,-10,-3
13:30:13:835641,-3,8,28,1,-2,1,-2,-2
13:30:13:841658,3,-16,-1,-1,-1,3,18,-4
13:30:13:857375,3,-16,-1,-1,-1,3,18,-4
13:30:13:858170,-2,9,7,5,-1,-1,-5,5
13:30:13:873040,-6,-15,-4,-4,-2,-5,-10,-19
13:30:13:873840,-6,-15,-4,-4,-2,-5,-10,-19
13:30:13:874626,1,4,-8,-6,-4,-5,-4,-1
13:30:13:886618,8,29,0,1,-1,-2,-10,-3
13:30:13:894871,8,29,0,1,-1,-2,-10,-3
13:30:13:895669,-12,-7,-17,-8,-2,-4,-5,-5
13:30:13:901673,-8,-5,3,-1,6,5,-10,-19
13:30:13:909224,-8,-5,3,-1,6,5,-10,-19
13:30:13:916638,9,6,-4,-4,-4,0,10,22
13:30:13:924169,-14,-30,-2,0,-1,-1,-7,-17
13:30:13:932347,-14,-30,-2,0,-1,-1,-7,-17
13:30:13:933167,3,-3,0,0,1,3,6,11
13:30:13:955515,3,10,-2,-1,-2,-2,3,14
13:30:13:956312,3,10,-2,-1,-2,-2,3,14
13:30:13:957079,-3,-22,3,9,-2,2,-4,1
13:30:13:969156,15,20,5,2,-3,-1,-3,8
13:30:13:977359,15,20,5,2,-3,-1,-3,8
13:30:13:978151,-1,6,7,-3,-6,-4,-3,-8
13:30:13:984161,-7,-15,-16,-3,1,-1,0,-1
13:30:13:991725,-7,-15,-16,-3,1,-1,0,-1
13:30:13:999114,-7,-23,2,-1,-1,1,10,5
13:30:14:6613,-1,-2,-15,-2,0,-2,0,8
13:30:14:14884,-1,-2,-15,-2,0,-2,0,8
13:30:14:15642,1,13,-7,-1,-1,-2,-12,1
13:30:14:29195,-2,14,6,0,-1,-1,3,3
13:30:14:37332,-2,14,6,0,-1,-1,3,3
13:30:14:38144,-3,4,5,2,2,-3,-8,-11
13:30:14:44119,-10,-47,-32,-3,-2,-1,-4,-3
13:30:14:51710,-10,-47,-32,-3,-2,-1,-4,-3
13:30:14:59146,1,-9,-6,-4,-4,-4,0,-1
13:30:14:66624,4,6,7,-2,-1,1,8,15
13:30:14:74878,4,6,7,-2,-1,1,8,15
13:30:14:75727,-3,23,-6,1,-2,-2,-4,-2
13:30:14:89131,4,33,19,-1,-4,-3,-1,-7
13:30:14:97367,4,33,19,-1,-4,-3,-1,-7
13:30:14:98168,-12,-12,8,-1,1,-3,-3,-15
13:30:14:104131,1,2,17,3,1,3,1,4
13:30:14:111713,1,2,17,3,1,3,1,4
13:30:14:119138,-5,-1,-18,-4,1,-5,-5,-10
13:30:14:126637,-6,-21,-33,-6,-1,-3,-6,-1
13:30:14:134890,-6,-21,-33,-6,-1,-3,-6,-1
13:30:14:135708,-1,-24,7,0,-1,-1,-5,-2
13:30:14:149154,-10,-1,3,-1,-1,1,-3,-7
13:30:14:157373,-10,-1,3,-1,-1,1,-3,-7
13:30:14:158174,3,-12,-36,-8,-3,0,3,6
13:30:14:164130,7,-2,-2,14,21,7,-2,1
13:30:14:171673,7,-2,-2,14,21,7,-2,1
13:30:14:179161,-1,16,20,-3,-4,0,11,0
13:30:14:186687,0,-24,0,-2,-3,-7,-2,1
13:30:14:194848,0,-24,0,-2,-3,-7,-2,1
13:30:14:195626,9,8,6,6,6,4,0,6
13:30:14:209167,5,17,38,-1,-6,-1,1,-1
13:30:14:217325,5,17,38,-1,-6,-1,1,-1
13:30:14:218147,-14,-39,-10,-6,-9,-5,-3,-6
13:30:14:232370,-3,1,-35,-7,-2,-3,-2,0
13:30:14:233194,-3,1,-35,-7,-2,-3,-2,0
13:30:14:239196,2,11,4,0,-1,-2,-2,-1
13:30:14:246627,-12,-16,-2,-3,-9,-4,-7,-12
13:30:14:255298,-12,-16,-2,-3,-9,-4,-7,-12
13:30:14:261668,-1,-24,-27,0,2,2,2,2
13:30:14:269170,-19,-18,-16,-7,-4,-1,2,0
13:30:14:277355,-19,-18,-16,-7,-4,-1,2,0
13:30:14:278170,-2,-9,14,4,13,2,-3,-2
13:30:14:284113,9,6,5,-3,-4,-1,0,4
13:30:14:291713,9,6,5,-3,-4,-1,0,4
13:30:14:299135,4,27,30,-3,0,0,-3,-4
13:30:14:306624,3,47,4,-1,-4,-1,0,-8
13:30:14:315532,3,47,4,-1,-4,-1,0,-8
13:30:14:316326,-1,3,-11,2,-7,0,-3,1
13:30:14:329157,5,18,17,2,-2,1,-1,2
13:30:14:337745,5,18,17,2,-2,1,-1,2
13:30:14:344796,-1,-4,-23,-3,2,0,-1,-2
13:30:14:345597,2,-29,9,10,5,-1,4,11
13:30:14:351716,2,-29,9,10,5,-1,4,11
13:30:14:359160,2,-9,-9,-6,-5,-2,-1,5
13:30:14:366657,1,-20,-12,4,8,-1,-2,-4
13:30:14:374867,1,-20,-12,4,8,-1,-2,-4
13:30:14:375682,-15,-56,16,-1,-2,-1,-3,-10
13:30:14:389134,9,27,5,-10,-6,-2,-2,0
13:30:14:405504,9,27,5,-10,-6,-2,-2,0
13:30:14:406294,6,28,-12,-3,-1,0,3,5
13:30:14:407116,-1,-16,-5,8,5,1,0,5
13:30:14:411691,-1,-16,-5,8,5,1,0,5
13:30:14:419138,7,9,4,-4,-3,0,2,0
13:30:14:426656,3,-9,1,-1,-2,-2,-2,-7
13:30:14:434871,3,-9,1,-1,-2,-2,-2,-7
13:30:14:435668,-5,-7,19,3,7,2,-3,-6
13:30:14:449145,-10,-1,5,0,1,0,1,-5
13:30:14:457123,-10,-1,5,0,1,0,1,-5
13:30:14:465439,2,18,-3,1,10,0,-1,-1
13:30:14:466295,1,6,-18,-7,-4,0,4,9
13:30:14:471704,1,6,-18,-7,-4,0,4,9
13:30:14:479153,1,5,-6,-4,-9,-3,-4,-4
13:30:14:486647,5,13,9,-4,4,-1,0,-11
13:30:14:494890,5,13,9,-4,4,-1,0,-11
13:30:14:495671,5,14,6,9,1,2,6,16
13:30:14:509142,-3,12,7,-1,-7,-2,0,2
13:30:14:517372,-3,12,7,-1,-7,-2,0,2
13:30:14:518144,-5,-6,4,-3,0,-4,-8,-12
13:30:14:524147,0,-8,1,-2,0,2,1,4
13:30:14:531711,0,-8,1,-2,0,2,1,4
13:30:14:539189,-3,3,-1,-2,-5,-2,-3,-5
13:30:14:546646,4,-9,-43,-7,-2,-1,-3,3
13:30:14:554818,4,-9,-43,-7,-2,-1,-3,3
13:30:14:555629,12,18,6,-2,-5,-4,2,10
13:30:14:569138,-2,6,12,-8,-6,-2,4,8
13:30:14:577320,-2,6,12,-8,-6,-2,4,8
13:30:14:578106,-10,-20,-2,0,3,1,-2,0
13:30:14:584136,2,5,-19,3,1,-4,-9,0
13:30:14:591697,2,5,-19,3,1,-4,-9,0
13:30:14:599175,-1,-7,16,-4,-5,-3,-7,-3
13:30:14:606683,0,3,12,3,2,6,15,2
13:30:14:614858,0,3,12,3,2,6,15,2
13:30:14:615613,1,15,6,0,3,-2,-7,4
13:30:14:629177,-1,8,15,-2,-3,-6,-11,-6
13:30:14:637352,-1,8,15,-2,-3,-6,-11,-6
13:30:14:638164,-7,-36,-12,-5,-6,-8,-2,-10
13:30:14:644185,1,1,21,3,0,-3,0,3
13:30:14:651715,1,1,21,3,0,-3,0,3
13:30:14:659145,0,23,-10,1,0,1,0,-11
13:30:14:666613,-5,-9,-5,2,1,3,1,-4
13:30:14:674891,-5,-9,-5,2,1,3,1,-4
13:30:14:675676,1,-11,-11,1,-3,0,2,10
13:30:14:689140,0,2,-1,0,2,-1,-2,1
13:30:14:697108,0,2,-1,0,2,-1,-2,1
13:30:14:704805,-6,1,-6,-3,-3,-1,3,-3
13:30:14:705612,-6,-30,-6,-6,-3,-3,-8,-11
13:30:14:711695,-6,-30,-6,-6,-3,-3,-8,-11
13:30:14:719132,0,3,-4,6,0,0,1,7
13:30:14:726661,0,-4,-1,0,-1,-3,-8,-3
13:30:14:734924,0,-4,-1,0,-1,-3,-8,-3
13:30:14:735666,4,20,3,-6,1,2,1,-2
13:30:14:749155,-5,-1,3,-1,1,2,-5,-9
13:30:14:757366,-5,-1,3,-1,1,2,-5,-9
13:30:14:758183,-3,-33,-12,-4,-5,-8,-6,-8
13:30:14:764146,-4,-2,6,-1,-3,-1,4,-4
13:30:14:771721,-4,-2,6,-1,-3,-1,4,-4
13:30:14:779170,-8,3,1,0,-2,-2,2,-11
13:30:14:786670,-7,-5,-11,-6,-3,-2,15,2
13:30:14:794850,-7,-5,-11,-6,-3,-2,15,2
13:30:14:795645,-36,9,-3,0,1,-1,-6,-10
13:30:14:809156,7,20,4,1,1,5,10,-1
13:30:14:817381,7,20,4,1,1,5,10,-1
13:30:14:818160,-7,-36,-19,-1,2,0,-1,-2
13:30:14:824152,-4,2,1,-2,-1,-4,-10,-4
13:30:14:831670,-4,2,1,-2,-1,-4,-10,-4
13:30:14:839187,-1,-18,11,-3,-4,2,6,2
13:30:14:846676,0,-4,-5,-3,-4,0,-6,1
13:30:14:854856,0,-4,-5,-3,-4,0,-6,1
13:30:14:855633,11,8,2,-1,-3,0,1,2
13:30:14:869152,4,2,3,0,0,-5,-13,1
13:30:14:877335,4,2,3,0,0,-5,-13,1
13:30:14:878123,-4,-5,-4,-8,-6,-4,-8,-10
13:30:14:884197,-2,-4,4,6,2,3,-7,2
13:30:14:891684,-2,-4,4,6,2,3,-7,2
13:30:14:899138,13,16,-1,3,1,-2,-1,-2
13:30:14:906655,5,7,-14,-5,1,1,4,8
13:30:14:914205,5,7,-14,-5,1,1,4,8
13:30:14:921614,2,26,18,-4,2,0,1,-4
13:30:14:937989,-2,-3,2,-8,-10,-8,-3,-4
13:30:14:938778,-2,-3,2,-8,-10,-8,-3,-4
13:30:14:939606,4,5,13,-2,-1,4,1,4
13:30:14:952327,-4,-47,3,3,0,-2,0,-6
13:30:14:953159,-4,-47,3,3,0,-2,0,-6
13:30:14:959184,-4,-11,7,4,4,-1,2,5
13:30:14:966658,-2,-15,7,1,2,1,0,-1
13:30:14:974200,-2,-15,7,1,2,1,0,-1
13:30:14:981612,2,2,-9,-2,-4,-4,-5,-1
13:30:14:989123,-11,-6,-8,-2,-7,-5,-1,-5
13:30:14:997353,-11,-6,-8,-2,-7,-5,-1,-5
13:30:14:998153,4,-3,-9,-4,0,-2,-4,-11
13:30:15:13106,-4,13,-6,-5,2,-2,-8,-9
13:30:15:13795,-4,13,-6,-5,2,-2,-8,-9
13:30:15:19130,3,16,-4,-4,-3,-1,1,6
13:30:15:26613,12,30,3,-2,-1,-3,-8,-4
13:30:15:34220,12,30,3,-2,-1,-3,-8,-4
13:30:15:41625,4,24,-10,2,-1,2,0,0
13:30:15:49157,0,14,-1,-2,0,-1,1,-6
13:30:15:57355,0,14,-1,-2,0,-1,1,-6
13:30:15:58179,2,-13,-14,1,2,0,4,12
13:30:15:72318,-3,-13,-4,0,-1,3,14,11
13:30:15:73163,-3,-13,-4,0,-1,3,14,11
13:30:15:79120,4,9,4,1,-1,-3,8,3
13:30:15:86620,-3,25,8,2,-1,-4,-14,4
13:30:15:94212,-3,25,8,2,-1,-4,-14,4
13:30:15:101680,5,17,-1,-1,-1,-1,-4,-8
13:30:15:109149,4,5,7,9,6,1,-2,0
13:30:15:117405,4,5,7,9,6,1,-2,0
13:30:15:118189,-3,-13,-6,-8,-4,-3,0,-2
13:30:15:132385,-5,-14,6,-1,-4,-1,10,-4
13:30:15:133158,-5,-14,6,-1,-4,-1,10,-4
13:30:15:139196,2,-8,-4,0,1,-3,-12,4
13:30:15:146651,-13,-6,-9,-2,1,-1,1,-6
13:30:15:154212,-13,-6,-9,-2,1,-1,1,-6
13:30:15:161656,4,-7,5,1,1,7,16,15
13:30:15:169172,-6,-16,-4,-3,-1,-5,-11,-16
13:30:15:177331,-6,-16,-4,-3,-1,-5,-11,-16
13:30:15:178133,-5,-15,1,1,-1,-2,-3,-10
13:30:15:192393,5,-11,-3,2,-2,1,9,5
13:30:15:193191,5,-11,-3,2,-2,1,9,5
13:30:15:199160,-2,-4,1,0,-2,-1,-6,2
13:30:15:206666,-4,-16,-7,1,2,-1,-3,3
13:30:15:214181,-4,-16,-7,1,2,-1,-3,3
13:30:15:221669,-15,-23,2,-4,-1,-2,-9,-4
13:30:15:237954,2,22,10,-4,-4,0,11,3
13:30:15:238822,2,22,10,-4,-4,0,11,3
13:30:15:239590,0,-40,0,0,1,3,-8,-5
13:30:15:252373,6,-16,-2,-1,-1,-3,-19,13
13:30:15:253211,6,-16,-2,-1,-1,-3,-19,13
13:30:15:259151,3,10,0,-4,-3,-4,-2,-5
13:30:15:266658,4,20,1,1,-3,-1,2,6
13:30:15:274231,4,20,1,1,-3,-1,2,6
13:30:15:281658,1,19,13,4,1,1,-1,4
13:30:15:289164,6,12,8,3,-1,2,2,4
13:30:15:297341,6,12,8,3,-1,2,2,4
13:30:15:298146,-13,-3,-1,-4,0,-5,-4,-11
13:30:15:312311,1,3,-4,-1,-2,3,5,0
13:30:15:313132,1,3,-4,-1,-2,3,5,0
13:30:15:319159,3,3,-18,-2,-1,-1,-1,5
13:30:15:326642,-8,-16,-1,-2,1,2,10,1
13:30:15:334179,-8,-16,-1,-2,1,2,10,1
13:30:15:341688,2,7,12,-1,-3,-3,1,-6
13:30:15:349156,2,-11,0,5,3,4,4,-8
13:30:15:357353,2,-11,0,5,3,4,4,-8
13:30:15:358158,-1,0,-4,1,-3,-1,4,7
13:30:15:372331,-6,-5,-4,-4,-2,2,2,-1
13:30:15:373180,-6,-5,-4,-4,-2,2,2,-1
13:30:15:379129,5,36,0,3,2,-3,-14,-11
13:30:15:386679,0,-3,-16,-6,-6,-4,-1,2
13:30:15:394225,0,-3,-16,-6,-6,-4,-1,2
13:30:15:401656,2,-1,-15,-3,1,-2,-5,1
13:30:15:409148,7,-16,-5,-2,1,3,20,5
13:30:15:417341,7,-16,-5,-2,1,3,20,5
13:30:15:418162,2,-12,3,1,-1,0,10,-11
13:30:15:432347,1,-2,7,-1,-1,-3,-7,-5
13:30:15:433154,1,-2,7,-1,-1,-3,-7,-5
13:30:15:439144,-3,2,2,-2,1,-2,3,-2
13:30:15:446614,-7,2,-2,-1,2,4,11,11
13:30:15:454213,-7,2,-2,-1,2,4,11,11
13:30:15:461637,-2,6,-8,2,-1,3,1,6
13:30:15:469130,-6,-2,10,-3,-5,-8,-18,-24
13:30:15:477385,-6,-2,10,-3,-5,-8,-18,-24
13:30:15:478201,1,-25,3,0,-5,-1,1,2
13:30:15:492366,-4,-18,-11,-4,-1,0,-9,-7
13:30:15:493190,-4,-18,-11,-4,-1,0,-9,-7
13:30:15:499178,-10,-13,-5,-4,-5,-4,-1,-1
13:30:15:506635,-8,-28,0,-5,-6,-7,-13,-2
13:30:15:514214,-8,-28,0,-5,-6,-7,-13,-2
13:30:15:521658,1,14,4,-2,1,-1,-2,4
13:30:15:529155,2,10,-25,-1,1,-4,-5,8
13:30:15:537334,2,10,-25,-1,1,-4,-5,8
13:30:15:538114,1,-17,0,-1,3,-3,-6,-3
13:30:15:552813,8,14,10,2,2,-4,-15,-3
13:30:15:553596,8,14,10,2,2,-4,-15,-3
13:30:15:559198,-3,-3,2,0,0,2,-7,2
13:30:15:566688,-10,-1,6,-2,0,-2,-2,-4
13:30:15:574180,-10,-1,6,-2,0,-2,-2,-4
13:30:15:581666,-1,10,-1,4,-2,-2,-7,8
13:30:15:589158,-5,15,3,-3,0,0,1,-8
13:30:15:597329,-5,15,3,-3,0,0,1,-8
13:30:15:598177,-2,16,12,7,6,8,7,-6
13:30:15:612330,-2,3,8,0,-5,-3,-2,-2
13:30:15:613140,-2,3,8,0,-5,-3,-2,-2
13:30:15:619143,4,-15,0,1,-2,-3,-4,2
13:30:15:626671,3,9,0,2,-3,1,5,1
13:30:15:634184,3,9,0,2,-3,1,5,1
13:30:15:641677,-6,-17,-13,-8,-2,-2,7,-2
13:30:15:649106,-2,-9,-2,0,2,0,1,3
13:30:15:657360,-2,-9,-2,0,2,0,1,3
13:30:15:658140,-6,-9,2,-9,-3,-4,-3,-2
13:30:15:672362,3,-3,3,1,-1,2,-2,1
13:30:15:673157,3,-3,3,1,-1,2,-2,1
13:30:15:679159,0,4,-6,-4,-1,-2,1,-10
13:30:15:686626,4,18,-8,0,-1,-2,-2,5
13:30:15:694218,4,18,-8,0,-1,-2,-2,5
13:30:15:701633,3,-14,-10,0,4,3,5,2
13:30:15:709131,-10,-9,12,-7,4,-1,-8,-4
13:30:15:717378,-10,-9,12,-7,4,-1,-8,-4
13:30:15:718150,8,24,18,2,-4,-4,2,4
13:30:15:732337,-8,0,9,-6,-9,-2,3,-2
13:30:15:733164,-8,0,9,-6,-9,-2,3,-2
13:30:15:739142,-3,4,-8,3,-1,1,0,0
13:30:15:746635,0,7,23,4,-3,-2,-2,-3
13:30:15:754200,0,7,23,4,-3,-2,-2,-3
13:30:15:761677,-7,-11,-5,0,1,-3,-5,-6
13:30:15:769142,-24,-20,-20,-5,17,10,1,-1
13:30:15:777400,-24,-20,-20,-5,17,10,1,-1
13:30:15:778174,-2,32,-33,-3,-5,-2,4,16
13:30:15:792363,13,3,-46,-8,5,-5,-3,0
13:30:15:793176,13,3,-46,-8,5,-5,-3,0
13:30:15:799179,-2,-36,24,2,-5,-1,-2,-3
13:30:15:806684,2,4,21,4,-9,-5,0,3
13:30:15:814257,2,4,21,4,-9,-5,0,3
13:30:15:821649,3,17,20,2,-5,-2,0,-4
13:30:15:829170,15,-2,8,3,-1,1,0,4
13:30:15:837330,15,-2,8,3,-1,1,0,4
13:30:15:838131,-13,-37,-13,-6,0,0,0,-7
13:30:15:852304,2,10,8,1,-5,0,-3,2
13:30:15:853137,2,10,8,1,-5,0,-3,2
13:30:15:859168,0,9,-24,-6,1,2,-4,-4
13:30:15:874897,-7,-22,-14,6,-5,-2,3,6
13:30:15:875685,-7,-22,-14,6,-5,-2,3,6
13:30:15:881674,-8,-7,-13,-1,1,-2,-3,-4
13:30:15:889157,4,38,-13,7,6,2,0,-4
13:30:15:896737,4,38,-13,7,6,2,0,-4
13:30:15:904157,6,30,18,-4,0,3,3,1
13:30:15:912320,7,15,11,-3,-4,-1,-3,4
13:30:15:913181,7,15,11,-3,-4,-1,-3,4
13:30:15:919243,-2,20,24,1,4,-1,-4,-4
13:30:15:934807,-2,-8,-18,-6,3,3,0,-9
13:30:15:935623,-2,-8,-18,-6,3,3,0,-9
13:30:15:941670,-8,-13,21,4,0,0,-4,-7
13:30:15:949163,2,-9,0,7,6,0,2,2
13:30:15:956703,2,-9,0,7,6,0,2,2
13:30:15:964112,6,-4,-5,2,-3,-4,4,8
13:30:15:972358,-2,6,1,2,2,-2,-4,-3
13:30:15:973153,-2,6,1,2,2,-2,-4,-3
13:30:15:979140,5,17,-1,1,-1,1,4,9
13:30:15:994808,3,-6,-2,-1,-1,0,0,-3
13:30:15:995655,3,-6,-2,-1,-1,0,0,-3
13:30:16:1619,-4,-2,-15,-3,-6,-5,-6,-1
13:30:16:9189,-4,-7,23,-4,-4,-3,-4,-2
13:30:16:16695,-4,-7,23,-4,-4,-3,-4,-2
13:30:16:24160,-1,-35,-19,-1,-1,-1,3,2
13:30:16:32346,1,0,-9,-4,-4,-3,0,8
13:30:16:33183,1,0,-9,-4,-4,-3,0,8
13:30:16:39130,-2,2,15,1,2,0,4,3
13:30:16:54839,2,6,-5,-5,-10,-6,-8,-6
13:30:16:55657,2,6,-5,-5,-10,-6,-8,-6
13:30:16:69809,-1,-3,-11,-2,2,-1,-2,1
13:30:16:70615,0,6,0,1,-3,-4,-14,-10
13:30:16:84886,0,6,0,1,-3,-4,-14,-10
13:30:16:85676,1,-4,6,0,1,-1,5,-5
13:30:16:92343,-3,-24,4,0,4,6,15,0
13:30:16:93152,-3,-24,4,0,4,6,15,0
13:30:16:99175,2,-10,9,2,2,5,5,-3
13:30:16:114876,1,12,-3,-6,-3,-3,-3,0
13:30:16:115688,1,12,-3,-6,-3,-3,-3,0
13:30:16:121695,2,-35,-3,-2,0,-1,-2,3
13:30:16:129181,-2,-24,5,5,3,0,1,4
13:30:16:136671,-2,-24,5,5,3,0,1,4
13:30:16:144191,1,15,-4,4,3,0,-5,10
13:30:16:152318,-10,-16,-13,-8,-2,-4,-10,-9
13:30:16:153103,-10,-16,-13,-8,-2,-4,-10,-9
13:30:16:159109,1,10,6,-2,7,0,-4,-8
13:30:16:174818,-7,-5,-5,-9,-5,0,12,-2
13:30:16:175635,-7,-5,-5,-9,-5,0,12,-2
13:30:16:181665,-2,17,-6,-5,-4,-2,-2,-4
13:30:16:189166,13,9,4,3,-5,-2,-5,-5
13:30:16:196689,13,9,4,3,-5,-2,-5,-5
13:30:16:204111,-7,-23,5,-4,-5,-4,-12,-1
13:30:16:212365,1,0,-3,-2,0,-3,0,4
13:30:16:213159,1,0,-3,-2,0,-3,0,4
13:30:16:219132,5,20,-33,-10,-6,-5,2,0
13:30:16:234854,-8,-17,-13,-8,2,-2,3,-2
13:30:16:235636,-8,-17,-13,-8,2,-2,3,-2
13:30:16:241620,-6,-10,11,-1,-4,-3,-2,-6
13:30:16:249104,0,46,6,2,-1,3,1,-6
13:30:16:256695,0,46,6,2,-1,3,1,-6
13:30:16:264137,2,-5,10,2,-6,-4,-1,9
13:30:16:272359,-1,-10,11,4,5,0,0,-2
13:30:16:273184,-1,-10,11,4,5,0,0,-2
13:30:16:279151,-16,-32,3,2,2,1,0,0
13:30:16:294845,-5,3,-28,-7,-1,-2,-1,0
13:30:16:295661,-5,3,-28,-7,-1,-2,-1,0
13:30:16:301637,6,12,-1,6,4,0,-1,-7
13:30:16:309176,-3,-7,2,6,5,1,4,-6
13:30:16:316741,-3,-7,2,6,5,1,4,-6
13:30:16:324145,-11,11,-1,-2,-2,-2,-1,13
13:30:16:332351,8,-8,-2,0,-1,-1,3,3
13:30:16:333139,8,-8,-2,0,-1,-1,3,3
13:30:16:339159,10,24,0,-2,1,-1,0,-9
13:30:16:354868,-4,-6,-16,-8,-1,-2,-9,2
13:30:16:355675,-4,-6,-16,-8,-1,-2,-9,2
13:30:16:361636,-4,12,-4,-2,-2,3,-3,0
13:30:16:369160,-1,-3,-11,-2,-3,-1,8,-5
13:30:16:384887,-1,-3,-11,-2,-3,-1,8,-5
13:30:16:385672,12,9,-13,-2,-1,-2,-7,0
13:30:16:392373,-13,-17,-1,3,-1,-4,-10,0
13:30:16:393189,-13,-17,-1,3,-1,-4,-10,0
13:30:16:399134,-14,-21,1,-6,-3,0,-2,-10
13:30:16:414845,-5,6,10,-1,0,-2,-11,-1
13:30:16:415670,-5,6,10,-1,0,-2,-11,-1
13:30:16:421649,5,-4,-2,-1,-2,1,3,1
13:30:16:429135,3,17,13,2,-1,-4,1,-9
13:30:16:436733,3,17,13,2,-1,-4,1,-9
13:30:16:444140,2,2,2,-1,3,-2,1,-4
13:30:16:452310,12,12,11,1,-3,-1,-3,2
13:30:16:453142,12,12,11,1,-3,-1,-3,2
13:30:16:459163,11,15,3,0,1,3,4,9
13:30:16:474894,-1,-10,1,2,2,2,2,0
13:30:16:475673,-1,-10,1,2,2,2,2,0
13:30:16:481680,-13,-10,-3,0,-1,-4,-18,-15
13:30:16:489147,-1,-4,-14,-1,5,2,-1,13
13:30:16:496670,-1,-4,-14,-1,5,2,-1,13
13:30:16:504179,5,24,0,-1,-2,-4,1,-10
13:30:16:512332,-7,-16,10,5,-1,2,-2,-7
13:30:16:513135,-7,-16,10,5,-1,2,-2,-7
13:30:16:519119,0,7,-12,1,-2,-3,-2,1
13:30:16:534839,0,7,-12,1,-2,-3,-2,1
13:30:16:535607,-5,3,-1,-6,-3,-7,-11,-2
13:30:16:541674,-13,-30,-4,-7,-4,-2,-8,-12
13:30:16:557398,-13,-30,-4,-7,-4,-2,-8,-12
13:30:16:558195,-1,-16,-24,-5,-3,-4,-9,7
13:30:16:564154,11,10,6,-9,-1,0,2,3
13:30:16:572359,11,10,6,-9,-1,0,2,3
13:30:16:573138,-2,-44,1,-6,0,-2,-6,3
13:30:16:579167,-6,-27,-15,-1,4,5,11,2
13:30:16:594921,-6,-27,-15,-1,4,5,11,2
13:30:16:595696,-11,-11,-1,-1,0,0,17,7
13:30:16:601634,9,16,11,3,-2,1,4,0
13:30:16:617458,9,16,11,3,-2,1,4,0
13:30:16:618166,0,10,3,5,-2,-5,-5,-8
13:30:16:624135,0,-17,3,-3,-2,-5,-12,-7
13:30:16:632391,0,-17,3,-3,-2,-5,-12,-7
13:30:16:633206,3,21,0,0,-2,-1,-2,0
13:30:16:646634,6,2,-2,2,-2,-1,-3,-1
13:30:16:654854,6,2,-2,2,-2,-1,-3,-1
13:30:16:655686,2,25,1,-4,-5,-1,3,-13
13:30:16:661648,4,-1,0,6,1,2,10,6
13:30:16:677374,4,-1,0,6,1,2,10,6
13:30:16:678165,-6,-12,-3,2,-1,0,-19,0
13:30:16:684131,-6,-8,5,-6,-4,-3,-5,2
13:30:16:700550,-6,-8,5,-6,-4,-3,-5,2
13:30:16:701312,5,-1,-23,-3,-1,-1,-2,8
13:30:16:702167,-4,3,0,0,-2,4,18,-1
13:30:16:714840,-4,3,0,0,-2,4,18,-1
13:30:16:715681,-2,5,9,-4,-1,1,-6,-16
13:30:16:721621,-9,-2,-10,-2,0,-1,-13,-4
13:30:16:737367,-9,-2,-10,-2,0,-1,-13,-4
13:30:16:738155,0,-1,5,1,-1,3,18,-4
13:30:16:744163,4,14,-9,-1,-4,-3,-7,14
13:30:16:752340,4,14,-9,-1,-4,-3,-7,14
13:30:16:753147,5,7,8,6,1,4,7,-2
13:30:16:759130,-3,-32,-5,-1,-1,1,7,4
13:30:16:774872,-3,-32,-5,-1,-1,1,7,4
13:30:16:775680,2,3,-16,-7,-2,1,8,4
13:30:16:781619,5,5,8,1,-1,-2,2,-14
13:30:16:797316,5,5,8,1,-1,-2,2,-14
13:30:16:798146,3,9,12,-2,-1,1,-1,12
13:30:16:804147,-5,-32,-31,-4,-1,-4,-3,-4
13:30:16:812350,-5,-32,-31,-4,-1,-4,-3,-4
13:30:16:813166,1,16,7,-3,-6,-6,-7,-7
13:30:16:826680,-4,-1,14,3,0,-5,-10,5
13:30:16:834858,-4,-1,14,3,0,-5,-10,5
13:30:16:835622,-8,-34,-4,-3,-5,-6,-2,-1
13:30:16:841711,-10,-19,7,-1,-2,1,2,-9
13:30:16:857387,-10,-19,7,-1,-2,1,2,-9
13:30:16:858220,3,-4,12,1,0,-2,4,10
13:30:16:864187,2,12,3,-1,2,-1,-9,2
13:30:16:872357,2,12,3,-1,2,-1,-9,2
13:30:16:873148,-4,7,6,3,1,-3,-5,-6
13:30:16:886641,1,17,7,-4,-1,-1,-1,8
13:30:16:903041,1,17,7,-4,-1,-1,-1,8
13:30:16:903828,-20,-18,1,0,0,-1,1,9
13:30:16:904665,-12,1,10,1,2,-2,-15,-13
13:30:16:917354,-12,1,10,1,2,-2,-15,-13
13:30:16:918126,-4,-1,-3,-1,0,-2,-14,-4
13:30:16:924150,5,10,-6,-1,-3,-4,1,-3
13:30:16:932359,5,10,-6,-1,-3,-4,1,-3
13:30:16:933165,-4,-11,-5,-6,0,-1,-9,-5
13:30:16:946611,-6,5,-6,-1,-1,-4,-4,-10
13:30:16:954892,-6,5,-6,-1,-1,-4,-4,-10
13:30:16:955701,4,20,4,2,-1,1,7,-11
13:30:16:961646,-2,-16,-7,-5,-2,-1,8,-5
13:30:16:977375,-2,-16,-7,-5,-2,-1,8,-5
13:30:16:978127,5,-1,3,0,-2,-2,-7,-10
13:30:16:984144,1,-14,-6,1,-1,1,7,17
13:30:16:992380,1,-14,-6,1,-1,1,7,17
13:30:16:993171,3,-10,-6,0,-1,-1,-8,4
13:30:17:6674,-10,-18,-4,-3,2,-2,-11,-11
13:30:17:14868,-10,-18,-4,-3,2,-2,-11,-11
13:30:17:15664,-10,1,-7,1,2,4,0,6
13:30:17:21623,1,15,5,1,-1,-1,-10,2
13:30:17:37331,1,15,5,1,-1,-1,-10,2
13:30:17:38109,14,0,-3,-2,-2,-2,-8,-2
13:30:17:44179,0,-9,1,-2,-1,-2,10,-2
13:30:17:52343,0,-9,1,-2,-1,-2,10,-2
13:30:17:53160,3,9,-5,-1,-2,-1,8,5
13:30:17:66649,5,12,-17,-3,-4,-1,2,-9
13:30:17:83045,5,12,-17,-3,-4,-1,2,-9
13:30:17:83857,-12,-22,-3,-1,-1,-3,5,-6
13:30:17:84675,2,2,4,1,0,-3,-24,-8
13:30:17:97386,2,2,4,1,0,-3,-24,-8
13:30:17:98164,-15,-10,-3,-4,1,3,13,5
13:30:17:104144,-6,14,-1,1,1,3,-2,-6
13:30:17:112366,-6,14,-1,1,1,3,-2,-6
13:30:17:113173,4,1,8,2,-1,-6,-13,11
13:30:17:126654,4,13,5,-2,0,-2,5,10
13:30:17:134891,4,13,5,-2,0,-2,5,10
13:30:17:135675,10,7,3,-1,-3,-4,-10,-2
13:30:17:141645,0,8,15,1,-3,-2,11,6
13:30:17:157378,0,8,15,1,-3,-2,11,6
13:30:17:158150,8,9,0,-2,-1,-3,-10,-11
13:30:17:164155,5,15,12,6,4,8,42,10
13:30:17:172362,5,15,12,6,4,8,42,10
13:30:17:173206,-3,22,-8,2,-1,-4,-32,-7
13:30:17:186653,-9,-6,-5,-6,-4,-7,-19,14
13:30:17:194919,-9,-6,-5,-6,-4,-7,-19,14
13:30:17:195644,14,2,-2,-1,-1,6,19,4
13:30:17:201646,1,12,-11,1,-4,-8,12,-6
13:30:17:217369,1,12,-11,1,-4,-8,12,-6
13:30:17:218185,-12,-17,7,2,-3,-7,-2,0
13:30:17:224179,1,-31,-4,-1,0,0,8,16
13:30:17:232129,1,-31,-4,-1,0,0,8,16
13:30:17:239133,5,5,3,1,5,7,16,-9
13:30:17:246654,5,11,-4,0,1,-2,-1,32
13:30:17:254870,5,11,-4,0,1,-2,-1,32
13:30:17:255685,-1,-6,-17,-7,1,1,-2,3
13:30:17:261659,7,7,9,2,0,-1,-12,-8
13:30:17:277378,7,7,9,2,0,-1,-12,-8
13:30:17:278182,-1,-1,0,-4,-4,-2,4,-7
13:30:17:284149,-8,-41,-9,-6,-9,-8,-16,-26
13:30:17:292385,-8,-41,-9,-6,-9,-8,-16,-26
13:30:17:293188,-4,8,1,0,-1,-9,8,1
13:30:17:306671,-1,7,3,1,14,37,15,10
13:30:17:314885,-1,7,3,1,14,37,15,10
13:30:17:315677,-3,-20,-5,0,-1,6,-10,23
13:30:17:321655,-22,-3,0,-1,-3,-9,-15,-17
13:30:17:337392,-22,-3,0,-1,-3,-9,-15,-17
13:30:17:338180,0,14,-4,-3,-1,-2,-3,3
13:30:17:344160,3,6,3,-2,-2,-5,-10,-14
13:30:17:352408,3,6,3,-2,-2,-5,-10,-14
13:30:17:353171,0,-16,-5,-2,-2,-2,3,-4
13:30:17:366617,18,21,-2,-1,2,6,21,0
13:30:17:374906,18,21,-2,-1,2,6,21,0
13:30:17:375702,-4,-4,-4,0,-4,-6,-14,-10
13:30:17:381647,3,-33,-4,0,-7,-7,6,23
13:30:17:397379,3,-33,-4,0,-7,-7,6,23
13:30:17:398192,5,14,26,4,5,4,6,-5
13:30:17:404136,-1,16,3,-3,-6,-13,-42,-23
13:30:17:412372,-1,16,3,-3,-6,-13,-42,-23
13:30:17:413158,1,-2,1,-1,1,7,25,4
13:30:17:426638,-11,-17,-7,-3,2,5,-1,-18
13:30:17:434860,-11,-17,-7,-3,2,5,-1,-18
13:30:17:435669,7,13,-10,-4,2,0,17,4
13:30:17:441647,-5,3,-8,-1,0,-2,3,-2
13:30:17:457371,-5,3,-8,-1,0,-2,3,-2
13:30:17:458136,3,12,-7,0,-8,-1,11,-4
13:30:17:464134,-7,-13,-5,-2,-2,-1,-5,-6
13:30:17:472404,-7,-13,-5,-2,-2,-1,-5,-6
13:30:17:473195,-4,14,-9,0,5,3,-24,14
13:30:17:486636,-1,16,3,-1,2,4,0,-14
13:30:17:494839,-1,16,3,-1,2,4,0,-14
13:30:17:495676,-5,-18,-1,1,1,-3,-16,-6
13:30:17:501625,0,13,1,-3,-3,-6,-10,1
13:30:17:517345,0,13,1,-3,-3,-6,-10,1
13:30:17:518141,-10,0,11,-3,-1,-1,7,-4
13:30:17:524163,1,-4,4,0,-1,-12,-20,-9
13:30:17:532369,1,-4,4,0,-1,-12,-20,-9
13:30:17:533164,-16,-41,-21,-6,-3,-1,8,7
13:30:17:546688,-1,-16,-6,2,0,1,1,4
13:30:17:554843,-1,-16,-6,2,0,1,1,4
13:30:17:555637,9,-11,5,-1,-3,-1,-2,0
13:30:17:561642,-4,-39,-3,1,12,16,25,24
13:30:17:577353,-4,-39,-3,1,12,16,25,24
13:30:17:578150,0,14,4,3,-5,-9,-4,-12
13:30:17:584179,9,12,-2,1,-6,-3,22,19
13:30:17:592345,9,12,-2,1,-6,-3,22,19
13:30:17:593149,-17,-10,1,-2,-2,-5,-18,4
13:30:17:606669,10,34,5,-1,-1,-4,-12,6
13:30:17:614848,10,34,5,-1,-1,-4,-12,6
13:30:17:615645,7,26,3,0,-2,-2,-5,-9
13:30:17:621705,5,31,3,2,-3,-3,-10,-7
13:30:17:637328,5,31,3,2,-3,-3,-10,-7
13:30:17:638121,2,1,13,0,-2,-4,2,-19
13:30:17:644171,5,-5,-1,0,-1,-6,-10,-8
13:30:17:652343,5,-5,-1,0,-1,-6,-10,-8
13:30:17:653147,-3,-10,-2,1,1,7,30,-5
13:30:17:666660,-4,7,-2,-2,-5,-9,5,-9
13:30:17:674840,-4,7,-2,-2,-5,-9,5,-9
13:30:17:675632,-6,15,-4,-4,-3,-8,-12,-1
13:30:17:681679,-5,-16,2,-1,2,9,-6,-13
13:30:17:697386,-5,-16,2,-1,2,9,-6,-13
13:30:17:698196,-13,-3,4,0,-3,1,1,-9
13:30:17:704163,2,8,1,-6,-1,0,15,-16
13:30:17:712341,2,8,1,-6,-1,0,15,-16
13:30:17:713152,12,-10,-10,0,4,3,-6,3
13:30:17:726653,-9,-11,3,-1,0,4,10,-3
13:30:17:734851,-9,-11,3,-1,0,4,10,-3
13:30:17:735647,0,-1,-2,-2,0,1,1,17
13:30:17:741660,-2,-2,-2,-1,-1,-2,-4,4
13:30:17:757366,-2,-2,-2,-1,-1,-2,-4,4
13:30:17:758182,11,12,-6,-1,-3,-8,-9,7
13:30:17:764139,-13,-4,2,0,-2,0,-4,-3
13:30:17:771681,-13,-4,2,0,-2,0,-4,-3
13:30:17:779192,-3,-34,10,-4,1,0,-5,-14
13:30:17:786655,0,-1,-5,-1,0,-4,-7,-6
13:30:17:794844,0,-1,-5,-1,0,-4,-7,-6
13:30:17:795641,6,-1,1,0,2,5,30,17
13:30:17:809189,-3,-8,-5,-2,-3,-7,-19,-12
13:30:17:817330,-3,-8,-5,-2,-3,-7,-19,-12
13:30:17:818133,-7,10,-6,3,8,18,22,5
13:30:17:824149,6,19,-4,-3,-3,-3,5,11
13:30:17:831684,6,19,-4,-3,-3,-3,5,11
13:30:17:839134,-25,-24,-7,-2,-4,-4,-7,-7
13:30:17:846670,2,0,1,0,2,7,9,6
13:30:17:862352,2,0,1,0,2,7,9,6
13:30:17:863149,-2,-8,-3,1,-5,-7,-28,-12
13:30:17:869171,-9,3,-3,0,5,10,1,-11
13:30:17:877366,-9,3,-3,0,5,10,1,-11
13:30:17:878164,8,18,2,1,-1,-12,-29,-12
13:30:17:884162,3,2,-5,-2,-5,-16,-21,-8
13:30:17:891703,3,2,-5,-2,-5,-16,-21,-8
13:30:17:899160,-6,-9,-4,0,4,12,4,1
13:30:17:906659,-7,-7,6,0,-1,0,-5,11
13:30:17:914858,-7,-7,6,0,-1,0,-5,11
13:30:17:915675,19,4,7,1,-2,1,-9,11
13:30:17:929165,6,-12,2,-3,-3,-8,4,8
13:30:17:937362,6,-12,2,-3,-3,-8,4,8
13:30:17:938144,3,5,1,-3,-5,-7,3,4
13:30:17:944138,-6,-4,-5,-1,-4,-4,-9,11
13:30:17:951716,-6,-4,-5,-1,-4,-4,-9,11
13:30:17:959156,8,9,4,1,3,5,15,22
13:30:17:966655,-2,-5,-4,-1,-2,-4,-9,14
13:30:17:974874,-2,-5,-4,-1,-2,-4,-9,14
13:30:17:975646,10,26,7,2,1,1,1,-3
13:30:17:989127,13,-15,-4,0,1,4,5,-11
13:30:17:997398,13,-15,-4,0,1,4,5,-11
13:30:17:998195,9,-8,4,-1,-4,-7,-11,-12
13:30:18:4127,5,-8,-3,1,5,7,8,8
13:30:18:11738,5,-8,-3,1,5,7,8,8
13:30:18:19182,4,0,-1,-5,-5,-5,15,-2
13:30:18:26653,0,11,-4,1,-3,1,3,2
13:30:18:34827,0,11,-4,1,-3,1,3,2
13:30:18:35638,-17,-30,-9,-3,3,3,-12,-13
13:30:18:49170,-6,-6,4,-1,-3,-6,-10,-12
13:30:18:57374,-6,-6,4,-1,-3,-6,-10,-12
13:30:18:58174,-2,19,0,-1,-3,-9,-11,-2
13:30:18:64152,8,6,1,0,4,11,31,3
13:30:18:71683,8,6,1,0,4,11,31,3
13:30:18:87368,2,-3,-8,-1,-1,-8,-9,-8
13:30:18:88127,-9,6,-6,-4,-3,-8,-10,-10
13:30:18:94876,-9,6,-6,-4,-3,-8,-10,-10
13:30:18:95706,-24,-31,-8,-6,0,2,18,-15
13:30:18:118000,-8,-18,-2,-2,1,-2,-21,-15
13:30:18:118829,-8,-18,-2,-2,1,-2,-21,-15
13:30:18:119667,15,12,-1,2,-2,5,-9,3
13:30:18:124169,-17,-6,-4,-4,-4,-4,-5,-4
13:30:18:131696,-17,-6,-4,-4,-4,-4,-5,-4
13:30:18:139168,8,8,1,3,4,3,-3,3
13:30:18:146649,-2,-61,-3,-7,-1,-1,4,-2
13:30:18:154898,-2,-61,-3,-7,-1,-1,4,-2
13:30:18:155670,-10,1,0,1,-3,-4,-8,6
13:30:18:169140,4,19,5,1,4,6,34,15
13:30:18:177343,4,19,5,1,4,6,34,15
13:30:18:178145,-3,-22,-4,-2,0,-2,8,-15
13:30:18:184120,7,2,3,1,-2,3,9,6
13:30:18:191719,7,2,3,1,-2,3,9,6
13:30:18:199136,-3,13,0,0,0,4,13,14
13:30:18:206640,2,-8,2,4,2,5,13,19
13:30:18:214888,2,-8,2,4,2,5,13,19
13:30:18:215692,-9,-1,-1,-4,-5,-11,-9,-11
13:30:18:229167,2,6,-6,-4,-4,-12,-27,-6
13:30:18:237380,2,6,-6,-4,-4,-12,-27,-6
13:30:18:238169,-21,1,0,-1,-3,-4,-9,4
13:30:18:244142,5,30,5,4,-1,0,-3,-6
13:30:18:251740,5,30,5,4,-1,0,-3,-6
13:30:18:259163,-9,3,0,-3,-1,-1,17,12
13:30:18:266653,3,3,3,4,1,-1,-13,0
13:30:18:274828,3,3,3,4,1,-1,-13,0
13:30:18:275675,7,-10,-3,-3,-3,1,2,0
13:30:18:289160,-6,-17,7,5,1,1,2,6
13:30:18:297384,-6,-17,7,5,1,1,2,6
13:30:18:298154,8,3,1,1,-1,0,14,15
13:30:18:304188,2,11,-2,-5,-6,-5,-18,-8
13:30:18:311697,2,11,-2,-5,-6,-5,-18,-8
13:30:18:319106,6,3,-1,-1,-1,-4,-25,-8
13:30:18:326692,-19,-12,-4,-5,-5,-7,-22,-16
13:30:18:334872,-19,-12,-4,-5,-5,-7,-22,-16
13:30:18:335644,-11,7,-5,-4,3,3,5,11
13:30:18:349174,-5,-4,-7,-2,-2,0,-6,-6
13:30:18:357349,-5,-4,-7,-2,-2,0,-6,-6
13:30:18:358149,1,2,-2,1,-3,0,-2,-5
13:30:18:364108,-8,-4,-3,-1,3,4,21,-1
13:30:18:371702,-8,-4,-3,-1,3,4,21,-1
13:30:18:379158,10,11,0,2,-1,0,10,-6
13:30:18:386655,-1,20,-2,0,-3,-8,-2,-10
13:30:18:394882,-1,20,-2,0,-3,-8,-2,-10
13:30:18:395685,-17,-36,-6,-3,1,-1,-13,-20
13:30:18:409102,31,39,0,1,-1,2,14,22
13:30:18:417364,31,39,0,1,-1,2,14,22
13:30:18:418151,6,3,9,1,2,1,-6,-8
13:30:18:424142,-5,9,3,-5,1,11,63,14
13:30:18:431727,-5,9,3,-5,1,11,63,14
13:30:18:439132,1,-1,-1,-2,-3,-4,1,11
13:30:18:446628,5,9,1,5,-1,3,3,-14
13:30:18:454881,5,9,1,5,-1,3,3,-14
13:30:18:455691,5,10,-1,-4,-2,-4,-9,-11
13:30:18:469146,-11,-10,-2,1,0,-7,-32,-9
13:30:18:477390,-11,-10,-2,1,0,-7,-32,-9
13:30:18:478183,-11,-2,1,-4,-3,-2,-16,-14
13:30:18:484120,-9,6,-4,-5,-1,-8,-24,-10
13:30:18:491739,-9,6,-4,-5,-1,-8,-24,-10
13:30:18:499166,9,13,2,0,6,7,28,13
13:30:18:506646,-22,-30,-1,-5,-3,-8,-16,3
13:30:18:514828,-22,-30,-1,-5,-3,-8,-16,3
13:30:18:515625,6,-6,-7,-3,-4,-6,-7,0
13:30:18:529120,11,8,-5,0,-1,0,-1,12
13:30:18:537414,11,8,-5,0,-1,0,-1,12
13:30:18:538224,5,8,4,-1,-2,-4,-4,-1
13:30:18:544169,-9,-38,-7,-5,-3,-6,-17,-19
13:30:18:551688,-9,-38,-7,-5,-3,-6,-17,-19
13:30:18:559145,12,23,7,2,0,0,-12,5
13:30:18:566687,10,-20,-3,-1,-1,-2,8,1
13:30:18:590504,10,-20,-3,-1,-1,-2,8,1
13:30:18:591348,-26,-34,-2,-3,2,0,-3,-12
13:30:18:592141,5,-11,-2,-1,-1,0,1,16
13:30:18:605510,5,-11,-2,-1,-1,0,1,16
13:30:18:606325,3,10,-2,1,-2,-1,-1,3
13:30:18:607142,10,9,2,-1,-1,0,-2,9
13:30:18:611743,10,9,2,-1,-1,0,-2,9
13:30:18:619142,-19,-13,-1,-2,1,3,11,0
13:30:18:626645,-3,2,-3,1,-2,-2,2,-7
13:30:18:634593,-3,2,-3,1,-2,-2,2,-7
13:30:18:641664,-15,-11,0,1,0,3,-8,-1
13:30:18:658034,-11,8,2,0,-2,-1,8,-12
13:30:18:658833,-11,8,2,0,-2,-1,8,-12
13:30:18:659649,17,10,-10,-6,-2,-5,1,7
13:30:18:664123,-16,-13,-16,-4,-2,0,-5,3
13:30:18:671690,-16,-13,-16,-4,-2,0,-5,3
13:30:18:679137,-8,-3,-3,-3,-6,-3,-4,-26
13:30:18:686667,7,-37,10,1,1,2,20,1
13:30:18:694215,7,-37,10,1,1,2,20,1
13:30:18:701675,8,10,-4,-1,-3,-4,-12,5
13:30:18:709165,11,20,4,-1,0,0,-7,-2
13:30:18:717335,11,20,4,-1,0,0,-7,-2
13:30:18:718135,-7,5,4,0,-1,-2,-11,-1
13:30:18:732368,-14,-1,-5,-3,0,1,-3,13
13:30:18:733181,-14,-1,-5,-3,0,1,-3,13
13:30:18:739154,-16,-12,-16,-5,-1,-4,3,-8
13:30:18:746648,7,28,1,1,-3,-3,-8,-19
13:30:18:754176,7,28,1,1,-3,-3,-8,-19
13:30:18:761674,21,-24,4,1,2,7,26,14
13:30:18:769190,0,24,6,0,-1,-1,-3,-2
13:30:18:777349,0,24,6,0,-1,-1,-3,-2
13:30:18:778122,3,16,3,4,1,0,1,8
13:30:18:792354,-2,6,7,1,3,3,-9,-1
13:30:18:793128,-2,6,7,1,3,3,-9,-1
13:30:18:799157,2,5,-7,-2,-4,-3,-11,-2
13:30:18:806661,-2,17,-1,-2,-3,-5,-5,-1
13:30:18:822382,-2,17,-1,-2,-3,-5,-5,-1
13:30:18:823175,3,-14,3,-1,-4,-5,11,-3
13:30:18:838002,2,-34,-10,-4,-3,-4,-9,-7
13:30:18:838839,2,-34,-10,-4,-3,-4,-9,-7
13:30:18:839632,-18,-40,0,-2,0,-4,-17,-10
13:30:18:852395,-5,-5,-2,-5,0,0,-1,-20
13:30:18:853191,-5,-5,-2,-5,0,0,-1,-20
13:30:18:859138,-13,-9,1,-2,3,3,-8,6
13:30:18:866673,4,2,5,2,0,7,7,22
13:30:18:874263,4,2,5,2,0,7,7,22
13:30:18:889797,5,25,-4,0,-4,-5,14,6
13:30:18:890618,10,-9,0,1,-2,0,3,9
13:30:18:897367,10,-9,0,1,-2,0,3,9
13:30:18:898169,8,10,0,-1,-1,2,4,3
13:30:18:912353,-20,3,1,-1,-1,-5,-11,-23
13:30:18:913165,-20,3,1,-1,-1,-5,-11,-23
13:30:18:919140,20,3,3,1,1,-3,-13,-19
13:30:18:934859,0,9,-6,-1,-3,-7,-30,-1
13:30:18:935670,0,9,-6,-1,-3,-7,-30,-1
13:30:18:941653,-7,-9,-1,-3,-3,-2,-8,1
13:30:18:965560,0,-22,-3,4,-1,-2,2,5
13:30:18:966351,0,-22,-3,4,-1,-2,2,5
13:30:18:967152,-12,-7,-1,2,3,3,13,5
13:30:18:972340,6,18,0,-1,-1,3,9,10
13:30:18:973140,6,18,0,-1,-1,3,9,10
13:30:18:979199,-1,-14,-2,0,2,3,16,10
13:30:18:986689,11,16,4,2,6,7,11,22
13:30:18:994223,11,16,4,2,6,7,11,22
13:30:19:1605,-15,7,3,-1,-2,3,7,-11
13:30:19:9100,2,16,4,0,2,3,16,10
13:30:19:17368,2,16,4,0,2,3,16,10
13:30:19:18180,-7,-4,-5,0,-2,-3,-12,2
13:30:19:32358,-7,2,6,-1,-1,4,34,-10
13:30:19:33165,-7,2,6,-1,-1,4,34,-10
13:30:19:39116,12,22,2,-3,0,-4,-9,-7
13:30:19:46614,13,-15,-3,1,-3,-3,-9,-7
13:30:19:54201,13,-15,-3,1,-3,-3,-9,-7
13:30:19:61640,17,10,4,0,-1,0,3,3
13:30:19:69161,-8,-17,-4,-5,-1,-3,-9,-2
13:30:19:77375,-8,-17,-4,-5,-1,-3,-9,-2
13:30:19:78145,-4,27,7,0,2,5,15,0
13:30:19:92355,-13,2,0,-1,-2,-1,3,-7
13:30:19:93151,-13,2,0,-1,-2,-1,3,-7
13:30:19:99144,0,-26,-7,-2,-1,-3,-22,-16
13:30:19:122971,6,9,3,-2,-1,9,25,-4
13:30:19:123839,6,9,3,-2,-1,9,25,-4
13:30:19:124606,-22,-12,-6,1,-3,-7,-11,0
13:30:19:129182,1,-3,-4,-3,-1,-2,-1,-1
13:30:19:137349,1,-3,-4,-3,-1,-2,-1,-1
13:30:19:138133,18,12,-1,0,0,1,6,3
13:30:19:152362,-6,12,-1,2,0,-6,-20,-5
13:30:19:153146,-6,12,-1,2,0,-6,-20,-5
13:30:19:159186,-9,-21,-3,-1,0,1,8,6
13:30:19:166666,-5,-21,-5,-3,-1,-4,-19,-7
13:30:19:174204,-5,-21,-5,-3,-1,-4,-19,-7
13:30:19:181610,12,-14,4,1,-1,-3,-12,7
13:30:19:189114,-8,1,2,0,0,-1,9,11
13:30:19:197381,-8,1,2,0,0,-1,9,11
13:30:19:198125,5,2,1,1,0,1,17,2
13:30:19:212375,4,0,0,-4,1,0,6,10
13:30:19:213154,4,0,0,-4,1,0,6,10
13:30:19:219116,-2,10,3,0,-2,-3,-6,-3
13:30:19:226598,-25,-18,-3,-6,0,-7,-17,-8
13:30:19:234203,-25,-18,-3,-6,0,-7,-17,-8
13:30:19:241671,-8,15,-10,-4,0,-2,9,12
13:30:19:249171,-3,13,-1,-3,-2,-5,0,-2
13:30:19:257371,-3,13,-1,-3,-2,-5,0,-2
13:30:19:258159,1,9,-11,-2,-1,-1,-3,-2
13:30:19:272344,11,4,-7,0,-5,-1,-1,2
13:30:19:273151,11,4,-7,0,-5,-1,-1,2
13:30:19:279140,2,-28,1,-1,-1,-4,-25,-6
13:30:19:286651,3,-8,0,-1,-2,0,-11,-18
13:30:19:294208,3,-8,0,-1,-2,0,-11,-18
13:30:19:301692,14,7,-4,-2,-3,-3,-5,-5
13:30:19:309158,1,2,2,0,0,5,12,9
13:30:19:317404,1,2,2,0,0,5,12,9
13:30:19:318189,-4,8,3,-2,-3,-1,-6,-5
13:30:19:332367,0,9,2,4,-2,-2,-5,1
13:30:19:333196,0,9,2,4,-2,-2,-5,1
13:30:19:339146,-22,2,8,0,-1,5,13,2
13:30:19:346661,6,7,1,2,0,8,56,11
13:30:19:354209,6,7,1,2,0,8,56,11
13:30:19:361675,-10,2,-2,-1,1,0,-4,2
13:30:19:369168,1,-4,3,3,0,-1,-13,2
13:30:19:377393,1,-4,3,3,0,-1,-13,2
13:30:19:378131,0,-36,-2,-1,-1,1,26,4
13:30:19:392348,-8,-27,-4,-4,-1,-5,-16,-12
13:30:19:393160,-8,-27,-4,-4,-1,-5,-16,-12
13:30:19:407353,-13,19,2,0,2,-4,-20,-6
13:30:19:408098,0,-2,0,-2,1,0,14,1
13:30:19:422777,0,-2,0,-2,1,0,14,1
13:30:19:429800,14,2,0,-7,-2,-1,-8,-9
13:30:19:430602,15,37,6,3,1,0,-5,-5
13:30:19:437372,15,37,6,3,1,0,-5,-5
13:30:19:438174,6,17,-1,2,-3,-1,-3,-1
13:30:19:452825,-10,-13,-5,-2,-4,-6,-20,-11
13:30:19:453640,-10,-13,-5,-2,-4,-6,-20,-11
13:30:19:459175,5,-2,-3,-6,-4,-4,-9,3
13:30:19:466639,-3,-15,-10,-4,-5,-11,-29,-5
13:30:19:474225,-3,-15,-10,-4,-5,-11,-29,-5
13:30:19:481667,-19,3,1,-2,-2,-4,-16,-15
13:30:19:489149,-8,-15,-3,-3,1,-5,-17,-14
13:30:19:497384,-8,-15,-3,-3,1,-5,-17,-14
13:30:19:498205,20,18,-10,-3,1,3,14,17
13:30:19:512414,4,7,-3,-1,-2,3,20,15
13:30:19:513199,4,7,-3,-1,-2,3,20,15
13:30:19:519155,19,1,2,0,0,-1,13,-14
13:30:19:526671,-8,0,1,-1,-3,-4,-11,-4
13:30:19:534194,-8,0,1,-1,-3,-4,-11,-4
13:30:19:541643,-18,-20,3,0,1,4,20,-8
13:30:19:549169,-17,-9,-3,2,2,6,6,2
13:30:19:557377,-17,-9,-3,2,2,6,6,2
13:30:19:558142,-3,-11,-4,1,-1,-4,-12,-9
13:30:19:572342,4,-11,7,3,2,0,0,-6
13:30:19:573170,4,-11,7,3,2,0,0,-6
13:30:19:579195,15,1,6,5,4,4,2,-5
13:30:19:586664,14,12,2,0,1,-1,-9,-13
13:30:19:594159,14,12,2,0,1,-1,-9,-13
13:30:19:601683,-2,1,0,0,-4,-3,-12,-3
13:30:19:609157,7,-1,-4,-1,1,2,14,7
13:30:19:617338,7,-1,-4,-1,1,2,14,7
13:30:19:618130,6,4,-5,-3,0,0,18,16
13:30:19:632372,-4,1,-6,-3,-4,-6,-5,0
13:30:19:633166,-4,1,-6,-3,-4,-6,-5,0
13:30:19:639119,-5,6,6,-1,0,0,0,-7
13:30:19:654839,-10,-45,-11,-4,-3,-5,-9,-8
13:30:19:655655,-10,-45,-11,-4,-3,-5,-9,-8
13:30:19:661672,-12,-6,3,1,-3,-3,-18,1
13:30:19:669181,0,-17,-5,-2,-1,2,-4,13
13:30:19:676717,0,-17,-5,-2,-1,2,-4,13
13:30:19:684110,18,-15,-7,1,-3,-3,-18,11
13:30:19:692338,-8,19,-5,-5,-4,-4,-11,-5
13:30:19:693172,-8,19,-5,-5,-4,-4,-11,-5
13:30:19:699190,4,-4,3,3,1,-3,7,8
13:30:19:731206,3,21,5,1,-3,-3,0,-5
13:30:19:731997,3,21,5,1,-3,-3,0,-5
13:30:19:732815,-2,11,3,-2,0,0,-6,-8
13:30:19:733617,28,18,9,1,2,0,-1,-14
13:30:19:736731,28,18,9,1,2,0,-1,-14
13:30:19:744156,-14,-4,-17,-6,-3,-5,8,17
13:30:19:752371,-5,12,-1,-3,-4,-2,-10,-6
13:30:19:753137,-5,12,-1,-3,-4,-2,-10,-6
13:30:19:766644,-6,-2,4,2,1,1,-6,1
13:30:19:774883,-14,-43,-6,2,-2,-1,-3,9
13:30:19:775699,-14,-43,-6,2,-2,-1,-3,9
13:30:19:781657,-9,-17,4,0,1,1,-11,-2
13:30:19:789135,16,29,3,-2,2,6,17,10
13:30:19:796666,16,29,3,-2,2,6,17,10
13:30:19:804180,2,-15,-1,-4,-2,-3,-5,4
13:30:19:812362,-12,-43,-1,-7,0,0,12,-9
13:30:19:813150,-12,-43,-1,-7,0,0,12,-9
13:30:19:819141,2,5,-2,-1,-2,-2,3,4
13:30:19:834830,0,-1,1,1,1,-1,-4,6
13:30:19:835638,0,-1,1,1,1,-1,-4,6
13:30:19:841665,-5,20,-1,-2,-2,-1,8,-3
13:30:19:849176,-13,-7,-1,-5,2,2,3,-3
13:30:19:856714,-13,-7,-1,-5,2,2,3,-3
13:30:19:864128,7,6,-7,-1,1,8,27,0
13:30:19:872364,9,30,-1,1,-1,-6,-5,7
13:30:19:873189,9,30,-1,1,-1,-6,-5,7
13:30:19:879150,-9,3,-6,-10,-4,-7,-10,-9
13:30:19:894846,5,17,8,-1,0,-1,2,10
13:30:19:895698,5,17,8,-1,0,-1,2,10
13:30:19:901620,-8,-34,-7,-3,-1,-2,-6,-27
13:30:19:909140,-4,1,-17,-2,-1,-2,-8,-7
13:30:19:916714,-4,1,-17,-2,-1,-2,-8,-7
13:30:19:924150,0,-6,12,5,-1,-1,1,4
13:30:19:932332,5,32,6,-1,0,-2,-6,-4
13:30:19:933162,5,32,6,-1,0,-2,-6,-4
13:30:19:939155,-6,-31,-16,-4,-1,0,1,-3
13:30:19:954873,-10,-9,-2,1,-1,-1,0,-10
13:30:19:955666,-10,-9,-2,1,-1,-1,0,-10
13:30:19:961658,-20,8,4,1,-1,-2,13,6
13:30:19:969165,-10,-15,1,-8,-9,-8,-10,-14
13:30:19:976756,-10,-15,1,-8,-9,-8,-10,-14
13:30:19:984156,3,-18,-3,13,13,5,-12,-4
13:30:19:992385,-12,-14,-16,1,-3,-3,-5,-9
13:30:19:993189,-12,-14,-16,1,-3,-3,-5,-9
13:30:19:999187,-3,-16,-2,-2,-2,-2,1,19
13:30:20:14848,4,-3,3,-4,-4,-1,-2,-14
13:30:20:15697,4,-3,3,-4,-4,-1,-2,-14
13:30:20:21646,10,14,4,-3,-2,-1,-8,-8
13:30:20:29168,4,1,-8,-3,1,1,2,1
13:30:20:36739,4,1,-8,-3,1,1,2,1
13:30:20:44199,5,38,1,-6,-6,-3,-5,0
13:30:20:52372,-20,-18,28,8,2,3,7,12
13:30:20:53155,-20,-18,28,8,2,3,7,12
13:30:20:59172,4,11,-8,-7,-6,-5,-7,0
13:30:20:74840,-1,-2,-13,-6,-1,-3,2,10
13:30:20:75634,-1,-2,-13,-6,-1,-3,2,10
13:30:20:81680,5,5,19,4,2,3,3,3
13:30:20:89182,6,-18,6,-1,-1,-1,3,15
13:30:20:96681,6,-18,6,-1,-1,-1,3,15
13:30:20:104183,5,37,6,-12,0,-4,11,-4
13:30:20:112370,4,-5,-13,2,-3,-1,-1,6
13:30:20:113155,4,-5,-13,2,-3,-1,-1,6
13:30:20:119115,-17,-43,-21,-5,-3,-5,-11,-6
13:30:20:134839,3,4,-12,-2,2,-2,2,-3
13:30:20:135635,3,4,-12,-2,2,-2,2,-3
13:30:20:141665,4,20,21,4,-6,-3,-4,-15
13:30:20:149194,18,35,-27,-3,1,7,1,1
13:30:20:156721,18,35,-27,-3,1,7,1,1
13:30:20:164136,-9,-36,16,1,0,-2,2,11
13:30:20:172356,0,24,27,0,1,-1,-3,0
13:30:20:173179,0,24,27,0,1,-1,-3,0
13:30:20:179183,-8,-3,-12,-3,-2,0,-3,-2
13:30:20:194839,0,-3,12,-1,-5,-2,-4,4
13:30:20:195686,0,-3,12,-1,-5,-2,-4,4
13:30:20:201603,0,-6,22,7,4,2,2,10
13:30:20:209148,2,17,-15,1,-5,-3,-1,-2
13:30:20:216703,2,17,-15,1,-5,-3,-1,-2
13:30:20:224158,-3,30,11,6,-4,0,-1,-2
13:30:20:232353,12,24,10,0,0,1,-2,5
13:30:20:233165,12,24,10,0,0,1,-2,5
13:30:20:239171,10,28,-13,-1,-1,1,-2,3
13:30:20:254855,-10,-42,-82,-8,5,0,-4,-5
13:30:20:255657,-10,-42,-82,-8,5,0,-4,-5
13:30:20:261670,2,9,-4,-5,-2,-2,-4,-5
13:30:20:269155,-8,-3,18,-4,-4,-6,-3,-10
13:30:20:276709,-8,-3,18,-4,-4,-6,-3,-10
13:30:20:284141,17,1,-19,0,-4,0,4,2
13:30:20:292357,-11,-42,8,-1,1,-1,2,6
13:30:20:293142,-11,-42,8,-1,1,-1,2,6
13:30:20:299177,-2,-26,-9,0,4,1,2,5
13:30:20:314921,7,-6,4,-4,1,1,1,-10
13:30:20:315678,7,-6,4,-4,1,1,1,-10
13:30:20:321656,-12,5,-5,-6,0,0,-7,-16
13:30:20:329180,5,0,25,1,-1,-2,-3,9
13:30:20:336733,5,0,25,1,-1,-2,-3,9
13:30:20:344147,-8,-19,3,-2,-4,-4,2,-2
13:30:20:352333,-5,19,21,-2,0,2,2,5
13:30:20:353130,-5,19,21,-2,0,2,2,5
13:30:20:359183,-26,-49,3,1,1,-1,-8,-14
13:30:20:374806,10,16,20,4,-1,0,4,8
13:30:20:375653,10,16,20,4,-1,0,4,8
13:30:20:381664,-3,-5,6,9,4,3,3,-1
13:30:20:389151,-3,-12,9,1,0,-3,-3,-3
13:30:20:396685,-3,-12,9,1,0,-3,-3,-3
13:30:20:404185,10,0,-3,-5,-6,-6,-1,10
13:30:20:412357,-14,0,6,-3,-4,-3,-7,-25
13:30:20:413154,-14,0,6,-3,-4,-3,-7,-25
13:30:20:419126,9,-12,-12,-5,2,-1,0,2
13:30:20:434826,-4,14,-9,-5,-2,-5,-7,-4
13:30:20:435684,-4,14,-9,-5,-2,-5,-7,-4
13:30:20:441694,-3,-30,-33,-6,-2,-1,1,5
13:30:20:449176,-1,-6,3,3,1,0,3,2
13:30:20:456704,-1,-6,3,3,1,0,3,2
13:30:20:464113,12,16,13,3,4,3,-5,3
13:30:20:472367,5,-2,-16,-6,2,-5,-5,-13
13:30:20:473168,5,-2,-16,-6,2,-5,-5,-13
13:30:20:479154,-11,-8,18,4,2,-1,-2,-7
13:30:20:503011,-4,-23,0,17,17,6,5,15
13:30:20:503792,-4,-23,0,17,17,6,5,15
13:30:20:504603,7,9,-24,-9,-2,-5,-5,-10
13:30:20:525550,7,9,-24,-9,-2,-5,-5,-10
13:30:20:526340,-1,-8,-8,-3,-4,1,1,5
13:30:20:527140,12,11,1,0,2,-1,-2,-15
13:30:20:532406,12,11,1,0,2,-1,-2,-15
13:30:20:533168,-1,-15,6,0,-3,0,1,-6
13:30:20:539151,3,-1,12,-7,-5,0,6,18
13:30:20:554883,3,-1,12,-7,-5,0,6,18
13:30:20:555691,-11,-3,-8,-7,-2,-2,4,14
13:30:20:561688,-15,30,-13,0,8,-1,-4,-4
13:30:20:577370,-15,30,-13,0,8,-1,-4,-4
13:30:20:578187,-3,23,8,13,13,7,1,3
13:30:20:584165,2,15,-11,1,-3,-3,-4,-13
13:30:20:592408,2,15,-11,1,-3,-3,-4,-13
13:30:20:593184,-3,12,-1,0,0,-1,-8,-9
13:30:20:606631,-10,-26,-51,-5,-1,-2,-5,-5
13:30:20:614892,-10,-26,-51,-5,-1,-2,-5,-5
13:30:20:615660,-11,-12,-22,-9,-9,-5,2,13
13:30:20:621656,-2,2,15,-3,-2,0,0,-8
13:30:20:637840,-2,2,15,-3,-2,0,0,-8
13:30:20:638631,13,0,-7,-8,-10,-2,1,-8
13:30:20:644127,3,-9,42,9,0,3,3,0
13:30:20:653038,3,-9,42,9,0,3,3,0
13:30:20:653811,12,-12,19,5,0,0,4,12
13:30:20:666636,2,25,10,2,-5,-1,-2,-2
13:30:20:674876,2,25,10,2,-5,-1,-2,-2
13:30:20:675661,8,13,16,-6,-6,1,2,-3
13:30:20:681649,2,30,4,1,1,1,-3,4
13:30:20:697383,2,30,4,1,1,1,-3,4
13:30:20:698161,6,13,-7,-3,-3,1,9,13
13:30:20:704145,4,7,-7,-4,3,2,-5,-11
13:30:20:712379,4,7,-7,-4,3,2,-5,-11
13:30:20:713183,3,32,6,0,-3,-6,2,11
13:30:20:726704,1,-16,-12,0,3,0,2,7
13:30:20:734863,1,-16,-12,0,3,0,2,7
13:30:20:735650,-6,-7,-8,0,1,1,-2,-9
13:30:20:741625,1,-18,-15,-1,-4,-2,-1,0
13:30:20:757388,1,-18,-15,-1,-4,-2,-1,0
13:30:20:758165,-10,-16,5,-2,-3,-4,-10,-27
13:30:20:764129,3,-32,-6,6,2,1,-1,1
13:30:20:772358,3,-32,-6,6,2,1,-1,1
13:30:20:773166,-29,-28,-38,-7,4,-2,-9,-21
13:30:20:786702,-1,-9,5,5,2,2,9,8
13:30:20:794857,-1,-9,5,5,2,2,9,8
13:30:20:795649,7,-3,5,5,0,0,5,13
13:30:20:801627,-20,-31,9,-23,-4,-5,-6,-7
13:30:20:817340,-20,-31,9,-23,-4,-5,-6,-7
13:30:20:818134,10,11,11,1,-4,3,2,18
13:30:20:824191,1,15,22,5,3,-1,6,4
13:30:20:832365,1,15,22,5,3,-1,6,4
13:30:20:833165,-27,-54,-2,-3,0,-5,-7,-19
13:30:20:846663,-4,-3,2,-7,-7,-2,1,0
13:30:20:854825,-4,-3,2,-7,-7,-2,1,0
13:30:20:855659,1,21,0,4,-4,-1,0,9
13:30:20:861722,-7,10,-6,-2,-9,-4,-9,-4
13:30:20:877384,-7,10,-6,-2,-9,-4,-9,-4
13:30:20:878183,14,-13,9,4,9,5,-4,-11
13:30:20:884146,-3,-13,-9,-6,-3,-6,-10,-12
13:30:20:892392,-3,-13,-9,-6,-3,-6,-10,-12
13:30:20:893129,3,12,-5,-3,0,-2,3,4
13:30:20:906664,-15,-32,10,1,-5,0,-2,-6
13:30:20:914848,-15,-32,10,1,-5,0,-2,-6
13:30:20:915626,-3,-24,7,0,0,-2,-4,-9
13:30:20:921669,-5,5,-4,7,-4,-4,2,17
13:30:20:937413,-5,5,-4,7,-4,-4,2,17
13:30:20:938178,10,37,-2,-7,-6,-4,-5,-2
13:30:20:944160,5,3,12,2,5,7,6,2
13:30:20:952375,5,3,12,2,5,7,6,2
13:30:20:953132,4,24,-6,1,2,3,5,5
13:30:20:966682,9,15,-5,5,6,0,3,7
13:30:20:974910,9,15,-5,5,6,0,3,7
13:30:20:975680,-4,-5,10,-3,-1,-5,-11,-13
13:30:20:981645,0,24,34,9,-2,2,3,10
13:30:20:997389,0,24,34,9,-2,2,3,10
13:30:20:998176,4,1,3,1,0,1,3,9
13:30:21:4157,11,16,12,6,6,-4,0,4
13:30:21:12410,11,16,12,6,6,-4,0,4
13:30:21:13184,-18,-3,-9,-7,-7,-3,-7,-19
13:30:21:26624,6,1,-2,-9,-5,-3,1,2
13:30:21:34888,6,1,-2,-9,-5,-3,1,2
13:30:21:35681,-10,-24,-29,-7,7,0,-1,-8
13:30:21:41670,2,6,-17,1,0,-2,-4,-1
13:30:21:57351,2,6,-17,1,0,-2,-4,-1
13:30:21:58178,12,5,13,-1,-3,-2,3,6
13:30:21:64139,5,-24,-32,-5,-2,-1,0,-6
13:30:21:72373,5,-24,-32,-5,-2,-1,0,-6
13:30:21:73158,-11,-30,35,6,-5,0,3,-4
13:30:21:86639,-2,23,-5,-10,-10,-3,0,1
13:30:21:94892,-2,23,-5,-10,-10,-3,0,1
13:30:21:95681,9,3,-2,5,2,2,4,22
13:30:21:101657,4,2,4,-2,0,-2,-7,-9
13:30:21:118017,4,2,4,-2,0,-2,-7,-9
13:30:21:118815,-17,-18,-10,1,-3,-1,2,6
13:30:21:124136,1,-4,0,-1,-1,0,-1,-3
13:30:21:132416,1,-4,0,-1,-1,0,-1,-3
13:30:21:133183,4,9,8,-5,-3,-1,1,-3
13:30:21:146632,-29,-16,-9,-5,0,-3,-5,-15
13:30:21:154876,-29,-16,-9,-5,0,-3,-5,-15
13:30:21:155679,5,38,-3,0,4,-2,-8,-7
13:30:21:161638,8,-9,-21,-2,-5,-3,-3,12
13:30:21:177363,8,-9,-21,-2,-5,-3,-3,12
13:30:21:178141,2,0,7,3,0,-1,-2,3
13:30:21:184136,10,14,11,1,1,0,3,-9
13:30:21:192372,10,14,11,1,1,0,3,-9
13:30:21:193168,-4,-22,-15,-4,1,-7,-6,-3
13:30:21:206705,1,10,4,6,0,2,4,1
13:30:21:214871,1,10,4,6,0,2,4,1
13:30:21:215661,6,9,-2,-1,-3,1,0,2
13:30:21:221629,-1,4,-6,-3,-6,-4,-3,12
13:30:21:237363,-1,4,-6,-3,-6,-4,-3,12
13:30:21:238139,-5,1,-5,-3,-7,-6,-6,-11
13:30:21:244097,-2,-22,-14,-5,4,2,0,-5
13:30:21:252358,-2,-22,-14,-5,4,2,0,-5
13:30:21:253170,12,21,-7,-2,0,0,6,14
13:30:21:266674,10,22,0,2,5,-3,-10,-19
13:30:21:274828,10,22,0,2,5,-3,-10,-19
13:30:21:275667,8,10,8,-1,-1,1,0,12
13:30:21:281644,-1,6,6,-18,-3,-4,-5,-1
13:30:21:297399,-1,6,6,-18,-3,-4,-5,-1
13:30:21:298127,-21,-17,-6,0,-1,0,3,-5
13:30:21:304176,-13,-51,-32,-5,2,2,4,6
13:30:21:312358,-13,-51,-32,-5,2,2,4,6
13:30:21:313188,-3,-28,-3,-2,-5,1,1,3
13:30:21:326642,2,13,-2,3,1,4,6,-1
13:30:21:334840,2,13,-2,3,1,4,6,-1
13:30:21:335671,5,8,-21,-2,-3,-3,-4,-15
13:30:21:341710,6,9,7,7,-4,3,14,25
13:30:21:357392,6,9,7,7,-4,3,14,25
13:30:21:358123,-12,4,-3,-1,-3,-1,4,-6
13:30:21:364142,-15,-1,-2,2,-1,-2,-6,1
13:30:21:372342,-15,-1,-2,2,-1,-2,-6,1
13:30:21:373135,12,68,13,1,4,-3,-4,3
13:30:21:386651,-3,6,22,1,-7,-5,-11,-8
13:30:21:394833,-3,6,22,1,-7,-5,-11,-8
13:30:21:395643,-1,-10,-12,0,0,1,12,1
13:30:21:401680,-2,-21,1,-3,-2,-4,-3,0
13:30:21:417397,-2,-21,1,-3,-2,-4,-3,0
13:30:21:418169,-1,-28,3,-3,1,3,13,2
13:30:21:424156,0,-1,4,4,5,2,-1,-1
13:30:21:432354,0,-1,4,4,5,2,-1,-1
13:30:21:433138,4,19,-23,0,0,1,-7,9
13:30:21:446673,-16,-7,-8,-3,-3,-4,-10,-19
13:30:21:454869,-16,-7,-8,-3,-3,-4,-10,-19
13:30:21:455690,-11,-34,7,1,1,7,-24,-38
13:30:21:461682,2,-17,-5,-4,2,-1,0,1
13:30:21:477394,2,-17,-5,-4,2,-1,0,1
13:30:21:478200,-1,-29,-19,-4,-1,-4,-5,3
13:30:21:484144,-14,-34,6,-1,-6,-4,-3,-15
13:30:21:492389,-14,-34,6,-1,-6,-4,-3,-15
13:30:21:493157,11,-20,7,-1,0,-3,-3,0
13:30:21:506645,15,19,4,4,-4,-6,-8,11
13:30:21:514883,15,19,4,4,-4,-6,-8,11
13:30:21:515694,0,29,16,0,2,-2,-1,2
13:30:21:521677,1,-9,17,-3,4,7,-1,10
13:30:21:537358,1,-9,17,-3,4,7,-1,10
13:30:21:538166,0,19,10,-6,-8,-15,-15,-25
13:30:21:544144,-19,-28,-8,2,16,-8,-17,5
13:30:21:551717,-19,-28,-8,2,16,-8,-17,5
13:30:21:559145,-2,9,-6,-1,2,3,14,14
13:30:21:566699,-11,-20,-10,-4,-8,-5,-22,-23
13:30:21:574855,-11,-20,-10,-4,-8,-5,-22,-23
13:30:21:575632,-2,-21,-2,1,3,6,20,15
13:30:21:589129,14,32,2,2,-7,-2,1,17
13:30:21:597394,14,32,2,2,-7,-2,1,17
13:30:21:598182,-2,-8,15,-1,-2,-2,-13,-7
13:30:21:604137,-28,-50,-3,-1,-5,-6,-1,-7
13:30:21:611684,-28,-50,-3,-1,-5,-6,-1,-7
13:30:21:619172,17,-25,-11,-3,0,0,1,6
13:30:21:626666,-5,-8,-4,-1,-4,-3,6,2
13:30:21:634856,-5,-8,-4,-1,-4,-3,6,2
13:30:21:635647,-5,12,6,5,3,8,-1,-8
13:30:21:649172,7,8,-5,-5,0,-4,-9,-9
13:30:21:657427,7,8,-5,-5,0,-4,-9,-9
13:30:21:658161,-1,17,-3,-2,-3,-5,-11,-7
13:30:21:664154,-17,-15,1,0,1,9,16,5
13:30:21:671705,-17,-15,1,0,1,9,16,5
13:30:21:679148,-10,-15,-5,-1,-2,-5,-6,1
13:30:21:686599,21,41,1,2,0,4,10,4
13:30:21:694861,21,41,1,2,0,4,10,4
13:30:21:695659,-1,-53,-6,-4,-2,-7,-21,-1
13:30:21:717966,12,36,3,0,4,12,0,2
13:30:21:718765,12,36,3,0,4,12,0,2
13:30:21:719617,-11,5,-4,-2,-3,2,-3,0
13:30:21:724145,-5,-17,-5,-3,-2,0,1,-3
13:30:21:731688,-5,-17,-5,-3,-2,0,1,-3
13:30:21:739188,-7,-12,-5,-8,-8,-12,2,-21
13:30:21:746683,7,18,-2,1,-1,1,6,7
13:30:21:754857,7,18,-2,1,-1,1,6,7
13:30:21:755663,4,3,-2,6,3,4,12,17
13:30:21:769172,0,-10,3,-3,0,-3,-3,-23
13:30:21:777387,0,-10,3,-3,0,-3,-3,-23
13:30:21:778132,4,-3,7,3,8,17,8,-2
13:30:21:784166,12,32,-9,-2,-4,-2,-11,-3
13:30:21:791682,12,32,-9,-2,-4,-2,-11,-3
13:30:21:799122,-33,3,14,-3,3,-1,9,-6
13:30:21:806623,1,-4,-6,-3,0,-4,-3,1
13:30:21:814897,1,-4,-6,-3,0,-4,-3,1
13:30:21:815667,13,37,-4,6,-5,2,-1,9
13:30:21:829184,-12,-1,-4,-2,-3,-6,5,2
13:30:21:837354,-12,-1,-4,-2,-3,-6,5,2
13:30:21:838160,-1,1,-7,0,-4,-3,-1,3
13:30:21:844139,6,6,-1,3,-1,2,4,-3
13:30:21:851690,6,6,-1,3,-1,2,4,-3
13:30:21:859138,-13,-10,3,-4,-4,-1,-1,4
13:30:21:866637,-18,-38,5,-5,-5,-6,-4,-8
13:30:21:874898,-18,-38,5,-5,-5,-6,-4,-8
13:30:21:875685,6,-12,-2,0,-1,-8,-14,-3
13:30:21:889141,1,10,-18,-1,18,-3,5,15
13:30:21:897363,1,10,-18,-1,18,-3,5,15
13:30:21:898153,11,24,-1,-7,2,-5,-8,3
13:30:21:904139,6,11,3,2,-2,0,1,9
13:30:21:919885,6,11,3,2,-2,0,1,9
13:30:21:920650,4,22,-18,0,2,-1,-9,5
13:30:21:926644,2,-27,-10,-4,-2,1,13,22
13:30:21:934879,2,-27,-10,-4,-2,1,13,22
13:30:21:935664,2,7,11,1,-3,-9,-5,-10
13:30:21:949130,5,32,7,3,-7,-8,-3,-10
13:30:21:957392,5,32,7,3,-7,-8,-3,-10
13:30:21:958177,-17,-23,1,-3,3,2,7,-20
13:30:21:964144,-5,12,-1,-4,-2,3,-8,-21
13:30:21:971725,-5,12,-1,-4,-2,3,-8,-21
13:30:21:979135,8,12,3,3,-2,-2,-5,2
13:30:21:986676,0,-75,-3,-4,-6,1,12,7
13:30:21:994877,0,-75,-3,-4,-6,1,12,7
13:30:21:995682,4,4,-1,-2,-1,-3,-4,-4
13:30:22:9154,5,32,6,3,-1,0,-4,-1
13:30:22:17371,5,32,6,3,-1,0,-4,-1
13:30:22:18152,-3,-35,-19,-3,1,2,10,0
13:30:22:24144,3,18,2,1,4,10,-8,-6
13:30:22:31711,3,18,2,1,4,10,-8,-6
13:30:22:39166,-16,-16,-18,-1,-6,3,4,9
13:30:22:46664,2,10,1,-5,1,-2,17,-3
13:30:22:54861,2,10,1,-5,1,-2,17,-3
13:30:22:55621,8,26,6,-2,-8,-12,-6,5
13:30:22:69151,-8,22,1,2,-6,0,7,1
13:30:22:77388,-8,22,1,2,-6,0,7,1
13:30:22:78184,1,-12,2,1,-1,-3,-5,13
13:30:22:84142,3,12,3,-3,-2,-4,-11,-5
13:30:22:91691,3,12,3,-3,-2,-4,-11,-5
13:30:22:99201,-13,-31,8,-3,2,-1,-1,-6
13:30:22:106659,-4,-16,-9,1,-3,-7,-2,7
13:30:22:114841,-4,-16,-9,1,-3,-7,-2,7
13:30:22:115645,17,21,5,-2,-11,0,8,-1
13:30:22:129637,-4,-13,-13,-2,-5,-1,2,-6
13:30:22:137422,-4,-13,-13,-2,-5,-1,2,-6
13:30:22:138142,-7,19,0,0,-3,-3,-11,-9
13:30:22:152373,0,-11,6,0,10,13,3,5
13:30:22:153211,0,-11,6,0,10,13,3,5
13:30:22:159184,-1,-12,-10,-3,5,5,3,-5
13:30:22:175528,0,-7,18,2,-3,-6,-6,6
13:30:22:176364,0,-7,18,2,-3,-6,-6,6
13:30:22:177149,-6,13,3,-5,2,5,5,-3
13:30:22:198016,6,10,-24,0,-3,2,12,15
13:30:22:198813,6,10,-24,0,-3,2,12,15
13:30:22:199619,-1,9,5,0,0,-2,14,-6
13:30:22:204184,-11,-30,1,-3,0,-5,-17,-24
13:30:22:219908,-11,-30,1,-3,0,-5,-17,-24
13:30:22:220681,2,7,-6,3,3,0,-3,5
13:30:22:226660,5,7,1,1,-2,-1,3,3
13:30:22:234845,5,7,1,1,-2,-1,3,3
13:30:22:235642,-23,-34,-1,-6,1,-5,6,-10
13:30:22:249232,-4,16,4,-1,-1,-3,-10,0
13:30:22:257383,-4,16,4,-1,-1,-3,-10,0
13:30:22:258207,-1,-17,0,3,1,1,-2,15
13:30:22:272374,-3,-23,-20,-2,-1,-2,-4,-4
13:30:22:273185,-3,-23,-20,-2,-1,-2,-4,-4
13:30:22:279194,12,9,6,3,2,3,3,6
13:30:22:286672,8,13,8,2,0,1,7,4
13:30:22:294856,8,13,8,2,0,1,7,4
13:30:22:295657,-10,-18,0,-1,1,1,0,-4
13:30:22:309168,-4,-21,11,1,-3,-6,-10,-7
13:30:22:317405,-4,-21,11,1,-3,-6,-10,-7
13:30:22:318194,9,8,8,0,0,0,4,6
13:30:22:324160,-13,12,-2,-4,-4,-5,-4,-2
13:30:22:331682,-13,12,-2,-4,-4,-5,-4,-2
13:30:22:339181,2,-21,-11,-3,-1,-2,-5,-4
13:30:22:346667,2,-4,7,0,-3,-3,3,-4
13:30:22:354858,2,-4,7,0,-3,-3,3,-4
13:30:22:355628,-2,9,-2,-2,-2,-3,-4,8
13:30:22:369185,-10,-32,-4,-1,-1,-1,-13,6
13:30:22:377362,-10,-32,-4,-1,-1,-1,-13,6
13:30:22:378151,4,9,0,-2,2,-3,-1,-5
13:30:22:384155,-1,23,-2,-3,1,-3,-4,-4
13:30:22:391692,-1,23,-2,-3,1,-3,-4,-4
13:30:22:399128,0,-7,-8,-2,-5,-5,-9,-3
13:30:22:406619,3,8,-20,-7,1,2,6,-12
13:30:22:414879,3,8,-20,-7,1,2,6,-12
13:30:22:415655,-16,-20,-3,-3,0,-3,-2,-4
13:30:22:429176,8,15,3,3,-2,2,10,-2
13:30:22:437390,8,15,3,3,-2,2,10,-2
13:30:22:438168,7,42,3,-1,0,5,24,-1
13:30:22:444143,0,10,7,2,2,2,-10,-8
13:30:22:451714,0,10,7,2,2,2,-10,-8
13:30:22:459145,5,11,-1,1,-4,-2,0,18
13:30:22:466663,2,3,5,-2,0,-3,-1,-5
13:30:22:475260,2,3,5,-2,0,-3,-1,-5
13:30:22:481631,0,7,-3,2,-4,-3,-16,-2
13:30:22:489148,0,8,0,-4,-3,-6,11,-3
13:30:22:498447,0,8,0,-4,-3,-6,11,-3
13:30:22:504146,12,22,0,2,-2,-2,-8,-3
13:30:22:521191,2,-8,3,0,-1,-4,-16,11
13:30:22:522002,2,-8,3,0,-1,-4,-16,11
13:30:22:522794,-4,5,3,-7,-3,-6,2,-15
13:30:22:526643,-5,-5,-10,-2,-1,1,3,5
13:30:22:534239,-5,-5,-10,-2,-1,1,3,5
13:30:22:549807,0,-31,-3,0,0,2,9,-3
13:30:22:550589,-5,8,1,-2,1,1,-3,-12
13:30:22:557371,-5,8,1,-2,1,1,-3,-12
13:30:22:558166,0,12,0,1,-1,-2,-17,-5
13:30:22:572388,-21,-37,4,-2,2,6,21,-7
13:30:22:573175,-21,-37,4,-2,2,6,21,-7
13:30:22:579146,-4,-1,-7,-4,-1,-1,-1,1
13:30:22:586645,8,13,0,2,-1,-3,-10,5
13:30:22:594255,8,13,0,2,-1,-3,-10,5
13:30:22:601652,-6,-6,-4,-4,2,-3,-8,-5
13:30:22:609157,3,14,2,0,-4,-4,-2,7
13:30:22:617370,3,14,2,0,-4,-4,-2,7
13:30:22:618185,10,16,0,-2,-2,1,6,-7
13:30:22:632417,-13,-23,-4,-1,6,9,0,-4
13:30:22:633170,-13,-23,-4,-1,6,9,0,-4
13:30:22:639177,-2,-3,2,0,0,-2,-11,-1
13:30:22:646625,4,-16,-2,-1,0,7,19,9
13:30:22:654237,4,-16,-2,-1,0,7,19,9
13:30:22:661688,-6,1,5,-3,0,3,-5,-11
13:30:22:669175,3,11,11,-2,-4,-3,-5,3
13:30:22:677373,3,11,11,-2,-4,-3,-5,3
13:30:22:678135,3,9,11,2,-2,-4,-2,-3
13:30:22:692377,9,14,-2,-3,-1,0,-3,1
13:30:22:693169,9,14,-2,-3,-1,0,-3,1
13:30:22:699178,-12,-45,-7,-1,0,0,11,-8
13:30:22:706691,-8,-3,-2,-1,0,-3,-11,-20
13:30:22:714192,-8,-3,-2,-1,0,-3,-11,-20
13:30:22:721681,-5,-15,5,3,-1,1,-3,8
13:30:22:729165,4,-2,-3,-4,-4,-9,-8,-4
13:30:22:737394,4,-2,-3,-4,-4,-9,-8,-4
13:30:22:738170,6,-16,-16,-3,-5,0,-2,4
13:30:22:752426,15,22,0,2,-2,1,-5,25
13:30:22:753146,15,22,0,2,-2,1,-5,25
13:30:22:759151,-4,10,6,-2,1,8,1,-4
13:30:22:783027,-11,-20,3,-3,-2,0,-1,-4
13:30:22:783850,-11,-20,3,-3,-2,0,-1,-4
13:30:22:784640,-3,-4,-59,-21,-18,-13,-4,3
13:30:22:789156,3,20,-3,-2,-5,-4,1,4
13:30:22:797378,3,20,-3,-2,-5,-4,1,4
13:30:22:798173,-1,9,8,-2,-12,-8,-9,-3
13:30:22:820904,2,41,-75,-10,20,6,2,-1
13:30:22:821727,2,41,-75,-10,20,6,2,-1
13:30:22:827274,-15,16,8,1,12,5,2,5
13:30:22:828100,-33,-19,42,-5,-9,-12,-11,-20
13:30:22:834215,-33,-19,42,-5,-9,-12,-11,-20
13:30:22:841632,8,-31,-15,-3,-3,-2,2,5
13:30:22:849127,-1,-5,2,-4,13,2,-1,-2
13:30:22:857406,-1,-5,2,-4,13,2,-1,-2
13:30:22:858203,7,-2,20,14,9,-2,-1,-5
13:30:22:872404,3,0,13,16,1,-1,-3,1
13:30:22:873169,3,0,13,16,1,-1,-3,1
13:30:22:879195,6,-26,14,-2,-3,4,9,13
13:30:22:886664,4,-51,25,14,-12,-2,2,14
13:30:22:894225,4,-51,25,14,-12,-2,2,14
13:30:22:901654,-14,9,-26,-8,-4,-8,-7,1
13:30:22:909176,5,8,4,0,-12,-1,4,-2
13:30:22:917410,5,8,4,0,-12,-1,4,-2
13:30:22:918165,6,-30,28,4,0,-1,0,9
13:30:22:932402,7,32,-6,-19,1,5,1,-6
13:30:22:933159,7,32,-6,-19,1,5,1,-6
13:30:22:939184,6,25,-2,-6,-8,4,7,21
13:30:22:946662,-24,-23,-6,-11,8,0,-7,-17
13:30:22:954239,-24,-23,-6,-11,8,0,-7,-17
13:30:22:961654,6,37,12,11,11,0,-1,-1
13:30:22:969153,10,7,-10,10,-7,-2,-1,7
13:30:22:977416,10,7,-10,10,-7,-2,-1,7
13:30:22:978167,-17,-38,-32,-8,14,-2,-9,-16
13:30:22:992399,11,6,10,1,0,-4,0,5
13:30:22:993206,11,6,10,1,0,-4,0,5
13:30:23:7312,-9,-39,4,-6,12,9,-4,-26
13:30:23:8106,2,-41,-24,-4,1,1,4,9
13:30:23:14229,2,-41,-24,-4,1,1,4,9
13:30:23:21643,-2,49,11,7,3,0,6,2
13:30:23:29158,-8,7,0,3,-14,-4,-4,-12
13:30:23:37389,-8,7,0,3,-14,-4,-4,-12
13:30:23:38179,0,25,19,-9,-14,-6,1,4
13:30:23:52376,6,12,-7,6,-1,-4,5,12
13:30:23:53189,6,12,-7,6,-1,-4,5,12
13:30:23:59165,-18,-73,-21,-27,-7,-7,-2,-5
13:30:23:74854,-7,-2,-16,-11,-13,-4,-1,-2
13:30:23:75709,-7,-2,-16,-11,-13,-4,-1,-2
13:30:23:81637,0,26,15,29,18,7,3,9
13:30:23:89172,5,20,13,-6,5,-1,-6,-6
13:30:23:97384,5,20,13,-6,5,-1,-6,-6
13:30:23:98157,7,15,29,10,1,1,6,6
13:30:23:112367,12,32,19,16,7,-1,-2,-7
13:30:23:113194,12,32,19,16,7,-1,-2,-7
13:30:23:119139,-8,-26,-8,-12,-6,-6,-6,-11
13:30:23:126672,-4,-28,-14,-22,-13,-5,-5,-6
13:30:23:134229,-4,-28,-14,-22,-13,-5,-5,-6
13:30:23:141670,-14,-1,-23,4,6,0,-1,1
13:30:23:149161,14,19,-9,2,2,-1,-3,7
13:30:23:157394,14,19,-9,2,2,-1,-3,7
13:30:23:158154,8,-1,-7,4,-9,1,-1,1
13:30:23:172370,-3,-35,15,10,-4,-1,4,3
13:30:23:173184,-3,-35,15,10,-4,-1,4,3
13:30:23:179148,19,36,-2,20,35,24,11,8
13:30:23:186648,5,13,27,3,0,-1,3,11
13:30:23:194182,5,13,27,3,0,-1,3,11
13:30:23:201683,-17,17,2,-11,-6,-13,-10,-12
13:30:23:209174,-2,16,-10,-17,-9,0,-1,-3
13:30:23:217380,-2,16,-10,-17,-9,0,-1,-3
13:30:23:218201,-8,-16,5,-19,-21,-13,-6,0
13:30:23:232375,0,12,-14,-2,-1,-3,-1,3
13:30:23:233152,0,12,-14,-2,-1,-3,-1,3
13:30:23:239176,-5,-44,-13,-5,5,-4,-13,-17
13:30:23:246676,-7,-12,-6,4,10,8,0,-2
13:30:23:254234,-7,-12,-6,4,10,8,0,-2
13:30:23:261634,-1,-7,-34,2,-1,0,3,3
13:30:23:269174,-3,-5,19,3,3,1,-3,-6
13:30:23:277396,-3,-5,19,3,3,1,-3,-6
13:30:23:278170,-5,-12,11,-4,-16,-9,-3,-4
13:30:23:292404,-6,0,10,11,8,3,-4,-14
13:30:23:293162,-6,0,10,11,8,3,-4,-14
13:30:23:299143,15,10,25,16,3,4,2,6
13:30:23:306644,-9,25,-17,-15,-20,-9,-2,-1
13:30:23:314211,-9,25,-17,-15,-20,-9,-2,-1
13:30:23:321659,0,-8,11,-9,-13,1,-1,-5
13:30:23:329134,-3,-18,5,-7,-9,1,6,10
13:30:23:337402,-3,-18,5,-7,-9,1,6,10
13:30:23:338170,7,4,-5,-5,-8,-6,1,8
13:30:23:352385,4,-1,-2,4,-1,2,-1,0
13:30:23:353183,4,-1,-2,4,-1,2,-1,0
13:30:23:359163,10,-10,-4,-6,-13,-2,0,2
13:30:23:366650,2,-1,-12,18,17,0,3,3
13:30:23:374222,2,-1,-12,18,17,0,3,3
13:30:23:381681,5,55,7,12,20,4,-4,-8
13:30:23:389154,3,-5,18,0,-5,-4,1,-4
13:30:23:397405,3,-5,18,0,-5,-4,1,-4
13:30:23:398196,2,48,27,-17,-15,-10,-8,-10
13:30:23:412400,-18,-31,-9,4,3,-4,-5,-13
13:30:23:413190,-18,-31,-9,4,3,-4,-5,-13
13:30:23:419141,-1,-13,-12,4,1,-2,0,4
13:30:23:426655,-10,-21,-2,-14,-17,-5,-1,-1
13:30:23:434251,-10,-21,-2,-14,-17,-5,-1,-1
13:30:23:441651,0,11,-22,-4,-3,-1,3,0
13:30:23:449156,-14,-70,-25,-12,1,1,-2,-7
13:30:23:456704,-14,-70,-25,-12,1,1,-2,-7
13:30:23:464186,-3,-4,-12,-9,-7,2,3,5
13:30:23:472375,11,37,-2,-5,12,-4,-2,5
13:30:23:473161,11,37,-2,-5,12,-4,-2,5
13:30:23:479138,-8,-31,1,-2,-6,-7,-1,-2
13:30:23:494846,-9,-17,-28,5,13,4,-11,-11
13:30:23:495668,-9,-17,-28,5,13,4,-11,-11
13:30:23:501680,5,18,5,15,4,2,2,3
13:30:23:509184,-1,3,-2,0,-6,-1,-1,-3
13:30:23:516708,-1,3,-2,0,-6,-1,-1,-3
13:30:23:524156,-9,-13,-16,-20,-3,-1,-1,2
13:30:23:540517,-9,-29,-13,-9,-8,-3,-4,-6
13:30:23:541378,-9,-29,-13,-9,-8,-3,-4,-6
13:30:23:542055,3,-4,-16,-1,-3,1,1,2
13:30:23:554810,-12,14,15,4,0,-4,-4,-15
13:30:23:555641,-12,14,15,4,0,-4,-4,-15
13:30:23:561727,7,-4,19,6,-5,-5,0,4
13:30:23:569159,13,8,21,13,-1,0,5,6
13:30:23:576680,13,8,21,13,-1,0,5,6
13:30:23:584189,-13,5,6,3,23,8,2,-4
13:30:23:592409,3,-1,6,0,9,5,2,10
13:30:23:593157,3,-1,6,0,9,5,2,10
13:30:23:599131,-14,-66,0,-8,0,1,-2,0
13:30:23:623023,9,-4,-37,4,13,-3,4,6
13:30:23:623880,9,-4,-37,4,13,-3,4,6
13:30:23:624663,15,0,7,6,13,2,-1,4
13:30:23:629161,-19,-64,1,-5,-10,-2,-2,-9
13:30:23:636673,-19,-64,1,-5,-10,-2,-2,-9
13:30:23:644188,-19,30,1,-20,-19,1,2,0
13:30:23:652426,-3,28,1,-1,-2,0,-2,0
13:30:23:653172,-3,28,1,-1,-2,0,-2,0
13:30:23:659139,9,21,27,17,8,0,-5,-12
13:30:23:674841,15,62,12,-4,-2,-6,-1,9
13:30:23:675647,15,62,12,-4,-2,-6,-1,9
13:30:23:681719,-1,3,-30,5,-13,-8,-5,-5
13:30:23:689241,6,-41,19,-12,-15,-8,-6,-5
13:30:23:696726,6,-41,19,-12,-15,-8,-6,-5
13:30:23:704140,4,-9,12,13,4,5,2,-1
13:30:23:712373,-16,-49,-7,-22,-6,-1,-2,-2
13:30:23:713165,-16,-49,-7,-22,-6,-1,-2,-2
13:30:23:719137,-28,5,2,-4,8,-5,-4,3
13:30:23:734850,-4,26,22,9,6,4,3,6
13:30:23:735635,-4,26,22,9,6,4,3,6
13:30:23:741647,-24,-7,-8,-8,-4,-4,-7,-17
13:30:23:749134,7,33,12,16,10,0,1,5
13:30:23:756702,7,33,12,16,10,0,1,5
13:30:23:764136,7,-8,-17,-6,-11,-3,-6,-6
13:30:23:772385,4,21,-23,-17,-12,-4,-2,-6
13:30:23:773207,4,21,-23,-17,-12,-4,-2,-6
13:30:23:779161,9,40,-4,-2,-13,-9,-3,2
13:30:23:794855,-4,-20,-17,6,-9,-3,0,3
13:30:23:795686,-4,-20,-17,6,-9,-3,0,3
13:30:23:801634,17,3,1,0,4,3,5,3
13:30:23:809155,12,30,13,8,11,8,3,3
13:30:23:816722,12,30,13,8,11,8,3,3
13:30:23:824192,6,-20,-13,1,0,1,1,-5
13:30:23:840520,-8,-1,9,-3,-5,-2,2,-1
13:30:23:841389,-8,-1,9,-3,-5,-2,2,-1
13:30:23:842145,0,-16,-2,-13,-11,-4,1,7
13:30:23:854828,0,12,1,2,-7,0,-2,0
13:30:23:855644,0,12,1,2,-7,0,-2,0
13:30:23:861628,-9,-18,-2,5,1,0,0,2
13:30:23:869142,-9,-3,-23,-8,-2,-1,-3,-8
13:30:23:876722,-9,-3,-23,-8,-2,-1,-3,-8
13:30:23:884132,9,16,-10,2,3,1,0,1
13:30:23:892382,2,-15,20,-13,-14,0,-3,-5
13:30:23:893168,2,-15,20,-13,-14,0,-3,-5
13:30:23:899140,6,3,-16,-10,9,-3,-3,0
13:30:23:914868,8,13,-4,-4,-8,-4,-1,-1
13:30:23:915705,8,13,-4,-4,-8,-4,-1,-1
13:30:23:921631,-5,2,41,0,-5,-3,1,6
13:30:23:929108,-5,7,7,15,17,0,-2,-3
13:30:23:936707,-5,7,7,15,17,0,-2,-3
13:30:23:944173,14,24,11,9,1,6,2,3
13:30:23:952407,0,-2,-4,-4,-3,-2,-2,-1
13:30:23:953176,0,-2,-4,-4,-3,-2,-2,-1
13:30:23:959176,-4,-2,-32,-8,8,2,2,-1
13:30:23:974842,3,-2,11,-7,-1,-3,-2,-6
13:30:23:975686,3,-2,11,-7,-1,-3,-2,-6
13:30:23:981659,-2,-34,-1,-4,-4,-4,0,3
13:30:23:989140,-2,31,-1,1,4,3,-1,-1
13:30:23:996735,-2,31,-1,1,4,3,-1,-1
13:30:24:4180,-3,24,-16,-3,-8,2,0,0
13:30:24:12309,-11,-33,-7,-8,6,-3,-9,-8
13:30:24:13149,-11,-33,-7,-8,6,-3,-9,-8
13:30:24:19198,-15,-15,6,-1,-4,-6,-4,-5
13:30:24:34819,-11,-34,-13,14,10,0,1,1
13:30:24:35617,-11,-34,-13,14,10,0,1,1
13:30:24:41687,-5,-10,-14,2,-2,-5,-4,1
13:30:24:49144,-1,19,4,1,7,4,-3,1
13:30:24:56722,-1,19,4,1,7,4,-3,1
13:30:24:64187,10,-18,23,2,-5,2,0,3
13:30:24:72400,-1,9,-13,-5,-3,-5,-1,1
13:30:24:73146,-1,9,-13,-5,-3,-5,-1,1
13:30:24:79146,-12,-62,-39,-10,3,-2,-4,-5
13:30:24:94859,-5,-18,2,0,1,-1,1,-4
13:30:24:95650,-5,-18,2,0,1,-1,1,-4
13:30:24:101686,3,10,14,6,0,-3,-7,-6
13:30:24:109200,-11,-17,-11,-10,-11,-2,4,4
13:30:24:116699,-11,-17,-11,-10,-11,-2,4,4
13:30:24:124154,-4,13,19,8,3,6,1,-1
13:30:24:132386,9,40,34,6,5,1,0,1
13:30:24:133203,9,40,34,6,5,1,0,1
13:30:24:139142,16,39,-11,-25,-16,-4,2,0
13:30:24:154867,-3,20,3,11,17,7,2,-3
13:30:24:155660,-3,20,3,11,17,7,2,-3
13:30:24:161648,-9,14,11,-2,-5,-3,0,-1
13:30:24:169142,10,5,-3,0,-9,-2,3,4
13:30:24:176723,10,5,-3,0,-9,-2,3,4
13:30:24:184151,8,13,18,1,1,-1,2,1
13:30:24:192422,-3,18,-24,1,0,1,-1,-2
13:30:24:193175,-3,18,-24,1,0,1,-1,-2
13:30:24:199183,1,9,14,-2,-6,-5,0,1
13:30:24:214857,7,-17,-1,24,19,1,3,5
13:30:24:215691,7,-17,-1,24,19,1,3,5
13:30:24:221646,15,8,-26,3,-1,-2,-1,2
13:30:24:229143,8,60,9,-8,-3,-2,-4,-8
13:30:24:236732,8,60,9,-8,-3,-2,-4,-8
13:30:24:244165,-4,0,27,22,24,5,-1,1
13:30:24:252315,6,6,5,-8,-15,-5,-7,-1
13:30:24:253145,6,6,5,-8,-15,-5,-7,-1
13:30:24:259168,-9,-19,4,-4,2,0,-2,-1
13:30:24:274874,-32,-35,-1,3,-4,0,0,-8
13:30:24:275668,-32,-35,-1,3,-4,0,0,-8
13:30:24:281663,3,-10,-6,10,10,11,-2,-2
13:30:24:289169,4,-12,-22,-18,-15,-7,-2,4
13:30:24:296772,4,-12,-22,-18,-15,-7,-2,4
13:30:24:304172,-13,1,-14,-8,-5,-6,-12,-28
13:30:24:312342,13,38,12,4,0,0,0,1
13:30:24:313136,13,38,12,4,0,0,0,1
13:30:24:319222,-1,4,-29,-3,-5,-4,3,15
13:30:24:334826,-3,-43,-7,2,-2,-2,-3,-7
13:30:24:335625,-3,-43,-7,2,-2,-2,-3,-7
13:30:24:341684,-9,2,15,9,13,8,7,-2
13:30:24:349153,-32,-61,5,-6,-7,-5,1,-2
13:30:24:356679,-32,-61,5,-6,-7,-5,1,-2
13:30:24:364202,2,11,-5,4,2,-2,-2,-4
13:30:24:372374,14,31,25,-2,0,-1,0,3
13:30:24:373182,14,31,25,-2,0,-1,0,3
13:30:24:386668,2,10,0,-20,-12,-5,-5,-3
13:30:24:394832,7,-16,-11,1,-1,-4,4,11
13:30:24:395685,7,-16,-11,1,-1,-4,4,11
13:30:24:401611,-20,7,-8,-4,7,-4,1,-1
13:30:24:417352,7,-10,-10,1,-1,-3,-6,-2
13:30:24:418147,7,-10,-10,1,-1,-3,-6,-2
13:30:24:424184,14,-20,7,0,-5,-2,2,5
13:30:24:432392,-10,-27,-8,-8,1,-1,-4,0
13:30:24:433164,-10,-27,-8,-8,1,-1,-4,0
13:30:24:446666,-6,-13,-5,-15,11,9,2,10
13:30:24:454815,7,28,-20,8,14,3,0,0
13:30:24:455635,7,28,-20,8,14,3,0,0
13:30:24:461661,6,10,4,-8,5,0,-9,-7
13:30:24:477400,6,10,4,-8,5,0,-9,-7
13:30:24:478081,5,9,2,-8,-6,0,3,5
13:30:24:484162,12,23,4,17,11,2,-1,7
13:30:24:492389,12,23,4,17,11,2,-1,7
13:30:24:493138,-10,-6,-1,-6,-2,0,-1,-9
13:30:24:506643,-13,-26,-28,-7,-17,-5,-3,-1
13:30:24:514841,-13,-26,-28,-7,-17,-5,-3,-1
13:30:24:515631,6,-4,-11,-3,-8,-2,0,5
13:30:24:521658,-2,3,9,2,-4,-2,1,-6
13:30:24:537392,-2,3,9,2,-4,-2,1,-6
13:30:24:538181,5,27,-29,-10,-11,-1,-1,-1
13:30:24:553048,4,10,28,9,-4,-4,3,0
13:30:24:553847,4,10,28,9,-4,-4,3,0
13:30:24:554649,3,22,2,3,3,-1,-2,-3
13:30:24:566628,-8,-22,-16,-3,-17,-8,-10,-9
13:30:24:574889,-8,-22,-16,-3,-17,-8,-10,-9
13:30:24:575672,8,27,10,3,-5,-2,-3,3
13:30:24:581649,-34,-51,-2,-14,-16,-11,-13,-10
13:30:24:597418,-34,-51,-2,-14,-16,-11,-13,-10
13:30:24:598176,9,-17,5,6,-4,3,10,9
13:30:24:604139,2,28,-9,-3,-1,-1,0,-4
13:30:24:613022,2,28,-9,-3,-1,-1,0,-4
13:30:24:613838,-7,6,34,-6,3,0,0,-3
13:30:24:626728,13,5,0,4,-8,-1,4,1
13:30:24:634909,13,5,0,4,-8,-1,4,1
13:30:24:635645,2,7,6,-1,0,2,1,1
13:30:24:641645,-13,-11,9,8,1,-4,-1,-1
13:30:24:657405,-13,-11,9,8,1,-4,-1,-1
13:30:24:658157,-4,-29,-6,-1,2,-2,-4,2
13:30:24:673001,14,-3,5,-1,3,2,4,1
13:30:24:673806,14,-3,5,-1,3,2,4,1
13:30:24:674594,-8,-20,6,5,21,10,1,-4
13:30:24:686634,2,-30,-1,4,0,-1,-3,0
13:30:24:694957,2,-30,-1,4,0,-1,-3,0
13:30:24:695677,-21,-18,-3,-10,-12,-8,-5,-9
13:30:24:701655,15,8,-12,-17,-11,-2,2,-1
13:30:24:717392,15,8,-12,-17,-11,-2,2,-1
13:30:24:718213,-5,-42,-13,-3,-9,-6,-10,-11
13:30:24:724168,-12,-3,-50,-19,-14,-8,-5,-2
13:30:24:732400,-12,-3,-50,-19,-14,-8,-5,-2
13:30:24:733185,7,-2,-40,-8,-6,-2,3,5
13:30:24:746651,-3,8,24,7,5,5,0,-5
13:30:24:754869,-3,8,24,7,5,5,0,-5
13:30:24:755703,-1,11,0,10,-2,-2,2,11
13:30:24:769144,9,29,10,5,7,7,7,8
13:30:24:777386,9,29,10,5,7,7,7,8
13:30:24:778183,-2,-21,20,-5,-6,-2,-4,-7
13:30:24:784138,-4,-21,15,2,15,6,7,2
13:30:24:792407,-4,-21,15,2,15,6,7,2
13:30:24:793205,1,-30,-2,-1,-8,-5,-2,-6
13:30:24:806639,10,12,16,8,5,1,2,2
13:30:24:814885,10,12,16,8,5,1,2,2
13:30:24:815710,2,33,15,11,6,3,-6,-3
13:30:24:821663,10,31,-1,8,8,1,-1,5
13:30:24:837424,10,31,-1,8,8,1,-1,5
13:30:24:838177,-11,-6,11,6,10,1,-2,-4
13:30:24:844154,17,37,-10,0,6,2,2,2
13:30:24:852406,17,37,-10,0,6,2,2,2
13:30:24:853159,-2,23,-6,3,3,-1,1,-1
13:30:24:866634,4,-11,-3,-7,-6,0,3,-6
13:30:24:874904,4,-11,-3,-7,-6,0,3,-6
13:30:24:875673,2,12,-2,-9,-3,1,-2,-3
13:30:24:881679,-6,9,-25,-9,-1,-5,-5,3
13:30:24:897403,-6,9,-25,-9,-1,-5,-5,3
13:30:24:898161,-12,-31,-12,-13,-7,-7,-7,-11
13:30:24:904145,-12,-37,15,5,-6,-7,-7,-7
13:30:24:912420,-12,-37,15,5,-6,-7,-7,-7
13:30:24:913167,-1,11,-12,-6,9,-2,2,4
13:30:24:926636,-13,29,-11,-3,8,-1,-3,2
13:30:24:934889,-13,29,-11,-3,8,-1,-3,2
13:30:24:935647,10,10,26,4,11,1,-2,1
13:30:24:941656,2,12,44,16,7,3,5,10
13:30:24:957413,2,12,44,16,7,3,5,10
13:30:24:958144,9,12,-4,-1,-1,0,-2,-8
13:30:24:964120,-3,-37,-14,-7,-8,-3,-8,-11
13:30:24:972383,-3,-37,-14,-7,-8,-3,-8,-11
13:30:24:973191,-4,10,4,-2,-7,-1,2,3
13:30:24:986685,-10,-38,-5,5,-3,2,2,0
13:30:24:994854,-10,-38,-5,5,-3,2,2,0
13:30:24:995686,8,-20,8,-1,11,13,8,14
13:30:25:1632,-2,6,-25,-9,6,4,0,-4
13:30:25:17401,-2,6,-25,-9,6,4,0,-4
13:30:25:18159,4,-4,2,6,0,-2,2,6
13:30:25:24167,2,-19,-1,2,-3,1,4,6
13:30:25:32407,2,-19,-1,2,-3,1,4,6
13:30:25:33153,6,6,-6,-4,-6,-4,-4,-7
13:30:25:46689,-19,16,-1,-5,-4,-4,-12,-14
13:30:25:54866,-19,16,-1,-5,-4,-4,-12,-14
13:30:25:55644,-4,9,-11,-7,-3,0,1,-2
13:30:25:61681,-14,-79,2,1,-9,-1,1,-18
13:30:25:77408,-14,-79,2,1,-9,-1,1,-18
13:30:25:78097,0,-19,-7,4,-7,-3,-2,4
13:30:25:84167,6,-5,-9,-7,-9,-8,-5,3
13:30:25:92397,6,-5,-9,-7,-9,-8,-5,3
13:30:25:93142,-7,12,17,6,16,3,-8,-10
13:30:25:107157,-5,-31,8,-2,-5,-8,-7,-2
13:30:25:114870,-5,-31,8,-2,-5,-8,-7,-2
13:30:25:115775,0,15,-5,-13,-11,-5,-1,-1
13:30:25:121705,6,7,5,7,13,9,3,-6
13:30:25:137447,6,7,5,7,13,9,3,-6
13:30:25:138192,-11,-25,3,1,-8,-4,4,12
13:30:25:144161,11,36,8,3,-9,-6,-5,-7
13:30:25:159882,11,36,8,3,-9,-6,-5,-7
13:30:25:160708,7,6,7,8,-3,0,3,2
13:30:25:166679,-1,0,7,-6,-1,-2,5,4
13:30:25:174919,-1,0,7,-6,-1,-2,5,4
13:30:25:175719,0,13,-22,-4,-3,-3,-5,-1
13:30:25:181695,-1,23,2,-3,-4,0,1,3
13:30:25:197403,-1,23,2,-3,-4,0,1,3
13:30:25:198194,-3,-11,7,-3,-12,-1,-4,-7
13:30:25:204155,18,24,-10,4,1,-2,-2,5
13:30:25:212428,18,24,-10,4,1,-2,-2,5
13:30:25:213075,-11,-48,-64,-10,-1,-2,-6,-18
13:30:25:226630,3,0,0,-1,-14,-3,-5,-3
13:30:25:234906,3,0,0,-1,-14,-3,-5,-3
13:30:25:235705,-2,6,22,13,8,-1,2,-1
13:30:25:241650,3,-10,-13,3,0,-2,-5,13
13:30:25:257429,3,-10,-13,3,0,-2,-5,13
13:30:25:258175,2,-19,16,-3,4,2,0,-5
13:30:25:264158,-30,-47,2,-3,1,-3,-6,-5
13:30:25:272441,-30,-47,2,-3,1,-3,-6,-5
13:30:25:273205,-1,-15,11,5,4,3,15,13
13:30:25:286665,-3,-1,-43,-15,-4,-8,-13,-16
13:30:25:294882,-3,-1,-43,-15,-4,-8,-13,-16
13:30:25:295685,-2,3,3,5,-3,-1,4,6
13:30:25:301642,6,35,19,-13,-6,2,15,15
13:30:25:317425,6,35,19,-13,-6,2,15,15
13:30:25:318173,-1,4,-7,-3,-15,-9,-11,-3
13:30:25:324156,13,20,5,14,3,-1,-1,0
13:30:25:331730,13,20,5,14,3,-1,-1,0
13:30:25:339164,4,39,-19,-2,-6,-4,-4,-1
13:30:25:346654,2,-10,1,1,6,0,-11,-9
13:30:25:354919,2,-10,1,1,6,0,-11,-9
13:30:25:355687,-3,-11,-1,7,11,4,3,7
13:30:25:369152,11,10,0,-8,-2,2,24,9
13:30:25:385545,11,10,0,-8,-2,2,24,9
13:30:25:386393,-2,20,16,-15,-6,-4,-10,-12
13:30:25:387093,-10,-4,-2,2,4,0,-4,4
13:30:25:391737,-10,-4,-2,2,4,0,-4,4
13:30:25:399196,-21,-17,14,-10,-3,-2,6,-10
13:30:25:406670,-3,22,4,0,-1,0,-3,-17
13:30:25:414886,-3,22,4,0,-1,0,-3,-17
13:30:25:415717,-4,15,4,5,10,1,-4,-5
13:30:25:429177,-10,-22,-8,-3,-2,-1,7,10
13:30:25:437388,-10,-22,-8,-3,-2,-1,7,10
13:30:25:438172,9,12,0,-1,-3,2,7,10
13:30:25:444156,1,13,21,0,10,1,-4,4
13:30:25:451753,1,13,21,0,10,1,-4,4
13:30:25:459187,7,10,5,4,8,0,-2,0
13:30:25:466674,8,34,9,-3,-13,-8,-13,-3
13:30:25:474870,8,34,9,-3,-13,-8,-13,-3
13:30:25:475647,12,20,1,2,5,-1,-11,0
13:30:25:489156,-3,0,-9,0,5,0,1,7
13:30:25:497420,-3,0,-9,0,5,0,1,7
13:30:25:498193,-12,-48,-12,-5,-8,-3,1,-5
13:30:25:504178,-7,-5,-8,-1,2,0,-2,-2
13:30:25:511675,-7,-5,-8,-1,2,0,-2,-2
13:30:25:519190,-5,-31,-45,-9,-1,1,0,6
13:30:25:526676,5,-12,-2,10,6,2,-8,-4
13:30:25:534887,5,-12,-2,10,6,2,-8,-4
13:30:25:535676,3,-9,-3,-8,-6,-5,-4,-10
13:30:25:549185,2,6,-11,-4,-2,1,8,8
13:30:25:557427,2,6,-11,-4,-2,1,8,8
13:30:25:558186,-8,14,9,-8,-14,0,2,6
13:30:25:564184,-19,0,10,-1,2,-2,-1,-4
13:30:25:571694,-19,0,10,-1,2,-2,-1,-4
13:30:25:579154,1,4,1,0,-15,-4,1,3
13:30:25:586643,0,-17,-23,4,6,2,-3,-7
13:30:25:594903,0,-17,-23,4,6,2,-3,-7
13:30:25:595687,7,20,-11,-5,1,-4,-11,-6
13:30:25:609186,-3,-41,-6,-7,-5,-5,-5,-4
13:30:25:617392,-3,-41,-6,-7,-5,-5,-5,-4
13:30:25:618155,12,28,17,8,3,-1,3,5
13:30:25:624136,-8,-27,-17,-3,1,1,4,-4
13:30:25:631700,-8,-27,-17,-3,1,1,4,-4
13:30:25:639162,14,5,5,2,3,1,-4,-5
13:30:25:646644,0,-8,7,7,1,6,3,2
13:30:25:662421,0,-8,7,7,1,6,3,2
13:30:25:663152,1,23,9,-5,1,0,0,-2
13:30:25:669116,0,-4,10,-2,7,2,4,2
13:30:25:677405,0,-4,10,-2,7,2,4,2
13:30:25:678174,-3,-5,-4,3,4,0,0,0
13:30:25:684164,-2,23,5,-14,-15,-9,-1,-15
13:30:25:691720,-2,23,5,-14,-15,-9,-1,-15
13:30:25:699153,0,9,-11,-3,0,0,0,-11
13:30:25:706647,4,31,13,0,-7,-6,-1,1
13:30:25:714891,4,31,13,0,-7,-6,-1,1
13:30:25:715712,-6,-15,11,3,-7,-3,2,-14
13:30:25:729147,-3,-8,5,5,3,3,3,1
13:30:25:737425,-3,-8,5,5,3,3,3,1
13:30:25:738161,-2,-10,5,4,9,3,4,10
13:30:25:744164,-3,2,2,-5,-7,-5,-3,-5
13:30:25:751763,-3,2,2,-5,-7,-5,-3,-5
13:30:25:759187,-1,-8,-4,4,-4,-3,1,22
13:30:25:766683,-2,-5,23,12,5,4,-1,10
13:30:25:774836,-2,-5,23,12,5,4,-1,10
13:30:25:775660,-7,3,-13,-12,-6,-5,-6,-3
13:30:25:789159,3,-6,-4,-8,-4,-1,-3,1
13:30:25:797401,3,-6,-4,-8,-4,-1,-3,1
13:30:25:798207,2,-28,-4,5,0,1,0,6
13:30:25:804181,8,4,-6,3,-5,3,6,5
13:30:25:811725,8,4,-6,3,-5,3,6,5
13:30:25:819182,-11,-47,-11,-6,-6,-5,1,-1
13:30:25:835468,4,2,5,2,5,2,-5,4
13:30:25:836296,4,2,5,2,5,2,-5,4
13:30:25:837104,-6,18,3,-4,2,2,0,-11
13:30:25:849185,-13,-18,-15,3,3,-3,-7,-4
13:30:25:857402,-13,-18,-15,3,3,-3,-7,-4
13:30:25:858202,0,8,16,14,12,2,3,4
13:30:25:864135,-6,-2,7,-8,-9,-5,-2,-4
13:30:25:871751,-6,-2,7,-8,-9,-5,-2,-4
13:30:25:879193,3,14,1,0,8,2,-1,3
13:30:25:886678,13,18,0,-4,0,-2,0,-7
13:30:25:894858,13,18,0,-4,0,-2,0,-7
13:30:25:895653,-7,-25,-26,-8,-10,-7,-8,-4
13:30:25:909148,-8,19,0,2,2,0,-2,-3
